1593002275.00
64.000000
-0.00
-0.00
-0.00
-0.00
-0.00
-0.00
-0.00
-0.00
-0.00
-0.00
0.00
0.01
0.01
-0.00
-0.03
-0.05
-0.05
0.00
0.13
0.36
0.66
1.01
1.37
1.72
2.06
2.40
2.79
3.24
3.80
4.42
5.06
5.66
6.20
6.68
7.15
7.68
8.31
9.14
10.09
11.04
11.88
12.56
13.14
13.76
14.65
15.96
17.91
20.32
22.90
25.38
27.58
29.57
31.68
34.32
37.81
42.54
48.15
54.11
59.83
64.98
69.59
74.14
79.34
85.70
93.76
103.00
112.64
121.78
129.81
136.77
143.24
150.56
157.45
166.18
177.39
191.19
206.37
219.98
227.65
224.71
207.78
175.98
131.76
78.98
22.01
-35.96
-93.41
-150.18
-206.42
-261.84
-315.55
-365.98
-412.09
-453.16
-488.64
-517.80
-539.44
-551.90
-553.41
-542.75
-519.41
-484.38
-439.68
-388.06
-332.48
-275.55
-219.24
-164.79
-112.93
-64.03
-18.64
22.55
58.67
88.91
112.77
130.34
142.35
149.98
154.57
157.14
158.26
157.94
155.91
151.84
145.52
136.91
126.11
113.58
100.46
88.82
81.26
80.13
86.30
98.50
113.48
127.15
136.11
138.79
135.72
128.77
119.93
110.48
100.82
90.87
80.67
70.88
62.18
55.12
49.79
45.68
41.93
37.69
32.59
26.87
21.29
16.69
13.62
12.05
11.35
10.62
9.11
6.66
3.69
0.94
-0.88
-1.54
-1.33
-0.94
-0.99
-1.72
-2.90
-3.97
-4.43
-4.18
-3.52
-2.89
-2.51
-2.18
-1.46
-0.04
1.92
3.73
4.52
3.74
1.52
-1.35
-3.86
-5.29
-5.54
-5.07
-4.57
-4.46
-4.76
-5.11
-5.16
-4.75
-4.05
-3.44
-3.21
-3.46
-3.97
-4.36
-4.25
-3.48
-2.13
-0.53
0.84
1.58
1.48
0.65
-0.46
-1.29
-1.33
-0.37
1.39
3.43
5.12
6.05
6.10
5.47
4.49
3.47
2.47
1.44
0.36
-0.64
-1.21
-0.91
0.51
2.90
5.78
8.46
10.37
11.28
11.30
10.78
9.96
8.98
7.60
5.63
3.00
-0.13
-3.44
-6.56
-9.22
-11.28
-12.68
-13.42
-13.51
-12.98
-11.97
-10.69
-9.40
-8.37
-7.77
-7.61
-7.76
-7.94
-7.85
-7.31
-6.32
-5.11
-4.01
-3.32
-3.12
-3.23
-3.36
-3.22
-2.74
-2.10
-1.55
-1.29
-1.32
-1.48
-1.57
-1.53
-1.45
-1.51
-1.80
-2.23
-2.58
-2.58
-2.13
-1.34
-0.53
-0.07
-0.17
-0.81
-1.74
-2.58
-3.04
-2.98
-2.49
-1.81
-1.19
-0.77
-0.52
-0.32
0.01
0.56
1.34
2.22
3.04
3.65
4.03
4.31
4.64
5.12
5.69
6.15
6.26
5.90
5.13
4.16
3.24
2.55
2.12
1.87
1.62
1.24
0.69
0.01
-0.65
-1.14
-1.40
-1.46
-1.47
-1.64
-2.13
-2.92
-3.82
-4.57
-4.99
-5.11
-5.17
-5.49
-6.20
-7.15
-7.97
-8.16
-7.43
-5.80
-3.62
-1.42
0.35
1.53
2.22
2.73
3.32
4.06
4.80
5.24
5.20
4.70
3.98
3.43
3.27
3.48
3.79
3.80
3.29
2.29
1.04
-0.10
-0.93
-1.45
-1.84
-2.27
-2.81
-3.40
-3.86
-4.08
-4.06
-3.95
-3.97
-4.28
-4.93
-5.85
-6.85
-7.67
-8.12
-8.08
-7.59
-6.81
-5.93
-5.09
-4.28
-3.40
-2.35
-1.11
0.15
1.18
1.81
1.99
1.90
1.73
1.59
1.38
0.93
0.10
-0.97
-1.95
-2.44
-2.24
-1.50
-0.66
-0.25
-0.58
-1.63
-3.05
-4.41
-5.43
-6.13
-6.73
-7.53
-8.69
-10.16
-11.72
-13.13
-14.26
-15.10
-15.79
-16.40
-16.91
-17.10
-16.66
-15.24
-12.72
-9.20
-5.07
-0.80
3.18
6.70
9.78
12.60
15.29
17.80
19.92
21.36
21.93
21.65
20.73
19.51
18.26
17.17
16.30
15.62
15.10
14.68
14.25
13.67
12.84
11.70
10.33
8.86
7.50
6.38
5.54
4.89
4.31
3.61
2.67
1.48
0.17
-0.93
-1.50
-1.28
-0.30
1.09
2.40
3.22
3.45
3.33
3.30
3.69
4.53
5.50
6.16
6.16
5.47
4.36
3.26
2.52
2.30
2.52
2.90
3.12
2.96
2.36
1.44
0.44
-0.35
-0.81
-0.97
-1.02
-1.17
-1.49
-1.89
-2.18
-2.23
-2.14
-2.22
-2.79
-3.97
-5.57
-7.10
-8.03
-7.99
-6.95
-5.26
-3.42
-1.89
-0.86
-0.25
0.20
0.75
1.54
2.45
3.25
3.74
3.87
3.73
3.51
3.36
3.32
3.26
3.06
2.63
2.02
1.42
1.00
0.84
0.87
0.85
0.54
-0.21
-1.35
-2.64
-3.77
-4.51
-4.87
-5.01
-5.18
-5.56
-6.14
-6.78
-7.27
-7.47
-7.33
-6.88
-6.14
-5.10
-3.75
-2.16
-0.49
0.98
2.01
2.49
2.48
2.28
2.17
2.37
2.84
3.33
3.48
3.06
2.05
0.65
-0.78
-1.96
-2.73
-3.14
-3.29
-3.38
-3.49
-3.64
-3.79
-3.89
-3.91
-3.90
-3.96
-4.18
-4.63
-5.28
-6.02
-6.70
-7.21
-7.48
-7.55
-7.48
-7.26
-6.84
-6.05
-4.83
-3.17
-1.27
0.58
2.06
2.92
3.15
2.96
2.71
2.72
3.12
3.79
4.44
4.75
4.56
3.95
3.18
2.55
2.23
2.18
2.18
1.98
1.48
0.76
0.05
-0.42
-0.57
-0.50
-0.45
-0.62
-1.06
-1.62
-2.07
-2.25
-2.19
-2.10
-2.19
-2.53
-2.99
-3.27
-3.12
-2.42
-1.25
0.17
1.59
2.86
3.92
4.73
5.33
5.76
6.06
6.30
6.53
6.74
6.90
6.98
6.95
6.80
6.56
6.22
5.76
5.12
4.34
3.50
2.79
2.38
2.35
2.60
2.86
2.84
2.34
1.39
0.20
-0.93
-1.82
-2.48
-3.08
-3.77
-4.57
-5.30
-5.67
-5.43
-4.54
-3.18
-1.71
-0.42
0.53
1.19
1.72
2.31
3.00
3.70
4.23
4.47
4.42
4.21
4.07
4.14
4.38
4.59
4.50
3.97
3.03
1.91
0.92
0.31
0.15
0.29
0.49
0.50
0.21
-0.30
-0.82
-1.13
-1.15
-1.05
-1.13
-1.69
-2.83
-4.36
-5.88
-6.98
-7.43
-7.26
-6.71
-6.04
-5.37
-4.67
-3.80
-2.64
-1.20
0.36
1.76
2.78
3.27
3.28
3.01
2.66
2.39
2.23
2.05
1.74
1.22
0.59
0.01
-0.35
-0.50
-0.54
-0.69
-1.06
-1.60
-2.14
-2.50
-2.60
-2.59
-2.70
-3.18
-4.07
-5.26
-6.49
-7.50
-8.18
-8.58
-8.85
-9.10
-9.32
-9.30
-8.81
-7.72
-6.14
-4.38
-2.84
-1.79
-1.25
-0.98
-0.67
-0.13
0.68
1.57
2.32
2.76
2.87
2.77
2.62
2.56
2.65
2.85
3.04
3.08
2.86
2.40
1.77
1.12
0.58
0.18
-0.14
-0.46
-0.88
-1.38
-1.86
-2.25
-2.48
-2.58
-2.67
-2.85
-3.19
-3.61
-3.96
-4.05
-3.77
-3.16
-2.34
-1.52
-0.81
-0.14
0.67
1.79
3.20
4.64
5.71
6.07
5.69
4.86
4.05
3.66
3.79
4.19
4.48
4.32
3.69
2.83
2.10
1.80
1.97
2.41
2.83
3.01
2.86
2.47
2.01
1.62
1.34
1.10
0.77
0.26
-0.43
-1.17
-1.80
-2.15
-2.20
-2.01
-1.69
-1.38
-1.13
-0.88
-0.49
0.20
1.22
2.50
3.80
4.84
5.45
5.60
5.49
5.36
5.40
5.59
5.75
5.65
5.16
4.36
3.50
2.81
2.41
2.26
2.19
2.06
1.81
1.47
1.08
0.67
0.24
-0.27
-0.89
-1.61
-2.35
-3.03
-3.53
-3.83
-3.96
-4.06
-4.33
-4.89
-5.73
-6.57
-7.04
-6.73
-5.51
-3.52
-1.23
0.85
2.36
3.28
3.83
4.33
4.91
5.46
5.69
5.38
4.55
3.51
2.76
2.65
3.20
4.03
4.60
4.49
3.62
2.24
0.80
-0.34
-1.03
-1.38
-1.58
-1.77
-1.97
-2.12
-2.19
-2.25
-2.48
-3.08
-4.13
-5.50
-6.93
-8.11
-8.80
-8.89
-8.46
-7.66
-6.68
-5.65
-4.61
-3.52
-2.30
-0.92
0.55
1.97
3.13
3.89
4.24
4.26
4.11
3.93
3.77
3.61
3.33
2.87
2.27
1.64
1.16
0.94
0.98
1.15
1.18
0.89
0.21
-0.69
-1.53
-2.07
-2.32
-2.52
-3.07
-4.26
-6.07
-8.15
-9.93
-10.90
-10.85
-9.90
-8.47
-6.98
-5.74
-4.84
-4.18
-3.58
-2.92
-2.14
-1.27
-0.40
0.39
1.08
1.69
2.31
2.94
3.49
3.79
3.69
3.14
2.31
1.51
1.06
1.10
1.54
2.06
2.32
2.16
1.64
1.01
0.52
0.24
0.06
-0.21
-0.71
-1.36
-2.00
-2.45
-2.66
-2.76
-2.94
-3.35
-3.97
-4.58
-4.90
-4.64
-3.72
-2.20
-0.37
1.43
2.89
3.87
4.38
4.61
4.78
4.99
5.23
5.36
5.25
4.89
4.40
3.93
3.63
3.51
3.48
3.43
3.26
3.00
2.73
2.55
2.52
2.59
2.63
2.47
2.02
1.30
0.45
-0.28
-0.67
-0.66
-0.38
-0.15
-0.27
-0.88
-1.87
-2.90
-3.55
-3.57
-2.97
-1.94
-0.78
0.32
1.32
2.31
3.28
4.16
4.73
4.88
4.60
4.12
3.76
3.73
4.05
4.49
4.76
4.62
4.06
3.24
2.47
1.98
1.85
1.98
2.13
2.07
1.69
1.01
0.19
-0.55
-1.12
-1.55
-2.00
-2.68
-3.64
-4.79
-5.93
-6.80
-7.30
-7.45
-7.38
-7.16
-6.79
-6.15
-5.13
-3.74
-2.11
-0.52
0.77
1.65
2.17
2.54
3.02
3.72
4.59
5.44
5.99
6.04
5.59
4.83
4.06
3.56
3.40
3.40
3.26
2.73
1.83
0.81
-0.02
-0.44
-0.53
-0.59
-0.91
-1.57
-2.43
-3.18
-3.58
-3.63
-3.52
-3.54
-3.91
-4.64
-5.58
-6.52
-7.22
-7.50
-7.27
-6.55
-5.49
-4.28
-3.13
-2.06
-0.95
0.39
2.04
3.85
5.43
6.43
6.70
6.40
5.92
5.60
5.52
5.50
5.20
4.47
3.43
2.44
1.84
1.72
1.86
1.85
1.34
0.30
-1.01
-2.14
-2.73
-2.70
-2.30
-1.97
-2.10
-2.86
-4.06
-5.35
-6.35
-6.91
-7.12
-7.24
-7.50
-7.93
-8.29
-8.29
-7.68
-6.46
-4.85
-3.21
-1.84
-0.88
-0.27
0.17
0.63
1.25
2.00
2.74
3.25
3.38
3.10
2.54
1.93
1.47
1.25
1.17
1.06
0.80
0.41
0.04
-0.12
-0.01
0.27
0.47
0.33
-0.24
-1.14
-2.11
-2.86
-3.24
-3.27
-3.18
-3.24
-3.66
-4.42
-5.32
-6.07
-6.39
-6.22
-5.67
-4.96
-4.25
-3.59
-2.89
-2.04
-1.04
-0.02
0.79
1.22
1.27
1.13
1.02
1.13
1.41
1.69
1.72
1.34
0.55
-0.48
-1.50
-2.31
-2.84
-3.17
-3.48
-3.90
-4.50
-5.23
-5.97
-6.62
-7.16
-7.62
-8.12
-8.77
-9.58
-10.49
-11.32
-11.86
-11.86
-11.11
-9.51
-7.08
-3.99
-0.46
3.22
6.85
10.27
13.41
16.17
18.48
20.29
21.60
22.44
22.91
23.03
22.81
22.16
21.04
19.45
17.54
15.55
13.71
12.17
10.96
9.98
9.07
8.12
7.10
6.13
5.35
4.86
4.60
4.36
3.86
2.92
1.57
0.04
-1.35
-2.36
-2.95
-3.23
-3.40
-3.59
-3.84
-4.10
-4.32
-4.52
-4.79
-5.23
-5.83
-6.49
-7.00
-7.09
-6.57
-5.38
-3.68
-1.80
-0.12
1.10
1.81
2.16
2.42
2.77
3.16
3.38
3.18
2.48
1.42
0.36
-0.37
-0.59
-0.43
-0.20
-0.28
-0.85
-1.87
-3.08
-4.14
-4.90
-5.38
-5.81
-6.43
-7.34
-8.43
-9.44
-10.18
-10.57
-10.76
-10.98
-11.33
-11.73
-11.89
-11.49
-10.40
-8.73
-6.84
-5.10
-3.74
-2.73
-1.86
-0.91
0.24
1.51
2.68
3.53
3.96
4.02
3.88
3.73
3.68
3.70
3.70
3.56
3.25
2.91
2.72
2.87
3.38
4.06
4.62
4.84
4.72
4.49
4.53
5.07
6.14
7.45
8.58
9.11
8.84
7.82
6.34
4.78
3.51
2.72
2.44
2.55
2.86
3.20
3.54
3.90
4.33
4.80
5.20
5.41
5.40
5.26
5.15
5.22
5.44
5.59
5.44
4.84
3.82
2.65
1.68
1.19
1.23
1.60
1.98
2.01
1.53
0.57
-0.65
-1.83
-2.74
-3.33
-3.68
-4.02
-4.53
-5.26
-6.14
-6.98
-7.58
-7.91
-8.02
-8.10
-8.26
-8.44
-8.44
-8.01
-7.01
-5.57
-3.99
-2.65
-1.79
-1.38
-1.25
-1.17
-1.03
-0.86
-0.81
-1.00
-1.42
-2.00
-2.61
-3.15
-3.60
-3.98
-4.31
-4.58
-4.68
-4.53
-4.09
-3.43
-2.84
-2.67
-3.21
-4.46
-6.04
-7.26
-7.47
-6.46
-4.70
-3.21
-3.05
-4.71
-7.71
-10.72
-12.11
-10.82
-6.91
-1.61
3.22
6.00
6.19
4.61
3.00
3.27
6.49
12.45
19.68
26.16
30.08
30.45
27.45
22.45
18.12
18.29
27.48
49.61
86.26
135.06
189.48
240.25
278.23
297.51
297.31
281.73
257.75
232.33
210.13
192.67
179.03
167.38
156.32
145.35
134.43
123.12
109.94
92.70
69.55
40.33
7.17
-25.91
-54.51
-75.65
-88.71
-95.32
-98.14
-99.30
-99.52
-98.14
-93.94
-86.23
-75.47
-63.16
-51.13
-40.73
-32.19
-24.67
-16.85
-7.82
2.32
12.39
20.55
25.17
25.48
21.76
15.06
6.55
-3.03
-13.57
-25.40
-38.85
-53.75
-69.25
-83.96
-96.35
-105.27
-110.28
-111.74
-110.55
-107.84
-104.43
-100.66
-96.31
-90.73
-83.19
-73.22
-60.91
-47.01
-32.86
-20.09
-10.23
-4.29
-2.51
-4.27
-8.22
-12.69
-16.21
-18.01
-18.34
-18.38
-19.81
-24.27
-32.66
-44.78
-59.35
-74.29
-87.30
-96.41
-100.39
-99.06
-93.18
-84.21
-73.78
-63.21
-53.20
-43.97
-35.71
-29.03
-24.98
-24.54
-27.84
-33.51
-38.87
-40.83
-37.21
-27.70
-13.85
1.64
16.24
28.45
37.91
44.94
49.90
52.68
52.79
49.78
43.62
34.96
24.97
15.09
6.62
0.41
-3.32
-4.96
-5.29
-5.12
-4.92
-4.65
-3.89
-2.23
0.43
3.63
6.55
8.25
8.21
6.45
3.49
0.06
-3.30
-6.44
-9.51
-12.73
-16.16
-19.70
-23.32
-27.21
-31.77
-37.33
-43.61
-49.67
-54.17
-56.18
-55.74
-53.93
-52.35
-52.29
-54.16
-57.66
-62.35
-68.27
-76.00
-86.13
-98.37
-110.92
-120.58
-123.81
-118.16
-103.89
-84.64
-66.98
-58.75
-66.98
-95.90
-145.69
-212.08
-287.10
-360.59
-422.22
-463.60
-480.01
-471.15
-440.83
-395.58
-342.78
-288.86
-238.24
-193.15
-153.92
-119.51
-87.94
-56.43
-21.83
18.69
66.48
120.26
175.59
225.41
261.89
279.42
277.02
259.25
234.68
212.48
198.76
194.46
195.97
197.75
195.63
188.67
178.96
169.73
163.14
159.39
157.18
155.09
152.67
150.73
150.62
153.00
157.13
160.87
161.62
157.51
148.35
135.56
121.47
108.28
97.10
87.75
79.01
69.65
59.19
48.02
37.08
27.27
19.27
13.27
9.25
6.41
3.91
1.16
-2.15
-5.97
-9.76
-12.16
-11.73
-7.29
0.13
8.58
16.06
21.19
23.46
23.07
21.22
18.77
16.42
12.52
5.60
-4.33
-15.84
-27.03
-36.74
-44.16
-50.21
-56.02
-65.16
-79.96
-100.13
-123.28
-146.37
-167.33
-184.64
-199.10
-195.64
-166.84
-116.85
-58.97
-6.02
36.06
61.73
76.40
83.94
86.91
84.65
76.67
66.23
56.40
49.41
45.67
45.01
45.58
46.01
43.82
38.01
29.75
21.52
15.91
14.28
17.25
23.68
32.24
40.57
46.90
50.54
51.53
50.32
47.47
44.12
41.07
39.19
38.41
38.10
37.45
35.66
32.37
27.64
22.21
16.74
11.90
7.79
4.22
0.89
-2.46
-5.84
-8.98
-11.34
-12.45
-11.97
-10.00
-7.09
-4.08
-1.77
-0.39
0.64
2.60
6.88
14.35
24.79
36.89
48.78
58.80
66.08
70.73
73.60
75.90
79.03
84.48
93.80
108.16
127.66
150.56
173.17
190.69
198.82
195.33
180.84
158.32
131.62
103.99
77.32
52.43
29.94
10.86
-3.46
-12.14
-15.63
-15.91
-15.94
-18.38
-24.30
-32.74
-41.07
-46.34
-46.66
-42.14
-34.74
-27.31
-22.27
-20.69
-22.13
-25.38
-29.35
-33.71
-38.92
-45.45
-53.20
-61.21
-68.04
-72.58
-74.71
-75.37
-75.98
-77.67
-80.56
-83.67
-85.47
-84.74
-81.30
-76.17
-71.11
-67.66
-66.39
-66.58
-66.70
-65.26
-61.62
-56.34
-50.81
-46.46
-43.98
-43.00
-42.31
-40.61
-37.10
-31.81
-25.36
-18.53
-11.84
-5.53
0.24
5.06
8.31
9.44
8.34
5.59
2.25
-0.64
-2.52
-3.68
-5.07
-7.80
-12.60
-19.35
-27.09
-34.39
-39.99
-43.37
-44.82
-45.00
-44.32
-42.51
-38.81
-32.65
-24.44
-15.74
-8.64
-4.57
-3.46
-3.77
-3.39
-0.92
3.53
8.47
11.96
12.73
10.73
7.09
3.49
1.51
2.17
5.82
12.07
19.91
27.86
34.25
37.65
37.22
33.04
25.93
17.20
8.17
-0.06
-6.79
-11.67
-14.60
-15.67
-15.13
-13.37
-10.90
-8.29
-5.98
-4.27
-3.21
-2.61
-2.09
-1.17
0.58
3.35
7.03
11.20
15.32
18.98
22.00
24.39
26.16
27.20
27.30
26.39
24.81
23.34
22.96
24.40
27.79
32.49
37.46
41.73
44.87
47.21
49.62
53.04
57.99
64.25
70.93
76.79
80.75
82.37
82.06
80.91
80.23
80.91
83.02
85.74
87.76
87.79
85.05
79.40
71.10
60.52
48.01
33.92
18.89
3.86
-10.21
-22.80
-34.26
-45.76
-58.78
-74.31
-92.22
-111.16
-129.00
-143.66
-153.77
-158.98
-159.92
-157.75
-153.71
-148.79
-143.48
-137.82
-131.60
-124.58
-116.70
-108.14
-99.07
-89.62
-79.72
-69.33
-58.60
-48.02
-38.25
-29.78
-22.61
-16.25
-10.02
-3.56
2.91
8.67
12.92
15.30
16.02
15.64
14.73
13.55
12.14
10.56
9.04
8.02
7.81
8.36
9.18
9.64
9.27
8.02
6.35
4.86
4.10
4.23
5.12
6.44
7.81
8.92
9.48
9.27
8.15
6.17
3.60
0.93
-1.26
-2.55
-2.73
-1.89
-0.27
1.85
4.30
7.01
9.98
13.17
16.43
19.53
22.25
24.35
25.64
26.06
25.66
24.61
23.19
21.70
20.35
19.20
18.17
17.14
16.00
14.68
13.18
11.53
9.75
7.91
6.09
4.40
2.87
1.35
-0.37
-2.53
-5.16
-8.03
-10.69
-12.69
-13.82
-14.15
-14.02
-13.83
-13.89
-14.25
-14.65
-14.63
-13.73
-11.76
-8.97
-5.97
-3.54
-2.28
-2.32
-3.40
-4.97
-6.65
-8.35
-10.34
-12.92
-16.22
-20.02
-23.96
-27.76
-31.47
-35.37
-39.72
-44.59
-49.73
-54.73
-59.24
-63.19
-66.70
-69.93
-72.85
-75.10
-76.17
-75.59
-73.25
-69.51
-65.09
-60.84
-57.41
-55.06
-53.80
-53.52
-54.15
-55.63
-57.77
-60.22
-62.47
-64.00
-64.31
-62.88
-58.85
-50.95
-37.62
-17.60
9.34
41.69
76.27
108.83
135.16
152.19
158.78
155.72
145.44
131.24
116.47
103.78
94.57
88.85
85.61
83.45
81.18
78.45
75.77
74.21
74.85
78.17
83.90
91.05
98.28
104.36
108.50
110.41
110.23
108.26
104.81
100.13
94.47
88.24
81.98
76.27
71.49
67.62
64.21
60.56
56.06
50.44
43.96
37.18
30.76
25.07
20.11
15.60
11.14
6.53
1.86
-2.58
-6.44
-9.55
-11.95
-13.87
-15.56
-17.16
-18.59
-19.63
-20.04
-19.66
-18.48
-16.58
-14.11
-11.17
-7.91
-4.51
-1.26
1.46
3.33
4.20
4.20
3.80
3.60
4.08
5.38
7.20
8.86
9.59
8.88
6.64
3.25
-0.61
-4.34
-7.54
-10.12
-12.22
-14.00
-15.53
-16.73
-17.51
-17.82
-17.86
-17.94
-18.37
-19.29
-20.50
-21.48
-21.64
-20.63
-18.54
-15.92
-13.54
-12.01
-11.56
-11.91
-12.56
-13.05
-13.17
-12.95
-12.43
-11.44
-9.64
-6.65
-2.39
2.71
7.81
11.96
14.48
15.23
14.55
13.00
10.99
8.61
5.62
1.75
-3.06
-8.42
-13.59
-17.80
-20.54
-21.85
-22.28
-22.54
-23.13
-24.04
-24.84
-24.92
-23.95
-22.07
-19.83
-17.86
-16.52
-15.79
-15.32
-14.75
-13.95
-13.13
-12.71
-13.11
-14.55
-16.98
-20.05
-23.28
-26.21
-28.55
-30.21
-31.36
-32.29
-33.25
-34.34
-35.44
-36.22
-36.31
-35.34
-33.09
-29.46
-24.49
-18.35
-11.38
-4.03
3.16
9.70
15.27
19.86
23.71
27.20
30.55
33.72
36.40
38.21
38.92
38.54
37.41
35.87
34.18
32.37
30.37
28.18
25.88
23.61
21.54
19.79
18.47
17.59
17.14
17.04
17.19
17.46
17.70
17.80
17.85
17.88
17.74
17.06
15.49
12.91
9.53
5.75
2.08
-0.62
-1.87
-1.81
-1.21
-0.95
-1.60
-3.19
-5.31
-7.29
-7.54
-5.13
-0.42
5.01
9.29
11.40
11.52
10.80
10.85
14.58
23.74
38.03
55.24
72.64
88.34
101.54
112.02
119.68
126.52
134.17
143.20
153.00
162.56
170.86
176.50
177.23
157.98
110.94
40.50
-36.98
-103.28
-147.86
-169.70
-174.15
-168.95
-161.21
-152.48
-142.47
-131.25
-120.44
-112.18
-107.65
-106.32
-106.20
-104.76
-98.27
-85.08
-66.76
-47.53
-32.18
-23.80
-22.82
-27.47
-34.83
-41.03
-43.53
-41.79
-37.14
-31.59
-26.77
-23.48
-21.71
-20.99
-20.11
-18.13
-14.72
-10.26
-5.65
-1.91
0.05
-0.29
-2.79
-6.44
-9.78
-11.45
-10.68
-7.53
-2.71
2.69
7.63
11.37
13.61
14.43
14.20
13.52
13.13
13.79
16.04
19.97
25.05
30.25
34.28
36.10
35.27
32.13
27.58
22.70
18.31
14.73
11.85
9.35
6.97
4.63
2.27
-0.26
-3.32
-7.20
-11.96
-17.13
-21.83
-25.07
-26.27
-25.45
-23.27
-20.60
-18.05
-15.71
-13.15
-9.84
-5.59
-0.86
3.33
5.83
5.88
3.44
-0.72
-5.28
-8.87
-10.47
-9.69
-6.80
-2.49
2.29
6.64
9.87
11.58
11.71
10.53
8.57
6.48
4.91
4.33
4.89
6.41
8.36
10.12
11.17
11.30
10.64
9.54
8.37
7.25
6.04
4.41
2.15
-0.65
-3.50
-5.66
-6.44
-5.47
-2.79
1.11
5.46
9.39
12.03
12.74
11.26
7.66
2.38
-3.93
-10.53
-16.72
-21.89
-25.53
-27.23
-26.79
-24.25
-20.02
-14.74
-9.16
-3.94
0.53
4.11
6.86
8.88
10.21
10.81
10.61
9.56
7.77
5.49
3.03
0.64
-1.49
-3.30
-4.73
-5.72
-6.16
-5.91
-4.87
-3.10
-0.85
1.52
3.66
5.39
6.82
8.29
10.24
12.90
16.00
18.69
20.00
19.22
16.21
11.54
6.28
1.46
-2.31
-4.94
-6.87
-8.23
-8.78
-8.15
-6.21
-3.45
-1.04
-0.33
-2.20
-6.85
-13.08
-19.11
-23.56
-25.99
-26.91
-27.14
-26.89
-25.30
-20.90
-11.60
3.88
24.67
47.70
68.82
84.09
90.75
90.68
84.01
71.77
55.86
38.52
21.76
6.92
-5.84
-15.91
-22.92
-27.21
-28.95
-28.53
-26.70
-24.44
-22.60
-21.64
-21.57
-22.27
-23.91
-26.31
-29.17
-31.95
-33.89
-34.10
-31.96
-27.35
-21.02
-14.52
-9.27
-6.24
-5.65
-6.98
-9.34
-11.88
-13.96
-15.28
-15.75
-15.14
-13.19
-9.77
-5.16
0.03
4.96
9.08
12.19
14.51
16.49
18.43
20.26
21.58
21.88
20.96
18.99
16.56
14.34
12.80
11.95
11.32
10.20
8.02
4.59
0.22
-4.40
-8.50
-11.61
-13.78
-15.50
-17.37
-19.63
-22.02
-23.73
-23.90
-22.05
-18.47
-14.04
-9.79
-6.41
-3.88
-1.60
1.16
4.82
9.26
13.94
18.39
22.41
26.09
29.54
32.53
34.41
34.46
32.44
29.08
26.02
25.03
27.08
31.67
36.63
39.05
36.48
28.08
14.94
-0.49
-15.58
-28.52
-38.60
-45.88
-50.53
-52.48
-51.66
-48.35
-43.40
-37.86
-32.33
-26.53
-19.51
-10.41
0.61
12.02
21.36
26.47
26.57
22.47
16.12
9.68
4.71
1.75
0.44
0.03
-0.14
-0.31
-0.50
-0.72
-1.11
-1.94
-3.51
-6.00
-9.50
-13.81
-18.33
-22.47
-25.75
-27.71
-27.92
-26.13
-22.36
-17.24
-11.41
-4.65
3.14
11.75
20.97
30.42
39.55
47.78
53.80
56.65
56.93
54.82
50.04
43.08
35.28
28.46
24.20
21.83
19.77
17.97
15.39
10.47
2.85
-6.97
-18.39
-31.37
-47.95
-69.57
-93.56
-117.10
-138.11
-154.25
-163.96
-167.03
-154.74
-124.71
-94.87
-72.21
-54.18
-40.41
-30.53
-24.06
-20.24
-18.06
-17.96
-19.86
-20.62
-18.51
-13.61
-5.96
4.35
17.05
31.53
45.52
56.97
66.44
74.05
79.43
83.11
86.18
89.75
94.33
98.86
101.84
103.18
102.63
99.96
95.76
91.13
87.21
84.72
83.35
82.16
80.37
76.65
69.50
58.19
43.15
25.84
8.46
-6.86
-18.45
-25.33
-27.69
-26.79
-24.39
-22.18
-21.17
-21.45
-22.26
-22.55
-21.49
-18.97
-15.50
-11.82
-8.44
-5.38
-2.41
0.56
3.14
4.60
4.20
1.72
-2.34
-6.89
-10.64
-12.60
-12.35
-10.20
-7.04
-4.15
-2.67
-3.23
-5.61
-8.82
-11.56
-12.92
-12.91
-12.45
-12.91
-15.17
-19.05
-23.26
-25.97
-25.66
-21.85
-15.22
-7.21
0.58
6.93
11.14
13.12
13.23
12.18
11.00
10.79
12.30
15.65
20.14
24.57
27.84
29.46
29.79
29.65
29.74
30.09
29.96
28.38
24.81
19.53
13.42
7.34
1.69
-3.58
-8.27
-11.30
-10.78
-5.02
5.97
19.77
32.01
38.28
36.38
27.53
15.76
5.77
0.48
-0.14
1.46
2.26
0.58
-3.22
-7.44
-10.53
-12.33
-14.16
-17.91
-24.73
-34.16
-44.25
-52.50
-57.23
-58.34
-57.25
-56.00
-56.07
-57.63
-59.56
-60.16
-58.28
-54.00
-48.59
-43.79
-40.79
-39.70
-39.59
-39.13
-37.46
-34.65
-31.59
-29.41
-28.83
-29.79
-31.49
-32.91
-33.30
-32.55
-31.13
-29.72
-28.84
-28.50
-28.33
-27.78
-26.47
-24.32
-21.53
-18.34
-14.87
-11.08
-6.84
-2.14
2.76
7.45
11.44
14.44
16.46
17.81
18.97
20.36
22.12
24.06
25.75
26.81
27.08
26.66
25.87
24.97
24.06
23.14
22.24
21.59
21.56
22.50
24.40
26.66
28.07
27.18
22.82
14.60
3.14
-10.17
-23.59
-35.74
-45.88
-53.95
-60.20
-64.80
-67.56
-68.13
-66.37
-62.72
-58.35
-54.78
-53.26
-54.14
-56.76
-59.68
-61.42
-61.01
-58.33
-53.90
-48.44
-42.47
-36.20
-29.67
-22.99
-16.50
-10.63
-5.79
-2.15
0.33
1.82
2.63
3.21
4.17
6.22
9.86
15.16
21.73
28.86
35.91
42.56
48.78
54.61
59.88
64.14
66.88
67.87
67.39
66.09
64.70
63.62
62.82
62.04
61.07
59.98
59.07
58.54
58.24
57.59
55.78
52.31
47.22
41.22
35.39
30.66
27.53
25.87
25.14
24.63
23.80
22.31
20.07
17.09
13.50
9.64
6.05
3.45
2.48
3.40
5.82
8.79
11.03
11.37
9.14
4.42
-2.05
-9.09
-15.49
-20.37
-23.40
-24.83
-25.31
-25.56
-26.00
-26.65
-27.21
-27.33
-26.96
-26.35
-25.95
-26.03
-26.43
-26.67
-26.19
-24.69
-22.41
-19.89
-17.72
-16.15
-14.99
-13.76
-12.01
-9.52
-6.41
-2.98
0.51
4.05
7.91
12.48
18.05
24.56
31.41
37.65
42.30
44.87
45.67
45.84
46.93
50.21
56.10
63.90
72.14
79.16
83.77
85.56
84.87
82.36
78.66
74.12
68.85
62.89
56.33
49.41
42.45
35.83
29.87
24.73
20.36
16.62
13.20
9.55
4.79
-2.34
-13.06
-27.89
-45.93
-64.45
-79.62
-87.88
-87.60
-80.02
-68.87
-58.73
-53.01
-52.63
-56.05
-60.53
-63.70
-64.58
-63.53
-61.51
-59.20
-56.70
-53.71
-50.11
-46.27
-42.94
-40.87
-40.34
-41.01
-42.11
-42.78
-42.39
-40.67
-37.70
-33.83
-29.56
-25.44
-21.85
-18.85
-16.12
-13.12
-9.36
-4.83
-0.04
4.18
7.05
8.28
8.15
7.34
6.54
6.18
6.29
6.61
6.88
6.96
6.86
6.71
6.59
6.53
6.49
6.35
6.05
5.52
4.74
3.71
2.47
1.01
-0.66
-2.56
-4.64
-6.76
-8.65
-10.01
-10.57
-10.19
-9.01
-7.33
-5.52
-3.88
-2.46
-1.13
0.31
1.94
3.61
4.97
5.69
5.63
5.01
4.27
3.84
3.92
4.31
4.58
4.33
3.46
2.21
1.03
0.33
0.20
0.42
0.60
0.44
-0.10
-0.85
-1.58
-2.15
-2.64
-3.24
-4.12
-5.27
-6.41
-7.09
-6.90
-5.68
-3.60
-1.05
1.50
3.77
5.72
7.48
9.16
10.73
11.95
12.54
12.30
11.25
9.68
7.97
6.44
5.27
4.41
3.69
2.91
1.92
0.67
-0.76
-2.24
-3.60
-4.75
-5.75
-6.78
-8.09
-9.84
-11.96
-14.15
-15.98
-17.10
-17.36
-16.94
-16.16
-15.29
-14.33
-13.03
-11.04
-8.21
-4.83
-1.55
0.91
2.20
2.57
2.72
3.37
4.81
6.74
8.57
9.82
10.48
10.99
11.87
13.37
15.27
17.11
18.51
19.40
19.96
20.26
20.11
18.97
16.42
12.38
7.34
2.16
-2.22
-5.14
-6.33
-5.88
-4.13
-1.52
1.47
4.39
6.91
8.81
10.02
10.52
10.23
9.01
6.80
3.70
0.09
-3.45
-6.34
-8.26
-9.27
-9.68
-9.84
-9.94
-9.85
-9.28
-7.98
-5.93
-3.45
-1.13
0.41
0.70
-0.40
-2.60
-5.33
-7.84
-9.52
-10.02
-9.31
-7.59
-5.16
-2.37
0.40
2.71
4.13
4.39
3.60
2.26
1.12
0.79
1.47
2.84
4.29
5.26
5.56
5.42
5.27
5.46
6.01
6.68
7.12
7.15
6.87
6.61
6.68
7.19
7.97
8.60
8.70
8.15
7.15
6.14
5.54
5.46
5.66
5.67
5.08
3.79
2.11
0.66
0.00
0.46
1.96
4.10
6.37
8.34
9.76
10.64
11.05
11.09
10.80
10.17
9.18
7.86
6.33
4.81
3.52
2.64
2.24
2.26
2.52
2.79
2.84
2.55
1.92
1.10
0.25
-0.55
-1.32
-2.22
-3.39
-4.80
-6.27
-7.47
-8.14
-8.23
-7.94
-7.52
-7.06
-6.39
-5.10
-2.85
0.37
4.16
7.81
10.63
12.23
12.64
12.24
11.48
10.74
10.23
9.99
9.98
10.17
10.57
11.22
12.13
13.19
14.20
14.86
14.86
13.95
12.11
9.49
6.43
3.34
0.60
-1.56
-3.15
-4.30
-5.26
-6.20
-7.09
-7.73
-7.81
-7.10
-5.63
-3.68
-1.64
0.15
1.59
2.77
3.90
5.08
6.31
7.45
8.37
9.00
9.36
9.50
9.43
9.17
8.72
8.16
7.66
7.37
7.39
7.70
8.18
8.68
9.05
9.19
9.08
8.74
8.18
7.45
6.57
5.59
4.55
3.55
2.66
2.01
1.74
1.94
2.66
3.81
5.20
6.51
7.47
7.93
7.93
7.66
7.32
7.03
6.73
6.24
5.40
4.20
2.83
1.60
0.77
0.39
0.32
0.24
-0.08
-0.72
-1.55
-2.36
-3.00
-3.48
-3.99
-4.71
-5.73
-6.95
-8.17
-9.18
-9.95
-10.58
-11.23
-11.99
-12.72
-13.13
-12.90
-11.85
-10.08
-7.89
-5.70
-3.80
-2.29
-1.09
-0.02
1.04
2.06
2.86
3.26
3.17
2.67
2.01
1.49
1.28
1.41
1.73
2.04
2.17
2.11
1.95
1.81
1.74
1.66
1.41
0.83
-0.12
-1.35
-2.66
-3.89
-4.93
-5.74
-6.34
-6.72
-6.79
-6.41
-5.51
-4.08
-2.27
-0.29
1.59
3.17
4.31
5.00
5.30
5.35
5.27
5.17
5.09
5.02
4.97
5.00
5.21
5.62
6.15
6.59
6.62
6.01
4.70
2.90
0.98
-0.73
-2.07
-3.09
-3.99
-4.94
-5.96
-6.92
-7.72
-8.30
-8.71
-9.10
-9.50
-9.89
-10.14
-10.15
-9.87
-9.33
-8.59
-7.72
-6.79
-5.88
-5.07
-4.41
-3.88
-3.44
-3.06
-2.81
-2.82
-3.17
-3.84
-4.63
-5.26
-5.52
-5.33
-4.83
-4.22
-3.65
-3.18
-2.77
-2.41
-2.13
-2.03
-2.19
-2.54
-2.92
-3.06
-2.72
-1.80
-0.36
1.43
3.38
5.33
7.20
8.91
10.40
11.61
12.55
13.32
14.11
15.11
16.41
17.93
19.48
20.77
21.59
21.84
21.57
20.95
20.21
19.52
18.97
18.51
18.03
17.44
16.67
15.78
14.84
13.88
12.89
11.82
10.60
9.24
7.78
6.28
4.83
3.49
2.34
1.49
1.02
0.96
1.23
1.67
2.11
2.51
2.94
3.55
4.45
5.59
6.77
7.69
8.13
8.02
7.56
7.12
7.08
7.63
8.66
9.73
10.28
9.80
8.06
5.26
1.90
-1.39
-4.06
-5.84
-6.72
-6.85
-6.48
-5.81
-5.05
-4.39
-4.04
-4.18
-4.83
-5.82
-6.84
-7.62
-8.06
-8.25
-8.44
-8.80
-9.31
-9.82
-10.16
-10.22
-10.07
-9.85
-9.65
-9.42
-8.98
-8.11
-6.73
-4.96
-3.06
-1.34
-0.02
0.78
1.09
0.97
0.48
-0.33
-1.43
-2.72
-4.02
-5.13
-5.83
-6.08
-5.97
-5.71
-5.52
-5.56
-5.85
-6.31
-6.76
-7.01
-6.90
-6.33
-5.29
-3.89
-2.39
-1.07
-0.18
0.19
0.12
-0.19
-0.53
-0.81
-1.03
-1.27
-1.61
-2.00
-2.33
-2.43
-2.20
-1.67
-1.04
-0.56
-0.39
-0.52
-0.69
-0.53
0.26
1.72
3.64
5.58
7.11
8.01
8.34
8.38
8.47
8.89
9.79
11.21
13.13
15.44
17.89
20.11
21.76
22.67
23.03
23.34
24.17
25.81
28.04
30.17
31.43
31.47
30.65
29.97
30.58
33.15
37.44
42.29
46.10
47.36
45.31
40.22
33.43
27.16
24.22
27.52
39.16
59.61
87.16
118.07
147.55
171.15
185.93
191.00
187.21
176.43
160.74
141.99
121.76
101.53
82.88
67.49
56.85
51.74
51.62
54.33
56.35
53.76
43.81
26.39
4.26
-17.82
-35.05
-44.46
-45.46
-39.44
-28.79
-16.31
-4.88
3.11
6.72
7.31
8.33
13.71
25.19
40.43
53.24
56.14
43.83
15.51
-25.55
-74.53
-127.68
-183.09
-238.99
-291.37
-333.50
-358.06
-360.87
-343.61
-313.46
-279.77
-250.11
-227.55
-210.86
-196.93
-183.53
-170.52
-159.21
-150.80
-145.12
-140.66
-135.45
-128.08
-118.05
-105.43
-90.44
-73.33
-54.65
-35.52
-17.55
-2.28
9.50
18.03
24.44
30.13
36.01
42.26
48.37
53.57
57.33
59.59
60.68
61.08
61.05
60.53
59.28
57.12
54.15
50.69
47.19
43.97
41.07
38.26
35.12
31.25
26.44
20.86
15.01
9.64
5.44
2.79
1.61
1.46
1.81
2.29
2.88
3.88
5.65
8.39
11.97
15.98
19.90
23.31
26.00
27.94
29.23
29.95
30.06
29.55
28.44
26.97
25.53
24.55
24.32
24.77
25.52
26.02
25.86
24.97
23.61
22.18
21.04
20.29
19.79
19.34
18.86
18.46
18.37
18.81
19.76
20.99
22.09
22.67
22.51
21.63
20.21
18.56
16.91
15.36
13.87
12.38
10.86
9.42
8.27
7.63
7.60
8.02
8.46
8.40
7.43
5.47
2.88
0.24
-1.81
-2.92
-3.11
-2.73
-2.17
-1.68
-1.26
-0.72
0.11
1.21
2.32
3.07
3.17
2.57
1.47
0.23
-0.82
-1.54
-1.97
-2.28
-2.54
-2.71
-2.62
-2.18
-1.51
-0.95
-0.94
-1.77
-3.38
-5.38
-7.20
-8.42
-8.93
-8.93
-8.80
-8.82
-9.11
-9.61
-10.16
-10.63
-11.01
-11.29
-11.49
-11.55
-11.34
-10.70
-9.56
-7.96
-6.14
-4.51
-3.44
-3.19
-3.66
-4.48
-5.13
-5.18
-4.57
-3.60
-2.84
-2.73
-3.39
-4.57
-5.76
-6.56
-6.83
-6.73
-6.55
-6.50
-6.58
-6.64
-6.47
-6.00
-5.36
-4.82
-4.63
-4.87
-5.33
-5.67
-5.55
-4.80
-3.51
-2.05
-0.85
-0.25
-0.36
-1.00
-1.82
-2.48
-2.76
-2.66
-2.27
-1.71
-1.03
-0.19
0.89
2.18
3.48
4.44
4.72
4.18
2.97
1.56
0.48
0.14
0.57
1.45
2.24
2.48
2.07
1.26
0.51
0.21
0.41
0.74
0.72
0.02
-1.28
-2.71
-3.67
-3.84
-3.32
-2.64
-2.42
-3.02
-4.33
-5.87
-7.05
-7.55
-7.43
-7.05
-6.81
-6.83
-6.90
-6.62
-5.68
-4.04
-2.07
-0.34
0.67
0.82
0.35
-0.26
-0.56
-0.37
0.19
0.79
1.07
0.87
0.23
-0.61
-1.34
-1.75
-1.85
-1.77
-1.79
-2.08
-2.61
-3.15
-3.39
-3.10
-2.33
-1.39
-0.71
-0.64
-1.22
-2.25
-3.31
-4.04
-4.28
-4.14
-3.86
-3.64
-3.51
-3.31
-2.77
-1.65
0.04
2.04
3.91
5.23
5.79
5.69
5.24
4.81
4.62
4.60
4.52
4.17
3.53
2.85
2.51
2.77
3.65
4.77
5.58
5.65
4.85
3.46
2.00
0.91
0.39
0.31
0.36
0.30
0.08
-0.16
-0.20
-0.02
0.18
0.03
-0.80
-2.37
-4.41
-6.40
-7.83
-8.39
-8.07
-7.16
-6.04
-5.02
-4.23
-3.58
-2.85
-1.85
-0.56
0.81
1.94
2.54
2.47
1.84
0.94
0.12
-0.39
-0.58
-0.59
-0.66
-0.92
-1.36
-1.82
-2.15
-2.28
-2.29
-2.34
-2.52
-2.83
-3.14
-3.29
-3.22
-3.00
-2.88
-3.13
-3.92
-5.16
-6.59
-7.82
-8.56
-8.74
-8.53
-8.20
-8.00
-7.92
-7.73
-7.10
-5.84
-4.10
-2.36
-1.15
-0.79
-1.17
-1.81
-2.16
-1.86
-0.96
0.19
1.12
1.55
1.45
1.08
0.76
0.71
0.95
1.23
1.26
0.84
-0.03
-1.11
-2.09
-2.71
-2.99
-3.19
-3.69
-4.69
-6.06
-7.43
-8.39
-8.74
-8.66
-8.54
-8.70
-9.15
-9.52
-9.31
-8.15
-6.12
-3.67
-1.47
-0.04
0.48
0.32
-0.10
-0.37
-0.34
-0.08
0.17
0.20
-0.02
-0.35
-0.53
-0.37
0.16
0.84
1.38
1.51
1.22
0.71
0.33
0.37
0.78
1.24
1.27
0.56
-0.85
-2.57
-4.03
-4.84
-4.99
-4.79
-4.66
-4.86
-5.27
-5.56
-5.32
-4.36
-2.80
-1.01
0.61
1.82
2.67
3.39
4.24
5.36
6.61
7.67
8.15
7.82
6.78
5.38
4.10
3.31
3.06
3.11
3.11
2.83
2.27
1.67
1.31
1.31
1.54
1.71
1.49
0.72
-0.48
-1.87
-3.15
-4.19
-5.06
-5.99
-7.18
-8.63
-10.17
-11.41
-12.00
-11.74
-10.71
-9.20
-7.55
-6.02
-4.66
-3.39
-2.03
-0.50
1.14
2.68
3.82
4.35
4.22
3.62
2.89
2.37
2.23
2.38
2.55
2.46
2.03
1.37
0.81
0.61
0.85
1.27
1.47
1.13
0.16
-1.18
-2.50
-3.45
-4.02
-4.47
-5.24
-6.60
-8.48
-10.42
-11.78
-12.04
-11.06
-9.16
-6.91
-4.81
-3.10
-1.66
-0.22
1.45
3.34
5.15
6.50
7.15
7.15
6.77
6.46
6.51
7.00
7.73
8.34
8.57
8.38
7.95
7.57
7.46
7.60
7.74
7.55
6.80
5.54
4.05
2.68
1.63
0.86
0.07
-1.08
-2.80
-4.99
-7.31
-9.27
-10.47
-10.76
-10.24
-9.18
-7.84
-6.37
-4.75
-2.85
-0.64
1.77
4.11
6.07
7.49
8.42
9.10
9.78
10.54
11.23
11.54
11.19
10.16
8.76
7.55
7.04
7.40
8.35
9.28
9.48
8.60
6.72
4.39
2.28
0.88
0.27
0.11
-0.20
-1.10
-2.73
-4.89
-7.15
-9.12
-10.64
-11.75
-12.63
-13.32
-13.69
-13.48
-12.43
-10.49
-7.86
-4.97
-2.23
0.10
2.01
3.65
5.24
6.85
8.40
9.70
10.58
11.00
11.10
11.16
11.43
11.98
12.68
13.22
13.23
12.56
11.28
9.73
8.33
7.43
7.05
6.95
6.69
5.94
4.62
2.97
1.38
0.12
-0.85
-1.84
-3.30
-5.44
-8.05
-10.54
-12.21
-12.59
-11.69
-9.91
-7.84
-5.87
-4.06
-2.20
0.03
2.69
5.53
8.07
9.81
10.52
10.34
9.70
9.10
8.90
9.10
9.42
9.48
9.05
8.20
7.24
6.54
6.25
6.20
6.00
5.26
3.86
2.04
0.26
-1.04
-1.75
-2.14
-2.72
-3.95
-5.99
-8.59
-11.28
-13.52
-14.99
-15.66
-15.70
-15.29
-14.48
-13.15
-11.13
-8.40
-5.21
-2.01
0.72
2.72
4.03
4.95
5.81
6.84
7.95
8.88
9.33
9.18
8.58
7.86
7.39
7.37
7.74
8.17
8.28
7.80
6.75
5.36
3.98
2.87
2.06
1.38
0.55
-0.55
-1.87
-3.22
-4.41
-5.41
-6.34
-7.45
-8.91
-10.67
-12.42
-13.68
-14.01
-13.17
-11.29
-8.77
-6.16
-3.85
-1.91
-0.17
1.65
3.69
5.79
7.59
8.73
9.07
8.82
8.38
8.18
8.42
9.00
9.62
9.91
9.70
9.07
8.29
7.74
7.61
7.84
8.11
7.98
7.13
5.53
3.50
1.50
-0.12
-1.30
-2.33
-3.62
-5.47
-7.85
-10.38
-12.51
-13.79
-14.04
-13.37
-12.09
-10.50
-8.74
-6.80
-4.62
-2.18
0.32
2.54
4.13
4.96
5.18
5.13
5.20
5.58
6.22
6.87
7.25
7.27
7.00
6.69
6.55
6.66
6.90
7.00
6.68
5.73
4.19
2.34
0.60
-0.62
-1.19
-1.32
-1.52
-2.29
-3.88
-6.11
-8.47
-10.36
-11.43
-11.64
-11.26
-10.56
-9.61
-8.28
-6.34
-3.69
-0.50
2.78
5.61
7.62
8.73
9.15
9.30
9.48
9.80
10.13
10.21
9.93
9.34
8.71
8.36
8.42
8.80
9.17
9.21
8.77
7.96
7.06
6.36
5.92
5.53
4.82
3.47
1.41
-1.16
-3.83
-6.20
-8.11
-9.62
-10.97
-12.36
-13.79
-14.99
-15.54
-15.05
-13.41
-10.87
-7.93
-5.15
-2.82
-0.90
0.97
3.14
5.68
8.23
10.19
10.97
10.44
8.99
7.40
6.41
6.36
7.03
7.83
8.16
7.75
6.71
5.41
4.22
3.28
2.45
1.48
0.20
-1.37
-3.00
-4.40
-5.34
-5.88
-6.27
-6.94
-8.28
-10.36
-12.89
-15.23
-16.67
-16.72
-15.36
-13.05
-10.42
-7.96
-5.80
-3.70
-1.31
1.46
4.35
6.84
8.50
9.21
9.29
9.25
9.51
10.16
10.89
11.29
11.05
10.20
9.07
8.07
7.43
7.12
6.85
6.26
5.19
3.71
2.09
0.65
-0.43
-1.24
-2.08
-3.30
-5.13
-7.47
-9.98
-12.23
-13.87
-14.81
-15.18
-15.21
-14.98
-14.34
-12.98
-10.63
-7.23
-3.10
1.18
4.97
7.81
9.61
10.55
10.99
11.28
11.58
11.86
12.00
11.88
11.50
11.00
10.50
10.10
9.73
9.23
8.39
7.14
5.60
4.05
2.82
2.09
1.81
1.65
1.19
0.16
-1.46
-3.41
-5.30
-6.81
-7.92
-8.81
-9.75
-10.82
-11.78
-12.19
-11.58
-9.77
-6.98
-3.77
-0.77
1.59
3.24
4.43
5.46
6.53
7.56
8.33
8.64
8.50
8.15
7.97
8.25
9.06
10.11
10.96
11.15
10.48
9.08
7.33
5.71
4.60
4.11
4.08
4.15
3.93
3.17
1.87
0.22
-1.47
-3.02
-4.44
-5.94
-7.70
-9.72
-11.71
-13.16
-13.62
-12.90
-11.20
-8.95
-6.61
-4.39
-2.25
-0.05
2.32
4.72
6.80
8.18
8.62
8.18
7.23
6.27
5.77
5.90
6.49
7.09
7.25
6.74
5.67
4.39
3.29
2.54
1.99
1.32
0.32
-0.94
-2.17
-3.01
-3.37
-3.53
-4.02
-5.32
-7.56
-10.45
-13.41
-15.75
-16.95
-16.83
-15.53
-13.47
-11.14
-8.94
-6.96
-5.08
-2.98
-0.48
2.39
5.26
7.68
9.28
10.00
10.08
9.86
9.58
9.22
8.63
7.68
6.47
5.31
4.60
4.61
5.29
6.26
7.02
7.15
6.52
5.30
3.88
2.57
1.47
0.43
-0.83
-2.51
-4.59
-6.85
-8.97
-10.71
-11.99
-12.84
-13.30
-13.34
-12.78
-11.49
-9.40
-6.61
-3.44
-0.30
2.41
4.47
5.92
7.00
8.05
9.31
10.73
11.99
12.64
12.38
11.24
9.61
8.08
7.10
6.76
6.78
6.69
6.12
4.98
3.50
2.04
0.89
0.10
-0.53
-1.31
-2.42
-3.84
-5.35
-6.67
-7.67
-8.48
-9.45
-10.86
-12.69
-14.52
-15.71
-15.69
-14.26
-11.72
-8.67
-5.77
-3.34
-1.35
0.48
2.45
4.64
6.78
8.46
9.32
9.25
8.48
7.49
6.76
6.58
6.89
7.39
7.74
7.76
7.54
7.37
7.50
7.94
8.37
8.27
7.28
5.36
2.93
0.61
-1.07
-1.93
-2.23
-2.51
-3.26
-4.71
-6.73
-8.92
-10.79
-11.94
-12.23
-11.70
-10.55
-8.94
-6.92
-4.47
-1.56
1.68
4.91
7.57
9.15
9.44
8.67
7.46
6.52
6.31
6.82
7.61
8.10
7.97
7.28
6.41
5.84
5.77
6.04
6.20
5.82
4.72
3.11
1.41
0.05
-0.83
-1.41
-2.10
-3.28
-5.04
-7.18
-9.26
-10.86
-11.82
-12.26
-12.47
-12.63
-12.73
-12.44
-11.42
-9.46
-6.72
-3.67
-0.87
1.24
2.59
3.45
4.24
5.33
6.76
8.24
9.27
9.50
8.83
7.58
6.31
5.53
5.45
5.90
6.37
6.37
5.69
4.49
3.24
2.38
2.09
2.17
2.16
1.63
0.39
-1.39
-3.38
-5.26
-6.95
-8.59
-10.35
-12.19
-13.80
-14.64
-14.29
-12.65
-10.10
-7.30
-4.90
-3.25
-2.26
-1.52
-0.54
0.96
2.90
4.91
6.49
7.34
7.51
7.32
7.20
7.41
7.91
8.34
8.33
7.68
6.54
5.32
4.42
4.00
3.91
3.78
3.27
2.24
0.88
-0.45
-1.41
-1.83
-1.84
-1.77
-2.07
-3.10
-4.89
-7.18
-9.40
-10.91
-11.29
-10.45
-8.65
-6.32
-3.82
-1.28
1.34
4.13
7.06
9.88
12.28
14.06
15.22
16.01
16.75
17.69
18.85
20.02
20.96
21.55
21.89
22.29
23.00
24.09
25.24
25.85
25.25
23.03
19.23
14.32
8.98
3.88
-0.67
-4.66
-8.22
-11.47
-14.38
-16.89
-19.10
-21.36
-24.16
-27.87
-32.42
-37.04
-40.56
-41.87
-40.47
-36.84
-32.28
-28.34
-26.10
-25.61
-25.78
-24.86
-21.10
-13.57
-2.43
11.10
25.13
37.68
47.01
52.15
52.96
50.15
44.99
39.04
33.80
30.29
28.75
28.37
27.80
25.58
20.52
12.15
0.89
-12.04
-25.14
-37.19
-48.02
-57.94
-67.56
-77.30
-87.08
-96.20
-103.48
-107.63
-107.68
-103.64
-95.86
-85.15
-72.71
-59.97
-48.10
-37.72
-28.73
-18.81
-7.36
5.09
17.41
28.85
39.01
47.34
52.83
54.33
52.80
48.13
41.36
34.47
29.46
27.43
28.37
31.48
35.99
39.70
41.24
40.47
37.99
34.45
30.21
25.41
20.22
15.16
10.89
7.70
5.28
2.33
-2.99
-11.93
-24.07
-36.92
-46.65
-49.72
-44.53
-32.10
-15.69
0.52
13.02
20.14
22.18
20.82
18.11
15.73
14.58
14.63
15.44
16.48
17.52
18.64
20.00
21.54
22.82
23.18
22.07
19.42
15.70
11.76
8.43
6.20
5.05
4.60
4.31
3.68
2.50
0.96
-0.44
-1.08
-0.52
1.31
4.01
6.96
9.59
11.67
13.36
15.08
17.23
19.97
23.05
25.96
28.14
29.24
29.23
28.33
26.87
25.10
23.07
20.67
17.78
14.46
10.97
7.76
5.19
3.31
1.74
-0.17
-3.00
-6.90
-11.46
-15.77
-18.88
-20.22
-19.87
-18.50
-17.00
-16.00
-15.56
-15.22
-14.30
-12.33
-9.29
-5.62
-1.90
1.44
4.38
7.19
10.17
13.27
16.07
17.87
18.17
16.96
14.88
12.91
11.95
12.40
13.96
15.90
17.45
18.18
18.16
17.73
17.19
16.57
15.61
14.00
11.66
8.87
6.08
3.70
1.73
-0.16
-2.46
-5.48
-9.06
-12.72
-15.86
-18.14
-19.58
-20.38
-20.69
-20.42
-19.35
-17.37
-14.65
-11.67
-8.95
-6.87
-5.47
-4.65
-4.35
-4.74
-6.06
-8.46
-11.81
-15.73
-19.78
-23.71
-27.53
-31.36
-35.29
-39.24
-43.03
-46.49
-49.61
-52.57
-55.58
-58.73
-61.97
-65.11
-67.93
-70.34
-72.40
-74.18
-75.67
-76.63
-76.56
-74.74
-70.42
-63.10
-52.73
-39.91
-25.68
-11.24
2.48
15.06
26.41
36.56
45.31
52.23
56.92
59.40
60.25
60.45
60.90
62.02
63.62
65.10
65.88
65.70
64.69
63.19
61.52
59.72
57.64
55.01
51.76
48.09
44.43
41.23
38.64
36.33
33.67
30.02
25.08
19.12
12.83
6.97
2.07
-1.77
-4.77
-7.12
-8.85
-9.81
-9.83
-8.88
-7.24
-5.31
-3.54
-2.19
-1.30
-0.71
-0.21
0.34
0.99
1.70
2.49
3.43
4.63
6.16
7.90
9.60
10.99
11.98
12.72
13.62
15.10
17.43
20.52
24.03
27.45
30.30
32.25
33.11
32.87
31.63
29.71
27.55
25.74
24.75
24.81
25.77
27.13
28.24
28.51
27.56
25.36
22.07
17.94
13.11
7.66
1.65
-4.69
-10.95
-16.63
-21.35
-25.05
-28.00
-30.67
-33.35
-36.07
-38.55
-40.48
-41.77
-42.62
-43.54
-44.92
-46.93
-49.39
-51.87
-53.94
-55.35
-56.09
-56.38
-56.48
-56.60
-56.78
-56.92
-56.84
-56.38
-55.49
-54.23
-52.67
-50.83
-48.68
-46.27
-43.82
-41.83
-40.85
-41.27
-42.99
-45.36
-47.42
-48.27
-47.59
-45.61
-42.99
-40.26
-37.45
-34.00
-28.99
-21.60
-11.62
0.52
13.94
27.43
39.57
48.95
54.59
56.58
56.55
57.50
62.94
75.49
95.52
120.63
146.26
167.07
178.60
178.44
166.55
145.24
118.44
90.56
65.30
44.72
28.98
16.93
6.98
-2.50
-12.47
-23.43
-35.92
-50.54
-67.36
-84.94
-99.98
-108.27
-107.39
-97.43
-81.18
-63.32
-48.69
-40.41
-38.57
-40.68
-43.35
-45.35
-46.61
-47.16
-46.25
-42.74
-35.79
-25.55
-13.84
-3.86
-0.85
-8.26
-25.72
-49.34
-74.07
-95.96
-112.89
-124.94
-122.17
-100.75
-65.97
-28.98
1.38
21.77
32.44
35.26
32.49
27.05
20.50
14.60
11.43
12.53
17.71
24.04
30.39
35.75
39.78
41.32
39.84
36.00
31.35
27.50
25.49
25.90
28.42
32.23
35.43
36.38
34.67
30.83
26.01
21.40
17.95
15.58
13.51
10.20
4.55
-3.35
-12.18
-19.92
-24.87
-26.12
-24.16
-20.24
-16.13
-13.20
-12.01
-12.34
-13.51
-14.76
-15.48
-15.25
-13.77
-10.71
-5.84
0.77
8.62
16.72
23.79
28.71
30.99
30.95
29.66
28.37
28.04
28.93
30.63
32.44
33.71
34.12
33.60
32.19
29.86
26.54
22.27
17.34
12.30
7.73
4.07
1.42
-0.39
-1.72
-2.89
-4.03
-5.06
-5.72
-5.71
-4.85
-3.18
-0.98
1.34
3.35
4.84
5.76
6.27
6.54
6.62
6.39
5.63
4.20
2.12
-0.41
-3.05
-5.48
-7.54
-9.22
-10.61
-11.72
-12.47
-12.65
-12.11
-10.87
-9.19
-7.55
-6.43
-6.05
-6.32
-6.82
-7.07
-6.66
-5.56
-3.99
-2.38
-0.98
0.23
1.59
3.57
6.45
10.05
13.76
16.80
18.61
19.15
18.90
18.59
18.82
19.77
21.07
22.08
22.23
21.26
19.35
16.94
14.45
12.20
10.30
8.76
7.60
6.86
6.55
6.63
6.91
7.11
6.90
6.02
4.38
2.05
-0.72
-3.56
-6.11
-8.10
-9.40
-10.10
-10.37
-10.40
-10.29
-10.08
-9.79
-9.52
-9.36
-9.31
-9.22
-8.82
-7.78
-5.98
-3.60
-1.16
0.62
1.13
0.18
-1.84
-4.11
-5.65
-5.76
-4.33
-1.84
0.95
3.39
5.24
6.68
8.08
9.70
11.43
12.90
13.65
13.50
12.62
11.47
10.56
10.20
10.32
10.56
10.52
9.92
8.82
7.55
6.52
5.97
5.75
5.45
4.58
2.93
0.69
-1.60
-3.32
-4.11
-4.10
-3.83
-3.96
-4.86
-6.43
-8.14
-9.29
-9.43
-8.52
-6.94
-5.23
-3.79
-2.75
-1.97
-1.27
-0.59
-0.12
-0.17
-0.96
-2.47
-4.31
-5.95
-6.90
-7.06
-6.75
-6.56
-7.05
-8.39
-10.25
-11.99
-13.00
-13.06
-12.52
-12.06
-12.31
-13.54
-15.46
-17.44
-18.81
-19.20
-18.66
-17.49
-16.02
-14.37
-12.45
-10.13
-7.37
-4.40
-1.64
0.52
1.91
2.69
3.25
3.99
5.10
6.44
7.60
8.16
7.86
6.77
5.30
3.94
3.08
2.80
2.88
2.90
2.52
1.61
0.36
-0.91
-1.91
-2.58
-3.14
-3.99
-5.45
-7.50
-9.78
-11.63
-12.42
-11.85
-10.09
-7.70
-5.32
-3.38
-1.88
-0.46
1.29
3.53
6.04
8.28
9.76
10.27
9.98
9.39
8.93
8.81
8.91
8.91
8.52
7.68
6.54
5.33
4.23
3.24
2.23
1.05
-0.39
-1.99
-3.59
-4.99
-6.06
-6.83
-7.53
-8.42
-9.72
-11.38
-13.08
-14.30
-14.57
-13.68
-11.82
-9.45
-7.01
-4.72
-2.43
0.14
3.16
6.41
9.36
11.36
12.07
11.62
10.54
9.51
8.96
8.91
9.02
8.88
8.25
7.21
6.07
5.16
4.63
4.36
4.02
3.29
2.03
0.34
-1.45
-2.98
-4.04
-4.73
-5.44
-6.65
-8.61
-11.20
-13.80
-15.62
-16.06
-14.99
-12.81
-10.22
-7.78
-5.60
-3.38
-0.69
2.71
6.51
10.08
12.72
14.04
14.19
13.71
13.23
13.12
13.34
13.51
13.25
12.39
11.15
9.98
9.32
9.32
9.74
10.01
9.56
8.14
5.91
3.41
1.26
-0.13
-0.84
-1.31
-2.16
-3.82
-6.33
-9.30
-12.07
-14.02
-14.87
-14.73
-13.96
-12.93
-11.78
-10.32
-8.24
-5.29
-1.61
2.39
6.07
8.96
10.90
12.09
12.86
13.49
13.99
14.20
13.90
13.09
11.99
11.01
10.53
10.69
11.31
11.94
12.08
11.45
10.11
8.40
6.78
5.53
4.63
3.80
2.68
1.10
-0.87
-2.94
-4.79
-6.30
-7.60
-9.01
-10.82
-13.06
-15.42
-17.28
-18.05
-17.38
-15.43
-12.76
-10.13
-8.00
-6.41
-4.95
-3.02
-0.25
3.22
6.85
9.90
11.86
12.68
12.67
12.38
12.20
12.27
12.42
12.36
11.90
11.08
10.14
9.43
9.16
9.25
9.32
8.87
7.57
5.43
2.87
0.53
-1.08
-1.85
-2.13
-2.51
-3.49
-5.17
-7.23
-9.15
-10.52
-11.30
-11.82
-12.45
-13.40
-14.42
-14.99
-14.55
-12.85
-10.15
-7.05
-4.22
-2.03
-0.42
1.01
2.70
4.80
7.07
8.92
9.81
9.52
8.28
6.73
5.56
5.23
5.74
6.67
7.45
7.66
7.18
6.25
5.29
4.58
4.11
3.60
2.68
1.15
-0.80
-2.69
-3.98
-4.44
-4.31
-4.21
-4.81
-6.40
-8.81
-11.44
-13.61
-14.90
-15.25
-14.91
-14.17
-13.19
-11.90
-10.11
-7.62
-4.47
-0.91
2.63
5.66
7.87
9.17
9.70
9.82
9.82
9.86
9.85
9.60
8.98
8.08
7.17
6.61
6.59
6.96
7.31
7.20
6.40
5.05
3.61
2.53
2.03
1.91
1.68
0.84
-0.81
-3.05
-5.46
-7.62
-9.42
-11.00
-12.62
-14.33
-15.91
-16.89
-16.83
-15.55
-13.27
-10.49
-7.79
-5.53
-3.71
-2.05
-0.16
2.19
4.93
7.64
9.78
10.94
11.08
10.55
9.94
9.75
10.13
10.80
11.28
11.16
10.44
9.42
8.56
8.16
8.13
8.05
7.41
5.97
3.91
1.71
-0.05
-1.07
-1.42
-1.54
-1.96
-3.04
-4.75
-6.79
-8.74
-10.30
-11.39
-12.17
-12.82
-13.38
-13.66
-13.36
-12.18
-10.07
-7.27
-4.22
-1.36
1.04
2.98
4.57
5.95
7.15
8.01
8.36
8.08
7.30
6.36
5.67
5.49
5.85
6.37
6.59
6.06
4.74
2.98
1.39
0.48
0.41
0.86
1.22
0.92
-0.26
-2.06
-3.97
-5.50
-6.45
-7.04
-7.71
-8.88
-10.66
-12.78
-14.67
-15.77
-15.76
-14.70
-12.97
-11.06
-9.31
-7.72
-6.09
-4.11
-1.69
0.92
3.20
4.64
5.00
4.51
3.75
3.36
3.67
4.53
5.36
5.49
4.63
2.97
1.09
-0.28
-0.74
-0.36
0.39
0.88
0.69
-0.20
-1.47
-2.63
-3.35
-3.61
-3.73
-4.16
-5.24
-6.99
-9.11
-11.10
-12.52
-13.17
-13.21
-12.94
-12.57
-12.06
-11.10
-9.30
-6.54
-3.03
0.69
3.99
6.47
8.14
9.31
10.38
11.58
12.78
13.65
13.84
13.25
12.14
10.93
10.09
9.79
9.89
10.03
9.84
9.15
8.08
6.95
6.05
5.50
5.07
4.37
3.02
0.92
-1.64
-4.16
-6.12
-7.29
-7.87
-8.36
-9.26
-10.79
-12.75
-14.56
-15.56
-15.34
-13.92
-11.77
-9.54
-7.68
-6.24
-4.82
-2.87
-0.09
3.29
6.55
8.84
9.68
9.23
8.22
7.54
7.74
8.71
9.82
10.33
9.84
8.53
6.98
5.85
5.45
5.60
5.74
5.29
3.99
2.06
0.05
-1.41
-2.04
-2.01
-1.87
-2.20
-3.29
-5.02
-6.95
-8.62
-9.88
-10.85
-11.82
-12.95
-14.10
-14.86
-14.77
-13.58
-11.36
-8.51
-5.59
-3.03
-1.02
0.60
2.15
3.91
5.95
7.99
9.61
10.40
10.24
9.31
8.08
6.96
6.21
5.76
5.42
4.98
4.42
3.89
3.60
3.64
3.88
3.98
3.62
2.61
1.03
-0.80
-2.51
-3.84
-4.83
-5.81
-7.18
-9.24
-11.92
-14.80
-17.25
-18.73
-18.93
-17.91
-16.02
-13.69
-11.24
-8.78
-6.26
-3.59
-0.83
1.74
3.73
4.84
5.07
4.74
4.42
4.60
5.48
6.79
7.95
8.43
8.00
6.91
5.73
4.97
4.84
5.08
5.19
4.76
3.70
2.27
0.95
0.08
-0.32
-0.57
-1.13
-2.26
-3.91
-5.77
-7.46
-8.74
-9.63
-10.35
-11.12
-11.97
-12.71
-12.93
-12.30
-10.63
-8.10
-5.14
-2.26
0.15
1.99
3.41
4.74
6.24
7.95
9.64
10.92
11.47
11.27
10.63
10.01
9.80
10.06
10.47
10.54
9.89
8.52
6.74
5.08
3.90
3.17
2.56
1.58
-0.03
-2.15
-4.34
-6.09
-7.12
-7.59
-8.00
-8.95
-10.72
-13.12
-15.51
-17.12
-17.43
-16.39
-14.46
-12.29
-10.33
-8.70
-7.09
-5.05
-2.31
1.01
4.45
7.36
9.30
10.17
10.25
10.05
10.01
10.28
10.69
10.86
10.51
9.64
8.58
7.80
7.60
7.92
8.30
8.17
7.17
5.46
3.56
2.11
1.45
1.38
1.32
0.61
-1.11
-3.72
-6.72
-9.55
-11.82
-13.46
-14.57
-15.29
-15.55
-15.17
-13.87
-11.51
-8.22
-4.35
-0.43
3.02
5.70
7.56
8.79
9.72
10.59
11.43
12.06
12.20
11.70
10.69
9.52
8.61
8.26
8.44
8.85
9.09
8.90
8.25
7.34
6.42
5.64
4.94
4.12
2.96
1.39
-0.45
-2.29
-3.83
-5.01
-5.97
-7.09
-8.73
-10.93
-13.37
-15.41
-16.32
-15.71
-13.64
-10.64
-7.41
-4.52
-2.16
-0.16
1.86
4.12
6.62
9.04
10.98
12.18
12.66
12.72
12.72
12.94
13.37
13.76
13.79
13.26
12.25
11.08
10.14
9.63
9.44
9.19
8.43
6.96
4.96
2.90
1.37
0.68
0.70
0.89
0.56
-0.75
-3.05
-5.89
-8.69
-10.97
-12.59
-13.74
-14.63
-15.30
-15.50
-14.84
-13.00
-9.99
-6.18
-2.20
1.33
4.06
5.93
7.16
8.08
8.85
9.44
9.68
9.41
8.67
7.75
7.05
6.88
7.26
7.83
8.05
7.48
6.04
4.10
2.27
1.11
0.79
1.01
1.23
0.85
-0.36
-2.25
-4.37
-6.25
-7.68
-8.87
-10.29
-12.35
-15.12
-18.16
-20.67
-21.86
-21.37
-19.45
-16.86
-14.40
-12.49
-10.94
-9.13
-6.42
-2.65
1.66
5.59
8.23
9.21
8.80
7.76
6.90
6.69
7.09
7.68
7.99
7.79
7.16
6.39
5.79
5.46
5.20
4.67
3.61
2.01
0.17
-1.47
-2.60
-3.20
-3.64
-4.44
-5.99
-8.35
-11.20
-14.05
-16.49
-18.40
-19.88
-21.09
-22.04
-22.50
-22.15
-20.81
-18.57
-15.83
-13.13
-10.98
-9.60
-8.98
-8.83
-8.79
-8.51
-7.76
-6.52
-4.92
-3.13
-1.22
0.90
3.50
6.88
11.13
16.03
21.05
25.58
29.18
31.78
33.62
35.13
36.63
38.16
39.44
40.05
39.64
38.06
35.47
32.20
28.55
24.68
20.53
16.01
11.13
6.16
1.60
-2.06
-4.55
-5.97
-6.72
-7.26
-7.81
-8.25
-8.19
-7.28
-5.54
-3.45
-1.75
-1.02
-1.40
-2.53
-3.70
-4.30
-4.06
-3.15
-1.99
-0.96
-0.17
0.49
1.22
2.04
2.72
2.79
1.83
-0.28
-3.27
-6.53
-9.37
-11.40
-12.66
-13.59
-14.81
-16.75
-19.50
-22.74
-25.98
-28.78
-30.92
-32.42
-33.44
-34.09
-34.28
-33.80
-32.33
-29.72
-26.07
-21.86
-17.79
-14.49
-12.30
-11.06
-10.27
-9.38
-8.10
-6.57
-5.22
-4.47
-4.40
-4.76
-5.11
-5.10
-4.74
-4.37
-4.43
-5.16
-6.48
-8.04
-9.42
-10.45
-11.24
-12.14
-13.50
-15.48
-17.92
-20.51
-22.91
-24.92
-26.58
-28.02
-29.32
-30.33
-30.64
-29.79
-27.34
-23.12
-17.19
-9.88
-1.58
7.37
16.75
26.51
36.64
47.01
57.24
66.69
74.61
80.43
83.99
85.56
85.65
84.75
83.09
80.63
77.27
73.14
68.66
64.35
60.57
57.29
54.02
50.15
45.21
39.19
32.46
25.65
19.25
13.46
8.12
2.88
-2.58
-8.32
-14.09
-19.43
-23.84
-27.03
-28.94
-29.74
-29.72
-29.03
-27.72
-25.80
-23.36
-20.68
-18.28
-16.68
-16.20
-16.74
-17.76
-18.48
-18.24
-16.78
-14.43
-11.94
-10.12
-9.45
-9.83
-10.68
-11.23
-10.93
-9.75
-8.20
-7.01
-6.76
-7.60
-9.25
-11.14
-12.79
-14.00
-14.87
-15.61
-16.26
-16.51
-15.84
-13.79
-10.25
-5.68
-0.93
3.12
6.01
7.85
9.21
10.78
12.84
15.17
17.09
17.94
17.44
15.89
14.03
12.58
11.91
11.84
11.83
11.28
9.92
7.92
5.77
4.04
3.03
2.64
2.41
1.78
0.39
-1.77
-4.32
-6.79
-8.88
-10.72
-12.72
-15.29
-18.43
-21.56
-23.71
-23.95
-21.92
-18.11
-13.59
-9.57
-6.72
-4.89
-3.29
-0.99
2.47
6.79
11.03
14.17
15.65
15.62
14.83
14.14
14.01
14.21
14.11
13.09
10.99
8.26
5.65
3.74
2.63
1.78
0.44
-1.90
-5.19
-8.84
-11.99
-14.06
-15.06
-15.62
-16.59
-18.57
-21.52
-24.71
-27.06
-27.60
-25.99
-22.71
-18.75
-15.17
-12.55
-10.77
-9.15
-6.92
-3.66
0.31
4.20
7.10
8.51
8.53
7.76
6.90
6.42
6.34
6.38
6.29
6.03
5.80
5.84
6.18
6.56
6.56
5.84
4.46
2.89
1.79
1.71
2.75
4.49
6.07
6.62
5.58
2.99
-0.58
-4.21
-7.03
-8.57
-8.85
-8.31
-7.47
-6.69
-6.04
-5.34
-4.40
-3.18
-1.91
-0.91
-0.43
-0.43
-0.60
-0.56
-0.09
0.70
1.40
1.51
0.83
-0.48
-1.83
-2.56
-2.25
-1.02
0.59
1.87
2.41
2.27
1.93
1.99
2.74
4.03
5.32
6.04
5.93
5.22
4.49
4.42
5.48
7.64
10.51
13.49
16.10
18.20
19.93
21.67
23.69
25.96
28.10
29.54
29.80
28.75
26.63
23.99
21.33
18.89
16.58
14.12
11.33
8.29
5.40
3.09
1.63
0.85
0.27
-0.70
-2.39
-4.64
-6.98
-8.83
-9.87
-10.30
-10.61
-11.43
-13.02
-15.25
-17.64
-19.63
-20.86
-21.31
-21.22
-20.84
-20.30
-19.45
-17.94
-15.45
-11.90
-7.60
-3.19
0.54
3.05
4.25
4.53
4.57
4.95
5.80
6.84
7.48
7.33
6.38
5.06
4.05
3.88
4.59
5.76
6.67
6.69
5.63
3.77
1.76
0.23
-0.56
-0.89
-1.41
-2.74
-5.17
-8.37
-11.62
-14.12
-15.39
-15.40
-14.51
-13.16
-11.61
-9.86
-7.68
-4.91
-1.64
1.78
4.78
6.95
8.20
8.81
9.27
10.04
11.26
12.70
13.90
14.46
14.26
13.51
12.63
11.88
11.21
10.30
8.77
6.51
3.80
1.19
-0.85
-2.17
-3.06
-4.06
-5.64
-7.89
-10.51
-12.97
-14.82
-15.96
-16.61
-17.10
-17.65
-18.14
-18.19
-17.34
-15.28
-12.06
-8.08
-3.92
-0.23
2.59
4.46
5.59
6.42
7.28
8.29
9.27
9.89
9.92
9.37
8.64
8.20
8.42
9.29
10.35
10.91
10.45
8.84
6.46
3.96
1.94
0.59
-0.35
-1.46
-3.26
-5.92
-9.12
-12.26
-14.73
-16.30
-17.17
-17.77
-18.44
-19.14
-19.46
-18.83
-16.94
-13.94
-10.46
-7.32
-5.13
-4.04
-3.79
-3.85
-3.81
-3.60
-3.45
-3.72
-4.63
-6.06
-7.60
-8.74
-9.18
-8.99
-8.62
-8.64
-9.36
-10.67
-12.05
-12.75
-12.27
-10.54
-7.98
-5.20
-2.66
-0.48
1.55
3.70
6.01
8.16
9.63
10.05
9.53
8.75
8.62
9.89
12.70
16.41
19.99
22.48
23.53
23.53
23.29
23.61
24.70
26.13
27.09
26.94
25.60
23.61
21.75
20.58
20.03
19.52
18.31
15.96
12.67
9.22
6.46
4.96
4.55
4.51
3.90
2.14
-0.68
-3.83
-6.40
-7.80
-8.13
-8.14
-8.76
-10.53
-13.25
-16.04
-17.78
-17.71
-15.73
-12.41
-8.64
-5.10
-2.10
0.44
2.81
5.19
7.53
9.52
10.77
11.06
10.43
9.22
7.95
7.11
6.94
7.34
7.90
8.19
7.89
7.04
5.91
4.86
4.10
3.50
2.76
1.64
0.19
-1.20
-1.94
-1.63
-0.34
1.35
2.64
2.94
2.22
1.09
0.50
1.32
3.90
7.99
12.89
17.87
22.45
26.42
29.82
32.70
34.97
36.49
37.17
37.18
36.91
36.85
37.33
38.29
39.17
39.08
37.10
32.75
26.21
18.40
10.69
4.49
0.73
-0.35
0.76
3.18
6.01
8.64
10.76
12.29
13.12
12.93
11.23
7.62
2.07
-4.91
-12.24
-18.67
-23.19
-25.51
-26.22
-26.57
-28.04
-31.74
-37.96
-46.09
-54.94
-63.22
-70.05
-75.14
-78.58
-80.53
-80.85
-79.28
-75.90
-71.73
-68.74
-69.13
-74.01
-82.44
-91.50
-97.60
-98.42
-94.18
-87.48
-81.71
-79.04
-79.25
-80.05
-78.71
-73.68
-65.37
-55.61
-46.26
-38.12
-30.70
-22.87
-13.81
-3.69
6.48
15.43
22.40
27.53
31.72
36.20
41.76
48.41
55.31
61.14
64.72
65.56
64.06
61.29
58.38
56.07
54.40
52.88
50.89
48.14
44.79
41.28
38.07
35.29
32.73
29.99
26.83
23.30
19.71
16.43
13.62
11.12
8.52
5.41
1.68
-2.44
-6.40
-9.61
-11.67
-12.56
-12.57
-12.08
-11.34
-10.39
-9.09
-7.33
-5.16
-2.84
-0.71
0.94
2.04
2.71
3.21
3.81
4.64
5.61
6.51
7.08
7.26
7.21
7.33
8.06
9.66
11.98
14.47
16.36
17.11
16.64
15.42
14.23
13.77
14.29
15.52
16.86
17.78
18.15
18.27
18.72
19.94
22.07
24.87
28.00
31.32
35.09
39.81
45.97
53.62
62.23
70.78
78.11
83.43
86.63
88.22
89.00
89.62
90.13
89.98
88.24
84.22
77.95
70.43
63.26
57.94
55.22
54.65
54.84
54.06
50.82
44.25
34.05
20.23
2.98
-17.24
-39.51
-62.30
-83.67
-101.75
-115.22
-123.81
-128.20
-129.68
-129.45
-128.13
-125.49
-120.80
-113.43
-103.58
-92.51
-82.23
-74.57
-70.38
-69.04
-68.91
-68.13
-65.55
-61.12
-55.59
-49.84
-44.34
-38.97
-33.36
-27.29
-21.05
-15.37
-11.08
-8.72
-8.19
-8.85
-9.77
-10.20
-9.97
-9.54
-9.79
-11.44
-14.64
-18.72
-22.49
-24.73
-24.77
-22.72
-19.35
-15.62
-12.27
-9.55
-7.30
-5.09
-2.57
0.35
3.47
6.34
8.51
9.71
9.99
9.70
9.38
9.46
10.14
11.31
12.66
13.86
14.68
15.05
14.98
14.46
13.46
11.96
10.08
8.15
6.57
5.67
5.40
5.25
4.44
2.27
-1.43
-6.10
-10.63
-13.73
-14.64
-13.39
-10.73
-7.70
-5.07
-3.05
-1.29
0.73
3.24
5.93
8.10
8.97
8.22
6.12
3.51
1.29
0.03
-0.24
0.01
0.15
-0.25
-1.25
-2.68
-4.25
-5.79
-7.31
-8.94
-10.81
-12.91
-15.15
-17.41
-19.61
-21.77
-23.99
-26.29
-28.55
-30.40
-31.41
-31.27
-30.05
-28.31
-26.84
-26.27
-26.60
-27.10
-26.58
-24.02
-19.23
-13.10
-7.36
-3.91
-4.15
-8.45
-16.10
-25.51
-34.50
-40.45
-40.48
-31.93
-12.99
16.38
54.05
95.89
136.71
171.57
196.81
210.51
212.13
201.89
180.44
149.07
110.35
68.39
28.47
-4.32
-26.67
-38.09
-40.76
-38.43
-34.66
-31.73
-30.20
-29.41
-28.47
-26.97
-25.11
-23.38
-22.13
-21.29
-20.47
-19.23
-17.30
-14.81
-12.18
-9.90
-8.36
-7.63
-7.47
-7.51
-7.39
-6.94
-6.24
-5.52
-5.01
-4.87
-5.11
-5.62
-6.24
-6.88
-7.54
-8.37
-9.56
-11.25
-13.38
-15.61
-17.41
-18.17
-17.49
-15.27
-11.79
-7.60
-3.35
0.44
3.57
6.14
8.54
11.21
14.46
18.34
22.60
26.84
30.50
32.98
33.65
31.96
27.63
20.86
12.44
3.63
-4.15
-9.79
-12.82
-13.52
-12.67
-11.25
-10.10
-9.69
-10.20
-11.60
-13.80
-16.68
-20.03
-23.53
-26.79
-29.38
-30.85
-30.93
-29.51
-26.72
-22.92
-18.61
-14.41
-10.84
-8.21
-6.42
-4.95
-2.93
0.63
6.53
15.04
25.70
37.27
47.84
55.19
57.37
53.30
43.27
28.94
12.98
-1.80
-13.22
-20.24
-22.98
-22.29
-19.21
-14.54
-8.82
-2.40
4.27
10.65
16.09
20.03
22.05
21.94
19.77
15.94
11.15
6.26
2.06
-0.98
-2.83
-3.72
-4.03
-3.97
-3.67
-3.20
-2.71
-2.50
-2.79
-3.53
-4.20
-4.05
-2.41
0.80
4.96
8.89
11.34
11.56
9.57
6.09
2.22
-1.07
-3.22
-4.19
-4.26
-3.89
-3.46
-3.17
-3.02
-2.92
-2.74
-2.43
-2.02
-1.68
-1.56
-1.66
-1.87
-2.01
-2.00
-1.91
-1.94
-2.27
-2.85
-3.42
-3.62
-3.16
-1.98
-0.23
1.81
3.86
5.76
7.44
8.91
10.12
11.05
11.59
11.66
11.18
10.11
8.51
6.55
4.46
2.55
1.01
-0.09
-0.89
-1.60
-2.43
-3.49
-4.75
-6.16
-7.62
-9.06
-10.36
-11.33
-11.66
-11.03
-9.28
-6.53
-3.23
-0.03
2.50
4.14
5.12
6.01
7.38
9.48
12.14
14.82
16.96
18.19
18.44
17.87
16.67
15.01
12.99
10.69
8.26
5.84
3.52
1.34
-0.74
-2.71
-4.43
-5.70
-6.31
-6.18
-5.28
-3.64
-1.36
1.34
3.99
5.90
6.40
5.05
2.01
-2.02
-6.02
-9.09
-10.75
-11.05
-10.43
-9.40
-8.30
-7.20
-6.07
-4.85
-3.66
-2.72
-2.24
-2.34
-2.92
-3.71
-4.37
-4.65
-4.45
-3.86
-3.15
-2.59
-2.33
-2.32
-2.37
-2.19
-1.65
-0.79
0.12
0.71
0.72
0.13
-0.91
-2.19
-3.58
-5.12
-6.87
-8.78
-10.51
-11.56
-11.46
-10.01
-7.47
-4.39
-1.40
1.15
3.28
5.22
7.26
9.47
11.59
13.25
14.09
14.01
13.17
11.96
10.82
10.07
9.80
9.94
10.20
10.25
9.79
8.63
6.79
4.46
1.92
-0.48
-2.46
-3.84
-4.54
-4.62
-4.27
-3.78
-3.54
-3.94
-5.26
-7.53
-10.45
-13.45
-15.78
-16.78
-16.08
-13.82
-10.49
-6.86
-3.65
-1.30
0.15
0.96
1.50
2.07
2.79
3.59
4.27
4.65
4.56
3.95
2.88
1.54
0.20
-0.86
-1.40
-1.38
-1.00
-0.68
-0.83
-1.75
-3.44
-5.57
-7.77
-9.73
-11.42
-13.02
-14.80
-17.08
-20.14
-24.29
-29.52
-35.14
-39.34
-39.41
-32.60
-17.56
4.63
30.40
54.83
73.51
84.09
86.67
82.97
74.85
63.41
48.97
31.90
13.47
-3.99
-17.96
-26.83
-30.78
-31.68
-32.05
-33.87
-37.69
-42.59
-46.87
-49.01
-48.45
-45.64
-41.67
-37.60
-33.89
-30.35
-26.39
-21.55
-15.86
-9.90
-4.51
-0.37
2.35
3.97
5.13
6.36
7.83
9.33
10.53
11.28
11.77
12.36
13.39
14.85
16.40
17.55
17.97
17.71
17.13
16.67
16.57
16.70
16.72
16.23
15.11
13.50
11.80
10.42
9.66
9.54
9.84
10.16
10.09
9.37
8.04
6.39
4.78
3.51
2.58
1.77
0.78
-0.59
-2.28
-4.09
-5.79
-7.27
-8.59
-9.86
-11.08
-12.09
-12.57
-12.30
-11.21
-9.51
-7.54
-5.62
-3.95
-2.55
-1.31
-0.12
1.09
2.30
3.41
4.32
4.95
5.30
5.43
5.47
5.53
5.68
5.86
5.93
5.82
5.52
5.15
4.84
4.68
4.56
4.25
3.53
2.37
0.91
-0.56
-1.73
-2.45
-2.78
-2.95
-3.26
-3.93
-4.96
-6.14
-7.14
-7.63
-7.43
-6.52
-5.09
-3.37
-1.58
0.17
1.78
3.21
4.40
5.26
5.76
5.92
5.89
5.81
5.85
6.08
6.44
6.81
7.10
7.27
7.34
7.36
7.31
7.10
6.52
5.40
3.69
1.62
-0.41
-1.99
-2.76
-2.65
-1.83
-0.76
0.04
0.16
-0.45
-1.53
-2.63
-3.30
-3.27
-2.57
-1.45
-0.17
1.15
2.84
5.30
8.67
12.69
16.73
20.06
22.16
23.02
23.06
23.45
25.06
28.08
31.92
35.58
38.20
39.25
38.83
37.36
36.13
36.04
37.38
40.03
43.98
49.65
57.59
68.15
80.61
93.88
105.56
112.52
112.25
104.14
89.68
71.35
51.39
25.41
-7.36
-43.31
-75.26
-96.37
-103.21
-96.43
-81.33
-63.15
-46.42
-33.21
-23.97
-18.19
-15.19
-14.79
-16.59
-20.01
-24.12
-28.14
-30.86
-31.92
-32.13
-33.04
-36.14
-41.98
-49.99
-58.63
-66.10
-70.49
-70.79
-67.19
-60.92
-53.58
-46.52
-40.59
-35.93
-32.49
-29.95
-28.24
-27.55
-28.02
-29.28
-30.23
-29.32
-25.05
-16.74
-4.70
9.61
24.08
36.56
45.52
50.42
51.71
50.58
48.41
46.35
44.93
44.06
43.14
41.57
39.07
35.72
32.00
28.32
24.86
21.50
17.99
14.28
10.59
7.35
4.93
3.34
2.14
0.74
-1.36
-4.18
-7.40
-10.53
-13.32
-15.98
-19.01
-22.93
-27.96
-33.75
-39.45
-43.89
-45.84
-44.44
-39.38
-30.99
-20.31
-8.89
1.52
9.40
13.87
14.82
12.74
8.41
2.78
-3.20
-8.67
-12.96
-15.63
-16.77
-17.01
-17.53
-19.69
-24.10
-30.48
-37.83
-44.80
-50.09
-53.13
-53.87
-53.12
-52.18
-51.75
-51.97
-52.95
-55.13
-59.13
-66.00
-76.21
-90.12
-107.86
-128.21
-149.22
-169.18
-186.71
-200.10
-207.47
-205.69
-192.06
-165.22
-124.36
-70.19
-6.26
61.44
126.18
181.72
225.38
257.27
271.68
265.01
240.45
206.87
172.89
147.93
129.72
115.96
105.31
96.95
88.95
81.12
73.01
63.98
53.99
43.09
32.77
24.00
16.46
9.82
4.08
-0.99
-5.56
-9.17
-11.50
-11.48
-8.82
-4.27
1.36
7.39
12.68
16.11
17.07
15.24
11.60
8.06
6.98
9.79
16.86
26.67
36.21
42.13
41.63
32.91
16.49
-4.99
-27.44
-46.41
-58.69
-63.28
-61.47
-56.08
-50.00
-44.93
-41.15
-37.85
-33.92
-28.83
-22.88
-16.96
-11.87
-7.92
-4.72
-1.67
1.52
4.54
6.55
6.52
3.81
-1.32
-7.65
-13.33
-16.65
-16.82
-14.33
-10.69
-7.67
-6.40
-6.94
-8.34
-9.28
-8.92
-7.33
-5.40
-4.21
-4.34
-5.52
-6.82
-7.17
-5.98
-3.47
-0.49
1.99
3.39
3.78
3.65
3.54
3.55
3.43
2.69
1.11
-1.08
-3.29
-4.85
-5.44
-5.26
-4.95
-5.19
-6.25
-7.78
-8.96
-8.85
-6.99
-3.62
0.35
3.79
5.96
6.81
6.98
7.40
8.71
10.84
13.02
14.23
13.76
11.68
8.79
6.27
5.07
5.45
6.88
8.39
9.05
8.44
6.79
4.79
3.18
2.32
2.09
1.99
1.49
0.33
-1.40
-3.28
-4.90
-6.06
-6.88
-7.68
-8.73
-10.06
-11.38
-12.25
-12.20
-11.06
-9.04
-6.66
-4.48
-2.86
-1.79
-0.93
0.14
1.62
3.32
4.76
5.48
5.31
4.56
3.88
3.90
4.88
6.58
8.34
9.55
9.85
9.30
8.28
7.19
6.20
5.26
4.11
2.56
0.63
-1.39
-3.03
-3.93
-4.03
-3.68
-3.49
-4.01
-5.36
-7.17
-8.68
-9.21
-8.49
-6.82
-4.83
-3.03
-1.55
-0.08
1.81
4.29
7.04
9.44
10.84
11.01
10.28
9.30
8.74
8.91
9.64
10.43
10.73
10.21
8.93
7.28
5.72
4.62
3.97
3.47
2.68
1.29
-0.62
-2.65
-4.23
-4.98
-4.95
-4.67
-4.86
-6.05
-8.24
-10.89
-13.10
-14.13
-13.70
-12.09
-9.99
-8.00
-6.32
-4.73
-2.77
-0.18
2.87
5.80
7.90
8.77
8.53
7.76
7.18
7.22
7.82
8.49
8.62
7.88
6.38
4.62
3.27
2.76
3.14
4.09
5.07
5.68
5.80
5.64
5.54
5.76
6.36
7.19
7.97
8.57
9.09
9.83
11.25
13.58
16.72
20.23
23.50
26.09
27.82
28.84
29.48
29.98
30.36
30.46
30.13
29.45
28.75
28.46
28.75
29.20
28.76
26.04
19.86
9.90
-3.01
-17.10
-30.24
-40.81
-48.38
-53.76
-58.60
-64.46
-72.11
-81.15
-90.17
-97.48
-101.82
-102.72
-100.58
-96.27
-90.69
-84.47
-77.87
-71.00
-63.91
-56.72
-49.58
-42.59
-35.96
-29.88
-24.40
-19.17
-13.19
-4.93
7.24
24.17
45.32
68.71
91.54
111.15
125.88
135.34
140.12
141.08
138.87
133.75
125.65
114.46
100.23
83.39
64.93
46.39
29.62
16.34
7.49
2.70
0.35
-1.94
-6.25
-13.46
-22.96
-32.96
-41.32
-46.49
-47.87
-45.81
-41.10
-34.71
-27.56
-20.63
-14.94
-11.36
-10.14
-10.67
-11.52
-11.10
-8.53
-4.16
0.47
3.41
3.11
-0.91
-7.99
-16.82
-26.03
-34.59
-41.95
-47.89
-52.34
-55.36
-57.07
-57.89
-58.43
-59.40
-61.34
-64.42
-68.32
-72.30
-75.33
-76.42
-75.09
-71.58
-66.95
-62.59
-59.73
-58.79
-59.14
-59.43
-57.99
-53.81
-46.87
-38.10
-28.84
-20.24
-12.66
-5.55
1.99
11.46
23.59
38.23
54.36
70.53
85.46
98.53
109.89
119.61
128.47
135.97
140.74
140.99
135.29
123.07
104.87
82.21
56.44
30.64
6.74
-14.01
-31.15
-44.94
-55.99
-64.93
-72.08
-78.58
-83.58
-87.58
-91.23
-94.83
-97.92
-99.19
-97.19
-85.16
-71.46
-56.72
-43.08
-32.01
-23.50
-16.01
-7.49
3.39
16.44
29.17
40.59
49.29
54.92
58.46
61.50
65.22
69.41
72.74
72.92
69.95
64.47
58.09
53.11
51.81
55.34
63.06
73.03
82.48
90.02
94.66
95.54
92.03
83.87
71.12
54.56
36.41
20.04
8.21
3.61
4.39
4.20
-2.73
-16.98
-33.92
-47.64
-54.32
-53.54
-48.13
-42.76
-41.22
-44.76
-50.61
-55.76
-57.04
-51.88
-39.24
-20.37
0.77
19.13
30.47
33.17
28.45
19.97
12.14
8.08
8.51
11.84
15.61
17.96
17.92
14.91
8.56
-1.10
-13.37
-26.65
-38.82
-47.80
-52.60
-53.71
-53.15
-53.32
-55.65
-60.22
-66.13
-72.38
-78.26
-83.56
-87.95
-90.79
-90.95
-86.78
-77.09
-62.12
-43.72
-24.74
-8.18
4.01
11.31
14.68
16.46
19.36
24.96
33.18
42.64
51.25
57.74
61.88
62.20
58.21
51.32
43.89
37.35
32.93
28.99
24.67
20.17
16.33
13.38
11.67
10.90
10.23
8.99
6.84
4.42
2.62
2.07
3.13
5.72
9.03
12.05
14.11
15.03
15.38
15.78
16.50
17.51
18.59
19.35
19.52
19.22
18.79
18.66
18.94
19.28
19.27
18.73
17.83
16.96
16.54
16.63
16.92
16.74
15.43
12.81
9.31
5.78
3.07
1.62
1.22
1.16
0.56
-1.18
-4.05
-7.42
-10.34
-11.98
-12.11
-11.14
-9.87
-8.95
-8.56
-8.27
-7.35
-5.27
-2.10
1.44
4.37
5.97
6.13
5.35
4.41
3.93
4.03
4.39
4.49
4.04
3.11
2.03
1.24
0.91
0.91
0.79
0.17
-1.04
-2.46
-3.43
-3.24
-1.61
1.07
3.93
5.91
6.33
5.20
3.16
1.17
-0.07
-0.37
-0.09
0.21
0.18
-0.11
-0.27
0.17
1.41
3.20
5.03
6.33
6.83
6.65
6.20
5.97
6.21
6.93
7.83
8.59
9.07
9.44
10.02
11.20
13.12
15.55
17.97
19.83
20.91
21.48
22.17
23.74
26.55
30.41
34.59
38.25
40.88
42.56
43.90
45.58
47.96
50.78
53.29
54.69
54.55
53.05
50.89
48.94
47.92
48.13
49.42
51.26
52.93
53.59
52.29
48.15
40.43
28.83
13.68
-3.95
-22.42
-39.96
-55.20
-67.57
-77.52
-86.25
-95.09
-104.85
-115.38
-125.66
-134.27
-140.01
-142.34
-141.52
-138.30
-133.60
-128.18
-122.57
-117.04
-111.72
-106.46
-100.94
-94.60
-86.90
-77.56
-66.71
-54.94
-43.05
-31.91
-22.27
-14.69
-9.57
-7.01
-6.79
-8.28
-10.52
-12.42
-13.08
-12.04
-9.35
-5.41
-0.83
3.79
7.97
11.27
13.37
14.10
13.56
12.19
10.64
9.59
9.43
10.09
11.04
11.56
11.08
9.48
7.22
5.09
3.90
4.08
5.58
7.91
10.45
12.73
14.54
16.04
17.57
19.44
21.76
24.33
26.80
28.93
30.78
32.76
35.50
39.43
44.45
49.80
54.28
56.70
56.39
53.49
48.80
43.36
38.02
33.12
28.65
24.41
20.36
16.68
13.69
11.51
9.95
8.45
6.47
3.92
1.23
-0.72
-1.11
0.34
3.13
6.28
8.73
9.79
9.35
7.70
5.23
2.25
-0.97
-4.13
-6.72
-8.21
-8.26
-6.98
-4.88
-2.73
-1.13
-0.31
0.00
0.32
1.07
2.38
3.99
5.43
6.27
6.24
5.32
3.67
1.58
-0.58
-2.43
-3.67
-4.19
-4.03
-3.40
-2.49
-1.41
-0.13
1.37
3.02
4.57
5.74
6.47
7.04
8.01
9.92
12.89
16.47
19.74
21.81
22.28
21.49
20.41
20.21
21.77
25.28
30.27
35.77
40.79
44.71
47.45
49.45
51.34
53.61
56.42
59.55
62.57
65.04
66.61
67.02
66.09
63.64
59.52
53.70
46.43
38.11
29.16
19.87
10.26
0.11
-11.05
-23.82
-38.81
-56.46
-76.61
-98.23
-119.49
-138.10
-152.06
-160.36
-163.24
-161.88
-157.76
-151.91
-144.57
-135.49
-124.37
-111.44
-97.51
-83.71
-71.06
-60.11
-50.87
-43.08
-36.42
-30.70
-25.78
-21.37
-16.99
-11.98
-5.75
1.96
10.90
20.42
29.61
37.61
43.76
47.75
49.49
49.09
46.84
43.30
39.29
35.88
34.10
34.59
37.28
41.30
45.20
47.50
47.25
44.36
39.52
33.75
27.89
22.31
16.90
11.50
6.22
1.63
-1.52
-2.62
-1.59
1.03
4.40
7.60
10.09
11.70
12.57
13.09
13.57
14.22
15.03
15.81
16.42
16.89
17.61
19.21
22.27
27.01
33.02
39.37
44.99
49.16
51.73
53.14
54.10
55.23
56.81
58.76
60.76
62.38
63.19
62.93
61.64
59.71
57.84
56.65
56.33
56.36
55.64
52.95
47.44
39.07
28.39
16.33
3.75
-8.72
-20.69
-31.89
-42.19
-51.69
-60.70
-69.49
-77.97
-85.36
-90.45
-92.00
-89.52
-83.49
-75.29
-66.61
-58.77
-52.35
-47.30
-43.24
-39.82
-36.86
-34.26
-31.84
-29.30
-26.26
-22.48
-17.95
-13.06
-8.47
-4.94
-3.07
-3.04
-4.48
-6.58
-8.44
-9.45
-9.60
-9.36
-9.36
-9.95
-10.94
-11.69
-11.53
-10.24
-8.22
-6.35
-5.56
-6.30
-8.45
-11.31
-14.04
-15.99
-16.87
-16.72
-15.78
-14.30
-12.51
-10.61
-8.77
-7.19
-6.02
-5.40
-5.41
-5.97
-6.85
-7.70
-8.17
-8.11
-7.68
-7.30
-7.44
-8.31
-9.72
-11.10
-11.81
-11.47
-10.08
-7.95
-5.47
-2.83
-0.06
2.84
5.82
8.64
11.01
12.66
13.55
13.85
13.89
14.04
14.54
15.42
16.48
17.42
18.02
18.25
18.26
18.23
18.19
17.88
16.94
15.08
12.41
9.36
6.53
4.39
3.00
2.08
1.21
0.07
-1.38
-2.93
-4.25
-5.09
-5.37
-5.20
-4.77
-4.26
-3.67
-2.86
-1.60
0.25
2.63
5.25
7.65
9.44
10.44
10.71
10.47
9.98
9.38
8.70
7.86
6.77
5.42
3.89
2.35
1.02
0.09
-0.29
-0.15
0.41
1.17
1.94
2.58
3.09
3.52
3.97
4.49
5.04
5.54
5.84
5.79
5.28
4.25
2.77
1.07
-0.47
-1.38
-1.25
0.09
2.49
5.54
8.73
11.67
14.18
16.30
18.14
19.72
20.91
21.51
21.31
20.27
18.62
16.80
15.37
14.78
15.21
16.36
17.50
17.68
16.22
12.99
8.62
4.18
0.64
-1.67
-3.23
-5.06
-8.20
-13.00
-18.93
-24.86
-29.51
-32.16
-32.84
-32.23
-31.18
-30.25
-29.49
-28.59
-27.25
-25.44
-23.51
-21.89
-20.77
-19.94
-18.82
-16.82
-13.63
-9.51
-5.09
-1.17
1.68
3.35
4.13
4.56
5.08
5.91
6.95
8.04
9.07
10.07
11.20
12.47
13.64
14.25
13.80
12.07
9.20
5.73
2.22
-0.87
-3.42
-5.58
-7.58
-9.53
-11.33
-12.69
-13.28
-12.98
-11.92
-10.52
-9.24
-8.38
-7.94
-7.61
-7.00
-5.88
-4.35
-2.72
-1.34
-0.40
0.17
0.55
0.89
1.24
1.55
1.76
1.86
1.86
1.69
1.31
0.65
-0.18
-0.99
-1.54
-1.77
-1.82
-1.97
-2.49
-3.45
-4.72
-6.00
-7.09
-7.92
-8.60
-9.27
-9.91
-10.35
-10.29
-9.51
-8.03
-6.10
-4.12
-2.41
-1.06
0.05
1.17
2.48
3.98
5.42
6.53
7.12
7.20
6.96
6.69
6.55
6.64
6.86
7.09
7.20
7.12
6.77
6.12
5.12
3.77
2.16
0.46
-1.06
-2.18
-2.77
-2.99
-3.16
-3.69
-4.92
-6.88
-9.27
-11.56
-13.16
-13.69
-13.11
-11.68
-9.85
-8.00
-6.31
-4.73
-3.07
-1.13
1.12
3.51
5.63
7.07
7.58
7.20
6.31
5.44
5.06
5.36
6.19
7.14
7.81
8.01
7.80
7.40
6.97
6.47
5.67
4.38
2.53
0.37
-1.67
-3.18
-4.01
-4.32
-4.53
-5.07
-6.10
-7.45
-8.64
-9.12
-8.57
-7.00
-4.72
-2.16
0.33
2.59
4.62
6.49
8.21
9.72
10.92
11.78
12.31
12.60
12.72
12.70
12.54
12.22
11.73
11.09
10.33
9.51
8.71
8.02
7.48
7.05
6.59
5.92
4.97
3.78
2.57
1.55
0.77
0.04
-0.98
-2.59
-4.80
-7.26
-9.38
-10.59
-10.52
-9.19
-6.97
-4.40
-2.00
-0.06
1.43
2.73
4.16
5.90
7.83
9.62
10.87
11.35
11.14
10.56
10.02
9.78
9.79
9.83
9.58
8.92
7.86
6.56
5.20
3.84
2.50
1.13
-0.26
-1.60
-2.78
-3.70
-4.32
-4.72
-5.05
-5.50
-6.25
-7.40
-8.90
-10.56
-12.00
-12.82
-12.69
-11.46
-9.19
-6.13
-2.69
0.73
3.74
6.04
7.48
8.11
8.18
8.09
8.22
8.80
9.81
11.00
12.00
12.57
12.63
12.31
11.82
11.36
11.05
10.85
10.66
10.28
9.56
8.40
6.84
5.04
3.23
1.60
0.23
-0.92
-2.00
-3.16
-4.45
-5.86
-7.35
-8.85
-10.33
-11.68
-12.76
-13.31
-13.13
-12.06
-10.19
-7.79
-5.29
-3.11
-1.47
-0.33
0.62
1.72
3.15
4.74
6.10
6.79
6.67
6.02
5.29
4.96
5.14
5.59
5.88
5.76
5.27
4.73
4.50
4.67
5.04
5.23
4.87
3.83
2.30
0.59
-0.96
-2.10
-2.82
-3.21
-3.54
-4.06
-4.91
-6.07
-7.36
-8.50
-9.24
-9.46
-9.17
-8.41
-7.24
-5.64
-3.61
-1.29
1.07
3.12
4.53
5.23
5.37
5.29
5.35
5.72
6.32
6.91
7.19
6.95
6.19
5.09
3.88
2.83
2.04
1.49
1.06
0.59
0.01
-0.70
-1.54
-2.51
-3.66
-5.06
-6.73
-8.54
-10.26
-11.61
-12.44
-12.80
-12.94
-13.19
-13.71
-14.38
-14.79
-14.42
-12.87
-10.05
-6.22
-1.88
2.44
6.36
9.74
12.73
15.59
18.59
21.74
24.82
27.46
29.33
30.31
30.65
30.77
31.05
31.57
32.02
31.86
30.62
28.17
24.84
21.27
18.02
15.38
13.24
11.25
9.10
6.71
4.22
1.87
-0.24
-2.20
-4.31
-6.84
-9.85
-13.10
-16.11
-18.34
-19.35
-19.02
-17.46
-15.02
-12.03
-8.80
-5.51
-2.26
0.77
3.35
5.16
5.99
5.84
4.99
3.90
3.01
2.55
2.45
2.46
2.31
1.88
1.25
0.63
0.23
0.13
0.32
0.66
0.97
1.09
0.92
0.45
-0.26
-1.08
-1.91
-2.68
-3.39
-4.09
-4.80
-5.47
-6.00
-6.28
-6.34
-6.30
-6.36
-6.68
-7.22
-7.73
-7.87
-7.31
-5.93
-3.88
-1.54
0.62
2.24
3.13
3.36
3.09
2.53
1.85
1.14
0.47
-0.05
-0.34
-0.29
0.12
0.77
1.44
1.88
1.94
1.58
0.94
0.21
-0.47
-1.07
-1.65
-2.32
-3.11
-3.97
-4.81
-5.53
-6.17
-6.86
-7.72
-8.77
-9.82
-10.56
-10.66
-10.00
-8.71
-7.11
-5.54
-4.23
-3.21
-2.38
-1.63
-0.93
-0.34
0.13
0.49
0.90
1.49
2.27
3.10
3.74
4.00
3.85
3.41
2.91
2.61
2.64
3.04
3.70
4.44
5.00
5.15
4.75
3.83
2.59
1.28
0.12
-0.81
-1.59
-2.39
-3.31
-4.34
-5.35
-6.14
-6.57
-6.58
-6.17
-5.46
-4.53
-3.46
-2.29
-1.10
0.08
1.13
1.95
2.45
2.65
2.62
2.49
2.35
2.26
2.17
2.08
1.98
1.93
1.97
2.10
2.25
2.37
2.43
2.51
2.67
2.88
3.07
3.05
2.75
2.20
1.58
1.12
1.01
1.25
1.63
1.82
1.49
0.49
-1.05
-2.76
-4.17
-4.83
-4.54
-3.30
-1.35
1.01
3.38
5.39
6.67
7.02
6.49
5.45
4.44
3.97
4.27
5.21
6.44
7.56
8.40
8.92
9.21
9.21
8.77
7.76
6.17
4.21
2.30
0.79
-0.13
-0.54
-0.74
-1.06
-1.74
-2.77
-3.93
-4.94
-5.60
-5.95
-6.18
-6.51
-7.06
-7.67
-8.05
-7.89
-7.08
-5.74
-4.16
-2.63
-1.31
-0.24
0.64
1.34
1.87
2.21
2.38
2.48
2.58
2.76
3.04
3.41
3.89
4.47
5.07
5.56
5.79
5.72
5.44
5.12
4.92
4.84
4.71
4.26
3.36
2.12
0.88
0.04
-0.18
0.11
0.54
0.64
0.13
-0.96
-2.32
-3.53
-4.23
-4.31
-3.88
-3.22
-2.59
-2.09
-1.63
-1.02
-0.08
1.17
2.54
3.70
4.42
4.64
4.54
4.41
4.53
4.99
5.67
6.38
6.96
7.42
7.94
8.75
9.92
11.29
12.44
12.90
12.35
10.78
8.48
5.91
3.44
1.25
-0.71
-2.59
-4.45
-6.20
-7.66
-8.65
-9.10
-9.08
-8.72
-8.17
-7.55
-6.90
-6.25
-5.64
-5.12
-4.73
-4.53
-4.52
-4.67
-4.84
-4.87
-4.60
-3.97
-3.00
-1.92
-1.04
-0.61
-0.76
-1.40
-2.29
-3.15
-3.80
-4.27
-4.72
-5.36
-6.24
-7.22
-7.99
-8.25
-7.88
-7.01
-5.98
-5.11
-4.51
-4.02
-3.32
-2.15
-0.50
1.31
2.84
3.88
4.66
5.76
7.83
11.19
15.69
20.90
26.41
32.10
37.94
43.67
48.51
51.25
50.65
46.03
37.61
26.49
14.21
2.29
-8.05
-15.92
-20.88
-22.85
-22.31
-20.20
-17.70
-15.87
-15.24
-15.74
-16.88
-18.09
-19.00
-19.51
-19.69
-19.64
-19.40
-19.01
-18.50
-17.98
-17.57
-17.29
-17.07
-16.71
-15.95
-14.60
-12.58
-10.00
-7.18
-4.49
-2.31
-0.83
-0.05
0.20
0.14
-0.04
-0.23
-0.37
-0.40
-0.28
0.02
0.45
0.93
1.34
1.59
1.67
1.60
1.43
1.16
0.84
0.46
0.09
-0.19
-0.34
-0.30
-0.09
0.22
0.49
0.50
0.03
-1.11
-2.90
-5.11
-7.31
-8.96
-9.66
-9.25
-7.96
-6.25
-4.61
-3.39
-2.63
-2.10
-1.51
-0.71
0.24
1.07
1.47
1.36
0.87
0.32
0.04
0.15
0.50
0.82
0.83
0.46
-0.13
-0.66
-0.91
-0.82
-0.57
-0.44
-0.67
-1.26
-2.00
-2.54
-2.63
-2.27
-1.71
-1.36
-1.54
-2.35
-3.59
-4.87
-5.79
-6.11
-5.79
-4.99
-3.94
-2.84
-1.73
-0.57
0.73
2.19
3.67
4.92
5.72
5.94
5.66
5.16
4.68
4.41
4.38
4.55
4.81
5.17
5.62
6.15
6.65
6.92
6.76
6.09
4.98
3.67
2.44
1.53
1.03
0.79
0.52
-0.04
-0.99
-2.19
-3.34
-4.15
-4.53
-4.60
-4.58
-4.62
-4.64
-4.42
-3.68
-2.38
-0.77
0.72
1.70
2.05
1.94
1.74
1.79
2.20
2.82
3.33
3.48
3.21
2.77
2.46
2.55
3.02
3.60
3.95
3.89
3.46
2.92
2.51
2.31
2.19
1.91
1.31
0.41
-0.58
-1.40
-1.93
-2.24
-2.58
-3.26
-4.44
-6.08
-7.85
-9.29
-9.90
-9.42
-7.88
-5.68
-3.40
-1.54
-0.37
0.20
0.48
0.77
1.29
1.99
2.65
3.06
3.11
2.85
2.42
1.95
1.52
1.18
0.91
0.84
1.15
2.07
3.70
5.82
7.85
8.99
8.55
6.32
2.69
-1.38
-4.87
-7.08
-7.94
-7.93
-7.72
-7.80
-8.17
-8.43
-8.14
-7.09
-5.44
-3.66
-2.18
-1.19
-0.57
0.04
0.94
2.20
3.63
4.89
5.65
5.78
5.33
4.51
3.56
2.67
1.97
1.46
1.13
0.92
0.83
0.88
1.11
1.52
1.98
2.24
1.96
0.95
-0.67
-2.47
-3.82
-4.30
-3.83
-2.86
-2.05
-2.00
-2.89
-4.46
-6.12
-7.31
-7.71
-7.35
-6.50
-5.49
-4.61
-4.04
-3.82
-3.82
-3.73
-3.12
-1.61
0.92
4.27
7.95
11.37
14.17
16.31
18.04
19.62
21.15
22.48
23.31
23.38
22.53
20.70
17.75
13.53
7.93
1.25
-5.78
-12.02
-16.42
-18.39
-18.14
-16.55
-14.73
-13.53
-13.23
-13.57
-14.03
-14.21
-13.96
-13.43
-12.81
-12.24
-11.68
-11.01
-10.11
-9.00
-7.79
-6.68
-5.82
-5.22
-4.76
-4.18
-3.28
-2.03
-0.54
0.94
2.15
2.99
3.56
4.07
4.74
5.71
6.91
8.16
9.21
9.90
10.19
10.16
9.95
9.68
9.37
8.95
8.29
7.29
5.96
4.45
3.02
1.83
0.86
-0.07
-1.22
-2.70
-4.31
-5.64
-6.18
-5.69
-4.25
-2.35
-0.55
0.78
1.60
2.20
2.90
3.80
4.73
5.35
5.38
4.77
3.65
2.19
0.40
-1.85
-4.63
-7.77
-10.70
-12.67
-12.99
-11.41
-8.21
-4.07
0.22
4.14
7.50
10.36
12.75
14.52
15.32
14.75
12.60
9.03
4.57
-0.05
-4.18
-7.40
-9.67
-11.17
-12.11
-12.65
-12.79
-12.46
-11.64
-10.44
-9.15
-8.10
-7.55
-7.55
-7.90
-8.26
-8.26
-7.66
-6.43
-4.74
-2.84
-1.03
0.52
1.72
2.57
3.16
3.56
3.86
4.08
4.20
4.18
4.01
3.75
3.48
3.28
3.16
3.02
2.72
2.16
1.34
0.44
-0.26
-0.51
-0.21
0.53
1.43
2.23
2.77
3.05
3.19
3.28
3.29
3.08
2.52
1.54
0.30
-0.89
-1.72
-1.99
-1.74
-1.20
-0.70
-0.48
-0.63
-1.09
-1.65
-2.15
-2.47
-2.58
-2.55
-2.45
-2.34
-2.19
-1.93
-1.46
-0.77
0.05
0.78
1.20
1.19
0.82
0.35
0.12
0.35
1.08
2.14
3.26
4.18
4.76
4.99
4.92
4.64
4.22
3.74
3.33
3.12
3.22
3.69
4.44
5.27
5.95
6.23
6.03
5.38
4.44
3.42
2.48
1.66
0.90
0.12
-0.73
-1.62
-2.41
-3.02
-3.43
-3.70
-3.97
-4.33
-4.80
-5.26
-5.56
-5.54
-5.12
-4.36
-3.37
-2.33
-1.33
-0.41
0.44
1.29
2.13
2.83
3.22
3.14
2.54
1.56
0.49
-0.32
-0.64
-0.45
0.07
0.64
1.04
1.13
0.97
0.68
0.34
-0.00
-0.43
-1.02
-1.83
-2.80
-3.79
-4.62
-5.15
-5.39
-5.47
-5.62
-6.02
-6.73
-7.62
-8.43
-8.92
-8.98
-8.69
-8.24
-7.82
-7.45
-7.03
-6.41
-5.52
-4.46
-3.44
-2.70
-2.30
-2.12
-1.87
-1.30
-0.34
0.82
1.86
2.43
2.39
1.82
0.95
0.05
-0.67
-1.11
-1.19
-0.85
-0.01
1.31
2.93
4.49
5.59
5.89
5.30
3.97
2.21
0.31
-1.52
-3.10
-4.31
-4.96
-4.85
-3.87
-2.06
0.41
3.21
6.08
8.78
11.15
13.03
14.27
14.72
14.29
13.06
11.25
9.16
7.06
5.18
3.70
2.69
2.23
2.28
2.73
3.38
3.98
4.38
4.60
4.89
5.58
6.97
9.07
11.60
14.01
15.69
16.16
15.21
13.03
10.09
6.94
4.04
1.58
-0.55
-2.61
-4.80
-7.15
-9.47
-11.47
-12.94
-13.86
-14.39
-14.70
-14.92
-14.97
-14.69
-13.98
-12.85
-11.48
-10.09
-8.86
-7.85
-7.02
-6.27
-5.48
-4.56
-3.34
-1.54
1.16
5.01
10.00
15.75
21.56
26.72
30.64
33.04
33.92
33.35
31.47
28.46
24.72
20.79
17.19
14.25
11.94
9.99
8.23
6.73
5.83
5.76
6.38
7.17
7.48
7.01
5.98
5.03
4.70
5.08
5.63
5.54
4.24
1.75
-1.30
-4.04
-5.78
-6.35
-6.05
-5.44
-5.06
-5.30
-6.33
-8.02
-10.01
-11.73
-12.51
-11.83
-9.58
-6.24
-2.73
-0.16
0.73
-0.16
-2.16
-4.06
-4.54
-2.74
1.39
6.92
12.20
15.49
15.60
12.44
7.07
1.25
-3.31
-5.70
-6.16
-5.84
-6.03
-7.40
-9.63
-11.61
-12.21
-11.04
-8.80
-7.04
-7.37
-10.56
-16.07
-22.22
-26.89
-28.50
-26.65
-22.22
-16.87
-12.46
-10.38
-11.24
-14.82
-20.28
-26.50
-32.37
-37.02
-39.94
-40.97
-40.27
-38.30
-35.77
-33.48
-32.12
-32.05
-33.11
-34.76
-36.31
-37.22
-37.25
-36.32
-34.19
-30.41
-24.54
-16.61
-7.50
1.13
7.50
10.49
10.19
7.84
5.22
3.80
4.26
6.45
9.72
13.34
16.76
19.62
21.80
23.38
24.84
27.08
31.28
38.30
48.12
59.39
69.56
75.61
75.12
67.27
53.16
35.53
17.75
2.83
-7.35
-12.30
-12.65
-9.75
-5.22
-0.61
2.83
4.36
3.87
1.89
-0.76
-3.12
-4.53
-4.65
-3.55
-1.48
1.18
4.03
6.67
8.73
10.02
10.51
10.42
10.16
10.13
10.61
11.65
12.99
14.18
14.78
14.54
13.58
12.36
11.46
11.36
12.15
13.52
14.91
15.77
15.78
15.08
14.04
13.14
12.59
12.25
11.53
9.64
5.88
-0.04
-7.74
-16.22
-24.07
-29.90
-32.74
-32.24
-28.75
-23.07
-16.20
-9.17
-2.81
2.22
5.41
6.42
4.94
0.78
-6.15
-15.68
-27.26
-39.88
-52.10
-62.28
-68.92
-70.95
-67.98
-60.33
-48.88
-34.99
-20.20
-6.06
6.19
15.80
22.67
27.25
30.34
32.68
34.74
36.55
37.83
38.21
37.47
35.68
33.07
29.88
26.21
22.05
17.41
12.56
8.11
4.85
3.38
3.73
5.23
6.77
7.31
6.38
4.29
1.90
0.12
-0.62
-0.56
-0.39
-0.79
-1.96
-3.55
-4.82
-5.16
-4.42
-3.08
-1.98
-1.88
-3.08
-5.32
-7.90
-10.17
-11.83
-13.05
-14.31
-16.01
-18.14
-20.22
-21.58
-21.67
-20.43
-18.34
-16.17
-14.62
-13.99
-14.09
-14.38
-14.34
-13.75
-12.77
-11.85
-11.39
-11.50
-11.91
-12.13
-11.79
-10.87
-9.78
-9.12
-9.29
-10.23
-11.43
-12.20
-11.99
-10.75
-8.85
-6.90
-5.35
-4.31
-3.53
-2.60
-1.27
0.34
1.86
2.82
2.95
2.38
1.53
0.96
1.06
1.80
2.80
3.46
3.40
2.59
1.40
0.37
-0.12
-0.09
0.12
-0.03
-0.81
-2.11
-3.47
-4.29
-4.25
-3.51
-2.62
-2.27
-2.81
-4.09
-5.50
-6.27
-5.91
-4.51
-2.64
-1.10
-0.42
-0.58
-1.06
-1.12
-0.28
1.41
3.35
4.73
5.02
4.22
2.95
2.10
2.33
3.78
5.97
8.03
9.27
9.42
8.70
7.68
6.85
6.36
5.94
5.13
3.62
1.49
-0.84
-2.77
-3.89
-4.28
-4.40
-4.90
-6.18
-8.11
-10.07
-11.22
-10.96
-9.28
-6.73
-4.21
-2.35
-1.31
-0.67
0.24
1.87
4.19
6.62
8.43
9.13
8.78
7.97
7.48
7.83
8.96
10.32
11.11
10.83
9.46
7.49
5.61
4.33
3.70
3.36
2.83
1.82
0.46
-0.87
-1.70
-1.88
-1.65
-1.55
-2.11
-3.47
-5.35
-7.11
-8.09
-7.96
-6.86
-5.32
-3.89
-2.91
-2.31
-1.71
-0.72
0.84
2.74
4.47
5.54
5.76
5.31
4.72
4.49
4.83
5.55
6.16
6.20
5.54
4.41
3.32
2.75
2.85
3.32
3.67
3.47
2.65
1.49
0.49
0.03
0.12
0.37
0.22
-0.74
-2.51
-4.66
-6.51
-7.47
-7.31
-6.25
-4.82
-3.53
-2.64
-2.04
-1.33
-0.14
1.61
3.62
5.30
6.13
5.94
5.00
3.94
3.37
3.56
4.27
4.93
4.96
4.11
2.64
1.12
0.15
0.02
0.53
1.19
1.50
1.29
0.74
0.30
0.33
0.79
1.30
1.26
0.30
-1.48
-3.51
-5.07
-5.62
-5.14
-4.12
-3.25
-2.96
-3.21
-3.50
-3.15
-1.78
0.48
3.02
5.00
5.88
5.60
4.64
3.74
3.49
4.02
4.99
5.79
5.92
5.31
4.28
3.42
3.22
3.76
4.63
5.20
4.93
3.76
2.15
0.81
0.33
0.80
1.73
2.32
1.96
0.57
-1.38
-3.08
-3.96
-3.98
-3.66
-3.68
-4.42
-5.61
-6.52
-6.35
-4.76
-2.10
0.73
2.78
3.56
3.31
2.77
2.76
3.67
5.25
6.77
7.41
6.84
5.37
3.77
2.91
3.22
4.44
5.82
6.48
5.96
4.42
2.54
1.13
0.64
0.92
1.37
1.28
0.32
-1.32
-3.01
-4.06
-4.19
-3.65
-3.13
-3.29
-4.40
-6.14
-7.74
-8.39
-7.69
-5.85
-3.56
-1.61
-0.46
-0.02
0.17
0.75
1.98
3.66
5.20
5.98
5.72
4.70
3.61
3.13
3.56
4.63
5.64
5.92
5.21
3.83
2.47
1.82
2.11
3.03
3.85
3.89
2.91
1.26
-0.36
-1.26
-1.16
-0.38
0.35
0.31
-0.81
-2.72
-4.69
-5.95
-6.08
-5.27
-4.14
-3.32
-3.09
-3.22
-3.09
-2.15
-0.31
2.04
4.15
5.42
5.67
5.20
4.61
4.44
4.86
5.63
6.25
6.33
5.75
4.77
3.84
3.33
3.31
3.48
3.37
2.64
1.34
-0.09
-1.07
-1.23
-0.66
0.09
0.32
-0.41
-2.06
-4.11
-5.91
-6.94
-7.12
-6.75
-6.27
-5.99
-5.91
-5.73
-5.00
-3.44
-1.13
1.45
3.61
4.87
5.12
4.74
4.35
4.46
5.17
6.11
6.72
6.62
5.85
4.84
4.18
4.20
4.79
5.46
5.60
4.88
3.43
1.81
0.65
0.38
0.90
1.65
1.93
1.23
-0.40
-2.47
-4.22
-5.13
-5.16
-4.72
-4.45
-4.72
-5.50
-6.29
-6.52
-5.82
-4.32
-2.55
-1.14
-0.46
-0.35
-0.32
0.21
1.50
3.31
4.98
5.85
5.65
4.65
3.52
2.98
3.35
4.37
5.42
5.79
5.19
3.83
2.26
1.10
0.62
0.63
0.64
0.18
-0.90
-2.29
-3.43
-3.75
-3.11
-1.83
-0.64
-0.24
-1.01
-2.72
-4.75
-6.30
-6.90
-6.55
-5.71
-4.94
-4.58
-4.54
-4.37
-3.58
-1.92
0.36
2.70
4.42
5.14
4.93
4.26
3.76
3.86
4.54
5.34
5.67
5.17
3.97
2.63
1.82
1.92
2.76
3.69
3.99
3.29
1.76
0.08
-1.06
-1.26
-0.73
-0.05
0.10
-0.60
-1.95
-3.39
-4.24
-4.23
-3.56
-2.85
-2.70
-3.33
-4.44
-5.37
-5.50
-4.58
-2.93
-1.17
0.15
0.85
1.20
1.70
2.73
4.27
5.88
6.90
6.89
5.80
4.07
2.46
1.65
1.98
3.17
4.56
5.35
5.06
3.75
1.95
0.42
-0.33
-0.30
0.02
0.01
-0.69
-1.95
-3.24
-3.91
-3.72
-2.91
-2.18
-2.14
-3.03
-4.50
-5.81
-6.22
-5.44
-3.79
-1.98
-0.71
-0.30
-0.52
-0.75
-0.41
0.71
2.28
3.64
4.29
4.13
3.60
3.37
3.91
5.16
6.54
7.27
6.93
5.62
3.96
2.75
2.43
2.91
3.59
3.76
3.05
1.62
0.07
-0.91
-0.93
-0.19
0.62
0.72
-0.34
-2.40
-4.79
-6.66
-7.41
-7.05
-6.12
-5.39
-5.35
-5.94
-6.61
-6.60
-5.44
-3.25
-0.74
1.24
2.16
2.09
1.64
1.55
2.26
3.58
4.87
5.41
4.85
3.46
1.93
1.02
1.11
2.02
3.10
3.62
3.22
2.03
0.63
-0.28
-0.34
0.33
1.14
1.38
0.64
-1.00
-2.98
-4.58
-5.30
-5.14
-4.56
-4.19
-4.44
-5.26
-6.20
-6.64
-6.18
-4.88
-3.19
-1.76
-0.98
-0.84
-0.90
-0.58
0.50
2.23
4.09
5.39
5.68
5.01
3.91
3.10
3.08
3.82
4.78
5.23
4.69
3.28
1.63
0.55
0.50
1.36
2.40
2.82
2.17
0.67
-0.91
-1.74
-1.41
-0.23
0.94
1.18
0.07
-2.09
-4.42
-5.98
-6.25
-5.39
-4.11
-3.14
-2.82
-2.96
-2.94
-2.18
-0.51
1.71
3.76
5.00
5.20
4.70
4.14
4.18
5.06
6.50
7.85
8.46
8.04
6.81
5.37
4.34
4.01
4.18
4.33
3.95
2.91
1.51
0.35
-0.06
0.36
1.19
1.70
1.27
-0.24
-2.46
-4.64
-6.10
-6.56
-6.29
-5.92
-6.03
-6.80
-7.94
-8.84
-8.91
-7.92
-6.15
-4.18
-2.55
-1.47
-0.79
-0.11
0.89
2.24
3.61
4.58
4.85
4.46
3.77
3.24
3.17
3.53
3.96
3.96
3.28
2.00
0.52
-0.58
-0.94
-0.57
0.11
0.47
0.05
-1.23
-3.01
-4.66
-5.65
-5.79
-5.41
-5.16
-5.59
-6.87
-8.62
-10.09
-10.60
-9.94
-8.53
-7.20
-6.65
-7.02
-7.78
-8.00
-6.90
-4.34
-0.91
2.34
4.53
5.37
5.23
4.81
4.72
5.06
5.46
5.35
4.41
2.79
1.07
-0.11
-0.38
0.16
0.95
1.34
0.99
0.01
-1.11
-1.74
-1.57
-0.73
0.27
0.80
0.57
-0.26
-1.20
-1.71
-1.52
-0.80
-0.06
0.15
-0.42
-1.61
-2.90
-3.66
-3.48
-2.33
-0.60
1.12
2.32
2.82
2.79
2.67
2.88
3.50
4.27
4.68
4.38
3.37
2.08
1.17
1.11
1.93
3.21
4.23
4.49
3.94
2.98
2.25
2.19
2.77
3.53
3.85
3.34
2.13
0.76
-0.09
-0.05
0.74
1.65
1.97
1.29
-0.27
-2.12
-3.51
-4.00
-3.64
-2.91
-2.42
-2.50
-3.05
-3.54
-3.35
-2.10
0.06
2.52
4.48
5.34
5.04
4.06
3.20
3.06
3.73
4.71
5.24
4.79
3.39
1.64
0.38
0.15
0.89
1.93
2.48
2.06
0.77
-0.77
-1.84
-2.04
-1.57
-1.09
-1.30
-2.58
-4.73
-7.10
-8.95
-9.83
-9.82
-9.44
-9.23
-9.41
-9.74
-9.66
-8.64
-6.61
-4.00
-1.53
0.22
1.13
1.56
2.15
3.34
5.15
7.14
8.58
8.96
8.23
6.84
5.47
4.70
4.63
4.87
4.77
3.90
2.33
0.64
-0.42
-0.36
0.69
2.03
2.77
2.28
0.61
-1.64
-3.61
-4.68
-4.77
-4.36
-4.17
-4.70
-5.96
-7.53
-8.76
-9.17
-8.73
-7.77
-6.83
-6.23
-5.93
-5.57
-4.67
-2.99
-0.70
1.66
3.43
4.19
3.93
3.10
2.33
2.17
2.74
3.69
4.38
4.24
3.13
1.41
-0.20
-1.00
-0.75
0.26
1.30
1.68
1.12
-0.08
-1.27
-1.85
-1.63
-0.95
-0.47
-0.68
-1.66
-2.99
-4.07
-4.47
-4.21
-3.71
-3.49
-3.77
-4.31
-4.53
-3.85
-2.05
0.50
3.03
4.68
5.01
4.20
2.92
2.03
2.08
3.00
4.21
4.92
4.70
3.64
2.32
1.46
1.42
2.01
2.66
2.69
1.87
0.43
-0.99
-1.77
-1.68
-1.02
-0.44
-0.59
-1.74
-3.67
-5.73
-7.26
-7.92
-7.84
-7.56
-7.66
-8.41
-9.59
-10.57
-10.69
-9.63
-7.66
-5.53
-4.03
-3.58
-3.96
-4.43
-4.16
-2.68
-0.21
2.53
4.67
5.79
6.04
6.06
6.52
7.73
9.38
10.78
11.25
10.49
8.81
6.88
5.38
4.61
4.39
4.16
3.43
2.04
0.31
-1.12
-1.70
-1.28
-0.24
0.65
0.71
-0.23
-1.75
-2.95
-2.98
-1.54
0.99
3.67
5.62
6.35
6.11
5.56
5.41
5.96
6.93
7.68
7.65
6.72
5.23
3.89
3.25
3.48
4.21
4.82
4.74
3.79
2.26
0.71
-0.33
-0.71
-0.72
-0.89
-1.73
-3.32
-5.33
-7.12
-8.17
-8.36
-8.04
-7.88
-8.37
-9.62
-11.23
-12.55
-12.99
-12.42
-11.17
-9.80
-8.77
-8.12
-7.49
-6.32
-4.25
-1.38
1.73
4.28
5.70
5.88
5.25
4.55
4.37
4.91
5.83
6.52
6.49
5.69
4.54
3.67
3.56
4.18
5.02
5.37
4.79
3.38
1.71
0.57
0.41
1.13
2.14
2.72
2.43
1.39
0.14
-0.65
-0.58
0.27
1.39
2.21
2.43
2.19
1.94
2.23
3.26
4.79
6.23
6.94
6.64
5.54
4.25
3.48
3.57
4.33
5.10
5.11
4.01
2.02
-0.16
-1.67
-2.06
-1.46
-0.53
-0.04
-0.36
-1.33
-2.35
-2.80
-2.48
-1.70
-1.08
-1.18
-2.13
-3.58
-4.94
-5.72
-5.79
-5.41
-5.04
-5.06
-5.48
-5.98
-6.03
-5.23
-3.50
-1.20
1.00
2.46
2.85
2.30
1.29
0.47
0.22
0.54
1.01
1.12
0.60
-0.41
-1.40
-1.77
-1.26
-0.11
1.06
1.55
1.03
-0.28
-1.75
-2.68
-2.75
-2.14
-1.45
-1.32
-2.09
-3.57
-5.23
-6.47
-6.98
-6.88
-6.64
-6.78
-7.56
-8.85
-10.16
-10.99
-11.11
-10.73
-10.37
-10.55
-11.45
-12.77
-13.86
-14.08
-13.19
-11.51
-9.79
-8.72
-8.60
-9.15
-9.71
-9.60
-8.56
-6.85
-5.05
-3.62
-2.59
-1.52
0.19
2.90
6.42
10.05
12.93
14.52
14.87
14.49
14.05
13.96
14.16
14.20
13.61
12.21
10.35
8.71
8.04
8.78
10.78
13.36
15.57
16.67
16.43
15.20
13.71
12.68
12.38
12.57
12.64
12.12
10.98
9.64
8.77
8.77
9.48
10.26
10.31
9.19
7.03
4.43
2.12
0.55
-0.34
-1.03
-2.08
-3.78
-6.01
-8.31
-10.10
-11.02
-11.11
-10.74
-10.47
-10.68
-11.40
-12.27
-12.75
-12.38
-11.13
-9.38
-7.74
-6.72
-6.40
-6.44
-6.24
-5.34
-3.73
-1.84
-0.37
0.23
-0.04
-0.72
-1.14
-0.83
0.19
1.47
2.35
2.41
1.73
0.83
0.43
1.01
2.47
4.22
5.41
5.46
4.33
2.49
0.70
-0.49
-1.04
-1.37
-2.14
-3.77
-6.19
-8.84
-10.94
-11.88
-11.52
-10.18
-8.44
-6.79
-5.39
-4.00
-2.21
0.25
3.24
6.27
8.63
9.87
9.98
9.40
8.82
8.71
9.21
9.99
10.58
10.66
10.24
9.60
9.15
9.13
9.43
9.71
9.54
8.70
7.30
5.71
4.39
3.54
2.96
2.20
0.72
-1.66
-4.65
-7.53
-9.51
-10.12
-9.44
-8.02
-6.53
-5.37
-4.54
-3.67
-2.39
-0.56
1.51
3.28
4.22
4.15
3.33
2.33
1.78
1.95
2.72
3.57
3.95
3.58
2.63
1.59
1.06
1.34
2.19
3.02
3.16
2.31
0.67
-1.17
-2.59
-3.36
-3.71
-4.23
-5.38
-7.16
-9.06
-10.28
-10.18
-8.69
-6.30
-3.84
-2.02
-1.12
-0.87
-0.65
0.08
1.50
3.32
4.87
5.59
5.26
4.16
2.93
2.17
2.13
2.59
3.06
3.13
2.71
2.16
1.96
2.46
3.53
4.64
5.11
4.51
2.97
1.02
-0.63
-1.48
-1.57
-1.37
-1.57
-2.58
-4.38
-6.42
-7.98
-8.49
-7.84
-6.41
-4.83
-3.64
-2.95
-2.51
-1.81
-0.51
1.36
3.33
4.76
5.17
4.55
3.36
2.30
1.93
2.37
3.26
3.94
3.93
3.14
1.92
0.84
0.36
0.55
1.03
1.22
0.72
-0.49
-2.01
-3.21
-3.63
-3.28
-2.60
-2.32
-2.91
-4.33
-6.02
-7.15
-7.10
-5.79
-3.73
-1.71
-0.34
0.22
0.33
0.57
1.35
2.66
4.05
4.92
4.88
3.97
2.64
1.56
1.20
1.63
2.43
2.96
2.71
1.61
0.03
-1.35
-2.00
-1.80
-1.13
-0.63
-0.79
-1.72
-3.05
-4.19
-4.73
-4.70
-4.57
-5.01
-6.37
-8.50
-10.71
-12.10
-12.04
-10.55
-8.24
-6.05
-4.70
-4.37
-4.59
-4.66
-4.05
-2.78
-1.36
-0.49
-0.51
-1.22
-1.92
-1.80
-0.46
1.88
4.48
6.47
7.35
7.16
6.42
5.74
5.44
5.38
5.10
4.15
2.40
0.18
-1.92
-3.35
-3.94
-3.95
-3.99
-4.60
-5.98
-7.90
-9.72
-10.73
-10.48
-8.97
-6.65
-4.14
-1.90
-0.06
1.63
3.55
5.82
8.19
10.08
10.93
10.55
9.27
7.79
6.75
6.38
6.39
6.13
5.07
3.12
0.68
-1.54
-2.99
-3.56
-3.65
-3.88
-4.66
-5.94
-7.28
-8.04
-7.84
-6.75
-5.27
-4.09
-3.62
-3.88
-4.46
-4.72
-4.17
-2.73
-0.73
1.26
2.77
3.71
4.39
5.38
7.12
9.64
12.43
14.66
15.67
15.23
13.73
11.92
10.50
9.74
9.35
8.74
7.46
5.54
3.47
1.98
1.53
2.05
2.93
3.40
3.00
1.81
0.37
-0.64
-0.84
-0.39
0.13
0.04
-1.01
-2.91
-5.12
-6.97
-8.02
-8.25
-8.04
-7.93
-8.21
-8.82
-9.30
-9.10
-7.89
-5.83
-3.46
-1.53
-0.46
-0.26
-0.44
-0.42
0.18
1.24
2.28
2.70
2.24
1.11
-0.09
-0.70
-0.41
0.61
1.75
2.38
2.20
1.36
0.37
-0.22
-0.16
0.31
0.59
0.02
-1.70
-4.32
-7.13
-9.26
-10.09
-9.52
-8.00
-6.17
-4.47
-2.94
-1.19
1.25
4.54
8.30
11.76
14.03
14.62
13.65
11.70
9.58
7.84
6.61
5.55
4.21
2.32
0.01
-2.25
-3.90
-4.58
-4.39
-3.81
-3.49
-3.88
-4.99
-6.45
-7.64
-8.11
-7.77
-6.90
-5.97
-5.27
-4.87
-4.54
-4.02
-3.25
-2.45
-1.98
-2.06
-2.58
-3.08
-2.96
-1.83
0.32
3.01
5.56
7.38
8.25
8.42
8.42
8.77
9.61
10.67
11.32
11.07
9.81
7.95
6.24
5.37
5.54
6.37
7.13
7.14
6.19
4.57
2.93
1.83
1.41
1.34
1.00
-0.05
-1.84
-3.91
-5.56
-6.32
-6.18
-5.65
-5.50
-6.28
-7.99
-10.09
-11.72
-12.18
-11.26
-9.33
-7.14
-5.33
-4.14
-3.37
-2.52
-1.19
0.64
2.51
3.76
3.95
3.13
1.85
0.91
0.91
1.88
3.24
4.14
3.96
2.62
0.68
-0.96
-1.57
-1.02
0.18
1.19
1.30
0.34
-1.26
-2.76
-3.56
-3.58
-3.26
-3.26
-4.01
-5.40
-6.81
-7.50
-6.96
-5.29
-3.10
-1.22
-0.19
0.04
-0.02
0.37
1.66
3.70
5.88
7.36
7.67
6.86
5.51
4.33
3.80
3.89
4.12
3.89
2.88
1.23
-0.56
-1.88
-2.39
-2.20
-1.81
-1.83
-2.62
-4.06
-5.68
-6.87
-7.23
-6.83
-6.14
-5.74
-6.00
-6.89
-7.97
-8.64
-8.49
-7.50
-6.02
-4.58
-3.51
-2.78
-2.05
-0.85
1.04
3.41
5.64
7.01
7.06
5.91
4.16
2.63
1.93
2.15
2.86
3.43
3.45
2.97
2.43
2.38
3.05
4.15
4.99
4.93
3.73
1.72
-0.36
-1.75
-2.12
-1.67
-0.98
-0.64
-0.91
-1.63
-2.35
-2.66
-2.40
-1.81
-1.33
-1.34
-1.89
-2.62
-2.95
-2.37
-0.79
1.37
3.35
4.44
4.31
3.20
1.74
0.64
0.31
0.65
1.20
1.41
1.04
0.25
-0.53
-0.86
-0.62
-0.10
0.17
-0.26
-1.43
-2.94
-4.13
-4.41
-3.62
-2.11
-0.54
0.47
0.69
0.30
-0.24
-0.50
-0.37
-0.11
-0.16
-0.77
-1.82
-2.81
-3.11
-2.32
-0.58
1.52
3.18
3.85
3.54
2.75
2.23
2.52
3.63
5.06
6.11
6.33
5.76
4.91
4.45
4.77
5.74
6.78
7.15
6.42
4.70
2.55
0.74
-0.22
-0.30
0.06
0.23
-0.16
-1.09
-2.08
-2.59
-2.30
-1.44
-0.61
-0.54
-1.60
-3.56
-5.71
-7.19
-7.51
-6.81
-5.79
-5.31
-5.89
-7.47
-9.42
-10.91
-11.29
-10.46
-8.79
-6.98
-5.62
-4.91
-4.62
-4.16
-2.98
-0.83
2.08
5.14
7.72
9.42
10.25
10.58
10.78
10.98
10.99
10.37
8.89
6.68
4.24
2.28
1.21
1.04
1.26
1.24
0.57
-0.62
-1.75
-2.04
-0.99
1.35
4.34
7.05
8.79
9.34
9.08
8.71
8.77
9.36
10.08
10.32
9.67
8.21
6.50
5.22
4.84
5.23
5.83
5.95
5.20
3.75
2.19
1.17
0.98
1.39
1.70
1.22
-0.39
-2.89
-5.67
-8.10
-9.89
-11.25
-12.74
-14.85
-17.70
-20.86
-23.55
-24.99
-24.86
-23.38
-21.24
-19.20
-17.73
-16.78
-15.97
-14.75
-12.88
-10.50
-8.07
-6.10
-4.81
-4.09
-3.51
-2.63
-1.29
0.34
1.83
2.80
3.13
3.06
3.03
3.44
4.34
5.45
6.31
6.61
6.37
5.99
6.01
6.80
8.26
9.84
10.74
10.40
8.74
6.28
3.89
2.35
2.03
2.74
3.96
5.13
6.03
6.80
7.81
9.36
11.36
13.34
14.65
14.83
13.89
12.37
11.09
10.75
11.56
13.08
14.44
14.78
13.59
10.95
7.35
3.44
-0.35
-3.89
-7.29
-10.66
-13.91
-16.74
-18.81
-19.94
-20.30
-20.36
-20.64
-21.39
-22.43
-23.20
-23.03
-21.48
-18.57
-14.80
-10.84
-7.21
-4.07
-1.21
1.65
4.60
7.31
9.25
9.91
9.20
7.53
5.71
4.54
4.46
5.28
6.39
6.98
6.54
5.04
2.93
0.91
-0.48
-1.05
-1.02
-0.80
-0.69
-0.68
-0.45
0.41
2.08
4.31
6.45
7.71
7.64
6.32
4.39
2.76
2.12
2.61
3.79
4.89
5.30
4.88
4.03
3.40
3.50
4.34
5.42
6.05
5.75
4.56
3.04
1.92
1.67
2.24
3.02
3.31
2.67
1.23
-0.40
-1.49
-1.63
-1.00
-0.27
-0.25
-1.37
-3.47
-5.84
-7.67
-8.50
-8.51
-8.42
-9.04
-10.72
-13.14
-15.43
-16.62
-16.19
-14.30
-11.63
-8.97
-6.68
-4.64
-2.39
0.46
3.80
7.08
9.50
10.46
9.95
8.54
7.10
6.41
6.74
7.75
8.73
8.95
8.15
6.57
4.87
3.71
3.35
3.57
3.79
3.50
2.57
1.30
0.23
-0.25
-0.21
-0.19
-0.86
-2.62
-5.28
-8.12
-10.16
-10.63
-9.36
-6.76
-3.65
-0.78
1.44
3.05
4.35
5.65
6.93
7.88
8.06
7.20
5.46
3.35
1.56
0.57
0.44
0.75
0.88
0.41
-0.61
-1.71
-2.22
-1.70
-0.21
1.66
3.11
3.57
2.96
1.68
0.37
-0.50
-0.88
-1.14
-1.77
-3.08
-4.92
-6.79
-8.02
-8.16
-7.21
-5.60
-3.92
-2.59
-1.65
-0.78
0.48
2.37
4.72
7.01
8.55
8.93
8.15
6.65
5.09
3.94
3.26
2.73
1.79
0.10
-2.29
-4.86
-6.89
-7.84
-7.66
-6.82
-6.04
-5.82
-6.19
-6.65
-6.53
-5.42
-3.46
-1.29
0.29
0.83
0.43
-0.31
-0.65
-0.18
1.03
2.48
3.62
4.17
4.26
4.32
4.78
5.77
7.03
7.97
8.00
6.83
4.70
2.21
0.13
-1.04
-1.31
-1.13
-1.17
-1.83
-3.02
-4.22
-4.77
-4.29
-2.99
-1.52
-0.64
-0.73
-1.62
-2.74
-3.39
-3.28
-2.64
-2.09
-2.27
-3.44
-5.31
-7.20
-8.41
-8.64
-8.12
-7.48
-7.29
-7.69
-8.27
-8.29
-7.11
-4.63
-1.37
1.72
3.82
4.60
4.39
3.88
3.75
4.25
5.12
5.76
5.72
4.95
3.88
3.18
3.36
4.44
5.92
7.00
7.05
5.94
4.04
2.04
0.52
-0.34
-0.83
-1.44
-2.46
-3.76
-4.81
-4.95
-3.87
-1.85
0.30
1.58
1.42
-0.08
-2.14
-3.71
-3.98
-2.79
-0.60
1.78
3.73
5.01
5.86
6.69
7.79
9.07
10.13
10.46
9.81
8.31
6.51
5.03
4.33
4.40
4.81
4.95
4.45
3.35
2.09
1.23
1.10
1.50
1.90
1.69
0.62
-1.04
-2.63
-3.47
-3.28
-2.33
-1.33
-1.07
-1.94
-3.75
-5.84
-7.38
-7.79
-7.03
-5.54
-3.95
-2.75
-2.06
-1.61
-0.98
0.08
1.48
2.79
3.43
3.10
1.86
0.22
-1.16
-1.76
-1.50
-0.71
0.13
0.65
0.92
1.36
2.51
4.64
7.51
10.40
12.50
13.26
12.76
11.59
10.57
10.25
10.66
11.28
11.36
10.37
8.32
5.74
3.42
1.94
1.37
1.28
1.07
0.32
-0.86
-1.97
-2.41
-1.84
-0.50
0.99
1.97
2.14
1.67
1.14
1.06
1.58
2.32
2.55
1.64
-0.60
-3.78
-7.09
-9.73
-11.33
-12.09
-12.63
-13.57
-15.10
-16.86
-18.16
-18.38
-17.42
-15.80
-14.42
-14.03
-14.80
-16.23
-17.42
-17.58
-16.49
-14.57
-12.63
-11.28
-10.67
-10.36
-9.67
-8.11
-5.73
-3.15
-1.18
-0.38
-0.78
-1.86
-2.89
-3.37
-3.25
-2.93
-2.95
-3.59
-4.65
-5.58
-5.71
-4.71
-2.76
-0.46
1.42
2.38
2.41
2.00
1.77
2.18
3.22
4.47
5.32
5.40
4.71
3.67
2.84
2.61
2.94
3.48
3.69
3.30
2.41
1.46
1.06
1.59
3.03
4.93
6.64
7.63
7.71
7.11
6.36
5.93
6.01
6.43
6.80
6.74
6.18
5.42
4.93
5.12
5.95
6.94
7.37
6.67
4.81
2.33
0.11
-1.09
-1.11
-0.42
0.17
-0.04
-1.21
-2.92
-4.47
-5.29
-5.27
-4.75
-4.25
-4.08
-4.13
-3.96
-3.05
-1.20
1.35
3.97
5.94
6.82
6.63
5.78
4.89
4.41
4.44
4.72
4.84
4.55
3.87
3.14
2.80
3.08
3.85
4.61
4.85
4.27
2.99
1.49
0.35
-0.11
-0.01
0.19
-0.04
-0.97
-2.46
-4.02
-5.12
-5.54
-5.41
-5.11
-4.96
-4.95
-4.72
-3.78
-1.83
0.93
3.84
6.09
7.14
7.03
6.29
5.68
5.73
6.41
7.26
7.61
7.06
5.68
3.97
2.63
2.15
2.58
3.47
4.15
4.09
3.16
1.71
0.35
-0.39
-0.38
0.04
0.28
-0.17
-1.38
-2.99
-4.41
-5.20
-5.30
-5.08
-5.10
-5.69
-6.77
-7.90
-8.44
-7.99
-6.52
-4.45
-2.38
-0.78
0.23
0.90
1.65
2.83
4.44
6.13
7.34
7.67
7.02
5.70
4.27
3.23
2.75
2.64
2.45
1.75
0.42
-1.27
-2.83
-3.81
-4.09
-3.95
-3.94
-4.48
-5.64
-7.05
-8.13
-8.48
-8.10
-7.50
-7.38
-8.20
-9.91
-11.99
-13.69
-14.49
-14.33
-13.57
-12.72
-12.03
-11.34
-10.20
-8.15
-5.11
-1.45
2.13
4.98
6.81
7.85
8.64
9.69
11.13
12.66
13.68
13.71
12.69
11.09
9.63
8.96
9.23
10.07
10.76
10.71
9.75
8.24
6.84
6.04
5.95
6.14
5.98
5.00
3.19
0.98
-0.96
-2.16
-2.61
-2.76
-3.25
-4.52
-6.56
-8.85
-10.63
-11.27
-10.64
-9.12
-7.42
-6.16
-5.57
-5.36
-4.98
-3.98
-2.31
-0.35
1.29
2.22
2.47
2.44
2.66
3.44
4.61
5.69
6.09
5.52
4.19
2.70
1.79
1.96
3.19
4.98
6.54
7.21
6.70
5.25
3.45
1.84
0.65
-0.33
-1.53
-3.30
-5.57
-7.89
-9.61
-10.33
-10.09
-9.37
-8.78
-8.68
-8.92
-8.96
-8.15
-6.17
-3.27
-0.14
2.43
3.93
4.42
4.39
4.50
5.18
6.39
7.68
8.48
8.46
7.68
6.60
5.76
5.50
5.74
6.08
5.94
4.97
3.23
1.20
-0.42
-1.10
-0.80
0.07
0.79
0.82
0.06
-1.13
-2.14
-2.59
-2.52
-2.39
-2.73
-3.74
-5.11
-6.19
-6.34
-5.30
-3.40
-1.34
0.21
0.94
1.06
1.19
1.90
3.43
5.46
7.27
8.14
7.75
6.39
4.76
3.65
3.45
3.95
4.52
4.51
3.66
2.30
1.13
0.78
1.38
2.48
3.26
3.05
1.73
-0.22
-2.02
-3.00
-3.01
-2.49
-2.16
-2.59
-3.83
-5.44
-6.74
-7.16
-6.55
-5.24
-3.82
-2.78
-2.26
-2.00
-1.50
-0.37
1.43
3.47
5.02
5.49
4.73
3.14
1.53
0.66
0.88
1.91
3.01
3.48
2.97
1.74
0.42
-0.33
-0.22
0.50
1.25
1.52
1.15
0.41
-0.19
-0.27
0.18
0.75
0.89
0.26
-1.02
-2.45
-3.43
-3.56
-2.95
-2.09
-1.63
-1.93
-2.89
-3.99
-4.54
-4.11
-2.73
-0.88
0.73
1.61
1.66
1.23
0.91
1.15
1.98
3.04
3.77
3.82
3.25
2.53
2.25
2.75
3.89
5.07
5.57
4.95
3.29
1.16
-0.71
-1.81
-2.13
-2.11
-2.30
-3.07
-4.32
-5.61
-6.36
-6.25
-5.46
-4.57
-4.29
-5.01
-6.54
-8.12
-8.86
-8.13
-6.02
-3.23
-0.78
0.62
0.86
0.43
0.09
0.35
1.19
2.13
2.56
2.17
1.15
0.08
-0.39
0.04
1.15
2.36
3.02
2.79
1.82
0.64
-0.14
-0.24
0.20
0.61
0.43
-0.55
-2.10
-3.58
-4.35
-4.13
-3.18
-2.15
-1.71
-2.16
-3.31
-4.59
-5.38
-5.37
-4.75
-3.96
-3.47
-3.37
-3.41
-3.09
-2.01
-0.11
2.24
4.44
5.96
6.63
6.63
6.42
6.39
6.64
7.00
7.06
6.57
5.59
4.44
3.56
3.24
3.41
3.72
3.67
2.97
1.68
0.21
-0.93
-1.37
-1.11
-0.53
-0.18
-0.48
-1.49
-2.94
-4.30
-5.15
-5.41
-5.36
-5.47
-6.05
-7.06
-8.10
-8.60
-8.15
-6.83
-5.09
-3.59
-2.75
-2.53
-2.48
-1.95
-0.53
1.68
4.08
5.81
6.31
5.56
4.11
2.81
2.35
2.86
3.92
4.76
4.85
4.13
3.07
2.39
2.59
3.64
5.01
5.93
5.81
4.61
2.76
1.03
-0.00
-0.18
0.15
0.37
-0.02
-1.07
-2.42
-3.42
-3.59
-2.88
-1.68
-0.63
-0.15
-0.27
-0.62
-0.65
-0.02
1.17
2.44
3.23
3.22
2.51
1.56
0.91
0.86
1.32
1.85
1.97
1.51
0.66
-0.07
-0.17
0.54
1.76
2.84
3.10
2.24
0.47
-1.58
-3.18
-3.90
-3.81
-3.38
-3.24
-3.72
-4.77
-5.92
-6.62
-6.58
-5.94
-5.17
-4.80
-5.05
-5.66
-6.02
-5.51
-3.95
-1.66
0.59
2.07
2.44
1.97
1.32
1.14
1.73
2.82
3.78
4.01
3.32
1.98
0.63
-0.11
0.01
0.74
1.52
1.73
1.14
-0.05
-1.30
-2.04
-2.01
-1.41
-0.73
-0.48
-0.91
-1.87
-2.95
-3.75
-4.15
-4.33
-4.64
-5.33
-6.37
-7.37
-7.77
-7.16
-5.49
-3.22
-1.06
0.32
0.66
0.19
-0.48
-0.76
-0.40
0.37
1.06
1.21
0.71
-0.17
-0.95
-1.22
-0.97
-0.50
-0.26
-0.50
-1.13
-1.76
-1.93
-1.39
-0.31
0.80
1.32
0.91
-0.36
-1.96
-3.22
-3.68
-3.35
-2.70
-2.38
-2.83
-4.03
-5.50
-6.56
-6.73
-5.99
-4.74
-3.61
-3.00
-2.87
-2.83
-2.35
-1.12
0.71
2.61
3.96
4.37
3.96
3.21
2.76
3.00
3.91
5.07
5.90
6.06
5.61
4.97
4.71
5.17
6.26
7.50
8.24
8.11
7.14
5.76
4.55
3.87
3.66
3.50
2.86
1.48
-0.46
-2.44
-3.90
-4.53
-4.50
-4.25
-4.28
-4.79
-5.55
-6.05
-5.75
-4.43
-2.35
-0.10
1.67
2.60
2.80
2.75
2.99
3.81
5.02
6.12
6.52
5.97
4.73
3.43
2.72
2.92
3.75
4.58
4.73
3.92
2.42
0.90
0.03
0.08
0.74
1.36
1.28
0.27
-1.37
-2.97
-3.88
-3.88
-3.29
-2.79
-2.99
-4.11
-5.80
-7.34
-8.04
-7.60
-6.26
-4.59
-3.19
-2.29
-1.72
-1.00
0.24
1.99
3.80
4.98
5.06
4.11
2.71
1.71
1.73
2.80
4.33
5.50
5.69
4.88
3.59
2.57
2.33
2.86
3.63
3.93
3.32
1.86
0.07
-1.39
-2.04
-1.90
-1.44
-1.27
-1.81
-3.04
-4.57
-5.80
-6.34
-6.19
-5.72
-5.46
-5.67
-6.24
-6.68
-6.41
-5.06
-2.77
-0.11
2.15
3.45
3.69
3.24
2.72
2.61
2.95
3.37
3.34
2.58
1.25
-0.06
-0.69
-0.28
0.97
2.42
3.30
3.18
2.14
0.71
-0.42
-0.87
-0.72
-0.42
-0.58
-1.46
-2.88
-4.29
-5.05
-4.84
-3.88
-2.83
-2.47
-3.20
-4.91
-7.00
-8.76
-9.67
-9.65
-9.03
-8.23
-7.52
-6.82
-5.85
-4.35
-2.29
-0.00
1.96
3.09
3.25
2.74
2.12
2.06
2.89
4.47
6.24
7.48
7.72
6.94
5.58
4.34
3.74
3.90
4.48
4.83
4.45
3.24
1.54
-0.04
-0.96
-1.06
-0.61
-0.16
-0.14
-0.69
-1.55
-2.34
-2.75
-2.79
-2.73
-2.89
-3.35
-3.89
-4.01
-3.23
-1.37
1.32
4.24
6.69
8.26
8.93
9.10
9.31
9.86
10.67
11.28
11.21
10.23
8.57
6.82
5.58
5.15
5.36
5.68
5.60
4.92
3.87
2.96
2.65
3.03
3.76
4.20
3.80
2.41
0.35
-1.72
-3.18
-3.75
-3.62
-3.38
-3.57
-4.41
-5.69
-6.91
-7.54
-7.35
-6.52
-5.48
-4.61
-4.00
-3.40
-2.41
-0.74
1.52
3.91
5.80
6.72
6.60
5.80
4.88
4.30
4.24
4.48
4.64
4.43
3.79
2.98
2.36
2.19
2.46
2.88
3.06
2.75
1.95
0.87
-0.13
-0.80
-1.09
-1.18
-1.39
-1.97
-2.97
-4.24
-5.48
-6.38
-6.89
-7.17
-7.56
-8.29
-9.32
-10.27
-10.59
-9.83
-7.95
-5.33
-2.67
-0.59
0.68
1.34
1.93
2.93
4.46
6.15
7.36
7.59
6.72
5.13
3.52
2.46
2.09
2.09
1.88
1.13
-0.09
-1.30
-1.94
-1.70
-0.79
0.18
0.56
0.00
-1.33
-2.92
-4.12
-4.56
-4.30
-3.76
-3.51
-3.93
-5.07
-6.59
-7.99
-8.85
-9.08
-8.89
-8.61
-8.44
-8.28
-7.75
-6.45
-4.26
-1.48
1.27
3.28
4.25
4.32
4.01
3.91
4.33
5.14
5.92
6.19
5.79
4.92
4.05
3.63
3.86
4.53
5.20
5.40
4.91
3.88
2.72
1.84
1.46
1.42
1.36
0.86
-0.21
-1.66
-3.04
-3.90
-4.07
-3.74
-3.42
-3.59
-4.44
-5.72
-6.88
-7.33
-6.77
-5.36
-3.60
-2.06
-1.02
-0.27
0.71
2.39
4.92
7.86
10.45
12.00
12.20
11.35
10.11
9.13
8.75
8.80
8.79
8.29
7.18
5.76
4.54
3.98
4.21
4.90
5.45
5.29
4.22
2.44
0.54
-0.88
-1.51
-1.50
-1.35
-1.60
-2.55
-4.09
-5.76
-7.04
-7.64
-7.65
-7.44
-7.40
-7.63
-7.89
-7.67
-6.55
-4.46
-1.78
0.82
2.73
3.69
3.94
4.01
4.43
5.39
6.60
7.49
7.56
6.67
5.18
3.70
2.82
2.76
3.23
3.67
3.61
2.94
1.94
1.10
0.78
0.91
1.09
0.80
-0.26
-1.91
-3.66
-4.90
-5.29
-4.92
-4.28
-4.04
-4.59
-5.94
-7.67
-9.12
-9.71
-9.24
-7.91
-6.20
-4.59
-3.28
-2.16
-0.93
0.66
2.60
4.59
6.15
6.94
6.91
6.32
5.62
5.20
5.16
5.32
5.29
4.76
3.68
2.34
1.20
0.66
0.81
1.35
1.78
1.66
0.89
-0.30
-1.45
-2.23
-2.59
-2.87
-3.50
-4.77
-6.57
-8.47
-9.93
-10.61
-10.57
-10.25
-10.17
-10.61
-11.42
-12.06
-11.85
-10.40
-7.79
-4.59
-1.56
0.70
2.02
2.66
3.14
3.82
4.72
5.54
5.82
5.35
4.29
3.13
2.43
2.49
3.13
3.81
3.90
3.06
1.42
-0.45
-1.84
-2.25
-1.66
-0.55
0.36
0.49
-0.37
-1.92
-3.60
-4.82
-5.34
-5.35
-5.30
-5.59
-6.37
-7.36
-8.08
-8.09
-7.28
-5.89
-4.35
-3.01
-1.89
-0.72
0.89
3.14
5.80
8.29
9.95
10.38
9.70
8.44
7.33
6.84
7.02
7.47
7.64
7.23
6.33
5.37
4.84
4.92
5.37
5.65
5.25
3.97
2.12
0.28
-0.99
-1.46
-1.32
-1.05
-1.11
-1.65
-2.49
-3.21
-3.50
-3.32
-2.99
-3.00
-3.67
-4.92
-6.24
-6.92
-6.40
-4.61
-1.97
0.76
2.91
4.22
4.90
5.45
6.36
7.69
9.11
10.02
9.94
8.85
7.16
5.60
4.72
4.64
4.94
4.97
4.23
2.71
0.90
-0.45
-0.78
-0.02
1.34
2.50
2.80
2.02
0.48
-1.20
-2.40
-2.88
-2.89
-2.96
-3.59
-4.94
-6.69
-8.22
-8.94
-8.60
-7.44
-6.02
-4.89
-4.26
-3.90
-3.25
-1.86
0.37
2.99
5.23
6.46
6.46
5.62
4.63
4.17
4.45
5.14
5.64
5.45
4.48
3.11
1.93
1.43
1.64
2.19
2.47
2.01
0.70
-1.18
-3.15
-4.83
-6.08
-7.07
-8.05
-9.10
-10.06
-10.54
-10.14
-8.74
-6.66
-4.53
-3.07
-2.67
-3.21
-4.11
-4.67
-4.39
-3.31
-1.88
-0.76
-0.28
-0.31
-0.20
0.80
3.16
6.68
10.56
13.76
15.49
15.57
14.43
12.90
11.68
11.05
10.80
10.46
9.68
8.53
7.42
6.93
7.41
8.79
10.56
12.08
12.88
12.91
12.57
12.43
12.91
13.99
15.27
16.18
16.38
16.03
15.69
16.04
17.40
19.53
21.63
22.71
22.12
19.80
16.28
12.32
8.52
5.07
1.75
-1.75
-5.58
-9.60
-13.49
-16.97
-20.10
-23.28
-27.11
-32.04
-38.07
-44.60
-50.61
-55.03
-57.25
-57.37
-56.17
-54.73
-53.81
-53.43
-52.87
-50.96
-46.81
-40.24
-31.95
-23.21
-15.21
-8.55
-3.06
2.03
7.69
14.72
23.66
34.80
48.21
63.51
79.71
95.01
107.16
114.17
115.11
110.63
102.76
94.14
86.89
81.97
78.94
76.46
73.01
67.45
59.28
48.61
36.05
22.52
9.19
-2.74
-12.22
-18.55
-21.45
-21.14
-18.31
-14.05
-9.71
-6.64
-5.76
-7.22
-10.38
-14.07
-17.21
-19.33
-20.76
-22.34
-24.85
-28.45
-32.60
-36.25
-38.31
-38.03
-35.21
-30.17
-23.68
-16.76
-10.52
-5.95
-3.64
-3.75
-5.96
-9.63
-14.03
-18.43
-22.34
-25.47
-27.86
-29.88
-32.10
-35.13
-39.28
-44.31
-49.43
-53.56
-55.78
-55.70
-53.59
-50.14
-46.17
-42.29
-38.79
-35.78
-33.28
-31.24
-29.42
-27.33
-24.23
-19.49
-12.91
-4.98
3.27
10.58
15.95
18.91
19.52
18.31
15.94
13.10
10.36
8.06
6.26
4.70
3.01
0.90
-1.58
-4.04
-5.95
-6.91
-6.91
-6.34
-5.75
-5.60
-6.10
-7.16
-8.53
-9.91
-11.06
-11.90
-12.43
-12.69
-12.70
-12.42
-11.74
-10.59
-8.95
-6.96
-4.93
-3.15
-1.77
-0.73
0.24
1.41
2.87
4.44
5.71
6.29
6.05
5.21
4.30
3.88
4.30
5.49
7.00
8.23
8.75
8.48
7.71
6.92
6.46
6.37
6.42
6.30
5.80
4.99
4.17
3.61
3.44
3.55
3.67
3.57
3.18
2.56
1.90
1.38
1.06
0.92
0.86
0.79
0.66
0.48
0.31
0.20
0.15
0.09
-0.09
-0.44
-0.91
-1.30
-1.32
-0.75
0.48
2.21
4.10
5.76
6.87
7.37
7.41
7.29
7.32
7.59
8.02
8.34
8.32
7.90
7.28
6.81
6.78
7.26
8.10
8.97
9.57
9.78
9.68
9.41
9.04
8.48
7.55
6.15
4.40
2.65
1.33
0.74
0.88
1.35
1.61
1.18
-0.10
-1.99
-3.95
-5.41
-5.93
-5.40
-3.89
-1.63
1.18
4.40
7.88
11.40
14.64
17.21
18.81
19.35
19.01
18.10
16.90
15.50
13.86
11.94
9.85
7.94
6.66
6.27
6.71
7.60
8.36
8.56
7.98
6.72
4.93
2.71
0.02
-3.18
-6.76
-10.25
-12.91
-13.99
-12.98
-9.95
-5.42
-0.25
4.70
8.81
11.77
13.61
14.54
15.06
16.02
18.53
23.66
31.92
42.87
55.05
66.51
75.52
81.18
83.45
82.69
79.06
72.21
61.64
47.26
30.03
11.88
-4.87
-18.43
-28.17
-34.67
-39.15
-42.70
-45.76
-48.23
-49.85
-50.79
-51.67
-53.30
-56.14
-59.89
-63.62
-66.13
-66.64
-65.11
-62.13
-58.48
-54.67
-50.73
-46.35
-41.24
-35.42
-29.33
-23.67
-19.04
-15.74
-13.64
-12.29
-11.16
-9.87
-8.37
-6.91
-5.84
-5.44
-5.84
-6.96
-8.66
-10.74
-13.07
-15.52
-17.88
-19.87
-21.18
-21.60
-21.10
-19.88
-18.34
-16.89
-15.87
-15.43
-15.48
-15.80
-16.08
-16.08
-15.70
-15.01
-14.21
-13.52
-13.12
-13.05
-13.23
-13.47
-13.58
-13.36
-12.72
-11.61
-10.08
-8.24
-6.28
-4.37
-2.69
-1.36
-0.37
0.37
1.05
1.79
2.69
3.72
4.75
5.62
6.20
6.45
6.41
6.24
6.11
6.14
6.32
6.51
6.54
6.29
5.78
5.19
4.73
4.53
4.55
4.61
4.50
4.06
3.30
2.37
1.44
0.65
0.03
-0.42
-0.69
-0.75
-0.52
0.11
1.16
2.57
4.20
5.87
7.45
8.85
10.07
11.14
12.08
12.89
13.53
14.00
14.32
14.58
14.88
15.32
15.97
16.76
17.54
18.15
18.49
18.62
18.76
19.22
20.18
21.64
23.34
24.86
25.81
25.98
25.36
24.17
22.81
21.67
21.04
20.97
21.24
21.48
21.42
21.05
20.63
20.41
20.47
20.59
20.36
19.57
18.41
17.41
17.14
17.75
18.84
19.60
19.32
17.69
15.01
11.90
8.96
6.57
4.75
3.31
2.04
0.75
-0.60
-2.04
-3.54
-5.07
-6.61
-8.13
-9.66
-11.22
-12.85
-14.46
-15.93
-17.12
-17.96
-18.45
-18.66
-18.71
-18.65
-18.56
-18.53
-18.67
-19.06
-19.67
-20.26
-20.44
-19.84
-18.26
-15.86
-13.11
-10.55
-8.63
-7.45
-6.81
-6.34
-5.70
-4.82
-3.85
-3.17
-3.07
-3.65
-4.71
-5.89
-6.85
-7.40
-7.60
-7.65
-7.67
-7.69
-7.64
-7.44
-7.09
-6.74
-6.57
-6.71
-7.13
-7.68
-8.18
-8.49
-8.59
-8.57
-8.60
-8.81
-9.29
-10.00
-10.80
-11.51
-11.97
-12.08
-11.88
-11.47
-10.91
-10.17
-9.12
-7.64
-5.69
-3.34
-0.85
1.52
3.54
5.12
6.31
7.21
8.00
8.76
9.54
10.24
10.72
10.82
10.48
9.80
8.99
8.37
8.19
8.48
9.04
9.50
9.53
8.92
7.77
6.39
5.17
4.36
3.97
3.78
3.40
2.47
0.80
-1.57
-4.35
-7.16
-9.54
-11.10
-11.66
-11.31
-10.42
-9.59
-9.28
-9.64
-10.16
-9.93
-7.98
-3.87
1.79
7.46
11.28
11.93
9.51
5.63
2.80
3.24
7.74
15.19
22.94
27.99
28.13
22.89
13.68
3.65
-2.94
-1.46
11.65
37.45
73.16
111.95
144.51
161.99
159.38
137.63
103.39
66.53
36.46
19.03
15.27
22.20
34.89
48.70
60.60
69.39
75.05
77.86
77.81
74.49
67.46
56.79
43.30
28.41
13.59
-0.36
-13.74
-27.77
-43.94
-62.94
-83.98
-104.81
-122.37
-134.00
-138.46
-136.39
-129.92
-121.68
-113.76
-106.99
-100.94
-94.50
-86.67
-77.24
-66.87
-56.83
-48.32
-41.94
-37.44
-34.01
-30.65
-26.81
-22.55
-18.47
-15.34
-13.65
-13.35
-13.88
-14.46
-14.37
-13.22
-11.04
-8.22
-5.27
-2.66
-0.64
0.79
1.82
2.61
3.28
3.82
4.20
4.47
4.77
5.24
5.98
6.91
7.79
8.27
8.09
7.14
5.49
3.33
0.97
-1.34
-3.36
-4.90
-5.86
-6.19
-5.87
-4.99
-3.67
-2.15
-0.66
0.58
1.49
2.10
2.54
2.94
3.32
3.61
3.71
3.60
3.42
3.44
3.91
4.91
6.32
7.86
9.20
10.15
10.75
11.17
11.67
12.33
13.09
13.73
14.01
13.80
13.16
12.30
11.49
10.93
10.67
10.62
10.62
10.56
10.46
10.39
10.44
10.52
10.45
9.96
8.95
7.56
6.11
4.99
4.39
4.20
4.09
3.70
2.84
1.67
0.51
-0.22
-0.27
0.39
1.65
3.31
5.22
7.25
9.29
11.19
12.75
13.80
14.23
14.02
13.17
11.61
9.13
5.40
0.19
-6.38
-13.68
-20.67
-26.22
-29.52
-30.32
-28.92
-25.92
-21.90
-17.28
-12.28
-7.23
-2.61
0.94
2.81
2.74
0.85
-2.37
-6.33
-10.59
-14.88
-19.08
-23.05
-26.64
-29.56
-31.56
-32.48
-32.33
-31.25
-29.49
-27.21
-24.55
-21.55
-18.32
-14.98
-11.75
-8.77
-6.06
-3.49
-0.79
2.27
5.71
9.34
12.77
15.61
17.66
18.99
19.97
21.09
22.78
25.24
28.35
31.79
35.19
38.36
41.35
44.40
47.71
51.23
54.66
57.52
59.40
60.15
59.88
58.84
57.15
54.85
51.89
48.39
44.73
41.40
38.80
36.86
34.93
31.96
27.04
20.02
11.78
3.94
-1.89
-5.00
-6.09
-6.92
-9.39
-14.44
-21.52
-28.88
-34.50
-37.14
-36.89
-34.88
-32.47
-30.42
-28.59
-26.21
-22.63
-17.83
-12.65
-8.47
-6.54
-7.31
-10.21
-13.88
-16.77
-17.90
-17.32
-16.00
-15.29
-16.08
-18.30
-20.99
-22.76
-22.66
-20.73
-17.95
-15.67
-14.83
-15.40
-16.45
-16.70
-15.26
-12.09
-8.05
-4.35
-1.89
-0.87
-0.78
-0.78
-0.24
0.96
2.33
3.10
2.77
1.42
-0.34
-1.62
-1.75
-0.67
1.01
2.35
2.64
1.77
0.31
-0.85
-1.02
-0.16
1.15
1.98
1.69
0.23
-1.84
-3.71
-4.79
-5.07
-5.07
-5.52
-6.81
-8.79
-10.78
-11.93
-11.70
-10.14
-7.91
-5.86
-4.60
-4.15
-4.03
-3.59
-2.42
-0.66
1.06
1.95
1.63
0.29
-1.34
-2.33
-2.10
-0.73
1.11
2.55
3.02
2.55
1.69
1.17
1.35
1.96
2.30
1.63
-0.25
-2.83
-5.09
-6.04
-5.31
-3.39
-1.41
-0.58
-1.47
-3.81
-6.58
-8.57
-8.99
-7.91
-6.07
-4.49
-3.78
-3.85
-4.03
-3.46
-1.68
0.98
3.63
5.25
5.31
4.05
2.32
1.14
1.07
1.98
3.15
3.70
3.19
1.83
0.34
-0.43
-0.06
1.15
2.37
2.67
1.58
-0.62
-3.07
-4.78
-5.16
-4.38
-3.23
-2.64
-3.20
-4.86
-7.02
-8.92
-10.09
-10.56
-10.75
-11.14
-11.85
-12.59
-12.72
-11.66
-9.26
-5.96
-2.59
-0.01
1.42
1.96
2.34
3.34
5.22
7.59
9.56
10.29
9.54
7.79
6.03
5.22
5.72
7.05
8.23
8.35
7.07
4.87
2.67
1.36
1.23
1.83
2.23
1.64
-0.18
-2.79
-5.34
-7.09
-7.77
-7.78
-7.84
-8.53
-9.90
-11.47
-12.41
-12.05
-10.28
-7.61
-4.97
-3.20
-2.59
-2.79
-3.00
-2.43
-0.80
1.53
3.72
4.99
5.06
4.31
3.56
3.54
4.42
5.70
6.45
5.95
4.11
1.57
-0.62
-1.61
-1.22
-0.09
0.72
0.36
-1.36
-3.89
-6.28
-7.74
-8.12
-7.98
-8.17
-9.34
-11.49
-14.02
-16.03
-16.83
-16.32
-14.99
-13.57
-12.53
-11.78
-10.74
-8.66
-5.13
-0.41
4.69
9.15
12.34
14.44
16.38
19.38
24.37
31.48
39.97
48.62
56.25
62.19
66.26
68.72
69.92
69.98
68.75
65.87
61.05
54.32
46.16
37.49
29.43
22.89
18.22
15.04
12.42
9.31
4.90
-1.05
-8.32
-16.44
-24.87
-33.13
-40.65
-46.75
-50.76
-52.23
-51.17
-48.15
-44.08
-39.93
-36.31
-33.40
-31.03
-28.90
-26.78
-24.59
-22.39
-20.29
-18.37
-16.65
-15.19
-14.02
-13.17
-12.74
-12.72
-13.09
-13.67
-14.23
-14.46
-14.15
-13.25
-12.02
-10.91
-10.41
-10.85
-12.14
-13.83
-15.30
-16.15
-16.34
-16.24
-16.36
-17.00
-18.01
-18.87
-18.95
-17.91
-15.82
-13.14
-10.39
-7.84
-5.41
-2.82
0.15
3.44
6.63
9.16
10.66
11.10
10.83
10.39
10.29
10.74
11.66
12.75
13.68
14.22
14.35
14.16
13.78
13.34
12.79
12.07
11.07
9.75
8.18
6.51
4.93
3.51
2.20
0.76
-1.05
-3.35
-6.00
-8.62
-10.70
-11.82
-11.79
-10.70
-8.85
-6.58
-4.14
-1.70
0.71
3.02
5.15
7.02
8.56
9.77
10.76
11.65
12.50
13.28
13.82
13.93
13.52
12.60
11.33
9.96
8.67
7.53
6.50
5.42
4.18
2.69
0.97
-0.90
-2.76
-4.47
-5.93
-7.14
-8.16
-9.10
-10.05
-11.07
-12.18
-13.44
-14.89
-16.57
-18.41
-20.20
-21.59
-22.20
-21.76
-20.23
-17.80
-14.88
-11.86
-9.06
-6.57
-4.34
-2.27
-0.34
1.36
2.66
3.45
3.76
3.77
3.78
3.98
4.35
4.68
4.68
4.10
2.96
1.43
-0.19
-1.66
-2.89
-3.94
-4.91
-5.91
-6.99
-8.12
-9.25
-10.31
-11.28
-12.18
-13.09
-14.14
-15.43
-17.00
-18.79
-20.63
-22.26
-23.44
-23.99
-23.79
-22.78
-20.93
-18.26
-14.90
-11.07
-7.02
-3.04
0.65
3.95
6.88
9.49
11.84
13.89
15.54
16.64
17.12
17.13
16.98
17.09
17.71
18.77
19.92
20.61
20.50
19.59
18.26
16.99
16.11
15.60
15.19
14.52
13.40
11.93
10.38
8.97
7.79
6.68
5.40
3.74
1.66
-0.66
-2.95
-4.90
-6.31
-7.08
-7.24
-6.89
-6.14
-5.06
-3.70
-2.11
-0.33
1.56
3.38
4.93
6.05
6.69
6.97
7.14
7.46
8.03
8.71
9.17
9.09
8.36
7.21
6.11
5.55
5.74
6.49
7.29
7.60
7.09
5.83
4.15
2.49
1.12
0.05
-0.84
-1.71
-2.62
-3.53
-4.45
-5.47
-6.80
-8.58
-10.77
-13.04
-14.88
-15.81
-15.58
-14.28
-12.29
-10.08
-7.99
-6.09
-4.25
-2.23
0.07
2.52
4.79
6.53
7.52
7.83
7.77
7.73
7.98
8.54
9.25
9.88
10.24
10.36
10.39
10.50
10.76
11.07
11.20
10.85
9.87
8.29
6.33
4.34
2.61
1.23
0.07
-1.12
-2.54
-4.23
-6.06
-7.81
-9.30
-10.46
-11.35
-12.07
-12.60
-12.84
-12.57
-11.58
-9.80
-7.31
-4.40
-1.39
1.42
3.88
5.96
7.71
9.23
10.49
11.44
12.02
12.28
12.39
12.54
12.88
13.40
13.92
14.24
14.18
13.75
13.08
12.37
11.77
11.32
10.91
10.38
9.54
8.30
6.73
5.01
3.36
1.98
0.93
0.09
-0.76
-1.83
-3.17
-4.67
-6.05
-7.09
-7.70
-7.93
-7.93
-7.75
-7.26
-6.26
-4.58
-2.25
0.45
3.08
5.23
6.70
7.54
7.96
8.25
8.60
9.07
9.61
10.11
10.45
10.53
10.31
9.82
9.14
8.40
7.71
7.10
6.57
6.02
5.37
4.58
3.69
2.75
1.81
0.87
-0.12
-1.21
-2.41
-3.68
-4.93
-6.13
-7.31
-8.57
-9.96
-11.37
-12.50
-12.95
-12.40
-10.78
-8.34
-5.56
-2.87
-0.53
1.41
3.09
4.62
6.01
7.16
7.97
8.43
8.65
8.83
9.12
9.58
10.09
10.41
10.30
9.70
8.74
7.72
6.92
6.47
6.23
5.90
5.19
4.05
2.64
1.33
0.40
-0.10
-0.41
-0.95
-2.05
-3.82
-6.03
-8.28
-10.11
-11.24
-11.60
-11.33
-10.68
-9.84
-8.91
-7.86
-6.60
-5.06
-3.29
-1.45
0.24
1.57
2.51
3.16
3.75
4.49
5.46
6.54
7.50
8.09
8.20
7.91
7.35
6.65
5.84
4.95
4.02
3.20
2.70
2.68
3.14
3.85
4.40
4.40
3.63
2.19
0.45
-1.06
-1.95
-2.12
-1.84
-1.62
-1.94
-3.01
-4.61
-6.20
-7.12
-6.91
-5.49
-3.15
-0.38
2.36
4.74
6.64
8.04
8.96
9.35
9.21
8.57
7.56
6.43
5.45
4.86
4.68
4.79
4.91
4.81
4.42
3.87
3.45
3.43
3.87
4.62
5.33
5.66
5.39
4.52
3.24
1.81
0.44
-0.77
-1.84
-2.84
-3.83
-4.83
-5.83
-6.77
-7.66
-8.52
-9.38
-10.16
-10.72
-10.80
-10.18
-8.76
-6.64
-4.09
-1.47
0.87
2.72
4.01
4.85
5.40
5.84
6.28
6.74
7.15
7.45
7.62
7.72
7.87
8.10
8.34
8.40
8.13
7.50
6.68
5.93
5.49
5.34
5.30
5.02
4.26
2.95
1.27
-0.51
-2.09
-3.36
-4.39
-5.36
-6.46
-7.75
-9.11
-10.27
-10.96
-10.97
-10.32
-9.22
-7.96
-6.71
-5.44
-3.93
-1.93
0.60
3.37
5.86
7.52
8.12
7.81
7.07
6.48
6.33
6.63
7.11
7.46
7.58
7.55
7.60
7.86
8.24
8.46
8.19
7.32
5.96
4.46
3.14
2.18
1.51
0.89
0.11
-0.92
-2.12
-3.31
-4.37
-5.30
-6.25
-7.44
-8.99
-10.80
-12.49
-13.58
-13.54
-12.16
-9.57
-6.32
-3.07
-0.40
1.47
2.69
3.64
4.67
5.88
7.13
8.13
8.71
8.87
8.81
8.74
8.76
8.76
8.53
7.91
6.96
5.91
5.06
4.62
4.52
4.51
4.22
3.42
2.14
0.63
-0.74
-1.69
-2.20
-2.48
-2.84
-3.56
-4.68
-6.05
-7.39
-8.43
-9.02
-9.16
-8.97
-8.51
-7.79
-6.75
-5.33
-3.59
-1.65
0.23
1.86
3.13
4.07
4.85
5.62
6.46
7.33
8.06
8.49
8.55
8.30
7.93
7.63
7.57
7.76
8.08
8.33
8.32
7.94
7.18
6.18
5.09
4.06
3.14
2.32
1.52
0.73
0.01
-0.54
-0.83
-0.91
-1.01
-1.43
-2.39
-3.81
-5.33
-6.39
-6.57
-5.72
-4.16
-2.42
-0.99
-0.04
0.62
1.36
2.45
3.86
5.27
6.29
6.72
6.65
6.40
6.28
6.43
6.71
6.86
6.70
6.18
5.42
4.59
3.81
3.10
2.47
1.90
1.36
0.81
0.17
-0.56
-1.34
-2.07
-2.65
-3.14
-3.71
-4.59
-5.85
-7.33
-8.69
-9.56
-9.76
-9.37
-8.67
-7.91
-7.21
-6.52
-5.71
-4.66
-3.36
-1.87
-0.26
1.41
3.11
4.77
6.31
7.62
8.60
9.19
9.40
9.28
8.93
8.45
7.91
7.37
6.86
6.36
5.84
5.25
4.56
3.77
2.90
1.97
1.01
0.03
-1.01
-2.09
-3.20
-4.30
-5.32
-6.25
-7.16
-8.17
-9.39
-10.82
-12.29
-13.51
-14.17
-14.03
-13.04
-11.34
-9.23
-7.00
-4.89
-2.98
-1.28
0.21
1.42
2.21
2.49
2.31
1.87
1.50
1.46
1.81
2.35
2.74
2.70
2.17
1.32
0.51
-0.02
-0.18
-0.18
-0.28
-0.71
-1.47
-2.32
-2.99
-3.27
-3.22
-3.12
-3.35
-4.18
-5.66
-7.60
-9.58
-11.18
-12.07
-12.15
-11.46
-10.16
-8.45
-6.47
-4.33
-2.10
0.10
2.14
3.83
5.03
5.68
5.85
5.71
5.47
5.31
5.27
5.30
5.28
5.13
4.90
4.70
4.65
4.75
4.87
4.81
4.40
3.68
2.80
2.02
1.51
1.31
1.30
1.29
1.08
0.57
-0.26
-1.35
-2.54
-3.72
-4.72
-5.45
-5.81
-5.72
-5.08
-3.83
-1.97
0.34
2.84
5.21
7.24
8.83
10.03
10.92
11.58
12.02
12.23
12.23
12.06
11.81
11.56
11.36
11.27
11.27
11.25
11.01
10.35
9.14
7.47
5.61
3.92
2.65
1.83
1.26
0.70
-0.04
-0.97
-1.99
-3.05
-4.17
-5.46
-6.96
-8.58
-10.02
-10.95
-11.11
-10.44
-9.10
-7.40
-5.67
-4.17
-3.06
-2.33
-1.90
-1.60
-1.28
-0.83
-0.29
0.19
0.44
0.35
-0.03
-0.54
-0.96
-1.19
-1.30
-1.49
-1.93
-2.66
-3.54
-4.31
-4.80
-4.97
-4.98
-5.09
-5.55
-6.46
-7.71
-9.10
-10.38
-11.45
-12.34
-13.21
-14.20
-15.27
-16.17
-16.50
-15.95
-14.50
-12.45
-10.24
-8.27
-6.67
-5.29
-3.89
-2.35
-0.77
0.62
1.64
2.32
2.80
3.33
3.97
4.61
4.97
4.84
4.17
3.17
2.15
1.39
0.98
0.80
0.57
0.03
-0.91
-2.09
-3.20
-3.90
-4.08
-3.89
-3.69
-3.92
-4.83
-6.42
-8.41
-10.34
-11.79
-12.55
-12.57
-12.02
-11.09
-9.94
-8.59
-6.98
-5.07
-2.91
-0.68
1.37
3.03
4.24
5.12
5.88
6.69
7.54
8.27
8.66
8.58
8.09
7.45
6.97
6.82
6.98
7.16
7.05
6.45
5.43
4.23
3.15
2.39
1.90
1.55
1.13
0.54
-0.24
-1.16
-2.19
-3.33
-4.60
-5.99
-7.35
-8.47
-9.05
-8.83
-7.67
-5.61
-2.93
-0.05
2.56
4.65
6.17
7.34
8.45
9.69
10.99
12.10
12.75
12.78
12.30
11.57
10.91
10.51
10.37
10.30
10.06
9.50
8.63
7.66
6.86
6.42
6.29
6.22
5.86
5.00
3.68
2.17
0.85
-0.13
-0.88
-1.78
-3.19
-5.18
-7.42
-9.34
-10.39
-10.32
-9.26
-7.63
-5.90
-4.43
-3.29
-2.33
-1.31
-0.04
1.53
3.25
4.84
6.03
6.66
6.75
6.54
6.29
6.15
6.08
5.84
5.17
4.01
2.58
1.27
0.50
0.50
1.13
2.05
2.80
3.08
2.82
2.21
1.58
1.22
1.29
1.76
2.46
3.16
3.69
3.98
4.08
4.18
4.59
5.72
7.99
11.65
16.61
22.31
27.89
32.42
35.29
36.52
36.82
37.43
39.66
44.36
51.51
60.05
68.14
73.62
74.76
70.87
62.54
51.51
40.05
30.19
23.03
18.44
15.35
12.30
8.22
2.91
-2.95
-8.17
-11.74
-13.21
-12.94
-11.73
-10.40
-9.29
-8.22
-6.76
-4.58
-1.84
0.93
3.15
4.58
5.57
6.77
8.78
11.73
15.26
18.71
21.62
23.91
25.82
27.43
28.42
28.06
25.67
21.11
15.02
8.56
2.85
-1.59
-5.05
-8.29
-11.95
-16.12
-20.23
-23.44
-25.13
-25.35
-24.82
-24.55
-25.26
-27.01
-29.16
-30.65
-30.72
-29.26
-27.02
-25.20
-24.79
-26.08
-28.45
-30.75
-31.84
-31.25
-29.31
-26.96
-25.15
-24.29
-24.08
-23.65
-22.16
-19.35
-15.75
-12.44
-10.41
-9.95
-10.54
-11.10
-10.64
-8.92
-6.61
-4.84
-4.50
-5.70
-7.68
-9.26
-9.55
-8.50
-6.89
-5.91
-6.40
-8.43
-11.25
-13.66
-14.69
-14.09
-12.50
-11.08
-10.90
-12.40
-15.20
-18.34
-20.84
-22.26
-22.89
-23.54
-24.87
-26.94
-29.13
-30.45
-30.24
-28.63
-26.60
-25.47
-26.16
-28.73
-32.38
-35.87
-38.27
-39.42
-40.01
-41.07
-43.35
-46.93
-51.26
-55.51
-59.07
-61.87
-64.33
-67.03
-70.30
-74.10
-78.13
-82.00
-85.34
-87.77
-88.70
-87.23
-82.24
-72.74
-58.35
-39.58
-17.98
4.03
23.53
37.77
44.99
45.12
40.02
33.12
28.30
28.44
34.31
44.33
55.40
64.21
68.56
67.88
62.96
55.13
45.50
34.67
23.08
11.34
0.43
-8.47
-14.41
-17.02
-16.52
-13.57
-9.09
-4.01
0.87
5.04
8.40
11.29
14.24
17.62
21.34
24.84
27.42
28.72
28.97
28.92
29.31
30.45
32.13
33.79
34.94
35.43
35.40
35.05
34.52
33.80
32.95
32.04
31.19
30.42
29.54
28.26
26.28
23.54
20.30
17.02
14.18
11.96
10.21
8.52
6.42
3.65
0.43
-2.74
-5.21
-6.52
-6.62
-5.98
-5.28
-5.19
-5.92
-7.22
-8.56
-9.40
-9.60
-9.42
-9.37
-9.89
-11.07
-12.59
-13.93
-14.64
-14.52
-13.73
-12.68
-11.77
-11.22
-10.97
-10.75
-10.26
-9.32
-7.99
-6.54
-5.30
-4.43
-3.83
-3.24
-2.37
-1.16
0.15
1.12
1.34
0.71
-0.48
-1.70
-2.42
-2.38
-1.75
-0.97
-0.56
-0.78
-1.54
-2.45
-3.07
-3.18
-2.86
-2.48
-2.52
-3.25
-4.62
-6.29
-7.80
-8.82
-9.26
-9.32
-9.31
-9.40
-9.50
-9.38
-8.73
-7.49
-5.91
-4.47
-3.64
-3.59
-4.12
-4.72
-4.84
-4.19
-2.85
-1.20
0.26
1.19
1.46
1.23
0.82
0.51
0.45
0.53
0.53
0.22
-0.47
-1.40
-2.31
-2.90
-3.08
-2.97
-2.87
-3.01
-3.45
-4.03
-4.53
-4.77
-4.86
-5.05
-5.61
-6.57
-7.67
-8.40
-8.23
-6.89
-4.52
-1.62
1.16
3.38
4.93
6.06
7.21
8.67
10.45
12.24
13.64
14.41
14.69
14.94
15.70
17.27
19.46
21.65
23.05
23.20
22.18
20.67
19.50
19.29
20.04
21.18
21.92
21.70
20.50
18.80
17.21
16.13
15.52
15.01
14.24
13.15
12.07
11.55
12.04
13.63
15.99
18.54
20.71
22.22
23.17
23.90
24.81
26.14
27.78
29.40
30.60
31.17
31.20
31.12
31.45
32.56
34.40
36.52
38.16
38.69
37.80
35.57
32.40
28.66
24.52
19.87
14.53
8.49
2.10
-4.00
-9.02
-12.42
-14.11
-14.63
-15.02
-16.42
-19.77
-25.53
-33.55
-43.24
-53.80
-64.41
-74.32
-82.85
-89.29
-93.03
-93.72
-91.50
-87.10
-81.67
-76.40
-72.06
-68.74
-65.93
-62.87
-58.93
-53.92
-48.12
-42.06
-36.29
-31.14
-26.70
-22.88
-19.49
-16.36
-13.27
-10.07
-6.64
-2.97
0.81
4.41
7.42
9.34
9.74
8.36
5.40
1.52
-2.31
-5.07
-6.03
-4.92
-2.06
1.89
6.07
9.80
12.68
14.67
16.07
17.41
19.08
21.26
23.74
26.08
27.98
29.44
30.81
32.35
33.81
34.28
32.51
27.64
19.80
10.13
0.33
-8.17
-14.78
-19.76
-23.74
-27.13
-29.83
-31.39
-31.40
-29.85
-27.22
-24.15
-21.20
-18.64
-16.51
-14.87
-13.81
-13.52
-14.15
-15.70
-17.91
-20.31
-22.26
-23.09
-22.34
-19.98
-16.49
-12.72
-9.45
-7.01
-5.06
-2.80
0.56
5.38
11.34
17.73
23.82
29.12
33.50
36.97
39.47
40.90
41.18
40.46
39.17
37.81
36.69
35.73
34.38
31.91
27.82
22.11
15.39
8.57
2.28
-3.44
-9.19
-15.63
-22.88
-29.98
-35.13
-36.44
-32.93
-25.14
-15.08
-5.48
1.25
3.86
2.61
-1.17
-5.65
-9.43
-12.16
-14.78
-19.07
-26.63
-37.72
-50.42
-60.80
-64.11
-56.64
-37.71
-10.43
18.86
42.75
55.42
54.73
42.77
24.68
6.30
-7.96
-16.38
-19.55
-19.24
-17.04
-13.83
-9.77
-4.67
2.03
11.30
24.34
41.48
60.85
77.72
85.52
78.48
54.77
18.23
-22.37
-56.73
-77.07
-80.98
-71.68
-55.76
-39.96
-28.72
-23.33
-22.78
-25.16
-28.69
-32.00
-33.97
-33.26
-28.66
-19.31
-5.50
11.16
27.87
41.57
49.92
52.11
49.09
43.13
36.86
32.33
30.40
30.59
31.55
31.78
30.25
26.80
22.14
17.42
13.81
11.95
11.83
12.84
14.12
14.96
15.16
14.99
14.97
15.57
16.82
18.37
19.62
20.11
19.69
18.65
17.44
16.49
15.86
15.34
14.59
13.38
11.82
10.24
9.05
8.45
8.25
8.00
7.18
5.53
3.18
0.60
-1.64
-3.18
-4.09
-4.81
-5.86
-7.56
-9.80
-12.14
-14.00
-15.01
-15.14
-14.73
-14.14
-13.57
-12.91
-11.83
-9.98
-7.25
-3.85
-0.22
3.14
5.92
8.04
9.61
10.87
12.03
13.12
14.05
14.60
14.61
14.09
13.19
12.18
11.34
10.78
10.46
10.22
9.92
9.48
8.91
8.28
7.63
6.93
6.11
5.05
3.70
2.14
0.52
-1.00
-2.32
-3.49
-4.64
-5.92
-7.37
-8.79
-9.89
-10.29
-9.73
-8.21
-5.94
-3.37
-0.94
1.02
2.44
3.43
4.23
5.00
5.74
6.29
6.48
6.30
5.99
5.87
6.21
6.94
7.70
7.95
7.34
5.85
3.88
2.02
0.76
0.35
0.63
1.21
1.58
1.37
0.46
-1.03
-2.78
-4.49
-6.02
-7.46
-8.94
-10.54
-12.08
-13.20
-13.54
-12.98
-11.72
-10.17
-8.75
-7.59
-6.48
-5.05
-3.01
-0.35
2.58
5.24
7.16
8.11
8.27
8.00
7.76
7.81
8.18
8.69
9.14
9.44
9.66
9.98
10.54
11.30
12.04
12.46
12.30
11.49
10.14
8.50
6.88
5.44
4.15
2.79
1.03
-1.32
-4.20
-7.29
-10.11
-12.27
-13.62
-14.23
-14.29
-13.98
-13.32
-12.23
-10.58
-8.36
-5.72
-2.95
-0.42
1.62
3.08
4.02
4.66
5.18
5.65
5.99
6.11
5.97
5.72
5.60
5.85
6.52
7.46
8.39
9.01
9.16
8.85
8.21
7.47
6.78
6.24
5.84
5.48
5.06
4.52
3.83
3.02
2.10
1.06
-0.16
-1.55
-3.00
-4.22
-4.86
-4.64
-3.47
-1.55
0.70
2.78
4.33
5.24
5.70
6.08
6.73
7.78
9.07
10.18
10.72
10.46
9.55
8.39
7.40
6.82
6.57
6.38
5.97
5.27
4.41
3.63
3.07
2.63
2.05
1.04
-0.48
-2.30
-3.98
-5.07
-5.33
-4.95
-4.42
-4.35
-5.15
-6.81
-8.85
-10.55
-11.27
-10.83
-9.50
-7.85
-6.36
-5.17
-4.06
-2.67
-0.82
1.36
3.46
5.05
5.93
6.21
6.21
6.27
6.56
7.03
7.43
7.49
7.04
6.09
4.84
3.65
2.91
2.79
3.16
3.61
3.66
3.12
2.14
1.17
0.63
0.64
0.91
0.88
0.09
-1.51
-3.59
-5.57
-7.01
-7.81
-8.23
-8.64
-9.22
-9.81
-9.98
-9.26
-7.46
-4.82
-1.90
0.61
2.28
3.09
3.41
3.76
4.50
5.60
6.69
7.25
7.01
6.04
4.74
3.65
3.11
3.14
3.44
3.67
3.60
3.25
2.84
2.56
2.42
2.23
1.73
0.78
-0.52
-1.84
-2.80
-3.17
-3.01
-2.64
-2.52
-2.95
-4.03
-5.51
-7.06
-8.27
-8.89
-8.86
-8.24
-7.21
-5.98
-4.71
-3.49
-2.31
-1.07
0.33
1.91
3.55
5.05
6.25
7.08
7.61
7.96
8.18
8.25
8.08
7.60
6.89
6.09
5.39
4.91
4.61
4.30
3.78
2.95
1.86
0.73
-0.21
-0.85
-1.26
-1.69
-2.40
-3.46
-4.73
-5.88
-6.60
-6.76
-6.52
-6.24
-6.26
-6.72
-7.45
-8.06
-8.10
-7.26
-5.54
-3.24
-0.80
1.33
2.92
3.97
4.68
5.28
5.84
6.25
6.29
5.84
5.00
4.11
3.61
3.76
4.49
5.42
6.06
6.12
5.60
4.77
3.99
3.46
3.13
2.76
2.05
0.89
-0.59
-2.08
-3.23
-3.79
-3.80
-3.57
-3.50
-3.96
-5.07
-6.65
-8.29
-9.53
-10.00
-9.63
-8.62
-7.29
-5.92
-4.54
-3.00
-1.06
1.33
3.95
6.28
7.82
8.27
7.73
6.67
5.66
5.16
5.24
5.66
6.06
6.16
5.90
5.45
5.04
4.77
4.61
4.36
3.84
2.97
1.85
0.71
-0.17
-0.64
-0.77
-0.77
-0.97
-1.56
-2.58
-3.84
-5.05
-5.97
-6.52
-6.86
-7.24
-7.86
-8.68
-9.41
-9.71
-9.32
-8.26
-6.78
-5.25
-3.92
-2.87
-1.98
-1.08
-0.09
0.90
1.74
2.26
2.44
2.41
2.42
2.70
3.33
4.19
4.95
5.29
5.00
4.21
3.32
2.79
2.89
3.50
4.19
4.44
3.93
2.73
1.26
-0.01
-0.78
-1.10
-1.27
-1.67
-2.52
-3.81
-5.32
-6.73
-7.77
-8.33
-8.44
-8.20
-7.71
-6.97
-5.89
-4.39
-2.49
-0.35
1.68
3.25
4.16
4.43
4.28
4.09
4.11
4.41
4.82
5.02
4.75
3.95
2.75
1.49
0.51
0.00
-0.05
0.08
0.14
-0.05
-0.45
-0.91
-1.28
-1.52
-1.77
-2.23
-2.99
-3.99
-4.98
-5.69
-5.94
-5.80
-5.53
-5.44
-5.73
-6.33
-6.91
-7.02
-6.31
-4.70
-2.49
-0.24
1.53
2.53
2.88
3.03
3.51
4.61
6.27
8.06
9.46
10.12
9.99
9.27
8.25
7.14
5.98
4.76
3.53
2.43
1.71
1.55
1.90
2.49
2.87
2.61
1.49
-0.33
-2.43
-4.18
-5.11
-5.07
-4.31
-3.38
-2.86
-3.09
-4.04
-5.37
-6.63
-7.50
-7.90
-7.91
-7.66
-7.15
-6.31
-4.95
-3.07
-0.79
1.56
3.56
4.92
5.53
5.51
5.18
4.89
4.88
5.21
5.74
6.22
6.51
6.57
6.54
6.55
6.63
6.63
6.31
5.50
4.25
2.86
1.73
1.17
1.21
1.59
1.92
1.89
1.43
0.69
-0.06
-0.65
-1.09
-1.58
-2.38
-3.59
-5.07
-6.50
-7.48
-7.74
-7.23
-6.15
-4.82
-3.55
-2.52
-1.71
-0.97
-0.10
0.98
2.18
3.27
4.03
4.36
4.34
4.21
4.17
4.32
4.54
4.63
4.41
3.86
3.17
2.60
2.35
2.44
2.68
2.79
2.58
2.00
1.18
0.38
-0.22
-0.56
-0.75
-1.01
-1.50
-2.26
-3.15
-4.01
-4.71
-5.25
-5.79
-6.45
-7.23
-7.92
-8.19
-7.72
-6.40
-4.41
-2.13
-0.05
1.51
2.46
2.96
3.28
3.66
4.18
4.75
5.15
5.24
5.00
4.56
4.18
4.03
4.16
4.41
4.56
4.39
3.86
3.16
2.54
2.25
2.37
2.76
3.12
3.12
2.58
1.52
0.20
-0.99
-1.70
-1.81
-1.44
-0.96
-0.72
-0.95
-1.55
-2.22
-2.54
-2.20
-1.18
0.36
2.15
4.03
5.95
7.93
9.96
11.90
13.58
14.84
15.70
16.35
17.06
18.00
19.21
20.53
21.72
22.60
23.12
23.45
23.91
24.89
26.62
29.00
31.44
32.93
32.38
29.00
22.76
14.41
5.17
-3.81
-11.96
-19.42
-26.75
-34.36
-42.13
-49.34
-55.08
-58.70
-60.21
-60.11
-59.13
-57.69
-55.80
-53.11
-49.32
-44.42
-38.85
-33.23
-28.13
-23.80
-20.13
-16.79
-13.47
-10.08
-6.72
-3.63
-1.00
1.13
2.90
4.56
6.28
8.12
9.94
11.50
12.58
13.11
13.19
13.04
12.88
12.78
12.64
12.29
11.53
10.33
8.79
7.14
5.63
4.36
3.30
2.28
1.16
-0.06
-1.25
-2.06
-2.18
-1.45
-0.03
1.73
3.39
4.69
5.65
6.50
7.57
8.98
10.54
11.81
12.36
11.98
10.87
9.59
8.76
8.79
9.72
11.20
12.79
14.20
15.39
16.57
17.91
19.34
20.54
21.07
20.69
19.55
18.08
16.84
16.13
15.87
15.69
15.15
13.95
11.96
9.19
5.61
1.18
-4.09
-10.01
-16.07
-21.58
-25.80
-28.22
-28.69
-27.41
-24.91
-21.81
-18.77
-16.22
-14.39
-13.20
-12.38
-11.61
-10.66
-9.48
-8.26
-7.23
-6.56
-6.29
-6.28
-6.31
-6.22
-5.91
-5.45
-4.92
-4.39
-3.84
-3.23
-2.51
-1.74
-1.11
-0.89
-1.26
-2.22
-3.48
-4.64
-5.34
-5.46
-5.18
-4.85
-4.74
-4.90
-5.06
-4.84
-3.92
-2.27
-0.22
1.74
3.21
4.04
4.39
4.59
4.96
5.57
6.22
6.57
6.35
5.56
4.46
3.50
3.04
3.15
3.64
4.11
4.21
3.83
3.12
2.46
2.17
2.39
2.97
3.55
3.75
3.38
2.49
1.36
0.33
-0.38
-0.78
-1.06
-1.50
-2.23
-3.16
-4.02
-4.48
-4.31
-3.52
-2.33
-1.04
0.13
1.09
1.93
2.80
3.80
4.85
5.78
6.32
6.38
6.05
5.64
5.45
5.67
6.17
6.53
6.32
5.35
3.83
2.32
1.40
1.35
1.96
2.66
2.82
2.17
0.90
-0.50
-1.48
-1.85
-1.78
-1.69
-2.06
-3.03
-4.43
-5.87
-6.92
-7.35
-7.19
-6.70
-6.23
-5.98
-5.96
-5.92
-5.54
-4.59
-3.08
-1.30
0.35
1.58
2.35
2.89
3.55
4.53
5.73
6.78
7.21
6.76
5.55
4.03
2.80
2.24
2.34
2.73
2.91
2.54
1.71
0.77
0.17
0.16
0.62
1.09
1.10
0.39
-0.93
-2.45
-3.70
-4.38
-4.54
-4.48
-4.61
-5.21
-6.28
-7.55
-8.60
-9.11
-8.98
-8.33
-7.43
-6.47
-5.48
-4.32
-2.82
-0.94
1.13
2.97
4.15
4.41
3.83
2.82
1.89
1.42
1.53
2.00
2.48
2.72
2.64
2.40
2.24
2.31
2.54
2.71
2.57
2.02
1.18
0.28
-0.40
-0.71
-0.71
-0.67
-0.89
-1.54
-2.63
-3.92
-5.09
-5.90
-6.31
-6.44
-6.51
-6.59
-6.57
-6.20
-5.24
-3.69
-1.78
0.07
1.47
2.28
2.63
2.81
3.12
3.72
4.53
5.33
5.89
6.06
5.86
5.44
5.00
4.71
4.61
4.66
4.76
4.80
4.69
4.43
4.02
3.51
2.93
2.27
1.51
0.65
-0.27
-1.19
-1.98
-2.53
-2.78
-2.83
-2.89
-3.19
-3.84
-4.70
-5.43
-5.60
-4.94
-3.52
-1.74
-0.13
0.95
1.46
1.73
2.17
2.98
4.03
4.88
5.11
4.58
3.50
2.37
1.61
1.42
1.62
1.84
1.79
1.37
0.73
0.14
-0.25
-0.43
-0.57
-0.90
-1.52
-2.39
-3.27
-3.96
-4.29
-4.29
-4.14
-4.05
-4.18
-4.57
-5.17
-5.83
-6.37
-6.67
-6.67
-6.38
-5.81
-4.97
-3.84
-2.43
-0.77
1.03
2.72
4.02
4.67
4.55
3.78
2.65
1.57
0.86
0.68
0.90
1.21
1.28
0.90
0.10
-0.81
-1.46
-1.58
-1.17
-0.53
-0.05
-0.04
-0.49
-1.13
-1.60
-1.67
-1.42
-1.15
-1.22
-1.79
-2.76
-3.85
-4.73
-5.24
-5.41
-5.36
-5.12
-4.61
-3.66
-2.14
-0.11
2.17
4.30
5.98
7.15
7.97
8.73
9.64
10.64
11.38
11.41
10.41
8.49
6.12
4.00
2.71
2.40
2.78
3.25
3.24
2.53
1.34
0.19
-0.46
-0.43
0.08
0.60
0.68
0.12
-0.99
-2.34
-3.64
-4.75
-5.73
-6.77
-7.99
-9.33
-10.52
-11.17
-10.93
-9.62
-7.41
-4.70
-1.99
0.30
2.03
3.32
4.42
5.50
6.53
7.24
7.31
6.58
5.21
3.64
2.35
1.63
1.45
1.53
1.48
1.14
0.57
0.07
-0.07
0.19
0.65
0.91
0.65
-0.17
-1.34
-2.47
-3.25
-3.61
-3.72
-3.88
-4.36
-5.20
-6.22
-7.10
-7.47
-7.09
-5.93
-4.14
-2.04
0.05
1.85
3.28
4.42
5.38
6.24
6.94
7.29
7.17
6.60
5.76
4.93
4.32
3.94
3.57
2.97
1.96
0.63
-0.74
-1.83
-2.44
-2.60
-2.53
-2.57
-2.95
-3.73
-4.80
-5.89
-6.73
-7.19
-7.28
-7.23
-7.29
-7.66
-8.36
-9.16
-9.75
-9.82
-9.24
-8.14
-6.74
-5.28
-3.80
-2.20
-0.32
1.84
4.09
6.06
7.41
8.02
8.03
7.69
7.25
6.79
6.20
5.34
4.16
2.80
1.56
0.71
0.38
0.48
0.77
0.98
0.89
0.47
-0.19
-0.93
-1.58
-2.06
-2.40
-2.71
-3.11
-3.68
-4.42
-5.25
-6.09
-6.87
-7.56
-8.16
-8.59
-8.73
-8.38
-7.36
-5.64
-3.38
-0.89
1.46
3.35
4.68
5.47
5.90
6.14
6.33
6.45
6.48
6.34
6.06
5.72
5.44
5.35
5.43
5.53
5.41
4.84
3.77
2.33
0.88
-0.19
-0.68
-0.63
-0.36
-0.27
-0.63
-1.45
-2.50
-3.45
-4.11
-4.55
-5.01
-5.77
-6.96
-8.47
-9.96
-11.08
-11.57
-11.45
-10.86
-10.05
-9.14
-8.12
-6.83
-5.06
-2.73
0.03
2.84
5.17
6.64
7.10
6.78
6.13
5.65
5.58
5.89
6.23
6.29
5.94
5.38
5.00
5.13
5.89
7.09
8.27
8.95
8.84
8.02
6.81
5.58
4.59
3.98
3.84
4.14
4.72
5.35
5.88
6.24
6.44
6.71
7.54
9.61
13.29
18.25
23.55
28.00
30.39
29.89
26.30
20.26
13.23
7.04
3.41
3.57
7.99
15.83
24.97
31.69
32.45
26.64
16.97
7.24
-0.74
-6.70
-11.53
-16.62
-22.12
-27.89
-33.36
-37.98
-41.57
-44.19
-45.61
-45.53
-43.70
-40.13
-35.21
-29.48
-23.67
-18.59
-14.83
-12.55
-11.67
-12.04
-13.38
-15.36
-17.40
-18.88
-19.44
-19.01
-17.73
-15.90
-13.78
-11.40
-8.64
-5.33
-1.56
2.21
5.37
7.59
9.04
10.29
12.01
14.41
17.10
19.12
19.43
17.43
13.28
7.75
1.91
-3.31
-7.35
-9.93
-10.93
-10.30
-8.07
-4.46
-0.03
4.36
7.71
9.23
8.51
5.73
1.53
-3.17
-7.40
-10.38
-11.58
-10.85
-8.37
-4.62
-0.37
3.36
5.48
5.07
1.64
-4.41
-11.72
-18.18
-21.57
-20.43
-14.77
-6.08
3.33
11.37
17.03
20.54
22.85
24.78
26.47
27.54
27.59
26.85
26.17
26.52
28.30
30.96
33.30
34.17
33.18
30.80
27.99
25.55
23.65
21.88
19.61
16.48
12.61
8.58
5.09
2.60
1.11
0.22
-0.66
-2.03
-4.06
-6.55
-8.97
-10.78
-11.62
-11.48
-10.75
-9.97
-9.67
-10.14
-11.31
-12.75
-13.91
-14.30
-13.72
-12.32
-10.51
-8.77
-7.43
-6.57
-6.11
-5.91
-5.91
-6.13
-6.54
-6.95
-7.16
-7.04
-6.81
-6.94
-7.96
-10.04
-12.76
-15.27
-16.61
-16.24
-14.29
-11.54
-9.02
-7.53
-7.39
-8.32
-9.66
-10.65
-10.71
-9.59
-7.50
-4.99
-2.82
-1.66
-1.79
-2.87
-3.99
-3.96
-1.79
2.92
9.69
17.31
24.16
28.78
30.47
29.86
29.01
30.95
38.56
53.16
73.47
95.45
113.42
122.15
118.99
104.96
84.25
62.42
44.08
31.31
23.54
18.67
14.56
10.04
5.09
0.17
-4.36
-8.57
-12.71
-16.81
-20.46
-23.13
-24.58
-25.30
-26.38
-29.05
-34.03
-41.13
-49.30
-56.99
-62.68
-65.32
-64.47
-60.27
-53.39
-44.84
-35.89
-27.75
-21.27
-16.53
-12.70
-8.41
-2.43
5.56
14.47
22.10
25.95
24.49
17.91
8.28
-1.38
-8.33
-11.26
-10.67
-8.32
-6.18
-5.37
-5.73
-6.22
-5.76
-4.01
-1.59
0.18
0.13
-2.17
-6.25
-11.07
-15.48
-18.76
-20.70
-21.44
-21.27
-20.34
-18.71
-16.39
-13.51
-10.44
-7.82
-6.34
-6.48
-8.25
-11.10
-14.04
-16.08
-16.64
-15.83
-14.42
-13.35
-13.31
-14.41
-16.10
-17.57
-18.10
-17.43
-15.78
-13.75
-11.93
-10.66
-9.95
-9.53
-9.05
-8.28
-7.23
-6.06
-4.98
-4.12
-3.42
-2.69
-1.75
-0.57
0.69
1.78
2.43
2.51
1.99
0.87
-0.81
-3.05
-5.81
-8.90
-11.94
-14.44
-15.98
-16.43
-16.04
-15.34
-14.95
-15.26
-16.24
-17.52
-18.57
-19.02
-18.83
-18.28
-17.85
-17.85
-18.32
-18.96
-19.35
-19.11
-18.10
-16.43
-14.42
-12.35
-10.37
-8.42
-6.28
-3.71
-0.66
2.69
5.96
8.74
10.83
12.34
13.64
15.17
17.21
19.72
22.37
24.69
26.30
27.06
27.12
26.78
26.42
26.27
26.46
27.06
28.16
29.94
32.59
36.11
40.10
43.76
46.00
45.84
42.82
37.21
29.92
22.21
15.15
9.35
4.89
1.42
-1.52
-4.25
-6.85
-9.21
-11.15
-12.62
-13.77
-14.79
-15.80
-16.66
-17.05
-16.60
-15.15
-12.94
-10.53
-8.60
-7.62
-7.65
-8.35
-9.18
-9.70
-9.70
-9.36
-9.03
-9.06
-9.63
-10.63
-11.72
-12.49
-12.70
-12.40
-11.90
-11.53
-11.47
-11.60
-11.60
-11.16
-10.17
-8.84
-7.60
-6.81
-6.64
-7.03
-7.72
-8.46
-9.11
-9.71
-10.34
-11.08
-11.81
-12.31
-12.27
-11.52
-10.11
-8.38
-6.81
-5.78
-5.31
-5.09
-4.59
-3.43
-1.58
0.53
2.27
3.13
3.01
2.27
1.48
1.15
1.44
2.14
2.83
3.14
2.95
2.46
1.99
1.83
2.02
2.32
2.34
1.77
0.59
-0.90
-2.21
-2.94
-2.94
-2.49
-2.13
