1588970444.00
64.000000
-0.00
-0.00
-0.00
-0.00
-0.00
-0.00
-0.00
-0.00
-0.00
-0.00
0.00
0.01
0.01
-0.00
-0.03
-0.05
-0.05
0.00
0.13
0.36
0.66
1.01
1.37
1.72
2.06
2.40
2.79
3.24
3.80
4.42
5.06
5.66
6.20
6.68
7.15
7.68
8.31
9.14
10.09
11.04
11.88
12.56
13.14
13.76
14.65
15.96
17.91
20.32
22.90
25.38
27.58
29.57
31.68
34.32
37.81
42.54
48.15
54.10
59.83
64.97
69.58
74.14
79.34
85.71
93.76
103.00
112.62
121.73
129.77
136.75
143.30
150.75
157.77
166.64
177.95
191.79
206.97
220.57
228.25
225.36
208.53
176.87
132.76
80.05
23.07
-34.94
-92.44
-149.16
-205.23
-260.37
-313.74
-363.87
-409.83
-450.91
-486.50
-515.74
-537.23
-549.22
-549.96
-538.37
-514.21
-478.67
-433.88
-382.45
-327.02
-269.84
-212.63
-156.66
-102.95
-52.37
-5.90
35.58
71.43
101.35
125.50
144.38
158.69
169.15
176.37
180.75
182.57
182.07
179.51
175.23
169.65
163.18
156.15
148.81
141.30
133.69
126.02
118.33
110.69
103.16
95.80
88.68
81.83
75.25
68.95
62.95
57.25
51.86
46.78
42.03
37.59
33.45
29.61
26.07
22.81
19.83
17.11
14.67
12.48
10.54
8.83
7.35
6.07
4.97
4.05
3.27
2.62
2.09
1.65
1.30
1.01
0.79
0.61
0.48
0.38
0.30
0.25
0.22
0.20
0.20
0.21
0.23
0.26
0.29
0.32
0.36
0.41
0.45
0.49
0.53
0.58
0.62
0.67
0.72
0.78
0.84
0.90
0.98
1.06
1.16
1.27
1.39
1.53
1.69
1.86
2.05
2.27
2.51
2.77
3.06
3.37
3.71
4.08
4.48
4.92
5.38
5.88
6.41
6.99
7.60
8.26
8.95
9.69
10.47
11.30
12.16
13.07
14.03
15.06
16.14
17.27
18.44
19.61
20.72
21.70
22.45
22.80
22.65
21.85
20.31
17.95
14.79
10.89
6.36
1.43
-3.66
-8.64
-13.22
-17.14
-20.23
-22.33
-23.43
-23.55
-22.79
-21.32
-19.34
-17.05
-14.63
-12.23
-9.96
-7.87
-5.97
-4.22
-2.63
-1.15
0.26
1.64
3.07
4.63
6.38
8.44
10.93
13.84
17.17
20.96
25.21
29.90
34.99
40.38
45.99
51.78
57.36
62.51
67.05
70.89
74.03
76.55
78.64
80.60
82.86
85.39
88.31
91.81
96.01
101.04
106.94
113.74
121.47
130.18
139.27
148.28
156.82
164.42
170.59
174.68
175.77
172.38
167.11
160.61
153.26
145.31
136.93
128.26
119.45
110.65
102.13
94.22
86.63
79.25
72.02
64.86
57.75
50.68
43.73
37.10
31.10
25.56
20.38
15.44
10.56
5.56
0.33
-5.11
-10.51
-15.54
-20.17
-24.41
-28.44
-32.63
-37.34
-42.84
-49.11
-55.84
-62.50
-68.79
-74.60
-80.18
-86.07
-92.91
-101.09
-110.64
-121.17
-132.05
-142.77
-153.08
-163.12
-173.36
-184.48
-197.24
-212.44
-230.59
-251.45
-273.57
-294.15
-309.48
-316.10
-311.98
-297.38
-274.74
-247.73
-219.91
-193.72
-170.24
-149.60
-131.62
-116.24
-103.53
-93.31
-84.88
-77.15
-68.96
-59.69
-49.45
-39.06
-29.62
-21.89
-16.06
-11.61
-7.67
-3.56
0.90
5.34
9.02
11.32
12.04
11.47
10.22
8.90
7.84
7.05
6.26
5.08
3.25
0.71
-2.38
-5.59
-8.32
-9.92
-9.88
-7.90
-4.07
1.16
7.15
13.19
18.75
23.51
27.34
30.18
31.96
32.61
32.08
30.53
28.27
25.72
23.32
21.28
19.61
18.17
16.73
15.21
13.59
12.01
10.65
9.66
9.09
8.86
8.76
8.40
7.38
5.45
2.56
-0.91
-4.42
-7.44
-9.78
-11.65
-13.61
-16.25
-19.81
-23.99
-27.93
-30.57
-30.99
-28.80
-24.23
-17.98
-10.94
-3.92
2.52
8.14
12.84
16.63
19.47
21.39
22.40
22.65
22.30
21.53
20.60
19.66
18.86
18.23
17.74
17.25
16.67
15.94
15.05
14.00
12.76
11.24
9.31
6.94
4.19
1.25
-1.69
-4.46
-7.07
-9.63
-12.26
-15.13
-18.31
-21.74
-25.15
-28.13
-30.04
-30.53
-29.30
-26.22
-21.42
-15.41
-8.93
-2.75
2.59
6.77
9.47
10.64
10.56
9.72
8.56
7.32
6.05
4.63
2.94
0.34
-3.29
-7.32
-10.70
-12.68
-13.20
-12.81
-12.28
-12.39
-15.30
-21.92
-31.29
-41.16
-49.71
-56.31
-61.36
-65.50
-69.65
-77.85
-92.07
-110.86
-130.32
-147.03
-159.56
-167.98
-172.65
-174.65
-180.49
-193.89
-213.53
-234.34
-251.88
-264.58
-273.11
-278.59
-283.39
-297.03
-325.37
-367.01
-414.52
-459.68
-496.86
-523.03
-536.87
-494.74
-383.35
-227.27
-72.37
48.44
127.63
173.37
192.72
199.46
200.42
191.43
170.40
141.56
113.88
95.27
88.12
90.83
100.85
114.35
123.05
122.47
114.19
103.92
96.75
94.56
96.77
102.40
109.47
113.22
111.21
104.60
97.00
91.63
89.83
91.48
96.27
103.13
109.47
113.65
115.70
117.00
119.00
122.65
128.45
136.80
147.49
159.33
171.11
182.12
192.26
201.86
211.44
221.75
233.73
248.34
266.48
288.54
313.71
339.50
361.87
376.11
378.47
367.71
345.70
316.73
285.85
257.05
232.13
210.87
192.01
174.45
157.80
142.29
128.13
115.08
102.42
89.35
75.50
61.19
47.28
34.77
24.31
15.92
9.08
3.03
-2.91
-9.00
-15.02
-20.54
-25.07
-28.37
-30.59
-32.16
-33.62
-35.44
-37.79
-40.54
-43.45
-46.28
-49.00
-51.76
-54.72
-57.88
-60.98
-63.47
-64.64
-63.94
-61.03
-56.03
-49.49
-42.23
-35.20
-29.20
-24.78
-22.02
-20.72
-20.48
-20.83
-21.47
-22.23
-23.12
-24.22
-25.62
-27.32
-29.24
-31.19
-32.97
-34.50
-35.83
-37.19
-38.93
-41.42
-44.86
-49.24
-54.31
-59.72
-65.16
-70.48
-75.84
-81.62
-88.30
-96.25
-105.54
-115.82
-126.33
-136.14
-144.33
-150.31
-154.04
-156.19
-158.08
-161.30
-167.05
-175.41
-184.88
-192.61
-195.32
-190.57
-177.81
-158.72
-136.47
-114.58
-95.70
-80.98
-70.26
-62.69
-57.41
-53.92
-52.03
-51.56
-52.15
-53.29
-54.37
-54.89
-54.30
-51.80
-46.08
-35.39
-18.26
5.60
34.41
64.21
89.66
105.53
108.31
97.35
74.99
45.82
15.44
-10.81
-28.95
-36.97
-34.92
-24.70
-9.42
7.52
23.22
35.90
44.95
50.64
53.59
54.55
54.19
53.08
51.81
50.85
50.42
50.46
50.65
50.62
50.19
49.38
48.52
47.90
47.62
47.43
46.82
45.18
42.09
37.46
31.55
24.87
17.92
11.06
4.42
-2.18
-9.05
-16.60
-25.06
-34.31
-43.66
-51.87
-57.36
-58.60
-54.72
-45.81
-32.99
-18.02
-2.81
11.19
23.20
33.11
41.24
47.99
53.66
58.34
61.98
64.49
65.87
66.27
65.92
65.11
64.03
62.81
61.54
60.32
59.27
58.50
57.88
56.99
55.23
51.98
46.98
40.53
33.38
26.62
21.26
18.00
17.10
18.29
20.87
23.71
25.59
25.48
23.07
19.10
15.22
13.51
15.59
21.93
31.59
42.61
52.78
60.49
65.11
66.95
66.80
65.51
63.70
61.82
60.24
59.26
58.99
59.23
59.42
58.80
56.80
53.27
48.61
43.46
38.40
33.62
28.92
23.92
18.32
12.16
5.79
-0.30
-5.77
-10.49
-14.70
-18.73
-22.95
-27.63
-32.92
-38.81
-45.12
-51.39
-56.77
-60.13
-60.27
-56.33
-48.20
-36.66
-23.13
-9.11
4.44
17.40
30.20
43.18
56.07
67.85
77.22
83.26
85.96
86.10
84.73
82.57
79.78
76.22
71.85
67.14
62.83
59.65
57.73
56.50
54.97
52.19
47.67
41.53
34.39
27.02
20.01
13.66
7.90
2.38
-3.32
-9.58
-16.65
-24.54
-32.89
-40.98
-47.67
-51.61
-51.67
-47.29
-38.85
-27.60
-15.31
-3.70
6.13
13.86
19.82
24.54
28.44
31.60
33.81
34.83
34.55
33.16
31.02
28.55
26.07
23.72
21.52
19.39
17.33
15.44
13.92
12.93
12.45
12.20
11.66
10.22
7.46
3.36
-1.69
-6.94
-11.62
-15.20
-17.57
-19.12
-20.60
-22.77
-26.11
-30.54
-35.34
-39.31
-41.09
-39.63
-34.57
-26.36
-16.02
-4.89
5.92
15.65
24.03
30.99
36.52
40.52
42.88
43.64
43.02
41.52
39.71
38.08
36.89
36.16
35.70
35.28
34.78
34.12
33.38
32.57
31.62
30.32
28.34
25.41
21.36
16.28
10.45
4.35
-1.48
-6.63
-10.92
-14.52
-17.86
-21.53
-26.00
-31.48
-37.67
-43.82
-48.88
-51.72
-51.43
-47.60
-40.43
-30.68
-19.56
-8.34
1.88
10.40
17.04
21.95
25.46
27.84
29.26
29.73
29.29
28.08
26.40
24.66
23.21
22.16
21.38
20.60
19.59
18.28
16.79
15.29
13.83
12.20
10.05
7.04
3.05
-1.62
-6.42
-10.68
-13.98
-16.22
-17.75
-19.17
-21.18
-24.31
-28.79
-34.36
-40.30
-45.48
-48.61
-48.57
-44.75
-37.39
-27.41
-16.23
-5.28
4.37
12.10
17.79
21.65
23.96
24.96
24.84
23.81
22.15
20.29
18.61
17.38
16.68
16.31
15.91
15.17
13.97
12.41
10.81
9.37
8.12
6.79
4.94
2.21
-1.44
-5.69
-10.03
-13.83
-16.83
-19.07
-21.00
-23.25
-26.38
-30.64
-35.85
-41.35
-46.06
-48.80
-48.57
-44.89
-38.01
-28.82
-18.64
-8.78
-0.33
6.23
10.79
13.69
15.35
16.15
16.40
16.24
15.78
15.14
14.45
13.81
13.26
12.82
12.36
11.79
11.04
10.10
9.03
7.89
6.68
5.30
3.61
1.46
-1.21
-4.27
-7.49
-10.56
-13.27
-15.55
-17.57
-19.70
-22.39
-25.95
-30.47
-35.60
-40.63
-44.55
-46.31
-45.15
-40.81
-33.70
-24.74
-15.10
-5.86
2.28
9.07
14.54
18.79
21.90
23.83
24.57
24.22
23.05
21.48
19.91
18.66
17.77
17.09
16.39
15.46
14.25
12.90
11.61
10.57
9.76
8.94
7.77
5.93
3.31
0.07
-3.45
-6.84
-9.81
-12.30
-14.48
-16.76
-19.58
-23.31
-28.05
-33.61
-39.36
-44.39
-47.58
-48.01
-45.15
-39.17
-30.89
-21.55
-12.40
-4.38
2.12
7.18
11.14
14.26
16.68
18.34
19.14
19.06
18.29
17.13
15.95
15.02
14.37
13.95
13.54
12.96
12.14
11.15
10.14
9.25
8.53
7.81
6.79
5.14
2.68
-0.57
-4.31
-8.16
-11.74
-14.87
-17.55
-19.93
-22.31
-24.93
-28.02
-31.65
-35.68
-39.64
-42.78
-44.28
-43.38
-39.73
-33.55
-25.58
-16.82
-8.35
-0.94
4.99
9.32
12.17
13.73
14.15
13.60
12.27
10.44
8.49
6.88
5.92
5.76
6.28
7.15
7.97
8.51
8.72
8.75
8.76
8.74
8.43
7.38
5.20
1.81
-2.46
-7.02
-11.18
-14.52
-16.99
-18.90
-20.73
-22.96
-25.85
-29.40
-33.32
-37.07
-39.90
-41.08
-39.93
-36.08
-29.66
-21.33
-12.08
-3.06
4.76
10.81
14.97
17.50
18.77
19.18
18.99
18.39
17.48
16.42
15.38
14.50
13.82
13.26
12.70
12.03
11.29
10.60
10.10
9.82
9.59
9.04
7.75
5.38
1.94
-2.29
-6.84
-11.16
-14.95
-18.13
-20.97
-23.85
-27.17
-31.08
-35.40
-39.54
-42.72
-44.07
-42.97
-39.20
-33.07
-25.31
-16.83
-8.48
-0.84
5.77
11.26
15.59
18.73
20.65
21.35
20.92
19.64
17.90
16.09
14.54
13.37
12.55
11.90
11.22
10.42
9.59
8.92
8.57
8.54
8.55
8.10
6.77
4.30
0.85
-3.10
-6.96
-10.32
-13.06
-15.44
-17.93
-20.96
-24.74
-29.15
-33.74
-37.84
-40.68
-41.55
-39.99
-35.93
-29.70
-22.05
-13.90
-6.18
0.48
5.78
9.79
12.77
14.98
16.63
17.77
18.43
18.66
18.61
18.44
18.30
18.25
18.21
18.10
17.76
17.18
16.42
15.62
14.92
14.31
13.63
12.54
10.72
7.98
4.44
0.45
-3.41
-6.65
-9.06
-10.78
-12.27
-14.07
-16.64
-20.07
-24.15
-28.25
-31.53
-33.10
-32.24
-28.62
-22.36
-14.12
-4.85
4.35
12.56
19.20
24.04
27.19
28.84
29.33
28.99
28.19
27.31
26.63
26.21
25.88
25.29
23.85
21.08
16.62
10.51
3.15
-4.78
-12.53
-19.64
-25.99
-32.03
-38.41
-45.66
-53.73
-61.80
-68.53
-72.57
-73.28
-71.10
-67.62
-64.99
-65.14
-69.07
-76.46
-85.84
-94.99
-101.67
-104.06
-101.17
-92.74
-79.13
-60.92
-38.64
-12.66
16.85
49.53
84.44
119.74
152.76
180.39
199.86
209.53
209.38
201.02
187.17
170.92
154.99
141.21
130.29
122.05
115.77
110.55
105.53
99.94
93.18
84.84
74.73
63.03
50.24
37.24
24.89
13.77
3.98
-4.93
-13.76
-23.24
-33.72
-45.02
-56.44
-67.09
-76.12
-83.00
-87.53
-89.84
-90.16
-88.76
-85.88
-81.79
-76.79
-71.25
-65.57
-60.13
-55.23
-51.07
-47.79
-45.42
-43.97
-43.21
-42.71
-41.75
-39.63
-35.82
-30.22
-23.22
-15.52
-7.90
-1.04
4.57
8.57
10.61
10.31
7.43
2.03
-5.50
-14.33
-23.51
-32.16
-39.62
-45.57
-50.03
-53.29
-55.76
-57.89
-59.87
-61.59
-62.58
-62.08
-59.29
-53.63
-45.06
-34.12
-21.89
-9.65
1.37
10.35
16.92
21.10
23.19
23.54
22.50
20.37
17.45
14.05
10.44
6.83
3.31
-0.14
-3.61
-7.23
-11.15
-15.41
-19.96
-24.69
-29.38
-33.81
-37.75
-41.00
-43.46
-45.09
-45.98
-46.33
-46.54
-47.02
-48.25
-50.53
-53.90
-58.12
-62.63
-66.70
-69.62
-70.83
-69.97
-66.84
-61.30
-53.16
-42.11
-27.78
-9.77
12.18
37.96
66.89
97.50
127.65
154.97
177.26
193.12
202.07
204.51
201.43
194.11
183.99
172.56
161.27
151.19
142.77
135.65
128.80
120.93
111.07
98.86
84.57
68.84
52.39
36.03
20.57
6.74
-5.03
-14.91
-23.89
-33.65
-46.02
-62.37
-83.01
-107.11
-132.93
-158.36
-181.39
-200.51
-214.79
-223.75
-227.31
-225.71
-219.31
-208.60
-194.11
-176.43
-156.37
-134.95
-113.37
-92.88
-74.59
-59.33
-47.57
-39.45
-34.77
-32.84
-32.41
-31.66
-28.48
-20.98
-8.16
9.68
30.82
52.53
71.79
86.05
93.87
95.02
90.33
81.21
69.17
55.48
41.00
26.35
11.97
-1.64
-13.98
-24.56
-32.95
-38.80
-41.77
-41.53
-37.87
-30.85
-20.99
-9.33
2.78
13.93
23.05
29.66
33.86
36.22
37.40
37.97
38.25
38.37
38.32
38.04
37.45
36.44
35.00
33.14
31.08
29.10
27.50
26.45
25.84
25.39
24.66
23.38
21.49
19.25
17.04
15.17
13.66
12.28
10.54
7.93
4.05
-1.20
-7.57
-14.38
-20.63
-25.18
-27.03
-25.66
-21.14
-14.25
-6.16
1.92
9.01
14.71
19.14
22.82
26.36
30.14
34.12
37.88
40.83
42.55
43.05
42.76
42.40
42.57
43.52
45.03
46.59
47.63
47.76
46.86
44.86
41.71
37.31
31.62
24.80
17.23
9.40
1.70
-5.72
-13.00
-20.45
-28.34
-36.70
-45.16
-52.97
-59.11
-62.52
-62.35
-58.39
-51.11
-41.57
-31.12
-20.87
-11.44
-2.97
4.68
11.57
17.46
21.86
24.25
24.37
22.35
18.71
14.18
9.53
5.41
2.23
0.20
-0.69
-0.60
0.16
1.26
2.30
2.93
2.83
1.81
-0.11
-2.76
-5.83
-8.97
-11.96
-14.87
-17.95
-21.54
-25.82
-30.51
-34.86
-37.83
-38.33
-35.67
-29.84
-21.53
-11.90
-2.29
6.24
13.07
18.06
21.43
23.55
24.72
25.11
24.74
23.59
21.67
19.09
16.05
12.85
9.78
7.11
4.98
3.46
2.46
1.77
1.11
0.12
-1.42
-3.56
-6.02
-8.28
-9.68
-9.71
-8.28
-5.96
-3.84
-3.15
-4.76
-8.65
-13.75
-18.30
-20.45
-18.97
-13.64
-5.30
4.62
14.60
23.60
31.05
36.85
41.07
43.81
45.23
45.58
45.24
44.61
43.94
43.16
41.89
39.63
36.08
31.33
25.89
20.45
15.68
11.92
9.09
6.86
4.84
2.81
0.74
-1.24
-3.05
-4.65
-6.14
-7.65
-9.27
-11.13
-13.32
-15.92
-18.88
-21.88
-24.30
-25.39
-24.47
-21.27
-16.09
-9.75
-3.28
2.40
6.79
9.88
11.91
13.26
14.17
14.68
14.70
14.19
13.25
12.18
11.32
10.87
10.81
10.92
10.91
10.60
10.02
9.31
8.62
7.95
7.11
5.87
4.09
1.77
-0.82
-3.41
-5.77
-7.88
-9.85
-11.92
-14.26
-17.00
-20.08
-23.21
-25.89
-27.46
-27.22
-24.70
-19.90
-13.43
-6.37
0.04
4.93
7.93
9.21
9.28
8.70
7.85
6.98
6.19
5.57
5.15
4.87
4.49
3.71
2.32
0.34
-1.83
-3.63
-4.56
-4.36
-3.15
-1.29
0.72
2.46
3.71
4.44
4.68
4.43
3.59
1.96
-0.60
-4.07
-8.30
-12.96
-17.69
-22.12
-25.88
-28.57
-29.73
-28.95
-26.03
-21.15
-14.90
-8.14
-1.69
3.85
8.29
11.70
14.34
16.39
18.01
19.22
20.04
20.48
20.52
20.10
19.10
17.44
15.13
12.35
9.43
6.81
4.81
3.60
3.13
3.21
3.49
3.63
3.27
2.17
0.26
-2.38
-5.49
-8.71
-11.75
-14.45
-16.83
-19.05
-21.24
-23.46
-25.68
-27.83
-29.84
-31.65
-33.06
-33.73
-33.25
-31.34
-28.04
-23.82
-19.38
-15.31
-11.89
-8.88
-5.79
-2.23
1.88
6.18
10.09
13.05
14.86
15.62
15.72
15.61
15.58
15.78
16.16
16.61
17.04
17.40
17.69
17.93
18.13
18.35
18.65
19.07
19.63
20.21
20.56
20.35
19.22
16.90
13.40
9.04
4.39
0.11
-3.22
-5.38
-6.60
-7.44
-8.66
-10.81
-13.96
-17.68
-21.09
-23.20
-23.24
-20.90
-16.42
-10.53
-4.14
1.91
7.02
11.02
14.03
16.29
18.01
19.25
19.91
19.83
18.88
17.02
14.39
11.26
8.01
5.06
2.81
1.56
1.36
2.04
3.19
4.32
5.01
5.01
4.33
3.22
2.06
1.17
0.74
0.66
0.66
0.35
-0.58
-2.28
-4.71
-7.70
-11.05
-14.56
-18.14
-21.70
-25.14
-28.25
-30.62
-31.73
-31.02
-28.17
-23.27
-17.00
-10.41
-4.66
-0.58
1.53
1.90
1.07
-0.33
-1.80
-3.00
-3.82
-4.21
-4.30
-4.28
-4.37
-4.67
-5.05
-5.19
-4.65
-3.15
-0.71
2.30
5.29
7.68
9.03
9.23
8.36
6.69
4.62
2.61
1.05
0.25
0.36
1.29
2.75
4.28
5.31
5.32
3.95
1.05
-3.25
-8.55
-14.32
-20.00
-25.12
-29.30
-32.23
-33.55
-33.02
-30.53
-26.35
-21.14
-15.88
-11.53
-8.78
-7.73
-7.95
-8.60
-8.74
-7.66
-5.02
-0.92
4.24
9.89
15.48
20.58
24.83
27.92
29.56
29.46
27.46
23.60
18.17
11.74
5.02
-1.20
-6.19
-9.39
-10.54
-9.60
-6.93
-3.18
0.76
4.00
5.78
5.70
3.78
0.38
-3.89
-8.46
-12.90
-17.05
-20.95
-24.78
-28.62
-32.34
-35.48
-37.34
-37.21
-34.60
-29.50
-22.42
-14.29
-6.24
0.78
6.15
9.75
11.79
12.71
12.97
12.92
12.68
12.28
11.56
10.38
8.75
6.79
4.78
3.00
1.63
0.69
0.07
-0.44
-0.96
-1.45
-1.75
-1.60
-0.82
0.60
2.48
4.43
6.04
6.99
7.11
6.44
5.09
3.18
0.78
-2.07
-5.27
-8.72
-12.22
-15.66
-19.01
-22.17
-24.98
-27.06
-27.81
-26.71
-23.53
-18.52
-12.36
-5.98
-0.20
4.45
7.87
10.24
11.87
12.98
13.65
13.83
13.43
12.42
10.90
9.12
7.40
6.00
5.00
4.30
3.73
3.12
2.52
2.10
2.06
2.50
3.23
3.92
4.17
3.77
2.70
1.22
-0.37
-1.79
-2.95
-3.90
-4.80
-5.85
-7.21
-8.97
-11.15
-13.64
-16.25
-18.73
-20.67
-21.69
-21.44
-19.81
-16.95
-13.28
-9.36
-5.70
-2.60
-0.02
2.26
4.51
6.94
9.51
11.97
14.04
15.44
16.04
15.88
15.10
13.81
12.13
10.13
7.94
5.71
3.69
2.03
0.86
0.15
-0.27
-0.67
-1.32
-2.35
-3.75
-5.32
-6.77
-7.85
-8.48
-8.80
-9.12
-9.84
-11.25
-13.52
-16.55
-20.00
-23.34
-25.90
-27.05
-26.31
-23.53
-18.95
-13.14
-6.79
-0.62
4.89
9.43
12.88
15.24
16.54
16.87
16.36
15.30
13.97
12.69
11.63
10.82
10.11
9.35
8.48
7.53
6.69
6.14
5.97
6.11
6.37
6.54
6.46
6.10
5.51
4.74
3.82
2.66
1.20
-0.61
-2.74
-5.19
-7.98
-11.26
-15.12
-19.43
-23.74
-27.21
-28.91
-28.14
-24.76
-19.26
-12.58
-5.68
0.70
6.18
10.76
14.49
17.37
19.40
20.61
21.09
21.10
20.87
20.53
20.06
19.32
18.16
16.54
14.58
12.54
10.74
9.40
8.57
8.09
7.59
6.64
4.92
2.39
-0.67
-3.67
-5.94
-7.00
-6.85
-6.08
-5.74
-6.96
-10.64
-17.13
-26.00
-36.12
-45.78
-52.99
-55.89
-53.22
-44.58
-30.68
-13.26
5.40
22.99
37.71
48.59
55.44
58.69
59.04
57.25
54.06
50.15
46.07
42.30
39.12
36.53
34.25
31.83
28.74
24.70
19.75
14.26
8.84
4.03
0.16
-2.77
-4.88
-6.34
-7.09
-6.98
-5.83
-3.67
-0.79
2.36
5.24
7.49
8.96
9.84
10.52
11.52
13.27
15.91
19.22
22.72
25.92
28.68
31.38
34.81
39.73
46.56
55.06
64.42
73.61
81.56
87.36
90.27
89.63
85.01
76.25
63.56
47.57
29.12
9.18
-11.35
-31.61
-50.88
-68.50
-83.99
-97.15
-107.96
-116.63
-123.40
-128.51
-132.07
-134.22
-135.05
-134.68
-133.38
-131.51
-129.63
-128.34
-128.13
-129.16
-131.23
-133.71
-135.67
-135.99
-133.49
-127.19
-116.53
-101.50
-82.76
-61.51
-39.14
-16.88
4.33
23.99
41.73
57.24
70.31
80.90
89.34
96.28
102.50
108.61
114.85
121.13
127.11
132.34
136.34
138.62
138.69
136.17
130.99
123.47
114.37
104.65
95.33
87.19
80.69
75.90
72.43
69.57
66.53
62.80
58.35
53.76
50.06
48.34
49.33
53.16
59.26
66.45
73.32
78.40
80.59
79.45
75.53
70.30
65.76
63.59
64.24
66.42
67.41
63.91
53.38
35.01
10.01
-18.99
-48.87
-77.02
-101.85
-122.70
-139.48
-152.22
-160.95
-165.82
-167.24
-166.03
-163.20
-159.62
-155.86
-152.03
-147.87
-142.97
-137.03
-129.87
-121.49
-111.98
-101.37
-89.62
-76.61
-62.24
-46.62
-30.20
-13.73
1.83
15.49
26.56
34.74
40.15
43.25
44.66
44.93
44.50
43.62
42.34
40.67
38.56
36.09
33.46
31.02
29.10
27.85
27.17
26.63
25.75
24.10
21.58
18.33
14.67
10.87
7.02
3.00
-1.30
-5.94
-10.84
-15.78
-20.49
-24.75
-28.25
-30.75
-31.93
-31.50
-29.32
-25.51
-20.54
-15.09
-9.88
-5.53
-2.31
-0.18
1.16
2.05
2.76
3.46
4.15
4.82
5.55
6.50
7.85
9.73
12.05
14.54
16.82
18.55
19.60
20.13
20.45
20.92
21.68
22.63
23.44
23.77
23.40
22.35
20.83
19.16
17.65
16.48
15.74
15.34
15.04
14.54
13.55
11.95
9.99
8.36
7.96
9.69
13.98
20.59
28.52
36.35
42.76
47.06
49.43
50.96
53.11
57.07
63.31
71.25
79.53
86.64
91.50
93.84
94.44
94.96
97.43
103.78
114.92
130.16
146.72
159.99
164.56
156.09
133.27
98.74
58.87
21.63
-6.20
-21.39
-25.19
-22.54
-19.80
-22.45
-33.41
-52.52
-77.25
-103.81
-128.36
-147.81
-160.03
-163.82
-158.73
-144.89
-123.07
-94.89
-62.88
-30.29
-0.42
24.28
42.87
55.88
64.88
71.38
76.11
78.91
79.28
77.06
73.03
68.72
65.80
65.34
67.32
70.57
73.28
73.59
70.20
62.69
51.58
38.02
23.51
9.45
-3.12
-13.57
-21.79
-27.99
-32.70
-36.58
-40.36
-44.62
-49.60
-55.10
-60.33
-64.17
-65.45
-63.50
-58.38
-51.12
-43.35
-36.76
-32.63
-31.37
-32.69
-35.82
-40.09
-45.14
-50.94
-57.58
-64.89
-72.35
-79.06
-84.09
-86.69
-86.47
-83.38
-77.59
-69.41
-59.37
-48.29
-37.30
-27.86
-21.46
-19.23
-21.59
-28.17
-37.81
-48.97
-60.14
-70.12
-78.21
-84.14
-87.92
-89.71
-89.88
-88.92
-87.41
-85.95
-84.80
-83.73
-82.04
-78.87
-73.55
-65.82
-55.87
-44.11
-31.09
-17.26
-3.05
11.11
24.57
36.53
46.14
52.76
56.09
55.96
52.70
46.88
39.20
30.21
20.21
9.27
-2.48
-14.56
-26.79
-38.39
-48.32
-55.72
-60.51
-63.31
-65.45
-67.98
-71.23
-76.17
-82.66
-89.66
-96.00
-101.29
-105.77
-110.60
-116.47
-123.33
-132.66
-144.92
-159.39
-174.68
-189.48
-202.20
-212.45
-220.00
-225.00
-230.83
-239.15
-248.37
-254.12
-251.72
-237.89
-213.99
-184.27
-136.88
-72.09
0.24
66.57
118.24
149.29
166.72
176.08
181.25
185.47
189.24
193.18
199.04
209.16
225.13
247.78
275.48
305.92
335.96
359.38
371.05
368.88
354.28
331.12
304.28
277.23
252.94
233.76
219.93
211.72
209.42
212.02
216.04
215.53
203.70
177.05
136.85
87.96
37.54
-7.31
-43.32
-67.34
-79.08
-82.96
-82.83
-79.58
-71.64
-58.00
-39.06
-17.14
4.46
22.08
33.36
38.51
39.44
38.31
36.43
34.29
31.88
29.43
27.04
24.92
23.30
21.87
19.79
16.19
11.11
5.73
2.07
1.72
5.28
12.25
21.06
29.53
35.48
37.37
34.60
27.53
17.11
4.84
-7.35
-17.58
-24.42
-27.32
-26.62
-23.38
-18.98
-14.77
-11.81
-10.61
-11.31
-13.65
-17.16
-21.17
-25.01
-28.22
-30.65
-32.53
-34.30
-36.44
-39.19
-42.37
-45.39
-47.44
-47.84
-46.40
-43.54
-40.27
-37.75
-36.87
-37.89
-40.43
-43.70
-47.17
-50.61
-54.14
-57.95
-62.19
-66.83
-71.72
-76.63
-81.24
-85.28
-88.22
-89.22
-87.29
-81.72
-72.47
-60.38
-47.00
-34.10
-23.46
-16.09
-12.05
-10.53
-10.33
-10.39
-9.90
-8.55
-6.38
-4.59
-4.45
-6.66
-10.95
-16.29
-21.34
-24.84
-26.08
-24.96
-23.86
-25.25
-30.44
-38.78
-48.29
-56.74
-62.40
-64.70
-63.82
-63.53
-67.15
-75.84
-87.96
-100.55
-111.29
-119.36
-125.49
-130.09
-136.42
-145.84
-157.30
-168.32
-177.48
-185.81
-195.33
-206.98
-196.78
-148.98
-63.75
39.51
134.41
202.12
237.44
246.85
239.35
227.03
212.90
195.25
171.61
142.24
110.41
80.20
58.88
48.98
49.83
54.84
57.18
52.73
41.56
26.73
12.02
0.36
-7.61
-12.44
-18.09
-28.73
-47.34
-74.81
-110.34
-152.20
-197.62
-242.79
-281.58
-307.43
-313.86
-296.64
-255.88
-196.94
-129.28
-63.44
-8.17
32.18
57.07
68.82
71.03
67.76
63.36
62.33
68.65
84.11
107.58
134.81
159.90
177.42
184.17
179.70
165.57
144.16
117.87
89.32
61.78
39.21
25.42
22.54
29.82
43.61
58.60
69.86
74.47
71.99
63.84
52.24
39.11
25.70
12.75
0.80
-9.65
-18.21
-24.85
-29.78
-33.28
-35.43
-35.96
-34.43
-30.49
-24.19
-16.00
-6.74
2.70
11.42
18.66
23.95
27.09
28.22
27.75
26.29
24.50
23.06
22.51
23.22
25.30
28.52
32.36
36.14
39.12
40.73
40.66
38.90
35.76
31.85
27.86
24.42
21.64
18.95
15.24
9.27
0.17
-12.11
-26.65
-41.94
-56.17
-67.72
-75.41
-78.58
-76.97
-70.70
-60.24
-46.46
-30.70
-14.65
-0.11
11.31
18.67
21.91
21.88
20.13
18.46
18.45
21.09
26.51
33.90
41.76
48.37
52.34
53.06
50.88
46.83
42.24
38.17
35.08
32.85
30.98
28.84
26.00
22.29
17.81
12.86
7.87
3.22
-0.82
-4.20
-7.23
-10.40
-14.32
-19.51
-26.12
-33.90
-42.14
-49.70
-55.19
-57.20
-54.67
-47.18
-35.33
-20.71
-5.73
7.07
15.79
19.82
20.06
18.67
18.26
21.08
28.40
40.33
56.04
74.21
93.34
111.90
128.22
140.44
146.74
145.95
138.13
124.96
109.38
94.72
83.67
77.54
76.18
78.42
82.65
87.22
90.46
90.54
85.63
74.40
56.70
33.98
9.09
-14.41
-33.32
-45.38
-49.60
-46.15
-36.14
-21.54
-5.15
9.67
19.55
21.95
15.96
2.55
-15.71
-35.45
-53.54
-67.61
-76.43
-79.68
-77.73
-71.42
-62.01
-50.99
-39.99
-30.47
-23.37
-19.02
-17.12
-17.06
-18.31
-20.62
-24.02
-28.61
-34.23
-40.32
-45.85
-49.68
-50.88
-49.12
-44.91
-39.48
-34.56
-31.81
-32.28
-35.99
-41.86
-47.94
-52.08
-52.52
-48.47
-40.32
-29.43
-17.59
-6.54
2.47
8.86
12.63
14.15
14.01
12.77
10.93
8.78
6.38
3.54
-0.06
-4.64
-10.16
-16.15
-21.86
-26.48
-29.42
-30.49
-29.91
-28.20
-25.96
-23.85
-22.46
-22.18
-23.19
-25.32
-28.17
-31.17
-33.68
-35.15
-35.13
-33.25
-29.18
-22.89
-14.62
-5.12
4.57
13.34
20.39
25.44
28.76
30.89
32.41
33.66
34.67
35.18
34.80
33.19
30.20
26.02
21.12
16.18
11.88
8.68
6.64
5.50
4.77
3.98
2.89
1.46
-0.08
-1.52
-2.74
-3.85
-5.07
-6.67
-8.75
-11.11
-13.21
-14.31
-13.62
-10.64
-5.36
1.71
9.63
17.28
23.70
28.31
30.95
31.90
31.65
30.65
29.21
27.44
25.37
23.13
20.96
19.24
18.28
18.17
18.64
19.26
19.61
19.52
19.19
18.98
19.23
20.00
21.04
21.94
22.28
21.84
20.55
18.47
15.54
11.66
6.80
1.19
-4.62
-9.75
-13.25
-14.38
-12.86
-8.90
-3.24
3.11
9.11
13.85
16.84
18.01
17.64
16.25
14.34
12.32
10.41
8.76
7.45
6.68
6.56
7.08
7.98
8.79
8.96
8.13
6.25
3.59
0.67
-2.10
-4.46
-6.39
-8.04
-9.63
-11.34
-13.32
-15.67
-18.34
-21.16
-23.69
-25.27
-25.21
-23.02
-18.68
-12.68
-5.92
0.62
6.10
10.11
12.61
13.84
14.17
13.90
13.23
12.23
10.93
9.39
7.76
6.30
5.23
4.72
4.75
5.11
5.51
5.68
5.51
5.08
4.49
3.83
3.04
1.97
0.47
-1.52
-3.92
-6.55
-9.20
-11.66
-13.78
-15.36
-16.19
-16.04
-14.74
-12.28
-8.84
-4.79
-0.57
3.42
6.93
9.92
12.45
14.60
16.39
17.69
18.35
18.27
17.55
16.48
15.42
14.74
14.57
14.90
15.51
16.16
16.62
16.72
16.35
15.40
13.81
11.57
8.81
5.73
2.60
-0.40
-3.21
-5.92
-8.71
-11.75
-15.08
-18.58
-21.89
-24.46
-25.70
-25.17
-22.68
-18.47
-13.17
-7.57
-2.42
1.80
4.99
7.34
9.15
10.67
11.97
13.00
13.65
13.89
13.80
13.50
13.16
12.85
12.60
12.37
12.08
11.67
11.08
10.26
9.20
7.95
6.56
5.08
3.56
2.05
0.61
-0.67
-1.71
-2.51
-3.16
-3.88
-4.96
-6.57
-8.80
-11.50
-14.37
-16.99
-18.94
-19.86
-19.51
-17.84
-14.98
-11.27
-7.14
-3.07
0.59
3.58
5.81
7.35
8.36
8.99
9.43
9.77
10.01
10.10
9.96
9.57
9.01
8.44
8.04
7.86
7.85
7.82
7.55
6.91
5.88
4.53
3.00
1.40
-0.26
-2.02
-3.91
-5.93
-7.96
-9.85
-11.43
-12.63
-13.47
-14.07
-14.61
-15.31
-16.32
-17.73
-19.48
-21.30
-22.74
-23.26
-22.39
-19.91
-16.06
-11.40
-6.64
-2.49
0.68
2.89
4.43
5.73
7.12
8.63
10.04
11.06
11.48
11.32
10.85
10.41
10.26
10.46
10.81
11.03
10.89
10.40
9.78
9.41
9.50
10.14
11.15
12.31
13.43
14.41
15.09
15.32
14.83
13.39
11.06
8.16
5.26
2.82
0.97
-0.59
-2.40
-4.84
-7.91
-11.12
-13.86
-15.71
-16.73
-17.39
-18.34
-20.02
-22.44
-25.12
-27.26
-28.11
-27.26
-24.92
-21.91
-19.44
-18.55
-19.72
-22.61
-26.21
-29.50
-31.85
-33.34
-34.58
-36.19
-38.37
-40.72
-42.46
-42.77
-41.11
-37.38
-31.86
-25.10
-17.58
-9.74
-1.84
5.95
13.46
20.40
26.24
30.40
32.46
32.39
30.58
27.70
24.38
20.95
17.43
13.65
9.49
5.02
0.53
-3.70
-7.44
-10.62
-13.28
-15.53
-17.50
-19.30
-21.10
-23.01
-25.03
-26.96
-28.39
-28.81
-27.77
-25.14
-21.14
-16.38
-11.56
-7.30
-3.84
-1.14
1.04
2.87
4.42
5.77
7.12
8.85
11.41
15.07
19.76
25.19
30.97
36.88
42.82
48.70
54.15
58.58
61.35
62.03
60.75
58.05
54.75
51.63
49.24
47.76
47.05
46.70
46.16
44.91
42.68
39.54
35.93
32.30
28.87
25.47
21.62
16.88
11.17
4.89
-1.22
-6.34
-9.87
-11.52
-11.32
-9.56
-6.63
-2.97
1.01
4.86
8.15
10.37
11.05
9.89
6.79
1.97
-4.20
-11.25
-18.76
-26.35
-33.63
-39.99
-44.76
-47.29
-47.17
-44.58
-40.18
-35.00
-30.00
-25.88
-22.87
-20.84
-19.48
-18.49
-17.67
-16.97
-16.39
-15.99
-15.89
-16.23
-17.12
-18.59
-20.44
-22.22
-23.30
-23.04
-21.13
-17.66
-13.18
-8.50
-4.39
-1.37
0.41
1.15
1.17
0.78
0.12
-0.76
-1.77
-2.74
-3.35
-3.30
-2.39
-0.64
1.69
4.20
6.51
8.34
9.58
10.19
10.17
9.50
8.21
6.41
4.31
2.18
0.16
-1.71
-3.57
-5.64
-8.08
-10.90
-13.92
-16.93
-19.70
-22.05
-23.81
-24.76
-24.69
-23.36
-20.69
-16.81
-12.05
-7.01
-2.36
1.33
3.77
5.00
5.37
5.37
5.40
5.57
5.79
5.84
5.54
4.92
4.19
3.61
3.29
3.25
3.34
3.35
3.15
2.66
1.89
0.91
-0.25
-1.57
-3.01
-4.58
-6.23
-7.97
-9.82
-11.83
-14.03
-16.38
-18.71
-20.62
-21.63
-21.28
-19.35
-15.99
-11.72
-7.22
-3.13
0.15
2.52
4.08
5.04
5.59
5.80
5.70
5.31
4.67
3.84
2.94
2.05
1.29
0.77
0.52
0.54
0.76
1.04
1.25
1.29
1.04
0.46
-0.43
-1.57
-2.91
-4.44
-6.18
-8.23
-10.63
-13.36
-16.24
-18.94
-21.03
-22.03
-21.58
-19.55
-16.08
-11.61
-6.71
-2.01
2.00
5.10
7.25
8.59
9.25
9.37
8.96
8.14
7.01
5.74
4.55
3.59
2.96
2.72
2.81
3.12
3.48
3.69
3.60
3.14
2.33
1.31
0.15
-1.08
-2.44
-3.94
-5.58
-7.32
-9.08
-10.98
-13.20
-15.90
-19.03
-22.18
-24.59
-25.48
-24.36
-21.20
-16.51
-11.09
-5.70
-0.91
3.10
6.34
8.95
11.04
12.71
14.02
15.01
15.79
16.43
17.00
17.54
17.98
18.22
18.15
17.72
16.99
16.13
15.26
14.50
13.75
12.83
11.53
9.70
7.34
4.61
1.80
-0.83
-3.08
-4.93
-6.61
-8.53
-11.12
-14.65
-18.93
-23.29
-26.54
-27.40
-24.84
-18.48
-8.77
3.13
15.72
27.49
37.29
44.48
48.82
50.47
49.77
47.16
43.13
38.16
32.69
27.13
21.81
16.97
12.79
9.30
6.40
3.92
1.72
-0.24
-1.88
-3.02
-3.51
-3.38
-2.80
-2.15
-1.85
-2.25
-3.55
-5.71
-8.50
-11.50
-14.33
-16.72
-18.63
-20.30
-22.10
-24.41
-27.34
-30.73
-34.12
-36.95
-38.69
-38.94
-37.52
-34.39
-29.70
-23.77
-17.07
-10.17
-3.65
2.08
6.78
10.44
13.17
15.15
16.49
17.27
17.52
17.34
16.89
16.41
16.09
16.04
16.21
16.39
16.32
15.81
14.86
13.71
12.76
12.42
12.94
14.33
16.31
18.45
20.26
21.50
22.15
22.47
22.77
23.26
23.84
24.13
23.62
21.82
18.51
13.80
8.16
2.39
-2.40
-5.03
-4.54
-0.71
5.64
12.70
18.24
20.54
19.22
15.42
11.21
8.58
8.45
10.44
13.21
15.37
16.15
15.55
14.08
12.10
9.61
6.25
1.81
-3.46
-8.76
-13.16
-15.96
-17.01
-16.65
-15.33
-13.38
-10.74
-7.17
-2.46
3.26
9.39
14.98
18.96
20.48
19.09
14.88
8.33
0.23
-8.52
-17.04
-24.60
-30.69
-35.00
-37.44
-38.15
-37.44
-35.77
-33.62
-31.42
-29.45
-27.92
-26.86
-26.24
-25.90
-25.64
-25.24
-24.55
-23.51
-22.15
-20.59
-18.96
-17.44
-16.24
-15.59
-15.67
-16.50
-18.01
-19.95
-22.03
-23.97
-25.64
-27.02
-28.24
-29.46
-30.80
-32.31
-33.92
-35.52
-37.01
-38.37
-39.78
-41.49
-43.71
-46.48
-49.57
-52.62
-55.17
-56.89
-57.48
-56.68
-54.12
-49.42
-42.31
-32.85
-21.44
-8.63
5.10
19.46
34.22
48.93
62.61
73.86
81.27
83.96
81.86
75.63
66.31
54.86
42.05
28.60
15.37
3.43
-6.19
-12.81
-16.39
-17.32
-16.15
-13.17
-8.20
-0.85
9.12
21.36
34.77
47.67
58.32
65.34
68.14
66.98
62.75
56.55
49.35
41.80
34.18
26.68
19.57
13.18
7.95
4.18
1.90
0.94
1.02
1.81
3.09
4.74
6.64
8.66
10.59
12.15
13.08
13.10
12.00
9.72
6.31
2.01
-2.81
-7.70
-12.28
-16.28
-19.64
-22.49
-25.02
-27.41
-29.67
-31.68
-33.28
-34.36
-34.85
-34.70
-33.80
-31.88
-28.60
-23.72
-17.31
-9.80
-1.97
5.30
11.26
15.44
17.72
18.28
17.49
15.78
13.58
11.20
8.80
6.47
4.23
2.15
0.40
-0.77
-1.07
-0.21
1.95
5.35
9.73
14.59
19.32
23.27
25.93
26.99
26.47
24.62
21.80
18.38
14.63
10.62
6.33
1.65
-3.40
-8.58
-13.49
-17.57
-20.32
-21.36
-20.64
-18.28
-14.65
-10.18
-5.28
-0.33
4.45
8.97
13.30
17.58
21.96
26.43
30.81
34.74
37.81
39.65
40.12
39.23
37.15
34.12
30.37
26.10
21.50
16.75
12.04
7.48
3.11
-1.13
-5.32
-9.48
-13.46
-17.01
-19.82
-21.68
-22.59
-22.79
-22.69
-22.65
-22.89
-23.31
-23.56
-23.13
-21.59
-18.78
-14.89
-10.48
-6.26
-2.89
-0.72
0.29
0.46
0.24
0.04
0.10
0.51
1.18
1.97
2.63
2.98
2.86
2.29
1.46
0.71
0.35
0.59
1.46
2.84
4.50
6.14
7.46
8.14
7.96
6.87
5.06
2.88
0.73
-1.13
-2.68
-4.10
-5.68
-7.70
-10.31
-13.43
-16.76
-19.80
-21.94
-22.54
-21.20
-17.85
-12.89
-6.99
-0.87
4.87
9.91
14.14
17.56
20.15
21.83
22.55
22.33
21.36
19.88
18.17
16.45
14.89
13.64
12.80
12.50
12.82
13.80
15.46
17.71
20.35
23.13
25.74
27.87
29.33
29.99
29.88
29.05
27.61
25.54
22.78
19.17
14.54
8.83
2.13
-5.26
-12.78
-19.66
-25.07
-28.31
-29.06
-27.49
-24.18
-19.96
-15.65
-11.83
-8.73
-6.38
-4.65
-3.44
-2.66
-2.16
-1.71
-1.12
-0.27
0.77
1.73
2.35
2.51
2.25
1.81
1.47
1.30
1.20
0.86
-0.03
-1.63
-3.83
-6.28
-8.58
-10.46
-11.86
-12.98
-14.19
-15.80
-17.95
-20.48
-22.89
-24.57
-24.99
-23.77
-20.78
-16.26
-10.74
-4.90
0.45
4.73
7.73
9.75
11.63
14.52
19.21
25.94
34.02
42.12
48.88
53.38
55.39
55.66
55.43
55.75
57.16
59.37
61.75
63.89
65.80
67.38
68.93
70.50
71.57
71.66
70.33
67.89
65.38
63.48
61.05
56.34
47.28
32.30
11.75
-13.05
-40.22
-68.16
-96.57
-126.09
-154.89
-178.15
-189.70
-184.23
-161.79
-128.35
-93.92
-61.81
-37.51
-23.62
-18.09
-22.14
-32.11
-46.89
-67.90
-92.29
-118.02
-143.42
-166.02
-183.79
-196.06
-202.47
-203.88
-200.83
-192.92
-179.72
-161.58
-138.94
-113.02
-86.09
-60.27
-37.96
-20.48
-7.47
2.15
9.57
15.90
21.40
25.09
25.86
22.65
15.70
7.00
-0.70
-4.82
-3.59
3.38
15.22
30.65
48.19
66.77
85.57
103.57
119.50
132.19
140.83
145.19
145.68
142.92
137.54
130.07
120.99
111.07
101.27
92.51
85.24
79.35
74.29
69.62
65.36
62.09
60.90
62.87
68.73
78.73
92.44
108.72
125.74
140.97
151.59
154.96
149.18
133.47
108.58
76.88
42.41
10.57
-12.94
-23.72
-20.39
-5.60
14.69
33.32
44.70
46.88
41.76
33.67
26.91
23.87
24.52
27.31
30.67
34.31
39.52
48.44
62.84
83.06
107.60
133.38
156.51
173.32
181.01
178.16
164.85
142.52
113.79
81.82
49.67
19.44
-8.19
-34.06
-59.85
-87.28
-117.00
-148.10
-178.25
-204.24
-222.96
-232.12
-230.86
-219.78
-200.83
-176.72
-150.28
-123.84
-98.74
-75.48
-54.04
-34.42
-16.88
-1.88
10.18
19.35
26.16
31.54
36.36
41.16
45.99
50.66
55.04
59.33
64.14
70.31
78.70
89.94
104.29
121.49
140.66
160.14
177.56
190.16
195.34
191.42
177.88
155.42
125.49
89.95
50.71
9.70
-31.26
-70.48
-106.43
-137.67
-162.87
-180.84
-190.86
-193.10
-188.79
-179.94
-168.67
-156.54
-144.04
-131.05
-117.63
-104.80
-94.71
-90.04
-93.03
-104.63
-124.29
-150.23
-179.89
-210.40
-238.97
-263.18
-281.26
-292.18
-295.78
-292.75
-284.57
-273.33
-261.30
-250.41
-241.32
-232.92
-222.58
-207.25
-185.06
-156.49
-124.60
-93.90
-68.49
-50.41
-38.79
-30.39
-20.86
-6.55
14.40
41.67
73.34
106.86
140.03
171.49
200.62
226.99
249.90
268.23
280.80
286.90
286.60
280.48
269.26
253.60
234.21
212.24
189.28
166.80
145.37
124.12
101.03
74.20
43.11
9.27
-24.18
-53.58
-76.30
-91.30
-99.18
-101.76
-101.55
-101.41
-104.01
-111.45
-124.67
-142.91
-163.50
-182.04
-193.09
-191.32
-173.20
-138.66
-92.15
-42.14
0.93
28.33
36.05
26.30
6.17
-15.89
-33.54
-44.68
-51.05
-56.11
-62.42
-70.47
-78.73
-84.93
-87.54
-86.32
-81.97
-75.53
-67.86
-59.57
-51.32
-44.08
-39.24
-38.28
-42.15
-50.64
-61.90
-72.45
-77.87
-74.16
-59.12
-33.44
-0.72
33.47
63.36
84.63
95.55
96.93
91.19
81.16
69.15
56.71
44.90
34.84
27.86
25.29
27.82
35.12
45.83
57.99
69.72
79.81
87.84
94.05
98.78
102.21
104.19
104.46
102.91
99.77
95.62
91.19
87.12
83.70
80.82
78.06
74.87
70.83
65.79
59.99
54.00
48.51
44.07
40.88
38.72
37.04
35.24
32.94
30.09
26.87
23.58
20.35
17.13
13.71
9.87
5.51
0.70
-4.36
-9.39
-14.01
-17.74
-19.90
-19.85
-17.15
-11.76
-4.22
4.46
13.12
20.73
26.71
30.99
33.82
35.57
36.55
36.88
36.62
35.80
34.52
32.98
31.37
29.80
28.31
26.86
25.39
23.84
22.24
20.57
18.89
17.20
15.52
13.94
12.47
11.03
9.42
7.34
4.51
0.87
-3.33
-7.67
-11.65
-15.05
-18.05
-21.18
-25.13
-30.34
-36.73
-43.72
-50.46
-56.21
-60.77
-64.42
-67.75
-71.15
-74.41
-76.62
-76.45
-72.87
-65.73
-56.15
-46.27
-38.55
-34.93
-36.37
-42.59
-52.41
-63.88
-74.21
-79.80
-76.51
-60.92
-31.75
8.85
55.50
101.33
140.76
171.55
195.04
214.33
231.34
244.99
251.41
246.56
229.37
203.49
176.44
156.55
149.41
155.60
170.83
188.01
200.00
201.66
190.64
167.09
132.87
91.12
45.96
2.24
-35.17
-62.42
-77.63
-81.42
-76.46
-66.57
-55.45
-45.90
-39.43
-36.38
-36.33
-38.43
-41.57
-44.57
-46.42
-46.59
-45.20
-42.97
-40.97
-40.12
-40.84
-42.88
-45.51
-47.88
-49.39
-49.91
-49.78
-49.50
-49.56
-50.16
-51.19
-52.40
-53.51
-54.41
-55.19
-56.10
-57.40
-59.24
-61.61
-64.44
-67.66
-71.25
-75.21
-79.52
-84.08
-88.75
-93.33
-97.72
-101.90
-105.93
-109.77
-113.17
-115.57
-116.26
-114.54
-110.02
-102.78
-93.28
-82.29
-70.55
-58.71
-47.23
-36.41
-26.50
-17.67
-10.06
-3.77
1.11
4.54
6.52
7.18
6.79
5.80
4.61
3.49
2.53
1.62
0.56
-0.79
-2.55
-4.67
-7.06
-9.55
-11.93
-14.01
-15.66
-16.73
-17.06
-16.39
-14.32
-10.46
-4.53
3.39
12.80
22.86
32.61
41.24
48.20
53.37
56.97
59.53
61.79
64.48
68.13
72.97
78.82
85.12
91.27
96.73
101.21
104.77
107.49
109.37
110.17
109.48
106.88
102.23
95.77
88.12
80.08
72.37
65.36
59.07
53.24
47.63
42.16
36.92
32.08
27.61
23.06
17.63
10.24
0.07
-13.07
-28.46
-44.54
-59.24
-70.55
-77.07
-78.46
-75.57
-70.20
-64.52
-60.37
-58.62
-58.94
-60.00
-60.02
-57.50
-51.79
-43.37
-33.70
-24.84
-18.79
-16.81
-18.73
-22.40
-23.64
-17.02
2.58
37.89
87.57
145.81
203.51
250.95
280.63
289.33
278.53
253.11
219.29
182.62
146.91
114.24
85.43
60.66
39.63
21.33
3.79
-15.80
-40.17
-70.61
-105.84
-141.81
-172.80
-193.49
-200.98
-195.67
-180.81
-160.72
-138.79
-116.44
-93.35
-68.74
-42.67
-16.55
7.37
27.06
41.41
50.13
52.93
48.69
35.44
11.27
-24.10
-68.21
-115.70
-159.65
-193.47
-212.49
-214.31
-198.61
-166.45
-120.63
-66.23
-10.84
36.42
67.24
76.78
65.37
38.52
5.15
-25.10
-44.05
-46.60
-31.49
-1.57
36.59
74.06
101.92
113.91
108.41
88.63
60.84
31.65
5.90
-14.10
-28.00
-36.11
-38.64
-35.80
-28.32
-17.85
-6.92
2.27
8.58
12.46
15.38
18.80
23.10
27.25
29.18
26.95
19.75
8.47
-4.52
-16.38
-24.82
-28.94
-29.35
-27.86
-26.70
-27.70
-31.80
-38.79
-47.61
-56.70
-64.60
-70.23
-73.17
-73.57
-71.98
-69.13
-65.67
-62.01
-58.20
-53.98
-48.87
-42.38
-34.22
-24.46
-13.58
-2.37
8.19
17.20
24.10
28.69
31.19
32.06
31.75
30.57
28.65
25.98
22.56
18.54
14.27
10.25
6.92
4.58
3.25
2.79
2.96
3.67
4.80
6.27
7.85
9.14
9.69
9.19
7.65
5.42
3.10
1.15
-0.26
-1.26
-2.09
-2.87
-3.40
-3.33
-2.26
-0.05
3.16
6.97
11.00
14.92
18.64
22.20
25.62
28.93
31.91
34.25
35.53
35.48
34.01
31.41
28.29
25.36
23.26
22.28
22.27
22.71
23.00
22.69
21.63
19.99
18.01
15.92
13.78
11.57
9.24
6.85
4.50
2.23
-0.14
-2.86
-6.19
-10.09
-14.14
-17.56
-19.48
-19.32
-17.00
-13.07
-8.47
-4.21
-1.01
0.82
1.41
1.07
0.07
-1.51
-3.77
-6.85
-10.75
-15.21
-19.81
-23.97
-27.26
-29.51
-30.78
-31.32
-31.42
-31.25
-30.90
-30.37
-29.64
-28.77
-27.90
-27.22
-26.88
-26.95
-27.40
-28.21
-29.40
-31.07
-33.27
-35.88
-38.43
-40.04
-39.60
-36.21
-29.49
-19.98
-9.08
1.41
9.79
15.22
18.02
19.74
22.68
28.78
38.66
51.15
63.69
73.40
78.52
79.18
77.43
76.43
79.22
87.70
101.99
120.40
139.42
154.12
159.01
149.48
123.53
83.16
34.58
-13.15
-50.83
-72.19
-75.58
-64.16
-44.15
-21.99
-2.10
13.92
26.57
36.81
44.82
49.60
49.68
44.15
33.33
18.77
2.55
-13.26
-27.03
-37.37
-43.05
-43.21
-37.80
-27.76
-14.88
-1.23
11.52
22.39
31.00
37.32
41.48
43.87
45.49
47.86
52.65
60.95
72.54
85.64
97.36
104.69
105.51
99.31
87.28
71.76
55.46
40.71
28.91
20.51
15.25
12.61
12.05
13.21
15.81
19.47
23.54
27.13
29.29
29.34
27.13
23.16
18.40
13.90
10.40
8.13
6.77
5.86
5.02
4.23
3.74
3.93
4.98
6.68
8.43
9.38
8.76
6.06
1.26
-5.29
-13.04
-21.36
-29.79
-37.87
-45.21
-51.35
-55.95
-59.00
-60.98
-62.76
-65.09
-68.01
-70.60
-71.15
-68.03
-60.51
-49.32
-36.34
-23.84
-13.26
-4.92
1.95
8.32
14.68
20.62
25.25
27.76
27.82
25.69
21.88
16.84
10.85
4.18
-2.84
-9.77
-16.18
-21.88
-26.85
-31.13
-34.73
-37.53
-39.45
-40.54
-41.12
-41.75
-43.22
-46.29
-51.50
-58.96
-68.11
-77.89
-86.89
-93.92
-98.38
-100.50
-101.06
-100.93
-100.49
-99.40
-96.74
-91.54
-83.36
-72.55
-60.20
-47.75
-36.41
-26.85
-19.09
-12.72
-7.24
-2.46
1.41
3.89
4.55
3.28
0.51
-2.94
-6.07
-8.04
-8.47
-7.47
-5.48
-3.12
-0.86
1.06
2.59
3.75
4.57
5.00
5.05
4.80
4.42
4.09
3.84
3.40
2.17
-0.67
-5.86
-13.71
-23.74
-34.62
-44.37
-50.92
-52.69
-49.17
-40.93
-29.59
-17.24
-5.92
2.81
8.22
10.30
9.71
7.34
4.13
0.88
-1.91
-3.93
-5.18
-5.80
-6.08
-6.32
-6.78
-7.49
-8.33
-9.02
-9.27
-9.02
-8.47
-8.09
-8.31
-9.52
-11.68
-14.45
-17.27
-19.50
-20.78
-21.01
-20.52
-19.88
-19.80
-20.85
-23.18
-26.39
-29.42
-30.94
-29.59
-24.63
-16.16
-5.24
6.47
17.23
25.73
31.46
34.56
35.54
34.95
33.16
30.39
26.91
23.15
19.63
16.84
14.91
13.71
12.78
11.66
10.04
7.94
5.60
3.31
1.23
-0.69
-2.65
-4.90
-7.62
-10.79
-14.16
-17.27
-19.65
-21.00
-21.39
-21.27
-21.35
-22.43
-24.97
-29.01
-33.95
-38.66
-41.73
-41.81
-38.01
-30.25
-19.36
-6.89
5.30
15.59
23.06
27.59
29.67
30.02
29.18
27.46
24.95
21.81
18.28
14.78
11.71
9.24
7.31
5.65
3.98
2.17
0.28
-1.53
-3.02
-4.14
-5.13
-6.36
-8.26
-11.10
-14.81
-19.06
-23.39
-27.34
-30.63
-33.22
-35.17
-36.65
-37.84
-39.00
-40.48
-42.65
-45.72
-49.39
-52.80
-54.61
-53.42
-48.33
-39.31
-27.27
-13.71
-0.25
11.89
22.13
30.47
37.19
42.60
46.92
50.26
52.76
54.59
55.96
56.97
57.59
57.57
56.50
54.00
49.93
44.52
38.42
32.56
27.83
24.73
23.19
22.62
22.12
20.96
18.78
15.75
12.44
9.59
7.75
7.12
7.40
7.78
7.14
4.33
-1.48
-10.39
-21.58
-33.36
-43.53
-49.97
-51.29
-47.26
-38.85
-27.92
-16.60
-6.72
0.62
5.15
7.15
7.21
5.88
3.48
0.24
-3.75
-8.37
-13.36
-18.33
-22.79
-26.28
-28.57
-29.85
-30.68
-31.82
-33.95
-37.44
-42.18
-47.77
-53.78
-59.95
-66.48
-73.71
-82.06
-91.60
-101.93
-112.14
-121.08
-127.72
-131.41
-132.15
-130.54
-127.73
-125.10
-124.02
-125.21
-128.37
-131.94
-133.36
-129.86
-119.62
-102.96
-82.78
-64.02
-51.94
-50.43
-60.63
-80.62
-106.04
-131.20
-150.51
-159.54
-155.67
-138.03
-107.58
-66.91
-19.87
29.17
76.06
117.57
151.65
177.66
197.12
212.58
226.34
239.42
251.31
260.83
266.89
269.30
268.77
268.21
270.17
274.91
279.52
279.26
270.02
249.92
219.61
181.57
141.86
106.94
81.27
65.93
59.44
59.76
65.28
74.75
87.23
105.68
134.18
175.36
228.84
292.13
362.45
437.12
512.48
558.92
549.64
474.58
349.89
208.23
79.58
-19.82
-87.72
-131.22
-158.90
-178.16
-190.85
-197.04
-198.80
-200.60
-207.35
-222.64
-248.29
-281.78
-316.31
-343.36
-356.09
-351.90
-332.77
-303.93
-272.38
-245.13
-227.04
-217.89
-212.96
-205.96
-192.27
-170.49
-142.12
-110.26
-78.42
-49.34
-23.99
-1.69
18.49
37.01
53.66
68.04
79.74
88.20
92.65
92.39
87.18
77.13
62.79
44.98
24.73
3.18
-18.57
-39.33
-57.93
-73.06
-83.72
-89.68
-91.68
-91.33
-90.34
-89.81
-89.69
-89.03
-86.58
-81.58
-74.11
-65.14
-56.24
-49.07
-45.04
-44.84
-47.99
-52.68
-56.13
-55.52
-49.29
-38.02
-24.32
-11.84
-3.68
-1.30
-4.18
-10.36
-17.41
-23.38
-26.90
-27.24
-24.01
-17.04
-6.73
5.74
18.47
29.34
36.76
40.09
39.77
37.15
34.11
32.61
34.09
38.86
45.82
52.55
56.20
54.62
47.32
35.73
22.65
11.02
2.79
-1.51
-2.47
-0.90
2.78
8.64
16.90
27.35
39.31
51.81
63.94
75.13
85.22
94.20
101.84
107.48
110.16
109.07
104.03
95.90
86.37
77.28
69.94
64.62
60.88
58.08
56.21
56.04
58.84
65.60
76.33
89.87
104.30
117.60
128.24
135.50
139.30
139.88
137.52
132.51
125.39
117.17
109.30
103.31
100.12
99.55
100.30
100.62
99.15
95.58
90.58
85.21
80.13
75.21
69.73
62.94
54.54
44.62
33.14
19.36
1.86
-20.73
-48.59
-80.04
-111.71
-139.57
-160.33
-172.50
-176.47
-173.83
-166.42
-155.67
-142.57
-128.07
-113.32
-99.72
-88.38
-79.68
-73.03
-67.11
-60.43
-51.84
-40.80
-27.29
-11.58
5.95
24.96
44.98
65.27
84.71
101.90
115.43
124.23
127.86
126.55
120.98
111.93
100.01
85.82
70.17
54.36
40.18
29.55
23.87
23.62
28.20
36.30
46.45
57.48
68.65
79.60
90.12
100.09
109.52
118.53
127.21
135.37
142.25
146.61
147.09
142.62
132.99
118.88
101.61
82.67
63.36
44.56
26.96
11.28
-1.57
-10.64
-15.45
-16.45
-15.24
-14.31
-16.31
-23.14
-35.29
-51.67
-70.18
-88.44
-104.63
-117.76
-127.62
-134.36
-138.19
-139.25
-137.69
-133.90
-128.63
-122.98
-118.18
-115.30
-114.94
-117.09
-121.15
-126.18
-131.20
-135.56
-139.18
-142.61
-146.74
-152.40
-159.89
-168.76
-177.76
-185.04
-188.59
-186.53
-177.50
-160.84
-136.75
-106.43
-71.98
-35.95
-0.64
32.59
63.58
92.78
120.17
144.39
162.65
171.83
169.99
157.50
137.00
112.36
87.19
63.78
42.93
24.55
8.21
-6.50
-20.04
-33.01
-45.94
-58.79
-70.67
-79.93
-84.73
-83.85
-77.09
-65.46
-50.65
-34.73
-19.65
-7.08
1.69
5.83
5.02
-0.40
-9.42
-20.46
-31.60
-41.04
-47.48
-50.49
-50.51
-48.64
-46.08
-43.75
-41.94
-40.36
-38.51
-35.98
-32.72
-29.09
-25.63
-22.83
-20.85
-19.51
-18.32
-16.75
-14.47
-11.48
-8.10
-4.77
-1.86
0.35
1.63
1.78
0.50
-2.45
-7.11
-13.12
-19.75
-26.07
-31.25
-34.88
-37.05
-38.22
-38.96
-39.69
-40.38
-40.63
-39.76
-37.25
-33.08
-27.86
-22.67
-18.77
-17.12
-18.15
-21.75
-27.44
-34.68
-42.67
-50.19
-55.38
-56.24
-51.32
-40.63
-25.79
-9.32
6.53
20.60
32.91
43.93
53.82
61.96
67.24
68.65
65.92
59.57
50.70
40.54
30.13
20.25
11.35
3.46
-3.77
-10.74
-17.51
-23.46
-27.42
-28.27
-25.65
-20.29
-13.64
-7.34
-2.35
1.10
3.38
4.92
5.77
5.62
4.02
0.84
-3.57
-8.34
-12.36
-14.68
-14.73
-12.49
-8.32
-2.83
3.26
9.27
14.75
19.54
24.13
29.42
36.43
45.72
56.96
68.89
79.85
88.32
93.42
95.01
93.49
89.46
83.50
76.33
68.80
62.06
57.31
55.52
57.05
61.58
68.12
75.49
82.68
89.08
94.57
99.25
103.14
106.01
107.35
106.70
103.97
99.74
95.19
91.77
90.65
92.19
95.63
99.24
100.69
97.84
89.45
75.66
57.94
38.51
19.52
2.42
-12.24
-24.55
-34.89
-43.58
-50.88
-57.13
-62.77
-68.29
-74.05
-80.11
-86.18
-91.71
-95.97
-98.24
-97.96
-94.90
-89.12
-80.82
-69.88
-55.74
-37.38
-13.76
15.64
50.35
88.89
129.22
169.19
207.04
241.40
271.24
295.59
313.47
323.99
326.55
321.10
308.25
289.28
265.90
239.95
213.00
186.03
159.37
132.86
106.11
78.71
50.55
21.85
-6.76
-34.40
-60.26
-83.98
-105.90
-126.87
-147.86
-169.23
-190.57
-210.96
-229.60
-246.56
-262.79
-279.55
-297.50
-315.97
-332.92
-345.65
-351.83
-350.21
-340.83
-324.63
-302.89
-276.83
-247.51
-215.96
-183.31
-150.84
-119.85
-91.37
-65.95
-43.55
-23.69
-5.74
10.82
26.20
40.35
53.05
64.07
73.29
80.68
86.30
90.25
92.65
93.68
93.41
91.71
88.09
81.81
72.19
58.97
42.64
24.47
6.17
-10.52
-24.27
-34.42
-41.04
-44.67
-46.15
-46.26
-45.46
-43.67
-40.31
-34.49
-25.51
-13.35
0.97
15.42
27.45
34.90
36.75
33.67
27.95
23.11
22.89
30.38
46.88
71.29
100.13
128.15
149.82
160.88
159.56
146.76
125.32
98.63
69.42
39.12
7.93
-24.59
-58.73
-94.08
-129.22
-161.79
-188.79
-207.23
-214.94
-211.26
-197.34
-175.90
-150.53
-124.74
-101.24
-81.63
-66.45
-55.55
-48.40
-44.22
-42.02
-40.72
-39.16
-36.42
-31.98
-25.85
-18.51
-10.67
-2.98
4.21
10.87
17.23
23.45
29.43
34.74
38.77
40.96
41.01
39.02
35.45
31.10
26.84
23.42
21.13
19.64
18.08
15.39
10.92
4.84
-1.85
-7.75
-11.75
-13.43
-12.96
-10.74
-6.93
-1.35
6.31
16.09
27.49
39.51
51.04
61.13
69.30
75.45
79.78
82.54
83.95
84.22
83.47
81.67
78.56
73.73
66.72
57.18
45.12
30.97
15.65
0.45
-13.23
-24.24
-31.99
-36.75
-39.57
-42.13
-46.21
-53.11
-62.99
-74.71
-86.06
-94.40
-97.79
-95.63
-88.93
-79.84
-70.82
-63.76
-59.46
-57.63
-57.21
-56.97
-55.97
-53.67
-49.96
-44.93
-38.80
-31.83
-24.41
-17.07
-10.47
-5.29
-1.91
-0.41
-0.38
-1.17
-2.04
-2.43
-2.06
-0.95
0.69
2.62
4.64
6.72
9.07
11.96
15.74
20.63
26.59
33.26
40.10
46.47
51.92
56.39
60.24
64.15
68.76
74.36
80.64
86.70
91.24
93.00
91.01
84.94
75.23
63.05
50.08
38.13
28.62
22.12
18.27
15.96
13.87
11.08
7.32
2.92
-1.54
-5.76
-9.81
-14.12
-19.05
-24.64
-30.38
-35.26
-38.14
-37.99
-34.38
-27.60
-18.67
-9.15
-0.71
5.31
8.28
8.40
6.49
3.63
0.70
-1.81
-3.80
-5.36
-6.51
-7.09
-6.92
-6.02
-4.81
-4.01
-4.42
-6.48
-10.12
-14.73
-19.44
-23.44
-26.11
-27.13
-26.31
-23.60
-19.09
-13.17
-6.60
-0.51
3.97
6.07
5.67
3.47
0.60
-1.73
-2.72
-1.96
0.67
5.29
12.06
20.87
31.08
41.32
49.89
55.46
57.76
57.73
57.20
58.02
61.37
67.42
75.52
84.46
92.80
98.96
101.30
98.61
90.69
78.81
65.59
54.17
46.96
44.60
45.59
46.77
44.58
36.42
21.62
1.68
-20.19
-40.00
-54.14
-60.35
-58.33
-49.63
-37.06
-23.83
-12.65
-5.29
-2.36
-3.44
-7.39
-12.67
-17.75
-21.51
-23.51
-23.86
-23.10
-21.78
-20.27
-18.78
-17.51
-16.82
-17.24
-19.34
-23.57
-30.12
-38.90
-49.50
-61.17
-72.72
-82.63
-89.34
-91.68
-89.28
-82.71
-73.30
-62.75
-52.81
-44.97
-40.33
-39.39
-41.95
-47.07
-53.35
-59.39
-64.31
-68.13
-71.71
-76.31
-82.79
-91.00
-99.42
-105.47
-106.22
-99.42
-84.40
-62.25
-35.63
-7.83
18.16
40.43
58.40
72.70
84.71
96.00
107.81
120.59
133.81
146.17
156.13
162.55
165.11
164.49
161.89
158.47
154.73
150.34
144.48
136.33
125.58
112.50
97.88
82.55
67.24
52.29
37.78
23.71
10.17
-2.45
-13.62
-22.85
-30.08
-35.80
-40.91
-46.25
-52.12
-58.05
-62.96
-65.77
-65.95
-63.80
-60.26
-56.37
-52.80
-49.53
-46.11
-42.01
-36.95
-31.08
-24.85
-18.76
-13.13
-8.08
-3.50
0.78
5.02
9.50
14.57
20.79
28.70
38.91
51.82
67.55
85.66
105.32
125.44
145.03
163.41
180.18
195.16
208.37
220.01
230.51
240.47
250.51
260.91
271.51
281.61
290.12
295.83
297.64
294.76
286.79
273.68
255.94
234.67
211.29
186.98
162.29
136.90
110.05
81.19
50.49
19.22
-10.41
-36.04
-56.07
-70.30
-79.96
-86.92
-92.84
-98.66
-103.88
-106.88
-106.07
-101.09
-93.37
-85.95
-82.02
-83.51
-91.11
-102.95
-115.38
-125.14
-131.36
-136.04
-143.50
-157.85
-181.42
-216.25
-261.13
-311.67
-361.37
-403.54
-432.51
-446.16
-446.17
-438.75
-436.82
-451.66
-487.77
-541.04
-601.06
-654.56
-691.10
-704.34
-692.97
-664.06
-624.05
-575.32
-516.54
-445.91
-363.12
-272.17
-178.96
-63.58
73.16
212.52
329.42
410.21
452.61
472.49
479.62
476.70
462.56
433.17
389.13
338.03
291.67
259.88
246.91
248.56
256.70
263.06
259.05
242.28
216.48
187.72
159.49
131.30
99.01
59.90
15.26
-31.90
-75.82
-110.25
-131.22
-138.94
-137.05
-131.20
-125.81
-122.67
-121.97
-121.55
-117.67
-106.54
-86.07
-56.58
-21.20
15.62
49.30
75.82
93.20
101.85
104.21
103.71
103.72
106.40
111.98
118.36
121.22
115.33
96.54
63.95
20.98
-25.35
-66.61
-96.15
-111.34
-114.04
-109.06
-101.46
-94.45
-88.76
-83.47
-77.37
-69.98
-61.57
-52.50
-42.62
-31.15
-17.34
-1.12
16.40
33.19
46.95
56.08
60.22
60.26
57.83
54.60
51.85
50.40
50.82
53.64
59.33
67.92
78.74
90.39
101.10
109.32
114.12
115.32
113.23
108.33
101.00
91.62
80.71
69.13
57.91
47.92
39.67
33.16
28.14
24.35
21.83
20.88
22.03
25.80
32.35
41.49
52.52
64.56
76.75
88.63
100.17
111.66
123.38
135.25
146.61
156.30
163.02
165.72
164.03
158.33
149.63
139.31
128.77
119.22
111.50
106.10
103.07
102.19
102.99
104.89
107.28
109.55
111.20
111.89
111.48
110.05
107.75
104.58
100.18
93.76
84.40
71.49
55.38
37.59
20.41
6.04
-4.20
-10.26
-12.88
-12.97
-11.27
-8.20
-4.39
-1.19
-0.76
-5.38
-16.44
-33.49
-54.04
-74.68
-91.95
-103.49
-108.76
-108.91
-105.98
-102.19
-99.12
-97.54
-98.67
-103.41
-112.13
-124.74
-140.78
-159.23
-179.14
-199.30
-218.42
-237.23
-256.33
-275.54
-294.03
-311.17
-326.53
-340.88
-354.60
-367.05
-379.30
-390.74
-398.63
-399.20
-389.80
-369.45
-340.80
-307.46
-272.71
-242.50
-220.39
-206.30
-197.21
-189.51
-179.68
-167.31
-152.61
-114.00
-43.99
48.51
143.29
222.31
271.19
297.09
307.37
307.49
301.31
289.33
271.84
250.91
229.53
209.57
191.87
174.14
154.64
133.23
108.39
80.02
49.91
20.87
-4.75
-25.03
-40.34
-51.16
-57.61
-61.46
-63.96
-65.07
-63.78
-59.07
-50.33
-38.83
-26.35
-14.84
-6.84
-4.08
-6.50
-12.17
-17.88
-19.92
-15.87
-4.70
12.95
34.84
58.44
81.80
103.78
123.39
139.27
149.36
151.85
146.13
133.44
116.47
98.33
81.38
66.61
54.03
43.34
34.61
28.21
24.28
22.17
20.35
17.05
11.05
2.31
-7.97
-17.87
-25.35
-28.88
-27.76
-22.22
-13.22
-2.06
9.98
21.87
32.96
42.89
51.45
58.51
63.97
67.81
70.16
71.36
71.79
71.88
71.94
72.14
72.51
73.01
73.64
74.35
75.15
75.93
76.41
76.09
74.40
70.84
65.18
57.60
48.58
38.74
28.56
18.27
7.77
-3.29
-15.30
-28.56
-43.19
-58.94
-75.20
-90.88
-104.56
-114.66
-119.91
-119.71
-114.40
-105.19
-93.80
-81.86
-70.57
-60.46
-51.54
-43.77
-37.19
-31.98
-28.16
-25.47
-23.21
-20.47
-16.52
-11.08
-4.51
2.52
9.29
15.46
21.17
26.93
33.30
40.57
48.55
56.55
63.67
68.98
71.81
71.85
69.21
64.26
57.61
49.94
41.91
34.12
27.07
21.16
16.86
14.71
15.17
18.54
24.66
32.85
42.00
50.86
58.38
64.04
67.83
70.12
71.39
71.94
71.72
70.49
67.91
63.79
58.25
51.66
44.51
37.27
30.22
23.39
16.74
10.20
3.76
-2.47
-8.36
-13.85
-18.95
-23.75
-28.42
-33.08
-37.86
-42.79
-47.81
-52.71
-57.20
-61.00
-63.82
-65.41
-65.39
-63.31
-58.68
-51.26
-41.20
-29.24
-16.55
-4.56
5.46
12.83
17.41
19.71
20.56
20.82
21.17
21.92
23.06
24.40
25.79
27.20
28.73
30.55
32.83
35.67
39.11
43.14
47.64
52.30
56.48
59.35
60.14
58.39
54.17
47.99
40.50
32.25
23.38
13.56
2.28
-11.03
-26.56
-43.84
-61.73
-78.48
-92.15
-101.11
-104.50
-102.42
-95.86
-86.25
-75.09
-63.61
-52.76
-43.32
-35.95
-31.17
-29.15
-29.65
-32.01
-35.34
-38.89
-42.20
-45.15
-47.78
-50.03
-51.63
-52.15
-51.20
-48.64
-44.70
-39.93
-34.91
-30.07
-25.61
-21.46
-17.48
-13.58
-9.77
-6.19
-3.14
-1.05
-0.44
-1.82
-5.46
-11.10
-17.93
-24.68
-30.12
-33.41
-34.44
-33.70
-32.00
-30.18
-28.73
-27.95
-27.81
-28.34
-29.67
-32.06
-35.81
-41.09
-47.80
-55.51
-63.64
-71.62
-79.23
-86.62
-94.18
-102.22
-110.67
-119.08
-126.77
-133.31
-138.73
-143.54
-148.52
-154.38
-161.44
-169.36
-177.01
-182.36
-182.76
-175.61
-159.14
-133.27
-99.74
-61.74
-22.81
14.33
48.33
79.11
107.29
133.31
157.03
177.70
194.18
205.30
209.96
207.47
197.97
182.83
164.96
148.04
135.42
128.82
127.75
130.19
133.91
137.71
141.62
146.07
150.72
153.93
153.34
147.21
135.58
120.45
104.83
91.18
80.33
71.35
62.47
52.22
40.23
27.38
15.24
5.29
-1.71
-5.92
-8.28
-9.99
-11.96
-14.38
-16.75
-18.24
-18.14
-16.33
-13.45
-10.79
-9.85
-11.82
-17.00
-24.44
-32.06
-37.16
-37.35
-31.39
-19.74
-4.42
11.53
25.13
34.30
38.33
37.95
34.93
31.26
28.38
26.57
24.85
21.68
15.92
7.82
-0.69
-6.70
-7.73
-3.05
5.82
15.76
23.57
27.36
27.20
24.65
21.67
19.61
18.63
18.01
16.69
13.82
9.11
2.83
-4.27
-11.20
-16.89
-20.41
-21.12
-18.80
-13.71
-6.55
1.55
9.24
15.08
17.98
17.45
13.87
8.42
2.65
-2.08
-5.20
-7.21
-9.53
-13.86
-21.52
-32.74
-46.47
-60.56
-72.28
-78.97
-78.57
-69.99
-53.51
-30.93
-5.36
19.32
39.72
54.12
63.15
69.36
76.02
85.56
98.43
112.88
125.60
133.01
132.66
124.00
108.47
88.76
67.78
47.66
29.26
12.32
-4.02
-20.35
-36.68
-52.32
-66.26
-77.50
-85.33
-89.30
-89.14
-84.87
-76.90
-66.10
-53.69
-40.98
-29.16
-19.30
-12.22
-8.43
-8.05
-10.61
-15.06
-19.89
-23.54
-24.85
-23.42
-19.72
-14.85
-10.04
-6.07
-3.13
-0.75
1.78
5.02
9.08
13.60
17.87
21.17
22.97
23.14
22.02
20.27
18.69
17.93
18.26
19.54
21.34
23.14
24.44
24.81
23.81
20.95
15.87
8.48
-0.95
-11.82
-23.49
-35.70
-48.68
-63.08
-79.56
-98.14
-117.62
-135.68
-149.33
-156.07
-154.89
-146.63
-133.67
-118.86
-104.42
-91.37
-79.66
-68.87
-58.96
-50.53
-44.47
-41.39
-41.16
-42.93
-45.40
-47.26
-47.38
-44.85
-38.91
-29.23
-16.22
-1.32
13.17
24.49
30.31
29.34
21.69
8.80
-6.96
-22.78
-35.86
-43.91
-45.59
-40.85
-30.98
-18.29
-5.33
5.91
14.61
21.12
26.52
31.99
38.25
45.36
52.88
60.17
66.74
72.51
77.84
83.41
89.93
97.78
106.81
116.25
124.94
131.66
135.55
136.39
134.69
131.49
127.91
124.61
121.50
117.56
111.21
100.92
85.88
66.40
43.99
20.77
-1.08
-20.04
-35.43
-47.46
-56.87
-64.71
-72.06
-79.88
-88.85
-99.25
-110.78
-122.73
-134.02
-143.50
-150.23
-153.64
-153.53
-149.98
-143.28
-133.83
-122.07
-108.41
-93.05
-76.05
-57.53
-37.96
-18.50
-0.92
12.94
21.86
25.92
26.44
25.50
24.90
25.49
26.87
27.85
27.24
24.65
20.70
16.59
13.41
11.49
10.06
7.43
1.65
-8.59
-23.25
-40.79
-58.59
-73.94
-85.14
-92.09
-96.36
-100.35
-106.43
-115.90
-128.35
-141.48
-151.48
-153.72
-143.77
-119.16
-81.07
-35.36
8.42
40.14
53.19
47.84
31.78
17.18
15.49
32.46
65.95
107.56
146.88
175.70
190.33
191.32
181.55
164.32
142.53
118.89
96.15
76.84
62.28
52.15
44.37
36.12
25.05
10.19
-7.93
-27.84
-47.81
-66.24
-81.71
-93.09
-99.58
-100.98
-97.88
-91.90
-85.50
-81.34
-81.36
-86.05
-94.27
-103.58
-111.24
-115.40
-115.94
-114.42
-113.06
-113.29
-114.85
-115.77
-113.46
-106.05
-93.46
-77.33
-60.16
-43.75
-28.07
-11.08
10.30
38.62
74.49
116.06
159.54
200.43
234.85
260.34
276.08
282.60
281.20
273.63
261.73
247.35
232.07
216.98
202.57
188.77
175.28
161.82
148.23
134.38
120.14
105.34
89.94
74.18
58.51
43.41
29.16
15.62
2.58
-9.99
-21.62
-31.53
-38.92
-43.43
-45.36
-45.43
-44.44
-42.80
-40.43
-36.96
-32.06
-25.71
-18.16
-9.67
-0.34
9.96
21.31
33.41
45.25
55.22
61.60
63.15
59.89
53.10
44.97
37.87
33.50
32.50
34.76
39.80
47.34
57.42
70.20
85.50
102.57
120.08
136.48
150.41
161.02
167.95
171.09
170.36
165.56
156.57
143.55
127.21
108.84
90.12
72.68
57.78
46.24
38.33
34.00
32.84
34.08
36.54
38.68
38.75
35.24
27.23
14.67
-1.55
-19.71
-37.67
-53.41
-65.65
-74.19
-79.89
-84.04
-87.68
-90.90
-92.88
-92.32
-88.17
-80.20
-68.97
-55.50
-40.86
-25.96
-11.61
1.22
11.34
17.55
18.98
15.36
7.01
-5.33
-20.70
-38.05
-56.33
-74.45
-91.36
-106.11
-118.01
-126.59
-131.64
-133.13
-131.25
-126.57
-120.05
-113.02
-106.92
-102.96
-101.86
-103.81
-108.34
-114.50
-121.05
-126.61
-130.13
-131.24
-130.33
-128.50
-127.04
-126.89
-128.18
-130.02
-130.85
-128.92
-122.88
-112.22
-97.27
-79.03
-58.80
-37.67
-16.45
4.35
24.17
42.12
56.97
67.56
73.43
75.14
74.21
72.22
69.93
66.57
60.02
47.77
28.19
1.55
-29.77
-61.93
-90.79
-113.11
-127.16
-132.73
-130.61
-121.90
-107.62
-88.71
-66.20
-41.60
-16.75
6.47
26.70
43.32
56.50
66.85
75.11
82.01
88.14
94.02
99.88
105.49
110.10
112.52
111.43
105.76
95.06
79.58
60.36
39.07
17.76
-1.55
-17.39
-29.31
-38.02
-44.97
-51.70
-59.18
-67.42
-75.75
-83.25
-89.25
-93.53
-96.37
-98.21
-99.51
-100.67
-102.03
-103.88
-106.41
-109.58
-113.06
-116.25
-118.39
-118.78
-116.97
-112.67
-105.84
-96.60
-85.45
-73.29
-61.36
-50.93
-42.86
-37.41
-34.26
-32.95
-33.24
-35.11
-38.56
-43.02
-47.27
-49.73
-49.13
-45.10
-38.33
-30.08
-21.49
-12.98
-4.18
5.67
16.95
29.25
41.47
52.28
60.87
67.18
71.64
74.51
75.21
72.31
64.14
49.82
30.12
7.58
-14.13
-31.25
-41.01
-42.09
-34.74
-20.40
-1.39
19.65
40.37
59.22
75.75
90.43
104.12
117.35
129.99
141.22
149.89
154.83
155.16
150.40
140.50
125.97
107.78
87.37
66.32
45.96
27.11
10.13
-4.78
-17.46
-27.66
-35.42
-41.34
-46.78
-53.50
-63.07
-76.14
-91.90
-108.28
-122.49
-131.89
-134.66
-130.09
-118.37
-100.34
-77.33
-51.08
-23.94
1.39
22.28
36.76
44.11
45.05
41.43
35.54
29.58
25.07
22.80
22.86
24.82
27.90
31.27
34.31
36.96
39.77
43.55
48.93
55.65
62.35
66.80
66.70
60.55
48.25
31.19
11.78
-7.33
-23.95
-36.80
-45.62
-50.89
-53.50
-54.39
-54.24
-53.55
-52.66
-51.89
-51.67
-52.45
-54.57
-58.08
-62.73
-67.95
-73.05
-77.23
-79.77
-80.00
-77.40
-71.73
-63.16
-52.31
-40.16
-27.79
-16.13
-5.66
3.45
11.31
18.02
23.63
28.14
31.59
34.20
36.30
38.23
40.15
41.96
43.32
43.79
43.03
40.90
37.50
33.08
27.85
21.97
15.39
7.98
-0.33
-9.46
-19.10
-28.78
-38.01
-46.31
-53.19
-58.06
-60.19
-58.89
-53.81
-45.17
-33.86
-21.24
-8.68
2.87
13.06
22.07
30.25
37.76
44.42
49.77
53.38
55.12
55.33
54.70
54.04
53.87
54.30
55.05
55.59
55.53
54.64
52.99
50.72
47.85
44.17
39.20
32.50
23.91
13.69
2.60
-8.34
-18.12
-25.97
-31.40
-34.25
-34.48
-32.17
-27.47
-20.55
-11.71
-1.39
9.81
21.11
31.66
40.63
47.52
52.34
55.75
58.87
62.87
68.42
75.35
82.62
88.62
91.83
91.40
87.56
81.68
76.00
72.99
74.53
80.85
89.70
96.11
93.27
74.65
36.80
-18.52
-84.02
-148.93
-202.59
-238.07
-253.92
-253.50
-242.65
-227.00
-210.21
-193.83
-177.93
-161.58
-143.14
-120.41
-91.16
-54.58
-12.54
30.03
66.78
92.62
105.91
108.94
106.25
102.06
98.45
95.28
91.64
87.42
83.85
82.54
84.03
86.99
88.81
87.19
81.64
73.72
66.09
60.95
58.83
58.45
57.75
54.90
49.17
41.16
32.45
24.93
20.13
18.72
20.38
24.01
28.14
31.46
33.16
33.03
31.32
28.49
24.95
20.93
16.43
11.38
5.70
-0.56
-7.23
-14.12
-21.07
-28.13
-35.48
-43.35
-51.70
-60.06
-67.55
-73.23
-76.69
-78.48
-80.15
-83.43
-89.35
-97.26
-104.64
-107.86
-103.58
-89.90
-66.98
-36.68
-1.83
34.59
69.94
102.24
130.29
153.92
173.90
191.56
208.11
223.86
237.93
248.49
253.68
252.34
244.51
231.06
213.14
191.55
166.60
138.57
108.43
78.22
50.99
29.98
17.39
13.27
15.22
19.01
20.14
15.52
4.60
-10.78
-27.38
-42.05
-52.81
-59.15
-61.63
-60.97
-57.28
-49.82
-37.31
-18.61
6.43
36.27
67.53
95.38
114.80
122.07
116.02
98.47
73.38
45.29
17.83
-7.08
-28.84
-47.12
-61.08
-69.38
-70.98
-65.99
-56.16
-44.18
-32.43
-21.90
-11.90
-0.90
12.20
27.17
42.43
55.73
65.18
69.87
69.77
65.34
56.99
44.97
29.70
11.95
-7.05
-25.85
-43.04
-57.40
-67.93
-73.79
-74.42
-69.80
-60.72
-48.64
-35.34
-22.38
-10.73
-0.69
7.87
15.21
21.49
26.76
30.83
33.31
33.59
31.01
25.17
16.20
4.70
-8.67
-23.77
-41.32
-62.54
-88.34
-118.34
-150.27
-180.36
-204.39
-219.01
-222.60
-215.57
-199.84
-178.21
-153.62
-128.69
-105.47
-85.26
-68.51
-54.79
-43.05
-31.82
-19.70
-5.73
10.50
28.65
47.70
66.20
82.51
95.22
103.52
107.33
107.24
104.17
98.92
91.89
83.20
72.88
61.31
49.39
38.37
29.31
22.59
17.66
13.45
9.01
4.03
-0.86
-4.60
-6.49
-6.66
-6.04
-5.74
-6.23
-6.99
-6.87
-4.83
-0.72
4.47
9.13
11.79
11.81
9.65
6.61
4.28
3.97
6.32
11.17
17.64
24.54
30.73
35.61
39.30
42.58
46.54
52.10
59.70
69.06
79.30
89.10
96.97
101.51
101.69
97.10
88.07
75.50
60.62
44.63
28.61
13.41
-0.21
-11.65
-20.57
-27.02
-31.63
-35.46
-39.80
-45.73
-53.80
-63.85
-75.08
-86.23
-95.95
-103.09
-106.98
-107.53
-105.26
-100.95
-95.43
-89.23
-82.45
-74.88
-66.27
-56.69
-46.62
-36.97
-28.64
-22.15
-17.44
-13.91
-10.71
-7.08
-2.57
3.02
9.72
17.52
26.40
36.17
46.45
56.64
66.11
74.37
81.19
86.54
90.61
93.67
95.89
97.40
98.02
97.46
95.41
91.84
87.26
82.74
79.75
79.45
82.32
87.65
93.75
98.46
99.78
96.35
87.64
73.83
55.54
33.64
9.26
-16.22
-41.10
-63.57
-82.12
-95.88
-104.83
-109.77
-111.90
-112.43
-112.22
-111.77
-111.24
-110.70
-110.16
-109.58
-108.82
-107.51
-105.19
-101.50
-96.41
-90.32
-84.02
-78.48
-74.46
-72.32
-71.71
-71.80
-71.51
-69.94
-66.66
-61.83
-56.12
-50.38
-45.41
-41.69
-39.29
-38.05
-37.56
-37.47
-37.52
-37.61
-37.75
-37.93
-38.05
-37.93
-37.41
-36.44
-35.14
-33.81
-32.76
-32.24
-32.36
-33.05
-34.20
-35.72
-37.51
-39.55
-41.73
-43.80
-45.32
-45.79
-44.84
-42.49
-39.22
-35.80
-32.99
-31.13
-30.00
-28.81
-26.53
-22.17
-15.06
-4.95
7.87
22.49
37.52
51.24
62.03
68.77
71.14
69.59
65.06
58.63
51.16
43.29
35.55
28.39
22.20
17.20
13.29
10.02
6.84
3.30
-0.71
-4.92
-8.85
-12.08
-14.46
-16.24
-17.98
-20.24
-23.38
-27.38
-31.85
-36.23
-39.90
-42.36
-43.24
-42.32
-39.47
-34.74
-28.48
-21.33
-14.12
-7.73
-2.80
0.45
2.27
3.20
3.83
4.46
5.00
5.02
3.94
1.19
-3.47
-9.90
-17.56
-25.61
-33.09
-39.18
-43.44
-45.84
-46.86
-47.17
-47.42
-48.01
-48.98
-50.16
-51.24
-52.03
-52.38
-52.23
-51.60
-50.72
-50.16
-50.70
-53.15
-57.88
-64.43
-71.43
-77.00
-79.33
-77.34
-71.16
-62.03
-51.85
-42.52
-35.34
-30.68
-28.10
-26.72
-25.76
-24.96
-24.54
-25.05
-26.97
-30.45
-35.23
-40.82
-46.62
-52.17
-57.20
-61.63
-65.50
-68.90
-71.88
-74.47
-76.67
-78.61
-80.55
-82.80
-85.60
-88.80
-91.71
-93.15
-91.68
-86.03
-75.54
-60.41
-41.72
-21.19
-0.81
17.66
32.97
44.68
53.19
59.60
65.39
71.96
80.10
89.69
99.64
108.22
113.70
114.91
111.56
104.16
93.70
81.33
68.29
55.90
45.66
39.01
36.88
39.23
45.02
52.55
60.02
66.15
70.32
72.48
72.96
72.24
70.93
69.79
69.51
70.35
71.95
73.35
73.43
71.51
67.71
62.90
58.21
54.33
51.11
47.66
42.76
35.58
26.06
14.94
3.42
-7.36
-16.60
-23.92
-29.28
-32.85
-34.93
-35.99
-36.62
-37.45
-39.00
-41.47
-44.61
-47.82
-50.37
-51.65
-51.38
-49.70
-47.21
-44.81
-43.46
-43.90
-46.37
-50.56
-55.72
-60.93
-65.40
-68.50
-69.78
-68.92
-65.82
-60.79
-54.52
-47.97
-42.03
-37.14
-33.20
-29.68
-25.99
-21.78
-17.07
-12.13
-7.24
-2.53
2.07
6.68
11.34
15.95
20.50
25.22
30.64
37.32
45.53
54.79
64.03
72.18
78.88
84.76
90.98
98.16
105.62
111.46
113.46
110.48
103.14
93.64
84.51
77.32
72.13
67.81
62.97
56.86
49.75
42.65
36.78
33.14
32.24
34.09
38.17
43.57
49.12
53.70
56.41
56.73
54.54
50.03
43.55
35.43
25.91
15.07
3.03
-9.88
-22.93
-34.96
-44.81
-51.72
-55.81
-58.13
-60.23
-63.47
-68.53
-75.21
-82.73
-90.01
-95.84
-98.65
-96.43
-86.97
-68.90
-43.00
-12.65
17.19
42.30
61.67
78.31
97.72
124.76
160.69
202.30
243.40
277.70
301.28
313.36
315.12
308.06
292.95
270.02
240.00
205.09
168.97
135.95
109.73
92.42
83.97
82.29
83.95
85.15
82.92
76.09
65.38
52.76
40.32
29.20
19.16
9.08
-2.08
-14.48
-27.06
-37.93
-45.21
-47.74
-45.51
-39.52
-31.41
-22.88
-15.30
-9.64
-6.42
-5.89
-8.08
-12.95
-20.50
-30.70
-43.46
-58.41
-74.83
-91.68
-107.77
-122.01
-133.62
-142.22
-147.72
-150.28
-150.24
-148.05
-144.21
-139.21
-133.56
-127.62
-121.77
-116.26
-111.40
-107.41
-104.43
-102.43
-101.34
-100.94
-100.80
-100.18
-97.98
-92.94
-84.05
-71.00
-54.38
-35.67
-16.75
0.66
15.33
26.73
34.82
39.93
42.58
43.42
43.19
42.62
42.35
42.66
43.46
44.36
44.85
44.53
43.29
41.35
39.13
37.09
35.51
34.44
33.64
32.83
31.76
30.33
28.56
26.49
24.10
21.25
17.81
13.93
10.04
6.93
5.54
6.65
10.53
16.87
24.83
33.24
40.99
47.20
51.41
53.59
54.03
53.16
51.45
49.22
46.63
43.72
40.59
37.42
34.51
32.19
30.73
30.15
30.28
30.70
30.91
30.48
29.16
27.06
24.51
21.98
19.83
18.19
16.90
15.59
13.87
11.36
7.78
3.03
-2.76
-9.05
-14.88
-19.10
-20.70
-19.39
-15.71
-10.83
-6.01
-2.01
1.15
3.99
7.11
10.64
14.17
16.99
18.51
18.61
17.73
16.56
15.71
15.50
15.84
16.43
16.93
17.11
16.90
16.38
15.66
14.82
13.87
12.77
11.44
9.75
7.47
4.29
-0.03
-5.63
-12.30
-19.53
-26.63
-32.89
-37.74
-40.80
-41.90
-41.04
-38.40
-34.30
-29.29
-24.05
-19.24
-15.39
-12.68
-11.06
-10.25
-9.92
-9.86
-9.98
-10.33
-11.02
-12.07
-13.31
-14.42
-14.96
-14.72
-13.77
-12.59
-11.79
-11.92
-13.19
-15.46
-18.37
-21.54
-24.75
-27.87
-30.83
-33.53
-35.89
-38.00
-40.14
-42.74
-46.08
-50.02
-53.88
-56.65
-57.40
-55.58
-51.26
-45.14
-38.31
-31.93
-26.92
-23.78
-22.49
-22.61
-23.55
-24.82
-26.30
-28.22
-30.91
-34.47
-38.56
-42.39
-45.10
-46.14
-45.58
-44.08
-42.56
-41.69
-41.84
-42.81
-44.13
-45.33
-46.10
-46.36
-46.24
-45.96
-45.79
-46.01
-46.88
-48.50
-50.74
-53.13
-54.95
-55.45
-54.12
-50.90
-46.23
-40.82
-35.36
-30.37
-26.09
-22.72
-20.57
-20.22
-22.35
-27.63
-36.30
-48.24
-62.93
-79.48
-96.76
-113.43
-128.03
-139.22
-146.11
-148.41
-146.46
-140.88
-132.23
-120.77
-106.55
-89.66
-70.46
-49.65
-27.98
-6.04
16.06
38.61
62.08
86.66
111.93
136.62
158.77
176.21
187.27
191.27
188.80
181.35
170.92
159.34
148.05
137.98
129.73
123.61
119.54
116.93
114.65
111.35
105.93
98.01
88.00
76.96
66.26
57.15
50.56
46.97
46.34
48.20
51.84
56.43
61.22
65.65
69.32
72.00
73.57
73.97
73.27
71.65
69.30
66.32
62.59
57.91
52.28
46.03
39.89
34.69
31.18
29.65
29.95
31.52
33.57
35.17
35.34
33.24
28.36
20.76
10.98
0.02
-11.11
-21.67
-31.31
-40.06
-48.08
-55.54
-62.54
-69.30
-76.12
-83.27
-90.78
-98.22
-104.65
-108.83
-109.74
-106.91
-100.70
-92.22
-82.96
-74.47
-68.11
-64.92
-65.46
-69.64
-76.43
-83.87
-89.29
-90.19
-85.20
-74.70
-60.78
-46.48
-34.55
-26.49
-22.11
-19.93
-18.08
-15.20
-10.81
-5.26
0.90
7.43
14.57
22.81
32.44
43.22
54.33
64.82
74.01
81.75
88.30
94.01
98.90
102.62
104.51
103.94
100.66
94.76
86.60
76.53
64.77
51.43
36.79
21.62
7.45
-3.53
-9.01
-7.39
1.56
16.42
34.59
53.14
69.72
83.12
93.09
100.02
104.23
105.75
104.45
100.33
93.92
86.32
78.93
72.89
68.57
65.49
62.47
58.30
52.30
44.70
36.40
28.44
21.45
15.26
9.15
2.32
-5.50
-13.76
-21.12
-25.96
-26.93
-23.55
-16.38
-6.99
2.43
9.54
12.38
9.66
0.91
-13.44
-32.24
-53.95
-76.93
-99.79
-121.48
-141.24
-158.12
-170.87
-177.81
-177.41
-168.97
-153.19
-132.22
-109.09
-86.77
-67.45
-52.13
-40.89
-33.21
-28.54
-26.35
-26.13
-27.30
-29.17
-31.11
-32.64
-33.59
-34.02
-34.19
-34.32
-34.56
-34.85
-34.74
-33.48
-30.16
-24.18
-15.44
-4.60
7.24
18.99
30.12
40.86
51.87
63.67
76.00
87.69
97.01
102.37
102.91
98.68
90.49
79.40
66.47
52.42
37.57
21.75
4.23
-16.15
-40.56
-69.38
-101.52
-134.07
-162.92
-183.79
-193.70
-191.86
-179.85
-160.93
-138.92
-117.13
-97.82
-82.26
-71.14
-64.99
-64.33
-69.40
-79.66
-93.44
-107.96
-119.76
-125.50
-122.94
-111.48
-92.25
-67.62
-40.34
-12.86
13.16
36.84
57.90
76.26
92.01
105.31
116.48
125.84
133.36
138.31
139.12
133.85
120.90
99.98
72.52
41.39
9.97
-18.91
-43.70
-64.26
-81.16
-95.03
-105.99
-113.77
-118.11
-119.19
-117.86
-115.14
-111.61
-106.97
-100.18
-89.90
-75.45
-57.31
-37.27
-17.87
-1.54
10.16
16.88
19.34
18.98
17.26
15.37
14.03
13.50
13.73
14.55
15.73
17.03
18.24
19.10
19.34
18.72
17.23
15.01
12.38
9.60
6.81
4.07
1.32
-1.53
-4.63
-8.29
-12.95
-19.01
-26.37
-34.06
-40.15
-42.29
-38.54
-28.33
-12.75
6.11
26.07
45.75
64.74
83.11
100.56
115.99
127.75
134.28
135.03
130.66
122.75
113.08
102.92
92.80
82.81
73.08
64.11
56.78
51.88
49.46
48.37
46.28
40.49
28.96
11.44
-10.18
-32.42
-51.62
-65.40
-73.55
-77.97
-81.49
-86.41
-93.45
-101.60
-108.74
-112.96
-113.32
-110.23
-104.77
-97.98
-90.16
-81.05
-70.28
-58.11
-45.63
-34.32
-25.41
-19.25
-15.16
-11.84
-8.11
-3.43
1.92
7.05
10.92
12.77
12.37
10.00
6.38
2.32
-1.46
-4.59
-7.14
-9.45
-11.90
-14.68
-17.61
-20.31
-22.47
-24.12
-25.71
-28.02
-31.85
-37.79
-46.10
-56.70
-69.26
-83.20
-97.81
-112.24
-125.53
-136.67
-144.83
-149.68
-151.59
-151.69
-151.53
-152.58
-155.59
-160.14
-164.78
-167.58
-167.02
-162.72
-155.42
-146.40
-136.66
-126.25
-114.11
-98.49
-77.59
-50.05
-15.25
26.56
74.21
125.35
176.51
223.41
261.86
288.78
303.01
305.42
298.33
284.40
265.93
244.47
221.01
196.53
172.27
149.69
130.09
114.17
101.70
91.92
84.06
77.82
73.54
71.91
73.35
77.57
83.45
89.43
94.19
97.11
98.25
98.09
97.00
94.99
91.82
87.33
81.69
75.43
69.23
63.62
58.78
54.60
50.81
47.22
43.71
40.27
36.94
33.65
30.21
26.37
21.95
16.95
11.58
6.21
1.16
-3.34
-7.38
-11.24
-15.34
-20.08
-25.75
-32.39
-39.74
-47.15
-53.56
-57.62
-58.00
-53.80
-44.94
-32.29
-17.37
-2.07
11.97
23.64
32.47
38.49
41.96
43.27
42.82
41.14
38.89
36.76
35.29
34.75
35.01
35.69
36.36
36.75
36.84
36.75
36.60
36.36
35.76
34.46
32.15
28.73
24.35
19.41
14.39
9.69
5.52
1.73
-2.13
-6.57
-11.93
-18.01
-23.96
-28.45
-30.05
-27.73
-21.26
-11.26
0.87
13.51
25.20
35.07
42.87
48.81
53.34
56.79
59.32
60.88
61.30
60.45
58.28
54.91
50.60
45.72
40.67
35.87
31.65
28.20
25.54
23.47
21.67
19.78
17.61
15.11
12.41
9.73
7.21
4.83
2.36
-0.59
-4.34
-9.08
-14.72
-20.83
-26.68
-31.27
-33.60
-32.78
-28.44
-20.73
-10.39
1.47
13.67
25.22
35.54
44.42
51.92
58.14
63.18
67.01
69.52
70.52
69.79
67.17
62.69
56.60
49.33
41.48
33.68
26.54
20.55
15.98
12.88
11.04
10.00
9.17
7.95
5.84
2.56
-1.95
-7.54
-13.94
-20.88
-28.20
-35.77
-43.45
-50.85
-57.20
-61.38
-62.23
-58.98
-51.62
-41.06
-28.82
-16.58
-5.66
3.30
10.23
15.49
19.47
22.43
24.50
25.70
26.08
25.75
24.90
23.67
22.24
20.76
19.39
18.27
17.53
17.16
16.99
16.70
15.92
14.41
12.08
9.08
5.70
2.20
-1.29
-4.86
-8.72
-13.15
-18.29
-24.19
-30.72
-37.56
-44.09
-49.32
-52.04
-51.07
-45.81
-36.47
-24.25
-10.98
1.46
11.72
19.27
24.30
27.34
28.88
29.26
28.61
27.07
25.00
22.84
21.10
20.06
19.72
19.84
20.06
20.09
19.81
19.25
18.47
17.45
16.06
14.06
11.26
7.64
3.42
-1.04
-5.32
-9.21
-12.67
-15.87
-19.02
-22.21
-25.18
-27.37
-27.95
-26.11
-21.32
-13.54
-3.31
8.35
20.23
31.26
40.73
48.42
54.45
59.05
62.41
64.53
65.26
64.49
62.15
58.20
52.68
45.63
37.29
28.23
19.49
12.27
7.70
6.29
7.72
10.91
14.41
16.92
17.71
16.68
14.13
10.48
5.99
0.67
-5.55
-12.69
-20.66
-29.19
-37.90
-46.22
-53.40
-58.55
-60.86
-59.79
-55.40
-48.44
-40.22
-32.28
-25.96
-22.00
-20.45
-20.72
-21.87
-22.98
-23.43
-22.97
-21.83
-20.40
-19.15
-18.48
-18.55
-19.40
-20.98
-23.13
-25.72
-28.57
-31.48
-34.29
-36.82
-38.90
-40.39
-41.32
-41.83
-42.25
-42.98
-44.39
-46.74
-50.20
-54.79
-60.35
-66.38
-71.97
-75.87
-76.75
-73.66
-66.49
-56.07
-44.00
-32.12
-21.98
-14.41
-9.45
-6.56
-4.98
-4.09
-3.63
-3.65
-4.34
-5.80
-7.75
-9.67
-10.97
-11.24
-10.58
-9.43
-8.43
-8.13
-8.75
-10.14
-12.00
-14.00
-15.88
-17.49
-18.70
-19.38
-19.56
-19.47
-19.59
-20.55
-22.87
-26.59
-31.12
-35.26
-37.44
-36.38
-31.47
-23.17
-12.82
-2.19
7.11
14.15
18.73
21.31
22.53
22.93
22.80
22.20
21.10
19.59
17.83
16.04
14.41
13.06
11.97
10.98
9.87
8.37
6.31
3.62
0.44
-2.98
-6.34
-9.43
-12.19
-14.79
-17.50
-20.66
-24.48
-28.91
-33.63
-37.98
-41.04
-41.83
-39.64
-34.33
-26.38
-16.84
-6.88
2.56
11.02
18.53
25.43
31.91
37.89
42.96
46.63
48.55
48.75
47.69
46.16
45.18
45.74
48.62
54.13
61.90
70.89
79.52
86.30
90.38
91.94
92.08
92.04
92.18
91.20
86.33
74.38
53.28
23.24
-13.14
-51.74
-88.42
-120.30
-146.39
-167.25
-184.33
-199.14
-212.79
-225.82
-238.13
-249.18
-258.00
-263.41
-264.10
-258.83
-246.68
-227.38
-201.52
-170.69
-137.26
-103.78
-72.33
-44.06
-19.11
2.79
21.76
37.34
48.63
54.92
56.20
53.43
48.26
42.42
37.25
33.44
31.17
30.30
30.56
31.56
32.72
33.26
32.49
30.11
26.51
22.70
20.01
19.55
21.80
26.43
32.45
38.66
44.08
48.31
51.53
54.27
57.08
60.13
63.13
65.39
66.22
65.21
62.50
58.69
54.57
50.81
47.68
45.11
42.80
40.50
38.07
35.48
32.77
29.92
26.94
23.85
20.78
17.80
14.86
11.74
8.08
3.60
-1.73
-7.49
-12.91
-16.98
-18.74
-17.58
-13.33
-6.38
2.55
12.48
22.53
31.99
40.43
47.64
53.45
57.75
60.40
61.37
60.74
58.72
55.65
51.78
47.37
42.50
37.26
31.64
25.69
19.53
13.53
8.23
4.42
2.91
4.13
7.96
13.48
19.22
23.55
25.13
23.27
18.06
10.23
0.97
-8.19
-15.52
-19.30
-18.29
-12.08
-1.38
12.20
26.59
39.76
50.20
56.96
59.60
58.07
52.83
44.87
35.51
25.86
16.05
4.91
-9.46
-28.55
-52.01
-77.11
-99.43
-114.42
-119.33
-114.24
-101.92
-86.51
-71.89
-60.46
-52.94
-49.02
-48.24
-50.61
-56.96
-68.50
-86.36
-111.08
-142.05
-177.22
-213.06
-244.86
-267.72
-277.73
-273.19
-255.09
-226.78
-192.66
-156.67
-121.37
-87.82
-56.06
-26.16
1.51
26.72
50.05
73.09
97.39
122.84
146.56
163.30
167.06
153.61
122.40
77.07
24.11
-29.65
-79.02
-121.24
-155.52
-181.86
-200.06
-209.64
-210.11
-201.49
-184.46
-160.18
-130.04
-95.83
-59.89
-25.03
5.63
29.23
44.18
50.58
50.13
45.39
38.71
31.77
25.62
20.82
17.75
16.78
18.10
21.49
26.14
30.86
34.50
36.30
36.24
34.98
33.69
33.43
34.75
37.45
40.75
43.68
45.49
45.95
45.34
44.24
43.20
42.51
42.12
41.74
41.06
39.88
38.19
36.12
33.82
31.48
29.23
27.33
26.18
26.36
28.44
32.74
39.12
46.89
54.97
62.33
68.17
72.18
74.48
75.47
75.55
74.97
73.87
72.27
70.25
67.99
65.69
63.57
61.73
60.09
58.42
56.41
53.69
49.93
44.95
38.67
31.28
23.13
14.67
6.36
-1.40
-8.41
-14.60
-20.05
-24.96
-29.50
-33.77
-37.66
-40.77
-42.38
-41.63
-37.75
-30.42
-20.02
-7.53
5.65
18.20
29.18
38.20
45.30
50.79
54.99
58.11
60.32
61.70
62.32
62.27
61.61
60.40
58.73
56.76
54.67
52.65
50.83
49.19
47.67
46.07
44.17
41.77
38.71
34.94
30.53
25.72
20.84
16.34
12.50
9.42
6.81
4.11
0.64
-4.04
-9.91
-16.36
-22.26
-26.37
-27.69
-25.88
-21.31
-14.96
-7.98
-1.41
4.12
8.41
11.58
13.86
15.50
16.62
17.28
17.52
17.39
17.00
16.46
15.89
15.34
14.85
14.41
14.06
13.85
13.87
14.23
14.96
16.02
17.17
18.19
18.84
18.98
18.57
17.63
16.20
14.25
11.71
8.50
4.64
0.29
-4.26
-8.66
-12.58
-15.82
-18.44
-20.66
-22.73
-24.68
-26.22
-26.72
-25.48
-22.01
-16.34
-9.05
-1.16
6.29
12.57
17.38
20.85
23.28
24.99
26.14
26.75
26.78
26.23
25.15
23.64
21.86
19.92
17.94
16.01
14.20
12.55
11.09
9.82
8.74
7.85
7.10
6.44
5.77
4.95
3.88
2.46
0.65
-1.47
-3.74
-5.96
-7.93
-9.61
-11.11
-12.61
-14.29
-16.29
-18.60
-21.13
-23.71
-26.01
-27.57
-27.80
-26.08
-22.11
-16.11
-8.91
-1.74
4.15
7.94
9.44
9.03
7.40
5.09
2.50
-0.27
-3.12
-5.90
-8.29
-9.98
-10.81
-10.82
-10.31
-9.56
-8.75
-7.85
-6.72
-5.19
-3.26
-1.10
1.05
2.99
4.65
6.05
7.24
8.20
8.89
9.29
9.49
9.65
9.85
10.10
10.20
9.90
8.97
7.29
4.93
2.03
-1.17
-4.37
-7.19
-9.17
-9.89
-9.13
-6.94
-3.79
-0.29
2.93
5.46
7.23
8.37
9.09
9.53
9.65
9.34
8.59
7.58
6.65
6.24
6.66
7.98
10.04
12.49
14.94
17.03
18.55
19.41
19.72
19.77
20.01
20.93
22.87
25.82
29.28
32.39
34.23
34.25
32.50
29.70
26.84
24.65
23.22
21.76
19.07
14.27
7.46
-0.17
-6.62
-9.66
-7.38
1.47
17.15
38.53
62.81
85.57
101.83
107.53
101.23
84.91
63.37
42.48
26.88
18.50
16.38
17.66
19.01
17.95
13.39
5.70
-3.55
-12.23
-18.40
-21.01
-20.25
-17.44
-14.26
-11.84
-10.22
-8.35
-4.80
1.51
11.04
23.71
39.40
58.09
79.59
103.02
126.61
147.98
165.12
177.13
184.35
187.71
187.72
183.81
174.68
159.59
139.56
117.71
98.29
84.88
79.12
80.20
85.70
92.92
99.87
105.34
108.60
109.05
106.11
99.50
89.28
75.45
57.55
34.64
5.78
-29.07
-68.42
-109.75
-150.58
-189.62
-226.96
-263.13
-297.76
-328.65
-352.04
-363.76
-360.97
-343.15
-312.17
-271.90
-227.43
-184.25
-147.28
-119.62
-101.65
-90.87
-82.95
-73.60
-60.49
-44.04
-26.82
-11.95
-1.42
4.46
6.59
6.24
4.26
0.98
-3.21
-7.55
-10.90
-12.33
-11.74
-10.13
-9.27
-10.84
-15.78
-23.72
-33.13
-42.00
-48.55
-51.99
-52.68
-51.90
-51.14
-51.39
-52.66
-54.12
-54.67
-53.72
-51.64
-49.70
-49.48
-52.03
-57.41
-64.57
-71.83
-77.48
-80.16
-79.04
-73.85
-65.08
-54.06
-42.85
-33.49
-26.67
-20.65
-11.32
6.14
34.61
72.85
114.96
152.25
176.41
182.58
170.74
145.04
111.61
76.30
43.22
14.59
-8.64
-25.93
-36.64
-40.21
-36.52
-26.30
-11.19
6.60
24.88
42.13
57.89
72.56
86.65
100.06
111.78
120.10
123.40
120.90
113.19
102.09
90.15
79.84
72.87
69.74
69.72
71.17
72.19
71.22
67.54
61.25
52.96
43.41
32.99
21.79
9.67
-3.32
-16.82
-30.16
-42.67
-54.07
-64.54
-74.81
-85.77
-98.10
-112.00
-127.02
-142.32
-156.92
-170.09
-181.53
-191.49
-200.44
-208.67
-215.83
-220.77
-221.84
-217.52
-207.23
-191.75
-173.10
-153.66
-135.07
-117.52
-99.55
-78.72
-52.46
-18.96
22.46
71.30
125.82
183.08
239.11
289.60
331.10
362.22
384.07
399.36
410.44
417.42
417.42
405.77
378.48
334.72
278.05
215.49
155.16
103.69
64.45
37.42
20.28
9.74
2.71
-3.25
-9.91
-18.42
-29.23
-42.03
-55.78
-69.04
-80.61
-90.03
-97.82
-105.24
-113.66
-123.82
-135.42
-147.20
-157.43
-164.52
-167.52
-166.39
-161.87
-155.26
-148.07
-141.67
-137.01
-134.51
-133.92
-134.51
-135.35
-135.60
-134.98
-133.80
-132.92
-133.26
-135.42
-139.34
-144.37
-149.54
-154.02
-157.51
-160.29
-163.14
-167.02
-172.70
-180.44
-189.74
-199.31
-207.33
-211.93
-211.95
-207.39
-199.57
-190.45
-181.69
-173.61
-164.86
-152.91
-135.10
-109.85
-77.45
-40.10
-1.25
35.44
67.09
92.07
110.15
122.07
129.05
132.44
133.45
133.16
132.49
132.15
132.46
133.13
133.31
131.92
128.25
122.42
115.42
108.74
103.60
100.35
98.36
96.31
93.03
88.09
82.17
76.80
73.71
73.99
77.59
83.24
88.87
92.35
92.26
88.18
80.81
71.56
61.91
53.07
45.65
39.82
35.42
32.11
29.39
26.59
22.83
17.16
8.87
-2.23
-15.61
-30.18
-44.57
-57.45
-67.72
-74.48
-76.83
-73.86
-65.01
-50.47
-31.69
-11.27
7.66
22.42
31.55
35.19
34.76
32.15
28.94
25.95
23.18
20.08
15.95
10.16
2.38
-7.23
-17.88
-28.00
-35.49
-38.34
-35.36
-26.69
-13.88
0.66
14.53
26.03
34.40
39.68
42.18
42.19
39.84
35.30
29.02
21.70
14.20
7.29
1.47
-2.99
-6.05
-7.74
-8.25
-7.90
-7.21
-6.86
-7.48
-9.50
-13.08
-18.15
-24.59
-32.27
-41.16
-51.14
-61.95
-73.19
-84.42
-95.22
-105.27
-114.19
-121.49
-126.50
-128.44
-126.63
-120.63
-110.30
-95.84
-77.80
-57.18
-35.45
-14.53
3.58
17.24
25.69
29.08
28.24
24.21
18.03
10.66
3.24
-2.91
-6.47
-6.55
-2.99
3.62
12.42
22.78
34.27
46.27
57.51
66.22
71.23
73.31
75.28
80.31
89.02
97.44
97.64
81.44
45.48
-5.71
-60.53
-105.07
-128.97
-129.34
-110.59
-80.86
-47.73
-15.66
13.68
39.69
61.27
76.97
86.45
92.00
98.76
113.19
140.73
183.13
237.17
294.88
345.49
378.65
387.62
371.42
335.00
287.15
237.08
191.50
153.17
121.59
95.01
72.24
53.43
39.44
30.71
26.44
24.80
23.77
22.08
19.54
16.67
13.96
11.37
8.19
3.37
-4.12
-14.87
-29.02
-46.14
-65.42
-85.70
-105.60
-123.61
-138.27
-148.32
-152.80
-151.25
-143.99
-132.18
-117.71
-102.75
-89.07
-77.65
-68.50
-61.07
-54.68
-49.03
-44.23
-40.51
-38.07
-36.76
-36.30
-36.45
-37.16
-38.42
-39.94
-41.08
-40.86
-38.44
-33.53
-26.63
-18.86
-11.49
-5.51
-1.18
1.94
4.77
8.26
13.04
19.32
26.82
34.97
43.03
50.15
55.50
58.35
58.27
55.24
49.78
42.70
34.89
27.06
19.59
12.69
6.40
0.77
-4.20
-8.57
-12.51
-16.28
-20.17
-24.41
-29.04
-33.84
-38.19
-41.28
-42.24
-40.51
-35.98
-29.08
-20.58
-11.40
-2.23
6.51
14.66
22.20
29.13
35.34
40.59
44.39
46.06
44.91
40.51
33.04
23.44
13.23
4.03
-3.01
-7.59
-10.39
-12.73
-15.95
-20.94
-27.66
-35.23
-42.25
-47.33
-49.53
-48.76
-45.75
-41.89
-38.71
-37.37
-38.29
-40.95
-44.15
-46.50
-46.90
-44.97
-41.04
-35.98
-30.69
-25.90
-21.94
-18.87
-16.61
-15.13
-14.58
-15.18
-17.15
-20.41
-24.50
-28.54
-31.48
-32.50
-31.40
-28.70
-25.37
-22.36
-20.14
-18.62
-17.36
-15.97
-14.50
-13.45
-13.44
-14.91
-17.80
-21.69
-26.07
-30.63
-35.20
-39.59
-43.22
-45.02
-43.49
-37.21
-25.31
-7.79
14.53
40.29
67.95
96.06
123.26
148.22
169.72
186.95
199.88
209.54
217.73
226.40
236.87
249.38
263.17
277.14
290.42
302.63
313.47
322.22
327.27
326.62
318.76
303.62
283.01
260.14
238.47
220.48
207.11
197.81
191.29
186.22
181.67
177.15
172.34
166.81
160.00
151.39
140.71
128.05
113.86
98.78
83.37
68.00
52.79
37.67
22.51
7.25
-8.06
-23.26
-38.14
-52.48
-66.11
-78.86
-90.59
-101.27
-110.93
-119.80
-128.15
-136.27
-144.30
-152.13
-159.39
-165.70
-170.85
-175.03
-178.81
-183.04
-188.48
-195.65
-204.86
-216.29
-230.12
-246.39
-264.60
-283.47
-301.04
-314.98
-323.22
-324.24
-317.26
-302.12
-279.38
-250.61
-218.51
-186.86
-159.80
-140.81
-131.63
-131.55
-137.40
-144.29
-146.84
-140.62
-123.72
-97.76
-67.63
-40.19
-21.71
-15.68
-22.06
-38.05
-59.92
-84.58
-110.07
-134.94
-157.46
-175.39
-186.61
-190.13
-186.57
-177.87
-166.45
-154.28
-142.48
-131.56
-121.60
-112.25
-102.52
-90.79
-75.37
-55.41
-31.55
-5.90
18.36
38.50
52.86
60.92
62.65
57.93
46.58
29.01
6.93
-16.70
-37.79
-52.51
-58.70
-56.79
-49.36
-39.93
-31.29
-24.83
-21.26
-20.22
-20.77
-21.72
-21.86
-19.98
-14.92
-5.95
6.76
19.83
29.93
35.21
35.63
32.13
25.59
16.55
5.39
-7.46
-25.34
-49.57
-78.10
-106.81
-132.27
-153.48
-171.37
-187.48
-202.83
-224.06
-254.06
-290.06
-325.57
-354.69
-375.11
-387.84
-395.52
-401.00
-414.67
-441.69
-478.54
-515.42
-542.06
-552.85
-547.62
-530.31
-453.97
-304.49
-104.69
99.24
269.21
391.50
469.92
514.56
535.69
542.10
532.63
506.88
472.25
439.05
415.61
404.41
403.01
406.66
410.88
406.57
389.99
364.80
336.87
312.16
292.78
277.34
263.38
249.35
231.56
209.21
184.63
160.89
140.01
121.90
105.68
90.89
77.43
62.96
45.56
25.21
4.24
-13.14
-23.08
-24.12
-18.26
-10.50
-7.24
-12.18
-24.20
-37.89
-46.27
-44.37
-31.31
-10.17
13.67
34.86
49.89
57.63
58.90
55.43
48.81
39.96
29.10
16.12
1.04
-15.72
-33.43
-51.22
-68.54
-85.25
-101.67
-118.19
-134.97
-151.65
-167.45
-181.67
-193.90
-204.22
-212.73
-219.00
-221.66
-218.59
-207.51
-186.87
-156.63
-118.23
-74.40
-28.39
16.58
57.76
93.08
121.21
141.66
154.71
161.35
162.94
161.00
157.00
152.26
147.77
144.10
141.23
138.78
136.14
132.86
128.80
124.22
119.60
115.47
112.17
109.89
108.65
108.46
109.17
110.52
112.08
113.27
113.51
112.40
109.77
105.83
101.02
96.01
91.57
88.38
86.91
87.26
89.15
91.92
94.81
97.01
98.05
97.76
96.28
93.94
91.08
87.91
84.50
80.76
76.52
71.70
66.40
61.00
56.04
52.00
49.08
46.92
44.85
42.04
37.95
32.49
26.04
19.19
12.42
5.89
-0.58
-7.43
-15.05
-23.64
-32.94
-42.27
-50.42
-55.96
-57.54
-54.32
-46.47
-35.27
-22.92
-11.89
-4.19
-0.62
-0.66
-2.75
-5.17
-6.84
-7.83
-9.27
-12.68
-19.19
-28.98
-41.14
-54.05
-65.91
-75.18
-80.71
-81.96
-78.93
-72.46
-64.25
-56.79
-52.70
-53.98
-61.24
-73.43
-88.27
-103.06
-115.59
-124.62
-129.66
-130.52
-126.79
-117.82
-103.18
-83.41
-60.28
-36.58
-15.19
1.91
14.30
22.86
29.03
33.73
36.90
37.68
35.10
28.93
19.98
9.92
0.57
-6.77
-11.64
-14.32
-15.34
-15.04
-13.39
-10.14
-5.22
0.92
7.22
12.34
15.18
15.35
13.23
9.63
5.16
-0.18
-6.75
-14.80
-23.81
-32.51
-39.33
-43.28
-44.55
-44.42
-44.46
-45.61
-47.52
-48.70
-47.40
-42.57
-34.55
-25.03
-16.34
-10.45
-8.25
-9.32
-12.29
-15.69
-18.58
-20.89
-23.12
-25.72
-28.60
-30.96
-31.60
-29.48
-24.19
-16.05
-5.95
5.08
16.15
26.64
36.02
43.95
50.27
55.14
59.16
63.13
67.79
73.56
80.44
88.08
96.10
104.10
111.64
118.01
122.20
123.07
119.72
112.09
101.01
88.14
75.37
64.28
55.63
49.30
44.45
39.91
34.77
28.70
22.11
15.84
10.80
7.53
5.98
5.63
5.73
5.63
4.83
2.98
-0.26
-5.04
-11.10
-17.69
-23.62
-27.68
-29.11
-27.80
-24.22
-19.00
-12.58
-5.06
3.45
12.40
20.61
26.45
28.50
26.32
20.81
13.95
8.01
4.48
3.51
3.94
4.01
2.39
-1.18
-5.80
-10.02
-12.65
-13.35
-12.84
-12.42
-13.39
-16.43
-21.45
-27.70
-34.25
-40.31
-45.38
-49.17
-51.43
-51.85
-50.07
-45.83
-39.23
-30.79
-21.48
-12.64
-5.59
-1.34
-0.32
-2.20
-6.06
-10.66
-14.79
-17.67
-19.32
-20.55
-22.89
-28.05
-37.11
-49.77
-64.13
-77.08
-85.37
-86.94
-81.69
-71.52
-59.50
-48.60
-40.80
-36.70
-35.63
-36.03
-35.91
-33.24
-26.39
-14.61
1.58
20.28
38.77
54.26
64.71
69.34
68.63
63.90
56.70
48.45
40.13
32.48
26.00
21.09
17.97
16.58
16.52
17.01
17.18
16.26
13.88
10.11
5.30
-0.03
-5.51
-10.92
-16.30
-21.72
-27.32
-33.13
-39.14
-45.31
-51.41
-56.98
-61.24
-63.09
-61.45
-55.74
-46.19
-34.01
-20.99
-8.95
0.86
8.08
13.13
16.70
19.27
20.82
20.96
19.30
15.83
11.18
6.30
2.23
-0.44
-1.74
-2.32
-3.06
-4.73
-7.67
-11.75
-16.61
-21.83
-27.16
-32.46
-37.48
-41.86
-45.25
-47.76
-50.36
-54.77
-62.60
-74.29
-88.09
-100.26
-106.14
-101.97
-86.21
-60.05
-26.73
9.75
45.72
78.28
105.20
124.69
135.45
137.14
130.78
118.85
104.63
91.32
81.02
74.32
70.43
67.71
64.59
60.10
54.19
47.51
40.97
35.23
30.49
26.50
22.71
18.49
13.25
6.46
-2.17
-12.54
-23.84
-34.46
-42.27
-45.22
-42.11
-33.11
-19.89
-5.03
8.81
19.76
27.16
31.50
33.86
35.18
35.76
35.17
32.55
27.18
19.05
9.02
-1.30
-10.11
-16.03
-18.58
-18.23
-16.04
-13.21
-10.77
-9.28
-8.88
-9.20
-9.35
-7.95
-3.64
4.08
14.11
23.52
28.37
25.25
12.88
-6.86
-29.34
-48.69
-59.97
-61.00
-53.05
-40.21
-27.58
-19.25
-16.70
-18.40
-20.69
-19.45
-11.62
3.94
26.71
55.34
88.44
124.76
162.77
200.28
234.49
262.62
282.88
294.99
300.15
300.25
296.95
290.81
281.21
266.64
245.64
217.46
182.48
142.11
98.17
52.09
4.41
-45.11
-96.76
-149.93
-202.65
-251.90
-294.74
-329.58
-356.81
-378.54
-397.47
-415.64
-433.69
-451.00
-466.23
-477.93
-484.82
-485.53
-478.55
-462.44
-436.41
-400.96
-358.07
-310.59
-261.36
-212.43
-164.79
-118.78
-74.84
-34.08
1.77
30.81
51.75
64.33
69.35
68.25
62.67
54.13
44.06
33.73
24.24
16.35
10.29
5.92
3.06
1.78
2.53
5.77
11.52
19.07
27.38
35.60
43.62
51.93
60.92
70.33
79.06
85.70
89.33
90.10
88.96
87.03
84.99
82.95
80.96
79.42
79.08
80.37
82.80
84.76
84.26
80.01
72.27
63.05
55.22
51.57
54.05
63.56
80.06
102.76
130.06
159.40
187.66
211.94
230.64
244.26
255.04
265.77
278.07
291.25
302.47
308.14
305.79
295.36
279.22
260.78
242.86
226.27
209.96
191.92
170.71
146.35
120.25
94.37
70.17
48.12
27.76
8.42
-10.17
-27.65
-43.25
-56.35
-66.86
-75.34
-82.69
-89.75
-96.92
-104.05
-110.68
-116.27
-120.30
-122.41
-122.30
-119.73
-114.63
-107.25
-98.21
-88.25
-77.65
-66.07
-53.09
-38.98
-25.65
-16.44
-14.81
-22.52
-38.15
-57.20
-73.84
-83.41
-84.21
-77.79
-67.57
-56.76
-47.01
-38.25
-29.78
-21.41
-14.19
-9.75
-9.39
-13.25
-19.87
-26.86
-31.85
-33.55
-32.04
-28.66
-25.11
-22.73
-22.08
-22.95
-24.71
-26.70
-28.40
-29.44
-29.45
-28.04
-24.86
-19.76
-12.94
-5.02
3.06
10.32
15.99
19.68
21.39
21.46
20.36
18.70
17.01
15.73
15.08
15.00
15.18
15.25
15.00
14.45
13.84
13.41
13.20
12.98
12.42
11.27
9.62
7.81
6.23
5.12
4.37
3.59
2.33
0.26
-2.73
-6.55
-10.87
-15.23
-18.97
-21.35
-21.74
-19.83
-15.83
-10.39
-4.47
1.06
5.65
9.21
11.95
14.14
15.92
17.27
18.02
18.02
17.29
15.96
14.30
12.54
10.85
9.31
7.97
6.82
5.82
4.88
3.80
2.44
0.58
-1.81
-4.63
-7.60
-10.45
-12.94
-14.97
-16.63
-18.08
-19.56
-21.29
-23.40
-25.89
-28.53
-30.88
-32.33
-32.24
-30.19
-26.13
-20.42
-13.76
-6.99
-0.85
4.17
7.86
10.25
11.52
11.93
11.81
11.44
11.04
10.68
10.36
9.97
9.35
8.42
7.15
5.67
4.18
2.93
2.02
1.43
0.95
0.20
-1.20
-3.48
-6.59
-10.25
-13.99
-17.39
-20.25
-22.66
-24.95
-27.51
-30.66
-34.46
-38.60
-42.41
-45.04
-45.63
-43.70
-39.30
-33.11
-26.31
-20.17
-15.63
-12.95
-11.63
-10.53
-8.25
-3.66
3.76
13.66
24.92
36.07
45.73
53.06
57.96
60.92
62.67
63.87
64.79
65.41
65.47
64.70
62.89
59.95
55.87
50.66
44.44
37.36
29.66
21.62
13.58
5.84
-1.44
-8.19
-14.51
-20.39
-25.68
-29.91
-32.43
-32.66
-30.45
-26.31
-21.34
-16.82
-13.71
-12.29
-12.15
-12.41
-12.25
-11.18
-9.26
-6.91
-4.65
-2.88
-1.74
-1.21
-1.08
-1.16
-1.25
-1.25
-1.08
-0.77
-0.46
-0.36
-0.75
-1.88
-3.81
-6.37
-9.20
-11.78
-13.70
-14.84
-15.44
-16.00
-17.14
-19.32
-22.62
-26.65
-30.62
-33.53
-34.57
-33.35
-30.03
-25.24
-19.79
-14.36
-9.33
-4.78
-0.65
3.05
6.18
8.53
9.95
10.44
10.21
9.59
8.91
8.44
8.30
8.54
9.08
9.75
10.40
10.87
11.04
10.86
10.25
9.10
7.35
5.01
2.25
-0.65
-3.35
-5.63
-7.40
-8.77
-9.95
-11.19
-12.76
-14.81
-17.36
-20.20
-22.89
-24.69
-24.88
-22.95
-18.91
-13.34
-7.23
-1.55
3.02
6.30
8.50
10.00
11.12
11.93
12.38
12.41
12.08
11.60
11.14
10.83
10.61
10.38
10.01
9.48
8.88
8.30
7.81
7.31
6.60
5.49
3.85
1.74
-0.70
-3.21
-5.55
-7.62
-9.41
-11.08
-12.92
-15.15
-17.79
-20.58
-22.91
-24.10
-23.51
-20.88
-16.41
-10.74
-4.65
1.12
6.05
9.94
12.76
14.63
15.67
16.01
15.78
15.16
14.34
13.52
12.87
12.47
12.36
12.45
12.62
12.67
12.41
11.72
10.57
9.03
7.25
5.32
3.29
1.08
-1.34
-3.96
-6.68
-9.39
-12.04
-14.74
-17.63
-20.72
-23.75
-26.19
-27.36
-26.73
-24.17
-20.00
-14.88
-9.55
-4.58
-0.31
3.21
6.09
8.44
10.34
11.79
12.77
13.23
13.16
12.63
11.72
10.57
9.33
8.15
7.17
6.48
6.13
6.08
6.21
6.33
6.20
5.61
4.39
2.56
0.23
-2.31
-4.71
-6.68
-8.10
-9.16
-10.26
-11.87
-14.19
-17.07
-19.87
-21.63
-21.43
-18.71
-13.49
-6.35
1.70
9.61
16.50
21.88
25.62
27.85
28.79
28.63
27.53
25.56
22.82
19.36
15.27
10.61
5.46
0.02
-5.39
-10.37
-14.52
-17.57
-19.53
-20.63
-21.27
-21.84
-22.61
-23.76
-25.31
-27.25
-29.48
-31.81
-33.93
-35.55
-36.42
-36.51
-35.98
-35.07
-33.98
-32.72
-31.10
-28.83
-25.60
-21.26
-15.76
-9.17
-1.63
6.55
14.89
22.70
29.23
33.88
36.40
37.00
36.31
35.09
33.93
33.04
32.29
31.26
29.61
27.24
24.31
21.28
18.71
17.12
16.90
18.12
20.48
23.37
26.04
27.81
28.29
27.45
25.55
23.04
20.27
17.49
14.71
11.86
8.78
5.46
2.12
-0.77
-2.56
-2.77
-1.17
1.99
6.10
10.45
14.40
17.58
19.84
21.11
21.40
20.87
19.89
19.01
18.88
19.81
21.68
23.86
25.47
25.81
24.56
21.75
17.70
12.69
7.02
1.01
-4.87
-9.98
-13.79
-16.04
-16.99
-17.26
-17.55
-18.26
-19.29
-20.10
-20.07
-18.83
-16.44
-13.44
-10.52
-8.26
-6.92
-6.32
-5.98
-5.36
-4.06
-1.96
0.73
3.67
6.48
8.90
10.78
12.10
12.80
12.85
12.20
10.84
8.84
6.31
3.46
0.54
-2.23
-4.67
-6.74
-8.47
-9.98
-11.31
-12.41
-13.10
-13.14
-12.39
-10.95
-9.14
-7.41
-6.15
-5.50
-5.32
-5.28
-5.09
-4.58
-3.87
-3.24
-3.02
-3.39
-4.17
-4.89
-4.92
-3.80
-1.33
2.25
6.43
10.58
14.13
16.64
17.79
17.37
15.26
11.57
6.61
0.88
-5.02
-10.54
-15.28
-19.00
-21.55
-22.85
-22.96
-22.18
-21.10
-20.44
-20.87
-22.61
-25.28
-27.98
-29.59
-29.18
-26.44
-21.80
-16.19
-10.85
-6.81
-4.74
-4.78
-6.52
-9.11
-11.40
-12.25
-10.81
-6.85
-0.76
6.59
14.13
20.90
26.33
30.21
32.70
34.28
35.55
37.21
39.66
42.85
46.17
48.63
49.27
47.54
43.62
38.24
32.45
27.05
22.42
18.51
15.07
11.83
8.65
5.48
2.20
-1.39
-5.52
-10.26
-15.36
-20.31
-24.51
-27.52
-29.29
-30.15
-30.62
-31.24
-32.31
-33.80
-35.42
-36.76
-37.38
-37.05
-35.71
-33.53
-30.71
-27.53
-24.23
-21.07
-18.23
-15.89
-14.14
-12.99
-12.25
-11.74
-11.27
-10.76
-10.21
-9.67
-9.11
-8.49
-7.77
-6.95
-6.21
-5.74
-5.76
-6.39
-7.59
-9.15
-10.78
-12.24
-13.37
-14.23
-15.00
-15.92
-17.11
-18.57
-20.14
-21.63
-22.84
-23.56
-23.62
-22.76
-20.76
-17.57
-13.36
-8.51
-3.53
1.17
5.39
9.07
12.24
14.89
16.84
17.85
17.78
16.64
14.68
12.33
9.97
7.88
6.19
4.84
3.71
2.71
1.83
1.11
0.59
0.19
-0.21
-0.79
-1.69
-2.88
-4.21
-5.53
-6.73
-7.85
-9.13
-10.81
-13.04
-15.74
-18.57
-20.86
-21.94
-21.22
-18.47
-13.93
-8.27
-2.36
2.95
7.16
10.20
12.26
13.65
14.59
15.09
15.10
14.50
13.34
11.86
10.36
9.19
8.55
8.46
8.76
9.15
9.34
9.11
8.43
7.40
6.17
4.86
3.50
2.06
0.51
-1.15
-2.87
-4.62
-6.49
-8.59
-11.04
-13.87
-16.94
-19.89
-22.24
-23.49
-23.34
-21.68
-18.69
-14.77
-10.44
-6.22
-2.54
0.36
2.43
3.77
4.58
5.11
5.55
6.03
6.57
7.11
7.57
7.88
8.02
8.01
7.86
7.63
7.33
6.96
6.46
5.69
4.52
2.81
0.60
-1.91
-4.40
-6.49
-8.03
-9.06
-9.89
-10.91
-12.45
-14.66
-17.47
-20.54
-23.33
-25.22
-25.70
-24.47
-21.62
-17.55
-12.89
-8.23
-3.91
-0.06
3.35
6.33
8.82
10.70
11.89
12.47
12.63
12.60
12.57
12.56
12.52
12.40
12.23
12.11
12.14
12.38
12.74
13.07
13.17
12.94
12.30
11.28
9.91
8.26
6.36
4.31
2.14
-0.10
-2.37
-4.74
-7.30
-10.10
-13.08
-16.09
-18.75
-20.65
-21.40
-20.73
-18.63
-15.33
-11.27
-6.98
-2.97
0.43
3.12
5.18
6.80
8.14
9.27
10.20
10.92
11.45
11.87
12.24
12.52
12.61
12.31
11.58
10.50
9.35
8.40
7.87
7.70
7.65
7.39
6.62
5.25
3.41
1.33
-0.72
-2.56
-4.13
-5.45
-6.61
-7.73
-8.99
-10.51
-12.37
-14.45
-16.41
-17.71
-17.79
-16.34
-13.40
-9.35
-4.82
-0.42
3.42
6.47
8.72
10.23
11.11
11.52
11.60
11.44
11.14
10.70
10.08
9.31
8.40
7.46
6.63
5.99
5.55
5.28
5.09
4.85
4.42
3.65
2.45
0.81
-1.13
-3.18
-5.05
-6.55
-7.63
-8.48
-9.41
-10.77
-12.70
-15.13
-17.68
-19.85
-21.17
-21.31
-20.18
-17.88
-14.65
-10.78
-6.61
-2.52
1.13
4.01
5.99
7.12
7.64
7.85
7.98
8.14
8.29
8.37
8.38
8.42
8.64
9.09
9.64
10.02
9.95
9.32
8.23
6.94
5.67
4.48
3.24
1.75
-0.12
-2.27
-4.42
-6.24
-7.58
-8.44
-8.93
-9.10
-8.86
-8.15
-6.91
-5.15
-2.93
-0.21
3.21
7.62
13.28
20.13
27.53
34.64
40.72
45.51
49.32
52.84
56.78
61.45
66.60
71.24
74.63
76.71
78.18
80.18
83.87
89.99
98.73
109.75
121.43
132.16
140.63
145.74
146.54
142.39
132.89
118.41
99.93
77.38
51.14
21.93
-9.70
-43.84
-80.87
-121.35
-164.80
-209.37
-253.75
-294.88
-328.10
-348.39
-352.04
-337.75
-307.84
-267.04
-212.39
-148.32
-83.72
-27.83
13.88
38.67
49.15
46.62
31.93
7.06
-25.20
-59.08
-87.46
-104.60
-108.01
-97.83
-75.79
-42.84
3.10
58.29
114.01
158.90
183.72
185.28
167.43
138.35
107.27
81.07
61.72
48.88
41.94
41.37
47.22
58.45
71.80
82.71
87.26
83.21
72.14
58.55
47.83
43.61
46.58
54.72
64.46
72.53
76.63
76.24
72.27
66.37
60.13
54.69
50.56
47.90
46.60
46.30
46.47
46.42
45.42
42.64
37.41
29.58
19.71
9.15
-0.23
-6.68
-9.10
-7.35
-2.37
4.27
10.93
16.26
19.50
20.35
18.92
15.55
10.93
5.90
1.25
-2.54
-5.60
-8.61
-12.43
-17.62
-24.10
-31.12
-37.71
-43.19
-47.62
-51.83
-57.13
-64.70
-75.09
-87.96
-102.05
-115.63
-126.83
-134.07
-136.48
-134.19
-128.51
-121.77
-116.66
-115.22
-117.88
-123.04
-127.48
-127.84
-122.01
-110.02
-93.83
-76.13
-59.03
-43.23
-28.25
-13.24
1.97
16.54
29.01
38.10
43.38
45.48
45.72
45.47
45.65
46.54
47.93
49.47
51.05
52.88
55.40
58.99
63.61
68.74
73.44
76.75
78.06
77.30
74.98
71.97
69.14
67.20
66.55
67.33
69.46
72.78
77.02
81.87
86.95
91.82
96.03
99.19
101.07
101.79
101.77
101.62
101.97
103.09
104.63
105.50
104.09
98.59
87.67
70.93
49.10
23.90
-2.45
-27.74
-50.14
-68.31
-81.37
-88.82
-90.51
-86.79
-78.48
-66.85
-53.38
-39.37
-25.79
-13.17
-1.68
8.70
17.97
26.07
32.73
37.51
39.95
39.77
37.11
32.80
28.24
25.17
25.18
29.28
37.55
49.18
62.76
76.74
89.91
101.71
112.13
121.46
129.88
137.17
142.68
145.60
145.33
141.70
134.99
125.66
114.02
100.00
83.20
63.06
39.02
10.79
-21.41
-56.51
-92.29
-125.45
-152.43
-170.44
-178.71
-179.37
-177.15
-178.11
-187.94
-210.07
-244.65
-288.56
-336.04
-379.99
-413.73
-432.63
-435.14
-423.01
-400.51
-372.85
-345.04
-320.47
-300.41
-284.35
-270.83
-257.87
-243.55
-226.00
-203.66
-176.94
-147.39
-117.30
-89.17
-65.15
-45.80
-30.45
-16.82
-2.20
13.08
27.49
39.55
48.77
55.57
61.48
66.57
70.19
70.98
64.29
47.36
21.47
-8.62
-38.11
-63.23
-84.39
-102.83
-119.07
-136.74
-157.78
-181.17
-203.57
-221.82
-232.18
-233.97
-226.91
-186.30
-103.93
8.80
126.73
226.61
287.78
316.12
319.02
302.18
270.00
224.80
169.39
109.55
59.09
29.79
28.50
51.75
90.77
136.52
179.05
211.98
233.36
244.34
245.70
238.24
222.19
199.23
174.12
151.89
137.93
136.43
148.26
169.31
190.98
202.59
197.85
177.73
147.73
115.03
85.67
62.72
45.66
31.92
18.03
1.39
-19.27
-43.53
-69.67
-94.57
-114.67
-127.23
-131.06
-126.59
-114.90
-97.04
-73.89
-46.93
-18.59
7.44
26.77
35.96
34.38
25.04
14.38
10.12
17.86
39.02
70.64
107.29
143.72
176.52
203.94
224.07
233.38
226.65
199.05
148.83
78.71
-5.11
-95.70
-187.93
-278.91
-366.36
-446.29
-511.88
-554.81
-568.58
-551.47
-507.67
-445.50
-374.14
-300.81
-229.86
-163.69
-104.31
-54.19
-15.58
10.67
26.08
34.26
39.40
44.76
51.87
60.73
70.44
80.03
88.71
95.93
101.19
103.99
103.93
101.01
95.63
88.63
81.13
74.46
70.15
69.73
74.30
84.00
97.74
113.28
127.78
138.66
144.15
143.51
137.01
125.56
110.64
94.03
77.58
62.77
50.42
40.61
33.06
27.57
24.22
23.20
24.22
26.23
27.70
27.40
25.13
21.89
19.28
18.54
19.89
22.45
24.91
26.38
26.93
27.59
29.75
34.50
42.07
51.84
62.70
73.56
83.81
93.33
102.30
110.79
118.61
125.31
130.34
133.35
134.23
133.29
131.14
128.79
127.51
128.62
133.20
141.88
154.82
171.79
192.11
214.30
235.77
253.12
263.04
263.75
255.87
242.26
226.60
211.69
198.28
185.44
171.86
157.31
143.16
131.63
124.32
120.94
119.16
115.57
107.14
92.53
72.30
48.36
23.00
-2.07
-26.18
-49.51
-72.57
-95.83
-119.61
-144.25
-169.79
-195.32
-218.27
-234.24
-237.98
-225.32
-195.22
-150.66
-97.97
-44.64
2.82
40.21
65.56
78.11
77.50
63.55
37.03
0.33
-42.47
-86.55
-127.96
-164.94
-198.31
-230.76
-265.23
-303.00
-342.58
-379.80
-409.14
-425.83
-427.64
-415.63
-393.36
-365.23
-334.66
-303.25
-270.97
-237.22
-201.90
-165.89
-130.90
-98.49
-69.20
-42.19
-15.51
13.10
45.33
81.68
121.22
161.49
198.50
226.80
240.09
232.74
201.96
149.79
83.73
15.04
-44.73
-87.48
-110.81
-117.58
-113.22
-102.50
-87.61
-68.44
-44.68
-17.68
8.86
30.27
43.17
47.21
45.15
41.41
39.86
42.00
46.55
50.37
50.36
44.92
34.87
23.02
12.93
7.58
8.05
13.20
20.03
24.97
25.31
20.11
10.06
-3.48
-19.45
-37.54
-57.41
-77.76
-95.73
-107.59
-110.52
-104.27
-91.67
-77.35
-65.39
-57.18
-51.01
-43.30
-30.92
-13.13
8.14
29.27
46.74
58.44
64.20
65.36
63.66
60.79
57.95
56.15
56.52
60.20
67.88
79.09
91.77
102.49
107.62
104.77
93.94
77.83
61.07
48.62
44.21
49.19
62.39
80.70
100.07
116.46
126.58
128.40
121.40
106.62
86.33
63.49
40.87
20.23
1.78
-15.65
-33.86
-53.99
-75.47
-95.94
-112.19
-121.71
-124.32
-122.51
-120.55
-122.59
-130.52
-142.87
-155.12
-161.18
-155.35
-133.85
-95.59
-42.10
22.64
92.59
160.20
217.53
257.81
277.18
275.74
257.57
229.41
198.69
171.51
151.37
138.70
131.38
125.76
118.02
105.35
86.87
63.84
39.06
15.70
-3.84
-18.84
-30.21
-39.64
-48.62
-57.65
-66.09
-72.46
-75.08
-72.80
-65.50
-54.48
-42.18
-31.74
-26.03
-26.73
-33.86
-45.74
-59.60
-72.58
-82.70
-89.42
-93.57
-96.64
-99.91
-103.53
-106.29
-105.94
-100.07
-87.07
-66.65
-39.97
-9.04
23.74
55.81
84.56
107.36
121.99
127.27
123.73
113.59
100.02
85.98
73.18
61.82
51.17
40.60
30.34
21.64
16.00
14.38
16.56
21.23
26.60
31.09
33.92
35.00
34.80
33.83
32.43
30.76
28.86
26.81
24.64
22.25
19.33
15.47
10.46
4.57
-1.33
-6.11
-8.73
-8.70
-6.13
-1.48
4.86
12.81
22.50
34.01
46.99
60.49
73.16
83.62
90.63
93.34
91.13
83.76
71.36
54.77
35.44
15.31
-3.69
-20.13
-33.50
-44.12
-52.86
-60.67
-68.18
-75.44
-82.18
-88.05
-92.92
-97.12
-101.39
-106.61
-113.56
-122.65
-133.70
-146.03
-158.54
-169.88
-178.67
-183.85
-184.78
-181.46
-174.49
-164.83
-153.48
-141.12
-128.02
-114.03
-98.80
-82.09
-63.87
-44.54
-24.91
-6.17
10.23
22.83
30.41
32.48
29.36
22.25
12.79
2.57
-7.36
-16.60
-25.17
-33.22
-40.68
-47.28
-52.73
-57.07
-60.73
-64.45
-68.98
-74.80
-81.75
-89.07
-95.54
-99.73
-100.42
-97.05
-90.03
-80.69
-71.02
-62.83
-56.97
-52.81
-48.30
-40.71
-27.61
-7.64
19.19
51.71
88.05
125.81
162.00
192.96
214.67
223.54
217.57
197.10
164.91
125.46
83.74
44.28
10.64
-14.81
-30.90
-37.75
-36.79
-30.48
-21.78
-13.49
-7.67
-5.40
-6.88
-11.50
-17.99
-24.44
-28.45
-27.53
-19.93
-5.27
15.09
38.23
60.33
77.59
87.20
87.79
79.70
64.71
45.77
26.54
10.75
1.45
-0.07
5.01
13.13
19.63
20.80
15.75
6.93
-1.04
-3.78
0.54
10.29
21.28
28.90
30.20
24.72
13.89
-0.22
-15.80
-31.52
-46.16
-58.15
-65.58
-66.97
-61.96
-51.69
-38.64
-25.68
-15.27
-8.58
-5.44
-4.66
-4.71
-4.44
-3.39
-1.87
-0.60
-0.31
-1.38
-3.83
-7.31
-11.35
-15.27
-18.44
-20.35
-20.91
-20.69
-20.84
-22.67
-27.00
-33.82
-42.16
-50.67
-58.16
-64.07
-68.34
-71.05
-72.10
-70.97
-67.13
-60.29
-50.81
-39.56
-27.72
-16.46
-6.65
1.18
6.84
10.35
11.93
11.90
10.64
8.49
5.70
2.47
-1.00
-4.41
-7.38
-9.50
-10.56
-10.57
-9.82
-8.79
-7.94
-7.55
-7.61
-7.94
-8.29
-8.54
-8.70
-8.98
-9.57
-10.56
-11.92
-13.52
-15.28
-17.14
-18.94
-20.33
-20.72
-19.32
-15.48
-9.05
-0.51
9.01
18.11
25.60
30.82
33.72
34.70
34.26
32.75
30.28
26.86
22.55
17.62
12.49
7.62
3.31
-0.33
-3.36
-5.88
-7.97
-9.64
-10.88
-11.77
-12.36
-12.83
-13.34
-14.02
-14.95
-16.18
-17.74
-19.73
-22.29
-25.43
-28.92
-32.20
-34.31
-34.15
-30.85
-24.09
-14.40
-3.02
8.48
18.72
26.88
32.87
37.11
40.38
43.22
45.81
48.01
49.56
50.43
50.83
51.26
52.12
53.74
56.03
58.50
60.50
61.42
61.04
59.53
57.42
55.32
53.94
53.54
53.69
53.58
52.31
49.37
44.78
39.22
33.68
29.93
29.07
31.11
35.06
39.65
44.00
47.78
51.64
56.59
65.24
79.19
98.42
121.37
145.58
168.50
187.42
200.97
209.13
216.55
228.77
250.14
281.95
321.87
364.71
403.33
431.99
446.94
450.52
446.08
435.60
419.03
395.63
366.09
332.56
299.95
250.63
177.93
87.21
-6.08
-86.57
-146.96
-182.54
-201.43
-209.56
-211.06
-206.08
-196.27
-185.97
-180.02
-182.15
-193.61
-214.19
-241.06
-270.87
-297.37
-315.47
-322.82
-320.77
-313.33
-304.94
-298.80
-294.09
-287.61
-274.24
-251.82
-223.04
-194.57
-173.56
-163.64
-163.67
-167.89
-169.92
-165.14
-153.51
-139.26
-128.66
-126.84
-134.83
-148.84
-160.90
-161.96
-144.71
-106.42
-49.70
18.52
89.38
154.69
208.47
247.61
271.26
280.11
276.10
262.33
242.94
222.66
205.71
194.74
190.12
190.01
191.15
190.12
184.67
174.32
160.36
145.08
130.81
119.10
110.20
102.95
95.19
84.40
68.55
47.02
20.72
-8.17
-37.04
-63.77
-87.28
-107.41
-124.55
-139.19
-151.64
-162.20
-171.30
-179.52
-187.55
-195.92
-204.72
-213.68
-222.24
-229.84
-236.23
-241.56
-246.29
-251.00
-255.93
-260.92
-265.39
-268.82
-271.19
-273.02
-275.10
-277.65
-280.10
-281.06
-279.11
-273.46
-264.12
-251.70
-236.66
-218.98
-197.89
-172.34
-141.57
-105.72
-65.86
-23.64
19.21
61.04
100.06
134.24
161.51
180.30
190.07
191.84
187.91
181.12
173.83
166.78
159.78
152.90
147.19
144.58
146.94
155.11
168.20
183.93
198.41
208.25
211.94
210.13
204.76
197.87
190.85
183.95
176.63
166.73
152.85
135.92
118.94
105.06
95.79
90.18
84.76
75.05
54.96
20.79
-26.58
-81.45
-135.47
-180.38
-209.94
-221.62
-205.88
-162.18
-102.24
-44.98
-4.82
14.24
16.30
8.53
-4.48
-19.55
-36.63
-55.35
-73.28
-86.56
-92.49
-91.55
-84.29
-74.42
-65.24
-59.43
-56.76
-54.03
-46.79
-31.96
-9.20
19.67
51.16
81.94
108.28
127.35
138.12
141.41
139.09
133.00
124.20
112.46
97.14
77.33
52.94
25.28
-3.33
-30.49
-54.67
-75.49
-93.70
-110.20
-125.53
-139.43
-150.87
-158.55
-161.59
-160.01
-154.57
-146.59
-137.24
-127.29
-117.08
-106.60
-95.77
-84.66
-73.60
-63.08
-53.65
-45.61
-38.97
-33.39
-28.25
-22.89
-16.82
-9.87
-2.27
5.48
12.71
18.74
23.12
25.64
26.42
25.84
24.42
22.62
20.72
18.69
16.19
12.80
8.20
2.28
-4.59
-11.69
-17.93
-22.09
-23.14
-20.43
-13.96
-4.41
7.03
19.01
30.39
40.54
49.42
57.31
64.60
71.38
77.36
81.92
84.37
84.20
81.44
76.65
70.77
64.76
59.20
54.29
49.89
45.90
42.37
39.51
37.56
36.44
35.66
34.40
31.73
26.98
19.98
11.00
0.74
-9.98
-20.43
-29.97
-38.21
-44.70
-48.83
-49.83
-47.03
-40.17
-29.73
-17.07
-3.95
7.84
17.00
23.00
26.05
26.78
25.90
24.03
21.60
18.98
16.59
14.83
13.90
13.63
13.39
12.29
9.53
5.00
-0.64
-6.04
-9.82
-11.13
-10.04
-7.49
-4.75
-2.90
-2.50
-3.61
-6.12
-10.09
-15.66
-22.79
-30.86
-38.49
-43.79
-44.99
-41.09
-32.22
-19.52
-4.65
10.82
25.79
39.67
52.12
62.72
70.90
76.13
78.13
77.19
73.97
69.36
64.09
58.56
52.85
47.04
41.48
36.84
34.10
34.23
37.86
45.04
55.00
66.22
76.60
84.04
86.92
84.65
77.77
67.61
55.69
43.15
30.56
18.11
6.15
-4.48
-12.56
-16.92
-17.08
-13.57
-7.80
-1.40
4.30
8.74
11.98
14.37
16.11
17.08
16.88
15.16
11.87
7.29
2.04
-3.26
-8.13
-12.31
-15.75
-18.54
-20.83
-22.79
-24.55
-26.15
-27.68
-29.19
-30.83
-32.77
-35.25
-38.42
-42.37
-46.99
-51.91
-56.44
-59.65
-60.55
-58.33
-52.72
-44.00
-33.00
-20.79
-8.37
3.36
13.65
21.78
27.15
29.52
29.22
27.24
24.98
23.85
24.76
27.90
32.71
38.20
43.20
46.73
48.09
47.05
43.77
38.76
32.69
26.28
20.09
14.44
9.34
4.44
-0.74
-6.71
-13.71
-21.46
-29.17
-35.70
-39.84
-40.66
-37.79
-31.47
-22.46
-11.88
-1.02
8.92
17.07
23.09
27.19
29.89
31.80
33.22
34.15
34.37
33.65
31.99
29.58
26.76
23.91
21.33
19.34
18.19
18.03
18.78
20.00
20.90
20.52
18.01
12.84
5.03
-4.94
-16.12
-27.38
-37.48
-45.29
-49.93
-50.95
-48.42
-43.00
-35.79
-28.00
-20.65
-14.26
-8.63
-3.00
3.72
12.50
23.80
37.26
51.80
66.04
78.68
88.89
96.32
100.87
102.40
100.57
95.08
86.04
74.19
60.85
47.49
35.05
23.73
13.04
2.37
-8.46
-18.95
-28.14
-35.07
-39.18
-40.52
-39.47
-36.53
-32.05
-26.25
-19.25
-11.32
-2.84
5.92
14.90
24.38
34.65
45.62
56.54
66.01
72.45
74.67
72.42
66.36
57.85
48.27
38.56
28.98
19.42
9.79
0.38
-8.16
-15.24
-20.80
-25.52
-30.57
-37.10
-45.51
-55.21
-64.89
-73.07
-78.82
-81.98
-82.97
-82.36
-80.46
-77.31
-72.80
-67.06
-60.47
-53.61
-47.01
-40.99
-35.62
-30.81
-26.33
-21.92
-17.28
-12.17
-6.42
0.00
7.09
14.85
23.32
32.54
42.40
52.60
62.59
71.77
79.70
86.26
91.62
95.96
99.31
101.36
101.57
99.46
94.95
88.49
80.99
73.58
67.12
62.03
58.26
55.36
52.71
49.74
46.06
41.38
35.64
28.84
21.11
12.62
3.56
-5.83
-15.26
-24.39
-32.87
-40.38
-46.79
-52.16
-56.68
-60.65
-64.28
-67.61
-70.48
-72.68
-74.00
-74.43
-74.23
-73.82
-73.65
-74.01
-74.82
-75.69
-76.00
-75.05
-72.34
-67.70
-61.28
-53.49
-44.88
-36.03
-27.56
-20.02
-13.87
-9.41
-6.71
-5.67
-6.04
-7.53
-9.77
-12.35
-14.79
-16.47
-16.84
-15.57
-12.69
-8.54
-3.71
1.29
6.14
10.74
15.18
19.44
23.34
26.46
28.29
28.37
26.45
22.58
17.12
10.70
4.06
-2.02
-6.83
-9.87
-10.89
-9.97
-7.48
-4.05
-0.33
3.09
5.94
8.22
10.10
11.67
12.92
13.66
13.69
12.94
11.47
9.52
7.34
5.12
2.93
0.87
-0.97
-2.51
-3.72
-4.74
-5.81
-7.23
-9.22
-11.83
-14.95
-18.33
-21.66
-24.69
-27.30
-29.59
-31.76
-33.97
-36.19
-38.03
-38.86
-37.92
-34.67
-29.01
-21.49
-13.09
-5.01
1.77
6.75
9.91
11.60
12.31
12.43
12.13
11.49
10.57
9.48
8.41
7.53
6.93
6.62
6.56
6.73
7.09
7.58
8.05
8.26
8.02
7.20
5.82
4.02
2.02
-0.01
-1.89
-3.59
-5.05
-6.40
-7.83
-9.57
-11.80
-14.40
-16.94
-18.72
-19.02
-17.25
-13.31
-7.60
-0.87
5.95
12.06
16.99
20.53
22.75
23.76
23.73
22.76
21.00
18.67
16.09
13.53
11.17
9.08
7.20
5.50
3.99
2.80
2.04
1.77
1.85
2.06
2.13
1.88
1.29
0.52
-0.21
-0.78
-1.24
-1.87
-3.04
-5.13
-8.28
-12.36
-16.96
-21.42
-25.06
-27.22
-27.38
-25.26
-20.92
-14.75
-7.50
-0.09
6.67
12.25
16.58
19.93
22.73
25.26
27.53
29.35
30.45
30.74
30.38
29.74
29.22
29.14
29.59
30.51
31.72
33.04
34.34
35.57
36.75
37.95
39.27
40.79
42.55
44.44
46.26
47.70
48.42
48.21
46.98
44.80
41.77
38.03
33.75
29.09
24.32
19.64
15.26
11.27
7.78
4.90
2.77
1.53
1.10
1.12
0.82
-0.79
-4.51
-10.65
-18.77
-27.70
-36.00
-42.42
-46.28
-47.66
-47.20
-45.70
-43.81
-41.80
-39.56
-36.88
-33.56
-29.50
-24.72
-19.41
-13.99
-9.22
-6.14
-5.80
-8.93
-15.61
-25.14
-36.27
-47.63
-57.97
-66.54
-72.96
-77.04
-78.68
-77.71
-73.99
-67.53
-58.64
-47.88
-36.19
-24.73
-14.68
-7.13
-2.78
-1.77
-3.64
-7.46
-12.03
-16.30
-19.54
-21.49
-22.27
-22.08
-21.11
-19.48
-17.27
-14.69
-12.05
-9.71
-7.90
-6.66
-5.79
-5.01
-4.12
-3.11
-2.18
-1.57
-1.47
-1.90
-2.72
-3.69
-4.67
-5.65
-6.62
-7.49
-7.99
-7.61
-5.76
-2.04
3.52
10.32
17.32
23.34
27.44
29.21
28.81
26.81
23.95
20.81
17.75
14.91
12.25
9.76
7.41
5.23
3.25
1.57
0.32
-0.38
-0.42
0.09
0.96
1.82
2.34
2.24
1.41
-0.10
-2.10
-4.24
-6.03
-6.91
-6.47
-4.62
-1.70
1.54
4.31
6.06
6.81
7.10
7.76
9.42
12.28
15.96
19.64
22.46
23.79
23.50
21.93
19.76
17.70
16.21
15.41
15.02
14.61
13.74
12.20
9.97
7.19
4.07
0.92
-1.81
-3.59
-3.89
-2.41
0.78
5.28
10.53
16.14
21.92
27.87
33.82
39.24
43.14
44.27
41.49
34.15
22.37
7.00
-10.44
-28.22
-44.60
-58.34
-68.78
-75.89
-80.15
-82.26
-82.94
-82.74
-81.88
-80.28
-77.66
-73.74
-68.37
-61.77
-54.46
-47.22
-40.91
-36.25
-33.84
-33.98
-36.68
-41.53
-47.60
-53.44
-57.28
-57.46
-52.90
-43.43
-29.86
-13.67
3.38
19.69
34.14
46.15
55.54
62.42
67.09
70.05
71.98
73.74
76.22
80.14
85.78
92.86
100.58
107.86
113.65
117.15
117.96
116.03
111.46
104.36
94.65
82.14
66.59
48.08
27.22
5.37
-15.39
-32.66
-44.17
-48.42
-45.05
-34.94
-19.96
-2.51
15.08
30.96
44.00
53.81
60.56
64.66
66.50
66.39
64.46
60.80
55.46
48.39
39.46
28.40
15.06
-0.36
-17.11
-33.90
-49.20
-61.66
-70.52
-75.86
-78.36
-79.07
-78.90
-78.42
-77.75
-76.72
-75.01
-72.37
-68.77
-64.41
-59.66
-54.90
-50.46
-46.44
-42.76
-39.12
-35.22
-30.84
-25.92
-20.66
-15.28
-10.05
-5.08
-0.39
4.09
8.45
12.70
16.93
21.16
25.43
29.76
34.06
38.10
41.54
44.09
45.60
46.42
47.00
47.67
48.04
46.71
41.57
30.57
12.93
-10.17
-35.23
-57.65
-73.07
-78.72
-74.25
-61.62
-44.41
-26.62
-11.92
-1.64
4.73
9.98
18.38
34.32
60.49
96.41
138.07
178.23
210.25
228.18
228.95
212.68
181.93
140.22
90.69
35.49
-25.35
-90.41
-159.50
-231.55
-303.66
-370.70
-425.76
-461.94
-474.53
-464.15
-432.98
-387.56
-334.60
-278.52
-220.59
-159.83
-95.58
-21.97
44.58
98.61
133.80
147.54
142.40
125.27
104.96
88.60
78.95
72.55
65.32
51.49
27.71
-5.22
-42.61
-76.66
-99.01
-103.42
-89.09
-58.69
-20.65
14.15
36.20
40.78
31.06
16.37
8.09
13.98
37.23
75.07
120.76
166.73
206.06
235.36
253.72
261.38
258.58
246.72
228.97
209.43
192.11
179.10
171.90
170.32
172.13
173.10
162.84
136.30
95.94
55.46
20.72
-5.82
-24.37
-34.88
-38.34
-36.81
-32.19
-27.47
-26.53
-33.96
-51.27
-75.87
-102.16
-124.30
-138.71
-144.37
-143.46
-139.96
-138.20
-139.66
-142.05
-140.72
-130.82
-108.87
-73.01
-24.09
33.91
94.87
146.67
177.06
181.55
166.82
145.72
129.70
123.76
126.17
131.27
133.90
133.03
130.44
128.14
126.26
122.96
115.68
102.46
82.52
56.06
26.92
-1.35
-26.57
-48.60
-68.75
-88.69
-109.51
-131.41
-154.05
-176.76
-199.81
-224.45
-252.23
-283.24
-314.72
-340.79
-354.05
-348.21
-320.28
-271.97
-208.70
-137.50
-64.61
6.09
73.33
137.56
199.75
260.48
319.36
375.08
425.35
467.18
497.21
512.59
511.84
495.55
466.69
430.04
391.23
355.32
325.78
303.90
289.03
279.19
271.96
265.17
257.15
246.90
233.93
218.22
200.06
179.90
158.21
135.37
111.68
87.41
62.83
38.23
13.89
-10.02
-33.48
-56.55
-79.30
-101.59
-123.15
-143.55
-162.39
-179.43
-194.73
-208.56
-221.18
-232.64
-242.53
-250.24
-255.15
-257.04
-256.35
-254.25
-252.35
-252.33
-255.70
-263.52
-276.09
-292.46
-310.12
-325.03
-332.70
-329.71
-315.38
-292.26
-265.21
-239.15
-216.95
-198.41
-181.00
-161.85
-139.58
-115.12
-91.03
-69.97
-53.53
-41.88
-34.33
-30.12
-29.01
-31.14
-36.81
-46.03
-58.28
-72.41
-86.33
-96.94
-100.36
-92.83
-72.12
-38.94
2.45
44.75
79.28
98.28
96.96
74.97
36.42
-11.02
-58.05
-95.91
-118.47
-123.46
-112.63
-90.72
-63.74
-37.23
-15.03
1.05
10.80
15.08
15.14
12.32
7.90
3.39
0.72
2.18
10.10
25.82
48.69
75.70
101.95
121.90
131.02
126.81
108.90
78.36
37.00
-12.70
-67.05
-120.69
-167.13
-200.47
-217.48
-218.78
-208.23
-191.03
-171.25
-150.59
-128.76
-105.20
-80.84
-58.68
-42.80
-36.82
-42.80
-60.89
-89.96
-128.05
-172.19
-218.24
-260.68
-293.46
-311.89
-314.55
-303.80
-284.53
-261.81
-238.77
-216.51
-194.29
-170.80
-145.16
-117.57
-88.93
-59.99
-31.21
-2.57
24.64
48.87
69.33
86.65
102.36
117.81
134.03
150.56
166.56
178.94
184.99
184.29
179.41
174.68
174.09
180.75
194.44
212.68
227.99
231.57
216.88
182.24
130.74
68.27
2.89
-59.08
-94.12
-85.41
-32.19
47.93
131.69
203.34
251.26
281.52
299.13
307.18
304.73
290.59
266.37
235.97
204.04
172.86
143.41
113.88
82.77
47.95
9.43
-29.33
-62.05
-82.37
-87.89
-79.24
-61.34
-40.76
-25.39
-21.40
-31.01
-52.00
-79.09
-107.51
-132.30
-149.87
-157.97
-156.24
-145.72
-128.04
-105.24
-73.60
-37.02
-4.08
17.06
23.51
17.76
4.48
-11.98
-28.53
-43.44
-56.82
-69.17
-78.87
-84.17
-83.89
-78.23
-68.40
-56.12
-42.90
-30.44
-18.91
-6.54
6.65
20.85
35.74
50.50
63.78
73.74
77.69
73.64
61.07
40.88
15.47
-12.17
-39.36
-64.41
-86.83
-107.14
-125.60
-141.32
-152.58
-157.20
-153.74
-142.33
-124.66
-103.31
-80.83
-58.64
-36.68
-14.15
9.91
35.75
62.92
90.79
119.11
148.03
177.40
205.93
230.73
248.02
254.50
248.74
231.94
207.46
179.57
152.22
128.35
109.86
97.81
92.47
92.90
96.67
99.99
98.53
88.96
70.45
45.29
18.50
-3.73
-16.16
-16.18
-4.65
14.53
35.81
53.78
64.64
66.86
60.86
48.29
31.18
11.72
-7.89
-25.30
-38.12
-44.51
-43.67
-36.44
-25.29
-13.77
-5.41
-2.66
-6.04
-14.17
-24.38
-33.75
-40.24
-43.25
-43.63
-43.04
-43.18
-45.00
-48.55
-53.20
-57.99
-61.99
-64.30
-63.87
-59.46
-49.76
-33.88
-11.89
14.88
44.11
73.11
99.56
122.02
140.01
153.68
163.42
169.63
172.50
172.23
169.16
163.94
157.64
151.56
146.88
144.27
143.72
144.69
146.47
148.59
151.09
154.23
158.13
162.50
166.72
170.36
173.55
176.93
180.96
185.10
187.44
185.31
176.78
162.07
144.03
127.06
115.11
109.82
109.90
112.13
113.08
110.60
104.23
94.51
82.05
67.20
50.38
32.51
15.29
0.39
-11.50
-21.32
-31.04
-42.52
-56.07
-70.05
-81.62
-88.19
-88.78
-84.48
-78.10
-73.02
-72.20
-77.42
-89.08
-106.36
-127.56
-150.60
-173.25
-193.45
-209.30
-219.14
-221.66
-216.25
-203.39
-184.85
-163.57
-142.97
-125.94
-113.91
-106.30
-100.65
-93.54
-81.87
-64.00
-40.59
-14.42
10.61
30.67
43.27
47.66
44.53
35.24
21.07
3.04
-17.79
-39.73
-60.44
-77.31
-88.49
-93.80
-94.96
-95.05
-97.35
-104.17
-116.05
-131.68
-148.45
-163.31
-173.56
-177.41
-174.23
-164.59
-150.02
-132.67
-114.87
-98.61
-85.27
-75.45
-69.10
-65.85
-65.38
-67.64
-72.72
-80.60
-90.56
-101.04
-109.78
-114.54
-114.06
-108.67
-100.19
-90.87
-82.18
-73.75
-63.32
-47.79
-24.52
7.42
46.99
91.36
136.77
179.23
215.39
243.16
262.24
274.31
282.83
292.13
305.84
325.32
348.62
370.83
385.61
387.38
373.46
344.80
305.53
261.08
216.31
173.91
134.32
96.79
61.27
29.64
5.48
-7.42
-7.30
3.91
20.54
34.81
39.65
31.08
9.27
-22.40
-59.49
-98.49
-137.63
-176.11
-212.72
-244.87
-269.15
-282.87
-285.74
-280.37
-271.23
-262.55
-256.20
-251.02
-243.71
-230.93
-211.22
-185.84
-158.24
-132.61
-112.36
-99.11
-92.44
-90.24
-89.33
-86.45
-79.25
-67.16
-51.76
-36.48
-25.52
-22.35
-28.50
-43.17
-64.14
-89.00
-116.04
-144.04
-171.00
-192.88
-203.62
-197.12
-170.45
-126.48
-73.73
-23.25
16.12
41.29
55.22
64.00
72.81
83.60
95.46
106.91
117.91
129.94
144.69
162.14
179.77
193.50
199.79
197.41
187.94
174.62
160.55
147.63
135.97
124.27
110.70
94.13
75.13
56.06
40.24
30.04
26.23
27.39
30.52
32.08
29.50
22.57
14.18
9.98
15.80
36.31
72.19
118.53
165.26
200.50
215.20
206.39
177.16
132.08
76.19
13.22
-54.66
-125.45
-195.26
-257.33
-303.58
-327.80
-331.28
-318.92
-296.90
-271.02
-246.17
-226.41
-215.02
-214.96
-228.73
-260.68
-309.52
-366.12
-415.96
-444.88
-444.42
-414.31
-362.29
-276.86
-165.38
-49.23
48.47
116.29
155.82
174.71
180.85
180.58
177.35
172.34
166.98
163.20
161.89
161.46
158.54
150.60
137.70
122.28
105.77
90.59
79.52
74.05
73.29
74.62
75.45
74.40
71.48
65.98
58.20
49.87
43.20
39.69
39.65
42.57
47.42
52.87
56.66
56.69
51.76
41.52
26.29
7.06
-14.35
-35.62
-54.42
-69.12
-78.68
-82.67
-81.13
-74.78
-64.91
-53.02
-40.66
-29.23
-19.67
-12.41
-7.15
-2.87
1.75
7.93
16.54
27.54
39.95
52.18
62.72
70.63
75.95
79.19
80.96
82.37
83.90
85.23
85.63
84.77
82.89
81.40
81.65
84.20
90.20
99.39
109.94
119.27
125.74
128.93
131.00
134.37
140.44
151.66
168.29
187.62
204.91
215.95
218.03
212.98
204.90
198.98
203.81
225.72
265.22
316.25
368.57
410.38
434.91
440.22
408.30
335.58
235.06
130.46
41.89
-15.18
-49.70
-70.71
-83.82
-92.36
-97.38
-99.84
-103.06
-111.94
-129.86
-157.83
-191.35
-224.42
-252.23
-269.56
-274.48
-269.36
-259.51
-250.01
-244.44
-242.11
-240.92
-239.08
-233.83
-223.66
-208.87
-191.00
-171.34
-150.84
-128.83
-105.14
-81.11
-58.75
-40.87
-30.24
-28.25
-33.80
-43.65
-53.03
-57.84
-55.98
-47.01
-31.90
-12.31
9.73
31.91
51.36
65.26
71.22
68.05
56.33
38.28
17.21
-3.39
-20.80
-33.58
-41.79
-46.64
-50.02
-53.76
-59.15
-66.65
-76.01
-86.64
-97.94
-109.60
-121.51
-133.75
-146.50
-159.97
-174.32
-189.47
-204.75
-218.75
-229.38
-234.26
-231.64
-221.32
-205.17
-186.80
-170.23
-158.27
-151.15
-146.41
-139.87
-127.34
-106.21
-76.19
-38.97
2.75
46.13
88.74
128.52
163.59
192.50
214.71
231.16
244.12
256.16
268.70
280.97
290.11
292.36
284.82
266.75
239.97
208.23
175.88
146.65
122.82
105.02
92.42
83.29
75.49
67.03
56.58
43.77
29.17
13.99
-0.42
-12.92
-22.58
-28.83
-31.44
-30.67
-27.39
-22.84
-18.34
-14.98
-13.24
-12.98
-13.63
-14.40
-14.63
-14.10
-12.97
-11.72
-10.89
-10.93
-11.92
-13.70
-15.87
-17.98
-19.71
-20.89
-21.52
-21.64
-21.17
-19.85
-17.26
-12.98
-6.80
1.11
10.21
19.61
28.42
35.89
41.61
45.58
48.10
49.62
50.64
51.53
52.46
53.39
54.14
54.49
54.28
53.48
52.23
50.75
49.27
47.92
46.73
45.57
44.18
42.29
39.73
36.51
32.86
29.19
25.97
23.55
22.14
21.66
21.84
22.35
22.90
23.44
24.16
25.47
27.79
31.38
36.14
41.63
47.15
51.95
55.43
57.30
57.51
56.25
53.70
50.02
45.28
39.55
32.93
25.68
18.20
10.94
4.35
-1.27
-5.83
-9.32
-11.84
-13.52
-14.50
-15.01
-15.37
-15.95
-17.04
-18.86
-21.32
-24.19
-27.22
-30.23
-33.18
-36.16
-39.29
-42.61
-45.96
-48.92
-50.93
-51.37
-49.78
-45.92
-40.03
-32.66
-24.68
-17.05
-10.66
-6.12
-3.65
-3.14
-4.19
-6.38
-9.41
-13.11
-17.48
-22.56
-28.27
-34.42
-40.58
-46.29
-51.07
-54.61
-56.74
-57.52
-57.11
-55.71
-53.47
-50.48
-46.93
-43.09
-39.25
-35.66
-32.43
-29.52
-26.89
-24.66
-23.17
-22.87
-24.00
-26.41
-29.43
-32.04
-33.15
-31.93
-28.06
-21.74
-13.67
-4.76
4.10
12.30
19.70
26.54
33.28
40.18
47.16
53.75
59.33
63.43
65.92
67.02
67.08
66.36
64.90
62.56
59.19
54.78
49.46
43.39
36.58
28.75
19.47
8.39
-4.50
-18.68
-33.36
-47.58
-60.64
-72.16
-82.09
-90.62
-98.13
-105.17
-112.34
-120.10
-128.34
-136.08
-141.49
-142.29
-136.62
-123.77
-104.54
-81.02
-55.91
-31.75
-10.31
7.49
21.54
32.10
39.52
44.14
46.20
45.94
43.69
40.10
35.98
32.28
29.78
28.87
29.50
31.20
33.18
34.55
34.45
32.14
27.18
19.55
9.74
-1.40
-12.86
-23.81
-33.82
-42.80
-51.00
-58.79
-66.63
-75.03
-84.34
-94.39
-104.03
-111.02
-112.58
-106.43
-91.91
-70.58
-45.86
-21.79
-1.55
13.49
24.03
31.99
39.37
47.32
55.79
63.82
70.24
74.21
75.49
74.46
71.81
68.39
65.02
62.38
60.86
60.59
61.41
62.85
64.26
65.00
64.78
63.98
63.65
65.20
69.83
77.85
88.22
98.85
107.20
111.33
110.40
104.65
94.87
81.88
66.30
48.97
31.39
15.76
4.48
-0.96
-0.69
3.52
9.11
13.83
16.74
18.36
19.94
22.56
26.26
30.05
32.38
31.96
28.28
21.76
13.35
4.03
-5.53
-14.98
-24.20
-32.81
-40.05
-44.92
-46.50
-44.59
-40.02
-34.56
-30.41
-29.44
-32.46
-38.99
-47.42
-55.74
-62.39
-66.92
-69.99
-72.92
-76.97
-82.61
-89.36
-96.06
-101.52
-104.99
-106.38
-106.16
-104.92
-103.14
-101.08
-98.87
-96.64
-94.54
-92.77
-91.40
-90.46
-89.96
-89.99
-90.49
-91.09
-90.80
-88.09
-81.38
-69.69
-53.29
-33.75
-13.53
4.76
19.02
28.19
32.20
31.72
27.92
22.18
16.14
11.47
9.58
11.22
16.04
22.61
28.93
33.10
33.90
31.17
25.61
18.53
11.50
5.97
3.06
3.42
7.09
13.53
21.68
30.25
38.05
44.34
48.90
52.06
54.34
56.33
58.28
60.18
61.68
62.31
61.61
59.29
55.32
49.93
43.59
36.85
30.31
24.51
19.80
16.24
13.49
10.96
7.91
3.79
-1.42
-7.06
-11.97
-14.86
-15.06
-13.07
-10.58
-10.04
-13.67
-22.42
-35.39
-50.01
-62.82
-70.80
-72.33
-67.67
-58.51
-47.31
-36.42
-27.70
-22.51
-21.67
-25.32
-32.54
-41.30
-49.07
-53.89
-55.43
-55.16
-55.45
-57.88
-61.96
-64.88
-62.95
-53.71
-37.56
-17.90
0.48
13.50
19.70
20.43
18.85
18.19
20.41
25.83
33.63
42.78
52.76
64.12
77.84
94.72
114.54
135.85
156.39
173.97
187.18
195.58
199.24
197.97
190.99
177.26
156.24
128.71
96.72
63.06
30.05
-0.94
-29.35
-54.55
-75.19
-89.45
-96.08
-95.49
-90.01
-83.20
-78.31
-77.13
-79.51
-83.96
-88.67
-92.39
-94.67
-95.34
-93.65
-87.94
-76.06
-56.58
-29.77
2.23
36.32
69.54
99.90
126.20
147.14
160.54
163.43
153.22
129.31
93.96
51.82
8.45
-31.25
-63.83
-86.99
-99.27
-100.04
-90.17
-72.67
-52.38
-34.51
-22.65
-17.21
-15.46
-13.29
-7.74
1.28
11.15
18.27
20.37
17.58
11.84
5.29
-1.14
-8.18
-17.28
-29.27
-43.26
-56.58
-65.56
-66.95
-59.24
-43.49
-23.39
-4.36
8.51
12.65
9.29
3.18
0.33
5.22
18.85
38.47
59.25
76.68
88.21
93.44
93.13
87.94
78.00
63.28
44.29
22.54
0.19
-20.82
-39.50
-55.92
-70.68
-83.97
-94.68
-100.52
-98.85
-88.02
-68.50
-42.92
-15.48
9.16
26.75
34.05
29.13
11.87
-15.63
-48.77
-80.71
-103.70
-111.02
-99.02
-68.54
-24.88
23.54
67.52
99.44
114.99
113.66
98.12
72.96
43.20
13.36
-13.00
-33.32
-46.03
-50.36
-46.64
-36.65
-23.80
-12.66
-7.51
-10.68
-21.30
-35.37
-47.17
-51.69
-46.35
-31.80
-11.17
11.58
32.87
50.05
61.25
65.06
60.54
47.72
27.82
3.24
-23.06
-48.35
-70.45
-87.68
-98.93
-103.57
-101.49
-93.04
-79.13
-61.15
-41.01
-21.08
-3.68
9.25
16.72
18.70
15.84
9.10
-0.28
-10.71
-19.99
-25.56
-25.27
-18.51
-6.92
5.81
15.17
17.65
12.06
-0.18
-15.86
-31.46
-44.18
-52.51
-56.17
-55.86
-52.95
-49.33
-46.89
-46.83
-48.86
-50.91
-49.56
-41.28
-23.99
1.90
33.37
65.87
94.78
116.78
130.24
135.01
131.85
122.13
107.71
90.97
74.28
59.44
47.16
37.03
28.16
19.96
12.70
7.37
4.90
5.27
7.22
8.71
7.93
4.26
-1.34
-6.87
-10.39
-10.92
-9.00
-6.28
-4.70
-5.68
-9.70
-16.18
-23.95
-31.68
-37.95
-41.57
-41.39
-36.59
-27.05
-13.82
0.78
13.75
22.46
25.80
24.72
21.87
20.62
23.64
31.88
44.22
57.94
69.84
77.50
79.89
77.37
70.95
61.35
48.66
32.41
12.40
-10.43
-33.61
-53.65
-67.18
-72.34
-69.56
-61.23
-50.62
-40.31
-31.05
-21.62
-9.76
6.26
26.31
47.94
67.29
80.73
86.49
85.46
80.70
76.05
74.52
77.38
84.05
92.60
100.51
105.16
104.27
96.42
81.63
61.89
41.08
24.19
15.82
18.64
32.32
53.57
77.23
97.90
111.49
115.93
111.06
97.93
78.20
53.81
27.04
0.48
-23.42
-42.80
-57.05
-66.89
-73.96
-79.97
-86.22
-93.22
-100.95
-109.13
-117.17
-124.12
-128.57
-128.95
-124.25
-114.69
-101.88
-88.37
-76.59
-67.86
-61.90
-57.23
-52.03
-45.15
-36.65
-27.70
-20.01
-15.01
-13.33
-14.61
-17.71
-21.17
-23.74
-24.64
-23.78
-21.70
-19.26
-17.32
-16.44
-16.89
-18.62
-21.55
-25.70
-30.98
-37.12
-43.46
-48.97
-52.76
-54.32
-53.66
-51.03
-46.48
-39.66
-30.13
-17.98
-4.38
8.47
18.12
22.97
23.09
20.23
16.87
15.07
15.52
17.57
19.72
20.66
19.82
17.54
14.78
12.68
12.19
13.81
17.54
22.78
28.52
33.71
37.50
39.56
40.07
39.44
38.04
36.03
33.50
30.74
28.37
27.22
28.04
31.05
35.92
41.85
48.05
53.93
59.31
64.32
69.25
74.33
79.60
84.81
89.43
92.82
94.50
94.61
94.08
94.24
96.22
100.18
105.08
109.17
110.91
109.65
105.68
99.58
91.37
80.10
64.26
42.89
16.46
-12.89
-42.00
-67.88
-88.63
-103.59
-112.65
-115.70
-112.42
-102.80
-87.90
-70.18
-52.90
-38.93
-29.61
-24.42
-21.83
-20.37
-19.52
-19.79
-21.86
-25.75
-30.44
-34.37
-36.30
-36.02
-34.30
-32.40
-31.41
-31.88
-33.79
-36.82
-40.21
-42.86
-43.21
-39.68
-31.18
-17.78
-0.86
16.80
31.56
39.93
39.63
30.57
15.13
-2.57
-18.01
-27.84
-30.96
-28.55
-23.30
-18.21
-15.57
-16.44
-20.72
-27.22
-34.01
-38.87
-39.75
-35.58
-26.83
-15.62
-4.92
2.58
5.64
4.89
2.26
0.03
-0.43
0.90
2.76
3.47
1.71
-2.74
-8.84
-14.47
-16.84
-13.41
-2.83
14.20
34.66
53.72
66.24
68.62
60.19
43.77
24.48
7.73
-2.90
-6.91
-6.68
-6.04
-8.36
-15.28
-26.40
-39.95
-53.70
-65.64
-74.16
-78.18
-77.22
-71.72
-63.39
-54.71
-48.12
-44.69
-43.68
-42.84
-39.66
-32.69
-22.12
-9.63
2.49
12.21
18.17
19.96
18.27
14.87
12.25
12.83
17.70
25.73
33.77
37.78
34.85
24.77
10.13
-4.93
-16.79
-23.90
-27.01
-28.09
-28.91
-30.20
-31.73
-33.11
-34.19
-34.92
-34.68
-32.30
-26.81
-18.52
-9.70
-3.80
-3.80
-10.12
-20.16
-29.23
-32.81
-28.68
-17.52
-1.74
16.55
36.52
58.34
81.22
101.97
115.31
115.95
101.64
74.91
42.59
12.80
-8.38
-19.12
-21.72
-20.09
-16.93
-12.07
-3.21
11.79
32.16
53.33
68.21
70.24
56.67
30.00
-2.76
-33.22
-55.02
-65.96
-67.84
-64.19
-57.58
-47.87
-32.93
-10.96
16.81
44.91
64.99
69.22
54.14
22.67
-16.52
-52.62
-77.00
-86.30
-82.65
-71.08
-55.87
-38.33
-17.60
6.75
31.75
50.62
55.56
41.83
10.97
-29.25
-68.16
-96.80
-110.98
-111.43
-101.18
-82.70
-57.09
-25.50
8.42
37.66
53.86
51.35
30.44
-1.97
-35.30
-60.18
-72.14
-72.28
-64.89
-53.98
-41.11
-26.06
-8.99
7.85
20.36
24.68
19.73
8.10
-5.02
-14.40
-17.23
-13.98
-7.47
-1.17
2.57
3.02
0.96
-2.01
-4.34
-5.09
-4.58
-4.57
-7.83
-16.90
-32.85
-54.66
-79.54
-104.10
-125.53
-142.34
-153.95
-160.29
-161.60
-159.31
-156.74
-158.78
-170.15
-192.75
-224.09
-257.74
-286.22
-304.33
-311.51
-311.51
-309.77
-310.46
-314.47
-319.77
-323.22
-322.55
-317.30
-308.31
-296.67
-282.73
-266.15
-246.53
-223.98
-199.57
-175.14
-152.56
-133.04
-116.73
-102.73
-89.61
-76.14
-61.73
-46.66
-31.83
-18.20
-6.37
3.73
12.65
21.11
29.65
38.44
47.37
56.31
65.31
74.63
84.59
95.31
106.53
117.61
127.91
137.08
145.40
153.77
163.33
174.98
188.93
204.59
220.94
237.05
252.42
267.23
282.12
297.83
314.98
334.33
356.80
383.02
412.23
441.25
464.53
475.58
469.72
446.51
410.27
368.51
328.60
294.79
267.40
244.42
224.38
208.15
198.24
195.95
198.73
200.00
191.94
169.89
135.19
94.83
57.92
31.30
17.07
13.45
17.78
28.94
47.25
71.76
97.65
116.22
118.40
99.60
63.10
18.97
-20.60
-46.67
-56.68
-53.38
-41.24
-23.15
-0.03
26.98
53.81
73.03
76.65
60.37
26.68
-15.59
-54.97
-82.32
-93.97
-91.86
-80.70
-64.38
-44.21
-19.68
8.97
38.36
61.96
72.57
65.96
43.49
12.14
-18.44
-40.11
-49.36
-47.98
-40.91
-32.65
-24.71
-15.48
-2.40
14.77
32.51
44.45
44.71
31.22
7.29
-19.71
-41.84
-54.04
-56.04
-51.30
-44.02
-36.26
-27.25
-15.07
0.55
16.52
27.18
27.23
14.87
-6.80
-30.90
-49.98
-59.30
-58.41
-50.49
-39.79
-29.15
-19.00
-8.39
3.06
13.80
20.55
20.15
11.50
-3.38
-20.02
-33.55
-40.83
-41.68
-38.27
-33.55
-29.36
-25.61
-20.66
-12.91
-2.44
8.49
16.42
18.50
13.94
4.52
-6.36
-15.50
-21.41
-24.87
-27.91
-32.40
-38.70
-45.23
-49.06
-47.31
-38.71
-24.55
-8.59
4.04
8.94
4.25
-8.32
-24.27
-38.59
-48.11
-52.69
-54.62
-56.55
-59.51
-62.36
-62.80
-59.36
-52.80
-46.13
-43.08
-46.40
-56.69
-72.46
-91.09
-110.02
-127.71
-143.73
-158.52
-172.79
-187.14
-201.96
-217.39
-233.44
-249.83
-265.78
-279.85
-289.96
-293.80
-289.40
-275.70
-252.96
-222.52
-186.33
-146.27
-103.83
-60.23
-16.79
24.56
61.34
91.07
111.89
123.30
126.30
122.93
115.75
107.22
99.49
94.11
91.99
92.96
95.77
98.23
97.92
93.04
83.24
69.78
55.10
41.91
32.20
26.59
24.24
23.32
21.78
18.27
12.67
6.14
0.59
-2.06
-0.56
5.14
13.78
23.32
31.37
36.00
36.27
32.56
26.46
20.39
16.90
18.19
25.46
38.68
56.56
76.91
97.23
115.58
131.29
145.15
158.94
174.30
191.48
208.88
223.60
232.66
233.86
225.89
208.09
180.11
142.45
97.38
49.59
5.71
-27.58
-45.92
-48.95
-40.26
-25.84
-11.62
-1.66
2.50
1.16
-4.45
-12.94
-22.97
-33.06
-41.44
-46.39
-46.67
-42.10
-33.87
-24.28
-15.96
-10.97
-10.07
-12.51
-16.50
-19.90
-20.92
-18.59
-12.79
-4.08
6.64
18.39
30.43
42.30
53.80
64.82
75.03
83.82
90.49
94.62
96.26
95.91
94.15
91.51
88.55
85.98
84.73
85.52
88.24
91.71
94.13
93.94
90.90
86.22
81.87
79.35
78.66
78.06
74.92
66.97
53.15
33.97
10.97
-13.91
-38.78
-61.81
-81.21
-95.12
-101.65
-99.38
-87.81
-67.90
-42.05
-13.42
14.99
41.09
63.75
82.33
95.99
103.64
104.53
98.93
88.47
75.45
61.53
46.62
28.81
5.31
-25.76
-63.96
-106.13
-146.96
-180.44
-201.32
-206.29
-194.59
-168.23
-131.50
-89.99
-49.27
-13.59
14.81
35.94
51.31
62.97
72.45
80.20
85.57
87.56
85.52
79.42
69.55
55.79
37.15
12.19
-19.62
-56.30
-92.64
-121.01
-133.77
-126.27
-99.09
-58.38
-14.06
23.58
47.11
54.17
47.59
33.66
19.30
9.38
5.28
5.12
5.12
1.43
-8.50
-25.27
-47.61
-72.48
-95.17
-109.72
-110.44
-93.99
-61.58
-19.66
21.50
51.49
63.75
57.89
39.25
15.64
-6.40
-24.01
-37.56
-48.09
-54.70
-54.06
-42.59
-19.95
9.03
35.50
50.60
50.11
36.28
16.35
-1.53
-12.16
-14.63
-11.04
-3.88
5.49
16.76
29.04
39.75
45.09
42.08
30.49
13.11
-5.45
-20.43
-27.32
-22.76
-5.04
25.02
63.12
101.79
132.12
147.01
144.13
128.35
108.31
92.22
84.56
85.61
93.29
105.40
120.62
137.88
157.70
