1595941102.00
64.000000
-0.00
-0.00
-0.00
-0.00
-0.00
-0.00
-0.00
-0.00
-0.00
-0.00
0.00
0.01
0.01
-0.00
-0.03
-0.05
-0.05
0.00
0.13
0.36
0.66
1.01
1.37
1.72
2.06
2.40
2.79
3.24
3.80
4.42
5.06
5.66
6.20
6.68
7.15
7.68
8.31
9.14
10.09
11.04
11.88
12.56
13.14
13.76
14.65
15.96
17.91
20.32
22.90
25.38
27.58
29.57
31.68
34.32
37.81
42.54
48.15
54.10
59.83
64.97
69.58
74.14
79.34
85.71
93.76
103.00
112.62
121.73
129.77
136.75
143.30
150.75
157.77
166.64
177.95
191.79
206.97
220.57
228.25
225.36
208.53
176.87
132.76
80.05
23.06
-34.95
-92.44
-149.14
-205.19
-260.32
-313.71
-363.90
-409.95
-451.15
-486.87
-516.19
-537.72
-549.70
-550.41
-538.81
-514.68
-479.24
-434.57
-383.27
-327.91
-270.74
-213.47
-157.43
-103.73
-53.26
-7.04
34.13
69.68
99.43
123.59
142.62
157.08
167.50
174.37
178.07
179.02
177.69
174.63
170.29
165.01
158.87
151.84
143.86
135.02
125.66
116.33
107.56
99.69
92.61
85.88
78.85
71.04
62.37
53.33
44.71
37.27
31.37
26.81
22.94
18.95
14.21
8.40
1.48
-6.29
-14.18
-20.75
-24.03
-22.07
-13.81
0.06
17.01
33.42
45.95
52.81
54.22
51.91
48.01
44.06
40.49
37.00
33.27
29.37
25.84
23.41
22.34
22.33
22.51
21.82
19.52
15.54
10.66
6.35
4.18
5.13
8.89
13.89
17.85
18.88
16.40
11.36
5.81
1.71
-0.07
-0.06
0.36
-0.08
-1.75
-3.94
-5.49
-5.57
-4.21
-2.31
-1.02
-1.07
-2.52
-4.61
-6.30
-6.81
-6.01
-4.47
-3.07
-2.55
-3.07
-4.17
-5.05
-5.07
-4.17
-2.83
-1.75
-1.39
-1.63
-1.83
-1.22
0.63
3.44
6.33
8.38
9.11
8.74
8.07
7.98
8.96
10.79
12.78
14.16
14.57
14.19
13.55
13.14
13.01
12.75
11.71
9.58
6.31
2.44
-1.27
-4.19
-6.07
-7.19
-8.10
-9.29
-10.94
-12.82
-14.37
-15.04
-14.65
-13.44
-12.02
-11.01
-10.74
-11.03
-11.39
-11.23
-10.25
-8.70
-7.16
-6.24
-6.19
-6.78
-7.40
-7.41
-6.51
-5.00
-3.55
-2.80
-3.02
-3.92
-4.83
-5.08
-4.44
-3.24
-2.15
-1.80
-2.35
-3.47
-4.48
-4.76
-4.13
-2.96
-1.88
-1.44
-1.87
-2.93
-4.11
-4.89
-5.03
-4.68
-4.16
-3.75
-3.43
-2.94
-1.88
-0.01
2.53
5.25
7.52
8.74
8.67
7.56
6.12
5.11
5.02
5.84
7.13
8.27
8.75
8.44
7.61
6.77
6.32
6.36
6.64
6.74
6.34
5.43
4.37
3.66
3.61
4.08
4.58
4.54
3.64
2.07
0.44
-0.53
-0.47
0.44
1.61
2.31
2.13
1.15
-0.14
-1.11
-1.39
-1.08
-0.63
-0.57
-1.21
-2.38
-3.59
-4.25
-4.10
-3.40
-2.79
-2.96
-4.26
-6.42
-8.69
-10.22
-10.55
-9.89
-8.99
-8.75
-9.69
-11.73
-14.17
-16.13
-16.97
-16.61
-15.40
-13.92
-12.55
-11.35
-10.02
-8.16
-5.67
-2.81
-0.16
1.66
2.40
2.25
1.87
2.01
3.09
5.00
7.15
8.75
9.32
8.85
7.89
7.17
7.20
7.98
9.08
9.87
9.96
9.39
8.61
8.15
8.27
8.79
9.23
9.12
8.28
6.94
5.67
4.97
5.02
5.53
5.92
5.67
4.62
3.06
1.61
0.90
1.12
1.96
2.75
2.86
2.03
0.52
-0.98
-1.84
-1.82
-1.21
-0.64
-0.69
-1.58
-3.05
-4.51
-5.40
-5.59
-5.35
-5.24
-5.78
-7.09
-8.92
-10.72
-12.04
-12.83
-13.38
-14.14
-15.41
-17.00
-18.29
-18.48
-17.01
-13.97
-10.03
-6.17
-3.23
-1.48
-0.63
0.01
1.07
2.72
4.67
6.36
7.37
7.68
7.70
8.02
9.00
10.50
11.96
12.71
12.36
11.03
9.34
8.08
7.75
8.37
9.42
10.18
10.13
9.19
7.79
6.56
6.03
6.27
6.92
7.38
7.21
6.32
5.06
3.98
3.51
3.67
4.16
4.48
4.32
3.69
2.96
2.59
2.83
3.47
3.98
3.73
2.40
0.20
-2.19
-3.92
-4.54
-4.17
-3.54
-3.49
-4.55
-6.57
-8.87
-10.66
-11.48
-11.50
-11.32
-11.63
-12.76
-14.57
-16.56
-18.21
-19.32
-20.04
-20.66
-21.32
-21.85
-21.74
-20.50
-17.93
-14.43
-10.82
-8.04
-6.69
-6.72
-7.41
-7.73
-6.80
-4.29
-0.56
3.62
7.45
10.41
12.50
14.05
15.46
16.83
17.96
18.47
18.08
16.91
15.41
14.23
13.80
14.06
14.47
14.33
13.14
10.96
8.40
6.32
5.36
5.57
6.40
7.02
6.75
5.40
3.38
1.43
0.13
-0.37
-0.49
-0.88
-2.03
-3.98
-6.20
-7.94
-8.70
-8.53
-7.99
-7.83
-8.53
-10.02
-11.71
-12.83
-12.96
-12.24
-11.32
-10.96
-11.64
-13.25
-15.20
-16.71
-17.24
-16.78
-15.68
-14.48
-13.48
-12.59
-11.39
-9.37
-6.31
-2.48
1.44
4.62
6.49
6.98
6.55
6.00
6.00
6.77
8.01
9.04
9.23
8.34
6.74
5.10
4.07
3.88
4.20
4.37
3.83
2.44
0.63
-0.84
-1.33
-0.64
0.86
2.40
3.28
3.14
2.18
0.95
-0.00
-0.45
-0.53
-0.63
-1.02
-1.64
-2.06
-1.75
-0.37
1.93
4.66
7.23
9.27
10.81
12.17
13.71
15.50
17.23
18.37
18.44
17.24
14.99
12.24
9.59
7.42
5.82
4.62
3.65
2.94
2.70
3.20
4.48
6.06
7.05
6.50
3.79
-0.94
-6.80
-12.40
-16.49
-18.42
-18.34
-17.03
-15.37
-13.92
-12.71
-11.32
-9.33
-6.71
-3.95
-1.80
-0.89
-1.26
-2.30
-2.99
-2.45
-0.53
2.18
4.64
5.94
5.79
4.72
3.71
3.64
4.70
6.28
7.36
7.08
5.28
2.63
0.35
-0.53
0.33
2.45
4.83
6.55
7.28
7.32
7.42
8.16
9.61
11.27
12.42
12.51
11.60
10.26
9.33
9.36
10.25
11.36
11.75
10.76
8.35
5.15
2.23
0.51
0.36
1.45
2.98
4.17
4.58
4.36
4.03
4.07
4.62
5.34
5.67
5.18
3.80
1.95
0.16
-1.17
-2.14
-3.17
-4.70
-6.81
-9.09
-10.70
-10.89
-9.39
-6.64
-3.62
-1.38
-0.51
-0.95
-1.99
-2.76
-2.65
-1.71
-0.48
0.27
0.05
-1.08
-2.55
-3.56
-3.50
-2.32
-0.48
1.28
2.37
2.60
2.22
1.73
1.50
1.60
1.80
1.81
1.47
0.85
0.26
0.00
0.21
0.82
1.63
2.50
3.41
4.47
5.89
7.79
10.20
12.91
15.57
17.81
19.40
20.43
21.24
22.36
24.08
26.28
28.48
30.01
30.47
29.91
28.82
27.81
27.21
26.89
26.34
25.02
22.60
19.28
15.61
12.37
10.19
9.37
9.92
11.67
14.51
18.45
23.62
30.04
37.46
45.18
52.37
58.26
62.47
65.13
66.63
67.34
67.24
65.83
62.40
56.48
48.17
38.34
28.40
19.77
13.41
9.45
7.30
5.85
3.93
0.51
-5.16
-13.49
-24.45
-37.35
-50.82
-62.88
-71.49
-75.22
-73.80
-68.28
-60.65
-53.09
-47.19
-43.55
-41.79
-41.02
-40.31
-39.13
-37.52
-35.86
-34.58
-33.85
-33.41
-32.68
-31.06
-28.22
-24.29
-19.78
-15.32
-11.39
-8.16
-5.56
-3.43
-1.81
-0.96
-1.20
-2.71
-5.37
-8.70
-12.10
-15.07
-17.45
-19.48
-21.60
-24.18
-27.25
-30.36
-32.66
-33.24
-31.57
-27.79
-22.73
-17.55
-13.29
-10.33
-8.28
-6.26
-3.43
0.50
5.07
9.40
12.59
14.23
14.45
13.79
12.77
11.62
10.22
8.35
5.98
3.39
1.18
-0.08
-0.10
0.91
2.33
3.44
3.71
3.03
1.72
0.31
-0.76
-1.37
-1.71
-2.19
-3.17
-4.71
-6.59
-8.36
-9.60
-10.10
-9.95
-9.43
-8.83
-8.36
-8.03
-7.75
-7.48
-7.26
-7.25
-7.58
-8.23
-9.02
-9.65
-9.80
-9.30
-8.27
-7.03
-6.11
-5.98
-6.91
-8.81
-11.27
-13.83
-16.20
-18.47
-20.95
-23.81
-26.76
-28.93
-29.26
-27.04
-22.45
-16.64
-11.26
-7.62
-6.15
-6.15
-6.36
-5.69
-3.81
-1.25
1.06
2.41
2.70
2.44
2.27
2.48
2.81
2.72
1.72
-0.09
-2.11
-3.50
-3.68
-2.71
-1.20
0.04
0.44
-0.04
-0.98
-1.78
-2.08
-1.92
-1.67
-1.75
-2.37
-3.38
-4.43
-5.10
-5.14
-4.55
-3.57
-2.53
-1.79
-1.63
-2.14
-3.19
-4.45
-5.59
-6.37
-6.83
-7.28
-8.07
-9.37
-10.89
-12.14
-12.64
-12.34
-11.67
-11.36
-12.00
-13.68
-15.93
-18.04
-19.49
-20.23
-20.63
-21.11
-21.70
-21.95
-21.03
-18.35
-13.97
-8.73
-3.86
-0.38
1.43
2.14
2.77
4.21
6.62
9.51
12.03
13.61
14.25
14.49
14.96
15.92
17.05
17.75
17.52
16.37
14.78
13.46
12.92
13.19
13.86
14.34
14.16
13.17
11.54
9.68
8.04
6.97
6.52
6.54
6.66
6.48
5.73
4.42
2.76
1.07
-0.44
-1.71
-2.84
-4.04
-5.34
-6.63
-7.68
-8.33
-8.71
-9.07
-9.67
-10.66
-12.05
-13.68
-15.28
-16.60
-17.65
-18.65
-19.86
-21.36
-22.94
-24.34
-25.22
-25.43
-25.16
-24.90
-25.37
-26.93
-29.26
-31.44
-32.95
-33.45
-32.94
-31.77
-30.36
-29.54
-29.63
-30.25
-30.63
-31.32
-32.91
-35.70
-39.49
-43.33
-47.01
-50.13
-52.13
-52.79
-54.30
-58.56
-66.20
-76.35
-86.88
-97.50
-108.41
-119.71
-131.18
-144.25
-158.77
-172.62
-182.77
-186.02
-182.91
-175.25
-164.59
-137.16
-88.26
-24.02
41.82
90.81
124.37
146.86
162.16
173.32
181.30
184.06
180.46
171.41
159.69
149.22
140.97
134.70
129.83
125.73
120.28
112.48
102.87
93.01
85.04
78.67
73.07
67.75
62.69
57.17
50.97
44.35
37.88
32.47
27.76
23.44
19.65
16.79
14.70
13.08
11.64
10.23
9.03
7.89
6.85
6.17
6.05
6.24
6.30
5.78
4.50
2.71
0.76
-0.90
-1.95
-2.40
-2.61
-3.08
-4.19
-5.99
-8.17
-10.19
-11.64
-12.38
-12.63
-12.82
-13.31
-14.20
-15.10
-15.32
-14.05
-10.81
-5.62
0.87
7.72
13.99
19.19
23.34
26.80
29.89
32.62
34.72
35.81
35.75
34.77
33.41
32.12
31.02
29.84
28.10
25.48
22.08
18.42
15.20
12.96
11.78
11.30
10.87
9.92
8.13
5.54
2.46
-0.77
-3.92
-6.91
-9.69
-12.13
-13.92
-14.67
-14.09
-12.24
-9.60
-6.86
-4.72
-3.52
-3.17
-3.24
-3.12
-2.42
-1.03
0.82
2.68
4.10
4.85
4.90
4.52
4.01
3.61
3.35
3.09
2.63
1.85
0.90
0.05
-0.44
-0.53
-0.46
-0.63
-1.30
-2.45
-3.77
-4.76
-5.09
-4.77
-4.12
-3.59
-3.49
-3.82
-4.26
-4.32
-3.67
-2.30
-0.60
0.86
1.62
1.54
0.93
0.39
0.44
1.25
2.56
3.86
4.66
4.83
4.63
4.54
4.92
5.76
6.70
7.30
7.26
6.68
5.97
5.56
5.66
6.04
6.16
5.48
3.78
1.27
-1.37
-3.35
-4.14
-3.67
-2.31
-0.65
0.84
2.03
3.09
4.36
6.03
7.95
9.75
10.98
11.37
10.96
10.13
9.29
8.70
8.30
7.79
6.79
5.12
2.89
0.52
-1.50
-2.87
-3.56
-3.85
-4.11
-4.60
-5.30
-5.96
-6.22
-5.89
-5.05
-4.00
-3.12
-2.63
-2.42
-2.16
-1.48
-0.28
1.20
2.46
3.02
2.72
1.84
0.99
0.75
1.38
2.67
4.16
5.29
5.81
5.74
5.35
4.97
4.80
4.84
4.92
4.88
4.62
4.20
3.78
3.52
3.45
3.34
2.79
1.35
-1.19
-4.67
-8.50
-11.91
-14.30
-15.45
-15.59
-15.15
-14.52
-13.79
-12.76
-11.16
-8.95
-6.41
-4.06
-2.40
-1.63
-1.54
-1.64
-1.47
-0.84
0.05
0.83
1.16
1.02
0.71
0.69
1.29
2.49
3.96
5.22
5.90
5.99
5.74
5.59
5.82
6.42
7.11
7.48
7.30
6.65
5.84
5.31
5.29
5.69
6.10
6.05
5.28
3.89
2.35
1.22
0.84
1.14
1.63
1.70
0.93
-0.67
-2.67
-4.42
-5.44
-5.64
-5.34
-5.07
-5.28
-6.13
-7.46
-8.85
-10.01
-10.84
-11.53
-12.44
-13.83
-15.70
-17.76
-19.50
-20.40
-20.20
-18.93
-16.87
-14.35
-11.63
-8.80
-5.90
-2.99
-0.28
1.94
3.42
4.09
4.15
4.02
4.19
4.98
6.41
8.20
9.90
11.21
11.99
12.42
12.78
13.33
14.06
14.77
15.13
14.90
14.12
13.03
12.07
11.51
11.44
11.63
11.75
11.50
10.81
9.88
9.05
8.58
8.49
8.58
8.50
8.00
7.07
5.95
5.03
4.57
4.56
4.73
4.66
4.08
2.97
1.58
0.28
-0.68
-1.28
-1.66
-2.07
-2.64
-3.37
-4.10
-4.63
-4.95
-5.20
-5.65
-6.52
-7.87
-9.52
-11.16
-12.48
-13.38
-13.99
-14.55
-15.25
-15.99
-16.39
-15.96
-14.33
-11.59
-8.24
-5.07
-2.74
-1.55
-1.25
-1.25
-0.88
0.20
1.90
3.75
5.21
5.94
6.01
5.81
5.83
6.31
7.15
7.97
8.34
8.10
7.43
6.80
6.64
7.11
7.95
8.67
8.80
8.17
6.99
5.73
4.85
4.51
4.52
4.44
3.91
2.83
1.47
0.34
-0.11
0.22
1.00
1.67
1.70
0.92
-0.42
-1.73
-2.50
-2.56
-2.19
-1.94
-2.32
-3.48
-5.12
-6.65
-7.53
-7.60
-7.15
-6.78
-7.10
-8.35
-10.38
-12.61
-14.49
-15.65
-16.09
-16.05
-15.76
-15.30
-14.51
-13.18
-11.26
-8.99
-6.90
-5.51
-5.10
-5.53
-6.34
-6.93
-6.90
-6.26
-5.36
-4.68
-4.57
-4.99
-5.59
-5.87
-5.53
-4.69
-3.82
-3.39
-3.55
-3.92
-3.81
-2.53
0.17
4.01
8.44
13.14
18.34
24.78
33.26
44.12
56.89
70.35
82.93
93.12
99.70
101.94
99.54
92.69
82.05
68.70
54.19
40.01
27.28
16.56
7.98
1.42
-3.45
-7.14
-10.34
-13.49
-16.93
-20.83
-25.18
-29.64
-33.68
-36.96
-39.49
-41.63
-43.42
-44.89
-46.15
-47.45
-48.87
-50.13
-50.54
-49.04
-44.33
-34.53
-18.55
3.12
27.94
52.12
71.97
84.90
90.08
84.64
68.91
46.86
24.27
5.07
-9.76
-20.81
-28.70
-33.61
-35.45
-33.73
-29.53
-23.41
-16.40
-9.67
-3.95
0.19
2.07
0.88
-3.60
-11.17
-21.17
-31.33
-39.10
-41.88
-38.14
-28.16
-14.08
1.13
14.43
23.69
28.02
27.81
24.49
19.76
14.91
10.52
6.78
3.52
0.67
-1.74
-3.60
-4.69
-5.15
-5.53
-6.59
-8.90
-12.43
-16.51
-20.10
-22.40
-23.27
-23.34
-23.75
-25.58
-29.30
-34.53
-40.23
-45.35
-49.34
-52.40
-55.24
-58.57
-62.56
-66.65
-69.70
-70.57
-68.67
-64.29
-58.39
-52.17
-46.49
-41.57
-37.05
-32.32
-26.96
-20.94
-14.51
-7.97
-1.44
5.19
12.11
19.26
26.24
32.31
36.73
39.09
39.49
38.51
36.97
35.53
34.48
33.64
32.61
31.06
28.97
26.67
24.65
23.33
22.76
22.64
22.49
21.90
20.75
19.24
17.77
16.65
15.90
15.22
14.18
12.44
10.00
7.14
4.32
1.86
-0.20
-2.12
-4.29
-6.91
-9.84
-12.63
-14.69
-15.67
-15.60
-14.97
-14.51
-14.90
-16.44
-18.94
-21.80
-24.22
-25.62
-25.75
-24.79
-23.15
-21.26
-19.32
-17.38
-15.38
-13.41
-11.72
-10.61
-10.19
-10.22
-10.12
-9.19
-6.93
-3.36
0.99
5.31
8.87
11.29
12.67
13.43
14.07
14.87
15.80
16.63
17.06
17.01
16.63
16.27
16.23
16.55
16.94
16.98
16.32
14.96
13.23
11.68
10.74
10.47
10.58
10.54
9.90
8.55
6.70
4.85
3.48
2.80
2.72
2.87
2.88
2.55
1.99
1.51
1.40
1.66
2.03
2.11
1.63
0.71
-0.24
-0.69
-0.42
0.34
1.02
1.02
0.14
-1.31
-2.57
-2.87
-1.77
0.61
3.72
6.89
9.63
11.89
13.89
16.04
18.54
21.33
24.03
26.17
27.40
27.64
27.05
25.93
24.49
22.75
20.56
17.82
14.62
11.25
8.18
5.70
3.79
2.06
-0.02
-2.81
-6.25
-9.79
-12.63
-14.07
-13.86
-12.35
-10.32
-8.65
-7.88
-8.05
-8.67
-9.09
-8.82
-7.85
-6.55
-5.48
-5.01
-5.16
-5.60
-5.86
-5.67
-5.08
-4.42
-4.03
-4.05
-4.28
-4.28
-3.71
-2.56
-1.23
-0.29
-0.22
-1.10
-2.58
-4.01
-4.87
-5.04
-4.92
-5.13
-6.25
-8.43
-11.44
-14.69
-17.55
-19.59
-20.67
-21.00
-20.85
-20.34
-19.44
-17.95
-15.71
-12.79
-9.55
-6.60
-4.66
-4.01
-4.26
-4.51
-3.82
-1.74
1.46
5.00
7.75
8.71
7.71
5.59
3.75
3.35
4.78
7.62
11.07
14.05
15.47
15.05
13.48
12.02
11.93
14.23
19.63
28.66
40.75
53.64
63.99
68.36
63.94
49.35
25.17
-6.89
-40.56
-67.22
-81.39
-83.14
-76.56
-66.51
-56.61
-48.50
-41.96
-36.39
-29.92
-22.48
-15.57
-11.15
-10.44
-12.86
-15.81
-15.50
-8.60
6.86
29.40
56.11
84.86
115.29
147.86
181.97
214.69
241.48
258.47
264.57
262.57
257.66
253.90
251.46
246.40
233.36
209.03
174.19
132.79
89.33
47.12
7.27
-30.74
-67.74
-103.48
-136.24
-163.66
-184.32
-199.70
-212.58
-225.52
-239.70
-254.41
-267.32
-275.35
-276.03
-268.79
-257.10
-245.19
-235.81
-229.18
-223.66
-217.03
-207.57
-194.80
-179.63
-166.26
-157.89
-154.95
-155.28
-155.97
-155.07
-152.01
-147.17
-126.61
-85.13
-28.06
31.98
84.21
123.85
150.35
165.00
169.87
167.66
158.94
144.85
127.29
108.34
89.31
71.06
55.24
43.78
40.22
45.07
57.27
74.51
94.06
112.89
127.01
133.04
129.16
114.97
90.25
57.39
21.69
-9.54
-29.95
-36.66
-30.85
-16.86
0.02
14.51
24.50
29.50
30.21
27.56
22.31
15.42
8.17
2.05
-2.02
-3.52
-2.73
-0.49
2.00
3.60
3.69
2.34
0.15
-2.11
-3.75
-4.54
-4.64
-4.48
-4.89
-6.26
-8.54
-11.35
-14.23
-16.76
-18.78
-20.26
-21.37
-22.25
-22.91
-23.30
-23.52
-23.84
-24.63
-26.01
-27.83
-29.70
-30.99
-30.82
-28.51
-23.89
-17.50
-10.29
-2.86
4.34
11.08
17.41
23.87
31.31
40.45
51.50
64.14
78.12
92.48
105.53
115.24
120.27
120.27
115.86
108.29
99.29
91.52
87.10
86.76
89.76
94.54
99.10
101.19
98.47
84.40
57.74
24.16
-7.09
-29.28
-40.71
-43.15
-39.79
-34.00
-27.91
-21.72
-15.15
-8.41
-2.28
2.62
6.10
8.39
8.48
6.79
4.45
2.42
1.11
0.41
0.29
0.77
1.89
2.62
2.26
0.48
-3.04
-8.80
-17.30
-28.85
-44.05
-58.01
-68.51
-74.38
-75.77
-74.39
-73.04
-74.36
-79.65
-88.61
-99.57
-111.22
-122.14
-131.64
-139.61
-145.99
-150.05
-150.53
-147.00
-140.95
-136.32
-137.36
-146.76
-163.75
-183.53
-198.02
-198.75
-180.60
-143.85
-93.91
-38.76
12.93
53.67
78.88
88.76
88.20
84.56
84.76
93.26
111.31
136.47
164.12
185.32
191.01
180.10
160.43
140.56
123.71
108.80
93.50
76.82
60.07
46.36
38.80
38.43
43.91
53.16
64.73
77.52
88.96
95.47
93.47
80.87
57.85
27.40
-5.62
-32.37
-47.44
-50.75
-46.10
-38.32
-30.69
-24.70
-20.90
-19.88
-22.33
-28.74
-38.10
-46.17
-47.48
-37.97
-17.89
7.52
29.90
41.29
37.21
18.60
-8.65
-36.81
-59.27
-72.94
-77.77
-75.46
-67.95
-56.84
-43.30
-28.50
-14.05
0.36
13.78
26.14
38.64
53.32
71.93
94.83
120.55
145.89
166.91
179.78
182.37
174.38
157.05
132.43
102.73
70.05
36.29
3.47
-26.36
-50.63
-66.55
-71.94
-66.08
-50.47
-29.16
-8.14
6.32
9.54
0.61
-17.08
-36.75
-50.36
-51.20
-36.07
-6.22
33.04
73.84
107.97
128.89
132.85
119.19
89.78
48.35
-0.51
-52.37
-104.05
-154.27
-203.25
-251.47
-297.94
-339.18
-369.97
-384.87
-380.74
-358.40
-322.27
-278.26
-231.16
-183.08
-133.89
-83.11
-31.35
19.32
66.16
107.12
141.73
171.20
197.62
222.71
246.49
267.85
285.23
297.31
303.57
304.63
302.11
297.78
292.49
284.14
270.12
248.72
219.89
184.98
146.61
108.36
73.83
45.88
23.33
5.19
-8.31
-17.02
-23.00
-30.45
-44.05
-67.05
-99.86
-143.97
-195.87
-247.23
-289.13
-317.13
-332.28
-338.98
-342.26
-345.94
-357.39
-378.86
-405.88
-430.81
-447.83
-454.17
-448.98
-432.57
-371.66
-261.38
-128.64
-9.82
76.37
130.57
161.45
177.81
185.95
189.38
184.62
170.95
152.94
137.35
128.24
125.65
127.32
131.20
135.00
133.34
124.58
112.14
101.63
96.42
96.20
98.11
98.70
94.98
83.20
63.39
39.87
19.08
6.50
5.69
16.98
39.86
71.07
102.69
124.94
129.50
112.73
77.47
32.83
-8.75
-36.15
-44.15
-34.91
-15.24
7.24
26.97
41.06
48.36
48.30
40.89
27.13
10.12
-5.08
-13.05
-10.62
1.32
18.16
33.79
43.81
47.68
48.85
52.31
61.59
76.75
94.50
110.30
120.51
123.73
120.36
111.28
96.74
76.23
49.40
17.24
-17.33
-50.46
-79.20
-102.51
-121.38
-138.17
-154.96
-172.13
-187.97
-199.10
-202.63
-198.10
-187.01
-171.55
-153.66
-133.97
-111.57
-84.72
-51.40
-11.20
32.65
75.68
113.80
143.51
162.78
171.60
171.43
165.67
157.38
145.99
130.67
111.79
90.29
67.71
45.93
26.84
13.61
9.01
11.78
21.14
37.59
60.78
88.84
118.04
134.02
126.08
108.27
88.97
67.86
48.12
32.71
22.47
14.89
5.16
-9.95
-31.96
-63.52
-102.95
-143.87
-177.88
-197.02
-196.85
-177.60
-141.88
-94.85
-45.97
-2.88
26.91
40.12
40.91
36.98
34.66
37.82
48.82
62.02
71.50
73.06
64.87
48.00
24.45
-5.64
-39.85
-71.75
-97.64
-116.98
-131.48
-144.70
-153.39
-152.45
-138.87
-112.91
-75.27
-32.12
9.62
44.10
65.91
74.33
73.71
69.48
64.92
60.16
53.34
44.24
35.19
31.40
36.19
50.59
71.29
91.82
104.90
104.67
89.24
61.24
26.13
-11.71
-47.13
-74.65
-91.18
-97.45
-97.77
-97.70
-101.42
-110.84
-126.82
-144.30
-157.09
-159.95
-150.01
-127.60
-96.16
-60.27
-23.88
4.12
17.64
16.04
3.62
-14.04
-30.93
-46.74
-61.65
-75.34
-87.30
-95.60
-99.50
-99.06
-95.20
-88.97
-81.12
-71.14
-58.28
-42.17
-22.22
1.19
26.38
50.61
71.28
86.79
97.67
105.79
113.42
122.86
135.18
149.89
165.15
178.85
189.27
195.80
198.44
197.11
191.60
181.29
165.59
144.48
119.12
92.06
66.84
46.99
34.94
31.55
35.92
45.71
57.53
67.62
72.54
70.01
59.60
43.12
24.31
7.82
-2.38
-4.30
1.51
12.48
25.12
36.35
44.19
48.00
48.09
45.00
39.33
31.51
21.92
11.08
-0.03
-9.87
-16.42
-17.65
-12.61
-1.64
13.60
30.77
47.66
62.59
74.26
81.17
81.10
70.59
46.29
6.51
-47.30
-110.06
-174.08
-230.75
-272.40
-293.64
-292.94
-272.06
-235.92
-191.60
-147.23
-110.66
-87.82
-81.36
-85.53
-92.97
-96.28
-91.64
-79.09
-59.94
-35.22
-6.12
24.72
52.94
72.88
80.64
76.01
62.76
47.06
34.55
28.16
27.64
30.90
35.32
39.27
42.18
43.93
44.52
44.03
42.65
40.84
39.35
38.60
38.65
38.96
38.22
35.47
30.28
23.61
16.74
10.88
6.68
4.07
2.42
-0.22
-4.92
-11.19
-17.49
-22.34
-24.84
-24.45
-20.62
-12.56
-1.96
9.77
22.12
34.96
47.71
59.55
70.03
78.94
85.89
86.19
76.64
57.88
33.95
9.70
-11.55
-29.19
-46.01
-62.48
-85.42
-120.07
-166.78
-221.51
-278.25
-330.29
-370.37
-391.92
-368.19
-294.00
-190.50
-90.28
-14.92
31.53
55.96
68.18
75.39
80.54
79.32
69.00
51.88
34.14
21.31
15.71
16.54
21.15
26.35
26.60
19.71
7.81
-4.35
-12.34
-14.65
-11.91
-6.14
0.15
2.75
-0.16
-7.61
-16.66
-24.33
-28.88
-29.84
-27.85
-24.40
-22.28
-22.74
-25.60
-29.27
-31.67
-31.00
-25.92
-15.34
2.29
23.60
47.83
74.23
100.73
123.24
136.54
136.54
122.50
97.74
68.34
41.20
20.55
7.12
-0.75
-4.98
-6.20
-3.58
3.59
14.34
26.12
35.16
38.64
36.43
31.16
26.90
26.97
32.25
40.89
49.92
56.65
60.34
62.37
65.15
70.22
76.83
81.88
81.27
72.10
54.27
31.05
8.22
-7.77
-12.16
-3.43
16.09
41.09
65.18
82.82
91.00
89.77
81.69
70.41
59.30
50.51
44.80
41.63
39.08
33.70
20.98
-3.19
-40.30
-87.38
-137.06
-179.52
-205.76
-210.53
-193.51
-158.77
-113.35
-65.87
-25.55
-1.00
1.63
-19.10
-58.50
-106.54
-150.99
-181.71
-193.76
-187.92
-168.74
-141.58
-110.52
-78.12
-46.30
-17.29
6.54
23.93
36.02
46.49
60.10
80.31
107.10
136.60
162.46
178.49
181.12
170.47
149.68
123.29
95.51
69.41
47.17
30.69
21.99
22.70
33.15
51.29
72.65
91.10
100.65
97.49
81.19
54.84
23.75
-6.48
-31.74
-50.24
-62.15
-68.77
-71.64
-72.22
-71.97
-72.34
-74.48
-78.49
-83.12
-86.16
-85.55
-80.55
-71.97
-61.35
-49.55
-36.21
-20.46
-2.64
14.37
25.53
25.83
13.16
-10.02
-37.32
-61.15
-76.02
-80.45
-76.64
-68.41
-58.91
-49.33
-39.34
-28.32
-16.54
-5.17
4.50
12.15
18.93
26.96
38.02
52.31
67.94
81.48
89.52
90.18
83.88
73.16
61.49
51.99
46.39
44.82
46.22
49.13
52.50
56.08
60.27
65.55
71.73
77.56
80.88
79.51
72.17
59.25
42.81
25.86
11.20
0.54
-5.81
-8.65
-9.30
-9.08
-9.19
-10.70
-14.48
-20.89
-29.35
-38.27
-45.49
-49.20
-48.78
-45.10
-39.99
-35.34
-32.24
-30.80
-30.63
-31.53
-33.80
-37.93
-44.05
-51.45
-58.74
-64.54
-68.10
-69.54
-69.41
-68.08
-65.32
-60.48
-53.05
-43.21
-31.97
-20.81
-10.99
-3.02
3.40
9.16
15.23
22.22
30.26
39.00
47.91
56.57
64.81
72.72
80.30
87.22
92.72
95.87
96.19
94.06
90.80
88.05
86.89
87.05
86.85
84.03
76.94
65.59
51.91
38.93
29.43
24.67
23.86
24.78
24.94
22.72
17.79
10.65
1.82
-8.83
-21.87
-37.54
-54.77
-70.97
-82.78
-87.28
-82.95
-69.79
-48.90
-22.01
8.18
37.51
60.17
70.03
62.94
39.12
3.93
-33.82
-65.21
-84.67
-91.50
-89.00
-81.75
-73.21
-64.57
-55.54
-45.79
-35.92
-27.28
-20.93
-16.55
-12.27
-5.49
5.78
21.77
40.57
58.90
73.32
81.52
83.02
78.99
71.56
62.83
54.26
46.49
39.68
34.01
29.99
28.41
30.01
35.03
42.84
51.98
60.34
65.77
66.67
62.46
53.84
42.56
30.73
20.08
11.36
4.35
-1.73
-7.53
-13.21
-18.56
-23.42
-27.95
-32.57
-37.41
-41.94
-45.05
-45.68
-43.43
-38.70
-32.27
-24.66
-16.06
-6.93
1.21
5.55
2.83
-8.92
-28.86
-53.21
-76.49
-93.85
-102.86
-103.95
-99.40
-91.62
-81.97
-70.58
-57.18
-41.99
-26.20
-11.55
0.45
9.27
15.53
20.67
26.28
33.45
42.44
52.79
63.56
73.78
82.68
89.83
95.04
98.19
99.15
97.81
94.17
88.50
81.39
73.43
65.02
56.10
46.24
35.02
22.42
9.06
-3.82
-14.87
-23.02
-27.89
-29.79
-29.46
-27.72
-25.22
-22.49
-20.11
-18.85
-19.69
-23.42
-30.18
-39.14
-48.56
-56.41
-61.04
-61.65
-58.15
-50.71
-39.51
-25.03
-8.85
5.96
15.22
15.25
4.70
-14.34
-36.86
-56.87
-69.76
-73.86
-70.38
-62.08
-51.67
-40.84
-30.34
-20.66
-12.54
-6.90
-4.38
-4.69
-6.55
-7.99
-7.05
-2.37
6.41
18.68
33.11
48.03
61.85
73.47
82.39
88.71
92.79
94.89
94.89
92.40
87.10
79.19
69.58
59.61
50.44
42.49
35.27
27.78
19.25
9.69
0.08
-8.13
-13.68
-16.24
-16.52
-16.01
-16.27
-18.29
-22.10
-26.97
-31.81
-35.74
-38.42
-39.99
-40.84
-41.22
-41.16
-40.56
-39.32
-37.19
-33.51
-27.19
-17.23
-3.82
10.83
22.40
25.96
18.13
-0.95
-27.19
-54.07
-75.22
-86.87
-88.74
-83.14
-73.29
-61.67
-49.64
-37.77
-26.71
-17.50
-11.26
-8.55
-8.95
-11.10
-13.19
-13.60
-11.43
-6.51
0.73
9.60
19.38
29.44
39.29
48.57
57.05
64.62
71.17
76.49
80.20
81.83
81.04
77.80
72.62
66.28
59.54
52.76
45.86
38.49
30.46
22.10
14.17
7.43
2.16
-2.06
-6.14
-10.91
-16.55
-22.47
-27.53
-30.77
-31.90
-31.60
-31.18
-32.03
-35.00
-39.99
-45.98
-51.30
-54.13
-52.96
-46.95
-36.16
-21.76
-6.04
7.79
16.33
17.04
9.26
-5.37
-23.32
-40.48
-53.63
-61.42
-64.23
-63.33
-59.76
-53.75
-45.00
-33.43
-19.92
-6.39
4.82
11.89
14.15
12.36
8.24
3.90
1.14
1.12
4.16
9.94
17.69
26.46
35.38
43.70
50.87
56.46
60.14
61.71
61.14
58.67
54.80
50.17
45.40
40.94
36.95
33.28
29.54
25.36
20.61
15.57
10.99
7.76
6.49
7.18
9.01
10.62
10.63
8.27
3.75
-1.85
-7.06
-10.76
-12.78
-13.96
-15.77
-19.58
-25.97
-34.49
-43.88
-52.56
-59.03
-61.98
-60.32
-53.38
-41.58
-26.96
-13.35
-5.35
-6.54
-17.72
-36.09
-56.31
-72.60
-81.28
-81.83
-76.52
-68.61
-60.51
-52.89
-45.03
-35.91
-25.26
-13.75
-2.46
8.01
17.96
28.35
40.00
52.79
65.33
75.48
81.27
81.95
78.36
72.57
66.97
63.18
61.49
60.96
60.22
58.29
54.99
50.94
46.94
43.50
40.49
37.34
33.44
28.60
23.15
17.73
12.96
9.06
5.80
2.66
-0.88
-5.06
-9.70
-14.37
-18.54
-21.84
-24.30
-26.35
-28.72
-32.06
-36.65
-42.03
-47.11
-50.48
-50.88
-47.64
-40.99
-32.00
-22.37
-14.16
-9.42
-9.82
-16.08
-27.39
-41.05
-52.75
-57.79
-52.82
-37.52
-15.16
8.31
26.34
34.19
30.36
16.64
-3.14
-24.67
-44.23
-58.91
-66.42
-65.14
-54.64
-36.48
-14.32
6.99
23.14
32.07
34.62
33.84
33.29
35.26
39.72
44.31
45.34
39.11
23.39
-1.51
-32.43
-63.93
-89.76
-104.84
-106.79
-96.51
-77.44
-53.95
-29.74
-7.06
13.25
31.04
46.24
58.61
67.95
74.31
78.00
79.33
78.38
74.92
68.70
59.82
48.97
37.45
26.78
18.37
13.17
11.63
13.76
19.15
26.96
35.85
44.23
50.56
53.98
54.61
53.42
51.75
50.55
49.86
48.91
46.48
41.58
33.80
23.38
11.03
-2.35
-15.75
-28.10
-38.38
-45.87
-50.36
-52.33
-52.77
-52.88
-53.66
-55.61
-58.50
-61.42
-62.91
-61.46
-56.09
-46.85
-35.04
-22.90
-12.76
-6.20
-3.49
-3.74
-5.51
-7.51
-9.06
-9.99
-10.33
-10.05
-9.17
-7.95
-7.07
-7.54
-10.23
-15.41
-22.52
-30.30
-37.35
-42.62
-45.77
-47.10
-47.29
-46.90
-46.08
-44.51
-41.48
-36.18
-28.09
-17.16
-3.93
10.57
25.02
38.11
48.64
55.69
58.65
57.50
52.91
46.35
39.87
35.63
35.19
38.89
45.63
53.18
58.88
60.65
57.61
50.39
40.74
30.73
21.86
14.42
7.52
-0.37
-10.50
-23.16
-37.46
-51.77
-64.45
-74.37
-81.16
-84.93
-86.01
-84.73
-81.43
-76.52
-70.41
-63.29
-54.81
-44.09
-30.12
-12.36
8.58
30.85
51.87
69.33
82.12
90.69
96.61
101.46
105.88
109.21
109.98
106.93
99.90
89.97
78.83
67.74
56.70
44.48
29.19
9.23
-15.95
-45.41
-76.70
-106.21
-129.78
-143.56
-145.04
-133.91
-112.46
-85.06
-56.96
-32.67
-14.81
-3.69
2.09
4.53
5.21
4.91
3.89
2.52
1.68
2.58
6.08
11.98
18.84
24.59
27.55
27.34
24.85
21.55
18.47
15.56
11.89
6.45
-1.04
-9.61
-17.48
-22.95
-25.36
-25.39
-24.51
-23.85
-23.29
-21.39
-16.10
-6.36
6.70
19.51
27.21
25.85
14.53
-3.99
-24.25
-40.28
-47.89
-46.01
-36.48
-22.85
-8.69
3.83
13.85
21.34
26.73
30.55
33.25
35.10
36.14
36.40
36.65
37.62
39.77
43.43
48.94
56.54
66.26
77.79
90.21
102.64
113.01
117.92
114.07
100.48
79.82
58.07
42.20
37.40
45.84
64.31
85.64
102.13
108.79
104.69
91.65
71.80
39.26
-6.41
-59.21
-109.39
-148.86
-174.08
-185.21
-184.91
-177.05
-165.00
-149.47
-130.95
-111.12
-93.07
-80.25
-73.84
-70.70
-64.16
-47.29
-16.78
22.41
57.80
76.51
70.33
40.60
-2.33
-44.14
-72.95
-83.05
-76.23
-58.95
-38.28
-18.90
-2.44
11.03
20.97
25.54
22.53
10.88
-7.95
-29.59
-47.96
-56.92
-52.39
-32.93
-0.98
37.99
76.97
109.49
131.40
141.88
143.27
139.74
135.03
130.61
125.05
114.95
97.00
70.05
36.34
1.09
-29.44
-50.35
-59.91
-59.63
-53.00
-43.55
-33.45
-23.32
-13.15
-3.62
3.17
4.13
-3.43
-20.19
-44.20
-71.45
-97.36
-118.47
-133.22
-141.44
-143.18
-137.56
-122.93
-98.24
-65.09
-28.80
2.40
20.00
18.73
-1.00
-32.80
-66.78
-93.28
-106.31
-105.00
-92.82
-75.36
-57.69
-42.88
-31.77
-23.82
-17.68
-11.41
-2.63
10.72
29.15
50.57
70.30
82.71
83.41
71.42
50.04
25.47
4.16
-9.44
-13.68
-9.14
2.89
20.45
41.07
61.81
79.55
91.57
96.68
96.00
92.34
89.16
88.04
87.90
85.99
79.65
67.60
51.09
33.84
17.94
7.79
5.99
10.45
15.44
15.57
8.07
-6.52
-25.33
-45.00
-62.30
-75.66
-84.66
-90.33
-91.87
-88.40
-80.00
-68.19
-55.93
-46.25
-41.88
-44.30
-53.36
-67.37
-84.18
-101.42
-115.28
-121.87
-117.57
-100.91
-73.57
-40.21
-6.88
20.81
39.80
50.43
55.38
58.13
60.85
63.87
66.27
67.10
66.12
64.09
62.57
63.12
66.85
73.90
83.63
94.99
107.02
118.97
130.23
140.24
148.29
153.68
155.66
153.96
149.00
141.64
132.82
123.12
112.72
101.31
88.35
72.90
54.55
33.87
12.13
-9.16
-28.95
-46.89
-63.20
-78.29
-93.15
-108.03
-122.08
-133.87
-142.14
-146.57
-147.80
-147.00
-145.26
-144.18
-144.16
-144.12
-142.28
-137.07
-128.25
-116.87
-104.39
-85.82
-59.51
-28.41
1.25
24.21
39.70
50.59
61.82
78.11
101.18
127.13
148.75
160.77
160.36
148.74
128.96
104.98
80.72
59.11
41.02
26.78
16.99
12.01
11.25
12.50
11.24
4.02
-9.79
-28.67
-49.51
-68.79
-83.97
-93.96
-102.48
-114.49
-133.13
-158.52
-189.10
-222.70
-257.28
-290.94
-307.75
-297.91
-263.28
-216.94
-173.21
-139.17
-113.44
-89.56
-64.05
-31.32
5.71
39.56
63.27
74.55
76.61
76.27
78.44
86.90
102.62
121.05
137.23
149.51
160.50
174.45
193.48
215.64
236.10
249.88
252.40
242.93
224.65
202.81
181.93
164.14
149.25
136.04
123.42
110.02
95.36
79.73
64.14
49.77
37.32
26.91
18.40
11.68
6.32
2.11
-1.08
-3.02
-3.35
-1.97
0.72
3.94
6.83
8.70
9.34
8.42
6.31
4.05
3.29
6.20
15.65
34.77
65.93
109.09
158.99
207.80
247.22
270.57
274.26
258.84
228.63
190.11
149.34
107.03
63.24
18.81
-24.97
-67.65
-109.90
-153.00
-197.92
-244.97
-297.70
-354.52
-408.11
-449.66
-474.84
-486.26
-492.26
-502.98
-526.21
-569.92
-630.43
-692.93
-739.04
-756.48
-742.92
-704.74
-652.09
-551.52
-399.32
-221.66
-56.09
74.54
166.64
226.91
263.49
287.63
305.37
312.27
305.50
287.20
263.48
236.79
210.27
186.83
169.01
157.62
147.10
134.23
119.99
107.60
98.71
92.71
87.30
80.58
71.81
59.00
43.41
29.14
20.92
21.64
32.44
52.97
81.94
116.38
150.21
177.23
193.07
196.42
189.11
175.79
162.08
152.48
148.50
147.98
147.23
143.28
135.27
124.45
113.31
103.97
97.25
92.51
88.43
83.94
78.70
73.06
67.45
61.88
55.69
47.80
37.41
24.69
10.96
-1.54
-10.60
-15.07
-15.57
-14.36
-14.47
-18.29
-26.56
-38.07
-50.30
-60.58
-67.01
-68.71
-65.65
-58.26
-47.42
-34.64
-22.11
-12.18
-6.49
-5.00
-5.85
-6.06
-2.95
4.56
15.40
26.97
36.31
41.40
41.76
38.28
32.46
25.67
18.87
12.68
7.58
4.01
2.14
1.59
1.35
0.08
-3.15
-8.24
-13.89
-18.02
-18.68
-14.89
-7.04
3.28
13.90
22.75
28.31
29.83
27.36
21.64
14.06
6.30
-0.04
-4.00
-5.57
-5.76
-6.20
-8.56
-13.98
-22.69
-34.05
-46.77
-59.30
-70.24
-78.64
-84.16
-87.04
-87.85
-87.34
-86.13
-84.67
-83.10
-81.27
-78.73
-74.85
-69.00
-60.94
-50.98
-39.97
-29.01
-18.97
-10.25
-2.69
4.07
10.39
16.39
21.97
26.98
31.29
34.73
37.03
37.81
36.74
33.84
29.63
25.02
21.03
18.32
17.03
16.84
17.30
18.16
19.43
21.34
24.00
27.26
30.74
34.01
36.77
38.90
40.28
40.62
39.49
36.55
31.91
26.21
20.51
15.75
12.31
9.81
7.26
3.64
-1.62
-8.27
-15.39
-21.65
-25.76
-26.80
-24.43
-19.09
-11.97
-4.68
1.19
4.77
6.33
7.19
9.17
13.69
21.09
30.47
40.15
48.57
54.89
59.22
62.15
64.14
65.12
64.52
61.74
56.62
49.84
42.76
37.03
33.90
33.64
35.22
36.47
34.88
28.85
18.69
6.79
-3.25
-8.12
-6.27
1.58
13.04
25.35
36.84
47.37
57.66
68.19
78.47
87.19
92.86
94.52
91.66
84.46
73.50
59.46
43.20
25.92
9.34
-4.45
-13.63
-17.62
-16.57
-11.38
-3.99
2.66
5.45
1.98
-8.43
-24.80
-45.88
-69.33
-92.37
-112.86
-130.19
-144.94
-158.35
-171.30
-184.21
-198.12
-212.45
-224.86
-232.18
-231.75
-221.82
-201.83
-172.18
-128.20
-74.57
-22.82
16.22
38.87
47.46
48.16
44.50
38.19
30.23
20.51
10.10
0.42
-6.67
-11.09
-14.58
-19.50
-26.48
-33.49
-37.14
-32.89
-17.33
9.64
43.81
78.57
107.64
127.58
137.93
139.57
134.29
124.07
110.81
96.21
82.27
71.03
64.27
62.57
64.79
68.98
73.11
75.77
76.30
75.26
74.32
75.74
81.14
90.55
102.23
113.08
119.69
119.08
109.83
92.24
67.90
39.03
8.14
-22.39
-50.89
-76.79
-100.81
-123.24
-143.15
-158.59
-167.82
-170.19
-166.89
-160.97
-156.36
-156.89
-163.27
-172.36
-178.57
-176.19
-160.98
-132.18
-94.08
-55.84
-29.47
-23.16
-36.88
-62.21
-86.16
-96.12
-85.07
-54.13
-6.32
45.75
86.68
109.17
117.37
119.46
120.75
121.79
120.81
116.92
110.49
103.67
98.24
94.66
88.36
74.46
51.19
21.26
-9.73
-36.40
-54.89
-63.95
-65.37
-63.17
-61.06
-61.41
-63.78
-67.54
-71.92
-74.81
-72.56
-61.41
-39.77
-9.36
24.55
54.78
75.09
82.97
80.89
74.59
69.47
67.58
67.10
64.04
55.08
39.66
20.39
1.71
-12.12
-18.72
-17.83
-10.75
0.60
14.38
29.02
43.06
55.08
63.82
68.27
68.19
64.04
56.89
48.27
40.02
33.74
30.36
30.06
31.31
33.32
36.13
40.03
44.65
48.82
50.98
50.08
46.47
41.39
37.09
35.35
36.38
38.18
38.95
37.43
33.39
27.80
21.37
14.78
7.86
-0.42
-11.33
-25.65
-43.73
-65.79
-87.21
-105.59
-119.45
-128.54
-133.52
-135.49
-135.39
-134.03
-132.04
-129.94
-128.91
-129.83
-133.08
-138.23
-144.05
-148.76
-150.72
-148.65
-141.61
-129.62
-113.04
-92.54
-69.14
-44.09
-18.75
5.48
27.63
47.32
64.31
78.21
88.63
95.37
98.75
99.43
97.86
94.42
89.23
82.16
72.58
60.25
45.86
31.12
18.02
7.73
0.69
-3.35
-5.10
-6.46
-9.46
-15.32
-23.98
-34.34
-45.30
-55.35
-62.60
-60.74
-45.69
-18.13
16.27
49.85
79.35
101.92
115.76
118.36
110.65
95.59
77.40
60.17
46.77
38.22
33.41
30.55
28.00
25.00
20.65
14.47
6.80
-1.10
-7.51
-11.44
-12.34
-10.15
-4.81
3.26
13.84
27.34
44.85
67.52
95.26
126.21
156.37
180.31
192.20
187.85
166.30
130.19
84.61
35.16
-13.64
-59.08
-99.99
-136.08
-167.09
-192.51
-211.66
-224.22
-230.40
-230.86
-226.43
-217.77
-205.46
-190.09
-172.49
-153.73
-135.02
-117.46
-101.82
-88.38
-76.93
-66.90
-57.54
-48.13
-38.21
-27.71
-17.05
-7.06
1.34
7.56
11.67
14.52
17.44
21.59
27.46
34.51
41.41
46.61
49.08
48.76
46.70
44.54
43.96
45.99
50.72
57.27
64.16
69.75
72.69
72.36
68.93
63.34
56.88
50.71
45.51
41.23
37.45
33.80
30.35
27.70
26.58
27.40
29.93
33.47
37.34
41.30
45.65
50.80
56.75
62.84
67.87
70.76
71.05
69.08
65.82
62.28
59.15
56.60
54.49
52.65
50.98
49.61
48.77
48.66
49.32
50.51
51.85
52.92
53.56
53.96
54.59
55.80
57.53
59.14
59.61
58.10
54.40
49.02
42.91
36.80
30.85
24.55
17.15
8.19
-2.09
-12.86
-22.98
-31.47
-37.85
-42.15
-44.78
-46.20
-46.79
-46.71
-45.88
-44.12
-41.30
-37.50
-33.02
-28.35
-23.92
-20.07
-16.94
-14.51
-12.73
-11.48
-10.59
-9.77
-8.72
-7.19
-5.08
-2.49
0.27
2.74
4.34
4.48
2.63
-1.51
-7.83
-15.68
-23.96
-31.45
-37.12
-40.51
-41.78
-41.58
-40.71
-39.77
-39.04
-38.49
-38.06
-37.78
-37.73
-37.92
-38.07
-37.65
-36.16
-33.45
-29.93
-26.46
-23.91
-22.71
-22.65
-23.08
-23.43
-23.51
-23.54
-23.83
-24.33
-24.48
-23.43
-20.57
-15.97
-10.48
-5.42
-1.96
-0.54
-0.68
-1.33
-1.20
0.70
4.56
9.53
13.70
14.91
11.91
5.09
-3.41
-10.45
-13.08
-9.69
-0.27
13.60
29.93
46.70
61.58
71.58
73.65
66.43
51.91
35.67
24.05
21.97
30.34
45.06
58.62
63.91
57.81
42.30
22.68
2.54
-16.14
-32.77
-47.50
-60.69
-72.33
-81.84
-88.69
-93.16
-99.35
-110.34
-126.14
-144.03
-160.84
-174.32
-183.18
-187.19
-187.36
-189.67
-199.09
-216.74
-239.71
-263.17
-281.70
-289.94
-283.83
-240.10
-155.14
-48.24
51.53
125.78
171.68
195.26
204.56
206.41
205.67
201.45
193.33
183.60
176.42
174.65
177.71
182.73
184.03
176.59
155.65
122.55
85.35
54.75
38.28
36.27
41.04
42.48
34.81
17.96
-1.25
-13.34
-12.28
0.71
18.26
31.62
35.48
30.05
18.75
6.65
-2.32
-6.98
-9.00
-11.09
-14.68
-18.95
-21.31
-19.85
-14.78
-8.12
-3.40
-4.19
-12.12
-25.74
-40.72
-51.09
-51.55
-39.66
-16.94
12.03
40.00
61.19
72.84
75.01
69.56
58.59
43.60
25.51
5.41
-15.05
-33.73
-48.24
-57.25
-60.98
-60.82
-58.32
-53.91
-46.55
-34.41
-16.36
6.59
29.35
45.25
49.13
39.66
20.29
-2.50
-21.98
-33.77
-36.48
-30.47
-17.42
0.63
20.96
40.04
53.91
59.49
56.04
44.75
31.52
20.44
13.72
10.81
8.98
4.95
-3.21
-15.37
-29.82
-43.67
-54.61
-60.93
-61.41
-55.25
-42.23
-22.98
1.14
24.96
43.51
54.01
57.10
55.94
53.74
51.50
47.35
37.83
20.24
-4.58
-32.12
-57.71
-76.87
-87.18
-89.00
-84.68
-77.12
-68.48
-59.20
-49.03
-37.92
-26.35
-15.51
-6.60
-0.07
4.68
7.90
10.59
13.45
16.42
18.95
20.15
19.34
16.45
12.09
7.23
3.05
0.22
-1.28
-1.85
-2.01
-2.05
-1.92
-1.40
-0.29
1.48
3.70
6.01
8.11
9.92
11.47
12.86
14.14
15.29
16.31
17.12
17.60
17.54
16.71
14.95
12.31
9.15
6.09
3.80
2.71
2.89
3.99
5.48
6.79
7.54
7.60
7.02
5.98
4.68
3.31
1.96
0.64
-0.66
-1.98
-3.31
-4.64
-5.92
-7.19
-8.51
-9.95
-11.47
-12.91
-13.96
-14.35
-13.93
-12.81
-11.28
-9.72
-8.43
-7.47
-6.74
-6.06
-5.25
-4.22
-2.97
-1.48
0.30
2.39
4.72
6.99
8.73
9.53
9.15
7.77
5.87
4.04
2.70
1.93
1.51
1.16
0.74
0.34
0.14
0.23
0.44
0.36
-0.41
-2.09
-4.58
-7.57
-10.73
-13.87
-16.90
-19.66
-21.79
-22.76
-22.13
-19.83
-16.32
-12.44
-9.03
-6.59
-5.03
-3.85
-2.45
-0.43
2.28
5.47
8.76
11.84
14.40
16.19
17.06
17.03
16.31
15.28
14.31
13.53
12.78
11.64
9.76
7.07
4.02
1.37
-0.11
0.03
1.73
4.49
7.71
10.95
14.08
17.25
20.70
24.55
28.68
32.69
35.93
37.60
36.94
33.54
27.66
20.30
13.09
7.84
6.08
8.64
15.37
25.19
36.23
46.29
53.34
56.14
54.61
49.86
43.68
37.83
33.34
30.32
28.24
26.43
24.61
22.87
21.43
20.33
19.32
18.12
16.91
16.49
18.23
23.52
32.97
45.67
58.86
68.42
70.08
61.05
41.26
13.72
-16.42
-43.63
-63.96
-76.06
-81.08
-81.46
-79.44
-75.99
-70.69
-62.49
-50.70
-35.90
-20.07
-6.02
3.65
7.71
6.98
4.16
2.91
6.35
15.70
29.60
44.71
57.19
64.28
65.20
60.81
52.79
43.17
34.41
29.33
30.57
39.08
52.55
65.20
69.72
61.10
39.88
12.71
-10.58
-21.78
-18.43
-5.17
8.51
13.12
4.25
-15.02
-35.36
-46.05
-39.59
-14.43
24.63
68.20
105.68
129.09
135.10
124.64
100.16
64.26
20.13
-27.62
-72.95
-109.34
-131.04
-134.79
-121.47
-97.63
-73.67
-59.59
-61.61
-81.26
-116.09
-160.74
-208.69
-245.22
-257.08
-241.35
-207.22
-167.43
-130.92
-102.23
-83.26
-74.60
-77.21
-88.49
-104.43
-118.76
-123.65
-112.55
-83.17
-38.63
13.53
63.34
97.56
106.62
89.73
55.77
19.29
-5.91
-11.51
3.91
36.95
82.41
135.84
193.27
249.26
295.74
323.08
323.44
294.18
239.48
169.07
95.42
30.43
-17.36
-43.26
-46.33
-29.04
2.18
36.06
60.70
71.59
71.80
65.90
55.41
38.86
14.71
-15.86
-47.75
-73.88
-89.26
-92.26
-85.72
-75.12
-65.83
-61.06
-61.59
-64.60
-67.86
-69.56
-69.17
-67.20
-64.13
-59.81
-53.86
-46.35
-38.29
-31.46
-27.22
-26.10
-27.34
-29.29
-29.82
-27.57
-22.68
-16.74
-12.41
-12.35
-19.03
-32.34
-50.02
-67.29
-77.99
-76.39
-59.27
-27.67
12.77
52.65
82.04
93.62
85.52
62.11
32.40
6.80
-6.45
-3.26
12.58
33.43
52.29
65.61
73.07
75.32
71.99
61.14
41.41
13.76
-16.97
-43.81
-60.94
-66.29
-62.03
-52.81
-44.06
-37.80
-34.16
-31.58
-28.19
-23.04
-16.46
-9.63
-3.82
0.27
2.82
4.50
6.24
8.74
12.07
15.68
18.70
20.41
20.63
19.80
18.60
17.98
18.83
21.72
26.81
33.78
41.45
48.26
52.64
53.32
49.78
42.46
32.58
21.83
11.91
4.06
-1.12
-3.73
-4.52
-4.61
-5.07
-6.63
-9.43
-12.92
-16.21
-18.32
-18.71
-17.55
-15.77
-14.72
-15.61
-18.95
-24.24
-30.15
-35.03
-37.52
-37.04
-33.88
-28.97
-23.25
-17.39
-11.50
-5.48
0.70
6.93
13.15
19.37
25.67
32.22
38.78
44.82
49.15
50.42
47.73
41.38
32.47
22.07
10.93
-1.52
-16.11
-33.67
-54.05
-75.72
-95.67
-110.88
-119.58
-121.07
-116.35
-106.40
-92.53
-76.50
-60.92
-48.88
-44.16
-50.46
-69.42
-101.11
-137.15
-165.63
-176.45
-166.86
-139.92
-101.24
-60.90
-20.73
16.84
49.65
76.35
97.71
113.13
124.72
135.63
148.23
163.33
178.02
187.85
188.03
175.59
150.75
117.69
82.65
51.67
28.94
14.24
4.54
-4.17
-14.68
-27.09
-38.55
-44.45
-39.87
-21.17
11.62
55.14
103.42
149.02
183.96
200.60
193.53
161.91
110.55
48.68
-11.77
-59.05
-84.79
-84.87
-61.97
-28.64
-0.12
15.45
18.77
15.04
9.24
3.56
-1.86
-10.43
-24.27
-42.60
-62.47
-80.87
-96.08
-107.96
-117.63
-123.77
-125.60
-122.19
-112.27
-94.97
-70.76
-41.71
-10.95
17.94
41.43
56.17
59.68
51.21
32.22
6.24
-21.64
-45.83
-61.73
-67.19
-62.76
-51.42
-37.04
-22.60
-9.58
1.66
10.85
17.03
17.39
10.93
-1.13
-15.75
-29.83
-41.70
-51.41
-59.49
-65.58
-69.21
-67.05
-56.04
-34.70
-3.66
34.44
75.83
116.88
154.51
180.36
188.90
176.52
143.42
95.04
41.20
-6.73
-39.24
-52.14
-47.81
-30.84
-9.20
8.23
17.32
20.81
25.01
35.13
53.79
75.17
91.40
94.46
79.35
46.57
1.90
-47.73
-90.94
-117.20
-121.12
-103.17
-70.02
-31.23
4.63
32.23
49.82
58.63
60.60
57.12
49.72
39.81
29.09
19.75
13.52
10.93
11.49
13.58
15.27
15.57
14.52
12.97
12.08
12.56
14.32
16.65
18.35
18.23
15.82
11.52
6.53
2.37
0.15
-0.16
0.16
-1.21
-6.56
-16.89
-31.15
-46.50
-59.41
-67.26
-69.43
-67.44
-64.05
-61.80
-61.78
-63.26
-64.23
-62.56
-57.02
-47.83
-36.35
-24.53
-14.11
-6.15
-0.82
2.23
3.59
3.78
3.09
1.77
0.15
-1.31
-2.15
-2.27
-2.09
-2.54
-4.59
-8.73
-14.59
-20.97
-26.46
-30.16
-32.14
-33.38
-35.10
-37.95
-41.55
-44.64
-45.79
-44.23
-40.27
-35.21
-30.75
-28.33
-28.73
-31.98
-37.36
-43.42
-48.00
-48.34
-41.67
-26.08
-1.35
30.67
66.33
101.06
130.41
150.89
160.42
158.31
145.05
122.08
91.61
56.49
19.94
-14.71
-44.46
-67.10
-81.52
-87.81
-87.05
-80.91
-71.26
-59.88
-48.36
-38.05
-30.05
-25.00
-22.82
-22.63
-23.02
-22.64
-20.75
-17.42
-13.16
-8.72
-4.56
-0.77
2.85
6.58
10.54
14.61
18.71
23.05
27.67
32.35
36.48
39.25
40.18
39.27
36.80
33.70
31.47
31.30
33.85
39.17
46.73
55.72
64.90
72.23
75.92
75.11
69.56
60.03
48.26
36.81
28.92
27.61
34.44
45.20
55.09
59.53
56.65
47.45
34.19
19.28
7.35
-2.73
-12.19
-21.19
-29.35
-36.04
-40.83
-44.79
-48.56
-52.77
-58.28
-64.83
-71.11
-75.68
-77.43
-76.03
-71.89
-65.66
-58.12
-50.33
-42.64
-34.98
-27.37
-19.96
-13.09
-7.12
-2.16
1.82
4.75
6.95
8.86
10.83
13.04
15.47
17.97
20.52
23.12
25.80
28.83
32.56
37.19
42.62
48.28
53.15
55.91
55.18
50.00
40.25
26.89
11.78
-2.79
-14.74
-22.75
-26.53
-26.72
-24.57
-21.49
-18.68
-17.00
-16.95
-18.59
-21.64
-25.41
-28.95
-31.15
-31.06
-28.19
-22.66
-15.25
-7.13
0.42
6.40
10.33
12.29
12.79
12.46
11.84
11.27
10.88
10.65
10.54
10.50
10.48
10.42
10.22
9.77
8.90
7.39
5.02
1.68
-2.56
-7.29
-11.91
-15.67
-17.93
-18.39
-17.13
-14.56
-11.28
-7.79
-4.40
-1.20
1.77
4.42
6.48
7.52
7.27
5.80
3.68
1.88
1.45
3.10
6.88
12.15
17.71
22.29
24.88
25.07
23.19
20.10
16.96
14.76
13.98
14.45
15.48
16.24
16.18
15.15
13.40
11.32
9.28
7.52
6.16
5.25
4.59
3.71
1.85
-1.82
-7.70
-15.50
-24.15
-32.29
-38.78
-43.18
-45.65
-46.70
-46.77
-46.09
-44.79
-43.12
-41.47
-40.17
-39.16
-37.83
-35.21
-30.41
-23.10
-13.71
-3.33
6.70
15.20
21.41
25.09
26.43
25.91
24.17
21.84
19.41
17.15
15.13
13.24
11.37
9.49
7.71
6.31
5.61
5.90
7.25
9.52
12.32
15.17
17.64
19.51
20.81
21.73
22.49
23.21
23.82
24.16
23.98
23.10
21.44
19.06
16.19
13.15
10.24
7.68
5.51
3.63
1.91
0.34
-0.89
-1.48
-1.18
-0.07
1.41
2.55
2.62
1.14
-1.91
-6.08
-10.63
-14.71
-17.62
-18.92
-18.52
-16.65
-13.90
-11.01
-8.83
-8.11
-9.32
-12.54
-17.37
-22.99
-28.30
-32.10
-33.43
-31.78
-27.23
-20.48
-12.70
-5.27
0.50
3.70
3.96
1.47
-3.07
-8.79
-14.82
-20.42
-25.12
-28.61
-30.77
-31.63
-31.38
-30.38
-29.08
-27.87
-26.95
-26.20
-25.26
-23.64
-21.01
-17.39
-13.12
-8.73
-4.72
-1.40
1.15
2.94
3.97
4.18
3.53
2.20
0.63
-0.49
-0.43
1.31
4.78
9.50
14.60
18.97
21.56
21.63
18.99
13.99
7.29
-0.37
-8.45
-16.57
-24.46
-31.79
-38.06
-42.54
-44.52
-43.54
-39.60
-33.29
-25.43
-17.11
-9.36
-2.92
1.92
5.30
7.59
9.25
10.55
12.01
13.99
16.65
20.04
24.16
28.97
34.22
39.49
44.14
48.39
52.38
56.00
58.85
60.58
61.02
60.17
58.16
55.09
52.47
51.53
52.68
55.53
59.49
64.05
68.68
72.86
75.73
78.28
81.17
84.40
87.33
89.24
89.70
88.56
86.33
75.09
53.23
25.71
1.29
-13.80
-18.60
-15.90
-9.76
-1.16
6.87
13.51
17.89
19.14
16.81
11.59
5.36
-1.70
-10.13
-20.18
-30.92
-42.22
-53.90
-65.46
-76.00
-84.79
-91.91
-97.94
-105.53
-113.78
-120.83
-124.08
-121.32
-111.54
-95.43
-75.43
-54.72
-36.53
-21.18
-9.56
-1.68
3.09
5.57
6.62
7.15
8.37
11.53
17.77
26.78
37.02
45.94
50.92
50.44
44.75
35.88
26.69
19.84
16.51
16.69
19.42
23.30
26.97
29.37
29.86
28.13
24.38
19.10
13.33
8.30
4.99
3.76
4.09
4.76
4.27
1.40
-4.32
-12.39
-21.69
-30.99
-39.45
-46.75
-52.83
-57.57
-60.56
-61.20
-59.14
-54.44
-47.85
-40.47
-33.39
-27.37
-22.75
-19.54
-17.60
-16.61
-16.11
-15.49
-14.18
-11.86
-8.69
-5.21
-2.02
0.59
2.87
5.54
9.32
14.53
20.87
27.44
33.21
37.32
39.42
39.62
38.32
35.99
32.93
29.15
24.41
18.43
11.11
2.78
-5.71
-13.17
-18.34
-20.25
-18.57
-13.75
-6.90
0.42
6.56
10.17
10.38
7.01
0.52
-8.00
-17.10
-25.17
-30.76
-32.79
-30.75
-24.78
-15.71
-4.97
5.53
13.78
18.15
17.82
13.13
5.53
-2.78
-9.50
-12.75
-11.46
-5.53
4.06
15.29
25.51
32.08
33.12
28.16
18.27
5.71
-6.87
-17.26
-24.18
-27.31
-26.97
-23.87
-19.04
-13.77
-9.31
-6.61
-5.98
-7.02
-8.66
-9.68
-9.22
-7.52
-5.54
-4.25
-3.95
-4.19
-4.06
-2.64
0.70
5.87
11.41
15.35
16.46
14.83
11.71
8.70
7.23
8.35
12.36
17.83
22.88
26.67
29.93
34.04
39.70
46.47
53.11
57.82
57.31
48.40
29.61
1.83
-32.61
-71.21
-111.60
-151.41
-179.47
-185.88
-169.31
-138.92
-106.32
-78.23
-55.96
-38.03
-22.17
-7.22
5.46
13.65
16.03
13.01
5.91
-4.10
-16.36
-27.85
-34.80
-34.33
-24.86
-6.49
18.78
47.03
72.82
89.92
96.52
94.65
87.69
78.55
69.08
60.37
53.38
48.84
47.08
47.84
49.29
48.29
41.96
29.92
13.31
-4.50
-19.64
-29.21
-31.87
-28.37
-20.91
-12.16
-4.31
1.21
4.09
4.61
3.49
1.71
0.00
-1.29
-2.11
-2.45
-2.28
-1.51
-0.35
0.80
1.22
0.66
-0.45
-1.22
-0.49
2.35
7.05
12.28
16.42
18.48
18.56
17.65
16.81
16.66
17.28
18.38
19.46
20.37
21.45
23.21
26.01
29.59
33.50
37.56
41.78
45.58
48.56
50.92
53.48
57.41
62.69
68.85
75.26
81.20
84.71
84.79
82.53
80.60
82.23
87.53
95.02
102.44
107.13
104.17
89.95
64.18
29.97
-6.89
-43.52
-77.93
-108.82
-136.13
-164.01
-196.40
-234.14
-274.61
-312.28
-345.47
-373.12
-393.96
-385.58
-336.57
-256.19
-169.00
-107.28
-68.39
-45.46
-33.29
-25.35
-18.86
-15.36
-15.66
-17.13
-13.87
1.38
29.16
66.53
104.04
130.74
138.99
129.23
108.20
84.62
66.09
53.80
45.89
40.06
34.93
28.90
21.24
12.48
4.22
-1.41
-3.56
-3.41
-1.81
1.03
4.60
7.86
9.25
7.14
0.81
-9.50
-21.96
-33.17
-39.51
-38.80
-30.90
-16.99
2.04
23.53
46.89
72.48
100.61
130.49
159.74
185.05
203.42
213.30
214.81
209.64
199.52
185.71
168.93
149.90
129.81
110.37
93.38
79.86
69.95
62.39
55.10
46.03
33.80
18.04
-0.64
-20.90
-41.18
-59.65
-74.76
-85.45
-91.28
-92.70
-90.96
-87.94
-85.51
-85.03
-86.63
-89.28
-91.24
-90.72
-86.61
-78.71
-67.70
-54.68
-40.88
-27.37
-15.13
-5.01
2.31
6.51
7.76
6.84
5.01
3.54
3.34
4.54
6.59
8.49
9.22
8.16
5.38
1.58
-2.27
-5.35
-7.34
-8.27
-8.31
-7.69
-6.56
-4.90
-2.61
0.18
3.19
5.85
7.85
9.22
10.09
10.48
10.02
7.98
3.40
-4.33
-15.26
-27.62
-37.70
-41.63
-37.99
-28.58
-16.94
-7.35
-0.98
2.13
2.63
1.44
-0.88
-3.98
-7.58
-11.35
-14.86
-17.67
-19.70
-20.87
-21.14
-20.66
-19.80
-19.05
-18.76
-19.00
-19.65
-20.71
-21.99
-23.00
-23.29
-22.56
-20.82
-18.31
-15.27
-12.33
-10.49
-10.26
-11.12
-11.55
-9.84
-4.88
3.17
13.29
23.22
30.38
33.26
32.36
29.81
28.29
30.04
36.49
48.65
65.95
85.91
104.74
118.17
122.31
114.52
94.18
59.73
16.25
-26.72
-60.96
-84.00
-97.82
-104.40
-103.20
-91.89
-69.04
-36.05
1.12
33.65
53.72
57.91
48.21
30.41
11.24
-4.03
-12.34
-13.48
-9.69
-3.10
4.62
12.15
18.23
21.77
22.24
20.03
15.83
10.39
4.55
-0.61
-3.70
-3.37
1.17
9.61
20.54
31.68
40.71
46.34
48.76
49.49
50.11
51.62
54.02
56.57
58.34
58.83
58.19
56.87
55.19
53.01
49.90
45.45
39.69
33.19
26.87
21.56
17.65
15.05
13.33
12.00
10.66
9.10
7.21
4.95
2.27
-0.80
-4.13
-7.38
-10.08
-11.85
-12.60
-12.64
-12.54
-12.91
-14.08
-16.06
-18.64
-21.69
-25.27
-29.59
-34.83
-40.89
-47.39
-53.91
-60.17
-66.22
-72.20
-78.17
-83.84
-88.55
-91.53
-92.23
-90.48
-86.62
-81.26
-75.12
-68.83
-62.81
-57.28
-52.23
-47.52
-42.94
-38.43
-34.03
-29.89
-26.12
-22.70
-19.50
-16.40
-13.42
-10.77
-8.72
-7.46
-6.89
-6.61
-6.11
-4.91
-2.82
0.06
3.40
6.72
9.54
11.49
12.37
12.21
11.30
10.06
8.92
8.27
8.35
9.22
10.79
12.78
14.75
16.15
16.53
15.70
13.88
11.66
9.71
8.53
8.19
8.36
8.51
8.25
7.47
6.33
5.16
4.22
3.66
3.51
3.81
4.62
5.95
7.71
9.63
11.33
12.50
13.13
13.44
13.82
14.57
15.67
16.82
17.58
17.61
16.85
15.50
13.90
12.37
11.09
10.10
9.36
8.81
8.37
7.92
7.31
6.41
5.13
3.52
1.71
-0.14
-1.87
-3.40
-4.72
-5.86
-6.84
-7.73
-8.55
-9.37
-10.27
-11.36
-12.73
-14.40
-16.26
-17.97
-19.17
-19.57
-19.21
-18.41
-17.64
-17.20
-16.97
-16.48
-15.11
-12.61
-9.21
-5.62
-2.59
-0.52
0.71
1.63
2.80
4.45
6.38
8.17
9.47
10.23
10.67
11.10
11.66
12.21
12.48
12.26
11.66
10.98
10.61
10.72
11.21
11.75
12.03
11.93
11.49
10.83
9.94
8.67
6.92
4.79
2.68
1.11
0.43
0.54
0.98
1.08
0.39
-1.18
-3.42
-5.97
-8.57
-11.08
-13.38
-15.23
-16.32
-16.39
-15.46
-13.95
-12.52
-11.84
-12.34
-14.07
-16.72
-19.87
-23.03
-25.73
-27.49
-27.85
-26.50
-23.46
-19.19
-14.45
-10.06
-6.60
-4.13
-2.33
-0.70
1.10
3.09
5.05
6.71
7.99
9.00
9.93
10.82
11.52
11.72
11.22
10.10
8.80
7.86
7.68
8.27
9.26
10.14
10.55
10.44
10.04
9.64
9.36
9.07
8.44
7.23
5.50
3.58
1.93
0.89
0.46
0.34
0.16
-0.28
-0.90
-1.45
-1.68
-1.62
-1.55
-1.85
-2.74
-4.14
-5.77
-7.41
-9.04
-10.88
-13.13
-15.72
-18.15
-19.73
-19.93
-18.64
-16.22
-13.27
-10.23
-7.26
-4.30
-1.35
1.36
3.45
4.61
4.90
4.75
4.73
5.18
6.06
6.98
7.56
7.66
7.55
7.65
8.21
9.12
9.90
10.03
9.25
7.72
5.95
4.51
3.74
3.66
4.05
4.67
5.43
6.35
7.40
8.41
9.03
8.90
7.92
6.31
4.63
3.42
2.99
3.22
3.70
3.95
3.70
3.03
2.25
1.61
1.19
0.85
0.44
0.06
0.09
1.06
3.20
6.18
9.17
11.20
11.73
10.90
9.50
8.38
8.01
8.18
8.21
7.30
4.93
0.97
-4.47
-11.17
-18.90
-27.30
-35.79
-43.59
-50.07
-55.05
-58.96
-62.61
-66.69
-71.30
-75.78
-78.91
-79.49
-76.95
-71.71
-65.19
-59.16
-55.05
-53.24
-52.72
-51.39
-46.55
-35.91
-18.31
5.57
33.27
61.13
85.34
103.10
113.54
117.93
119.00
119.47
120.42
120.44
115.87
102.28
76.06
35.83
-17.05
-78.90
-144.47
-207.68
-262.48
-303.66
-327.50
-332.70
-320.32
-293.16
-255.15
-210.47
-162.80
-114.91
-68.40
-22.98
23.20
73.32
130.31
194.34
260.90
321.36
365.44
384.70
376.02
341.79
289.16
227.56
165.94
110.95
67.18
37.49
20.59
16.35
21.52
29.97
35.97
36.75
32.50
25.72
19.26
14.76
12.25
9.62
4.13
-6.03
-19.89
-36.63
-53.99
-69.24
-80.23
-85.77
-86.04
-81.91
-74.36
-64.39
-53.44
-42.87
-33.97
-27.53
-24.16
-23.49
-24.32
-25.18
-24.98
-23.56
-21.28
-18.72
-16.45
-14.71
-13.49
-12.53
-11.49
-10.05
-8.20
-6.10
-4.18
-2.99
-2.93
-4.00
-5.73
-7.33
-8.09
-7.65
-6.05
-3.62
-0.79
2.09
4.82
7.20
8.94
9.74
9.36
7.88
5.70
3.40
1.57
0.55
0.42
0.96
1.86
2.87
3.83
4.64
5.24
5.57
5.64
5.56
5.42
5.29
5.15
4.90
4.46
3.81
3.04
2.31
1.73
1.29
0.89
0.39
-0.31
-1.23
-2.34
-3.56
-4.81
-5.90
-6.54
-6.37
-5.13
-2.77
0.45
4.02
7.43
10.33
12.59
14.27
15.53
16.49
17.15
17.48
17.47
17.35
17.40
17.92
19.08
20.86
23.04
25.33
27.40
29.02
30.23
31.11
31.70
31.99
31.95
31.59
30.88
29.75
28.13
26.34
24.69
23.35
22.38
21.80
21.57
21.50
21.27
20.60
20.23
20.87
22.80
25.70
28.96
31.87
33.79
34.33
33.56
33.28
35.05
39.42
45.72
52.75
59.23
64.12
66.79
67.21
67.46
69.15
72.48
76.12
78.68
79.54
79.25
79.47
72.12
54.54
29.58
3.40
-19.51
-37.44
-50.30
-58.38
-62.26
-63.41
-62.58
-61.53
-61.11
-63.80
-70.36
-79.74
-89.88
-98.68
-104.68
-106.05
-102.19
-93.82
-82.66
-70.04
-56.91
-44.23
-33.04
-24.36
-18.08
-13.79
-10.94
-9.12
-7.76
-6.51
-5.55
-5.49
-7.05
-10.23
-14.62
-19.44
-23.84
-26.88
-28.07
-27.73
-27.00
-27.38
-30.13
-35.88
-44.34
-54.30
-63.85
-71.10
-74.67
-73.87
-68.29
-58.08
-44.04
-27.72
-11.08
4.08
16.79
27.36
37.39
49.61
65.99
86.43
108.47
128.36
142.53
148.80
146.72
137.43
123.56
107.88
92.74
79.87
70.67
65.54
63.40
61.29
51.30
28.21
-7.15
-47.52
-83.85
-109.80
-123.90
-128.40
-127.46
-124.86
-123.05
-123.51
-126.60
-132.72
-138.66
-139.87
-131.75
-111.67
-79.62
-38.68
5.91
48.55
84.75
112.26
130.60
140.79
139.56
127.22
106.41
81.24
56.05
33.99
16.46
2.97
-7.85
-17.40
-25.73
-32.35
-36.77
-39.02
-39.85
-40.22
-41.08
-42.90
-45.51
-47.78
-48.67
-47.49
-44.01
-38.35
-30.80
-21.83
-12.14
-2.75
5.54
11.95
16.20
18.66
20.15
21.55
23.31
25.38
27.37
29.01
30.07
30.38
29.68
27.66
24.14
19.43
14.37
10.19
8.05
8.47
11.09
14.89
18.70
21.69
23.60
24.63
25.07
25.04
24.41
22.97
20.69
17.89
15.17
13.13
12.09
11.97
12.29
12.45
12.00
10.81
9.04
7.02
5.02
3.15
1.32
-0.62
-2.79
-5.09
-7.29
-9.09
-10.29
-10.95
-11.29
-11.57
-11.88
-12.13
-12.02
-11.20
-9.41
-6.46
-2.32
2.98
9.28
16.21
23.25
29.76
35.27
39.55
42.70
44.93
46.40
47.11
46.97
45.98
44.28
42.13
39.68
36.96
33.91
30.75
28.19
27.33
29.27
34.44
42.25
51.19
59.47
65.74
69.77
72.39
75.08
79.21
85.35
92.93
100.34
105.36
105.67
99.45
85.75
64.81
38.07
7.93
-22.73
-51.07
-74.83
-92.56
-103.79
-108.90
-109.00
-105.43
-99.51
-92.27
-84.70
-78.23
-74.91
-76.92
-85.47
-99.71
-116.50
-131.52
-141.11
-143.79
-140.45
-133.05
-122.96
-110.17
-94.00
-74.72
-54.79
-38.48
-30.08
-31.71
-42.21
-57.67
-73.21
-84.86
-90.46
-89.79
-83.90
-74.45
-63.29
-52.15
-42.50
-35.31
-31.12
-30.09
-32.24
-37.36
-44.89
-53.70
-62.15
-68.41
-70.91
-68.72
-61.63
-50.04
-34.68
-16.49
3.38
23.67
43.07
60.50
75.23
87.05
96.03
102.40
106.32
107.90
107.37
105.24
102.34
99.62
97.78
96.98
96.80
96.41
94.93
91.84
87.22
81.72
76.38
72.33
70.51
71.45
75.26
81.72
90.37
100.56
111.46
122.07
131.37
138.53
143.17
145.46
145.92
145.10
143.18
139.86
134.49
126.43
115.34
101.43
85.46
68.62
52.39
38.17
27.00
19.13
13.70
8.89
2.39
-7.70
-22.15
-40.27
-60.30
-80.26
-98.82
-115.81
-131.91
-148.02
-164.50
-180.67
-194.86
-204.77
-207.89
-202.08
-186.32
-161.53
-131.16
-101.15
-78.53
-69.30
-76.08
-96.47
-123.29
-147.03
-159.63
-157.81
-144.60
-127.85
-116.71
-117.46
-130.33
-149.20
-164.23
-166.25
-150.75
-119.34
-78.27
-35.08
4.39
37.94
66.26
90.56
110.55
124.04
128.54
123.37
110.79
94.42
78.59
66.64
59.86
57.36
57.37
58.88
62.33
69.17
78.50
89.09
99.79
109.83
118.19
123.51
124.57
120.55
111.05
92.60
63.09
22.97
-25.14
-78.35
-134.16
-189.78
-241.29
-283.69
-316.30
-338.38
-348.97
-348.06
-338.81
-327.15
-319.16
-318.44
-297.84
-243.09
-159.11
-65.80
18.46
84.93
132.74
165.22
187.31
204.12
215.05
219.32
217.60
211.88
203.24
191.17
174.48
152.72
127.18
96.88
62.26
25.68
-7.18
-31.09
-42.98
-42.17
-30.21
-10.10
10.87
24.96
27.05
16.68
-2.40
-23.76
-40.59
-48.07
-43.45
-28.52
-6.94
17.96
44.27
70.67
95.66
117.51
134.84
148.95
161.16
172.17
181.67
188.76
192.48
192.63
190.23
177.95
154.13
121.79
86.28
51.46
19.05
-9.80
-33.58
-50.28
-60.90
-65.49
-65.16
-61.93
-57.93
-54.50
-51.98
-50.20
-49.04
-48.71
-48.07
-46.58
-44.34
-42.04
-40.60
-40.78
-43.15
-47.86
-54.63
-61.42
-66.20
-67.35
-64.18
-57.00
-46.85
-35.34
-24.12
-14.81
-7.64
-2.48
1.38
4.77
8.51
13.34
19.78
28.22
38.54
51.10
62.63
69.50
69.42
62.89
52.52
40.88
32.30
26.36
22.39
19.80
18.56
18.86
19.26
18.98
17.36
14.09
8.83
2.19
-4.99
-11.37
-15.61
-16.83
-14.83
-10.38
-4.90
-0.21
2.57
3.00
1.46
-1.26
-4.49
-7.80
-11.24
-15.01
-19.44
-24.48
-30.00
-35.88
-42.01
-48.31
-54.38
-59.66
-63.44
-65.21
-64.71
-62.31
-58.86
-55.39
-52.74
-51.07
-49.84
-48.03
-44.48
-38.29
-29.14
-17.33
-3.65
10.83
24.99
37.77
48.30
55.97
60.58
62.30
61.73
59.72
57.14
54.65
52.54
50.69
48.61
45.78
41.80
36.66
30.73
24.65
19.13
14.63
11.19
8.35
5.39
1.55
-3.59
-9.92
-16.73
-22.74
-26.31
-25.71
-19.65
-7.84
8.68
27.48
45.32
59.09
66.72
67.71
62.96
54.14
42.98
30.78
18.43
6.70
-3.64
-11.85
-17.49
-20.71
-22.18
-22.86
-23.53
-24.60
-26.00
-27.41
-28.48
-29.00
-28.89
-28.24
-27.20
-25.93
-24.64
-23.52
-22.75
-22.45
-22.71
-23.49
-24.56
-25.53
-25.91
-25.32
-23.68
-21.33
-18.96
-17.33
-16.96
-17.86
-19.53
-21.21
-22.26
-22.37
-21.76
-21.05
-21.10
-22.70
-26.35
-31.90
-38.26
-43.39
-44.73
-39.98
-28.10
-9.95
11.65
32.74
49.51
59.44
61.94
58.09
49.92
39.55
28.69
18.56
10.10
4.22
1.66
2.76
7.11
13.46
20.03
25.01
27.14
26.01
22.00
15.84
8.19
-0.53
-10.06
-20.03
-29.74
-38.28
-44.82
-49.12
-51.74
-53.67
-55.76
-57.96
-59.31
-58.34
-53.78
-45.15
-33.06
-19.03
-4.80
8.19
19.23
28.18
35.12
40.07
43.15
44.41
43.86
41.65
37.98
33.30
27.97
22.10
15.74
9.57
4.17
-0.22
-3.75
-7.01
-10.33
-14.30
-19.76
-27.33
-35.66
-42.79
-46.76
-46.02
-39.93
-27.47
-8.69
15.07
41.72
70.91
101.78
132.32
159.70
180.73
195.09
203.53
207.11
207.04
206.92
209.18
213.87
219.07
221.44
220.52
216.36
208.89
182.07
130.02
59.73
-13.08
-68.20
-107.29
-134.49
-153.06
-165.45
-172.48
-172.48
-165.14
-152.47
-138.11
-126.42
-118.07
-112.46
-108.81
-106.45
-103.07
-97.35
-89.56
-81.22
-74.57
-69.36
-64.89
-60.70
-56.78
-52.23
-46.72
-40.72
-35.21
-31.37
-28.72
-26.48
-24.13
-21.51
-18.20
-14.19
-9.98
-6.49
-4.83
-5.07
-6.64
-8.49
-9.37
-8.06
-4.16
1.64
7.78
12.29
13.74
11.40
5.23
-4.24
-16.10
-29.18
-42.16
-53.62
-62.15
-66.52
-65.86
-59.84
-48.81
-33.95
-17.19
-0.89
12.71
22.16
27.16
28.50
27.49
25.27
22.36
18.82
14.81
11.14
9.24
10.62
15.97
24.59
34.47
43.10
48.33
48.94
44.63
35.64
22.52
6.24
-11.41
-27.76
-39.65
-44.25
-40.16
-27.97
-10.21
9.33
26.65
38.61
43.65
42.04
35.61
26.89
18.26
11.13
5.71
1.38
-2.46
-5.63
-7.11
-5.54
-0.26
8.02
17.26
24.91
29.07
29.34
26.81
23.39
20.70
19.22
18.31
16.71
13.46
8.48
2.60
-2.90
-6.93
-9.08
-9.59
-9.17
-8.53
-8.13
-7.99
-7.89
-7.52
-6.75
-5.74
-4.89
-4.66
-5.33
-6.91
-9.04
-11.19
-12.80
-13.48
-13.13
-11.99
-10.48
-9.14
-8.39
-8.50
-9.48
-11.07
-12.82
-14.20
-14.73
-14.06
-12.12
-9.18
-5.79
-2.76
-0.94
-0.96
-2.89
-6.03
-9.02
-10.28
-8.71
-4.23
2.04
8.18
12.31
13.36
11.48
7.86
4.02
1.18
-0.21
-0.42
-0.00
0.52
0.93
1.21
1.38
1.33
0.84
-0.25
-1.90
-3.78
-5.32
-5.97
-5.36
-3.51
-0.84
1.91
3.96
4.72
3.93
1.73
-1.36
-4.58
-7.01
-7.61
-5.44
0.11
9.05
20.53
32.87
43.96
51.80
55.13
53.74
48.42
40.62
31.85
23.27
15.47
8.64
2.71
-2.38
-6.58
-9.82
-12.13
-13.67
-14.71
-15.48
-16.05
-16.33
-16.15
-15.43
-14.37
-13.43
-13.09
-13.63
-14.91
-16.36
-17.33
-17.36
-16.39
-14.71
-12.69
-10.58
-8.39
-5.97
-3.29
-0.52
1.92
3.58
4.09
3.38
1.57
-1.08
-4.34
-8.04
-11.98
-15.82
-19.06
-21.03
-21.05
-18.59
-13.53
-6.20
2.58
11.69
19.98
26.49
30.61
32.20
31.43
28.74
24.67
19.72
14.35
8.92
3.75
-0.92
-4.84
-7.85
-9.86
-10.95
-11.32
-11.30
-11.18
-11.09
-10.99
-10.60
-9.62
-7.90
-5.60
-3.21
-1.37
-0.53
-0.70
-1.45
-2.05
-1.95
-1.10
-0.09
0.09
-1.47
-5.15
-10.56
-16.69
-22.24
-26.10
-27.53
-26.25
-22.30
-15.93
-7.53
2.41
13.23
24.08
33.96
41.76
46.48
47.41
44.41
37.99
29.26
19.65
10.56
3.26
-1.14
-1.90
0.83
5.51
9.06
7.91
-0.36
-15.28
-33.05
-47.83
-54.17
-49.55
-35.47
-16.66
1.17
13.74
19.71
20.64
19.69
19.72
21.93
25.41
27.95
27.33
22.76
15.51
8.20
3.33
1.72
2.14
2.36
0.93
-1.50
-2.47
0.47
7.79
16.88
23.16
22.42
13.22
-2.29
-19.46
-33.44
-41.21
-42.34
-38.16
-30.47
-20.74
-10.23
-0.69
5.49
6.04
0.21
-10.17
-21.00
-27.75
-27.64
-21.11
-11.30
-2.16
3.81
6.52
7.65
9.05
11.38
13.89
15.41
15.57
15.14
15.39
16.97
19.11
19.92
17.65
11.84
3.91
-3.63
-8.45
-9.64
-7.92
-4.90
-1.86
1.09
4.97
11.04
19.55
28.95
36.24
38.38
34.03
24.65
14.02
6.49
4.66
8.28
14.68
20.72
24.74
27.40
30.81
36.66
44.50
51.59
54.29
50.16
39.43
24.95
10.69
-0.16
-6.51
-9.42
-11.11
-13.60
-17.87
-23.62
-29.80
-35.46
-40.31
-44.85
-49.69
-54.79
-59.00
-60.37
-57.16
-48.87
-36.81
-23.45
-11.24
-1.35
6.71
14.32
22.44
30.53
36.59
38.27
34.43
26.07
16.02
7.57
2.93
2.26
3.88
5.33
4.61
1.18
-4.13
-9.75
-14.33
-17.39
-19.40
-21.42
-24.41
-28.94
-34.95
-41.90
-48.88
-54.67
-57.81
-56.72
-50.18
-37.91
-21.13
-2.66
13.84
25.15
29.70
28.26
23.52
18.82
16.75
18.22
22.44
27.58
31.69
33.41
32.28
28.72
23.67
18.29
13.60
10.21
8.30
7.60
7.68
8.14
8.67
9.02
8.82
7.68
5.24
1.55
-2.91
-7.26
-10.62
-12.46
-12.82
-12.20
-11.36
-10.94
-11.23
-12.08
-13.06
-13.69
-13.70
-13.20
-12.57
-12.25
-12.57
-13.42
-14.44
-15.10
-15.04
-14.18
-12.79
-11.24
-9.90
-8.93
-8.36
-8.07
-7.96
-7.89
-7.68
-7.13
-6.03
-4.39
-2.41
-0.50
0.87
1.40
1.07
0.13
-0.95
-1.67
-1.69
-0.88
0.62
2.49
4.35
5.82
6.68
6.95
6.87
6.80
7.06
7.83
9.02
10.31
11.16
11.20
10.46
9.45
8.86
9.15
10.25
11.53
12.01
10.68
7.21
2.26
-2.63
-5.87
-6.57
-4.97
-2.35
-0.61
-1.58
-6.05
-13.19
-20.71
-26.00
-27.43
-24.90
-19.94
-15.19
-13.22
-15.46
-21.47
-29.03
-35.29
-37.56
-33.38
-20.47
5.53
45.60
93.55
137.07
164.28
169.72
155.78
130.78
106.56
88.34
77.04
70.26
64.41
56.84
46.70
34.43
21.86
10.38
0.35
-8.49
-16.68
-24.25
-30.30
-33.62
-33.58
-30.54
-26.03
-22.36
-21.36
-23.99
-29.84
-37.27
-44.13
-48.82
-50.78
-50.74
-50.39
-51.26
-54.10
-58.32
-62.13
-63.27
-60.17
-52.60
-41.90
-30.47
-20.61
-13.80
-10.12
-8.40
-6.89
-4.24
0.02
5.34
10.66
15.10
18.21
20.09
21.23
22.11
22.93
23.50
23.44
22.41
20.37
17.37
13.70
9.86
6.48
4.18
3.29
3.74
5.05
6.37
6.21
3.41
-2.21
-9.65
-17.24
-23.42
-27.15
-28.04
-26.16
-23.08
-20.42
-19.12
-19.11
-19.81
-20.77
-21.83
-22.94
-24.08
-27.18
-33.90
-44.43
-56.90
-68.51
-77.23
-82.51
-85.05
-85.79
-87.74
-92.93
-101.71
-113.09
-126.64
-143.60
-166.12
-195.36
-214.24
-208.29
-172.93
-117.46
-57.16
-3.81
37.45
66.74
87.05
102.11
112.37
117.09
116.01
110.53
102.99
95.66
90.05
86.98
86.79
87.44
86.67
83.24
77.53
70.74
64.22
58.77
54.84
52.65
50.94
48.22
43.62
37.26
29.28
20.65
11.60
1.76
-9.55
-23.25
-39.05
-54.70
-64.97
-66.56
-57.86
-40.43
-18.43
3.18
20.42
31.64
37.48
39.63
39.37
37.47
34.18
29.99
26.01
23.60
23.53
25.43
27.97
29.38
28.66
25.82
21.80
17.90
14.91
12.68
10.26
6.47
0.88
-5.36
-9.77
-9.82
-4.56
4.32
12.86
16.70
13.27
3.09
-10.61
-23.79
-33.62
-39.32
-41.63
-41.50
-39.06
-33.81
-25.55
-15.27
-5.04
3.01
8.03
10.86
13.42
17.31
22.72
28.35
32.01
31.79
26.97
18.23
7.28
-3.89
-13.56
-20.71
-24.87
-26.10
-24.77
-21.48
-17.00
-12.19
-7.96
-5.00
-4.43
-6.61
-11.24
-17.56
-24.89
-32.93
-41.91
-52.30
-64.31
-77.53
-90.70
-102.21
-110.81
-116.12
-118.79
-119.91
-120.25
-119.50
-116.29
-108.80
-95.99
-78.32
-57.57
-35.88
-14.61
6.11
26.69
46.81
64.48
76.23
78.47
69.61
51.29
28.34
6.97
-7.48
-12.35
-8.05
2.80
16.83
31.10
43.59
52.91
57.95
57.76
51.84
40.69
26.19
11.38
-0.28
-6.14
-5.30
0.94
9.59
17.10
20.75
19.56
14.40
7.35
0.54
-4.70
-8.19
-10.51
-12.33
-13.89
-14.83
-14.53
-12.50
-8.76
-3.78
1.73
7.17
12.24
16.99
21.61
26.19
30.53
34.14
36.50
37.43
37.29
36.90
37.19
38.79
41.73
45.52
49.34
52.48
54.48
55.21
54.74
53.28
51.16
48.81
46.72
45.30
44.74
44.90
45.40
45.74
45.51
44.45
42.50
39.85
36.80
33.81
31.30
29.51
28.37
27.44
26.15
24.07
21.13
17.67
14.20
11.10
8.42
5.96
3.38
0.51
-2.70
-6.27
-10.35
-15.31
-21.57
-29.42
-38.76
-49.12
-59.79
-69.99
-79.11
-86.75
-92.80
-97.34
-100.66
-103.08
-104.81
-105.82
-105.85
-104.54
-101.59
-96.89
-90.50
-82.53
-73.07
-62.23
-50.33
-37.97
-25.95
-15.02
-5.52
2.91
11.08
19.91
29.92
40.94
52.22
62.69
71.36
77.50
80.71
80.88
78.26
73.55
67.89
62.76
59.52
59.00
61.10
64.86
68.83
71.66
72.67
72.05
70.64
69.49
69.28
69.87
70.36
69.34
65.47
57.97
46.97
33.39
18.55
3.71
-10.30
-23.11
-34.64
-44.82
-53.37
-59.77
-63.51
-64.34
-62.48
-58.67
-53.89
-49.03
-44.58
-40.53
-36.45
-31.81
-26.32
-20.13
-13.78
-8.00
-3.45
-0.52
0.75
0.55
-0.82
-3.03
-5.73
-8.49
-10.74
-11.90
-11.51
-9.39
-5.77
-1.19
3.67
8.25
12.24
15.60
18.40
20.70
22.42
23.39
23.47
22.64
21.10
19.20
17.39
16.10
15.66
16.23
17.79
20.10
22.76
25.27
27.07
27.71
26.87
24.54
20.98
16.68
12.22
8.17
4.98
2.94
2.26
3.07
5.39
8.99
13.39
17.96
21.99
24.97
26.65
27.01
26.16
24.23
21.39
17.92
14.29
11.14
9.07
8.50
9.45
11.58
14.26
16.85
18.80
19.85
20.06
19.69
19.19
18.91
19.09
19.74
20.73
21.80
22.71
23.28
23.38
22.94
21.93
20.38
18.32
15.87
13.21
10.59
8.34
6.75
6.07
6.35
7.45
9.10
10.89
12.38
13.15
12.73
10.73
6.89
1.17
-6.07
-14.17
-22.27
-29.60
-35.58
-39.91
-42.50
-43.27
-42.18
-39.17
-34.29
-27.80
-20.15
-11.95
-3.83
3.62
9.91
14.72
17.89
19.45
19.65
18.89
17.63
16.33
15.25
14.53
14.09
13.73
13.26
12.57
11.74
10.99
10.67
11.02
12.09
13.59
15.04
15.86
15.62
14.17
11.68
8.53
5.21
2.13
-0.41
-2.30
-3.58
-4.38
-4.89
-5.34
-6.01
-7.19
-9.10
-11.81
-15.11
-18.58
-21.72
-24.10
-25.59
-26.28
-26.46
-26.31
-25.83
-24.75
-22.74
-19.61
-15.55
-11.12
-7.08
-4.10
-2.51
-2.10
-2.30
-2.39
-1.84
-0.47
1.53
3.82
6.06
8.01
9.53
10.51
10.78
10.20
8.76
6.67
4.38
2.43
1.30
1.20
2.11
3.77
5.75
7.64
9.06
9.71
9.50
8.43
6.63
4.29
1.54
-1.48
-4.65
-7.79
-10.62
-12.87
-14.23
-14.57
-13.94
-12.57
-10.85
-9.18
-7.89
-7.15
-6.99
-7.28
-7.84
-8.47
-8.98
-9.20
-8.98
-8.21
-6.85
-4.98
-2.86
-0.80
0.92
2.15
2.95
3.53
4.12
4.85
5.68
6.42
6.82
6.70
6.02
4.89
3.50
2.03
0.62
-0.67
-1.77
-2.61
-3.12
-3.26
-3.04
-2.59
-2.10
-1.70
-1.44
-1.27
-1.10
-0.92
-0.81
-0.93
-1.45
-2.38
-3.57
-4.72
-5.49
-5.60
-5.02
-3.95
-2.77
-1.92
-1.72
-2.27
-3.39
-4.69
-5.68
-5.96
-5.27
-3.61
-1.15
1.82
4.96
8.00
10.78
13.23
15.39
17.29
18.95
20.37
21.55
22.52
23.40
24.32
25.32
26.36
27.29
27.96
28.31
28.37
28.22
27.91
27.40
26.61
25.48
23.94
21.88
19.11
15.28
10.13
3.66
-3.73
-11.24
-17.97
-23.23
-26.75
-28.67
-29.35
-29.15
-28.30
-27.02
-25.57
-24.36
-23.85
-24.30
-25.69
-27.62
-29.45
-30.50
-30.28
-28.63
-25.75
-22.11
-18.27
-14.74
-11.83
-9.60
-7.96
-6.76
-5.87
-5.19
-4.63
-4.00
-3.09
-1.75
-0.01
1.87
3.50
4.58
5.06
5.17
5.27
5.74
6.69
8.04
9.57
11.07
12.48
13.91
15.49
17.37
19.53
21.84
24.06
25.94
27.29
28.06
28.32
28.13
27.51
26.32
24.32
21.25
16.91
11.18
4.03
-4.56
-14.47
-25.40
-36.73
-47.60
-57.14
-64.70
-69.99
-73.01
-73.95
-73.02
-70.45
-66.41
-61.13
-54.84
-47.78
-40.11
-31.91
-23.27
-14.35
-5.35
3.65
12.63
21.46
29.76
36.77
41.71
43.93
43.29
40.33
36.18
32.20
29.43
28.33
28.77
30.60
33.48
36.87
40.04
42.29
43.11
42.23
39.61
35.55
31.06
27.09
24.05
21.84
20.24
19.18
18.64
18.66
19.28
21.21
24.91
30.15
36.04
41.34
44.77
45.07
41.26
29.08
7.97
-18.14
-42.89
-61.59
-72.99
-78.37
-79.57
-78.12
-75.00
-70.16
-63.74
-56.48
-49.54
-43.75
-39.47
-36.50
-34.43
-32.88
-31.01
-28.25
-24.79
-21.65
-20.59
-22.73
-28.29
-36.70
-46.72
-56.49
-64.18
-68.42
-68.27
-61.51
-49.01
-32.47
-14.35
2.65
16.46
26.12
31.90
34.74
35.42
34.20
31.27
26.92
21.70
16.48
12.18
9.40
8.28
8.55
9.60
11.03
12.67
14.38
15.86
16.74
16.53
14.75
11.01
5.30
-1.81
-9.18
-15.58
-20.25
-22.84
-23.62
-23.40
-23.22
-23.94
-25.88
-28.33
-30.03
-29.70
-26.35
-19.74
-10.69
-0.87
8.24
14.03
15.28
13.21
9.02
3.90
-1.29
-6.16
-10.62
-14.74
-18.56
-21.82
-24.20
-25.62
-26.06
-25.88
-25.93
-27.49
-31.93
-40.04
-51.32
-63.87
-75.08
-82.25
-83.65
-79.21
-70.52
-60.14
-50.72
-43.95
-40.41
-39.78
-41.27
-43.98
-47.04
-49.30
-49.19
-44.76
-34.39
-17.68
3.90
27.32
49.00
66.17
77.81
84.65
88.39
90.70
92.52
93.86
94.15
92.76
89.30
83.78
76.43
67.73
58.22
48.49
39.12
30.64
23.53
18.19
14.84
13.20
12.49
11.66
9.76
6.25
1.16
-5.10
-11.91
-18.51
-24.28
-28.54
-30.38
-28.68
-22.61
-12.01
2.45
19.45
37.73
55.56
71.22
83.42
91.72
96.53
98.98
100.51
102.40
105.88
110.51
114.69
116.63
115.44
111.54
106.27
101.19
97.17
94.58
91.60
85.31
73.30
54.94
31.62
6.18
-17.98
-42.69
-64.39
-77.53
-78.88
-70.42
-57.62
-46.62
-41.93
-45.11
-54.53
-64.57
-72.01
-75.27
-74.66
-71.94
-69.56
-69.56
-72.65
-78.04
-83.49
-86.61
-86.07
-81.83
-74.67
-65.72
-56.04
-46.24
-36.49
-26.37
-16.03
-6.14
2.29
8.28
10.93
9.48
3.34
-7.89
-23.82
-43.18
-63.10
-79.10
-86.00
-79.79
-59.72
-29.47
3.61
30.95
45.84
45.93
33.96
16.34
0.43
-8.22
-7.31
2.21
17.41
34.90
51.87
66.41
77.29
83.62
84.63
79.86
69.48
54.74
37.89
21.74
8.87
0.85
-2.18
-1.35
1.61
5.09
8.12
10.31
11.39
10.72
7.09
-0.90
-14.14
-32.25
-53.38
-74.54
-92.47
-104.69
-110.07
-109.00
-102.95
-93.80
-83.24
-72.33
-61.55
-51.00
-40.70
-30.82
-21.68
-13.66
-6.98
-1.62
2.68
6.25
9.23
11.49
12.71
12.58
10.98
8.13
4.47
0.50
-3.42
-7.13
-10.57
-13.72
-16.49
-18.69
-20.06
-20.31
-19.24
-16.70
-12.73
-7.55
-1.54
4.82
11.11
16.98
22.20
26.57
29.93
32.17
33.34
33.66
33.50
33.21
32.95
32.68
32.18
31.16
29.43
26.91
23.65
19.84
15.75
11.75
8.17
5.24
2.95
1.10
-0.64
-2.53
-4.70
-7.09
-9.52
-11.78
-13.63
-14.81
-14.98
-13.81
-11.11
-6.95
-1.70
4.07
9.68
14.56
18.30
20.67
21.60
21.17
19.63
17.38
14.90
12.61
10.72
9.08
7.34
5.07
2.04
-1.65
-5.56
-9.05
-11.59
-12.88
-13.00
-12.26
-11.03
-9.55
-7.90
-5.99
-3.75
-1.22
1.43
3.96
6.21
8.12
9.78
11.34
12.87
14.37
15.75
16.85
17.56
17.82
17.64
17.10
16.31
15.39
14.43
13.50
12.59
11.68
10.76
9.79
8.77
7.70
6.55
5.32
3.96
2.45
0.76
-1.06
-2.97
-4.86
-6.62
-8.19
-9.58
-10.88
-12.25
-13.88
-15.93
-18.44
-21.33
-24.36
-27.19
-29.41
-30.68
-30.74
-29.58
-27.34
-24.36
-21.00
-17.58
-14.32
-11.27
-8.37
-5.49
-2.55
0.48
3.53
6.49
9.20
11.53
13.38
14.68
15.45
15.80
15.86
15.83
15.95
16.34
16.94
17.57
17.98
17.98
17.56
16.81
15.83
14.82
13.86
12.96
12.09
11.20
10.25
9.29
8.34
7.43
6.68
6.13
5.59
4.74
3.33
1.32
-0.92
-2.87
-4.07
-3.82
-1.93
1.09
4.36
7.20
9.24
10.92
12.78
15.06
18.63
23.59
29.09
33.88
37.20
38.74
39.47
40.22
41.14
43.47
47.46
52.28
56.71
60.30
62.86
65.75
69.73
74.51
81.48
91.27
103.51
117.00
130.59
142.64
153.50
163.91
160.92
138.11
97.48
46.70
-8.33
-59.92
-111.25
-160.37
-200.69
-224.95
-224.41
-195.41
-141.49
-71.21
5.89
81.01
148.33
202.24
236.69
248.22
235.54
200.56
148.68
88.09
27.08
-26.26
-66.53
-91.44
-100.68
-97.40
-87.91
-79.75
-78.45
-85.36
-95.73
-101.02
-92.28
-63.34
-14.30
47.71
110.55
160.89
187.99
186.90
158.64
108.85
45.48
-23.74
-92.46
-155.52
-208.32
-246.90
-268.65
-273.80
-265.95
-251.13
-235.48
-222.83
-213.41
-204.51
-192.36
-174.24
-149.85
-121.14
-91.27
-63.21
-38.88
-18.93
-3.18
8.77
17.17
21.93
22.93
20.24
14.33
6.09
-3.38
-12.95
-21.66
-28.79
-33.86
-36.62
-37.06
-35.39
-32.02
-27.41
-21.97
-15.99
-9.62
-2.94
3.93
10.76
17.19
22.90
27.71
31.68
34.92
37.53
39.49
40.75
41.32
41.21
40.49
39.23
37.57
35.59
33.40
31.10
28.83
26.69
24.49
21.94
18.95
15.84
13.14
11.35
10.67
10.97
11.84
12.33
11.75
10.38
9.62
11.13
15.85
23.48
32.68
41.60
47.56
48.73
45.53
40.82
38.26
40.30
47.09
56.73
66.11
70.42
66.04
53.27
36.89
23.38
17.18
18.69
24.52
29.19
24.98
5.64
-30.68
-80.68
-138.11
-196.11
-247.18
-282.45
-280.26
-226.04
-126.90
-13.37
79.43
131.13
140.82
121.28
90.64
64.55
48.29
38.85
31.03
22.27
15.95
17.14
28.70
51.72
86.04
126.81
166.07
195.66
210.31
208.56
192.21
163.75
124.17
79.90
37.16
-0.07
-29.91
-51.40
-64.75
-72.53
-82.12
-100.93
-132.13
-174.59
-222.68
-267.26
-298.08
-307.51
-277.99
-208.67
-116.58
-25.40
48.05
98.25
126.83
139.30
140.40
133.18
117.90
96.01
71.21
47.20
26.03
7.92
-8.10
-23.09
-37.17
-51.24
-64.76
-75.40
-80.62
-79.35
-72.53
-62.23
-50.67
-39.33
-29.91
-22.81
-16.90
-10.45
-2.30
7.56
18.32
28.73
37.74
44.17
47.52
48.22
47.18
45.21
42.69
39.72
36.28
32.52
28.58
24.75
21.39
18.75
16.76
15.04
13.10
10.55
7.29
3.53
-0.42
-4.17
-7.47
-10.20
-12.37
-14.10
-15.49
-16.66
-17.66
-18.51
-19.21
-19.67
-19.75
-19.28
-18.15
-16.31
-13.93
-11.29
-8.76
-6.69
-5.21
-4.28
-3.75
-3.43
-3.23
-3.17
-3.29
-3.56
-3.82
-3.83
-3.39
-2.48
-1.24
0.04
1.07
1.71
1.99
2.07
2.20
2.53
3.11
3.84
4.57
5.09
5.25
5.03
4.52
3.95
3.57
3.62
4.22
5.37
6.91
8.60
10.11
11.19
11.64
11.39
10.57
9.36
8.00
6.66
5.41
4.23
3.07
1.92
0.83
-0.12
-0.91
-1.58
-2.25
-3.02
-3.95
-5.04
-6.27
-7.63
-9.22
-11.09
-13.21
-15.39
-17.23
-18.34
-18.41
-17.42
-15.59
-13.35
-11.15
-9.29
-7.89
-6.82
-5.82
-4.62
-3.01
-1.04
1.09
3.05
4.52
5.33
5.57
5.51
5.53
5.91
6.74
7.91
9.20
10.45
11.57
12.62
13.71
14.94
16.35
17.88
19.41
20.79
21.87
22.60
23.01
23.20
23.28
23.30
23.19
22.77
21.86
20.37
18.37
16.06
13.64
11.22
8.81
6.27
3.48
0.35
-3.12
-6.85
-10.77
-14.78
-18.79
-22.63
-26.09
-28.92
-30.88
-31.82
-31.73
-30.69
-28.89
-26.61
-24.06
-21.43
-18.86
-16.37
-13.97
-11.65
-9.36
-7.06
-4.73
-2.34
0.08
2.48
4.74
6.76
8.41
9.65
10.52
11.17
11.77
12.54
13.67
15.29
17.40
19.89
22.51
24.88
26.56
27.18
26.50
24.52
21.44
17.59
13.37
9.04
4.77
0.63
-3.36
-7.17
-10.82
-14.30
-17.67
-20.92
-23.94
-26.54
-28.41
-29.36
-29.39
-28.74
-27.79
-26.89
-26.14
-25.37
-24.24
-22.47
-20.01
-17.05
-13.92
-10.88
-8.06
-5.39
-2.75
-0.08
2.59
5.14
7.47
9.55
11.41
13.11
14.64
15.94
16.93
17.57
17.91
18.06
18.08
18.02
17.78
17.25
16.32
14.96
13.27
11.43
9.68
8.18
6.98
6.02
5.20
4.39
3.59
2.86
2.30
1.97
1.83
1.73
1.46
0.84
-0.18
-1.50
-2.85
-3.91
-4.30
-3.78
-2.29
0.01
2.78
5.65
8.33
10.71
12.82
14.68
16.25
17.38
17.89
17.74
17.04
16.07
15.13
14.31
13.56
12.69
11.54
10.08
8.46
6.91
5.58
4.48
3.49
2.43
1.15
-0.39
-2.13
-3.88
-5.43
-6.62
-7.36
-7.70
-7.78
-7.78
-7.78
-7.76
-7.60
-7.20
-6.57
-5.78
-4.97
-4.21
-3.51
-2.82
-2.17
-1.68
-1.55
-1.96
-2.89
-4.11
-5.20
-5.74
-5.43
-4.26
-2.38
-0.11
2.21
4.36
6.18
7.66
8.78
9.56
9.96
9.94
9.51
8.80
8.04
7.49
7.34
7.56
7.92
8.15
8.08
7.78
7.50
7.53
7.98
8.73
9.43
9.76
9.60
9.07
8.48
8.11
8.07
8.24
8.36
8.19
7.62
6.74
5.75
4.89
4.28
3.91
3.64
3.28
2.73
1.97
1.04
-0.04
-1.31
-2.85
-4.70
-6.77
-8.81
-10.43
-11.30
-11.25
-10.42
-9.17
-7.94
-7.04
-6.55
-6.31
-6.03
-5.51
-4.68
-3.68
-2.67
-1.82
-1.12
-0.48
0.23
1.06
1.99
2.90
3.71
4.42
5.09
5.80
6.60
7.42
8.11
8.50
8.47
8.02
7.27
6.38
5.50
4.73
4.07
3.49
2.91
2.26
1.54
0.76
-0.01
-0.69
-1.25
-1.67
-2.03
-2.46
-3.11
-4.06
-5.23
-6.42
-7.32
-7.67
-7.32
-6.27
-4.67
-2.72
-0.67
1.28
2.96
4.28
5.20
5.78
6.13
6.37
6.58
6.78
6.91
6.90
6.68
6.23
5.59
4.91
4.41
4.32
4.75
5.65
6.77
7.77
8.36
8.44
8.10
7.58
7.06
6.59
6.09
5.47
4.72
3.97
3.40
3.19
3.31
3.59
3.76
3.64
3.21
2.62
2.08
1.71
1.49
1.30
0.98
0.48
-0.13
-0.72
-1.21
-1.61
-2.08
-2.81
-3.88
-5.19
-6.46
-7.34
-7.51
-6.84
-5.38
-3.38
-1.20
0.85
2.55
3.81
4.67
5.26
5.70
6.10
6.46
6.75
6.89
6.86
6.69
6.43
6.15
5.86
5.53
5.09
4.56
4.04
3.67
3.58
3.73
3.96
4.05
3.84
3.34
2.70
2.10
1.64
1.27
0.88
0.34
-0.37
-1.15
-1.91
-2.57
-3.11
-3.56
-3.95
-4.29
-4.59
-4.90
-5.27
-5.78
-6.42
-7.11
-7.68
-7.99
-7.97
-7.66
-7.22
-6.86
-6.75
-6.96
-7.43
-7.97
-8.31
-8.24
-7.61
-6.46
-4.95
-3.29
-1.73
-0.46
0.42
0.91
1.13
1.26
1.47
1.86
2.43
3.07
3.65
4.05
4.25
4.33
4.36
4.43
4.55
4.71
4.92
5.21
5.63
6.19
6.80
7.28
7.43
7.12
6.36
5.30
4.18
3.18
2.38
1.75
1.15
0.48
-0.30
-1.13
-1.92
-2.55
-2.98
-3.21
-3.32
-3.40
-3.52
-3.76
-4.10
-4.52
-4.97
-5.46
-6.03
-6.71
-7.48
-8.15
-8.47
-8.16
-7.12
-5.46
-3.49
-1.61
-0.13
0.86
1.50
2.03
2.69
3.55
4.49
5.27
5.70
5.72
5.45
5.11
4.90
4.91
5.13
5.45
5.78
6.07
6.32
6.54
6.74
6.87
6.91
6.81
6.54
6.07
5.42
4.61
3.77
3.04
2.52
2.23
2.06
1.87
1.56
1.14
0.65
0.12
-0.50
-1.26
-2.13
-2.99
-3.61
-3.86
-3.81
-3.72
-3.95
-4.70
-5.91
-7.24
-8.32
-8.89
-8.94
-8.63
-8.10
-7.34
-6.16
-4.37
-1.93
0.85
3.48
5.38
6.17
5.79
4.47
2.65
0.70
-1.15
-2.88
-4.55
-6.19
-7.67
-8.82
-9.47
-9.54
-9.11
-8.33
-7.38
-6.35
-5.30
-4.24
-3.16
-2.10
-1.07
-0.12
0.75
1.47
2.02
2.41
2.69
2.98
3.37
3.93
4.57
5.16
5.62
5.97
6.43
7.25
8.52
9.94
10.85
10.42
8.04
3.59
-2.45
-9.21
-15.73
-21.26
-25.39
-27.82
-28.29
-26.51
-22.22
-15.49
-6.85
2.68
11.83
19.38
24.47
26.77
26.43
23.97
20.08
15.46
10.69
6.28
2.58
-0.12
-1.72
-2.26
-1.99
-1.30
-0.68
-0.54
-1.15
-2.53
-4.48
-6.71
-8.90
-10.83
-12.49
-14.06
-15.95
-18.71
-22.85
-28.69
-36.15
-44.68
-53.27
-60.73
-65.98
-68.50
-68.43
-66.55
-63.89
-61.24
-58.72
-55.64
-50.68
-42.45
-30.19
-14.19
4.11
22.40
38.18
49.46
55.28
55.96
52.97
48.49
44.65
42.86
43.25
44.62
44.88
41.93
34.65
23.56
10.96
0.24
-5.23
-3.40
5.56
19.23
33.67
44.82
49.85
47.96
40.29
29.19
17.09
5.82
-3.68
-11.05
-16.13
-18.69
-18.54
-15.85
-11.38
-6.42
-2.44
-0.52
-0.89
-2.72
-4.38
-4.00
-0.19
7.39
17.90
29.67
40.76
49.55
55.10
57.26
56.53
53.96
50.89
48.68
48.39
50.43
54.42
59.22
63.27
64.99
63.15
57.14
47.04
33.67
18.53
3.62
-8.94
-17.47
-21.24
-20.70
-17.33
-13.14
-10.01
-9.17
-11.05
-15.34
-21.29
-27.99
-34.51
-39.96
-43.59
-44.85
-43.62
-40.20
-35.32
-29.84
-24.53
-19.76
-15.55
-11.71
-8.02
-4.48
-1.25
1.40
3.31
4.49
5.15
5.57
6.00
6.50
7.03
7.47
7.75
7.88
7.90
7.86
7.75
7.47
6.86
5.84
4.37
2.60
0.73
-0.96
-2.22
-2.89
-2.91
-2.33
-1.31
-0.08
1.12
2.05
2.53
2.46
1.88
0.86
-0.49
-2.10
-3.94
-6.00
-8.22
-10.46
-12.55
-14.33
-15.69
-16.56
-16.91
-16.69
-15.84
-14.41
-12.56
-10.64
-9.08
-8.20
-8.11
-8.61
-9.34
-9.93
-10.18
-10.15
-10.06
-10.21
-10.76
-11.71
-12.87
-13.92
-14.56
-14.55
-13.74
-12.13
-9.88
-7.26
-4.67
-2.55
-1.22
-0.84
-1.30
-2.31
-3.46
-4.37
-4.87
-4.96
-4.90
-5.03
-5.62
-6.77
-8.34
-9.98
-11.32
-12.12
-12.35
-12.17
-11.73
-11.07
-10.06
-8.51
-6.29
-3.46
-0.27
2.94
5.86
8.31
10.27
11.75
12.77
13.30
13.26
12.60
11.39
9.82
8.20
6.88
6.06
5.73
5.61
5.25
4.13
1.98
-1.20
-5.05
-8.94
-12.24
-14.48
-15.55
-15.73
-15.51
-15.42
-15.76
-16.54
-17.40
-17.90
-17.59
-16.30
-14.10
-11.32
-8.37
-5.60
-3.15
-0.97
1.07
3.11
5.10
6.83
8.04
8.53
8.24
7.31
6.01
4.56
3.11
1.60
-0.06
-2.00
-4.24
-6.67
-9.14
-11.45
-13.43
-14.88
-15.58
-15.32
-14.03
-11.88
-9.34
-7.07
-5.65
-5.42
-6.25
-7.60
-8.79
-9.24
-8.70
-7.37
-5.74
-4.39
-3.70
-3.74
-4.24
-4.71
-4.74
-4.12
-2.94
-1.46
0.05
1.41
2.58
3.55
4.24
4.47
4.04
2.92
1.26
-0.52
-1.98
-2.76
-2.69
-1.83
-0.40
1.28
2.90
4.16
4.84
4.79
4.03
2.72
1.18
-0.26
-1.33
-1.94
-2.13
-2.10
-2.04
-2.10
-2.34
-2.73
-3.22
-3.79
-4.46
-5.30
-6.32
-7.46
-8.58
-9.48
-10.02
-10.21
-10.18
-10.17
-10.29
-10.52
-10.69
-10.56
-9.99
-8.97
-7.58
-5.94
-4.13
-2.21
-0.19
1.88
3.97
6.02
8.00
9.88
11.63
13.15
14.34
15.11
15.46
15.48
15.29
14.99
14.61
14.13
13.51
12.75
11.90
11.03
10.19
9.39
8.56
7.66
6.66
5.60
4.55
3.58
2.71
1.89
1.07
0.19
-0.76
-1.72
-2.62
-3.40
-4.03
-4.55
-4.98
-5.35
-5.69
-6.00
-6.32
-6.69
-7.16
-7.81
-8.72
-9.87
-11.15
-12.31
-13.08
-13.22
-12.66
-11.44
-9.78
-7.90
-5.99
-4.14
-2.34
-0.59
1.02
2.39
3.41
4.11
4.61
5.14
5.89
6.89
8.01
8.99
9.64
9.90
9.85
9.70
9.57
9.47
9.30
8.89
8.15
7.12
6.00
5.06
4.54
4.57
5.10
5.88
6.57
6.87
6.63
5.89
4.87
3.85
3.02
2.41
1.87
1.18
0.15
-1.26
-2.97
-4.79
-6.55
-8.12
-9.47
-10.66
-11.77
-12.90
-14.10
-15.35
-16.55
-17.53
-18.09
-18.06
-17.32
-15.91
-14.00
-11.86
-9.79
-8.03
-6.68
-5.66
-4.79
-3.86
-2.74
-1.47
-0.17
0.97
1.80
2.29
2.47
2.48
2.41
2.36
2.39
2.51
2.66
2.75
2.67
2.35
1.83
1.23
0.69
0.31
0.06
-0.16
-0.45
-0.84
-1.28
-1.70
-2.06
-2.42
-2.83
-3.34
-3.87
-4.28
-4.46
-4.38
-4.13
-3.91
-3.89
-4.11
-4.50
-4.91
-5.14
-5.07
-4.62
-3.77
-2.54
-0.98
0.81
2.66
4.35
5.70
6.60
7.06
7.17
7.08
6.87
6.62
6.39
6.21
6.17
6.31
6.66
7.14
7.63
7.99
8.13
8.04
7.83
7.60
7.42
7.24
6.97
6.49
5.77
4.85
3.86
2.92
2.10
1.40
0.76
0.13
-0.56
-1.37
-2.35
-3.51
-4.80
-6.11
-7.28
-8.18
-8.81
-9.31
-9.90
-10.76
-11.89
-13.08
-13.98
-14.22
-13.54
-11.95
-9.62
-6.85
-3.93
-1.05
1.65
4.11
6.23
7.91
9.10
9.85
10.35
10.81
11.42
12.21
13.07
13.78
14.17
14.15
13.82
13.37
13.02
12.93
13.12
13.47
13.79
13.91
13.79
13.48
13.13
12.84
12.62
12.34
11.84
10.95
9.67
8.11
6.47
4.95
3.63
2.49
1.43
0.39
-0.60
-1.50
-2.28
-2.98
-3.75
-4.67
-5.79
-7.04
-8.32
-9.54
-10.71
-11.86
-13.01
-14.18
-15.36
-16.54
-17.76
-19.04
-20.28
-21.24
-21.61
-21.12
-19.72
-17.58
-14.99
-12.28
-9.64
-7.16
-4.87
-2.83
-1.12
0.17
1.00
1.47
1.75
2.04
2.49
3.12
3.82
4.38
4.54
4.18
3.32
2.20
1.19
0.59
0.55
0.98
1.66
2.25
2.59
2.65
2.58
2.58
2.81
3.34
4.07
4.82
5.36
5.52
5.15
4.22
2.82
1.11
-0.65
-2.28
-3.62
-4.66
-5.49
-6.29
-7.28
-8.58
-10.21
-11.98
-13.59
-14.71
-15.10
-14.72
-13.68
-12.17
-10.36
-8.29
-5.93
-3.24
-0.29
2.71
5.47
7.75
9.45
10.65
11.57
12.43
13.35
14.32
15.17
15.71
15.84
15.57
15.09
14.60
14.31
14.26
14.35
14.36
14.07
13.39
12.32
11.03
9.64
8.24
6.83
5.35
3.82
2.33
1.07
0.20
-0.19
-0.21
-0.09
-0.10
-0.39
-1.02
-1.93
-2.99
-4.11
-5.21
-6.25
-7.20
-8.14
-9.16
-10.39
-11.88
-13.59
-15.35
-16.93
-18.08
-18.62
-18.37
-17.21
-15.07
-12.04
-8.40
-4.57
-1.01
1.97
4.30
6.08
7.48
8.63
9.60
10.43
11.25
12.19
13.30
14.48
15.49
16.05
16.00
15.39
14.43
13.40
12.53
11.95
11.68
11.60
11.53
11.28
10.71
9.85
8.85
7.98
7.41
7.13
6.91
6.46
5.58
4.34
2.98
1.79
0.92
0.35
-0.10
-0.57
-1.06
-1.48
-1.72
-1.80
-1.87
-2.12
-2.70
-3.56
-4.55
-5.47
-6.22
-6.86
-7.54
-8.40
-9.45
-10.49
-11.20
-11.25
-10.46
-8.88
-6.74
-4.35
-1.97
0.25
2.29
4.12
5.70
6.88
7.53
7.62
7.32
6.90
6.64
6.70
7.02
7.34
7.37
6.90
5.90
4.51
2.98
1.58
0.49
-0.21
-0.59
-0.76
-0.89
-1.13
-1.54
-2.16
-2.90
-3.65
-4.32
-4.86
-5.28
-5.65
-6.04
-6.45
-6.84
-7.14
-7.32
-7.40
-7.47
-7.56
-7.68
-7.77
-7.72
-7.48
-7.11
-6.78
-6.70
-7.05
-7.87
-9.09
-10.54
-12.01
-13.30
-14.20
-14.52
-14.11
-12.92
-11.06
-8.74
-6.26
-3.86
-1.72
0.12
1.69
3.12
4.53
6.06
7.75
9.54
11.24
12.62
13.50
13.91
14.07
14.25
14.64
15.20
15.71
15.90
15.58
14.78
13.64
12.36
11.02
9.61
8.05
6.31
4.48
2.72
1.16
-0.11
-1.14
-2.02
-2.81
-3.58
-4.39
-5.30
-6.38
-7.63
-8.94
-10.09
-10.90
-11.24
-11.18
-10.92
-10.69
-10.63
-10.82
-11.20
-11.74
-12.36
-12.98
-13.47
-13.67
-13.38
-12.52
-11.09
-9.25
-7.24
-5.34
-3.76
-2.56
-1.64
-0.81
0.13
1.22
2.37
3.40
4.21
4.85
5.47
6.22
7.14
8.16
9.17
10.14
11.14
12.26
13.48
14.61
15.39
15.62
15.33
14.74
14.19
13.91
13.90
13.96
13.81
13.26
12.27
10.98
9.57
8.22
7.03
6.03
5.17
4.41
3.68
2.93
2.09
1.13
0.02
-1.25
-2.60
-3.92
-5.06
-5.91
-6.40
-6.57
-6.59
-6.63
-6.84
-7.25
-7.79
-8.33
-8.76
-9.05
-9.28
-9.49
-9.66
-9.67
-9.34
-8.53
-7.22
-5.50
-3.57
-1.63
0.20
1.87
3.39
4.75
5.89
6.70
7.03
6.81
6.06
4.95
3.72
2.61
1.81
1.34
1.16
1.16
1.22
1.30
1.42
1.61
1.88
2.22
2.54
2.78
2.91
2.94
2.84
2.60
2.19
1.59
0.87
0.11
-0.60
-1.24
-1.90
-2.73
-3.83
-5.15
-6.51
-7.63
-8.31
-8.44
-8.09
-7.40
-6.54
-5.63
-4.77
-4.08
-3.63
-3.51
-3.73
-4.23
-4.92
-5.69
-6.48
-7.31
-8.23
-9.29
-10.47
-11.64
-12.59
-13.12
-13.05
-12.34
-11.09
-9.49
-7.73
-5.93
-4.11
-2.27
-0.42
1.38
2.98
4.23
5.05
5.49
5.73
5.99
6.43
7.05
7.72
8.22
8.35
8.09
7.56
6.99
6.61
6.50
6.56
6.60
6.44
6.06
5.58
5.19
5.03
5.08
5.14
4.98
4.44
3.53
2.39
1.20
0.07
-0.98
-1.99
-2.98
-3.94
-4.82
-5.61
-6.33
-7.03
-7.76
-8.47
-9.10
-9.62
-10.04
-10.49
-11.08
-11.88
-12.78
-13.60
-14.07
-14.02
-13.38
-12.16
-10.43
-8.25
-5.75
-3.09
-0.53
1.66
3.31
4.44
5.26
6.05
7.06
8.29
9.61
10.77
11.64
12.21
12.61
12.95
13.22
13.34
13.19
12.74
12.10
11.45
10.98
10.77
10.77
10.82
10.75
10.45
9.90
9.18
8.42
7.73
7.20
6.82
6.54
6.29
5.99
5.65
5.38
5.28
5.42
5.73
6.01
6.05
5.75
5.16
4.48
3.90
3.47
3.06
2.41
1.31
-0.28
-2.19
-4.07
-5.62
-6.73
-7.51
-8.27
-9.35
-10.97
-13.10
-15.44
-17.56
-19.04
-19.66
-19.48
-18.77
-17.86
-16.96
-16.05
-15.00
-13.69
-12.13
-10.51
-9.01
-7.72
-6.55
-5.33
-3.97
-2.51
-1.16
-0.13
0.49
0.80
1.04
1.40
1.96
2.66
3.37
3.96
4.38
4.64
4.74
4.73
4.62
4.47
4.29
4.11
3.91
3.67
3.37
3.00
2.54
2.03
1.49
0.99
0.55
0.20
-0.12
-0.49
-1.00
-1.68
-2.54
-3.52
-4.53
-5.56
-6.62
-7.79
-9.09
-10.48
-11.83
-12.90
-13.47
-13.37
-12.53
-11.03
-9.04
-6.82
-4.64
-2.69
-1.08
0.22
1.35
2.46
3.65
4.94
6.29
7.63
8.87
10.00
10.93
11.60
11.89
11.74
11.24
10.60
10.08
9.89
10.06
10.43
10.70
10.66
10.19
9.40
8.47
7.62
6.98
6.52
6.13
5.70
5.17
4.61
4.18
4.02
4.16
4.47
4.74
4.75
4.40
3.72
2.83
1.87
0.88
-0.15
-1.27
-2.51
-3.84
-5.25
-6.70
-8.24
-9.85
-11.49
-12.99
-14.08
-14.51
-14.07
-12.76
-10.74
-8.31
-5.83
-3.61
-1.85
-0.65
-0.04
0.05
-0.29
-0.87
-1.55
-2.15
-2.59
-2.83
-2.86
-2.69
-2.29
-1.67
-0.97
-0.44
-0.36
-0.93
-2.10
-3.56
-4.82
-5.41
-5.06
-3.79
-1.89
0.25
2.30
4.02
5.33
6.19
6.61
6.58
6.18
5.53
4.92
4.65
4.94
5.80
6.95
7.94
8.32
7.84
6.55
4.75
2.83
1.05
-0.52
-1.97
-3.47
-5.09
-6.81
-8.52
-10.17
-11.77
-13.45
-15.29
-17.19
-18.82
-19.72
-19.46
-17.83
-15.00
-11.43
-7.72
-4.40
-1.75
0.25
1.79
3.12
4.46
5.88
7.38
8.85
10.14
11.15
11.81
12.16
12.31
12.38
12.42
12.41
12.29
12.01
11.63
11.30
11.19
11.40
11.85
12.27
12.37
11.98
11.14
10.08
9.09
8.38
7.96
7.65
7.28
6.77
6.19
5.67
5.28
4.96
4.53
3.83
2.82
1.64
0.49
-0.49
-1.28
-1.98
-2.70
-3.52
-4.41
-5.28
-6.05
-6.72
-7.37
-8.14
-9.14
-10.39
-11.77
-13.06
-14.07
-14.62
-14.73
-14.48
-13.98
-13.26
-12.22
-10.73
-8.73
-6.30
-3.74
-1.41
0.40
1.57
2.16
2.41
2.62
3.04
3.84
5.02
6.42
7.78
8.83
9.36
9.39
9.05
8.58
8.21
8.07
8.19
8.54
9.06
9.61
10.08
10.30
10.13
9.53
8.55
7.39
6.27
5.39
4.85
4.62
4.59
4.61
4.53
4.25
3.75
3.05
2.20
1.25
0.24
-0.74
-1.62
-2.34
-2.91
-3.44
-4.11
-5.01
-6.12
-7.22
-8.07
-8.55
-8.68
-8.66
-8.76
-9.14
-9.80
-10.65
-11.52
-12.20
-12.47
-12.14
-11.05
-9.22
-6.87
-4.38
-2.19
-0.59
0.40
0.95
1.36
1.85
2.47
3.12
3.66
3.98
4.11
4.21
4.45
4.93
5.61
6.36
6.98
7.38
7.56
7.66
7.78
7.92
7.99
7.79
7.25
6.43
5.55
4.86
4.50
4.45
4.51
4.53
4.40
4.18
4.01
3.98
4.06
4.08
3.88
3.31
2.39
1.28
0.22
-0.58
-0.99
-1.04
-0.88
-0.69
-0.63
-0.72
-0.92
-1.12
-1.27
-1.39
-1.55
-1.83
-2.26
-2.78
-3.23
-3.40
-3.13
-2.33
-1.04
0.65
2.60
4.67
6.71
8.54
9.93
10.68
10.71
10.12
9.18
8.26
7.62
7.34
7.27
7.13
6.71
5.95
4.94
3.87
2.85
1.91
0.95
-0.17
-1.52
-3.05
-4.64
-6.12
-7.32
-8.14
-8.56
-8.62
-8.45
-8.20
-8.02
-7.98
-8.08
-8.22
-8.28
-8.15
-7.79
-7.19
-6.41
-5.48
-4.47
-3.43
-2.48
-1.75
-1.37
-1.40
-1.79
-2.43
-3.14
-3.82
-4.47
-5.13
-5.92
-6.82
-7.70
-8.32
-8.39
-7.79
-6.62
-5.18
-3.79
-2.64
-1.71
-0.81
0.25
1.46
2.62
3.40
3.56
3.06
2.14
1.21
0.59
0.48
0.83
1.40
1.95
2.27
2.28
1.99
1.52
1.00
0.59
0.36
0.31
0.35
0.33
0.15
-0.22
-0.71
-1.21
-1.63
-1.94
-2.18
-2.31
-2.33
-2.22
-2.02
-1.91
-2.09
-2.70
-3.71
-4.90
-6.02
-6.91
-7.61
-8.27
-9.05
-9.90
-10.60
-10.85
-10.44
-9.37
-7.89
-6.31
-4.86
-3.60
-2.41
-1.09
0.44
2.08
3.55
4.57
4.93
4.63
3.87
2.93
2.15
1.71
1.68
1.95
2.35
2.70
2.90
2.98
3.08
3.38
4.02
4.94
5.91
6.61
6.74
6.19
5.14
3.95
2.98
2.48
2.43
2.58
2.63
2.35
1.68
0.71
-0.35
-1.28
-1.91
-2.16
-2.06
-1.71
-1.27
-0.82
-0.31
0.38
1.39
2.77
4.32
5.68
6.34
5.92
4.28
1.60
-1.67
-4.94
-7.62
-9.28
-9.75
-9.17
-7.97
-6.67
-5.71
-5.28
-5.31
-5.51
-5.60
-5.33
-4.64
-3.58
-2.24
-0.69
0.97
2.69
4.35
5.80
6.89
7.49
7.55
7.14
6.45
5.75
5.25
5.01
4.81
4.29
3.12
1.23
-1.10
-3.34
-5.02
-5.94
-6.27
-6.44
-6.83
-7.57
-8.43
-9.01
-8.91
-8.02
-6.48
-4.60
-2.70
-1.00
0.40
1.50
2.28
2.75
2.97
3.04
3.12
3.36
3.82
4.50
5.29
6.12
6.95
7.81
8.78
9.90
11.14
12.40
13.48
14.17
14.29
13.73
12.55
10.91
9.06
7.24
5.64
4.36
3.43
2.85
2.61
2.68
2.94
3.21
3.28
2.99
2.30
1.29
0.04
-1.38
-3.03
-4.99
-7.31
-9.93
-12.61
-15.05
-16.93
-18.03
-18.24
-17.62
-16.32
-14.58
-12.67
-10.88
-9.38
-8.22
-7.31
-6.44
-5.42
-4.15
-2.71
-1.26
-0.02
0.87
1.40
1.67
1.80
1.89
2.00
2.14
2.32
2.56
2.91
3.38
3.90
4.31
4.38
3.87
2.63
0.65
-1.86
-4.51
-6.83
-8.44
-9.22
-9.32
-9.10
-8.93
-9.00
-9.31
-9.69
-10.02
-10.24
-10.42
-10.61
-10.77
-10.75
-10.34
-9.43
-8.12
-6.70
-5.50
-4.74
-4.42
-4.32
-4.14
-3.68
-2.93
-2.07
-1.32
-0.85
-0.67
-0.65
-0.57
-0.26
0.42
1.52
3.04
4.92
7.07
9.40
11.80
14.15
16.33
18.21
19.58
20.29
20.21
19.44
18.23
16.95
15.83
14.89
13.90
12.55
10.71
8.51
6.36
4.67
3.61
3.01
2.47
1.55
0.02
-2.02
-4.22
-6.22
-7.78
-8.81
-9.36
-9.41
-8.86
-7.59
-5.59
-3.11
-0.67
1.12
1.87
1.59
0.75
0.04
0.04
0.91
2.32
3.69
4.45
4.37
3.65
2.72
2.10
2.06
2.61
3.49
4.39
5.03
5.30
5.22
4.93
4.51
4.01
3.43
2.71
1.88
1.03
0.27
-0.27
-0.59
-0.84
-1.23
-1.97
-3.07
-4.37
-5.54
-6.29
-6.51
-6.41
-6.37
-6.84
-8.06
-9.93
-12.04
-13.81
-14.75
-14.62
-13.46
-11.58
-9.36
-7.14
-5.16
-3.53
-2.30
-1.44
-0.89
-0.52
-0.18
0.28
0.96
1.82
2.71
3.39
3.69
3.59
3.27
3.07
3.35
4.27
5.73
7.31
8.54
9.04
8.78
8.04
7.27
6.81
6.74
6.79
6.58
5.79
4.42
2.73
1.11
-0.09
-0.82
-1.24
-1.71
-2.56
-3.94
-5.77
-7.71
-9.41
-10.61
-11.29
-11.60
-11.76
-11.82
-11.64
-10.87
-9.28
-6.88
-4.06
-1.37
0.71
2.02
2.73
3.25
3.92
4.85
5.90
6.83
7.48
7.85
8.05
8.19
8.30
8.31
8.17
7.97
7.90
8.22
9.03
10.22
11.41
12.14
12.02
10.93
9.05
6.75
4.39
2.29
0.57
-0.77
-1.76
-2.47
-2.95
-3.27
-3.51
-3.77
-4.19
-4.93
-6.09
-7.74
-9.78
-11.92
-13.75
-14.81
-14.73
-13.44
-11.16
-8.32
-5.35
-2.51
0.15
2.74
5.31
7.71
9.62
10.69
10.68
9.68
8.08
6.41
5.14
4.50
4.44
4.70
5.00
5.19
5.27
5.38
5.65
6.06
6.37
6.25
5.44
3.97
2.16
0.51
-0.54
-0.89
-0.77
-0.64
-0.90
-1.71
-2.89
-4.08
-4.89
-5.17
-5.04
-4.77
-4.64
-4.82
-5.33
-6.08
-6.97
-7.91
-8.81
-9.55
-10.00
-10.04
-9.59
-8.65
-7.29
-5.60
-3.71
-1.74
0.20
2.01
3.59
4.90
5.99
6.90
7.72
8.46
9.16
9.86
10.59
11.31
11.88
12.11
11.78
10.87
9.57
8.23
7.21
6.71
6.64
6.67
6.41
5.58
4.15
2.29
0.33
-1.35
-2.48
-2.89
-2.64
-1.93
-1.11
-0.57
-0.58
-1.20
-2.30
-3.64
-4.99
-6.27
-7.47
-8.60
-9.55
-10.09
-10.02
-9.30
-8.12
-6.82
-5.73
-4.95
-4.31
-3.49
-2.24
-0.53
1.45
3.34
4.92
6.13
7.14
8.18
9.37
10.62
11.69
12.31
12.33
11.77
10.79
9.58
8.27
6.90
5.50
4.08
2.76
1.67
0.96
0.73
0.96
1.52
2.22
2.88
3.33
3.49
3.32
2.83
1.98
0.78
-0.69
-2.27
-3.67
-4.68
-5.18
-5.27
-5.15
-5.04
-4.97
-4.74
-4.08
-2.74
-0.73
1.70
4.08
5.95
7.04
7.27
6.84
6.06
5.30
4.86
4.84
5.20
5.70
6.10
6.14
5.64
4.52
2.78
0.54
-1.92
-4.14
-5.55
-5.53
-3.76
-0.27
4.32
9.05
12.78
14.66
14.39
12.28
9.16
6.02
3.71
2.62
2.65
3.32
4.07
4.46
4.28
3.52
2.20
0.31
-2.25
-5.57
-9.58
-13.92
-18.02
-21.21
-22.94
-22.97
-21.46
-18.87
-15.76
-12.62
-9.70
-7.06
-4.64
-2.37
-0.25
1.67
3.34
4.78
6.10
7.45
8.87
10.23
11.27
11.68
11.27
10.10
8.46
6.80
5.56
4.93
4.84
4.97
4.86
4.14
2.65
0.52
-1.88
-4.09
-5.72
-6.57
-6.73
-6.50
-6.31
-6.56
-7.49
-9.17
-11.37
-13.71
-15.73
-17.04
-17.38
-16.74
-15.25
-13.14
-10.64
-7.95
-5.19
-2.38
0.50
3.54
6.75
10.01
13.05
15.50
17.14
18.06
18.68
19.59
21.17
23.34
25.51
26.85
26.73
25.06
22.38
19.60
17.59
16.78
17.04
17.81
18.49
18.70
18.47
18.16
18.11
18.46
18.98
19.24
18.86
17.78
16.28
14.83
13.85
13.40
13.20
12.69
11.37
9.01
5.73
1.84
-2.29
-6.46
-10.64
-14.83
-18.87
-22.35
-24.74
-25.54
-24.51
-21.82
-17.93
-13.34
-8.47
-3.50
1.47
6.26
10.49
13.57
14.93
14.24
11.67
7.74
3.18
-1.33
-5.38
-8.94
-12.33
-16.09
-20.75
-26.53
-33.25
-40.36
-47.12
-52.77
-56.78
-58.94
-59.46
-58.71
-57.02
-54.61
-51.61
-48.12
-44.27
-40.20
-36.31
-33.13
-30.86
-28.94
-26.23
-21.57
-14.36
-4.89
5.76
15.87
23.69
28.61
31.64
34.54
38.25
42.12
43.96
41.15
31.62
14.46
-8.47
-32.44
-51.49
-60.95
-58.84
-46.05
-25.77
-2.83
16.34
26.11
23.37
7.53
-20.50
-58.80
-104.64
-148.32
-176.80
-183.24
-172.09
-154.09
-137.61
-124.87
-112.99
-96.96
-76.08
-48.59
-17.42
12.56
38.01
58.69
76.62
94.39
114.03
132.51
146.76
153.00
149.55
138.37
124.44
112.50
104.61
99.89
95.88
90.73
82.82
72.15
60.36
50.54
44.36
40.82
37.20
31.01
21.68
9.67
-3.58
-16.24
-25.18
-28.86
-28.50
-26.81
-25.83
-25.78
-25.79
-24.20
-18.81
-5.13
20.03
56.22
99.77
145.21
186.10
215.72
228.33
207.73
150.11
69.92
-8.88
-68.90
-105.40
-122.73
-128.24
-128.29
-126.91
-124.18
-120.47
-118.32
-121.55
-128.97
-136.00
-136.10
-123.73
-97.21
-58.05
-11.38
30.35
57.61
68.29
66.36
58.30
49.43
42.35
38.41
37.57
38.44
39.61
39.58
36.75
29.83
18.72
4.63
-9.50
-20.93
-28.43
-31.93
-32.20
-30.24
-27.11
-23.70
-20.81
-18.79
-17.89
-18.19
-18.96
-19.08
-17.40
-13.94
-9.36
-4.30
1.28
7.98
16.44
26.98
38.97
51.30
61.54
67.88
70.27
70.67
71.69
75.38
82.77
91.45
99.77
105.01
105.26
100.51
92.66
83.95
75.74
68.01
59.47
48.45
31.19
4.65
-31.72
-75.35
-122.33
-169.05
-213.26
-254.18
-280.49
-283.64
-263.77
-230.31
-193.70
-159.42
-127.69
-96.27
-62.88
-26.57
9.28
39.62
60.22
71.53
75.82
76.71
78.33
84.06
95.62
108.54
117.59
118.07
108.67
91.60
71.39
52.32
36.42
23.05
8.76
-8.94
-29.49
-48.87
-62.00
-65.46
-59.37
-48.18
-36.28
-28.18
-25.93
-28.62
-33.16
-36.34
-36.20
-32.64
-26.85
-20.21
-13.89
-7.90
-1.18
7.28
17.47
28.01
36.66
41.42
41.75
38.82
33.91
29.80
28.90
32.16
38.69
46.34
52.58
55.54
54.24
48.80
40.19
29.48
17.60
5.26
-6.82
-17.85
-26.88
-33.18
-36.34
-36.39
-34.05
-30.49
-26.94
-24.30
-22.95
-22.69
-23.02
-23.31
-22.86
-21.12
-17.77
-12.76
-6.42
0.57
7.36
13.13
17.35
19.95
21.05
20.89
19.64
17.47
14.66
11.77
9.59
8.90
10.21
13.50
18.24
23.51
28.33
31.89
33.71
33.63
31.82
28.60
24.46
19.90
15.38
11.25
7.63
4.46
1.54
-1.35
-4.35
-7.55
-10.93
-14.40
-17.75
-20.68
-22.83
-23.84
-23.52
-21.90
-19.23
-15.91
-12.35
-8.84
-5.58
-2.64
-0.03
2.27
4.31
6.07
7.52
8.53
8.97
8.71
7.75
6.25
4.55
2.97
1.76
0.94
0.28
-0.54
-1.78
-3.53
-5.64
-7.85
-9.92
-11.77
-13.44
-14.99
-16.48
-17.86
-19.08
-20.08
-20.85
-21.34
-21.40
-20.78
-19.24
-16.67
-13.21
-9.22
-5.17
-1.43
1.84
4.70
7.36
10.07
12.96
15.97
18.89
21.44
23.26
24.13
23.94
22.78
20.87
18.51
16.02
13.64
11.55
9.82
8.40
7.09
5.66
3.85
1.58
-1.06
-3.81
-6.31
-8.32
-9.79
-10.85
-11.74
-12.66
-13.71
-14.88
-16.08
-17.17
-17.99
-18.32
-17.95
-16.75
-14.73
-12.12
-9.22
-6.32
-3.55
-0.87
1.90
4.90
8.12
11.43
14.61
17.49
20.03
22.27
24.29
26.09
27.59
28.60
28.96
28.61
27.66
26.35
24.94
23.59
22.31
20.94
19.32
17.31
14.94
12.35
9.74
7.28
5.02
2.89
0.72
-1.66
-4.33
-7.28
-10.34
-13.29
-15.87
-17.87
-19.17
-19.77
-19.73
-19.19
-18.28
-17.11
-15.78
-14.34
-12.84
-11.30
-9.72
-8.16
-6.64
-5.21
-3.96
-2.95
-2.25
-1.95
-2.04
-2.46
-3.10
-3.76
-4.25
-4.47
-4.48
-4.44
-4.57
-5.00
-5.72
-6.52
-7.19
-7.54
-7.59
-7.53
-7.60
-7.98
-8.78
-9.97
-11.47
-13.17
-14.96
-16.70
-18.21
-19.29
-19.75
-19.47
-18.44
-16.73
-14.53
-12.03
-9.45
-6.93
-4.55
-2.30
-0.14
1.99
4.11
6.16
8.07
9.76
11.18
12.35
13.28
14.00
14.47
14.63
14.45
13.90
13.06
12.01
10.84
9.56
8.10
6.39
4.39
2.16
-0.17
-2.41
-4.40
-6.04
-7.32
-8.28
-9.01
-9.62
-10.26
-11.03
-11.94
-12.87
-13.58
-13.76
-13.17
-11.75
-9.62
-7.09
-4.45
-1.94
0.35
2.44
4.42
6.35
8.28
10.17
11.97
13.57
14.82
15.58
15.75
15.36
14.57
13.67
12.94
12.55
12.52
12.69
12.86
12.89
12.78
12.59
12.37
12.16
11.91
11.58
11.21
10.88
10.73
10.81
11.09
11.44
11.72
11.80
11.66
11.37
11.00
10.65
10.33
9.96
9.40
8.49
7.17
5.44
3.49
1.55
-0.11
-1.25
-1.74
-1.56
-0.85
0.14
1.08
1.65
1.66
1.12
0.22
-0.77
-1.61
-2.23
-2.74
-3.28
-4.03
-5.02
-6.21
-7.50
-8.75
-9.86
-10.74
-11.30
-11.48
-11.31
-10.89
-10.41
-10.04
-9.91
-10.01
-10.26
-10.55
-10.86
-11.18
-11.56
-11.98
-12.40
-12.76
-13.03
-13.21
-13.37
-13.54
-13.71
-13.87
-14.03
-14.24
-14.59
-15.10
-15.73
-16.28
-16.50
-16.10
-14.94
-13.00
-10.52
-7.87
-5.43
-3.53
-2.24
-1.43
-0.83
-0.17
0.66
1.59
2.43
3.02
3.27
3.21
2.94
2.58
2.19
1.81
1.49
1.26
1.14
1.14
1.23
1.38
1.55
1.73
1.88
1.92
1.81
1.50
1.02
0.48
-0.03
-0.45
-0.83
-1.27
-1.84
-2.52
-3.21
-3.80
-4.23
-4.61
-5.12
-5.92
-7.05
-8.34
-9.45
-10.03
-9.87
-8.94
-7.41
-5.52
-3.46
-1.38
0.66
2.59
4.33
5.80
6.94
7.79
8.40
8.84
9.09
9.12
8.91
8.54
8.18
8.03
8.21
8.75
9.50
10.28
10.88
11.20
11.25
11.14
11.07
11.21
11.63
12.26
12.84
13.10
12.85
12.08
10.99
9.85
8.94
8.31
7.90
7.53
7.02
6.23
5.14
3.78
2.25
0.65
-0.89
-2.30
-3.56
-4.73
-5.90
-7.18
-8.60
-10.12
-11.63
-12.95
-13.92
-14.42
-14.38
-13.79
-12.76
-11.44
-10.04
-8.73
-7.63
-6.75
-6.05
-5.44
-4.88
-4.39
-4.04
-3.87
-3.95
-4.27
-4.80
-5.43
-6.05
-6.51
-6.67
-6.50
-6.07
-5.52
-5.03
-4.71
-4.54
-4.44
-4.31
-4.11
-3.87
-3.63
-3.44
-3.29
-3.17
-3.10
-3.19
-3.65
-4.61
-6.08
-7.89
-9.68
-11.07
-11.82
-11.93
-11.71
-11.55
-11.83
-12.69
-14.01
-15.50
-16.80
-17.68
-18.03
-17.86
-17.24
-16.27
-15.03
-13.61
-12.09
-10.55
-8.98
-7.32
-5.43
-3.25
-0.81
1.74
4.22
6.47
8.42
10.12
11.69
13.18
14.59
15.80
16.68
17.11
17.08
16.68
16.02
15.22
14.37
13.47
12.51
11.49
10.37
9.17
7.92
6.69
5.55
4.59
3.85
3.32
2.92
2.58
2.28
2.07
2.04
2.23
2.61
3.03
3.29
3.28
2.96
2.38
1.64
0.83
0.04
-0.55
-0.75
-0.37
0.67
2.22
3.94
5.41
6.34
6.65
6.45
5.97
5.42
4.88
4.38
3.92
3.51
3.19
2.99
2.84
2.61
2.14
1.33
0.20
-1.07
-2.21
-2.98
-3.24
-3.03
-2.49
-1.81
-1.17
-0.70
-0.53
-0.73
-1.28
-2.09
-2.94
-3.60
-3.94
-4.01
-3.99
-4.13
-4.55
-5.25
-6.07
-6.88
-7.64
-8.38
-9.16
-9.93
-10.53
-10.82
-10.69
-10.30
-9.94
-9.95
-10.48
-11.42
-12.35
-12.79
-12.39
-11.06
-9.04
-6.71
-4.44
-2.42
-0.66
0.93
2.48
4.09
5.79
7.60
9.52
11.48
13.31
14.79
15.73
16.05
15.85
15.30
14.64
14.00
13.43
12.94
12.51
12.15
11.83
11.48
10.98
10.19
9.06
7.62
5.96
4.18
2.35
0.52
-1.27
-2.96
-4.46
-5.79
-7.01
-8.24
-9.56
-11.00
-12.46
-13.77
-14.78
-15.36
-15.53
-15.39
-15.14
-14.99
-15.08
-15.49
-16.12
-16.78
-17.23
-17.24
-16.64
-15.32
-13.23
-10.42
-6.99
-3.16
0.79
4.58
8.02
11.03
13.64
15.92
17.88
19.47
20.62
21.30
21.54
21.47
21.26
20.98
20.65
20.24
19.73
19.13
18.54
18.02
17.62
17.31
17.06
16.87
16.81
16.94
17.31
17.84
18.39
18.82
19.07
19.15
19.13
19.02
18.73
18.15
17.22
16.02
14.78
13.79
13.19
12.94
12.77
12.37
11.55
10.34
8.94
7.62
6.56
5.69
4.82
3.68
2.13
0.21
-1.90
-3.94
-5.75
-7.29
-8.68
-10.08
-11.65
-13.42
-15.29
-17.11
-18.70
-19.94
-20.76
-21.12
-20.94
-20.16
-18.73
-16.70
-14.31
-11.84
-9.61
-7.76
-6.29
-5.06
-3.94
-2.91
-2.00
-1.31
-0.89
-0.70
-0.63
-0.53
-0.25
0.32
1.23
2.43
3.82
5.23
6.50
7.50
8.19
8.58
8.68
8.52
8.13
7.59
7.04
6.59
6.31
6.15
5.99
5.71
5.26
4.70
4.15
3.70
3.36
2.99
2.42
1.47
0.09
-1.65
-3.55
-5.38
-6.96
-8.24
-9.28
-10.24
-11.29
-12.48
-13.80
-15.14
-16.36
-17.30
-17.86
-17.92
-17.40
-16.24
-14.40
-11.96
-9.10
-6.13
-3.38
-1.12
0.53
1.68
2.58
3.52
4.70
6.07
7.42
8.46
8.99
8.99
8.66
8.25
8.00
8.02
8.27
8.60
8.90
9.07
9.12
9.07
9.00
8.96
8.97
9.01
8.97
8.72
8.14
7.26
6.19
5.14
4.23
3.46
2.71
1.76
0.52
-0.99
-2.59
-4.09
-5.39
-6.51
-7.55
-8.56
-9.53
-10.39
-11.11
-11.72
-12.28
-12.87
-13.43
-13.86
-13.95
-13.61
-12.80
-11.63
-10.23
-8.72
-7.19
-5.68
-4.22
-2.78
-1.32
0.24
1.92
3.65
5.27
6.59
7.46
7.87
7.92
7.78
7.58
7.35
7.12
6.89
6.76
6.86
7.27
7.98
8.81
9.59
10.16
10.47
10.61
10.69
10.76
10.82
10.75
10.50
10.02
9.39
8.72
8.13
7.64
7.23
6.83
6.38
5.87
5.33
4.82
4.39
4.08
3.87
3.73
3.63
3.52
3.35
3.09
2.74
2.30
1.82
1.31
0.77
0.14
-0.67
-1.70
-2.84
-3.89
-4.56
-4.67
-4.23
-3.45
-2.68
-2.14
-1.90
-1.79
-1.57
-1.07
-0.32
0.48
1.09
1.33
1.16
0.67
0.01
-0.68
-1.33
-1.92
-2.47
-2.94
-3.32
-3.57
-3.64
-3.52
-3.28
-2.99
-2.79
-2.79
-3.01
-3.45
-4.01
-4.61
-5.18
-5.71
-6.17
-6.55
-6.84
-7.01
-7.13
-7.26
-7.51
-7.94
-8.53
-9.15
-9.67
-9.98
-10.09
-10.11
-10.20
-10.49
-10.96
-11.53
-12.03
-12.38
-12.62
-12.84
-13.14
-13.53
-13.88
-13.96
-13.56
-12.60
-11.18
-9.54
-7.95
-6.59
-5.45
-4.40
-3.26
-1.96
-0.57
0.74
1.75
2.34
2.50
2.39
2.21
2.16
2.34
2.73
3.22
3.69
4.04
4.24
4.34
4.40
4.48
4.61
4.78
4.96
5.10
5.17
5.17
5.10
4.96
4.71
4.32
3.73
3.00
2.23
1.51
0.91
0.39
-0.20
-1.01
-2.15
-3.55
-5.03
-6.33
-7.33
-8.02
-8.57
-9.17
-9.96
-10.88
-11.76
-12.33
-12.38
-11.79
-10.59
-8.96
-7.13
-5.34
-3.70
-2.24
-0.89
0.44
1.80
3.16
4.46
5.63
6.69
7.66
8.58
9.45
10.22
10.82
11.19
11.37
11.46
11.58
11.78
12.08
12.37
12.58
12.63
12.54
12.42
12.38
12.50
12.77
13.15
13.53
13.86
14.06
14.13
14.07
13.84
13.40
12.73
11.79
10.65
9.40
8.18
7.09
6.19
5.44
4.73
3.88
2.72
1.21
-0.60
-2.52
-4.36
-6.01
-7.45
-8.78
-10.11
-11.54
-13.08
-14.67
-16.20
-17.59
-18.75
-19.60
-20.03
-19.97
-19.39
-18.35
-17.01
-15.60
-14.33
-13.30
-12.49
-11.79
-11.08
-10.28
-9.39
-8.45
-7.57
-6.84
-6.33
-6.05
-5.92
-5.83
-5.60
-5.09
-4.22
-3.01
-1.60
-0.20
1.03
1.99
2.68
3.16
3.48
3.63
3.63
3.47
3.22
3.00
2.90
2.89
2.85
2.58
1.90
0.79
-0.63
-2.09
-3.35
-4.23
-4.72
-4.94
-5.05
-5.22
-5.52
-5.92
-6.34
-6.68
-6.94
-7.17
-7.46
-7.90
-8.45
-8.98
-9.26
-9.14
-8.51
-7.42
-5.99
-4.34
-2.54
-0.64
1.31
3.21
4.88
6.19
7.05
7.57
7.92
8.34
8.95
9.70
10.43
10.89
10.95
10.61
10.04
9.48
9.12
9.07
9.30
9.72
10.22
10.67
10.96
10.96
10.57
9.76
8.59
7.26
6.00
4.98
4.23
3.62
3.00
2.22
1.27
0.24
-0.78
-1.69
-2.51
-3.25
-3.98
-4.72
-5.48
-6.23
-6.93
-7.51
-7.89
-8.08
-8.14
-8.23
-8.49
-9.04
-9.88
-10.92
-12.05
-13.18
-14.25
-15.14
-15.66
-15.62
-14.85
-13.39
-11.49
-9.49
-7.71
-6.29
-5.13
-4.05
-2.82
-1.37
0.24
1.86
3.33
4.54
5.43
6.00
6.30
6.42
6.49
6.67
7.09
7.75
8.58
9.41
10.08
10.51
10.76
10.91
11.07
11.24
11.35
11.31
11.15
10.97
10.93
11.14
11.53
11.96
12.25
12.31
12.20
11.99
11.74
11.41
10.89
10.16
9.27
8.40
7.69
7.21
6.98
6.96
7.11
7.40
7.74
7.95
7.85
7.27
6.18
4.71
3.08
1.52
0.23
-0.71
-1.34
-1.82
-2.41
-3.40
-4.95
-6.99
-9.20
-11.07
-12.15
-12.20
-11.30
-9.80
-8.13
-6.66
-5.57
-4.82
-4.26
-3.72
-3.09
-2.36
-1.64
-1.05
-0.71
-0.62
-0.73
-0.88
-0.94
-0.79
-0.41
0.12
0.70
1.20
1.54
1.71
1.78
1.81
1.89
2.04
2.22
2.39
2.47
2.39
2.11
1.60
0.86
-0.05
-1.06
-2.09
-3.10
-4.05
-4.91
-5.67
-6.24
-6.58
-6.69
-6.62
-6.53
-6.54
-6.75
-7.13
-7.61
-8.11
-8.54
-8.86
-9.04
-9.06
-8.94
-8.75
-8.62
-8.65
-8.89
-9.22
-9.44
-9.32
-8.71
-7.62
-6.16
-4.55
-2.98
-1.54
-0.27
0.82
1.75
2.56
3.31
4.10
5.09
6.36
7.92
9.62
11.21
12.45
13.21
13.54
13.61
13.59
13.59
13.61
13.65
13.79
14.17
14.90
15.95
17.04
17.76
17.75
16.90
15.46
13.84
12.43
11.42
10.82
10.58
10.88
12.13
14.78
18.98
24.23
29.48
33.48
35.28
34.63
31.97
28.08
23.62
18.88
13.78
8.20
2.23
-3.69
-8.98
-13.20
-16.21
-18.20
-19.47
-20.27
-20.71
-20.83
-20.70
-20.56
-20.71
-21.44
-22.86
-24.81
-26.94
-28.81
-30.00
-30.27
-29.61
-28.33
-26.90
-25.85
-25.55
-26.05
-27.03
-27.96
-28.27
-27.54
-25.64
-22.63
-18.75
-14.29
-9.59
-4.99
-0.77
2.93
6.26
9.60
13.45
18.19
23.85
30.12
36.41
42.04
46.50
49.46
50.80
50.50
48.57
45.08
40.27
34.59
28.68
23.22
18.72
15.35
12.91
10.92
8.85
6.26
2.96
-0.96
-5.21
-9.43
-13.41
-17.15
-20.84
-24.70
-28.77
-32.76
-36.19
-38.55
-39.64
-39.68
-39.18
-38.67
-38.39
-38.23
-37.86
-37.03
-35.75
-34.27
-32.93
-31.89
-31.06
-30.22
-29.22
-28.20
-27.58
-27.78
-28.95
-30.74
-32.37
-32.93
-31.74
-28.58
-23.64
-17.41
-10.39
-3.09
4.06
10.64
16.28
20.79
24.20
26.83
29.12
31.49
34.14
37.09
40.23
43.43
46.60
49.64
52.35
54.44
55.49
55.11
53.05
49.25
43.86
37.22
29.78
22.00
14.29
6.97
0.27
-5.64
-10.60
-14.49
-17.20
-18.75
-19.34
-19.34
-19.16
-19.13
-19.37
-19.76
-20.13
-20.36
-20.57
-21.01
-21.88
-23.20
-24.71
-26.04
-26.91
-27.26
-27.34
-27.46
-27.80
-28.22
-28.29
-27.47
-25.43
-22.18
-18.16
-14.04
-10.47
-7.80
-6.02
-4.83
-3.78
-2.47
-0.69
1.61
4.36
7.44
10.74
14.16
17.54
20.69
23.39
25.44
26.72
27.18
26.89
25.97
24.58
22.86
20.95
18.96
16.96
14.98
13.02
11.06
9.13
7.27
5.59
4.24
3.31
2.86
2.84
3.14
3.63
4.22
4.85
5.48
6.10
6.63
7.05
7.38
7.78
8.48
9.66
11.41
13.55
15.79
17.73
19.08
19.73
19.76
19.34
18.66
17.85
16.91
15.83
14.59
13.21
11.75
10.29
8.90
7.56
6.23
4.86
3.33
1.57
-0.49
-2.86
-5.42
-7.98
-10.29
-12.20
-13.66
-14.78
-15.72
-16.54
-17.22
-17.65
-17.74
-17.53
-17.14
-16.65
-16.07
-15.27
-14.10
-12.56
-10.86
-9.37
-8.45
-8.29
-8.82
-9.78
-10.85
-11.77
-12.43
-12.90
-13.27
-13.68
-14.17
-14.63
-14.90
-14.76
-14.04
-12.74
-10.99
-9.00
-6.99
-5.09
-3.36
-1.81
-0.48
0.61
1.45
2.13
2.82
3.71
4.89
6.25
7.46
8.14
8.01
7.04
5.48
3.73
2.15
0.93
0.02
-0.74
-1.48
-2.19
-2.75
-3.04
-3.06
-2.96
-2.91
-3.04
-3.27
-3.45
-3.43
-3.14
-2.67
-2.09
-1.46
-0.69
0.33
1.70
3.41
5.33
7.23
8.91
10.21
11.06
11.49
11.58
11.45
11.23
10.98
10.71
10.37
9.87
9.16
8.26
7.26
6.33
5.60
5.14
4.93
4.88
4.88
4.86
4.84
4.86
4.98
5.18
5.33
5.32
5.03
4.45
3.67
2.83
2.07
1.49
1.16
1.13
1.42
1.97
2.72
3.50
4.18
4.62
4.79
4.77
4.69
4.69
4.82
5.01
5.07
4.81
4.15
3.15
2.00
0.94
0.17
-0.27
-0.43
-0.39
-0.20
0.13
0.66
1.34
2.07
2.72
3.21
3.54
3.81
4.13
4.59
5.20
5.93
6.69
7.38
7.87
7.99
7.59
6.58
5.07
3.34
1.76
0.62
-0.02
-0.35
-0.72
-1.41
-2.49
-3.74
-4.85
-5.58
-5.95
-6.17
-6.55
-7.23
-8.11
-8.93
-9.39
-9.36
-8.89
-8.20
-7.51
-6.97
-6.61
-6.34
-6.04
-5.63
-5.09
-4.51
-4.10
-4.06
-4.58
-5.69
-7.27
-9.12
-10.99
-12.73
-14.28
-15.63
-16.76
-17.54
-17.81
-17.45
-16.52
-15.24
-13.92
-12.85
-12.14
-11.72
-11.38
-10.94
-10.34
-9.60
-8.75
-7.75
-6.47
-4.74
-2.49
0.12
2.81
5.21
7.09
8.36
9.11
9.49
9.58
9.37
8.77
7.69
6.18
4.42
2.68
1.17
-0.03
-1.02
-2.01
-3.12
-4.30
-5.33
-5.95
-5.96
-5.44
-4.64
-3.94
-3.57
-3.52
-3.52
-3.22
-2.33
-0.76
1.34
3.70
5.97
7.84
9.11
9.74
9.81
9.53
9.09
8.61
8.10
7.43
6.51
5.32
3.99
2.78
1.89
1.42
1.29
1.37
1.55
1.86
2.43
3.40
4.81
6.51
8.23
9.62
10.42
10.47
9.82
8.63
7.14
5.55
3.99
2.54
1.20
-0.04
-1.23
-2.38
-3.52
-4.70
-5.90
-7.07
-8.04
-8.62
-8.65
-8.08
-7.01
-5.70
-4.40
-3.33
-2.58
-2.17
-2.03
-2.08
-2.21
-2.30
-2.21
-1.85
-1.22
-0.39
0.43
1.04
1.26
1.00
0.28
-0.73
-1.82
-2.71
-3.22
-3.26
-2.94
-2.44
-2.00
-1.82
-1.91
-2.15
-2.30
-2.09
-1.32
0.10
2.05
4.30
6.57
8.57
10.12
11.19
11.81
12.10
12.13
11.95
11.55
10.89
9.92
8.61
6.93
4.91
2.65
0.27
-2.03
-4.08
-5.76
-6.98
-7.75
-8.11
-8.09
-7.76
-7.21
-6.53
-5.82
-5.11
-4.36
-3.51
-2.47
-1.20
0.30
2.01
3.89
5.89
7.93
9.90
11.66
13.06
14.01
14.43
14.36
13.86
13.06
12.12
11.16
10.22
9.25
8.17
6.91
5.52
4.16
3.05
2.34
2.08
2.15
2.41
2.73
3.05
3.38
3.73
4.06
4.32
4.46
4.45
4.35
4.18
3.95
3.63
3.21
2.69
2.07
1.36
0.50
-0.58
-1.92
-3.52
-5.24
-6.91
-8.41
-9.68
-10.78
-11.83
-12.94
-14.11
-15.26
-16.28
-17.11
-17.72
-18.16
-18.49
-18.77
-19.06
-19.40
-19.82
-20.25
-20.57
-20.57
-20.10
-19.08
-17.62
-15.90
-14.11
-12.37
-10.71
-9.08
-7.44
-5.82
-4.33
-3.06
-2.03
-1.17
-0.29
0.76
2.07
3.59
5.12
6.46
7.41
7.90
7.97
7.75
7.38
6.95
6.50
6.05
5.64
5.32
5.15
5.10
5.08
4.91
4.46
3.74
2.93
2.28
2.00
2.07
2.28
2.29
1.86
0.96
-0.23
-1.47
-2.63
-3.75
-4.97
-6.44
-8.13
-9.84
-11.28
-12.21
-12.54
-12.37
-11.85
-11.13
-10.26
-9.20
-7.89
-6.34
-4.60
-2.79
-1.01
0.68
2.28
3.82
5.32
6.76
8.08
9.21
10.13
10.84
11.36
11.70
11.91
12.02
12.09
12.18
12.34
12.61
12.96
13.28
13.46
13.42
13.13
12.72
12.34
12.12
12.11
12.21
12.26
12.15
11.85
11.45
11.05
10.72
10.46
10.18
9.83
9.34
8.75
8.03
7.16
6.13
4.93
3.65
2.39
1.22
0.12
-1.04
-2.46
-4.18
-6.11
-7.97
-9.44
-10.31
-10.56
-10.35
-9.89
-9.33
-8.64
-7.73
-6.55
-5.17
-3.78
-2.57
-1.63
-0.91
-0.24
0.50
1.32
2.12
2.79
3.33
3.84
4.50
5.43
6.56
7.69
8.54
8.88
8.66
7.99
7.09
6.18
5.39
4.68
3.95
3.03
1.75
0.05
-2.05
-4.38
-6.75
-8.89
-10.63
-11.92
-12.86
-13.63
-14.44
-15.38
-16.42
-17.39
-18.05
-18.21
-17.79
-16.82
-15.44
-13.90
-12.47
-11.41
-10.90
-10.91
-11.26
-11.67
-11.89
-11.82
-11.53
-11.23
-11.07
-11.11
-11.20
-11.15
-10.77
-9.99
-8.90
-7.66
-6.41
-5.23
-4.03
-2.65
-0.86
1.52
4.51
7.91
11.38
14.52
17.03
18.82
19.99
20.71
21.08
21.05
20.44
19.19
17.39
15.41
13.74
12.75
12.60
13.12
13.94
14.63
14.87
14.50
13.57
12.20
10.62
9.04
7.63
6.42
5.30
4.09
2.66
0.99
-0.80
-2.48
-3.88
-4.94
-5.73
-6.38
-7.05
-7.83
-8.69
-9.57
-10.33
-10.81
-10.86
-10.28
-8.94
-6.83
-4.10
-1.04
1.98
4.67
6.85
8.55
9.94
11.22
12.58
14.07
15.59
16.97
18.07
18.80
19.24
19.53
19.81
20.20
20.65
21.05
21.22
21.05
20.47
19.57
18.49
17.36
16.32
15.43
14.71
14.15
13.74
13.46
13.28
13.14
12.93
12.52
11.82
10.79
9.44
7.81
5.96
3.88
1.58
-0.89
-3.48
-6.10
-8.65
-11.11
-13.51
-15.94
-18.48
-21.17
-23.99
-26.88
-29.77
-32.53
-35.06
-37.26
-39.03
-40.32
-41.05
-41.21
-40.79
-39.80
-38.30
-36.41
-34.26
-31.94
-29.49
-26.84
-23.91
-20.60
-16.88
-12.80
-8.50
-4.21
-0.19
3.34
6.29
8.75
10.94
13.08
15.29
17.44
19.30
20.64
21.39
21.71
21.84
21.94
21.92
21.53
20.56
18.95
16.94
14.85
12.92
11.16
9.35
7.18
4.53
1.47
-1.70
-4.64
-7.09
-8.95
-10.29
-11.33
-12.38
-13.73
-15.52
-17.66
-19.79
-21.43
-22.28
-22.35
-22.04
-21.93
-22.43
-23.50
-24.63
-25.06
-24.21
-21.98
-18.83
-15.61
-13.24
-12.36
-13.21
-15.51
-18.46
-20.77
-20.84
-17.19
-9.23
2.16
14.49
24.40
28.83
26.37
17.88
6.17
-5.16
-13.08
-16.17
-14.80
-10.65
-5.84
-2.12
-0.40
-0.63
-1.94
-3.01
-2.58
0.06
4.82
10.72
16.44
20.80
23.24
24.06
24.12
24.39
25.53
27.65
30.46
33.58
36.75
39.84
42.66
44.66
45.00
42.80
37.67
30.13
21.58
13.74
7.97
4.62
3.02
1.98
0.51
-1.55
-3.59
-4.69
-4.39
-3.06
-1.75
-1.55
-2.94
-5.46
-8.07
-9.74
-10.01
-9.20
-8.02
-7.04
-6.35
-5.56
-4.17
-2.01
0.57
2.90
4.35
4.68
4.07
2.98
1.89
1.04
0.49
0.14
-0.13
-0.39
-0.68
-1.02
-1.41
-1.81
-2.17
-2.41
-2.49
-2.46
-2.41
-2.40
-2.38
-2.30
-2.12
-1.97
-2.15
-2.97
-4.53
-6.61
-8.69
-10.11
-10.40
-9.51
-7.76
-5.70
-3.85
-2.47
-1.51
-0.74
0.07
1.02
2.05
3.00
3.76
4.31
4.77
5.29
6.05
7.19
8.79
10.98
13.87
17.51
21.77
26.23
30.19
32.83
33.53
32.08
28.71
24.04
18.81
13.65
9.04
5.30
2.67
1.23
0.83
0.95
0.74
-0.68
-3.82
-8.50
-13.93
-19.01
-22.86
-25.11
-25.88
-25.48
-24.07
-21.55
-17.77
-12.87
-7.35
-1.99
2.58
6.16
8.99
11.52
14.04
16.51
18.66
20.26
21.37
22.34
23.64
25.56
28.01
30.60
32.71
33.84
33.70
32.32
29.92
26.85
23.41
19.82
16.17
12.50
8.84
5.27
1.89
-1.24
-4.18
-7.14
-10.35
-13.99
-17.98
-22.03
-25.71
-28.68
-30.90
-32.71
-34.68
-37.29
-40.67
-44.50
-48.14
-50.98
-52.70
-53.37
-53.33
-52.91
-52.26
-51.28
-49.73
-47.38
-44.19
-40.35
-36.17
-32.01
-28.15
-24.75
-21.85
-19.35
-17.10
-14.94
-12.71
-10.31
-7.66
-4.71
-1.43
2.14
5.86
9.54
12.95
15.92
18.35
20.18
21.38
21.96
21.93
21.38
20.42
19.23
17.87
16.34
14.50
12.17
9.26
5.85
2.29
-0.97
-3.49
-5.05
-5.74
-5.88
-5.86
-5.91
-6.04
-6.05
-5.66
-4.70
-3.18
-1.31
0.64
2.43
3.92
5.14
6.20
7.23
8.33
9.44
10.39
10.95
10.93
10.38
9.54
8.78
8.36
8.33
8.48
8.47
8.06
7.25
6.28
5.44
4.87
4.47
3.99
3.18
1.98
0.57
-0.84
-2.09
-3.19
-4.28
-5.46
-6.64
-7.54
-7.87
-7.44
-6.34
-4.82
-3.21
-1.73
-0.47
0.60
1.47
2.12
2.56
2.81
3.00
3.25
3.67
4.22
4.82
5.34
5.76
6.06
6.28
6.44
6.50
6.45
6.32
6.19
6.12
6.16
6.25
6.31
6.29
6.19
6.06
5.94
5.84
5.69
5.41
4.97
4.42
3.87
3.46
3.23
3.13
3.01
2.73
2.23
1.68
1.33
1.48
2.27
3.58
5.07
6.35
7.14
7.44
7.44
7.39
7.42
7.51
7.50
7.26
6.77
6.19
5.73
5.55
5.64
5.83
5.91
5.72
5.25
4.65
4.11
3.78
3.71
3.80
3.85
3.62
2.96
1.82
0.30
-1.37
-2.96
-4.25
-5.20
-5.92
-6.63
-7.56
-8.82
-10.34
-11.95
-13.41
-14.55
-15.29
-15.71
-15.91
-16.02
-16.13
-16.33
-16.68
-17.25
-18.05
-19.00
-19.91
-20.51
-20.57
-19.98
-18.79
-17.18
-15.42
-13.73
-12.24
-10.96
-9.84
-8.82
-7.85
-6.91
-6.02
-5.25
-4.64
-4.21
-3.90
-3.62
-3.29
-2.86
-2.22
-1.35
-0.26
0.93
2.11
3.15
3.93
4.45
4.78
5.16
5.76
6.56
7.33
7.75
7.55
6.60
4.99
3.06
1.47
0.60
0.34
0.16
-0.57
-2.25
-4.92
-8.25
-11.58
-13.84
-14.53
-14.14
-13.78
-14.32
-16.04
-18.57
-21.24
-23.34
-23.90
-22.81
-20.68
-17.89
-13.44
-5.32
7.95
26.19
47.45
69.84
91.50
110.84
126.68
138.08
143.48
140.29
125.92
95.07
50.65
4.05
-32.02
-52.34
-59.61
-59.72
-57.55
-55.21
-52.41
-47.42
-40.03
-32.08
-26.55
-25.20
-27.64
-31.89
-35.53
-36.79
-34.86
-32.34
-32.37
-38.03
-49.69
-64.17
-75.97
-80.03
-73.80
-57.71
-35.68
-13.04
5.21
15.72
16.69
7.50
-11.47
-37.26
-62.28
-77.67
-77.01
-59.69
-30.87
1.05
28.88
49.16
62.70
74.21
85.06
93.88
98.09
96.30
89.54
81.52
76.35
77.21
85.53
99.18
113.89
125.10
129.96
124.11
106.87
79.74
42.59
1.79
-33.72
-57.62
-69.45
-72.88
-72.27
-69.83
-66.00
-60.40
-52.37
-43.00
-34.49
-28.82
-26.56
-27.01
-28.32
-28.79
-27.49
-23.85
-18.60
-13.22
-9.02
-6.67
-6.18
-6.93
-8.17
-9.33
-9.61
-8.82
-7.35
-5.79
-4.89
-5.42
-8.17
-12.84
-18.77
-24.70
-29.49
-32.61
-34.02
-34.46
-35.08
-36.95
-40.82
-47.24
-56.43
-67.99
-80.19
-89.44
-91.28
-82.08
-61.00
-30.86
2.43
32.19
53.66
64.38
66.32
63.93
60.77
57.90
54.46
49.36
42.69
35.97
31.05
29.08
29.58
30.81
30.88
28.78
24.82
20.27
16.65
15.00
15.51
17.44
19.45
20.31
19.45
17.15
14.23
11.67
10.21
10.38
12.27
15.37
18.59
20.39
19.23
14.06
4.87
-7.01
-19.92
-31.98
-41.74
-48.40
-51.37
-50.02
-43.76
-32.66
-18.06
-2.72
9.96
17.18
17.93
13.37
6.29
-0.35
-4.60
-6.16
-6.07
-5.71
-6.07
-7.27
-8.67
-9.17
-7.92
-4.68
0.09
5.40
10.20
13.57
14.85
13.79
10.66
6.22
1.60
-1.97
-3.38
-2.06
1.49
5.37
6.87
3.57
-5.61
-19.87
-36.93
-54.03
-68.76
-78.79
-83.52
-83.92
-81.28
-75.85
-66.23
-50.30
-26.98
2.05
32.15
57.21
72.55
77.35
74.96
70.79
69.17
70.66
71.90
67.86
55.10
34.36
10.43
-10.23
-22.72
-25.96
-22.67
-17.53
-14.65
-16.01
-21.18
-28.35
-35.72
-42.41
-48.48
-54.43
-60.47
-66.16
-70.56
-72.61
-71.59
-67.43
-60.74
-52.64
-44.43
-37.20
-31.55
-27.48
-24.42
-21.50
-18.05
-13.93
-9.71
-6.38
-4.78
-5.07
-6.52
-7.70
-7.12
-3.87
2.02
9.64
17.63
24.72
30.15
33.71
35.47
35.42
33.24
28.38
20.37
9.26
-4.02
-17.77
-29.85
-38.25
-41.45
-38.70
-29.95
-15.88
2.08
21.75
40.43
55.34
64.32
66.42
62.14
53.18
41.69
29.54
17.75
6.44
-4.94
-17.14
-30.71
-45.64
-61.18
-75.85
-87.57
-94.15
-93.83
-85.81
-70.46
-49.21
-24.07
2.87
29.93
56.03
80.64
103.53
124.69
144.15
161.99
178.20
192.57
204.54
213.22
217.74
217.71
213.51
206.33
197.58
188.24
178.31
166.90
152.78
135.14
114.11
90.88
67.33
45.49
27.02
12.85
2.91
-3.87
-9.21
-15.02
-22.72
-32.72
-44.36
-56.33
-67.25
-76.18
-82.85
-87.49
-90.52
-92.39
-93.50
-94.24
-94.90
-95.68
-96.66
-97.82
-99.12
-100.56
-102.04
-103.37
-104.23
-104.32
-103.65
-102.61
-101.90
-102.21
-103.90
-106.79
-110.27
-113.37
-115.02
-114.14
-109.80
-101.48
-89.32
-74.36
-58.35
-43.29
-30.73
-21.19
-14.10
-8.28
-2.59
3.46
9.56
14.96
19.05
21.76
23.70
25.90
29.43
34.94
42.52
51.67
61.48
70.93
79.05
85.15
88.85
90.14
89.28
86.68
82.79
78.05
72.79
67.32
61.87
56.62
51.67
46.96
42.40
37.87
33.33
28.81
24.37
20.09
16.05
12.30
8.90
5.96
3.58
1.79
0.55
-0.36
-1.17
-2.08
-3.20
-4.51
-5.92
-7.43
-9.14
-11.25
-13.96
-17.29
-20.97
-24.51
-27.36
-29.12
-29.65
-29.00
-27.27
-24.47
-20.60
-15.77
-10.34
-4.87
0.06
4.15
7.56
10.83
14.53
18.98
24.01
29.01
33.15
35.76
36.48
35.39
32.83
29.16
24.73
19.75
14.48
9.28
4.61
0.91
-1.63
-3.17
-4.21
-5.29
-6.73
-8.43
-10.03
-11.14
-11.75
-12.22
-13.17
-15.03
-17.75
-20.77
-23.37
-25.04
-25.74
-25.88
-26.02
-26.50
-27.41
-28.65
-30.21
-32.20
-34.85
-38.20
-41.98
-45.68
-48.80
-51.08
-52.53
-53.36
-53.65
-53.18
-51.42
-47.84
-42.13
-34.35
-24.88
-14.17
-2.52
9.94
23.13
36.79
50.21
62.35
72.18
79.15
83.47
86.02
87.95
90.21
93.21
96.68
99.86
101.99
102.57
101.54
99.25
96.23
93.24
91.07
90.24
90.84
92.35
93.65
93.18
89.16
80.10
65.72
47.15
26.59
6.82
-9.38
-20.02
-24.39
-23.51
-19.91
-16.17
-14.31
-15.66
-20.68
-29.02
-39.81
-51.70
-63.40
-73.90
-81.43
-84.29
-82.15
-76.84
-72.77
-74.68
-84.96
-102.62
-125.45
-149.23
-167.19
-173.39
-164.88
-142.12
-108.71
-69.22
-27.29
9.44
35.02
48.77
54.07
54.58
55.36
56.08
56.27
55.90
55.12
55.21
55.36
55.29
54.34
52.09
48.28
43.67
39.07
34.81
31.43
29.27
28.18
27.32
25.74
22.56
17.84
12.06
5.71
-0.40
-5.62
-9.69
-13.03
-16.26
-19.88
-23.63
-26.84
-28.83
-29.09
-27.60
-24.82
-21.59
-18.60
-16.23
-14.34
-12.71
-11.29
-10.16
-9.40
-8.83
-8.13
-7.04
-5.65
-4.43
-4.07
-5.10
-7.41
-10.36
-13.05
-14.97
-16.28
-17.67
-19.84
-23.08
-27.10
-31.39
-35.72
-40.45
-46.34
-54.05
-63.56
-73.89
-83.44
-90.53
-94.14
-94.24
-91.73
-87.91
-83.95
-80.49
-77.52
-74.68
-71.54
-67.93
-63.88
-59.47
-54.51
-48.40
-40.25
-29.17
-14.63
3.37
24.36
47.62
72.32
97.60
122.56
146.17
167.32
184.95
198.24
206.80
210.53
209.52
203.77
193.18
177.76
157.88
134.50
109.05
83.13
58.11
34.90
13.97
-4.40
-19.95
-32.41
-41.72
-48.34
-53.41
-58.44
-64.88
-73.53
-84.20
-95.76
-106.51
-114.58
-118.39
-116.95
-110.03
-98.15
-82.43
-64.11
-44.23
-23.26
-1.18
22.28
47.20
73.16
99.23
124.20
146.97
166.76
183.14
195.84
204.51
208.70
207.96
202.20
191.87
177.97
161.90
145.08
128.62
113.10
98.67
85.15
72.31
59.96
47.95
36.13
24.21
11.75
-1.22
-14.59
-27.88
-40.35
-51.22
-59.94
-66.37
-70.86
-74.22
-76.88
-79.12
-80.95
-82.39
-83.84
-86.36
-91.21
-99.15
-109.94
-120.90
-128.88
-131.24
-127.35
-119.38
-111.76
-109.48
-116.17
-133.92
-159.70
-189.83
-219.61
-243.96
-257.81
-256.67
-237.98
-202.79
-158.66
-111.80
-71.56
-44.53
-32.26
-31.44
-36.38
-42.61
-49.23
-62.26
-81.18
-107.96
-141.64
-178.79
-215.30
-247.82
-274.45
-294.21
-310.40
-315.66
-307.79
-286.20
-253.02
-212.94
-171.47
-132.90
-70.63
-21.42
25.47
74.72
127.80
181.94
230.85
267.43
286.28
285.24
261.38
224.56
184.43
151.54
132.66
126.81
128.16
131.56
134.80
134.46
135.21
136.76
137.37
134.72
127.43
116.31
104.16
94.12
86.12
83.05
83.35
84.08
82.30
76.50
67.58
58.20
51.25
47.23
47.29
49.64
51.70
51.22
47.21
40.06
31.00
21.46
12.48
7.20
8.43
17.82
34.40
53.89
69.99
76.87
71.89
56.93
37.50
19.88
8.34
3.73
4.13
6.87
10.31
14.24
19.14
24.99
30.44
33.41
32.34
27.45
21.51
19.37
25.76
43.11
70.01
101.26
129.97
150.35
159.48
158.01
149.97
139.74
130.91
124.99
121.82
120.48
119.96
118.99
116.20
110.01
98.33
79.27
51.34
14.60
-28.59
-73.69
-115.40
-148.21
-168.16
-174.73
-171.15
-163.55
-157.71
-156.49
-159.46
-165.76
-173.19
-178.93
-180.95
-178.16
-171.45
-161.26
-147.68
-131.53
-118.28
-111.86
-111.88
-115.26
-118.28
-121.55
-126.20
-133.24
-142.61
-157.72
-176.29
-188.51
-183.00
-152.94
-104.19
-48.25
1.39
32.75
31.02
-8.62
-77.68
-160.90
-242.48
-316.16
-377.60
-423.83
-403.99
-303.04
-155.59
-11.91
84.52
146.07
179.28
186.53
172.56
144.07
105.65
68.11
47.51
56.68
100.06
166.91
243.86
317.80
381.12
425.90
449.18
453.31
442.70
422.30
391.91
353.22
306.85
256.54
204.39
152.30
101.81
53.25
6.44
-43.01
-98.11
-163.19
-235.73
-307.47
-367.47
-406.20
-418.48
-403.64
-368.43
-293.93
-188.80
-81.57
4.09
61.89
93.72
100.99
85.81
50.78
2.69
-52.30
-104.11
-141.20
-155.61
-145.61
-117.82
-73.52
-18.05
40.72
91.65
128.31
151.02
164.45
174.29
180.05
186.36
195.22
206.49
217.27
224.79
226.56
219.00
198.19
162.87
118.03
73.44
35.51
9.41
-3.26
-5.33
-3.09
-3.34
-9.81
-20.24
-30.22
-34.72
-31.07
-21.51
-12.50
-11.60
-23.70
-48.84
-78.49
-104.03
-117.48
-114.64
-98.19
-76.47
-59.13
-52.56
-57.40
-68.71
-80.68
-86.10
-78.24
-53.86
-14.27
35.10
85.98
128.96
156.17
160.95
143.75
110.86
69.73
25.40
-20.23
-67.34
-116.19
-165.39
-214.18
-257.13
-286.46
-296.96
-288.43
-264.51
-230.51
-191.42
-133.35
-62.87
2.36
50.43
80.44
95.81
99.80
95.42
86.19
76.03
65.48
56.51
51.43
50.36
50.94
50.32
46.99
41.25
34.63
26.81
19.11
13.64
11.17
10.63
10.30
9.08
6.97
4.77
2.28
0.82
1.87
6.08
12.93
21.05
29.08
36.14
41.84
45.58
47.68
49.04
50.31
51.78
52.97
53.11
51.28
46.79
39.20
29.06
17.81
7.31
-0.56
-5.02
-6.53
-6.45
-6.52
-7.93
-10.78
-13.80
-17.15
-19.01
-17.45
-11.31
-0.72
12.66
26.15
36.89
42.84
43.48
40.34
35.84
32.59
32.46
36.16
43.36
52.97
63.62
73.90
82.85
89.51
93.04
92.73
88.07
78.92
65.46
48.19
27.63
4.36
-21.36
-49.20
-78.27
-106.76
-132.02
-151.33
-162.79
-166.04
-162.06
-152.72
-139.95
-125.13
-109.15
-92.68
-76.45
-61.14
-46.96
-33.40
-19.59
-5.12
9.14
20.81
26.97
25.69
17.59
6.28
-2.75
-4.44
3.36
18.57
35.22
45.67
43.58
26.29
-4.33
-43.00
-83.03
-118.22
-144.00
-157.56
-157.38
-143.16
-116.43
-81.36
-44.79
-14.78
1.84
1.72
-13.99
-40.07
-68.98
-93.03
-106.17
-105.09
-89.61
-62.38
-28.68
4.81
32.01
49.23
55.74
52.76
42.03
24.88
3.45
-19.59
-40.49
-54.10
-54.85
-39.06
-7.13
36.01
82.63
127.03
164.98
194.06
214.03
226.52
233.57
235.96
233.21
224.86
215.21
208.80
208.21
213.86
224.83
239.22
254.25
267.22
276.81
287.38
301.63
317.60
329.84
333.01
323.96
302.05
268.86
201.53
98.52
-19.27
-123.68
-199.25
-246.07
-271.27
-282.18
-284.10
-280.10
-268.42
-249.58
-228.49
-211.78
-203.26
-201.54
-200.94
-194.07
-174.68
-138.89
-88.46
-32.76
16.27
50.10
66.75
69.73
62.14
51.61
45.11
45.46
51.32
59.88
68.58
74.94
75.97
69.46
53.61
30.21
4.00
-19.59
-35.49
-40.77
-35.54
-22.85
-7.26
7.20
18.20
25.34
28.80
29.81
29.80
29.72
29.60
28.41
24.45
15.07
2.34
-13.33
-30.73
-48.64
-66.54
-84.85
-104.56
-126.53
-151.03
-177.66
-206.68
-237.81
-270.97
-306.12
-341.66
-373.15
-393.76
-396.60
-377.58
-337.84
-281.45
-214.04
-141.33
-67.86
2.62
65.09
112.10
135.54
130.35
100.71
59.73
24.22
8.33
18.57
51.99
98.40
147.08
181.76
193.21
186.23
172.29
159.14
148.09
136.86
123.19
106.99
89.67
74.30
63.15
55.93
50.30
44.08
36.47
27.09
16.90
7.02
-0.92
-5.81
-8.08
-9.24
-10.48
-12.13
-13.69
-13.77
-11.48
-6.24
1.70
11.37
20.41
26.92
30.22
30.70
29.99
29.27
28.94
28.53
27.02
23.22
15.59
2.72
-17.68
-43.08
-67.46
-84.51
-92.36
-91.70
-83.79
-70.98
-55.30
-39.72
-26.03
-15.06
-6.84
-0.32
6.77
17.08
30.58
43.96
51.70
49.41
35.11
9.67
-23.43
-62.45
-100.10
-129.10
-146.32
-153.03
-151.80
-142.84
-126.73
-106.11
-84.53
-64.24
-47.17
-33.34
-21.47
-7.22
12.70
38.35
66.59
93.49
118.71
141.75
160.98
172.69
176.88
175.54
171.96
169.49
171.05
181.18
200.16
223.45
242.18
252.40
253.54
247.70
237.57
207.20
153.79
88.24
40.36
10.50
-5.46
-15.07
-20.88
-24.49
-26.94
-25.93
-20.58
-12.45
-6.56
-3.96
-4.39
-6.95
-11.46
-17.89
-23.93
-28.34
-31.78
-37.54
-45.76
-55.44
-64.92
-73.12
-79.40
-82.18
-81.14
-77.51
-74.31
-72.34
-71.32
-70.26
-68.33
-64.99
-59.36
-51.24
-41.31
-31.27
-21.89
-13.63
-6.66
-1.17
2.83
5.82
8.27
10.52
12.48
14.16
15.45
16.11
15.82
14.42
12.03
9.08
6.24
4.23
3.58
4.50
6.77
9.78
12.76
14.97
15.98
15.79
14.79
13.50
12.28
11.08
9.50
7.04
3.45
-1.10
-6.02
-10.52
-13.92
-15.65
-15.31
-12.71
-8.15
-2.66
1.89
3.21
-0.49
-9.50
-22.23
-35.58
-46.13
-51.51
-51.17
-46.30
-38.97
-31.07
-23.74
-17.29
-11.68
-6.96
-3.44
-1.50
-1.24
-2.33
-4.02
-5.44
-5.97
-5.49
-4.42
-3.47
-3.35
-4.43
-6.67
-9.76
-13.29
-17.10
-21.21
-25.80
-30.90
-36.30
-41.57
-46.27
-50.28
-53.88
-57.69
-62.18
-67.23
-71.91
-74.72
-74.16
-69.49
-61.05
-50.16
-38.50
-27.42
-17.44
-8.31
0.57
9.59
18.61
26.97
33.87
38.68
41.21
41.69
40.64
38.63
36.17
33.58
30.97
28.33
25.66
23.00
20.46
18.13
15.99
13.96
11.92
9.86
7.87
6.13
4.78
3.70
2.58
0.96
-1.50
-4.88
-9.02
-13.53
-18.05
-22.32
-26.24
-29.84
-33.23
-36.50
-39.69
-42.75
-45.48
-47.59
-48.65
-48.28
-46.24
-42.47
-37.20
-30.83
-23.82
-16.61
-9.52
-2.78
3.44
9.05
14.00
18.29
21.99
25.13
27.77
29.86
31.39
32.34
32.76
32.76
32.48
32.02
31.46
30.81
30.03
29.09
27.91
26.46
24.71
22.63
20.23
17.53
14.60
11.56
8.54
5.66
2.99
0.51
-1.96
-4.70
-8.08
-12.43
-17.78
-23.75
-29.44
-33.62
-35.08
-33.16
-28.00
-20.60
-12.43
-4.87
1.33
6.20
10.46
15.03
20.61
27.43
35.13
42.88
49.38
53.15
52.76
47.39
37.21
23.60
8.90
-4.40
-14.33
-20.13
-22.23
-21.84
-20.28
-18.50
-16.89
-15.42
-13.98
-12.62
-11.44
-10.69
-10.48
-10.77
-11.36
-12.03
-12.78
-14.04
-16.54
-20.86
-27.22
-35.13
-43.48
-51.03
-57.01
-61.39
-64.88
-68.49
-72.45
-76.39
-79.13
-79.21
-75.37
-67.10
-54.90
-40.18
-25.36
-11.95
-1.50
5.30
8.58
9.06
7.58
4.75
0.84
-4.90
-11.14
-17.38
-22.97
-27.37
-30.37
-32.17
-33.33
-34.62
-38.18
-42.69
-47.92
-53.07
-56.94
-58.37
-56.73
-52.33
-46.30
-42.19
-39.37
-38.81
-40.61
-44.05
-47.83
-50.55
-51.11
-36.88
-24.11
-11.37
-0.06
8.48
13.56
15.38
14.94
13.69
13.06
12.15
13.56
17.18
22.63
29.63
38.06
47.88
58.81
70.24
79.78
87.92
93.67
96.73
97.82
98.46
100.37
104.46
110.67
116.96
122.39
125.00
123.85
119.69
114.70
111.74
112.79
118.91
129.42
143.05
156.77
166.75
168.75
158.71
133.97
94.20
43.38
-10.88
-59.32
-94.72
-114.14
-119.61
-116.68
-107.80
-97.07
-87.24
-77.88
-67.53
-56.54
-47.42
-42.69
-42.50
-44.06
-43.77
-38.84
-29.17
-17.73
-8.90
-5.86
-8.96
-15.47
-21.50
-24.39
-23.26
-19.01
-13.64
-8.93
-5.59
-3.22
-0.52
4.15
11.55
21.63
33.51
45.66
56.33
64.04
65.89
57.89
39.42
14.07
-11.55
-31.34
-42.27
-44.50
-40.22
-32.25
-22.71
-12.65
-2.78
6.00
12.48
15.61
15.05
11.45
6.27
1.55
-0.72
0.40
4.39
9.65
14.26
16.76
16.74
14.41
10.68
6.80
3.71
1.70
0.41
-0.68
-1.91
-3.03
-3.29
-1.61
2.80
9.89
18.55
27.04
33.70
37.53
38.55
37.52
35.56
33.67
32.57
32.64
34.08
37.47
42.82
49.42
55.67
59.25
57.59
48.81
32.40
9.69
-16.38
-42.14
-64.12
-79.87
-88.36
-89.85
-85.32
-76.06
-63.36
-48.53
-32.84
-17.31
-2.24
13.15
30.80
53.27
82.85
120.34
164.33
211.04
255.15
291.15
314.76
323.81
318.50
301.17
275.68
246.72
218.84
195.47
177.94
165.22
154.37
141.90
125.29
103.90
78.89
52.08
24.71
-3.29
-32.96
-65.36
-100.65
-137.74
-174.97
-210.97
-245.31
-278.67
-312.45
-348.33
-387.76
-431.54
-479.18
-528.24
-573.97
-609.87
-629.20
-627.05
-602.18
-557.44
-498.83
-433.33
-366.78
-302.73
-242.43
-185.83
-132.44
-81.80
-33.40
13.46
59.56
105.20
149.71
191.35
227.73
256.71
277.20
289.51
295.01
295.51
292.49
286.78
278.59
267.82
254.53
239.14
222.50
205.76
190.14
176.67
165.87
157.49
150.28
142.31
131.31
115.44
93.91
67.23
37.13
6.12
-23.17
-48.59
-68.95
-84.35
-96.15
-106.54
-117.89
-132.18
-150.68
-173.94
-201.71
-232.82
-264.79
-293.75
-314.88
-323.70
-317.60
-296.85
-264.68
-226.16
-186.44
-149.42
-117.23
-90.56
-69.36
-53.12
-40.77
-30.31
-19.02
-4.14
15.95
40.83
67.88
93.04
112.23
122.74
123.96
117.38
105.72
91.94
78.46
66.83
57.81
51.72
48.55
48.13
50.15
54.06
59.09
64.48
69.85
75.51
82.46
91.83
104.11
118.58
133.23
145.50
153.37
156.30
155.35
152.53
149.62
147.23
144.57
139.83
131.07
116.86
96.68
71.14
42.02
12.05
-15.62
-38.27
-54.55
-64.78
-70.44
-73.12
-73.44
-70.89
-64.62
-54.34
-41.45
-28.63
-18.37
-11.53
-7.18
-3.86
-1.09
-0.22
-3.44
-12.58
-27.76
-47.04
-67.34
-86.00
-101.90
-115.24
-126.60
-135.21
-139.87
-139.71
-134.81
-125.99
-114.50
-101.55
-87.92
-74.08
-58.56
-41.06
-22.81
-5.31
11.39
28.68
48.05
70.30
94.75
123.33
155.60
188.12
216.66
239.11
255.46
266.27
272.31
273.78
276.63
283.46
291.36
295.14
292.47
285.05
276.89
273.39
278.72
302.22
345.33
398.61
446.91
478.08
486.44
471.96
439.71
348.70
194.82
14.14
-146.54
-264.25
-339.29
-378.42
-393.78
-391.13
-375.32
-344.74
-302.56
-258.12
-222.96
-202.77
-196.19
-198.51
-203.95
-208.94
-206.33
-193.79
-175.19
-156.98
-143.03
-133.95
-129.12
-127.28
-128.00
-127.56
-124.02
-118.14
-111.19
-101.87
-86.60
-62.07
-27.13
15.35
60.76
102.82
135.75
156.89
167.90
172.91
175.18
175.05
169.67
155.14
129.39
93.36
50.30
3.86
-43.36
-89.96
-134.19
-172.32
-199.10
-207.96
-194.58
-160.77
-115.87
-73.17
-44.46
-35.51
-44.85
-66.98
-93.72
-117.49
-133.37
-139.91
-136.78
-123.46
-99.50
-58.38
-5.10
46.08
82.18
99.99
103.56
100.21
96.83
97.48
102.16
105.94
104.53
93.45
71.17
38.21
-1.48
-41.54
-75.24
-97.66
-107.78
-106.55
-96.04
-74.05
-43.01
-6.84
29.94
62.49
85.73
94.47
85.93
60.91
24.27
-17.52
-57.08
-88.47
-108.45
-116.37
-113.27
-100.02
-77.14
-45.43
-7.91
30.73
64.91
89.71
102.50
103.52
95.70
83.37
71.13
62.21
58.48
59.81
64.05
67.92
68.32
63.87
55.54
46.33
39.64
37.89
41.26
47.51
53.06
54.64
50.78
42.24
31.45
21.22
13.69
9.61
8.12
7.46
5.68
1.46
-5.38
-13.84
-22.02
-28.19
-31.71
-33.84
-36.95
-43.63
-55.76
-73.59
-95.30
-116.99
-133.92
-142.04
-139.67
-127.35
-107.92
-86.24
-67.75
-56.46
-53.04
-55.12
-58.72
-60.39
-56.90
-45.80
-26.45
-0.54
27.96
54.18
72.53
77.88
66.72
40.66
6.66
-25.69
-47.54
-53.19
-40.27
-10.52
35.42
85.54
122.73
136.88
129.03
108.68
80.66
48.05
13.26
-21.90
-54.71
-81.62
-99.62
-108.07
-109.06
-106.19
-101.65
-95.69
-86.98
-74.20
-56.15
-32.54
-5.11
22.29
44.76
58.59
62.27
56.75
44.80
30.64
19.01
13.46
15.04
22.21
31.79
40.49
45.84
46.89
44.52
41.51
41.98
49.99
68.30
94.14
119.83
135.18
133.46
113.89
80.39
39.61
-1.65
-37.64
-64.86
-83.00
-92.02
-91.97
-84.71
-73.94
-64.09
-59.52
-62.56
-73.40
-86.18
-94.81
-94.94
-86.08
-70.06
-48.80
-25.48
0.68
29.39
58.58
84.85
105.09
117.64
119.43
110.32
91.10
64.11
32.85
2.13
-22.46
-35.61
-33.86
-15.56
18.37
58.66
91.91
108.53
106.41
88.72
64.08
35.10
4.96
-23.01
-46.56
-64.40
-74.69
-77.27
-71.40
-60.22
-49.97
-45.07
-46.61
-52.18
-57.66
-59.69
-58.01
-55.16
-54.81
-60.24
-68.74
-75.39
-74.69
-62.91
-39.66
-8.39
25.14
55.34
79.13
97.61
110.24
117.36
119.42
116.77
109.85
99.55
87.22
74.55
63.39
54.65
48.85
45.70
43.84
40.58
32.06
14.98
-11.30
-43.33
-74.32
-95.65
-100.14
-84.52
-50.20
-2.88
50.51
103.65
150.61
185.42
202.80
199.63
176.10
136.13
84.53
27.28
-30.03
-84.19
-134.10
-178.16
-211.27
-225.55
-213.63
-175.66
-117.81
-51.07
10.26
52.03
65.22
49.87
12.99
-35.79
-91.87
-151.23
-208.14
-256.04
-289.51
