1604103283.00
64.000000
-0.00
-0.00
-0.00
-0.00
-0.00
-0.00
-0.00
-0.00
-0.00
-0.00
0.00
0.01
0.01
-0.00
-0.03
-0.05
-0.05
0.00
0.13
0.36
0.66
1.01
1.37
1.72
2.06
2.40
2.79
3.24
3.80
4.42
5.06
5.66
6.20
6.68
7.15
7.68
8.31
9.14
10.09
11.04
11.88
12.56
13.14
13.76
14.65
15.96
17.91
20.32
22.90
25.38
27.58
29.57
31.68
34.32
37.82
42.54
48.14
54.10
59.83
64.98
69.61
74.19
79.40
85.74
93.71
102.81
112.26
121.20
129.10
136.00
142.53
149.97
156.98
165.80
176.99
190.69
205.72
219.22
226.88
224.02
207.23
175.54
131.27
78.27
20.90
-37.48
-95.22
-152.00
-207.99
-263.06
-316.55
-367.15
-413.95
-456.11
-492.77
-522.78
-544.59
-556.52
-557.13
-545.74
-522.44
-488.53
-445.86
-396.55
-342.71
-286.26
-229.05
-172.83
-119.33
-69.98
-25.92
12.36
44.93
72.29
95.06
113.69
128.41
139.15
145.80
148.07
145.83
139.45
130.20
120.53
113.79
113.22
120.68
135.64
155.05
174.44
189.53
197.73
198.64
193.57
184.51
173.07
160.19
146.34
132.09
118.29
105.89
95.52
87.13
80.00
73.04
65.46
56.82
47.39
38.03
29.82
23.61
19.70
17.79
17.07
16.63
15.71
14.04
11.78
9.33
7.05
5.08
3.27
1.31
-1.05
-3.84
-6.78
-9.44
-11.45
-12.59
-12.92
-12.69
-12.19
-11.65
-11.25
-11.04
-10.92
-10.65
-9.89
-8.39
-6.19
-3.73
-1.72
-0.83
-1.34
-2.96
-4.98
-6.59
-7.29
-7.13
-6.52
-5.99
-5.82
-6.00
-6.32
-6.54
-6.57
-6.43
-6.06
-5.32
-4.07
-2.18
0.21
2.74
4.90
6.24
6.51
5.79
4.39
2.72
1.12
-0.20
-1.14
-1.70
-1.90
-1.79
-1.46
-1.03
-0.65
-0.40
-0.26
-0.14
0.10
0.58
1.32
2.22
3.15
3.97
4.62
5.06
5.34
5.52
5.70
5.96
6.37
6.89
7.37
7.55
7.16
6.02
4.12
1.64
-1.12
-3.85
-6.23
-7.93
-8.79
-8.76
-8.05
-7.01
-6.07
-5.58
-5.63
-6.08
-6.69
-7.25
-7.77
-8.38
-9.24
-10.31
-11.33
-11.89
-11.64
-10.50
-8.77
-6.95
-5.58
-4.97
-5.07
-5.56
-6.02
-6.09
-5.62
-4.70
-3.56
-2.46
-1.62
-1.15
-1.04
-1.23
-1.59
-1.98
-2.34
-2.64
-2.88
-3.14
-3.46
-3.89
-4.42
-4.88
-5.01
-4.56
-3.31
-1.24
1.46
4.37
7.05
9.14
10.56
11.42
11.90
12.18
12.34
12.38
12.31
12.21
11.79
11.14
10.40
9.75
9.22
8.78
8.31
7.68
6.86
5.94
5.12
4.57
4.29
4.14
3.89
3.32
2.34
1.04
-0.42
-1.82
-3.03
-4.07
-5.04
-6.03
-7.12
-8.35
-9.75
-11.35
-13.15
-15.07
-16.88
-18.22
-18.68
-17.92
-15.83
-12.54
-8.43
-3.91
0.61
4.89
8.78
12.22
15.14
17.43
18.98
19.71
19.64
18.90
17.73
16.38
15.08
13.96
13.03
12.21
11.36
10.41
9.38
8.34
7.39
6.51
5.62
4.49
2.94
0.86
-1.70
-4.53
-7.37
-9.98
-12.24
-14.18
-15.94
-17.65
-19.43
-21.27
-23.10
-24.83
-26.36
-27.57
-28.31
-28.32
-27.27
-24.86
-21.01
-15.94
-10.17
-4.38
0.82
5.09
8.37
10.79
12.51
13.62
14.13
14.08
13.60
12.92
12.31
11.92
11.75
11.61
11.25
10.57
9.66
8.77
8.16
7.95
8.05
8.14
7.86
6.97
5.44
3.45
1.30
-0.72
-2.47
-3.91
-5.14
-6.31
-7.59
-9.14
-11.09
-13.46
-16.11
-18.64
-20.52
-21.16
-20.17
-17.48
-13.43
-8.59
-3.61
1.02
5.02
8.32
10.93
12.88
14.20
14.90
15.05
14.75
14.18
13.50
12.81
12.15
11.49
10.78
9.96
9.02
8.06
7.21
6.58
6.18
5.89
5.44
4.58
3.15
1.19
-1.05
-3.24
-5.05
-6.31
-7.06
-7.52
-8.03
-8.90
-10.33
-12.33
-14.68
-16.95
-18.63
-19.20
-18.32
-15.91
-12.17
-7.53
-2.53
2.34
6.72
10.44
13.43
15.66
17.09
17.68
17.42
16.45
15.00
13.45
12.13
11.25
10.81
10.63
10.41
9.94
9.16
8.18
7.22
6.43
5.83
5.29
4.62
3.66
2.39
0.92
-0.55
-1.91
-3.10
-4.19
-5.25
-6.31
-7.35
-8.35
-9.31
-10.32
-11.41
-12.55
-13.47
-13.72
-12.84
-10.54
-6.84
-2.12
3.05
8.11
12.61
16.28
18.96
20.54
20.97
20.28
18.65
16.43
14.05
11.90
10.23
9.09
8.33
7.72
6.95
5.83
4.29
2.45
0.60
-0.92
-1.80
-1.94
-1.47
-0.64
0.22
0.89
1.25
1.25
0.83
-0.08
-1.54
-3.49
-5.74
-8.05
-10.24
-12.36
-14.64
-17.34
-20.57
-24.09
-27.35
-29.61
-30.28
-29.10
-26.19
-22.03
-17.24
-12.36
-7.80
-3.75
-0.27
2.61
4.88
6.49
7.47
7.95
8.16
8.33
8.60
8.95
9.18
9.11
8.60
7.74
6.71
5.70
4.84
4.09
3.37
2.55
1.56
0.35
-1.06
-2.65
-4.33
-5.95
-7.29
-8.18
-8.56
-8.51
-8.22
-7.95
-7.84
-7.94
-8.16
-8.42
-8.70
-9.04
-9.52
-10.19
-10.92
-11.46
-11.44
-10.56
-8.72
-6.07
-3.00
0.04
2.65
4.63
5.99
6.84
7.32
7.53
7.48
7.18
6.65
5.93
5.10
4.24
3.46
2.84
2.43
2.19
2.05
1.88
1.54
0.98
0.23
-0.62
-1.49
-2.29
-3.03
-3.72
-4.39
-5.05
-5.69
-6.25
-6.74
-7.17
-7.58
-8.01
-8.49
-9.00
-9.54
-10.11
-10.78
-11.66
-12.79
-14.09
-15.31
-16.08
-16.04
-14.99
-12.94
-10.15
-6.98
-3.81
-0.93
1.48
3.37
4.76
5.72
6.37
6.84
7.23
7.60
7.98
8.40
8.91
9.60
10.56
11.88
13.50
15.24
16.77
17.69
17.68
16.56
14.41
11.52
8.28
5.08
2.16
-0.40
-2.63
-4.57
-6.26
-7.69
-8.91
-10.01
-11.16
-12.52
-14.18
-16.10
-18.10
-19.88
-21.06
-21.27
-20.25
-17.96
-14.60
-10.59
-6.45
-2.62
0.66
3.38
5.64
7.60
9.29
10.68
11.69
12.33
12.71
13.01
13.41
14.03
14.83
15.70
16.50
17.15
17.62
17.90
17.97
17.74
17.10
15.97
14.38
12.50
10.59
8.90
7.52
6.36
5.16
3.63
1.51
-1.31
-4.81
-8.84
-13.12
-17.23
-20.66
-22.87
-23.46
-22.34
-19.78
-16.33
-12.63
-9.19
-6.28
-3.93
-2.05
-0.55
0.59
1.29
1.54
1.40
1.01
0.56
0.23
0.14
0.38
0.99
1.98
3.32
4.90
6.55
8.00
8.99
9.28
8.72
7.32
5.22
2.68
-0.00
-2.54
-4.76
-6.62
-8.23
-9.80
-11.59
-13.77
-16.34
-19.03
-21.34
-22.61
-22.26
-19.98
-15.85
-10.34
-4.14
2.03
7.66
12.49
16.43
19.51
21.68
22.92
23.19
22.56
21.20
19.35
17.25
15.06
12.86
10.70
8.65
6.86
5.47
4.62
4.33
4.47
4.83
5.16
5.26
5.11
4.81
4.54
4.48
4.69
5.08
5.45
5.51
4.97
3.59
1.22
-2.20
-6.53
-11.34
-15.98
-19.62
-21.52
-21.25
-18.86
-14.88
-10.08
-5.21
-0.78
2.99
6.05
8.41
10.05
10.93
11.17
11.08
11.14
11.79
13.31
15.61
18.32
20.95
23.05
24.40
24.96
24.90
24.47
23.93
23.51
23.33
23.28
23.10
22.34
20.60
17.66
13.60
8.80
3.73
-1.18
-5.74
-9.98
-14.06
-18.15
-22.33
-26.51
-30.50
-33.99
-36.65
-38.20
-38.52
-37.63
-35.75
-33.18
-30.22
-27.13
-24.17
-21.58
-19.61
-18.48
-18.26
-18.86
-20.00
-21.28
-22.32
-22.89
-22.94
-22.54
-21.88
-21.08
-20.23
-19.31
-18.31
-17.22
-16.13
-15.22
-14.72
-14.90
-15.97
-17.95
-20.67
-23.73
-26.69
-29.13
-30.88
-32.08
-33.05
-34.14
-35.50
-36.94
-37.93
-37.82
-36.07
-32.58
-27.69
-22.16
-16.89
-12.65
-9.83
-8.48
-8.43
-9.38
-11.11
-13.39
-16.01
-18.65
-20.89
-22.34
-22.79
-22.22
-20.83
-18.91
-16.73
-14.40
-11.87
-8.98
-5.53
-1.29
3.91
10.16
17.46
25.63
34.34
43.13
51.52
59.10
65.58
70.78
74.65
77.18
78.49
78.83
78.55
78.00
77.45
77.03
76.75
76.63
76.80
77.42
78.57
80.10
81.60
82.43
82.03
80.01
76.38
71.40
65.49
59.04
52.38
45.74
39.27
33.10
27.27
21.80
16.65
11.70
6.76
1.56
-4.16
-10.58
-17.72
-25.32
-32.90
-39.88
-45.76
-50.29
-53.55
-55.86
-57.61
-59.06
-60.27
-61.07
-61.25
-60.68
-59.42
-57.76
-56.03
-54.54
-53.44
-52.68
-52.09
-51.33
-50.07
-47.99
-44.90
-40.80
-35.89
-30.49
-24.97
-19.65
-14.73
-10.29
-6.37
-2.93
0.07
2.69
5.06
7.29
9.50
11.75
14.06
16.38
18.63
20.70
22.46
23.80
24.63
24.93
24.77
24.29
23.63
22.95
22.32
21.76
21.22
20.60
19.77
18.62
17.05
15.00
12.49
9.60
6.56
3.66
1.25
-0.40
-1.14
-1.06
-0.37
0.63
1.69
2.68
3.59
4.53
5.56
6.69
7.82
8.76
9.35
9.46
9.16
8.63
8.13
7.91
8.18
8.97
10.20
11.66
13.07
14.12
14.53
14.13
12.85
10.77
8.11
5.19
2.33
-0.21
-2.31
-4.04
-5.62
-7.32
-9.32
-11.67
-14.21
-16.70
-18.90
-20.63
-21.78
-22.25
-21.90
-20.58
-18.19
-14.77
-10.57
-5.92
-1.22
3.26
7.37
11.04
14.24
16.93
19.02
20.47
21.30
21.63
21.63
21.53
21.50
21.67
22.13
22.90
23.95
25.14
26.25
27.01
27.27
27.00
26.46
26.05
26.25
27.38
29.46
32.09
34.57
36.11
36.10
34.37
31.22
27.36
23.68
20.94
19.61
19.70
20.87
22.46
23.76
24.19
23.49
21.77
19.43
17.08
15.24
14.24
14.07
14.42
14.76
14.46
13.02
10.14
5.90
0.69
-4.88
-10.22
-15.01
-19.25
-23.20
-27.11
-31.06
-34.83
-38.04
-40.37
-41.75
-42.44
-42.91
-43.59
-44.74
-46.36
-48.24
-50.12
-51.77
-53.06
-53.90
-54.22
-53.90
-52.79
-50.85
-48.15
-44.92
-41.54
-38.35
-35.56
-33.21
-31.11
-29.02
-26.71
-24.12
-21.35
-18.61
-16.14
-14.14
-12.70
-11.80
-11.32
-11.05
-10.79
-10.38
-9.72
-8.80
-7.63
-6.25
-4.73
-3.21
-1.88
-0.95
-0.57
-0.74
-1.28
-1.94
-2.46
-2.69
-2.66
-2.53
-2.54
-2.89
-3.66
-4.79
-6.12
-7.39
-8.33
-8.77
-8.64
-8.01
-7.05
-5.96
-4.90
-3.92
-3.02
-2.18
-1.40
-0.71
-0.19
0.11
0.18
0.11
0.03
0.09
0.39
0.92
1.59
2.25
2.76
3.00
2.92
2.55
1.94
1.20
0.44
-0.22
-0.70
-0.96
-1.07
-1.07
-1.02
-0.96
-0.89
-0.86
-0.93
-1.18
-1.65
-2.32
-3.07
-3.76
-4.30
-4.66
-4.88
-5.03
-5.15
-5.24
-5.24
-5.08
-4.70
-4.07
-3.19
-2.12
-0.98
0.14
1.21
2.29
3.51
5.00
6.87
9.09
11.46
13.69
15.41
16.24
15.93
14.39
11.69
8.08
3.85
-0.66
-5.16
-9.39
-13.10
-16.14
-18.45
-20.16
-21.58
-23.12
-25.16
-27.83
-31.01
-34.37
-37.49
-40.05
-41.85
-42.79
-42.75
-41.54
-39.01
-35.05
-29.77
-23.51
-16.76
-10.05
-3.83
1.65
6.28
10.10
13.19
15.60
17.37
18.56
19.21
19.42
19.36
19.20
19.12
19.24
19.63
20.28
21.13
22.04
22.85
23.35
23.38
22.84
21.70
20.02
17.87
15.37
12.63
9.70
6.57
3.17
-0.65
-5.00
-9.87
-15.02
-19.91
-23.88
-26.33
-27.01
-26.04
-23.90
-21.11
-18.02
-14.69
-11.05
-7.02
-2.74
1.44
5.10
7.94
9.89
11.13
11.96
12.69
13.58
14.78
16.38
18.33
20.49
22.66
24.66
26.37
27.83
29.17
30.55
32.05
33.66
35.27
36.79
38.18
39.41
40.40
41.00
40.97
40.15
38.53
36.32
33.98
32.03
30.93
30.91
31.94
33.77
35.98
38.16
40.03
41.47
42.60
43.65
44.84
46.19
47.48
48.27
48.08
46.53
43.50
39.13
33.79
27.97
22.22
17.04
12.78
9.60
7.33
5.59
3.89
1.81
-0.90
-4.20
-7.93
-11.79
-15.51
-18.83
-21.57
-23.62
-24.98
-25.81
-26.35
-26.87
-27.60
-28.67
-30.03
-31.51
-32.78
-33.48
-33.24
-31.82
-29.16
-25.37
-20.73
-15.66
-10.63
-6.06
-2.29
0.47
2.17
2.87
2.70
1.75
0.14
-2.01
-4.51
-7.13
-9.72
-12.26
-14.86
-17.64
-20.60
-23.50
-26.01
-27.86
-29.07
-29.97
-31.01
-32.39
-33.88
-34.80
-34.39
-32.15
-28.19
-23.17
-18.02
-13.53
-10.04
-7.43
-5.25
-3.03
-0.47
2.56
6.02
9.84
13.95
18.17
22.21
25.64
28.01
28.97
28.41
26.44
23.33
19.42
15.04
10.46
5.94
1.71
-2.06
-5.21
-7.72
-9.57
-10.81
-11.41
-11.34
-10.57
-9.08
-6.91
-4.13
-0.86
2.79
6.69
10.66
14.47
17.80
20.36
21.92
22.35
21.69
20.15
18.04
15.72
13.51
11.59
10.01
8.62
7.19
5.54
3.62
1.57
-0.27
-1.54
-1.96
-1.42
0.02
2.23
5.04
8.34
12.00
15.80
19.45
22.64
25.08
26.69
27.53
27.82
27.78
27.60
27.42
27.35
27.45
27.72
27.92
27.67
26.46
23.94
20.05
15.12
9.74
4.51
-0.18
-4.16
-7.45
-10.16
-12.36
-14.11
-15.47
-16.58
-17.52
-18.32
-18.94
-19.27
-19.28
-19.01
-18.55
-18.02
-17.41
-16.67
-15.69
-14.46
-13.05
-11.66
-10.43
-9.41
-8.42
-7.17
-5.30
-2.60
0.90
4.93
9.12
13.13
16.76
19.99
22.86
25.41
27.56
29.20
30.18
30.38
29.67
27.93
25.01
20.84
15.54
9.49
3.27
-2.52
-7.40
-11.20
-14.00
-16.01
-17.42
-18.29
-18.61
-18.34
-17.60
-16.64
-15.82
-15.44
-15.64
-16.34
-17.35
-18.45
-19.55
-20.67
-21.90
-23.34
-24.98
-26.77
-28.60
-30.41
-32.20
-34.03
-35.91
-37.76
-39.36
-40.41
-40.63
-39.87
-38.18
-35.77
-32.95
-30.02
-27.17
-24.47
-21.88
-19.34
-16.80
-14.29
-11.87
-9.62
-7.56
-5.70
-3.98
-2.33
-0.73
0.81
2.26
3.69
5.23
7.10
9.45
12.32
15.50
18.66
21.40
23.50
24.88
25.64
25.94
25.94
25.72
25.34
24.87
24.39
23.95
23.51
22.94
22.01
20.55
18.44
15.71
12.50
9.03
5.56
2.41
-0.13
-1.84
-2.69
-2.85
-2.72
-2.76
-3.31
-4.51
-6.22
-8.16
-10.05
-11.69
-12.99
-13.89
-14.31
-14.19
-13.49
-12.37
-11.12
-10.13
-9.67
-9.85
-10.50
-11.30
-11.93
-12.21
-12.12
-11.76
-11.27
-10.77
-10.31
-9.95
-9.73
-9.75
-10.11
-10.88
-12.04
-13.54
-15.22
-16.91
-18.47
-19.82
-20.96
-21.94
-22.81
-23.56
-24.15
-24.51
-24.59
-24.38
-23.94
-23.26
-22.33
-21.09
-19.53
-17.72
-15.86
-14.18
-12.88
-12.01
-11.44
-10.93
-10.24
-9.22
-7.85
-6.23
-4.52
-2.90
-1.48
-0.32
0.63
1.45
2.25
3.10
4.03
4.98
5.86
6.58
7.10
7.45
7.64
7.73
7.75
7.70
7.58
7.38
7.08
6.67
6.18
5.63
5.08
4.57
4.12
3.75
3.46
3.31
3.39
3.85
4.85
6.51
8.87
11.84
15.26
18.84
22.27
25.22
27.52
29.12
30.16
30.84
31.40
31.93
32.37
32.55
32.35
31.71
30.72
29.51
28.21
26.86
25.46
23.96
22.37
20.76
19.15
17.51
15.74
13.72
11.42
8.98
6.64
4.65
3.10
1.95
1.03
0.16
-0.70
-1.53
-2.20
-2.66
-2.95
-3.25
-3.79
-4.70
-6.00
-7.52
-9.02
-10.27
-11.15
-11.69
-12.01
-12.19
-12.25
-12.10
-11.64
-10.81
-9.72
-8.61
-7.72
-7.23
-7.11
-7.19
-7.14
-6.69
-5.66
-4.05
-2.09
-0.12
1.51
2.60
3.11
3.20
3.05
2.84
2.64
2.41
2.09
1.66
1.09
0.35
-0.62
-1.95
-3.69
-5.79
-8.08
-10.35
-12.40
-14.19
-15.75
-17.17
-18.51
-19.75
-20.83
-21.68
-22.26
-22.57
-22.57
-22.23
-21.46
-20.17
-18.29
-15.79
-12.68
-9.10
-5.26
-1.42
2.21
5.51
8.45
11.11
13.54
15.71
17.46
18.62
19.04
18.73
17.83
16.55
15.10
13.60
12.14
10.81
9.73
9.01
8.71
8.75
8.84
8.66
7.85
6.23
3.81
0.75
-2.68
-6.19
-9.55
-12.60
-15.26
-17.54
-19.51
-21.33
-23.13
-24.98
-26.78
-28.31
-29.25
-29.32
-28.34
-26.29
-23.28
-19.59
-15.49
-11.31
-7.39
-3.98
-1.30
0.54
1.56
1.84
1.50
0.62
-0.70
-2.34
-4.06
-5.53
-6.39
-6.31
-5.13
-2.94
-0.08
2.96
5.65
7.62
8.66
8.84
8.35
7.44
6.23
4.81
3.21
1.53
-0.03
-1.29
-2.16
-2.69
-3.05
-3.41
-3.77
-4.02
-4.01
-3.69
-3.18
-2.72
-2.46
-2.37
-2.17
-1.48
0.01
2.34
5.31
8.46
11.30
13.33
14.24
13.94
12.61
10.73
9.01
8.21
8.93
11.42
15.50
20.56
25.74
30.06
32.54
32.35
28.95
22.30
12.93
1.98
-9.06
-18.71
-25.86
-30.03
-31.36
-30.42
-27.86
-24.29
-20.10
-15.61
-11.17
-7.19
-4.18
-2.51
-2.37
-3.61
-5.86
-8.57
-11.17
-13.21
-14.37
-14.47
-13.43
-11.26
-8.01
-3.83
1.05
6.22
11.12
15.15
17.82
18.91
18.54
17.18
15.40
13.74
12.48
11.65
11.14
10.77
10.48
10.29
10.32
10.61
11.09
11.55
11.74
11.45
10.68
9.65
8.70
8.14
8.10
8.46
8.91
9.08
8.66
7.50
5.61
3.15
0.34
-2.57
-5.37
-7.94
-10.21
-12.16
-13.73
-14.79
-15.18
-14.75
-13.47
-11.43
-8.80
-5.72
-2.28
1.46
5.42
9.35
12.93
15.75
17.55
18.25
17.97
17.01
15.73
14.44
13.35
12.49
11.74
10.87
9.60
7.75
5.27
2.32
-0.79
-3.69
-6.07
-7.74
-8.68
-9.00
-8.93
-8.73
-8.64
-8.86
-9.47
-10.46
-11.70
-12.99
-14.11
-14.88
-15.22
-15.18
-14.89
-14.49
-14.01
-13.35
-12.29
-10.59
-8.07
-4.78
-0.92
3.17
7.13
10.68
13.60
15.79
17.21
17.91
18.01
17.71
17.21
16.70
16.27
15.94
15.65
15.30
14.81
14.14
13.24
12.13
10.83
9.41
7.98
6.69
5.60
4.66
3.67
2.33
0.39
-2.22
-5.27
-8.33
-10.85
-12.39
-12.74
-11.94
-10.24
-7.90
-5.16
-2.13
1.13
4.58
8.20
11.96
15.80
19.60
23.18
26.27
28.60
29.95
30.27
29.69
28.49
26.94
25.21
23.34
21.28
18.98
16.49
13.95
11.53
9.37
7.53
5.94
4.52
3.17
1.80
0.37
-1.13
-2.72
-4.35
-5.95
-7.43
-8.68
-9.64
-10.28
-10.66
-10.90
-11.14
-11.52
-12.07
-12.75
-13.43
-13.95
-14.20
-14.16
-13.92
-13.55
-13.10
-12.50
-11.62
-10.35
-8.68
-6.73
-4.70
-2.77
-1.05
0.51
1.99
3.45
4.86
6.07
6.89
7.21
7.08
6.69
6.29
6.07
6.02
6.02
5.89
5.53
5.00
4.43
3.92
3.47
2.94
2.18
1.10
-0.21
-1.59
-2.85
-3.92
-4.87
-5.86
-7.04
-8.45
-10.03
-11.63
-13.13
-14.44
-15.55
-16.46
-17.18
-17.64
-17.71
-17.23
-16.09
-14.27
-11.87
-9.12
-6.28
-3.56
-1.11
1.01
2.79
4.20
5.20
5.74
5.83
5.61
5.33
5.27
5.57
6.24
7.05
7.74
8.12
8.17
8.04
7.93
7.96
8.08
8.11
7.84
7.16
6.10
4.83
3.53
2.28
1.08
-0.15
-1.51
-3.02
-4.60
-6.13
-7.50
-8.66
-9.62
-10.40
-11.00
-11.36
-11.36
-10.94
-10.06
-8.79
-7.24
-5.50
-3.64
-1.68
0.38
2.54
4.71
6.77
8.55
9.88
10.67
10.93
10.80
10.49
10.23
10.15
10.26
10.44
10.47
10.19
9.51
8.43
7.08
5.62
4.17
2.79
1.51
0.31
-0.84
-1.97
-3.18
-4.54
-6.11
-7.90
-9.84
-11.83
-13.80
-15.71
-17.59
-19.47
-21.31
-23.03
-24.49
-25.58
-26.22
-26.35
-25.90
-24.75
-22.81
-20.04
-16.53
-12.56
-8.44
-4.52
-1.05
1.85
4.18
5.98
7.38
8.47
9.35
10.09
10.75
11.37
11.95
12.51
13.01
13.41
13.62
13.57
13.23
12.58
11.69
10.63
9.47
8.25
6.98
5.63
4.17
2.62
0.95
-0.82
-2.68
-4.62
-6.59
-8.47
-10.05
-11.12
-11.52
-11.24
-10.45
-9.47
-8.54
-7.77
-7.05
-6.06
-4.48
-2.14
0.90
4.33
7.71
10.64
12.83
14.19
14.78
14.80
14.49
14.07
13.66
13.24
12.61
11.49
9.61
6.84
3.25
-0.83
-4.93
-8.53
-11.23
-12.75
-13.05
-12.30
-10.79
-8.90
-6.99
-5.28
-3.87
-2.71
-1.74
-0.95
-0.42
-0.35
-0.90
-2.12
-3.85
-5.80
-7.67
-9.26
-10.52
-11.48
-12.14
-12.44
-12.26
-11.50
-10.21
-8.59
-6.90
-5.35
-4.05
-2.95
-1.95
-1.01
-0.12
0.65
1.28
1.78
2.26
2.84
3.58
4.46
5.38
6.19
6.77
7.07
7.11
7.01
6.86
6.71
6.55
6.32
5.95
5.41
4.73
3.96
3.18
2.45
1.77
1.14
0.52
-0.13
-0.84
-1.56
-2.15
-2.43
-2.24
-1.54
-0.42
0.94
2.38
3.81
5.27
6.84
8.53
10.28
11.92
13.30
14.31
14.92
15.17
15.14
14.85
14.31
13.52
12.50
11.32
10.04
8.72
7.41
6.13
4.91
3.78
2.76
1.85
1.00
0.14
-0.82
-1.93
-3.14
-4.33
-5.35
-6.13
-6.73
-7.26
-7.89
-8.71
-9.71
-10.79
-11.85
-12.76
-13.44
-13.80
-13.79
-13.37
-12.60
-11.55
-10.33
-8.98
-7.44
-5.61
-3.41
-0.80
2.13
5.26
8.39
11.34
13.90
15.84
16.94
17.13
16.46
15.23
13.80
12.49
11.50
10.84
10.42
10.14
9.95
9.82
9.67
9.35
8.62
7.30
5.38
3.07
0.70
-1.35
-2.91
-4.01
-4.86
-5.75
-6.86
-8.25
-9.81
-11.39
-12.81
-13.96
-14.78
-15.24
-15.31
-14.99
-14.27
-13.20
-11.83
-10.27
-8.62
-6.96
-5.34
-3.78
-2.27
-0.79
0.65
2.03
3.33
4.46
5.35
5.95
6.21
6.17
5.87
5.36
4.69
3.89
2.97
1.94
0.83
-0.34
-1.55
-2.79
-4.04
-5.23
-6.28
-7.13
-7.76
-8.21
-8.56
-8.88
-9.23
-9.64
-10.17
-10.87
-11.81
-13.01
-14.38
-15.71
-16.75
-17.21
-16.93
-15.87
-14.14
-11.92
-9.41
-6.77
-4.12
-1.53
0.89
3.03
4.77
6.05
6.89
7.38
7.66
7.82
7.95
8.05
8.13
8.17
8.16
8.07
7.90
7.64
7.32
7.00
6.73
6.55
6.44
6.34
6.20
5.96
5.59
5.11
4.54
3.90
3.24
2.58
1.91
1.25
0.54
-0.27
-1.24
-2.42
-3.81
-5.36
-6.96
-8.40
-9.49
-10.10
-10.17
-9.78
-9.06
-8.17
-7.17
-6.11
-4.98
-3.83
-2.76
-1.88
-1.28
-0.97
-0.85
-0.80
-0.69
-0.46
-0.09
0.36
0.89
1.48
2.15
2.89
3.66
4.36
4.89
5.14
5.08
4.78
4.33
3.84
3.37
2.93
2.47
1.94
1.35
0.73
0.12
-0.45
-1.02
-1.64
-2.39
-3.29
-4.28
-5.22
-5.92
-6.23
-6.07
-5.48
-4.56
-3.48
-2.36
-1.26
-0.14
1.06
2.35
3.70
5.05
6.28
7.34
8.22
8.93
9.49
9.92
10.21
10.38
10.44
10.44
10.40
10.29
10.08
9.72
9.16
8.42
7.51
6.48
5.38
4.26
3.17
2.14
1.18
0.27
-0.67
-1.68
-2.81
-4.07
-5.41
-6.75
-8.03
-9.16
-10.12
-10.85
-11.36
-11.60
-11.52
-11.02
-10.01
-8.44
-6.40
-4.09
-1.76
0.30
1.92
3.04
3.73
4.12
4.33
4.46
4.53
4.54
4.50
4.39
4.22
3.99
3.70
3.36
2.94
2.39
1.67
0.73
-0.43
-1.72
-3.03
-4.22
-5.21
-5.98
-6.59
-7.14
-7.73
-8.44
-9.33
-10.42
-11.66
-12.96
-14.11
-14.94
-15.32
-15.26
-14.93
-14.56
-14.35
-14.35
-14.44
-14.36
-13.84
-12.72
-10.98
-8.78
-6.32
-3.81
-1.37
0.95
3.15
5.26
7.26
9.16
10.92
12.47
13.77
14.78
15.54
16.14
16.64
17.07
17.31
17.16
16.43
15.05
13.16
11.01
8.91
7.04
5.46
4.05
2.70
1.30
-0.19
-1.75
-3.36
-5.05
-6.84
-8.70
-10.48
-11.92
-12.74
-12.72
-11.82
-10.15
-7.96
-5.53
-3.02
-0.52
1.93
4.31
6.51
8.45
10.05
11.32
12.37
13.34
14.31
15.24
16.04
16.55
16.70
16.53
16.20
15.91
15.82
16.01
16.38
16.76
16.89
16.57
15.73
14.48
13.06
11.74
10.71
9.96
9.29
8.46
7.27
5.69
3.84
1.90
0.03
-1.68
-3.17
-4.36
-5.12
-5.35
-5.05
-4.34
-3.44
-2.57
-1.85
-1.28
-0.75
-0.16
0.52
1.30
2.11
2.90
3.65
4.33
4.94
5.44
5.77
5.87
5.75
5.45
5.04
4.63
4.29
4.05
3.89
3.76
3.59
3.30
2.85
2.20
1.32
0.24
-0.99
-2.26
-3.51
-4.68
-5.76
-6.80
-7.88
-9.06
-10.44
-12.02
-13.80
-15.68
-17.48
-18.96
-19.90
-20.13
-19.66
-18.63
-17.29
-15.86
-14.45
-13.02
-11.50
-9.85
-8.12
-6.42
-4.86
-3.50
-2.33
-1.34
-0.57
-0.10
-0.00
-0.25
-0.73
-1.26
-1.67
-1.88
-1.93
-1.93
-2.02
-2.31
-2.84
-3.61
-4.54
-5.52
-6.41
-7.07
-7.43
-7.49
-7.32
-7.05
-6.80
-6.69
-6.79
-7.11
-7.66
-8.42
-9.33
-10.31
-11.30
-12.22
-12.98
-13.52
-13.75
-13.60
-13.02
-12.00
-10.54
-8.73
-6.70
-4.59
-2.48
-0.43
1.62
3.72
5.92
8.17
10.33
12.18
13.51
14.16
14.08
13.31
11.95
10.15
8.09
5.96
3.98
2.35
1.15
0.34
-0.24
-0.78
-1.42
-2.16
-2.94
-3.64
-4.15
-4.50
-4.75
-5.03
-5.41
-5.91
-6.46
-6.96
-7.31
-7.49
-7.48
-7.28
-6.87
-6.20
-5.22
-3.94
-2.38
-0.63
1.22
3.13
5.15
7.34
9.72
12.23
14.71
16.98
18.87
20.34
21.42
22.21
22.81
23.30
23.68
23.92
24.00
23.92
23.69
23.36
22.92
22.38
21.65
20.67
19.35
17.61
15.43
12.78
9.65
6.06
2.06
-2.22
-6.57
-10.79
-14.70
-18.28
-21.61
-24.78
-27.80
-30.51
-32.58
-33.63
-33.38
-31.81
-29.11
-25.68
-21.94
-18.25
-14.78
-11.59
-8.65
-5.94
-3.48
-1.33
0.42
1.71
2.52
2.85
2.74
2.23
1.39
0.35
-0.76
-1.78
-2.59
-3.15
-3.47
-3.59
-3.55
-3.38
-3.07
-2.59
-1.92
-1.06
-0.01
1.17
2.44
3.67
4.74
5.44
5.60
5.05
3.71
1.62
-1.04
-3.97
-6.78
-9.11
-10.65
-11.23
-10.87
-9.71
-8.01
-6.05
-4.08
-2.24
-0.58
0.93
2.34
3.68
4.93
6.08
7.14
8.17
9.22
10.31
11.37
12.24
12.80
12.96
12.74
12.24
11.57
10.81
9.99
9.10
8.17
7.26
6.43
5.69
5.03
4.38
3.69
2.89
2.00
1.03
0.06
-0.84
-1.58
-2.17
-2.70
-3.34
-4.28
-5.57
-7.09
-8.54
-9.56
-9.92
-9.54
-8.57
-7.24
-5.71
-4.07
-2.31
-0.42
1.52
3.41
5.12
6.57
7.77
8.72
9.44
9.92
10.17
10.22
10.14
10.04
10.01
10.11
10.32
10.61
10.84
10.90
10.70
10.21
9.50
8.67
7.83
6.98
6.08
5.08
3.97
2.88
1.92
1.17
0.53
-0.21
-1.26
-2.68
-4.36
-6.10
-7.75
-9.28
-10.78
-12.30
-13.77
-14.91
-15.39
-14.97
-13.66
-11.71
-9.50
-7.39
-5.54
-3.93
-2.47
-1.05
0.33
1.60
2.70
3.61
4.40
5.18
6.07
7.07
8.09
8.94
9.43
9.45
9.02
8.30
7.51
6.87
6.47
6.25
6.03
5.65
4.98
4.04
2.91
1.73
0.55
-0.58
-1.70
-2.80
-3.88
-4.91
-5.86
-6.78
-7.75
-8.86
-10.14
-11.57
-13.06
-14.46
-15.61
-16.30
-16.39
-15.82
-14.60
-12.88
-10.83
-8.62
-6.40
-4.23
-2.16
-0.22
1.54
3.07
4.33
5.29
5.98
6.47
6.88
7.34
7.94
8.66
9.42
10.09
10.57
10.85
10.95
10.95
10.90
10.81
10.67
10.44
10.08
9.55
8.81
7.85
6.73
5.55
4.42
3.41
2.47
1.50
0.33
-1.10
-2.74
-4.48
-6.21
-7.89
-9.56
-11.23
-12.84
-14.23
-15.17
-15.50
-15.16
-14.23
-12.84
-11.12
-9.17
-7.07
-4.97
-3.05
-1.58
-0.69
-0.42
-0.61
-1.05
-1.51
-1.86
-2.12
-2.37
-2.75
-3.33
-4.13
-5.09
-6.12
-7.11
-7.99
-8.78
-9.56
-10.46
-11.62
-13.07
-14.77
-16.62
-18.43
-20.06
-21.37
-22.35
-23.01
-23.47
-23.85
-24.30
-24.88
-25.60
-26.36
-26.94
-27.11
-26.63
-25.34
-23.17
-20.15
-16.40
-12.09
-7.40
-2.51
2.45
7.43
12.42
17.45
22.49
27.45
32.12
36.20
39.37
41.39
42.22
42.00
41.04
39.71
38.31
37.01
35.84
34.69
33.45
32.03
30.34
28.39
26.20
23.84
21.41
19.01
16.78
14.74
12.90
11.14
9.36
7.49
5.57
3.70
2.01
0.54
-0.76
-1.99
-3.24
-4.49
-5.60
-6.41
-6.77
-6.61
-5.98
-4.93
-3.48
-1.62
0.64
3.23
5.92
8.42
10.43
11.77
12.46
12.68
12.68
12.64
12.63
12.59
12.47
12.20
11.80
11.27
10.58
9.63
8.28
6.44
4.07
1.27
-1.81
-4.96
-7.99
-10.77
-13.22
-15.37
-17.26
-18.96
-20.53
-21.96
-23.21
-24.20
-24.88
-25.24
-25.31
-25.13
-24.71
-24.00
-22.91
-21.37
-19.32
-16.82
-13.98
-10.95
-7.90
-4.92
-2.09
0.56
3.00
5.19
7.11
8.76
10.13
11.23
12.04
12.46
12.36
11.59
10.09
7.93
5.37
2.86
0.88
-0.17
-0.14
0.82
2.27
3.65
4.44
4.39
3.51
2.10
0.46
-1.21
-2.89
-4.67
-6.63
-8.71
-10.68
-12.31
-13.43
-14.07
-14.36
-14.49
-14.56
-14.54
-14.37
-13.97
-13.31
-12.44
-11.41
-10.22
-8.84
-7.22
-5.31
-3.14
-0.81
1.49
3.58
5.25
6.37
6.94
7.01
6.76
6.32
5.87
5.47
5.20
5.07
5.07
5.19
5.36
5.50
5.50
5.29
4.81
4.06
3.12
2.07
1.00
-0.01
-0.88
-1.57
-2.04
-2.31
-2.42
-2.45
-2.49
-2.67
-3.10
-3.88
-5.04
-6.60
-8.44
-10.35
-12.04
-13.14
-13.32
-12.33
-10.07
-6.64
-2.25
2.77
8.02
13.09
17.58
21.12
23.49
24.59
24.51
23.54
22.08
20.53
19.20
18.20
17.46
16.75
15.89
14.76
13.39
11.93
10.56
9.41
8.45
7.57
6.60
5.41
3.92
2.17
0.24
-1.75
-3.68
-5.43
-6.96
-8.30
-9.57
-10.89
-12.37
-14.05
-15.89
-17.80
-19.62
-21.19
-22.23
-22.47
-21.63
-19.58
-16.42
-12.48
-8.21
-4.08
-0.41
2.64
5.04
6.85
8.09
8.78
8.94
8.65
8.00
7.14
6.16
5.12
4.05
2.96
1.85
0.74
-0.34
-1.37
-2.36
-3.32
-4.30
-5.31
-6.36
-7.40
-8.35
-9.12
-9.66
-9.94
-10.00
-9.96
-9.94
-10.09
-10.46
-11.07
-11.86
-12.73
-13.60
-14.36
-14.88
-14.96
-14.35
-12.83
-10.34
-6.95
-2.94
1.36
5.61
9.56
13.09
16.13
18.60
20.40
21.46
21.82
21.63
21.18
20.77
20.68
20.98
21.54
22.14
22.53
22.64
22.58
22.51
22.56
22.87
23.36
23.80
23.92
23.54
22.74
21.74
20.82
20.14
20.12
20.90
22.19
23.43
23.92
23.26
21.60
19.52
17.92
18.15
20.92
25.79
31.60
36.80
40.45
42.46
43.47
44.31
46.35
50.23
55.61
61.61
66.79
69.97
70.36
67.54
56.98
37.02
10.01
-18.62
-43.57
-63.02
-78.02
-90.84
-103.55
-117.01
-129.57
-138.03
-140.81
-134.82
-118.91
-94.38
-64.68
-34.51
-8.34
11.37
23.06
26.29
22.76
14.84
5.09
-4.02
-10.39
-12.63
-10.11
-3.63
4.69
13.33
20.79
26.27
29.94
32.52
34.70
36.72
37.81
36.42
30.58
19.16
3.02
-15.11
-31.80
-44.46
-52.22
-55.91
-57.05
-56.64
-54.89
-51.46
-46.23
-40.01
-34.51
-31.59
-32.20
-35.70
-40.01
-42.66
-41.99
-37.95
-32.10
-26.79
-24.02
-24.62
-28.28
-34.01
-40.55
-46.13
-48.45
-44.50
-31.53
-8.82
21.28
53.59
82.27
103.37
116.30
123.50
128.52
133.06
135.23
130.52
114.75
87.23
51.17
15.17
-13.12
-29.96
-36.60
-37.85
-39.04
-43.01
-49.22
-54.88
-56.98
-54.69
-49.28
-43.43
-39.80
-39.67
-42.86
-48.39
-55.24
-62.70
-70.01
-75.68
-76.67
-69.96
-54.04
-30.32
-3.15
21.67
39.23
47.52
48.14
44.63
40.27
36.62
33.47
30.00
25.89
21.98
19.63
19.80
22.35
26.02
29.11
30.09
28.49
24.94
20.90
18.04
17.64
19.86
23.82
27.99
30.77
31.29
29.61
26.69
23.99
22.70
23.43
26.17
30.61
36.29
42.41
47.38
48.73
43.85
31.30
12.09
-9.98
-29.83
-42.88
-47.15
-43.94
-36.75
-29.28
-23.66
-19.97
-17.09
-14.14
-11.24
-9.37
-9.49
-11.67
-15.03
-18.37
-20.86
-22.53
-24.09
-26.12
-28.61
-30.81
-31.65
-30.31
-26.70
-21.46
-15.57
-9.84
-4.48
0.70
6.03
11.51
16.70
20.75
22.87
22.57
19.82
15.06
8.93
2.19
-4.31
-9.72
-13.26
-14.48
-13.53
-11.13
-8.20
-5.47
-3.09
-0.54
2.96
7.92
14.18
20.92
27.02
31.72
34.78
36.60
37.82
38.91
39.84
39.93
38.01
32.20
21.05
3.73
-19.55
-47.14
-75.93
-101.75
-120.29
-128.30
-124.58
-110.42
-89.22
-65.37
-43.01
-24.88
-12.01
-4.06
0.08
1.56
1.23
-0.37
-2.89
-5.87
-8.68
-10.61
-11.10
-9.88
-7.03
-2.81
2.41
8.48
15.37
23.16
31.73
40.61
49.06
56.29
61.70
64.99
66.23
65.62
63.44
59.87
55.05
49.18
42.58
35.58
28.34
20.94
13.40
5.91
-1.03
-6.60
-9.86
-9.89
-6.23
0.13
7.44
13.30
15.89
14.70
10.42
4.31
-2.24
-8.30
-13.58
-18.23
-22.63
-26.97
-31.07
-34.49
-36.75
-37.62
-37.25
-36.19
-34.78
-33.18
-31.41
-29.40
-27.30
-25.42
-24.16
-23.80
-24.43
-25.77
-27.44
-29.06
-30.38
-31.25
-31.55
-31.08
-29.52
-27.05
-23.86
-20.50
-17.88
-17.14
-19.30
-24.69
-32.57
-41.04
-47.42
-48.96
-43.85
-31.88
-14.49
5.64
25.49
42.51
55.17
63.00
66.42
66.30
63.70
59.75
55.49
51.80
49.16
47.51
46.34
44.96
42.89
40.05
36.89
34.06
32.16
31.57
32.38
34.38
37.02
39.35
39.98
37.47
30.95
20.81
8.91
-1.81
-8.58
-9.85
-6.03
0.79
7.90
13.07
15.32
15.10
13.70
12.25
11.19
10.14
8.28
5.10
0.60
-4.71
-9.82
-13.78
-15.95
-16.07
-13.82
-8.82
-0.63
10.09
21.16
29.83
33.97
33.11
28.68
23.19
18.62
15.76
13.42
9.38
2.78
-5.05
-11.01
-11.87
-5.85
6.42
23.02
40.90
53.50
55.18
44.08
23.75
0.67
-17.69
-31.11
-41.04
-49.19
-56.78
-63.43
-67.85
-68.92
-66.50
-61.60
-56.09
-51.20
-47.61
-45.42
-43.69
-41.17
-37.05
-31.60
-26.03
-22.10
-20.71
-22.16
-26.24
-32.18
-39.07
-46.06
-52.51
-57.74
-61.02
-61.24
-57.66
-50.29
-39.86
-27.60
-14.84
-2.74
8.00
17.05
24.57
30.83
36.12
40.82
45.39
50.22
55.46
60.91
66.11
70.65
74.27
77.07
79.35
81.48
83.68
86.02
88.38
90.54
92.19
92.89
92.18
89.72
85.52
80.07
74.27
69.06
65.08
62.37
60.43
58.55
56.22
53.29
50.06
46.99
44.44
42.52
41.11
39.94
38.78
37.48
36.01
34.37
32.48
30.11
26.96
22.67
17.09
10.26
2.52
-5.71
-14.00
-22.10
-29.84
-37.08
-43.56
-48.98
-53.14
-56.10
-58.28
-60.33
-62.87
-66.16
-69.93
-73.41
-75.59
-75.56
-72.82
-67.42
-59.90
-51.12
-41.97
-33.18
-25.22
-18.28
-12.36
-7.33
-3.01
0.81
4.31
7.62
10.64
13.07
14.49
14.56
13.34
11.34
9.45
8.58
9.25
11.33
14.09
16.53
17.75
17.30
15.19
11.72
7.25
2.08
-3.65
-9.86
-16.58
-23.84
-31.65
-39.90
-48.26
-56.11
-62.67
-67.21
-69.35
-69.18
-67.19
-64.07
-60.42
-56.53
-52.42
-47.96
-43.10
-37.88
-32.45
-26.92
-21.21
-15.05
-8.18
-0.46
7.88
16.27
23.95
30.23
34.75
37.57
39.16
40.20
41.34
42.97
45.08
47.37
49.33
50.43
50.32
48.82
45.88
41.58
36.13
29.97
23.78
18.36
14.29
11.69
10.08
8.55
6.13
2.26
-3.12
-9.52
-16.33
-23.00
-29.27
-35.05
-40.28
-44.79
-48.34
-50.67
-51.73
-51.68
-50.90
-49.79
-48.70
-47.73
-46.77
-45.58
-43.99
-41.98
-39.76
-37.62
-35.85
-34.67
-34.14
-34.27
-35.00
-36.26
-37.93
-39.90
-42.00
-44.14
-46.29
-48.54
-51.06
-54.02
-57.51
-61.42
-65.42
-68.94
-71.40
-72.39
-71.83
-70.03
-67.63
-65.30
-63.61
-62.90
-63.38
-65.20
-68.63
-74.02
-81.74
-91.92
-104.21
-117.60
-130.33
-140.17
-144.82
-142.52
-132.55
-115.45
-92.86
-66.97
-39.93
-13.45
11.29
33.40
52.10
66.61
76.47
81.82
83.55
83.06
81.74
80.39
78.98
76.81
73.09
67.41
60.09
51.94
43.89
36.64
30.42
25.20
20.83
17.22
14.42
12.48
11.44
11.30
12.09
13.86
16.65
20.38
24.83
29.57
34.11
38.01
40.97
42.87
43.74
43.77
43.29
42.74
42.65
43.43
45.15
47.49
49.74
51.22
51.51
50.62
48.98
47.19
45.70
44.56
43.37
41.51
38.47
34.12
28.71
22.72
16.67
10.87
5.39
0.11
-5.04
-9.71
-13.34
-15.30
-15.29
-13.46
-10.37
-6.78
-3.38
-0.52
2.30
5.71
10.02
14.94
19.86
24.16
27.58
30.24
32.51
35.77
40.97
48.05
55.82
62.61
67.04
68.31
66.15
60.63
53.63
47.06
42.15
39.19
38.11
39.13
42.66
49.05
58.33
72.16
91.55
115.86
142.57
168.48
190.98
208.71
221.48
217.91
191.81
145.44
89.14
34.31
-12.28
-48.82
-75.80
-94.22
-105.31
-108.86
-105.34
-96.24
-84.35
-72.65
-63.72
-58.98
-58.78
-62.74
-68.57
-73.60
-76.01
-75.32
-71.85
-66.97
-62.07
-58.26
-56.28
-55.77
-56.21
-57.42
-59.81
-63.95
-71.12
-81.93
-95.80
-110.90
-124.27
-132.86
-134.38
-127.93
-108.77
-77.28
-39.56
-4.50
21.36
36.27
42.11
42.95
41.52
39.16
35.59
30.69
25.18
20.48
17.73
17.49
19.53
22.87
26.43
28.71
28.88
27.23
24.77
22.53
20.97
19.93
18.80
17.03
14.04
9.84
5.16
1.04
-1.80
-3.34
-4.22
-5.43
-7.78
-11.78
-17.25
-23.33
-28.73
-32.22
-33.02
-30.94
-26.45
-20.46
-14.03
-8.11
-3.22
0.48
3.06
4.67
5.38
5.29
4.55
3.44
2.27
1.30
0.67
0.34
0.27
0.39
0.76
1.47
2.62
4.22
6.17
8.27
10.30
12.02
13.24
13.77
13.46
12.28
10.39
8.20
6.19
4.80
4.20
4.22
4.42
4.38
3.92
3.29
2.98
3.52
5.13
7.64
10.55
13.26
15.36
16.67
17.25
17.29
16.95
16.29
15.29
13.90
12.11
9.97
7.53
4.90
2.19
-0.42
-2.74
-4.58
-5.86
-6.63
-7.11
-7.53
-8.07
-8.72
-9.34
-9.73
-9.78
-9.51
-9.08
-8.70
-8.54
-8.67
-9.12
-9.86
-10.92
-12.29
-13.91
-15.60
-17.10
-18.06
-18.19
-17.32
-15.43
-12.70
-9.39
-5.85
-2.44
0.57
2.99
4.78
6.07
7.07
8.07
9.25
10.66
12.14
13.46
14.35
14.65
14.38
13.72
12.91
12.19
11.66
11.27
10.86
10.26
9.38
8.25
7.04
5.94
5.17
4.80
4.80
5.11
5.64
6.37
7.30
8.46
9.82
11.27
12.69
13.93
14.93
15.72
16.40
17.09
17.87
18.70
19.47
19.99
20.12
19.79
19.06
18.11
17.16
16.39
15.88
15.59
15.35
15.02
14.45
13.62
12.58
11.43
10.27
9.14
8.05
7.00
6.01
5.13
4.38
3.74
3.12
2.46
1.82
1.39
1.43
2.14
3.52
5.34
7.29
9.12
10.74
12.23
13.72
15.29
16.90
18.45
19.93
21.44
23.11
24.99
26.95
28.69
29.89
30.33
30.07
29.27
28.09
26.43
23.92
20.05
14.43
7.05
-1.67
-11.00
-20.22
-28.87
-36.89
-44.52
-52.03
-59.44
-66.37
-72.09
-75.68
-76.32
-73.69
-68.11
-60.65
-52.81
-46.23
-42.33
-41.84
-44.34
-48.17
-50.78
-49.56
-42.82
-30.38
-14.00
2.89
16.26
22.91
21.76
14.04
2.72
-8.76
-17.46
-21.89
-22.31
-20.31
-17.78
-15.92
-14.96
-14.28
-12.81
-9.13
-2.10
8.78
23.06
39.53
56.51
71.89
83.12
85.04
73.65
49.54
18.89
-9.78
-30.11
-39.98
-41.07
-38.03
-34.09
-30.46
-26.81
-22.31
-16.65
-10.30
-4.07
1.39
5.83
9.61
13.56
18.38
24.10
30.10
35.53
39.93
43.29
45.70
46.99
46.57
43.56
37.32
27.83
16.09
4.01
-6.26
-13.12
-15.96
-15.28
-12.33
-8.62
-5.43
-3.57
-3.27
-4.36
-6.50
-9.26
-12.27
-15.16
-17.65
-19.66
-21.35
-23.20
-25.78
-29.53
-34.44
-39.93
-45.02
-48.72
-50.46
-50.31
-48.85
-46.70
-44.13
-40.85
-36.18
-29.44
-20.37
-9.28
3.06
15.57
27.13
36.68
43.37
46.59
46.13
42.17
35.27
26.23
15.90
5.12
-5.31
-14.64
-22.24
-27.62
-30.59
-31.26
-30.06
-27.51
-24.11
-20.23
-16.04
-11.63
-7.06
-2.48
1.87
5.66
8.47
9.95
9.87
8.24
5.36
1.76
-1.95
-5.24
-7.79
-9.47
-10.26
-10.10
-8.91
-6.60
-3.21
1.01
5.65
10.31
14.70
18.80
22.69
26.49
30.23
33.87
37.33
40.59
43.68
46.65
49.50
52.11
54.29
55.80
56.44
56.16
55.10
53.54
51.82
50.20
48.71
47.09
44.84
41.31
35.95
28.50
19.10
8.32
-2.98
-13.81
-23.31
-30.85
-36.22
-39.51
-41.05
-41.25
-40.48
-39.06
-37.25
-35.39
-33.87
-33.07
-33.17
-34.00
-35.00
-35.34
-34.28
-31.41
-26.84
-21.11
-14.90
-8.72
-2.74
3.11
8.97
14.79
20.26
24.81
27.81
28.65
26.80
21.99
14.31
4.43
-6.32
-16.09
-23.05
-25.95
-24.59
-19.84
-13.30
-6.61
-1.01
2.92
5.13
5.81
5.25
3.78
1.87
0.14
-0.74
-0.35
1.31
3.64
5.59
5.93
3.65
-1.60
-9.32
-18.15
-26.19
-31.61
-33.19
-30.79
-25.34
-18.47
-11.92
-6.97
-4.18
-3.31
-3.64
-4.32
-4.63
-4.22
-3.13
-1.81
-0.85
-0.78
-1.78
-3.61
-5.62
-6.97
-6.99
-5.42
-2.44
1.36
5.33
8.92
11.81
13.95
15.41
16.29
16.60
16.28
15.18
13.16
10.20
6.41
2.17
-1.97
-5.33
-7.28
-7.44
-5.80
-2.72
1.17
5.19
8.80
11.67
13.69
14.80
14.97
14.14
12.31
9.66
6.55
3.49
0.97
-0.74
-1.61
-1.96
-2.27
-2.98
-4.32
-6.19
-8.15
-9.64
-10.17
-9.56
-7.96
-5.85
-3.82
-2.51
-2.45
-3.96
-7.15
-11.79
-17.28
-22.77
-27.37
-30.40
-31.64
-31.41
-30.42
-29.52
-29.37
-30.26
-32.05
-34.27
-36.36
-37.87
-38.68
-39.03
-39.42
-40.37
-42.17
-44.69
-47.38
-49.41
-49.88
-48.07
-43.53
-36.12
-25.88
-13.04
2.10
19.15
37.62
56.91
76.32
95.04
112.03
126.07
135.79
139.97
137.98
130.10
117.68
102.90
88.11
75.22
65.11
57.50
51.29
45.14
38.02
29.58
20.12
10.41
1.29
-6.58
-12.84
-17.39
-20.31
-21.74
-21.80
-20.68
-18.63
-16.02
-13.32
-10.96
-9.27
-8.38
-8.26
-8.78
-9.81
-11.32
-13.29
-15.66
-18.19
-20.43
-21.78
-21.73
-20.08
-17.05
-13.35
-9.89
-7.56
-6.96
-8.22
-11.12
-15.16
-19.77
-24.40
-28.56
-31.84
-33.93
-34.67
-34.12
-32.54
-30.34
-27.93
-25.59
-23.35
-21.07
-18.49
-15.43
-11.88
-8.10
-4.64
-2.20
-1.43
-2.71
-5.94
-10.56
-15.67
-20.25
-23.53
-25.23
-25.63
-25.53
-25.92
-27.58
-30.66
-34.56
-37.99
-39.42
-37.60
-32.07
-23.26
-12.41
-1.14
8.91
16.43
20.57
21.06
18.27
13.31
7.75
3.27
1.06
1.37
3.54
6.29
8.48
9.58
9.86
10.12
11.09
13.09
15.84
18.77
21.37
23.41
24.92
25.96
26.40
25.91
24.13
21.01
16.87
12.38
8.16
4.50
1.22
-2.03
-5.45
-8.66
-10.86
-11.18
-9.33
-5.86
-2.04
0.70
1.40
-0.13
-3.32
-7.32
-11.36
-14.94
-17.77
-19.51
-19.80
-18.29
-14.95
-10.15
-4.63
0.78
5.46
9.21
12.16
14.67
17.06
19.46
21.78
23.81
25.34
26.28
26.72
26.85
26.86
26.84
26.75
26.45
25.77
24.65
23.14
21.41
19.63
17.96
16.40
14.89
13.29
11.46
9.29
6.71
3.71
0.34
-3.29
-7.03
-10.72
-14.18
-17.18
-19.51
-20.92
-21.16
-19.96
-17.11
-12.45
-6.03
1.82
10.35
18.51
25.13
29.32
30.79
30.04
28.15
26.37
25.63
26.26
27.94
30.02
31.88
33.13
33.65
33.40
32.21
29.67
25.24
18.45
9.19
-2.13
-14.61
-26.95
-37.84
-46.18
-51.38
-53.36
-52.55
-49.62
-45.37
-40.60
-36.03
-32.29
-29.89
-29.16
-30.18
-32.75
-36.41
-40.44
-43.96
-46.05
-45.82
-42.69
-36.51
-27.75
-17.38
-6.73
2.86
10.31
14.99
16.79
16.04
13.40
9.78
6.13
3.30
1.81
1.67
2.37
2.99
2.62
0.66
-2.78
-6.97
-10.75
-13.01
-13.09
-10.96
-7.23
-2.80
1.35
4.38
5.66
4.85
1.90
-2.75
-8.27
-13.60
-17.78
-20.36
-21.61
-22.36
-23.58
-25.87
-29.07
-32.22
-33.89
-32.79
-28.24
-20.51
-10.72
-0.36
9.18
17.03
22.93
27.04
29.52
30.41
29.55
26.90
22.70
17.62
12.52
8.19
5.06
3.18
2.38
2.51
3.60
5.79
9.14
13.45
18.20
22.74
26.55
29.40
31.46
33.12
34.85
37.14
40.47
45.24
51.72
59.84
68.96
77.85
84.86
88.35
87.10
80.71
69.72
55.41
39.56
24.00
10.32
-0.42
-7.77
-11.87
-13.39
-13.23
-12.37
-11.69
-11.79
-12.97
-15.18
-17.98
-20.70
-22.59
-23.07
-21.86
-19.12
-15.27
-10.77
-5.91
-0.63
5.41
12.73
21.75
32.61
44.96
57.85
69.63
78.14
81.10
76.79
64.75
46.20
23.86
1.21
-18.53
-33.25
-42.31
-46.42
-47.00
-45.63
-43.60
-41.81
-40.75
-40.67
-41.57
-43.21
-45.09
-46.57
-46.95
-45.69
-42.56
-37.78
-31.96
-25.97
-20.64
-16.48
-13.51
-11.35
-9.42
-7.31
-4.96
-2.74
-1.26
-1.13
-2.72
-6.08
-10.90
-16.59
-22.44
-27.68
-31.58
-33.59
-33.41
-31.11
-27.11
-22.08
-16.78
-11.81
-7.47
-3.75
-0.41
2.80
6.04
9.25
12.21
14.59
16.02
16.20
14.88
11.90
7.32
1.40
-5.26
-11.83
-17.40
-21.20
-22.80
-22.26
-20.06
-16.98
-13.83
-11.23
-9.46
-8.42
-7.69
-6.79
-5.32
-3.24
-0.84
1.31
2.56
2.50
1.14
-1.07
-3.32
-4.74
-4.70
-3.00
0.04
3.74
7.26
9.93
11.42
11.78
11.40
10.77
10.38
10.50
11.23
12.44
13.84
15.02
15.55
15.02
13.12
9.82
5.27
-0.12
-5.80
-11.22
-15.88
-19.48
-21.91
-23.25
-23.67
-23.44
-22.77
-21.88
-20.93
-19.97
-19.01
-17.92
-16.56
-14.77
-12.58
-10.21
-8.07
-6.60
-6.08
-6.47
-7.43
-8.45
-9.06
-9.06
-8.64
-8.25
-8.47
-9.68
-11.92
-14.77
-17.55
-19.55
-20.23
-19.46
-17.41
-14.52
-11.34
-8.47
-6.46
-5.73
-6.46
-8.41
-10.92
-13.00
-13.66
-12.18
-8.30
-2.26
5.29
13.41
20.85
26.21
28.12
25.65
18.78
8.67
-2.41
-11.74
-16.89
-16.54
-10.83
-1.19
10.24
21.34
30.62
37.34
41.48
43.42
43.61
42.46
40.27
37.33
33.90
30.31
26.85
23.69
20.86
18.23
15.65
12.99
10.23
7.47
4.86
2.53
0.48
-1.48
-3.61
-6.13
-9.10
-12.34
-15.51
-18.31
-20.59
-22.49
-24.24
-26.04
-27.82
-29.27
-29.88
-29.26
-27.26
-24.03
-19.93
-15.35
-10.59
-5.86
-1.33
2.78
6.22
8.79
10.42
11.26
11.66
12.01
12.72
14.02
15.94
18.27
20.65
22.71
24.15
24.83
24.84
24.37
23.63
22.78
21.86
20.86
19.71
18.40
16.96
15.44
13.90
12.39
10.96
9.66
8.59
7.80
7.35
7.23
7.31
7.32
6.97
6.06
4.66
3.16
2.11
2.08
3.35
5.85
9.13
12.60
15.78
18.48
20.82
23.05
25.36
27.80
30.24
32.37
33.91
34.76
35.13
35.44
36.16
37.58
39.91
43.01
46.37
49.16
50.54
50.06
47.69
43.87
39.34
35.31
32.69
31.42
30.20
27.16
20.90
11.10
-1.20
-13.92
-24.25
-30.17
-31.56
-30.21
-28.62
-28.33
-29.46
-30.86
-30.84
-27.15
-18.02
-3.00
16.92
39.71
62.81
82.79
95.55
92.95
70.29
30.88
-14.39
-53.75
-80.89
-95.22
-99.88
-98.70
-94.52
-88.08
-79.43
-69.34
-59.69
-52.65
-48.64
-46.87
-45.85
-44.37
-41.60
-37.77
-34.20
-32.71
-35.68
-42.12
-50.46
-58.97
-66.70
-73.31
-79.14
-85.22
-90.82
-98.36
-108.76
-121.08
-131.94
-136.15
-128.43
-105.97
-70.55
-28.59
10.92
40.81
57.82
63.26
61.43
56.95
52.81
49.75
47.20
44.47
42.17
41.35
42.70
46.33
50.63
54.14
55.82
55.79
54.81
54.11
54.53
56.19
58.45
60.30
61.02
60.45
59.17
58.32
59.46
63.69
70.92
79.28
85.35
85.40
76.83
59.59
36.40
11.92
-9.19
-23.90
-31.69
-34.13
-33.56
-31.89
-29.99
-27.89
-25.40
-22.62
-20.00
-18.01
-16.73
-15.92
-15.08
-13.85
-12.45
-11.58
-12.01
-14.02
-17.04
-19.65
-20.16
-17.37
-11.07
-2.23
7.44
16.15
22.61
26.29
27.32
26.22
23.67
20.28
16.61
13.09
9.95
7.13
4.35
1.20
-2.54
-6.75
-10.91
-14.35
-16.56
-17.46
-17.56
-17.75
-19.04
-22.21
-27.54
-34.69
-42.84
-50.84
-57.52
-61.94
-63.50
-61.94
-57.34
-49.98
-40.37
-29.16
-17.20
-5.37
5.48
14.75
22.10
27.45
30.90
32.59
32.66
31.21
28.43
24.61
20.20
15.80
11.98
9.13
7.31
6.18
5.11
3.46
0.83
-2.75
-6.97
-11.31
-15.32
-18.83
-21.94
-24.97
-28.26
-31.92
-35.63
-38.61
-39.77
-38.15
-33.32
-25.69
-16.51
-7.39
0.23
5.63
8.85
10.52
11.34
11.74
11.80
11.33
10.18
8.45
6.52
4.86
3.83
3.53
3.73
4.11
4.37
4.45
4.57
5.05
6.18
8.02
10.33
12.64
14.47
15.47
15.53
14.83
13.72
12.58
11.78
11.56
12.03
13.24
15.18
17.84
21.22
25.26
29.82
34.56
38.96
42.38
44.21
44.10
42.08
38.67
34.69
31.04
28.34
26.72
25.81
24.91
23.38
20.85
17.32
13.06
8.38
3.51
-1.48
-6.58
-11.79
-17.05
-22.37
-27.86
-33.69
-39.96
-46.39
-52.32
-56.67
-58.38
-56.69
-51.47
-43.33
-33.41
-23.12
-13.80
-6.40
-1.35
1.42
2.38
2.19
1.46
0.61
-0.21
-1.09
-2.24
-3.81
-5.76
-7.90
-9.92
-11.53
-12.62
-13.25
-13.63
-13.96
-14.38
-14.93
-15.58
-16.33
-17.21
-18.23
-19.33
-20.36
-21.04
-21.16
-20.58
-19.33
-17.62
-15.69
-13.77
-12.00
-10.40
-8.92
-7.51
-6.17
-4.90
-3.80
-2.92
-2.32
-1.97
-1.79
-1.65
-1.44
-1.10
-0.69
-0.35
-0.23
-0.47
-1.15
-2.30
-3.89
-5.84
-7.96
-10.01
-11.70
-12.84
-13.40
-13.54
-13.54
-13.58
-13.68
-13.68
-13.33
-12.40
-10.77
-8.38
-5.21
-1.28
3.26
8.11
12.85
17.07
20.62
23.62
26.38
29.17
32.05
34.80
37.14
38.93
40.30
41.60
43.16
45.12
47.38
49.65
51.62
53.03
53.75
53.69
52.80
51.10
48.67
45.69
42.30
38.52
34.23
29.13
22.97
15.66
7.41
-1.33
-9.96
-18.03
-25.32
-31.93
-38.14
-44.13
-49.79
-54.66
-58.01
-59.18
-57.85
-54.14
-48.62
-42.06
-35.22
-28.68
-22.84
-17.89
-13.94
-10.96
-8.82
-7.30
-6.12
-4.99
-3.70
-2.11
-0.12
2.23
4.85
7.58
10.26
12.81
15.31
18.02
21.23
25.21
30.08
35.75
41.96
48.26
54.06
58.63
61.26
61.43
59.14
54.99
50.18
46.11
43.91
43.85
45.15
46.15
44.92
40.01
31.03
18.76
4.78
-9.23
-21.97
-32.79
-41.47
-47.77
-51.23
-51.25
-47.40
-39.87
-29.53
-17.66
-5.48
6.23
17.04
26.49
33.76
37.66
37.00
31.33
21.41
9.16
-2.89
-12.48
-18.37
-20.50
-19.74
-17.22
-13.84
-9.98
-5.60
-0.52
5.36
11.90
18.70
25.16
30.57
34.21
35.49
34.09
30.12
24.13
17.06
10.03
4.17
0.42
-0.61
1.34
6.08
13.07
21.40
30.00
37.87
44.24
48.75
51.43
52.53
52.33
50.92
48.12
43.57
36.86
27.85
16.81
4.54
-7.77
-18.79
-27.39
-32.97
-35.55
-35.70
-34.25
-31.99
-29.49
-27.10
-25.07
-23.64
-23.07
-23.54
-25.01
-27.22
-29.78
-32.42
-35.14
-38.21
-41.99
-46.66
-51.96
-57.25
-61.69
-64.57
-65.59
-65.01
-63.50
-62.03
-61.60
-63.12
-67.20
-73.88
-82.46
-91.31
-98.18
-100.79
-97.72
-89.05
-76.43
-62.57
-50.24
-41.35
-36.42
-34.72
-34.75
-34.87
-33.73
-30.56
-25.21
-18.07
-10.06
-2.43
3.45
6.41
5.78
1.51
-5.70
-14.62
-23.74
-31.63
-37.33
-40.58
-41.88
-42.30
-43.04
-45.07
-48.79
-53.89
-59.54
-64.55
-67.78
-68.37
-65.93
-60.64
-53.15
-44.40
-35.39
-26.85
-19.11
-12.07
-5.29
1.75
9.47
18.05
27.44
37.35
47.31
56.63
64.48
70.07
72.91
73.03
71.09
68.21
65.60
64.08
63.95
64.90
66.34
67.64
68.31
68.02
66.55
63.75
59.63
54.41
48.59
42.85
37.81
33.84
30.98
28.95
27.31
25.61
23.50
20.71
17.06
12.53
7.29
1.80
-3.31
-7.29
-9.56
-9.82
-8.18
-5.04
-1.04
3.15
6.98
10.11
12.44
14.12
15.45
16.73
18.19
19.85
21.63
23.36
24.85
25.95
26.47
26.22
25.01
22.76
19.54
15.69
11.68
8.04
5.20
3.45
2.82
3.18
4.26
5.70
7.09
8.10
8.45
8.01
6.75
4.71
2.03
-1.14
-4.61
-8.18
-11.63
-14.83
-17.63
-19.88
-21.36
-21.79
-20.89
-18.57
-14.96
-10.50
-5.81
-1.48
2.06
4.67
6.44
7.58
8.26
8.56
8.52
8.16
7.61
7.14
7.02
7.44
8.41
9.71
11.00
11.95
12.41
12.40
12.11
11.74
11.40
11.05
10.56
9.81
8.72
7.34
5.78
4.21
2.76
1.51
0.46
-0.43
-1.28
-2.17
-3.19
-4.37
-5.67
-6.91
-7.74
-7.70
-6.32
-3.33
1.19
6.72
12.43
17.46
21.21
23.57
24.85
25.65
26.44
27.42
28.48
29.35
29.79
29.74
29.20
28.14
26.30
23.25
18.65
12.46
5.23
-2.05
-8.18
-12.17
-13.61
-12.76
-10.56
-8.27
-7.24
-8.53
-12.62
-19.29
-27.55
-35.95
-42.92
-47.27
-48.50
-46.82
-43.04
-38.23
-33.46
-29.51
-26.79
-25.31
-24.67
-24.21
-23.12
-20.73
-16.60
-10.74
-3.57
4.11
11.28
16.97
20.41
21.34
20.03
17.28
14.06
11.24
9.27
8.07
7.21
6.19
4.69
2.71
0.42
-2.00
-4.55
-7.45
-10.99
-15.30
-20.16
-24.94
-28.85
-31.29
-32.22
-32.18
-32.04
-32.54
-33.80
-35.26
-35.84
-34.51
-30.86
-25.36
-19.24
-14.04
-11.04
-10.73
-12.67
-15.64
-17.96
-18.06
-14.87
-8.10
1.74
13.52
25.83
37.28
46.78
53.55
57.24
57.90
56.01
52.42
48.31
44.92
43.25
43.85
46.62
50.90
55.66
59.76
62.14
61.96
58.59
51.75
41.53
28.53
13.91
-0.77
-13.83
-23.85
-30.02
-32.34
-31.51
-28.73
-25.29
-22.26
-20.28
-19.41
-19.33
-19.56
-19.72
-19.74
-19.79
-20.09
-20.70
-21.38
-21.60
-20.84
-18.73
-15.23
-10.47
-4.68
2.02
9.49
17.49
25.46
32.56
37.91
40.86
41.32
39.83
37.34
34.86
33.05
32.03
31.36
30.21
27.62
22.88
15.72
6.53
-3.72
-13.75
-22.37
-28.88
-33.31
-36.22
-38.29
-39.93
-41.03
-41.11
-39.68
-36.64
-32.36
-27.62
-23.22
-19.75
-17.45
-16.35
-16.37
-17.39
-19.23
-21.46
-23.45
-24.40
-23.68
-21.05
-16.76
-11.45
-5.89
-0.67
3.91
7.83
11.21
14.15
16.69
18.82
20.58
22.04
23.31
24.40
25.28
25.81
25.85
25.32
24.28
22.87
21.30
19.77
18.42
17.36
16.60
16.13
15.87
15.73
15.61
15.47
15.31
15.16
15.03
14.86
14.53
13.91
12.93
11.62
10.15
8.74
7.60
6.94
6.93
7.77
9.58
12.32
15.72
19.22
22.06
23.60
23.46
21.69
18.65
14.87
10.79
6.72
2.82
-0.73
-3.72
-5.87
-7.04
-7.29
-6.95
-6.48
-6.29
-6.61
-7.40
-8.48
-9.62
-10.71
-11.71
-12.62
-13.34
-13.69
-13.45
-12.48
-10.85
-8.81
-6.74
-4.98
-3.69
-2.88
-2.38
-2.04
-1.82
-1.86
-2.49
-4.04
-6.72
-10.44
-14.83
-19.25
-23.05
-25.72
-27.07
-27.23
-26.52
-25.31
-23.89
-22.44
-21.04
-19.72
-18.50
-17.39
-16.37
-15.32
-14.10
-12.54
-10.60
-8.32
-5.91
-3.65
-1.82
-0.68
-0.35
-0.86
-2.10
-3.86
-5.85
-7.76
-9.31
-10.29
-10.65
-10.43
-9.77
-8.81
-7.67
-6.46
-5.34
-4.56
-4.48
-5.48
-7.85
-11.60
-16.41
-21.66
-26.60
-30.48
-32.77
-33.27
-32.10
-29.70
-26.66
-23.56
-20.86
-18.71
-16.95
-15.20
-12.93
-9.72
-5.42
-0.25
5.24
10.31
14.26
16.68
17.58
17.41
16.85
16.62
17.13
18.41
20.02
21.35
21.80
21.11
19.40
17.15
14.90
13.09
11.81
10.83
9.73
8.13
5.84
2.88
-0.53
-4.05
-7.30
-9.87
-11.45
-11.91
-11.48
-10.82
-10.85
-12.45
-16.01
-21.19
-26.88
-31.53
-33.73
-32.75
-28.86
-23.19
-17.33
-12.57
-9.45
-7.57
-5.83
-2.97
1.89
8.95
17.70
27.04
35.56
41.65
43.77
40.93
33.22
22.17
10.58
1.74
-1.76
1.00
9.01
19.86
30.80
39.68
45.34
47.50
46.29
41.98
35.10
26.62
18.06
11.21
7.55
7.68
10.99
15.92
20.39
22.48
20.89
15.20
5.86
-5.91
-18.35
-29.54
-37.82
-42.23
-42.73
-40.07
-35.45
-30.00
-24.34
-18.65
-12.85
-7.16
-2.25
0.82
1.17
-1.43
-6.22
-11.65
-15.97
-17.90
-17.05
-13.88
-9.40
-4.57
-0.04
3.94
7.31
10.03
11.87
12.63
12.17
10.65
8.51
6.29
4.48
3.29
2.67
2.34
2.00
1.42
0.56
-0.49
-1.60
-2.71
-3.84
-5.12
-6.67
-8.49
-10.42
-12.15
-13.23
-13.28
-12.09
-9.68
-6.30
-2.33
1.83
5.86
9.58
12.89
15.80
18.32
20.40
21.96
22.87
23.01
22.41
21.22
19.69
18.13
16.74
15.57
14.47
13.28
11.86
10.21
8.46
6.83
5.48
4.53
3.97
3.70
3.58
3.40
2.99
2.29
1.32
0.28
-0.58
-1.08
-1.20
-1.21
-1.69
-3.29
-6.60
-11.80
-18.52
-25.87
-32.66
-37.78
-40.55
-40.85
-39.01
-35.56
-30.95
-25.42
-19.08
-12.08
-4.74
2.35
8.57
13.43
16.76
18.78
19.99
20.99
22.37
24.57
27.80
31.89
36.20
39.65
41.03
39.42
34.62
27.36
19.09
11.37
5.34
1.31
-1.12
-2.77
-4.40
-6.49
-9.21
-12.56
-16.49
-20.90
-25.53
-29.95
-33.63
-36.12
-37.23
-37.11
-36.19
-34.98
-33.79
-32.68
-31.43
-29.71
-27.23
-23.92
-19.95
-15.65
-11.37
-7.40
-3.94
-1.08
1.13
2.72
3.75
4.36
4.74
5.10
5.61
6.34
7.26
8.29
9.33
10.30
11.18
11.98
12.70
13.37
14.01
14.60
15.11
15.45
15.51
15.22
14.55
13.57
12.38
11.13
9.90
8.71
7.50
6.19
4.68
2.95
1.06
-0.81
-2.40
-3.41
-3.58
-2.74
-0.91
1.72
4.78
7.85
10.53
12.59
13.95
14.70
14.99
14.97
14.69
14.20
13.47
12.58
11.63
10.75
10.07
9.65
9.46
9.43
9.47
9.47
9.29
8.82
7.95
6.71
5.22
3.64
2.07
0.55
-1.01
-2.70
-4.53
-6.35
-7.95
-9.12
-9.84
-10.24
-10.51
-10.83
-11.28
-11.91
-12.79
-14.06
-15.88
-18.25
-20.82
-22.99
-24.03
-23.42
-21.08
-17.42
-13.10
-8.82
-5.02
-1.82
0.85
3.16
5.19
6.94
8.32
9.27
9.72
9.63
9.02
7.96
6.62
5.25
4.10
3.35
3.05
3.18
3.68
4.48
5.58
6.92
8.39
9.80
10.91
11.50
11.42
10.57
8.98
6.67
3.77
0.46
-3.01
-6.37
-9.43
-12.09
-14.33
-16.15
-17.50
-18.17
-17.91
-16.46
-13.74
-9.89
-5.31
-0.54
3.92
7.79
10.98
13.59
15.74
17.48
18.77
19.56
19.87
19.84
19.71
19.70
19.94
20.36
20.80
21.09
21.17
21.10
21.03
21.04
21.09
21.01
20.55
19.60
18.18
16.46
14.63
12.80
10.96
9.05
7.03
4.99
3.15
1.70
0.68
-0.08
-0.93
-2.22
-4.19
-6.82
-9.94
-13.27
-16.55
-19.54
-21.99
-23.57
-23.89
-22.62
-19.67
-15.28
-10.01
-4.57
0.43
4.59
7.76
10.01
11.44
12.20
12.37
12.05
11.34
10.34
9.16
7.92
6.72
5.66
4.76
3.96
3.14
2.17
0.96
-0.46
-1.98
-3.48
-4.93
-6.46
-8.32
-10.81
-14.12
-18.20
-22.77
-27.28
-31.10
-33.70
-34.76
-34.27
-32.59
-30.29
-28.03
-26.46
-26.03
-26.97
-29.17
-32.20
-35.43
-38.20
-39.99
-40.59
-39.99
-38.31
-35.59
-31.79
-26.89
-21.06
-14.86
-9.18
-5.01
-3.17
-4.01
-7.36
-12.50
-18.32
-23.50
-26.75
-27.10
-24.26
-18.69
-11.55
-4.33
1.68
5.76
7.88
8.60
8.73
9.03
9.97
11.73
14.13
16.74
18.97
20.26
20.25
18.95
16.72
14.15
11.74
9.82
8.41
7.40
6.62
5.94
5.29
4.54
3.55
2.19
0.49
-1.26
-2.54
-2.70
-1.26
1.87
6.30
11.20
15.66
18.93
20.69
21.03
20.26
18.73
16.64
14.13
11.44
9.07
7.76
8.27
11.11
16.21
22.96
30.34
37.17
42.35
44.97
44.36
40.18
32.56
22.20
10.34
-1.50
-11.85
-19.68
-24.64
-26.98
-27.33
-26.49
-25.15
-23.95
-23.34
-23.61
-24.81
-26.60
-28.32
-29.11
-28.24
-25.31
-20.45
-14.30
-7.80
-2.00
2.24
4.41
4.43
2.67
-0.12
-3.02
-5.16
-5.94
-5.17
-3.15
-0.45
2.23
4.37
5.70
6.31
6.52
6.73
7.27
8.28
9.67
11.17
12.38
12.94
12.54
11.02
8.44
5.08
1.40
-2.04
-4.74
-6.49
-7.40
-7.93
-8.69
-10.10
-12.27
-14.91
-17.50
-19.56
-20.86
-21.47
-21.54
-21.09
-19.81
-17.09
-12.21
-4.67
5.58
18.04
31.61
44.80
55.78
62.76
64.34
60.11
50.98
39.28
28.25
21.06
19.77
24.60
33.89
44.77
54.18
59.82
60.67
56.94
49.66
40.24
30.01
20.08
11.32
4.28
-0.76
-3.86
-5.37
-5.90
-6.19
-6.87
-8.38
-10.77
-13.79
-17.02
-20.04
-22.64
-24.84
-26.81
-28.66
-30.34
-31.64
-32.31
-32.24
-31.54
-30.45
-29.24
-28.04
-26.80
-25.41
-23.79
-21.99
-20.15
-18.41
-16.81
-15.27
-13.60
-11.68
-9.53
-7.26
-5.09
-3.16
-1.58
-0.31
0.71
1.55
2.26
2.84
3.28
3.52
3.50
3.17
2.51
1.52
0.24
-1.30
-3.09
-5.14
-7.41
-9.84
-12.37
-15.01
-17.88
-21.14
-24.71
-28.23
-30.90
-31.72
-29.85
-25.01
-17.56
-8.54
0.74
8.93
15.01
18.33
18.69
16.29
11.76
6.03
0.21
-4.68
-7.91
-9.23
-8.77
-6.94
-4.23
-1.06
2.31
5.77
9.37
13.18
17.25
21.50
25.63
29.20
31.68
32.64
31.81
29.18
24.93
19.32
12.64
5.20
-2.68
-10.56
-17.97
-24.40
-29.47
-33.04
-35.28
-36.55
-37.34
-38.01
-38.62
-38.97
-38.60
-37.04
-33.98
-29.44
-23.68
-17.21
-10.57
-4.31
1.11
5.36
8.22
9.65
9.83
9.12
8.04
7.07
6.60
6.80
7.67
9.07
10.79
12.61
14.34
15.78
16.81
17.32
17.23
16.51
15.15
13.14
10.60
7.71
4.77
2.14
0.12
-1.08
-1.46
-1.30
-1.12
-1.70
-3.81
-7.94
-13.93
-20.79
-26.84
-30.08
-28.93
-22.73
-11.99
1.68
15.95
28.31
36.45
38.83
35.09
26.34
15.13
4.81
-1.46
-1.85
3.53
12.85
23.41
32.85
40.03
45.16
49.26
53.45
58.26
63.62
69.14
74.57
79.98
85.66
91.67
97.48
101.91
103.45
100.83
93.60
82.39
68.62
54.05
40.17
27.84
17.34
8.64
1.61
-3.81
-7.72
-10.45
-12.47
-14.30
-16.12
-17.66
-18.24
-17.10
-13.79
-8.50
-2.00
4.48
9.64
12.37
12.00
8.31
1.55
-7.72
-18.75
-30.64
-42.48
-53.43
-62.83
-70.38
-76.18
-80.64
-84.19
-86.95
-88.52
-88.20
-85.40
-80.26
-73.80
-67.70
-63.57
-62.24
-63.46
-66.07
-68.63
-70.04
-69.78
-67.87
-64.55
-60.01
-54.40
-47.98
-41.26
-34.92
-29.59
-25.48
-22.24
-19.03
-14.93
-9.31
-2.12
6.11
14.56
22.44
29.27
34.92
39.46
42.91
45.15
45.87
44.78
41.78
37.11
31.37
25.41
20.13
16.28
14.37
14.50
16.44
19.65
23.38
26.80
29.13
29.76
28.46
25.48
21.53
17.66
14.93
14.07
15.19
17.75
20.76
23.06
23.63
21.85
17.54
11.06
3.26
-4.65
-11.36
-15.74
-17.20
-15.84
-12.41
-8.03
-3.85
-0.73
0.91
1.10
0.21
-1.22
-2.59
-3.54
-4.07
-4.80
-6.87
-11.61
-19.92
-31.64
-45.25
-58.06
-67.00
-69.75
-65.50
-55.28
-41.50
-26.91
-13.76
-3.21
4.59
10.02
13.50
15.24
15.27
13.82
11.43
8.89
6.97
6.02
5.86
5.83
5.23
3.61
1.05
-1.93
-4.60
-6.37
-6.98
-6.51
-5.28
-3.61
-1.72
0.31
2.51
4.93
7.53
10.26
12.98
15.53
17.66
19.16
19.91
20.07
20.07
20.57
22.14
24.94
28.51
31.85
33.85
33.65
31.04
26.35
20.34
13.82
7.49
1.84
-2.75
-6.06
-8.07
-9.00
-9.28
-9.47
-10.12
-11.75
-14.81
-19.74
-26.81
-35.89
-46.14
-56.08
-63.93
-68.11
-67.88
-63.46
-55.88
-46.44
-36.24
-25.90
-15.67
-5.64
3.96
12.72
20.16
25.92
29.83
31.92
32.32
31.18
28.72
25.27
21.29
17.34
13.91
11.28
9.52
8.50
8.09
8.23
8.95
10.29
12.19
14.47
16.82
19.03
21.00
22.84
24.81
27.28
30.62
35.10
40.65
46.68
51.96
54.75
53.31
46.40
33.88
16.83
-2.62
-21.78
-38.02
-49.25
-54.33
-53.18
-46.80
-37.01
-25.98
-15.65
-7.16
-0.76
4.08
8.17
12.06
15.86
19.31
22.11
24.20
25.85
27.46
29.28
31.17
32.62
33.03
32.08
30.01
27.55
25.65
24.97
25.61
27.06
28.57
29.46
29.36
28.10
25.46
21.07
14.61
6.20
-3.24
-12.12
-18.85
-22.61
-23.83
-24.06
-25.11
-28.18
-33.16
-38.77
-43.11
-44.59
-42.48
-37.11
-29.61
-21.37
-13.54
-6.66
-0.64
5.09
11.08
17.47
23.74
28.95
32.09
32.60
30.59
26.67
21.54
15.66
9.11
1.86
-5.92
-13.62
-20.32
-25.12
-27.44
-27.26
-25.03
-21.53
-17.58
-13.93
-11.08
-9.23
-8.28
-7.92
-7.81
-7.75
-7.79
-8.15
-9.10
-10.74
-12.99
-15.61
-18.40
-21.34
-24.55
-28.12
-31.91
-35.41
-37.78
-38.18
-36.09
-31.62
-25.50
-18.82
-12.63
-7.54
-3.60
-0.44
2.44
5.37
8.39
11.32
13.88
15.71
16.45
15.72
13.22
8.95
3.27
-2.99
-8.80
-13.18
-15.53
-15.72
-14.07
-11.17
-7.64
-3.98
-0.53
2.55
5.22
7.49
9.37
10.80
11.61
11.59
10.58
8.56
5.69
2.29
-1.30
-4.81
-8.03
-10.88
-13.28
-15.11
-16.22
-16.40
-15.41
-13.06
-9.21
-3.89
2.66
9.90
17.13
23.62
28.90
32.89
35.89
38.29
40.30
41.71
41.92
40.28
36.42
30.60
23.66
16.81
11.14
7.28
5.16
4.17
3.41
2.07
-0.25
-3.44
-6.97
-10.12
-12.30
-13.26
-13.14
-12.31
-11.17
-9.91
-8.46
-6.57
-3.89
-0.18
4.71
10.61
17.02
22.93
27.00
27.86
24.70
17.82
8.74
-0.18
-6.59
-8.99
-7.29
-2.75
2.57
6.60
7.87
5.78
0.47
-7.38
-16.84
-26.92
-36.61
-44.97
-51.28
-55.15
-56.72
-56.60
-55.65
-54.62
-53.74
-52.61
-50.38
-46.17
-39.65
-31.21
-21.98
-13.40
-6.72
-2.65
-1.22
-1.91
-3.91
-6.38
-8.62
-10.24
-11.28
-12.28
-14.07
-17.49
-22.78
-29.21
-34.98
-37.80
-35.70
-27.89
-15.17
0.41
16.27
30.20
40.98
48.43
53.17
56.23
58.77
61.87
66.37
72.70
80.65
89.24
96.86
101.67
102.12
97.35
87.50
73.62
57.45
41.02
26.22
14.43
6.29
1.75
0.20
0.82
2.86
5.83
9.46
13.65
18.18
22.70
26.63
29.36
30.47
29.92
28.05
25.52
23.02
21.03
19.71
18.87
18.23
17.53
16.69
15.79
14.92
14.12
13.29
12.34
11.25
10.17
9.40
9.14
9.38
9.79
9.86
9.07
7.06
3.63
-1.29
-7.83
-16.13
-26.29
-38.20
-51.35
-65.04
-78.53
-91.32
-103.16
-113.96
-123.49
-131.35
-136.83
-139.26
-138.38
-134.55
-128.77
-122.20
-115.70
-109.46
-103.33
-96.70
-88.99
-79.94
-69.77
-58.99
-47.97
-36.63
-24.52
-11.61
1.85
15.11
27.02
36.48
42.66
45.41
45.19
42.71
38.04
31.50
23.90
16.61
11.30
8.75
8.39
8.19
9.13
10.72
12.38
13.94
15.68
17.70
18.94
17.96
14.19
8.71
3.34
0.15
0.12
1.29
2.53
2.55
0.91
-1.53
-3.16
-3.09
-1.29
1.24
3.07
3.40
2.33
1.19
2.35
7.71
17.73
31.43
46.74
61.30
73.44
82.36
88.25
91.89
93.99
94.83
94.37
92.51
89.32
85.18
80.49
75.62
70.80
65.95
60.75
54.89
48.10
40.39
31.97
23.06
13.88
4.52
-5.10
-15.03
-25.00
-34.55
-43.18
-50.55
-56.66
-61.62
-65.66
-69.09
-72.05
-74.22
-75.23
-74.77
-72.86
-69.70
-65.26
-59.48
-52.42
-44.24
-34.83
-24.15
-12.32
0.10
12.17
23.28
33.05
41.23
47.92
54.04
61.01
70.60
83.61
99.28
115.43
128.55
134.22
124.66
95.64
50.75
1.04
-41.71
-72.54
-92.04
-102.39
-107.03
-110.77
-115.43
-123.83
-137.16
-154.24
-171.10
-181.52
-179.05
-160.03
-118.59
-59.81
2.26
53.31
86.25
102.03
105.57
102.51
96.88
90.98
85.85
82.55
82.81
84.83
84.57
77.16
59.93
32.84
-2.16
-42.02
-80.22
-110.57
-128.26
-130.19
-114.98
-84.93
-41.85
8.81
59.08
102.04
133.90
154.77
166.57
164.01
146.51
116.21
77.20
35.75
0.45
-25.28
-40.18
-45.80
-45.71
-42.69
-38.80
-35.16
-31.76
-29.03
-28.36
-30.88
-37.70
-48.25
-59.00
-65.82
-65.84
-58.76
-48.15
-36.64
-25.96
-16.85
-9.01
-0.99
8.27
18.83
29.75
39.51
46.94
51.66
54.09
55.22
56.26
55.49
51.65
44.39
34.47
23.31
12.16
1.87
-7.14
-14.65
-20.86
-25.74
-28.92
-30.02
-28.76
-25.35
-20.38
-14.93
-10.47
-8.54
-10.37
-16.38
-25.74
-36.39
-45.64
-50.91
-50.71
-45.08
-35.44
-23.66
-11.60
-0.55
8.23
13.27
13.96
11.06
6.34
1.67
-0.92
-1.04
1.03
4.51
8.48
12.32
15.14
16.75
17.49
18.04
18.94
20.42
21.98
22.66
21.39
17.36
10.42
1.09
-9.52
-20.09
-29.36
-36.52
-41.35
-44.06
-45.24
-45.50
-45.38
-45.17
-44.80
-43.92
-42.07
-38.87
-34.22
-28.34
-21.63
-14.57
-7.49
-0.55
6.21
12.70
18.60
23.45
26.82
28.56
28.90
28.38
27.59
26.98
26.69
26.57
26.37
25.93
25.23
24.39
23.48
22.45
21.12
19.25
16.72
13.54
9.87
5.85
1.60
-2.86
-7.47
-12.12
-16.58
-20.61
-24.04
-26.82
-29.00
-30.61
-31.58
-31.63
-30.36
-27.34
-22.33
-15.41
-7.04
2.00
10.76
18.37
24.19
27.93
29.63
29.49
27.78
24.73
20.57
15.61
10.27
5.03
0.33
-3.56
-6.51
-8.55
-9.73
-10.14
-9.86
-9.02
-7.84
-6.60
-5.50
-4.56
-3.64
-2.46
-0.80
1.37
3.88
6.46
8.83
10.82
12.36
13.35
13.71
13.32
12.20
10.50
8.59
6.88
5.68
5.15
5.31
6.16
7.73
10.14
13.47
17.68
22.55
27.69
32.63
36.85
39.87
41.24
40.69
38.18
34.05
29.00
23.96
19.80
17.07
15.91
16.07
17.07
18.50
20.16
22.13
24.67
28.04
32.27
36.99
41.38
44.28
44.45
41.02
33.81
23.62
12.03
1.08
-7.41
-12.23
-13.11
-10.60
-5.77
0.18
6.15
11.37
15.35
17.92
19.16
19.43
19.29
19.33
20.00
21.48
23.62
26.01
28.19
29.78
30.67
31.08
31.48
32.39
34.15
36.71
39.53
41.70
42.18
40.11
35.17
27.58
18.04
7.50
-3.06
-12.75
-20.90
-26.96
-30.65
-31.96
-31.30
-29.48
-27.60
-26.63
-27.12
-29.06
-32.05
-35.53
-39.05
-42.50
-46.15
-50.57
-55.96
-61.88
-67.35
-71.19
-72.63
-71.65
-69.14
-66.59
-65.45
-66.09
-67.65
-68.67
-67.78
-64.40
-58.51
-50.30
-39.86
-27.44
-13.54
-0.16
8.83
8.85
-3.81
-28.89
-60.86
-90.02
-108.45
-114.49
-112.86
-109.38
-105.78
-98.49
-80.99
-48.51
-2.05
50.94
100.83
140.97
168.19
183.37
189.76
190.13
184.95
172.59
146.78
110.09
69.44
32.74
5.52
-10.76
-18.25
-20.70
-22.28
-24.28
-25.42
-24.36
-20.50
-14.58
-7.98
-2.20
1.71
3.22
2.52
0.73
-1.47
-3.67
-6.59
-11.25
-18.30
-27.53
-37.83
-47.38
-53.93
-56.02
-50.95
-38.91
-23.08
-8.05
2.84
8.79
11.11
11.33
10.98
10.35
8.51
4.63
-1.32
-8.65
-15.72
-21.48
-25.57
-28.15
-29.75
-31.16
-32.61
-33.70
-33.76
-32.57
-30.41
-27.73
-24.76
-21.53
-18.02
-14.04
-9.37
-2.63
6.00
15.04
22.68
28.04
31.33
33.32
34.78
36.19
37.60
38.60
38.95
38.60
37.88
37.18
36.71
36.44
36.17
35.60
34.36
32.30
29.51
26.31
23.06
20.02
17.39
15.39
14.24
13.91
14.17
14.45
14.07
12.44
9.29
4.90
-0.07
-4.82
-8.79
-11.78
-14.00
-15.89
-18.05
-21.02
-25.10
-30.17
-35.80
-41.35
-46.22
-50.01
-52.57
-53.85
-53.81
-52.32
-49.31
-44.99
-39.96
-35.16
-31.68
-30.31
-31.38
-34.56
-38.96
-43.28
-46.05
-46.02
-42.47
-35.49
-25.99
-15.46
-5.43
3.07
9.80
15.26
20.32
25.59
31.13
36.28
39.99
41.22
39.41
34.65
27.69
19.60
11.52
4.32
-1.54
-6.03
-9.52
-12.70
-16.31
-20.97
-26.78
-33.18
-38.86
-42.17
-41.60
-36.44
-27.07
-14.82
-1.41
11.66
23.56
34.11
43.42
51.51
58.17
62.99
65.57
65.66
63.24
58.49
51.79
43.77
35.40
27.90
22.48
19.85
19.95
21.91
24.41
26.09
25.92
23.60
19.55
14.68
9.88
5.72
2.18
-1.14
-4.81
-9.35
-14.94
-21.30
-27.99
-34.57
-40.60
-45.58
-48.35
-47.61
-43.23
-36.79
-30.76
-27.11
-26.45
-27.66
-29.57
-31.26
-32.37
-33.17
-34.02
-34.94
-35.72
-35.82
-34.77
-32.62
-29.81
-27.03
-24.84
-23.37
-22.28
-21.01
-19.15
-16.66
-13.87
-11.15
-8.82
-7.03
-5.77
-4.88
-4.21
-3.65
-3.24
-3.15
-3.49
-4.32
-5.59
-7.16
-8.89
-10.63
-12.28
-13.76
-14.90
-15.37
-14.72
-12.52
-8.59
-3.11
3.39
10.21
16.65
22.24
26.77
30.26
32.78
34.40
35.15
35.11
34.44
33.36
32.06
30.66
29.11
27.34
25.30
23.06
20.82
18.78
17.07
15.72
14.63
13.63
12.61
11.51
10.32
9.12
7.99
7.01
6.24
5.74
5.49
5.49
5.71
6.18
6.91
8.00
9.50
11.39
13.63
16.20
19.21
22.83
27.28
32.59
38.53
44.56
49.90
53.80
55.78
55.77
54.12
51.35
48.00
44.63
41.58
38.98
36.71
34.49
32.01
29.04
25.53
21.63
17.85
14.59
11.83
9.15
6.04
2.25
-2.03
-6.31
-10.06
-12.31
-12.55
-10.98
-8.34
-5.49
-2.94
-0.84
0.82
2.06
3.83
6.83
11.08
15.91
20.51
24.62
28.46
32.58
37.44
44.57
54.81
67.77
81.90
95.25
106.48
114.95
120.52
115.33
95.33
62.42
24.11
-11.41
-39.51
-59.21
-71.57
-78.32
-81.09
-79.95
-75.26
-67.83
-59.32
-51.64
-46.02
-42.75
-41.42
-41.29
-40.74
-38.77
-35.60
-32.01
-29.40
-28.70
-30.09
-33.10
-36.96
-40.34
-42.34
-42.77
-42.17
-41.34
-40.70
-40.18
-39.39
-37.87
-35.07
-30.93
-25.97
-21.27
-17.99
-16.86
-17.95
-20.72
-24.31
-27.76
-30.39
-31.89
-32.29
-31.78
-30.51
-28.52
-25.91
-22.86
-19.69
-16.76
-14.37
-12.65
-11.58
-10.98
-10.63
-10.31
-9.93
-9.51
-9.14
-8.96
-9.05
-9.43
-10.02
-10.65
-11.12
-11.28
-11.10
-10.65
-10.10
-9.62
-9.36
-9.39
-9.74
-10.35
-11.08
-11.71
-11.98
-11.62
-10.43
-8.40
-5.65
-2.42
1.03
4.48
7.80
10.87
13.62
15.94
17.74
18.98
19.66
19.82
19.56
18.98
18.18
17.25
16.24
15.22
14.26
13.50
13.09
13.14
13.64
14.39
15.02
15.13
14.47
12.99
10.94
8.64
6.43
4.49
2.80
1.23
-0.36
-2.01
-3.69
-5.33
-6.88
-8.32
-9.63
-10.71
-11.36
-11.33
-10.43
-8.65
-6.19
-3.39
-0.62
1.83
3.83
5.40
6.57
7.40
7.87
7.96
7.68
7.11
6.40
5.71
5.18
4.82
4.60
4.40
4.11
3.68
3.14
2.55
1.97
1.42
0.84
0.16
-0.71
-1.73
-2.84
-3.94
-4.96
-5.92
-6.95
-8.16
-9.65
-11.40
-13.28
-15.05
-16.42
-17.14
-17.05
-16.13
-14.46
-12.24
-9.67
-6.97
-4.26
-1.62
0.88
3.16
5.04
6.33
6.91
6.80
6.20
5.43
4.84
4.65
4.91
5.50
6.28
7.08
7.84
8.52
9.11
9.51
9.64
9.40
8.74
7.72
6.46
5.09
3.75
2.53
1.46
0.53
-0.32
-1.24
-2.36
-3.82
-5.68
-7.81
-9.93
-11.65
-12.55
-12.32
-10.90
-8.48
-5.42
-2.13
1.08
4.08
6.84
9.36
11.58
13.36
14.53
15.07
15.09
14.88
14.71
14.80
15.14
15.60
15.96
16.07
15.96
15.79
15.80
16.16
16.89
17.80
18.57
18.85
18.47
17.47
16.17
15.05
14.56
15.00
16.45
18.72
21.48
24.28
26.63
28.08
28.36
27.42
25.51
23.06
20.51
18.13
15.87
13.40
10.22
5.88
0.22
-6.63
-14.16
-21.69
-28.52
-34.02
-37.87
-39.98
-40.52
-39.77
-38.08
-35.76
-33.09
-30.31
-27.65
-25.27
-23.20
-21.33
-19.50
-17.47
-15.13
-12.46
-9.57
-6.69
-4.08
-2.01
-0.67
-0.17
-0.45
-1.30
-2.44
-3.56
-4.47
-5.15
-5.78
-6.63
-7.96
-9.86
-12.16
-14.48
-16.31
-17.15
-16.71
-14.95
-12.10
-8.55
-4.68
-0.81
2.84
6.11
8.85
10.88
12.07
12.39
11.99
11.22
10.43
9.95
9.94
10.34
11.01
11.75
12.40
12.84
13.00
12.83
12.33
11.54
10.57
9.51
8.41
7.24
5.94
4.44
2.76
1.01
-0.66
-2.11
-3.30
-4.30
-5.26
-6.32
-7.59
-9.08
-10.71
-12.35
-13.79
-14.82
-15.16
-14.62
-13.10
-10.67
-7.56
-4.11
-0.60
2.74
5.80
8.51
10.77
12.47
13.49
13.85
13.70
13.33
13.02
12.98
13.28
13.83
14.47
15.03
15.35
15.32
14.92
14.22
13.36
12.55
11.97
11.71
11.71
11.81
11.81
11.56
11.07
10.54
10.39
11.11
13.05
16.19
19.99
23.44
25.28
24.43
20.38
13.41
4.52
-4.77
-12.89
-18.56
-21.01
-20.07
-16.05
-9.59
-1.46
7.54
16.64
25.13
32.42
38.08
41.97
44.32
45.65
46.71
48.08
50.00
52.16
53.82
54.13
52.56
49.17
44.68
40.19
36.86
35.48
36.27
38.76
41.76
43.49
41.89
35.28
23.07
6.34
-12.11
-28.56
-39.57
-43.31
-40.28
-33.12
-25.51
-20.75
-20.67
-25.28
-33.21
-42.55
-51.67
-59.58
-65.83
-70.20
-72.46
-72.38
-69.98
-65.84
-61.13
-57.29
-55.48
-56.11
-58.58
-61.55
-63.39
-62.76
-59.08
-52.73
-44.96
-37.56
-32.31
-30.38
-31.85
-35.63
-39.75
-42.10
-41.24
-36.94
-30.17
-22.60
-15.75
-10.35
-6.23
-2.58
1.42
6.24
11.80
17.59
22.86
26.75
28.59
28.01
25.30
21.34
17.54
15.34
15.77
19.17
25.15
32.94
41.59
50.32
58.40
65.21
70.22
73.11
73.93
73.16
71.54
69.78
68.31
67.18
66.07
64.50
62.10
58.75
54.67
50.31
46.22
42.84
40.36
38.70
37.61
36.76
35.94
35.11
34.33
33.69
33.16
32.56
31.67
30.38
28.86
27.52
26.89
27.38
29.10
31.83
35.14
38.58
41.83
44.65
46.85
48.19
48.40
47.21
44.40
39.76
33.03
23.94
12.23
-2.19
-19.02
-37.62
-57.05
-76.27
-94.31
-110.37
-123.81
-134.09
-140.85
-143.86
-143.23
-139.40
-133.11
-125.28
-116.85
-108.59
-100.99
-94.21
-88.17
-82.60
-77.20
-71.80
-66.37
-61.07
-56.14
-51.78
-48.10
-45.06
-42.48
-40.13
-37.75
-35.07
-31.87
-27.97
-23.29
-17.87
-11.87
-5.57
0.67
6.50
11.57
15.64
18.54
20.28
20.96
20.84
20.22
19.41
18.65
18.05
17.63
17.29
16.93
16.50
16.03
15.60
15.27
15.06
14.84
14.42
13.60
12.24
10.42
8.35
6.35
4.70
3.53
2.77
2.18
1.48
0.44
-1.08
-3.14
-5.82
-9.26
-13.59
-18.84
-24.75
-30.71
-35.88
-39.38
-40.58
-39.26
-35.68
-30.37
-23.97
-17.04
-9.95
-2.97
3.69
9.85
15.26
19.69
23.00
25.15
26.23
26.47
26.14
25.53
24.85
24.15
23.45
22.68
21.85
21.02
20.29
19.66
19.03
18.17
16.82
14.87
12.41
9.73
7.23
5.20
3.79
2.95
2.53
2.32
2.07
1.50
0.26
-2.00
-5.44
-9.91
-14.85
-19.49
-23.00
-24.84
-24.93
-23.57
-21.27
-18.51
-15.59
-12.55
-9.34
-5.96
-2.56
0.55
3.03
4.67
5.46
5.65
5.63
5.79
6.41
7.55
9.11
10.91
12.77
14.53
16.09
17.34
18.22
18.66
18.62
18.09
17.06
15.56
13.65
11.45
9.13
6.87
4.86
3.16
1.76
0.51
-0.82
-2.52
-4.82
-7.81
-11.33
-14.96
-18.12
-20.19
-20.76
-19.77
-17.50
-14.46
-11.23
-8.24
-5.70
-3.65
-2.01
-0.76
0.10
0.48
0.40
-0.03
-0.58
-0.99
-1.14
-1.06
-0.96
-1.09
-1.59
-2.38
-3.21
-3.78
-3.84
-3.39
-2.62
-1.87
-1.46
-1.59
-2.25
-3.25
-4.24
-4.90
-5.03
-4.58
-3.67
-2.51
-1.35
-0.43
0.03
-0.20
-1.21
-2.98
-5.20
-7.38
-8.87
-9.12
-7.90
-5.33
-1.85
1.93
5.51
8.61
11.17
13.34
15.30
17.11
18.74
20.01
20.72
20.70
19.90
18.42
16.46
14.29
12.16
10.24
8.64
7.39
6.51
5.94
5.65
5.52
5.44
5.23
4.70
3.72
2.23
0.34
-1.73
-3.66
-5.18
-6.10
-6.45
-6.39
-6.17
-6.01
-6.08
-6.49
-7.26
-8.30
-9.46
-10.45
-10.98
-10.78
-9.70
-7.79
-5.21
-2.20
0.94
4.01
6.81
9.22
11.19
12.67
13.68
14.22
14.34
14.10
13.63
13.11
12.76
12.74
13.08
13.68
14.30
14.74
14.89
14.80
14.63
14.55
14.59
14.62
14.39
13.62
12.16
10.04
7.44
4.60
1.71
-1.15
-4.02
-6.93
-9.86
-12.68
-15.28
-17.60
-19.70
-21.71
-23.69
-25.52
-26.86
-27.27
-26.45
-24.33
-21.11
-17.19
-12.95
-8.74
-4.76
-1.23
1.65
3.64
4.60
4.55
3.68
2.32
0.87
-0.37
-1.24
-1.73
-1.97
-2.11
-2.30
-2.60
-3.01
-3.43
-3.78
-4.03
-4.22
-4.44
-4.78
-5.33
-6.12
-7.17
-8.45
-9.93
-11.52
-13.10
-14.56
-15.78
-16.74
-17.51
-18.24
-19.09
-20.22
-21.61
-23.10
-24.34
-24.84
-24.17
-22.06
-18.55
-13.97
-8.90
-3.94
0.43
3.99
6.75
8.83
10.37
11.36
11.72
11.31
10.13
8.32
6.17
4.01
2.07
0.41
-1.07
-2.57
-4.26
-6.23
-8.51
-11.06
-13.86
-16.89
-20.08
-23.28
-26.25
-28.73
-30.56
-31.69
-32.25
-32.39
-32.24
-31.81
-30.99
-29.70
-27.99
-26.10
-24.43
-23.42
-23.32
-24.06
-25.28
-26.36
-26.64
-25.59
-22.93
-18.70
-13.20
-6.87
-0.22
6.31
12.41
17.85
22.53
26.38
29.38
31.60
33.16
34.29
35.28
36.38
37.75
39.42
41.24
43.01
44.51
45.62
46.29
46.58
46.57
46.34
45.90
45.23
44.23
42.81
40.88
38.43
35.47
32.03
28.19
24.03
19.68
15.30
11.02
6.85
2.66
-1.76
-6.59
-11.77
-16.91
-21.38
-24.46
-25.64
-24.73
-21.91
-17.60
-12.36
-6.74
-1.25
3.66
7.62
10.41
12.02
12.60
12.44
11.86
11.13
10.46
10.00
9.86
10.09
10.60
11.25
11.81
12.06
11.88
11.27
10.31
9.12
7.78
6.30
4.65
2.77
0.59
-1.90
-4.66
-7.60
-10.56
-13.42
-16.09
-18.59
-21.05
-23.70
-26.76
-30.35
-34.33
-38.34
-41.73
-43.77
-43.84
-41.60
-37.12
-30.85
-23.45
-15.66
-8.06
-1.06
5.10
10.26
14.31
17.12
18.67
19.07
18.61
17.76
16.97
16.60
16.76
17.30
17.99
18.57
18.93
19.10
19.17
19.17
19.02
18.53
17.52
15.86
13.55
10.64
7.27
3.63
-0.07
-3.65
-6.95
-9.94
-12.71
-15.46
-18.38
-21.58
-25.07
-28.74
-32.30
-35.31
-37.19
-37.29
-35.11
-30.41
-23.39
-14.64
-5.02
4.61
13.50
21.15
27.19
31.36
33.50
33.61
31.94
29.03
25.62
22.43
19.96
18.37
17.50
16.98
16.43
15.66
14.63
13.46
12.26
11.12
9.98
8.71
7.17
5.25
2.90
0.20
-2.72
-5.67
-8.52
-11.14
-13.52
-15.72
-17.87
-20.13
-22.67
-25.61
-28.99
-32.70
-36.38
-39.39
-40.93
-40.21
-36.77
-30.63
-22.38
-12.98
-3.41
5.56
13.53
20.37
26.06
30.54
33.68
35.34
35.59
34.71
33.24
31.81
30.91
30.77
31.28
32.12
32.86
33.21
33.05
32.46
31.57
30.50
29.21
27.51
25.15
21.98
18.02
13.48
8.69
3.94
-0.60
-4.92
-9.06
-13.09
-17.01
-20.79
-24.48
-28.17
-31.97
-35.85
-39.48
-42.25
-43.40
-42.32
-38.72
-32.74
-24.91
-15.93
-6.56
2.54
10.77
17.71
23.07
26.75
28.85
29.64
29.51
28.94
28.34
28.08
28.31
28.99
29.89
30.68
31.07
30.95
30.39
29.56
28.65
27.73
26.75
25.53
23.90
21.71
18.90
15.56
11.79
7.73
3.51
-0.73
-4.85
-8.68
-12.10
-15.14
-18.04
-21.20
-25.01
-29.51
-34.29
-38.45
-40.93
-40.91
-38.15
-33.03
-26.40
-19.20
-12.19
-5.81
-0.23
4.48
8.20
10.75
11.93
11.68
10.17
7.82
5.25
3.06
1.64
1.07
1.09
1.28
1.26
0.91
0.34
-0.14
-0.31
-0.19
-0.07
-0.40
-1.52
-3.49
-6.06
-8.79
-11.29
-13.36
-15.10
-16.71
-18.41
-20.32
-22.53
-25.07
-28.01
-31.35
-34.85
-37.97
-39.92
-39.89
-37.30
-32.11
-24.82
-16.32
-7.64
0.38
7.23
12.79
17.18
20.57
23.08
24.73
25.54
25.61
25.21
24.75
24.62
25.06
26.07
27.41
28.70
29.58
29.80
29.28
28.11
26.40
24.24
21.64
18.56
15.01
11.11
7.14
3.42
0.23
-2.34
-4.41
-6.29
-8.34
-10.83
-13.95
-17.69
-21.90
-26.25
-30.23
-33.21
-34.54
-33.78
-30.79
-25.85
-19.60
-12.81
-6.22
-0.33
4.63
8.67
11.85
14.29
16.02
17.06
17.52
17.61
17.63
17.86
18.46
19.36
20.33
21.11
21.52
21.53
21.24
20.73
20.02
19.00
17.49
15.37
12.62
9.37
5.87
2.37
-0.91
-3.90
-6.62
-9.13
-11.52
-13.90
-16.39
-19.08
-21.92
-24.66
-26.75
-27.50
-26.30
-22.82
-17.18
-9.94
-1.84
6.35
14.06
20.93
26.75
31.46
35.11
37.80
39.76
41.19
42.28
43.08
43.57
43.65
43.17
41.99
40.03
37.30
33.93
30.22
26.50
23.06
19.99
17.20
14.44
11.46
8.09
4.29
0.17
-4.05
-8.17
-12.04
-15.65
-19.17
-22.86
-26.98
-31.55
-36.25
-40.39
-43.14
-43.79
-42.07
-38.20
-32.74
-26.43
-19.89
-13.56
-7.75
-2.74
1.24
4.01
5.56
6.12
6.06
5.78
5.60
5.62
5.78
5.97
6.10
6.17
6.22
6.27
6.31
6.26
6.02
5.47
4.54
3.17
1.37
-0.76
-3.03
-5.23
-7.18
-8.86
-10.37
-11.90
-13.67
-15.76
-18.13
-20.55
-22.68
-24.07
-24.27
-22.85
-19.55
-14.41
-7.77
-0.26
7.42
14.62
20.94
26.20
30.36
33.41
35.34
36.12
35.80
34.57
32.78
30.78
28.88
27.20
25.73
24.32
22.82
21.16
19.34
17.48
15.75
14.22
12.86
11.45
9.66
7.17
3.82
-0.28
-4.81
-9.29
-13.29
-16.57
-19.13
-21.23
-23.24
-25.53
-28.33
-31.60
-35.01
-37.95
-39.68
-39.57
-37.28
-32.90
-26.91
-19.99
-12.90
-6.23
-0.39
4.38
7.93
10.15
10.97
10.44
8.76
6.38
3.88
1.86
0.77
0.78
1.76
3.39
5.34
7.37
9.41
11.56
13.95
16.65
19.56
22.47
25.06
27.07
28.36
28.97
29.07
28.90
28.60
28.20
27.56
26.46
24.64
21.93
18.33
14.07
9.70
6.04
4.06
4.61
8.10
14.17
21.67
28.83
33.69
34.68
30.97
22.65
10.58
-3.95
-19.56
-35.01
-49.30
-61.60
-71.25
-77.77
-81.01
-81.20
-79.02
-75.47
-71.57
-68.08
-65.37
-63.41
-61.88
-60.38
-58.57
-56.29
-53.55
-50.47
-47.23
-43.98
-40.77
-37.53
-34.13
-30.49
-26.63
-22.77
-19.19
-16.19
-13.98
-12.65
-12.21
-12.60
-13.64
-14.97
-16.01
-16.06
-14.50
-11.02
-5.81
0.54
7.17
13.32
18.46
22.39
25.17
26.93
27.80
27.87
27.20
25.94
24.37
22.84
21.75
21.31
21.53
22.16
22.86
23.32
23.37
23.01
22.32
21.38
20.22
18.82
17.16
15.25
13.16
10.95
8.67
6.33
3.93
1.51
-0.86
-3.10
-5.18
-7.21
-9.39
-11.95
-15.11
-18.88
-23.06
-27.18
-30.57
-32.51
-32.47
-30.22
-25.96
-20.27
-13.88
-7.51
-1.64
3.52
7.90
11.55
14.42
16.44
17.54
17.77
17.37
16.66
16.05
15.82
16.10
16.88
18.02
19.36
20.72
21.87
22.58
22.60
21.77
20.09
17.82
15.35
13.16
11.60
10.79
10.65
10.88
11.06
10.80
9.75
7.71
4.66
0.81
-3.51
-7.91
-12.10
-15.89
-19.14
-21.71
-23.32
-23.68
-22.54
-19.87
-15.92
-11.15
-6.09
-1.18
3.37
7.47
11.11
14.22
16.70
18.39
19.23
19.33
18.95
18.43
18.09
18.05
18.20
18.27
17.92
16.93
15.29
13.16
10.79
8.39
6.05
3.67
1.08
-1.86
-5.16
-8.65
-12.03
-15.00
-17.40
-19.25
-20.78
-22.31
-24.10
-26.29
-28.84
-31.58
-34.15
-36.12
-37.01
-36.34
-33.80
-29.35
-23.28
-16.16
-8.74
-1.70
4.45
9.45
13.23
15.85
17.42
18.08
18.02
17.52
16.87
16.37
16.21
16.45
17.00
17.66
18.25
18.60
18.67
18.50
18.20
17.83
17.33
16.54
15.22
13.17
10.30
6.72
2.70
-1.42
-5.41
-9.13
-12.65
-16.15
-19.82
-23.78
-27.98
-32.16
-35.86
-38.51
-39.54
-38.56
-35.46
-30.49
-24.11
-16.93
-9.47
-2.17
4.70
10.88
16.12
20.16
22.80
23.99
23.91
22.90
21.41
19.85
18.50
17.49
16.82
16.40
16.12
15.87
15.58
15.20
14.76
14.29
13.84
13.38
12.82
12.06
11.00
9.63
8.07
6.54
5.19
4.05
2.87
1.29
-1.08
-4.42
-8.65
-13.40
-18.15
-22.33
-25.43
-27.07
-26.97
-25.00
-21.28
-16.19
-10.32
-4.36
1.03
5.41
8.59
10.58
11.54
11.65
11.08
10.02
8.67
7.31
6.22
5.63
5.62
6.09
6.82
7.53
8.02
8.27
8.36
8.42
8.46
8.37
7.97
7.10
5.74
4.02
2.11
0.18
-1.69
-3.54
-5.40
-7.30
-9.23
-11.16
-13.10
-15.08
-17.10
-19.05
-20.69
-21.64
-21.50
-19.97
-16.96
-12.62
-7.37
-1.75
3.70
8.56
12.59
15.70
17.88
19.10
19.30
18.49
16.80
14.53
12.13
10.02
8.45
7.42
6.69
5.98
5.10
4.12
3.31
3.01
3.44
4.64
6.37
8.28
10.00
11.28
12.02
12.22
11.93
11.17
9.94
8.24
6.07
3.48
0.46
-3.03
-7.08
-11.73
-16.85
-22.01
-26.56
-29.70
-30.74
-29.31
-25.46
-19.67
-12.66
-5.22
1.98
8.50
14.08
18.60
22.02
24.34
25.60
25.94
25.56
24.73
23.68
22.62
21.66
20.84
20.16
19.59
19.07
18.51
17.77
16.72
15.31
13.55
11.55
9.47
7.41
5.38
3.31
1.13
-1.22
-3.73
-6.39
-9.14
-12.00
-14.96
-18.06
-21.34
-24.82
-28.53
-32.35
-36.05
-39.22
-41.31
-41.70
-39.89
-35.54
-28.69
-19.71
-9.28
1.69
12.27
21.61
29.08
34.30
37.16
37.76
36.41
33.56
29.71
25.30
20.64
15.83
10.85
5.67
0.35
-4.91
-9.85
-14.26
-18.03
-21.17
-23.78
-25.96
-27.76
-29.23
-30.40
-31.32
-32.05
-32.64
-33.12
-33.51
-33.84
-34.22
-34.74
-35.53
-36.64
-38.07
-39.69
-41.26
-42.38
-42.61
-41.53
-38.85
-34.50
-28.62
-21.53
-13.63
-5.38
2.81
10.53
17.44
23.26
27.84
31.13
33.26
34.45
34.98
35.14
35.22
35.42
35.81
36.36
36.84
37.00
36.57
35.43
33.62
31.30
28.70
25.99
23.23
20.33
17.13
13.52
9.47
5.12
0.72
-3.41
-7.04
-10.09
-12.65
-14.98
-17.48
-20.51
-24.35
-29.03
-34.29
-39.60
-44.23
-47.42
-48.62
-47.60
-44.50
-39.81
-34.16
-28.19
-22.40
-17.12
-12.51
-8.62
-5.43
-2.87
-0.76
1.12
3.03
5.16
7.54
10.03
12.37
14.35
15.93
17.24
18.52
19.92
21.42
22.77
23.65
23.79
23.14
21.83
20.17
18.48
17.03
15.96
15.29
14.88
14.52
13.86
12.61
10.55
7.68
4.23
0.69
-2.36
-4.31
-4.72
-3.43
-0.56
3.51
8.27
13.18
17.83
21.89
25.15
27.45
28.66
28.68
27.57
25.55
22.97
20.25
17.66
15.33
13.15
10.93
8.59
6.18
3.98
2.26
1.16
0.55
0.10
-0.62
-1.88
-3.78
-6.17
-8.77
-11.34
-13.70
-15.79
-17.64
-19.34
-21.05
-22.95
-25.21
-27.86
-30.71
-33.27
-34.92
-35.07
-33.39
-29.91
-24.97
-19.10
-12.83
-6.58
-0.69
4.60
9.02
12.37
14.50
15.42
15.28
14.40
13.15
11.93
11.01
10.51
10.38
10.37
10.22
9.69
8.70
7.33
5.76
4.14
2.45
0.59
-1.68
-4.51
-7.89
-11.58
-15.22
-18.43
-20.93
-22.71
-23.95
-24.99
-26.20
-27.85
-30.11
-32.93
-36.08
-39.09
-41.31
-41.94
-40.34
-36.17
-29.61
-21.32
-12.23
-3.27
4.89
11.94
17.84
22.66
26.46
29.24
31.01
31.90
32.12
31.98
31.74
31.53
31.39
31.22
30.92
30.36
29.42
28.01
26.04
23.49
20.38
16.80
12.92
8.91
4.90
1.03
-2.59
-5.84
-8.57
-10.68
-12.15
-13.02
-13.43
-13.51
-13.37
-13.14
-12.91
-12.79
-12.78
-12.69
-12.12
-10.49
-7.28
-2.23
4.49
12.24
20.10
27.12
32.56
36.05
37.59
37.46
36.06
33.79
30.98
27.92
24.88
22.20
20.26
19.36
19.65
21.04
23.25
25.96
28.88
31.81
34.60
37.13
39.29
41.04
42.38
43.33
43.80
43.41
41.54
37.41
30.38
20.28
7.51
-6.90
-21.58
-35.05
-46.04
-53.75
-57.93
-58.82
-57.03
-53.19
-47.72
-40.70
-31.85
-20.83
-7.49
7.89
24.50
41.16
56.57
69.58
79.36
85.46
87.78
86.59
82.33
75.60
66.97
56.83
45.31
32.28
17.51
0.96
-16.99
-35.40
-52.90
-68.00
-79.48
-86.67
-89.53
-88.53
-84.39
-77.88
-69.67
-60.32
-50.37
-40.25
-30.32
-20.70
-11.34
-2.12
7.00
15.88
24.21
31.63
37.82
42.58
45.78
47.31
47.13
45.32
42.23
38.45
34.66
31.43
28.97
27.14
25.52
23.72
21.56
19.16
16.83
14.86
13.37
12.23
11.18
9.96
8.52
6.99
5.65
4.67
4.06
3.56
2.84
1.58
-0.36
-2.87
-5.72
-8.62
-11.41
-14.05
-16.61
-19.32
-22.45
-26.24
-30.86
-36.30
-42.37
-48.76
-55.20
-61.55
-67.90
-74.46
-81.48
-89.09
-97.15
-105.29
-112.83
-118.85
-122.23
-121.86
-116.92
-107.17
-93.12
-76.00
-57.43
-39.02
-21.99
-7.03
5.62
15.90
23.81
29.34
32.57
33.79
33.52
32.42
31.01
29.53
27.88
25.70
22.62
18.47
13.44
8.01
2.82
-1.55
-4.72
-6.63
-7.50
-7.73
-7.77
-7.97
-8.46
-9.11
-9.63
-9.80
-9.60
-9.33
-9.43
-10.29
-12.03
-14.43
-17.01
-19.22
-20.55
-20.63
-19.27
-16.44
-12.28
-7.15
-1.61
3.74
8.38
12.05
14.85
17.13
19.29
21.66
24.38
27.42
30.66
33.98
37.31
40.56
43.59
46.17
47.89
48.31
46.99
43.67
38.21
30.68
21.23
10.07
-2.48
-15.88
-29.31
-41.64
-51.60
-58.06
-60.39
-58.66
-53.61
-46.44
-38.35
-30.20
-22.32
-14.56
-6.57
1.89
10.80
19.88
28.74
37.11
44.95
52.39
59.58
66.49
72.79
77.95
81.36
82.61
81.56
78.48
73.84
68.20
62.04
55.58
48.89
41.96
34.87
27.88
21.36
15.69
11.03
7.26
3.94
0.56
-3.30
-7.81
-12.82
-18.00
-22.94
-27.38
-31.16
-34.29
-36.90
-39.16
-41.31
-43.62
-46.30
-49.39
-52.61
-55.33
-56.68
-55.82
-52.30
-46.21
-38.20
-29.23
-20.29
-12.06
-4.85
1.32
6.50
10.66
13.59
15.05
14.91
13.33
10.68
7.47
4.05
0.56
-3.15
-7.31
-12.07
-17.38
-23.05
-28.83
-34.58
-40.36
-46.41
-53.05
-60.49
-68.66
-77.14
-85.10
-91.58
-95.73
-97.12
-95.94
-92.93
-89.11
-85.50
-82.85
-81.48
-81.23
-81.56
-81.55
-80.17
-76.52
-70.14
-61.15
-50.26
-38.53
-27.00
-16.39
-7.03
1.11
8.15
14.17
19.17
23.15
26.24
28.73
31.07
33.68
36.73
40.14
43.50
46.37
48.39
49.54
50.07
50.41
50.91
51.71
52.65
53.36
53.40
52.39
50.18
46.87
42.79
38.44
34.27
30.55
27.28
24.20
20.95
17.25
13.06
8.66
4.59
1.54
0.14
0.85
3.80
8.79
15.32
22.70
30.25
37.43
43.91
49.56
54.35
58.25
61.20
63.11
63.97
63.91
63.17
62.08
60.87
59.65
58.29
56.60
54.39
51.60
48.40
45.01
41.64
38.36
35.01
31.35
27.16
22.35
17.09
11.75
6.86
2.97
0.46
-0.56
-0.37
0.38
0.74
-0.24
-3.20
-8.29
-15.03
-22.45
-29.41
-34.84
-38.05
-38.80
-37.25
-33.76
-28.73
-22.50
-15.32
-7.45
0.74
8.76
16.06
22.16
26.79
29.91
31.70
32.51
32.72
32.62
32.38
32.07
31.63
30.93
29.83
28.16
25.78
22.55
18.36
13.15
6.91
-0.22
-7.93
-15.76
-23.16
-29.59
-34.60
-37.98
-39.75
-40.17
-39.57
-38.35
-36.80
-35.09
-33.22
-30.94
-27.81
-23.21
-16.55
-7.50
3.81
16.79
30.52
44.07
56.78
68.38
78.91
88.50
97.18
104.77
110.93
115.30
117.57
117.50
114.88
109.52
101.30
90.35
77.04
62.06
46.25
30.46
15.36
1.35
-11.44
-23.06
-33.58
-43.05
-51.39
-58.51
-64.27
-68.63
-71.66
-73.52
-74.44
-74.64
-74.33
-73.68
-72.87
-72.19
-72.00
-72.66
-74.40
-77.08
-80.16
-82.69
-83.61
-82.04
-77.61
-70.58
-61.71
-51.97
-42.19
-32.84
-24.02
-15.57
-7.36
0.52
7.75
13.81
18.24
20.80
21.60
21.08
19.86
18.54
17.55
17.04
16.90
16.81
16.47
15.65
14.33
12.65
10.79
8.85
6.79
4.44
1.61
-1.80
-5.69
-9.87
-14.03
-17.89
-21.21
-23.80
-25.61
-26.77
-27.65
-28.79
-30.77
-33.85
-37.86
-42.11
-45.55
-47.14
-46.09
-42.11
-35.38
-26.45
-16.10
-5.22
5.30
14.65
22.15
27.41
30.38
31.27
30.47
28.41
25.49
22.11
18.65
15.56
13.27
12.12
12.25
13.58
15.82
18.56
21.30
23.52
24.70
24.48
22.66
19.32
14.75
9.36
3.58
-2.21
-7.77
-12.91
-17.51
-21.50
-24.88
-27.77
-30.40
-33.10
-36.21
-39.94
-44.33
-49.03
-53.34
-56.30
-56.90
-54.41
-48.66
-40.14
-29.83
-18.88
-8.33
1.17
9.31
16.08
21.50
25.61
28.40
29.88
30.21
29.68
28.67
27.54
26.53
25.75
25.14
24.64
24.21
23.86
23.63
23.53
23.50
23.44
23.22
22.72
21.84
20.45
18.40
15.56
11.97
7.84
3.60
-0.24
-3.32
-5.45
-6.80
-7.73
-8.71
-10.28
-12.86
-16.67
-21.57
-26.96
-31.83
-35.00
-35.52
-33.00
-27.80
-20.81
-13.14
-5.70
1.03
6.89
11.89
15.97
18.96
20.67
21.02
20.23
18.73
17.07
15.78
15.17
15.25
15.81
16.46
16.83
16.66
15.88
14.62
13.05
11.29
9.29
6.88
3.87
0.16
-4.12
-8.68
-13.16
-17.28
-20.91
-24.13
-27.11
-30.09
-33.29
-36.91
-41.10
-45.88
-51.05
-56.03
-59.98
-61.92
-61.05
-56.98
-49.93
-40.63
-30.14
-19.50
-9.52
-0.67
6.87
13.06
17.88
21.38
23.62
24.79
25.21
25.24
25.24
25.43
25.87
26.45
27.05
27.56
27.94
28.24
28.54
28.88
29.24
29.44
29.23
28.28
26.34
23.31
19.32
14.66
9.72
4.82
0.15
-4.23
-8.39
-12.47
-16.70
-21.30
-26.45
-32.08
-37.78
-42.81
-46.14
-46.84
-44.32
-38.62
-30.36
-20.59
-10.43
-0.83
7.62
14.65
20.22
24.45
27.51
29.57
30.78
31.29
31.25
30.84
30.30
29.86
29.71
29.93
30.40
30.89
31.19
31.14
30.73
30.03
29.06
27.75
25.94
23.44
20.17
16.18
11.68
6.91
2.14
-2.47
-6.85
-11.09
-15.37
-19.92
-24.90
-30.35
-36.01
-41.31
-45.43
-47.49
-46.74
-42.83
-35.97
-26.93
-16.90
-7.19
1.06
7.12
10.70
11.89
11.03
8.47
4.59
-0.25
-5.64
-11.09
-16.08
-20.18
-23.16
-25.05
-26.13
-26.76
-27.27
-27.76
-28.12
-28.07
-27.34
-25.85
-23.77
-21.49
-19.47
-18.08
-17.44
-17.41
-17.65
-17.78
-17.49
-16.67
-15.37
-13.78
-12.13
-10.68
-9.65
-9.23
-9.42
-9.89
-10.00
-8.87
-5.63
0.22
8.61
18.95
30.32
41.82
52.81
62.95
72.13
80.23
87.05
92.33
95.86
97.64
97.95
97.26
96.15
95.16
94.69
94.98
96.10
97.86
99.80
101.20
101.23
99.16
94.69
87.97
79.64
70.54
61.40
52.73
44.79
37.69
31.46
26.02
21.08
16.12
10.43
3.28
-5.89
-17.45
-31.64
-48.65
-68.51
-90.94
-115.08
-139.48
-162.24
-181.40
-195.23
-202.41
-202.06
-193.74
-177.64
-154.83
-127.37
-98.12
-70.10
-45.80
-26.48
-12.13
-1.68
6.34
13.27
20.02
27.07
34.65
42.81
51.46
60.23
68.36
74.73
78.11
77.52
72.57
63.72
52.19
39.67
27.95
18.54
12.51
10.35
11.96
16.68
23.44
30.89
37.66
42.58
44.82
43.90
39.70
32.46
22.80
11.76
0.70
-9.00
-16.21
-20.35
-21.40
-19.79
-16.18
-11.21
-5.43
0.65
6.57
11.96
16.48
19.95
22.32
23.60
23.84
23.13
21.59
19.49
17.23
15.21
13.76
12.97
12.67
12.53
12.19
11.46
10.32
8.92
7.46
6.05
4.66
3.11
1.18
-1.33
-4.50
-8.32
-12.68
-17.41
-22.30
-27.15
-31.80
-36.21
-40.47
-44.74
-49.14
-53.51
-57.36
-59.91
-60.35
-58.19
-53.50
-46.93
-39.51
-32.24
-25.74
-20.15
-15.17
-10.43
-5.68
-1.00
3.30
6.84
9.38
10.93
11.71
12.05
12.24
12.40
12.48
12.26
11.52
10.09
7.92
5.04
1.54
-2.35
-6.25
-9.50
-11.32
-11.03
-8.40
-3.84
1.66
6.87
10.80
13.01
13.70
13.36
12.49
11.27
9.65
7.59
5.29
3.32
2.41
3.15
5.65
9.48
13.75
17.51
20.02
21.06
20.84
19.80
18.29
16.39
13.93
10.69
6.63
2.09
-2.29
-5.76
-7.80
-8.25
-7.39
-5.75
-3.88
-2.14
-0.59
0.95
2.67
4.64
6.66
8.32
9.10
8.59
6.67
3.52
-0.43
-4.68
-8.83
-12.65
-16.14
-19.49
-22.96
-26.86
-31.47
-36.86
-42.87
-48.95
-54.30
-58.00
-59.33
-58.00
-54.32
-49.12
-43.52
-38.51
-34.79
-32.66
-32.12
-33.16
-35.76
-39.92
-45.48
-51.95
-58.49
-64.04
-67.53
-68.14
-65.54
-59.85
-51.59
-41.54
-30.54
-19.40
-8.83
0.64
8.63
14.89
19.32
21.98
23.06
22.94
22.08
20.89
19.62
18.26
16.55
14.17
10.85
6.55
1.52
-3.70
-8.40
-11.80
-13.26
-12.38
-9.17
-3.98
2.56
9.79
17.10
24.07
30.41
35.88
40.14
42.86
43.80
42.97
40.73
37.70
34.60
32.01
30.20
29.14
28.58
28.20
27.79
27.29
26.79
26.41
26.18
25.98
25.52
24.47
22.53
19.62
15.85
11.54
7.06
2.75
-1.24
-4.93
-8.50
-12.20
-16.24
-20.67
-25.30
-29.71
-33.22
-35.08
-34.60
-31.44
-25.69
-17.92
-9.01
0.06
8.47
15.74
21.74
26.55
30.36
33.28
35.38
36.66
37.20
37.17
36.81
36.35
35.90
35.41
34.70
33.59
32.01
30.03
27.87
25.73
23.67
21.57
19.12
16.01
12.05
7.28
1.98
-3.44
-8.54
-13.09
-17.00
-20.43
-23.59
-26.79
-30.27
-34.17
-38.41
-42.60
-46.05
-47.84
-47.13
-43.39
-36.68
-27.61
-17.17
-6.43
3.74
12.75
20.29
26.23
30.53
33.22
34.46
34.53
33.85
32.82
31.81
31.03
30.53
30.21
29.89
29.39
28.58
27.45
26.10
24.63
23.11
21.43
19.36
16.64
13.15
8.97
4.47
0.13
-3.59
-6.48
-8.64
-10.43
-12.30
-14.65
-17.75
-21.62
-26.06
-30.63
-34.68
-37.41
-38.10
-36.28
-31.98
-25.68
-18.17
-10.30
-2.75
4.11
10.17
15.43
19.87
23.43
26.03
27.68
28.53
28.87
29.09
29.55
30.52
32.04
34.00
36.14
38.18
39.87
41.09
41.86
42.23
42.26
41.97
41.33
40.30
38.87
37.07
34.97
32.67
30.28
27.90
25.61
23.37
21.05
18.36
14.93
10.37
4.39
-3.06
-11.75
-21.04
-29.99
-37.53
-42.78
-45.33
-45.46
-44.09
-42.53
-42.03
-43.37
-46.62
-51.16
-55.98
-60.02
-62.46
-62.91
-61.33
-57.87
-52.72
-45.97
-37.64
-27.85
-16.92
-5.49
5.65
15.72
24.18
30.74
35.27
37.60
37.51
34.73
29.21
21.30
11.79
1.78
-7.65
-15.78
-22.33
-27.48
-31.57
-34.98
-38.00
-40.79
-43.51
-46.35
-49.54
-53.29
-57.61
-62.15
-66.21
-68.81
-68.99
-66.16
-60.33
-52.19
-42.82
-33.36
-24.66
-17.01
-10.29
-4.20
1.46
6.62
10.95
14.10
15.87
16.33
15.77
14.50
12.76
10.66
8.31
5.89
3.71
2.16
1.57
2.02
3.30
4.96
6.47
7.38
7.43
6.62
5.13
3.25
1.28
-0.55
-2.04
-3.11
-3.70
-3.81
-3.50
-2.91
-2.25
-1.77
-1.81
-2.63
-4.33
-6.70
-9.15
-10.85
-11.02
-9.18
-5.41
-0.32
5.23
10.42
14.78
18.22
20.78
22.44
22.91
21.79
18.82
14.24
8.77
3.47
-0.62
-2.85
-3.08
-1.60
1.07
4.44
8.13
11.83
15.22
17.94
19.64
20.13
19.49
18.02
16.20
14.45
13.03
12.01
11.32
10.87
10.58
10.42
10.26
9.85
8.85
7.02
4.45
1.71
-0.24
-0.28
2.38
7.92
15.76
24.82
33.89
42.01
48.74
54.13
58.51
62.29
65.75
68.97
71.90
74.41
76.46
78.10
79.49
80.77
81.96
82.78
82.67
80.95
77.02
70.60
61.83
51.19
39.30
26.71
13.83
0.95
-11.65
-23.61
-34.50
-43.90
-51.57
-57.49
-61.88
-65.06
-67.45
-69.43
-71.43
-73.85
-77.09
-81.33
-86.43
-91.77
-96.36
-99.09
-99.04
-95.82
-89.65
-81.19
-71.26
-60.59
-49.69
-38.84
-28.28
-18.25
-9.07
-1.06
5.59
10.86
14.99
18.34
21.29
24.17
27.14
30.20
33.26
36.24
39.09
41.81
44.45
47.00
49.43
51.71
53.86
55.93
58.07
60.46
63.25
66.53
70.30
74.54
79.20
84.28
89.82
95.86
102.34
109.01
115.36
120.65
124.03
124.73
122.29
116.64
108.14
97.40
85.12
71.92
58.29
44.63
31.32
18.68
7.01
-3.55
-12.98
-21.32
-28.55
-34.54
-39.02
-41.76
-42.72
-42.14
-40.47
-38.27
-36.02
-34.06
-32.49
-31.33
-30.48
-29.87
-29.44
-29.22
-29.28
-29.74
-30.71
-32.23
-34.26
-36.69
-39.41
-42.30
-45.33
-48.49
-51.78
-55.22
-58.72
-62.06
-64.80
-66.27
-65.73
-62.63
-56.85
-48.83
-39.44
-29.77
-20.75
-12.90
-6.32
-0.83
3.80
7.70
10.87
13.30
15.02
16.18
17.01
17.74
18.57
19.55
20.63
21.64
22.34
22.42
21.63
19.80
16.85
12.80
7.67
1.41
-6.02
-14.60
-24.05
-33.80
-43.05
-51.05
-57.35
-61.94
-65.21
-67.77
-70.23
-73.01
-76.26
-79.90
-83.58
-86.71
-88.47
-88.04
-84.74
-78.40
-69.44
-58.76
-47.55
-36.91
-27.59
-20.00
-14.26
-10.39
-8.36
-8.07
-9.27
-11.48
-14.06
-16.40
-18.16
-19.35
-20.32
-21.57
-23.52
-26.28
-29.70
-33.46
-37.23
-40.84
-44.25
-47.49
-50.56
-53.28
-55.28
-56.04
-54.93
-51.39
-45.17
-36.52
-26.22
-15.51
-5.71
2.13
7.50
10.57
12.01
12.76
13.82
16.10
20.31
26.87
35.81
46.73
58.77
70.91
82.14
91.72
99.28
104.68
107.93
109.08
108.26
105.81
102.26
98.24
94.29
90.64
87.10
83.28
78.79
73.50
67.57
61.40
55.33
49.46
43.60
37.41
30.57
23.00
14.90
6.68
-1.21
-8.45
-14.96
-20.88
-26.47
-32.00
-37.70
-43.72
-50.09
-56.62
-62.82
-67.86
-70.70
-70.42
-66.58
-59.48
-50.17
-40.08
-30.55
-22.39
-15.77
-10.45
-6.07
-2.49
0.17
1.66
1.92
1.19
0.10
-0.67
-0.58
0.52
2.32
4.28
5.83
6.67
6.84
6.63
6.35
6.11
5.72
4.75
2.76
-0.45
-4.74
-9.63
-14.54
-18.94
-22.61
-25.63
-28.30
-31.04
-34.18
-37.97
-42.54
-47.89
-53.82
-59.80
-64.96
-68.17
-68.32
-64.77
-57.61
-47.77
-36.72
-26.01
-16.82
-9.74
-4.85
-1.99
-1.03
-1.92
-4.61
-8.75
-13.63
-18.23
-21.47
-22.59
-21.36
-18.07
-13.34
-7.85
-2.10
3.67
9.38
14.96
20.26
25.03
28.95
31.73
33.19
33.24
31.96
29.55
26.33
22.74
19.12
15.72
12.48
9.13
5.23
0.33
-5.83
-13.18
-21.24
-29.12
-35.62
-39.54
-39.91
-36.35
-29.20
-19.43
-8.37
2.73
12.93
21.80
29.24
35.34
40.17
43.73
46.10
47.48
48.32
49.23
50.80
53.42
57.15
61.70
66.55
71.11
74.89
77.55
78.87
78.66
76.75
72.90
67.01
59.16
49.78
39.56
29.35
19.91
11.72
4.80
-1.15
-6.65
-12.20
-18.13
-24.56
-31.45
-38.56
-45.48
-51.54
-55.91
-57.68
-56.20
-51.33
-43.56
-33.92
-23.69
-14.01
-5.66
1.00
5.92
9.19
10.90
11.16
10.17
8.30
6.08
4.11
2.87
2.62
3.22
4.28
5.25
5.69
5.40
4.44
3.05
1.52
-0.00
-1.54
-3.27
-5.44
-8.26
-11.79
-15.94
-20.42
-24.87
-28.95
-32.42
-35.26
-37.65
-39.97
-42.66
-46.06
-50.24
-54.88
-59.19
-62.07
-62.34
-59.08
-51.98
-41.45
-28.51
-14.58
-1.08
10.88
20.63
27.95
32.93
35.81
36.86
36.40
34.79
32.44
29.81
27.36
25.42
24.14
23.44
23.09
22.76
22.16
21.11
19.53
17.43
14.88
11.90
8.53
4.74
0.53
-4.12
-9.18
-14.55
-20.07
-25.50
-30.59
-35.19
-39.24
-42.84
-46.23
-49.74
-53.74
-58.55
-64.25
-70.62
-76.96
-82.18
-85.03
-84.47
-80.09
-72.33
-62.37
-51.87
-42.41
-35.12
-30.41
-28.10
-27.56
-28.05
-28.92
-29.65
-29.79
-28.90
-26.46
-22.01
-15.39
-6.87
2.81
12.64
21.68
29.31
35.34
39.88
43.05
44.85
45.12
43.76
40.91
37.02
32.74
28.64
25.03
21.88
18.92
15.83
12.42
8.63
4.45
-0.16
-5.36
-11.40
-18.61
-27.28
-37.60
-49.45
-62.25
-74.89
-85.71
-92.90
-94.92
-91.11
-81.91
-68.89
-54.19
-39.95
-27.72
-18.17
-11.19
-6.18
-2.42
0.74
3.81
7.20
11.31
16.50
22.95
30.64
39.23
48.18
56.89
64.84
71.76
77.58
82.41
86.38
89.60
92.09
93.81
94.70
94.77
94.08
92.76
90.90
88.58
85.76
82.38
78.43
73.99
69.31
64.67
60.30
56.22
52.26
48.04
43.26
37.82
32.04
26.67
22.82
21.69
24.27
31.06
41.94
56.15
72.54
89.65
105.93
119.86
130.09
135.58
135.84
130.99
121.84
109.65
95.89
82.00
69.16
58.26
49.84
44.08
40.73
39.19
38.59
37.92
36.32
33.15
28.11
21.21
12.76
3.18
-7.12
-17.81
-28.73
-39.88
-51.32
-63.06
-75.01
-86.87
-98.22
-108.54
-117.37
-124.38
-129.47
-132.78
-134.56
-134.96
-133.86
-130.76
-124.85
-115.30
-101.56
-83.79
-63.02
-41.04
-20.11
-2.37
10.74
18.80
22.49
23.19
22.39
21.24
20.21
19.20
17.92
16.24
14.37
12.71
11.60
11.10
10.93
10.69
10.07
9.10
8.04
7.23
6.78
6.42
5.58
3.58
0.05
-4.97
-10.93
-17.00
-22.41
-26.73
-29.98
-32.57
-35.08
-38.01
-41.69
-46.21
-51.38
-56.81
-61.78
-65.37
-66.53
-64.37
-58.50
-49.18
-37.35
-24.33
-11.42
0.38
10.56
18.99
25.69
30.71
34.02
35.60
35.58
34.29
32.30
30.25
28.68
27.85
27.68
27.82
27.84
27.46
26.63
25.54
24.38
23.24
21.90
19.96
16.99
12.80
7.58
1.82
-3.84
-8.86
-13.00
-16.34
-19.23
-22.08
-25.31
-29.17
-33.71
-38.73
-43.69
-47.77
-50.01
-49.53
-45.82
-39.00
-29.73
-19.09
-8.23
1.90
10.68
17.88
23.44
27.43
29.89
30.87
30.53
29.20
27.35
25.52
24.15
23.50
23.56
24.11
24.87
25.59
26.10
26.37
26.41
26.19
25.64
24.58
22.79
20.10
16.48
12.06
7.17
2.22
-2.45
-6.61
-10.28
-13.66
-17.06
-20.76
-25.00
-29.89
-35.36
-41.04
-46.27
-50.06
-51.39
-49.51
-44.27
-36.19
-26.34
-16.04
-6.45
1.74
8.34
13.50
17.51
20.56
22.67
23.76
23.78
22.87
21.31
19.56
18.04
17.00
16.45
16.17
15.75
14.77
12.93
10.13
6.49
2.25
-2.26
-6.84
-11.37
-15.85
-20.28
-24.58
-28.53
-31.82
-34.19
-35.52
-35.90
-35.63
-35.04
-34.51
-34.36
-34.90
-36.31
-38.56
-41.28
-43.64
-44.49
-42.72
-37.55
-28.94
-17.58
-4.71
8.30
20.30
30.55
38.74
44.81
48.81
50.80
50.85
49.13
45.95
41.79
37.23
32.84
29.06
26.07
23.82
22.10
20.69
19.45
18.44
17.76
17.48
17.54
17.69
17.59
16.94
15.57
13.57
11.16
8.69
6.43
4.52
2.95
1.59
0.24
-1.34
-3.38
-6.14
-9.86
-14.71
-20.62
-27.19
-33.57
-38.70
-41.50
-41.25
-37.81
-31.69
-23.79
-15.18
-6.74
0.94
7.56
12.95
17.00
19.60
20.72
20.47
19.13
17.16
15.09
13.43
12.53
12.57
13.48
15.08
17.11
19.36
21.78
24.48
27.62
31.30
35.40
39.55
43.23
45.88
47.10
46.64
44.45
40.52
34.92
27.78
19.39
10.22
0.83
-8.34
-17.10
-25.68
-34.59
-44.33
-55.12
-66.59
-77.83
-87.55
-94.51
-97.89
-97.46
-93.55
-86.81
-77.90
-67.32
-55.50
-42.85
-30.02
-17.84
-7.09
1.68
8.45
13.60
17.75
21.45
25.02
28.52
31.83
34.87
37.61
40.12
42.42
44.47
46.13
47.15
47.30
46.41
44.42
41.37
37.40
32.72
27.55
22.09
16.55
11.11
5.89
0.95
-3.80
-8.59
-13.70
-19.36
-25.59
-32.06
-38.10
-42.79
-45.19
-44.59
-40.74
-33.96
-25.06
-15.10
-5.14
4.05
12.05
18.71
24.06
28.04
30.61
31.75
31.62
30.62
29.30
28.23
27.79
28.08
28.95
30.08
31.16
31.93
32.27
32.17
31.70
30.91
29.76
28.13
25.89
22.90
19.20
14.98
10.55
6.21
2.10
-1.83
-5.76
-9.91
-14.46
-19.48
-24.94
-30.72
-36.57
-42.05
-46.47
-49.01
-48.88
-45.60
-39.21
-30.32
-19.97
-9.34
0.62
9.29
16.50
22.30
26.80
30.06
32.09
32.93
32.76
31.99
31.08
30.48
30.41
30.85
31.60
32.39
33.01
33.31
33.22
32.72
31.80
30.39
28.42
25.74
22.25
17.87
12.68
6.86
0.69
-5.50
-11.44
-16.93
-21.96
-26.66
-31.27
-36.14
-41.57
-47.74
-54.51
-61.31
-67.21
-71.05
-71.77
-68.79
-62.16
-52.62
-41.29
-29.40
-17.94
-7.57
1.38
8.76
14.46
18.44
20.74
21.64
21.65
21.41
21.51
22.30
23.85
25.92
28.14
30.12
31.63
32.59
33.09
33.26
33.24
33.09
32.79
32.20
31.11
29.25
26.35
22.23
16.85
10.36
3.10
-4.47
-11.82
-18.53
-24.34
-29.27
-33.62
-37.87
-42.51
-47.81
-53.61
-59.24
-63.66
-65.75
-64.67
-60.15
-52.58
-42.88
-32.21
-21.60
-11.73
-2.89
4.91
11.81
17.89
23.21
27.79
31.69
35.03
37.96
40.56
42.80
44.55
45.64
45.95
45.48
44.35
42.69
40.62
38.15
35.23
31.76
27.71
23.09
17.94
12.32
6.30
-0.06
-6.60
-13.06
-19.12
-24.49
-29.02
-32.74
-35.81
-38.50
-41.09
-43.78
-46.70
-49.78
-52.72
-54.94
-55.61
-53.89
-49.23
-41.60
-31.53
-20.04
-8.29
2.75
12.47
20.62
27.19
32.24
35.76
37.67
37.95
36.65
34.03
30.50
26.56
22.70
19.30
16.57
14.56
13.18
12.21
11.35
10.32
8.93
7.17
5.24
3.42
2.01
1.13
0.70
0.43
-0.02
-0.96
-2.54
-4.75
-7.40
-10.24
-13.02
-15.58
-17.89
-20.09
-22.41
-25.14
-28.49
-32.42
-36.62
-40.42
-43.01
-43.56
-41.54
-36.82
-29.73
-20.96
-11.41
-1.89
6.90
14.52
20.71
25.35
28.41
29.97
30.25
29.57
28.35
27.05
26.08
25.74
26.17
27.29
28.86
30.52
31.88
32.61
32.54
31.61
29.91
27.59
24.76
21.47
17.67
13.24
8.03
2.00
-4.81
-12.17
-19.73
-27.06
-33.78
-39.65
-44.59
-48.73
-52.34
-55.77
-59.33
-63.10
-66.82
-69.80
-71.02
-69.38
-64.11
-55.09
-43.01
-29.17
-15.12
-2.20
8.80
17.63
24.45
29.52
33.07
35.25
36.21
36.25
35.79
35.28
35.02
35.07
35.27
35.33
34.98
34.12
32.80
31.19
29.47
27.77
26.12
24.48
22.76
20.90
18.86
16.62
14.23
11.74
9.23
6.74
4.32
1.95
-0.37
-2.70
-5.18
-8.01
-11.40
-15.48
-20.09
-24.70
-28.46
-30.46
-29.98
-26.85
-21.43
-14.53
-7.08
0.12
6.54
11.92
16.12
19.05
20.61
20.81
19.81
17.96
15.75
13.71
12.24
11.47
11.29
11.38
11.43
11.24
10.82
10.30
9.81
9.37
8.80
7.85
6.26
3.93
0.99
-2.33
-5.75
-9.09
-12.32
-15.50
-18.73
-22.06
-25.54
-29.19
-33.09
-37.18
-41.22
-44.68
-46.78
-46.74
-44.02
-38.58
-30.92
-21.93
-12.61
-3.75
4.13
10.88
16.48
20.99
24.38
26.66
27.83
27.97
27.30
26.05
24.48
22.79
21.12
19.54
18.08
16.75
15.55
14.47
13.43
12.34
11.03
9.25
6.77
3.41
-0.83
-5.69
-10.76
-15.52
-19.50
-22.46
-24.36
-25.38
-25.82
-26.00
-26.22
-26.73
-27.73
-29.24
-31.07
-32.79
-33.73
-33.19
-30.67
-26.03
-19.62
-12.15
-4.54
2.46
8.34
12.99
16.59
19.39
21.61
23.35
24.57
25.24
25.44
25.32
25.18
25.23
25.62
26.29
26.99
27.43
27.33
26.53
25.01
22.81
19.93
16.34
11.91
6.55
0.31
-6.53
-13.44
-19.75
-24.84
-28.33
-30.15
-30.51
-29.74
-28.18
-26.12
-23.86
-21.69
-19.83
-18.33
-16.80
-14.53
-10.55
-4.14
4.90
16.02
28.08
39.70
49.69
57.32
62.35
64.88
65.13
63.33
59.66
54.30
47.53
39.74
31.43
23.11
15.25
8.24
2.30
-2.39
-5.77
-7.79
-8.43
-7.75
-5.88
-3.00
0.62
4.69
8.94
13.17
17.20
20.94
24.28
27.17
29.51
31.25
32.34
32.79
32.61
31.79
30.27
27.88
24.56
20.48
16.17
12.45
10.13
9.67
10.88
12.94
14.73
15.31
14.27
11.85
8.65
5.27
1.97
-1.41
-5.21
-9.64
-14.53
-19.29
-23.18
-25.62
-26.45
-25.98
-24.79
-23.45
-22.27
-21.28
-20.26
-19.04
-17.62
-16.27
-15.36
-15.31
-16.35
-18.53
-21.66
-25.45
-29.56
-33.70
-37.67
-41.36
-44.76
-47.92
-50.93
-53.97
-57.24
-60.95
-65.18
-69.67
-73.73
-76.31
-76.25
-72.71
-65.52
-55.35
-43.48
-31.39
-20.28
-10.79
-2.97
3.41
8.59
12.69
15.74
17.82
19.16
20.15
21.13
22.30
23.58
24.75
25.60
26.02
26.10
25.95
25.65
25.17
24.35
23.04
21.10
18.48
15.18
11.26
6.84
2.10
-2.70
-7.31
-11.49
-15.16
-18.38
-21.34
-24.33
-27.64
-31.50
-35.90
-40.50
-44.57
-47.05
-46.90
-43.41
-36.54
-26.99
-16.01
-5.01
4.85
12.89
18.94
23.07
25.44
26.11
25.15
22.73
19.32
15.60
12.34
10.13
9.15
9.17
9.63
9.97
9.81
9.08
7.98
6.78
5.61
4.39
2.89
0.82
-1.96
-5.40
-9.28
-13.27
-17.10
-20.61
-23.81
-26.84
-29.92
-33.30
-37.20
-41.76
-46.95
-52.48
-57.69
-61.67
-63.37
-61.94
-57.03
-48.90
-38.42
-26.73
-14.89
-3.62
6.78
16.27
24.85
32.39
38.62
43.25
46.18
47.63
48.16
48.50
49.23
50.62
52.45
54.16
55.08
54.74
53.04
50.21
46.71
42.88
38.88
34.59
29.77
24.27
18.15
11.71
5.42
-0.25
-5.00
-8.74
-11.63
-13.97
-16.14
-18.49
-21.29
-24.67
-28.47
-32.19
-34.95
-35.65
-33.29
-27.33
-17.98
-6.25
6.37
18.34
28.58
36.61
42.57
46.83
49.70
51.27
51.47
50.24
47.79
44.55
41.10
37.92
35.21
32.91
30.77
28.54
26.10
23.45
20.66
17.83
14.98
12.10
9.15
6.03
2.71
-0.85
-4.64
-8.57
-12.54
-16.43
-20.24
-24.02
-27.92
-32.09
-36.63
-41.60
-47.04
-52.95
-59.24
-65.55
-71.11
-74.79
-75.37
-71.97
-64.46
-53.58
-40.74
-27.57
-15.38
-4.89
3.74
10.68
16.13
20.19
22.83
24.14
24.37
23.97
23.47
23.25
23.46
24.03
24.73
25.30
25.55
25.41
24.85
23.89
22.52
20.74
18.56
15.99
13.03
9.64
5.79
1.44
-3.34
-8.35
-13.28
-17.83
-21.79
-25.13
-28.05
-30.86
-33.94
-37.63
-42.18
-47.65
-53.75
-59.76
-64.50
-66.56
-64.68
-58.25
-47.54
-33.72
-18.47
-3.50
9.96
21.26
30.29
37.26
42.39
45.85
47.75
48.25
47.63
46.32
44.80
43.51
42.68
42.34
42.28
42.22
41.89
41.13
39.89
38.20
36.06
33.48
30.42
26.87
22.84
18.40
13.62
8.57
3.39
-1.82
-6.85
-11.56
-15.79
-19.52
-22.81
-25.87
-28.98
-32.51
-36.85
-42.19
-48.38
-54.70
-59.91
-62.47
-61.02
-54.92
-44.48
-30.97
-16.16
-1.82
10.79
21.07
28.96
34.62
38.20
39.75
39.29
37.05
33.54
29.51
25.76
22.90
21.16
20.36
20.02
19.59
18.60
16.82
14.28
11.12
7.57
3.74
-0.35
-4.79
-9.69
-15.03
-20.64
-26.15
-31.19
-35.43
-38.79
-41.40
-43.53
-45.55
-47.78
-50.50
-53.92
-58.07
-62.65
-66.95
-69.84
-70.04
-66.50
-58.78
-47.29
-33.17
-17.95
-3.14
10.09
21.05
29.48
35.40
38.99
40.52
40.32
38.81
36.51
33.92
31.55
29.75
28.62
28.02
27.61
26.98
25.84
24.10
21.89
19.44
16.96
14.53
12.04
9.31
6.13
2.35
-2.01
-6.77
-11.62
-16.22
-20.34
-23.92
-27.15
-30.35
-33.90
-38.08
-43.04
-48.73
-54.88
-60.88
-65.77
-68.36
-67.45
-62.27
-52.77
-39.80
-24.80
-9.45
4.86
17.27
27.41
35.26
40.92
44.46
45.99
45.80
44.34
42.24
40.10
38.35
37.14
36.38
35.85
35.31
34.57
33.51
32.10
30.36
28.32
26.05
23.55
20.80
17.67
14.02
9.76
4.94
-0.18
-5.22
-9.77
-13.53
-16.43
-18.68
-20.69
-22.98
-26.01
-30.09
-35.18
-40.88
-46.35
-50.38
-51.68
-49.19
-42.44
-31.83
-18.50
-4.12
9.66
21.65
31.32
38.71
44.18
48.06
50.45
51.29
50.49
48.19
44.80
40.91
37.12
33.83
31.17
29.02
27.18
25.41
23.61
21.76
19.93
18.11
16.27
14.29
12.05
9.45
6.49
3.25
-0.12
-3.43
-6.52
-9.28
-11.66
-13.73
-15.64
-17.69
-20.23
-23.61
-28.15
-33.94
-40.68
-47.65
-53.68
-57.40
-57.60
-53.64
-45.68
-34.68
-22.10
-9.50
1.88
11.34
18.71
24.15
27.92
30.25
31.33
31.35
30.61
29.61
28.90
28.98
30.12
32.21
34.88
37.59
39.85
41.36
42.00
41.82
40.95
39.48
37.51
35.05
32.09
28.57
24.41
19.55
14.01
7.94
1.61
-4.70
-10.73
-16.33
-21.45
-26.19
-30.77
-35.57
-40.92
-46.97
-53.39
-59.23
-63.06
-63.39
-59.21
-50.43
-37.97
-23.41
-8.49
5.43
17.53
27.55
35.46
41.33
45.16
46.99
46.98
45.47
42.93
39.90
36.89
34.25
32.18
30.69
29.66
28.90
28.15
27.17
25.71
23.57
20.64
16.92
12.50
7.54
2.22
-3.28
-8.77
-14.05
-18.85
-22.94
-26.17
-28.55
-30.27
-31.69
-33.25
-35.38
-38.47
-42.69
-47.86
-53.29
-57.84
-60.11
-58.88
-53.54
-44.33
-32.35
-19.17
-6.39
4.83
13.87
20.64
25.23
27.80
28.43
27.24
24.51
20.81
16.92
13.69
11.72
11.19
11.79
12.87
13.71
13.75
12.86
11.21
9.17
7.08
5.07
3.01
0.65
-2.23
-5.72
-9.68
-13.86
-17.99
-21.87
-25.43
-28.71
-31.85
-35.04
-38.55
-42.71
-47.80
-53.85
-60.39
-66.44
-70.60
-71.53
-68.37
-61.06
-50.38
-37.63
-24.27
-11.42
0.20
10.30
18.76
25.49
30.31
33.13
34.02
33.37
31.83
30.11
28.87
28.46
28.92
30.06
31.63
33.45
35.45
37.60
39.81
41.87
43.36
43.84
42.94
40.44
36.40
31.11
25.00
18.54
12.10
5.87
-0.13
-6.06
-12.17
-18.73
-26.00
-34.10
-42.97
-52.17
-60.92
-68.08
-72.40
-72.86
-68.97
-60.97
-49.76
-36.62
-22.86
-9.55
2.70
13.64
23.22
31.42
38.13
43.24
46.72
48.79
49.91
50.68
51.61
52.96
54.59
56.07
56.90
56.69
55.33
52.93
49.76
46.02
41.76
36.85
31.08
24.27
16.42
7.72
-1.45
-10.66
-19.55
-27.86
-35.42
-42.14
-47.97
-52.93
-57.16
-60.96
-64.67
-68.48
-72.16
-74.96
-75.77
-73.41
-67.17
-57.07
-43.95
-29.17
-14.25
-0.41
11.61
21.51
29.23
34.74
37.99
38.95
37.75
34.80
30.76
26.31
22.00
18.04
14.37
10.77
7.03
3.10
-0.91
-4.86
-8.62
-12.16
-15.47
-18.63
-21.68
-24.69
-27.65
-30.50
-33.08
-35.17
-36.64
-37.50
-37.95
-38.35
-39.06
-40.35
-42.36
-45.17
-48.85
-53.46
-58.87
-64.61
-69.79
-73.17
-73.55
-70.19
-62.99
-52.65
-40.30
-27.13
-14.06
-1.53
10.31
21.43
31.63
40.55
47.76
53.01
56.42
58.45
59.73
60.83
61.97
63.04
63.68
63.50
62.33
60.21
57.44
54.37
51.35
48.58
46.14
43.94
41.82
39.51
36.77
33.43
29.44
24.92
20.08
15.13
10.20
5.29
0.31
-4.93
-10.63
-16.93
-23.78
-30.84
-37.40
-42.47
-44.99
-44.12
-39.54
-31.54
-21.01
-9.13
2.85
13.97
23.55
31.31
37.18
41.23
43.63
44.62
44.53
43.78
42.82
41.98
41.41
40.99
40.46
39.47
37.83
35.55
32.90
30.25
28.04
26.56
25.94
26.05
26.54
26.96
26.90
26.04
24.31
21.80
18.73
15.41
12.12
9.08
6.39
3.94
1.44
-1.50
-5.10
-9.20
-13.13
-15.83
-16.22
-13.63
-8.17
-0.69
7.49
15.11
21.30
25.82
28.80
30.53
31.12
30.44
28.20
24.24
18.69
12.02
4.92
-1.94
-8.10
-13.31
-17.49
-20.62
-22.62
-23.47
-23.17
-21.96
-20.26
-18.67
-17.86
-18.35
-20.38
-23.80
-28.07
-32.39
-35.95
-38.13
-38.68
-37.73
-35.70
-33.17
-30.71
-28.81
-27.80
-27.76
-28.41
-29.10
-28.90
-26.81
-22.11
-14.61
-4.77
6.41
17.71
27.98
36.45
42.76
46.93
49.14
49.64
48.66
46.49
43.49
40.13
36.94
34.32
32.50
31.45
30.98
30.87
30.97
31.22
31.60
31.98
32.09
31.51
29.83
26.81
22.49
17.20
11.50
5.99
1.19
-2.57
-5.17
-6.65
-7.24
-7.25
-7.09
-7.25
-8.19
-10.18
-13.24
-16.99
-20.78
-23.85
-25.58
-25.66
-24.15
-21.39
-17.87
-14.02
-10.16
-6.51
-3.25
-0.54
1.45
2.64
3.09
3.00
2.69
2.49
2.58
2.96
3.50
4.02
4.39
4.58
4.62
4.54
4.37
4.15
3.90
3.72
3.66
3.77
4.03
4.32
4.54
4.61
4.47
4.10
3.47
2.53
1.20
-0.59
-2.93
-5.88
-9.43
-13.48
-17.72
-21.74
-25.00
-27.01
-27.44
-26.20
-23.48
-19.62
-15.09
-10.31
-5.61
-1.18
2.86
6.46
9.51
11.95
13.74
14.98
15.87
16.66
17.55
18.57
19.56
20.25
20.40
19.94
18.99
17.86
16.92
16.47
16.63
17.31
18.25
19.07
19.34
18.64
16.60
12.96
7.59
0.60
-7.64
-16.56
-25.39
-33.43
-40.11
-45.15
-48.46
-50.00
-49.61
-47.07
-42.14
-34.88
-25.80
-15.85
-6.24
1.99
8.21
12.37
14.90
16.34
17.17
17.64
17.81
17.68
17.28
16.77
16.36
16.29
16.70
17.66
19.11
20.91
22.87
24.77
26.37
27.40
27.62
26.85
25.06
22.35
19.04
15.47
11.90
8.36
4.66
0.49
-4.36
-9.93
-16.04
-22.41
-28.83
-35.27
-41.78
-48.39
-54.90
-60.86
-65.67
-68.77
-69.90
-69.17
-67.05
-64.16
-61.12
-58.37
-56.17
-54.58
-53.47
-52.57
-51.50
-49.83
-47.21
-43.49
-38.76
-33.35
-27.64
-21.97
-16.44
-11.05
-5.79
-0.78
3.63
7.01
8.97
9.39
8.43
6.44
3.85
0.99
-1.90
-4.62
-6.93
-8.56
-9.29
-9.05
-8.06
-6.69
-5.40
-4.57
-4.44
-5.14
-6.66
-8.87
-11.48
-13.95
-15.67
-16.09
-14.91
-12.21
-8.41
-4.00
0.62
5.26
9.93
14.58
19.04
22.95
25.91
27.67
28.29
28.13
27.66
27.31
27.31
27.64
28.19
28.82
29.53
30.35
31.32
32.35
33.22
33.65
33.44
32.53
31.03
29.11
26.94
24.64
22.22
19.68
17.03
14.27
11.36
8.24
4.81
0.99
-3.22
-7.71
-12.25
-16.59
-20.41
-23.40
-25.26
-25.76
-24.78
-22.35
-18.68
-14.08
-8.92
-3.54
1.76
6.74
11.17
14.84
17.58
19.31
20.10
20.11
19.62
18.90
18.20
17.66
17.37
17.35
17.62
18.16
18.93
19.82
20.68
21.31
21.52
21.15
20.08
18.27
15.78
12.81
9.60
6.45
3.62
1.26
-0.62
-2.13
-3.42
-4.63
-5.91
-7.39
-9.22
-11.48
-14.10
-16.81
-19.12
-20.46
-20.39
-18.74
-15.68
-11.67
-7.25
-2.89
1.11
4.64
7.68
10.22
12.16
13.34
13.66
13.15
12.06
10.81
9.84
9.47
9.74
10.46
11.27
11.85
11.97
11.59
10.79
9.67
8.32
6.77
5.00
2.98
0.72
-1.75
-4.34
-6.96
-9.53
-12.01
-14.38
-16.69
-18.95
-21.25
-23.65
-26.21
-28.92
-31.66
-34.10
-35.76
-36.11
-34.71
-31.44
-26.53
-20.54
-14.15
-8.02
-2.61
1.85
5.28
7.66
9.02
9.44
9.10
8.30
7.43
6.81
6.60
6.75
7.08
7.33
7.34
7.10
6.70
6.27
5.88
5.51
5.05
4.35
3.25
1.66
-0.38
-2.76
-5.25
-7.61
-9.63
-11.22
-12.47
-13.60
-14.88
-16.55
-18.73
-21.26
-23.80
-25.82
-26.76
-26.23
-24.04
-20.30
-15.31
-9.49
-3.28
2.89
8.66
13.74
17.89
20.97
22.96
23.90
23.97
23.39
22.44
21.38
20.43
19.69
19.20
18.84
18.49
18.07
17.56
16.96
16.31
15.55
14.53
13.07
11.05
8.44
5.37
2.05
-1.28
-4.42
-7.27
-9.80
-12.04
-14.12
-16.19
-18.50
-21.21
-24.34
-27.61
-30.44
-32.15
-32.14
-30.14
-26.27
-20.98
-14.89
-8.62
-2.67
2.63
7.09
10.64
13.31
15.19
16.41
17.10
17.39
17.38
17.21
17.00
16.82
16.70
16.55
16.27
15.74
14.96
13.97
12.84
11.63
10.34
8.96
7.44
5.78
3.96
1.99
-0.09
-2.22
-4.30
-6.26
-8.04
-9.69
-11.29
-13.03
-15.04
-17.43
-20.16
-23.02
-25.64
-27.54
-28.21
-27.28
-24.60
-20.35
-14.94
-8.96
-2.97
2.56
7.37
11.37
14.57
17.04
18.76
19.74
19.93
19.44
18.46
17.32
16.40
15.93
15.95
16.27
16.59
16.60
16.14
15.22
13.95
12.47
10.87
9.19
7.41
5.52
3.53
1.43
-0.74
-2.97
-5.26
-7.60
-9.96
-12.29
-14.51
-16.58
-18.52
-20.47
-22.64
-25.15
-27.93
-30.58
-32.44
-32.82
-31.24
-27.64
-22.38
-16.11
-9.55
-3.26
2.40
7.25
11.18
14.12
16.02
16.84
16.63
15.61
14.08
12.43
11.01
10.04
9.53
9.33
9.18
8.85
8.26
7.49
6.67
5.95
5.35
4.80
4.15
3.28
2.15
0.79
-0.73
-2.36
-4.06
-5.85
-7.72
-9.61
-11.45
-13.17
-14.82
-16.57
-18.65
-21.23
-24.30
-27.57
-30.44
-32.18
-32.08
-29.76
-25.21
-18.88
-11.49
-3.83
3.44
9.85
15.16
19.25
22.05
23.55
23.81
23.02
21.51
19.66
17.84
16.28
15.04
14.03
13.04
11.94
10.65
9.22
7.82
6.61
5.73
5.21
5.00
5.02
5.18
5.40
5.59
5.66
5.49
4.97
4.01
2.65
1.03
-0.70
-2.36
-3.90
-5.42
-7.13
-9.26
-11.97
-15.22
-18.71
-21.89
-24.12
-24.79
-23.53
-20.32
-15.56
-9.88
-4.06
1.28
5.75
9.27
11.90
13.79
15.01
15.57
15.50
14.97
14.28
13.82
13.86
14.51
15.67
17.09
18.50
19.72
20.62
21.13
21.20
20.78
19.82
18.33
16.33
13.84
10.87
7.47
3.72
-0.20
-4.09
-7.75
-11.06
-14.01
-16.67
-19.16
-21.60
-24.10
-26.73
-29.48
-32.25
-34.75
-36.52
-37.05
-35.83
-32.63
-27.53
-20.96
-13.59
-6.13
0.79
6.77
11.60
15.21
17.63
18.90
19.16
18.59
17.45
16.07
14.75
13.73
13.07
12.68
12.30
11.69
10.68
9.26
7.59
5.90
4.34
2.93
1.48
-0.28
-2.59
-5.50
-8.85
-12.31
-15.54
-18.30
-20.51
-22.17
-23.39
-24.28
-25.01
-25.76
-26.74
-28.00
-29.38
-30.47
-30.62
-29.23
-25.94
-20.80
-14.28
-7.06
0.13
6.72
12.36
16.90
20.27
22.50
23.66
23.88
23.35
22.31
20.99
19.59
18.21
16.94
15.78
14.71
13.69
12.68
11.66
10.63
9.60
8.56
7.47
6.21
4.69
2.86
0.80
-1.35
-3.39
-5.14
-6.51
-7.47
-8.07
-8.45
-8.82
-9.45
-10.58
-12.37
-14.71
-17.23
-19.27
-20.10
-19.13
-16.13
-11.34
-5.38
0.95
6.90
11.91
15.75
18.38
19.85
20.24
19.63
18.11
15.91
13.39
10.94
8.89
7.36
6.20
5.07
3.54
1.25
-1.99
-6.18
-11.12
-16.46
-21.69
-26.28
-29.73
-31.74
-32.29
-31.65
-30.19
-28.27
-26.06
-23.62
-20.96
-18.19
-15.55
-13.39
-12.01
-11.52
-11.87
-12.76
-13.78
-14.36
-13.92
-11.89
-7.93
-1.99
5.58
14.13
22.86
30.99
37.94
43.33
46.96
48.77
48.80
47.18
44.26
40.52
36.49
32.68
29.47
27.04
25.39
24.37
23.69
23.03
22.04
20.47
18.14
15.00
11.12
6.69
1.93
-2.88
-7.49
-11.67
-15.24
-18.06
-20.10
-21.41
-22.14
-22.48
-22.61
-22.68
-22.75
-22.81
-22.75
-22.42
-21.54
-19.75
-16.63
-11.92
-5.61
1.85
9.68
16.94
22.88
27.15
29.84
31.31
32.00
32.16
31.87
31.01
29.49
27.29
24.56
21.54
18.57
15.91
13.72
11.99
10.55
9.15
7.59
5.76
3.71
1.54
-0.66
-2.88
-5.12
-7.37
-9.51
-11.36
-12.73
-13.57
-13.98
-14.19
-14.46
-14.99
-15.82
-16.88
-18.08
-19.35
-20.71
-22.24
-23.97
-25.77
-27.22
-27.72
-26.63
-23.54
-18.45
-11.83
-4.50
2.63
8.84
13.72
17.11
19.04
19.61
18.98
17.43
15.34
13.21
11.52
10.57
10.42
10.90
11.67
12.38
12.77
12.71
12.17
11.22
9.87
8.13
6.02
3.55
0.82
-2.03
-4.83
-7.44
-9.82
-11.99
-14.02
-15.96
-17.87
-19.77
-21.72
-23.81
-26.12
-28.66
-31.25
-33.53
-34.98
-35.06
-33.41
-29.95
-24.95
-18.87
-12.31
-5.77
0.35
5.83
10.52
14.31
17.07
18.69
19.18
18.67
17.46
15.88
14.26
12.83
11.63
10.63
9.78
9.04
8.49
8.21
8.24
8.51
8.84
8.97
8.67
7.79
6.35
4.51
2.50
0.58
-1.11
-2.55
-3.86
-5.23
-6.87
-8.98
-11.62
-14.72
-17.98
-20.92
-22.89
-23.29
-21.72
-18.11
-12.82
-6.47
0.18
6.48
11.97
16.44
19.88
22.34
23.87
24.52
24.35
23.45
21.96
20.06
17.91
15.63
13.32
11.04
8.90
7.07
5.70
4.91
4.71
4.95
5.32
5.45
4.98
3.69
1.56
-1.23
-4.43
-7.76
-11.07
-14.29
-17.47
-20.69
-24.05
-27.65
-31.57
-35.80
-40.12
-44.05
-46.94
-48.15
-47.29
-44.38
-39.86
-34.35
-28.40
-22.29
-16.02
-9.52
-2.78
3.99
10.43
16.17
20.97
24.86
28.04
30.81
33.44
36.05
38.61
40.98
43.01
44.51
45.38
45.51
44.84
43.35
41.04
37.97
34.24
29.94
25.11
19.76
13.87
7.46
0.65
-6.34
-13.24
-19.83
-25.99
-31.73
-37.15
-42.38
-47.39
-51.96
-55.64
-57.82
-57.95
-55.70
-51.07
-44.43
-36.38
-27.61
-18.70
-10.03
-1.84
5.71
12.42
18.09
22.49
25.56
27.40
28.32
28.70
28.84
28.88
28.74
28.20
27.08
25.32
23.04
20.43
17.71
14.98
12.17
9.10
5.63
1.67
-2.66
-7.16
-11.56
-15.69
-19.43
-22.66
-25.27
-27.04
-27.74
-27.23
-25.63
-23.34
-20.93
-18.92
-17.52
-16.59
-15.58
-13.86
-10.94
-6.65
-1.17
5.10
11.67
18.14
24.18
29.50
33.78
36.76
38.26
38.28
37.06
35.00
32.50
29.91
27.41
25.06
22.84
20.64
18.33
15.81
12.97
9.81
6.44
3.03
-0.22
-3.24
-6.06
-8.80
-11.59
-14.48
-17.37
-20.08
-22.41
-24.24
-25.57
-26.54
-27.37
-28.24
-29.35
-30.80
-32.66
-34.90
-37.31
-39.38
-40.42
-39.62
-36.39
-30.63
-22.81
-13.84
-4.74
3.67
10.98
17.08
22.00
25.66
27.92
28.65
27.89
25.99
23.46
20.86
18.54
16.61
14.97
13.49
12.06
10.76
9.72
9.06
8.71
8.41
7.81
6.53
4.39
1.50
-1.85
-5.24
-8.28
-10.72
-12.43
-13.41
-13.72
-13.50
-12.97
-12.37
-11.95
-11.85
-12.09
-12.51
-12.80
-12.61
-11.50
-9.14
-5.36
-0.26
5.70
11.84
17.35
21.54
23.99
24.58
23.40
20.75
17.03
12.74
8.43
4.62
1.65
-0.41
-1.76
-2.73
-3.61
-4.52
-5.38
-6.01
-6.25
-6.04
-5.40
-4.42
-3.21
-1.91
-0.68
0.33
1.02
1.37
1.43
1.30
1.05
0.71
0.27
-0.30
-0.97
-1.65
-2.10
-2.01
-1.08
0.89
3.87
7.58
11.60
15.47
18.81
21.42
23.17
23.95
23.65
22.13
19.43
15.72
11.42
7.03
3.01
-0.35
-2.97
-4.94
-6.41
-7.49
-8.18
-8.45
-8.28
-7.74
-6.98
-6.21
-5.56
-5.05
-4.62
-4.13
-3.52
-2.84
-2.19
-1.70
-1.47
-1.52
-1.86
-2.54
-3.61
-5.11
-6.95
-8.87
-10.45
-11.29
-11.09
-9.81
-7.67
-5.07
-2.42
-0.03
1.92
3.32
4.09
4.10
3.25
1.53
-0.79
-3.24
-5.20
-6.18
-5.98
-4.78
-3.04
-1.21
0.48
2.10
3.92
6.13
8.66
11.15
13.09
14.12
14.19
13.55
12.63
11.75
10.97
10.07
8.68
6.46
3.24
-0.92
-5.78
-11.01
-16.26
-21.12
-25.15
-27.87
-28.89
-28.01
-25.34
-21.36
-16.75
-12.19
-8.16
-4.86
-2.24
-0.14
1.51
2.70
3.38
3.57
3.45
3.30
3.42
3.96
4.92
6.11
7.30
8.35
9.20
9.86
10.36
10.61
10.41
9.51
7.75
5.14
1.88
-1.69
-5.25
-8.58
-11.66
-14.55
-17.34
-20.11
-22.80
-25.35
-27.63
-29.43
-30.49
-30.45
-28.95
-25.77
-20.91
-14.57
-7.17
0.84
9.00
16.88
24.10
30.25
35.01
38.15
39.64
39.60
38.30
36.06
33.18
29.86
26.23
22.31
18.07
13.53
8.83
4.26
0.18
-3.12
-5.55
-7.35
-8.94
-10.79
-13.17
-16.06
-19.18
-22.12
-24.54
-26.25
-27.23
-27.55
-27.34
-26.72
-25.85
-24.91
-24.00
-23.13
-22.14
-20.77
-18.76
-16.00
-12.56
-8.71
-4.75
-0.95
2.51
5.52
8.00
9.82
10.88
11.11
10.63
9.70
8.69
7.96
7.70
7.88
8.32
8.75
9.02
9.16
9.37
9.93
10.99
12.53
14.26
15.80
16.75
16.81
15.90
14.15
11.83
9.31
6.86
4.62
2.51
0.26
-2.43
-5.81
-9.93
-14.62
-19.45
-23.88
-27.29
-29.15
-29.08
-27.01
-23.15
-17.97
-12.07
-6.01
-0.24
4.99
9.58
13.51
16.75
19.32
21.25
22.60
23.48
24.02
24.34
24.51
24.57
24.52
24.32
23.91
23.25
22.28
21.01
19.49
17.76
15.84
13.65
11.06
7.96
4.38
0.51
-3.33
-6.81
-9.75
-12.20
-14.37
-16.53
-18.83
-21.25
-23.62
-25.73
-27.36
-28.29
-28.22
-26.82
-23.76
-18.91
-12.46
-4.91
2.99
10.49
17.00
22.26
26.29
29.30
31.50
33.03
33.90
34.06
33.50
32.35
30.81
29.12
27.43
25.77
24.04
22.16
20.14
18.10
16.19
14.48
12.91
11.26
9.24
6.60
3.24
-0.74
-5.13
-9.64
-13.99
-17.99
-21.54
-24.62
-27.26
-29.55
-31.60
-33.57
-35.58
-37.65
-39.61
-41.11
-41.63
-40.70
-38.01
-33.56
-27.68
-20.95
-14.08
-7.71
-2.31
1.86
4.78
6.53
7.30
7.25
6.61
5.64
4.62
3.86
3.60
3.90
4.62
5.48
6.18
6.52
6.47
6.17
5.81
5.55
5.40
5.27
5.01
4.49
3.62
2.44
0.98
-0.70
-2.58
-4.67
-6.94
-9.35
-11.84
-14.37
-16.99
-19.73
-22.60
-25.43
-27.83
-29.26
-29.17
-27.21
-23.38
-17.98
-11.55
-4.67
2.13
8.45
14.02
18.62
22.13
24.53
25.88
26.33
26.12
25.51
24.76
24.12
23.74
23.65
23.77
23.96
24.05
23.93
23.58
23.08
22.51
21.91
21.24
20.40
19.25
17.73
15.86
13.81
11.77
9.95
8.46
7.30
6.40
5.65
4.94
4.13
3.12
1.85
0.34
-1.28
-2.69
-3.55
-3.61
-2.78
-1.26
0.52
2.06
2.89
2.74
1.53
-0.60
-3.43
-6.66
-10.03
-13.28
-16.17
-18.50
-20.06
-20.72
-20.43
-19.27
-17.47
-15.33
-13.18
-11.27
-9.69
-8.39
-7.29
-6.28
-5.38
-4.66
-4.25
-4.23
-4.62
-5.37
-6.39
-7.57
-8.80
-9.98
-11.06
-12.01
-12.94
-14.00
-15.35
-17.10
-19.16
-21.25
-22.91
-23.60
-22.90
-20.61
-16.80
-11.81
-6.15
-0.30
5.35
10.51
15.03
18.76
21.57
23.35
24.11
24.01
23.35
22.46
21.65
21.03
20.61
20.30
20.01
19.71
19.42
19.16
18.90
18.58
18.09
17.32
16.19
14.65
12.69
10.33
7.65
4.78
1.89
-0.82
-3.22
-5.24
-6.97
-8.62
-10.48
-12.80
-15.76
-19.36
-23.35
-27.33
-30.71
-32.91
-33.47
-32.16
-29.06
-24.52
-19.05
-13.17
-7.29
-1.65
3.59
8.30
12.32
15.45
17.58
18.76
19.19
19.17
18.98
18.80
18.70
18.65
18.61
18.54
18.39
18.02
17.26
15.92
13.86
11.12
7.86
4.33
0.77
-2.68
-5.99
-9.21
-12.39
-15.58
-18.75
-21.83
-24.75
-27.43
-29.86
-32.11
-34.24
-36.35
-38.43
-40.39
-41.97
-42.81
-42.48
-40.63
-37.05
-31.72
-24.89
-17.00
-8.66
-0.47
7.05
13.51
18.72
22.63
25.28
26.79
27.33
27.12
26.45
25.62
24.90
24.45
24.23
24.09
23.80
23.20
22.28
21.18
20.07
19.09
18.18
17.19
15.88
14.11
11.88
9.32
6.65
4.04
1.57
-0.79
-3.13
-5.53
-8.06
-10.77
-13.74
-17.03
-20.61
-24.33
-27.81
-30.47
-31.68
-30.96
-28.15
-23.50
-17.56
-11.07
-4.71
1.00
5.77
9.49
12.15
13.84
14.73
15.02
14.91
14.60
14.24
13.94
13.76
13.74
13.86
14.06
14.21
14.17
13.82
13.12
12.06
10.65
8.82
6.49
3.60
0.22
-3.46
-7.16
-10.58
-13.55
-16.10
-18.35
-20.51
-22.76
-25.25
-28.01
-30.99
-33.98
-36.60
-38.30
-38.50
-36.71
-32.77
-26.92
-19.81
-12.20
-4.84
1.79
7.47
12.15
15.83
18.41
19.81
19.96
18.95
17.06
14.73
12.43
10.59
9.48
9.17
9.55
10.40
11.51
12.69
13.81
14.74
15.30
15.27
14.43
12.70
10.21
7.27
4.25
1.43
-1.07
-3.36
-5.65
-8.18
-11.14
-14.68
-18.88
-23.64
-28.69
-33.47
-37.23
-39.22
-38.92
-36.24
-31.48
-25.32
-18.50
-11.70
-5.41
0.11
4.76
8.51
11.38
13.46
14.83
15.69
16.25
16.77
17.45
18.38
19.47
20.53
21.33
21.71
21.68
21.39
20.99
20.56
19.97
18.97
17.31
14.85
11.69
8.09
4.39
0.84
-2.44
-5.49
-8.43
-11.40
-14.52
-17.85
-21.41
-25.14
-28.80
-31.97
-34.00
-34.22
-32.18
-27.81
-21.54
-14.12
-6.39
1.00
7.66
13.46
18.36
22.27
25.05
26.58
26.90
26.29
25.20
24.09
23.25
22.77
22.50
22.21
21.71
20.96
20.03
19.03
18.04
17.06
15.99
14.65
12.91
10.67
7.99
4.97
1.81
-1.29
-4.24
-7.05
-9.82
-12.69
-15.77
-19.09
-22.62
-26.33
-30.13
-33.88
-37.24
-39.70
-40.60
-39.43
-36.01
-30.57
-23.76
-16.41
-9.33
-3.10
2.04
6.07
9.03
10.95
11.80
11.57
10.37
8.41
5.97
3.32
0.57
-2.44
-5.98
-10.21
-15.02
-19.92
-24.22
-27.18
-28.03
-26.39
-22.42
-16.78
-10.34
-3.95
1.72
6.31
9.68
12.38
15.00
17.79
20.61
23.21
25.41
27.15
28.43
29.10
29.72
30.77
32.55
35.27
39.32
45.25
53.40
63.60
74.82
86.65
98.60
110.20
121.00
130.79
139.37
146.36
150.94
144.50
121.35
81.58
31.42
-20.97
-69.05
-108.41
-137.13
-154.21
-158.65
-149.99
-130.43
-104.82
-79.22
-57.42
-42.72
-35.75
-34.71
-36.76
-38.78
-38.98
-37.10
-33.70
-29.56
-25.49
-22.06
-19.95
-19.77
-21.65
-25.40
-30.40
-35.40
-38.96
-40.00
-37.82
-32.46
-24.35
-14.25
-3.20
7.88
18.81
29.81
41.04
52.37
63.04
72.25
79.18
83.25
82.27
75.84
65.92
55.74
49.39
46.59
46.16
47.00
47.93
48.49
48.79
48.83
48.27
46.81
44.31
41.55
39.37
37.99
36.69
34.18
28.98
20.05
7.29
-8.45
-25.23
-40.95
-53.94
-63.19
-68.24
-69.30
-67.28
-63.51
-59.42
-55.87
-53.14
-51.03
-49.05
-46.71
-43.69
-39.89
-35.30
-29.99
-23.98
-17.49
-10.98
-5.10
-0.44
2.61
4.00
3.98
2.96
1.33
-0.74
-3.32
-6.58
-10.58
-15.08
-19.49
-23.04
-25.05
-25.25
-23.85
-21.50
-19.06
-17.30
-16.76
-17.62
-19.80
-23.06
-27.09
-31.53
-36.01
-40.14
-43.52
-45.88
-47.08
-47.21
-46.42
-44.90
-42.67
-39.62
-35.64
-30.68
-24.96
-18.90
-12.93
-7.41
-2.44
2.05
6.20
10.06
13.57
16.64
19.26
21.51
23.59
25.63
27.62
29.32
30.44
30.67
29.87
28.14
25.77
23.22
20.95
19.36
18.68
18.91
19.78
20.76
21.22
20.63
18.66
15.31
10.84
5.60
-0.05
-5.85
-11.62
-17.13
-22.06
-25.98
-28.43
-28.96
-27.32
-23.50
-17.83
-10.92
-3.56
3.46
9.50
14.19
17.45
19.43
20.40
20.66
20.53
20.28
20.20
20.47
21.15
22.10
23.01
23.48
23.15
21.83
19.53
16.44
12.86
9.14
5.57
2.46
0.06
-1.43
-1.87
-1.33
-0.03
1.63
3.22
4.32
4.66
4.09
2.59
0.16
-3.14
-7.28
-12.09
-17.24
-22.10
-25.88
-27.73
-27.13
-24.01
-18.88
-12.69
-6.52
-1.34
2.16
3.62
2.95
0.19
-4.43
-10.43
-17.06
-23.20
-27.61
-29.17
-27.24
-21.86
-13.79
-4.30
5.20
13.49
19.80
23.83
25.72
25.86
24.79
23.04
21.03
19.00
16.95
14.73
12.09
8.91
5.24
1.34
-2.46
-5.84
-8.61
-10.73
-12.33
-13.60
-14.78
-16.04
-17.39
-18.60
-19.25
-18.76
-16.61
-12.48
-6.36
1.41
10.30
19.68
28.91
37.40
44.58
49.88
52.81
53.08
50.65
45.89
39.51
32.47
25.74
20.11
16.02
13.49
12.20
11.66
11.38
10.95
10.15
8.82
6.85
4.08
0.30
-4.67
-10.92
-18.38
-26.71
-35.36
-43.66
-50.94
-56.77
-60.99
-63.83
-65.87
-67.93
-70.97
-75.80
-82.82
-91.71
-101.29
-109.67
-114.68
-114.56
-108.57
-97.18
-81.98
-65.12
-48.73
-34.50
-23.44
-15.97
-11.94
-10.76
-11.49
-13.03
-14.32
-14.59
-13.54
-11.27
-8.10
-4.39
-0.40
3.74
7.97
12.22
16.47
20.75
25.21
30.03
35.33
41.08
46.98
52.60
57.44
61.15
63.65
65.09
65.80
66.07
66.04
65.62
64.62
62.78
59.98
56.25
51.73
46.69
41.48
36.56
32.54
30.02
29.55
31.33
35.08
40.04
45.11
49.15
51.26
51.00
48.43
44.03
38.44
32.29
26.06
20.10
14.65
10.01
6.57
4.71
4.77
6.79
10.51
15.42
20.84
26.19
31.04
35.23
38.77
41.74
44.16
46.01
47.26
48.02
48.51
49.04
49.80
50.66
51.22
50.88
49.12
45.68
40.63
34.25
26.97
19.21
11.35
3.75
-3.32
-9.60
-14.93
-19.17
-22.23
-24.07
-24.80
-24.76
-24.47
-24.58
-25.64
-27.92
-31.24
-35.12
-38.86
-41.78
-43.34
-43.26
-41.53
-38.43
-34.49
-30.35
-26.70
-24.01
-22.52
-22.15
-22.62
-23.55
-24.60
-25.54
-26.18
-26.34
-25.73
-24.04
-21.01
-16.72
-11.64
-6.74
-3.24
-2.38
-5.08
-11.60
-21.45
-33.30
-45.19
-54.79
-59.75
-58.22
-49.36
-33.71
-13.24
8.99
29.62
45.88
56.28
60.86
60.80
57.76
53.16
47.80
41.95
35.65
29.10
22.75
17.07
12.29
8.10
3.79
-1.36
-7.62
-14.52
-20.94
-25.61
-27.73
-27.33
-25.30
-22.85
-20.96
-19.98
-19.70
-19.67
-19.68
-20.03
-21.30
-24.04
-28.30
-33.53
-38.65
-42.50
-44.14
-43.09
-39.37
-33.37
-25.74
-17.28
-8.83
-1.20
5.03
9.62
12.66
14.46
15.33
15.47
14.87
13.44
11.14
8.16
4.81
1.43
-1.76
-4.73
-7.57
-10.33
-12.94
-15.19
-16.88
-17.90
-18.38
-18.59
-18.92
-19.61
-20.75
-22.20
-23.65
-24.79
-25.39
-25.38
-24.88
-24.09
-23.30
-22.75
-22.60
-22.86
-23.35
-23.75
-23.64
-22.66
-20.59
-17.44
-13.45
-9.00
-4.46
-0.12
3.88
7.50
10.72
13.51
15.75
17.39
18.38
18.82
18.91
18.88
18.96
19.28
19.87
20.65
21.53
22.36
23.08
23.61
23.95
24.10
24.06
23.75
22.93
21.25
18.34
13.98
8.26
1.74
-4.62
-9.60
-12.06
-11.30
-7.31
-0.82
6.92
14.48
20.64
24.67
26.44
26.38
25.29
24.10
23.63
24.35
26.21
28.66
30.80
31.67
30.64
27.56
22.79
17.02
10.96
5.23
0.22
-3.89
-7.08
-9.44
-11.21
-12.59
-13.76
-14.75
-15.42
-15.45
-14.47
-12.19
-8.64
-4.25
0.21
3.85
6.05
6.72
6.39
5.97
6.42
8.32
11.73
16.24
21.26
26.27
30.96
35.20
38.99
42.35
45.27
47.64
49.16
49.30
47.35
42.62
34.82
24.31
12.17
-0.04
-10.76
-18.91
-24.05
-26.32
-26.13
-23.90
-20.06
-15.16
-10.07
-5.89
-3.61
-3.74
-6.09
-9.96
-14.53
-19.18
-23.62
-27.69
-31.20
-33.80
-35.19
-35.37
-34.74
-34.03
-33.91
-34.69
-36.13
-37.66
-38.63
-38.60
-37.42
-35.15
-31.85
-27.53
-22.17
-15.87
-8.96
-2.06
4.04
8.61
11.27
12.14
11.90
11.55
12.18
14.58
19.00
25.04
31.70
37.61
41.41
42.16
39.58
34.23
27.25
20.03
13.83
9.37
6.79
5.77
5.78
6.36
7.12
7.70
7.69
6.65
4.41
1.34
-1.59
-2.97
-1.52
3.38
11.47
21.75
32.91
43.81
53.66
62.02
68.50
72.72
74.35
73.37
70.14
65.27
59.34
52.51
44.40
34.36
21.90
7.12
-9.04
-25.01
-39.03
-49.65
-56.09
-58.29
-56.76
-52.31
-45.83
-38.17
-30.10
-22.30
-15.34
-9.55
-5.01
-1.59
0.95
2.83
4.13
4.81
4.76
3.86
2.06
-0.55
-3.73
-7.07
-10.00
-11.84
-12.00
-10.10
-6.07
-0.23
6.77
14.17
21.11
26.84
30.62
31.85
30.15
25.49
18.33
9.58
0.45
-7.85
-14.39
-18.70
-20.77
-20.95
-19.80
-17.96
-16.08
-14.78
-14.52
-15.55
-17.85
-21.14
-25.03
-29.20
-33.45
-37.72
-41.93
-45.88
-49.10
-51.01
-51.08
-49.07
-45.13
-39.73
-33.51
-27.07
-20.86
-15.20
-10.31
-6.39
-3.55
-1.78
-0.87
-0.46
-0.14
0.36
1.16
2.17
3.21
4.06
4.61
4.79
4.66
4.27
3.73
3.06
2.28
1.33
0.15
-1.31
-3.09
-5.19
-7.60
-10.28
-13.26
-16.57
-20.21
-23.99
-27.54
-30.30
-31.72
-31.37
-29.16
-25.35
-20.44
-15.07
-9.83
-5.18
-1.38
1.50
3.47
4.63
5.12
5.05
4.52
3.66
2.59
1.48
0.47
-0.32
-0.85
-1.15
-1.33
-1.52
-1.93
-2.74
-4.10
-6.01
-8.36
-10.84
-13.17
-15.13
-16.67
-17.92
-19.15
-20.68
-22.70
-25.23
-27.96
-30.33
-31.61
-31.11
-28.42
-23.61
-17.22
-10.04
-2.91
3.59
9.20
13.89
17.70
20.63
22.60
23.52
23.45
22.60
21.36
20.16
19.35
19.07
19.25
19.66
20.03
20.15
19.88
19.19
18.05
16.46
14.41
11.91
9.04
5.93
2.71
-0.53
-3.80
-7.21
-10.95
-15.16
-19.85
-24.81
-29.54
-33.31
-35.38
-35.12
-32.31
-27.17
-20.34
-12.67
-5.04
1.84
7.55
11.97
15.19
17.44
18.99
20.09
20.87
21.39
21.67
21.69
21.45
20.96
20.24
19.33
18.31
17.26
16.29
15.39
14.47
13.30
11.60
9.17
5.97
2.15
-1.98
-6.09
-9.93
-13.43
-16.70
-20.01
-23.65
-27.81
-32.39
-36.96
-40.74
-42.83
-42.49
-39.35
-33.64
-26.04
-17.49
-8.96
-1.14
5.55
10.97
15.11
17.97
19.59
20.05
19.56
18.50
17.34
16.52
16.31
16.72
17.52
18.39
19.03
19.33
19.32
19.09
18.73
18.20
17.34
15.93
13.83
11.00
7.57
3.76
-0.21
-4.21
-8.17
-12.11
-16.07
-20.05
-24.00
-27.82
-31.37
-34.41
-36.62
-37.53
-36.66
-33.65
-28.41
-21.26
-12.83
-3.95
4.61
12.30
18.85
24.22
28.46
31.65
33.80
34.96
35.23
34.84
34.09
33.29
32.67
32.34
32.22
32.12
31.81
31.15
30.07
28.66
27.02
25.23
23.26
20.96
18.13
14.59
10.32
5.45
0.25
-4.97
-9.96
-14.61
-18.92
-23.01
-27.02
-31.13
-35.46
-40.08
-44.95
-49.86
-54.39
-57.92
-59.72
-59.16
-55.87
-49.93
-41.82
-32.37
-22.51
-13.12
-4.89
1.68
6.25
8.62
8.72
6.79
3.41
-0.44
-3.57
-4.89
-3.63
0.39
6.84
15.04
24.17
33.44
42.16
49.68
55.38
58.76
59.54
57.82
54.11
49.17
43.79
38.52
33.61
29.00
24.51
19.99
15.42
10.85
6.38
1.99
-2.40
-6.97
-11.94
-17.52
-23.85
-30.86
-38.19
-45.10
-50.52
-53.31
-52.63
-48.25
-40.63
-30.80
-19.98
-9.23
0.73
9.55
17.06
23.12
27.56
30.28
31.31
30.94
29.66
28.05
26.59
25.59
25.14
25.11
25.28
25.42
25.35
24.96
24.21
23.07
21.49
19.41
16.81
13.73
10.29
6.67
3.05
-0.47
-3.86
-7.17
-10.44
-13.69
-16.88
-19.98
-22.92
-25.72
-28.43
-31.21
-34.25
-37.73
-41.64
-45.60
-48.85
-50.35
-49.16
-44.74
-37.23
-27.34
-16.13
-4.67
6.22
16.01
24.32
30.93
35.62
38.34
39.22
38.64
37.13
35.24
33.39
31.80
30.51
29.39
28.25
26.85
25.05
22.79
20.11
17.14
14.11
11.24
8.78
6.85
5.49
4.54
3.73
2.76
1.35
-0.64
-3.19
-6.17
-9.34
-12.48
-15.39
-17.98
-20.26
-22.43
-24.80
-27.67
-31.22
-35.28
-39.31
-42.39
-43.56
-42.05
-37.59
-30.50
-21.54
-11.71
-1.94
7.02
14.69
20.80
25.23
27.94
29.03
28.70
27.33
25.37
23.33
21.66
20.62
20.25
20.38
20.65
20.67
20.22
19.27
17.96
16.53
15.09
13.62
11.90
9.65
6.70
3.04
-1.13
-5.46
-9.59
-13.23
-16.31
-18.88
-21.12
-23.26
-25.52
-28.13
-31.30
-35.12
-39.49
-43.96
-47.71
-49.69
-48.97
-45.00
-37.90
-28.47
-17.85
-7.29
2.27
10.25
16.42
20.77
23.36
24.30
23.80
22.21
20.05
17.89
16.23
15.35
15.23
15.63
16.17
16.51
16.44
15.97
15.17
14.15
12.91
11.34
9.23
6.44
2.93
-1.13
-5.46
-9.71
-13.62
-17.09
-20.16
-23.04
-26.02
-29.40
-33.40
-38.08
-43.20
-48.16
-52.05
-53.85
-52.67
-48.18
-40.65
-30.97
-20.37
-9.99
-0.63
7.36
13.96
19.24
23.20
25.70
26.62
26.03
24.28
21.92
19.61
17.81
16.76
16.38
16.45
16.69
16.94
17.12
17.21
17.21
16.99
16.36
15.08
12.96
9.94
6.22
2.18
-1.70
-5.00
-7.53
-9.37
-10.82
-12.27
-14.07
-16.42
-19.28
-22.39
-25.21
-27.05
-27.14
-24.88
-20.01
-12.75
-3.77
5.97
15.51
24.13
31.47
37.42
42.00
45.16
46.80
46.87
45.47
42.96
39.88
36.78
34.09
31.96
30.31
28.93
27.61
26.20
24.67
23.09
21.49
19.85
18.04
15.79
12.86
9.07
4.49
-0.57
-5.70
-10.52
-14.85
-18.79
-22.60
-26.62
-31.07
-36.04
-41.43
-46.98
-52.27
-56.63
-59.28
-59.38
-56.32
-49.97
-40.81
-29.83
-18.30
-7.35
2.29
10.35
16.93
22.22
26.33
29.24
30.90
31.41
31.08
30.41
29.88
29.78
30.10
30.64
31.08
31.16
30.76
29.91
28.70
27.24
25.60
23.79
21.68
19.08
15.79
11.69
6.84
1.56
-3.73
-8.65
-12.98
-16.78
-20.32
-23.93
-27.89
-32.36
-37.37
-42.83
-48.43
-53.62
-57.54
-59.24
-57.84
-52.94
-44.77
-34.15
-22.29
-10.45
0.38
9.60
16.95
22.40
26.04
28.05
28.71
28.39
27.54
26.56
25.74
25.22
25.00
25.03
25.20
25.43
25.61
25.58
25.16
24.19
22.58
20.35
17.65
14.65
11.51
8.33
5.16
2.04
-0.98
-3.83
-6.44
-8.82
-11.03
-13.16
-15.25
-17.32
-19.34
-21.35
-23.50
-26.03
-29.17
-32.94
-36.99
-40.55
-42.61
-42.20
-38.72
-32.10
-22.93
-12.21
-1.08
9.44
18.71
26.40
32.44
36.87
39.82
41.39
41.75
41.04
39.51
37.42
35.02
32.56
30.22
28.19
26.61
25.43
24.47
23.45
22.08
20.21
17.76
14.83
11.83
9.13
6.85
4.82
2.64
-0.17
-4.05
-9.32
-16.01
-23.29
-30.03
-35.18
-38.10
-38.60
-36.99
-34.19
-31.53
-30.38
-30.81
-32.17
-33.48
-33.69
-31.83
-27.28
-19.98
-10.45
0.33
12.53
26.28
41.19
56.15
69.78
80.93
88.86
93.35
88.84
73.18
49.00
22.59
-0.43
-17.66
-29.45
-37.31
-42.32
-45.87
-47.48
-46.60
-43.48
-39.31
-35.42
-32.52
-30.99
-30.54
-30.83
-30.47
-28.71
-25.94
-23.51
-22.68
-23.86
-26.70
-30.47
-34.57
-37.51
-38.46
-37.75
-37.02
-37.84
-40.93
-45.94
-51.72
-56.83
-58.49
-54.69
-45.06
-31.28
-15.30
1.62
19.04
36.84
54.71
73.61
94.23
116.45
138.82
160.20
179.56
194.89
202.88
190.62
150.77
87.47
15.33
-50.79
-102.49
-138.91
-163.19
-177.84
-182.30
-172.22
-146.45
-105.41
-55.49
-5.15
38.65
72.92
99.26
121.70
144.50
168.68
190.81
198.99
186.15
152.20
103.39
49.58
-0.03
-40.56
-67.09
-79.19
-81.36
-80.47
-78.20
-73.66
-66.43
-56.66
-46.36
-37.55
-31.98
-30.64
-32.16
-34.15
-34.93
-34.15
-33.06
-33.34
-35.77
-40.35
-46.15
-50.89
-52.10
-48.68
-38.80
-23.87
-8.01
4.59
11.82
13.94
13.72
13.50
14.13
15.20
15.62
14.45
11.46
7.36
3.46
1.22
1.57
4.51
9.40
14.85
19.55
22.27
22.56
20.71
17.28
12.66
6.79
-0.48
-9.44
-20.04
-32.21
-45.11
-57.04
-66.30
-71.59
-72.49
-68.91
-61.36
-47.39
-28.19
-8.39
7.04
15.74
18.99
19.74
21.46
26.31
34.35
43.04
48.61
48.06
39.19
21.56
-4.99
-36.68
-68.01
-94.36
-113.24
-122.73
-119.18
-102.99
-72.02
-27.69
24.79
78.02
125.56
164.30
188.49
197.92
196.41
188.43
175.09
154.92
126.40
90.70
51.98
16.10
-10.80
-25.70
-30.25
-28.02
-22.43
-15.85
-9.29
-3.06
2.68
8.32
13.70
18.56
22.75
26.68
31.19
37.94
46.96
56.59
64.21
66.78
62.34
51.17
36.06
21.23
10.52
5.58
5.53
8.00
10.30
10.76
9.12
6.10
2.64
-0.49
-2.86
-3.88
-2.60
1.95
10.22
21.83
35.44
49.01
60.31
67.27
68.58
64.07
54.90
43.33
32.00
23.18
17.95
15.89
15.33
14.22
11.17
5.87
-0.80
-7.55
-13.05
-16.46
-17.61
-16.94
-15.14
-12.76
-10.10
-7.32
-5.14
-4.38
-5.78
-9.84
-16.54
-25.24
-34.70
-43.67
-51.31
