1592996203.00
64.000000
-0.00
-0.00
-0.00
-0.00
-0.00
-0.00
-0.00
-0.00
-0.00
-0.00
0.00
0.01
0.01
-0.00
-0.03
-0.05
-0.05
0.00
0.13
0.36
0.66
1.01
1.37
1.72
2.06
2.40
2.79
3.24
3.80
4.42
5.06
5.66
6.20
6.68
7.15
7.68
8.31
9.14
10.09
11.04
11.88
12.56
13.14
13.76
14.65
15.96
17.91
20.32
22.90
25.38
27.58
29.57
31.68
34.32
37.81
42.54
48.15
54.10
59.83
64.97
69.58
74.14
79.34
85.71
93.76
103.00
112.62
121.73
129.77
136.75
143.30
150.75
157.77
166.64
177.95
191.79
206.97
220.57
228.25
225.36
208.53
176.87
132.76
80.05
23.07
-34.94
-92.44
-149.16
-205.23
-260.37
-313.74
-363.87
-409.83
-450.91
-486.50
-515.74
-537.23
-549.22
-549.96
-538.37
-514.21
-478.67
-433.88
-382.45
-327.02
-269.84
-212.63
-156.66
-102.95
-52.37
-5.90
35.58
71.43
101.35
125.50
144.38
158.69
169.15
176.37
180.75
182.57
182.07
179.51
175.23
169.65
163.18
156.15
148.81
141.30
133.69
126.01
118.33
110.69
103.17
95.83
88.72
81.85
75.23
68.86
62.76
56.98
51.54
46.45
41.70
37.27
33.11
29.21
25.56
22.18
19.10
16.33
13.87
11.70
9.74
7.95
6.30
4.77
3.41
2.27
1.40
0.81
0.39
0.04
-0.41
-1.05
-1.84
-2.67
-3.36
-3.75
-3.82
-3.71
-3.68
-4.02
-4.87
-6.16
-7.59
-8.77
-9.41
-9.48
-9.25
-9.18
-9.74
-11.15
-13.24
-15.49
-17.33
-18.35
-18.59
-18.44
-18.48
-19.15
-20.58
-22.67
-25.32
-28.48
-31.97
-34.99
-36.09
-33.57
-26.43
-15.29
-2.43
9.18
17.25
21.37
22.95
24.10
26.21
29.20
31.92
33.33
33.62
34.19
36.83
42.49
50.48
58.85
65.33
68.38
67.65
63.92
58.29
51.72
44.60
36.89
28.46
19.35
10.04
1.41
-5.51
-9.87
-11.28
-9.99
-6.86
-3.05
0.31
2.40
2.87
1.95
-0.09
-2.78
-5.72
-8.61
-11.21
-13.38
-14.93
-15.77
-15.88
-15.40
-14.50
-13.44
-12.39
-11.44
-10.60
-9.88
-9.38
-9.22
-9.61
-10.58
-12.00
-13.51
-14.64
-15.03
-14.54
-13.37
-11.91
-10.59
-9.64
-9.01
-8.44
-7.69
-6.71
-5.66
-4.88
-4.61
-4.89
-5.48
-6.00
-6.17
-5.90
-5.33
-4.70
-4.18
-3.79
-3.45
-3.04
-2.47
-1.80
-1.09
-0.41
0.14
0.47
0.43
-0.19
-1.49
-3.36
-5.51
-7.58
-9.38
-11.05
-12.99
-15.67
-19.37
-24.01
-29.13
-34.01
-38.05
-40.90
-42.57
-43.35
-43.51
-43.37
-43.11
-42.73
-42.09
-40.99
-39.36
-37.42
-35.69
-34.65
-34.68
-35.60
-36.35
-35.12
-29.98
-19.83
-4.96
12.88
31.47
48.45
62.27
72.91
81.73
90.70
101.20
113.38
126.19
138.33
147.76
152.34
150.67
142.58
129.63
114.66
101.19
92.60
91.44
97.16
106.08
112.94
112.74
102.94
83.60
56.93
22.86
-13.54
-45.06
-66.70
-77.90
-81.19
-78.52
-71.19
-60.58
-48.78
-37.96
-30.75
-29.05
-32.83
-41.52
-52.11
-62.09
-70.72
-78.94
-88.15
-100.32
-117.36
-135.73
-154.99
-173.53
-187.91
-192.91
-183.25
-155.87
-112.80
-61.23
-11.00
28.58
53.31
64.34
66.48
65.17
64.20
64.36
64.60
63.79
61.46
58.82
57.28
57.47
58.80
60.15
60.20
58.92
57.65
57.91
60.38
63.41
63.02
54.47
35.04
5.49
-29.46
-63.03
-89.31
-105.15
-110.53
-107.50
-99.33
-87.23
-72.43
-56.50
-41.56
-29.70
-21.82
-17.07
-13.22
-7.97
-0.12
9.65
19.32
26.42
29.04
26.05
17.23
3.41
-13.62
-31.31
-47.37
-60.26
-69.46
-74.95
-76.54
-73.25
-63.58
-46.65
-23.14
4.23
31.67
55.83
74.79
88.12
95.94
97.98
93.27
80.98
61.56
37.45
12.44
-9.54
-25.86
-35.71
-39.70
-38.99
-34.19
-25.30
-12.09
5.26
25.78
47.77
69.51
89.88
108.70
126.45
143.39
158.90
171.24
178.04
177.28
168.41
152.86
133.82
115.36
101.03
92.77
90.11
90.42
89.73
84.24
71.85
53.15
31.53
12.50
2.40
6.83
29.02
68.37
119.99
175.43
224.69
259.05
273.40
267.30
244.27
209.87
169.47
126.89
84.17
42.30
1.95
-36.16
-71.46
-103.75
-133.21
-159.95
-183.59
-203.07
-216.97
-224.08
-224.09
-217.88
-207.51
-195.75
-185.35
-178.32
-175.34
-175.66
-177.35
-178.01
-175.66
-169.44
-159.87
-148.60
-137.68
-128.72
-122.16
-117.01
-111.28
-102.75
-90.06
-73.29
-54.08
-34.85
-17.99
-4.92
4.08
9.57
12.47
13.64
13.92
14.43
16.63
22.02
31.36
44.11
58.36
71.53
81.47
87.28
89.37
88.79
86.45
82.60
77.02
69.48
60.22
50.08
40.09
30.97
22.86
15.54
8.77
2.54
-3.20
-8.64
-14.30
-20.87
-28.91
-38.28
-48.06
-56.71
-62.67
-65.36
-65.05
-62.51
-58.42
-53.04
-46.31
-38.34
-29.73
-21.87
-17.42
-18.38
-24.93
-35.10
-45.67
-53.66
-57.45
-56.90
-52.88
-48.66
-46.99
-48.97
-53.63
-58.83
-62.41
-62.98
-59.82
-52.85
-45.92
-43.22
-47.87
-60.93
-81.86
-109.34
-141.35
-174.65
-205.13
-233.30
-260.96
-289.99
-320.84
-352.55
-383.30
-410.99
-433.13
-421.12
-357.41
-242.29
-96.63
50.89
179.12
280.11
355.04
408.94
446.97
468.82
473.95
463.34
442.53
418.87
398.83
385.84
380.71
382.39
385.49
385.02
378.32
366.08
350.51
336.41
325.76
318.35
313.09
306.78
297.17
283.90
268.79
254.71
244.16
237.99
235.53
235.52
235.68
234.20
230.29
224.28
217.06
209.54
202.00
193.37
182.77
169.66
154.34
137.60
120.23
102.65
84.88
66.41
43.63
13.90
-23.08
-65.08
-108.75
-151.23
-190.77
-226.39
-257.63
-290.39
-328.90
-373.00
-418.04
-457.84
-487.98
-506.96
-515.41
-515.15
-518.33
-534.29
-565.10
-605.31
-646.46
-682.33
-710.73
-732.41
-749.40
-777.03
-826.81
-900.55
-990.33
-1084.41
-1173.91
-1255.15
-1328.29
-1312.94
-1165.31
-893.15
-554.22
-218.08
70.07
295.74
463.56
585.42
673.79
726.02
740.54
723.13
686.93
646.86
613.91
592.88
583.80
584.28
581.40
561.53
524.81
478.91
433.39
395.24
366.74
346.40
330.90
310.53
278.46
234.37
183.28
131.88
85.77
47.48
16.51
-10.01
-39.43
-79.35
-135.30
-202.63
-275.72
-345.76
-402.03
-434.54
-437.22
-410.79
-362.09
-301.03
-237.33
-177.99
-124.44
-73.51
-19.61
42.00
114.16
195.34
279.31
355.95
413.73
443.96
443.11
413.74
363.65
305.99
255.64
225.49
222.83
247.09
290.62
341.43
387.88
412.80
407.16
373.72
325.58
277.83
239.01
209.54
185.40
163.47
142.65
124.52
110.47
99.80
89.88
77.19
60.78
38.30
9.47
-25.23
-64.64
-108.11
-155.27
-204.86
-249.23
-279.98
-290.81
-279.72
-250.94
-212.89
-175.09
-144.69
-124.42
-112.91
-107.20
-104.73
-103.98
-104.52
-105.99
-107.34
-107.16
-104.48
-99.51
-94.00
-90.13
-89.33
-91.59
-95.61
-99.22
-100.19
-97.04
-89.45
-78.42
-65.66
-53.51
-42.21
-31.61
-21.34
-11.09
-1.03
8.12
15.03
18.32
17.12
11.42
1.97
-9.93
-22.76
-35.15
-46.10
-55.16
-62.27
-67.61
-71.41
-73.86
-75.26
-76.01
-76.55
-77.44
-79.13
-81.96
-86.09
-91.44
-97.54
-103.86
-109.87
-115.06
-118.95
-121.12
-121.11
-118.32
-114.35
-110.02
-106.02
-102.88
-100.98
-100.55
-101.63
-104.13
-107.87
-112.56
-117.60
-122.46
-126.73
-130.14
-132.54
-133.96
-134.56
-134.53
-134.16
-133.41
-132.23
-130.44
-127.82
-124.03
-118.63
-111.13
-101.08
-88.08
-71.70
-51.72
-28.11
-1.10
28.91
61.36
95.62
130.96
166.60
201.86
235.95
267.93
296.68
320.85
338.88
349.18
350.20
340.72
320.11
288.57
247.18
197.89
143.36
86.52
30.34
-22.55
-70.12
-111.04
-144.66
-171.02
-190.66
-204.47
-213.48
-218.73
-221.13
-221.35
-219.86
-216.90
-212.58
-206.91
-199.93
-191.68
-182.25
-171.71
-160.16
-147.67
-134.33
-120.27
-105.69
-90.81
-75.89
-61.21
-47.06
-33.73
-21.45
-10.48
-1.06
6.61
12.77
17.76
21.99
25.86
29.63
33.34
36.92
40.15
42.75
44.69
45.94
46.47
46.29
45.41
43.95
42.19
40.63
39.96
41.89
48.13
60.15
78.77
103.93
134.57
168.81
204.24
238.15
270.09
299.79
327.01
351.17
371.16
385.59
393.29
393.79
387.50
380.23
378.11
386.34
407.76
442.06
486.07
535.18
584.71
630.88
678.35
732.59
798.08
876.39
965.50
1061.05
1158.62
1254.90
1347.14
1440.86
1538.71
1639.14
1736.50
1823.16
1892.80
1943.44
1977.46
1942.03
1800.98
1535.20
1153.67
694.52
211.65
-244.82
-641.52
-964.78
-1216.01
-1395.74
-1508.13
-1559.69
-1559.82
-1521.46
-1459.97
-1389.74
-1321.96
-1263.82
-1211.76
-1159.93
-1103.56
-1040.88
-974.32
-909.56
-852.24
-805.96
-771.53
-742.99
-713.51
-677.45
-632.10
-576.15
-513.33
-448.78
-387.09
-331.21
-280.40
-233.32
-189.21
-148.83
-114.26
-88.74
-74.56
-72.18
-80.19
-95.48
-114.95
-136.70
-157.58
-176.64
-194.28
-211.36
-228.74
-246.77
-264.48
-278.85
-284.84
-276.97
-252.32
-212.32
-163.33
-114.69
-75.10
-49.43
-37.21
-33.87
-33.57
-32.63
-29.28
-23.45
-15.26
-3.93
12.13
34.37
62.90
96.08
129.17
157.90
179.26
192.15
197.37
197.18
194.24
190.70
187.53
184.29
180.02
173.56
164.52
153.46
141.78
131.15
122.65
116.60
112.83
111.47
112.56
115.33
117.27
114.02
100.72
74.43
36.35
-7.73
-49.25
-80.44
-97.37
-101.11
-96.36
-88.73
-82.26
-78.26
-75.95
-73.71
-70.44
-65.92
-60.63
-55.46
-51.14
-48.25
-46.71
-45.97
-45.13
-43.58
-41.16
-38.02
-33.98
-28.20
-19.69
-8.36
3.89
13.52
16.99
13.30
5.77
1.09
5.88
22.33
46.26
68.43
79.05
72.86
51.62
22.82
-4.62
-24.74
-36.53
-42.69
-46.58
-49.66
-50.26
-46.32
-36.81
-23.33
-9.78
-0.47
2.16
-1.39
-8.11
-14.13
-16.45
-14.42
-9.97
-6.53
-7.53
-15.09
-29.50
-49.27
-71.43
-91.46
-105.04
-108.24
-99.29
-79.60
-53.82
-28.24
-8.45
2.89
6.64
6.02
4.61
4.31
4.91
5.06
4.05
2.75
3.35
8.03
17.46
30.46
44.64
57.64
68.03
75.54
80.38
82.28
80.47
74.26
63.94
51.28
38.82
28.74
21.85
17.70
15.38
14.66
16.02
19.94
25.81
31.42
33.90
31.16
23.39
13.03
3.82
-0.94
0.36
7.27
17.85
29.37
39.08
44.87
45.44
40.87
32.44
21.89
10.89
0.34
-9.60
-19.13
-28.07
-35.22
-38.36
-35.31
-25.72
-11.29
4.83
19.26
29.68
35.79
39.09
41.98
46.15
50.52
52.47
49.52
40.77
27.34
12.98
1.66
-3.39
-0.92
6.37
14.47
19.84
20.76
17.02
9.36
-1.44
-14.96
-31.20
-52.43
-80.11
-113.40
-149.16
-183.70
-214.09
-238.94
-257.94
-258.09
-232.26
-182.70
-120.42
-57.57
-2.04
43.69
80.19
109.18
132.29
148.60
157.35
159.07
155.94
150.04
142.93
135.10
126.32
115.95
101.69
81.84
56.18
29.53
5.00
-15.42
-30.89
-41.32
-47.11
-49.94
-51.32
-52.02
-51.86
-50.84
-48.89
-46.08
-42.56
-38.60
-34.92
-32.06
-30.11
-28.65
-27.52
-26.52
-25.51
-24.38
-23.21
-22.25
-21.69
-21.55
-21.68
-22.11
-22.81
-23.73
-24.71
-25.84
-27.10
-28.53
-30.08
-31.74
-33.64
-35.80
-38.26
-40.85
-43.66
-46.64
-49.71
-52.69
-55.29
-57.21
-58.11
-58.73
-57.90
-55.18
-50.34
-43.53
-35.19
-25.97
-16.64
-7.90
-0.34
5.82
10.47
13.98
16.94
20.12
24.33
30.26
38.41
48.88
61.71
75.66
89.51
101.98
111.94
118.50
121.15
119.84
115.14
107.18
96.26
82.73
66.69
48.40
28.28
7.03
-14.22
-34.12
-51.31
-64.41
-72.47
-75.06
-72.08
-63.58
-49.59
-30.30
-5.17
23.56
53.37
81.23
104.15
119.85
127.23
126.73
120.30
109.55
95.39
78.27
57.61
32.58
3.16
-29.58
-62.45
-93.48
-121.48
-145.64
-164.41
-175.09
-174.59
-160.77
-134.33
-99.22
-61.63
-27.09
1.60
24.85
44.20
59.32
68.12
66.98
54.25
32.18
7.58
-11.03
-17.27
-9.83
7.13
26.21
39.73
43.55
38.10
27.76
18.72
16.19
22.15
34.58
49.43
59.82
60.92
52.19
36.84
19.79
4.96
-6.26
-15.01
-23.16
-31.76
-39.85
-45.36
-46.77
-44.22
-39.70
-35.94
-35.38
-38.72
-45.11
-52.40
-58.31
-61.54
-62.14
-61.48
-61.35
-63.25
-67.62
-74.00
-81.09
-87.54
-92.49
-95.68
-97.58
-98.83
-99.86
-100.46
-99.87
-96.91
-90.39
-80.13
-65.50
-46.85
-25.22
-2.14
20.80
42.20
60.86
75.95
86.95
93.61
95.60
92.66
84.67
72.01
55.88
37.99
20.62
6.11
-3.44
-7.04
-4.89
1.61
10.88
21.85
33.82
46.94
61.70
78.36
96.10
112.84
125.55
132.25
132.69
128.21
121.88
117.17
117.24
124.19
138.70
159.64
182.33
202.96
215.94
215.48
197.33
161.64
113.36
62.35
14.09
-28.34
-65.48
-101.47
-140.84
-186.01
-234.62
-278.16
-306.81
-314.32
-299.28
-266.14
-225.25
-183.60
-144.97
-108.76
-71.84
-31.63
11.37
55.14
96.12
131.94
162.19
185.93
200.08
199.36
180.80
140.95
82.43
14.49
-49.85
-98.20
-123.73
-126.79
-113.85
-94.53
-78.34
-70.88
-73.55
-84.52
-99.95
-116.48
-131.72
-144.33
-153.51
-158.90
-159.85
-156.28
-148.91
-139.25
-129.36
-121.08
-115.18
-111.58
-109.89
-109.40
-109.55
-110.03
-109.86
-107.34
-99.79
-83.73
-55.64
-12.92
45.55
118.94
200.10
279.42
346.77
394.36
418.97
422.04
408.09
382.62
350.39
314.60
277.51
240.59
205.07
172.37
143.87
120.66
103.10
90.47
81.03
72.95
64.81
55.93
46.64
37.96
31.02
26.72
25.69
28.27
34.47
42.96
50.36
51.52
41.28
17.04
-19.17
-60.58
-98.20
-124.42
-136.13
-135.50
-127.87
-118.59
-110.44
-103.22
-95.08
-84.96
-73.60
-63.44
-57.13
-56.30
-60.90
-69.97
-82.49
-98.02
-116.20
-135.44
-151.73
-160.31
-157.23
-141.59
-116.40
-87.66
-61.68
-42.72
-31.60
-26.18
-23.21
-19.90
-14.76
-7.28
2.46
14.24
27.36
40.80
53.12
62.97
69.79
73.67
75.75
77.87
82.22
90.09
101.03
112.16
118.38
114.17
96.31
66.03
28.74
-5.52
-28.02
-34.63
-26.79
-10.06
8.96
25.57
38.04
46.74
52.68
56.16
56.38
52.55
44.47
32.44
17.03
-1.03
-21.32
-42.77
-64.71
-86.20
-105.98
-122.80
-135.85
-144.98
-150.65
-154.10
-156.93
-161.12
-167.77
-175.91
-182.26
-181.92
-170.41
-145.98
-111.17
-72.05
-36.09
-8.83
8.23
17.16
22.06
25.99
29.94
33.00
33.96
32.50
29.83
28.17
28.83
31.57
34.69
36.22
35.01
31.72
28.53
28.45
34.27
46.49
63.22
80.78
95.35
104.34
107.39
106.30
103.97
103.77
107.68
116.26
128.69
142.65
154.32
158.97
152.31
129.84
94.39
53.18
15.33
-11.68
-25.07
-27.00
-22.65
-17.04
-12.77
-9.44
-6.24
-3.64
-3.96
-10.51
-25.89
-50.81
-83.95
-121.68
-159.20
-191.45
-213.13
-219.83
-209.72
-184.91
-151.38
-117.09
-89.08
-71.13
-63.19
-62.38
-65.21
-69.30
-73.76
-78.19
-81.91
-82.53
-77.53
-65.39
-46.39
-22.33
4.32
31.18
56.17
78.60
98.51
115.82
130.11
140.69
147.03
149.17
147.84
144.33
140.04
135.88
131.91
127.84
123.21
117.91
112.28
106.86
102.37
99.74
99.87
103.05
108.23
112.33
110.71
98.78
74.41
39.74
1.01
-33.85
-58.46
-70.35
-71.42
-66.03
-58.45
-51.15
-44.33
-37.18
-29.52
-22.41
-17.49
-15.91
-17.29
-20.11
-22.44
-22.52
-19.83
-14.94
-9.20
-4.11
-0.71
1.03
1.57
1.69
1.95
2.24
2.10
0.99
-1.44
-5.22
-9.59
-13.71
-16.92
-19.01
-20.37
-21.81
-24.10
-27.11
-31.68
-37.54
-44.15
-50.82
-57.00
-62.33
-66.73
-70.20
-72.89
-75.12
-76.85
-78.33
-79.81
-81.62
-84.01
-86.96
-90.33
-93.63
-97.10
-98.89
-97.91
-93.46
-85.27
-73.54
-58.73
-41.49
-21.84
-1.40
18.96
38.13
54.90
68.21
77.19
81.54
81.70
78.86
74.55
70.63
68.14
67.16
66.96
66.39
64.45
60.75
55.68
50.11
45.04
40.82
36.92
32.35
25.89
16.70
4.30
-11.47
-30.09
-49.82
-67.36
-78.11
-77.66
-64.05
-39.10
-8.24
21.26
43.24
55.03
57.69
54.39
48.90
43.17
37.15
29.87
20.91
11.01
1.76
-5.49
-10.40
-13.73
-16.89
-21.08
-26.46
-32.38
-37.69
-41.31
-42.89
-42.91
-42.45
-42.78
-44.73
-48.27
-52.81
-57.24
-60.50
-61.88
-61.19
-58.74
-55.09
-50.65
-45.47
-39.65
-33.20
-26.27
-19.19
-12.48
-6.68
-2.19
0.93
3.14
4.92
6.85
9.32
12.62
16.72
21.28
25.76
29.62
32.66
34.66
35.67
35.89
35.85
36.28
37.86
41.02
44.79
49.66
55.51
61.87
67.96
73.33
77.63
80.73
82.41
82.64
81.66
79.54
77.55
74.82
71.08
66.35
60.89
54.76
48.00
40.82
33.23
25.15
16.30
6.71
-4.61
-16.86
-29.64
-42.73
-55.89
-68.87
-81.41
-93.30
-103.96
-112.73
-118.71
-121.32
-120.00
-114.40
-104.56
-90.84
-74.06
-55.10
-34.96
-15.02
3.82
20.91
35.68
47.59
56.23
61.38
63.21
62.32
59.81
56.86
54.52
53.31
53.08
53.17
52.67
50.96
47.94
44.35
41.32
39.99
40.87
43.55
46.91
49.63
50.74
50.06
48.69
47.66
48.16
51.33
57.21
65.19
73.55
79.49
79.39
69.96
49.68
20.12
-13.98
-46.03
-69.71
-81.32
-80.95
-71.95
-59.18
-46.94
-37.57
-31.29
-26.98
-23.33
-19.68
-16.21
-13.58
-12.45
-12.86
-14.12
-15.29
-15.72
-15.41
-14.93
-14.95
-15.83
-16.99
-16.96
-13.91
-6.55
5.14
19.36
33.37
44.61
51.74
55.20
56.79
58.61
61.96
66.84
71.74
75.10
76.19
75.49
74.48
74.92
77.90
83.53
91.00
98.20
103.02
103.88
100.09
92.08
81.03
68.28
54.32
41.82
31.11
21.34
11.14
-0.73
-14.74
-30.44
-46.81
-62.63
-77.00
-90.17
-102.71
-115.22
-128.11
-141.49
-155.10
-168.26
-179.42
-186.10
-185.65
-175.80
-156.05
-128.42
-97.00
-66.25
-39.00
-15.16
7.83
33.00
61.98
93.71
124.83
151.24
170.08
180.62
184.49
184.42
182.99
181.79
181.25
180.87
179.76
177.33
173.70
169.64
166.06
163.29
160.83
157.84
154.43
152.58
156.14
169.10
193.12
225.35
258.43
282.67
289.79
276.17
243.96
199.48
150.12
101.32
55.40
12.47
-27.82
-64.94
-97.07
-122.21
-139.47
-149.98
-156.48
-162.17
-169.11
-177.40
-185.36
-190.58
-191.56
-188.76
-184.70
-182.88
-186.49
-197.08
-214.30
-236.32
-260.68
-284.89
-306.47
-322.71
-330.81
-328.76
-316.58
-296.99
-274.88
-255.35
-241.41
-232.79
-226.72
-220.51
-214.11
-210.65
-214.37
-227.01
-244.97
-259.50
-260.12
-239.99
-199.45
-146.06
-91.16
-44.84
-12.01
8.47
21.30
30.83
38.16
41.95
41.24
38.15
38.29
47.96
70.23
102.07
134.80
156.79
159.75
142.49
111.13
75.61
45.30
26.24
20.57
27.75
43.83
65.37
90.79
119.60
150.16
178.44
198.84
206.14
197.12
166.95
115.61
49.94
-18.38
-78.65
-125.81
-160.64
-187.29
-210.47
-241.23
-286.58
-345.41
-409.05
-466.85
-510.30
-532.91
-530.06
-500.66
-459.65
-425.99
-414.18
-429.24
-469.15
-527.90
-596.69
-665.69
-663.73
-551.11
-342.85
-99.80
120.64
293.52
419.86
510.49
575.98
623.31
646.70
641.92
613.24
573.52
536.21
508.40
490.61
479.46
470.31
451.49
414.94
361.00
299.79
242.42
195.46
160.75
137.23
122.74
110.24
94.34
74.18
53.31
35.64
22.87
14.87
10.80
9.96
9.54
7.31
2.64
-3.44
-10.01
-16.87
-23.77
-29.96
-34.11
-35.96
-35.78
-34.46
-33.08
-32.96
-35.24
-40.35
-48.05
-57.31
-66.03
-71.03
-68.67
-56.04
-32.57
-1.19
32.64
62.30
82.92
93.15
95.51
94.56
94.34
95.93
96.67
91.93
77.02
50.14
13.66
-26.59
-63.71
-92.38
-110.54
-120.75
-125.06
-125.50
-122.34
-114.28
-99.85
-78.98
-53.55
-26.04
-0.33
21.96
40.86
57.59
73.55
89.18
103.70
115.61
123.47
126.54
125.51
121.71
116.75
111.74
107.00
101.53
93.98
83.23
68.66
51.01
31.73
12.71
-4.31
-18.06
-27.99
-34.14
-36.92
-37.00
-34.96
-31.28
-26.50
-21.32
-16.41
-12.44
-9.88
-8.99
-9.85
-12.35
-16.14
-20.85
-26.31
-32.41
-38.94
-45.56
-51.73
-56.81
-60.10
-60.50
-57.20
-50.00
-38.74
-23.59
-4.95
16.50
40.69
65.39
89.09
110.24
126.83
137.91
142.92
141.78
134.92
123.17
107.55
89.80
71.26
51.84
32.16
13.13
-4.09
-18.52
-29.47
-36.91
-40.80
-42.23
-44.21
-48.81
-57.51
-71.04
-90.10
-115.12
-146.65
-185.38
-221.69
-252.18
-275.43
-292.14
-303.78
-312.49
-319.18
-332.04
-347.67
-360.23
-365.53
-359.37
-339.99
-307.44
-264.76
-215.71
-153.88
-82.46
-9.58
54.31
102.50
131.79
149.69
161.29
169.62
176.56
183.08
191.01
195.87
197.52
197.09
198.84
205.07
216.37
231.87
249.35
267.23
284.43
301.46
318.29
337.52
359.04
380.50
398.99
411.44
416.43
413.26
401.69
359.70
279.00
166.78
41.89
-76.15
-175.99
-253.91
-311.14
-350.81
-376.62
-388.36
-386.35
-375.04
-356.17
-331.66
-302.74
-269.97
-233.22
-192.14
-143.82
-86.39
-25.15
33.03
81.89
117.84
140.13
150.00
149.74
143.33
134.28
124.29
114.39
104.69
95.15
85.69
76.29
66.95
58.17
50.50
43.70
37.60
31.74
25.66
18.97
11.30
4.89
-1.94
-9.77
-18.99
-29.50
-40.96
-52.93
-64.80
-75.94
-85.76
-94.02
-100.19
-104.20
-106.23
-106.85
-106.93
-107.60
-110.11
-115.57
-124.79
-137.98
-155.04
-175.41
-198.07
-221.63
-244.37
-264.29
-282.08
-296.65
-306.55
-310.75
-308.79
-300.78
-287.34
-269.51
-248.50
-225.67
-202.00
-178.40
-155.71
-134.58
-115.39
-98.29
-83.34
-70.43
-59.46
-50.02
-41.88
-34.83
-28.81
-23.69
-19.36
-15.68
-12.52
-9.75
-7.09
-4.48
-1.94
0.39
2.34
3.73
4.40
4.24
3.22
1.53
-0.68
-3.17
-5.68
-7.92
-9.60
-10.47
-10.33
-9.07
-6.67
-3.29
0.73
4.95
8.80
11.73
13.23
12.97
10.83
6.92
1.57
-4.76
-11.46
-17.89
-23.33
-27.08
-28.46
-26.84
-21.20
-10.92
3.89
22.44
43.69
66.66
90.53
114.63
138.31
161.58
184.26
205.77
225.23
241.99
255.99
267.77
278.36
288.87
301.40
316.84
334.09
350.33
362.34
367.76
365.62
356.51
342.18
328.65
320.48
318.67
321.03
324.77
328.62
333.09
339.79
350.54
374.32
416.70
476.64
547.30
620.67
690.43
751.52
798.99
828.05
847.27
863.35
876.35
880.52
870.92
847.42
813.38
773.14
730.68
704.83
707.54
736.83
777.98
814.23
834.71
835.62
818.11
690.62
419.64
45.26
-340.84
-661.24
-887.10
-1026.41
-1100.72
-1131.18
-1134.07
-1105.57
-1044.57
-959.57
-869.20
-790.57
-732.35
-695.23
-675.87
-670.29
-663.14
-644.28
-612.93
-578.20
-550.37
-533.59
-524.73
-515.54
-497.09
-455.88
-387.07
-297.89
-204.38
-122.20
-60.63
-22.32
-6.09
-10.36
-29.16
-55.94
-85.17
-111.64
-129.53
-134.03
-123.59
-100.52
-70.89
-39.15
-8.04
21.10
47.37
70.04
88.52
102.66
113.08
118.53
118.71
114.62
107.80
99.75
90.92
80.35
65.78
49.41
28.75
2.17
-29.87
-64.87
-99.29
-130.16
-155.66
-175.16
-188.63
-200.94
-216.12
-235.90
-259.45
-284.96
-311.19
-338.33
-367.80
-379.30
-362.46
-318.69
-260.44
-202.01
-151.70
-111.05
-77.92
-49.47
-23.67
-3.45
8.47
11.09
5.58
-5.41
-18.38
-28.56
-30.02
-17.12
10.30
48.21
89.22
125.16
149.64
160.42
159.90
153.57
147.00
141.68
136.31
128.49
117.20
103.11
88.45
75.73
66.34
60.28
56.29
53.57
52.28
52.25
52.91
51.71
44.84
29.32
5.54
-22.15
-46.28
-59.30
-55.12
-34.52
-2.88
32.85
66.93
96.25
119.99
138.37
150.88
156.25
152.76
139.61
117.47
87.91
52.94
14.25
-26.71
-68.18
-106.59
-136.79
-153.02
-151.39
-132.33
-101.21
-66.65
-37.30
-18.61
-11.30
-12.59
-18.32
-25.24
-32.01
-38.72
-45.48
-51.92
-57.28
-60.86
-63.01
-64.88
-67.72
-72.34
-78.39
-84.44
-88.49
-89.25
-85.29
-76.58
-64.09
-49.38
-34.02
-19.00
-4.76
8.68
21.35
33.15
43.47
51.45
56.39
58.01
56.78
53.77
50.37
47.95
47.52
49.32
52.98
57.72
62.57
66.74
69.69
71.05
70.47
67.69
62.28
53.77
41.93
26.89
9.63
-8.32
-25.16
-39.13
-48.96
-54.29
-55.57
-53.89
-50.49
-45.90
-40.11
-32.64
-22.88
-10.61
3.70
19.02
34.16
48.25
61.64
75.36
90.81
109.49
132.82
162.13
198.39
241.56
286.61
327.20
355.79
365.78
353.88
321.42
273.79
218.32
161.63
107.92
59.36
16.49
-20.32
-50.33
-72.80
-87.83
-97.21
-104.78
-115.89
-135.57
-166.74
-208.17
-253.37
-292.08
-313.58
-310.36
-280.81
-228.94
-162.01
-88.34
-15.92
47.87
96.26
124.14
129.93
116.83
92.11
64.37
39.63
18.75
-1.94
-27.76
-61.66
-101.59
-140.68
-169.84
-180.84
-169.11
-134.99
-83.63
-23.95
33.28
77.92
102.45
103.26
80.71
37.84
-21.12
-92.26
-172.37
-257.80
-343.16
-420.72
-481.32
-516.97
-523.94
-504.34
-465.32
-416.30
-365.27
-316.63
-271.34
-228.51
-187.77
-150.71
-120.20
-98.77
-87.06
-83.24
-83.87
-85.55
-86.25
-85.77
-85.40
-86.62
-89.93
-94.51
-98.27
-98.78
-94.21
-84.03
-69.30
-52.20
-35.10
-19.75
-6.88
3.92
13.80
24.02
35.54
48.66
63.05
78.27
94.10
110.86
129.42
150.90
176.29
206.18
240.51
278.64
319.41
361.30
402.47
440.87
474.35
500.95
519.06
527.66
526.19
514.60
493.28
463.14
425.93
384.43
342.35
303.92
272.80
251.05
238.44
232.57
229.65
225.76
217.90
204.59
185.72
162.00
134.35
103.50
70.02
34.45
-2.24
-38.22
-70.67
-95.72
-109.44
-109.38
-96.10
-73.80
-49.92
-33.13
-30.70
-45.84
-76.09
-114.08
-150.01
-174.87
-182.62
-171.77
-144.97
-107.83
-66.99
-27.95
5.37
31.11
49.24
62.11
73.50
87.25
105.05
125.58
145.82
161.87
170.99
171.93
166.02
155.73
143.76
132.07
122.33
117.09
117.93
124.20
131.43
134.11
127.45
110.23
85.03
51.69
14.81
-19.89
-40.32
-43.12
-29.51
-6.42
19.30
40.49
50.23
43.40
16.45
-31.32
-97.56
-174.24
-248.97
-307.70
-339.95
-342.76
-321.61
-289.07
-259.92
-246.07
-251.31
-271.54
-297.28
-318.18
-326.08
-315.45
-283.60
-230.09
-157.78
-72.60
15.23
93.04
148.48
173.77
168.68
140.18
99.14
55.94
17.26
-16.39
-48.84
-85.45
-129.85
-182.23
-239.62
-297.45
-351.21
-391.03
-408.12
-396.47
-355.46
-290.43
-211.01
-127.57
-48.67
20.05
75.79
117.17
144.37
158.94
163.57
161.43
155.67
148.77
142.26
136.76
131.67
126.14
119.54
111.88
103.74
96.02
89.44
84.35
80.72
77.89
75.16
71.96
68.13
63.94
59.97
56.70
54.46
53.41
53.40
54.23
55.70
57.72
60.23
63.28
66.65
69.89
72.33
73.10
71.85
67.73
60.46
50.21
37.81
24.49
11.75
1.22
-5.65
-7.84
-5.10
2.08
12.16
23.13
32.66
38.67
39.74
35.29
25.63
11.69
-4.34
-21.24
-38.00
-54.05
-68.85
-81.92
-92.61
-100.36
-104.81
-106.03
-104.93
-102.88
-101.48
-101.81
-104.12
-107.61
-110.97
-112.97
-112.82
-110.88
-108.22
-106.19
-106.06
-108.78
-114.89
-124.57
-136.60
-147.69
-153.05
-147.77
-129.06
-97.99
-60.67
-22.89
9.68
34.46
52.38
66.50
79.75
93.17
105.71
115.32
120.62
121.47
119.18
115.13
109.87
102.73
92.03
76.64
56.50
32.81
7.61
-16.31
-36.73
-52.37
-63.27
-70.40
-75.67
-80.03
-83.57
-85.51
-84.02
-77.64
-65.70
-48.84
-28.88
-8.11
11.63
29.34
45.11
60.21
75.50
91.51
108.23
125.42
142.69
158.91
171.60
175.05
165.85
142.40
107.01
66.13
28.31
1.01
-12.43
-13.51
-7.09
2.02
10.59
17.96
24.86
31.71
37.87
41.92
42.76
40.54
37.27
35.05
35.64
39.18
44.29
48.95
51.32
50.61
47.70
44.78
43.96
46.67
51.94
57.28
59.49
55.58
44.00
25.14
1.09
-25.56
-52.20
-77.26
-100.34
-121.52
-141.34
-160.24
-178.59
-196.27
-212.05
-223.08
-225.35
-216.03
-193.63
-161.02
-124.79
-93.11
-72.56
-65.45
-69.39
-79.31
-89.98
-97.97
-102.73
-104.63
-103.70
-98.73
-87.46
-67.84
-39.27
-3.18
37.32
77.60
113.37
142.05
162.87
176.79
185.73
191.54
195.52
198.47
201.32
203.83
205.18
203.30
194.97
177.19
149.03
113.03
74.86
41.31
17.45
4.98
1.89
4.19
8.68
14.08
20.68
28.83
37.58
43.82
44.11
35.87
18.32
-7.53
-39.44
-73.89
-106.45
-132.04
-146.50
-147.98
-138.03
-121.47
-104.48
-92.16
-86.72
-87.09
-90.76
-95.72
-101.38
-108.40
-117.61
-128.65
-139.67
-148.04
-151.66
-149.58
-142.22
-130.53
-115.48
-97.26
-75.52
-49.80
-20.30
11.45
42.90
71.26
94.07
109.90
118.60
121.25
119.67
115.64
111.11
106.47
101.72
96.67
91.08
85.01
78.74
72.78
67.33
62.59
58.45
54.74
51.21
47.66
44.03
40.39
36.90
33.62
30.70
28.14
25.93
24.02
22.35
20.87
19.55
18.45
17.60
17.22
17.48
18.52
20.39
23.02
26.19
29.54
33.03
35.83
37.49
37.59
35.87
32.23
26.67
19.33
10.56
0.91
-8.97
-18.23
-26.18
-32.26
-36.36
-38.67
-39.71
-39.98
-39.84
-39.39
-38.46
-36.77
-34.15
-30.71
-26.90
-23.45
-20.82
-19.13
-17.99
-16.64
-14.18
-10.08
-4.40
2.14
8.46
13.83
17.64
19.81
20.49
19.70
17.62
14.97
13.30
14.64
20.54
30.16
39.85
44.13
38.31
21.42
-3.04
-28.78
-49.96
-63.18
-68.50
-68.22
-64.70
-57.82
-45.62
-26.74
-2.49
23.25
47.10
67.97
83.68
92.30
92.30
81.79
58.15
19.28
-33.79
-94.22
-151.03
-192.69
-211.22
-202.52
-167.28
-111.83
-45.44
14.53
51.33
57.97
43.78
17.62
-13.73
-44.89
-71.42
-88.59
-92.27
-78.52
-46.68
-0.95
47.28
85.43
104.33
106.83
96.03
76.12
54.41
35.46
25.50
28.88
48.57
84.68
133.85
187.94
237.92
276.99
299.10
299.67
275.73
228.81
164.35
90.65
15.03
-57.29
-113.94
-144.23
-146.08
-127.62
-100.51
-77.56
-60.73
-49.01
-39.19
-26.92
-11.62
3.76
12.52
7.83
-15.18
-57.02
-114.32
-178.90
-232.72
-257.69
-246.35
-206.59
-153.62
-99.74
-49.49
-2.84
41.65
84.27
121.87
150.49
166.22
168.90
161.70
148.95
133.48
116.14
95.31
70.73
42.47
11.25
-20.31
-48.41
-69.52
-81.86
-85.53
-81.95
-73.85
-64.84
-57.91
-54.00
-52.30
-51.28
-49.69
-46.87
-42.56
-37.15
-31.75
-27.57
-25.15
-24.27
-24.36
-24.72
-24.69
-23.75
-21.70
-18.99
-16.47
-14.94
-14.91
-16.42
-19.02
-21.83
-23.87
-24.48
-23.69
-22.32
-21.55
-22.42
-25.37
-29.93
-34.91
-38.98
-41.24
-41.66
-40.96
-40.30
-40.80
-43.28
-48.30
-55.94
-65.34
-74.24
-78.87
-75.02
-59.87
-33.87
-1.25
31.26
56.86
71.92
76.42
73.33
66.66
59.41
52.62
45.92
38.77
31.39
24.82
20.09
17.48
16.25
15.00
12.27
7.38
0.67
-6.76
-13.63
-19.21
-23.54
-27.36
-31.76
-37.63
-45.18
-53.74
-62.05
-68.58
-72.17
-72.40
-69.15
-62.92
-54.44
-44.44
-33.52
-22.15
-10.82
-0.01
9.72
17.92
24.21
28.53
31.05
32.17
32.39
32.09
31.54
30.72
29.55
27.82
25.43
22.30
18.51
14.23
9.76
5.43
1.53
-1.55
-3.47
-3.84
-2.46
0.86
6.19
13.44
22.25
31.93
41.47
49.77
55.54
57.54
54.83
46.94
33.96
16.49
-4.44
-27.56
-51.30
-74.17
-94.81
-112.08
-125.10
-133.41
-137.03
-136.60
-133.33
-128.58
-123.80
-120.13
-118.04
-117.13
-116.31
-113.99
-108.60
-100.86
-91.23
-80.33
-68.49
-55.51
-40.49
-22.12
0.52
27.34
56.75
86.26
112.90
134.31
149.60
159.70
166.92
174.07
183.52
196.60
213.45
232.74
251.87
267.52
276.28
275.52
263.99
242.40
213.43
181.09
149.32
120.34
93.75
66.67
35.39
-2.25
-44.93
-87.66
-123.53
-146.73
-155.26
-151.57
-140.65
-126.83
-111.38
-92.59
-68.66
-41.28
-17.22
-6.56
-17.83
-52.72
-103.89
-156.87
-195.68
-209.15
-194.58
-156.88
-104.95
-47.13
11.12
66.49
115.64
153.56
174.29
174.09
154.71
124.52
96.29
82.25
88.90
114.74
151.37
187.56
214.11
226.76
226.36
216.96
203.17
188.36
174.34
161.84
150.84
140.98
131.41
120.91
108.47
93.73
76.96
59.05
40.92
23.49
7.77
-5.09
-13.90
-18.01
-17.66
-13.83
-7.93
-1.06
5.83
11.85
15.32
13.65
3.77
-16.27
-45.87
-81.42
-117.35
-148.25
-170.63
-183.55
-188.09
-186.02
-178.30
-164.50
-143.20
-113.11
-74.20
-28.18
21.42
69.28
108.19
130.08
127.81
97.58
40.74
-36.11
-122.58
-206.53
-275.35
-319.33
-334.43
-322.65
-290.21
-244.64
-192.99
-141.07
-93.36
-53.22
-22.54
-1.58
11.04
17.93
21.93
25.00
27.96
30.65
32.39
32.48
30.72
27.58
24.05
21.06
19.01
17.70
16.51
14.86
12.44
9.38
6.14
3.26
1.00
-0.95
-3.10
-5.96
-9.63
-13.71
-17.52
-20.52
-22.42
-23.43
-24.15
-24.94
-26.05
-27.83
-30.95
-36.02
-42.61
-48.30
-48.80
-39.67
-18.28
13.96
51.68
87.84
116.58
135.21
143.90
145.02
138.15
122.40
97.40
65.03
30.20
-0.58
-21.68
-30.58
-28.46
-19.15
-6.73
5.44
15.43
22.13
24.80
22.97
16.70
6.77
-5.43
-18.13
-29.64
-38.78
-44.91
-47.90
-48.03
-45.73
-41.73
-36.89
-31.90
-27.13
-22.86
-19.15
-16.04
-13.50
-11.42
-9.80
-8.60
-7.88
-7.60
-7.59
-7.29
-5.88
-2.69
2.14
7.09
9.56
6.71
-3.13
-19.47
-39.49
-59.25
-75.07
-84.72
-88.00
-86.25
-81.46
-75.54
-69.86
-65.50
-64.16
-66.61
-70.97
-73.39
-69.40
-56.00
-33.48
-5.57
21.64
42.14
52.24
52.97
48.14
42.34
38.81
38.61
41.04
44.39
47.25
49.62
54.89
67.88
93.02
132.11
183.41
242.12
301.89
357.37
395.22
406.90
390.79
353.17
304.26
252.67
202.93
155.87
111.12
68.83
31.43
1.23
-20.79
-35.63
-45.58
-52.99
-60.70
-71.64
-89.89
-117.89
-156.26
-202.66
-251.72
-296.04
-324.69
-331.58
-316.92
-286.39
-247.22
-205.66
-165.38
-127.99
-94.29
-65.32
-43.25
-29.54
-24.20
-24.97
-28.43
-31.03
-30.47
-26.23
-19.34
-12.51
-8.07
-7.44
-10.41
-15.52
-20.66
-23.95
-24.49
-22.39
-19.07
-15.92
-13.98
-13.75
-15.53
-19.64
-26.21
-34.11
-40.11
-39.59
-27.49
-1.33
36.76
80.12
119.86
148.66
163.67
168.05
166.09
162.44
159.51
157.09
153.71
148.28
140.71
131.21
119.25
103.20
81.68
54.85
25.04
-3.62
-26.96
-42.43
-49.91
-51.13
-48.51
-43.76
-37.77
-31.03
-24.17
-18.44
-15.08
-14.90
-17.62
-21.55
-23.77
-20.40
-7.99
14.85
45.90
79.38
107.51
123.49
124.38
112.03
92.84
74.73
63.68
61.52
66.11
73.13
78.77
81.40
81.13
79.60
78.34
77.73
76.80
74.01
68.16
58.69
50.08
44.20
41.04
38.45
32.75
20.50
0.57
-24.62
-49.32
-66.42
-71.29
-63.31
-46.66
-28.79
-17.40
-17.52
-30.13
-52.70
-81.21
-112.56
-144.33
-174.07
-198.35
-213.00
-214.65
-202.54
-179.25
-149.62
-118.57
-88.55
-58.98
-27.57
7.27
44.73
81.41
112.88
135.52
147.54
149.23
142.09
127.93
108.88
87.83
68.08
52.82
43.99
41.94
45.21
51.07
55.87
56.30
50.32
37.85
21.31
5.35
-4.43
-3.84
7.52
24.45
38.23
40.60
27.68
1.64
-30.69
-61.20
-84.49
-100.12
-113.86
-132.37
-159.04
-192.73
-229.63
-265.52
-296.52
-318.14
-324.55
-313.21
-281.66
-228.05
-153.27
-63.78
28.30
108.31
163.50
186.01
167.45
107.37
15.17
-92.07
-196.45
-285.17
-352.36
-397.66
-424.13
-445.20
-472.18
-509.29
-553.03
-597.91
-640.70
-680.65
-717.60
-695.12
-582.63
-391.49
-169.63
35.95
202.45
328.01
420.14
488.09
539.56
570.17
578.57
566.58
541.30
510.51
478.55
446.35
413.17
378.12
336.70
287.34
232.61
179.24
133.85
99.71
76.96
64.22
59.90
58.19
54.35
46.46
36.17
26.07
17.54
10.87
6.14
3.79
2.28
0.12
-3.49
-8.27
-13.72
-19.85
-26.65
-33.53
-39.29
-43.43
-45.78
-46.77
-47.06
-47.52
-49.25
-53.34
-60.53
-70.69
-82.04
-91.05
-92.96
-83.53
-61.29
-29.05
6.68
37.96
58.82
67.22
65.40
57.94
48.98
40.89
34.19
29.02
25.78
24.63
25.83
28.50
31.17
32.95
34.35
36.64
41.13
47.84
54.61
58.52
57.09
49.11
35.06
16.60
-4.30
-25.54
-44.82
-59.72
-67.95
-67.15
-56.23
-35.91
-9.11
18.79
41.88
55.89
60.29
59.03
58.20
62.66
73.01
84.92
90.59
84.16
63.98
33.44
-0.82
-32.33
-57.33
-75.24
-87.49
-95.86
-100.22
-99.31
-91.55
-75.48
-50.78
-18.75
18.17
56.59
92.87
124.22
148.58
165.03
173.95
176.49
174.06
168.22
160.34
151.29
140.64
126.23
104.66
73.11
31.37
-17.15
-65.79
-106.72
-133.91
-145.43
-141.95
-128.09
-108.43
-85.03
-57.76
-26.17
8.24
41.38
67.59
81.36
79.48
62.01
31.93
-5.46
-43.34
-73.97
-90.63
-90.56
-76.57
-56.83
-42.21
-41.21
-55.79
-80.05
-102.89
-111.64
-100.59
-72.50
-35.74
0.29
30.64
55.86
79.55
104.30
129.73
150.72
160.84
156.09
135.58
101.97
59.70
13.06
-34.29
-77.45
-110.72
-131.37
-137.53
-131.98
-121.32
-113.93
-116.20
-129.23
-148.45
-166.44
-176.52
-170.32
-148.52
-116.71
-81.15
-45.57
-10.76
23.38
55.61
83.18
103.50
114.47
116.86
113.81
109.50
107.31
108.69
112.92
117.88
121.53
122.32
120.58
117.94
116.42
117.45
121.06
125.68
129.62
130.03
124.73
112.93
95.18
72.74
47.52
21.64
-2.93
-24.10
-39.89
-48.71
-49.59
-42.74
-30.04
-14.30
1.10
13.02
19.09
18.00
9.59
-5.62
-24.37
-45.56
-68.26
-91.47
-113.66
-133.03
-147.77
-156.67
-159.41
-156.94
-151.56
-145.63
-141.08
-139.33
-141.24
-146.94
-155.13
-162.33
-163.49
-153.93
-131.17
-96.88
-57.13
-20.18
6.71
20.27
21.95
16.54
8.71
1.31
-5.18
-11.66
-18.69
-25.65
-30.89
-32.88
-31.18
-27.28
-23.61
-22.58
-25.71
-31.81
-38.07
-40.77
-36.45
-22.86
-0.33
28.84
61.01
92.42
120.20
142.72
159.49
170.67
177.03
179.05
177.66
174.13
169.33
163.26
154.17
139.20
114.33
81.04
44.20
10.85
-12.50
-22.68
-20.87
-11.62
-0.31
9.39
16.79
22.59
27.79
32.39
35.44
36.10
34.20
30.73
27.38
26.09
27.63
31.64
36.93
42.00
45.94
48.47
50.04
51.48
53.62
56.52
59.46
61.42
60.38
54.74
43.39
26.06
3.23
-23.86
-53.45
-83.20
-111.06
-135.53
-156.26
-172.51
-183.54
-188.69
-187.10
-177.68
-159.52
-132.69
-98.45
-58.31
-16.64
22.58
55.86
80.32
94.28
96.89
89.02
73.89
56.79
43.34
37.56
40.00
47.01
52.83
52.51
44.40
30.47
14.94
1.50
-8.04
-14.13
-18.45
-22.17
-25.33
-27.02
-26.52
-24.05
-20.93
-18.74
-18.63
-20.89
-24.73
-28.74
-31.63
-33.00
-32.97
-32.50
-32.74
-34.47
-37.88
-42.51
-47.44
-51.87
-55.42
-58.22
-60.87
-64.06
-68.20
-73.33
-79.05
-84.66
-89.32
-92.26
-92.83
-90.64
-85.74
-77.86
-67.02
-53.47
-37.70
-20.42
-2.55
15.02
31.37
45.75
57.57
66.39
71.91
74.20
73.49
70.36
65.57
60.02
54.42
49.17
44.21
39.17
33.77
27.82
21.56
15.68
11.12
8.60
8.30
9.59
11.29
12.41
12.25
10.90
9.44
9.28
11.59
16.43
22.84
29.12
34.13
37.39
39.76
43.22
50.07
62.11
80.01
103.91
130.87
158.95
184.79
203.30
208.84
197.64
170.04
130.94
88.97
52.92
28.67
17.27
15.91
20.21
26.15
32.01
35.63
35.02
27.77
11.80
-14.65
-52.18
-99.26
-151.80
-202.17
-243.36
-269.41
-279.11
-276.11
-268.00
-262.40
-262.98
-267.60
-270.50
-266.48
-253.54
-235.04
-215.41
-196.94
-178.43
-155.91
-125.87
-88.70
-49.09
-12.89
13.82
29.72
38.08
42.41
46.92
54.57
66.41
82.42
103.93
131.16
166.81
214.43
275.64
342.41
401.26
436.44
435.46
410.28
369.42
322.17
278.19
239.29
209.44
191.48
185.71
184.22
179.97
164.19
132.43
85.27
26.89
-36.24
-98.21
-154.67
-202.83
-239.59
-264.40
-276.74
-277.34
-269.29
-256.85
-245.87
-238.93
-235.53
-231.58
-223.17
-206.47
-179.24
-141.26
-93.65
-39.01
17.98
69.84
108.67
127.89
125.59
105.33
74.89
43.37
17.33
-0.55
-11.06
-16.24
-17.49
-15.09
-9.23
-1.09
6.66
9.72
4.22
-10.08
-31.14
-53.57
-70.29
-75.61
-67.70
-49.19
-26.58
-6.89
5.65
11.32
14.60
21.32
35.57
55.34
78.00
99.57
117.04
129.47
137.76
143.69
148.75
153.82
158.99
163.38
164.26
157.60
139.27
107.25
63.66
14.89
-30.29
-63.93
-82.03
-85.61
-79.36
-68.79
-57.99
-48.65
-42.14
-40.35
-45.68
-59.46
-80.35
-103.51
-122.02
-129.90
-125.27
-112.18
-98.28
-91.02
-94.04
-105.82
-121.14
-133.74
-138.86
-134.74
-122.17
-102.89
-78.59
-50.40
-20.02
10.38
38.45
62.11
79.66
90.54
95.53
96.24
94.69
92.51
90.51
88.64
86.30
82.81
77.95
72.29
66.83
62.84
61.20
62.01
64.60
67.80
70.43
71.80
73.04
73.91
74.98
76.57
78.25
78.94
77.32
72.36
64.07
53.46
42.27
32.69
26.36
23.80
24.68
28.09
32.71
36.94
39.04
37.49
31.82
22.62
11.38
-0.09
-10.57
-20.16
-29.99
-41.19
-53.70
-65.22
-71.62
-68.89
-54.73
-30.27
-0.29
28.42
49.50
59.34
58.25
49.71
37.99
26.60
17.15
9.33
1.82
-6.84
-17.64
-30.76
-41.93
-47.51
-44.03
-29.58
-5.15
24.55
52.09
69.77
72.77
61.21
39.27
13.50
-10.00
-26.84
-34.38
-31.18
-17.05
6.45
35.66
65.30
90.59
108.63
119.67
126.45
132.02
137.68
142.32
143.62
139.68
130.48
116.03
97.46
76.49
55.21
35.77
20.26
10.45
7.12
9.13
9.90
2.85
-15.35
-43.48
-77.34
-112.03
-143.97
-172.15
-198.24
-230.53
-274.81
-330.38
-390.18
-445.46
-489.37
-518.55
-532.74
-534.00
-532.30
-535.43
-545.74
-560.70
-576.74
-591.19
-601.25
-602.71
-549.70
-422.70
-239.07
-43.11
124.92
247.05
324.88
369.87
395.06
410.12
413.30
401.90
377.59
347.09
317.94
294.98
280.13
273.75
275.45
278.15
276.11
266.51
249.00
224.02
192.31
155.97
119.33
88.35
66.02
55.11
58.62
78.56
113.43
157.11
200.54
234.57
252.62
250.69
228.38
191.12
148.44
109.76
80.13
58.96
42.02
24.32
2.23
-24.42
-52.36
-77.15
-96.17
-111.54
-127.99
-149.31
-175.89
-204.32
-228.86
-242.70
-239.85
-217.16
-177.82
-130.73
-87.87
-60.12
-53.94
-69.91
-102.41
-142.14
-167.86
-162.96
-123.13
-58.48
15.18
87.22
153.61
214.53
270.54
320.43
359.88
385.21
396.85
398.09
394.21
387.45
378.46
366.71
350.75
327.71
294.34
249.61
196.36
138.98
78.12
14.28
-51.17
-116.51
-179.88
-240.10
-293.44
-337.39
-369.26
-391.70
-407.37
-417.73
-424.41
-428.88
-434.84
-443.73
-459.12
-452.68
-409.31
-330.47
-232.63
-136.43
-53.91
-6.23
14.79
18.08
11.04
-5.52
-31.84
-56.14
-71.94
-75.27
-68.00
-51.85
-32.11
-13.15
-1.20
-0.42
-12.36
-38.25
-64.29
-82.05
-86.49
-81.04
-72.08
-66.56
-66.73
-69.22
-67.63
-53.97
-25.31
17.68
67.98
116.21
153.19
174.22
180.34
176.13
167.75
157.83
147.25
135.04
120.97
106.04
92.33
81.85
75.11
71.39
67.97
62.49
53.76
42.29
29.83
18.32
8.98
1.98
-3.26
-8.31
-14.35
-21.72
-29.78
-37.27
-42.90
-45.73
-45.62
-41.96
-34.87
-24.74
-12.27
1.49
15.18
27.26
36.42
42.34
45.54
47.03
48.16
49.95
52.75
56.09
59.36
62.06
64.75
68.54
74.69
84.43
98.77
118.43
143.48
172.59
200.17
220.35
227.01
216.44
189.83
153.85
118.31
92.33
80.36
80.71
87.51
94.28
96.19
91.70
81.79
68.02
50.90
29.35
1.51
-33.19
-73.41
-115.90
-156.49
-191.07
-216.78
-232.87
-240.81
-243.60
-244.11
-246.97
-251.73
-257.08
-261.65
-263.97
-261.94
-252.08
-230.07
-192.77
-141.46
-82.80
-28.15
11.05
28.43
25.64
11.60
-1.51
-4.01
6.89
27.78
52.01
74.32
92.87
108.42
122.02
133.23
140.05
140.30
133.61
121.83
108.52
97.47
90.93
88.98
89.66
90.09
87.91
82.54
75.08
67.65
62.40
60.29
60.78
62.20
62.77
61.41
58.40
55.15
53.37
54.28
57.89
62.89
67.43
69.95
69.76
67.27
63.71
59.50
54.50
47.61
37.14
21.34
-1.02
-30.29
-64.86
-100.99
-133.06
-154.39
-159.74
-147.64
-121.66
-89.36
-59.74
-39.49
-30.83
-31.54
-36.61
-41.10
-42.01
-39.21
-34.74
-32.40
-36.18
-49.06
-71.58
-100.16
-128.04
-147.34
-152.13
-140.40
-114.92
-81.52
-46.80
-16.32
6.17
18.29
19.11
9.51
-7.19
-25.88
-41.37
-50.32
-53.52
-54.61
-58.06
-66.37
-78.87
-91.79
-100.56
-101.71
-93.96
-77.85
-54.75
-26.27
6.01
39.62
71.92
100.16
122.00
136.06
142.42
142.48
138.43
132.52
126.52
121.40
117.08
112.89
107.84
101.39
93.61
85.18
77.09
70.36
65.74
63.26
62.71
62.55
61.66
59.34
55.55
50.81
45.97
42.05
40.09
41.09
45.23
51.68
57.63
58.78
50.91
31.77
2.44
-32.78
-67.66
-95.91
-112.28
-113.56
-98.83
-69.53
-29.64
14.64
55.84
87.64
105.96
110.57
104.57
92.62
78.94
66.29
56.35
50.26
48.70
50.98
54.34
54.07
45.24
25.37
-3.81
-36.33
-64.29
-81.43
-85.61
-79.08
-66.77
-53.42
-41.62
-31.17
-20.45
-8.17
5.45
18.62
29.02
34.88
35.41
30.81
22.17
10.47
-3.49
-18.75
-35.05
-52.21
-69.70
-86.74
-102.15
-114.45
-122.73
-126.59
-126.48
-123.64
-119.61
-115.82
-113.10
-111.99
-112.83
-116.40
-122.84
-130.86
-137.30
-137.46
-126.92
-103.69
-70.81
-32.71
3.76
32.90
52.21
62.62
67.26
69.27
70.57
71.31
70.85
68.21
63.18
56.35
48.39
40.10
32.24
25.86
22.15
23.06
30.63
46.43
69.98
97.53
122.43
135.72
132.25
112.09
81.02
48.10
21.83
6.66
1.71
1.96
1.93
-1.47
-8.65
-17.88
-27.03
-35.02
-42.05
-49.19
-57.66
-68.13
-80.37
-94.34
-110.93
-131.44
-156.21
-183.25
-207.88
-223.90
-226.14
-212.02
-184.01
-149.13
-116.05
-91.28
-77.24
-72.37
-73.03
-75.70
-76.48
-73.34
-65.72
-55.54
-44.05
-31.76
-18.88
-5.73
7.30
22.67
42.36
67.00
95.59
126.80
159.63
193.47
227.71
261.65
298.24
339.46
385.08
432.25
477.45
517.64
550.68
574.81
565.26
509.20
410.37
287.73
163.25
52.13
-39.18
-110.13
-163.22
-202.25
-227.65
-240.58
-243.81
-241.83
-238.68
-236.47
-235.51
-235.29
-235.38
-232.88
-226.63
-215.60
-200.30
-181.32
-158.49
-131.19
-98.87
-61.43
-18.24
29.24
77.05
118.21
144.76
150.83
135.20
102.20
60.53
21.07
-7.95
-23.15
-26.37
-22.07
-14.52
-6.32
1.38
7.99
13.23
16.30
16.73
14.80
10.87
5.39
-1.67
-11.19
-24.94
-44.74
-72.39
-107.65
-147.81
-187.02
-217.48
-231.73
-225.69
-202.58
-167.66
-129.20
-94.65
-68.00
-48.28
-31.99
-15.40
2.80
21.08
36.81
47.71
53.66
56.17
57.98
60.02
61.75
60.92
54.60
41.39
21.89
-1.05
-23.29
-39.63
-47.75
-47.14
-39.66
-28.02
-13.86
3.59
27.83
57.82
92.90
129.10
163.10
192.37
214.98
228.30
228.08
209.52
170.33
122.49
72.71
30.73
5.98
4.03
23.84
58.56
98.68
127.63
135.99
121.05
88.15
44.91
-2.00
-48.20
-89.00
-122.94
-146.89
-155.85
-147.97
-123.90
-87.76
-45.23
-4.05
26.18
38.30
31.92
14.58
-4.34
-15.98
-21.33
-25.50
-33.98
-48.91
-67.42
-82.49
-85.76
-72.12
-43.79
-10.82
14.85
25.08
19.28
3.39
-14.09
-26.69
-32.93
-35.45
-38.16
-42.86
-48.87
-54.06
-56.59
-55.98
-53.23
-50.71
-50.99
-55.53
-63.78
-73.85
-83.45
-90.88
-95.69
-97.80
-97.57
-95.17
-90.13
-81.16
-66.87
-46.58
-20.86
7.84
36.47
62.27
83.35
99.01
109.68
116.33
119.89
120.81
119.15
115.12
109.15
102.08
95.09
89.24
85.16
82.72
81.03
78.99
76.08
72.27
68.13
64.35
61.34
59.19
58.05
58.36
60.66
64.54
67.69
66.00
55.10
32.61
0.19
-36.49
-70.00
-94.21
-106.33
-107.01
-98.70
-83.59
-62.81
-37.13
-8.09
20.83
44.95
60.13
64.68
60.07
50.01
38.64
28.83
21.11
14.16
6.18
-3.71
-14.40
-23.44
-28.23
-27.71
-23.24
-18.39
-17.21
-22.19
-33.22
-47.40
-60.72
-69.89
-73.55
-72.50
-68.66
-64.07
-59.83
-56.23
-52.68
-48.85
-45.00
-41.87
-40.18
-40.04
-40.80
-39.90
-36.85
-31.22
-23.25
-13.82
-4.06
4.97
12.80
19.48
25.49
31.24
37.28
43.86
50.83
57.98
64.99
71.73
78.05
83.73
88.22
90.89
91.01
87.88
81.07
70.52
56.67
40.68
23.78
7.14
-8.18
-21.33
-31.79
-39.45
-44.46
-47.15
-47.92
-47.31
-45.83
-43.98
-41.99
-39.96
-38.02
-36.22
-34.60
-33.05
-31.60
-30.25
-29.18
-28.44
-28.02
-28.07
-28.55
-29.35
-30.23
-30.92
-30.95
-30.17
-29.12
-27.09
-24.09
-20.45
-16.59
-12.95
-10.14
-7.77
-7.03
-8.45
-12.12
-17.95
-25.58
-34.19
-42.61
-50.47
-56.03
-58.46
-57.29
-52.57
-45.06
-35.82
-25.72
-15.36
-4.94
5.52
15.79
25.70
34.93
43.03
49.54
54.61
58.83
62.98
67.81
73.25
78.58
82.40
83.11
79.31
70.79
58.39
43.51
27.67
11.71
-4.41
-21.30
-38.71
-57.35
-77.49
-99.10
-121.67
-143.45
-161.27
-170.71
-167.56
-150.00
-120.48
-85.22
-52.33
-28.78
-17.51
-17.36
-24.36
-34.20
-44.20
-53.85
-63.39
-72.54
-80.23
-83.82
-81.30
-72.01
-56.76
-37.18
-15.31
7.50
30.55
53.03
74.57
94.45
111.62
124.87
133.36
136.81
135.75
131.23
124.59
117.20
109.90
103.20
97.22
92.09
87.75
84.08
80.64
77.01
72.93
68.28
63.86
60.01
57.48
56.79
57.80
59.71
61.35
61.83
60.75
58.53
56.12
54.61
54.87
57.44
62.61
70.16
78.72
85.30
85.80
76.41
55.78
26.40
-5.88
-33.92
-52.18
-58.91
-56.15
-47.93
-37.93
-27.94
-17.71
-6.41
6.02
18.31
28.32
34.26
35.55
32.84
27.37
20.47
12.63
3.64
-6.90
-19.40
-33.61
-48.39
-62.03
-72.74
-79.19
-81.14
-79.65
-76.01
-72.06
-69.25
-68.22
-68.67
-69.60
-69.80
-68.47
-65.57
-61.73
-58.33
-56.67
-57.49
-60.55
-64.78
-68.62
-70.95
-71.30
-70.13
-68.67
-68.16
-69.56
-73.47
-80.23
-89.60
-100.24
-109.18
-112.23
-105.46
-87.19
-59.49
-27.92
0.35
19.54
27.43
25.66
18.14
8.66
-0.79
-10.28
-20.57
-31.97
-43.60
-53.68
-60.59
-63.76
-63.34
-59.90
-54.03
-45.60
-33.96
-18.40
1.27
24.28
48.45
71.31
90.62
104.81
113.43
117.06
116.92
114.42
110.61
106.55
102.08
97.09
91.52
85.55
79.55
73.91
68.96
64.73
61.04
57.62
54.37
51.26
48.35
45.80
43.67
42.01
40.82
40.05
39.64
39.77
40.69
42.31
44.64
46.67
47.40
45.95
41.77
35.02
26.53
17.58
9.29
2.44
-2.92
-7.18
-10.78
-14.06
-16.70
-17.95
-16.89
-13.16
-7.18
-0.48
5.02
7.90
7.47
4.33
0.05
-3.34
-4.22
-1.37
5.76
16.87
30.51
43.44
51.17
48.49
33.93
9.92
-17.53
-40.99
-54.80
-57.16
-50.48
-39.28
-27.32
-16.00
-4.74
7.36
19.91
30.56
36.04
33.90
23.95
8.28
-9.67
-26.85
-41.38
-53.39
-64.33
-75.74
-88.48
-102.42
-116.75
-130.15
-140.80
-146.08
-142.93
-128.84
-103.41
-69.47
-32.73
0.07
23.84
36.91
41.25
40.59
38.32
36.02
33.51
30.04
25.56
21.16
18.43
18.34
20.49
23.39
25.27
24.81
21.96
17.76
13.83
11.50
11.29
12.68
14.46
15.31
14.46
12.02
8.86
6.15
4.81
5.02
6.23
7.39
7.57
6.35
4.11
1.77
0.32
0.32
1.58
3.21
4.02
3.16
0.46
-3.27
-6.77
-8.83
-8.95
-7.54
-5.73
-4.79
-5.31
-7.04
-8.83
-9.41
-7.70
-3.26
3.91
13.63
25.43
37.73
47.41
50.52
43.94
27.24
3.51
-21.31
-40.87
-51.06
-51.41
-44.62
-34.67
-24.89
-16.68
-9.83
-3.64
2.26
7.23
10.09
9.47
4.33
-5.58
-19.44
-35.31
-51.01
-64.41
-73.83
-77.68
-74.50
-63.18
-43.67
-17.54
11.28
36.33
50.25
47.62
27.97
-3.07
-34.88
-55.84
-58.11
-40.65
-9.58
25.05
53.82
71.91
80.03
82.76
85.44
91.44
101.61
114.51
127.61
137.87
142.31
138.38
124.60
101.27
68.85
30.58
-9.34
-46.88
-78.82
-102.76
-117.05
-120.88
-114.68
-100.48
-81.36
-61.02
-42.80
-28.61
-18.78
-12.29
-7.60
-3.34
1.17
6.10
11.09
15.56
19.36
22.80
26.63
31.53
37.87
45.52
54.34
64.28
75.18
86.75
98.01
107.24
112.43
112.10
106.06
95.65
83.06
69.89
56.62
42.58
26.85
9.42
-8.34
-24.16
-36.04
-43.30
-47.51
-51.48
-58.26
-70.08
-87.99
-112.05
-141.77
-176.18
-210.31
-237.84
-251.97
-248.11
-226.06
-189.87
-145.84
-99.88
-56.18
-16.91
16.65
43.81
64.32
78.29
86.62
90.79
92.56
93.17
93.12
91.88
88.10
80.56
68.63
52.82
34.71
16.64
0.80
-9.89
-14.28
-12.55
-5.69
4.86
17.68
31.76
46.56
61.44
75.88
88.99
99.90
107.93
112.81
114.24
112.00
106.18
96.57
82.86
64.66
41.76
15.24
-13.20
-41.59
-68.01
-90.68
-109.09
-123.65
-135.42
-145.59
-154.92
-163.47
-170.58
-177.49
-182.17
-183.68
-182.05
-178.11
-172.82
-166.45
-158.68
-148.70
-135.87
-119.98
-102.45
-85.31
-70.82
-60.79
-56.18
-57.18
-63.10
-70.64
-75.65
-72.83
-56.26
-22.61
26.32
83.37
138.18
181.15
207.15
216.97
215.22
208.00
199.39
190.41
180.18
167.99
154.50
141.77
134.27
131.58
132.25
133.63
132.51
126.61
115.47
100.37
83.96
69.25
57.95
50.41
44.96
38.65
28.87
14.47
-3.80
-23.34
-40.44
-52.07
-56.09
-51.80
-39.66
-20.94
2.11
25.89
43.28
48.15
37.45
13.69
-16.13
-43.62
-62.54
-70.98
-71.30
-67.22
-61.08
-53.69
-44.90
-35.03
-26.31
-22.24
-26.06
-39.85
-62.52
-89.62
-114.56
-130.20
-131.00
-114.91
-84.18
-42.72
-1.03
30.45
46.30
47.36
38.78
26.38
13.66
1.22
-11.84
-26.65
-42.27
-56.16
-66.09
-71.42
-73.37
-74.27
-76.58
-80.75
-85.75
-88.65
-86.05
-75.57
-56.78
-31.21
-1.73
27.32
52.92
73.50
89.41
101.81
111.80
119.81
125.36
127.51
125.42
119.57
111.20
102.52
95.55
91.58
90.69
91.77
92.98
92.71
90.69
87.42
84.22
81.97
81.04
81.38
82.83
86.45
90.72
93.89
91.64
81.38
61.14
31.99
-1.52
-32.69
-55.24
-66.50
-66.56
-58.51
-46.72
-35.69
-28.72
-27.94
-34.28
-47.13
-64.71
-83.57
-99.67
-109.68
-112.82
-110.63
-106.71
-105.11
-108.86
-118.41
-130.55
-139.31
-137.86
-121.04
-87.83
-42.60
5.68
45.86
67.96
66.73
43.34
5.24
-36.30
-69.64
-86.75
-85.07
-67.84
-41.80
-13.89
11.34
32.89
51.80
68.53
80.68
83.77
73.30
48.21
12.83
-23.69
-50.19
-58.26
-45.45
-16.35
19.83
52.72
75.24
85.65
87.36
86.45
88.01
93.18
98.01
96.53
82.75
55.26
18.78
-17.68
-44.65
-56.63
-54.42
-44.24
-34.33
-30.78
-34.66
-42.69
-49.41
-50.67
-45.42
-35.92
-26.12
-19.33
-17.03
-18.62
-22.76
-27.94
-32.57
-34.45
-30.59
-17.93
5.29
38.31
77.65
117.35
151.82
177.46
193.99
203.73
210.07
215.92
220.78
226.15
229.69
228.15
218.06
197.71
167.27
128.48
83.94
36.15
-10.53
-52.18
-85.86
-111.29
-129.46
-143.16
-156.50
-173.88
-198.46
-231.12
-270.79
-313.68
-354.87
-386.35
-399.79
-389.47
-355.19
-303.32
-245.31
-194.09
-148.92
-109.56
-72.03
-31.47
14.04
61.42
105.15
141.08
169.28
194.02
217.81
242.57
264.48
275.82
269.12
241.38
194.42
135.33
74.50
20.67
-17.20
-35.67
-39.00
-37.39
-42.64
-65.38
-108.76
-166.79
-227.48
-276.66
-304.24
-308.30
-293.13
-264.99
-231.28
-195.68
-157.90
-115.89
-67.49
-6.86
63.32
127.45
179.44
210.45
217.16
205.10
185.69
169.85
163.25
163.80
166.11
166.60
163.77
160.49
161.24
168.44
180.05
191.65
197.03
192.76
179.84
161.12
141.17
123.78
110.47
99.80
89.52
77.32
62.81
47.40
32.96
21.25
12.34
8.81
9.46
12.15
14.57
15.24
12.60
5.81
-5.35
-21.22
-42.21
-69.13
-101.33
-137.31
-174.84
-213.28
-251.42
-287.69
-321.23
-352.45
-383.37
-415.52
-449.03
-481.43
-509.21
-524.47
-517.87
-483.20
-420.71
-337.91
-245.74
-155.54
-62.66
26.30
101.20
154.57
184.74
194.60
188.35
171.84
150.89
130.45
111.64
95.46
82.13
71.71
64.51
60.64
61.63
68.98
83.41
102.41
123.63
145.14
165.06
182.78
190.62
183.91
161.28
125.33
80.04
31.24
-12.64
-49.66
-78.70
-98.89
-108.27
-104.94
-87.88
-58.20
-19.16
23.89
64.00
95.77
116.09
125.39
126.01
120.43
109.87
95.72
79.26
61.28
43.02
25.30
8.99
-5.08
-12.95
-17.10
-19.75
-22.63
-27.07
-33.52
-41.96
-51.78
-61.32
-69.16
-74.83
-77.56
-76.96
-73.03
-65.29
-52.38
-37.65
-21.01
-1.69
20.69
46.51
75.39
106.28
137.80
168.79
198.61
228.16
258.71
291.70
329.16
372.76
422.65
476.18
527.36
567.68
589.22
586.70
559.64
512.86
454.32
392.20
332.51
278.23
230.09
188.19
152.38
122.43
97.85
77.77
61.21
47.56
36.64
28.33
22.08
16.55
9.89
0.51
-12.22
-27.88
-45.38
-63.51
-81.32
-98.09
-113.23
-126.07
-135.99
-142.76
-146.80
-149.27
-151.61
-154.94
-159.32
-163.51
-165.36
-162.61
-153.91
-139.42
-120.96
-101.32
-83.53
-69.87
-61.38
-57.92
-58.52
-61.84
-66.65
-72.00
-77.21
-81.74
-85.12
-86.99
-87.19
-85.78
-83.03
-79.31
-75.11
-70.97
-67.57
-65.66
-65.83
-68.27
-72.59
-77.81
-82.68
-86.12
-87.47
-86.65
-83.93
-79.73
-74.39
-68.23
-61.71
-55.40
-49.71
-44.64
-39.59
-33.68
-26.37
-18.44
-11.86
-9.30
-12.82
-22.48
-36.09
-50.04
-60.94
-66.76
-67.13
-62.46
-53.04
-38.72
-19.58
3.09
26.24
45.80
58.29
62.39
59.64
53.59
48.13
45.82
46.54
48.86
51.31
53.25
54.77
56.07
56.80
56.04
52.43
44.15
30.60
12.74
-7.29
-27.59
-47.80
-69.70
-96.32
-129.88
-170.76
-213.87
-248.78
-263.08
-248.17
-203.99
-140.23
-73.26
-20.35
2.43
-10.47
-52.54
-109.16
-165.42
-211.71
-244.97
-266.87
-281.08
-299.86
-331.49
-376.06
-425.83
-470.58
-501.35
-511.33
-496.61
-457.73
-414.40
-386.51
-385.37
-410.75
-456.24
-513.80
-575.06
-631.99
-678.41
-728.61
-793.51
-871.89
-951.18
-1018.68
-1069.72
-1107.81
-1141.01
-1068.06
-844.33
-503.10
-135.12
181.12
416.26
578.49
690.81
776.18
850.95
905.30
928.12
917.98
885.33
844.14
804.79
772.87
750.14
735.52
712.69
670.11
608.65
540.62
480.03
434.76
405.63
388.92
379.50
364.38
335.69
294.48
249.18
208.87
178.41
158.06
145.34
136.96
126.17
108.88
85.63
60.70
38.77
22.47
12.17
6.98
5.34
4.95
4.38
3.75
4.24
6.85
11.60
17.65
23.90
29.54
34.27
38.22
41.75
45.11
48.22
50.75
52.35
52.98
53.05
53.42
54.89
57.94
62.42
67.43
71.76
74.44
75.17
74.42
73.43
73.59
76.12
81.80
90.43
100.86
110.91
117.70
118.18
110.17
93.19
69.13
41.95
16.52
-3.02
-14.77
-19.49
-19.88
-19.17
-19.95
-22.97
-27.25
-31.03
-32.98
-33.03
-32.18
-31.61
-31.76
-31.94
-30.80
-27.26
-21.42
-14.61
-8.86
-5.77
-5.66
-7.55
-9.73
-10.75
-10.29
-9.44
-10.06
-13.89
-21.54
-32.11
-43.45
-52.92
-58.31
-58.58
-54.23
-47.01
-39.06
-31.81
-25.25
-18.07
-8.61
3.70
17.42
29.33
35.79
34.57
25.99
12.97
-0.25
-9.63
-12.52
-7.92
3.70
20.57
39.60
56.28
65.07
60.33
38.14
-1.73
-54.44
-110.30
-157.02
-183.29
-182.28
-153.68
-103.46
-41.47
21.75
77.88
122.24
153.70
173.71
184.98
190.66
193.97
198.01
205.24
216.85
232.29
249.24
264.28
273.80
275.30
268.32
254.58
237.14
218.93
201.35
183.79
164.46
141.63
115.10
86.59
59.29
36.51
20.59
12.18
10.37
13.41
19.45
27.13
35.62
44.49
53.32
61.27
66.94
68.47
64.02
52.24
32.86
6.77
-24.22
-57.84
-92.23
-126.27
-159.82
-193.49
-228.47
-266.30
-308.49
-355.47
-405.55
-454.33
-495.06
-520.74
-526.79
-513.49
-486.35
-454.66
-427.72
-411.73
-408.37
-415.19
-427.32
-439.01
-444.92
-440.64
-423.93
-394.17
-352.92
-303.91
-252.36
-203.51
-161.23
-127.13
-100.76
-81.50
-67.84
-58.20
-51.37
-46.78
-44.34
-43.84
-44.41
-44.59
-43.51
-39.01
-28.00
-7.61
23.43
63.14
106.06
144.43
179.37
208.49
230.45
246.81
261.41
277.95
296.80
315.38
330.41
340.10
343.85
343.22
339.91
334.37
326.23
314.40
298.76
281.53
264.32
247.41
230.22
211.14
187.91
158.97
122.71
78.52
28.94
-21.57
-67.14
-100.11
-113.11
-106.36
-79.51
-37.01
13.55
64.61
111.13
151.59
187.00
218.42
245.14
265.48
277.01
278.96
271.18
255.08
232.85
206.40
177.10
146.34
116.32
89.31
67.36
51.64
39.96
29.17
16.40
0.24
-19.53
-42.29
-67.44
-94.18
-121.28
-150.65
-183.30
-218.72
-254.73
-288.43
-317.55
-340.60
-357.21
-367.37
-375.74
-386.12
-399.86
-415.86
-431.26
-443.44
-449.87
-449.59
-419.09
-347.35
-238.44
-111.02
11.97
115.62
195.13
253.93
294.83
325.36
345.37
352.61
345.51
323.49
287.93
240.37
184.08
120.78
55.60
-8.09
-66.09
-114.79
-153.67
-183.60
-217.48
-256.55
-299.69
-344.06
-388.26
-430.54
-458.35
-465.29
-449.77
-415.71
-369.25
-318.61
-269.98
-227.58
-192.55
-164.07
-142.22
-126.60
-116.37
-108.67
-101.09
-91.37
-78.71
-63.47
-46.72
-30.99
-17.73
-7.16
2.43
12.61
24.65
38.93
54.92
71.38
86.12
97.53
104.95
109.00
110.57
110.56
109.65
108.10
105.88
102.53
97.84
91.97
85.55
79.15
73.25
67.99
63.26
58.72
53.83
48.16
41.52
33.94
25.67
17.06
8.52
0.42
-6.86
-13.02
-17.74
-20.88
-22.34
-22.20
-20.62
-17.89
-14.31
-10.21
-5.54
-0.30
5.29
10.82
15.77
19.75
22.64
24.61
26.05
27.80
30.56
34.64
39.86
45.69
51.55
57.00
61.94
66.63
72.35
80.25
90.75
103.41
117.10
130.62
143.17
154.57
165.22
178.26
196.20
219.93
248.18
278.16
307.03
332.76
354.55
372.65
393.06
421.25
460.16
508.74
562.62
615.87
662.41
696.81
715.03
722.97
727.46
733.79
743.82
757.09
773.17
792.33
814.51
837.91
868.48
908.31
954.00
996.96
1027.45
1039.61
1033.34
1013.00
922.96
734.89
453.44
120.04
-208.75
-489.80
-705.09
-856.41
-955.32
-1015.56
-1039.65
-1030.01
-991.86
-934.88
-870.90
-809.42
-755.52
-710.77
-675.13
-640.28
-600.88
-556.11
-510.17
-469.66
-439.66
-422.21
-416.70
-420.71
-426.61
-428.49
-423.71
-413.67
-402.32
-393.33
-387.73
-383.08
-374.19
-353.18
-315.02
-260.49
-197.01
-135.71
-86.78
-55.49
-40.93
-37.63
-38.49
-38.21
-34.78
-29.18
-23.24
-18.34
-13.80
-7.92
1.00
13.57
29.63
47.95
66.58
83.60
97.66
108.26
116.09
122.25
127.64
133.07
139.17
146.38
155.26
165.15
173.51
175.83
166.00
139.14
95.20
40.38
-14.88
-59.02
-85.38
-94.39
-92.10
-87.38
-87.08
-92.86
-98.67
-98.30
-87.22
-66.46
-43.57
-23.37
-7.99
2.65
9.58
12.28
6.95
-11.16
-46.32
-96.31
-150.27
-193.07
-212.35
-203.57
-170.89
-128.43
-84.62
-46.47
-20.21
-11.52
-25.53
-64.84
-126.42
-199.89
-269.77
-319.74
-340.13
-330.43
-298.44
-256.93
-218.50
-191.19
-176.80
-172.14
-170.94
-167.65
-158.42
-141.40
-116.89
-86.31
-51.53
-14.05
25.07
65.29
105.35
143.81
179.76
213.08
244.62
275.85
308.07
341.70
376.69
412.54
449.31
487.70
528.23
569.94
609.43
641.08
658.59
657.13
635.13
595.04
542.40
483.85
424.90
368.82
316.43
267.27
220.68
176.46
134.80
95.70
58.75
23.49
-9.84
-39.93
-64.62
-82.24
-93.00
-99.66
-106.68
-118.65
-138.39
-166.40
-201.32
-241.26
-285.20
-332.67
-382.18
-429.18
-465.52
-481.69
-471.34
-435.38
-383.57
-332.18
-298.34
-293.40
-318.62
-364.77
-415.89
-455.61
-472.05
-460.43
-422.57
-364.41
-293.31
-215.92
-137.42
-61.39
8.90
70.79
123.02
166.75
206.20
246.99
293.29
344.87
395.85
434.91
450.43
435.47
391.15
326.44
253.91
184.60
124.36
73.35
26.38
-22.20
-75.86
-134.26
-194.06
-251.42
-303.89
-350.87
-381.73
-386.98
-360.81
-305.94
-232.05
-150.32
-69.64
3.94
66.38
115.15
147.82
164.88
169.06
164.04
153.66
140.27
123.52
100.73
68.53
23.76
-32.10
-96.03
-163.19
-227.10
-279.94
-313.65
-321.89
-302.98
-268.17
-227.49
-193.71
-177.32
-181.49
-200.22
-221.35
-232.29
-225.47
-200.95
-163.67
-121.28
-79.25
-40.49
-4.80
29.21
62.12
93.20
121.15
146.22
169.12
191.16
213.49
236.36
258.64
277.94
291.68
298.33
298.82
295.77
293.18
294.69
301.42
310.11
313.49
302.82
271.89
220.37
153.71
80.70
9.21
-56.95
-118.25
-176.64
-231.62
-278.21
-308.27
-314.62
-295.24
-254.95
-203.32
-150.59
-103.69
-64.77
-32.21
-3.55
22.31
44.71
62.37
75.01
84.02
91.66
99.42
107.08
113.22
116.66
118.63
123.09
135.20
158.28
190.66
224.79
249.43
253.96
233.24
190.44
136.22
85.02
49.58
36.80
46.11
70.59
99.65
122.08
128.66
114.25
79.44
31.11
-18.62
-55.42
-67.66
-50.92
-10.15
41.75
88.23
114.72
112.77
81.64
27.29
-40.39
-109.90
-169.99
-210.89
-225.89
-213.23
-178.04
-132.38
-92.53
-73.59
-83.64
-119.93
-169.68
-215.06
-240.28
-236.93
-205.57
-153.14
-89.05
-22.12
40.16
90.48
121.09
124.58
96.60
38.94
-39.16
-122.55
-194.11
-239.74
-252.12
-231.71
-185.32
-122.90
-54.41
12.01
70.37
116.23
146.57
160.21
158.79
147.60
134.08
125.12
123.74
127.42
129.08
120.67
97.24
59.63
14.41
-29.02
-62.14
-80.00
-81.60
-68.24
-41.56
-2.69
46.28
100.43
150.93
186.67
197.93
180.13
135.44
71.13
-3.77
-81.40
-155.76
-221.39
-271.40
-297.48
-293.00
-256.98
-196.74
-126.78
-63.65
-19.33
3.11
9.73
12.27
21.66
43.80
78.69
122.76
171.98
223.41
274.33
320.42
355.61
372.08
363.47
327.90
269.39
196.90
121.48
53.34
0.15
-32.07
-40.35
-24.32
14.05
70.76
140.03
214.41
284.90
341.73
377.75
388.15
372.42
334.55
282.20
224.41
168.89
120.30
69.21
10.94
-53.92
-118.86
-175.03
-216.25
-241.52
-253.89
-257.88
-257.29
-252.63
-243.56
-229.97
-212.88
-194.36
-176.74
-161.81
-150.44
-142.34
-135.12
-126.62
-115.53
-102.02
-87.30
-72.96
-60.17
-49.36
-40.17
-30.97
-20.43
-7.90
6.16
20.36
32.83
42.26
47.32
47.41
42.94
34.68
23.62
10.69
-3.13
-16.92
-29.30
-38.70
-43.63
-43.02
-36.66
-25.34
-11.09
3.40
14.63
20.00
17.92
8.16
-8.34
-29.69
-53.27
-76.73
-97.73
-114.96
-126.87
-132.03
-129.12
-117.50
-97.51
-70.71
-40.73
-7.45
24.86
51.35
67.86
71.78
61.86
38.00
5.05
-31.83
-67.46
-99.24
-126.43
-149.13
-167.04
-179.25
-185.02
-183.90
-177.48
-168.29
-159.67
-154.11
-152.99
-156.84
-165.33
-176.80
-187.22
-191.83
-185.75
-166.72
-136.31
-100.18
-66.10
-40.76
-28.04
-24.48
-24.75
-23.43
-17.15
-4.96
12.56
34.47
60.33
89.19
119.75
149.64
175.93
195.73
207.02
209.49
204.60
194.88
183.10
171.62
161.36
152.09
142.95
133.07
122.13
110.53
99.07
88.61
79.85
72.81
66.98
61.65
56.22
50.43
44.42
38.58
33.34
29.06
25.75
23.15
20.97
18.93
16.92
14.95
13.13
11.56
10.38
9.61
9.17
9.10
9.41
10.21
11.66
13.94
17.05
20.99
25.98
31.70
37.37
42.13
45.21
45.81
43.28
37.19
27.35
14.03
-3.00
-22.06
-41.83
-60.91
-77.95
-91.79
-101.43
-106.49
-106.78
-102.54
-94.19
-82.67
-69.04
-54.44
-39.97
-26.59
-15.05
-5.80
1.03
5.79
8.83
10.67
11.84
12.72
13.50
14.25
14.94
15.61
16.36
17.27
18.47
20.02
21.87
23.81
25.60
27.11
28.43
29.81
31.55
33.92
36.99
40.43
43.72
46.28
47.84
48.61
49.31
51.03
54.95
61.79
71.61
83.64
96.49
108.38
117.42
121.75
119.89
111.23
96.63
78.36
59.82
44.28
33.56
27.29
23.32
18.99
12.56
5.44
0.26
-0.21
5.37
16.05
28.85
40.05
46.50
46.44
39.69
27.11
10.41
-8.20
-26.53
-43.06
-57.48
-70.99
-85.91
-104.58
-128.48
-157.48
-189.68
-221.57
-248.60
-266.04
-270.23
-260.08
-237.81
-208.58
-178.31
-150.82
-125.80
-98.82
-63.94
-17.28
40.19
102.71
162.24
212.33
250.51
278.19
298.14
311.62
316.99
310.71
289.88
254.65
209.29
161.32
119.54
91.86
83.65
96.63
128.40
172.50
219.40
258.58
281.23
282.65
263.21
227.51
182.14
133.34
85.59
41.51
2.61
-29.92
-55.22
-73.37
-85.95
-96.07
-107.28
-122.14
-141.02
-161.86
-181.06
-195.06
-201.93
-202.28
-199.04
-196.53
-199.18
-210.57
-232.67
-265.41
-306.28
-350.12
-389.69
-417.32
-427.06
-416.72
-388.55
-348.18
-302.37
-256.63
-213.92
-174.90
-139.20
-106.79
-78.32
-54.66
-35.87
-20.86
-7.67
5.58
19.86
34.91
49.44
61.88
70.96
76.11
77.55
76.04
72.58
68.12
63.34
58.49
53.39
47.49
40.24
31.42
21.47
11.37
2.25
-5.25
-11.37
-17.15
-23.83
-32.13
-41.84
-51.97
-61.27
-68.62
-73.05
-73.43
-68.17
-55.74
-35.65
-9.63
18.19
42.28
57.73
62.25
57.02
45.97
33.96
24.90
20.72
21.54
26.51
34.56
44.79
56.08
66.82
74.67
77.08
72.19
59.94
42.59
24.59
11.51
8.11
16.64
35.97
62.17
90.48
117.69
143.70
171.32
204.72
247.28
299.94
360.54
424.07
483.48
530.70
558.17
560.41
535.66
486.59
419.78
343.92
267.40
196.38
134.08
81.27
37.40
1.53
-27.18
-49.45
-65.90
-77.04
-83.17
-84.43
-80.93
-73.00
-61.16
-46.16
-28.90
-10.41
8.03
24.96
38.82
48.24
52.11
49.70
41.04
27.04
9.84
-7.34
-21.07
-28.97
-30.87
-29.34
-29.00
-34.70
-49.58
-73.69
-103.90
-135.12
-162.52
-183.08
-196.39
-204.31
-209.75
-215.44
-223.36
-234.65
-249.32
-265.85
-280.68
-288.69
-285.17
-268.75
-243.52
-218.71
-204.67
-207.36
-224.03
-243.04
-248.28
-225.90
-170.09
-85.18
16.44
119.19
209.02
276.55
317.96
334.16
329.46
310.23
283.30
254.98
230.49
213.12
203.97
201.75
202.82
201.59
191.98
169.16
131.37
80.78
22.45
-37.40
-93.46
-142.72
-184.47
-219.57
-249.68
-276.59
-301.88
-326.26
-348.58
-365.33
-371.97
-363.35
-335.66
-288.55
-225.47
-151.99
-73.08
8.30
90.21
168.36
235.97
285.15
310.12
310.26
291.40
264.22
239.91
225.82
220.88
219.80
217.10
209.80
197.18
179.49
157.24
131.06
102.26
66.78
23.92
-22.03
-64.55
-100.55
-131.86
-162.47
-194.98
-228.94
-274.70
-336.56
-408.49
-477.95
-535.00
-576.26
-602.53
-615.89
-618.77
-635.27
-681.46
-755.20
-840.12
-920.43
-988.41
-1042.37
-1082.82
-1110.89
-1155.66
-1235.80
-1346.82
-1466.59
-1574.97
-1664.17
-1736.05
-1796.49
-1677.95
-1311.88
-764.64
-185.50
312.47
693.57
968.02
1158.10
1284.26
1363.47
1383.27
1340.64
1253.36
1152.62
1063.11
994.25
945.44
913.39
895.45
868.52
817.63
745.00
665.96
594.44
536.18
491.59
459.86
440.55
419.78
387.98
345.68
300.85
261.55
231.10
209.96
198.09
195.55
195.45
192.64
186.50
179.67
173.59
166.31
153.79
132.04
99.67
56.35
5.87
-44.74
-88.34
-121.44
-145.46
-164.79
-183.33
-201.42
-215.27
-218.75
-207.30
-180.84
-144.14
-104.60
-68.58
-40.52
-22.03
-11.64
-5.50
-0.88
2.57
3.39
0.45
-5.43
-11.44
-13.87
-10.06
2.09
21.55
44.14
64.63
79.50
88.50
94.25
100.60
110.67
128.47
154.53
185.52
215.80
240.83
259.31
273.01
285.36
300.03
324.16
362.27
413.97
473.35
531.27
577.96
605.57
610.07
567.31
471.78
339.76
202.65
87.71
6.02
-45.54
-75.35
-90.62
-95.51
-88.13
-68.42
-40.01
-9.59
17.31
37.71
51.97
62.38
71.08
82.15
96.51
111.93
123.51
127.26
122.17
110.06
93.98
75.81
62.56
57.56
60.73
68.86
77.77
83.99
85.22
80.14
67.50
47.31
19.12
-17.24
-62.22
-114.61
-170.81
-225.29
-271.91
-305.43
-321.97
-320.23
-301.05
-269.78
-232.06
-192.09
-152.02
-112.82
-75.52
-41.34
-11.52
13.11
26.87
26.12
10.95
-14.79
-46.28
-80.45
-116.27
-154.01
-194.14
-244.92
-311.03
-390.37
-474.20
-551.87
-615.65
-662.09
-691.18
-705.09
-718.31
-742.25
-780.99
-830.37
-883.31
-935.22
-985.31
-1035.11
-1016.76
-894.78
-678.02
-416.87
-166.47
41.32
199.62
315.15
398.55
459.46
494.05
500.08
480.54
445.77
408.01
376.29
354.44
342.71
339.52
329.96
308.81
276.95
242.20
214.74
202.02
206.87
228.09
261.91
297.87
327.20
343.91
346.64
336.75
316.43
288.60
257.23
226.98
200.77
181.05
166.67
153.80
137.68
115.43
87.76
58.27
31.42
9.17
-8.39
-22.74
-34.75
-44.52
-51.79
-56.59
-59.80
-62.69
-66.29
-70.93
-76.46
-81.99
-87.04
-91.57
-95.86
-100.54
-105.83
-111.11
-114.97
-116.69
-112.88
-100.38
-77.12
-43.17
-1.86
40.56
76.50
99.12
105.82
100.24
89.74
81.91
81.14
87.03
95.78
103.01
106.17
105.56
103.26
100.82
98.40
94.99
89.47
81.75
73.04
64.96
59.20
56.48
56.02
56.19
55.39
52.75
48.44
43.62
39.67
37.56
37.51
38.78
40.23
40.91
40.53
39.33
38.05
37.36
37.30
37.33
36.54
34.16
30.08
25.05
19.99
15.97
13.65
12.54
11.54
9.15
3.87
-5.52
-19.71
-38.55
-60.64
-83.45
-103.84
-118.86
-126.82
-127.91
-123.68
-116.07
-106.23
-93.88
-77.94
-57.64
-33.36
-7.22
17.40
37.36
50.64
56.84
56.79
52.00
43.95
33.81
22.18
9.54
-4.10
-18.83
-34.52
-50.64
-66.31
-80.71
-93.35
-104.15
-113.67
-122.43
-130.51
-137.62
-143.10
-146.29
-146.79
-145.00
-140.11
-131.53
-118.62
-100.78
-77.79
-50.06
-18.77
14.14
45.85
74.20
97.59
115.20
127.03
133.64
135.97
134.95
131.38
125.93
119.35
112.15
104.76
97.64
91.01
85.03
79.68
74.62
69.64
64.70
59.89
55.34
51.80
49.13
47.16
45.64
44.15
42.40
40.34
38.29
36.66
36.14
37.17
39.59
42.72
45.56
47.21
47.15
45.91
43.55
40.84
38.35
36.09
33.63
30.55
27.00
23.63
21.77
22.54
26.32
33.96
45.37
60.23
78.01
97.21
114.66
126.41
126.73
112.52
84.49
47.15
7.52
-27.83
-55.09
-74.08
-87.03
-97.68
-108.34
-119.34
-129.87
-138.52
-144.76
-149.04
-152.51
-155.62
-157.37
-154.90
-145.27
-128.68
-108.24
-90.05
-79.47
-77.59
-79.98
-79.15
-68.79
-47.83
-21.33
2.61
17.29
20.97
17.00
10.92
6.90
5.84
5.90
4.67
1.20
-3.91
-9.08
-12.81
-14.76
-15.75
-17.17
-20.10
-24.81
-30.58
-35.85
-39.06
-38.96
-34.71
-26.39
-14.63
-0.68
14.06
28.00
39.67
47.62
50.85
49.09
42.80
33.23
21.94
10.50
0.09
-8.39
-14.22
-16.67
-14.80
-7.77
4.92
23.08
46.13
72.61
101.20
129.46
153.47
168.15
168.76
153.48
124.74
89.15
55.19
29.86
16.24
13.09
16.49
22.31
28.35
34.33
40.81
47.60
53.44
55.81
52.85
43.98
30.07
12.69
-6.60
-26.81
-47.69
-69.26
-91.29
-112.59
-131.30
-145.03
-151.88
-151.00
-142.73
-128.66
-110.98
-91.80
-72.33
-53.05
-33.86
-13.90
5.93
24.68
41.10
53.90
62.24
66.38
66.85
64.46
59.76
52.75
43.01
29.58
11.90
-9.96
-34.59
-60.63
-85.83
-109.84
-132.93
-155.18
-175.90
-193.54
-208.10
-217.13
-219.83
-215.87
-204.25
-182.84
-149.35
-103.56
-48.94
7.89
59.68
100.43
127.78
143.08
149.84
151.26
148.74
142.09
131.23
118.00
104.77
93.62
85.73
80.93
78.25
76.38
74.71
74.06
76.96
85.28
99.60
118.87
140.88
163.24
184.42
198.57
196.49
174.89
135.80
85.65
32.11
-18.90
-64.27
-103.28
-136.16
-163.03
-183.33
-196.98
-204.85
-208.44
-209.39
-208.95
-208.98
-208.49
-205.35
-196.70
-180.49
-155.96
-123.67
-85.08
-42.09
1.46
41.88
76.49
104.35
125.24
139.33
147.03
148.95
145.88
138.77
129.08
118.04
107.04
96.95
88.07
80.28
73.27
66.52
59.67
52.92
46.24
40.16
35.02
30.85
27.58
24.93
22.51
19.81
18.38
16.66
13.92
9.70
3.57
-4.70
-15.24
-27.98
-42.80
-58.98
-76.15
-93.39
-109.89
-124.94
-137.90
-148.28
-155.71
-160.15
-161.32
-159.67
-155.67
-150.14
-144.06
-138.48
-134.27
-132.21
-132.85
-135.86
-141.06
-147.92
-155.67
-163.32
-169.54
-172.63
-170.41
-165.08
-156.89
-146.23
-133.56
-119.41
-104.20
-88.16
-71.29
-53.54
-35.02
-15.39
5.12
26.01
46.83
67.50
88.17
109.20
130.85
152.99
175.73
198.94
222.66
246.94
271.43
295.03
316.01
332.69
343.91
349.70
350.50
346.88
339.14
327.62
313.15
297.41
282.83
271.79
266.07
266.02
270.67
278.00
285.57
291.01
292.52
289.30
281.68
271.07
258.79
245.25
229.44
209.55
184.18
153.46
119.50
85.68
55.36
30.62
11.71
-2.90
-15.19
-26.36
-36.45
-44.49
-49.33
-50.29
-47.72
-43.04
-38.60
-36.48
-37.42
-40.57
-43.96
-45.45
-43.61
-38.08
-29.58
-20.03
-11.13
-3.49
3.29
9.87
16.34
22.37
27.73
32.98
37.30
40.57
43.60
47.14
50.34
50.47
44.64
31.66
12.82
-13.47
-47.53
-86.91
-126.95
-163.41
-194.22
-219.01
-238.05
-251.97
-269.24
-297.13
-336.67
-382.34
-426.92
-465.70
-497.32
-522.54
-543.32
-571.73
-617.65
-682.12
-757.08
-831.83
-898.71
-954.05
-996.61
-964.70
-825.21
-593.07
-324.04
-73.81
129.74
283.62
396.33
478.75
537.49
572.11
579.25
560.92
526.18
485.34
444.57
405.23
368.09
335.00
300.50
259.78
213.55
168.12
130.63
104.94
91.30
88.04
92.57
97.08
94.94
84.52
69.22
53.93
42.08
35.23
30.54
29.08
28.72
27.27
24.71
23.23
25.37
32.53
44.68
60.88
79.06
95.43
106.45
109.98
105.25
92.12
70.38
39.29
5.55
-26.10
-52.85
-73.58
-88.37
-97.93
-103.11
-104.69
-103.27
-99.49
-94.16
-88.56
-83.68
-79.94
-77.40
-76.01
-75.56
-75.73
-76.45
-77.46
-79.16
-81.87
-85.69
-90.43
-95.85
-101.42
-106.41
-112.91
-118.32
-120.71
-118.59
-110.86
-97.07
-77.42
-52.69
-21.76
11.93
45.91
77.97
106.54
130.64
149.50
162.57
169.80
171.56
168.49
162.66
155.99
150.11
145.97
143.53
141.81
139.74
136.38
131.06
124.69
118.46
113.12
108.85
105.10
99.72
90.77
76.73
56.57
30.30
-1.29
-35.98
-69.15
-95.10
-108.57
-106.73
-91.09
-67.31
-42.89
-24.25
-14.29
-11.82
-13.36
-15.49
-16.53
-16.91
-17.86
-19.94
-22.43
-23.70
-22.38
-18.41
-13.08
-8.30
-5.91
-6.59
-9.67
-13.51
-16.19
-16.38
-14.11
-10.29
-6.64
-4.91
-6.02
-9.69
-14.55
-18.72
-20.65
-19.84
-17.05
-14.04
-12.75
-14.30
-18.71
-24.76
-30.81
-35.39
-37.78
-37.79
-35.23
-29.74
-21.29
-11.25
-2.08
2.80
0.76
-8.16
-20.80
-31.73
-35.75
-30.18
-15.91
3.36
22.97
39.32
50.36
55.26
53.60
44.70
27.58
2.01
-30.31
-65.36
-96.97
-118.21
-125.52
-119.87
-106.35
-92.04
-82.56
-79.64
-81.47
-82.53
-77.83
-64.98
-44.40
-18.04
12.00
44.82
80.80
119.88
161.90
204.18
241.10
264.97
268.62
248.54
207.39
155.01
101.13
54.97
21.06
-1.46
-17.27
-31.50
-47.34
-65.24
-84.22
-103.87
-124.05
-144.79
-164.41
-179.23
-184.86
-178.72
-161.97
-140.02
-120.47
-109.36
-109.09
-117.31
-128.41
-136.08
-135.26
-123.46
-100.65
-68.30
-28.27
15.80
60.01
100.63
134.50
159.69
175.71
183.67
185.51
183.51
179.30
173.77
166.98
158.75
149.17
138.96
129.37
121.66
116.42
113.28
111.16
108.83
105.28
100.38
94.70
89.29
85.23
83.50
84.89
89.67
96.71
102.91
103.58
94.00
71.90
39.19
1.99
-31.61
-54.68
-64.29
-61.96
-52.14
-39.84
-28.33
-18.78
-10.96
-4.59
0.33
2.79
2.01
-2.12
-9.19
-18.60
-29.82
-42.38
-55.68
-68.91
-81.20
-91.61
-99.67
-105.57
-109.39
-112.90
-117.93
-125.90
-137.47
-151.21
-163.25
-168.15
-160.66
-138.36
-103.57
-63.27
-26.93
-2.96
4.73
-1.53
-15.00
-27.92
-34.93
-34.95
-30.51
-25.74
-23.64
-24.61
-26.69
-27.21
-23.69
-14.77
-0.12
20.37
45.80
73.86
100.25
119.05
125.60
119.13
102.98
83.43
66.83
55.76
49.17
43.35
34.11
18.82
-3.25
-31.78
-65.96
-103.74
-141.85
-174.88
-196.48
-202.27
-191.88
-169.62
-143.05
-120.05
-103.92
-94.34
-87.62
-79.27
-66.22
-47.66
-24.65
0.94
27.11
52.74
76.56
97.16
113.02
122.97
126.71
125.17
120.04
113.42
107.22
102.25
98.40
95.39
91.83
87.04
81.16
74.86
69.21
65.23
63.16
62.47
62.18
61.12
58.74
55.27
51.50
48.67
47.87
49.46
52.95
57.17
60.86
63.26
64.80
65.60
66.19
66.70
66.55
64.27
58.18
47.30
31.76
13.33
-5.38
-21.38
-31.96
-35.13
-29.72
-15.69
5.24
28.78
49.45
61.60
61.99
51.57
35.29
19.88
10.75
9.67
14.13
19.95
23.18
21.92
16.41
7.94
-2.45
-14.24
-27.62
-42.53
-57.74
-71.34
-81.44
-86.77
-87.51
-84.94
-80.82
-76.90
-74.10
-72.29
-70.81
-68.80
-65.88
-62.27
-59.03
-56.45
-54.89
-54.33
-54.26
-54.32
-54.19
-54.13
-54.56
-55.82
-57.78
-59.84
-61.26
-61.21
-60.05
-57.85
-55.34
-53.17
-51.60
-50.15
-47.78
-43.54
-36.81
-28.08
-18.50
-9.78
-3.82
-2.46
-7.25
-18.87
-36.34
-55.33
-70.68
-76.65
-69.83
-51.32
-26.72
-4.12
9.62
11.45
3.16
-10.28
-23.52
-33.27
-39.17
-42.54
-44.95
-45.78
-43.27
-35.14
-19.93
2.32
30.13
61.26
93.66
125.72
155.69
180.60
196.26
198.37
184.81
157.35
121.61
85.30
55.55
35.70
25.54
22.50
23.47
26.32
30.06
34.06
37.28
38.41
36.43
31.67
25.80
20.89
18.29
17.96
17.78
14.75
5.93
-10.78
-36.08
-68.92
-106.13
-142.52
-171.86
-188.69
-190.62
-179.46
-160.73
-141.28
-126.69
-117.80
-112.17
-105.52
-94.26
-77.16
-55.51
-31.74
-7.93
14.71
36.26
56.72
75.38
90.72
101.13
105.59
104.48
99.31
92.33
86.17
81.57
78.49
76.15
73.48
69.76
64.98
59.56
54.40
50.31
47.41
45.41
43.73
41.79
39.40
36.74
34.22
32.32
31.24
30.63
30.02
29.01
27.54
26.03
25.12
25.35
27.02
29.85
33.07
35.79
37.59
38.63
39.64
41.75
44.92
48.56
51.35
51.54
47.94
40.27
29.54
17.79
7.22
-0.34
-3.39
-1.02
6.83
18.77
31.62
40.21
40.34
29.96
10.68
-12.16
-31.74
-42.70
-43.43
-35.97
-24.33
-12.06
-0.85
9.22
18.45
26.16
30.46
29.24
21.49
8.14
-8.22
-24.40
-38.01
-48.35
-56.30
-63.47
-71.21
-79.67
-87.65
-93.19
-94.71
-92.15
-86.87
-81.48
-77.82
-76.67
-77.42
-78.84
-80.14
-81.32
-82.83
-84.14
-82.85
-75.13
-57.84
-30.52
3.32
37.23
64.62
81.80
89.10
89.74
86.69
79.78
66.06
42.66
10.72
-23.03
-48.92
-59.82
-56.01
-45.51
-39.40
-44.86
-60.08
-75.21
-78.35
-63.07
-32.33
3.26
31.68
45.85
46.33
39.28
31.80
27.91
27.36
27.48
25.82
21.76
16.56
12.19
9.91
9.43
9.38
7.94
3.76
-3.15
-11.16
-17.21
-18.21
-12.57
-1.77
9.63
15.64
11.91
-1.79
-20.82
-37.54
-44.74
-38.88
-21.27
3.13
28.28
49.56
64.94
74.14
78.07
78.13
75.85
72.78
70.37
68.89
67.11
62.94
53.34
35.57
8.34
-27.39
-67.32
-103.92
-127.83
-131.11
-110.65
-71.22
-24.59
14.70
35.12
32.71
12.01
-16.74
-42.27
-56.49
-56.97
-46.39
-30.72
-16.71
-9.52
-11.49
-21.45
-35.18
-46.75
-51.48
-47.62
-36.60
-21.60
-5.26
11.03
26.87
41.71
53.87
61.04
61.92
57.26
49.57
42.32
38.25
38.25
41.18
44.90
47.18
47.12
45.07
42.34
40.30
39.33
38.76
37.12
32.54
23.95
11.82
-2.49
-17.01
-29.98
-40.31
-47.60
-52.07
-54.60
-56.48
-58.77
-61.58
-63.36
-61.11
-51.77
-34.18
-10.67
13.29
30.62
36.30
29.37
12.92
-7.80
-27.94
-44.97
-58.97
-71.08
-82.13
-91.74
-98.63
-101.67
-100.85
-96.53
-89.65
-81.07
-70.77
-57.94
-41.48
-20.82
3.56
29.46
54.47
76.06
92.38
102.85
108.14
109.89
109.98
109.74
109.65
109.66
109.20
107.72
105.19
102.08
99.32
97.88
98.77
100.75
102.54
102.65
100.00
94.16
85.50
75.00
63.96
53.62
45.00
39.18
36.55
36.27
36.04
32.50
22.46
4.67
-19.36
-45.83
-69.88
-87.58
-96.98
-98.19
-91.77
-79.65
-63.16
-43.17
-20.85
1.83
22.40
38.64
49.44
54.66
54.73
50.50
42.82
32.17
18.53
2.33
-15.76
-34.55
-52.32
-67.45
-78.65
-85.52
-88.54
-89.20
-89.08
-89.38
-90.53
-92.03
-93.12
-93.07
-92.55
-90.97
-88.64
-85.70
-81.62
-75.20
-65.04
-50.41
-31.72
-10.70
9.97
27.06
37.82
40.29
33.48
17.72
-4.22
-28.01
-47.46
-56.50
-51.78
-34.36
-9.60
14.94
32.76
41.02
40.91
36.27
30.90
26.62
23.10
18.95
13.31
6.65
0.67
-3.17
-4.34
-3.57
-2.46
-2.88
-5.87
-11.47
-18.66
-26.00
-32.09
-36.22
-38.49
-39.86
-41.62
-44.63
-48.80
-53.18
-55.80
-54.65
-48.26
-35.82
-17.09
7.81
38.05
71.03
102.02
124.80
133.42
125.01
101.66
70.24
39.80
17.99
7.54
6.45
9.63
11.97
10.80
6.60
1.93
-0.51
0.31
3.44
6.82
8.45
7.40
3.98
-0.67
-5.42
-9.43
-12.03
-12.30
-8.64
0.06
13.88
30.59
45.98
55.39
55.61
46.83
32.61
18.69
10.39
9.35
13.34
16.46
12.00
-2.90
-24.98
-45.79
-55.57
-48.24
-25.11
5.28
31.31
43.95
40.64
25.76
7.47
-6.87
-13.37
-11.70
-2.95
12.11
32.70
57.08
81.16
98.58
103.16
92.50
69.32
40.70
14.91
-2.23
-9.97
-11.37
-11.66
-15.94
-27.63
-47.79
-74.70
-103.71
-128.53
-142.74
-142.28
-127.55
-103.71
-78.67
-60.01
-51.76
-53.35
-61.00
-70.06
-77.33
-81.70
-83.79
-83.91
-81.63
-75.73
-64.71
-47.93
-25.86
-0.25
26.04
50.25
70.28
85.04
94.85
101.04
105.14
108.52
111.51
114.22
116.87
119.72
122.19
122.33
116.90
102.95
81.28
54.86
30.59
15.80
14.14
23.27
35.95
43.67
40.35
26.21
5.64
-15.53
-33.42
-47.25
-58.62
-68.53
-75.95
-78.16
-72.39
-57.62
-34.76
-6.46
23.77
52.09
74.37
86.50
85.50
71.11
46.38
17.36
-8.82
-26.82
-34.72
-34.23
-29.04
-22.59
-17.26
-14.73
-16.87
-25.80
-42.40
-64.60
-86.44
-100.20
-99.76
-84.31
-59.04
-33.31
-16.06
-11.46
-17.46
-27.34
-33.36
-30.22
-16.72
5.11
32.00
60.91
88.96
112.23
125.73
125.28
110.53
86.78
63.69
50.42
50.23
58.30
63.89
56.43
31.91
-4.63
-41.76
-67.43
-75.30
-67.42
-50.86
-32.60
-16.05
-0.46
16.43
35.68
55.49
71.93
81.05
81.17
73.39
60.78
47.05
34.68
24.31
15.07
4.77
-8.48
-25.08
-43.52
-61.29
-75.34
-83.62
-85.56
-82.21
-75.97
-69.50
-65.68
-64.26
-64.24
-63.83
-61.38
-56.03
-48.34
-39.41
-32.35
-29.72
-32.44
-40.22
-51.58
-64.81
-77.93
-88.39
-94.39
-92.41
-80.97
-61.49
-38.53
-17.71
-3.00
5.52
12.21
21.52
36.73
56.90
77.55
92.91
100.22
100.11
95.71
89.95
83.31
73.74
57.78
33.49
2.04
-32.95
-66.63
-95.00
-115.57
-127.67
-131.14
-126.33
-113.72
-94.68
-71.68
-48.17
-27.66
-12.34
-2.57
3.84
9.30
15.60
21.68
24.38
21.21
12.46
3.04
1.29
14.34
42.99
80.03
112.54
128.57
123.62
102.57
76.40
55.83
45.28
41.30
36.29
24.49
6.29
-10.96
-18.74
-12.37
5.01
23.49
31.64
22.37
-3.46
-37.83
-69.29
-88.56
-91.62
-80.14
-59.45
-35.56
-13.46
3.44
12.61
13.01
4.96
-9.51
-27.01
-44.78
-59.98
-69.79
-71.97
-64.76
-47.31
-20.94
11.03
43.82
72.59
94.21
107.82
114.45
116.09
114.48
109.90
101.24
86.85
66.16
40.65
13.97
-9.19
-24.75
-29.88
-23.77
-7.57
16.20
43.05
68.25
86.37
93.79
86.62
64.60
31.08
-8.33
-48.09
-85.36
-120.55
-156.02
-192.95
-229.65
-260.50
-278.55
-279.68
-264.74
-240.19
-216.31
-198.67
-189.29
-186.38
-185.36
-182.35
-176.08
-167.16
-157.74
-149.41
-141.89
-133.75
-123.72
-111.54
-98.79
-88.33
-81.95
-80.69
-83.96
-89.48
-94.54
-96.50
-92.93
-81.44
-68.53
-56.64
-46.85
-39.16
-32.55
-26.08
-19.26
-12.16
-5.52
-0.52
2.95
5.00
6.00
6.55
7.11
7.96
9.13
10.49
11.68
13.35
15.87
19.39
23.88
29.02
34.39
39.61
44.44
48.74
53.15
58.01
63.29
68.57
73.23
76.75
79.00
80.41
81.77
84.26
88.51
94.39
101.01
107.17
111.96
115.41
118.68
123.77
132.90
147.43
167.29
191.05
216.51
241.67
265.62
288.84
313.02
340.54
373.90
415.09
464.66
520.67
577.97
628.50
663.16
674.71
660.69
624.67
575.19
522.46
474.41
434.16
399.85
366.79
330.70
290.12
246.92
205.11
168.71
140.17
120.04
107.49
101.18
99.75
101.77
105.19
107.21
104.71
95.27
78.28
55.27
29.44
4.57
-16.29
-31.68
-41.88
-48.48
-53.64
-59.20
-66.12
-74.16
-82.09
-88.25
-91.39
-91.11
-88.09
-83.72
-79.32
-75.54
-72.03
-67.78
-61.78
-53.95
-45.89
-40.03
-38.45
-42.88
-54.24
-72.29
-96.24
-125.14
-157.82
-192.77
-227.56
-258.94
-284.71
-304.55
-319.01
-328.12
-329.99
-320.60
-296.31
-255.15
-197.59
-129.53
-60.90
-1.54
41.55
65.57
71.55
60.30
34.69
2.72
-29.78
-60.16
-86.41
-107.49
-123.68
-136.62
-153.99
-181.09
-211.38
-240.32
-267.19
-290.30
-308.43
-322.10
-333.68
-355.30
-395.74
-446.07
-501.49
-562.66
-626.21
-685.32
-731.54
-757.21
-769.07
-773.83
-760.40
-727.56
-684.21
-635.37
-581.96
-522.27
-386.60
-150.56
71.91
236.22
357.37
436.25
476.61
486.00
474.53
452.34
416.30
365.07
316.64
279.89
252.46
232.36
216.91
202.17
183.22
147.77
90.78
29.29
-21.21
-51.50
-53.86
-26.14
26.06
90.48
147.11
181.11
195.08
194.91
185.48
171.76
155.46
134.53
105.39
63.23
7.49
-54.50
-116.45
-175.66
-230.90
-281.11
-323.95
-355.32
-371.49
-369.97
-349.80
-314.15
-269.41
-221.98
-175.93
-132.20
-89.43
-45.82
-0.69
44.85
88.45
127.29
160.20
189.20
218.85
254.52
299.61
354.01
413.33
469.54
511.68
529.07
515.08
469.37
399.33
318.51
243.84
190.59
167.08
170.32
187.97
204.48
207.15
190.93
158.41
117.60
75.83
43.24
25.69
21.08
22.95
24.19
25.10
26.78
28.07
24.87
12.74
-13.40
-56.15
-108.94
-160.79
-200.81
-223.75
-230.48
-225.45
-214.11
-201.89
-192.24
-185.72
-181.58
-178.80
-177.35
-176.92
-175.60
-169.52
-154.58
-128.19
-90.75
-47.03
-4.50
29.36
50.42
59.19
59.45
55.42
49.89
43.83
36.95
29.12
20.93
13.78
8.93
6.54
5.50
4.24
1.59
-2.54
-7.13
-10.58
-11.62
-9.25
-3.76
3.58
11.18
17.91
23.37
27.92
32.20
36.66
41.23
45.20
47.67
47.97
46.30
43.60
41.13
39.89
40.21
41.56
42.84
42.99
41.43
38.83
36.54
35.97
37.81
41.76
46.67
51.09
54.08
55.38
56.15
58.15
63.26
73.00
88.54
110.39
137.99
169.77
198.75
217.79
220.82
204.63
170.19
122.37
68.17
14.45
-33.12
-72.13
-101.83
-121.05
-128.43
-123.93
-110.02
-91.54
-73.74
-58.86
-47.68
-39.08
-31.37
-23.43
-16.34
-13.56
-19.69
-38.62
-70.80
-116.28
-173.65
-237.62
-296.95
-337.40
-347.52
-324.33
-284.51
-238.60
-194.08
-154.45
-117.22
-80.87
-43.32
-4.52
33.41
67.81
98.95
127.59
156.50
189.65
230.21
280.36
337.35
392.85
435.48
456.15
449.39
417.05
367.94
305.85
241.13
184.47
141.69
111.79
92.52
76.80
60.22
40.52
15.48
-16.22
-54.99
-99.05
-143.50
-181.52
-209.18
-228.06
-246.14
-274.05
-317.54
-374.18
-432.92
-477.95
-495.22
-478.82
-432.27
-366.30
-293.56
-223.03
-159.05
-102.35
-51.92
-6.50
34.91
73.93
113.05
155.04
201.49
250.61
296.56
331.21
347.26
341.43
316.21
278.85
238.47
202.71
175.41
155.61
138.76
119.36
93.77
62.39
29.75
2.35
-15.07
-22.77
-27.61
-40.14
-68.39
-112.39
-163.26
-207.67
-235.14
-243.49
-238.36
-229.26
-222.75
-217.99
-207.73
-183.73
-142.21
-85.80
-21.36
44.38
106.14
159.82
201.92
228.81
237.37
226.88
200.28
160.59
117.02
80.68
58.70
51.88
56.45
67.92
83.28
100.63
118.19
134.83
148.83
157.94
161.18
159.90
155.53
149.27
141.52
131.96
120.55
106.68
88.58
65.26
37.00
4.89
-29.92
-67.37
-109.22
-153.18
-191.34
-218.63
-232.27
-232.72
-223.07
-207.14
-188.03
-167.51
-146.34
-124.68
-104.30
-86.60
-72.16
-60.59
-50.94
-41.78
-31.55
-23.56
-15.53
-6.87
2.33
11.82
21.70
31.71
41.87
52.42
63.14
74.16
83.95
90.66
92.70
89.36
79.56
62.85
43.77
25.35
10.52
0.14
-6.24
-9.83
-11.81
-14.67
-20.40
-30.57
-46.94
-70.77
-104.18
-149.35
-207.75
-268.48
-321.45
-359.23
-379.23
-382.49
-369.27
-338.28
-288.36
-221.36
-143.70
-66.90
-2.28
43.15
68.31
77.77
77.73
73.06
66.07
57.33
46.14
33.07
20.21
9.60
2.52
-1.84
-5.62
-11.21
-19.36
-29.28
-38.20
-42.50
-40.99
-32.54
-18.49
-1.65
15.24
31.16
47.02
65.34
89.15
119.57
156.59
197.12
237.83
274.53
301.84
313.47
304.38
276.86
234.74
186.85
143.55
112.40
94.36
83.68
71.54
49.10
14.49
-28.79
-73.78
-114.44
-148.04
-175.03
-197.11
-215.29
-228.39
-234.28
-232.55
-224.53
-213.37
-203.02
-196.63
-195.57
-198.69
-203.36
-206.41
-206.03
-201.69
-194.17
-184.82
-174.76
-164.29
-152.11
-136.44
-115.59
-88.95
-57.01
-21.26
16.62
55.17
89.45
116.18
132.90
138.01
130.75
111.33
81.00
42.00
-2.64
-49.64
-95.15
-135.91
-169.47
-194.37
-210.13
-217.14
-216.25
-208.81
-196.47
-180.48
-161.95
-141.65
-119.84
-96.35
-70.76
-42.13
-10.17
24.42
60.12
94.76
126.17
153.01
175.06
193.24
210.66
230.29
254.14
282.70
315.07
349.63
384.89
419.81
453.61
487.58
521.88
554.98
583.85
604.75
614.89
613.73
603.37
587.95
575.96
575.91
594.37
633.90
691.71
759.80
826.88
881.73
896.43
853.90
749.68
594.08
408.20
215.73
35.17
-123.49
-256.57
-363.56
-442.04
-491.07
-512.80
-513.16
-500.37
-482.21
-464.16
-448.13
-433.13
-414.99
-390.97
-360.75
-328.37
-299.95
-280.84
-274.22
-279.70
-294.16
-311.90
-327.41
-337.72
-343.18
-346.55
-350.86
-359.09
-372.16
-388.13
-401.32
-404.08
-388.96
-351.48
-295.33
-226.03
-154.04
-91.70
-49.12
-30.38
-32.34
-46.36
-61.21
-67.56
-60.58
-41.60
-15.51
12.38
38.47
61.25
80.33
95.20
104.52
107.38
103.53
94.56
83.59
74.00
68.23
66.68
67.84
69.08
68.33
64.48
58.00
50.57
44.19
40.25
39.02
39.68
40.84
41.32
40.41
38.19
35.29
32.50
30.43
29.37
29.29
29.95
31.15
32.67
34.34
35.97
37.20
37.73
37.49
36.54
35.02
33.03
29.89
24.54
15.59
1.91
-16.98
-40.11
-65.11
-88.81
-107.98
-120.25
-124.69
-122.04
-114.43
-105.06
-97.17
-93.39
-94.56
-99.07
-103.09
-101.97
-92.62
-74.69
-53.08
-34.60
-24.97
-25.97
-34.85
-45.73
-52.64
-51.93
-42.63
-26.04
-4.21
19.97
42.90
60.50
69.61
69.67
63.64
57.02
54.45
57.37
62.94
65.66
60.45
45.56
23.18
-2.04
-25.17
-43.10
-54.48
-58.85
-55.67
-44.32
-24.77
1.64
30.87
59.25
83.54
102.07
114.77
122.75
127.45
129.96
130.85
130.14
127.85
124.12
119.42
114.63
111.15
110.58
113.95
120.39
126.63
127.48
117.64
94.53
60.23
21.41
-13.12
-36.16
-45.03
-42.08
-32.69
-22.47
-14.80
-10.29
-8.03
-7.22
-8.11
-11.95
-20.12
-33.12
-50.28
-69.56
-88.60
-105.36
-118.44
-127.56
-133.22
-136.58
-138.74
-140.32
-141.48
-142.36
-143.50
-145.52
-148.35
-150.34
-148.26
-138.45
-118.86
-90.60
-58.23
-28.12
-5.72
6.50
9.72
7.18
2.32
-2.40
-5.86
-7.19
-5.29
1.20
13.02
29.40
47.80
64.81
77.53
84.56
86.81
86.59
86.85
90.26
98.33
110.70
124.68
135.65
137.33
126.24
102.19
69.34
35.19
7.61
-8.62
-13.56
-11.24
-7.12
-4.93
-5.40
-6.82
-7.12
-5.62
-3.77
-4.45
-9.57
-19.38
-32.62
-47.64
-63.03
-77.64
-89.78
-96.87
-95.99
-85.02
-64.33
-37.40
-9.94
11.96
24.20
26.19
19.95
8.64
-4.72
-17.79
-29.08
-37.49
-42.64
-44.71
-44.54
-43.41
-42.00
-39.62
-34.59
-24.97
-9.21
12.89
40.02
69.69
97.35
117.00
122.66
110.85
83.15
47.84
15.21
-4.26
-4.92
11.24
36.08
59.43
73.88
77.30
72.25
62.94
51.62
39.29
24.55
6.26
-14.38
-33.44
-45.93
-48.17
-40.70
-28.05
-17.55
-16.87
-30.26
-56.68
-89.64
-119.68
-137.70
-138.10
-120.09
-87.51
-47.11
-6.01
29.78
55.73
68.25
65.10
46.44
16.32
-17.28
-44.64
-57.54
-52.26
-31.05
-1.36
27.53
48.23
57.80
57.73
51.66
43.65
37.09
35.02
39.34
49.88
63.43
73.79
73.36
55.70
18.93
-32.00
-85.53
-127.35
-145.41
-134.11
-95.95
-40.32
19.99
71.32
101.64
107.08
92.09
65.55
35.97
8.63
-14.55
-33.76
-48.45
-57.99
-60.27
-53.50
-37.48
-13.36
17.20
53.38
92.96
133.56
171.35
200.73
214.73
207.62
178.16
131.48
77.76
28.09
-8.92
-29.89
-36.05
-31.54
-20.93
-7.81
5.75
18.15
27.28
31.85
31.78
28.34
23.15
17.08
9.34
-1.75
-18.19
-41.93
-72.46
-106.91
-140.65
-169.05
-188.84
-199.49
-202.23
-200.01
-197.69
-199.16
-205.89
-216.46
-227.16
-227.91
-212.26
-177.60
-121.20
-51.98
14.08
62.08
85.71
88.65
79.88
67.15
54.66
42.78
29.14
12.82
-4.50
-19.54
-28.68
-29.60
-22.34
-8.41
10.07
30.55
52.28
76.33
102.61
130.58
158.76
184.71
206.37
222.84
233.88
239.76
239.89
231.84
212.40
179.48
134.30
82.43
32.36
-8.09
-34.50
-46.96
-49.17
-45.46
-38.90
-30.70
-21.10
-10.44
-0.06
8.34
13.80
16.43
17.48
18.10
18.54
17.60
13.27
3.71
-11.62
-30.73
-50.78
-68.61
-82.05
-90.73
-96.16
-100.67
-106.14
-112.97
-119.59
-123.98
-124.43
-120.83
-114.85
-109.36
-107.09
-109.77
-118.86
-131.50
-143.49
-149.25
-142.50
-117.85
-73.27
-12.36
55.20
116.22
156.89
170.38
159.22
133.37
105.09
83.44
71.42
66.74
65.20
64.41
64.91
68.71
76.99
88.32
98.89
104.20
101.71
91.82
77.87
64.08
53.55
46.43
40.07
30.45
14.68
-8.00
-35.15
-61.88
-83.00
-95.26
-98.67
-96.31
-92.70
-91.57
-94.80
-102.01
-111.42
-121.01
-128.76
-132.28
-128.46
-114.47
-89.76
-58.38
-28.78
-10.68
-11.02
-29.36
-58.65
-88.22
-108.66
-115.97
-112.00
-101.04
-85.64
-64.51
-33.96
8.05
58.30
108.15
146.74
165.71
163.18
143.93
116.52
89.48
67.68
51.59
38.92
26.98
14.75
3.44
-4.56
-7.24
-3.83
4.63
15.57
26.13
33.96
37.85
38.29
36.77
35.02
34.43
35.40
37.07
37.83
35.96
30.48
21.85
11.90
3.23
-1.49
-0.11
8.69
25.57
50.32
79.51
108.55
131.07
140.38
132.30
107.63
72.43
35.80
6.14
-12.30
-20.25
-21.51
-20.30
-18.76
-16.59
-12.56
-6.67
-0.80
1.89
-1.71
-12.07
-27.16
-43.26
-56.72
-65.22
-68.93
-70.01
-71.34
-75.58
-83.82
-96.02
-111.23
-127.62
-141.84
-150.05
-148.68
-133.09
-105.65
-72.89
-43.42
-24.41
-18.67
-23.23
-32.20
-39.56
-41.75
-38.24
-29.59
-16.59
0.69
22.67
50.57
83.52
118.88
153.02
181.58
201.33
210.65
209.67
192.92
163.56
127.39
90.36
56.61
27.38
1.90
-21.54
-44.22
-66.20
-84.74
-97.33
-102.42
-99.32
-88.71
-71.97
-50.61
-26.17
-0.67
24.02
42.38
49.19
42.43
24.49
1.23
-20.81
-37.55
-48.91
-56.79
-63.43
-67.51
-64.03
-46.74
-12.21
36.72
90.25
134.57
158.09
155.70
131.26
95.31
59.57
32.04
14.52
4.15
-4.45
-14.37
-25.89
-37.63
-48.62
-59.31
-71.24
-86.09
-104.18
-124.32
-144.21
-161.50
-175.22
-186.08
-195.95
-207.35
-223.35
-246.09
-275.84
-309.69
-341.11
-362.11
-366.37
-351.23
-318.21
-273.88
-227.69
-188.26
-160.62
-143.07
-129.80
-117.38
-102.70
-81.58
-52.53
-17.10
21.49
59.06
96.10
134.43
175.64
221.26
276.11
341.88
415.16
488.50
551.37
600.04
633.66
652.55
659.13
662.64
670.82
686.89
708.94
728.98
743.82
749.68
741.64
678.16
544.35
359.97
168.83
29.76
-61.36
-119.60
-158.51
-191.27
-223.08
-250.61
-272.28
-292.38
-315.15
-345.48
-379.13
-410.32
-434.75
-449.05
-447.84
-430.05
-400.09
-366.29
-339.70
-323.85
-318.29
-319.85
-322.46
-316.10
-292.78
-250.21
-193.19
-133.31
-80.43
-41.57
-19.20
-10.64
-9.05
-8.27
-5.60
-2.13
-1.39
-4.60
-10.88
-18.05
-23.85
-26.75
-26.83
-25.23
-23.66
-22.93
-22.00
-19.07
-12.54
-1.94
11.64
25.89
38.02
45.75
48.00
45.23
38.97
31.30
23.89
17.67
12.73
8.54
4.64
0.82
-2.40
-4.36
-4.50
-2.98
-0.76
0.82
0.44
-2.52
-7.64
-13.16
-16.82
-16.30
-10.33
1.06
17.10
36.69
59.19
82.02
104.57
127.55
153.24
183.90
221.22
265.20
312.62
356.61
387.85
398.05
383.03
345.60
293.24
235.77
181.73
134.99
93.88
53.20
8.11
-42.93
-96.19
-146.69
-189.77
-222.67
-241.94
-245.43
-233.29
-208.85
-183.71
-162.20
-146.49
-137.51
-132.01
-125.75
-113.00
-88.62
-51.43
-6.69
35.08
59.19
54.94
21.31
-32.76
-93.11
-147.25
-189.35
-220.60
-237.86
-240.01
-226.03
-195.47
-150.27
-95.84
-40.33
7.72
43.10
66.16
79.67
88.49
97.03
107.62
119.85
131.66
140.33
144.28
143.90
138.98
130.27
118.74
105.26
89.70
71.63
50.72
27.41
3.14
-20.88
-42.48
-59.10
-68.56
-70.79
-67.38
-61.63
-58.06
-57.78
-63.93
-79.19
-105.63
-138.88
-174.36
-205.91
-226.26
-228.43
-208.21
-167.17
-112.23
-53.94
-2.59
34.60
56.09
65.08
66.72
65.19
61.93
56.98
50.38
43.37
37.45
34.05
33.45
34.56
35.54
34.22
29.73
22.69
14.93
8.19
3.69
1.54
0.78
-0.17
-3.03
-8.61
-16.54
-25.24
-32.79
-37.40
-38.01
-34.76
-28.25
-19.76
-10.59
-1.62
7.07
15.88
25.36
35.72
46.71
57.62
67.25
74.19
77.22
76.18
71.83
65.96
61.36
61.27
68.40
82.78
100.76
115.33
118.82
105.51
74.01
28.37
-22.29
-66.41
-93.56
-97.45
-77.70
-39.20
9.21
57.08
93.63
111.31
108.86
90.87
67.61
46.31
31.77
25.75
26.94
31.46
34.10
29.95
15.84
-9.63
-42.60
-74.77
-97.24
-104.87
-97.97
-80.66
-57.96
-33.57
-9.64
12.45
31.47
46.02
55.15
59.37
60.94
62.89
67.65
75.86
85.47
92.86
94.17
86.66
69.70
44.92
15.34
-14.98
-42.86
-66.81
-86.85
-103.97
-119.48
-134.69
-150.31
-165.38
-176.67
-179.45
-168.90
-142.67
-102.74
-55.32
-8.53
30.61
59.10
77.79
88.12
90.77
84.19
66.47
38.37
4.53
-28.35
-53.81
-68.53
-72.93
-69.35
-60.06
-46.65
-30.99
-16.76
-10.03
-15.85
-35.37
-64.42
-94.57
-116.71
-125.03
-118.87
-98.23
-69.28
-38.67
-10.61
13.46
33.47
49.32
60.63
67.43
70.53
71.07
71.31
73.84
80.39
91.04
104.33
117.88
129.14
136.33
138.21
134.72
127.84
118.82
107.84
94.20
76.62
53.74
25.04
-8.99
-46.42
-82.98
-113.62
-134.39
-143.14
-139.58
-125.75
-104.74
-76.95
-46.65
-18.74
6.30
27.91
44.51
53.82
52.68
38.36
9.03
-36.11
-95.04
-163.69
-237.03
-309.22
-368.86
-405.66
-412.24
-386.71
-332.87
-257.18
-167.32
-70.96
25.54
117.14
198.72
265.46
313.12
332.48
318.71
274.33
208.90
134.99
63.14
-1.01
-53.88
-97.35
-131.66
-153.72
-159.58
-147.05
-116.46
-70.13
-12.38
50.91
112.77
167.32
211.48
244.51
266.99
279.53
282.37
275.50
259.74
237.10
211.16
186.32
166.34
153.49
148.16
148.56
150.58
148.44
136.02
109.57
69.78
22.10
-24.92
-62.79
-86.38
-95.44
-93.72
-86.80
-78.92
-71.83
-65.25
-58.62
-52.26
-47.45
-46.06
-49.02
-55.82
-64.69
-73.09
-78.73
-80.07
-76.08
-67.32
-55.05
-40.86
-26.58
-14.23
-4.97
0.21
0.77
-3.37
-12.22
-25.49
-42.68
-62.57
-84.05
-105.92
-127.43
-148.28
-168.29
-186.67
-201.10
-207.56
-202.08
-182.97
-152.33
-116.25
-82.75
-58.27
-45.30
-42.01
-43.10
-43.45
-40.00
-32.00
-20.21
-5.66
11.51
31.45
53.13
75.17
95.32
111.20
121.09
124.78
123.27
118.78
113.44
108.76
105.26
102.39
99.09
94.41
89.23
82.75
75.33
67.39
59.17
50.60
41.22
30.53
18.31
4.94
-9.03
-22.54
-34.69
-44.90
-52.97
-59.12
-63.88
-67.86
-71.29
-74.55
-77.64
-80.54
-83.22
-85.65
-87.91
-90.20
-92.91
-95.88
-99.26
-102.97
-106.86
-110.67
-114.10
-116.99
-119.40
-121.81
-124.13
-126.49
-128.72
-130.22
-129.95
-126.57
-118.56
-104.28
-86.83
-67.67
-48.08
-28.73
-9.56
10.11
31.24
54.50
79.85
106.32
133.13
159.22
183.89
207.27
230.09
253.74
279.83
309.89
344.60
383.56
423.82
460.02
485.56
494.50
483.83
454.59
411.55
361.47
311.21
265.40
225.96
192.87
165.12
141.80
122.21
105.84
91.90
79.45
67.17
53.76
38.46
21.30
3.15
-14.69
-31.06
-45.37
-57.80
-69.36
-81.17
-93.76
-106.74
-119.08
-129.79
-138.45
-145.33
-151.28
-157.94
-166.81
-178.24
-191.17
-203.54
-213.22
-218.87
-220.30
-218.70
-217.26
-218.84
-223.84
-229.35
-230.83
-224.80
-210.56
-190.13
-166.64
-144.65
-127.18
-114.35
-103.75
-92.68
-79.61
-64.01
-45.19
-22.64
-0.35
14.16
12.26
-11.92
-59.39
-126.05
-203.58
-281.58
-333.50
-338.03
-291.26
-210.38
-119.82
-36.45
33.79
91.40
138.68
177.27
205.25
220.46
223.24
217.71
209.55
203.06
199.48
197.66
195.15
187.25
169.85
141.66
106.67
70.71
38.79
13.45
-4.72
-16.42
-24.25
-30.94
-37.91
-44.56
-49.60
-51.92
-51.63
-49.40
-46.04
-42.85
-40.92
-40.64
-41.41
-42.57
-43.45
-44.34
-45.58
-47.37
-49.69
-52.51
-55.48
-58.10
-61.79
-65.02
-66.96
-66.59
-62.48
-53.16
-37.70
-16.16
10.08
38.41
65.88
89.17
105.98
115.39
117.59
113.22
103.00
87.28
66.05
40.75
12.42
-17.79
-48.73
-79.03
-106.49
-127.47
-137.35
-132.15
-110.40
-75.29
-33.92
5.01
34.37
51.15
56.76
55.34
51.17
46.93
42.90
38.40
33.14
27.91
24.10
22.71
23.59
25.50
26.81
26.09
23.02
18.43
13.74
10.33
8.84
9.04
9.94
10.35
9.35
6.78
3.13
-0.71
-3.87
-5.95
-7.04
-7.67
-8.46
-9.93
-12.25
-15.20
-18.61
-22.04
-25.26
-28.18
-30.89
-33.55
-36.35
-39.49
-43.11
-47.27
-51.87
-56.54
-60.64
-63.31
-63.72
-61.29
-56.07
-48.27
-38.47
-27.28
-15.10
-2.04
11.96
26.83
42.13
56.86
69.74
79.64
85.84
88.56
88.69
87.59
86.62
86.85
88.92
92.86
97.79
101.72
101.92
95.62
81.29
59.70
34.12
9.23
-10.65
-23.26
-29.11
-30.75
-31.20
-32.42
-34.67
-36.96
-38.07
-37.59
-36.04
-34.52
-33.81
-33.98
-34.35
-33.98
-32.31
-29.49
-26.13
-22.92
-20.23
-18.02
-16.23
-15.04
-14.97
-16.58
-19.92
-24.30
-28.58
-31.94
-34.39
-36.84
-40.43
-45.72
-52.27
-58.73
-63.55
-65.57
-64.52
-60.82
-55.24
-48.59
-41.66
-35.21
-29.93
-26.26
-24.19
-23.29
-22.81
-21.93
-19.59
-14.61
-5.94
6.76
22.61
39.58
55.11
67.89
78.52
89.45
103.35
121.12
141.06
159.57
173.42
181.62
186.08
190.35
197.17
206.42
214.60
216.32
206.63
183.05
146.18
99.18
46.32
-8.31
-61.66
-111.53
-156.18
-193.22
-219.09
-230.64
-226.50
-208.10
-179.42
-145.59
-111.54
-80.51
-53.98
-32.03
-14.16
0.10
10.93
18.28
22.23
23.16
21.95
19.73
17.61
16.29
15.86
15.99
16.14
15.89
15.10
13.97
12.88
12.29
12.33
12.86
13.60
14.24
14.67
14.98
15.39
16.06
17.11
18.28
19.01
18.73
16.99
13.79
9.55
5.09
1.32
-1.08
-1.88
-1.29
0.24
2.28
4.75
7.97
12.58
19.16
27.64
37.25
46.57
53.97
57.99
58.20
54.68
48.28
39.81
29.71
17.74
3.35
-13.88
-33.78
-55.91
-79.63
-103.83
-126.43
-144.09
-152.46
-147.65
-128.31
-97.04
-60.18
-25.61
0.14
14.77
19.74
18.95
16.30
13.88
11.92
9.59
6.49
3.26
1.22
1.27
3.23
5.92
7.79
7.58
5.08
1.09
-3.00
-5.88
-7.04
-6.77
-6.03
-5.98
-7.38
-10.33
-14.30
-18.40
-21.79
-24.18
-25.80
-27.22
-29.11
-31.94
-35.80
-40.44
-45.44
-50.32
-54.87
-59.02
-62.70
-65.80
-67.98
-68.75
-67.55
-64.11
-58.15
-49.79
-39.45
-27.76
-15.38
-2.93
9.05
20.09
29.78
37.75
43.77
47.76
49.96
50.90
51.23
51.61
52.45
53.76
55.23
56.31
56.55
55.81
54.36
52.80
51.78
51.73
52.59
53.89
54.94
55.15
54.35
52.84
51.18
50.09
50.13
51.80
55.35
60.52
66.10
69.84
69.00
61.28
46.11
25.20
2.21
-18.67
-34.28
-43.54
-47.43
-47.93
-46.91
-45.26
-43.06
-40.10
-36.50
-32.72
-29.40
-26.84
-24.80
-22.74
-20.08
-16.65
-12.80
-9.60
-7.94
-8.20
-10.15
-13.02
-15.82
-17.77
-18.62
-18.68
-18.65
-19.25
-20.91
-23.66
-27.11
-30.59
-33.35
-34.77
-34.51
-32.51
-29.01
-24.43
-19.24
-13.83
-8.56
-3.67
0.54
3.73
5.64
6.24
5.86
5.18
5.02
6.14
8.97
13.52
19.42
26.01
32.54
38.30
42.68
45.18
45.52
43.67
39.82
34.43
28.07
21.31
14.63
8.29
2.45
-2.74
-7.10
-10.41
-12.54
-13.57
-13.90
-14.15
-15.04
-17.12
-20.69
-25.66
-31.62
-37.86
-43.54
-47.80
-49.97
-49.74
-47.24
-43.04
-38.03
-33.17
-29.12
-26.13
-24.01
-22.27
-20.47
-18.30
-15.72
-12.85
-9.78
-6.49
-2.89
0.94
4.64
7.49
8.69
7.69
4.43
-0.52
-6.19
-11.63
-16.16
-19.42
-21.40
-22.18
-21.78
-20.27
-17.76
-14.56
-11.14
-8.06
-5.68
-4.09
-3.06
-2.20
-1.13
0.37
2.36
4.81
7.88
11.96
17.56
25.09
34.50
45.14
55.92
65.66
73.47
79.03
82.46
84.03
83.85
81.82
77.76
71.72
64.24
56.15
48.38
41.50
35.51
29.96
24.30
18.11
11.39
4.41
-2.53
-9.20
-15.60
-21.86
-28.11
-34.36
-40.43
-45.95
-50.42
-53.29
-54.12
-52.73
-49.36
-44.68
-39.63
-35.17
-31.88
-29.80
-28.58
-27.56
-26.16
-24.01
-21.06
-17.49
-13.66
-10.06
-7.26
-5.92
-6.56
-9.44
-14.33
-20.46
-26.73
-32.07
-35.78
-37.75
-38.39
-38.31
-37.96
-37.32
-35.89
-32.98
-28.01
-20.93
-12.17
-2.61
6.88
15.57
23.09
29.43
34.77
39.34
43.29
46.69
49.45
51.35
52.12
51.50
49.44
46.23
42.54
39.21
36.90
35.80
35.59
35.58
35.10
33.79
31.66
28.88
25.48
21.17
15.41
7.64
-2.53
-15.28
-30.67
-48.44
-67.71
-86.64
-102.48
-112.19
-113.31
-104.72
-86.99
-62.10
-32.79
-1.92
28.00
55.05
77.96
96.07
109.34
118.15
123.14
125.06
124.79
123.20
121.14
119.14
117.14
114.59
110.61
104.51
96.39
87.25
78.77
72.82
70.92
73.79
81.22
91.63
102.09
109.08
109.70
103.22
91.67
79.27
70.56
68.58
73.20
81.15
87.85
89.42
84.51
74.35
61.86
50.27
42.25
38.88
39.21
40.93
41.07
37.32
28.75
16.25
0.43
-16.24
-30.84
-41.77
-48.25
-52.00
-54.69
-56.89
-58.28
-58.39
-56.79
-53.72
-50.52
-48.40
-48.13
-49.57
-52.34
-56.59
-63.42
-74.48
-91.68
-117.46
-153.07
-198.05
-249.77
-304.06
-356.33
-402.58
-439.87
-459.95
-457.02
-428.44
-376.29
-306.96
-229.04
-150.67
-77.80
-13.70
40.39
83.41
115.16
136.00
147.26
151.11
150.16
147.01
143.71
141.63
140.48
139.35
137.06
132.91
126.89
119.79
112.93
107.74
105.25
105.33
106.92
108.46
108.62
106.85
103.63
100.36
98.76
100.00
103.81
108.55
111.05
108.11
97.68
79.67
56.02
29.87
4.25
-18.55
-38.35
-56.35
-73.98
-92.21
-111.05
-129.84
-147.48
-162.10
-170.47
-168.41
-151.87
-120.27
-78.71
-37.80
-10.19
-5.13
-24.02
-59.37
-99.44
-131.83
-149.18
-150.51
-139.29
-120.02
-95.49
-66.37
-31.76
5.92
43.25
76.35
102.29
120.54
132.58
140.88
147.55
153.14
156.47
156.23
150.71
139.10
121.72
99.89
75.26
49.04
21.66
-7.15
-37.63
-70.18
-104.36
-137.65
-165.35
-182.17
-184.71
-173.57
-153.86
-134.52
-121.58
-118.14
-122.66
-129.84
-133.26
-128.28
-113.52
-89.83
-61.50
-32.49
-5.88
16.56
34.09
46.60
54.44
58.21
58.41
55.54
50.76
45.01
38.79
32.10
24.22
14.63
4.23
-4.09
-6.06
2.51
22.71
51.62
82.97
109.55
126.22
131.74
128.53
120.84
112.47
105.36
99.55
94.33
89.31
84.96
81.95
80.23
79.38
77.55
73.22
65.50
54.70
41.88
28.57
16.03
4.78
-5.26
-14.58
-23.36
-31.50
-38.27
-42.51
-43.07
-39.36
-31.63
-20.75
-8.36
4.15
15.27
23.95
29.61
32.08
31.17
26.79
19.08
7.36
-6.96
-22.77
-38.94
-54.23
-67.25
-76.97
-82.76
-84.10
-80.66
-72.18
-59.03
-42.10
-22.58
-1.89
18.12
35.67
49.34
58.30
62.46
62.03
57.51
48.47
36.40
22.23
6.63
-9.70
-25.89
-40.81
-53.59
-63.72
-71.20
-76.49
-80.67
-84.53
-88.18
-90.95
-91.02
-86.37
-75.64
-58.62
-36.38
-11.16
14.72
38.90
60.34
79.07
95.56
110.30
123.78
136.49
148.36
158.33
163.76
160.99
146.68
119.93
83.69
44.40
9.78
-14.48
-26.68
-29.16
-26.14
-21.28
-15.95
-9.57
-1.20
8.66
17.69
22.48
20.52
11.49
-2.73
-19.14
-34.98
-48.92
-61.16
-73.22
-86.64
-102.10
-119.22
-136.93
-153.76
-167.74
-176.17
-175.82
-164.27
-141.22
-109.63
-75.55
-45.42
-24.36
-14.23
-13.43
-18.22
-25.17
-32.42
-39.69
-47.12
-54.15
-59.08
-59.70
-54.52
-43.55
-28.19
-10.49
7.50
24.60
40.16
54.29
67.23
78.84
88.47
95.29
98.62
98.32
94.92
89.94
84.36
79.15
74.84
71.48
68.94
67.00
65.50
64.29
63.31
62.30
60.95
59.25
56.69
53.39
49.71
46.13
42.89
39.83
36.36
31.94
26.42
20.29
14.72
11.11
10.48
12.85
17.20
21.69
24.61
25.14
23.64
21.52
20.44
21.48
24.94
30.73
38.51
47.84
57.36
64.17
64.18
53.88
32.88
5.22
-21.34
-38.99
-43.72
-37.47
-26.88
-19.94
-21.40
-30.57
-42.29
-50.43
-51.36
-45.36
-35.12
-23.02
-9.58
6.74
27.67
52.95
79.47
102.38
117.33
122.45
119.06
110.29
99.46
88.47
77.24
64.72
50.59
36.43
25.11
22.22
30.02
46.47
65.36
78.25
77.97
61.44
31.32
-4.64
-36.23
-55.02
-56.92
-43.56
-21.40
1.34
17.78
24.56
22.32
14.56
5.15
-3.01
-8.72
-12.22
-14.41
-16.22
-18.23
-20.49
-22.51
-23.38
-22.23
-18.96
-15.16
-13.91
-18.69
-31.81
-53.03
-79.71
-107.78
-133.34
-153.87
-168.52
-177.51
-181.18
-179.22
-170.98
-156.42
-136.71
-114.00
-90.59
-67.64
-45.13
-22.92
-2.53
12.64
18.87
14.81
3.25
-9.54
-16.49
-13.56
-1.65
13.90
26.90
34.06
36.81
39.94
47.52
60.84
77.71
93.97
105.65
110.84
110.27
106.42
101.72
95.76
87.16
75.14
60.53
45.28
31.60
21.26
15.13
13.01
10.70
4.79
-5.33
-17.79
-30.90
-44.77
-60.84
-80.38
-103.24
-132.88
-170.34
-212.56
-253.61
-288.73
-316.32
-337.27
-353.68
-368.57
-392.30
-432.82
-490.10
-555.59
-617.27
-665.42
-695.68
-709.47
-667.59
-554.58
-386.25
-200.12
-29.06
112.98
225.44
311.63
374.59
414.00
428.81
418.50
387.30
343.77
296.87
253.31
217.76
198.49
200.47
216.97
235.54
245.95
244.74
234.39
219.81
205.89
196.30
191.14
186.45
179.79
173.65
174.02
185.76
208.70
237.28
263.40
275.12
262.57
222.72
161.34
90.19
21.44
-37.01
-82.88
-117.91
-139.95
-146.94
-138.99
-118.97
-91.42
-61.03
-31.86
-6.73
13.15
27.85
38.12
45.13
50.38
55.21
60.46
66.08
71.66
76.79
81.12
83.93
84.51
82.27
76.79
67.81
54.95
38.11
17.59
-3.51
-23.71
-42.00
-57.61
-70.00
-78.82
-84.22
-86.58
-86.39
-84.21
-81.08
-77.84
-74.91
-72.44
-70.27
-68.32
-66.44
-64.59
-62.66
-60.96
-59.50
-57.92
-57.52
-56.28
-52.55
-45.00
-33.05
-16.70
3.38
26.37
51.27
78.67
106.29
132.30
155.74
175.13
189.44
197.58
199.07
194.33
184.55
171.57
157.50
144.50
133.30
122.71
111.06
97.19
80.97
63.15
45.21
29.07
16.69
8.08
0.22
-10.36
-26.37
-48.76
-76.95
-109.83
-146.82
-179.27
-203.96
-223.47
-241.88
-262.96
-288.82
-320.05
-357.07
-400.44
-450.17
-484.64
-487.15
-449.12
-374.43
-276.16
-170.18
-70.73
12.18
74.47
117.12
141.97
152.64
152.75
145.39
133.37
119.53
107.14
99.57
98.66
101.57
103.99
101.98
93.57
79.70
63.40
48.60
38.86
35.70
36.70
38.00
36.20
29.69
19.49
8.58
0.76
-1.01
6.23
23.19
49.12
81.51
116.16
147.48
169.72
178.13
172.69
158.29
142.18
131.25
128.43
132.34
138.71
143.00
142.59
137.96
129.86
118.43
103.15
82.49
55.42
22.44
-14.33
-51.33
-85.31
-114.56
-138.99
-159.01
-175.98
-190.90
-204.05
-214.90
-222.49
-226.10
-225.51
-223.20
-218.22
-210.23
-198.81
-183.23
-162.69
-136.55
-104.99
-67.79
-28.19
11.22
47.76
79.51
105.41
125.24
139.45
148.72
153.88
155.54
154.92
152.78
149.75
146.34
142.98
139.97
137.42
135.35
133.40
131.73
130.24
128.62
126.59
123.81
119.90
114.27
106.71
96.00
81.68
63.48
41.53
16.37
-11.00
-39.17
-66.66
-91.96
-113.86
-130.87
-141.64
-145.09
-140.58
-128.16
-108.66
-83.88
-56.33
-29.04
-4.48
15.52
29.80
37.61
38.27
31.32
17.13
-2.59
-24.58
-43.97
-56.28
-59.25
-53.71
-42.97
-31.12
-20.80
-11.40
-3.09
4.61
11.43
16.14
17.57
15.80
12.15
7.94
2.33
-8.22
-27.82
-58.94
-99.95
-144.96
-185.67
-216.48
-233.13
-235.98
-228.98
-216.73
-202.48
-187.40
-171.02
-152.48
-130.99
-107.19
-83.05
-61.27
-43.85
-31.79
-24.62
-20.89
-18.81
-16.00
-11.40
-4.65
4.08
14.53
26.21
38.11
48.78
56.46
61.27
63.45
64.73
67.80
75.42
89.92
112.91
145.35
179.48
210.07
230.27
234.04
217.88
183.59
139.52
97.68
68.93
57.34
64.21
78.94
90.95
93.80
86.34
71.83
54.21
35.69
15.69
-6.91
-33.68
-63.46
-93.41
-120.14
-139.80
-152.49
-157.40
-153.51
-139.22
-113.44
-74.36
-20.64
41.72
104.23
157.53
194.97
214.68
218.60
209.99
192.81
170.55
146.21
122.45
100.96
82.22
66.63
53.91
43.17
33.51
24.11
14.65
5.06
-0.81
-5.37
-10.19
-16.57
-25.52
-37.45
-52.12
-67.85
-82.57
-94.04
-100.78
-100.76
-92.76
-76.49
-52.21
-26.23
-0.85
22.47
42.82
59.17
71.56
80.08
84.96
86.59
85.43
82.81
79.35
79.69
81.92
84.44
85.89
85.29
81.82
74.92
65.04
52.41
32.12
6.33
-21.58
-49.03
-74.20
-96.10
-114.34
-128.54
-138.89
-146.00
-150.38
-152.79
-154.02
-154.26
-153.67
-152.26
-149.76
-146.01
-141.01
-134.86
-127.24
-117.85
-105.89
-90.80
-72.34
-50.69
-26.69
-1.66
23.36
47.32
67.54
84.22
98.19
110.38
121.23
130.47
137.27
141.22
141.93
139.45
134.88
129.37
124.24
120.94
120.80
124.52
131.54
138.58
140.06
130.67
107.60
72.74
32.52
-3.95
-31.33
-47.55
-55.16
-59.49
-65.35
-75.40
-89.70
-106.66
-125.14
-144.18
-161.59
-173.54
-175.19
-162.66
-135.79
-98.88
-59.60
-26.16
-4.04
5.81
6.14
1.43
-4.13
-7.97
-9.07
-7.41
-3.74
0.63
4.39
6.11
4.90
1.05
-4.21
-8.57
-9.41
-4.33
7.72
25.53
45.17
60.82
67.00
61.11
44.98
25.09
9.29
3.10
7.20
17.49
27.44
32.05
29.50
21.20
9.96
-2.29
-15.59
-31.36
-50.57
-73.35
-98.38
-123.82
-147.69
-167.98
-182.53
-188.78
-184.28
-168.15
-142.39
-111.62
-81.67
-57.58
-40.45
-29.02
-20.30
-11.46
-0.86
11.55
25.29
40.17
56.12
73.52
91.61
108.42
121.30
128.33
128.97
124.70
118.29
112.67
109.85
109.93
111.84
113.28
112.50
108.95
103.45
97.46
92.73
90.87
92.82
98.56
106.34
112.62
112.46
101.43
77.84
44.26
7.25
-25.09
-46.33
-54.34
-51.36
-42.50
-32.87
-25.56
-21.23
-18.99
-18.04
-18.52
-21.63
-28.44
-39.34
-53.48
-68.76
-83.09
-95.26
-105.55
-115.20
-125.11
-134.17
-138.92
-134.96
-118.37
-89.05
-51.29
-12.56
19.45
39.58
46.92
44.30
36.37
27.78
21.33
18.19
18.49
22.05
28.62
37.15
44.88
47.16
38.95
17.17
-16.17
-53.37
-83.34
-96.27
-88.26
-63.26
-30.98
-1.99
17.04
25.54
27.48
27.64
28.41
28.90
26.79
20.90
12.72
5.72
3.36
6.89
14.46
22.09
25.66
22.96
14.78
4.32
-4.53
-8.88
-8.10
-3.51
2.48
7.28
8.62
4.89
-4.99
-20.81
-40.53
-60.42
-75.79
-83.04
-81.51
-73.88
-64.59
-56.99
-51.00
-43.03
-28.55
-5.53
23.29
50.94
69.41
73.79
64.92
48.72
33.07
23.47
20.80
21.95
22.00
17.92
10.10
1.93
-2.29
0.76
11.96
29.69
50.32
69.07
81.00
82.07
70.69
47.99
19.53
-7.26
-26.09
-34.16
-32.86
-26.66
-20.96
-19.76
-24.15
-32.63
-41.89
-47.92
-47.27
-38.31
-21.96
-2.38
14.76
24.74
25.71
19.00
8.04
-3.68
-14.21
-23.32
-31.49
-38.55
-43.19
-43.45
-37.84
-26.33
-10.48
7.07
23.48
36.90
46.96
54.50
60.86
67.21
73.91
80.54
86.43
91.27
95.52
99.85
103.95
105.67
101.36
87.66
63.62
31.96
-1.66
-30.62
-50.00
-58.40
-57.81
-51.93
-44.18
-36.76
-30.82
-27.76
-29.33
-37.21
-51.94
-72.00
-93.82
-113.01
-125.83
-128.96
-122.75
-109.76
-93.27
-75.98
-59.41
-43.99
-29.62
-16.24
-4.08
6.18
14.01
19.25
22.14
23.19
23.02
22.19
21.13
20.02
18.74
17.24
15.60
13.92
12.24
10.55
8.77
6.90
4.96
2.94
0.97
-0.89
-2.45
-3.63
-4.53
-5.17
-5.69
-6.59
-8.45
-11.23
-13.78
-14.17
-10.48
-1.86
11.05
26.46
42.30
57.19
70.74
82.90
93.02
99.42
99.87
92.04
76.86
57.14
36.94
20.13
9.02
3.67
2.25
2.03
0.40
-4.07
-11.29
-19.49
-26.42
-30.25
-30.35
-27.32
-22.15
-15.78
-8.83
-2.29
2.09
2.08
-3.72
-14.77
-28.32
-39.78
-45.72
-45.59
-42.18
-39.97
-41.07
-43.32
-40.97
-27.60
-0.92
34.15
66.40
83.20
76.80
48.67
8.74
-27.90
-49.53
-52.75
-42.62
-28.27
-17.23
-11.86
-9.69
-7.13
-3.09
0.12
-0.81
-7.37
-17.40
-26.42
-31.13
-31.66
-31.81
-36.78
-49.66
-69.10
-90.16
-107.07
-115.61
-115.97
-110.04
-98.58
-80.10
-52.17
-14.11
30.61
74.77
110.60
133.15
142.34
142.70
140.22
138.89
139.52
140.65
138.88
132.78
123.32
113.41
106.40
104.33
106.92
111.13
111.69
103.25
82.88
51.66
14.97
-19.39
-44.56
-57.44
-59.60
-56.01
-51.96
-50.25
-50.57
-50.53
-47.96
-42.53
-36.21
-31.64
-30.70
-33.41
-38.30
-43.89
-49.09
-53.20
-54.80
-50.93
-37.60
-12.15
24.47
66.23
103.87
128.72
136.49
128.98
112.73
95.47
82.40
74.95
71.32
69.39
68.81
71.21
78.75
92.26
110.35
129.84
147.29
160.19
168.12
172.52
175.34
177.74
179.44
178.69
172.63
162.25
148.16
131.83
115.26
100.25
87.74
77.69
69.27
61.39
53.35
44.55
35.13
25.68
16.83
8.87
1.70
-5.05
-11.87
-19.06
-27.10
-36.22
-46.31
-57.11
-68.15
-78.75
-88.21
-95.97
-101.73
-105.97
-109.51
-113.33
-118.23
-124.60
-132.20
-140.39
-148.40
-155.75
-162.53
-169.28
-176.71
-185.24
-194.79
-204.80
-214.45
-223.15
-230.81
-237.96
-245.77
-255.96
-270.89
-293.23
-324.87
-365.42
-410.72
-452.75
-481.37
-487.65
-467.24
-422.15
-359.79
-289.95
-221.10
-158.01
-101.50
-49.94
-1.18
46.55
94.64
144.40
196.53
249.91
300.52
341.72
366.41
369.87
352.16
318.45
277.26
237.56
206.24
186.91
179.87
182.91
191.85
201.09
204.29
195.70
171.78
132.58
81.95
26.11
-28.28
-76.26
-115.71
-147.40
-174.07
-199.49
-227.28
-259.95
-297.62
-337.02
-371.52
-392.65
-392.91
-368.90
-323.07
-263.18
-199.28
-140.03
-89.95
-49.32
-15.52
14.71
43.61
72.02
100.11
128.58
158.95
193.23
233.03
279.61
333.81
395.47
462.38
529.37
588.38
630.17
647.20
635.85
598.54
542.80
478.26
412.65
349.51
288.28
226.39
161.01
88.56
7.23
-82.11
-175.52
-266.53
-346.60
-406.05
-435.66
-430.25
-394.50
-338.85
-275.81
-216.62
-170.18
-142.43
-135.72
-148.21
-176.37
-221.08
-280.30
-345.53
-402.41
-436.93
-441.41
-417.07
-372.56
-322.86
-290.87
-292.74
-331.05
-395.24
-470.15
-543.82
-610.06
-665.99
-661.09
-566.04
-390.60
-179.85
21.08
188.87
318.61
407.20
467.33
505.72
518.51
503.41
464.89
414.30
362.99
319.66
288.92
273.02
269.39
267.75
259.46
242.88
224.25
211.79
209.55
214.73
220.32
217.14
196.46
157.70
109.77
67.37
42.68
39.44
52.35
71.68
86.79
88.09
70.11
32.37
-17.72
-66.84
-99.36
-105.81
-86.71
-50.92
-10.98
22.45
44.05
54.78
58.98
60.67
60.84
58.50
53.02
45.29
37.38
30.86
25.19
16.24
0.24
-24.91
-57.18
-89.62
-113.18
-120.44
-108.20
-78.60
-37.75
6.34
45.54
73.59
86.62
82.67
61.01
23.92
-23.79
-73.81
-115.78
-140.09
-141.19
-119.82
-83.19
-42.26
-7.25
15.73
26.47
28.95
28.07
26.93
25.94
23.80
19.34
13.09
6.80
2.53
1.33
2.68
4.92
6.04
4.67
0.55
-5.33
-11.50
-16.54
-19.67
-21.08
-21.73
-22.90
-25.71
-30.77
-37.67
-45.23
-51.67
-55.10
-54.15
-48.85
-39.51
-27.53
-14.95
-3.40
6.48
15.23
23.99
33.87
45.26
57.73
70.45
82.74
94.58
105.89
115.67
122.04
123.01
118.02
109.32
101.34
98.30
102.18
111.40
121.68
128.78
131.17
130.63
131.21
135.80
143.15
147.74
142.39
122.13
87.40
44.12
0.92
-34.02
-56.26
-66.85
-70.41
-71.92
-74.39
-78.03
-79.47
-77.10
-71.30
-64.36
-60.12
-61.54
-69.10
-80.69
-92.83
-102.20
-107.55
-109.66
-110.87
-115.58
-127.46
-148.14
-176.44
-209.44
-243.03
-273.47
-297.76
-304.85
-287.18
-242.64
-176.40
-98.49
-19.71
52.88
116.04
169.21
213.05
246.88
269.79
281.24
283.78
278.38
266.56
249.84
229.21
205.00
175.34
137.90
91.05
37.46
-19.11
-74.77
-126.37
-171.08
-205.30
-225.12
-226.68
-208.05
-171.31
-123.61
-74.73
-33.77
-6.11
7.99
11.82
9.93
5.84
0.96
-5.04
-12.35
-20.04
-26.54
-30.48
-31.78
-31.68
-32.06
-34.68
-40.43
-48.84
-58.33
-67.31
-74.59
-79.82
-83.33
-85.68
-87.23
-87.81
-87.36
-84.32
-77.60
-66.93
-52.93
-36.89
-20.41
-4.92
8.49
19.35
27.60
33.11
35.89
36.02
33.88
30.00
25.34
20.58
16.28
12.41
8.25
3.06
-3.72
-11.78
-20.15
-27.10
-31.33
-32.15
-30.05
-26.58
-23.22
-21.07
-19.38
-16.42
-9.36
3.56
22.70
46.33
71.10
93.71
111.70
125.60
138.14
154.70
176.81
206.41
243.89
286.75
329.79
365.24
386.38
380.99
343.88
278.76
198.15
118.25
51.54
8.07
-17.57
-34.95
-52.72
-74.97
-101.63
-131.75
-161.37
-186.28
-204.52
-216.20
-223.40
-229.61
-237.37
-246.57
-255.30
-260.43
-259.49
-251.20
-235.79
-213.33
-183.94
-147.30
-103.10
-52.67
1.33
55.30
106.05
151.94
194.05
235.19
278.16
324.02
368.88
404.50
420.92
410.84
372.99
313.30
242.82
167.38
95.24
32.81
-16.54
-52.37
-75.75
-88.19
-91.38
-87.63
-80.14
-71.37
-63.73
-58.62
-56.31
-55.58
-54.73
-52.48
-48.42
-43.17
-37.26
-31.68
-27.21
-24.06
-21.26
-17.14
-10.30
-0.00
13.25
28.23
42.67
54.80
62.15
63.51
58.88
49.04
34.70
16.28
-6.07
-32.33
-61.28
-91.68
-121.95
-150.78
-177.03
-199.24
-214.86
-220.12
-211.29
-186.81
-149.19
-104.64
-61.43
-26.88
-5.01
4.42
4.72
0.26
-5.62
-11.40
-16.56
-20.90
-24.13
-26.40
-28.40
-31.40
-36.80
-45.16
-55.88
-66.81
-75.22
-77.27
-69.99
-52.33
-26.22
3.35
29.58
46.20
50.03
43.02
31.28
21.93
19.83
25.64
36.21
47.01
54.59
58.12
59.02
59.17
59.31
58.83
56.58
52.03
45.95
40.14
36.22
35.14
36.46
38.43
39.14
37.33
33.14
27.99
23.94
22.61
24.66
29.35
34.86
39.34
41.81
42.41
42.19
42.22
42.55
42.13
39.04
30.99
16.22
-6.10
-35.83
-71.56
-110.14
-146.96
-176.37
-193.21
-195.15
-183.94
-165.03
-145.67
-131.13
-122.85
-118.62
-114.07
-105.18
-90.19
-69.79
-46.08
-21.02
4.34
29.60
54.36
77.43
96.85
110.58
117.27
117.21
112.15
105.40
99.40
95.79
94.81
95.33
95.47
93.62
89.21
82.84
76.25
71.32
69.36
70.45
73.45
76.46
77.85
76.70
73.27
68.73
64.56
62.16
62.65
66.79
74.38
83.65
90.85
91.03
79.86
56.03
22.86
-12.34
-40.85
-56.18
-56.80
-46.10
-30.25
-15.01
-3.35
4.93
11.60
17.93
23.59
26.57
24.43
15.71
0.62
-19.48
-42.53
-66.64
-89.54
-107.87
-117.10
-112.53
-91.85
-58.04
-19.01
13.37
28.09
19.81
-8.70
-47.99
-86.27
-114.68
-130.04
-134.46
-132.87
-129.72
-127.21
-125.79
-125.77
-127.97
-133.09
-140.30
-146.17
-145.68
-135.03
-114.04
-86.73
-60.00
-40.32
-30.27
-28.09
-28.86
-27.19
-19.63
-5.58
13.40
35.06
57.55
79.83
101.37
121.33
138.28
150.59
156.92
157.24
152.64
145.81
138.96
133.85
131.20
130.79
132.02
134.15
135.99
135.27
129.02
114.33
90.23
58.72
24.61
-6.03
-28.38
-40.49
-43.37
-39.65
-32.00
-21.73
-9.32
4.55
18.17
28.95
34.42
33.56
27.29
17.50
6.19
-5.54
-18.01
-32.13
-48.81
-68.50
-90.82
-114.17
-135.66
-151.04
-155.68
-146.64
-123.32
-89.52
-52.21
-19.14
4.12
16.05
19.07
17.55
15.25
14.00
13.30
11.90
9.25
6.15
4.09
4.22
6.51
9.76
12.44
13.15
11.63
8.67
5.64
3.80
3.70
5.07
6.95
8.27
8.24
6.82
4.53
2.25
0.73
0.27
0.65
1.34
1.69
1.31
0.18
-1.42
-3.02
-4.27
-5.06
-5.54
-5.98
-6.67
-7.78
-9.26
-10.97
-12.67
-14.22
-15.65
-17.04
-18.54
-20.31
-22.48
-25.11
-28.31
-32.13
-36.69
-42.06
-48.18
-54.73
-61.13
-66.47
-69.87
-70.33
-67.19
-60.30
-50.04
-37.20
-22.74
-7.62
7.44
21.95
35.58
47.92
58.43
66.50
71.65
73.70
73.11
70.95
68.52
66.97
66.85
67.90
69.22
69.80
68.84
66.29
62.85
59.53
57.35
57.09
59.18
63.62
69.62
75.21
77.29
72.34
57.72
33.23
1.61
-32.18
-62.75
-86.30
-101.74
-110.34
-114.33
-115.52
-114.53
-111.18
-105.57
-98.70
-92.50
-89.03
-89.56
-93.91
-100.54
-107.12
-111.56
-112.79
-111.10
-108.08
-105.84
-106.22
-109.90
-115.99
-122.28
-125.91
-124.07
-114.46
-95.48
-66.23
-26.44
23.17
80.59
142.39
204.16
261.44
310.82
350.60
380.78
402.54
417.47
426.96
431.93
432.82
429.46
421.15
406.88
385.65
357.03
321.38
279.76
233.45
183.54
130.72
75.48
18.64
-38.26
-92.82
-142.33
-184.39
-217.64
-242.06
-258.80
-269.64
-276.39
-280.41
-282.32
-282.11
-279.39
-273.65
-264.62
-252.25
-236.76
-218.39
-197.36
-174.02
-149.11
-123.89
-99.97
-78.95
-61.78
-48.49
-38.16
-29.36
-20.75
-11.43
-1.04
10.28
21.90
32.52
40.05
42.15
37.22
25.49
9.67
-5.61
-15.41
-16.50
-8.60
5.61
21.95
36.69
48.17
57.10
65.72
76.06
88.33
100.24
107.59
105.79
91.91
66.04
31.69
-5.44
-39.26
-65.26
-81.73
-89.72
-92.49
-94.31
-99.63
-111.96
-132.77
-160.08
-187.94
-207.47
-209.52
-188.64
-145.77
-88.71
-29.34
20.83
54.71
71.26
74.36
69.88
62.84
56.28
51.65
49.94
52.47
60.34
73.39
89.44
104.48
113.90
114.43
105.47
89.41
70.67
53.67
40.97
32.26
24.96
15.77
2.71
-13.70
-30.66
-44.34
-51.80
-52.26
-47.34
-40.28
-34.55
-32.60
-35.20
-41.55
-49.76
-57.75
-63.91
-67.56
-68.92
-68.83
-68.15
-67.38
-66.46
-64.93
-62.27
-58.08
-52.18
-44.46
-34.91
-23.50
-10.42
3.78
18.01
30.60
39.71
43.88
42.59
36.59
27.84
19.02
12.74
10.58
12.50
16.97
21.52
23.80
22.38
17.16
9.37
0.98
-5.92
-9.72
-9.40
-4.38
5.45
19.58
36.72
54.95
72.12
86.17
95.25
97.80
92.53
78.60
55.89
25.41
-9.89
-44.43
-71.16
-84.49
-82.90
-69.35
-48.92
-26.30
-4.32
15.88
33.81
48.77
59.74
65.93
67.63
66.60
65.27
65.82
69.24
74.90
80.91
84.80
84.86
80.13
71.04
58.53
43.50
26.17
6.11
-17.12
-42.83
-70.30
-99.08
-128.57
-157.43
-182.63
-199.33
-202.09
-187.07
-154.74
-110.70
-64.18
-24.40
2.45
15.28
17.23
13.33
8.56
6.13
7.60
14.12
27.33
48.70
77.92
111.47
141.63
159.71
159.59
140.81
109.33
75.38
48.84
35.27
34.38
41.33
50.36
57.84
63.02
67.06
71.27
75.65
78.02
75.78
66.95
51.41
30.64
6.73
-18.58
-43.73
-68.30
-92.85
-117.83
-143.13
-168.88
-192.05
-209.51
-218.80
-218.32
-208.53
-191.70
-170.83
-149.27
-128.96
-110.36
-93.56
-78.78
-65.71
-55.61
-51.03
-54.30
-68.03
-92.52
-126.25
-166.73
-209.83
-248.12
-273.43
-278.64
-258.94
-215.62
-153.23
-79.13
-1.48
73.94
147.30
221.64
294.42
362.22
418.55
459.33
482.58
488.61
466.38
413.32
334.27
239.59
154.25
82.25
23.65
-20.74
-51.73
-66.78
-61.73
-35.52
9.15
63.23
115.04
157.02
184.37
193.79
182.84
151.87
103.20
41.93
-23.90
-87.64
-142.77
-185.97
-215.68
-232.51
-234.34
-219.06
-187.53
-144.74
-100.66
-64.14
-40.64
-30.01
-26.69
-21.55
-5.93
21.99
62.00
105.34
143.78
171.26
185.72
189.16
185.90
179.68
172.26
164.41
156.15
148.40
141.82
135.38
125.80
108.69
80.73
42.16
-2.18
-44.74
-77.95
-97.54
-103.70
-100.18
-91.40
-80.73
-69.52
-58.46
-49.23
-44.81
-49.03
-64.39
-90.08
-119.95
-144.67
-154.79
-144.87
-115.72
-74.06
-29.90
7.00
29.65
34.55
21.10
-8.47
-49.08
-92.56
-128.60
-147.87
-145.32
-122.12
-84.92
-43.29
-6.07
20.35
32.25
28.28
8.70
-23.75
-63.52
-102.68
-132.56
-146.10
-139.63
-113.87
-73.46
-25.95
20.01
56.29
76.56
79.44
68.18
48.64
26.73
6.40
-11.28
-26.74
-40.62
-52.57
-61.34
-65.34
-64.03
-58.01
-48.70
-37.94
-27.12
-17.08
-8.22
-0.72
5.32
9.52
11.31
10.25
6.23
-0.42
-9.09
-19.07
-29.54
-39.32
-47.47
-53.39
-56.83
-58.06
-57.81
-57.11
-57.00
-57.89
-58.61
-57.26
-51.66
-39.90
-21.01
4.74
36.26
72.61
109.71
145.90
180.72
213.86
245.06
274.07
300.62
324.33
344.22
358.10
362.91
354.72
329.86
287.69
231.79
168.94
106.24
48.07
-5.05
-54.44
-100.65
-141.36
-170.25
-179.77
-166.34
-133.12
-91.68
-57.72
-42.92
-46.37
-60.75
-76.02
-83.55
-78.56
-61.08
-32.79
3.82
43.81
80.00
102.70
104.09
82.38
43.04
-3.26
-45.17
-74.86
-89.93
-92.60
-87.93
-80.42
-72.63
-65.48
-59.30
-54.55
-51.84
-51.47
-52.69
-54.20
-54.14
-50.84
-43.90
-34.44
-24.63
-16.81
-12.42
-11.33
-12.20
-13.07
-12.04
-8.35
-2.46
4.26
10.26
14.60
17.35
19.41
21.99
26.28
32.73
40.88
49.58
57.26
62.62
64.84
63.59
58.98
51.44
41.41
29.30
15.86
1.61
-12.75
-26.31
-38.34
-48.23
-55.64
-60.51
-63.18
-64.14
-64.02
-63.41
-62.63
-62.06
-61.96
-62.49
-63.69
-65.49
-67.64
-69.75
-72.11
-73.36
-72.56
-69.10
-62.86
-54.30
-44.39
-34.49
-25.93
-19.70
-16.19
-15.11
-15.57
-16.44
-16.76
-15.93
-13.63
-9.71
-4.11
2.99
11.41
20.70
29.81
36.96
40.03
37.11
27.17
10.72
-10.64
-33.99
-56.20
-74.54
-87.56
-94.99
-97.26
-95.17
-87.72
-77.52
-66.78
-56.10
-43.87
-26.59
-0.51
35.98
80.48
126.88
167.70
196.29
209.50
208.44
197.02
179.52
158.77
133.65
106.20
77.43
49.16
23.84
3.41
-11.57
-22.09
-29.89
-36.77
-43.21
-49.49
-55.02
-58.91
-60.75
-60.87
-60.34
-60.34
-61.71
-64.25
-67.72
-71.38
-74.30
-75.96
-76.27
-75.69
-74.53
-72.81
-70.06
-65.77
-59.27
-50.00
-37.71
-22.70
-5.71
11.63
28.27
43.34
56.06
66.01
73.04
77.40
79.56
79.99
79.05
77.16
74.56
71.41
67.87
64.10
60.52
57.62
55.71
54.63
54.08
53.56
52.59
51.68
50.28
48.79
47.82
47.75
48.49
49.41
49.54
48.04
44.60
39.32
33.17
27.18
22.23
18.87
17.46
18.23
20.96
24.89
28.39
29.73
27.75
22.81
16.81
12.25
10.85
12.40
15.13
16.70
15.80
12.49
7.92
3.29
-1.49
-7.55
-15.99
-26.63
-37.60
-45.91
-49.54
-48.02
-42.28
-34.92
-28.55
-24.93
-24.53
-26.77
-29.71
-31.51
-29.69
-21.34
-5.38
17.05
42.41
66.16
84.11
94.61
96.87
91.80
81.05
65.09
43.29
14.10
-22.81
-65.66
-109.46
-149.97
-183.45
-197.54
-184.41
-145.23
-91.09
-35.18
6.37
36.03
58.37
76.00
88.60
94.79
90.24
69.89
32.19
-19.97
-79.29
-139.39
-195.18
-243.27
-282.19
-296.64
-276.83
-223.89
-150.18
-70.08
5.34
70.69
120.51
158.13
184.47
197.26
195.02
178.46
150.48
114.48
75.44
38.61
8.86
-12.38
-27.47
-39.35
-49.69
-58.05
-63.42
-64.92
-62.43
-56.08
-47.33
-38.81
-32.66
-29.96
-30.42
-32.92
-36.01
-38.45
-39.17
-38.01
-35.76
-33.39
-31.61
-30.91
-31.77
-35.05
-41.71
-51.20
-60.98
-66.29
-61.36
-41.87
-7.43
36.99
81.62
114.95
128.09
117.66
86.99
44.24
-1.17
-42.54
-75.34
-96.95
-105.39
-98.85
-77.18
-43.92
-6.61
24.93
42.55
43.83
32.81
17.31
4.70
-1.77
-3.20
-2.31
-0.26
4.63
15.29
33.07
54.09
71.20
77.71
70.81
52.75
29.39
7.10
-10.20
-22.00
-30.22
-37.11
-43.60
-49.11
-52.37
-52.55
-49.83
-45.29
-40.88
-37.61
-35.78
-34.90
-34.03
-32.34
-29.46
-25.82
-22.36
-20.17
-19.96
-21.83
-25.21
-29.22
-33.08
-36.19
-38.49
-40.29
-42.10
-44.28
-46.95
-49.93
-53.00
-55.99
-58.65
-61.03
-63.36
-65.94
-69.00
-72.65
-76.86
-81.56
-86.67
-91.66
-96.18
-99.97
-102.90
-104.80
-105.38
-104.04
-99.65
-93.55
-85.72
-75.99
-64.31
-50.96
-36.55
-21.79
-7.28
6.76
20.49
34.79
50.39
67.62
86.26
105.68
125.10
143.91
161.92
179.37
197.15
216.15
237.26
261.14
287.87
316.50
344.76
369.12
385.63
391.31
384.90
367.37
341.37
310.14
276.31
241.23
205.16
167.89
129.58
90.90
53.02
17.18
-15.60
-44.60
-69.25
-89.04
-103.49
-112.33
-115.79
-114.73
-110.74
-105.73
-101.60
-99.71
-100.42
-102.92
-105.37
-105.53
-101.48
-92.39
-78.80
-62.33
-44.91
-27.87
-11.30
5.72
24.41
45.28
67.45
88.62
105.64
115.45
116.12
107.57
91.56
71.25
50.40
32.38
19.58
12.93
12.05
15.72
22.48
31.00
40.24
49.48
58.25
66.38
73.58
79.48
83.69
85.84
85.46
81.78
73.55
59.26
37.76
8.45
-28.08
-69.95
-114.42
-158.68
-200.67
-239.46
-274.87
-303.63
-321.09
-322.88
-307.33
-276.77
-236.52
-192.48
-149.34
-109.90
-75.27
-45.97
-22.31
-4.46
7.79
15.19
19.10
21.02
22.33
24.13
26.69
29.63
32.24
33.95
34.59
34.48
34.14
34.09
34.83
36.39
38.44
40.48
42.13
43.34
44.39
45.59
47.10
49.25
52.08
55.39
58.77
61.77
64.13
65.72
66.37
65.44
62.64
57.69
50.43
40.80
29.11
16.00
2.58
-10.28
-22.09
-32.21
-40.33
-46.54
-51.47
-55.74
-60.09
-64.87
-69.00
-73.61
-79.10
-85.42
-92.15
-99.03
-105.59
-113.10
-119.99
-125.32
-128.65
-129.55
-127.84
-123.50
-116.98
-108.51
-98.30
-86.22
-72.40
-57.20
-40.84
-24.03
-6.34
9.88
22.91
31.94
37.38
40.05
40.91
40.91
40.43
39.10
35.91
30.29
22.11
12.21
1.94
-7.32
-14.49
-19.42
-22.99
-26.34
-30.76
-37.73
-48.54
-64.01
-83.46
-103.89
-120.16
-126.54
-118.18
-94.33
-59.36
-20.84
13.16
37.41
51.06
56.91
59.45
64.30
75.42
90.39
107.48
125.33
143.45
161.76
179.90
196.79
212.83
227.75
240.63
250.97
258.65
264.21
268.48
272.02
262.36
233.05
185.03
125.82
64.82
8.52
-40.23
-80.68
-112.84
-137.27
-153.01
-160.41
-161.62
-159.82
-158.25
-158.99
-162.38
-167.10
-171.32
-172.09
-168.05
-160.05
-151.02
-142.66
-135.42
-127.81
-117.01
-100.27
-75.05
-40.86
-0.15
42.98
83.72
116.62
136.24
138.32
121.33
88.54
47.08
5.70
-28.12
-50.82
-63.69
-71.27
-78.11
-85.88
-91.84
-90.59
-77.30
-50.71
-14.50
23.79
56.02
76.91
85.72
85.93
82.45
78.88
76.08
72.63
66.73
58.08
48.61
41.24
38.16
39.49
43.37
46.97
47.75
44.88
39.27
33.39
29.61
29.36
32.58
37.82
43.05
46.49
48.06
47.62
46.42
45.70
46.08
47.20
47.83
46.39
41.63
33.23
21.22
8.03
-4.33
-14.34
-21.46
-26.15
-29.61
-33.06
-37.16
-41.62
-45.09
-46.16
-43.77
-38.09
-30.53
-23.45
-19.01
-18.54
-21.85
-27.25
-32.57
-35.62
-34.83
-29.39
-19.74
-7.71
3.47
9.70
7.83
-3.18
-21.10
-40.96
-57.24
-66.54
-68.98
-68.03
-68.72
-75.05
-88.57
-106.86
-125.21
-137.71
-139.82
-130.11
-110.80
-87.32
-64.42
-45.96
-32.76
-23.19
-14.39
-4.22
7.65
20.05
31.39
41.54
51.39
62.32
74.94
88.25
100.01
107.92
110.62
108.65
104.98
101.40
99.52
99.53
100.02
98.75
93.85
84.57
71.98
58.60
46.94
39.11
35.73
35.92
37.87
39.94
41.06
41.23
41.45
42.45
44.92
48.54
51.95
52.99
49.57
40.45
26.16
8.68
-9.86
-26.79
-40.07
-48.67
-52.79
-53.42
-51.99
-49.56
-46.77
-44.13
-39.62
-29.71
-11.42
15.22
45.78
72.19
86.26
82.68
60.35
24.70
-15.37
-51.85
-80.57
-101.80
-118.57
-133.44
-138.01
-128.76
-105.07
-69.56
-27.48
14.95
52.36
78.39
94.33
103.10
107.10
110.04
115.79
126.25
140.48
157.07
172.66
184.54
190.60
188.97
179.95
165.55
148.22
130.23
113.58
99.17
87.16
76.21
63.06
45.59
24.51
1.78
-20.76
-41.91
-62.07
-81.81
-101.41
-121.16
-138.56
-146.61
-139.66
-116.26
-78.52
-32.39
14.08
52.31
72.26
68.67
47.45
16.76
-16.21
-44.13
-61.55
-66.22
-59.90
-52.62
-54.35
-63.51
-78.33
-98.20
-119.09
-135.94
-145.33
-147.29
-151.83
-168.52
-191.96
-217.60
-245.02
-272.19
-297.00
-318.13
-295.70
-210.18
-126.28
-68.49
-19.78
25.91
70.13
111.42
146.45
171.03
173.19
146.20
103.14
59.35
26.58
11.00
12.33
24.11
35.96
29.86
-5.09
-60.22
-122.36
-180.22
-230.00
-271.00
-301.32
-316.58
-318.76
-310.61
-291.48
-266.25
-243.57
-237.01
-253.71
-289.78
-300.98
-256.17
-152.83
-16.80
94.21
173.29
224.43
253.48
271.41
281.33
277.38
252.82
205.86
148.27
96.58
58.61
36.11
27.81
30.33
36.40
39.44
36.16
27.81
19.69
12.36
5.23
-1.66
-7.82
-13.36
-16.44
-13.01
1.29
28.66
63.71
98.08
124.86
140.66
145.43
142.05
134.28
125.09
115.92
105.86
94.50
83.41
75.10
71.11
71.26
73.53
75.10
73.67
67.98
58.81
48.59
40.03
34.97
34.17
37.18
42.56
47.83
49.44
43.47
26.68
-1.65
-38.95
-78.86
-113.60
-136.69
-145.17
-140.07
-125.09
-104.42
-80.01
-54.29
-28.19
-2.81
19.81
37.25
47.84
51.66
50.36
46.41
42.09
38.90
37.11
36.15
35.20
33.92
32.63
32.15
33.33
36.58
41.72
47.91
53.94
58.75
61.83
63.31
63.93
64.62
65.80
67.72
69.98
71.83
72.56
71.57
68.40
63.00
55.69
46.79
36.86
26.41
15.98
5.97
-3.27
-11.48
-18.61
-24.75
-30.37
-35.86
-41.66
-48.24
-55.79
-63.59
-71.80
-80.29
-88.59
-96.42
-103.27
-108.66
-112.44
-114.41
-115.55
-115.08
-112.82
-108.83
-103.36
-96.33
-87.71
-77.52
-65.61
-51.91
-36.35
-19.19
-0.06
19.78
39.49
58.36
75.73
91.20
104.33
114.85
122.51
127.18
128.63
126.77
121.81
113.64
102.68
89.61
75.21
60.49
46.48
34.11
24.11
16.87
12.75
11.96
14.56
20.19
28.10
37.02
45.31
51.37
53.73
51.76
45.60
36.14
24.44
11.46
-2.37
-17.04
-31.58
-46.65
-62.25
-77.77
-91.84
-103.28
-111.26
-115.60
-116.82
-115.93
-114.46
-113.98
-116.35
-122.54
-131.85
-140.92
-144.23
-136.25
-114.06
-79.88
-40.39
-4.74
19.76
30.01
28.09
19.63
10.55
4.80
3.83
7.92
16.43
29.59
46.17
62.72
74.32
77.17
70.78
58.41
46.05
38.79
37.92
39.73
