1604569017.00
64.000000
-0.00
-0.00
-0.00
-0.00
-0.00
-0.00
-0.00
-0.00
-0.00
-0.00
0.00
0.01
0.01
-0.00
-0.03
-0.05
-0.05
0.00
0.13
0.36
0.66
1.01
1.37
1.72
2.06
2.40
2.79
3.24
3.80
4.42
5.06
5.66
6.20
6.68
7.15
7.68
8.31
9.14
10.09
11.04
11.88
12.56
13.14
13.76
14.65
15.96
17.91
20.32
22.90
25.38
27.58
29.57
31.68
34.32
37.81
42.54
48.15
54.10
59.83
64.97
69.58
74.14
79.34
85.71
93.76
103.00
112.62
121.73
129.77
136.75
143.30
150.75
157.77
166.64
177.95
191.79
206.97
220.57
228.25
225.36
208.53
176.87
132.76
80.05
23.07
-34.94
-92.44
-149.16
-205.23
-260.37
-313.74
-363.88
-409.83
-450.90
-486.49
-515.72
-537.19
-549.16
-549.88
-538.25
-514.04
-478.47
-433.62
-382.14
-326.65
-269.42
-212.15
-156.12
-102.36
-51.73
-5.21
36.33
72.23
102.23
126.45
145.41
159.81
170.37
177.72
182.25
184.25
183.94
181.58
177.49
172.07
165.73
158.84
151.68
144.43
137.18
129.97
122.81
115.71
108.69
101.80
95.11
88.69
82.66
77.09
72.00
67.35
63.03
58.92
54.91
51.03
47.43
44.29
41.82
40.06
38.85
37.88
36.84
35.51
33.88
32.17
30.66
29.49
28.50
27.17
24.72
20.45
14.01
5.62
-3.82
-13.03
-20.83
-26.57
-30.41
-33.22
-36.13
-39.91
-44.51
-48.91
-51.65
-51.35
-47.66
-41.53
-35.10
-31.18
-32.14
-39.05
-50.76
-63.96
-73.74
-75.32
-66.01
-46.54
-21.20
3.72
22.13
30.54
29.02
20.91
11.18
4.45
3.46
8.72
18.45
28.95
35.71
34.29
22.70
3.26
-17.17
-29.34
-26.10
-6.29
23.93
53.86
73.34
77.64
69.15
54.94
42.33
34.89
31.58
28.88
24.11
17.30
10.92
7.71
8.56
12.00
15.05
15.04
11.01
4.09
-3.58
-9.92
-14.03
-16.68
-19.38
-23.82
-30.61
-38.89
-46.73
-51.95
-53.05
-49.91
-43.66
-36.06
-28.87
-23.21
-19.43
-17.31
-16.37
-16.01
-15.62
-14.74
-13.06
-10.58
-7.58
-4.53
-1.88
0.06
1.18
1.59
1.50
1.18
0.88
0.78
0.94
1.30
1.72
1.98
1.96
1.71
1.44
1.38
1.71
2.49
3.57
4.76
5.86
6.79
7.59
8.35
9.18
10.12
11.13
12.06
12.76
13.07
12.88
12.15
10.97
9.55
8.16
7.09
6.53
6.45
6.68
7.04
7.39
7.76
8.18
8.62
8.86
8.63
7.76
6.27
4.45
2.72
1.43
0.77
0.73
1.20
1.95
2.75
3.33
3.51
3.24
2.62
1.85
1.12
0.44
-0.25
-1.02
-1.86
-2.70
-3.46
-4.15
-4.87
-5.68
-6.44
-6.90
-6.73
-5.76
-4.10
-2.08
-0.13
1.46
2.59
3.38
4.02
4.69
5.43
6.09
6.44
6.26
5.50
4.37
3.28
2.70
2.93
3.93
5.36
6.69
7.46
7.46
6.81
5.83
4.89
4.20
3.80
3.54
3.18
2.54
1.52
0.20
-1.19
-2.38
-3.14
-3.37
-3.15
-2.69
-2.25
-2.03
-2.07
-2.28
-2.46
-2.50
-2.43
-2.43
-2.66
-3.20
-3.97
-4.75
-5.31
-5.48
-5.16
-4.37
-3.25
-1.94
-0.61
0.60
1.54
2.20
2.62
2.97
3.46
4.27
5.40
6.71
7.84
8.45
8.32
7.48
6.29
5.27
4.95
5.61
7.13
9.07
10.76
11.64
11.44
10.40
9.14
8.46
8.96
10.73
13.34
16.02
18.16
19.43
20.10
20.63
21.37
22.52
24.17
26.50
29.63
33.31
36.52
37.50
34.31
25.93
13.02
-1.91
-15.43
-24.63
-28.24
-26.98
-22.93
-18.36
-14.75
-12.50
-11.14
-10.09
-9.04
-8.08
-7.50
-7.42
-7.63
-7.63
-6.78
-4.89
-2.21
0.39
1.93
1.89
0.64
-0.73
-0.86
1.07
4.87
9.31
12.84
14.18
12.94
9.80
6.01
2.90
1.34
1.53
3.15
5.58
8.08
9.81
9.99
7.85
3.08
-4.08
-12.60
-20.81
-26.75
-28.79
-26.36
-20.19
-12.44
-5.87
-2.90
-4.55
-9.97
-17.00
-22.99
-26.03
-25.49
-22.25
-17.82
-13.65
-10.56
-8.64
-7.73
-7.58
-8.10
-9.14
-10.40
-11.48
-12.22
-12.93
-14.18
-16.54
-19.93
-23.61
-26.31
-26.91
-24.99
-21.25
-17.23
-14.58
-14.56
-17.20
-21.52
-25.80
-28.30
-27.84
-24.12
-17.76
-9.91
-1.82
5.60
11.93
17.25
21.82
25.86
29.35
32.04
33.73
34.31
33.93
32.71
30.63
27.52
23.34
18.30
13.05
8.52
5.47
4.46
5.27
7.17
9.06
9.83
8.83
6.07
2.25
-1.72
-4.94
-7.05
-8.12
-8.51
-8.75
-9.23
-10.24
-11.95
-14.43
-17.61
-21.16
-24.47
-26.72
-27.15
-25.16
-20.56
-13.59
-5.01
4.03
12.16
18.18
21.57
22.72
22.91
23.76
26.35
30.80
36.09
40.44
42.08
40.02
34.45
26.92
19.73
14.93
13.57
15.09
17.65
19.16
18.21
14.74
9.98
5.69
3.28
3.23
4.85
6.75
7.48
6.21
3.07
-1.08
-4.96
-7.69
-9.09
-9.83
-10.87
-12.94
-16.09
-19.60
-22.59
-24.49
-25.44
-26.03
-26.89
-28.18
-29.41
-29.79
-28.65
-25.86
-21.87
-17.54
-13.65
-10.68
-8.65
-7.23
-6.05
-4.89
-3.79
-2.98
-2.65
-2.80
-3.21
-3.67
-4.07
-4.45
-4.93
-5.49
-5.96
-6.05
-5.61
-4.66
-3.51
-2.54
-2.06
-2.11
-2.50
-2.99
-3.45
-3.90
-4.46
-5.19
-5.96
-6.48
-6.47
-5.87
-5.04
-4.47
-4.54
-5.27
-6.38
-7.50
-8.45
-9.33
-10.36
-11.93
-14.06
-16.37
-18.25
-19.19
-19.07
-18.21
-17.03
-15.81
-15.02
-14.75
-14.91
-15.27
-15.77
-16.50
-17.79
-20.10
-23.99
-30.95
-42.50
-59.77
-82.66
-109.38
-136.61
-160.30
-176.88
-181.68
-173.54
-154.65
-130.07
-105.30
-83.82
-66.02
-50.06
-33.88
-15.01
7.15
32.48
60.26
89.99
121.44
154.17
185.55
212.69
233.89
249.50
263.00
278.51
297.97
319.11
335.93
341.48
331.75
308.22
273.19
233.33
195.43
163.44
137.72
116.69
98.97
84.40
73.55
66.10
60.78
55.35
48.00
37.93
26.34
15.52
7.36
2.68
0.87
0.43
-0.29
-2.03
-4.12
-4.69
-1.06
6.59
15.68
21.95
20.35
7.26
-17.90
-52.20
-90.08
-127.39
-162.42
-195.67
-228.95
-265.53
-308.08
-357.32
-410.57
-461.01
-501.57
-525.62
-528.45
-509.56
-476.13
-440.67
-416.85
-413.24
-428.66
-455.91
-482.35
-493.49
-465.44
-385.36
-257.21
-102.32
42.82
163.71
257.61
328.42
379.96
415.19
435.10
440.31
427.57
397.94
357.77
313.02
269.88
237.41
218.63
213.57
222.23
245.15
281.62
330.44
384.52
434.24
463.64
460.39
420.84
352.36
269.95
189.58
124.35
70.18
18.24
-38.26
-100.09
-162.20
-215.45
-250.72
-258.18
-234.61
-187.73
-132.96
-88.53
-67.29
-72.14
-96.48
-128.01
-153.64
-164.28
-157.15
-133.31
-96.48
-53.55
-8.31
34.87
70.47
93.24
99.79
90.13
68.97
43.36
19.55
-0.22
-18.24
-39.08
-66.39
-99.00
-132.31
-159.39
-174.24
-170.57
-148.72
-115.19
-79.04
-47.36
-22.86
-4.87
8.60
18.73
25.57
28.55
28.03
25.88
24.74
26.50
31.18
37.25
42.35
44.75
43.61
39.57
34.45
30.41
28.94
30.17
33.00
35.81
37.25
36.52
33.85
30.29
27.16
25.44
25.31
26.30
27.54
28.33
28.19
27.18
25.75
24.47
23.75
23.67
24.04
24.52
24.84
24.82
24.47
23.93
23.36
22.87
22.46
22.05
21.53
20.80
19.84
18.69
17.42
16.05
14.54
12.78
10.61
7.85
4.34
-0.15
-5.60
-11.87
-18.85
-26.51
-34.95
-44.39
-55.09
-67.27
-81.03
-96.27
-112.80
-130.40
-148.94
-168.42
-188.92
-210.41
-232.60
-254.66
-275.21
-292.53
-304.88
-310.94
-310.24
-302.93
-289.67
-271.11
-247.66
-219.29
-185.84
-147.52
-105.49
-62.00
-20.11
17.13
47.68
71.30
89.63
105.52
121.79
139.93
159.44
178.23
193.53
203.34
207.53
207.96
207.89
211.12
221.01
239.33
265.29
294.42
318.42
326.32
307.76
257.35
178.22
82.57
-11.64
-86.80
-131.75
-144.93
-133.19
-107.39
-77.29
-48.40
-21.96
3.03
27.60
51.78
75.11
97.41
118.93
139.86
159.17
174.23
181.65
178.85
165.33
143.18
116.42
89.61
66.48
49.14
37.89
31.58
28.12
25.33
21.47
15.84
8.87
1.91
-3.38
-5.70
-4.77
-1.70
1.09
0.56
-5.69
-18.23
-35.10
-52.30
-65.30
-70.91
-68.68
-60.89
-51.23
-43.07
-38.04
-35.83
-35.02
-34.26
-33.06
-31.81
-31.19
-31.55
-32.62
-33.73
-34.23
-33.86
-32.91
-32.01
-31.85
-32.82
-34.78
-37.11
-38.85
-39.11
-37.39
-33.81
-29.04
-24.09
-19.91
-17.13
-15.90
-15.84
-16.22
-16.14
-14.78
-11.69
-7.04
-1.56
3.59
7.12
7.97
5.50
-0.21
-8.01
-15.56
-19.52
-16.47
-4.29
16.43
42.06
66.86
85.06
93.16
91.14
82.10
70.42
59.78
51.82
46.33
42.21
38.63
35.52
33.17
31.69
30.46
28.32
24.10
17.35
8.52
-1.10
-10.00
-17.04
-21.86
-24.93
-27.20
-29.59
-32.59
-36.04
-39.32
-41.67
-42.56
-41.92
-40.19
-38.02
-36.04
-34.60
-33.67
-32.96
-32.06
-30.70
-28.81
-26.58
-24.29
-22.22
-20.50
-19.14
-18.00
-16.91
-15.75
-14.49
-13.15
-11.82
-10.58
-9.47
-8.49
-7.63
-6.85
-6.14
-5.48
-4.87
-4.31
-3.80
-3.34
-2.92
-2.54
-2.19
-1.89
-1.62
-1.38
-1.17
-0.99
-0.84
-0.71
-0.60
-0.51
-0.43
-0.37
-0.31
-0.27
-0.24
-0.21
-0.18
-0.16
-0.15
-0.13
-0.12
-0.11
-0.10
-0.09
-0.09
-0.08
-0.08
-0.07
-0.07
-0.06
-0.06
-0.06
-0.06
-0.05
-0.05
-0.05
-0.05
-0.04
-0.04
-0.04
-0.04
-0.04
-0.04
-0.04
-0.03
-0.03
-0.03
-0.03
-0.03
-0.03
-0.03
-0.03
-0.03
-0.02
-0.02
-0.02
-0.02
-0.02
-0.02
-0.02
-0.02
-0.02
-0.02
-0.01
-0.00
0.00
0.02
0.04
0.07
0.11
0.16
0.21
0.27
0.34
0.41
0.50
0.58
0.67
0.76
0.85
0.94
1.04
1.14
1.25
1.36
1.49
1.62
1.76
1.92
2.09
2.31
2.57
2.85
3.14
3.42
3.65
3.85
4.07
4.35
4.74
5.28
5.93
6.66
7.41
8.13
8.81
9.53
10.35
11.33
12.52
13.85
15.26
16.62
17.85
18.95
20.04
21.29
22.88
24.84
27.08
29.34
31.32
32.76
33.61
34.05
34.33
34.69
35.09
35.09
33.96
30.90
25.38
17.49
7.88
-2.38
-12.29
-21.22
-29.25
-37.03
-44.90
-53.56
-62.83
-71.70
-78.84
-83.29
-84.75
-83.94
-82.20
-81.20
-81.79
-84.55
-89.77
-97.14
-105.26
-111.32
-111.46
-102.25
-82.51
-54.56
-23.73
3.60
22.57
31.66
32.76
29.37
24.56
19.64
14.32
8.07
1.12
-5.16
-9.19
-10.25
-9.26
-8.20
-8.99
-12.62
-18.14
-23.22
-25.09
-21.85
-13.18
-0.64
13.20
26.05
36.61
45.28
53.41
62.46
72.68
84.38
96.85
108.84
118.37
122.61
118.59
104.26
80.23
50.88
22.62
2.30
-5.59
-1.04
11.58
25.62
34.91
36.23
30.13
19.90
9.55
1.79
-2.95
-6.53
-11.42
-19.54
-30.90
-43.34
-54.22
-61.69
-66.06
-69.10
-72.12
-73.72
-70.21
-57.73
-35.60
-8.14
16.99
32.53
35.89
30.40
23.05
20.25
23.90
31.25
37.22
38.07
33.42
25.85
18.45
12.64
7.70
2.04
-4.70
-11.25
-14.84
-12.85
-3.93
11.19
29.76
47.63
59.85
61.95
51.57
30.19
3.51
-19.93
-32.34
-29.95
-14.77
6.34
25.06
35.45
36.19
29.28
19.95
11.77
5.36
-0.68
-7.82
-16.10
-23.83
-28.64
-29.01
-25.22
-19.37
-14.27
-11.98
-12.98
-16.05
-19.07
-20.05
-18.15
-13.82
-8.83
-5.18
-4.09
-5.50
-8.14
-10.22
-10.28
-7.89
-3.77
0.44
3.09
3.28
1.42
-1.15
-2.72
-2.06
0.98
5.39
9.38
11.50
11.06
8.63
5.64
3.63
3.75
6.61
12.42
20.84
30.57
39.03
42.63
37.98
23.62
1.34
-24.00
-46.29
-60.41
-64.68
-60.93
-52.82
-43.70
-35.25
-27.60
-20.55
-14.55
-10.87
-10.72
-14.08
-19.28
-23.92
-25.82
-24.05
-19.42
-13.98
-10.11
-9.83
-14.17
-22.65
-32.98
-41.10
-42.21
-32.65
-11.93
16.59
46.46
70.38
83.17
83.54
74.12
59.35
44.39
32.09
22.90
15.94
10.19
5.37
1.85
0.01
-0.12
1.03
2.69
3.99
4.53
4.31
3.66
3.00
2.67
2.86
3.70
5.18
7.18
9.53
11.95
14.01
15.51
16.43
17.18
18.50
21.05
25.51
32.49
42.64
56.09
71.70
86.36
95.41
94.18
80.22
55.03
23.96
-5.72
-27.92
-39.96
-43.08
-40.87
-36.95
-33.21
-29.69
-25.51
-20.32
-14.89
-10.74
-9.08
-10.02
-12.63
-15.49
-17.56
-18.52
-19.07
-20.29
-23.13
-27.86
-33.92
-40.08
-44.96
-47.86
-48.49
-47.38
-45.29
-43.02
-41.06
-39.35
-37.48
-34.80
-31.18
-26.35
-20.64
-14.18
-7.24
0.01
7.48
15.12
24.88
35.68
46.69
56.69
65.50
72.85
78.57
82.49
84.00
83.48
80.98
77.11
71.57
65.11
57.82
49.31
38.84
25.53
8.89
-11.31
-30.03
-46.17
-58.22
-65.85
-69.41
-69.94
-68.77
-66.94
-64.93
-62.03
-61.90
-61.78
-60.13
-56.75
-52.59
-49.42
-49.43
-54.69
-60.98
-69.01
-76.23
-77.53
-66.42
-37.87
8.99
69.65
134.87
192.19
232.71
251.40
247.54
225.46
193.00
159.14
131.61
115.53
113.15
123.37
143.82
170.65
199.01
223.51
239.06
242.20
232.01
212.57
188.93
166.29
147.91
134.51
124.59
115.79
106.29
95.43
83.65
71.47
59.52
48.30
38.14
29.17
21.54
15.33
10.63
7.46
5.49
4.27
3.29
2.07
0.16
-2.76
-6.89
-12.35
-19.20
-27.64
-37.77
-49.57
-62.76
-76.78
-90.90
-104.33
-116.43
-126.94
-135.89
-143.43
-149.71
-154.68
-157.96
-158.73
-155.94
-148.56
-136.19
-119.12
-98.39
-75.58
-52.49
-30.73
-11.40
4.86
17.66
26.14
29.23
25.73
14.56
-4.91
-32.50
-67.02
-106.51
-148.82
-192.96
-238.18
-283.97
-330.54
-379.34
-432.88
-493.38
-561.01
-632.43
-701.76
-759.29
-794.44
-800.41
-777.59
-733.46
-678.94
-623.71
-573.26
-530.61
-493.48
-457.06
-417.72
-375.50
-333.61
-295.10
-260.63
-228.15
-197.20
-164.82
-126.58
-78.76
-20.13
47.98
123.59
204.36
304.27
413.81
507.71
561.91
569.72
543.35
498.95
446.00
387.71
323.95
250.58
168.64
85.64
12.85
-40.04
-69.39
-77.66
-71.58
-57.59
-43.35
-32.11
-22.34
-10.60
4.75
21.34
35.53
44.54
51.98
61.44
76.51
99.46
130.77
168.77
209.22
248.94
286.16
327.23
377.09
437.11
505.37
579.42
657.22
735.47
810.86
876.97
932.84
974.70
995.54
989.38
956.48
903.78
840.32
776.04
667.08
498.51
290.34
83.62
-88.06
-212.68
-286.98
-331.37
-360.60
-385.06
-404.08
-416.07
-425.53
-440.41
-468.43
-510.63
-561.58
-609.31
-642.82
-661.41
-658.82
-634.16
-594.04
-539.30
-475.82
-409.55
-342.75
-276.49
-207.04
-129.67
-44.17
46.19
129.61
191.87
224.89
231.91
221.95
205.01
188.32
173.47
159.25
144.24
128.45
113.68
102.13
94.13
88.90
85.66
82.74
78.55
72.22
64.19
56.32
50.52
47.46
46.50
46.96
47.82
48.21
47.37
45.28
44.58
44.92
45.86
46.58
46.21
43.67
38.07
28.58
15.20
-2.91
-22.51
-41.28
-57.72
-71.02
-80.62
-85.34
-84.57
-77.49
-64.62
-48.52
-33.55
-23.85
-21.19
-24.96
-30.68
-34.40
-34.57
-32.63
-31.23
-32.32
-35.81
-39.97
-42.99
-44.01
-43.51
-41.85
-38.48
-32.30
-23.00
-11.93
-2.23
3.01
2.26
-4.10
-13.80
-23.69
-30.49
-31.47
-25.00
-11.37
6.55
23.75
34.52
35.25
26.14
11.36
-3.13
-12.62
-15.62
-14.05
-11.55
-11.25
-14.23
-19.20
-23.34
-23.69
-18.13
-6.16
10.76
29.27
45.06
54.48
56.12
51.00
41.67
30.81
20.07
9.94
0.57
-7.51
-13.03
-14.75
-12.50
-7.69
-2.76
-0.01
-0.57
-3.76
-7.63
-9.86
-9.08
-5.51
-0.87
2.63
3.18
0.26
-5.16
-11.18
-15.53
-16.26
-12.39
-4.53
4.89
11.92
12.37
3.70
-13.44
-34.80
-53.93
-64.93
-65.06
-55.77
-41.67
-28.12
-18.85
-14.72
-13.94
-13.66
-11.41
-5.81
3.31
15.20
28.42
41.14
51.48
57.73
59.17
55.78
48.33
38.03
26.43
15.05
5.32
-1.61
-5.26
-5.78
-4.09
-1.56
0.39
0.89
-0.23
-2.36
-4.47
-5.60
-5.24
-3.58
-1.32
0.61
1.51
1.17
-0.03
-1.34
-1.96
-1.36
0.43
2.89
5.21
6.66
6.91
6.22
5.32
5.12
6.27
8.81
12.18
15.35
17.39
17.82
16.97
15.83
15.64
17.28
20.81
25.42
29.70
32.49
33.17
32.08
30.24
28.86
28.91
31.09
35.80
42.83
50.77
56.63
56.14
45.20
22.06
-11.29
-49.27
-84.60
-111.39
-127.23
-133.46
-134.09
-132.32
-129.60
-125.46
-118.61
-108.34
-95.20
-80.68
-66.18
-51.66
-37.42
-23.01
-7.97
7.41
22.07
34.65
44.02
49.68
51.98
51.87
50.72
49.64
49.27
49.71
50.71
51.77
52.44
52.35
51.32
49.69
47.89
46.58
46.30
47.35
49.51
51.92
53.27
52.02
47.12
38.29
26.12
11.85
-3.32
-18.51
-33.54
-48.43
-63.72
-79.72
-96.52
-114.00
-131.64
-147.78
-159.42
-163.00
-154.94
-134.53
-104.80
-72.03
-43.50
-24.47
-16.20
-16.07
-19.46
-22.31
-22.99
-21.93
-20.16
-17.73
-13.16
-4.11
10.89
31.41
54.82
76.82
93.82
104.25
108.61
109.27
109.17
110.33
113.31
117.33
121.49
124.46
125.25
122.50
114.08
98.01
73.70
43.22
11.11
-17.22
-38.09
-51.06
-58.68
-63.92
-67.36
-66.16
-55.69
-33.31
-1.16
33.40
60.84
73.74
70.11
53.79
31.50
11.01
-3.56
-11.53
-14.81
-14.92
-12.59
-8.39
-3.85
-1.68
-4.57
-13.93
-28.02
-43.07
-54.83
-60.57
-59.80
-53.88
-44.63
-33.55
-21.87
-10.94
-2.44
1.84
0.72
-5.34
-13.54
-19.08
-16.56
-1.98
24.87
59.93
95.97
124.97
141.31
143.81
135.59
121.64
108.06
98.29
92.62
88.75
83.02
71.69
52.59
25.75
-6.04
-37.90
-64.80
-83.39
-93.16
-96.15
-95.50
-93.65
-91.40
-88.17
-83.39
-77.64
-72.62
-70.30
-71.58
-75.93
-81.55
-86.35
-88.62
-88.06
-85.69
-82.93
-81.47
-81.33
-81.85
-81.50
-78.58
-71.72
-60.75
-46.90
-32.26
-19.46
-10.74
-7.57
-10.00
-16.93
-26.46
-36.73
-46.49
-55.05
-62.39
-68.54
-73.48
-76.97
-78.95
-79.44
-77.48
-72.28
-61.32
-41.77
-12.10
26.02
67.46
105.16
132.84
147.62
150.56
145.82
137.93
129.96
122.77
115.84
108.62
101.50
95.72
92.11
90.93
91.29
91.87
91.32
89.50
86.53
83.58
81.23
79.43
77.58
74.50
69.01
60.41
48.82
35.01
19.72
4.73
-9.07
-21.21
-31.57
-40.06
-46.52
-50.65
-52.49
-52.23
-50.47
-48.16
-46.06
-44.60
-43.57
-42.40
-40.33
-37.16
-33.17
-29.01
-25.48
-23.01
-21.45
-20.04
-17.78
-13.62
-6.73
3.75
18.45
37.01
57.35
75.39
86.12
85.18
72.23
50.99
28.20
10.96
3.63
6.39
15.59
25.89
32.89
34.34
30.12
21.50
10.25
-2.40
-15.36
-27.67
-38.96
-49.13
-58.33
-67.07
-76.31
-86.52
-96.91
-104.84
-106.36
-96.73
-73.33
-37.56
4.28
42.42
66.83
71.01
54.57
23.48
-12.66
-44.25
-64.92
-73.05
-70.98
-62.85
-52.53
-42.60
-34.54
-29.63
-29.79
-36.90
-52.61
-75.04
-98.59
-115.14
-117.58
-103.04
-74.81
-40.74
-9.72
12.00
22.78
24.08
18.48
7.13
-10.05
-32.62
-57.90
-80.96
-96.74
-101.58
-95.76
-81.12
-59.13
-29.95
6.43
48.21
90.85
127.76
153.24
164.99
165.30
159.16
151.52
145.26
140.76
136.09
129.40
120.17
108.78
96.27
83.08
69.05
53.61
35.58
15.71
-4.97
-25.01
-42.97
-57.67
-68.69
-76.39
-81.55
-85.22
-88.12
-90.59
-92.38
-92.81
-90.78
-85.31
-75.81
-62.28
-45.43
-26.39
-6.70
12.23
29.02
43.49
56.00
67.12
77.24
86.26
93.61
98.44
100.24
99.53
97.00
93.93
91.60
91.00
92.73
97.19
104.21
112.36
118.68
118.94
109.20
87.86
57.07
22.45
-9.07
-32.14
-45.31
-50.69
-52.35
-53.95
-57.06
-61.08
-64.52
-66.30
-66.55
-66.16
-65.79
-65.35
-63.88
-60.34
-54.00
-45.22
-35.30
-26.06
-19.18
-15.57
-15.23
-17.32
-20.58
-23.76
-26.11
-27.54
-28.49
-29.85
-32.34
-36.43
-42.14
-48.96
-55.94
-62.05
-66.42
-68.71
-69.36
-69.15
-69.16
-70.35
-73.18
-77.34
-82.06
-86.49
-90.22
-93.65
-97.42
-102.59
-110.38
-122.02
-138.31
-158.97
-181.82
-202.54
-215.40
-214.48
-196.42
-162.05
-116.17
-65.77
-17.18
26.46
66.11
102.05
136.54
172.31
211.21
253.34
296.63
337.32
370.86
393.15
401.51
395.71
377.33
348.88
313.35
273.61
232.36
191.84
153.41
117.15
82.43
48.21
14.15
-18.41
-46.53
-66.66
-76.35
-75.37
-65.70
-50.67
-34.50
-21.50
-15.48
-19.46
-35.05
-62.24
-99.64
-145.04
-196.04
-250.31
-305.05
-355.85
-396.36
-419.29
-418.86
-393.41
-346.61
-286.35
-221.68
-159.49
-102.44
-49.40
2.40
54.83
107.25
156.68
199.19
232.01
254.54
268.13
274.83
275.87
271.21
260.13
242.70
220.91
198.48
179.42
165.88
157.00
149.26
138.60
122.73
102.53
81.54
64.32
54.66
54.16
62.12
75.92
91.83
105.59
113.28
112.32
102.09
84.55
63.92
45.89
36.21
39.06
55.76
84.19
119.26
154.21
183.01
202.53
213.74
220.99
229.42
242.00
257.68
271.88
278.95
275.21
260.87
239.53
215.97
193.74
173.85
155.30
136.73
117.88
100.02
85.11
74.16
66.33
59.08
49.31
34.85
15.52
-6.82
-29.22
-48.98
-64.95
-77.91
-90.12
-104.10
-121.48
-142.14
-164.48
-186.74
-207.51
-226.41
-243.72
-260.91
-279.64
-301.27
-326.73
-356.76
-391.82
-430.35
-467.58
-495.41
-505.29
-490.97
-451.00
-388.91
-311.50
-226.76
-140.37
-55.17
27.43
102.62
162.63
199.17
207.66
189.78
150.42
98.44
43.83
-3.66
-42.92
-77.94
-113.85
-152.42
-191.86
-234.03
-278.92
-323.05
-355.44
-372.08
-371.98
-357.10
-330.68
-299.11
-280.06
-287.54
-323.74
-371.72
-420.01
-459.16
-483.17
-486.96
-469.32
-445.55
-431.02
-433.29
-442.87
-460.98
-489.49
-528.49
-571.71
-537.61
-385.00
-136.27
74.39
222.32
313.21
376.81
420.73
447.33
456.17
434.75
376.40
304.70
254.15
234.73
239.96
255.60
272.19
284.81
282.66
260.19
221.26
182.82
152.51
134.60
130.36
141.23
165.80
193.27
213.03
220.26
220.24
215.44
208.46
200.88
193.80
187.69
179.59
168.47
157.24
152.67
158.16
174.20
197.52
222.43
241.15
244.74
227.23
188.32
134.63
76.33
25.86
-6.36
-14.55
1.11
35.59
82.15
135.26
190.99
245.53
295.96
339.29
372.06
390.93
393.99
381.84
358.25
328.85
299.38
274.19
254.95
241.00
230.00
219.02
205.26
186.46
161.16
128.98
90.95
48.89
5.06
-38.57
-81.42
-124.27
-168.81
-217.26
-271.62
-332.89
-400.39
-470.55
-536.26
-587.57
-614.36
-609.57
-572.85
-512.19
-441.79
-377.38
-330.51
-305.10
-298.38
-305.11
-320.71
-343.30
-372.69
-407.13
-440.46
-462.07
-460.36
-428.81
-370.26
-295.03
-216.41
-145.46
-87.31
-40.22
2.68
49.97
107.14
173.44
244.02
311.56
368.03
406.77
423.34
414.42
385.02
352.08
324.34
301.99
279.53
251.30
212.62
160.67
94.87
16.88
-70.33
-163.06
-254.04
-333.46
-391.96
-424.13
-429.96
-414.27
-384.05
-346.62
-308.85
-274.92
-246.42
-224.11
-208.80
-201.08
-200.59
-205.63
-214.36
-226.19
-241.04
-258.47
-277.98
-298.71
-319.20
-337.22
-349.93
-354.95
-351.07
-338.12
-315.55
-283.59
-243.24
-196.21
-144.19
-88.41
-30.01
29.65
88.95
149.38
211.89
275.80
338.76
398.31
453.28
503.47
548.86
588.79
628.11
669.27
709.89
743.08
761.52
761.37
742.73
708.88
664.42
624.39
600.62
596.46
606.29
621.15
634.55
643.37
647.38
647.29
657.40
688.63
742.36
810.24
881.24
948.91
1011.89
1072.62
1050.44
900.25
633.35
314.52
14.53
-228.00
-406.66
-532.33
-619.18
-679.96
-711.14
-710.04
-681.54
-638.25
-594.54
-555.12
-525.10
-504.47
-491.33
-473.47
-442.53
-398.29
-347.34
-298.53
-257.40
-225.68
-201.62
-182.43
-158.35
-121.59
-75.56
-24.68
25.13
68.94
102.86
125.11
135.16
136.63
130.78
116.44
91.96
56.15
10.58
-40.44
-90.48
-133.38
-164.01
-183.08
-194.75
-203.08
-211.44
-221.70
-235.23
-253.33
-277.41
-293.93
-293.48
-275.26
-246.17
-215.34
-187.81
-164.42
-143.85
-124.34
-104.49
-85.93
-71.30
-61.20
-55.26
-52.19
-50.54
-48.90
-45.89
-40.15
-32.50
-28.33
-27.03
-27.88
-29.71
-31.29
-31.07
-27.63
-20.09
-9.58
0.49
7.65
9.71
5.55
-5.38
-23.36
-48.62
-80.83
-111.23
-133.87
-142.26
-132.39
-104.54
-64.35
-21.08
16.03
41.17
53.50
54.75
49.01
39.62
28.73
16.88
6.51
2.13
8.61
28.37
57.68
88.24
109.11
110.79
88.44
43.59
-15.86
-78.58
-133.56
-173.90
-197.10
-205.01
-199.02
-181.01
-157.75
-137.58
-127.12
-128.53
-140.02
-157.14
-176.68
-196.59
-215.48
-232.10
-242.85
-244.64
-236.51
-220.57
-200.67
-180.59
-162.31
-146.24
-131.72
-114.07
-89.48
-57.08
-19.77
17.59
50.83
78.32
100.61
119.37
141.90
174.05
217.50
268.87
322.21
372.70
418.67
461.17
502.30
550.79
612.98
689.62
775.21
861.27
941.01
1011.65
1073.75
1086.05
1022.69
882.48
693.31
494.80
315.88
166.29
41.39
-68.73
-172.06
-264.12
-335.89
-380.10
-396.27
-391.01
-374.08
-354.17
-336.55
-323.26
-309.15
-289.21
-262.22
-231.48
-203.26
-182.71
-171.93
-170.34
-176.87
-187.83
-200.10
-212.01
-223.38
-234.98
-246.97
-258.44
-268.01
-275.68
-281.52
-285.74
-288.70
-290.46
-292.11
-295.02
-301.26
-306.48
-301.69
-282.47
-249.47
-208.33
-165.83
-127.46
-93.91
-61.05
-22.35
26.01
82.13
139.31
190.87
232.48
261.15
277.31
284.08
285.54
284.03
279.65
271.98
250.53
217.31
177.93
138.44
103.10
73.78
50.18
30.61
13.78
-0.81
-11.63
-18.28
-21.20
-21.24
-19.37
-16.50
-13.46
-10.70
-8.53
-6.17
-3.60
-1.35
0.28
1.18
1.64
2.16
3.75
7.57
14.81
24.52
32.98
34.58
23.63
-2.52
-41.46
-86.34
-127.86
-157.76
-171.88
-171.34
-160.74
-145.27
-128.01
-108.91
-86.67
-58.77
-27.07
5.30
33.98
56.44
70.64
75.37
70.86
58.40
41.13
23.67
11.86
11.17
23.50
46.04
71.74
91.93
97.86
83.85
48.93
-2.02
-60.31
-115.81
-160.04
-190.29
-205.50
-208.20
-202.71
-193.05
-181.19
-166.92
-149.22
-125.64
-98.01
-68.48
-39.86
-14.71
5.04
18.37
24.66
24.32
19.07
12.45
10.43
18.81
40.46
72.95
108.70
137.26
149.61
141.74
115.91
80.44
45.45
18.99
4.14
-1.19
-2.01
-2.73
-4.54
-5.18
-0.55
11.66
30.06
49.28
63.06
67.54
63.37
55.03
48.05
46.04
47.75
49.72
48.37
42.54
33.75
25.32
20.24
19.69
22.78
26.88
29.42
28.73
24.83
19.26
14.28
11.77
12.49
15.73
19.82
23.09
24.48
24.12
23.12
23.17
25.54
30.80
37.69
44.05
47.65
46.59
40.25
29.20
15.11
-0.06
-15.33
-29.53
-42.73
-55.07
-67.11
-77.95
-85.77
-88.44
-84.36
-73.25
-56.45
-36.22
-14.43
7.08
26.18
40.01
45.67
41.91
31.43
18.87
10.61
11.56
22.33
38.94
54.88
64.42
64.46
56.90
45.14
32.04
18.85
5.45
-8.30
-21.36
-31.92
-38.19
-39.40
-35.99
-29.43
-21.68
-15.23
-12.82
-16.55
-26.76
-41.18
-55.37
-64.90
-67.50
-64.01
-57.41
-50.45
-43.18
-32.80
-15.81
8.92
38.12
64.99
81.81
84.76
75.11
58.45
41.87
30.64
25.95
24.62
20.81
9.00
-13.21
-44.52
-79.80
-112.16
-135.41
-145.76
-142.19
-125.71
-98.20
-62.22
-20.88
22.02
61.98
94.47
116.11
125.72
123.16
112.12
96.23
78.68
61.95
47.46
35.46
25.62
17.86
12.43
9.49
7.58
3.67
-5.78
-23.11
-48.02
-76.93
-104.12
-124.23
-132.95
-129.93
-116.26
-94.07
-64.05
-28.70
7.17
37.22
55.44
58.70
47.74
27.18
3.70
-16.26
-28.09
-29.18
-19.09
0.50
25.59
50.11
67.37
71.93
61.60
37.70
4.79
-30.48
-61.08
-80.99
-86.21
-75.22
-49.41
-12.96
27.32
63.42
88.12
96.65
87.96
64.94
33.73
2.03
-22.74
-35.77
-35.65
-23.36
-1.35
27.23
58.17
86.45
107.67
120.11
123.93
119.53
106.68
84.95
54.80
18.81
-17.30
-48.65
-69.80
-76.80
-69.13
-50.06
-25.91
-4.17
8.85
10.06
-0.13
-17.52
-35.52
-47.47
-48.89
-39.13
-21.42
-1.60
14.02
20.96
18.33
8.63
-3.59
-13.56
-18.25
-17.05
-11.28
-2.98
6.45
17.25
30.47
46.60
64.32
79.68
87.23
82.73
65.28
37.95
6.66
-22.36
-45.06
-60.95
-72.44
-82.98
-94.13
-104.73
-111.99
-113.59
-109.46
-101.87
-94.27
-89.81
-89.95
-93.13
-95.60
-93.10
-82.39
-62.03
-32.28
5.18
49.71
96.27
137.52
167.43
184.74
192.18
193.62
191.60
188.43
182.71
172.76
159.31
145.52
135.41
132.21
137.10
149.39
166.89
185.03
197.37
200.27
195.24
187.60
183.10
184.86
192.42
202.32
211.31
213.47
204.99
184.94
154.49
115.32
68.48
14.64
-45.11
-108.23
-174.99
-243.54
-309.43
-366.82
-410.67
-438.59
-451.23
-451.55
-442.83
-433.94
-431.91
-439.31
-454.89
-475.24
-496.91
-517.78
-536.83
-524.23
-462.87
-352.18
-209.06
-58.18
81.36
200.85
298.46
370.40
424.00
459.08
474.46
472.04
455.79
430.40
399.33
367.49
337.97
314.36
294.63
268.16
232.31
188.36
138.54
92.14
53.77
23.80
1.93
-15.77
-32.24
-47.20
-59.33
-66.81
-67.55
-61.92
-54.05
-47.35
-45.50
-49.86
-58.75
-69.94
-81.18
-89.52
-94.87
-102.44
-116.69
-140.52
-173.68
-213.20
-255.69
-297.91
-335.28
-366.67
-397.77
-433.77
-477.35
-527.55
-581.12
-635.50
-689.88
-742.87
-759.35
-718.79
-619.71
-480.13
-324.17
-170.21
-29.38
80.58
166.44
234.01
282.87
314.30
332.72
345.66
360.74
382.77
411.48
445.48
480.06
507.99
524.57
526.88
512.52
478.73
423.80
349.74
265.93
184.48
116.57
71.49
53.92
62.93
92.32
132.68
174.26
210.12
234.35
241.90
229.93
198.90
153.38
101.33
52.25
14.53
-6.84
-12.70
-8.25
-0.10
6.35
8.38
5.40
-1.81
-12.37
-25.44
-40.41
-55.10
-68.37
-79.23
-86.94
-91.69
-94.28
-95.86
-97.39
-99.13
-100.58
-100.87
-99.08
-94.83
-88.86
-82.70
-78.21
-76.77
-78.57
-82.43
-86.46
-88.72
-88.09
-84.93
-80.75
-77.65
-77.44
-81.19
-89.07
-100.12
-111.89
-120.51
-121.50
-111.32
-89.32
-58.71
-25.70
2.83
22.39
32.59
36.65
39.02
42.77
48.01
52.68
54.73
53.71
51.47
50.94
54.25
61.54
71.24
81.17
89.17
93.24
91.04
80.30
60.06
32.39
2.98
-20.24
-30.56
-25.65
-8.81
12.62
31.21
42.63
46.91
47.14
46.72
47.14
47.86
47.59
45.85
44.04
44.12
47.24
53.09
60.00
65.87
69.43
70.94
71.82
74.50
80.59
90.27
102.26
114.85
126.62
137.14
147.33
159.25
176.40
201.59
235.30
274.70
313.86
345.15
362.11
362.05
343.00
309.90
270.81
232.75
199.69
171.95
147.47
124.04
100.69
77.97
57.89
41.81
28.38
15.75
2.80
-9.96
-20.76
-27.45
-28.87
-24.71
-16.47
-10.11
-11.67
-25.24
-51.65
-88.93
-133.63
-182.18
-231.02
-277.33
-324.21
-374.50
-428.98
-485.24
-539.00
-586.65
-627.21
-661.97
-693.34
-729.17
-774.20
-828.11
-885.68
-940.45
-988.34
-1028.96
-1063.32
-1051.01
-965.26
-800.71
-580.09
-342.33
-123.30
55.73
188.52
279.74
339.27
371.73
380.19
367.17
337.66
297.19
250.45
200.35
148.58
97.03
45.66
-3.38
-45.48
-74.22
-83.81
-69.70
-33.71
17.66
76.41
136.07
192.15
241.62
282.48
313.54
334.68
346.52
350.99
351.16
354.19
364.86
383.49
406.81
430.83
453.49
474.88
496.68
521.00
555.66
604.65
665.56
730.26
789.22
835.23
864.65
876.66
828.86
703.15
511.53
290.56
78.03
-103.77
-248.78
-359.95
-443.40
-505.02
-542.99
-557.15
-551.36
-534.58
-515.63
-500.25
-490.26
-485.18
-483.38
-477.82
-463.69
-440.51
-411.71
-381.06
-352.94
-328.63
-307.89
-289.46
-269.03
-244.10
-215.34
-185.98
-159.40
-137.51
-120.18
-106.27
-93.19
-77.42
-57.33
-33.81
-9.23
14.47
36.71
58.36
80.53
106.49
138.36
175.41
214.23
250.74
282.49
309.34
332.90
354.99
380.78
412.78
449.55
486.11
517.07
539.49
553.55
561.78
567.77
580.84
608.02
650.84
703.79
756.40
796.90
815.52
807.05
737.12
594.43
394.14
173.23
-29.73
-192.45
-311.24
-392.83
-446.11
-478.29
-489.25
-479.92
-455.04
-422.93
-391.91
-366.73
-347.94
-333.48
-320.88
-304.47
-281.20
-251.88
-220.57
-191.81
-168.09
-149.33
-134.82
-123.59
-112.85
-101.40
-90.03
-81.00
-76.42
-76.93
-81.62
-89.81
-100.91
-113.41
-126.24
-138.78
-150.65
-161.54
-170.82
-178.02
-184.41
-191.90
-202.49
-218.49
-242.42
-276.52
-322.08
-378.93
-437.15
-487.47
-520.77
-530.64
-515.43
-478.59
-427.18
-369.10
-310.64
-255.28
-205.24
-161.23
-123.29
-90.86
-62.43
-35.54
-7.55
23.08
56.08
88.57
117.46
140.81
159.14
175.20
192.86
215.34
243.86
277.03
310.48
338.01
352.46
347.26
318.82
268.80
205.12
140.25
86.98
52.96
37.83
33.55
29.12
16.54
-5.05
-29.30
-46.41
-48.45
-33.15
-4.34
30.50
63.79
90.38
107.71
114.67
110.37
94.40
67.92
34.93
2.12
-22.96
-34.75
-31.71
-16.59
5.36
28.85
50.60
69.76
86.99
103.30
119.30
135.29
151.60
168.35
184.88
199.46
209.68
213.52
210.43
201.69
189.81
177.34
165.78
154.79
142.46
126.15
103.67
74.31
39.61
3.25
-29.99
-55.88
-72.25
-79.76
-81.15
-79.66
-77.28
-74.11
-68.86
-60.46
-49.30
-37.44
-27.54
-21.17
-17.64
-14.05
-6.66
7.10
27.19
50.68
72.89
89.43
98.00
99.01
94.89
88.57
82.24
77.14
74.08
74.17
78.90
89.49
105.81
125.91
146.47
163.98
175.96
181.16
179.38
170.76
155.41
133.41
104.93
70.56
31.42
-10.83
-53.70
-93.67
-125.94
-145.35
-147.53
-130.59
-96.29
-50.09
-0.11
44.77
77.02
91.98
88.33
67.86
34.46
-7.09
-52.46
-98.25
-142.51
-184.72
-225.67
-267.07
-310.59
-356.85
-404.52
-450.03
-487.97
-512.39
-518.50
-504.19
-470.67
-422.14
-364.29
-302.85
-242.42
-186.14
-136.04
-93.28
-58.31
-30.68
-8.84
9.85
28.54
50.11
76.23
106.55
138.65
168.77
192.92
208.42
214.82
214.03
209.46
204.46
200.92
198.63
195.71
189.97
180.23
166.82
151.20
134.85
118.61
102.65
87.13
72.84
61.17
53.49
50.22
50.49
52.60
55.03
57.13
59.14
61.72
65.25
69.66
74.76
80.66
87.64
95.52
103.18
108.45
108.86
102.52
88.93
69.15
45.44
20.79
-1.70
-19.72
-32.82
-42.83
-53.49
-68.71
-90.20
-115.91
-140.20
-156.03
-158.26
-146.03
-123.08
-95.90
-70.69
-50.82
-36.22
-24.37
-12.28
1.77
17.53
33.33
47.05
57.23
63.62
66.95
68.43
68.93
68.65
67.26
64.10
58.44
49.44
35.84
16.13
-10.77
-44.23
-80.78
-114.01
-136.10
-140.63
-125.41
-93.88
-54.07
-15.60
13.87
31.03
37.17
36.51
33.81
32.34
33.06
35.14
36.97
37.45
36.44
34.74
33.42
32.89
32.33
29.83
23.40
12.54
-0.85
-12.63
-17.99
-13.72
0.27
20.87
43.35
63.67
80.22
94.06
107.80
123.66
141.94
160.69
176.64
186.90
190.39
188.38
183.61
178.88
175.65
173.68
171.49
167.82
162.48
156.62
151.86
149.09
147.67
145.56
140.28
130.10
114.60
94.62
71.43
46.50
21.25
-2.66
-23.05
-37.55
-44.39
-43.33
-35.97
-25.24
-14.13
-4.76
1.75
4.60
2.39
-6.95
-25.12
-51.81
-83.78
-115.35
-140.46
-155.13
-159.19
-156.15
-151.55
-150.83
-157.96
-174.85
-201.34
-235.08
-271.33
-303.20
-323.36
-326.14
-309.66
-276.64
-233.02
-185.13
-137.07
-89.84
-42.88
3.07
44.01
73.02
82.91
69.51
34.01
-17.15
-74.26
-127.42
-168.93
-194.80
-204.69
-200.91
-187.20
-167.61
-145.90
-125.23
-108.19
-96.73
-91.98
-93.55
-99.08
-104.09
-103.14
-91.80
-68.68
-36.38
-0.63
31.91
56.18
70.20
75.15
74.11
70.37
66.17
62.43
59.28
56.57
54.20
52.16
50.20
47.89
44.83
40.99
36.94
33.71
32.33
33.29
36.23
40.10
43.56
45.55
45.72
44.53
42.89
41.67
41.15
40.88
39.85
37.01
31.76
24.23
15.28
6.07
-2.28
-9.14
-14.43
-18.64
-22.54
-26.85
-32.03
-37.98
-44.09
-49.28
-52.31
-52.18
-48.68
-42.64
-35.75
-29.97
-26.73
-26.24
-27.10
-26.82
-22.96
-14.70
-4.04
3.96
2.26
-15.63
-52.40
-104.62
-162.65
-213.06
-243.13
-245.22
-219.41
-173.18
-118.17
-65.96
-24.54
3.00
17.63
22.25
19.60
11.49
-1.12
-16.97
-33.95
-49.22
-59.96
-64.32
-61.95
-53.94
-41.92
-27.34
-10.96
6.83
25.44
43.81
60.61
74.77
86.15
95.75
105.18
115.84
128.01
140.58
151.62
159.31
162.74
162.20
158.98
154.50
149.79
145.21
140.78
136.40
132.14
128.00
123.76
118.95
113.03
105.61
96.49
85.39
71.71
54.62
33.59
8.93
-18.06
-45.52
-71.81
-96.00
-117.98
-137.80
-155.06
-168.59
-176.84
-178.63
-173.71
-162.53
-146.07
-125.64
-102.26
-76.73
-49.78
-22.19
5.37
32.24
57.81
81.15
100.87
115.93
126.14
132.33
135.97
138.51
140.69
142.68
144.06
144.25
143.80
144.27
147.11
152.87
160.62
168.36
174.69
178.56
178.60
175.18
169.81
163.55
156.61
148.49
138.66
128.86
121.00
114.36
109.46
107.61
108.68
111.07
112.38
110.55
107.49
105.91
105.07
107.19
116.89
137.17
168.55
208.79
253.30
299.43
342.64
372.60
383.76
377.01
355.94
325.92
292.73
238.93
159.75
90.44
42.38
7.34
-18.22
-37.62
-53.93
-69.82
-87.15
-103.09
-115.37
-128.02
-142.84
-158.81
-176.06
-195.29
-217.17
-241.73
-265.37
-285.07
-302.97
-319.83
-334.61
-347.40
-359.26
-371.91
-387.38
-405.39
-425.01
-446.37
-466.24
-478.72
-478.86
-464.43
-436.64
-399.50
-357.23
-313.88
-273.61
-238.63
-209.63
-187.22
-171.77
-162.90
-159.13
-157.73
-156.17
-153.45
-149.63
-145.50
-142.02
-139.73
-138.42
-137.42
-135.86
-133.01
-128.29
-121.32
-112.03
-100.78
-88.37
-75.66
-63.14
-50.41
-36.31
-19.35
1.53
26.34
53.94
82.46
109.94
134.93
156.74
175.19
190.35
202.10
210.00
213.48
212.21
206.42
197.09
185.63
173.43
161.50
150.26
139.79
130.06
121.22
113.47
106.98
101.77
97.69
94.61
92.52
91.40
91.08
91.05
90.52
88.75
85.23
79.95
73.31
66.10
59.41
54.44
52.32
53.76
58.72
66.32
75.02
83.14
89.45
93.42
95.04
94.43
91.57
86.45
79.64
72.77
68.38
69.02
76.00
88.51
103.63
117.37
126.17
128.16
123.53
113.81
100.73
85.45
68.51
50.56
32.89
17.68
7.19
2.67
3.12
5.15
4.29
-2.93
-17.20
-36.03
-54.94
-69.41
-76.20
-74.37
-64.45
-47.02
-21.98
10.56
48.22
84.97
112.01
121.93
111.28
82.59
43.57
4.19
-27.08
-45.97
-52.80
-50.68
-41.87
-28.15
-11.48
5.31
19.00
27.33
30.15
29.61
29.35
34.70
48.59
70.01
94.44
116.29
131.38
137.68
134.84
111.94
64.81
-1.34
-72.99
-136.24
-183.09
-211.82
-224.79
-226.16
-220.20
-208.51
-192.26
-173.23
-154.35
-138.94
-129.49
-126.79
-129.18
-132.64
-129.96
-114.93
-85.38
-44.94
-1.96
33.59
53.68
54.92
39.35
14.01
-13.06
-35.76
-51.44
-60.12
-62.85
-60.57
-53.76
-43.37
-30.70
-17.86
-7.12
-0.10
3.20
4.42
5.93
9.61
15.97
24.24
32.72
39.67
43.88
45.10
43.87
41.04
37.24
32.78
27.66
21.75
14.93
7.18
-1.31
-10.01
-18.12
-24.69
-28.84
-29.98
-27.98
-23.25
-16.56
-8.81
-0.88
6.57
13.18
18.86
23.80
28.27
32.49
36.39
39.69
41.96
42.87
42.35
40.69
38.40
35.97
33.69
31.41
28.70
24.95
19.66
12.52
3.49
-7.21
-19.07
-31.28
-42.71
-51.96
-57.71
-59.13
-56.29
-50.21
-42.65
-35.45
-29.84
-26.14
-23.82
-21.93
-19.70
-16.81
-13.30
-9.35
-4.97
0.00
5.75
12.21
18.95
25.33
30.72
34.81
37.63
39.42
40.47
40.87
40.50
39.22
37.02
34.12
30.93
27.90
25.32
23.14
21.16
19.06
16.68
14.00
11.15
8.25
5.31
2.23
-1.15
-4.86
-8.81
-12.74
-16.39
-19.60
-22.45
-25.13
-27.82
-30.53
-33.06
-35.06
-36.16
-36.11
-34.90
-32.69
-29.75
-26.30
-22.36
-17.83
-12.55
-6.46
0.27
7.22
13.80
19.45
23.81
26.79
28.59
29.44
29.55
29.06
28.02
26.59
24.97
23.36
21.86
20.45
18.98
17.25
15.13
12.56
9.62
6.45
3.19
-0.01
-3.02
-5.80
-8.40
-11.00
-13.79
-16.91
-20.38
-24.02
-27.63
-31.01
-34.03
-36.56
-38.42
-39.38
-39.15
-37.53
-34.41
-29.91
-24.28
-17.87
-11.06
-4.19
2.38
8.42
13.75
18.26
21.93
24.70
26.55
27.51
27.71
27.33
26.62
25.74
24.69
23.36
21.59
19.37
16.87
14.44
12.38
10.81
9.56
8.28
6.68
4.64
2.28
-0.17
-2.54
-4.81
-7.18
-9.84
-12.90
-16.31
-19.90
-23.49
-26.96
-30.29
-33.38
-35.99
-37.75
-38.23
-37.14
-34.46
-30.42
-25.46
-19.95
-14.20
-8.36
-2.53
3.13
8.37
12.91
16.53
19.17
20.92
21.95
22.47
22.64
22.60
22.37
22.00
21.50
20.85
20.00
18.91
17.53
15.90
14.04
11.98
9.71
7.18
4.42
1.58
-1.13
-3.53
-5.58
-7.48
-9.55
-12.06
-15.09
-18.53
-22.05
-25.27
-27.92
-29.82
-30.82
-30.72
-29.36
-26.64
-22.66
-17.75
-12.33
-6.82
-1.45
3.73
8.78
13.71
18.43
22.68
26.18
28.66
30.03
30.32
29.71
28.46
26.85
25.11
23.37
21.70
20.02
18.21
16.12
13.60
10.61
7.23
3.64
0.11
-3.06
-5.73
-7.95
-9.98
-12.15
-14.77
-17.96
-21.67
-25.65
-29.67
-33.50
-36.93
-39.70
-41.55
-42.21
-41.52
-39.49
-36.28
-32.13
-27.25
-21.77
-15.80
-9.46
-2.91
3.66
10.11
16.24
21.83
26.55
30.04
32.07
32.64
32.11
31.06
30.05
29.33
28.86
28.34
27.48
26.16
24.45
22.52
20.52
18.51
16.45
14.28
11.90
9.26
6.35
3.16
-0.23
-3.70
-7.09
-10.33
-13.45
-16.59
-19.87
-23.31
-26.81
-30.16
-33.12
-35.49
-37.08
-37.71
-37.16
-35.25
-31.89
-27.19
-21.47
-15.15
-8.61
-2.12
4.21
10.31
16.08
21.30
25.72
29.11
31.35
32.42
32.44
31.60
30.19
28.48
26.74
25.17
23.84
22.69
21.60
20.35
18.82
16.95
14.75
12.32
9.76
7.15
4.50
1.78
-1.12
-4.24
-7.61
-11.11
-14.62
-18.07
-21.48
-24.99
-28.68
-32.53
-36.31
-39.62
-42.07
-43.36
-43.39
-42.20
-39.84
-36.38
-31.86
-26.36
-20.05
-13.27
-6.39
0.19
6.18
11.41
15.78
19.23
21.74
23.37
24.29
24.71
24.82
24.68
24.18
23.16
21.53
19.39
17.08
14.98
13.40
12.36
11.60
10.74
9.49
7.71
5.52
3.11
0.61
-1.92
-4.51
-7.20
-9.99
-12.83
-15.64
-18.39
-21.02
-23.45
-25.55
-27.06
-27.72
-27.22
-25.40
-22.22
-17.86
-12.70
-7.23
-1.88
3.04
7.43
11.33
14.77
17.77
20.20
22.01
23.15
23.73
23.90
23.77
23.33
22.51
21.26
19.64
17.83
16.00
14.28
12.62
10.82
8.66
6.04
3.00
-0.24
-3.42
-6.38
-9.09
-11.62
-14.09
-16.58
-19.13
-21.77
-24.54
-27.41
-30.20
-32.60
-34.21
-34.69
-33.88
-31.85
-28.80
-24.91
-20.25
-14.85
-8.78
-2.26
4.35
10.59
16.11
20.73
24.44
27.36
29.55
31.08
31.93
32.02
31.33
29.90
27.87
25.45
22.91
20.52
18.40
16.52
14.66
12.57
10.01
6.93
3.46
-0.13
-3.56
-6.70
-9.62
-12.51
-15.58
-19.03
-22.86
-26.97
-31.10
-34.91
-38.07
-40.27
-41.34
-41.17
-39.75
-37.05
-33.09
-27.99
-21.90
-15.18
-8.12
-1.07
5.69
11.91
17.37
21.85
25.25
27.60
29.06
29.87
30.20
30.09
29.47
28.28
26.58
24.58
22.58
20.78
19.29
17.98
16.62
14.95
12.78
10.07
6.91
3.53
0.16
-3.03
-6.04
-9.03
-12.22
-15.82
-19.86
-24.17
-28.36
-31.92
-34.31
-35.18
-34.36
-31.95
-28.22
-23.49
-18.06
-12.13
-5.88
0.52
6.86
12.89
18.38
23.12
26.99
29.87
31.76
32.70
32.80
32.26
31.27
30.01
28.56
26.92
25.08
23.09
20.98
18.81
16.53
14.04
11.25
8.17
4.98
1.89
-0.92
-3.50
-6.08
-8.96
-12.38
-16.32
-20.61
-24.98
-29.22
-33.21
-36.85
-39.95
-42.20
-43.24
-42.79
-40.77
-37.32
-32.71
-27.15
-20.84
-13.87
-6.40
1.27
8.71
15.51
21.37
26.18
29.92
32.61
34.23
34.80
34.41
33.36
32.05
30.85
29.92
29.11
28.11
26.62
24.57
22.15
19.65
17.26
14.93
12.42
9.50
6.11
2.41
-1.30
-4.81
-8.12
-11.40
-14.93
-18.84
-23.05
-27.33
-31.41
-35.07
-38.19
-40.68
-42.40
-43.11
-42.54
-40.49
-36.97
-32.15
-26.41
-20.06
-13.39
-6.51
0.53
7.61
14.54
20.96
26.48
30.77
33.70
35.34
35.91
35.67
34.82
33.55
32.01
30.44
29.06
28.00
27.22
26.54
25.63
24.24
22.25
19.69
16.71
13.47
10.09
6.60
3.05
-0.54
-4.09
-7.50
-10.71
-13.67
-16.35
-18.85
-21.32
-23.96
-26.99
-30.49
-34.32
-38.16
-41.59
-44.17
-45.60
-45.79
-44.78
-42.72
-39.72
-35.79
-30.91
-25.05
-18.30
-10.89
-3.21
4.31
11.29
17.44
22.66
26.88
30.11
32.37
33.68
34.10
33.78
32.92
31.78
30.60
29.50
28.49
27.48
26.23
24.56
22.32
19.52
16.31
12.94
9.66
6.65
3.96
1.52
-0.83
-3.24
-5.82
-8.64
-11.67
-14.90
-18.31
-21.82
-25.35
-28.67
-31.52
-33.56
-34.58
-34.43
-33.12
-30.73
-27.40
-23.23
-18.30
-12.70
-6.59
-0.16
6.29
12.44
17.97
22.62
26.22
28.78
30.38
31.19
31.43
31.29
30.88
30.22
29.31
28.04
26.42
24.45
22.24
19.93
17.64
15.41
13.17
10.83
8.23
5.33
2.15
-1.19
-4.51
-7.65
-10.53
-13.14
-15.57
-17.94
-20.37
-22.91
-25.61
-28.48
-31.55
-34.73
-37.84
-40.50
-42.27
-42.75
-41.65
-38.94
-34.73
-29.26
-22.83
-15.81
-8.51
-1.26
5.72
12.25
18.15
23.25
27.34
30.23
31.83
32.30
32.00
31.33
30.60
29.91
29.20
28.37
27.35
26.18
24.88
23.42
21.71
19.66
17.27
14.64
12.00
9.49
7.16
4.92
2.62
0.11
-2.59
-5.41
-8.27
-11.12
-14.02
-17.03
-20.27
-23.71
-27.28
-30.81
-34.10
-36.90
-38.93
-39.95
-39.76
-38.31
-35.70
-32.18
-27.95
-23.18
-17.94
-12.28
-6.24
0.03
6.26
12.16
17.38
21.67
24.87
27.00
28.17
28.63
28.59
28.18
27.44
26.36
25.02
23.61
22.37
21.44
20.83
20.36
19.81
19.00
17.83
16.31
14.46
12.25
9.66
6.72
3.60
0.49
-2.43
-5.13
-7.74
-10.41
-13.25
-16.18
-19.05
-21.74
-24.33
-27.05
-30.13
-33.58
-37.06
-40.01
-41.79
-42.02
-40.64
-37.91
-34.26
-30.01
-25.35
-20.30
-14.83
-9.00
-3.00
2.88
8.31
13.05
16.99
20.13
22.59
24.49
25.92
26.88
27.32
27.25
26.72
25.89
24.91
23.85
22.74
21.50
20.07
18.48
16.81
15.13
13.49
11.82
10.01
7.98
5.75
3.41
1.05
-1.33
-3.80
-6.44
-9.25
-12.19
-15.20
-18.27
-21.44
-24.67
-27.78
-30.34
-31.86
-31.96
-30.57
-27.96
-24.50
-20.52
-16.10
-11.21
-5.84
-0.18
5.31
10.15
13.96
16.68
18.52
19.82
20.86
21.78
22.56
23.12
23.36
23.22
22.67
21.72
20.43
18.97
17.52
16.23
15.10
13.95
12.51
10.57
8.08
5.18
2.16
-0.72
-3.39
-5.92
-8.48
-11.17
-14.03
-16.96
-19.90
-22.83
-25.78
-28.79
-31.83
-34.71
-37.18
-38.93
-39.73
-39.43
-38.00
-35.52
-32.15
-28.08
-23.48
-18.52
-13.29
-7.87
-2.40
2.92
7.88
12.26
15.97
19.06
21.63
23.76
25.45
26.67
27.41
27.79
27.93
27.89
27.64
27.04
25.99
24.51
22.78
21.01
19.35
17.71
15.89
13.64
10.84
7.59
4.15
0.83
-2.15
-4.69
-6.84
-8.82
-10.87
-13.23
-16.03
-19.26
-22.80
-26.48
-30.11
-33.47
-36.33
-38.43
-39.51
-39.34
-37.84
-35.10
-31.37
-26.99
-22.27
-17.43
-12.61
-7.84
-3.03
1.87
6.91
11.94
16.70
20.82
23.97
26.00
27.01
27.24
27.05
26.70
26.34
26.04
25.78
25.49
25.05
24.33
23.22
21.64
19.64
17.38
15.04
12.80
10.74
8.86
7.03
5.11
2.93
0.47
-2.20
-4.97
-7.70
-10.37
-13.01
-15.69
-18.48
-21.35
-24.27
-27.13
-29.89
-32.48
-34.82
-36.70
-37.87
-38.02
-36.96
-34.63
-31.13
-26.72
-21.69
-16.31
-10.83
-5.43
-0.18
4.82
9.49
13.69
17.22
19.95
21.75
22.65
22.81
22.48
21.94
21.42
21.03
20.76
20.54
20.29
19.96
19.56
19.01
18.19
16.89
14.95
12.32
9.18
5.84
2.67
-0.15
-2.65
-5.01
-7.49
-10.19
-13.16
-16.29
-19.49
-22.67
-25.72
-28.44
-30.54
-31.80
-32.07
-31.46
-30.15
-28.32
-26.02
-23.09
-19.34
-14.68
-9.26
-3.41
2.46
7.97
12.93
17.24
20.90
23.85
25.99
27.22
27.56
27.15
26.23
25.09
23.91
22.81
21.76
20.68
19.48
18.10
16.50
14.70
12.72
10.64
8.51
6.36
4.12
1.66
-1.13
-4.29
-7.68
-11.03
-14.10
-16.82
-19.36
-22.13
-25.42
-29.32
-33.52
-37.44
-40.43
-42.07
-42.24
-41.06
-38.79
-35.56
-31.40
-26.28
-20.24
-13.49
-6.41
0.53
6.94
12.57
17.39
21.46
24.87
27.66
29.80
31.19
31.78
31.59
30.77
29.59
28.35
27.26
26.37
25.60
24.77
23.73
22.48
21.06
19.58
18.09
16.50
14.67
12.43
9.71
6.58
3.16
-0.42
-4.04
-7.66
-11.20
-14.59
-17.79
-20.85
-23.84
-26.89
-30.04
-33.23
-36.26
-38.83
-40.60
-41.25
-40.57
-38.39
-34.79
-29.97
-24.30
-18.19
-11.95
-5.71
0.57
6.94
13.31
19.38
24.74
29.03
32.11
34.11
35.28
35.82
35.79
35.17
33.91
32.18
30.32
28.72
27.72
27.32
27.25
27.08
26.41
25.02
22.97
20.46
17.75
14.98
12.12
9.06
5.72
2.19
-1.35
-4.64
-7.56
-10.20
-12.79
-15.56
-18.68
-22.12
-25.76
-29.43
-33.00
-36.27
-38.95
-40.72
-41.27
-40.53
-38.62
-35.88
-32.62
-29.07
-25.20
-20.84
-15.84
-10.11
-3.76
2.94
9.57
15.65
20.70
24.39
26.63
27.61
27.75
27.58
27.48
27.64
28.01
28.39
28.56
28.36
27.77
26.81
25.54
23.94
21.96
19.57
16.78
13.68
10.39
7.11
3.97
1.06
-1.66
-4.28
-6.93
-9.72
-12.68
-15.81
-19.02
-22.26
-25.45
-28.51
-31.26
-33.48
-34.86
-35.14
-34.14
-31.84
-28.38
-24.01
-19.01
-13.61
-8.03
-2.43
3.00
8.01
12.33
15.80
18.39
20.26
21.67
22.86
23.93
24.82
25.36
25.42
24.98
24.14
23.04
21.81
20.51
19.13
17.69
16.20
14.63
12.95
11.05
8.86
6.38
3.67
0.85
-1.98
-4.79
-7.60
-10.41
-13.23
-16.05
-18.90
-21.84
-24.95
-28.30
-31.76
-35.13
-38.05
-40.15
-41.14
-40.91
-39.47
-36.92
-33.39
-29.04
-24.03
-18.57
-12.86
-7.07
-1.31
4.41
10.09
15.64
20.79
25.15
28.32
30.11
30.65
30.30
29.54
28.75
28.11
27.58
27.04
26.33
25.31
23.95
22.26
20.33
18.34
16.46
14.84
13.50
12.30
10.98
9.26
6.93
3.98
0.55
-3.13
-6.78
-10.19
-13.24
-15.97
-18.53
-21.21
-24.20
-27.55
-31.13
-34.56
-37.37
-39.10
-39.40
-38.11
-35.29
-31.16
-26.02
-20.22
-14.07
-7.83
-1.69
4.26
9.89
15.10
19.74
23.64
26.65
28.73
29.92
30.42
30.45
30.23
29.85
29.31
28.57
27.55
26.34
25.05
23.83
22.71
21.59
20.27
18.54
16.29
13.55
10.49
7.36
4.32
1.49
-1.16
-3.67
-6.15
-8.70
-11.46
-14.52
-17.99
-21.88
-26.01
-30.07
-33.63
-36.26
-37.62
-37.60
-36.22
-33.71
-30.31
-26.22
-21.55
-16.32
-10.51
-4.21
2.31
8.61
14.15
18.50
21.52
23.43
24.68
25.72
26.77
27.77
28.43
28.52
28.01
27.12
26.17
25.38
24.81
24.27
23.57
22.56
21.25
19.71
18.01
16.16
14.11
11.80
9.19
6.28
3.12
-0.25
-3.74
-7.24
-10.62
-13.78
-16.70
-19.43
-22.08
-24.80
-27.71
-30.89
-34.27
-37.70
-40.88
-43.45
-45.03
-45.33
-44.20
-41.64
-37.76
-32.76
-26.84
-20.29
-13.44
-6.61
-0.08
6.00
11.53
16.47
20.77
24.36
27.12
29.07
30.36
31.17
31.70
32.02
32.07
31.73
30.94
29.75
28.32
26.82
25.36
23.96
22.51
20.93
19.16
17.25
15.31
13.44
11.61
9.69
7.50
4.93
2.05
-0.97
-3.84
-6.40
-8.67
-10.80
-13.04
-15.55
-18.37
-21.45
-24.73
-28.16
-31.67
-35.17
-38.46
-41.31
-43.44
-44.59
-44.54
-43.13
-40.33
-36.28
-31.26
-25.62
-19.62
-13.44
-7.08
-0.57
5.91
12.00
17.22
21.23
23.97
25.62
26.63
27.35
28.03
28.69
29.24
29.57
29.65
29.50
29.15
28.59
27.68
26.23
24.11
21.38
18.25
15.08
12.20
9.77
7.80
6.11
4.51
2.82
0.93
-1.23
-3.71
-6.55
-9.75
-13.20
-16.75
-20.26
-23.59
-26.69
-29.40
-31.53
-32.80
-32.98
-31.98
-29.92
-27.05
-23.62
-19.80
-15.57
-10.87
-5.66
-0.04
5.75
11.31
16.25
20.22
23.06
24.76
25.52
25.63
25.43
25.18
25.02
24.95
24.86
24.60
24.04
23.15
21.95
20.52
18.96
17.30
15.57
13.74
11.74
9.50
6.97
4.15
1.06
-2.22
-5.61
-8.96
-12.19
-15.25
-18.12
-20.91
-23.74
-26.76
-30.03
-33.49
-36.88
-39.85
-42.04
-43.18
-43.17
-42.04
-39.88
-36.83
-33.02
-28.59
-23.71
-18.55
-13.22
-7.81
-2.32
3.21
8.68
13.85
18.43
22.12
24.70
26.19
26.69
26.52
25.95
25.30
24.75
24.38
24.19
24.06
23.87
23.40
22.53
21.18
19.39
17.27
14.90
12.30
9.48
6.49
3.51
0.75
-1.58
-3.47
-5.16
-6.96
-9.17
-11.85
-14.81
-17.83
-20.72
-23.46
-26.08
-28.54
-30.59
-31.80
-31.73
-30.16
-27.21
-23.32
-19.08
-14.99
-11.25
-7.77
-4.28
-0.51
3.57
7.79
11.77
15.18
17.80
19.65
20.92
21.83
22.52
22.94
22.95
22.42
21.33
19.82
18.11
16.42
14.83
13.23
11.47
9.45
7.26
5.10
3.13
1.38
-0.37
-2.44
-5.11
-8.43
-12.15
-15.92
-19.49
-22.82
-26.09
-29.45
-32.88
-36.00
-38.29
-39.25
-38.69
-36.70
-33.60
-29.70
-25.21
-20.17
-14.60
-8.61
-2.40
3.68
9.32
14.32
18.54
21.96
24.57
26.48
27.78
28.66
29.29
29.79
30.18
30.36
30.17
29.48
28.25
26.56
24.60
22.59
20.64
18.79
16.92
14.90
12.61
10.02
7.23
4.37
1.57
-1.12
-3.82
-6.76
-10.21
-14.40
-19.35
-24.84
-30.49
-35.74
-40.12
-43.24
-44.87
-44.93
-43.43
-40.41
-36.01
-30.40
-23.90
-16.94
-9.95
-3.28
2.84
8.36
13.27
17.58
21.27
24.30
26.72
28.62
30.13
31.30
32.08
32.35
32.03
31.07
29.60
27.74
25.64
23.40
21.11
18.83
16.61
14.45
12.24
9.86
7.17
4.12
0.76
-2.75
-6.23
-9.55
-12.70
-15.79
-18.97
-22.42
-26.27
-30.49
-34.99
-39.55
-43.88
-47.65
-50.56
-52.33
-52.80
-51.93
-49.74
-46.38
-42.00
-36.77
-30.86
-24.50
-17.97
-11.47
-5.21
0.73
6.30
11.42
15.91
19.52
22.05
23.44
23.86
23.61
23.02
22.36
21.74
21.17
20.57
19.91
19.13
18.23
17.14
15.81
14.19
12.26
9.97
7.32
4.32
0.97
-2.61
-6.37
-10.24
-14.35
-18.89
-24.01
-29.72
-35.78
-41.79
-47.32
-52.06
-55.91
-58.89
-61.02
-62.18
-62.11
-60.55
-57.38
-52.62
-46.53
-39.44
-31.67
-23.50
-15.08
-6.59
1.84
9.93
17.42
23.97
29.37
33.57
36.68
38.94
40.62
41.90
42.87
43.59
44.03
44.25
44.33
44.28
44.10
43.70
43.03
42.05
40.79
39.23
37.40
35.36
33.16
30.90
28.54
26.04
23.23
19.96
16.08
11.46
6.04
-0.32
-7.70
-16.15
-25.45
-35.20
-44.79
-53.56
-60.99
-66.70
-70.45
-72.07
-71.43
-68.48
-63.36
-56.47
-48.57
-40.70
-33.98
-29.40
-27.49
-28.22
-31.09
-35.38
-40.50
-46.23
-52.84
-60.90
-70.89
-82.83
-96.04
-109.00
-119.67
-125.81
-125.51
-117.58
-101.78
-78.88
-50.50
-18.90
13.29
43.40
68.99
88.19
99.98
104.22
101.56
93.23
80.88
66.37
51.72
38.97
29.93
25.84
27.15
33.31
42.97
54.32
65.70
75.94
84.62
91.94
98.29
103.92
108.62
111.95
113.54
113.52
112.52
111.43
110.86
110.71
110.14
107.90
102.77
94.09
81.90
67.00
50.78
34.88
20.97
10.36
3.68
0.78
0.78
2.43
4.59
6.52
7.96
8.96
9.60
9.85
9.55
8.61
7.09
5.28
3.51
2.01
0.82
-0.26
-1.54
-3.28
-5.59
-8.37
-11.41
-14.40
-17.02
-18.93
-19.82
-19.39
-17.45
-13.94
-8.99
-2.96
3.64
10.16
16.04
20.84
24.36
26.69
28.06
28.73
28.81
28.26
26.95
24.82
21.95
18.62
15.15
11.75
8.51
5.38
2.43
-0.16
-2.06
-2.97
-2.88
-2.13
-1.34
-1.22
-2.23
-4.51
-7.90
-12.09
-16.86
-22.12
-27.82
-33.90
-40.11
-46.06
-51.30
-55.43
-58.27
-59.78
-60.06
-59.20
-57.25
-54.19
-50.04
-45.06
-39.73
-34.70
-30.56
-27.56
-25.35
-23.21
-20.23
-15.86
-10.11
-3.55
2.93
8.57
13.06
16.59
19.57
22.42
25.25
27.83
29.85
31.17
31.96
32.63
33.50
34.58
35.37
35.13
33.21
29.44
24.14
17.96
11.45
4.73
-2.46
-10.47
-19.23
-28.07
-35.76
-41.09
-43.25
-42.25
-38.70
-33.50
-27.40
-20.78
-13.73
-6.30
1.24
8.41
14.70
19.78
23.61
26.42
28.44
29.77
30.35
30.08
28.95
27.12
24.88
22.52
20.23
18.09
16.13
14.35
12.77
11.40
10.20
9.06
7.90
6.67
5.34
3.91
2.32
0.49
-1.64
-4.04
-6.66
-9.38
-12.17
-15.05
-18.09
-21.26
-24.35
-27.01
-28.81
-29.44
-28.80
-26.95
-24.16
-20.73
-16.96
-13.06
-9.19
-5.40
-1.73
1.76
4.97
7.77
10.07
11.79
12.95
13.61
13.79
13.47
12.63
11.27
9.55
7.72
6.03
4.60
3.37
2.05
0.35
-1.85
-4.47
-7.20
-9.63
-11.44
-12.48
-12.76
-12.47
-11.90
-11.34
-11.13
-11.46
-12.31
-13.45
-14.43
-14.78
-14.23
-12.73
-10.43
-7.53
-4.23
-0.66
3.07
6.82
10.36
13.48
16.07
18.14
19.74
20.88
21.56
21.84
21.80
21.47
20.70
19.09
16.22
11.91
6.45
0.62
-4.63
-8.45
-10.41
-10.50
-9.06
-6.57
-3.56
-0.56
2.00
3.77
4.57
4.45
3.54
1.88
-0.59
-4.01
-8.33
-13.22
-18.17
-22.73
-26.75
-30.42
-34.04
-37.79
-41.44
-44.45
-46.12
-45.89
-43.55
-39.31
-33.63
-27.11
-20.40
-14.07
-8.57
-4.17
-0.90
1.38
2.94
4.01
4.84
5.61
6.52
7.79
9.55
11.76
14.16
16.37
17.98
18.77
18.84
18.48
18.09
17.97
18.25
18.83
19.54
20.11
20.33
20.17
19.84
19.77
20.54
22.75
26.73
32.32
38.84
45.23
50.50
54.16
56.46
58.22
60.27
62.91
65.68
67.67
68.06
66.70
64.07
60.84
57.36
53.34
48.15
41.34
33.01
23.75
14.22
4.64
-5.20
-15.70
-26.86
-38.08
-48.23
-56.18
-61.12
-62.86
-61.65
-57.97
-52.37
-45.44
-37.86
-30.41
-23.85
-18.67
-14.73
-11.12
-6.13
2.39
16.25
35.80
59.09
81.64
97.29
100.16
86.92
58.51
20.22
-19.99
-54.16
-77.01
-87.07
-86.27
-78.24
-66.44
-53.18
-39.67
-26.88
-15.89
-7.80
-3.10
-1.38
-1.10
-0.37
2.38
7.56
14.12
20.21
24.01
24.59
22.18
18.09
13.99
11.58
12.11
15.77
22.30
31.47
43.12
56.83
71.70
85.77
96.57
101.64
98.06
84.62
62.78
36.32
9.49
-14.32
-34.68
-53.04
-71.61
-94.45
-123.33
-155.90
-186.64
-210.27
-223.31
-227.04
-224.47
-218.57
-215.33
-218.57
-227.60
-238.03
-245.22
-245.12
-238.64
-227.84
-214.92
-207.16
-210.34
-224.91
-246.51
-270.31
-292.24
-314.76
-341.08
-339.77
-291.96
-203.15
-99.04
-3.61
60.01
104.10
138.92
170.66
202.20
231.89
253.53
263.20
260.95
249.22
233.34
215.96
200.46
190.10
182.24
172.41
158.29
140.93
123.20
109.63
101.36
98.62
100.40
101.82
97.68
85.86
67.94
47.46
28.76
13.18
0.67
-9.73
-20.61
-34.27
-50.84
-68.43
-84.48
-96.60
-104.58
-109.40
-112.52
-115.51
-118.99
-121.93
-122.15
-117.52
-106.74
-90.23
-69.49
-46.33
-22.23
2.12
26.83
52.51
79.69
108.36
137.64
165.69
189.93
207.61
216.52
215.72
205.97
189.51
169.34
148.35
128.51
110.57
94.25
78.71
63.22
47.56
32.36
19.10
9.71
5.92
8.31
15.59
24.47
30.60
29.91
20.11
1.40
-23.69
-51.30
-77.31
-98.12
-110.91
-113.60
-104.96
-84.96
-55.13
-18.42
21.30
60.50
96.87
129.73
159.72
187.87
214.71
239.98
262.94
283.01
300.27
315.35
328.95
340.96
350.12
353.95
349.50
334.15
306.51
266.74
216.43
158.12
94.60
28.53
-37.86
-102.74
-164.60
-222.47
-276.23
-326.90
-376.24
-425.55
-473.92
-517.11
-547.99
-558.97
-545.30
-507.69
-452.82
-391.24
-333.60
-287.18
-254.26
-232.94
-219.37
-209.92
-201.99
-193.46
-181.87
-164.49
-139.77
-109.31
-78.94
-57.79
-55.00
-75.36
-116.29
-167.75
-215.57
-246.82
-254.38
-238.64
-205.89
-164.48
-121.22
-79.58
-40.22
-2.74
32.80
65.57
94.79
120.68
144.69
168.70
193.65
218.55
240.43
255.33
259.73
252.07
233.58
208.27
181.94
160.40
147.60
144.35
148.25
155.03
160.62
162.86
162.22
160.90
161.07
163.32
166.01
166.12
160.81
149.17
132.86
115.43
100.58
90.27
83.78
78.14
69.77
56.36
38.01
16.95
-3.71
-21.48
-35.29
-45.10
-51.05
-52.71
-49.20
-40.11
-26.26
-9.95
5.80
18.40
26.46
29.93
29.75
27.13
23.24
18.95
14.77
10.64
5.79
-1.11
-11.30
-25.04
-40.79
-55.07
-63.03
-59.84
-42.40
-10.80
31.08
76.16
116.15
144.26
157.58
157.99
150.78
141.79
134.50
128.49
120.43
106.68
85.87
60.02
33.50
10.53
-6.99
-20.22
-32.37
-46.77
-65.33
-87.99
-113.37
-139.61
-164.93
-187.40
-204.77
-214.67
-215.46
-207.32
-192.74
-175.95
-161.23
-150.98
-144.52
-138.09
-126.35
-104.41
-69.75
-23.27
30.85
86.10
135.23
171.93
192.26
195.37
183.59
161.62
135.40
110.82
92.62
83.72
84.79
94.37
109.36
125.89
140.23
149.77
153.39
151.36
144.80
134.99
122.77
108.46
92.01
73.42
53.08
31.87
10.90
-8.72
-26.20
-41.12
-53.16
-61.85
-66.47
-66.31
-61.13
-51.65
-39.52
-26.89
-15.74
-7.27
-1.73
1.28
2.31
1.69
-0.54
-4.51
-10.24
-17.57
-25.91
-34.42
-41.94
-47.28
-49.56
-48.53
-44.81
-39.77
-35.05
-31.90
-30.91
-31.87
-34.24
-37.55
-41.69
-46.80
-53.00
-60.11
-67.55
-74.64
-80.75
-85.46
-88.60
-90.04
-89.56
-86.88
-81.81
-74.50
-65.57
-55.98
-46.75
-38.61
-31.71
-25.63
-19.71
-13.31
-6.08
1.97
10.56
19.27
27.51
34.65
40.01
43.09
43.70
42.23
39.49
36.56
34.40
33.59
34.22
35.96
38.30
40.70
42.74
44.18
44.87
44.83
44.25
43.50
43.08
43.42
44.79
47.16
50.23
53.55
56.72
59.46
61.70
63.50
64.93
66.09
67.13
68.31
69.94
72.35
75.76
80.24
85.89
92.85
101.37
111.65
123.41
135.63
146.59
154.18
156.55
152.68
142.61
127.30
108.25
87.13
65.49
44.57
25.34
8.48
-5.58
-16.68
-24.91
-30.57
-34.13
-36.16
-37.19
-37.65
-37.79
-37.61
-37.03
-36.06
-35.00
-34.46
-35.09
-37.32
-41.19
-46.36
-52.46
-59.22
-66.58
-74.59
-83.16
-91.72
-99.36
-105.14
-108.66
-110.51
-112.12
-115.23
-121.30
-130.89
-143.64
-158.62
-174.78
-191.18
-206.91
-220.47
-229.41
-230.97
-223.00
-204.92
-178.24
-146.39
-113.48
-83.38
-58.01
-37.04
-19.06
-2.72
12.69
27.16
40.30
52.20
62.98
73.67
85.80
99.52
113.07
123.79
129.49
129.24
124.20
115.34
103.91
90.99
76.05
57.41
34.01
6.39
-24.09
-55.48
-88.33
-123.74
-155.18
-173.80
-174.43
-159.94
-138.41
-123.23
-113.64
-106.23
-96.98
-82.77
-60.89
-34.27
-8.53
11.01
21.61
24.72
23.01
20.07
18.85
19.75
20.84
20.54
19.27
19.37
24.21
34.63
49.21
64.88
77.40
82.87
79.75
69.37
55.13
41.28
30.31
22.91
18.41
15.17
11.47
6.50
0.61
-5.32
-10.36
-14.55
-18.34
-22.12
-25.79
-28.78
-30.01
-28.41
-23.41
-15.22
-4.95
5.96
16.21
25.08
32.34
38.21
42.94
46.60
49.06
50.06
49.45
47.32
44.05
40.20
36.34
32.97
30.39
28.67
27.72
27.30
27.17
27.08
26.85
26.31
25.33
23.73
21.35
18.15
14.21
9.74
5.07
0.56
-3.50
-6.96
-9.84
-12.32
-14.63
-17.05
-19.78
-22.95
-26.53
-30.34
-34.01
-37.06
-38.96
-39.30
-37.87
-34.71
-30.16
-24.64
-18.60
-12.41
-6.32
-0.46
5.02
10.04
14.46
18.16
21.10
23.32
24.90
25.95
26.58
26.80
26.68
26.30
25.82
25.46
25.41
25.74
26.37
27.05
27.52
27.55
27.00
25.82
24.01
21.60
18.64
15.21
11.41
7.32
3.07
-1.26
-5.52
-9.53
-13.15
-16.39
-19.40
-22.47
-25.82
-29.45
-32.96
-35.66
-36.81
-35.96
-33.21
-29.06
-24.22
-19.25
-14.38
-9.46
-4.22
1.45
7.36
13.05
17.93
21.56
23.81
24.83
25.02
24.82
24.57
24.46
24.47
24.43
24.18
23.60
22.74
21.70
20.56
19.31
17.83
16.00
13.76
11.16
8.38
5.58
2.87
0.28
-2.25
-4.80
-7.53
-10.57
-14.04
-17.92
-22.01
-25.91
-29.13
-31.24
-31.96
-31.23
-29.14
-25.89
-21.73
-16.96
-11.88
-6.81
-1.97
2.52
6.65
10.47
13.92
16.89
19.15
20.55
21.11
20.98
20.45
19.78
19.10
18.36
17.44
16.27
14.91
13.51
12.15
10.77
9.14
7.01
4.25
1.01
-2.35
-5.46
-8.12
-10.44
-12.68
-15.15
-17.99
-21.12
-24.40
-27.67
-30.86
-33.84
-36.34
-37.91
-38.07
-36.50
-33.26
-28.80
-23.72
-18.51
-13.40
-8.29
-3.01
2.50
8.05
13.31
17.95
21.79
24.79
27.00
28.41
28.92
28.46
27.08
25.09
22.92
21.03
19.65
18.71
17.91
16.88
15.37
13.36
11.00
8.55
6.17
3.90
1.65
-0.67
-3.14
-5.74
-8.39
-11.00
-13.55
-16.16
-19.02
-22.30
-25.94
-29.59
-32.65
-34.49
-34.68
-33.12
-30.11
-26.10
-21.56
-16.77
-11.79
-6.65
-1.37
3.88
8.88
13.38
17.17
20.19
22.38
23.80
24.52
24.69
24.50
24.13
23.67
23.15
22.47
21.56
20.42
19.12
17.85
16.73
15.76
14.73
13.36
11.40
8.83
5.83
2.71
-0.23
-2.85
-5.21
-7.54
-10.05
-12.85
-15.91
-19.08
-22.19
-25.06
-27.60
-29.68
-31.11
-31.65
-31.07
-29.20
-26.11
-22.05
-17.41
-12.53
-7.62
-2.72
2.19
7.07
11.76
15.97
19.44
22.01
23.72
24.78
25.44
25.93
26.33
26.61
26.66
26.38
25.75
24.82
23.70
22.50
21.22
19.76
17.95
15.69
13.02
10.16
7.40
4.97
2.92
1.12
-0.74
-2.90
-5.45
-8.25
-11.09
-13.80
-16.38
-19.00
-21.91
-25.27
-28.93
-32.47
-35.25
-36.66
-36.35
-34.32
-30.88
-26.56
-21.93
-17.40
-13.18
-9.25
-5.44
-1.55
2.53
6.78
11.00
14.83
17.98
20.20
21.55
22.32
22.93
23.77
25.05
26.73
28.63
30.53
32.23
33.58
34.56
35.15
35.40
35.44
35.58
36.14
37.46
39.60
42.25
44.78
46.39
46.40
44.48
40.75
35.68
29.94
24.20
19.05
14.98
12.29
11.15
11.49
13.05
15.48
18.41
21.64
25.09
28.75
32.43
35.66
37.56
37.03
32.99
24.66
11.75
-5.45
-26.05
-48.65
-71.36
-91.78
-107.38
-115.92
-116.17
-108.33
-94.20
-76.55
-58.30
-41.69
-27.90
-17.20
-9.39
-4.24
-1.58
-1.14
-2.34
-4.33
-6.27
-7.65
-8.48
-9.25
-10.52
-12.68
-15.74
-19.42
-23.31
-27.08
-30.52
-33.62
-36.40
-38.87
-40.91
-42.31
-42.76
-41.99
-39.87
-36.47
-32.07
-27.02
-21.72
-16.38
-11.17
-6.16
-1.42
2.96
6.87
10.27
13.19
15.69
17.80
19.51
20.71
21.38
21.58
21.45
21.20
20.99
20.90
20.88
20.87
20.80
20.65
20.43
20.17
19.85
19.38
18.64
17.51
15.94
14.03
11.97
9.95
8.07
6.27
4.30
1.94
-0.93
-4.25
-7.84
-11.53
-15.21
-18.89
-22.41
-25.51
-27.71
-28.50
-27.60
-25.12
-21.46
-17.17
-12.71
-8.26
-3.77
0.85
5.56
10.15
14.21
17.39
19.51
20.69
21.26
21.61
22.01
22.46
22.76
22.68
22.07
21.05
19.86
18.79
17.93
17.20
16.36
15.16
13.52
11.48
9.13
6.63
4.08
1.55
-0.87
-3.18
-5.40
-7.61
-9.95
-12.45
-15.10
-17.79
-20.42
-22.97
-25.57
-28.33
-31.32
-34.40
-37.20
-39.24
-40.04
-39.24
-36.79
-32.95
-28.15
-22.92
-17.68
-12.61
-7.66
-2.73
2.26
7.14
11.61
15.29
17.93
19.49
20.15
20.13
19.66
18.91
17.98
17.00
16.06
15.22
14.47
13.74
12.91
11.91
10.75
9.47
8.11
6.62
4.92
2.96
0.73
-1.70
-4.22
-6.81
-9.47
-12.27
-15.29
-18.51
-21.82
-25.04
-28.00
-30.59
-32.72
-34.29
-35.14
-35.06
-33.85
-31.43
-27.89
-23.52
-18.70
-13.76
-8.90
-4.20
0.33
4.63
8.67
12.37
15.69
18.64
21.21
23.35
24.96
25.95
26.31
26.14
25.67
25.11
24.54
23.84
22.77
21.12
18.86
16.18
13.50
11.19
9.44
8.14
6.94
5.40
3.28
0.58
-2.52
-5.78
-9.00
-12.19
-15.40
-18.77
-22.36
-26.20
-30.23
-34.26
-37.98
-40.93
-42.56
-42.43
-40.30
-36.17
-30.35
-23.28
-15.44
-7.28
0.80
8.49
15.54
21.74
26.96
31.10
34.13
36.06
36.91
36.75
35.74
34.05
31.88
29.36
26.54
23.35
19.77
15.84
11.76
7.78
4.09
0.72
-2.47
-5.72
-9.13
-12.60
-15.86
-18.58
-20.55
-21.83
-22.64
-23.27
-23.99
-24.88
-25.95
-27.19
-28.61
-30.26
-32.16
-34.19
-36.09
-37.46
-37.87
-37.00
-34.84
-31.59
-27.63
-23.33
-18.85
-14.21
-9.29
-3.99
1.69
7.58
13.38
18.75
23.36
26.99
29.58
31.20
32.04
32.36
32.42
32.38
32.34
32.29
32.21
32.02
31.62
30.90
29.73
28.04
25.85
23.30
20.56
17.89
15.44
13.31
11.50
9.90
8.38
6.74
4.79
2.38
-0.52
-3.85
-7.48
-11.26
-15.07
-18.76
-22.16
-25.01
-27.01
-27.93
-27.64
-26.16
-23.64
-20.28
-16.26
-11.78
-7.08
-2.38
2.16
6.45
10.43
14.00
17.01
19.29
20.76
21.52
21.90
22.27
22.85
23.55
24.07
23.96
23.00
21.17
18.80
16.25
13.84
11.69
9.78
7.98
6.10
4.02
1.66
-0.93
-3.69
-6.49
-9.26
-11.93
-14.44
-16.84
-19.15
-21.45
-23.86
-26.53
-29.50
-32.66
-35.65
-37.95
-39.05
-38.57
-36.49
-33.09
-28.79
-23.96
-18.81
-13.38
-7.62
-1.58
4.58
10.55
15.95
20.49
24.01
26.48
28.00
28.73
28.90
28.72
28.34
27.86
27.27
26.56
25.69
24.70
23.67
22.64
21.63
20.59
19.38
17.91
16.12
14.00
11.62
9.13
6.61
4.19
1.86
-0.48
-2.97
-5.74
-8.81
-12.11
-15.48
-18.81
-22.09
-25.33
-28.47
-31.28
-33.37
-34.35
-34.00
-32.32
-29.51
-25.76
-21.17
-15.73
-9.44
-2.39
5.14
12.71
19.87
26.20
31.40
35.34
38.08
39.88
41.07
41.97
42.79
43.53
44.04
44.11
43.60
42.51
41.01
39.36
37.77
36.31
34.86
33.19
31.05
28.36
25.30
22.35
20.11
19.07
19.31
20.32
20.94
19.55
14.46
4.34
-11.34
-31.99
-55.93
-80.72
-103.65
-122.33
-135.19
-141.68
-142.23
-137.98
-130.38
-120.87
-110.64
-100.50
-90.73
-81.06
-70.71
-58.65
-43.95
-26.30
-6.23
14.85
35.17
53.24
68.53
81.67
94.23
108.05
124.43
143.52
164.06
183.67
199.54
209.22
211.33
205.94
194.35
178.60
160.53
141.04
119.77
95.37
66.06
30.52
-11.26
-57.57
-104.99
-148.92
-184.55
-208.01
-217.25
-212.58
-196.52
-173.05
-146.60
-121.01
-98.94
-81.72
-69.63
-62.23
-58.64
-57.64
-57.82
-57.76
-56.38
-53.22
-48.53
-43.03
-37.54
-32.54
-27.99
-23.46
-18.42
-12.56
-5.99
0.83
7.32
12.97
17.56
21.15
23.99
26.42
28.64
30.73
32.54
33.87
34.57
34.65
34.30
33.76
33.21
32.69
32.15
31.52
30.78
29.98
29.16
28.30
27.23
25.75
23.69
21.05
18.00
14.78
11.61
8.57
5.70
3.07
0.75
-1.20
-2.78
-4.14
-5.55
-7.25
-9.29
-11.41
-13.04
-13.56
-12.51
-9.85
-5.88
-1.17
3.82
8.84
13.91
19.16
24.58
29.96
34.84
38.73
41.29
42.54
42.68
41.96
40.59
38.61
36.03
33.03
29.91
27.06
24.79
23.11
21.76
20.33
18.43
15.92
12.96
9.91
7.13
4.82
2.97
1.39
-0.16
-1.91
-3.98
-6.36
-8.98
-11.72
-14.42
-16.99
-19.39
-21.63
-23.88
-26.24
-28.73
-31.22
-33.39
-34.91
-35.53
-35.14
-33.77
-31.58
-28.72
-25.32
-21.47
-17.28
-12.85
-8.35
-3.94
0.26
4.12
7.55
10.45
12.70
14.22
14.97
14.99
14.46
13.62
12.73
11.94
11.30
10.72
10.12
9.42
8.63
7.81
6.93
5.87
4.50
2.70
0.53
-1.82
-4.13
-6.21
-8.07
-9.79
-11.56
-13.46
-15.49
-17.56
-19.61
-21.62
-23.62
-25.56
-27.28
-28.42
-28.66
-27.75
-25.69
-22.67
-19.05
-15.15
-11.22
-7.38
-3.67
-0.20
2.84
5.28
7.00
8.06
8.64
9.01
9.39
9.86
10.40
10.88
11.16
11.19
10.97
10.54
9.97
9.24
8.28
7.03
5.43
3.52
1.37
-0.89
-3.17
-5.43
-7.77
-10.27
-13.00
-15.90
-18.83
-21.66
-24.28
-26.62
-28.68
-30.45
-31.84
-32.65
-32.69
-31.76
-29.81
-26.93
-23.30
-19.11
-14.47
-9.41
-3.97
1.68
7.22
12.19
16.14
18.82
20.27
20.77
20.71
20.36
19.83
19.13
18.24
17.25
16.30
15.51
14.89
14.28
13.45
12.18
10.41
8.24
5.80
3.26
0.66
-1.96
-4.60
-7.25
-9.90
-12.64
-15.58
-18.86
-22.49
-26.28
-29.88
-32.88
-34.96
-35.91
-35.69
-34.30
-31.71
-27.89
-22.86
-16.77
-10.01
-3.04
3.69
9.87
15.27
19.81
23.43
26.06
27.69
28.41
28.41
27.96
27.29
26.46
25.44
24.18
22.69
21.09
19.55
18.14
16.76
15.20
13.24
10.81
7.96
4.89
1.77
-1.31
-4.36
-7.45
-10.68
-14.11
-17.78
-21.72
-25.83
-29.91
-33.59
-36.45
-38.10
-38.34
-37.20
-34.83
-31.44
-27.22
-22.26
-16.69
-10.64
-4.29
2.16
8.48
14.45
19.85
24.48
28.16
30.78
32.34
32.95
32.88
32.41
31.81
31.29
30.96
30.78
30.53
29.98
28.86
27.09
24.74
22.02
19.14
16.25
13.38
10.43
7.32
4.03
0.64
-2.75
-6.03
-9.22
-12.46
-15.90
-19.62
-23.56
-27.54
-31.36
-34.80
-37.71
-40.00
-41.58
-42.35
-42.23
-41.09
-38.84
-35.38
-30.67
-24.72
-17.70
-9.97
-1.97
5.82
13.02
19.38
24.82
29.29
32.73
35.10
36.46
36.98
36.99
36.78
36.57
36.37
35.99
35.23
33.94
32.12
29.90
27.46
24.99
22.62
20.40
18.33
16.31
14.18
11.70
8.68
5.10
1.12
-2.93
-6.74
-10.17
-13.31
-16.38
-19.64
-23.18
-26.91
-30.62
-34.13
-37.37
-40.28
-42.76
-44.63
-45.59
-45.36
-43.74
-40.75
-36.55
-31.39
-25.50
-19.08
-12.29
-5.32
1.63
8.30
14.44
19.81
24.24
27.62
29.91
31.13
31.42
31.03
30.30
29.54
28.97
28.56
28.13
27.40
26.25
24.73
23.05
21.38
19.80
18.16
16.20
13.75
10.82
7.63
4.51
1.68
-0.77
-2.96
-5.11
-7.45
-10.18
-13.40
-17.08
-21.06
-25.00
-28.52
-31.21
-32.74
-32.93
-31.77
-29.40
-26.05
-21.93
-17.23
-12.09
-6.70
-1.27
3.92
8.69
12.92
16.59
19.72
22.31
24.35
25.80
26.65
26.93
26.75
26.19
25.36
24.28
23.00
21.54
20.01
18.49
17.02
15.63
14.26
12.87
11.37
9.68
7.69
5.35
2.65
-0.40
-3.79
-7.45
-11.29
-15.17
-18.85
-22.16
-24.96
-27.35
-29.52
-31.69
-33.90
-35.87
-37.15
-37.30
-36.06
-33.50
-29.96
-25.83
-21.39
-16.74
-11.75
-6.32
-0.41
5.81
12.02
17.83
22.90
27.03
30.14
32.29
33.55
34.03
33.80
32.99
31.75
30.31
28.87
27.55
26.35
25.10
23.60
21.68
19.32
16.70
14.10
11.79
9.87
8.21
6.47
4.26
1.30
-2.51
-7.08
-12.16
-17.52
-22.97
-28.43
-33.85
-39.25
-44.60
-49.83
-54.67
-58.78
-61.80
-63.53
-64.02
-63.49
-62.26
-60.48
-58.10
-54.92
-50.76
-45.58
-39.53
-32.83
-25.69
-18.31
-10.95
-3.94
2.32
7.55
11.69
14.91
17.51
19.74
21.62
23.11
24.11
24.70
25.10
25.57
26.25
27.11
27.95
28.55
28.81
28.75
28.45
28.00
27.40
26.61
25.55
24.17
22.51
20.63
18.57
16.37
13.97
11.24
8.07
4.40
0.26
-4.18
-8.71
-13.09
-17.09
-20.53
-23.20
-24.84
-25.21
-24.17
-21.74
-18.23
-14.11
-10.00
-6.46
-3.81
-2.14
-1.23
-0.65
0.11
1.53
3.90
7.29
11.46
16.01
20.41
24.19
27.12
29.28
31.06
33.04
35.67
38.97
42.46
45.26
46.45
45.47
42.44
38.07
33.45
29.51
26.73
24.98
23.72
22.35
20.46
18.04
15.33
12.62
10.06
7.48
4.51
0.73
-4.25
-10.64
-18.54
-27.89
-38.44
-49.66
-60.86
-71.24
-80.28
-87.87
-94.25
-99.74
-104.40
-107.67
-108.59
-106.20
-99.96
-90.14
-77.77
-64.34
-51.35
-39.98
-30.73
-23.32
-16.72
-9.33
0.37
13.27
29.16
46.66
63.82
78.77
90.41
98.46
103.17
104.84
103.62
99.56
93.02
84.94
76.61
69.30
63.60
59.25
55.17
50.08
43.02
33.74
22.76
11.10
-0.12
-10.02
-18.17
-24.54
-29.34
-32.83
-35.18
-36.40
-36.51
-35.54
-33.66
-31.10
-28.04
-24.54
-20.55
-16.00
-10.91
-5.48
-0.04
5.02
9.37
12.83
15.34
16.95
17.76
17.90
17.56
16.94
16.27
15.68
15.27
14.97
14.68
14.29
13.71
12.93
12.07
11.33
10.89
10.88
11.25
11.78
12.12
11.95
11.03
9.33
6.99
4.23
1.35
-1.42
-3.96
-6.29
-8.58
-11.02
-13.81
-16.98
-20.31
-23.35
-25.46
-26.07
-24.76
-21.47
-16.51
-10.52
-4.35
1.09
5.09
7.30
7.76
7.06
6.18
6.34
8.69
13.97
22.22
32.70
44.11
54.91
63.87
70.38
74.49
76.69
77.53
77.20
75.52
72.09
66.70
59.52
51.22
42.71
34.83
28.10
22.59
18.10
14.19
10.09
4.74
-3.14
-14.42
-29.00
-45.51
-61.66
-75.13
-84.56
-89.95
-92.43
-93.37
-93.70
-93.61
-93.00
-91.93
-90.78
-90.02
-89.58
-88.50
-85.21
-78.28
-67.27
-52.91
-37.00
-21.61
-8.40
1.72
8.69
12.90
14.88
15.14
14.19
12.62
11.14
10.43
11.02
13.06
16.24
19.96
23.57
26.64
29.00
30.69
31.81
32.40
32.43
31.87
30.78
29.42
28.16
27.39
27.40
28.32
30.18
32.92
36.42
40.46
44.79
49.19
53.65
58.48
64.38
72.19
82.70
96.36
113.13
132.24
152.20
170.87
185.76
194.55
195.76
189.23
176.27
159.17
140.40
121.70
103.59
85.52
66.52
45.93
23.78
0.68
-22.45
-44.93
-66.62
-88.03
-110.21
-134.55
-162.52
-195.12
-232.27
-272.20
-311.45
-345.58
-370.34
-383.00
-382.77
-370.41
-347.34
-314.69
-273.03
-222.81
-165.11
-102.38
-38.68
20.85
70.98
107.57
128.56
134.36
127.73
113.18
95.91
80.61
70.59
67.28
70.39
78.30
88.69
99.14
107.63
112.92
114.64
113.28
109.91
105.83
102.36
100.49
100.80
103.27
107.30
111.73
115.02
115.55
111.97
103.54
90.36
73.42
54.25
34.51
15.56
-1.75
-17.01
-30.09
-40.81
-49.00
-54.56
-57.71
-59.07
-59.50
-59.87
-60.65
-61.81
-62.83
-63.05
-61.93
-59.43
-55.97
-52.35
-49.49
-48.00
-47.96
-48.85
-49.74
-49.70
-48.23
-45.58
-42.73
-41.06
-41.81
-45.51
-51.68
-58.91
-65.30
-69.11
-69.19
-65.23
-57.48
-46.50
-32.85
-17.04
0.31
18.38
36.13
52.39
66.00
75.76
80.51
79.14
70.93
56.07
35.88
12.84
-10.05
-30.02
-45.19
-54.90
-59.41
-59.49
-55.96
-49.53
-40.84
-30.72
-20.24
-10.64
-3.05
1.90
4.22
4.52
3.66
2.46
1.28
0.15
-1.15
-2.71
-4.34
-5.68
-6.31
-6.14
-5.37
-4.46
-3.87
-3.80
-4.12
-4.46
-4.33
-3.30
-1.14
2.14
6.28
10.85
15.38
19.53
23.26
26.78
30.53
34.84
39.81
45.10
50.12
54.13
56.58
57.21
55.99
53.08
48.62
42.69
35.35
26.72
16.99
6.48
-4.34
-15.02
-25.14
-34.45
-42.92
-50.75
-58.28
-65.91
-74.03
-82.97
-92.82
-103.27
-113.44
-121.90
-126.84
-126.60
-120.21
-107.73
-90.17
-69.18
-46.54
-23.83
-2.41
16.57
32.07
43.29
49.98
52.58
52.15
50.07
47.48
44.99
42.60
39.88
36.39
31.98
26.87
21.53
16.48
11.95
7.84
3.76
-0.82
-6.32
-12.90
-20.46
-28.64
-36.91
-44.63
-51.27
-56.44
-60.03
-62.13
-62.94
-62.57
-60.81
-57.20
-51.22
-42.64
-31.81
-19.68
-7.51
3.42
12.30
18.95
23.78
27.53
30.96
34.68
39.02
44.06
49.76
55.96
62.50
69.14
75.61
81.55
86.50
89.87
90.84
88.39
81.38
68.90
50.59
27.04
-0.11
-28.47
-55.42
-78.75
-97.04
-109.81
-117.22
-119.82
-118.15
-112.74
-104.15
-93.11
-80.55
-67.41
-54.44
-42.11
-30.50
-19.59
-9.28
0.32
8.91
16.09
21.46
24.81
26.10
25.59
23.73
21.07
18.13
15.28
12.73
10.50
8.60
7.09
6.21
6.27
7.57
10.18
13.95
18.45
23.26
28.04
32.77
37.59
42.66
47.92
52.94
57.00
59.24
58.96
55.95
50.56
43.63
36.27
29.57
24.30
20.80
19.00
18.55
19.02
20.05
21.41
22.90
24.37
25.66
26.72
27.73
29.16
31.58
35.41
40.52
46.08
50.82
53.41
53.12
50.04
45.07
39.47
34.39
30.57
28.23
27.33
27.74
29.36
31.99
35.22
38.43
40.86
41.88
41.07
38.37
33.89
27.91
20.84
13.20
5.68
-0.91
-5.82
-8.60
-9.20
-7.99
-5.65
-2.85
-0.05
2.65
5.40
8.53
12.20
16.37
20.68
24.63
27.67
29.49
30.01
29.35
27.79
25.61
23.06
20.34
17.65
15.16
12.95
10.98
9.03
6.84
4.27
1.33
-1.83
-5.05
-8.50
-12.63
-17.98
-24.82
-32.80
-40.85
-47.54
-51.66
-52.70
-50.97
-47.36
-42.86
-38.12
-33.30
-28.25
-22.88
-17.29
-11.84
-6.95
-2.84
0.47
3.13
5.33
7.10
8.31
8.79
8.46
7.47
6.25
5.37
5.26
6.06
7.46
8.92
9.89
10.13
9.74
9.03
8.27
7.46
6.34
4.63
2.20
-0.86
-4.24
-7.70
-11.07
-14.18
-16.72
-18.12
-17.70
-14.92
-9.75
-2.76
4.98
12.26
18.14
22.21
24.52
25.42
25.30
24.42
22.95
21.06
18.97
16.99
15.38
14.14
13.02
11.51
9.13
5.66
1.24
-3.69
-8.63
-13.13
-16.90
-19.86
-22.01
-23.42
-24.20
-24.55
-24.69
-24.88
-25.41
-26.55
-28.45
-31.04
-33.97
-36.66
-38.40
-38.68
-37.41
-34.98
-32.14
-29.59
-27.63
-25.99
-23.94
-20.71
-15.86
-9.62
-2.85
3.35
7.91
10.26
10.33
8.47
5.35
1.81
-1.11
-2.31
-0.92
3.25
9.44
16.07
21.27
23.56
22.38
18.24
12.35
6.07
0.44
-4.06
-7.45
-10.18
-12.84
-16.02
-20.01
-24.62
-29.17
-32.61
-33.88
-32.35
-27.96
-21.15
-12.73
-3.63
5.23
13.08
19.30
23.61
26.01
26.86
26.66
25.98
25.18
24.45
23.69
22.75
21.48
19.91
18.28
16.91
16.12
15.99
16.34
16.74
16.72
15.93
14.29
11.95
9.21
6.41
3.77
1.42
-0.63
-2.43
-4.08
-5.67
-7.27
-8.77
-9.87
-10.18
-9.29
-6.99
-3.39
1.08
5.81
10.18
13.80
16.49
18.28
19.23
19.42
18.89
17.80
16.45
15.28
14.65
14.69
15.16
15.53
15.26
13.95
11.56
8.29
4.52
0.63
-3.07
-6.39
-9.23
-11.59
-13.57
-15.36
-17.16
-19.11
-21.18
-23.18
-24.86
-25.95
-26.30
-25.87
-24.77
-23.11
-20.96
-18.32
-15.14
-11.39
-7.16
-2.73
1.49
5.01
7.44
8.60
8.56
7.53
5.88
3.95
2.10
0.60
-0.38
-0.88
-1.11
-1.41
-2.08
-3.26
-4.84
-6.54
-8.03
-9.16
-10.03
-10.96
-12.28
-14.26
-16.89
-19.87
-22.78
-25.09
-26.38
-26.48
-25.44
-23.50
-21.08
-18.45
-15.80
-13.07
-10.10
-6.78
-3.15
0.53
3.94
6.79
8.95
10.47
11.47
12.12
12.49
12.64
12.55
12.19
11.50
10.46
9.11
7.56
6.13
5.20
5.10
5.83
6.91
7.39
6.10
1.98
-5.39
-15.57
-27.24
-38.55
-47.55
-52.83
-53.87
-51.07
-45.57
-38.88
-32.40
-27.14
-23.63
-21.94
-21.85
-23.06
-25.22
-28.13
-31.70
-36.03
-41.18
-47.13
-53.42
-59.15
-63.04
-63.75
-60.44
-53.18
-43.13
-32.25
-22.69
-16.08
-13.11
-13.37
-15.77
-18.99
-21.93
-23.95
-24.82
-24.68
-23.76
-22.35
-20.67
-18.78
-16.50
-13.32
-8.49
-1.21
8.94
21.70
36.02
50.41
63.54
74.83
84.76
94.48
105.17
117.41
131.00
145.17
159.19
172.80
186.15
199.46
212.42
224.09
233.19
238.82
240.98
240.78
239.96
240.12
242.04
245.30
248.58
250.15
248.30
241.60
228.97
209.72
183.59
150.94
112.64
69.87
23.63
-25.48
-76.74
-128.14
-175.66
-213.44
-235.58
-238.99
-225.52
-202.32
-179.82
-168.16
-173.72
-197.02
-232.65
-271.09
-301.55
-314.83
-305.26
-271.68
-217.13
-147.89
-71.89
2.82
69.41
122.92
160.53
181.47
186.79
179.14
162.31
140.55
117.87
97.37
80.80
68.38
58.63
48.72
35.19
15.07
-13.18
-49.22
-91.29
-137.18
-184.99
-233.50
-281.37
-326.25
-364.54
-392.18
-406.30
-406.72
-396.13
-378.91
-359.21
-339.19
-318.76
-296.45
-270.93
-242.11
-211.26
-180.21
-150.18
-121.18
-92.11
-61.57
-28.83
5.65
40.36
73.24
102.45
126.86
146.23
160.90
171.34
177.76
180.28
179.10
174.91
168.90
162.48
156.81
152.51
149.63
147.87
146.99
146.92
147.71
149.26
150.94
151.60
149.67
143.69
132.83
117.16
97.65
75.85
53.41
31.85
12.49
-3.61
-15.58
-22.89
-25.50
-23.89
-18.96
-11.83
-3.57
4.98
13.22
20.75
27.31
32.74
36.93
39.69
40.59
38.92
33.87
24.93
12.36
-2.59
-17.90
-31.39
-41.37
-47.05
-48.58
-46.65
-42.08
-35.37
-26.72
-16.32
-4.72
7.04
17.63
25.88
31.26
34.07
35.21
35.73
36.28
37.02
37.71
38.08
38.11
38.07
38.23
38.66
39.13
39.31
39.01
38.26
37.29
36.21
34.91
32.96
29.80
25.08
18.82
11.63
4.63
-0.86
-3.69
-3.25
0.28
6.01
12.70
19.17
24.70
29.16
32.82
35.91
38.37
39.66
39.01
35.62
28.97
18.91
5.79
-9.57
-25.82
-41.07
-53.25
-60.64
-62.50
-59.49
-53.34
-46.23
-39.82
-34.63
-29.90
-24.21
-16.32
-5.92
6.00
17.40
26.03
30.23
29.70
25.51
19.50
13.39
7.87
2.43
-4.05
-12.33
-22.05
-31.80
-39.96
-45.71
-49.38
-52.00
-54.49
-57.01
-59.17
-60.67
-61.97
-64.23
-68.38
-74.12
-79.62
-82.35
-80.56
-74.46
-66.34
-59.47
-56.54
-58.41
-63.87
-70.15
-73.98
-72.41
-63.54
-46.93
-23.87
2.72
28.81
50.35
64.45
70.19
68.60
61.90
52.37
41.78
31.28
21.79
14.28
9.62
8.00
8.43
8.90
6.99
1.06
-9.03
-21.82
-35.09
-46.81
-56.23
-63.95
-71.47
-80.22
-90.59
-101.43
-110.19
-113.64
-108.95
-94.71
-71.59
-42.41
-11.54
16.37
37.58
50.38
55.43
55.47
54.26
55.23
60.29
69.24
80.01
89.45
94.32
92.23
82.33
65.69
45.35
25.88
12.18
8.18
15.32
32.02
54.18
76.74
95.51
108.37
115.46
118.29
118.66
117.74
115.78
112.47
107.25
99.52
88.46
73.04
52.05
24.99
-7.05
-40.68
-70.43
-90.19
-95.33
-84.50
-60.18
-27.66
7.14
39.63
67.37
89.51
105.50
114.27
114.52
106.02
90.68
72.62
56.67
46.41
42.51
42.51
42.19
37.55
26.53
9.69
-10.15
-28.99
-42.77
-48.01
-42.16
-23.67
7.48
49.04
95.70
139.61
171.73
184.32
173.28
139.30
87.05
22.95
-46.85
-116.94
-181.76
-234.49
-267.71
-275.87
-258.91
-224.08
-184.51
-154.51
-144.17
-156.23
-186.43
-226.35
-266.79
-299.87
-319.33
-320.42
-300.33
-259.37
-201.56
-134.06
-65.13
-2.18
48.87
83.26
96.50
84.84
47.21
-12.70
-85.73
-159.27
-221.29
-263.85
-284.50
-285.20
-270.00
-242.76
-206.35
-163.34
-116.72
-70.12
-26.99
10.77
43.73
74.75
107.68
145.42
188.06
232.20
271.64
299.43
310.50
303.73
282.36
252.15
218.72
185.21
151.59
115.91
76.35
32.86
-12.55
-56.64
-96.39
-129.86
-156.41
-176.29
-190.26
-199.30
-204.16
-204.98
-200.84
-189.83
-169.60
-138.45
-96.26
-44.92
11.88
69.41
122.96
168.85
205.33
233.22
255.58
276.58
299.56
325.35
351.59
373.80
387.45
389.98
381.81
365.48
343.97
319.08
291.02
259.13
223.14
184.15
144.56
107.50
75.62
50.10
30.23
13.63
-2.79
-21.61
-43.60
-67.17
-88.90
-104.65
-111.18
-107.26
-94.20
-75.47
-56.05
-41.63
-37.65
-47.70
-71.80
-104.94
-137.31
-156.72
-152.84
-121.60
-67.71
-3.74
54.05
91.36
100.53
82.32
44.21
-3.42
-51.14
-92.90
-126.12
-150.37
-165.85
-172.85
-172.10
-165.57
-156.60
-148.69
-143.51
-139.27
-130.64
-110.57
-73.40
-17.76
52.00
126.53
194.29
245.13
273.33
278.91
266.63
243.41
215.12
184.43
150.48
110.70
63.56
10.73
-42.68
-90.07
-125.98
-147.91
-156.04
-151.53
-135.19
-107.87
-72.26
-34.34
-2.79
14.15
12.77
-3.77
-26.59
-45.28
-52.87
-48.58
-36.74
-23.40
-12.76
-5.58
-0.36
4.43
8.86
11.97
13.55
15.71
22.86
39.72
68.45
106.51
146.74
179.98
199.00
201.62
191.41
175.44
160.56
150.09
142.78
134.33
120.42
99.40
73.26
46.28
22.65
4.45
-9.11
-20.70
-33.20
-48.21
-65.91
-85.66
-106.85
-128.92
-150.62
-169.24
-180.79
-181.39
-169.25
-146.02
-116.61
-87.41
-63.84
-48.67
-41.65
-40.73
-43.56
-48.55
-54.86
-61.36
-65.55
-63.01
-48.27
-17.02
31.36
91.93
154.38
205.92
235.52
237.97
215.44
175.97
129.35
83.26
40.87
1.56
-36.49
-73.87
-109.16
-140.21
-166.01
-187.29
-205.55
-221.02
-231.46
-232.81
-221.51
-196.92
-162.45
-124.34
-89.14
-61.39
-42.55
-31.55
-26.12
-23.85
-22.32
-18.71
-9.58
8.26
35.93
70.70
105.60
131.30
139.37
126.20
94.84
54.03
14.49
-15.37
-32.40
-38.64
-38.71
-36.56
-33.45
-28.27
-19.65
-7.84
4.66
14.16
17.73
14.65
6.79
-2.40
-9.47
-12.44
-11.51
-8.63
-6.48
-7.23
-11.72
-19.29
-28.26
-36.66
-42.98
-46.65
-47.95
-47.71
-46.70
-45.18
-42.82
-39.00
-33.31
-25.92
-17.69
-9.86
-3.53
0.77
3.27
4.73
6.05
7.97
10.81
14.41
18.27
21.67
23.93
24.68
24.07
22.82
22.04
22.85
25.85
30.82
36.56
41.30
43.22
41.04
34.41
24.05
11.47
-1.39
-12.63
-20.86
-25.41
-26.48
-25.08
-22.76
-21.18
-21.54
-24.13
-28.21
-32.37
-35.16
-35.75
-34.29
-31.65
-28.95
-26.89
-25.52
-24.37
-22.86
-20.64
-17.78
-14.59
-11.32
-7.99
-4.48
-0.65
3.38
7.22
10.36
12.43
13.43
13.68
13.61
13.43
13.02
11.99
10.00
7.06
3.63
0.45
-1.78
-2.79
-2.78
-2.24
-1.61
-1.01
-0.23
1.07
3.01
5.38
7.64
9.12
9.36
8.26
6.13
3.58
1.33
-0.06
-0.25
0.78
2.79
5.43
8.33
11.17
13.73
15.83
17.29
17.91
17.55
16.16
13.93
11.22
8.48
6.16
4.53
3.62
3.28
3.34
3.71
4.45
5.71
7.53
9.80
12.16
14.18
15.58
16.26
16.35
16.07
15.66
15.17
14.65
14.06
13.45
12.87
12.28
11.47
10.15
8.06
5.08
1.48
-2.25
-5.44
-7.53
-8.23
-7.64
-6.18
-4.41
-2.81
-1.49
-0.24
1.37
3.78
7.04
10.75
14.12
16.23
16.33
14.04
9.40
2.81
-5.13
-13.65
-21.88
-28.88
-33.82
-36.16
-35.81
-33.11
-28.69
-23.15
-16.91
-10.21
-3.25
3.68
10.14
15.68
19.99
23.00
24.78
25.32
24.46
21.95
17.64
11.75
4.94
-1.88
-7.85
-12.39
-15.34
-16.91
-17.52
-17.62
-17.56
-17.51
-17.53
-17.54
-17.40
-17.01
-16.30
-15.30
-13.96
-12.25
-10.14
-7.77
-5.44
-3.57
-2.55
-2.51
-3.20
-4.14
-4.81
-4.81
-4.09
-2.82
-1.43
-0.34
0.10
-0.23
-1.22
-2.61
-3.98
-5.04
-5.70
-6.15
-6.82
-8.18
-10.47
-13.62
-17.24
-20.70
-23.47
-25.11
-25.50
-24.70
-22.90
-20.29
-17.04
-13.20
-8.82
-4.00
1.08
6.16
10.81
14.65
17.38
18.89
19.28
18.77
17.62
16.08
14.33
12.55
11.00
10.00
9.75
10.22
11.01
11.39
10.60
8.11
3.84
-1.64
-7.37
-12.28
-15.58
-17.10
-17.19
-16.64
-16.29
-16.76
-18.25
-20.54
-23.08
-25.19
-26.30
-26.21
-25.17
-23.79
-22.82
-22.76
-23.60
-24.75
-25.29
-24.29
-21.34
-16.70
-11.27
-6.19
-2.33
0.20
2.18
5.11
10.68
19.99
33.12
49.01
65.94
82.36
97.52
111.74
125.89
140.71
155.98
170.39
181.74
187.72
186.61
177.94
162.86
144.14
125.94
113.00
109.43
117.22
135.29
159.34
182.85
199.08
202.78
191.51
165.68
127.83
81.41
30.02
-22.94
-74.36
-121.49
-162.36
-196.42
-225.09
-251.44
-278.94
-309.71
-342.83
-374.16
-397.36
-406.21
-396.80
-368.85
-325.65
-272.93
-217.40
-165.23
-121.19
-88.16
-67.01
-56.92
-55.82
-60.96
-69.32
-77.89
-83.75
-84.32
-77.74
-63.53
-42.82
-18.12
7.57
31.59
52.28
68.97
81.72
91.06
97.91
103.42
108.75
114.56
120.78
126.60
130.83
132.42
130.77
125.76
117.57
106.61
93.63
79.97
67.29
57.22
50.58
47.03
45.20
43.41
40.43
36.08
31.15
26.80
24.03
23.20
24.05
25.94
28.17
30.28
31.99
33.19
33.76
33.49
32.14
29.56
25.77
21.15
16.24
11.58
7.50
3.92
0.52
-3.13
-7.16
-11.22
-14.63
-16.60
-16.64
-14.82
-11.67
-7.94
-4.33
-1.22
1.38
3.69
5.98
8.35
10.71
12.73
13.96
14.06
12.95
10.89
8.42
6.12
4.38
3.31
2.72
2.33
1.93
1.48
1.03
0.61
0.08
-0.88
-2.65
-5.48
-9.32
-13.80
-18.25
-22.04
-24.78
-26.55
-27.88
-29.60
-32.43
-36.66
-41.88
-47.01
-50.53
-50.95
-47.15
-38.72
-26.01
-10.00
7.80
25.81
42.52
56.90
68.55
77.74
85.21
91.74
97.67
102.62
105.74
106.19
103.75
99.15
93.82
89.10
85.57
82.69
79.09
73.39
65.07
54.92
44.84
36.98
32.76
32.25
34.15
36.48
37.53
36.61
34.10
31.00
28.05
25.17
21.47
15.96
8.31
-0.87
-10.49
-19.72
-28.57
-37.55
-46.81
-55.30
-60.59
-59.86
-51.24
-34.80
-12.47
12.80
37.99
60.54
78.05
88.04
88.28
77.94
58.64
34.84
12.91
-1.07
-3.62
4.82
20.09
35.76
45.25
43.61
28.73
1.83
-33.03
-70.17
-104.07
-131.09
-150.71
-165.42
-179.44
-196.77
-219.28
-245.81
-272.59
-294.66
-307.57
-308.87
-298.40
-277.60
-248.70
-213.71
-174.31
-132.06
-88.93
-47.45
-10.31
20.57
44.71
63.04
77.36
89.31
99.89
109.29
117.39
124.23
130.21
135.90
141.71
147.65
153.34
158.19
161.65
163.28
162.89
160.53
156.60
151.70
146.61
141.72
136.88
131.29
123.75
113.14
98.85
81.16
61.14
40.48
20.98
4.21
-8.91
-18.19
-24.09
-27.41
-29.01
-29.60
-29.62
-29.26
-28.64
-27.81
-26.79
-25.49
-23.70
-21.18
-17.79
-13.61
-8.86
-3.69
1.97
8.40
15.86
24.22
32.72
40.05
44.82
46.12
43.94
39.31
33.96
29.82
28.38
30.34
35.52
42.97
51.33
59.22
65.62
70.03
72.48
73.34
73.05
71.88
69.78
66.46
61.42
54.20
44.50
32.40
18.45
3.54
-11.24
-25.05
-37.47
-48.58
-58.74
-68.26
-77.15
-85.15
-92.04
-97.93
-103.44
-109.48
-116.74
-125.21
-133.96
-141.43
-145.99
-146.63
-143.15
-136.23
-126.83
-115.71
-103.06
-88.60
-72.10
-53.84
-34.92
-16.94
-1.36
11.15
21.03
29.56
38.22
48.02
58.98
70.00
79.21
84.48
83.98
76.55
62.05
41.57
17.42
-7.15
-28.84
-44.91
-53.90
-55.90
-52.48
-46.31
-40.42
-37.53
-39.48
-47.17
-60.30
-77.56
-97.00
-116.89
-136.30
-155.03
-173.00
-189.44
-203.15
-212.30
-215.15
-211.12
-201.49
-189.12
-176.65
-164.84
-152.04
-136.22
-115.40
-87.99
-52.85
-9.56
41.23
97.83
156.98
213.41
258.26
282.94
283.63
263.73
232.36
200.10
175.06
160.12
152.35
142.55
121.29
84.11
33.20
-25.54
-86.84
-147.72
-207.37
-249.87
-261.04
-238.09
-192.22
-137.94
-84.18
-34.88
8.17
43.64
70.27
84.93
86.35
77.46
63.94
52.19
44.80
41.26
39.40
36.40
27.51
9.58
-16.93
-47.86
-77.41
-100.67
-114.00
-111.55
-86.73
-43.45
4.76
42.07
59.41
57.33
42.31
22.56
3.78
-12.54
-28.54
-45.91
-63.21
-77.04
-83.75
-82.07
-72.73
-58.19
-41.85
-26.78
-13.94
-1.63
13.63
36.14
64.67
98.44
135.87
174.08
208.68
234.56
247.06
243.22
222.65
187.78
144.08
97.91
54.88
19.13
-6.60
-20.60
-22.27
-12.65
5.15
26.78
47.25
62.70
71.80
75.97
78.31
81.64
86.76
91.97
94.36
90.88
79.59
60.31
34.63
5.44
-23.69
-49.18
-68.14
-78.84
-81.28
-76.99
-68.44
-58.12
-47.83
-38.60
-31.02
-25.56
-22.60
-22.02
-22.85
-23.37
-21.80
-17.21
-10.10
-2.27
4.03
7.07
6.26
2.32
-3.37
-9.57
-15.62
-21.52
-27.50
-33.48
-38.82
-42.57
-43.87
-42.45
-38.78
-33.73
-28.36
-23.42
-19.27
-15.88
-13.03
-10.45
-7.93
-5.47
-3.14
-1.14
0.38
1.47
2.32
3.22
4.32
5.53
6.45
6.70
6.09
4.85
3.48
2.53
2.21
2.35
2.47
2.14
1.24
0.00
-1.16
-1.87
-2.06
-1.94
-1.81
-1.89
-2.23
-2.64
-2.93
-2.95
-2.64
-1.96
-0.80
1.00
3.59
6.97
10.99
15.46
20.14
24.89
29.54
33.78
37.11
38.79
38.10
34.62
28.40
20.00
10.31
0.29
-9.29
-17.95
-25.49
-31.93
-37.28
-41.49
-44.40
-45.69
-45.07
-42.36
-37.78
-32.04
-26.33
-21.94
-19.86
-20.35
-22.79
-26.00
-28.79
-30.47
-31.04
-31.03
-31.06
-31.31
-31.46
-30.82
-28.74
-24.96
-19.64
-13.18
-5.95
2.08
11.26
21.87
33.84
46.49
58.75
69.38
77.29
81.36
80.16
71.71
53.71
24.63
-14.87
-60.91
-106.66
-144.04
-166.09
-168.91
-152.27
-119.05
-73.84
-21.64
32.92
85.57
132.37
169.88
196.01
210.62
215.02
211.32
201.74
188.40
173.22
158.01
144.06
132.73
125.14
121.13
119.10
116.61
111.46
102.29
88.76
70.79
49.24
25.59
0.57
-26.36
-56.14
-89.09
-124.61
-161.48
-198.93
-235.06
-266.06
-287.53
-295.36
-286.20
-258.39
-213.09
-151.27
-84.85
-31.29
-1.73
4.01
-6.33
-23.91
-42.39
-58.75
-72.45
-83.47
-92.52
-97.63
-96.75
-89.33
-76.29
-59.17
-39.32
-17.36
6.68
30.90
55.13
78.57
99.30
115.19
125.19
129.62
129.81
126.88
121.74
115.69
109.29
102.57
95.60
88.92
83.35
79.51
77.24
75.82
74.77
73.19
69.98
64.25
55.65
44.51
31.59
17.90
4.39
-7.81
-17.84
-25.26
-29.94
-32.03
-31.93
-30.25
-27.70
-25.02
-22.58
-20.55
-18.81
-17.04
-14.95
-12.41
-9.50
-6.55
-4.04
-2.32
-1.55
-1.58
-2.04
-2.39
-2.08
-0.62
2.28
6.74
12.69
19.97
28.24
37.05
45.79
53.88
60.85
66.50
70.97
74.57
77.63
80.14
81.62
81.06
77.22
68.97
55.68
37.47
15.23
-9.65
-35.64
-61.50
-86.45
-110.12
-132.33
-152.82
-171.22
-187.13
-200.19
-210.08
-216.36
-218.37
-215.44
-207.28
-194.47
-178.60
-161.85
-146.08
-132.04
-118.99
-105.21
-89.14
-70.36
-50.11
-30.89
-15.45
-5.69
-1.93
-2.86
-6.02
-8.78
-9.19
-6.67
-2.01
3.23
7.67
10.98
14.09
18.80
26.76
38.66
53.89
70.73
87.23
101.89
114.06
123.76
131.21
136.41
139.18
139.37
137.15
133.15
128.22
123.15
118.44
114.16
110.06
105.73
100.79
94.90
87.87
79.62
70.32
60.49
50.87
42.20
34.88
28.75
23.12
16.98
9.27
-0.97
-14.35
-30.96
-50.14
-70.52
-90.18
-107.06
-119.29
-125.37
-124.25
-115.37
-98.97
-76.30
-49.89
-23.17
0.47
18.53
29.97
34.90
33.84
27.54
17.60
7.48
2.45
7.69
25.51
53.39
84.78
112.28
131.68
144.10
154.59
168.43
187.30
207.98
224.43
231.25
226.83
213.47
195.47
176.48
157.96
139.37
119.37
97.19
73.32
49.22
26.80
7.56
-8.06
-20.46
-30.30
-38.20
-44.64
-50.10
-54.99
-59.25
-61.81
-60.71
-53.82
-39.99
-20.04
3.49
27.53
49.89
69.97
88.38
105.87
122.11
136.15
147.13
155.50
163.06
171.81
182.38
193.09
200.45
200.85
192.12
174.66
151.28
125.89
101.86
80.82
62.33
44.45
25.04
2.88
-22.08
-48.87
-76.23
-103.00
-128.02
-150.07
-168.27
-182.48
-193.75
-204.72
-218.85
-239.65
-269.43
-308.39
-354.11
-401.72
-444.79
-477.03
-494.37
-496.67
-488.12
-475.74
-466.39
-463.41
-464.96
-464.77
-455.06
-430.25
-389.29
-335.75
-275.68
-214.76
-156.28
-100.92
-47.70
4.30
54.80
102.06
143.40
176.09
198.42
210.25
213.12
209.54
202.05
192.12
179.92
164.80
146.21
124.65
101.86
80.30
62.18
48.62
39.29
32.84
27.77
23.10
18.79
15.72
15.15
18.03
24.45
33.42
43.15
51.72
57.73
60.71
61.02
59.27
55.82
50.66
43.53
34.35
23.61
12.36
2.02
-6.10
-11.23
-13.42
-13.44
-12.50
-11.83
-12.25
-14.06
-17.06
-20.89
-25.33
-30.43
-36.25
-42.68
-49.12
-54.57
-58.01
-58.87
-57.33
-54.34
-51.25
-49.35
-49.53
-52.10
-56.82
-63.01
-69.66
-75.50
-79.17
-79.43
-75.30
-66.19
-51.92
-32.63
-8.71
19.17
50.07
82.64
115.17
145.66
172.11
192.96
207.60
216.42
220.76
222.30
222.52
222.19
221.36
219.61
216.40
211.26
203.89
193.83
180.86
165.19
147.68
129.59
111.72
94.36
77.42
60.69
44.12
28.39
14.78
4.71
-0.85
-2.24
-0.64
2.46
5.83
8.25
9.14
8.66
7.64
7.54
9.07
12.73
18.76
26.96
35.15
41.37
45.17
48.00
53.05
60.81
70.17
79.02
85.10
84.22
74.53
58.17
39.89
25.85
15.13
4.06
-10.86
-31.29
-61.03
-101.19
-148.31
-194.78
-228.52
-245.74
-246.42
-234.37
-217.96
-214.18
-238.21
-295.74
-380.16
-472.58
-561.50
-639.72
-705.38
-717.26
-649.15
-507.27
-329.47
-186.45
-78.36
3.72
64.45
110.91
141.22
147.83
126.62
80.84
20.51
-37.41
-85.54
-107.61
-91.95
-39.27
31.66
96.13
137.52
152.68
152.19
143.73
133.57
124.24
114.67
100.58
78.97
51.08
22.04
0.13
-13.43
-20.45
-24.35
-28.48
-34.89
-44.31
-53.95
-59.04
-52.54
-33.64
-7.08
20.47
42.61
66.42
95.13
132.46
173.81
217.57
261.19
302.26
338.96
370.35
397.01
418.94
437.23
452.56
465.29
473.34
473.31
462.04
438.16
403.19
359.89
312.91
266.72
225.28
190.19
161.61
139.24
122.87
112.34
106.15
102.16
97.45
89.64
77.02
59.66
39.61
19.86
2.77
-11.49
-24.65
-39.36
-57.30
-78.56
-101.75
-125.21
-148.31
-171.44
-195.39
-219.97
-243.62
-264.23
-281.02
-295.59
-311.40
-331.81
-357.83
-387.36
-416.13
-439.77
-455.54
-462.62
-461.00
-450.18
-429.02
-396.37
-352.59
-300.14
-242.84
-184.12
-125.79
-67.71
-9.73
45.91
93.38
124.20
130.71
109.89
65.44
7.31
-51.48
-99.05
-127.86
-135.53
-123.71
-95.83
-55.44
-5.61
50.78
110.50
169.84
224.98
272.62
310.60
338.20
356.12
365.91
369.17
366.69
358.07
341.91
316.87
282.84
241.76
197.41
154.30
116.29
85.16
60.35
39.57
20.09
-0.23
-22.12
-44.68
-65.64
-81.93
-90.87
-91.43
-85.14
-75.95
-68.76
-66.90
-70.09
-74.20
-73.11
-62.09
-40.52
-12.45
15.58
37.81
51.90
59.19
62.78
65.04
66.18
64.88
59.91
51.62
42.22
34.65
31.06
31.66
35.02
38.92
41.67
42.70
42.58
42.44
43.02
43.97
43.58
39.30
28.74
10.98
-12.60
-38.65
-62.98
-82.23
-95.15
-102.79
-107.74
-112.89
-120.34
-130.85
-144.05
-158.78
-173.65
-187.32
-198.74
-207.26
-212.80
-215.70
-216.51
-215.93
-214.89
-214.60
-216.37
-221.09
-228.52
-237.02
-243.89
-245.97
-240.66
-226.39
-203.02
-171.78
-135.02
-95.84
-57.56
-23.02
5.95
28.93
46.79
61.05
73.17
84.19
94.62
104.76
114.88
125.44
136.94
149.74
163.74
178.32
192.55
205.74
217.71
229.02
240.74
253.93
268.77
283.82
296.14
302.22
299.27
286.21
264.00
234.92
202.23
168.88
136.49
105.20
74.53
44.31
14.90
-12.69
-37.57
-58.14
-72.75
-80.67
-82.14
-77.50
-66.74
-50.35
-29.91
-9.36
7.11
15.54
12.24
-4.84
-34.36
-71.61
-111.27
-149.40
-184.89
-215.82
-238.25
-247.16
-237.85
-207.17
-155.30
-87.53
-7.30
70.90
130.47
166.25
183.34
185.82
171.76
140.79
95.55
42.51
-10.30
-53.88
-81.80
-93.51
-93.67
-88.33
-81.61
-75.31
-69.41
-63.82
-57.63
-49.87
-40.86
-31.97
-24.26
-17.57
-11.57
-6.02
-1.39
2.41
6.02
9.73
13.55
17.61
22.59
28.89
36.50
44.73
53.06
61.16
68.66
75.15
80.39
84.56
87.89
90.61
92.83
94.79
96.69
98.43
99.58
99.52
97.57
92.91
84.54
71.30
52.12
26.38
-5.79
-43.26
-84.19
-126.32
-167.38
-205.24
-237.86
-263.16
-279.23
-284.82
-279.97
-266.30
-246.76
-224.93
-204.32
-187.73
-176.99
-172.65
-173.74
-177.57
-180.11
-176.84
-164.08
-140.38
-106.85
-66.65
-23.72
18.47
57.42
91.34
118.71
138.13
148.81
151.25
147.57
140.84
133.97
128.55
124.29
119.61
112.72
102.82
90.52
77.63
66.18
57.62
52.16
48.78
45.68
40.97
33.32
22.54
9.79
-2.56
-11.66
-15.36
-13.21
-6.75
1.01
6.93
9.12
7.69
4.48
2.21
3.32
9.15
19.68
33.73
49.40
64.62
77.69
87.74
95.07
101.00
107.37
115.63
126.05
137.44
147.25
152.22
149.07
135.38
110.65
76.90
38.66
1.85
-28.00
-47.60
-56.62
-57.18
-52.35
-44.61
-35.27
-24.71
-13.21
-1.28
10.59
22.59
35.88
52.04
72.04
95.13
118.77
139.45
154.13
161.21
161.02
155.30
146.48
136.95
128.70
123.41
122.40
126.43
135.16
146.77
158.03
165.16
165.05
156.24
139.29
116.16
89.21
60.27
30.48
0.73
-27.70
-52.87
-73.05
-87.99
-99.85
-113.00
-132.09
-159.50
-193.48
-228.24
-256.17
-271.50
-273.06
-264.88
-254.21
-247.74
-248.58
-255.25
-263.12
-267.22
-264.44
-254.18
-237.30
-214.76
-186.86
-154.02
-117.98
-82.56
-52.92
-33.72
-26.95
-31.07
-41.63
-53.14
-61.16
-63.46
-59.96
-51.64
-39.44
-23.70
-4.63
17.00
39.44
60.15
76.71
87.55
92.33
91.41
85.04
72.81
54.26
30.12
3.45
-20.48
-36.08
-39.57
-30.57
-12.03
11.23
34.60
55.23
72.33
86.47
98.16
107.95
117.12
128.34
144.99
169.39
201.37
237.69
273.20
301.73
318.36
320.81
309.74
287.78
258.36
225.24
192.36
163.45
140.12
121.39
104.12
84.28
58.40
24.73
-15.98
-60.99
-100.73
-124.36
-126.90
-111.48
-84.99
-53.19
-19.38
14.94
48.97
81.90
110.85
134.54
152.29
164.35
172.07
177.03
180.32
182.31
182.61
179.41
169.94
155.34
136.88
116.53
96.22
77.38
60.76
46.59
34.25
23.02
12.46
2.42
-6.64
-14.10
-19.51
-22.76
-24.02
-23.90
-23.09
-22.17
-21.77
-22.13
-23.36
-25.55
-28.93
-33.75
-40.29
-48.55
-58.07
-68.05
-77.14
-83.76
-86.65
-85.24
-80.01
-72.40
-64.49
-58.40
-55.82
-57.46
-63.10
-71.94
-83.21
-96.60
-112.44
-131.42
-154.08
-180.29
-209.03
-238.86
-268.33
-296.67
-324.12
-351.77
-381.18
-414.12
-452.33
-497.14
-548.52
-603.94
-657.64
-701.39
-726.73
-728.06
-705.06
-663.06
-610.92
-557.67
-509.57
-468.85
-434.69
-405.08
-378.57
-354.68
-333.20
-313.45
-293.84
-272.56
-248.39
-221.49
-193.27
-165.96
-141.48
-120.77
-103.48
-88.28
-73.52
-57.97
-41.25
-23.90
-6.97
8.57
22.28
34.40
45.72
57.17
69.44
82.71
96.63
110.51
123.64
135.52
145.98
155.16
163.39
171.00
178.13
184.69
190.30
194.46
196.61
196.42
193.86
189.38
183.74
177.88
172.59
168.33
165.03
162.33
159.76
157.14
154.83
153.74
154.97
159.45
167.47
178.51
191.51
205.23
218.69
231.51
243.83
256.22
269.52
284.78
303.08
324.92
349.37
373.51
392.65
401.66
396.90
377.93
347.76
311.83
275.79
243.73
217.41
196.89
181.78
172.13
168.41
170.71
177.73
186.69
194.05
196.79
193.37
183.99
170.13
153.57
135.70
117.29
98.83
80.85
64.16
49.61
37.67
28.23
20.59
13.79
6.98
-0.44
-8.88
-18.63
-29.73
-41.82
-53.87
-64.35
-71.69
-74.78
-73.52
-68.80
-62.22
-55.46
-49.78
-45.78
-43.34
-41.96
-40.96
-39.79
-38.16
-36.09
-33.79
-31.67
-30.12
-29.56
-30.36
-32.87
-37.18
-42.97
-49.43
-55.47
-60.24
-63.56
-66.20
-69.45
-74.42
-81.25
-88.79
-95.07
-98.19
-97.18
-92.28
-84.65
-75.77
-66.85
-58.60
-51.26
-44.64
-38.02
-30.06
-18.88
-2.56
20.09
48.91
82.02
116.30
148.15
174.44
193.17
203.76
206.95
204.41
198.19
190.21
181.80
173.44
164.84
155.00
142.55
126.25
105.33
80.01
51.64
22.65
-4.07
-25.89
-41.31
-50.30
-54.16
-54.87
-54.31
-53.74
-53.72
-54.33
-55.50
-57.23
-59.53
-62.30
-65.20
-67.71
-69.33
-69.76
-68.96
-67.09
-64.40
-61.01
-56.90
-51.96
-46.05
-39.21
-31.67
-23.82
-16.10
-8.92
-2.51
3.09
8.01
12.38
16.25
19.58
22.21
24.02
24.94
25.05
24.53
23.61
22.56
21.52
20.60
19.78
18.99
18.12
17.10
15.95
14.72
13.59
12.65
11.94
11.44
11.04
10.62
10.07
9.33
8.42
7.44
6.47
5.59
4.76
3.87
2.77
1.42
-0.09
-1.49
-2.43
-2.63
-2.04
-0.81
0.72
2.23
3.56
4.70
5.81
7.02
8.35
9.67
10.77
11.44
11.59
11.25
10.48
9.42
8.20
6.85
5.45
4.08
2.77
1.56
0.44
-0.61
-1.60
-2.49
-3.23
-3.82
-4.34
-4.92
-5.69
-6.72
-7.99
-9.34
-10.63
-11.74
-12.65
-13.45
-14.23
-15.10
-16.13
-17.36
-18.77
-20.32
-21.89
-23.30
-24.37
-24.96
-24.97
-24.44
-23.45
-22.09
-20.41
-18.38
-15.98
-13.23
-10.26
-7.35
-4.80
-2.79
-1.35
-0.28
0.71
1.89
3.37
5.09
6.85
8.48
9.90
11.14
12.23
13.15
13.84
14.14
13.94
13.21
12.05
10.65
9.24
8.04
7.18
6.71
6.52
6.37
5.97
5.05
3.44
1.14
-1.69
-4.81
-8.01
-11.12
-14.05
-16.67
-18.80
-20.24
-20.76
-20.32
-18.99
-17.07
-14.93
-12.88
-11.04
-9.40
-7.82
-6.26
-4.79
-3.65
-3.14
-3.40
-4.38
-5.77
-7.14
-8.02
-8.07
-7.18
-5.47
-3.21
-0.74
1.56
3.38
4.46
4.76
4.35
3.46
2.40
1.51
0.98
0.90
1.18
1.60
1.93
2.00
1.71
1.13
0.44
-0.12
-0.29
0.13
1.18
2.76
4.64
6.55
8.26
9.59
10.42
10.71
10.44
9.62
8.35
6.82
5.30
4.10
3.50
3.71
4.87
6.99
9.97
13.59
17.58
21.66
25.54
29.01
31.99
34.53
36.85
39.16
41.61
44.14
46.45
48.02
48.31
46.91
43.78
39.29
34.09
28.92
24.31
20.45
17.21
14.25
11.31
8.33
5.58
3.49
2.53
3.00
4.90
7.99
11.85
15.97
19.86
23.09
25.28
26.15
25.58
23.65
20.67
17.09
13.22
8.97
3.59
-4.02
-14.86
-29.12
-45.79
-62.72
-77.22
-87.01
-90.89
-89.09
-82.90
-74.14
-64.51
-55.17
-46.70
-39.18
-32.45
-26.22
-20.24
-14.32
-8.41
-2.61
2.74
7.16
10.06
10.90
9.45
6.00
1.38
-3.18
-6.55
-8.17
-8.32
-8.03
-8.65
-11.15
-15.79
-22.08
-29.01
-35.54
-40.91
-44.76
-46.98
-47.68
-47.02
-45.36
-43.17
-40.99
-39.33
-38.43
-38.28
-38.61
-39.09
-39.34
-39.08
-38.20
-36.62
-34.32
-31.29
-27.50
-23.04
-18.14
-13.20
-8.65
-4.73
-1.43
1.51
4.41
7.49
10.66
13.65
16.10
17.75
18.42
17.99
16.41
13.67
10.01
5.77
1.36
-2.98
-7.26
-11.62
-16.05
-20.21
-23.47
-25.20
-25.10
-23.56
-21.45
-19.80
-19.34
-20.13
-21.68
-23.17
-23.90
-23.60
-22.51
-21.21
-20.44
-20.80
-22.58
-25.66
-29.48
-33.04
-35.26
-35.36
-33.28
-29.95
-27.09
-26.59
-29.66
-36.20
-44.54
-51.92
-55.50
-53.37
-45.29
-32.86
-18.90
-6.36
2.90
9.05
14.26
21.71
33.87
51.02
70.49
87.67
97.90
98.67
90.92
78.42
66.21
58.13
55.11
54.56
51.57
40.38
16.22
-23.09
-76.02
-136.76
-195.49
-240.23
-260.09
-248.95
-208.22
-146.94
-79.03
-18.71
23.97
45.69
49.68
43.19
34.39
29.72
32.66
43.73
61.17
81.60
101.10
116.08
124.05
123.68
114.63
97.11
71.81
40.08
4.33
-31.71
-63.28
-85.17
-92.70
-82.99
-56.06
-15.45
31.99
77.36
111.90
129.49
128.29
111.13
84.42
56.07
33.37
21.60
23.22
37.76
61.88
89.70
114.14
128.85
130.44
119.58
100.92
80.70
63.98
52.46
43.75
32.65
13.31
-18.13
-61.61
-112.39
-161.71
-198.68
-212.94
-197.80
-152.88
-85.57
-9.89
57.30
101.83
117.08
106.22
80.35
53.54
37.21
36.17
48.12
66.26
83.00
92.95
94.06
87.01
73.45
55.23
33.75
10.01
-15.27
-41.90
-70.44
-102.46
-139.95
-184.15
-233.79
-283.92
-326.20
-350.83
-349.71
-319.48
-263.35
-190.38
-112.83
-42.21
13.93
53.61
79.76
98.13
114.22
131.07
148.58
164.34
175.72
181.60
182.96
181.98
180.04
176.29
167.55
149.52
118.84
74.71
19.69
-40.60
-98.49
-146.09
-177.26
-189.29
-183.60
-164.99
-139.64
-112.77
-87.14
-63.13
-40.15
-18.29
1.03
15.39
22.76
22.73
16.86
7.84
-1.63
-9.99
-17.10
-23.83
-31.27
-40.04
-49.98
-60.15
-69.14
-75.54
-78.35
-77.39
-73.22
-66.88
-59.65
-52.72
-46.96
-42.62
-39.16
-35.31
-29.62
-20.87
-8.52
6.91
23.69
39.05
49.63
52.39
45.66
29.83
8.69
-10.59
-19.66
-12.81
9.74
41.25
71.37
90.88
94.68
84.62
68.38
55.23
51.14
56.34
66.83
77.89
86.96
92.26
93.85
93.61
94.19
97.34
102.84
108.97
113.49
113.98
105.19
82.29
43.42
-9.36
-71.60
-138.68
-206.47
-271.27
-311.66
-310.35
-266.07
-195.88
-120.86
-54.03
0.13
42.01
74.21
99.97
119.41
131.17
136.62
138.30
138.57
138.03
135.98
131.23
122.63
106.87
84.45
57.31
29.43
5.00
-13.60
-25.50
-31.07
-31.50
-30.15
-29.10
-30.00
-32.44
-34.76
-35.88
-34.99
-32.05
-27.76
-27.54
-30.45
-35.69
-40.94
-43.20
-40.59
-32.25
-19.05
-3.44
9.83
18.28
19.37
12.16
1.08
-13.70
-30.27
-44.21
-49.73
-48.93
-40.42
-27.83
-17.02
-14.13
-22.62
-40.12
-60.31
-67.58
-55.29
-23.29
20.53
67.66
111.15
147.49
176.86
200.16
218.63
230.19
234.02
228.62
215.24
194.07
164.83
129.34
91.58
55.82
24.39
-0.10
-23.08
-43.96
-64.22
-85.57
-108.67
-132.71
-156.20
-179.53
-194.42
-199.49
-195.31
-188.24
-184.76
-189.03
-201.89
-221.92
-247.62
-277.24
-310.22
-325.95
-309.86
-257.41
-178.31
-89.67
-6.82
60.86
110.99
145.14
168.82
183.98
191.23
188.38
171.95
139.53
92.78
39.68
-7.16
-34.15
-39.45
-27.22
-8.79
2.66
-1.25
-20.25
-45.68
-65.60
-67.12
-49.32
-18.85
14.27
42.46
63.73
80.01
94.29
107.67
118.94
125.04
124.36
117.76
106.41
92.65
77.76
61.58
42.43
17.65
-15.15
-54.83
-96.46
-132.09
-152.43
-152.36
-134.42
-109.08
-90.89
-91.10
-111.58
-144.01
-174.02
-186.46
-173.71
-138.22
-87.34
-33.75
11.99
45.41
67.98
83.98
99.61
118.53
141.30
166.43
191.92
217.33
242.75
267.54
278.19
264.65
223.87
161.95
89.59
16.55
-49.73
-104.55
-144.57
-171.08
-183.58
-182.04
-167.67
-142.82
-109.73
-68.85
-21.23
30.07
80.09
125.36
163.26
192.04
210.41
217.87
215.23
204.55
189.02
171.86
157.01
147.37
144.25
147.14
153.52
158.95
157.59
144.40
117.31
79.60
38.81
3.86
-18.70
-27.25
-25.10
-18.84
-14.03
-13.59
-17.36
-23.84
-32.01
-42.34
-55.63
-72.55
-92.61
-113.53
-132.14
-145.28
-151.37
-150.79
-145.87
-139.72
-135.28
-134.03
-135.54
-137.90
-138.79
-136.70
-131.49
-124.54
-117.90
-113.53
-112.54
-114.99
-120.33
-127.62
-135.19
-140.20
-138.93
-127.95
-106.06
-75.51
-41.77
-11.59
9.70
20.17
21.64
17.89
12.49
7.23
2.32
-2.54
-6.12
-6.03
0.22
13.86
33.80
56.85
79.30
97.93
111.73
121.68
129.68
137.40
145.53
153.22
158.27
157.93
149.38
130.53
100.64
60.55
12.99
-37.42
-85.22
-125.47
-154.84
-172.63
-180.45
-180.90
-174.48
-161.37
-139.17
-105.13
-59.02
-5.04
48.76
93.38
122.68
135.67
136.56
132.07
128.03
127.06
128.32
129.30
127.94
124.24
119.67
116.25
115.37
116.88
119.80
123.06
126.59
130.99
136.73
142.44
144.56
139.52
123.09
94.90
58.46
19.91
-14.81
-42.16
-62.03
-76.78
-89.23
-101.32
-113.08
-123.63
-131.90
-137.49
-140.50
-141.09
-139.36
-135.58
-130.79
-126.37
-124.16
-125.29
-130.09
-137.48
-145.29
-150.93
-152.23
-148.42
-139.83
-128.03
-115.03
-103.65
-96.05
-92.22
-89.44
-82.56
-66.15
-36.76
4.56
52.64
98.84
135.21
157.42
165.72
163.58
155.15
143.16
124.41
99.55
69.45
36.40
4.17
-23.17
-42.53
-53.60
-57.35
-55.55
-48.90
-37.72
-21.10
2.25
33.07
68.62
105.38
140.38
171.64
197.74
215.95
222.48
213.02
185.37
141.53
88.74
37.32
-3.28
-27.71
-36.59
-34.62
-28.28
-22.78
-20.49
-21.57
-25.63
-32.70
-43.60
-59.35
-80.14
-105.80
-134.44
-164.14
-192.92
-220.06
-245.56
-268.97
-290.69
-305.50
-307.52
-292.13
-258.53
-209.43
-151.38
-92.21
-38.26
7.38
44.84
75.15
99.26
117.06
129.67
138.69
147.02
158.17
174.42
195.61
218.21
237.34
239.50
218.24
173.23
111.04
43.84
-14.17
-50.56
-58.61
-38.89
1.43
52.77
105.05
150.80
186.53
212.35
230.71
244.77
257.78
273.00
295.05
327.56
371.52
423.31
474.38
513.41
530.07
518.96
481.65
426.41
363.96
303.53
250.20
204.60
164.60
127.63
92.12
57.94
25.99
-3.05
-28.93
-51.65
-71.07
-86.85
-98.47
-105.67
-108.68
-108.23
-105.49
-101.72
-97.95
-94.79
-92.56
-91.51
-92.08
-94.83
-100.26
-108.56
-119.37
-132.03
-145.61
-159.28
-172.82
-186.79
-202.48
-221.97
-247.63
-280.77
-320.41
-362.38
-400.18
-427.04
-438.50
-433.93
-416.47
-391.25
-363.14
-335.30
-309.01
-284.48
-261.79
-241.18
-222.63
-205.43
-188.36
-170.23
-150.74
-130.35
-109.64
-88.38
-65.34
-39.30
-10.23
19.96
47.80
69.62
83.81
91.72
97.08
103.86
113.79
125.39
135.02
139.36
137.63
132.08
126.30
122.39
118.52
110.04
92.61
65.16
31.30
-1.90
-26.63
-36.90
-29.77
-4.97
36.92
94.83
165.94
243.95
318.65
378.46
414.38
423.24
407.61
375.29
336.00
297.61
263.92
234.91
208.88
184.57
161.27
135.29
103.78
66.11
24.07
-19.59
-62.62
-103.04
-138.54
-168.40
-199.58
-237.21
-281.18
-326.37
-366.85
-398.98
-420.52
-428.35
-422.11
-413.53
-412.31
-420.66
-433.45
-444.30
-450.62
-452.22
-447.83
-440.15
-446.93
-480.78
-541.24
-616.66
-693.93
-766.52
-832.89
-891.57
-855.24
-682.18
-398.25
-79.66
205.63
429.64
593.42
692.83
755.75
798.58
814.67
798.07
753.72
693.59
639.19
599.23
575.13
567.35
570.76
567.42
545.61
509.24
468.87
433.46
405.97
385.76
372.67
362.94
341.65
299.71
245.68
189.15
134.92
84.26
36.59
-8.02
-51.49
-106.54
-180.52
-259.79
-335.70
-407.85
-476.75
-542.77
-604.98
-662.89
-727.02
-802.37
-869.88
-920.28
-955.53
-977.11
-985.60
-980.74
-895.11
-701.44
-513.60
-374.48
-264.48
-178.83
-111.35
-55.28
-5.67
37.69
60.47
51.69
48.81
70.96
116.80
176.84
238.21
290.40
326.65
337.45
321.22
297.62
276.89
259.21
244.30
229.71
218.04
212.25
210.36
210.45
221.20
243.55
272.86
306.10
337.41
363.28
381.91
391.33
390.02
383.17
372.26
356.38
335.42
310.52
284.15
258.09
238.16
220.54
204.03
186.40
165.30
139.31
108.97
75.92
37.12
-3.24
-42.54
-78.13
-108.61
-133.13
-151.29
-161.60
-163.82
-157.72
-143.12
-122.20
-96.63
-68.11
-38.02
-7.99
22.06
51.53
79.13
103.74
123.13
136.44
144.03
147.76
138.35
113.61
75.44
29.03
-19.23
-64.85
-104.78
-137.44
-161.89
-178.71
-187.87
-190.91
-190.36
-188.50
-186.94
-185.26
-182.95
-176.57
-163.82
-143.05
-115.11
-82.52
-47.89
-13.04
22.12
55.34
85.74
112.44
135.36
154.33
168.97
177.89
177.71
164.11
133.74
88.20
35.16
-12.90
-43.95
-52.07
-38.96
-15.81
4.82
13.70
8.16
-8.85
-32.30
-58.52
-86.70
-117.66
-151.83
-187.22
-220.05
-246.21
-262.59
-268.89
-267.02
-260.02
-250.28
-238.63
-223.79
-202.98
-176.72
-145.95
-113.07
-81.44
-54.45
-34.14
-21.18
-14.87
-13.95
-17.23
-23.49
-32.19
-43.25
-56.65
-71.70
-87.25
-101.86
-114.23
-123.48
-128.84
-130.14
-127.66
-122.00
-113.05
-100.89
-86.01
-69.52
-52.86
-37.21
-23.53
-12.57
-4.82
1.72
8.94
17.65
27.41
37.38
47.39
58.14
70.92
87.11
112.20
150.00
200.37
259.10
320.15
378.47
431.18
477.10
515.71
553.25
594.13
637.93
679.62
713.18
735.33
746.57
749.66
747.83
752.49
772.21
808.24
854.40
901.34
941.47
971.14
989.47
938.36
787.73
545.38
254.30
-33.49
-282.38
-479.02
-624.49
-726.81
-790.98
-822.04
-823.47
-801.38
-765.64
-726.58
-690.98
-659.53
-630.08
-602.52
-571.03
-531.62
-485.03
-436.05
-390.00
-349.58
-311.88
-272.97
-230.75
-182.19
-126.71
-66.99
-7.43
48.16
98.25
147.01
199.49
259.01
327.29
402.38
478.09
545.07
593.14
594.54
534.18
415.98
264.05
111.45
-16.27
-109.30
-171.07
-210.89
-237.39
-252.17
-254.50
-244.38
-225.15
-202.51
-182.08
-167.53
-160.47
-161.37
-166.64
-172.63
-176.05
-174.16
-164.56
-145.27
-115.78
-78.05
-36.64
4.11
39.18
63.97
75.29
72.47
58.18
37.23
15.02
-4.75
-18.65
-26.70
-31.48
-36.21
-42.07
-47.53
-50.48
-49.61
-45.53
-39.95
-36.22
-38.03
-47.87
-65.30
-86.03
-103.64
-110.14
-97.88
-61.64
-2.78
70.49
145.13
207.92
249.82
265.62
255.97
224.37
182.29
144.71
123.43
120.46
127.93
140.66
153.11
160.84
160.02
150.04
129.92
100.48
62.11
17.64
-27.90
-74.44
-123.29
-175.70
-231.16
-288.43
-344.05
-397.85
-449.18
-496.16
-543.14
-594.39
-651.83
-713.30
-774.64
-829.22
-876.17
-914.96
-910.33
-839.49
-699.35
-510.71
-305.78
-128.62
19.52
142.11
243.74
330.96
401.61
453.60
486.99
505.21
513.92
522.37
533.81
550.45
574.41
603.10
633.80
662.75
686.36
701.08
706.65
698.45
673.91
634.51
583.20
525.07
463.14
399.10
333.85
272.02
214.07
160.26
110.81
65.03
21.82
-22.70
-71.55
-124.60
-174.67
-217.29
-249.59
-271.20
-283.08
-271.58
-228.46
-156.35
-87.25
-30.22
13.25
50.70
83.60
111.68
133.75
145.99
145.52
132.35
112.70
90.98
70.15
51.14
34.81
21.65
9.87
-2.24
-15.02
-24.87
-30.30
-31.28
-29.37
-25.93
-22.19
-20.42
-22.39
-28.59
-36.71
-45.51
-54.44
-63.83
-73.72
-84.02
-95.07
-106.86
-118.78
-128.82
-135.61
-138.37
-137.09
-132.05
-123.76
-113.07
-100.81
-87.48
-73.10
-57.99
-43.02
-29.59
-19.45
-14.27
-15.22
-22.54
-35.49
-52.48
-71.71
-91.76
-112.03
-132.79
-154.71
-178.22
-202.98
-227.75
-250.85
-270.74
-286.75
-299.39
-310.23
-321.48
-335.80
-355.91
-384.02
-420.77
-463.91
-507.84
-544.40
-565.37
-565.48
-544.52
-507.49
-462.44
-417.36
-377.55
-344.86
-318.59
-297.23
-279.70
-265.43
-253.67
-242.82
-230.46
-214.29
-193.15
-167.53
-139.30
-110.84
-83.82
-58.60
-34.25
-9.25
17.54
46.21
75.65
104.14
130.13
153.13
173.85
193.72
214.12
235.51
257.39
278.80
299.14
318.52
337.38
355.64
372.38
386.44
397.49
406.54
415.20
423.56
429.05
427.23
414.61
391.73
363.83
338.47
321.04
311.56
304.73
293.42
273.34
245.99
218.07
198.14
192.54
203.16
227.26
258.46
288.75
309.64
313.89
297.45
260.85
209.53
152.55
99.80
59.10
34.27
24.13
22.70
21.18
10.83
-13.29
-49.65
-90.33
-124.20
-141.95
-140.62
-125.04
-105.67
-94.19
-99.01
-122.85
-162.47
-210.12
-255.49
-288.13
-299.99
-288.04
-256.48
-215.56
-178.10
-154.01
-145.89
-148.39
-151.54
-145.82
-126.25
-93.48
-52.12
-8.14
32.89
66.26
87.86
94.69
86.18
65.40
38.95
15.02
0.04
-3.68
1.94
12.99
26.84
43.76
66.13
95.86
132.07
170.47
205.19
231.71
248.81
258.23
262.74
263.36
258.52
245.35
222.27
191.23
158.04
130.56
115.70
116.60
131.37
153.81
175.66
189.40
190.65
179.30
158.77
134.09
109.71
87.81
67.96
48.09
25.84
-0.39
-31.41
-67.45
-108.20
-152.20
-196.05
-234.39
-261.23
-272.11
-266.01
-246.08
-218.66
-191.15
-169.87
-158.81
-159.19
-169.67
-186.85
-205.66
-220.29
-225.45
-217.66
-196.13
-162.88
-121.69
-76.97
-32.87
7.29
41.04
66.76
83.72
92.21
93.21
88.03
77.88
63.69
46.17
26.17
4.82
-16.69
-37.33
-56.33
-73.17
-87.25
-97.80
-103.86
-104.70
-100.09
-90.47
-76.72
-59.93
-41.14
-21.49
-2.40
14.40
27.06
34.31
35.87
32.61
26.18
18.33
10.33
2.70
-4.45
-11.07
-16.79
-21.00
-23.02
-22.41
-19.13
-13.49
-6.08
2.43
11.26
19.56
26.48
31.28
33.50
33.05
30.32
26.00
20.95
15.88
11.18
6.83
2.44
-2.47
-8.15
-14.43
-20.67
-25.97
-29.48
-30.75
-29.75
-26.88
-22.66
-17.57
-11.82
-5.49
1.45
8.96
16.85
24.90
32.84
40.21
46.06
48.72
46.05
36.16
18.49
-5.54
-32.60
-58.48
-79.53
-93.73
-100.95
-102.37
-99.44
-93.30
-84.70
-74.38
-63.53
-53.78
-46.85
-44.04
-45.83
-51.92
-61.42
-73.02
-85.36
-97.16
-107.50
-115.94
-122.69
-128.34
-133.61
-138.84
-143.72
-147.38
-148.79
-147.48
-144.16
-140.82
-140.23
-144.86
-155.88
-172.50
-192.13
-211.21
-226.18
-234.31
-234.08
-225.19
-208.48
-185.65
-158.93
-130.64
-102.80
-76.89
-53.89
-34.35
-18.36
-5.35
6.07
17.93
32.39
50.93
73.66
99.29
125.64
150.38
171.94
189.67
203.95
215.98
227.57
241.04
258.60
281.75
310.48
343.10
376.51
407.11
431.77
448.54
456.73
456.59
448.82
434.16
413.26
386.87
356.08
322.28
286.89
250.82
213.99
175.25
132.92
85.88
34.66
-17.99
-67.43
-108.66
-138.04
-154.63
-160.43
-159.30
-155.21
-150.87
-147.02
-142.94
-137.58
-130.54
-122.61
-115.41
-110.71
-109.52
-111.68
-115.76
-119.68
-121.39
-119.62
-114.34
-106.72
-99.02
-93.84
-93.44
-98.88
-109.43
-122.32
-133.08
-136.21
-126.21
-99.10
-53.96
5.83
72.32
134.15
179.45
199.61
192.30
162.69
121.25
80.04
48.91
32.92
31.93
41.94
57.38
72.99
85.36
92.24
92.73
87.72
80.01
73.49
71.83
77.24
89.36
105.72
121.17
129.60
127.13
114.28
96.18
80.72
75.36
83.80
105.04
132.08
154.67
164.37
157.90
137.49
108.96
78.73
45.67
14.03
-10.08
-23.10
-25.03
-17.62
-2.97
16.46
37.68
57.71
74.94
89.22
100.56
109.58
117.30
124.21
129.55
131.40
127.17
115.05
96.71
73.68
48.04
22.19
-1.97
-23.77
-43.74
-63.10
-82.39
-101.82
-121.35
-140.77
-159.07
-174.90
-187.56
-198.09
-209.77
-226.70
-252.05
-285.91
-325.02
-360.97
-382.11
-377.87
-343.05
-279.68
-195.61
-101.78
-9.90
65.50
113.37
129.21
116.16
83.22
42.44
5.95
-17.50
-25.19
-26.80
-33.63
-51.51
-78.74
-109.52
-138.31
-161.81
-179.31
-191.70
-208.90
-237.97
-278.78
-325.32
-371.91
-417.43
-464.26
-515.98
-524.78
-465.43
-348.35
-211.20
-86.96
11.54
84.92
138.86
179.00
210.09
226.93
226.19
211.10
190.57
173.67
164.41
163.62
165.78
171.24
173.04
166.09
151.14
134.11
121.54
115.47
115.40
118.77
122.61
119.20
102.62
70.95
25.47
-21.92
-65.91
-102.09
-125.70
-131.29
-117.97
-88.71
-50.00
-10.12
23.21
44.04
51.86
50.08
43.72
35.38
25.55
13.92
0.84
-12.11
-23.79
-32.83
-39.03
-43.34
-47.45
-52.67
-59.13
-65.78
-70.73
-73.51
-72.71
-68.32
-61.53
-54.01
-47.29
-42.30
-39.20
-37.64
-37.40
-38.23
-40.54
-45.22
-52.88
-63.41
-76.35
-90.95
-106.35
-121.87
-136.95
-151.64
-166.55
-181.98
-196.63
-209.43
-219.62
-226.66
-229.89
-228.11
-219.76
-206.93
-190.36
-167.25
-135.69
-95.36
-47.44
6.43
64.81
126.21
188.75
250.79
315.82
385.49
458.70
532.06
602.15
667.52
728.73
787.02
842.94
901.03
959.44
1009.78
1040.45
1042.87
1015.93
965.67
902.29
794.01
632.41
431.23
221.85
35.29
-110.95
-213.48
-278.50
-315.92
-335.97
-340.29
-331.48
-313.64
-292.33
-271.27
-253.21
-240.40
-233.95
-234.41
-236.64
-238.07
-238.78
-240.98
-246.72
-256.38
-271.42
-293.27
-324.30
-358.29
-392.29
-425.89
-461.09
-500.85
-532.86
-548.26
-542.50
-515.72
-468.35
-402.55
-322.53
-236.24
-154.12
-85.45
-37.49
-11.26
-2.41
-3.31
-8.03
-13.47
-19.22
-25.50
-31.48
-37.04
-41.29
-43.65
-43.96
-43.76
-43.38
-42.85
-41.57
-38.41
-33.40
-26.50
-18.34
-9.92
-2.55
2.78
5.52
5.85
4.58
2.05
-0.95
-4.20
-7.84
-12.22
-17.49
-23.48
-29.39
-33.63
-38.99
-46.14
-55.36
-66.75
-80.18
-95.19
-111.12
-127.10
-142.15
-155.38
-165.42
-171.42
-172.96
-170.02
-162.82
-151.91
-138.06
-122.27
-105.72
-89.11
-73.28
-59.01
-46.90
-37.26
-30.15
-25.37
-22.53
-21.19
-20.55
-20.02
-19.20
-17.82
-15.69
-12.74
-8.90
-4.20
1.13
6.80
12.28
16.86
19.82
20.65
19.23
15.87
11.23
6.12
1.41
-2.22
-4.32
-4.53
-2.53
2.06
9.67
20.59
34.77
51.65
70.20
89.16
107.35
124.08
139.25
153.41
167.53
182.86
200.86
222.97
249.97
281.23
314.04
343.90
365.86
376.39
374.78
363.16
345.14
323.66
299.61
271.89
238.92
200.38
158.17
116.00
78.02
47.50
26.30
15.05
13.46
20.25
32.84
47.25
59.17
65.38
65.24
61.14
57.50
58.90
68.27
85.71
108.66
132.93
153.99
168.08
172.94
167.90
153.73
131.97
104.38
72.43
37.17
-0.41
-38.72
-75.09
-105.88
-127.43
-137.18
-134.96
-123.29
-106.83
-91.01
-80.53
-77.95
-83.42
-95.15
-110.59
-127.49
-144.50
-161.09
-177.04
-191.86
-204.71
-214.75
-221.81
-226.78
-231.57
-238.40
-248.83
-263.19
-280.24
-298.29
-316.03
-332.86
-348.52
-362.55
-373.18
-377.97
-374.65
-361.81
-339.72
-310.15
-275.50
-237.73
-197.88
-155.57
-109.89
-60.17
-5.44
54.58
119.40
188.09
259.54
332.01
403.94
472.72
534.61
587.79
630.82
662.65
682.55
690.29
685.15
669.20
645.27
616.26
589.70
572.00
565.98
569.78
578.13
582.59
580.36
571.48
557.21
546.81
548.37
565.10
593.89
627.37
653.74
670.14
677.55
678.18
684.12
705.61
745.77
799.02
854.24
895.05
917.53
923.64
857.14
687.21
416.72
85.59
-248.84
-505.60
-685.72
-806.91
-886.68
-938.72
-969.68
-979.28
-969.08
-944.36
-911.87
-881.71
-852.70
-821.74
-788.48
-748.62
-700.19
-645.62
-590.76
-542.15
-508.11
-487.23
-474.98
-467.11
-455.82
-434.46
-400.32
-355.09
-303.46
-253.58
-208.94
-171.39
-142.10
-119.02
-98.54
-77.11
-52.25
-23.55
5.88
32.62
52.22
59.91
53.38
33.40
3.06
-33.13
-70.22
-103.61
-128.18
-139.93
-137.81
-125.10
-108.92
-98.02
-98.66
-111.13
-129.00
-141.84
-140.11
-119.72
-83.60
-39.82
2.20
35.57
57.50
68.68
71.19
67.14
58.22
46.06
32.94
21.45
14.14
12.41
15.88
22.46
29.11
32.95
32.28
27.05
18.78
9.83
2.43
-2.10
-3.80
-3.80
-3.70
-4.72
-7.09
-9.92
-11.63
-10.83
-7.05
-1.04
5.53
10.83
13.57
13.49
11.25
8.00
4.88
2.57
1.42
1.45
2.64
4.90
8.07
11.82
15.74
19.55
23.19
26.94
31.20
36.19
41.81
47.59
52.99
57.58
61.23
63.96
65.85
66.82
66.69
65.26
62.50
58.58
53.90
48.89
43.94
39.30
35.05
31.15
27.49
23.91
20.22
16.24
11.81
6.79
1.02
-5.64
-13.12
-21.14
-29.14
-36.38
-42.19
-46.14
-48.10
-48.12
-46.41
-43.12
-38.49
-32.89
-26.90
-21.25
-16.59
-13.33
-11.45
-10.54
-9.96
-9.09
-7.56
-5.34
-2.72
-0.11
2.05
3.53
4.29
4.38
3.88
2.81
1.16
-1.00
-3.44
-5.77
-7.54
-8.43
-8.42
-7.75
-6.86
-6.16
-5.90
-6.09
-6.60
-7.27
-8.02
-8.98
-10.34
-12.27
-14.79
-17.68
-20.58
-23.04
-24.70
-25.29
-24.78
-23.23
-20.85
-17.88
-14.53
-10.94
-7.18
-3.29
0.62
4.31
7.47
9.78
11.04
11.21
10.39
8.81
6.71
4.37
2.02
-0.06
-1.72
-2.85
-3.51
-3.88
-4.15
-4.45
-4.78
-5.05
-5.13
-4.97
-4.59
-4.05
-3.47
-2.94
-2.47
-2.11
-1.88
-1.90
-2.35
-3.41
-5.15
-7.49
-10.19
-12.94
-15.44
-17.44
-18.77
-19.31
-18.94
-17.58
-15.27
-12.18
-8.66
-5.08
-1.72
1.33
4.08
6.61
8.95
11.01
12.69
13.88
14.56
14.77
14.59
14.11
13.45
12.71
11.99
11.42
10.97
10.60
10.26
9.88
9.51
9.18
8.96
8.78
8.58
8.26
7.77
7.20
6.64
6.15
5.70
5.15
4.26
2.94
1.21
-0.76
-2.80
-4.82
-6.88
-9.03
-11.26
-13.33
-14.83
-15.32
-14.59
-12.76
-10.27
-7.63
-5.22
-3.11
-1.14
0.96
3.35
6.00
8.78
11.38
13.51
14.98
15.72
15.84
15.60
15.31
15.23
15.40
15.67
15.83
15.68
15.31
14.96
14.94
15.42
16.29
17.18
17.62
17.19
15.66
13.15
10.05
6.82
3.91
1.47
-0.63
-2.82
-5.70
-9.76
-15.09
-21.27
-27.40
-32.39
-35.25
-35.36
-32.59
-27.40
-20.79
-14.29
-9.71
-8.84
-12.72
-21.25
-32.80
-44.56
-53.48
-57.30
-55.28
-48.34
-38.39
-27.43
-16.93
-7.52
0.63
7.42
12.52
15.42
15.74
13.59
9.62
4.82
0.10
-4.03
-7.69
-11.32
-15.36
-19.86
-24.28
-27.71
-29.15
-27.96
-24.03
-17.88
-10.38
-2.54
4.82
11.29
16.82
21.60
25.82
29.48
32.38
34.28
35.13
35.25
35.30
36.07
38.21
41.92
47.17
53.83
61.98
71.80
83.40
96.49
110.29
123.73
135.82
145.99
154.16
160.54
165.09
167.29
166.25
161.14
151.86
139.33
125.33
111.85
100.35
91.12
83.33
75.43
65.75
53.07
36.70
16.22
-8.89
-39.15
-74.54
-113.62
-152.98
-187.56
-212.03
-222.71
-218.99
-203.75
-182.14
-159.58
-139.81
-124.24
-112.42
-103.10
-95.43
-89.08
-83.83
-78.89
-73.14
-65.84
-57.64
-50.74
-47.88
-50.80
-58.83
-68.86
-76.74
-79.25
-75.56
-67.34
-57.62
-49.09
-42.99
-38.99
-36.04
-33.26
-30.53
-28.24
-26.78
-26.06
-25.50
-24.43
-22.40
-19.61
-16.75
-14.68
-14.06
-14.95
-16.90
-19.09
-20.70
-21.10
-20.10
-17.88
-14.88
-11.64
-8.57
-5.87
-3.41
-0.88
2.09
5.73
9.96
14.51
19.02
23.24
27.09
30.56
33.63
36.16
37.97
38.87
38.80
37.83
36.12
33.89
31.30
28.56
25.93
23.66
22.01
21.10
20.86
21.03
21.30
21.37
21.07
20.34
19.23
17.90
16.50
15.16
13.94
12.76
11.46
9.81
7.61
4.77
1.39
-2.24
-5.68
-8.36
-9.83
-9.81
-8.36
-5.83
-2.73
0.44
3.37
5.93
8.20
10.28
12.21
13.97
15.51
16.85
18.10
19.39
20.80
22.36
23.91
25.23
26.05
26.24
25.77
24.81
23.60
22.39
21.28
20.28
19.35
18.39
17.38
16.25
14.89
13.19
11.08
8.61
5.97
3.44
1.22
-0.70
-2.48
-4.44
-6.71
-9.30
-12.03
-14.69
-17.03
-18.94
-20.38
-21.34
-21.86
-21.98
-21.83
-21.51
-21.13
-20.67
-20.02
-18.97
-17.36
-15.19
-12.68
-10.27
-8.46
-7.58
-7.67
-8.42
-9.27
-9.71
-9.57
-8.96
-8.28
-7.78
-7.52
-7.26
-6.67
-5.55
-4.00
-2.41
-1.23
-0.79
-1.23
-2.44
-4.21
-6.26
-8.31
-10.15
-11.66
-12.80
-13.67
-14.38
-15.08
-15.88
-16.80
-17.95
-19.40
-21.19
-23.23
-25.25
-26.86
-27.64
-27.28
-25.77
-23.44
-20.82
-18.47
-16.77
-15.87
-15.57
-15.62
-15.79
-15.96
-16.16
-16.31
-16.20
-15.49
-13.90
-11.44
-8.50
-5.64
-3.14
-0.80
2.15
6.58
12.82
20.39
28.00
34.13
37.69
38.49
37.11
34.52
31.50
28.29
24.76
20.70
16.24
11.83
8.17
5.74
4.66
4.64
5.25
6.08
6.98
7.99
9.29
11.02
13.18
15.61
18.16
20.68
23.17
25.75
28.45
31.25
33.93
36.15
37.54
37.75
36.51
33.63
29.15
23.33
16.92
11.01
6.77
4.93
5.46
7.49
9.67
10.86
10.46
8.59
5.73
2.17
-2.18
-7.66
-14.34
-21.63
-28.12
-32.17
-32.55
-29.15
-23.23
-16.78
-11.82
-9.55
-10.07
-12.55
-15.85
-19.00
-21.40
-22.69
-22.48
-20.27
-15.73
-9.02
-1.09
6.49
12.04
14.43
13.54
10.24
5.98
2.24
0.01
-0.31
1.02
3.38
5.96
8.00
8.97
8.69
7.44
5.86
4.68
4.47
5.32
6.89
8.52
9.54
9.50
8.30
6.07
3.12
-0.27
-3.85
-7.47
-10.88
-13.70
-15.42
-15.43
-13.38
-9.38
-4.18
0.99
4.67
5.63
3.40
-1.61
-8.14
-14.47
-18.95
-20.86
-20.89
-21.05
-24.12
-32.62
-48.02
-70.23
-97.63
-127.28
-155.45
-178.24
-192.25
-195.39
-187.33
-169.49
-144.43
-114.87
-82.66
-48.52
-12.61
24.22
59.43
89.05
109.22
118.46
118.99
116.19
116.35
123.62
137.89
154.97
168.82
174.70
171.29
160.77
146.89
132.63
118.77
104.33
88.09
70.07
51.98
36.29
24.84
17.84
13.84
10.64
6.53
1.06
-4.93
-9.96
-12.84
-13.21
-11.67
-9.43
-7.74
-7.55
-9.12
-12.12
-15.74
-19.04
-21.31
-22.36
-22.68
-23.13
-24.69
-27.86
-32.45
-37.58
-42.06
-44.83
-45.35
-43.67
-40.34
-36.07
-31.43
-26.76
-22.09
-17.33
-12.42
-7.38
-2.38
2.45
6.96
11.04
14.63
17.72
20.36
22.55
24.33
25.68
26.63
27.16
27.23
26.83
26.11
25.37
24.91
25.00
25.67
26.83
28.00
28.50
27.73
25.59
22.43
18.83
15.43
12.70
11.09
10.74
11.48
13.10
15.77
19.89
25.70
33.30
42.36
52.43
62.47
71.00
76.87
80.18
81.89
83.07
84.33
85.44
86.07
85.34
82.05
75.08
63.99
48.44
27.90
2.08
-30.15
-65.36
-96.80
-118.09
-129.19
-133.28
-133.59
-132.89
-132.44
-134.36
-140.90
-155.12
-180.62
-220.07
-272.86
-334.16
-395.17
-444.62
-472.31
-472.01
-444.37
-396.75
-339.93
-283.32
-232.14
-186.89
-145.05
-104.07
-62.97
-23.18
12.74
42.90
67.69
89.30
110.47
133.08
157.61
183.39
209.28
234.04
256.43
274.99
287.66
292.19
287.28
273.75
255.05
236.09
221.11
211.88
207.02
202.93
195.86
183.69
166.76
147.33
128.08
110.80
96.09
83.57
72.65
63.13
55.34
49.78
46.64
45.47
45.26
44.82
43.37
40.91
38.34
37.01
38.06
41.79
47.35
53.07
57.15
58.26
56.25
51.99
46.96
42.57
39.51
37.60
36.08
34.15
31.24
27.20
22.11
15.97
8.82
0.95
-7.06
-14.28
-19.80
-23.41
-25.64
-27.60
-30.32
-34.29
-39.37
-45.10
-51.07
-57.02
-62.59
-67.05
-69.38
-68.60
-64.42
-57.53
-49.39
-41.65
-35.50
-31.37
-29.02
-27.96
-27.76
-28.09
-28.76
-29.45
-29.76
-29.39
-28.24
-26.42
-24.28
-22.19
-20.41
-19.08
-18.14
-17.52
-17.12
-16.96
-17.10
-17.68
-18.74
-20.20
-21.82
-23.27
-24.19
-24.35
-23.65
-22.15
-19.98
-17.32
-14.30
-11.01
-7.51
-3.89
-0.26
3.25
6.50
9.39
11.80
13.67
14.91
15.43
15.21
14.24
12.67
10.76
8.79
6.99
5.43
4.00
2.48
0.70
-1.39
-3.64
-5.83
-7.84
-9.64
-11.36
-13.17
-15.23
-17.56
-20.12
-22.75
-25.25
-27.38
-28.91
-29.66
-29.50
-28.42
-26.46
-23.73
-20.37
-16.54
-12.48
-8.41
-4.58
-1.19
1.59
3.64
4.86
5.18
4.62
3.31
1.61
-0.04
-1.15
-1.33
-0.45
1.32
3.60
5.94
7.91
9.24
9.75
9.35
8.06
5.92
3.12
-0.07
-3.30
-6.24
-8.65
-10.42
-11.60
-12.32
-12.82
-13.37
-14.25
-15.62
-17.43
-19.41
-21.11
-22.05
-21.93
-20.76
-18.73
-16.19
-13.48
-10.76
-8.09
-5.46
-2.81
-0.12
2.59
5.31
8.00
10.61
13.08
15.33
17.25
18.77
19.85
20.50
20.84
20.96
20.94
20.84
20.65
20.36
19.99
19.53
18.93
18.11
16.91
15.23
13.09
10.55
7.79
4.95
2.12
-0.68
-3.44
-6.14
-8.75
-11.26
-13.71
-16.15
-18.52
-20.60
-22.05
-22.47
-21.54
-19.22
-15.69
-11.37
-6.72
-2.15
2.11
5.95
9.35
12.37
15.03
17.38
19.42
21.09
22.29
22.87
22.76
21.95
20.56
18.79
16.94
15.23
13.79
12.63
11.66
10.74
9.73
8.46
6.89
5.05
3.09
1.24
-0.31
-1.40
-1.97
-2.09
-2.00
-2.02
-2.53
-3.83
-6.02
-8.86
-11.82
-14.23
-15.46
-15.26
-13.75
-11.45
-8.92
-6.56
-4.41
-2.27
0.16
2.95
5.93
8.72
10.88
12.14
12.55
12.39
12.05
11.84
11.85
11.99
12.05
11.86
11.32
10.49
9.49
8.48
7.54
6.63
5.65
4.48
3.12
1.64
0.17
-1.21
-2.52
-3.85
-5.29
-6.87
-8.54
-10.20
-11.78
-13.32
-14.95
-16.82
-19.03
-21.52
-24.17
-26.69
-28.77
-30.03
-30.18
-29.04
-26.66
-23.32
-19.41
-15.35
-11.42
-7.74
-4.26
-0.89
2.47
5.82
9.09
12.09
14.64
16.57
17.77
18.22
18.00
17.27
16.19
15.01
13.90
13.07
12.62
12.50
12.51
12.32
11.59
10.14
8.10
5.77
3.63
1.95
0.77
-0.13
-1.10
-2.44
-4.26
-6.47
-8.84
-11.06
-12.95
-14.47
-15.74
-17.03
-18.63
-20.68
-23.05
-25.38
-27.10
-27.67
-26.77
-24.35
-20.73
-16.38
-11.71
-6.94
-1.98
3.44
9.56
16.31
23.29
29.70
34.81
38.18
40.02
41.13
42.57
45.16
49.08
53.85
58.50
62.18
64.48
65.55
65.98
66.42
67.41
69.28
72.09
75.60
79.05
81.08
79.89
73.73
61.52
43.31
20.23
-6.01
-33.87
-62.45
-91.43
-120.32
-147.62
-170.45
-185.32
-189.36
-181.74
-164.27
-140.97
-116.66
-95.10
-77.98
-64.80
-54.34
-45.49
-37.86
-31.66
-27.09
-23.90
-20.73
-16.04
-8.14
3.18
17.16
32.54
48.08
62.97
76.68
89.53
101.37
112.42
121.60
128.14
132.13
134.64
137.06
139.46
140.76
137.20
125.07
100.43
62.01
12.01
-44.52
-101.52
-154.23
-199.16
-236.25
-252.66
-237.82
-188.41
-112.30
-24.69
60.31
127.44
178.67
217.72
247.67
268.44
278.74
278.96
269.82
253.27
231.63
208.07
183.83
159.91
135.81
111.02
85.67
60.82
38.45
20.53
9.15
4.42
5.81
11.61
20.00
29.54
39.47
49.76
60.46
71.83
83.02
93.05
100.65
104.92
105.57
102.98
98.16
92.12
85.83
79.35
72.40
64.45
55.09
44.33
32.63
20.71
9.23
-1.53
-12.02
-23.02
-35.43
-49.74
-65.85
-83.08
-100.50
-117.24
-132.96
-147.94
-162.99
-179.16
-197.53
-218.94
-243.63
-270.78
-298.21
-322.46
-339.61
-346.57
-342.34
-328.54
-308.83
-287.41
-267.28
-249.31
-232.50
-215.04
-195.71
-174.51
-152.56
-131.26
-111.53
-93.37
-76.23
-59.56
-43.31
-28.11
-14.98
-4.74
2.51
7.37
11.01
14.61
18.79
23.53
28.23
32.20
34.84
35.60
33.78
28.62
19.67
7.47
-6.17
-18.65
-27.58
-31.92
-32.36
-30.82
-29.35
-28.99
-29.61
-30.48
-31.46
-33.47
-38.38
-48.04
-63.24
-83.34
-106.54
-130.78
-154.37
-176.58
-197.46
-217.33
-236.33
-253.97
-269.15
-280.20
-285.34
-282.99
-272.28
-253.30
-227.38
-196.89
-164.90
-134.63
-108.80
-89.32
-77.06
-72.03
-73.61
-80.64
-91.55
-104.39
-117.05
-127.47
-134.08
-136.08
-133.51
-127.08
-117.83
-106.78
-94.67
-82.01
-69.19
-56.65
-45.03
-35.17
-27.92
-23.82
-22.88
-24.46
-27.38
-30.19
-31.47
-30.13
-25.52
-17.37
-5.67
9.51
28.12
49.93
74.47
100.87
127.93
154.33
178.98
201.37
221.66
240.67
259.50
279.30
301.04
325.38
352.45
381.54
410.86
437.57
458.50
471.02
473.92
467.66
454.00
435.09
412.65
387.60
360.37
331.49
301.94
273.19
246.58
222.78
201.44
181.40
161.24
140.00
117.71
95.40
74.86
57.95
45.92
38.90
35.80
34.67
33.30
29.90
23.57
14.48
3.65
-7.53
-17.91
-26.96
-34.83
-42.16
-49.53
-57.31
-65.48
-73.97
-82.87
-92.32
-102.33
-112.33
-121.16
-127.40
-130.04
-129.00
-125.04
-119.22
-112.18
-103.92
-93.97
-82.13
-68.92
-55.64
-43.82
-34.54
-27.99
-23.54
-20.28
-17.41
-14.57
-11.69
-8.73
-5.55
-1.88
2.39
7.13
11.92
16.18
19.43
21.42
22.25
22.15
21.38
20.15
18.62
16.92
15.14
13.35
11.54
9.59
7.34
4.67
1.59
-1.80
-5.36
-9.02
-12.92
-17.22
-22.04
-27.25
-32.47
-37.14
-40.69
-42.70
-43.02
-41.76
-39.22
-35.77
-31.74
-27.37
-22.83
-18.22
-13.70
-9.36
-5.29
-1.50
2.09
5.53
8.84
11.88
14.48
16.47
17.78
18.51
18.88
19.12
19.35
19.65
19.94
20.15
20.29
20.33
20.18
19.71
18.74
17.19
15.13
12.79
10.41
8.21
6.15
4.03
1.59
-1.39
-4.96
-9.03
-13.46
-18.09
-22.70
-27.00
-30.51
-32.66
-32.98
-31.22
-27.54
-22.41
-16.49
-10.43
-4.73
0.36
4.82
8.72
12.21
15.33
18.01
20.06
21.28
21.58
21.05
20.01
18.79
17.72
16.96
16.60
16.66
17.12
17.88
18.67
19.12
18.79
17.50
15.24
12.28
9.01
5.74
2.61
-0.44
-3.70
-7.53
-12.31
-18.39
-25.88
-34.53
-43.64
-52.09
-58.68
-62.42
-62.83
-60.09
-54.92
-48.32
-41.24
-34.34
-27.84
-21.68
-15.62
-9.39
-2.88
3.87
10.55
16.78
22.12
26.31
29.25
31.08
32.15
32.86
33.63
34.71
36.10
37.55
38.61
38.84
37.92
35.87
33.03
29.98
27.30
25.37
24.13
23.27
22.27
20.67
18.22
14.97
11.17
7.21
3.54
0.61
-1.11
-1.25
0.36
3.62
8.07
13.06
17.91
22.12
25.58
28.47
31.13
33.79
36.40
38.61
39.94
40.03
38.84
36.70
34.15
31.73
29.75
28.20
26.85
25.45
23.85
22.07
20.11
18.00
15.67
13.04
10.12
7.02
3.93
0.99
-1.77
-4.56
-7.82
-12.09
-17.85
-25.15
-33.46
-41.62
-47.99
-51.03
-49.79
-44.23
-35.23
-24.29
-13.04
-2.77
5.64
11.83
15.76
17.53
17.41
15.78
13.14
10.09
7.20
4.95
3.65
3.47
4.43
6.54
9.82
14.26
19.58
25.12
29.67
31.73
29.86
23.33
12.61
-0.62
-13.85
-24.68
-31.62
-34.67
-35.15
-35.02
-36.07
-39.19
-44.25
-50.34
-56.29
-61.05
-63.92
-64.58
-63.09
-59.90
-55.71
-51.31
-47.35
-44.09
-41.43
-39.02
-36.56
-33.90
-31.00
-27.66
-23.32
-17.02
-7.56
6.01
23.83
44.80
66.63
86.27
100.78
108.39
109.12
104.85
98.64
93.45
91.12
91.84
94.41
97.07
98.43
97.83
95.26
91.00
85.11
77.51
68.14
57.22
45.28
32.92
20.52
8.16
-4.20
-16.40
-27.85
-37.75
-45.48
-50.95
-54.59
-57.07
-58.81
-59.82
-59.88
-58.92
-57.22
-55.37
-53.76
-52.25
-50.20
-46.93
-42.48
-37.92
-35.04
-35.57
-40.23
-48.32
-58.00
-67.15
-74.19
-78.50
-80.28
-79.98
-77.95
-74.30
-69.20
-63.16
-56.94
-51.24
-46.07
-40.63
-33.44
-23.19
-9.43
6.91
23.92
39.44
52.11
61.78
69.19
75.04
79.20
80.67
78.41
72.41
64.47
57.80
55.60
59.51
68.85
81.04
92.81
101.25
104.56
101.77
92.71
77.88
58.78
38.12
19.44
6.19
0.42
1.87
8.28
16.57
24.57
32.13
41.11
54.17
73.15
97.85
125.96
154.10
179.32
200.48
218.49
235.58
254.03
275.09
298.58
323.07
346.24
365.16
376.68
377.87
366.93
343.77
310.28
269.79
226.09
182.37
140.67
102.06
67.13
36.40
10.32
-11.36
-29.92
-47.75
-67.72
-92.13
-121.88
-156.12
-192.79
-229.42
-264.17
-296.51
-327.13
-357.66
-390.03
-426.20
-467.64
-514.49
-564.53
-612.56
-650.81
-670.94
-667.00
-637.74
-587.41
-524.10
-456.52
-390.99
-330.05
-273.08
-218.31
-164.87
-113.27
-64.77
-19.92
22.49
65.43
112.53
166.72
228.84
297.01
366.90
432.72
488.47
529.17
551.79
555.74
542.80
516.26
479.82
436.56
388.45
336.57
281.94
226.44
173.14
125.50
85.98
54.62
28.67
3.37
-26.18
-63.54
-110.07
-164.87
-224.67
-284.08
-336.05
-373.22
-390.61
-388.58
-374.22
-359.84
-357.99
-375.46
-409.46
-448.38
-477.12
-484.28
-467.07
-431.62
-388.70
-347.72
-312.71
-282.03
-251.52
-218.37
-183.45
-150.68
-124.03
-104.63
-89.50
-72.80
-48.55
-13.31
33.00
87.55
