1590172247.00
64.000000
-0.00
-0.00
-0.00
-0.00
-0.00
-0.00
-0.00
-0.00
-0.00
-0.00
0.00
0.01
0.01
-0.00
-0.03
-0.05
-0.05
0.00
0.13
0.36
0.66
1.01
1.37
1.72
2.06
2.40
2.79
3.24
3.80
4.42
5.06
5.66
6.20
6.68
7.15
7.68
8.31
9.14
10.09
11.04
11.88
12.56
13.14
13.76
14.65
15.96
17.91
20.32
22.90
25.38
27.58
29.57
31.68
34.32
37.81
42.54
48.15
54.10
59.83
64.97
69.58
74.14
79.34
85.71
93.76
103.00
112.62
121.73
129.77
136.75
143.30
150.75
157.77
166.64
177.95
191.79
206.97
220.57
228.25
225.36
208.53
176.87
132.76
80.05
23.07
-34.94
-92.44
-149.16
-205.23
-260.37
-313.74
-363.87
-409.83
-450.91
-486.50
-515.74
-537.23
-549.22
-549.96
-538.37
-514.21
-478.67
-433.88
-382.45
-327.02
-269.84
-212.63
-156.66
-102.95
-52.37
-5.90
35.58
71.43
101.35
125.50
144.38
158.69
169.15
176.37
180.75
182.57
182.07
179.51
175.23
169.65
163.18
156.15
148.81
141.30
133.69
126.02
118.33
110.69
103.16
95.80
88.68
81.83
75.25
68.95
62.95
57.25
51.86
46.78
42.03
37.59
33.45
29.61
26.07
22.81
19.83
17.11
14.67
12.48
10.54
8.83
7.35
6.07
4.97
4.05
3.27
2.62
2.09
1.65
1.30
1.02
0.80
0.63
0.50
0.41
0.35
0.31
0.29
0.29
0.30
0.32
0.36
0.39
0.43
0.47
0.51
0.56
0.61
0.66
0.71
0.77
0.84
0.91
0.98
1.07
1.17
1.27
1.39
1.53
1.68
1.85
2.04
2.25
2.48
2.74
3.02
3.33
3.67
4.04
4.45
4.89
5.36
5.88
6.43
7.03
7.66
8.35
9.07
9.85
10.67
11.53
12.44
13.40
14.41
15.49
16.63
17.84
19.10
20.41
21.72
22.98
24.09
24.96
25.44
25.42
24.78
23.41
21.29
18.41
14.86
10.70
6.16
1.44
-3.22
-7.61
-11.51
-14.77
-17.27
-18.98
-19.91
-20.10
-19.66
-18.74
-17.48
-16.08
-14.67
-13.38
-12.24
-11.27
-10.39
-9.55
-8.71
-7.84
-6.90
-5.89
-4.78
-3.54
-2.08
-0.26
1.89
4.39
7.18
10.19
13.25
16.27
19.19
22.11
25.27
28.62
32.19
35.95
39.71
43.25
46.33
48.90
51.02
53.03
54.93
56.93
59.08
61.25
62.89
63.49
62.81
60.94
58.44
55.52
52.53
49.51
45.95
40.66
32.13
18.78
-1.32
-25.32
-51.61
-78.41
-104.07
-127.26
-147.83
-166.54
-184.98
-205.83
-230.58
-258.05
-282.69
-296.14
-289.83
-259.61
-206.65
-137.09
-61.86
7.99
64.50
104.89
130.15
143.94
148.49
146.40
140.88
132.26
119.96
103.69
84.77
65.12
47.70
31.65
15.47
-2.52
-28.23
-68.15
-126.15
-201.88
-292.16
-390.65
-493.70
-595.45
-663.73
-670.79
-610.05
-501.59
-377.08
-275.63
-198.00
-139.36
-93.63
-54.47
-19.15
11.98
39.99
69.00
104.36
151.79
209.53
271.89
330.78
374.55
393.08
383.05
349.85
304.78
261.32
225.95
199.21
177.33
153.72
124.56
92.52
66.07
54.45
63.28
89.31
123.59
155.61
176.31
181.12
170.99
151.40
130.03
114.88
111.00
120.40
141.86
171.11
202.49
230.90
253.10
267.95
275.92
277.93
275.22
269.32
261.72
253.29
243.59
230.81
212.42
186.29
151.61
109.06
60.38
7.50
-47.96
-104.55
-160.44
-212.85
-257.96
-291.53
-310.48
-314.38
-306.30
-292.09
-277.95
-267.41
-259.04
-246.80
-223.06
-182.93
-127.65
-65.09
-7.03
35.46
56.35
56.54
42.91
24.98
11.09
5.69
8.74
17.24
27.51
37.19
45.78
53.82
61.50
67.58
69.80
66.27
56.90
43.99
31.27
22.09
17.87
17.61
18.67
18.22
14.51
7.48
-1.50
-10.21
-16.41
-18.59
-16.58
-11.68
-6.19
-2.42
-1.48
-2.79
-4.50
-4.74
-2.72
0.99
5.07
8.62
11.77
15.31
19.77
24.60
28.29
29.35
27.41
23.63
20.06
18.56
19.77
23.07
27.16
30.88
33.58
35.01
34.98
33.24
29.59
24.19
17.61
10.67
3.94
-2.39
-8.45
-14.24
-19.30
-22.85
-24.15
-23.15
-20.98
-19.75
-21.51
-26.98
-34.73
-41.63
-44.50
-41.61
-33.50
-22.57
-11.80
-3.44
1.49
2.92
1.10
-3.99
-12.01
-21.57
-30.22
-35.46
-36.29
-34.42
-33.73
-38.22
-50.28
-68.04
-85.53
-95.28
-91.96
-74.63
-47.36
-16.81
10.55
28.71
35.05
30.37
17.41
-0.93
-21.89
-43.62
-63.92
-80.49
-94.40
-106.92
-118.31
-127.85
-135.12
-139.85
-143.42
-146.72
-149.75
-155.28
-164.46
-175.46
-184.39
-187.86
-183.41
-171.78
-154.00
-109.46
-31.64
68.31
168.05
248.95
298.02
322.48
329.74
325.93
315.58
300.51
282.06
263.22
247.83
238.20
234.84
234.55
234.08
231.40
223.24
207.88
185.49
156.82
121.85
80.88
34.23
-15.02
-61.88
-103.51
-139.39
-171.16
-201.79
-234.34
-270.06
-308.50
-346.64
-380.36
-406.87
-424.62
-432.70
-430.50
-418.23
-397.33
-371.20
-343.96
-318.84
-296.92
-276.13
-252.33
-221.99
-185.22
-146.55
-113.24
-91.29
-82.08
-81.32
-81.52
-75.85
-61.25
-39.44
-14.81
8.81
30.57
52.69
78.56
109.71
143.74
174.52
194.15
195.71
175.23
132.27
69.51
-7.93
-92.94
-176.79
-250.02
-304.23
-334.15
-339.24
-323.63
-294.39
-259.05
-223.44
-190.89
-162.62
-138.80
-119.13
-103.14
-90.03
-78.39
-66.58
-53.42
-38.66
-23.08
-8.12
4.81
15.03
22.77
29.14
35.59
43.40
53.38
65.92
81.35
100.18
123.06
150.40
181.86
216.08
250.77
283.26
311.17
333.10
349.00
360.02
368.10
375.19
382.61
390.49
397.86
402.98
404.04
399.84
390.11
375.49
357.44
337.94
319.16
303.01
290.50
281.35
274.07
266.77
257.88
246.84
234.09
220.55
207.01
193.60
179.91
165.60
150.78
135.79
120.39
103.06
81.11
52.00
15.12
-27.00
-68.76
-103.10
-124.04
-129.02
-120.00
-102.58
-83.72
-69.48
-63.42
-66.28
-76.49
-90.79
-104.75
-113.19
-111.27
-95.88
-67.55
-31.24
4.53
30.26
38.98
28.84
3.71
-28.77
-60.60
-86.76
-106.67
-123.16
-139.60
-156.93
-172.24
-180.03
-175.31
-156.66
-127.26
-93.47
-61.93
-36.77
-18.63
-5.80
3.41
8.83
8.10
-1.87
-22.79
-53.72
-91.25
-130.67
-167.68
-199.27
-223.91
-241.00
-250.35
-252.03
-246.42
-234.32
-216.83
-195.18
-170.67
-144.65
-118.63
-93.91
-71.06
-49.41
-27.29
-3.05
23.67
51.29
76.92
98.18
114.81
128.65
142.11
156.20
169.54
179.44
184.13
184.46
183.56
184.91
189.95
197.31
203.89
207.23
207.16
205.80
205.96
209.23
215.23
221.90
226.62
227.08
221.61
209.23
189.76
163.98
133.69
101.48
70.25
42.60
20.33
4.09
-6.80
-14.30
-21.16
-29.73
-40.77
-52.76
-62.72
-67.91
-68.08
-66.19
-67.15
-75.19
-91.93
-116.03
-144.67
-175.42
-207.10
-239.08
-269.60
-294.77
-308.96
-306.44
-283.60
-240.10
-178.94
-105.67
-27.36
48.36
113.97
163.16
192.08
200.38
191.29
170.64
144.92
119.69
98.38
82.03
69.32
57.40
42.41
20.08
-13.22
-59.11
-115.74
-177.04
-233.60
-275.03
-293.10
-284.42
-251.06
-199.20
-136.45
-69.31
-1.58
65.78
133.59
202.52
271.32
335.88
389.66
425.58
438.99
430.20
404.99
372.59
341.83
317.70
300.16
285.77
270.84
253.96
236.33
220.03
205.73
191.61
174.44
151.70
123.18
91.17
59.29
30.72
7.01
-11.94
-27.32
-40.65
-53.28
-66.08
-79.47
-93.39
-107.44
-121.10
-134.11
-146.67
-159.62
-174.33
-192.38
-215.39
-245.12
-283.43
-331.94
-390.98
-458.19
-527.70
-590.66
-637.57
-661.51
-660.64
-638.83
-603.78
-563.85
-525.07
-489.96
-458.24
-428.63
-400.42
-373.92
-349.81
-328.20
-308.16
-287.97
-265.96
-241.16
-213.60
-184.25
-154.45
-125.40
-97.78
-71.58
-46.15
-20.55
5.99
33.69
61.88
89.09
113.36
132.78
145.62
150.31
145.49
130.28
105.08
72.32
36.62
3.87
-20.68
-34.42
-38.47
-37.16
-36.22
-40.35
-51.59
-68.87
-89.01
-108.34
-124.09
-135.16
-142.03
-146.17
-149.31
-152.79
-157.11
-162.04
-166.84
-170.51
-172.01
-170.28
-164.34
-153.24
-136.24
-112.94
-83.37
-48.00
-7.66
36.39
82.60
129.27
174.80
217.98
258.20
295.51
330.51
364.26
398.17
433.96
473.01
515.44
559.05
598.86
627.92
639.38
629.18
597.84
550.45
494.64
437.76
384.60
336.85
294.14
255.63
221.20
191.36
166.41
145.63
127.26
109.29
90.56
71.38
53.26
38.12
27.20
20.56
17.19
15.68
14.93
14.54
14.80
16.27
19.30
23.75
29.04
34.48
39.62
44.52
49.56
55.35
62.28
70.18
77.97
83.65
84.36
76.95
58.92
29.63
-8.82
-51.54
-91.94
-123.71
-142.70
-148.12
-142.36
-129.71
-114.70
-100.71
-89.45
-81.18
-75.24
-70.51
-65.75
-59.78
-51.64
-40.88
-27.65
-12.66
3.19
19.03
34.05
47.48
58.51
66.57
71.50
73.84
74.58
74.89
75.59
77.00
79.00
81.37
83.99
86.95
90.43
94.52
99.27
104.66
110.55
116.43
121.08
122.73
119.73
111.42
98.41
82.19
63.96
43.82
21.12
-4.48
-31.78
-58.02
-79.87
-94.94
-102.73
-104.39
-101.70
-96.09
-88.53
-80.38
-74.14
-73.25
-80.62
-97.14
-121.09
-148.75
-175.73
-197.75
-210.83
-211.62
-198.36
-172.25
-138.40
-104.75
-79.18
-66.32
-65.77
-72.58
-79.73
-81.19
-73.69
-56.90
-32.13
-1.19
33.94
70.66
105.41
134.07
152.83
159.41
153.62
137.19
113.01
84.22
53.66
23.52
-4.76
-30.59
-54.12
-76.14
-97.60
-119.35
-141.65
-163.80
-184.44
-201.97
-215.08
-223.01
-225.22
-220.91
-208.85
-187.91
-158.02
-121.24
-81.71
-44.63
-14.31
7.40
21.61
31.33
39.65
48.23
56.84
64.20
69.24
71.99
73.39
74.51
75.74
76.78
77.16
77.15
78.09
81.61
88.31
96.73
103.41
104.20
96.14
78.82
54.57
27.66
2.68
-16.91
-29.72
-36.39
-38.99
-40.17
-42.28
-46.85
-54.02
-62.37
-69.30
-71.84
-67.77
-56.41
-38.63
-16.26
8.57
33.90
58.01
79.32
96.36
108.00
113.78
114.21
110.72
105.09
98.75
92.24
85.11
76.56
66.17
54.54
43.17
33.86
27.91
25.67
26.61
29.74
34.21
39.41
44.86
50.01
54.11
56.56
57.06
55.75
52.82
48.32
42.13
34.37
25.89
18.23
13.25
12.37
15.95
23.15
32.39
41.94
50.54
57.81
64.21
70.68
77.95
86.05
94.21
101.43
107.17
111.94
117.11
124.07
133.29
143.90
154.14
162.23
167.20
168.79
167.00
161.46
151.37
136.06
115.60
91.00
63.78
35.26
5.94
-24.30
-55.68
-87.94
-120.27
-151.67
-181.56
-210.24
-238.59
-267.79
-299.07
-333.80
-373.44
-418.81
-468.82
-519.23
-562.56
-589.60
-592.73
-568.63
-519.87
-453.97
-380.21
-306.17
-235.57
-168.47
-103.45
-40.22
19.42
72.25
115.64
149.08
174.11
192.70
205.27
209.63
202.05
180.48
147.55
111.42
83.46
73.36
84.49
112.17
146.03
175.14
193.04
199.89
200.81
202.25
207.89
217.33
227.22
233.67
234.26
228.42
216.31
197.63
171.46
136.82
93.74
43.99
-9.37
-62.98
-114.37
-162.78
-209.50
-257.57
-310.67
-371.22
-438.28
-506.48
-566.71
-608.85
-625.55
-615.16
-582.37
-536.19
-486.45
-440.35
-401.10
-368.46
-340.65
-316.09
-293.90
-273.58
-254.21
-234.32
-212.13
-186.42
-156.84
-123.80
-88.12
-50.18
-9.48
35.44
86.39
144.48
208.64
274.88
336.68
386.59
418.70
430.62
424.29
405.08
379.73
354.00
331.34
312.64
297.18
283.89
272.22
262.29
254.44
248.59
243.92
238.96
232.27
222.96
211.28
198.27
185.23
172.95
161.27
149.21
135.57
119.64
101.63
82.73
64.64
48.88
36.25
26.57
18.89
12.05
5.19
-1.80
-8.23
-13.01
-15.02
-13.69
-9.17
-2.34
5.45
12.65
17.73
19.45
17.08
10.55
0.65
-11.19
-23.14
-33.50
-41.07
-45.42
-46.84
-46.15
-44.37
-42.43
-41.04
-40.58
-41.13
-42.42
-43.88
-44.66
-43.83
-40.69
-35.03
-27.29
-18.43
-9.63
-1.86
4.34
8.98
12.37
14.91
16.99
18.95
21.17
23.88
26.98
29.80
31.31
30.43
26.61
20.19
12.27
4.16
-3.19
-9.45
-14.73
-19.21
-22.76
-25.07
-25.88
-25.18
-23.14
-19.76
-14.74
-7.66
1.57
12.46
24.01
35.15
45.25
54.29
62.65
70.51
77.51
82.76
85.44
85.29
82.91
79.39
75.81
72.70
69.97
67.09
63.41
58.36
51.65
43.33
33.79
23.58
13.09
2.02
-10.60
-26.07
-45.12
-67.12
-89.93
-110.49
-125.67
-132.99
-130.81
-118.49
-96.63
-67.62
-35.79
-6.78
14.02
23.32
21.13
10.48
-4.13
-18.70
-31.07
-40.81
-48.37
-53.97
-57.21
-57.28
-53.70
-46.93
-38.63
-31.17
-26.74
-26.56
-30.18
-35.70
-40.65
-43.21
-43.16
-41.92
-41.72
-44.31
-50.16
-58.40
-67.53
-75.99
-82.37
-85.27
-83.23
-75.15
-60.99
-42.10
-20.90
-0.00
18.88
35.38
50.32
64.83
79.45
93.88
107.30
119.05
128.99
137.55
145.32
152.68
159.65
165.92
171.03
174.54
176.15
175.70
173.03
168.03
160.68
151.25
140.20
127.85
114.14
98.49
79.98
57.92
32.45
4.70
-23.39
-49.77
-73.02
-92.50
-108.06
-119.73
-127.66
-132.58
-135.97
-139.56
-144.18
-148.52
-149.12
-141.75
-123.71
-95.66
-61.87
-28.56
-1.55
15.54
21.85
18.45
7.20
-9.77
-29.94
-50.16
-67.06
-78.04
-82.46
-81.91
-79.26
-77.34
-77.61
-79.93
-83.10
-85.70
-86.63
-85.57
-82.88
-79.72
-77.69
-78.19
-81.65
-87.03
-91.98
-93.68
-90.02
-80.44
-65.94
-48.42
-29.71
-11.16
6.44
22.51
36.46
47.76
56.15
61.78
65.20
67.31
69.30
72.49
77.88
85.73
95.22
104.73
112.64
118.11
121.37
123.35
124.93
126.33
127.14
126.69
124.54
120.77
115.70
109.46
101.88
92.71
81.78
69.29
55.36
39.66
21.31
-0.40
-24.94
-50.12
-72.19
-86.71
-89.56
-77.92
-51.21
-11.87
34.62
80.60
118.29
142.16
150.67
146.05
132.63
114.37
93.48
70.65
46.58
22.96
2.09
-14.66
-28.15
-41.22
-56.80
-75.88
-96.76
-116.07
-130.60
-138.34
-138.53
-130.88
-115.05
-91.28
-60.61
-24.64
14.60
55.53
97.85
141.71
186.32
229.09
265.78
292.48
307.74
312.34
308.73
299.99
288.66
276.31
263.62
249.97
234.74
218.50
201.49
183.51
164.80
145.79
126.82
107.79
86.38
60.91
33.95
7.64
-17.12
-39.15
-57.97
-74.27
-89.99
-111.52
-143.15
-179.83
-217.23
-253.73
-287.25
-316.66
-342.37
-366.36
-397.64
-442.70
-494.87
-550.12
-608.65
-667.53
-720.74
-760.27
-778.32
-778.05
-764.25
-730.39
-678.06
-616.73
-552.53
-487.22
-419.34
-296.38
-97.94
93.21
240.74
352.48
426.66
464.90
473.28
461.14
438.45
404.82
359.43
314.37
274.92
238.58
204.57
173.34
145.50
120.73
91.58
52.77
11.98
-26.03
-61.92
-96.04
-129.62
-165.05
-204.76
-253.14
-309.26
-360.53
-395.07
-406.64
-393.66
-360.31
-315.13
-267.54
-226.64
-196.79
-175.20
-158.81
-146.69
-138.70
-135.08
-135.62
-139.24
-145.12
-152.43
-159.85
-167.37
-176.22
-187.22
-200.16
-213.64
-225.37
-232.86
-234.23
-228.75
-216.90
-200.00
-179.55
-156.57
-131.36
-103.54
-72.64
-38.56
-2.05
35.25
71.22
103.79
131.73
154.88
174.22
191.35
207.90
224.91
242.51
260.15
277.00
292.49
306.67
320.22
334.28
350.19
369.34
392.85
420.98
452.54
484.30
511.32
528.18
530.89
518.51
493.67
461.45
427.40
395.57
367.56
342.95
320.46
299.11
278.61
259.09
240.45
222.16
203.50
184.08
164.15
144.41
125.66
108.24
91.86
75.88
59.79
43.55
27.66
12.94
0.13
-10.22
-17.75
-22.22
-23.55
-22.06
-18.71
-15.09
-12.90
-13.21
-15.97
-19.98
-23.59
-25.61
-25.91
-25.35
-25.17
-26.10
-27.98
-29.89
-30.70
-29.79
-27.30
-24.00
-20.83
-18.41
-16.82
-15.65
-14.23
-11.86
-8.03
-2.62
4.07
11.20
17.55
21.92
23.67
23.21
22.08
22.59
26.99
36.55
50.94
68.32
85.98
101.40
113.11
121.17
126.74
131.52
136.85
143.30
150.75
158.69
166.48
173.33
178.30
180.55
179.77
176.64
173.01
171.22
172.99
178.16
184.49
188.72
188.47
183.78
177.20
172.37
171.90
175.87
181.73
185.61
184.17
175.94
161.51
142.77
121.84
100.21
78.62
57.34
36.67
17.11
-0.71
-16.21
-29.00
-39.15
-47.23
-54.31
-61.66
-70.43
-81.31
-94.47
-109.52
-125.74
-142.49
-159.46
-176.72
-194.47
-212.91
-232.12
-252.46
-275.10
-302.05
-335.12
-373.84
-413.83
-446.87
-463.68
-458.30
-431.25
-389.40
-342.42
-298.25
-260.11
-226.94
-196.29
-167.25
-141.08
-119.75
-103.67
-91.09
-80.05
-71.09
-68.68
-79.32
-107.13
-150.01
-198.89
-240.91
-264.70
-264.78
-242.54
-203.91
-155.68
-102.83
-48.15
6.43
58.31
103.86
139.52
163.29
175.52
178.49
175.01
167.10
155.82
141.94
127.03
113.33
103.17
97.84
97.29
100.40
105.72
112.17
119.33
127.33
136.67
147.77
160.30
172.93
183.69
190.49
191.72
186.75
176.22
162.21
148.23
137.98
134.03
136.28
141.82
146.22
145.67
139.16
129.17
120.63
118.36
124.45
137.16
151.84
163.20
167.63
164.21
154.28
140.07
123.53
105.82
87.54
69.24
51.93
37.08
26.20
20.27
19.19
21.70
25.91
30.09
33.32
35.80
38.36
41.90
46.73
52.26
57.29
60.49
60.98
58.67
54.28
48.91
43.53
38.69
34.38
30.26
25.98
21.40
16.67
11.99
7.30
2.13
-4.36
-13.06
-24.51
-38.62
-54.70
-71.80
-89.17
-106.73
-125.18
-145.65
-169.18
-196.18
-226.12
-257.89
-290.12
-321.88
-353.00
-384.03
-416.11
-450.96
-490.77
-537.88
-593.46
-655.99
-720.06
-776.78
-816.11
-830.34
-817.12
-780.40
-728.76
-671.94
-617.35
-568.27
-524.20
-482.72
-441.52
-399.50
-356.76
-313.88
-271.42
-229.74
-189.11
-149.81
-111.79
-74.23
-35.11
8.45
58.62
114.79
172.16
221.91
253.23
256.78
228.01
169.33
90.05
4.07
-73.75
-131.45
-162.61
-167.22
-150.66
-121.20
-87.19
-54.90
-27.71
-6.44
9.48
20.96
28.85
34.29
38.79
44.00
51.01
59.79
69.03
76.75
81.12
81.40
78.17
73.08
68.00
64.33
62.38
61.44
60.17
57.25
51.98
44.50
35.64
26.48
17.91
10.29
3.44
-3.15
-10.01
-17.36
-25.03
-32.49
-39.13
-44.41
-48.09
-50.22
-51.07
-50.98
-50.23
-48.97
-47.23
-44.98
-42.18
-38.88
-35.18
-31.20
-27.11
-23.04
-19.09
-15.31
-11.74
-8.37
-5.19
-2.19
0.65
3.35
5.92
8.39
10.76
13.04
15.23
17.32
19.31
21.19
22.95
24.56
26.03
27.33
28.49
29.53
30.47
31.38
32.28
33.19
34.13
35.06
35.96
36.82
37.63
38.42
39.21
39.99
40.73
41.37
41.83
42.02
41.91
41.54
41.01
40.43
39.92
39.54
39.30
39.16
39.08
39.13
39.44
40.29
41.95
44.59
48.23
52.66
57.51
62.42
67.18
71.87
76.78
82.34
88.86
96.37
104.56
112.88
121.44
130.47
140.31
151.20
163.35
176.88
191.65
207.26
223.01
238.82
254.75
270.97
287.60
304.90
323.47
344.18
367.81
394.23
423.26
452.69
478.19
494.57
497.93
487.52
465.99
438.04
408.33
383.92
368.77
362.65
361.65
360.99
357.62
350.87
341.48
330.33
326.00
334.60
356.65
386.38
415.61
438.40
452.83
459.86
461.47
472.63
504.66
559.73
629.15
699.64
760.81
808.83
845.21
874.15
917.26
990.87
1098.06
1226.23
1355.83
1470.56
1562.82
1632.49
1576.05
1335.13
917.12
401.58
-108.61
-541.82
-874.90
-1117.04
-1289.49
-1412.06
-1481.03
-1490.40
-1441.07
-1350.63
-1241.26
-1132.40
-1036.28
-959.21
-902.56
-851.11
-790.88
-716.64
-635.08
-558.13
-497.67
-458.31
-438.96
-434.05
-427.54
-404.66
-359.39
-301.59
-244.71
-199.41
-167.76
-149.44
-141.95
-138.42
-133.82
-127.43
-122.68
-123.19
-130.95
-144.94
-164.80
-188.90
-213.27
-234.48
-251.33
-265.38
-278.49
-291.62
-304.26
-318.38
-334.37
-350.22
-361.98
-365.95
-360.83
-348.19
-332.47
-319.27
-317.35
-330.76
-356.67
-387.29
-414.90
-435.33
-447.88
-453.31
-424.83
-350.10
-236.87
-109.81
5.33
93.77
152.93
188.36
208.56
220.40
224.67
219.88
206.39
187.84
169.11
154.19
145.35
143.27
146.65
150.76
152.04
149.96
146.74
145.10
146.36
150.18
155.27
160.26
162.34
159.77
152.71
142.68
131.29
119.28
106.64
93.13
78.75
63.16
46.70
30.77
17.34
7.97
2.95
1.28
1.20
0.97
-0.66
-3.83
-7.52
-10.10
-10.17
-7.18
-1.49
5.94
13.96
21.67
28.59
34.57
39.65
43.73
46.44
47.33
46.14
43.30
39.98
37.85
38.51
42.92
51.13
62.29
75.05
88.01
100.03
110.49
119.36
127.25
135.20
144.37
155.45
168.33
182.13
195.78
208.79
221.80
236.40
254.28
276.19
301.15
326.43
348.19
362.47
365.96
356.45
333.35
298.63
257.68
218.95
191.75
182.54
191.65
212.35
233.22
242.86
234.43
207.68
167.75
121.82
75.81
33.04
-5.12
-37.71
-63.45
-81.27
-91.76
-97.72
-103.35
-112.30
-125.94
-142.84
-159.67
-173.19
-182.14
-187.86
-193.98
-205.04
-225.07
-256.17
-297.31
-343.12
-384.04
-408.35
-406.17
-374.22
-318.76
-254.72
-200.12
-168.89
-165.56
-184.46
-214.44
-245.56
-274.07
-302.63
-336.48
-378.64
-427.22
-476.35
-519.26
-551.26
-570.64
-577.95
-574.09
-559.58
-534.87
-501.23
-461.44
-419.49
-379.51
-344.77
-317.26
-297.38
-284.34
-276.44
-271.43
-267.14
-262.17
-256.63
-251.71
-249.15
-250.40
-255.66
-263.77
-272.41
-278.91
-281.02
-277.34
-267.53
-252.10
-232.01
-208.27
-181.70
-152.83
-122.07
-89.81
-56.60
-23.16
9.58
40.62
69.06
94.28
116.21
135.32
152.58
169.19
186.29
204.51
223.87
243.82
263.54
282.46
300.55
318.45
337.18
357.76
380.60
405.28
430.72
455.53
478.64
499.83
519.84
540.14
562.56
588.93
620.43
657.02
696.92
736.47
770.53
793.59
801.38
792.47
768.87
735.33
697.26
658.39
619.48
578.55
532.76
480.59
423.16
363.99
307.29
256.02
210.77
170.08
131.82
94.65
58.92
26.18
-1.99
-24.94
-43.37
-59.02
-74.01
-90.26
-109.30
-132.37
-160.04
-191.29
-222.74
-248.59
-261.78
-256.16
-228.70
-180.74
-117.95
-48.95
16.76
70.63
106.62
121.92
117.32
96.71
66.09
31.78
-1.27
-30.70
-56.83
-81.69
-107.60
-136.07
-167.36
-200.83
-235.20
-269.29
-302.32
-334.10
-365.10
-396.54
-430.59
-469.84
-516.04
-568.43
-622.69
-671.21
-705.31
-718.45
-708.96
-680.72
-641.60
-600.25
-563.11
-532.96
-509.42
-490.40
-473.51
-456.53
-437.20
-412.89
-380.96
-339.60
-288.63
-229.90
-166.55
-102.12
-39.20
21.38
80.91
142.37
208.96
282.11
359.54
434.58
497.47
538.25
550.32
532.54
489.37
429.10
361.40
295.15
237.10
191.41
159.72
141.52
134.67
136.23
143.23
153.28
164.57
175.56
184.80
191.01
193.82
193.95
192.85
191.80
190.94
189.10
184.45
175.71
162.86
147.15
130.48
114.57
100.42
88.03
76.78
65.95
55.13
44.48
34.53
25.88
18.70
12.56
6.60
-0.08
-8.02
-17.14
-26.79
-35.98
-43.75
-49.46
-52.88
-54.18
-53.77
-52.00
-49.00
-44.55
-38.27
-29.91
-19.71
-8.51
2.39
11.76
18.85
23.58
26.33
27.57
27.56
26.15
23.08
18.23
11.95
5.01
-1.60
-7.09
-11.07
-13.64
-15.24
-16.33
-17.18
-17.81
-18.07
-17.96
-17.57
-17.18
-16.92
-16.73
-16.33
-15.41
-13.87
-11.83
-9.59
-7.46
-5.59
-4.00
-2.58
-1.11
0.75
3.56
8.10
15.14
25.19
38.16
53.35
69.59
85.59
100.33
113.38
124.85
135.32
145.49
155.97
167.08
178.83
191.16
204.05
217.65
232.22
247.88
264.55
281.97
299.80
317.93
336.51
355.73
375.48
395.07
413.33
428.81
440.18
446.44
446.82
440.58
427.10
405.96
377.36
342.25
302.37
259.99
217.43
176.58
138.52
103.36
70.43
38.65
7.12
-24.34
-55.04
-83.64
-108.83
-130.06
-147.80
-163.39
-178.34
-193.70
-209.59
-225.36
-239.96
-252.67
-263.47
-273.21
-283.40
-295.62
-310.89
-329.21
-349.71
-370.88
-391.22
-409.87
-426.92
-443.60
-462.32
-486.38
-518.99
-561.54
-611.68
-662.45
-703.27
-723.08
-714.50
-676.82
-616.22
-543.20
-468.14
-397.57
-332.92
-271.63
-209.73
-144.14
-73.83
-0.14
73.27
140.71
195.17
229.80
240.00
225.38
189.77
140.05
83.47
25.27
-32.53
-90.83
-151.72
-216.36
-283.28
-347.92
-403.46
-443.03
-462.14
-460.35
-441.55
-412.42
-379.85
-349.02
-322.62
-301.57
-286.27
-277.34
-275.28
-279.53
-287.71
-295.91
-299.94
-296.87
-285.87
-268.09
-245.87
-221.34
-195.62
-168.49
-138.97
-106.12
-69.99
-31.89
5.81
40.47
70.04
93.62
111.60
125.29
136.24
145.58
153.74
160.47
165.25
167.76
168.28
167.71
167.32
168.38
171.70
177.42
185.03
193.63
202.30
210.47
218.16
226.05
235.32
247.04
261.58
278.18
294.88
309.15
318.72
322.28
319.87
312.68
302.47
290.82
278.65
266.22
253.31
239.60
224.84
209.05
192.71
177.02
163.88
155.41
153.13
157.17
166.07
177.26
188.13
196.93
203.42
208.49
213.44
219.11
225.42
231.41
235.77
237.51
236.52
233.78
230.76
228.54
227.12
225.26
221.17
213.66
203.17
191.77
182.46
177.08
174.83
172.12
163.92
145.81
115.67
74.43
25.83
-23.57
-66.62
-97.36
-112.41
-111.43
-96.91
-73.74
-47.95
-25.21
-7.82
4.19
11.98
16.68
19.13
20.02
19.90
19.30
18.90
21.95
30.83
45.20
61.54
74.90
81.43
79.73
70.98
58.22
48.46
47.68
58.43
79.05
105.58
133.74
159.59
179.51
170.90
121.80
37.86
-58.68
-143.95
-204.96
-240.70
-256.77
-260.60
-258.19
-250.27
-236.63
-218.65
-200.32
-185.93
-177.69
-174.54
-173.03
-168.97
-157.28
-136.74
-111.56
-89.82
-78.84
-80.82
-91.77
-104.46
-112.50
-112.25
-105.31
-97.17
-93.64
-97.43
-107.04
-116.67
-120.80
-116.00
-100.91
-76.97
-47.82
-18.24
7.57
27.33
41.29
51.55
61.07
72.88
88.61
107.93
128.77
148.51
165.00
177.09
184.15
185.74
181.10
169.16
149.35
122.51
91.26
59.68
31.80
9.76
-7.18
-22.13
-38.98
-60.40
-86.64
-116.26
-147.03
-176.78
-203.12
-223.03
-233.43
-232.60
-221.40
-203.09
-181.82
-160.55
-140.14
-119.76
-98.35
-75.80
-53.26
-32.47
-14.84
-1.01
9.11
15.80
19.33
20.19
19.20
17.45
15.78
14.41
12.99
11.30
9.67
8.92
9.96
12.94
17.10
20.97
22.93
21.97
18.14
12.59
7.03
2.87
0.42
-1.17
-3.24
-6.59
-10.79
-14.26
-15.28
-12.90
-7.41
-0.07
7.60
14.43
19.84
23.67
26.13
27.63
28.84
30.56
33.38
37.31
41.56
44.82
45.89
44.43
41.13
37.33
34.18
31.94
30.01
27.39
23.49
18.49
13.19
8.45
4.57
1.29
-1.95
-5.53
-9.44
-13.35
-17.01
-20.36
-23.50
-26.45
-28.98
-30.59
-30.78
-29.26
-26.10
-21.67
-16.49
-11.06
-5.81
-0.96
3.38
7.19
10.41
12.88
14.38
14.78
14.22
13.08
11.87
10.83
9.80
8.36
6.16
3.20
-0.06
-2.95
-4.90
-5.66
-5.30
-4.02
-2.04
0.38
2.96
5.44
7.62
9.48
11.10
12.51
13.49
13.61
12.41
9.77
6.06
2.08
-1.27
-3.29
-3.71
-2.56
-0.11
3.37
7.75
12.99
19.07
25.74
32.41
38.15
42.07
43.83
43.89
43.34
43.25
43.97
44.90
44.84
42.79
38.57
32.92
27.08
22.09
18.29
15.25
12.10
8.00
2.56
-4.07
-11.32
-18.51
-25.08
-30.76
-35.46
-39.26
-42.30
-44.78
-46.86
-48.52
-49.46
-49.02
-46.48
-41.41
-34.07
-25.38
-16.66
-9.00
-2.92
1.62
4.92
7.20
8.45
8.61
7.75
6.19
4.32
2.37
0.28
-2.18
-5.18
-8.67
-12.38
-15.88
-18.83
-21.13
-22.90
-24.49
-26.21
-28.20
-30.32
-32.18
-33.40
-33.69
-33.04
-31.65
-29.81
-27.80
-25.74
-23.56
-20.99
-17.60
-12.98
-6.95
0.24
7.87
14.92
20.50
24.30
26.69
28.51
30.49
32.75
34.74
35.52
34.27
30.70
25.17
18.42
11.21
3.94
-3.44
-11.34
-20.10
-29.70
-39.67
-49.12
-57.07
-62.75
-65.74
-65.94
-63.39
-58.24
-50.82
-41.73
-31.94
-22.50
-14.24
-7.47
-2.04
2.40
6.10
9.02
11.02
12.10
12.59
12.98
13.57
14.17
14.13
12.66
9.25
4.08
-2.01
-7.79
-12.12
-14.45
-15.02
-14.71
-14.72
-15.97
-18.56
-21.74
-24.26
-24.98
-23.46
-20.04
-15.48
-10.38
-4.81
1.57
8.95
17.02
24.96
31.85
37.21
41.16
44.22
46.71
48.45
48.86
47.54
44.84
42.00
40.71
42.19
46.66
53.15
60.04
65.85
69.73
71.60
71.92
71.27
70.08
68.40
65.98
62.38
57.29
50.73
43.21
35.61
28.89
23.73
20.26
18.06
16.52
15.08
13.53
11.94
10.42
8.94
7.28
5.13
2.37
-0.85
-4.14
-7.07
-9.43
-11.29
-12.92
-14.60
-16.37
-17.93
-18.72
-18.12
-15.79
-11.76
-6.49
-0.79
4.43
8.35
10.53
10.98
10.12
8.63
7.09
5.73
4.47
3.02
1.24
-0.65
-2.12
-2.56
-1.62
0.50
3.20
5.65
7.20
7.56
6.86
5.48
3.88
2.40
1.15
-0.04
-1.40
-3.00
-4.73
-6.28
-7.42
-8.01
-7.99
-7.18
-5.15
-1.24
5.21
14.49
26.22
39.34
52.31
63.68
72.53
78.65
82.48
84.76
86.19
87.19
87.91
88.34
88.56
88.80
89.45
90.67
92.24
93.51
93.70
92.26
89.10
84.48
78.77
72.28
65.20
57.93
51.11
45.52
41.85
40.43
41.34
44.55
50.01
57.52
66.29
74.58
79.75
79.00
70.15
52.45
26.47
-6.28
-43.88
-84.37
-125.92
-166.66
-204.57
-237.61
-263.83
-281.41
-288.74
-285.00
-270.95
-249.43
-225.11
-203.22
-188.08
-181.69
-183.41
-190.61
-199.53
-206.02
-206.14
-197.17
-178.88
-154.31
-129.46
-111.12
-103.43
-105.44
-111.11
-112.64
-105.01
-89.09
-70.97
-58.24
-55.77
-63.78
-78.87
-96.82
-114.98
-132.82
-150.81
-168.86
-185.96
-200.39
-210.55
-215.19
-213.28
-203.57
-184.86
-157.08
-122.29
-84.48
-47.62
-13.73
17.83
49.49
83.55
120.45
158.76
196.11
230.69
262.29
292.48
323.83
358.60
397.87
440.99
485.61
528.22
564.67
591.31
605.71
607.35
596.72
574.94
543.25
502.33
452.51
393.92
327.78
257.26
187.16
121.49
62.70
10.56
-37.86
-86.27
-138.52
-196.12
-258.09
-322.24
-388.01
-454.57
-519.19
-576.02
-616.46
-634.19
-626.97
-597.71
-553.60
-505.15
-460.77
-424.58
-396.97
-375.59
-359.86
-349.26
-342.02
-323.41
-285.44
-229.94
-168.17
-118.93
-83.87
-60.08
-43.21
-28.52
-12.95
3.47
20.29
37.56
56.32
78.64
104.11
131.51
159.52
187.11
212.43
234.94
255.49
275.63
296.59
316.06
329.93
334.30
327.28
309.09
282.82
253.27
225.14
201.97
184.35
171.58
162.91
157.87
155.45
154.01
151.35
145.31
134.84
119.96
102.17
83.92
67.49
53.93
43.02
33.78
25.34
17.66
11.29
7.11
5.58
6.39
8.42
10.30
11.00
10.10
7.73
4.11
-0.61
-6.47
-13.54
-21.93
-31.72
-43.00
-55.75
-69.74
-84.50
-99.28
-113.25
-125.37
-134.31
-138.33
-135.58
-124.81
-106.20
-81.77
-54.79
-28.55
-5.10
15.29
33.61
50.92
67.39
82.21
94.28
102.99
108.36
110.45
108.66
101.75
88.79
70.39
49.44
30.35
17.39
12.83
16.02
24.00
33.15
40.73
45.63
47.99
48.26
46.58
42.88
37.38
30.97
24.89
19.88
15.22
8.49
-3.68
-24.12
-53.68
-90.53
-130.71
-169.22
-201.32
-223.52
-234.07
-233.04
-222.02
-203.44
-179.88
-153.61
-126.37
-99.68
-74.90
-53.17
-35.09
-20.46
-8.40
2.24
12.33
22.02
30.73
37.67
42.31
44.69
45.25
44.72
43.92
43.72
44.85
47.64
51.78
56.58
61.45
66.37
71.97
78.96
87.42
96.56
105.10
112.02
117.19
121.19
124.77
128.37
132.00
135.51
138.97
142.59
146.46
150.23
153.28
155.14
155.92
156.47
157.90
160.94
165.36
169.89
172.84
172.95
170.26
166.14
162.70
161.76
164.21
169.81
177.68
186.93
197.08
208.11
220.14
233.04
246.12
258.18
267.55
272.45
271.24
262.74
246.82
224.70
198.91
172.67
148.94
129.64
115.43
106.11
101.17
100.14
102.59
107.80
114.63
121.58
127.07
129.95
129.69
126.33
120.31
112.16
102.18
90.45
76.87
61.39
44.27
26.08
7.66
-10.05
-26.22
-40.32
-52.13
-61.70
-69.24
-74.98
-79.13
-81.88
-83.44
-84.17
-84.54
-85.11
-86.46
-89.07
-93.20
-98.91
-106.05
-114.38
-123.58
-133.36
-143.42
-153.48
-163.19
-172.15
-179.92
-186.08
-190.33
-192.55
-192.79
-191.29
-188.35
-184.29
-179.32
-173.63
-167.44
-161.08
-155.10
-150.23
-147.22
-146.65
-148.66
-152.90
-158.54
-164.60
-170.28
-175.27
-179.76
-184.32
-189.45
-195.21
-201.06
-205.97
-208.85
-209.15
-207.23
-204.40
-202.50
-203.17
-207.19
-214.30
-223.58
-233.87
-244.62
-256.22
-269.99
-287.83
-311.93
-344.56
-387.53
-441.18
-503.03
-567.16
-624.69
-666.20
-684.83
-678.84
-652.16
-612.58
-568.38
-525.52
-486.48
-450.94
-417.78
-386.50
-357.55
-331.56
-308.41
-286.85
-265.10
-241.89
-217.08
-191.74
-167.77
-146.81
-129.68
-116.03
-104.61
-93.91
-82.88
-71.29
-59.75
-49.33
-40.89
-34.70
-30.31
-26.76
-23.04
-18.46
-12.93
-6.91
-1.16
3.61
6.93
8.80
9.43
9.18
8.28
6.78
4.51
1.26
-3.14
-8.69
-15.26
-22.56
-30.31
-38.23
-46.09
-53.74
-61.03
-67.83
-73.95
-79.19
-83.30
-86.03
-87.07
-86.18
-83.07
-77.57
-69.54
-58.99
-45.99
-30.72
-13.47
5.43
25.56
46.47
67.65
88.57
108.75
127.73
145.18
160.88
174.76
186.86
197.26
206.06
213.34
219.14
223.51
226.58
228.60
229.89
230.80
231.59
232.30
232.76
232.57
231.28
228.55
224.30
218.71
212.14
204.98
197.42
189.45
180.82
171.39
161.23
150.94
141.52
134.15
129.86
129.16
131.90
137.48
145.11
154.25
164.81
177.16
191.97
210.05
232.12
258.58
289.07
322.02
354.47
382.40
401.77
409.85
406.11
392.46
372.36
349.57
326.95
305.92
286.72
269.02
252.53
237.31
223.63
211.64
201.16
191.60
182.08
171.72
159.86
146.47
132.17
118.08
105.38
94.72
85.88
77.92
69.82
61.18
52.67
45.80
42.10
42.33
45.99
51.59
57.55
63.07
68.38
74.07
79.99
84.77
86.15
82.14
72.12
57.32
40.29
23.72
9.39
-2.20
-11.46
-18.94
-24.84
-28.96
-31.03
-31.26
-30.44
-29.79
-30.54
-33.48
-38.83
-46.16
-54.53
-62.62
-69.13
-73.05
-73.86
-71.57
-66.77
-60.36
-53.35
-46.59
-40.60
-35.59
-31.63
-28.74
-26.97
-26.25
-26.24
-26.35
-25.94
-24.64
-22.47
-19.81
-17.10
-14.68
-12.72
-11.25
-10.23
-9.60
-9.21
-8.77
-7.98
-6.68
-5.04
-3.50
-2.51
-2.19
-2.22
-2.00
-1.00
0.93
3.46
6.04
8.20
9.74
10.74
11.40
11.82
11.91
11.47
10.38
8.70
6.85
5.44
5.17
6.61
9.96
14.99
21.06
27.37
33.18
38.11
42.28
46.28
50.88
56.69
63.84
71.86
79.88
87.02
92.86
97.62
102.13
107.34
113.90
121.80
130.44
138.90
146.39
152.48
157.17
160.73
163.59
166.25
169.38
173.83
180.19
188.11
195.51
198.75
193.85
178.38
152.90
120.82
86.73
54.03
23.29
-7.22
-39.37
-72.77
-103.97
-128.08
-141.89
-146.13
-145.39
-145.42
-149.67
-157.30
-164.53
-168.05
-168.31
-169.80
-178.18
-195.81
-219.32
-241.20
-254.18
-255.46
-247.73
-236.85
-227.55
-220.49
-212.67
-200.76
-184.69
-168.72
-158.76
-157.58
-161.68
-162.39
-150.96
-124.49
-88.39
-53.92
-32.04
-27.41
-36.07
-47.53
-50.04
-35.59
-2.67
44.30
97.12
146.47
183.59
201.93
198.85
176.74
142.82
106.75
77.11
58.18
49.29
46.75
46.81
47.63
49.15
51.51
53.71
53.63
49.73
42.68
35.79
33.53
38.72
50.15
62.17
66.99
58.28
34.64
0.47
-35.91
-65.95
-84.34
-90.80
-89.17
-85.07
-83.15
-85.63
-91.96
-99.91
-106.43
-108.84
-105.52
-96.21
-81.94
-64.56
-46.00
-27.77
-10.80
4.50
17.76
28.73
37.92
47.20
59.68
78.46
104.57
134.98
162.55
178.34
175.49
152.66
114.69
70.16
26.94
-11.92
-49.39
-91.26
-141.15
-196.13
-246.27
-279.59
-288.68
-275.81
-252.48
-233.72
-230.44
-244.75
-270.71
-299.95
-327.67
-354.86
-385.60
-421.67
-458.66
-486.55
-494.80
-478.33
-440.68
-392.45
-346.02
-310.15
-287.10
-273.38
-262.91
-250.57
-233.88
-212.86
-188.90
-162.74
-133.94
-100.97
-62.00
-15.93
37.16
95.77
157.15
217.53
272.58
318.02
350.61
369.04
374.42
369.96
359.83
347.75
335.88
324.76
313.89
302.75
291.41
280.39
270.04
260.04
249.29
236.60
221.44
204.43
187.16
171.50
158.65
148.71
140.75
133.38
125.48
116.60
107.04
97.45
88.45
80.26
72.66
65.26
57.80
50.39
43.54
37.87
33.76
31.16
29.56
28.25
26.69
24.77
22.80
21.34
21.01
22.21
25.11
29.69
35.75
42.91
50.59
58.10
64.76
70.07
73.83
76.15
77.39
78.07
78.64
79.44
80.56
81.87
83.13
84.13
84.89
85.70
87.03
89.25
92.44
96.29
100.35
104.30
108.27
112.75
118.35
125.35
133.54
142.21
150.61
158.31
165.56
173.04
181.52
191.61
203.66
218.03
235.23
255.75
279.38
304.80
329.64
351.37
368.42
380.74
389.30
394.83
396.65
392.49
379.54
356.17
323.14
283.50
241.32
199.92
160.94
124.49
90.09
57.81
28.59
3.91
-14.98
-27.71
-34.88
-37.74
-37.79
-36.21
-33.73
-30.66
-27.18
-23.54
-20.18
-17.80
-17.12
-18.72
-22.88
-29.47
-38.06
-48.02
-58.63
-69.35
-79.86
-90.19
-100.68
-111.81
-124.00
-137.35
-151.57
-166.01
-179.93
-192.82
-204.69
-216.13
-228.12
-241.56
-256.89
-273.85
-291.56
-309.04
-325.61
-341.23
-356.45
-372.01
-388.55
-406.72
-427.43
-451.91
-480.79
-512.72
-543.30
-565.22
-570.25
-552.15
-509.01
-443.32
-360.48
-266.38
-166.45
-66.21
26.98
103.52
153.43
170.13
153.91
112.96
60.94
12.15
-23.25
-42.14
-48.05
-48.83
-52.92
-66.77
-93.58
-133.29
-183.49
-240.17
-297.89
-349.96
-389.31
-410.44
-411.84
-397.21
-374.29
-351.58
-334.47
-322.95
-312.35
-296.67
-272.12
-238.53
-198.03
-152.60
-102.36
-46.78
12.44
68.92
111.74
128.71
111.11
57.58
-24.77
-122.27
-218.46
-298.45
-352.49
-377.29
-375.60
-354.17
-321.11
-283.49
-245.99
-210.69
-177.96
-147.58
-119.47
-93.72
-70.05
-47.66
-25.28
-1.79
23.39
50.19
78.18
106.82
135.85
165.19
194.75
224.52
254.41
284.53
315.14
346.48
379.04
413.52
451.23
493.69
541.40
592.12
639.94
676.44
693.83
688.69
663.83
627.04
587.07
549.38
513.99
476.93
433.92
383.87
329.84
277.08
229.67
188.08
149.24
108.75
63.62
13.80
-38.14
-88.73
-135.55
-178.30
-218.77
-260.02
-304.84
-355.21
-412.15
-475.82
-545.23
-617.56
-687.51
-747.60
-789.82
-808.22
-801.31
-772.64
-729.39
-679.53
-629.29
-581.96
-538.57
-499.29
-464.63
-435.58
-412.78
-395.77
-382.81
-371.50
-359.91
-347.21
-333.65
-320.18
-307.46
-295.16
-281.97
-265.90
-245.06
-218.47
-186.46
-150.66
-113.41
-76.96
-42.74
-11.04
18.84
48.05
77.60
107.85
138.29
167.92
195.59
220.73
243.54
264.95
286.16
308.12
331.10
354.51
377.33
398.43
417.17
433.65
448.65
463.37
479.18
497.42
519.08
544.31
571.73
598.21
619.14
629.67
626.28
608.18
577.70
539.44
498.61
459.19
423.02
389.98
359.01
329.16
300.20
272.32
245.62
219.70
193.80
167.34
140.44
114.01
89.43
67.82
49.52
34.00
20.20
7.03
-6.19
-19.39
-31.77
-42.03
-48.95
-51.89
-51.17
-47.97
-43.87
-40.08
-36.97
-34.01
-30.24
-24.91
-17.85
-9.51
-0.59
8.33
16.91
24.95
32.26
38.65
44.20
49.36
54.89
61.43
69.12
77.20
84.33
89.10
90.83
90.03
88.32
87.67
89.55
94.18
100.45
106.49
110.47
111.30
108.98
104.49
99.38
95.32
93.69
95.32
100.50
109.02
120.36
133.96
149.62
167.77
189.62
216.78
250.46
290.44
334.32
377.43
413.65
437.04
443.39
431.26
402.03
359.08
306.67
248.91
189.33
130.67
74.86
22.83
-25.60
-71.58
-116.60
-161.72
-206.93
-251.02
-292.26
-329.26
-361.93
-391.64
-420.87
-452.31
-488.22
-529.87
-577.06
-627.76
-677.76
-720.87
-749.91
-758.78
-744.65
-709.26
-658.58
-600.45
-541.73
-486.22
-434.43
-385.26
-338.26
-294.91
-258.11
-230.16
-210.85
-196.75
-182.32
-162.64
-135.90
-104.47
-73.64
-48.86
-32.99
-24.99
-20.74
-15.63
-7.52
1.60
6.63
2.26
-13.59
-37.64
-62.04
-77.58
-77.86
-62.06
-34.96
-4.13
23.78
46.03
64.19
82.28
103.57
128.27
153.53
175.45
191.41
201.32
207.11
210.99
213.99
215.45
214.07
209.19
201.49
192.70
184.61
178.30
173.95
171.20
169.52
168.45
167.47
165.95
163.34
159.61
155.39
151.43
147.84
143.69
137.33
127.39
113.82
98.15
82.73
69.55
59.25
51.10
43.84
36.67
29.81
24.18
20.66
19.46
20.08
21.80
24.29
27.86
33.09
40.18
48.60
57.15
64.62
70.34
74.47
77.82
81.42
85.94
91.38
97.02
101.53
103.41
101.45
95.21
85.26
73.08
60.63
49.65
41.06
34.67
29.24
22.93
13.91
1.14
-15.20
-33.54
-51.38
-66.12
-75.88
-80.10
-79.61
-76.30
-72.53
-70.35
-71.02
-74.61
-80.10
-85.62
-89.03
-88.58
-83.50
-74.24
-62.16
-48.77
-34.87
-20.38
-4.81
11.82
28.40
42.87
53.23
58.68
60.08
59.41
58.66
58.56
58.11
55.33
48.48
37.37
23.80
11.09
2.59
0.33
3.92
10.68
16.93
19.89
18.82
14.88
9.90
5.01
0.35
-4.44
-9.10
-12.22
-11.73
-6.17
4.42
18.50
34.07
49.79
65.21
80.23
94.10
105.07
111.14
111.23
106.12
98.23
90.54
85.13
82.43
81.26
79.44
75.06
67.44
57.51
47.35
39.01
33.19
28.59
22.35
11.24
-6.74
-31.37
-60.25
-89.66
-115.85
-136.30
-150.56
-160.50
-169.68
-181.99
-199.94
-223.37
-249.05
-271.57
-285.01
-284.96
-269.70
-240.38
-200.25
-153.58
-104.76
-57.90
-16.33
17.82
44.16
63.95
79.39
92.64
104.82
115.90
125.26
132.46
137.79
142.03
145.88
149.30
151.54
151.72
149.55
145.60
140.81
135.50
128.55
117.53
99.85
74.41
42.90
9.79
-18.99
-38.24
-45.54
-42.22
-32.73
-22.94
-17.98
-20.43
-29.67
-42.79
-56.34
-68.01
-77.05
-83.38
-86.52
-84.93
-76.52
-59.85
-35.03
-3.54
32.90
73.32
117.31
163.84
209.87
250.37
280.32
297.33
303.47
304.21
305.26
309.08
313.57
313.64
304.50
284.58
256.10
223.39
190.08
157.28
123.77
87.59
48.15
6.82
-33.22
-68.92
-99.08
-125.12
-150.63
-179.86
-215.93
-259.30
-306.97
-353.11
-391.08
-416.51
-429.44
-434.69
-439.98
-453.18
-479.50
-520.00
-570.63
-623.94
-671.11
-704.04
-716.79
-706.42
-673.60
-622.51
-559.69
-490.51
-418.75
-347.02
-277.84
-214.26
-158.87
-113.14
-76.55
-46.51
-16.63
19.51
64.86
117.10
170.32
218.29
257.34
287.35
311.20
336.58
371.63
421.12
484.54
557.13
632.33
703.38
763.72
788.33
756.73
665.82
536.32
400.58
283.61
194.65
130.51
82.59
43.15
11.37
-9.73
-17.85
-15.17
-8.64
-6.98
-17.05
-41.86
-80.23
-125.75
-167.42
-197.15
-210.66
-207.72
-191.14
-165.46
-136.75
-111.62
-94.23
-86.46
-88.02
-96.29
-101.90
-96.24
-75.52
-44.13
-10.88
18.44
43.03
62.42
80.65
97.93
110.46
113.32
102.77
77.63
42.07
1.08
-40.51
-77.93
-107.65
-127.48
-136.57
-135.70
-127.11
-113.96
-99.82
-87.20
-76.25
-65.87
-54.86
-42.87
-30.77
-19.88
-10.95
-3.93
2.17
8.76
16.28
23.87
29.76
32.42
31.40
27.70
22.96
18.91
16.72
16.61
18.08
20.37
22.79
24.86
26.43
27.66
29.14
31.89
36.87
44.45
53.92
63.42
70.44
72.65
68.48
57.56
40.66
19.64
-2.69
-22.89
-37.47
-43.81
-41.00
-30.25
-14.47
2.73
18.21
29.96
37.28
40.37
39.94
36.92
32.31
27.10
21.96
16.92
11.30
4.09
-5.37
-16.96
-29.43
-40.91
-49.47
-53.94
-54.21
-51.16
-46.27
-41.00
-36.40
-32.92
-30.54
-28.99
-28.02
-27.45
-27.07
-26.64
-25.87
-24.52
-22.53
-20.12
-17.69
-15.74
-14.73
-14.98
-16.65
-19.71
-23.94
-28.94
-34.09
-38.65
-41.92
-43.55
-43.64
-42.90
-42.38
-42.96
-44.85
-47.28
-48.58
-46.78
-40.53
-29.73
-15.76
-1.01
12.03
21.64
27.38
29.90
30.38
29.93
29.22
28.60
28.46
29.51
32.55
38.05
45.63
54.06
61.68
67.34
70.96
73.65
76.98
81.96
88.44
95.00
99.79
101.33
99.12
93.41
84.71
73.18
58.45
39.99
17.72
-7.64
-34.68
-61.70
-87.36
-110.80
-131.49
-148.74
-161.58
-169.09
-170.99
-168.17
-162.45
-155.83
-149.43
-142.86
-134.46
-122.13
-104.51
-81.53
-54.46
-25.44
3.11
28.92
50.19
65.98
76.39
82.67
86.76
90.83
96.49
104.50
114.54
125.40
135.32
142.47
145.45
143.51
136.73
125.98
112.53
97.75
82.81
68.54
55.35
43.33
32.31
22.01
12.34
3.48
-4.11
-10.00
-14.09
-16.63
-17.79
-17.21
-13.90
-6.81
4.06
17.02
29.11
37.59
41.42
41.94
41.97
44.09
49.21
56.40
63.96
70.96
77.84
85.70
94.74
103.18
107.49
104.03
90.75
68.06
38.12
3.10
-36.13
-79.91
-128.63
-181.17
-234.07
-282.05
-319.78
-343.80
-353.73
-351.93
-341.76
-325.69
-304.15
-276.18
-241.86
-204.58
-171.66
-152.23
-153.02
-174.31
-208.82
-244.23
-268.38
-274.42
-263.09
-241.02
-216.38
-194.85
-177.50
-161.84
-144.50
-123.52
-99.14
-72.83
-46.25
-20.76
2.41
21.86
36.07
44.13
46.62
45.59
43.91
43.95
46.61
51.27
56.72
62.26
68.26
76.08
87.00
101.41
118.75
137.98
158.55
181.00
206.67
236.60
270.51
305.99
339.50
368.03
390.58
407.95
421.22
429.75
430.68
420.70
399.04
369.62
340.25
319.24
311.41
315.66
325.91
334.55
335.79
327.34
309.76
284.52
252.42
213.68
168.99
120.38
71.56
26.97
-9.73
-36.76
-54.64
-66.04
-74.69
-84.31
-97.89
-117.40
-143.72
-176.52
-213.65
-250.99
-283.06
-304.44
-311.63
-304.22
-285.04
-259.27
-232.80
-210.60
-195.72
-188.67
-187.48
-188.58
-187.75
-181.27
-167.03
-145.11
-117.67
-88.56
-62.50
-44.01
-36.49
-41.08
-55.96
-76.78
-98.12
-115.39
-126.25
-130.63
-129.63
-124.22
-114.66
-101.18
-85.15
-69.23
-56.54
-49.18
-47.14
-48.49
-50.48
-50.42
-46.26
-36.38
-19.49
4.66
34.49
66.40
95.63
118.23
132.88
141.19
146.55
152.02
158.62
165.32
170.20
171.83
169.95
165.12
157.83
148.19
135.94
120.89
103.42
84.68
66.32
50.37
38.90
33.45
34.41
40.73
49.87
58.69
64.46
65.60
62.16
55.54
47.89
41.41
37.66
36.99
38.47
40.49
41.54
40.81
38.20
33.92
28.24
21.59
14.81
9.47
7.70
11.51
21.95
38.34
58.15
77.79
93.94
104.99
111.92
118.14
128.24
146.31
174.02
209.69
248.64
284.54
311.63
326.31
327.71
317.01
296.56
268.85
235.96
199.54
160.87
120.97
80.74
41.25
3.82
-29.93
-58.50
-81.17
-98.58
-113.02
-127.73
-145.97
-169.67
-198.87
-232.19
-267.96
-305.60
-346.31
-392.76
-447.45
-510.70
-579.10
-645.37
-700.06
-734.47
-743.72
-728.37
-694.08
-648.92
-600.12
-551.81
-504.70
-457.76
-410.30
-363.26
-318.78
-278.65
-242.80
-208.89
-173.48
-133.74
-88.93
-40.63
8.06
54.08
95.79
133.62
169.48
205.82
244.60
286.79
332.38
380.42
429.01
474.93
513.56
539.35
547.00
533.08
497.17
442.17
373.53
297.73
220.65
146.74
78.58
17.16
-37.79
-87.59
-134.71
-182.68
-235.32
-295.05
-361.06
-428.19
-487.51
-529.21
-546.24
-537.15
-506.79
-464.11
-418.54
-376.66
-340.85
-310.16
-282.51
-256.60
-232.55
-211.31
-193.52
-178.90
-166.35
-154.75
-143.49
-132.63
-122.83
-114.63
-108.12
-102.74
-97.49
-91.23
-83.01
-72.30
-58.89
-42.83
-24.17
-2.95
20.76
46.82
74.97
104.83
136.10
168.56
202.18
237.21
274.24
313.98
356.77
401.83
446.60
486.88
517.72
535.10
537.46
526.19
504.94
478.20
449.83
422.47
397.77
376.99
361.19
350.81
344.97
341.27
336.44
327.74
314.24
297.17
279.16
263.09
250.87
242.97
238.68
236.72
235.53
233.38
228.40
218.92
204.30
185.65
165.78
148.23
135.37
126.72
118.75
106.25
84.97
54.15
17.31
-19.25
-49.68
-71.40
-86.03
-97.77
-110.36
-124.60
-137.88
-145.71
-144.35
-132.80
-113.36
-90.29
-67.88
-48.87
-33.85
-22.05
-12.53
-5.19
-1.05
-1.91
-9.14
-22.84
-41.48
-62.38
-82.99
-102.25
-120.89
-140.71
-163.03
-187.21
-210.36
-228.35
-237.48
-235.82
-223.52
-202.13
-173.72
-140.46
-104.60
-68.77
-35.78
-8.15
12.54
25.77
31.70
30.46
21.72
5.14
-18.90
-48.38
-79.79
-109.04
-132.87
-149.78
-160.25
-165.87
-168.37
-168.84
-167.44
-163.56
-156.12
-144.07
-126.73
-104.11
-77.26
-48.22
-19.62
6.04
27.28
43.96
57.21
68.71
79.91
91.40
102.90
113.57
122.56
129.31
133.57
135.18
134.02
130.05
123.57
115.44
107.04
99.87
94.97
92.60
92.18
92.74
93.42
93.97
94.73
96.34
99.33
103.75
109.18
114.98
120.63
125.85
130.74
135.54
140.40
145.18
149.37
152.12
152.32
148.82
140.81
127.97
110.60
89.34
64.85
37.62
8.27
-21.94
-50.97
-76.37
-96.24
-110.11
-119.12
-125.02
-129.33
-132.71
-135.29
-137.59
-141.07
-147.85
-159.42
-175.41
-193.33
-209.89
-222.22
-228.76
-229.22
-223.96
-213.42
-198.19
-179.41
-158.48
-136.33
-112.90
-87.17
-58.21
-26.14
7.22
38.52
63.50
77.58
76.85
59.23
26.15
-16.49
-58.43
-87.45
-93.12
-70.31
-21.02
46.59
120.59
188.56
240.55
270.96
279.19
269.05
246.93
219.14
189.24
157.12
120.19
75.70
22.75
-37.29
-101.66
-167.43
-231.77
-291.30
-342.05
-380.33
-404.78
-417.90
-425.11
-432.01
-440.84
-449.14
-451.42
-442.74
-421.96
-392.24
-358.83
-325.74
-293.71
-260.70
-224.28
-184.05
-142.20
-102.16
-66.44
-34.96
-5.25
25.96
60.49
97.64
134.31
166.51
191.28
207.86
217.76
223.86
228.80
233.95
239.15
243.22
244.79
242.89
237.09
227.38
214.09
197.82
179.51
160.21
140.63
120.91
100.80
80.25
60.04
41.82
27.36
17.62
12.20
9.55
7.91
6.28
4.87
4.67
6.72
11.38
18.35
26.97
36.77
47.68
59.74
72.72
85.89
98.10
108.27
115.81
120.77
123.75
125.49
126.49
126.85
126.19
123.96
119.65
113.02
104.20
93.68
82.38
71.43
62.05
55.24
51.44
50.41
51.29
52.94
54.32
54.86
54.59
53.96
53.47
53.28
53.14
52.52
51.07
48.90
46.72
45.54
46.22
49.01
53.51
58.89
64.36
69.58
74.68
80.04
85.92
92.30
99.05
106.20
114.10
123.23
133.78
145.43
157.35
168.71
179.18
189.04
198.73
208.36
217.43
225.17
231.06
235.16
237.95
239.66
239.82
237.35
231.22
221.26
208.50
194.76
181.70
170.13
159.77
149.69
138.93
126.74
112.55
95.69
75.38
51.04
22.70
-8.92
-42.47
-76.46
-109.86
-142.42
-174.67
-207.71
-242.78
-280.82
-321.95
-365.02
-407.46
-445.39
-474.41
-490.83
-492.87
-481.44
-459.84
-432.67
-404.16
-376.94
-351.58
-327.39
-303.69
-280.90
-260.73
-245.24
-235.48
-230.52
-227.49
-222.53
-212.46
-196.09
-174.47
-150.09
-125.55
-102.34
-80.72
-60.28
-40.84
-22.90
-7.37
5.02
14.13
20.43
24.61
27.29
28.84
29.47
29.40
28.88
28.17
27.53
27.10
27.06
27.54
28.66
30.36
32.39
34.40
36.17
37.62
38.87
39.92
40.50
40.09
38.13
34.31
28.79
22.24
15.80
10.82
8.45
9.30
13.17
19.13
25.89
32.36
37.91
42.29
45.37
46.98
46.88
45.08
42.03
38.59
35.64
33.64
32.35
31.10
29.20
26.46
23.23
20.14
17.57
15.47
13.43
11.10
8.54
6.13
4.30
3.17
2.32
1.04
-1.26
-4.71
-8.79
-12.56
-14.97
-15.25
-13.08
-8.59
-2.28
5.23
13.34
21.50
29.19
35.85
40.86
43.70
44.21
42.60
39.50
35.70
31.81
28.28
25.33
23.17
22.00
21.98
23.04
24.85
26.83
28.31
28.74
27.72
25.10
20.91
15.32
8.69
1.47
-5.77
-12.51
-18.35
-22.98
-26.21
-27.87
-27.84
-26.13
-22.95
-18.64
-13.64
-8.29
-2.89
2.26
6.73
10.01
11.64
11.44
9.66
6.91
3.98
1.56
-0.04
-0.83
-1.11
-1.20
-1.30
-1.38
-1.29
-0.83
0.14
1.59
3.32
5.11
6.73
8.10
9.25
10.17
10.74
10.78
10.18
9.08
7.95
7.43
8.17
10.60
14.76
20.36
26.78
33.20
38.76
42.70
44.55
44.37
42.61
39.89
36.53
32.33
26.71
19.10
9.22
-2.67
-15.93
-29.67
-42.86
-54.44
-63.48
-69.41
-72.28
-72.83
-72.28
-71.83
-72.25
-73.56
-75.19
-76.48
-77.04
-76.90
-76.25
-75.20
-73.71
-71.81
-69.87
-68.54
-68.46
-69.74
-71.89
-74.03
-75.48
-76.16
-76.71
-77.95
-80.31
-83.40
-86.20
-87.48
-86.36
-82.59
-76.25
-67.33
-55.59
-40.72
-23.03
-3.76
15.03
31.19
43.28
51.14
55.62
58.05
59.47
60.30
60.40
59.52
57.57
54.83
51.82
49.13
47.22
46.40
46.82
48.44
50.97
53.88
56.53
58.39
59.21
59.05
58.14
56.69
54.60
51.61
47.32
41.63
34.78
27.30
19.74
12.35
5.14
-1.98
-8.86
-14.91
-19.17
-20.74
-19.48
-16.36
-13.24
-12.16
-14.53
-20.61
-29.82
-41.22
-54.25
-68.91
-85.47
-103.96
-123.77
-143.67
-162.23
-178.30
-191.08
-199.85
-203.54
-200.73
-190.10
-171.11
-144.53
-112.48
-77.81
-43.47
-11.82
15.77
39.06
58.58
75.13
89.16
100.31
107.62
110.21
108.29
103.61
99.09
97.46
99.83
105.12
110.51
112.98
110.68
103.53
92.96
81.12
70.14
61.62
56.71
55.97
59.28
65.77
74.11
83.13
92.23
101.59
111.37
121.47
131.29
140.07
147.33
153.19
158.45
164.23
171.52
180.03
189.23
198.88
209.68
222.81
239.01
258.16
279.13
300.25
318.22
330.24
334.34
330.00
317.35
296.45
267.48
231.44
190.55
145.41
97.19
46.96
-3.29
-51.60
-96.88
-138.77
-177.12
-211.66
-245.57
-281.88
-323.57
-371.28
-424.23
-481.77
-543.63
-609.49
-657.56
-669.68
-639.58
-579.64
-509.33
-443.35
-388.37
-345.50
-313.47
-290.18
-282.76
-287.77
-299.62
-309.33
-307.62
-288.94
-253.40
-205.88
-153.37
-104.53
-63.33
-33.24
-13.34
-0.05
10.19
19.82
30.43
43.43
58.44
75.25
92.30
108.78
124.45
139.38
154.24
170.48
189.90
212.99
239.46
267.42
295.08
321.22
345.48
368.49
391.93
418.33
450.31
490.24
538.51
592.77
647.16
692.97
721.15
725.61
705.53
665.59
613.90
558.44
504.54
453.99
406.14
359.86
315.03
272.53
233.16
196.56
160.98
124.14
84.65
42.85
0.76
-38.60
-72.85
-101.29
-125.19
-147.29
-170.52
-196.78
-226.19
-257.31
-287.82
-315.71
-340.18
-361.86
-382.70
-405.60
-433.83
-470.22
-515.68
-567.77
-619.90
-662.32
-684.74
-680.03
-646.91
-590.45
-519.66
-443.97
-369.91
-299.93
-233.48
-168.95
-105.10
-41.03
24.38
92.41
163.16
233.63
296.80
343.09
363.74
354.34
317.02
259.65
192.64
125.20
62.88
7.09
-43.51
-91.27
-138.57
-187.74
-241.22
-300.88
-366.46
-434.10
-496.17
-543.23
-567.26
-565.12
-540.05
-500.33
-456.14
-415.84
-383.84
-360.54
-344.03
-332.13
-323.65
-318.25
-315.68
-315.00
-314.54
-312.45
-307.39
-298.89
-287.34
-273.53
-258.03
-240.86
-221.47
-199.06
-173.09
-143.68
-111.80
-79.03
-47.12
-17.47
9.27
33.23
55.17
75.98
96.32
116.29
135.49
153.26
169.05
182.76
194.84
206.16
217.74
230.36
244.29
259.22
274.47
289.31
303.25
316.22
328.47
340.47
352.72
365.73
379.94
395.55
412.15
428.24
441.31
448.35
446.90
436.02
416.80
391.96
364.82
338.17
313.51
291.08
270.32
250.76
232.43
215.88
201.74
190.13
180.37
171.10
160.84
148.64
134.58
119.49
104.46
90.16
76.66
63.81
51.98
42.34
36.56
35.89
40.32
48.21
56.94
63.87
67.36
66.93
63.14
57.06
50.02
43.49
38.88
37.30
39.02
43.28
48.48
52.92
55.63
56.92
58.19
61.23
67.16
75.83
85.84
95.15
102.12
106.07
107.40
107.40
107.67
109.79
115.00
124.01
136.75
152.08
167.58
180.06
186.43
184.70
174.70
158.01
137.01
113.83
89.46
63.51
34.78
2.49
-32.40
-66.65
-95.34
-113.71
-119.47
-114.44
-104.32
-96.38
-96.14
-104.91
-119.32
-133.26
-141.28
-141.37
-136.06
-131.01
-132.14
-142.50
-160.66
-181.60
-199.39
-210.24
-214.12
-214.22
-214.59
-217.61
-222.90
-228.30
-232.00
-234.30
-237.42
-243.43
-252.02
-259.98
-263.04
-258.97
-249.34
-238.59
-230.87
-227.11
-224.35
-217.85
-204.40
-184.45
-162.01
-142.31
-128.88
-121.92
-118.69
-115.28
-108.42
-96.38
-78.72
-55.74
-27.91
4.36
40.66
80.36
122.33
164.53
203.94
237.06
261.00
274.90
280.29
280.33
278.34
276.41
274.90
273.01
269.76
264.75
258.33
251.33
244.62
238.95
234.63
231.45
228.60
224.85
218.91
209.79
196.89
180.25
160.72
140.09
120.91
105.92
97.26
95.86
101.27
112.14
126.99
144.73
164.51
184.99
203.67
216.91
221.04
213.84
195.45
168.04
134.60
97.47
57.95
16.89
-24.30
-62.92
-95.34
-118.26
-130.14
-131.73
-125.53
-114.54
-101.13
-86.82
-72.73
-59.88
-48.92
-39.47
-29.55
-15.99
4.19
32.23
66.63
103.44
137.73
165.28
183.86
193.55
196.23
194.42
190.12
184.10
175.69
163.55
146.81
125.97
103.00
80.42
59.96
41.66
23.97
4.86
-16.76
-40.29
-63.94
-85.78
-104.82
-121.59
-137.71
-154.84
-174.19
-196.31
-221.71
-251.24
-285.24
-321.82
-355.61
-378.27
-381.40
-360.40
-316.83
-257.33
-190.30
-121.96
-54.99
10.06
71.95
126.98
170.17
198.26
212.35
217.63
220.44
224.30
227.97
226.78
216.03
194.08
163.39
128.93
95.25
64.82
37.35
10.88
-16.23
-44.31
-72.43
-99.44
-124.86
-149.16
-172.68
-194.29
-211.01
-219.00
-216.17
-203.74
-186.17
-168.56
-153.66
-140.85
-127.59
-112.62
-97.63
-86.57
-82.43
-84.98
-90.51
-94.43
-94.95
-94.55
-98.76
-112.05
-134.61
-161.90
-187.43
-207.19
-221.89
-235.77
-253.13
-275.55
-301.19
-326.93
-350.87
-373.37
-395.61
-416.96
-433.43
-438.09
-424.39
-389.49
-336.10
-271.45
-203.79
-139.04
-79.41
-24.15
28.77
80.81
132.71
185.23
239.78
298.54
362.96
431.90
500.38
559.87
600.68
615.47
602.09
564.45
510.84
450.60
391.00
335.67
285.08
238.03
193.15
149.47
106.19
62.29
16.57
-31.78
-82.76
-135.25
-187.57
-238.10
-286.01
-331.71
-376.93
-424.40
-476.94
-535.83
-599.17
-660.98
-712.14
-743.11
-747.58
-725.07
-681.24
-625.66
-568.06
-515.16
-469.53
-430.55
-396.63
-367.00
-342.11
-322.90
-309.50
-300.81
-294.83
-289.67
-284.30
-278.72
-273.74
-270.06
-267.60
-265.36
-261.57
-254.43
-242.73
-226.25
-205.79
-182.74
-158.53
-134.18
-110.14
-86.45
-63.01
-39.86
-17.26
4.36
24.58
43.21
60.22
75.74
89.82
102.44
113.59
123.41
132.33
141.02
150.19
160.17
170.73
181.04
190.07
197.08
202.13
206.21
210.92
217.79
227.54
239.71
252.85
265.26
275.85
284.74
293.28
303.37
316.64
333.94
355.31
380.32
407.99
436.33
461.63
478.59
481.68
468.00
439.57
403.54
369.37
344.38
330.21
322.90
316.10
305.45
291.10
276.67
265.75
258.63
251.55
238.91
216.93
186.04
150.59
116.31
87.09
63.29
42.38
21.02
-2.49
-27.01
-49.20
-65.23
-72.81
-72.17
-65.56
-55.61
-43.85
-30.20
-13.86
5.29
25.87
45.43
61.58
72.97
79.44
81.38
79.08
72.87
63.65
53.45
45.10
40.94
41.74
46.23
51.88
56.25
57.96
56.77
53.06
47.14
39.05
28.75
16.54
3.07
-10.78
-24.21
-36.74
-48.08
-57.97
-66.08
-71.98
-75.29
-75.78
-73.36
-68.09
-60.25
-50.43
-39.43
-27.96
-16.12
-3.26
11.61
28.98
48.07
66.72
82.12
91.95
95.31
92.89
86.25
76.93
65.78
52.90
38.15
21.57
3.48
-15.74
-35.71
-56.05
-75.67
-92.40
-103.20
-105.16
-96.78
-78.91
-54.59
-27.80
-1.99
20.99
40.77
57.49
70.70
79.07
80.90
75.23
62.42
44.14
22.52
-0.65
-24.08
-46.69
-66.96
-82.83
-92.04
-92.90
-85.02
-69.49
-48.50
-24.65
-0.27
22.95
43.91
61.84
76.04
85.88
90.85
90.84
86.22
77.65
65.78
50.87
32.86
11.65
-12.26
-37.41
-61.31
-81.02
-94.04
-99.12
-96.65
-88.30
-76.19
-62.11
-47.10
-31.72
-16.65
-3.23
6.61
10.79
7.87
-2.38
-19.04
-40.49
-65.01
-90.88
-116.11
-138.00
-153.16
-158.39
-151.93
-134.47
-109.09
-80.01
-50.94
-23.58
2.51
28.95
56.85
85.76
113.55
137.47
155.63
167.81
175.39
180.37
184.34
187.89
190.85
192.92
194.31
195.93
198.80
203.50
209.61
215.78
220.31
222.01
220.53
216.20
209.42
200.21
188.24
173.38
156.22
138.03
120.42
104.51
90.28
76.53
61.76
45.58
29.54
16.88
10.80
12.17
18.40
24.22
23.97
14.15
-5.16
-30.61
-57.03
-79.03
-92.02
-92.32
-77.38
-46.65
-2.94
46.90
92.92
125.03
136.37
125.36
95.45
53.26
6.64
-36.98
-71.48
-92.94
-100.80
-98.48
-92.76
-91.44
-100.29
-120.75
-149.76
-181.92
-212.96
-242.33
-273.43
-311.33
-358.72
-412.97
-465.47
-504.14
-517.83
-500.70
-454.09
-385.65
-306.02
-225.55
-152.56
-93.01
-50.75
-27.09
-19.35
-19.98
-18.05
-3.31
28.94
75.08
124.87
166.53
191.90
198.94
190.58
171.09
143.07
106.94
62.81
13.52
-34.12
-70.64
-87.23
-80.06
-52.72
-15.05
20.99
46.36
58.23
59.86
57.92
58.75
65.65
78.39
94.63
111.35
125.55
134.26
134.19
122.42
97.85
62.20
20.17
-21.38
-54.77
-72.85
-70.28
-45.35
-1.61
51.71
101.64
135.91
147.59
137.64
113.78
86.42
63.87
49.83
43.62
42.24
42.83
43.56
43.30
40.87
35.03
24.96
11.19
-4.21
-18.70
-30.90
-41.89
-55.59
-77.24
-110.49
-154.54
-202.97
-244.67
-267.50
-263.40
-232.52
-183.92
-132.23
-91.58
-70.29
-68.61
-81.08
-100.52
-121.46
-140.94
-157.06
-167.64
-170.72
-166.22
-157.32
-149.63
-148.35
-154.86
-165.50
-173.12
-170.71
-155.25
-129.42
-100.07
-75.33
-61.25
-59.80
-68.55
-82.14
-94.48
-101.00
-99.91
-92.46
-81.55
-69.41
-56.32
-40.56
-19.86
5.99
34.05
58.92
74.91
78.64
70.74
55.57
39.23
26.76
19.84
16.68
13.79
8.84
2.79
0.21
6.72
25.52
54.90
88.11
116.44
133.57
138.82
137.40
137.02
143.06
155.58
169.43
177.81
177.02
168.51
157.63
149.84
147.07
146.84
144.37
136.05
122.00
105.97
92.89
85.90
84.77
86.39
87.01
84.53
79.41
73.65
69.16
66.22
63.28
58.23
49.89
38.81
27.05
17.07
10.48
7.37
6.59
6.84
7.88
10.89
17.95
30.83
49.74
72.44
94.77
112.12
121.20
121.36
114.65
104.63
94.58
86.32
80.33
76.76
76.36
80.49
90.26
105.43
124.17
144.05
163.28
181.48
199.32
217.41
235.50
252.45
266.97
278.30
286.15
290.43
290.72
286.59
278.05
266.07
252.45
238.73
225.20
210.57
192.96
171.39
146.87
122.17
100.48
83.80
72.01
63.14
54.45
43.52
28.86
9.93
-13.23
-40.04
-69.32
-99.23
-127.29
-151.25
-170.04
-184.52
-197.42
-212.74
-234.41
-264.75
-303.13
-344.89
-381.44
-401.84
-395.89
-358.27
-291.61
-206.97
-120.88
-49.94
-5.49
9.24
-1.58
-29.97
-68.16
-111.07
-156.20
-202.25
-247.39
-289.06
-325.13
-355.32
-382.04
-410.02
-444.65
-489.79
-545.79
-608.43
-669.18
-717.45
-743.90
-743.79
-718.73
-675.88
-624.98
-574.54
-529.14
-489.11
-452.44
-417.21
-383.40
-352.68
-327.03
-307.14
-291.71
-278.22
-264.26
-248.77
-232.36
-216.93
-204.45
-195.84
-190.50
-186.44
-181.10
-172.30
-158.97
-141.31
-120.54
-98.18
-75.38
-52.64
-29.75
-6.19
18.46
44.23
70.65
96.90
122.19
146.01
168.31
189.52
210.27
231.17
252.54
274.31
296.13
317.53
338.23
358.08
377.15
395.54
413.40
431.00
449.14
469.15
492.42
519.36
548.49
576.19
597.50
607.36
602.13
580.46
543.46
494.32
437.65
378.72
322.82
274.46
236.72
210.57
194.62
185.28
177.58
166.61
149.05
124.32
94.78
64.80
39.24
21.47
12.34
10.45
13.33
18.81
25.69
33.55
41.92
49.75
55.56
58.04
56.72
52.00
44.69
35.41
24.45
11.94
-1.69
-15.42
-27.81
-37.55
-44.05
-47.73
-49.63
-50.68
-51.14
-50.47
-47.74
-42.18
-33.64
-22.57
-9.79
3.80
17.29
29.59
39.39
45.23
45.84
40.65
29.94
14.81
-3.19
-22.57
-42.16
-61.15
-78.83
-94.38
-106.80
-115.21
-119.28
-119.50
-116.95
-112.60
-106.59
-98.03
-85.61
-68.49
-47.17
-23.49
0.24
22.39
42.65
61.54
79.38
95.29
107.27
113.21
112.15
104.95
93.64
80.21
65.60
49.62
31.79
12.31
-7.42
-25.33
-39.66
-49.81
-56.44
-60.86
-64.16
-66.66
-68.11
-68.21
-66.94
-64.54
-61.15
-56.61
-50.45
-42.33
-32.32
-20.95
-9.03
2.74
13.88
24.09
33.09
40.45
45.73
48.57
48.80
46.29
40.86
32.50
21.63
9.24
-3.23
-14.38
-23.40
-30.15
-34.70
-36.86
-35.90
-30.93
-21.69
-9.17
4.51
16.95
26.70
33.80
39.28
43.80
46.56
45.35
37.87
23.77
5.64
-11.45
-22.12
-23.23
-15.46
-2.73
9.87
18.62
22.54
22.84
21.17
17.83
11.74
1.86
-10.86
-22.75
-28.61
-24.25
-8.80
14.81
41.25
65.37
84.22
97.36
105.61
109.25
107.17
97.29
78.14
50.36
17.11
-16.83
-46.87
-70.28
-86.85
-98.36
-107.41
-116.19
-125.81
-136.27
-146.79
-156.14
-162.92
-165.71
-163.49
-156.06
-144.26
-129.82
-114.80
-101.02
-89.56
-80.67
-73.94
-68.46
-63.13
-56.84
-48.77
-38.56
-26.38
-12.77
1.48
15.29
27.13
35.20
38.21
36.21
31.21
26.46
24.90
27.54
32.78
37.53
39.01
36.31
30.65
24.16
18.44
13.92
10.22
7.01
4.62
3.64
4.23
5.73
6.99
7.24
6.79
7.01
9.54
15.25
23.64
32.87
40.65
45.32
46.46
44.90
42.18
39.78
38.56
38.61
39.27
39.60
38.78
36.60
33.61
30.82
29.15
28.80
29.18
29.20
27.94
25.23
21.70
18.32
15.66
13.55
11.15
7.58
2.42
-4.09
-11.34
-18.76
-25.94
-32.56
-38.11
-41.82
-42.84
-40.73
-35.67
-28.55
-20.81
-14.02
-9.56
-8.19
-9.78
-13.20
-16.64
-18.23
-16.88
-12.73
-6.98
-1.27
3.23
6.20
8.04
9.28
10.04
10.06
9.13
7.68
6.85
7.87
11.31
16.45
21.58
24.95
25.81
24.92
24.02
24.79
27.84
32.45
37.15
40.74
43.01
44.63
46.53
49.12
52.06
54.52
55.94
56.37
56.36
56.41
56.45
55.83
53.80
50.24
45.87
41.99
39.89
40.21
42.82
47.04
52.13
57.55
62.99
68.18
72.83
76.53
79.08
80.58
81.46
82.03
81.92
79.81
73.63
61.41
42.51
18.46
-7.39
-31.00
-49.09
-60.19
-64.62
-63.85
-59.65
-53.75
-47.92
-43.99
-43.30
-46.07
-51.02
-55.30
-55.44
-48.38
-31.66
-3.48
36.59
86.88
142.73
196.92
242.00
272.83
288.15
289.93
281.39
265.18
243.19
217.53
191.48
169.29
153.78
144.17
135.61
121.14
94.93
55.35
5.56
-48.11
-98.82
-142.03
-176.19
-201.85
-219.99
-230.57
-232.17
-223.07
-202.66
-172.25
-135.63
-98.10
-65.10
-41.34
-30.44
-35.05
-56.53
-94.05
-143.00
-194.68
-237.67
-261.11
-258.09
-227.03
-171.39
-97.98
-15.44
67.11
140.66
197.46
232.22
242.80
230.57
199.63
155.68
105.32
55.50
13.06
-16.68
-31.86
-35.62
-35.53
-41.26
-61.04
-98.68
-152.36
-216.04
-281.43
-340.20
-385.44
-412.05
-416.98
-399.51
-361.42
-307.07
-243.09
-177.55
-119.35
-77.73
-60.77
-73.40
-115.12
-178.33
-248.98
-310.30
-348.59
-358.76
-346.27
-324.47
-307.80
-304.66
-313.76
-325.76
-329.19
-316.83
-288.99
-252.08
-213.78
-178.61
-146.22
-113.27
-76.88
-37.05
3.36
40.74
73.50
102.94
132.30
164.51
199.96
235.64
266.10
285.66
290.69
281.44
262.37
241.14
226.58
225.91
242.08
272.47
309.57
343.58
365.92
371.94
361.87
339.52
309.71
276.11
241.05
206.43
174.98
150.53
136.49
133.80
139.71
148.34
153.09
149.25
135.64
114.22
88.41
61.02
33.38
5.79
-21.45
-47.05
-68.78
-84.62
-93.64
-96.29
-94.07
-88.25
-78.83
-64.03
-40.83
-7.06
36.21
83.05
123.65
147.77
149.72
131.47
102.12
73.91
56.65
53.88
62.49
75.67
86.83
92.63
93.22
90.53
86.24
80.64
72.87
61.87
46.95
27.96
5.17
-21.20
-50.88
-83.77
-120.20
-160.74
-205.95
-256.27
-311.88
-372.77
-438.08
-505.14
-568.69
-621.16
-654.80
-664.45
-649.62
-614.76
-567.39
-515.05
-462.73
-412.16
-362.88
-314.24
-266.72
-222.03
-182.00
-147.34
-116.99
-88.70
-60.20
-30.27
0.85
31.59
60.07
85.00
106.34
125.35
144.15
164.86
188.94
216.97
248.92
284.53
323.32
364.17
404.72
441.27
469.41
485.58
488.38
479.35
462.26
441.43
420.03
399.13
378.04
355.45
330.53
303.48
275.12
246.24
217.13
187.72
158.06
128.82
101.34
77.25
57.73
43.06
32.57
25.01
19.11
14.07
9.70
6.28
4.18
3.48
3.93
4.97
6.06
6.97
7.84
9.18
11.62
15.58
21.06
27.59
34.26
40.04
44.06
45.80
45.24
42.81
39.21
35.23
31.55
28.57
26.42
24.92
23.71
22.36
20.59
18.33
15.80
13.32
11.01
8.65
5.61
1.21
-4.93
-12.28
-19.49
-24.67
-26.13
-23.22
-16.81
-9.43
-4.83
-7.03
-18.86
-40.59
-69.06
-98.09
-120.20
-129.12
-122.16
-101.16
-71.72
-41.00
-15.15
2.26
10.52
10.72
4.49
-6.87
-22.32
-40.63
-60.03
-78.47
-94.30
-107.13
-117.85
-127.89
-137.83
-146.27
-149.72
-143.97
-126.05
-95.94
-57.06
-15.29
23.07
53.31
73.41
83.81
86.35
83.01
75.05
62.88
46.50
26.01
2.01
-24.40
-51.72
-78.26
-102.02
-120.46
-130.56
-129.44
-115.64
-90.30
-57.45
-23.03
7.21
29.74
44.03
51.76
54.98
54.50
49.45
38.19
19.82
-4.86
-33.41
-62.62
-89.56
-112.14
-129.07
-139.50
-142.78
-138.55
-127.08
-109.49
-87.67
-63.98
-40.72
-19.66
-1.73
13.01
25.14
35.45
44.54
52.68
59.95
66.51
72.72
79.12
86.17
94.04
102.55
111.33
119.99
128.29
136.15
143.42
149.69
154.36
156.79
156.67
154.16
149.80
144.15
137.51
129.89
121.19
111.63
101.90
93.03
85.96
81.10
78.24
76.71
75.63
73.99
70.69
64.73
55.51
43.23
28.78
13.34
-2.07
-16.84
-30.57
-42.90
-53.55
-62.65
-70.93
-79.55
-89.38
-100.42
-111.49
-120.79
-126.75
-128.79
-127.48
-124.14
-120.31
-117.41
-116.57
-118.60
-123.75
-131.52
-140.79
-149.89
-156.90
-159.98
-157.57
-148.72
-133.38
-112.75
-89.08
-65.16
-43.34
-24.81
-9.46
3.70
15.96
28.40
41.68
55.93
70.61
84.65
96.88
106.66
114.41
121.34
128.68
136.87
145.38
153.18
159.52
164.42
168.60
172.79
176.94
179.65
178.26
169.96
153.02
128.03
98.07
67.48
39.99
17.18
-1.62
-18.20
-33.75
-47.95
-59.36
-66.84
-70.79
-73.43
-77.97
-87.11
-101.96
-121.65
-143.82
-165.43
-183.37
-194.82
-197.39
-189.56
-170.97
-142.70
-107.16
-68.02
-29.55
4.34
31.12
50.52
64.36
75.38
85.24
93.25
96.38
90.88
74.51
48.14
15.95
-15.89
-41.05
-55.22
-57.47
-50.16
-37.49
-23.40
-10.07
2.30
14.22
25.38
33.95
37.75
36.08
30.91
26.09
25.09
28.70
34.11
36.29
30.91
16.70
-4.07
-27.07
-48.03
-64.27
-74.70
-79.14
-77.96
-72.30
-64.29
-56.68
-51.87
-50.66
-52.07
-54.50
-57.26
-61.47
-69.55
-83.46
-103.01
-125.25
-145.60
-160.00
-166.91
-167.86
-166.35
-165.68
-167.30
-170.54
-173.71
-175.55
-175.97
-175.70
-175.00
-172.67
-166.04
-152.33
-130.38
-101.73
-70.12
-39.40
-11.66
13.57
37.84
61.50
82.51
97.37
103.99
104.12
103.58
109.54
126.45
153.03
182.49
205.89
216.76
214.05
201.94
186.81
173.52
163.17
153.67
141.97
126.49
108.19
90.01
75.41
66.71
64.21
66.46
71.20
76.42
81.32
86.05
91.09
96.35
100.64
102.06
99.01
91.08
79.24
65.22
50.61
36.40
23.21
11.90
3.92
0.86
3.56
11.43
22.53
34.27
44.39
51.41
54.73
54.34
50.80
45.24
39.35
34.94
33.17
34.21
37.43
41.98
47.44
53.75
60.71
67.30
71.62
71.57
66.01
55.49
42.21
29.02
18.15
10.36
5.00
0.56
-4.43
-11.03
-20.08
-32.51
-49.32
-71.14
-97.40
-125.79
-152.66
-174.10
-187.63
-193.06
-192.41
-188.80
-185.09
-182.85
-182.24
-182.53
-182.82
-182.55
-181.59
-179.80
-176.51
-170.42
-159.85
-143.63
-121.84
-95.99
-68.61
-42.40
-19.22
0.40
17.29
33.21
50.07
68.90
89.43
110.12
128.87
144.08
155.34
163.59
170.31
176.58
182.29
186.10
185.99
180.19
167.94
149.70
126.98
101.73
75.91
51.02
28.00
7.19
-11.24
-27.02
-39.59
-48.31
-52.89
-53.68
-51.68
-48.18
-44.25
-40.48
-36.93
-33.36
-29.32
-24.41
-18.52
-12.06
-6.09
-1.88
-0.24
-1.14
-3.57
-5.99
-7.06
-6.10
-3.14
1.24
6.26
11.07
14.83
16.93
17.16
15.90
14.05
12.72
12.79
14.55
17.53
20.75
22.94
22.99
20.13
14.12
5.22
-6.02
-18.91
-32.71
-46.50
-59.38
-70.79
-80.99
-91.20
-103.38
-119.28
-139.52
-163.20
-188.06
-210.99
-228.52
-237.18
-233.93
-216.84
-186.18
-145.02
-98.91
-54.28
-16.24
13.09
34.66
51.17
65.18
77.81
88.87
97.90
105.23
112.23
120.48
130.64
141.77
151.63
157.83
158.97
155.28
148.39
140.54
133.66
128.60
124.87
120.90
114.84
105.56
93.55
81.10
71.55
67.68
70.16
77.05
84.37
87.77
84.02
71.88
52.01
26.51
-1.72
-29.45
-53.70
-72.50
-85.62
-94.79
-103.09
-113.27
-126.28
-140.54
-152.64
-158.98
-157.44
-148.09
-132.46
-112.31
-88.95
-63.48
-37.62
-13.98
4.90
18.13
27.75
37.95
52.85
73.66
97.40
118.36
131.59
136.15
135.83
136.72
143.15
155.00
167.98
176.75
178.33
173.50
165.31
156.14
145.74
131.56
111.13
84.49
54.58
25.43
-0.33
-22.94
-45.03
-69.21
-95.69
-121.36
-140.63
-148.20
-141.65
-122.88
-97.68
-73.89
-59.00
-57.88
-71.13
-94.69
-120.92
-141.14
-148.83
-142.02
-123.77
-100.32
-78.45
-62.98
-55.65
-55.09
-57.90
-59.89
-57.50
-48.73
-33.66
-14.65
4.10
17.81
22.62
17.28
3.57
-14.60
-32.87
-48.04
-58.80
-65.51
-69.42
-72.05
-74.99
-80.03
-89.17
-104.49
-127.57
-158.57
-195.49
-233.77
-267.16
-289.34
-296.09
-286.54
-263.10
-229.99
-191.22
-149.04
-103.57
-54.04
-0.44
55.10
108.23
153.71
187.36
207.75
216.45
217.24
214.38
211.10
208.88
207.68
206.68
205.11
202.54
198.76
193.62
187.10
179.58
172.17
166.63
164.42
165.51
167.79
167.51
161.19
147.51
128.15
106.85
87.29
71.13
57.48
43.93
28.38
10.38
-8.68
-26.52
-41.12
-51.45
-57.53
-60.04
-60.04
-58.85
-58.08
-59.38
-64.01
-72.51
-84.61
-99.56
-116.33
-133.48
-149.20
-161.43
-168.47
-169.54
-165.04
-156.30
-145.06
-132.99
-121.37
-110.79
-100.80
-89.57
-74.22
-52.00
-22.03
13.41
49.06
78.68
97.87
106.30
107.57
106.89
107.94
111.02
113.56
112.46
106.57
97.37
87.74
79.74
73.37
67.04
59.46
51.07
43.88
39.74
38.18
35.89
28.30
12.45
-10.95
-37.69
-62.38
-81.30
-93.65
-100.82
-104.46
-104.96
-101.57
-93.67
-82.15
-69.45
-58.47
-50.98
-46.89
-44.54
-41.99
-38.10
-32.83
-26.84
-20.85
-15.28
-10.15
-5.06
0.67
7.92
17.44
29.54
43.80
59.21
74.51
88.44
99.78
107.34
110.08
107.54
100.57
91.64
84.22
81.47
84.70
92.66
101.88
108.20
108.33
100.82
86.26
66.66
44.57
22.39
2.25
-14.00
-24.68
-28.49
-25.13
-15.56
-1.93
13.06
27.23
39.67
50.88
62.13
74.57
88.37
102.37
114.62
123.21
126.98
126.04
121.71
116.02
111.22
109.25
111.19
116.74
124.09
130.26
132.25
128.48
119.55
108.35
98.61
92.95
91.29
90.76
87.15
77.30
61.09
41.39
22.16
5.96
-7.22
-19.01
-30.59
-41.33
-49.33
-53.66
-55.81
-58.86
-64.90
-72.36
-75.71
-68.31
-46.57
-12.89
24.82
56.54
74.40
75.02
59.31
30.36
-8.64
-55.15
-106.58
-160.03
-212.54
-261.87
-307.61
-351.56
-397.08
-447.78
-505.57
-568.91
-631.98
-685.69
-720.44
-729.78
-713.10
-675.89
-627.43
-577.01
-530.68
-490.16
-454.02
-419.95
-386.65
-354.19
-322.96
-292.52
-261.00
-225.84
-185.14
-138.73
-88.37
-37.19
11.75
56.68
97.63
136.21
174.82
215.75
260.46
309.10
360.14
410.20
454.31
486.98
503.74
502.88
486.23
458.53
425.58
392.15
360.67
331.37
303.51
276.74
251.77
229.81
211.60
196.72
183.75
171.18
158.28
145.44
133.74
124.29
117.55
113.24
110.63
108.92
107.57
106.16
104.18
100.98
95.94
88.88
80.33
71.48
63.74
58.02
54.39
52.12
50.16
47.90
45.55
44.01
44.25
46.60
50.58
55.08
59.05
62.05
64.42
66.90
70.12
74.17
78.47
82.03
83.95
83.80
81.86
78.90
75.69
72.38
68.22
61.72
51.54
37.42
20.72
3.84
-10.86
-22.26
-30.97
-38.92
-48.20
-60.02
-74.10
-88.99
-102.73
-113.85
-121.57
-125.70
-126.21
-123.15
-116.96
-108.76
-100.20
-92.90
-87.96
-85.87
-86.89
-91.28
-98.94
-108.70
-117.98
-123.42
-122.43
-114.91
-103.79
-93.54
-87.57
-86.00
-85.56
-81.82
-72.25
-58.15
-43.73
-33.21
-28.03
-26.25
-24.15
-19.05
-11.02
-2.50
3.62
6.18
6.44
7.25
11.18
18.97
29.01
38.22
43.64
43.72
38.98
31.87
25.87
24.29
29.03
39.93
55.04
71.75
88.40
104.96
122.53
141.77
161.61
179.36
192.18
198.99
201.49
203.29
207.76
216.04
226.40
235.70
241.57
243.76
243.69
242.77
240.95
236.69
228.30
215.32
198.81
180.42
161.14
140.91
119.29
96.67
74.65
55.14
38.75
23.61
5.77
-18.90
-52.43
-93.65
-138.94
-184.23
-226.84
-266.36
-304.08
-341.85
-381.30
-423.71
-470.22
-521.63
-577.43
-634.62
-687.21
-727.17
-746.77
-741.44
-711.53
-662.23
-601.55
-537.37
-475.24
-417.64
-364.69
-315.57
-269.54
-226.11
-184.66
-144.20
-103.49
-61.53
-18.24
25.61
68.66
109.54
147.75
184.07
220.46
259.29
302.15
348.56
395.46
437.75
469.90
487.96
490.86
480.64
461.43
437.99
414.32
393.08
375.22
360.11
346.01
330.69
312.41
290.60
266.11
240.84
217.14
197.04
181.76
171.59
165.67
161.89
157.07
147.52
130.30
104.68
72.94
40.06
12.18
-5.64
-11.17
-5.52
7.76
24.05
39.20
50.22
55.39
53.97
45.67
30.38
8.24
-20.31
-54.64
-94.16
-138.26
-185.73
-234.14
-279.37
-315.85
-337.81
-341.17
-325.12
-292.58
-249.39
-202.34
-157.18
-117.37
-84.06
-56.96
-35.47
-19.08
-7.00
2.32
11.33
22.69
38.01
56.91
77.00
95.01
108.62
117.72
124.29
131.10
139.85
149.94
158.81
163.41
161.99
155.07
145.12
135.18
127.24
121.40
116.30
110.09
101.42
89.68
74.46
54.98
30.55
1.48
-29.96
-59.72
-83.63
-99.81
-110.00
-119.00
-132.13
-152.65
-180.67
-213.82
-248.90
-283.24
-314.62
-340.65
-358.21
-363.93
-355.41
-332.48
-297.87
-256.88
-216.00
-180.94
-154.79
-136.78
-122.14
-103.79
-75.03
-32.29
23.50
87.67
154.06
217.02
272.28
316.65
347.65
364.06
367.03
360.36
349.11
337.16
325.22
311.28
293.31
271.86
250.87
235.76
229.89
232.42
238.72
243.20
242.74
238.09
232.96
231.63
236.34
246.11
257.33
265.68
268.24
264.83
257.86
250.81
246.28
244.31
242.24
236.16
223.29
203.72
180.53
158.11
139.76
126.29
115.96
105.94
94.15
80.15
65.06
50.61
38.10
27.70
18.49
8.80
-2.86
-17.31
-34.35
-52.93
-71.59
-89.22
-105.43
-120.75
-136.36
-153.49
-172.85
-194.29
-216.76
-238.79
-259.06
-277.02
-293.34
-309.49
-327.11
-347.30
-370.13
-394.55
-418.90
-441.49
-461.35
-478.73
-494.86
-511.55
-530.95
-555.46
-587.32
-627.59
-674.76
-723.80
-767.06
-795.92
-803.81
-788.80
-754.31
-707.63
-656.77
-607.56
-562.38
-522.06
-486.13
-454.02
-425.35
-399.64
-376.06
-353.15
-329.23
-303.12
-276.99
-253.17
-233.25
-216.86
-202.34
-187.83
-171.88
-153.62
-132.91
-113.98
-100.20
-92.94
-90.40
-89.35
-87.24
-82.86
-75.90
-66.57
-59.91
-59.01
-63.94
-70.57
-73.04
-67.14
-50.86
-23.83
42.08
156.39
307.97
467.77
606.64
708.92
772.41
802.82
808.29
796.38
768.40
730.84
685.96
638.30
593.97
556.90
527.84
504.88
484.91
461.77
432.96
400.55
366.00
334.93
310.60
292.36
276.90
260.70
239.67
212.92
181.85
149.86
120.74
96.47
78.22
67.48
65.80
71.96
81.99
89.21
87.23
72.96
47.33
15.25
-16.34
-41.53
-58.02
-66.49
-69.00
-66.68
-59.03
-45.73
-27.88
-8.18
10.28
25.96
39.94
55.29
75.19
101.09
131.51
162.80
190.77
212.07
224.85
228.75
224.66
214.56
201.46
188.75
179.18
173.87
171.91
170.80
167.47
159.45
145.41
125.24
99.77
70.54
39.81
10.58
-13.91
-31.16
-40.76
-44.94
-47.87
-53.62
-63.72
-75.94
-85.10
-86.04
-77.10
-61.76
-47.12
-39.74
-41.33
-47.38
-49.78
-41.98
-23.69
-1.83
12.63
10.32
-11.86
-49.65
-94.08
-136.23
-171.02
-198.57
-222.30
-246.11
-271.99
-299.37
-326.18
-350.79
-373.62
-397.25
-424.73
-456.91
-490.14
-516.38
-525.76
-510.76
-469.81
-408.26
-336.22
-264.50
-200.65
-147.24
-102.64
-63.53
-27.24
7.19
39.47
69.32
97.53
126.11
157.57
193.54
233.61
274.71
311.85
339.67
354.24
354.37
341.60
319.11
290.12
256.90
220.63
182.06
142.24
102.58
64.21
27.19
-9.80
-48.75
-90.98
-135.90
-180.31
-219.09
-246.43
-257.62
-250.35
-225.33
-185.98
-137.31
-84.59
-32.16
17.12
61.65
100.12
130.76
150.80
156.96
146.37
118.08
74.18
20.35
-34.78
-81.42
-111.20
-119.70
-107.95
-81.84
-49.95
-20.30
2.26
17.00
26.19
33.14
40.32
48.66
58.22
68.91
80.74
93.43
105.75
115.62
121.14
121.95
119.70
117.15
116.35
116.90
115.59
107.70
89.34
59.54
21.32
-19.10
-54.06
-76.92
-83.99
-75.58
-55.76
-31.01
-8.19
7.16
12.12
6.69
-6.70
-23.83
-39.43
-48.00
-45.21
-29.68
-4.34
24.04
47.30
59.29
58.40
47.63
32.21
16.31
0.98
-15.23
-33.87
-53.99
-71.42
-80.23
-75.68
-56.50
-25.53
11.47
48.04
78.82
100.38
111.18
111.43
102.65
87.46
69.19
51.31
36.85
27.84
25.16
28.64
37.35
49.94
64.72
79.80
93.29
103.74
110.56
114.28
116.34
118.25
120.73
123.12
123.59
120.03
111.15
97.07
79.32
60.28
42.30
27.09
15.49
7.64
3.29
2.07
3.50
7.06
11.98
17.15
21.22
22.76
20.80
15.18
6.85
-2.43
-10.63
-16.23
-18.78
-19.02
-18.38
-18.28
-19.47
-21.73
-24.07
-25.35
-24.84
-22.67
-19.61
-16.61
-14.23
-12.42
-10.67
-8.39
-5.41
-2.17
0.28
0.64
-2.27
-9.10
-19.80
-33.71
-49.75
-66.82
-83.90
-100.21
-115.06
-127.82
-138.06
-145.90
-152.21
-158.26
-164.97
-171.89
-176.77
-176.15
-166.65
-146.31
-115.73
-78.19
-38.46
-1.38
29.40
52.01
66.28
73.79
77.47
80.71
86.33
95.80
108.87
123.81
137.87
147.93
151.84
149.36
142.03
132.53
123.82
117.81
114.29
110.39
101.00
81.31
49.31
7.10
-39.62
-83.14
-116.21
-133.77
-132.42
-115.05
-90.20
-67.03
-50.70
-42.08
-39.53
-40.94
-44.58
-49.17
-53.69
-55.67
-53.02
-44.28
-30.39
-14.86
-3.05
0.41
-6.43
-22.18
-42.35
-61.38
-74.90
-82.07
-84.11
-83.93
-85.04
-90.66
-103.01
-122.24
-145.85
-169.12
-186.94
-195.83
-195.26
-187.18
-174.29
-158.43
-139.94
-118.71
-95.71
-73.72
-56.04
-44.28
-36.64
-28.36
-14.24
8.86
40.79
79.04
120.32
161.80
200.85
234.36
258.44
269.45
265.62
248.32
221.91
192.10
163.75
139.16
117.82
97.40
75.52
51.06
24.85
-0.78
-22.91
-39.08
-47.96
-49.58
-45.04
-36.01
-24.33
-11.54
1.21
13.23
24.18
33.92
42.30
49.30
55.02
59.69
63.64
67.09
69.80
70.96
69.40
64.16
55.19
43.77
32.32
23.55
19.30
19.73
23.26
27.39
29.81
29.43
26.77
23.53
21.71
22.65
26.50
32.25
38.24
42.92
45.37
45.47
43.62
40.20
35.18
28.09
18.45
6.32
-7.39
-21.09
-33.25
-43.09
-50.78
-56.94
-61.82
-65.04
-65.79
-63.61
-58.95
-53.04
-47.34
-42.85
-39.90
-38.31
-37.82
-38.26
-39.41
-40.79
-41.66
-41.40
-40.07
-38.55
-38.11
-39.55
-42.66
-46.26
-48.89
-49.59
-48.32
-45.74
-42.70
-39.70
-36.79
-33.72
-30.33
-26.90
-24.02
-22.32
-21.88
-22.05
-21.70
-19.90
-16.38
-11.65
-6.59
-1.76
2.90
7.99
14.04
21.03
28.15
34.20
38.20
39.88
39.66
38.31
36.47
34.39
31.97
29.15
26.07
23.09
20.51
18.42
16.62
14.81
12.86
10.88
9.23
8.20
7.84
7.93
8.06
7.87
7.13
5.73
3.62
0.73
-2.92
-7.12
-11.35
-14.93
-17.26
-17.98
-17.12
-15.00
-12.01
-8.52
-4.86
-1.28
2.04
5.02
7.65
9.98
12.00
13.59
14.63
15.03
14.84
14.24
13.41
12.45
11.32
9.93
8.30
6.57
4.91
3.44
2.17
0.96
-0.27
-1.50
-2.58
-3.35
-3.79
-4.07
-4.48
-5.37
-6.93
-9.14
-11.72
-14.20
-16.05
-16.81
-16.24
-14.35
-11.38
-7.76
-3.88
-0.08
3.45
6.62
9.40
11.77
13.74
15.26
16.31
16.84
16.85
16.34
15.44
14.31
13.20
12.28
11.58
11.01
10.32
9.31
7.88
6.10
4.13
2.18
0.35
-1.37
-3.04
-4.78
-6.69
-8.85
-11.28
-13.96
-16.72
-19.32
-21.38
-22.52
-22.44
-21.01
-18.33
-14.66
-10.42
-6.05
-1.91
1.75
4.79
7.19
9.02
10.32
11.14
11.53
11.53
11.24
10.72
10.09
9.40
8.69
7.94
7.08
6.02
4.73
3.28
1.85
0.67
-0.14
-0.57
-0.82
-1.14
-1.69
-2.55
-3.69
-5.16
-7.02
-9.37
-12.14
-14.95
-17.15
-18.02
-17.06
-14.25
-10.04
-5.09
-0.07
4.60
8.77
12.40
15.49
17.98
19.85
21.16
22.14
23.02
23.92
24.72
25.04
24.40
22.40
18.91
14.17
8.70
3.21
-1.71
-5.79
-9.14
-12.23
-15.62
-19.66
-24.36
-29.38
-34.20
-38.36
-41.54
-43.68
-44.81
-45.00
-44.22
-42.36
-39.24
-34.80
-29.23
-23.10
-17.20
-12.27
-8.73
-6.48
-5.09
-4.04
-3.07
-2.24
-1.77
-1.85
-2.51
-3.65
-5.15
-6.87
-8.58
-9.99
-10.85
-11.24
-11.57
-12.47
-14.31
-16.91
-19.54
-21.38
-21.89
-21.21
-19.93
-18.68
-17.78
-17.09
-16.27
-15.12
-13.75
-12.45
-11.38
-10.38
-8.93
-6.58
-3.18
0.92
5.05
8.59
11.35
13.56
15.76
18.27
20.97
23.30
24.62
24.65
23.65
22.27
21.14
20.56
20.39
20.33
20.10
19.69
19.14
18.45
17.58
16.45
15.13
13.79
12.64
11.70
10.82
9.69
8.22
6.67
5.65
5.92
8.00
11.87
16.99
22.57
27.88
32.56
36.63
40.25
43.57
46.45
48.51
49.47
49.39
48.86
48.86
50.36
53.73
58.62
64.00
68.51
70.98
70.76
67.72
62.21
54.67
45.52
35.13
23.92
12.41
1.19
-9.43
-19.73
-30.72
-43.73
-59.53
-77.35
-94.69
-108.06
-114.60
-113.64
-107.04
-98.18
-90.12
-83.92
-78.30
-70.66
-58.98
-43.17
-25.39
-9.06
2.75
8.56
8.83
5.39
0.32
-4.90
-9.70
-14.28
-19.02
-23.88
-28.13
-30.47
-29.83
-25.96
-19.64
-12.13
-4.24
4.19
14.02
25.75
38.55
50.03
57.17
57.75
51.74
41.41
30.38
22.09
18.40
19.31
23.41
28.89
34.31
38.82
42.09
44.03
44.66
44.09
42.47
40.12
37.43
34.80
32.52
30.58
28.67
26.35
23.23
19.24
14.73
10.25
6.38
3.40
1.28
-0.31
-1.76
-3.38
-5.32
-7.57
-10.03
-12.54
-14.91
-16.87
-18.10
-18.31
-17.33
-15.19
-12.19
-8.77
-5.43
-2.54
-0.31
1.30
2.42
3.18
3.64
3.80
3.61
3.07
2.26
1.35
0.49
-0.22
-0.84
-1.48
-2.27
-3.22
-4.21
-5.01
-5.41
-5.41
-5.24
-5.32
-6.12
-7.87
-10.55
-13.81
-17.14
-19.94
-21.71
-22.09
-20.90
-18.18
-14.22
-9.51
-4.67
-0.30
3.24
5.82
7.57
8.66
9.16
9.06
8.34
7.05
5.46
3.89
2.62
1.75
1.15
0.59
-0.11
-0.99
-1.91
-2.74
-3.43
-4.08
-4.93
-6.18
-7.94
-10.16
-12.65
-15.25
-17.78
-20.06
-21.90
-23.02
-23.13
-22.07
-19.81
-16.56
-12.70
-8.67
-4.92
-1.81
0.41
1.62
1.92
1.57
0.99
0.59
0.66
1.23
2.13
3.02
3.55
3.49
2.77
1.52
-0.02
-1.54
-2.83
-3.84
-4.65
-5.41
-6.26
-7.26
-8.36
-9.53
-10.74
-12.01
-13.37
-14.68
-15.68
-16.00
-15.32
-13.52
-10.76
-7.35
-3.71
-0.17
3.08
5.95
8.41
10.37
11.70
12.25
11.92
10.77
8.99
6.90
4.89
3.26
2.24
1.90
2.15
2.81
3.62
4.35
4.84
5.02
4.86
4.38
3.56
2.34
0.73
-1.18
-3.13
-4.81
-5.92
-6.32
-6.05
-5.22
-3.96
-2.36
-0.42
1.80
4.15
6.37
8.16
9.33
9.88
9.93
9.64
9.11
8.40
7.55
6.71
6.12
6.07
6.75
8.16
10.06
12.01
13.57
14.40
14.41
13.73
12.64
11.39
10.15
8.88
7.39
5.40
2.80
-0.30
-3.51
-6.28
-8.10
-8.69
-8.05
-6.43
-4.17
-1.54
1.33
4.32
7.27
9.88
11.79
12.73
12.61
11.66
10.24
8.72
7.36
6.17
5.10
4.05
3.02
2.11
1.43
0.98
0.73
0.53
0.31
0.04
-0.25
-0.46
-0.57
-0.61
-0.69
-0.99
-1.61
-2.56
-3.76
-5.02
-6.14
-7.00
-7.53
-7.72
-7.59
-7.15
-6.31
-4.99
-3.16
-0.97
1.38
3.61
5.60
7.29
8.70
9.84
10.70
11.29
11.73
12.32
13.40
15.22
17.61
20.08
22.05
23.17
23.51
23.52
23.98
25.41
28.05
31.34
34.49
36.95
38.73
40.41
42.63
46.01
50.42
55.47
59.89
62.59
63.38
63.15
63.52
65.91
71.53
80.08
91.01
102.39
112.44
120.16
125.43
128.56
129.27
127.37
120.95
108.54
87.50
55.78
12.88
-39.64
-98.09
-158.09
-214.27
-263.86
-291.14
-282.52
-233.15
-151.77
-56.25
36.86
109.71
164.13
203.79
231.61
247.20
248.87
238.01
216.22
186.22
150.64
112.59
72.60
30.97
-13.55
-61.96
-114.38
-169.69
-225.35
-278.80
-327.61
-372.37
-414.94
-457.94
-502.33
-545.66
-581.87
-602.67
-601.17
-573.90
-523.02
-454.65
-377.58
-301.24
-234.14
-183.18
-152.86
-144.90
-157.42
-185.27
-220.23
-252.76
-274.30
-279.38
-266.93
-239.86
-203.90
-165.14
-128.40
-95.94
-67.73
-42.66
-20.11
-0.51
15.07
26.43
35.10
43.96
56.08
73.39
95.63
120.44
144.44
164.79
180.38
192.32
203.53
217.80
238.58
267.64
303.78
342.28
375.18
392.91
386.74
351.65
288.54
204.86
113.21
28.11
-37.70
-76.38
-86.25
-70.90
-36.94
8.68
60.30
113.82
165.75
212.34
249.43
273.43
282.83
279.31
267.25
251.96
237.53
225.41
214.38
201.43
183.44
158.56
126.98
90.89
53.69
18.87
-11.11
-35.26
-53.83
-67.42
-76.20
-79.69
-77.37
-69.60
-58.17
-46.09
-36.67
-32.31
-33.62
-39.40
-47.19
-54.19
-58.03
-57.29
-51.81
-42.68
-31.76
-21.04
-11.73
-3.89
3.42
11.41
20.69
30.88
40.84
49.31
55.65
60.08
63.40
66.47
69.61
72.48
74.30
74.46
72.87
70.06
66.85
63.81
61.11
58.55
55.73
52.42
48.62
44.57
40.58
36.94
33.80
31.09
28.51
25.59
21.79
16.85
10.93
4.70
-0.94
-5.33
-8.25
-10.04
-11.27
-12.43
-13.65
-14.81
-15.71
-16.21
-16.22
-15.54
-13.77
-10.34
-4.90
2.43
10.88
19.26
26.35
31.29
33.77
34.01
32.46
29.56
25.68
21.02
15.81
10.36
5.09
0.39
-3.44
-6.42
-8.76
-10.81
-12.82
-14.83
-16.65
-18.03
-18.83
-19.08
-18.95
-18.57
-17.88
-16.74
-14.96
-12.49
-9.47
-6.20
-2.92
0.15
2.99
5.60
8.01
10.20
12.09
13.56
14.42
14.48
13.63
12.04
10.25
8.97
8.94
10.55
13.77
18.20
23.38
28.94
34.77
40.84
47.01
52.86
57.62
60.29
59.87
55.69
47.59
36.10
22.29
7.48
-7.03
-20.28
-31.66
-40.83
-47.52
-51.56
-53.08
-52.68
-51.36
-50.21
-49.95
-50.62
-51.66
-52.37
-52.32
-51.58
-50.51
-49.46
-48.44
-47.19
-45.33
-42.69
-39.43
-35.88
-32.41
-29.28
-26.62
-24.47
-22.88
-21.72
-20.76
-19.70
-18.30
-16.61
-14.91
-13.58
-12.85
-12.65
-12.64
-12.42
-11.75
-10.59
-8.97
-6.92
-4.39
-1.39
1.93
5.21
8.00
9.94
10.97
11.25
11.11
10.88
10.75
10.82
11.08
11.50
12.03
12.65
13.30
13.95
14.59
15.23
15.84
16.41
16.98
17.66
18.70
20.35
22.78
25.95
29.59
33.26
36.53
39.18
41.30
43.36
46.02
49.91
55.37
62.23
69.83
77.21
83.45
88.00
90.77
92.00
91.97
90.75
88.11
83.72
77.36
69.18
59.49
48.52
36.09
21.65
4.67
-14.86
-36.48
-59.60
-84.22
-111.05
-141.03
-174.27
-209.22
-242.69
-270.75
-290.10
-299.11
-298.12
-288.67
-272.53
-250.82
-223.88
-191.79
-155.03
-115.05
-74.34
-35.99
-3.00
22.63
40.43
51.45
57.69
61.12
62.96
63.52
62.60
60.22
56.97
53.94
52.15
51.94
52.84
53.68
53.22
50.76
46.47
41.29
36.51
33.21
31.90
32.38
33.99
35.83
37.14
37.42
36.40
34.02
30.43
25.89
20.85
15.87
11.49
8.16
6.08
5.30
5.70
7.12
9.36
12.07
14.73
16.58
16.79
14.73
10.25
3.86
-3.40
-10.32
-15.87
-19.49
-21.13
-21.12
-19.90
-17.95
-15.69
-13.50
-11.73
-10.56
-9.96
-9.65
-9.22
-8.29
-6.64
-4.31
-1.55
1.22
3.51
4.98
5.50
5.27
4.78
4.74
5.82
8.43
12.63
18.04
24.04
29.90
34.99
38.83
41.24
42.40
42.75
42.78
42.97
43.47
44.26
45.15
45.94
46.49
46.70
46.38
45.28
43.11
39.73
35.28
30.15
24.81
19.58
14.52
9.43
4.08
-1.64
-7.58
-13.43
-18.91
-23.92
-28.57
-33.03
-37.36
-41.40
-44.88
-47.62
-49.73
-51.51
-53.32
-55.30
-57.25
-58.73
-59.20
-58.24
-55.54
-50.92
-44.27
-35.69
-25.57
-14.66
-3.91
5.78
13.88
20.23
24.90
27.90
29.12
28.34
25.49
20.73
14.52
7.43
-0.05
-7.57
-14.86
-21.67
-27.61
-32.22
-35.13
-36.18
-35.52
-33.44
-30.24
-25.95
-20.41
-13.36
-4.70
5.31
16.02
26.54
35.95
43.61
49.16
52.56
53.81
52.95
49.95
44.88
38.04
30.07
21.85
14.28
8.09
3.61
0.77
-0.76
-1.32
-1.13
-0.22
1.44
3.76
6.39
8.82
10.50
11.06
10.49
9.16
7.52
5.95
4.53
3.19
1.87
0.66
-0.17
-0.35
0.14
1.02
1.93
2.70
3.56
5.02
7.53
11.14
15.35
19.36
22.49
24.53
25.72
26.56
27.32
27.86
27.66
26.20
23.18
18.77
13.51
7.99
2.72
-2.03
-6.11
-9.38
-11.69
-12.96
-13.32
-13.18
-13.12
-13.75
-15.47
-18.51
-22.83
-28.19
-34.06
-39.63
-43.89
-45.97
-45.48
-42.73
-38.63
-34.28
-30.53
-27.80
-26.10
-25.32
-25.34
-26.05
-27.19
-28.24
-28.61
-27.88
-26.05
-23.52
-20.81
-18.13
-15.22
-11.45
-6.21
0.59
8.40
16.19
22.90
27.91
31.24
33.44
35.18
36.86
38.43
39.45
39.36
37.80
34.74
30.43
25.10
18.91
11.92
4.23
-3.88
-12.03
-19.73
-26.56
-32.23
-36.57
-39.56
-41.27
-41.73
-40.97
-38.93
-35.58
-30.96
-25.36
-19.32
-13.54
-8.59
-4.72
-1.73
0.77
3.17
5.56
7.78
9.66
11.24
12.81
14.76
17.24
19.94
22.13
22.95
21.82
18.83
14.61
10.20
6.60
4.46
3.96
4.77
6.23
7.53
8.02
7.31
5.39
2.51
-0.89
-4.43
-7.90
-11.23
-14.42
-17.37
-19.81
-21.41
-21.86
-21.09
-19.19
-16.44
-13.18
-9.84
-6.87
-4.65
-3.38
-2.92
-2.85
-2.64
-1.90
-0.61
1.02
2.66
4.19
5.75
7.72
10.33
13.58
17.14
20.57
23.51
25.79
27.38
28.20
28.16
27.08
24.91
21.86
18.39
15.09
12.41
10.54
9.25
8.04
6.38
3.92
0.70
-2.88
-6.27
-8.97
-10.72
-11.61
-11.92
-12.06
-12.33
-12.82
-13.43
-13.91
-13.97
-13.43
-12.33
-10.90
-9.47
-8.35
-7.67
-7.38
-7.30
-7.23
-7.06
-6.82
-6.63
-6.63
-6.87
-7.28
-7.66
-7.70
-7.09
-5.54
-2.91
0.71
4.95
9.27
13.10
16.08
18.14
19.54
20.63
21.64
22.63
23.48
24.01
24.07
23.54
22.37
20.59
18.31
15.77
13.30
11.15
9.38
7.75
5.92
3.61
0.83
-2.20
-5.17
-7.90
-10.36
-12.62
-14.61
-16.15
-16.99
-17.07
-16.59
-15.96
-15.58
-15.63
-16.00
-16.42
-16.62
-16.55
-16.37
-16.44
-17.13
-18.71
-21.24
-24.48
-27.97
-31.08
-33.26
-34.13
-33.63
-31.95
-29.39
-26.25
-22.65
-18.71
-14.60
-10.68
-7.44
-5.26
-4.23
-4.07
-4.18
-3.88
-2.58
0.14
4.56
10.84
19.00
28.87
40.08
51.95
63.55
73.86
81.94
87.05
88.87
87.57
83.67
77.84
70.62
62.15
52.28
40.84
27.95
14.20
0.58
-11.93
-22.65
-31.35
-38.18
-43.39
-47.09
-49.17
-49.53
-48.20
-45.46
-41.81
-37.75
-33.74
-30.04
-26.78
-23.94
-21.42
-19.09
-16.74
-14.17
-11.11
-7.31
-2.56
3.19
9.66
16.20
21.88
25.68
26.92
25.48
21.90
17.11
12.13
7.69
4.07
1.16
-1.42
-4.09
-7.13
-10.65
-14.53
-18.51
-22.25
-25.41
-27.72
-29.15
-29.87
-30.20
-30.57
-31.33
-32.61
-34.17
-35.50
-35.94
-35.07
-32.93
-30.03
-27.16
-24.89
-23.31
-21.97
-20.19
-17.44
-13.73
-9.63
-5.91
-3.18
-1.61
-0.99
-0.90
-1.05
-1.33
-1.72
-2.13
-2.33
-2.13
-1.62
-1.28
-1.84
-3.90
-7.51
-12.03
-16.22
-18.71
-18.47
-15.06
-8.74
-0.29
9.28
18.96
27.80
35.01
40.11
42.89
43.53
42.48
40.34
37.64
34.77
31.93
29.15
26.43
23.79
21.28
18.95
16.82
14.82
12.89
11.02
9.21
7.48
5.83
4.24
2.73
1.37
0.18
-0.82
-1.72
-2.66
-3.80
-5.27
-7.10
-9.12
-11.03
-12.37
-12.67
-11.51
-8.74
-4.51
0.71
6.20
11.27
15.41
18.58
21.05
23.32
25.85
28.82
32.14
35.44
38.06
39.16
37.87
33.60
26.42
17.32
8.01
0.34
-4.50
-6.58
-7.13
-8.02
-10.80
-16.09
-23.44
-31.82
-40.13
-47.65
-54.13
-59.51
-63.67
-66.24
-66.65
-64.29
-58.81
-50.29
-39.20
-26.29
-12.30
2.25
17.18
32.60
48.79
65.85
83.43
100.51
115.42
126.16
131.00
129.08
120.75
107.52
91.43
74.40
57.66
41.78
27.04
13.91
3.17
-4.38
-8.38
-9.23
-8.10
-6.41
-5.36
-5.54
-6.92
-9.07
-11.41
-13.52
-15.28
-16.99
-19.36
-23.16
-28.86
-36.26
-44.39
-51.86
-57.43
-60.54
-61.46
-60.98
-59.94
-58.62
-56.78
-53.79
-49.21
-43.05
-35.88
-28.62
-22.08
-16.76
-12.63
-9.25
-6.12
-2.92
0.27
3.11
5.21
6.41
6.82
6.72
6.35
5.75
4.86
3.56
1.82
-0.33
-2.84
-5.77
-9.17
-13.03
-17.14
-21.07
-24.37
-26.73
-28.09
-28.67
-28.78
-28.60
-28.23
-27.56
-26.48
-24.99
-23.17
-21.17
-19.16
-17.30
-15.74
-14.64
-14.06
-13.87
-13.75
-13.27
-12.13
-10.44
-8.88
-8.48
-10.18
-14.34
-20.52
-27.77
-35.17
-42.23
-49.00
-55.77
-62.67
-69.50
-75.93
-81.65
-86.50
-90.11
-91.75
-90.20
-84.22
-73.19
-57.58
-38.95
-19.44
-1.02
15.00
27.98
37.82
44.68
48.91
51.10
52.01
52.46
53.08
54.14
55.52
56.80
57.46
57.03
55.31
52.51
49.19
46.13
43.96
42.87
42.55
42.35
41.61
39.94
37.30
33.92
30.15
26.32
22.68
19.43
16.70
14.53
12.89
11.72
11.10
11.15
11.96
13.39
15.06
16.41
16.97
16.59
15.44
13.90
12.34
11.00
9.99
9.41
9.42
10.17
11.68
13.75
15.89
17.50
18.14
17.69
16.40
14.71
13.06
11.72
10.81
10.23
9.82
9.43
8.86
7.87
6.19
3.57
-0.15
-4.95
-10.63
-16.82
-23.10
-29.14
-34.77
-40.01
-44.97
-49.86
-54.79
-59.68
-64.30
-68.31
-71.33
-72.85
-72.07
-67.95
-59.47
-46.23
-29.03
-10.09
7.52
20.69
27.44
27.48
22.10
13.47
3.67
-5.89
-14.61
-22.26
-28.55
-32.79
-34.05
-31.59
-25.39
-16.38
-6.36
2.65
9.24
13.11
15.25
17.26
20.50
25.40
31.26
36.78
40.85
43.11
43.91
43.96
43.74
43.32
42.53
41.26
39.72
38.29
37.23
36.41
35.32
33.36
30.21
25.91
20.75
15.06
9.09
3.12
-2.52
-7.38
-11.11
-13.66
-15.25
-16.28
-16.96
-17.21
-16.65
-14.84
-11.55
-6.84
-0.93
5.98
13.76
22.29
31.32
40.36
48.77
55.96
61.58
65.59
68.24
69.93
71.07
71.97
72.67
72.87
72.02
69.52
64.99
58.61
51.12
43.55
36.84
31.27
26.42
21.32
14.98
6.82
-3.08
-14.05
-25.16
-35.53
-44.56
-51.89
-57.43
-61.16
-63.11
-63.43
-62.36
-60.24
-57.51
-54.49
-51.19
-47.33
-42.38
-35.89
-27.76
-18.37
-8.32
1.75
11.50
20.81
29.58
37.36
43.33
46.51
46.20
42.37
35.73
27.39
18.47
9.68
1.31
-6.56
-13.75
-19.93
-24.66
-27.67
-29.02
-29.14
-28.70
-28.31
-28.30
-28.66
-29.08
-29.14
-28.57
-27.35
-25.66
-23.74
-21.69
-19.46
-16.88
-13.85
-10.46
-6.97
-3.73
-0.92
1.40
3.36
5.12
6.70
8.10
9.39
10.73
12.39
14.52
17.00
19.40
21.19
21.95
21.63
20.57
19.42
18.82
19.15
20.35
22.00
23.61
24.82
25.62
26.33
27.46
29.48
32.66
36.93
42.02
47.45
52.67
57.23
60.78
63.27
64.91
66.18
67.60
69.48
71.63
73.26
73.17
70.18
63.63
53.71
41.46
28.43
16.07
5.27
-3.96
-12.29
-20.67
-29.87
-40.20
-51.48
-63.29
-75.17
-86.66
-97.44
-107.34
-116.47
-125.16
-133.83
-142.68
-151.47
-159.51
-166.03
-170.51
-173.03
-174.36
-175.67
-177.90
-181.23
-184.49
-185.04
-179.19
-163.27
-135.08
-95.12
-47.08
2.97
48.19
83.07
104.81
113.86
113.20
107.07
99.55
93.70
91.29
93.01
98.69
107.36
117.33
126.23
131.49
131.37
125.90
117.36
109.56
106.17
108.66
115.28
121.68
122.87
115.57
99.50
77.17
52.38
28.52
7.47
-10.42
-25.74
-39.31
-51.74
-63.53
-75.22
-87.40
-100.40
-114.04
-127.36
-138.84
-146.85
-150.14
-148.22
-141.44
-130.83
-117.85
-103.99
-90.39
-77.72
-66.15
-55.63
-46.25
-38.42
-32.93
-30.56
-31.62
-35.49
-40.63
-45.05
-47.06
-45.86
-41.67
-35.24
-27.32
-18.29
-8.11
3.27
15.64
28.41
40.66
51.44
59.99
65.98
69.49
70.95
71.07
70.66
70.52
71.14
72.62
74.60
76.42
77.37
76.88
74.57
70.34
64.38
57.13
49.32
41.86
35.69
31.56
29.74
29.93
31.25
32.54
32.78
31.46
28.80
25.50
22.38
20.01
18.48
17.54
16.84
16.17
15.54
15.14
15.16
15.71
16.73
18.00
19.24
20.26
20.96
21.44
21.93
22.73
24.16
26.36
29.32
32.80
36.44
39.83
42.64
44.65
45.92
46.78
47.82
49.67
52.80
57.15
62.12
66.51
68.81
67.63
62.02
51.86
37.82
21.23
3.58
-13.76
-29.81
-44.00
-56.02
-65.74
-73.19
-78.57
-82.31
-84.97
-86.99
-88.49
-89.32
-89.21
-87.98
-85.60
-82.08
-77.45
-71.87
-65.75
-59.87
-55.13
-52.00
-50.13
-48.28
-44.80
-38.53
-29.44
-18.74
-8.25
0.32
6.04
9.01
10.03
10.13
10.20
10.77
12.17
14.67
18.62
24.33
31.89
40.92
50.50
59.42
66.54
71.10
72.93
72.43
70.28
67.13
63.44
59.38
55.01
50.20
44.77
38.50
31.34
23.49
15.35
7.39
-0.12
-7.03
-13.35
-19.04
-23.92
-27.77
-30.42
-31.94
-32.54
-32.56
-32.17
-31.40
-30.12
-28.29
-26.09
-23.95
-22.41
-21.91
-22.61
-24.36
-26.78
-29.41
-31.82
-33.74
-35.02
-35.66
-35.69
-35.17
-34.09
-32.45
-30.30
-27.80
-25.18
-22.70
-20.53
-18.74
-17.26
-15.99
-14.78
-13.59
-12.49
-11.76
-11.80
-12.97
-15.43
-18.97
-22.97
-26.66
-29.38
-30.92
-31.48
-31.59
-31.77
-32.36
-33.41
-34.80
-36.40
-38.23
-40.50
-43.46
-47.26
-51.77
-56.55
-61.08
-64.91
-67.85
-69.74
-70.18
-68.33
-63.23
-54.48
-42.74
-29.77
-17.71
-8.05
-0.92
4.75
10.52
17.23
24.46
30.88
35.26
37.28
37.59
37.16
36.59
35.99
35.28
34.67
35.06
37.67
43.32
51.57
60.57
67.70
71.04
70.17
66.22
61.40
58.04
57.87
61.35
67.41
73.65
77.14
74.74
63.87
43.29
14.15
-18.87
-48.35
-67.55
-73.90
-69.34
-58.21
-44.39
-30.06
-16.09
-3.01
7.94
14.66
14.25
6.06
-8.66
-26.66
-43.30
-53.79
-54.75
-45.58
-28.83
-9.10
9.09
22.76
31.28
35.69
37.42
37.73
37.20
35.73
33.16
30.03
27.55
27.16
29.89
35.93
44.61
54.50
63.85
71.18
75.68
77.23
76.28
73.66
70.30
67.13
64.89
64.04
64.67
66.55
69.13
71.71
73.65
74.67
74.87
74.55
74.02
73.51
73.07
72.63
71.94
70.46
67.34
61.67
52.95
41.63
29.32
18.28
10.51
6.58
5.02
2.68
-4.12
-18.37
-41.38
-72.50
-109.19
-147.30
-181.52
-206.30
-217.14
-212.12
-192.92
-164.68
-134.43
-108.77
-91.78
-84.19
-84.04
-88.33
-94.73
-102.50
-112.09
-124.15
-138.27
-152.46
-163.52
-168.35
-165.26
-154.68
-138.46
-118.25
-94.26
-65.30
-30.39
9.27
49.33
83.56
106.60
116.62
116.00
109.48
101.04
91.72
79.63
62.27
39.28
13.64
-9.37
-24.85
-30.60
-27.92
-20.45
-12.11
-5.44
-1.06
1.71
3.82
5.82
7.77
9.77
12.45
17.05
24.90
36.61
51.37
66.94
80.31
88.90
91.56
89.01
83.35
77.01
71.64
67.70
64.66
61.82
58.95
56.49
55.26
55.77
57.92
60.94
63.82
65.73
66.35
65.90
64.74
63.11
60.84
57.46
52.45
45.63
37.41
28.64
20.42
13.65
8.77
5.70
4.03
3.23
2.91
2.89
3.17
3.86
5.18
7.37
10.58
14.68
19.13
23.02
25.45
25.93
24.59
22.23
19.93
18.51
18.24
18.71
19.13
18.73
17.19
14.71
11.90
9.48
8.04
7.77
8.58
10.21
12.29
14.55
16.72
18.55
19.82
20.37
20.14
19.24
17.90
16.36
14.61
12.23
8.32
1.90
-7.54
-19.44
-32.06
-43.05
-50.32
-52.83
-50.90
-45.84
-39.24
-32.37
-26.06
-21.01
-18.22
-18.84
-23.52
-31.62
-40.79
-47.57
-48.72
-42.71
-30.45
-15.01
-0.36
10.02
14.17
11.83
4.05
-7.49
-20.93
-34.37
-45.67
-52.59
-53.24
-46.85
-34.36
-18.46
-2.72
9.70
17.23
20.28
20.61
20.23
20.35
21.06
21.69
21.60
20.77
19.71
18.99
18.68
18.39
17.65
16.47
15.44
15.35
16.53
18.40
19.50
18.12
13.01
3.84
-8.91
-24.43
-41.96
-60.86
-80.09
-97.59
-110.34
-115.21
-110.32
-96.25
-76.04
-54.03
-34.20
-18.75
-7.77
0.03
6.16
11.43
15.92
19.39
21.95
24.19
26.96
30.88
35.97
41.67
47.09
51.35
53.84
54.36
53.35
51.76
50.82
51.60
54.56
59.46
65.47
71.60
77.12
81.90
86.34
91.19
97.18
104.82
114.31
125.65
138.76
153.60
170.07
187.91
206.44
224.71
241.54
255.99
267.62
276.20
281.25
281.60
275.72
262.52
242.47
217.73
191.33
165.58
140.68
114.58
84.04
46.51
1.46
-49.35
-102.88
-156.13
-207.27
-255.60
-301.19
-344.36
-385.55
-425.66
-466.45
-510.62
-560.96
-618.73
-681.96
-744.32
-796.26
-827.70
-831.79
-807.58
-760.38
-699.33
-633.64
-569.37
-508.33
-449.51
-391.29
-333.57
-277.94
-226.46
-180.01
-137.38
-95.70
-51.87
-4.13
47.12
99.43
149.59
195.09
235.19
271.20
305.83
342.25
383.10
429.86
482.13
537.14
589.57
632.18
657.46
659.87
637.38
591.69
527.37
450.69
369.03
290.47
222.74
171.52
138.59
121.34
114.40
112.53
112.81
114.59
117.41
118.93
114.61
100.43
76.12
46.02
16.75
-7.05
-26.02
-45.77
-72.97
-110.92
-156.75
-202.24
-237.16
-253.39
-247.81
-222.86
-185.02
-141.35
-97.47
-56.37
-19.49
11.42
33.05
41.38
34.09
12.31
-17.59
-47.91
-72.42
-88.42
-96.49
-98.84
-97.72
-94.67
-91.84
-88.93
-86.41
-84.04
-81.50
-79.89
-83.19
-98.09
-131.31
-187.43
-260.69
-340.67
-413.74
-467.80
-495.93
-497.67
-477.58
-442.71
-402.29
-359.51
-318.06
-280.14
-247.18
-220.45
-200.93
-188.74
-169.13
-157.43
-147.85
-138.03
-127.14
-115.78
-105.26
-96.50
-89.26
-82.01
-74.74
-63.12
-46.47
-25.55
-2.19
21.52
44.08
65.10
85.28
104.11
124.45
146.45
169.47
192.34
213.98
233.86
252.23
270.00
287.50
307.36
330.62
357.36
386.08
413.55
435.33
447.11
446.15
431.92
407.65
377.55
345.77
315.16
286.82
260.64
236.28
213.72
193.10
174.92
158.99
144.59
130.82
117.08
103.30
89.90
77.54
66.75
57.68
50.05
43.31
36.79
29.99
22.75
15.31
8.16
1.78
-3.56
-8.00
-11.95
-15.85
-19.90
-23.90
-27.30
-29.48
-30.02
-28.84
-26.31
-23.01
-19.58
-16.51
-14.05
-12.21
-10.90
-9.98
-9.32
-8.84
-8.44
-8.02
-7.49
-6.86
-6.19
-5.62
-5.29
-5.23
-5.42
-5.74
-6.12
-6.54
-7.06
-7.74
-8.60
-9.59
-10.64
-11.71
-12.82
-14.06
-15.57
-17.42
-19.63
-22.07
-24.51
-26.65
-28.13
-28.67
-28.07
-26.34
-23.62
-20.19
-16.40
-12.59
-9.01
-5.84
-3.12
-0.82
1.15
2.81
4.20
5.24
5.86
6.02
5.75
5.17
4.43
3.71
3.12
2.79
2.74
2.91
3.20
3.40
3.30
2.72
1.59
-0.01
-1.90
-3.86
-5.74
-7.50
-9.20
-10.97
-12.87
-14.90
-16.85
-18.45
-19.36
-19.30
-18.15
-16.03
-13.21
-10.06
-6.91
-3.96
-1.27
1.16
3.36
5.33
7.01
8.34
9.26
9.80
10.02
10.03
9.89
9.59
9.05
8.20
7.05
5.73
4.47
3.43
2.64
1.96
1.15
0.01
-1.50
-3.24
-5.02
-6.66
-8.14
-9.57
-11.13
-12.91
-14.84
-16.69
-18.14
-18.87
-18.63
-17.37
-15.18
-12.23
-8.77
-5.05
-1.30
2.26
5.42
8.06
10.08
11.47
12.25
12.42
12.01
11.05
9.66
8.00
6.27
4.68
3.37
2.40
1.75
1.31
0.93
0.45
-0.21
-1.06
-2.01
-2.90
-3.65
-4.32
-5.07
-6.12
-7.69
-9.85
-12.54
-15.54
-18.46
-20.81
-22.09
-21.88
-19.98
-16.57
-12.10
-7.24
-2.61
1.38
4.59
7.10
9.07
10.60
11.72
12.43
12.70
12.58
12.10
11.38
10.52
9.61
8.72
7.90
7.18
6.53
5.89
5.19
4.38
3.43
2.33
1.13
-0.09
-1.27
-2.36
-3.41
-4.55
-5.96
-7.84
-10.28
-13.19
-16.30
-19.16
-21.29
-22.26
-21.85
-20.04
-17.05
-13.21
-8.86
-4.30
0.28
4.70
8.81
12.47
15.56
18.00
19.82
21.04
21.70
21.81
21.37
20.44
19.08
17.44
15.65
13.75
11.74
9.58
7.28
4.81
2.05
-1.23
-5.32
-10.37
-16.24
-22.44
-28.24
-32.93
-36.05
-37.49
-37.44
-36.27
-34.42
-32.22
-29.86
-27.39
-24.64
-21.27
-16.88
-11.21
-4.39
2.96
9.93
15.63
19.48
21.41
21.84
21.56
21.51
22.55
25.23
29.58
35.07
40.81
45.77
49.14
50.53
49.93
47.63
44.01
39.48
34.40
29.17
24.14
19.59
15.63
12.22
9.27
6.77
4.72
3.11
1.76
0.35
-1.40
-3.60
-6.09
-8.52
-10.53
-11.90
-12.54
-12.40
-11.34
-9.15
-5.71
-1.12
4.13
9.31
13.75
17.06
19.24
20.53
21.21
21.32
20.78
19.46
17.38
14.78
11.93
9.02
6.08
3.03
-0.14
-3.27
-6.14
-8.60
-10.79
-13.05
-15.75
-19.02
-22.69
-26.30
-29.39
-31.67
-33.08
-33.72
-33.70
-32.97
-31.36
-28.64
-24.69
-19.52
-13.31
-6.26
1.45
9.73
18.54
27.75
36.92
45.29
51.87
55.75
56.58
54.83
51.76
48.89
47.27
46.90
46.88
45.90
43.17
38.73
33.23
27.29
20.95
13.78
5.54
-3.22
-11.23
-17.17
-20.71
-22.80
-25.03
-28.36
-32.09
-33.99
-31.73
-24.48
-13.82
-3.03
4.59
7.51
6.57
4.26
3.16
4.51
7.85
11.66
14.43
15.52
15.37
14.93
14.96
15.63
16.47
16.79
16.09
14.36
12.02
9.69
7.92
6.93
6.62
6.63
6.63
6.41
6.03
5.69
5.60
5.81
6.17
6.39
6.21
5.52
4.46
3.23
2.09
1.14
0.35
-0.47
-1.51
-2.90
-4.60
-6.42
-8.09
-9.35
-10.05
-10.19
-9.88
-9.30
-8.54
-7.64
-6.50
-4.93
-2.78
0.02
3.38
6.93
10.07
11.98
11.86
9.14
3.87
-3.25
-10.98
-17.95
-23.00
-25.59
-25.79
-24.17
-21.54
-18.68
-16.17
-14.31
-13.17
-12.63
-12.55
-12.81
-13.41
-14.48
-16.21
-18.71
-21.82
-25.09
-27.83
-29.34
-29.16
-27.29
-24.20
-20.76
-17.92
-16.36
-16.19
-16.88
-17.46
-16.90
-14.51
-10.23
-4.63
1.40
6.98
11.55
15.06
17.83
20.38
23.17
26.50
30.35
34.21
37.03
37.34
33.78
25.83
14.35
1.52
-9.86
-17.42
-20.17
-18.63
-14.31
-8.78
-2.95
2.97
8.93
14.47
18.62
20.33
19.14
15.60
11.09
7.25
5.25
5.51
7.73
11.12
14.61
16.84
16.36
12.01
3.64
-7.52
-18.90
-27.49
-31.12
-29.37
-23.75
-16.91
-11.51
-9.24
-10.68
-15.54
-23.18
-32.99
-44.26
-55.98
-66.90
-75.68
-81.36
-83.58
-82.73
-79.75
-75.76
-71.76
-68.34
-65.64
-63.42
-61.31
-59.05
-56.69
-54.54
-53.02
-52.41
-52.61
-53.14
-53.22
-52.06
-48.99
-43.72
-36.45
-27.90
-19.26
-11.85
-6.72
-4.28
-4.13
-5.15
-6.05
-5.85
-4.25
-1.71
1.02
3.26
4.77
5.74
6.60
7.69
9.11
10.71
12.17
13.26
13.86
14.05
14.13
14.54
15.76
18.22
22.27
28.17
36.01
45.56
56.16
66.68
75.59
81.48
83.56
82.01
77.92
72.90
68.33
64.90
62.44
60.14
57.00
52.30
45.80
37.78
28.87
19.85
11.39
3.94
-2.36
-7.58
-11.90
-15.53
-18.71
-21.73
-24.93
-28.61
-32.83
-37.34
-41.64
-45.20
-47.70
-49.17
-49.89
-50.19
-50.31
-50.32
-50.21
-50.02
-49.83
-49.73
-49.72
-49.68
-49.45
-48.92
-48.06
-46.95
-45.62
-43.96
-41.73
-38.68
-34.68
-29.86
-24.49
-18.83
-12.93
-6.54
0.68
8.90
17.94
27.31
36.41
44.85
52.62
60.03
67.38
74.76
81.90
88.37
93.79
97.93
100.73
102.21
102.44
101.75
100.84
100.79
102.86
108.15
117.23
130.04
146.03
164.31
183.97
204.27
224.97
246.59
270.38
297.73
329.19
363.59
397.74
427.06
446.95
454.07
447.15
426.86
395.07
354.21
306.83
255.65
203.70
154.17
109.95
72.99
43.87
21.64
4.31
-10.60
-25.34
-41.27
-58.61
-76.50
-93.55
-108.65
-121.73
-134.01
-147.66
-164.94
-187.16
-213.96
-243.55
-273.22
-300.56
-324.41
-345.30
-365.29
-387.34
-414.51
-448.92
-490.61
-536.41
-579.75
-611.70
-623.55
-609.68
-569.87
-509.05
-435.33
-356.56
-277.71
-199.96
-121.85
-41.47
41.66
125.57
206.09
277.55
334.25
371.96
389.38
388.84
375.48
355.11
331.88
306.86
278.53
244.75
204.62
159.31
111.48
63.94
18.78
-22.84
-60.60
-94.83
-126.28
-155.46
-182.01
-203.57
-216.11
-215.66
-200.86
-174.13
-140.55
-104.97
-69.38
-33.01
5.16
43.12
75.16
94.32
96.93
85.54
68.14
53.99
48.78
52.33
59.91
66.33
68.80
67.58
64.25
59.60
53.42
46.23
41.01
42.88
56.56
82.86
116.57
147.59
164.78
160.44
133.06
87.14
30.43
-29.82
-88.95
-145.44
-199.71
-252.66
-304.86
-356.98
-410.34
-467.12
-529.13
-595.64
-661.88
-719.12
-757.33
-768.83
-751.66
-710.62
-655.32
-596.58
-542.65
-497.56
-461.53
-432.96
-410.37
-393.13
-381.02
-373.34
-368.30
-363.35
-355.95
-344.27
-327.60
-306.52
-282.16
-255.61
-227.50
-197.96
-166.86
-134.29
-100.69
-67.10
-35.00
-5.81
19.58
41.07
59.39
75.80
91.54
107.87
125.35
143.75
162.30
180.10
196.66
212.10
227.04
242.36
259.73
280.13
303.30
327.92
352.36
375.37
396.59
416.40
435.54
456.66
481.73
511.40
545.05
581.32
618.41
653.73
683.57
703.58
713.19
712.99
704.36
688.98
668.71
645.60
621.51
597.79
575.35
558.76
550.66
549.94
551.27
547.40
532.56
504.60
465.34
394.77
286.88
150.37
6.25
-123.78
-227.64
-303.47
-354.94
-387.01
-404.29
-406.95
-396.29
-375.94
-351.73
-329.74
-313.98
-305.97
-304.27
-305.81
-303.73
-292.51
-270.12
-238.82
-203.74
-170.28
-142.35
-121.57
-107.56
-96.74
-85.97
-73.94
-61.34
-50.47
-42.62
-37.94
-35.82
-35.46
-35.24
-34.09
-31.72
-28.61
-25.52
-22.82
-20.45
-18.01
-15.02
-10.85
-5.46
0.48
5.87
9.73
11.84
12.77
13.57
15.26
18.27
22.33
26.62
30.09
31.87
31.59
29.37
25.92
22.24
19.33
17.78
17.55
17.94
17.91
16.52
13.33
8.45
2.52
-3.73
-9.74
-15.19
-19.94
-23.85
-26.72
-28.39
-28.83
-28.17
-26.71
-24.74
-22.46
-20.01
-17.49
-15.02
-12.73
-10.68
-8.85
-7.08
-5.14
-2.81
0.05
3.46
7.34
11.42
15.27
18.29
19.83
19.43
17.07
13.28
9.08
5.60
3.62
3.16
3.56
3.69
2.62
-0.01
-3.78
-7.79
-11.07
-13.08
-13.87
-13.96
-13.94
-14.18
-14.66
-14.97
-14.66
-13.35
-10.89
-7.30
-2.66
2.92
9.22
15.80
21.94
26.75
29.49
29.78
27.88
24.50
20.61
17.02
14.11
11.78
9.57
6.77
2.62
-3.69
-12.86
-25.44
-41.79
-62.03
-85.89
-112.56
-140.44
-167.17
-190.02
-206.93
-217.29
-222.28
-224.11
-224.49
-223.06
-216.98
-202.23
-176.06
-138.87
-94.39
-47.87
-3.68
36.04
71.03
101.24
125.37
141.04
146.25
141.35
129.67
116.36
106.03
100.76
99.72
100.36
100.36
98.92
96.72
94.95
94.29
94.69
95.25
94.83
92.33
87.01
78.55
67.13
53.47
38.77
24.43
11.60
0.86
-7.92
-15.22
-21.63
-27.44
-32.64
-36.98
-40.08
-41.52
-40.90
-37.89
-32.39
-24.77
-15.88
-6.92
0.88
6.80
10.83
13.77
16.79
21.02
27.06
35.10
45.19
57.66
72.99
91.30
111.52
131.04
146.24
153.82
152.23
142.61
128.24
113.29
101.15
93.51
90.24
90.08
91.40
92.55
91.90
87.93
79.69
67.48
53.26
40.16
31.24
28.11
30.16
35.07
40.15
43.64
45.31
45.75
45.09
42.18
34.66
20.04
-2.98
-33.53
-68.15
-101.55
-128.34
-145.07
-151.96
-152.81
-153.04
-156.57
-163.50
-169.79
-169.52
-158.29
-136.25
-108.88
-84.66
-70.87
-69.72
-77.06
-84.23
-82.23
-65.50
-33.98
7.80
53.28
97.21
137.55
175.40
213.11
251.82
290.30
325.26
352.92
370.53
377.08
372.99
359.51
338.17
310.61
278.32
242.51
204.06
163.74
122.31
81.00
41.44
5.00
-27.79
-57.76
-87.07
-118.40
-154.07
-195.69
-244.17
-299.92
-362.53
-429.75
-496.58
-555.34
-597.32
-615.62
-607.74
-576.40
-528.29
-471.34
-411.89
-353.57
-297.70
-244.56
-194.42
-147.51
-102.83
-57.73
-8.75
46.23
105.71
164.33
214.39
248.41
261.66
253.73
228.69
194.14
159.42
132.81
119.00
116.93
119.77
117.32
100.07
62.82
6.08
-65.10
-143.90
-223.92
-299.77
-366.10
-416.95
-446.55
-451.64
-433.46
-397.71
-352.32
-304.32
-258.28
-216.71
-181.72
-156.05
-142.20
-140.14
-145.61
-150.81
-147.37
-130.27
-99.98
-61.74
-22.56
12.67
43.32
72.48
104.59
142.88
187.91
237.81
288.93
336.69
376.14
403.08
415.92
416.73
410.82
404.45
401.89
403.33
405.14
402.03
390.03
368.59
341.17
314.32
295.41
290.08
299.83
320.82
344.44
360.06
358.95
337.69
299.35
251.50
202.25
156.36
114.02
72.14
27.13
-22.94
-77.85
-135.37
-191.75
-241.79
-279.30
-298.28
-295.11
-270.47
-229.93
-182.65
-138.62
-105.52
-86.64
-80.39
-81.58
-83.75
-81.58
-72.53
-57.34
-39.24
-22.43
-10.44
-4.83
-4.86
-8.16
-11.71
-13.09
-11.23
-6.53
-0.59
4.47
6.74
5.04
-0.74
-9.69
-20.12
-29.95
-36.92
-39.06
-35.09
-25.04
-10.61
4.99
18.00
25.35
25.77
20.22
11.29
2.15
-4.57
-7.58
-6.97
-3.82
0.31
3.96
6.07
6.12
4.09
0.37
-4.32
-9.10
-13.02
-15.33
-15.61
-14.01
-11.26
-8.49
-6.81
-6.99
-9.11
-12.76
-17.23
-21.87
-26.13
-29.52
-31.53
-31.80
-30.36
-27.79
-25.11
-23.36
-23.06
-24.01
-25.38
-26.09
-25.30
-22.65
-18.25
-12.61
-6.56
-1.11
2.70
4.02
2.55
-1.35
-6.67
-11.95
-15.70
-16.90
-15.16
-10.97
-5.56
-0.55
2.49
2.59
-0.26
-5.16
-10.58
-14.95
-17.07
-16.44
-13.27
-8.39
-3.03
1.42
3.65
2.83
-1.12
-7.44
-14.66
-20.92
-24.56
-24.53
-20.66
-13.62
-4.79
4.22
11.84
16.90
18.86
17.82
14.47
9.86
5.17
1.54
-0.17
0.53
3.59
8.40
13.85
18.54
21.11
20.61
16.84
10.45
2.86
-4.08
-8.54
-9.26
-5.92
0.67
8.76
16.22
21.07
22.18
19.57
14.38
8.53
4.17
3.06
6.11
13.10
22.76
33.21
42.62
49.87
54.98
58.96
63.42
69.84
79.07
91.08
105.15
120.19
135.13
149.15
161.74
172.67
181.91
189.65
196.37
203.05
211.03
221.76
236.07
253.48
272.02
288.88
301.34
307.97
308.93
305.41
298.50
288.30
273.71
253.22
225.79
191.43
151.18
106.62
59.36
10.92
-37.14
-83.07
-125.16
-161.86
-192.49
-217.33
-237.36
-254.10
-269.37
-284.80
-301.41
-318.94
-335.60
-349.19
-358.43
-364.18
-368.94
-375.30
-384.29
-394.60
-402.94
-405.16
-397.55
-377.77
-345.92
-304.89
-260.57
-221.15
-195.29
-189.52
-206.34
-243.92
-297.35
-360.52
-427.39
-491.41
-545.05
-580.20
-590.32
-573.60
-534.40
-481.87
-426.41
-375.91
-333.55
-298.45
-267.80
-239.33
-212.50
-188.14
-167.28
-150.30
-136.72
-125.57
-116.03
-107.70
-100.74
-95.42
-91.73
-89.06
-86.38
-82.53
-76.64
-68.29
-57.69
-45.41
-32.07
-17.96
-3.01
13.05
30.35
48.70
67.48
85.88
103.18
119.06
133.70
147.77
162.01
176.84
192.14
207.38
221.99
235.77
249.09
262.96
278.57
296.67
317.07
338.81
360.37
379.91
395.17
403.52
402.52
391.09
370.59
344.89
319.13
297.61
282.15
271.73
263.73
255.76
246.95
237.79
229.06
220.60
211.04
198.66
182.71
164.04
144.60
126.38
110.73
98.18
88.74
82.23
78.55
77.61
79.11
82.49
86.91
91.39
94.94
96.81
96.51
94.03
89.75
84.37
78.74
73.65
69.71
67.17
65.92
65.39
64.63
62.46
57.61
49.14
36.73
21.12
4.07
-11.96
-24.65
-32.70
-36.29
-36.92
-36.46
-36.12
-35.75
-34.19
-30.14
-23.24
-14.44
-5.57
1.71
6.77
10.08
12.74
15.61
18.76
21.60
23.40
23.89
23.38
22.61
22.25
22.53
23.25
23.86
23.70
22.20
19.02
14.17
8.10
1.64
-4.21
-8.49
-10.57
-10.30
-8.04
-4.54
-0.77
2.23
3.65
3.03
0.43
-3.67
-8.55
-13.61
-18.56
-23.35
-27.90
-31.87
-34.61
-35.44
-34.07
-30.78
-26.36
-21.80
-17.78
-14.60
-12.26
-10.68
-9.93
-10.13
-11.29
-13.18
-15.38
-17.46
-19.18
-20.49
-21.40
-21.75
-21.21
-19.42
-16.25
-11.94
-7.07
-2.17
2.48
6.99
11.66
16.76
22.29
28.07
33.85
39.59
45.46
51.82
59.04
67.44
77.18
88.24
100.40
113.27
126.34
139.09
151.16
162.33
172.69
182.77
193.86
207.83
226.46
250.10
276.26
299.17
310.74
303.10
271.57
216.64
143.91
61.96
-20.59
-97.66
-166.70
-228.28
-284.64
-338.60
-392.87
-449.37
-508.34
-567.14
-619.67
-657.42
-672.50
-660.52
-622.52
-564.45
-494.46
-419.66
-344.04
-268.51
-192.54
-116.84
-43.30
25.72
88.71
145.16
194.47
234.86
263.44
277.40
274.24
253.51
216.21
164.15
99.29
24.11
-56.87
-135.51
-200.24
-240.88
-251.72
-234.99
-200.78
-163.53
-137.17
-130.48
-144.73
-163.56
-169.80
-151.00
-107.19
-50.02
6.40
53.56
90.37
120.04
145.96
167.54
181.81
185.81
179.20
165.32
149.80
138.12
133.28
135.20
139.84
141.65
136.02
121.26
100.37
80.17
68.56
71.12
88.99
117.94
150.53
179.22
197.97
204.21
198.95
184.95
164.89
141.08
115.71
91.54
72.44
60.84
57.84
63.02
73.68
86.44
95.96
97.36
88.31
70.72
47.80
24.04
4.06
-3.09
8.30
37.40
77.47
113.17
142.02
164.50
180.79
193.24
201.55
204.17
199.88
188.91
173.11
156.05
139.25
122.98
106.97
90.50
72.72
53.45
33.56
14.77
-0.41
-11.61
-19.80
-26.49
-33.29
-41.45
-51.32
-62.36
-73.48
-83.14
-91.28
-98.85
-107.04
-117.12
-130.05
-146.29
-165.56
-186.35
-205.63
-220.11
-227.27
-226.59
-220.56
-213.94
-211.84
-217.68
-231.35
-249.34
-266.77
-279.59
-285.97
-286.24
-281.85
-274.12
-264.36
-253.26
-241.41
-230.01
-220.84
-215.39
-214.01
-215.48
-217.80
-220.87
-225.19
-231.32
-239.30
-248.61
-258.31
-267.52
-275.72
-282.82
-290.78
-299.25
-304.69
-302.01
-287.68
-261.95
-228.72
-193.44
-160.69
-135.47
-118.70
-107.62
-98.10
-87.38
-75.10
-62.38
-50.52
-21.56
29.39
93.94
155.99
202.72
229.78
239.08
235.03
222.28
204.84
183.20
157.93
130.92
104.97
82.27
63.70
49.38
39.50
32.70
26.01
17.75
8.12
-1.46
-9.69
-16.12
-20.91
-24.41
-26.97
-30.12
-34.72
-40.46
-46.21
-50.73
-53.11
-52.81
-49.47
-43.05
-34.39
-24.40
-13.62
-2.16
10.13
23.58
38.57
55.39
74.02
93.80
113.78
133.11
151.35
168.56
185.23
202.12
219.94
239.39
261.20
285.96
313.58
342.66
370.06
391.32
402.05
399.59
384.17
358.85
328.19
296.39
266.07
238.00
212.02
188.06
166.72
148.97
135.35
125.25
116.93
108.34
98.11
86.30
74.16
63.52
55.57
50.26
46.23
41.62
35.07
26.41
16.71
7.62
0.53
-4.08
-6.74
-8.56
-10.62
-13.57
-17.39
-21.52
-25.18
-27.66
-28.61
-28.16
-26.85
-25.39
-24.37
-24.03
-24.25
-24.72
-25.02
-24.85
-24.09
-22.72
-20.89
-18.87
-16.98
-15.51
-14.61
-14.24
-14.20
-14.27
-14.37
-14.56
-15.03
-15.91
-17.15
-18.50
-19.66
-20.43
-20.79
-20.98
-21.25
-21.77
-22.51
-23.17
-23.39
-22.99
-22.14
-21.37
-21.17
-21.75
-22.71
-23.31
-22.77
-20.88
-18.23
-16.02
-15.35
-16.51
-18.62
-19.99
-18.90
-14.49
-7.21
1.50
9.89
16.59
20.92
22.86
22.70
20.86
17.75
13.90
9.94
6.64
4.70
4.63
6.59
10.30
15.06
19.89
23.75
25.89
26.10
24.73
22.60
20.79
20.37
22.12
26.32
32.57
39.76
46.13
49.77
49.31
44.55
36.74
28.26
21.76
19.15
20.85
25.59
30.95
34.13
33.05
27.02
16.91
4.62
-7.71
-18.58
-27.61
-35.38
-42.79
-50.33
-57.65
-63.69
-67.29
-67.92
-66.17
-63.52
-61.65
-61.69
-63.62
-66.37
-68.38
-68.38
-65.91
-61.41
-55.89
-50.35
-45.34
-40.87
-36.54
-31.99
-27.11
-22.18
-17.65
-13.89
-10.97
-8.73
-6.96
-5.61
-4.88
-5.09
-6.46
-9.01
-12.49
-16.48
-20.48
-23.93
-26.29
-27.12
-26.24
-23.81
-20.33
-16.45
-12.84
-9.96
-8.15
-7.54
-8.19
-9.92
-12.33
-14.95
-17.41
-19.61
-21.75
-24.15
-27.00
-30.18
-33.25
-35.70
-37.14
-37.39
-36.42
-34.20
-30.56
-25.30
-18.34
-9.84
-0.33
9.34
18.22
25.45
30.53
33.44
34.53
34.30
33.23
31.64
29.55
26.87
23.37
18.82
13.15
6.57
-0.31
-6.60
-11.19
-13.28
-12.58
-9.53
-5.04
-0.05
4.82
9.41
13.95
18.80
24.31
30.86
38.89
49.02
61.56
75.61
88.42
95.37
91.22
72.11
37.55
-8.94
-60.74
-110.20
-150.82
-178.42
-191.21
-189.24
-173.88
-147.81
-115.17
-81.41
-52.37
-32.55
-23.60
-23.67
-28.04
-30.85
-27.28
-15.13
4.56
28.13
50.86
68.76
79.74
83.85
82.59
77.62
69.87
59.46
46.16
30.17
12.67
-4.23
-17.82
-25.35
-24.69
-14.84
3.85
29.61
59.67
90.74
119.63
143.71
161.15
171.06
173.48
169.27
159.94
147.25
132.59
116.54
98.74
78.32
54.63
27.84
-1.08
-31.00
-61.29
-91.86
-122.62
-152.45
-178.75
-197.94
-206.89
-204.40
-191.87
-172.76
-151.18
-130.46
-112.44
-97.73
-86.36
-78.28
-73.43
-71.28
-70.45
-68.87
-64.33
-55.32
-41.53
-23.73
-3.29
18.14
38.60
55.65
66.14
66.62
54.37
28.73
-7.92
-50.21
-90.75
-122.09
-138.53
-137.46
-119.77
-89.40
-52.23
-14.64
17.79
41.35
54.67
58.67
56.00
50.27
45.15
43.35
45.95
51.79
57.97
60.97
58.19
49.48
37.69
28.10
26.67
37.93
63.21
100.00
142.40
182.64
213.09
227.99
224.77
204.47
171.32
131.87
93.69
63.74
46.92
44.95
56.01
75.29
96.33
112.86
120.33
116.87
103.46
83.38
61.26
41.60
27.51
19.63
15.98
12.65
5.23
-9.42
-32.00
-60.47
-90.80
-118.47
-140.02
-154.09
-161.37
-163.85
-163.53
-161.72
-158.98
-155.62
-152.29
-149.88
-148.93
-148.91
-148.12
-144.43
-136.55
-124.92
-111.58
-98.98
-88.56
-80.05
-71.93
-62.51
-51.02
-37.86
-23.93
-9.86
4.27
18.51
32.31
44.08
51.59
53.09
48.25
38.64
27.29
17.70
12.63
13.34
19.32
28.56
38.27
45.97
50.44
52.36
53.98
58.20
67.09
80.79
97.26
113.08
124.71
129.82
127.85
119.90
108.09
94.95
82.80
73.41
67.80
66.13
67.69
71.09
74.47
75.97
74.18
68.62
59.90
49.47
39.17
30.59
24.70
21.72
21.28
22.53
24.18
24.50
21.58
13.87
0.91
-16.28
-35.38
-53.54
-68.39
-78.67
-84.28
-85.91
-84.64
-81.63
-77.97
-74.73
-72.70
-72.14
-72.67
-73.30
-72.86
-70.36
-65.26
-57.50
-47.47
-36.01
-24.35
-13.85
-5.52
0.43
4.78
8.82
13.46
18.34
21.55
20.50
13.20
-0.29
-17.65
-35.08
-49.15
-58.31
-63.43
-66.99
-71.43
-77.74
-84.88
-90.52
-92.36
-89.28
-81.71
-71.14
-59.09
-46.41
-33.20
-19.22
-4.68
9.41
21.48
29.98
34.17
34.46
32.26
29.31
27.05
26.11
26.30
26.93
27.22
26.65
25.07
22.80
20.46
18.86
18.72
20.39
23.54
27.23
30.15
31.14
29.72
26.29
21.86
17.57
14.02
10.95
7.40
2.33
-4.76
-13.32
-21.80
-28.25
-30.97
-29.20
-23.37
-14.88
-5.56
2.95
9.71
14.62
18.23
21.42
24.97
29.25
34.17
39.36
44.30
48.58
51.88
54.02
54.77
53.86
50.96
45.93
38.87
30.22
20.65
10.90
1.63
-6.74
-14.05
-20.33
-25.65
-30.10
-33.77
-36.91
-39.95
-43.54
-48.15
-53.79
-59.79
-64.82
-67.24
-65.67
-59.35
-48.43
-33.88
-17.06
0.52
17.45
32.48
44.50
52.52
55.85
54.33
48.56
40.04
30.90
23.50
19.83
20.95
26.69
35.54
45.11
52.71
56.22
54.72
48.67
39.64
29.56
19.91
11.31
3.54
-3.97
-11.40
-18.18
-23.17
-25.26
-24.09
-20.33
-15.53
-11.43
-9.27
-9.38
-11.09
-13.08
-13.92
-12.54
-8.53
-2.10
6.02
14.87
23.44
30.70
35.70
37.52
35.53
29.70
20.87
10.68
1.09
-6.43
-11.54
-15.02
-18.20
-22.10
-26.71
-31.13
-34.12
-34.88
-33.36
-30.03
-25.36
-19.56
-12.73
-5.20
2.14
8.04
11.46
12.00
10.21
7.20
4.26
2.31
1.84
2.98
5.71
9.79
14.75
19.78
23.86
26.07
25.85
23.26
18.92
13.78
8.88
5.08
2.87
2.41
3.50
5.70
8.37
10.68
11.84
11.28
8.96
5.46
1.84
-0.78
-1.72
-1.06
0.37
1.38
0.94
-1.32
-5.08
-9.53
-13.79
-17.16
-19.31
-20.19
-19.87
-18.51
-16.28
-13.39
-10.09
-6.72
-3.61
-1.15
0.32
0.60
-0.23
-1.75
-3.18
-3.76
-3.05
-1.16
1.29
3.56
5.22
6.32
7.35
8.81
10.91
13.49
16.18
18.76
21.24
23.77
26.38
28.72
30.16
29.98
27.84
23.95
18.99
13.76
8.88
4.68
1.31
-1.07
-2.25
-2.03
-0.52
1.74
3.73
4.31
2.57
-1.71
-7.90
-14.74
-20.74
-24.82
-26.66
-26.83
-26.58
-27.44
-30.72
-37.08
-46.36
-57.54
-69.13
-79.56
-87.68
-93.04
-95.85
-96.74
-96.37
-95.12
-93.06
-90.10
-86.22
-81.59
-76.56
-71.48
-66.61
-62.05
-57.73
-53.41
-48.56
-42.43
-34.08
-22.74
-8.28
8.61
26.39
43.17
57.38
68.22
75.87
81.19
85.23
88.71
91.82
94.32
95.75
95.65
93.73
89.92
84.49
78.13
72.03
67.67
66.34
68.54
73.56
79.37
83.14
82.15
74.72
60.82
42.19
21.86
3.26
-10.83
-19.17
-22.53
-23.43
-25.28
-31.11
-42.54
-59.39
-79.92
-101.72
-122.36
-139.72
-151.87
-157.17
-154.81
-145.47
-131.48
-115.88
-100.95
-87.18
-73.11
-56.50
-35.62
-10.12
19.02
50.03
80.78
108.84
131.35
145.35
148.75
141.41
125.60
105.35
84.74
66.46
51.30
38.82
28.45
20.08
13.90
9.79
7.06
4.57
1.34
-2.82
-7.28
-10.87
-12.65
-12.34
-10.57
-8.50
-7.29
-7.47
-8.85
-10.65
-12.00
-12.36
-11.71
-10.53
-9.48
-9.17
-9.94
-11.82
-14.46
-17.24
-19.40
-20.19
-19.07
-15.90
-11.05
-5.30
0.42
5.39
9.39
12.72
15.96
19.60
23.72
27.87
31.32
33.40
33.78
32.62
30.38
27.54
24.40
21.07
17.58
14.08
10.96
8.73
7.85
8.54
10.60
13.43
16.26
18.37
19.36
19.28
18.51
17.62
17.05
17.05
17.57
18.45
19.58
20.95
22.61
24.48
26.25
27.43
27.46
26.03
23.22
19.46
15.36
11.52
8.34
5.97
4.40
3.51
3.18
3.25
3.54
3.82
3.94
3.79
3.38
2.83
2.26
1.84
1.64
1.66
1.82
1.96
1.90
1.52
0.80
-0.14
-1.11
-1.91
-2.43
-2.63
-2.52
-2.13
-1.49
-0.61
0.40
1.39
2.22
2.86
3.45
4.31
5.66
7.53
9.68
11.67
13.11
13.87
14.16
14.42
15.10
16.49
18.59
21.18
23.92
26.48
28.53
29.80
30.09
29.38
27.90
26.16
24.69
23.84
23.55
23.35
22.64
21.04
18.56
15.63
12.84
10.59
8.96
7.73
6.62
5.47
4.36
3.49
2.99
2.91
3.12
3.46
3.78
4.01
4.22
4.51
5.00
5.74
6.70
7.68
8.39
8.60
8.20
7.38
6.48
5.84
5.61
5.65
5.65
5.29
4.39
2.94
1.04
-1.27
-4.00
-7.24
-10.97
-15.04
-19.21
-23.24
-26.95
-30.29
-33.31
-36.06
-38.54
-40.75
-42.60
-44.04
-45.04
-45.62
-45.90
-46.04
-46.19
-46.38
-46.52
-46.35
-45.62
-44.22
-42.21
-39.85
-37.46
-35.20
-33.07
-30.93
-28.66
-26.27
-24.00
-22.20
-21.18
-21.04
-21.63
-22.59
-23.54
-24.18
-24.45
-24.48
-24.53
-24.81
-25.39
-26.21
-27.08
-27.82
-28.32
-28.52
-28.40
-27.89
-26.90
-25.34
-23.21
-20.68
-18.03
-15.57
-13.45
-11.64
-10.00
-8.33
-6.58
-4.81
-3.16
-1.71
-0.40
0.94
2.41
4.01
5.56
6.82
7.65
8.04
8.12
8.00
7.70
7.16
6.25
4.95
3.28
1.37
-0.61
-2.44
-3.91
-4.86
-5.21
-4.95
-4.24
-3.24
-2.12
-0.96
0.18
1.21
1.94
2.23
2.06
1.68
1.53
2.11
3.77
6.58
10.41
14.95
19.88
24.83
29.43
33.29
36.15
37.99
39.09
40.00
41.29
43.42
46.51
50.44
54.91
59.65
64.50
69.39
74.33
79.36
84.51
89.78
95.19
100.79
106.61
112.61
118.75
124.99
131.37
137.96
144.67
151.21
157.12
161.94
165.52
168.19
170.60
173.07
175.06
174.87
170.12
158.72
139.70
113.42
81.23
44.63
4.84
-37.23
-80.35
-122.58
-161.19
-193.27
-216.73
-230.86
-236.32
-234.62
-227.29
-215.42
-199.50
-179.98
-157.82
-134.84
-113.60
-96.63
-85.43
-79.92
-78.92
-81.19
-86.52
-95.67
-109.20
-126.00
-142.76
-154.88
-158.66
-153.46
-142.12
-129.26
-118.62
-110.93
-103.92
-94.21
-79.49
-59.69
-36.52
-11.95
12.98
38.12
63.42
88.01
110.22
128.23
141.03
148.84
152.91
154.61
154.96
154.28
152.36
148.65
142.46
133.18
120.68
105.75
90.06
75.64
64.04
55.73
50.06
45.91
42.18
38.16
33.20
26.34
16.60
3.72
-11.15
-25.36
-35.86
-40.72
-40.08
-35.88
-30.44
-25.05
-19.74
-14.37
-9.97
-9.17
-14.98
-28.63
-48.30
-69.53
-87.51
-99.46
-105.92
-109.78
-114.23
-120.88
-129.24
-137.56
-144.27
-148.83
-151.73
-153.88
-155.95
-158.20
-160.58
-163.07
-165.74
-168.56
-171.27
-173.23
-173.65
-171.99
-168.28
-163.22
-157.76
-152.53
-147.44
-141.80
-134.89
-126.85
-118.88
-112.85
-110.39
-111.98
-117.01
-124.33
-133.07
-142.94
-154.04
-166.29
-179.12
-191.48
-201.96
-208.91
-210.33
-204.05
-188.37
-162.79
-128.69
-89.13
-47.89
-8.17
28.23
60.87
90.01
115.80
138.04
156.61
172.07
185.96
200.28
216.37
233.91
250.54
262.55
266.50
260.73
246.17
226.03
204.45
184.97
169.50
158.27
150.50
145.16
141.33
137.95
133.41
125.46
111.93
91.88
66.43
38.86
13.82
-4.44
-13.52
-13.57
-6.68
4.57
18.33
33.82
50.83
68.79
86.22
101.01
111.18
115.73
114.91
109.92
102.27
93.23
83.78
74.79
67.21
62.02
59.94
61.04
64.63
69.45
74.09
77.30
78.34
77.09
73.91
69.41
64.05
57.98
51.09
43.24
34.63
25.97
18.32
12.71
9.62
8.84
9.59
10.87
11.87
12.31
12.36
12.42
12.86
13.73
14.76
15.44
15.31
14.03
11.54
8.07
3.93
-0.51
-5.09
-9.92
-15.31
-21.59
-28.92
-37.13
-45.61
-53.51
-59.86
-63.83
-64.86
-62.91
-58.52
-52.95
-47.94
-45.31
-46.26
-50.71
-57.32
-63.84
-68.08
-68.76
-65.90
-60.69
-54.76
-49.54
-45.89
-44.14
-44.30
-46.25
-49.72
-54.19
-58.90
-63.00
-65.78
-66.82
-66.00
-63.53
-59.82
-55.39
-50.73
-46.14
-41.61
-36.82
-31.23
-24.24
-15.49
-5.05
6.65
18.91
31.05
42.58
53.27
63.06
71.89
79.69
86.33
91.87
96.78
102.10
109.04
118.36
129.83
142.13
153.28
161.32
164.76
162.62
154.00
137.92
113.54
80.92
41.83
-0.04
-39.68
-72.14
-93.98
-104.28
-104.69
-98.75
-90.71
-84.38
-82.14
-84.43
-89.78
-95.43
-98.42
-96.42
-88.37
-74.72
-57.16
-38.38
-21.61
-10.09
-6.26
-10.91
-22.75
-38.78
-55.34
-69.43
-79.77
-86.88
-92.39
-97.77
-103.47
-108.75
-112.15
-112.39
-108.99
-102.29
-93.17
-82.45
-70.57
-57.63
-43.66
-28.83
-13.38
2.65
19.50
37.64
57.22
77.53
96.88
113.13
124.67
131.15
133.57
133.57
132.43
130.28
126.22
118.92
107.48
91.92
73.13
52.32
30.64
8.88
-12.38
-32.56
-50.97
-66.83
-79.45
-88.43
-93.76
-95.70
-94.67
-91.15
-85.61
-78.51
-70.38
-61.80
-53.37
-45.58
-38.75
-33.01
-28.30
-24.37
-20.93
-17.64
-14.29
-10.73
-6.94
-3.05
0.71
4.13
7.05
9.45
11.37
12.90
14.08
14.89
15.28
15.19
14.65
13.69
12.37
10.72
8.66
6.01
2.61
-1.54
-6.15
-10.70
-14.53
-17.07
-18.08
-17.65
-16.24
-14.39
-12.65
-11.37
-10.64
-10.38
-10.27
-9.92
-9.04
-7.55
-5.61
-3.59
-1.83
-0.42
0.91
2.69
5.49
9.63
15.03
21.19
27.42
33.16
38.12
42.25
45.64
48.37
50.39
51.58
51.83
51.18
49.91
48.42
47.16
46.47
46.46
47.06
47.96
48.82
49.29
49.09
48.09
46.24
43.59
40.25
36.38
32.23
28.09
24.22
20.73
17.50
14.27
10.78
6.90
2.78
-1.20
-4.62
-7.18
-8.87
-9.84
-10.37
-10.72
-11.07
-11.55
-12.31
-13.52
-15.31
-17.73
-20.65
-23.93
-27.36
-30.78
-34.00
-36.83
-39.07
-40.52
-41.08
-40.72
-39.50
-37.49
-34.67
-31.05
-26.70
-21.88
-16.97
-12.41
-8.50
-5.34
-2.88
-1.00
0.38
1.35
2.02
2.60
3.27
4.16
5.21
6.17
6.80
6.97
6.67
6.08
5.36
4.56
3.68
2.67
1.52
0.30
-0.89
-1.97
-2.94
-3.88
-4.95
-6.28
-7.90
-9.68
-11.35
-12.51
-12.88
-12.34
-11.03
-9.25
-7.36
-5.57
-3.94
-2.36
-0.76
0.87
2.37
3.60
4.42
4.82
4.84
4.53
3.94
3.11
2.10
1.04
0.10
-0.63
-1.19
-1.66
-2.19
-2.80
-3.43
-4.02
-4.56
-5.17
-6.05
-7.36
-9.19
-11.53
-14.34
-17.56
-21.19
-25.15
-29.25
-33.15
-36.47
-38.84
-40.10
-40.36
-39.96
-39.31
-38.74
-38.35
-37.96
-37.20
-35.76
-33.50
-30.53
-27.18
-23.79
-20.60
-17.68
-14.99
-12.42
-9.84
-6.96
-3.39
1.33
7.50
15.09
23.73
32.90
42.04
50.80
58.96
66.28
72.49
77.40
80.97
83.47
85.42
87.20
88.88
90.18
90.61
89.90
88.16
85.92
83.80
82.17
81.07
80.13
78.88
76.90
74.10
70.62
66.77
62.83
58.88
54.84
50.58
46.05
41.38
36.89
32.92
29.69
27.10
24.88
22.66
20.23
17.65
15.13
12.92
11.17
9.82
8.72
7.77
6.89
6.07
5.22
4.17
2.66
0.47
-2.41
-5.80
-9.27
-12.43
-14.94
-16.65
-17.60
-17.95
-17.94
-17.79
-17.72
-17.90
-18.49
-19.55
-20.99
-22.67
-24.32
-25.73
-26.73
-27.38
-27.83
-28.35
-29.09
-30.01
-30.95
-31.63
-31.93
-31.90
-31.75
-31.76
-32.07
-32.60
-33.13
-33.42
-33.34
-32.84
-31.98
-30.78
-29.25
-27.44
-25.40
-23.08
-20.18
-15.91
-9.18
1.02
15.05
32.30
51.27
69.99
86.66
100.06
109.65
115.50
118.11
118.24
116.77
114.48
111.85
108.99
105.58
101.08
95.00
87.10
77.57
67.01
56.36
46.76
39.24
34.48
32.46
32.53
33.70
35.18
36.72
38.65
41.62
46.17
52.50
60.34
69.10
78.15
86.96
95.34
103.47
111.82
121.00
131.52
143.56
156.71
169.83
180.97
187.48
186.47
175.59
153.94
122.74
85.13
45.41
7.64
-25.54
-53.64
-77.94
-100.90
-125.00
-151.99
-182.70
-217.06
-254.43
-293.63
-332.74
-369.06
-399.72
-422.80
-438.63
-450.17
-462.03
-478.08
-499.08
-521.19
-536.86
-537.51
-517.08
-474.35
-413.35
-341.70
-267.78
-198.42
-137.80
-87.61
-48.00
-18.35
2.49
16.15
24.99
31.59
38.19
45.98
54.85
63.92
72.44
80.56
89.41
100.39
114.32
130.90
149.00
167.13
184.07
198.99
211.24
220.32
226.24
229.91
233.16
238.00
245.45
254.58
262.53
265.54
260.48
246.10
223.43
195.14
164.57
134.92
108.90
88.58
75.25
69.19
69.34
73.37
78.14
80.56
78.43
70.95
58.91
44.16
29.02
15.54
4.87
-3.06
-9.62
-16.96
-27.17
-41.25
-58.61
-77.31
-95.00
-109.93
-121.59
-130.55
-137.78
-143.82
-149.11
-154.43
-161.43
-171.82
-186.08
-202.17
-216.22
-225.03
-228.68
-231.14
-237.92
-252.32
-272.79
-293.40
-307.11
-309.60
-301.00
-284.47
-263.10
-237.50
-205.80
-166.14
-119.19
-68.95
-21.00
20.20
53.28
79.99
103.71
127.52
152.73
178.54
202.26
220.37
229.75
229.17
219.71
204.52
187.64
172.36
160.27
151.15
143.96
137.81
132.62
128.88
126.95
126.45
126.14
124.48
120.32
113.56
105.05
96.16
88.09
81.40
75.90
70.97
66.00
60.81
55.81
51.73
49.16
48.26
48.62
49.55
50.41
50.86
50.82
50.25
49.03
46.92
43.77
39.62
34.63
28.83
21.95
13.40
2.71
-10.10
-24.26
-38.42
-51.21
-61.78
-70.16
-77.06
-83.29
-89.24
-94.54
-98.19
-99.06
-96.39
-90.01
-80.24
-67.77
-53.46
-38.24
-23.17
-9.35
2.33
11.32
17.61
21.57
23.74
24.45
23.86
21.96
18.78
14.63
10.02
5.59
1.98
-0.38
-1.39
-1.25
-0.45
0.54
1.45
2.35
3.49
4.96
6.43
7.12
6.05
2.52
-3.46
-11.03
-18.78
-25.16
-29.06
-30.10
-28.51
-24.94
-20.02
-14.14
-7.49
-0.28
7.10
13.99
19.65
23.59
25.72
26.38
26.11
25.37
24.32
22.90
21.04
18.85
16.76
15.34
15.10
16.19
18.30
20.76
22.72
23.37
22.23
19.21
14.63
9.05
3.05
-2.83
-8.21
-12.82
-16.46
-18.96
-20.29
-20.51
-19.86
-18.73
-17.58
-16.82
-16.71
-17.25
-18.22
-19.19
-19.60
-18.84
-16.34
-11.74
-5.02
3.41
12.74
21.84
29.50
34.79
37.28
37.18
35.34
32.90
30.99
30.35
31.18
33.16
35.60
37.76
39.01
39.06
37.91
35.77
32.93
29.62
25.98
22.13
18.25
14.60
11.43
8.80
6.51
4.13
1.23
-2.37
-6.45
-10.46
-13.84
-16.28
-17.97
-19.44
-21.29
-23.85
-26.97
-30.13
-32.63
-33.88
-33.57
-31.76
-28.74
-24.88
-20.53
-15.91
-11.18
-6.40
-1.67
2.90
7.16
10.89
13.86
15.82
16.63
16.34
15.24
13.81
12.52
11.59
10.87
9.87
7.92
4.61
-0.12
-5.83
-11.83
-17.40
-22.10
-25.85
-28.79
-31.18
-33.10
-34.40
-34.77
-33.93
-31.75
-28.40
-24.34
-20.20
-16.63
-14.19
-13.21
-13.55
-14.59
-15.10
-13.52
-8.42
0.94
14.18
29.73
45.26
58.33
67.16
70.91
69.72
64.36
55.81
45.00
32.83
20.22
8.26
-2.00
-9.84
-15.15
-18.48
-20.77
-23.01
-25.63
-28.43
-30.60
-31.11
-29.21
-24.62
-17.69
-9.25
-0.48
7.36
13.14
16.28
16.93
15.97
14.67
14.17
15.04
17.15
19.90
22.62
24.93
26.72
28.08
29.00
29.34
28.88
27.49
25.33
22.77
20.41
18.91
18.79
20.34
23.47
27.68
32.28
36.71
40.89
45.41
51.35
59.81
71.43
86.00
102.62
120.07
137.21
153.17
167.50
179.99
190.93
201.00
211.33
223.07
236.70
251.35
264.75
273.99
276.78
272.43
262.00
247.31
229.74
209.36
185.18
156.21
122.58
85.98
49.14
14.76
-15.66
-42.13
-65.89
-88.45
-111.02
-134.19
-158.29
-183.93
-212.37
-244.94
-282.05
-321.97
-360.34
-391.11
-408.62
-409.87
-395.82
-370.83
-340.66
-310.32
-282.70
-258.75
-238.43
-221.68
-208.67
-199.39
-193.21
-188.66
-183.79
-176.85
-166.77
-153.48
-137.91
-121.87
-107.70
-97.50
-92.69
-93.79
-100.93
-114.58
-135.94
-166.31
-205.46
-250.13
-293.68
-327.65
-344.56
-340.69
-317.17
-279.10
-233.25
-185.40
-139.08
-95.47
-54.42
-15.60
21.05
55.65
88.89
122.16
156.98
193.85
231.32
265.77
292.41
307.08
307.83
295.91
275.37
251.57
229.30
211.33
197.89
187.33
177.36
166.23
153.31
139.02
124.26
109.77
95.88
82.59
69.89
58.02
47.40
38.41
31.07
25.11
20.13
15.99
12.85
11.08
10.97
12.49
15.25
18.66
22.18
25.46
28.39
30.96
33.23
35.13
36.40
36.59
35.12
31.51
25.63
17.88
9.11
0.39
-7.29
-13.33
-17.55
-20.05
-21.17
-21.37
-21.38
-21.98
-23.72
-26.51
-29.57
-31.59
-31.36
-28.28
-22.63
-15.30
-7.38
0.21
6.82
11.95
15.12
16.05
14.81
12.05
8.95
6.84
6.63
8.54
12.06
16.30
20.31
23.36
25.09
25.49
24.88
23.81
22.98
23.06
24.48
27.25
30.90
34.54
37.19
38.17
37.41
35.55
33.69
32.85
33.43
34.81
35.45
33.57
27.89
18.40
6.54
-5.21
-14.11
-18.22
-17.20
-12.54
-7.22
-4.74
-7.88
-17.75
-33.27
-51.51
-68.64
-81.27
-87.57
-87.72
-83.53
-77.51
-71.79
-67.69
-65.72
-66.03
-68.70
-73.61
-80.05
-86.44
-90.52
-90.06
-83.97
-72.86
-59.10
-45.94
-36.29
-31.80
-32.30
-36.03
-40.32
-42.47
-40.57
-34.04
-23.57
-10.69
2.93
16.13
28.46
39.97
50.69
60.34
68.20
73.54
76.00
75.86
73.91
71.09
68.05
64.91
61.24
56.36
49.73
41.36
31.83
22.13
13.34
6.30
1.52
-0.83
-0.71
1.74
6.18
11.94
18.06
23.58
27.85
30.77
32.65
33.91
34.72
34.97
34.49
33.40
32.33
32.17
33.66
36.87
41.15
45.29
48.25
49.66
50.05
50.51
52.15
55.42
59.88
64.42
67.86
69.53
69.65
69.08
68.75
69.02
69.34
68.45
65.11
58.71
49.52
38.43
26.39
13.97
