1603627843.00
64.000000
-0.00
-0.00
-0.00
-0.00
-0.00
-0.00
-0.00
-0.00
-0.00
-0.00
0.00
0.01
0.01
-0.00
-0.03
-0.05
-0.05
0.00
0.13
0.36
0.66
1.01
1.37
1.72
2.06
2.40
2.79
3.24
3.80
4.42
5.06
5.66
6.20
6.68
7.15
7.68
8.31
9.14
10.09
11.04
11.88
12.56
13.14
13.76
14.65
15.96
17.91
20.32
22.90
25.38
27.58
29.57
31.68
34.32
37.82
42.55
48.15
54.10
59.82
64.95
69.57
74.17
79.44
85.85
93.88
102.96
112.29
121.04
128.73
135.51
142.09
149.78
157.16
166.33
177.76
191.47
206.34
219.60
227.09
224.28
207.79
176.55
132.72
79.91
22.40
-36.45
-94.78
-151.98
-207.93
-262.42
-315.01
-364.79
-411.35
-454.12
-492.13
-523.68
-546.46
-558.12
-557.01
-542.96
-517.10
-481.85
-439.71
-392.61
-341.55
-286.94
-229.32
-170.14
-112.05
-58.30
-11.94
25.50
54.50
77.37
96.92
115.37
133.20
149.22
161.44
168.03
167.91
160.82
147.36
129.50
111.69
100.99
105.44
130.32
174.07
226.67
272.03
294.15
284.00
243.50
184.16
121.56
68.59
31.00
7.63
-6.51
-16.21
-23.80
-29.56
-33.61
-37.49
-43.77
-54.11
-66.84
-76.43
-75.21
-57.16
-21.51
26.01
74.99
114.83
139.34
149.05
149.70
148.06
147.20
144.62
133.90
108.79
67.33
13.70
-43.02
-92.18
-125.08
-137.16
-128.60
-103.13
-66.54
-25.26
14.68
48.37
72.68
86.66
91.35
89.46
84.51
79.96
78.40
80.43
84.11
85.22
78.73
61.19
32.71
-2.45
-37.29
-64.63
-79.89
-82.26
-74.26
-59.98
-43.25
-26.64
-11.44
1.71
12.35
20.07
24.83
27.14
27.99
28.50
29.44
30.63
30.85
28.12
20.37
6.55
-12.50
-33.72
-52.64
-64.85
-67.80
-61.57
-48.78
-33.20
-18.19
-5.85
2.83
7.27
6.87
1.24
-8.94
-21.33
-32.21
-37.91
-36.51
-28.89
-18.43
-9.26
-4.20
-3.62
-5.84
-8.29
-9.22
-9.04
-9.58
-12.65
-17.92
-22.37
-21.94
-14.45
-1.94
9.60
13.25
5.34
-11.97
-31.25
-43.41
-42.34
-28.05
-6.30
14.82
29.23
35.44
35.98
34.84
34.49
34.54
32.56
26.25
15.56
3.34
-5.67
-7.62
-1.79
8.61
17.62
19.60
11.95
-3.73
-22.57
-38.73
-48.02
-49.14
-44.01
-36.43
-30.34
-28.35
-31.10
-37.50
-45.44
-52.87
-58.23
-61.03
-61.55
-60.17
-57.27
-53.31
-49.24
-46.55
-47.02
-51.36
-58.78
-66.79
-71.87
-70.90
-62.52
-47.61
-28.85
-9.64
7.52
20.96
30.03
35.04
36.98
37.46
38.60
42.89
49.09
57.02
65.84
74.06
79.85
81.49
77.81
68.63
54.88
38.69
23.52
12.81
9.06
13.08
23.77
38.61
54.70
69.86
83.26
95.81
108.86
123.36
139.15
154.84
168.14
176.45
177.25
168.58
149.67
120.87
84.02
42.46
0.72
-36.14
-63.48
-78.33
-79.87
-69.41
-50.09
-25.92
-0.78
22.44
42.27
58.54
71.33
80.82
86.99
89.79
89.38
86.17
80.82
73.96
65.91
55.69
41.77
22.47
-3.22
-34.90
-70.53
-106.56
-138.57
-162.37
-175.84
-178.73
-172.67
-160.60
-146.27
-134.16
-128.80
-133.89
-145.07
-156.41
-161.30
-155.87
-140.18
-117.13
-91.16
-66.72
-47.00
-33.19
-24.79
-19.66
-15.44
-10.48
-4.23
2.34
7.64
10.36
9.37
4.25
-4.27
-14.44
-24.05
-28.09
-21.43
-0.58
33.79
74.79
111.63
133.43
132.99
109.78
70.38
24.89
-17.31
-51.50
-79.08
-102.76
-123.06
-137.02
-139.47
-125.80
-95.50
-52.33
2.03
55.37
94.82
114.48
117.60
112.50
106.89
103.64
101.91
99.17
92.80
83.49
74.85
71.02
73.94
83.69
94.75
101.14
98.74
86.36
67.48
47.77
31.42
17.92
5.23
-10.08
-28.86
-48.42
-64.67
-74.12
-76.07
-72.91
-68.07
-63.48
-59.48
-54.86
-48.70
-41.83
-36.13
-32.98
-33.05
-36.64
-42.03
-48.06
-52.92
-53.61
-46.59
-29.72
-2.39
33.25
73.12
112.70
148.37
179.04
205.21
226.84
239.88
239.03
220.34
184.51
137.32
87.54
43.64
10.43
-12.60
-32.96
-54.54
-79.44
-106.57
-133.12
-156.43
-175.28
-190.15
-187.80
-162.52
-118.63
-67.41
-18.10
25.20
62.37
94.40
122.00
145.61
162.95
171.44
173.98
174.99
177.43
182.66
190.38
199.31
207.85
212.26
209.87
199.59
186.45
173.00
160.38
148.66
137.35
125.90
111.70
93.61
73.09
52.85
34.37
18.22
4.25
-7.98
-18.99
-33.01
-52.04
-73.85
-94.39
-111.45
-124.62
-134.44
-141.58
-146.78
-157.57
-177.46
-202.46
-225.38
-242.27
-252.83
-258.52
-261.03
-262.11
-273.80
-301.60
-339.23
-375.33
-403.26
-422.26
-434.37
-441.99
-448.02
-468.40
-510.41
-565.81
-619.55
-662.38
-692.59
-712.01
-722.83
-637.34
-432.46
-168.35
71.43
247.64
362.81
433.89
477.11
504.23
518.29
509.76
474.40
421.87
367.64
320.64
281.44
246.04
222.95
213.25
203.55
184.32
158.27
134.68
119.45
113.23
114.10
119.97
127.20
127.02
115.57
97.07
79.12
66.36
59.54
57.51
58.96
61.30
59.87
52.74
42.19
32.16
25.05
21.17
19.77
19.98
20.20
18.46
14.22
8.75
3.91
0.78
-0.69
-1.20
-1.59
-2.89
-5.40
-8.70
-11.85
-13.99
-14.72
-14.39
-13.93
-14.43
-16.71
-20.85
-26.02
-30.87
-34.31
-35.83
-35.88
-35.50
-35.84
-37.76
-41.90
-48.63
-57.73
-67.85
-76.02
-78.15
-70.51
-52.05
-24.64
6.23
33.77
52.68
61.19
61.20
56.52
50.73
45.56
40.90
35.74
29.73
23.55
18.45
15.33
13.94
13.12
11.45
7.84
2.18
-4.68
-11.43
-16.97
-20.77
-23.22
-25.23
-27.76
-31.41
-36.07
-41.01
-45.20
-47.73
-48.13
-46.49
-43.25
-38.93
-34.07
-28.90
-23.39
-17.35
-10.71
-3.57
3.74
10.89
17.72
24.01
29.78
35.21
40.50
45.78
51.07
56.18
60.01
62.93
64.89
65.81
65.71
64.64
62.71
60.03
56.72
52.97
49.10
45.24
41.45
37.78
34.25
30.88
28.05
25.44
22.98
20.76
18.72
16.83
15.09
13.47
11.96
10.58
9.25
7.99
6.91
5.96
5.13
4.40
3.78
3.24
2.80
2.39
2.05
1.80
1.64
1.55
1.53
1.58
1.68
1.84
2.02
2.23
2.47
2.74
3.05
3.39
3.78
4.19
4.64
5.11
5.59
6.03
6.41
6.71
6.86
6.78
6.41
5.68
4.56
3.27
1.57
-0.48
-2.84
-5.42
-8.15
-10.93
-13.61
-16.08
-18.21
-19.94
-21.16
-21.88
-22.13
-22.01
-21.60
-20.98
-20.19
-19.28
-18.29
-17.20
-16.04
-14.91
-13.94
-13.18
-12.63
-12.23
-11.83
-11.40
-10.71
-9.80
-8.83
-8.05
-7.62
-7.56
-7.69
-7.78
-7.68
-6.98
-5.70
-4.14
-2.75
-1.87
-1.53
-1.46
-1.26
-0.64
1.10
3.98
7.60
11.34
14.68
17.41
19.68
21.87
24.51
29.15
36.88
48.10
62.16
77.26
90.92
100.94
106.71
103.67
92.49
76.12
58.34
42.26
29.38
19.66
12.18
5.99
0.47
-3.71
-6.54
-8.52
-10.47
-13.08
-16.61
-20.81
-25.02
-28.42
-29.84
-29.10
-26.72
-23.60
-20.67
-18.67
-17.82
-17.75
-17.57
-15.80
-11.91
-6.05
1.19
8.94
16.21
22.26
27.06
31.40
36.68
42.63
48.62
54.38
60.10
65.78
71.17
75.95
80.03
83.43
84.14
82.34
82.08
89.66
109.15
139.11
172.42
199.25
210.17
195.91
154.78
94.06
26.31
-37.60
-92.39
-137.88
-176.01
-209.99
-247.95
-295.55
-353.19
-417.03
-483.17
-549.42
-614.28
-674.55
-688.19
-629.29
-505.40
-351.01
-198.77
-65.58
43.42
123.82
182.22
220.38
232.51
215.13
171.31
109.59
38.55
-32.30
-93.49
-134.82
-149.17
-138.11
-108.62
-70.16
-31.58
0.78
26.02
47.66
71.31
98.35
122.44
135.29
133.13
120.16
106.55
104.26
119.85
152.23
192.41
227.66
248.76
253.33
244.49
226.77
204.52
179.19
151.90
123.88
97.75
77.89
68.98
73.78
81.91
83.30
71.30
47.88
19.25
-8.48
-31.49
-48.49
-60.26
-68.79
-71.95
-70.92
-65.34
-55.22
-40.88
-22.59
-0.64
24.14
50.34
77.75
100.06
114.00
117.79
111.86
98.87
82.53
65.99
50.89
38.11
27.42
19.51
14.58
12.39
12.17
12.58
12.02
9.24
4.20
-2.56
-9.23
-14.42
-17.51
-18.67
-18.62
-18.24
-18.38
-19.37
-21.20
-22.98
-23.99
-23.68
-21.86
-18.75
-14.84
-10.97
-7.84
-5.38
-2.79
0.57
5.16
10.77
16.57
21.42
23.87
22.95
19.29
14.54
10.13
7.27
6.22
6.31
6.52
5.24
1.35
-4.36
-9.83
-13.30
-13.32
-10.01
-4.99
-0.41
0.92
-3.05
-12.03
-23.97
-37.33
-51.38
-67.70
-89.36
-111.46
-127.44
-147.35
-178.78
-217.09
-257.43
-294.02
-321.60
-335.60
-332.32
-310.93
-258.94
-177.29
-80.41
12.83
91.05
150.61
190.49
208.80
205.54
180.13
136.12
83.92
37.86
11.29
10.74
34.52
75.56
121.29
156.19
162.96
131.05
65.75
-10.93
-71.99
-99.01
-89.02
-52.40
-5.51
36.94
68.26
89.25
103.79
113.46
118.03
113.41
97.62
72.82
44.01
18.04
0.86
-4.48
0.98
13.31
27.75
41.10
52.72
63.14
72.05
76.59
73.25
58.26
29.81
-9.00
-52.94
-93.27
-120.40
-125.15
-104.10
-62.17
-12.00
31.54
51.94
40.97
4.25
-42.48
-83.40
-110.30
-123.68
-128.91
-130.44
-130.70
-132.82
-137.65
-145.71
-157.16
-169.60
-178.16
-176.41
-157.53
-118.26
-60.27
10.03
85.38
156.04
212.04
244.70
240.08
195.19
122.67
54.71
6.61
-15.36
-11.65
14.17
54.56
100.62
146.13
186.85
219.37
239.10
244.16
235.54
216.01
189.22
159.65
133.03
113.28
100.24
88.51
67.40
32.24
-13.45
-60.10
-98.06
-121.57
-130.48
-128.88
-123.09
-117.05
-111.10
-104.17
-95.71
-86.43
-77.41
-69.74
-64.07
-60.82
-59.13
-56.91
-52.64
-46.20
-38.74
-31.75
-26.45
-23.28
-22.15
-22.07
-21.32
-18.66
-14.01
-8.35
-3.19
0.07
0.96
-0.24
-2.52
-4.35
-4.64
-3.19
-0.94
0.56
-0.66
-5.08
-12.43
-21.54
-30.61
-38.27
-43.85
-47.77
-50.31
-53.17
-57.16
-62.82
-70.43
-79.75
-89.45
-96.64
-97.33
-87.83
-66.92
-36.85
-3.33
26.67
47.81
58.34
60.24
57.47
53.61
50.27
47.31
43.79
39.39
34.88
31.58
30.36
30.96
32.17
32.47
30.81
27.27
22.69
18.41
15.56
14.58
15.02
15.91
16.13
15.05
12.72
9.74
6.98
5.15
4.44
4.55
4.87
4.80
4.08
2.83
1.43
0.34
-0.18
-0.20
-0.02
-0.01
-0.33
-0.88
-1.34
-1.33
-0.61
0.76
2.48
4.17
5.57
6.78
8.16
10.36
13.59
17.82
22.57
27.13
30.87
33.43
34.92
35.77
36.55
37.70
39.60
42.52
46.48
50.94
54.55
55.24
50.99
40.75
25.27
7.15
-10.12
-23.50
-31.58
-34.87
-35.09
-34.10
-32.93
-31.68
-30.00
-27.76
-25.35
-23.54
-22.88
-23.30
-24.09
-24.31
-23.22
-20.74
-17.48
-14.43
-12.48
-12.02
-12.86
-14.32
-15.63
-16.28
-16.16
-15.58
-14.95
-14.56
-14.42
-14.28
-13.86
-13.02
-11.85
-10.68
-9.82
-9.48
-9.59
-9.88
-9.99
-9.61
-8.54
-6.72
-4.24
-1.19
2.31
6.14
10.09
13.84
16.92
18.84
19.20
17.87
15.06
11.23
6.95
2.79
-0.82
-3.56
-5.22
-5.68
-4.90
-3.04
-0.43
2.44
5.05
6.96
7.96
8.09
7.60
6.91
6.36
6.20
6.46
7.01
7.60
8.01
8.04
7.61
6.71
5.38
3.77
2.05
0.42
-0.96
-1.99
-2.73
-3.28
-3.80
-4.41
-5.17
-6.02
-6.88
-7.54
-7.81
-7.52
-6.66
-5.39
-4.00
-2.86
-2.25
-2.29
-2.91
-3.93
-5.15
-6.43
-7.69
-8.92
-10.15
-11.44
-12.82
-14.28
-15.67
-16.76
-17.20
-16.69
-15.03
-12.23
-8.54
-4.34
-0.09
3.80
7.03
9.46
11.09
12.03
12.45
12.51
12.35
12.06
11.69
11.30
10.92
10.55
10.19
9.78
9.24
8.54
7.68
6.70
5.66
4.62
3.59
2.58
1.64
0.84
0.26
-0.01
0.03
0.31
0.66
0.93
0.98
0.79
0.40
-0.05
-0.47
-0.76
-0.93
-1.04
-1.14
-1.23
-1.26
-1.13
-0.77
-0.19
0.49
1.12
1.59
1.82
1.85
1.77
1.67
1.58
1.49
1.39
1.25
1.06
0.86
0.63
0.37
0.05
-0.32
-0.73
-1.10
-1.33
-1.33
-1.09
-0.66
-0.17
0.26
0.55
0.71
0.82
0.93
1.02
0.99
0.76
0.33
-0.20
-0.61
-0.78
-0.64
-0.27
0.15
0.45
0.56
0.51
0.39
0.30
0.31
0.51
0.98
1.66
2.38
2.90
3.05
2.85
2.52
2.41
3.01
4.56
6.76
8.90
10.17
10.17
9.07
7.53
6.45
6.87
9.28
13.22
17.40
20.47
21.69
21.25
20.08
19.46
20.92
25.13
31.34
37.65
42.06
43.58
42.46
39.83
37.19
36.67
40.22
48.84
62.16
78.34
94.15
105.02
105.93
89.81
54.79
7.32
-40.15
-76.66
-98.15
-106.90
-107.90
-105.46
-101.53
-95.57
-86.65
-75.28
-63.69
-54.44
-48.93
-46.92
-46.92
-46.93
-45.00
-40.20
-33.20
-25.92
-20.33
-17.51
-17.30
-18.64
-20.11
-20.26
-18.32
-14.61
-10.41
-7.17
-5.82
-6.49
-8.56
-10.98
-12.59
-12.63
-11.16
-9.00
-7.31
-7.04
-8.57
-11.55
-15.04
-17.89
-19.27
-19.08
-18.05
-17.36
-17.99
-20.21
-23.57
-27.25
-30.61
-33.69
-36.83
-39.71
-40.95
-38.70
-31.99
-21.86
-11.16
-2.83
2.16
5.44
10.26
19.19
31.98
45.58
55.81
59.95
58.30
53.63
49.19
46.68
45.67
44.53
42.13
38.87
36.36
36.28
39.23
44.38
49.87
53.92
55.61
55.34
54.32
53.96
55.30
58.66
63.64
69.29
74.13
76.12
73.10
63.60
47.75
28.05
8.28
-8.18
-19.98
-28.22
-35.77
-45.34
-57.88
-72.28
-85.58
-95.62
-102.34
-107.30
-111.92
-116.17
-117.93
-114.49
-104.12
-86.16
-62.55
-37.17
-14.28
2.97
12.98
16.10
14.18
10.46
10.23
17.66
34.03
57.73
86.06
114.22
138.71
158.06
164.73
156.51
136.75
110.76
82.07
52.71
25.00
1.98
-14.42
-24.41
-28.73
-29.16
-27.57
-25.42
-23.47
-22.61
-23.35
-25.67
-29.38
-31.31
-28.89
-21.49
-10.57
1.12
10.64
16.10
17.08
14.59
10.83
7.81
6.41
6.45
7.17
7.59
6.80
3.79
0.10
-3.68
-7.32
-10.90
-14.51
-17.96
-20.72
-22.13
-21.96
-20.66
-19.43
-19.65
-22.08
-26.47
-31.53
-35.43
-36.56
-34.20
-28.59
-20.98
-12.76
-4.99
1.71
7.01
10.52
11.73
10.21
6.00
-0.22
-6.99
-12.51
-15.27
-14.63
-11.09
-5.96
-0.81
3.11
5.05
4.65
1.65
-4.37
-14.00
-27.60
-44.79
-64.02
-82.56
-97.05
-104.46
-103.13
-93.53
-78.12
-60.52
-44.20
-31.37
-22.59
-17.10
-13.63
-11.14
-9.13
-7.48
-6.13
-4.86
-3.44
-1.81
-0.29
0.51
-0.07
-2.43
-6.51
-11.89
-17.97
-24.18
-30.03
-35.00
-38.55
-40.06
-39.01
-35.17
-28.61
-19.66
-8.68
3.91
17.51
31.04
42.98
51.63
55.84
55.61
52.31
48.30
46.09
47.36
52.46
60.62
70.47
80.77
90.83
100.49
109.82
118.83
127.25
134.47
139.70
142.25
141.59
137.67
130.97
122.59
113.96
106.36
100.05
94.26
87.28
76.96
61.58
40.62
15.07
-12.84
-40.37
-65.66
-87.56
-105.63
-120.01
-131.11
-139.28
-144.73
-147.51
-147.73
-146.40
-144.24
-141.46
-138.01
-133.72
-128.47
-122.17
-114.79
-106.26
-97.29
-87.90
-77.36
-65.07
-51.36
-37.94
-27.68
-23.92
-22.40
-21.08
-18.84
-14.68
-7.42
3.54
17.35
31.93
45.04
55.35
61.68
63.72
63.04
60.78
57.51
53.56
49.31
45.34
42.29
39.67
36.78
32.88
28.00
22.00
15.32
8.97
4.27
2.30
2.86
4.97
7.42
8.86
8.23
5.11
-0.22
-6.64
-12.61
-16.98
-19.03
-18.48
-15.73
-11.70
-7.34
-3.22
0.83
5.46
10.78
16.34
21.44
25.38
27.64
28.10
27.13
25.79
25.35
26.14
27.70
30.01
33.46
38.48
45.02
52.33
59.60
66.13
70.31
70.45
66.63
60.72
54.74
49.18
40.85
27.48
10.25
-8.72
-28.00
-45.39
-57.84
-63.12
-61.20
-54.44
-47.87
-42.60
-41.51
-48.86
-66.68
-93.82
-126.82
-161.53
-194.07
-221.33
-231.81
-208.85
-152.10
-78.14
-9.60
38.79
64.61
73.96
75.73
77.31
80.15
80.89
76.83
68.57
59.28
52.25
49.19
50.23
54.64
59.70
61.79
59.28
53.22
46.30
40.99
38.59
39.40
43.01
47.73
51.01
51.42
49.26
45.94
42.96
41.24
41.11
42.67
45.78
50.04
55.29
60.78
64.42
62.85
52.33
30.71
-1.24
-39.48
-77.36
-106.96
-121.24
-116.26
-92.49
-54.76
-10.92
30.14
60.57
75.15
72.07
53.11
23.21
-10.86
-41.95
-64.52
-76.11
-78.01
-74.61
-71.30
-72.46
-79.33
-89.28
-96.58
-94.13
-76.38
-42.39
3.55
51.39
88.68
105.46
98.35
72.00
36.75
3.70
-20.25
-34.11
-41.58
-47.34
-53.55
-59.35
-62.67
-62.38
-59.57
-56.63
-55.36
-55.72
-56.32
-56.04
-55.72
-57.11
-61.07
-65.72
-66.49
-58.38
-38.95
-10.02
23.36
54.74
79.52
96.36
106.60
112.25
114.63
114.13
111.34
108.46
108.22
113.52
125.54
142.18
157.86
165.05
157.05
128.71
84.94
35.55
-8.36
-38.88
-54.10
-57.89
-57.06
-57.18
-60.02
-63.49
-64.73
-62.47
-57.92
-54.89
-56.57
-64.82
-79.21
-96.99
-113.41
-123.75
-124.01
-111.98
-88.70
-59.10
-31.09
-13.04
-10.68
-24.64
-50.60
-80.14
-103.58
-113.25
-106.11
-83.90
-51.61
-15.30
19.86
50.02
71.25
82.19
84.94
82.46
77.53
72.13
67.71
67.15
70.53
77.52
87.40
99.43
112.14
124.51
136.76
150.64
168.70
192.71
223.02
252.66
273.85
278.68
262.00
223.48
167.43
100.55
29.08
-42.10
-109.00
-166.45
-208.35
-229.05
-226.29
-203.80
-171.19
-140.84
-122.67
-120.24
-129.55
-142.21
-149.63
-146.43
-131.60
-107.27
-76.71
-42.73
-7.51
27.35
60.19
89.85
116.13
139.80
161.92
182.56
200.09
211.37
213.12
203.08
180.74
147.17
104.30
54.35
-0.18
-55.85
-107.74
-149.81
-176.53
-184.81
-175.28
-151.90
-120.35
-85.98
-52.58
-22.50
2.18
18.42
22.40
11.23
-14.80
-51.25
-90.46
-124.71
-148.85
-162.12
-167.50
-169.16
-169.63
-168.36
-162.71
-150.31
-131.69
-109.57
-87.68
-68.94
-54.31
-42.87
-33.12
-24.48
-17.97
-16.23
-20.24
-28.50
-38.06
-46.75
-54.89
-65.58
-83.05
-109.94
-145.95
-184.93
-217.20
-233.95
-231.02
-210.12
-177.27
-139.80
-96.54
-51.81
-11.83
18.82
39.10
50.09
53.38
50.68
44.00
37.56
32.36
29.47
29.82
33.83
41.12
51.21
64.29
81.61
100.70
119.95
139.41
160.20
183.54
209.79
237.97
265.79
290.00
307.02
313.86
309.63
295.68
275.17
252.35
231.94
218.38
214.87
222.30
238.62
259.08
277.06
285.87
280.80
260.79
228.56
189.10
147.48
106.87
67.70
28.53
-12.66
-57.09
-104.66
-154.17
-203.83
-251.51
-294.72
-330.69
-356.56
-369.93
-369.34
-354.42
-325.78
-284.98
-234.75
-179.23
-123.82
-74.21
-34.95
-8.05
7.29
13.77
14.23
10.18
1.63
-11.59
-28.12
-44.13
-53.71
-51.10
-33.09
-0.53
41.72
86.57
127.13
158.66
179.35
189.91
192.32
188.79
181.30
171.40
160.27
148.42
135.40
119.94
100.61
76.47
47.94
16.98
-13.35
-39.82
-60.07
-73.23
-79.93
-81.81
-81.46
-81.83
-85.34
-93.01
-103.92
-115.41
-124.49
-129.75
-132.59
-138.19
-152.98
-180.36
-217.38
-254.81
-280.98
-287.03
-270.75
-236.49
-193.36
-150.50
-112.71
-79.23
-45.53
-6.56
40.80
96.72
159.19
222.58
278.43
318.15
335.64
329.17
301.67
259.24
202.97
140.38
81.56
34.03
0.27
-20.69
-30.54
-31.28
-25.82
-17.87
-9.93
-4.07
-1.46
-1.40
-2.05
-1.59
0.65
3.92
6.83
8.89
9.44
6.68
1.10
-6.44
-14.89
-23.58
-32.71
-42.74
-53.69
-62.79
-69.65
-72.85
-70.69
-62.57
-50.29
-38.10
-30.27
-28.95
-34.92
-44.59
-53.59
-58.78
-59.33
-56.66
-53.62
-51.88
-51.45
-51.02
-49.04
-44.48
-37.51
-29.33
-19.04
-9.62
-3.02
0.43
1.90
3.34
6.57
12.13
19.24
25.99
30.05
30.42
27.41
22.05
15.22
7.70
0.98
-1.77
3.84
20.76
48.38
80.53
107.03
118.09
109.25
83.82
51.27
22.25
3.42
-4.48
-5.50
-4.83
-5.52
-7.47
-8.76
-7.86
-4.99
-1.90
-0.28
-0.95
-3.44
-6.56
-9.03
-10.27
-10.29
-9.48
-8.32
-7.16
-6.01
-4.98
-4.22
-3.95
-4.56
-6.62
-10.76
-17.28
-25.25
-32.07
-34.25
-28.59
-13.95
7.46
30.77
50.37
62.22
65.62
63.75
61.44
62.37
66.93
71.80
71.74
62.78
44.03
19.04
-5.87
-24.58
-33.78
-34.12
-29.54
-24.47
-21.28
-20.15
-18.85
-15.05
-8.38
-0.80
4.51
5.00
0.10
-8.34
-17.41
-24.22
-27.56
-28.15
-28.27
-30.51
-36.56
-46.56
-59.42
-73.24
-86.77
-98.29
-105.46
-105.50
-95.97
-76.33
-48.94
-18.83
8.07
27.30
37.58
40.75
40.00
38.06
35.97
33.35
29.53
24.73
20.18
17.58
17.83
20.32
23.29
24.72
23.17
18.67
12.65
7.24
4.34
4.78
7.75
11.31
13.18
11.85
7.32
1.14
-4.26
-6.69
-5.19
-0.70
4.46
7.71
7.63
4.57
0.72
-0.94
2.02
10.56
23.76
39.72
56.23
71.09
81.96
86.40
82.42
68.74
47.58
22.89
-0.31
-18.13
-29.14
-34.77
-38.06
-41.40
-44.24
-42.76
-32.17
-9.89
21.53
54.19
77.80
84.52
72.95
48.84
22.54
3.21
-5.07
-4.43
-0.62
1.22
-0.43
-3.19
-3.35
1.39
10.00
18.98
24.42
23.96
17.91
8.76
-0.05
-6.13
-8.74
-9.22
-10.19
-14.27
-22.83
-35.36
-49.71
-62.45
-71.50
-75.87
-76.20
-74.43
-72.75
-72.76
-74.97
-79.42
-85.45
-92.57
-99.56
-104.14
-102.95
-92.84
-72.57
-44.15
-12.66
15.63
35.70
45.89
47.95
45.52
41.90
38.68
35.68
32.12
27.79
23.40
20.21
18.99
19.38
20.12
19.80
17.37
12.95
7.56
2.54
-1.00
-2.72
-3.16
-3.38
-4.44
-6.88
-10.46
-14.28
-17.29
-18.70
-18.33
-16.62
-14.37
-12.23
-10.43
-8.53
-5.89
-1.91
3.52
9.81
15.89
20.62
23.39
24.42
24.78
25.77
28.41
32.79
38.02
42.56
45.02
44.90
42.97
41.14
41.40
44.94
51.40
58.75
64.11
65.12
60.82
52.18
41.74
32.07
25.09
21.59
21.34
23.32
25.64
24.89
15.46
-6.69
-42.49
-87.17
-130.45
-160.09
-167.33
-151.06
-118.39
-81.30
-50.58
-31.55
-22.93
-19.47
-15.70
-9.82
-2.88
3.17
7.12
9.67
12.60
17.66
25.13
33.78
41.65
47.04
49.72
50.39
50.66
52.34
56.48
63.09
71.07
78.69
82.87
84.37
85.10
87.43
92.44
98.29
100.01
91.30
67.82
30.06
-15.68
-60.11
-94.44
-114.15
-120.01
-116.92
-110.70
-105.42
-102.47
-101.42
-102.13
-104.97
-109.88
-114.82
-115.50
-106.78
-85.59
-52.98
-14.51
21.64
48.35
62.37
65.11
61.00
54.90
49.88
46.62
44.41
42.36
40.31
38.74
38.36
38.82
39.32
38.95
36.96
33.44
29.06
24.96
21.75
19.66
18.27
16.85
14.63
11.29
7.24
3.29
0.44
-0.66
0.11
2.15
4.54
6.40
7.25
7.38
7.37
7.97
9.65
12.37
15.60
18.62
20.82
22.01
22.56
22.93
23.64
25.04
27.31
30.39
33.83
36.72
36.85
33.40
25.61
13.80
-0.56
-15.23
-28.03
-37.66
-43.91
-47.38
-48.70
-48.39
-46.29
-42.14
-36.03
-28.63
-21.14
-14.85
-10.75
-9.11
-9.67
-11.59
-13.79
-15.34
-15.69
-14.83
-13.18
-11.35
-9.79
-8.71
-7.99
-7.35
-6.53
-5.45
-4.29
-3.30
-2.72
-2.59
-2.74
-2.93
-2.91
-2.59
-2.05
-1.48
-1.07
-0.95
-1.09
-1.40
-1.74
-2.04
-2.30
-2.59
-2.99
-3.47
-3.95
-4.32
-4.51
-4.51
-4.35
-4.10
-3.84
-3.59
-3.40
-3.28
-3.29
-3.41
-3.57
-3.62
-3.40
-2.84
-1.98
-1.00
-0.15
0.40
0.61
0.59
0.56
0.70
1.10
1.79
2.72
3.78
4.83
5.70
6.25
6.33
5.93
5.11
4.07
3.07
2.31
1.92
1.86
2.00
2.13
2.11
1.90
1.58
1.30
1.16
1.20
1.30
1.26
0.91
0.15
-0.93
-2.14
-3.27
-4.20
-4.90
-5.42
-5.80
-5.97
-5.87
-5.46
-4.81
-4.11
-3.58
-3.33
-3.33
-3.44
-3.53
-3.58
-3.69
-3.97
-4.45
-5.04
-5.58
-5.88
-5.87
-5.53
-4.88
-3.97
-2.84
-1.51
-0.07
1.35
2.58
3.47
3.96
4.07
3.91
3.66
3.48
3.43
3.48
3.51
3.40
3.09
2.63
2.12
1.66
1.29
1.02
0.86
0.80
0.87
1.06
1.29
1.50
1.67
1.86
2.22
2.88
3.85
4.99
6.07
6.86
7.28
7.39
7.34
7.31
7.36
7.47
7.55
7.57
7.52
7.47
7.49
7.55
7.59
7.48
7.16
6.63
6.01
5.42
4.91
4.50
4.09
3.64
3.10
2.50
1.90
1.30
0.67
-0.04
-0.83
-1.59
-2.18
-2.43
-2.30
-1.85
-1.34
-1.03
-1.13
-1.64
-2.43
-3.26
-3.93
-4.38
-4.67
-4.91
-5.16
-5.34
-5.33
-4.99
-4.31
-3.40
-2.44
-1.60
-0.97
-0.53
-0.22
-0.04
-0.03
-0.23
-0.60
-1.07
-1.47
-1.69
-1.69
-1.52
-1.27
-1.03
-0.83
-0.67
-0.54
-0.45
-0.43
-0.50
-0.65
-0.86
-1.14
-1.49
-1.93
-2.43
-2.91
-3.27
-3.47
-3.52
-3.53
-3.62
-3.87
-4.29
-4.83
-5.38
-5.84
-6.15
-6.29
-6.30
-6.27
-6.24
-6.21
-6.11
-5.87
-5.47
-4.97
-4.51
-4.27
-4.35
-4.75
-5.33
-5.87
-6.11
-5.85
-5.00
-3.60
-1.84
-0.01
1.53
2.51
2.82
2.51
1.84
1.15
0.75
0.80
1.29
2.02
2.68
2.98
2.78
2.18
1.45
0.95
0.94
1.46
2.35
3.28
3.98
4.33
4.43
4.56
4.99
5.89
7.16
8.50
9.51
9.85
9.42
8.39
7.12
6.03
5.42
5.33
5.60
5.94
6.03
5.69
4.91
3.86
2.81
2.08
1.89
2.29
3.13
4.11
4.86
5.13
4.83
4.08
3.08
2.04
1.03
0.09
-0.77
-1.49
-1.97
-2.09
-1.86
-1.36
-0.73
-0.06
0.60
1.19
1.60
1.63
1.06
-0.21
-2.05
-4.14
-6.06
-7.46
-8.16
-8.19
-7.70
-6.86
-5.81
-4.69
-3.61
-2.73
-2.16
-1.95
-2.04
-2.24
-2.35
-2.17
-1.60
-0.69
0.39
1.37
2.00
2.18
1.95
1.50
1.10
0.99
1.26
1.82
2.43
2.81
2.83
2.49
2.01
1.63
1.57
1.86
2.38
2.93
3.33
3.49
3.40
3.07
2.52
1.78
0.90
-0.01
-0.79
-1.35
-1.64
-1.78
-1.92
-2.25
-2.84
-3.65
-4.50
-5.19
-5.56
-5.55
-5.27
-4.91
-4.64
-4.53
-4.53
-4.48
-4.19
-3.56
-2.63
-1.53
-0.48
0.36
0.95
1.33
1.64
1.98
2.39
2.85
3.26
3.53
3.65
3.67
3.66
3.64
3.55
3.29
2.81
2.20
1.63
1.29
1.27
1.51
1.88
2.21
2.43
2.55
2.63
2.70
2.73
2.64
2.38
1.95
1.42
0.88
0.38
-0.10
-0.59
-1.10
-1.58
-1.92
-2.05
-1.95
-1.71
-1.47
-1.41
-1.62
-2.14
-2.86
-3.60
-4.20
-4.50
-4.45
-4.09
-3.53
-2.88
-2.24
-1.60
-0.91
-0.11
0.78
1.61
2.20
2.37
2.09
1.45
0.68
0.00
-0.43
-0.59
-0.55
-0.39
-0.18
0.06
0.33
0.61
0.86
1.04
1.13
1.10
0.99
0.83
0.68
0.58
0.56
0.62
0.72
0.78
0.72
0.50
0.14
-0.31
-0.75
-1.12
-1.42
-1.67
-1.93
-2.23
-2.58
-2.95
-3.32
-3.61
-3.77
-3.74
-3.51
-3.16
-2.75
-2.37
-2.05
-1.73
-1.37
-0.92
-0.41
0.08
0.51
0.84
1.13
1.43
1.74
2.03
2.25
2.39
2.51
2.67
2.91
3.18
3.39
3.44
3.32
3.08
2.83
2.65
2.53
2.43
2.27
2.06
1.80
1.56
1.33
1.05
0.66
0.09
-0.66
-1.51
-2.32
-2.96
-3.34
-3.37
-3.05
-2.39
-1.51
-0.54
0.30
0.85
1.02
0.86
0.53
0.22
0.02
-0.09
-0.20
-0.43
-0.77
-1.09
-1.20
-0.98
-0.51
-0.01
0.29
0.31
0.13
-0.08
-0.15
-0.02
0.24
0.40
0.28
-0.10
-0.46
-0.45
0.18
1.44
3.09
4.71
5.80
6.04
5.59
5.01
5.00
6.02
8.16
11.13
14.36
16.79
17.63
16.96
15.81
15.56
17.17
20.90
26.16
31.77
35.56
35.96
33.26
29.64
27.82
29.50
34.85
42.72
51.29
57.64
59.86
58.39
55.39
52.56
49.43
43.97
34.14
19.19
-2.09
-30.50
-65.80
-106.57
-150.59
-194.45
-232.69
-258.57
-255.56
-215.70
-148.82
-78.33
-24.54
6.25
19.80
26.14
32.79
41.66
48.25
46.55
34.15
14.04
-7.59
-24.51
-32.49
-30.13
-19.98
-6.67
4.94
12.48
16.79
20.29
24.79
30.52
36.11
39.43
37.98
30.43
17.86
3.25
-10.27
-20.88
-28.39
-33.70
-37.44
-40.06
-41.47
-40.81
-36.84
-28.87
-17.41
-4.09
8.86
19.39
26.13
28.77
28.20
26.13
24.34
23.99
25.36
27.99
31.01
33.62
35.27
35.86
35.62
34.90
33.91
32.69
31.14
29.19
26.92
24.49
22.10
19.94
18.06
16.45
15.05
13.78
12.67
11.70
10.77
9.79
8.66
7.40
6.08
4.84
3.87
3.37
3.41
3.77
4.14
4.30
4.25
4.27
4.83
6.42
9.52
14.07
19.37
24.44
28.50
31.38
33.39
35.13
37.13
39.88
43.12
45.97
47.50
47.41
46.26
45.18
45.26
47.30
51.96
59.08
67.49
75.13
79.59
78.25
68.81
49.67
19.33
-18.64
-56.23
-84.96
-100.81
-104.92
-101.34
-93.84
-84.84
-75.12
-64.27
-52.31
-40.12
-29.32
-21.03
-15.53
-11.86
-8.74
-4.97
0.29
6.88
13.86
19.60
22.90
22.21
18.45
12.89
7.01
2.11
-1.25
-3.15
-4.77
-5.19
-5.89
-7.53
-9.60
-10.63
-9.10
-5.86
0.08
7.91
15.89
21.91
24.37
23.28
20.08
16.37
13.73
13.35
15.09
17.67
18.65
14.52
3.12
-15.08
-37.92
-59.85
-72.65
-68.50
-43.22
7.63
77.42
152.64
217.24
255.19
257.77
226.13
169.42
100.21
29.50
-36.81
-96.35
-148.77
-197.50
-244.70
-290.09
-331.50
-367.08
-396.49
-421.29
-442.40
-438.47
-397.07
-319.62
-221.78
-122.69
-35.60
34.06
85.77
122.17
147.26
161.93
167.39
165.74
160.58
155.30
151.76
149.94
149.03
148.12
143.96
133.77
117.27
96.76
75.37
55.47
37.98
22.68
8.58
-7.10
-22.95
-39.71
-56.32
-70.60
-80.79
-86.26
-87.66
-86.59
-85.65
-86.98
-92.17
-101.37
-113.83
-127.72
-139.74
-145.31
-139.90
-121.36
-91.38
-55.68
-21.56
4.70
20.42
27.02
28.69
29.76
32.94
38.09
43.76
48.82
53.17
57.80
63.69
70.69
77.37
81.58
81.14
75.24
64.46
50.42
36.01
23.77
15.05
9.50
5.43
0.57
-6.45
-16.18
-28.15
-39.47
-46.98
-48.67
-44.80
-37.76
-31.20
-27.94
-29.86
-37.04
-45.09
-48.30
-41.91
-23.95
4.69
36.65
66.41
90.35
107.64
123.72
145.64
178.93
224.84
280.54
341.35
403.49
463.70
499.02
491.20
432.56
332.32
212.83
100.49
17.07
-25.66
-30.14
-11.73
10.75
20.66
9.79
-20.50
-61.34
-101.82
-133.79
-155.14
-168.51
-175.69
-177.35
-173.07
-163.26
-149.51
-135.44
-124.06
-118.09
-118.47
-122.44
-125.92
-125.44
-120.69
-113.89
-109.08
-110.03
-118.59
-132.99
-146.85
-151.91
-137.60
-103.83
-57.45
-9.07
31.57
58.82
72.51
77.04
77.98
79.50
82.07
85.36
88.19
90.63
93.54
97.95
104.84
112.93
121.24
126.06
122.28
105.85
75.78
35.90
-8.55
-50.31
-83.09
-103.61
-113.09
-115.84
-116.09
-116.69
-118.80
-123.14
-130.63
-143.08
-162.11
-182.45
-200.01
-208.27
-200.41
-172.63
-127.57
-73.66
-22.19
17.21
40.08
47.39
44.95
39.41
35.53
34.36
34.71
34.91
34.34
33.72
34.01
37.08
43.57
53.59
65.91
78.93
91.17
101.91
111.16
119.24
127.01
132.64
136.94
140.60
144.38
148.87
153.66
156.48
152.95
138.50
110.62
71.40
26.85
-14.89
-46.97
-66.40
-74.66
-76.07
-74.78
-72.85
-69.78
-64.57
-57.29
-49.76
-44.65
-43.99
-47.85
-54.27
-60.30
-63.31
-62.51
-59.55
-57.02
-57.53
-62.70
-72.80
-86.93
-103.35
-119.45
-131.80
-135.56
-127.88
-107.98
-78.44
-44.93
-14.29
8.22
20.74
25.03
24.75
23.15
21.86
20.71
18.92
16.41
14.53
14.66
17.64
22.96
28.89
33.52
35.44
34.48
31.71
28.78
27.03
26.94
27.93
28.71
28.09
25.53
21.28
16.51
12.75
10.94
11.08
12.25
13.12
12.76
10.97
8.23
5.86
5.46
7.65
11.78
16.25
19.34
20.23
19.26
17.54
17.09
20.09
27.13
36.99
47.21
55.28
60.10
62.28
63.40
66.46
75.17
91.58
115.24
143.13
170.37
192.41
206.55
205.93
181.74
133.68
69.64
2.60
-55.86
-100.45
-131.06
-149.99
-160.09
-162.44
-156.89
-144.76
-129.28
-115.03
-106.67
-107.90
-117.45
-132.59
-148.74
-160.32
-162.48
-151.99
-124.76
-84.99
-40.34
1.26
33.75
55.59
68.88
76.84
82.07
84.96
84.02
78.79
71.00
63.89
61.80
68.67
84.21
104.97
124.57
134.72
128.83
104.82
64.07
16.31
-26.98
-57.22
-71.63
-73.64
-70.42
-68.39
-69.80
-73.10
-74.45
-71.55
-64.85
-57.12
-51.86
-51.46
-56.96
-66.37
-77.42
-88.25
-97.88
-105.07
-107.51
-102.18
-85.50
-58.76
-25.97
6.92
34.55
53.64
63.93
67.46
66.77
63.62
58.60
52.57
46.97
43.99
45.08
50.16
57.41
64.11
67.91
68.09
65.45
62.27
61.38
64.70
73.04
85.79
100.72
113.87
120.03
114.49
93.81
60.49
20.76
-17.19
-46.23
-62.95
-68.46
-66.98
-63.14
-59.73
-57.03
-54.19
-50.50
-46.25
-42.58
-40.57
-40.47
-41.54
-42.53
-42.21
-40.28
-37.23
-33.79
-30.57
-27.74
-25.16
-22.62
-20.06
-17.63
-15.76
-14.68
-14.12
-13.54
-12.25
-10.07
-7.44
-5.28
-4.50
-5.67
-9.03
-14.29
-21.16
-29.02
-36.37
-40.62
-38.46
-27.41
-6.91
19.71
47.24
70.48
86.66
96.35
102.32
106.88
109.64
107.00
94.42
69.85
35.73
-1.32
-33.27
-54.36
-63.51
-63.60
-59.43
-54.98
-51.47
-47.71
-41.80
-32.91
-22.07
-11.16
-2.71
2.38
4.81
6.30
8.69
12.83
18.32
23.84
27.88
29.59
29.06
27.19
25.19
23.94
23.49
23.02
21.45
17.89
12.14
4.78
-3.05
-10.19
-16.01
-20.53
-23.88
-27.04
-30.37
-34.11
-37.19
-38.69
-38.27
-36.42
-34.38
-33.63
-35.31
-39.65
-45.18
-50.95
-55.76
-58.89
-60.52
-61.53
-62.97
-65.74
-70.46
-77.51
-86.78
-96.94
-105.03
-106.98
-98.96
-79.83
-51.50
-19.48
9.31
29.42
38.95
39.74
35.75
30.73
26.66
23.60
20.82
18.09
16.18
16.55
20.06
26.45
34.36
42.05
48.02
51.75
53.65
54.66
55.66
56.90
57.98
57.98
55.94
51.39
44.56
36.29
27.73
19.87
13.21
7.73
3.00
-1.53
-6.23
-11.12
-15.88
-20.08
-23.36
-25.66
-27.04
-27.84
-28.48
-29.19
-30.31
-31.82
-33.64
-35.70
-38.06
-40.63
-43.46
-46.73
-50.43
-54.73
-59.52
-64.63
-69.92
-75.43
-80.87
-86.25
-91.77
-97.31
-103.22
-109.24
-114.94
-119.92
-124.10
-127.11
-129.18
-130.78
-131.41
-131.78
-130.72
-126.19
-115.45
-100.57
-82.42
-62.39
-42.25
-21.87
-3.81
12.82
29.96
49.73
73.38
101.21
131.52
161.45
190.95
215.59
236.73
257.80
282.95
315.00
354.48
398.22
440.16
476.20
495.30
493.41
470.05
428.60
375.67
320.32
271.74
215.51
185.05
172.69
172.11
175.61
176.49
170.33
155.24
130.59
96.24
54.29
-0.31
-66.88
-142.16
-219.53
-289.78
-343.36
-373.80
-380.08
-366.95
-349.91
-341.81
-350.77
-376.34
-409.53
-436.88
-446.76
-433.45
-399.04
-353.44
-304.19
-254.75
-203.78
-147.66
-84.46
-22.39
36.57
82.39
105.73
103.94
81.48
48.30
15.83
-7.42
-18.73
-20.13
-17.63
-15.94
-15.46
-12.82
-3.25
16.03
43.63
74.23
101.57
119.57
126.40
124.29
117.92
112.07
109.48
110.05
111.51
111.43
107.72
100.62
92.06
84.48
79.46
76.96
75.51
73.16
68.74
61.87
53.55
45.34
38.61
33.99
31.28
29.75
28.69
27.74
26.69
25.67
24.86
24.37
24.20
24.27
24.48
25.13
26.34
27.98
29.71
31.20
32.34
33.27
34.34
35.92
38.86
43.41
49.09
54.83
59.63
63.01
65.20
66.89
68.89
72.83
79.21
87.37
95.57
102.04
105.71
106.56
105.48
103.76
104.00
107.16
112.41
117.04
117.69
111.43
96.75
73.80
36.41
-14.15
-70.53
-121.63
-159.16
-181.09
-190.58
-192.61
-191.36
-189.16
-183.42
-172.70
-152.85
-121.85
-82.20
-40.92
-7.03
11.55
9.75
-10.50
-44.29
-85.12
-124.32
-152.70
-164.51
-159.40
-141.43
-123.42
-108.09
-96.66
-90.56
-91.74
-99.78
-113.50
-127.68
-128.15
-105.06
-57.36
4.47
64.11
116.74
161.12
197.37
223.50
237.43
236.22
219.32
188.39
148.47
106.70
68.15
35.08
7.61
-15.05
-34.88
-52.86
-69.49
-84.36
-96.41
-105.81
-113.16
-118.94
-123.28
-126.94
-130.54
-135.26
-142.79
-155.36
-176.25
-207.73
-249.55
-297.80
-345.33
-382.75
-401.11
-394.71
-362.90
-310.43
-244.39
-172.46
-101.09
-34.54
25.26
78.02
124.17
164.52
200.34
234.93
271.32
310.33
349.92
385.82
412.84
426.29
423.48
404.85
375.82
343.37
312.98
287.44
266.99
249.84
232.83
212.43
175.23
116.87
43.84
-30.20
-92.21
-134.68
-155.41
-156.35
-142.30
-119.81
-95.14
-70.78
-49.30
-32.83
-22.06
-16.19
-14.47
-16.45
-21.68
-27.73
-31.93
-33.11
-31.49
-27.91
-23.34
-19.64
-18.70
-21.31
-25.69
-29.10
-29.99
-28.28
-24.82
-20.88
-19.11
-22.23
-31.86
-47.59
-68.23
-93.63
-124.50
-161.42
-195.00
-214.58
-214.08
-196.14
-168.17
-136.70
-106.11
-78.91
-56.30
-38.61
-26.81
-21.50
-21.97
-25.88
-29.56
-30.63
-28.44
-23.57
-17.44
-12.88
-13.08
-20.49
-33.86
-48.30
-57.94
-57.47
-43.91
-18.32
13.95
45.00
67.83
79.31
82.05
80.51
79.05
80.38
84.78
91.61
99.85
109.54
112.73
108.76
98.78
84.63
67.56
47.73
26.40
4.69
-15.88
-33.89
-46.94
-53.42
-54.60
-52.05
-47.57
-40.97
-32.33
-21.40
-8.24
8.02
26.61
47.16
69.50
82.56
82.21
68.68
46.19
19.83
0.06
-12.81
-19.04
-18.41
-10.55
6.78
30.57
57.60
82.97
101.74
109.39
105.05
90.89
70.70
49.50
30.22
13.98
0.13
-12.10
-23.38
-32.80
-39.38
-43.09
-44.25
-44.34
-44.61
-45.95
-48.44
-51.87
-55.34
-58.19
-60.29
-61.40
-61.52
-60.36
-57.69
-53.52
-48.37
-42.96
-38.21
-34.98
-33.53
-33.56
-34.11
-33.94
-31.93
-27.43
-20.48
-11.97
-3.53
2.88
5.72
4.48
-0.12
-6.31
-11.89
-14.96
-14.42
-10.08
-2.47
7.50
18.80
30.32
40.96
49.68
55.67
58.57
58.55
56.24
52.48
48.12
43.76
39.75
36.21
33.10
30.30
27.73
25.33
23.11
21.12
19.36
17.80
16.34
14.82
13.08
11.05
8.76
6.35
4.05
2.07
0.53
-0.61
-1.46
-2.21
-2.94
-3.63
-4.13
-4.33
-4.20
-3.85
-3.43
-3.05
-2.69
-2.16
-1.25
0.22
2.22
4.58
7.00
9.20
11.01
12.41
13.45
14.19
14.67
14.81
14.56
13.83
12.67
11.13
9.35
7.46
5.54
3.70
2.06
0.80
0.05
-0.12
0.26
0.96
1.75
2.44
2.96
3.40
3.90
4.55
5.30
5.97
6.32
6.17
5.44
4.18
2.53
0.65
-1.35
-3.40
-5.54
-7.81
-10.23
-12.77
-15.29
-17.61
-19.49
-20.75
-21.28
-20.98
-19.81
-17.67
-14.58
-10.67
-6.29
-1.96
1.76
4.44
5.91
6.25
5.75
4.69
3.35
1.94
0.66
-0.33
-0.90
-1.04
-0.81
-0.36
0.22
0.89
1.71
2.71
3.84
4.93
5.72
5.94
5.45
4.22
2.37
0.15
-2.19
-4.40
-6.25
-7.57
-8.27
-8.33
-7.82
-6.87
-5.65
-4.35
-3.10
-2.02
-1.14
-0.40
0.26
0.94
1.67
2.42
3.10
3.56
3.72
3.53
3.05
2.38
1.62
0.86
0.11
-0.60
-1.25
-1.82
-2.26
-2.55
-2.70
-2.73
-2.66
-2.50
-2.21
-1.77
-1.16
-0.43
0.32
0.99
1.52
1.90
2.17
2.38
2.59
2.81
3.07
3.38
3.74
4.12
4.47
4.72
4.82
4.72
4.45
4.03
3.54
3.05
2.64
2.43
2.46
2.72
3.15
3.60
3.93
4.05
3.96
3.71
3.36
2.99
2.61
2.26
1.93
1.64
1.43
1.33
1.36
1.49
1.62
1.61
1.36
0.82
0.06
-0.78
-1.53
-2.13
-2.56
-2.88
-3.16
-3.40
-3.56
-3.56
-3.36
-2.96
-2.44
-1.87
-1.34
-0.89
-0.52
-0.22
-0.01
0.12
0.14
0.09
0.01
-0.00
0.10
0.33
0.63
0.93
1.21
1.53
1.97
2.55
3.23
3.85
4.26
4.37
4.25
4.10
4.12
4.41
4.90
5.38
5.62
5.50
5.02
4.27
3.37
2.37
1.32
0.23
-0.82
-1.77
-2.51
-3.07
-3.49
-3.86
-4.24
-4.57
-4.78
-4.74
-4.41
-3.76
-2.88
-1.87
-0.89
-0.15
0.19
0.01
-0.69
-1.74
-2.91
-3.91
-4.59
-4.87
-4.79
-4.43
-3.86
-3.14
-2.31
-1.44
-0.61
0.10
0.64
0.97
1.12
1.15
1.12
1.06
0.98
0.88
0.78
0.71
0.72
0.83
1.06
1.31
1.48
1.46
1.21
0.78
0.26
-0.26
-0.74
-1.18
-1.61
-2.05
-2.45
-2.73
-2.80
-2.57
-2.03
-1.21
-0.20
0.92
2.03
2.99
3.66
3.94
3.82
3.41
2.87
2.35
1.92
1.53
1.04
0.41
-0.33
-1.02
-1.46
-1.59
-1.46
-1.24
-1.09
-1.04
-1.00
-0.81
-0.42
0.13
0.66
0.99
1.00
0.68
0.18
-0.36
-0.79
-1.08
-1.22
-1.25
-1.24
-1.22
-1.24
-1.33
-1.58
-2.00
-2.57
-3.16
-3.64
-3.90
-3.94
-3.84
-3.77
-3.88
-4.22
-4.74
-5.34
-5.82
-6.04
-5.90
-5.36
-4.48
-3.38
-2.25
-1.28
-0.58
-0.19
-0.08
-0.17
-0.34
-0.50
-0.54
-0.40
-0.04
0.50
1.15
1.78
2.28
2.56
2.56
2.32
1.93
1.49
1.15
0.97
0.96
1.04
1.13
1.14
1.04
0.87
0.67
0.44
0.16
-0.18
-0.56
-0.88
-1.04
-1.00
-0.78
-0.51
-0.36
-0.43
-0.76
-1.28
-1.85
-2.37
-2.74
-2.93
-2.96
-2.90
-2.81
-2.74
-2.70
-2.64
-2.54
-2.35
-2.09
-1.79
-1.47
-1.16
-0.84
-0.50
-0.14
0.19
0.44
0.58
0.60
0.56
0.57
0.73
1.07
1.57
2.15
2.66
2.99
3.07
2.90
2.53
2.03
1.48
0.96
0.55
0.29
0.22
0.26
0.30
0.20
-0.13
-0.69
-1.34
-1.90
-2.23
-2.27
-2.08
-1.78
-1.51
-1.34
-1.27
-1.29
-1.38
-1.54
-1.77
-2.11
-2.49
-2.82
-2.97
-2.87
-2.46
-1.84
-1.19
-0.69
-0.44
-0.41
-0.48
-0.49
-0.34
-0.00
0.46
0.96
1.44
1.88
2.26
2.57
2.76
2.80
2.69
2.46
2.15
1.83
1.51
1.21
0.91
0.64
0.42
0.27
0.20
0.16
0.10
-0.02
-0.23
-0.47
-0.66
-0.73
-0.65
-0.50
-0.41
-0.53
-0.90
-1.48
-2.12
-2.69
-3.08
-3.29
-3.35
-3.35
-3.29
-3.17
-2.93
-2.57
-2.11
-1.59
-1.09
-0.65
-0.25
0.11
0.44
0.71
0.87
0.87
0.66
0.27
-0.25
-0.80
-1.29
-1.63
-1.78
-1.72
-1.46
-1.05
-0.56
-0.07
0.34
0.61
0.73
0.74
0.77
0.89
1.18
1.58
2.00
2.28
2.30
2.03
1.51
0.86
0.18
-0.42
-0.91
-1.27
-1.50
-1.64
-1.70
-1.75
-1.81
-1.92
-2.06
-2.20
-2.29
-2.28
-2.16
-1.95
-1.65
-1.30
-0.88
-0.40
0.14
0.70
1.20
1.58
1.83
1.98
2.10
2.24
2.42
2.58
2.64
2.53
2.23
1.84
1.45
1.19
1.10
1.16
1.31
1.48
1.59
1.63
1.61
1.56
1.51
1.46
1.39
1.27
1.06
0.81
0.56
0.39
0.34
0.40
0.48
0.43
0.15
-0.39
-1.11
-1.86
-2.47
-2.87
-3.07
-3.18
-3.33
-3.55
-3.82
-4.00
-3.95
-3.57
-2.85
-1.91
-0.87
0.13
0.98
1.63
2.06
2.29
2.35
2.33
2.30
2.35
2.51
2.75
3.00
3.14
3.11
2.86
2.41
1.84
1.23
0.68
0.26
0.03
0.01
0.17
0.45
0.75
0.96
0.98
0.79
0.41
-0.04
-0.43
-0.67
-0.71
-0.62
-0.50
-0.43
-0.49
-0.66
-0.88
-1.09
-1.28
-1.47
-1.72
-2.07
-2.50
-2.92
-3.23
-3.30
-3.07
-2.57
-1.92
-1.24
-0.66
-0.24
0.03
0.21
0.36
0.53
0.76
1.04
1.33
1.58
1.71
1.64
1.37
0.98
0.64
0.53
0.74
1.18
1.70
2.06
2.17
2.05
1.84
1.67
1.61
1.62
1.61
1.51
1.34
1.16
0.98
0.79
0.49
0.05
-0.50
-1.06
-1.49
-1.72
-1.78
-1.75
-1.74
-1.76
-1.73
-1.47
-0.89
0.01
1.11
2.20
3.15
3.92
4.65
5.55
6.84
8.58
10.64
12.81
14.83
16.49
17.67
18.42
18.94
19.65
20.82
22.56
24.70
26.88
28.59
29.47
29.55
29.25
29.41
30.66
33.21
36.60
39.92
42.00
41.95
39.52
35.06
29.48
23.41
17.09
10.22
2.28
-7.48
-19.82
-35.47
-55.65
-78.63
-101.41
-120.34
-132.75
-137.89
-136.79
-131.22
-122.76
-112.73
-101.36
-88.53
-74.03
-58.41
-43.05
-30.12
-22.65
-20.70
-24.11
-32.00
-42.84
-53.74
-60.69
-57.11
-40.16
-11.16
24.65
59.57
86.97
103.55
110.16
110.17
107.02
102.30
96.05
88.19
79.54
72.37
69.23
71.22
76.56
80.81
78.48
65.67
42.30
11.97
-19.15
-45.98
-64.95
-75.06
-77.34
-73.87
-66.76
-57.87
-48.93
-41.20
-34.85
-28.38
-19.32
-5.80
11.76
30.04
44.19
50.44
48.26
40.81
33.16
29.31
30.15
33.63
36.38
36.14
33.09
29.36
27.42
28.44
31.67
34.34
34.32
30.65
23.94
15.81
7.96
1.39
-3.83
-8.39
-13.14
-18.45
-24.07
-29.16
-32.62
-33.66
-32.14
-28.65
-24.33
-20.39
-17.60
-16.11
-15.45
-14.80
-13.42
-10.96
-7.64
-4.13
-1.23
0.49
0.81
-0.10
-1.88
-4.15
-6.64
-9.18
-11.66
-13.95
-15.86
-17.22
-17.96
-18.12
-17.84
-17.27
-16.49
-15.54
-14.41
-13.09
-11.59
-9.98
-8.35
-6.73
-5.18
-3.71
-2.34
-1.09
0.01
0.97
1.79
2.50
3.11
3.58
3.87
3.94
3.80
3.50
3.15
2.87
2.76
2.90
3.27
3.79
4.36
4.83
5.09
5.06
4.76
4.26
3.66
3.08
2.58
2.16
1.84
1.56
1.30
1.05
0.80
0.58
0.39
0.24
0.11
-0.02
-0.20
-0.45
-0.79
-1.17
-1.51
-1.71
-1.67
-1.35
-0.78
-0.06
0.66
1.25
1.61
1.71
1.57
1.26
0.89
0.53
0.25
0.07
-0.01
-0.01
0.06
0.20
0.40
0.63
0.83
0.94
0.91
0.78
0.67
0.67
0.86
1.22
1.65
2.00
2.16
2.07
1.76
1.33
0.90
0.62
0.50
0.51
0.53
0.45
0.23
-0.08
-0.37
-0.52
-0.53
-0.44
-0.38
-0.45
-0.69
-1.06
-1.46
-1.81
-2.06
-2.19
-2.21
-2.11
-1.87
-1.50
-1.01
-0.48
-0.01
0.27
0.31
0.13
-0.15
-0.38
-0.42
-0.20
0.27
0.91
1.60
2.20
2.63
2.83
2.84
2.71
2.48
2.20
1.88
1.50
1.08
0.67
0.34
0.16
0.11
0.13
0.09
-0.07
-0.36
-0.69
-0.94
-1.06
-1.06
-1.03
-1.06
-1.18
-1.35
-1.47
-1.47
-1.32
-1.06
-0.73
-0.40
-0.11
0.14
0.30
0.36
0.31
0.22
0.20
0.34
0.66
1.08
1.43
1.57
1.44
1.12
0.75
0.47
0.34
0.33
0.36
0.41
0.48
0.62
0.85
1.10
1.29
1.35
1.27
1.06
0.81
0.56
0.29
-0.03
-0.43
-0.88
-1.33
-1.67
-1.82
-1.76
-1.53
-1.23
-1.00
-0.89
-0.92
-1.03
-1.15
-1.24
-1.28
-1.34
-1.41
-1.50
-1.54
-1.45
-1.22
-0.88
-0.50
-0.17
0.10
0.31
0.51
0.72
0.96
1.20
1.46
1.71
1.93
2.12
2.24
2.29
2.27
2.22
2.15
2.07
1.96
1.80
1.59
1.37
1.18
1.08
1.05
1.05
1.00
0.87
0.64
0.33
-0.04
-0.48
-1.00
-1.65
-2.40
-3.19
-3.94
-4.56
-5.03
-5.35
-5.56
-5.66
-5.65
-5.50
-5.22
-4.88
-4.55
-4.29
-4.09
-3.79
-3.19
-2.08
-0.28
2.19
5.17
8.37
11.49
14.22
16.45
18.19
19.56
20.72
21.71
22.39
22.55
21.90
20.31
17.85
14.83
11.72
8.97
6.84
5.33
4.18
3.00
1.48
-0.51
-2.87
-5.34
-7.62
-9.50
-10.91
-11.88
-12.58
-13.15
-13.70
-14.31
-15.05
-16.00
-17.26
-18.95
-21.11
-23.65
-26.36
-28.91
-31.05
-32.64
-33.71
-34.40
-34.76
-34.70
-33.91
-32.06
-28.94
-24.63
-19.47
-13.98
-8.55
-3.37
1.62
6.57
11.48
16.15
20.20
23.25
25.13
25.95
26.10
26.03
26.05
26.18
26.25
26.03
25.45
24.59
23.70
23.08
22.95
23.30
23.93
24.61
25.18
25.64
26.01
26.40
26.97
27.88
29.19
30.80
32.56
34.28
35.92
37.29
38.37
39.36
40.53
41.93
43.29
44.10
43.85
42.25
38.87
33.70
27.14
19.92
12.66
5.67
-1.00
-7.34
-13.23
-19.07
-25.15
-31.50
-37.83
-43.70
-48.81
-53.25
-57.78
-60.40
-60.95
-61.28
-64.00
-69.86
-76.78
-81.37
-81.17
-75.90
-67.16
-57.87
-50.08
-44.18
-39.13
-33.75
-27.85
-22.23
-18.17
-16.45
-17.36
-20.11
-23.11
-24.67
-23.97
-21.48
-18.71
-17.28
-18.12
-21.31
-25.70
-29.41
-30.80
-29.10
-25.04
-20.47
-17.68
-18.00
-22.65
-32.40
-47.18
-65.46
-83.84
-97.41
-101.20
-91.80
-69.64
-39.30
-7.74
18.52
35.85
44.30
46.50
45.60
44.12
42.69
40.76
37.87
34.33
31.03
28.57
26.76
24.57
21.66
18.00
14.65
13.69
17.38
27.09
42.66
62.80
79.73
88.52
86.71
75.05
57.22
38.33
23.01
14.03
11.64
14.03
19.37
25.77
31.99
37.51
42.22
46.15
49.37
51.92
53.84
55.75
57.86
59.85
60.98
60.50
58.18
54.63
51.12
48.80
48.37
49.09
49.14
46.37
39.30
27.57
12.00
-5.92
-24.60
-42.47
-58.22
-70.73
-78.98
-82.34
-80.82
-75.26
-67.17
-58.27
-49.80
-42.35
-35.86
-30.05
-24.90
-20.79
-18.38
-18.17
-20.14
-23.73
-28.06
-32.29
-35.88
-38.42
-39.57
-38.92
-36.24
-31.65
-25.86
-19.97
-15.10
-12.00
-10.74
-10.81
-11.34
-11.44
-10.44
-7.98
-3.99
1.35
7.60
14.05
19.81
23.99
25.89
25.38
22.88
19.37
16.01
13.78
13.13
13.94
15.60
17.30
18.38
18.49
17.55
15.58
12.70
9.09
5.12
1.39
-1.40
-2.56
-1.62
1.47
6.35
12.30
18.50
24.20
28.79
31.84
33.22
33.21
32.39
31.51
31.28
32.20
34.62
38.32
42.62
46.65
49.74
51.57
52.21
52.13
52.13
53.45
56.66
61.40
66.72
71.67
75.60
78.31
80.01
81.33
83.44
86.62
89.93
92.00
91.95
89.58
85.25
79.68
73.79
69.08
65.91
63.20
59.21
52.26
40.78
23.00
-2.64
-40.39
-86.45
-130.30
-161.83
-177.44
-179.33
-172.08
-160.16
-146.64
-132.92
-118.63
-103.89
-90.02
-78.69
-70.74
-65.89
-63.05
-60.86
-58.02
-53.19
-46.28
-38.58
-31.63
-26.31
-22.59
-19.90
-17.55
-14.85
-11.00
-5.96
-0.60
4.05
7.31
8.99
9.25
8.40
7.01
5.46
4.61
4.58
5.18
6.01
6.48
5.93
3.79
-0.15
-5.57
-11.76
-18.02
-23.59
-27.99
-31.09
-33.08
-34.41
-35.79
-37.99
-41.61
-46.55
-51.39
-53.62
-50.38
-39.85
-22.41
-1.06
19.24
33.50
39.02
36.92
31.73
29.56
35.41
51.31
75.68
104.53
131.95
151.67
159.61
154.89
139.64
117.80
93.70
71.21
53.11
40.82
34.32
32.42
32.63
31.02
22.84
4.01
-26.94
-68.21
-115.39
-162.99
-205.67
-239.28
-261.41
-270.70
-265.71
-244.93
-208.54
-160.65
-110.21
-68.24
-44.18
-42.99
-63.13
-96.11
-129.10
-149.77
-151.34
-134.98
-107.51
-77.32
-50.90
-30.23
-11.78
11.01
43.43
86.09
127.82
150.84
144.79
115.35
76.73
41.18
13.71
-7.20
-26.43
-48.23
-72.79
-94.93
-111.27
-120.22
-122.11
-119.02
-113.42
-106.99
-100.09
-90.73
-75.19
-49.56
-17.38
18.18
53.98
87.98
119.55
149.42
179.60
212.60
249.43
288.50
326.45
358.27
379.11
385.92
378.70
360.82
337.87
315.23
295.99
280.83
267.96
254.90
240.35
225.50
214.12
211.01
219.19
237.53
260.26
277.91
280.62
261.81
220.37
160.38
88.77
12.44
-63.38
-134.86
-198.69
-251.12
-288.36
-308.08
-310.91
-300.72
-283.41
-264.77
-248.59
-236.09
-226.51
-218.21
-209.88
-201.00
-191.77
-182.67
-174.06
-165.90
-157.81
-149.17
-139.59
-129.01
-117.87
-106.90
-96.81
-87.97
-80.23
-73.03
-65.63
-57.48
-48.39
-38.65
-28.75
-19.19
-10.30
-2.19
4.95
10.91
15.69
19.51
22.71
25.58
28.06
29.58
29.28
26.34
20.72
13.54
6.75
2.40
1.82
5.30
12.21
21.42
31.29
40.24
47.04
50.90
51.38
48.60
43.35
37.04
31.27
26.50
22.76
20.50
20.71
24.20
31.21
41.23
53.04
64.60
71.30
68.70
55.02
32.01
3.49
-26.01
-52.31
-72.51
-85.63
-95.31
-105.37
-116.10
-123.96
-125.18
-118.05
-103.29
-83.02
-59.33
-37.55
-22.23
-14.89
-15.26
-24.62
-45.57
-79.65
-125.16
-152.53
-138.16
-82.68
-8.67
62.22
120.11
164.77
200.18
230.72
259.22
282.67
295.61
298.74
296.24
291.95
288.40
286.58
286.37
286.86
283.41
271.03
246.73
216.71
185.38
155.72
129.40
107.26
89.55
73.96
57.85
40.21
21.98
3.59
-14.68
-32.64
-49.89
-65.95
-81.61
-98.27
-116.96
-137.80
-161.45
-188.49
-218.98
-252.28
-287.10
-322.66
-358.65
-394.96
-430.76
-466.55
-504.42
-546.99
-595.17
-646.38
-694.15
-729.17
-741.92
-724.46
-676.03
-604.49
-522.70
-442.33
-370.01
-306.64
-249.12
-193.09
-132.62
-65.63
4.39
71.91
133.80
190.01
241.86
290.32
335.46
380.48
427.29
474.11
517.58
555.72
586.75
607.09
611.45
572.03
480.97
363.73
257.02
179.95
132.23
104.55
86.72
72.02
58.12
49.37
48.74
53.20
56.29
53.57
44.44
30.99
16.41
3.73
-2.40
-0.33
6.54
12.45
13.69
9.65
1.91
-6.95
-14.49
-17.32
-14.22
-7.50
-1.17
1.94
1.12
-2.69
-7.49
-11.23
-11.53
-7.57
-0.83
5.94
10.35
11.28
8.68
3.81
-1.82
-6.88
-10.83
-14.45
-19.14
-25.99
-34.97
-46.21
-59.33
-73.58
-87.28
-97.41
-100.09
-91.97
-72.14
-43.29
-11.35
16.89
36.34
45.56
46.72
43.79
40.22
37.54
35.39
32.72
29.15
25.36
22.64
21.86
22.88
24.67
25.92
25.54
23.33
19.98
16.51
13.95
12.88
13.27
14.55
15.93
16.69
16.40
15.08
13.05
10.91
9.22
8.47
8.85
10.21
12.06
13.68
14.46
13.98
12.34
10.04
7.88
6.66
6.97
9.06
12.64
16.75
19.77
19.68
14.63
3.70
-12.35
-30.89
-47.96
-59.51
-62.85
-57.71
-46.31
-32.40
-19.75
-10.66
-5.39
-2.56
-0.29
2.69
6.43
10.09
12.67
13.78
14.01
14.41
15.77
18.17
20.85
22.73
23.06
21.92
20.15
18.87
18.87
20.29
22.59
25.01
27.01
28.46
29.42
29.77
29.09
26.72
22.26
15.90
8.44
0.97
-5.64
-11.02
-15.28
-18.71
-21.50
-23.71
-25.41
-26.95
-28.85
-31.53
-34.91
-38.27
-40.50
-40.69
-38.44
-34.20
-29.04
-24.17
-20.41
-17.98
-16.46
-15.12
-13.36
-10.88
-7.86
-4.70
-1.76
0.92
3.50
6.22
9.08
11.83
13.99
15.13
15.19
14.52
13.74
13.40
13.71
14.52
15.42
16.01
16.10
15.76
15.16
14.45
13.65
12.65
11.26
9.37
7.03
4.45
1.94
-0.26
-2.10
-3.62
-4.98
-6.29
-7.51
-8.46
-8.98
-9.02
-8.79
-8.66
-8.97
-9.85
-11.13
-12.42
-13.31
-13.58
-13.29
-12.73
-12.28
-12.16
-12.43
-12.98
-13.61
-14.25
-14.81
-15.28
-15.66
-15.96
-16.18
-16.24
-16.01
-15.32
-14.00
-11.93
-9.18
-6.04
-2.91
-0.21
1.79
2.99
3.47
3.45
3.26
3.32
4.10
6.01
9.28
13.86
19.38
25.26
30.91
35.95
40.20
43.63
46.15
47.50
47.29
45.09
40.73
34.38
26.61
18.20
9.95
2.45
-4.00
-9.32
-13.57
-16.79
-19.02
-20.29
-20.68
-20.38
-19.62
-18.58
-17.31
-15.76
-13.81
-11.50
-9.10
-7.05
-5.82
-5.68
-6.55
-8.02
-9.55
-10.64
-11.03
-10.73
-9.90
-8.74
-7.32
-5.55
-3.29
-0.43
3.00
6.75
10.34
13.28
15.14
15.71
15.02
13.33
10.97
8.33
5.75
3.51
1.78
0.63
-0.05
-0.48
-0.89
-1.48
-2.28
-3.24
-4.27
-5.39
-6.73
-8.51
-10.90
-13.89
-17.30
-20.84
-24.13
-26.86
-28.83
-29.91
-30.08
-29.40
-28.03
-26.25
-24.35
-22.58
-21.05
-19.60
-17.99
-15.94
-13.33
-10.19
-6.78
-3.40
-0.41
1.93
3.43
4.02
3.71
2.69
1.21
-0.36
-1.70
-2.52
-2.63
-1.85
-0.07
2.82
6.85
11.89
17.62
23.57
29.18
33.91
37.38
39.39
39.92
39.16
37.39
34.97
32.24
29.42
26.64
23.95
21.39
19.01
16.95
15.29
14.06
13.21
12.58
11.99
11.27
10.40
9.37
8.24
7.08
5.93
4.86
4.02
3.64
3.96
5.24
7.60
11.06
15.46
20.55
26.02
31.59
37.05
42.31
47.48
52.72
58.20
63.89
69.45
74.27
77.71
79.55
80.20
80.63
81.81
84.04
86.62
88.28
88.31
87.64
89.06
95.76
109.33
127.89
145.94
156.26
152.65
132.10
95.29
45.55
-12.31
-72.33
-126.99
-167.11
-183.51
-170.46
-129.16
-69.22
-6.31
43.30
68.83
68.45
48.79
20.93
-4.76
-22.24
-30.79
-33.53
-34.90
-38.67
-46.99
-60.47
-78.53
-99.94
-122.81
-144.71
-162.98
-175.24
-180.13
-177.73
-169.66
-158.59
-147.45
-138.54
-132.84
-129.80
-127.57
-123.90
-116.85
-105.57
-90.55
-73.38
-56.27
-41.24
-29.58
-21.57
-16.61
-13.59
-11.40
-9.29
-7.01
-4.80
-3.07
-2.20
-2.33
-3.35
-4.92
-6.63
-8.14
-9.24
-9.87
-10.02
-9.73
-8.97
-7.69
-5.81
-3.28
-0.14
3.51
7.48
11.54
15.46
19.03
22.13
24.71
26.82
28.62
30.33
32.19
34.35
36.82
39.49
42.09
44.26
45.64
45.96
45.16
43.39
41.05
38.67
36.80
35.87
36.03
37.16
38.90
40.73
42.18
42.90
42.76
41.80
40.19
38.10
35.59
32.62
29.01
24.54
19.07
12.55
5.11
-3.00
-11.38
-19.58
-27.15
-33.77
-39.31
-43.84
-47.62
-50.89
-53.82
-56.41
-58.58
-60.25
-61.39
-61.91
-61.55
-59.82
-56.07
-49.74
-40.64
-29.16
-16.11
-2.48
10.84
23.26
34.45
44.26
52.63
59.63
65.50
70.72
75.99
82.05
89.44
98.39
108.71
119.88
131.17
141.94
151.90
161.49
171.98
185.32
203.40
227.15
255.68
286.10
314.09
335.04
345.34
343.11
328.40
302.56
267.61
225.63
178.59
128.45
77.16
26.56
-22.02
-68.15
-112.47
-156.33
-200.88
-246.23
-290.94
-332.22
-366.76
-391.86
-406.08
-409.12
-401.36
-383.27
-355.51
-319.48
-277.94
-234.98
-195.20
-162.39
-138.51
-123.47
-115.86
-113.90
-116.15
-121.52
-128.94
-136.87
-143.41
-146.67
-145.44
-139.65
-130.34
-119.28
-108.28
-98.71
-91.03
-84.79
-79.00
-72.53
-64.55
-54.77
-43.36
-30.71
-17.18
-3.06
11.42
25.85
39.60
51.91
62.12
69.90
75.47
79.46
82.69
85.93
89.75
94.46
100.11
106.42
112.90
118.87
123.53
126.04
125.75
122.40
116.21
107.75
97.73
86.80
75.57
64.37
53.28
42.33
31.69
21.84
13.45
7.17
3.32
1.97
2.34
2.73
1.11
-3.84
-12.01
-21.97
-31.62
-38.95
-42.30
-41.47
-38.00
-34.25
-31.92
-30.94
-29.73
-26.34
-19.19
-7.08
9.36
27.49
43.55
54.56
59.84
61.05
61.23
65.01
78.74
107.54
152.45
209.10
268.34
319.08
351.35
358.84
332.99
276.30
204.80
140.17
96.37
73.33
63.63
60.24
57.54
56.12
58.70
65.81
74.47
80.15
76.83
61.36
37.43
9.55
-18.00
-42.16
-62.46
-81.02
-100.09
-124.64
-156.56
-193.59
-231.16
-264.15
-288.70
-303.41
-309.74
-309.15
-308.82
-314.41
-328.19
-349.59
-376.50
-407.08
-440.45
-477.29
-490.54
-466.58
-408.61
-334.47
-263.60
-207.17
-168.21
-145.26
-143.05
-150.65
-161.52
-169.15
-166.94
-149.63
-115.46
-67.01
-5.66
61.47
131.48
198.48
258.34
308.98
350.22
382.85
407.79
425.76
436.77
445.56
453.17
459.45
464.13
468.12
473.83
484.28
502.25
509.46
495.66
458.29
403.72
339.42
268.25
189.83
105.16
19.31
-59.78
-120.82
-157.93
-172.49
-171.78
-164.38
-156.25
-149.47
-143.70
-138.47
-131.62
-122.69
-112.62
-103.06
-94.79
-87.43
-79.71
-70.96
-61.58
-51.32
-40.68
-30.69
-22.89
-17.75
-15.11
-14.34
-15.19
-17.86
-22.19
-28.19
-34.92
-42.44
-50.20
-57.28
-62.60
-65.72
-66.71
-65.91
-63.98
-61.67
-59.76
-58.49
-57.71
-56.88
-55.78
-54.33
-52.79
-51.66
-51.45
-52.51
-54.51
-57.59
-59.63
-59.28
-55.52
-48.06
-37.43
-24.70
-11.18
2.17
14.76
26.49
36.73
44.84
49.80
50.56
46.43
37.33
23.69
5.96
-14.37
-36.63
-58.52
-75.94
-83.77
-77.79
-57.08
-25.10
11.00
43.29
65.53
75.90
76.39
71.05
63.93
57.37
52.16
48.59
47.62
50.11
55.86
62.17
63.90
56.04
36.03
5.97
-27.46
-55.33
-70.46
-70.18
-56.19
-35.35
-14.34
2.92
15.90
26.02
34.74
42.04
46.47
46.34
40.88
31.27
19.87
9.55
1.85
-3.01
-6.52
-11.00
-18.48
-30.16
-45.98
-65.15
-85.59
-105.72
-122.49
-131.84
-129.98
-115.20
-89.44
-58.08
-28.14
-5.58
6.81
10.17
7.91
3.45
-1.36
-6.46
-12.49
-19.53
-26.60
-32.37
-35.81
-37.10
-37.27
-37.57
-38.83
-40.74
-41.78
-39.99
-33.97
-23.24
-8.64
8.18
25.15
40.42
52.93
61.77
67.59
71.08
72.83
73.04
71.78
69.11
65.15
60.39
55.48
51.16
47.82
45.85
44.68
43.81
42.75
41.13
38.91
36.20
33.33
30.50
27.89
25.47
23.25
21.16
19.14
17.24
15.42
13.77
12.31
11.04
9.90
8.89
7.99
7.14
6.36
5.64
5.05
4.62
4.36
4.23
4.20
4.19
4.14
4.03
3.89
3.81
3.91
4.26
4.87
5.66
6.50
7.28
8.00
8.82
10.01
11.87
14.52
17.84
21.66
25.15
27.58
28.53
27.92
26.06
23.43
20.40
17.09
12.70
7.24
0.54
-7.16
-15.01
-21.67
-25.82
-26.68
-24.41
-20.18
-15.94
-13.33
-13.05
-14.70
-16.76
-17.40
-15.12
-9.25
-0.33
10.24
20.30
27.39
29.51
25.95
17.73
7.03
-2.51
-8.60
-11.16
-12.29
-15.10
-22.01
-33.35
-46.96
-58.74
-64.00
-59.20
-43.04
-17.02
14.55
46.00
72.01
88.86
96.56
98.01
97.32
97.54
98.87
98.39
91.73
75.51
49.53
17.49
-14.60
-40.99
-58.49
-67.22
-70.18
-70.84
-71.29
-71.47
-69.87
-65.45
-58.92
-52.71
-49.70
-51.53
-57.60
-65.37
-71.77
-74.66
-73.49
-69.52
-64.94
-61.65
-60.21
-59.57
-57.50
-51.87
-41.01
-26.29
-10.11
4.52
15.13
20.63
21.38
19.32
16.19
13.04
9.59
4.84
-2.45
-13.11
-27.04
-44.05
-63.10
-82.07
-97.48
-104.98
-100.69
-83.31
-55.37
-22.93
6.54
27.18
36.84
37.13
31.89
24.91
18.29
12.23
6.24
0.39
-4.24
-6.02
-3.83
2.22
10.88
20.38
29.05
35.79
40.93
45.36
49.81
54.55
59.12
62.65
64.22
63.53
60.72
56.19
50.82
45.41
40.44
36.00
31.91
27.96
24.03
20.12
16.45
13.29
10.82
9.13
8.28
8.29
9.13
10.60
12.37
14.02
15.14
15.44
14.92
13.99
13.39
13.84
15.75
18.92
22.67
26.16
28.46
29.16
28.53
27.49
27.28
29.19
34.05
41.88
51.40
59.77
63.34
59.14
46.44
27.14
5.79
-12.28
-22.83
-24.47
-19.16
-10.60
-2.07
5.24
11.62
18.79
28.26
39.70
52.41
64.84
74.99
80.63
79.65
69.43
50.51
25.27
-0.40
-18.79
-23.84
-14.12
6.04
28.10
40.95
36.95
14.28
-23.01
-67.86
-113.92
-157.67
-198.93
-228.08
-239.78
-232.45
-208.75
-174.08
-134.75
-96.68
-64.17
-39.04
-20.58
-8.06
0.50
7.34
14.08
21.15
27.96
33.59
37.79
41.25
43.69
45.77
48.38
52.00
56.36
60.55
62.97
63.61
62.85
59.91
54.87
48.18
39.95
29.98
18.01
4.20
-10.48
-24.59
-37.87
-49.59
-59.16
-67.07
-74.70
-83.57
-94.64
-108.07
-117.20
-121.83
-122.94
-121.71
-119.63
-118.31
-118.79
-121.52
-126.92
-135.09
-145.81
-159.07
-168.42
-166.69
-149.05
-114.27
-65.34
-9.15
46.23
93.90
131.16
156.06
170.08
176.12
177.19
175.89
173.41
170.46
167.10
163.19
158.47
155.36
151.55
145.78
139.02
132.43
127.49
125.50
127.48
133.30
140.83
145.07
134.21
104.43
57.75
1.83
-52.81
-96.55
-124.14
-135.82
-136.47
-131.73
-124.79
-117.23
-109.52
-102.47
-97.64
-97.00
-101.03
-107.69
-111.92
-106.74
-87.23
-52.89
-8.48
37.52
75.32
97.33
100.49
87.13
64.10
39.33
20.17
9.61
8.45
15.06
26.37
38.81
49.15
55.23
55.48
48.97
35.52
16.45
-5.35
-25.68
-39.91
-44.77
-39.67
-27.49
-13.49
-3.07
0.67
-2.11
-8.48
-14.75
-18.47
-19.54
-19.81
-21.61
-26.01
-32.00
-37.28
-39.70
-38.47
-34.52
-29.83
-26.40
-25.50
-26.90
-28.88
-29.19
-26.27
-20.02
-11.88
-4.13
1.26
3.38
2.81
1.02
-0.44
-0.74
0.03
1.08
1.50
0.91
-0.26
-0.91
0.09
3.21
7.80
12.37
15.30
15.71
14.01
11.64
10.27
10.87
13.17
15.83
17.34
16.92
14.98
12.89
12.08
13.16
15.54
17.68
18.02
15.98
12.30
8.61
6.45
6.36
7.53
8.18
6.68
2.52
-3.16
-8.25
-10.91
-10.67
-8.62
-6.84
-7.15
-10.20
-15.12
-19.90
-22.76
-23.17
-22.07
-21.15
-21.84
-24.43
-27.84
-30.11
-28.79
-22.73
-13.01
-2.46
5.88
10.18
10.40
7.87
4.47
2.86
4.20
7.45
10.37
11.29
10.03
7.68
5.20
2.70
0.96
-0.64
-4.10
-10.53
-17.34
-18.28
-6.65
19.99
57.34
98.22
133.91
157.94
169.28
173.04
176.66
184.67
196.46
192.34
162.41
115.07
70.24
41.29
28.48
23.83
18.95
9.92
-1.60
-9.04
-7.57
2.66
16.82
29.19
34.52
28.37
8.48
-22.63
-55.17
-77.51
-82.35
-71.71
-55.79
-46.18
-51.30
-72.14
-101.78
-128.16
-141.77
-138.18
-123.40
-106.45
-93.37
-84.93
-77.99
-68.95
-55.95
-40.59
-26.63
-18.15
-16.31
-19.20
-23.12
-24.72
-22.25
-15.93
-7.77
-0.53
3.33
3.30
0.78
-2.01
-3.12
-1.67
1.95
6.40
10.16
12.04
11.96
10.70
9.45
9.10
10.02
11.96
14.29
16.36
17.67
18.25
18.46
18.86
19.82
21.50
23.79
26.43
29.14
31.59
33.59
34.75
35.04
34.28
32.28
28.99
24.44
18.83
12.46
6.03
-0.28
-6.08
-11.06
-15.03
-17.89
-19.65
-20.43
-20.59
-20.16
-19.40
-18.49
-17.54
-16.67
-15.84
-15.05
-14.24
-13.40
-12.49
-11.63
-10.85
-10.19
-9.65
-9.16
-8.67
-8.11
-7.48
-6.79
-6.19
-5.77
-5.60
-5.64
-5.76
-5.81
-5.64
-5.24
-4.74
-4.41
-4.49
-5.11
-6.19
-7.39
-8.35
-8.74
-8.54
-8.05
-7.85
-8.49
-10.25
-12.95
-15.97
-18.49
-19.88
-20.08
-19.59
-19.42
-20.53
-23.41
-27.76
-32.62
-36.78
-39.43
-40.39
-40.26
-40.08
-40.78
-43.02
-47.28
-53.76
-62.11
-70.75
-76.61
-75.67
-64.57
-42.45
-12.04
20.91
49.77
69.63
79.02
79.84
75.81
70.36
65.41
61.37
57.91
54.96
52.84
52.01
52.38
53.19
53.30
51.85
48.60
44.32
40.70
39.54
41.89
46.91
51.57
51.39
42.43
23.62
-2.22
-29.15
-50.75
-62.92
-65.39
-61.08
-54.18
-47.82
-43.26
-40.30
-38.53
-38.11
-39.49
-42.63
-46.44
-48.91
-48.41
-43.88
-35.60
-24.73
-12.55
0.29
13.62
27.45
41.59
55.25
67.10
75.54
79.51
79.02
75.36
70.40
65.63
61.33
56.51
49.59
39.74
27.80
16.19
7.88
4.84
7.16
13.19
20.43
26.87
31.54
34.54
36.38
37.28
36.82
34.26
29.13
21.69
13.17
4.99
-1.42
-5.31
-6.90
-7.21
-7.59
-9.05
-11.88
-15.50
-19.22
-22.30
-24.48
-26.25
-28.62
-32.66
-38.98
-47.34
-56.70
-66.13
-74.74
-82.30
-89.38
-97.29
-107.74
-122.61
-143.72
-169.31
-198.15
-228.06
-255.79
-277.45
-289.47
-289.77
-278.58
-258.29
-232.60
-205.59
-179.95
-156.67
-135.44
-115.49
-96.30
-77.72
-59.69
-41.73
-23.34
-3.88
16.67
37.13
55.23
68.45
75.13
75.43
71.52
66.68
64.28
66.60
73.98
84.83
96.26
105.18
109.39
108.39
103.30
96.46
90.41
86.90
86.40
88.21
91.06
93.85
96.33
98.88
102.62
109.14
120.30
137.77
162.29
192.97
226.91
259.96
287.36
305.21
311.53
306.68
292.95
273.75
252.78
233.50
219.31
212.21
212.11
216.39
220.32
218.43
206.30
182.17
147.42
106.58
64.74
25.88
-8.08
-36.90
-61.11
-80.96
-96.13
-110.16
-124.08
-137.39
-148.50
-155.76
-158.29
-156.26
-150.39
-141.72
-131.40
-119.90
-107.91
-96.25
-85.66
-76.56
-69.04
-62.59
-56.64
-50.73
-44.17
-36.80
-28.89
-20.89
-13.27
-6.39
-0.15
5.73
11.34
16.91
22.24
26.76
29.63
30.41
27.76
21.28
11.11
-2.24
-17.85
-34.74
-52.04
-69.00
-85.03
-100.19
-113.88
-125.23
-133.43
-137.86
-138.42
-135.57
-130.26
-123.79
-118.13
-113.93
-110.85
-107.77
-103.16
-95.77
-84.74
-70.03
-48.43
-22.31
5.34
32.05
56.34
77.41
94.68
107.68
115.71
118.86
115.35
103.90
83.67
54.60
18.28
-21.66
-58.95
-86.24
-97.31
-90.07
-66.58
-32.69
4.27
39.54
68.13
87.55
96.62
95.13
84.03
65.68
42.95
18.88
-3.60
-22.37
-36.12
-44.82
-49.47
-51.89
-53.66
-55.68
-58.00
-60.11
-61.67
-62.39
-62.32
-61.80
-61.23
-60.92
-60.78
-60.37
-59.09
-56.60
-52.74
-47.60
-42.08
-36.19
-30.22
-24.44
-19.14
-14.58
-11.06
-8.89
-7.96
-8.04
-8.74
-9.82
-11.20
-13.06
-15.83
-20.16
-26.76
-35.65
-46.59
-58.96
-72.84
-87.35
-101.59
-114.52
-125.72
-134.75
-140.19
-140.25
-132.99
-116.83
-90.67
-54.19
-7.45
49.55
111.51
172.21
225.24
265.41
290.03
299.31
295.37
281.29
260.01
234.02
205.82
177.66
151.31
127.92
108.08
91.67
77.99
66.05
54.85
43.88
33.38
23.78
15.49
8.79
3.58
-0.53
-4.10
-7.71
-11.70
-15.77
-19.49
-22.53
-24.58
-25.67
-26.19
-26.85
-26.80
-27.68
-30.24
-34.75
-41.25
-49.16
-57.76
-66.51
-74.99
-82.95
-90.00
-95.64
-99.56
-101.80
-101.90
-99.62
-95.58
-90.62
-85.81
-81.49
-77.59
-73.81
-69.70
-63.63
-54.10
-41.39
-26.56
-11.62
2.05
13.26
21.27
26.10
30.10
36.65
47.72
65.69
86.58
109.50
134.38
161.68
181.83
188.90
182.32
164.49
140.76
115.37
91.15
68.72
47.93
28.86
13.20
8.79
13.28
23.11
34.18
43.53
49.00
50.08
48.08
36.59
18.39
-3.51
-26.11
-48.25
-69.52
-87.29
-102.12
-112.78
-116.37
-108.98
-90.35
-61.96
-26.50
14.14
52.63
83.64
104.60
115.99
121.50
124.12
126.33
129.21
131.95
131.35
123.07
103.04
69.51
25.47
-22.76
-66.65
-98.84
-116.18
-120.56
-116.82
-110.00
-103.22
-96.79
-90.00
-82.42
-74.84
-69.00
-66.40
-66.80
-68.28
-68.30
-64.71
-57.35
-48.04
-39.63
-34.61
-33.91
-36.23
-38.90
-39.14
-35.56
-28.86
-21.54
-16.69
-16.44
-20.91
-28.04
-34.58
-37.71
-36.22
-31.00
-24.53
-19.76
-18.73
-22.21
-29.54
-38.76
-46.42
-48.21
-40.37
-21.53
5.04
31.82
49.29
50.02
32.00
0.01
-36.07
-65.05
-78.79
-74.68
-55.63
-28.14
0.74
25.18
41.96
49.75
49.78
44.08
34.65
23.47
11.72
1.40
-5.34
-6.63
-1.78
8.10
20.18
30.93
38.00
40.50
39.84
38.02
37.06
37.88
40.08
42.22
42.76
40.98
37.18
33.09
30.45
30.80
34.47
40.51
46.97
51.70
53.50
50.47
44.62
37.88
32.20
28.38
26.10
25.20
24.32
23.15
22.19
22.75
26.08
33.66
45.60
61.47
80.71
101.19
120.36
133.70
137.96
128.73
105.70
70.92
29.64
-11.26
-44.15
-66.42
-79.05
-85.54
-88.45
-88.68
-89.43
-93.80
-103.79
-117.59
-136.81
-157.52
-178.57
-198.00
-214.10
-230.08
-249.99
-276.25
-305.67
-339.25
-378.69
-426.10
-479.27
-510.08
-499.40
-447.23
-392.34
-340.98
-295.66
-251.40
-211.35
-176.75
-146.19
-120.03
-98.63
-81.54
-63.72
-44.68
-24.35
-3.10
20.58
48.13
78.15
107.27
132.10
154.09
173.36
191.26
209.46
230.83
257.69
291.52
329.92
368.09
403.70
434.84
461.80
485.76
508.74
533.05
564.14
603.36
647.21
690.65
727.32
750.53
753.94
733.09
688.45
630.57
568.18
504.34
438.99
371.54
302.02
231.24
159.66
53.53
-82.67
-214.94
-311.72
-365.90
-386.82
-386.45
-373.38
-356.78
-338.88
-314.32
-282.06
-247.93
-219.43
-200.76
-192.42
-190.56
-194.37
-202.41
-208.23
-208.67
-206.52
-206.36
-211.17
-220.99
-219.14
-197.55
-160.31
-115.95
-71.68
-32.57
-0.65
23.95
43.10
59.32
72.25
82.09
87.55
93.44
101.57
112.16
123.98
136.60
149.91
161.69
170.15
174.92
176.17
171.15
165.37
159.28
153.02
146.75
139.43
130.47
120.27
110.49
101.99
95.44
89.83
84.65
79.58
73.80
66.66
58.09
48.80
39.23
29.94
20.53
11.05
1.71
-7.63
-17.23
-27.32
-37.86
-48.84
-60.00
-71.45
-82.93
-94.13
-104.97
-115.72
-126.88
-138.93
-152.10
-166.17
-180.81
-195.42
-209.38
-222.37
-234.44
-245.95
-257.61
-270.37
-285.34
-303.44
-324.56
-346.94
-367.08
-380.49
-383.15
-373.13
-351.36
-321.35
-287.85
-255.21
-226.16
-201.57
-181.02
-163.58
-148.52
-135.28
-123.29
-111.83
-100.14
-87.79
-75.05
-62.95
-52.78
-45.47
-40.92
-37.81
-34.02
-27.61
-17.66
-4.71
9.45
22.72
33.60
41.76
47.93
53.30
58.70
64.10
68.74
71.76
72.83
72.45
71.61
71.16
71.23
71.15
69.92
66.96
62.51
57.47
52.79
48.80
45.13
40.93
35.72
29.74
23.96
19.47
16.92
16.11
16.15
15.95
14.69
12.16
8.71
5.02
1.79
-0.46
-1.52
-1.50
-0.80
-0.03
0.28
-0.21
-1.42
-2.90
-3.97
-4.02
-2.66
0.23
4.47
9.79
15.83
22.24
28.68
34.89
40.68
45.89
50.34
53.66
55.41
55.29
53.46
50.56
47.55
45.20
43.77
42.86
41.68
39.50
35.96
31.17
25.48
19.34
13.18
7.49
2.85
-0.14
-1.15
-0.36
1.49
3.32
4.05
3.07
0.36
-3.65
-8.30
-12.93
-17.12
-20.66
-23.67
-26.43
-29.34
-32.62
-36.04
-38.83
-39.84
-38.07
-33.19
-25.83
-17.29
-8.99
-1.79
4.31
9.88
15.55
21.55
27.53
32.84
36.86
39.35
40.43
40.53
40.10
39.47
38.81
38.09
37.23
36.14
34.88
33.57
32.35
31.22
29.98
28.41
26.44
24.38
22.73
21.91
21.90
22.13
21.67
19.73
16.04
10.98
5.34
-0.05
-4.53
-7.80
-9.83
-10.87
-11.38
-12.08
-13.80
-17.15
-22.22
-28.31
-34.09
-37.98
-38.74
-36.01
-30.40
-23.28
-16.24
-10.59
-6.89
-4.90
-3.80
-2.59
-0.65
2.09
5.15
7.71
8.91
8.26
5.73
1.91
-2.26
-5.83
-8.14
-9.11
-9.16
-9.02
-9.30
-10.27
-11.66
-12.82
-13.05
-11.97
-9.82
-7.32
-5.25
-3.96
-3.25
-2.49
-1.14
0.71
2.37
2.76
1.21
-2.10
-6.06
-9.19
-10.34
-9.28
-6.71
-3.76
-1.38
0.13
1.12
2.35
4.52
8.05
12.94
18.97
25.77
32.95
40.16
47.02
53.23
58.47
62.41
64.66
64.89
62.96
59.13
54.22
49.38
45.72
43.84
43.55
43.92
43.81
42.39
39.54
35.83
32.19
29.38
27.71
26.95
26.49
25.63
23.83
20.99
17.43
13.77
10.71
8.84
8.49
9.68
12.15
15.39
18.81
21.91
24.42
26.48
28.64
31.62
36.02
41.74
48.43
55.81
64.13
73.72
85.17
98.84
114.55
131.54
148.47
164.48
179.54
194.64
210.89
229.62
252.26
280.09
313.45
350.02
385.07
412.14
424.73
417.34
388.31
340.61
280.81
216.39
151.24
87.49
26.57
-29.21
-79.64
-124.45
-163.73
-197.97
-228.66
-261.97
-301.69
-347.06
-392.19
-435.02
-474.49
-511.09
-545.24
-577.69
-615.29
-660.44
-708.47
-747.12
-771.09
-777.22
-764.92
-734.41
-688.27
-639.56
-597.00
-559.95
-517.13
-466.63
-410.54
-355.79
-309.90
-231.37
-115.62
8.17
77.03
101.99
98.72
87.78
76.81
73.34
84.81
105.97
129.26
148.08
159.93
152.53
118.47
60.66
-5.40
-50.22
-58.31
-36.56
-4.76
30.70
65.05
101.15
133.27
160.68
186.87
205.45
207.26
189.04
158.23
121.88
87.05
58.23
39.18
39.51
57.63
83.38
108.08
132.10
158.42
190.22
228.04
271.15
330.47
405.14
480.50
540.92
581.56
605.79
620.23
630.75
642.12
675.89
740.01
822.09
902.42
968.75
1016.79
1045.86
1057.07
935.12
660.11
320.14
21.73
-193.38
-335.71
-430.13
-496.82
-546.95
-585.71
-596.97
-576.48
-539.75
-508.43
-493.68
-495.19
-507.78
-524.84
-542.05
-542.14
-518.35
-479.84
-441.36
-410.88
-388.99
-373.59
-361.43
-350.97
-331.89
-300.44
-262.94
-228.64
-201.07
-176.86
-158.93
-145.64
-135.55
-120.63
-97.28
-69.15
-43.05
-23.08
-9.75
-1.94
3.23
7.74
19.94
44.00
76.86
111.21
141.36
165.01
182.03
194.22
203.15
218.90
247.20
285.38
325.25
360.17
387.80
408.88
426.07
441.86
469.50
516.17
577.63
642.22
700.31
748.20
786.64
818.73
775.63
632.41
422.99
210.63
36.45
-91.60
-182.51
-247.97
-296.63
-333.66
-350.57
-342.87
-316.10
-282.47
-252.51
-232.00
-224.05
-230.56
-251.68
-275.63
-290.91
-291.92
-279.41
-256.68
-228.08
-199.21
-175.72
-161.25
-150.79
-139.15
-125.46
-113.17
-106.23
-106.67
-114.07
-126.34
-139.66
-147.38
-145.18
-133.16
-115.05
-95.18
-76.48
-59.98
-45.30
-31.45
-17.02
-2.02
11.67
21.35
25.54
24.85
21.57
18.50
17.67
19.35
22.15
23.78
22.09
16.56
8.37
-0.47
-8.51
-16.10
-25.57
-40.11
-60.12
-84.46
-109.99
-132.44
-147.30
-150.50
-138.82
-110.56
-66.62
-11.43
46.56
96.84
129.69
139.70
127.63
99.74
65.23
32.78
8.20
-6.61
-12.70
-12.54
-8.57
-2.53
4.53
12.06
19.43
25.88
30.67
33.65
35.37
36.88
39.55
43.37
47.57
50.61
50.93
47.55
40.64
31.43
21.69
13.02
6.22
1.41
-2.05
-4.87
-7.61
-10.32
-12.62
-13.94
-13.86
-12.37
-9.83
-6.95
-4.42
-2.72
-1.95
-1.72
-1.48
-0.69
0.87
3.13
5.68
8.08
9.94
11.02
11.27
10.67
9.00
6.15
2.08
-3.17
-9.35
-16.01
-22.64
-28.69
-33.85
-37.97
-41.06
-43.25
-44.58
-45.01
-44.36
-42.44
-39.14
-34.55
-28.94
-22.75
-16.52
-10.78
-5.91
-2.10
0.71
2.73
4.25
5.47
6.52
7.40
8.06
8.50
8.76
8.95
9.17
9.42
9.54
9.39
8.83
7.89
6.73
5.62
4.76
4.20
3.87
3.62
3.34
3.00
2.66
2.40
2.26
2.27
2.42
2.72
3.20
3.89
4.74
5.65
6.47
7.07
7.39
7.47
7.37
7.12
6.70
5.96
4.80
3.27
1.57
-0.02
-1.21
-1.85
-1.95
-1.66
-1.18
-0.65
-0.08
0.55
1.18
1.68
1.87
1.65
1.05
0.20
-0.70
-1.38
-1.68
-1.60
-1.27
-0.88
-0.61
-0.57
-1.00
-2.02
-3.37
-4.51
-4.95
-4.42
-2.89
-0.60
2.02
4.11
5.10
5.31
5.71
7.33
10.68
15.75
21.89
27.77
31.02
29.94
24.47
16.53
8.86
3.74
1.81
1.40
-0.92
-9.28
-25.70
-48.36
-72.66
-93.75
-108.31
-114.35
-110.27
-89.51
-49.46
3.69
57.75
101.49
128.91
139.57
137.26
127.89
116.91
106.93
97.58
87.66
75.07
57.12
31.11
-3.27
-42.76
-83.29
-120.15
-149.98
-170.48
-180.79
-180.43
-168.22
-141.89
-99.75
-43.27
23.25
86.41
134.29
161.51
170.01
165.99
155.66
142.02
124.22
100.09
69.37
36.41
8.62
-7.60
-10.47
-3.86
4.81
8.14
2.44
-11.07
-27.72
-42.08
-50.78
-53.45
-51.68
-47.31
-41.26
-33.21
-22.88
-11.25
-0.15
8.10
11.61
9.58
2.40
-8.83
-22.61
-34.94
-43.87
-47.46
-43.97
-32.16
-12.00
14.70
44.40
72.67
95.57
108.83
111.46
104.94
92.31
77.21
62.30
48.80
36.33
23.61
6.60
-17.23
-48.04
-83.55
-120.14
-154.49
-184.46
-210.04
-225.93
-232.95
-233.11
-228.88
-222.74
-217.47
-215.46
-217.25
-220.00
-208.13
-171.96
-111.00
-35.87
37.59
95.82
132.17
147.35
147.61
141.02
131.84
121.83
111.12
99.78
88.33
77.71
68.17
59.34
50.45
39.19
24.44
6.69
-11.42
-27.93
-41.01
-49.50
-52.69
-50.06
-42.73
-32.10
-19.60
-6.03
8.54
24.51
41.21
55.59
62.51
56.19
34.45
1.34
-32.89
-55.50
-56.26
-31.36
14.29
70.63
125.85
171.04
201.94
217.97
219.50
206.47
179.14
139.78
94.23
50.78
17.86
0.89
0.54
13.16
32.80
53.85
72.63
87.76
99.10
106.72
110.19
108.67
101.07
86.91
67.01
43.61
19.96
-0.95
-17.28
-28.84
-36.80
-43.20
-49.82
-57.40
-65.63
-73.77
-81.74
-90.37
-100.90
-112.26
-121.46
-124.98
-121.01
-110.04
-93.49
-72.39
-46.95
-17.50
14.36
44.78
68.23
79.45
75.77
58.45
32.15
3.09
-23.15
-42.98
-55.43
-61.43
-62.63
-60.51
-56.00
-49.85
-42.97
-36.36
-30.92
-27.25
-25.42
-24.85
-24.55
-23.52
-21.20
-17.82
-14.10
-10.79
-8.50
-7.35
-6.85
-6.10
-4.10
-0.15
5.91
13.75
22.94
32.77
42.56
51.57
59.55
65.93
70.06
71.23
68.71
62.38
52.26
38.82
22.82
5.26
-13.02
-31.20
-48.57
-65.37
-80.37
-92.74
-101.67
-106.60
-107.16
-103.41
-95.71
-83.54
-69.11
-53.61
-38.19
-23.69
-10.77
0.12
8.60
14.58
18.12
19.26
18.86
17.84
17.22
17.86
20.32
24.58
30.18
36.40
42.26
47.41
51.65
55.07
57.57
58.75
57.72
53.35
44.72
31.51
14.74
-3.73
-21.60
-36.99
-48.75
-56.88
-62.28
-66.17
-69.77
-73.88
-79.25
-86.05
-93.24
-98.37
-97.46
-87.03
-65.87
-36.39
-4.00
24.62
44.40
53.78
54.80
51.39
47.06
43.49
40.48
37.13
33.10
29.09
26.34
25.66
26.80
28.52
29.41
28.38
25.42
21.39
17.61
15.18
14.55
15.30
16.47
17.01
16.26
14.22
11.44
8.77
6.90
6.20
6.42
6.99
7.29
6.83
5.45
3.19
0.15
-3.63
-8.21
-13.85
-20.73
-28.84
-37.82
-46.88
-55.09
-61.36
-64.68
-64.36
-60.11
-52.07
-40.80
-27.22
-12.62
1.68
14.62
25.37
33.52
39.06
42.33
43.83
43.94
43.31
41.94
39.94
37.43
34.71
32.14
30.12
28.91
28.38
28.22
27.89
26.95
25.23
22.99
20.80
19.35
19.08
19.91
21.37
22.62
23.02
22.18
20.42
18.38
16.81
16.32
17.28
20.09
24.94
31.46
38.29
43.37
44.51
40.61
32.72
23.16
15.15
10.93
10.56
11.94
12.10
8.72
1.41
-8.44
-18.60
-27.06
-32.81
-35.73
-36.12
-34.15
-29.92
-23.77
-16.52
-9.73
-5.18
-4.35
-7.77
-14.92
-24.26
-33.83
-41.75
-46.66
-48.16
-46.62
-43.05
-38.60
-34.16
-30.19
-26.69
-23.34
-19.76
-15.72
-11.23
-6.52
-1.88
2.36
5.91
8.51
10.02
10.41
9.75
8.24
6.10
3.52
0.60
-2.53
-5.73
-8.75
-11.18
-12.68
-13.02
-12.16
-10.27
-7.65
-4.65
-1.52
1.55
4.55
7.35
9.82
11.85
13.40
14.40
14.76
14.27
12.62
9.60
5.18
-0.32
-6.34
-12.17
-17.20
-21.03
-23.51
-24.79
-25.16
-24.98
-24.57
-24.11
-23.70
-23.23
-22.50
-21.12
-18.59
-14.39
-8.03
0.87
12.47
26.60
42.76
60.17
77.78
94.40
108.70
119.33
125.02
124.80
118.09
104.90
85.84
62.15
35.52
7.90
-18.73
-42.63
-62.53
-77.74
-88.17
-94.20
-96.41
-95.41
-91.68
-85.64
-77.74
-68.51
-58.58
-48.53
-38.85
-29.85
-21.77
-14.81
-9.12
-4.82
-1.92
-0.21
0.68
1.22
1.89
3.08
5.03
7.80
11.24
14.97
18.49
21.31
23.03
23.47
22.67
20.84
18.31
15.41
12.46
9.74
7.52
6.07
5.62
6.32
8.08
10.60
13.32
15.63
16.95
16.97
15.73
13.57
11.12
9.09
8.11
8.66
10.95
14.85
19.96
25.60
30.90
34.99
37.01
36.31
32.56
25.83
16.54
5.43
-6.53
-18.26
-28.68
-36.89
-42.22
-44.40
-43.48
-39.90
-34.30
-27.54
-20.46
-13.80
-8.18
-4.01
-1.57
-1.01
-2.28
-5.11
-9.05
-13.49
-17.83
-21.48
-24.02
-25.20
-24.85
-22.95
-19.51
-14.65
-8.61
-1.78
5.39
12.34
18.47
23.21
25.97
26.33
24.10
19.45
12.90
5.31
-2.27
-8.76
-13.28
-15.39
-15.16
-13.15
-10.29
-7.66
-6.22
-6.62
-9.05
-13.21
-18.40
-23.59
-27.62
-29.32
-27.78
-22.52
-13.70
-2.15
10.70
23.01
32.94
39.01
40.35
36.84
29.07
18.18
5.67
-6.79
-17.57
-25.29
-29.03
-28.41
-23.74
-15.91
-6.17
4.00
13.21
20.30
24.44
25.22
22.68
17.24
9.69
1.08
-7.48
-14.92
-20.38
-23.36
-23.71
-21.65
-17.67
-12.46
-6.80
-1.44
3.00
6.12
7.87
8.45
8.31
7.96
7.95
8.67
10.40
13.25
17.14
21.76
26.54
30.75
33.69
34.81
33.83
30.75
25.85
19.57
12.49
5.23
-1.56
-7.28
-11.48
-13.98
-14.82
-14.29
-12.85
-11.00
-9.25
-8.03
-7.66
-8.27
-9.82
-12.09
-14.71
-17.27
-19.35
-20.57
-20.66
-19.47
-16.97
-13.23
-8.46
-3.02
2.60
7.85
12.16
15.13
16.59
16.64
15.58
13.85
11.82
9.76
7.81
6.08
4.65
3.65
3.19
3.35
4.03
4.99
5.89
6.47
6.62
6.47
6.28
6.36
6.85
7.69
8.59
9.12
8.92
7.73
5.53
2.44
-1.20
-5.01
-8.61
-11.64
-13.81
-14.97
-15.11
-14.39
-13.09
-11.58
-10.24
-9.32
-8.94
-8.99
-9.24
-9.40
-9.23
-8.65
-7.70
-6.60
-5.67
-5.14
-5.10
-5.44
-5.92
-6.29
-6.32
-5.79
-4.55
-2.46
0.58
4.56
9.25
14.09
18.26
20.91
21.37
19.35
14.94
8.60
1.25
-6.07
-12.50
-17.56
-21.04
-22.96
-23.49
-22.89
-21.52
-19.36
-16.33
-12.75
-9.43
-7.40
-7.62
-10.62
-16.41
-24.60
-33.68
-41.93
-48.11
-51.87
-53.28
-52.50
-49.26
-42.98
-33.05
-18.16
2.59
28.93
59.19
91.15
122.43
151.40
177.02
192.53
192.26
175.38
147.12
115.02
84.87
58.93
37.47
19.73
4.51
-8.54
-19.52
-28.61
-36.87
-44.77
-52.88
-61.19
-69.54
-77.80
-85.53
-92.44
-98.40
-103.48
-103.23
-96.24
-82.67
-63.84
-41.53
-17.43
6.81
29.88
50.81
69.11
84.41
96.96
107.15
115.52
122.05
125.45
123.24
112.42
90.56
56.34
10.82
-42.92
-96.57
-139.28
-163.28
-167.20
-155.49
-134.87
-111.46
-88.88
-68.42
-50.12
-34.47
-22.50
-15.02
-11.81
-11.45
-12.04
-11.92
-10.06
-6.25
-1.45
2.75
5.08
5.19
3.75
1.91
0.78
1.01
2.65
5.03
7.06
7.86
7.17
5.45
3.53
2.18
1.83
2.42
3.42
4.04
3.74
2.42
0.50
-1.31
-2.38
-2.46
-1.81
-1.10
-1.19
-2.54
-5.09
-8.18
-10.82
-12.11
-11.57
-9.43
-6.37
-3.25
-0.56
1.83
4.53
8.31
13.30
19.09
24.31
27.22
26.42
21.24
11.57
-2.25
-19.31
-37.71
-54.21
-64.62
-65.13
-54.11
-33.38
-8.04
15.48
32.05
39.71
39.75
35.37
29.88
25.17
21.82
19.77
19.11
20.31
23.65
28.66
34.24
38.99
42.19
43.87
45.02
47.27
51.83
60.09
72.19
86.29
98.52
103.70
97.44
78.37
49.55
17.48
-10.20
-27.88
-34.07
-31.52
-24.83
-17.95
-12.82
-9.19
-5.88
-2.46
0.28
0.68
-2.39
-8.58
-16.11
-23.03
-28.29
-32.86
-39.09
-49.14
-63.64
-80.66
-96.33
-106.25
-107.39
-99.39
-83.32
-63.56
-43.76
-26.50
-12.86
-2.97
3.43
7.15
8.42
7.16
2.93
-4.21
-13.93
-25.24
-36.49
-45.74
-51.54
-53.15
-50.87
-45.78
-38.93
-31.42
-24.33
-18.84
-15.82
-15.24
-15.36
-12.93
-4.51
11.79
34.61
58.78
77.78
86.92
85.11
75.15
61.81
49.31
39.70
32.73
27.13
21.97
17.49
14.65
14.07
15.41
17.39
18.52
17.65
14.73
10.66
6.83
4.42
3.90
4.93
6.52
7.57
7.36
5.77
3.24
0.48
-1.99
-4.06
-5.99
-8.31
-11.37
-15.24
-19.55
-23.65
-26.84
-28.52
-28.52
-26.84
-23.56
-18.83
-12.85
-5.91
1.51
8.79
15.23
20.30
23.83
26.13
27.83
29.58
31.84
34.60
37.42
39.67
40.89
41.00
40.35
39.61
39.40
40.23
42.42
46.01
50.55
54.81
56.79
54.22
45.55
30.86
12.21
-6.87
-22.73
-33.06
-37.53
-37.56
-35.26
-32.32
-29.47
-26.50
-23.05
-19.05
-15.04
-11.70
-9.53
-8.45
-7.98
-7.50
-6.52
-4.96
-3.13
-1.60
-0.84
-1.00
-1.85
-2.86
-3.46
-3.31
-2.45
-0.86
1.08
2.95
4.41
5.35
5.86
6.09
6.18
6.14
5.85
5.09
3.67
1.57
-1.17
-4.41
-8.08
-12.19
-16.83
-22.04
-27.87
-34.18
-40.71
-47.10
-52.99
-58.08
-62.19
-65.24
-67.20
-68.09
-67.78
-66.03
-62.46
-56.74
-48.72
-38.61
-27.02
-14.81
-2.87
8.21
18.16
26.98
34.66
40.99
45.63
48.24
48.74
47.38
44.63
40.96
36.54
31.36
25.32
18.49
11.19
3.90
-2.96
-9.26
-15.22
-21.27
-27.85
-35.16
-43.12
-51.41
-59.46
-66.60
-72.15
-75.51
-76.29
-74.31
-69.66
-62.64
-53.75
-43.52
-32.45
-20.97
-9.34
2.27
13.74
24.89
35.35
44.65
52.28
57.83
61.14
62.32
61.71
59.78
57.00
53.72
50.22
46.68
43.23
39.99
37.05
34.51
32.48
31.04
30.26
30.13
30.47
30.96
31.23
30.93
29.89
28.16
25.93
23.46
20.91
18.33
15.68
12.93
10.10
7.29
4.60
2.04
-0.42
-2.86
-5.40
-8.07
-10.84
-13.70
-16.61
-19.52
-22.28
-24.57
-25.96
-25.95
-24.19
-20.58
-15.37
-9.07
-2.32
4.27
10.24
15.33
19.42
22.52
24.66
25.86
26.16
25.63
24.40
22.66
20.66
18.63
16.76
15.15
13.82
12.76
11.98
11.43
11.07
10.78
10.39
9.71
8.61
7.04
5.08
2.83
0.40
-2.14
-4.77
-7.46
-10.16
-12.78
-15.18
-17.23
-18.84
-20.05
-20.99
-21.85
-22.84
-24.06
-25.44
-26.64
-27.16
-26.39
-23.90
-19.57
-13.65
-6.74
0.40
7.05
12.69
17.11
20.41
22.75
24.25
24.93
24.72
23.62
21.75
19.36
16.83
14.55
12.74
11.48
10.72
10.38
10.35
10.48
10.59
10.52
10.24
9.66
8.69
7.24
5.27
2.74
-0.39
-4.05
-7.95
-11.53
-14.41
-16.40
-17.51
-17.75
-17.15
-15.89
-14.14
-11.86
-8.64
-4.24
1.33
7.92
15.38
23.57
31.88
39.61
46.10
50.96
53.25
51.78
45.74
35.25
21.09
3.50
-18.31
-46.21
-78.47
-110.11
-135.16
-149.64
-152.09
-142.91
-125.06
-103.14
-81.75
-63.34
-48.09
-34.59
-21.22
-8.18
4.63
15.29
21.56
21.88
15.85
3.41
-15.41
-38.93
-62.97
-81.05
-86.91
-76.76
-51.48
-16.69
19.00
47.47
64.50
70.61
69.70
65.95
61.89
57.89
53.31
47.73
41.80
37.12
35.02
35.78
38.26
40.69
41.37
39.65
35.95
31.51
27.87
26.19
26.92
29.51
32.83
35.60
36.87
36.36
34.49
32.17
30.42
30.04
31.27
33.97
37.73
42.06
46.18
48.82
48.34
43.24
32.95
18.46
2.17
-12.93
-24.71
-32.74
-38.34
-43.53
-49.59
-56.21
-61.74
-64.30
-63.22
-59.34
-54.90
-52.24
-52.70
-55.89
-60.06
-62.81
-62.26
-57.27
-48.13
-36.51
-25.06
-17.02
-15.05
-20.73
-32.61
-46.19
-54.65
-51.34
-32.48
1.00
43.16
85.17
118.25
136.84
138.85
127.98
109.98
90.30
72.97
58.09
44.39
29.94
13.50
-4.75
-23.06
-39.37
-52.09
-60.54
-65.35
-67.32
-67.00
-64.28
-58.79
-50.55
-40.91
-32.06
-25.56
-21.41
-17.79
-12.44
-3.91
7.48
19.85
30.33
36.45
37.38
33.95
27.70
19.66
10.01
-1.26
-13.76
-26.27
-37.11
-43.97
-44.63
-38.21
-26.05
-11.07
3.18
13.07
15.42
7.88
-8.41
-28.01
-42.40
-43.01
-23.76
18.37
80.61
154.83
225.02
273.65
290.67
278.04
244.72
199.55
147.68
91.71
34.64
-19.53
-65.18
-98.87
-119.92
-131.96
-141.42
-154.66
-175.55
-198.06
-217.80
-229.41
-227.77
-209.68
-175.78
-130.60
-81.27
-35.56
0.34
22.41
31.38
31.79
29.45
28.22
28.48
27.67
22.85
13.43
1.44
-8.07
-10.07
-2.65
11.45
26.26
35.73
37.07
31.86
24.18
18.63
17.70
20.74
24.98
27.59
27.31
25.04
22.83
21.95
22.14
21.74
18.93
13.42
7.31
4.39
8.18
19.83
37.29
56.07
71.18
79.10
79.02
72.31
61.14
46.98
30.24
10.99
-10.11
-30.85
-47.87
-57.85
-58.88
-51.37
-37.99
-22.77
-9.47
-0.35
4.49
6.62
7.87
9.78
13.12
17.69
22.85
28.45
34.75
42.70
53.30
65.93
79.56
92.57
102.75
107.48
104.66
92.69
71.14
41.52
5.47
-33.19
-69.79
-101.39
-128.65
-149.84
-165.93
-179.09
-191.08
-204.77
-220.37
-235.04
-244.19
-242.46
-224.24
-186.09
-128.61
-48.00
40.97
115.57
161.63
179.91
179.66
170.12
159.58
145.68
125.72
97.99
65.72
35.32
11.99
-2.92
-10.41
-13.66
-16.34
-19.60
-23.61
-25.90
-23.15
-14.00
-0.14
14.91
27.35
34.47
36.35
34.07
30.20
27.60
27.75
30.19
33.24
34.92
33.71
29.53
22.78
14.57
6.20
-1.43
-8.11
-13.91
-18.98
-23.41
-26.92
-29.43
-30.84
-31.14
-30.55
-29.45
-28.26
-27.35
-26.90
-26.76
-26.66
-26.29
-25.44
-24.10
-22.33
-20.33
-18.34
-16.59
-15.22
-14.31
-13.79
-13.40
-12.67
-11.11
-8.44
-4.81
-0.82
2.61
4.71
5.13
4.14
2.45
0.90
0.11
0.30
1.34
2.95
4.89
6.98
9.08
11.07
12.90
14.66
16.60
18.98
21.81
24.87
27.64
29.60
30.35
29.81
28.13
25.60
22.49
19.08
15.78
13.20
12.04
12.88
15.93
20.89
26.86
32.59
36.69
38.05
36.01
30.58
22.37
12.51
2.41
-6.60
-13.61
-18.29
-20.86
-21.87
-21.89
-21.37
-20.56
-19.50
-18.25
-17.03
-16.22
-16.13
-16.89
-18.37
-20.36
-22.64
-24.76
-26.35
-27.29
-27.67
-27.55
-26.90
-25.68
-24.01
-22.18
-19.86
-16.73
-12.92
-9.06
-5.91
-3.97
-3.50
-4.60
-7.18
-9.88
-11.24
-10.60
-8.38
-5.48
-2.66
-0.28
1.68
3.73
8.22
17.59
32.94
53.49
77.38
102.70
127.95
152.25
166.03
162.42
141.60
110.93
79.04
51.55
30.92
17.57
10.21
6.13
3.52
1.07
-2.00
-5.95
-10.30
-14.28
-17.57
-20.64
-24.34
-28.08
-30.78
-31.79
-31.60
-31.31
-32.06
-34.40
-38.24
-43.15
-47.92
-51.56
-53.99
-56.32
-58.94
-61.68
-63.70
-63.90
-61.46
-55.72
-46.64
-34.88
-21.67
-8.18
4.73
16.76
27.98
38.39
48.07
56.63
63.02
65.65
62.89
53.69
38.18
18.00
-4.38
-25.89
-43.80
-56.47
-63.59
-65.97
-65.01
-62.32
-57.39
-50.76
-43.15
-35.30
-27.86
-21.40
-16.06
-11.57
-7.13
-1.92
4.39
11.67
19.38
26.78
32.87
36.95
38.94
39.50
39.68
40.28
41.66
43.76
46.17
47.86
47.89
45.92
42.46
38.57
35.04
31.98
28.73
24.24
16.88
5.48
-10.20
-29.17
-50.10
-71.96
-94.51
-117.91
-137.15
-146.41
-141.87
-124.70
-99.90
-73.33
-48.74
-27.37
-8.42
10.27
29.69
51.06
74.45
99.23
123.45
144.96
161.03
169.25
168.05
156.84
132.45
94.47
45.29
-11.87
-67.95
-111.77
-135.02
-135.49
-116.63
-86.19
-56.50
-30.83
-10.83
2.86
9.65
8.89
-0.30
-17.94
-44.10
-77.41
-112.54
-141.77
-156.24
-150.32
-124.23
-88.55
-49.11
-11.39
20.83
46.92
67.12
81.77
88.74
83.97
66.77
42.80
21.12
10.24
14.14
30.09
51.28
70.28
82.16
87.62
89.27
88.76
86.61
82.73
76.86
69.24
60.52
51.72
44.12
37.93
32.43
26.14
17.72
6.43
-7.78
-24.84
-44.99
-68.67
-93.07
-114.39
-128.94
-134.64
-131.74
-122.47
-110.47
-99.72
-92.94
-90.50
-90.57
-89.97
-85.33
-74.58
-57.58
-36.44
-14.50
4.82
19.16
28.03
32.38
34.09
35.73
40.10
48.74
61.00
74.19
84.57
88.72
84.80
73.25
56.38
37.88
20.70
6.22
-5.54
-14.80
-21.23
-24.70
-24.71
-21.34
-14.74
-5.72
4.30
13.93
22.75
31.41
41.13
53.02
62.66
66.67
65.03
60.59
56.27
53.70
53.44
55.41
59.09
63.52
67.90
71.58
73.79
73.75
71.45
67.90
64.56
62.91
64.00
68.57
76.78
86.85
94.52
94.07
80.38
51.27
9.08
-39.51
-86.37
-124.44
-149.94
-163.34
-167.84
-166.90
-162.53
-154.95
-141.08
-122.66
-101.85
-81.39
-63.80
-50.22
-40.23
-32.38
-25.08
-17.55
-10.51
-4.62
-0.61
1.10
0.87
-0.29
-1.10
-0.61
1.43
4.14
6.78
8.64
9.33
8.96
8.09
7.40
7.42
8.26
9.47
10.68
11.55
11.91
11.79
11.40
11.08
11.08
11.52
12.29
13.37
14.84
16.85
19.58
23.19
27.78
33.18
39.13
45.13
50.45
54.52
56.72
56.62
53.97
48.81
41.41
32.29
22.30
12.11
2.43
-6.12
-13.14
-18.40
-21.92
-23.88
-24.73
-24.60
-23.85
-22.75
-21.50
-20.24
-19.04
-17.92
-16.88
-15.89
-14.89
-13.90
-12.94
-12.01
-11.10
-10.24
-9.42
-8.63
-7.86
-7.09
-6.36
-5.65
-4.97
-4.34
-3.74
-3.20
-2.70
-2.25
-1.84
-1.48
-1.16
-0.90
-0.69
-0.51
-0.37
-0.27
-0.18
-0.10
-0.04
0.01
0.03
0.04
0.01
-0.04
-0.12
-0.23
-0.37
-0.54
-0.75
-0.99
-1.27
-1.59
-1.94
-2.33
-2.77
-3.27
-3.81
-4.44
-5.12
-5.88
-6.75
-7.66
-8.65
-9.74
-10.94
-12.28
-13.75
-15.39
-17.18
-19.17
-21.27
-23.48
-25.81
-28.30
-30.88
-33.59
-36.47
-39.51
-42.88
-46.51
-50.55
-55.18
-60.55
-66.58
-73.12
-79.76
-85.91
-91.33
-94.70
-95.02
-91.53
-83.73
-71.44
-54.95
-34.90
-11.64
12.71
36.63
58.64
77.57
92.70
103.81
111.17
115.42
117.35
117.58
116.87
115.70
114.24
112.70
111.34
110.53
110.57
111.63
113.34
115.09
115.82
114.26
109.25
100.23
87.36
71.35
53.15
33.52
12.98
-7.92
-29.18
-50.42
-70.71
-88.72
-103.08
-113.01
-118.56
-121.00
-121.32
-120.89
-120.76
-121.70
-124.41
-129.09
-134.75
-138.68
-136.67
-124.49
-100.37
-66.35
-28.28
6.11
30.29
41.31
40.39
31.66
19.94
8.59
-0.94
-8.69
-15.35
-21.40
-26.93
-32.13
-37.24
-42.23
-46.63
-49.22
-47.46
-38.52
-20.42
6.32
37.73
66.87
86.26
90.70
80.71
62.30
44.06
33.37
33.09
41.06
51.96
60.80
64.71
63.63
59.14
53.54
49.49
49.83
57.32
72.74
94.24
116.87
134.40
141.26
134.87
116.23
88.30
56.40
24.35
-5.64
-32.33
-54.66
-71.56
-82.38
-87.76
-89.42
-89.60
-90.59
-93.62
-98.43
-103.76
-108.10
-110.56
-111.37
-111.64
-112.58
-115.21
-119.35
-123.54
-125.52
-123.08
-114.51
-99.52
-79.05
-54.77
-28.50
-1.50
25.70
52.48
78.59
103.29
125.17
142.52
154.15
159.68
159.86
156.86
152.18
147.49
144.22
143.51
145.86
150.43
154.31
152.83
141.15
116.64
81.06
40.39
2.80
-24.59
-38.53
-40.40
-34.83
-26.95
-20.18
-15.31
-11.52
-7.63
-3.17
1.22
4.53
5.81
4.32
-0.33
-8.27
-20.05
-36.57
-58.33
-84.31
-110.80
-132.28
-142.96
-139.35
-122.26
-96.89
-70.76
-50.48
-39.25
-36.09
-37.90
-41.41
-44.91
-48.52
-53.01
-58.58
-64.19
-68.17
-69.37
-68.28
-66.40
-65.28
-65.73
-66.57
-65.40
-59.28
-46.14
-25.53
1.05
31.32
62.28
90.86
113.80
128.28
132.92
128.85
120.74
112.68
108.20
107.92
109.20
107.51
98.85
81.93
57.83
30.98
4.89
-18.75
-40.26
-60.59
-79.97
-97.49
-111.46
-120.49
-124.00
-122.70
-117.84
-110.50
-101.20
-89.69
-75.52
-58.42
-38.77
-17.59
3.08
21.16
34.98
43.77
47.92
48.45
46.75
44.17
41.83
40.22
39.50
39.67
39.63
39.98
40.98
42.64
44.65
46.71
48.29
48.95
48.43
46.66
43.97
40.60
36.77
32.61
28.38
24.17
20.07
16.20
12.62
9.58
7.11
5.45
4.18
3.17
2.26
1.41
0.64
-0.03
-0.41
-0.44
-0.16
0.25
0.73
1.13
1.42
2.01
2.78
3.89
5.32
6.83
7.94
8.24
7.37
5.42
2.93
0.59
-0.59
0.07
2.75
6.38
10.83
15.51
20.17
25.51
31.26
37.49
43.83
49.31
52.52
52.45
48.51
41.18
31.79
22.05
13.88
8.90
8.39
13.03
22.50
33.75
42.62
43.76
32.96
9.68
-22.20
-55.49
-82.65
-98.72
-103.32
-99.82
-93.24
-87.60
-84.49
-83.23
-82.24
-80.39
-77.59
-74.49
-71.66
-69.21
-66.62
-63.18
-58.75
-54.16
-50.63
-48.58
-46.61
-41.43
-29.41
-8.73
18.95
48.45
73.00
86.69
87.94
79.09
64.89
50.02
37.28
27.24
19.38
12.95
8.12
5.58
5.54
7.36
9.66
10.92
9.98
6.70
1.79
-3.50
-7.97
-11.13
-13.21
-14.97
-17.24
-20.31
-23.83
-26.72
-27.57
-25.21
-19.34
-10.58
-0.34
9.65
17.94
23.80
27.39
29.56
31.35
33.53
36.29
39.16
41.46
42.61
42.44
41.35
40.10
39.51
40.23
42.67
46.88
52.39
57.94
61.39
60.17
52.31
37.47
17.49
-3.98
-22.83
-36.02
-42.60
-43.76
-41.86
-39.12
-36.87
-35.28
-33.93
-32.30
-30.17
-27.54
-24.47
-20.94
-16.90
-12.38
-7.62
-3.08
0.68
3.16
4.15
3.77
2.44
0.70
-0.92
-2.12
-2.84
-3.23
-3.52
-3.92
-4.28
-4.40
-4.14
-3.46
-2.47
-1.37
-0.36
0.40
0.79
0.81
0.45
-0.19
-0.92
-1.52
-1.88
-2.07
-2.35
-3.03
-4.33
-6.12
-7.87
-8.80
-8.18
-5.78
-2.00
2.23
5.83
8.09
8.97
9.04
9.18
10.05
11.73
13.64
14.84
14.43
11.88
7.20
0.80
-6.70
-14.66
-22.54
-29.91
-36.38
-41.61
-45.29
-47.22
-47.39
-45.93
-43.07
-38.97
-33.72
-27.23
-19.49
-10.68
-1.29
7.97
16.38
23.43
29.02
33.38
36.91
39.99
42.85
45.51
47.87
49.65
50.44
49.75
47.13
42.30
35.30
26.44
16.27
5.44
-5.38
-15.53
-24.35
-31.24
-35.75
-37.70
-37.27
-34.88
-30.96
-25.74
-19.16
-10.95
-0.84
11.12
24.32
37.71
49.83
59.18
64.46
64.81
60.04
50.69
38.09
24.11
10.74
-0.46
-8.86
-14.87
-19.74
-24.95
-31.47
-39.31
-47.37
-53.87
-57.01
-55.59
-49.40
-39.29
-26.98
-14.67
-4.64
1.09
0.97
-5.93
-19.51
-38.37
-59.73
-79.81
-94.67
-101.18
-97.77
-84.84
-64.63
-40.43
-15.67
6.62
24.33
36.45
43.02
45.04
44.00
40.99
36.77
31.85
26.40
20.47
14.25
8.02
2.34
-2.36
-6.66
-11.25
-16.43
-22.46
-29.56
-37.95
-47.69
-58.10
-67.97
-76.89
-84.11
-88.31
-88.66
-84.87
-77.12
-65.78
-50.50
-30.64
-7.10
19.20
47.75
77.30
105.73
130.25
144.15
141.18
127.12
106.77
81.09
53.10
26.08
2.67
-15.48
-27.81
-33.80
-32.97
-26.34
-14.72
1.63
21.64
43.17
63.18
78.23
85.48
82.94
68.62
42.53
7.62
-31.03
-67.12
-94.64
-109.54
-110.56
-99.39
-80.51
-58.70
-37.36
-18.38
-2.42
10.48
20.39
27.54
32.37
35.28
36.91
38.03
38.88
39.12
37.93
34.44
28.28
19.87
10.23
0.86
-6.64
-11.16
-12.36
-10.78
-7.59
-4.10
-1.34
0.34
1.29
2.34
4.35
7.86
12.79
18.55
24.16
28.72
31.64
32.79
32.43
30.95
28.65
25.56
21.56
16.59
10.87
4.99
-0.21
-4.01
-6.11
-6.82
-6.86
-7.10
-8.07
-9.76
-11.54
-12.42
-11.36
-7.67
-1.20
7.62
17.87
28.34
37.72
44.79
48.64
48.89
45.76
40.00
32.53
23.90
13.90
1.63
-13.97
-33.27
-55.34
-77.73
-97.13
-110.39
-115.58
-112.55
-102.66
-88.16
-71.50
-54.94
-40.36
-29.15
-22.24
-19.94
-21.74
-26.18
-30.99
-33.90
-33.41
-29.11
-21.41
-11.26
0.18
12.05
24.09
36.80
50.71
65.64
80.65
94.54
106.36
115.52
121.84
125.53
127.16
127.09
125.24
122.29
120.91
124.80
136.09
153.22
170.92
182.61
182.79
168.75
141.18
103.25
57.66
4.59
-57.76
-130.35
-205.86
-267.32
-298.06
-293.79
-263.92
-223.42
-184.56
-153.53
-130.66
-112.81
-96.64
-80.80
-65.98
-53.10
-43.23
-36.75
-33.29
-31.61
-30.08
-28.03
-26.29
-26.48
-26.98
-24.43
-14.37
6.83
39.73
80.88
123.56
160.39
186.63
201.75
207.03
203.61
190.70
165.85
126.94
74.63
13.46
-48.56
-97.05
-123.05
-126.75
-115.41
-98.41
-82.40
-69.58
-58.78
-47.95
-36.32
-25.77
-18.85
-16.78
-18.85
-22.81
-25.82
-25.80
-22.13
-15.81
-9.48
-5.63
-5.28
-7.78
-11.21
-13.52
-13.26
-10.26
-5.57
-1.30
0.74
0.12
-2.18
-4.13
-3.72
0.30
7.72
16.99
25.62
31.09
32.47
30.07
25.34
19.87
14.89
10.52
5.92
0.07
-8.33
-19.93
-34.64
-51.21
-66.98
-77.74
-78.87
-67.01
-42.04
-8.06
27.89
58.21
77.95
86.36
86.67
83.61
81.16
81.13
82.76
83.61
80.44
70.32
51.37
24.19
-8.52
-41.78
-69.88
-88.65
-96.58
-95.09
-86.43
-74.29
-60.49
-45.64
-30.29
-15.84
-4.42
2.11
3.42
1.17
-1.82
-2.49
1.11
8.73
18.36
27.03
31.98
31.91
27.22
19.51
11.05
3.37
-3.17
-9.46
-16.69
-26.05
-37.76
-51.33
-65.96
-80.35
-92.66
-100.16
-99.86
-89.01
-67.41
-38.06
-6.63
20.54
38.94
47.51
48.45
45.48
41.87
38.88
36.15
32.86
28.79
24.79
22.12
21.53
22.64
24.27
25.00
23.83
20.84
16.94
13.39
11.23
10.80
11.65
12.84
13.36
12.59
10.61
7.99
5.59
4.04
3.57
3.92
4.54
4.84
4.48
3.47
2.11
0.82
-0.06
-0.44
-0.43
-0.30
-0.28
-0.51
-0.94
-1.46
-1.95
-2.30
-2.62
-3.07
-3.89
-5.32
-7.52
-10.55
-14.32
-18.63
-22.99
-26.83
-29.45
-30.26
-28.74
-24.59
-17.98
-9.38
0.42
10.48
19.64
26.91
31.46
32.82
30.96
25.94
18.29
8.82
-1.41
-11.48
-20.30
-26.83
-30.27
-29.96
-25.98
-18.66
-8.93
2.59
15.03
27.77
40.39
52.56
64.97
76.60
86.62
94.30
99.26
101.20
100.13
96.30
88.93
79.59
69.17
58.77
49.54
42.18
36.35
30.47
22.13
9.32
-8.28
-29.17
-50.64
-69.01
-81.32
-86.29
-84.49
-77.63
-67.74
-56.31
-44.75
-33.95
-24.42
-16.37
-9.81
-4.54
-0.31
2.72
4.28
3.39
-1.06
-9.40
-20.49
-31.47
-38.57
-38.53
-30.43
-16.50
-1.73
8.71
12.28
10.47
7.83
9.09
16.48
28.55
41.38
50.45
52.93
48.56
38.45
23.57
3.71
-22.04
-54.04
-88.32
-119.12
-142.05
-155.15
-158.23
-151.10
-132.34
-99.95
-53.50
3.60
63.05
113.15
142.88
146.06
124.35
87.16
48.10
19.36
6.70
7.40
12.80
13.74
5.49
-10.27
-27.42
-39.86
-45.08
-45.30
-45.25
-48.52
-54.81
-60.56
-61.33
-54.58
-41.65
-27.08
-16.49
-13.72
-18.62
-26.41
-28.97
-18.57
8.12
47.90
91.66
128.07
147.89
148.91
135.82
116.76
99.07
86.22
77.59
70.83
64.48
58.76
53.72
48.06
38.43
21.62
-3.23
-33.44
-63.38
-87.12
-101.40
-106.37
-103.47
-96.68
-87.79
-76.53
-62.27
-45.78
-29.39
-16.05
-7.80
-4.77
-6.02
-9.60
-12.74
-11.92
-3.79
13.45
37.98
63.75
82.02
84.59
68.31
36.94
-0.22
-32.62
-52.36
-58.21
-54.48
-47.19
-40.46
-34.72
-28.13
-19.24
-8.65
1.08
6.90
7.22
2.97
-3.18
-7.90
-8.94
-6.00
-0.65
4.66
7.62
7.28
4.26
0.28
-2.71
-3.45
-1.86
1.08
3.93
5.43
5.01
3.16
0.85
-0.87
-1.41
-0.75
0.58
1.85
2.48
2.27
1.47
0.51
-0.15
-0.31
-0.04
0.40
0.71
0.70
0.41
0.04
-0.16
-0.05
0.29
0.65
0.73
0.35
-0.47
-1.44
-2.18
-2.36
-1.86
-0.92
-0.04
0.27
-0.30
-1.53
-2.69
-2.85
-1.25
2.35
7.40
12.73
16.94
18.82
18.02
14.88
10.29
4.93
-0.79
-7.12
-14.65
-23.62
-34.25
-46.38
-59.73
-73.60
-86.50
-95.58
-97.24
-88.61
-68.78
-40.56
-9.63
17.45
35.92
44.50
45.34
42.25
38.51
35.61
33.16
30.25
26.60
22.96
20.54
20.11
21.33
23.03
23.87
22.82
19.97
16.20
12.75
10.67
10.28
11.17
12.38
12.96
12.28
10.41
7.94
5.67
4.23
3.85
4.28
4.95
5.35
5.12
4.30
3.16
2.07
1.32
1.01
1.03
1.23
1.40
1.43
1.29
0.99
0.61
0.19
-0.19
-0.48
-0.60
-0.52
-0.22
0.22
0.63
0.86
0.79
0.43
-0.04
-0.34
-0.21
0.44
1.47
2.50
3.08
2.85
1.84
0.47
-0.60
-0.78
0.07
1.53
2.57
2.15
-0.38
-4.82
-10.02
-14.30
-16.23
-15.21
-11.81
-7.56
-4.12
-2.44
-2.08
-1.25
2.10
9.05
18.93
29.14
36.53
39.13
36.91
31.77
25.73
19.78
13.50
6.41
-0.37
-3.98
-1.61
6.36
15.72
20.27
15.87
4.00
-8.19
-11.72
-1.30
21.18
46.97
65.94
71.84
65.39
53.16
43.00
39.27
39.89
39.79
31.12
9.56
-23.60
-62.08
-96.00
-117.31
-123.03
-116.37
-104.45
-94.91
-91.84
-94.22
-97.36
-95.40
-84.22
-63.34
-35.58
-5.38
23.00
47.41
68.43
87.36
105.39
122.38
136.48
145.13
146.58
140.85
128.42
112.12
93.35
70.02
40.92
7.55
-25.45
-51.60
-66.43
-70.15
-67.91
-67.15
-73.05
-85.26
-97.87
-105.05
-103.65
-95.49
-85.71
-79.17
-77.70
-79.68
-81.32
-78.87
-70.23
-54.57
-32.31
-5.57
21.73
44.75
59.37
64.58
63.82
61.98
64.14
73.12
88.12
105.48
121.02
132.08
137.70
140.36
141.02
137.86
126.47
102.12
63.22
14.15
-37.10
-80.40
-107.70
-117.06
-111.95
-98.78
-83.64
-69.59
-56.21
-42.09
-26.55
-10.68
2.39
9.80
10.33
4.88
-4.28
-14.07
-22.16
-28.82
-35.47
-44.24
-55.99
-69.89
-83.62
-95.87
-103.33
-104.96
-101.41
-94.45
-86.75
-80.36
-76.78
-76.68
-79.33
-81.82
-80.14
-69.87
-46.12
-11.51
27.57
62.91
87.69
99.08
99.35
93.54
86.86
82.43
79.99
78.02
75.06
70.88
66.46
63.51
62.99
64.88
68.36
71.63
73.54
73.51
71.91
69.60
67.82
67.44
68.67
71.21
74.52
78.77
84.31
90.77
96.06
96.37
87.50
67.03
36.30
0.41
-33.33
-58.55
-72.37
-75.95
-73.09
-67.79
-62.47
-57.55
-52.47
-46.89
-41.43
-37.26
-35.22
-35.36
-36.26
-36.40
-34.57
-30.65
-25.51
-20.55
-17.02
-15.49
-15.65
-16.47
-16.81
-15.86
-13.53
-10.36
-7.26
-5.05
-4.09
-4.22
-4.83
-5.24
-5.01
-4.08
-2.72
-1.41
-0.57
-0.39
-0.77
-1.46
-2.11
-2.56
-2.76
-2.84
-2.99
-3.37
-4.05
-5.03
-6.22
-7.43
-8.70
-10.04
-11.49
-13.11
-14.96
-17.09
-19.48
-22.08
-24.70
-27.31
-29.83
-32.13
-34.10
-35.70
-36.89
-37.69
-38.57
-39.32
-39.76
-39.75
-39.11
-37.59
-35.04
-31.33
-26.45
-20.58
-13.94
-6.97
-0.13
6.14
11.45
15.58
18.47
20.25
21.14
21.61
22.02
22.68
23.83
25.44
27.47
29.81
32.25
34.64
36.91
38.95
40.73
42.23
43.53
44.70
45.81
46.96
48.14
49.41
50.61
51.57
52.22
52.61
52.89
53.26
54.05
55.46
57.78
61.01
65.06
69.87
75.26
81.03
86.99
93.00
98.97
104.86
110.55
116.03
121.36
126.66
131.91
136.93
141.34
144.39
146.69
148.01
147.82
145.63
141.03
133.82
124.15
112.38
99.03
84.64
69.38
53.43
37.00
20.34
3.85
-11.93
-26.39
-38.94
-49.28
-57.64
-64.53
-70.36
-75.38
-79.41
-81.84
-81.81
-78.75
-72.72
-64.86
-57.04
-51.20
-48.81
-50.28
-54.88
-61.20
-68.04
-75.14
-83.81
-96.14
-114.00
-137.77
-165.58
-193.60
-217.33
-233.38
-241.14
-242.90
-242.79
-244.61
-249.89
-257.34
-263.85
-266.18
-262.27
-251.74
-235.24
-213.90
-188.97
-162.51
-137.73
-119.23
-110.94
-113.78
-124.05
-134.43
-137.14
-128.09
-109.48
-88.52
-73.26
-67.25
-66.71
-62.26
-44.17
-8.86
37.82
82.36
110.14
113.31
95.66
71.61
60.02
74.80
117.76
177.18
233.08
266.84
270.11
247.56
213.63
183.62
165.94
158.82
153.77
142.66
124.06
104.28
92.72
95.32
109.35
124.43
128.22
113.99
84.97
53.24
32.91
32.25
49.05
71.38
84.59
79.47
58.06
32.23
17.32
22.82
46.22
73.87
88.25
78.16
45.34
3.30
-30.11
-43.43
-38.57
-29.80
-35.21
-66.32
-120.14
-179.91
-223.30
-233.29
-206.65
-154.23
-95.30
-47.37
-19.27
-8.88
-8.12
-9.72
-12.28
-20.53
-40.27
-72.52
-109.68
-137.81
-143.64
-122.16
-80.62
-36.35
-8.14
-6.83
-29.46
-60.51
-79.85
-73.35
-40.66
4.48
41.61
54.03
38.06
4.32
-28.63
-44.80
-39.97
-22.32
-6.49
-3.43
-13.40
-26.19
-28.92
-15.28
8.96
28.96
30.32
8.57
-27.03
-57.87
-67.28
-50.23
-16.78
12.94
20.17
-2.08
-45.00
-88.04
-109.84
-99.11
-60.47
-11.92
24.82
35.24
19.54
-8.08
-27.54
-23.75
4.66
44.98
77.55
86.88
70.82
41.55
18.16
15.40
34.68
63.70
84.62
85.40
67.64
45.48
36.06
48.30
76.36
103.05
110.48
91.63
55.04
20.44
6.65
20.40
52.51
82.83
92.63
75.19
40.04
7.81
-0.93
23.11
72.32
125.91
160.19
160.41
127.91
78.46
33.12
6.87
0.78
2.97
-2.77
-26.31
-63.99
-100.96
-120.50
-114.50
-89.30
-61.92
-49.59
-59.27
-83.50
-105.05
-108.00
-87.77
-54.18
-25.86
-19.04
-37.93
-71.54
-100.07
-105.82
-82.90
-40.35
3.54
31.99
39.15
33.14
30.61
46.33
83.77
131.82
169.97
179.05
151.20
94.97
31.23
-17.21
-36.70
-28.92
-8.45
6.29
3.76
-14.52
-36.26
-46.82
-39.09
-18.68
-0.11
2.32
-15.69
-44.49
-65.86
-63.63
-33.91
11.47
51.11
65.95
50.09
14.50
-19.29
-31.43
-14.93
20.18
53.09
64.46
47.64
12.67
-19.78
-30.53
-13.14
22.19
55.18
67.29
52.66
21.20
-8.11
-18.86
-7.34
15.50
31.49
26.84
0.80
-33.85
-59.46
-64.73
-51.77
-34.78
-30.57
-47.82
-81.02
-113.01
-124.21
-103.50
-54.40
6.28
56.90
81.26
75.68
49.88
20.75
3.65
4.86
18.92
33.03
34.80
20.23
-3.54
-22.37
-23.51
-4.03
26.38
50.65
53.97
32.86
-1.80
-30.86
-37.69
-18.07
16.73
46.46
53.52
33.61
-1.85
-32.15
-39.51
-19.45
16.15
46.39
53.34
32.62
-3.65
-34.24
-41.01
-19.65
17.42
48.50
55.06
32.78
-5.72
-38.34
-46.30
-25.19
12.22
43.85
51.25
30.23
-6.77
-38.98
-49.92
-37.66
-16.18
-6.75
-25.24
-72.03
-131.05
-178.35
-195.12
-177.61
-138.42
-98.45
-74.82
-71.68
-79.23
-81.28
-66.00
-33.68
3.44
29.25
33.96
20.76
3.90
-0.49
15.50
46.28
75.49
86.18
71.01
37.32
3.86
-9.44
7.67
49.84
98.80
133.10
139.59
120.19
90.19
69.25
70.10
91.02
117.18
129.19
114.19
74.05
24.35
-14.26
-27.56
-15.99
6.13
19.69
12.19
-14.90
-47.54
-68.68
-69.09
-53.33
-36.74
-35.50
-55.89
-89.58
-118.30
-124.85
-103.49
-63.47
-23.33
0.65
4.07
-2.98
-2.40
20.60
68.27
127.72
176.93
196.26
178.21
131.42
76.49
35.37
20.80
30.38
48.35
54.48
35.26
-8.31
-60.92
-100.86
-111.89
-92.67
-57.25
-27.35
-19.78
-36.74
-65.44
-86.54
-86.70
-67.51
-44.62
-37.85
-58.45
-101.29
-147.09
-173.97
-170.26
-141.49
-107.09
-88.60
-96.76
-125.10
-153.71
-160.84
-135.64
-84.47
-27.12
14.29
27.57
16.91
-1.12
-8.12
4.98
32.53
58.74
68.04
55.38
30.53
12.32
17.51
50.74
100.99
148.13
174.48
174.75
158.92
145.76
151.45
179.65
218.82
248.98
253.21
227.36
183.08
140.80
118.35
120.95
138.15
150.84
142.63
109.71
63.72
25.01
10.75
25.03
55.93
82.52
87.07
65.00
27.68
-4.73
-15.24
-0.39
27.24
46.32
39.15
2.19
-51.18
-98.39
-120.22
-111.62
-84.74
-61.40
-60.28
-85.95
-125.71
-157.17
-161.18
-133.21
-86.42
-44.33
-27.52
-41.91
-75.53
-105.95
-113.41
-92.27
-53.59
-17.78
-1.81
-8.84
-26.94
-37.49
-27.36
2.23
36.09
54.90
47.26
17.16
-17.67
-36.52
-27.67
4.41
41.21
60.82
49.79
10.95
-37.98
-74.14
-81.47
-58.88
-19.58
17.16
36.66
36.40
25.50
17.34
20.41
32.46
42.38
38.33
16.29
-15.67
-41.18
-44.96
-22.10
17.91
55.16
69.51
51.04
5.63
-47.62
-86.34
-95.95
-77.01
-43.71
-14.80
-2.94
-7.56
-16.38
-14.31
6.19
39.11
67.64
74.24
51.35
7.28
-37.75
-62.49
-56.28
-25.12
11.75
32.78
25.96
-4.83
-42.64
-67.90
-69.86
-52.95
-33.53
-29.39
-48.71
-84.31
-118.09
-131.81
-118.21
-85.86
-54.05
-41.52
-55.57
-87.54
-118.01
-128.09
-109.90
-70.90
-29.06
-2.19
2.15
-9.09
-19.29
-12.56
16.47
58.64
95.60
110.51
98.00
67.93
39.51
30.17
45.32
75.04
99.81
102.47
78.24
38.10
2.36
-11.05
3.15
34.08
61.25
65.83
41.25
-2.80
-46.11
-68.93
-62.57
-33.78
0.16
22.00
24.45
14.25
7.17
17.42
48.26
88.67
119.30
123.93
99.17
57.37
19.92
5.28
18.58
48.89
75.40
79.50
55.37
13.25
-26.55
-45.22
-35.94
-7.86
19.71
28.20
10.27
-25.61
-60.35
-74.69
-60.06
-23.57
16.20
39.70
37.20
14.23
-12.47
-25.28
-16.49
6.90
27.78
29.68
7.62
-27.98
-57.28
-62.73
-40.20
-2.24
29.01
34.58
10.07
-31.32
-66.07
-73.80
-48.93
-4.33
35.92
49.68
29.13
-14.64
-57.47
-74.96
-55.61
-6.64
50.57
92.43
105.78
93.95
72.73
59.81
63.75
79.56
93.92
94.86
80.77
61.61
52.05
61.40
86.89
114.82
129.53
123.59
102.57
81.73
76.29
91.71
119.70
141.90
140.07
105.89
45.91
-21.49
-75.28
-101.92
-101.86
-88.51
-80.31
-90.62
-120.06
-156.10
-180.36
-179.16
-152.19
-113.66
-84.62
-81.35
-105.49
-142.68
-170.88
-172.79
-146.16
-104.87
-70.86
-61.18
-77.76
-106.35
-125.25
-118.00
-82.98
-33.92
8.99
31.09
31.67
23.40
23.26
41.52
74.86
108.30
124.88
116.09
87.62
56.19
39.70
46.78
71.76
97.99
108.16
94.11
61.47
26.53
6.40
9.45
30.20
52.71
59.46
40.99
1.72
-42.62
-73.24
-78.33
-59.07
-28.28
-2.19
8.93
6.63
2.39
9.27
32.95
66.67
93.98
98.15
71.97
23.17
-28.60
-61.78
-63.83
-37.64
-0.21
26.88
28.63
4.51
-31.45
-58.77
-61.73
-38.55
-2.10
27.43
34.16
15.85
-14.98
-39.05
-41.94
-22.80
5.00
22.70
17.83
-7.50
-36.85
-49.09
-30.79
15.28
70.27
109.21
114.17
84.00
35.18
-7.27
-23.17
-7.99
24.96
52.91
56.62
31.49
-10.44
-48.30
-65.23
-58.39
-40.32
-30.25
-41.85
-74.64
-114.51
-143.14
-149.24
-135.24
-114.70
-102.95
-106.91
-120.66
-129.01
-117.70
-82.54
-32.47
14.87
43.40
47.45
35.28
24.51
32.74
67.93
123.95
183.00
224.72
235.62
214.84
173.05
125.14
81.71
44.14
5.42
-43.34
-105.17
-172.72
-230.24
-261.43
-258.09
-225.68
-180.82
-143.17
-125.12
-125.43
-129.68
-119.13
-81.67
-19.52
50.62
106.63
132.86
128.88
109.49
96.31
104.90
135.83
174.02
197.43
189.67
148.80
88.19
27.80
-16.92
-42.86
-58.85
-77.70
-106.06
-138.61
-159.76
-152.60
-109.48
-38.21
40.70
103.47
134.43
132.62
110.60
85.77
69.96
63.46
56.33
36.61
-0.07
-45.60
-82.70
-94.03
-72.63
-27.08
22.74
55.94
61.89
45.56
24.03
15.76
29.43
59.02
87.71
98.39
84.12
52.13
18.76
-0.77
-1.70
7.19
10.04
-5.94
-41.48
-83.91
-113.80
-115.89
-88.26
-43.81
-3.21
16.36
10.35
-11.39
-32.14
-38.92
-30.48
-17.88
-16.18
-33.88
-66.19
-96.62
-106.18
-84.69
-37.56
16.31
54.32
61.78
39.17
1.21
-31.93
-45.36
-36.83
-16.39
1.22
6.22
0.14
-5.59
2.28
29.59
69.13
102.97
111.72
84.70
26.63
-43.94
-103.58
-135.23
-135.94
-116.83
-96.01
-88.33
-97.53
-115.64
-128.37
-124.03
-100.64
-66.26
-33.40
-10.96
1.66
13.74
36.33
74.27
121.23
161.80
179.36
165.32
124.28
72.73
30.55
11.14
15.21
32.12
47.51
52.31
47.82
43.32
49.03
68.07
93.23
111.18
110.79
90.50
60.61
38.26
37.63
62.19
101.80
137.89
153.34
141.44
109.42
75.39
58.72
70.14
106.22
150.83
183.86
191.58
172.94
139.15
106.30
85.55
76.21
67.02
43.32
-3.04
-67.43
-133.98
-183.87
-205.77
-202.46
-189.08
-184.03
-198.11
-227.96
-258.01
-270.13
-254.82
-217.20
-174.05
-143.57
-134.26
-140.54
-146.79
-138.02
-109.78
-71.38
-40.19
-30.79
-45.27
-71.15
-87.59
-76.68
-33.33
31.74
97.91
145.62
166.16
165.16
158.15
160.63
178.87
205.95
226.49
225.74
199.14
155.39
112.36
87.17
86.26
101.81
116.56
113.95
88.02
46.78
7.62
-12.69
-7.35
16.69
43.11
55.38
45.84
18.20
-15.88
-44.71
-63.68
-76.52
-91.75
-114.84
-143.39
-167.49
-175.89
-163.43
-135.39
-105.69
-89.27
-93.94
-116.04
-143.08
-161.26
-163.88
-154.80
-144.93
-144.76
-157.44
-176.24
-188.43
-183.23
-158.18
-121.41
-86.90
-67.00
-65.48
-74.73
-80.05
-67.46
-31.85
19.08
68.77
99.99
104.04
85.04
57.85
39.47
40.14
57.94
81.10
95.89
95.45
83.46
71.96
73.08
91.11
119.23
143.70
152.45
142.77
122.88
107.57
108.96
129.27
159.10
182.55
186.28
166.51
130.88
93.58
67.54
57.73
58.80
58.42
44.50
11.81
-34.25
-79.68
-108.60
-111.14
-89.18
-56.07
-30.11
-25.27
-43.89
-75.07
-100.82
-105.94
-86.78
-53.04
-21.86
-7.33
-12.35
-26.95
-35.36
-26.34
-0.80
27.95
42.57
32.41
0.97
-34.68
-53.36
-41.54
-1.53
48.79
85.41
90.91
63.83
19.73
-17.35
-27.62
-6.23
34.15
70.62
82.38
62.27
20.04
-23.80
-49.86
-51.01
-35.42
-20.32
-20.62
-39.34
-66.07
-84.57
-83.67
-64.85
-41.39
-29.22
-36.11
-55.85
-71.29
-65.07
-30.52
23.45
76.44
107.76
107.52
81.88
49.75
32.25
41.55
74.44
113.76
137.82
131.63
95.35
44.22
0.72
-17.31
-6.51
20.77
43.72
45.23
21.97
-14.36
-44.92
-55.67
-46.57
-31.05
-26.81
-44.03
-77.76
-110.72
-123.89
-108.55
-72.34
-35.02
-16.93
-27.32
-59.14
-93.49
-110.83
-101.62
-70.72
-33.94
-7.64
0.33
-5.30
-11.23
-4.56
18.93
51.29
76.69
80.39
57.50
16.49
-24.91
-49.32
-49.08
-30.28
-8.87
-0.98
-13.30
-38.45
-59.06
-57.37
-25.69
28.08
83.71
118.59
119.29
88.89
45.24
11.64
4.46
24.58
57.06
79.98
76.90
46.45
2.78
-32.93
-45.10
-33.05
-10.47
3.51
-3.27
-28.00
-55.06
-65.92
-51.27
-17.61
16.55
31.61
18.84
-13.97
-47.07
-60.55
-45.86
-10.65
26.08
45.89
41.83
22.82
7.78
14.16
47.03
95.11
137.35
154.58
140.60
106.06
71.88
57.34
68.99
96.69
120.23
121.24
94.18
50.13
10.40
-5.64
8.21
41.18
72.02
81.14
61.36
21.11
-22.34
-54.04
-70.56
-81.16
-100.33
-137.07
-187.48
-235.46
-261.81
-255.50
-220.39
-173.99
-137.65
-125.29
-136.04
-154.92
-161.62
-141.74
-94.63
-34.16
18.97
48.26
50.53
37.11
26.94
35.54
65.50
105.01
135.03
140.68
120.15
86.03
57.40
48.25
58.93
75.68
79.10
55.62
6.27
-52.99
-99.10
-113.85
-92.97
-47.96
1.17
36.68
51.74
52.63
52.38
61.41
79.98
97.09
97.52
71.63
22.90
-31.99
-71.40
-79.78
-56.21
-15.41
20.43
33.31
18.89
-11.62
-38.40
-44.44
-25.21
9.01
39.80
51.64
41.56
21.02
8.90
20.21
56.92
106.24
148.39
167.84
161.95
142.05
125.64
125.53
141.78
161.29
166.02
143.96
96.83
40.41
-4.19
-21.97
-12.58
9.11
21.57
8.60
-31.24
-83.12
-124.19
-136.17
-115.85
-77.53
-44.93
-38.07
-61.81
-103.00
-138.20
-147.18
-124.82
-84.33
-49.14
-39.34
-59.91
-98.82
-135.23
-152.52
-148.23
-134.30
-128.05
-139.82
-165.40
-188.27
-190.27
-163.39
-115.63
-66.79
-36.77
-34.29
-51.70
-69.84
-69.41
-41.83
6.25
57.12
92.42
102.93
93.13
77.39
70.99
81.07
102.69
122.19
125.79
108.03
75.64
43.75
27.12
31.62
50.33
67.78
69.24
49.59
16.99
-11.95
-22.10
-8.92
18.21
41.96
47.41
31.30
4.64
-13.91
-9.04
21.93
67.23
107.22
126.25
121.44
104.31
93.45
103.08
134.17
172.44
195.64
185.07
135.63
59.28
-20.21
-78.76
-103.02
-96.18
-75.29
-61.29
-67.69
-93.03
-122.31
-135.71
-120.54
-79.84
-31.04
2.85
6.09
-20.82
-62.29
-97.11
-110.99
-104.16
-90.02
-84.79
-96.31
-117.87
-132.38
-123.28
-85.57
-30.76
19.21
43.72
35.15
2.96
-31.67
-48.18
-37.84
-7.75
24.23
41.15
37.12
21.32
11.72
24.09
61.66
111.90
153.50
168.02
150.56
112.78
76.07
59.27
67.90
91.01
108.04
101.29
66.67
17.17
-24.39
-38.07
-18.25
22.72
61.86
78.26
64.85
31.55
-1.31
-15.38
-5.18
19.45
40.31
42.75
24.51
-3.28
-24.58
-29.28
-20.12
-11.41
-19.51
-52.16
-102.69
-152.43
-180.69
-175.97
-141.89
-95.64
-58.58
-45.41
-56.88
-80.10
-96.25
-90.90
-61.91
-20.42
16.04
33.55
29.95
15.94
8.05
18.50
47.05
80.51
100.34
93.56
61.11
18.33
-13.22
-17.65
6.20
43.80
73.21
77.49
54.10
16.44
-14.27
-21.37
-2.68
28.15
49.87
45.80
14.13
-30.83
-67.08
-77.35
-58.54
-23.11
9.12
22.28
13.10
-7.90
-23.90
-22.01
-1.09
27.11
45.09
39.50
9.23
-33.31
-68.93
-82.03
-69.17
-41.07
-16.10
-9.65
-25.12
-51.64
-71.02
-68.69
-42.91
-6.05
23.29
31.16
17.23
-4.81
-15.53
-1.14
37.79
86.09
122.56
131.67
112.10
77.61
48.31
39.17
51.73
73.23
85.32
75.24
44.28
7.36
-15.02
-8.91
24.24
67.98
99.42
101.79
73.36
27.81
-14.82
-39.77
-45.60
-43.89
-49.71
-70.87
-101.28
-123.68
-119.93
-82.72
-21.82
39.40
75.18
70.46
28.48
-30.90
-81.74
-105.06
-97.63
-71.90
-47.02
-36.88
-41.79
-49.42
-43.71
-16.07
27.69
70.59
94.66
91.89
69.19
43.97
33.11
42.75
64.79
81.91
78.57
50.47
7.42
-32.07
-51.50
-45.33
-21.76
2.65
13.18
5.27
-12.94
-26.01
-20.73
5.50
41.74
68.83
68.92
35.09
-24.59
-90.63
-141.65
-164.40
-159.76
-140.96
-124.85
-122.12
-130.85
-138.65
-131.20
-102.36
-59.71
-20.85
-3.47
-14.15
-43.92
-72.83
-81.67
-63.05
-25.35
12.50
32.91
30.01
13.24
1.01
9.17
41.24
85.97
124.17
140.57
132.75
112.63
99.40
107.81
139.24
180.11
208.75
206.58
167.81
103.00
33.82
-17.24
-37.59
-30.06
-9.83
4.73
2.63
-13.65
-30.61
-32.84
-13.36
20.74
51.89
62.18
44.33
6.78
-30.93
-49.41
-40.80
-13.24
14.06
22.48
5.20
-28.67
-59.44
-68.50
-49.39
-12.10
22.90
36.38
21.41
-12.30
-44.93
-58.00
-45.64
-18.11
4.30
3.19
-27.04
-75.68
-122.17
-148.10
-147.44
-129.64
-112.62
-111.41
-128.37
-151.15
-160.34
-141.19
-93.14
-31.42
21.24
46.85
42.02
20.04
2.71
8.06
40.01
85.76
123.31
133.90
112.79
72.42
35.20
21.12
36.27
69.88
101.07
111.23
94.78
61.67
30.23
15.34
19.45
31.49
35.23
20.21
-10.60
-41.66
-54.02
-36.53
6.99
58.87
97.18
107.11
88.37
54.78
25.58
14.66
23.18
39.22
45.71
30.66
-5.03
-47.43
-77.27
-80.56
-57.01
-20.54
8.46
14.27
-5.44
-38.05
-63.71
-66.58
-44.08
-8.81
18.99
22.99
0.66
-34.95
-62.91
-66.57
-43.37
-6.74
22.20
26.95
5.64
-27.35
-50.00
-45.35
-11.81
35.06
71.37
78.04
51.93
7.87
-29.67
-40.11
-18.38
22.38
58.86
71.02
53.47
17.75
-15.47
-29.42
-21.30
-2.95
7.62
-1.94
-29.99
-61.79
-78.63
-68.80
-34.37
10.39
48.06
67.72
70.47
67.29
71.04
88.07
113.99
135.63
139.16
118.06
77.55
32.45
-0.87
-12.98
-6.63
4.93
5.73
-13.80
-50.80
-91.26
-117.49
-117.91
-93.84
-59.09
-32.22
-26.46
-42.02
-65.96
-80.08
-71.46
-40.43
-1.17
26.50
28.29
4.39
-30.20
-54.02
-51.21
-20.85
21.82
54.21
58.94
33.84
-6.54
-39.59
-47.50
-27.72
5.63
30.10
28.07
-2.93
-48.71
-87.08
-100.62
-86.11
-55.55
-27.39
-14.91
-18.20
-24.77
-18.43
9.73
54.36
97.83
119.97
109.39
70.38
20.81
-18.10
-33.16
-26.02
-11.45
-7.55
-24.73
-58.87
-93.20
-107.82
-91.23
-47.51
5.30
44.72
55.66
38.14
6.03
-22.00
-33.43
-28.67
-19.35
-19.50
-35.71
-61.75
-82.23
-82.39
-57.74
-17.85
18.69
35.29
26.98
3.46
-16.37
-15.41
12.13
57.20
100.88
124.71
120.32
93.55
60.40
37.36
32.15
39.90
46.85
39.81
14.88
-19.01
-44.26
-44.71
-14.83
35.87
87.10
117.84
116.97
89.17
52.59
29.30
33.74
65.35
108.45
141.14
147.00
124.47
87.54
57.87
52.26
72.34
103.38
122.69
112.90
72.34
16.19
-32.53
-56.46
-54.08
-40.41
-37.44
-60.50
-108.66
-165.29
-207.85
-221.58
-208.20
-184.34
-171.19
-181.53
-212.27
-246.76
-265.42
-257.50
-227.40
-191.59
-168.32
-166.47
-180.08
-192.48
-186.70
-155.85
-107.48
-59.08
-27.69
-19.70
-26.98
-32.07
-18.79
17.76
67.58
111.65
132.72
125.43
99.95
75.70
70.50
90.29
125.45
156.86
166.85
149.38
113.81
79.40
64.08
74.17
100.42
123.83
126.67
102.98
62.63
25.64
10.93
25.38
59.44
93.01
106.60
92.54
59.38
26.34
12.02
23.29
51.16
76.41
81.24
59.98
23.11
-9.31
-19.23
-1.46
32.45
61.36
66.32
41.62
-1.75
-42.60
-61.87
-53.21
-26.37
-0.79
6.51
-8.88
-35.55
-53.54
-46.04
-9.97
41.08
84.50
100.68
84.12
46.45
9.47
-7.38
2.18
27.99
50.15
51.57
28.18
-7.57
-34.37
-34.28
-3.72
43.61
84.25
97.83
78.61
37.98
-2.46
-23.91
-20.89
-3.27
11.40
10.01
-7.47
-27.71
-33.29
-14.18
24.82
65.12
84.59
69.36
22.00
-39.27
-89.16
-107.65
-89.29
-45.25
3.30
36.25
44.43
33.18
17.35
11.80
21.71
39.99
52.41
47.22
23.79
-6.72
-28.19
-29.79
-13.14
8.19
17.51
5.33
-24.50
-56.60
-73.48
-65.88
-38.56
-8.27
5.77
-7.65
-45.15
-90.32
-122.44
-127.24
-104.41
-67.68
-37.13
-28.53
-44.70
-74.32
-98.97
-103.59
-85.43
-55.41
-31.28
-26.93
-43.64
-69.04
-84.75
-77.34
-46.68
-6.62
23.30
28.99
10.24
-18.84
-38.23
-33.44
-4.03
35.60
64.58
67.18
41.64
1.38
-32.94
-45.17
-32.82
-8.44
8.30
2.12
-28.55
-69.90
-100.89
-105.03
-80.18
-40.38
-7.81
-0.57
-22.49
-60.67
-93.32
-102.29
-83.65
-50.03
-22.95
-20.13
-44.59
-82.10
-109.51
-107.90
-73.56
-20.33
28.90
55.41
55.57
42.52
37.75
57.80
103.58
159.14
200.68
210.10
185.32
141.26
100.39
79.69
81.12
91.78
93.44
74.85
39.57
3.78
-13.83
-4.17
25.77
56.92
69.45
54.42
19.15
-17.15
-34.92
-25.14
5.60
39.56
58.58
54.34
33.05
10.92
4.06
18.77
47.40
73.20
80.55
64.49
34.41
8.56
3.23
23.15
58.08
88.94
99.01
83.96
54.59
30.43
28.06
51.23
88.66
120.82
131.94
119.07
93.71
74.47
75.67
98.63
130.08
149.39
139.53
96.27
30.56
-36.71
-85.25
-104.95
-100.05
-85.71
-78.66
-88.27
-111.53
-136.23
-149.14
-144.62
-129.26
-117.89
-125.00
-154.97
-198.73
-237.55
-253.83
-240.82
-206.39
-169.04
-146.87
-147.55
-163.34
-175.43
-163.91
-119.15
-48.24
27.95
84.65
105.82
91.70
57.66
24.78
8.01
8.49
14.57
11.14
-9.68
-41.87
-68.95
-74.26
-51.91
-12.14
24.28
37.59
20.87
-15.76
-50.56
-62.96
-44.94
-5.20
36.40
61.00
61.40
46.42
34.61
43.06
76.79
124.83
166.42
182.41
165.84
125.88
82.27
53.80
48.19
58.29
67.56
61.10
35.10
-0.06
-26.35
-29.04
-6.22
28.94
55.73
57.47
31.33
-9.83
-44.87
-56.83
-42.25
-12.73
12.37
18.24
3.36
-19.11
-28.90
-10.34
38.24
102.29
157.78
182.56
167.22
119.32
59.24
10.00
-14.04
-13.30
-0.62
7.66
1.74
-15.86
-33.46
-39.04
-29.28
-13.31
-6.93
-22.57
-59.94
-104.12
-132.80
-128.51
-88.75
-27.92
29.79
63.50
66.27
48.15
29.58
29.21
53.09
90.79
121.95
127.89
103.05
58.52
15.69
-5.48
2.16
29.49
57.44
68.77
58.07
34.07
12.68
5.81
13.53
23.73
20.98
-2.83
-42.16
-80.14
-98.39
-88.16
-55.99
-20.80
-3.85
-17.65
-59.55
-112.83
-155.22
-169.41
-150.94
-110.07
-65.56
-35.22
-26.99
-35.62
-47.12
-47.61
-32.45
-9.29
6.56
1.77
-25.76
-64.30
-94.69
-101.11
-80.74
-46.29
-18.67
-15.27
-39.76
-79.89
-114.49
-125.93
-110.05
-78.70
-52.18
-47.15
-66.47
-96.73
-116.16
-107.00
-66.21
-7.95
44.48
71.45
68.04
46.81
29.80
35.60
68.00
113.21
148.03
152.91
123.76
74.85
30.65
12.30
26.08
60.45
93.57
105.80
90.57
56.87
22.82
4.33
6.01
19.52
30.51
28.43
13.84
-2.01
-4.91
12.80
46.14
79.20
94.31
82.25
48.07
9.01
-15.34
-13.74
10.05
39.31
53.99
41.53
4.22
-42.33
-77.70
-87.89
-72.71
-44.80
-21.57
-15.01
-24.62
-38.73
-42.35
-26.60
5.42
40.57
64.06
68.40
58.35
47.55
49.85
70.46
102.15
128.69
134.48
113.58
73.58
32.01
6.52
5.59
23.70
44.56
50.44
32.03
-6.12
-47.90
-74.37
-73.94
-48.81
-13.95
11.19
13.00
-8.69
-40.60
-63.68
-63.73
-39.78
-5.06
20.54
21.47
-4.19
-43.60
-76.63
-87.37
-73.26
-46.78
-27.46
-30.26
-56.51
-92.45
-117.82
-117.62
-91.20
-52.98
-24.03
-19.69
-40.46
-71.28
-90.13
-80.65
-41.63
11.63
56.02
73.03
58.87
26.46
-2.83
-11.34
4.45
32.03
50.47
43.00
7.53
-41.44
-80.32
-89.69
-65.15
-19.97
22.81
43.28
35.27
8.64
-18.63
-32.31
-31.02
-26.42
-34.79
-65.55
-113.48
-160.48
-185.11
-174.55
-131.94
-74.98
-26.19
-1.13
-0.85
-12.92
-20.04
-10.70
14.22
43.09
61.80
63.07
51.82
41.78
46.55
70.31
104.21
131.29
137.00
118.63
87.82
64.21
64.26
91.21
132.29
164.92
168.46
134.80
72.87
4.93
-43.82
-55.78
-28.05
26.97
87.96
133.69
151.36
140.21
110.07
75.48
49.92
40.91
49.35
71.90
104.86
146.13
194.85
248.99
297.64
326.49
322.74
281.40
208.10
116.85
23.98
-57.12
-119.35
-162.42
-189.95
-207.20
-219.18
-228.96
-237.13
-243.29
-246.24
-245.42
-241.55
-235.93
-230.22
-226.24
-225.28
-227.54
-232.70
-239.73
-247.23
-254.12
-259.40
-262.51
-263.24
-262.71
-259.16
-249.94
-231.82
-202.07
-159.47
-104.63
-39.84
31.74
105.79
178.02
242.95
294.17
325.00
330.74
311.40
272.14
221.71
169.47
122.73
85.37
59.65
47.96
53.04
76.14
114.81
159.64
197.67
217.40
213.02
187.19
148.91
109.50
79.04
62.36
59.08
64.80
72.89
74.63
65.18
43.74
14.62
-11.83
-26.83
-24.20
-2.95
31.57
69.18
99.29
113.88
107.59
82.68
44.77
0.45
-45.01
-88.43
-128.32
-163.05
-190.60
-209.01
-216.67
-214.22
-204.30
-189.25
-171.64
-153.47
-135.45
-117.78
-100.39
-82.95
-66.10
-50.45
-36.09
-22.20
-6.97
11.41
33.03
55.10
72.96
80.33
74.48
57.87
37.06
19.81
11.43
12.74
20.43
29.99
37.80
42.82
45.89
48.02
49.35
48.93
45.73
39.64
31.88
24.22
18.72
16.36
16.70
18.23
19.06
17.85
14.32
9.30
4.18
0.45
-1.18
-0.92
0.26
1.14
0.85
-0.83
-3.41
-6.05
-7.89
-8.54
-8.14
-7.26
-6.58
-6.56
-7.29
-8.47
-9.59
-10.05
-9.79
-9.01
-8.18
-7.78
-8.10
-9.09
-10.39
-11.49
-11.98
-11.78
-11.15
-10.68
-10.94
-12.23
-14.41
-16.87
-18.82
-19.66
-19.30
-18.29
-17.60
-18.14
-20.33
-23.83
-27.59
-30.38
-31.56
-31.13
-29.89
-28.91
-28.91
-30.05
-32.23
-35.49
-39.92
-45.05
-48.97
-48.36
-39.45
-20.07
8.69
42.25
73.99
97.89
110.74
113.01
108.01
99.79
91.61
85.12
80.65
78.11
77.56
79.36
83.51
88.66
91.89
89.32
77.39
54.89
24.26
-8.94
-38.12
-58.14
-67.60
-69.04
-67.17
-65.77
-65.18
-62.13
-52.33
-33.95
-10.00
12.26
24.84
23.14
8.56
-12.38
-31.21
-42.11
-44.23
-40.94
-37.17
-36.02
-37.55
-39.21
-38.45
-34.38
-28.40
-23.29
-21.58
-24.58
-31.14
-37.70
-39.99
-35.09
-23.12
-7.72
5.33
11.07
7.61
-2.85
-15.54
-25.77
-30.86
-30.08
-23.49
-10.68
9.40
36.61
68.43
99.53
123.13
134.06
130.80
115.68
92.56
67.04
42.34
19.82
-0.05
-17.10
-30.61
-39.78
-44.36
-44.90
-42.37
-38.26
-33.84
-29.73
-26.12
-22.89
-20.00
-17.54
-16.02
-15.81
-17.46
-21.02
-26.12
-32.14
-38.44
-44.65
-50.75
-56.91
-63.43
-70.53
-77.90
-84.76
-89.95
-92.15
-90.38
-84.17
-73.49
-58.91
-41.53
-22.57
-3.43
14.62
30.69
44.07
54.44
61.75
66.30
68.56
69.10
68.92
68.35
67.80
67.41
67.15
66.83
66.43
65.41
63.42
60.28
55.93
50.49
44.22
37.39
30.40
23.60
17.24
11.54
6.58
2.30
-1.48
-4.78
-7.91
-11.06
-14.33
-17.78
-21.28
-24.70
-27.85
-30.60
-32.47
-33.59
-34.05
-33.97
-33.46
-32.59
-31.45
-30.02
-28.31
-25.76
-22.42
-18.29
-13.25
-7.20
-0.04
8.21
17.43
27.29
37.95
48.62
58.49
66.78
72.85
76.09
76.10
72.69
62.30
47.75
30.58
11.84
-7.80
-27.74
-47.57
-66.91
-85.32
-102.49
-117.16
-129.08
-137.54
-141.85
-141.51
-136.30
-126.34
-112.15
-94.92
-75.72
-56.51
-38.83
-23.70
-11.84
-3.52
1.32
5.09
6.79
6.71
4.91
1.36
-3.98
-11.35
-21.10
-33.63
-49.26
-68.59
-91.30
-117.10
-145.47
-175.44
-205.82
-235.32
-262.02
-284.14
-300.57
-309.99
-311.00
-304.02
-288.90
-266.29
-237.56
-204.22
-168.28
-132.29
-98.44
-68.37
-42.50
-20.29
-0.96
16.49
34.20
53.35
73.36
92.68
109.26
122.35
131.65
136.87
138.23
139.62
143.47
149.14
154.41
156.43
156.30
155.55
154.95
155.30
163.69
183.16
209.82
236.18
253.81
263.21
266.46
265.16
261.76
268.99
293.35
330.38
369.60
398.48
418.31
432.17
441.86
450.12
472.59
516.47
574.50
631.78
671.36
694.96
707.35
712.51
625.09
421.58
154.55
-94.09
-238.00
-307.79
-330.26
-320.44
-304.04
-291.87
-274.38
-245.92
-212.03
-184.03
-174.79
-179.78
-193.65
-214.27
-238.84
-252.30
-246.42
-225.50
-201.10
-186.51
-180.62
-180.00
-182.39
-184.47
-173.49
-142.42
-94.77
-40.52
9.01
52.60
91.96
129.29
145.03
134.02
104.65
69.04
31.97
-8.46
-50.63
-90.23
-122.90
-146.22
-155.78
-152.16
-141.24
-130.52
-125.40
-126.74
-133.39
-144.62
-161.46
-180.30
-197.89
-212.31
-222.54
-227.24
-224.75
-213.85
-191.09
-161.26
-127.09
-90.80
-54.35
-19.50
12.65
42.22
69.67
93.63
111.91
125.13
134.49
141.19
145.75
148.05
143.31
132.48
116.28
95.21
72.16
50.36
32.33
18.46
6.92
-4.37
-16.92
-31.46
-47.54
-62.56
-75.33
-84.60
-90.81
-95.63
-99.65
-102.51
-103.46
-101.88
-96.10
-84.95
-68.02
-44.16
-18.38
7.80
32.20
51.50
61.47
59.77
45.64
20.42
-12.43
-48.20
-81.37
-109.12
-128.33
-139.58
-144.17
-144.37
-142.02
-137.24
-128.31
-111.89
-85.96
-50.68
-8.84
37.93
87.31
136.08
180.87
219.11
249.96
273.34
289.89
286.53
258.85
213.83
164.65
121.37
87.66
63.13
45.40
31.41
17.44
2.70
-13.07
-30.00
-47.53
-64.01
-77.32
-86.38
-93.32
-100.23
-106.96
-113.05
-118.35
-122.99
-127.06
-130.43
-132.75
-129.39
-120.18
-104.48
-82.77
-57.37
-31.90
-9.80
6.84
17.55
23.09
24.43
23.48
21.87
20.55
19.95
20.29
21.58
23.44
25.07
25.21
23.47
20.02
15.44
10.58
6.41
3.74
2.96
3.92
5.89
8.34
10.97
13.71
16.74
20.21
24.07
28.12
31.44
32.88
31.83
28.30
22.87
16.60
10.67
5.91
2.70
1.02
0.59
1.30
3.29
6.46
10.52
15.01
19.85
25.60
33.43
44.34
57.31
70.38
79.93
82.37
75.87
61.42
42.24
22.79
6.74
-3.97
-9.14
-9.71
-7.11
-2.81
1.61
4.33
3.82
-0.96
-9.81
-21.06
-32.01
-39.88
-42.99
-41.78
-39.52
-39.90
-46.74
-61.82
-83.46
-106.73
-125.10
-132.98
-126.73
-108.99
-84.69
-59.38
-36.88
-18.25
-2.61
11.35
24.06
34.66
41.28
42.96
39.75
32.91
24.28
15.77
8.64
3.40
-0.10
-2.64
-4.57
-6.12
-7.08
-6.92
-5.05
-1.22
4.29
10.80
17.31
23.28
28.38
32.54
35.76
37.85
38.53
37.58
35.11
31.57
27.85
24.49
21.52
18.40
14.16
7.89
-0.83
-11.68
-23.50
-34.33
-42.25
-45.82
-44.65
-39.49
-31.85
-23.47
-15.78
-9.21
-3.41
2.34
8.80
16.81
26.90
39.41
54.07
69.52
83.18
93.06
97.69
96.74
90.93
81.05
67.08
47.78
21.06
-13.48
-54.50
-97.49
-135.81
-162.93
-174.64
-170.15
-150.63
-122.92
-93.63
-67.94
-48.64
-35.79
-27.42
-20.80
-13.59
-4.55
5.94
17.76
31.05
46.33
64.03
83.34
101.78
114.84
120.12
116.49
105.70
91.16
76.36
63.51
52.86
43.37
33.82
23.59
12.72
2.20
-6.83
-13.52
-17.45
-18.83
-18.37
-16.95
-15.34
-14.11
-13.21
-12.34
-11.22
-9.81
-8.39
-7.27
-6.66
-6.48
-6.57
-6.61
-6.39
-5.92
-5.23
-4.47
-3.77
-3.40
-3.68
-5.04
-7.85
-12.40
-18.84
-27.04
-36.53
-46.58
-56.37
-64.73
-70.49
-72.58
-70.33
-63.64
-52.83
-38.73
-22.52
-5.60
10.63
24.86
36.05
43.73
47.82
48.67
46.80
42.67
36.95
30.43
23.82
17.76
12.58
8.14
3.98
-0.41
-5.04
-9.12
-11.35
-10.57
-6.24
1.24
10.61
20.22
28.54
34.56
37.97
38.82
37.25
33.55
28.04
21.19
13.76
6.79
1.26
-2.08
-3.11
-2.45
-1.12
-0.21
-0.58
-2.41
-5.34
-8.66
-11.61
-13.71
-14.98
-15.61
-15.97
-16.35
-16.84
-17.46
-18.20
-19.20
-19.89
-20.27
-20.43
-20.46
-20.37
-20.03
-19.29
-18.00
-16.11
-13.60
-10.63
-7.24
-3.52
0.41
4.43
8.40
12.15
15.58
18.81
21.96
25.30
28.84
32.47
36.02
39.42
42.60
45.56
48.53
51.49
54.43
56.74
57.58
56.00
51.40
43.43
32.12
18.41
3.24
-11.94
-26.40
-39.84
-52.63
-65.12
-77.87
-90.99
-103.21
-113.34
-120.15
-124.08
-126.90
-131.13
-138.16
-148.59
-162.44
-179.19
-200.39
-220.30
-233.00
-232.68
-215.47
-178.98
-124.12
-60.23
9.76
81.44
150.91
215.66
276.39
328.20
367.33
390.07
393.60
377.94
344.60
297.49
241.59
182.55
124.86
72.15
25.66
-14.97
-50.15
-81.08
-108.14
-130.81
-147.10
-155.51
-155.55
-148.90
-138.19
-125.54
-113.24
-103.16
-96.04
-90.19
-82.25
-67.39
-40.78
1.41
60.57
133.42
207.23
261.52
279.86
260.36
214.65
157.52
99.78
46.76
-0.41
-41.96
-77.70
-105.45
-122.55
-128.43
-125.74
-119.11
-113.23
-111.75
-116.60
-127.36
-138.54
-145.93
-147.31
-142.93
-134.54
-124.43
-114.75
-106.87
-100.67
-94.25
-85.30
-71.99
-53.76
-31.20
-5.76
20.61
46.05
69.34
90.16
108.26
123.12
133.74
139.02
138.31
131.79
120.57
106.48
91.65
77.68
65.46
55.20
46.74
39.94
34.70
31.04
29.04
28.80
30.18
32.71
35.61
37.90
38.57
36.73
31.81
23.64
12.56
-0.86
-16.05
-32.25
-48.06
-61.50
-70.43
-73.28
-69.49
-59.62
-45.13
-28.27
-11.18
4.82
19.27
32.20
43.67
53.59
61.79
67.78
70.11
66.69
55.77
36.59
9.72
-23.02
-58.90
-93.64
-119.95
-131.91
-128.87
-115.04
-96.10
-76.28
-57.93
-42.07
-28.72
-17.05
-6.52
3.06
11.77
19.67
26.64
33.06
37.91
40.11
39.38
35.48
28.27
17.90
5.22
-8.01
-19.60
-27.59
-30.45
-26.44
-14.74
4.66
31.18
63.06
98.34
134.60
168.59
190.57
192.63
172.78
136.69
93.60
51.57
15.64
-12.49
-33.59
-49.34
-60.10
-66.90
-69.22
-67.15
-61.77
-54.41
-46.48
-39.21
-33.48
-28.81
-24.49
-19.99
-14.93
-10.35
-7.33
-6.61
-8.49
-12.84
-18.87
-25.85
-33.36
-41.57
-50.84
-60.88
-70.69
-78.97
-84.53
-86.40
-84.27
-78.51
-70.22
-61.09
-52.64
-45.99
-41.58
-39.16
-37.82
-36.51
-34.40
-31.19
-26.99
-21.91
-15.93
-8.95
-0.97
7.64
16.22
24.00
30.38
35.16
38.53
40.92
42.75
44.37
45.97
47.62
49.31
50.92
52.31
53.35
54.00
54.30
54.32
54.02
53.23
51.64
48.92
44.97
39.93
34.24
28.41
22.88
17.79
13.03
8.41
3.82
-0.58
-4.48
-7.63
-10.00
-11.92
-14.05
-17.07
-21.43
-27.33
-34.70
-43.40
-53.33
-64.33
-76.05
-87.83
-98.50
-106.47
-109.90
-107.09
-96.72
-78.10
-51.34
-17.50
21.29
62.02
101.24
135.61
162.27
179.18
185.37
180.91
166.95
145.25
118.11
88.28
58.77
32.37
10.97
-4.64
-14.86
-20.78
-24.25
-27.16
-30.65
-34.63
-38.25
-40.76
-41.86
-42.10
-42.40
-44.22
-49.27
-58.56
-71.55
-86.78
-102.80
-118.25
-132.31
-139.63
-135.00
-117.48
-91.21
-61.80
-33.36
-8.84
13.28
34.38
55.56
77.90
100.81
119.91
131.45
132.75
122.40
101.17
71.24
36.17
0.90
-32.06
-62.17
-89.21
-109.55
-118.15
-111.70
-91.61
-64.77
-30.58
11.40
60.16
112.50
163.13
205.80
235.67
249.67
238.56
202.57
150.18
93.98
43.71
4.93
-26.11
-52.01
-74.06
-92.76
-104.97
-110.23
-110.29
-107.65
-103.96
-99.88
-94.66
-87.78
-79.15
-67.79
-54.25
-40.11
-27.41
-17.61
-11.55
-8.86
-8.82
-10.44
-11.78
-11.80
-10.41
-8.22
-5.70
-2.86
1.01
6.45
13.23
20.39
25.65
26.30
20.39
7.92
-9.07
-27.06
-42.44
-52.61
-56.44
-54.36
-47.78
-38.64
-28.85
-20.26
-14.51
-12.62
-14.54
-19.22
-24.97
-30.15
-33.49
-34.02
-30.89
-23.86
-12.82
2.41
21.85
45.11
71.31
99.36
128.12
156.14
180.32
196.96
203.13
197.52
180.63
154.43
121.89
86.14
49.69
12.66
-25.48
-64.41
-102.48
-137.49
-167.43
-191.17
-208.34
-211.31
-195.70
-164.17
-125.45
-88.54
-58.08
-34.35
-15.58
0.36
14.97
27.54
36.69
42.09
45.12
46.96
48.05
47.75
44.58
37.04
23.79
4.35
-17.26
-35.83
-47.55
-51.49
-48.98
-42.24
-33.03
-22.57
-11.92
-1.82
6.75
12.94
16.70
18.97
21.30
25.01
31.27
39.51
49.29
60.15
71.58
82.67
91.90
97.44
95.68
87.19
73.30
56.13
37.67
19.43
2.50
-12.10
-23.16
-29.53
-30.00
-25.07
-16.49
-7.09
0.23
3.32
1.52
-4.09
-11.32
-17.32
-20.66
-21.43
-21.14
-21.76
-24.72
-30.23
-37.22
-44.67
-51.10
-56.02
-59.63
-62.67
-65.92
-69.99
-74.97
-79.26
-81.82
-80.81
-75.06
-64.60
-50.75
-35.00
-18.04
0.78
23.24
50.21
80.54
110.51
135.03
149.61
152.38
144.60
128.48
108.97
88.76
68.61
47.90
26.06
3.48
-18.21
-36.95
-51.05
-59.56
-63.48
-63.64
-60.87
-55.47
-47.15
-35.66
-21.39
-5.97
8.10
17.73
21.02
17.96
10.54
1.77
-5.69
-10.64
-13.47
-15.25
-17.02
-18.83
-20.02
-19.73
-17.67
-14.26
-10.33
-6.49
-2.67
1.56
6.93
13.78
21.87
30.26
37.64
42.77
44.98
44.40
41.83
38.41
34.97
31.81
28.57
24.50
18.76
10.73
0.09
-13.38
-29.42
-47.58
-67.13
-87.05
-105.91
-121.95
-133.25
-138.07
-135.15
-123.86
-104.36
-77.58
-45.06
-8.87
28.56
64.59
96.62
122.36
140.21
149.41
150.06
142.97
129.37
110.66
88.21
63.35
37.32
11.36
-13.35
-35.78
-55.11
-70.72
-82.16
-89.14
-91.46
-88.97
-81.58
-69.41
-52.95
-33.23
-11.75
9.59
28.84
44.33
54.96
60.35
60.78
57.03
50.20
41.50
32.16
23.24
15.49
9.25
4.47
0.71
-2.63
-6.18
-10.39
-15.51
-21.53
-28.30
-35.62
-43.30
-51.12
-58.81
-65.96
-72.09
-76.68
-79.32
-79.73
-77.86
-73.76
-67.59
-59.53
-49.85
-38.96
-27.42
-15.82
-4.68
5.66
15.07
23.54
31.11
37.74
43.37
47.88
51.24
53.51
54.88
55.59
55.84
55.75
55.29
54.39
52.94
50.88
48.25
45.18
41.85
38.43
35.01
31.57
28.06
24.44
20.67
16.85
13.12
9.67
6.66
4.13
2.02
0.19
-1.51
-3.24
-5.03
-6.88
-8.75
-10.62
-12.48
-14.30
-16.03
-17.59
-18.92
-19.91
-20.53
-20.74
-20.49
-19.75
-18.46
-16.61
-14.20
-11.33
-8.14
-4.84
-1.67
1.13
3.42
5.10
6.21
6.85
7.16
7.23
7.16
6.98
6.76
6.52
6.32
6.19
6.11
6.01
5.77
5.29
4.55
3.60
2.55
1.51
0.56
-0.25
-0.93
-1.45
-1.82
-2.01
-2.04
-1.99
-2.00
-2.16
-2.52
-3.05
-3.65
-4.22
-4.72
-5.13
-5.41
-5.52
-5.34
-4.80
-3.84
-2.54
-1.05
0.43
1.75
2.82
3.62
4.17
4.50
4.61
4.52
4.27
3.91
3.51
3.14
2.86
2.70
2.66
2.71
2.78
2.77
2.62
2.29
1.85
1.43
1.14
1.03
1.00
0.91
0.62
0.06
-0.68
-1.46
-2.14
-2.68
-3.22
-3.90
-4.83
-6.01
-7.26
-8.38
-9.21
-9.68
-9.86
-9.82
-9.62
-9.18
-8.40
-7.22
-5.67
-3.88
-2.06
-0.43
0.93
2.01
2.93
3.80
4.68
5.52
6.16
6.48
6.39
5.97
5.43
4.99
4.81
4.93
5.23
5.59
5.89
6.10
6.26
6.37
6.38
6.21
5.74
4.93
3.77
2.34
0.73
-0.91
-2.45
-3.78
-4.85
-5.66
-6.26
-6.77
-7.24
-7.75
-8.29
-8.83
-9.28
-9.51
-9.35
-8.64
-7.33
-5.54
-3.50
-1.53
0.15
1.48
2.55
3.50
4.40
5.23
5.88
6.25
6.30
6.10
5.82
5.60
5.52
5.59
5.72
5.83
5.81
5.59
5.13
4.48
3.74
3.06
2.55
2.26
2.11
1.96
1.65
1.11
0.38
-0.37
-1.01
-1.49
-1.88
-2.31
-2.87
-3.55
-4.28
-4.99
-5.67
-6.39
-7.20
-8.09
-8.91
-9.43
-9.44
-8.83
-7.65
-6.08
-4.34
-2.64
-1.15
0.07
1.02
1.72
2.23
2.63
2.95
3.21
3.40
3.49
3.46
3.31
3.05
2.73
2.38
2.06
1.76
1.46
1.14
0.79
0.38
-0.16
-0.89
-1.84
-2.94
-4.03
-4.91
-5.39
-5.47
-5.23
-4.85
-4.41
-3.93
-3.28
-2.31
-0.94
0.81
2.86
5.14
7.69
10.60
14.03
18.04
22.62
27.59
32.67
37.46
41.49
44.39
45.89
45.95
44.75
42.66
40.06
37.22
34.23
31.00
27.41
23.33
18.72
13.65
8.36
3.22
-1.27
-4.51
-6.05
-5.73
-3.92
-1.47
0.37
0.32
-2.69
-9.17
-19.06
-31.72
-46.16
-61.21
-75.63
-88.29
-98.24
-104.80
-107.60
-106.60
-102.10
-94.68
-85.07
-74.04
-62.32
-50.52
-39.16
-28.63
-19.26
-11.28
-4.75
0.39
4.35
7.44
10.00
12.34
14.67
17.11
19.71
22.45
25.34
28.32
31.26
33.91
35.90
36.85
36.49
34.77
31.94
28.39
24.50
20.56
16.71
13.00
9.58
6.65
4.50
3.32
3.13
3.69
4.70
5.81
6.79
7.54
8.01
8.16
7.95
7.30
6.15
4.51
2.47
0.16
-2.28
-4.70
-6.98
-9.04
-10.78
-12.17
-13.18
-13.82
-14.11
-14.04
-13.53
-12.54
-11.04
-9.12
-6.97
-4.84
-2.98
-1.55
-0.66
-0.40
-0.89
-2.26
-4.58
-7.76
-11.52
-15.40
-18.99
-21.93
-24.03
-25.09
-24.81
-22.80
-18.69
-12.44
-4.44
4.48
13.39
21.56
28.67
34.81
40.20
44.90
48.65
51.00
51.53
50.15
47.14
43.03
38.32
33.33
28.13
22.64
16.81
10.78
4.87
-0.47
-4.80
-7.80
-9.33
-9.43
-8.27
-6.12
-3.30
-0.07
3.35
6.76
9.94
12.67
14.73
15.98
16.42
16.14
15.32
14.12
12.70
11.13
9.43
7.59
5.59
3.45
1.22
-0.99
-3.00
-4.63
-5.76
-6.35
-6.49
-6.34
-6.07
-5.86
-5.79
-5.84
-5.93
-5.96
-5.87
-5.65
-5.33
-4.97
-4.69
-4.61
-4.73
-4.97
-5.17
-5.13
-4.67
-3.64
-1.93
0.27
2.69
5.13
7.59
10.16
12.96
16.08
19.60
23.55
27.49
30.88
33.36
34.98
36.00
36.63
36.97
37.03
36.78
35.60
32.93
28.75
23.69
18.49
13.50
8.47
2.77
-4.26
-13.83
-26.75
-42.89
-61.02
-79.52
-96.95
-112.32
-124.90
-129.31
-121.64
-102.27
-76.52
-51.04
-30.19
-15.39
-6.11
-0.89
1.90
2.85
2.22
0.44
-1.51
-2.60
-2.22
-0.32
2.72
6.31
9.25
10.61
10.18
8.66
7.13
6.36
6.61
7.74
9.37
10.77
11.34
10.95
10.00
9.11
8.75
9.14
10.33
12.23
14.52
16.80
18.81
20.40
21.73
22.61
22.79
22.05
20.26
17.36
13.49
8.91
4.03
-0.70
-4.82
-8.06
-10.24
-11.29
-11.24
-10.15
-8.16
-5.39
-1.91
2.25
6.92
11.82
16.62
20.98
24.63
27.38
29.22
29.42
28.50
26.77
24.31
21.14
17.27
