1604840929.00
64.000000
-0.00
-0.00
-0.00
-0.00
-0.00
-0.00
-0.00
-0.00
-0.00
-0.00
0.00
0.01
0.01
-0.00
-0.03
-0.05
-0.05
0.00
0.13
0.36
0.66
1.01
1.37
1.72
2.06
2.40
2.79
3.24
3.80
4.42
5.06
5.66
6.20
6.68
7.15
7.68
8.31
9.14
10.09
11.04
11.88
12.57
13.14
13.76
14.65
15.96
17.91
20.31
22.90
25.40
27.62
29.63
31.72
34.29
37.65
42.20
47.62
53.42
59.04
64.12
68.72
73.26
78.40
84.64
92.54
101.62
111.12
120.19
128.25
135.27
141.81
149.11
155.85
164.32
175.22
188.76
203.81
217.46
225.22
222.25
205.00
172.52
127.30
73.42
15.53
-42.96
-100.51
-157.14
-213.38
-269.35
-324.33
-376.67
-424.96
-467.91
-504.55
-534.01
-555.35
-567.53
-569.43
-560.22
-539.37
-507.38
-465.54
-415.92
-361.09
-303.73
-246.28
-190.78
-138.95
-92.15
-51.45
-16.97
12.55
39.80
68.14
100.18
136.49
175.01
211.82
242.64
264.54
276.76
280.47
277.69
270.25
259.32
245.58
229.79
213.02
196.56
181.48
168.17
156.29
145.03
133.53
121.30
108.42
95.45
83.24
72.50
63.58
56.28
49.96
43.89
37.52
30.90
24.38
18.55
13.93
10.68
8.55
6.97
5.39
3.49
1.37
-0.67
-2.25
-3.16
-3.47
-3.48
-3.54
-3.89
-4.56
-5.43
-6.28
-6.94
-7.32
-7.44
-7.34
-7.11
-6.82
-6.56
-6.39
-6.36
-6.47
-6.66
-6.72
-6.44
-5.64
-4.32
-2.71
-1.26
-0.42
-0.44
-1.17
-2.23
-3.14
-3.58
-3.61
-3.52
-3.65
-4.14
-4.84
-5.38
-5.40
-4.77
-3.66
-2.44
-1.47
-0.97
-0.85
-0.85
-0.69
-0.21
0.52
1.27
1.74
1.74
1.28
0.56
-0.16
-0.65
-0.83
-0.74
-0.49
-0.18
0.09
0.32
0.51
0.70
0.92
1.19
1.55
1.98
2.48
2.99
3.49
3.90
4.22
4.46
4.67
4.88
5.09
5.24
5.21
4.88
4.14
3.01
1.50
-0.28
-2.14
-3.87
-5.29
-6.27
-6.76
-6.79
-6.51
-6.09
-5.67
-5.32
-5.03
-4.77
-4.49
-4.21
-3.99
-3.89
-3.91
-3.99
-4.01
-3.90
-3.68
-3.44
-3.26
-3.19
-3.20
-3.20
-3.10
-2.90
-2.64
-2.38
-2.16
-1.99
-1.87
-1.81
-1.82
-1.89
-2.00
-2.08
-2.11
-2.12
-2.14
-2.23
-2.39
-2.57
-2.67
-2.67
-2.56
-2.41
-2.26
-2.08
-1.86
-1.50
-0.98
-0.29
0.51
1.31
2.02
2.62
3.11
3.57
4.04
4.44
4.71
4.75
4.52
4.08
3.58
3.20
3.08
3.24
3.55
3.82
3.91
3.74
3.40
2.99
2.63
2.36
2.15
1.97
1.79
1.63
1.49
1.34
1.09
0.66
-0.01
-0.86
-1.73
-2.47
-3.00
-3.34
-3.63
-4.03
-4.63
-5.42
-6.30
-7.10
-7.66
-7.87
-7.67
-7.07
-6.10
-4.87
-3.43
-1.92
-0.42
0.98
2.21
3.25
4.09
4.73
5.16
5.35
5.29
5.04
4.70
4.42
4.30
4.36
4.51
4.61
4.55
4.29
3.92
3.51
3.13
2.78
2.39
1.92
1.41
0.93
0.60
0.42
0.32
0.14
-0.24
-0.84
-1.52
-2.11
-2.47
-2.62
-2.70
-2.94
-3.51
-4.44
-5.59
-6.75
-7.68
-8.20
-8.22
-7.75
-6.81
-5.50
-3.94
-2.29
-0.71
0.64
1.68
2.41
2.85
3.09
3.23
3.33
3.43
3.54
3.60
3.59
3.50
3.37
3.23
3.10
2.98
2.79
2.47
2.01
1.46
0.95
0.59
0.41
0.39
0.43
0.40
0.21
-0.17
-0.71
-1.32
-1.91
-2.41
-2.81
-3.18
-3.57
-4.06
-4.63
-5.23
-5.75
-6.13
-6.31
-6.26
-5.97
-5.42
-4.62
-3.62
-2.51
-1.39
-0.30
0.74
1.74
2.68
3.53
4.21
4.65
4.86
4.87
4.78
4.65
4.48
4.26
3.96
3.61
3.29
3.11
3.08
3.19
3.32
3.34
3.18
2.80
2.25
1.61
0.99
0.44
-0.03
-0.45
-0.82
-1.14
-1.41
-1.62
-1.80
-2.05
-2.47
-3.11
-3.96
-4.92
-5.85
-6.62
-7.18
-7.54
-7.75
-7.80
-7.62
-7.11
-6.17
-4.84
-3.29
-1.74
-0.44
0.51
1.20
1.82
2.56
3.51
4.56
5.49
6.08
6.21
5.96
5.55
5.19
5.00
4.93
4.80
4.45
3.83
3.08
2.42
2.05
2.03
2.23
2.43
2.38
1.96
1.21
0.27
-0.67
-1.47
-2.08
-2.50
-2.78
-2.99
-3.19
-3.44
-3.75
-4.14
-4.63
-5.23
-5.99
-6.89
-7.86
-8.76
-9.38
-9.53
-9.15
-8.29
-7.09
-5.74
-4.37
-3.00
-1.61
-0.16
1.27
2.54
3.44
3.87
3.86
3.61
3.40
3.43
3.75
4.22
4.65
4.90
4.93
4.86
4.84
4.91
5.02
5.01
4.71
4.07
3.20
2.32
1.69
1.46
1.63
2.03
2.39
2.47
2.13
1.41
0.44
-0.59
-1.55
-2.39
-3.14
-3.81
-4.45
-5.06
-5.62
-6.13
-6.64
-7.15
-7.66
-8.08
-8.26
-8.07
-7.46
-6.48
-5.27
-3.99
-2.72
-1.47
-0.17
1.23
2.68
4.04
5.12
5.80
6.04
5.96
5.72
5.47
5.31
5.31
5.45
5.71
5.99
6.20
6.19
5.92
5.43
4.87
4.41
4.14
4.00
3.82
3.40
2.69
1.78
0.87
0.16
-0.31
-0.65
-1.01
-1.52
-2.16
-2.79
-3.31
-3.71
-4.11
-4.71
-5.62
-6.77
-7.95
-8.88
-9.33
-9.19
-8.50
-7.39
-6.03
-4.55
-3.07
-1.65
-0.32
0.90
2.03
3.06
3.99
4.79
5.43
5.91
6.26
6.52
6.68
6.73
6.62
6.33
5.91
5.47
5.11
4.88
4.74
4.57
4.26
3.78
3.19
2.63
2.25
2.09
2.06
2.01
1.73
1.14
0.26
-0.79
-1.81
-2.66
-3.26
-3.65
-3.95
-4.27
-4.69
-5.20
-5.78
-6.34
-6.86
-7.29
-7.59
-7.69
-7.49
-6.90
-5.90
-4.55
-2.98
-1.37
0.12
1.43
2.58
3.62
4.59
5.42
6.03
6.28
6.14
5.67
5.06
4.53
4.22
4.20
4.38
4.64
4.83
4.88
4.76
4.53
4.25
3.97
3.71
3.44
3.12
2.68
2.10
1.39
0.61
-0.17
-0.89
-1.55
-2.14
-2.67
-3.16
-3.60
-4.02
-4.48
-5.07
-5.83
-6.76
-7.77
-8.67
-9.27
-9.39
-8.91
-7.86
-6.37
-4.67
-2.97
-1.43
-0.09
1.08
2.09
2.95
3.63
4.07
4.31
4.47
4.69
5.08
5.63
6.19
6.55
6.57
6.22
5.64
5.01
4.49
4.12
3.83
3.52
3.11
2.62
2.16
1.85
1.75
1.81
1.87
1.72
1.23
0.39
-0.66
-1.72
-2.61
-3.24
-3.65
-3.95
-4.25
-4.64
-5.13
-5.70
-6.35
-7.05
-7.76
-8.38
-8.77
-8.74
-8.19
-7.08
-5.55
-3.80
-2.08
-0.56
0.64
1.56
2.28
2.97
3.72
4.54
5.32
5.91
6.14
5.96
5.46
4.83
4.30
4.00
3.96
4.09
4.29
4.46
4.58
4.64
4.62
4.44
4.04
3.41
2.65
1.92
1.39
1.12
1.05
1.01
0.81
0.36
-0.30
-1.06
-1.76
-2.29
-2.67
-3.00
-3.41
-4.01
-4.80
-5.69
-6.53
-7.16
-7.46
-7.37
-6.88
-6.07
-5.02
-3.85
-2.66
-1.51
-0.46
0.49
1.32
2.02
2.58
3.02
3.36
3.66
3.98
4.39
4.87
5.35
5.71
5.84
5.69
5.30
4.79
4.31
3.98
3.82
3.76
3.64
3.37
2.94
2.40
1.88
1.43
1.04
0.61
0.06
-0.65
-1.47
-2.29
-3.03
-3.65
-4.18
-4.69
-5.24
-5.80
-6.37
-6.91
-7.47
-8.10
-8.84
-9.63
-10.33
-10.71
-10.58
-9.84
-8.56
-6.94
-5.22
-3.59
-2.17
-0.98
-0.02
0.72
1.20
1.39
1.32
1.04
0.70
0.41
0.28
0.31
0.45
0.57
0.57
0.38
0.03
-0.42
-0.86
-1.26
-1.67
-2.18
-2.86
-3.73
-4.69
-5.63
-6.47
-7.23
-7.97
-8.79
-9.71
-10.70
-11.67
-12.58
-13.36
-13.97
-14.32
-14.28
-13.75
-12.69
-11.20
-9.50
-7.86
-6.55
-5.77
-5.57
-5.84
-6.28
-6.51
-6.19
-5.11
-3.30
-0.98
1.54
3.94
5.99
7.60
8.81
9.71
10.43
11.11
11.85
12.65
13.46
14.15
14.60
14.76
14.68
14.47
14.22
14.00
13.84
13.81
13.96
14.32
14.85
15.41
15.80
15.90
15.71
15.37
15.08
14.92
14.82
14.52
13.70
12.10
9.63
6.40
2.68
-1.18
-4.83
-7.95
-10.33
-11.87
-12.65
-12.81
-12.57
-12.07
-11.37
-10.44
-9.24
-7.77
-6.14
-4.50
-2.99
-1.67
-0.50
0.56
1.55
2.42
3.07
3.39
3.40
3.22
3.05
3.07
3.35
3.81
4.29
4.59
4.57
4.21
3.59
2.87
2.18
1.66
1.35
1.20
1.08
0.83
0.33
-0.47
-1.47
-2.53
-3.46
-4.17
-4.67
-5.06
-5.47
-6.01
-6.72
-7.58
-8.47
-9.31
-9.95
-10.28
-10.18
-9.58
-8.49
-7.01
-5.31
-3.59
-1.98
-0.52
0.83
2.15
3.50
4.83
6.04
7.04
7.77
8.25
8.54
8.72
8.83
8.91
8.99
9.10
9.26
9.41
9.47
9.28
8.74
7.81
6.58
5.17
3.74
2.42
1.26
0.30
-0.46
-1.03
-1.47
-1.83
-2.24
-2.77
-3.49
-4.39
-5.42
-6.48
-7.53
-8.53
-9.42
-10.12
-10.49
-10.37
-9.65
-8.34
-6.59
-4.65
-2.76
-1.11
0.29
1.49
2.61
3.73
4.85
5.90
6.75
7.31
7.57
7.60
7.52
7.43
7.38
7.35
7.27
7.04
6.59
5.92
5.06
4.07
3.04
2.07
1.21
0.49
-0.12
-0.66
-1.18
-1.71
-2.26
-2.82
-3.36
-3.87
-4.33
-4.78
-5.24
-5.81
-6.52
-7.42
-8.44
-9.48
-10.40
-11.04
-11.29
-11.06
-10.31
-9.07
-7.45
-5.62
-3.80
-2.18
-0.82
0.32
1.40
2.54
3.81
5.14
6.41
7.49
8.31
8.85
9.14
9.25
9.21
9.05
8.81
8.53
8.25
7.97
7.64
7.21
6.60
5.78
4.81
3.79
2.82
2.03
1.47
1.11
0.86
0.59
0.18
-0.43
-1.21
-2.07
-2.89
-3.63
-4.31
-5.01
-5.86
-6.95
-8.24
-9.58
-10.74
-11.45
-11.52
-10.91
-9.69
-8.08
-6.30
-4.52
-2.83
-1.22
0.36
1.94
3.48
4.95
6.26
7.38
8.31
9.05
9.60
9.93
10.03
9.94
9.68
9.32
8.91
8.48
8.03
7.60
7.18
6.77
6.35
5.88
5.32
4.69
3.98
3.25
2.50
1.73
0.88
-0.06
-1.06
-2.05
-2.89
-3.44
-3.62
-3.48
-3.19
-3.00
-3.17
-3.86
-5.07
-6.61
-8.18
-9.45
-10.18
-10.23
-9.65
-8.55
-7.11
-5.49
-3.81
-2.16
-0.61
0.79
1.99
2.94
3.63
4.09
4.39
4.63
4.89
5.17
5.43
5.58
5.52
5.20
4.61
3.77
2.73
1.54
0.27
-1.01
-2.21
-3.25
-4.12
-4.87
-5.63
-6.51
-7.53
-8.67
-9.84
-11.00
-12.16
-13.41
-14.80
-16.31
-17.85
-19.28
-20.54
-21.72
-23.01
-24.64
-26.77
-29.43
-32.48
-35.61
-38.40
-40.38
-41.09
-40.18
-37.36
-32.44
-25.29
-15.90
-4.53
8.25
21.50
34.00
44.56
52.24
56.60
57.80
56.45
53.43
49.64
45.76
42.20
39.05
36.24
33.67
31.39
29.61
28.60
28.60
29.68
31.77
34.67
38.04
41.47
44.39
46.14
46.03
43.60
38.77
31.88
23.64
14.88
6.35
-1.46
-8.33
-14.33
-19.74
-24.94
-30.32
-36.18
-42.68
-49.79
-57.34
-65.09
-72.66
-79.56
-85.21
-89.04
-90.64
-89.84
-86.61
-80.94
-72.72
-61.88
-48.77
-34.35
-20.19
-7.99
1.07
6.86
10.26
12.75
15.69
19.83
25.23
31.51
38.15
44.65
50.42
54.69
56.60
55.53
51.47
45.19
37.97
31.21
25.85
22.16
19.83
18.22
16.68
14.70
11.96
8.29
3.71
-1.51
-6.75
-11.18
-14.03
-14.88
-13.95
-12.04
-10.22
-9.42
-10.05
-11.89
-14.31
-16.55
-18.12
-18.89
-19.03
-18.77
-18.25
-17.39
-16.06
-14.17
-11.83
-9.44
-7.48
-6.43
-6.52
-7.68
-9.53
-11.62
-13.58
-15.29
-16.85
-18.51
-20.45
-22.75
-25.37
-28.20
-31.23
-34.50
-38.00
-41.53
-44.75
-47.26
-48.89
-49.76
-50.26
-50.64
-50.76
-49.98
-47.40
-42.39
-35.02
-26.23
-17.50
-10.28
-5.43
-3.00
-2.28
-2.26
-2.03
-1.02
0.92
3.67
6.90
10.29
13.51
16.35
18.66
20.44
21.82
23.00
24.25
25.85
28.04
30.93
34.45
38.29
41.98
45.06
47.17
48.25
48.50
48.27
47.84
47.35
46.68
45.54
43.61
40.69
36.75
31.96
26.63
21.09
15.62
10.47
5.96
2.47
0.51
0.49
2.57
6.47
11.51
16.75
21.35
24.69
26.44
26.46
24.72
21.31
16.54
11.05
5.69
1.26
-1.80
-3.59
-4.62
-5.52
-6.68
-8.11
-9.44
-10.20
-10.01
-8.85
-6.96
-4.84
-2.99
-1.83
-1.57
-2.18
-3.43
-4.97
-6.51
-7.84
-8.87
-9.63
-10.16
-10.42
-10.29
-9.57
-8.01
-5.45
-1.91
2.43
7.20
11.90
15.99
18.97
20.46
20.29
18.57
15.62
11.98
8.19
4.67
1.63
-0.93
-3.15
-5.16
-6.97
-8.52
-9.69
-10.39
-10.58
-10.21
-9.28
-7.78
-5.80
-3.55
-1.35
0.48
1.77
2.60
3.24
4.05
5.23
6.75
8.32
9.54
10.10
9.89
9.03
7.77
6.40
5.14
4.12
3.38
2.92
2.72
2.76
2.99
3.36
3.79
4.17
4.39
4.37
4.10
3.62
3.00
2.29
1.47
0.54
-0.47
-1.41
-2.04
-2.15
-1.65
-0.68
0.46
1.45
2.06
2.31
2.33
2.29
2.27
2.18
1.90
1.34
0.53
-0.36
-1.12
-1.56
-1.61
-1.23
-0.46
0.70
2.21
3.99
5.88
7.58
8.75
9.12
8.63
7.49
6.09
4.94
4.39
4.58
5.41
6.63
7.97
9.21
10.20
10.87
11.18
11.14
10.84
10.42
10.01
9.71
9.47
9.14
8.49
7.38
5.71
3.51
0.85
-2.13
-5.23
-8.20
-10.79
-12.73
-13.88
-14.22
-13.89
-13.11
-12.17
-11.31
-10.64
-10.17
-9.79
-9.38
-8.81
-8.08
-7.31
-6.67
-6.35
-6.41
-6.76
-7.19
-7.49
-7.54
-7.42
-7.35
-7.64
-8.56
-10.25
-12.66
-15.48
-18.18
-20.07
-20.43
-18.70
-14.75
-8.92
-2.01
4.93
10.96
15.48
18.37
19.91
20.58
20.82
20.92
20.98
20.97
20.86
20.68
20.53
20.45
20.44
20.32
19.88
18.91
17.28
15.05
12.36
9.44
6.52
3.84
1.62
0.02
-0.90
-1.25
-1.31
-1.43
-1.92
-2.93
-4.47
-6.44
-8.74
-11.35
-14.23
-17.32
-20.41
-23.24
-25.58
-27.30
-28.48
-29.21
-29.52
-29.34
-28.57
-27.21
-25.42
-23.50
-21.70
-20.07
-18.46
-16.69
-14.74
-12.80
-11.21
-10.26
-9.92
-9.86
-9.66
-8.99
-7.87
-6.57
-5.40
-4.50
-3.63
-2.31
-0.03
3.50
8.16
13.36
18.20
21.78
23.47
23.12
21.11
18.17
15.13
12.61
10.91
9.97
9.51
9.24
8.98
8.72
8.50
8.35
8.19
7.90
7.33
6.42
5.25
3.96
2.76
1.78
1.11
0.75
0.63
0.74
1.04
1.48
2.02
2.57
3.05
3.44
3.79
4.18
4.64
5.16
5.62
5.88
5.87
5.56
5.00
4.22
3.18
1.85
0.28
-1.42
-3.02
-4.34
-5.32
-6.04
-6.65
-7.19
-7.57
-7.60
-7.08
-5.96
-4.37
-2.58
-0.86
0.56
1.55
2.08
2.18
1.97
1.65
1.46
1.65
2.37
3.56
4.98
6.21
6.82
6.50
5.19
3.06
0.42
-2.41
-5.27
-8.13
-11.06
-14.09
-17.13
-19.96
-22.33
-24.05
-24.94
-24.87
-23.68
-21.24
-17.56
-12.85
-7.51
-2.03
3.14
7.76
11.75
15.18
18.19
20.92
23.51
26.07
28.59
30.89
32.65
33.48
33.11
31.58
29.28
26.79
24.72
23.41
22.87
22.75
22.57
21.88
20.42
18.11
15.07
11.52
7.79
4.25
1.34
-0.53
-1.08
-0.20
1.90
4.70
7.37
9.03
8.94
6.82
2.90
-2.16
-7.55
-12.60
-16.98
-20.62
-23.56
-25.77
-27.04
-27.17
-26.10
-24.09
-21.74
-19.78
-18.75
-18.82
-19.75
-21.03
-22.12
-22.68
-22.76
-22.81
-23.52
-25.56
-29.41
-35.16
-42.23
-49.32
-54.61
-56.32
-53.43
-46.13
-35.46
-23.12
-10.80
0.46
10.49
19.73
28.69
37.52
45.91
53.97
61.63
68.51
73.76
76.33
75.48
71.17
64.07
55.46
47.78
43.08
42.26
45.02
50.37
57.28
64.91
72.48
79.19
85.62
92.32
99.45
106.59
113.24
119.24
124.68
129.49
125.15
106.16
72.25
29.26
-14.41
-52.03
-80.09
-97.88
-106.69
-109.54
-108.21
-103.64
-96.68
-88.49
-80.28
-73.03
-67.46
-64.09
-62.68
-61.92
-60.49
-57.66
-53.57
-48.94
-44.54
-40.93
-38.39
-36.89
-35.60
-33.68
-30.73
-26.99
-23.05
-19.51
-16.77
-15.04
-14.32
-14.13
-13.92
-13.29
-12.13
-10.57
-8.87
-7.30
-6.12
-5.49
-5.32
-5.41
-5.55
-5.62
-5.59
-5.49
-5.31
-5.03
-4.59
-3.94
-3.04
-1.94
-0.75
0.40
1.37
2.12
2.69
3.16
3.58
3.96
4.27
4.45
4.44
4.28
4.01
3.73
3.49
3.33
3.28
3.33
3.46
3.60
3.67
3.59
3.32
2.86
2.28
1.65
1.04
0.49
0.04
-0.28
-0.46
-0.56
-0.67
-0.91
-1.35
-1.97
-2.69
-3.37
-3.89
-4.21
-4.33
-4.33
-4.28
-4.28
-4.43
-4.80
-5.39
-6.11
-6.81
-7.29
-7.38
-6.98
-6.14
-5.00
-3.81
-2.80
-2.09
-1.68
-1.43
-1.17
-0.75
-0.08
0.79
1.77
2.68
3.38
3.76
3.80
3.54
3.13
2.70
2.40
2.29
2.35
2.50
2.65
2.77
2.86
2.95
3.02
3.00
2.79
2.35
1.69
0.93
0.24
-0.24
-0.47
-0.51
-0.49
-0.55
-0.74
-1.03
-1.33
-1.56
-1.71
-1.85
-2.10
-2.56
-3.24
-4.04
-4.82
-5.43
-5.82
-6.03
-6.16
-6.27
-6.32
-6.20
-5.75
-4.91
-3.71
-2.34
-1.02
0.04
0.75
1.16
1.35
1.46
1.57
1.70
1.82
1.91
1.96
1.97
1.96
1.91
1.82
1.68
1.55
1.46
1.47
1.59
1.77
1.92
1.92
1.69
1.24
0.62
-0.04
-0.65
-1.11
-1.39
-1.54
-1.62
-1.66
-1.66
-1.60
-1.47
-1.31
-1.25
-1.40
-1.84
-2.50
-3.25
-3.97
-4.60
-5.15
-5.66
-6.13
-6.46
-6.54
-6.26
-5.61
-4.73
-3.77
-2.90
-2.17
-1.57
-1.05
-0.56
-0.09
0.31
0.66
0.95
1.24
1.56
1.92
2.29
2.58
2.76
2.78
2.70
2.57
2.44
2.32
2.18
2.00
1.76
1.51
1.36
1.35
1.50
1.72
1.89
1.89
1.69
1.30
0.80
0.26
-0.30
-0.85
-1.38
-1.85
-2.16
-2.25
-2.16
-1.98
-1.89
-2.02
-2.41
-2.98
-3.61
-4.18
-4.68
-5.13
-5.58
-5.98
-6.23
-6.16
-5.66
-4.76
-3.60
-2.40
-1.35
-0.54
0.04
0.48
0.85
1.15
1.36
1.44
1.40
1.30
1.24
1.29
1.49
1.80
2.15
2.48
2.75
2.95
3.07
3.10
2.98
2.69
2.24
1.71
1.22
0.88
0.73
0.73
0.77
0.77
0.65
0.42
0.11
-0.24
-0.60
-0.96
-1.31
-1.63
-1.92
-2.19
-2.48
-2.81
-3.20
-3.66
-4.18
-4.74
-5.29
-5.82
-6.29
-6.69
-7.01
-7.22
-7.25
-7.02
-6.45
-5.53
-4.32
-2.98
-1.66
-0.48
0.51
1.31
1.92
2.33
2.53
2.57
2.58
2.73
3.15
3.81
4.58
5.22
5.55
5.51
5.17
4.66
4.13
3.66
3.27
2.95
2.71
2.53
2.39
2.28
2.16
2.01
1.84
1.64
1.39
1.05
0.56
-0.10
-0.86
-1.63
-2.27
-2.71
-2.97
-3.14
-3.35
-3.71
-4.27
-5.01
-5.91
-6.85
-7.76
-8.50
-8.97
-9.06
-8.75
-8.06
-7.07
-5.90
-4.66
-3.44
-2.27
-1.13
0.01
1.19
2.38
3.47
4.35
4.94
5.25
5.42
5.59
5.83
6.07
6.16
6.00
5.64
5.23
5.03
5.17
5.63
6.21
6.65
6.73
6.37
5.64
4.64
3.57
2.60
1.90
1.53
1.46
1.53
1.53
1.30
0.76
-0.02
-0.91
-1.73
-2.37
-2.81
-3.11
-3.39
-3.77
-4.34
-5.10
-5.96
-6.83
-7.60
-8.19
-8.55
-8.65
-8.43
-7.84
-6.84
-5.50
-3.95
-2.34
-0.81
0.58
1.83
2.96
3.95
4.75
5.30
5.58
5.65
5.65
5.71
5.90
6.21
6.52
6.72
6.74
6.55
6.25
5.93
5.67
5.51
5.41
5.31
5.16
4.93
4.63
4.26
3.83
3.31
2.71
2.05
1.39
0.78
0.25
-0.22
-0.65
-1.08
-1.54
-2.03
-2.55
-3.10
-3.69
-4.34
-5.03
-5.76
-6.50
-7.23
-7.91
-8.47
-8.86
-8.95
-8.66
-7.94
-6.82
-5.41
-3.85
-2.24
-0.64
0.93
2.43
3.82
5.00
5.85
6.35
6.53
6.52
6.49
6.58
6.83
7.16
7.45
7.54
7.35
6.94
6.46
6.05
5.84
5.82
5.88
5.87
5.69
5.33
4.84
4.32
3.83
3.40
3.00
2.58
2.07
1.44
0.64
-0.29
-1.29
-2.25
-3.10
-3.78
-4.27
-4.63
-4.92
-5.23
-5.61
-6.10
-6.73
-7.50
-8.34
-9.16
-9.78
-10.03
-9.77
-8.93
-7.57
-5.84
-4.00
-2.23
-0.66
0.68
1.87
2.98
4.04
5.00
5.79
6.35
6.66
6.79
6.80
6.77
6.74
6.70
6.67
6.65
6.68
6.77
6.88
6.92
6.75
6.31
5.60
4.73
3.86
3.16
2.70
2.48
2.42
2.40
2.34
2.18
1.88
1.42
0.79
0.03
-0.80
-1.61
-2.33
-2.92
-3.41
-3.88
-4.40
-5.03
-5.75
-6.53
-7.32
-8.04
-8.62
-8.98
-9.03
-8.68
-7.92
-6.86
-5.62
-4.33
-3.08
-1.85
-0.59
0.73
2.06
3.34
4.41
5.19
5.63
5.76
5.69
5.55
5.47
5.52
5.71
5.96
6.17
6.23
6.12
5.86
5.52
5.16
4.81
4.48
4.14
3.78
3.37
2.95
2.57
2.27
2.07
1.94
1.78
1.45
0.86
0.01
-0.98
-1.95
-2.73
-3.25
-3.54
-3.72
-3.94
-4.32
-4.92
-5.71
-6.62
-7.55
-8.37
-8.96
-9.25
-9.19
-8.78
-8.04
-7.01
-5.76
-4.37
-2.95
-1.59
-0.34
0.80
1.85
2.80
3.64
4.31
4.77
5.05
5.20
5.28
5.35
5.40
5.40
5.33
5.20
5.06
4.94
4.83
4.69
4.47
4.15
3.78
3.44
3.21
3.09
2.99
2.81
2.46
1.94
1.32
0.71
0.19
-0.24
-0.62
-1.03
-1.47
-1.94
-2.40
-2.85
-3.30
-3.82
-4.44
-5.16
-5.93
-6.71
-7.44
-8.09
-8.59
-8.84
-8.75
-8.28
-7.48
-6.46
-5.38
-4.32
-3.29
-2.24
-1.10
0.16
1.48
2.76
3.87
4.72
5.29
5.61
5.75
5.74
5.63
5.41
5.09
4.73
4.37
4.10
3.96
3.95
4.00
4.01
3.93
3.73
3.46
3.17
2.91
2.67
2.40
2.07
1.67
1.19
0.65
0.05
-0.61
-1.33
-2.08
-2.79
-3.41
-3.87
-4.15
-4.30
-4.41
-4.63
-5.08
-5.80
-6.75
-7.76
-8.60
-9.07
-9.05
-8.58
-7.74
-6.67
-5.44
-4.05
-2.51
-0.89
0.66
1.97
2.94
3.53
3.85
4.06
4.29
4.57
4.87
5.09
5.12
4.86
4.32
3.59
2.84
2.27
2.06
2.24
2.68
3.16
3.42
3.33
2.88
2.19
1.41
0.69
0.11
-0.32
-0.58
-0.71
-0.77
-0.83
-1.00
-1.30
-1.74
-2.24
-2.71
-3.08
-3.37
-3.66
-4.05
-4.62
-5.37
-6.24
-7.09
-7.80
-8.22
-8.25
-7.84
-7.00
-5.80
-4.38
-2.93
-1.65
-0.63
0.15
0.81
1.49
2.29
3.16
3.99
4.65
5.06
5.25
5.27
5.20
5.08
4.91
4.72
4.55
4.47
4.54
4.76
5.08
5.36
5.47
5.31
4.87
4.19
3.40
2.59
1.83
1.15
0.50
-0.12
-0.71
-1.19
-1.53
-1.77
-1.98
-2.30
-2.81
-3.51
-4.31
-5.12
-5.90
-6.62
-7.31
-7.91
-8.32
-8.39
-7.98
-7.03
-5.64
-3.95
-2.16
-0.49
0.92
2.01
2.78
3.29
3.64
3.89
4.10
4.28
4.45
4.60
4.73
4.84
4.91
4.92
4.87
4.77
4.66
4.58
4.52
4.46
4.31
4.01
3.53
2.93
2.29
1.71
1.26
0.93
0.67
0.37
-0.06
-0.65
-1.36
-2.10
-2.77
-3.31
-3.74
-4.16
-4.67
-5.37
-6.26
-7.27
-8.27
-9.11
-9.69
-9.91
-9.74
-9.18
-8.29
-7.15
-5.85
-4.47
-3.06
-1.62
-0.16
1.33
2.80
4.17
5.30
6.10
6.51
6.54
6.33
6.03
5.80
5.70
5.75
5.89
6.03
6.08
5.99
5.74
5.30
4.71
4.03
3.39
2.92
2.71
2.73
2.82
2.77
2.40
1.65
0.61
-0.54
-1.61
-2.49
-3.12
-3.49
-3.64
-3.66
-3.67
-3.89
-4.48
-5.50
-6.84
-8.25
-9.43
-10.10
-10.15
-9.58
-8.48
-6.98
-5.23
-3.38
-1.59
0.00
1.29
2.26
3.01
3.66
4.35
5.11
5.90
6.59
7.03
7.14
6.97
6.63
6.29
6.11
6.10
6.20
6.27
6.17
5.87
5.40
4.88
4.41
4.06
3.80
3.56
3.25
2.80
2.16
1.34
0.39
-0.64
-1.63
-2.48
-3.10
-3.45
-3.57
-3.64
-3.88
-4.48
-5.50
-6.83
-8.18
-9.25
-9.80
-9.76
-9.22
-8.30
-7.13
-5.80
-4.35
-2.86
-1.43
-0.16
0.93
1.89
2.86
3.92
5.04
6.04
6.71
6.90
6.59
5.99
5.38
5.03
5.05
5.38
5.84
6.19
6.28
6.08
5.64
5.12
4.64
4.23
3.89
3.50
2.98
2.31
1.56
0.88
0.37
0.02
-0.28
-0.71
-1.40
-2.33
-3.32
-4.12
-4.47
-4.32
-3.89
-3.51
-3.50
-3.97
-4.79
-5.69
-6.28
-6.21
-5.40
-4.10
-2.82
-2.04
-2.06
-2.88
-4.29
-5.98
-7.72
-9.42
-10.96
-11.88
-11.26
-8.09
-2.33
4.56
9.96
11.81
9.90
5.69
1.15
-2.40
-4.64
-5.93
-6.32
-5.06
-0.92
6.66
16.52
25.90
31.46
31.07
24.81
14.93
4.72
-3.04
-7.07
-7.72
-6.12
-3.63
-1.08
1.12
2.73
3.53
3.36
2.26
0.21
-2.16
-4.21
-5.51
-5.97
-5.79
-5.15
-4.58
-4.48
-5.07
-6.22
-7.59
-8.76
-9.47
-9.74
-9.85
-10.29
-11.38
-13.19
-15.40
-17.45
-18.64
-18.41
-16.47
-12.97
-8.39
-3.39
1.51
5.56
8.42
10.09
10.90
11.35
11.98
13.09
14.78
16.89
19.04
20.85
22.01
22.35
21.92
20.91
19.53
17.99
16.38
14.76
13.17
11.63
10.12
8.61
6.99
5.17
3.15
1.02
-0.98
-2.54
-3.46
-3.67
-3.25
-2.35
-1.20
-0.08
0.75
1.06
0.77
-0.05
-1.18
-2.24
-3.05
-3.78
-4.90
-6.92
-9.99
-13.78
-17.67
-21.08
-23.51
-24.78
-24.98
-24.15
-22.09
-18.49
-13.19
-6.52
0.76
8.16
15.50
22.91
30.55
38.33
45.75
52.08
56.79
58.29
55.94
50.27
42.18
31.57
17.19
-2.13
-26.05
-52.27
-77.15
-96.67
-107.72
-108.73
-99.74
-82.21
-58.87
-33.35
-9.70
8.69
20.19
25.10
25.09
22.26
18.35
14.52
11.51
9.84
9.90
11.93
15.59
19.84
23.26
24.55
22.96
18.61
12.26
5.04
-1.82
-7.27
-10.65
-11.75
-10.80
-8.44
-5.60
-3.35
-2.54
-3.51
-5.97
-9.10
-11.90
-13.50
-13.49
-11.97
-9.41
-6.37
-3.29
-0.39
2.35
4.98
7.49
9.69
11.38
12.38
12.73
12.72
12.64
12.75
13.02
13.21
12.98
12.13
10.69
8.91
7.14
5.62
4.41
3.39
2.44
1.45
0.42
-0.59
-1.55
-2.40
-3.11
-3.62
-3.85
-3.79
-3.55
-3.28
-3.15
-3.20
-3.35
-3.45
-3.38
-3.13
-2.78
-2.46
-2.30
-2.30
-2.42
-2.57
-2.70
-2.79
-2.84
-2.83
-2.72
-2.44
-1.93
-1.25
-0.49
0.19
0.71
1.06
1.31
1.57
1.88
2.24
2.55
2.73
2.73
2.57
2.27
1.91
1.53
1.19
0.93
0.77
0.70
0.67
0.60
0.48
0.30
0.14
0.06
0.09
0.20
0.33
0.43
0.43
0.31
0.01
-0.48
-1.15
-1.92
-2.71
-3.40
-3.92
-4.25
-4.47
-4.68
-4.97
-5.47
-6.18
-7.09
-8.07
-8.96
-9.53
-9.58
-9.03
-7.93
-6.51
-5.04
-3.71
-2.59
-1.55
-0.42
0.94
2.52
4.12
5.51
6.50
7.03
7.21
7.20
7.15
7.13
7.10
7.02
6.83
6.57
6.28
6.00
5.77
5.55
5.32
5.02
4.66
4.25
3.82
3.41
3.03
2.67
2.29
1.87
1.39
0.88
0.36
-0.12
-0.54
-0.92
-1.34
-1.88
-2.58
-3.42
-4.34
-5.23
-5.99
-6.60
-7.03
-7.25
-7.22
-6.87
-6.14
-5.04
-3.62
-2.01
-0.31
1.39
3.00
4.46
5.63
6.38
6.62
6.39
5.85
5.22
4.69
4.35
4.14
3.97
3.79
3.59
3.45
3.43
3.51
3.61
3.60
3.39
2.98
2.42
1.78
1.15
0.52
-0.10
-0.71
-1.27
-1.73
-2.05
-2.24
-2.38
-2.60
-2.99
-3.62
-4.45
-5.37
-6.25
-6.98
-7.50
-7.75
-7.71
-7.38
-6.75
-5.85
-4.76
-3.57
-2.38
-1.23
-0.14
0.88
1.79
2.53
3.05
3.35
3.47
3.51
3.55
3.60
3.62
3.54
3.34
3.03
2.72
2.47
2.30
2.13
1.88
1.44
0.84
0.18
-0.43
-0.92
-1.31
-1.67
-2.08
-2.53
-2.95
-3.25
-3.36
-3.29
-3.14
-2.98
-2.87
-2.85
-2.99
-3.38
-4.10
-5.16
-6.42
-7.64
-8.54
-8.89
-8.62
-7.80
-6.60
-5.18
-3.74
-2.39
-1.18
-0.13
0.83
1.77
2.72
3.66
4.48
5.03
5.20
4.99
4.53
4.02
3.65
3.51
3.59
3.80
4.01
4.16
4.21
4.19
4.08
3.89
3.60
3.21
2.76
2.31
1.97
1.78
1.69
1.57
1.27
0.66
-0.27
-1.38
-2.49
-3.38
-3.97
-4.26
-4.38
-4.48
-4.71
-5.14
-5.71
-6.31
-6.79
-7.01
-6.87
-6.35
-5.50
-4.44
-3.25
-2.03
-0.81
0.37
1.51
2.55
3.44
4.15
4.67
5.01
5.22
5.34
5.39
5.39
5.31
5.12
4.82
4.41
3.96
3.57
3.30
3.14
3.06
2.96
2.78
2.52
2.21
1.88
1.55
1.18
0.74
0.23
-0.29
-0.77
-1.13
-1.38
-1.57
-1.76
-2.01
-2.35
-2.80
-3.37
-4.09
-4.93
-5.85
-6.75
-7.48
-7.93
-8.02
-7.71
-7.04
-6.06
-4.84
-3.46
-2.02
-0.65
0.53
1.42
2.00
2.33
2.55
2.79
3.13
3.58
4.03
4.37
4.53
4.50
4.34
4.12
3.92
3.75
3.59
3.44
3.26
3.07
2.90
2.76
2.66
2.52
2.27
1.82
1.16
0.36
-0.44
-1.11
-1.55
-1.80
-1.97
-2.20
-2.60
-3.23
-4.07
-5.07
-6.16
-7.27
-8.32
-9.19
-9.77
-9.94
-9.61
-8.78
-7.49
-5.86
-4.06
-2.29
-0.71
0.58
1.57
2.35
3.07
3.82
4.64
5.45
6.10
6.52
6.70
6.71
6.69
6.71
6.75
6.72
6.55
6.18
5.65
5.04
4.41
3.79
3.18
2.55
1.91
1.27
0.66
0.12
-0.32
-0.68
-0.98
-1.27
-1.62
-2.02
-2.44
-2.86
-3.28
-3.77
-4.41
-5.28
-6.31
-7.35
-8.14
-8.46
-8.21
-7.48
-6.41
-5.21
-3.98
-2.73
-1.43
0.01
1.62
3.33
5.01
6.51
7.69
8.50
8.98
9.23
9.35
9.42
9.46
9.37
9.05
8.42
7.52
6.48
5.48
4.68
4.11
3.72
3.37
2.93
2.36
1.68
0.96
0.28
-0.32
-0.84
-1.30
-1.72
-2.14
-2.63
-3.28
-4.12
-5.15
-6.29
-7.42
-8.45
-9.36
-10.17
-10.88
-11.37
-11.51
-11.10
-10.08
-8.53
-6.60
-4.49
-2.33
-0.16
1.98
4.01
5.80
7.19
8.11
8.61
8.85
9.03
9.26
9.54
9.75
9.74
9.43
8.87
8.18
7.53
7.06
6.78
6.60
6.35
5.92
5.28
4.55
3.88
3.34
2.90
2.41
1.74
0.86
-0.10
-0.95
-1.52
-1.82
-2.01
-2.34
-3.02
-4.10
-5.46
-6.93
-8.32
-9.52
-10.46
-11.07
-11.29
-11.05
-10.33
-9.17
-7.70
-6.05
-4.37
-2.71
-1.10
0.48
2.03
3.48
4.73
5.67
6.27
6.56
6.67
6.75
6.89
7.10
7.29
7.37
7.27
6.98
6.55
6.07
5.58
5.12
4.71
4.35
4.03
3.70
3.30
2.80
2.20
1.55
0.90
0.25
-0.42
-1.11
-1.83
-2.47
-2.95
-3.20
-3.24
-3.22
-3.30
-3.62
-4.21
-4.98
-5.77
-6.38
-6.69
-6.63
-6.21
-5.46
-4.40
-3.09
-1.59
-0.02
1.48
2.77
3.77
4.47
4.94
5.24
5.42
5.46
5.36
5.12
4.82
4.57
4.47
4.54
4.73
4.92
5.01
4.89
4.54
3.96
3.24
2.46
1.73
1.12
0.66
0.31
0.03
-0.23
-0.53
-0.86
-1.24
-1.66
-2.17
-2.80
-3.59
-4.51
-5.48
-6.33
-6.95
-7.25
-7.34
-7.42
-7.73
-8.41
-9.38
-10.38
-11.05
-11.08
-10.36
-8.98
-7.20
-5.28
-3.42
-1.68
-0.04
1.57
3.16
4.59
5.68
6.22
6.18
5.71
5.12
4.76
4.83
5.27
5.82
6.17
6.16
5.84
5.46
5.31
5.51
5.95
6.37
6.44
6.02
5.18
4.18
3.32
2.77
2.53
2.38
2.10
1.54
0.72
-0.22
-1.10
-1.78
-2.24
-2.55
-2.80
-3.09
-3.47
-4.02
-4.79
-5.79
-6.93
-8.05
-8.90
-9.27
-9.05
-8.29
-7.15
-5.82
-4.47
-3.19
-1.99
-0.86
0.26
1.42
2.62
3.83
4.94
5.83
6.38
6.58
6.50
6.28
6.03
5.82
5.62
5.38
5.07
4.73
4.39
4.12
3.91
3.73
3.49
3.14
2.63
2.00
1.36
0.84
0.57
0.57
0.71
0.78
0.58
0.00
-0.88
-1.88
-2.78
-3.46
-3.96
-4.41
-4.96
-5.70
-6.61
-7.61
-8.63
-9.57
-10.35
-10.92
-11.19
-11.12
-10.67
-9.83
-8.62
-7.07
-5.23
-3.21
-1.09
0.97
2.81
4.32
5.41
6.07
6.38
6.45
6.43
6.38
6.37
6.38
6.37
6.29
6.13
5.88
5.54
5.14
4.68
4.21
3.74
3.31
2.90
2.46
1.95
1.35
0.73
0.19
-0.21
-0.44
-0.60
-0.83
-1.29
-2.01
-2.95
-3.95
-4.85
-5.55
-6.10
-6.59
-7.15
-7.86
-8.67
-9.53
-10.32
-10.94
-11.31
-11.38
-11.09
-10.39
-9.25
-7.71
-5.90
-4.01
-2.23
-0.68
0.61
1.71
2.68
3.57
4.39
5.10
5.68
6.11
6.39
6.51
6.49
6.34
6.08
5.80
5.54
5.31
5.07
4.73
4.25
3.68
3.11
2.69
2.48
2.49
2.60
2.66
2.54
2.19
1.63
0.97
0.27
-0.40
-1.03
-1.58
-2.00
-2.27
-2.43
-2.59
-2.96
-3.70
-4.87
-6.33
-7.81
-9.02
-9.75
-9.95
-9.67
-8.99
-7.96
-6.58
-4.86
-2.92
-0.97
0.77
2.15
3.14
3.89
4.58
5.31
6.10
6.82
7.34
7.57
7.57
7.42
7.27
7.19
7.22
7.30
7.37
7.36
7.21
6.87
6.36
5.73
5.08
4.46
3.90
3.35
2.79
2.20
1.60
1.06
0.55
0.05
-0.56
-1.35
-2.30
-3.33
-4.29
-5.09
-5.69
-6.16
-6.60
-7.11
-7.77
-8.61
-9.54
-10.45
-11.11
-11.32
-10.93
-9.91
-8.40
-6.63
-4.82
-3.12
-1.56
-0.08
1.38
2.81
4.16
5.30
6.13
6.63
6.83
6.82
6.70
6.55
6.45
6.43
6.50
6.65
6.80
6.86
6.74
6.43
5.96
5.43
4.93
4.48
4.05
3.58
3.01
2.31
1.56
0.84
0.23
-0.24
-0.65
-1.11
-1.73
-2.50
-3.36
-4.13
-4.71
-5.07
-5.29
-5.52
-5.92
-6.57
-7.47
-8.51
-9.56
-10.44
-10.98
-11.05
-10.55
-9.52
-8.08
-6.42
-4.72
-3.09
-1.53
-0.01
1.48
2.89
4.11
5.07
5.73
6.17
6.49
6.74
6.94
7.02
6.94
6.69
6.32
5.95
5.72
5.70
5.83
6.01
6.04
5.79
5.23
4.45
3.60
2.84
2.24
1.75
1.29
0.80
0.28
-0.22
-0.68
-1.14
-1.73
-2.58
-3.73
-5.08
-6.43
-7.60
-8.50
-9.19
-9.82
-10.55
-11.44
-12.48
-13.58
-14.63
-15.50
-16.07
-16.17
-15.65
-14.38
-12.35
-9.66
-6.52
-3.19
0.14
3.34
6.32
8.98
11.17
12.72
13.49
13.51
12.94
12.07
11.21
10.55
10.10
9.76
9.35
8.74
7.93
7.01
6.10
5.31
4.66
4.10
3.57
3.04
2.52
2.05
1.68
1.38
1.14
0.86
0.51
0.05
-0.53
-1.20
-1.88
-2.48
-2.92
-3.13
-3.13
-3.07
-3.13
-3.52
-4.35
-5.52
-6.76
-7.71
-8.05
-7.62
-6.52
-5.02
-3.42
-1.96
-0.68
0.55
1.93
3.74
6.25
9.68
14.05
18.91
23.29
25.93
25.78
22.69
17.66
12.56
9.32
8.96
11.07
14.02
15.78
14.85
10.72
3.86
-4.72
-13.97
-22.94
-30.80
-36.79
-40.24
-40.88
-38.89
-34.94
-29.98
-24.95
-20.52
-17.05
-14.56
-12.82
-11.53
-10.32
-8.88
-7.04
-4.81
-2.36
-0.05
1.72
2.60
2.38
1.14
-0.72
-2.56
-3.66
-3.44
-1.75
1.08
4.33
7.16
8.94
9.55
9.48
9.65
10.97
13.89
18.10
22.59
26.08
27.75
27.64
26.75
26.54
28.23
32.08
37.35
42.64
46.47
47.99
47.09
44.24
40.44
37.21
36.86
42.17
55.33
76.49
102.71
128.24
146.52
152.79
146.03
129.14
107.10
84.42
63.19
42.92
21.88
-1.11
-25.56
-49.62
-71.11
-88.73
-102.46
-113.21
-121.96
-129.25
-134.78
-137.65
-137.09
-132.86
-125.59
-116.73
-107.91
-100.34
-94.26
-88.93
-83.04
-75.45
-65.85
-54.94
-44.16
-34.98
-28.31
-24.12
-21.59
-19.60
-17.27
-14.31
-11.00
-7.94
-5.68
-4.49
-4.29
-4.75
-5.49
-6.25
-6.89
-7.40
-7.74
-7.90
-7.81
-7.40
-6.64
-5.58
-4.35
-3.09
-1.87
-0.67
0.47
1.45
2.24
2.83
3.18
3.36
3.41
3.50
3.89
4.56
5.27
5.91
6.33
6.40
6.04
5.22
4.07
3.01
2.08
1.11
0.14
-0.83
-1.78
-2.80
-3.97
-5.28
-6.36
-7.09
-7.29
-6.19
-2.83
3.46
12.64
23.16
31.16
36.09
39.02
39.39
37.50
33.88
28.76
22.05
13.75
4.63
-3.32
-8.15
-8.66
-4.53
3.49
13.58
23.58
31.77
37.46
41.27
43.74
44.97
45.01
44.28
43.22
42.11
41.05
39.92
39.07
38.46
37.75
36.68
35.81
35.68
36.38
37.66
39.07
40.84
42.99
45.13
42.74
33.56
18.90
2.58
-10.77
-21.19
-28.77
-33.72
-35.99
-35.92
-33.68
-29.90
-25.55
-21.69
-19.11
-17.65
-16.98
-16.91
-17.41
-17.97
-18.20
-18.12
-18.03
-18.40
-19.13
-20.05
-21.09
-22.15
-22.76
-22.57
-21.65
-20.42
-19.46
-18.95
-18.96
-19.54
-20.42
-20.93
-20.50
-19.00
-16.76
-14.39
-12.39
-11.14
-10.99
-11.72
-12.53
-12.68
-11.95
-10.64
-9.32
-8.62
-9.09
-11.34
-15.28
-19.97
-24.15
-26.71
-26.74
-23.72
-17.62
-7.20
5.55
16.64
23.49
26.40
27.14
27.36
27.91
28.68
28.99
27.81
24.83
20.78
16.82
13.81
12.13
11.55
11.44
11.05
9.89
7.89
5.72
4.04
3.01
2.27
1.32
-0.22
-2.32
-4.73
-6.88
-8.04
-7.95
-6.93
-5.70
-4.95
-5.06
-5.94
-7.22
-8.48
-9.11
-8.69
-7.21
-4.99
-2.50
-0.17
1.69
2.91
3.52
3.70
3.65
3.44
3.13
2.71
2.20
1.66
1.17
0.79
0.55
0.42
0.33
0.23
0.16
0.19
0.39
0.73
1.14
1.46
1.57
1.42
1.04
0.55
0.08
-0.23
-0.31
-0.09
0.46
1.31
2.38
3.50
4.47
5.12
5.36
5.21
4.86
4.56
4.54
4.94
5.71
6.68
7.56
8.12
8.22
7.85
7.09
6.06
4.88
3.64
2.40
1.19
0.02
-1.12
-2.24
-3.31
-4.25
-4.95
-5.27
-5.15
-4.61
-3.81
-2.98
-2.35
-2.06
-2.12
-2.42
-2.79
-3.07
-3.14
-2.95
-2.53
-1.90
-1.17
-0.44
0.17
0.51
0.51
0.18
-0.39
-1.01
-1.48
-1.66
-1.49
-1.04
-0.44
0.16
0.62
0.84
0.80
0.56
0.25
0.04
0.07
0.41
1.00
1.71
2.37
2.82
3.02
2.97
2.78
2.56
2.41
2.38
2.44
2.52
2.53
2.42
2.19
1.89
1.55
1.19
0.80
0.32
-0.24
-0.85
-1.42
-1.87
-2.15
-2.26
-2.24
-2.09
-1.81
-1.40
-0.85
-0.20
0.50
1.17
1.72
2.07
2.19
2.13
2.05
2.15
2.58
3.35
4.30
5.15
5.65
5.69
5.35
4.88
4.52
4.38
4.46
4.60
4.61
4.27
3.38
1.83
-0.34
-2.89
-5.32
-7.02
-7.45
-6.39
-4.02
-0.85
2.44
5.27
7.36
8.72
9.54
10.04
10.31
10.29
9.87
8.94
7.52
5.72
3.69
1.60
-0.42
-2.31
-4.03
-5.55
-6.85
-7.90
-8.66
-9.14
-9.32
-9.22
-8.91
-8.50
-8.11
-7.85
-7.77
-7.83
-7.95
-7.99
-7.85
-7.44
-6.79
-5.95
-5.04
-4.13
-3.32
-2.62
-2.03
-1.53
-1.05
-0.58
-0.10
0.37
0.82
1.26
1.70
2.12
2.47
2.66
2.58
2.19
1.55
0.82
0.16
-0.29
-0.55
-0.68
-0.71
-0.61
-0.21
0.61
1.89
3.47
5.10
6.50
7.52
8.20
8.68
9.07
9.46
9.82
10.08
10.21
10.20
10.08
9.83
9.45
8.88
8.14
7.27
6.33
5.39
4.46
3.49
2.46
1.38
0.30
-0.68
-1.49
-2.15
-2.74
-3.35
-4.01
-4.66
-5.13
-5.33
-5.23
-4.98
-4.80
-4.83
-5.09
-5.40
-5.51
-5.26
-4.65
-3.86
-3.16
-2.74
-2.68
-2.91
-3.28
-3.67
-4.04
-4.38
-4.69
-4.95
-5.10
-5.05
-4.70
-4.05
-3.18
-2.28
-1.56
-1.17
-1.10
-1.24
-1.41
-1.48
-1.42
-1.29
-1.18
-1.12
-1.05
-0.86
-0.49
0.06
0.67
1.19
1.49
1.61
1.63
1.71
1.91
2.17
2.37
2.37
2.14
1.78
1.47
1.36
1.49
1.76
2.01
2.10
1.99
1.73
1.39
1.03
0.63
0.14
-0.47
-1.17
-1.88
-2.49
-2.90
-3.10
-3.13
-3.08
-3.04
-3.08
-3.19
-3.34
-3.47
-3.54
-3.48
-3.26
-2.87
-2.33
-1.69
-1.01
-0.36
0.23
0.74
1.21
1.66
2.12
2.55
2.97
3.36
3.76
4.19
4.64
5.06
5.33
5.39
5.20
4.85
4.45
4.11
3.88
3.69
3.46
3.15
2.74
2.28
1.81
1.32
0.77
0.10
-0.68
-1.51
-2.29
-2.92
-3.33
-3.52
-3.55
-3.50
-3.48
-3.57
-3.81
-4.18
-4.60
-4.92
-5.05
-4.96
-4.70
-4.37
-4.06
-3.77
-3.49
-3.16
-2.76
-2.32
-1.87
-1.46
-1.07
-0.68
-0.24
0.29
0.89
1.53
2.10
2.48
2.58
2.39
2.02
1.66
1.49
1.59
1.86
2.09
2.05
1.65
0.97
0.16
-0.58
-1.17
-1.62
-1.97
-2.24
-2.42
-2.44
-2.31
-2.07
-1.77
-1.47
-1.18
-0.84
-0.47
-0.12
0.10
0.03
-0.36
-1.05
-1.90
-2.73
-3.40
-3.83
-4.01
-3.96
-3.70
-3.27
-2.74
-2.21
-1.75
-1.44
-1.24
-1.07
-0.83
-0.47
-0.02
0.42
0.74
0.90
0.94
0.98
1.12
1.42
1.80
2.16
2.38
2.44
2.37
2.24
2.13
2.05
1.99
1.91
1.81
1.68
1.48
1.14
0.61
-0.13
-0.99
-1.87
-2.66
-3.32
-3.87
-4.38
-4.86
-5.31
-5.68
-5.93
-6.06
-6.10
-6.15
-6.26
-6.51
-6.92
-7.49
-8.19
-8.95
-9.68
-10.26
-10.60
-10.60
-10.22
-9.42
-8.24
-6.79
-5.22
-3.70
-2.33
-1.18
-0.24
0.54
1.24
1.94
2.73
3.67
4.75
5.88
6.90
7.66
8.09
8.26
8.31
8.41
8.63
8.98
9.36
9.75
10.10
10.42
10.66
10.72
10.47
9.84
8.90
7.86
6.99
6.50
6.42
6.60
6.76
6.65
6.15
5.30
4.26
3.27
2.47
1.92
1.55
1.22
0.83
0.35
-0.17
-0.68
-1.14
-1.55
-1.93
-2.25
-2.46
-2.45
-2.19
-1.75
-1.28
-0.97
-0.91
-1.07
-1.27
-1.32
-1.10
-0.60
0.05
0.69
1.21
1.55
1.74
1.80
1.76
1.64
1.43
1.16
0.91
0.78
0.85
1.11
1.44
1.68
1.63
1.25
0.64
0.01
-0.45
-0.64
-0.64
-0.57
-0.57
-0.64
-0.72
-0.71
-0.56
-0.33
-0.11
0.00
0.01
-0.01
0.03
0.16
0.35
0.48
0.43
0.10
-0.50
-1.27
-2.02
-2.59
-2.88
-2.91
-2.79
-2.63
-2.52
-2.46
-2.40
-2.31
-2.18
-2.02
-1.85
-1.65
-1.36
-0.92
-0.34
0.31
0.91
1.34
1.56
1.59
1.53
1.44
1.39
1.39
1.39
1.33
1.18
0.94
0.65
0.43
0.33
0.39
0.55
0.70
0.76
0.68
0.46
0.20
-0.04
-0.20
-0.28
-0.32
-0.34
-0.38
-0.45
-0.55
-0.64
-0.72
-0.78
-0.80
-0.81
-0.81
-0.84
-0.91
-1.06
-1.30
-1.64
-2.04
-2.41
-2.65
-2.70
-2.56
-2.29
-1.96
-1.66
-1.41
-1.19
-0.97
-0.75
-0.51
-0.26
0.05
0.45
0.94
1.46
1.90
2.16
2.16
1.92
1.54
1.15
0.88
0.78
0.87
1.08
1.34
1.58
1.75
1.84
1.84
1.78
1.61
1.32
0.88
0.32
-0.26
-0.73
-0.95
-0.89
-0.61
-0.27
-0.04
-0.01
-0.17
-0.40
-0.59
-0.70
-0.77
-0.88
-1.07
-1.32
-1.55
-1.67
-1.66
-1.59
-1.56
-1.66
-1.88
-2.15
-2.37
-2.45
-2.37
-2.15
-1.85
-1.48
-1.05
-0.57
-0.05
0.48
1.00
1.49
1.91
2.22
2.35
2.22
1.85
1.30
0.76
0.39
0.29
0.47
0.82
1.18
1.44
1.55
1.51
1.39
1.23
1.07
0.94
0.84
0.76
0.69
0.59
0.48
0.37
0.31
0.27
0.24
0.17
0.02
-0.23
-0.54
-0.89
-1.23
-1.54
-1.81
-2.02
-2.17
-2.24
-2.30
-2.39
-2.58
-2.87
-3.16
-3.31
-3.21
-2.81
-2.19
-1.50
-0.88
-0.43
-0.11
0.17
0.52
1.01
1.58
2.13
2.55
2.76
2.80
2.72
2.58
2.39
2.08
1.61
0.99
0.34
-0.15
-0.34
-0.19
0.21
0.67
0.99
1.07
0.93
0.70
0.51
0.41
0.38
0.33
0.20
-0.03
-0.33
-0.61
-0.82
-0.96
-1.05
-1.14
-1.24
-1.35
-1.45
-1.54
-1.65
-1.80
-2.00
-2.23
-2.40
-2.48
-2.40
-2.16
-1.82
-1.45
-1.15
-0.97
-0.90
-0.86
-0.74
-0.45
0.05
0.69
1.33
1.82
2.07
2.07
1.90
1.70
1.60
1.69
1.96
2.31
2.58
2.64
2.44
2.02
1.53
1.13
0.90
0.86
0.90
0.92
0.82
0.62
0.35
0.09
-0.13
-0.30
-0.42
-0.53
-0.60
-0.63
-0.65
-0.68
-0.79
-1.02
-1.34
-1.69
-2.04
-2.35
-2.65
-2.94
-3.21
-3.37
-3.36
-3.16
-2.83
-2.48
-2.20
-2.02
-1.85
-1.60
-1.19
-0.63
0.02
0.70
1.35
1.96
2.48
2.85
2.98
2.84
2.44
1.89
1.39
1.09
1.05
1.22
1.46
1.62
1.65
1.56
1.47
1.45
1.51
1.57
1.50
1.24
0.81
0.30
-0.16
-0.47
-0.63
-0.66
-0.62
-0.49
-0.28
0.00
0.28
0.42
0.33
-0.04
-0.59
-1.17
-1.63
-1.94
-2.14
-2.34
-2.64
-3.01
-3.37
-3.61
-3.65
-3.48
-3.14
-2.69
-2.13
-1.48
-0.75
-0.01
0.66
1.20
1.59
1.90
2.21
2.61
3.07
3.54
3.95
4.27
4.50
4.69
4.85
4.99
5.06
5.06
4.98
4.88
4.78
4.65
4.42
4.02
3.44
2.77
2.17
1.76
1.61
1.64
1.71
1.68
1.47
1.10
0.64
0.19
-0.17
-0.38
-0.43
-0.39
-0.36
-0.51
-0.98
-1.78
-2.81
-3.85
-4.67
-5.14
-5.25
-5.12
-4.84
-4.48
-4.05
-3.56
-3.07
-2.70
-2.56
-2.70
-2.99
-3.24
-3.25
-2.97
-2.51
-2.09
-1.91
-2.05
-2.41
-2.76
-2.93
-2.82
-2.50
-2.09
-1.73
-1.46
-1.26
-1.06
-0.85
-0.69
-0.69
-0.92
-1.41
-2.09
-2.89
-3.72
-4.54
-5.36
-6.18
-7.01
-7.81
-8.51
-9.06
-9.39
-9.38
-8.98
-8.25
-7.38
-6.62
-6.13
-5.97
-6.12
-6.47
-6.76
-6.75
-6.31
-5.45
-4.23
-2.67
-0.85
1.13
3.06
5.02
7.14
9.44
11.81
14.08
16.15
17.95
19.41
20.45
21.36
22.53
24.27
26.69
29.84
33.70
38.05
42.42
44.16
41.19
33.25
22.15
10.30
-0.50
-9.21
-15.44
-19.34
-21.43
-22.22
-22.36
-22.62
-23.75
-26.18
-29.59
-33.02
-35.07
-34.35
-29.82
-21.51
-10.67
0.50
9.79
15.92
18.77
18.87
17.16
14.65
12.01
9.47
6.96
4.41
2.03
0.24
-0.41
0.58
3.51
8.33
14.48
20.88
26.20
29.27
29.42
26.73
21.98
16.61
12.16
10.38
12.62
19.39
30.13
43.11
55.67
64.70
67.48
62.54
50.36
33.31
14.90
-1.38
-13.26
-20.31
-23.64
-25.13
-26.39
-28.18
-30.46
-32.77
-34.63
-35.81
-36.24
-35.88
-34.58
-32.25
-28.94
-25.00
-21.09
-17.94
-16.06
-15.59
-16.22
-17.27
-17.96
-17.65
-16.05
-13.32
-9.93
-6.53
-3.72
-1.89
-1.12
-1.20
-1.73
-2.32
-2.72
-2.89
-2.99
-3.22
-3.69
-4.36
-5.06
-5.61
-5.90
-5.92
-5.77
-5.56
-5.33
-5.09
-4.82
-4.58
-4.45
-4.53
-4.84
-5.32
-5.84
-6.25
-6.47
-6.48
-6.35
-6.21
-6.15
-6.25
-6.52
-6.88
-7.23
-7.44
-7.39
-7.02
-6.32
-5.32
-4.10
-2.75
-1.37
-0.05
1.14
2.19
3.11
3.95
4.73
5.43
5.95
6.24
6.25
6.00
5.59
5.16
4.82
4.65
4.66
4.77
4.88
4.85
4.60
4.10
3.40
2.60
1.82
1.15
0.63
0.26
-0.00
-0.21
-0.43
-0.74
-1.17
-1.75
-2.43
-3.13
-3.75
-4.26
-4.70
-5.13
-5.60
-6.11
-6.56
-6.86
-6.95
-6.83
-6.59
-6.28
-5.92
-5.46
-4.80
-3.88
-2.74
-1.51
-0.31
0.77
1.74
2.65
3.55
4.42
5.18
5.72
5.98
5.96
5.72
5.34
4.88
4.40
3.96
3.63
3.46
3.46
3.54
3.56
3.38
2.93
2.25
1.45
0.68
0.06
-0.36
-0.62
-0.79
-0.92
-1.05
-1.17
-1.27
-1.37
-1.51
-1.75
-2.12
-2.62
-3.24
-3.99
-4.85
-5.80
-6.77
-7.63
-8.18
-8.25
-7.77
-6.79
-5.50
-4.14
-2.91
-1.88
-1.01
-0.18
0.74
1.79
2.89
3.92
4.75
5.30
5.58
5.69
5.71
5.71
5.68
5.57
5.34
5.04
4.78
4.65
4.68
4.78
4.81
4.63
4.20
3.60
2.97
2.40
1.93
1.49
1.00
0.43
-0.19
-0.77
-1.20
-1.47
-1.66
-1.91
-2.35
-3.02
-3.84
-4.67
-5.37
-5.91
-6.37
-6.87
-7.49
-8.21
-8.88
-9.32
-9.37
-8.95
-8.06
-6.80
-5.25
-3.52
-1.75
-0.07
1.41
2.64
3.56
4.19
4.52
4.55
4.35
4.01
3.73
3.66
3.85
4.24
4.63
4.82
4.68
4.24
3.62
3.01
2.52
2.20
2.01
1.85
1.65
1.33
0.91
0.41
-0.15
-0.71
-1.26
-1.77
-2.25
-2.74
-3.28
-3.90
-4.56
-5.19
-5.70
-6.04
-6.23
-6.40
-6.65
-7.04
-7.49
-7.83
-7.85
-7.45
-6.65
-5.58
-4.41
-3.22
-2.02
-0.79
0.50
1.78
2.99
4.07
5.01
5.88
6.71
7.52
8.19
8.54
8.47
7.97
7.21
6.43
5.83
5.48
5.29
5.10
4.79
4.37
3.88
3.43
3.01
2.58
2.05
1.37
0.60
-0.17
-0.85
-1.41
-1.89
-2.36
-2.85
-3.39
-3.97
-4.61
-5.32
-6.15
-7.09
-8.10
-9.11
-10.00
-10.63
-10.89
-10.68
-9.96
-8.71
-7.01
-4.96
-2.79
-0.74
0.97
2.25
3.13
3.81
4.46
5.24
6.16
7.08
7.85
8.34
8.50
8.38
8.10
7.79
7.56
7.43
7.37
7.31
7.16
6.87
6.41
5.80
5.10
4.38
3.73
3.20
2.81
2.50
2.16
1.64
0.88
-0.12
-1.21
-2.27
-3.16
-3.86
-4.45
-5.01
-5.61
-6.30
-7.06
-7.87
-8.71
-9.54
-10.31
-10.91
-11.17
-10.93
-10.10
-8.65
-6.70
-4.46
-2.16
0.01
1.92
3.58
5.00
6.24
7.29
8.17
8.84
9.30
9.55
9.56
9.33
8.89
8.34
7.81
7.42
7.23
7.18
7.15
7.00
6.65
6.10
5.42
4.72
4.07
3.51
3.02
2.58
2.13
1.62
1.04
0.42
-0.23
-0.86
-1.51
-2.18
-2.91
-3.72
-4.60
-5.54
-6.55
-7.64
-8.80
-9.96
-10.99
-11.66
-11.75
-11.11
-9.77
-7.92
-5.86
-3.87
-2.10
-0.53
0.96
2.50
4.08
5.55
6.70
7.39
7.64
7.62
7.59
7.70
8.01
8.41
8.75
8.89
8.73
8.31
7.70
7.04
6.42
5.90
5.47
5.05
4.59
4.06
3.46
2.83
2.20
1.56
0.90
0.20
-0.52
-1.20
-1.84
-2.46
-3.10
-3.77
-4.46
-5.12
-5.68
-6.20
-6.76
-7.49
-8.43
-9.48
-10.39
-10.92
-10.87
-10.17
-8.92
-7.30
-5.48
-3.55
-1.61
0.29
2.04
3.53
4.63
5.33
5.70
5.91
6.12
6.46
6.91
7.35
7.63
7.66
7.42
7.01
6.59
6.26
6.03
5.84
5.63
5.33
4.97
4.60
4.23
3.82
3.32
2.63
1.78
0.80
-0.21
-1.20
-2.13
-3.01
-3.87
-4.69
-5.44
-6.10
-6.68
-7.21
-7.73
-8.29
-8.86
-9.44
-9.94
-10.24
-10.22
-9.74
-8.74
-7.29
-5.54
-3.74
-2.05
-0.54
0.85
2.24
3.68
5.09
6.33
7.18
7.57
7.55
7.29
7.02
6.89
6.99
7.27
7.60
7.83
7.85
7.61
7.13
6.49
5.76
5.02
4.31
3.63
3.00
2.45
1.97
1.55
1.16
0.74
0.24
-0.37
-1.09
-1.93
-2.85
-3.82
-4.73
-5.50
-6.04
-6.39
-6.69
-7.14
-7.94
-9.13
-10.57
-11.98
-13.03
-13.47
-13.22
-12.36
-11.09
-9.61
-8.09
-6.65
-5.40
-4.42
-3.78
-3.51
-3.58
-3.91
-4.40
-4.98
-5.63
-6.41
-7.41
-8.71
-10.35
-12.33
-14.56
-16.96
-19.49
-22.24
-25.41
-29.31
-34.27
-40.47
-47.85
-56.03
-64.33
-71.89
-77.78
-81.19
-81.46
-78.18
-71.16
-60.55
-46.82
-30.76
-13.41
4.13
20.89
36.10
49.26
60.02
68.13
73.49
76.14
76.45
75.03
72.72
70.33
68.51
67.58
67.55
68.21
69.17
70.02
70.35
69.83
68.25
65.63
62.16
58.21
54.19
50.45
47.20
44.59
42.62
41.21
40.21
39.41
38.59
37.50
35.90
33.55
30.34
26.15
20.85
14.41
6.95
-1.16
-9.38
-17.22
-24.35
-30.52
-35.64
-39.78
-42.90
-44.84
-45.33
-44.26
-41.86
-38.73
-35.45
-32.58
-30.50
-29.20
-28.25
-26.90
-24.18
-19.14
-12.54
-5.00
2.87
10.27
15.99
18.62
17.31
12.29
4.84
-3.25
-10.16
-14.95
-17.64
-18.89
-19.37
-19.35
-18.78
-17.56
-15.82
-13.91
-12.34
-11.53
-11.54
-12.05
-12.53
-12.56
-11.95
-10.77
-9.25
-7.73
-6.54
-5.83
-5.54
-5.39
-5.10
-4.28
-2.66
-0.21
2.75
5.69
7.99
9.10
8.68
6.63
3.25
-0.74
-4.44
-6.93
-7.53
-5.90
-2.26
2.85
7.72
10.35
9.83
6.83
2.94
-0.28
-1.88
-1.68
-0.18
1.80
3.63
5.04
5.94
6.35
6.17
5.38
4.07
2.45
0.77
-0.65
-1.51
-1.74
-1.56
-1.39
-1.68
-2.53
-3.98
-5.97
-8.25
-10.45
-12.26
-13.51
-14.18
-14.35
-14.13
-13.69
-13.14
-12.55
-11.95
-11.38
-10.89
-10.55
-10.39
-10.37
-10.43
-10.47
-10.39
-10.06
-9.42
-8.50
-7.44
-6.44
-5.68
-5.26
-5.15
-5.20
-5.25
-5.21
-5.15
-5.19
-5.51
-6.16
-7.12
-8.28
-9.48
-10.41
-10.68
-9.81
-7.43
-3.54
1.39
6.43
10.57
13.12
13.99
13.74
13.25
13.33
14.37
16.30
18.73
21.21
23.47
25.44
27.19
28.75
30.05
30.90
31.09
30.49
29.06
26.94
24.30
21.36
18.34
15.44
12.86
10.80
9.44
8.88
9.11
10.01
11.31
12.71
13.91
14.70
14.95
14.64
13.85
12.75
11.52
10.32
9.23
8.28
7.36
6.33
5.10
3.62
1.98
0.31
-1.21
-2.46
-3.43
-4.15
-4.75
-5.32
-5.90
-6.48
-7.01
-7.40
-7.62
-7.66
-7.64
-7.74
-8.17
-9.06
-10.39
-11.97
-13.51
-14.71
-15.37
-15.46
-15.10
-14.49
-13.80
-13.12
-12.47
-11.83
-11.21
-10.62
-10.10
-9.66
-9.25
-8.79
-8.20
-7.46
-6.60
-5.75
-4.99
-4.41
-3.98
-3.65
-3.32
-2.99
-2.67
-2.41
-2.25
-2.16
-2.12
-2.07
-2.03
-2.07
-2.25
-2.57
-2.97
-3.37
-3.67
-3.87
-4.05
-4.28
-4.56
-4.81
-4.92
-4.78
-4.40
-3.90
-3.44
-3.12
-2.97
-2.90
-2.82
-2.67
-2.45
-2.24
-2.06
-1.91
-1.74
-1.48
-1.15
-0.82
-0.58
-0.49
-0.54
-0.65
-0.73
-0.70
-0.57
-0.38
-0.19
-0.04
0.04
0.07
0.07
0.02
-0.08
-0.26
-0.53
-0.92
-1.41
-1.97
-2.57
-3.16
-3.76
-4.40
-5.20
-6.28
-7.69
-9.41
-11.30
-13.18
-14.83
-15.99
-16.39
-15.80
-14.09
-11.30
-7.73
-3.82
-0.05
3.20
5.72
7.47
8.47
8.73
8.26
7.14
5.56
3.82
2.25
1.10
0.43
0.18
0.19
0.29
0.34
0.30
0.17
-0.02
-0.24
-0.49
-0.79
-1.17
-1.64
-2.12
-2.51
-2.72
-2.71
-2.62
-2.61
-2.87
-3.46
-4.33
-5.30
-6.22
-6.99
-7.63
-8.16
-8.65
-9.08
-9.43
-9.65
-9.70
-9.54
-9.13
-8.48
-7.63
-6.73
-5.98
-5.57
-5.59
-5.93
-6.33
-6.46
-6.06
-5.07
-3.61
-1.91
-0.22
1.28
2.60
3.84
5.18
6.81
8.78
10.98
13.16
15.02
16.35
17.12
17.53
17.87
18.42
19.26
20.30
21.31
22.05
22.35
22.18
21.57
20.62
19.40
17.96
16.34
14.62
12.87
11.14
9.49
7.91
6.36
4.80
3.21
1.66
0.28
-0.81
-1.51
-1.79
-1.74
-1.48
-1.13
-0.79
-0.51
-0.36
-0.41
-0.67
-1.13
-1.66
-2.11
-2.33
-2.28
-2.03
-1.73
-1.52
-1.44
-1.43
-1.38
-1.23
-0.98
-0.75
-0.70
-1.04
-1.95
-3.57
-5.96
-8.94
-12.10
-14.79
-16.29
-16.08
-13.97
-10.23
-5.46
-0.40
4.37
8.52
11.97
14.78
17.00
18.62
19.52
19.62
18.95
17.69
16.07
14.30
12.50
10.68
8.83
6.92
5.05
3.45
2.42
2.17
2.76
4.03
5.70
7.44
8.87
9.73
9.94
9.54
8.57
7.05
5.09
2.84
0.52
-1.89
-4.41
-6.93
-9.28
-11.38
-13.24
-14.87
-16.26
-17.31
-18.55
-20.30
-22.43
-24.50
-26.11
-27.12
-27.55
-27.50
-27.09
-27.33
-28.86
-31.47
-34.35
-36.82
-38.66
-40.02
-41.22
-42.69
-45.96
-51.89
-59.89
-68.36
-75.68
-80.93
-83.92
-84.98
-77.22
-58.27
-31.70
-4.41
18.66
36.10
48.46
56.80
62.06
64.89
64.57
60.80
54.41
47.14
40.75
36.13
33.56
32.72
32.95
32.61
30.68
27.35
23.70
20.78
19.05
18.40
18.38
18.41
17.59
15.55
12.69
9.94
8.11
7.41
7.54
7.75
7.21
5.08
1.18
-3.74
-8.25
-10.91
-10.97
-8.49
-4.31
0.30
4.10
6.23
6.14
3.56
-1.36
-7.60
-13.08
-15.09
-11.49
-2.11
10.68
22.74
29.94
30.19
24.27
15.24
6.63
0.69
-2.33
-3.59
-4.43
-5.25
-5.46
-4.08
-0.62
4.49
10.14
15.02
18.20
19.48
19.18
17.81
15.75
13.12
9.85
5.90
1.39
-3.35
-7.80
-11.50
-13.96
-15.01
-14.89
-14.06
-13.12
-12.73
-13.25
-14.74
-16.82
-18.92
-20.49
-21.11
-20.75
-19.72
-18.36
-16.87
-15.21
-13.16
-10.51
-7.26
-3.61
0.07
3.42
6.10
7.93
8.80
8.75
7.92
6.66
5.44
4.79
5.10
6.48
8.73
11.33
13.72
15.40
16.14
16.03
15.33
14.33
13.16
11.78
9.96
7.56
4.63
1.45
-1.57
-4.02
-5.64
-6.40
-6.45
-6.15
-5.95
-6.34
-7.63
-9.92
-12.95
-16.20
-19.03
-20.97
-21.91
-22.02
-21.57
-20.73
-19.38
-17.23
-13.96
-9.49
-4.03
1.86
7.49
12.15
15.32
16.72
16.41
14.84
12.74
10.87
9.72
9.40
9.71
10.29
10.75
10.92
10.89
10.87
11.01
11.22
11.26
11.11
10.85
10.58
10.25
9.84
9.29
8.59
7.76
6.85
6.38
6.75
7.88
9.29
10.35
10.67
10.26
9.46
8.91
9.87
13.30
19.32
27.09
35.22
42.34
47.42
49.98
46.87
37.12
22.83
8.24
-3.15
-10.18
-13.64
-15.02
-15.70
-16.59
-17.51
-18.06
-18.11
-17.93
-17.69
-17.68
-17.82
-17.99
-18.11
-17.87
-17.18
-16.31
-15.73
-15.73
-16.28
-17.06
-17.70
-18.02
-17.59
-16.26
-14.20
-11.83
-9.60
-7.79
-6.45
-5.46
-4.62
-3.61
-2.24
-0.58
1.12
2.56
3.55
4.07
4.23
4.15
4.00
3.89
3.85
3.85
3.84
3.78
3.65
3.48
3.33
3.27
3.34
3.52
3.82
4.20
4.70
5.45
6.59
8.19
10.17
12.31
14.28
15.83
16.86
17.37
17.50
17.39
17.11
16.66
15.96
14.92
13.48
11.56
9.06
6.01
2.54
-1.05
-4.45
-7.44
-10.02
-12.29
-14.48
-16.81
-19.28
-21.57
-23.24
-23.98
-23.86
-23.24
-22.63
-22.51
-23.33
-25.10
-27.42
-29.70
-31.43
-32.42
-32.66
-32.14
-30.88
-29.09
-26.84
-24.14
-20.96
-17.41
-13.78
-10.23
-6.78
-2.19
3.46
8.85
12.46
13.56
13.39
13.27
14.03
16.06
18.99
21.80
23.61
24.19
23.93
23.54
23.46
23.75
24.15
24.17
23.30
21.49
19.13
16.74
14.69
12.90
11.18
9.38
7.38
5.00
2.07
-1.60
-6.08
-11.19
-16.47
-21.03
-23.91
-24.36
-22.24
-17.98
-12.43
-6.57
-1.28
2.78
5.28
6.25
5.94
4.79
3.35
2.16
1.61
1.86
2.76
3.84
4.49
4.18
2.72
0.37
-2.21
-4.21
-4.95
-4.11
-1.80
1.46
4.87
7.56
8.71
7.81
4.87
0.49
-4.29
-8.32
-10.84
-11.70
-11.32
-10.40
-9.55
-9.08
-8.93
-8.88
-8.74
-8.44
-7.94
-7.15
-6.00
-4.52
-2.88
-1.45
-0.62
-0.23
-0.17
-0.31
-0.62
-0.99
-0.93
0.39
3.82
9.66
17.20
24.68
30.08
31.98
30.02
24.74
16.96
7.20
-4.26
-16.92
-29.53
-40.00
-46.07
-46.25
-40.61
-30.77
-19.14
-8.00
1.18
7.88
12.24
14.72
15.77
15.73
14.89
13.54
11.94
10.35
9.05
8.21
7.91
8.08
8.54
9.10
9.61
10.02
10.29
10.39
10.26
9.77
8.77
7.27
5.29
3.05
0.91
-0.79
-1.84
-2.24
-2.18
-1.95
-1.81
-1.92
-2.28
-2.77
-3.21
-3.41
-3.27
-2.75
-1.92
-0.94
-0.05
0.49
0.49
-0.10
-1.15
-2.35
-3.37
-3.89
-3.84
-3.40
-2.99
-3.04
-3.87
-5.53
-7.71
-9.96
-11.72
-12.60
-12.48
-11.53
-10.10
-8.63
-7.42
-6.46
-5.91
-5.67
-5.32
-4.22
-1.66
2.91
9.49
17.41
25.42
32.05
36.23
37.48
36.01
32.43
27.41
21.53
15.24
9.00
3.30
-1.38
-4.78
-7.02
-8.46
-9.48
-10.32
-10.96
-11.23
-11.04
-10.41
-9.53
-8.70
-8.18
-8.11
-8.46
-9.07
-9.71
-10.17
-10.32
-10.19
-9.95
-9.74
-9.68
-9.68
-9.55
-9.05
-8.08
-6.59
-4.70
-2.70
-0.82
0.74
1.86
2.48
2.60
2.32
1.83
1.34
1.07
1.16
1.57
2.17
2.76
3.24
3.56
3.77
3.90
3.92
3.79
3.48
3.08
2.76
2.67
2.90
3.36
3.83
4.09
4.01
3.62
3.06
2.53
2.16
1.91
1.68
1.31
0.73
0.03
-0.62
-1.04
-1.19
-1.16
-1.18
-1.44
-2.03
-2.82
-3.56
-4.06
-4.23
-4.21
-4.19
-4.36
-4.86
-5.72
-6.90
-8.26
-9.64
-10.93
-12.00
-12.71
-12.98
-12.88
-12.60
-12.30
-12.06
-11.83
-11.43
-10.70
-9.35
-7.25
-4.52
-1.50
1.44
4.01
6.06
7.50
8.35
9.00
9.82
11.00
12.46
14.02
15.51
16.79
17.79
18.56
19.56
21.30
23.98
27.47
31.42
35.45
39.14
42.03
41.58
36.39
27.09
16.07
5.76
-2.56
-8.67
-12.83
-15.49
-17.07
-17.34
-16.16
-13.70
-10.55
-7.35
-4.54
-2.39
-1.10
-0.81
-1.26
-2.08
-2.94
-3.63
-4.08
-4.32
-4.51
-4.89
-5.59
-6.42
-7.03
-7.18
-6.85
-6.24
-5.60
-5.19
-5.16
-5.49
-5.92
-6.12
-5.88
-5.15
-4.10
-3.00
-2.17
-1.88
-2.29
-3.35
-4.83
-6.40
-7.65
-8.22
-7.90
-6.77
-5.18
-3.62
-2.55
-2.18
-2.38
-2.79
-3.03
-2.87
-2.34
-1.65
-1.06
-0.77
-0.78
-0.96
-1.16
-1.25
-1.18
-0.93
-0.53
-0.08
0.27
0.32
-0.14
-1.29
-3.14
-5.37
-7.34
-8.24
-7.46
-4.97
-1.33
2.46
5.31
6.51
5.98
4.47
3.16
3.19
4.89
7.74
10.83
13.36
14.83
15.08
14.19
12.48
10.14
7.37
4.49
1.94
0.11
-0.77
-0.73
-0.08
0.61
0.93
0.43
-1.01
-3.17
-5.54
-7.63
-9.09
-9.83
-9.98
-9.86
-9.76
-9.85
-10.09
-10.30
-10.22
-9.64
-8.46
-6.76
-4.77
-2.84
-1.26
-0.14
0.51
0.81
0.91
0.96
1.09
1.40
1.88
2.48
3.08
3.53
3.70
3.51
2.99
2.25
1.37
0.25
-1.27
-3.37
-6.06
-9.04
-11.75
-13.58
-14.05
-13.02
-10.84
-8.13
-5.54
-3.55
-2.39
-1.99
-2.06
-2.14
-1.46
0.55
4.13
8.86
13.72
17.72
20.27
21.36
21.51
21.74
22.07
22.07
21.24
19.22
16.07
12.20
8.31
5.08
2.64
0.63
-1.50
-4.18
-7.51
-11.06
-14.07
-15.58
-14.75
-11.30
-5.68
1.31
8.76
15.61
20.52
21.36
16.16
5.25
-8.11
-19.87
-27.58
-31.44
-33.56
-36.24
-40.30
-44.33
-45.54
-41.74
-32.91
-21.24
-9.93
-1.48
3.40
5.64
6.99
8.87
11.57
14.46
16.63
17.74
18.16
18.67
19.84
21.78
24.15
26.20
27.14
26.47
24.16
20.62
16.52
12.53
9.23
7.05
5.84
5.28
4.89
4.22
3.00
1.22
-0.95
-3.22
-5.26
-6.86
-7.94
-8.54
-8.75
-8.69
-8.44
-8.04
-7.51
-6.89
-6.23
-5.55
-4.89
-4.26
-3.65
-3.04
-2.38
-1.65
-0.83
0.03
0.89
1.68
2.31
2.76
3.07
3.38
3.83
4.54
5.56
6.76
7.93
8.89
9.46
9.50
8.97
7.84
6.11
3.88
1.32
-1.32
-3.71
-5.56
-6.70
-7.06
-6.77
-6.06
-5.21
-4.50
-4.05
-3.88
-3.90
-3.98
-4.04
-4.09
-4.20
-4.49
-5.02
-5.78
-6.70
-7.67
-8.58
-9.36
-9.95
-10.32
-10.45
-10.33
-9.91
-9.17
-8.11
-6.77
-5.26
-3.72
-2.28
-0.99
0.16
1.23
2.27
3.26
4.13
4.84
5.42
5.92
6.43
6.96
7.48
7.88
8.04
7.92
7.56
7.02
6.39
5.72
5.03
4.33
3.62
2.92
2.21
1.47
0.67
-0.23
-1.19
-2.18
-3.12
-3.94
-4.60
-5.09
-5.45
-5.81
-6.29
-6.97
-7.79
-8.58
-9.06
-9.05
-8.47
-7.46
-6.21
-4.92
-3.65
-2.38
-1.07
0.25
1.50
2.58
3.40
4.01
4.47
4.85
5.15
5.33
5.34
5.18
4.94
4.71
4.62
4.69
4.93
5.24
5.51
5.65
5.60
5.35
4.93
4.35
3.65
2.86
2.03
1.20
0.40
-0.37
-1.18
-2.09
-3.17
-4.38
-5.64
-6.81
-7.77
-8.44
-8.82
-8.91
-8.72
-8.25
-7.51
-6.55
-5.41
-4.20
-2.93
-1.62
-0.24
1.19
2.59
3.80
4.69
5.16
5.23
5.05
4.78
4.60
4.56
4.64
4.75
4.80
4.79
4.77
4.80
4.91
5.06
5.15
5.05
4.70
4.11
3.39
2.67
2.00
1.39
0.81
0.24
-0.32
-0.83
-1.28
-1.70
-2.19
-2.87
-3.84
-5.04
-6.34
-7.51
-8.31
-8.58
-8.28
-7.52
-6.47
-5.28
-4.06
-2.83
-1.55
-0.22
1.10
2.31
3.25
3.88
4.21
4.35
4.43
4.52
4.63
4.73
4.83
4.93
5.08
5.30
5.52
5.62
5.48
5.04
4.36
3.62
3.02
2.65
2.52
2.50
2.39
2.07
1.49
0.70
-0.18
-1.08
-1.97
-2.87
-3.84
-4.87
-5.88
-6.76
-7.40
-7.75
-7.80
-7.59
-7.14
-6.47
-5.57
-4.46
-3.17
-1.77
-0.33
1.07
2.37
3.51
4.44
5.10
5.49
5.61
5.52
5.26
4.91
4.50
4.09
3.73
3.43
3.19
2.96
2.64
2.15
1.43
0.50
-0.59
-1.75
-2.91
-4.04
-5.15
-6.23
-7.29
-8.26
-9.09
-9.70
-10.05
-10.14
-10.03
-9.80
-9.54
-9.33
-9.23
-9.23
-9.32
-9.43
-9.47
-9.33
-8.91
-8.15
-7.02
-5.58
-3.92
-2.15
-0.34
1.42
3.14
4.81
6.40
7.86
9.12
10.09
10.68
10.86
10.64
10.12
9.43
8.74
8.16
7.80
7.70
7.83
8.13
8.47
8.74
8.83
8.70
8.33
7.76
7.01
6.12
5.11
4.04
2.94
1.84
0.76
-0.28
-1.26
-2.16
-2.94
-3.59
-4.16
-4.76
-5.46
-6.29
-7.15
-7.89
-8.30
-8.29
-7.88
-7.23
-6.52
-5.87
-5.31
-4.74
-4.01
-3.00
-1.68
-0.12
1.55
3.17
4.61
5.77
6.62
7.14
7.34
7.26
6.96
6.53
6.07
5.66
5.36
5.20
5.21
5.35
5.55
5.72
5.71
5.41
4.80
3.96
3.04
2.23
1.63
1.24
0.97
0.72
0.43
0.09
-0.30
-0.73
-1.23
-1.82
-2.46
-3.09
-3.67
-4.20
-4.78
-5.49
-6.32
-7.17
-7.85
-8.14
-7.96
-7.32
-6.33
-5.10
-3.70
-2.14
-0.44
1.31
3.01
4.47
5.56
6.20
6.38
6.21
5.83
5.39
4.99
4.72
4.60
4.60
4.69
4.82
4.95
5.06
5.14
5.17
5.13
4.95
4.61
4.08
3.41
2.70
2.05
1.56
1.21
0.95
0.70
0.40
0.03
-0.38
-0.82
-1.33
-1.96
-2.75
-3.69
-4.69
-5.61
-6.36
-6.86
-7.12
-7.15
-6.98
-6.59
-6.00
-5.22
-4.33
-3.43
-2.55
-1.67
-0.72
0.36
1.57
2.79
3.84
4.53
4.75
4.55
4.12
3.67
3.41
3.39
3.52
3.66
3.65
3.48
3.22
3.04
3.05
3.22
3.41
3.43
3.12
2.50
1.67
0.82
0.08
-0.51
-0.97
-1.39
-1.81
-2.25
-2.71
-3.15
-3.59
-4.03
-4.48
-4.96
-5.48
-6.01
-6.49
-6.83
-6.94
-6.75
-6.25
-5.47
-4.47
-3.32
-2.05
-0.72
0.62
1.90
3.03
3.94
4.59
5.01
5.26
5.39
5.49
5.57
5.68
5.76
5.78
5.67
5.39
5.00
4.56
4.20
4.00
3.94
3.89
3.71
3.30
2.68
2.00
1.40
0.96
0.67
0.42
0.13
-0.26
-0.72
-1.23
-1.80
-2.47
-3.27
-4.18
-5.10
-5.91
-6.53
-6.95
-7.23
-7.40
-7.46
-7.34
-6.96
-6.25
-5.27
-4.11
-2.89
-1.70
-0.57
0.54
1.65
2.78
3.86
4.82
5.57
6.09
6.37
6.47
6.40
6.16
5.78
5.27
4.73
4.24
3.91
3.78
3.81
3.90
3.90
3.70
3.22
2.47
1.54
0.57
-0.31
-0.99
-1.45
-1.72
-1.91
-2.13
-2.50
-3.05
-3.77
-4.58
-5.37
-6.04
-6.57
-6.99
-7.40
-7.94
-8.70
-9.70
-10.84
-11.92
-12.67
-12.86
-12.33
-11.10
-9.35
-7.34
-5.36
-3.57
-2.05
-0.73
0.44
1.51
2.47
3.31
4.04
4.74
5.47
6.26
7.05
7.75
8.23
8.40
8.25
7.81
7.14
6.31
5.37
4.36
3.30
2.23
1.12
-0.04
-1.23
-2.37
-3.30
-3.85
-3.91
-3.48
-2.67
-1.68
-0.68
0.16
0.76
1.07
1.11
0.89
0.43
-0.27
-1.18
-2.22
-3.28
-4.19
-4.77
-4.85
-4.38
-3.35
-1.91
-0.23
1.49
3.10
4.49
5.61
6.45
7.00
7.30
7.38
7.30
7.15
6.97
6.84
6.81
6.87
7.04
7.30
7.59
7.87
8.07
8.17
8.16
8.08
7.98
7.88
7.78
7.66
7.49
7.23
6.87
6.42
5.89
5.35
4.87
4.59
4.59
4.87
5.37
5.95
6.47
6.82
6.88
6.58
5.85
4.71
3.30
1.86
0.68
-0.03
-0.21
-0.01
0.37
0.74
1.00
1.18
1.39
1.63
1.87
1.94
1.66
0.85
-0.59
-2.67
-5.31
-8.33
-11.52
-14.63
-17.41
-19.72
-21.50
-22.83
-23.90
-24.89
-25.88
-26.74
-27.12
-26.59
-24.75
-21.51
-17.16
-12.29
-7.69
-4.00
-1.58
-0.38
-0.03
0.01
0.26
1.02
2.29
3.83
5.23
6.13
6.35
5.89
4.92
3.63
2.13
0.46
-1.33
-3.17
-4.84
-6.11
-6.79
-6.87
-6.47
-5.80
-5.03
-4.23
-3.40
-2.54
-1.71
-1.06
-0.73
-0.80
-1.22
-1.83
-2.38
-2.70
-2.67
-2.31
-1.73
-1.07
-0.47
0.01
0.35
0.56
0.65
0.62
0.47
0.26
0.06
-0.05
-0.02
0.10
0.14
-0.09
-0.73
-1.80
-3.18
-4.62
-5.87
-6.78
-7.30
-7.51
-7.54
-7.48
-7.34
-7.08
-6.63
-6.04
-5.42
-4.95
-4.70
-4.61
-4.48
-4.03
-3.10
-1.71
-0.04
1.64
3.07
4.13
4.77
5.03
4.94
4.60
4.12
3.69
3.48
3.62
4.14
4.96
5.93
6.92
7.81
8.53
9.03
9.32
9.43
9.39
9.24
9.00
8.67
8.29
7.94
7.74
7.77
8.04
8.45
8.86
9.12
9.19
9.12
9.02
8.97
9.01
9.13
9.33
9.64
10.11
10.78
11.60
12.43
13.09
13.36
13.13
12.39
11.21
9.71
8.01
6.21
4.40
2.68
1.19
0.04
-0.68
-1.02
-1.14
-1.32
-1.78
-2.64
-3.83
-5.14
-6.32
-7.14
-7.52
-7.48
-7.11
-6.52
-5.84
-5.22
-4.76
-4.54
-4.54
-4.71
-4.92
-5.10
-5.22
-5.28
-5.30
-5.31
-5.28
-5.22
-5.17
-5.20
-5.34
-5.58
-5.81
-5.90
-5.73
-5.26
-4.54
-3.67
-2.80
-1.98
-1.22
-0.47
0.34
1.25
2.22
3.17
4.02
4.68
5.18
5.55
5.82
5.96
5.93
5.68
5.23
4.69
4.21
3.92
3.82
3.83
3.82
3.69
3.39
2.97
2.50
2.03
1.57
1.08
0.56
0.05
-0.42
-0.79
-1.08
-1.30
-1.52
-1.81
-2.19
-2.65
-3.14
-3.61
-4.05
-4.47
-4.91
-5.41
-5.93
-6.38
-6.59
-6.41
-5.76
-4.70
-3.39
-2.05
-0.82
0.24
1.17
2.03
2.80
3.42
3.79
3.87
3.74
3.54
3.46
3.60
3.95
4.39
4.74
4.87
4.76
4.45
4.07
3.71
3.40
3.07
2.66
2.12
1.46
0.79
0.22
-0.17
-0.39
-0.54
-0.75
-1.10
-1.62
-2.22
-2.81
-3.30
-3.67
-3.98
-4.29
-4.69
-5.16
-5.61
-5.89
-5.84
-5.38
-4.55
-3.48
-2.36
-1.32
-0.43
0.38
1.19
2.10
3.08
4.05
4.86
5.41
5.70
5.75
5.63
5.41
5.10
4.72
4.30
3.90
3.58
3.37
3.25
3.14
2.96
2.67
2.28
1.86
1.44
1.07
0.74
0.40
0.03
-0.37
-0.79
-1.20
-1.58
-1.93
-2.25
-2.58
-2.95
-3.41
-4.00
-4.72
-5.53
-6.34
-7.06
-7.55
-7.70
-7.45
-6.81
-5.90
-4.87
-3.86
-2.92
-2.03
-1.09
-0.04
1.12
2.27
3.24
3.90
4.22
4.29
4.24
4.19
4.17
4.14
4.06
3.90
3.70
3.54
3.43
3.35
3.20
2.90
2.41
1.77
1.14
0.64
0.36
0.28
0.31
0.30
0.17
-0.13
-0.53
-0.97
-1.36
-1.70
-2.03
-2.38
-2.82
-3.34
-3.91
-4.46
-4.96
-5.42
-5.87
-6.31
-6.70
-6.94
-6.90
-6.50
-5.71
-4.64
-3.39
-2.11
-0.89
0.22
1.17
1.90
2.36
2.56
2.56
2.51
2.55
2.73
2.99
3.23
3.36
3.35
3.25
3.14
3.06
3.00
2.87
2.63
2.28
1.88
1.49
1.17
0.91
0.69
0.46
0.24
0.05
-0.09
-0.19
-0.26
-0.38
-0.56
-0.83
-1.18
-1.61
-2.16
-2.87
-3.72
-4.64
-5.45
-5.99
-6.13
-5.90
-5.41
-4.82
-4.24
-3.72
-3.23
-2.74
-2.24
-1.70
-1.06
-0.21
0.90
2.25
3.62
4.74
5.35
5.38
4.97
4.37
3.82
3.44
3.18
2.93
2.63
2.25
1.87
1.56
1.34
1.21
1.11
1.02
0.92
0.83
0.77
0.73
0.70
0.64
0.54
0.39
0.18
-0.07
-0.37
-0.73
-1.15
-1.62
-2.11
-2.60
-3.10
-3.61
-4.17
-4.75
-5.29
-5.69
-5.85
-5.70
-5.26
-4.60
-3.85
-3.12
-2.48
-1.96
-1.51
-1.07
-0.53
0.16
1.00
1.89
2.68
3.24
3.49
3.43
3.17
2.83
2.52
2.26
2.04
1.80
1.54
1.29
1.10
0.97
0.91
0.87
0.80
0.68
0.51
0.34
0.25
0.32
0.65
1.22
1.96
2.68
3.18
3.30
3.01
2.37
1.56
0.73
-0.00
-0.63
-1.15
-1.59
-1.94
-2.19
-2.33
-2.35
-2.23
-1.93
-1.42
-0.71
0.14
0.99
1.76
2.40
2.93
3.41
3.87
4.32
4.70
4.95
5.04
4.98
4.80
4.56
4.29
3.97
3.60
3.20
2.77
2.36
1.98
1.66
1.39
1.13
0.81
0.37
-0.22
-0.92
-1.65
-2.32
-2.83
-3.17
-3.33
-3.38
-3.39
-3.42
-3.51
-3.69
-3.96
-4.30
-4.70
-5.12
-5.55
-5.96
-6.36
-6.76
-7.17
-7.60
-8.03
-8.39
-8.59
-8.59
-8.37
-7.97
-7.46
-6.87
-6.19
-5.36
-4.35
-3.16
-1.85
-0.53
0.70
1.79
2.74
3.53
4.14
4.50
4.59
4.43
4.12
3.75
3.42
3.17
3.00
2.92
2.90
2.95
3.06
3.17
3.19
3.06
2.77
2.35
1.85
1.33
0.83
0.35
-0.12
-0.57
-1.00
-1.40
-1.81
-2.25
-2.75
-3.33
-3.99
-4.71
-5.45
-6.16
-6.77
-7.15
-7.19
-6.79
-5.97
-4.83
-3.56
-2.32
-1.27
-0.45
0.20
0.76
1.34
2.02
2.82
3.66
4.41
4.93
5.11
4.96
4.60
4.21
3.93
3.81
3.82
3.87
3.86
3.76
3.57
3.30
2.94
2.46
1.87
1.22
0.64
0.21
-0.01
-0.07
-0.11
-0.29
-0.69
-1.34
-2.15
-3.00
-3.79
-4.48
-5.08
-5.64
-6.22
-6.80
-7.35
-7.74
-7.88
-7.65
-7.05
-6.12
-5.01
-3.86
-2.74
-1.67
-0.61
0.49
1.60
2.65
3.51
4.13
4.50
4.71
4.85
4.93
4.96
4.87
4.68
4.46
4.33
4.36
4.52
4.68
4.70
4.50
4.10
3.63
3.24
2.97
2.77
2.52
2.13
1.59
0.98
0.40
-0.06
-0.42
-0.75
-1.13
-1.61
-2.15
-2.70
-3.17
-3.58
-3.99
-4.53
-5.27
-6.20
-7.16
-7.89
-8.12
-7.69
-6.68
-5.31
-3.91
-2.76
-1.98
-1.49
-1.08
-0.52
0.36
1.54
2.85
4.08
5.02
5.58
5.77
5.72
5.54
5.31
5.08
4.85
4.61
4.38
4.18
3.99
3.76
3.45
3.04
2.59
2.19
1.94
1.88
1.96
2.08
2.14
2.03
1.70
1.14
0.38
-0.52
-1.43
-2.22
-2.80
-3.17
-3.45
-3.78
-4.32
-5.06
-5.91
-6.68
-7.22
-7.46
-7.40
-7.12
-6.64
-5.99
-5.16
-4.15
-2.99
-1.74
-0.44
0.84
2.06
3.17
4.08
4.73
5.07
5.18
5.16
5.13
5.15
5.18
5.14
4.97
4.69
4.42
4.29
4.35
4.52
4.63
4.51
4.11
3.52
2.88
2.35
1.97
1.71
1.46
1.18
0.85
0.46
0.02
-0.50
-1.10
-1.74
-2.36
-2.90
-3.39
-3.90
-4.51
-5.25
-6.01
-6.62
-6.89
-6.71
-6.14
-5.34
-4.49
-3.71
-2.98
-2.16
-1.11
0.22
1.73
3.21
4.45
5.34
5.90
6.25
6.48
6.60
6.56
6.34
5.97
5.56
5.20
4.92
4.66
4.34
3.95
3.54
3.24
3.12
3.13
3.14
3.00
2.66
2.17
1.66
1.25
0.94
0.69
0.38
-0.06
-0.65
-1.36
-2.13
-2.86
-3.50
-4.02
-4.43
-4.79
-5.17
-5.64
-6.20
-6.78
-7.22
-7.40
-7.24
-6.78
-6.15
-5.47
-4.78
-4.03
-3.13
-1.99
-0.63
0.83
2.21
3.34
4.13
4.58
4.78
4.87
4.99
5.18
5.40
5.57
5.59
5.42
5.11
4.76
4.46
4.21
3.99
3.72
3.35
2.89
2.37
1.83
1.32
0.83
0.42
0.10
-0.08
-0.16
-0.21
-0.34
-0.65
-1.17
-1.88
-2.68
-3.49
-4.23
-4.87
-5.42
-5.92
-6.46
-7.12
-7.93
-8.81
-9.57
-9.94
-9.71
-8.82
-7.42
-5.81
-4.30
-3.09
-2.18
-1.46
-0.74
0.11
1.08
2.09
2.99
3.65
4.01
4.08
3.95
3.76
3.66
3.81
4.27
5.02
5.93
6.80
7.43
7.67
7.48
6.88
5.94
4.78
3.51
2.22
0.99
-0.11
-1.04
-1.79
-2.33
-2.67
-2.79
-2.66
-2.29
-1.74
-1.13
-0.61
-0.39
-0.58
-1.23
-2.32
-3.71
-5.20
-6.60
-7.69
-8.28
-8.22
-7.44
-6.00
-4.07
-1.97
-0.06
1.40
2.29
2.76
3.07
3.48
4.15
5.01
5.92
6.70
7.27
7.63
7.85
7.93
7.88
7.65
7.23
6.66
6.04
5.44
4.89
4.34
3.74
3.04
2.27
1.49
0.75
0.10
-0.45
-0.92
-1.32
-1.68
-2.07
-2.50
-3.01
-3.55
-4.06
-4.49
-4.82
-5.11
-5.45
-5.89
-6.43
-6.98
-7.41
-7.64
-7.64
-7.44
-7.10
-6.65
-6.07
-5.34
-4.46
-3.48
-2.44
-1.37
-0.24
0.98
2.25
3.48
4.51
5.20
5.49
5.42
5.09
4.63
4.16
3.73
3.39
3.17
3.12
3.22
3.42
3.61
3.67
3.51
3.17
2.73
2.28
1.88
1.49
1.07
0.53
-0.13
-0.87
-1.61
-2.26
-2.76
-3.12
-3.39
-3.66
-4.02
-4.54
-5.19
-5.90
-6.55
-6.99
-7.10
-6.77
-6.03
-4.94
-3.65
-2.31
-1.05
0.08
1.09
1.99
2.81
3.54
4.12
4.51
4.73
4.82
4.83
4.83
4.81
4.74
4.59
4.35
4.04
3.70
3.38
3.09
2.85
2.63
2.40
2.10
1.67
1.10
0.40
-0.31
-0.95
-1.45
-1.80
-2.08
-2.38
-2.79
-3.34
-4.01
-4.74
-5.47
-6.15
-6.75
-7.22
-7.51
-7.57
-7.38
-6.98
-6.45
-5.85
-5.21
-4.50
-3.64
-2.56
-1.25
0.17
1.53
2.64
3.39
3.80
3.97
4.02
4.03
4.01
3.94
3.80
3.63
3.52
3.51
3.65
3.85
4.04
4.12
4.05
3.85
3.55
3.17
2.73
2.24
1.72
1.21
0.78
0.47
0.27
0.13
-0.06
-0.39
-0.89
-1.56
-2.32
-3.13
-3.92
-4.70
-5.46
-6.17
-6.74
-7.01
-6.87
-6.27
-5.32
-4.20
-3.12
-2.19
-1.39
-0.56
0.42
1.59
2.86
4.03
4.89
5.35
5.45
5.37
5.25
5.22
5.26
5.30
5.24
5.04
4.73
4.37
4.04
3.71
3.33
2.82
2.15
1.37
0.64
0.10
-0.12
-0.05
0.20
0.40
0.36
-0.02
-0.72
-1.59
-2.50
-3.30
-3.94
-4.45
-4.87
-5.27
-5.68
-6.12
-6.54
-6.84
-6.94
-6.75
-6.25
-5.48
-4.47
-3.30
-2.00
-0.64
0.72
2.01
3.19
4.22
5.13
5.89
6.50
6.93
7.15
7.21
7.14
6.98
6.74
6.41
5.98
5.48
5.00
4.63
4.39
4.24
4.08
3.82
3.43
2.90
2.29
1.64
0.98
0.37
-0.14
-0.49
-0.68
-0.78
-0.89
-1.12
-1.52
-2.05
-2.68
-3.39
-4.18
-5.04
-5.93
-6.77
-7.41
-7.77
-7.83
-7.67
-7.34
-6.87
-6.20
-5.24
-3.98
-2.48
-0.92
0.47
1.56
2.31
2.82
3.22
3.63
4.05
4.41
4.59
4.55
4.31
3.98
3.69
3.48
3.31
3.08
2.67
2.09
1.43
0.82
0.38
0.16
0.11
0.11
0.09
0.02
-0.09
-0.19
-0.31
-0.48
-0.79
-1.26
-1.86
-2.49
-3.04
-3.46
-3.84
-4.31
-4.98
-5.84
-6.71
-7.29
-7.36
-6.83
-5.86
-4.71
-3.65
-2.82
-2.22
-1.74
-1.23
-0.60
0.18
1.06
2.01
2.95
3.83
4.60
5.19
5.58
5.75
5.72
5.54
5.29
5.02
4.82
4.69
4.61
4.54
4.37
4.07
3.59
2.98
2.32
1.69
1.21
0.92
0.79
0.73
0.57
0.17
-0.50
-1.35
-2.22
-2.95
-3.48
-3.87
-4.30
-4.91
-5.73
-6.67
-7.54
-8.14
-8.36
-8.17
-7.65
-6.89
-6.00
-5.07
-4.17
-3.32
-2.50
-1.68
-0.85
0.00
0.80
1.44
1.86
2.04
2.05
1.98
1.91
1.86
1.82
1.71
1.50
1.17
0.71
0.13
-0.57
-1.41
-2.40
-3.53
-4.68
-5.70
-6.39
-6.59
-6.23
-5.41
-4.33
-3.23
-2.29
-1.56
-0.99
-0.49
-0.01
0.38
0.59
0.51
0.18
-0.32
-0.77
-1.02
-0.97
-0.68
-0.26
0.10
0.30
0.34
0.34
0.45
0.80
1.40
2.15
2.92
3.63
4.25
4.82
5.37
5.88
6.27
6.45
6.37
6.10
5.74
5.39
5.08
4.76
4.41
4.03
3.69
3.49
3.41
3.36
3.18
2.74
2.05
1.25
0.56
0.14
-0.02
-0.05
-0.16
-0.50
-1.06
-1.73
-2.35
-2.81
-3.10
-3.30
-3.54
-3.91
-4.46
-5.15
-5.91
-6.62
-7.18
-7.48
-7.47
-7.14
-6.50
-5.61
-4.50
-3.22
-1.82
-0.39
1.00
2.27
3.38
4.31
5.07
5.65
6.03
6.21
6.19
6.02
5.75
5.42
5.03
4.61
4.19
3.82
3.55
3.38
3.27
3.14
2.93
2.63
2.26
1.82
1.32
0.73
0.12
-0.43
-0.81
-0.97
-0.98
-0.99
-1.17
-1.59
-2.19
-2.81
-3.34
-3.76
-4.16
-4.66
-5.34
-6.16
-6.96
-7.53
-7.70
-7.35
-6.51
-5.26
-3.78
-2.25
-0.82
0.41
1.45
2.35
3.18
3.95
4.61
5.12
5.42
5.53
5.49
5.38
5.25
5.13
5.02
4.94
4.88
4.80
4.65
4.35
3.87
3.25
2.62
2.12
1.85
1.80
1.85
1.86
1.69
1.29
0.69
-0.02
-0.73
-1.39
-1.96
-2.45
-2.88
-3.24
-3.56
-3.86
-4.23
-4.73
-5.40
-6.16
-6.83
-7.18
-7.04
-6.39
-5.32
-4.03
-2.71
-1.47
-0.31
0.78
1.81
2.76
3.59
4.27
4.81
5.26
5.66
6.01
6.32
6.49
6.49
6.28
5.88
5.35
4.78
4.21
3.66
3.12
2.57
2.06
1.65
1.40
1.29
1.26
1.15
0.87
0.38
-0.24
-0.82
-1.25
-1.51
-1.68
-1.92
-2.33
-2.97
-3.76
-4.62
-5.43
-6.12
-6.68
-7.08
-7.30
-7.29
-6.99
-6.40
-5.54
-4.51
-3.45
-2.43
-1.49
-0.59
0.34
1.38
2.55
3.76
4.87
5.70
6.15
6.19
5.93
5.54
5.16
4.91
4.77
4.72
4.68
4.63
4.55
4.43
4.26
4.01
3.64
3.14
2.56
1.99
1.51
1.16
0.89
0.62
0.28
-0.17
-0.71
-1.29
-1.85
-2.35
-2.80
-3.25
-3.75
-4.33
-5.00
-5.75
-6.52
-7.22
-7.75
-7.99
-7.87
-7.34
-6.41
-5.20
-3.86
-2.56
-1.43
-0.51
0.27
1.04
1.87
2.78
3.67
4.39
4.84
5.03
5.02
4.95
4.88
4.85
4.84
4.80
4.73
4.67
4.61
4.54
4.40
4.12
3.69
3.15
2.60
2.11
1.72
1.41
1.12
0.81
0.46
0.06
-0.40
-0.89
-1.42
-1.93
-2.37
-2.67
-2.83
-2.94
-3.14
-3.58
-4.31
-5.27
-6.29
-7.17
-7.77
-7.98
-7.79
-7.21
-6.27
-5.01
-3.51
-1.94
-0.44
0.84
1.88
2.72
3.45
4.10
4.66
5.07
5.29
5.33
5.28
5.23
5.19
5.12
4.88
4.40
3.72
2.97
2.36
1.99
1.86
1.84
1.78
1.60
1.32
1.00
0.74
0.55
0.35
0.04
-0.45
-1.11
-1.87
-2.63
-3.29
-3.81
-4.19
-4.45
-4.64
-4.81
-5.03
-5.37
-5.80
-6.29
-6.73
-7.01
-7.06
-6.83
-6.32
-5.55
-4.52
-3.29
-1.96
-0.65
0.51
1.41
2.03
2.42
2.70
2.96
3.27
3.62
3.97
4.24
4.38
4.36
4.22
4.01
3.75
3.48
3.23
3.05
2.97
3.00
3.05
3.00
2.75
2.28
1.69
1.13
0.70
0.40
0.11
-0.25
-0.70
-1.15
-1.46
-1.58
-1.57
-1.60
-1.83
-2.36
-3.12
-4.00
-4.85
-5.54
-5.99
-6.14
-5.97
-5.46
-4.63
-3.56
-2.36
-1.17
-0.07
0.91
1.77
2.56
3.27
3.88
4.33
4.57
4.58
4.44
4.28
4.23
4.34
4.56
4.74
4.71
4.38
3.78
3.08
2.44
1.98
1.68
1.43
1.11
0.68
0.22
-0.13
-0.31
-0.35
-0.37
-0.51
-0.81
-1.19
-1.48
-1.60
-1.54
-1.47
-1.58
-1.99
-2.70
-3.58
-4.50
-5.34
-6.08
-6.71
-7.19
-7.40
-7.20
-6.53
-5.43
-4.11
-2.78
-1.66
-0.84
-0.26
0.21
0.76
1.47
2.37
3.36
4.28
4.96
5.28
5.22
4.87
4.38
3.93
3.61
3.42
3.30
3.15
2.92
2.66
2.44
2.36
2.42
2.56
2.64
2.54
2.23
1.79
1.35
1.04
0.91
0.88
0.79
0.52
0.04
-0.56
-1.15
-1.58
-1.78
-1.84
-1.87
-2.05
-2.51
-3.27
-4.28
-5.43
-6.56
-7.55
-8.30
-8.72
-8.79
-8.48
-7.83
-6.91
-5.84
-4.70
-3.57
-2.45
-1.30
-0.09
1.14
2.29
3.22
3.83
4.11
4.14
4.04
3.94
3.92
3.97
4.04
4.08
4.04
3.92
3.75
3.60
3.46
3.32
3.11
2.79
2.38
1.95
1.60
1.38
1.28
1.19
0.99
0.62
0.06
-0.58
-1.20
-1.74
-2.20
-2.66
-3.16
-3.74
-4.36
-4.92
-5.38
-5.75
-6.12
-6.58
-7.17
-7.80
-8.24
-8.27
-7.76
-6.74
-5.41
-4.03
-2.80
-1.76
-0.81
0.19
1.34
2.59
3.79
4.77
5.43
5.77
5.88
5.89
5.87
5.87
5.81
5.62
5.24
4.68
4.01
3.39
2.91
2.66
2.60
2.64
2.68
2.63
2.45
2.15
1.77
1.36
0.98
0.64
0.31
-0.05
-0.53
-1.18
-1.96
-2.77
-3.46
-3.93
-4.17
-4.30
-4.52
-4.95
-5.63
-6.45
-7.23
-7.79
-8.02
-7.85
-7.29
-6.41
-5.28
-4.01
-2.70
-1.44
-0.27
0.81
1.84
2.83
3.76
4.52
5.02
5.23
5.19
5.03
4.87
4.77
4.72
4.66
4.56
4.48
4.48
4.58
4.71
4.73
4.50
4.02
3.39
2.80
2.41
2.24
2.16
2.00
1.61
0.98
0.20
-0.58
-1.24
-1.73
-2.12
-2.51
-3.00
-3.62
-4.35
-5.11
-5.82
-6.43
-6.91
-7.23
-7.40
-7.36
-7.04
-6.40
-5.42
-4.21
-2.92
-1.72
-0.72
0.07
0.76
1.43
2.15
2.90
3.62
4.21
4.62
4.86
4.93
4.89
4.72
4.45
4.12
3.81
3.58
3.47
3.45
3.41
3.27
2.96
2.47
1.88
1.28
0.76
0.33
-0.02
-0.35
-0.69
-1.02
-1.31
-1.48
-1.54
-1.55
-1.64
-1.93
-2.53
-3.40
-4.44
-5.50
-6.43
-7.15
-7.62
-7.81
-7.71
-7.29
-6.53
-5.49
-4.24
-2.92
-1.63
-0.42
0.71
1.80
2.86
3.86
4.74
5.45
5.93
6.19
6.26
6.21
6.11
5.98
5.80
5.53
5.14
4.66
4.18
3.79
3.54
3.38
3.25
3.08
2.85
2.62
2.45
2.35
2.28
2.12
1.80
1.29
0.66
-0.04
-0.73
-1.41
-2.09
-2.75
-3.37
-3.91
-4.34
-4.69
-4.97
-5.28
-5.64
-6.10
-6.62
-7.09
-7.37
-7.27
-6.67
-5.56
-4.05
-2.34
-0.68
0.74
1.86
2.73
3.46
4.13
4.81
5.44
5.94
6.23
6.27
6.12
5.88
5.67
5.52
5.41
5.25
4.98
4.62
4.30
4.11
4.11
4.21
4.24
4.03
3.54
2.85
2.13
1.54
1.13
0.87
0.64
0.35
-0.09
-0.69
-1.43
-2.27
-3.13
-3.92
-4.55
-5.00
-5.32
-5.65
-6.10
-6.72
-7.43
-8.10
-8.53
-8.60
-8.27
-7.59
-6.64
-5.48
-4.16
-2.74
-1.31
0.06
1.29
2.36
3.27
4.05
4.70
5.16
5.38
5.37
5.18
4.96
4.82
4.78
4.78
4.70
4.45
4.06
3.64
3.33
3.19
3.19
3.18
3.02
2.63
2.08
1.48
1.02
0.76
0.63
0.51
0.21
-0.31
-0.97
-1.59
-2.00
-2.15
-2.10
-2.08
-2.29
-2.84
-3.72
-4.78
-5.79
-6.58
-7.00
-6.97
-6.46
-5.51
-4.22
-2.73
-1.23
0.15
1.32
2.27
3.06
3.73
4.29
4.74
5.01
5.10
5.01
4.84
4.68
4.61
4.64
4.71
4.72
4.58
4.26
3.79
3.25
2.74
2.33
2.04
1.83
1.67
1.52
1.37
1.23
1.11
0.98
0.77
0.39
-0.23
-1.05
-1.96
-2.79
-3.40
-3.72
-3.84
-3.94
-4.19
-4.74
-5.55
-6.50
-7.34
-7.86
-7.92
-7.51
-6.76
-5.82
-4.80
-3.75
-2.67
-1.49
-0.20
1.12
2.39
3.46
4.24
4.71
4.90
4.89
4.76
4.60
4.43
4.29
4.17
4.07
4.01
4.06
4.22
4.49
4.79
4.95
4.86
4.47
3.85
3.18
2.63
2.33
2.25
2.28
2.24
1.99
1.47
0.71
-0.17
-1.02
-1.74
-2.25
-2.61
-2.90
-3.25
-3.74
-4.37
-5.10
-5.85
-6.59
-7.31
-7.99
-8.58
-8.92
-8.84
-8.23
-7.10
-5.63
-4.03
-2.53
-1.22
-0.11
0.89
1.84
2.73
3.51
4.10
4.44
4.57
4.52
4.40
4.24
4.07
3.89
3.66
3.38
3.06
2.77
2.58
2.58
2.77
3.08
3.37
3.46
3.25
2.76
2.08
1.40
0.83
0.41
0.09
-0.23
-0.59
-0.98
-1.34
-1.62
-1.82
-1.98
-2.20
-2.56
-3.12
-3.89
-4.84
-5.89
-6.89
-7.74
-8.32
-8.61
-8.60
-8.36
-7.93
-7.31
-6.50
-5.48
-4.29
-3.01
-1.74
-0.53
0.60
1.69
2.75
3.73
4.50
4.90
4.87
4.49
3.97
3.57
3.50
3.81
4.34
4.84
5.06
4.90
4.38
3.65
2.89
2.24
1.75
1.40
1.18
1.05
1.00
1.01
0.97
0.79
0.36
-0.31
-1.14
-1.95
-2.58
-2.94
-3.06
-3.08
-3.11
-3.27
-3.59
-4.05
-4.61
-5.21
-5.77
-6.20
-6.40
-6.28
-5.79
-4.97
-3.87
-2.56
-1.13
0.35
1.76
3.02
4.03
4.75
5.17
5.34
5.33
5.20
5.01
4.81
4.67
4.65
4.76
4.98
5.23
5.40
5.40
5.20
4.81
4.29
3.68
3.03
2.39
1.82
1.38
1.13
1.05
1.07
1.02
0.80
0.35
-0.29
-1.02
-1.70
-2.29
-2.77
-3.21
-3.68
-4.25
-4.95
-5.79
-6.73
-7.68
-8.51
-9.05
-9.13
-8.66
-7.67
-6.27
-4.67
-3.09
-1.65
-0.35
0.85
2.02
3.15
4.13
4.83
5.14
5.08
4.81
4.53
4.37
4.38
4.45
4.48
4.37
4.15
3.90
3.74
3.73
3.83
3.91
3.85
3.54
2.98
2.28
1.58
0.99
0.53
0.18
-0.18
-0.59
-1.05
-1.52
-1.95
-2.33
-2.69
-3.10
-3.61
-4.22
-4.90
-5.63
-6.36
-7.07
-7.74
-8.33
-8.76
-8.92
-8.72
-8.14
-7.21
-6.07
-4.84
-3.65
-2.53
-1.47
-0.45
0.50
1.37
2.13
2.81
3.49
4.24
5.08
5.92
6.60
6.97
6.97
6.66
6.20
5.74
5.39
5.17
5.01
4.81
4.49
4.03
3.49
2.98
2.59
2.38
2.33
2.32
2.25
2.02
1.59
0.97
0.20
-0.66
-1.56
-2.39
-3.06
-3.49
-3.70
-3.81
-4.03
-4.56
-5.52
-6.85
-8.29
-9.54
-10.28
-10.37
-9.80
-8.75
-7.42
-6.02
-4.65
-3.35
-2.10
-0.92
0.18
1.12
1.88
2.49
2.99
3.43
3.83
4.13
4.23
4.10
3.75
3.34
3.03
2.97
3.19
3.63
4.16
4.66
5.04
5.24
5.23
5.01
4.60
4.02
3.34
2.66
2.07
1.60
1.26
0.94
0.56
0.05
-0.61
-1.37
-2.15
-2.86
-3.47
-3.98
-4.46
-4.98
-5.58
-6.22
-6.81
-7.20
-7.27
-6.94
-6.24
-5.25
-4.10
-2.90
-1.71
-0.51
0.70
1.93
3.12
4.12
4.82
5.13
5.09
4.82
4.51
4.25
4.10
4.01
3.89
3.71
3.49
3.28
3.16
3.17
3.31
3.55
3.82
4.08
4.25
4.28
4.12
3.77
3.20
2.45
1.56
0.59
-0.36
-1.18
-1.83
-2.28
-2.61
-2.93
-3.34
-3.89
-4.56
-5.29
-6.03
-6.76
-7.46
-8.07
-8.45
-8.42
-7.81
-6.60
-4.89
-2.95
-1.04
0.64
2.02
3.12
4.03
4.78
5.39
5.82
6.06
6.13
6.11
6.07
6.11
6.24
6.41
6.51
6.42
6.09
5.57
4.99
4.49
4.15
3.95
3.74
3.40
2.81
2.03
1.17
0.41
-0.11
-0.36
-0.44
-0.52
-0.79
-1.34
-2.15
-3.04
-3.83
-4.37
-4.65
-4.80
-5.03
-5.47
-6.18
-7.04
-7.89
-8.53
-8.87
-8.88
-8.60
-8.07
-7.28
-6.22
-4.87
-3.31
-1.66
-0.07
1.33
2.48
3.37
4.04
4.45
4.64
4.64
4.57
4.59
4.80
5.19
5.61
5.91
5.99
5.87
5.71
5.62
5.64
5.67
5.54
5.15
4.48
3.61
2.67
1.79
1.07
0.55
0.22
-0.01
-0.24
-0.58
-1.09
-1.78
-2.60
-3.48
-4.33
-5.09
-5.71
-6.19
-6.54
-6.82
-7.11
-7.45
-7.82
-8.13
-8.27
-8.14
-7.76
-7.16
-6.35
-5.29
-3.95
-2.33
-0.56
1.11
2.47
3.40
3.95
4.32
4.68
5.14
5.64
6.04
6.22
6.19
6.03
5.87
5.77
5.70
5.56
5.24
4.66
3.88
3.03
2.28
1.76
1.49
1.41
1.36
1.23
0.94
0.51
0.00
-0.49
-0.91
-1.27
-1.59
-1.90
-2.23
-2.56
-2.88
-3.23
-3.67
-4.27
-5.09
-6.05
-6.98
-7.66
-7.85
-7.44
-6.43
-4.97
-3.26
-1.49
0.16
1.56
2.65
3.39
3.86
4.18
4.50
4.94
5.49
6.00
6.31
6.29
5.96
5.47
4.98
4.61
4.37
4.20
4.02
3.82
3.62
3.43
3.23
2.96
2.59
2.13
1.64
1.21
0.86
0.56
0.22
-0.21
-0.71
-1.27
-1.83
-2.40
-2.99
-3.65
-4.37
-5.11
-5.81
-6.43
-6.96
-7.38
-7.64
-7.64
-7.29
-6.51
-5.32
-3.87
-2.36
-1.04
-0.05
0.62
1.12
1.65
2.37
3.28
4.24
5.04
5.49
5.53
5.30
5.00
4.79
4.70
4.65
4.53
4.29
3.91
3.48
3.14
2.99
3.00
3.02
2.93
2.68
2.30
1.76
1.03
0.20
-0.61
-1.33
-1.89
-2.27
-2.40
-2.32
-2.36
-2.83
-3.78
-5.02
-6.28
-7.32
-8.01
-8.38
-8.66
-9.48
-11.34
-14.21
-17.62
-20.93
-23.64
-25.33
-25.68
-22.63
-15.37
-5.18
5.50
14.69
21.46
25.61
27.46
27.62
26.77
25.09
22.55
19.16
15.10
10.68
6.28
2.31
-0.94
-3.34
-5.16
-6.68
-7.97
-8.91
-9.39
-9.46
-9.22
-8.77
-8.18
-7.51
-6.73
-5.64
-3.99
-1.71
1.02
3.78
6.06
7.35
7.26
5.72
3.02
-0.30
-3.64
-6.54
-8.74
-10.15
-10.73
-10.64
-9.88
-8.52
-6.72
-4.68
-2.61
-0.68
1.05
2.62
4.12
5.60
7.05
8.31
9.23
9.70
9.59
8.85
7.59
5.84
3.77
1.68
-0.12
-1.31
-1.77
-1.58
-1.00
-0.35
0.13
0.48
0.92
1.62
2.57
3.46
3.81
3.31
2.03
0.42
-0.77
-1.00
-0.17
1.32
2.79
3.64
3.69
3.12
2.23
1.29
0.36
-0.74
-2.10
-3.60
-4.79
-5.08
-4.05
-1.70
1.58
5.15
8.21
10.08
10.53
9.86
8.81
8.08
8.04
8.67
9.55
10.09
9.76
8.33
5.71
2.43
-0.65
-3.04
-4.92
-6.55
-7.80
-8.47
-8.34
-7.24
-5.25
-2.70
-0.11
2.09
3.68
4.53
4.61
3.96
2.83
1.42
-0.15
-1.85
-3.61
-5.21
-6.47
-7.26
-7.40
-6.65
-5.10
-3.12
-1.25
0.13
0.92
1.05
0.53
-0.59
-2.02
-3.68
-5.57
-7.73
-10.06
-11.40
-10.86
-8.38
-5.96
-4.24
-3.38
-2.77
-2.11
-1.14
0.30
2.12
4.08
5.94
7.79
9.53
11.08
12.27
13.02
13.29
12.95
11.91
10.17
8.00
5.66
3.45
1.68
0.77
1.01
2.38
4.53
6.77
8.53
9.36
9.23
8.41
7.39
6.58
6.16
6.02
5.67
4.66
2.71
-0.15
-3.70
-7.49
-11.03
-13.82
-15.48
-16.19
-16.34
-16.29
-16.14
-15.82
-15.24
-14.31
-13.15
-12.04
-11.76
-12.96
-15.75
-19.63
-23.91
-28.05
-31.85
-35.35
-36.13
-32.70
-25.30
-15.97
-7.09
-0.18
4.37
7.01
8.65
10.22
11.90
13.38
13.78
12.97
11.20
8.99
7.07
6.15
6.67
8.23
9.92
10.80
10.44
8.93
7.15
5.95
5.91
7.14
8.98
10.49
10.95
10.34
9.17
8.25
8.37
9.72
11.93
14.42
16.48
17.16
15.13
8.88
-2.53
-18.70
-37.33
-54.51
-65.89
-68.26
-60.76
-45.13
-25.15
-5.21
11.06
21.66
26.39
26.38
23.27
18.59
13.60
9.24
6.26
5.12
5.94
8.36
11.58
14.59
16.46
16.71
15.39
13.03
10.45
8.37
7.25
7.09
7.52
7.95
7.85
6.93
5.35
3.51
1.98
1.18
1.24
1.97
2.95
3.76
4.13
4.06
3.77
3.58
3.73
4.23
4.90
5.45
5.68
5.54
5.15
4.66
4.13
3.48
2.53
1.17
-0.59
-2.55
-4.38
-5.80
-6.70
-7.18
-7.51
-7.91
-8.49
-9.13
-9.58
-9.58
-9.01
-8.00
-6.81
-5.74
-4.97
-4.48
-4.13
-3.75
-3.32
-2.90
-2.64
-2.61
-2.73
-2.80
-2.58
-1.98
-1.04
0.05
1.06
1.86
2.41
2.75
2.91
2.86
2.53
1.91
1.08
0.25
-0.31
-0.44
-0.11
0.54
1.28
1.93
2.40
2.69
2.89
3.03
3.06
2.91
2.49
1.82
0.97
0.13
-0.57
-1.03
-1.28
-1.37
-1.37
-1.29
-1.10
-0.78
-0.39
0.00
0.26
0.31
0.17
-0.06
-0.26
-0.39
-0.51
-0.74
-1.16
-1.78
-2.55
-3.30
-3.88
-4.14
-4.04
-3.60
-2.91
-2.06
-1.21
-0.52
-0.12
-0.05
-0.22
-0.47
-0.59
-0.35
0.44
1.93
3.83
5.68
7.06
7.88
8.24
8.23
7.88
7.20
6.21
4.88
3.24
1.40
-0.47
-2.19
-3.49
-4.43
-5.09
-5.65
-6.35
-7.30
-8.46
-9.61
-10.48
-10.84
-10.63
-9.93
-8.96
-8.00
-7.35
-7.22
-7.72
-8.76
-10.12
-11.49
-12.53
-13.02
-12.87
-12.12
-10.85
-9.19
-7.28
-5.26
-3.34
-1.66
-0.35
0.60
1.24
1.72
2.14
2.56
2.95
3.28
3.51
3.66
3.72
3.69
3.53
3.23
2.82
2.40
2.09
2.00
2.13
2.37
2.57
2.62
2.51
2.33
2.22
2.25
2.39
2.51
2.45
2.11
1.49
0.71
-0.09
-0.75
-1.19
-1.43
-1.54
-1.66
-1.89
-2.21
-2.50
-2.51
-2.02
-0.92
0.72
2.68
4.65
6.44
7.95
9.27
10.53
11.95
13.69
15.90
18.65
21.97
25.77
29.82
33.75
37.12
39.51
40.67
40.55
39.38
37.54
35.35
32.98
30.35
27.23
23.45
19.00
14.11
9.16
4.51
0.35
-3.32
-6.64
-9.79
-12.87
-15.89
-18.77
-21.34
-23.32
-24.39
-24.32
-23.07
-20.92
-18.42
-16.15
-14.58
-13.84
-13.78
-14.12
-14.60
-15.05
-15.40
-15.52
-15.21
-14.25
-12.54
-10.19
-7.53
-5.03
-3.05
-1.76
-1.04
-0.60
-0.11
0.69
1.81
3.09
4.27
5.07
5.30
4.96
4.16
3.09
1.90
0.68
-0.51
-1.60
-2.44
-2.86
-2.73
-2.03
-0.88
0.45
1.64
2.42
2.65
2.29
1.36
-0.04
-1.80
-3.74
-5.64
-7.17
-7.99
-7.83
-6.60
-4.45
-1.77
0.93
3.19
4.72
5.54
5.86
5.96
6.08
6.26
6.48
6.64
6.74
6.81
6.85
6.84
6.64
6.15
5.33
4.25
3.13
2.18
1.56
1.25
1.12
1.00
0.74
0.28
-0.39
-1.20
-2.09
-2.99
-3.82
-4.56
-5.23
-5.90
-6.62
-7.43
-8.33
-9.28
-10.22
-11.10
-11.83
-12.31
-12.42
-12.07
-11.25
-10.05
-8.68
-7.33
-6.10
-4.99
-3.86
-2.57
-1.09
0.47
1.89
3.00
3.71
4.06
4.19
4.20
4.15
4.05
3.91
3.77
3.73
3.85
4.14
4.45
4.62
4.48
4.01
3.31
2.53
1.79
1.14
0.55
-0.02
-0.60
-1.15
-1.64
-2.08
-2.53
-3.05
-3.68
-4.38
-5.09
-5.75
-6.36
-6.99
-7.72
-8.56
-9.44
-10.19
-10.61
-10.55
-9.93
-8.79
-7.25
-5.50
-3.76
-2.16
-0.77
0.44
1.57
2.70
3.82
4.84
5.61
6.03
6.11
5.97
5.81
5.75
5.80
5.87
5.84
5.67
5.42
5.21
5.10
5.04
4.91
4.55
3.92
3.08
2.18
1.39
0.78
0.32
-0.04
-0.38
-0.73
-1.10
-1.53
-2.04
-2.68
-3.46
-4.36
-5.29
-6.19
-7.01
-7.72
-8.32
-8.81
-9.16
-9.31
-9.23
-8.94
-8.49
-7.92
-7.25
-6.42
-5.34
-3.94
-2.24
-0.38
1.44
3.03
4.27
5.15
5.74
6.09
6.27
6.29
6.18
6.01
5.87
5.84
5.93
6.09
6.24
6.29
6.16
5.84
5.36
4.80
4.20
3.63
3.13
2.69
2.29
1.88
1.40
0.85
0.22
-0.41
-0.98
-1.44
-1.83
-2.21
-2.68
-3.29
-4.06
-4.94
-5.88
-6.81
-7.69
-8.48
-9.14
-9.62
-9.86
-9.82
-9.47
-8.84
-7.95
-6.88
-5.65
-4.28
-2.78
-1.14
0.59
2.34
3.96
5.32
6.33
6.97
7.29
7.39
7.34
7.16
6.87
6.49
6.10
5.83
5.77
5.94
6.25
6.55
6.70
6.60
6.26
5.71
5.04
4.27
3.43
2.59
1.83
1.27
0.98
0.91
0.91
0.79
0.45
-0.14
-0.86
-1.56
-2.19
-2.76
-3.39
-4.21
-5.30
-6.60
-7.99
-9.30
-10.39
-11.19
-11.68
-11.85
-11.68
-11.12
-10.09
-8.60
-6.79
-4.88
-3.10
-1.62
-0.41
0.67
1.79
3.00
4.21
5.25
6.00
6.44
6.73
7.00
7.37
7.79
8.15
8.28
8.14
7.75
7.26
6.80
6.49
6.34
6.29
6.19
5.91
5.36
4.59
3.69
2.84
2.16
1.69
1.41
1.18
0.87
0.41
-0.24
-1.03
-1.88
-2.72
-3.48
-4.15
-4.76
-5.35
-5.96
-6.60
-7.27
-7.95
-8.60
-9.14
-9.49
-9.51
-9.09
-8.19
-6.85
-5.20
-3.42
-1.65
0.02
1.58
3.04
4.40
5.61
6.57
7.16
7.34
7.21
6.93
6.72
6.72
6.93
7.21
7.39
7.38
7.18
6.92
6.71
6.57
6.40
6.04
5.39
4.47
3.42
2.45
1.69
1.17
0.81
0.46
0.02
-0.54
-1.22
-1.94
-2.63
-3.24
-3.78
-4.25
-4.70
-5.20
-5.83
-6.65
-7.69
-8.89
-10.14
-11.24
-11.96
-12.14
-11.69
-10.68
-9.26
-7.61
-5.90
-4.20
-2.47
-0.66
1.27
3.26
5.14
6.71
7.83
8.42
8.55
8.33
7.93
7.49
7.13
6.93
6.92
7.09
7.35
7.62
7.77
7.74
7.48
6.99
6.32
5.50
4.62
3.74
2.90
2.16
1.49
0.89
0.33
-0.20
-0.68
-1.12
-1.53
-1.95
-2.42
-2.97
-3.65
-4.46
-5.42
-6.52
-7.70
-8.90
-10.01
-10.96
-11.68
-12.10
-12.16
-11.79
-10.96
-9.70
-8.11
-6.35
-4.56
-2.82
-1.11
0.60
2.35
4.09
5.69
7.01
7.99
8.62
8.97
9.09
8.99
8.70
8.21
7.61
7.03
6.64
6.53
6.69
7.00
7.28
7.36
7.13
6.61
5.86
4.97
4.06
3.19
2.39
1.66
1.02
0.44
-0.10
-0.66
-1.28
-1.99
-2.75
-3.49
-4.14
-4.64
-5.03
-5.43
-6.00
-6.90
-8.17
-9.75
-11.40
-12.85
-13.81
-14.09
-13.61
-12.45
-10.76
-8.75
-6.64
-4.56
-2.64
-0.91
0.63
2.00
3.23
4.35
5.38
6.28
7.01
7.53
7.78
7.80
7.64
7.39
7.12
6.90
6.74
6.65
6.60
6.58
6.51
6.35
6.04
5.54
4.88
4.17
3.51
2.98
2.58
2.26
1.93
1.51
0.99
0.38
-0.31
-1.06
-1.86
-2.67
-3.44
-4.10
-4.67
-5.22
-5.91
-6.85
-8.05
-9.33
-10.40
-10.95
-10.80
-9.98
-8.70
-7.20
-5.67
-4.16
-2.63
-1.02
0.66
2.34
3.89
5.20
6.20
6.90
7.36
7.66
7.85
7.98
8.05
8.07
7.99
7.81
7.51
7.11
6.61
6.06
5.51
4.98
4.49
4.03
3.60
3.14
2.65
2.11
1.58
1.09
0.65
0.26
-0.20
-0.80
-1.61
-2.60
-3.66
-4.66
-5.48
-6.08
-6.55
-7.04
-7.68
-8.56
-9.61
-10.67
-11.56
-12.10
-12.22
-11.88
-11.13
-9.95
-8.36
-6.37
-4.05
-1.56
0.88
3.04
4.77
6.00
6.76
7.14
7.26
7.23
7.17
7.18
7.33
7.58
7.88
8.08
8.07
7.79
7.31
6.71
6.14
5.69
5.38
5.14
4.90
4.57
4.08
3.45
2.71
1.92
1.17
0.52
-0.01
-0.43
-0.81
-1.26
-1.85
-2.65
-3.62
-4.69
-5.74
-6.70
-7.52
-8.23
-8.91
-9.63
-10.40
-11.16
-11.71
-11.84
-11.39
-10.35
-8.85
-7.10
-5.31
-3.54
-1.80
-0.04
1.73
3.42
4.87
5.96
6.66
7.08
7.35
7.59
7.81
7.93
7.87
7.57
7.07
6.50
6.00
5.67
5.55
5.57
5.63
5.61
5.41
4.98
4.30
3.44
2.50
1.65
1.03
0.69
0.57
0.49
0.24
-0.33
-1.20
-2.25
-3.27
-4.12
-4.75
-5.22
-5.65
-6.16
-6.83
-7.73
-8.81
-9.99
-11.09
-11.87
-12.10
-11.64
-10.51
-8.87
-6.96
-5.03
-3.26
-1.73
-0.43
0.70
1.76
2.83
3.98
5.18
6.30
7.20
7.74
7.93
7.87
7.73
7.65
7.64
7.63
7.52
7.26
6.91
6.55
6.22
5.84
5.28
4.44
3.36
2.26
1.37
0.86
0.70
0.71
0.66
0.36
-0.24
-1.07
-2.00
-2.91
-3.68
-4.21
-4.47
-4.49
-4.46
-4.61
-5.19
-6.31
-7.87
-9.59
-11.11
-12.12
-12.42
-12.02
-11.01
-9.56
-7.87
-6.10
-4.35
-2.70
-1.15
0.35
1.82
3.23
4.54
5.62
6.41
6.88
7.08
7.11
7.04
6.92
6.76
6.55
6.33
6.16
6.08
6.10
6.14
6.10
5.88
5.46
4.85
4.13
3.39
2.67
2.00
1.32
0.61
-0.15
-0.93
-1.67
-2.31
-2.83
-3.24
-3.59
-3.93
-4.32
-4.83
-5.48
-6.28
-7.19
-8.09
-8.81
-9.17
-9.07
-8.51
-7.60
-6.52
-5.39
-4.23
-2.98
-1.54
0.11
1.88
3.58
5.00
6.01
6.61
6.90
7.03
7.11
7.13
7.03
6.76
6.32
5.81
5.39
5.20
5.29
5.56
5.84
5.93
5.71
5.12
4.23
3.18
2.10
1.14
0.40
-0.07
-0.29
-0.38
-0.48
-0.76
-1.32
-2.14
-3.12
-4.08
-4.92
-5.59
-6.13
-6.62
-7.13
-7.70
-8.37
-9.12
-9.93
-10.71
-11.31
-11.55
-11.25
-10.34
-8.87
-7.03
-5.06
-3.16
-1.42
0.19
1.75
3.32
4.85
6.21
7.21
7.73
7.80
7.56
7.21
6.91
6.71
6.58
6.41
6.18
5.92
5.70
5.60
5.60
5.62
5.55
5.30
4.86
4.28
3.64
3.02
2.45
1.95
1.48
0.98
0.42
-0.19
-0.86
-1.56
-2.27
-2.94
-3.58
-4.17
-4.75
-5.34
-5.98
-6.72
-7.61
-8.62
-9.71
-10.71
-11.42
-11.64
-11.25
-10.27
-8.82
-7.11
-5.30
-3.52
-1.80
-0.14
1.42
2.85
4.06
4.99
5.63
6.01
6.18
6.22
6.17
6.10
6.06
6.10
6.24
6.42
6.57
6.56
6.34
5.90
5.33
4.75
4.27
3.95
3.76
3.62
3.45
3.20
2.85
2.41
1.91
1.37
0.81
0.23
-0.35
-0.93
-1.54
-2.21
-2.97
-3.83
-4.73
-5.61
-6.42
-7.14
-7.79
-8.37
-8.88
-9.26
-9.42
-9.32
-8.89
-8.14
-7.11
-5.83
-4.33
-2.66
-0.90
0.85
2.45
3.79
4.78
5.42
5.76
5.90
5.95
6.03
6.21
6.52
6.93
7.40
7.83
8.14
8.25
8.13
7.76
7.19
6.47
5.67
4.80
3.89
2.97
2.05
1.17
0.38
-0.32
-0.94
-1.50
-2.01
-2.51
-3.01
-3.56
-4.16
-4.81
-5.46
-6.05
-6.58
-7.13
-7.80
-8.68
-9.76
-10.89
-11.84
-12.40
-12.47
-12.08
-11.32
-10.25
-8.88
-7.16
-5.04
-2.61
-0.04
2.44
4.58
6.27
7.47
8.22
8.59
8.64
8.45
8.09
7.65
7.20
6.79
6.45
6.16
5.92
5.75
5.65
5.63
5.63
5.59
5.45
5.19
4.87
4.53
4.19
3.80
3.30
2.63
1.80
0.87
-0.08
-0.99
-1.83
-2.61
-3.33
-4.02
-4.70
-5.44
-6.32
-7.37
-8.61
-9.92
-11.15
-12.10
-12.58
-12.48
-11.78
-10.58
-9.05
-7.36
-5.63
-3.92
-2.23
-0.55
1.12
2.73
4.24
5.58
6.66
7.44
7.88
7.96
7.77
7.45
7.14
6.95
6.90
6.93
6.97
6.97
6.93
6.86
6.75
6.58
6.27
5.80
5.17
4.44
3.71
3.05
2.52
2.10
1.74
1.33
0.77
0.03
-0.88
-1.86
-2.79
-3.61
-4.32
-4.99
-5.68
-6.40
-7.14
-7.84
-8.50
-9.13
-9.74
-10.28
-10.60
-10.52
-9.89
-8.73
-7.15
-5.36
-3.55
-1.81
-0.17
1.40
2.87
4.14
5.06
5.53
5.56
5.30
5.01
4.88
4.99
5.28
5.59
5.78
5.79
5.65
5.45
5.22
4.97
4.66
4.27
3.77
3.20
2.58
1.96
1.34
0.74
0.16
-0.42
-1.04
-1.75
-2.55
-3.40
-4.21
-4.93
-5.55
-6.15
-6.83
-7.65
-8.59
-9.50
-10.23
-10.61
-10.57
-10.08
-9.22
-8.05
-6.66
-5.13
-3.55
-1.99
-0.50
0.89
2.12
3.16
3.95
4.51
4.91
5.26
5.71
6.29
6.94
7.54
7.91
7.99
7.82
7.50
7.16
6.84
6.47
5.99
5.35
4.62
3.91
3.33
2.88
2.44
1.85
1.01
-0.01
-1.03
-1.81
-2.25
-2.40
-2.51
-2.83
-3.52
-4.57
-5.86
-7.21
-8.51
-9.70
-10.70
-11.40
-11.66
-11.33
-10.42
-9.05
-7.46
-5.86
-4.33
-2.83
-1.26
0.45
2.26
4.02
5.54
6.69
7.44
7.85
8.05
8.15
8.21
8.21
8.11
7.87
7.46
6.93
6.36
5.87
5.49
5.20
4.89
4.40
3.67
2.74
1.72
0.78
0.02
-0.55
-1.01
-1.52
-2.16
-2.95
-3.81
-4.63
-5.32
-5.89
-6.44
-7.10
-7.96
-9.02
-10.18
-11.28
-12.11
-12.55
-12.50
-11.95
-10.94
-9.51
-7.75
-5.78
-3.74
-1.78
0.05
1.75
3.40
5.08
6.78
8.39
9.74
10.66
11.10
11.11
10.85
10.50
10.20
10.03
9.97
9.99
10.01
9.97
9.82
9.54
9.16
8.68
8.09
7.37
6.49
5.48
4.36
3.19
1.99
0.72
-0.64
-2.12
-3.61
-4.96
-6.03
-6.73
-7.14
-7.45
-7.89
-8.62
-9.68
-11.00
-12.41
-13.70
-14.70
-15.22
-15.16
-14.48
-13.22
-11.51
-9.50
-7.33
-5.12
-2.92
-0.78
1.26
3.15
4.83
6.25
7.36
8.11
8.51
8.62
8.55
8.44
8.40
8.43
8.47
8.43
8.27
8.00
7.66
7.25
6.75
6.08
5.23
4.27
3.36
2.63
2.10
1.66
1.15
0.44
-0.44
-1.33
-2.09
-2.63
-3.03
-3.46
-4.12
-5.07
-6.31
-7.69
-9.07
-10.31
-11.26
-11.77
-11.69
-10.94
-9.57
-7.79
-5.89
-4.15
-2.67
-1.38
-0.08
1.40
3.10
4.90
6.59
7.97
8.90
9.36
9.40
9.11
8.61
8.04
7.54
7.22
7.10
7.13
7.22
7.26
7.20
7.01
6.68
6.19
5.51
4.64
3.60
2.48
1.37
0.32
-0.63
-1.50
-2.33
-3.14
-3.91
-4.62
-5.28
-5.95
-6.69
-7.52
-8.44
-9.43
-10.45
-11.44
-12.36
-13.06
-13.39
-13.14
-12.19
-10.59
-8.52
-6.32
-4.26
-2.45
-0.87
0.66
2.28
4.02
5.76
7.30
8.40
8.96
9.01
8.73
8.35
8.08
7.95
7.89
7.75
7.45
6.97
6.41
5.88
5.44
5.05
4.59
4.00
3.24
2.41
1.62
0.99
0.58
0.37
0.25
0.07
-0.32
-1.00
-1.95
-3.02
-4.04
-4.94
-5.74
-6.58
-7.61
-8.88
-10.32
-11.75
-13.00
-13.97
-14.62
-14.99
-15.04
-14.71
-13.87
-12.44
-10.46
-8.02
-5.29
-2.41
0.47
3.24
5.74
7.80
9.22
9.88
9.79
9.11
8.12
7.08
6.20
5.55
5.12
4.91
4.93
5.22
5.81
6.59
7.39
7.94
8.05
7.63
6.75
5.56
4.26
2.99
1.83
0.81
-0.03
-0.70
-1.21
-1.59
-1.85
-2.02
-2.10
-2.15
-2.27
-2.64
-3.46
-4.82
-6.65
-8.66
-10.47
-11.72
-12.20
-11.89
-10.85
-9.23
-7.17
-4.81
-2.34
0.01
2.06
3.68
4.84
5.61
6.09
6.33
6.39
6.31
6.19
6.12
6.19
6.42
6.76
7.09
7.28
7.24
6.97
6.51
5.92
5.29
4.70
4.24
3.99
4.01
4.30
4.80
5.36
5.81
5.97
5.73
5.09
4.19
3.29
2.67
2.51
2.79
3.28
3.65
3.52
2.71
1.28
-0.52
-2.35
-3.94
-5.07
-5.60
-5.43
-4.59
-3.18
-1.27
1.02
3.48
5.94
8.32
10.61
12.74
14.42
15.42
15.72
15.45
14.75
13.67
12.25
10.50
8.38
5.67
2.41
-0.93
-3.79
-5.92
-7.42
-8.69
-10.27
-12.71
-16.75
-22.56
-29.51
-36.40
-41.99
-45.16
-44.95
-40.78
-30.76
-15.89
-0.20
12.13
19.42
22.30
22.42
21.48
20.65
20.33
20.04
19.30
18.09
16.71
15.31
13.83
12.12
10.05
7.65
4.87
1.99
-0.43
-1.95
-2.59
-2.73
-2.81
-3.14
-3.79
-4.89
-6.34
-7.87
-9.15
-10.02
-10.47
-10.53
-10.32
-9.98
-9.77
-9.84
-10.15
-10.50
-10.66
-10.52
-10.08
-9.42
-8.71
-8.10
-7.63
-7.22
-6.82
-6.26
-5.46
-4.46
-3.28
-1.96
-0.58
0.76
1.93
2.82
3.35
3.57
3.57
3.50
3.49
3.59
3.80
4.05
4.27
4.41
4.44
4.34
4.12
3.79
3.38
2.96
2.61
2.37
2.23
2.11
1.90
1.53
1.04
0.58
0.27
0.19
0.33
0.57
0.80
0.91
0.90
0.81
0.70
0.61
0.55
0.49
0.43
0.37
0.34
0.26
0.08
-0.21
-0.61
-1.05
-1.49
-1.85
-2.14
-2.43
-2.87
-3.55
-4.50
-5.68
-7.01
-8.49
-10.00
-11.50
-12.96
-14.40
-15.82
-17.17
-18.35
-19.33
-20.08
-20.39
-20.13
-19.38
-18.42
-17.60
-17.09
-16.81
-16.54
-15.96
-14.47
-11.63
-7.47
-2.39
3.12
8.77
14.52
20.40
26.31
32.50
38.97
45.42
51.43
56.77
61.72
66.69
71.91
73.73
69.34
58.29
43.02
27.06
13.00
1.86
-6.47
-12.41
-16.21
-17.25
-15.09
-10.28
-4.60
-0.40
0.66
-1.63
-5.97
-10.43
-13.09
-13.25
-11.63
-9.72
-8.72
-9.01
-10.16
-11.45
-12.36
-12.52
-11.88
-10.72
-9.40
-8.21
-7.21
-6.38
-5.64
-5.01
-4.47
-4.09
-3.95
-4.16
-4.75
-5.41
-5.97
-6.32
-6.50
-6.57
-6.59
-6.61
-6.64
-6.62
-6.53
-6.38
-6.25
-6.28
-6.57
-7.17
-8.00
-8.84
-9.44
-9.54
-9.08
-8.11
-6.81
-5.44
-4.19
-3.19
-2.42
-1.78
-1.13
-0.40
0.41
1.23
1.95
2.49
2.86
3.12
3.35
3.62
3.92
4.23
4.50
4.71
4.84
4.91
4.93
4.90
4.81
4.68
4.50
4.24
3.90
3.41
2.78
2.03
1.23
0.47
-0.19
-0.73
-1.18
-1.62
-2.14
-2.80
-3.64
-4.57
-5.44
-6.04
-6.22
-5.93
-5.24
-4.36
-3.47
-2.68
-2.02
-1.38
-0.66
0.25
1.36
2.60
3.88
5.06
6.03
6.73
7.14
7.29
7.27
7.15
7.02
6.91
6.82
6.71
6.54
6.26
5.83
5.23
4.47
3.59
2.62
1.62
0.62
-0.32
-1.18
-1.92
-2.49
-2.88
-3.08
-3.14
-3.09
-3.03
-3.04
-3.18
-3.47
-3.91
-4.47
-5.09
-5.75
-6.39
-6.93
-7.27
-7.33
-7.08
-6.59
-5.99
-5.38
-4.81
-4.22
-3.50
-2.55
-1.36
-0.02
1.31
2.49
3.40
4.06
4.51
4.80
4.92
4.81
4.42
3.71
2.74
1.66
0.66
-0.10
-0.56
-0.66
-0.44
0.06
0.79
1.65
2.48
3.08
3.30
3.09
2.54
1.82
1.12
0.54
0.11
-0.25
-0.63
-1.05
-1.49
-1.89
-2.21
-2.50
-2.80
-3.19
-3.66
-4.12
-4.45
-4.56
-4.44
-4.13
-3.70
-3.23
-2.74
-2.25
-1.76
-1.33
-0.97
-0.69
-0.46
-0.26
-0.10
-0.03
-0.09
-0.29
-0.53
-0.71
-0.72
-0.57
-0.33
-0.15
-0.14
-0.32
-0.65
-1.01
-1.32
-1.55
-1.70
-1.77
-1.74
-1.56
-1.20
-0.69
-0.13
0.35
0.66
0.78
0.77
0.73
0.76
0.88
1.06
1.25
1.41
1.48
1.47
1.35
1.12
0.77
0.30
-0.22
-0.71
-1.04
-1.13
-0.99
-0.69
-0.38
-0.19
-0.13
-0.13
-0.07
0.16
0.55
0.98
1.28
1.36
1.22
0.96
0.73
0.59
0.56
0.57
0.58
0.62
0.73
0.94
1.21
1.43
1.51
1.39
1.12
0.80
0.52
0.34
0.27
0.28
0.37
0.53
0.77
1.04
1.30
1.45
1.44
1.25
0.92
0.51
0.09
-0.28
-0.56
-0.75
-0.87
-0.98
-1.11
-1.27
-1.44
-1.58
-1.70
-1.80
-1.91
-2.03
-2.07
-1.91
-1.43
-0.61
0.44
1.54
2.47
3.10
3.43
3.53
3.52
3.48
3.42
3.32
3.14
2.90
2.64
2.45
2.39
2.47
2.63
2.79
2.84
2.72
2.42
2.00
1.55
1.15
0.84
0.60
0.40
0.19
-0.05
-0.30
-0.51
-0.65
-0.73
-0.81
-0.98
-1.30
-1.79
-2.40
-3.08
-3.75
-4.46
-5.24
-6.16
-7.26
-8.45
-9.60
-10.52
-11.09
-11.26
-11.08
-10.68
-10.18
-9.68
-9.25
-8.96
-8.83
-8.87
-9.01
-9.07
-8.82
-8.06
-6.66
-4.70
-2.45
-0.30
1.39
2.38
2.61
2.22
1.47
0.67
0.15
0.17
0.89
2.34
4.42
6.87
9.36
11.60
13.41
14.77
15.76
16.46
16.81
16.61
15.56
13.40
10.10
5.90
1.25
-3.31
-7.36
-10.70
-13.40
-15.79
-18.30
-21.31
-25.05
-29.41
-33.94
-37.96
-40.78
-41.86
-41.03
-38.46
-34.51
-29.61
-24.11
-18.27
-12.32
-6.51
-1.14
3.55
7.45
10.58
13.06
15.05
16.61
17.76
18.50
18.87
19.01
19.11
19.29
19.58
19.89
20.07
20.00
19.63
19.07
18.48
17.98
17.67
17.53
17.50
17.51
17.51
17.46
17.30
16.98
16.44
15.67
14.73
13.71
12.71
11.79
10.94
10.11
9.29
8.48
7.70
6.93
6.11
5.17
4.07
2.85
1.65
0.62
-0.11
-0.52
-0.67
-0.69
-0.70
-0.75
-0.86
-1.01
-1.12
-1.13
-0.94
-0.48
0.29
1.29
2.35
3.28
3.89
4.11
4.03
3.81
3.61
3.52
3.48
3.37
3.04
2.44
1.61
0.68
-0.19
-0.88
-1.32
-1.50
-1.43
-1.18
-0.83
-0.46
-0.16
-0.01
-0.05
-0.30
-0.74
-1.31
-1.95
-2.58
-3.11
-3.47
-3.65
-3.70
-3.68
-3.66
-3.64
-3.56
-3.34
-2.91
-2.28
-1.51
-0.71
0.04
0.62
1.00
1.11
0.94
0.51
-0.09
-0.71
-1.20
-1.45
-1.45
-1.23
-0.90
-0.51
-0.06
0.46
1.05
1.65
2.14
2.37
2.25
1.82
1.18
0.52
-0.02
-0.31
-0.30
0.00
0.53
1.18
1.83
2.36
2.70
2.81
2.66
2.23
1.50
0.47
-0.80
-2.21
-3.61
-4.86
-5.87
-6.60
-7.05
-7.22
-7.09
-6.67
-5.96
-5.00
-3.86
-2.60
-1.32
-0.10
0.97
1.80
2.35
2.62
2.68
2.59
2.40
2.16
1.89
1.62
1.37
1.18
1.06
1.03
1.07
1.19
1.37
1.57
1.75
1.86
1.84
1.69
1.41
1.01
0.57
0.14
-0.20
-0.40
-0.47
-0.46
-0.46
-0.55
-0.76
-1.08
-1.44
-1.82
-2.20
-2.64
-3.17
-3.78
-4.39
-4.89
-5.13
-5.04
-4.64
-4.02
-3.34
-2.76
-2.37
-2.12
-1.89
-1.54
-1.00
-0.31
0.41
0.99
1.36
1.52
1.56
1.58
1.63
1.72
1.79
1.82
1.80
1.72
1.58
1.34
1.00
0.59
0.20
-0.07
-0.16
-0.09
0.05
0.16
0.15
0.05
-0.10
-0.23
-0.36
-0.55
-0.86
-1.30
-1.77
-2.16
-2.42
-2.56
-2.67
-2.87
-3.21
-3.67
-4.18
-4.62
-4.91
-4.98
-4.79
-4.35
-3.70
-2.90
-2.03
-1.18
-0.38
0.32
0.91
1.37
1.71
1.98
2.25
2.57
2.98
3.43
3.84
4.09
4.11
3.91
3.57
3.21
2.96
2.86
2.85
2.84
2.71
2.41
1.98
1.51
1.10
0.79
0.57
0.37
0.15
-0.10
-0.35
-0.56
-0.77
-1.02
-1.35
-1.77
-2.19
-2.54
-2.79
-3.00
-3.27
-3.70
-4.25
-4.82
-5.25
-5.39
-5.16
-4.57
-3.70
-2.63
-1.47
-0.32
0.69
1.45
1.93
2.18
2.29
2.37
2.48
2.61
2.70
2.71
2.66
2.56
2.47
2.41
2.35
2.27
2.17
2.07
2.02
2.02
2.07
2.10
2.04
1.85
1.52
1.11
0.69
0.34
0.05
-0.22
-0.54
-0.98
-1.52
-2.08
-2.50
-2.66
-2.56
-2.31
-2.16
-2.32
-2.90
-3.83
-4.90
-5.80
-6.33
-6.37
-5.98
-5.27
-4.39
-3.43
-2.44
-1.44
-0.44
0.53
1.44
2.26
2.99
3.61
4.09
4.39
4.44
4.24
3.83
3.32
2.86
2.57
2.49
2.56
2.66
2.69
2.59
2.39
2.15
1.93
1.78
1.64
1.46
1.16
0.72
0.18
-0.39
-0.91
-1.33
-1.63
-1.82
-1.91
-1.95
-1.93
-1.90
-1.90
-2.01
-2.30
-2.82
-3.55
-4.37
-5.15
-5.74
-6.04
-6.00
-5.62
-4.94
-4.05
-3.04
-2.05
-1.21
-0.57
-0.15
0.17
0.50
0.96
1.55
2.17
2.65
2.87
2.79
2.52
2.25
2.11
2.15
2.29
2.36
2.22
1.87
1.44
1.16
1.19
1.55
2.06
2.47
2.53
2.17
1.52
0.79
0.18
-0.21
-0.43
-0.60
-0.82
-1.14
-1.51
-1.85
-2.11
-2.29
-2.45
-2.66
-2.96
-3.31
-3.66
-3.94
-4.09
-4.13
-4.11
-4.07
-4.02
-3.92
-3.70
-3.25
-2.54
-1.57
-0.42
0.80
1.96
2.97
3.76
4.33
4.70
4.93
5.07
5.14
5.15
5.06
4.83
4.48
4.02
3.54
3.12
2.82
2.64
2.56
2.50
2.39
2.21
1.95
1.64
1.31
0.95
0.56
0.12
-0.34
-0.80
-1.23
-1.62
-1.95
-2.24
-2.45
-2.58
-2.65
-2.74
-2.94
-3.34
-3.95
-4.66
-5.31
-5.71
-5.75
-5.42
-4.79
-3.98
-3.10
-2.20
-1.29
-0.38
0.52
1.37
2.10
2.68
3.10
3.39
3.62
3.84
4.06
4.25
4.33
4.25
4.00
3.66
3.33
3.09
2.97
2.91
2.78
2.50
2.05
1.52
1.04
0.72
0.58
0.57
0.58
0.51
0.33
0.09
-0.18
-0.47
-0.86
-1.38
-2.05
-2.78
-3.40
-3.77
-3.84
-3.71
-3.58
-3.67
-4.10
-4.83
-5.67
-6.34
-6.60
-6.35
-5.62
-4.62
-3.55
-2.56
-1.70
-0.90
-0.05
0.92
1.96
2.94
3.69
4.09
4.15
3.96
3.70
3.48
3.35
3.28
3.22
3.13
3.06
3.08
3.23
3.50
3.78
3.92
3.81
3.45
2.92
2.33
1.81
1.38
0.99
0.56
0.07
-0.45
-0.90
-1.17
-1.26
-1.24
-1.29
-1.57
-2.16
-2.98
-3.82
-4.48
-4.88
-5.03
-5.11
-5.30
-5.71
-6.30
-6.88
-7.20
-7.10
-6.53
-5.61
-4.57
-3.60
-2.76
-2.04
-1.35
-0.64
0.09
0.76
1.32
1.80
2.25
2.76
3.33
3.86
4.18
4.23
4.04
3.73
3.50
3.44
3.54
3.70
3.82
3.82
3.67
3.40
3.01
2.52
1.99
1.48
1.10
0.90
0.86
0.89
0.89
0.78
0.57
0.30
0.04
-0.18
-0.36
-0.54
-0.73
-0.96
-1.25
-1.61
-2.11
-2.76
-3.55
-4.38
-5.05
-5.36
-5.16
-4.47
-3.42
-2.22
-1.09
-0.12
0.68
1.40
2.13
2.93
3.78
4.63
5.38
5.95
6.31
6.46
6.43
6.28
6.05
5.73
5.37
4.99
4.70
4.59
4.70
4.97
5.23
5.26
4.90
4.13
3.04
1.82
0.65
-0.35
-1.14
-1.74
-2.18
-2.49
-2.69
-2.82
-2.92
-3.03
-3.17
-3.37
-3.61
-3.91
-4.31
-4.86
-5.62
-6.54
-7.52
-8.35
-8.82
-8.81
-8.31
-7.46
-6.46
-5.48
-4.61
-3.83
-3.02
-2.10
-1.01
0.20
1.40
2.45
3.21
3.59
3.58
3.25
2.77
2.34
2.14
2.27
2.70
3.28
3.83
4.15
4.19
3.94
3.51
3.01
2.52
2.10
1.75
1.48
1.28
1.13
1.00
0.88
0.73
0.52
0.26
-0.08
-0.45
-0.81
-1.11
-1.31
-1.46
-1.63
-1.93
-2.46
-3.24
-4.18
-5.11
-5.86
-6.30
-6.39
-6.12
-5.51
-4.60
-3.45
-2.16
-0.92
0.12
0.87
1.36
1.73
2.13
2.65
3.23
3.71
3.97
3.99
3.89
3.84
3.94
4.19
4.48
4.65
4.64
4.46
4.21
3.96
3.75
3.57
3.37
3.15
2.89
2.59
2.20
1.70
1.10
0.49
-0.02
-0.34
-0.47
-0.50
-0.58
-0.77
-1.04
-1.30
-1.47
-1.54
-1.63
-1.88
-2.33
-2.94
-3.60
-4.18
-4.65
-5.00
-5.28
-5.47
-5.49
-5.25
-4.66
-3.76
-2.61
-1.35
-0.11
0.99
1.87
2.48
2.80
2.88
2.77
2.58
2.38
2.24
2.13
1.99
1.77
1.46
1.12
0.85
0.72
0.79
1.01
1.28
1.46
1.49
1.35
1.11
0.79
0.44
0.02
-0.48
-1.00
-1.44
-1.68
-1.65
-1.42
-1.14
-0.99
-1.11
-1.51
-2.10
-2.73
-3.29
-3.71
-3.99
-4.19
-4.36
-4.55
-4.78
-5.01
-5.14
-5.08
-4.76
-4.20
-3.48
-2.69
-1.90
-1.10
-0.28
0.56
1.38
2.09
2.63
2.97
3.16
3.22
3.20
3.13
3.04
2.99
3.05
3.24
3.50
3.72
3.74
3.49
3.00
2.39
1.82
1.40
1.15
1.03
0.95
0.86
0.72
0.57
0.40
0.25
0.11
-0.04
-0.24
-0.50
-0.85
-1.25
-1.68
-2.11
-2.51
-2.88
-3.21
-3.48
-3.64
-3.63
-3.43
-3.08
-2.64
-2.16
-1.69
-1.18
-0.61
0.02
0.67
1.28
1.81
2.22
2.51
2.68
2.72
2.65
2.54
2.44
2.43
2.52
2.67
2.83
2.95
3.03
3.03
2.92
2.66
2.22
1.60
0.89
0.25
-0.21
-0.39
-0.33
-0.13
0.06
0.10
-0.13
-0.66
-1.46
-2.38
-3.25
-3.91
-4.26
-4.35
-4.30
-4.30
-4.45
-4.76
-5.11
-5.38
-5.43
-5.22
-4.77
-4.12
-3.31
-2.36
-1.30
-0.20
0.82
1.68
2.33
2.80
3.16
3.45
3.68
3.79
3.72
3.47
3.10
2.71
2.42
2.25
2.21
2.26
2.37
2.50
2.61
2.64
2.51
2.17
1.65
1.05
0.50
0.08
-0.15
-0.25
-0.28
-0.30
-0.33
-0.40
-0.55
-0.83
-1.28
-1.92
-2.68
-3.44
-4.10
-4.57
-4.84
-4.94
-4.93
-4.89
-4.83
-4.71
-4.45
-3.97
-3.24
-2.34
-1.37
-0.46
0.35
1.07
1.80
2.56
3.34
3.99
4.40
4.51
4.39
4.17
4.01
3.93
3.88
3.76
3.50
3.14
2.77
2.50
2.37
2.34
2.31
2.22
2.04
1.77
1.45
1.10
0.73
0.32
-0.12
-0.58
-1.03
-1.45
-1.82
-2.15
-2.44
-2.71
-2.97
-3.27
-3.62
-4.04
-4.52
-5.06
-5.63
-6.19
-6.67
-6.97
-6.99
-6.70
-6.10
-5.27
-4.25
-3.08
-1.81
-0.48
0.79
1.86
2.62
3.05
3.24
3.36
3.52
3.73
3.90
3.94
3.78
3.50
3.22
3.05
3.02
3.07
3.12
3.07
2.94
2.74
2.54
2.33
2.12
1.86
1.56
1.23
0.90
0.63
0.43
0.31
0.23
0.14
-0.01
-0.26
-0.60
-1.01
-1.42
-1.77
-2.03
-2.27
-2.56
-2.97
-3.49
-3.99
-4.31
-4.28
-3.82
-2.98
-1.88
-0.67
0.53
1.64
2.62
3.42
4.01
4.39
4.63
4.81
5.01
5.23
5.40
5.41
5.18
4.73
4.19
3.72
3.47
3.44
3.53
3.58
3.46
3.15
2.75
2.36
2.09
1.91
1.72
1.40
0.88
0.20
-0.50
-1.08
-1.48
-1.77
-2.03
-2.34
-2.66
-2.92
-3.06
-3.13
-3.26
-3.60
-4.17
-4.89
-5.53
-5.86
-5.74
-5.17
-4.30
-3.34
-2.46
-1.72
-1.07
-0.41
0.35
1.20
2.09
2.93
3.65
4.20
4.57
4.74
4.70
4.45
4.04
3.59
3.23
3.06
3.04
3.07
3.02
2.83
2.52
2.15
1.78
1.47
1.23
1.06
0.96
0.91
0.84
0.69
0.40
-0.02
-0.50
-0.92
-1.19
-1.31
-1.35
-1.40
-1.55
-1.81
-2.16
-2.55
-3.00
-3.52
-4.14
-4.81
-5.45
-5.89
-5.99
-5.67
-4.97
-4.01
-2.94
-1.91
-1.00
-0.18
0.57
1.30
2.04
2.74
3.34
3.79
4.01
3.95
3.63
3.12
2.55
2.09
1.86
1.90
2.14
2.43
2.62
2.59
2.32
1.89
1.41
0.99
0.67
0.43
0.21
-0.03
-0.33
-0.63
-0.88
-1.03
-1.11
-1.20
-1.41
-1.81
-2.38
-3.04
-3.63
-4.03
-4.20
-4.14
-3.97
-3.85
-3.88
-4.14
-4.59
-5.10
-5.45
-5.46
-5.02
-4.11
-2.87
-1.47
-0.12
1.06
1.97
2.62
3.02
3.25
3.36
3.42
3.49
3.58
3.70
3.82
3.95
4.06
4.17
4.24
4.24
4.11
3.84
3.46
3.07
2.78
2.66
2.67
2.71
2.62
2.29
1.73
1.03
0.35
-0.18
-0.52
-0.70
-0.82
-0.91
-1.00
-1.10
-1.22
-1.40
-1.73
-2.25
-2.92
-3.66
-4.30
-4.71
-4.81
-4.59
-4.14
-3.59
-3.04
-2.53
-2.03
-1.48
-0.81
-0.02
0.82
1.60
2.19
2.54
2.66
2.64
2.57
2.53
2.55
2.60
2.62
2.57
2.43
2.24
2.07
1.95
1.91
1.93
1.94
1.90
1.77
1.57
1.31
1.01
0.67
0.26
-0.21
-0.72
-1.21
-1.65
-2.00
-2.29
-2.52
-2.73
-2.91
-3.07
-3.20
-3.27
-3.31
-3.38
-3.53
-3.81
-4.18
-4.57
-4.83
-4.85
-4.57
-4.03
-3.33
-2.61
-1.94
-1.30
-0.62
0.15
1.03
1.94
2.74
3.29
3.52
3.43
3.16
2.85
2.65
2.62
2.70
2.77
2.73
2.52
2.16
1.76
1.39
1.12
0.94
0.80
0.67
0.54
0.42
0.34
0.27
0.21
0.14
0.04
-0.08
-0.23
-0.46
-0.81
-1.32
-1.98
-2.75
-3.57
-4.37
-5.09
-5.64
-5.96
-6.02
-5.89
-5.69
-5.58
-5.66
-5.89
-6.12
-6.13
-5.79
-5.11
-4.25
-3.38
-2.62
-1.94
-1.21
-0.35
0.67
1.72
2.61
3.25
3.60
3.78
3.90
4.02
4.15
4.25
4.28
4.26
4.24
4.24
4.25
4.19
3.97
3.57
3.07
2.57
2.20
1.99
1.88
1.78
1.62
1.40
1.17
1.01
0.95
0.95
0.91
0.70
0.27
-0.33
-0.95
-1.46
-1.78
-1.94
-2.06
-2.23
-2.53
-2.89
-3.22
-3.37
-3.28
-2.94
-2.40
-1.73
-1.00
-0.27
0.44
1.06
1.57
1.95
2.22
2.46
2.73
3.08
3.47
3.82
4.03
4.04
3.82
3.45
3.00
2.57
2.25
2.07
1.99
1.96
1.90
1.76
1.55
1.31
1.06
0.84
0.63
0.37
0.05
-0.34
-0.74
-1.08
-1.34
-1.55
-1.80
-2.15
-2.61
-3.08
-3.43
-3.54
-3.41
-3.16
-3.02
-3.20
-3.77
-4.63
-5.51
-6.11
-6.22
-5.79
-4.97
-3.98
-2.98
-2.04
-1.15
-0.26
0.65
1.53
2.33
3.00
3.54
3.95
4.22
4.32
4.26
4.06
3.77
3.49
3.23
2.99
2.73
2.45
2.17
1.95
1.84
1.78
1.70
1.50
1.15
0.70
0.26
-0.06
-0.20
-0.18
-0.12
-0.19
-0.51
-1.12
-1.97
-2.89
-3.73
-4.37
-4.82
-5.12
-5.40
-5.70
-6.04
-6.40
-6.78
-7.21
-7.69
-8.18
-8.54
-8.62
-8.29
-7.60
-6.67
-5.68
-4.77
-3.96
-3.21
-2.45
-1.68
-0.97
-0.44
-0.18
-0.23
-0.53
-0.95
-1.30
-1.44
-1.28
-0.82
-0.17
0.57
1.27
1.86
2.32
2.65
2.85
2.90
2.84
2.73
2.68
2.79
3.07
3.48
3.92
4.30
4.62
4.88
5.17
5.51
5.91
6.31
6.65
6.88
6.95
6.89
6.73
6.55
6.42
6.36
6.38
6.42
6.45
6.45
6.43
6.38
6.31
6.20
6.06
5.92
5.83
5.82
5.86
5.87
5.70
5.24
4.42
3.30
2.00
0.67
-0.56
-1.61
-2.44
-3.05
-3.45
-3.68
-3.78
-3.84
-3.94
-4.15
-4.45
-4.76
-4.91
-4.76
-4.23
-3.40
-2.43
-1.55
-0.93
-0.63
-0.63
-0.81
-1.08
-1.39
-1.73
-2.14
-2.65
-3.24
-3.86
-4.40
-4.78
-4.93
-4.83
-4.51
-4.04
-3.48
-2.91
-2.35
-1.79
-1.17
-0.43
0.43
1.42
2.45
3.42
4.21
4.75
5.00
4.96
4.68
4.24
3.69
3.14
2.63
2.22
1.88
1.57
1.25
0.91
0.61
0.41
0.37
0.44
0.54
0.56
0.44
0.26
0.15
0.29
0.76
1.53
2.48
3.37
3.99
4.16
3.82
2.99
1.79
0.39
-1.05
-2.37
-3.45
-4.21
-4.61
-4.66
-4.43
-4.04
-3.63
-3.34
-3.20
-3.14
-3.02
-2.73
-2.20
-1.45
-0.58
0.32
1.16
1.88
2.43
2.75
2.81
2.64
2.30
1.90
1.56
1.36
1.34
1.47
1.71
1.94
2.07
2.03
1.82
1.49
1.09
0.66
0.25
-0.15
-0.51
-0.78
-0.90
-0.84
-0.64
-0.44
-0.37
-0.53
-0.90
-1.38
-1.82
-2.13
-2.30
-2.43
-2.60
-2.89
-3.31
-3.80
-4.23
-4.50
-4.51
-4.24
-3.72
-3.04
-2.30
-1.57
-0.94
-0.40
0.04
0.45
0.89
1.41
2.03
2.69
3.29
3.72
3.93
3.93
3.77
3.51
3.19
2.82
2.40
1.98
1.63
1.46
1.50
1.73
2.02
2.23
2.22
1.96
1.48
0.86
0.19
-0.44
-0.97
-1.35
-1.57
-1.64
-1.64
-1.67
-1.89
-2.37
-3.14
-4.12
-5.17
-6.17
-7.04
-7.73
-8.26
-8.65
-8.88
-8.97
-8.86
-8.51
-7.86
-6.92
-5.77
-4.57
-3.50
-2.65
-2.00
-1.37
-0.55
0.58
1.96
3.40
4.65
5.53
6.05
6.32
6.48
6.60
6.64
6.56
6.40
6.32
6.51
7.08
7.94
8.84
9.48
9.67
9.43
8.97
8.54
8.34
8.38
8.54
8.62
8.52
8.24
7.88
7.55
7.30
7.13
6.95
6.68
6.27
5.75
5.18
4.64
4.18
3.75
3.29
2.72
2.00
1.15
0.27
-0.54
-1.21
-1.81
-2.47
-3.32
-4.43
-5.75
-7.09
-8.24
-9.01
-9.34
-9.26
-8.90
-8.44
-8.05
-7.85
-7.87
-8.09
-8.43
-8.77
-9.06
-9.26
-9.36
-9.35
-9.23
-8.97
-8.61
-8.22
-7.91
-7.80
-7.97
-8.40
-9.02
-9.73
-10.44
-11.08
-11.61
-11.98
-12.15
-12.05
-11.63
-10.90
-9.89
-8.71
-7.49
-6.35
-5.36
-4.52
-3.74
-2.92
-1.96
-0.88
0.25
1.30
2.16
2.79
3.23
3.55
3.82
4.07
4.25
4.35
4.37
4.36
4.43
4.65
5.05
5.54
6.04
6.46
6.74
6.89
6.91
6.75
6.35
5.68
4.78
3.78
2.85
2.15
1.73
1.55
1.49
1.42
1.25
0.92
0.41
-0.29
-1.10
-1.90
-2.55
-2.89
-2.81
-2.29
-1.40
-0.27
0.94
2.08
3.03
3.75
4.25
4.60
4.91
5.24
5.61
6.00
6.39
6.76
7.12
7.45
7.73
7.95
8.06
8.05
7.94
7.88
8.02
8.42
9.02
9.61
10.03
10.14
9.96
9.63
9.44
9.61
10.12
10.74
11.19
11.30
11.03
10.42
9.56
8.63
7.71
6.82
5.91
5.01
4.24
3.74
3.51
2.74
1.07
-1.25
-3.54
-5.37
-6.76
-7.86
-9.02
-10.38
-11.81
-12.88
-13.29
-12.94
-12.10
-11.19
-10.53
-10.29
-10.64
-11.65
-13.23
-15.26
-17.67
-20.41
-23.24
-25.60
-26.05
-23.62
-18.28
-10.68
-1.49
8.76
19.34
29.06
36.31
39.42
37.29
30.14
19.73
8.72
-0.42
-6.32
-9.11
-9.49
-8.31
-6.28
-3.71
-0.60
2.92
6.30
8.70
9.51
8.90
7.77
7.31
8.53
11.66
15.88
19.47
20.54
18.13
12.87
6.64
1.66
-0.42
0.75
3.90
6.58
6.22
1.68
-6.11
-14.73
-21.48
-24.47
-23.16
-18.30
-11.56
-5.00
-0.60
-0.20
-5.75
-18.60
-38.14
-59.30
-73.22
-71.49
-52.89
-25.18
0.03
14.23
16.09
11.01
7.12
10.15
20.51
33.60
43.43
46.05
40.83
29.70
15.51
0.66
-13.55
-26.85
-39.64
-51.86
-62.91
-72.16
-79.40
-84.65
-87.25
-86.45
-79.52
-64.86
-42.72
-15.74
11.55
34.35
49.50
56.64
57.81
55.93
52.90
49.34
45.02
39.63
33.43
27.11
21.25
15.52
8.77
-0.74
-13.82
-29.66
-45.69
-58.38
-64.81
-63.91
-57.17
-47.48
-39.32
-36.23
-38.59
-42.98
-43.49
-34.43
-13.27
18.04
53.94
87.70
114.36
132.16
142.02
145.78
144.55
138.14
125.93
108.11
86.50
64.41
45.50
32.43
25.99
24.98
26.65
27.58
24.54
15.35
-0.38
-20.96
-42.98
-61.94
-73.28
-73.42
-60.83
-37.16
-7.90
18.45
32.63
28.06
4.06
-32.99
-71.27
-97.88
-103.87
-87.57
-54.63
-15.02
21.21
47.29
61.03
63.90
59.15
50.29
40.25
31.23
24.58
20.33
16.54
9.28
-5.99
-32.13
-67.87
-106.93
-139.56
-156.21
-151.52
-126.68
-88.96
-48.37
-13.48
11.86
29.02
42.49
56.58
72.91
89.78
103.42
110.08
107.47
94.81
71.97
39.10
-2.95
-51.20
-99.36
-138.23
-158.07
-152.09
-119.29
-65.37
-0.89
62.10
113.45
147.12
161.59
158.71
142.14
115.96
83.96
49.47
15.33
-16.00
-42.54
-63.14
-77.78
-87.63
-94.54
-100.05
-104.52
-106.77
-104.61
-95.87
-79.75
-57.42
-31.81
-6.70
14.45
29.51
38.15
41.62
42.21
42.27
43.58
46.92
52.04
57.98
63.59
67.97
70.61
71.33
69.95
66.14
59.41
49.34
35.90
19.75
2.15
-15.33
-31.26
-44.72
-55.36
-63.12
-67.81
-68.66
-64.50
-54.39
-38.45
-18.43
2.53
20.92
34.12
41.05
42.00
37.56
27.55
10.94
-13.14
-43.73
-77.06
-107.10
-127.68
-135.00
-129.05
-113.27
-92.44
-70.61
-50.22
-32.57
-19.01
-11.20
-10.33
-15.61
-23.52
-28.69
-26.13
-13.58
7.59
33.35
59.09
81.17
97.17
105.15
103.13
89.70
65.55
34.73
4.26
-18.20
-27.40
-22.51
-7.05
13.28
33.11
49.49
61.88
70.86
76.71
78.61
74.95
64.27
46.08
21.37
-7.36
-36.35
-60.91
-76.39
-79.35
-68.83
-47.06
-19.20
8.20
29.46
41.46
44.43
40.85
33.89
25.92
17.86
9.39
-0.30
-11.90
-25.84
-41.69
-58.23
-73.02
-82.26
-81.78
-68.90
-44.00
-11.04
23.37
52.23
69.51
71.68
58.47
32.88
0.79
-29.88
-50.72
-55.38
-41.62
-13.63
19.31
46.83
61.80
63.29
56.68
51.16
51.89
62.74
82.20
103.32
117.77
120.10
109.26
87.66
59.41
28.77
-0.24
-25.01
-44.10
-56.72
-62.74
-62.74
-58.07
-50.58
-42.55
-36.02
-32.37
-31.93
-33.54
-35.14
-34.80
-31.57
-25.84
-19.13
-13.12
-9.24
-8.07
-9.02
-10.76
-11.92
-11.67
-9.98
-7.52
-5.14
-3.63
-3.37
-4.22
-5.63
-7.03
-8.01
-8.46
-8.43
-8.04
-7.38
-6.60
-5.83
-5.16
-4.69
-4.47
-4.49
-4.72
-5.10
-5.62
-6.34
-7.30
-8.39
-9.48
-10.41
-11.09
-11.55
-11.89
-12.24
-12.69
-13.28
-13.80
-13.99
-13.65
-12.71
-11.23
-9.30
-6.94
-4.08
-0.72
3.21
7.62
12.19
16.50
20.15
23.00
25.15
26.81
27.32
26.17
23.28
19.28
15.04
11.20
8.03
5.48
3.57
2.08
1.05
0.60
0.76
1.44
2.35
3.34
4.20
4.88
5.35
5.73
5.82
5.55
4.93
3.93
2.34
-0.41
-4.76
-10.53
-16.64
-21.43
-23.37
-21.79
-17.67
-12.10
-6.44
-1.70
1.80
4.35
6.42
8.35
9.99
10.88
10.57
8.81
5.78
2.44
0.09
-0.25
1.61
4.87
7.97
9.29
7.68
3.15
-2.91
-8.29
-10.92
-9.85
-5.75
-0.66
2.97
3.14
-0.54
-6.56
-12.18
-14.83
-13.25
-7.78
0.10
8.87
16.50
19.91
15.19
-0.33
-25.67
-55.19
-79.59
-89.26
-78.79
-50.17
-12.50
22.06
43.89
49.84
43.60
32.54
23.31
18.62
17.08
15.60
12.21
7.52
4.10
4.21
8.19
14.10
18.87
19.89
16.51
10.09
3.46
-0.70
-1.12
1.66
5.68
8.64
8.96
6.40
2.10
-2.14
-4.71
-4.96
-3.29
-0.88
0.95
1.34
0.24
-1.72
-3.53
-4.36
-3.92
-2.45
-0.63
0.85
1.50
1.21
0.17
-1.19
-2.49
-3.44
-3.95
-4.05
-3.84
-3.45
-2.97
-2.50
-2.08
-1.79
-1.66
-1.72
-1.92
-2.14
-2.29
-2.27
-2.04
-1.66
-1.23
-0.92
-0.85
-1.09
-1.62
-2.28
-2.90
-3.27
-3.31
-3.03
-2.59
-2.14
-1.81
-1.61
-1.49
-1.35
-1.14
-0.86
-0.53
-0.19
0.12
0.39
0.60
0.71
0.71
0.59
0.40
0.23
0.13
0.08
0.03
-0.13
-0.45
-0.94
-1.53
-2.14
-2.71
-3.21
-3.63
-3.95
-4.12
-4.09
-3.83
-3.34
-2.69
-1.95
-1.24
-0.63
-0.18
0.09
0.23
0.30
0.41
0.64
1.03
1.52
1.99
2.32
2.39
2.20
1.85
1.46
1.15
0.93
0.79
0.66
0.52
0.40
0.35
0.37
0.42
0.42
0.33
0.17
0.01
-0.12
-0.23
-0.38
-0.65
-1.04
-1.49
-1.90
-2.16
-2.28
-2.32
-2.38
-2.57
-2.90
-3.28
-3.60
-3.72
-3.60
-3.28
-2.87
-2.46
-2.12
-1.80
-1.42
-0.91
-0.27
0.40
0.99
1.39
1.61
1.71
1.80
1.94
2.15
2.36
2.51
2.55
2.47
2.33
2.18
2.06
1.97
1.87
1.73
1.50
1.22
0.94
0.71
0.53
0.38
0.23
0.03
-0.24
-0.54
-0.84
-1.12
-1.39
-1.66
-1.97
-2.35
-2.84
-3.44
-4.12
-4.83
-5.44
-5.85
-6.01
-5.90
-5.58
-5.13
-4.59
-3.99
-3.36
-2.75
-2.22
-1.77
-1.33
-0.77
0.03
1.09
2.27
3.34
4.10
4.45
4.49
4.40
4.36
4.45
4.62
4.70
4.57
4.18
3.63
3.11
2.78
2.73
2.90
3.15
3.33
3.33
3.17
2.91
2.67
2.60
2.81
3.40
4.43
5.91
7.75
9.77
11.69
13.18
13.94
13.79
12.69
10.78
8.32
5.60
2.87
0.32
-1.94
-3.87
-5.45
-6.70
-7.68
-8.46
-9.15
-9.77
-10.31
-10.66
-10.72
-10.45
-9.88
-9.08
-8.11
-6.97
-5.59
-3.87
-1.81
0.50
2.81
4.81
6.16
6.69
6.35
5.26
3.63
1.68
-0.36
-2.33
-4.04
-5.36
-6.22
-6.62
-6.71
-6.66
-6.63
-6.69
-6.74
-6.57
-5.98
-4.86
-3.29
-1.51
0.13
1.32
1.87
1.79
1.29
0.68
0.26
0.22
0.56
1.13
1.71
2.11
2.24
2.14
1.92
1.70
1.53
1.31
0.84
-0.09
-1.62
-3.69
-6.01
-8.13
-9.60
-10.08
-9.53
-8.15
-6.30
-4.37
-2.57
-0.98
0.50
1.92
3.25
4.39
5.18
5.54
5.51
5.22
4.82
4.40
3.95
3.43
2.75
1.90
0.93
-0.04
-0.88
-1.43
-1.58
-1.23
-0.30
1.19
3.15
5.36
7.54
9.36
10.53
10.87
10.31
8.94
6.98
4.74
2.57
0.83
-0.24
-0.50
-0.03
0.98
2.20
3.28
3.97
4.13
3.81
3.19
2.52
2.04
1.93
2.20
2.73
3.34
3.81
3.96
3.69
2.95
1.77
0.24
-1.49
-3.22
-4.75
-5.91
-6.63
-7.00
-7.19
-7.39
-7.71
-8.09
-8.35
-8.28
-7.78
-6.92
-5.93
-5.09
-4.54
-4.23
-4.00
-3.61
-2.94
-2.01
-0.95
0.05
0.84
1.37
1.69
1.88
2.02
2.15
2.26
2.29
2.22
2.07
1.96
2.00
2.27
2.74
3.28
3.72
3.95
4.00
3.98
4.04
4.29
4.73
5.24
5.70
5.96
5.96
5.70
5.24
4.67
4.05
3.43
2.80
2.17
1.55
0.98
0.51
0.19
0.05
0.09
0.30
0.65
1.11
1.64
2.19
2.69
3.11
3.44
3.70
3.90
4.06
4.17
4.20
4.14
4.02
3.87
3.69
3.50
3.26
2.92
2.47
1.90
1.28
0.69
0.20
-0.11
-0.22
-0.17
-0.05
0.01
-0.07
-0.34
-0.74
-1.16
-1.48
-1.63
-1.64
-1.56
-1.53
-1.63
-1.90
-2.35
-2.88
-3.40
-3.77
-3.90
-3.74
-3.32
-2.70
-1.99
-1.25
-0.53
0.13
0.73
1.25
1.71
2.15
2.58
3.02
3.44
3.79
4.01
4.03
3.88
3.60
3.25
2.89
2.54
2.25
2.05
1.97
2.02
2.13
2.21
2.17
1.98
1.68
1.42
1.29
1.37
1.56
1.72
1.71
1.46
1.05
0.59
0.21
-0.07
-0.31
-0.64
-1.13
-1.71
-2.25
-2.58
-2.61
-2.42
-2.14
-1.93
-1.84
-1.78
-1.60
-1.16
-0.43
0.44
1.31
2.03
2.62
3.14
3.68
4.23
4.67
4.88
4.79
4.45
4.03
3.68
3.45
3.21
2.80
2.05
1.01
-0.16
-1.18
-1.87
-2.19
-2.25
-2.22
-2.20
-2.19
-2.10
-1.91
-1.70
-1.62
-1.84
-2.34
-2.92
-3.26
-3.11
-2.45
-1.60
-1.03
-1.22
-2.33
-4.20
-6.36
-8.28
-9.55
-10.03
-9.79
-9.00
-7.85
-6.45
-4.89
-3.30
-1.89
-0.85
-0.30
-0.19
-0.29
-0.32
-0.04
0.58
1.47
2.40
3.21
3.83
4.29
4.68
5.05
5.38
5.62
5.66
5.45
5.02
4.41
3.73
3.05
2.44
1.93
1.54
1.25
1.01
0.77
0.48
0.10
-0.36
-0.86
-1.32
-1.69
-1.95
-2.12
-2.26
-2.42
-2.62
-2.84
-3.04
-3.20
-3.32
-3.41
-3.49
-3.52
-3.45
-3.25
-2.93
-2.54
-2.15
-1.79
-1.48
-1.17
-0.81
-0.38
0.08
0.48
0.72
0.76
0.60
0.34
0.09
-0.03
0.06
0.32
0.63
0.84
0.83
0.60
0.25
-0.02
-0.08
0.13
0.50
0.88
1.10
1.05
0.75
0.27
-0.27
-0.73
-1.00
-1.02
-0.78
-0.35
0.12
0.47
0.60
0.46
0.10
-0.37
-0.85
-1.28
-1.63
-1.86
-1.92
-1.77
-1.39
-0.85
-0.28
0.17
0.42
0.47
0.35
0.14
-0.09
-0.28
-0.40
-0.37
-0.16
0.25
0.80
1.36
1.81
2.00
1.89
1.51
0.95
0.33
-0.22
-0.62
-0.79
-0.69
-0.34
0.17
0.73
1.13
1.24
0.95
0.32
-0.47
-1.19
-1.63
-1.69
-1.42
-0.99
-0.57
-0.29
-0.17
-0.25
-0.49
-0.87
-1.33
-1.80
-2.16
-2.31
-2.23
-1.94
-1.53
-1.10
-0.71
-0.39
-0.10
0.23
0.63
1.08
1.50
1.80
1.88
1.74
1.42
1.05
0.70
0.44
0.24
0.08
-0.03
-0.06
0.05
0.31
0.69
1.08
1.34
1.39
1.20
0.84
0.42
0.04
-0.25
-0.45
-0.61
-0.78
-0.95
-1.10
-1.19
-1.18
-1.09
-1.00
-1.00
-1.16
-1.46
-1.80
-2.09
-2.24
-2.24
-2.10
-1.88
-1.62
-1.33
-1.02
-0.74
-0.53
-0.44
-0.47
-0.54
-0.51
-0.29
0.16
0.74
1.30
1.67
1.79
1.69
1.47
1.26
1.14
1.12
1.18
1.25
1.27
1.20
1.02
0.79
0.57
0.44
0.41
0.47
0.54
0.57
0.57
0.57
0.60
0.68
0.74
0.69
0.47
0.05
-0.45
-0.90
-1.20
-1.32
-1.30
-1.25
-1.24
-1.35
-1.57
-1.86
-2.16
-2.40
-2.53
-2.52
-2.35
-2.06
-1.67
-1.21
-0.76
-0.35
-0.02
0.21
0.34
0.34
0.24
0.06
-0.14
-0.30
-0.32
-0.14
0.24
0.75
1.26
1.66
1.86
1.86
1.76
1.64
1.59
1.62
1.66
1.67
1.58
1.44
1.28
1.17
1.12
1.10
1.05
0.88
0.59
0.22
-0.15
-0.41
-0.51
-0.46
-0.35
-0.28
-0.32
-0.52
-0.81
-1.15
-1.45
-1.68
-1.85
-1.98
-2.04
-2.02
-1.85
-1.56
-1.19
-0.86
-0.63
-0.52
-0.45
-0.26
0.17
0.85
1.64
2.31
2.66
2.60
2.22
1.74
1.35
1.18
1.19
1.27
1.32
1.31
1.25
1.20
1.19
1.19
1.16
1.06
0.90
0.69
0.49
0.33
0.22
0.20
0.25
0.34
0.38
0.31
0.10
-0.25
-0.68
-1.12
-1.54
-1.92
-2.28
-2.59
-2.83
-2.94
-2.91
-2.79
-2.61
-2.43
-2.26
-2.11
-1.96
-1.79
-1.58
-1.34
-1.04
-0.68
-0.26
0.16
0.54
0.83
1.02
1.15
1.28
1.44
1.65
1.88
2.13
2.35
2.52
2.57
2.47
2.17
1.70
1.16
0.65
0.27
0.09
0.07
0.16
0.27
0.35
0.37
0.29
0.11
-0.15
-0.44
-0.70
-0.88
-0.97
-1.02
-1.10
-1.25
-1.45
-1.63
-1.72
-1.71
-1.62
-1.53
-1.51
-1.62
-1.86
-2.14
-2.37
-2.44
-2.30
-1.96
-1.52
-1.06
-0.65
-0.29
0.05
0.42
0.81
1.19
1.49
1.66
1.70
1.64
1.58
1.55
1.58
1.61
1.60
1.53
1.43
1.34
1.29
1.29
1.26
1.13
0.87
0.51
0.15
-0.13
-0.27
-0.30
-0.28
-0.30
-0.40
-0.59
-0.81
-1.01
-1.15
-1.24
-1.29
-1.35
-1.43
-1.50
-1.55
-1.56
-1.56
-1.59
-1.70
-1.90
-2.14
-2.34
-2.43
-2.35
-2.09
-1.65
-1.07
-0.41
0.24
0.76
1.11
1.26
1.31
1.35
1.47
1.69
1.94
2.09
2.05
1.76
1.29
0.76
0.33
0.12
0.15
0.37
0.64
0.84
0.86
0.70
0.45
0.26
0.23
0.39
0.66
0.87
0.86
0.59
0.08
-0.50
-1.02
-1.37
-1.56
-1.63
-1.64
-1.60
-1.52
-1.39
-1.25
-1.19
-1.25
-1.46
-1.73
-1.93
-1.93
-1.67
-1.25
-0.80
-0.51
-0.48
-0.67
-0.90
-0.94
-0.61
0.08
0.99
1.86
2.48
2.76
2.74
2.55
2.29
2.02
1.72
1.41
1.15
1.03
1.13
1.39
1.71
1.90
1.88
1.66
1.37
1.17
1.15
1.30
1.49
1.56
1.37
0.93
0.34
-0.27
-0.75
-1.05
-1.20
-1.29
-1.40
-1.56
-1.73
-1.87
-1.93
-1.94
-1.92
-1.92
-1.96
-2.06
-2.18
-2.28
-2.30
-2.18
-1.88
-1.39
-0.76
-0.13
0.37
0.66
0.75
0.76
0.82
0.99
1.27
1.56
1.73
1.76
1.65
1.49
1.33
1.20
1.09
0.95
0.79
0.62
0.48
0.37
0.29
0.24
0.23
0.28
0.40
0.55
0.64
0.60
0.34
-0.11
-0.66
-1.18
-1.56
-1.76
-1.83
-1.84
-1.88
-1.96
-2.05
-2.12
-2.14
-2.13
-2.13
-2.15
-2.16
-2.15
-2.03
-1.79
-1.43
-0.99
-0.55
-0.21
-0.02
0.02
-0.05
-0.10
-0.06
0.14
0.47
0.84
1.16
1.40
1.55
1.67
1.77
1.86
1.92
1.90
1.82
1.71
1.62
1.58
1.58
1.61
1.61
1.54
1.37
1.10
0.77
0.44
0.19
0.05
-0.02
-0.08
-0.21
-0.44
-0.70
-0.91
-1.01
-1.01
-0.98
-1.00
-1.11
-1.25
-1.34
-1.36
-1.36
-1.47
-1.78
-2.25
-2.71
-2.93
-2.74
-2.14
-1.32
-0.51
0.12
0.54
0.83
1.09
1.33
1.49
1.48
1.28
0.98
0.75
0.72
0.91
1.23
1.54
1.70
1.68
1.54
1.38
1.31
1.36
1.54
1.77
1.94
1.96
1.77
1.36
0.81
0.20
-0.36
-0.80
-1.07
-1.16
-1.10
-0.95
-0.80
-0.73
-0.83
-1.08
-1.44
-1.79
-2.03
-2.09
-1.96
-1.74
-1.52
-1.40
-1.43
-1.57
-1.67
-1.61
-1.28
-0.69
0.03
0.73
1.24
1.51
1.56
1.48
1.35
1.21
1.04
0.83
0.60
0.43
0.40
0.56
0.82
1.04
1.10
0.94
0.66
0.41
0.36
0.57
0.96
1.35
1.58
1.57
1.36
1.02
0.65
0.27
-0.13
-0.53
-0.89
-1.15
-1.23
-1.17
-1.07
-1.06
-1.24
-1.60
-2.02
-2.35
-2.46
-2.39
-2.23
-2.16
-2.24
-2.43
-2.59
-2.54
-2.20
-1.62
-0.95
-0.38
-0.02
0.15
0.20
0.27
0.46
0.77
1.14
1.49
1.76
1.92
1.99
1.98
1.91
1.83
1.73
1.67
1.67
1.72
1.80
1.89
1.92
1.90
1.84
1.74
1.60
1.39
1.12
0.82
0.56
0.39
0.33
0.31
0.23
0.04
-0.28
-0.65
-0.99
-1.25
-1.46
-1.66
-1.89
-2.14
-2.36
-2.50
-2.53
-2.50
-2.47
-2.49
-2.55
-2.57
-2.46
-2.16
-1.71
-1.22
-0.80
-0.54
-0.43
-0.36
-0.23
0.05
0.51
1.07
1.64
2.07
2.31
2.35
2.25
2.13
2.04
2.01
1.98
1.88
1.67
1.39
1.12
0.97
0.97
1.04
1.09
1.02
0.84
0.62
0.45
0.37
0.32
0.23
0.06
-0.14
-0.26
-0.22
-0.01
0.24
0.35
0.20
-0.19
-0.71
-1.19
-1.50
-1.66
-1.74
-1.84
-1.97
-2.11
-2.17
-2.11
-1.93
-1.67
-1.37
-1.04
-0.69
-0.33
0.05
0.42
0.77
1.09
1.36
1.55
1.60
1.50
1.27
0.99
0.77
0.73
0.89
1.22
1.61
1.91
2.03
1.93
1.62
1.21
0.79
0.44
0.19
0.05
-0.02
-0.05
-0.06
-0.09
-0.15
-0.26
-0.43
-0.58
-0.65
-0.57
-0.35
-0.06
0.17
0.20
-0.03
-0.48
-1.04
-1.55
-1.89
-1.99
-1.89
-1.67
-1.45
-1.32
-1.33
-1.43
-1.55
-1.58
-1.42
-1.00
-0.36
0.43
1.19
1.81
2.16
2.22
2.04
1.71
1.36
1.07
0.89
0.83
0.84
0.91
0.98
1.04
1.07
1.09
1.09
1.11
1.14
1.18
1.19
1.14
1.02
0.85
0.63
0.38
0.10
-0.22
-0.58
-0.95
-1.28
-1.51
-1.60
-1.56
-1.47
-1.43
-1.51
-1.71
-1.95
-2.13
-2.20
-2.15
-2.07
-2.04
-2.10
-2.21
-2.30
-2.29
-2.14
-1.87
-1.53
-1.17
-0.79
-0.41
-0.02
0.39
0.80
1.20
1.57
1.89
2.15
2.34
2.46
2.51
2.49
2.39
2.24
2.06
1.90
1.83
1.84
1.88
1.86
1.69
1.36
0.96
0.62
0.48
0.57
0.77
0.94
0.93
0.67
0.22
-0.32
-0.82
-1.23
-1.53
-1.75
-1.93
-2.10
-2.24
-2.35
-2.39
-2.34
-2.16
-1.90
-1.63
-1.44
-1.39
-1.50
-1.70
-1.90
-2.01
-1.98
-1.83
-1.58
-1.26
-0.90
-0.53
-0.19
0.09
0.35
0.61
0.90
1.19
1.41
1.51
1.49
1.46
1.55
1.85
2.30
2.71
2.89
2.73
2.26
1.64
1.06
0.65
0.46
0.46
0.61
0.82
1.01
1.09
1.00
0.75
0.39
0.04
-0.24
-0.44
-0.61
-0.79
-1.00
-1.23
-1.45
-1.63
-1.76
-1.82
-1.80
-1.69
-1.52
-1.36
-1.30
-1.41
-1.70
-2.05
-2.32
-2.38
-2.20
-1.81
-1.33
-0.84
-0.39
0.04
0.50
1.01
1.53
2.02
2.39
2.61
2.69
2.64
2.50
2.32
2.13
1.95
1.79
1.64
1.49
1.32
1.13
0.91
0.71
0.53
0.40
0.32
0.26
0.18
0.05
-0.14
-0.36
-0.52
-0.56
-0.44
-0.22
-0.05
-0.08
-0.39
-0.94
-1.59
-2.17
-2.55
-2.72
-2.75
-2.76
-2.88
-3.11
-3.41
-3.67
-3.77
-3.62
-3.25
-2.75
-2.25
-1.85
-1.60
-1.43
-1.24
-0.92
-0.44
0.13
0.70
1.16
1.48
1.69
1.88
2.12
2.41
2.70
2.90
2.97
2.90
2.71
2.46
2.19
1.92
1.63
1.34
1.05
0.82
0.65
0.57
0.55
0.55
0.50
0.37
0.17
-0.09
-0.36
-0.59
-0.75
-0.85
-0.91
-0.97
-1.08
-1.25
-1.50
-1.77
-2.03
-2.20
-2.27
-2.26
-2.23
-2.25
-2.35
-2.49
-2.57
-2.46
-2.10
-1.51
-0.80
-0.10
0.50
0.96
1.32
1.63
1.88
2.04
2.07
1.99
1.89
1.89
2.03
2.27
2.45
2.45
2.22
1.89
1.62
1.56
1.74
2.07
2.33
2.36
2.07
1.49
0.79
0.11
-0.39
-0.65
-0.71
-0.65
-0.60
-0.66
-0.83
-1.06
-1.23
-1.24
-1.10
-0.93
-0.87
-1.05
-1.46
-2.01
-2.52
-2.86
-2.96
-2.84
-2.56
-2.18
-1.76
-1.31
-0.85
-0.42
-0.03
0.27
0.51
0.71
0.90
1.09
1.30
1.50
1.69
1.86
2.01
2.15
2.27
2.38
2.46
2.51
2.54
2.56
2.56
2.51
2.37
2.09
1.66
1.12
0.55
0.06
-0.25
-0.35
-0.24
-0.02
0.22
0.38
0.39
0.22
-0.11
-0.55
-0.99
-1.33
-1.49
-1.47
-1.36
-1.27
-1.34
-1.67
-2.22
-2.88
-3.46
-3.80
-3.83
-3.55
-3.04
-2.40
-1.69
-0.95
-0.20
0.50
1.08
1.48
1.71
1.84
1.97
2.19
2.51
2.85
3.08
3.06
2.74
2.20
1.59
1.09
0.83
0.87
1.15
1.53
1.83
1.92
1.72
1.32
0.84
0.47
0.28
0.27
0.33
0.32
0.16
-0.13
-0.43
-0.64
-0.72
-0.73
-0.78
-0.97
-1.32
-1.76
-2.20
-2.53
-2.73
-2.79
-2.75
-2.61
-2.36
-2.01
-1.62
-1.26
-1.03
-0.99
-1.10
-1.26
-1.34
-1.21
-0.87
-0.38
0.15
0.63
1.01
1.30
1.50
1.60
1.56
1.38
1.07
0.71
0.37
0.10
-0.09
-0.25
-0.40
-0.56
-0.74
-0.94
-1.17
-1.42
-1.64
-1.79
-1.81
-1.72
-1.56
-1.44
-1.43
-1.58
-1.85
-2.17
-2.46
-2.70
-2.90
-3.09
-3.30
-3.55
-3.76
-3.85
-3.78
-3.55
-3.29
-3.15
-3.31
-3.84
-4.69
-5.64
-6.35
-6.54
-6.00
-4.65
-2.51
0.32
3.67
7.25
10.81
14.05
16.63
18.29
18.91
18.57
17.51
15.96
14.09
12.09
10.09
8.10
6.04
3.93
1.88
0.14
-1.10
-1.73
-1.63
-0.75
0.78
2.75
5.04
7.61
10.49
13.57
15.58
15.48
13.33
10.24
7.43
5.49
4.40
3.82
3.43
3.04
2.86
3.15
4.01
5.18
6.27
6.93
7.07
6.92
6.76
7.03
8.03
9.78
11.91
14.23
16.65
19.21
22.08
25.23
28.67
32.35
36.15
39.93
43.57
46.98
50.09
52.86
55.02
56.32
56.58
55.62
53.26
49.32
43.50
35.16
24.84
12.92
-0.11
-13.64
-27.09
-39.99
-52.03
-63.06
-72.90
-81.30
-88.08
-93.03
-96.05
-97.15
-96.47
-94.11
-90.07
-84.25
-76.53
-67.09
-56.43
-45.25
-34.37
-24.44
-15.81
-8.48
-2.25
3.17
7.85
11.74
14.77
16.93
18.32
19.12
19.51
19.59
19.38
18.85
18.01
16.94
15.79
14.69
13.69
12.77
11.85
10.85
9.70
8.35
6.82
5.20
3.55
1.94
0.39
-1.18
-2.83
-4.63
-6.54
-8.47
-10.25
-11.73
-12.78
-13.39
-13.62
-13.59
-13.39
-13.01
-12.37
-11.31
-9.73
-7.64
-5.13
-2.38
0.43
3.19
5.86
8.37
10.64
12.56
14.05
15.09
15.75
16.15
16.39
16.47
16.28
15.66
14.49
12.78
10.72
8.60
6.70
5.15
3.86
2.55
0.89
-1.32
-4.06
-7.07
-9.92
-12.21
-13.72
-14.46
-14.64
-14.51
-14.29
-14.09
-13.92
-13.73
-13.48
-13.19
-12.86
-12.52
-12.14
-11.68
-11.10
-10.39
-9.59
-8.79
-8.12
-7.66
-7.37
-7.13
-6.76
-6.08
-5.01
-3.62
-2.10
-0.64
0.60
1.60
2.43
3.25
4.16
5.18
6.19
7.03
7.52
7.60
7.35
6.96
6.63
6.51
6.61
6.88
7.24
7.61
7.98
8.35
8.65
8.82
8.76
8.46
7.97
7.40
6.83
6.28
5.69
4.94
3.97
2.78
1.45
0.10
-1.18
-2.31
-3.26
-4.03
-4.65
-5.11
-5.42
-5.58
-5.63
-5.59
-5.49
-5.32
-5.09
-4.75
-4.23
-3.43
-2.31
-0.95
0.48
1.83
3.03
4.09
5.07
6.06
7.04
7.93
8.45
8.39
7.71
6.52
4.98
3.24
1.38
-0.57
-2.65
-5.19
-8.34
-11.91
-15.50
-18.78
-21.57
-23.80
-25.51
-26.79
-28.34
-30.48
-32.94
-35.16
-36.76
-37.65
-37.89
-37.58
-36.87
-36.75
-37.72
-39.42
-41.03
-42.03
-42.28
-41.79
-40.57
-38.70
-37.43
-37.48
-38.49
-39.62
-40.39
-40.74
-40.55
-39.40
-29.46
-8.48
18.86
45.34
66.59
81.45
90.11
93.19
91.57
86.30
77.46
65.85
53.34
42.13
33.57
27.96
24.86
23.51
23.14
22.23
20.07
17.07
14.19
12.12
11.07
10.94
11.49
12.44
12.91
12.40
11.10
9.55
8.24
7.41
7.08
7.15
7.42
7.35
6.59
5.20
3.52
1.97
0.88
0.48
0.79
1.60
2.51
3.15
3.39
3.34
3.13
2.90
2.72
2.65
2.81
3.31
4.31
5.81
7.65
9.41
10.57
10.68
9.58
7.45
4.82
2.36
0.69
0.27
1.18
3.04
5.20
6.99
8.00
8.17
7.73
7.04
6.33
5.61
4.72
3.43
1.55
-0.98
-4.12
-7.70
-11.42
-14.94
-17.95
-20.23
-21.77
-22.69
-23.30
-23.85
-24.43
-24.86
-24.82
-23.98
-22.19
-19.57
-16.44
-13.20
-10.19
-7.48
-4.90
-2.24
0.62
3.62
6.54
9.17
11.32
12.87
13.78
14.00
13.43
11.93
9.55
6.45
3.31
0.91
-0.48
-1.10
-1.37
-1.52
-1.69
-1.65
-1.25
-0.55
0.22
0.70
0.63
-0.02
-1.19
-2.74
-4.46
-6.18
-7.80
-9.27
-10.55
-11.53
-11.99
-11.76
-10.76
-9.07
-6.97
-4.83
-2.94
-1.51
-0.50
0.24
0.89
1.54
2.21
2.84
3.41
3.93
4.42
4.96
5.53
6.07
6.49
6.72
6.76
6.68
6.59
6.54
6.52
6.46
6.29
5.92
5.38
4.71
3.97
3.17
2.35
1.53
0.83
0.38
0.31
0.67
1.36
2.18
2.88
3.23
3.10
2.47
1.46
0.26
-0.89
-1.82
-2.39
-2.56
-2.36
-1.85
-1.09
-0.20
0.72
1.52
2.08
2.32
2.23
1.94
1.63
1.51
1.73
2.32
3.25
4.36
5.44
6.30
6.81
6.93
6.76
6.48
6.22
6.04
5.85
5.50
4.86
3.94
2.90
2.06
1.70
1.94
2.66
3.54
4.19
4.35
4.04
3.44
2.86
2.49
2.31
2.14
1.73
0.93
-0.19
-1.46
-2.59
-3.38
-3.75
-3.72
-3.40
-2.96
-2.50
-2.09
-1.76
-1.49
-1.24
-0.98
-0.71
-0.40
-0.01
0.53
1.25
2.13
3.05
3.81
4.27
4.33
4.04
3.54
2.97
2.44
1.99
1.63
1.36
1.21
1.20
1.33
1.56
1.78
1.89
1.82
1.55
1.14
0.75
0.48
0.39
0.41
0.35
0.03
-0.65
-1.59
-2.55
-3.22
-3.39
-3.02
-2.22
-1.23
-0.29
0.36
0.59
0.34
-0.38
-1.45
-2.68
-3.88
-4.84
-5.43
-5.59
-5.36
-4.85
-4.19
-3.53
-2.96
-2.51
-2.12
-1.69
-1.19
-0.64
-0.17
0.05
-0.07
-0.46
-0.93
-1.24
-1.18
-0.70
0.13
1.12
2.03
2.66
2.87
2.61
1.93
1.00
0.05
-0.67
-0.99
-0.90
-0.50
0.03
0.54
0.94
1.27
1.58
1.90
2.17
2.31
2.25
1.94
1.39
0.63
-0.26
-1.17
-1.92
-2.27
-2.05
-1.21
0.09
1.57
2.91
3.92
4.58
5.02
5.43
5.93
6.47
6.93
7.12
6.96
6.49
5.81
5.05
4.31
3.55
2.69
1.71
0.63
-0.40
-1.23
-1.75
-2.02
-2.20
-2.47
-2.91
-3.53
-4.22
-4.89
-5.52
-6.12
-6.73
-7.35
-7.95
-8.45
-8.82
-9.01
-8.99
-8.70
-8.09
-7.15
-5.97
-4.74
-3.68
-2.98
-2.73
-2.94
-3.51
-4.29
-5.09
-5.71
-5.96
-5.71
-4.96
-3.84
-2.59
-1.39
-0.39
0.42
1.07
1.62
2.05
2.26
2.21
1.94
1.58
1.36
1.46
1.98
2.87
3.98
5.10
6.07
6.75
7.09
7.08
6.76
6.21
5.47
4.60
3.69
2.82
2.04
1.38
0.81
0.24
-0.43
-1.26
-2.21
-3.18
-4.02
-4.60
-4.86
-4.81
-4.51
-4.09
-3.68
-3.40
-3.36
-3.57
-3.98
-4.48
-4.90
-5.10
-4.99
-4.62
-4.05
-3.43
-2.85
-2.35
-1.88
-1.37
-0.76
-0.06
0.68
1.38
2.03
2.64
3.25
3.85
4.37
4.72
4.82
4.67
4.36
4.00
3.65
3.32
2.94
2.50
2.01
1.60
1.41
1.53
1.95
2.57
3.20
3.66
3.84
3.75
3.49
3.17
2.90
2.70
2.54
2.34
2.04
1.65
1.20
0.73
0.27
-0.18
-0.65
-1.15
-1.64
-2.06
-2.37
-2.55
-2.63
-2.62
-2.57
-2.49
-2.39
-2.27
-2.12
-1.92
-1.62
-1.15
-0.49
0.32
1.16
1.91
2.43
2.71
2.75
2.62
2.34
1.93
1.38
0.73
0.11
-0.31
-0.36
0.01
0.77
1.74
2.67
3.34
3.61
3.49
3.14
2.76
2.48
2.30
2.12
1.75
1.06
0.07
-1.08
-2.19
-3.08
-3.68
-4.03
-4.21
-4.31
-4.38
-4.41
-4.38
-4.30
-4.18
-4.06
-3.94
-3.79
-3.55
-3.16
-2.63
-2.02
-1.47
-1.04
-0.72
-0.44
-0.09
0.35
0.83
1.21
1.40
1.37
1.23
1.08
1.01
1.05
1.16
1.28
1.41
1.56
1.73
1.92
2.07
2.13
2.06
1.84
1.47
0.94
0.27
-0.50
-1.27
-1.87
-2.20
-2.18
-1.91
-1.55
-1.29
-1.26
-1.48
-1.86
-2.30
-2.65
-2.83
-2.80
-2.59
-2.26
-1.92
-1.72
-1.78
-2.11
-2.61
-3.04
-3.13
-2.71
-1.77
-0.47
0.94
2.23
3.32
4.23
5.05
5.84
6.61
7.35
8.04
8.73
9.50
10.44
11.56
12.79
13.98
14.97
15.66
16.03
16.20
16.27
16.37
16.49
16.55
16.41
15.96
15.15
14.01
12.64
11.12
9.50
7.77
5.95
4.09
2.24
0.48
-1.13
-2.58
-3.90
-5.13
-6.31
-7.44
-8.47
-9.38
-10.17
-10.86
-11.48
-12.05
-12.53
-12.84
-12.91
-12.72
-12.32
-11.83
-11.37
-11.03
-10.86
-10.82
-10.86
-10.91
-10.88
-10.70
-10.33
-9.79
-9.15
-8.48
-7.85
-7.27
-6.74
-6.24
-5.82
-5.51
-5.34
-5.31
-5.37
-5.47
-5.63
-5.92
-6.44
-7.24
-8.29
-9.45
-10.61
-11.69
-12.68
-13.59
-14.38
-14.96
-15.20
-15.06
-14.58
-13.94
-13.32
-12.86
-12.60
-12.49
-12.50
-12.63
-12.91
-13.34
-13.80
-14.01
-13.69
-12.62
-10.83
-8.49
-5.92
-3.33
-0.80
1.72
4.26
6.73
8.92
10.59
11.68
12.30
12.73
13.24
13.96
14.84
15.72
16.44
16.94
17.22
17.33
17.22
16.80
16.00
14.76
13.13
11.28
9.43
7.79
6.54
5.74
5.30
5.05
4.73
4.12
3.14
1.84
0.42
-0.89
-1.93
-2.61
-2.94
-3.06
-3.14
-3.37
-3.91
-4.80
-5.91
-6.99
-7.71
-7.84
-7.29
-6.21
-4.82
-3.37
-2.00
-0.76
0.42
1.58
2.72
3.84
4.92
5.99
7.06
8.16
9.23
10.23
11.10
11.81
12.39
12.84
13.20
13.45
13.59
13.61
13.51
13.28
12.88
12.29
11.48
10.46
9.28
8.02
6.76
5.58
4.51
3.52
2.54
1.45
0.18
-1.28
-2.84
-4.36
-5.71
-6.82
-7.72
-8.49
-9.22
-9.97
-10.76
-11.57
-12.39
-13.15
-13.75
-14.05
-13.92
-13.34
-12.38
-11.22
-10.04
-8.93
-7.89
-6.87
-5.85
-4.83
-3.84
-2.91
-2.03
-1.22
-0.51
0.03
0.32
0.35
0.16
-0.15
-0.50
-0.86
-1.21
-1.50
-1.69
-1.69
-1.46
-1.04
-0.49
0.13
0.78
1.48
2.21
2.93
3.53
3.93
4.13
4.25
4.49
5.03
5.90
6.96
7.97
8.71
9.07
9.12
8.97
8.78
8.60
8.43
8.23
8.00
7.80
7.70
7.76
8.00
8.38
8.84
9.32
9.75
10.07
10.23
10.22
10.00
9.57
8.93
8.05
6.92
5.58
4.08
2.54
1.05
-0.34
-1.65
-2.93
-4.19
-5.41
-6.49
-7.37
-8.03
-8.54
-9.00
-9.50
-10.06
-10.62
-11.08
-11.38
-11.50
-11.51
-11.46
-11.39
-11.26
-10.99
-10.53
-9.90
-9.21
-8.59
-8.13
-7.79
-7.45
-6.95
-6.17
-5.15
-3.99
-2.86
-1.88
-1.08
-0.42
0.14
0.64
1.11
1.59
2.14
2.85
3.72
4.68
5.59
6.29
6.71
6.85
6.78
6.61
6.45
6.35
6.36
6.42
6.43
6.28
5.89
5.25
4.46
3.67
3.01
2.54
2.20
1.86
1.41
0.82
0.16
-0.45
-0.92
-1.21
-1.37
-1.47
-1.58
-1.71
-1.84
-1.97
-2.11
-2.28
-2.52
-2.83
-3.23
-3.72
-4.34
-5.12
-6.08
-7.14
-8.18
-9.04
-9.58
-9.72
-9.46
-8.84
-7.93
-6.82
-5.64
-4.48
-3.43
-2.52
-1.70
-0.89
-0.02
0.93
1.92
2.88
3.73
4.44
5.03
5.47
5.72
5.73
5.50
5.07
4.58
4.12
3.77
3.51
3.24
2.92
2.55
2.25
2.15
2.36
2.87
3.53
4.12
4.42
4.33
3.85
3.12
2.32
1.60
1.05
0.66
0.38
0.16
-0.02
-0.13
-0.13
-0.02
0.13
0.20
0.09
-0.23
-0.67
-1.05
-1.17
-0.92
-0.32
0.49
1.32
1.99
2.43
2.62
2.59
2.38
2.05
1.67
1.34
1.18
1.28
1.66
2.26
2.98
3.69
4.30
4.75
4.98
4.96
4.67
4.12
3.37
2.50
1.61
0.80
0.14
-0.30
-0.52
-0.53
-0.41
-0.27
-0.20
-0.22
-0.32
-0.42
-0.52
-0.65
-0.95
-1.50
-2.30
-3.21
-4.02
-4.50
-4.56
-4.22
-3.64
-3.00
-2.42
-1.94
-1.53
-1.12
-0.71
-0.31
0.03
0.28
0.41
0.45
0.45
0.50
0.67
1.01
1.51
2.12
2.71
3.16
3.41
3.45
3.31
3.04
2.65
2.15
1.57
0.99
0.54
0.34
0.46
0.87
1.44
2.02
2.49
2.78
2.87
2.75
2.40
1.87
1.28
0.79
0.64
0.96
1.78
2.99
4.38
5.74
6.94
7.95
8.82
9.63
10.42
11.23
12.12
13.16
14.42
15.93
17.65
19.42
21.08
22.45
23.47
24.15
24.53
24.65
24.54
24.15
23.48
22.53
21.30
19.81
18.04
15.98
13.66
11.17
8.66
6.26
4.04
1.98
-0.01
-2.02
-4.05
-6.04
-7.85
-9.35
-10.47
-11.22
-11.75
-12.19
-12.65
-13.20
-13.79
-14.36
-14.81
-15.12
-15.30
-15.44
-15.63
-15.94
-16.39
-16.90
-17.34
-17.56
-17.45
-16.98
-16.25
-15.40
-14.62
-14.03
-13.66
-13.42
-13.25
-13.16
-13.30
-13.86
-14.97
-16.56
-18.31
-19.73
-20.36
-19.87
-18.22
-15.60
-12.30
-8.64
-4.95
-1.58
1.12
2.84
3.57
3.72
4.21
6.29
11.05
18.93
29.35
40.67
50.74
57.59
60.08
58.20
52.77
44.96
35.99
27.02
19.35
14.47
13.85
18.36
27.67
40.12
53.08
63.75
70.01
70.93
66.79
58.61
47.52
34.40
19.77
4.26
-10.93
-23.78
-31.82
-33.06
-26.99
-15.14
-0.79
12.15
20.56
23.16
20.69
15.16
8.70
2.61
-2.95
-8.69
-15.54
-24.22
-34.72
-45.96
-55.73
-60.98
-58.68
-47.08
-26.83
-1.23
24.59
45.48
58.15
62.30
60.56
57.26
56.54
60.97
71.09
85.83
103.42
121.92
139.12
152.09
157.28
151.42
132.76
101.89
61.37
14.73
-34.40
-81.91
-122.50
-149.55
-156.81
-141.93
-109.61
-71.94
-44.78
-41.22
-66.08
-113.82
-171.38
-223.89
-259.89
-273.83
-265.36
-236.96
-192.18
-135.06
-70.32
-3.49
59.51
113.13
152.94
175.74
179.53
163.70
128.96
77.40
12.40
-61.39
-138.10
-210.00
-268.01
-303.48
-311.28
-293.03
-258.08
-220.79
-194.80
-186.71
-192.87
-201.00
-196.33
-169.29
-120.75
-62.08
-10.00
21.08
25.48
8.27
-17.75
-37.93
-41.48
-24.16
12.40
63.23
122.32
183.55
239.89
282.66
302.14
290.24
244.05
168.65
76.90
-14.22
-88.87
-137.24
-157.56
-155.06
-139.01
-119.51
-105.43
-103.25
-116.41
-144.51
-182.91
-223.23
-255.29
-270.47
-264.55
-238.64
-197.68
-147.39
-91.77
-32.83
27.46
84.96
133.04
164.74
175.89
167.68
146.66
122.44
104.02
96.71
100.80
112.41
125.88
136.45
142.00
143.36
143.28
144.46
147.80
151.36
150.85
141.66
121.49
92.36
60.74
35.16
22.58
25.30
40.09
59.89
77.27
87.66
90.75
89.31
86.75
84.87
83.00
79.16
71.86
61.37
49.77
39.80
33.30
30.26
29.10
27.60
24.17
18.61
12.09
6.33
2.81
1.94
2.95
4.57
5.55
5.16
3.48
1.21
-0.77
-1.51
-0.55
1.76
5.07
8.93
13.05
17.32
21.75
25.85
29.48
32.31
33.71
34.03
33.97
34.44
36.04
38.79
41.60
44.09
46.10
47.51
49.24
52.03
56.00
60.77
66.10
71.89
80.23
93.35
104.76
107.52
95.99
69.19
31.50
-4.55
-35.24
-59.02
-75.84
-87.03
-93.97
-97.09
-96.51
-92.37
-85.28
-77.24
-69.44
-62.88
-58.41
-55.52
-53.01
-49.69
-44.92
-38.94
-33.27
-28.74
-25.79
-24.56
-24.27
-23.85
-22.51
-20.03
-16.80
-13.93
-11.92
-10.92
-10.81
-11.06
-11.12
-10.73
-9.93
-9.03
-8.50
-8.43
-8.60
-8.67
-8.21
-7.03
-5.36
-3.79
-2.98
-3.46
-5.17
-7.48
-9.28
-9.38
-7.00
-2.27
3.80
9.64
13.64
14.64
11.98
5.92
-1.95
-9.05
-13.11
-13.52
-11.55
-9.52
-9.47
-12.04
-16.21
-19.92
-21.31
-19.69
-15.88
-11.87
-10.16
-13.20
-22.66
-38.49
-58.05
-76.03
-85.49
-80.31
-57.99
-21.39
21.70
61.20
88.54
99.49
94.94
79.53
59.21
39.16
22.58
10.78
