1593697107.00
64.000000
-0.00
-0.00
-0.00
-0.00
-0.00
-0.00
-0.00
-0.00
-0.00
-0.00
0.00
0.01
0.01
-0.00
-0.03
-0.05
-0.05
0.00
0.13
0.36
0.66
1.01
1.37
1.72
2.06
2.40
2.79
3.24
3.80
4.42
5.06
5.66
6.20
6.68
7.15
7.68
8.31
9.14
10.09
11.04
11.88
12.56
13.14
13.76
14.65
15.96
17.91
20.32
22.90
25.38
27.58
29.57
31.68
34.32
37.81
42.54
48.15
54.10
59.83
64.97
69.58
74.14
79.34
85.71
93.76
103.00
112.62
121.73
129.77
136.75
143.30
150.75
157.77
166.64
177.95
191.79
206.97
220.57
228.25
225.36
208.53
176.87
132.76
80.05
23.07
-34.94
-92.44
-149.16
-205.23
-260.37
-313.74
-363.87
-409.83
-450.91
-486.50
-515.74
-537.23
-549.22
-549.96
-538.37
-514.21
-478.67
-433.88
-382.45
-327.02
-269.84
-212.63
-156.66
-102.95
-52.37
-5.90
35.58
71.43
101.35
125.50
144.38
158.69
169.15
176.37
180.75
182.57
182.07
179.51
175.23
169.65
163.18
156.15
148.81
141.30
133.69
126.02
118.33
110.69
103.16
95.80
88.68
81.83
75.25
68.95
62.95
57.25
51.86
46.78
42.03
37.59
33.45
29.61
26.07
22.81
19.83
17.11
14.67
12.48
10.54
8.84
7.35
6.07
4.97
4.04
3.26
2.63
2.11
1.69
1.33
1.02
0.74
0.47
0.24
0.05
-0.08
-0.15
-0.17
-0.19
-0.23
-0.29
-0.38
-0.47
-0.53
-0.54
-0.50
-0.43
-0.38
-0.39
-0.50
-0.68
-0.89
-1.04
-1.07
-0.99
-0.85
-0.77
-0.88
-1.23
-1.78
-2.38
-2.84
-3.00
-2.85
-2.54
-2.34
-2.50
-3.15
-4.21
-5.37
-6.26
-6.60
-6.34
-5.75
-5.28
-5.39
-6.28
-7.81
-9.51
-10.83
-11.37
-11.08
-10.26
-9.43
-9.04
-9.42
-10.73
-13.03
-16.11
-19.24
-21.02
-19.66
-13.71
-2.92
11.34
26.36
39.15
47.68
51.58
51.94
50.42
48.20
45.51
41.92
37.01
31.00
24.53
18.49
13.39
9.11
5.08
0.73
-4.12
-9.08
-13.39
-16.23
-17.11
-16.05
-13.54
-10.42
-7.54
-5.55
-4.70
-4.79
-5.40
-6.00
-6.25
-6.05
-5.55
-4.96
-4.46
-4.08
-3.78
-3.57
-3.52
-3.70
-4.15
-4.76
-5.33
-5.62
-5.49
-4.94
-4.14
-3.27
-2.51
-1.96
-1.66
-1.59
-1.66
-1.78
-1.81
-1.68
-1.32
-0.78
-0.12
0.54
1.07
1.31
1.07
0.30
-0.93
-2.35
-3.63
-4.50
-4.97
-5.27
-5.82
-6.98
-8.85
-11.17
-13.53
-15.53
-16.97
-17.92
-18.60
-19.29
-20.22
-21.53
-23.29
-25.55
-28.18
-30.85
-32.99
-33.89
-32.87
-29.61
-24.22
-17.33
-9.92
-3.00
2.71
6.99
10.05
12.41
14.49
16.54
18.55
20.38
21.89
23.06
23.93
24.49
24.70
24.45
23.71
22.57
21.17
19.70
18.31
17.12
16.22
15.72
15.63
15.81
16.03
16.02
15.66
15.05
14.41
13.87
13.40
12.76
11.74
10.32
8.76
7.40
6.47
5.90
5.42
4.72
3.70
2.49
1.30
0.19
-0.95
-2.39
-4.32
-6.74
-9.44
-12.16
-14.71
-17.03
-19.18
-21.22
-23.20
-25.22
-27.45
-30.09
-33.24
-36.71
-39.88
-41.92
-42.03
-39.88
-35.73
-30.32
-24.52
-18.99
-13.98
-9.42
-5.14
-1.10
2.59
5.73
8.25
10.23
11.87
13.33
14.67
15.80
16.60
17.02
17.08
16.91
16.67
16.54
16.66
17.08
17.71
18.34
18.72
18.73
18.40
17.88
17.36
16.90
16.38
15.65
14.65
13.49
12.39
11.56
11.02
10.59
9.95
8.89
7.40
5.69
4.00
2.53
1.23
-0.13
-1.78
-3.84
-6.23
-8.74
-11.09
-13.19
-15.14
-17.20
-19.72
-22.94
-26.93
-31.43
-35.87
-39.42
-41.20
-40.59
-37.43
-32.16
-25.67
-18.99
-12.93
-7.89
-3.85
-0.52
2.38
5.03
7.53
9.93
12.35
14.88
17.48
19.92
21.84
22.93
23.09
22.48
21.53
20.65
20.11
20.00
20.18
20.49
20.80
21.01
21.07
20.96
20.65
20.14
19.44
18.57
17.54
16.37
15.09
13.74
12.39
11.06
9.71
8.32
6.88
5.50
4.37
3.68
3.46
3.56
3.61
3.21
2.09
0.23
-2.10
-4.50
-6.62
-8.34
-9.74
-11.07
-12.53
-14.18
-15.92
-17.64
-19.42
-21.53
-24.30
-27.91
-32.14
-36.25
-39.26
-40.26
-38.81
-35.07
-29.75
-23.79
-18.00
-12.89
-8.58
-4.94
-1.77
1.07
3.62
5.90
7.95
9.82
11.59
13.31
14.92
16.24
17.10
17.36
17.04
16.34
15.59
15.14
15.23
15.83
16.70
17.47
17.76
17.41
16.48
15.20
13.85
12.64
11.60
10.68
9.70
8.60
7.41
6.28
5.42
4.91
4.66
4.39
3.77
2.53
0.64
-1.71
-4.19
-6.49
-8.48
-10.18
-11.70
-13.08
-14.23
-15.05
-15.50
-15.81
-16.33
-17.40
-19.08
-21.04
-22.72
-23.66
-23.74
-23.32
-22.96
-22.91
-22.89
-22.01
-19.27
-14.10
-6.82
1.46
9.32
15.63
19.95
22.54
24.10
25.24
26.34
27.52
28.75
30.03
31.39
32.82
34.15
35.14
35.54
35.22
34.22
32.72
30.98
29.19
27.53
26.09
24.88
23.87
22.93
21.95
20.82
19.54
18.19
16.89
15.71
14.68
13.74
12.73
11.58
10.18
8.51
6.59
4.46
2.21
-0.01
-2.09
-3.93
-5.51
-6.89
-8.17
-9.55
-11.16
-13.08
-15.28
-17.61
-19.88
-21.91
-23.66
-25.17
-26.64
-28.33
-30.48
-33.24
-36.47
-39.81
-42.61
-44.20
-44.07
-42.12
-38.70
-34.45
-30.13
-26.21
-22.85
-19.92
-17.21
-14.61
-12.16
-9.97
-8.07
-6.38
-4.73
-3.07
-1.50
-0.30
0.37
0.59
0.77
1.45
3.00
5.47
8.50
11.59
14.29
16.41
17.95
19.00
19.55
19.47
18.54
16.64
13.74
9.98
5.55
0.63
-4.65
-10.19
-15.95
-21.84
-27.67
-33.15
-37.94
-41.70
-44.28
-45.78
-46.50
-46.87
-47.27
-47.93
-48.89
-50.09
-51.47
-53.08
-55.05
-57.49
-60.44
-63.73
-66.98
-69.60
-70.92
-70.28
-67.31
-62.03
-54.93
-46.88
-38.85
-31.61
-25.67
-21.18
-18.04
-16.12
-15.21
-15.06
-15.30
-15.53
-15.43
-14.96
-14.33
-13.78
-13.48
-13.23
-12.49
-10.57
-6.81
-0.83
7.41
17.55
28.95
40.80
52.29
62.76
71.77
79.13
84.79
88.71
90.76
90.83
88.89
85.17
80.16
74.49
68.79
63.47
58.69
54.36
50.26
46.16
41.94
37.59
33.23
29.00
25.02
21.34
17.86
14.47
11.01
7.34
3.33
-1.08
-5.77
-10.39
-14.33
-16.92
-17.59
-16.18
-12.96
-8.62
-3.98
0.26
3.68
6.23
8.13
9.78
11.61
13.96
17.02
20.72
24.82
28.90
32.51
35.26
36.83
37.07
35.94
33.60
30.38
26.78
23.25
20.10
17.35
14.82
12.27
9.62
7.06
4.90
3.39
2.49
1.79
0.72
-1.19
-4.00
-7.30
-10.34
-12.44
-13.17
-12.63
-11.34
-10.04
-9.47
-10.09
-12.02
-15.00
-18.53
-22.03
-24.96
-27.03
-28.21
-28.73
-29.00
-29.47
-30.45
-31.87
-33.09
-32.94
-29.99
-23.14
-12.23
1.65
16.38
29.52
39.25
44.92
47.09
46.99
45.79
44.09
41.95
39.15
35.71
31.98
28.51
25.72
23.57
21.58
19.12
15.67
11.16
6.03
1.02
-3.05
-5.68
-6.82
-6.95
-6.81
-7.09
-8.16
-9.99
-12.31
-14.84
-17.52
-20.47
-23.79
-27.24
-30.19
-31.75
-31.17
-28.28
-23.54
-17.95
-12.59
-8.28
-5.38
-3.77
-3.02
-2.64
-2.14
-1.21
0.26
2.15
4.14
5.87
7.07
7.66
7.81
7.76
7.77
7.94
8.25
8.58
8.84
9.01
9.18
9.48
9.98
10.60
11.11
11.19
10.66
9.52
8.05
6.64
5.64
5.16
5.10
5.25
5.40
5.48
5.56
5.76
6.16
6.75
7.48
8.27
9.06
9.84
10.62
11.34
11.92
12.19
12.00
11.22
9.87
8.10
6.14
4.24
2.52
0.98
-0.48
-2.01
-3.72
-5.68
-7.95
-10.49
-13.21
-15.78
-17.62
-18.07
-16.64
-13.25
-8.33
-2.80
2.36
6.41
9.06
10.50
11.20
11.72
12.48
13.73
15.51
17.70
20.12
22.56
24.88
27.00
28.89
30.55
31.98
33.18
34.22
35.24
36.42
37.82
39.37
40.79
41.62
41.49
40.16
37.63
34.08
29.78
25.01
20.00
14.95
10.01
5.32
1.00
-2.83
-6.09
-8.76
-10.94
-12.82
-14.65
-16.67
-18.97
-21.43
-23.78
-25.70
-27.04
-27.90
-28.62
-29.65
-31.31
-33.65
-36.44
-39.17
-41.26
-42.23
-41.81
-39.94
-36.85
-32.92
-28.58
-24.27
-20.30
-16.87
-14.03
-11.68
-9.66
-7.72
-5.70
-3.49
-1.14
1.16
3.17
4.69
5.65
6.13
6.30
6.36
6.37
6.36
6.28
6.17
6.15
6.36
6.86
7.50
7.98
7.93
7.09
5.46
3.31
1.09
-0.72
-1.83
-2.16
-1.92
-1.48
-1.24
-1.56
-2.57
-4.22
-6.28
-8.48
-10.59
-12.51
-14.31
-16.10
-18.02
-20.14
-22.47
-24.88
-27.12
-28.79
-29.36
-28.32
-25.37
-20.59
-14.56
-8.19
-2.45
1.99
4.89
6.58
7.63
8.61
9.89
11.51
13.29
15.00
16.44
17.51
18.19
18.53
18.55
18.34
17.97
17.51
17.01
16.49
15.88
15.14
14.27
13.28
12.25
11.16
9.96
8.55
6.92
5.18
3.58
2.36
1.61
1.22
0.95
0.59
0.03
-0.63
-1.23
-1.64
-1.87
-2.07
-2.43
-3.10
-4.10
-5.35
-6.65
-7.75
-8.45
-8.64
-8.38
-7.85
-7.37
-7.27
-7.82
-9.25
-11.60
-14.75
-18.27
-21.52
-23.65
-23.95
-21.98
-17.87
-12.21
-5.90
0.15
5.35
9.49
12.67
15.16
17.19
18.97
20.61
22.19
23.69
25.06
26.16
26.82
26.94
26.50
25.58
24.28
22.69
20.88
18.93
16.95
15.09
13.42
11.88
10.27
8.30
5.82
2.89
-0.17
-2.94
-5.07
-6.40
-6.98
-6.99
-6.65
-6.10
-5.49
-5.03
-4.96
-5.59
-7.04
-9.26
-12.00
-14.91
-17.74
-20.37
-22.82
-25.10
-27.05
-28.34
-28.65
-27.84
-26.10
-23.94
-21.99
-20.78
-20.54
-21.28
-22.76
-24.70
-26.68
-28.24
-28.83
-27.90
-25.10
-20.44
-14.34
-7.53
-0.82
5.15
10.09
14.08
17.47
20.67
24.04
27.68
31.43
34.85
37.44
38.72
38.49
36.82
34.00
30.48
26.73
23.20
20.27
18.18
17.05
16.76
17.03
17.46
17.68
17.44
16.71
15.61
14.32
13.02
11.77
10.56
9.31
7.92
6.33
4.56
2.66
0.77
-0.98
-2.51
-3.76
-4.74
-5.44
-5.88
-6.09
-6.15
-6.15
-6.19
-6.37
-6.66
-6.95
-7.14
-7.17
-7.13
-7.29
-7.99
-9.56
-12.13
-15.59
-19.49
-23.17
-25.85
-26.91
-26.02
-23.32
-19.39
-15.00
-10.90
-7.53
-4.93
-2.88
-1.06
0.70
2.40
3.94
5.27
6.40
7.41
8.31
9.03
9.39
9.26
8.67
7.81
6.94
6.28
5.92
5.82
5.86
5.93
5.96
5.90
5.70
5.33
4.77
4.03
3.16
2.20
1.24
0.37
-0.24
-0.45
-0.13
0.67
1.75
2.78
3.49
3.75
3.60
3.27
2.93
2.68
2.41
1.99
1.29
0.31
-0.84
-2.04
-3.21
-4.44
-5.83
-7.46
-9.28
-11.11
-12.77
-14.16
-15.37
-16.61
-18.07
-19.75
-21.35
-22.37
-22.25
-20.60
-17.42
-13.09
-8.27
-3.74
-0.11
2.29
3.50
3.83
3.74
3.70
4.04
4.88
6.14
7.56
8.86
9.78
10.20
10.16
9.76
9.13
8.43
7.78
7.32
7.15
7.28
7.55
7.71
7.51
6.81
5.73
4.53
3.54
2.95
2.74
2.71
2.60
2.27
1.71
1.04
0.38
-0.20
-0.69
-1.16
-1.67
-2.23
-2.83
-3.45
-4.13
-4.91
-5.87
-7.03
-8.38
-9.82
-11.19
-12.32
-13.10
-13.52
-13.73
-13.98
-14.56
-15.66
-17.24
-19.00
-20.49
-21.20
-20.78
-19.18
-16.64
-13.55
-10.32
-7.20
-4.27
-1.53
1.05
3.40
5.45
7.13
8.45
9.53
10.47
11.29
11.91
12.21
12.14
11.73
11.18
10.70
10.52
10.68
11.11
11.63
12.00
12.04
11.71
11.13
10.46
9.89
9.45
9.06
8.60
7.96
7.17
6.32
5.52
4.82
4.17
3.45
2.59
1.60
0.53
-0.53
-1.55
-2.57
-3.66
-4.86
-6.18
-7.56
-8.86
-9.98
-10.81
-11.39
-11.81
-12.26
-12.88
-13.77
-14.97
-16.43
-18.07
-19.79
-21.40
-22.61
-23.09
-22.47
-20.55
-17.42
-13.45
-9.21
-5.26
-2.01
0.41
2.06
3.15
3.90
4.53
5.18
5.93
6.79
7.68
8.44
8.92
9.07
8.94
8.68
8.42
8.20
7.98
7.69
7.31
6.90
6.54
6.28
6.08
5.81
5.36
4.73
4.01
3.41
3.07
3.03
3.16
3.23
3.07
2.61
1.91
1.14
0.46
-0.03
-0.35
-0.55
-0.72
-0.87
-0.97
-1.01
-1.00
-1.07
-1.34
-1.93
-2.85
-4.00
-5.24
-6.40
-7.41
-8.26
-9.06
-9.95
-11.08
-12.58
-14.50
-16.77
-19.08
-21.00
-21.97
-21.60
-19.78
-16.77
-13.10
-9.37
-6.04
-3.28
-1.09
0.67
2.09
3.21
4.05
4.67
5.13
5.47
5.62
5.44
4.86
3.91
2.78
1.80
1.21
1.14
1.51
2.08
2.55
2.65
2.24
1.29
-0.06
-1.62
-3.16
-4.54
-5.72
-6.83
-8.07
-9.60
-11.49
-13.68
-16.03
-18.40
-20.65
-22.67
-24.44
-26.03
-27.69
-29.79
-32.77
-36.89
-42.04
-47.70
-53.01
-57.10
-59.32
-59.42
-57.59
-54.36
-50.49
-46.74
-43.65
-41.31
-39.23
-36.46
-31.94
-24.99
-15.71
-5.03
5.56
14.53
20.87
24.38
25.63
25.59
25.27
25.45
26.71
29.56
34.52
42.05
52.21
64.38
77.19
88.82
97.55
102.35
103.05
100.22
94.66
87.02
77.66
66.80
54.82
42.41
30.42
19.58
10.23
2.25
-4.72
-11.05
-16.89
-22.11
-26.35
-29.22
-30.46
-30.01
-28.02
-24.78
-20.63
-15.91
-10.89
-5.81
-0.90
3.67
7.71
11.10
13.72
15.43
16.02
15.34
13.29
9.97
5.70
0.94
-3.85
-8.36
-12.51
-16.41
-20.21
-23.96
-27.53
-30.65
-32.95
-34.15
-34.02
-32.49
-29.68
-25.86
-21.53
-17.28
-13.66
-11.07
-9.64
-9.24
-9.52
-10.17
-10.89
-11.56
-12.21
-12.93
-13.82
-14.94
-16.22
-17.45
-18.29
-18.37
-17.36
-15.15
-11.94
-8.24
-4.70
-1.83
0.31
2.23
4.90
9.35
16.20
25.30
35.69
45.89
54.41
60.22
63.02
63.11
61.06
57.38
52.37
46.15
38.90
31.00
23.08
15.85
9.83
5.19
1.70
-1.05
-3.42
-5.48
-7.08
-7.94
-7.93
-7.14
-5.92
-4.71
-3.92
-3.74
-4.22
-5.24
-6.62
-8.25
-10.06
-12.05
-14.21
-16.36
-18.14
-19.04
-18.58
-16.50
-12.97
-8.57
-4.08
-0.23
2.63
4.60
6.10
7.62
9.46
11.69
14.13
16.58
18.89
21.06
23.11
25.00
26.59
27.70
28.21
28.18
27.90
27.80
28.28
29.53
31.45
33.70
35.86
37.58
38.72
39.24
39.19
38.46
36.80
33.83
29.21
22.90
15.25
6.99
-1.10
-8.39
-14.66
-20.04
-24.83
-29.20
-33.04
-36.08
-38.07
-39.08
-39.47
-39.72
-40.13
-40.68
-41.08
-41.02
-40.50
-39.83
-39.56
-40.13
-41.62
-43.74
-45.87
-47.35
-47.59
-46.31
-43.50
-39.40
-34.47
-29.28
-24.37
-20.15
-16.77
-14.17
-12.11
-10.31
-8.52
-6.58
-4.37
-1.90
0.75
3.35
5.62
7.29
8.25
8.60
8.65
8.71
8.97
9.41
9.82
9.98
9.82
9.38
8.80
8.14
7.35
6.31
5.00
3.54
2.19
1.21
0.72
0.65
0.70
0.53
-0.20
-1.67
-3.92
-6.77
-9.82
-12.64
-14.81
-16.19
-16.92
-17.28
-17.54
-17.77
-17.89
-17.80
-17.53
-17.29
-17.41
-18.07
-19.24
-20.66
-22.02
-23.04
-23.48
-23.02
-21.22
-17.69
-12.33
-5.61
1.47
7.70
12.11
14.34
14.74
14.09
13.19
12.60
12.47
12.67
12.97
13.13
12.96
12.32
11.18
9.63
7.93
6.41
5.39
5.06
5.48
6.52
8.00
9.68
11.32
12.70
13.70
14.32
14.68
14.97
15.36
15.93
16.66
17.49
18.31
19.05
19.58
19.77
19.52
18.78
17.69
16.47
15.36
14.48
13.76
12.94
11.70
9.89
7.57
5.03
2.62
0.55
-1.20
-2.87
-4.69
-6.70
-8.72
-10.47
-11.77
-12.72
-13.72
-15.27
-17.67
-20.94
-24.79
-28.82
-32.64
-35.92
-38.30
-39.40
-38.85
-36.46
-32.43
-27.30
-21.86
-16.78
-12.49
-9.03
-6.19
-3.62
-1.01
1.84
4.97
8.23
11.28
13.68
15.05
15.28
14.64
13.69
13.08
13.22
14.10
15.44
16.82
17.98
18.85
19.53
20.02
20.23
19.93
18.96
17.42
15.63
14.00
12.82
12.12
11.67
11.11
10.17
8.78
7.09
5.37
3.92
2.92
2.43
2.35
2.45
2.42
2.00
1.04
-0.45
-2.31
-4.34
-6.41
-8.47
-10.56
-12.67
-14.74
-16.59
-18.10
-19.29
-20.41
-21.84
-23.79
-26.14
-28.27
-29.40
-28.86
-26.55
-22.92
-18.82
-15.02
-11.90
-9.32
-6.91
-4.35
-1.63
0.97
3.11
4.65
5.73
6.71
7.90
9.45
11.27
13.06
14.52
15.48
15.97
16.23
16.54
17.13
18.08
19.21
20.22
20.79
20.70
19.94
18.70
17.24
15.80
14.51
13.37
12.33
11.36
10.42
9.54
8.70
7.83
6.82
5.62
4.23
2.75
1.33
0.08
-0.96
-1.92
-3.00
-4.39
-6.13
-8.10
-10.05
-11.73
-13.05
-14.13
-15.24
-16.72
-18.77
-21.39
-24.32
-27.15
-29.40
-30.63
-30.51
-28.93
-25.96
-21.98
-17.54
-13.24
-9.62
-6.86
-4.90
-3.40
-1.96
-0.35
1.51
3.53
5.57
7.56
9.49
11.31
12.93
14.13
14.71
14.61
13.96
13.08
12.31
11.89
11.87
12.18
12.75
13.52
14.47
15.48
16.32
16.73
16.58
15.93
15.08
14.40
14.12
14.26
14.57
14.72
14.44
13.64
12.38
10.84
9.22
7.62
6.13
4.72
3.34
1.92
0.44
-1.03
-2.42
-3.67
-4.89
-6.24
-7.94
-10.06
-12.48
-14.94
-17.20
-19.18
-21.05
-23.04
-25.33
-27.86
-30.34
-32.32
-33.42
-33.42
-32.31
-30.20
-27.23
-23.54
-19.30
-14.70
-9.92
-5.14
-0.45
4.12
8.59
12.96
17.11
20.82
23.77
25.67
26.41
26.07
24.99
23.63
22.43
21.65
21.35
21.38
21.51
21.55
21.46
21.28
21.10
20.92
20.64
20.12
19.25
18.03
16.58
15.05
13.58
12.21
10.94
9.74
8.59
7.48
6.43
5.44
4.52
3.68
2.91
2.15
1.33
0.40
-0.61
-1.55
-2.20
-2.41
-2.23
-1.93
-1.97
-2.70
-4.22
-6.36
-8.72
-10.93
-12.86
-14.61
-16.44
-18.54
-20.94
-23.37
-25.37
-26.42
-26.13
-24.37
-21.30
-17.32
-12.98
-8.77
-5.07
-2.03
0.36
2.20
3.58
4.62
5.43
6.11
6.79
7.53
8.31
9.07
9.69
10.13
10.37
10.44
10.39
10.26
10.09
9.96
9.97
10.28
11.06
12.40
14.27
16.55
18.96
21.10
22.48
22.66
21.35
18.55
14.54
9.83
4.95
0.34
-3.73
-7.15
-9.95
-12.27
-14.34
-16.41
-18.75
-21.54
-24.78
-28.30
-31.75
-34.74
-36.86
-37.94
-38.03
-37.46
-36.77
-36.45
-36.77
-37.64
-38.63
-39.20
-38.97
-37.92
-36.38
-34.91
-33.98
-33.80
-34.20
-34.70
-34.75
-33.92
-32.01
-29.07
-25.26
-20.76
-15.69
-10.18
-4.47
0.98
5.64
9.06
11.09
11.89
11.82
11.24
10.36
9.18
7.67
5.89
4.04
2.34
1.02
0.20
-0.06
0.17
0.73
1.24
1.25
0.38
-1.38
-3.61
-5.58
-6.63
-6.53
-5.56
-4.28
-3.09
-1.99
-0.62
1.41
4.26
7.73
11.52
15.44
19.52
23.85
28.31
32.45
35.75
37.86
38.84
39.05
38.82
38.10
36.40
33.03
27.52
19.99
11.25
2.62
-4.50
-9.01
-10.42
-8.98
-5.56
-1.37
2.37
4.78
5.49
4.70
2.97
0.95
-0.87
-2.34
-3.58
-4.76
-5.85
-6.52
-6.25
-4.60
-1.60
2.21
5.94
8.77
10.40
11.15
11.71
12.79
14.72
17.33
20.24
22.99
25.33
27.15
28.39
28.99
28.89
28.22
27.27
26.48
26.16
26.33
26.54
26.06
24.06
20.01
13.87
6.06
-2.66
-11.49
-19.71
-26.85
-32.63
-36.91
-39.61
-40.68
-40.13
-38.05
-34.66
-30.30
-25.41
-20.50
-15.99
-12.19
-9.15
-6.72
-4.63
-2.62
-0.53
1.62
3.76
5.83
7.73
9.47
11.02
12.33
13.37
14.10
14.63
15.10
15.76
16.79
18.29
20.26
22.59
25.17
27.76
30.10
31.89
32.82
32.68
31.44
29.25
26.38
23.16
19.87
16.69
13.73
11.04
8.60
6.37
4.16
1.74
-1.14
-4.61
-8.57
-12.68
-16.41
-19.24
-20.80
-21.01
-20.09
-18.52
-16.83
-15.46
-14.73
-14.73
-15.42
-16.63
-18.05
-19.28
-19.85
-19.40
-17.78
-15.19
-12.12
-9.22
-7.01
-5.72
-5.26
-5.45
-6.23
-7.79
-10.51
-14.73
-20.45
-27.22
-34.24
-40.58
-45.56
-48.91
-50.77
-51.51
-51.57
-51.25
-50.76
-50.20
-49.63
-49.11
-48.53
-47.57
-45.74
-42.48
-37.36
-30.35
-21.92
-12.93
-4.46
2.54
7.45
10.05
10.49
9.19
6.65
3.52
0.51
-1.57
-1.94
-0.08
4.17
10.44
18.03
26.12
34.07
41.60
48.64
55.19
61.07
65.86
68.95
69.78
68.02
63.70
57.17
49.06
40.12
31.02
22.32
14.35
7.30
1.29
-3.53
-6.99
-9.05
-9.80
-9.59
-8.80
-7.68
-6.11
-3.64
0.12
5.27
11.28
17.13
21.76
24.44
25.12
24.25
22.43
20.00
16.90
12.79
7.36
0.66
-6.86
-14.40
-21.06
-26.00
-28.66
-28.83
-26.73
-22.98
-18.43
-13.90
-9.84
-6.26
-2.80
0.90
4.90
8.76
11.78
13.37
13.51
12.92
12.78
14.23
17.76
22.94
28.56
33.20
35.89
36.56
36.13
36.11
37.94
42.34
48.96
56.47
63.10
67.37
68.75
67.96
66.69
67.09
71.22
80.57
95.82
116.43
140.20
162.93
178.97
182.82
171.45
146.32
113.57
82.11
60.12
51.88
56.41
68.88
83.59
96.77
107.66
117.36
126.82
135.32
140.47
139.67
131.70
117.39
99.08
79.17
59.16
39.57
20.63
3.17
-11.28
-21.04
-25.36
-24.93
-21.75
-18.38
-17.03
-19.10
-24.96
-34.20
-45.68
-57.78
-68.66
-76.87
-81.98
-84.88
-87.47
-91.80
-99.01
-108.71
-119.14
-127.92
-132.95
-133.17
-128.64
-120.36
-109.73
-98.15
-86.77
-76.29
-66.93
-58.47
-50.30
-41.73
-32.19
-21.49
-9.97
1.56
12.05
20.43
25.87
27.93
26.66
22.49
16.25
8.87
1.22
-6.07
-12.79
-18.99
-24.97
-31.03
-37.44
-44.41
-52.05
-60.28
-68.71
-76.57
-82.91
-86.86
-88.09
-87.05
-84.80
-82.65
-81.55
-81.80
-83.06
-84.68
-86.14
-87.15
-87.69
-87.82
-87.40
-86.11
-83.51
-79.26
-73.31
-65.97
-57.92
-49.97
-42.86
-37.04
-32.58
-29.21
-26.49
-24.05
-21.67
-19.23
-16.57
-13.39
-9.24
-3.78
3.03
10.87
19.16
27.40
35.42
43.37
51.53
59.97
68.30
75.72
81.32
84.37
84.69
82.60
78.75
73.92
68.75
63.75
59.33
55.85
53.59
52.64
52.82
53.60
54.23
53.86
51.81
47.71
41.71
34.34
26.46
18.83
11.89
5.59
-0.49
-6.91
-14.03
-21.78
-29.77
-37.52
-44.74
-51.51
-58.22
-65.35
-73.28
-82.19
-92.00
-102.45
-112.96
-122.61
-130.22
-134.54
-134.76
-130.76
-123.20
-113.28
-102.18
-90.78
-79.32
-67.63
-55.31
-42.06
-27.80
-12.78
2.44
16.97
29.85
40.25
47.77
52.80
56.44
60.08
64.74
70.28
75.02
76.27
71.43
59.40
41.50
21.12
2.31
-12.13
-21.86
-28.69
-35.12
-42.52
-50.35
-56.77
-60.21
-60.66
-59.71
-59.31
-60.23
-61.30
-59.94
-53.67
-41.47
-24.24
-4.20
16.26
35.42
52.39
66.64
77.45
83.83
84.95
80.62
71.63
59.61
46.42
33.53
21.66
10.83
0.73
-8.81
-17.65
-25.37
-31.59
-36.24
-39.65
-42.33
-44.65
-46.54
-47.47
-46.58
-43.09
-36.58
-27.24
-15.85
-3.64
8.02
17.89
25.13
29.48
31.25
31.23
30.37
29.52
29.19
29.46
30.10
30.81
31.51
32.37
33.82
36.32
40.05
44.78
49.88
54.58
58.21
60.52
61.75
62.51
63.66
66.02
70.26
76.66
84.77
93.11
99.14
99.74
92.33
76.01
52.31
24.95
-1.43
-22.95
-37.84
-46.81
-52.18
-56.55
-61.58
-67.50
-73.53
-78.72
-82.68
-85.63
-88.17
-90.64
-92.98
-94.65
-95.13
-94.22
-92.20
-89.66
-87.08
-84.57
-81.78
-78.21
-73.47
-67.60
-60.98
-54.15
-47.50
-41.13
-34.92
-28.75
-22.73
-17.21
-12.65
-9.28
-6.97
-5.12
-2.97
0.15
4.56
10.20
16.75
23.79
30.79
37.23
42.48
45.99
47.44
46.94
45.08
42.71
40.55
38.83
37.29
35.34
32.45
28.51
23.85
19.12
14.96
11.80
9.74
8.60
7.95
7.37
6.46
5.05
3.18
1.09
-0.99
-3.02
-5.20
-7.88
-11.32
-15.46
-19.88
-23.95
-27.23
-29.67
-31.63
-33.72
-36.49
-40.14
-44.47
-49.05
-53.28
-56.64
-58.69
-59.10
-57.52
-53.73
-47.65
-39.52
-29.88
-19.50
-9.21
0.50
9.61
18.56
27.90
37.97
48.50
58.73
67.66
74.53
79.14
81.69
82.58
82.07
80.21
77.04
72.67
67.29
60.83
52.78
42.24
28.47
11.60
-6.97
-24.79
-39.21
-48.46
-52.23
-51.71
-48.95
-46.01
-44.49
-45.33
-48.85
-54.78
-62.15
-69.33
-74.34
-75.47
-72.03
-64.74
-55.62
-47.10
-41.13
-38.40
-38.29
-39.39
-40.30
-40.26
-39.37
-38.26
-37.57
-37.55
-37.93
-38.05
-37.25
-35.00
-31.00
-25.07
-17.06
-6.91
5.12
18.32
31.55
43.55
53.39
60.91
66.75
71.97
77.52
83.79
90.45
96.69
101.78
105.51
108.26
110.84
114.02
118.18
122.99
127.45
130.17
129.86
125.74
117.87
107.15
94.98
82.77
71.43
61.26
51.98
43.15
34.46
25.85
17.38
9.02
0.64
-7.90
-16.41
-24.23
-30.39
-34.09
-35.09
-34.15
-32.76
-32.71
-35.36
-41.19
-49.54
-58.85
-67.12
-72.47
-73.56
-69.98
-62.40
-52.52
-42.55
-34.67
-30.22
-29.28
-30.77
-32.99
-34.42
-34.32
-32.78
-30.34
-27.41
-23.95
-19.52
-13.85
-7.23
-0.58
4.89
8.36
9.77
9.80
9.35
8.99
8.66
7.77
5.69
2.18
-2.43
-7.46
-12.20
-16.30
-19.78
-22.95
-26.17
-29.59
-33.24
-36.96
-40.56
-43.91
-46.88
-49.26
-50.71
-50.70
-48.65
-44.11
-37.02
-27.86
-17.58
-7.32
1.95
9.73
16.13
21.60
26.60
31.23
35.17
37.85
38.86
38.33
36.99
36.06
36.83
40.36
47.26
57.64
71.07
86.34
101.22
112.40
115.93
108.33
87.85
55.44
14.83
-28.45
-68.69
-101.57
-125.19
-140.12
-148.74
-154.05
-158.77
-164.55
-171.87
-180.11
-188.02
-194.17
-197.36
-196.90
-192.70
-185.27
-175.67
-165.40
-156.16
-149.36
-145.75
-144.96
-145.54
-145.42
-142.66
-136.08
-125.58
-111.69
-94.80
-74.60
-50.25
-21.28
11.23
43.91
71.67
89.32
93.78
85.61
69.06
50.48
35.87
28.88
29.85
36.72
46.67
57.59
68.71
79.97
91.00
100.44
106.39
107.65
105.02
101.72
102.21
110.15
126.31
147.96
169.80
186.15
193.24
190.48
180.02
165.27
149.24
133.58
118.75
104.76
91.94
81.09
73.02
67.87
64.77
62.37
59.46
55.78
52.24
50.27
50.98
54.42
59.39
63.88
65.93
64.35
59.07
51.01
41.54
32.05
23.64
17.08
12.88
11.26
12.13
14.96
18.91
22.91
25.92
27.06
25.65
21.26
13.88
4.17
-6.41
-15.83
-22.21
-24.59
-23.47
-20.68
-18.63
-19.19
-22.94
-28.98
-35.35
-40.03
-41.67
-40.16
-36.64
-33.12
-32.01
-35.38
-44.42
-58.79
-76.32
-93.03
-103.76
-103.51
-89.01
-60.34
-21.38
21.02
59.35
87.97
105.21
113.66
118.66
126.06
139.88
161.03
187.35
214.66
238.43
255.04
262.43
260.15
248.96
230.41
206.62
180.14
153.93
131.10
114.27
104.78
101.86
102.59
102.59
97.56
84.89
64.71
39.79
14.18
-8.50
-26.58
-40.75
-53.72
-68.59
-87.38
-110.11
-134.79
-158.29
-177.57
-190.78
-197.56
-198.83
-196.04
-190.57
-183.55
-175.85
-168.39
-162.20
-158.18
-156.73
-157.52
-159.61
-161.85
-163.42
-164.21
-164.77
-165.93
-168.28
-171.85
-176.04
-179.86
-182.50
-183.69
-183.90
-184.20
-185.73
-189.18
-194.37
-200.09
-204.36
-204.81
-199.43
-186.99
-167.42
-141.78
-112.05
-80.83
-50.89
-24.64
-3.62
11.84
22.65
30.52
37.36
44.68
53.40
63.86
75.93
89.03
101.93
112.84
119.85
121.82
119.32
114.77
111.70
113.21
120.57
132.86
147.52
161.60
172.73
179.54
181.35
177.86
168.98
155.08
137.34
117.74
98.70
82.30
69.57
60.22
53.00
46.48
39.93
33.78
29.38
28.18
30.74
36.19
42.45
47.22
49.00
47.82
44.90
41.79
39.46
37.82
36.06
33.31
29.29
24.39
19.39
14.82
10.71
6.63
2.10
-2.91
-7.90
-11.95
-14.25
-14.52
-13.26
-11.52
-10.46
-10.92
-13.05
-16.41
-20.32
-24.16
-27.66
-30.78
-33.44
-35.23
-35.43
-33.38
-28.87
-22.54
-15.62
-9.55
-5.24
-2.69
-1.16
0.34
2.40
4.84
6.87
7.62
6.75
4.67
2.27
0.43
-0.47
-0.67
-0.71
-0.95
-1.22
-0.90
0.72
3.89
8.14
12.38
15.19
15.45
12.66
7.13
-0.17
-8.06
-15.44
-21.75
-26.89
-31.14
-34.75
-37.75
-39.78
-40.38
-39.21
-36.19
-31.51
-25.43
-18.24
-10.29
-2.18
5.35
11.71
16.82
21.35
26.23
32.04
38.38
43.88
46.85
46.21
42.20
36.19
30.03
25.08
21.76
19.77
18.58
17.92
17.83
18.42
19.54
20.70
21.30
20.89
19.43
17.23
14.75
12.49
10.82
10.00
10.07
10.85
11.92
12.75
12.95
12.52
11.90
11.81
12.95
15.69
19.97
25.29
30.90
35.92
39.50
40.90
39.73
36.05
30.43
23.75
16.90
10.51
4.83
-0.13
-4.38
-7.73
-9.90
-10.62
-9.91
-7.97
-5.05
-1.17
3.94
10.58
18.80
27.95
36.67
43.26
46.26
45.12
40.49
34.04
27.78
23.20
20.75
19.63
18.34
15.29
9.61
1.56
-7.59
-15.96
-21.85
-24.34
-23.54
-20.51
-16.69
-13.21
-10.34
-7.45
-3.44
2.58
10.66
19.94
29.09
36.94
43.04
47.85
52.38
57.88
65.46
76.15
90.73
109.40
131.16
153.40
172.28
183.92
186.20
179.91
168.85
158.35
153.17
155.68
165.34
179.54
195.07
209.37
220.84
228.36
230.70
226.37
214.20
194.19
167.96
138.37
108.63
81.03
56.17
32.97
9.20
-17.49
-48.73
-84.64
-123.68
-162.80
-198.18
-226.23
-244.57
-252.71
-251.99
-244.97
-234.46
-222.69
-210.92
-199.53
-188.46
-177.66
-167.53
-158.90
-152.76
-149.68
-149.31
-150.19
-150.05
-146.74
-139.14
-127.69
-114.07
-100.29
-87.82
-77.29
-68.81
-62.62
-59.22
-58.90
-60.91
-63.23
-63.16
-58.81
-50.39
-40.39
-32.51
-29.85
-33.47
-42.16
-53.43
-65.05
-76.12
-86.94
-98.27
-110.14
-121.51
-130.40
-134.75
-133.34
-126.18
-114.54
-100.47
-86.34
-74.22
-65.52
-60.67
-59.03
-59.03
-58.66
-56.01
-49.87
-40.14
-27.87
-14.97
-3.74
3.67
5.92
2.93
-4.06
-12.74
-20.59
-25.72
-27.64
-27.39
-27.05
-28.79
-33.93
-42.19
-51.72
-59.49
-62.31
-57.89
-45.72
-27.36
-6.16
13.79
28.85
36.98
38.17
34.26
28.19
23.03
21.11
23.48
29.88
38.92
48.70
57.30
63.34
66.29
66.35
64.35
61.43
58.78
57.33
57.62
59.67
63.03
66.98
70.82
74.06
76.43
77.70
77.56
75.57
71.32
64.61
55.58
44.63
32.34
19.35
6.45
-5.39
-15.07
-21.53
-24.07
-22.61
-17.77
-10.74
-2.91
4.41
10.39
14.65
17.28
18.52
18.55
17.34
14.65
10.32
4.46
-2.27
-8.84
-14.12
-17.33
-18.38
-17.72
-16.11
-14.13
-12.01
-9.58
-6.66
-3.29
0.18
3.16
5.24
6.35
6.94
7.64
9.12
11.78
15.61
20.28
25.24
29.93
33.87
36.81
38.64
39.45
39.37
38.49
36.94
34.85
32.45
30.07
28.04
26.51
25.40
24.41
23.18
21.52
19.50
17.48
15.87
14.91
14.50
14.15
13.20
11.04
7.50
2.94
-1.74
-5.41
-7.23
-6.95
-5.11
-2.83
-1.31
-1.26
-2.58
-4.38
-5.45
-4.76
-1.89
2.94
9.12
15.96
22.91
29.47
35.16
39.54
42.56
44.96
48.18
53.96
63.20
75.30
88.03
98.56
105.00
107.63
109.02
112.87
121.92
136.31
153.07
167.13
173.40
168.64
152.36
126.39
93.49
56.10
15.89
-25.78
-66.90
-104.33
-134.16
-153.04
-159.55
-155.01
-143.00
-128.01
-113.89
-102.72
-94.85
-89.44
-85.31
-81.51
-77.68
-73.86
-70.39
-67.70
-66.21
-66.08
-67.12
-68.46
-68.75
-66.51
-61.08
-53.23
-45.13
-39.43
-37.84
-40.20
-44.51
-48.23
-50.00
-50.72
-53.15
-60.33
-73.55
-91.34
-110.02
-125.50
-135.16
-138.63
-137.42
-133.58
-128.58
-122.68
-115.12
-104.67
-90.30
-71.74
-49.80
-26.56
-5.12
11.10
19.38
18.69
10.14
-3.20
-17.29
-28.28
-33.67
-32.84
-27.04
-18.79
-10.89
-5.66
-4.12
-5.77
-8.84
-11.02
-10.44
-6.32
0.79
9.43
17.99
25.30
30.89
34.76
37.18
38.56
39.48
40.79
43.46
47.99
54.03
60.18
64.39
64.88
61.04
53.74
45.06
37.26
31.91
29.38
28.88
29.09
28.71
26.93
23.43
18.27
11.67
3.86
-4.79
-13.66
-21.73
-27.79
-30.78
-30.22
-26.48
-20.72
-14.43
-8.95
-5.05
-2.79
-1.74
-1.33
-1.08
-0.68
0.16
1.82
4.66
8.96
14.65
21.21
27.75
33.35
37.32
39.45
40.00
39.54
38.68
37.76
36.86
35.82
34.48
32.78
30.87
29.11
27.85
27.45
28.09
29.69
31.92
34.19
35.82
36.20
35.13
32.85
29.95
27.05
24.48
22.13
19.56
16.31
12.14
7.15
1.71
-3.68
-8.61
-12.73
-15.86
-17.98
-19.34
-20.37
-21.52
-23.17
-25.40
-28.01
-30.70
-33.21
-35.50
-37.68
-40.02
-42.77
-46.09
-49.94
-53.97
-57.50
-59.62
-59.51
-56.71
-51.44
-44.47
-36.88
-29.57
-23.01
-17.18
-11.76
-6.45
-1.16
3.96
8.69
12.89
16.56
19.77
22.53
24.83
26.54
27.58
28.03
28.12
28.22
28.65
29.56
30.86
32.25
33.35
33.86
33.63
32.75
31.47
30.12
28.93
27.97
27.14
26.24
25.17
24.00
23.03
22.58
22.81
23.47
23.98
23.65
22.10
19.54
16.76
14.77
14.32
15.45
17.49
19.35
20.03
19.13
17.02
14.69
13.40
14.20
17.54
23.14
29.89
36.08
39.90
39.92
35.82
28.62
20.63
14.90
14.29
20.60
33.99
52.96
74.79
96.37
114.95
128.90
138.06
143.61
147.41
151.09
155.23
158.93
160.17
156.59
146.57
129.70
106.76
79.07
47.93
14.39
-20.54
-55.26
-87.32
-113.80
-132.19
-141.42
-142.43
-137.89
-131.11
-124.84
-120.27
-116.99
-113.67
-109.08
-102.91
-95.84
-88.98
-83.11
-78.18
-73.36
-67.64
-60.54
-52.46
-44.69
-38.93
-36.55
-37.82
-41.41
-44.68
-44.67
-39.44
-28.99
-15.36
-1.51
10.10
18.48
24.09
27.63
28.83
25.86
16.11
-2.24
-28.81
-60.66
-93.21
-121.89
-143.59
-157.24
-163.49
-163.87
-160.05
-153.22
-143.82
-131.41
-114.76
-92.22
-62.19
-23.83
22.44
74.48
128.44
178.91
219.64
244.81
250.54
236.22
204.89
162.59
116.47
72.75
35.17
4.54
-20.38
-41.61
-60.88
-79.37
-97.89
-117.13
-137.46
-158.26
-177.55
-192.02
-198.07
-193.18
-177.09
-152.03
-122.08
-91.73
-64.56
-42.40
-25.39
-12.49
-2.11
7.29
16.84
27.00
37.37
46.91
54.52
59.91
63.95
68.38
74.68
82.84
90.83
95.31
93.12
83.05
66.35
46.12
25.79
7.73
-7.13
-18.82
-27.32
-32.18
-32.72
-28.85
-21.52
-12.60
-4.17
2.42
7.05
10.67
14.67
20.22
27.61
36.26
44.80
51.56
55.07
54.72
51.09
45.90
41.49
39.82
41.72
46.47
52.32
57.35
60.29
61.01
60.19
58.74
57.19
55.55
53.54
51.09
48.56
46.68
46.13
47.09
49.01
50.82
51.36
50.00
46.92
43.02
39.48
37.25
36.58
37.05
37.87
38.26
37.83
36.64
35.06
33.58
32.58
32.18
32.29
32.59
32.57
31.59
29.05
24.54
18.14
10.42
2.30
-5.28
-11.74
-16.95
-21.13
-24.55
-27.32
-29.31
-30.31
-30.30
-29.50
-28.38
-27.50
-27.40
-28.60
-31.51
-36.29
-42.62
-49.60
-55.73
-59.39
-59.33
-55.26
-47.92
-38.79
-29.51
-21.26
-14.49
-8.92
-4.00
0.75
5.42
9.73
13.31
15.95
17.75
19.01
20.01
20.77
21.00
20.31
18.46
15.66
12.53
9.92
8.49
8.43
9.35
10.46
10.96
10.31
8.45
5.70
2.51
-0.76
-4.04
-7.52
-11.53
-16.28
-21.76
-27.70
-33.64
-39.14
-43.94
-47.97
-51.32
-54.13
-56.54
-58.64
-60.54
-62.40
-64.38
-66.53
-68.78
-70.83
-72.36
-73.13
-73.18
-72.86
-72.73
-73.41
-75.25
-78.16
-81.41
-83.60
-82.99
-77.88
-67.24
-51.24
-31.39
-10.20
9.54
25.73
37.59
45.68
51.50
56.57
61.80
67.20
72.07
75.56
77.08
76.50
73.99
69.85
64.35
57.74
50.39
42.89
36.03
30.53
26.79
24.77
23.93
23.50
22.78
21.47
19.75
18.28
17.75
18.67
21.05
24.47
28.24
31.71
34.43
36.18
36.88
36.50
35.16
33.13
30.91
28.98
27.60
26.50
24.88
21.78
16.54
9.26
0.87
-7.20
-13.59
-17.59
-19.46
-20.27
-21.21
-23.08
-25.69
-27.98
-28.43
-25.84
-19.93
-11.56
-2.24
6.51
13.89
19.93
25.28
30.63
36.57
43.60
52.34
63.30
76.50
90.85
104.33
114.64
120.68
123.58
126.68
134.11
148.57
169.53
192.98
212.95
223.90
222.84
210.01
187.88
159.38
126.26
88.76
46.62
0.58
-46.38
-89.43
-123.44
-145.16
-154.65
-155.17
-151.63
-148.39
-147.52
-148.45
-149.03
-147.13
-142.26
-135.85
-130.71
-129.56
-133.65
-142.04
-151.78
-159.06
-160.89
-156.64
-148.62
-141.35
-139.66
-146.56
-161.67
-180.95
-198.14
-206.68
-201.71
-180.90
-144.80
-96.82
-43.09
7.98
47.46
68.60
69.79
55.81
36.26
21.29
16.87
22.21
30.84
34.81
29.11
14.02
-6.11
-26.13
-43.22
-57.66
-71.20
-84.50
-95.54
-100.08
-93.81
-74.91
-45.28
-9.95
24.93
54.32
75.84
89.87
98.84
105.71
112.68
120.38
127.80
132.82
132.98
126.39
112.19
90.84
64.00
34.18
4.23
-23.14
-45.74
-61.96
-70.83
-71.98
-65.76
-53.42
-37.20
-19.96
-4.68
6.40
12.36
13.74
12.15
9.60
7.73
7.41
8.62
10.66
12.60
13.66
13.52
12.42
11.12
10.62
11.62
14.16
17.40
20.01
20.77
19.33
16.47
13.93
13.63
16.88
23.88
33.71
44.89
56.02
66.29
75.65
84.50
93.24
101.90
110.04
116.87
121.59
123.65
123.23
121.53
120.81
124.00
133.77
151.27
175.19
201.64
225.12
240.23
243.42
233.91
213.38
184.88
151.44
115.11
76.99
37.72
-1.77
-39.70
-73.63
-101.04
-120.26
-131.33
-136.15
-137.88
-139.71
-143.52
-149.15
-154.59
-157.09
-154.54
-146.37
-133.68
-118.65
-103.87
-91.99
-85.68
-87.27
-97.75
-115.45
-135.42
-150.66
-155.29
-147.89
-133.04
-119.65
-116.63
-128.22
-151.86
-179.46
-201.46
-210.78
-204.92
-185.38
-155.71
-119.80
-81.47
-44.73
-13.76
8.16
20.28
25.17
27.90
33.72
45.42
62.07
79.59
92.88
98.08
94.07
82.38
65.93
47.76
30.03
13.95
0.12
-11.05
-19.17
-24.18
-26.57
-27.26
-27.12
-26.50
-24.94
-21.52
-15.45
-6.75
3.45
13.23
20.45
23.54
21.93
16.15
7.54
-2.21
-11.59
-19.68
-26.34
-32.25
-38.38
-45.52
-53.61
-61.61
-67.72
-70.02
-67.19
-58.95
-46.20
-30.77
-15.01
-1.35
8.14
12.21
10.80
4.96
-3.41
-12.22
-19.77
-25.08
-27.74
-27.65
-24.86
-19.61
-12.52
-4.60
3.06
9.77
15.56
21.00
26.76
32.99
39.29
45.05
49.98
54.42
59.09
64.45
70.10
74.74
76.69
74.72
68.67
59.57
49.24
39.54
31.97
27.25
25.51
26.35
28.97
32.33
35.33
37.09
37.19
35.78
33.45
30.92
28.77
27.20
26.16
25.44
24.80
24.01
22.86
21.16
18.88
16.17
13.34
10.74
8.55
6.64
4.69
2.33
-0.62
-4.06
-7.66
-11.07
-14.10
-16.79
-19.41
-22.25
-25.45
-28.91
-32.23
-34.79
-35.94
-35.23
-32.54
-28.14
-22.58
-16.48
-10.38
-4.62
0.66
5.36
9.44
12.81
15.42
17.33
18.76
20.07
21.56
23.32
25.13
26.59
27.34
27.30
26.78
26.29
26.33
27.04
28.15
29.11
29.48
29.16
28.44
27.79
27.51
27.48
27.27
26.43
24.84
22.78
20.85
19.62
19.30
19.69
20.41
21.12
21.73
22.30
22.91
23.44
23.56
22.93
21.42
19.17
16.62
14.30
12.67
11.96
12.17
13.04
14.11
14.90
14.99
14.18
12.62
10.80
9.41
9.17
10.69
14.40
20.50
28.93
39.41
51.54
64.77
78.64
92.75
106.87
120.80
134.34
147.27
159.36
170.45
180.57
189.94
198.96
208.01
217.27
226.41
234.41
239.57
239.84
233.48
219.76
199.30
173.89
145.81
116.79
87.33
56.68
23.63
-12.23
-49.65
-85.53
-115.71
-136.28
-144.88
-141.57
-128.96
-111.61
-94.89
-83.71
-81.19
-87.84
-101.55
-118.35
-133.84
-144.62
-149.23
-148.05
-142.55
-134.30
-124.47
-113.89
-103.51
-94.57
-88.39
-85.77
-86.50
-89.32
-92.48
-94.57
-95.17
-94.91
-95.07
-96.86
-100.83
-106.59
-112.93
-118.20
-120.78
-119.58
-114.26
-105.26
-93.63
-80.67
-67.59
-55.25
-44.15
-34.42
-26.05
-18.96
-13.04
-8.21
-4.31
-1.17
1.45
3.80
6.09
8.42
10.64
12.55
13.84
14.31
13.94
12.88
11.45
10.01
8.89
8.28
8.15
8.31
8.51
8.65
8.88
9.67
11.52
14.68
18.92
23.47
27.31
29.69
30.44
30.06
29.46
29.47
30.46
32.30
34.44
36.40
37.87
38.92
39.76
40.76
42.32
44.84
48.66
53.69
59.09
63.16
63.60
58.31
46.13
27.30
3.13
-24.79
-55.24
-87.59
-121.30
-155.23
-187.22
-214.59
-235.01
-247.42
-252.24
-250.69
-243.76
-231.52
-213.24
-188.26
-156.88
-120.81
-82.76
-45.73
-12.15
16.44
39.29
56.11
66.82
71.62
71.14
66.63
59.73
52.16
45.13
39.03
33.59
28.29
22.76
17.08
11.61
6.60
1.83
-3.53
-10.58
-19.92
-31.12
-42.48
-51.49
-55.78
-54.03
-46.56
-35.10
-22.07
-9.54
1.43
10.98
19.94
29.14
38.78
48.32
56.81
63.52
68.29
71.57
74.09
76.37
78.33
79.32
78.49
75.37
70.18
63.97
58.21
54.16
52.40
52.62
53.90
55.24
55.94
55.85
55.10
53.92
52.38
50.45
48.06
45.29
42.34
39.41
36.64
34.07
31.68
29.51
27.68
26.25
25.26
24.60
24.15
23.84
23.67
23.62
23.53
23.17
22.34
20.99
19.38
17.98
17.15
16.94
16.99
16.60
15.13
12.18
7.82
2.49
-3.16
-8.53
-13.31
-17.48
-21.39
-25.44
-29.78
-34.06
-37.33
-38.35
-36.06
-30.12
-21.04
-10.00
1.65
12.93
23.32
32.80
41.52
49.66
57.40
64.89
72.12
78.72
83.73
85.80
83.83
77.83
69.41
61.52
57.41
59.21
67.00
78.65
90.85
100.51
105.90
107.12
105.60
103.08
100.64
98.33
95.45
91.14
85.05
77.38
68.58
58.77
47.37
33.23
15.30
-6.52
-30.88
-55.15
-76.30
-91.85
-100.78
-103.62
-101.95
-97.80
-92.95
-88.69
-85.79
-84.58
-85.02
-86.82
-89.52
-92.44
-94.98
-96.56
-96.81
-95.55
-92.90
-89.19
-84.90
-80.43
-75.94
-71.37
-66.50
-61.23
-55.73
-50.44
-46.00
-42.91
-41.47
-41.54
-42.58
-43.52
-42.89
-39.25
-31.79
-21.00
-8.76
2.15
9.07
10.51
6.49
-1.73
-12.55
-24.71
-37.58
-50.76
-63.70
-75.40
-84.72
-91.02
-94.48
-96.15
-97.53
-99.94
-104.17
-110.40
-118.33
-127.24
-136.20
-144.02
-149.48
-151.51
-149.35
-142.62
-131.31
-115.73
-96.49
-74.58
-51.32
-28.25
-6.83
11.86
27.19
38.99
47.40
52.75
55.40
55.66
53.67
49.37
42.58
33.25
21.76
8.93
-3.98
-15.64
-24.92
-31.00
-33.44
-32.23
-28.03
-22.26
-16.98
-14.13
-14.51
-16.92
-18.43
-15.56
-6.07
9.59
28.17
44.72
54.69
55.78
48.78
37.00
24.82
15.95
12.27
13.77
19.12
26.71
35.36
44.44
53.55
62.15
69.36
74.18
75.98
74.94
72.16
69.21
67.47
67.64
69.48
72.11
74.41
75.55
75.13
73.28
70.44
67.17
63.99
61.23
58.97
57.06
55.17
52.90
49.95
46.23
41.83
36.96
31.90
26.85
22.02
17.62
13.87
10.89
8.62
6.85
5.36
4.15
3.60
4.28
6.68
10.83
16.11
21.44
25.77
28.54
29.93
30.72
31.88
34.06
37.33
41.15
44.71
47.35
48.88
49.66
50.49
52.18
55.28
59.80
65.34
71.29
77.01
81.94
85.69
88.03
89.14
89.83
91.58
96.23
105.13
118.18
133.23
146.29
152.66
148.81
133.94
110.70
84.39
61.01
44.97
37.54
36.84
39.19
41.07
40.51
37.22
31.58
23.54
12.11
-3.98
-24.92
-48.87
-72.09
-90.42
-101.07
-103.87
-101.13
-96.37
-92.65
-91.44
-92.52
-94.61
-96.44
-97.33
-97.27
-96.61
-95.56
-94.04
-91.73
-88.40
-84.03
-78.87
-73.32
-67.70
-62.24
-57.06
-52.37
-48.49
-45.92
-45.10
-46.23
-49.01
-52.67
-56.16
-58.51
-59.12
-58.04
-56.00
-54.32
-54.50
-57.73
-64.21
-72.63
-80.27
-83.74
-80.19
-68.56
-50.37
-29.39
-10.46
2.34
7.33
5.81
1.50
-1.19
1.08
9.46
22.93
39.03
54.98
68.34
77.17
79.89
75.22
62.48
42.07
15.86
-13.07
-41.13
-65.43
-84.49
-98.61
-109.45
-119.22
-129.69
-141.37
-153.25
-163.01
-167.83
-165.55
-155.30
-137.84
-115.21
-89.99
-64.62
-40.90
-19.94
-2.30
11.71
21.96
28.41
31.32
31.26
28.98
25.06
19.64
12.40
2.85
-9.08
-22.68
-36.59
-49.33
-59.95
-68.36
-74.99
-80.09
-83.08
-82.42
-76.33
-63.90
-45.87
-24.78
-4.20
12.57
23.70
29.28
31.10
31.72
33.47
37.77
44.91
54.30
64.77
75.04
83.79
89.85
92.42
91.28
86.95
80.64
73.88
68.20
64.62
63.50
64.46
66.63
68.84
69.95
69.11
66.03
60.90
54.32
47.10
40.02
33.72
28.67
25.30
23.85
24.31
26.20
28.63
30.54
31.08
30.01
27.76
25.09
22.70
20.83
19.18
17.24
14.60
11.26
7.60
4.06
0.91
-1.91
-4.75
-7.96
-11.67
-15.75
-19.92
-23.88
-27.59
-31.17
-34.78
-38.38
-41.58
-43.69
-43.95
-41.94
-37.74
-31.95
-25.49
-19.33
-14.11
-10.14
-7.32
-5.29
-3.52
-1.50
1.17
4.70
9.13
14.50
20.93
28.62
37.69
47.91
58.58
68.61
76.98
83.11
87.12
89.64
91.45
93.07
94.64
96.04
97.18
98.06
98.62
98.54
97.10
93.53
87.39
78.98
69.32
59.65
50.91
43.36
36.57
29.93
23.06
16.06
9.46
3.83
-0.48
-3.49
-5.56
-7.20
-8.93
-11.12
-13.95
-17.38
-21.19
-25.05
-28.68
-31.92
-34.80
-37.51
-40.25
-43.21
-46.50
-50.15
-54.06
-57.94
-61.31
-63.50
-63.82
-61.82
-57.43
-51.14
-43.79
-36.47
-30.11
-25.28
-22.04
-20.02
-18.55
-16.89
-14.48
-11.11
-6.98
-2.64
1.19
3.97
5.49
6.00
6.00
6.02
6.32
6.87
7.44
7.81
7.95
7.98
8.06
8.20
8.15
7.54
6.10
3.82
1.07
-1.57
-3.52
-4.50
-4.68
-4.50
-4.48
-4.88
-5.63
-6.43
-6.92
-6.97
-6.76
-6.58
-6.73
-7.33
-8.32
-9.53
-10.80
-11.99
-13.05
-13.93
-14.67
-15.41
-16.38
-17.82
-19.92
-22.68
-25.96
-29.50
-32.92
-35.74
-37.38
-37.24
-34.95
-30.60
-24.75
-18.38
-12.44
-7.59
-3.90
-0.97
1.75
4.68
7.86
11.07
13.95
16.27
18.00
19.32
20.46
21.53
22.52
23.31
23.78
23.96
24.01
24.15
24.45
24.77
24.74
23.98
22.28
19.84
17.20
15.13
14.32
15.10
17.32
20.35
23.36
25.60
26.62
26.40
25.25
23.60
21.79
19.97
18.14
16.26
14.41
12.80
11.63
10.97
10.61
10.19
9.31
7.73
5.47
2.79
0.01
-2.60
-4.94
-7.06
-9.06
-11.05
-13.04
-14.97
-16.82
-18.69
-20.76
-23.37
-26.74
-30.82
-35.18
-39.01
-41.35
-41.41
-38.96
-34.38
-28.60
-22.69
-17.51
-13.45
-10.38
-7.94
-5.73
-3.60
-1.53
0.40
2.21
4.15
6.56
9.74
13.77
18.44
23.30
27.84
31.65
34.55
36.62
38.00
38.82
39.08
38.71
37.58
35.75
33.41
30.89
28.53
26.51
24.84
23.40
22.07
20.84
19.78
19.04
18.64
18.46
18.25
17.81
17.02
15.96
14.82
13.80
12.97
12.23
11.38
10.18
8.51
6.43
4.13
1.83
-0.30
-2.32
-4.48
-7.13
-10.51
-14.63
-19.15
-23.51
-27.17
-29.83
-31.56
-32.77
-34.04
-35.80
-38.16
-40.82
-43.19
-44.60
-44.58
-42.94
-39.82
-35.55
-30.60
-25.37
-20.22
-15.47
-11.39
-8.17
-5.89
-4.42
-3.51
-2.83
-2.17
-1.49
-0.96
-0.79
-1.05
-1.53
-1.82
-1.46
-0.26
1.58
3.53
4.99
5.57
5.26
4.40
3.42
2.62
2.11
1.73
1.32
0.78
0.12
-0.60
-1.32
-2.07
-2.96
-4.08
-5.51
-7.12
-8.64
-9.68
-9.89
-9.16
-7.69
-5.99
-4.68
-4.24
-4.80
-6.12
-7.80
-9.44
-10.90
-12.27
-13.74
-15.45
-17.34
-19.15
-20.65
-21.71
-22.35
-22.75
-23.00
-22.97
-22.32
-20.55
-17.27
-12.39
-6.27
0.40
6.71
11.98
15.87
18.55
20.55
22.49
24.78
27.47
30.28
32.82
34.76
36.05
36.85
37.42
37.88
38.22
38.30
38.02
37.40
36.64
36.00
35.68
35.67
35.73
35.54
34.83
33.51
31.68
29.57
27.45
25.46
23.61
21.84
20.06
18.23
16.43
14.79
13.35
12.05
10.67
8.95
6.71
3.97
0.95
-2.02
-4.64
-6.78
-8.56
-10.23
-12.05
-14.17
-16.53
-18.90
-20.97
-22.54
-23.61
-24.38
-25.14
-26.23
-27.91
-30.29
-33.37
-36.98
-40.84
-44.48
-47.21
-48.40
-47.51
-44.41
-39.45
-33.38
-27.21
-21.80
-17.64
-14.69
-12.50
-10.40
-7.82
-4.55
-0.76
3.15
6.71
9.64
11.91
13.64
15.00
16.00
16.48
16.27
15.29
13.74
12.00
10.57
9.78
9.69
10.04
10.44
10.56
10.27
9.69
9.14
8.95
9.27
10.04
10.95
11.65
11.87
11.61
11.11
10.76
10.85
11.36
12.00
12.36
12.13
11.38
10.39
9.51
8.86
8.23
7.28
5.75
3.70
1.52
-0.34
-1.61
-2.37
-2.97
-3.78
-4.92
-6.23
-7.38
-8.13
-8.50
-8.89
-9.86
-11.90
-15.16
-19.26
-23.38
-26.52
-27.80
-26.87
-23.91
-19.66
-15.03
-10.78
-7.31
-4.56
-2.27
-0.13
1.97
3.99
5.84
7.60
9.45
11.58
14.00
16.35
18.05
18.54
17.66
15.76
13.57
11.92
11.32
11.76
12.75
13.60
13.72
12.88
11.26
9.28
7.41
5.98
5.04
4.47
4.05
3.65
3.26
3.01
3.08
3.57
4.42
5.41
6.28
6.79
6.89
6.62
6.11
5.40
4.41
2.98
0.99
-1.49
-4.18
-6.69
-8.66
-9.96
-10.77
-11.42
-12.29
-13.59
-15.32
-17.37
-19.60
-21.97
-24.50
-27.11
-29.54
-31.29
-31.75
-30.48
-27.38
-22.87
-17.76
-12.98
-9.24
-6.79
-5.36
-4.42
-3.36
-1.82
0.19
2.39
4.41
5.98
7.10
7.91
8.63
9.33
9.88
10.06
9.67
8.74
7.53
6.42
5.74
5.57
5.71
5.76
5.36
4.35
2.83
1.12
-0.46
-1.70
-2.65
-3.47
-4.33
-5.31
-6.32
-7.19
-7.72
-7.83
-7.60
-7.24
-6.99
-7.00
-7.28
-7.69
-8.00
-8.02
-7.74
-7.29
-6.95
-6.98
-7.49
-8.37
-9.38
-10.23
-10.81
-11.18
-11.61
-12.41
-13.81
-15.81
-18.27
-20.88
-23.30
-25.21
-26.27
-26.19
-24.72
-21.81
-17.67
-12.79
-7.88
-3.60
-0.37
1.78
3.18
4.34
5.75
7.71
10.21
13.02
15.79
18.20
20.07
21.40
22.33
23.00
23.44
23.57
23.24
22.39
21.07
19.55
18.11
16.94
16.03
15.27
14.48
13.60
12.73
12.04
11.68
11.65
11.69
11.47
10.66
9.14
7.05
4.77
2.73
1.18
0.11
-0.77
-1.93
-3.71
-6.12
-8.81
-11.21
-12.75
-13.20
-12.63
-11.42
-10.06
-8.88
-8.05
-7.57
-7.33
-7.31
-7.55
-8.10
-9.00
-10.18
-11.53
-12.91
-14.29
-15.77
-17.47
-19.45
-21.55
-23.31
-24.11
-23.34
-20.72
-16.50
-11.37
-6.25
-1.91
1.28
3.41
4.89
6.17
7.53
8.96
10.34
11.52
12.56
13.64
14.95
16.53
18.09
19.21
19.48
18.82
17.56
16.26
15.49
15.48
16.02
16.56
16.52
15.55
13.74
11.45
9.11
7.01
5.13
3.21
0.86
-2.18
-5.93
-10.08
-14.11
-17.50
-19.88
-21.26
-21.90
-22.16
-22.23
-22.03
-21.29
-19.81
-17.76
-15.60
-13.89
-12.86
-12.26
-11.48
-9.98
-7.70
-5.15
-3.19
-2.54
-3.42
-5.59
-8.53
-11.85
-15.46
-19.44
-23.84
-28.39
-32.45
-35.16
-35.77
-33.80
-29.25
-22.63
-14.87
-7.15
-0.68
3.71
5.77
5.92
5.03
4.00
3.37
3.14
2.95
2.39
1.29
-0.16
-1.60
-2.71
-3.51
-4.21
-5.03
-5.96
-6.65
-6.59
-5.32
-2.78
0.61
4.18
7.22
9.33
10.51
11.17
11.86
13.00
14.70
16.80
18.92
20.75
22.16
23.22
24.13
24.99
25.74
26.09
25.75
24.52
22.45
19.85
17.12
14.56
12.23
9.91
7.34
4.33
0.91
-2.77
-6.50
-10.22
-14.01
-17.95
-21.98
-25.71
-28.50
-29.65
-28.70
-25.71
-21.22
-16.13
-11.31
-7.33
-4.30
-1.93
0.25
2.53
4.97
7.35
9.38
10.89
11.90
12.62
13.23
13.82
14.28
14.44
14.18
13.61
12.98
12.63
12.75
13.27
13.91
14.27
14.09
13.38
12.41
11.58
11.17
11.24
11.57
11.82
11.73
11.27
10.58
9.89
9.39
9.09
8.87
8.58
8.11
7.50
6.82
6.17
5.54
4.84
3.90
2.56
0.73
-1.51
-3.95
-6.25
-8.09
-9.34
-10.07
-10.50
-10.90
-11.47
-12.27
-13.29
-14.51
-15.98
-17.77
-19.86
-22.00
-23.67
-24.30
-23.42
-20.96
-17.34
-13.35
-9.80
-7.23
-5.66
-4.64
-3.54
-1.80
0.72
3.71
6.65
9.09
10.92
12.36
13.80
15.48
17.28
18.82
19.60
19.40
18.39
17.08
16.11
15.87
16.37
17.25
17.97
18.09
17.45
16.16
14.55
12.94
11.51
10.31
9.24
8.15
6.95
5.63
4.23
2.84
1.55
0.37
-0.69
-1.69
-2.65
-3.58
-4.46
-5.26
-6.01
-6.81
-7.77
-8.97
-10.36
-11.77
-12.95
-13.71
-14.07
-14.26
-14.71
-15.74
-17.41
-19.33
-20.82
-21.06
-19.55
-16.27
-11.77
-6.88
-2.39
1.27
4.13
6.51
8.77
11.06
13.28
15.20
16.67
17.67
18.36
18.92
19.43
19.80
19.83
19.45
18.69
17.77
16.94
16.30
15.75
15.04
13.98
12.56
10.95
9.46
8.31
7.49
6.80
5.95
4.76
3.24
1.57
-0.01
-1.35
-2.46
-3.49
-4.68
-6.27
-8.39
-11.00
-13.92
-16.84
-19.49
-21.71
-23.48
-24.91
-26.13
-27.26
-28.36
-29.48
-30.67
-31.96
-33.29
-34.44
-35.04
-34.68
-33.10
-30.35
-26.79
-23.03
-19.71
-17.24
-15.69
-14.79
-14.08
-13.02
-11.24
-8.61
-5.24
-1.44
2.45
6.15
9.48
12.43
15.05
17.38
19.41
20.98
21.95
22.23
21.96
21.51
21.38
21.97
23.38
25.30
27.09
28.08
27.81
26.24
23.73
20.75
17.70
14.73
11.84
9.14
6.96
5.82
6.16
8.01
10.85
13.84
16.27
17.82
18.72
19.48
20.45
21.56
22.41
22.53
21.72
20.21
18.45
16.85
15.53
14.30
12.88
11.02
8.64
5.73
2.28
-1.70
-6.03
-10.22
-13.44
-14.69
-13.18
-8.63
-1.50
7.13
15.85
23.28
28.37
30.65
30.29
27.99
24.74
21.55
19.11
17.70
17.10
16.78
16.14
14.79
12.67
10.08
7.48
5.29
3.68
2.49
1.38
0.07
-1.45
-2.96
-4.12
-4.77
-5.03
-5.19
-5.49
-5.83
-5.81
-4.97
-3.13
-0.62
1.93
3.85
4.91
5.34
5.77
6.79
8.68
11.25
13.93
16.04
17.10
16.93
15.68
13.67
11.16
8.30
5.08
1.53
-2.22
-5.88
-9.07
-11.54
-13.25
-14.42
-15.49
-16.86
-18.83
-21.47
-24.67
-28.16
-31.55
-34.37
-36.13
-36.47
-35.22
-32.47
-28.56
-23.98
-19.28
-14.97
-11.36
-8.54
-6.42
-4.72
-3.10
-1.27
0.88
3.31
5.74
7.85
9.38
10.25
10.56
10.53
10.40
10.27
10.11
9.87
9.49
9.00
8.56
8.29
8.26
8.42
8.63
8.82
8.92
8.96
8.92
8.75
8.37
7.67
6.65
5.38
4.01
2.69
1.53
0.56
-0.28
-1.08
-1.96
-3.01
-4.26
-5.61
-6.95
-8.17
-9.16
-9.97
-10.69
-11.45
-12.30
-13.17
-13.97
-14.60
-15.12
-15.80
-17.00
-19.00
-21.80
-25.05
-28.12
-30.31
-31.16
-30.55
-28.79
-26.43
-24.10
-22.25
-21.16
-20.78
-20.88
-21.11
-21.12
-20.68
-19.68
-18.17
-16.32
-14.39
-12.63
-11.28
-10.52
-10.47
-11.10
-12.30
-13.89
-15.60
-17.18
-18.42
-19.19
-19.48
-19.36
-19.02
-18.63
-18.33
-18.10
-17.82
-17.26
-16.18
-14.39
-11.77
-8.26
-3.84
1.43
7.30
13.41
19.23
24.19
27.88
30.12
31.00
30.86
30.11
29.13
28.16
27.32
26.57
25.85
25.12
24.40
23.70
22.99
22.19
21.19
19.94
18.51
17.07
15.83
14.88
14.05
13.00
11.28
8.57
4.84
0.39
-4.17
-8.17
-11.06
-12.58
-12.83
-12.10
-10.78
-9.20
-7.63
-6.22
-5.09
-4.34
-3.94
-3.76
-3.54
-2.95
-1.81
-0.10
1.93
3.94
5.65
6.89
7.75
8.42
9.16
10.10
11.28
12.63
14.04
15.43
16.77
18.05
19.24
20.27
20.99
21.31
21.12
20.45
19.33
17.83
16.01
13.91
11.58
9.09
6.52
3.92
1.27
-1.42
-4.12
-6.75
-9.15
-11.21
-12.84
-14.02
-14.78
-15.09
-14.92
-14.29
-13.33
-12.28
-11.36
-10.68
-10.08
-9.28
-8.05
-6.40
-4.68
-3.50
-3.43
-4.72
-7.19
-10.30
-13.27
-15.49
-16.59
-16.56
-15.62
-14.18
-12.66
-11.33
-10.34
-9.67
-9.22
-8.86
-8.38
-7.61
-6.36
-4.57
-2.27
0.35
3.00
5.42
7.50
9.29
10.98
12.72
14.62
16.65
18.68
20.58
22.23
23.48
24.19
24.22
23.55
22.25
20.52
18.57
16.56
14.57
12.64
10.74
8.87
7.07
5.29
3.51
1.67
-0.22
-2.06
-3.71
-5.02
-5.93
-6.50
-6.89
-7.26
-7.71
-8.25
-8.87
-9.52
-10.22
-11.01
-11.96
-13.08
-14.32
-15.64
-17.00
-18.42
-20.05
-21.94
-24.01
-25.88
-27.01
-26.84
-25.03
-21.72
-17.42
-12.95
-9.11
-6.41
-4.92
-4.41
-4.51
-4.90
-5.42
-6.07
-6.86
-7.75
-8.58
-9.14
-9.17
-8.53
-7.23
-5.43
-3.41
-1.40
0.47
2.19
3.86
5.62
7.52
9.54
11.63
13.72
15.78
17.78
19.70
21.46
23.00
24.17
24.87
24.98
24.39
23.07
21.11
18.71
16.22
13.89
11.86
10.06
8.22
6.11
3.65
0.97
-1.61
-3.77
-5.37
-6.51
-7.46
-8.55
-10.01
-11.85
-13.94
-16.11
-18.28
-20.44
-22.64
-24.86
-26.98
-28.84
-30.31
-31.41
-32.23
-32.82
-33.07
-32.58
-30.84
-27.48
-22.52
-16.56
-10.55
-5.54
-2.22
-0.69
-0.42
-0.54
-0.25
0.86
2.68
4.74
6.50
7.63
8.03
7.87
7.30
6.43
5.23
3.67
1.87
0.11
-1.19
-1.69
-1.24
0.00
1.61
3.12
4.16
4.62
4.60
4.37
4.15
4.06
4.08
4.12
4.14
4.13
4.12
4.12
4.09
3.95
3.62
3.15
2.76
2.79
3.67
5.75
9.27
14.17
20.12
26.53
32.55
37.33
40.12
40.46
38.26
33.74
27.30
19.44
10.67
1.57
-7.29
-15.27
-21.84
-26.74
-30.06
-32.14
-33.41
-34.09
-34.11
-33.12
-30.83
-27.24
-22.78
-18.27
-14.53
-12.11
-11.05
-10.91
-11.02
-10.73
-9.72
-8.03
-6.01
-4.05
-2.41
-1.10
0.05
1.19
2.30
3.15
3.41
2.89
1.77
0.44
-0.53
-0.72
0.10
2.02
5.00
8.99
13.82
19.11
24.20
28.28
30.57
30.64
28.53
24.77
20.15
15.57
11.68
8.85
7.07
6.02
5.31
4.51
3.35
1.71
-0.41
-2.90
-5.54
-8.04
-10.00
-11.06
-11.01
-9.86
-7.88
-5.49
-3.15
-1.22
0.12
0.89
1.27
1.58
2.13
3.07
4.41
5.94
7.40
8.63
9.65
10.66
11.85
13.26
14.71
15.83
16.22
15.75
14.54
12.96
11.44
10.21
9.30
8.50
7.58
6.40
4.99
3.49
2.05
0.67
-0.76
-2.37
-4.22
-6.14
-7.85
-9.01
-9.49
-9.40
-9.08
-8.95
-9.29
-10.14
-11.33
-12.61
-13.88
-15.26
-17.04
-19.54
-22.90
-27.01
-31.45
-35.72
-39.35
-42.12
-44.10
-45.52
-46.64
-47.54
-48.06
-47.84
-46.48
-43.72
-39.58
-34.37
-28.54
-22.57
-16.79
-11.36
-6.28
-1.57
2.72
6.50
9.70
12.43
14.91
17.46
20.25
23.23
26.03
28.18
29.32
29.44
28.87
28.12
27.61
27.40
27.23
26.66
25.38
23.42
21.15
19.11
17.68
16.92
16.51
15.95
14.87
13.14
11.00
8.85
7.00
5.51
4.18
2.67
0.68
-1.83
-4.68
-7.53
-10.15
-12.49
-14.72
-17.09
-19.72
-22.51
-25.14
-27.30
-28.82
-29.83
-30.64
-31.53
-32.53
-33.39
-33.73
-33.22
-31.87
-30.01
-28.23
-27.11
-26.95
-27.61
-28.50
-28.71
-27.34
-23.77
-17.99
-10.61
-2.71
4.61
10.59
15.08
18.42
21.11
23.45
25.50
27.15
28.35
29.32
30.42
31.92
33.80
35.72
37.23
38.11
38.47
38.73
39.27
40.16
41.00
41.12
40.04
37.67
34.52
31.42
29.16
28.19
28.39
29.13
29.62
29.22
27.76
25.51
23.05
20.92
19.33
18.13
16.88
15.17
12.76
9.78
6.47
3.08
-0.34
-3.90
-7.81
-12.11
-16.64
-21.02
-24.86
-27.95
-30.40
-32.57
-34.83
-37.33
-39.81
-41.61
-42.02
-40.55
-37.23
-32.67
-27.81
-23.56
-20.43
-18.41
-17.03
-15.69
-13.91
-11.52
-8.63
-5.49
-2.33
0.70
3.52
6.04
8.12
9.56
10.26
10.32
10.06
9.90
10.18
11.04
12.24
13.28
13.61
12.80
10.84
8.17
5.56
3.83
3.52
4.69
6.90
9.54
12.03
14.02
15.46
16.44
16.97
16.92
16.13
14.50
12.24
9.77
7.59
5.99
4.93
3.97
2.52
0.09
-3.48
-8.01
-13.06
-18.09
-22.61
-26.26
-28.83
-30.32
-30.97
-31.25
-31.73
-32.91
-34.93
-37.58
-40.37
-42.68
-44.02
-44.04
-42.48
-39.16
-34.04
-27.32
-19.59
-11.74
-4.69
0.95
5.05
7.87
9.85
11.24
12.05
12.12
11.37
10.03
8.52
7.31
6.65
6.48
6.55
6.62
6.68
6.94
7.71
9.14
11.18
13.59
16.10
18.57
21.03
23.62
26.44
29.43
32.42
35.11
37.26
38.69
39.32
39.17
38.38
37.15
35.74
34.33
32.96
31.48
29.59
27.06
23.87
20.20
16.37
12.57
8.70
4.42
-0.63
-6.58
-13.07
-19.34
-24.49
-27.76
-28.88
-28.06
-25.88
-23.02
-20.02
-17.18
-14.54
-12.13
-9.94
-8.05
-6.49
-5.18
-3.91
-2.45
-0.69
1.19
2.83
3.83
4.01
3.54
2.90
2.72
3.46
5.18
7.60
10.21
12.57
14.44
15.84
16.95
17.92
18.84
19.62
20.25
20.77
21.37
22.23
23.36
24.51
25.26
25.21
24.21
22.48
20.52
18.90
17.95
17.62
17.46
16.72
14.74
11.11
5.98
-0.12
-6.33
-11.90
-16.36
-19.70
-22.21
-24.19
-25.76
-26.71
-26.70
-25.59
-23.60
-21.40
-19.75
-19.23
-19.95
-21.59
-23.59
-25.50
-27.09
-28.29
-28.97
-28.85
-27.53
-24.67
-20.28
-14.84
-9.14
-4.03
-0.06
2.70
4.61
6.18
7.85
9.79
11.86
13.78
15.26
16.06
16.12
15.43
14.09
12.31
10.44
8.88
8.02
7.97
8.60
9.53
10.34
10.65
10.19
8.77
6.16
2.20
-3.14
-9.60
-16.56
-23.22
-28.83
-33.03
-35.92
-37.88
-39.32
-40.36
-40.82
-40.35
-38.64
-35.61
-31.28
-25.72
-18.88
-10.68
-1.21
9.13
19.55
29.15
37.20
43.36
47.74
50.74
52.84
54.34
55.38
55.91
55.79
54.90
53.13
50.47
47.00
42.78
37.95
32.70
27.32
22.22
17.82
14.38
11.81
9.59
6.88
2.76
-3.37
-11.51
-21.09
-31.10
-40.51
-48.61
-55.23
-60.61
-65.08
-68.77
-71.54
-73.13
-73.46
-72.85
-71.86
-71.09
-70.73
-70.50
-69.74
-67.78
-64.22
-58.97
-52.16
-43.84
-33.98
-22.54
-9.61
4.47
19.10
33.60
47.23
59.36
69.47
77.23
82.57
85.61
86.57
85.61
82.79
78.16
72.06
65.19
58.53
52.93
48.63
45.12
41.36
36.38
29.84
22.24
14.67
8.23
3.52
0.40
-1.76
-3.72
-5.90
-8.24
-10.20
-11.10
-10.48
-8.27
-4.90
-0.97
2.88
6.35
9.44
12.31
15.04
17.53
19.53
20.81
21.38
21.42
21.15
20.67
19.86
18.52
16.52
13.91
10.90
7.76
4.69
1.75
-1.09
-3.86
-6.58
-9.28
-11.99
-14.77
-17.54
-20.08
-21.92
-22.53
-21.49
-18.73
-14.65
-10.02
-5.83
-2.87
-1.55
-1.81
-3.21
-5.22
-7.41
-9.65
-12.00
-14.62
-17.59
-20.85
-24.14
-27.12
-29.39
-30.60
-30.48
-28.98
-26.28
-22.85
-19.28
-16.17
-13.89
-12.51
-11.80
-11.39
-10.94
-10.31
-9.49
-8.57
-7.56
-6.40
-5.00
-3.39
-1.72
-0.31
0.55
0.75
0.44
-0.03
-0.29
-0.13
0.42
1.11
1.61
1.69
1.22
0.25
-1.07
-2.46
-3.72
-4.68
-5.34
-5.85
-6.39
-7.12
-8.03
-8.91
-9.50
-9.64
-9.34
-8.84
-8.48
-8.51
-9.00
-9.76
-10.51
-10.95
-10.92
-10.48
-9.85
-9.35
-9.28
-9.90
-11.27
-13.35
-15.92
-18.59
-20.88
-22.32
-22.56
-21.54
-19.49
-16.89
-14.34
-12.30
-10.97
-10.23
-9.72
-9.05
-8.00
-6.60
-5.09
-3.77
-2.87
-2.43
-2.29
-2.23
-2.01
-1.51
-0.75
0.22
1.31
2.45
3.65
4.90
6.16
7.34
8.29
8.87
9.01
8.78
8.40
8.15
8.28
8.80
9.54
10.18
10.35
9.85
8.71
7.21
5.71
4.51
3.73
3.27
2.89
2.39
1.66
0.79
-0.14
-1.04
-1.93
-2.89
-3.92
-4.96
-5.84
-6.44
-6.76
-7.06
-7.70
-9.00
-10.95
-13.14
-14.83
-15.23
-13.87
-10.83
-6.74
-2.48
1.18
3.87
5.74
7.24
8.83
10.73
12.93
15.18
17.23
18.92
20.14
20.91
21.24
21.21
20.88
20.36
19.74
19.11
18.49
17.92
17.39
16.81
16.11
15.23
14.18
13.04
11.93
10.97
10.17
9.43
8.58
7.49
6.17
4.71
3.33
2.17
1.27
0.55
-0.14
-1.02
-2.20
-3.72
-5.50
-7.44
-9.45
-11.48
-13.61
-15.93
-18.46
-21.20
-24.07
-26.96
-29.78
-32.52
-35.21
-37.92
-40.78
-43.91
-47.44
-51.39
-55.63
-59.89
-63.72
-66.71
-68.62
-69.45
-69.48
-69.05
-68.42
-67.67
-66.75
-65.66
-64.59
-63.91
-64.08
-65.36
-67.68
-70.59
-73.39
-75.50
-76.54
-76.56
-75.84
-74.79
-73.70
-72.72
-71.88
-71.23
-70.91
-70.85
-70.42
-68.11
-61.70
-49.08
-29.24
-3.03
26.89
56.88
83.63
105.13
120.91
131.64
138.24
141.41
141.51
138.83
133.79
127.11
119.47
111.39
103.16
95.00
87.25
80.43
75.26
72.46
72.61
75.99
82.37
91.04
100.80
110.25
118.16
123.83
127.18
128.65
128.83
128.10
126.39
123.24
118.17
110.96
101.95
91.91
81.81
72.48
64.36
57.44
51.39
45.75
40.09
34.16
27.86
21.27
14.56
7.90
1.38
-5.04
-11.44
-17.85
-24.11
-29.93
-35.02
-39.22
-42.63
-45.46
-47.91
-49.97
-51.49
-52.26
-52.26
-51.71
-50.91
-50.17
-49.55
-49.01
-48.46
-47.88
-47.34
-46.95
-46.72
-46.61
-46.62
-46.75
-47.02
-47.32
-47.26
-46.26
-43.78
-39.70
-34.51
-29.25
-25.10
-22.97
-23.15
-25.25
-28.44
-31.66
-33.93
-34.58
-33.36
-30.45
-26.44
-22.13
-18.22
-15.08
-12.69
-10.68
-8.67
-6.44
-4.00
-1.49
0.97
3.41
5.96
8.72
11.70
14.70
17.43
19.60
21.13
22.15
23.05
24.33
26.38
29.38
33.21
37.61
42.35
47.39
52.85
58.72
64.60
69.53
72.25
71.59
67.07
59.09
48.85
37.83
27.31
18.06
10.33
4.12
-0.64
-4.06
-6.38
-8.06
-9.68
-11.69
-14.09
-16.39
-17.77
-17.56
-15.64
-12.59
-9.43
-7.20
-6.42
-6.94
-8.01
-8.76
-8.67
-7.80
-6.72
-6.25
-6.93
-8.86
-11.62
-14.57
-17.15
-19.20
-20.93
-22.73
-24.94
-27.64
-30.60
-33.41
-35.65
-37.01
-37.30
-36.54
-34.81
-32.30
-29.22
-25.78
-22.21
-18.75
-15.61
-12.98
-10.96
-9.56
-8.61
-7.87
-7.08
-6.07
-4.88
-3.71
-2.93
-2.96
-4.15
-6.65
-10.41
-15.10
-20.15
-24.83
-28.43
-30.41
-30.63
-29.42
-27.56
-26.05
-25.72
-27.07
-30.04
-34.12
-38.59
-42.66
-45.65
-46.90
-45.88
-42.23
-35.97
-27.65
-18.37
-9.44
-2.07
3.09
6.04
7.34
7.75
7.91
8.12
8.41
8.61
8.56
8.23
7.74
7.29
7.03
7.02
7.11
7.00
6.40
5.17
3.44
1.60
0.09
-0.79
-1.11
-1.25
-1.70
-2.74
-4.29
-5.91
-6.97
-7.12
-6.40
-5.25
-4.26
-3.81
-3.87
-4.09
-4.07
-3.63
-2.90
-2.30
-2.22
-2.84
-4.02
-5.45
-6.77
-7.83
-8.63
-9.37
-10.23
-11.40
-12.98
-15.03
-17.57
-20.57
-23.83
-27.02
-29.67
-31.25
-31.30
-29.60
-26.26
-21.72
-16.66
-11.77
-7.59
-4.33
-1.83
0.31
2.59
5.38
8.76
12.49
16.16
19.29
21.59
22.94
23.46
23.41
23.09
22.75
22.60
22.78
23.30
24.11
25.03
25.85
26.34
26.29
25.64
24.51
23.14
21.83
20.87
20.34
20.18
20.16
20.02
19.59
18.87
17.98
17.08
16.29
15.59
14.84
13.83
12.44
10.70
8.75
6.85
5.19
3.76
2.37
0.66
-1.60
-4.46
-7.65
-10.77
-13.47
-15.62
-17.40
-19.18
-21.37
-24.18
-27.57
-31.20
-34.53
-36.93
-37.85
-36.94
-34.14
-29.73
-24.27
-18.43
-12.82
-7.86
-3.75
-0.43
2.27
4.60
6.85
9.23
11.83
14.57
17.20
19.37
20.79
21.32
21.03
20.14
19.01
17.88
16.89
16.09
15.42
14.84
14.27
13.67
12.98
12.19
11.37
10.68
10.32
10.43
11.02
11.91
12.81
13.36
13.27
12.46
10.99
9.15
7.24
5.52
4.15
3.07
2.09
0.92
-0.73
-3.07
-6.11
-9.73
-13.67
-17.73
-21.80
-25.92
-30.20
-34.62
-39.02
-43.07
-46.55
-49.55
-52.67
-56.80
-62.70
-70.46
-79.21
-87.34
-93.11
-95.53
-94.82
-92.26
-89.43
-87.27
-85.73
-83.95
-81.05
-76.72
-71.23
-64.84
-57.34
-47.90
-35.70
-20.90
-5.23
8.19
15.92
15.63
7.03
-8.00
-26.27
-44.39
-59.67
-70.32
-75.09
-72.68
-61.52
-40.30
-9.12
29.47
70.27
106.60
132.57
145.28
145.86
138.72
129.31
121.71
117.29
115.02
113.06
110.55
108.29
108.00
110.98
116.78
123.18
127.25
126.84
121.70
113.41
104.46
96.80
91.06
86.43
81.40
74.71
65.97
55.75
45.15
35.19
26.41
18.71
11.62
4.66
-2.26
-8.74
-13.97
-17.32
-18.73
-18.92
-19.04
-20.10
-22.40
-25.33
-27.83
-28.89
-28.13
-25.85
-22.78
-19.65
-16.87
-14.54
-12.59
-10.96
-9.57
-8.33
-7.06
-5.63
-4.00
-2.31
-0.76
0.58
1.74
2.83
3.82
4.52
4.62
3.99
2.80
1.48
0.55
0.27
0.49
0.68
0.21
-1.39
-4.25
-8.10
-12.37
-16.29
-19.18
-20.57
-20.28
-18.51
-15.72
-12.48
-9.24
-6.20
-3.32
-0.48
2.44
5.49
8.74
12.24
16.09
20.35
24.94
29.68
34.25
38.41
41.99
44.95
47.37
49.44
51.40
53.53
56.13
59.45
63.54
68.22
73.09
77.57
80.81
81.83
79.56
73.14
62.26
47.41
29.84
11.15
-7.24
-24.47
-40.22
-54.44
-66.98
-77.56
-86.13
-93.21
-100.13
-108.45
-119.24
-132.24
-145.76
-157.29
-164.70
-167.29
-166.06
-163.25
-161.27
-161.62
-164.31
-167.71
-169.01
-164.65
-151.23
-126.52
-90.64
-46.73
-0.70
40.29
70.08
85.65
87.97
81.12
70.37
59.92
51.71
45.73
41.29
38.36
38.13
42.33
51.97
66.35
82.84
97.86
108.26
112.49
111.03
105.78
99.02
92.41
86.53
81.16
75.84
70.44
65.32
61.18
58.61
57.88
58.82
60.88
63.36
65.52
66.82
66.93
65.72
63.16
59.20
53.73
46.69
38.30
29.06
19.80
11.44
4.79
0.22
-2.30
-3.15
-2.91
-2.17
-1.43
-1.06
-1.15
-1.46
-1.44
-0.40
2.20
6.41
11.73
17.24
21.98
25.29
26.99
27.29
26.63
25.46
24.11
22.83
21.70
20.71
19.77
18.75
17.51
16.00
14.22
12.20
9.96
7.50
4.84
2.09
-0.55
-2.89
-4.89
-6.64
-8.35
-10.18
-12.15
-14.15
-15.96
-17.41
-18.46
-19.20
-19.77
-20.34
-21.11
-22.30
-24.22
-27.28
-31.90
-38.34
-46.54
-55.96
-65.50
-73.70
-79.03
-80.41
-77.55
-71.23
-63.08
-55.16
-49.32
-46.72
-47.58
-51.26
-56.57
-62.03
-66.31
-68.38
-67.69
-64.26
-58.67
-51.90
-45.13
-39.40
-35.31
-32.91
-31.74
-30.97
-29.79
-27.67
-24.47
-20.47
-16.17
-12.07
-8.54
-5.68
-3.43
-1.64
-0.15
1.18
2.54
4.01
5.70
7.53
9.29
10.65
11.28
11.07
10.08
8.67
7.25
6.17
5.58
5.33
5.06
4.31
2.73
0.23
-2.95
-6.33
-9.41
-11.90
-13.91
-15.88
-18.41
-21.90
-26.37
-31.29
-35.82
-39.04
-40.27
-39.25
-36.17
-31.59
-26.23
-20.82
-15.89
-11.77
-8.52
-6.03
-4.05
-2.21
-0.14
2.49
5.82
9.67
13.62
17.07
19.57
20.94
21.39
21.37
21.30
21.38
21.57
21.66
21.49
20.99
20.28
19.51
18.81
18.18
17.53
16.73
15.70
14.43
13.04
11.72
10.62
9.79
9.15
8.55
7.85
7.05
6.21
5.48
4.91
4.45
3.99
3.43
2.78
2.13
1.56
1.05
0.49
-0.30
-1.41
-2.79
-4.28
-5.64
-6.70
-7.42
-7.94
-8.51
-9.47
-11.10
-13.49
-16.41
-19.29
-21.34
-21.78
-20.19
-16.71
-11.99
-6.96
-2.51
0.82
2.99
4.28
5.12
5.85
6.64
7.53
8.49
9.54
10.60
11.60
12.40
12.83
12.84
12.50
12.05
11.73
11.73
12.06
12.60
13.10
13.38
13.35
13.02
12.49
11.83
11.06
10.14
8.98
7.63
6.22
4.96
4.09
3.69
3.58
3.38
2.68
1.29
-0.64
-2.68
-4.30
-5.19
-5.44
-5.45
-5.76
-6.74
-8.45
-10.62
-12.84
-14.73
-16.12
-17.05
-17.74
-18.45
-19.40
-20.78
-22.72
-25.26
-28.28
-31.43
-34.11
-35.68
-35.56
-33.61
-30.18
-26.02
-22.07
-19.02
-17.23
-16.58
-16.70
-17.24
-17.94
-18.77
-19.90
-21.64
-24.34
-28.26
-33.36
-39.08
-44.33
-47.61
-47.70
-44.06
-37.18
-28.26
-18.71
-9.50
-0.93
7.07
14.53
21.07
25.97
28.68
29.29
28.74
28.52
29.99
33.72
39.31
45.55
50.99
54.48
55.45
53.93
50.30
45.09
38.66
31.29
23.40
15.71
9.36
5.52
4.85
7.04
10.71
13.91
15.01
13.53
10.29
6.95
5.05
5.22
6.96
9.12
10.69
11.32
11.33
11.31
11.52
11.65
11.03
9.11
5.87
1.88
-1.86
-4.27
-4.57
-2.45
1.80
7.35
13.08
17.82
20.69
21.35
19.99
17.09
13.17
8.66
3.86
-0.84
-4.86
-7.49
-8.20
-6.89
-4.15
-0.94
1.68
3.01
2.91
1.73
0.08
-1.57
-3.11
-4.78
-7.04
-10.18
-14.18
-18.60
-22.82
-26.25
-28.67
-30.19
-31.11
-31.69
-31.91
-31.33
-29.16
-24.58
-16.93
-6.13
7.27
22.10
36.90
50.41
61.97
71.68
80.34
89.19
99.48
112.23
127.84
145.85
164.68
181.64
193.42
196.91
190.30
173.82
149.77
121.80
93.71
68.43
47.42
30.90
18.30
8.90
2.07
-2.71
-6.12
-9.13
-12.88
-18.33
-25.89
-35.23
-45.36
-55.06
-63.36
-69.95
-75.24
-80.05
-85.16
-90.87
-96.85
-102.29
-106.29
-108.36
-108.49
-107.26
-105.49
-103.99
-103.38
-103.83
-105.12
-106.59
-107.29
-106.19
-102.49
-95.89
-86.67
-75.64
-63.83
-52.22
-41.57
-32.34
-24.77
-18.87
-14.37
-10.75
-7.32
-3.47
1.00
5.81
10.32
13.97
16.56
18.38
20.07
22.26
25.38
29.56
34.75
40.80
47.44
54.21
60.30
64.69
66.36
64.70
59.71
52.06
42.85
33.22
24.03
15.68
8.25
1.71
-3.87
-8.36
-11.64
-13.77
-15.18
-16.44
-18.12
-20.44
-23.23
-26.04
-28.41
-30.11
-31.15
-31.79
-32.28
-32.73
-33.18
-33.62
-34.18
-35.09
-36.65
-39.12
-42.69
-47.32
-52.82
-58.75
-64.48
-69.19
-72.13
-72.80
-71.21
-68.01
-64.28
-61.28
-59.97
-60.71
-63.25
-66.82
-70.57
-73.77
-76.15
-77.84
-79.36
-81.27
-84.03
-87.86
-92.61
-97.82
-102.70
-106.20
-107.00
-103.76
-95.49
-82.03
-64.35
-44.22
-23.56
-3.41
16.44
37.09
59.39
82.84
105.23
123.45
134.90
138.90
137.01
132.25
127.47
124.20
122.22
120.21
116.86
111.63
104.80
97.07
89.04
81.05
73.31
66.20
60.31
56.15
53.87
52.99
52.48
51.16
48.11
43.03
36.26
28.67
21.27
15.02
10.43
7.56
5.99
4.97
3.66
1.42
-2.04
-6.54
-11.58
-16.49
-20.76
-24.12
-26.70
-28.81
-30.80
-32.79
-34.62
-36.04
-36.95
-37.56
-38.31
-39.61
-41.42
-43.18
-43.94
-42.84
-39.53
-34.28
-27.74
-20.55
-13.16
-5.78
1.29
7.53
12.33
15.37
16.98
18.07
19.78
22.83
27.11
31.76
35.70
38.16
38.92
38.21
36.41
33.78
30.49
26.76
23.04
19.88
17.76
16.74
16.39
15.94
14.55
11.70
7.33
1.95
-3.58
-8.24
-11.20
-12.02
-10.79
-8.09
-4.69
-1.30
1.67
4.10
6.11
7.79
9.14
10.02
10.21
9.54
8.03
5.84
3.28
0.67
-1.67
-3.44
-4.27
-3.73
-1.46
2.70
8.60
15.63
22.97
29.81
35.52
39.88
42.98
45.08
46.43
47.15
47.18
46.52
45.45
44.74
45.55
49.01
55.48
64.04
72.48
77.96
78.04
71.68
59.57
43.70
26.39
9.38
-6.50
-21.16
-34.55
-46.32
-55.77
-62.37
-66.15
-67.80
-68.34
-68.57
-68.62
-67.99
-66.05
-62.57
-58.09
-53.73
-50.61
-49.28
-49.30
-49.46
-48.38
-45.06
-39.34
-31.87
-23.79
-16.24
-10.07
-5.56
-2.49
-0.28
1.81
4.39
7.75
11.86
16.40
21.05
25.62
30.13
34.70
39.25
43.38
46.42
47.71
46.94
44.45
41.01
37.58
34.82
32.84
31.34
29.95
28.54
27.40
26.99
27.62
29.17
31.05
32.58
33.29
33.24
32.85
32.57
32.45
31.95
30.21
26.46
20.54
13.10
5.33
-1.48
-6.45
-9.43
-10.90
-11.60
-12.14
-12.76
-13.32
-13.57
-13.36
-12.85
-12.45
-12.64
-13.77
-15.91
-18.83
-22.13
-25.34
-28.19
-30.45
-31.97
-32.52
-31.80
-29.65
-26.17
-21.84
-17.43
-13.66
-10.90
-9.00
-7.39
-5.38
-2.59
0.87
4.48
7.56
9.66
10.72
11.10
11.33
11.86
12.86
14.25
15.78
17.23
18.54
19.85
21.26
22.76
24.11
24.85
24.62
23.32
21.25
19.12
17.68
17.46
18.51
20.35
22.13
23.03
22.54
20.55
17.32
13.26
8.76
4.14
-0.23
-3.96
-6.56
-7.71
-7.46
-6.28
-4.99
-4.46
-5.26
-7.48
-10.74
-14.40
-17.76
-20.31
-21.76
-22.22
-22.16
-22.33
-23.63
-26.66
-31.49
-37.48
-43.42
-47.87
-49.66
-48.18
-43.48
-36.28
-27.64
-18.72
-10.51
-3.67
1.60
5.55
8.62
11.35
14.04
16.76
19.31
21.48
23.05
24.00
24.38
24.28
23.84
23.14
22.35
21.60
21.02
20.66
20.53
20.54
20.59
20.53
20.14
19.18
17.32
14.39
10.41
5.70
0.73
-4.00
-8.18
-11.80
-15.11
-18.47
-22.16
-26.30
-30.78
-35.29
-39.50
-43.18
-46.30
-49.08
-51.93
-55.27
-59.44
-64.53
-70.42
-76.79
-83.14
-88.82
-93.10
-95.28
-94.86
-91.74
-86.18
-78.70
-69.95
-60.55
-51.05
-41.82
-32.88
-23.84
-14.06
-3.01
9.25
21.95
33.92
44.19
52.60
59.80
66.84
74.34
82.01
88.86
93.82
96.43
97.05
96.49
95.31
93.42
90.06
84.36
75.98
65.39
53.89
43.13
34.58
29.06
26.49
26.02
26.35
26.27
25.07
22.68
19.55
16.27
13.24
10.46
7.69
4.72
1.55
-1.59
-4.38
-6.67
-8.62
-10.53
-12.69
-15.20
-17.90
-20.53
-22.89
-25.02
-27.15
-29.59
-32.44
-35.42
-37.85
-38.87
-37.77
-34.38
-29.17
-23.17
-17.52
-13.14
-10.37
-8.94
-8.25
-7.65
-6.67
-5.17
-3.22
-0.98
1.32
3.53
5.49
7.06
8.22
9.05
9.71
10.39
11.24
12.29
13.48
14.70
15.85
16.81
17.52
17.89
17.87
17.47
16.71
15.75
14.69
13.64
12.67
11.78
10.96
10.23
9.57
8.92
8.09
6.86
5.09
2.79
0.20
-2.30
-4.42
-6.08
-7.54
-9.29
-11.78
-15.26
-19.57
-24.15
-28.18
-30.87
-31.61
-30.26
-27.08
-22.74
-17.98
-13.50
-9.68
-6.63
-4.22
-2.23
-0.50
1.08
2.60
4.10
5.65
7.21
8.66
9.76
10.26
10.02
9.17
8.02
7.04
6.57
6.66
7.09
7.49
7.50
6.97
6.07
5.05
4.18
3.54
3.09
2.67
2.23
1.86
1.72
1.92
2.41
2.92
3.10
2.71
1.74
0.47
-0.73
-1.53
-1.85
-1.81
-1.66
-1.60
-1.67
-1.82
-1.98
-2.19
-2.59
-3.35
-4.56
-6.13
-7.77
-9.16
-10.13
-10.73
-11.30
-12.37
-14.41
-17.65
-21.86
-26.39
-30.22
-32.29
-31.88
-28.89
-23.86
-17.89
-12.24
-7.85
-5.10
-3.71
-3.02
-2.33
-1.29
0.10
1.60
2.94
4.05
5.01
5.91
6.71
7.28
7.44
7.14
6.50
5.83
5.42
5.47
5.92
6.54
7.04
7.20
6.95
6.45
5.93
5.59
5.49
5.53
5.52
5.36
5.03
4.65
4.38
4.30
4.41
4.58
4.67
4.59
4.34
4.05
3.86
3.87
4.05
4.28
4.43
4.38
4.14
3.78
3.37
2.90
2.25
1.27
-0.14
-1.96
-4.01
-6.05
-7.93
-9.68
-11.49
-13.63
-16.32
-19.51
-22.81
-25.57
-27.05
-26.78
-24.70
-21.32
-17.47
-13.96
-11.25
-9.29
-7.70
-6.01
-4.01
-1.80
0.32
1.99
3.11
3.80
4.33
4.92
5.65
6.39
6.96
7.23
7.25
7.17
7.18
7.38
7.73
8.09
8.33
8.38
8.31
8.25
8.29
8.40
8.51
8.49
8.24
7.79
7.23
6.68
6.22
5.85
5.50
5.10
4.60
3.98
3.24
2.38
1.35
0.11
-1.35
-2.99
-4.71
-6.35
-7.82
-9.12
-10.46
-12.11
-14.36
-17.29
-20.71
-24.11
-26.76
-27.99
-27.39
-25.05
-21.49
-17.44
-13.55
-10.11
-7.09
-4.22
-1.26
1.83
4.89
7.63
9.86
11.49
12.54
13.10
13.25
13.06
12.65
12.14
11.72
11.49
11.55
11.90
12.55
13.41
14.35
15.15
15.57
15.45
14.84
13.96
13.12
12.53
12.22
11.98
11.50
10.53
8.99
7.01
4.83
2.70
0.78
-0.84
-2.18
-3.32
-4.38
-5.47
-6.70
-8.17
-9.92
-11.96
-14.26
-16.74
-19.34
-21.97
-24.63
-27.34
-30.16
-33.03
-35.73
-37.89
-39.02
-38.76
-36.99
-33.91
-30.01
-25.81
-21.72
-17.91
-14.27
-10.58
-6.66
-2.48
1.82
6.04
9.98
13.60
16.91
19.94
22.68
25.02
26.88
28.20
29.05
29.60
30.02
30.39
30.67
30.75
30.49
29.86
28.90
27.68
26.28
24.75
23.18
21.68
20.33
19.17
18.16
17.19
16.16
15.06
13.92
12.79
11.71
10.61
9.42
8.05
6.50
4.85
3.18
1.56
0.03
-1.45
-2.92
-4.41
-5.98
-7.60
-9.26
-10.93
-12.51
-13.93
-15.15
-16.20
-17.17
-18.26
-19.74
-21.90
-24.93
-28.76
-32.98
-36.86
-39.55
-40.35
-39.04
-35.92
-31.71
-27.25
-23.15
-19.60
-16.41
-13.23
-9.74
-5.85
-1.65
2.70
7.09
11.46
15.70
19.62
22.93
25.34
26.71
27.11
26.84
26.29
25.83
25.67
25.86
26.25
26.60
26.63
26.16
25.18
23.83
22.38
21.07
20.01
19.14
18.26
17.18
15.79
14.17
12.51
10.97
9.59
8.22
6.66
4.77
2.58
0.36
-1.62
-3.19
-4.42
-5.60
-6.99
-8.72
-10.68
-12.58
-14.19
-15.45
-16.56
-17.83
-19.54
-21.72
-24.21
-26.72
-28.91
-30.55
-31.43
-31.45
-30.49
-28.53
-25.64
-22.05
-18.12
-14.25
-10.75
-7.77
-5.20
-2.77
-0.15
2.93
6.50
10.36
14.16
17.46
20.02
21.78
22.94
23.81
24.59
25.36
25.98
26.28
26.13
25.62
24.91
24.19
23.55
22.91
22.15
21.16
19.94
18.61
17.33
16.18
15.13
14.00
12.56
10.68
8.41
6.06
4.02
2.61
1.90
1.63
1.30
0.45
-1.10
-3.18
-5.39
-7.31
-8.79
-9.98
-11.30
-13.13
-15.71
-18.95
-22.56
-26.14
-29.25
-31.54
-32.73
-32.61
-31.15
-28.51
-25.10
-21.47
-18.21
-15.69
-13.99
-12.86
-11.78
-10.18
-7.59
-3.91
0.63
5.45
9.86
13.30
15.56
16.80
17.43
17.94
18.61
19.52
20.51
21.37
21.96
22.30
22.45
22.51
22.49
22.33
21.93
21.25
20.33
19.30
18.28
17.42
16.71
16.10
15.46
14.71
13.81
12.79
11.74
10.76
9.91
9.19
8.54
7.91
7.23
6.47
5.59
4.55
3.23
1.49
-0.78
-3.62
-6.88
-10.28
-13.47
-16.15
-18.24
-19.89
-21.45
-23.26
-25.46
-27.85
-29.91
-31.00
-30.69
-28.89
-25.99
-22.64
-19.46
-16.79
-14.55
-12.39
-9.94
-7.09
-4.04
-1.16
1.25
3.16
4.81
6.54
8.54
10.68
12.58
13.83
14.27
14.09
13.75
13.74
14.26
15.14
15.96
16.32
16.08
15.43
14.79
14.54
14.85
15.53
16.20
16.47
16.19
15.49
14.66
13.99
13.55
13.17
12.58
11.61
10.34
9.02
7.93
7.25
6.86
6.50
5.84
4.75
3.27
1.65
0.11
-1.26
-2.53
-3.87
-5.45
-7.28
-9.18
-10.85
-12.07
-12.77
-13.17
-13.75
-15.00
-17.27
-20.56
-24.44
-28.19
-30.99
-32.21
-31.61
-29.36
-26.00
-22.15
-18.34
-14.84
-11.67
-8.78
-6.15
-3.84
-1.94
-0.43
0.91
2.42
4.33
6.64
9.01
10.95
12.04
12.19
11.66
10.94
10.49
10.52
10.91
11.34
11.51
11.31
10.89
10.53
10.50
10.82
11.33
11.75
11.84
11.60
11.22
10.99
11.15
11.67
12.27
12.53
12.12
10.90
9.03
6.85
4.73
2.84
1.17
-0.45
-2.13
-3.84
-5.33
-6.36
-6.79
-6.80
-6.77
-7.16
-8.24
-9.98
-12.02
-13.92
-15.35
-16.29
-17.04
-18.04
-19.65
-21.95
-24.64
-27.08
-28.57
-28.58
-26.97
-24.06
-20.48
-16.87
-13.69
-11.07
-8.87
-6.81
-4.73
-2.58
-0.38
1.83
4.06
6.34
8.66
10.81
12.45
13.26
13.09
12.11
10.77
9.61
9.07
9.26
9.97
10.77
11.19
10.97
10.11
8.85
7.59
6.59
6.00
5.74
5.70
5.77
5.93
6.25
6.74
7.36
7.91
8.16
7.93
7.23
6.26
5.32
4.71
4.49
4.60
4.79
4.81
4.55
3.99
3.24
2.36
1.38
0.19
-1.29
-3.10
-5.08
-7.01
-8.69
-10.05
-11.26
-12.64
-14.47
-16.81
-19.34
-21.48
-22.63
-22.36
-20.70
-18.07
-15.10
-12.33
-10.02
-8.11
-6.35
-4.49
-2.46
-0.38
1.53
3.10
4.23
4.98
5.48
5.82
6.09
6.24
6.22
5.97
5.51
4.98
4.55
4.37
4.43
4.54
4.45
3.93
3.00
1.91
1.10
0.95
1.56
2.68
3.82
4.49
4.46
3.81
2.91
2.17
1.80
1.69
1.53
1.02
0.03
-1.28
-2.57
-3.54
-4.09
-4.44
-4.98
-6.07
-7.86
-10.18
-12.69
-14.99
-16.83
-18.13
-18.88
-19.04
-18.46
-16.99
-14.61
-11.55
-8.27
-5.33
-3.14
-1.85
-1.24
-0.93
-0.49
0.34
1.56
2.97
4.24
5.09
5.38
5.17
4.65
4.05
3.53
3.13
2.81
2.51
2.27
2.19
2.41
3.03
3.91
4.76
5.17
4.83
3.69
2.04
0.39
-0.80
-1.27
-1.14
-0.77
-0.59
-0.91
-1.75
-2.97
-4.37
-5.85
-7.40
-9.08
-10.88
-12.75
-14.51
-16.02
-17.24
-18.31
-19.50
-21.01
-22.84
-24.69
-25.96
-26.04
-24.52
-21.48
-17.38
-12.94
-8.78
-5.23
-2.25
0.41
3.00
5.64
8.22
10.52
12.30
13.47
14.07
14.28
14.32
14.33
14.34
14.27
14.05
13.64
13.12
12.61
12.19
11.88
11.56
11.09
10.39
9.54
8.73
8.19
8.04
8.20
8.41
8.39
7.91
6.95
5.69
4.45
3.51
2.98
2.75
2.60
2.28
1.65
0.67
-0.59
-2.08
-3.76
-5.64
-7.71
-9.84
-11.89
-13.69
-15.16
-16.33
-17.41
-18.64
-20.18
-22.03
-23.88
-25.30
-25.76
-24.99
-22.98
-20.07
-16.72
-13.32
-10.06
-6.93
-3.85
-0.83
1.97
4.29
5.97
6.98
7.51
7.84
8.21
8.77
9.48
10.27
11.06
11.84
12.70
13.71
14.86
16.05
17.10
17.77
17.93
17.56
16.80
15.85
14.90
14.05
13.30
12.57
11.80
10.97
10.08
9.16
8.22
7.23
6.13
4.87
3.45
1.97
0.62
-0.41
-0.97
-1.07
-0.88
-0.67
-0.69
-1.00
-1.53
-2.10
-2.61
-3.11
-3.77
-4.76
-6.10
-7.61
-9.05
-10.21
-11.12
-12.06
-13.42
-15.48
-18.27
-21.45
-24.39
-26.41
-26.97
-25.85
-23.25
-19.68
-15.81
-12.22
-9.21
-6.83
-4.91
-3.24
-1.63
0.02
1.78
3.70
5.83
8.10
10.36
12.35
13.79
14.53
14.57
14.12
13.45
12.80
12.33
12.11
12.13
12.35
12.74
13.25
13.82
14.34
14.73
14.91
14.84
14.51
13.95
13.15
12.15
11.02
9.87
8.85
8.08
7.61
7.36
7.15
6.82
6.25
5.44
4.47
3.42
2.37
1.33
0.31
-0.63
-1.41
-1.96
-2.31
-2.64
-3.22
-4.26
-5.81
-7.68
-9.51
-10.93
-11.73
-12.02
-12.13
-12.54
-13.60
-15.42
-17.83
-20.38
-22.53
-23.79
-23.88
-22.75
-20.59
-17.76
-14.62
-11.46
-8.46
-5.69
-3.15
-0.84
1.21
2.99
4.48
5.68
6.60
7.27
7.75
8.10
8.43
8.80
9.28
9.85
10.44
10.98
11.37
11.55
11.51
11.26
10.88
10.47
10.12
9.89
9.71
9.43
8.85
7.88
6.56
5.09
3.69
2.55
1.68
1.04
0.51
0.03
-0.40
-0.77
-1.06
-1.37
-1.78
-2.41
-3.24
-4.20
-5.12
-5.87
-6.43
-6.96
-7.73
-9.04
-11.06
-13.67
-16.45
-18.77
-20.08
-20.10
-18.91
-16.93
-14.65
-12.39
-10.21
-7.98
-5.53
-2.86
-0.18
2.20
4.09
5.49
6.60
7.61
8.59
9.48
10.11
10.44
10.59
10.78
11.21
11.92
12.70
13.25
13.33
12.87
12.03
11.07
10.25
9.78
9.65
9.76
9.92
9.95
9.73
9.23
8.58
7.90
7.31
6.79
6.20
5.37
4.15
2.50
0.54
-1.59
-3.77
-5.92
-8.04
-10.14
-12.17
-14.11
-15.91
-17.63
-19.44
-21.54
-24.02
-26.73
-29.19
-30.69
-30.56
-28.48
-24.64
-19.76
-14.77
-10.49
-7.26
-4.97
-3.15
-1.30
0.86
3.38
6.11
8.87
11.53
13.99
16.13
17.78
18.67
18.62
17.58
15.79
13.67
11.78
10.58
10.26
10.68
11.42
11.97
11.99
11.41
10.43
9.40
8.58
8.02
7.59
7.14
6.60
6.11
5.88
6.07
6.60
7.15
7.27
6.64
5.15
3.05
0.78
-1.20
-2.59
-3.34
-3.68
-3.93
-4.44
-5.39
-6.75
-8.32
-9.85
-11.13
-12.15
-13.03
-14.00
-15.28
-16.95
-18.90
-20.91
-22.66
-23.89
-24.32
-23.81
-22.31
-19.92
-16.81
-13.33
-9.82
-6.59
-3.81
-1.43
0.80
3.22
6.05
9.29
12.64
15.61
17.73
18.76
18.82
18.28
17.62
17.19
17.11
17.26
17.46
17.64
17.82
18.10
18.50
18.90
19.04
18.67
17.67
16.17
14.48
12.95
11.87
11.29
11.03
10.75
10.16
9.07
7.54
5.85
4.29
3.08
2.17
1.38
0.44
-0.73
-2.04
-3.23
-4.09
-4.62
-5.09
-5.87
-7.22
-9.14
-11.37
-13.52
-15.21
-16.26
-16.71
-16.77
-16.72
-16.87
-17.48
-18.71
-20.58
-22.86
-25.11
-26.79
-27.42
-26.70
-24.64
-21.51
-17.71
-13.67
-9.79
-6.35
-3.54
-1.42
0.15
1.44
2.82
4.60
6.89
9.52
12.17
14.49
16.28
17.58
18.55
19.34
19.99
20.38
20.39
20.02
19.44
18.99
18.94
19.36
20.04
20.59
20.67
20.13
19.11
17.90
16.74
15.70
14.62
13.33
11.76
10.06
8.55
7.51
7.04
6.95
6.85
6.29
5.01
3.02
0.60
-1.86
-3.98
-5.57
-6.65
-7.40
-8.05
-8.77
-9.64
-10.57
-11.41
-12.10
-12.69
-13.40
-14.50
-16.20
-18.50
-21.17
-23.81
-26.04
-27.55
-28.19
-27.93
-26.80
-24.85
-22.18
-19.02
-15.71
-12.65
-10.17
-8.41
-7.19
-6.14
-4.79
-2.86
-0.33
2.46
5.06
7.03
8.25
8.87
9.29
9.87
10.79
12.00
13.27
14.41
15.40
16.35
17.48
18.92
20.59
22.26
23.57
24.26
24.21
23.51
22.40
21.18
20.03
18.99
17.90
16.55
14.76
12.53
10.06
7.65
5.57
3.90
2.51
1.11
-0.61
-2.78
-5.34
-8.00
-10.43
-12.42
-13.98
-15.26
-16.46
-17.73
-19.03
-20.26
-21.34
-22.32
-23.35
-24.56
-25.92
-27.14
-27.71
-27.20
-25.41
-22.56
-19.14
-15.73
-12.73
-10.24
-8.09
-5.97
-3.63
-1.02
1.71
4.31
6.53
8.20
9.32
10.05
10.56
11.00
11.39
11.62
11.58
11.22
10.66
10.09
9.69
9.55
9.57
9.61
9.57
9.49
9.52
9.81
10.38
11.11
11.76
12.08
11.90
11.27
10.34
9.36
8.55
7.99
7.66
7.38
6.96
6.25
5.17
3.70
1.92
-0.06
-2.09
-4.02
-5.75
-7.24
-8.55
-9.77
-11.11
-12.73
-14.82
-17.43
-20.47
-23.61
-26.34
-28.10
-28.46
-27.34
-25.07
-22.22
-19.42
-17.08
-15.27
-13.72
-12.12
-10.22
-8.01
-5.69
-3.52
-1.65
-0.04
1.49
3.16
5.04
7.04
8.92
10.39
11.31
11.75
11.87
11.87
11.79
11.57
11.04
10.13
8.97
7.85
7.10
6.96
7.41
8.18
8.94
9.37
9.42
9.20
8.99
9.00
9.30
9.78
10.16
10.22
9.80
8.97
7.85
6.57
5.17
3.55
1.62
-0.64
-3.12
-5.60
-7.94
-10.17
-12.47
-15.03
-17.92
-20.87
-23.39
-24.93
-25.14
-24.06
-22.00
-19.44
-16.73
-14.03
-11.32
-8.54
-5.76
-3.18
-1.03
0.53
1.60
2.41
3.30
4.41
5.67
6.79
7.46
7.54
7.17
6.73
6.59
6.90
7.48
7.98
8.06
7.65
6.98
6.46
6.42
6.91
7.72
8.43
8.71
8.43
7.73
6.87
6.09
5.54
5.17
4.89
4.57
4.18
3.74
3.34
3.03
2.83
2.69
2.50
2.17
1.60
0.77
-0.28
-1.45
-2.66
-3.80
-4.86
-5.88
-6.92
-8.05
-9.32
-10.83
-12.67
-14.96
-17.68
-20.58
-23.16
-24.71
-24.69
-22.85
-19.47
-15.26
-11.04
-7.49
-4.84
-2.91
-1.31
0.32
2.13
4.03
5.78
7.22
8.30
9.10
9.71
10.20
10.53
10.63
10.38
9.80
8.97
8.08
7.36
7.02
7.13
7.62
8.27
8.86
9.19
9.23
9.07
8.84
8.64
8.41
8.01
7.25
6.10
4.71
3.39
2.43
1.99
1.98
2.10
2.02
1.54
0.65
-0.41
-1.35
-1.97
-2.22
-2.21
-2.13
-2.10
-2.22
-2.51
-3.01
-3.79
-4.91
-6.40
-8.23
-10.27
-12.36
-14.36
-16.22
-18.03
-19.98
-22.30
-25.09
-28.14
-30.92
-32.69
-32.77
-30.85
-27.17
-22.45
-17.65
-13.57
-10.65
-8.77
-7.40
-5.86
-3.55
-0.26
3.84
8.22
12.27
15.54
17.90
19.51
20.63
21.43
21.85
21.68
20.82
19.35
17.66
16.14
15.07
14.38
13.79
12.98
11.80
10.39
9.02
7.92
7.10
6.35
5.29
3.68
1.51
-0.89
-2.98
-4.24
-4.35
-3.31
-1.43
0.90
3.35
5.82
8.33
10.90
13.29
15.04
15.57
14.45
11.72
7.93
3.98
0.81
-1.01
-1.48
-1.03
-0.25
0.39
0.73
0.81
0.64
0.01
-1.41
-3.83
-6.99
-10.11
-12.13
-12.12
-9.87
-5.96
-1.55
2.17
4.41
5.09
4.72
4.08
3.87
4.52
6.05
8.22
10.59
12.67
14.02
14.39
13.80
12.53
11.04
9.77
9.00
8.80
9.02
9.49
10.05
10.63
11.16
11.52
11.60
11.28
10.60
9.76
9.02
8.62
8.58
8.76
8.94
8.94
8.77
8.53
8.35
8.17
7.81
7.01
5.62
3.80
1.88
0.33
-0.62
-1.03
-1.29
-1.84
-2.97
-4.68
-6.58
-8.20
-9.20
-9.58
-9.66
-9.96
-10.88
-12.54
-14.70
-16.83
-18.35
-18.83
-18.11
-16.29
-13.67
-10.66
-7.64
-4.90
-2.60
-0.80
0.56
1.56
2.36
3.15
4.09
5.32
6.81
8.38
9.71
10.47
10.44
9.67
8.43
7.18
6.31
6.00
6.17
6.52
6.70
6.47
5.79
4.74
3.48
2.08
0.54
-1.12
-2.84
-4.42
-5.65
-6.39
-6.67
-6.74
-6.90
-7.40
-8.30
-9.51
-10.87
-12.24
-13.60
-14.96
-16.39
-17.90
-19.47
-21.02
-22.48
-23.82
-25.06
-26.20
-27.18
-27.86
-27.99
-27.28
-25.52
-22.60
-18.63
-13.92
-8.96
-4.25
-0.21
2.95
5.29
7.08
8.65
10.22
11.81
13.25
14.33
14.97
15.30
15.58
16.02
16.63
17.17
17.31
16.79
15.64
14.16
12.75
11.76
11.23
10.99
10.73
10.21
9.36
8.27
7.06
5.81
4.52
3.12
1.60
-0.03
-1.72
-3.39
-4.97
-6.42
-7.71
-8.86
-9.94
-11.08
-12.42
-14.00
-15.80
-17.71
-19.69
-21.79
-24.07
-26.50
-28.78
-30.32
-30.48
-28.90
-25.67
-21.40
-16.91
-12.89
-9.68
-7.14
-4.94
-2.76
-0.46
1.90
4.20
6.38
8.42
10.36
12.18
13.77
14.96
15.62
15.74
15.47
15.04
14.72
14.71
15.04
15.66
16.40
17.11
17.69
18.11
18.39
18.53
18.51
18.25
17.71
16.88
15.85
14.72
13.60
12.55
11.55
10.46
9.16
7.52
5.53
3.30
1.02
-1.09
-2.89
-4.41
-5.76
-7.13
-8.65
-10.37
-12.28
-14.38
-16.75
-19.49
-22.62
-25.94
-28.99
-31.10
-31.67
-30.41
-27.46
-23.45
-19.21
-15.47
-12.64
-10.66
-9.15
-7.62
-5.66
-3.16
-0.21
2.90
5.79
8.20
9.95
11.07
11.68
11.91
11.86
11.54
10.98
10.27
9.65
9.41
9.75
10.63
11.79
12.83
13.41
13.44
13.11
12.73
12.54
12.59
12.68
12.55
12.06
11.21
10.19
9.20
8.37
7.61
6.79
5.78
4.59
3.38
2.38
1.73
1.43
1.24
0.87
0.06
-1.28
-3.00
-4.81
-6.42
-7.63
-8.53
-9.36
-10.47
-12.18
-14.51
-17.31
-20.22
-22.83
-24.82
-25.91
-25.93
-24.76
-22.43
-19.18
-15.42
-11.72
-8.61
-6.42
-5.18
-4.60
-4.19
-3.46
-2.07
0.05
2.65
5.28
7.46
8.85
9.36
9.18
8.64
8.12
7.81
7.77
7.94
8.18
8.42
8.60
8.71
8.76
8.78
8.81
8.88
9.01
9.18
9.30
9.24
8.86
8.07
6.89
5.44
3.90
2.45
1.23
0.25
-0.55
-1.32
-2.20
-3.32
-4.66
-6.11
-7.48
-8.65
-9.66
-10.69
-12.04
-13.89
-16.18
-18.53
-20.37
-21.13
-20.49
-18.45
-15.33
-11.67
-7.95
-4.54
-1.60
0.86
3.00
5.01
7.07
9.26
11.49
13.55
15.19
16.17
16.39
15.88
14.82
13.43
11.91
10.41
9.02
7.80
6.81
6.10
5.67
5.47
5.38
5.28
5.02
4.55
3.86
2.99
2.05
1.15
0.39
-0.15
-0.44
-0.55
-0.56
-0.58
-0.72
-1.07
-1.72
-2.64
-3.82
-5.16
-6.59
-8.05
-9.47
-10.79
-11.93
-12.82
-13.47
-14.05
-14.81
-16.05
-17.88
-20.06
-22.05
-23.08
-22.54
-20.16
-16.25
-11.51
-6.80
-2.82
0.14
2.15
3.59
4.85
6.27
7.99
10.04
12.30
14.63
16.82
18.68
20.01
20.68
20.67
20.03
18.97
17.75
16.71
16.08
16.00
16.38
17.00
17.52
17.68
17.35
16.56
15.47
14.21
12.84
11.33
9.64
7.78
5.90
4.25
3.02
2.25
1.77
1.29
0.57
-0.44
-1.60
-2.65
-3.40
-3.88
-4.30
-4.94
-6.01
-7.48
-9.15
-10.70
-11.90
-12.77
-13.52
-14.48
-15.94
-17.99
-20.54
-23.35
-26.16
-28.73
-30.82
-32.15
-32.35
-31.13
-28.34
-24.22
-19.35
-14.47
-10.24
-6.96
-4.47
-2.28
0.13
3.14
6.74
10.61
14.25
17.21
19.27
20.44
20.98
21.14
21.13
21.00
20.69
20.16
19.47
18.77
18.20
17.89
17.77
17.69
17.43
16.88
16.03
15.02
14.06
13.29
12.73
12.27
11.72
10.86
9.62
8.09
6.47
4.98
3.75
2.74
1.75
0.60
-0.76
-2.17
-3.34
-4.00
-4.06
-3.74
-3.50
-3.81
-4.98
-6.93
-9.29
-11.50
-13.13
-14.08
-14.59
-15.17
-16.30
-18.25
-20.92
-23.88
-26.52
-28.31
-28.80
-27.87
-25.60
-22.22
-18.08
-13.59
-9.17
-5.22
-2.03
0.34
2.04
3.45
4.98
6.98
9.48
12.25
14.89
16.99
18.32
18.92
19.01
18.88
18.73
18.60
18.42
18.12
17.67
17.15
16.71
16.47
16.43
16.50
16.50
16.26
15.68
14.78
13.66
12.46
11.28
10.19
9.24
8.41
7.69
7.00
6.23
5.27
4.05
2.52
0.76
-1.17
-3.15
-5.11
-6.93
-8.48
-9.69
-10.55
-11.17
-11.74
-12.42
-13.27
-14.19
-15.05
-15.81
-16.61
-17.70
-19.29
-21.30
-23.25
-24.44
-24.18
-22.18
-18.71
-14.50
-10.43
-7.16
-4.89
-3.31
-1.85
-0.00
2.39
5.11
7.71
9.80
11.22
12.13
12.82
13.51
14.23
14.78
14.93
14.57
13.84
13.04
12.50
12.39
12.56
12.68
12.36
11.37
9.78
7.93
6.29
5.20
4.76
4.71
4.62
4.08
2.91
1.28
-0.48
-1.98
-3.06
-3.79
-4.40
-5.13
-6.10
-7.28
-8.54
-9.81
-11.05
-12.35
-13.84
-15.65
-17.83
-20.31
-22.93
-25.40
-27.39
-28.55
-28.66
-27.62
-25.53
-22.57
-19.02
-15.18
-11.30
-7.65
-4.42
-1.71
0.50
2.33
4.01
5.69
7.38
8.96
10.21
10.96
11.18
11.01
10.70
10.43
10.28
10.18
10.06
9.91
9.83
10.04
10.69
11.75
12.97
13.98
14.41
14.11
13.19
11.95
10.75
9.78
9.04
8.32
7.38
6.05
4.35
2.48
0.73
-0.68
-1.72
-2.56
-3.49
-4.73
-6.42
-8.51
-10.88
-13.45
-16.19
-19.06
-21.87
-24.24
-25.63
-25.58
-23.93
-20.94
-17.21
-13.48
-10.27
-7.82
-5.96
-4.34
-2.57
-0.37
2.28
5.20
8.05
10.46
12.18
13.16
13.56
13.59
13.49
13.33
13.10
12.76
12.34
11.90
11.59
11.41
11.31
11.12
10.68
9.97
9.11
8.34
7.85
7.71
7.83
8.03
8.09
7.88
7.39
6.70
5.98
5.29
4.65
3.97
3.21
2.40
1.62
0.99
0.52
0.07
-0.59
-1.70
-3.36
-5.49
-7.85
-10.13
-12.06
-13.56
-14.65
-15.51
-16.34
-17.35
-18.67
-20.30
-22.00
-23.35
-23.85
-23.09
-20.99
-17.79
-14.02
-10.23
-6.84
-4.03
-1.77
0.04
1.53
2.80
3.97
5.19
6.62
8.29
10.09
11.80
13.13
13.90
14.08
13.79
13.21
12.53
11.89
11.34
10.92
10.59
10.31
10.02
9.68
9.24
8.69
7.97
7.04
5.88
4.56
3.21
2.02
1.20
0.83
0.89
1.24
1.70
2.14
2.46
2.67
2.69
2.43
1.72
0.50
-1.19
-3.16
-5.08
-6.69
-7.80
-8.43
-8.73
-8.94
-9.32
-10.07
-11.34
-13.14
-15.35
-17.71
-19.76
-21.02
-21.07
-19.77
-17.29
-14.11
-10.81
-7.87
-5.48
-3.56
-1.87
-0.19
1.56
3.28
4.84
6.14
7.23
8.19
9.10
9.88
10.42
10.60
10.41
9.99
9.51
9.12
8.89
8.82
8.88
9.05
9.28
9.45
9.47
9.20
8.64
7.89
7.13
6.55
6.22
6.07
5.94
5.74
5.41
5.09
4.89
4.91
5.10
5.29
5.25
4.75
3.70
2.14
0.26
-1.70
-3.57
-5.31
-7.01
-8.76
-10.68
-12.76
-14.99
-17.30
-19.63
-21.88
-23.77
-24.86
-24.67
-22.88
-19.52
-15.06
-10.26
-5.90
-2.49
-0.10
1.53
2.87
4.30
6.04
8.06
10.16
12.11
13.64
14.56
14.82
14.45
13.61
12.48
11.22
9.97
8.87
8.04
7.63
7.68
8.13
8.75
9.16
9.05
8.33
7.18
5.97
5.04
4.55
4.39
4.34
4.19
3.90
3.59
3.41
3.40
3.42
3.20
2.50
1.24
-0.40
-2.03
-3.29
-3.95
-4.06
-3.93
-3.94
-4.40
-5.35
-6.67
-8.09
-9.40
-10.61
-11.82
-13.24
-14.93
-16.84
-18.84
-20.82
-22.75
-24.67
-26.56
-28.20
-29.18
-29.04
-27.43
-24.34
-20.13
-15.42
-10.88
-7.00
-3.91
-1.44
0.85
3.35
6.28
9.55
12.81
15.60
17.53
18.43
18.47
17.95
17.27
16.67
16.23
15.86
15.44
14.95
14.48
14.12
13.95
13.90
13.81
13.48
12.82
11.94
11.06
10.43
10.20
10.29
10.46
10.42
10.01
9.24
8.30
7.46
6.92
6.71
6.63
6.42
5.80
4.67
3.12
1.42
-0.13
-1.30
-2.12
-2.81
-3.70
-5.11
-7.13
-9.60
-12.15
-14.41
-16.14
-17.38
-18.38
-19.45
-20.83
-22.58
-24.55
-26.45
-27.95
-28.65
-28.19
-26.30
-22.89
-18.19
-12.75
-7.28
-2.47
1.26
3.91
5.80
7.34
8.89
10.57
12.32
13.96
15.37
16.44
17.18
17.63
17.85
17.94
17.93
17.79
17.47
16.88
16.05
15.07
14.11
13.37
12.90
12.60
12.23
11.55
10.46
9.05
7.61
6.40
5.51
4.82
4.01
2.87
1.36
-0.30
-1.78
-2.78
-3.27
-3.43
-3.59
-4.12
-5.19
-6.82
-8.84
-10.93
-12.77
-14.12
-14.89
-15.14
-15.17
-15.29
-15.86
-17.07
-18.91
-21.21
-23.64
-25.76
-27.08
-27.22
-25.92
-23.24
-19.56
-15.48
-11.66
-8.54
-6.20
-4.38
-2.68
-0.66
1.87
4.82
7.96
10.95
13.57
15.69
17.27
18.33
18.86
18.87
18.42
17.67
16.82
16.08
15.62
15.45
15.49
15.58
15.61
15.53
15.41
15.30
15.21
15.06
14.73
14.10
13.15
11.91
10.54
9.17
7.94
6.89
6.01
5.23
4.47
3.69
2.85
1.97
1.08
0.21
-0.64
-1.47
-2.32
-3.18
-4.07
-4.98
-5.92
-6.86
-7.75
-8.54
-9.18
-9.77
-10.46
-11.47
-12.96
-14.98
-17.47
-20.31
-23.33
-26.29
-28.87
-30.62
-31.03
-29.72
-26.66
-22.20
-17.04
-11.99
-7.62
-4.20
-1.62
0.40
2.16
3.82
5.40
6.91
8.37
9.88
11.51
13.20
14.77
15.92
16.39
16.13
15.34
14.41
13.76
13.65
14.07
14.74
15.31
15.48
15.10
14.24
13.07
11.80
10.55
9.40
8.38
7.52
6.94
6.79
7.14
7.97
9.09
10.20
10.97
11.19
10.78
9.82
8.48
6.95
5.42
4.03
2.87
1.98
1.34
0.83
0.25
-0.59
-1.85
-3.53
-5.50
-7.50
-9.26
-10.62
-11.61
-12.46
-13.60
-15.45
-18.25
-21.82
-25.57
-28.60
-30.06
-29.44
-26.82
-22.85
-18.46
-14.50
-11.50
-9.51
-8.22
-7.23
-6.24
-5.09
-3.78
-2.33
-0.74
0.98
2.73
4.37
5.70
6.58
7.00
7.07
6.96
6.90
7.00
7.31
7.79
8.31
8.73
8.88
8.67
8.09
7.30
6.56
6.14
6.20
6.77
7.70
8.75
9.67
10.31
10.63
10.69
10.56
10.32
9.98
9.53
8.92
8.16
7.26
6.19
4.93
3.41
1.60
-0.51
-2.79
-5.04
-7.06
-8.73
-10.09
-11.34
-12.74
-14.54
-16.76
-19.15
-21.29
-22.70
-23.05
-22.33
-20.78
-18.83
-16.84
-14.98
-13.21
-11.36
-9.30
-6.95
-4.37
-1.62
1.25
4.19
7.13
9.85
12.07
13.54
14.14
13.96
13.28
12.41
11.59
10.88
10.25
9.62
9.01
8.49
8.16
8.10
8.27
8.56
8.85
9.06
9.22
9.38
9.64
10.04
10.56
11.12
11.62
11.98
12.16
12.11
11.82
11.29
10.54
9.64
8.68
7.75
6.87
5.96
4.90
3.56
1.88
-0.11
-2.25
-4.37
-6.28
-7.82
-8.98
-9.80
-10.47
-11.23
-12.31
-13.87
-15.93
-18.42
-21.10
-23.65
-25.67
-26.76
-26.64
-25.24
-22.74
-19.55
-16.19
-13.06
-10.41
-8.32
-6.73
-5.54
-4.56
-3.60
-2.43
-0.82
1.30
3.82
6.51
9.08
11.26
12.93
14.02
14.55
14.55
14.14
13.42
12.61
11.93
11.53
11.52
11.82
12.28
12.67
12.77
12.51
11.92
11.20
10.56
10.13
9.91
9.78
9.63
9.41
9.23
9.22
9.49
9.96
10.41
10.55
10.17
9.27
8.04
6.82
5.90
5.47
5.45
5.57
5.39
4.58
3.01
0.82
-1.58
-3.77
-5.46
-6.60
-7.40
-8.16
-9.16
-10.61
-12.59
-15.03
-17.77
-20.50
-22.81
-24.24
-24.42
-23.25
-20.88
-17.72
-14.35
-11.26
-8.75
-6.86
-5.45
-4.21
-2.93
-1.48
0.06
1.52
2.70
3.48
3.88
4.09
4.31
4.69
5.25
5.90
6.46
6.77
6.76
6.44
5.86
5.09
4.17
3.20
2.25
1.47
0.96
0.78
0.90
1.23
1.65
2.03
2.23
2.14
1.75
1.11
0.37
-0.28
-0.71
-0.93
-1.12
-1.57
-2.46
-3.83
-5.46
-6.96
-8.03
-8.60
-8.89
-9.36
-10.40
-12.16
-14.38
-16.48
-17.82
-17.93
-16.65
-14.17
-10.90
-7.32
-3.84
-0.74
1.83
3.83
5.34
6.49
7.47
8.41
9.41
10.47
11.51
12.41
13.05
13.36
13.35
13.10
12.70
12.24
11.77
11.27
10.65
9.87
8.92
7.88
6.86
5.98
5.21
4.44
3.51
2.30
0.85
-0.71
-2.19
-3.46
-4.52
-5.49
-6.53
-7.72
-9.00
-10.21
-11.22
-12.00
-12.76
-13.81
-15.42
-17.68
-20.39
-23.11
-25.19
-26.11
-25.52
-23.41
-20.05
-15.95
-11.68
-7.75
-4.48
-1.91
0.10
1.83
3.47
5.11
6.66
8.07
9.31
10.43
11.46
12.30
12.77
12.75
12.29
11.66
11.26
11.36
11.94
12.71
13.26
13.33
12.94
12.29
11.66
11.21
10.93
10.68
10.34
9.86
9.28
8.63
7.88
6.96
5.73
4.08
1.97
-0.53
-3.19
-5.71
-7.75
-9.09
-9.82
-10.31
-11.18
-13.05
-16.18
-20.35
-24.80
-28.54
-30.71
-30.90
-29.21
-26.17
-22.43
-18.54
-14.81
-11.37
-8.23
-5.41
-2.94
-0.79
1.20
3.31
5.77
8.62
11.66
14.40
16.29
17.02
16.64
15.55
14.34
13.50
13.24
13.41
13.74
13.97
14.07
14.18
14.52
15.14
15.94
16.61
16.86
16.59
15.97
15.30
14.91
14.87
15.05
15.13
14.87
14.26
13.49
12.83
12.42
12.22
12.00
11.45
10.41
8.96
7.34
5.86
4.75
4.02
3.52
2.91
1.90
0.32
-1.75
-4.04
-6.21
-7.97
-9.28
-10.26
-11.14
-12.11
-13.29
-14.69
-16.25
-18.04
-20.16
-22.75
-25.84
-29.13
-32.01
-33.70
-33.52
-31.26
-27.31
-22.59
-18.18
-14.83
-12.65
-11.21
-9.74
-7.65
-4.81
-1.51
1.73
4.52
6.73
8.47
9.93
11.22
12.26
12.89
12.94
12.41
11.49
10.52
9.84
9.69
10.06
10.74
11.46
12.00
12.32
12.50
12.64
12.80
12.86
12.66
12.06
11.07
9.86
8.63
7.60
6.88
6.45
6.20
5.97
5.62
5.04
4.20
3.15
1.98
0.73
-0.65
-2.25
-4.16
-6.39
-8.79
-11.16
-13.38
-15.49
-17.77
-20.57
-24.07
-28.09
-32.05
-35.11
-36.49
-35.81
-33.23
-29.35
-24.91
-20.48
-16.34
-12.46
-8.72
-5.12
-1.79
1.02
3.23
5.00
6.66
8.51
10.66
12.85
14.64
15.66
15.84
15.44
14.89
14.63
14.80
15.28
15.74
15.91
15.61
14.91
14.02
13.20
12.61
12.26
12.03
11.75
11.34
10.87
10.56
10.62
11.10
11.82
12.40
12.48
11.92
10.91
9.86
9.24
9.26
9.79
10.37
10.47
9.72
8.07
5.84
3.53
1.58
0.17
-0.86
-1.90
-3.31
-5.30
-7.87
-10.88
-14.19
-17.74
-21.42
-24.96
-27.81
-29.35
-29.05
-26.89
-23.34
-19.31
-15.70
-13.08
-11.46
-10.40
-9.33
-7.79
-5.69
-3.20
-0.64
1.73
3.76
5.45
6.84
7.98
8.87
9.53
9.95
10.19
10.34
10.51
10.79
11.15
11.55
11.85
11.91
11.65
11.09
10.35
9.60
8.98
8.56
8.32
8.10
7.73
7.08
6.13
5.00
3.91
3.12
2.76
2.78
3.00
3.21
3.24
3.11
2.95
2.91
3.01
3.09
2.96
2.41
1.45
0.27
-0.85
-1.68
-2.24
-2.75
-3.55
-4.86
-6.74
-8.98
-11.27
-13.37
-15.30
-17.33
-19.77
-22.72
-25.86
-28.53
-29.90
-29.43
-27.14
-23.59
-19.67
-16.16
-13.44
-11.43
-9.67
-7.73
-5.41
-2.86
-0.44
1.56
3.09
4.36
5.66
7.22
8.95
10.53
11.58
11.89
11.55
10.95
10.57
10.72
11.43
12.37
13.13
13.34
12.90
11.97
10.85
9.82
8.94
8.05
6.89
5.26
3.20
0.98
-1.01
-2.46
-3.31
-3.76
-4.19
-4.91
-6.02
-7.37
-8.68
-9.67
-10.28
-10.65
-11.02
-11.61
-12.47
-13.53
-14.70
-15.93
-17.29
-18.83
-20.49
-21.93
-22.62
-22.04
-19.98
-16.64
-12.64
-8.71
-5.44
-3.00
-1.21
0.26
1.76
3.40
5.12
6.78
8.28
9.64
10.91
12.17
13.46
14.75
15.96
16.92
17.45
17.42
16.84
15.93
15.05
14.55
14.58
15.03
15.54
15.71
15.31
14.40
13.27
12.26
11.54
11.06
10.58
9.88
8.86
7.58
6.26
5.11
4.21
3.45
2.65
1.62
0.34
-1.01
-2.20
-3.05
-3.61
-4.14
-4.96
-6.25
-7.90
-9.60
-10.95
-11.75
-12.11
-12.36
-12.96
-14.23
-16.36
-19.26
-22.62
-25.92
-28.51
-29.84
-29.58
-27.79
-24.88
-21.33
-17.54
-13.71
-9.83
-5.97
-2.35
0.72
3.01
4.62
5.95
7.57
9.85
12.73
15.70
18.11
19.47
19.71
19.21
18.54
18.16
18.20
18.45
18.59
18.41
17.95
17.45
17.17
17.18
17.27
17.05
16.17
14.55
12.46
10.41
8.89
8.17
8.16
8.51
8.79
8.73
8.29
7.67
7.08
6.62
6.10
5.19
3.64
1.46
-0.97
-3.04
-4.23
-4.42
-3.99
-3.64
-4.07
-5.55
-7.85
-10.33
-12.32
-13.49
-13.94
-14.14
-14.61
-15.71
-17.50
-19.82
-22.39
-24.89
-26.99
-28.33
-28.55
-27.36
-24.68
-20.68
-15.85
-10.81
-6.17
-2.39
0.46
2.57
4.37
6.27
8.55
11.22
13.98
16.48
18.39
19.57
20.10
20.21
20.10
19.89
19.59
19.15
18.54
17.81
17.10
16.59
16.37
16.43
16.57
16.59
16.28
15.60
14.68
13.73
12.91
12.27
11.71
11.03
10.09
8.92
7.68
6.63
5.99
5.79
5.90
6.05
5.91
5.27
4.08
2.50
0.77
-0.86
-2.25
-3.41
-4.43
-5.45
-6.57
-7.80
-9.10
-10.37
-11.56
-12.61
-13.54
-14.39
-15.26
-16.21
-17.33
-18.69
-20.35
-22.35
-24.57
-26.70
-28.19
-28.45
-27.05
-23.95
-19.55
-14.59
-9.81
-5.74
-2.53
0.03
2.27
4.49
6.85
9.32
11.80
14.12
16.16
17.75
18.85
19.45
19.60
19.43
19.09
18.74
18.52
18.51
18.71
19.00
19.22
19.15
18.59
17.42
15.65
13.43
11.05
8.84
7.06
5.80
4.93
4.19
3.27
2.04
0.53
-1.06
-2.47
-3.60
-4.41
-5.00
-5.41
-5.69
-5.82
-5.86
-5.94
-6.23
-6.89
-7.94
-9.24
-10.55
-11.67
-12.56
-13.33
-14.22
-15.48
-17.22
-19.35
-21.53
-23.23
-23.93
-23.23
-21.05
-17.69
-13.65
-9.53
-5.75
-2.50
0.28
2.73
4.96
6.99
8.77
10.27
11.52
12.60
13.59
14.52
15.32
15.93
16.32
16.52
16.60
16.61
16.58
16.46
16.12
15.48
14.48
13.25
11.97
10.91
10.25
9.96
9.87
9.67
9.14
8.17
6.89
5.51
4.22
3.10
2.11
1.15
0.13
-0.99
-2.17
-3.41
-4.78
-6.38
-8.33
-10.62
-13.06
-15.41
-17.38
-18.91
-20.18
-21.56
-23.46
-26.04
-29.08
-31.97
-33.92
-34.24
-32.67
-29.40
-25.02
-20.24
-15.60
-11.38
-7.57
-4.04
-0.67
2.48
5.24
7.51
9.25
10.64
11.95
13.39
15.00
16.64
18.01
18.87
19.16
19.05
18.84
18.82
19.04
19.36
19.50
19.30
18.72
18.01
17.42
17.08
16.90
16.59
15.85
14.57
12.87
11.05
9.39
8.04
6.91
5.84
4.69
3.48
2.30
1.28
0.45
-0.28
-1.05
-2.00
-3.14
-4.43
-5.74
-6.97
-8.07
-9.03
-9.89
-10.74
-11.70
-12.84
-14.22
-15.75
-17.32
-18.83
-20.28
-21.82
-23.62
-25.69
-27.73
-29.20
-29.50
-28.27
-25.63
-22.13
-18.54
-15.43
-13.02
-11.08
-9.20
-7.03
-4.51
-1.81
0.84
3.27
5.53
7.70
9.81
11.73
13.18
13.90
13.88
13.37
12.84
12.74
13.28
14.36
15.61
16.61
17.12
17.14
16.93
16.81
17.00
17.48
17.97
18.12
17.62
16.44
14.79
13.07
11.61
10.52
9.64
8.62
7.21
5.33
3.20
1.13
-0.57
-1.84
-2.86
-3.95
-5.37
-7.16
-9.18
-11.14
-12.83
-14.16
-15.28
-16.40
-17.78
-19.57
-21.82
-24.47
-27.39
-30.36
-33.06
-35.02
-35.75
-34.82
-32.19
-28.20
-23.57
-19.22
-15.84
-13.69
-12.51
-11.65
-10.43
-8.47
-5.83
-3.01
-0.67
0.65
0.74
-0.23
-1.85
-3.57
-5.02
-6.01
-6.59
-6.94
-7.24
-7.47
-7.40
-6.44
-3.74
1.62
10.23
21.96
35.71
49.58
61.30
68.97
71.62
69.40
63.37
54.97
45.44
35.64
26.05
17.00
8.87
2.06
-3.16
-6.73
-8.80
-9.55
-9.11
-7.57
-5.13
-2.29
0.14
1.26
0.41
-2.51
-6.96
-12.02
-16.73
-20.45
-23.09
-24.92
-26.36
-27.70
-29.01
-30.20
-31.11
-31.65
-31.78
-31.43
-30.45
-28.66
-25.95
-22.48
-18.64
-14.94
-11.70
-8.93
-6.30
-3.39
0.08
4.12
8.41
12.55
16.12
18.84
20.63
21.52
21.79
21.90
22.40
23.67
25.84
28.58
31.32
33.45
34.59
34.63
33.66
31.80
29.06
25.48
21.18
16.53
12.08
8.43
5.95
4.66
4.21
4.08
3.82
3.26
2.52
1.95
1.79
2.05
2.38
2.27
1.37
-0.37
-2.58
-4.74
-6.38
-7.37
-7.94
-8.53
-9.56
-11.22
-13.39
-15.75
-17.88
-19.52
-20.71
-21.75
-23.18
-25.47
-28.88
-33.26
-37.98
-42.14
-44.76
-45.15
-43.06
-38.73
-32.80
-26.06
-19.18
-12.70
-6.95
-2.18
1.50
4.03
5.58
6.41
6.88
7.19
7.37
7.32
7.01
6.52
6.17
6.26
6.98
8.28
9.96
11.74
13.48
15.11
16.63
17.97
18.97
19.47
19.34
18.58
17.35
15.90
14.50
13.38
12.66
12.36
12.38
12.55
12.68
12.64
12.43
12.16
12.06
12.24
12.67
13.12
13.21
12.59
11.14
8.97
6.40
3.87
1.66
-0.17
-1.75
-3.28
-4.87
-6.49
-7.98
-9.18
-10.02
-10.59
-11.05
-11.54
-12.11
-12.70
-13.22
-13.70
-14.31
-15.34
-16.99
-19.22
-21.61
-23.49
-24.22
-23.46
-21.33
-18.35
-15.14
-12.24
-9.80
-7.74
-5.85
-4.01
-2.25
-0.69
0.58
1.61
2.54
3.56
4.77
6.15
7.57
8.87
9.95
10.77
11.35
11.71
11.80
11.56
10.94
9.96
8.75
7.54
6.51
5.80
5.43
5.27
5.22
5.13
4.98
4.78
4.58
4.44
4.37
4.36
4.30
4.10
3.68
2.99
2.07
0.97
-0.26
-1.54
-2.87
-4.21
-5.55
-6.87
-8.23
-9.72
-11.48
-13.48
-15.52
-17.21
-18.17
-18.13
-17.09
-15.24
-12.84
-10.16
-7.41
-4.77
-2.43
-0.58
0.69
1.46
2.01
2.66
3.63
4.87
6.20
7.36
8.20
8.78
9.24
9.70
10.15
10.50
10.63
10.50
10.15
9.71
9.25
8.78
8.24
7.53
6.64
5.57
4.42
3.26
2.18
1.26
0.56
0.12
-0.06
-0.05
0.07
0.19
0.26
0.30
0.36
0.51
0.73
0.91
0.81
0.33
-0.49
-1.41
-2.12
-2.46
-2.49
-2.53
-2.91
-3.86
-5.34
-7.17
-9.22
-11.48
-14.04
-16.86
-19.59
-21.50
-21.80
-20.01
-16.33
-11.69
-7.30
-4.23
-2.88
-2.90
-3.48
-3.72
-3.08
-1.47
0.83
3.42
5.97
8.27
10.20
11.70
12.70
13.15
13.12
12.68
12.01
11.34
10.91
10.91
11.35
12.11
12.83
13.12
12.75
11.74
10.40
9.12
8.18
7.57
7.05
6.29
5.14
3.71
2.33
1.37
0.97
0.98
1.08
1.00
0.63
0.12
-0.30
-0.56
-0.73
-1.13
-1.95
-3.22
-4.73
-6.16
-7.31
-8.23
-9.20
-10.51
-12.23
-14.15
-15.78
-16.67
-16.58
-15.72
-14.59
-13.90
-14.18
-15.59
-17.84
-20.22
-21.85
-21.95
-20.17
-16.64
-11.98
-7.07
-2.70
0.65
2.97
4.53
5.75
6.86
7.92
8.81
9.51
10.17
11.04
12.33
13.99
15.67
16.87
17.18
16.49
15.14
13.67
12.60
12.20
12.35
12.70
12.83
12.47
11.54
10.28
9.01
7.98
7.29
6.82
6.38
5.85
5.22
4.66
4.28
4.07
3.80
3.18
1.98
0.26
-1.72
-3.53
-4.86
-5.62
-5.96
-6.15
-6.33
-6.51
-6.52
-6.17
-5.44
-4.47
-3.62
-3.19
-3.27
-3.72
-4.19
-4.34
-4.04
-3.51
-3.18
-3.53
-4.86
-7.18
-10.16
-13.26
-15.92
-17.64
-18.16
-17.39
-15.48
-12.76
-9.64
-6.52
-3.69
-1.33
0.52
1.87
2.80
3.46
4.09
4.96
6.27
8.09
10.21
12.27
13.84
14.61
14.50
13.68
12.49
11.28
10.29
9.62
9.22
8.96
8.73
8.44
8.07
7.65
7.20
6.72
6.16
5.54
4.92
4.42
4.15
4.17
4.38
4.58
4.58
4.28
3.69
2.97
2.26
1.68
1.27
0.95
0.64
0.23
-0.30
-0.90
-1.47
-1.89
-2.15
-2.34
-2.61
-3.10
-3.81
-4.58
-5.17
-5.48
-5.53
-5.55
-5.84
-6.61
-7.94
-9.73
-11.85
-14.09
-16.22
-17.98
-19.01
-18.89
-17.30
-14.15
-9.76
-4.80
-0.17
3.34
5.32
5.90
5.66
5.39
5.70
6.77
8.38
10.02
11.26
11.91
12.04
11.91
11.70
11.47
11.08
10.37
9.23
7.75
6.20
4.93
4.20
4.00
4.11
4.13
3.75
2.86
1.62
0.36
-0.62
-1.19
-1.47
-1.69
-2.14
-2.96
-4.08
-5.36
-6.57
-7.60
-8.44
-9.16
-9.83
-10.52
-11.18
-11.75
-12.15
-12.39
-12.55
-12.72
-13.03
-13.50
-14.14
-14.92
-15.79
-16.66
-17.37
-17.69
-17.37
-16.16
-13.87
-10.48
-6.16
-1.31
3.43
7.45
10.31
11.95
12.70
13.22
14.09
15.57
17.53
19.45
20.80
21.24
20.74
19.51
17.90
16.18
14.55
13.14
11.99
11.16
10.63
10.33
10.13
9.84
9.28
8.37
7.11
5.57
3.85
2.08
0.41
-0.99
-2.03
-2.68
-3.00
-3.16
-3.38
-3.83
-4.64
-5.82
-7.34
-9.13
-11.06
-12.95
-14.58
-15.76
-16.43
-16.73
-17.05
-17.82
-19.39
-21.72
-24.38
-26.56
-27.37
-26.18
-22.87
-17.91
-12.16
-6.51
-1.58
2.51
6.02
9.32
12.65
15.99
19.11
21.82
24.03
25.89
27.66
29.51
31.50
33.47
35.20
36.38
36.75
36.13
34.40
31.48
27.34
21.94
15.28
7.50
-1.08
-9.89
-18.23
-25.44
-31.03
-34.82
-36.95
-37.85
-38.10
-38.34
-38.98
-40.00
-40.84
-40.37
-37.36
-30.95
-21.13
-8.85
4.24
16.28
25.73
31.71
34.15
33.62
31.14
27.84
24.60
21.76
18.94
15.28
9.82
2.15
-7.33
-17.42
-26.67
-34.03
-39.23
-42.71
-45.13
-46.78
-47.36
-46.23
-42.86
-37.37
-30.64
-23.91
-18.21
-13.86
-10.39
-6.96
-2.95
1.64
6.25
10.14
12.90
14.63
15.87
17.19
18.88
20.82
22.56
23.64
23.82
23.14
21.91
20.46
19.09
18.04
17.42
17.26
17.52
18.06
18.69
19.19
19.40
19.28
18.88
18.29
17.63
16.96
16.35
15.82
15.40
15.12
14.92
14.67
14.19
13.32
12.02
10.43
8.79
7.28
5.96
4.66
3.12
1.13
-1.40
-4.40
-7.78
-11.49
-15.56
-20.01
-24.72
-29.42
-33.72
-37.28
-39.99
-41.95
-43.46
-44.83
-46.30
-47.83
-49.09
-49.53
-48.51
-45.57
-40.72
-34.45
-27.68
-21.42
-16.37
-12.73
-10.16
-8.00
-5.58
-2.52
1.23
5.49
9.90
14.17
18.08
21.46
24.15
25.97
26.80
26.60
25.53
23.89
22.10
20.47
19.18
18.28
17.84
18.09
19.45
22.36
26.96
32.89
39.19
44.59
47.89
48.37
46.08
41.78
36.59
31.55
27.30
23.94
21.16
18.63
16.12
13.68
11.44
9.43
7.46
5.18
2.39
-0.79
-3.90
-6.24
-7.29
-6.94
-5.63
-4.06
-2.94
-2.64
-3.13
-4.06
-4.98
-5.61
-5.85
-5.76
-5.40
-4.76
-3.81
-2.56
-1.26
-0.31
-0.25
-1.46
-4.16
-8.20
-13.19
-18.57
-23.71
-28.06
-31.22
-33.04
-33.58
-33.08
-31.84
-30.12
-28.05
-25.70
-23.11
-20.32
-17.45
-14.55
-11.66
-8.72
-5.62
-2.23
1.48
5.36
9.13
12.41
14.91
16.60
17.70
18.66
19.81
21.23
22.70
23.81
24.20
23.80
22.75
21.30
19.62
17.72
15.50
12.87
9.79
6.29
2.44
-1.67
-5.97
-10.47
-15.26
-20.51
-26.44
-33.13
-40.43
-47.82
-54.58
-59.95
-63.36
-64.56
-63.65
-60.96
-56.98
-52.25
-47.28
-42.52
-38.19
-34.21
-30.30
-26.01
-21.08
-15.48
-9.59
-4.00
0.71
4.19
6.49
8.03
9.39
11.06
13.27
16.01
19.03
22.11
24.97
27.38
29.09
29.93
29.89
29.31
28.86
29.24
30.87
33.60
36.73
39.32
40.66
40.56
39.35
37.66
35.98
34.53
33.16
31.59
29.57
26.97
23.83
20.36
16.87
13.65
10.92
8.65
6.62
4.42
1.73
-1.49
-5.02
-8.45
-11.41
-13.82
-15.87
-17.93
-20.28
-23.06
-26.15
-29.32
-32.39
-35.22
-37.69
-39.55
-40.42
-39.83
-37.46
-33.27
-27.65
-21.29
-14.93
-9.13
-4.13
0.12
3.89
7.43
10.96
14.58
18.25
21.82
25.00
27.50
29.11
29.86
29.95
29.67
29.29
28.87
28.41
27.83
27.17
26.54
26.06
25.69
25.24
24.42
23.02
21.06
18.83
16.72
15.07
13.94
13.17
12.42
11.42
10.02
8.35
6.68
5.31
4.37
3.80
3.39
2.89
2.22
1.44
0.71
0.15
-0.27
-0.74
-1.48
-2.58
-3.99
-5.42
-6.65
-7.49
-7.99
-8.29
-8.58
-9.00
-9.64
-10.60
-11.96
-13.79
-16.01
-18.27
-19.99
-20.48
-19.19
-15.93
-11.04
-5.32
0.17
4.53
7.35
8.86
9.92
11.63
14.98
20.48
27.92
36.57
45.38
53.45
60.36
66.27
71.86
78.00
85.39
94.21
103.93
113.46
121.38
126.32
127.34
124.16
117.29
108.04
98.35
90.35
85.70
85.03
87.68
92.08
96.68
100.88
105.53
112.53
123.82
140.05
159.81
179.80
195.84
204.23
202.81
191.31
170.95
143.72
111.57
76.12
38.67
0.42
-37.32
-73.16
-105.85
-134.55
-158.85
-178.62
-193.90
-204.73
-211.30
-214.24
-214.81
-214.79
-216.03
-219.70
-225.89
-233.45
-240.75
-246.58
-251.04
-255.62
-262.27
-272.18
-284.49
-295.97
-301.82
-297.11
-278.26
-243.76
-194.52
-133.78
-67.00
-1.47
54.89
95.61
117.90
123.91
120.27
115.60
117.30
128.97
149.69
175.25
200.22
219.85
230.84
231.27
220.03
196.85
162.82
120.92
75.99
33.51
-2.06
-28.96
-48.52
-64.08
-79.05
-94.95
-110.86
-124.23
-132.77
-135.98
-135.58
-134.60
-135.78
-140.35
-147.73
-156.27
-164.20
-170.23
-173.44
-172.94
-167.39
-155.10
-134.52
-104.96
-67.11
-22.99
24.14
70.45
111.80
144.34
164.84
171.32
163.79
144.58
118.49
91.96
71.72
63.12
68.66
87.36
115.08
145.72
172.78
190.95
197.00
189.97
170.93
142.35
107.65
70.69
35.43
5.14
-18.34
-35.26
-47.90
-59.65
-73.41
-89.83
-106.62
-119.03
-121.87
-111.95
-89.95
-60.76
-31.76
-10.20
-0.48
-2.89
-14.02
-28.50
-41.16
-48.72
-50.33
-47.17
-41.62
-36.12
-32.60
-32.20
-35.17
-40.94
-48.39
-56.16
-63.05
-68.32
-71.55
-72.48
-70.77
-66.15
-58.86
-49.95
-41.34
-35.23
-33.30
-36.02
-42.53
-51.21
-60.50
-69.51
-78.09
-86.33
-93.93
-99.99
-103.23
-102.69
-98.06
-89.67
-78.04
-63.42
-45.72
-24.84
-1.19
23.91
48.29
69.38
84.78
92.92
93.35
86.83
75.16
60.90
46.90
35.81
29.42
28.27
31.62
37.89
45.36
52.67
59.05
64.20
68.05
70.60
71.75
71.36
69.23
65.26
59.52
52.29
43.97
35.01
25.72
16.21
6.44
-3.71
-14.06
-24.08
-32.81
-39.19
-42.41
-42.39
-39.94
-36.60
-34.14
-33.97
-36.57
-41.31
-46.72
-51.13
-53.27
-52.66
-49.49
-44.29
-37.59
-29.76
-21.16
-12.35
-3.99
3.47
10.13
16.85
24.76
34.67
46.52
59.20
71.13
80.93
88.03
92.60
95.12
95.65
93.81
89.02
81.26
71.47
61.38
52.84
46.99
43.79
42.26
41.07
39.27
36.63
33.49
30.34
27.43
24.56
21.26
17.10
11.98
6.23
0.50
-4.42
-8.02
-10.19
-11.33
-12.13
-13.29
-15.25
-17.97
-21.06
-23.96
-26.36
-28.28
-30.13
-32.50
-35.88
-40.50
-46.23
-52.59
-58.92
-64.46
-68.50
-70.41
-69.82
-66.68
-61.38
-54.66
-47.56
-41.03
-35.70
-31.66
-28.48
-25.43
-21.81
-17.28
-11.96
-6.35
-1.08
3.45
7.10
10.03
12.50
14.71
16.68
18.30
19.51
20.28
20.76
21.08
21.36
21.55
21.49
21.01
20.00
18.54
16.80
15.03
13.32
11.64
9.77
7.50
4.69
1.47
-1.84
-4.83
-7.24
-9.05
-10.52
-12.09
-14.11
-16.73
-19.79
-22.95
-25.86
-28.31
-30.37
-32.29
-34.38
-36.87
-39.77
-42.77
-45.34
-46.82
-46.64
-44.48
-40.40
-34.81
-28.35
-21.66
-15.25
-9.40
-4.18
0.50
4.79
8.91
13.13
17.63
22.53
27.71
32.83
37.39
40.94
43.25
44.38
44.69
44.57
44.35
44.13
43.87
43.46
42.84
42.08
41.26
40.47
39.66
38.65
37.26
35.39
33.14
30.80
28.71
27.13
26.12
25.48
24.88
23.99
22.63
20.81
18.70
16.45
14.14
11.76
9.27
6.73
4.31
2.20
0.50
-0.88
-2.20
-3.76
-5.74
-8.09
-10.55
-12.75
-14.39
-15.32
-15.64
-15.67
-15.89
-16.81
-18.70
-21.52
-24.72
-27.42
-28.63
-27.60
-24.07
-18.33
-11.08
-3.18
4.62
11.83
18.21
23.77
28.62
32.97
37.07
41.21
45.59
50.20
54.71
58.45
60.60
60.51
57.96
53.31
47.41
41.28
35.75
31.32
28.16
26.20
25.26
25.17
25.77
26.89
28.43
30.40
32.89
35.95
39.41
42.81
45.41
46.56
45.76
42.89
38.11
31.72
24.10
15.72
7.13
-0.97
-7.89
-13.15
-16.64
-18.71
-20.11
-21.73
-24.36
-28.49
-34.17
-41.05
-48.48
-55.48
-61.01
-64.09
-64.07
-60.99
-55.71
-49.71
-44.62
-41.55
-40.62
-40.91
-41.00
-39.63
-36.39
-31.83
-27.13
-23.43
-21.40
-21.05
-21.97
-23.64
-25.72
-28.10
-30.79
-33.77
-36.87
-39.76
-41.98
-43.09
-42.76
-40.89
-37.70
-33.64
-29.26
-25.07
-21.37
-18.34
-16.10
-14.88
-14.89
-16.19
-18.21
-19.68
-18.78
-13.74
-3.71
10.69
27.32
43.20
55.61
63.09
65.84
65.40
63.77
62.46
61.99
61.93
61.40
59.72
56.72
52.87
48.84
45.29
42.49
40.36
38.54
36.52
33.77
29.73
23.79
15.31
3.99
-9.89
-24.99
-39.02
-49.22
-53.32
-50.50
-41.81
-29.90
-17.98
-8.61
-2.77
0.16
1.83
3.90
7.32
12.07
17.53
23.05
28.35
33.52
38.77
44.06
49.04
53.22
56.40
58.81
61.16
64.15
68.15
72.91
77.70
81.69
84.35
85.66
85.94
85.62
84.95
83.86
82.15
79.53
75.88
71.23
65.85
60.08
54.23
48.40
42.45
35.97
28.43
19.46
9.03
-2.43
-14.24
-25.78
-36.77
-47.39
-58.09
-69.29
-81.06
-92.93
-104.07
-113.52
-120.50
-124.57
-125.75
-124.37
-121.01
-116.42
-111.38
-106.65
-102.75
-99.76
-97.26
-94.45
-90.40
-84.42
-76.31
-66.40
-55.38
-44.09
-33.22
-23.22
-14.28
-6.38
0.66
7.06
13.06
18.77
24.13
28.85
32.52
34.78
35.41
34.50
32.42
29.74
27.06
24.88
23.41
22.67
22.44
22.50
22.59
22.51
22.09
21.15
19.58
17.41
14.86
12.31
10.15
8.62
7.65
6.97
6.22
5.15
3.76
2.21
0.69
-0.73
-2.04
-3.30
-4.52
-5.56
-6.27
-6.56
-6.50
-6.33
-6.41
-7.03
-8.34
-10.25
-12.53
-14.86
-17.06
-19.17
-21.41
-24.10
-27.39
-31.11
-34.71
-37.45
-38.62
-37.81
-35.00
-30.58
-25.11
-19.25
-13.53
-8.30
-3.75
0.09
3.39
6.44
9.55
12.97
16.73
20.61
24.17
26.96
28.64
29.17
28.74
27.64
26.13
24.24
21.90
18.92
15.26
10.93
6.09
0.87
-4.62
-10.37
-16.38
-22.63
-28.97
-35.12
-40.56
-44.52
-46.15
-44.73
-39.98
-32.29
-22.63
-12.24
-2.22
6.71
14.30
20.51
25.27
28.35
29.55
28.85
26.57
23.35
19.87
16.62
13.77
11.23
8.79
6.33
3.80
1.26
-1.31
-3.99
-6.96
-10.38
-14.27
-18.35
-22.07
-24.66
-25.48
-24.18
-20.97
-16.53
-11.78
-7.60
-4.44
-2.36
-1.04
-0.08
0.84
1.83
2.87
3.89
4.84
5.75
6.63
7.43
7.98
8.12
7.75
7.00
6.21
5.76
5.96
6.82
8.16
9.62
10.91
11.90
12.60
13.09
13.36
13.37
13.03
12.37
11.53
10.75
10.19
9.77
9.27
8.35
6.77
4.49
1.76
-1.08
-3.70
-5.93
-7.80
-9.50
-11.29
-13.41
-15.97
-18.92
-21.96
-24.61
-26.28
-26.52
-25.11
-22.22
-18.33
-14.07
-9.99
-6.45
-3.60
-1.40
0.27
1.59
2.80
4.19
6.05
8.47
11.29
14.08
16.33
17.65
18.03
17.79
17.43
17.33
17.58
17.95
18.09
17.76
16.99
16.08
15.34
14.95
14.83
14.67
14.12
12.91
10.99
8.49
5.66
2.72
-0.18
-2.98
-5.72
-8.37
-10.86
-13.05
-14.81
-16.08
-16.92
-17.54
-18.25
-19.33
-20.95
-23.08
-25.53
-27.91
-29.81
-30.74
-30.38
-28.55
-25.34
-21.05
-16.10
-10.98
-6.09
-1.71
1.99
5.00
7.40
9.44
11.46
13.77
16.52
19.59
22.56
24.90
26.20
26.35
25.54
24.15
22.57
21.03
19.54
18.05
16.57
15.19
14.06
13.30
12.87
12.55
11.97
10.87
9.16
7.01
4.80
2.96
1.76
1.26
1.23
1.34
1.25
0.75
-0.17
-1.34
-2.54
-3.53
-4.24
-4.70
-5.07
-5.50
-6.07
-6.74
-7.40
-7.98
-8.50
-9.09
-9.90
-11.01
-12.36
-13.82
-15.29
-16.79
-18.52
-20.63
-23.05
-25.38
-26.94
-27.05
-25.35
-22.08
-17.91
-13.70
-10.11
-7.32
-5.05
-2.80
-0.18
2.96
6.43
9.92
13.11
15.85
18.08
19.83
21.11
21.89
22.09
21.68
20.71
19.41
18.10
17.11
16.61
16.57
16.70
16.63
16.08
14.98
13.56
12.17
11.15
10.60
10.38
10.18
9.71
8.90
7.90
7.05
6.63
6.74
7.20
7.67
7.83
7.56
7.00
6.45
6.19
6.33
6.77
7.25
7.54
7.52
7.24
6.83
6.36
5.83
5.10
4.03
2.58
0.89
-0.76
-2.14
-3.22
-4.23
-5.61
-7.73
-10.56
-13.61
-16.02
-16.93
-15.90
-13.16
-9.55
-6.16
-3.85
-2.92
-3.06
-3.53
-3.60
-2.78
-0.99
1.52
4.36
7.18
9.76
12.01
13.86
15.22
15.98
16.08
15.63
14.89
14.22
13.95
14.23
14.90
15.62
15.95
15.53
14.29
12.37
10.17
8.08
6.37
5.09
4.02
2.82
1.18
-0.99
-3.56
-6.17
-8.43
-10.03
-10.97
-11.42
-11.69
-12.08
-12.71
-13.54
-14.45
-15.34
-16.18
-16.95
-17.65
-18.21
-18.58
-18.78
-18.98
-19.44
-20.32
-21.51
-22.48
-22.43
-20.62
-16.70
-10.95
-4.28
2.15
7.31
10.65
12.27
12.70
12.70
12.82
13.29
14.04
14.85
15.52
15.99
16.30
16.47
16.36
15.75
14.44
12.46
10.14
8.04
6.70
6.36
6.81
7.45
7.56
6.64
4.66
2.03
-0.59
-2.66
-3.94
-4.56
-4.93
-5.42
-6.24
-7.29
-8.36
-9.21
-9.82
-10.37
-11.19
-12.47
-14.20
-16.12
-17.89
-19.27
-20.24
-21.09
-22.21
-23.94
-26.37
-29.37
-32.56
-35.46
-37.62
-38.63
-38.20
-36.18
-32.59
-27.71
-21.98
-15.99
-10.24
-5.11
-0.73
2.91
5.99
8.74
11.38
14.12
17.03
19.98
22.69
24.81
26.12
26.64
26.66
26.54
26.56
26.66
26.59
26.06
24.96
23.49
22.03
20.95
20.40
20.19
20.00
19.52
18.63
17.44
16.17
14.97
13.88
12.75
11.41
9.75
7.82
5.77
3.76
1.90
0.20
-1.37
-2.85
-4.25
-5.52
-6.63
-7.54
-8.22
-8.71
-9.13
-9.66
-10.48
-11.70
-13.28
-15.08
-16.98
-18.99
-21.30
-24.15
-27.55
-31.18
-34.33
-36.17
-36.04
-33.81
-29.85
-24.90
-19.70
-14.75
-10.20
-5.88
-1.57
2.90
7.49
12.05
16.45
20.61
24.51
28.15
31.41
34.06
35.80
36.41
35.85
34.39
32.49
30.66
29.31
28.58
28.30
28.16
27.81
26.98
25.59
23.70
21.51
19.25
17.08
15.03
13.07
11.08
8.98
6.81
4.68
2.71
0.96
-0.70
-2.49
-4.62
-7.09
-9.68
-12.03
-13.79
-14.83
-15.30
-15.55
-15.92
-16.55
-17.42
-18.32
-19.13
-19.91
-20.91
-22.44
-24.68
-27.56
-30.78
-33.89
-36.49
-38.29
-39.11
-38.81
-37.34
-34.71
-31.11
-26.93
-22.62
-18.59
-15.08
-12.02
-9.16
-6.19
-2.89
0.79
4.72
8.60
12.07
14.85
16.81
18.03
18.82
19.60
20.69
22.27
24.23
26.39
28.47
30.31
31.80
32.86
33.31
32.95
31.60
29.28
26.30
23.18
20.45
18.47
17.18
16.22
14.99
13.06
10.33
7.10
3.89
1.19
-0.78
-2.22
-3.55
-5.24
-7.55
-10.44
-13.62
-16.75
-19.64
-22.31
-24.97
-27.84
-31.03
-34.46
-37.80
-40.65
-42.62
-43.50
-43.29
-42.09
-40.06
-37.31
-33.93
-30.04
-25.85
-21.70
-17.89
-14.60
-11.78
-9.16
-6.36
-3.08
0.74
4.83
8.68
11.76
13.70
14.47
14.39
14.00
13.84
14.14
14.84
15.63
16.16
16.30
16.17
16.04
16.14
16.48
16.90
17.18
17.22
17.15
17.24
17.75
18.73
19.99
21.15
21.82
21.75
20.91
19.45
17.64
15.75
13.91
12.15
10.42
8.69
7.03
5.56
4.42
3.61
2.93
2.04
0.59
-1.55
-4.22
-7.01
-9.46
-11.28
-12.56
-13.73
-15.37
-17.95
-21.58
-25.96
-30.35
-33.87
-35.73
-35.51
-33.30
-29.59
-25.07
-20.39
-16.01
-12.19
-9.03
-6.54
-4.70
-3.36
-2.25
-1.00
0.78
3.23
6.22
9.24
11.70
13.15
13.50
13.04
12.31
11.80
11.72
11.96
12.19
12.20
11.96
11.73
11.82
12.37
13.18
13.86
13.98
13.36
12.24
11.14
10.66
11.16
12.58
14.46
16.20
17.32
17.66
17.36
16.75
16.10
15.47
14.69
13.54
11.82
9.56
6.95
4.27
1.72
-0.70
-3.06
-5.52
-8.14
-10.88
-13.59
-16.14
-18.54
-20.98
-23.73
-26.94
-30.49
-33.88
-36.33
-37.12
-35.85
-32.76
-28.59
-24.40
-21.07
-18.95
-17.80
-16.92
-15.59
-13.39
-10.38
-6.96
-3.62
-0.71
1.68
3.65
5.33
6.75
7.80
8.39
8.54
8.46
8.53
9.13
10.40
12.17
13.94
15.19
15.49
14.79
13.39
11.79
10.48
9.70
9.44
9.44
9.38
9.05
8.39
7.56
6.73
6.08
5.63
5.32
5.06
4.75
4.40
4.03
3.63
3.10
2.27
0.99
-0.76
-2.89
-5.20
-7.53
-9.89
-12.44
-15.44
-19.01
-22.96
-26.76
-29.62
-30.77
-29.78
-26.82
-22.58
-18.09
-14.32
-11.82
-10.59
-10.09
-9.66
-8.76
-7.23
-5.19
-2.94
-0.70
1.46
3.59
5.72
7.74
9.44
10.54
10.97
10.89
10.62
10.57
11.00
11.89
12.97
13.84
14.16
13.80
12.91
11.84
10.96
10.43
10.22
10.09
9.84
9.41
8.98
8.80
9.03
9.58
10.15
10.38
10.04
9.16
7.96
6.81
5.98
5.56
5.50
5.58
5.62
5.50
5.21
4.81
4.40
4.00
3.44
2.50
0.92
-1.39
-4.31
-7.54
-10.82
-14.11
-17.53
-21.30
-25.39
-29.35
-32.43
-33.85
-33.20
-30.69
-27.09
-23.39
-20.36
-18.29
-16.93
-15.72
-14.12
-11.87
-9.12
-6.25
-3.68
-1.61
0.08
1.71
3.58
5.79
8.11
10.13
11.46
11.98
11.88
11.58
11.48
11.77
12.33
12.88
13.15
13.07
12.77
12.56
12.57
12.79
12.95
12.76
12.03
10.84
9.49
8.37
7.78
7.71
7.98
8.25
8.25
7.86
7.20
6.50
5.96
5.68
5.56
5.41
5.08
4.54
3.94
3.51
3.39
3.52
3.67
3.49
2.76
1.46
-0.16
-1.79
-3.23
-4.57
-6.20
-8.61
-12.13
-16.68
-21.77
-26.55
-30.13
-31.89
-31.68
-29.80
-26.89
-23.64
-20.59
-17.96
-15.75
-13.81
-11.98
-10.19
-8.39
-6.51
-4.40
-1.86
1.20
4.62
7.98
10.72
12.39
12.87
12.42
11.59
10.89
10.64
10.83
11.22
11.53
11.61
11.51
11.39
11.39
11.52
11.64
11.56
11.18
10.50
9.65
8.78
7.94
7.02
5.81
4.17
2.12
-0.11
-2.16
-3.80
-5.00
-6.08
-7.51
-9.67
-12.63
-16.17
-19.80
-23.07
-25.79
-28.16
-30.69
-33.96
-38.33
-43.74
-49.58
-54.83
-58.31
-58.99
-56.26
-50.17
-41.31
-30.70
-19.37
-8.15
2.61
12.85
22.70
32.14
40.92
48.65
55.06
60.25
64.68
69.03
73.87
79.35
85.28
91.26
96.96
102.28
107.23
111.78
115.76
118.89
121.01
122.17
122.64
122.72
122.50
121.75
120.08
117.12
112.80
107.46
101.66
95.97
90.70
85.81
80.95
75.74
69.96
63.67
57.19
50.94
45.29
40.38
36.08
32.09
28.11
23.89
19.35
14.38
8.92
2.85
-3.78
-10.70
-17.32
-22.91
-26.90
-29.04
-29.53
-28.86
-27.56
-25.94
-24.04
-21.69
-18.70
-15.00
-10.68
-6.01
-1.44
2.50
5.30
6.59
6.22
4.35
1.34
-2.45
-6.75
-11.54
-16.91
-22.96
-29.62
-36.60
-43.47
-49.78
-55.23
-59.71
-63.30
-66.23
-68.73
-71.05
-73.38
-75.89
-78.72
-81.97
-85.62
-89.51
-93.34
-96.77
-99.55
-101.64
-103.28
-104.80
-106.44
-108.17
-109.62
-110.23
-109.44
-106.96
-102.83
-97.42
-91.13
-84.36
-77.28
-69.94
-62.43
-54.96
-47.91
-41.70
-36.56
-32.43
-28.89
-25.38
-21.37
-16.62
-11.32
-5.97
-1.22
2.39
4.56
5.28
4.78
3.41
1.53
-0.56
-2.70
-4.77
-6.74
-8.56
-10.04
-10.90
-10.82
-9.61
-7.41
-4.76
-2.49
-1.47
-2.26
-4.95
-9.21
-14.52
-20.46
-26.86
-33.78
-41.32
-49.47
-58.02
-66.71
-75.23
-83.37
-90.95
-97.75
-103.56
-108.29
-112.12
-115.59
-119.38
-124.02
-129.36
-134.46
-137.77
-137.64
-133.03
-123.90
-111.29
-96.73
-81.54
-66.23
-50.38
-33.05
-13.50
8.10
30.60
52.19
71.07
86.15
97.22
104.91
110.21
114.10
117.43
120.79
124.69
129.42
135.04
141.27
147.42
152.60
155.91
156.72
154.89
150.75
145.11
139.01
133.36
128.66
124.72
120.75
115.62
108.38
98.60
86.64
73.39
59.95
47.11
35.16
23.85
12.71
1.35
-10.26
-21.91
-33.29
-44.26
-54.89
-65.47
-76.22
-87.14
-97.85
-107.69
-115.90
-121.82
-124.98
-125.10
-122.04
-115.76
-106.34
-94.18
-80.13
-65.50
-51.78
-40.23
-31.40
-24.99
-20.04
-15.44
-10.49
-5.14
0.08
4.52
7.84
10.20
12.12
14.09
16.20
18.03
18.92
18.29
16.03
12.63
8.96
6.03
4.54
4.75
6.44
9.08
12.06
14.98
17.66
20.13
22.50
24.82
27.06
29.21
31.28
33.45
35.91
38.77
41.95
45.13
47.87
49.82
50.90
51.36
51.64
52.19
53.24
54.68
56.18
57.35
57.96
58.05
57.85
57.65
57.56
57.41
56.82
55.37
52.77
49.00
44.27
38.90
33.19
27.37
21.62
16.06
10.94
6.50
3.02
0.61
-0.89
-1.88
-2.97
-4.72
-7.40
-10.90
-14.73
-18.28
-21.12
-23.23
-24.96
-26.85
-29.26
-32.18
-35.20
-37.84
-39.84
-41.34
-42.80
-44.69
-47.26
-50.31
-53.29
-55.50
-56.31
-55.31
-52.39
-47.68
-41.52
-34.43
-26.93
-19.50
-12.44
-5.90
0.11
5.59
10.53
14.93
18.79
22.16
25.03
27.33
28.95
29.74
29.77
29.32
28.86
28.90
29.72
31.22
32.97
34.42
35.17
35.20
34.85
34.70
35.26
36.74
38.94
41.45
43.85
45.92
47.79
49.72
51.92
54.41
56.99
59.42
61.53
63.29
64.67
65.49
65.30
63.53
59.71
53.74
46.05
37.44
28.80
20.75
13.53
6.99
0.77
-5.44
-11.84
-18.52
-25.59
-33.14
-41.15
-49.37
-57.13
-63.46
-67.39
-68.32
-66.31
-62.12
-56.95
-51.95
-47.81
-44.59
-41.82
-38.78
-34.88
-29.85
-23.84
-17.28
-10.73
-4.76
0.21
4.01
6.72
8.62
10.09
11.47
12.87
14.22
15.35
16.16
16.75
17.36
18.28
19.61
21.25
22.92
24.43
25.70
26.91
28.30
29.95
31.73
33.29
34.25
34.38
33.76
32.71
31.64
30.82
30.19
29.44
28.10
25.82
22.51
18.38
13.80
9.07
4.24
-0.87
-6.49
-12.70
-19.27
-25.72
-31.53
-36.37
-40.30
-43.69
-47.06
-50.83
-55.23
-60.20
-65.48
-70.65
-75.18
-78.45
-79.83
-78.81
-75.12
-68.87
-60.61
-51.23
-41.83
-33.33
-26.24
-20.57
-15.84
-11.36
-6.53
-1.11
4.74
10.53
15.72
19.86
22.80
24.63
25.64
26.12
26.29
26.23
25.91
25.29
24.34
23.02
21.31
19.07
16.09
12.21
7.39
1.86
-3.84
-8.96
-12.74
-14.65
-14.54
-12.74
-9.86
-6.51
-3.09
0.32
3.88
7.76
11.88
15.88
19.24
21.62
22.96
23.59
23.93
24.19
24.07
22.87
19.78
14.26
6.38
-3.16
-13.30
-23.05
-31.67
-38.83
-44.43
-48.49
-51.10
-52.51
-53.24
-54.06
-55.76
-58.74
-62.85
-67.32
-71.15
-73.50
-74.01
-72.80
-70.20
-66.49
-61.67
-55.66
-48.41
-40.19
-31.58
-23.25
-15.81
-9.50
-4.31
0.08
3.93
7.47
10.80
13.89
16.71
19.19
21.32
23.14
24.78
26.40
28.24
30.49
33.23
36.44
39.96
43.56
46.98
49.99
52.38
53.98
54.65
54.30
53.01
50.98
48.59
46.22
44.18
42.50
40.89
38.77
35.50
30.62
24.06
16.24
7.90
-0.12
-7.11
-12.66
-16.64
-19.18
-20.59
-21.29
-21.78
-22.72
-24.77
-28.54
-34.43
-42.53
-52.54
-63.70
-74.77
-84.24
-90.52
-92.50
-89.80
-83.02
-73.51
-62.94
-52.75
-43.91
-36.74
-31.09
-26.58
-22.78
-19.34
-15.96
-12.43
-8.65
-4.64
-0.53
3.49
7.26
10.69
13.78
16.62
19.31
21.92
24.42
26.70
28.63
30.04
30.84
31.08
30.93
30.70
30.72
31.30
32.54
34.47
36.96
39.80
42.73
45.44
47.65
49.14
49.97
50.38
50.75
51.40
52.25
52.79
52.20
49.69
44.85
37.97
29.79
21.35
13.52
6.89
1.72
-1.99
-4.37
-5.80
-6.90
-8.59
-11.86
-17.55
-25.96
-36.71
-48.81
-60.84
-71.29
-78.81
-82.42
-81.66
-76.75
-68.65
-58.78
-48.72
-39.72
-32.34
-26.46
-21.59
-17.21
-13.09
-9.29
-5.99
-3.23
-0.82
1.54
4.02
6.60
9.03
11.07
12.65
13.95
15.24
16.77
18.56
20.49
22.30
23.77
24.79
25.37
25.65
25.78
25.89
26.04
26.21
26.34
26.30
26.01
25.42
24.58
23.54
22.39
21.18
19.99
18.88
17.90
17.05
16.29
15.47
14.41
12.91
10.84
8.29
5.43
2.52
-0.27
-2.97
-5.84
-9.14
-12.99
-17.16
-21.04
-23.84
-24.89
-23.92
-21.19
-17.43
-13.47
-10.06
-7.57
-5.95
-4.84
-3.81
-2.52
-0.86
1.05
2.93
4.53
5.67
6.32
6.53
6.43
6.08
5.50
4.70
3.73
2.68
1.70
0.92
0.40
0.05
-0.21
-0.48
-0.77
-1.00
-1.08
-0.92
-0.59
-0.25
-0.06
-0.09
-0.30
-0.57
-0.83
-1.11
-1.57
-2.37
-3.62
-5.25
-7.05
-8.78
-10.28
-11.62
-13.05
-14.94
-17.54
-20.91
-24.71
-28.31
-30.91
-31.80
-30.64
-27.51
-22.98
-17.79
-12.73
-8.29
-4.69
-1.83
0.59
2.88
5.31
8.08
11.25
14.80
18.53
22.15
25.24
27.39
28.35
28.15
27.07
25.65
24.44
23.83
23.85
24.26
24.65
24.63
23.98
22.66
20.77
18.42
15.69
12.68
9.51
6.43
3.71
1.56
0.02
-1.15
-2.35
-4.00
-6.35
-9.40
-12.91
-16.57
-20.13
-23.48
-26.70
-29.96
-33.39
-36.99
-40.64
-44.12
-47.24
-49.90
-52.13
-54.06
-55.74
-57.05
-57.57
-56.76
-54.20
-49.96
-44.78
-39.82
-36.12
-33.98
-32.72
-30.89
-26.99
-20.14
-10.41
1.49
14.67
28.44
42.37
55.96
68.53
79.38
88.16
95.27
101.64
108.28
115.49
122.66
128.47
131.61
131.42
128.26
123.26
117.84
113.14
109.71
107.45
105.70
103.46
99.71
93.73
85.33
74.91
63.29
51.38
39.83
28.85
18.30
7.93
-2.31
-12.14
-21.05
-28.53
-34.42
-38.97
-42.73
-46.22
-49.62
-52.71
-55.01
-56.10
-55.90
-54.74
-53.15
-51.58
-50.13
-48.56
-46.41
-43.35
-39.38
-34.91
-30.61
-27.12
-24.81
-23.67
-23.37
-23.46
-23.50
-23.24
-22.62
-21.68
-20.49
-19.09
-17.47
-15.64
-13.72
-11.87
-10.22
-8.83
-7.52
-5.99
-3.89
-0.98
2.80
7.25
11.99
16.56
20.50
23.45
25.21
25.82
25.44
24.42
23.06
21.55
19.87
17.77
14.97
11.35
7.00
2.32
-2.15
-5.98
-8.94
-11.09
-12.66
-13.94
-15.06
-16.08
-16.95
-17.67
-18.33
-19.00
-19.68
-20.24
-20.47
-20.23
-19.57
-18.75
-18.11
-17.88
-18.13
-18.79
-19.75
-21.07
-22.97
-25.61
-28.91
-32.35
-35.11
-36.33
-35.48
-32.66
-28.51
-23.96
-19.79
-16.27
-13.20
-10.09
-6.53
-2.49
1.70
5.54
8.74
11.37
13.80
16.42
19.30
22.04
23.92
24.33
23.10
20.75
18.22
16.52
16.18
17.04
18.41
19.42
19.46
18.42
16.65
14.71
13.04
11.79
10.84
9.93
8.85
7.55
6.09
4.58
3.09
1.61
0.00
-1.94
-4.35
-7.20
-10.20
-12.85
-14.74
-15.78
-16.33
-17.14
-18.96
-22.11
-26.21
-30.26
-33.04
-33.60
-31.68
-27.76
-22.75
-17.63
-13.07
-9.27
-6.15
-3.49
-1.15
0.96
2.93
4.95
7.36
10.41
14.08
17.91
21.17
23.18
23.63
22.80
21.43
20.40
20.30
21.25
22.91
24.78
26.42
27.64
28.45
28.97
29.24
29.19
28.74
27.88
26.82
25.87
25.32
25.33
25.70
26.01
25.74
24.55
22.41
19.64
16.77
14.28
12.46
11.24
10.37
9.48
8.32
6.85
5.25
3.80
2.68
1.88
1.17
0.24
-1.14
-2.91
-4.75
-6.20
-6.89
-6.74
-6.00
-5.13
-4.59
-4.58
-5.08
-5.93
-7.00
-8.25
-9.63
-10.95
-11.66
-10.98
-8.16
-2.83
4.70
13.49
22.28
29.85
35.51
39.23
41.58
43.46
45.68
48.68
52.36
56.12
59.15
60.63
60.00
56.98
51.56
43.88
34.32
23.55
12.62
2.78
-4.75
-9.30
-11.06
-11.01
-10.55
-10.94
-12.83
-16.07
-19.89
-23.40
-26.02
-27.75
-29.04
-30.53
-32.54
-34.87
-36.91
-37.93
-37.50
-35.79
-33.45
-31.35
-30.11
-29.91
-30.50
-31.51
-32.65
-33.92
-35.49
-37.52
-39.97
-42.61
-45.11
-47.22
-48.96
-50.59
-52.50
-54.87
-57.52
-59.76
-60.62
-59.21
-55.17
-48.91
-41.54
-34.43
-28.70
-24.80
-22.43
-20.89
-19.44
-17.75
-15.91
-14.28
-13.18
-12.69
-12.68
-12.94
-13.39
-14.17
-15.53
-17.67
-20.61
-24.13
-27.93
-31.80
-35.71
-39.87
-44.51
-49.71
-55.28
-60.79
-65.71
-69.55
-72.06
-73.34
-73.76
-73.83
-73.83
-73.55
-72.29
-69.15
-63.62
-56.04
-47.59
-39.76
-33.67
-29.49
-26.48
-23.41
-19.18
-13.26
-5.73
2.84
11.70
20.02
27.04
32.28
35.75
38.16
40.72
44.76
51.03
59.37
68.64
77.10
82.84
84.23
80.23
70.70
56.71
40.48
25.09
13.65
8.19
8.90
13.90
19.85
23.08
20.74
11.61
-3.81
-23.68
-45.50
-66.43
-83.57
-94.04
-95.28
-85.71
-65.49
-37.06
-4.86
25.73
50.07
65.70
73.10
75.10
75.44
77.12
81.27
87.17
93.25
98.31
102.27
105.97
110.19
114.63
117.52
116.38
109.33
96.38
79.70
62.80
49.06
40.34
36.37
35.21
34.23
31.01
24.00
12.47
-3.72
-24.18
-47.75
-72.06
-93.31
-106.84
-108.40
-95.75
-69.88
-34.95
2.81
37.17
63.59
80.19
87.37
86.66
79.71
67.77
51.97
33.87
15.80
0.41
-10.10
-14.80
-14.44
-10.93
-6.45
-2.44
1.00
4.80
10.14
17.61
26.65
35.78
43.29
48.02
49.82
49.33
47.56
45.25
42.67
39.66
35.93
31.33
25.98
20.21
14.45
9.06
4.23
-0.08
-4.05
-7.88
-11.61
-15.04
-17.74
-19.26
-19.33
-18.03
-15.85
-13.49
-11.63
-10.70
-10.76
-11.60
-12.83
-14.16
-15.51
-17.01
-18.86
-21.12
-23.63
-25.95
-27.60
-28.31
-28.23
-27.87
-27.79
-28.41
-29.74
-31.48
-33.26
-34.80
-35.89
-36.36
-35.89
-34.07
-30.58
-25.47
-19.28
-12.97
-7.49
-3.50
-1.05
0.33
1.38
2.75
4.81
7.57
10.76
13.95
16.62
18.31
18.64
17.56
15.29
12.41
9.58
7.41
6.24
6.14
6.95
8.48
10.44
12.45
13.98
14.43
13.34
10.64
6.71
2.28
-1.90
-5.30
-7.81
-9.58
-10.89
-11.93
-12.71
-13.20
-13.30
-13.06
-12.63
-12.23
-12.14
-12.54
-13.45
-14.74
-16.10
-17.17
-17.69
-17.64
-17.26
-16.94
-17.13
-18.22
-20.45
-24.01
-28.97
-35.31
-42.72
-50.55
-57.85
-63.60
-67.03
-67.85
-66.35
-63.24
-59.36
-55.45
-51.94
-48.91
-46.14
-43.28
-39.89
-35.67
-30.54
-24.68
-18.57
-12.74
-7.62
-3.34
0.22
3.29
6.13
8.80
11.32
13.65
15.88
18.15
20.66
23.44
26.40
29.29
31.77
33.60
34.62
34.82
34.22
32.92
31.11
29.00
26.85
24.77
22.77
20.64
18.13
15.10
11.68
8.28
5.50
3.87
3.62
4.51
5.92
7.09
7.43
6.70
5.10
3.10
1.25
-0.09
-0.84
-1.23
-1.65
-2.42
-3.76
-5.62
-7.82
-10.08
-12.16
-13.91
-15.37
-16.76
-18.41
-20.57
-23.24
-25.97
-27.95
-28.29
-26.39
-22.33
-16.84
-11.03
-5.93
-1.97
1.04
3.70
6.55
9.75
12.99
15.75
17.59
18.47
18.72
18.89
19.48
20.72
22.53
24.57
26.47
27.98
29.09
29.94
30.75
31.55
32.28
32.75
32.82
32.47
31.71
30.52
28.73
26.12
22.51
17.98
12.80
7.43
2.30
-2.33
-6.28
-9.52
-12.03
-13.87
-15.13
-15.91
-16.29
-16.31
-16.04
-15.66
-15.48
-15.88
-17.03
-18.88
-21.07
-23.17
-24.92
-26.30
-27.45
-28.52
-29.53
-30.37
-31.00
-31.55
-32.23
-33.19
-34.28
-34.96
-34.55
-32.55
-28.91
-24.15
-19.08
-14.48
-10.75
-7.86
-5.43
-2.99
-0.24
2.89
6.20
9.46
12.44
15.02
17.19
18.99
20.45
21.56
22.32
22.72
22.85
22.96
23.41
24.63
26.86
30.08
33.91
37.64
40.54
42.12
42.35
41.65
40.62
39.75
39.24
38.88
38.39
37.60
36.57
35.59
34.89
34.53
34.31
33.96
33.25
32.22
31.03
29.82
28.60
27.20
25.40
23.14
20.59
18.10
16.06
14.65
13.73
12.96
11.88
10.26
8.22
6.22
5.04
5.40
7.76
12.04
17.69
23.81
29.60
34.55
38.62
42.13
45.39
48.50
51.17
52.96
53.43
52.44
50.15
46.97
43.32
39.54
35.85
32.30
28.83
25.25
21.28
16.66
11.31
5.35
-0.88
-6.98
-12.56
-17.38
-21.30
-24.17
-25.91
-26.46
-25.90
-24.52
-22.68
-20.63
-18.42
-15.86
-12.71
-8.89
-4.69
-0.61
2.79
5.18
6.65
7.57
8.31
9.02
9.51
9.36
8.22
6.00
2.88
-0.78
-4.72
-8.80
-13.09
-17.59
-22.13
-26.44
-30.19
-33.25
-35.79
-38.21
-40.90
-44.01
-47.21
-49.73
-50.69
-49.38
-45.67
-39.98
-33.28
-26.60
-20.77
-16.18
-12.76
-10.18
-8.05
-6.11
-4.22
-2.40
-0.63
1.07
2.76
4.45
6.08
7.58
8.78
9.59
9.96
9.96
9.72
9.40
9.09
8.81
8.52
8.21
7.91
7.71
7.78
8.25
9.12
10.22
11.19
11.66
11.34
10.23
8.63
7.00
5.81
5.30
5.40
5.82
6.18
6.17
5.73
4.97
4.08
3.20
2.36
1.51
0.61
-0.29
-1.05
-1.54
-1.72
-1.69
-1.66
-1.75
-1.98
-2.22
-2.31
-2.21
-2.01
-1.92
-2.10
-2.55
-3.16
-3.65
-3.73
-3.15
-1.74
0.52
3.49
6.81
10.02
12.73
14.77
16.26
17.57
19.10
21.09
23.65
26.73
30.35
34.54
39.28
44.39
49.45
53.96
57.59
60.37
62.70
65.12
68.04
71.47
75.11
78.46
81.21
83.25
84.72
85.79
86.53
86.92
86.89
86.46
85.70
84.68
83.31
81.30
78.21
73.62
67.32
59.36
50.06
39.85
29.18
18.44
7.95
-2.08
-11.54
-20.41
-28.75
-36.59
-43.87
-50.51
-56.39
-61.47
-65.84
-69.75
-73.44
-77.13
-80.92
-84.75
-88.39
-91.51
-93.70
-94.50
-93.60
-90.88
-86.56
-81.15
-75.34
-69.74
-64.75
-60.45
-56.68
-53.17
-49.69
-46.15
-42.60
-39.19
-36.13
-33.57
-31.60
-30.14
-29.03
-28.03
-26.95
-25.70
-24.33
-22.98
-21.78
-20.83
-20.10
-19.53
-19.04
-18.61
-18.26
-17.96
-17.68
-17.32
-16.79
-16.04
-15.07
-13.90
-12.53
-10.93
-8.98
-6.65
-3.99
-1.19
1.49
3.74
5.38
6.30
6.53
6.11
5.11
3.58
1.55
-1.00
-4.15
-7.98
-12.45
-17.28
-21.90
-25.58
-27.61
-27.65
-25.90
-23.08
-20.15
-18.09
-17.55
-18.71
-21.36
-25.00
-29.04
-32.86
-35.80
-37.18
-36.38
-33.07
-27.38
-20.09
-12.57
-6.32
-2.65
-2.23
-4.99
-10.23
-16.94
-24.08
-30.74
-36.18
-39.81
-41.29
-40.58
-38.11
-34.64
-31.18
-28.60
-27.48
-27.90
-29.44
-31.42
-33.02
-33.64
-32.94
-31.01
-28.22
-25.06
-21.97
-19.20
-16.82
-14.76
-12.99
-11.51
-10.44
-9.85
-9.78
-10.17
-10.86
-11.65
-12.32
-12.72
-12.79
-12.65
-12.53
-12.76
-13.64
-15.32
-17.72
-20.43
-22.84
-24.19
-23.73
-20.92
-15.60
-8.16
0.52
9.18
16.61
21.97
24.99
26.04
25.86
25.23
24.68
24.36
24.14
23.78
23.08
21.95
20.42
18.52
16.31
13.79
11.08
8.37
5.97
4.19
3.27
3.24
3.90
4.91
5.88
6.51
6.69
6.42
5.87
5.19
4.48
3.77
3.03
2.20
1.33
0.49
-0.16
-0.47
-0.39
0.01
0.46
0.66
0.37
-0.50
-1.84
-3.41
-4.94
-6.28
-7.40
-8.36
-9.23
-10.08
-10.92
-11.80
-12.80
-14.11
-15.91
-18.34
-21.33
-24.67
-27.96
-30.91
-33.33
-35.31
-37.07
-38.85
-40.65
-42.16
-42.76
-41.72
-38.57
-33.26
-26.34
-18.72
-11.43
-5.21
-0.35
3.38
6.48
9.37
12.28
15.11
17.61
19.56
20.88
21.60
21.71
21.12
19.70
17.41
14.51
11.53
9.12
7.79
7.62
8.26
9.18
9.83
9.94
9.54
8.88
8.30
8.12
8.53
9.61
11.33
13.49
15.84
18.13
20.17
21.90
23.30
24.38
25.14
25.58
25.73
25.68
25.56
25.39
25.15
24.69
23.93
22.91
21.81
20.88
20.27
19.98
19.80
19.46
18.77
17.73
16.55
15.50
14.76
14.23
13.63
12.54
10.67
8.11
5.38
3.36
2.98
4.87
9.10
15.07
21.72
27.89
32.69
35.73
37.12
37.24
36.47
35.06
33.09
30.64
27.85
24.97
22.16
19.51
16.84
13.89
10.48
6.58
2.43
-1.65
-5.36
-8.57
-11.34
-13.82
-16.20
-18.58
-21.01
-23.46
-25.88
-28.20
-30.37
-32.28
-33.85
-34.96
-35.50
-35.41
-34.66
-33.24
-31.23
-28.69
-25.70
-22.31
-18.57
-14.55
-10.44
-6.53
-3.21
-0.80
0.53
0.86
0.56
0.08
-0.19
-0.19
-0.22
-0.85
-2.63
-5.80
-10.08
-14.61
-18.24
-19.88
-18.94
-15.52
-10.30
-4.29
1.57
6.63
10.62
13.53
15.45
16.41
16.46
15.71
14.42
13.00
11.81
10.97
10.27
9.24
7.45
4.66
1.06
-2.86
-6.45
-9.21
-11.01
-12.08
-12.85
-13.69
-14.82
-16.21
-17.71
-19.20
-20.69
-22.32
-24.24
-26.51
-29.03
-31.54
-33.65
-35.10
-35.73
-35.59
-34.85
-33.67
-32.23
-30.57
-28.75
-26.80
-24.82
-22.94
-21.30
-19.98
-19.03
-18.44
-18.20
-18.34
-18.86
-19.76
-20.92
-22.09
-22.89
-22.97
-22.16
-20.61
-18.89
-17.77
-17.96
-19.73
-22.67
-25.74
-27.63
-27.29
-24.34
-19.18
-12.77
-6.21
-0.31
4.66
8.90
12.75
16.51
20.14
23.41
26.02
27.89
29.24
30.50
32.04
34.01
36.12
37.86
38.75
38.64
37.81
36.74
35.91
35.44
35.09
34.54
33.52
32.08
30.44
28.86
27.46
26.09
24.54
22.59
20.14
17.18
13.85
10.46
7.40
5.08
3.82
3.63
4.23
