1594298975.00
64.000000
-0.00
-0.00
-0.00
-0.00
-0.00
-0.00
-0.00
-0.00
-0.00
-0.00
0.00
0.01
0.01
-0.00
-0.03
-0.05
-0.05
0.00
0.13
0.36
0.66
1.01
1.37
1.72
2.06
2.40
2.79
3.24
3.80
4.42
5.06
5.66
6.20
6.68
7.15
7.68
8.31
9.14
10.09
11.04
11.88
12.56
13.14
13.76
14.65
15.96
17.91
20.32
22.90
25.38
27.58
29.57
31.68
34.32
37.81
42.54
48.15
54.10
59.83
64.97
69.58
74.14
79.34
85.71
93.76
103.00
112.62
121.73
129.77
136.75
143.30
150.75
157.77
166.64
177.95
191.79
206.97
220.57
228.25
225.36
208.53
176.87
132.76
80.05
23.07
-34.94
-92.44
-149.16
-205.23
-260.37
-313.74
-363.87
-409.83
-450.91
-486.50
-515.74
-537.23
-549.22
-549.96
-538.37
-514.21
-478.67
-433.88
-382.45
-327.02
-269.84
-212.63
-156.66
-102.95
-52.37
-5.90
35.58
71.43
101.35
125.50
144.38
158.69
169.15
176.37
180.75
182.57
182.07
179.51
175.23
169.65
163.18
156.15
148.81
141.30
133.69
126.02
118.33
110.69
103.16
95.80
88.68
81.83
75.25
68.95
62.95
57.25
51.86
46.78
42.03
37.59
33.46
29.63
26.09
22.83
19.86
17.16
14.72
12.55
10.62
8.94
7.47
6.22
5.17
4.28
3.55
2.96
2.48
2.11
1.82
1.60
1.45
1.33
1.27
1.23
1.22
1.24
1.28
1.35
1.43
1.54
1.67
1.82
1.99
2.18
2.39
2.63
2.89
3.18
3.50
3.85
4.24
4.66
5.11
5.61
6.15
6.72
7.35
8.02
8.74
9.51
10.33
11.20
12.13
13.13
14.19
15.31
16.48
17.68
18.89
20.06
21.16
22.16
23.02
23.73
24.30
24.72
25.02
25.18
25.18
24.96
24.42
23.43
21.85
19.51
16.26
12.12
7.14
1.52
-4.41
-10.20
-15.42
-19.73
-22.88
-24.76
-25.41
-24.93
-23.54
-21.50
-19.08
-16.58
-14.30
-12.55
-11.52
-11.23
-11.62
-12.47
-13.41
-14.00
-13.95
-13.28
-12.20
-11.00
-9.92
-9.17
-8.79
-8.44
-7.62
-6.02
-3.77
-1.38
0.59
1.75
1.77
0.57
-1.11
-2.32
-2.45
-1.78
-1.31
-2.19
-5.28
-11.34
-20.59
-32.15
-44.48
-56.38
-67.57
-78.52
-90.01
-103.35
-120.92
-145.40
-177.32
-214.35
-251.43
-282.39
-301.83
-307.55
-296.01
-265.04
-221.42
-175.69
-137.00
-109.24
-91.17
-79.78
-69.93
-58.51
-44.75
-28.98
-10.48
11.14
35.58
61.73
88.99
117.06
145.56
173.56
199.99
224.88
249.10
273.29
296.50
317.38
333.37
341.31
339.06
327.02
308.66
288.56
269.93
242.40
198.52
136.24
60.53
-18.57
-90.67
-148.81
-190.78
-218.26
-233.75
-239.18
-234.28
-218.18
-190.78
-153.17
-107.52
-56.09
-0.07
57.35
111.03
157.07
192.12
214.09
222.66
218.93
205.00
183.24
156.06
126.99
100.00
78.02
62.29
52.20
45.76
40.49
34.35
26.46
17.77
10.43
6.31
6.11
9.06
13.25
16.67
17.89
16.63
13.93
11.58
11.19
13.89
20.24
29.97
41.43
51.09
54.03
45.62
23.96
-8.64
-45.81
-79.43
-102.94
-113.79
-113.89
-107.73
-99.71
-92.10
-84.92
-77.18
-68.40
-59.36
-51.54
-46.09
-42.91
-40.77
-38.00
-33.27
-26.37
-18.20
-10.26
-3.95
0.04
1.98
2.86
3.87
5.84
8.91
12.51
15.73
17.68
17.94
16.71
14.62
12.35
10.28
8.47
6.58
4.12
0.63
-4.01
-9.65
-15.81
-21.42
-26.37
-30.48
-33.69
-36.03
-37.65
-38.59
-39.00
-38.88
-38.33
-37.49
-36.50
-35.86
-35.41
-35.14
-34.93
-34.77
-34.47
-33.88
-32.92
-31.63
-30.10
-28.29
-26.56
-24.63
-22.62
-20.53
-18.59
-17.06
-16.43
-17.04
-18.97
-22.06
-25.00
-27.66
-29.40
-30.45
-30.03
-28.11
-24.95
-20.82
-15.67
-9.21
-1.25
8.34
19.05
29.82
39.03
45.31
47.96
47.28
44.53
41.25
38.84
37.58
36.63
34.44
29.63
21.80
11.92
2.08
-5.55
-9.81
-10.77
-9.34
-6.73
-3.57
-0.49
1.19
-0.10
-5.24
-12.91
-19.08
-18.24
-6.24
16.83
45.02
68.77
79.84
75.31
58.86
38.49
21.92
13.06
10.58
8.90
1.66
-14.16
-36.85
-61.72
-84.21
-102.39
-118.00
-130.41
-135.67
-132.28
-119.95
-99.85
-74.63
-48.21
-25.21
-9.68
-3.31
-5.21
-12.74
-22.18
-30.56
-36.60
-40.76
-43.86
-46.82
-49.95
-53.22
-56.60
-59.80
-62.32
-63.86
-64.45
-63.51
-60.75
-56.20
-49.11
-39.47
-27.57
-14.07
0.25
14.58
29.41
45.22
62.58
81.97
103.11
125.16
146.85
166.97
180.62
188.28
191.63
192.44
191.94
190.47
188.17
185.66
183.82
182.64
181.23
175.70
160.68
132.41
91.09
41.55
-8.91
-53.17
-90.01
-119.51
-142.61
-158.85
-165.45
-159.21
-139.49
-110.20
-78.78
-54.99
-44.01
-45.42
-54.13
-63.28
-67.45
-65.30
-58.40
-49.73
-42.21
-36.89
-33.68
-31.92
-30.70
-29.17
-27.03
-24.09
-20.05
-14.57
-6.90
2.63
12.17
18.66
19.02
11.83
-1.40
-16.49
-28.53
-33.92
-32.00
-26.52
-22.54
-24.85
-35.35
-52.25
-71.54
-89.81
-105.56
-118.98
-130.05
-137.98
-141.47
-139.50
-131.97
-119.76
-104.91
-89.47
-74.78
-59.94
-42.57
-19.62
11.98
51.65
98.22
149.65
203.78
251.98
287.22
305.10
305.28
291.06
267.34
238.85
208.68
178.33
148.35
120.00
94.58
73.37
56.92
44.81
36.16
29.63
23.78
17.36
10.48
3.70
-1.89
-5.41
-6.62
-5.72
-3.50
-1.16
0.14
0.12
-0.98
-2.06
-1.93
0.12
4.35
10.18
16.26
21.13
25.15
27.29
27.92
28.01
28.44
30.25
34.30
40.92
49.56
58.24
63.45
61.18
48.37
24.43
-7.58
-41.69
-71.59
-92.60
-103.22
-104.89
-100.52
-91.23
-79.43
-66.36
-52.33
-38.35
-25.76
-16.85
-11.73
-9.59
-9.09
-8.97
-8.62
-8.03
-8.61
-11.47
-17.45
-26.03
-35.73
-44.59
-50.89
-54.02
-53.97
-52.44
-50.90
-51.24
-54.37
-60.77
-70.95
-81.04
-89.74
-90.06
-79.01
-57.04
-29.22
-0.99
24.02
44.71
61.78
75.98
88.30
96.74
102.10
103.54
100.52
92.87
80.77
64.53
43.69
17.47
-16.74
-51.23
-80.49
-100.48
-110.31
-111.69
-107.12
-99.06
-88.86
-77.84
-66.29
-55.74
-47.13
-40.79
-36.46
-33.42
-31.06
-28.58
-25.83
-22.42
-19.22
-16.90
-15.80
-15.86
-16.67
-17.82
-18.63
-19.01
-18.73
-18.29
-17.96
-17.79
-17.58
-16.81
-16.63
-15.27
-11.91
-6.18
1.64
11.04
21.40
31.96
42.12
51.35
59.54
66.24
71.19
74.25
75.47
75.22
73.85
71.92
70.10
69.22
69.62
71.44
74.64
79.05
84.46
90.39
96.54
102.70
108.87
114.79
120.00
123.86
125.46
126.19
126.60
127.37
129.22
132.75
137.95
143.97
149.24
151.68
149.34
140.52
124.64
102.11
74.06
41.66
5.83
-32.92
-74.10
-116.80
-159.57
-199.98
-235.41
-263.75
-284.30
-298.09
-307.57
-316.07
-327.18
-344.62
-371.19
-407.66
-451.51
-496.40
-532.79
-550.63
-542.71
-507.55
-450.04
-379.05
-304.09
-232.22
-167.11
-109.47
-58.94
-15.67
19.39
44.87
60.73
68.60
71.29
71.39
70.93
70.70
70.44
69.29
66.21
60.98
54.25
46.91
39.28
31.19
20.77
5.81
-12.42
-33.19
-55.17
-77.23
-97.01
-112.27
-118.77
-113.76
-97.04
-70.91
-39.13
-4.87
30.02
64.72
98.63
135.32
177.10
223.55
271.37
316.13
354.83
386.93
413.79
437.37
465.09
502.26
549.66
603.04
655.54
700.57
733.95
753.56
723.53
625.87
467.26
276.88
88.27
-76.69
-210.96
-315.86
-396.06
-456.83
-497.07
-515.43
-514.38
-499.20
-476.13
-450.81
-425.71
-401.05
-376.01
-344.47
-305.72
-262.90
-222.41
-183.25
-147.66
-116.39
-88.30
-60.27
-32.07
-1.33
32.45
66.84
98.18
122.69
139.24
148.57
152.48
156.55
166.06
182.95
205.32
229.38
251.03
268.50
281.94
292.94
306.90
328.72
359.47
395.99
433.07
465.59
490.81
508.07
495.32
441.14
348.44
232.83
113.70
5.20
-86.47
-160.32
-217.56
-256.49
-276.76
-277.04
-257.67
-221.83
-175.26
-125.02
-78.60
-47.89
-41.48
-59.67
-94.17
-132.32
-162.78
-179.52
-182.67
-177.05
-168.65
-161.16
-155.09
-148.67
-140.81
-132.21
-125.13
-121.36
-122.09
-127.42
-136.04
-147.13
-159.90
-175.02
-194.27
-218.77
-247.21
-275.71
-298.11
-301.23
-280.14
-237.91
-185.03
-134.42
-96.39
-71.89
-58.00
-50.11
-43.85
-37.86
-30.43
-19.89
-6.11
11.27
32.01
54.42
76.31
95.65
110.15
120.94
130.81
143.24
161.32
186.83
219.76
259.23
303.77
339.65
356.11
347.74
317.24
273.37
225.80
181.04
142.02
108.67
79.35
53.94
32.60
15.53
2.72
-6.18
-11.79
-14.50
-15.33
-15.58
-15.50
-15.56
-16.17
-17.57
-19.21
-20.01
-16.38
-8.87
1.06
11.89
21.29
27.13
28.27
25.68
22.00
21.61
28.00
42.92
65.34
90.07
108.53
110.74
90.06
45.92
-13.69
-75.37
-123.36
-144.35
-132.53
-91.60
-34.00
27.68
79.11
110.60
118.09
101.79
69.66
35.40
11.02
-1.32
-4.98
-7.55
-8.36
-4.88
3.74
14.28
20.57
19.11
4.59
-23.01
-58.51
-93.30
-121.20
-140.22
-153.78
-166.97
-184.20
-211.92
-252.13
-302.00
-354.49
-402.02
-436.92
-454.64
-451.76
-403.94
-305.83
-174.05
-38.35
77.72
160.54
218.22
254.75
269.55
260.78
223.53
160.30
81.26
0.89
-68.47
-112.94
-126.98
-113.54
-82.34
-46.78
-15.04
10.36
30.61
47.19
61.18
71.15
76.91
80.05
81.45
81.45
80.19
77.12
71.13
61.10
44.75
21.33
-7.54
-38.71
-63.15
-73.80
-66.42
-41.61
-5.07
33.41
64.75
84.26
92.81
96.66
100.80
106.61
112.69
114.99
107.46
86.89
54.92
17.27
-15.91
-37.06
-43.70
-38.78
-28.35
-18.20
-10.86
-5.49
0.40
8.59
18.00
26.11
30.66
30.94
27.69
23.01
19.36
18.20
19.73
22.19
23.93
23.78
21.62
17.29
11.59
5.87
1.55
-0.18
0.90
4.58
10.42
17.70
24.09
27.79
28.02
25.14
20.32
14.68
8.93
3.47
-2.07
-10.07
-21.92
-37.59
-56.13
-76.83
-100.29
-128.22
-162.49
-188.90
-195.77
-175.56
-129.74
-68.26
-4.30
51.26
93.06
121.32
137.63
142.14
132.77
107.51
67.25
17.30
-33.73
-76.88
-98.86
-95.44
-72.75
-41.36
-10.55
15.00
34.76
50.03
61.81
69.73
72.56
68.83
58.69
43.87
26.58
8.11
-11.61
-33.91
-55.74
-77.80
-101.62
-126.73
-149.17
-162.19
-158.87
-135.54
-94.26
-42.59
7.74
46.47
68.59
75.28
71.92
64.81
58.54
54.94
54.02
53.87
53.07
51.20
48.80
46.74
46.33
49.00
54.85
62.12
66.60
63.87
51.45
30.24
4.16
-21.09
-40.13
-49.23
-46.83
-33.70
-12.49
11.81
33.94
47.67
48.27
34.66
10.40
-17.22
-40.68
-54.94
-59.37
-57.01
-52.57
-50.17
-51.71
-55.67
-57.29
-50.92
-32.76
-3.33
31.44
61.75
78.13
75.87
57.24
32.18
12.52
5.54
11.06
22.99
33.83
39.36
39.78
38.27
36.91
34.43
27.52
13.97
-4.36
-21.45
-28.52
-20.89
0.29
28.75
56.00
75.55
84.74
84.94
78.54
66.52
47.82
21.52
-11.08
-45.67
-76.01
-97.27
-107.13
-106.77
-99.47
-89.22
-78.45
-68.13
-58.65
-50.90
-47.60
-51.41
-64.24
-86.08
-114.39
-143.82
-166.99
-176.97
-165.17
-133.58
-90.80
-48.66
-17.40
-2.10
-1.86
-11.12
-23.44
-34.43
-43.69
-52.37
-61.56
-70.80
-78.34
-82.87
-83.41
-80.65
-76.33
-73.13
-72.46
-74.55
-78.34
-82.28
-85.94
-89.11
-92.28
-95.75
-100.16
-105.65
-112.20
-119.25
-125.53
-131.69
-137.19
-141.13
-141.14
-134.94
-120.44
-99.95
-75.34
-46.76
-17.57
11.68
41.06
72.77
108.08
146.65
186.88
227.83
272.03
315.67
356.27
388.70
409.49
416.12
409.15
393.37
377.17
372.82
380.66
399.27
422.96
449.41
478.61
512.67
552.91
573.82
599.10
615.12
614.71
573.42
486.74
368.13
241.50
126.46
29.73
-48.33
-117.24
-178.46
-229.03
-261.66
-273.57
-268.22
-254.20
-239.07
-223.91
-212.78
-206.32
-205.22
-207.68
-212.62
-220.31
-232.22
-249.65
-267.32
-282.20
-290.09
-288.64
-277.26
-259.33
-240.87
-227.97
-223.70
-225.56
-221.08
-198.92
-154.69
-93.01
-24.28
42.14
101.84
154.55
201.98
244.66
281.20
309.68
329.19
340.77
347.12
350.96
353.79
354.48
351.15
341.34
323.75
298.31
265.69
226.78
186.22
146.57
105.81
62.08
14.74
-34.52
-82.61
-126.51
-162.98
-191.67
-213.66
-235.95
-263.94
-299.44
-340.32
-382.73
-424.03
-461.78
-497.79
-534.36
-579.85
-638.68
-708.91
-782.47
-848.78
-899.18
-926.47
-930.60
-867.41
-716.74
-489.50
-225.22
30.69
248.35
402.58
508.30
578.87
623.28
640.20
628.68
594.23
545.39
491.81
439.50
393.31
352.28
315.45
277.33
235.39
190.57
147.00
109.49
78.47
53.98
32.77
13.16
-8.10
-31.51
-56.29
-80.18
-100.73
-120.44
-141.81
-168.59
-203.09
-248.05
-303.33
-367.24
-433.66
-492.46
-536.96
-561.60
-564.70
-548.17
-517.98
-480.04
-441.51
-406.46
-350.72
-265.06
-156.28
-43.65
53.96
117.82
156.58
180.84
198.61
214.55
228.15
236.66
238.97
236.21
230.62
225.54
220.97
214.36
203.08
182.52
151.01
110.83
66.72
23.71
-13.35
-43.03
-65.71
-82.10
-95.30
-108.11
-121.84
-136.26
-150.07
-161.56
-169.41
-172.88
-171.67
-167.26
-161.36
-154.98
-148.07
-139.88
-129.30
-113.40
-90.26
-59.38
-22.63
17.02
56.96
95.65
132.52
167.62
205.19
248.36
298.05
352.13
406.74
458.40
505.12
546.31
582.22
618.68
660.07
707.65
758.30
806.40
846.44
874.66
889.12
855.53
755.91
592.65
389.65
179.02
-13.60
-175.14
-302.90
-399.88
-471.20
-515.21
-534.06
-530.49
-509.21
-476.06
-435.96
-391.83
-344.72
-294.39
-240.18
-183.16
-126.39
-74.83
-33.29
-4.43
11.66
16.57
12.50
4.11
-4.58
-10.87
-14.18
-15.27
-15.12
-14.46
-13.86
-14.14
-15.04
-16.12
-16.90
-17.14
-16.63
-14.99
-11.91
-7.58
-2.95
0.99
3.54
4.40
3.76
2.47
1.77
2.89
6.70
13.39
21.94
30.13
34.45
31.03
16.99
-7.83
-40.05
-72.99
-98.35
-108.82
-101.07
-76.60
-41.43
-4.15
27.29
47.82
56.28
54.84
46.22
34.88
23.59
14.41
8.21
6.81
11.89
22.66
35.10
42.94
40.46
25.31
0.55
-26.48
-47.42
-56.95
-55.54
-47.69
-39.22
-34.11
-33.32
-35.32
-38.12
-40.76
-43.28
-46.27
-48.43
-47.01
-39.46
-25.78
-9.13
5.22
12.24
9.74
-1.56
-17.43
-32.77
-44.02
-50.52
-53.87
-56.45
-60.52
-60.59
-54.86
-43.28
-27.51
-9.99
6.96
22.06
35.42
47.39
58.69
69.04
78.44
86.93
94.52
100.97
105.67
109.67
112.94
115.59
117.41
118.83
120.24
121.87
123.15
123.75
123.76
121.23
114.86
104.26
89.97
71.89
53.16
34.58
16.35
-1.33
-21.77
-46.94
-76.23
-106.62
-134.76
-158.23
-176.27
-188.88
-196.42
-204.12
-216.00
-233.02
-253.41
-275.27
-298.00
-322.49
-350.16
-353.80
-320.46
-256.49
-181.68
-113.22
-58.19
-16.05
16.60
43.08
65.94
82.41
90.52
91.45
88.82
86.25
85.81
88.30
93.29
100.22
105.32
106.07
102.87
98.30
95.16
92.61
92.81
96.30
103.00
110.40
116.52
121.02
124.40
127.45
130.49
133.84
137.31
141.02
144.43
147.59
151.54
157.30
165.95
178.00
193.47
211.27
229.72
246.14
257.31
264.05
265.18
259.58
246.96
228.04
203.68
175.47
145.53
116.09
89.42
66.60
48.81
37.32
33.44
37.62
49.64
68.30
91.44
116.34
139.45
158.12
171.23
179.04
181.95
180.60
175.08
164.54
147.58
121.66
85.31
39.30
-13.63
-71.27
-130.72
-189.21
-244.82
-295.94
-344.91
-395.17
-449.36
-508.22
-572.78
-638.42
-694.72
-728.35
-727.00
-690.82
-629.95
-560.50
-500.41
-469.31
-476.94
-520.59
-587.19
-655.98
-713.91
-752.64
-767.35
-758.96
-739.59
-720.23
-705.98
-695.04
-678.41
-656.48
-633.23
-612.34
-546.05
-410.93
-213.56
11.91
192.20
321.76
405.38
447.51
461.66
455.52
431.26
394.82
354.83
325.81
317.13
319.80
315.60
301.00
278.24
248.14
212.61
175.87
143.81
124.67
118.79
124.43
140.53
163.43
185.53
200.74
206.72
205.51
203.09
201.82
202.67
206.45
211.01
211.81
205.37
191.17
172.28
155.13
145.39
148.30
167.31
201.03
242.95
283.27
311.72
320.67
307.35
273.84
226.84
176.06
130.96
99.11
84.54
87.29
104.41
131.54
165.12
203.34
245.60
290.48
334.26
370.93
393.99
399.92
390.08
370.17
347.71
328.46
314.50
304.44
295.27
285.13
274.53
265.73
259.94
255.95
249.98
237.15
213.64
177.92
131.25
77.14
19.94
-37.74
-94.96
-151.88
-207.77
-259.94
-304.16
-335.51
-350.33
-347.25
-329.83
-305.29
-282.42
-268.61
-268.55
-284.68
-317.84
-367.36
-420.37
-459.17
-467.19
-438.33
-379.19
-303.73
-227.09
-161.25
-112.50
-80.48
-61.68
-51.82
-47.83
-48.08
-51.41
-56.32
-60.36
-60.93
-55.99
-46.20
-34.65
-25.04
-20.19
-20.55
-25.17
-31.05
-35.40
-36.27
-33.78
-29.59
-26.04
-25.03
-27.22
-32.30
-39.48
-48.19
-58.24
-70.27
-85.38
-104.39
-127.30
-152.74
-178.42
-201.64
-219.90
-231.27
-234.72
-230.05
-217.72
-199.11
-176.02
-150.42
-124.29
-99.53
-77.69
-59.98
-47.03
-38.99
-35.49
-35.70
-38.56
-42.97
-48.05
-53.21
-58.27
-63.31
-68.60
-74.45
-80.99
-88.10
-95.49
-102.77
-109.61
-115.83
-121.33
-126.13
-130.16
-133.20
-134.72
-134.20
-131.22
-125.72
-118.16
-109.46
-100.77
-93.06
-86.87
-82.19
-78.77
-76.36
-75.14
-75.76
-79.19
-86.08
-96.27
-108.00
-118.52
-124.88
-124.91
-117.94
-104.83
-87.55
-68.01
-47.34
-25.08
0.40
31.04
68.47
113.82
167.97
231.29
302.50
377.53
450.19
512.91
559.45
587.51
599.68
601.75
599.35
594.64
585.61
570.33
547.62
518.72
486.84
455.37
426.39
400.04
374.98
349.57
327.76
313.99
310.94
317.84
330.52
343.43
352.40
355.71
353.95
356.51
372.04
405.02
453.51
510.32
566.96
617.26
658.64
691.22
726.14
773.37
838.05
918.26
1006.69
1095.60
1180.60
1261.22
1278.46
1192.96
992.35
701.92
372.63
53.65
-226.87
-462.98
-661.59
-831.81
-968.98
-1064.81
-1113.40
-1117.14
-1087.65
-1040.89
-991.10
-947.10
-912.20
-878.52
-838.03
-786.85
-727.72
-668.46
-617.09
-577.21
-546.77
-519.17
-482.30
-427.84
-355.13
-271.44
-188.99
-119.41
-69.32
-40.39
-31.31
-37.96
-57.08
-86.21
-122.54
-162.03
-199.38
-228.91
-246.41
-249.77
-238.32
-213.04
-176.99
-134.35
-89.59
-46.50
-7.43
25.19
48.65
60.36
59.19
47.23
30.44
17.38
13.47
22.82
42.37
63.09
75.37
74.45
61.98
43.66
25.71
11.40
0.78
-8.66
-19.23
-31.22
-42.71
-51.18
-54.47
-50.90
-40.59
-24.80
-6.30
12.01
28.26
41.92
53.19
62.53
71.11
79.74
89.03
99.50
111.76
126.22
142.77
159.48
167.66
160.83
136.86
100.04
59.79
26.07
4.89
-2.38
0.60
7.87
16.98
26.85
35.61
40.28
37.37
24.55
3.02
-25.38
-56.30
-84.40
-105.81
-119.97
-128.85
-136.23
-146.04
-159.50
-177.79
-200.30
-223.85
-236.29
-228.72
-199.24
-155.03
-117.82
-93.16
-80.24
-75.52
-71.46
-65.25
-58.59
-55.43
-60.36
-76.63
-103.27
-138.10
-176.06
-208.98
-227.93
-226.59
-203.09
-161.33
-109.60
-56.22
-9.07
27.78
54.87
75.44
93.00
110.06
127.52
144.72
160.18
169.91
169.14
154.55
126.26
88.74
49.87
18.52
1.61
2.73
21.05
53.15
94.95
142.81
193.54
243.89
289.91
327.28
352.56
364.04
362.65
351.71
335.39
316.74
296.29
272.11
241.37
202.77
157.85
110.78
66.65
29.35
0.14
-22.14
-39.68
-54.17
-65.93
-74.41
-79.58
-82.51
-85.45
-90.85
-100.20
-113.02
-126.76
-137.59
-142.05
-139.17
-130.12
-117.37
-103.27
-89.32
-75.82
-62.14
-47.17
-30.24
-13.12
1.93
13.31
20.67
23.64
20.90
9.67
-12.95
-48.27
-96.51
-152.55
-206.10
-244.87
-260.39
-251.80
-226.53
-196.12
-171.38
-162.26
-173.00
-202.00
-243.19
-288.84
-330.62
-360.58
-371.11
-336.77
-248.31
-120.12
14.95
126.08
199.04
236.89
250.64
252.09
250.09
245.95
238.50
226.29
209.69
189.35
165.25
135.75
100.46
62.53
24.85
-3.62
-15.83
-8.83
9.76
36.03
65.66
94.25
118.00
130.71
125.38
97.89
48.85
-15.84
-86.54
-154.72
-214.09
-260.97
-286.42
-285.24
-258.10
-211.70
-155.01
-95.01
-36.40
14.18
57.98
93.72
117.56
126.21
118.87
97.47
65.26
25.79
-15.06
-47.56
-63.01
-58.18
-36.78
-7.91
18.90
37.18
44.45
42.62
35.81
26.35
14.84
1.38
-14.24
-29.98
-42.08
-47.11
-42.39
-29.02
-14.30
-7.89
-16.24
-39.30
-69.05
-92.74
-99.44
-83.58
-47.01
-0.69
42.26
73.29
90.93
100.06
107.93
113.76
114.75
112.26
101.67
75.56
32.61
-22.65
-83.26
-134.01
-165.65
-170.25
-144.50
-91.51
-17.87
68.70
160.52
251.44
337.09
412.43
472.69
511.86
523.52
505.16
461.31
402.50
342.49
293.96
263.43
251.30
252.52
259.00
263.77
262.78
254.40
238.66
216.31
187.65
153.14
113.03
67.25
16.30
-39.07
-98.12
-159.99
-222.68
-282.48
-333.18
-366.55
-374.56
-352.62
-302.82
-235.43
-166.79
-114.11
-90.53
-101.67
-144.37
-209.04
-283.18
-355.12
-416.68
-463.83
-495.41
-512.28
-516.61
-509.49
-490.61
-458.50
-411.92
-352.08
-283.19
-210.65
-139.70
-74.85
-18.39
28.16
62.65
81.56
80.67
57.87
16.75
-22.24
-37.28
-13.75
46.41
126.75
207.28
273.90
317.52
344.49
362.06
373.66
379.86
379.73
373.00
361.81
348.58
335.42
324.14
314.15
302.66
286.78
264.60
236.28
203.97
170.22
136.92
105.36
74.99
44.15
11.88
-21.53
-54.31
-83.94
-108.54
-127.91
-143.29
-157.99
-176.40
-201.93
-235.35
-273.33
-308.64
-332.02
-335.18
-313.54
-268.25
-206.01
-136.15
-67.60
-6.40
44.85
85.89
117.17
138.49
148.73
145.69
128.57
99.27
62.84
26.29
-3.64
-22.82
-31.25
-33.17
-37.29
-51.54
-79.64
-119.30
-163.38
-202.87
-229.95
-240.38
-234.83
-221.70
-211.59
-213.79
-233.23
-269.45
-317.40
-368.53
-412.46
-439.35
-446.26
-434.28
-407.81
-373.18
-337.57
-307.35
-285.79
-271.78
-237.79
-168.39
-66.77
45.36
142.72
211.30
251.01
270.13
277.96
280.18
274.22
256.26
225.71
187.03
147.85
114.69
90.79
75.78
66.52
56.38
39.68
15.92
-11.17
-35.49
-52.15
-59.02
-56.78
-48.17
-38.46
-31.98
-30.51
-33.35
-37.74
-41.14
-42.18
-40.80
-37.67
-34.29
-31.14
-26.73
-22.70
-18.41
-13.08
-6.74
-0.28
4.84
6.79
4.20
-3.34
-15.63
-31.24
-48.18
-64.73
-79.64
-92.07
-101.29
-106.50
-106.78
-101.65
-90.69
-72.78
-48.19
-18.77
12.45
42.36
68.90
91.44
110.14
125.83
142.35
162.06
184.99
209.11
232.16
253.45
274.23
296.58
322.33
357.26
403.96
460.60
521.49
580.04
631.82
675.60
712.54
745.21
783.34
833.48
895.57
961.54
1018.39
1053.38
1058.43
1032.00
935.87
758.16
515.22
247.86
-0.06
-201.27
-348.85
-448.16
-508.74
-540.01
-543.56
-522.79
-484.76
-439.97
-398.09
-365.64
-344.36
-332.88
-328.68
-323.95
-313.31
-294.89
-270.55
-243.77
-217.31
-192.42
-169.78
-150.52
-130.56
-108.53
-85.39
-64.23
-48.86
-42.25
-45.75
-59.14
-80.77
-105.95
-129.80
-148.02
-158.52
-162.06
-161.65
-161.02
-163.00
-168.73
-177.04
-186.66
-196.85
-207.34
-216.80
-221.51
-216.08
-196.32
-162.73
-122.09
-85.54
-63.29
-59.27
-69.06
-82.39
-89.07
-84.47
-71.35
-57.06
-48.51
-47.84
-51.67
-53.76
-48.94
-35.91
-17.17
3.37
23.19
42.60
64.00
89.62
119.38
150.22
177.23
196.01
204.84
205.19
201.06
196.68
194.47
193.99
192.51
186.58
173.87
154.41
130.27
104.67
80.35
58.41
38.07
17.22
-6.58
-34.83
-67.38
-102.66
-138.26
-172.23
-204.40
-236.89
-273.51
-317.35
-368.13
-420.34
-463.92
-487.36
-482.05
-445.60
-382.28
-301.35
-214.06
-131.43
-62.89
-15.35
8.19
10.48
0.82
-6.71
1.95
34.78
89.38
153.29
208.93
240.32
238.31
202.55
140.08
62.09
-19.08
-92.19
-148.68
-183.86
-197.21
-191.50
-171.26
-141.48
-107.42
-75.36
-52.60
-46.03
-59.03
-88.30
-123.25
-149.42
-154.39
-132.84
-88.15
-29.57
32.51
89.72
136.52
168.37
180.40
168.40
131.98
77.38
17.41
-32.29
-58.75
-56.32
-28.18
15.75
62.96
102.48
127.37
134.98
125.97
103.05
70.27
32.61
-3.85
-31.85
-43.89
-34.09
-0.67
52.10
113.41
168.31
202.09
205.50
178.74
131.46
79.50
39.12
21.59
30.51
62.78
111.89
171.34
236.08
301.59
361.95
408.83
432.89
426.79
388.49
322.60
239.25
150.75
68.24
-0.57
-51.68
-83.86
-97.56
-94.27
-76.56
-48.34
-14.87
17.62
42.72
54.77
50.01
27.35
-11.25
-61.18
-115.88
-168.14
-211.36
-240.72
-254.08
-252.47
-239.73
-220.84
-199.94
-178.56
-154.91
-124.86
-84.26
-31.66
29.85
92.41
145.61
179.57
188.22
170.93
132.33
80.94
26.68
-21.53
-57.71
-79.68
-88.36
-86.34
-76.16
-59.54
-37.60
-11.89
14.64
37.75
53.06
57.88
52.77
41.64
30.17
23.41
23.88
30.95
41.93
53.79
64.52
73.67
82.10
90.93
100.67
110.53
118.61
122.77
121.73
115.99
107.98
101.12
98.53
101.55
109.07
117.76
123.12
120.91
108.49
85.56
54.07
17.34
-21.15
-58.90
-94.84
-129.19
-162.64
-195.79
-228.93
-262.31
-296.30
-330.85
-364.58
-393.81
-412.80
-415.26
-396.70
-356.18
-296.42
-222.64
-140.86
-57.22
21.85
88.77
135.19
153.52
139.71
95.48
28.60
-48.73
-123.35
-184.26
-224.80
-242.81
-239.56
-217.95
-181.08
-131.92
-73.13
-7.58
61.19
128.69
189.58
238.66
272.24
289.39
291.69
283.01
267.50
247.77
223.71
192.89
152.35
100.65
39.40
-27.87
-94.86
-153.94
-197.44
-219.88
-219.83
-200.32
-167.41
-127.44
-86.97
-48.71
-12.69
21.12
49.52
65.29
60.16
29.21
-26.10
-101.59
-187.92
-272.76
-342.71
-386.63
-399.14
-382.34
-345.30
-301.30
-268.29
-257.51
-270.39
-298.99
-332.98
-366.87
-401.84
-442.47
-457.99
-425.40
-336.28
-205.39
-60.51
71.16
171.30
233.92
264.46
275.26
271.53
256.08
225.29
175.15
105.39
21.86
-63.53
-135.65
-181.34
-198.20
-185.19
-150.11
-103.47
-55.02
-11.60
23.83
51.47
72.99
87.37
93.47
90.07
78.62
63.00
47.71
36.13
29.57
27.34
26.36
23.90
18.04
9.43
0.37
-6.62
-10.05
-9.77
-6.71
-2.50
1.68
4.90
7.31
9.66
12.63
16.49
21.31
27.18
34.86
45.48
59.86
78.22
99.83
123.10
145.89
166.41
183.78
198.85
213.44
229.57
248.89
272.04
298.06
324.20
346.30
360.18
364.46
360.63
353.02
347.83
351.15
366.55
393.18
425.19
453.50
471.04
472.81
457.27
426.74
387.01
345.76
310.38
285.83
273.80
276.67
293.76
321.46
354.62
388.51
420.15
448.02
470.72
486.24
496.42
500.93
496.96
480.52
449.33
404.32
349.53
290.04
199.81
71.23
-84.28
-240.29
-370.29
-459.85
-508.69
-525.08
-520.77
-504.17
-478.86
-446.68
-410.40
-375.07
-346.76
-331.58
-333.46
-355.33
-390.58
-422.56
-435.00
-419.59
-378.98
-323.03
-267.19
-220.34
-188.09
-172.96
-173.78
-189.04
-217.55
-258.23
-305.21
-346.13
-367.12
-359.54
-323.48
-266.34
-199.03
-131.37
-73.00
-24.04
15.33
43.77
59.11
60.29
48.12
23.53
-10.68
-50.14
-87.41
-113.31
-121.45
-112.92
-95.86
-80.93
-75.69
-82.03
-97.51
-117.07
-137.02
-155.02
-168.85
-175.14
-168.77
-143.88
-95.56
-25.11
59.49
143.94
211.74
250.27
255.85
235.63
204.31
177.66
166.16
172.25
190.50
211.23
224.76
224.48
207.61
174.75
128.44
72.36
11.37
-49.60
-105.74
-152.81
-186.92
-204.57
-202.37
-178.91
-135.84
-78.12
-13.18
51.06
108.25
154.83
190.10
216.22
235.63
249.87
258.54
259.81
251.30
231.97
203.33
169.35
136.07
107.79
85.55
67.44
50.97
35.99
26.29
28.08
39.46
56.39
70.50
72.66
57.42
25.24
-18.17
-64.34
-105.73
-137.99
-159.07
-170.17
-174.20
-175.18
-177.27
-183.93
-196.53
-213.88
-233.13
-247.96
-252.41
-243.26
-221.47
-192.21
-163.44
-143.15
-136.99
-146.82
-168.31
-192.52
-207.93
-203.96
-175.34
-125.17
-64.84
-9.95
22.84
24.48
-1.99
-42.17
-76.18
-87.55
-70.12
-29.23
22.71
73.22
116.11
152.14
185.29
218.97
252.53
281.15
298.45
300.31
287.84
266.39
241.69
214.63
182.92
143.25
96.13
47.81
8.80
-9.93
-4.05
20.78
49.00
65.44
62.30
42.08
12.99
-16.90
-42.56
-63.09
-79.13
-91.78
-96.93
-88.16
-60.95
-18.44
20.63
35.66
13.42
-28.95
-76.42
-116.68
-148.28
-171.33
-190.11
-210.22
-232.92
-253.88
-264.34
-257.29
-227.90
-176.41
-108.41
-34.45
33.88
88.40
125.51
146.00
151.64
146.79
136.80
126.53
117.85
109.85
101.25
92.38
86.23
86.03
94.66
111.78
133.15
151.34
158.97
152.13
130.97
98.69
59.55
18.84
-17.25
-42.48
-53.22
-51.04
-43.34
-40.84
-52.28
-79.64
-116.37
-150.51
-170.88
-172.57
-158.24
-135.41
-111.42
-90.00
-70.97
-52.57
-34.30
-17.97
-6.50
-1.15
0.15
2.03
8.97
22.53
40.34
57.78
71.11
80.29
89.46
104.45
128.87
161.27
195.20
222.16
235.62
233.60
218.68
195.69
168.94
141.03
113.61
88.86
70.32
62.05
66.48
82.86
106.88
132.18
152.78
164.99
167.52
160.64
144.89
120.89
90.70
59.02
32.42
16.74
13.97
21.18
32.50
42.74
50.40
57.62
67.41
80.20
92.33
97.64
91.06
71.73
43.65
13.31
-13.69
-34.68
-49.57
-58.72
-61.42
-56.18
-42.47
-22.61
-2.59
9.30
5.06
-19.62
-63.30
-119.10
-177.05
-227.33
-263.27
-282.57
-287.17
-282.09
-273.41
-266.73
-265.40
-269.67
-276.89
-281.92
-279.45
-266.17
-241.94
-209.32
-172.36
-135.21
-101.40
-73.61
-52.05
-34.95
-19.15
-1.39
20.03
43.42
62.78
69.30
54.37
15.71
-41.08
-104.09
-158.61
-191.14
-193.23
-163.42
-106.84
-34.01
44.91
121.61
189.83
240.73
265.29
259.93
229.97
194.86
163.54
137.78
113.78
81.56
33.57
-31.32
-105.22
-173.14
-218.33
-229.86
-204.04
-145.56
-65.32
24.06
111.22
186.54
241.52
269.02
265.28
235.03
190.78
148.56
121.27
113.22
118.33
123.66
115.92
87.79
42.05
-10.74
-56.87
-85.09
-90.23
-73.92
-43.05
-8.76
18.65
34.76
38.01
30.52
16.90
2.28
-8.83
-13.30
-10.38
-2.66
4.48
4.03
-7.99
-29.72
-54.85
-76.51
-90.39
-96.08
-95.91
-92.72
-88.27
-82.13
-72.80
-59.41
-42.76
-25.14
-9.69
0.73
4.62
2.32
-3.69
-9.95
-13.49
-13.05
-8.89
-2.41
5.07
13.39
23.67
37.65
56.41
78.24
98.71
113.13
118.30
114.08
103.03
88.53
72.66
55.06
33.71
6.71
-24.74
-56.77
-84.32
-103.57
-113.46
-115.75
-113.60
-106.71
-97.52
-86.72
-74.30
-60.38
-45.67
-31.00
-16.98
-3.81
8.83
21.06
33.47
46.00
58.20
69.54
79.73
88.74
96.68
103.97
110.39
116.00
119.74
120.30
117.12
110.51
101.27
90.33
78.52
66.23
54.13
40.98
25.48
7.98
-9.64
-25.13
-36.63
-42.96
-43.69
-38.60
-30.73
-23.32
-17.52
-12.71
-8.11
-4.03
-2.12
-4.97
-15.83
-36.19
-68.37
-111.34
-160.81
-211.26
-257.91
-297.24
-326.73
-323.32
-276.23
-191.76
-88.96
12.84
102.40
176.15
234.83
279.07
314.24
339.69
354.01
358.10
355.01
347.97
338.53
327.13
313.75
298.73
279.46
254.56
225.39
195.48
168.65
146.96
131.24
121.66
118.56
118.76
119.10
117.64
113.88
107.90
99.03
86.80
71.43
54.44
35.90
16.37
-2.76
-19.39
-31.45
-39.04
-42.37
-41.07
-33.33
-20.22
-3.66
14.13
31.51
46.92
54.66
50.89
35.85
15.72
-8.62
-37.77
-72.93
-113.82
-159.37
-216.60
-288.45
-369.53
-442.75
-502.24
-546.31
-575.79
-590.23
-589.64
-588.89
-598.18
-615.89
-622.90
-618.03
-606.06
-594.32
-586.30
-584.07
-606.95
-666.24
-755.82
-845.30
-925.92
-995.28
-1054.08
-1099.00
-1014.67
-755.48
-376.23
-70.55
143.51
282.08
385.41
463.09
519.73
558.42
565.63
537.55
500.62
493.34
516.33
551.97
579.68
591.30
588.34
563.74
517.04
457.86
408.75
372.44
345.81
324.29
307.84
297.49
284.64
262.98
233.55
207.15
184.93
166.21
149.62
136.06
126.24
115.32
99.37
78.72
59.33
43.39
31.55
22.39
12.59
-0.88
-21.94
-51.05
-84.09
-113.72
-134.72
-144.72
-143.98
-133.76
-115.17
-89.69
-60.08
-30.60
-9.05
-1.42
-9.56
-29.68
-55.43
-79.66
-97.39
-106.94
-109.85
-108.84
-106.35
-104.02
-102.92
-103.58
-106.09
-110.38
-116.39
-123.72
-131.29
-137.72
-141.62
-141.70
-136.92
-126.22
-108.71
-83.37
-53.77
-22.63
7.71
35.38
59.44
79.90
97.61
113.76
129.07
143.59
157.39
170.16
181.60
191.86
201.42
211.19
222.51
236.97
255.99
280.34
308.24
334.47
350.84
348.39
320.59
266.09
189.72
101.20
12.20
-67.22
-130.54
-174.85
-199.50
-204.90
-192.10
-163.36
-122.92
-76.96
-32.58
4.05
29.51
43.91
50.32
53.11
55.96
60.63
66.99
74.15
81.85
91.19
104.17
122.29
145.26
170.61
194.44
212.71
222.23
220.76
206.63
178.48
135.38
77.85
8.28
-69.24
-149.98
-230.10
-307.98
-384.33
-460.85
-538.06
-613.38
-680.66
-731.47
-757.74
-754.86
-723.52
-669.47
-601.24
-527.15
-452.83
-380.83
-311.78
-246.14
-185.36
-131.25
-84.92
-45.62
-11.10
21.35
53.27
84.30
112.73
136.50
154.84
168.90
181.46
195.43
212.79
234.00
258.24
283.99
309.21
331.45
348.12
357.44
359.43
356.71
353.85
355.64
364.88
380.95
400.17
417.60
429.35
433.70
430.59
419.80
399.20
364.49
310.73
235.29
140.68
35.67
-66.13
-150.12
-205.59
-229.51
-227.03
-208.82
-186.42
-167.93
-156.06
-148.96
-142.95
-135.26
-125.18
-113.78
-102.41
-91.52
-80.28
-66.71
-48.16
-21.62
15.06
61.97
115.63
168.39
209.53
228.36
217.38
174.66
104.20
14.88
-81.54
-172.19
-244.90
-290.60
-305.89
-295.33
-271.17
-249.41
-243.12
-256.22
-281.02
-301.55
-300.91
-268.71
-204.65
-117.26
-18.46
81.46
176.61
264.78
345.05
416.13
476.31
525.15
564.69
599.05
631.69
662.46
686.31
695.14
681.62
643.24
584.14
513.61
442.45
378.83
326.33
284.43
250.91
224.08
203.70
190.36
184.21
184.14
187.83
192.76
197.06
199.73
200.38
198.48
192.90
182.03
164.19
138.57
106.17
70.07
34.79
4.87
-16.59
-29.18
-35.30
-39.32
-45.70
-57.18
-73.93
-93.69
-113.25
-130.08
-143.72
-155.79
-169.17
-186.43
-208.85
-236.54
-268.64
-303.01
-335.64
-360.25
-369.29
-357.05
-323.30
-275.35
-226.76
-192.32
-181.64
-195.47
-226.39
-263.56
-298.62
-328.77
-355.18
-378.78
-396.35
-400.10
-381.36
-335.82
-267.19
-186.67
-108.94
-46.32
-4.90
16.26
22.75
21.30
17.42
14.48
13.96
15.86
18.67
18.76
10.65
-11.94
-53.74
-114.66
-188.25
-262.70
-324.83
-365.36
-382.84
-383.42
-376.86
-370.56
-365.22
-354.62
-329.44
-283.23
-216.27
-135.58
-50.72
30.80
105.49
171.85
226.24
260.98
266.69
238.15
179.65
105.40
33.63
-22.21
-59.74
-87.53
-118.13
-158.89
-206.35
-247.77
-268.74
-261.50
-228.88
-181.34
-129.99
-80.45
-31.80
19.15
71.84
119.16
149.91
155.62
136.96
105.10
77.48
69.84
89.34
132.59
188.89
246.50
297.61
339.10
370.28
390.41
398.24
393.72
380.34
364.89
354.62
352.90
357.15
360.22
354.71
337.64
312.06
285.01
262.99
247.90
236.00
220.17
193.81
154.20
103.17
45.52
-13.64
-71.15
-126.60
-181.60
-238.15
-297.23
-358.46
-420.76
-483.00
-544.22
-602.80
-655.31
-696.34
-719.78
-721.02
-698.91
-656.28
-598.38
-530.56
-456.51
-377.69
-294.42
-207.36
-118.59
-31.61
49.46
120.98
180.50
227.36
263.09
291.49
317.54
344.82
373.25
398.04
411.73
408.55
388.94
361.22
338.76
333.93
351.91
388.26
431.52
468.88
491.54
496.60
485.24
459.06
417.98
360.86
288.51
206.70
126.09
59.17
15.41
-2.59
0.30
14.36
28.42
33.92
27.54
11.07
-10.83
-33.19
-52.92
-68.50
-78.62
-81.98
-76.84
-60.98
-33.10
5.33
49.75
92.91
127.90
150.58
158.85
152.15
131.29
97.79
53.70
2.15
-53.03
-108.10
-151.13
-168.86
-155.31
-115.02
-59.04
-1.19
53.19
101.43
141.98
173.84
194.80
200.69
188.75
158.71
112.60
54.49
-11.33
-79.99
-146.00
-205.07
-254.12
-290.84
-313.60
-321.96
-317.01
-302.46
-283.61
-266.05
-254.84
-252.72
-258.76
-268.81
-277.84
-282.51
-283.77
-286.22
-295.89
-317.94
-354.54
-404.06
-461.74
-520.65
-572.46
-608.72
-622.08
-608.08
-567.05
-504.78
-430.98
-356.60
-290.56
-237.21
-196.48
-165.44
-140.35
-118.06
-96.82
-75.81
-55.19
-35.52
-16.31
3.05
22.91
43.15
64.11
86.60
112.82
144.74
182.95
227.52
274.60
316.42
343.60
349.92
335.40
308.34
280.40
261.26
257.62
267.74
282.98
293.77
296.30
293.20
292.66
299.66
312.45
329.46
349.03
371.03
396.75
427.08
457.60
481.20
487.56
440.36
326.43
163.79
-8.25
-155.62
-255.75
-323.57
-375.36
-420.53
-461.31
-492.03
-504.83
-496.04
-467.50
-423.25
-368.07
-302.69
-227.94
-145.93
-56.72
37.10
128.81
209.26
271.09
311.28
334.75
349.43
362.83
381.99
410.01
445.26
483.79
522.27
559.54
597.55
636.59
673.58
703.20
718.55
713.12
683.68
631.38
561.79
483.24
401.52
319.52
238.34
158.63
81.41
9.09
-56.87
-115.46
-166.20
-212.52
-257.78
-302.73
-344.41
-377.86
-397.25
-401.65
-393.02
-375.17
-357.58
-348.84
-352.99
-368.28
-389.54
-409.43
-426.80
-442.78
-459.47
-485.12
-526.42
-584.33
-652.96
-722.87
-782.41
-828.10
-859.55
-839.86
-746.68
-583.42
-380.92
-177.81
-19.13
101.88
196.24
271.07
329.18
366.44
375.76
354.20
306.34
241.16
173.27
113.05
70.44
53.81
62.53
89.77
125.42
160.08
186.59
204.10
212.35
214.51
215.22
215.18
212.92
207.05
197.91
185.60
170.39
148.72
117.73
77.21
29.56
-20.07
-67.41
-106.74
-134.50
-148.56
-149.17
-136.64
-111.69
-76.16
-33.60
11.10
53.54
89.75
117.49
135.24
142.15
137.74
123.88
105.45
89.25
81.57
83.97
91.99
97.45
91.61
68.42
27.41
-25.31
-81.73
-134.69
-180.39
-217.58
-244.90
-251.61
-229.46
-176.04
-97.71
-7.96
78.64
151.51
204.69
242.52
270.13
290.27
303.82
310.45
309.27
299.35
281.24
256.96
229.71
201.88
174.34
147.37
120.78
94.68
70.06
48.81
33.12
24.99
24.62
30.03
37.77
43.67
43.99
36.50
20.91
-1.70
-29.24
-59.89
-92.44
-126.21
-160.90
-196.65
-234.15
-274.49
-318.45
-365.18
-411.45
-451.77
-480.12
-492.58
-489.39
-475.16
-456.85
-440.73
-429.76
-423.07
-417.03
-407.55
-391.94
-369.38
-340.24
-305.05
-264.01
-217.26
-165.78
-111.89
-58.89
-10.56
29.94
60.78
81.69
93.61
98.04
96.30
89.06
76.39
58.07
34.20
5.61
-26.11
-58.86
-90.47
-119.30
-144.40
-165.49
-182.79
-196.62
-207.16
-214.43
-218.30
-218.70
-215.76
-209.90
-201.73
-192.00
-181.37
-170.29
-159.01
-147.69
-136.40
-125.23
-114.25
-103.47
-92.91
-82.48
-72.07
-61.57
-51.00
-40.43
-30.04
-20.06
-10.72
-2.26
5.19
11.52
16.64
20.49
23.11
24.68
25.62
26.59
28.42
31.92
37.77
46.24
57.13
69.82
83.41
97.03
110.02
122.14
133.40
143.97
153.95
163.23
171.53
178.59
184.49
189.79
195.45
202.52
211.80
223.69
238.13
254.79
273.09
292.29
311.42
329.43
345.35
358.70
369.71
379.24
388.13
397.00
405.24
411.88
415.75
416.06
413.20
409.01
406.41
408.01
414.57
423.01
427.66
421.86
401.02
365.18
319.88
274.40
238.34
218.58
215.41
224.67
239.03
250.72
254.00
246.19
227.21
198.73
164.65
125.91
85.26
45.45
8.22
-26.54
-60.66
-96.52
-134.40
-167.14
-189.39
-190.72
-163.93
-110.01
-39.58
30.47
82.06
102.86
96.03
65.88
29.80
5.91
5.95
31.23
74.70
123.82
166.44
202.15
224.35
238.51
250.67
263.55
275.42
284.62
289.06
246.96
210.09
173.92
142.81
120.49
108.22
104.55
110.19
125.22
148.59
183.72
218.58
246.60
260.80
256.14
206.32
104.63
-34.55
-181.29
-301.00
-383.45
-429.31
-448.81
-453.79
-450.05
-440.64
-426.96
-410.85
-392.65
-379.32
-372.69
-372.68
-377.92
-386.73
-394.91
-399.39
-399.15
-393.21
-383.84
-370.16
-350.45
-323.30
-289.27
-250.03
-209.76
-174.75
-151.31
-146.18
-160.47
-192.37
-235.58
-280.14
-314.09
-327.65
-316.72
-283.92
-238.13
-190.69
-152.00
-127.54
-117.31
-116.89
-120.83
-126.58
-132.10
-136.63
-139.11
-138.25
-132.69
-122.20
-108.02
-92.83
-79.76
-71.02
-67.44
-68.10
-71.00
-73.50
-75.48
-77.07
-79.01
-82.19
-86.98
-93.18
-100.01
-106.47
-111.61
-115.20
-117.46
-119.10
-120.78
-122.62
-124.17
-124.45
-122.33
-116.80
-107.54
-94.80
-79.58
-63.38
-47.68
-33.67
-22.06
-12.90
-5.76
0.07
5.52
11.37
18.04
25.67
34.13
43.08
52.10
60.76
68.57
75.08
79.79
82.20
82.08
79.71
75.98
72.26
70.20
71.13
75.78
83.99
94.81
107.05
119.86
133.15
147.61
164.34
184.07
206.57
230.35
253.05
272.38
286.98
297.04
304.32
311.42
321.04
335.72
357.48
387.70
426.65
472.62
521.56
567.83
606.03
633.24
650.29
660.74
668.20
673.49
673.51
662.64
635.98
592.22
534.50
468.84
401.15
334.99
271.22
209.50
150.11
94.99
47.10
9.01
-18.64
-37.66
-51.48
-63.88
-77.60
-93.38
-110.12
-125.57
-137.48
-144.61
-147.29
-147.19
-146.72
-148.26
-153.40
-162.68
-175.90
-192.51
-212.10
-234.48
-259.44
-286.42
-314.30
-341.52
-366.51
-388.37
-407.19
-424.06
-440.69
-459.04
-481.08
-508.40
-541.33
-577.98
-613.51
-640.46
-650.51
-637.19
-598.26
-536.61
-459.28
-374.71
-290.11
-209.79
-135.01
-65.22
0.62
63.34
123.64
182.58
241.67
302.22
364.12
424.88
479.41
520.74
542.25
539.63
512.48
464.48
402.13
332.58
261.69
192.84
127.16
64.85
6.74
-44.73
-85.74
-112.71
-124.52
-123.77
-116.13
-107.56
-101.20
-96.22
-89.37
-78.59
-66.30
-59.54
-66.77
-92.92
-136.10
-188.31
-239.30
-281.34
-311.58
-331.27
-342.80
-347.05
-342.84
-328.12
-302.05
-265.84
-222.19
-173.84
-122.54
-68.55
-11.04
50.99
117.72
187.42
255.89
316.88
363.56
390.95
397.61
386.17
362.06
331.27
297.93
263.36
226.59
186.02
140.99
92.06
40.57
-12.15
-64.63
-115.23
-161.94
-202.22
-233.49
-254.18
-264.88
-268.70
-269.77
-270.44
-270.36
-266.77
-256.32
-237.05
-209.59
-176.72
-142.05
-107.56
-71.64
-30.91
16.34
67.63
115.63
150.34
163.29
150.82
113.70
61.88
11.82
-20.57
-27.58
-12.71
13.21
41.31
66.25
85.18
96.77
98.98
86.79
58.17
16.03
-32.91
-77.36
-108.63
-125.84
-131.89
-131.89
-131.17
-132.59
-136.01
-139.17
-138.63
-131.73
-116.39
-90.32
-52.64
-5.57
45.03
90.31
120.65
128.86
112.30
74.59
25.56
-21.53
-53.77
-61.80
-42.36
1.14
60.11
123.29
180.25
224.22
252.96
267.94
272.91
272.17
269.65
268.97
272.74
281.58
292.92
300.33
295.09
269.43
219.81
148.92
64.85
-22.24
-104.07
-177.07
-242.50
-303.95
-363.99
-421.54
-471.59
-507.11
-521.91
-513.21
-482.67
-435.71
-379.86
-322.83
-271.17
-229.71
-201.28
-186.44
-183.22
-187.13
-191.77
-190.35
-177.45
-150.56
-110.36
-59.90
-3.25
55.48
112.37
163.68
205.91
236.57
255.23
263.97
267.10
269.55
275.00
284.74
297.81
312.16
326.02
338.90
351.43
364.71
379.53
396.02
413.63
431.27
447.23
459.08
464.04
459.59
444.16
417.64
381.25
336.86
286.20
230.48
170.54
107.57
43.57
-18.64
-76.06
-126.49
-169.13
-204.53
-233.99
-258.64
-278.97
-294.94
-306.38
-313.30
-315.85
-313.95
-307.00
-294.09
-274.56
-248.95
-219.28
-188.86
-161.27
-139.33
-124.22
-115.43
-111.61
-111.62
-115.35
-123.92
-138.92
-161.25
-190.27
-223.65
-258.16
-290.93
-320.33
-345.86
-367.36
-383.75
-392.54
-390.43
-374.64
-344.27
-300.82
-247.62
-188.68
-127.95
-69.03
-15.39
29.52
62.62
82.30
89.39
87.69
83.18
82.28
89.83
107.57
133.95
165.13
196.40
223.76
244.50
257.30
261.69
257.71
245.68
226.31
201.03
171.93
141.56
112.39
86.36
64.65
47.74
35.71
28.28
24.87
24.48
25.67
26.73
26.21
23.48
19.06
14.41
11.29
10.86
13.15
17.10
21.11
24.03
25.80
27.44
30.60
36.82
46.83
60.38
76.35
93.00
108.35
120.64
128.60
131.73
130.17
124.45
115.09
102.40
86.68
68.57
49.40
31.05
15.44
3.86
-3.51
-7.52
-9.52
-10.58
-11.17
-11.29
-10.93
-10.59
-11.20
-13.73
-18.52
-24.84
-31.04
-34.99
-35.00
-30.57
-22.53
-12.73
-3.14
4.94
11.28
16.39
20.90
24.97
28.23
30.40
32.08
35.23
42.66
57.08
79.73
109.62
143.87
178.76
211.13
239.16
262.39
280.99
295.13
304.73
309.90
311.49
311.37
312.13
315.95
323.61
333.72
342.73
345.88
338.60
317.90
283.37
237.22
183.47
126.64
70.57
17.57
-31.59
-77.26
-120.25
-161.32
-200.97
-239.60
-277.63
-315.72
-354.54
-394.52
-435.58
-476.97
-517.13
-553.59
-583.05
-601.57
-605.43
-592.16
-561.33
-514.73
-455.84
-388.92
-318.27
-248.56
-185.07
-133.89
-101.02
-90.03
-100.27
-126.64
-161.31
-196.64
-227.24
-250.13
-263.16
-263.50
-247.81
-214.21
-164.93
-107.23
-51.82
-9.03
15.12
20.77
13.33
0.54
-10.80
-16.68
-16.10
-10.06
-0.37
11.74
25.86
42.37
62.14
86.03
114.79
148.84
187.46
228.17
266.79
297.93
316.42
319.29
307.42
286.12
263.33
246.74
240.46
243.88
252.17
258.79
258.56
250.03
236.44
223.65
217.47
220.76
233.27
251.74
271.11
285.96
291.97
287.84
274.17
252.96
226.15
197.43
171.22
151.38
139.37
133.69
132.04
130.89
127.10
117.55
103.51
89.04
79.10
76.55
81.65
94.54
113.20
133.63
147.95
150.50
138.33
112.44
76.64
23.81
-45.06
-122.91
-183.62
-220.10
-235.02
-240.25
-243.71
-249.44
-256.67
-258.60
-247.72
-219.79
-178.96
-133.00
-92.10
-65.21
-58.13
-71.19
-97.67
-128.10
-153.59
-170.33
-176.26
-171.22
-155.75
-131.36
-100.11
-64.18
-27.48
4.67
25.69
32.87
28.75
21.25
20.59
35.36
69.31
119.17
175.97
227.80
265.02
282.18
278.43
255.45
216.01
163.76
103.89
44.07
-6.30
-38.21
-46.79
-33.96
-8.60
16.40
28.98
22.10
-4.39
-44.96
-90.97
-133.87
-167.30
-187.68
-194.31
-188.90
-175.15
-158.39
-144.87
-140.65
-150.45
-176.00
-214.73
-259.30
-299.06
-323.53
-326.78
-310.74
-285.15
-263.98
-259.25
-275.24
-306.13
-338.25
-355.74
-347.11
-309.38
-248.22
-174.65
-100.16
-32.65
24.99
73.40
114.17
147.39
171.15
183.32
183.72
175.45
164.05
154.91
150.50
149.32
147.28
140.52
128.33
113.68
101.53
96.07
98.10
104.56
110.35
110.86
104.05
90.95
74.58
58.08
43.08
29.15
14.52
-2.67
-23.01
-45.55
-67.96
-87.91
-104.25
-117.60
-130.14
-144.58
-162.97
-185.58
-210.46
-233.30
-248.22
-249.26
-232.02
-195.26
-141.57
-76.84
-8.55
56.32
112.92
159.16
195.52
224.15
247.95
269.53
290.38
310.23
326.88
337.02
337.79
328.27
310.25
287.46
264.12
243.47
227.05
214.96
206.50
200.56
195.47
188.81
177.45
158.51
130.79
95.82
57.88
22.74
-4.08
-19.49
-23.62
-19.73
-12.80
-7.70
-7.44
-12.39
-20.63
-29.09
-35.00
-36.82
-34.60
-29.87
-25.18
-23.79
-29.10
-43.95
-69.57
-105.18
-147.65
-192.36
-234.75
-271.52
-301.72
-326.92
-350.64
-376.97
-408.72
-445.49
-482.89
-513.38
-528.63
-523.02
-496.02
-452.62
-401.09
-349.63
-303.51
-264.01
-229.61
-197.84
-166.80
-135.16
-101.83
-65.99
-27.99
9.49
41.50
62.48
69.07
61.96
46.40
30.41
21.69
25.33
42.75
72.28
110.36
152.58
194.22
230.69
258.21
274.88
281.46
281.22
278.67
277.82
280.63
286.39
292.64
296.64
297.02
294.69
292.34
293.16
299.23
310.24
323.36
334.27
338.92
334.99
322.72
304.34
282.91
260.93
239.60
218.86
198.12
177.27
157.26
140.12
128.17
122.65
122.38
123.59
120.94
109.41
86.31
52.35
11.11
-32.82
-75.96
-116.91
-156.08
-194.07
-230.28
-262.56
-288.00
-304.74
-313.42
-317.46
-322.11
-333.10
-355.06
-390.34
-437.97
-493.31
-548.39
-593.59
-620.31
-623.46
-602.96
-563.16
-510.60
-451.45
-389.71
-327.30
-265.35
-205.64
-151.01
-104.53
-67.86
-40.37
-19.44
-1.73
14.98
31.01
44.91
54.58
58.77
57.92
54.04
49.96
48.50
51.80
61.51
78.83
103.81
134.41
166.19
193.19
210.68
217.90
219.33
223.13
237.48
266.71
309.66
361.37
416.11
469.81
520.23
565.30
601.36
623.19
626.17
609.38
577.09
537.33
498.49
466.02
440.89
420.40
400.41
377.36
349.55
317.03
280.69
241.80
201.71
161.67
122.90
86.22
51.69
18.35
-15.46
-51.45
-90.40
-131.48
-172.46
-210.24
-241.85
-265.52
-281.20
-290.38
-295.30
-298.29
-301.29
-305.76
-312.35
-320.55
-328.43
-332.92
-331.15
-322.11
-307.71
-292.27
-280.35
-273.78
-270.02
-262.83
-245.40
-213.79
-168.93
-115.85
-60.67
-7.31
44.02
95.86
150.63
208.18
265.01
315.49
354.45
379.32
391.02
393.21
390.82
388.14
387.72
389.91
393.05
394.29
390.42
378.92
358.53
329.67
293.74
252.89
209.45
165.91
124.29
86.49
54.29
29.34
12.54
3.17
-1.02
-2.90
-4.98
-9.29
-16.79
-27.64
-41.42
-57.59
-76.57
-99.18
-125.72
-154.91
-185.28
-215.07
-242.62
-266.25
-284.74
-299.43
-312.39
-324.77
-334.64
-341.62
-346.45
-351.17
-357.59
-367.20
-384.67
-413.62
-453.07
-494.26
-531.26
-561.48
-586.29
-607.60
-626.24
-646.57
-670.07
-690.09
-689.51
-658.46
-594.81
-505.41
-400.88
-294.61
-208.99
-165.79
-174.33
-224.41
-304.01
-399.00
-496.72
-583.41
-600.71
-512.93
-320.85
-117.34
55.57
183.25
284.29
366.46
435.97
497.45
559.65
595.33
604.81
598.41
579.84
549.08
503.26
444.51
379.15
308.99
233.02
155.32
84.98
24.67
-25.63
-66.71
-94.73
-104.24
-95.57
-74.81
-46.90
-14.27
18.90
50.20
79.12
107.91
137.69
164.42
181.19
186.20
184.42
184.11
193.16
213.73
240.52
261.79
264.03
239.09
190.38
130.92
76.99
41.27
27.84
32.18
44.63
55.34
57.96
51.43
37.97
20.37
-0.37
-25.77
-58.58
-99.80
-146.09
-189.17
-217.86
-222.30
-198.69
-152.15
-96.23
-48.92
-26.51
-37.72
-80.58
-143.19
-208.08
-258.31
-282.79
-278.88
-251.70
-210.92
-167.00
-127.94
-97.81
-76.93
-62.76
-51.07
-37.09
-16.59
12.49
48.45
85.38
114.78
129.06
125.65
109.12
90.10
81.04
91.03
122.13
169.22
223.15
274.61
317.28
348.37
367.54
375.51
373.79
365.42
355.43
349.74
352.57
363.58
376.77
382.12
369.73
333.98
276.14
203.51
126.26
53.29
-10.76
-66.14
-116.54
-166.48
-219.32
-276.11
-335.52
-394.05
-446.33
-485.83
-506.20
-503.22
-476.09
-428.22
-366.45
-299.27
-234.72
-178.37
-132.70
-97.05
-68.68
-43.97
-19.74
5.27
29.90
50.60
62.74
62.78
50.11
27.13
-2.03
-33.36
-63.92
-90.97
-110.62
-116.93
-103.12
-64.54
-2.09
75.81
154.11
214.69
241.84
227.13
172.58
90.63
0.82
-75.75
-122.64
-132.41
-108.37
-62.25
-9.89
34.24
61.04
68.30
59.72
42.18
23.04
7.55
-2.42
-8.72
-15.59
-27.34
-45.71
-68.28
-88.90
-100.17
-96.77
-77.95
-48.00
-14.35
15.91
38.58
53.14
61.18
64.02
61.33
51.48
33.29
7.37
-23.67
-57.03
-91.41
-127.45
-166.14
-206.44
-243.32
-268.27
-272.21
-249.05
-198.79
-127.86
-47.08
31.59
98.41
147.74
178.37
192.61
195.03
191.24
186.89
187.12
195.31
211.96
233.83
253.59
261.91
251.16
219.33
172.38
123.58
88.71
79.94
100.95
145.37
199.65
248.44
279.99
288.78
275.32
244.23
202.22
156.87
115.32
82.93
61.56
48.80
39.03
25.81
4.57
-25.61
-62.18
-100.71
-136.53
-165.67
-184.93
-191.59
-184.55
-166.20
-143.40
-126.59
-125.95
-146.47
-184.60
-228.95
-264.20
-277.08
-261.48
-220.16
-162.48
-100.16
-42.83
4.67
42.32
72.67
98.10
118.70
132.27
136.11
129.69
116.56
103.97
100.25
110.98
136.10
169.69
202.80
227.70
241.22
245.06
243.26
238.55
230.25
215.48
192.55
164.22
138.05
123.30
126.23
146.30
175.86
203.30
218.07
214.42
192.50
156.51
111.29
60.16
5.19
-50.67
-101.76
-139.96
-157.79
-152.55
-128.87
-98.44
-75.90
-72.99
-94.25
-136.28
-190.78
-249.00
-304.64
-353.75
-392.81
-416.96
-420.49
-399.43
-354.73
-293.11
-225.29
-162.20
-111.00
-73.51
-46.94
-26.60
-8.52
9.33
27.42
45.94
65.50
87.14
111.18
136.54
160.46
179.02
188.74
187.75
175.98
154.30
123.71
85.04
40.34
-6.01
-46.61
-72.49
-76.13
-54.62
-11.03
47.06
110.36
170.76
222.29
260.77
282.82
285.88
269.23
235.40
190.26
141.12
93.52
48.62
3.00
-48.32
-107.97
-173.14
-235.40
-283.67
-308.89
-307.90
-284.93
-249.63
-212.73
-181.79
-158.72
-140.54
-122.22
-100.01
-73.21
-43.58
-13.45
15.96
44.54
72.32
97.94
118.53
130.91
133.73
128.68
120.12
113.28
111.89
117.16
127.99
141.82
155.75
166.91
172.20
168.71
154.63
130.72
101.25
73.39
54.87
51.25
63.67
88.19
117.07
141.28
153.25
148.73
127.34
91.81
46.82
-2.12
-49.55
-90.50
-121.06
-138.87
-143.64
-137.47
-124.81
-111.70
-104.12
-106.16
-118.73
-139.70
-165.41
-192.28
-217.69
-239.28
-254.02
-257.68
-245.83
-216.12
-170.21
-113.83
-54.85
-0.27
45.80
82.29
109.72
128.85
140.35
145.63
147.54
149.87
155.48
164.58
174.22
180.19
179.54
172.63
162.93
154.82
150.48
147.86
141.37
125.01
96.48
59.65
23.84
0.26
-3.35
13.44
43.51
75.61
99.60
110.30
108.05
96.14
77.55
52.95
21.56
-16.17
-56.49
-92.59
-117.30
-126.62
-121.74
-108.12
-93.39
-84.01
-83.28
-91.20
-105.95
-125.37
-147.35
-169.09
-184.91
-187.52
-169.91
-128.29
-64.70
12.44
90.42
156.12
200.31
223.11
231.80
237.61
250.77
276.37
312.88
353.74
390.46
416.04
431.25
441.00
451.83
468.36
491.22
517.17
541.12
558.20
565.17
566.50
568.98
579.57
602.44
637.07
678.51
719.34
751.80
738.55
655.06
493.74
270.68
21.01
-216.41
-414.09
-561.73
-662.99
-728.49
-764.77
-776.63
-768.04
-744.42
-713.45
-683.21
-659.06
-641.84
-628.51
-611.05
-583.86
-546.54
-503.74
-461.98
-425.18
-391.96
-357.09
-315.69
-265.27
-209.74
-157.46
-117.14
-93.56
-85.54
-87.18
-91.44
-93.54
-91.33
-85.71
-78.76
-72.27
-66.87
-62.05
-56.56
-49.33
-40.06
-29.13
-17.68
-7.01
2.00
9.30
15.77
23.08
31.34
39.54
45.75
47.71
43.98
34.65
21.38
6.71
-7.14
-19.02
-28.89
-37.33
-44.73
-50.70
-54.19
-54.20
-50.60
-44.40
-37.46
-31.78
-28.93
-29.86
-34.47
-41.69
-49.64
-56.00
-58.81
-57.51
-53.54
-49.57
-47.63
-47.30
-44.81
-34.82
-13.18
20.16
60.18
98.34
125.79
136.70
129.71
107.78
76.58
42.83
12.96
-8.16
-17.82
-16.05
-5.30
10.18
25.86
38.43
45.53
46.69
43.02
36.43
28.87
22.08
17.67
17.06
21.33
30.65
44.29
60.35
75.80
86.80
89.47
80.95
60.71
31.30
-2.04
-32.75
-55.33
-67.56
-71.22
-70.76
-70.91
-74.42
-81.50
-90.79
-101.26
-113.61
-130.23
-153.87
-185.83
-225.29
-269.54
-314.79
-356.34
-388.68
-405.52
-401.10
-372.02
-319.24
-248.60
-169.30
-90.85
-19.80
41.68
95.05
143.01
187.24
227.54
262.13
289.07
306.93
315.03
313.04
301.02
279.95
252.15
221.35
191.64
165.93
144.51
125.08
104.19
79.70
52.76
27.92
11.35
7.64
17.15
35.21
53.90
65.36
65.03
52.82
31.88
5.93
-23.20
-55.64
-91.66
-129.24
-162.63
-184.00
-187.06
-170.95
-141.64
-110.06
-87.07
-78.52
-83.22
-94.76
-106.21
-114.37
-120.67
-128.44
-138.65
-147.11
-145.41
-125.10
-82.57
-21.76
46.93
110.72
159.01
186.46
193.50
184.68
166.33
144.62
124.11
107.21
94.31
84.31
75.79
68.17
62.04
58.63
58.84
62.20
66.68
69.52
68.42
62.84
54.70
47.69
45.85
51.60
64.51
81.13
96.24
104.89
104.22
94.34
77.70
57.86
38.21
20.95
7.09
-3.46
-11.54
-18.35
-25.29
-33.72
-44.52
-57.82
-72.93
-88.53
-103.09
-115.47
-125.74
-135.52
-147.55
-164.05
-184.70
-205.11
-217.00
-210.80
-179.84
-124.27
-52.71
19.68
75.83
102.63
95.25
58.72
6.04
-46.19
-82.61
-93.31
-75.90
-35.50
17.57
70.85
113.30
137.81
141.97
127.88
100.80
67.44
34.48
7.25
-11.08
-19.65
-19.46
-12.41
-0.52
14.27
29.80
43.42
52.21
53.95
48.17
36.88
23.88
13.31
7.63
6.43
6.66
3.84
-6.27
-26.27
-56.44
-94.74
-136.79
-176.82
-208.78
-227.59
-230.49
-217.61
-191.60
-156.79
-118.18
-80.41
-47.11
-20.28
0.17
16.29
31.37
48.57
69.49
93.38
117.50
138.43
153.44
161.57
163.33
160.18
153.55
144.46
133.61
121.73
109.79
98.85
89.81
82.89
77.55
72.46
65.92
56.40
43.28
27.16
9.83
-6.23
-18.77
-26.37
-28.77
-26.64
-21.09
-13.30
-4.31
4.85
13.17
19.66
23.57
24.68
23.19
19.68
14.74
8.83
2.33
-4.35
-10.78
-16.51
-21.21
-24.92
-27.91
-30.67
-33.61
-36.90
-40.35
-43.61
-46.21
-47.79
-48.11
-47.06
-44.62
-40.85
-35.95
-30.33
-24.60
-19.46
-15.43
-12.83
-11.65
-11.65
-12.50
-13.90
-15.56
-17.24
-18.75
-19.96
-20.84
-21.38
-21.57
-21.39
-20.77
-19.70
-18.23
-16.52
-14.79
-13.20
-11.73
-10.17
-8.04
-4.69
0.49
7.96
17.65
28.94
40.76
51.92
61.36
68.37
72.60
73.90
72.20
67.60
60.53
51.87
42.90
35.01
29.34
26.39
25.92
27.10
28.76
29.92
29.98
28.84
26.90
24.81
23.20
22.53
22.97
24.42
26.67
29.38
32.24
35.04
37.75
40.48
43.46
46.78
50.12
52.62
52.92
49.64
41.95
30.07
15.22
-0.74
-15.93
-28.92
-38.96
-45.81
-49.53
-50.34
-48.59
-44.90
-40.16
-35.47
-31.88
-30.11
-30.31
-32.10
-34.67
-37.13
-38.71
-39.01
-37.87
-35.33
-31.60
-27.15
-22.94
-20.34
-20.80
-25.01
-32.31
-40.51
-46.62
-47.96
-43.26
-33.09
-19.51
-4.96
8.66
20.44
30.25
38.17
44.08
47.52
48.23
46.39
42.83
38.69
34.96
31.92
29.04
25.32
19.81
12.19
3.01
-6.55
-15.20
-22.00
-26.73
-29.79
-31.81
-33.36
-34.58
-35.27
-35.12
-34.03
-32.20
-30.10
-28.18
-26.75
-25.80
-25.20
-24.78
-24.54
-24.57
-24.98
-25.62
-26.16
-26.19
-25.47
-24.17
-22.83
-22.20
-22.93
-25.20
-28.62
-32.24
-34.84
-35.16
-32.35
-26.24
-17.59
-7.94
0.79
6.92
9.76
9.85
8.82
8.65
10.84
15.75
22.62
30.03
36.54
41.31
44.15
45.26
44.92
43.24
40.19
35.83
30.51
24.84
19.59
15.31
12.18
10.01
8.36
6.82
5.12
3.23
1.21
-0.84
-2.96
-5.26
-7.86
-10.83
-14.04
-17.27
-20.18
-22.48
-23.85
-24.15
-23.38
-21.70
-19.48
-17.07
-14.83
-12.97
-11.57
-10.52
-9.68
-8.99
-8.39
-8.02
-7.92
-8.10
-8.49
-8.92
-9.16
-9.04
-8.41
-7.11
-5.17
-2.70
-0.05
2.36
4.04
4.66
4.18
2.81
1.04
-0.60
-1.72
-2.14
-1.84
-0.95
0.37
2.02
3.89
5.83
7.66
9.15
10.18
10.73
10.97
11.07
11.24
11.47
11.66
11.63
11.14
10.07
8.35
6.04
3.36
0.58
-2.01
-4.17
-5.85
-7.14
-8.24
-9.33
-10.48
-11.59
-12.49
-13.03
-13.10
-12.63
-11.58
-9.97
-7.90
-5.67
-3.68
-2.41
-2.08
-2.63
-3.67
-4.62
-4.95
-4.41
-3.04
-1.06
1.19
3.42
5.53
7.48
9.43
11.63
14.20
17.06
19.92
22.22
23.34
22.87
20.68
17.01
12.38
7.36
2.41
-2.18
-6.23
-9.57
-12.07
-13.64
-14.29
-14.27
-13.99
-13.99
-14.63
-16.02
-17.93
-19.97
-21.81
-23.23
-24.19
-24.68
-24.58
-23.73
-22.04
-19.62
-16.82
-14.18
-12.16
-10.94
-10.34
-9.97
-9.39
-8.30
-6.66
-4.59
-2.34
-0.19
1.70
3.33
4.84
6.44
8.24
10.21
12.16
13.90
15.22
16.07
16.48
16.52
16.27
15.76
15.02
14.15
13.26
12.45
11.76
11.18
10.64
10.14
9.63
9.08
8.40
7.51
6.31
4.78
2.96
0.95
-1.14
-3.21
-5.15
-6.83
-8.06
-8.63
-8.37
-7.26
-5.47
-3.33
-1.22
0.53
1.74
2.38
2.55
2.39
2.06
1.67
1.31
1.05
1.00
1.26
1.87
2.74
3.69
4.47
4.87
4.83
4.40
3.74
3.03
2.39
1.83
1.29
0.74
0.11
-0.58
-1.30
-1.99
-2.53
-2.81
-2.72
-2.20
-1.29
-0.13
1.12
2.22
2.92
3.08
2.66
1.77
0.69
-0.32
-1.07
-1.46
-1.57
-1.54
-1.50
-1.43
-1.25
-0.82
-0.12
0.77
1.66
2.39
2.79
2.88
2.75
2.52
2.33
2.15
1.96
1.68
1.28
0.80
0.41
0.25
0.38
0.80
1.36
1.87
2.23
2.37
2.37
2.32
2.24
2.06
1.69
1.08
0.29
-0.55
-1.27
-1.78
-2.02
-2.02
-1.84
-1.58
-1.27
-0.97
-0.61
-0.16
0.46
1.23
2.00
2.59
2.78
2.52
1.86
1.04
0.34
-0.02
0.07
0.58
1.38
2.23
2.92
3.26
3.18
2.74
2.01
1.15
0.27
-0.51
-1.05
-1.20
-0.84
-0.02
1.05
2.07
2.78
3.12
3.22
3.25
3.36
3.53
3.56
3.31
2.70
1.79
0.70
-0.45
-1.57
-2.51
-3.16
-3.38
-3.08
-2.36
-1.37
-0.35
0.52
1.19
1.76
2.30
2.85
3.40
3.84
4.11
4.20
4.18
4.14
4.16
4.23
4.27
4.22
3.97
3.49
2.82
2.05
1.26
0.52
-0.23
-1.03
-1.89
-2.84
-3.76
-4.46
-4.79
-4.61
-3.95
-2.89
-1.63
-0.27
0.97
2.00
2.79
3.29
3.55
3.61
3.52
3.33
3.16
3.06
3.05
3.18
3.37
3.45
3.31
2.83
2.04
1.09
0.17
-0.54
-0.96
-1.13
-1.20
-1.28
-1.51
-1.90
-2.44
-3.04
-3.66
-4.26
-4.76
-5.04
-4.95
-4.50
-3.68
-2.77
-2.21
-2.61
-4.64
-8.87
-15.66
-25.13
-37.18
-51.29
-66.50
-81.45
-94.48
-103.95
-108.49
-107.29
-100.17
-87.66
-70.72
-50.65
-28.95
-7.17
13.19
30.86
44.91
54.96
61.11
63.81
63.79
61.83
58.66
54.83
50.77
46.78
43.14
40.09
37.71
35.99
34.78
33.85
32.88
31.67
30.12
28.30
26.36
24.51
22.86
21.42
20.16
18.92
17.58
16.16
14.76
13.51
12.55
11.90
11.41
10.84
9.93
8.52
6.61
4.41
2.16
0.17
-1.37
-2.35
-2.72
-2.43
-1.42
0.32
2.81
5.92
9.38
12.67
15.23
16.55
16.40
14.97
12.70
10.14
7.73
5.64
3.70
1.68
-0.64
-3.36
-6.54
-10.20
-14.19
-18.05
-20.92
-21.81
-20.01
-15.61
-9.89
-5.02
-3.28
-6.02
-12.89
-21.92
-30.25
-35.34
-36.04
-32.81
-27.34
-21.56
-16.87
-13.67
-11.62
-10.10
-8.71
-7.44
-6.46
-5.75
-5.01
-3.71
-1.44
1.82
5.66
9.26
11.74
12.54
11.69
9.67
7.28
5.22
3.83
3.00
2.34
1.34
-0.21
-2.24
-4.32
-5.89
-6.46
-5.78
-3.96
-1.22
2.00
5.37
8.55
11.27
13.27
14.38
14.55
13.81
12.36
10.41
8.21
5.99
3.94
2.32
1.26
0.85
0.94
1.23
1.37
1.14
0.56
-0.06
-0.34
0.01
1.13
2.85
4.87
6.81
8.40
9.57
10.57
11.85
13.98
17.41
22.13
27.52
32.51
35.97
37.26
36.48
34.45
32.44
31.61
32.54
34.97
38.01
40.61
42.03
42.16
41.53
41.45
43.74
50.29
62.36
79.93
101.10
122.33
139.03
146.95
143.63
129.30
106.47
78.38
47.97
17.44
-11.30
-36.32
-55.49
-66.69
-68.09
-59.54
-43.57
-24.18
-5.16
11.41
25.21
36.70
46.36
54.92
62.38
67.15
67.72
63.62
55.99
46.56
36.28
24.99
12.53
-2.26
-22.50
-51.20
-89.91
-137.86
-192.96
-253.37
-317.84
-384.05
-433.43
-446.18
-412.09
-338.80
-244.97
-148.25
-59.66
10.41
66.07
110.08
141.33
157.88
159.57
149.76
134.26
119.89
112.31
115.09
126.55
139.69
145.87
138.58
116.98
86.20
54.32
28.33
11.73
2.43
-5.03
-15.17
-29.28
-44.64
-56.73
-62.50
-62.62
-60.12
-58.75
-60.27
-63.56
-67.32
-70.60
-72.85
-73.06
-69.56
-60.20
-43.59
-19.90
8.87
37.34
60.16
74.84
82.66
86.69
89.28
90.82
90.56
87.26
76.64
53.88
15.70
-38.05
-104.99
-181.29
-262.14
-342.16
-397.74
-408.70
-370.70
-299.41
-217.40
-140.48
-74.68
-20.16
24.91
62.18
89.95
106.06
110.59
107.33
101.45
97.11
96.29
99.39
105.81
112.61
116.81
117.56
117.12
118.62
124.17
133.66
145.86
158.21
166.45
166.72
157.23
139.19
115.15
87.90
59.05
30.05
2.27
-24.35
-50.04
-76.21
-100.71
-121.19
-135.87
-145.04
-149.86
-152.47
-155.51
-160.92
-169.26
-179.28
-189.28
-197.30
-203.02
-206.56
-208.72
-210.82
-214.24
-220.29
-229.93
-243.80
-254.78
-257.31
-244.88
-211.81
-155.80
-79.47
9.60
101.16
185.44
256.15
310.54
349.74
376.33
392.67
400.76
402.67
401.31
399.90
400.74
402.84
402.80
395.89
378.22
349.13
311.73
271.80
235.47
206.88
186.36
171.31
157.28
139.55
114.36
79.78
36.26
-13.44
-64.84
-113.39
-155.81
-191.35
-221.92
-250.30
-277.63
-301.37
-315.25
-311.15
-282.60
-227.59
-150.34
-61.10
26.46
98.46
144.13
158.14
141.14
99.13
41.49
-21.42
-80.59
-129.96
-167.23
-193.78
-213.34
-229.94
-245.63
-258.95
-265.08
-257.70
-231.87
-186.34
-124.32
-51.86
24.17
97.57
162.92
215.20
249.99
265.35
263.86
253.22
244.13
245.67
260.97
285.96
311.64
328.98
333.17
325.23
310.32
294.33
281.04
271.33
264.34
258.85
254.05
249.10
242.74
233.25
219.11
199.96
177.23
153.79
132.81
116.33
104.49
95.61
87.20
77.09
64.26
49.06
32.68
16.30
0.41
-15.37
-32.22
-51.28
-73.19
-97.86
-124.68
-152.96
-181.95
-210.64
-237.35
-260.11
-277.57
-289.96
-299.40
-308.92
-320.40
-333.22
-343.65
-346.53
-338.18
-318.73
-292.41
-265.81
-245.29
-234.70
-235.16
-245.73
-265.02
-292.29
-326.98
-366.93
-406.82
-438.00
-450.43
-436.79
-395.14
-330.60
-254.42
-180.55
-121.10
-82.66
-65.18
-63.27
-70.30
-78.84
-82.04
-75.03
-56.00
-26.49
8.72
42.03
64.40
64.88
37.67
-16.07
-90.03
-175.76
-264.05
-345.23
-409.04
-445.64
-452.00
-427.01
-373.06
-298.58
-218.17
-148.09
-100.65
-80.55
-84.69
-109.53
-144.62
-175.35
-189.15
-180.73
-152.13
-109.97
-61.92
20.85
136.30
257.42
354.41
414.60
440.46
440.72
424.83
402.98
382.30
361.55
340.93
323.12
311.16
305.21
303.86
305.85
311.14
320.35
330.40
341.43
356.82
379.64
408.62
437.81
458.56
462.81
445.92
406.21
349.12
284.87
223.28
169.24
122.30
78.76
34.53
-13.27
-66.84
-125.55
-185.94
-241.92
-285.67
-309.02
-306.02
-275.65
-223.38
-160.87
-101.87
-58.38
-37.16
-38.84
-58.76
-89.28
-122.06
-149.90
-168.03
-174.65
-171.40
-161.65
-149.10
-136.59
-126.02
-118.33
-113.68
-111.21
-108.75
-103.73
-92.05
-69.16
-32.98
13.75
64.05
109.60
144.89
169.33
184.36
194.58
206.03
222.29
242.15
261.00
273.52
276.93
271.19
254.45
227.85
197.09
169.29
148.51
134.69
123.23
106.92
76.53
18.27
-75.04
-197.63
-332.44
-458.06
-554.29
-608.32
-616.65
-556.64
-436.15
-295.84
-179.47
-103.58
-62.53
-38.13
-21.85
-10.45
-0.95
7.26
19.35
44.30
88.07
147.15
210.28
263.82
300.02
319.23
324.73
324.99
331.75
354.44
394.89
447.32
500.24
541.70
562.34
555.63
522.72
472.58
417.37
366.44
323.75
287.96
255.73
223.96
189.90
153.02
114.73
76.37
37.73
-2.70
-46.67
-94.53
-144.92
-195.60
-243.13
-283.83
-314.71
-334.44
-343.85
-345.94
-345.19
-346.43
-353.42
-367.29
-385.87
-404.05
-415.25
-413.41
-394.81
-359.16
-310.03
-254.61
-202.71
-164.72
-148.55
-156.78
-185.16
-223.79
-260.57
-285.53
-293.94
-286.51
-267.04
-239.29
-205.03
-164.81
-119.70
-73.49
-32.34
-2.39
13.51
18.06
19.03
26.22
47.02
83.10
129.41
176.06
212.08
229.19
224.21
199.25
160.26
114.79
69.76
29.81
-3.69
-32.59
-61.25
-94.58
-135.52
-183.16
-232.10
-273.91
-300.19
-305.88
-291.78
-264.99
-237.29
-221.09
-224.73
-248.83
-285.29
-319.67
-336.41
-324.38
-280.50
-210.05
-123.54
-32.56
53.86
130.18
193.41
241.36
272.34
286.28
286.03
277.76
269.03
266.24
271.78
283.31
294.92
299.85
293.79
276.82
253.71
232.22
221.04
226.91
252.08
292.72
339.69
381.49
408.14
414.70
401.74
375.11
343.07
312.54
285.94
260.80
232.38
196.96
154.80
109.07
67.32
39.75
35.97
60.98
112.89
183.32
259.47
326.60
367.74
371.14
333.29
259.44
160.39
49.04
-62.26
-163.33
-248.27
-319.79
-381.45
-435.73
-483.21
-524.75
-562.49
-598.98
-634.73
-645.24
-613.72
-541.48
-449.27
-358.82
-282.45
-223.61
-179.91
-145.13
-108.29
-65.53
-13.26
49.09
119.18
192.60
266.95
331.36
382.28
420.25
421.73
379.13
303.13
214.74
130.97
59.53
1.06
-45.27
-81.60
-112.28
-137.67
-157.23
-170.94
-180.69
-187.88
-193.22
-195.37
-193.46
-188.46
-179.45
-165.68
-147.49
-126.08
-102.22
-76.41
-46.43
-14.43
16.02
42.82
66.08
86.46
103.97
117.47
123.77
122.03
112.65
98.44
85.28
81.12
89.71
106.97
122.25
122.32
102.42
66.09
23.42
-13.02
-31.05
-25.75
-0.70
35.80
74.33
113.53
154.62
197.50
217.48
195.60
131.44
43.15
-32.88
-93.43
-138.50
-168.26
-187.81
-199.58
-202.89
-197.51
-185.40
-170.25
-157.48
-146.55
-135.09
-120.73
-100.82
-71.51
-31.60
15.16
60.48
93.67
110.49
112.35
105.15
97.55
98.45
112.18
136.43
163.88
185.55
197.22
198.32
190.08
174.43
154.40
133.58
115.71
104.34
101.49
107.47
118.74
127.82
126.87
112.19
84.77
48.10
5.39
-41.27
-89.76
-137.14
-179.19
-209.45
-219.40
-203.22
-162.46
-107.39
-52.90
-13.04
2.72
-8.73
-42.23
-83.60
-115.08
-122.42
-99.58
-48.37
24.12
107.88
192.08
250.32
260.40
221.30
153.90
81.19
14.81
-42.81
-88.17
-124.99
-152.56
-166.12
-162.08
-141.93
-111.93
-80.08
-50.78
-24.46
0.39
27.17
60.41
103.23
154.80
209.89
260.89
300.27
321.34
318.93
291.93
244.37
183.72
117.64
51.45
-12.02
-71.16
-124.63
-171.07
-208.20
-233.69
-246.66
-248.56
-242.85
-233.01
-221.06
-207.53
-192.65
-176.73
-160.77
-146.40
-135.10
-127.66
-123.38
-120.23
-115.70
-108.03
-96.47
-81.32
-63.26
-42.74
-19.61
6.64
36.42
68.99
101.63
129.35
145.91
145.16
123.11
79.76
20.37
-44.37
-100.11
-132.04
-129.13
-88.16
-16.01
71.00
151.22
204.44
218.72
194.46
143.85
86.16
40.56
19.17
23.60
45.25
69.79
83.46
78.33
54.43
18.66
-19.23
-50.58
-70.65
-79.24
-79.02
-73.13
-64.36
-56.14
-53.36
-60.38
-78.96
-103.74
-124.29
-131.01
-119.27
-90.68
-52.38
-13.92
16.76
35.67
43.28
42.49
36.53
28.13
19.39
11.98
7.35
6.49
9.15
13.78
17.82
18.99
16.22
10.29
3.07
-3.39
-7.86
-10.46
-12.26
-14.88
-19.44
-25.76
-32.35
-37.22
-38.60
-35.80
-29.53
-21.34
-12.85
-4.87
2.92
11.64
22.37
35.19
48.75
60.71
68.82
71.99
71.04
68.30
66.55
68.00
73.40
81.80
90.96
97.89
99.22
92.01
74.39
46.45
11.41
-24.74
-54.78
-72.77
-76.51
-68.38
-53.96
-38.60
-26.75
-18.97
-12.08
-1.59
14.73
34.72
52.37
61.00
57.03
42.31
23.78
9.56
4.53
7.48
11.70
8.52
-8.16
-38.86
-78.46
-118.60
-152.12
-176.41
-194.06
-210.36
-229.13
-249.44
-265.07
-267.15
-248.15
-205.60
-143.00
-68.81
6.27
72.06
120.32
145.14
142.95
113.17
59.28
-10.24
-82.57
-142.90
-178.43
-182.17
-155.00
-104.89
-43.88
16.03
66.25
103.00
126.77
140.38
147.07
149.35
148.99
147.54
146.70
148.10
152.79
160.76
170.81
180.55
187.26
188.82
184.63
176.27
167.07
160.70
159.30
162.00
164.93
162.60
150.22
125.72
90.58
49.13
7.04
-30.33
-59.09
-77.29
-85.01
-84.02
-77.41
-69.00
-62.56
-61.11
-66.54
-79.53
-99.74
-125.77
-155.09
-184.13
-208.88
-226.01
-233.96
-233.56
-227.67
-219.84
-212.78
-207.29
-202.30
-195.74
-185.67
-170.99
-151.46
-127.28
-98.92
-67.31
-34.33
-2.81
24.39
45.69
61.91
76.36
93.56
117.38
149.36
188.23
230.61
272.36
309.78
340.13
361.63
373.28
374.70
366.14
348.58
323.74
293.97
261.90
230.03
199.98
171.89
144.18
113.87
77.63
33.15
-19.65
-77.87
-135.77
-186.08
-221.95
-239.29
-238.54
-224.98
-207.08
-193.40
-189.29
-194.95
-206.02
-216.12
-219.99
-215.39
-203.03
-184.76
-161.71
-133.83
-100.96
-64.59
-28.70
0.99
18.99
22.28
11.39
-9.90
-36.13
-61.82
-82.68
-96.14
-101.41
-99.52
-93.28
-87.04
-85.76
-93.29
-110.56
-134.48
-158.40
-174.17
-174.87
-157.13
-121.86
-73.29
-17.06
41.37
97.31
146.52
184.85
208.68
216.13
208.38
189.93
167.43
147.57
134.94
131.12
135.09
144.70
157.80
172.79
188.41
203.24
215.47
223.10
224.31
217.80
202.97
180.09
150.42
116.27
80.87
47.89
20.76
1.82
-8.17
-10.23
-7.05
-2.59
-1.23
-6.43
-19.12
-36.55
-52.99
-61.80
-58.73
-44.51
-25.36
-10.83
-9.82
-26.84
-60.31
-103.73
-148.46
-186.80
-213.56
-226.08
-223.55
-206.52
-177.18
-139.74
-100.17
-65.04
-39.65
-26.43
-24.31
-29.48
-37.00
-42.66
-44.15
-41.45
-36.27
-30.93
-27.41
-26.39
-27.48
-29.52
-31.13
-30.80
-26.78
-16.84
1.57
30.15
68.38
112.28
154.51
186.05
198.91
188.73
156.01
105.64
44.86
-18.76
-78.72
-129.84
-167.77
-188.61
-189.28
-168.88
-130.13
-80.05
-28.57
14.26
41.64
52.20
50.09
42.98
38.64
42.16
54.55
73.51
95.28
116.52
135.23
150.56
162.16
169.62
172.50
170.53
163.98
153.46
139.54
122.40
101.85
77.78
50.68
21.86
-6.89
-33.63
-56.77
-75.17
-88.16
-95.83
-99.32
-100.91
-103.44
-109.31
-119.49
-133.24
-148.43
-162.50
-173.50
-180.60
-184.10
-185.04
-184.92
-185.34
-187.71
-192.34
-197.61
-199.65
-193.07
-172.68
-135.60
-82.76
-19.26
46.50
104.71
146.48
166.28
163.78
144.26
117.37
94.08
82.96
87.20
103.92
126.14
146.36
159.98
166.31
167.62
166.69
164.93
162.03
156.95
149.41
140.51
132.30
126.51
123.28
120.84
116.32
107.34
93.54
76.99
61.18
49.14
41.60
36.39
29.29
16.08
-5.38
-34.04
-65.99
-96.11
-119.98
-135.16
-141.45
-140.22
-133.58
-123.68
-112.58
-102.35
-95.05
-92.48
-95.62
-104.23
-116.53
-129.64
-140.44
-146.92
-149.03
-148.83
-149.53
-154.02
-163.32
-175.77
-187.42
-193.31
-189.23
-173.10
-145.40
-108.67
-66.53
-22.62
19.80
57.97
89.51
112.75
127.35
134.84
138.44
142.08
148.83
159.73
173.62
188.01
200.47
209.59
214.92
216.33
213.26
204.70
189.88
169.27
144.94
120.10
98.02
80.80
68.67
60.13
52.72
44.20
33.43
20.86
8.08
-2.90
-10.65
-14.76
-15.83
-15.01
-13.68
-13.45
-16.26
-24.26
-39.15
-61.35
-89.22
-119.13
-146.37
-166.58
-177.03
-177.08
-167.80
-151.36
-130.37
-107.56
-85.63
-67.14
-54.21
-48.19
-49.51
-57.66
-71.56
-89.71
-110.39
-131.64
-151.17
-166.14
-173.27
-169.32
-152.04
-121.19
-79.22
-31.20
16.12
55.95
83.33
96.59
97.81
92.06
85.67
84.12
90.25
103.56
120.77
137.35
149.47
155.27
155.28
151.67
147.01
143.10
140.61
139.35
138.83
138.78
139.12
139.61
139.59
137.89
133.28
124.90
112.69
97.36
80.23
62.80
46.44
32.26
20.97
12.75
6.99
2.18
-3.86
-13.41
-27.97
-47.77
-71.58
-97.27
-122.32
-144.47
-161.69
-172.09
-173.99
-166.28
-149.19
-124.80
-96.98
-70.51
-49.68
-37.00
-32.74
-35.41
-42.79
-52.97
-64.62
-76.73
-87.95
-96.35
-99.69
-96.48
-86.89
-73.05
-58.70
-47.91
-43.85
-47.91
-59.32
-75.26
-91.25
-101.81
-101.64
-87.16
-58.05
-17.80
27.09
69.14
102.52
124.60
136.18
140.10
139.25
135.43
129.34
121.49
113.13
106.21
102.50
102.38
104.28
105.08
101.41
91.06
73.79
51.17
25.83
0.35
-23.48
-44.73
-63.04
-78.12
-89.41
-96.00
-97.00
-92.02
-81.47
-66.69
-49.60
-32.13
-15.71
-1.04
11.79
23.00
32.69
40.76
46.95
51.02
53.01
53.17
51.93
49.63
46.52
42.61
37.85
32.18
25.65
18.51
11.21
4.27
-1.89
-6.99
-11.02
-14.15
-16.65
-18.75
-20.57
-21.94
-22.54
-21.91
-19.81
-16.42
-12.58
-9.56
-8.64
-10.55
-15.07
-21.06
-26.89
-31.13
-33.10
-32.92
-31.32
-29.09
-26.80
-24.66
-22.68
-20.82
-19.12
-17.71
-16.65
-15.86
-15.10
-14.08
-12.54
-10.36
-7.58
-4.39
-1.05
2.21
5.19
7.83
10.25
12.73
15.60
19.10
23.25
27.76
32.12
35.75
38.21
39.29
39.06
37.75
35.52
32.39
28.30
23.30
17.72
12.28
7.84
5.08
4.18
4.75
5.95
6.89
6.93
5.96
4.40
2.94
2.25
2.72
4.41
7.05
10.23
13.58
16.93
20.30
23.77
27.26
30.45
32.71
33.40
32.14
28.92
24.09
18.18
11.59
4.54
-2.81
-10.29
-17.92
-26.31
-36.95
-51.78
-72.01
-96.79
-122.45
-143.19
-153.19
-149.04
-131.41
-104.65
-74.99
-47.90
-26.34
-10.57
0.77
9.11
15.07
18.50
19.27
18.03
16.24
15.69
17.71
22.46
28.91
35.32
40.14
42.67
43.28
43.10
43.29
44.38
46.07
47.44
47.68
46.64
45.08
44.24
45.25
48.51
53.33
58.10
60.73
59.26
52.36
39.68
21.91
0.74
-21.46
-41.99
-58.38
-68.75
-72.13
-68.68
-59.59
-47.05
-33.67
-22.04
-13.96
-10.13
-10.16
-13.02
-17.66
-23.27
-29.34
-35.18
-39.65
-41.21
-38.39
-30.57
-18.38
-3.68
11.03
23.22
31.05
33.76
31.77
26.81
21.56
19.10
21.97
31.26
45.90
62.74
77.50
85.95
85.22
74.55
55.20
29.91
2.04
-25.13
-48.87
-67.21
-79.12
-84.52
-84.24
-79.91
-73.61
-67.33
-62.53
-59.67
-58.24
-57.06
-54.72
-50.17
-43.03
-33.81
-23.55
-13.50
-4.52
3.16
9.99
16.81
24.31
32.73
41.68
50.38
57.97
63.78
67.51
69.27
69.58
69.31
69.54
71.30
75.22
81.19
88.21
94.64
98.51
98.05
92.02
79.85
61.72
38.68
12.69
-13.48
-36.58
-53.62
-62.72
-63.71
-58.13
-48.69
-38.43
-29.95
-25.02
-24.62
-29.13
-38.47
-51.98
-68.39
-85.72
-101.68
-114.10
-121.43
-123.08
-119.52
-112.00
-102.36
-92.73
-85.10
-80.86
-80.19
-81.67
-82.36
-78.39
-66.16
-43.58
-11.07
28.11
68.41
103.24
126.66
134.99
127.80
107.97
80.75
52.24
27.88
11.27
3.91
5.45
14.37
28.39
44.82
60.62
72.79
79.03
78.43
72.02
62.55
53.50
47.77
46.46
48.61
51.87
53.73
52.81
49.42
45.17
41.89
40.58
40.93
41.46
40.42
36.48
29.29
19.59
9.06
0.02
-5.16
-4.72
1.71
12.67
24.85
34.01
36.32
29.62
14.10
-7.93
-32.95
-57.42
-78.50
-94.43
-104.24
-107.57
-104.59
-96.16
-84.02
-70.67
-58.92
-50.96
-47.70
-48.52
-51.58
-54.85
-57.05
-58.15
-59.18
-61.43
-65.47
-70.47
-74.32
-74.31
-68.30
-55.66
-37.74
-17.79
-0.25
10.41
11.05
1.24
-15.82
-33.70
-44.33
-40.77
-19.94
15.91
59.77
102.27
134.86
152.39
154.01
142.42
122.30
98.55
75.28
55.50
41.03
32.56
29.64
30.80
33.85
36.31
35.95
31.23
21.73
8.20
-7.50
-22.84
-35.35
-43.20
-45.78
-43.74
-38.58
-32.08
-25.64
-19.93
-14.89
-10.04
-4.85
0.95
7.24
13.71
19.96
25.63
30.38
33.82
35.61
35.77
35.16
35.55
39.34
48.48
63.35
82.00
100.30
113.09
115.86
106.13
84.02
52.00
13.95
-25.93
-63.76
-96.39
-121.38
-137.08
-142.66
-138.38
-125.71
-107.30
-86.71
-67.72
-53.57
-46.21
-46.02
-51.89
-61.76
-73.36
-84.74
-94.53
-101.76
-105.67
-105.52
-100.80
-91.56
-78.80
-64.30
-50.15
-37.83
-27.51
-17.96
-7.19
6.52
23.76
43.64
64.15
82.95
98.10
108.44
113.61
113.89
110.07
103.43
95.46
87.65
81.02
75.88
71.80
67.98
63.67
58.51
52.48
45.76
38.45
30.54
22.03
13.11
4.17
-4.17
-11.40
-17.20
-21.49
-24.36
-25.94
-26.32
-25.60
-23.92
-21.58
-19.05
-16.81
-15.31
-14.79
-15.20
-16.17
-17.10
-17.30
-16.27
-13.83
-10.25
-6.13
-2.19
0.96
3.00
3.98
4.24
4.25
4.39
4.80
5.40
5.86
5.86
5.10
3.53
1.22
-1.62
-4.75
-7.94
-10.94
-13.50
-15.35
-16.36
-16.56
-16.21
-15.67
-15.25
-14.97
-14.56
-13.65
-11.98
-9.64
-7.17
-5.41
-5.20
-6.96
-10.45
-14.65
-18.02
-18.86
-15.96
-9.00
1.22
12.99
24.29
33.33
39.08
41.29
40.41
37.24
32.74
27.84
23.38
20.00
18.02
17.34
17.51
17.88
17.84
16.96
15.03
11.99
7.87
2.73
-3.23
-9.66
-16.05
-21.81
-26.48
-29.81
-31.81
-32.75
-32.98
-32.83
-32.58
-32.34
-32.14
-31.95
-31.70
-31.23
-30.38
-28.95
-26.81
-23.95
-20.53
-16.84
-13.13
-9.53
-6.01
-2.50
1.06
4.58
7.96
11.09
13.96
16.72
19.52
22.43
25.34
27.95
29.88
30.86
30.70
29.32
26.61
22.53
17.13
10.71
3.91
-2.40
-7.44
-10.77
-12.53
-13.39
-14.22
-15.74
-18.18
-21.28
-24.37
-26.65
-27.50
-26.62
-24.05
-20.08
-15.01
-9.13
-2.71
3.96
10.51
16.59
21.92
26.52
30.62
34.59
38.77
43.12
47.20
50.15
50.95
48.66
42.79
33.40
21.18
7.32
-6.74
-19.65
-30.31
-37.98
-42.28
-43.14
-40.76
-35.76
-29.11
-21.98
-15.40
-9.87
-5.29
-1.07
3.47
8.67
14.32
19.75
24.11
26.76
27.46
26.42
24.12
21.11
17.82
14.45
11.01
7.44
3.73
0.12
-2.95
-5.02
-5.78
-5.39
-4.52
-4.02
-4.62
-6.65
-9.90
-13.82
-17.73
-21.02
-23.10
-23.53
-21.96
-18.70
-14.88
-12.50
-13.66
-19.37
-28.59
-38.24
-44.29
-43.55
-35.20
-21.07
-4.81
9.86
20.53
26.57
28.64
27.81
24.94
20.59
15.43
10.51
7.03
5.89
7.25
10.43
14.24
17.51
19.36
19.42
17.80
14.94
11.66
8.93
7.66
8.30
10.65
13.84
16.73
18.44
18.68
17.90
16.93
16.57
17.19
18.53
19.77
19.88
17.98
13.70
7.41
0.12
-6.73
-11.74
-14.07
-13.63
-11.27
-8.43
-6.81
-7.93
-12.64
-20.81
-31.25
-41.93
-50.55
-55.20
-54.88
-49.71
-40.66
-29.03
-16.00
-2.41
11.21
24.43
36.68
47.30
55.76
62.16
67.26
72.29
78.29
85.33
92.19
96.49
95.64
87.83
72.58
50.45
22.46
-10.09
-45.14
-79.22
-107.41
-124.40
-126.61
-114.13
-91.12
-64.34
-40.31
-22.77
-11.80
-4.94
0.65
6.36
11.65
15.06
15.60
13.62
10.60
8.32
7.81
8.90
10.46
11.03
9.76
6.81
3.17
0.09
-1.60
-1.82
-1.25
-0.91
-1.63
-3.67
-6.66
-9.81
-12.27
-13.60
-13.75
-13.10
-12.16
-11.24
-10.31
-9.05
-7.06
-4.10
-0.38
3.58
7.03
9.32
10.14
9.62
8.29
6.85
5.92
5.88
6.71
8.18
9.85
11.33
12.33
12.69
12.41
11.59
10.39
9.05
7.84
6.96
6.55
6.55
6.77
6.92
6.77
6.22
5.34
4.33
3.41
2.78
2.51
2.57
2.80
3.05
3.09
2.77
2.04
0.95
-0.37
-1.78
-3.20
-4.57
-5.82
-6.84
-7.51
-7.72
-7.53
-7.13
-6.74
-6.45
-6.22
-5.87
-5.37
-4.93
-4.96
-5.94
-8.05
-10.99
-14.04
-16.31
-17.11
-16.21
-14.00
-11.24
-8.82
-7.45
-7.45
-8.74
-10.87
-13.18
-14.98
-15.83
-15.60
-14.58
-13.40
-12.77
-13.31
-15.23
-18.32
-21.88
-25.06
-27.09
-27.52
-26.30
-23.78
-20.44
-16.82
-13.32
-10.16
-7.43
-5.07
-3.01
-1.17
0.51
2.02
3.34
4.39
5.11
5.44
5.35
4.78
3.69
2.12
0.27
-1.51
-2.69
-2.82
-1.60
0.91
4.29
7.80
10.54
11.64
10.42
6.60
0.42
-7.33
-15.36
-22.23
-26.63
-27.82
-25.78
-21.13
-14.93
-8.29
-2.24
2.48
5.38
6.22
5.09
2.39
-1.08
-4.37
-6.60
-7.31
-6.58
-4.98
-3.24
-2.00
-1.56
-1.92
-2.87
-4.23
-5.82
-7.51
-9.07
-10.13
-10.23
-8.99
-6.25
-2.24
2.50
7.31
11.65
15.20
17.90
19.77
20.77
20.71
19.36
16.68
12.96
8.85
5.16
2.55
1.34
1.46
2.63
4.59
7.22
10.58
14.64
19.20
23.78
27.75
30.50
31.70
31.36
29.83
27.67
25.41
23.42
21.77
20.25
18.47
16.08
12.86
8.85
4.33
-0.28
-4.50
-7.90
-10.14
-11.01
-10.44
-8.56
-5.60
-1.87
2.32
6.70
11.04
15.03
18.30
20.35
20.71
19.15
15.87
11.48
6.99
3.45
1.73
2.19
4.69
8.65
13.26
17.75
21.42
23.78
24.33
22.57
18.08
10.90
1.78
-7.65
-15.11
-18.29
-15.62
-7.02
5.89
20.10
32.11
39.00
39.33
33.42
23.23
11.65
1.60
-4.68
-6.12
-2.87
3.88
12.25
19.99
24.88
25.11
19.64
8.53
-6.86
-24.20
-40.74
-54.07
-62.79
-66.68
-66.53
-63.61
-59.30
-54.78
-51.05
-49.09
-49.85
-54.02
-61.66
-71.74
-82.04
-89.78
-92.60
-89.51
-81.26
-69.84
-57.29
-44.58
-31.23
-16.22
0.45
16.86
29.60
35.62
34.33
28.53
23.38
23.95
32.63
48.03
66.10
82.44
94.36
101.46
104.75
104.90
101.27
92.18
76.01
52.89
25.10
-3.72
-29.97
-51.31
-67.13
-77.66
-82.54
-81.20
-73.13
-59.00
-40.87
-21.74
-4.58
8.46
16.71
20.90
22.33
22.81
23.71
25.87
29.44
34.16
39.54
45.15
52.23
59.97
67.62
74.36
79.15
80.79
78.25
70.96
59.08
43.72
26.25
8.59
-7.37
-20.20
-29.13
-34.04
-35.35
-33.80
-30.22
-25.74
-21.37
-17.93
-15.93
-15.50
-16.23
-17.28
-17.62
-16.16
-12.67
-7.52
-1.59
4.08
8.48
11.02
11.61
10.62
9.01
7.03
4.48
1.12
-3.01
-7.55
-11.59
-13.95
-13.42
-8.42
0.87
13.09
26.62
39.95
51.64
60.70
66.36
68.56
69.17
68.65
66.25
60.47
49.46
31.76
7.76
-20.67
-50.34
-76.83
-100.31
-124.98
-156.51
-191.40
-220.19
-230.73
-216.06
-187.32
-147.19
-99.25
-49.66
-2.22
36.97
62.57
71.36
61.13
32.62
-6.03
-41.73
-60.47
-54.87
-29.33
-1.78
12.35
2.44
-32.68
-82.32
-131.21
-162.45
-164.91
-137.19
-87.37
-28.23
27.21
70.78
101.46
120.89
130.69
131.26
123.08
108.37
92.13
80.08
76.73
84.33
100.62
117.54
126.63
124.38
113.81
102.07
97.50
101.37
111.89
125.42
138.42
146.10
147.00
142.00
133.70
124.97
117.94
114.06
113.27
114.09
114.26
111.94
105.65
94.43
77.99
56.77
32.52
7.68
-15.32
-34.57
-49.03
-59.12
-66.28
-71.84
-75.95
-76.84
-71.86
-58.95
-38.15
-12.05
14.49
35.77
47.40
47.43
36.90
18.69
-3.78
-28.05
-53.24
-80.33
-111.64
-149.35
-194.11
-243.74
-292.97
-334.48
-361.08
-368.14
-355.87
-329.81
-299.11
-273.47
-259.70
-259.78
-270.47
-284.87
-294.56
-292.38
-273.72
-236.87
-182.97
-115.83
-41.52
32.67
99.78
154.87
195.39
221.88
237.59
247.26
255.08
263.03
270.84
277.06
280.24
278.33
270.10
255.57
236.44
215.27
194.29
174.96
157.88
142.59
125.42
101.37
65.84
17.22
-43.03
-111.32
-183.16
-254.15
-308.48
-331.54
-317.59
-275.01
-218.94
-161.61
-108.67
-61.01
-17.67
22.20
55.15
80.66
97.91
107.26
109.91
106.84
98.14
83.29
61.65
31.41
-8.03
-53.07
-95.27
-125.44
-138.11
-132.90
-113.01
-83.00
-48.79
-15.99
10.07
25.73
29.56
22.54
7.92
-9.85
-26.57
-40.06
-49.43
-55.09
-57.35
-56.23
-52.03
-45.09
-35.76
-24.71
-13.10
-1.40
9.85
20.37
30.12
39.30
48.60
59.28
73.34
89.21
107.20
127.59
149.82
172.01
191.03
203.40
206.40
199.11
182.63
160.26
135.66
111.64
89.64
69.85
51.85
35.23
19.84
5.56
-7.35
-19.03
-29.86
-40.08
-49.59
-57.88
-64.19
-67.85
-68.67
-66.71
-62.64
-57.40
-51.79
-46.29
-40.88
-35.23
-29.03
-22.31
-15.37
-8.90
-3.62
-0.02
1.84
2.27
1.90
1.35
1.07
1.23
1.66
1.85
1.24
-0.57
-3.57
-7.30
-11.02
-14.04
-15.92
-16.62
-16.35
-15.37
-13.84
-11.86
-9.55
-7.07
-4.40
-1.12
3.47
9.96
18.34
27.60
35.89
41.15
41.87
37.73
29.53
18.78
7.11
-4.14
-14.01
-21.86
-27.20
-29.73
-29.42
-26.63
-22.10
-16.73
-11.44
-6.94
-3.69
-1.73
-0.82
-0.47
-0.31
-0.21
-0.22
-0.46
-0.84
-1.01
-0.21
2.32
7.29
14.91
24.82
36.16
47.85
58.84
68.29
75.87
81.38
85.09
87.17
87.70
86.63
84.00
79.76
73.77
65.98
55.79
42.76
26.40
6.44
-16.79
-42.26
-68.37
-93.20
-114.27
-130.82
-140.43
-140.83
-131.55
-114.38
-92.42
-68.90
-46.65
-25.04
-4.73
13.58
29.03
41.08
49.79
55.96
61.16
63.19
62.18
58.33
52.45
45.17
36.97
28.31
19.77
11.86
4.92
-0.34
-4.04
-6.38
-7.78
-8.61
-9.07
-9.02
-8.28
-6.92
-4.80
-2.42
-0.36
0.81
0.74
-0.58
-2.90
-5.84
-9.12
-12.34
-15.37
-18.10
-20.37
-21.98
-22.77
-22.80
-22.25
-21.54
-20.87
-20.38
-20.07
-19.84
-19.52
-19.05
-18.43
-17.62
-16.61
-15.35
-13.89
-12.44
-11.30
-10.71
-10.67
-10.96
-11.15
-10.80
-9.66
-7.75
-5.40
-3.08
-1.23
-0.10
0.28
0.10
-0.38
-0.99
-1.61
-2.37
-3.36
-4.60
-5.99
-7.31
-8.29
-8.74
-8.59
-7.86
-6.72
-5.33
-3.85
-2.43
-1.25
-0.40
0.09
0.30
0.41
0.56
0.91
1.59
2.61
3.90
5.33
6.68
7.65
8.05
7.73
6.72
5.21
3.41
1.52
-0.22
-1.66
-2.68
-3.20
-3.31
-3.10
-2.69
-2.15
-1.47
-0.61
0.40
1.45
2.38
3.04
3.42
3.62
3.86
4.33
5.11
6.02
6.71
6.76
5.81
3.81
1.11
-1.65
-3.68
-4.40
-3.55
-1.30
1.89
5.53
9.24
12.82
16.13
18.94
20.86
21.46
20.40
17.72
13.89
9.59
5.63
2.63
0.83
0.10
-0.03
-0.15
-0.83
-2.43
-4.93
-7.88
-10.46
-11.76
-11.08
-8.24
-3.61
1.96
7.50
12.15
15.43
17.24
17.70
17.00
15.07
11.71
6.63
-0.19
-8.25
-16.56
-23.91
-29.43
-32.88
-34.62
-35.11
-34.30
-31.40
-25.11
-14.51
0.19
17.30
33.98
47.33
55.37
57.68
55.23
49.84
43.27
36.79
31.09
26.31
22.18
17.75
11.15
-0.00
-17.56
-41.25
-67.67
-90.63
-103.39
-101.50
-85.11
-59.02
-30.85
-7.88
5.47
8.52
3.36
-7.03
-20.10
-34.11
-47.41
-58.03
-63.78
-63.40
-57.42
-48.26
-39.31
-33.13
-30.16
-28.53
-25.08
-17.08
-3.62
13.92
32.72
49.77
62.94
71.36
75.08
74.59
70.39
63.07
53.33
42.12
30.54
19.60
10.17
2.86
-1.87
-3.71
-2.50
1.50
7.61
14.64
21.14
25.63
26.93
24.49
18.46
9.77
-0.13
-9.47
-16.67
-20.66
-21.18
-18.70
-14.14
-8.42
-2.22
4.06
10.20
15.85
20.57
23.81
25.18
24.41
21.59
17.05
11.45
5.66
0.63
-2.82
-4.23
-3.70
-1.87
0.37
2.20
3.16
3.25
2.84
2.36
2.20
2.48
3.10
3.85
4.49
4.86
4.87
4.52
3.85
2.89
1.67
0.32
-1.03
-2.15
-2.81
-2.90
-2.48
-1.85
-1.35
-1.24
-1.58
-2.16
-2.67
-2.88
-2.75
-2.43
-2.19
-2.29
-2.78
-3.62
-4.65
-5.69
-6.54
-7.09
-7.15
-6.63
-5.52
-3.92
-2.08
-0.29
1.21
2.28
2.92
3.25
3.41
3.50
3.56
3.46
3.14
2.53
1.73
0.89
0.23
-0.19
-0.46
-0.74
-1.28
-2.11
-3.05
-3.74
-3.79
-3.06
-1.66
-0.02
1.37
2.10
2.03
1.28
0.18
-0.89
-1.69
-2.03
-1.95
-1.55
-1.04
-0.62
-0.47
-0.68
-1.16
-1.72
-2.02
-1.78
-0.75
1.16
3.82
6.88
9.82
12.17
13.60
14.04
13.66
12.79
11.76
10.70
9.63
8.44
7.04
5.42
3.61
1.63
-0.43
-2.52
-4.56
-6.38
-7.83
-8.72
-8.89
-8.31
-7.02
-5.30
-3.50
-2.05
-1.23
-1.21
-1.96
-3.28
-4.86
-6.38
-7.57
-8.26
-8.36
-7.86
-6.82
-5.36
-3.58
-1.67
0.17
1.67
2.62
2.90
2.59
1.94
1.22
0.66
0.34
0.24
0.25
0.31
0.42
0.64
0.98
1.38
1.68
1.71
1.40
0.90
0.44
0.31
0.58
1.11
1.58
1.70
1.34
0.65
-0.09
-0.65
-0.99
-1.20
-1.45
-1.65
-1.53
-0.76
0.86
3.17
5.69
7.83
9.11
9.25
8.34
6.68
4.58
2.36
0.22
-1.75
-3.55
-5.32
-7.25
-9.48
-12.03
-14.70
-17.10
-18.73
-19.16
-18.15
-15.79
-12.54
-9.03
-5.94
-3.75
-2.48
-1.84
-1.34
-0.54
0.72
2.28
3.90
5.28
6.20
6.68
6.71
6.31
5.52
4.49
3.49
2.87
2.93
3.74
5.18
6.84
8.24
8.99
8.85
7.81
6.08
3.93
1.73
-0.19
-1.64
-2.53
-2.81
-2.49
-1.62
-0.24
1.46
3.19
4.65
5.48
5.50
4.76
3.44
1.83
0.17
-1.34
-2.68
-3.86
-4.93
-5.93
-6.83
-7.55
-7.95
-7.91
-7.40
-6.56
-5.55
-4.56
-3.67
-2.79
-1.83
-0.71
0.49
1.54
2.14
2.13
1.48
0.34
-1.01
-2.29
-3.31
-3.88
-3.99
-3.66
-2.97
-2.10
-1.24
-0.58
-0.21
-0.12
-0.23
-0.45
-0.67
-0.79
-0.68
-0.26
0.51
1.55
2.69
3.75
4.47
4.78
4.66
4.23
3.60
2.86
2.07
1.26
0.44
-0.39
-1.17
-1.86
-2.44
-2.88
-3.11
-3.02
-2.40
-1.08
0.96
3.46
5.98
7.93
8.87
8.62
7.33
5.41
3.32
1.44
-0.08
-1.24
-2.06
-2.49
-2.51
-2.04
-1.10
0.19
1.61
2.93
3.93
4.52
4.72
4.47
3.74
2.44
0.57
-1.73
-4.18
-6.37
-7.90
-8.50
-8.11
-6.83
-4.88
-2.52
-0.06
2.21
4.00
5.03
5.14
4.38
2.98
1.25
-0.55
-2.19
-3.64
-4.84
-5.78
-6.38
-6.58
-6.37
-5.91
-5.47
-5.23
-5.34
-5.80
-6.48
-7.22
-7.86
-8.23
-8.22
-7.73
-6.68
-5.12
-3.22
-1.17
0.87
2.75
4.40
5.80
6.86
7.45
7.44
6.81
5.67
4.27
2.88
1.72
0.91
0.51
0.53
0.93
1.71
2.83
4.09
5.29
6.20
6.70
6.74
6.42
5.86
5.19
4.45
3.64
2.80
1.96
1.14
0.36
-0.44
-1.33
-2.30
-3.20
-3.78
-3.81
-3.14
-1.87
-0.33
1.11
2.14
2.64
2.69
2.48
2.22
2.06
2.05
2.14
2.28
2.44
2.64
2.91
3.26
3.68
4.05
4.34
4.48
4.48
4.36
4.21
4.02
3.63
2.68
0.59
-3.24
-9.35
-18.00
-29.13
-42.22
-56.35
-70.26
-82.58
-91.92
-97.12
-97.35
-92.28
-82.12
-67.63
-50.09
-31.04
-12.14
5.15
19.80
31.27
39.53
44.88
47.90
49.16
49.20
48.48
47.25
45.69
43.81
41.55
38.91
35.92
32.65
29.31
26.22
23.60
21.59
20.13
19.00
17.92
16.67
15.22
13.76
12.60
11.93
11.85
12.15
12.49
12.51
12.01
10.98
9.59
8.11
6.60
5.13
3.65
2.11
0.52
-1.00
-2.26
-3.07
-3.29
-3.03
-2.44
-1.83
-1.45
-1.44
-1.81
-2.47
-3.31
-4.29
-5.47
-6.81
-8.20
-9.33
-9.84
-9.56
-8.51
-6.91
-5.01
-2.99
-0.88
1.32
3.53
5.49
6.81
7.23
6.70
5.47
3.93
2.44
1.17
0.09
-0.95
-2.02
-3.06
-3.81
-4.02
-3.52
-2.38
-0.87
0.63
1.76
2.35
2.40
2.05
1.48
0.83
0.14
-0.60
-1.46
-2.54
-3.84
-5.30
-6.79
-8.15
-9.19
-9.83
-9.99
-9.62
-8.72
-7.26
-5.29
-2.89
-0.26
2.37
4.77
6.72
8.15
9.05
9.47
9.41
8.90
8.01
6.82
5.48
4.09
2.80
1.68
0.79
0.14
-0.28
-0.50
-0.56
-0.51
-0.43
-0.35
-0.27
-0.14
0.03
0.22
0.44
0.71
1.13
1.78
2.71
3.86
5.04
6.06
6.78
7.12
7.12
6.85
6.36
5.73
5.01
4.24
3.51
2.81
2.05
1.09
-0.14
-1.60
-3.07
-4.26
-4.86
-4.67
-3.66
-2.02
-0.03
2.07
4.03
5.71
6.97
7.70
7.81
7.21
5.90
4.05
1.87
-0.33
-2.30
-3.85
-4.91
-5.51
-5.71
-5.61
-5.20
-4.51
-3.50
-2.12
-0.40
1.46
3.21
4.47
4.85
4.15
2.34
-0.21
-2.98
-5.38
-7.09
-8.05
-8.46
-8.69
-8.95
-9.31
-9.62
-9.60
-9.00
-7.73
-5.88
-3.74
-1.66
-0.03
0.81
0.71
-0.37
-2.27
-4.62
-7.06
-9.14
-10.42
-10.63
-9.71
-7.82
-5.31
-2.61
-0.03
2.10
3.66
4.53
4.71
4.19
3.05
1.42
-0.49
-2.33
-3.78
-4.59
-4.61
-3.96
-2.78
-1.31
0.28
1.85
3.35
4.78
6.11
7.31
8.25
8.89
9.16
9.01
8.44
7.48
6.19
4.70
3.15
1.61
0.13
-1.19
-2.27
-2.97
-3.13
-2.80
-1.99
-0.84
0.51
1.99
3.59
5.24
6.76
7.89
8.23
7.59
6.00
3.71
1.12
-1.44
-3.75
-5.69
-7.17
-8.11
-8.42
-8.08
-7.28
-6.18
-5.01
-3.89
-2.80
-1.64
-0.41
0.81
1.94
2.80
3.36
3.65
3.83
4.01
4.34
4.86
5.48
6.08
6.45
6.39
5.71
4.37
2.43
0.09
-2.31
-4.50
-6.12
-7.00
-6.97
-6.12
-4.60
-2.67
-0.69
1.04
2.22
2.79
2.74
2.25
1.48
0.57
-0.40
-1.46
-2.54
-3.59
-4.37
-4.71
-4.47
-3.67
-2.52
-1.28
-0.23
0.53
1.01
1.29
1.47
1.52
1.44
1.23
0.95
0.64
0.35
-0.00
-0.50
-1.20
-2.01
-2.72
-3.09
-2.95
-2.35
-1.44
-0.48
0.35
0.96
1.38
1.67
1.90
2.03
2.05
1.98
1.84
1.71
1.69
1.79
2.01
2.28
2.48
2.50
2.28
1.80
1.06
0.19
-0.60
-1.18
-1.40
-1.29
-1.00
-0.71
-0.54
-0.55
-0.63
-0.57
-0.19
0.61
1.80
3.22
4.60
5.66
6.22
6.19
5.63
4.68
3.53
2.41
1.53
1.06
1.02
1.40
2.08
2.94
3.82
4.60
5.10
5.18
4.75
3.80
2.50
1.07
-0.23
-1.27
-2.00
-2.53
-2.95
-3.27
-3.50
-3.64
-3.73
-3.87
-4.15
-4.48
-4.69
-4.56
-3.94
-2.95
-1.90
-1.15
-0.99
-1.38
-2.05
-2.59
-2.69
-2.32
-1.71
-1.12
-0.80
-0.83
-1.04
-1.27
-1.38
-1.43
-1.61
-2.10
-2.92
-3.88
-4.78
-5.33
-5.50
-5.40
-5.31
-5.47
-6.00
-6.83
-7.70
-8.36
-8.56
-8.19
-7.23
-5.77
-3.97
-2.05
-0.26
1.22
2.25
2.81
2.90
2.64
2.21
1.71
1.32
1.14
1.28
1.81
2.70
3.77
4.83
5.65
6.00
5.84
5.22
4.30
3.28
2.32
1.55
0.98
0.66
0.56
0.65
0.80
0.86
0.74
0.44
0.09
-0.17
-0.18
0.11
0.67
1.33
1.90
2.29
2.43
2.35
2.11
1.73
1.31
0.88
0.48
0.15
-0.03
-0.07
0.01
0.18
0.31
0.33
0.12
-0.28
-0.80
-1.31
-1.72
-2.00
-2.16
-2.30
-2.47
-2.67
-2.83
-2.91
-2.89
-2.81
-2.69
-2.52
-2.26
-1.86
-1.34
-0.85
-0.59
-0.76
-1.46
-2.63
-4.09
-5.62
-7.04
-8.27
-9.44
-10.68
-12.09
-13.62
-15.13
-16.38
-17.18
-17.41
-17.09
-16.44
-15.68
-15.08
-14.78
-14.90
-15.31
-15.73
-15.80
-15.08
-13.29
-10.26
-6.05
-0.93
4.71
10.47
15.91
20.55
23.96
25.76
25.72
23.87
20.53
16.22
11.52
7.02
3.19
0.52
-0.57
0.35
3.44
8.54
15.06
21.95
28.04
32.25
33.95
32.94
29.51
24.18
17.73
10.90
4.39
-1.25
-5.67
-8.72
-10.51
-11.26
-11.30
-10.89
-10.30
-9.64
-8.91
-8.12
-7.18
-6.05
-4.73
-3.32
-1.96
-0.77
0.18
0.99
1.83
2.90
4.35
6.16
8.13
9.95
11.27
11.81
11.50
10.42
8.84
7.06
5.42
4.15
3.39
3.18
3.40
3.93
4.71
5.75
7.09
8.73
10.47
11.96
12.74
12.47
11.02
8.63
5.69
2.65
-0.16
-2.52
-4.36
-5.63
-6.33
-6.50
-6.23
-5.65
-4.89
-4.14
-3.52
-3.08
-2.84
-2.74
-2.74
-2.94
-3.45
-4.49
-6.10
-8.24
-10.60
-12.78
-14.45
-15.44
-15.79
-15.61
-15.07
-14.17
-12.86
-11.12
-8.91
-6.34
-3.58
-0.83
1.78
4.01
5.74
6.82
7.10
6.57
5.30
3.48
1.41
-0.61
-2.39
-3.88
-5.11
-6.26
-7.32
-8.25
-8.81
-8.82
-8.16
-6.91
-5.26
-3.40
-1.54
0.31
2.04
3.55
4.75
5.48
5.71
5.45
4.79
3.85
2.82
1.90
1.23
0.93
0.87
0.64
-0.22
-2.05
-4.72
-7.51
-9.46
-9.77
-8.24
-5.34
-2.12
0.31
1.14
-0.15
-3.61
-9.27
-17.15
-27.19
-38.99
-51.67
-64.01
-74.61
-82.32
-86.23
-85.85
-81.11
-72.21
-59.77
-44.74
-28.35
-11.91
3.30
16.39
26.87
34.69
40.28
44.29
47.48
50.38
53.06
55.04
55.62
54.25
50.86
45.98
40.40
34.90
29.94
25.66
21.98
18.83
16.28
14.44
13.30
12.59
11.96
10.99
9.48
7.41
4.94
2.38
0.03
-1.74
-2.71
-2.77
-2.11
-1.09
-0.16
0.27
0.03
-0.79
-1.96
-3.14
-4.09
-4.66
-4.74
-4.30
-3.42
-2.23
-1.04
-0.17
0.16
-0.05
-0.65
-1.21
-1.41
-1.03
-0.02
1.43
3.07
4.60
5.85
6.71
7.19
7.35
7.22
6.89
6.38
5.72
5.00
4.31
3.72
3.24
2.79
2.23
1.49
0.51
-0.62
-1.70
-2.55
-3.09
-3.26
-3.16
-2.90
-2.49
-1.93
-1.16
-0.12
1.14
2.46
3.63
4.41
4.66
4.33
3.53
2.41
1.25
0.28
-0.34
-0.56
-0.45
-0.11
0.30
0.72
1.10
1.46
1.76
1.97
2.05
2.04
1.99
1.99
2.06
2.14
2.15
1.98
1.58
1.00
0.27
-0.54
-1.36
-2.10
-2.65
-2.91
-2.84
-2.52
-2.08
-1.68
-1.41
-1.24
-1.08
-0.86
-0.60
-0.34
-0.14
-0.04
-0.07
-0.22
-0.51
-0.94
-1.42
-1.77
-1.73
-1.10
0.20
1.99
3.94
5.61
6.64
6.89
6.39
5.35
3.96
2.46
1.00
-0.35
-1.52
-2.45
-3.09
-3.38
-3.26
-2.74
-1.86
-0.72
0.49
1.62
2.54
3.15
3.42
3.42
3.23
2.98
2.73
2.51
2.32
2.12
1.85
1.45
0.92
0.24
-0.52
-1.31
-2.01
-2.50
-2.68
-2.60
-2.24
-1.72
-1.18
-0.65
-0.15
0.30
0.74
1.20
1.66
2.17
2.71
3.23
3.61
3.68
3.32
2.56
1.55
0.51
-0.31
-0.79
-0.93
-0.86
-0.73
-0.62
-0.53
-0.46
-0.40
-0.36
-0.38
-0.50
-0.68
-0.88
-1.02
-1.03
-0.92
-0.72
-0.48
-0.29
-0.16
-0.03
0.20
0.60
1.22
2.01
2.89
3.72
4.33
4.66
4.76
4.77
4.83
5.06
5.43
5.78
5.92
5.67
5.04
4.27
3.64
3.40
3.56
3.89
4.08
3.98
3.72
3.72
4.37
5.73
7.47
8.97
9.85
10.40
11.70
15.16
21.79
31.63
43.60
56.00
67.35
77.05
85.67
94.41
104.33
115.66
127.56
138.45
146.77
151.55
152.60
150.30
145.10
137.18
126.86
115.34
104.98
98.93
99.54
106.67
116.93
124.80
125.40
117.29
103.71
91.18
86.22
92.02
107.06
126.45
144.92
159.53
170.56
180.09
189.58
198.16
202.56
198.70
183.76
157.61
122.70
82.95
42.32
3.82
-30.44
-58.80
-79.70
-91.77
-94.24
-87.56
-73.59
-55.31
-35.98
-18.09
-2.70
10.73
23.83
38.17
53.96
69.26
80.39
83.39
76.12
59.40
37.06
14.32
-4.08
-15.54
-20.09
-19.49
-16.73
-14.53
-14.98
-19.43
-28.00
-39.07
-49.05
-53.12
-47.51
-32.51
-13.22
2.10
5.35
-7.81
-36.21
-73.62
-111.82
-144.14
-168.65
-186.82
-200.87
-211.41
-216.82
-214.50
-202.68
-182.26
-157.50
-138.10
-133.94
-151.86
-194.02
-257.80
-336.53
-419.91
-494.57
-546.88
-572.66
-574.13
-559.68
-541.66
-533.50
-545.23
-578.62
-625.06
-668.42
-700.49
-716.50
-715.27
-697.95
-668.32
-632.02
-594.02
-556.89
-521.42
-499.94
-502.58
-532.09
-581.58
-639.65
-696.98
-749.79
-799.48
-775.86
-640.90
-399.61
-99.15
205.57
478.09
700.68
865.11
969.15
1017.57
1011.45
960.67
882.72
798.53
724.00
665.96
624.86
600.54
595.10
602.29
614.23
621.52
615.50
588.34
535.65
459.94
372.03
287.98
217.31
167.33
137.27
121.99
115.25
113.22
115.24
122.54
135.98
151.27
162.70
165.92
160.00
146.38
127.78
106.85
85.10
63.27
40.62
16.97
-7.00
-29.06
-47.40
-61.03
-70.77
-79.06
-89.14
-104.38
-127.62
-161.26
-199.91
-238.67
-271.55
-293.45
-302.70
-302.46
-300.45
-305.49
-322.99
-350.93
-380.36
-397.77
-391.10
-354.84
-291.70
-210.56
-122.01
-34.21
48.93
126.20
197.51
262.00
317.66
362.46
396.26
421.65
443.22
465.61
490.67
516.79
539.23
551.94
550.10
532.06
499.90
458.26
412.36
365.95
320.46
275.18
228.30
177.93
122.94
63.30
0.24
-63.81
-125.51
-181.35
-228.61
-266.49
-296.45
-321.68
-345.96
-372.33
-402.21
-434.95
-468.00
-497.23
-517.70
-524.81
-515.62
-490.03
-451.25
-405.11
-358.33
-316.57
-282.99
-258.10
-240.48
-227.89
-217.99
-208.69
-198.09
-184.43
-166.34
-143.25
-115.58
-84.65
-52.30
-20.11
11.23
42.15
73.92
107.89
144.63
183.41
222.39
259.53
293.56
324.56
353.47
380.88
405.82
425.39
435.74
433.68
418.32
391.58
357.52
320.75
285.14
253.37
227.20
207.94
196.10
190.38
186.99
179.86
162.39
130.25
83.85
29.01
-24.56
-66.82
-91.51
-98.15
-91.43
-78.07
-63.31
-49.11
-35.27
-21.94
-12.09
-11.55
-26.37
-59.11
-106.78
-161.81
-215.29
-260.43
-293.83
-314.63
-322.78
-318.20
-301.35
-274.40
-241.21
-206.00
-171.82
-139.71
-109.39
-80.60
-53.74
-28.94
-4.98
21.78
56.10
100.79
153.63
207.16
251.92
281.31
295.09
299.14
302.96
315.79
343.03
384.91
437.65
495.68
553.18
604.07
640.47
653.83
637.59
589.91
514.86
421.59
321.64
225.42
139.46
64.05
-4.33
-69.53
-133.84
-197.58
-260.07
-320.25
-377.40
-421.63
-442.65
-438.05
-413.23
-375.96
-332.25
-286.35
-241.25
-199.53
-163.18
-135.21
-116.91
-107.99
-106.61
-109.61
-113.89
-116.71
-116.32
-111.85
-104.34
-95.84
-84.56
-69.63
-50.83
-29.36
-8.07
8.76
16.60
12.74
-3.26
-27.66
-55.01
-80.44
-101.05
-115.59
-123.41
-123.94
-116.98
-103.77
-86.97
-70.91
-59.96
-56.59
-60.35
-68.20
-76.18
-81.44
-83.79
-85.23
-88.33
-93.60
-98.33
-97.26
-85.22
-60.05
-24.10
16.20
53.01
79.81
94.31
98.21
95.60
90.55
85.25
80.08
74.74
69.46
65.21
63.19
63.58
65.38
66.54
65.02
59.56
50.42
39.10
27.85
19.10
14.18
12.36
10.96
5.61
-7.64
-30.00
-58.37
-85.94
-103.71
-106.05
-92.06
-65.79
-34.13
-3.49
22.46
43.15
59.62
72.73
82.02
86.37
85.16
78.69
68.71
57.77
48.35
41.94
38.92
38.53
39.74
41.79
44.23
46.94
49.78
52.26
53.10
50.52
42.84
29.34
10.19
-13.26
-38.74
-64.29
-87.01
-104.47
-115.09
-117.82
-112.23
-98.60
-77.79
-51.44
-21.84
7.99
34.86
55.75
68.13
70.48
62.49
44.99
19.93
-9.87
-41.56
-71.78
-97.27
-115.42
-124.61
-124.55
-115.83
-100.21
-80.10
-59.01
-39.56
-23.47
-11.57
-3.67
1.06
4.71
9.22
19.75
36.55
58.89
85.51
114.41
143.69
171.10
195.56
216.19
232.38
242.13
244.71
240.37
229.94
215.24
198.19
182.16
168.96
159.57
152.65
146.88
140.62
130.96
118.48
102.50
83.73
60.84
39.27
22.68
13.14
9.77
9.62
11.03
2.71
-12.28
-29.95
-47.65
-66.20
-88.73
-107.94
-119.43
-121.04
-111.79
-90.01
-57.08
-16.45
26.16
64.78
92.21
107.17
108.91
98.95
81.37
58.52
30.91
-3.24
-46.35
-103.92
-172.32
-250.39
-335.69
-424.07
-511.33
-592.43
-661.54
-712.31
-744.55
-750.31
-730.93
-690.60
-634.34
-567.18
-492.89
-414.77
-304.73
-213.41
-141.50
-94.83
-73.82
-71.22
-73.98
-67.72
-43.12
-0.44
44.84
82.77
98.75
86.37
50.12
3.13
-38.59
-62.58
-64.14
-50.34
-24.26
5.72
33.81
57.65
77.07
92.12
101.51
102.93
92.27
73.39
50.31
28.90
14.47
9.66
14.57
26.19
39.83
50.13
56.41
59.24
61.03
64.31
70.89
83.03
101.08
123.59
147.73
171.93
195.28
217.97
240.14
262.22
287.15
316.14
348.18
380.26
408.84
431.41
447.06
455.35
457.67
459.64
465.30
475.71
488.75
500.78
508.61
510.58
505.26
465.97
378.34
243.50
79.22
-90.32
-246.52
-380.58
-485.22
-568.37
-635.76
-685.99
-717.05
-728.71
-723.50
-704.71
-675.74
-639.10
-597.61
-552.11
-500.30
-441.30
-376.57
-309.88
-245.95
-188.79
-140.61
-102.72
-74.05
-51.01
-30.72
-11.84
5.34
19.63
29.93
35.92
37.54
35.95
33.41
31.61
31.32
32.34
33.85
34.99
35.16
33.86
31.21
27.76
23.89
19.73
15.16
9.99
4.09
-2.40
-9.26
-15.99
-22.04
-26.95
-30.41
-32.21
-32.41
-31.21
-28.94
-26.01
-22.89
-19.96
-17.51
-15.74
-14.56
-13.51
-12.00
-9.60
-6.13
-1.72
3.38
8.93
14.72
20.61
26.84
33.62
41.02
48.89
56.89
64.69
72.07
78.97
85.45
92.53
101.10
111.61
123.81
136.90
149.92
162.10
173.03
182.58
193.23
207.13
225.19
246.39
268.22
287.83
303.08
312.98
317.58
322.76
334.05
354.71
384.22
418.95
454.26
486.57
514.05
536.17
561.39
597.15
646.88
707.90
772.62
832.30
880.51
914.43
934.34
953.31
984.00
1034.41
1104.62
1187.97
1275.70
1361.24
1441.76
1449.73
1340.53
1100.06
756.70
368.52
-5.91
-329.04
-587.58
-784.68
-930.96
-1027.61
-1075.88
-1079.79
-1048.92
-997.40
-939.30
-885.02
-840.50
-808.83
-783.39
-757.85
-728.53
-695.69
-662.40
-631.72
-604.96
-582.11
-563.11
-543.21
-518.48
-486.83
-448.97
-408.16
-368.56
-333.73
-305.94
-285.99
-270.75
-256.11
-238.33
-215.41
-187.93
-158.48
-130.66
-107.82
-91.97
-82.30
-76.25
-70.77
-63.78
-54.95
-45.42
-36.89
-30.50
-26.29
-23.23
-19.91
-15.28
-9.20
-2.42
4.02
9.25
12.94
15.38
17.09
18.57
19.88
20.51
19.72
17.00
12.45
6.91
1.70
-1.93
-3.29
-2.73
-1.49
-1.17
-3.06
-7.59
-14.13
-21.27
-27.46
-31.62
-33.49
-33.67
-33.26
-33.63
-36.30
-42.50
-52.50
-64.55
-74.57
-76.72
-65.67
-39.43
-1.28
40.52
75.08
92.89
89.36
65.99
29.60
-10.61
-45.67
-69.17
-77.96
-72.76
-57.64
-38.74
-23.01
-16.15
-21.28
-37.93
-61.93
-85.96
-101.34
-100.50
-79.77
-41.45
6.40
51.93
83.73
95.00
85.80
62.30
34.16
10.78
-1.68
0.32
15.87
40.60
68.55
94.07
113.34
125.19
130.67
131.72
129.90
125.35
117.35
105.54
90.30
72.80
54.37
36.11
18.92
4.37
-4.75
-4.57
7.87
31.89
61.63
87.39
99.92
95.31
77.82
58.22
48.61
56.20
79.60
109.62
133.96
143.24
134.93
113.31
86.29
61.24
42.25
29.79
21.93
15.84
8.81
-1.23
-15.61
-34.45
-56.42
-78.53
-96.24
-104.03
-96.36
-69.28
-22.60
38.39
102.78
156.07
184.60
180.80
146.65
93.52
37.72
-6.32
-31.81
-41.43
-44.70
-52.21
-70.18
-98.39
-131.78
-164.27
-192.41
-216.81
-240.82
-268.18
-300.89
-338.76
-380.26
-423.36
-465.78
-504.51
-535.45
-554.10
-557.01
-543.14
-514.36
-474.66
-428.64
-380.35
-332.96
-289.12
-251.28
-221.10
-198.45
-180.62
-162.76
-139.54
-107.47
-66.33
-19.06
29.58
74.30
110.65
135.66
148.28
150.05
145.44
141.43
145.51
162.16
189.71
219.40
238.22
234.56
204.47
154.49
99.47
55.77
33.36
31.73
41.74
51.80
54.65
50.30
44.18
42.06
45.91
53.26
60.21
65.42
71.73
84.38
107.25
139.61
175.65
207.14
227.37
234.00
229.82
221.35
216.61
222.55
242.67
275.50
314.46
349.49
370.09
368.68
342.86
296.20
236.40
172.41
111.50
57.50
10.35
-32.98
-76.40
-122.36
-169.82
-213.49
-245.16
-256.64
-243.32
-206.33
-152.40
-91.18
-31.86
19.48
60.88
93.53
120.35
144.66
169.30
195.87
223.83
249.89
268.39
272.90
258.54
224.13
172.70
110.89
47.13
-10.51
-56.28
-87.94
-106.65
-115.71
-118.49
-116.14
-106.99
-87.58
-54.99
-9.21
46.20
105.54
163.54
217.33
266.44
310.88
349.16
377.44
390.86
386.03
362.90
325.18
278.68
229.04
180.09
133.59
90.25
51.12
18.28
-5.66
-19.01
-22.26
-18.94
-14.91
-16.84
-29.65
-54.17
-85.29
-112.45
-122.85
-106.61
-61.87
2.90
71.24
124.79
150.47
145.15
115.87
75.71
38.02
11.61
-0.97
-2.50
1.52
5.68
6.61
3.73
-0.96
-3.99
-1.96
7.02
22.46
41.55
60.54
75.91
85.31
87.46
81.62
67.26
44.06
12.55
-25.39
-66.57
-107.20
-143.79
-173.81
-195.65
-208.60
-212.87
-209.98
-202.95
-196.12
-194.08
-199.84
-213.72
-233.35
-255.19
-276.98
-299.36
-325.98
-361.36
-407.53
-461.18
-513.24
-551.51
-565.33
-550.03
-508.89
-452.07
-392.82
-342.74
-308.34
-290.24
-284.73
-286.35
-289.98
-291.62
-288.76
-280.78
-269.18
-257.39
-249.49
-247.93
-251.60
-256.07
-255.25
-244.44
-222.48
-192.03
-158.32
-127.06
-102.31
-85.66
-76.52
-72.71
-71.21
-68.71
-62.24
-49.94
-31.71
-8.99
16.15
41.98
67.57
92.58
116.21
136.62
151.08
157.09
153.72
141.98
124.36
103.80
82.79
63.17
46.74
35.76
32.69
39.22
55.04
77.23
101.38
123.49
142.03
158.57
176.42
198.14
223.28
247.69
264.77
268.12
254.37
224.69
184.78
143.12
108.22
86.29
79.74
87.29
104.94
127.56
150.56
171.08
188.50
204.25
221.21
242.27
268.78
299.32
329.43
352.70
363.09
357.33
336.72
306.94
275.95
250.75
234.56
225.66
218.70
207.53
188.23
160.38
126.41
89.38
50.99
11.25
-30.52
-73.70
-115.45
-151.21
-176.92
-191.45
-197.34
-199.34
-201.55
-204.81
-205.95
-199.22
-179.42
-144.82
-98.67
-48.54
-3.83
27.34
40.92
38.01
24.10
6.51
-8.55
-17.75
-20.49
-16.94
-6.06
14.75
47.72
91.56
139.22
178.96
198.19
188.38
148.64
85.81
11.68
-61.04
-121.86
-163.91
-183.95
-182.03
-161.43
-128.19
-89.89
-53.61
-24.29
-3.78
8.46
14.08
14.93
12.85
9.90
8.11
8.67
10.95
12.28
9.07
-1.35
-19.00
-40.71
-61.00
-74.16
-76.11
-65.57
-44.22
-16.07
13.61
39.45
56.98
63.59
59.04
45.62
27.52
9.79
-3.01
-8.02
-4.71
4.80
16.29
24.83
26.67
20.75
9.03
-4.52
-15.90
-22.76
-24.88
-23.59
-20.64
-17.52
-15.44
-15.52
-18.68
-25.14
-34.10
-44.20
-54.71
-66.43
-81.49
-101.31
-124.28
-144.64
-154.11
-145.31
-115.37
-67.53
-9.92
47.48
95.84
129.02
143.72
138.98
116.22
79.58
35.97
-6.26
-39.40
-58.58
-62.70
-53.78
-35.40
-11.21
15.63
42.25
65.73
83.19
92.48
93.17
86.95
76.90
66.06
56.21
47.46
39.02
30.20
20.91
11.51
2.47
-5.61
-11.43
-12.44
-5.27
12.80
41.96
78.49
115.10
142.93
154.53
146.47
120.41
82.43
41.01
4.58
-20.50
-31.09
-27.48
-12.81
7.99
29.38
46.42
55.86
56.86
51.00
41.69
32.75
26.98
25.37
27.25
31.14
35.55
39.43
41.87
41.81
37.95
29.34
16.43
1.64
-10.94
-17.03
-13.88
-1.50
17.70
40.24
63.40
86.26
109.15
132.32
154.30
171.52
178.97
172.13
148.84
110.22
60.72
7.47
-40.51
-73.60
-83.95
-68.48
-31.31
16.12
58.14
80.52
75.54
44.44
-4.28
-59.56
-112.74
-160.01
-201.59
-238.99
-272.64
-301.75
-325.80
-345.82
-364.13
-382.31
-398.80
-408.26
-403.49
-379.03
-334.69
-276.58
-214.86
-159.42
-115.89
-83.84
-58.10
-31.75
0.63
40.87
86.90
133.64
174.72
204.56
219.85
220.11
207.23
184.35
154.81
121.75
88.37
58.55
37.27
29.88
39.92
66.83
104.86
144.36
175.38
191.50
192.05
181.54
166.84
153.95
146.11
143.82
145.95
151.03
157.58
164.10
169.10
171.30
169.93
164.58
154.63
138.98
116.95
89.87
62.32
41.41
33.67
41.61
61.70
85.44
103.02
107.32
96.06
71.45
37.94
-0.27
-40.56
-81.68
-123.04
-163.74
-202.35
-237.42
-268.26
-295.73
-322.05
-349.61
-378.90
-407.01
-427.43
-432.01
-414.39
-372.98
-311.67
-238.25
-161.33
-87.97
-23.32
28.57
63.58
78.11
71.02
45.71
10.63
-22.85
-44.44
-48.70
-36.34
-12.77
15.08
41.83
64.73
82.78
95.30
100.83
97.46
83.82
60.17
28.74
-6.32
-39.54
-65.03
-77.91
-76.39
-63.34
-46.16
-33.99
-33.16
-43.24
-56.78
-63.10
-54.77
-32.60
-5.97
11.85
10.84
-10.34
-43.47
-75.15
-93.14
-91.31
-71.04
-38.78
-2.13
33.57
66.41
97.08
126.75
155.24
180.46
199.26
209.22
210.21
204.65
196.48
189.17
183.96
179.12
170.86
155.12
129.69
95.15
54.71
12.82
-26.22
-59.23
-84.06
-99.27
-104.03
-98.35
-84.05
-65.20
-47.66
-37.61
-39.34
-53.54
-76.87
-103.42
-126.82
-142.34
-147.58
-142.01
-125.94
-99.64
-63.60
-19.53
28.55
74.03
109.18
127.65
127.08
110.30
84.22
57.07
35.26
21.49
14.92
12.69
11.78
10.02
5.92
-1.47
-12.45
-25.44
-36.27
-38.66
-26.89
0.87
40.47
82.61
116.59
134.96
136.59
126.33
111.77
98.98
89.67
81.44
70.42
54.49
34.89
15.57
0.74
-7.51
-10.20
-10.43
-11.25
-13.77
-16.67
-16.98
-12.05
-1.17
13.60
27.99
37.38
38.96
33.05
22.66
11.72
2.80
-3.93
-10.08
-17.02
-23.99
-28.02
-25.71
-15.82
-0.94
12.93
18.70
11.12
-11.10
-45.28
-86.04
-127.09
-162.51
-187.37
-198.08
-192.93
-172.55
-140.23
-101.89
-65.28
-38.32
-27.05
-33.17
-52.58
-76.06
-92.05
-91.19
-70.78
-36.53
-0.77
22.90
25.69
7.66
-22.79
-53.36
-73.64
-79.14
-71.45
-55.29
-34.81
-11.50
15.09
45.16
76.79
105.88
127.91
140.20
143.09
139.40
132.71
125.64
118.96
112.20
104.95
98.18
94.85
98.73
111.87
132.11
152.15
161.70
151.82
119.65
70.59
16.69
-28.18
-53.96
-57.96
-45.12
-25.43
-10.14
-8.62
-26.05
-62.23
-111.34
-163.03
-205.30
-228.85
-230.71
-215.35
-192.28
-171.13
-156.86
-147.87
-137.79
-119.42
-88.80
-47.08
0.02
44.71
80.17
103.02
114.73
120.99
129.87
148.07
177.29
212.42
242.81
256.23
244.18
205.50
146.93
80.46
18.72
-29.51
-61.77
-81.37
-94.96
-109.17
-128.13
-152.34
-179.15
-204.16
-222.32
-229.06
-221.16
-197.73
-161.02
-116.46
-71.61
-33.95
-8.59
3.11
3.05
-5.64
-20.56
-40.86
-66.37
-95.96
-126.14
-151.53
-166.09
-165.08
-146.42
-110.86
-61.66
-4.38
53.13
101.36
130.91
135.53
115.12
77.00
34.01
-0.29
-16.89
-14.60
0.42
18.43
30.52
31.81
22.05
4.42
-16.21
-34.40
-45.11
-44.59
-31.64
-8.44
19.92
47.00
67.40
78.11
78.80
70.85
56.25
37.37
17.50
1.41
-4.98
3.95
31.61
77.50
136.48
199.57
255.90
295.66
312.87
307.19
283.74
251.19
218.60
192.40
174.53
162.47
150.74
133.49
107.15
72.16
32.99
-3.65
-31.63
-47.55
-51.53
-46.44
-36.23
-24.46
-14.50
-10.16
-16.10
-36.13
-70.50
-113.74
-155.34
-183.90
-192.89
-184.72
-170.01
-162.36
-171.23
-197.02
-231.07
-259.96
-271.68
-260.31
-227.05
-177.85
-119.74
-58.47
1.64
56.25
100.07
127.57
135.11
123.58
99.31
72.29
52.51
46.32
54.11
70.44
85.96
90.73
78.02
47.15
4.81
-36.58
-63.22
-65.50
-42.39
-2.32
40.21
70.83
80.98
70.57
46.35
17.58
-8.40
-28.08
-40.77
-46.25
-43.24
-30.03
-6.58
23.39
52.52
72.12
76.18
64.31
42.19
19.32
4.66
3.21
14.73
34.90
57.91
78.68
93.83
101.32
99.93
88.89
68.33
40.04
7.94
-22.39
-45.01
-55.62
-53.13
-40.22
-22.35
-5.68
5.21
9.03
8.10
7.33
12.23
26.50
50.25
79.32
106.51
124.21
127.92
118.68
102.96
89.32
83.65
85.25
86.66
77.68
51.66
9.90
-38.46
-81.00
-108.55
-119.71
-120.91
-122.45
-132.80
-154.51
-183.42
-211.07
-228.53
-229.53
-211.79
-176.73
-128.43
-72.56
-15.52
36.17
76.70
102.02
111.04
106.10
92.73
77.78
67.03
62.98
64.23
66.72
66.17
60.41
50.54
39.81
31.18
24.70
16.91
2.71
-20.80
-51.03
-79.60
-95.83
-92.48
-70.19
-38.15
-10.06
2.80
-2.83
-20.76
-39.29
-47.87
-42.62
-27.35
-10.09
2.41
8.65
12.43
19.55
33.45
52.96
72.80
86.32
88.62
78.53
58.68
34.11
10.43
-7.93
-18.82
-23.04
-23.87
-25.71
-31.95
-43.08
-56.27
-66.59
-69.72
-64.11
-51.82
-37.31
-25.07
-17.84
-15.88
-17.58
-20.52
-22.60
-22.77
-21.07
-18.60
-17.31
-19.44
-26.63
-38.82
-53.41
-65.53
-69.64
-61.70
-41.19
-11.50
21.08
49.69
69.22
77.77
76.72
69.46
59.80
50.68
43.60
38.93
36.58
36.57
39.22
45.15
54.54
66.57
78.94
88.10
90.34
83.47
68.17
48.22
29.14
15.58
9.12
7.57
6.39
1.42
-8.74
-22.43
-36.52
-48.56
-57.90
-65.10
-70.22
-71.70
-66.84
-53.74
-33.31
-9.83
10.57
22.50
23.50
14.76
0.06
-16.09
-30.10
-40.05
-45.75
-48.26
-49.44
-51.15
-54.51
-59.34
-64.14
-66.82
-65.86
-61.20
-54.40
-47.74
-43.01
-40.55
-39.12
-36.78
-32.21
-25.74
-19.21
-15.20
-15.90
-22.50
-34.94
-51.74
-69.95
-84.95
-91.06
-83.17
-59.08
-21.42
22.29
61.95
88.41
96.99
88.98
70.69
50.57
35.74
29.80
32.55
41.38
53.32
66.52
80.58
95.79
111.62
125.86
134.72
134.04
121.32
97.31
66.52
35.73
11.17
-4.14
-11.33
-14.64
-18.87
-26.92
-38.92
-53.12
-67.80
-82.55
-97.99
-113.83
-127.27
-133.09
-126.17
-104.73
-72.09
-35.58
-3.06
20.67
35.54
45.04
53.57
63.78
75.68
87.59
98.10
107.65
118.55
133.76
154.92
180.90
207.54
229.07
240.71
240.97
232.56
221.11
212.01
207.37
204.66
198.01
181.27
151.31
109.31
59.77
7.90
-42.86
-91.66
-139.13
-185.36
-228.20
-262.85
-283.28
-284.54
-265.13
-228.06
-180.12
-129.55
-83.27
-45.30
-17.04
0.91
7.36
0.68
-19.49
-50.06
-83.85
-111.51
-125.42
-123.50
-110.51
-95.62
-87.62
-90.36
-101.04
-112.15
-115.56
-106.44
-84.57
-52.90
-14.95
27.12
72.08
117.70
158.90
187.87
196.71
181.25
143.53
90.98
32.70
-24.93
-80.06
-133.94
-186.98
-235.39
-270.77
-283.41
-267.41
-224.43
-164.12
-100.50
-46.12
-7.17
17.96
36.32
55.56
79.75
107.89
135.39
157.48
171.86
179.45
183.00
185.09
186.77
187.81
187.86
187.36
187.34
188.36
189.40
187.66
179.43
161.45
132.32
93.05
46.80
-1.96
-48.82
-90.48
-124.80
-149.91
-163.15
-160.90
-140.11
-101.18
-49.95
2.90
45.20
68.02
68.75
50.96
21.25
-14.43
-52.61
-91.33
-128.02
-158.39
-177.43
-182.09
-173.17
-155.10
-133.37
-111.78
-91.13
-70.33
-48.85
-28.14
-11.09
0.22
6.85
13.05
23.83
41.29
62.63
80.98
89.14
83.52
66.16
43.67
24.03
13.20
13.57
24.44
43.49
67.98
94.63
119.24
136.64
142.07
133.42
112.64
85.33
58.50
37.76
25.33
20.00
18.33
16.51
11.76
2.90
-9.86
-25.56
-43.09
-61.72
-81.36
-102.41
-125.36
-150.09
-175.07
-197.38
-213.24
-219.32
-214.28
-199.77
-180.33
-161.99
-149.92
-146.22
-148.64
-151.18
-146.28
-127.74
-93.28
-45.37
9.77
64.35
111.29
145.73
165.50
171.06
165.09
151.82
136.30
123.14
115.56
114.68
119.70
128.66
139.04
148.11
153.01
150.90
139.49
118.07
88.15
53.33
18.31
-12.87
-38.53
-59.86
-80.10
-102.69
-129.35
-159.15
-189.19
-215.87
-236.33
-248.91
-252.87
-247.66
-232.82
-208.43
-175.68
-137.22
-96.78
-58.40
-25.56
-0.78
14.38
19.19
14.07
1.32
-14.42
-26.49
-27.73
-12.67
20.25
67.17
119.21
164.79
193.56
200.21
186.70
161.41
135.54
118.00
111.65
112.33
111.60
101.29
77.61
42.49
1.84
-37.97
-72.74
-100.83
-121.76
-134.45
-137.00
-128.25
-110.24
-89.22
-73.94
-71.77
-84.43
-106.29
-126.27
-132.54
-117.86
-82.55
-33.71
18.64
66.28
105.65
137.45
163.82
185.15
198.67
199.98
186.25
159.12
124.89
92.19
68.20
55.48
51.27
49.30
43.34
30.17
10.97
-9.61
-25.92
-34.26
-34.92
-31.96
-30.89
-35.16
-43.67
-50.78
-49.16
-34.01
-6.09
28.11
59.22
79.21
84.70
77.71
63.91
49.56
38.82
32.44
28.32
23.31
15.25
4.05
-8.21
-18.50
-24.39
-25.22
-22.26
-17.97
-14.74
-13.86
-15.31
-18.05
-20.66
-21.76
-20.33
-15.97
-9.24
-1.66
4.77
8.45
8.95
7.15
4.59
2.77
2.75
5.09
9.98
17.19
25.73
33.94
39.94
42.49
41.93
40.02
38.88
39.47
40.59
39.39
33.15
21.25
6.04
-8.06
-16.74
-17.82
-12.11
-2.62
7.03
14.30
18.46
20.12
20.34
19.49
16.96
11.66
2.99
-8.39
-20.44
-30.47
-36.02
-35.79
-29.96
-20.19
-9.16
0.17
5.57
6.44
4.16
1.63
1.98
7.17
16.91
28.85
39.66
46.55
48.48
46.25
41.57
35.70
28.65
19.57
8.21
-3.73
-12.33
-12.88
-2.29
18.73
45.16
69.42
84.46
86.71
77.15
60.07
40.43
21.35
3.37
-14.90
-35.04
-57.44
-80.88
-102.88
-120.48
-130.97
-132.75
-125.85
-112.15
-94.64
-76.21
-58.40
-41.18
-23.73
-5.65
12.23
28.40
41.89
53.31
64.66
77.76
92.56
106.49
115.63
116.84
109.48
95.74
79.29
63.55
50.43
40.26
32.39
25.73
18.90
10.35
-1.51
-17.66
-37.74
-59.68
-80.20
-96.06
-105.42
-108.79
-108.59
-108.03
-109.49
-113.32
-117.56
-118.71
-113.23
-99.19
-77.34
-50.95
-24.72
-2.83
12.57
21.93
27.53
32.05
37.17
42.98
48.49
52.45
54.31
54.41
53.48
52.15
50.63
49.05
47.91
48.13
50.58
55.22
60.65
64.46
64.26
58.98
49.52
38.43
28.74
22.22
18.42
15.00
8.70
-2.99
-20.91
-43.96
-69.53
-94.18
-114.41
-127.05
-129.93
-122.50
-106.08
-83.70
-59.35
-36.90
-19.21
-7.82
-3.36
-5.81
-14.68
-28.27
-43.09
-54.11
-56.22
-46.14
-24.03
6.50
40.02
71.63
98.81
121.56
140.86
156.83
167.61
170.22
162.74
146.39
125.92
107.60
95.63
89.20
82.10
65.57
33.24
-14.65
-69.88
-119.07
-149.24
-153.49
-133.99
-100.97
-68.47
-48.95
-49.18
-68.57
-100.15
-133.42
-157.84
-165.91
-155.31
-129.40
-95.81
-63.66
-39.95
-26.84
-21.04
-15.60
-3.47
19.00
50.27
84.38
113.74
132.59
139.16
135.78
127.14
117.50
108.49
98.83
85.83
67.91
46.46
25.74
10.89
4.89
6.51
10.27
8.95
-3.04
-26.80
-58.27
-90.00
-114.37
-126.51
-125.56
-114.05
-95.89
-74.41
-51.44
-27.38
-2.11
24.10
50.18
74.43
95.21
111.56
123.36
131.10
135.45
136.94
135.92
132.87
128.40
123.04
116.69
108.35
96.41
79.60
58.10
34.02
10.98
-7.51
-19.60
-25.98
-29.50
-33.67
-40.98
-51.96
-65.39
-79.48
-93.17
-106.65
-120.83
-136.09
-151.07
-162.45
-165.97
-158.07
-137.77
-107.59
-73.11
-41.14
-17.38
-4.39
-0.98
-3.05
-5.61
-4.89
0.39
9.08
18.47
25.74
28.99
27.80
23.08
16.66
10.58
6.43
5.08
6.53
10.23
15.48
21.55
27.53
32.16
33.85
31.26
24.03
13.28
1.66
-7.66
-12.12
-10.73
-4.15
5.80
17.03
27.56
35.45
38.72
35.57
24.92
7.43
-14.17
-35.54
-52.08
-60.47
-59.85
-52.15
-41.73
-34.11
-34.16
-44.27
-62.97
-84.95
-102.64
-109.14
-101.17
-80.63
-53.85
-28.84
-11.95
-5.54
-7.84
-14.58
-21.53
-26.12
-27.91
-27.61
-25.80
-22.36
-16.45
-7.27
5.20
19.63
33.52
44.06
49.26
48.88
44.67
39.66
36.72
37.34
41.02
45.95
50.27
53.12
54.90
56.71
59.64
64.34
71.14
80.39
92.23
106.00
119.60
129.55
132.05
124.74
108.03
85.35
61.91
42.57
30.07
24.41
23.63
25.09
26.68
27.27
26.68
25.34
23.92
22.94
22.24
20.64
15.94
5.56
-12.09
-36.26
-63.26
-87.58
-104.11
-110.64
-109.11
-104.82
-104.08
-111.46
-127.84
-150.16
-172.63
-188.66
-192.99
-183.19
-160.21
-128.11
-92.89
-61.08
-38.12
-27.36
-29.53
-42.75
-63.04
-84.99
-102.36
-109.27
-101.50
-77.83
-40.75
3.95
48.55
85.58
109.81
119.62
117.31
108.13
98.39
93.26
94.90
101.86
109.92
114.12
111.13
100.70
85.46
69.30
55.27
44.34
35.85
28.95
24.14
23.56
29.47
42.32
59.37
75.27
84.15
82.35
70.11
51.35
31.80
16.38
7.37
3.99
3.58
3.42
2.34
1.38
2.97
9.23
20.09
32.44
41.04
40.94
30.19
11.29
-9.35
-24.01
-27.25
-18.23
-0.95
17.32
28.81
28.02
13.65
-11.19
-40.19
-66.10
-83.12
-88.37
-82.39
-68.31
-50.23
-31.55
-14.25
0.87
13.15
21.30
23.52
18.42
6.24
-10.83
-29.27
-45.64
-57.85
-65.45
-69.07
-69.70
-67.99
-64.16
-58.77
-53.15
-49.10
-47.81
-48.96
-50.66
-50.57
-47.67
-42.99
-39.01
-38.05
-40.55
-44.73
-47.72
-47.52
-44.50
-41.34
-41.24
-45.55
-52.42
-57.12
-54.24
-40.24
-15.39
16.34
48.81
75.91
93.55
100.37
97.42
87.25
72.98
57.69
44.31
35.51
33.29
38.35
49.43
63.21
74.96
79.81
74.45
58.57
35.53
11.61
-5.96
-11.86
-5.07
10.33
26.70
35.95
33.13
18.41
-3.11
-23.73
-36.24
-36.08
-22.30
2.74
34.21
65.76
90.67
103.41
101.35
85.92
62.52
38.67
21.32
14.52
18.44
30.07
44.98
59.08
69.61
75.56
77.30
76.39
75.33
76.96
83.38
94.86
109.30
122.55
129.64
126.37
110.40
81.75
42.58
-3.76
-53.55
-103.61
-152.05
-198.85
-245.80
-295.52
-349.45
-405.82
-458.53
-498.25
-515.60
-505.05
-467.48
-410.07
-343.25
-276.47
-215.08
-159.72
-108.23
-58.54
-10.64
33.53
71.50
101.81
124.41
139.86
148.33
149.56
143.86
133.42
122.83
117.65
121.76
134.92
152.27
166.29
170.40
161.98
143.38
120.23
98.37
81.17
68.71
59.00
50.20
42.17
36.64
36.08
42.08
54.43
71.13
89.17
105.24
116.38
120.36
116.25
105.03
89.56
73.72
60.68
51.09
42.61
31.20
13.70
-9.60
-34.05
-52.26
-57.53
-47.42
-25.74
-1.40
15.29
17.34
4.67
-15.32
-30.58
-29.65
-6.62
36.28
89.81
141.73
181.48
203.19
206.02
192.39
165.72
129.49
87.44
44.22
5.15
-25.38
-45.71
-57.55
-64.73
-70.36
-74.47
-73.92
-64.77
-45.99
-22.02
-2.08
3.74
-10.20
-41.39
-79.29
-109.79
-121.54
-111.22
-85.11
-55.76
-35.63
-31.01
-39.15
-49.82
-50.50
-32.37
5.83
57.51
111.39
156.00
183.38
190.45
178.14
149.20
106.60
53.11
-7.96
-71.74
-131.74
-180.77
-212.72
-224.85
-219.54
-204.55
-191.01
-189.26
-204.14
-231.93
-260.82
-275.25
-262.60
-218.84
-150.29
-70.76
4.42
64.29
105.24
130.30
145.95
158.95
174.14
193.87
217.81
242.91
263.58
272.98
265.42
239.05
197.30
148.01
100.46
61.46
32.94
11.86
-7.40
-29.88
-57.75
-90.00
-123.76
-156.20
-185.88
-212.59
-236.33
-256.12
-269.65
-273.78
-265.73
-244.34
-210.62
-167.74
-120.14
-72.43
-28.35
9.75
40.97
65.43
83.72
96.62
104.95
109.77
112.58
115.10
118.91
124.82
132.52
140.40
145.89
145.99
138.21
121.54
97.03
67.93
38.83
14.22
-3.20
-13.49
-19.34
-24.84
-33.47
-46.56
-62.64
-78.19
-88.98
-91.65
-84.64
-68.23
-43.99
-13.88
20.03
55.62
90.18
120.24
141.94
152.20
150.10
137.76
119.94
102.25
88.75
80.04
73.13
63.18
46.26
21.89
-6.34
-32.01
-48.56
-51.91
-42.01
-22.86
-1.41
14.13
16.27
0.39
-33.23
-78.33
-123.36
-154.47
-160.39
-136.95
-89.47
-31.29
20.67
51.78
54.24
28.80
-16.70
-70.67
-121.57
-160.85
-184.51
-193.20
-190.77
-182.04
-170.30
-155.81
-136.28
-108.88
-72.56
-29.49
15.64
57.96
94.70
126.11
154.30
180.91
205.24
224.21
234.03
232.59
220.69
201.35
177.58
150.26
117.59
76.72
26.45
-30.52
-87.47
-135.79
-168.28
-181.93
-178.83
-164.78
-146.64
-129.71
-116.27
-105.75
-95.87
-84.15
-69.02
-50.26
-28.78
-6.10
16.29
37.39
56.75
74.16
89.22
101.02
108.42
110.49
107.04
98.88
87.57
74.78
61.62
48.32
34.43
19.69
4.92
-7.59
-14.77
-14.33
-6.38
6.04
17.89
24.26
22.42
12.77
-1.96
-18.78
-36.45
-56.28
-81.11
-112.93
-150.62
-189.14
-220.62
-237.05
-233.54
-210.57
-174.24
-134.27
-100.53
-79.48
-72.19
-74.47
-79.08
-78.69
-68.35
-46.34
-13.85
26.40
71.26
117.74
163.24
205.73
244.06
278.19
308.59
334.96
355.10
364.79
359.38
336.11
295.96
244.06
188.28
136.61
94.55
64.13
43.96
30.46
19.33
6.39
-11.99
-38.75
-75.75
-122.84
-176.59
-229.77
-272.02
-292.17
-282.42
-241.84
-177.82
-103.80
-33.99
22.01
61.78
88.65
107.74
121.96
130.86
132.21
124.88
110.72
93.83
78.05
64.57
51.47
35.08
13.00
-14.16
-42.89
-68.80
-88.98
-102.82
-111.14
-114.02
-109.72
-95.24
-69.02
-33.98
1.52
25.84
28.44
4.27
-43.94
-106.68
-170.64
-222.40
-251.70
-253.76
-230.33
-189.10
-141.36
-97.95
-64.97
-41.07
-18.61
11.28
52.62
101.04
144.99
170.67
168.18
136.20
82.32
20.46
-34.63
-71.95
-86.42
-77.74
-49.34
-7.24
41.51
89.56
131.53
163.66
183.39
189.32
181.85
162.16
131.57
91.70
44.47
-5.90
-55.30
-101.41
-143.65
-180.33
-207.82
-220.75
-213.32
-182.50
-127.74
-54.03
25.26
88.26
116.80
107.64
72.60
35.43
3.67
-21.07
-39.33
-51.49
-58.04
-54.98
-37.72
-4.78
39.95
86.55
124.35
144.20
141.46
118.67
86.60
59.66
49.77
61.57
90.45
127.15
160.89
183.07
190.05
183.98
170.08
153.66
138.23
124.58
112.62
100.99
87.05
67.17
38.10
-1.98
-51.68
-105.65
-155.22
-190.29
-203.33
-192.76
-164.14
-128.45
-98.86
-86.27
-95.84
-125.96
-169.11
-215.00
-253.74
-278.02
-283.80
-269.90
-237.48
-190.12
-134.00
-77.57
-30.14
0.82
12.45
7.50
-6.77
-21.69
-31.01
-32.85
-29.66
-25.86
-24.92
-27.55
-32.01
-35.65
-36.86
-36.22
-35.95
-38.47
-44.76
-53.41
-60.72
-62.07
-53.39
-32.40
0.74
43.44
90.88
136.41
172.83
194.11
197.56
185.03
162.39
137.15
115.72
101.29
93.65
90.77
90.67
92.63
96.74
102.46
107.44
107.73
99.52
81.22
54.40
22.72
-10.03
-42.33
-75.66
-113.39
-158.77
-212.84
-273.82
-337.51
-398.35
-450.32
-487.43
-504.37
-497.71
-467.51
-418.02
-357.38
-295.37
-240.60
-198.41
-170.02
-153.60
-146.11
-144.67
-146.69
-149.54
-150.03
-144.67
-130.69
-107.00
-74.47
-35.54
6.64
49.53
91.66
132.72
173.33
214.39
256.76
300.73
345.53
388.97
427.45
456.66
473.04
475.22
464.60
444.89
420.58
395.13
370.32
346.29
322.48
298.75
275.71
254.15
234.26
215.30
195.89
175.06
152.91
130.63
109.89
91.98
76.94
63.75
50.77
36.59
20.86
4.48
-10.72
-22.68
-30.05
-32.77
-32.08
-29.98
-28.33
-28.18
-29.37
-30.74
-30.82
-28.57
-23.76
-16.87
-8.80
-0.57
6.96
13.18
17.83
20.92
22.45
22.51
21.35
19.47
17.47
15.99
15.42
15.96
17.19
18.16
17.96
16.32
13.77
11.45
10.44
11.36
15.07
21.39
29.43
38.18
47.18
56.45
66.09
75.59
83.95
91.65
98.42
103.20
104.92
103.65
100.74
98.17
97.49
99.54
107.16
120.88
138.62
157.04
173.84
188.66
202.47
216.48
231.42
250.58
273.30
294.20
305.06
298.84
272.33
226.59
166.18
74.96
-43.86
-170.54
-279.63
-356.02
-398.94
-415.63
-414.64
-403.09
-386.21
-364.04
-337.74
-310.32
-285.39
-264.84
-248.24
-234.15
-221.38
-209.47
-195.44
-178.16
-158.53
-138.43
-119.23
-101.44
-85.55
-72.60
-64.16
-59.14
-56.83
-56.74
-58.50
-61.05
-63.18
-64.13
-64.01
-63.51
-62.47
-61.46
-61.07
-61.02
-59.19
-51.94
-35.47
-7.90
29.28
71.65
111.80
142.27
158.12
158.09
144.14
119.51
86.57
44.63
-4.12
-55.96
-104.79
-142.46
-160.89
-155.22
-126.15
-80.12
-27.46
21.56
58.67
79.48
82.89
69.80
42.01
1.88
-47.51
-102.23
-157.59
-209.07
-251.94
-281.07
-291.04
-277.32
-238.44
-178.11
-105.87
-35.17
20.13
50.68
55.07
40.37
19.67
7.32
14.04
43.58
92.11
150.01
205.49
248.47
273.46
280.35
273.02
257.22
238.19
219.11
200.81
182.81
164.85
148.07
134.72
126.34
122.01
117.67
107.94
89.21
62.19
31.92
4.89
-15.23
-30.62
-48.53
-77.08
-119.80
-172.45
-224.37
-263.78
-283.86
-285.96
-278.10
-269.82
-266.66
-267.52
-265.91
-254.30
-228.53
-190.02
-144.67
-99.75
-60.44
-28.08
-0.99
23.44
46.41
66.87
82.10
89.55
88.41
80.45
69.32
59.24
53.63
54.17
60.57
70.94
82.40
91.79
96.56
95.31
88.19
76.65
62.91
48.97
35.83
23.33
10.71
-2.39
-14.98
-24.52
-27.54
-21.11
-4.25
21.31
51.63
81.93
108.24
128.55
142.69
151.44
155.16
153.39
145.00
129.21
106.37
78.00
46.30
13.32
-19.21
-49.86
-76.91
-98.40
-112.61
-119.01
-118.63
-113.71
-106.70
-98.94
-90.20
-79.24
-65.35
-49.35
-33.93
-22.63
-18.33
-22.07
-32.46
-46.07
-58.36
-65.08
-63.88
-55.69
-45.10
-39.24
-45.11
-65.92
-98.80
-134.84
-162.20
-171.16
-158.81
-130.94
-100.10
-80.14
-79.84
-98.74
-127.21
-150.88
-157.53
-142.75
-111.76
-76.40
-49.07
-36.81
-38.85
-48.38
-57.05
-59.32
-53.98
-42.87
-28.17
-10.52
10.82
36.21
64.05
90.50
110.76
121.29
121.54
114.07
103.41
93.98
88.31
86.33
85.87
84.06
78.81
69.60
57.35
43.51
29.36
15.79
4.06
-3.67
-4.54
3.69
21.11
44.85
69.81
90.68
104.27
110.66
112.61
113.64
116.08
120.06
123.96
125.70
123.98
118.71
110.73
101.01
90.24
78.78
67.15
56.35
47.92
43.42
43.59
47.71
53.57
58.13
58.51
53.03
41.61
25.82
8.37
-7.56
-19.06
-23.99
-21.54
-12.41
1.33
16.84
31.26
42.51
49.61
52.55
51.79
47.77
40.61
30.55
18.24
4.97
-7.36
-17.05
-23.06
-25.49
-25.53
-24.90
-25.05
-26.35
-27.80
-27.12
-21.89
-10.60
6.17
25.34
41.66
49.02
42.20
18.94
-18.65
-63.88
-106.96
-137.96
-150.32
-143.21
-121.84
-95.26
-72.49
-58.92
-54.68
-55.63
-56.39
-53.59
-47.26
-40.10
-34.99
-32.74
-31.21
-26.51
-15.21
3.60
27.51
51.90
71.82
84.16
88.66
87.87
85.74
86.26
92.00
103.24
117.97
132.33
141.99
143.62
136.23
121.43
102.81
84.45
69.34
58.53
51.25
45.71
40.36
34.60
28.79
23.76
19.93
16.99
13.65
8.07
-1.70
-17.11
-38.80
-66.67
-99.83
-136.81
-175.44
-212.83
-245.11
-267.47
-274.80
-263.12
-231.23
-181.87
-121.69
-59.62
-5.30
33.32
51.92
50.68
33.98
8.76
-16.93
-35.98
-43.00
-36.97
-21.77
-5.10
3.77
-3.22
-30.01
-74.60
-128.44
-177.12
-207.13
-209.71
-182.41
-128.63
-55.80
26.37
107.22
176.64
228.10
255.82
257.44
237.41
207.60
184.62
183.47
211.06
264.10
332.57
398.38
441.98
450.02
420.35
362.49
293.75
232.41
171.45
113.93
64.71
25.11
-8.77
-40.92
-72.15
-96.54
-118.34
-142.99
-171.02
-201.57
-231.74
-257.66
-273.56
-276.28
-266.80
-249.37
-225.75
-191.53
-142.46
-77.71
-1.86
71.11
123.55
145.39
139.14
116.74
92.21
72.09
57.27
39.18
10.79
-30.58
-82.86
-141.40
-200.64
-247.52
-271.19
-268.00
-243.62
-208.35
-171.48
-137.60
-107.19
-78.75
-50.98
-25.52
-5.67
5.52
7.81
3.75
-2.18
-5.69
-3.83
4.51
17.85
32.97
46.24
54.97
57.57
53.90
44.30
29.78
12.79
-3.16
-14.02
-16.40
-9.37
3.89
16.83
21.54
12.81
-8.33
-34.49
-55.01
-60.57
-47.61
-20.18
12.68
40.09
53.84
51.16
34.40
6.46
-28.21
-63.76
-94.22
-113.55
-119.19
-113.08
-99.91
-84.28
-68.08
-49.03
-22.00
16.53
66.87
121.24
163.14
176.79
159.32
122.27
82.39
56.29
42.09
33.06
21.91
4.23
-20.05
-48.49
-77.92
-105.00
-125.24
-133.92
-125.84
-99.68
-59.49
-13.06
31.22
67.30
92.89
108.74
115.47
112.66
97.29
66.45
21.56
-29.35
-73.20
-96.79
-92.50
-62.66
-18.77
21.79
42.78
36.00
4.65
-38.11
-74.84
-90.64
-78.89
-42.77
6.39
53.77
86.51
97.47
86.62
59.87
26.55
-3.65
-22.98
-27.18
-15.73
8.70
41.44
77.00
109.77
134.56
146.87
143.61
124.13
91.22
51.40
13.66
-13.03
-22.79
-14.93
6.12
32.74
57.25
74.52
83.06
84.19
80.07
71.93
59.42
41.53
18.16
-8.78
-35.35
-57.02
-70.42
-74.77
-71.98
-65.62
-59.24
-54.85
-52.36
-50.07
-45.94
-39.03
-30.20
-21.88
-16.77
-16.39
-20.00
-24.92
-27.85
-26.67
-21.43
-13.98
-6.35
1.05
9.80
22.24
39.18
58.19
73.73
79.73
72.91
55.22
33.71
17.59
13.89
23.98
42.58
59.99
66.50
56.70
31.62
-1.94
-34.59
-58.00
-67.58
-63.05
-47.46
-25.48
-2.06
18.26
31.70
35.56
28.78
12.16
-11.76
-39.45
-67.24
-92.09
-111.66
-124.35
-129.07
-125.50
-114.44
-98.16
-80.32
-65.18
-56.74
-57.34
-66.55
-80.62
-93.18
-97.20
-87.85
-64.67
-32.15
1.77
28.50
41.67
38.81
21.65
-4.78
-33.47
-56.96
-68.87
-65.50
-47.13
-18.18
14.14
42.40
61.66
71.01
72.88
71.13
68.79
66.81
64.41
60.13
53.23
44.34
35.27
28.17
24.69
25.33
29.41
35.37
41.38
45.85
47.84
47.05
43.65
38.15
31.30
23.93
16.83
10.55
5.41
1.75
0.19
1.77
7.63
18.18
32.28
46.99
58.27
62.43
57.74
45.24
28.26
10.93
-3.53
-13.77
-20.13
-23.67
-25.20
-24.78
-22.20
-17.65
-12.30
-8.10
-6.96
-9.65
-15.36
-22.01
-27.15
-29.07
-27.35
-22.79
-17.25
-13.15
-13.09
-19.26
-32.56
-51.83
-73.72
-93.45
-106.30
-109.45
-102.98
-89.69
-73.66
-58.37
-45.30
-33.75
-21.82
-7.88
8.19
24.71
38.81
47.71
50.00
46.16
38.36
29.42
21.74
16.57
14.03
13.54
14.27
15.52
16.75
17.71
18.50
19.48
21.10
23.50
26.38
29.14
31.39
33.31
35.44
38.12
40.56
40.72
35.90
24.15
5.42
-18.10
-42.96
-65.78
-84.42
-98.05
-106.38
-108.92
-104.81
-93.50
-75.95
-55.26
-36.20
-23.38
-19.15
-22.18
-27.76
-29.92
-24.30
-10.42
7.91
24.25
32.35
28.71
13.78
-8.43
-31.85
-50.05
-57.68
-51.52
-31.36
-0.56
34.47
65.82
86.71
93.77
88.01
73.79
56.59
40.76
28.34
19.48
13.78
11.31
12.68
18.31
27.40
37.46
44.83
45.80
38.13
22.30
1.62
-18.56
-32.64
-37.07
-31.80
-20.44
-8.74
-2.26
-4.31
-15.02
-31.70
-50.07
-65.51
-74.01
-72.88
-61.21
-40.35
-14.06
12.13
32.36
42.30
40.62
29.35
12.89
-3.71
-16.41
-23.06
-23.35
-18.11
-8.61
3.72
17.34
30.37
40.78
47.00
48.71
47.41
46.23
48.99
58.95
77.47
103.54
134.05
164.64
190.86
209.08
216.92
213.57
199.91
178.45
152.72
126.33
101.57
78.47
54.88
27.62
-5.74
-45.49
-89.71
-135.48
-180.46
-223.55
-264.06
-299.91
-326.43
-336.98
-325.53
-289.61
-232.34
-161.78
-88.56
-22.49
29.82
65.76
86.36
95.17
97.12
97.44
100.48
108.53
121.19
135.56
147.25
152.15
147.74
134.03
113.51
90.48
69.75
55.08
47.54
44.61
40.65
28.92
4.66
-32.49
-77.71
-122.72
-159.15
-181.65
-189.45
-185.86
-176.31
-166.21
-159.48
-157.96
-161.51
-168.33
-175.42
-179.38
-177.30
-167.46
-149.57
-124.15
-91.96
-53.47
-9.37
38.88
88.48
135.54
176.21
207.70
228.90
240.05
241.77
234.31
217.42
190.96
155.80
114.56
71.60
32.08
0.64
-20.05
-29.93
-31.19
-27.05
-20.39
-12.72
-4.25
5.41
16.36
27.87
38.60
46.94
51.65
51.98
47.94
40.40
31.06
22.44
17.34
18.15
25.89
39.73
56.91
73.77
86.89
94.19
95.61
92.95
89.18
87.19
88.59
92.94
97.82
99.87
96.15
85.40
68.55
48.29
28.15
11.18
-1.08
-9.19
-15.76
-24.78
-40.28
-64.95
-98.80
-138.46
-177.56
-208.37
-223.96
-220.37
-197.80
-160.22
-113.87
-65.09
-18.63
22.93
58.64
88.08
110.55
124.90
130.20
126.43
114.86
97.74
77.81
57.63
39.36
24.74
15.03
11.04
12.87
19.94
30.88
43.58
55.21
62.28
60.86
47.35
19.73
-21.10
-70.43
-120.14
-160.68
-184.08
-186.59
-169.97
-140.54
-106.74
-76.13
-53.18
-38.76
-31.07
-27.33
-25.05
-22.78
-20.05
-17.08
-14.53
-13.24
-13.84
-16.35
-19.85
-22.75
-23.39
-20.93
-15.95
-10.37
-6.74
-7.20
-12.53
-21.82
-32.82
-42.76
-49.24
-50.91
-47.77
-41.08
-33.10
-26.50
-23.61
-25.71
-32.42
-41.70
-50.29
-54.83
-52.86
-43.49
-27.29
-5.61
20.16
48.82
79.11
109.22
136.50
157.86
170.75
174.33
169.78
159.57
145.92
129.05
106.59
74.70
30.45
-25.30
-86.58
-143.33
-184.70
-203.28
-198.12
-175.07
-144.16
-115.42
-95.22
-84.86
-81.75
-81.99
-82.94
-84.05
-86.05
-89.29
-92.46
-92.87
-87.96
-76.75
-60.59
-42.47
-25.46
-11.32
-0.20
8.97
17.45
26.15
35.43
45.47
56.24
67.44
78.35
87.67
94.22
97.57
98.49
98.63
99.83
102.82
106.81
109.80
109.54
104.67
95.35
82.94
69.08
54.87
40.37
24.93
7.88
-10.75
-29.82
-47.24
-60.57
-67.65
-67.25
-59.34
-45.26
-27.52
-9.43
5.63
15.19
18.45
16.63
12.47
8.92
7.85
9.09
10.39
8.53
0.84
-13.21
-31.40
-49.17
-61.28
-63.90
-56.24
-41.11
-23.83
-10.25
-4.47
-7.65
-17.91
-31.76
-45.68
-57.38
-65.96
-71.17
-72.43
-68.44
-57.80
-40.05
-16.69
8.76
31.82
48.70
57.80
60.20
58.92
57.26
57.40
59.61
62.53
64.31
63.58
60.01
54.30
47.61
41.01
34.99
29.25
22.64
13.66
1.17
-14.82
-32.63
-49.11
-60.53
-63.91
-58.07
-44.14
-24.99
-4.22
14.89
30.20
40.86
47.17
50.15
51.12
51.27
51.54
52.56
54.64
57.57
60.15
59.94
53.46
37.44
10.57
-25.00
-63.55
-97.42
-119.74
-127.01
-120.13
-103.38
-82.12
-60.56
-40.73
-22.84
-6.59
7.47
17.49
20.83
15.35
0.65
-21.49
-47.52
-73.05
-93.77
-106.15
-107.74
-97.37
-75.43
-44.12
-8.03
26.42
52.76
67.22
70.50
67.69
65.89
70.88
84.84
104.93
124.62
136.89
137.51
126.53
107.34
84.01
59.14
33.88
7.82
-19.71
-48.16
-74.87
-96.28
-109.87
-115.32
-113.85
-105.37
-89.03
-64.34
-32.48
3.56
40.04
74.33
106.47
130.78
144.37
147.81
143.28
131.55
112.80
89.07
64.53
43.41
27.43
16.35
8.09
0.38
-7.94
-16.30
-23.09
-26.92
-27.72
-26.65
-23.93
-20.13
-15.51
-10.08
-3.29
5.97
18.83
35.60
55.31
76.27
95.78
109.95
115.06
109.52
94.87
75.21
55.32
38.76
27.12
19.38
12.81
3.85
-10.32
-30.84
-57.62
-90.33
-128.93
-173.09
-215.13
-245.35
-256.07
