1595604487.00
64.000000
-0.00
-0.00
-0.00
-0.00
-0.00
-0.00
-0.00
-0.00
-0.00
-0.00
0.00
0.01
0.01
-0.00
-0.03
-0.05
-0.05
0.00
0.13
0.36
0.66
1.01
1.37
1.72
2.06
2.40
2.79
3.24
3.80
4.42
5.06
5.66
6.20
6.68
7.15
7.68
8.31
9.14
10.09
11.04
11.88
12.56
13.14
13.76
14.65
15.96
17.91
20.32
22.90
25.38
27.58
29.57
31.68
34.32
37.81
42.54
48.15
54.10
59.83
64.97
69.58
74.14
79.34
85.71
93.76
103.00
112.62
121.73
129.77
136.75
143.30
150.75
157.77
166.64
177.95
191.79
206.97
220.57
228.25
225.36
208.53
176.87
132.76
80.05
23.07
-34.94
-92.44
-149.16
-205.23
-260.37
-313.74
-363.87
-409.83
-450.91
-486.50
-515.74
-537.23
-549.22
-549.96
-538.37
-514.21
-478.67
-433.88
-382.44
-327.00
-269.81
-212.59
-156.59
-102.85
-52.24
-5.73
35.80
71.69
101.67
125.88
144.81
159.19
169.71
177.00
181.44
183.34
182.90
180.42
176.23
170.74
164.36
157.44
150.22
142.84
135.38
127.87
120.37
112.93
105.62
98.53
91.69
85.14
78.91
73.00
67.41
62.17
57.29
52.76
48.61
44.81
41.37
38.28
35.54
33.14
31.08
29.34
27.94
26.85
26.07
25.58
25.39
25.47
25.83
26.44
27.27
28.30
29.47
30.68
31.85
32.83
33.47
33.60
33.08
31.78
29.61
26.57
22.70
18.06
12.83
7.23
1.50
-4.10
-9.32
-13.95
-17.84
-20.87
-23.02
-24.26
-24.68
-24.36
-23.44
-22.02
-20.24
-18.18
-15.94
-13.58
-11.13
-8.64
-6.15
-3.67
-1.22
1.22
3.67
6.13
8.65
11.29
13.99
16.76
19.58
22.48
25.47
28.59
31.86
35.35
39.12
43.09
47.21
51.47
55.85
60.38
65.08
70.00
75.21
80.82
86.66
92.63
98.65
104.69
110.72
116.72
122.70
128.69
134.74
140.56
145.92
150.61
154.39
157.00
158.05
156.98
152.99
147.62
141.38
134.61
127.50
120.19
112.81
105.45
98.22
91.25
84.71
78.44
72.34
66.39
60.60
55.01
49.68
44.69
40.15
36.18
32.61
29.34
26.27
23.35
20.54
17.84
15.29
12.91
10.78
8.76
6.76
4.75
2.69
0.64
-1.35
-3.19
-4.82
-6.18
-7.38
-8.51
-9.66
-10.89
-12.20
-13.50
-14.67
-15.61
-16.35
-17.03
-17.90
-19.20
-21.10
-23.59
-26.52
-29.62
-32.69
-35.70
-38.87
-42.55
-47.13
-52.82
-59.50
-66.74
-73.99
-80.83
-87.19
-93.44
-100.28
-108.41
-118.25
-129.69
-142.18
-154.99
-167.47
-179.41
-191.08
-203.09
-216.28
-231.64
-250.06
-272.01
-296.98
-323.01
-346.68
-363.78
-370.70
-365.69
-349.64
-325.66
-297.84
-269.70
-243.20
-218.73
-195.87
-174.31
-154.28
-136.38
-120.89
-107.42
-94.99
-82.55
-69.65
-56.58
-44.27
-33.65
-25.18
-18.55
-12.99
-7.60
-1.79
4.52
10.95
16.94
21.90
25.52
27.77
28.97
29.60
30.15
30.94
31.99
33.18
34.25
35.07
35.64
36.09
36.51
36.97
37.49
38.00
38.41
38.59
38.42
37.71
36.44
34.71
32.75
30.91
29.40
28.29
27.48
26.82
26.19
25.60
25.13
24.87
24.86
25.05
25.32
25.52
25.53
25.28
24.84
24.35
24.05
24.15
24.70
25.60
26.57
27.27
27.47
27.14
26.42
25.53
24.70
24.03
23.59
23.38
23.51
24.13
25.37
27.28
29.62
32.03
34.01
35.13
35.20
34.29
32.69
30.74
28.68
26.58
24.38
22.00
19.39
16.60
13.71
10.88
8.30
6.24
4.94
4.53
4.98
6.08
7.51
8.93
10.06
10.75
10.93
10.57
9.74
8.53
7.13
5.80
4.81
4.39
4.62
5.29
6.03
6.34
5.84
4.47
2.47
0.35
-1.50
-3.05
-4.64
-6.76
-9.77
-13.68
-18.16
-22.73
-26.98
-30.74
-34.03
-37.00
-39.87
-42.99
-46.83
-51.88
-58.43
-66.24
-74.42
-81.49
-86.03
-87.15
-84.97
-80.54
-75.42
-71.05
-68.26
-67.14
-67.25
-67.95
-68.61
-68.67
-67.54
-64.52
-58.87
-49.92
-37.22
-20.68
-0.64
22.08
46.05
69.37
89.93
105.89
116.20
120.79
120.43
116.28
109.37
100.46
90.09
78.96
68.07
58.72
52.09
48.79
48.49
50.05
51.93
52.76
51.75
48.85
44.55
39.52
34.32
29.21
24.19
19.19
14.23
9.61
5.79
3.20
1.91
1.50
1.20
0.30
-1.49
-3.87
-6.09
-7.44
-7.54
-6.59
-5.13
-3.73
-2.69
-1.97
-1.30
-0.54
0.32
1.00
1.23
0.83
-0.09
-1.23
-2.16
-2.58
-2.33
-1.40
0.12
2.10
4.47
7.16
9.93
12.43
14.23
14.95
14.43
12.80
10.37
7.52
4.60
1.82
-0.62
-2.57
-3.82
-4.18
-3.58
-2.13
-0.17
1.80
3.27
3.97
3.88
3.23
2.30
1.26
0.05
-1.52
-3.60
-6.12
-8.78
-11.15
-12.94
-14.06
-14.69
-14.99
-15.11
-15.01
-14.64
-14.01
-13.38
-13.10
-13.54
-14.84
-17.02
-20.00
-23.68
-28.05
-33.02
-38.38
-43.74
-48.60
-52.51
-55.10
-56.15
-55.50
-53.13
-48.97
-43.03
-35.32
-25.88
-14.87
-2.63
10.21
22.60
33.08
40.05
42.23
39.21
31.78
21.87
12.02
4.61
1.14
1.78
5.69
11.42
17.66
23.66
29.13
33.99
38.07
40.95
42.24
41.81
40.03
37.58
35.20
33.37
32.07
30.93
29.49
27.44
24.85
22.05
19.41
17.17
15.33
13.74
12.20
10.57
8.85
7.11
5.48
4.07
2.95
2.09
1.43
0.88
0.35
-0.21
-0.86
-1.55
-2.27
-2.98
-3.63
-4.16
-4.48
-4.51
-4.18
-3.55
-2.84
-2.35
-2.34
-2.86
-3.66
-4.28
-4.33
-3.61
-2.32
-0.92
0.18
0.83
1.20
1.64
2.41
3.50
4.65
5.56
6.11
6.32
6.33
6.18
5.81
5.10
4.01
2.63
1.13
-0.40
-1.89
-3.36
-4.80
-6.07
-7.05
-7.63
-7.88
-8.00
-8.29
-8.83
-9.55
-10.15
-10.28
-9.73
-8.55
-6.96
-5.25
-3.63
-2.15
-0.73
0.72
2.13
3.33
4.12
4.42
4.29
3.95
3.62
3.43
3.37
3.34
3.30
3.21
3.10
2.99
2.88
2.74
2.56
2.36
2.21
2.23
2.53
3.21
4.23
5.33
6.15
6.33
5.70
4.38
2.72
1.15
-0.06
-0.80
-1.20
-1.42
-1.56
-1.61
-1.56
-1.53
-1.71
-2.36
-3.62
-5.32
-7.02
-8.14
-8.11
-6.62
-3.76
-0.01
3.83
6.99
8.92
9.57
9.27
8.62
8.22
8.37
9.07
10.07
11.11
12.08
13.02
14.04
15.13
16.09
16.60
16.33
15.20
13.34
11.09
8.83
6.83
5.22
3.92
2.81
1.76
0.66
-0.59
-1.97
-3.42
-4.84
-6.19
-7.53
-8.99
-10.74
-12.83
-15.18
-17.49
-19.45
-20.82
-21.50
-21.56
-21.19
-20.60
-19.99
-19.47
-18.96
-18.30
-17.25
-15.67
-13.61
-11.23
-8.80
-6.45
-4.20
-1.90
0.54
3.08
5.47
7.34
8.49
8.90
8.84
8.64
8.54
8.56
8.61
8.57
8.49
8.62
9.24
10.46
12.14
13.79
14.87
14.98
14.11
12.55
10.86
9.51
8.81
8.77
9.14
9.48
9.39
8.61
7.12
5.14
2.95
0.81
-1.22
-3.27
-5.47
-7.90
-10.45
-12.92
-15.15
-17.08
-18.78
-20.25
-21.37
-21.83
-21.32
-19.79
-17.46
-14.83
-12.32
-10.10
-7.99
-5.60
-2.58
1.08
5.02
8.68
11.53
13.35
14.24
14.60
14.81
15.14
15.56
15.86
15.81
15.23
14.19
12.94
11.81
11.07
10.85
11.05
11.46
11.79
11.86
11.58
10.99
10.17
9.22
8.17
7.02
5.77
4.39
2.87
1.29
-0.25
-1.62
-2.68
-3.35
-3.59
-3.53
-3.31
-3.20
-3.52
-4.50
-6.29
-8.80
-11.64
-14.30
-16.29
-17.32
-17.45
-17.00
-16.36
-15.74
-15.12
-14.20
-12.66
-10.32
-7.26
-3.79
-0.25
3.07
6.09
8.80
11.24
13.38
15.13
16.39
17.14
17.52
17.81
18.23
18.84
19.50
19.95
19.90
19.27
18.09
16.63
15.12
13.81
12.84
12.23
11.96
11.88
11.80
11.54
11.02
10.29
9.52
8.85
8.31
7.82
7.14
6.12
4.66
2.86
0.89
-1.09
-2.93
-4.65
-6.26
-7.86
-9.51
-11.23
-13.00
-14.78
-16.46
-17.91
-19.01
-19.60
-19.60
-18.95
-17.65
-15.74
-13.30
-10.49
-7.48
-4.53
-1.82
0.58
2.74
4.86
7.09
9.47
11.87
14.04
15.76
16.97
17.80
18.50
19.25
20.03
20.68
20.97
20.78
20.13
19.22
18.27
17.40
16.64
15.89
14.93
13.53
11.62
9.21
6.62
4.27
2.66
2.05
2.41
3.34
4.21
4.47
3.82
2.27
0.06
-2.43
-4.94
-7.26
-9.28
-10.92
-12.13
-12.99
-13.69
-14.53
-15.70
-17.25
-18.92
-20.24
-20.79
-20.35
-19.02
-17.15
-15.15
-13.26
-11.53
-9.83
-8.00
-5.93
-3.65
-1.22
1.26
3.69
6.01
8.12
10.01
11.65
13.08
14.39
15.64
16.85
17.93
18.75
19.20
19.26
19.01
18.60
18.14
17.70
17.30
16.97
16.80
16.84
17.05
17.19
16.94
16.04
14.49
12.58
10.70
9.11
7.87
6.80
5.73
4.52
3.14
1.61
-0.10
-2.03
-4.17
-6.41
-8.56
-10.47
-12.18
-13.81
-15.46
-17.08
-18.46
-19.33
-19.52
-19.08
-18.19
-16.99
-15.49
-13.53
-10.93
-7.67
-3.97
-0.22
3.07
5.53
7.03
7.70
7.85
7.89
8.16
8.79
9.72
10.69
11.42
11.68
11.46
10.88
10.22
9.69
9.40
9.36
9.43
9.50
9.47
9.35
9.17
8.99
8.80
8.53
8.12
7.47
6.55
5.37
3.99
2.42
0.72
-1.12
-3.05
-4.95
-6.68
-8.14
-9.27
-10.15
-11.01
-12.16
-13.88
-16.36
-19.41
-22.59
-25.20
-26.60
-26.44
-24.84
-22.30
-19.44
-16.70
-14.15
-11.58
-8.73
-5.48
-1.97
1.50
4.67
7.42
9.71
11.55
12.90
13.73
14.10
14.19
14.36
14.94
16.09
17.71
19.50
21.06
22.14
22.59
22.45
21.85
20.93
19.85
18.73
17.73
16.90
16.18
15.37
14.17
12.37
9.98
7.25
4.58
2.34
0.70
-0.48
-1.51
-2.72
-4.26
-6.01
-7.71
-9.12
-10.19
-11.09
-12.14
-13.60
-15.58
-17.76
-19.62
-20.53
-20.02
-17.96
-14.56
-10.25
-5.50
-0.83
3.47
7.16
10.24
13.04
16.25
20.85
27.71
36.94
47.34
56.32
60.47
56.81
43.98
22.95
-3.33
-30.97
-56.58
-78.26
-95.65
-109.38
-120.30
-128.85
-135.08
-138.88
-140.10
-138.52
-133.78
-125.33
-112.90
-96.99
-79.15
-61.81
-47.38
-37.28
-31.26
-27.48
-23.26
-16.34
-5.80
7.55
21.61
33.93
42.67
47.14
47.78
45.75
42.33
38.65
35.61
34.19
35.59
41.31
52.76
70.79
95.11
123.99
154.52
183.40
207.81
226.17
238.27
244.69
246.10
242.76
234.39
220.62
201.61
178.13
151.38
122.38
91.65
59.29
25.50
-8.79
-41.77
-71.05
-94.46
-110.78
-120.17
-123.90
-123.88
-122.08
-119.97
-118.52
-118.20
-119.20
-121.52
-124.89
-128.74
-132.23
-134.41
-134.46
-131.92
-126.87
-119.88
-111.82
-103.53
-95.49
-87.65
-79.53
-70.62
-60.71
-50.21
-40.04
-31.36
-25.05
-21.41
-20.05
-20.19
-21.07
-22.37
-24.38
-27.74
-32.94
-39.71
-46.71
-51.77
-52.77
-48.52
-39.34
-26.95
-13.65
-1.37
9.04
17.80
25.65
33.23
40.64
47.47
53.19
57.56
60.68
62.92
64.83
66.89
69.63
73.36
78.15
83.49
88.14
90.08
86.92
76.68
58.52
33.34
3.56
-27.61
-57.10
-82.93
-104.41
-121.82
-135.75
-146.58
-154.20
-158.30
-158.76
-155.88
-150.42
-143.27
-135.12
-126.22
-116.56
-105.93
-94.23
-81.58
-68.24
-54.55
-40.80
-27.24
-14.28
-2.43
7.72
15.82
21.98
26.83
31.33
36.29
41.97
48.06
53.84
58.69
62.32
64.90
66.84
68.56
70.38
72.63
75.77
80.40
86.98
95.47
105.08
114.39
121.82
126.36
127.90
127.15
125.09
122.36
118.95
114.43
108.50
101.55
94.72
89.57
87.37
88.58
92.74
98.80
105.65
112.60
119.58
126.89
134.75
142.90
150.44
155.99
158.15
156.18
150.21
141.34
131.06
120.81
111.35
102.64
93.92
84.02
71.71
56.09
36.88
14.65
-9.08
-32.08
-51.93
-66.66
-75.32
-78.07
-75.94
-70.41
-62.94
-54.82
-47.00
-40.16
-34.58
-30.07
-25.96
-21.28
-15.10
-7.00
2.72
13.14
23.06
31.54
38.23
43.45
47.89
52.17
56.43
60.21
62.73
63.30
61.78
58.62
54.58
50.39
46.37
42.47
38.50
34.33
29.88
25.06
19.49
12.57
3.78
-7.00
-19.09
-31.16
-41.50
-48.57
-51.40
-50.00
-45.32
-39.09
-33.42
-30.11
-30.17
-33.41
-38.64
-44.20
-48.59
-51.05
-51.69
-51.19
-50.25
-49.22
-47.97
-46.08
-43.13
-38.98
-33.79
-27.95
-21.95
-16.22
-11.13
-6.93
-3.79
-1.69
-0.42
0.46
1.45
2.84
4.63
6.47
7.77
7.98
6.74
3.97
-0.22
-5.55
-11.43
-16.97
-21.11
-22.95
-22.37
-20.36
-19.08
-21.20
-29.10
-44.02
-65.62
-91.96
-119.77
-145.19
-164.61
-175.62
-177.77
-172.75
-163.76
-154.36
-147.24
-143.48
-142.64
-143.48
-144.89
-146.36
-147.90
-149.65
-151.51
-153.02
-153.57
-152.74
-150.38
-146.53
-141.22
-134.30
-125.53
-114.73
-102.15
-88.60
-75.41
-64.05
-55.56
-50.18
-47.07
-44.76
-41.67
-36.83
-30.13
-22.23
-14.11
-6.63
-0.27
4.87
8.82
11.64
13.41
14.34
14.82
15.38
16.33
17.54
18.33
17.76
15.01
9.86
2.81
-4.98
-12.13
-17.51
-20.42
-20.67
-18.40
-13.79
-6.95
2.07
13.18
26.08
40.17
54.68
68.86
82.14
94.29
105.26
115.01
123.39
130.20
135.38
139.26
142.59
146.32
151.06
156.66
162.04
165.57
165.74
161.83
154.30
144.54
134.26
124.72
116.23
108.07
98.94
87.65
73.47
56.16
35.62
11.80
-14.89
-43.08
-70.14
-92.83
-108.53
-116.56
-118.44
-117.11
-115.28
-114.17
-113.16
-110.82
-106.24
-99.93
-93.53
-88.77
-86.42
-85.86
-85.66
-84.48
-81.58
-76.78
-70.09
-61.51
-50.91
-38.32
-24.19
-9.36
5.06
18.14
29.33
38.62
46.43
53.42
60.30
67.73
76.24
86.02
96.84
107.91
118.07
126.12
131.30
133.59
133.76
133.14
133.01
134.27
137.03
140.74
144.56
147.74
149.96
151.28
151.80
151.44
149.72
145.88
139.28
129.72
117.45
102.94
86.44
68.00
47.80
26.68
6.33
-11.19
-24.33
-33.02
-38.86
-44.25
-51.16
-60.09
-69.82
-78.40
-84.24
-87.06
-87.89
-88.32
-89.51
-91.68
-94.10
-95.74
-95.91
-94.51
-92.07
-89.41
-87.26
-85.99
-85.60
-85.74
-86.03
-86.22
-86.32
-86.62
-87.49
-89.15
-91.38
-93.49
-94.47
-93.37
-89.67
-83.50
-75.63
-67.21
-59.25
-52.30
-46.35
-41.04
-36.03
-31.38
-27.66
-25.66
-25.97
-28.45
-32.14
-35.51
-37.08
-36.02
-32.43
-27.13
-21.15
-15.11
-8.95
-2.12
5.98
15.47
25.86
36.17
45.41
52.99
58.91
63.70
68.03
72.56
77.54
82.81
87.84
91.96
94.51
94.97
93.19
89.44
84.61
80.37
78.96
82.59
92.26
106.45
120.76
128.96
125.41
107.93
79.42
47.25
20.35
5.61
5.09
15.57
30.53
43.09
48.72
46.12
36.62
22.63
6.30
-11.09
-28.90
-46.69
-63.94
-80.06
-94.62
-107.55
-118.79
-127.81
-133.04
-131.82
-121.14
-98.96
-65.54
-24.05
19.84
59.74
90.51
109.73
118.03
118.08
113.14
105.82
97.76
89.86
82.90
77.56
74.14
71.97
69.26
63.57
52.91
36.69
16.10
-6.20
-26.95
-43.37
-53.82
-58.20
-57.77
-54.58
-50.66
-47.21
-44.27
-40.84
-35.73
-28.32
-19.09
-9.48
-1.22
4.54
7.76
9.41
10.77
12.45
13.93
13.66
9.86
1.63
-10.44
-24.28
-37.24
-47.18
-53.34
-56.28
-57.17
-56.81
-55.08
-51.24
-44.67
-35.75
-25.93
-17.23
-11.20
-8.18
-7.30
-7.09
-6.34
-4.71
-2.67
-0.94
0.10
0.70
1.61
3.52
6.66
10.65
14.77
18.34
21.00
22.84
24.18
25.32
26.41
27.49
28.56
29.65
30.71
31.48
31.31
29.34
24.76
17.26
7.27
-4.09
-15.37
-25.29
-33.00
-38.24
-41.14
-42.13
-41.76
-40.66
-39.47
-38.79
-39.01
-40.12
-41.68
-42.92
-42.95
-40.95
-36.32
-28.89
-18.87
-6.89
6.03
18.58
29.46
37.48
41.82
42.21
38.92
32.73
24.89
16.86
9.98
5.28
3.13
3.33
5.17
7.86
10.76
13.60
16.42
19.37
22.47
25.50
28.04
29.64
30.02
29.03
26.68
22.97
18.03
12.17
6.05
0.63
-3.04
-4.22
-2.77
0.85
5.66
10.62
14.82
17.65
18.73
17.86
14.97
10.21
4.08
-2.53
-8.44
-12.40
-13.46
-11.37
-6.90
-1.65
2.43
3.92
2.51
-0.78
-4.07
-5.56
-4.26
-0.32
5.32
11.56
17.80
23.98
30.34
36.97
43.43
48.93
52.69
54.45
54.64
54.29
54.66
56.79
61.15
67.60
75.44
83.67
91.23
97.20
101.00
102.41
101.64
99.38
96.64
94.34
92.96
92.23
91.30
89.25
85.61
80.74
75.51
70.75
66.62
62.34
56.53
47.96
36.32
22.54
8.60
-3.16
-10.82
-13.56
-11.95
-7.83
-3.85
-2.58
-5.62
-13.13
-23.96
-36.34
-48.86
-61.06
-73.32
-86.22
-99.54
-111.86
-120.85
-124.13
-120.45
-110.10
-94.85
-77.13
-59.27
-42.94
-28.85
-16.95
-6.68
2.57
10.99
18.14
22.88
23.85
20.17
12.08
1.13
-10.43
-20.61
-28.64
-35.15
-41.62
-49.31
-58.46
-68.15
-76.83
-83.30
-87.29
-89.58
-91.42
-93.87
-97.25
-101.05
-104.33
-106.06
-105.43
-101.76
-94.51
-83.15
-67.37
-47.30
-23.76
1.66
26.85
49.57
67.89
80.60
87.50
89.24
87.06
82.30
76.03
68.79
60.59
51.21
40.56
28.95
17.25
6.77
-1.07
-5.08
-4.71
-0.31
6.87
14.95
21.85
25.95
26.42
23.42
17.96
11.54
5.74
1.87
0.76
2.64
7.13
13.50
20.81
28.24
35.32
41.88
47.93
53.37
57.79
60.55
61.10
59.26
55.45
50.60
45.93
42.42
40.60
40.36
41.08
41.87
41.91
40.58
37.60
33.08
27.51
21.62
16.22
11.96
9.11
7.47
6.48
5.46
3.84
1.39
-1.80
-5.47
-9.55
-14.30
-20.48
-29.10
-41.05
-56.73
-75.52
-95.81
-115.14
-130.78
-140.22
-141.71
-134.63
-119.61
-98.61
-74.57
-50.84
-30.39
-15.09
-5.18
0.49
3.74
6.22
8.63
10.66
11.34
9.89
6.26
1.24
-3.83
-7.70
-9.61
-9.56
-8.11
-6.04
-3.99
-2.19
-0.58
1.04
2.75
4.45
5.84
6.68
6.97
7.04
7.42
8.57
10.64
13.36
16.21
18.66
20.49
21.76
22.70
23.42
23.76
23.36
21.87
19.38
16.40
13.83
12.60
13.23
15.70
19.43
23.51
26.96
29.00
29.08
27.01
22.92
17.32
11.01
4.98
0.13
-3.05
-4.54
-4.80
-4.47
-3.99
-3.46
-2.62
-1.10
1.25
4.17
7.06
9.16
9.91
9.09
6.93
3.91
0.57
-2.68
-5.61
-8.12
-10.15
-11.70
-12.77
-13.45
-13.89
-14.32
-14.90
-15.72
-16.72
-17.78
-18.72
-19.40
-19.73
-19.60
-19.00
-17.85
-16.21
-14.32
-12.54
-11.31
-10.91
-11.33
-12.20
-12.90
-12.76
-11.37
-8.63
-4.79
-0.25
4.54
9.25
13.62
17.51
20.82
23.53
25.52
26.61
26.50
24.86
21.55
16.72
10.93
4.94
-0.49
-4.86
-8.00
-10.06
-11.29
-11.92
-12.06
-11.86
-11.47
-11.10
-10.93
-11.09
-11.55
-12.25
-13.18
-14.34
-15.85
-17.71
-19.80
-21.83
-23.46
-24.41
-24.65
-24.40
-24.10
-24.20
-24.93
-26.13
-27.28
-27.77
-27.10
-25.17
-22.26
-18.83
-15.32
-11.89
-8.50
-4.94
-1.06
3.11
7.37
11.46
15.14
18.23
20.66
22.34
23.29
23.56
23.40
23.13
23.14
23.70
24.78
26.13
27.23
27.56
26.76
24.74
21.71
18.06
14.29
10.82
8.02
6.13
5.30
5.51
6.47
7.60
8.08
7.09
4.02
-1.15
-7.94
-15.32
-22.15
-27.44
-30.63
-31.65
-30.84
-28.81
-26.21
-23.65
-21.49
-19.81
-18.37
-16.74
-14.49
-11.41
-7.69
-3.84
-0.54
1.67
2.55
2.29
1.29
0.04
-1.08
-1.88
-2.33
-2.49
-2.49
-2.47
-2.57
-2.90
-3.58
-4.59
-5.89
-7.30
-8.59
-9.49
-9.74
-9.18
-7.83
-5.84
-3.49
-1.11
1.05
2.77
3.88
4.23
3.62
1.85
-1.03
-4.68
-8.42
-11.40
-12.95
-12.81
-11.29
-9.09
-7.02
-5.61
-4.92
-4.55
-3.75
-1.72
2.22
8.24
15.95
24.30
31.69
36.41
37.07
33.16
25.17
14.46
2.73
-8.52
-18.33
-26.28
-32.32
-36.53
-38.94
-39.60
-38.66
-36.47
-33.58
-30.66
-28.30
-26.94
-26.76
-27.71
-29.65
-32.41
-35.87
-39.86
-44.09
-47.98
-50.78
-51.70
-50.30
-46.69
-41.53
-35.80
-30.39
-25.80
-22.07
-18.85
-15.54
-11.52
-6.31
0.29
8.11
16.57
24.79
31.82
36.95
39.89
40.79
40.10
38.38
36.13
33.72
31.44
29.45
27.88
26.82
26.31
26.34
26.79
27.48
28.05
28.11
27.28
25.46
22.87
20.08
17.80
16.62
16.79
18.11
20.03
21.82
22.88
22.86
21.75
19.80
17.40
14.85
12.34
9.83
7.15
4.10
0.54
-3.49
-7.79
-11.91
-15.33
-17.46
-17.86
-16.34
-13.07
-8.56
-3.52
1.42
5.83
9.63
12.99
16.27
19.74
23.50
27.34
30.73
32.89
33.00
30.44
25.03
17.16
7.79
-1.86
-10.58
-17.45
-21.97
-24.08
-23.94
-21.91
-18.47
-14.28
-10.12
-6.79
-4.93
-4.92
-6.72
-9.97
-14.06
-18.22
-21.73
-24.01
-24.77
-24.16
-22.71
-21.17
-20.16
-20.00
-20.53
-21.29
-21.80
-21.79
-21.24
-20.27
-18.99
-17.44
-15.62
-13.61
-11.71
-10.22
-9.38
-9.21
-9.41
-9.55
-9.27
-8.37
-6.87
-5.10
-3.41
-2.18
-1.61
-1.76
-2.47
-3.52
-4.64
-5.58
-6.22
-6.57
-6.72
-6.80
-6.83
-6.71
-6.32
-5.58
-4.65
-3.91
-3.96
-5.31
-8.12
-12.07
-16.42
-20.36
-23.32
-25.21
-26.35
-27.23
-28.21
-29.42
-30.68
-31.77
-32.48
-32.84
-32.87
-32.58
-31.81
-30.29
-27.78
-24.30
-20.16
-15.84
-11.86
-8.49
-5.69
-3.20
-0.75
1.76
4.22
6.49
8.52
10.38
12.30
14.35
16.38
18.04
18.91
18.80
17.83
16.43
15.12
14.32
14.19
14.58
15.17
15.58
15.54
14.96
13.93
12.62
11.23
9.90
8.62
7.37
6.08
4.76
3.45
2.31
1.44
0.82
0.30
-0.37
-1.39
-2.92
-4.86
-6.93
-8.68
-9.66
-9.63
-8.58
-6.78
-4.55
-2.24
-0.01
2.06
3.99
5.78
7.39
8.81
9.99
10.95
11.70
12.29
12.73
12.96
12.99
12.79
12.44
11.94
11.36
10.69
10.00
9.39
9.03
9.06
9.56
10.40
11.26
11.70
11.42
10.34
8.71
6.90
5.30
4.04
3.08
2.28
1.55
0.98
0.69
0.80
1.32
2.16
3.15
4.14
4.97
5.53
5.69
5.40
4.76
4.05
3.66
3.96
5.16
7.16
9.68
12.36
14.87
17.00
18.64
19.74
20.22
20.02
19.04
17.21
14.37
10.33
4.90
-1.96
-9.95
-18.32
-26.05
-32.09
-35.70
-36.66
-35.30
-32.26
-28.22
-23.67
-18.90
-14.07
-9.37
-5.04
-1.38
1.32
2.93
3.37
2.64
0.81
-2.04
-5.70
-9.85
-14.04
-17.86
-20.98
-23.31
-25.01
-26.43
-27.93
-29.70
-31.64
-33.43
-34.59
-34.63
-33.27
-30.41
-26.15
-20.75
-14.54
-7.84
-1.03
5.52
11.44
16.43
20.29
23.03
24.80
25.79
26.22
26.27
26.03
25.53
24.74
23.67
22.40
21.05
19.79
18.81
18.24
18.13
18.39
18.86
19.28
19.39
18.97
17.99
16.51
14.81
13.16
11.81
10.83
10.12
9.47
8.63
7.46
5.92
4.06
1.90
-0.61
-3.64
-7.30
-11.59
-16.23
-20.71
-24.42
-26.87
-27.83
-27.41
-25.98
-23.94
-21.61
-19.14
-16.52
-13.74
-10.88
-8.12
-5.68
-3.70
-2.19
-0.93
0.34
1.91
3.83
5.95
7.98
9.70
10.98
11.89
12.53
12.98
13.20
13.10
12.68
12.13
11.73
11.74
12.29
13.19
14.11
14.70
14.68
13.95
12.56
10.56
8.00
5.00
1.67
-1.76
-5.05
-8.08
-10.78
-13.18
-15.37
-17.30
-18.82
-19.69
-19.71
-18.76
-16.90
-14.32
-11.30
-8.18
-5.31
-3.03
-1.63
-1.14
-1.41
-2.06
-2.72
-3.14
-3.31
-3.40
-3.59
-3.85
-3.97
-3.67
-2.76
-1.28
0.55
2.51
4.40
6.16
7.74
8.99
9.68
9.59
8.66
7.11
5.36
3.84
2.89
2.55
2.59
2.62
2.26
1.26
-0.46
-2.73
-5.35
-8.07
-10.73
-13.19
-15.35
-17.11
-18.41
-19.28
-19.83
-20.31
-21.01
-22.15
-23.78
-25.69
-27.44
-28.57
-28.64
-27.43
-24.92
-21.30
-16.86
-11.95
-6.89
-1.95
2.68
6.90
10.63
13.80
16.37
18.36
19.82
20.90
21.76
22.52
23.22
23.83
24.25
24.39
24.27
23.99
23.71
23.53
23.42
23.20
22.62
21.49
19.85
17.91
15.92
14.01
12.06
9.81
7.02
3.72
0.21
-3.02
-5.62
-7.51
-8.86
-9.95
-11.00
-12.03
-12.97
-13.73
-14.36
-15.05
-16.06
-17.57
-19.54
-21.69
-23.57
-24.67
-24.59
-23.19
-20.58
-17.08
-13.08
-8.95
-4.92
-1.13
2.32
5.33
7.79
9.57
10.71
11.32
11.68
12.06
12.62
13.34
14.06
14.54
14.60
14.23
13.47
12.54
11.66
10.98
10.56
10.25
9.87
9.19
8.16
6.86
5.56
4.52
3.87
3.55
3.29
2.75
1.67
-0.02
-2.18
-4.57
-6.97
-9.24
-11.32
-13.18
-14.84
-16.37
-17.83
-19.39
-21.18
-23.29
-25.70
-28.16
-30.37
-32.03
-32.98
-33.18
-32.78
-31.96
-30.86
-29.57
-28.09
-26.38
-24.39
-22.10
-19.53
-16.78
-13.99
-11.25
-8.66
-6.29
-4.15
-2.27
-0.63
0.79
1.99
3.07
4.09
5.10
6.19
7.43
8.88
10.59
12.49
14.43
16.18
17.53
18.36
18.70
18.65
18.29
17.67
16.73
15.44
13.81
11.95
9.95
7.92
5.84
3.61
1.10
-1.77
-5.01
-8.49
-12.05
-15.60
-19.11
-22.65
-26.21
-29.62
-32.46
-34.07
-33.79
-31.20
-26.25
-19.35
-11.18
-2.59
5.69
13.10
19.30
24.12
27.53
29.61
30.54
30.55
29.96
29.07
28.13
27.25
26.48
25.73
24.98
24.25
23.62
23.17
22.89
22.70
22.44
22.00
21.37
20.61
19.78
18.83
17.66
16.20
14.52
12.86
11.55
10.80
10.60
10.67
10.57
9.92
8.51
6.43
3.88
1.14
-1.65
-4.47
-7.39
-10.51
-13.88
-17.39
-20.79
-23.73
-25.93
-27.19
-27.53
-27.07
-26.05
-24.71
-23.16
-21.45
-19.51
-17.29
-14.78
-12.06
-9.29
-6.63
-4.23
-2.16
-0.41
1.10
2.48
3.82
5.10
6.28
7.34
8.34
9.36
10.41
11.40
12.22
12.74
12.97
13.04
13.17
13.49
13.98
14.43
14.58
14.31
13.68
12.88
12.08
11.35
10.54
9.44
7.89
5.85
3.51
1.14
-1.02
-2.88
-4.50
-6.03
-7.58
-9.14
-10.72
-12.20
-13.53
-14.76
-15.94
-17.06
-18.05
-18.64
-18.57
-17.62
-15.73
-13.07
-9.96
-6.80
-3.93
-1.52
0.43
2.09
3.58
4.97
6.16
6.95
7.24
7.11
6.80
6.66
6.91
7.51
8.28
8.91
9.29
9.50
9.75
10.25
10.95
11.54
11.69
11.18
10.03
8.50
6.86
5.34
4.01
2.89
2.01
1.33
0.84
0.39
-0.22
-1.16
-2.51
-4.22
-6.12
-8.05
-9.85
-11.36
-12.47
-13.13
-13.43
-13.67
-14.28
-15.68
-18.10
-21.39
-25.07
-28.39
-30.62
-31.21
-29.93
-26.84
-22.27
-16.70
-10.70
-4.83
0.42
4.80
8.27
10.97
13.11
14.87
16.31
17.39
18.06
18.28
18.12
17.78
17.47
17.30
17.29
17.30
17.14
16.75
16.20
15.71
15.47
15.47
15.53
15.32
14.54
13.16
11.39
9.56
7.88
6.36
4.81
3.03
0.99
-1.15
-3.20
-5.03
-6.74
-8.49
-10.42
-12.56
-14.78
-16.89
-18.80
-20.55
-22.23
-23.98
-25.85
-27.83
-29.87
-31.80
-33.38
-34.25
-34.04
-32.41
-29.25
-24.62
-18.79
-12.10
-4.94
2.37
9.46
15.93
21.45
25.81
29.10
31.71
34.17
36.94
40.15
43.60
46.83
49.40
51.10
52.06
52.70
53.54
54.95
57.05
59.72
62.73
65.92
69.34
73.23
77.88
83.44
89.81
96.67
103.70
110.80
118.15
126.09
134.78
144.00
153.11
161.24
167.64
171.71
172.91
170.55
163.68
151.52
134.10
112.71
89.87
68.67
51.58
39.62
32.07
26.96
22.08
15.78
7.43
-2.74
-14.10
-25.97
-37.80
-49.03
-59.10
-67.40
-73.49
-77.34
-79.34
-80.18
-80.67
-81.43
-82.82
-84.80
-87.12
-89.35
-90.98
-91.57
-90.76
-88.42
-84.70
-80.01
-75.06
-70.67
-67.68
-66.67
-67.83
-70.84
-74.97
-79.33
-83.11
-85.86
-87.61
-88.84
-90.13
-91.96
-94.49
-97.51
-100.57
-103.21
-105.15
-106.35
-106.88
-106.82
-106.16
-105.00
-103.65
-102.78
-103.10
-104.85
-107.50
-109.69
-109.74
-106.33
-98.99
-88.19
-74.99
-60.55
-45.83
-31.52
-18.16
-6.31
3.59
11.44
17.51
22.46
27.06
31.88
37.13
42.64
47.93
52.41
55.52
56.97
56.85
55.54
53.65
51.72
50.04
48.64
47.38
46.10
44.80
43.53
42.40
41.38
40.32
38.98
37.22
34.98
32.36
29.43
26.21
22.61
18.52
13.92
8.96
3.89
-1.04
-5.70
-10.15
-14.50
-18.78
-22.88
-26.53
-29.51
-31.80
-33.59
-35.23
-37.03
-39.16
-41.60
-44.26
-46.98
-49.50
-51.45
-52.23
-51.24
-48.06
-42.80
-36.16
-29.22
-23.00
-18.12
-14.56
-11.80
-9.23
-6.42
-3.34
-0.28
2.36
4.25
5.28
5.49
5.04
4.19
3.24
2.53
2.45
3.25
5.06
7.78
11.12
14.74
18.24
21.33
23.76
25.44
26.34
26.61
26.45
26.12
25.81
25.57
25.38
25.12
24.72
24.14
23.43
22.68
21.97
21.35
20.84
20.44
20.14
19.93
19.72
19.30
18.33
16.49
13.58
9.71
5.38
1.41
-1.30
-1.97
-0.17
4.01
9.99
16.80
23.32
28.50
31.75
33.00
32.67
31.47
29.96
28.37
26.50
23.92
20.23
15.33
9.50
3.27
-2.69
-7.78
-11.58
-13.89
-14.67
-14.04
-12.24
-9.66
-6.74
-3.90
-1.45
0.52
2.05
3.26
4.10
4.43
3.94
2.30
-0.65
-4.83
-9.74
-14.56
-18.35
-20.30
-20.07
-18.08
-15.37
-13.27
-12.90
-14.69
-18.29
-22.78
-27.17
-30.69
-33.00
-34.17
-34.43
-34.18
-33.83
-33.76
-34.16
-34.92
-35.61
-35.56
-34.25
-31.43
-27.39
-22.67
-17.90
-13.53
-9.72
-6.43
-3.57
-1.12
0.88
2.38
3.42
4.24
5.14
6.41
8.21
10.45
12.84
15.02
16.69
17.70
18.09
17.94
17.38
16.46
15.20
13.69
12.06
10.50
9.11
7.92
6.84
5.75
4.56
3.24
1.88
0.61
-0.55
-1.59
-2.56
-3.52
-4.47
-5.37
-6.23
-7.05
-7.91
-8.84
-9.96
-11.32
-13.02
-15.10
-17.47
-19.95
-22.17
-23.68
-24.11
-23.26
-21.20
-18.19
-14.52
-10.46
-6.17
-1.78
2.51
6.47
9.83
12.39
14.14
15.26
16.02
16.66
17.37
18.19
19.16
20.24
21.39
22.56
23.63
24.55
25.28
25.85
26.26
26.46
26.37
25.86
24.92
23.71
22.49
21.51
20.87
20.45
20.03
19.39
18.49
17.43
16.40
15.49
14.57
13.39
11.66
9.29
6.36
3.19
0.09
-2.71
-5.17
-7.42
-9.67
-12.08
-14.70
-17.36
-19.67
-21.13
-21.28
-19.86
-16.87
-12.51
-7.12
-1.02
5.34
11.39
16.29
19.08
19.05
16.15
11.16
5.55
0.90
-1.69
-2.11
-1.06
0.44
1.65
2.43
3.21
4.57
6.83
9.84
13.15
16.28
19.04
21.59
24.34
27.62
31.61
36.16
40.96
45.55
49.32
51.44
50.92
46.72
38.36
26.20
11.71
-2.93
-15.51
-24.58
-29.89
-32.23
-32.83
-32.68
-32.24
-31.68
-31.19
-31.36
-32.94
-36.36
-41.16
-46.05
-49.22
-49.18
-45.40
-38.62
-30.49
-22.98
-17.61
-15.00
-14.86
-16.20
-17.80
-18.51
-17.54
-14.57
-9.77
-3.77
2.64
8.56
13.29
16.52
18.33
19.13
19.43
19.67
20.12
20.86
21.89
23.10
24.30
25.15
25.18
23.93
21.12
16.76
11.21
5.08
-0.88
-5.96
-9.56
-11.30
-11.07
-9.05
-5.71
-1.77
1.99
4.77
5.94
5.08
2.06
-2.98
-9.72
-17.58
-25.86
-33.72
-40.35
-45.05
-47.34
-47.04
-44.35
-39.75
-33.93
-27.62
-21.38
-15.54
-10.16
-5.11
-0.23
4.50
8.98
12.98
16.25
18.65
20.23
21.20
21.88
22.66
23.93
25.96
28.85
32.53
36.74
41.08
45.10
48.45
50.95
52.50
53.18
53.11
52.48
51.66
51.05
51.10
52.08
53.90
56.03
57.66
57.95
56.39
52.95
48.09
42.45
36.66
31.07
25.74
20.53
15.15
9.37
3.07
-3.63
-10.39
-16.70
-21.97
-25.74
-27.72
-28.00
-26.93
-24.97
-22.58
-20.07
-17.58
-15.12
-12.71
-10.44
-8.54
-7.40
-7.36
-8.58
-10.83
-13.47
-15.63
-16.57
-15.97
-14.13
-11.84
-9.97
-9.12
-9.36
-10.37
-11.63
-12.81
-13.80
-14.63
-15.31
-15.72
-15.71
-15.23
-14.52
-14.04
-14.17
-15.05
-16.50
-17.99
-19.01
-19.25
-18.73
-17.70
-16.54
-15.58
-14.98
-14.79
-14.91
-15.17
-15.27
-14.79
-13.17
-9.90
-4.62
2.54
11.02
19.86
28.04
34.82
39.97
43.72
46.59
49.03
51.16
52.71
53.13
51.86
48.64
43.64
37.44
30.86
24.60
19.02
14.05
9.29
4.38
-0.76
-5.86
-10.51
-14.36
-17.32
-19.63
-21.61
-23.44
-25.10
-26.36
-27.07
-27.35
-27.61
-28.45
-30.40
-33.61
-37.80
-42.40
-46.72
-50.26
-52.87
-54.76
-56.38
-58.17
-60.29
-62.61
-64.75
-66.37
-67.35
-67.91
-68.36
-69.03
-69.93
-70.85
-71.47
-71.71
-71.64
-71.31
-70.38
-67.81
-62.02
-51.45
-35.39
-14.57
8.70
31.27
50.16
63.57
71.34
74.59
74.87
73.27
70.10
65.02
57.78
48.67
38.74
29.39
21.76
16.34
12.88
10.64
8.90
7.16
5.22
2.99
0.36
-2.92
-7.09
-12.24
-18.19
-24.44
-30.35
-35.22
-38.58
-40.20
-40.17
-38.77
-36.44
-33.54
-30.31
-26.83
-23.03
-18.89
-14.47
-10.16
-6.57
-4.52
-4.66
-7.14
-11.48
-16.54
-20.89
-23.32
-23.22
-20.87
-17.18
-13.34
-10.29
-8.45
-7.74
-7.80
-8.24
-8.80
-9.41
-10.03
-10.68
-11.34
-12.07
-13.02
-14.48
-16.77
-20.08
-24.45
-29.57
-34.86
-39.56
-42.97
-44.57
-44.29
-42.45
-39.67
-36.64
-33.80
-31.28
-28.83
-25.90
-21.94
-16.50
-9.40
-0.80
8.85
18.95
28.72
37.42
44.46
49.46
52.38
53.46
53.20
52.17
50.87
49.61
48.40
47.09
45.50
43.52
41.21
38.72
36.12
33.39
30.44
27.19
23.75
20.38
17.45
15.27
13.92
13.27
12.98
12.70
12.17
11.23
9.84
8.05
5.99
3.83
1.72
-0.34
-2.43
-4.78
-7.52
-10.66
-14.13
-17.69
-21.12
-24.00
-25.86
-26.14
-24.34
-20.31
-14.30
-7.06
0.46
7.35
13.03
17.23
19.99
21.49
21.87
21.35
20.15
18.63
17.21
16.22
15.79
15.82
16.05
16.19
16.16
16.02
15.88
15.86
15.88
15.79
15.38
14.49
13.03
11.02
8.53
5.71
2.76
-0.09
-2.63
-4.80
-6.67
-8.44
-10.30
-12.39
-14.74
-17.30
-20.06
-22.97
-25.84
-28.29
-29.70
-29.36
-26.72
-21.66
-14.58
-6.37
1.90
9.40
15.71
20.91
25.37
29.38
32.97
35.82
37.49
37.69
36.56
34.67
32.76
31.38
30.70
30.49
30.26
29.58
28.28
26.37
24.01
21.31
18.32
15.08
11.74
8.51
5.64
3.27
1.42
-0.07
-1.44
-2.96
-4.83
-7.12
-9.75
-12.55
-15.28
-17.88
-20.38
-22.97
-25.77
-28.67
-31.16
-32.50
-31.95
-29.11
-24.13
-17.61
-10.45
-3.45
2.90
8.45
13.28
17.53
21.20
24.08
25.94
26.62
26.28
25.28
24.09
23.10
22.45
22.00
21.53
20.84
19.88
18.73
17.49
16.19
14.82
13.39
11.85
10.22
8.53
6.75
4.86
2.78
0.47
-2.04
-4.67
-7.31
-9.88
-12.41
-15.10
-18.25
-22.18
-26.96
-32.20
-37.06
-40.38
-41.15
-38.93
-33.92
-27.04
-19.42
-12.07
-5.52
0.16
5.25
9.95
14.22
17.74
20.09
21.03
20.69
19.54
18.20
17.18
16.68
16.51
16.34
15.85
14.98
13.84
12.70
11.73
10.94
10.30
9.59
8.71
7.52
5.98
4.06
1.83
-0.61
-3.08
-5.41
-7.50
-9.38
-11.24
-13.36
-15.96
-19.06
-22.45
-25.58
-27.64
-27.85
-25.60
-20.84
-14.04
-6.07
2.05
9.41
15.55
20.37
24.04
26.85
29.05
30.77
32.09
33.00
33.50
33.62
33.41
32.88
31.96
30.47
28.15
24.89
20.84
16.47
12.37
9.02
6.56
4.77
3.13
1.20
-1.18
-3.88
-6.51
-8.77
-10.48
-11.71
-12.65
-13.55
-14.64
-16.07
-17.90
-20.11
-22.49
-24.63
-25.93
-25.72
-23.52
-19.23
-13.27
-6.51
0.02
5.51
9.52
12.06
13.48
14.16
14.35
14.15
13.56
12.67
11.71
10.99
10.79
11.16
11.91
12.70
13.13
13.00
12.35
11.41
10.48
9.72
9.19
8.78
8.41
8.03
7.69
7.42
7.19
6.84
6.14
4.90
3.05
0.66
-2.13
-5.12
-8.15
-11.12
-13.95
-16.55
-18.73
-20.15
-20.40
-19.05
-15.97
-11.36
-5.85
-0.26
4.67
8.59
11.61
14.07
16.31
18.33
19.84
20.43
19.91
18.51
16.82
15.42
14.72
14.61
14.63
14.16
12.75
10.31
7.16
3.92
1.22
-0.52
-1.22
-1.18
-0.92
-0.96
-1.65
-3.07
-5.10
-7.49
-10.12
-12.90
-15.87
-18.99
-22.22
-25.43
-28.53
-31.48
-34.26
-36.89
-39.22
-40.95
-41.59
-40.66
-37.82
-33.09
-26.85
-19.80
-12.68
-6.15
-0.58
3.93
7.40
9.93
11.55
12.37
12.63
12.69
12.94
13.73
15.03
16.65
18.24
19.53
20.47
21.23
22.06
23.07
24.21
25.18
25.70
25.59
24.80
23.39
21.47
19.13
16.49
13.73
11.00
8.37
5.74
2.92
-0.25
-3.74
-7.29
-10.50
-13.07
-14.98
-16.41
-17.61
-18.70
-19.56
-19.85
-19.34
-17.92
-15.77
-13.15
-10.29
-7.32
-4.32
-1.40
1.13
2.93
3.71
3.43
2.28
0.70
-0.90
-2.18
-2.96
-3.28
-3.28
-3.20
-3.28
-3.71
-4.51
-5.58
-6.60
-7.28
-7.50
-7.35
-7.15
-7.29
-8.00
-9.28
-10.90
-12.51
-13.81
-14.67
-15.14
-15.39
-15.66
-16.18
-17.22
-18.93
-21.24
-23.81
-26.02
-27.08
-26.32
-23.38
-18.26
-11.34
-3.25
5.34
13.71
21.18
27.19
31.30
33.35
33.49
32.16
29.94
27.34
24.74
22.33
20.14
18.19
16.51
15.18
14.26
13.72
13.37
12.90
12.03
10.47
8.13
5.09
1.60
-2.05
-5.58
-8.80
-11.63
-14.09
-16.28
-18.30
-20.19
-21.95
-23.57
-25.07
-26.53
-28.12
-29.99
-32.29
-35.03
-37.99
-40.74
-42.63
-42.87
-40.82
-36.17
-29.15
-20.47
-11.18
-2.28
5.44
11.67
16.43
19.95
22.43
24.01
24.76
24.84
24.50
24.05
23.78
23.75
23.79
23.66
23.12
22.15
20.92
19.64
18.44
17.27
15.98
14.40
12.54
10.49
8.49
6.66
5.02
3.50
1.94
0.21
-1.67
-3.58
-5.33
-6.75
-7.76
-8.49
-9.30
-10.61
-12.73
-15.73
-19.27
-22.75
-25.35
-26.32
-25.17
-21.72
-16.19
-9.11
-1.17
6.86
14.33
20.80
26.00
29.82
32.19
33.05
32.45
30.55
27.71
24.41
21.12
18.14
15.61
13.48
11.59
9.83
8.09
6.31
4.41
2.32
0.02
-2.43
-4.91
-7.26
-9.37
-11.26
-13.01
-14.74
-16.49
-18.24
-19.88
-21.29
-22.42
-23.28
-23.96
-24.51
-25.01
-25.55
-26.33
-27.54
-29.30
-31.43
-33.40
-34.44
-33.80
-31.04
-26.21
-19.86
-12.72
-5.54
1.13
7.00
11.92
15.83
18.58
20.09
20.42
19.79
18.65
17.49
16.71
16.49
16.78
17.38
18.01
18.49
18.76
18.82
18.71
18.43
17.95
17.23
16.21
14.89
13.21
11.15
8.72
6.02
3.26
0.66
-1.59
-3.52
-5.23
-6.94
-8.86
-11.04
-13.50
-16.14
-18.93
-21.93
-25.15
-28.40
-31.24
-32.95
-32.75
-30.18
-25.31
-18.77
-11.46
-4.24
2.45
8.52
14.06
19.12
23.46
26.70
28.51
28.88
28.14
26.88
25.70
24.90
24.53
24.37
24.13
23.66
23.00
22.38
22.11
22.38
23.16
24.16
24.89
24.88
23.92
22.14
19.97
17.99
16.68
16.21
16.42
16.92
17.23
17.01
16.18
15.05
14.17
14.15
15.36
17.74
20.71
23.43
25.18
25.80
25.92
26.82
30.03
36.77
47.48
61.70
78.02
94.25
107.57
114.98
113.90
103.05
83.10
56.90
28.92
4.05
-13.93
-23.44
-25.51
-23.11
-19.90
-18.86
-21.38
-27.13
-34.59
-41.98
-47.87
-51.52
-52.59
-50.81
-45.70
-36.84
-24.30
-9.08
7.01
21.93
34.14
43.17
49.61
54.67
59.57
65.07
71.36
78.23
85.32
92.39
99.34
106.24
113.15
120.01
126.53
132.15
136.12
137.74
136.61
132.83
126.93
119.60
111.46
102.88
94.17
85.67
77.86
71.30
66.37
63.06
60.96
59.41
57.82
55.86
53.52
50.93
48.19
45.19
41.60
36.91
30.48
21.59
9.57
-6.09
-25.46
-47.92
-72.20
-96.61
-119.44
-139.35
-155.52
-167.57
-175.30
-178.60
-177.41
-171.96
-162.94
-151.60
-139.51
-128.23
-118.85
-111.64
-105.98
-100.64
-94.22
-85.73
-75.04
-62.95
-50.89
-40.43
-32.79
-28.66
-28.18
-31.11
-37.05
-45.67
-56.75
-70.39
-87.03
-107.38
-132.33
-162.47
-197.75
-237.01
-277.64
-315.74
-346.61
-365.68
-369.70
-358.05
-333.25
-300.63
-266.86
-237.99
-217.69
-206.70
-203.33
-204.60
-207.31
-208.53
-205.51
-195.41
-175.46
-143.76
-100.41
-48.35
6.86
58.34
99.99
128.39
143.53
148.16
146.16
140.78
133.49
124.15
111.98
96.77
79.48
62.03
46.43
33.87
24.45
17.43
11.97
7.56
4.14
2.00
1.44
2.59
5.33
9.41
14.35
19.63
24.71
29.17
32.94
36.23
39.50
43.25
47.98
53.98
61.28
69.64
78.45
86.93
94.29
100.23
105.14
110.14
116.52
125.11
135.65
146.64
155.84
161.09
161.24
156.67
149.09
140.85
133.91
129.01
125.40
121.23
114.51
104.07
90.22
74.54
59.24
46.22
36.49
30.04
26.25
24.39
23.86
24.26
25.04
25.53
25.03
23.11
19.93
16.24
13.06
11.17
10.83
11.60
12.67
13.35
13.29
12.61
11.68
10.91
10.50
10.50
10.84
11.46
12.32
13.32
14.31
15.05
15.35
15.12
14.60
14.17
14.25
15.07
16.56
18.35
19.88
20.65
20.32
18.97
16.96
14.90
13.52
13.39
14.89
17.96
22.17
26.68
30.42
32.18
30.90
25.93
17.32
5.94
-6.58
-18.29
-27.47
-33.22
-35.70
-35.92
-35.18
-34.43
-33.98
-33.54
-32.64
-31.10
-29.15
-27.26
-25.66
-24.08
-21.81
-17.96
-11.94
-3.79
5.79
15.64
24.46
31.19
35.22
36.55
35.75
33.67
31.05
28.17
24.69
19.85
13.05
4.30
-5.55
-14.99
-22.57
-27.47
-29.80
-30.34
-30.04
-29.41
-28.36
-26.45
-23.33
-19.09
-14.40
-10.21
-7.41
-6.41
-7.16
-9.13
-11.49
-13.35
-13.89
-12.56
-9.18
-4.10
1.87
7.74
12.71
16.50
19.36
21.87
24.46
27.15
29.47
30.81
30.83
29.81
28.58
28.11
29.02
31.16
33.64
35.18
34.63
31.52
26.24
19.90
14.00
9.85
8.14
8.79
10.98
13.55
15.20
14.88
11.76
5.41
-4.22
-16.64
-30.86
-45.38
-58.60
-69.14
-76.28
-79.99
-80.73
-79.16
-75.83
-71.23
-65.75
-59.88
-54.04
-48.53
-43.40
-38.54
-33.81
-29.31
-25.34
-22.29
-20.41
-19.63
-19.59
-19.83
-19.97
-19.78
-19.20
-18.20
-16.84
-15.29
-13.92
-13.18
-13.46
-14.83
-16.95
-19.23
-21.11
-22.36
-23.14
-23.79
-24.50
-25.11
-25.23
-24.50
-22.82
-20.42
-17.69
-14.95
-12.29
-9.73
-7.38
-5.50
-4.46
-4.48
-5.35
-6.53
-7.30
-7.18
-6.08
-4.29
-2.29
-0.48
0.97
2.15
3.25
4.50
6.08
8.03
10.27
12.63
14.82
16.60
17.79
18.41
18.54
18.31
17.74
16.84
15.76
14.81
14.46
15.09
16.75
19.07
21.46
23.33
24.48
25.01
25.18
25.06
24.41
22.91
20.38
17.05
13.51
10.41
8.19
6.90
6.32
6.06
5.73
4.98
3.46
0.88
-2.80
-7.22
-11.64
-15.13
-16.97
-16.93
-15.25
-12.49
-9.24
-5.99
-3.00
-0.44
1.60
3.09
4.14
4.95
5.77
6.87
8.32
10.05
11.77
13.09
13.71
13.45
12.39
10.84
9.26
8.10
7.60
7.75
8.26
8.84
9.26
9.42
9.27
8.60
7.01
4.01
-0.76
-7.24
-14.84
-22.57
-29.33
-34.34
-37.40
-38.91
-39.48
-39.55
-39.02
-37.36
-33.89
-28.24
-20.75
-12.38
-4.43
1.96
6.23
8.38
8.88
8.29
7.00
5.16
2.79
-0.02
-3.04
-5.79
-7.74
-8.49
-7.89
-6.10
-3.57
-0.84
1.66
3.71
5.32
6.58
7.58
8.32
8.77
8.99
9.18
9.69
10.83
12.65
14.87
16.92
18.10
17.86
16.06
12.88
8.77
4.16
-0.66
-5.63
-10.81
-16.18
-21.56
-26.51
-30.47
-32.92
-33.58
-32.53
-30.17
-27.08
-23.86
-20.93
-18.48
-16.45
-14.68
-13.00
-11.21
-9.21
-6.91
-4.31
-1.47
1.37
3.95
6.00
7.47
8.55
9.62
11.08
13.05
15.33
17.41
18.77
19.10
18.50
17.39
16.27
15.47
14.90
14.12
12.51
9.60
5.38
0.38
-4.50
-8.19
-9.80
-8.72
-4.78
1.73
9.97
18.56
25.72
29.68
29.19
24.11
15.45
5.15
-4.61
-12.24
-17.24
-20.27
-22.63
-25.54
-29.57
-34.43
-39.21
-42.98
-45.19
-45.86
-45.40
-44.16
-42.24
-39.31
-35.05
-29.34
-22.59
-15.68
-9.65
-5.29
-2.85
-2.00
-1.94
-1.81
-1.01
0.65
2.87
5.17
7.11
8.47
9.29
9.72
9.90
9.83
9.35
8.31
6.66
4.51
2.15
0.01
-1.51
-2.17
-1.95
-1.10
-0.06
0.63
0.54
-0.55
-2.60
-5.34
-8.42
-11.51
-14.43
-17.13
-19.68
-22.22
-24.80
-27.42
-30.03
-32.52
-34.86
-36.97
-38.76
-40.08
-40.76
-40.59
-39.39
-36.99
-33.26
-28.14
-21.74
-14.36
-6.52
1.22
8.42
14.78
20.21
24.75
28.39
31.07
32.76
33.52
33.61
33.43
33.40
33.82
34.81
36.30
38.07
39.86
41.44
42.65
43.35
43.49
43.10
42.33
41.45
40.81
40.74
41.41
42.72
44.31
45.67
46.32
46.08
45.07
43.72
42.48
41.56
40.77
39.46
36.74
31.85
24.51
15.07
4.42
-6.31
-16.12
-24.34
-30.66
-35.01
-37.44
-38.14
-37.48
-36.12
-34.82
-34.21
-34.44
-35.07
-35.21
-33.92
-30.61
-25.34
-18.72
-11.75
-5.43
-0.49
2.69
4.09
4.04
3.04
1.68
0.53
-0.03
0.03
0.49
0.96
1.00
0.48
-0.47
-1.47
-2.06
-1.99
-1.32
-0.41
0.30
0.50
0.15
-0.61
-1.52
-2.27
-2.65
-2.53
-1.89
-0.91
0.00
0.31
-0.40
-2.22
-4.76
-7.36
-9.39
-10.59
-11.19
-11.66
-12.31
-13.06
-13.49
-13.11
-11.83
-9.96
-8.13
-6.85
-6.23
-5.93
-5.40
-4.24
-2.35
0.04
2.60
5.07
7.35
9.57
11.86
14.32
16.86
19.30
21.42
23.11
24.41
25.49
26.44
27.14
27.19
26.11
23.64
20.00
15.90
12.25
9.79
8.73
8.75
9.32
9.97
10.56
11.16
11.85
12.48
12.75
12.31
11.02
8.98
6.42
3.49
0.21
-3.50
-7.67
-12.13
-16.54
-20.44
-23.41
-25.22
-25.89
-25.60
-24.69
-23.48
-22.23
-21.02
-19.79
-18.34
-16.40
-13.82
-10.60
-6.94
-3.12
0.53
3.73
6.28
8.03
8.87
8.72
7.65
5.91
3.97
2.43
1.82
2.35
3.84
5.80
7.69
9.19
10.37
11.56
13.12
15.10
17.22
18.93
19.70
19.22
17.57
15.14
12.37
9.66
7.26
5.25
3.55
2.02
0.51
-1.10
-2.93
-5.04
-7.45
-10.16
-13.13
-16.26
-19.42
-22.39
-24.87
-26.60
-27.26
-26.64
-24.64
-21.37
-17.14
-12.39
-7.61
-3.26
0.31
2.86
4.26
4.45
3.52
1.77
-0.29
-2.03
-2.90
-2.67
-1.51
0.13
1.65
2.63
2.99
2.93
2.83
3.05
3.74
4.87
6.24
7.64
8.87
9.83
10.45
10.74
10.73
10.52
10.22
9.94
9.73
9.53
9.20
8.59
7.64
6.37
4.90
3.35
1.84
0.45
-0.77
-1.81
-2.72
-3.65
-4.68
-5.79
-6.73
-7.12
-6.64
-5.21
-3.07
-0.68
1.59
3.70
6.03
9.12
13.45
19.14
25.83
32.88
39.56
45.17
49.25
51.61
52.38
52.07
51.40
51.10
51.55
52.69
53.98
54.66
53.98
51.42
46.64
39.59
30.46
19.71
8.17
-3.15
-13.31
-21.69
-28.19
-33.10
-36.75
-39.36
-40.88
-41.23
-40.44
-38.85
-37.05
-35.60
-34.85
-34.77
-35.07
-35.27
-35.00
-34.09
-32.70
-31.13
-29.75
-28.74
-28.08
-27.54
-26.82
-25.64
-23.89
-21.54
-18.50
-14.65
-9.77
-3.89
2.57
8.69
13.23
15.02
13.42
8.61
1.65
-5.83
-12.12
-15.99
-16.97
-15.42
-12.23
-8.39
-4.65
-1.36
1.64
4.77
8.51
13.27
19.21
26.29
34.21
42.40
50.03
56.22
60.14
61.33
59.69
55.43
49.08
41.21
32.54
23.78
15.60
8.51
2.57
-2.55
-7.53
-13.03
-19.36
-26.21
-32.81
-38.28
-41.97
-43.69
-43.63
-42.10
-39.35
-35.40
-30.21
-23.82
-16.43
-8.46
-0.34
7.61
15.30
22.80
30.20
37.44
44.24
50.19
54.93
58.30
60.26
60.86
59.98
57.42
52.95
46.63
39.04
31.23
24.50
19.93
18.02
18.52
20.54
22.87
24.38
24.38
22.71
19.73
16.03
12.15
8.38
4.68
0.86
-3.30
-7.85
-12.76
-17.87
-23.09
-28.35
-33.55
-38.40
-42.47
-45.24
-46.38
-46.04
-44.82
-43.69
-43.39
-44.09
-45.12
-45.19
-43.01
-37.91
-30.37
-21.72
-13.67
-7.46
-3.52
-1.46
-0.59
-0.33
-0.42
-0.80
-1.38
-1.94
-2.30
-2.54
-3.13
-4.64
-7.41
-11.16
-15.13
-18.35
-20.26
-20.91
-20.95
-21.21
-22.32
-24.44
-27.25
-30.34
-33.36
-36.32
-39.50
-43.31
-48.08
-53.78
-59.98
-65.83
-70.31
-72.45
-71.66
-67.81
-61.26
-52.78
-43.29
-33.78
-25.09
-17.80
-12.06
-7.51
-3.28
1.72
8.39
17.04
27.14
37.50
46.65
53.37
57.04
57.67
55.67
51.51
45.51
37.87
28.85
18.99
9.19
0.59
-5.79
-9.36
-10.11
-8.52
-5.30
-1.03
3.87
9.13
14.52
19.63
23.90
26.70
27.59
26.41
23.39
18.99
13.88
8.76
4.27
0.91
-1.08
-1.70
-1.16
0.15
1.79
3.29
4.24
4.25
3.07
0.64
-2.90
-7.19
-11.73
-15.94
-19.29
-21.31
-21.69
-20.30
-17.28
-13.08
-8.43
-4.12
-0.77
1.26
2.09
2.07
1.63
1.14
0.78
0.64
0.76
1.16
1.94
3.05
4.44
5.91
7.25
8.23
8.70
8.61
7.99
7.02
5.86
4.63
3.33
1.80
-0.08
-2.37
-4.91
-7.44
-9.72
-11.60
-13.11
-14.40
-15.65
-17.10
-18.93
-21.26
-24.17
-27.55
-31.15
-34.63
-37.71
-40.30
-42.60
-44.95
-47.59
-50.52
-53.35
-55.37
-55.71
-53.61
-48.73
-41.20
-31.63
-20.95
-10.10
0.18
9.43
17.46
24.16
29.36
32.94
34.87
35.48
35.35
35.09
35.09
35.27
35.36
35.04
34.36
33.65
33.34
33.71
34.59
35.50
35.90
35.41
33.99
31.82
29.16
26.20
23.10
19.97
16.93
14.04
11.27
8.56
5.86
3.18
0.61
-1.76
-3.95
-6.08
-8.42
-11.24
-14.74
-18.94
-23.59
-28.17
-31.94
-34.15
-34.16
-31.67
-26.86
-20.31
-12.77
-5.04
2.29
8.82
14.30
18.61
21.71
23.66
24.60
24.76
24.42
23.87
23.36
23.10
23.22
23.81
24.91
26.43
28.17
29.86
31.22
32.04
32.24
31.86
30.98
29.77
28.37
26.94
25.64
24.63
23.97
23.57
23.25
22.77
21.96
20.77
19.27
17.58
15.82
14.12
12.55
11.17
10.01
9.05
8.22
7.49
6.86
6.41
6.26
6.43
6.87
7.36
7.68
7.67
7.35
6.89
6.50
6.37
6.55
6.94
7.35
7.61
7.61
7.31
6.72
5.79
4.56
3.07
1.46
-0.07
-1.35
-2.31
-3.06
-3.74
-4.54
-5.53
-6.68
-7.93
-9.25
-10.70
-12.39
-14.40
-16.65
-18.96
-21.09
-22.82
-24.11
-25.12
-26.10
-27.43
-29.39
-32.14
-35.61
-39.46
-43.05
-45.60
-46.22
-44.21
-39.23
-31.47
-21.62
-10.69
0.25
10.45
19.52
27.49
34.54
40.78
46.09
50.18
52.82
54.01
54.16
54.04
54.46
55.97
58.51
61.38
63.40
63.27
60.03
53.30
43.54
31.76
19.31
7.49
-2.76
-10.94
-16.90
-20.76
-22.65
-22.71
-21.11
-18.10
-14.21
-10.15
-6.81
-4.90
-4.79
-6.30
-8.82
-11.53
-13.65
-14.69
-14.51
-13.20
-11.02
-8.26
-5.27
-2.46
-0.21
1.26
1.99
2.32
2.81
4.05
6.43
9.99
14.36
18.94
22.99
25.91
27.39
27.47
26.50
25.04
23.68
23.00
23.38
24.94
27.39
29.99
31.73
31.58
28.91
23.79
17.12
10.38
5.12
2.42
2.51
4.67
7.48
9.36
9.05
5.95
0.27
-7.17
-15.30
-22.96
-29.20
-33.37
-35.22
-34.91
-32.96
-30.11
-27.11
-24.54
-22.65
-21.52
-21.06
-21.19
-21.88
-23.02
-24.44
-25.90
-27.13
-27.91
-27.98
-27.08
-24.93
-21.50
-17.07
-12.29
-7.98
-4.80
-2.97
-2.38
-2.66
-3.44
-4.58
-6.01
-7.56
-8.90
-9.57
-9.18
-7.74
-5.64
-3.45
-1.63
-0.23
1.00
2.55
4.83
8.12
12.41
17.51
23.01
28.22
32.32
34.54
34.56
32.63
29.55
26.16
22.84
19.33
14.92
9.15
2.31
-4.43
-9.47
-11.53
-10.38
-6.91
-2.83
0.08
0.63
-1.51
-5.92
-11.74
-18.20
-24.82
-31.53
-38.43
-45.54
-52.42
-58.15
-61.58
-61.77
-58.58
-52.89
-46.25
-40.28
-36.00
-33.44
-31.84
-30.30
-28.39
-26.39
-25.07
-25.07
-26.39
-28.33
-29.87
-30.17
-29.07
-27.05
-24.94
-23.50
-23.08
-23.64
-24.84
-26.34
-27.83
-29.11
-29.96
-30.15
-29.42
-27.56
-24.53
-20.43
-15.54
-10.23
-4.85
0.40
5.51
10.56
15.67
20.84
25.91
30.55
34.31
36.86
37.99
37.84
36.83
35.54
34.50
33.90
33.45
32.52
30.43
26.81
21.98
16.70
12.02
8.69
6.96
6.51
6.66
6.75
6.28
5.20
3.72
2.30
1.41
1.36
2.14
3.36
4.29
4.08
1.95
-2.50
-9.20
-17.41
-25.98
-33.52
-38.83
-41.21
-40.70
-37.98
-34.05
-29.81
-25.68
-21.57
-17.05
-11.72
-5.57
0.92
6.86
11.40
13.95
14.44
13.39
11.66
10.18
9.61
10.24
11.85
14.02
16.24
18.15
19.53
20.38
20.75
20.68
20.25
19.58
18.88
18.45
18.56
19.38
20.91
22.97
25.30
27.61
29.66
31.32
32.65
33.83
35.12
36.61
38.19
39.40
39.61
38.27
35.18
30.53
24.74
18.12
10.71
2.19
-7.77
-19.08
-31.05
-42.48
-52.00
-58.53
-61.48
-60.73
-56.41
-48.78
-38.36
-26.07
-13.36
-2.13
5.81
9.32
8.35
4.08
-1.50
-6.23
-8.48
-7.62
-4.04
1.16
6.72
11.72
15.71
18.69
20.75
21.86
21.82
20.37
17.52
13.73
9.83
6.65
4.72
4.00
3.94
3.88
3.26
2.01
0.39
-1.12
-2.18
-2.70
-2.93
-3.25
-3.89
-4.84
-5.73
-6.08
-5.48
-3.92
-1.75
0.36
1.79
2.31
2.15
1.95
2.38
3.87
6.44
9.80
13.62
17.71
22.10
26.81
31.78
36.75
41.29
44.99
47.62
49.19
49.85
49.83
49.28
48.34
47.03
45.25
42.88
39.63
35.16
29.10
21.25
11.70
0.92
-10.19
-20.61
-29.37
-35.89
-40.11
-42.38
-43.19
-43.01
-42.18
-40.83
-39.11
-37.13
-34.95
-32.48
-29.50
-25.67
-20.82
-15.15
-9.25
-3.99
-0.22
1.48
1.02
-1.11
-4.12
-7.07
-9.11
-9.75
-8.90
-6.75
-3.78
-0.54
2.42
4.72
6.10
6.59
6.45
6.17
6.26
7.18
9.08
11.79
14.85
17.66
19.78
21.13
21.85
22.30
22.76
23.36
24.09
24.92
25.83
26.86
27.99
29.05
29.76
29.78
28.96
27.51
25.95
24.99
25.19
26.79
29.47
32.44
34.68
35.20
33.32
28.99
22.67
15.18
7.44
0.10
-6.51
-12.40
-17.72
-22.55
-26.88
-30.62
-33.76
-36.36
-38.57
-40.38
-41.62
-41.93
-41.05
-39.04
-36.41
-34.00
-32.59
-32.61
-33.90
-35.88
-37.83
-39.16
-39.57
-38.96
-37.43
-35.05
-31.98
-28.43
-24.87
-21.87
-19.95
-19.41
-20.13
-21.63
-23.19
-24.15
-24.21
-23.57
-22.81
-22.63
-23.47
-25.23
-27.34
-29.01
-29.63
-29.08
-27.68
-25.98
-24.45
-23.29
-22.37
-21.42
-20.29
-19.05
-18.06
-17.78
-18.60
-20.63
-23.70
-27.26
-30.44
-32.11
-31.12
-26.54
-18.07
-6.28
7.46
21.24
33.24
42.22
47.90
50.87
52.17
52.75
53.20
53.56
53.60
53.04
51.84
50.20
48.42
46.83
45.56
44.53
43.41
41.80
39.29
35.62
30.78
25.02
18.78
12.57
6.85
1.89
-2.27
-5.78
-8.87
-11.71
-14.41
-17.03
-19.56
-22.01
-24.36
-26.54
-28.34
-29.53
-29.87
-29.29
-27.93
-26.12
-24.27
-22.71
-21.64
-20.98
-20.52
-19.93
-18.92
-17.33
-15.09
-12.29
-9.07
-5.63
-2.13
1.27
4.45
7.34
9.82
11.87
13.44
14.59
15.52
16.55
18.02
20.18
22.93
25.81
28.08
28.95
27.90
24.92
20.43
15.20
10.04
5.61
2.30
0.23
-0.69
-0.64
0.20
1.54
3.03
4.28
4.80
4.15
2.16
-1.04
-4.93
-8.79
-11.95
-14.04
-15.10
-15.48
-15.64
-15.95
-16.50
-17.17
-17.62
-17.52
-16.60
-14.86
-12.44
-9.65
-6.78
-3.98
-1.27
1.42
4.12
6.67
8.82
10.30
11.04
11.22
11.11
10.99
11.01
11.11
11.18
11.15
11.04
10.89
10.79
10.80
10.91
11.15
11.55
12.28
13.52
15.45
18.13
21.45
25.11
28.76
32.07
34.86
37.19
39.17
40.88
42.22
42.95
42.85
41.90
40.26
38.02
35.12
31.23
25.98
19.38
11.97
4.73
-1.29
-5.53
-8.08
-9.45
-10.05
-10.03
-9.34
-8.25
-7.79
-9.46
-14.63
-23.60
-35.16
-46.83
-55.82
-60.13
-59.23
-53.94
-45.91
-36.80
-27.68
-19.05
-11.13
-4.20
1.15
4.21
4.49
2.14
-1.95
-6.36
-9.67
-10.96
-10.16
-7.86
-4.99
-2.33
-0.24
1.22
2.12
2.45
2.12
1.22
0.18
-0.34
0.28
2.13
4.59
6.51
6.71
4.67
0.86
-3.45
-6.71
-7.69
-6.01
-2.15
2.76
7.28
10.02
9.94
6.57
0.25
-7.87
-16.06
-22.52
-26.05
-26.52
-24.77
-22.22
-20.06
-18.67
-17.68
-16.33
-14.13
-11.30
-8.70
-7.19
-7.15
-8.11
-9.14
-9.41
-8.69
-7.46
-6.40
-5.83
-5.33
-4.04
-1.24
3.04
7.89
12.01
14.40
14.90
14.20
13.31
12.86
12.77
12.40
11.07
8.68
5.89
3.76
3.13
4.06
5.78
7.08
7.03
5.41
2.88
0.40
-1.33
-2.25
-2.97
-4.17
-6.26
-8.93
-11.55
-13.52
-14.80
-15.92
-17.58
-20.08
-22.97
-25.18
-25.54
-23.46
-19.35
-14.45
-10.33
-8.28
-8.82
-11.66
-15.88
-20.21
-23.45
-24.66
-23.35
-19.59
-14.09
-8.11
-3.22
-0.78
-1.52
-5.18
-10.59
-16.01
-19.77
-20.80
-18.88
-14.63
-9.08
-3.35
1.73
5.74
8.55
10.32
11.33
11.94
12.52
13.38
14.67
16.31
18.06
19.57
20.44
20.42
19.42
17.61
15.35
13.10
11.32
10.33
10.20
10.75
11.58
12.22
12.31
11.75
10.74
9.60
8.69
8.11
7.82
7.66
7.44
7.07
6.47
5.61
4.46
3.00
1.31
-0.30
-1.47
-1.86
-1.27
0.30
2.72
5.85
9.61
13.89
18.56
23.27
27.48
30.63
32.32
32.48
31.47
29.91
28.38
27.18
26.21
25.11
23.61
21.74
19.92
18.82
18.95
20.33
22.38
24.16
24.77
23.73
21.14
17.42
13.01
8.10
2.57
-3.74
-10.74
-17.91
-24.48
-29.68
-33.20
-35.24
-36.38
-37.34
-38.66
-40.48
-42.60
-44.67
-46.39
-47.66
-48.57
-49.28
-49.95
-50.54
-50.86
-50.67
-49.82
-48.27
-46.11
-43.44
-40.27
-36.59
-32.39
-27.81
-23.17
-18.85
-15.18
-12.21
-9.64
-7.01
-3.86
-0.01
4.33
8.62
12.18
14.47
15.38
15.22
14.58
14.13
14.31
15.14
16.34
17.46
18.11
18.07
17.37
16.09
14.34
12.15
9.55
6.64
3.63
0.78
-1.76
-4.16
-6.81
-10.21
-14.60
-19.80
-25.08
-29.52
-32.27
-32.96
-31.73
-29.14
-25.83
-22.34
-19.02
-15.97
-13.19
-10.58
-8.02
-5.37
-2.53
0.45
3.33
5.83
7.71
9.00
9.94
10.96
12.47
14.66
17.52
20.85
24.45
28.03
31.24
33.64
34.73
34.21
32.14
29.00
25.49
22.18
19.26
16.51
13.46
9.77
5.47
0.99
-3.03
-6.06
-7.95
-8.94
-9.51
-10.20
-11.40
-13.23
-15.53
-17.96
-20.07
-21.45
-21.75
-20.69
-18.07
-13.96
-8.61
-2.58
3.48
9.02
13.81
17.84
21.40
24.75
28.00
31.18
34.21
37.04
39.53
41.45
42.38
41.74
39.09
34.29
27.68
20.04
12.31
5.42
-0.03
-3.86
-6.34
-8.01
-9.50
-11.23
-13.37
-15.81
-18.33
-20.76
-23.05
-25.21
-27.26
-29.19
-30.92
-32.44
-33.88
-35.43
-37.33
-39.64
-42.22
-44.72
-46.68
-47.58
-46.97
-44.55
-40.31
-34.58
-28.04
-21.48
-15.61
-10.78
-6.91
-3.69
-0.80
1.91
4.33
6.21
7.45
8.10
8.46
8.91
9.67
10.80
12.14
13.48
14.65
15.66
16.60
17.56
18.52
19.32
19.70
19.50
18.80
17.84
16.99
16.55
16.59
16.96
17.40
17.67
17.53
16.84
15.44
13.22
10.18
6.46
2.35
-1.76
-5.56
-8.84
-11.46
-13.34
-14.37
-14.42
-13.43
-11.41
-8.52
-4.89
-0.70
3.83
8.38
12.47
15.61
17.52
18.34
18.61
19.02
20.06
21.82
23.96
26.06
27.88
29.55
31.47
34.00
37.22
40.89
44.52
47.59
49.81
51.13
51.72
51.84
51.80
51.92
52.39
53.25
54.33
55.25
55.49
54.57
52.19
48.38
43.55
38.31
33.40
29.32
26.20
23.74
21.29
18.21
14.09
8.88
2.95
-3.19
-9.04
-14.30
-18.87
-22.73
-25.87
-28.29
-29.96
-30.91
-31.21
-31.04
-30.57
-29.98
-29.45
-29.02
-28.70
-28.34
-27.74
-26.70
-25.16
-23.26
-21.28
-19.59
-18.33
-17.51
-16.88
-16.14
-15.12
-13.90
-12.71
-11.84
-11.48
-11.60
-11.92
-12.10
-11.92
-11.43
-10.99
-11.06
-11.95
-13.71
-15.99
-18.32
-20.35
-21.95
-23.26
-24.42
-25.51
-26.39
-26.90
-26.98
-26.81
-26.74
-27.11
-28.02
-29.24
-30.28
-30.58
-29.73
-27.50
-24.05
-19.78
-15.28
-11.07
-7.50
-4.64
-2.35
-0.44
1.23
2.71
3.98
5.10
6.15
7.29
8.49
9.59
10.29
10.39
9.96
9.32
8.91
9.06
9.76
10.77
11.74
12.38
12.59
12.40
11.89
11.14
10.16
9.03
7.77
6.47
5.16
3.79
2.25
0.45
-1.60
-3.78
-5.95
-7.98
-9.80
-11.43
-12.98
-14.59
-16.45
-18.57
-20.80
-22.76
-23.98
-24.02
-22.70
-20.12
-16.66
-12.77
-8.85
-5.19
-1.96
0.75
2.90
4.60
6.07
7.57
9.28
11.17
12.91
14.14
14.60
14.29
13.47
12.50
11.70
11.20
11.03
11.12
11.33
11.58
11.72
11.56
10.94
9.75
8.01
5.83
3.32
0.52
-2.55
-5.90
-9.39
-12.78
-15.83
-18.35
-20.33
-21.91
-23.29
-24.75
-26.51
-28.77
-31.70
-35.36
-39.58
-43.97
-47.92
-50.92
-52.72
-53.59
-54.14
-55.10
-56.98
-59.89
-63.69
-68.17
-73.38
-79.70
-87.51
-96.79
-106.87
-116.35
-123.49
-126.57
-124.39
-116.38
-102.66
-84.05
-61.94
-38.04
-14.13
8.46
29.05
47.70
64.76
80.46
94.68
106.86
116.43
123.17
127.38
129.74
130.93
131.33
130.99
129.77
127.58
124.54
120.80
116.40
110.95
103.71
93.87
80.94
65.24
47.93
30.80
15.71
4.07
-3.47
-7.05
-7.37
-5.35
-1.75
2.92
8.40
14.56
21.21
27.97
34.28
39.45
42.83
44.01
43.00
40.22
36.47
32.71
29.81
28.38
28.49
29.61
30.64
30.26
27.41
21.74
13.76
4.69
-4.01
-11.13
-16.09
-18.91
-20.04
-20.05
-19.31
-18.06
-16.39
-14.36
-11.97
-9.24
-6.16
-2.78
0.70
3.90
6.26
7.24
6.38
3.54
-1.13
-7.19
-13.92
-20.47
-25.98
-29.74
-31.39
-30.97
-28.93
-25.90
-22.63
-19.72
-17.56
-16.35
-16.15
-16.94
-18.60
-21.02
-24.00
-27.32
-30.70
-33.89
-36.70
-39.13
-41.33
-43.61
-46.19
-49.19
-52.44
-55.66
-58.61
-61.31
-63.99
-67.06
-70.89
-75.62
-81.21
-87.38
-93.72
-99.76
-104.96
-108.63
-110.14
-109.05
-105.25
-99.11
-91.29
-82.51
-73.26
-63.77
-53.95
-43.63
-32.70
-21.26
-9.68
1.43
11.24
18.99
24.27
27.23
28.63
29.57
31.08
33.64
37.10
40.90
44.45
47.44
49.92
52.04
53.88
55.28
56.04
56.07
55.62
55.12
55.05
55.56
56.38
56.85
56.31
54.32
51.02
47.02
43.22
40.46
39.13
39.15
39.90
40.54
40.30
38.67
35.54
31.09
25.83
20.30
15.07
10.50
6.73
3.69
1.23
-0.71
-1.94
-2.09
-0.75
2.22
6.56
11.64
16.68
21.05
24.46
26.87
28.30
28.58
27.38
24.40
19.77
14.14
8.57
4.03
1.06
-0.47
-1.13
-1.46
-1.66
-1.39
-0.05
2.84
7.29
12.75
18.24
22.72
25.40
25.97
24.57
21.64
17.66
13.16
8.70
5.00
2.85
2.87
5.10
8.74
12.34
14.37
13.89
10.96
6.57
2.08
-1.38
-3.39
-4.17
-4.26
-4.16
-4.06
-3.99
-3.96
-4.17
-4.88
-6.27
-8.33
-10.73
-13.12
-15.25
-17.17
-19.13
-21.41
-24.08
-26.89
-29.40
-31.20
-32.12
-32.34
-32.24
-32.20
-32.36
-32.61
-32.69
-32.33
-31.37
-29.76
-27.53
-24.75
-21.48
-17.77
-13.73
-9.49
-5.25
-1.17
2.60
5.95
8.80
11.12
12.93
14.34
15.58
16.85
18.33
20.11
22.16
24.38
26.68
28.98
31.16
33.07
34.54
35.36
35.33
34.40
32.59
30.10
27.27
24.42
21.83
19.55
17.45
15.30
12.91
10.30
7.61
5.04
2.67
0.39
-1.99
-4.65
-7.57
-10.58
-13.48
-16.17
-18.73
-21.32
-24.11
-27.18
-30.50
-33.94
-37.31
-40.34
-42.64
-43.71
-43.04
-40.27
-35.34
-28.62
-20.72
-12.41
-4.33
3.17
10.03
16.30
21.98
26.93
30.84
33.48
34.84
35.22
35.09
34.82
34.54
34.11
33.29
32.11
30.78
29.70
29.21
29.34
29.80
30.18
30.19
29.80
29.18
28.56
28.04
27.55
27.01
26.32
25.51
24.56
23.37
21.75
19.52
16.68
13.49
10.40
7.87
6.19
5.39
5.25
5.45
5.67
5.63
5.19
4.27
2.97
1.56
0.40
-0.12
0.23
1.45
3.15
4.74
5.53
5.00
3.02
-0.10
-3.69
-6.95
-9.34
-10.70
-11.29
-11.55
-11.78
-12.03
-12.00
-11.30
-9.67
-7.15
-3.99
-0.51
3.04
6.55
10.02
13.39
16.55
19.30
21.52
23.26
24.73
26.24
28.03
30.20
32.62
35.09
37.34
39.16
40.50
41.52
42.53
43.98
46.19
49.08
52.03
53.92
53.47
49.59
41.87
30.68
17.12
2.63
-11.34
-23.65
-33.58
-40.87
-45.74
-48.77
-50.74
-52.32
-53.76
-54.85
-55.05
-53.81
-51.03
-47.12
-42.75
-38.58
-34.82
-31.26
-27.43
-22.99
-17.98
-12.78
-7.94
-3.78
-0.39
2.33
4.43
5.83
6.25
5.51
3.72
1.27
-1.18
-3.10
-4.18
-4.46
-4.22
-3.80
-3.41
-3.12
-2.90
-2.63
-2.23
-1.70
-1.05
-0.41
0.06
0.24
0.10
-0.34
-0.91
-1.44
-1.77
-1.87
-1.83
-1.78
-1.94
-2.54
-3.75
-5.58
-7.83
-10.06
-11.68
-12.24
-11.67
-10.38
-9.21
-9.07
-10.46
-13.31
-16.83
-19.89
-21.48
-21.08
-18.83
-15.36
-11.47
-7.78
-4.59
-1.93
0.29
2.07
3.41
4.37
5.19
6.22
7.71
9.56
11.23
11.95
11.05
8.47
4.81
1.21
-1.21
-1.76
-0.51
1.93
4.75
7.27
9.15
10.28
10.69
10.42
9.50
8.05
6.36
4.78
3.58
2.82
2.28
1.61
0.53
-1.07
-3.02
-5.05
-6.77
-7.92
-8.41
-8.40
-8.27
-8.46
-9.37
-11.11
-13.43
-15.78
-17.43
-17.81
-16.67
-14.18
-10.82
-7.20
-3.78
-0.71
2.18
5.27
8.95
13.39
18.45
23.66
28.43
32.27
34.96
36.59
37.52
38.20
39.06
40.38
42.24
44.55
47.15
49.87
52.59
55.24
57.74
59.95
61.71
62.81
63.16
62.76
61.69
59.97
57.53
54.14
49.58
43.67
36.41
27.98
18.65
8.67
-1.73
-12.29
-22.61
-32.23
-40.63
-47.50
-52.74
-56.55
-59.28
-61.23
-62.53
-63.07
-62.67
-61.24
-58.97
-56.26
-53.65
-51.56
-50.18
-49.49
-49.24
-49.17
-49.03
-48.64
-47.88
-46.64
-44.79
-42.30
-39.19
-35.62
-31.82
-28.01
-24.36
-20.94
-17.74
-14.75
-11.95
-9.41
-7.24
-5.54
-4.30
-3.38
-2.52
-1.50
-0.23
1.16
2.37
3.05
2.93
1.99
0.43
-1.46
-3.38
-5.13
-6.64
-7.82
-8.59
-8.85
-8.55
-7.86
-7.19
-7.18
-8.40
-11.17
-15.24
-19.95
-24.43
-27.90
-29.95
-30.58
-30.07
-28.73
-26.78
-24.35
-21.55
-18.59
-15.63
-12.69
-9.58
-5.98
-1.66
3.18
7.97
11.95
14.56
15.76
15.97
15.80
15.71
15.71
15.49
14.62
12.94
10.67
8.28
6.26
4.86
4.15
4.07
4.57
5.63
7.28
9.44
11.90
14.31
16.30
17.59
18.03
17.62
16.51
14.99
13.38
12.07
11.37
11.45
12.30
13.74
15.40
16.84
17.61
17.28
15.65
12.82
9.24
5.65
2.82
1.34
1.46
3.02
5.56
8.50
11.19
13.05
13.75
13.25
11.87
10.20
8.87
8.26
8.36
8.68
8.55
7.42
5.15
2.04
-1.27
-4.07
-5.89
-6.60
-6.37
-5.51
-4.29
-2.82
-1.07
1.00
3.27
5.39
6.80
7.06
6.04
4.05
1.68
-0.39
-1.69
-2.13
-1.88
-1.30
-0.69
-0.28
-0.14
-0.31
-0.80
-1.63
-2.69
-3.93
-5.24
-6.58
-8.08
-9.96
-12.46
-15.71
-19.58
-23.67
-27.41
-30.26
-31.91
-32.41
-32.06
-31.38
-30.88
-30.96
-31.84
-33.56
-35.91
-38.59
-41.14
-43.14
-44.38
-44.88
-44.97
-45.13
-45.92
-47.79
-50.94
-55.28
-60.23
-64.79
-67.54
-66.93
-61.64
-51.05
-35.43
-15.94
5.72
27.85
49.00
68.15
84.53
97.41
106.15
110.33
110.08
106.11
99.64
91.98
84.15
76.63
69.43
62.36
55.25
48.09
40.90
33.66
26.28
18.65
10.89
3.47
-2.89
-7.42
-9.56
-9.23
-6.80
-2.96
1.54
6.05
10.08
13.35
15.75
17.38
18.47
19.34
20.18
20.90
20.99
19.73
16.44
10.87
3.30
-5.49
-14.44
-22.51
-28.92
-33.23
-35.35
-35.45
-33.90
-31.14
-27.66
-23.93
-20.31
-16.98
-13.96
-11.07
-8.14
-5.19
-2.52
-0.72
-0.41
-1.92
-5.08
-9.20
-13.30
-16.57
-18.67
-19.76
-20.30
-20.79
-21.53
-22.53
-23.65
-24.63
-25.18
-24.95
-23.53
-20.65
-16.23
-10.63
-4.60
0.95
5.19
7.69
8.52
8.15
7.25
6.45
6.12
6.38
7.12
8.14
9.22
10.24
11.15
11.91
12.46
12.69
12.60
12.24
11.81
11.59
11.74
12.24
12.81
13.07
12.74
11.80
10.52
9.30
8.41
7.84
7.35
6.64
5.61
4.37
3.18
2.18
1.32
0.36
-0.91
-2.60
-4.63
-6.84
-9.11
-11.38
-13.55
-15.41
-16.60
-16.77
-15.71
-13.58
-10.77
-7.68
-4.59
-1.44
2.03
6.07
10.75
15.86
21.02
25.81
29.95
33.39
36.18
38.47
40.40
42.11
43.75
45.51
47.50
49.72
51.92
53.58
54.06
52.72
49.18
43.44
35.91
27.28
18.34
9.84
2.38
-3.61
-7.87
-10.35
-11.26
-11.03
-10.20
-9.37
-9.04
-9.51
-10.89
-13.08
-15.82
-18.74
-21.38
-23.46
-24.83
-25.64
-26.13
-26.52
-26.81
-26.81
-26.26
-24.96
-22.88
-20.07
-16.61
-12.51
-7.83
-2.89
1.74
5.18
6.57
5.44
1.98
-2.93
-7.94
-11.67
-13.14
-12.11
-9.13
-5.33
-2.03
-0.24
-0.41
-2.27
-5.07
-7.90
-9.96
-10.81
-10.34
-8.57
-5.70
-1.92
2.46
7.10
11.52
15.33
18.26
20.17
21.15
21.32
20.69
19.20
16.69
12.99
8.16
2.45
-3.70
-9.78
-15.46
-20.60
-25.18
-29.20
-32.50
-34.77
-35.74
-35.40
-34.18
-32.84
-32.18
-32.69
-34.38
-36.77
-39.07
-40.49
-40.46
-38.71
-35.30
-30.54
-24.86
-18.70
-12.37
-6.01
0.25
6.28
11.79
16.40
19.82
21.99
23.14
23.67
23.88
23.90
23.59
22.77
21.32
19.37
17.13
14.86
12.65
10.53
8.48
6.60
5.02
3.81
2.94
2.19
1.26
-0.08
-1.88
-4.00
-6.22
-8.36
-10.30
-11.96
-13.20
-13.83
-13.64
-12.58
-10.89
-8.98
-7.45
-6.75
-7.15
-8.69
-11.28
-14.75
-18.91
-23.43
-27.73
-31.02
-32.54
-31.84
-29.09
-24.97
-20.49
-16.50
-13.45
-11.28
-9.59
-7.97
-6.15
-4.17
-2.21
-0.49
0.91
1.95
2.76
3.40
3.90
4.22
4.17
3.65
2.63
1.28
-0.08
-1.09
-1.54
-1.45
-1.07
-0.72
-0.59
-0.61
-0.43
0.49
2.60
6.17
11.06
16.78
22.60
27.75
31.56
33.65
33.98
32.75
30.29
27.03
23.35
19.58
15.93
12.42
8.95
5.27
1.15
-3.54
-8.71
-14.08
-19.19
-23.46
-26.35
-27.43
-26.56
-23.95
-20.17
-15.98
-12.15
-9.20
-7.26
-6.07
-5.16
-3.99
-2.24
0.19
3.11
6.16
8.90
11.01
12.31
12.86
12.87
12.69
12.67
13.01
13.78
14.90
16.17
17.39
18.39
19.07
19.39
19.32
18.87
18.05
16.94
15.70
14.46
13.29
12.10
10.72
8.98
6.85
4.39
1.85
-0.57
-2.68
-4.44
-5.86
-7.01
-8.02
-9.04
-10.26
-11.90
-14.04
-16.68
-19.61
-22.51
-24.94
-26.58
-27.20
-26.79
-25.51
-23.63
-21.51
-19.41
-17.61
-16.30
-15.59
-15.55
-16.13
-17.24
-18.75
-20.61
-22.80
-25.32
-28.09
-30.92
-33.54
-35.74
-37.51
-39.01
-40.65
-42.74
-45.45
-48.69
-52.07
-55.16
-57.55
-58.93
-58.89
-56.89
-52.17
-43.88
-31.49
-14.99
4.83
26.54
48.29
68.25
84.83
96.97
104.07
106.29
104.43
99.94
94.47
89.32
84.99
81.05
76.53
70.55
62.89
54.15
45.43
37.86
32.11
28.26
25.94
24.62
23.76
22.86
21.44
19.09
15.67
11.56
7.67
5.22
5.24
7.99
12.83
18.32
22.91
25.52
26.04
25.18
24.03
23.40
23.44
23.58
22.96
20.90
17.29
12.55
7.42
2.59
-1.58
-5.11
-8.27
-11.37
-14.53
-17.62
-20.24
-21.96
-22.44
-21.54
-19.37
-16.20
-12.40
-8.41
-4.77
-2.06
-0.80
-1.23
-3.03
-5.35
-7.04
-7.11
-5.28
-2.11
1.13
3.12
3.05
1.04
-1.85
-4.09
-4.34
-2.01
2.65
8.80
15.43
21.86
27.79
33.23
38.23
42.59
45.92
47.79
47.95
46.53
43.90
40.42
36.21
31.05
24.61
16.78
7.89
-1.24
-9.62
-16.49
-21.73
-25.82
-29.53
-33.47
-37.58
-41.24
-43.68
-44.46
-43.90
-42.88
-42.37
-42.86
-44.09
-45.23
-45.39
-44.12
-41.63
-38.55
-35.53
-32.79
-30.24
-27.62
-24.82
-22.05
-19.62
-17.72
-16.25
-14.86
-13.17
-11.12
-8.89
-6.94
-5.66
-5.34
-5.90
-7.01
-8.11
-8.55
-7.89
-6.03
-3.40
-0.83
0.89
1.32
0.64
-0.42
-1.00
-0.52
1.01
3.14
5.27
6.94
8.06
8.67
8.80
8.34
7.11
5.00
2.21
-0.86
-3.72
-5.99
-7.65
-8.92
-10.18
-11.75
-13.86
-16.64
-20.06
-24.07
-28.48
-33.01
-37.35
-41.30
-44.91
-48.46
-52.29
-56.53
-60.97
-64.88
-67.33
-67.34
-64.25
-57.91
-48.74
-37.70
-26.01
-14.91
-5.30
2.41
8.30
12.77
16.19
18.71
20.17
20.25
18.71
15.69
11.71
7.53
3.90
1.37
0.10
-0.06
0.55
1.54
2.64
3.62
4.35
4.77
4.84
4.58
4.06
3.50
3.16
3.34
4.25
5.94
8.29
11.00
13.67
15.86
17.23
17.65
17.26
16.51
15.98
16.21
17.48
19.67
22.33
24.90
26.90
28.11
28.61
28.58
28.22
27.60
26.71
25.52
24.08
22.51
21.04
19.90
19.20
18.89
18.68
18.22
17.18
15.46
13.13
10.36
7.28
3.87
0.08
-4.06
-8.19
-11.65
-13.72
-13.95
-12.36
-9.55
-6.36
-3.57
-1.60
-0.48
0.01
0.17
0.14
-0.07
-0.45
-0.90
-1.05
-0.46
1.24
4.10
7.72
11.37
14.23
15.70
15.71
14.64
13.18
11.97
11.33
11.21
11.28
11.09
10.18
8.19
4.92
0.37
-5.13
-10.92
-16.09
-19.76
-21.38
-20.92
-18.92
-16.06
-13.01
-10.11
-7.43
-4.90
-2.52
-0.43
1.11
1.95
2.19
2.09
2.01
2.13
2.32
2.26
1.64
0.38
-1.31
-3.02
-4.43
-5.53
-6.60
-8.09
-10.31
-13.18
-16.32
-19.20
-21.39
-22.76
-23.34
-23.20
-22.33
-20.55
-17.77
-14.07
-9.87
-5.78
-2.49
-0.44
0.30
-0.06
-0.92
-1.63
-1.62
-0.58
1.40
3.89
6.42
8.69
10.80
13.28
16.81
21.86
28.31
35.42
42.04
47.06
49.80
50.13
48.47
45.44
41.59
37.29
32.82
28.47
24.71
22.04
20.81
20.98
22.04
23.15
23.59
22.96
21.33
19.16
16.99
15.21
14.01
13.31
12.98
12.94
13.11
13.38
13.67
13.98
14.33
14.78
15.30
15.68
15.59
14.73
13.02
10.77
8.65
7.34
7.36
8.79
11.34
14.60
18.28
22.29
26.66
31.28
35.81
39.77
42.83
45.01
46.72
48.46
50.43
52.25
53.03
51.73
47.72
41.12
32.77
23.86
15.59
8.78
3.82
0.82
-0.24
0.62
3.38
7.94
13.97
20.90
27.88
34.00
38.49
40.93
41.53
40.91
39.96
39.22
38.63
37.37
34.29
28.56
20.13
10.02
-0.14
-8.82
-15.19
-19.45
-22.46
-25.18
-28.10
-31.07
-33.63
-35.45
-36.69
-37.90
-39.76
-42.58
-46.28
-50.35
-54.23
-57.61
-60.48
-63.09
-65.69
-68.46
-71.41
-74.63
-78.28
-82.60
-87.81
-93.80
-100.10
-105.90
-110.35
-112.79
-113.02
-111.44
-108.78
-105.93
-103.66
-102.50
-102.68
-104.28
-107.18
-111.08
-115.48
-119.60
-122.57
-123.44
-121.59
-116.75
-109.13
-99.38
-88.39
-77.14
-66.54
-57.33
-49.91
-44.23
-39.69
-35.21
-29.53
-21.56
-10.84
2.23
16.51
30.46
42.52
51.46
56.57
57.60
54.71
48.50
39.93
30.27
20.85
12.71
6.35
1.76
-1.48
-3.85
-5.73
-7.17
-7.99
-7.90
-6.68
-4.23
-0.63
3.85
8.86
14.06
19.23
24.24
29.03
33.61
37.97
42.18
46.29
50.30
54.12
57.46
59.92
61.13
60.93
59.42
56.88
53.65
49.99
46.05
41.90
37.62
33.34
29.17
25.19
21.47
18.01
14.90
12.11
9.52
6.89
3.92
0.41
-3.65
-7.97
-12.05
-15.34
-17.36
-17.87
-16.88
-14.69
-11.74
-8.49
-5.32
-2.40
0.18
2.41
4.24
5.68
6.79
7.70
8.58
9.48
10.29
10.83
10.95
10.65
10.16
9.67
9.25
8.75
7.88
6.56
5.05
3.90
3.72
4.78
6.83
9.26
11.30
12.48
12.89
13.05
13.62
14.95
16.75
18.18
18.23
16.17
11.99
6.38
0.42
-4.91
-9.07
-12.12
-14.53
-16.75
-19.00
-21.11
-22.62
-23.05
-22.14
-19.89
-16.64
-12.88
-9.13
-5.87
-3.36
-1.69
-0.66
0.16
1.36
3.46
6.78
11.22
16.24
21.11
25.14
27.92
29.45
29.96
29.79
29.15
28.14
26.72
24.91
22.85
20.81
19.10
17.88
17.11
16.53
15.86
14.90
13.67
12.34
11.13
10.22
9.60
9.21
8.90
8.54
8.01
7.06
5.35
2.60
-1.30
-6.07
-11.09
-15.51
-18.53
-19.64
-18.80
-16.39
-13.02
-9.31
-5.76
-2.70
-0.28
1.45
2.62
3.56
4.78
6.77
9.78
13.61
17.67
21.23
23.74
25.23
26.17
27.39
29.55
32.94
37.36
42.21
46.74
50.24
52.11
51.97
49.61
45.01
38.39
30.27
21.47
12.96
5.70
0.40
-2.74
-4.08
-4.38
-4.61
-5.56
-7.72
-11.16
-15.66
-20.85
-26.29
-31.53
-36.11
-39.52
-41.32
-41.20
-39.12
-35.42
-30.69
-25.64
-20.79
-16.30
-11.99
-7.52
-2.70
2.35
7.28
11.66
15.24
18.04
20.15
21.51
21.82
20.62
17.56
12.77
6.84
0.71
-4.69
-8.73
-11.20
-12.21
-12.15
-11.50
-10.75
-10.34
-10.48
-11.18
-12.26
-13.49
-14.72
-15.93
-17.12
-18.26
-19.26
-20.07
-20.88
-22.08
-24.08
-27.02
-30.60
-34.14
-36.91
-38.45
-38.73
-38.01
-36.62
-34.64
-31.98
-28.53
-24.36
-19.84
-15.53
-11.84
-8.88
-6.36
-3.74
-0.46
3.72
8.65
13.81
18.59
22.54
25.58
27.96
30.10
32.28
34.45
36.30
37.40
37.54
36.88
35.88
35.08
34.77
34.93
35.19
35.15
34.53
33.27
31.48
29.34
26.97
24.44
21.78
19.03
16.30
13.62
11.05
8.55
6.09
3.59
0.97
-1.88
-5.14
-9.02
-13.72
-19.31
-25.61
-32.09
-37.92
-42.07
-43.63
-42.03
-37.39
-30.40
-22.22
-14.10
-7.03
-1.53
2.32
4.73
5.96
6.29
5.92
5.09
4.01
2.88
1.86
0.96
0.14
-0.64
-1.30
-1.69
-1.62
-0.97
0.27
1.95
3.87
5.88
7.92
10.07
12.45
15.22
18.32
21.58
24.60
26.89
28.12
28.18
27.22
25.63
23.83
22.17
20.77
19.58
18.43
17.21
15.82
14.15
12.14
9.68
6.81
3.72
0.80
-1.50
-2.80
-3.04
-2.48
-1.52
-0.63
-0.06
0.17
0.17
0.05
-0.19
-0.64
-1.39
-2.42
-3.59
-4.66
-5.43
-5.85
-6.01
-6.12
-6.34
-6.63
-6.69
-6.13
-4.68
-2.37
0.31
2.72
4.19
4.44
3.56
1.93
-0.06
-2.20
-4.54
-7.27
-10.47
-14.04
-17.65
-20.91
-23.51
-25.33
-26.40
-26.85
-26.79
-26.28
-25.37
-24.05
-22.30
-20.03
-17.03
-13.08
-8.08
-2.13
4.41
11.04
17.27
22.93
28.09
32.98
37.73
42.17
45.87
48.29
49.12
48.41
46.55
44.14
41.69
39.45
37.47
35.58
33.59
31.35
28.85
26.10
23.17
20.15
17.07
13.96
10.86
7.79
4.82
2.05
-0.42
-2.49
-4.04
-5.00
-5.36
-5.30
-5.08
-5.08
-5.55
-6.44
-7.41
-7.95
-7.68
-6.57
-4.93
-3.21
-1.80
-0.77
-0.05
0.44
0.63
0.31
-0.64
-2.12
-3.77
-5.15
-5.96
-6.25
-6.36
-6.69
-7.52
-8.85
-10.45
-12.01
-13.21
-13.87
-13.91
-13.45
-12.65
-11.76
-10.98
-10.37
-9.92
-9.52
-9.10
-8.55
-7.78
-6.74
-5.47
-4.17
-3.16
-2.77
-3.12
-4.01
-4.92
-5.35
-5.06
-4.32
-3.77
-4.02
-5.30
-7.23
-9.02
-9.75
-8.88
-6.42
-2.86
1.11
4.92
8.34
11.46
14.46
17.45
20.31
22.82
24.76
25.95
26.24
25.40
23.08
18.95
12.93
5.32
-3.08
-11.21
-18.12
-23.23
-26.51
-28.36
-29.33
-29.85
-30.15
-30.24
-30.12
-29.84
-29.59
-29.56
-29.78
-30.07
-29.99
-28.98
-26.59
-22.72
-17.79
-12.66
-8.40
-5.94
-5.79
-7.79
-11.24
-15.09
-18.31
-20.13
-20.17
-18.50
-15.51
-11.84
-8.18
-5.17
-3.23
-2.51
-2.83
-3.83
-5.07
-6.23
-7.22
-8.20
-9.50
-11.42
-14.11
-17.45
-21.11
-24.65
-27.67
-29.93
-31.38
-32.06
-32.09
-31.62
-30.78
-29.72
-28.55
-27.41
-26.38
-25.53
-24.91
-24.45
-23.97
-23.17
-21.78
-19.76
-17.37
-15.16
-13.76
-13.48
-14.13
-14.99
-15.15
-13.91
-11.10
-7.08
-2.46
2.28
7.01
11.89
17.07
22.44
27.54
31.71
34.57
36.18
37.02
37.69
38.47
39.13
39.14
38.05
35.79
32.80
29.72
27.01
24.63
22.20
19.27
15.72
11.93
8.58
6.36
5.51
5.73
6.35
6.57
5.91
4.25
1.95
-0.49
-2.50
-3.73
-4.13
-3.83
-3.22
-2.77
-2.93
-4.03
-6.16
-9.08
-12.28
-15.09
-16.88
-17.25
-16.10
-13.60
-10.02
-5.62
-0.66
4.63
10.00
15.18
19.87
23.83
26.92
29.14
30.72
32.07
33.72
36.13
39.51
43.65
48.01
51.99
55.19
57.71
59.94
62.39
65.23
68.01
69.70
68.95
64.58
56.05
43.67
28.57
12.37
-3.40
-17.73
-30.24
-41.07
-50.47
-58.58
-65.34
-70.72
-74.93
-78.64
-82.61
-87.41
-93.05
-99.02
-104.54
-108.92
-111.79
-113.13
-113.07
-111.77
-109.31
-105.82
-101.48
-96.52
-91.12
-85.31
-78.94
-71.74
-63.49
-54.05
-43.42
-31.69
-19.03
-5.74
7.68
20.59
32.42
42.80
51.81
59.84
67.37
74.58
81.17
86.53
90.11
91.72
91.75
90.84
89.49
87.78
85.37
81.80
76.94
71.21
65.31
59.92
55.37
51.49
47.89
44.25
40.51
36.91
33.76
31.25
29.32
27.77
26.31
24.70
22.71
20.11
16.67
12.25
6.87
0.81
-5.51
-11.72
-17.64
-23.40
-29.34
-35.71
-42.52
-49.40
-55.61
-60.22
-62.36
-61.45
-57.39
-50.63
-42.07
-32.82
-23.85
-15.74
-8.57
-2.05
4.22
10.57
16.98
23.19
28.69
32.97
35.69
36.77
36.45
35.22
33.61
31.93
30.17
27.92
24.72
20.34
15.08
9.81
5.63
3.50
3.75
5.96
9.06
11.69
12.68
11.41
7.93
2.95
-2.42
-7.03
-9.90
-10.46
-8.73
-5.35
-1.41
1.83
3.34
2.73
0.36
-2.86
-5.86
-7.89
-8.83
-9.16
-9.57
-10.60
-12.40
-14.67
-16.91
-18.63
-19.47
-19.22
-17.79
-15.16
-11.37
-6.63
-1.28
4.24
9.49
14.15
18.04
21.11
23.27
24.41
24.40
23.27
21.22
18.61
15.77
12.86
9.79
6.32
2.32
-2.07
-6.35
-9.93
-12.35
-13.50
-13.58
-12.95
-11.80
-10.06
-7.46
-3.68
1.46
7.96
15.70
24.45
33.99
44.06
54.33
64.24
72.92
79.25
82.02
80.27
73.63
62.59
48.41
32.80
17.51
4.01
-6.74
-14.18
-18.18
-19.13
-17.96
-16.15
-15.35
-16.75
-20.60
-26.09
-31.77
-36.28
-38.99
-40.17
-40.69
-41.43
-42.71
-44.25
-45.27
-45.05
-43.26
-39.99
-35.76
-31.26
-27.11
-23.83
-21.72
-20.97
-21.63
-23.60
-26.59
-30.01
-33.03
-34.64
-33.91
-30.32
-24.04
-15.96
-7.49
0.02
5.72
9.55
12.13
14.36
16.95
20.12
23.75
27.66
31.84
36.51
41.88
47.77
53.43
57.77
59.88
59.46
57.02
53.59
50.16
47.26
44.66
41.69
37.62
32.14
25.54
18.57
12.17
7.12
3.85
2.34
2.26
3.03
4.08
4.88
5.14
4.79
3.94
2.87
1.76
0.75
-0.26
-1.55
-3.52
-6.58
-10.90
-16.36
-22.40
-28.24
-33.07
-36.34
-37.92
-37.99
-36.98
-35.29
-33.25
-31.08
-28.99
-27.16
-25.70
-24.62
-23.84
-23.25
-22.83
-22.68
-22.85
-23.35
-23.90
-24.03
-23.18
-20.87
-16.94
-11.53
-5.14
1.48
7.50
12.19
15.17
16.52
16.76
16.63
16.72
17.25
17.91
18.09
17.14
14.78
11.17
6.83
2.45
-1.39
-4.36
-6.34
-7.35
-7.53
-7.14
-6.45
-5.80
-5.41
-5.35
-5.58
-6.00
-6.58
-7.46
-8.77
-10.56
-12.67
-14.63
-15.97
-16.29
-15.46
-13.68
-11.27
-8.54
-5.73
-3.03
-0.62
1.18
2.02
1.68
0.27
-1.72
-3.52
-4.34
-3.65
-1.33
2.34
6.86
11.55
15.77
18.88
20.38
20.06
18.08
15.12
12.06
9.67
8.33
7.81
7.59
7.01
5.75
3.97
2.16
0.93
0.72
1.62
3.33
5.30
6.85
7.42
6.68
4.59
1.33
-2.82
-7.65
-13.06
-19.04
-25.48
-32.02
-38.15
-43.26
-46.82
-48.37
-47.62
-44.44
-38.93
-31.56
-23.14
-14.67
-7.04
-0.70
4.44
8.74
12.63
16.30
19.62
22.36
24.34
25.49
25.87
25.51
24.43
22.55
19.93
16.74
13.32
10.03
7.26
5.30
4.26
4.06
4.39
4.81
4.97
4.65
3.91
2.88
1.72
0.38
-1.30
-3.46
-6.12
-9.08
-12.08
-14.93
-17.59
-20.11
-22.52
-24.73
-26.56
-27.95
-29.06
-30.17
-31.50
-33.07
-34.53
-35.43
-35.42
-34.49
-32.99
-31.40
-30.05
-29.01
-28.04
-26.86
-25.33
-23.58
-21.95
-20.69
-19.82
-18.97
-17.58
-15.22
-11.83
-7.91
-4.24
-1.55
-0.17
0.19
0.13
0.31
1.07
2.36
3.81
5.05
5.87
6.26
6.37
6.45
6.81
7.87
10.06
13.69
18.77
24.81
30.88
35.79
38.43
38.10
34.69
28.65
20.85
12.25
3.75
-4.06
-10.88
-16.70
-21.66
-25.88
-29.49
-32.36
-34.29
-34.99
-34.22
-32.02
-28.72
-24.89
-21.17
-18.00
-15.49
-13.46
-11.55
-9.43
-6.96
-4.23
-1.48
1.01
3.01
4.41
5.25
5.75
6.18
6.86
8.05
9.83
12.15
14.80
17.47
19.73
21.12
21.21
19.90
17.50
14.72
12.45
11.31
11.45
12.42
13.51
14.05
13.75
12.75
11.40
10.00
8.57
6.92
4.77
2.02
-1.22
-4.67
-8.05
-11.18
-13.91
-16.14
-17.67
-18.33
-18.03
-16.90
-15.30
-13.65
-12.23
-11.03
-9.82
-8.33
-6.44
-4.25
-1.95
0.26
2.28
4.04
5.44
6.40
6.85
6.88
6.70
6.64
6.89
7.46
8.17
8.74
8.97
8.72
8.00
6.81
5.23
3.40
1.52
-0.25
-1.89
-3.59
-5.66
-8.25
-11.28
-14.34
-16.88
-18.52
-19.24
-19.38
-19.45
-19.85
-20.58
-21.37
-21.86
-21.95
-21.87
-22.09
-22.95
-24.44
-26.13
-27.39
-27.66
-26.75
-24.88
-22.51
-20.01
-17.54
-14.94
-11.92
-8.24
-3.96
0.59
4.93
8.57
11.32
13.30
14.85
16.38
18.13
20.03
21.77
23.03
23.65
23.79
23.74
23.86
24.32
25.05
25.77
26.14
25.91
25.03
23.62
21.91
20.08
18.14
15.94
13.24
9.95
6.14
2.12
-1.74
-5.18
-8.19
-10.98
-13.87
-17.13
-20.80
-24.85
-29.17
-33.74
-38.54
-43.38
-47.79
-50.99
-52.11
-50.47
-45.89
-38.82
-30.08
-20.70
-11.52
-3.04
4.58
11.35
17.34
22.51
26.73
29.83
31.76
32.64
32.77
32.53
32.31
32.31
32.51
32.76
32.85
32.68
32.33
31.94
31.67
31.47
31.16
30.36
28.78
26.32
23.17
19.74
16.44
13.52
10.92
8.39
5.66
2.53
-0.99
-4.74
-8.44
-11.89
-14.96
-17.66
-20.11
-22.50
-25.03
-27.92
-31.34
-35.23
-39.30
-42.94
-45.34
-45.74
-43.61
-38.92
-32.06
-23.74
-14.71
-5.61
3.13
11.25
18.52
24.72
29.59
32.97
34.79
35.22
34.61
33.37
31.87
30.29
28.55
26.37
23.44
19.57
14.84
9.50
4.00
-1.21
-5.79
-9.60
-12.75
-15.52
-18.26
-21.22
-24.31
-27.02
-28.51
-27.92
-24.79
-19.44
-13.11
-7.61
-4.78
-5.87
-11.16
-20.01
-31.24
-43.67
-56.44
-69.09
-81.34
-92.79
-102.81
-110.47
-114.71
-114.41
-108.49
-96.22
-77.60
-53.71
-26.84
-0.11
23.48
41.92
54.98
64.13
71.72
79.84
89.37
99.76
109.42
116.82
121.31
123.49
124.85
126.93
130.52
135.22
139.86
143.19
144.69
144.72
144.08
143.14
141.30
137.12
129.17
116.98
101.50
84.95
69.72
57.36
47.97
40.40
33.13
25.17
16.63
8.57
2.39
-0.96
-1.35
0.59
3.80
7.25
10.18
12.21
13.19
13.01
11.60
8.96
5.34
1.19
-2.82
-6.01
-7.82
-7.83
-5.92
-2.22
2.85
8.63
14.36
19.37
23.30
26.08
27.91
29.08
29.88
30.47
30.99
31.55
32.19
32.77
32.88
31.86
28.97
23.75
16.26
7.10
-2.80
-12.52
-21.58
-30.05
-38.41
-47.20
-56.62
-66.29
-75.37
-82.84
-87.95
-90.42
-90.43
-88.39
-84.74
-79.73
-73.57
-66.57
-59.27
-52.49
-47.03
-43.36
-41.43
-40.73
-40.59
-40.62
-40.81
-41.44
-42.68
-44.27
-45.46
-45.34
-43.22
-39.01
-33.24
-26.88
-20.86
-15.76
-11.54
-7.70
-3.51
1.62
7.82
14.73
21.50
27.14
30.72
31.73
30.18
26.61
22.23
18.67
17.83
21.23
29.42
41.63
55.83
69.46
80.29
87.39
91.28
93.43
95.20
96.95
97.75
95.95
90.31
80.88
69.14
57.22
46.94
38.91
32.57
26.89
21.28
16.17
12.85
12.79
16.71
24.13
33.48
42.83
50.56
56.06
59.91
63.71
69.49
78.84
92.20
108.39
124.90
138.71
147.32
149.40
144.83
134.13
117.75
95.81
68.38
36.17
0.97
-34.56
-67.62
-96.25
-119.86
-139.01
-154.62
-167.29
-176.92
-183.03
-185.31
-184.00
-179.99
-174.31
-167.79
-160.68
-152.82
-143.95
-133.96
-123.08
-111.77
-100.62
-90.20
-80.94
-73.12
-66.75
-61.50
-56.73
-51.75
-46.01
-39.45
-32.52
-26.05
-20.84
-17.32
-15.37
-14.41
-13.77
-12.87
-11.41
-9.23
-6.25
-2.32
2.73
9.05
16.73
25.91
36.82
49.62
64.31
80.32
96.52
111.56
124.50
135.31
144.91
154.47
164.36
173.40
178.81
177.26
166.25
145.38
116.51
82.93
47.95
13.54
-19.79
-52.36
-84.12
-113.83
-139.13
-157.52
-167.70
-170.34
-167.97
-163.92
-161.05
-160.77
-162.97
-166.65
-170.73
-174.55
-177.70
-179.47
-178.26
-171.92
-158.54
-137.67
-110.97
-81.85
-54.09
-30.23
-10.56
6.61
23.69
42.17
62.06
82.16
101.32
119.19
136.10
151.83
164.53
170.56
165.84
147.98
117.92
80.05
40.85
6.45
-19.36
-35.72
-44.24
-47.77
-49.23
-50.98
-54.50
-60.28
-67.82
-75.92
-83.13
-88.26
-90.85
-91.10
-89.42
-86.31
-82.20
-77.49
-72.24
-65.53
-55.19
-38.40
-13.26
19.52
55.93
89.60
114.08
125.18
122.05
106.68
82.63
53.71
23.43
-4.99
-28.67
-45.66
-55.62
-60.04
-61.51
-62.21
-62.76
-62.08
-58.42
-50.65
-39.15
-25.76
-12.89
-2.55
4.32
7.86
8.98
8.82
8.45
8.77
10.64
14.88
22.25
33.21
47.69
65.10
84.51
104.95
125.42
144.77
161.37
173.24
178.42
175.73
165.38
149.10
129.55
109.48
90.90
74.77
61.22
50.00
40.73
33.02
26.31
19.90
13.16
5.81
-1.78
-8.79
-14.27
-17.68
-19.17
-19.42
-19.26
-19.23
-19.35
-19.23
-18.50
-17.09
-15.35
-13.86
-13.06
-13.02
-13.33
-13.48
-13.08
-12.04
-10.59
-9.06
-7.67
-6.53
-5.64
-4.95
-4.44
-4.06
-3.74
-3.40
-2.94
-2.33
-1.57
-0.73
0.10
0.85
1.46
1.89
2.08
1.99
1.61
0.96
0.09
-0.94
-2.05
-3.11
-3.99
-4.65
-5.20
-5.97
-7.31
-9.45
-12.31
-15.51
-18.46
-20.62
-21.67
-21.53
-20.33
-18.27
-15.59
-12.58
-9.77
-7.75
-7.13
-8.17
-10.56
-13.55
-16.12
-17.51
-17.38
-16.02
-14.02
-11.99
-10.35
-9.23
-8.58
-8.38
-8.75
-9.78
-11.54
-13.82
-16.15
-17.94
-18.73
-18.38
-17.15
-15.62
-14.34
-13.65
-13.57
-13.75
-13.79
-13.38
-12.47
-11.25
-10.02
-9.07
-8.51
-8.22
-7.92
-7.22
-5.68
-2.94
1.22
6.81
13.64
21.30
29.25
36.88
43.51
48.55
51.56
52.34
51.04
48.13
44.23
39.96
35.76
31.80
28.13
24.81
21.94
19.66
17.95
16.61
15.21
13.33
10.74
7.60
4.33
1.34
-1.20
-3.52
-6.00
-8.97
-12.50
-16.32
-19.99
-23.12
-25.55
-27.37
-28.91
-30.54
-32.53
-34.86
-37.25
-39.21
-40.22
-39.91
-38.18
-35.23
-31.51
-27.49
-23.55
-19.86
-16.43
-13.17
-9.92
-6.49
-2.65
1.80
6.96
12.69
18.51
23.70
27.55
29.62
29.91
28.85
27.05
24.99
22.77
20.10
16.51
11.72
5.96
-0.01
-5.10
-8.37
-9.39
-8.40
-6.16
-3.65
-1.66
-0.65
-0.66
-1.46
-2.78
-4.38
-6.10
-7.78
-9.28
-10.45
-11.31
-12.15
-13.45
-15.84
-19.71
-25.09
-31.49
-38.10
-44.07
-48.83
-52.22
-54.52
-56.22
-57.70
-59.13
-60.50
-61.72
-62.81
-63.93
-65.35
-67.24
-69.58
-72.18
-74.73
-77.00
-78.97
-80.82
-82.89
-85.46
-88.46
-91.46
-93.58
-93.89
-91.62
-86.49
-78.85
-69.46
-59.33
-49.36
-40.18
-32.04
-24.86
-18.40
-12.35
-6.52
-0.99
3.99
8.04
10.90
12.53
13.13
12.96
12.16
10.61
8.09
4.50
0.21
-4.02
-7.22
-8.56
-7.68
-4.74
-0.33
4.83
10.08
14.94
19.16
22.65
25.53
28.06
30.63
33.57
36.97
40.60
43.93
46.32
47.32
46.85
45.27
43.12
40.86
38.61
36.17
33.17
29.43
25.09
20.60
16.42
12.75
9.42
5.93
1.78
-3.22
-8.80
-14.35
-19.24
-23.05
-25.73
-27.43
-28.45
-29.00
-29.22
-29.16
-28.74
-27.90
-26.52
-24.54
-22.06
-19.40
-17.02
-15.39
-14.74
-14.94
-15.59
-16.18
-16.32
-15.80
-14.47
-12.18
-8.72
-3.94
2.08
8.88
15.70
21.72
26.26
29.07
30.32
30.50
30.29
30.33
31.00
32.29
33.81
34.90
35.01
33.91
31.86
29.49
27.52
26.50
26.53
27.36
28.44
29.18
29.08
27.84
25.43
22.04
18.07
14.03
10.40
7.51
5.46
4.10
3.14
2.31
1.38
0.24
-1.10
-2.56
-4.05
-5.54
-6.98
-8.46
-10.01
-11.68
-13.46
-15.23
-16.69
-17.39
-16.69
-13.94
-8.68
-0.80
9.35
21.04
33.43
45.84
57.96
69.86
81.74
93.67
105.35
116.14
125.26
132.24
137.35
141.72
147.04
154.69
164.90
176.35
186.31
191.61
189.99
181.09
166.91
151.26
138.35
131.33
131.03
135.67
141.39
143.49
137.81
121.78
95.13
59.76
19.30
-21.82
-59.17
-89.25
-110.05
-121.10
-123.39
-118.67
-108.81
-95.11
-78.24
-58.76
-38.01
-18.93
-5.88
-3.62
-15.38
-41.22
-77.39
-117.22
-153.41
-180.68
-197.56
-206.44
-212.03
-218.95
-229.61
-242.98
-255.05
-260.55
-255.26
-238.07
-211.78
-182.32
-156.06
-137.16
-125.72
-117.93
-108.34
-92.80
-70.73
-45.20
-20.97
-1.87
11.26
20.50
29.02
38.82
49.43
58.36
62.82
61.62
55.90
48.39
41.79
37.25
34.10
30.62
25.28
17.63
8.38
-1.27
-10.39
-18.62
-26.22
-33.82
-42.48
-53.72
-69.34
-90.70
-117.85
-148.81
-179.74
-206.21
-224.56
-233.23
-232.95
-225.77
-213.85
-198.45
-179.77
-157.56
-132.05
-104.43
-76.77
-51.30
-29.54
-11.81
2.79
15.84
28.84
42.57
56.93
71.23
84.55
96.37
106.68
115.81
124.15
131.70
137.97
142.21
143.66
141.80
136.56
128.13
116.91
103.32
87.85
71.17
54.31
38.64
25.92
18.12
17.03
23.94
38.97
60.76
86.51
112.48
135.06
151.67
161.34
164.56
162.55
156.62
147.49
135.36
120.14
102.00
81.59
60.01
38.64
18.73
1.19
-13.51
-25.20
-33.84
-39.20
-40.64
-37.40
-29.07
-16.33
-1.25
12.90
22.70
25.76
21.73
12.42
0.96
-9.45
-16.92
-21.43
-24.44
-27.71
-32.17
-37.18
-40.52
-39.26
-30.88
-14.25
9.91
39.22
70.33
99.76
124.60
143.02
154.30
158.82
157.94
153.63
148.23
143.86
141.90
142.54
144.58
145.75
143.48
135.93
122.69
105.16
86.00
68.28
54.43
45.63
41.63
41.07
42.27
43.58
43.85
42.51
39.51
35.26
30.52
26.17
22.97
21.36
21.24
22.05
22.89
22.77
20.94
17.07
11.42
4.73
-1.97
-7.76
-12.07
-14.82
-16.45
-17.61
-18.93
-20.82
-23.38
-26.49
-29.97
-33.61
-37.22
-40.59
-43.46
-45.46
-46.32
-45.97
-44.60
-42.69
-40.85
-39.55
-38.97
-38.95
-39.09
-38.97
-38.39
-37.40
-36.22
-35.14
-34.38
-34.06
-34.20
-34.78
-35.76
-37.09
-38.64
-40.27
-41.80
-42.98
-43.61
-43.52
-42.65
-41.15
-39.28
-37.38
-35.71
-34.34
-33.13
-31.82
-30.17
-28.07
-25.63
-23.13
-20.91
-19.30
-18.46
-18.37
-18.83
-19.54
-20.19
-20.51
-20.36
-19.66
-18.44
-16.75
-14.69
-12.44
-10.13
-7.75
-5.13
-2.03
1.72
5.91
9.87
12.58
13.04
10.70
5.72
-1.08
-8.55
-15.76
-22.19
-27.78
-32.69
-36.96
-40.45
-42.91
-44.24
-44.65
-44.61
-44.55
-44.57
-44.20
-42.52
-38.46
-31.23
-20.62
-7.17
7.88
22.88
36.17
46.51
53.30
56.65
57.12
55.42
52.02
47.12
40.77
33.12
24.62
16.02
8.12
1.56
-3.32
-6.42
-7.80
-7.61
-6.08
-3.59
-0.73
1.73
3.12
3.01
1.34
-1.53
-4.99
-8.37
-11.13
-13.02
-14.15
-14.99
-16.11
-17.99
-20.77
-24.22
-27.83
-31.01
-33.30
-34.43
-34.32
-33.00
-30.53
-27.02
-22.65
-17.79
-12.86
-8.34
-4.56
-1.61
0.67
2.64
4.67
7.04
9.74
12.48
14.74
16.02
15.96
14.56
12.24
9.61
7.39
6.10
6.02
7.04
8.82
10.81
12.47
13.35
13.19
12.04
10.16
7.99
5.94
4.20
2.75
1.34
-0.22
-1.98
-3.80
-5.53
-7.03
-8.39
-9.82
-11.50
-13.50
-15.65
-17.68
-19.34
-20.49
-21.19
-21.55
-21.72
-21.70
-21.41
-20.57
-18.95
-16.40
-12.95
-8.89
-4.62
-0.59
2.92
5.74
7.87
9.37
10.27
10.62
10.43
9.85
9.09
8.47
8.26
8.63
9.52
10.70
11.82
12.59
12.84
12.60
12.01
11.27
10.49
9.65
8.60
7.16
5.20
2.72
-0.11
-3.05
-5.88
-8.47
-10.81
-13.02
-15.25
-17.59
-20.00
-22.31
-24.19
-25.28
-25.20
-23.66
-20.49
-15.79
-9.82
-3.02
4.14
11.22
17.83
23.66
28.44
32.07
34.58
36.23
37.34
38.19
38.91
39.45
39.70
39.55
38.99
38.02
36.59
34.59
31.93
28.70
25.17
21.78
18.91
16.81
15.55
15.11
15.41
16.40
18.00
20.15
22.74
25.63
28.69
31.74
34.65
37.31
39.63
41.64
43.29
44.40
44.57
43.28
40.16
35.18
28.82
21.95
15.41
9.62
4.40
-0.98
-7.42
-15.52
-25.29
-36.11
-46.97
-56.78
-64.63
-69.93
-72.47
-72.33
-69.85
-65.61
-60.29
-54.70
-49.51
-45.26
-42.14
-40.04
-38.57
-37.21
-35.50
-33.22
-30.46
-27.54
-24.89
-22.81
-21.28
-20.08
-18.92
-17.61
-16.22
-15.04
-14.36
-14.36
-15.01
-16.09
-17.39
-18.77
-20.25
-21.95
-24.07
-26.67
-29.67
-32.83
-35.78
-38.15
-39.67
-40.19
-39.75
-38.50
-36.66
-34.46
-32.03
-29.42
-26.43
-22.74
-18.05
-12.25
-5.53
1.50
7.96
12.98
15.94
16.72
15.62
13.32
10.58
8.08
6.26
5.37
5.48
6.50
8.21
10.27
12.32
14.05
15.27
15.92
16.07
15.83
15.35
14.77
14.12
13.34
12.25
10.57
8.07
4.72
0.84
-3.02
-6.26
-8.55
-10.05
-11.35
-13.16
-15.98
-19.78
-24.02
-27.82
-30.21
-30.49
-28.42
-24.21
-18.46
-11.94
-5.36
0.76
6.18
10.88
14.94
18.40
21.22
23.35
24.77
25.58
25.99
26.22
26.38
26.46
26.34
25.94
25.33
24.67
24.22
24.09
24.14
24.05
23.41
22.01
19.94
17.50
15.03
12.66
10.31
7.75
4.89
1.85
-1.06
-3.50
-5.38
-6.90
-8.39
-10.19
-12.42
-14.94
-17.59
-20.22
-22.87
-25.70
-28.84
-32.23
-35.57
-38.32
-39.81
-39.50
-37.05
-32.48
-26.15
-18.64
-10.62
-2.73
4.55
10.90
16.13
20.25
23.37
25.70
27.49
28.96
30.27
31.54
32.81
34.03
35.13
35.93
36.25
35.98
35.17
34.03
32.85
31.94
31.39
31.17
31.13
31.11
31.08
31.05
31.09
31.15
31.19
31.12
30.86
30.32
29.39
27.89
25.69
22.80
19.54
16.50
14.30
13.32
13.47
14.23
15.00
15.29
15.07
14.62
14.36
14.56
15.29
16.45
17.89
19.51
21.16
22.67
23.74
24.08
23.43
21.70
18.97
15.41
11.35
7.13
3.17
-0.11
-2.41
-3.62
-3.87
-3.49
-2.87
-2.25
-1.70
-1.05
-0.11
1.28
3.05
4.89
6.37
7.08
6.87
5.82
4.27
2.59
1.08
-0.09
-0.89
-1.43
-1.92
-2.64
-3.93
-6.04
-9.06
-12.93
-17.40
-22.24
-27.21
-32.09
-36.57
-40.25
-42.69
-43.67
-43.23
-41.72
-39.54
-36.90
-33.80
-30.05
-25.60
-20.66
-15.70
-11.19
-7.29
-3.88
-0.59
2.83
6.34
9.65
12.36
14.19
15.11
15.23
14.68
13.54
11.86
9.82
7.75
6.08
5.16
5.01
5.33
5.63
5.45
4.62
3.33
1.98
0.95
0.46
0.50
0.87
1.39
1.87
2.19
2.21
1.82
0.85
-0.77
-3.05
-5.88
-9.03
-12.17
-14.89
-16.79
-17.64
-17.48
-16.60
-15.49
-14.54
-13.91
-13.44
-12.75
-11.47
-9.48
-6.92
-4.16
-1.67
0.17
1.17
1.29
0.66
-0.54
-2.07
-3.67
-5.02
-5.80
-5.66
-4.30
-1.60
2.23
6.59
10.57
13.15
13.57
11.56
7.45
2.00
-3.89
-9.46
-14.23
-18.01
-20.80
-22.67
-23.79
-24.40
-24.91
-25.83
-27.52
-30.07
-33.16
-36.18
-38.39
-39.27
-38.73
-37.09
-34.97
-32.96
-31.33
-29.86
-27.89
-24.56
-19.24
-11.79
-2.68
7.12
16.53
24.61
30.71
34.61
36.34
36.13
34.37
31.54
28.14
24.61
21.25
18.19
15.54
13.42
11.97
11.26
11.16
11.35
11.46
11.24
10.76
10.31
10.21
10.60
11.35
12.06
12.30
11.78
10.45
8.38
5.77
2.83
-0.20
-3.04
-5.42
-7.20
-8.43
-9.40
-10.54
-12.24
-14.68
-17.76
-21.12
-24.39
-27.28
-29.75
-31.88
-33.87
-35.80
-37.64
-39.26
-40.51
-41.23
-41.28
-40.55
-38.82
-35.88
-31.61
-26.10
-19.70
-12.98
-6.56
-0.98
3.44
6.67
8.91
10.52
11.93
13.35
14.84
16.16
17.00
17.05
16.17
14.46
12.18
9.64
7.00
4.27
1.26
-2.24
-6.28
-10.71
-15.12
-19.02
-22.02
-23.98
-25.07
-25.67
-26.24
-27.12
-28.42
-30.07
-31.85
-33.55
-34.98
-35.92
-36.05
-35.04
-32.48
-28.14
-22.01
-14.31
-5.55
3.69
12.69
20.77
27.33
32.01
34.80
36.01
36.34
36.58
37.40
39.14
41.60
44.15
46.00
46.45
45.19
42.49
39.12
36.07
34.19
33.90
34.97
36.84
38.70
39.97
40.36
39.90
38.78
37.36
35.99
35.01
34.66
34.89
35.29
35.19
33.87
30.83
26.09
20.21
14.07
8.52
4.07
0.82
-1.54
-3.41
-5.06
-6.47
-7.40
-7.59
-6.98
-5.80
-4.52
-3.61
-3.34
-3.69
-4.46
-5.42
-6.40
-7.24
-7.72
-7.49
-6.25
-4.02
-1.31
0.98
1.92
1.11
-0.98
-3.13
-3.78
-1.84
2.87
9.43
16.21
21.49
23.96
23.05
18.76
11.61
2.43
-7.63
-17.13
-24.63
-28.98
-29.76
-27.47
-23.21
-18.23
-13.33
-8.67
-4.08
0.42
4.28
6.54
6.37
3.68
-0.54
-4.69
-7.31
-7.79
-6.69
-5.27
-4.77
-5.64
-7.47
-9.33
-10.47
-10.84
-11.07
-12.07
-14.45
-18.20
-22.64
-26.81
-29.83
-31.25
-31.03
-29.45
-26.85
-23.48
-19.58
-15.32
-11.03
-7.12
-4.07
-2.23
-1.66
-2.04
-2.80
-3.26
-2.90
-1.57
0.45
2.60
4.23
4.90
4.52
3.45
2.31
1.70
1.99
3.02
4.31
5.26
5.58
5.52
5.71
6.88
9.38
12.94
16.81
20.14
22.37
23.53
24.04
24.38
24.71
24.78
23.98
21.77
17.81
12.12
4.94
-3.29
-11.98
-20.33
-27.32
-31.91
-33.37
-31.61
-27.19
-20.99
-13.58
-4.94
5.48
18.17
32.95
48.64
63.50
75.95
85.20
91.43
95.18
96.68
95.33
89.91
79.39
63.71
44.11
22.83
2.29
-15.77
-30.63
-42.52
-52.23
-60.58
-68.21
-75.47
-82.49
-89.07
-94.71
-98.52
-99.39
-96.24
-88.43
-76.08
-60.06
-41.85
-23.09
-5.19
10.91
24.81
36.54
46.39
54.87
62.54
69.84
76.86
83.05
87.30
88.12
84.17
74.71
59.86
40.59
18.53
-4.27
-25.57
-43.18
-55.41
-61.54
-62.09
-58.65
-53.35
-47.99
-43.39
-39.34
-35.06
-30.00
-24.30
-18.87
-14.99
-13.74
-15.59
-20.16
-26.40
-32.81
-37.85
-40.22
-39.26
-35.08
-28.35
-20.07
-11.22
-2.47
5.86
13.65
20.99
28.12
35.29
42.45
48.70
52.28
50.94
43.13
28.93
10.55
-8.45
-24.49
-35.45
-41.26
-43.40
-43.76
-43.59
-43.15
-42.19
-40.58
-38.73
-37.41
-37.18
-37.90
-38.74
-38.60
-36.63
-32.62
-27.17
-21.35
-16.22
-12.40
-9.86
-8.10
-6.40
-4.24
-1.54
1.32
3.68
4.91
4.68
3.15
0.95
-0.99
-1.84
-1.17
0.73
2.97
4.39
4.03
1.61
-2.38
-6.93
-10.96
-13.76
-15.16
-15.41
-14.98
-14.29
-13.63
-13.19
-13.11
-13.44
-14.07
-14.57
-14.22
-12.37
-8.86
-4.38
-0.33
1.77
1.15
-1.65
-4.92
-6.64
-5.57
-1.92
2.86
6.90
8.97
9.05
7.95
6.64
5.48
4.20
2.31
-0.16
-2.46
-3.37
-1.92
1.96
7.36
12.78
16.82
18.73
18.64
17.38
16.09
15.78
16.89
19.22
22.01
24.21
24.99
24.05
21.78
19.05
16.82
15.74
15.94
17.26
19.48
22.63
26.91
32.39
38.73
45.19
50.89
55.18
57.86
59.11
59.23
58.37
56.59
54.06
51.26
49.02
48.15
48.96
50.96
52.96
53.61
52.05
48.37
43.61
39.22
36.35
35.43
36.00
37.16
38.08
38.35
38.01
37.23
35.94
33.72
30.05
24.63
17.74
10.27
3.32
-2.18
-5.90
-8.12
-9.53
-10.80
-12.25
-13.83
-15.18
-15.89
-15.83
-15.16
-14.35
-13.91
-14.29
-15.70
-18.00
-20.82
-23.66
-26.06
-27.78
-28.88
-29.72
-30.86
-32.75
-35.60
-39.20
-43.04
-46.59
-49.49
-51.71
-53.40
-54.67
-55.47
-55.55
-54.67
-52.79
-50.22
-47.39
-44.72
-42.34
-39.97
-37.04
-32.86
-26.95
-19.12
-9.58
1.09
12.10
22.64
32.02
39.86
46.01
50.47
53.32
54.69
54.91
54.56
54.49
55.44
57.70
60.76
63.49
64.53
62.95
58.64
52.31
45.21
38.52
33.11
29.27
26.84
25.40
24.40
23.27
21.43
18.46
14.24
9.06
3.70
-0.84
-3.46
-3.41
-0.45
5.09
12.27
19.79
26.16
29.99
30.17
26.02
17.16
3.55
-14.72
-37.33
-63.60
-92.29
-121.57
-149.17
-172.76
-190.56
-201.67
-206.26
-205.26
-199.86
-191.09
-179.51
-165.39
-148.93
-130.49
-110.76
-90.71
-71.45
-53.95
-38.97
-26.82
-17.58
-11.09
-7.17
-5.62
-6.16
-8.34
-11.50
-14.83
-17.38
-18.23
-16.54
-11.73
-3.59
7.61
20.96
35.03
48.03
58.30
64.76
67.32
66.81
64.83
63.11
62.94
64.78
68.30
72.58
76.53
79.22
80.02
78.61
74.94
69.24
62.07
54.24
46.54
39.50
33.15
27.06
20.72
13.78
6.43
-0.74
-7.01
-11.82
-14.98
-16.61
-16.98
-16.46
-15.39
-14.22
-13.36
-13.17
-13.82
-15.19
-16.94
-18.60
-19.74
-20.06
-19.46
-18.01
-15.91
-13.41
-10.79
-8.40
-6.53
-5.39
-4.95
-4.87
-4.59
-3.55
-1.41
1.71
5.35
8.89
11.85
14.01
15.45
16.29
16.60
16.39
15.70
14.79
14.06
13.88
14.32
15.13
15.81
15.91
15.25
14.01
12.59
11.37
10.50
9.87
9.23
8.35
7.19
5.90
4.69
3.61
2.51
0.99
-1.34
-4.62
-8.62
-12.71
-16.14
-18.43
-19.59
-20.08
-20.60
-21.59
-23.14
-24.89
-26.34
-27.12
-27.10
-26.40
-25.15
-23.37
-21.01
-18.07
-14.78
-11.54
-8.78
-6.78
-5.48
-4.56
-3.61
-2.33
-0.55
1.61
3.87
5.88
7.34
8.08
8.14
7.80
7.41
7.28
7.55
8.19
9.10
10.25
11.66
13.33
15.11
16.53
17.09
16.36
14.29
11.23
7.80
4.62
2.15
0.56
-0.23
-0.42
-0.39
-0.53
-1.21
-2.72
-5.09
-7.98
-10.82
-12.99
-13.94
-13.52
-11.91
-9.53
-6.90
-4.46
-2.43
-0.73
0.92
2.93
5.59
8.93
12.72
16.47
19.67
21.95
23.16
23.40
22.86
21.76
20.32
18.73
17.23
16.02
15.25
14.90
14.68
14.23
13.18
11.39
8.97
6.28
3.75
1.69
0.17
-0.97
-1.92
-2.83
-3.73
-4.52
-5.14
-5.55
-5.78
-5.88
-5.91
-5.86
-5.75
-5.64
-5.64
-5.91
-6.54
-7.49
-8.55
-9.39
-9.65
-9.16
-8.03
-6.62
-5.55
-5.35
-6.22
-7.95
-9.93
-11.43
-11.91
-11.27
-9.81
-8.16
-6.89
-6.32
-6.43
-6.93
-7.48
-7.84
-7.93
-7.79
-7.45
-6.89
-6.09
-5.11
-4.18
-3.61
-3.62
-4.26
-5.27
-6.27
-6.93
-7.17
-7.22
-7.41
-8.07
-9.31
-10.98
-12.82
-14.58
-16.10
-17.29
-18.13
-18.54
-18.44
-17.74
-16.39
-14.39
-11.78
-8.68
-5.27
-1.83
1.38
4.19
6.57
8.70
10.82
13.11
15.56
17.98
19.98
21.23
21.50
20.74
19.04
16.53
13.39
9.85
6.16
2.58
-0.62
-3.33
-5.51
-7.19
-8.41
-9.24
-9.70
-9.83
-9.70
-9.42
-9.08
-8.78
-8.57
-8.47
-8.48
-8.56
-8.65
-8.71
-8.80
-9.06
-9.68
-10.73
-12.18
-13.83
-15.31
-16.30
-16.56
-15.96
-14.58
-12.57
-10.16
-7.53
-4.87
-2.28
0.12
2.21
3.88
5.05
5.72
5.99
6.04
6.05
6.12
6.26
6.38
6.42
6.43
6.60
7.08
7.92
8.86
9.46
9.36
8.48
7.13
5.82
4.98
4.66
4.55
4.23
3.47
2.42
1.49
1.03
1.02
1.05
0.53
-1.01
-3.68
-7.24
-11.23
-15.15
-18.65
-21.52
-23.72
-25.25
-26.13
-26.32
-25.69
-24.07
-21.41
-17.84
-13.73
-9.56
-5.67
-2.11
1.37
5.14
9.46
14.29
19.33
24.24
28.78
32.87
36.45
39.35
41.24
41.78
41.13
40.10
40.08
42.31
47.23
54.06
60.98
66.03
68.12
67.46
65.26
62.86
60.72
58.15
53.75
46.28
35.53
22.39
8.51
-4.52
-15.72
-24.93
-32.41
-38.36
-42.75
-45.21
-45.42
-43.38
-39.62
-34.98
-30.26
-25.97
-22.09
-18.28
-14.22
-9.99
-6.09
-3.35
-2.36
-3.29
-5.68
-8.69
-11.50
-13.47
-14.37
-14.26
-13.49
-12.43
-11.47
-10.87
-10.69
-10.78
-10.86
-10.59
-9.76
-8.37
-6.68
-5.10
-4.12
-4.02
-4.89
-6.57
-8.70
-10.87
-12.73
-14.05
-14.78
-15.00
-14.79
-14.34
-13.85
-13.59
-13.77
-14.53
-15.78
-17.25
-18.58
-19.44
-19.61
-19.00
-17.56
-15.24
-12.06
-8.12
-3.66
0.82
4.83
7.84
9.50
9.67
8.39
5.86
2.41
-1.51
-5.32
-8.43
-10.28
-10.53
-9.04
-5.96
-1.64
3.48
8.93
14.28
19.14
23.13
25.92
27.32
27.37
26.43
25.14
24.11
23.79
24.20
25.01
25.73
26.02
25.73
24.93
23.61
21.63
18.71
14.63
9.46
3.64
-2.13
-7.23
-11.23
-13.89
-15.21
-15.24
-14.09
-11.97
-9.23
-6.21
-3.24
-0.39
2.45
5.48
8.79
12.22
15.34
17.63
18.68
18.33
16.81
14.64
12.47
10.87
10.16
10.30
10.95
11.62
11.94
11.75
11.13
10.20
9.09
7.79
6.30
4.68
3.16
2.02
1.42
1.25
1.14
0.58
-0.86
-3.35
-6.76
-10.73
-14.81
-18.48
-21.37
-23.26
-24.16
-24.36
-24.35
-24.57
-25.25
-26.32
-27.42
-28.21
-28.45
-28.18
-27.54
-26.71
-25.60
-24.05
-21.82
-18.81
-15.11
-11.02
-6.86
-2.94
0.50
3.28
5.31
6.52
7.02
7.04
6.84
6.70
6.77
7.10
7.63
8.22
8.79
9.26
9.56
9.65
9.49
9.10
8.55
8.01
7.65
7.62
7.92
8.42
8.88
9.04
8.71
7.81
6.40
4.58
2.51
0.36
-1.64
-3.30
-4.51
-5.25
-5.64
-5.79
-5.80
-5.64
-5.20
-4.30
-2.87
-1.06
0.77
2.09
2.43
1.57
-0.29
-2.57
-4.54
-5.57
-5.40
-4.13
-2.20
-0.07
1.93
3.67
5.12
6.33
7.34
8.16
8.82
9.31
9.57
9.50
9.01
8.12
6.99
5.97
5.41
5.50
6.22
7.30
8.36
9.14
9.55
9.73
10.01
10.73
12.17
14.40
17.23
20.28
23.18
25.68
27.90
30.25
33.33
37.65
43.41
50.27
57.39
63.43
66.88
66.40
61.30
51.80
39.18
25.38
12.47
1.97
-5.54
-10.41
-13.55
-15.88
-18.01
-20.10
-22.17
-24.25
-26.50
-29.08
-31.94
-34.82
-37.27
-38.94
-39.70
-39.74
-39.44
-39.12
-38.85
-38.51
-37.88
-36.77
-35.13
-33.09
-30.89
-28.77
-26.95
-25.50
-24.40
-23.54
-22.84
-22.30
-21.94
-21.81
-21.83
-21.91
-21.93
-21.87
-21.76
-21.56
-21.07
-19.95
-17.90
-14.91
-11.48
-8.49
-6.92
-7.34
-9.71
-13.35
-17.26
-20.47
-22.34
-22.58
-21.23
-18.45
-14.47
-9.55
-4.01
1.77
7.34
12.33
16.46
19.59
21.77
23.14
23.90
24.19
24.08
23.49
22.31
20.42
17.88
15.00
12.22
10.05
8.73
8.16
7.84
7.20
5.74
3.36
0.43
-2.43
-4.55
-5.62
-5.77
-5.57
-5.74
-6.83
-9.03
-12.09
-15.46
-18.53
-20.81
-22.11
-22.52
-22.37
-22.01
-21.73
-21.58
-21.39
-20.82
-19.43
-16.89
-13.07
-8.14
-2.53
3.18
8.41
12.64
15.55
17.03
17.27
16.60
15.57
14.77
14.78
15.95
18.28
21.34
24.40
26.62
27.33
26.30
23.79
20.44
17.06
14.44
13.18
13.67
16.07
20.17
25.54
31.44
37.11
41.99
45.83
48.78
51.14
53.21
55.05
56.49
57.26
57.07
55.80
53.36
49.80
45.09
39.35
32.87
26.22
20.15
15.44
12.62
11.75
12.56
14.47
16.84
19.13
20.96
22.05
22.34
21.86
20.76
19.16
17.14
14.70
11.94
9.00
6.17
3.68
1.57
-0.39
-2.57
-5.32
-8.77
-12.83
-17.29
-22.01
-26.90
-31.89
-36.85
-41.45
-45.34
-48.13
-49.53
-49.44
-47.91
-45.27
-42.07
-39.07
-37.02
-36.49
-37.67
-40.27
-43.67
-46.95
-49.07
-49.01
-46.11
-40.39
-32.76
-24.85
-18.43
-14.62
-13.37
-13.44
-13.14
-11.08
-6.95
-1.45
4.26
9.26
13.28
16.52
19.18
20.96
21.11
18.88
14.20
7.90
1.48
-3.52
-6.19
-6.62
-5.69
-4.52
-3.96
-4.28
-5.28
-6.53
-7.71
-8.75
-9.82
-11.16
-12.87
-14.86
-16.85
-18.57
-19.95
-21.22
-22.77
-24.95
-27.80
-30.94
-33.76
-35.71
-36.59
-36.67
-36.67
-37.45
-39.69
-43.66
-49.22
-55.79
-62.53
-68.43
-72.56
-74.29
-73.54
-70.84
-67.12
-63.25
-59.56
-55.73
-50.93
-44.32
-35.54
-24.76
-12.43
1.07
15.68
31.57
48.62
66.12
82.70
96.69
106.81
112.60
114.36
112.82
108.51
101.60
92.08
80.32
67.38
55.04
45.18
39.00
36.44
36.12
36.00
34.19
29.78
23.08
15.34
8.13
2.69
-0.41
-1.40
-1.01
-0.20
0.23
-0.17
-1.44
-3.34
-5.54
-7.78
-10.00
-12.21
-14.36
-16.25
-17.57
-17.99
-17.34
-15.68
-13.21
-10.14
-6.61
-2.67
1.53
5.60
8.92
10.85
11.09
9.85
7.94
6.37
5.90
6.83
8.83
11.29
13.59
15.34
16.49
17.12
17.37
17.26
16.82
16.13
15.34
14.77
14.79
15.73
17.72
20.54
23.55
25.90
26.82
26.05
24.07
22.00
21.14
22.35
25.53
29.59
32.82
33.39
30.19
23.14
13.24
2.36
-7.53
-15.02
-19.75
-22.54
-24.96
-28.48
-33.70
-40.00
-45.75
-49.09
-48.80
-44.71
-37.81
-29.75
-22.21
-16.52
-13.34
-12.66
-13.88
-15.86
-17.26
-16.77
-13.60
-7.79
-0.29
7.37
13.60
17.30
18.18
16.71
13.69
9.84
5.55
0.83
-4.40
-10.10
-15.91
-21.29
-25.65
-28.65
-30.23
-30.61
-30.08
-28.86
-27.00
-24.48
-21.23
-17.33
-12.98
-8.58
-4.55
-1.28
1.02
2.39
3.02
3.26
3.42
3.68
4.02
4.27
4.21
3.83
3.34
3.21
3.83
5.41
7.78
10.49
13.00
14.84
15.91
16.38
16.70
17.45
19.16
22.12
26.26
31.11
35.95
40.02
42.79
43.94
43.37
40.94
36.49
30.00
21.75
12.49
3.20
-5.33
-12.80
-19.46
-25.78
-32.07
-38.13
-43.37
-47.17
-49.19
-49.50
-48.44
-46.26
-42.92
-38.13
-31.59
-23.25
-13.56
-3.29
6.64
15.41
22.51
27.75
31.24
33.22
34.06
34.09
33.56
32.55
30.89
28.31
24.51
19.47
13.56
7.49
2.08
-2.11
-4.98
-6.91
-8.51
-10.22
-12.19
-14.20
-15.95
-17.19
-17.90
-18.25
-18.42
-18.48
-18.44
-18.25
-17.93
-17.54
-17.25
-17.16
-17.40
-18.03
-19.04
-20.25
-21.43
-22.18
-22.24
-21.46
-19.98
-18.12
-16.25
-14.64
-13.33
-12.26
-11.22
-10.05
-8.67
-7.10
-5.41
-3.74
-2.24
-1.09
-0.38
-0.02
0.26
0.83
2.08
4.10
6.64
9.24
11.37
12.69
13.19
13.17
13.03
13.09
13.44
13.97
14.50
14.90
15.12
15.18
15.05
14.63
13.80
12.53
11.01
9.59
8.59
8.17
8.20
8.24
7.78
6.44
4.14
1.24
-1.68
-3.96
-5.09
-4.85
-3.35
-0.95
1.92
4.85
7.54
9.86
11.79
13.41
14.78
16.01
17.16
18.32
19.56
20.89
22.21
23.37
24.17
24.54
24.64
24.85
25.67
27.43
30.20
33.62
37.13
40.22
42.63
44.44
46.04
47.81
50.01
52.64
55.56
58.49
61.15
63.39
65.17
66.59
67.92
69.43
71.27
73.28
74.97
75.42
73.43
67.79
57.57
42.64
23.83
2.92
-17.81
-36.19
-50.83
-61.30
-67.98
-71.68
-73.20
-73.03
-71.46
-68.81
-65.56
-62.26
-59.49
-57.46
-56.03
-54.67
-52.76
-49.84
-45.75
-40.78
-35.37
-29.97
-24.81
-19.96
-15.46
-11.52
-8.54
-6.91
-6.82
-7.98
-9.75
-11.40
-12.45
-12.85
-12.91
-13.02
-13.41
-14.08
-14.84
-15.48
-15.88
-15.98
-15.84
-15.51
-15.00
-14.36
-13.61
-12.77
-11.82
-10.91
-10.11
-9.58
-9.37
-9.43
-9.63
-9.84
-9.98
-10.03
-10.08
-10.16
-10.35
-10.77
-11.56
-12.84
-14.67
-16.91
-19.24
-21.26
-22.62
-23.11
-22.63
-21.25
-19.16
-16.70
-14.31
-12.41
-11.26
-10.79
-10.68
-10.54
-10.13
-9.58
-9.25
-9.56
-10.74
-12.73
-15.19
-17.74
-20.10
-22.07
-23.55
-24.32
-24.11
-22.62
-19.77
-15.66
-10.71
-5.35
0.01
5.17
10.07
14.65
18.80
22.35
25.12
27.05
28.24
28.93
29.36
29.75
30.12
30.32
30.00
28.74
26.15
22.16
17.10
11.68
6.81
3.24
1.30
0.87
1.49
2.61
3.81
4.88
5.76
6.43
6.83
6.87
6.49
5.70
4.71
3.87
3.49
3.80
4.73
5.95
6.95
7.27
6.49
4.43
1.04
-3.58
-9.13
-15.04
-20.49
-24.54
-26.48
-26.10
-23.78
-20.46
-17.28
-15.12
-14.36
-14.72
-15.39
-15.26
-13.32
-9.00
-2.46
5.34
12.93
18.81
22.06
22.65
21.45
19.80
18.91
19.41
21.17
23.49
25.43
26.19
25.39
23.06
19.60
15.57
11.49
7.80
4.78
2.57
1.14
0.44
0.27
0.43
0.72
0.94
1.04
1.05
1.09
1.38
2.15
3.50
5.29
7.14
8.44
8.63
7.38
4.74
1.15
-2.85
-6.86
-10.86
-15.23
-20.55
-27.25
-35.36
-44.39
-53.49
-61.76
-68.51
-73.44
-76.69
-78.75
-80.21
-81.64
-83.29
-85.02
-86.12
-85.41
-81.37
-72.52
-57.83
-37.15
-11.52
16.74
44.41
67.84
83.95
90.93
88.91
79.86
66.95
53.52
41.98
33.15
26.41
20.34
13.59
5.60
-3.30
-12.09
-19.68
-25.07
-27.60
-26.91
-22.89
-15.94
-6.99
2.43
10.62
16.24
18.77
18.60
16.74
14.29
11.95
10.01
8.36
6.95
5.87
5.32
5.53
6.51
8.06
9.87
11.67
13.34
14.93
16.50
18.09
19.64
21.04
22.29
23.53
25.08
27.26
30.12
33.23
35.73
36.57
34.93
30.60
24.08
16.38
8.63
1.66
-4.24
-9.19
-13.54
-17.46
-20.85
-23.37
-24.69
-24.61
-23.21
-20.71
-17.41
-13.58
-9.42
-5.17
-1.12
2.51
5.65
8.42
11.10
13.90
16.74
19.25
20.90
21.28
20.33
18.37
15.77
12.83
9.53
5.63
0.97
-4.34
-9.77
-14.55
-18.00
-19.78
-20.05
-19.28
-18.02
-16.63
-15.19
-13.50
-11.38
-8.82
-6.15
-3.86
-2.46
-2.16
-2.89
-4.32
-6.12
-8.14
-10.46
-13.14
-16.09
-18.99
-21.36
-22.83
-23.33
-23.13
-22.67
-22.34
-22.28
-22.34
-22.17
-21.44
-19.97
-17.71
-14.86
-11.70
-8.56
-5.67
-3.21
-1.22
0.32
1.56
2.66
3.75
4.95
6.33
8.01
10.08
12.56
15.33
17.92
19.65
19.83
18.14
14.85
10.80
7.01
4.25
2.78
2.29
2.23
2.11
1.74
1.20
0.56
-0.20
-1.31
-2.99
-5.38
-8.39
-11.80
-15.30
-18.69
-21.92
-25.13
-28.53
-32.23
-36.05
-39.37
-41.22
-40.62
-36.94
-30.27
-21.31
-11.12
-0.65
9.50
19.12
28.03
35.90
42.13
46.20
48.00
48.07
47.47
47.35
48.32
50.30
52.61
54.45
55.45
55.88
56.37
57.60
59.75
62.42
64.79
66.08
65.93
64.58
62.68
60.92
59.69
58.98
58.37
57.46
56.04
54.27
52.60
51.48
51.05
50.99
50.57
48.85
45.03
38.72
29.98
19.34
7.60
-4.34
-15.58
-25.32
-32.90
-37.94
-40.37
-40.45
-38.69
-35.72
-32.19
-28.65
-25.57
-23.33
-22.26
-22.60
-24.48
-27.90
-32.73
-38.65
-45.19
-51.64
-57.22
-61.23
-63.18
-62.88
-60.39
-55.83
-49.27
-40.74
-30.34
-18.45
-5.88
6.15
16.26
23.26
26.37
25.53
21.38
15.07
7.97
1.25
-4.35
-8.72
-12.10
-14.81
-16.97
-18.43
-18.96
-18.47
-17.23
-15.66
-14.11
-12.56
-10.57
-7.52
-3.07
2.59
8.77
14.58
19.34
22.78
24.94
25.97
25.85
24.41
21.48
17.21
12.12
7.04
2.79
-0.16
-1.74
-2.26
-2.13
-1.62
-0.81
0.35
1.83
3.45
4.93
6.09
7.07
8.30
10.44
13.99
18.99
24.91
30.83
35.83
39.37
41.52
42.85
43.99
45.27
46.38
46.41
44.11
38.39
28.81
15.84
1.00
-13.50
-25.20
-32.06
-32.97
-28.15
-19.01
-7.74
3.38
12.70
19.42
23.56
25.50
25.60
23.92
20.35
15.00
8.49
1.91
-3.46
-6.74
-7.81
-7.31
-6.27
-5.56
-5.49
-5.76
-5.84
-5.30
-4.06
-2.37
-0.55
1.23
3.06
5.10
7.41
9.86
12.11
13.84
14.82
15.08
14.76
14.09
13.21
12.12
10.72
8.87
6.46
3.57
0.51
-2.28
-4.36
-5.47
-5.72
-5.45
-5.15
-5.11
-5.38
-5.71
-5.74
-5.27
-4.34
-3.25
-2.32
-1.86
-1.95
-2.56
-3.60
-4.93
-6.44
-7.94
-9.30
-10.49
-11.66
-13.14
-15.24
-18.07
-21.47
-24.96
-27.93
-29.86
-30.33
-29.10
-26.00
-21.04
-14.47
-6.98
0.38
6.28
9.57
9.67
6.74
1.75
-3.93
-8.88
-12.14
-13.38
-12.85
-11.22
-9.11
-6.95
-4.98
-3.41
-2.61
-3.09
-5.33
-9.39
-14.81
-20.51
-25.24
-27.88
-27.84
-25.11
-20.12
-13.52
-6.02
1.65
8.71
14.41
18.25
20.17
20.55
20.16
19.77
19.90
20.63
21.68
22.56
22.90
22.41
21.05
18.88
16.04
12.82
9.62
6.97
5.31
4.89
5.54
6.71
7.54
7.19
5.11
1.24
-3.97
-9.72
-15.18
-19.79
-23.31
-25.77
-27.28
-27.85
-27.36
-25.64
-22.67
-18.65
-14.08
-9.54
-5.66
-2.88
-1.32
-0.85
-1.11
-1.75
-2.58
-3.69
-5.27
-7.30
-9.39
-10.78
-10.69
-8.75
-5.30
-1.39
1.75
3.22
2.83
1.12
-0.91
-2.31
-2.46
-1.25
1.02
3.79
6.46
8.60
10.00
10.80
11.36
12.12
13.47
15.47
17.83
20.04
21.45
21.64
20.54
18.49
16.16
14.23
13.18
13.07
13.66
14.42
14.88
14.67
13.63
11.75
9.09
5.80
2.03
-1.89
-5.48
-8.31
-10.15
-11.25
-12.39
-14.65
-19.04
-26.00
-35.08
-45.20
-54.93
-63.10
-69.15
-73.16
-75.66
-77.39
-79.02
-81.11
-84.14
-88.42
-94.04
-100.69
-107.42
-112.77
-115.06
-113.00
-106.16
-95.22
-81.75
-67.63
-54.34
-42.67
-32.66
-24.01
-16.50
-10.23
-5.61
-2.92
-2.01
-2.13
-2.10
-0.74
2.64
7.97
14.35
20.50
25.32
28.45
30.38
32.22
34.99
39.08
44.07
48.99
53.00
55.88
58.11
60.54
63.91
68.43
73.75
79.18
83.97
87.53
89.45
89.55
87.89
84.88
81.32
78.24
76.56
76.66
78.27
80.59
82.56
83.22
81.82
77.83
70.83
60.65
47.51
32.29
16.42
1.55
-10.98
-20.63
-27.69
-32.88
-36.84
-39.74
-41.29
-41.14
-39.34
-36.51
-33.78
-32.27
-32.63
-34.78
-38.03
-41.48
-44.54
-47.09
-49.48
-52.21
-55.50
-59.08
-62.29
-64.40
-64.90
-63.82
-61.47
-58.26
-54.39
-49.86
-44.64
-38.85
-32.90
-27.45
-23.07
-20.02
-18.20
-17.25
-16.84
-16.74
-16.91
-17.28
-17.70
-17.90
-17.67
-16.98
-16.04
-15.21
-14.83
-15.09
-15.91
-17.12
-18.40
-19.31
-19.21
-17.39
-13.09
-5.85
4.12
15.97
28.27
39.44
48.20
53.88
56.44
56.28
54.02
50.30
45.68
40.67
35.63
30.78
26.19
21.77
17.44
13.27
9.50
6.50
4.54
3.59
3.34
3.29
2.98
2.22
1.11
-0.05
-0.98
-1.47
-1.58
-1.47
-1.37
-1.49
-1.88
-2.51
-3.20
-3.76
-3.98
-3.79
-3.19
-2.29
-1.23
-0.15
0.80
1.46
1.65
1.25
0.18
-1.46
-3.50
-5.68
-7.74
-9.42
-10.55
-11.01
-10.75
-9.82
-8.32
-6.33
-3.98
-1.28
1.74
5.03
8.49
11.97
15.27
18.25
20.75
22.65
23.88
24.47
24.67
24.89
25.65
27.34
30.04
33.47
37.07
40.23
42.40
43.27
42.69
40.72
37.51
33.28
28.37
23.13
17.94
13.12
8.90
5.45
2.84
1.08
-0.03
-0.87
-2.05
-4.28
-8.22
-14.32
-22.77
-33.44
-45.90
-59.53
-73.59
-87.30
-99.91
-110.81
-119.63
-126.25
-130.84
-133.74
-135.21
-135.12
-132.76
-126.86
-115.86
-98.48
-74.17
-43.49
-7.97
30.13
68.18
103.59
134.08
157.92
174.22
183.19
186.08
184.85
181.55
177.61
173.48
168.75
162.70
154.85
145.36
134.88
124.16
113.65
103.32
92.78
81.46
68.89
54.86
39.35
22.58
4.97
-12.82
-29.95
-45.47
-58.54
-68.64
-75.66
-79.84
-81.61
-81.26
-78.83
-74.05
-66.47
-55.88
-42.64
-27.91
-13.51
-1.44
6.87
11.08
12.10
11.73
11.85
13.66
17.27
21.66
25.28
26.73
25.22
20.86
14.51
7.28
0.21
-6.15
-11.77
-17.00
-22.15
-27.36
-32.41
-36.87
-40.49
-43.25
-45.41
-47.19
-48.59
-49.26
-48.77
-46.93
-44.05
-40.96
-38.56
-37.46
-37.66
-38.63
-39.60
-39.98
-39.46
-38.07
-35.97
-33.26
-29.93
-25.91
-21.16
-15.75
-9.85
-3.66
2.62
8.78
14.69
20.18
25.07
29.22
32.47
34.85
36.47
37.59
38.46
39.23
39.87
40.16
39.89
38.89
37.17
34.84
32.06
29.01
25.83
22.61
19.44
16.43
13.68
11.24
9.03
6.90
4.55
1.70
-1.78
-5.82
-10.07
-14.09
-17.47
-20.01
-21.72
-22.79
-23.41
-23.75
-23.96
-24.21
-24.72
-25.65
-26.98
-28.47
-29.73
-30.39
-30.34
-29.73
-28.94
-28.36
-28.23
-28.50
-28.92
-29.17
-29.12
-28.81
-28.51
-28.51
-28.97
-29.83
-30.80
-31.52
-31.65
-31.09
-29.95
-28.60
-27.45
-26.88
-27.04
-27.79
-28.73
-29.44
-29.61
-29.21
-28.49
-27.70
-26.90
-25.80
-23.81
-20.30
-14.83
-7.39
1.60
11.39
21.01
29.40
35.57
38.69
38.34
34.64
28.25
20.25
11.77
3.74
-3.35
-9.45
-14.78
-19.59
-23.97
-27.82
-30.84
-32.65
-32.93
-31.47
-28.28
-23.62
-18.04
-12.20
-6.74
-2.03
1.85
5.14
8.16
11.11
13.96
16.46
18.30
19.32
19.70
19.82
20.10
20.73
21.52
21.95
21.41
19.49
16.17
11.97
7.63
3.84
1.01
-0.94
-2.38
-3.86
-5.83
-8.63
-12.39
-17.13
-22.81
-29.25
-36.14
-43.02
-49.29
-54.44
-58.33
-61.41
-64.81
-70.02
-78.35
-90.20
-104.47
-118.54
-128.59
-130.60
-121.31
-99.25
-65.17
-22.07
25.25
71.01
109.60
136.62
149.72
149.07
136.95
117.07
93.56
69.92
48.56
30.70
16.72
6.48
-0.20
-3.59
-4.04
-2.07
1.68
6.58
12.16
18.10
24.18
30.07
35.25
39.08
41.07
41.02
39.09
35.67
31.17
25.84
19.86
13.37
6.61
-0.16
-6.72
-12.97
-18.84
-24.16
-28.51
-31.27
-31.84
-29.86
-25.45
-19.20
-12.01
-4.75
1.84
7.27
11.32
13.89
15.09
15.17
14.46
13.38
12.29
11.37
10.63
9.96
9.30
8.73
8.46
8.76
9.74
11.33
13.20
14.86
15.83
15.80
14.61
12.35
9.25
5.69
2.08
-1.19
-3.77
-5.51
-6.42
-6.73
-6.77
-6.88
-7.33
-8.31
-9.93
-12.25
-15.29
-18.89
-22.54
-25.38
-26.35
-24.53
-19.58
-12.01
-2.95
6.20
14.40
21.26
26.99
32.06
36.81
41.20
44.89
47.51
48.88
49.13
48.61
47.69
46.65
45.57
44.50
43.52
42.86
42.75
43.43
44.90
46.91
48.99
50.51
50.90
49.74
46.82
42.08
35.54
27.28
17.38
6.13
-5.94
-17.94
-28.72
-37.01
-41.80
-42.57
-39.58
-33.85
-26.95
-20.61
-16.27
-14.69
-15.78
-18.80
-22.69
-26.49
-29.56
-31.69
-32.91
-33.33
-33.03
-32.02
-30.32
-27.97
-25.08
-21.80
-18.28
-14.65
-10.97
-7.26
-3.51
0.25
3.91
7.24
9.93
11.72
12.47
12.34
11.73
11.15
11.04
11.62
12.79
14.18
15.43
16.21
16.48
16.37
16.07
15.68
15.13
14.19
12.61
10.32
7.44
4.28
1.19
-1.55
-3.78
-5.44
-6.55
-7.11
-7.17
-6.88
-6.45
-6.23
-6.54
-7.51
-8.95
-10.31
-10.71
-9.16
-4.90
2.44
12.64
24.95
38.27
51.31
62.82
71.86
77.94
81.19
82.27
82.18
81.77
81.37
80.66
78.81
74.78
67.75
57.37
43.82
27.78
10.56
-6.08
-20.09
-29.68
-34.10
-34.15
-32.13
-31.03
-33.29
-39.76
-49.33
-59.56
-67.86
-72.63
-73.64
-71.88
-68.81
-65.66
-63.04
-61.19
-60.28
-60.58
-62.49
-66.26
-71.68
-78.01
-84.05
-88.55
-90.58
-89.77
-86.21
-80.31
-72.47
-62.92
-51.82
-39.36
-25.95
-12.28
0.85
12.77
23.04
31.57
38.42
43.63
47.11
48.67
48.16
45.65
41.50
36.26
30.58
25.04
19.99
15.58
11.69
8.05
4.22
-0.24
-5.63
-11.92
-18.66
-25.05
-30.08
-32.88
-32.99
-30.48
-25.97
-20.52
-15.26
-11.15
-8.70
-7.87
-8.09
-8.51
-8.26
-6.81
-4.08
-0.46
3.42
6.92
9.77
12.21
14.98
19.14
25.59
34.76
46.29
59.14
71.84
83.06
92.05
98.71
103.45
106.66
108.40
108.20
105.22
98.83
88.98
76.50
62.98
50.45
40.79
35.32
34.50
37.89
44.20
51.65
58.29
62.42
63.02
59.89
53.69
45.73
37.51
30.33
24.83
20.83
17.49
13.73
8.63
1.93
-5.83
-13.51
-19.82
-23.84
-25.35
-24.86
-23.42
-22.09
-21.67
-22.48
-24.39
-26.97
-29.63
-31.76
-32.77
-32.21
-29.85
-25.79
-20.58
-15.06
-10.23
-6.90
-5.44
-5.66
-6.89
-8.23
-8.88
-8.46
-7.20
-5.74
-4.90
-5.17
-6.58
-8.63
-10.55
-11.71
-11.89
-11.31
-10.50
-9.93
-9.73
-9.72
-9.60
-9.19
-8.57
-8.02
-7.82
-8.06
-8.55
-8.99
-9.23
-9.38
-9.79
-10.80
-12.44
-14.32
-15.83
-16.37
-15.72
-14.13
-12.22
-10.65
-9.78
-9.50
-9.35
-8.75
-7.36
-5.23
-2.80
-0.67
0.68
1.03
0.50
-0.52
-1.48
-1.85
-1.21
0.60
3.43
6.84
10.17
12.77
14.26
14.64
14.31
13.81
13.61
13.89
14.45
14.88
14.73
13.73
11.88
9.44
6.87
4.67
3.22
2.74
3.23
4.50
6.26
8.05
9.47
10.12
9.82
8.61
6.84
5.09
4.00
4.08
5.48
7.89
10.63
12.92
14.14
14.09
13.01
11.42
9.79
8.35
6.95
5.23
2.84
-0.21
-3.48
-6.33
-8.20
-8.95
-8.88
-8.52
-8.21
-7.90
-7.19
-5.80
-3.96
-2.43
-2.18
-3.80
-7.02
-10.80
-13.79
-15.03
-14.39
-12.55
-10.42
-8.70
-7.52
-6.69
-5.96
-5.46
-5.60
-6.78
-9.09
-12.12
-15.24
-17.87
-19.94
-21.87
-24.50
-28.64
-34.77
-42.81
-52.12
-61.64
-70.19
-76.78
-80.84
-82.60
-83.09
-83.93
-86.85
-93.09
-102.73
-114.81
-127.51
-138.70
-146.69
-150.69
-150.97
-148.74
-145.77
-143.89
-144.53
-148.25
-154.40
-161.30
-166.80
-169.14
-167.79
-163.53
-157.86
-152.11
-146.51
-140.18
-131.59
-119.58
-103.94
-85.47
-65.43
-45.00
-24.83
-5.05
14.51
34.23
54.96
77.77
103.45
131.84
161.52
190.21
215.57
236.08
251.27
261.28
266.14
265.49
258.97
247.18
232.10
216.85
204.40
196.28
192.12
190.20
188.53
186.00
182.52
178.59
174.46
169.64
163.06
153.60
140.77
125.17
108.35
92.09
77.53
64.50
51.34
35.40
14.17
-13.64
-47.54
-85.59
-125.39
-165.09
-203.72
-240.58
-274.30
-302.26
-321.10
-328.13
-322.83
-307.56
-286.91
-265.71
-247.10
-231.30
-216.12
-198.29
-175.13
-145.28
-108.52
-65.38
-17.36
32.00
76.32
107.65
119.40
110.04
85.12
55.66
33.42
25.70
32.78
49.44
69.02
87.12
102.84
117.12
130.33
140.97
146.80
146.86
142.78
138.19
136.61
139.54
145.78
152.41
156.51
156.57
152.95
147.35
141.89
138.05
136.11
134.92
132.25
125.78
114.15
97.47
77.16
55.33
34.03
14.69
-1.79
-14.87
-24.12
-29.30
-30.47
-28.11
-23.10
-16.61
-9.82
-3.57
1.76
6.26
10.21
13.80
16.95
19.24
20.23
19.79
18.33
16.64
15.62
15.76
16.87
18.08
18.28
16.60
12.77
7.19
0.74
-5.57
-10.86
-14.54
-16.36
-16.46
-15.33
-13.68
-12.27
-11.57
-11.52
-11.68
-11.56
-11.03
-10.52
-10.84
-12.70
-16.26
-20.94
-25.71
-29.57
-32.09
-33.48
-34.39
-35.50
-37.19
-39.50
-42.28
-45.47
-49.11
-53.21
-57.56
-61.70
-65.01
-66.99
-67.49
-66.73
-65.13
-63.17
-61.13
-59.17
-57.40
-55.94
-54.81
-53.79
-52.46
-50.27
-46.79
-41.95
-36.06
-29.73
-23.48
-17.60
-12.06
-6.65
-1.27
3.97
8.65
12.24
14.44
15.35
15.42
15.35
15.60
16.30
17.18
17.72
17.54
16.56
15.01
13.20
11.39
9.62
7.85
6.05
4.33
2.91
1.98
1.57
1.48
1.35
0.70
-0.80
-3.28
-6.55
-10.20
-13.70
-16.60
-18.70
-20.02
-20.73
-21.02
-20.95
-20.49
-19.62
-18.38
-16.92
-15.41
-13.85
-12.15
-10.05
-7.30
-3.80
0.37
4.88
9.26
13.00
15.65
17.01
17.20
16.57
15.50
14.24
12.76
10.87
8.46
5.77
3.34
1.77
1.45
2.14
3.20
3.87
3.70
2.92
2.33
2.83
5.05
8.92
13.72
18.40
21.97
23.81
23.83
22.31
19.69
16.42
12.93
9.65
6.94
5.08
4.13
3.90
4.07
4.31
4.47
4.58
4.77
5.21
5.96
6.96
8.17
9.54
11.01
12.49
13.80
14.67
14.86
14.27
12.90
10.91
8.52
6.06
3.85
2.30
1.68
2.04
3.18
4.62
5.82
6.38
6.16
5.31
4.17
3.07
2.22
1.63
1.15
0.61
-0.16
-1.19
-2.40
-3.74
-5.11
-6.47
-7.79
-9.04
-10.16
-11.02
-11.46
-11.34
-10.59
-9.31
-7.68
-6.02
-4.65
-3.70
-3.12
-2.64
-1.90
-0.71
0.87
2.47
3.58
3.85
3.25
2.20
1.34
1.21
1.94
3.23
4.44
4.99
4.60
3.39
1.69
-0.15
-1.92
-3.47
-4.65
-5.22
-4.98
-3.92
-2.37
-0.93
-0.16
-0.35
-1.37
-2.85
-4.37
-5.76
-7.05
-8.29
-9.47
-10.37
-10.79
-10.68
-10.19
-9.66
-9.30
-9.06
-8.66
-7.70
-5.95
-3.48
-0.67
1.97
3.99
5.18
5.50
5.13
4.33
3.39
2.57
2.00
1.67
1.43
1.15
0.79
0.44
0.29
0.48
1.02
1.69
2.23
2.40
2.19
1.83
1.69
2.13
3.26
4.89
6.45
7.29
6.93
5.35
3.04
0.81
-0.64
-1.13
-0.98
-0.90
-1.49
-3.00
-5.22
-7.67
-9.92
-11.77
-13.24
-14.33
-15.01
-15.10
-14.57
-13.48
-12.08
-10.58
-8.99
-7.16
-4.83
-1.98
1.16
4.06
6.17
7.19
7.11
6.28
5.14
4.17
3.59
3.45
3.54
3.54
3.22
2.50
1.57
0.61
-0.20
-0.96
-1.88
-3.07
-4.38
-5.33
-5.37
-4.14
-1.80
1.07
3.68
5.41
5.97
5.39
3.81
1.46
-1.38
-4.36
-7.01
-8.97
-10.12
-10.67
-11.07
-11.77
-12.94
-14.40
-15.74
-16.48
-16.29
-15.08
-12.94
-10.13
-6.95
-3.81
-1.09
0.91
2.11
2.60
2.70
2.69
2.75
2.99
3.46
4.28
5.63
7.64
10.17
12.91
15.43
17.46
18.99
20.20
21.32
22.28
22.82
22.56
21.32
19.40
17.42
16.12
15.93
16.77
18.10
19.23
19.65
19.24
18.23
17.09
16.21
15.76
15.70
15.89
16.19
16.61
17.27
18.34
19.88
21.79
23.74
25.30
26.03
25.53
23.62
20.32
15.87
10.77
5.71
1.41
-1.65
-3.44
-4.54
-5.97
-8.78
-13.53
-20.02
-27.24
-33.82
-38.56
-40.87
-40.91
-39.29
-36.75
-33.86
-30.86
-27.86
-25.02
-22.66
-21.10
-20.58
-21.01
-22.02
-23.08
-23.75
-23.79
-23.23
-22.25
-21.05
-19.81
-18.59
-17.47
-16.56
-16.02
-15.93
-16.28
-16.92
-17.58
-17.99
-17.87
-17.12
-15.75
-13.93
-11.93
-10.00
-8.26
-6.69
-5.17
-3.53
-1.69
0.24
2.06
3.56
4.68
5.49
6.20
6.97
7.80
8.56
9.07
9.22
8.99
8.52
7.95
7.41
6.93
6.50
6.09
5.69
5.37
5.11
4.92
4.74
4.48
4.10
3.53
2.71
1.58
0.07
-1.85
-4.09
-6.46
-8.71
-10.61
-12.09
-13.16
-13.91
-14.37
-14.44
-13.99
-12.94
-11.43
-9.71
-8.16
-7.06
-6.45
-6.20
-6.11
-6.06
-6.03
-6.11
-6.32
-6.54
-6.56
-6.18
-5.36
-4.22
-3.04
-2.07
-1.46
-1.20
-1.16
-1.15
-1.06
-0.88
-0.70
-0.71
-1.08
-1.88
-3.05
-4.30
-5.35
-5.95
-6.10
-6.01
-5.97
-6.25
-6.97
-8.04
-9.35
-10.77
-12.22
-13.72
-15.26
-16.80
-18.25
-19.54
-20.58
-21.33
-21.75
-21.81
-21.47
-20.70
-19.45
-17.60
-15.12
-12.03
-8.51
-4.87
-1.42
1.57
3.94
5.70
6.91
7.68
8.14
8.39
8.57
8.76
8.90
8.85
8.41
7.46
6.10
4.61
3.34
2.54
2.24
2.27
2.32
2.11
1.47
0.33
-1.26
-3.18
-5.27
-7.33
-9.17
-10.65
-11.75
-12.66
-13.67
-15.08
-17.07
-19.65
-22.67
-25.87
-28.89
-31.35
-32.92
-33.37
-32.68
-31.01
-28.71
-26.10
-23.37
-20.45
-17.07
-12.95
-7.93
-2.15
4.02
10.10
15.60
20.20
23.75
26.29
27.99
29.18
30.22
31.43
32.90
34.51
35.89
36.69
36.78
36.42
36.27
37.01
39.03
42.13
45.47
47.74
47.65
44.19
36.87
25.80
11.60
-4.70
-21.80
-38.37
-53.42
-66.44
-77.58
-87.36
-96.31
-104.36
-110.54
-113.28
-111.29
-104.51
-94.66
-84.84
-78.44
-77.56
-82.16
-90.07
-97.96
-102.77
-102.72
-97.73
-89.10
-78.84
-69.08
-61.57
-57.31
-56.17
-56.65
-56.10
-51.51
-40.85
-23.97
-2.98
18.27
35.72
46.50
49.89
47.40
41.93
36.65
34.05
35.54
41.53
51.68
64.96
79.57
92.91
101.93
104.03
98.10
85.22
68.45
51.82
38.89
31.55
29.76
31.97
36.31
41.42
46.81
52.60
58.95
65.63
71.94
77.06
80.30
81.46
80.71
78.42
74.92
70.43
65.18
59.64
54.72
51.56
51.23
54.24
60.14
67.68
75.14
80.96
84.34
85.40
85.03
84.30
84.02
84.34
84.76
84.35
82.17
77.59
70.56
61.65
51.86
42.32
33.89
27.07
21.84
17.98
15.17
13.18
11.83
10.88
9.96
8.67
6.83
4.60
2.56
1.34
1.33
2.44
4.11
5.51
5.96
5.11
3.09
0.30
-2.72
-5.55
-7.93
-9.81
-11.33
-12.72
-14.27
-16.20
-18.50
-20.93
-23.06
-24.39
-24.68
-23.93
-22.46
-20.68
-18.91
-17.18
-15.35
-13.23
-10.79
-8.24
-5.96
-4.35
-3.55
-3.49
-3.90
-4.50
-5.13
-5.72
-6.28
-6.86
-7.50
-8.26
-9.22
-10.40
-11.77
-13.19
-14.44
-15.35
-15.93
-16.33
-16.75
-17.33
-17.99
-18.51
-18.67
-18.34
-17.62
-16.77
-16.02
-15.53
-15.26
-15.09
-14.93
-14.78
-14.77
-15.03
-15.61
-16.39
-17.13
-17.53
-17.36
-16.48
-14.93
-12.85
-10.52
-8.25
-6.30
-4.88
-4.04
-3.65
-3.50
-3.36
-3.05
-2.58
-1.98
-1.31
-0.56
0.33
1.41
2.66
3.92
4.97
5.55
5.56
5.06
4.29
3.52
3.01
2.83
2.89
3.03
3.05
2.81
2.33
1.68
1.02
0.44
-0.03
-0.45
-0.93
-1.51
-2.16
-2.76
-3.16
-3.24
-3.05
-2.74
-2.56
-2.69
-3.25
-4.16
-5.24
-6.23
-6.99
-7.45
-7.62
-7.53
-7.15
-6.39
-5.23
-3.74
-2.08
-0.50
0.77
1.65
2.13
2.36
2.51
2.71
2.98
3.29
3.54
3.65
3.60
3.38
2.97
2.36
1.55
0.63
-0.24
-0.84
-0.98
-0.63
0.10
0.99
1.81
2.44
2.89
3.16
3.18
2.81
1.93
0.53
-1.14
-2.75
-3.94
-4.56
-4.70
-4.69
-4.83
-5.29
-6.03
-6.82
-7.40
-7.64
-7.58
-7.43
-7.52
-8.04
-8.99
-10.13
-11.09
-11.55
-11.36
-10.61
-9.51
-8.38
-7.41
-6.68
-6.17
-5.80
-5.50
-5.27
-5.13
-5.15
-5.27
-5.43
-5.42
-5.12
-4.44
-3.47
-2.45
-1.59
-1.01
-0.68
-0.47
-0.27
-0.12
-0.09
-0.26
-0.58
-0.85
-0.82
-0.36
0.51
1.63
2.76
3.71
4.40
4.75
4.74
4.31
3.49
2.40
1.25
0.29
-0.31
-0.60
-0.83
-1.33
-2.38
-3.99
-5.99
-8.04
-9.76
-10.93
-11.45
-11.39
-10.91
-10.21
-9.48
-8.76
-8.04
-7.16
-5.99
-4.51
-2.89
-1.46
-0.56
-0.31
-0.54
-0.84
-0.77
-0.14
1.00
2.36
3.59
4.48
4.99
5.23
5.28
5.20
4.96
4.57
4.08
3.63
3.41
3.54
4.05
4.79
5.59
6.24
6.54
6.43
5.90
4.97
3.64
1.92
-0.17
-2.47
-4.70
-6.56
-7.84
-8.55
-8.96
-9.42
-10.25
-11.49
-12.90
-14.06
-14.60
-14.27
-13.09
-11.30
-9.22
-7.12
-5.21
-3.52
-2.03
-0.69
0.54
1.63
2.54
3.29
3.94
4.59
5.31
6.05
6.63
6.89
6.70
6.19
5.60
5.27
5.31
5.67
6.15
6.49
6.62
6.60
6.54
6.43
6.17
5.56
4.57
3.39
2.39
1.94
2.18
2.90
3.62
3.88
3.47
2.54
1.45
0.59
0.09
-0.12
-0.28
-0.53
-0.85
-1.03
-0.90
-0.48
-0.07
-0.02
-0.62
-1.84
-3.28
-4.46
-5.00
-4.80
-4.07
-3.17
-2.39
-1.92
-1.74
-1.72
-1.68
-1.48
-0.99
-0.20
0.82
1.88
2.74
3.17
3.10
2.59
1.78
0.91
0.12
-0.44
-0.66
-0.46
0.17
1.11
2.10
2.82
2.95
2.42
1.33
-0.01
-1.25
-2.15
-2.63
-2.68
-2.35
-1.74
-0.94
-0.11
0.64
1.15
1.44
1.53
1.62
1.80
2.11
2.50
2.79
2.86
2.60
2.06
1.31
0.55
-0.02
-0.29
-0.21
0.05
0.25
0.09
-0.58
-1.75
-3.14
-4.35
-5.04
-5.06
-4.53
-3.73
-2.97
-2.41
-2.04
-1.74
-1.38
-0.93
-0.43
0.04
0.43
0.74
1.00
1.26
1.47
1.57
1.45
1.04
0.28
-0.79
-2.04
-3.29
-4.35
-5.09
-5.45
-5.54
-5.51
-5.57
-5.93
-6.72
-7.99
-9.66
-11.47
-13.03
-13.97
-14.10
-13.47
-12.38
-11.25
-10.35
-9.73
-9.21
-8.53
-7.47
-6.04
-4.39
-2.76
-1.30
-0.10
0.86
1.59
2.06
2.19
1.94
1.36
0.55
-0.30
-1.04
-1.63
-2.10
-2.55
-3.00
-3.40
-3.63
-3.57
-3.21
-2.66
-2.17
-1.94
-2.10
-2.58
-3.23
-3.81
-4.17
-4.20
-3.91
-3.37
-2.74
-2.27
-2.28
-3.05
-4.64
-6.83
-9.13
-10.97
-11.90
-11.75
-10.70
-9.12
-7.43
-5.95
-4.80
-4.00
-3.45
-3.05
-2.69
-2.33
-1.90
-1.36
-0.66
0.21
1.16
2.00
2.49
2.47
1.93
1.09
0.25
-0.36
-0.61
-0.55
-0.35
-0.19
-0.20
-0.40
-0.75
-1.22
-1.76
-2.36
-3.05
-3.83
-4.66
-5.42
-6.03
-6.42
-6.65
-6.81
-7.01
-7.27
-7.48
-7.52
-7.36
-7.06
-6.77
-6.61
-6.57
-6.52
-6.35
-5.98
-5.46
-4.87
-4.21
-3.43
-2.40
-1.12
0.29
1.59
2.55
3.07
3.23
3.24
3.33
3.60
3.96
4.26
4.34
4.16
3.81
3.39
2.97
2.51
1.92
1.14
0.24
-0.62
-1.22
-1.46
-1.43
-1.40
-1.63
-2.31
-3.39
-4.69
-6.00
-7.18
-8.17
-8.93
-9.38
-9.33
-8.55
-6.93
-4.56
-1.73
1.14
3.66
5.66
7.17
8.44
9.72
11.14
12.66
14.08
15.23
15.99
16.37
16.41
16.13
15.47
14.37
12.80
10.95
9.12
7.72
7.03
7.13
7.89
9.07
10.45
11.86
13.15
14.12
14.56
14.28
13.26
11.78
10.32
9.45
9.49
10.36
11.60
12.53
12.51
11.22
8.76
5.61
2.30
-0.87
-4.31
-9.10
-16.56
-27.61
-42.10
-58.51
-74.29
-86.61
-93.29
-93.49
-88.04
-79.31
-70.77
-66.21
-68.79
-80.08
-99.39
-123.74
-148.63
-169.34
-182.30
-185.87
-180.41
-167.55
-149.46
-128.18
-105.41
-82.78
-62.10
-45.39
-34.57
-30.70
-33.27
-39.90
-46.75
-49.70
-45.98
-35.39
-20.21
-4.00
10.39
22.28
33.23
45.74
61.97
83.06
109.42
141.30
178.30
218.14
255.41
282.32
291.65
280.85
254.34
221.70
192.96
173.49
162.43
155.30
148.69
143.35
143.16
150.76
163.05
170.52
160.98
125.80
64.61
-14.30
-97.56
-171.95
-228.43
-263.34
-277.49
-274.58
-260.00
-239.87
-220.03
-204.61
-194.86
-188.75
-181.99
-169.96
-149.79
-121.58
-88.01
-53.05
-20.37
7.73
30.40
47.99
61.82
74.05
87.60
105.68
130.57
162.05
196.36
226.61
244.94
245.60
227.46
194.71
155.08
116.52
84.16
59.18
39.63
22.65
6.54
-8.47
-20.88
-29.28
-33.82
-36.89
-42.78
-56.36
-81.22
-117.76
-162.28
-207.44
-244.38
-265.86
-268.98
-256.01
-233.14
-207.57
-184.78
-167.26
-154.98
-146.72
-141.43
-138.32
-136.45
-134.18
-129.30
-119.86
-105.35
-87.12
-67.94
-51.00
-38.67
-31.78
-29.76
-31.20
-34.54
-38.60
-42.77
-47.00
-51.59
-56.91
-63.06
-69.61
-75.40
-78.94
-78.80
-74.33
-65.96
-55.02
-43.19
-31.79
-21.41
-11.89
-2.79
6.26
15.18
23.62
31.12
37.36
42.10
45.05
45.80
43.96
39.45
32.96
25.93
20.29
18.00
20.51
28.59
42.45
61.79
85.65
112.22
138.78
162.11
179.38
189.05
191.31
187.78
180.71
172.03
163.00
154.43
147.09
142.13
140.69
143.17
148.36
153.24
153.76
146.36
129.43
104.10
74.02
43.96
18.15
-0.88
-12.66
-18.19
-19.01
-16.49
-11.63
-5.23
1.66
7.78
12.07
14.12
14.58
14.94
16.98
21.88
29.58
38.64
46.71
51.50
51.57
47.03
39.25
30.36
22.39
16.75
13.99
14.12
16.78
21.42
27.30
33.60
39.52
44.62
48.98
53.03
57.21
61.56
65.50
68.14
68.74
67.16
64.03
60.40
57.29
55.25
54.27
53.86
53.27
51.68
48.43
43.20
36.18
28.22
20.65
14.88
11.92
12.04
14.60
18.44
22.24
25.07
26.60
27.12
27.30
27.87
29.31
31.72
34.76
37.81
40.23
41.56
41.59
40.46
38.40
35.66
32.39
28.63
24.43
19.96
15.53
11.51
8.18
5.65
3.87
2.72
2.09
1.87
1.84
1.57
0.42
-2.17
-6.51
-12.35
-18.99
-25.47
-31.00
-35.12
-37.75
-38.99
-38.95
-37.68
-35.27
-31.93
-28.13
-24.48
-21.50
-19.46
-18.27
-17.58
-16.96
-16.12
-14.98
-13.66
-12.42
-11.50
-11.03
-11.00
-11.21
-11.36
-11.05
-9.93
-7.81
-4.75
-1.10
2.53
5.48
7.25
7.69
7.03
5.82
4.64
3.89
3.61
3.52
3.18
2.24
0.57
-1.74
-4.46
-7.36
-10.27
-13.02
-15.44
-17.22
-18.01
-17.51
-15.58
-12.38
-8.36
-4.16
-0.47
2.20
3.64
3.93
3.34
2.15
0.53
-1.45
-3.76
-6.20
-8.42
-9.98
-10.53
-10.03
-8.70
-6.92
-4.98
-3.01
-0.95
1.32
3.71
5.99
7.77
8.81
9.08
8.84
8.54
8.62
9.47
11.30
14.13
17.73
21.45
24.25
24.76
21.71
14.39
3.11
-10.79
-25.26
-38.05
-47.20
-51.19
-48.99
-40.14
-24.97
-4.91
17.42
38.63
55.35
65.17
67.36
62.89
53.93
43.07
32.52
23.74
17.40
13.59
12.05
12.32
13.96
16.61
20.12
24.66
30.53
37.90
46.32
54.48
60.34
61.66
56.77
45.20
27.97
7.39
-13.36
-30.82
-41.79
-43.86
-36.00
-19.10
3.81
27.93
47.70
58.27
56.93
43.97
22.61
-1.99
-24.37
-40.44
-48.69
-50.64
-49.90
-50.69
-56.14
-67.03
-81.53
-95.99
-106.17
-108.71
-102.27
-87.88
-68.50
-47.96
-29.72
-15.82
-6.68
-1.64
0.12
-1.20
-5.91
-14.14
-24.96
-36.07
-44.64
-48.60
-47.74
-43.68
-38.93
-35.42
-33.73
-33.30
-33.34
-33.76
-35.19
-38.00
-40.97
-41.02
-34.33
-18.63
4.78
30.76
52.38
63.86
63.22
52.61
36.51
19.10
2.44
-13.22
-27.84
-40.09
-47.00
-45.71
-35.58
-19.11
-0.86
15.03
26.87
35.91
44.90
56.03
69.39
82.75
92.62
95.81
90.77
78.16
60.68
42.18
26.27
15.04
8.17
3.04
-3.88
-15.38
-31.92
-51.59
-71.19
-88.00
-101.11
-111.25
-119.59
-126.57
-131.03
-131.02
-124.90
-112.65
-96.11
-78.30
-62.20
-49.69
-41.16
-35.60
-31.32
-26.44
-19.45
-9.56
3.16
17.77
32.73
46.51
58.23
68.02
77.03
86.84
98.77
113.40
130.45
149.01
167.74
185.09
199.54
209.80
215.15
215.78
212.70
207.52
201.86
196.85
192.75
189.05
184.74
178.81
170.77
161.17
151.60
144.25
140.84
141.47
144.04
144.85
140.04
127.55
108.10
85.01
62.74
45.04
33.55
27.72
25.60
25.02
24.36
22.74
19.69
14.86
7.80
-1.78
-13.79
-27.67
-42.31
-56.40
-68.74
-78.64
-86.08
-91.67
-96.35
-100.98
-106.04
-111.45
-116.71
-121.12
-124.18
-125.75
-126.20
-126.19
-126.37
-127.06
-128.16
-129.05
-129.00
-127.54
-124.70
-121.12
-117.70
-115.24
-113.99
-113.54
-113.01
-111.53
-108.61
-104.42
-99.66
-95.32
-92.23
-90.81
-91.03
-92.52
-94.75
-96.96
-98.28
-97.93
-95.51
-91.44
-87.10
-84.50
-85.62
-91.50
-101.66
-114.11
-126.10
-135.14
-139.99
-141.28
-141.04
-141.63
-144.33
-148.51
-151.71
-150.85
-143.71
-130.11
-112.10
-93.02
-76.19
-64.04
-57.79
-57.40
-61.57
-67.47
-70.60
-65.63
-48.34
-17.87
22.05
64.13
100.46
125.97
140.17
146.67
150.62
155.93
163.58
171.99
178.54
181.08
178.74
171.77
161.08
147.83
133.41
119.43
107.56
99.05
94.24
92.50
92.54
92.94
92.59
91.14
89.04
87.28
86.90
88.39
91.43
94.66
96.13
93.69
85.72
71.59
51.84
28.31
3.65
-19.30
-38.39
-52.82
-63.32
-71.54
-79.10
-86.73
-93.92
-99.46
-102.16
-101.70
-98.58
-93.68
-87.54
-80.16
-71.30
-61.10
-50.56
-41.53
-36.01
-35.17
-38.81
-45.28
-52.20
-57.49
-60.22
-60.92
-61.19
-62.79
-66.88
-73.47
-81.42
-88.98
-94.38
-96.33
-94.27
-88.26
-78.69
-66.06
-51.02
-34.42
-17.41
-1.39
12.38
23.08
30.52
35.16
37.79
39.17
39.87
40.17
40.28
40.33
40.42
40.50
40.39
39.86
38.87
37.67
36.77
36.65
37.48
38.98
40.47
41.32
41.17
40.04
38.21
36.07
33.88
31.81
30.10
29.15
29.32
30.57
32.21
33.06
31.97
28.40
22.68
15.81
8.82
2.31
-3.67
-9.49
-15.35
-21.26
-27.13
-33.21
-40.34
-49.65
-61.97
-77.22
-94.29
-111.43
-127.13
-140.75
-152.76
-164.53
-177.81
-193.91
-213.23
-234.94
-257.08
-277.01
-291.94
-299.74
-299.48
-291.72
-278.27
-261.60
-243.94
-226.39
-208.88
-190.36
-169.58
-146.01
-120.31
-94.18
-69.72
-48.46
-30.71
-15.62
-1.80
11.82
25.27
37.49
46.94
52.43
53.87
52.22
49.08
45.97
43.88
43.24
44.32
47.58
53.75
63.47
76.90
93.35
111.44
129.57
146.56
162.22
177.31
193.16
210.82
230.40
250.66
269.23
283.14
289.57
286.66
273.73
251.36
220.94
184.40
144.22
103.66
66.74
37.63
19.37
12.49
14.61
21.36
28.36
33.19
36.01
38.68
42.91
48.83
54.61
57.36
54.53
44.82
28.48
7.00
-17.20
-41.13
-61.74
-76.78
-85.56
-89.15
-89.46
-87.84
-84.04
-76.50
-63.65
-45.58
-24.47
-3.58
14.54
29.25
41.76
53.91
66.79
80.14
93.07
104.91
115.66
125.24
132.37
134.05
126.42
106.57
74.48
33.74
-9.59
-49.03
-79.91
-100.40
-111.25
-114.42
-111.78
-104.22
-91.70
-73.94
-51.28
-25.43
0.37
21.68
34.03
34.33
22.40
1.63
-21.34
-38.09
-40.84
-24.84
9.81
57.68
109.13
152.77
178.47
180.05
156.82
113.22
57.10
-2.77
-59.11
-107.61
-147.29
-179.62
-207.12
-231.58
-253.15
-270.16
-279.70
-278.70
-265.05
-238.29
-200.06
-154.10
-105.77
-61.05
-24.97
0.06
15.22
24.98
35.48
52.39
78.87
114.55
155.81
196.96
231.70
254.35
260.74
248.57
217.50
169.11
106.77
35.42
-38.63
-108.26
-166.63
-208.55
-231.99
-238.82
-234.37
-225.61
-218.74
-217.22
-221.25
-228.46
-235.54
-239.61
-238.83
-232.25
-219.47
-200.50
-175.77
-146.30
-113.62
-79.93
-48.26
-22.39
-6.30
-2.95
-12.69
-32.24
-55.12
-73.77
-82.42
-79.49
-67.91
-53.27
-40.76
-32.76
-28.24
-24.22
-18.24
-9.94
-1.30
4.78
6.29
3.46
-0.96
-2.74
2.27
16.79
41.26
73.55
109.38
143.07
168.84
182.49
182.70
171.37
152.89
132.37
113.69
98.47
86.22
75.26
64.05
51.90
39.10
26.78
16.64
10.79
11.29
19.62
35.83
58.19
83.57
108.43
129.96
146.58
157.97
164.48
166.74
165.29
160.71
153.76
145.37
136.61
128.56
122.24
118.58
118.25
121.40
127.46
135.14
142.82
149.09
153.28
155.45
156.07
155.38
152.95
147.86
139.12
126.27
109.77
90.90
71.38
52.94
36.97
24.45
16.07
12.49
14.27
21.74
34.68
52.02
71.81
91.39
107.92
118.87
122.60
118.50
107.02
89.39
67.41
43.24
19.14
-2.73
-20.68
-33.84
-42.41
-47.47
-50.62
-53.42
-56.93
-61.70
-67.82
-75.17
-83.64
-93.01
-102.93
-112.83
-121.97
-129.69
-135.46
-138.95
-139.89
-138.06
-133.25
-125.30
-114.23
-100.33
-84.16
-66.63
-48.82
-31.86
-16.69
-3.89
6.38
14.19
19.66
22.78
23.53
22.21
19.78
17.82
18.14
22.13
30.16
41.41
54.14
66.31
76.20
82.86
86.18
86.74
85.46
83.33
81.16
79.44
78.23
77.14
75.53
72.76
68.56
63.32
58.04
54.02
52.32
53.26
56.35
60.47
64.51
67.82
70.49
73.18
76.65
81.21
86.48
91.30
94.21
93.87
89.52
81.19
69.47
55.14
38.81
20.81
1.34
-19.08
-39.43
-58.27
-74.32
-86.96
-96.57
-104.29
-111.44
-118.90
-126.81
-134.68
-141.79
-147.59
-151.82
-154.32
-154.80
-152.86
-148.05
-140.18
-129.39
-116.19
-101.28
-85.40
-69.31
-53.74
-39.41
-26.92
-16.48
-7.75
0.20
8.69
19.04
32.09
47.97
65.96
84.77
102.74
118.28
130.04
137.23
139.68
137.85
132.70
125.33
116.68
107.26
97.15
86.20
74.21
61.11
47.02
32.21
16.97
1.63
-13.54
-28.25
-42.40
-56.07
-69.49
-82.75
-95.62
-107.40
-117.23
-124.30
-128.24
-129.02
-126.93
-122.29
-115.44
-106.95
-97.64
-88.71
-81.46
-76.82
-74.93
-74.91
-74.96
-72.72
-65.74
-52.10
-30.96
-3.08
29.34
62.97
94.18
119.88
138.05
147.90
149.66
144.12
132.17
114.72
92.73
67.52
40.97
15.34
-7.13
-24.81
-37.19
-44.92
-49.43
-52.21
-54.02
-54.64
-53.09
-48.40
-40.27
-29.37
-17.11
-5.04
5.66
14.45
21.35
26.45
29.76
31.05
29.95
26.26
20.11
11.94
2.44
-7.77
-18.26
-28.78
-39.25
-49.64
-59.86
-69.81
-79.48
-88.90
-98.20
-107.52
-116.90
-126.31
-135.54
-144.23
-151.76
-157.28
-159.68
-157.78
-150.68
-137.99
-120.12
-98.18
-73.70
-48.33
-23.40
0.13
