1593623016.00
64.000000
-0.00
-0.00
-0.00
-0.00
-0.00
-0.00
-0.00
-0.00
-0.00
-0.00
0.00
0.01
0.01
-0.00
-0.03
-0.05
-0.05
0.00
0.13
0.36
0.66
1.01
1.37
1.72
2.06
2.40
2.79
3.24
3.80
4.42
5.06
5.66
6.20
6.68
7.15
7.68
8.31
9.14
10.09
11.04
11.88
12.56
13.14
13.76
14.65
15.96
17.91
20.32
22.90
25.38
27.58
29.57
31.68
34.32
37.81
42.54
48.15
54.10
59.83
64.97
69.58
74.14
79.34
85.71
93.76
103.00
112.62
121.73
129.77
136.75
143.30
150.75
157.77
166.64
177.95
191.79
206.97
220.57
228.25
225.36
208.53
176.87
132.76
80.05
23.07
-34.94
-92.44
-149.16
-205.23
-260.37
-313.74
-363.87
-409.83
-450.91
-486.50
-515.74
-537.23
-549.22
-549.96
-538.37
-514.21
-478.67
-433.88
-382.45
-327.02
-269.84
-212.63
-156.66
-102.95
-52.37
-5.90
35.58
71.43
101.35
125.50
144.38
158.69
169.15
176.37
180.75
182.58
182.07
179.51
175.23
169.65
163.17
156.14
148.82
141.33
133.74
126.05
118.31
110.57
102.92
95.46
88.27
81.39
74.85
68.63
62.67
56.97
51.50
46.31
41.44
36.93
32.80
29.05
25.61
22.40
19.34
16.41
13.65
11.18
9.08
7.43
6.16
5.12
4.09
2.89
1.46
-0.08
-1.45
-2.37
-2.68
-2.46
-2.06
-1.94
-2.49
-3.81
-5.63
-7.38
-8.46
-8.52
-7.66
-6.48
-5.80
-6.31
-8.18
-10.95
-13.68
-15.42
-15.62
-14.38
-12.52
-11.07
-10.95
-12.65
-16.19
-21.07
-26.18
-29.83
-29.90
-24.54
-13.13
3.02
20.71
35.93
45.37
47.76
44.20
37.30
29.80
23.37
18.28
13.89
9.55
5.24
1.63
-0.46
-0.65
0.61
2.16
2.55
0.75
-3.34
-8.77
-13.69
-15.97
-13.97
-7.19
3.31
15.20
25.51
31.69
32.58
28.84
22.78
17.33
14.76
15.82
19.54
23.97
27.25
28.52
28.15
27.32
27.18
28.28
30.01
31.28
30.99
28.61
24.33
18.87
13.17
8.04
3.94
1.07
-0.61
-1.35
-1.73
-2.61
-5.04
-9.79
-16.88
-25.31
-33.27
-38.82
-40.73
-39.05
-35.06
-30.71
-27.74
-27.00
-28.28
-30.72
-33.31
-35.35
-36.57
-36.98
-36.75
-36.07
-35.34
-35.20
-36.23
-38.57
-41.40
-43.01
-41.39
-35.32
-25.32
-13.86
-4.59
-0.90
-4.52
-14.70
-28.51
-42.07
-52.09
-56.97
-57.24
-54.99
-52.93
-53.39
-57.53
-65.10
-74.76
-84.55
-92.51
-97.17
-97.67
-93.31
-84.20
-70.86
-53.88
-33.75
-11.08
13.29
38.09
61.75
82.79
100.00
112.90
121.61
126.76
129.44
131.21
133.99
139.49
148.40
159.41
169.42
174.57
172.12
161.99
147.03
131.78
120.19
113.53
109.64
103.84
90.80
66.41
28.96
-20.34
-77.44
-135.73
-187.02
-223.25
-238.82
-232.73
-209.13
-176.07
-142.49
-115.14
-96.77
-86.40
-81.22
-78.60
-77.17
-76.56
-76.31
-75.20
-71.40
-63.46
-51.33
-36.73
-22.42
-10.98
-3.55
0.72
4.16
9.47
18.34
30.72
44.77
57.77
67.09
71.28
70.43
65.93
59.83
54.00
49.50
46.52
44.60
43.16
41.90
40.98
40.81
41.68
43.55
45.95
48.29
50.03
50.95
50.99
50.17
48.35
45.14
40.04
32.44
21.72
7.40
-10.67
-31.76
-54.00
-74.30
-89.07
-95.33
-91.79
-79.44
-61.12
-40.50
-20.82
-4.09
8.99
18.74
25.96
31.58
36.48
41.40
46.74
52.41
57.84
62.19
64.85
65.85
66.01
66.63
68.95
73.55
80.02
87.01
92.76
95.68
95.04
91.42
86.99
85.19
89.81
103.46
125.92
153.26
178.49
193.72
193.26
175.89
145.51
109.31
74.81
46.88
26.44
11.06
-3.02
-18.82
-37.57
-58.93
-81.76
-104.98
-127.88
-150.07
-171.26
-191.18
-209.60
-226.45
-241.70
-255.19
-266.32
-273.80
-275.52
-268.64
-250.16
-217.99
-172.11
-115.31
-53.05
7.86
61.15
102.81
131.88
149.93
159.84
164.46
165.90
165.38
163.38
159.85
154.28
145.86
134.08
119.49
104.37
92.53
88.21
94.38
111.40
136.71
165.64
193.17
215.45
230.66
238.66
240.08
235.33
224.17
206.07
180.79
148.91
111.79
71.07
28.31
-15.05
-57.31
-96.10
-128.45
-151.45
-163.32
-164.23
-156.24
-142.52
-126.14
-109.20
-92.74
-77.07
-62.26
-48.34
-34.99
-21.38
-6.28
11.54
32.76
57.34
84.58
113.20
141.25
165.97
184.06
192.37
189.12
174.68
151.55
123.27
92.89
61.88
30.08
-3.31
-38.43
-74.26
-109.04
-141.48
-171.73
-201.53
-233.67
-271.23
-316.88
-372.29
-437.14
-508.42
-579.97
-643.07
-688.55
-709.66
-704.43
-676.22
-632.03
-579.36
-524.09
-469.34
-415.94
-363.70
-312.55
-262.79
-214.62
-167.48
-119.62
-69.78
-17.89
34.83
86.57
135.65
181.19
223.57
264.54
307.65
355.41
408.04
462.78
514.16
555.54
581.04
587.63
576.35
552.60
521.74
487.19
449.77
408.80
363.98
316.31
268.17
216.79
165.57
120.22
84.84
58.94
37.55
16.28
-6.26
-29.80
-54.18
-76.31
-96.44
-116.97
-140.70
-169.05
-201.21
-235.39
-270.45
-306.75
-344.89
-385.48
-426.60
-462.28
-483.79
-483.23
-457.49
-409.76
-347.56
-278.37
-208.27
-141.63
-83.25
-40.09
-20.31
-29.45
-65.74
-118.08
-168.62
-200.15
-202.86
-177.36
-132.55
-80.19
-29.27
16.68
58.69
99.38
140.06
179.77
216.52
249.34
279.75
311.85
350.23
397.14
450.20
501.57
539.93
554.18
537.47
489.89
418.41
334.66
251.50
180.02
127.91
99.52
96.52
118.24
161.30
218.81
280.31
333.15
365.24
368.29
340.12
284.98
211.73
130.58
50.02
-25.18
-93.74
-156.39
-214.09
-266.94
-314.48
-357.06
-396.94
-438.11
-484.31
-536.29
-589.78
-635.54
-662.33
-661.38
-629.98
-572.60
-498.69
-418.66
-340.07
-266.09
-196.38
-129.33
-64.07
-0.96
59.33
117.12
174.39
233.93
297.40
363.51
427.27
480.74
515.61
526.07
510.79
473.26
420.25
359.40
297.00
236.68
179.72
125.85
74.22
23.98
-25.85
-76.84
-131.45
-192.42
-261.33
-336.72
-412.91
-480.64
-529.89
-553.51
-549.91
-523.59
-483.03
-437.22
-392.52
-351.50
-313.70
-277.74
-242.91
-209.40
-177.47
-146.54
-115.05
-81.25
-44.22
-4.36
36.43
75.53
111.05
142.67
171.61
199.83
228.82
258.97
290.00
320.34
348.05
372.09
393.23
413.94
437.70
468.08
507.60
557.63
614.71
670.50
714.30
736.97
734.06
707.15
662.85
610.20
559.33
515.08
476.56
440.22
403.47
366.10
329.51
294.89
262.26
232.82
204.30
171.95
131.42
81.18
22.58
-41.68
-109.24
-194.86
-294.07
-389.08
-462.19
-507.38
-528.61
-532.80
-525.34
-509.92
-488.45
-459.44
-424.17
-386.85
-352.46
-323.91
-301.35
-282.87
-266.88
-252.07
-235.13
-213.94
-187.11
-153.71
-113.23
-69.73
-26.62
9.72
33.79
45.50
48.65
49.08
51.71
59.15
70.85
84.55
97.52
109.01
120.85
134.92
151.53
168.67
183.93
195.70
203.94
209.52
214.08
219.04
224.12
230.90
237.85
242.69
243.39
238.90
228.99
214.33
196.06
175.37
153.11
129.12
103.09
74.79
44.39
12.55
-19.49
-50.10
-77.66
-100.95
-120.15
-136.26
-151.14
-166.89
-185.28
-207.13
-232.12
-259.13
-286.79
-314.42
-342.12
-370.64
-401.15
-434.91
-473.20
-517.11
-566.88
-620.82
-674.58
-721.01
-751.75
-759.92
-742.62
-702.15
-645.07
-579.63
-513.06
-449.89
-391.84
-338.88
-290.37
-245.71
-203.95
-163.41
-121.69
-76.77
-27.70
24.99
79.88
135.32
190.20
244.63
300.06
359.12
424.58
498.13
578.96
662.67
741.25
804.36
842.87
852.04
833.48
793.63
741.29
684.50
628.50
575.16
523.08
470.48
416.55
362.56
308.79
254.80
199.74
143.35
86.28
27.69
-32.44
-93.28
-151.89
-208.89
-267.41
-331.83
-404.72
-485.01
-570.30
-653.17
-722.92
-766.41
-779.50
-766.21
-736.34
-699.58
-662.71
-632.69
-611.80
-598.47
-585.26
-570.31
-554.83
-541.31
-530.09
-493.36
-418.20
-309.48
-212.61
-139.20
-89.21
-51.62
-21.55
4.93
30.82
53.67
71.25
83.13
94.98
108.20
122.26
135.37
147.17
157.97
164.82
165.78
160.87
155.17
150.55
147.17
143.99
140.74
137.50
132.29
123.74
111.82
99.64
88.34
77.95
67.66
57.18
46.48
34.62
21.12
6.19
-8.36
-21.71
-33.67
-44.49
-54.25
-62.92
-70.76
-77.93
-84.33
-89.35
-92.84
-94.91
-95.85
-95.90
-95.17
-93.73
-91.60
-88.78
-85.35
-81.42
-77.14
-72.58
-67.67
-62.10
-55.41
-47.04
-36.57
-23.87
-9.15
7.08
24.26
41.97
60.12
78.90
98.61
119.33
140.71
161.89
181.79
199.46
214.51
227.34
239.02
250.75
263.39
277.00
290.86
303.96
315.72
326.42
337.38
350.36
366.87
387.76
413.22
443.17
477.43
515.09
553.63
588.29
612.80
621.21
610.00
579.15
531.50
471.06
401.48
325.85
247.77
172.61
107.54
59.79
34.03
30.42
44.58
69.73
99.60
130.62
162.49
197.42
238.41
287.23
342.96
401.24
454.65
494.75
514.71
511.79
488.32
450.49
405.77
360.19
316.81
276.15
237.70
201.45
168.39
139.76
115.96
95.84
77.17
57.73
36.53
14.17
-7.47
-26.34
-41.32
-52.80
-62.48
-72.61
-84.99
-100.20
-117.54
-135.51
-152.66
-168.39
-183.18
-198.30
-215.08
-234.15
-255.12
-276.79
-297.82
-317.51
-336.05
-354.33
-373.27
-393.08
-412.93
-431.08
-445.40
-453.97
-455.57
-450.01
-438.17
-421.91
-403.76
-386.24
-371.01
-357.95
-344.96
-328.55
-305.31
-273.40
-233.56
-189.02
-144.34
-103.89
-70.38
-44.33
-24.41
-8.51
4.84
15.55
21.75
20.44
8.90
-13.95
-46.66
-85.36
-124.97
-160.82
-190.07
-212.12
-228.07
-239.49
-247.56
-252.83
-255.76
-257.42
-259.55
-263.62
-269.52
-274.53
-273.56
-260.70
-231.74
-186.23
-128.26
-65.52
-7.30
37.70
62.92
64.93
43.96
4.33
-45.83
-96.08
-136.13
-158.70
-161.23
-145.63
-116.25
-77.35
-31.65
19.22
73.05
125.57
170.70
202.47
217.67
217.35
206.31
190.93
176.46
165.27
156.74
148.29
137.08
121.42
101.36
78.37
54.37
30.90
8.61
-12.30
-31.45
-47.56
-58.51
-62.20
-57.65
-45.80
-29.37
-11.95
3.38
15.01
23.08
28.93
34.11
39.44
44.49
47.81
47.63
42.83
33.62
21.66
9.44
-0.86
-8.19
-12.85
-15.98
-18.66
-21.28
-23.50
-24.65
-24.25
-22.38
-19.53
-16.35
-13.32
-10.61
-8.15
-5.78
-3.39
-1.10
0.74
1.71
1.59
0.58
-0.57
-0.73
1.19
5.80
12.83
21.21
29.51
36.41
41.22
43.97
45.14
45.31
44.80
43.65
41.79
39.28
36.48
33.93
32.10
31.14
30.82
30.64
30.12
29.03
27.40
25.47
23.52
21.73
20.09
18.42
16.48
13.98
10.76
6.85
2.64
-1.14
-3.48
-3.41
-0.31
5.76
14.04
23.24
31.96
39.09
44.06
46.94
48.28
48.79
49.15
49.75
50.75
52.04
53.47
54.88
56.20
57.39
58.42
59.23
59.75
59.97
59.85
59.29
57.99
55.46
51.10
44.59
36.02
25.99
15.39
5.02
-4.70
-13.71
-22.17
-30.09
-37.19
-42.91
-46.62
-47.92
-46.75
-43.42
-38.48
-32.58
-26.32
-20.24
-14.79
-10.37
-7.33
-5.83
-5.67
-6.16
-6.19
-4.61
-0.73
5.21
11.95
17.63
20.58
20.15
17.08
13.21
10.69
11.00
14.32
19.44
24.40
27.38
27.42
24.76
20.67
16.79
14.52
14.62
17.16
21.71
27.57
33.89
39.73
44.21
46.84
47.94
48.81
51.46
57.86
68.93
84.03
101.05
117.35
130.82
140.67
147.41
152.17
155.78
158.08
157.71
152.43
139.91
118.67
89.06
53.66
16.92
-16.06
-41.21
-56.75
-63.50
-63.97
-60.96
-56.32
-50.74
-44.29
-37.35
-31.06
-26.92
-25.77
-26.99
-28.35
-26.86
-20.03
-7.02
11.00
31.28
50.64
66.69
78.73
87.82
96.20
106.25
119.67
136.97
157.49
179.86
202.36
223.32
241.36
255.53
265.54
271.81
275.44
277.93
280.85
285.39
292.06
300.57
309.78
317.97
323.19
323.66
318.22
306.53
289.02
266.68
240.78
212.67
183.57
154.47
125.83
97.41
68.19
36.67
1.61
-37.05
-77.74
-117.42
-152.58
-180.59
-200.80
-214.93
-226.50
-239.60
-257.68
-282.57
-313.82
-348.49
-381.55
-406.98
-419.81
-418.59
-406.86
-392.63
-385.39
-391.82
-412.25
-440.07
-464.20
-474.10
-464.44
-437.33
-401.32
-368.03
-348.24
-348.88
-371.35
-411.32
-459.63
-504.31
-533.46
-538.29
-515.40
-467.27
-400.73
-324.19
-245.06
-168.31
-96.45
-30.35
30.07
85.79
138.88
192.23
248.22
307.18
366.25
419.68
461.31
486.91
496.39
493.82
485.43
476.82
470.61
466.17
461.14
453.68
443.64
432.24
420.57
408.41
394.14
375.95
353.22
327.00
299.33
271.73
244.01
214.31
180.21
140.22
94.65
45.54
-4.31
-52.45
-97.62
-139.70
-179.26
-217.30
-254.91
-293.59
-335.16
-381.19
-431.81
-484.23
-532.25
-567.49
-581.99
-571.27
-536.24
-482.70
-418.88
-352.20
-286.87
-223.37
-159.75
-93.57
-23.70
48.75
120.48
186.75
242.67
284.31
309.60
318.70
313.91
299.41
280.82
264.52
256.58
261.05
278.23
303.73
329.27
345.25
344.26
323.84
287.04
240.73
192.45
147.47
107.45
70.82
34.11
-6.51
-53.66
-107.53
-164.83
-218.33
-258.06
-274.32
-261.67
-222.02
-164.98
-104.68
-54.67
-23.02
-10.37
-11.64
-20.24
-32.09
-47.41
-69.53
-101.76
-144.45
-194.21
-244.87
-289.93
-324.63
-346.72
-355.65
-351.27
-333.28
-301.89
-259.00
-208.57
-155.44
-103.11
-52.36
-2.13
47.86
94.44
130.48
147.72
141.25
112.85
70.96
27.06
-9.15
-33.05
-45.16
-48.69
-46.78
-41.26
-33.53
-26.07
-22.84
-28.42
-45.74
-74.17
-109.33
-144.46
-172.85
-190.11
-195.03
-189.34
-176.58
-160.71
-145.33
-133.51
-127.89
-130.60
-142.39
-161.74
-184.45
-204.25
-214.66
-211.12
-192.49
-160.89
-120.41
-75.26
-28.45
18.45
64.70
109.87
153.78
197.01
241.16
288.33
339.57
393.35
444.76
486.38
510.59
512.00
489.07
444.09
381.99
309.01
231.88
157.61
92.86
42.62
8.24
-13.61
-30.09
-49.22
-76.32
-111.91
-152.31
-192.60
-230.09
-266.08
-304.47
-348.22
-395.93
-440.78
-472.61
-482.07
-464.55
-421.75
-360.62
-289.97
-217.06
-145.55
-75.69
-6.44
61.99
126.69
182.47
224.13
249.04
258.43
256.66
248.94
238.78
226.66
210.74
188.89
160.99
130.15
101.85
81.79
73.22
75.43
83.94
92.37
95.04
89.17
75.98
59.87
46.26
39.08
39.03
43.43
47.78
47.87
41.67
30.18
16.69
5.54
0.69
5.18
20.78
47.65
82.90
120.00
149.85
163.77
157.77
135.08
105.37
80.06
66.09
60.98
54.19
33.72
-5.93
-59.64
-113.83
-153.55
-169.93
-163.60
-144.54
-126.18
-119.03
-127.30
-149.26
-179.70
-211.86
-237.89
-249.27
-241.14
-214.18
-174.82
-133.53
-101.23
-85.54
-88.62
-106.95
-122.10
-118.33
-88.89
-39.72
15.28
64.61
104.61
137.15
165.14
188.38
203.55
204.55
187.29
152.58
105.98
54.67
3.18
-48.04
-97.81
-145.21
-190.53
-233.30
-272.68
-307.66
-336.77
-357.87
-375.85
-384.28
-378.43
-358.14
-326.98
-290.83
-255.47
-221.81
-192.55
-168.77
-148.62
-131.70
-119.07
-111.98
-110.73
-113.74
-117.67
-119.09
-114.72
-101.58
-79.93
-52.31
-21.84
8.93
38.70
67.38
95.10
122.43
150.21
177.75
203.33
225.06
241.66
252.95
260.04
264.69
269.18
275.72
285.01
296.43
308.44
319.20
326.81
329.36
324.85
311.85
290.35
262.42
232.46
206.20
188.79
182.79
187.21
198.21
211.01
221.87
229.12
232.80
233.37
230.78
224.25
213.22
198.18
180.89
163.64
148.02
133.95
119.61
102.43
80.36
52.96
21.65
-10.58
-39.97
-62.71
-75.67
-76.90
-66.19
-45.43
-18.46
9.54
33.23
48.39
53.09
48.14
36.98
24.66
16.43
16.41
26.36
45.12
68.52
90.02
101.87
96.89
70.91
25.22
-32.25
-88.06
-127.39
-139.74
-123.68
-88.20
-49.23
-22.72
-17.93
-33.88
-61.13
-87.06
-101.63
-100.79
-86.08
-61.94
-32.75
-1.85
27.86
52.75
68.62
72.25
63.50
46.34
27.68
14.70
12.01
20.37
37.57
60.11
85.03
110.14
133.18
150.99
159.43
154.19
132.44
94.11
42.60
-15.17
-69.62
-109.98
-126.85
-115.34
-77.25
-21.23
39.92
93.82
132.59
154.57
162.80
161.51
152.99
136.75
111.36
77.31
39.03
4.24
-18.82
-24.89
-13.88
9.29
37.41
64.35
87.35
107.07
125.72
144.28
160.73
170.30
167.62
149.64
117.44
76.16
32.81
-6.58
-39.06
-65.06
-87.26
-108.48
-130.24
-152.52
-174.79
-197.16
-220.62
-245.94
-271.64
-292.65
-300.79
-287.09
-245.18
-173.97
-78.63
30.50
140.32
237.80
312.43
357.89
372.75
360.21
326.89
280.82
229.40
177.88
128.93
83.14
39.96
-1.63
-42.79
-84.67
-128.19
-173.61
-220.30
-266.71
-311.17
-352.59
-391.03
-427.66
-464.24
-502.27
-542.05
-582.05
-618.53
-646.00
-658.48
-651.34
-622.97
-575.66
-514.97
-447.84
-380.41
-316.36
-256.64
-200.35
-146.22
-93.44
-41.79
8.79
58.65
108.32
157.87
206.46
252.18
292.52
325.21
349.19
364.94
374.28
379.50
382.50
384.28
385.05
384.72
383.29
380.67
376.11
367.73
352.83
328.90
294.99
252.49
204.57
154.82
105.59
57.25
8.78
-40.67
-90.66
-139.31
-184.32
-224.44
-260.02
-292.07
-320.47
-342.57
-353.71
-349.56
-328.98
-295.52
-256.75
-221.07
-194.24
-177.10
-165.66
-153.47
-134.52
-105.51
-66.53
-20.66
26.98
69.97
101.67
116.76
113.03
93.02
64.10
36.72
21.40
25.83
52.88
100.28
161.75
228.80
292.48
344.66
378.95
391.24
380.26
347.47
296.92
234.70
168.02
104.37
50.29
10.22
-14.60
-26.51
-30.89
-34.77
-45.06
-66.99
-102.92
-151.75
-208.70
-266.19
-315.73
-350.21
-365.97
-363.49
-346.29
-318.81
-284.47
-245.06
-201.68
-156.14
-111.57
-71.71
-39.04
-13.38
8.20
29.99
55.36
85.29
118.09
150.43
178.67
200.01
212.85
216.73
212.10
200.37
183.91
166.01
150.11
138.94
133.69
133.87
138.09
145.13
154.82
168.06
185.85
207.92
231.83
252.98
265.76
265.31
249.08
217.49
173.52
121.58
65.96
9.63
-46.13
-101.68
-158.40
-218.02
-281.50
-347.89
-413.49
-471.73
-514.38
-533.75
-525.20
-488.91
-430.08
-357.47
-281.14
-210.08
-150.82
-106.70
-77.95
-62.08
-54.53
-49.79
-42.73
-29.99
-10.72
13.56
39.80
64.62
85.27
100.29
109.60
114.50
117.22
120.35
125.82
133.78
141.84
145.30
138.78
118.63
85.25
43.89
3.25
-27.62
-42.69
-40.92
-26.02
-4.29
18.20
37.53
52.42
63.31
71.22
77.06
81.69
86.32
92.64
102.53
117.38
137.63
162.62
190.89
220.71
250.38
278.40
303.48
324.19
338.91
345.66
342.34
327.17
299.41
260.14
212.63
161.95
113.66
72.24
40.02
16.79
0.29
-12.86
-26.11
-42.09
-61.74
-83.87
-105.35
-122.06
-130.53
-129.26
-119.23
-102.91
-82.67
-59.45
-32.69
-1.57
33.40
69.54
102.81
129.41
147.22
156.00
156.41
148.80
132.56
106.74
71.43
28.86
-16.35
-58.47
-92.46
-115.78
-129.20
-136.57
-143.39
-155.05
-175.22
-205.19
-244.03
-289.48
-338.80
-389.24
-438.20
-483.13
-521.41
-550.76
-569.84
-578.45
-577.54
-568.26
-551.20
-526.40
-493.63
-452.84
-404.66
-350.27
-291.02
-228.47
-164.07
-99.04
-35.13
25.70
82.04
133.68
181.54
227.27
271.37
313.42
352.60
387.10
414.26
430.90
433.81
420.94
393.63
356.02
315.46
280.09
253.79
233.80
212.35
180.97
135.36
78.74
18.45
-36.74
-73.87
-84.85
-70.42
-40.05
-6.56
14.68
24.48
27.65
27.86
25.73
20.51
8.57
-13.39
-46.82
-91.07
-142.99
-199.29
-255.02
-303.21
-337.02
-351.88
-346.63
-324.05
-289.90
-250.11
-210.30
-173.13
-137.75
-101.56
-61.98
-17.58
30.88
79.94
123.91
154.72
164.33
147.54
104.12
39.78
-34.18
-103.34
-153.99
-176.67
-168.86
-134.52
-82.00
-21.40
37.77
88.24
125.75
149.29
161.14
166.34
171.66
183.47
205.34
236.45
272.09
305.64
331.43
346.22
349.54
342.72
327.61
306.08
280.08
251.72
223.12
195.89
170.74
147.81
127.62
111.76
102.58
101.67
108.42
119.69
131.38
140.42
145.93
148.51
148.06
141.97
125.58
94.68
49.16
-5.19
-58.58
-101.76
-130.53
-147.78
-161.37
-179.57
-206.74
-241.04
-275.57
-300.97
-308.92
-295.22
-261.67
-216.53
-173.01
-146.01
-147.45
-181.78
-243.56
-318.73
-389.24
-439.26
-460.00
-451.17
-418.92
-371.71
-316.61
-257.66
-196.20
-132.93
-69.58
-9.13
45.22
91.54
130.43
164.60
197.61
232.39
270.49
312.16
356.65
402.27
445.91
482.70
506.40
510.81
491.78
448.95
386.45
312.10
235.70
166.93
113.61
80.57
69.00
76.50
97.64
125.29
152.39
173.45
185.30
186.89
178.32
160.00
132.45
96.38
52.92
3.62
-49.99
-107.14
-168.19
-234.28
-305.91
-381.18
-454.76
-518.38
-562.81
-580.89
-570.04
-532.91
-476.11
-407.36
-332.78
-255.81
-177.97
-100.90
-27.89
36.13
86.47
121.33
143.16
157.92
172.17
189.80
210.13
228.23
237.68
233.88
216.26
188.27
155.38
122.55
92.49
65.47
40.46
16.63
-5.84
-25.76
-41.78
-53.16
-60.23
-64.14
-66.29
-67.63
-68.26
-67.50
-64.59
-59.32
-52.31
-44.86
-38.23
-32.93
-28.41
-23.39
-16.70
-8.06
1.61
10.55
16.95
19.68
18.69
14.74
8.99
2.44
-4.18
-10.47
-16.20
-21.16
-25.26
-28.54
-31.27
-33.92
-37.06
-41.15
-46.41
-52.70
-59.48
-65.97
-71.46
-75.55
-78.28
-80.04
-81.21
-81.81
-81.25
-78.36
-71.59
-59.50
-41.23
-17.03
11.50
41.53
69.53
92.10
106.92
113.37
112.75
107.81
102.01
98.48
99.21
104.62
113.70
124.57
135.30
144.61
152.12
158.19
163.39
168.05
172.04
174.83
175.82
174.61
171.16
165.89
159.61
153.50
148.85
146.82
147.99
152.08
157.99
164.11
168.92
171.51
171.87
170.67
168.82
166.84
164.58
161.45
157.02
151.63
146.49
143.13
142.24
142.98
142.91
139.02
129.05
112.35
89.83
63.34
34.89
6.62
-18.85
-38.11
-47.46
-44.21
-28.47
-3.80
23.75
47.98
65.14
74.89
79.22
79.99
76.65
65.43
40.77
-1.72
-62.59
-137.04
-215.76
-287.56
-342.66
-375.31
-385.33
-377.35
-358.48
-335.80
-314.38
-296.84
-284.23
-277.17
-276.17
-281.95
-294.26
-310.52
-325.91
-334.74
-332.56
-317.99
-292.83
-260.09
-223.19
-184.46
-144.02
-100.77
-53.01
0.92
61.52
127.56
196.30
261.68
315.23
349.64
360.51
348.77
320.80
285.34
244.52
201.93
160.29
120.99
86.00
56.21
32.47
15.46
3.56
-7.05
-19.84
-38.36
-65.17
-99.24
-139.80
-187.37
-240.85
-296.23
-347.27
-384.23
-397.33
-392.11
-368.50
-328.09
-275.84
-214.07
-150.23
-91.20
-40.20
2.58
38.70
72.21
105.89
141.93
182.75
229.48
281.68
336.02
385.30
420.05
433.22
421.26
386.29
335.76
278.87
223.88
175.34
133.14
94.18
56.00
17.38
-20.87
-56.43
-87.22
-111.55
-128.08
-135.38
-131.77
-115.56
-87.49
-52.05
-17.33
7.01
13.44
-0.19
-29.66
-65.75
-97.50
-116.15
-117.71
-103.57
-79.60
-53.87
-34.37
-26.93
-34.05
-55.01
-86.90
-126.30
-170.46
-217.57
-265.83
-312.18
-351.78
-378.65
-387.30
-374.47
-340.07
-287.10
-221.03
-149.03
-79.25
-19.81
22.69
45.09
49.08
41.12
30.64
27.13
37.16
62.64
100.86
145.98
190.92
228.88
254.27
263.12
253.68
227.10
187.77
142.62
99.31
63.72
38.00
20.20
5.85
-9.34
-27.04
-45.36
-59.99
-66.45
-62.16
-47.31
-24.06
4.88
37.13
70.51
102.19
128.23
144.32
147.68
138.86
122.14
103.70
88.60
78.13
69.31
56.88
36.70
8.58
-23.37
-52.67
-73.77
-84.51
-86.54
-83.73
-79.68
-75.97
-71.97
-66.06
-57.33
-46.57
-36.16
-28.80
-25.91
-26.80
-28.71
-27.85
-21.04
-7.37
10.63
27.09
34.59
27.25
3.96
-29.93
-63.69
-85.24
-85.70
-62.94
-21.88
28.04
76.49
114.90
137.17
139.09
118.17
74.84
14.40
-52.09
-109.73
-144.34
-147.79
-121.18
-74.27
-21.31
24.45
55.08
69.28
70.72
64.98
56.78
48.75
41.69
35.61
30.58
26.84
24.38
22.54
19.89
14.81
6.42
-4.84
-17.05
-27.52
-33.82
-34.80
-31.10
-24.88
-18.89
-15.25
-14.49
-15.46
-16.00
-14.09
-8.90
-1.33
6.45
12.03
13.86
12.06
8.36
5.31
5.09
8.43
14.17
19.75
22.17
19.39
11.08
-1.20
-14.64
-26.31
-34.07
-37.27
-36.62
-33.69
-30.21
-27.52
-26.17
-25.99
-26.28
-26.07
-24.42
-20.56
-14.20
-5.74
3.43
11.10
15.02
14.15
9.63
4.83
4.07
10.64
25.13
45.02
65.58
81.46
88.18
82.80
64.02
32.00
-11.54
-62.88
-116.26
-164.45
-200.30
-218.43
-216.77
-196.98
-163.79
-123.64
-82.86
-46.26
-16.25
6.98
24.60
37.99
47.97
54.76
58.49
59.77
59.80
60.05
61.55
64.46
68.03
71.09
72.61
72.22
70.37
68.14
66.86
67.57
70.56
75.15
79.93
83.31
84.21
82.57
79.34
75.95
73.55
72.47
72.16
71.57
69.81
66.60
62.51
58.84
57.26
59.30
65.81
76.51
89.64
101.91
108.84
105.51
87.80
53.84
5.32
-52.11
-109.71
-157.97
-189.39
-200.73
-193.66
-173.49
-146.74
-118.74
-92.57
-69.31
-49.34
-33.35
-22.52
-17.85
-19.17
-24.67
-31.25
-35.52
-35.07
-29.19
-19.02
-6.99
4.24
12.81
18.41
22.30
26.67
33.51
43.54
55.73
67.75
76.98
81.75
81.99
79.10
75.10
71.58
68.99
66.63
63.18
57.54
49.47
39.76
29.86
21.39
15.53
12.80
13.07
15.62
19.30
22.52
23.29
19.62
10.26
-4.51
-22.43
-39.59
-51.63
-55.29
-49.56
-36.00
-17.93
0.88
17.42
30.05
38.41
42.79
43.72
41.79
37.72
32.60
27.93
25.32
25.97
30.03
36.27
42.21
44.97
42.32
33.74
20.79
6.54
-5.69
-13.61
-16.85
-16.71
-15.25
-14.08
-13.61
-13.15
-11.58
-8.25
-3.40
1.96
6.64
9.82
11.24
11.06
9.50
6.69
2.73
-2.14
-7.43
-12.53
-16.93
-20.38
-22.87
-24.54
-25.28
-24.63
-21.54
-14.95
-4.75
7.18
16.45
17.04
3.46
-26.59
-70.23
-119.18
-161.87
-187.13
-188.03
-164.08
-121.24
-69.48
-19.35
21.07
47.88
61.16
63.50
58.05
47.37
33.26
17.69
3.53
-5.71
-7.28
-0.95
10.52
22.98
33.55
42.93
55.25
75.32
104.81
139.78
171.49
190.30
190.47
173.10
145.33
116.50
93.46
77.86
66.69
55.38
41.35
25.68
12.26
5.25
6.71
15.63
28.77
42.25
52.65
57.04
52.69
37.05
8.89
-30.09
-74.50
-116.20
-146.89
-161.11
-157.98
-140.96
-115.97
-89.11
-65.08
-46.75
-35.48
-31.42
-33.57
-39.67
-46.52
-50.76
-49.96
-43.50
-32.70
-20.23
-9.09
-1.45
2.01
2.16
0.86
0.09
1.16
4.22
8.50
12.77
16.11
18.28
19.67
20.93
22.50
24.26
25.63
25.84
24.38
21.33
17.44
13.83
11.64
11.54
13.47
16.70
20.03
22.28
22.66
21.07
18.07
14.66
11.88
10.39
10.35
11.53
13.58
16.36
20.03
24.91
31.14
38.41
45.82
52.14
56.21
57.41
55.85
52.24
47.44
42.08
36.45
30.61
24.80
19.71
16.51
16.42
20.25
27.94
38.61
50.92
63.61
75.92
87.58
98.58
108.87
118.32
126.78
134.37
141.52
148.86
156.89
165.76
175.23
184.89
194.49
204.29
215.16
228.27
244.49
263.58
283.61
301.06
311.63
311.50
298.70
273.83
239.87
201.20
162.27
126.48
95.56
69.75
48.36
30.15
13.88
-1.62
-17.55
-35.19
-55.52
-78.40
-101.82
-121.97
-134.57
-136.97
-130.04
-118.46
-109.11
-108.30
-119.27
-141.34
-171.09
-204.51
-238.74
-272.51
-305.52
-337.13
-366.16
-391.30
-412.20
-430.15
-448.20
-470.41
-500.59
-540.50
-588.13
-637.33
-678.87
-703.37
-704.63
-682.12
-641.07
-590.03
-537.38
-488.35
-444.30
-403.91
-365.56
-328.97
-295.35
-266.37
-242.77
-223.69
-207.23
-191.52
-175.66
-159.87
-145.19
-132.47
-121.58
-111.27
-99.47
-84.15
-64.15
-39.58
-11.80
17.22
45.68
72.58
97.85
122.19
146.48
171.29
196.62
221.93
246.48
269.68
291.37
311.96
332.33
353.57
376.63
401.87
428.79
455.82
480.58
500.36
512.84
516.72
512.00
499.76
481.46
458.40
431.30
400.46
366.08
328.63
289.01
248.57
208.93
171.80
138.83
111.32
90.00
74.78
64.69
58.12
53.28
48.73
43.71
38.26
33.06
29.09
27.37
28.62
33.04
40.31
49.76
60.71
72.84
86.21
101.11
117.53
134.84
151.68
166.43
177.79
185.36
189.96
193.38
197.99
205.90
218.14
234.05
251.21
265.96
274.64
274.85
266.31
250.89
231.75
212.05
194.00
178.53
165.70
155.31
147.34
141.86
138.61
136.75
134.87
131.49
125.61
117.15
106.77
95.63
84.69
74.39
64.48
54.30
43.15
30.73
17.35
3.86
-8.69
-19.54
-28.47
-35.93
-42.82
-50.04
-58.09
-66.91
-75.92
-84.35
-91.74
-98.26
-104.73
-112.30
-121.97
-134.11
-148.17
-162.95
-177.05
-189.59
-200.68
-211.41
-223.48
-238.42
-256.96
-278.66
-302.36
-326.62
-350.56
-374.28
-398.75
-425.56
-456.66
-494.15
-539.76
-593.90
-654.28
-715.19
-768.06
-803.77
-815.77
-802.66
-768.63
-721.65
-670.19
-620.31
-574.51
-532.49
-493.05
-455.61
-420.49
-388.22
-358.57
-330.19
-301.23
-270.31
-237.34
-203.51
-170.95
-141.65
-116.78
-96.34
-79.43
-64.83
-51.69
-39.89
-30.02
-23.01
-19.46
-19.28
-21.54
-24.74
-27.29
-27.97
-26.31
-22.53
-17.39
-11.72
-6.16
-0.92
4.16
9.44
15.21
21.54
28.16
34.58
40.28
44.91
48.52
51.53
54.64
58.60
63.88
70.60
78.42
86.78
95.13
103.29
111.54
120.53
131.02
143.53
158.07
174.10
190.84
207.50
223.69
239.53
255.55
272.58
291.60
313.64
339.39
368.58
399.31
427.85
449.33
459.20
454.99
437.41
410.14
378.41
347.05
318.99
294.98
274.39
256.34
240.37
226.35
213.86
201.72
188.19
171.90
152.71
132.01
112.32
96.11
84.81
78.37
75.63
75.09
75.64
76.86
78.73
81.21
84.01
86.55
88.29
89.03
88.90
88.20
86.90
84.40
79.52
70.96
57.94
40.66
20.38
-1.00
-21.59
-39.90
-55.01
-66.27
-73.01
-74.59
-70.66
-61.60
-48.65
-33.64
-18.43
-4.41
7.68
17.51
24.79
29.23
30.51
28.59
23.87
17.15
9.54
2.34
-3.05
-5.34
-3.71
1.84
10.16
19.19
26.63
30.86
31.53
29.50
26.12
22.36
18.38
13.75
8.33
2.86
-0.96
-1.34
2.60
10.01
18.55
25.39
28.54
27.73
24.45
21.18
20.24
22.83
28.59
35.76
41.94
44.92
43.49
37.74
28.85
18.52
8.27
-0.97
-8.94
-15.75
-21.45
-25.89
-28.81
-30.09
-30.08
-29.55
-29.49
-30.71
-33.48
-37.52
-42.03
-46.07
-48.98
-50.57
-51.23
-51.70
-52.72
-54.69
-57.48
-60.55
-63.14
-64.56
-64.29
-62.03
-57.73
-51.68
-44.70
-38.00
-32.65
-28.91
-25.77
-21.15
-12.83
0.31
17.46
36.04
52.75
64.96
71.62
73.32
71.57
67.81
62.84
56.81
49.72
41.76
33.41
25.06
16.56
7.03
-4.79
-19.81
-37.61
-56.05
-71.52
-80.17
-79.43
-69.17
-51.84
-31.56
-12.48
2.67
13.19
20.04
24.80
28.62
31.71
33.50
33.28
30.86
26.93
22.89
20.32
20.33
23.21
28.37
34.69
40.94
46.21
49.99
52.03
52.08
49.77
44.64
36.41
25.27
12.06
-1.81
-14.69
-25.20
-32.65
-37.19
-39.70
-41.30
-42.89
-44.77
-46.70
-48.13
-48.69
-48.37
-47.52
-46.56
-45.75
-45.02
-44.05
-42.54
-40.39
-37.77
-35.00
-32.42
-30.20
-28.33
-26.65
-25.02
-23.34
-21.61
-19.87
-18.22
-16.70
-15.32
-14.07
-12.90
-11.77
-10.69
-9.68
-8.76
-7.96
-7.27
-6.65
-6.07
-5.51
-4.96
-4.43
-3.96
-3.57
-3.25
-2.99
-2.78
-2.60
-2.43
-2.27
-2.13
-2.02
-1.95
-1.90
-1.86
-1.83
-1.80
-1.76
-1.72
-1.68
-1.66
-1.65
-1.65
-1.65
-1.65
-1.64
-1.64
-1.63
-1.62
-1.61
-1.61
-1.60
-1.60
-1.59
-1.59
-1.59
-1.58
-1.58
-1.57
-1.57
-1.57
-1.56
-1.56
-1.55
-1.55
-1.54
-1.54
-1.53
-1.53
-1.53
-1.52
-1.52
-1.51
-1.51
-1.50
-1.50
-1.50
-1.49
-1.49
-1.48
-1.48
-1.48
-1.47
-1.47
-1.46
-1.46
-1.45
-1.45
-1.45
-1.44
-1.44
-1.43
-1.43
-1.43
-1.42
-1.42
-1.41
-1.41
-1.41
-1.40
-1.40
-1.39
-1.39
-1.39
-1.38
-1.38
-1.37
-1.37
-1.37
-1.36
-1.36
-1.36
-1.35
-1.35
-1.34
-1.34
-1.34
-1.33
-1.33
-1.33
-1.32
-1.32
-1.31
-1.31
-1.31
-1.30
-1.30
-1.30
-1.29
-1.29
-1.29
-1.28
-1.28
-1.28
-1.27
-1.27
-1.26
-1.26
-1.26
-1.25
-1.25
-1.25
-1.24
-1.24
-1.24
-1.23
-1.23
-1.23
-1.22
-1.22
-1.22
-1.21
-1.21
-1.21
-1.20
-1.20
-1.20
-1.19
-1.19
-1.19
-1.18
-1.18
-1.18
-1.17
-1.17
-1.17
-1.16
-1.16
-1.16
-1.15
-1.15
-1.15
-1.14
-1.14
-1.14
-1.13
-1.13
-1.13
-1.13
-1.13
-1.12
-1.10
-1.09
-1.09
-1.11
-1.15
-1.19
-1.19
-1.11
-0.93
-0.66
-0.38
-0.17
-0.10
-0.22
-0.50
-0.84
-1.12
-1.25
-1.21
-1.04
-0.84
-0.73
-0.75
-0.89
-1.02
-0.98
-0.65
-0.04
0.73
1.39
1.69
1.51
0.99
0.46
0.37
1.02
2.42
4.19
5.67
6.24
5.61
4.05
2.39
1.63
2.56
5.24
8.98
12.50
14.48
14.25
12.13
9.40
7.78
8.64
12.28
17.76
23.27
26.88
27.48
25.22
21.40
18.06
17.29
20.72
29.10
41.60
55.24
64.68
63.47
46.53
13.24
-30.65
-73.81
-102.89
-107.45
-83.85
-36.24
25.63
90.29
148.06
192.70
221.29
233.24
229.41
211.98
184.45
151.29
116.98
85.03
57.13
33.40
13.02
-4.91
-20.68
-33.87
-43.51
-48.47
-47.73
-40.77
-27.81
-10.09
10.08
29.40
43.99
50.07
44.70
26.26
-5.59
-50.05
-105.23
-167.65
-231.63
-289.20
-331.14
-349.17
-338.67
-300.47
-241.00
-170.51
-100.24
-39.88
4.14
29.19
36.14
28.92
13.77
-1.75
-10.48
-7.63
7.53
31.26
56.75
76.68
86.35
85.85
80.45
78.84
89.65
117.71
161.34
212.43
259.01
289.57
296.96
280.14
242.96
191.17
129.66
61.64
-9.98
-80.60
-143.28
-190.63
-218.46
-228.44
-227.86
-226.19
-230.42
-241.98
-256.93
-268.96
-272.85
-266.64
-251.31
-229.23
-202.76
-173.99
-145.34
-119.84
-100.45
-88.44
-82.31
-77.68
-68.71
-50.27
-19.86
21.72
70.80
122.30
171.46
215.21
252.41
283.06
306.81
321.63
323.78
309.26
276.32
227.78
171.40
117.99
77.63
55.70
50.86
55.87
61.05
58.61
45.77
25.08
2.09
-18.31
-34.74
-49.75
-67.95
-93.21
-126.63
-166.31
-208.69
-250.16
-287.93
-320.11
-345.22
-362.21
-370.81
-371.93
-367.18
-357.80
-343.44
-322.05
-291.12
-249.89
-200.82
-149.44
-102.27
-64.11
-36.14
-15.87
1.16
18.99
39.57
62.37
85.40
106.64
125.09
140.86
154.58
166.60
176.55
183.56
186.89
186.45
182.90
177.34
170.79
163.85
156.65
149.20
141.60
134.30
127.81
122.39
117.72
112.95
107.03
99.17
89.26
77.86
65.94
54.40
43.66
33.63
23.86
13.71
2.67
-9.56
-22.76
-35.98
-47.35
-54.58
-55.71
-50.23
-39.61
-26.90
-15.40
-7.07
-1.61
3.11
9.65
19.24
30.84
41.53
47.92
47.83
41.37
30.95
20.41
13.70
13.72
21.67
36.89
57.21
79.61
101.00
118.81
131.58
139.02
141.62
139.89
133.53
120.87
98.98
64.89
17.32
-41.56
-105.48
-165.23
-211.30
-237.08
-241.02
-226.74
-201.21
-171.88
-144.40
-121.70
-104.42
-91.94
-83.18
-76.69
-70.51
-62.23
-49.73
-32.22
-10.87
11.39
31.12
45.75
54.57
58.83
60.92
63.16
66.80
71.60
76.07
78.35
77.14
72.44
65.66
59.21
55.53
56.08
60.62
66.97
71.19
68.43
54.00
24.87
-18.81
-72.74
-128.77
-176.82
-207.99
-217.48
-206.08
-179.34
-144.95
-109.66
-77.29
-48.66
-23.05
0.11
20.17
35.65
45.28
49.05
48.46
45.84
43.27
41.78
41.20
40.63
39.30
37.21
35.26
34.88
37.25
42.72
50.59
59.42
67.53
73.62
77.05
77.92
76.84
74.70
72.46
70.89
70.47
71.20
72.67
74.23
75.21
75.29
74.61
73.75
73.42
74.13
75.81
77.82
79.04
78.22
74.22
66.29
54.32
39.08
22.36
6.74
-4.96
-10.65
-9.66
-3.08
6.60
16.25
23.07
25.28
22.45
15.51
6.42
-2.53
-9.59
-14.50
-18.63
-24.15
-32.66
-43.86
-55.43
-64.20
-68.01
-66.96
-63.29
-59.88
-58.47
-58.64
-58.08
-53.89
-43.86
-27.07
-3.75
25.09
57.60
90.68
119.70
138.79
142.06
125.26
87.57
32.52
-32.21
-96.37
-149.58
-184.02
-196.57
-189.60
-170.09
-147.20
-129.33
-122.05
-127.59
-145.83
-175.74
-216.04
-264.53
-316.76
-365.43
-401.49
-416.80
-407.16
-373.80
-322.63
-261.41
-196.60
-131.82
-68.36
-7.06
49.94
99.00
136.25
159.45
169.16
168.56
162.00
153.35
144.90
137.35
130.58
124.48
119.39
115.88
114.24
114.10
114.55
114.61
113.79
112.28
110.90
110.49
111.45
113.53
116.00
117.86
118.33
116.95
113.77
109.36
104.81
101.54
100.65
102.17
104.49
104.65
99.49
87.28
68.78
47.17
26.67
10.69
0.49
-4.90
-7.49
-8.85
-9.19
-7.48
-2.49
6.20
17.72
30.28
41.98
51.53
58.66
64.09
69.42
76.53
87.11
102.15
121.64
144.58
169.36
194.44
218.67
241.62
263.36
284.18
304.24
323.45
341.34
356.90
369.48
377.97
381.26
378.44
369.02
353.15
331.59
305.62
276.58
246.49
216.95
189.25
164.19
141.98
122.29
104.39
87.43
70.03
52.72
35.75
19.85
5.68
-6.51
-17.21
-27.60
-39.20
-55.06
-73.45
-93.70
-114.31
-133.74
-151.12
-166.81
-182.28
-199.55
-223.96
-251.54
-281.11
-310.56
-337.90
-362.23
-384.16
-405.50
-428.32
-460.34
-495.66
-534.53
-576.36
-619.47
-660.29
-693.18
-711.15
-707.86
-687.74
-642.86
-578.35
-501.70
-420.16
-338.57
-258.80
-181.11
-56.56
48.04
137.10
204.50
245.91
260.30
250.50
222.33
182.63
137.30
82.56
30.14
-17.20
-56.42
-85.00
-102.77
-113.28
-123.89
-143.33
-183.59
-236.88
-293.63
-338.45
-356.80
-342.28
-300.62
-248.91
-209.04
-202.50
-231.14
-287.34
-353.75
-411.01
-445.22
-450.87
-431.18
-394.17
-350.27
-303.37
-256.06
-209.10
-163.40
-121.17
-83.31
-49.69
-19.04
9.90
39.82
72.09
106.85
142.67
177.10
210.61
244.84
281.19
319.55
358.69
397.41
435.04
471.19
505.46
541.61
584.44
637.48
700.85
771.11
842.15
906.10
954.47
958.32
898.51
777.28
621.28
465.99
336.46
240.55
173.84
127.73
94.44
73.04
64.77
69.01
80.58
92.53
99.58
100.05
95.43
88.32
84.10
86.79
96.63
109.92
121.27
126.20
122.53
113.41
101.17
89.46
80.82
75.24
70.40
63.26
51.83
36.32
18.01
-1.73
-20.51
-36.38
-49.26
-60.03
-69.56
-77.86
-83.49
-85.78
-84.98
-81.26
-75.33
-70.76
-70.92
-77.31
-88.98
-101.69
-113.93
-125.36
-135.51
-144.24
-156.01
-173.68
-196.39
-219.49
-233.25
-235.39
-227.17
-210.78
-190.06
-176.26
-178.16
-198.03
-231.05
-263.21
-291.07
-315.48
-337.92
-361.68
-398.95
-458.90
-542.01
-639.55
-731.03
-810.51
-878.64
-937.79
-925.05
-805.05
-587.28
-321.62
-116.37
23.50
112.60
162.84
199.15
228.77
244.61
238.09
209.17
168.02
137.28
124.18
127.54
142.89
162.03
170.46
153.07
103.64
27.47
-55.77
-133.58
-196.64
-237.43
-253.81
-226.58
-154.67
-55.17
45.48
131.39
195.14
238.85
268.68
288.25
297.25
290.97
268.48
234.88
200.80
172.72
152.52
139.21
129.56
120.84
108.94
93.02
75.65
62.67
57.52
60.28
68.86
79.55
89.75
95.92
96.40
91.71
83.72
74.06
63.34
51.94
40.08
29.55
21.85
19.38
24.91
41.21
70.55
110.76
160.04
209.51
250.77
276.69
284.51
276.06
255.93
228.98
198.76
167.86
137.57
109.47
84.60
63.94
47.72
35.26
25.36
16.58
8.05
-0.90
-9.87
-18.53
-25.95
-31.75
-36.20
-40.07
-44.31
-49.55
-56.33
-62.54
-69.27
-76.41
-83.83
-91.63
-100.05
-109.36
-119.57
-130.61
-142.06
-153.85
-164.93
-174.71
-183.00
-189.90
-195.73
-200.81
-205.53
-210.24
-215.55
-220.96
-226.18
-230.95
-235.01
-237.94
-239.09
-237.39
-231.09
-223.11
-214.01
-204.07
-193.51
-182.49
-171.11
-159.44
-147.56
-135.56
-123.76
-111.69
-99.16
-86.11
-72.58
-58.63
-44.41
-30.14
-16.15
-2.95
9.50
21.08
31.62
41.04
49.36
56.69
63.25
69.25
74.79
80.21
85.63
91.04
96.36
101.59
106.77
111.98
117.24
122.33
127.01
130.85
133.43
134.54
134.25
132.96
131.19
129.37
127.69
126.20
124.90
124.02
124.26
126.73
132.59
142.60
156.71
174.04
193.43
214.22
236.77
262.05
290.68
321.57
351.64
376.70
393.19
399.62
396.75
386.36
369.61
346.41
316.44
281.18
245.02
214.28
194.27
186.15
186.06
187.12
183.44
173.35
160.03
149.04
144.67
147.35
153.72
159.07
160.37
157.90
154.71
154.42
158.96
167.54
177.10
183.83
184.64
178.08
164.35
144.90
121.67
96.51
70.76
45.04
19.29
-7.02
-34.55
-63.75
-94.92
-128.55
-165.28
-205.46
-247.75
-288.02
-319.56
-335.04
-329.55
-303.20
-261.39
-212.57
-164.57
-121.69
-84.07
-49.55
-16.50
14.25
39.71
56.63
63.75
62.87
58.16
54.27
54.45
59.42
67.28
74.51
77.21
72.20
57.60
33.10
-0.21
-40.15
-83.75
-127.61
-168.29
-202.91
-229.55
-247.59
-257.39
-259.72
-255.41
-245.42
-231.12
-214.31
-197.02
-180.94
-166.98
-154.96
-143.75
-132.28
-120.33
-108.71
-98.23
-88.83
-79.18
-67.59
-53.09
-36.18
-19.33
-6.49
-1.49
-5.66
-17.08
-31.15
-43.00
-49.30
-48.68
-41.79
-30.50
-17.14
-3.27
9.85
20.65
26.12
21.11
3.12
-25.16
-57.56
-88.96
-116.21
-139.56
-155.80
-159.79
-147.04
-116.23
-71.13
-18.60
28.78
59.02
65.20
47.92
13.49
-28.72
-69.26
-101.03
-120.12
-125.54
-117.32
-96.43
-65.02
-27.43
10.42
42.48
64.47
74.86
75.08
69.49
63.60
62.18
67.43
78.69
93.21
107.22
116.96
119.49
113.73
100.56
82.49
62.75
44.38
29.79
20.55
17.35
20.07
27.90
39.13
51.21
61.10
65.96
63.89
54.23
37.41
14.57
-12.53
-41.39
-68.60
-90.37
-103.68
-107.72
-104.51
-98.12
-92.64
-90.18
-90.10
-89.98
-87.59
-82.31
-75.14
-67.25
-58.44
-46.71
-29.53
-5.85
22.48
51.07
74.87
90.49
97.45
97.74
94.20
88.80
81.79
72.05
58.27
40.08
18.73
-3.14
-22.11
-35.08
-40.33
-38.23
-31.23
-22.94
-16.76
-14.46
-15.59
-18.07
-19.52
-18.63
-15.71
-12.09
-8.87
-6.09
-2.56
3.04
10.99
19.72
26.10
26.81
19.91
6.04
-11.42
-27.53
-37.51
-38.47
-30.35
-15.71
1.52
17.50
29.70
37.22
40.52
40.67
38.75
35.53
31.53
27.14
22.78
18.88
15.88
14.18
14.08
15.66
18.76
22.85
27.16
30.83
33.14
33.61
32.07
28.53
23.08
15.89
7.34
-1.73
-9.88
-15.32
-16.50
-12.82
-5.11
4.51
13.35
19.04
20.18
16.44
8.10
-4.41
-20.75
-40.36
-62.12
-84.11
-103.98
-119.59
-129.58
-133.49
-131.51
-124.12
-111.89
-95.70
-76.90
-57.31
-38.88
-23.10
-10.61
-1.21
5.85
11.38
15.97
20.05
24.04
28.45
33.72
39.89
46.42
52.23
56.07
57.09
55.23
51.23
46.37
41.96
38.95
37.72
38.04
39.14
39.85
38.68
34.11
25.16
12.03
-3.50
-18.24
-28.62
-32.10
-28.30
-19.21
-8.30
1.01
6.73
8.64
7.72
5.00
0.80
-5.42
-14.46
-26.67
-41.59
-58.06
-74.59
-89.49
-100.84
-106.48
-104.27
-92.93
-72.70
-45.65
-15.30
14.42
40.23
60.33
74.36
83.13
87.99
90.60
92.73
95.96
101.22
108.16
114.78
117.51
112.63
97.92
74.52
47.26
23.20
8.99
8.32
20.55
41.13
64.03
83.97
98.67
109.10
117.75
126.71
136.84
147.66
157.60
165.36
169.53
169.35
164.67
155.32
141.27
124.25
108.19
97.42
95.69
102.55
113.78
122.76
122.15
106.28
74.22
29.95
-20.95
-72.22
-120.58
-164.58
-198.31
-214.10
-208.52
-185.06
-151.83
-124.37
-106.50
-99.27
-102.43
-115.54
-135.06
-160.51
-191.87
-220.14
-238.02
-240.89
-230.41
-211.28
-187.92
-163.82
-142.08
-124.37
-110.72
-101.19
-94.31
-89.15
-84.56
-79.49
-73.86
-68.89
-65.75
-65.08
-68.05
-74.75
-84.41
-93.98
-98.34
-92.18
-72.71
-41.00
-2.10
36.00
66.17
84.51
91.60
91.18
87.50
82.95
77.94
72.04
65.11
58.46
54.20
54.06
58.11
64.80
71.26
75.11
75.57
73.73
71.95
72.61
77.14
85.55
96.51
107.78
116.66
120.34
116.64
104.83
86.38
64.81
44.48
28.75
18.62
12.68
8.29
3.33
-2.63
-8.39
-12.19
-13.17
-11.92
-10.09
-9.24
-9.83
-10.96
-10.77
-7.29
1.03
14.42
31.33
48.52
61.49
65.81
58.56
39.70
12.29
-17.17
-40.60
-50.84
-43.98
-20.46
15.36
57.06
98.36
134.75
163.82
184.38
195.41
195.79
184.96
164.18
137.22
109.84
87.87
75.10
71.71
74.67
79.59
83.11
84.55
85.82
90.02
99.68
115.63
136.99
161.78
187.70
212.41
233.51
248.56
255.36
252.53
239.87
218.21
189.08
154.34
116.09
76.89
39.59
6.91
-19.59
-40.30
-57.65
-75.40
-97.34
-126.13
-162.50
-204.63
-247.70
-283.97
-304.16
-300.50
-270.34
-218.58
-157.23
-101.63
-64.78
-52.49
-61.90
-83.86
-107.94
-127.08
-139.54
-147.68
-154.96
-163.31
-172.71
-182.83
-195.05
-213.09
-241.27
-281.04
-328.03
-371.50
-397.23
-392.67
-351.91
-278.42
-184.16
-85.91
-0.67
58.38
84.46
78.42
48.28
7.19
-30.31
-52.99
-57.08
-47.56
-35.97
-35.23
-54.08
-93.68
-147.75
-205.73
-256.90
-293.69
-312.79
-314.26
-300.14
-273.13
-236.12
-192.24
-144.74
-96.56
-49.63
-4.40
39.95
84.43
128.79
170.42
204.47
225.37
229.09
215.24
187.81
153.93
121.21
95.10
77.40
66.84
60.74
56.91
54.33
52.84
52.19
51.58
50.00
47.05
43.51
41.34
42.60
48.01
55.96
62.60
63.13
54.29
36.74
16.23
2.25
4.55
28.57
72.02
124.78
172.29
201.17
203.97
181.22
140.12
91.62
46.84
14.51
-0.55
1.15
13.61
26.08
26.08
4.25
-41.04
-102.09
-164.41
-212.81
-237.44
-236.49
-214.85
-180.36
-140.53
-101.52
-68.74
-47.15
-39.91
-46.08
-58.91
-66.87
-57.73
-23.53
35.83
112.78
195.47
272.51
336.15
383.48
415.27
434.25
443.85
446.95
445.49
440.20
430.75
416.43
396.87
372.34
343.86
312.84
280.70
248.75
218.24
190.31
165.84
145.01
126.89
109.41
89.78
65.46
35.24
-0.23
-38.69
-77.26
-113.71
-147.41
-179.41
-211.98
-247.64
-288.53
-335.87
-389.46
-447.03
-503.76
-552.58
-585.42
-595.79
-581.03
-543.44
-489.45
-426.99
-362.40
-298.42
-234.46
-168.86
-101.91
-37.34
18.37
58.72
80.31
84.44
76.28
62.23
47.24
33.11
18.90
2.45
-18.20
-44.55
-78.24
-121.27
-174.95
-237.68
-303.12
-360.15
-395.48
-397.88
-362.23
-292.04
-199.01
-100.09
-13.41
45.83
68.52
53.36
7.04
-57.24
-122.76
-173.15
-196.63
-189.08
-155.03
-105.76
-55.36
-15.92
6.25
11.88
7.11
0.03
-2.78
1.76
13.55
30.82
51.77
75.54
101.95
130.87
161.40
191.78
220.10
245.19
267.25
287.50
306.94
324.61
336.65
337.02
320.06
283.55
230.53
168.29
105.18
46.80
-5.89
-55.25
-103.44
-149.24
-187.33
-210.81
-214.94
-199.72
-169.36
-129.51
-84.45
-36.07
14.61
64.82
108.81
139.11
149.76
139.52
112.93
78.77
47.00
25.86
20.21
31.03
55.60
87.90
119.74
142.68
150.84
143.31
124.87
104.05
89.18
85.03
91.40
104.79
121.44
139.72
160.16
183.26
207.13
226.72
235.37
227.78
202.58
162.92
115.16
66.41
22.29
-13.89
-40.92
-58.77
-67.88
-69.03
-63.53
-53.26
-40.55
-27.83
-17.13
-9.65
-5.65
-4.64
-5.61
-7.41
-9.38
-11.35
-13.71
-17.14
-22.24
-29.30
-38.21
-48.51
-59.58
-70.89
-82.28
-94.06
-106.90
-121.48
-138.06
-156.03
-173.79
-188.94
-198.84
-201.24
-194.92
-179.98
-157.91
-131.16
-102.63
-75.03
-50.39
-29.82
-13.45
-0.67
9.59
18.54
27.21
36.23
45.59
54.62
62.23
67.37
69.55
69.23
67.75
66.94
68.36
72.61
79.12
86.44
92.98
97.82
101.22
104.42
109.06
116.30
126.24
137.98
150.13
161.52
171.70
180.79
189.10
196.51
202.25
205.16
204.24
199.05
189.87
177.27
161.65
142.89
120.43
93.90
63.54
30.47
-3.69
-37.23
-68.81
-97.47
-122.26
-142.07
-155.56
-161.67
-160.25
-152.40
-140.26
-126.23
-112.00
-97.98
-83.45
-67.24
-48.61
-27.83
-6.07
15.08
34.15
50.28
63.27
73.35
80.95
86.46
90.16
92.26
92.85
91.92
89.38
85.17
79.36
72.31
64.46
56.26
48.00
39.94
32.38
25.86
20.87
17.45
14.92
11.96
7.13
-0.20
-9.28
-18.16
-24.54
-26.93
-25.46
-21.69
-17.71
-14.93
-13.44
-12.25
-10.25
-7.21
-4.48
-4.73
-11.03
-26.13
-51.85
-88.96
-136.96
-193.40
-253.19
-308.54
-350.23
-370.17
-364.26
-333.92
-285.61
-228.35
-170.59
-118.19
-74.20
-40.08
-16.94
-5.83
-6.64
-16.85
-31.31
-43.55
-48.12
-42.49
-27.60
-6.84
15.56
35.92
51.66
61.16
63.80
60.07
51.88
42.25
34.38
30.29
30.16
32.63
35.95
39.25
42.79
47.29
52.72
57.60
59.51
56.41
47.82
35.20
21.01
7.34
-5.05
-16.80
-29.04
-42.31
-55.97
-68.33
-77.45
-81.96
-81.65
-77.45
-70.94
-63.62
-56.32
-48.94
-40.68
-30.56
-17.81
-2.21
15.99
36.20
57.63
79.38
100.37
119.38
135.14
146.62
153.23
155.06
152.91
148.09
142.18
136.53
131.86
127.94
123.71
117.87
109.62
99.10
87.42
76.09
66.46
59.27
54.77
52.82
53.12
55.06
57.64
59.47
59.16
55.86
49.66
41.55
32.87
24.66
17.29
10.56
4.19
-1.81
-7.01
-10.87
-13.09
-13.82
-13.60
-13.13
-12.92
-13.29
-14.44
-16.66
-20.32
-25.67
-32.57
-40.29
-47.64
-53.34
-56.53
-57.07
-55.46
-52.58
-49.26
-46.04
-43.06
-40.24
-37.51
-34.90
-32.65
-31.10
-30.63
-31.49
-33.85
-37.74
-43.00
-49.27
-55.95
-62.26
-67.35
-70.56
-71.63
-70.80
-68.74
-66.27
-64.13
-62.72
-62.18
-62.51
-63.83
-66.50
-70.96
-77.41
-85.54
-94.49
-103.04
-110.10
-115.08
-118.00
-119.16
-118.73
-116.51
-112.10
-105.28
-96.42
-86.56
-77.00
-68.65
-61.59
-54.96
-47.35
-37.46
-24.57
-8.80
9.00
27.61
45.67
62.04
76.02
87.48
96.94
105.72
115.89
129.82
149.45
175.04
204.11
231.27
249.37
251.44
232.87
193.09
136.19
70.37
6.30
-45.40
-76.73
-84.62
-71.64
-45.14
-14.51
11.99
29.75
38.39
40.47
39.23
36.87
34.27
31.70
29.78
29.64
32.23
37.39
43.52
48.15
48.95
44.90
36.65
26.17
15.81
7.34
1.41
-2.39
-5.15
-8.00
-11.60
-15.96
-20.57
-24.67
-27.57
-28.87
-28.39
-26.04
-21.74
-15.36
-6.97
2.91
13.25
22.69
29.98
34.46
36.32
36.61
36.78
38.25
41.92
47.95
55.67
63.73
70.33
73.68
72.32
65.55
53.51
37.16
18.03
-2.04
-21.11
-37.41
-49.56
-56.93
-59.73
-59.06
-56.52
-53.74
-51.81
-51.02
-50.88
-50.46
-48.91
-45.87
-41.57
-36.75
-32.35
-29.05
-27.04
-25.95
-24.97
-23.24
-20.27
-16.16
-11.58
-7.46
-4.52
-2.83
-1.64
0.28
4.03
9.88
16.86
22.96
25.79
23.67
16.22
4.62
-8.71
-20.82
-28.70
-29.42
-20.15
1.18
34.52
76.68
121.55
162.28
194.17
216.55
232.24
244.76
254.99
259.74
253.34
231.22
193.22
144.18
91.69
42.29
-1.31
-40.40
-78.21
-117.50
-159.41
-203.83
-250.38
-298.45
-346.60
-391.69
-428.81
-452.69
-459.64
-449.28
-424.80
-391.84
-356.65
-324.65
-299.92
-285.19
-281.95
-289.92
-306.51
-326.76
-344.41
-353.80
-351.58
-337.49
-313.60
-282.84
-247.63
-209.30
-168.43
-125.48
-81.42
-37.98
2.66
38.62
69.00
94.17
115.45
134.24
151.02
164.83
173.53
174.85
167.79
153.42
134.89
116.55
102.65
96.29
98.82
109.83
127.45
148.82
170.82
190.65
206.40
216.94
221.61
219.81
211.06
195.52
174.42
150.15
125.41
102.17
80.70
59.80
38.03
15.25
-6.50
-23.67
-32.93
-33.24
-26.77
-18.22
-12.78
-13.86
-21.67
-33.26
-43.89
-48.79
-44.73
-30.68
-7.78
21.32
53.20
84.54
112.59
135.50
152.29
162.58
166.37
163.94
155.94
143.49
128.07
111.41
95.11
80.46
68.32
59.15
53.00
49.63
48.62
49.34
50.93
52.27
52.17
49.84
45.38
40.06
35.75
33.77
33.50
31.97
24.84
8.51
-17.48
-49.35
-79.95
-101.18
-106.84
-94.41
-65.18
-22.97
27.44
81.28
133.87
180.29
215.37
234.38
234.31
215.04
179.74
134.15
85.02
38.18
-2.88
-37.27
-65.69
-89.14
-107.77
-120.73
-126.85
-125.47
-117.03
-102.73
-83.98
-61.86
-37.50
-13.00
8.02
20.88
21.83
10.05
-11.24
-35.76
-56.58
-69.18
-73.08
-71.20
-67.40
-63.35
-57.63
-46.54
-26.41
4.86
46.55
95.11
145.16
190.73
227.05
250.12
257.01
245.76
217.56
176.50
128.57
80.08
36.43
2.46
-19.27
-28.56
-28.14
-20.67
-8.87
4.56
17.15
27.60
37.71
50.07
66.16
83.72
99.69
110.22
112.10
103.78
78.10
35.82
-14.40
-51.15
-66.94
-61.95
-42.43
-14.49
15.80
43.60
67.32
86.69
101.47
109.37
109.30
101.03
85.48
64.40
40.52
17.71
-1.61
-17.80
-34.79
-56.24
-84.43
-119.30
-158.70
-198.83
-234.66
-261.97
-278.38
-284.13
-280.17
-268.03
-249.62
-227.34
-203.66
-180.40
-158.91
-140.07
-124.55
-112.12
-101.95
-92.76
-83.24
-72.16
-58.51
-41.67
-21.57
1.50
27.25
55.21
84.41
112.98
138.28
157.49
168.39
170.19
163.67
150.76
133.82
114.99
95.78
77.07
59.14
41.88
25.00
8.42
-7.37
-21.14
-31.31
-36.69
-37.14
-33.95
-29.28
-25.37
-23.72
-24.81
-28.40
-33.93
-40.99
-49.28
-58.40
-67.71
-76.43
-83.88
-89.81
-94.53
-98.75
-103.36
-109.00
-115.82
-123.30
-130.26
-135.05
-136.13
-132.66
-124.96
-114.47
-103.30
-93.32
-85.51
-79.73
-74.96
-69.76
-62.55
-51.53
-34.93
-11.66
17.46
48.82
76.53
94.64
100.10
94.73
84.78
77.98
79.56
89.46
102.54
111.36
109.86
95.86
71.35
41.13
10.98
-13.48
-27.37
-27.08
-11.20
18.42
56.49
95.28
126.94
145.99
150.86
144.16
131.53
119.76
114.87
120.43
136.56
159.87
184.31
203.05
210.49
203.57
182.03
147.61
103.09
51.82
-2.02
-53.29
-96.28
-125.90
-139.21
-136.42
-120.68
-96.90
-70.25
-44.83
-22.65
-3.17
16.54
40.25
70.28
105.19
138.74
161.31
163.47
140.51
95.38
38.36
-16.90
-58.51
-80.25
-82.51
-70.09
-48.81
-23.12
4.42
32.06
57.34
76.54
85.50
81.67
66.28
45.24
27.64
22.20
33.20
57.92
87.08
108.32
111.09
90.80
49.88
-4.46
-63.91
-122.18
-175.77
-222.72
-260.89
-287.63
-301.00
-301.51
-292.49
-278.41
-262.33
-244.02
-220.23
-186.94
-142.27
-87.95
-28.78
29.51
82.45
127.87
165.49
195.73
218.86
235.01
244.88
250.30
254.14
259.27
267.35
278.08
289.45
298.69
303.60
303.30
298.19
289.27
277.20
261.87
242.46
218.07
188.44
154.36
117.57
80.37
45.05
13.36
-13.86
-36.99
-57.65
-78.59
-102.91
-132.92
-168.73
-207.40
-243.24
-269.29
-279.64
-271.81
-248.19
-215.70
-183.89
-161.92
-155.68
-166.14
-189.40
-218.55
-246.20
-266.82
-277.94
-280.17
-276.19
-269.46
-263.03
-258.66
-256.46
-254.82
-250.95
-241.94
-226.07
-203.79
-177.93
-152.62
-131.61
-116.77
-107.62
-102.20
-98.42
-95.19
-92.48
-90.59
-89.07
-86.41
-80.60
-70.23
-55.39
-37.76
-19.65
-2.85
12.18
26.21
40.49
55.82
72.07
88.13
102.31
112.82
118.13
117.40
110.66
98.97
84.26
68.80
54.56
42.52
32.58
23.82
15.22
6.20
-3.15
-12.29
-20.54
-27.52
-33.30
-38.38
-43.44
-48.84
-54.28
-58.77
-61.05
-60.23
-56.55
-51.43
-47.01
-45.05
-46.18
-49.55
-53.39
-55.78
-55.45
-51.97
-45.47
-36.23
-24.50
-10.69
4.31
19.01
31.56
40.33
44.52
44.52
41.69
37.83
34.50
32.63
32.37
33.33
35.03
37.31
40.39
44.73
50.63
57.97
66.23
74.69
82.76
90.25
97.33
104.28
111.10
117.44
122.62
126.03
127.36
126.72
124.30
120.02
113.30
103.36
89.81
73.07
54.42
35.56
17.99
2.49
-10.77
-21.84
-30.60
-36.65
-39.58
-39.31
-36.16
-30.50
-22.28
-10.95
4.21
23.24
44.83
66.34
84.61
97.04
102.62
102.12
97.56
91.38
85.55
81.25
78.78
77.92
78.19
78.98
79.66
79.62
78.44
75.99
72.47
68.24
63.70
59.12
54.65
50.21
45.64
40.50
34.22
26.29
16.75
6.51
-2.53
-8.07
-8.21
-2.51
7.71
19.73
30.61
38.48
43.27
46.58
50.87
58.32
70.00
85.66
104.13
123.77
142.85
159.74
172.92
180.97
182.76
177.58
165.23
146.10
121.19
92.05
60.63
29.14
-0.50
-27.13
-50.70
-72.39
-94.30
-118.78
-147.26
-179.20
-211.52
-239.05
-256.08
-258.43
-245.16
-219.15
-186.10
-152.40
-122.90
-99.63
-82.01
-67.99
-55.69
-44.33
-34.32
-26.68
-22.27
-21.41
-23.88
-29.10
-36.42
-45.17
-54.85
-64.85
-74.43
-82.70
-88.83
-92.24
-92.95
-91.68
-89.79
-88.93
-90.52
-95.18
-102.40
-110.54
-117.37
-121.01
-120.87
-118.15
-115.53
-116.10
-122.05
-133.64
-149.12
-165.43
-179.47
-189.17
-193.81
-193.85
-190.34
-184.32
-176.61
-167.59
-157.25
-145.15
-130.45
-112.24
-89.90
-63.58
-34.34
-4.12
24.77
50.00
69.59
82.14
87.08
84.91
77.33
67.20
57.91
52.54
52.82
58.52
67.48
76.30
81.56
80.99
74.42
63.92
53.50
47.82
50.64
63.21
83.47
106.61
127.14
141.63
150.86
160.00
176.63
206.85
251.69
305.63
357.78
395.54
408.95
393.90
353.48
297.46
239.93
195.88
177.04
188.05
224.65
274.78
322.71
354.63
363.15
348.71
317.41
276.92
232.91
187.89
142.44
97.49
55.43
19.41
-8.63
-29.61
-47.38
-67.27
-93.83
-129.27
-173.06
-222.39
-273.05
-320.15
-358.55
-383.48
-391.52
-381.54
-355.35
-317.34
-273.22
-228.47
-187.13
-151.38
-122.05
-99.31
-83.08
-73.02
-68.21
-67.08
-67.74
-68.62
-68.96
-68.98
-69.47
-71.16
-74.01
-77.14
-78.98
-77.98
-73.16
-64.51
-52.92
-39.93
-27.22
-16.31
-8.35
-3.96
-3.35
-6.30
-12.30
-20.70
-30.85
-42.03
-53.50
-64.43
-73.91
-81.15
-85.65
-87.47
-87.23
-85.97
-84.84
-84.67
-85.74
-87.67
-89.72
-91.09
-91.34
-90.61
-89.56
-89.18
-90.38
-93.72
-99.14
-105.95
-112.83
-118.04
-119.79
-116.86
-109.18
-98.08
-86.02
-75.82
-69.64
-68.20
-70.58
-74.64
-77.67
-77.02
-70.81
-58.20
-39.84
-17.96
3.82
21.19
30.02
27.39
12.32
-13.84
-47.50
-83.21
-114.59
-135.66
-142.39
-133.80
-112.18
-81.96
-47.93
-13.50
19.72
51.18
79.99
104.16
120.99
128.30
125.66
114.81
99.03
81.74
65.54
51.84
41.24
34.09
30.95
32.44
38.73
48.90
60.62
70.46
74.93
71.68
60.63
44.40
27.69
15.98
14.03
24.68
48.37
83.24
125.56
170.49
212.85
247.80
271.58
281.91
278.07
260.75
231.56
192.56
145.72
92.82
35.89
-22.06
-76.19
-120.05
-146.95
-152.31
-135.84
-102.44
-60.93
-21.14
9.44
27.71
34.98
35.22
32.75
30.54
29.95
31.39
35.43
43.32
56.86
77.73
106.79
143.65
186.70
233.50
281.18
326.55
366.19
396.57
414.39
417.20
403.98
375.49
334.29
284.11
229.16
173.32
119.50
69.37
23.13
-20.39
-63.41
-108.22
-155.84
-204.66
-250.01
-285.32
-304.35
-304.08
-286.22
-256.72
-223.61
-194.14
-172.85
-161.00
-157.33
-158.91
-161.72
-160.97
-151.65
-129.91
-94.89
-49.87
-1.82
40.55
69.68
81.11
74.26
51.58
17.23
-23.79
-65.94
-103.29
-130.11
-142.26
-138.77
-122.79
-101.09
-82.01
-72.66
-76.73
-93.83
-120.50
-152.15
-184.65
-214.88
-240.28
-258.20
-265.74
-260.61
-242.25
-212.51
-175.22
-134.79
-94.39
-55.14
-16.53
22.08
59.85
93.89
120.09
134.96
137.43
129.44
115.26
99.73
86.53
77.25
71.56
68.21
66.05
64.50
63.47
62.88
62.32
61.10
58.54
54.37
48.80
42.44
35.95
29.70
23.67
17.60
11.39
5.39
0.52
-1.96
-0.91
4.12
12.68
23.45
34.66
44.60
52.08
56.55
58.04
56.98
53.95
49.62
44.63
39.56
34.89
30.83
27.41
24.48
21.88
19.54
17.55
16.05
15.12
14.65
14.37
13.87
12.82
11.10
8.73
5.87
2.57
-1.27
-5.87
-11.27
-17.19
-22.79
-26.76
-27.60
-24.17
-16.10
-4.05
10.43
25.41
39.21
50.84
60.32
68.43
76.45
85.85
98.06
114.01
133.68
155.52
176.37
192.03
198.58
193.78
178.05
154.24
126.46
98.29
71.38
44.81
15.82
-18.63
-59.87
-106.23
-152.82
-192.78
-219.35
-228.04
-217.80
-190.94
-151.91
-105.80
-57.41
-11.04
29.24
59.63
77.26
81.44
74.63
62.19
50.99
47.11
53.94
71.42
96.49
124.58
151.33
173.59
189.82
199.77
204.06
203.74
199.98
193.95
186.53
178.12
168.69
157.84
145.22
130.80
115.23
100.05
87.76
81.38
83.05
92.61
106.39
117.59
118.26
102.54
69.23
22.56
-29.83
-80.45
-125.27
-165.13
-204.54
-248.71
-300.31
-357.33
-413.27
-459.04
-485.87
-488.03
-464.34
-418.29
-356.78
-288.23
-220.64
-160.26
-110.87
-73.84
-48.57
-33.10
-24.68
-20.31
-17.23
-13.23
-6.83
2.75
15.58
30.98
47.52
63.12
75.50
82.69
83.66
78.71
69.59
59.20
50.81
47.10
49.35
56.95
67.69
78.55
86.92
91.36
91.87
89.57
85.87
81.94
78.30
75.06
72.30
70.30
69.59
70.54
72.93
75.57
76.32
72.60
62.25
44.41
20.21
-7.21
-33.51
-54.34
-66.30
-67.74
-58.73
-40.80
-16.70
10.09
36.01
58.36
76.01
89.26
98.74
103.85
101.98
89.15
62.33
21.82
-27.87
-79.18
-124.25
-157.28
-175.35
-178.04
-166.79
-144.64
-116.70
-89.74
-70.55
-63.51
-68.76
-82.24
-97.68
-109.48
-114.24
-111.05
-100.32
-82.52
-58.05
-28.06
4.70
36.14
62.12
80.20
90.38
94.62
95.69
96.14
97.36
99.59
102.29
104.63
106.07
106.26
104.93
101.99
98.20
94.51
91.90
91.02
91.75
93.97
97.17
100.34
102.14
102.22
99.88
94.36
85.43
73.52
61.94
55.19
56.95
68.90
91.78
123.42
160.04
198.16
235.39
273.45
314.67
358.50
400.10
433.66
452.13
450.67
429.11
391.03
345.75
302.61
267.26
224.78
167.10
94.79
17.78
-41.69
-82.17
-108.01
-125.02
-140.12
-157.14
-175.72
-195.07
-214.85
-235.66
-259.88
-286.98
-315.61
-344.62
-373.32
-399.96
-423.92
-445.94
-468.00
-494.00
-525.64
-562.97
-603.87
-643.25
-672.51
-682.97
-668.89
-629.60
-570.27
-498.03
-420.23
-342.70
-268.91
-200.05
-136.86
-80.30
-31.08
10.96
48.43
85.67
127.15
175.66
230.86
288.31
339.97
376.47
390.15
378.25
343.98
295.21
241.33
189.61
142.84
99.28
54.76
5.72
-48.19
-103.35
-153.18
-190.60
-210.53
-211.40
-195.40
-167.12
-131.76
-93.27
-53.66
-13.30
28.08
70.43
112.72
152.88
188.09
215.49
232.74
238.61
233.35
218.73
197.52
172.81
147.34
123.24
102.18
85.49
74.12
68.12
66.22
65.95
64.38
59.42
50.76
40.37
32.00
30.12
38.25
57.59
86.54
121.15
156.45
188.02
214.14
236.48
259.04
285.43
315.97
346.50
369.63
378.02
366.89
336.93
294.06
246.80
202.62
165.30
134.76
108.86
85.53
62.48
38.49
13.11
-13.72
-42.36
-73.56
-107.81
-144.57
-182.05
-219.57
-256.57
-292.23
-325.29
-354.42
-379.09
-399.21
-414.73
-414.31
-389.57
-339.64
-273.03
-202.23
-136.81
-81.29
-36.15
0.33
30.44
54.14
70.73
80.43
84.63
86.42
88.34
91.83
97.60
105.69
113.73
118.84
119.61
116.77
112.44
108.43
105.41
105.10
107.65
110.07
108.05
98.54
80.58
54.91
22.63
-15.39
-58.45
-94.94
-114.84
-114.56
-97.69
-71.70
-42.49
-12.65
17.77
50.00
77.46
100.81
119.90
134.66
144.24
148.59
148.10
143.13
132.80
122.80
113.10
101.52
86.76
66.00
38.53
6.29
-26.64
-55.95
-77.70
-92.97
-104.29
-113.44
-126.20
-146.48
-174.51
-207.09
-240.31
-270.55
-300.16
-331.66
-365.46
-406.56
-457.42
-515.45
-573.51
-623.51
-658.79
-680.30
-689.33
-644.23
-523.83
-337.33
-121.36
83.09
232.69
331.54
388.13
411.10
408.97
386.30
344.97
288.77
224.36
158.53
94.06
26.65
-46.66
-124.85
-209.02
-297.01
-382.24
-454.47
-479.26
-437.54
-339.34
-215.65
-98.96
-11.31
42.41
68.87
79.46
83.98
85.11
80.85
71.29
60.67
51.84
49.67
56.52
72.87
97.60
126.34
154.58
181.01
207.86
233.07
255.58
273.80
286.55
293.05
291.38
280.55
261.80
238.48
214.36
192.91
175.28
161.35
150.08
139.32
127.50
114.25
100.34
86.90
75.34
65.83
58.26
52.06
46.17
39.70
32.11
23.45
13.85
5.52
-2.96
-12.24
-22.78
-34.91
-48.70
-64.12
-80.54
-97.31
-113.49
-128.53
-141.58
-152.11
-159.96
-165.28
-168.66
-170.26
-170.59
-170.22
-169.93
-170.08
-170.95
-172.74
-175.55
-179.43
-183.56
-187.31
-190.08
-191.45
-190.81
-187.49
-180.61
-168.60
-154.91
-140.78
-127.10
-114.54
-103.63
-94.54
-87.30
-81.81
-78.00
-75.86
-74.67
-74.00
-73.59
-73.39
-73.35
-73.52
-73.93
-74.68
-75.86
-76.94
-77.50
-77.14
-75.56
-72.51
-67.95
-61.96
-54.87
-47.18
-39.17
-31.33
-24.17
-18.24
-13.98
-11.71
-11.59
-13.60
-17.55
-22.90
-29.03
-35.25
-40.88
-45.25
-47.80
-48.11
-45.94
-41.24
-34.11
-24.88
-14.02
-2.14
10.05
21.84
32.62
41.89
49.38
55.02
58.93
61.33
62.53
62.82
62.51
61.82
60.96
60.10
59.35
58.79
58.43
58.18
57.89
57.43
56.70
55.70
54.54
53.40
52.47
51.82
51.40
51.02
50.45
49.54
48.34
47.10
46.22
46.06
46.77
48.24
50.09
51.88
53.38
54.77
56.68
59.98
65.57
73.98
85.28
99.06
114.71
131.73
149.95
169.49
190.66
213.83
239.32
267.43
298.09
330.57
362.95
392.17
414.67
427.45
429.25
421.01
405.37
385.59
364.26
342.69
321.06
299.07
276.68
254.35
232.77
212.37
192.95
173.70
153.62
132.04
109.05
85.53
62.92
42.63
25.57
11.82
0.68
-8.90
-17.87
-26.68
-35.23
-43.07
-49.82
-55.42
-60.24
-64.84
-69.59
-74.30
-78.20
-80.23
-79.57
-76.11
-70.52
-63.86
-56.94
-49.93
-42.33
-33.56
-23.51
-12.89
-3.02
4.83
10.08
13.10
14.85
16.28
17.80
19.12
19.58
18.60
16.01
12.05
7.09
1.41
-4.80
-11.32
-17.66
-23.11
-27.05
-29.34
-30.59
-32.03
-34.97
-40.00
-46.59
-53.04
-57.28
-57.71
-54.01
-47.31
-39.74
-33.60
-30.46
-30.55
-32.77
-35.03
-35.13
-31.59
-24.49
-15.73
-8.82
-7.91
-16.54
-36.24
-65.70
-100.76
-135.26
-162.63
-177.64
-177.84
-164.22
-140.79
-113.15
-86.51
-63.95
-45.48
-28.60
-9.85
13.16
40.32
68.91
94.72
113.86
124.18
125.80
120.47
110.55
98.05
84.45
71.07
59.44
51.27
47.98
49.99
56.32
64.96
73.60
80.57
85.19
87.70
88.64
88.25
86.18
81.61
73.72
62.21
47.72
31.78
16.48
3.95
-4.22
-7.36
-5.89
-1.21
4.43
8.22
6.99
-2.23
-21.45
-50.81
-87.94
-128.11
-165.13
-192.77
-206.09
-202.38
-181.61
-146.64
-103.04
-58.34
-20.53
4.12
13.16
8.98
-1.92
-11.40
-12.68
-2.74
16.91
41.24
63.71
78.32
81.17
71.17
50.13
22.21
-7.18
-32.71
-50.48
-58.75
-58.06
-50.53
-39.08
-26.56
-15.35
-7.06
-2.45
-1.38
-2.87
-5.41
-7.41
-7.64
-5.59
-1.55
3.56
8.46
11.81
12.56
10.26
5.27
-1.32
-8.10
-13.83
-18.05
-21.22
-24.48
-29.10
-35.85
-44.69
-54.92
-65.50
-75.40
-83.80
-90.04
-93.63
-94.34
-92.49
-89.01
-85.29
-82.55
-81.16
-80.22
-77.75
-71.59
-60.44
-44.57
-25.77
-6.53
10.99
25.75
37.93
48.43
58.30
68.27
78.69
89.65
100.86
111.56
120.24
124.92
123.90
116.78
105.25
92.78
83.34
79.57
81.45
86.16
89.38
87.37
78.76
65.27
50.85
39.89
35.38
37.85
45.45
54.99
63.21
67.70
67.25
61.74
51.90
38.85
23.60
6.41
-13.73
-39.36
-73.95
-120.25
-178.14
-242.96
-305.67
-355.03
-381.11
-378.67
-348.86
-298.66
-238.22
-177.58
-123.93
-80.50
-46.93
-20.81
0.69
19.70
37.31
53.93
69.82
85.53
101.86
119.60
138.84
158.46
176.03
188.34
192.41
186.74
172.14
151.75
130.12
111.44
97.95
89.13
82.11
73.15
59.44
40.42
18.08
-3.92
-21.60
-32.09
-34.57
-30.45
-22.95
-16.02
-13.15
-16.45
-26.17
-40.98
-58.67
-77.02
-94.33
-109.65
-122.88
-134.62
-146.10
-158.68
-173.16
-188.96
-203.78
-214.24
-217.18
-211.21
-197.44
-178.94
-159.18
-140.38
-122.75
-104.87
-85.12
-62.95
-39.37
-16.26
4.83
23.73
41.62
60.26
80.80
102.99
125.17
145.05
160.56
170.51
174.65
173.44
167.87
159.32
149.60
140.82
134.76
132.15
132.13
132.36
129.96
122.78
110.34
94.08
76.67
60.86
48.44
39.87
34.53
31.20
28.53
25.25
20.05
11.74
-0.59
-17.15
-37.13
-58.82
-79.95
-98.47
-113.05
-123.43
-130.34
-135.05
-138.91
-142.68
-146.23
-148.34
-146.93
-139.75
-125.34
-103.79
-77.06
-48.46
-21.51
1.20
18.84
32.22
42.98
52.56
61.53
69.60
76.22
81.28
85.43
89.76
95.04
101.06
106.60
109.88
109.36
104.27
94.83
82.07
67.53
52.88
39.70
29.17
21.68
16.62
12.51
7.60
0.66
-8.33
-18.01
-26.18
-30.68
-30.25
-24.92
-15.94
-5.31
4.65
11.60
13.36
8.16
-5.16
-26.85
-55.95
-90.16
-125.99
-159.27
-185.87
-202.57
-207.73
-201.57
-185.90
-163.55
-137.65
-111.08
-86.14
-64.43
-46.74
-33.04
-22.42
-13.22
-3.43
8.61
23.58
40.84
58.73
75.14
88.41
97.95
104.33
109.02
113.61
119.13
125.57
131.87
136.29
137.06
133.18
124.82
113.39
101.19
90.58
83.20
79.31
77.62
75.77
71.16
62.13
48.73
32.91
17.90
6.98
2.18
3.49
8.93
15.35
19.70
20.07
16.19
9.05
0.16
-9.47
-19.91
-32.21
-47.87
-67.93
-92.27
-119.22
-145.62
-167.29
-179.93
-180.29
-167.47
-143.77
-114.67
-87.29
-68.08
-60.34
-62.90
-70.75
-77.34
-77.36
-68.66
-52.37
-31.42
-8.65
14.31
36.92
58.82
79.08
96.18
108.68
116.00
118.70
118.00
115.19
111.34
107.32
104.07
102.64
103.74
107.27
112.14
116.78
119.88
121.07
120.99
120.64
120.64
120.51
118.75
113.44
103.00
86.91
65.91
41.69
16.18
-9.25
-34.37
-60.06
-87.54
-117.43
-148.93
-179.73
-206.64
-226.37
-236.08
-233.72
-218.43
-191.15
-155.28
-116.56
-81.91
-57.21
-45.07
-43.77
-48.26
-52.48
-52.09
-45.85
-35.23
-22.84
-10.76
0.19
10.13
19.29
27.71
35.46
43.12
51.84
62.81
76.19
90.50
102.83
110.07
110.38
104.16
93.79
82.44
72.59
65.16
59.53
54.46
48.95
42.81
36.49
30.52
25.14
20.30
15.89
11.96
8.72
6.21
3.94
0.84
-4.32
-12.42
-23.42
-36.23
-49.03
-59.92
-67.56
-71.55
-72.36
-70.98
-68.38
-65.16
-61.36
-56.68
-50.82
-43.79
-36.02
-28.17
-20.86
-14.33
-8.38
-2.56
3.48
9.57
15.00
18.77
20.16
19.23
17.09
15.62
16.81
21.91
30.74
41.52
51.27
56.71
55.42
46.74
32.16
14.83
-1.41
-13.42
-19.64
-20.40
-17.38
-12.72
-8.21
-4.92
-3.29
-3.39
-5.24
-8.74
-13.59
-19.25
-24.92
-29.80
-33.35
-35.50
-36.56
-37.08
-37.60
-38.50
-39.98
-42.10
-44.88
-48.25
-51.98
-55.50
-58.01
-58.65
-56.87
-52.67
-46.65
-39.70
-32.74
-26.36
-20.78
-15.91
-11.49
-7.22
-2.82
1.89
6.87
11.89
16.64
20.85
24.52
27.95
31.61
35.76
40.14
43.80
45.36
43.46
37.42
27.72
16.11
5.19
-2.46
-5.17
-2.95
2.56
8.63
12.57
12.76
9.21
3.37
-2.64
-7.03
-9.10
-9.41
-9.39
-10.52
-13.62
-18.59
-24.60
-30.66
-36.13
-40.95
-45.58
-50.64
-56.69
-64.04
-72.55
-81.45
-89.02
-92.72
-89.79
-78.54
-59.51
-35.96
-13.05
4.02
12.11
11.24
4.40
-4.10
-10.53
-13.06
-11.92
-8.47
-4.04
0.80
6.24
12.61
19.89
27.48
34.54
40.49
45.26
49.24
52.82
55.99
58.25
59.05
58.24
56.39
54.62
53.94
54.61
55.92
56.57
55.44
52.18
47.43
42.35
38.00
34.83
32.60
30.66
28.45
25.73
22.62
19.29
15.75
11.79
7.00
1.03
-6.38
-15.39
-26.11
-38.50
-52.07
-65.49
-76.51
-82.34
-80.66
-70.78
-54.35
-35.14
-17.75
-5.86
-0.94
-1.87
-5.88
-9.92
-11.97
-11.44
-8.75
-4.54
0.82
7.25
14.58
22.21
29.10
34.25
37.17
38.20
38.22
37.96
37.48
36.05
32.74
27.26
20.59
14.75
12.00
13.77
20.02
29.37
39.87
49.87
58.40
64.95
68.93
69.38
65.28
56.31
43.54
29.43
17.10
9.02
5.86
6.16
6.80
4.39
-3.46
-17.17
-35.19
-54.50
-71.36
-82.10
-83.90
-75.60
-58.35
-35.80
-13.44
3.04
9.89
6.91
-2.41
-12.45
-17.87
-15.94
-7.25
5.12
17.50
27.52
34.93
41.24
48.51
58.06
69.66
81.44
90.57
94.32
91.11
81.25
66.86
51.23
37.61
28.08
23.00
21.13
20.49
19.31
16.68
12.66
7.85
2.79
-2.52
-8.53
-15.81
-24.41
-33.54
-41.78
-47.68
-50.44
-50.22
-47.75
-43.64
-37.93
-30.27
-20.69
-10.27
-1.08
4.82
6.93
6.96
8.03
12.54
20.27
28.11
31.90
29.19
20.93
10.87
3.02
-1.04
-3.08
-6.72
-14.64
-26.35
-38.07
-44.98
-44.01
-35.80
-24.31
-14.72
-10.75
-13.13
-19.69
-26.69
-30.69
-29.92
-24.74
-17.15
-9.64
-4.12
-1.22
-0.30
0.02
1.34
4.92
11.49
20.95
32.08
42.42
48.67
47.77
38.31
21.56
1.46
-16.64
-27.97
-30.09
-23.63
-11.61
2.04
14.05
22.65
27.45
28.83
27.26
23.03
16.51
8.55
0.62
-5.34
-7.58
-5.32
0.89
9.25
17.42
23.60
27.26
29.34
31.65
35.88
42.59
50.75
57.89
60.83
56.56
43.03
19.75
-11.94
-48.99
-86.97
-120.84
-145.98
-159.36
-160.32
-150.82
-134.72
-116.60
-100.34
-88.16
-80.45
-76.37
-74.74
-74.67
-75.71
-77.60
-79.73
-81.16
-80.77
-77.91
-72.74
-66.27
-59.94
-54.93
-51.79
-50.27
-49.70
-49.38
-48.94
-48.26
-47.27
-45.53
-42.23
-36.38
-27.37
-15.35
-1.37
13.03
26.40
37.95
47.62
55.89
63.16
69.52
74.55
77.71
78.65
77.45
74.57
70.67
66.34
62.07
58.20
55.09
53.14
52.79
54.43
58.29
64.38
72.47
82.13
92.80
103.79
114.15
122.51
127.14
126.05
117.50
100.64
75.87
45.09
11.34
-21.81
-50.90
-73.14
-86.69
-90.84
-86.13
-74.39
-58.49
-41.80
-27.27
-16.63
-9.91
-5.76
-2.18
2.43
8.64
15.86
22.82
28.16
30.92
30.67
27.39
21.31
12.79
2.44
-8.82
-19.93
-29.89
-38.14
-44.58
-49.31
-52.01
-51.67
-46.68
-35.65
-18.21
4.45
29.92
55.47
79.03
99.70
117.56
133.07
146.50
157.72
166.45
172.57
176.32
178.20
178.72
178.06
175.83
170.90
161.50
145.55
121.32
88.37
48.10
3.46
-41.96
-85.56
-127.09
-169.01
-215.07
-267.70
-325.22
-380.66
-423.09
-441.28
-427.86
-382.08
-309.74
-220.93
-126.85
-37.35
40.24
101.43
144.71
171.80
187.54
198.56
211.04
228.26
249.59
271.49
289.96
302.68
309.31
310.33
305.40
292.66
269.74
235.65
191.99
142.55
91.76
42.64
-4.16
-50.04
-97.08
-146.91
-200.29
-257.16
-316.41
-375.30
-428.66
-469.00
-488.14
-479.77
-441.83
-377.13
-292.17
-194.84
-92.62
7.87
100.40
178.66
236.99
272.14
284.79
279.74
264.11
244.56
224.99
206.07
186.42
164.49
140.12
114.71
90.24
67.97
47.49
26.92
3.78
-23.64
-55.18
-88.60
-120.18
-145.98
-163.00
-169.93
-167.21
-156.41
-139.49
-118.22
-93.94
-67.89
-41.73
-18.02
-0.38
6.99
0.16
-23.32
-63.28
-116.09
-174.50
-228.61
-267.87
-283.75
-272.32
-235.54
-181.23
-120.37
-63.68
-18.74
11.31
27.45
33.30
33.54
32.78
34.74
42.40
57.62
80.34
107.80
134.81
155.23
164.30
160.56
145.49
123.70
100.99
82.01
68.18
57.44
45.88
30.15
9.09
-18.50
-51.56
-86.75
-119.25
-144.69
-160.53
-166.32
-163.55
-155.89
-154.35
-169.27
-205.09
-257.65
-316.43
-368.93
-404.21
-415.09
-399.36
-367.67
-331.29
-295.78
-259.59
-219.75
-177.72
-140.38
-116.98
-115.34
-149.81
-226.47
-338.36
-467.54
-594.71
-707.51
-802.05
-879.39
-872.95
-744.70
-506.73
-219.22
53.03
274.11
437.00
549.41
623.89
672.56
694.35
688.14
658.74
617.91
578.02
546.25
523.27
507.66
497.10
481.04
451.50
407.48
355.30
303.21
259.24
225.24
200.67
184.10
168.86
149.74
125.78
100.49
78.53
62.68
52.87
48.09
46.97
45.77
41.64
33.94
24.44
15.54
8.86
4.47
2.01
0.92
-0.18
-2.41
-6.05
-10.47
-14.76
-18.32
-21.14
-23.27
-24.94
-26.06
-26.75
-27.03
-26.91
-26.35
-25.35
-24.10
-22.79
-21.80
-21.20
-21.32
-22.39
-24.45
-27.34
-30.72
-34.04
-36.71
-39.09
-39.73
-37.82
-32.87
-24.57
-12.88
2.00
19.59
39.72
60.50
80.69
98.98
114.31
126.02
133.91
138.12
138.96
136.76
131.20
122.28
109.75
93.65
74.49
53.30
31.51
10.54
-7.94
-23.94
-37.56
-49.38
-59.92
-69.30
-77.23
-83.18
-86.79
-88.17
-88.04
-87.08
-86.02
-85.47
-86.17
-89.09
-95.45
-104.44
-113.41
-117.84
-112.53
-94.32
-64.17
-27.48
7.66
33.81
47.25
48.68
42.26
33.10
24.91
19.29
16.59
17.26
22.22
31.81
44.02
54.48
57.63
49.40
29.72
3.36
-22.03
-39.24
-44.64
-39.43
-28.20
-16.32
-7.44
-2.50
-0.39
0.45
0.92
1.04
0.51
-0.53
-1.40
-1.14
1.22
5.95
12.55
20.03
27.37
34.03
40.25
46.59
53.84
62.63
73.02
84.34
95.51
105.27
112.77
117.68
120.19
120.66
119.64
117.44
113.93
109.10
102.11
92.56
80.63
66.92
52.26
37.93
25.05
14.18
5.21
-2.59
-10.09
-18.02
-26.74
-36.31
-46.01
-55.07
-63.16
-70.69
-78.68
-88.34
-100.43
-112.93
-125.69
-137.45
-146.84
-152.95
-155.96
-156.87
-156.98
-157.49
-159.43
-164.04
-171.62
-181.19
-190.03
-193.81
-188.09
-170.48
-142.38
-109.13
-78.24
-55.82
-44.24
-41.80
-44.20
-47.08
-48.37
-47.61
-45.59
-43.00
-39.19
-32.49
-21.62
-6.39
12.18
32.45
52.73
72.19
90.76
107.88
124.12
139.43
152.98
163.37
169.28
169.96
165.71
157.61
147.35
136.70
126.76
117.85
109.69
101.78
93.58
85.02
76.32
67.87
60.23
53.59
47.90
42.90
38.80
34.91
31.02
27.19
23.55
20.34
17.63
15.40
13.56
12.01
10.60
9.30
8.16
7.19
6.44
5.90
5.55
5.39
5.40
5.48
5.65
5.94
6.34
6.87
7.52
8.30
9.17
10.18
11.24
12.33
13.49
14.69
15.84
16.84
17.53
17.75
17.28
16.30
14.31
11.19
6.93
1.63
-4.54
-11.28
-18.26
-25.10
-31.46
-37.07
-41.65
-45.05
-47.21
-48.22
-48.20
-47.36
-45.90
-44.08
-42.16
-40.26
-38.46
-36.84
-35.40
-34.14
-33.07
-32.19
-31.57
-31.36
-31.53
-32.08
-32.95
-34.08
-35.38
-36.79
-38.31
-40.06
-42.24
-44.78
-47.62
-50.67
-53.81
-56.86
-59.76
-62.56
-65.52
-69.11
-73.38
-78.38
-83.98
-89.89
-95.70
-101.08
-105.98
-110.59
-115.49
-120.54
-125.50
-129.61
-131.64
-130.13
-123.68
-111.22
-91.78
-68.89
-44.46
-19.74
4.88
29.84
55.97
83.90
113.47
143.63
172.75
199.87
224.59
247.45
269.73
293.10
319.24
349.67
385.37
426.01
469.53
511.06
543.56
559.94
555.78
531.29
491.43
443.88
395.83
351.75
312.14
274.85
237.34
198.49
159.03
120.67
84.76
51.49
20.30
-9.54
-38.03
-64.11
-85.96
-101.82
-110.86
-113.55
-111.55
-107.08
-102.30
-98.78
-97.41
-98.52
-102.27
-108.70
-117.66
-128.68
-140.84
-153.07
-164.52
-174.92
-184.63
-194.33
-204.57
-215.42
-226.35
-236.54
-245.28
-252.50
-259.09
-267.00
-278.91
-297.56
-324.59
-359.37
-398.26
-434.88
-461.64
-471.92
-462.23
-433.09
-388.60
-334.65
-277.11
-220.48
-167.64
-120.26
-79.39
-45.70
-19.33
0.47
15.30
27.27
38.21
49.04
59.55
68.70
75.11
77.80
76.65
72.63
67.57
63.69
62.85
66.06
73.25
83.44
95.27
107.36
118.59
128.09
135.18
139.37
140.42
138.49
134.05
127.60
119.43
109.60
98.15
85.57
73.00
62.01
53.93
49.36
48.08
49.36
52.51
57.12
62.75
68.39
72.32
72.47
67.43
57.36
44.19
30.93
20.32
13.74
10.69
9.37
7.70
4.38
-0.64
-6.36
-11.42
-14.77
-16.06
-15.71
-14.60
-13.73
-13.92
-15.62
-18.81
-23.04
-27.51
-31.20
-33.04
-32.18
-28.16
-21.21
-12.16
-2.31
7.00
14.58
19.56
21.61
21.01
18.90
17.24
18.26
23.42
32.34
42.39
49.49
49.93
42.29
28.52
13.17
1.17
-4.70
-5.15
-3.91
-5.52
-12.87
-25.68
-40.85
-54.25
-62.93
-66.34
-66.25
-65.28
-65.13
-65.56
-64.60
-59.89
-50.26
-36.54
-21.25
-7.33
3.29
10.44
15.45
20.02
25.17
30.58
34.92
36.65
34.89
29.83
22.55
14.47
6.75
-0.06
-6.00
-11.43
-16.71
-21.91
-26.66
-30.28
-31.95
-31.09
-27.66
-22.37
-16.59
-11.99
-9.90
-10.81
-14.10
-18.21
-21.38
-22.42
-21.41
-19.68
-19.26
-21.74
-27.36
-34.71
-41.24
-44.52
-43.36
-38.51
-32.03
-26.35
-22.98
-21.91
-21.87
-20.94
-16.95
-7.41
10.43
38.79
77.61
122.76
165.73
195.88
204.64
189.57
156.04
115.03
78.40
53.98
43.21
42.27
45.44
48.54
50.22
51.17
52.13
52.51
50.56
44.63
34.54
22.05
10.27
2.21
-0.64
1.23
5.56
9.52
10.89
9.02
4.84
0.30
-2.67
-3.02
-0.84
2.85
6.75
9.79
11.46
11.81
11.22
10.18
9.22
8.85
9.48
11.31
14.20
17.61
20.69
22.53
22.53
20.66
17.56
14.21
11.56
10.15
9.89
10.19
10.21
9.24
6.83
2.80
-2.99
-10.92
-21.80
-36.79
-57.10
-83.38
-115.11
-150.17
-185.03
-215.67
-238.83
-253.21
-259.82
-261.33
-260.61
-259.14
-256.06
-248.43
-232.56
-205.87
-168.68
-124.82
-81.13
-45.69
-25.40
-23.91
-40.58
-71.03
-108.76
-147.14
-180.88
-206.59
-222.28
-226.91
-220.02
-201.88
-173.74
-137.66
-95.91
-50.02
-0.73
50.89
101.79
146.48
178.47
193.59
193.10
184.25
177.52
181.49
198.10
220.84
237.29
234.96
207.34
157.35
96.53
40.57
3.71
-5.57
13.64
55.41
109.16
161.91
200.84
215.62
200.78
157.71
95.61
29.91
-22.11
-47.46
-42.76
-15.59
18.84
44.12
48.97
30.46
-6.56
-52.62
-97.27
-131.56
-149.17
-147.29
-127.77
-97.88
-69.42
-55.30
-64.35
-97.69
-147.93
-201.99
-246.05
-270.26
-270.85
-249.56
-211.29
-160.67
-101.96
-39.25
23.38
82.27
134.50
178.13
212.08
236.21
253.04
265.03
273.10
276.39
273.46
263.62
247.60
227.40
205.91
188.85
179.89
178.81
182.00
185.74
188.70
192.21
198.89
211.27
234.31
270.08
315.73
364.00
406.59
437.17
452.43
452.13
413.28
328.08
209.99
87.39
-15.77
-90.79
-140.45
-171.43
-189.73
-199.69
-202.00
-198.45
-193.14
-191.81
-198.60
-214.13
-236.65
-263.99
-288.08
-302.47
-304.86
-297.95
-287.75
-280.01
-277.20
-277.75
-276.55
-266.69
-241.37
-197.95
-140.50
-78.87
-24.30
15.50
38.60
48.42
51.13
52.24
54.50
57.66
60.11
61.05
61.31
61.70
61.68
59.01
50.89
36.25
16.89
-2.87
-18.28
-26.72
-29.57
-31.36
-37.26
-50.53
-70.60
-93.85
-115.92
-134.91
-148.93
-156.90
-156.91
-145.72
-120.66
-81.90
-34.29
13.42
51.81
75.03
82.72
79.64
72.42
65.96
61.59
57.77
52.64
46.04
40.01
37.07
38.61
43.87
50.47
55.71
57.84
56.71
52.90
46.55
36.44
20.32
-3.79
-36.10
-73.79
-111.21
-141.27
-157.97
-158.64
-145.07
-122.53
-97.75
-76.54
-62.06
-55.58
-56.19
-61.27
-67.11
-69.93
-66.87
-57.02
-42.02
-25.81
-13.43
-8.99
-14.31
-28.44
-48.53
-71.24
-93.96
-115.26
-134.35
-149.74
-158.19
-155.17
-137.16
-104.46
-62.78
-22.16
6.85
18.03
12.60
-1.13
-11.72
-9.85
7.95
39.12
78.05
119.64
161.26
201.94
240.25
272.63
293.81
299.30
288.17
264.40
235.71
210.51
194.41
188.18
187.79
186.42
177.32
156.23
122.72
80.06
34.22
-7.90
-40.01
-58.00
-60.87
-50.61
-31.62
-9.53
10.15
23.59
29.54
29.95
28.69
30.11
37.48
51.85
71.74
93.80
114.41
131.18
144.57
156.44
168.49
180.64
190.47
194.01
187.48
169.22
140.46
105.97
70.70
37.76
8.13
-18.11
-40.05
-54.86
-58.19
-45.91
-14.79
33.35
90.70
145.75
187.19
207.72
206.21
187.33
149.53
97.51
39.76
-14.89
-60.29
-94.31
-117.58
-131.69
-138.36
-139.84
-137.39
-132.97
-129.61
-129.75
-134.19
-142.28
-152.96
-165.87
-182.20
-203.54
-228.01
-254.66
-280.52
-299.14
-302.30
-283.51
-241.39
-180.77
-110.68
-42.23
13.91
50.13
63.71
56.58
33.18
0.11
-34.53
-62.42
-77.41
-74.89
-56.78
-28.94
2.05
31.27
56.08
75.76
90.51
100.62
106.64
109.36
110.30
110.90
111.97
113.21
113.47
111.33
105.58
95.76
82.17
66.03
48.76
31.24
13.53
-4.95
-23.22
-41.57
-59.59
-76.21
-89.83
-99.07
-103.58
-104.18
-102.72
-101.29
-101.72
-104.35
-108.26
-111.88
-113.55
-112.47
-108.90
-104.17
-100.21
-99.43
-103.52
-112.96
-125.93
-137.97
-142.81
-134.48
-110.37
-73.06
-30.14
9.43
38.58
55.21
62.51
66.64
73.43
86.32
105.65
129.58
155.74
181.22
202.43
215.17
215.05
201.07
175.73
144.46
111.76
81.24
54.31
30.51
8.49
-12.65
-33.37
-54.14
-74.94
-97.14
-121.77
-149.15
-178.05
-205.39
-226.41
-235.43
-228.05
-203.12
-164.11
-118.12
-73.72
-37.72
-13.16
2.37
13.28
23.51
34.67
45.75
54.85
60.75
63.85
65.75
68.16
71.47
74.67
75.80
72.75
64.57
51.72
35.75
18.63
2.11
-13.24
-26.94
-39.10
-49.86
-59.06
-66.09
-70.11
-70.49
-66.90
-59.69
-49.64
-37.97
-26.02
-15.13
-6.32
-0.43
2.06
1.48
-1.28
-4.89
-8.05
-10.02
-10.93
-11.57
-13.26
-17.20
-23.32
-30.36
-36.13
-38.40
-35.78
-28.42
-17.59
-5.23
6.96
19.21
33.37
52.53
80.19
119.59
170.73
233.14
304.85
377.09
438.52
476.29
479.88
445.52
378.67
292.38
202.84
123.20
60.05
13.83
-18.63
-40.84
-54.65
-60.62
-59.47
-53.09
-44.74
-37.83
-34.24
-33.64
-33.93
-32.29
-26.89
-17.85
-7.01
2.82
9.30
10.48
6.51
-0.60
-7.93
-12.95
-14.63
-13.49
-11.10
-9.26
-10.25
-14.54
-20.68
-26.04
-28.11
-25.83
-20.05
-12.83
-7.18
-7.53
-16.22
-32.92
-55.33
-80.40
-106.09
-132.26
-160.28
-189.15
-221.80
-261.03
-308.42
-363.36
-422.41
-479.56
-527.10
-557.02
-553.53
-511.82
-438.39
-349.06
-261.24
-186.38
-127.27
-84.75
-51.83
-23.91
-1.73
13.24
21.22
25.17
29.75
38.30
51.83
69.59
88.31
102.81
109.66
108.41
101.64
93.67
88.59
88.83
94.97
105.01
115.27
122.97
127.57
131.06
137.04
149.27
170.76
203.64
248.19
302.36
361.88
420.06
468.71
500.03
509.11
495.66
464.05
421.01
372.70
322.79
272.16
220.15
166.33
111.41
56.93
3.99
-47.84
-100.61
-157.16
-219.97
-290.27
-367.27
-447.45
-524.68
-590.88
-637.88
-659.84
-655.31
-627.79
-584.40
-533.18
-480.54
-429.95
-382.46
-338.24
-297.96
-263.18
-235.55
-215.70
-202.64
-194.14
-187.79
-181.91
-175.95
-170.24
-165.21
-160.69
-155.71
-148.78
-138.38
-123.63
-104.47
-81.56
-55.95
-28.63
-0.37
28.27
56.65
83.85
108.75
130.24
147.63
160.94
170.83
178.35
184.39
189.42
193.36
195.91
196.96
197.03
197.40
200.13
207.87
223.30
248.11
281.70
320.04
355.65
379.11
382.05
360.24
315.71
256.44
193.95
139.66
101.92
84.54
87.11
106.18
136.56
172.15
206.55
233.83
249.49
251.44
240.47
219.66
193.24
165.13
137.92
112.34
87.38
60.89
30.27
-6.57
-50.18
-98.68
-147.45
-189.82
-218.84
-229.51
-220.54
-194.91
-158.78
-119.22
-81.78
-49.13
-21.21
3.69
27.67
52.48
79.50
109.72
143.29
178.68
211.95
237.08
247.70
239.33
211.30
166.74
111.14
50.16
-11.63
-70.70
-123.46
-165.56
-192.43
-200.99
-191.29
-166.90
-133.35
-95.64
-55.84
-12.67
36.60
92.82
152.36
206.84
245.88
261.56
252.06
222.85
184.56
148.91
124.62
115.09
118.72
131.14
147.84
165.73
183.54
200.92
217.47
232.20
243.67
250.70
253.01
251.57
248.14
244.28
240.31
234.59
224.43
207.40
183.00
153.48
122.71
93.98
68.14
43.24
16.33
-13.66
-44.48
-70.98
-88.01
-93.59
-90.43
-85.02
-84.57
-93.95
-114.06
-142.84
-176.99
-213.26
-248.41
-278.42
-298.63
-305.57
-299.37
-285.19
-271.71
-266.79
-272.94
-285.30
-292.88
-283.38
-248.88
-189.54
-113.77
-35.05
33.31
82.59
110.71
121.74
122.95
121.48
121.86
125.16
130.10
134.74
137.45
136.95
131.90
120.46
100.77
72.14
36.01
-4.00
-43.38
-78.52
-107.83
-131.92
-152.78
-172.47
-192.04
-211.14
-228.11
-240.42
-245.39
-241.16
-227.38
-205.68
-179.37
-152.53
-128.87
-110.77
-98.75
-91.65
-87.09
-82.17
-74.13
-60.85
-41.25
-15.51
14.95
47.86
80.78
111.69
139.39
163.46
183.88
200.57
213.33
221.91
226.45
227.71
227.00
225.59
223.96
221.44
216.41
207.08
192.59
173.48
151.44
128.42
105.57
82.82
59.23
33.99
7.27
-19.56
-44.49
-66.00
-83.89
-99.44
-114.75
-131.56
-150.48
-170.55
-189.73
-205.67
-216.37
-220.42
-216.97
-205.75
-187.34
-163.69
-138.18
-114.88
-96.98
-84.98
-76.18
-65.85
-49.78
-26.57
1.38
29.22
52.20
67.96
77.41
83.50
89.24
96.25
104.68
114.30
125.67
140.41
160.37
186.38
217.21
249.77
280.17
305.01
322.19
330.98
331.34
323.21
306.24
280.03
244.84
202.09
154.37
104.81
56.28
10.67
-31.33
-69.84
-105.27
-137.77
-167.16
-193.36
-216.50
-237.18
-256.14
-273.85
-290.34
-305.79
-321.18
-338.71
-360.77
-388.05
-417.67
-442.72
-453.90
-442.99
-406.00
-344.59
-265.04
-175.78
-85.06
-0.15
72.37
126.11
155.50
157.73
134.43
91.86
38.93
-16.22
-69.31
-120.54
-172.54
-226.91
-280.95
-327.05
-355.09
-356.68
-328.92
-275.86
-206.83
-132.62
-61.51
2.94
61.59
117.69
174.72
234.81
298.14
362.84
425.12
479.59
520.33
542.74
545.29
530.36
503.35
470.63
437.42
406.60
378.85
353.77
330.79
309.38
288.73
267.33
243.23
214.82
181.84
145.74
109.45
76.49
49.75
30.86
19.94
15.98
17.58
23.44
32.66
44.65
58.78
73.98
88.75
101.37
110.30
114.85
115.39
113.46
111.39
111.64
116.14
125.80
140.25
157.89
176.25
192.47
203.80
208.08
203.98
191.11
169.95
141.68
107.91
70.48
31.22
-8.17
-46.07
-81.04
-111.84
-137.76
-158.50
-174.19
-185.46
-193.12
-198.67
-203.75
-209.73
-217.33
-226.74
-237.58
-248.90
-259.70
-268.96
-276.69
-284.03
-293.22
-307.06
-328.29
-357.39
-391.53
-425.23
-451.62
-466.76
-471.06
-468.66
-465.50
-468.52
-482.08
-507.42
-542.90
-582.86
-622.26
-655.99
-678.91
-687.45
-684.66
-676.82
-671.44
-674.05
-682.20
-693.62
-705.82
-716.14
-723.53
-733.69
-751.79
-779.99
-815.93
-847.96
-870.84
-884.41
-890.87
-894.22
-904.52
-928.41
-967.02
-1014.82
-1054.04
-1075.15
-1075.17
-1054.74
-967.06
-783.99
-500.37
-141.97
195.88
480.54
706.85
880.77
1019.49
1129.21
1205.48
1244.56
1246.41
1216.61
1172.76
1124.55
1075.71
1027.07
977.05
919.33
849.62
767.19
675.77
588.24
511.19
446.41
393.28
349.12
308.26
266.33
221.21
173.77
130.84
95.59
68.50
48.83
34.77
23.33
12.25
0.36
-12.14
-22.20
-28.64
-31.56
-31.61
-29.85
-27.53
-25.48
-24.07
-23.16
-21.51
-18.60
-14.35
-8.82
-2.23
5.37
13.89
23.17
32.89
42.58
51.74
59.97
67.05
73.00
78.04
82.38
86.08
88.89
90.33
89.94
87.56
83.63
79.25
75.87
74.87
77.03
82.18
89.36
97.27
104.97
112.44
120.65
131.09
145.07
162.82
183.28
204.45
224.44
242.22
258.23
274.10
291.68
312.22
336.09
363.11
392.96
424.84
456.65
484.24
501.36
501.43
480.35
438.83
382.98
322.21
265.58
218.71
182.86
156.71
139.17
131.10
134.14
147.75
166.61
181.07
181.15
161.93
127.30
88.84
60.43
50.86
58.83
73.08
77.48
58.59
11.56
-57.74
-135.32
-204.69
-252.15
-270.11
-257.66
-219.00
-161.61
-95.07
-30.31
21.55
51.42
55.24
36.02
3.24
-30.77
-55.92
-68.64
-72.50
-75.41
-85.14
-105.62
-136.59
-175.72
-221.40
-273.92
-333.93
-399.45
-463.96
-517.16
-548.49
-551.78
-528.09
-485.23
-434.52
-385.99
-344.93
-311.39
-282.15
-254.05
-226.41
-201.22
-181.53
-169.26
-163.67
-161.62
-159.00
-152.51
-140.82
-125.03
-107.61
-91.11
-76.95
-64.75
-52.59
-37.98
-18.94
5.23
33.78
65.15
97.70
130.37
163.00
196.14
230.57
267.07
306.21
348.04
391.62
434.39
471.95
498.73
509.49
501.15
474.04
431.93
380.83
327.19
276.25
231.38
193.98
163.93
140.09
120.61
103.41
86.61
69.14
51.01
33.12
16.75
2.98
-7.44
-14.19
-17.19
-16.67
-13.42
-8.80
-4.75
-3.18
-5.41
-11.63
-20.94
-31.63
-41.86
-50.06
-55.17
-56.69
-54.68
-49.91
-43.91
-38.88
-37.08
-40.08
-47.94
-59.04
-70.47
-79.00
-82.18
-79.00
-69.92
-56.36
-40.04
-22.44
-4.70
12.45
28.34
42.24
53.43
61.45
66.31
68.43
68.52
67.18
64.79
61.25
56.18
49.22
40.45
30.55
20.81
12.63
7.03
4.58
4.78
6.34
7.51
6.61
2.47
-5.25
-16.02
-28.35
-38.95
-44.24
-40.93
-27.18
-3.25
28.48
64.31
100.34
133.52
164.21
193.59
223.12
253.28
283.18
311.05
335.22
354.68
369.22
382.38
397.04
415.52
438.52
465.20
493.90
523.21
552.39
581.27
613.80
651.92
695.66
741.74
784.25
817.08
836.53
842.76
812.61
733.06
599.06
418.47
210.11
-2.45
-198.42
-364.45
-495.35
-592.35
-651.61
-679.99
-684.94
-674.09
-655.14
-635.03
-618.85
-609.46
-607.80
-610.56
-614.24
-615.36
-612.59
-607.16
-602.15
-601.09
-606.57
-619.11
-634.43
-646.34
-647.08
-630.81
-596.28
-547.65
-492.80
-439.97
-394.06
-353.57
-312.84
-264.53
-204.06
-131.81
-52.68
26.53
99.72
162.64
212.81
247.76
265.07
262.90
241.42
203.73
155.32
101.96
47.55
-6.65
-60.85
-114.32
-163.76
-203.28
-226.66
-230.41
-215.55
-187.20
-152.06
-115.34
-78.65
-40.01
3.79
53.90
107.05
155.04
186.77
192.05
165.61
109.96
35.58
-41.47
-104.17
-139.76
-143.32
-118.62
-75.97
-28.39
12.35
38.38
46.67
38.19
16.87
-11.56
-40.55
-63.57
-75.26
-72.96
-57.62
-33.81
-8.47
11.52
21.81
21.97
15.08
5.46
-4.31
-15.62
-33.92
-66.00
-115.80
-181.16
-253.03
-318.19
-363.91
-382.22
-372.24
-339.27
-291.92
-238.74
-186.23
-138.23
-96.20
-59.39
-24.60
12.51
55.99
108.01
167.73
231.39
293.87
350.59
398.94
439.70
475.63
510.40
547.01
586.34
626.05
660.46
681.71
682.38
659.57
615.21
555.52
488.65
421.82
359.58
303.75
254.44
203.49
146.81
84.17
19.10
-42.77
-96.27
-138.30
-168.20
-187.23
-196.79
-199.53
-198.52
-196.88
-197.58
-203.16
-215.10
-233.93
-259.61
-291.05
-326.37
-364.48
-405.65
-451.29
-502.45
-557.76
-612.00
-656.68
-682.32
-681.71
-653.19
-601.35
-535.16
-464.30
-395.77
-332.34
-273.39
-216.93
-161.45
-106.99
-54.75
-6.16
37.91
77.19
111.83
142.08
168.20
190.34
208.83
224.21
237.25
248.98
260.42
272.59
286.19
301.45
318.15
336.13
356.00
379.06
406.55
438.13
470.43
496.88
509.19
500.10
466.19
409.31
335.94
254.63
173.20
96.77
27.42
-35.04
-91.78
-144.35
-194.68
-245.29
-299.33
-359.35
-425.43
-493.74
-556.53
-603.87
-627.35
-623.36
-594.39
-548.14
-494.23
-440.58
-391.17
-346.25
-304.21
-263.97
-226.16
-191.80
-161.54
-134.42
-107.82
-78.60
-44.49
-5.18
37.47
80.19
121.38
160.63
198.82
237.48
277.97
321.06
366.99
415.37
464.29
512.09
554.41
584.70
596.35
585.82
555.06
511.83
467.12
431.05
412.95
416.97
442.58
486.35
543.81
610.79
683.95
760.44
815.50
828.94
787.94
692.84
557.01
400.15
239.60
85.97
-56.25
-185.38
-296.27
-383.26
-442.31
-473.37
-481.15
-473.29
-457.46
-439.32
-422.41
-406.26
-390.14
-373.88
-357.90
-342.64
-327.81
-312.40
-295.38
-276.71
-256.08
-234.28
-212.77
-193.32
-177.46
-166.25
-159.69
-156.81
-156.15
-155.48
-153.23
-149.07
-143.85
-138.74
-133.89
-127.51
-116.17
-96.63
-67.90
-32.99
1.48
27.87
40.84
39.62
28.06
12.31
-2.24
-13.22
-21.35
-28.72
-36.74
-44.91
-51.10
-52.99
-49.36
-40.50
-27.96
-13.70
0.58
13.73
25.08
34.28
41.14
45.57
47.64
47.55
45.78
43.02
39.98
37.20
34.76
32.23
29.11
25.30
21.49
19.05
19.25
22.25
26.61
29.83
29.44
24.51
16.33
7.99
3.23
5.15
15.22
32.97
55.82
79.10
96.66
102.25
91.65
64.60
25.58
-17.51
-56.10
-83.98
-99.10
-103.21
-100.00
-93.11
-85.04
-77.29
-70.90
-66.64
-64.54
-63.28
-60.21
-52.35
-38.02
-17.82
5.27
27.08
44.05
54.77
60.31
63.51
67.44
73.91
82.76
92.06
99.09
101.30
96.95
85.16
65.57
38.07
3.00
-37.93
-81.17
-121.72
-154.99
-178.84
-194.43
-205.25
-214.97
-225.20
-235.45
-244.74
-253.93
-266.85
-288.63
-321.91
-363.69
-405.02
-434.05
-441.26
-423.56
-384.99
-334.22
-280.26
-229.02
-182.31
-139.13
-97.88
-57.81
-19.09
18.24
55.20
94.12
137.88
188.71
247.41
313.14
383.14
452.77
515.85
565.43
595.74
603.96
590.98
561.05
519.70
471.73
420.38
368.04
317.68
273.67
240.51
220.22
210.33
204.14
193.76
174.34
146.85
117.37
93.70
80.69
77.43
77.81
73.33
56.97
25.75
-18.89
-71.80
-124.91
-168.16
-190.74
-183.93
-144.70
-78.39
1.31
76.25
129.90
152.61
143.58
109.16
58.66
0.67
-58.32
-113.42
-160.20
-194.40
-213.14
-216.40
-207.44
-191.60
-174.49
-159.82
-148.68
-140.01
-131.55
-121.37
-108.83
-94.76
-80.96
-69.40
-61.16
-55.84
-51.69
-46.40
-38.26
-26.96
-13.70
-0.47
10.96
19.93
27.04
33.55
40.49
47.84
54.52
59.11
60.59
59.20
56.58
55.61
59.85
73.25
99.55
141.34
198.54
266.85
337.37
398.14
437.49
448.01
429.17
387.23
332.45
275.13
222.23
176.37
136.83
101.69
69.37
39.03
9.99
-18.80
-48.51
-79.65
-111.13
-140.42
-164.49
-181.01
-189.52
-191.47
-189.56
-186.56
-184.40
-183.81
-184.45
-185.51
-186.40
-186.93
-187.21
-187.69
-189.12
-192.29
-197.77
-205.41
-214.42
-223.71
-231.98
-238.12
-241.47
-242.08
-240.62
-238.07
-235.18
-232.40
-230.38
-229.36
-229.04
-228.64
-227.27
-224.23
-218.89
-210.46
-198.34
-183.67
-167.37
-149.23
-127.91
-102.13
-71.76
-37.85
-1.80
34.44
66.02
89.76
105.86
117.39
126.94
134.22
136.13
129.37
111.05
75.88
23.32
-40.22
-102.76
-152.21
-181.14
-188.32
-177.00
-156.07
-143.19
-153.42
-192.81
-256.64
-334.42
-415.81
-493.50
-562.30
-574.91
-502.82
-352.63
-164.39
18.88
173.60
294.29
376.43
433.84
474.39
495.02
492.72
469.12
430.80
384.88
336.28
288.41
245.94
210.94
179.25
147.10
114.21
84.10
60.66
45.35
37.15
35.03
36.44
36.29
31.39
21.68
10.03
-0.23
-7.37
-11.94
-15.38
-20.38
-29.41
-41.41
-51.09
-50.94
-35.40
-4.42
35.96
76.33
107.23
122.94
123.44
113.28
98.56
83.92
71.47
61.69
54.93
51.04
49.71
48.90
44.85
33.81
14.47
-10.63
-35.30
-51.39
-54.07
-43.04
-22.32
2.02
24.60
42.62
55.86
65.54
73.05
78.89
83.20
86.09
87.80
88.45
88.26
86.70
82.85
75.64
64.20
48.31
28.80
7.49
-13.20
-30.43
-41.74
-45.46
-41.20
-30.20
-15.05
0.92
14.34
22.54
24.12
18.99
8.28
-6.48
-22.86
-39.83
-56.69
-72.92
-88.07
-101.97
-114.90
-127.08
-137.80
-144.79
-144.46
-132.91
-108.38
-72.97
-32.63
4.77
32.65
48.30
53.32
51.81
48.10
44.60
41.41
37.56
32.50
27.00
22.71
21.05
22.15
24.88
27.33
27.55
24.73
19.38
13.08
7.82
5.06
5.14
7.24
9.62
10.30
8.15
3.17
-3.47
-9.91
-14.45
-16.28
-15.81
-14.60
-14.72
-17.62
-23.68
-31.89
-40.24
-46.55
-49.12
-46.52
-37.85
-22.91
-2.80
19.50
39.15
50.87
51.23
40.37
23.08
6.64
-2.46
-1.35
8.42
22.39
35.93
46.39
53.83
59.54
64.59
68.96
71.81
72.54
71.36
69.54
68.62
70.01
73.90
79.44
85.03
89.00
90.21
87.84
81.58
71.38
57.30
39.50
18.33
-5.59
-31.25
-57.35
-82.54
-105.71
-125.93
-142.40
-154.40
-160.95
-161.15
-154.86
-142.64
-126.26
-108.34
-91.78
-79.36
-73.50
-75.94
-87.37
-106.87
-130.84
-153.38
-167.54
-167.84
-152.58
-124.67
-90.33
-56.60
-28.72
-8.65
4.37
12.59
18.11
22.01
24.66
26.59
28.51
30.83
33.23
34.09
31.75
25.74
16.88
7.59
0.77
-1.63
0.28
4.60
8.07
8.28
5.27
1.17
-0.04
6.55
25.43
59.53
109.54
170.19
233.36
289.15
327.35
341.31
331.02
303.61
271.05
245.36
233.55
229.42
223.00
203.16
163.88
107.26
41.60
-23.69
-82.44
-133.12
-176.73
-213.88
-244.17
-265.83
-277.21
-278.57
-272.52
-263.16
-255.49
-251.18
-248.45
-243.62
-232.31
-211.12
-178.94
-137.11
-88.90
-39.06
8.07
49.79
84.96
113.69
136.50
153.68
165.04
170.01
168.53
161.45
150.45
137.44
124.31
112.38
102.19
93.58
85.80
78.44
71.59
65.54
60.59
56.90
54.31
52.30
52.18
52.40
52.06
50.98
49.15
46.61
43.27
39.03
33.64
27.00
19.04
10.39
1.92
-5.57
-11.59
-15.96
-18.53
-19.51
-19.23
-18.34
-17.12
-15.68
-13.65
-9.90
-2.77
8.86
23.86
38.05
44.68
37.04
10.98
-33.48
-92.46
-160.72
-230.98
-296.38
-350.99
-389.30
-405.81
-396.17
-359.10
-297.97
-220.71
-137.52
-57.91
12.16
71.18
121.10
165.40
207.30
249.10
292.58
339.37
390.34
444.49
497.92
543.75
573.57
580.26
560.80
517.65
457.91
390.50
323.08
260.23
203.34
152.01
105.57
63.84
26.64
-6.92
-38.98
-72.22
-108.65
-148.57
-190.54
-231.98
-270.57
-305.35
-337.05
-367.88
-400.78
-438.72
-483.68
-535.58
-591.25
-644.17
-685.50
-706.46
-701.47
-670.22
-617.89
-553.09
-484.66
-418.98
-359.02
-305.10
-256.61
-213.15
-174.69
-140.81
-110.10
-80.22
-48.88
-14.79
21.85
59.69
96.93
132.43
166.10
198.94
232.67
269.21
309.93
354.70
401.04
444.09
477.64
496.15
496.76
480.52
452.09
417.98
383.96
353.26
326.18
301.27
277.22
253.65
231.02
210.08
191.15
173.96
157.89
142.73
129.19
118.90
113.06
111.34
111.83
111.80
108.72
101.41
90.69
79.06
70.03
65.36
63.58
60.14
49.32
26.53
-9.57
-56.58
-111.70
-167.21
-213.73
-244.34
-257.40
-255.64
-242.89
-221.51
-192.63
-158.01
-120.79
-86.14
-59.77
-45.54
-42.86
-47.90
-55.13
-60.01
-61.29
-60.76
-63.08
-73.85
-97.68
-136.24
-187.52
-246.40
-303.25
-347.90
-371.34
-368.85
-342.53
-301.72
-260.40
-232.21
-224.95
-237.35
-260.08
-279.87
-285.71
-273.17
-245.11
-208.72
-171.23
-136.83
-106.19
-78.51
-53.46
-32.42
-17.46
-9.48
-6.92
-6.00
-2.50
6.54
21.46
40.14
59.39
76.72
91.43
104.76
118.99
136.16
156.99
180.45
204.32
226.29
245.23
261.70
278.04
297.25
321.61
351.11
382.62
410.40
427.79
429.70
414.69
385.81
349.58
313.60
283.64
261.68
245.60
230.72
212.17
187.16
156.06
121.96
89.30
61.98
41.95
28.70
19.78
12.11
3.25
-7.68
-20.10
-32.57
-43.89
-54.16
-65.05
-79.43
-100.11
-128.59
-164.13
-203.85
-243.43
-278.05
-303.23
-315.40
-312.34
-293.76
-261.72
-220.75
-176.91
-135.96
-101.24
-72.50
-46.72
-20.71
6.48
32.69
54.31
69.25
79.11
88.97
104.61
129.26
161.79
197.49
230.76
257.88
278.15
292.87
303.37
309.68
310.70
305.10
292.15
272.09
245.66
214.08
179.21
143.77
111.20
84.88
66.82
56.56
51.55
48.53
45.31
41.35
37.27
33.54
29.19
21.36
5.88
-20.61
-58.83
-106.28
-158.26
-209.93
-257.88
-299.55
-331.29
-349.68
-353.17
-342.88
-321.76
-293.38
-261.06
-227.32
-194.06
-162.78
-134.73
-110.92
-91.88
-77.41
-66.81
-59.03
-52.75
-46.55
-39.25
-30.35
-20.08
-9.25
1.33
11.04
19.64
27.38
34.94
42.37
48.95
53.02
52.49
45.71
31.76
10.59
-17.21
-49.77
-84.15
-115.82
-138.92
-147.79
-139.22
-114.52
-79.64
-43.22
-13.23
5.83
14.03
14.64
11.66
7.74
3.49
-1.57
-7.51
-13.51
-18.00
-19.92
-19.25
-17.03
-14.54
-12.84
-11.92
-10.88
-8.61
-4.47
1.38
8.00
14.16
19.05
22.66
25.83
29.84
35.63
43.33
52.16
60.84
68.23
74.01
78.69
83.28
88.51
94.18
99.06
101.41
99.63
93.12
82.88
70.77
59.24
50.78
47.51
50.88
60.94
75.69
88.67
92.68
81.27
51.62
6.47
-46.40
-96.78
-135.95
-159.54
-168.16
-165.53
-156.42
-144.82
-133.52
-124.39
-118.63
-116.23
-115.38
-112.70
-104.53
-89.02
-67.09
-42.28
-19.59
-4.03
0.20
-9.26
-31.98
-63.60
-95.83
-117.91
-120.35
-99.41
-59.53
-12.00
30.21
58.52
72.09
76.80
80.54
88.15
99.11
108.93
112.79
108.77
98.70
86.77
77.12
72.25
72.65
77.29
84.25
90.84
93.80
90.08
77.94
58.09
33.64
8.94
-12.18
-27.75
-37.96
-44.23
-47.88
-49.40
-48.55
-45.04
-39.26
-32.36
-25.73
-20.25
-15.76
-11.13
-4.91
3.88
15.11
27.51
39.29
49.08
56.51
62.32
67.90
74.32
81.72
89.16
95.09
98.05
97.19
92.42
84.20
73.30
60.59
46.94
33.13
19.63
6.48
-6.54
-19.56
-32.07
-42.80
-49.94
-51.86
-47.71
-37.82
-23.54
-7.13
8.96
22.64
32.57
38.45
41.04
41.91
42.96
45.82
50.95
57.91
65.71
73.45
80.56
86.90
92.56
97.71
102.60
106.60
109.31
110.91
112.44
115.34
120.45
127.28
134.12
138.62
137.43
128.21
110.29
84.62
53.08
17.31
-21.59
-62.67
-104.71
-147.85
-192.20
-237.73
-283.86
-329.53
-373.80
-416.00
-455.73
-480.79
-480.72
-449.88
-391.25
-315.03
-232.77
-152.80
-78.97
-12.07
47.78
98.58
138.06
164.78
178.57
182.78
181.03
176.14
169.63
161.21
148.47
129.01
101.77
67.86
30.23
-7.95
-44.74
-76.81
-103.36
-126.08
-147.98
-172.66
-203.11
-240.25
-282.07
-322.96
-354.36
-367.85
-358.27
-325.89
-276.62
-219.55
-163.29
-113.19
-70.35
-32.65
2.53
36.50
68.85
98.19
123.61
145.48
165.14
184.05
202.88
221.09
237.87
253.35
269.14
287.64
310.09
334.46
354.99
363.68
353.43
321.45
270.84
209.39
146.35
88.85
39.95
-1.36
-38.25
-74.14
-111.54
-152.12
-197.29
-248.03
-303.67
-360.47
-411.27
-446.93
-459.18
-444.00
-403.34
-344.58
-277.78
-212.19
-153.74
-104.67
-64.72
-32.69
-7.48
11.91
26.77
38.99
50.64
63.51
77.95
93.03
107.54
121.06
134.80
151.08
172.61
201.33
238.56
283.62
334.18
386.81
437.03
479.40
507.83
517.23
505.58
476.17
435.27
389.69
344.08
299.88
256.70
215.18
179.27
155.66
151.07
164.83
186.93
201.24
192.74
154.40
89.92
11.39
-74.55
-156.25
-223.14
-269.42
-295.24
-304.29
-300.10
-284.82
-260.18
-229.11
-193.48
-157.86
-128.27
-109.76
-104.70
-112.89
-132.89
-163.90
-202.59
-242.05
-274.01
-290.32
-285.42
-258.70
-215.37
-165.07
-118.27
-82.40
-59.57
-48.27
-45.40
-48.24
-55.30
-65.74
-78.48
-91.06
-99.90
-101.61
-94.86
-80.60
-61.30
-39.78
-17.89
3.41
24.03
44.82
66.56
88.96
110.32
127.99
139.30
142.64
138.23
128.23
116.30
106.12
100.09
98.50
99.53
100.17
97.63
90.73
80.38
69.37
60.84
56.83
57.42
61.26
66.21
70.36
71.94
68.95
59.07
40.74
14.91
-13.80
-38.38
-52.65
-54.62
-48.01
-40.42
-38.92
-45.79
-57.53
-66.90
-67.10
-55.59
-35.30
-12.97
4.22
11.72
8.91
-1.48
-14.83
-26.64
-34.09
-36.48
-34.96
-31.52
-27.71
-23.96
-19.71
-14.14
-7.21
-0.21
4.83
6.38
4.73
2.11
1.76
6.04
15.05
26.21
35.22
38.33
34.06
23.82
11.09
-0.32
-7.86
-11.01
-11.11
-10.75
-12.22
-16.64
-23.73
-32.14
-40.13
-46.33
-50.32
-50.66
-47.50
-41.52
-33.66
-24.80
-15.58
-6.41
2.71
12.09
22.25
33.18
44.47
55.09
63.85
69.86
73.04
74.28
75.13
77.03
80.36
84.29
86.92
86.14
80.54
70.04
55.84
39.79
23.72
8.71
-4.79
-16.65
-26.50
-33.48
-36.59
-35.47
-31.30
-27.09
-26.93
-34.22
-49.98
-71.98
-95.49
-115.09
-127.02
-130.69
-128.50
-124.58
-122.66
-124.52
-129.50
-134.92
-137.41
-134.13
-123.89
-107.57
-87.82
-68.01
-50.92
-37.51
-26.79
-16.58
-4.89
9.00
24.20
38.96
51.64
61.57
69.20
75.60
81.73
87.96
94.02
99.07
101.96
101.45
96.47
86.47
71.89
54.26
36.09
20.13
8.30
1.04
-2.69
-4.69
-6.37
-8.20
-9.77
-10.53
-10.49
-10.38
-11.06
-12.66
-14.21
-14.09
-11.15
-5.62
0.87
6.04
8.15
6.70
2.41
-3.44
-9.81
-16.13
-22.25
-28.03
-33.05
-36.55
-37.70
-36.02
-31.72
-25.78
-19.63
-14.79
-12.26
-12.19
-13.85
-16.00
-17.45
-17.70
-17.01
-16.16
-15.78
-15.93
-15.97
-15.01
-12.65
-9.42
-6.71
-6.03
-8.04
-12.02
-15.83
-16.73
-12.45
-2.10
13.69
33.07
53.65
73.10
89.54
101.78
109.38
112.73
113.01
111.75
110.22
108.82
106.77
102.51
94.53
82.17
66.24
48.75
32.35
19.17
9.93
3.45
-2.88
-11.89
-25.33
-43.02
-62.81
-81.52
-96.13
-104.64
-106.10
-100.15
-86.42
-64.61
-35.44
-1.76
31.15
56.70
69.41
67.36
53.21
33.15
13.98
0.56
-5.69
-6.45
-5.01
-4.68
-7.96
-16.91
-33.43
-58.70
-91.63
-127.88
-160.64
-183.34
-192.68
-189.91
-179.50
-165.94
-151.10
-133.52
-110.32
-79.80
-43.19
-4.08
33.62
67.45
96.65
120.08
135.41
139.44
129.85
106.98
74.77
40.40
12.85
0.51
7.17
31.85
69.68
113.69
156.42
191.71
216.23
230.03
235.67
233.83
224.33
207.51
185.47
161.35
137.77
115.62
93.79
69.50
36.19
-11.86
-76.16
-152.60
-233.92
-313.21
-386.06
-450.83
-487.71
-481.42
-430.58
-351.14
-264.58
-185.55
-119.43
-65.69
-21.48
16.38
47.09
68.95
81.55
87.14
89.33
91.27
95.01
101.73
111.82
122.86
131.19
133.90
130.19
120.76
106.80
89.61
70.65
51.19
31.47
11.03
-10.54
-32.55
-53.62
-72.83
-89.92
-104.89
-116.94
-124.42
-124.41
-113.57
-89.92
-54.94
-14.33
24.10
53.64
71.36
78.38
78.30
74.88
70.41
65.28
59.10
52.17
45.98
42.61
43.29
47.37
52.53
55.98
55.65
51.43
45.20
39.87
38.03
40.71
46.76
53.41
57.70
57.73
53.50
46.80
40.14
35.66
34.40
36.09
39.32
41.69
40.00
30.97
12.39
-15.64
-49.90
-84.61
-113.40
-131.63
-138.13
-135.19
-126.71
-116.03
-104.68
-92.44
-78.91
-64.84
-52.38
-44.41
-43.21
-49.26
-60.74
-73.72
-82.70
-82.18
-68.43
-41.19
-4.36
35.01
69.52
94.37
109.09
116.94
122.37
128.18
133.97
136.85
133.88
124.60
111.87
100.61
95.44
98.61
109.39
125.17
142.49
158.33
170.19
176.05
174.78
167.11
156.27
147.42
145.46
151.85
162.77
170.34
166.28
146.19
111.66
69.00
25.15
-14.96
-50.24
-83.24
-117.30
-153.47
-189.41
-220.87
-244.41
-259.80
-270.08
-280.25
-294.86
-316.28
-344.29
-376.88
-411.11
-443.66
-470.87
-488.89
-494.58
-486.62
-466.33
-437.39
-404.51
-371.39
-339.23
-306.49
-270.10
-227.50
-178.13
-123.70
-67.36
-12.36
38.94
85.33
126.35
161.84
191.61
215.71
235.12
252.17
270.06
291.60
317.50
345.24
369.44
383.65
383.32
368.14
342.58
314.23
290.67
276.34
270.99
270.28
267.97
258.49
238.45
206.91
164.60
113.18
54.96
-6.77
-67.41
-121.35
-163.11
-189.11
-199.15
-196.72
-187.63
-177.47
-169.21
-161.95
-151.72
-133.78
-105.16
-66.23
-20.74
25.44
66.31
97.25
115.93
122.17
117.47
104.48
86.65
67.84
52.10
43.05
43.15
53.12
71.63
95.46
120.59
143.49
162.25
176.88
188.77
199.39
209.29
217.79
223.54
225.50
223.59
218.84
212.93
207.81
205.21
206.44
211.97
220.95
230.96
238.12
238.05
227.06
203.24
166.82
119.73
65.01
6.28
-52.36
-106.38
-151.13
-182.78
-199.65
-203.07
-197.28
-188.26
-181.79
-181.28
-186.25
-192.17
-192.03
-179.29
-150.96
-110.09
-65.54
-29.29
-11.94
-18.41
-45.29
-81.34
-111.31
-121.29
-104.42
-63.94
-12.29
33.38
57.36
50.67
13.78
-44.58
-110.67
-169.99
-210.56
-224.72
-210.42
-171.87
-119.29
-66.76
-28.13
-11.49
-15.55
-30.09
-41.10
-38.17
-20.03
4.93
23.53
25.75
10.66
-13.31
-33.89
-42.43
-39.78
-35.73
-42.79
-68.25
-108.95
-152.50
-184.34
-195.99
-189.01
-173.08
-159.09
-152.18
-149.38
-142.25
-122.72
-87.91
-41.43
9.14
55.55
91.56
113.50
119.56
109.29
84.05
47.20
3.45
-43.59
-93.27
-147.55
-208.37
-274.21
-337.84
-387.75
-412.59
-406.12
-370.04
-313.12
-246.66
-179.92
-117.31
-58.32
-0.36
58.16
116.41
172.13
223.18
269.66
313.32
356.07
398.07
436.69
467.05
483.32
481.31
459.01
418.22
363.52
301.78
240.92
188.14
148.48
123.38
111.15
106.24
102.16
92.23
71.62
38.22
-7.45
-62.48
-122.71
-182.97
-240.09
-283.72
-303.74
-294.07
-256.63
-200.73
-137.55
-82.72
-38.33
-4.49
18.72
30.16
29.19
18.69
1.90
-17.23
-35.69
-51.56
-66.30
-82.50
-103.34
-131.08
-166.21
-206.89
-248.38
-284.11
-306.29
-309.77
-292.74
-257.46
-209.17
-154.23
-98.01
-42.94
11.20
66.16
121.72
174.30
216.59
239.38
234.96
200.84
142.21
71.47
5.02
-42.52
-62.76
-54.68
-22.90
24.99
80.89
136.81
184.48
215.65
222.84
201.09
151.24
80.87
2.43
-70.03
-124.55
-153.86
-155.69
-132.94
-93.41
-45.07
6.65
58.86
110.01
157.65
196.80
221.34
225.19
203.12
156.21
93.17
26.70
-30.04
-66.63
-77.45
-60.67
-19.30
37.18
98.65
157.97
210.88
256.69
297.72
327.02
338.53
344.72
348.73
341.49
318.07
277.43
222.67
159.80
95.45
36.45
-12.30
-50.48
-77.46
-90.63
-88.44
-72.06
-46.34
-19.01
3.16
15.97
17.00
8.17
-5.13
-18.31
-29.30
-38.93
-49.85
-64.18
-82.99
-107.64
-138.21
-173.26
-211.18
-250.37
-289.22
-326.11
-358.76
-384.44
-400.90
-406.13
-399.32
-382.33
-359.52
-336.11
-315.60
-297.53
-277.57
-249.61
-208.55
-152.76
-85.13
-12.14
58.33
118.99
164.48
191.80
200.48
192.42
171.69
143.60
113.39
84.77
58.73
33.37
4.70
-31.65
-78.16
-133.17
-190.33
-240.04
-272.92
-283.53
-272.56
-246.08
-212.45
-178.38
-146.53
-115.48
-81.85
-42.99
1.48
49.81
99.31
147.71
193.64
236.19
274.39
307.02
332.98
351.94
365.19
375.69
387.17
402.38
421.09
438.99
448.80
443.14
417.84
374.21
318.60
259.72
204.79
157.06
115.71
78.22
43.38
13.03
-8.48
-16.76
-9.81
10.68
39.93
71.65
99.59
118.73
125.72
119.12
99.32
68.64
30.87
-9.64
-49.28
-86.05
-119.69
-151.12
-181.73
-213.35
-247.10
-282.41
-315.93
-341.51
-351.74
-340.44
-305.39
-249.83
-182.99
-116.25
-59.21
-16.72
11.20
27.49
35.73
39.07
40.11
39.23
36.62
32.82
29.01
26.18
23.98
20.68
14.11
2.56
-17.42
-48.69
-92.52
-147.31
-209.29
-274.12
-338.18
-398.74
-437.06
-437.28
-393.11
-313.59
-217.13
-120.77
-34.27
39.20
100.39
151.34
191.59
220.28
236.73
242.60
241.48
237.62
233.63
230.52
227.96
222.98
212.56
194.09
167.87
136.68
104.16
73.10
44.62
17.87
-11.07
-39.90
-67.88
-93.65
-115.47
-131.77
-141.72
-145.17
-142.91
-137.09
-129.97
-124.49
-122.31
-124.09
-129.53
-137.05
-143.17
-142.72
-130.57
-103.68
-64.16
-18.28
25.30
58.89
78.64
85.50
83.73
78.28
72.47
66.75
60.33
52.64
44.35
37.05
32.18
29.93
29.14
27.96
24.31
17.37
7.56
-3.66
-14.55
-23.68
-30.47
-35.11
-38.07
-40.06
-40.63
-38.94
-34.00
-25.27
-12.99
1.62
16.61
29.78
39.19
43.74
43.14
37.99
29.36
18.55
6.77
-4.93
-15.68
-24.78
-31.60
-35.77
-37.13
-35.92
-32.82
-28.83
-24.99
-22.26
-21.36
-22.55
-25.77
-30.54
-36.38
-42.97
-50.21
-58.12
-66.74
-76.03
-85.77
-95.60
-104.87
-113.12
-120.15
-126.11
-131.28
-135.75
-139.13
-140.23
-138.95
-134.44
-126.20
-114.49
-100.48
-85.90
-72.33
-60.51
-49.89
-38.85
-25.10
-6.88
16.27
43.16
71.41
98.37
122.22
142.84
162.03
183.16
209.71
243.75
284.51
327.64
365.86
390.89
396.33
380.18
346.26
303.16
261.56
230.37
213.31
207.46
204.34
193.37
166.25
120.56
61.05
-1.94
-55.94
-90.28
-99.14
-82.67
-46.18
1.60
50.65
91.81
118.59
128.37
122.77
106.87
86.91
67.71
51.17
36.62
22.94
10.70
2.93
3.31
13.34
30.07
46.95
57.39
59.18
56.87
60.09
78.59
116.54
169.66
227.14
276.88
311.07
328.83
334.88
335.65
335.55
335.46
333.51
327.28
315.79
299.91
281.47
262.23
243.03
223.80
203.96
182.93
160.56
137.27
114.13
92.65
74.25
59.58
48.07
38.05
27.50
15.02
0.25
-16.08
-32.69
-48.53
-63.17
-76.90
-90.35
-104.03
-117.97
-131.75
-144.79
-156.86
-168.32
-180.14
-193.46
-209.05
-226.89
-246.18
-265.66
-284.28
-301.69
-318.43
-335.61
-354.27
-374.78
-396.42
-417.83
-437.43
-454.28
-468.49
-481.18
-494.23
-509.97
-530.97
-559.41
-596.13
-639.15
-682.97
-719.17
-738.67
-735.03
-707.02
-659.20
-599.93
-538.19
-480.45
-429.55
-385.35
-346.64
-312.67
-283.53
-259.50
-239.98
-223.26
-206.96
-189.11
-168.90
-146.86
-124.55
-103.66
-85.25
-69.45
-55.47
-42.04
-28.01
-12.72
3.85
21.18
38.60
55.48
71.53
86.90
102.26
118.71
137.46
159.57
185.47
214.72
245.80
276.48
304.36
327.89
347.22
364.41
383.03
406.49
436.16
469.85
501.96
525.72
536.26
532.61
517.73
496.39
472.66
448.46
423.71
397.33
368.33
335.97
299.36
257.25
209.05
156.44
104.09
58.36
24.03
0.81
-17.82
-41.54
-77.96
-127.38
-181.26
-225.27
-245.56
-235.26
-197.79
-145.83
-95.79
-60.76
-45.65
-46.27
-52.84
-55.52
-48.82
-33.24
-13.51
5.25
21.03
35.99
55.14
83.57
123.83
174.37
229.83
282.30
323.26
345.84
347.38
330.84
304.10
277.11
257.38
246.14
238.14
224.90
199.69
161.71
116.35
71.73
33.74
3.07
-24.91
-56.81
-97.45
-147.50
-202.75
-256.02
-299.53
-326.90
-334.62
-323.03
-295.99
-259.67
-220.50
-182.53
-147.04
-113.07
-78.95
-43.77
-7.74
29.01
67.79
107.27
146.84
184.67
217.51
241.59
253.96
253.04
239.23
214.88
183.84
151.41
122.64
101.20
88.48
83.14
81.37
78.00
68.00
48.13
18.81
-16.34
-51.72
-82.06
-104.51
-119.44
-129.59
-138.07
-146.64
-154.59
-159.87
-160.67
-156.82
-150.04
-142.95
-137.52
-134.12
-131.64
-128.12
-122.45
-114.97
-107.16
-100.70
-96.50
-94.14
-92.31
-89.98
-86.62
-81.96
-75.05
-64.00
-46.91
-23.19
5.44
35.44
62.65
84.08
98.87
107.89
112.35
112.71
108.74
100.41
88.91
76.64
66.37
59.58
55.42
50.52
40.49
22.22
-4.33
-35.21
-63.55
-81.80
-85.03
-73.14
-51.05
-26.49
-6.63
5.09
9.90
12.08
16.46
26.22
41.77
61.15
81.28
98.77
110.79
115.49
111.83
100.05
81.79
59.43
35.02
10.31
-13.14
-33.10
-46.05
-49.26
-41.38
-23.13
2.65
31.01
58.48
81.95
99.75
112.22
118.43
117.45
109.64
96.78
80.65
63.63
47.72
34.17
24.62
16.88
7.47
-6.57
-28.36
-61.66
-108.13
-166.04
-230.16
-291.34
-344.77
-388.87
-424.27
-439.25
-425.50
-381.49
-314.81
-252.87
-200.06
-156.03
-120.62
-89.69
-65.24
-52.25
-54.41
-72.02
-100.80
-130.44
-152.27
-159.20
-141.33
-98.65
-42.74
9.04
43.14
56.54
58.96
58.86
61.55
69.37
79.71
89.79
98.82
108.64
122.46
143.97
173.26
208.63
247.43
285.55
318.85
344.00
359.08
363.57
358.72
345.76
326.65
303.81
278.96
253.71
229.87
209.52
194.41
185.29
180.94
179.18
177.90
175.59
171.92
166.96
160.09
149.27
131.43
103.72
65.34
18.23
-33.79
-86.28
-135.70
-180.18
-219.24
-253.25
-283.09
-310.19
-336.74
-365.21
-396.82
-429.58
-457.84
-473.35
-468.44
-439.55
-389.00
-323.92
-252.94
-182.82
-117.10
-57.38
-5.49
34.82
58.45
61.46
43.45
7.94
-39.43
-93.44
-150.68
-208.31
-261.97
-304.38
-326.43
-320.83
-285.90
-227.19
-155.50
-82.60
-16.71
39.58
88.37
133.71
178.45
222.91
265.66
305.29
341.61
375.35
406.84
434.47
454.46
461.80
452.75
426.79
387.05
338.97
287.63
235.98
184.74
134.18
85.97
44.07
13.54
-1.86
-1.84
9.18
24.14
35.94
39.94
34.94
23.04
8.80
-1.96
-3.72
5.43
23.55
45.31
64.26
75.27
76.19
68.20
54.37
37.84
18.82
-2.64
-24.45
-41.70
-48.91
-44.25
-31.76
-20.36
-19.89
-39.02
-80.12
-138.66
-205.60
-271.89
-332.53
-386.73
-435.93
-465.47
-462.07
-420.43
-348.48
-262.34
-176.58
-99.91
-35.12
18.44
62.84
97.77
122.29
136.04
139.51
135.78
127.67
117.66
108.19
101.53
97.92
96.94
98.24
101.81
107.85
115.52
123.14
129.97
133.81
131.26
119.18
97.19
67.43
34.48
2.96
-23.94
-44.29
-57.93
-65.70
-68.83
-68.35
-65.25
-60.28
-54.28
-48.22
-42.46
-37.67
-34.46
-33.23
-33.86
-36.11
-39.45
-43.35
-50.08
-57.56
-63.93
-67.43
-66.50
-60.09
-47.74
-29.63
-7.06
18.19
44.34
69.30
91.08
108.02
118.65
121.84
116.85
102.46
80.62
53.34
22.75
-8.92
-39.57
-67.67
-92.10
-117.15
-143.61
-170.66
-196.64
-219.67
-237.93
-249.97
-255.19
-253.92
-234.35
-195.22
-140.91
-78.66
-15.96
41.27
89.55
127.66
156.13
176.49
189.43
196.41
199.44
200.51
200.97
201.63
202.75
204.18
205.45
205.65
203.66
199.29
192.88
184.53
174.65
163.71
152.23
140.56
128.39
115.85
103.66
92.15
80.92
69.82
58.89
48.27
38.00
27.61
16.56
3.91
-7.95
-19.44
-31.47
-45.08
-61.03
-79.91
-101.81
-126.05
-151.12
-177.20
-204.99
-234.16
-263.29
-289.95
-311.41
-324.69
-327.20
-317.50
-298.50
-275.27
-253.07
-236.22
-228.06
-231.34
-248.19
-280.30
-309.58
-322.15
-310.30
-273.96
-218.02
-149.51
-76.94
-9.54
44.41
80.44
96.65
95.62
82.77
63.96
43.33
21.90
2.40
-11.67
-16.56
-11.48
2.87
24.73
52.21
83.13
114.97
144.76
170.51
191.65
206.88
215.22
216.08
209.70
196.41
177.98
156.90
135.63
116.58
100.38
86.60
74.06
64.66
55.08
43.54
29.36
12.46
-6.29
-26.47
-47.74
-69.81
-92.24
-115.02
-137.26
-158.05
-176.75
-192.25
-204.15
-212.61
-218.02
-220.88
-221.86
-220.53
-215.43
-210.11
-205.24
-200.87
-196.62
-191.84
-185.82
-178.16
-168.32
-156.11
-141.81
-125.21
-106.72
-87.10
-67.31
-48.34
-31.20
-16.50
-4.63
4.26
10.94
16.19
20.79
25.42
30.54
36.29
42.53
48.74
54.10
58.08
60.03
59.41
55.92
49.54
40.60
29.72
17.66
5.26
-6.48
-16.78
-25.19
-31.55
-36.01
-38.96
-40.80
-41.98
-42.89
-43.71
-44.56
-45.51
-46.65
-48.18
-50.41
-53.58
-57.87
-63.30
-69.58
-76.19
-82.37
-87.27
-90.12
-90.33
-87.47
-81.21
-71.35
-57.77
-40.52
-20.01
2.88
26.79
50.09
71.23
89.18
103.66
115.20
124.83
133.66
142.46
151.39
160.05
167.82
174.43
180.33
186.75
195.30
207.46
223.91
244.24
266.90
289.63
310.15
326.90
339.63
349.88
360.97
377.19
401.85
434.99
471.57
501.63
513.02
495.90
447.29
373.30
287.71
207.42
147.28
116.18
115.89
142.10
186.25
237.26
282.77
311.09
314.23
290.91
247.99
198.41
155.87
128.83
116.77
111.05
100.02
75.47
36.79
-9.17
-51.95
-82.59
-97.07
-96.37
-84.68
-66.86
-47.07
-29.34
-18.60
-20.39
-39.02
-74.84
-122.22
-170.60
-208.22
-227.19
-227.16
-214.91
-200.09
-189.40
-182.53
-172.56
-150.71
-112.25
-60.28
-5.19
40.27
66.90
73.21
65.33
53.26
45.75
46.61
53.90
61.97
65.13
60.19
47.42
29.04
7.32
-17.22
-45.98
-80.98
-123.08
-171.05
-222.24
-273.60
-322.88
-368.42
-407.61
-435.92
-447.73
-439.09
-410.94
-370.12
-326.90
-290.06
-262.50
-239.87
-213.55
-175.79
-124.09
-62.21
2.40
62.77
115.36
160.12
198.39
230.56
255.54
271.77
279.54
282.54
287.57
302.45
333.15
380.75
439.64
498.74
544.64
566.12
558.07
522.90
468.92
406.61
344.60
287.22
234.73
185.51
138.54
94.79
56.74
26.75
5.43
-9.10
-20.46
-32.71
-48.71
-69.20
-93.08
-118.40
-143.53
-168.03
-192.90
-220.09
-251.75
-289.79
-335.60
-389.89
-451.93
-518.62
-583.73
-638.54
-673.96
-683.44
-665.46
-624.13
-567.57
-504.87
-442.96
-385.13
-331.45
-280.44
-230.83
-182.28
-135.13
-89.68
-45.57
-1.93
42.08
86.78
131.78
176.37
220.35
264.62
310.43
357.97
404.51
444.02
468.62
471.75
451.49
412.09
362.74
314.14
274.44
246.80
229.44
217.77
207.13
194.65
179.43
161.72
141.64
118.67
92.06
61.37
26.90
-10.44
-49.67
-90.41
-132.87
-176.92
-220.68
-259.65
-287.02
-296.21
-284.59
-256.28
-222.01
-195.39
-186.85
-198.61
-223.39
-247.53
-257.15
-243.93
-207.65
-154.44
-92.44
-27.65
36.95
100.18
160.48
214.93
259.85
292.35
311.82
320.28
321.22
317.73
310.90
299.12
278.94
247.03
202.38
147.59
88.74
33.46
-12.12
-45.51
-68.28
-84.32
-97.15
-108.11
-117.07
-124.65
-133.72
-148.31
-170.64
-198.53
-225.20
-242.11
-243.80
-231.18
-211.19
-192.98
-182.29
-178.14
-173.61
-159.76
-130.43
-84.92
-27.51
35.04
96.53
152.74
201.24
240.08
267.35
281.21
280.62
266.35
241.19
209.17
174.73
142.01
114.44
94.37
82.40
77.21
76.39
78.14
82.84
92.99
111.12
136.47
163.08
181.37
183.22
167.56
142.47
121.59
116.78
130.95
156.28
178.36
183.97
167.71
133.25
89.07
42.32
-4.63
-53.26
-104.60
-154.98
-195.09
-213.38
-201.94
-161.46
-102.49
-42.19
1.88
17.80
2.71
-37.56
-92.45
-151.51
-208.04
-260.37
-310.63
-362.47
-418.44
-478.25
-538.15
-591.69
-631.63
-652.06
-650.45
-628.60
-591.91
-547.41
-500.98
-455.96
-413.02
-371.47
-330.80
-291.51
-254.53
-220.09
-186.79
-151.80
-112.38
-67.54
-18.78
30.23
75.12
112.99
143.68
169.85
195.50
223.45
253.71
283.26
307.69
323.24
328.46
324.30
313.44
299.30
285.70
276.83
277.03
289.55
314.74
348.93
384.77
413.60
428.62
427.19
411.03
384.67
352.91
319.24
285.71
253.62
224.46
200.02
181.89
170.69
165.69
164.99
166.23
167.30
166.63
163.35
157.31
148.95
139.32
130.04
122.92
119.52
120.73
126.52
136.33
149.25
164.32
180.54
196.61
210.69
220.39
223.19
217.20
202.05
179.36
152.34
124.84
100.02
79.24
61.82
45.56
27.94
7.51
-15.56
-39.62
-62.34
-81.95
-97.86
-111.05
-123.61
-138.04
-156.35
-179.39
-206.69
-236.73
-267.30
-296.08
-321.08
-341.11
-356.10
-367.38
-377.90
-391.51
-411.42
-438.18
-468.33
-494.68
-508.66
-503.63
-477.54
-433.68
-379.04
-321.54
-267.22
-218.99
-176.89
-139.51
-105.42
-74.24
-46.73
-24.34
-8.59
-0.39
0.32
-5.30
-15.07
-26.16
-35.29
-39.02
-34.20
-18.73
7.50
42.14
80.72
118.06
149.77
173.37
188.18
194.59
193.32
185.22
171.87
156.07
141.77
132.84
131.75
138.64
151.62
168.25
187.24
209.20
236.20
270.29
311.68
357.72
402.83
439.60
460.63
460.46
437.10
392.61
332.41
263.34
191.61
120.99
52.58
-14.26
-80.13
-144.18
-203.99
-256.50
-299.72
-333.83
-361.20
-385.39
-410.04
-437.96
-470.78
-508.42
-548.57
-586.43
-614.84
-625.94
-613.56
-575.83
-516.86
-446.02
-374.80
-312.44
-262.89
-224.63
-193.40
-165.90
-141.87
-123.93
-115.09
-116.12
-124.52
-135.45
-143.88
-146.48
-142.52
-132.88
-119.05
-102.28
-83.69
-64.62
-46.83
-31.74
-19.91
-10.71
-2.54
6.76
19.65
38.11
62.63
91.45
120.64
145.46
162.52
171.55
175.82
180.45
189.49
203.47
218.72
229.17
229.54
218.21
198.41
177.00
161.69
158.28
168.89
191.86
222.70
255.59
284.71
305.33
314.41
310.68
294.67
268.56
235.68
199.89
164.83
133.64
108.83
92.08
83.83
82.81
85.68
87.44
82.62
67.04
39.59
2.97
-36.66
-71.49
-94.10
-99.52
-86.12
-55.30
-10.48
44.35
105.94
172.25
241.93
312.93
380.97
438.88
478.14
491.64
476.72
436.71
380.12
317.51
257.82
205.90
162.39
125.25
92.00
61.26
32.75
6.55
-17.94
-42.03
-67.07
-93.72
-121.56
-149.53
-176.38
-201.53
-225.30
-248.76
-272.98
-298.42
-324.71
-350.72
-375.03
-396.22
-413.44
-426.98
-438.58
-451.01
-466.68
-486.03
-506.03
-520.34
-521.17
-502.68
-463.59
-407.92
-343.39
-278.37
-219.17
-168.56
-126.55
-91.87
-63.28
-39.94
-20.73
-3.85
13.25
33.23
57.99
87.94
122.01
158.21
194.59
230.11
265.07
300.49
336.77
372.28
402.36
419.31
414.37
380.42
314.37
218.44
100.01
-29.85
-157.73
-269.67
-353.67
-402.00
-413.06
-391.93
-348.49
-294.41
-239.93
-190.33
-145.15
-100.67
-52.45
2.58
65.46
136.26
213.19
290.21
358.96
410.61
437.82
438.40
417.89
388.72
367.62
367.42
388.37
421.78
454.68
473.20
468.15
437.23
383.97
317.37
245.54
168.16
84.74
-1.02
-83.65
-154.44
-203.83
-224.34
-210.07
-162.18
-95.09
-23.29
45.95
109.42
169.57
231.27
274.34
281.65
282.79
286.95
277.98
249.74
200.82
135.64
61.27
-15.28
-85.26
-142.78
-191.69
-237.33
-272.58
-296.60
-308.13
-307.62
-298.11
-282.11
-263.85
-253.22
-255.78
-268.34
-284.92
-297.84
-302.84
-301.54
-298.55
-299.50
-309.60
-326.70
-341.29
-344.88
-333.31
-309.06
-278.63
-246.76
-214.21
-180.08
-143.48
-106.68
-77.26
-63.07
-66.70
-82.00
-94.98
-90.01
-57.77
1.23
77.82
158.62
232.54
293.92
341.94
377.38
399.67
406.46
395.34
366.47
323.72
273.67
223.18
176.78
135.80
98.60
62.01
22.78
-21.57
-72.32
-129.80
-193.04
-259.12
-322.40
-374.78
-407.09
-411.70
-385.46
-331.08
-256.50
-172.15
-87.60
-8.95
61.65
124.70
181.39
232.04
275.57
309.90
333.16
344.53
344.68
335.52
319.57
298.88
274.01
243.85
206.27
159.41
103.26
40.93
-21.20
-74.56
-110.66
-123.88
-113.47
-84.13
-44.49
-4.46
27.67
47.05
52.27
44.12
24.48
-4.36
-39.38
-76.50
-111.16
-139.61
-160.53
-175.55
-188.03
-200.52
-212.57
-220.07
-216.71
-196.53
-156.77
-99.31
-31.01
37.56
94.33
128.47
132.76
105.24
49.84
-24.16
-103.63
-174.29
-223.49
-242.98
-230.67
-190.78
-132.29
-66.18
-1.97
54.67
102.31
142.34
176.09
202.48
217.46
215.53
192.54
148.43
88.41
22.60
-36.15
-75.40
-86.42
-66.20
-18.16
48.92
123.31
193.22
249.42
286.98
305.55
308.44
301.04
288.85
275.64
262.40
247.11
225.63
193.55
148.54
92.67
33.20
-19.30
-54.94
-69.03
-64.84
-52.96
-47.22
-59.00
-92.24
-141.49
-193.76
-233.48
-248.61
-235.26
-199.12
-152.78
-110.34
-81.38
-67.25
-61.48
-53.81
-36.10
-6.92
27.79
58.03
74.93
74.84
60.15
36.55
9.43
-19.12
-50.69
-88.21
-132.95
-182.81
-232.65
-276.41
-309.83
-331.30
-341.10
-339.66
-326.23
-299.47
-259.42
-209.31
-155.53
-105.50
-64.23
-32.07
-5.35
20.39
46.16
67.58
76.78
67.23
38.76
-0.13
-34.99
-51.59
-42.35
-10.00
34.19
76.03
104.48
115.05
109.26
90.90
62.78
26.29
-16.56
-60.21
-94.72
-108.21
-91.58
-42.80
31.48
118.30
203.30
275.66
331.00
370.72
399.24
420.35
434.87
440.14
431.47
404.67
358.08
293.90
217.62
136.49
57.59
-13.42
-73.02
-119.96
-155.00
-180.64
-200.69
-219.90
-243.05
-273.55
-311.54
-352.69
-388.74
-409.38
-405.54
-372.48
-312.00
-231.99
-143.80
-58.49
16.90
80.13
133.18
179.82
222.94
262.28
293.36
308.92
301.88
269.07
211.62
135.36
49.84
-33.55
-103.90
-153.46
-178.84
-180.61
-161.13
-125.68
-80.64
-31.58
17.76
65.48
110.06
150.36
186.29
220.36
253.05
281.06
297.57
294.49
266.08
211.32
135.79
41.90
-53.96
-130.85
-175.64
-189.85
-186.97
-178.78
-171.99
-169.81
-173.67
-181.33
-192.00
-204.71
-216.64
-222.41
-215.57
-193.08
-156.89
-112.64
-65.68
-20.66
19.81
54.84
83.44
103.17
108.26
91.82
50.08
-13.68
-90.43
-167.53
-232.17
-274.46
-288.55
-275.12
-240.10
-191.53
-135.98
-77.98
-20.04
36.03
88.29
135.92
176.70
208.07
229.07
241.70
249.81
257.26
266.58
279.16
297.41
321.04
346.05
365.75
372.90
361.90
330.31
279.24
199.27
96.03
-12.39
-105.35
-170.74
-207.19
-219.08
-212.18
-194.74
-174.11
-155.99
-146.17
-148.28
-160.28
-174.08
-178.27
-161.10
-117.73
-53.17
19.76
82.91
118.67
117.32
80.03
17.62
-52.98
-114.89
-155.37
-167.20
-149.68
-107.94
-49.45
17.23
78.11
120.36
138.33
134.74
116.16
93.12
68.39
44.60
25.25
13.33
10.81
16.32
27.52
41.01
52.89
58.62
52.60
31.39
-3.22
-43.00
-77.91
-101.25
-112.15
-113.48
-109.10
-100.91
-89.22
-74.09
-56.55
-39.60
-26.63
-19.76
-19.45
-22.57
-24.60
-20.55
-6.28
20.27
56.69
96.51
130.36
148.68
146.13
124.88
94.74
69.05
58.35
64.07
79.75
93.50
92.80
71.26
32.28
-12.92
-52.55
-81.84
-106.95
-137.22
-177.30
-222.24
-258.91
-272.75
-256.76
-216.96
-160.65
-108.71
-81.30
-82.96
-100.02
-112.57
-107.60
-84.42
-51.07
-17.73
7.77
24.75
36.73
48.19
59.13
66.36
66.25
57.99
44.85
32.44
27.86
37.00
58.76
85.01
105.71
114.19
109.72
96.72
80.78
66.70
56.60
49.72
43.56
36.45
28.49
20.91
14.95
10.75
7.98
6.00
4.69
3.60
3.41
5.72
12.27
23.88
39.81
58.13
76.43
92.79
105.30
113.35
117.73
120.39
123.53
128.74
136.16
143.88
148.08
142.33
120.33
78.52
17.67
-57.89
-141.22
-222.95
-295.02
-343.99
-361.33
-347.62
-312.16
-267.08
-221.38
-179.16
-141.02
-106.24
-73.82
-44.31
-18.71
2.43
19.34
32.10
41.25
46.11
45.81
40.62
32.01
23.45
19.82
25.52
41.63
64.31
86.53
102.00
108.02
105.31
97.07
87.10
77.85
70.45
65.31
62.84
63.84
68.55
75.63
82.46
86.24
84.67
77.52
67.22
56.17
47.38
43.30
44.86
50.92
58.13
60.86
53.63
32.96
-1.02
-43.73
-87.66
-125.05
-150.64
-159.68
-154.90
-142.04
-126.29
-110.50
-95.18
-80.14
-65.82
-53.60
-44.93
-40.78
-39.99
-40.14
-38.80
-34.75
-28.59
-22.06
-17.03
-14.36
-13.85
-13.63
-11.43
-5.63
3.74
15.00
25.57
32.84
34.67
29.71
18.38
3.13
-11.62
-20.45
-18.88
-5.06
18.18
44.43
66.23
78.40
79.86
73.50
64.08
55.49
49.16
44.12
38.68
31.89
24.11
16.47
10.16
5.64
2.47
-0.17
-2.80
-5.16
-6.14
-4.52
0.29
8.22
18.43
29.63
40.80
51.29
60.64
67.63
69.62
62.89
44.51
13.91
-26.24
-70.16
-110.53
-140.80
-157.21
-158.05
-146.94
-128.61
-107.15
-85.64
-66.22
-50.13
-37.27
-25.16
-10.45
9.86
37.22
69.75
102.27
128.18
140.73
139.07
126.73
109.11
90.69
73.71
58.18
43.54
30.17
19.95
14.05
12.23
12.29
11.27
7.31
0.01
-10.06
-22.58
-37.87
-55.72
-73.82
-87.34
-90.33
-79.09
-55.26
-26.18
-2.32
7.27
-0.82
-23.20
-51.97
-78.55
-97.10
-105.94
-106.10
-99.41
-87.11
-69.74
-48.01
-23.95
-1.11
16.36
24.41
21.90
12.00
0.88
-5.13
-2.68
6.71
17.37
22.53
18.19
5.71
-8.85
-18.65
-19.13
-9.35
8.54
31.23
55.70
80.03
103.10
123.44
136.94
138.86
126.97
103.53
75.71
53.20
45.38
58.83
95.93
151.69
216.39
278.87
328.38
355.84
353.97
319.19
253.93
167.68
71.09
-25.62
-114.29
-186.35
-230.55
-241.99
-226.28
-202.84
-176.51
-149.09
-124.39
-104.12
-93.06
-95.22
-113.19
-146.79
-189.68
-229.34
-254.31
-257.09
-236.17
-198.25
-156.11
-125.55
-119.23
-137.99
-169.32
-195.52
-200.53
-175.09
-120.08
-44.42
43.00
123.01
177.92
202.80
204.71
194.70
185.09
177.58
171.20
165.90
162.81
166.29
178.85
198.48
217.83
228.08
223.21
202.36
168.97
127.03
81.18
34.21
-14.52
-67.83
-127.05
-183.82
-223.88
-235.11
-217.02
-177.45
-126.47
-71.99
-19.39
25.63
63.87
94.35
114.48
120.27
111.26
90.16
60.58
24.98
-15.15
-59.35
-109.19
-166.57
-233.12
-304.05
-368.29
-412.09
-424.12
-399.38
-340.90
-259.56
-159.84
-59.18
22.93
75.01
97.60
98.77
90.12
79.81
72.95
73.13
80.32
93.42
107.71
115.57
108.48
82.02
39.75
-6.50
-41.25
-53.29
-38.16
0.66
53.98
110.97
163.03
204.70
232.91
245.15
238.66
213.59
174.43
128.82
84.03
43.72
6.79
-30.00
-68.44
-106.83
-139.53
-160.65
-168.40
-166.76
-163.03
-162.91
-166.69
-169.76
-166.75
-156.23
-142.66
-133.51
-133.67
-141.23
-147.90
-143.63
-122.77
-87.18
-44.26
-1.96
36.13
72.08
110.73
154.65
200.80
240.92
265.44
268.72
252.26
224.74
198.37
183.96
186.67
204.53
229.68
252.22
264.17
262.33
248.58
228.14
206.60
187.70
172.39
159.15
145.42
128.76
107.66
81.79
52.05
20.22
-11.45
-40.54
-65.01
-83.31
-94.98
-100.81
-102.57
-102.07
-100.09
-95.54
-85.80
-68.16
-41.95
-10.19
20.14
39.98
41.23
19.63
-24.13
-85.14
-156.21
-229.41
-297.21
-353.11
-392.18
-412.17
-414.51
-404.42
-389.36
-376.24
-368.45
-364.18
-357.14
-339.24
-304.36
-250.86
-182.19
-105.11
-27.30
44.92
107.63
159.10
199.21
229.06
250.83
267.81
283.39
299.26
313.81
321.77
316.14
291.38
246.16
184.34
113.56
42.63
-20.60
-70.27
-102.29
-114.02
-104.34
-74.45
-28.43
27.14
84.51
136.77
179.03
208.74
224.99
227.89
218.26
197.77
168.99
135.00
98.72
62.12
26.28
-8.33
-41.23
-71.37
-96.87
-115.77
-127.24
-132.64
-135.84
-142.46
-158.23
-186.82
-227.99
-276.65
-323.75
-358.50
-371.58
-357.99
-318.45
-258.77
-187.56
-113.28
-42.01
23.35
82.39
135.52
182.55
222.30
253.50
275.88
290.64
299.73
304.33
303.56
294.54
273.94
240.56
197.07
149.85
106.62
73.15
50.87
36.73
25.24
11.49
-6.64
-28.14
-50.13
-69.68
-85.00
-95.71
-102.44
-106.04
-107.17
-106.03
-102.32
-95.26
-83.88
-67.42
-46.04
-21.71
1.67
18.83
25.10
18.50
1.31
-19.89
-35.84
-37.88
-21.58
11.35
53.56
95.71
130.39
154.92
171.45
185.15
201.18
221.76
245.42
267.55
283.03
288.04
280.62
260.40
228.37
186.70
138.19
86.10
33.17
-18.06
-65.88
-110.07
-152.04
-193.92
-233.99
-265.69
-281.05
-277.13
-256.90
-226.39
-191.23
-155.42
-121.26
-90.05
-64.32
-43.75
-29.55
-22.17
-20.13
-20.33
-20.29
-19.87
-22.02
-30.90
-49.31
-79.55
-120.13
-165.44
-208.25
-243.32
-269.21
-286.93
-295.90
-291.89
-269.62
-224.35
-154.96
-66.03
32.30
127.94
201.51
238.82
240.76
219.08
187.65
155.01
123.59
92.52
60.92
31.39
7.46
-6.63
-10.84
-7.41
0.73
12.10
26.13
42.48
60.81
78.96
93.26
96.72
84.67
56.53
16.23
-30.32
-76.38
-113.86
-133.49
-126.78
-91.94
-31.55
46.95
133.13
215.23
277.37
306.39
300.00
281.20
263.69
254.55
251.43
252.70
254.42
250.66
236.14
208.43
168.85
119.52
65.94
14.22
-30.86
-67.58
-95.86
-114.85
-122.97
-119.83
-109.77
-98.66
-92.56
-94.90
-105.64
-120.89
-134.27
-139.96
-136.05
-126.33
-116.43
-110.82
-109.98
-110.65
-107.36
-95.30
-73.14
-44.24
-15.51
6.96
20.49
26.57
28.44
28.40
25.80
17.15
-2.00
-34.45
-79.36
-132.40
-187.40
-238.99
-284.40
-323.91
-359.78
-393.88
-425.48
-450.03
-460.19
-448.48
-410.49
-346.73
-262.52
-165.96
-65.69
30.13
113.83
177.85
215.82
224.81
207.60
173.13
133.94
101.77
83.41
79.48
86.01
97.70
110.65
123.16
134.77
144.61
151.04
152.37
148.58
142.39
138.71
142.44
155.67
175.69
195.28
205.25
197.97
170.21
123.97
65.19
1.77
-58.04
-106.26
-135.35
-139.13
-114.66
-64.28
3.83
77.39
143.68
193.30
222.06
230.38
220.99
196.74
159.93
113.16
60.63
8.54
-35.92
-66.81
-81.64
-82.32
-74.44
-64.56
-57.26
-53.11
-48.72
-38.52
-17.76
14.74
55.27
95.97
127.53
142.58
138.47
118.04
88.66
59.22
36.56
22.64
13.81
2.69
-17.94
-51.32
-95.37
-142.20
-180.69
-200.26
-194.64
-163.38
-111.16
-45.54
24.72
89.13
138.39
166.42
172.22
159.57
135.32
106.79
79.60
55.95
31.88
2.17
-36.31
-81.80
-129.20
-172.65
-207.65
-231.65
-243.99
-249.31
-253.15
-260.61
-274.40
-296.05
-327.06
-368.42
-419.27
-452.20
-443.98
-385.86
-290.95
-182.57
-80.14
6.18
73.98
125.66
165.78
193.48
210.06
215.85
212.50
201.76
184.31
160.31
130.96
99.57
68.45
43.23
30.42
39.21
71.15
116.28
158.16
183.27
187.49
173.54
148.55
121.37
96.51
76.76
63.91
58.83
61.09
68.36
75.34
75.33
61.62
32.63
-5.21
-40.79
-64.94
-74.84
-73.43
-66.57
-59.25
-55.59
-55.12
-56.48
-59.61
-65.82
-76.53
-91.82
-110.56
-131.39
-149.69
-161.29
-160.54
-142.22
-104.42
-50.04
14.00
79.21
138.64
189.39
224.39
239.84
237.56
222.41
197.90
166.03
129.83
94.38
65.25
45.09
33.80
28.33
24.21
17.84
8.58
-1.57
-9.84
-14.54
-16.49
-17.30
-19.10
-23.70
-31.87
-42.22
-51.33
-55.13
-50.41
-36.50
-15.41
7.56
24.62
28.45
13.73
-17.22
-55.31
-88.38
-106.96
-107.75
-94.76
-76.83
-63.37
-59.12
-64.22
-74.86
-85.00
-88.46
-79.98
-56.62
-19.03
28.33
76.24
114.09
133.82
133.49
118.11
97.87
84.03
79.47
87.06
102.54
116.81
121.93
115.71
101.56
85.16
70.47
57.66
45.06
30.23
13.15
-3.46
-15.08
-18.67
-13.28
-0.56
16.73
36.60
57.54
78.86
99.18
115.47
123.02
117.62
98.02
67.32
32.44
0.45
-22.05
-33.16
-35.71
-35.32
-36.53
-41.06
-47.95
-56.01
-66.60
-82.95
-107.64
-139.21
-170.72
-190.98
-188.96
-158.06
-99.39
-22.52
58.10
128.12
177.63
202.33
202.55
180.64
139.95
84.04
16.21
-58.94
-134.79
-203.75
-259.69
-298.83
-319.97
-322.09
-303.03
-261.60
-198.51
-117.42
-24.94
70.18
163.85
244.33
300.11
331.45
342.28
333.09
299.58
241.12
162.08
71.93
-18.05
-98.77
-164.36
-214.36
-251.93
-281.34
-306.33
-330.09
-354.52
-364.22
-348.34
-304.25
-240.59
-171.07
-106.84
-52.87
-9.52
25.61
55.20
79.08
96.37
105.84
107.60
103.49
96.76
90.56
87.32
88.00
90.56
92.48
91.71
87.59
81.05
73.94
68.05
64.70
64.49
66.21
68.54
70.59
72.27
74.28
77.50
82.45
89.06
96.76
103.85
108.47
109.09
104.89
95.81
82.40
65.66
47.09
28.39
10.72
-5.12
-18.67
-29.82
-38.63
-45.23
-49.71
-51.96
-52.11
-50.44
-47.51
-44.11
-41.16
-39.32
-38.81
-39.25
-39.67
-39.28
-37.63
-35.00
-31.85
-29.16
-27.57
-27.22
-27.96
-29.53
-32.00
-35.16
-38.13
-39.45
-37.92
-33.55
-28.16
-25.36
-26.92
-33.01
-40.99
-46.17
-44.07
-32.29
-11.50
15.19
43.79
71.09
94.94
114.05
127.44
133.98
132.81
123.85
108.23
87.85
65.48
43.43
23.34
6.24
-7.43
-17.57
-24.27
-27.86
-29.01
-28.69
-28.05
-28.11
-29.22
-30.95
-32.21
-31.86
-29.36
-25.14
-21.09
-18.84
-19.81
-24.06
-30.08
-35.33
-37.49
-35.42
-29.94
-23.46
-18.74
-18.17
-22.73
-31.99
