1587293342.00
64.000000
-0.00
-0.00
-0.00
-0.00
-0.00
-0.00
-0.00
-0.00
-0.00
-0.00
0.00
0.01
0.01
-0.00
-0.03
-0.05
-0.05
0.00
0.13
0.36
0.66
1.01
1.37
1.72
2.06
2.40
2.79
3.24
3.80
4.42
5.06
5.66
6.20
6.68
7.15
7.68
8.31
9.14
10.09
11.04
11.88
12.56
13.14
13.76
14.65
15.96
17.91
20.32
22.90
25.38
27.58
29.57
31.68
34.32
37.81
42.54
48.15
54.10
59.83
64.97
69.58
74.14
79.34
85.71
93.76
103.00
112.62
121.73
129.77
136.75
143.30
150.75
157.77
166.64
177.95
191.79
206.97
220.57
228.25
225.36
208.53
176.87
132.76
80.05
23.07
-34.94
-92.44
-149.16
-205.23
-260.37
-313.74
-363.87
-409.83
-450.91
-486.50
-515.74
-537.23
-549.22
-549.96
-538.37
-514.21
-478.67
-433.88
-382.45
-327.02
-269.84
-212.63
-156.66
-102.95
-52.37
-5.90
35.58
71.43
101.35
125.50
144.38
158.69
169.15
176.37
180.75
182.57
182.07
179.51
175.23
169.65
163.18
156.15
148.81
141.30
133.69
126.02
118.33
110.69
103.16
95.80
88.68
81.83
75.25
68.95
62.95
57.25
51.86
46.78
42.03
37.59
33.45
29.61
26.07
22.81
19.82
17.11
14.67
12.48
10.54
8.85
7.37
6.10
5.03
4.12
3.37
2.76
2.26
1.86
1.55
1.32
1.14
1.01
0.92
0.87
0.84
0.83
0.84
0.87
0.91
0.96
1.02
1.10
1.18
1.28
1.39
1.52
1.66
1.82
2.00
2.20
2.42
2.67
2.94
3.25
3.58
3.94
4.34
4.78
5.25
5.77
6.32
6.92
7.56
8.24
8.98
9.75
10.58
11.46
12.38
13.35
14.37
15.46
16.61
17.83
19.12
20.46
21.83
23.18
24.44
25.51
26.27
26.59
26.35
25.44
23.78
21.35
18.19
14.35
10.01
5.33
0.55
-4.10
-8.42
-12.17
-15.24
-17.57
-19.14
-19.99
-20.23
-19.96
-19.25
-18.19
-16.87
-15.36
-13.73
-12.06
-10.38
-8.76
-7.22
-5.72
-4.20
-2.60
-0.89
0.92
2.77
4.67
6.49
8.20
9.89
11.67
13.63
15.82
18.14
20.46
22.70
24.55
26.01
27.29
28.69
30.49
32.74
35.29
37.79
39.99
41.33
41.74
41.57
41.38
41.60
42.35
43.31
43.85
43.39
41.08
36.74
30.72
23.55
15.54
6.35
-5.20
-21.23
-40.12
-62.17
-87.84
-117.28
-149.82
-183.40
-214.44
-238.59
-251.94
-252.51
-241.66
-223.02
-201.09
-179.66
-160.63
-143.95
-128.50
-113.10
-97.16
-81.05
-65.04
-48.93
-32.18
-14.47
3.74
21.11
35.78
46.12
51.14
51.14
47.52
42.13
36.64
32.00
28.30
25.00
21.32
16.63
10.89
4.66
-1.10
-5.54
-8.40
-10.15
-11.88
-14.86
-19.97
-27.26
-35.77
-43.76
-48.99
-49.26
-42.90
-29.30
-9.25
14.99
40.19
62.83
80.24
91.20
96.35
97.96
99.24
103.35
112.46
127.07
145.80
165.84
183.99
197.69
205.79
208.56
207.02
202.05
193.91
182.47
168.01
151.78
135.87
122.10
111.02
101.21
89.74
73.57
50.76
20.99
-15.06
-56.42
-101.83
-148.88
-192.99
-227.39
-244.59
-239.32
-210.92
-163.93
-106.33
-46.10
11.99
67.62
123.73
183.54
247.77
313.37
374.45
424.52
458.89
475.95
477.11
465.59
445.08
418.46
387.82
354.77
320.97
288.28
258.44
232.45
210.19
190.54
171.88
152.78
132.42
110.69
88.09
65.21
42.44
19.79
-3.16
-26.96
-52.08
-78.78
-106.98
-136.53
-167.42
-200.04
-235.06
-272.90
-313.04
-353.46
-390.66
-420.51
-439.53
-446.12
-441.17
-427.64
-409.50
-390.45
-373.13
-358.89
-348.01
-340.08
-334.19
-329.07
-323.19
-315.15
-304.12
-290.19
-274.38
-258.16
-243.03
-230.05
-219.59
-211.43
-204.88
-198.77
-191.50
-181.20
-166.28
-146.14
-121.87
-96.19
-72.49
-53.46
-39.79
-29.90
-20.86
-9.97
3.76
19.23
34.10
46.31
55.33
62.49
70.23
80.78
94.98
111.95
129.62
145.68
158.48
167.52
173.19
176.26
177.22
176.08
172.57
166.54
158.50
149.70
141.95
136.97
135.78
138.25
143.10
148.40
152.30
153.75
152.86
150.89
149.58
150.43
154.00
159.75
166.34
172.15
175.75
176.13
172.77
165.69
155.53
143.64
131.90
122.17
115.63
112.28
110.91
109.50
105.89
98.36
85.86
68.00
45.15
18.35
-10.85
-40.56
-68.99
-94.91
-117.63
-136.93
-152.64
-164.51
-172.33
-176.29
-177.31
-176.81
-176.28
-176.47
-176.89
-175.88
-171.23
-161.02
-144.42
-121.96
-95.38
-67.02
-39.26
-13.94
7.88
26.06
41.02
53.38
63.46
70.94
74.94
74.52
69.40
60.42
49.49
38.89
30.47
25.05
22.63
22.82
25.49
30.88
39.18
50.06
62.18
73.31
80.92
83.09
79.26
70.53
59.06
46.95
35.02
22.32
6.83
-12.87
-36.04
-59.12
-76.73
-83.93
-78.28
-60.55
-33.93
-2.19
31.45
64.33
93.14
113.29
119.42
107.61
77.79
34.74
-13.07
-56.63
-89.61
-110.30
-121.15
-126.70
-131.01
-136.12
-142.04
-147.78
-152.63
-156.86
-161.56
-167.91
-176.40
-186.39
-196.21
-203.67
-206.64
-203.63
-194.19
-178.75
-158.54
-135.06
-109.79
-84.05
-58.93
-35.46
-14.54
3.05
16.93
27.21
34.60
40.18
45.15
50.43
56.37
62.69
68.63
73.28
75.96
76.58
75.59
73.82
72.05
70.59
69.21
67.28
64.19
59.72
54.26
48.74
44.37
42.29
43.32
47.84
55.73
66.54
79.56
93.99
109.03
123.94
138.04
150.60
160.85
168.17
172.44
174.30
175.11
176.32
178.79
181.98
183.94
181.98
173.85
158.83
138.20
114.74
91.66
71.27
54.30
39.86
26.03
10.85
-6.96
-27.75
-50.88
-75.14
-98.92
-120.49
-138.10
-150.39
-156.88
-158.24
-156.23
-153.04
-150.51
-149.43
-149.45
-149.75
-149.70
-149.41
-149.64
-151.04
-153.62
-156.58
-158.72
-159.09
-157.64
-155.13
-152.67
-151.24
-151.37
-153.18
-156.55
-161.23
-166.62
-171.61
-174.59
-173.91
-168.70
-159.56
-148.51
-138.32
-131.17
-127.53
-125.89
-123.36
-117.14
-105.80
-89.82
-71.32
-52.99
-37.12
-25.07
-17.24
-13.45
-13.14
-15.44
-18.94
-21.77
-21.87
-17.55
-8.14
5.85
22.92
41.16
58.86
74.92
88.84
100.66
110.78
119.97
129.17
139.16
149.94
160.20
167.20
167.28
157.21
135.41
102.92
63.33
21.83
-16.30
-47.07
-68.42
-80.23
-83.64
-80.48
-72.79
-62.70
-52.45
-44.20
-39.68
-39.82
-44.37
-51.98
-60.65
-68.41
-74.00
-77.26
-79.04
-80.70
-83.38
-87.39
-92.01
-95.59
-96.20
-92.19
-82.70
-67.79
-48.31
-25.60
-1.51
21.71
41.47
55.34
61.67
60.43
53.39
43.72
34.96
29.81
29.28
32.60
37.80
42.65
45.35
44.90
40.90
33.21
21.78
6.66
-11.68
-32.02
-52.23
-69.48
-80.77
-83.68
-77.11
-61.67
-39.56
-13.90
12.24
36.82
59.40
81.05
103.69
129.10
158.16
190.51
224.71
258.39
288.43
311.09
322.37
318.90
299.15
264.45
219.09
169.35
121.62
80.72
48.92
26.01
10.25
-0.72
-9.30
-17.72
-27.78
-40.53
-55.56
-70.79
-82.94
-88.74
-86.35
-76.25
-61.22
-45.12
-31.30
-21.27
-14.21
-7.83
0.49
12.24
27.01
42.50
54.99
59.93
52.58
29.19
-11.54
-66.54
-127.83
-183.71
-222.33
-235.85
-223.58
-192.15
-152.63
-116.17
-90.20
-77.07
-75.14
-81.10
-91.72
-104.40
-116.53
-124.92
-126.08
-117.25
-97.65
-68.98
-34.85
0.30
32.58
59.64
80.79
96.81
109.27
119.82
129.77
139.81
150.05
160.36
170.54
180.25
188.62
193.80
192.90
182.66
160.72
127.01
84.40
38.34
-4.64
-38.82
-60.92
-70.66
-70.40
-63.93
-55.08
-46.67
-40.07
-35.36
-31.92
-28.93
-25.82
-22.24
-17.94
-12.55
-5.64
2.94
12.74
22.47
30.32
34.61
34.52
30.65
24.95
20.03
18.14
20.13
24.85
29.50
30.49
24.81
11.18
-9.39
-33.81
-57.68
-76.55
-86.99
-87.35
-78.05
-61.23
-40.08
-18.00
2.05
17.94
28.30
32.40
30.06
21.80
9.04
-5.73
-19.24
-28.17
-29.98
-23.71
-10.23
8.09
28.05
46.66
61.87
73.05
81.03
87.60
94.76
103.78
114.60
125.44
133.18
134.17
125.39
105.60
76.15
40.92
5.49
-24.32
-44.11
-52.07
-49.30
-39.15
-25.94
-13.61
-4.80
-0.64
-1.00
-5.00
-11.39
-18.71
-25.44
-30.11
-31.62
-29.53
-24.15
-16.44
-7.68
0.87
8.31
14.08
18.01
20.17
20.68
19.68
17.19
13.13
7.37
-0.16
-9.35
-19.60
-29.65
-37.58
-41.14
-38.40
-28.56
-12.42
7.68
28.50
46.95
60.78
68.93
71.19
67.74
58.90
45.25
28.04
9.31
-8.31
-22.37
-31.35
-35.05
-34.38
-30.76
-25.49
-19.36
-12.76
-6.01
0.47
6.17
10.82
14.82
19.28
25.83
35.99
50.57
69.31
90.73
112.47
131.58
145.07
150.53
146.82
134.68
116.82
97.38
80.62
69.54
64.94
65.48
68.63
72.10
74.74
76.71
78.87
81.84
85.21
87.63
87.30
82.84
74.03
61.91
48.44
35.72
25.23
17.46
12.10
8.60
6.86
7.53
11.71
20.28
33.28
49.56
67.18
83.98
98.17
108.70
115.26
118.12
117.95
115.63
112.06
108.03
104.04
100.20
96.22
91.40
84.71
74.78
60.17
39.51
11.78
-23.58
-66.36
-115.13
-166.88
-216.96
-259.67
-289.56
-303.14
-300.13
-283.58
-258.72
-231.13
-204.99
-182.34
-163.50
-148.02
-135.57
-125.90
-118.33
-110.97
-100.64
-83.60
-57.38
-22.40
17.00
53.01
76.37
79.16
57.28
11.89
-50.79
-120.98
-187.57
-240.35
-271.65
-277.47
-258.11
-218.21
-166.12
-112.20
-66.24
-34.83
-19.80
-18.30
-24.64
-33.01
-39.71
-44.15
-48.20
-54.69
-65.65
-81.31
-99.92
-118.29
-132.61
-139.27
-135.45
-119.50
-91.30
-52.32
-5.71
44.14
92.25
134.12
166.78
189.41
203.46
212.24
220.06
231.12
248.19
271.52
298.35
323.46
340.86
346.00
337.84
319.21
295.59
272.47
252.65
235.06
215.36
188.40
150.73
102.39
47.21
-8.40
-57.38
-94.08
-115.59
-122.22
-117.02
-104.90
-91.67
-83.46
-86.10
-104.31
-140.35
-192.31
-253.32
-312.42
-357.42
-378.83
-372.99
-343.06
-297.07
-244.41
-192.25
-143.71
-98.03
-52.58
-5.20
44.03
92.38
135.44
168.86
190.07
199.45
200.39
198.16
197.86
202.32
210.92
219.85
223.94
219.02
203.83
180.54
153.45
127.03
104.02
84.55
66.81
48.38
27.49
3.64
-22.84
-51.33
-80.98
-110.28
-136.66
-156.73
-167.42
-167.42
-158.18
-143.54
-128.21
-115.70
-106.91
-100.19
-92.50
-81.36
-66.19
-48.40
-30.52
-14.80
-2.18
7.75
16.23
24.56
33.63
43.84
55.48
68.70
83.53
99.58
116.11
132.36
148.10
163.67
179.59
195.69
210.52
221.65
226.76
224.74
216.17
202.80
186.31
167.30
145.13
118.62
87.30
52.19
15.49
-20.41
-54.33
-87.11
-121.19
-159.01
-200.99
-244.15
-282.20
-307.28
-312.74
-295.34
-256.22
-200.39
-135.39
-69.72
-11.60
32.20
57.53
64.01
55.75
40.89
29.66
31.32
50.96
87.60
134.47
181.40
218.60
239.75
243.75
234.02
216.12
194.96
172.84
149.25
122.28
90.79
55.79
20.20
-12.54
-40.25
-63.10
-83.40
-104.32
-128.63
-157.69
-191.35
-228.22
-265.78
-300.21
-326.28
-337.96
-330.05
-300.54
-252.27
-192.79
-132.23
-79.83
-41.00
-16.25
-2.41
4.94
8.99
10.67
8.96
2.37
-9.70
-26.45
-46.07
-66.77
-87.50
-108.23
-129.45
-151.31
-172.81
-191.55
-204.32
-208.33
-202.46
-187.95
-167.99
-146.61
-127.29
-112.13
-101.66
-95.25
-91.66
-89.33
-86.55
-81.38
-71.81
-56.13
-33.58
-4.49
29.57
66.38
103.96
141.13
178.06
216.32
258.58
307.59
364.59
427.71
491.12
545.95
582.81
595.16
581.68
546.53
497.43
442.32
386.76
333.14
281.75
232.62
186.69
145.57
110.26
80.00
52.10
23.17
-9.27
-45.52
-83.87
-121.40
-155.75
-186.28
-214.47
-243.33
-276.41
-316.83
-366.56
-425.67
-491.64
-559.01
-619.95
-665.91
-690.14
-690.02
-667.89
-629.96
-583.82
-535.66
-488.88
-444.27
-401.33
-359.70
-319.75
-282.18
-247.22
-214.20
-181.84
-148.78
-114.20
-78.07
-41.31
-5.67
26.59
53.38
73.63
87.81
97.90
106.58
116.15
127.82
141.66
157.34
175.08
195.82
220.66
249.76
281.47
312.29
337.94
355.11
362.82
362.58
357.20
348.97
338.12
322.38
298.07
261.99
213.36
154.57
90.49
26.67
-32.28
-83.53
-125.53
-156.86
-175.41
-178.94
-166.61
-140.38
-105.17
-67.25
-31.97
-2.19
22.16
42.46
59.39
71.47
75.24
66.65
42.61
2.08
-53.61
-120.82
-193.60
-263.92
-322.67
-361.53
-375.47
-364.50
-333.79
-291.64
-246.55
-204.71
-168.67
-137.95
-110.45
-84.19
-58.06
-31.84
-5.64
20.69
47.64
76.00
106.54
139.78
176.09
216.04
260.46
309.91
363.39
417.40
465.83
501.51
518.92
516.72
498.74
472.57
446.50
426.13
412.41
401.93
389.00
368.23
336.57
294.08
243.52
189.39
136.67
89.68
51.09
21.42
-0.71
-17.85
-32.81
-47.98
-64.86
-83.77
-103.20
-119.47
-127.26
-121.32
-99.19
-63.27
-21.00
17.50
43.30
52.21
45.97
30.29
11.63
-6.07
-22.46
-39.70
-60.38
-86.13
-117.69
-155.64
-200.83
-253.41
-311.22
-368.71
-417.42
-448.35
-455.04
-435.91
-394.52
-337.95
-274.16
-210.01
-150.42
-98.63
-56.90
-26.38
-6.56
5.31
14.03
25.32
43.88
72.05
109.64
154.57
204.55
258.58
317.44
382.79
455.18
531.89
606.09
668.01
707.93
719.68
702.93
662.92
607.96
546.01
482.08
417.77
352.79
286.88
221.17
157.81
98.57
43.62
-8.87
-61.84
-118.08
-178.96
-243.68
-308.82
-368.97
-417.79
-449.58
-460.87
-451.19
-422.96
-380.33
-327.78
-268.97
-206.64
-143.01
-80.39
-21.27
32.23
79.16
120.35
158.17
195.77
235.76
279.13
324.55
368.39
405.69
431.58
443.00
439.69
424.23
400.87
373.98
346.64
320.15
294.37
268.64
242.46
215.71
188.32
159.95
129.95
97.67
63.00
26.59
-10.34
-46.70
-82.06
-116.98
-152.71
-190.42
-230.41
-271.72
-312.41
-350.34
-384.29
-414.57
-442.90
-471.55
-502.02
-534.03
-565.39
-592.76
-613.07
-624.85
-628.91
-628.00
-625.99
-626.71
-632.88
-645.16
-661.31
-675.77
-680.31
-666.07
-626.77
-562.11
-479.50
-392.72
-317.55
-266.21
-243.01
-243.56
-257.81
-275.13
-288.71
-297.19
-303.21
-310.21
-319.76
-330.77
-340.69
-347.29
-349.95
-349.31
-345.97
-339.11
-326.25
-304.03
-269.83
-223.03
-165.38
-100.41
-32.13
36.29
103.12
168.02
231.25
292.81
351.94
407.18
457.09
501.19
540.50
577.12
613.17
649.36
684.14
713.76
733.48
739.18
728.82
703.18
665.65
621.55
577.05
538.05
508.84
491.08
483.27
481.30
480.09
475.53
465.87
451.65
434.32
414.53
391.20
362.07
325.27
280.80
230.99
179.63
130.36
85.36
45.22
9.70
-21.16
-46.75
-66.24
-79.79
-89.14
-97.42
-107.91
-122.51
-140.96
-161.11
-180.18
-196.20
-208.75
-218.76
-227.64
-236.34
-245.01
-253.21
-260.34
-266.02
-270.01
-271.96
-271.32
-267.45
-259.64
-247.19
-229.26
-204.87
-173.22
-134.25
-89.15
-40.43
8.69
55.15
96.64
131.71
159.46
179.30
190.96
194.95
192.80
186.78
179.02
170.38
159.90
145.36
124.44
96.11
61.21
22.03
-18.90
-60.09
-101.75
-145.66
-194.10
-248.43
-307.56
-367.06
-419.77
-457.62
-474.31
-467.70
-440.62
-399.73
-352.76
-305.57
-260.31
-215.61
-168.19
-115.08
-55.41
8.84
73.15
131.34
176.86
204.17
209.95
193.97
158.90
109.22
49.83
-15.04
-82.00
-147.83
-208.92
-261.32
-301.83
-329.10
-344.02
-348.75
-345.06
-333.02
-310.98
-276.96
-230.38
-173.27
-109.71
-44.18
20.41
83.97
149.10
219.71
298.76
386.12
477.10
562.80
632.15
675.34
687.05
668.08
624.29
563.65
493.08
416.70
336.20
252.70
168.30
86.33
9.98
-59.30
-122.68
-183.36
-244.89
-309.61
-378.03
-448.99
-520.30
-589.01
-651.28
-702.27
-736.57
-749.37
-737.91
-702.47
-646.38
-575.14
-495.10
-412.21
-331.32
-255.99
-188.75
-131.40
-85.06
-50.20
-26.23
-11.22
-2.26
3.88
9.70
15.98
21.36
23.09
18.46
6.62
-10.36
-27.80
-39.97
-42.18
-32.45
-11.90
16.14
47.69
79.61
110.37
139.99
169.22
198.86
229.21
260.21
291.86
324.34
357.82
391.78
424.54
453.33
474.84
486.48
487.71
480.67
469.87
460.84
458.01
463.13
474.50
487.81
497.88
500.42
493.06
475.22
447.31
410.19
365.32
315.53
265.48
221.23
188.68
171.60
170.16
180.97
198.56
217.41
233.56
244.87
250.27
248.63
238.35
217.81
186.52
146.14
100.41
54.10
11.23
-26.36
-59.38
-90.31
-121.86
-155.55
-191.25
-227.57
-263.01
-296.85
-329.61
-362.80
-398.45
-438.66
-485.11
-538.64
-598.31
-660.64
-719.38
-766.59
-794.83
-799.68
-781.39
-744.68
-696.82
-644.94
-593.99
-546.14
-501.62
-460.12
-421.68
-386.71
-355.41
-327.23
-300.89
-274.98
-248.68
-222.11
-196.22
-172.18
-150.67
-131.55
-113.91
-96.47
-78.21
-58.75
-38.48
-18.35
0.55
17.46
32.09
44.62
55.51
65.20
73.96
81.79
88.49
93.73
97.19
98.71
98.53
97.41
96.40
96.38
97.30
97.74
95.24
87.17
72.19
51.03
26.64
3.26
-14.96
-24.94
-25.11
-15.14
4.35
31.88
64.79
99.03
129.62
151.69
161.93
159.48
145.91
124.51
99.15
73.57
51.15
34.86
27.12
29.20
40.57
58.72
79.86
100.43
118.60
134.90
151.53
170.94
194.66
222.48
252.59
281.82
305.56
317.79
311.78
282.23
228.16
155.22
75.61
4.66
-44.64
-66.79
-65.68
-52.14
-38.46
-32.81
-36.40
-44.78
-51.53
-52.30
-46.58
-36.90
-26.36
-16.45
-6.43
5.47
20.42
38.00
56.32
73.13
87.20
98.80
109.37
120.71
133.91
148.95
164.66
179.18
190.61
197.63
199.90
198.07
193.53
187.86
182.23
177.06
171.98
166.05
158.32
148.29
136.15
122.74
109.09
96.06
84.08
73.21
63.52
55.36
49.36
45.97
44.84
44.38
42.05
35.41
23.45
7.30
-9.92
-24.41
-33.29
-35.72
-33.00
-27.64
-22.09
-17.68
-14.36
-11.10
-6.70
-0.50
7.41
16.24
24.92
32.52
38.46
42.69
45.47
47.19
48.11
48.31
47.75
46.37
44.19
41.16
37.09
31.61
24.44
15.73
6.32
-2.26
-8.20
-10.02
-7.13
-0.13
9.45
19.56
28.34
34.46
37.25
36.53
32.37
24.93
14.54
1.80
-12.33
-26.65
-40.07
-51.86
-61.87
-70.37
-77.74
-84.10
-89.12
-92.13
-92.53
-90.07
-85.04
-78.23
-70.66
-63.40
-57.36
-53.17
-51.00
-50.32
-49.88
-47.75
-42.00
-31.28
-15.45
4.36
26.29
48.49
69.72
89.51
107.79
124.38
138.67
149.85
157.31
161.10
162.00
161.08
159.14
156.33
152.21
146.35
138.95
131.07
124.57
121.13
121.49
125.38
131.99
140.58
150.70
161.84
172.80
181.68
186.00
183.72
174.28
158.99
140.39
120.87
101.35
80.66
56.81
27.70
-7.37
-46.49
-84.94
-115.90
-132.41
-129.74
-107.27
-67.18
-15.40
40.10
91.60
133.84
165.24
187.49
203.72
216.49
229.99
245.50
260.93
271.38
271.05
256.08
226.24
185.32
140.38
105.71
93.78
111.43
157.46
223.94
299.85
374.52
439.40
488.55
525.77
555.37
579.94
599.18
611.60
617.35
618.76
619.01
574.56
459.25
269.67
31.05
-215.81
-435.66
-609.90
-735.87
-820.46
-874.26
-900.80
-903.87
-889.15
-864.90
-839.49
-816.96
-796.13
-772.89
-742.95
-699.53
-641.60
-574.44
-507.69
-451.03
-409.40
-382.49
-366.58
-357.14
-347.18
-331.73
-308.01
-275.27
-237.58
-197.83
-158.44
-121.34
-87.55
-55.44
-22.52
13.43
53.00
94.35
134.02
167.04
188.20
193.45
181.62
154.15
114.64
67.94
19.36
-25.40
-61.28
-84.34
-92.23
-84.54
-62.63
-29.13
12.67
59.12
106.46
150.27
185.81
208.82
216.91
210.53
193.09
169.79
145.83
124.86
108.26
95.68
86.25
79.62
76.35
77.56
84.12
95.91
111.40
127.56
140.17
144.85
138.19
118.90
88.40
50.30
9.27
-30.44
-65.92
-95.67
-119.10
-135.87
-145.64
-148.35
-144.69
-136.28
-125.41
-114.35
-104.69
-96.98
-90.85
-85.43
-79.91
-73.85
-67.36
-60.96
-55.31
-50.90
-47.82
-45.72
-43.93
-41.80
-39.02
-35.74
-32.52
-30.03
-28.81
-29.08
-30.68
-33.13
-35.80
-37.96
-38.87
-37.87
-34.48
-28.41
-19.70
-8.63
4.26
18.25
32.39
45.54
56.50
64.20
67.92
67.50
63.34
56.37
47.77
38.77
30.42
23.43
18.15
14.61
12.53
11.48
10.98
10.68
10.46
10.52
11.14
12.48
14.35
16.31
17.96
19.42
21.62
26.11
34.43
47.29
64.05
82.68
100.44
114.66
123.50
126.16
122.74
113.90
100.60
83.93
65.15
45.62
26.61
9.11
-6.43
-20.21
-32.96
-45.66
-59.17
-73.80
-89.16
-104.20
-117.54
-128.00
-134.97
-138.55
-139.32
-137.90
-134.57
-129.18
-121.38
-111.05
-98.55
-84.87
-71.28
-58.93
-48.50
-40.10
-33.41
-27.94
-23.37
-19.60
-16.72
-14.84
-13.92
-13.68
-13.57
-12.92
-11.08
-7.48
-1.70
6.40
16.61
28.14
39.60
49.05
54.55
54.73
49.39
39.70
27.83
16.34
7.34
2.02
0.58
2.52
6.97
12.98
19.59
25.75
30.38
32.53
31.70
28.01
22.34
16.09
10.84
7.92
8.03
11.04
15.97
21.21
25.03
26.07
23.79
18.84
12.91
8.24
6.82
9.33
14.71
20.47
23.87
23.45
20.12
16.89
17.35
23.67
35.20
48.72
60.17
66.81
68.64
68.07
68.42
71.86
78.28
85.37
89.88
89.04
81.55
67.82
49.56
29.06
8.48
-10.42
-26.58
-39.76
-50.56
-60.55
-72.39
-89.62
-115.67
-152.34
-198.20
-247.90
-293.06
-324.71
-336.52
-327.14
-300.65
-264.66
-227.07
-193.09
-164.01
-138.00
-112.24
-85.07
-56.86
-29.53
-5.27
14.61
29.93
41.17
48.60
51.96
50.50
43.98
33.28
20.56
8.74
0.55
-2.31
0.21
6.68
14.63
21.54
25.73
26.93
26.43
26.66
30.39
39.82
55.97
78.47
105.58
134.50
161.74
183.68
197.33
201.04
194.93
180.81
161.54
140.01
118.31
97.34
77.01
56.86
36.69
16.92
-1.47
-17.19
-29.12
-36.49
-39.14
-37.36
-31.92
-23.83
-14.17
-3.90
6.45
17.05
28.99
43.96
63.46
87.67
114.50
139.57
157.32
163.07
155.12
135.65
110.08
84.92
65.24
53.04
47.03
43.94
40.22
33.47
22.77
8.27
-9.48
-29.87
-52.17
-75.14
-96.93
-115.38
-128.74
-136.41
-139.06
-138.23
-135.45
-131.44
-125.86
-117.69
-106.09
-91.17
-74.09
-56.52
-39.54
-22.88
-4.72
17.68
46.93
84.38
129.25
178.18
225.50
264.07
286.71
288.00
265.90
222.75
164.99
101.58
41.58
-8.15
-44.31
-67.04
-78.87
-83.24
-83.41
-82.15
-81.70
-83.91
-89.86
-99.48
-111.23
-122.30
-129.54
-130.76
-125.68
-116.07
-104.84
-94.63
-86.60
-79.73
-71.26
-57.81
-36.62
-6.75
30.38
70.86
108.80
137.35
150.41
144.62
120.99
85.17
45.94
12.20
-10.11
-19.85
-20.26
-16.75
-14.06
-14.46
-17.75
-22.58
-28.00
-34.23
-42.15
-52.28
-63.92
-75.24
-84.14
-89.30
-90.83
-90.17
-89.37
-90.25
-93.67
-99.30
-105.87
-111.66
-115.08
-115.08
-111.26
-103.83
-93.28
-80.22
-65.23
-48.81
-31.31
-12.89
6.61
27.42
49.49
72.05
93.42
111.21
122.99
127.13
123.37
112.85
97.64
80.04
61.91
44.46
28.26
13.50
0.21
-11.58
-21.81
-30.37
-37.05
-41.61
-43.79
-43.45
-40.60
-35.49
-28.55
-20.24
-10.94
-0.77
10.36
22.60
35.87
49.59
62.64
73.60
81.15
84.53
83.71
79.41
72.76
64.97
57.01
49.42
42.33
35.58
28.78
21.48
13.28
3.94
-6.50
-17.60
-28.66
-38.77
-47.09
-53.11
-56.71
-58.29
-58.53
-58.19
-57.86
-57.91
-58.45
-59.46
-60.80
-62.24
-63.42
-63.88
-63.21
-61.10
-57.45
-52.32
-45.80
-37.98
-28.99
-19.04
-8.51
2.22
12.97
23.88
35.41
47.98
61.55
75.36
88.02
97.96
104.07
106.08
104.62
100.89
96.10
91.13
86.36
81.78
77.27
72.73
68.25
64.00
60.18
56.95
54.28
51.94
49.51
46.46
42.34
36.90
30.21
22.52
14.09
5.13
-4.21
-13.58
-22.40
-29.95
-35.64
-39.43
-41.84
-43.71
-45.78
-48.33
-51.12
-53.60
-55.38
-56.44
-57.15
-58.15
-59.98
-62.97
-67.17
-72.36
-78.15
-84.03
-89.50
-94.18
-97.88
-100.67
-102.75
-104.42
-105.95
-107.57
-109.36
-111.10
-112.20
-111.68
-108.37
-101.26
-89.83
-74.39
-55.97
-36.21
-16.94
0.25
14.38
25.28
33.57
40.40
47.14
55.00
64.83
77.01
91.55
108.02
125.48
142.32
156.33
165.02
166.35
159.41
144.85
124.80
102.21
79.93
60.00
43.22
29.45
18.03
8.45
0.61
-5.10
-8.16
-8.30
-5.85
-1.77
2.52
5.69
6.91
6.25
4.71
3.99
6.13
13.04
26.02
45.41
70.01
96.75
120.87
137.01
140.93
131.23
110.09
82.52
54.28
29.71
10.44
-4.40
-16.71
-27.90
-38.15
-46.82
-53.39
-58.20
-62.43
-67.31
-73.32
-79.84
-85.64
-89.54
-91.06
-90.62
-89.24
-88.07
-87.85
-88.76
-90.37
-91.89
-92.55
-91.82
-89.60
-86.22
-82.17
-77.85
-73.33
-68.29
-62.20
-54.46
-44.62
-32.42
-17.75
-0.62
18.59
38.96
58.87
76.12
88.43
94.13
92.72
85.03
72.95
58.78
44.54
31.62
20.66
11.85
5.18
0.74
-1.36
-1.12
1.15
4.63
8.23
10.80
11.59
10.48
8.03
5.24
3.20
2.74
4.29
7.83
13.00
19.19
25.56
31.23
35.37
37.48
37.49
35.82
33.16
30.18
27.26
24.45
21.51
18.15
14.11
9.29
3.67
-2.73
-9.84
-17.53
-25.62
-33.90
-42.12
-50.02
-57.24
-63.40
-68.05
-70.88
-71.82
-71.16
-69.39
-67.10
-64.69
-62.33
-59.94
-57.33
-54.33
-50.89
-46.99
-42.63
-37.76
-32.26
-26.05
-19.03
-11.14
-2.26
7.84
19.50
32.87
47.65
62.77
76.33
86.07
90.05
87.47
79.00
66.62
52.94
40.24
29.85
22.00
16.15
11.58
7.75
4.46
1.64
-0.84
-3.34
-6.26
-9.85
-13.94
-17.98
-21.17
-22.81
-22.53
-20.49
-17.17
-13.18
-8.94
-4.54
0.32
6.12
13.34
22.29
32.93
44.90
57.47
69.62
80.21
88.09
92.42
92.84
89.48
82.99
74.30
64.48
54.52
45.25
37.17
30.33
24.34
18.38
11.45
2.75
-8.04
-20.60
-34.01
-47.12
-58.93
-69.05
-77.67
-85.53
-93.34
-101.33
-108.94
-114.83
-117.30
-114.97
-107.28
-94.62
-78.16
-59.24
-38.82
-17.14
6.27
32.39
62.32
96.77
135.31
175.65
213.31
242.05
255.31
248.42
220.47
175.16
119.85
63.17
12.40
-28.53
-59.15
-81.42
-97.94
-110.64
-120.44
-127.63
-132.49
-135.54
-137.33
-138.05
-137.30
-134.24
-128.11
-118.79
-107.00
-94.10
-81.54
-70.30
-60.55
-51.59
-42.27
-31.46
-18.70
-4.34
10.47
24.38
36.30
45.89
53.38
59.26
63.67
66.13
65.71
61.57
53.49
42.25
29.33
16.45
4.93
-4.69
-12.54
-19.10
-24.79
-29.80
-34.15
-37.89
-41.29
-44.86
-49.16
-54.48
-60.67
-67.07
-72.72
-76.68
-78.29
-77.35
-73.98
-68.55
-61.52
-53.32
-44.20
-34.03
-22.23
-7.90
9.73
30.58
53.22
74.88
92.11
101.93
102.86
95.49
82.06
65.62
48.96
33.97
21.51
11.76
4.60
-0.19
-2.84
-3.78
-3.62
-3.07
-2.75
-2.97
-3.68
-4.42
-4.56
-3.53
-0.97
3.16
8.61
14.96
21.85
29.07
36.59
44.44
52.49
60.31
67.12
71.88
73.62
71.68
65.89
56.66
44.88
31.68
18.27
5.62
-5.72
-15.70
-24.64
-33.01
-41.06
-48.64
-55.13
-59.78
-62.01
-61.77
-59.60
-56.45
-53.35
-51.01
-49.74
-49.36
-49.43
-49.34
-48.53
-46.53
-43.01
-37.78
-30.88
-22.61
-13.50
-4.22
4.62
12.74
20.33
27.91
36.06
44.94
54.02
62.16
67.89
70.03
68.02
62.16
53.38
42.90
31.87
21.13
11.19
2.28
-5.59
-12.47
-18.43
-23.52
-27.72
-30.95
-33.12
-34.17
-34.17
-33.36
-32.09
-30.65
-29.15
-27.45
-25.11
-21.57
-16.15
-8.19
2.95
17.64
35.64
55.78
75.89
93.10
104.66
108.77
105.16
95.06
80.51
63.62
45.96
28.51
11.89
-3.27
-16.30
-26.58
-33.91
-38.59
-41.33
-42.93
-44.01
-44.87
-45.57
-46.11
-46.62
-47.33
-48.52
-50.34
-52.72
-55.31
-57.57
-58.81
-58.40
-55.89
-51.21
-44.70
-36.99
-28.73
-20.24
-11.41
-1.83
8.73
19.96
30.77
39.52
44.65
45.32
41.70
34.91
26.54
18.09
10.67
4.96
1.29
-0.14
0.63
3.31
7.26
11.59
15.36
17.88
18.88
18.55
17.51
16.56
16.53
18.09
21.56
26.82
33.38
40.45
47.25
53.12
57.69
60.87
62.64
62.87
61.28
57.48
51.20
42.48
31.84
20.19
8.59
-2.01
-11.09
-18.60
-24.87
-30.35
-35.30
-39.71
-43.29
-45.65
-46.65
-46.45
-45.55
-44.60
-44.08
-44.20
-44.74
-45.30
-45.44
-44.94
-43.74
-41.90
-39.37
-35.93
-31.21
-24.94
-17.07
-7.84
2.42
13.51
25.36
37.90
50.69
62.66
72.23
77.73
78.06
73.19
64.11
52.47
39.89
27.54
15.96
5.33
-4.20
-12.37
-18.83
-23.33
-26.01
-27.32
-27.92
-28.33
-28.69
-28.73
-27.91
-25.73
-21.98
-16.75
-10.32
-2.97
5.09
13.78
22.93
32.20
41.07
48.93
55.15
59.21
60.71
59.32
54.88
47.49
37.62
26.14
14.15
2.73
-7.34
-15.79
-22.83
-28.97
-34.81
-40.76
-46.85
-52.73
-57.81
-61.54
-63.67
-64.39
-64.29
-64.06
-64.28
-65.09
-66.28
-67.35
-67.78
-67.14
-65.09
-61.34
-55.71
-48.17
-39.04
-28.95
-18.62
-8.50
1.57
12.20
24.05
37.16
50.50
62.10
69.69
71.55
67.29
57.95
45.59
32.51
20.57
10.86
3.70
-1.03
-3.65
-4.46
-3.79
-2.01
0.40
2.96
5.21
6.90
8.02
8.79
9.50
10.36
11.31
12.04
12.10
11.13
9.15
6.63
4.37
3.19
3.53
5.23
7.58
9.61
10.49
9.81
7.68
4.56
1.09
-2.10
-4.56
-6.05
-6.71
-7.03
-7.83
-10.01
-14.16
-20.29
-27.76
-35.43
-42.11
-46.91
-49.49
-50.04
-49.09
-47.24
-44.96
-42.48
-39.80
-36.79
-33.27
-29.24
-24.90
-20.63
-16.87
-13.93
-11.84
-10.32
-8.91
-7.14
-4.71
-1.48
2.57
7.51
13.50
20.65
28.85
37.50
45.44
51.26
53.72
52.28
47.30
39.91
31.53
23.37
16.13
9.96
4.75
0.40
-3.00
-5.21
-5.95
-5.10
-2.70
1.07
6.05
12.14
19.29
27.39
36.18
45.22
53.94
61.71
68.01
72.55
75.33
76.62
76.81
76.33
75.53
74.63
73.64
72.35
70.33
67.14
62.57
56.98
51.32
46.94
45.00
45.89
48.99
52.79
55.65
56.47
55.18
52.64
50.06
48.35
47.72
47.77
47.81
47.37
46.41
45.30
44.51
44.31
44.62
45.03
44.92
43.76
41.32
37.87
34.16
31.28
30.21
31.52
35.11
40.35
46.43
52.80
59.54
67.49
78.12
93.25
114.62
143.34
179.18
220.15
262.44
300.98
330.60
347.42
349.88
339.35
319.86
297.16
277.18
264.44
260.69
264.55
272.16
278.82
280.78
276.41
266.35
252.58
237.12
221.16
205.00
188.61
172.18
156.34
141.73
128.51
116.15
103.61
89.91
74.69
58.38
42.09
27.03
14.06
3.35
-5.59
-13.62
-21.54
-29.68
-37.88
-45.53
-51.95
-56.66
-59.59
-61.08
-61.70
-62.03
-62.42
-62.93
-63.36
-63.45
-62.99
-61.97
-60.55
-59.04
-57.78
-57.03
-56.95
-57.55
-58.75
-60.41
-62.38
-64.56
-66.91
-69.45
-72.32
-75.62
-79.47
-83.88
-88.75
-93.89
-99.12
-104.29
-109.47
-114.86
-120.74
-127.36
-134.75
-142.66
-150.65
-158.23
-165.10
-171.29
-177.17
-183.26
-190.00
-197.45
-205.28
-212.91
-219.89
-226.20
-232.37
-239.37
-248.15
-259.36
-273.20
-289.59
-308.41
-329.48
-352.27
-375.54
-397.20
-414.66
-425.60
-428.62
-423.44
-410.48
-390.21
-362.83
-328.62
-288.65
-245.60
-203.58
-167.28
-140.61
-125.58
-122.13
-128.83
-144.04
-166.93
-197.88
-238.07
-288.00
-346.00
-407.08
-463.38
-506.10
-528.25
-526.96
-504.28
-465.79
-418.11
-366.42
-313.28
-259.19
-203.94
-147.75
-91.36
-35.39
20.20
75.56
129.83
180.02
221.12
247.52
255.08
242.71
212.71
169.76
119.14
65.39
11.93
-38.39
-82.38
-116.26
-136.20
-139.54
-125.75
-96.81
-56.57
-9.79
38.89
85.52
127.10
161.43
187.25
204.21
213.05
215.32
212.92
207.63
200.69
192.80
184.37
175.63
166.69
157.52
147.84
137.27
125.56
112.87
99.77
87.07
75.60
65.83
57.76
50.95
44.67
38.34
31.70
24.97
18.70
13.48
9.75
7.60
6.90
7.37
8.71
10.60
12.64
14.41
15.46
15.55
14.66
13.08
11.25
9.61
8.50
8.02
7.98
7.91
7.24
5.56
2.93
-0.05
-2.42
-3.32
-2.38
0.10
3.30
6.34
8.66
10.10
10.85
11.05
10.73
9.74
8.01
5.70
3.21
1.02
-0.60
-1.73
-2.88
-4.71
-7.80
-12.34
-17.98
-23.96
-29.33
-33.28
-35.27
-35.10
-32.76
-28.36
-22.01
-13.97
-4.70
5.06
14.38
22.42
28.64
32.99
35.84
37.77
39.34
40.81
42.16
43.14
43.46
42.91
41.42
39.04
35.81
31.74
26.80
21.00
14.41
7.23
-0.25
-7.68
-14.65
-20.71
-25.42
-28.45
-29.59
-28.86
-26.49
-22.79
-18.11
-12.75
-7.04
-1.31
4.06
8.74
12.50
15.34
17.38
18.82
19.74
20.09
19.72
18.53
16.54
13.95
11.04
8.02
4.91
1.62
-2.07
-6.30
-11.01
-15.88
-20.36
-23.78
-25.59
-25.52
-23.70
-20.57
-16.65
-12.23
-7.28
-1.52
5.24
12.76
20.29
26.82
31.50
34.06
34.87
34.76
34.42
34.17
33.77
32.74
30.72
27.73
24.14
20.39
16.66
12.73
8.21
2.85
-3.06
-8.64
-12.67
-14.06
-12.38
-7.96
-1.79
4.95
11.30
16.79
21.41
25.36
28.83
31.84
34.18
35.65
36.11
35.63
34.39
32.64
30.54
28.10
25.24
21.91
18.14
14.08
9.83
5.34
0.40
-5.14
-10.99
-16.35
-19.96
-20.60
-17.65
-11.52
-3.57
4.37
10.79
15.08
17.67
19.67
22.25
25.99
30.67
35.50
39.66
42.89
45.69
49.15
54.41
62.05
71.82
82.76
93.76
104.03
113.52
122.83
132.87
144.66
159.21
177.61
200.94
229.68
263.00
298.32
331.59
358.43
375.86
383.64
384.43
382.66
382.51
386.13
392.79
399.56
402.82
399.85
389.74
373.25
351.91
327.13
299.64
269.55
236.89
202.08
166.12
130.20
95.25
61.38
27.92
-6.28
-42.39
-81.12
-122.56
-165.99
-209.84
-251.63
-288.25
-316.60
-334.45
-341.29
-338.64
-329.67
-318.39
-308.70
-303.76
-305.76
-316.02
-335.09
-362.43
-396.19
-433.08
-468.64
-498.04
-516.91
-521.99
-511.50
-485.23
-444.28
-390.60
-326.76
-255.70
-180.80
-105.94
-35.29
27.24
78.97
119.32
150.30
175.94
200.91
228.71
260.47
294.76
328.57
358.59
382.29
397.97
404.39
400.30
384.45
356.20
316.08
266.07
208.94
147.36
82.97
16.52
-51.31
-118.59
-181.53
-235.03
-274.61
-298.50
-308.57
-309.38
-306.06
-301.92
-297.52
-291.31
-281.32
-266.73
-248.24
-227.47
-206.10
-185.63
-167.80
-155.14
-150.75
-157.24
-175.50
-204.01
-239.29
-276.92
-312.50
-341.85
-361.09
-366.80
-356.90
-331.69
-294.22
-249.61
-203.40
-159.73
-120.23
-84.30
-50.23
-16.40
17.88
52.33
85.87
117.02
144.15
165.88
181.30
190.36
193.91
193.40
190.37
185.92
180.48
174.12
166.93
159.34
152.13
146.03
141.38
137.89
134.83
131.37
127.08
122.06
116.76
111.66
106.81
101.84
96.16
89.47
82.02
74.65
68.36
63.84
61.05
59.32
57.56
54.82
50.59
44.87
38.04
30.56
22.84
15.14
7.56
0.25
-6.67
-13.10
-18.97
-24.25
-28.87
-32.69
-35.53
-37.24
-37.93
-37.93
-37.76
-37.87
-38.28
-38.51
-37.72
-35.08
-30.26
-23.59
-15.96
-8.32
-1.34
4.85
10.49
15.79
20.60
24.36
26.41
26.44
24.91
22.96
22.03
23.11
26.14
29.95
32.67
32.62
29.11
22.82
15.37
8.70
4.35
3.13
5.36
11.30
21.23
35.11
51.87
69.18
83.87
93.16
95.98
93.51
88.56
84.05
81.57
80.80
80.09
77.87
73.79
68.89
64.69
61.94
59.91
56.72
50.60
40.96
28.81
16.00
4.15
-6.20
-15.49
-24.38
-32.67
-38.87
-40.48
-34.99
-20.99
0.98
28.19
56.17
79.85
94.85
98.93
92.70
79.42
63.76
50.09
41.04
36.71
34.93
32.10
24.47
9.36
-13.78
-43.01
-74.19
-102.22
-122.64
-133.20
-134.60
-129.96
-123.59
-119.34
-119.32
-123.38
-129.44
-134.51
-135.87
-131.96
-122.54
-108.30
-90.00
-67.87
-41.93
-12.94
16.41
41.26
55.80
55.68
40.40
14.28
-14.77
-38.12
-49.57
-47.21
-33.35
-12.94
8.60
26.89
39.18
44.02
40.73
29.08
9.63
-15.82
-43.89
-69.95
-89.18
-98.05
-95.39
-82.73
-63.46
-41.36
-18.99
3.18
26.46
52.74
82.90
115.80
148.30
176.21
195.75
204.70
202.93
192.11
175.03
154.73
133.96
114.90
99.13
87.63
80.70
77.96
78.48
81.27
85.73
91.96
100.45
111.37
123.83
135.70
144.28
147.50
145.03
138.57
131.15
125.71
123.81
125.10
127.64
129.03
127.46
122.21
113.64
102.67
90.41
77.96
66.40
56.66
49.13
43.26
37.24
28.45
14.27
-6.71
-33.98
-65.05
-96.11
-123.14
-142.82
-153.11
-153.34
-144.08
-126.96
-104.37
-79.15
-54.10
-31.42
-12.39
2.67
14.12
22.60
28.76
33.13
36.24
38.65
40.90
43.35
46.03
48.71
51.08
53.06
54.88
57.03
59.95
63.80
68.47
73.71
79.45
85.94
93.58
102.62
112.75
122.99
131.86
137.76
139.61
137.35
132.16
126.31
122.59
123.42
130.13
142.55
159.16
177.84
196.55
213.92
229.22
242.14
252.54
260.43
266.23
270.82
275.29
280.21
284.95
287.58
285.49
276.56
260.22
237.81
212.06
186.01
161.91
140.79
122.68
107.15
93.83
82.62
73.48
66.19
60.24
54.95
49.70
44.18
38.45
32.82
27.60
22.96
18.74
14.54
9.93
4.59
-1.48
-7.99
-14.43
-20.33
-25.44
-29.77
-33.64
-37.47
-41.61
-46.18
-51.08
-56.03
-60.73
-65.09
-69.21
-73.47
-78.32
-84.15
-91.15
-99.27
-108.23
-117.74
-127.52
-137.48
-147.67
-158.27
-169.61
-182.12
-196.12
-211.67
-228.20
-244.39
-258.39
-268.21
-272.40
-270.49
-263.12
-251.73
-238.04
-223.56
-209.40
-196.22
-184.42
-174.18
-165.46
-157.94
-151.00
-143.91
-136.06
-127.21
-117.54
-107.54
-97.78
-88.68
-80.37
-72.77
-65.69
-58.96
-52.56
-46.63
-41.41
-37.19
-34.21
-32.66
-32.58
-33.88
-36.26
-39.21
-42.17
-44.62
-46.24
-47.00
-47.13
-46.97
-46.89
-47.12
-47.75
-48.84
-50.40
-52.52
-55.39
-59.18
-63.92
-69.42
-75.07
-80.09
-83.74
-85.73
-86.43
-86.71
-87.53
-89.30
-91.60
-93.11
-92.26
-87.89
-79.86
-69.20
-57.75
-47.45
-39.66
-34.85
-32.72
-32.75
-34.82
-39.51
-48.05
-61.71
-81.17
-106.06
-134.86
-165.15
-193.86
-217.47
-232.26
-235.03
-224.20
-201.02
-170.05
-138.26
-112.91
-98.79
-96.44
-102.13
-109.92
-114.51
-113.58
-108.37
-102.34
-98.98
-99.88
-104.19
-109.45
-113.11
-113.78
-111.53
-107.49
-102.87
-98.37
-94.14
-90.22
-86.97
-85.14
-85.50
-88.15
-92.00
-94.74
-93.39
-85.27
-68.95
-44.72
-14.64
18.11
50.14
78.77
102.60
121.59
136.50
148.27
157.24
162.99
164.56
161.16
152.84
141.00
128.15
117.31
111.05
110.79
116.47
126.84
140.06
154.35
168.31
180.98
191.60
199.36
203.38
202.90
197.64
187.95
174.89
159.84
144.05
128.26
112.52
96.27
78.76
59.38
37.97
14.91
-8.96
-32.50
-54.46
-73.68
-89.33
-101.12
-109.41
-115.16
-119.66
-124.08
-129.09
-134.68
-140.33
-145.46
-149.98
-154.69
-161.16
-171.08
-185.27
-202.60
-219.70
-231.80
-234.40
-225.31
-205.71
-179.82
-153.06
-129.91
-112.48
-100.60
-93.05
-88.87
-87.93
-90.08
-94.06
-96.74
-93.85
-81.80
-59.58
-29.66
2.76
31.74
52.87
64.54
67.93
65.79
60.77
54.41
46.76
37.19
25.21
11.23
-3.42
-17.19
-29.07
-39.21
-48.64
-58.62
-69.64
-81.13
-91.77
-100.37
-106.79
-112.11
-118.04
-125.74
-134.97
-143.79
-149.34
-149.08
-141.93
-128.66
-111.51
-93.06
-75.10
-58.10
-41.36
-23.81
-4.93
14.80
34.08
51.55
66.50
79.14
90.22
100.35
109.45
116.81
121.60
123.55
123.17
121.41
119.03
116.14
112.09
106.10
97.88
88.13
78.37
70.42
65.66
64.62
66.95
71.72
77.86
84.54
91.17
97.32
102.56
106.45
108.53
108.55
106.53
102.84
97.99
92.53
86.82
81.04
75.18
69.17
62.97
56.55
49.92
42.97
35.55
27.40
18.33
8.37
-2.01
-11.87
-19.91
-24.85
-25.79
-22.62
-16.09
-7.66
0.98
8.42
13.84
17.05
18.30
17.95
16.24
13.33
9.34
4.53
-0.74
-5.96
-10.50
-13.67
-14.86
-13.65
-10.05
-4.55
1.97
8.49
14.08
18.19
20.68
21.76
21.89
21.78
22.27
24.20
28.23
34.63
43.09
52.85
62.95
72.52
81.04
88.21
93.93
98.09
100.52
101.11
99.94
97.35
93.92
90.30
86.97
84.15
81.74
79.38
76.65
73.13
68.57
62.83
55.87
47.63
38.09
27.36
15.81
4.15
-6.57
-15.23
-20.84
-22.83
-21.20
-16.54
-9.94
-2.76
3.67
8.37
10.91
11.39
10.32
8.22
5.43
2.07
-1.84
-6.11
-10.26
-13.59
-15.52
-15.92
-15.29
-14.62
-15.04
-17.46
-22.21
-29.06
-37.23
-45.61
-52.92
-57.90
-59.45
-56.92
-50.21
-39.95
-27.37
-13.99
-1.29
9.64
18.23
24.32
28.14
30.03
30.44
29.73
28.17
25.95
23.19
20.08
16.88
13.93
11.48
9.52
7.78
5.74
2.86
-1.22
-6.58
-13.07
-20.29
-27.57
-33.94
-38.15
-38.91
-35.34
-27.43
-16.20
-3.45
8.84
19.19
26.99
32.45
36.22
38.86
40.60
41.31
40.79
38.94
35.96
32.28
28.41
24.79
21.63
18.91
16.44
13.97
11.33
8.40
5.12
1.38
-2.99
-8.06
-13.63
-19.01
-23.07
-24.56
-22.55
-16.85
-8.13
2.28
12.89
22.46
30.25
36.10
40.18
42.75
44.07
44.24
43.37
41.60
39.16
36.36
33.54
30.92
28.57
26.38
24.16
21.79
19.24
16.61
13.97
11.27
8.24
4.56
0.10
-4.80
-9.25
-12.01
-11.95
-8.52
-2.04
6.34
15.08
22.75
28.51
32.13
33.95
34.46
34.10
33.11
31.64
29.84
27.90
26.02
24.34
22.84
21.39
19.82
18.01
15.99
13.86
11.75
9.72
7.67
5.37
2.53
-1.02
-5.18
-9.36
-12.63
-13.87
-12.23
-7.48
-0.12
8.69
17.51
25.05
30.50
33.61
34.68
34.29
33.12
31.76
30.58
29.74
29.21
28.91
28.71
28.53
28.27
27.81
27.03
25.84
24.28
22.51
20.73
19.05
17.41
15.57
13.30
10.61
7.91
5.99
5.80
8.08
12.99
19.97
27.93
35.57
41.81
46.06
48.29
48.72
47.67
45.33
41.84
37.43
32.55
27.84
23.93
21.23
19.70
19.01
18.70
18.44
18.21
18.22
18.72
19.78
21.20
22.46
22.99
22.34
20.42
17.59
14.56
12.15
11.01
11.35
12.83
14.71
16.11
16.29
14.90
12.00
7.93
3.16
-1.91
-6.94
-11.61
-15.64
-18.74
-20.72
-21.57
-21.55
-21.07
-20.61
-20.51
-20.88
-21.63
-22.63
-23.77
-25.14
-26.90
-29.16
-31.85
-34.57
-36.68
-37.46
-36.39
-33.35
-28.73
-23.28
-17.89
-13.27
-9.81
-7.58
-6.41
-6.13
-6.61
-7.76
-9.42
-11.35
-13.20
-14.66
-15.56
-15.94
-16.03
-16.09
-16.34
-16.85
-17.56
-18.37
-19.27
-20.41
-22.08
-24.59
-28.03
-32.07
-35.90
-38.38
-38.47
-35.63
-30.16
-23.04
-15.63
-9.13
-4.18
-0.84
1.26
2.52
3.16
3.19
2.54
1.30
-0.27
-1.75
-2.86
-3.56
-4.09
-4.83
-6.08
-7.90
-10.13
-12.46
-14.66
-16.70
-18.75
-21.09
-23.94
-27.24
-30.55
-33.14
-34.19
-33.05
-29.52
-23.96
-17.15
-10.06
-3.53
1.92
6.09
9.02
10.84
11.65
11.61
10.90
9.81
8.67
7.70
7.00
6.47
5.92
5.21
4.34
3.38
2.45
1.54
0.50
-0.96
-3.11
-6.06
-9.61
-13.24
-16.18
-17.63
-16.98
-14.04
-9.04
-2.63
4.37
11.18
17.21
22.09
25.64
27.81
28.65
28.31
27.12
25.49
23.83
22.38
21.20
20.14
19.01
17.71
16.28
14.81
13.38
11.94
10.31
8.26
5.54
2.04
-2.20
-6.92
-11.65
-15.73
-18.43
-19.17
-17.71
-14.24
-9.42
-4.14
0.76
4.67
7.37
8.91
9.50
9.37
8.74
7.83
6.86
6.02
5.41
4.99
4.55
3.87
2.76
1.24
-0.54
-2.36
-4.10
-5.78
-7.65
-9.99
-12.99
-16.61
-20.47
-23.95
-26.33
-26.99
-25.63
-22.31
-17.45
-11.68
-5.71
-0.18
4.42
7.77
9.84
10.76
10.83
10.40
9.75
9.03
8.25
7.31
6.10
4.61
2.91
1.10
-0.72
-2.56
-4.53
-6.76
-9.39
-12.46
-15.97
-19.79
-23.72
-27.38
-30.24
-31.70
-31.21
-28.50
-23.70
-17.39
-10.42
-3.72
2.00
6.35
9.28
10.96
11.66
11.61
11.06
10.15
9.01
7.73
6.35
4.96
3.64
2.48
1.48
0.56
-0.50
-1.99
-4.18
-7.21
-11.07
-15.59
-20.50
-25.40
-29.77
-33.00
-34.46
-33.67
-30.45
-25.05
-18.11
-10.52
-3.19
3.15
8.10
11.57
13.73
14.87
15.23
15.02
14.31
13.21
11.83
10.37
9.04
8.01
7.30
6.77
6.17
5.19
3.57
1.20
-1.93
-5.74
-10.05
-14.65
-19.27
-23.51
-26.86
-28.71
-28.52
-26.05
-21.48
-15.47
-8.94
-2.76
2.48
6.61
9.73
12.07
13.75
14.77
15.06
14.65
13.75
12.68
11.77
11.16
10.79
10.40
9.77
8.77
7.47
6.05
4.64
3.21
1.56
-0.62
-3.58
-7.34
-11.57
-15.65
-18.72
-19.99
-18.91
-15.45
-10.05
-3.54
3.17
9.37
14.69
19.07
22.60
25.32
27.17
28.04
27.95
27.12
25.96
24.93
24.28
24.01
23.84
23.36
22.27
20.55
18.38
16.09
13.88
11.69
9.21
6.04
1.87
-3.26
-8.92
-14.39
-18.79
-21.41
-21.90
-20.31
-17.06
-12.80
-8.19
-3.76
0.17
3.49
6.18
8.22
9.57
10.21
10.19
9.67
8.87
8.00
7.20
6.52
5.92
5.31
4.58
3.62
2.35
0.69
-1.40
-3.96
-6.99
-10.49
-14.39
-18.55
-22.73
-26.56
-29.52
-31.08
-30.78
-28.41
-24.12
-18.43
-12.07
-5.83
-0.31
4.19
7.59
10.02
11.61
12.45
12.67
12.41
11.88
11.30
10.83
10.42
9.86
8.87
7.22
4.87
2.00
-1.13
-4.27
-7.31
-10.28
-13.38
-16.86
-20.85
-25.29
-29.74
-33.49
-35.67
-35.53
-32.72
-27.51
-20.71
-13.41
-6.57
-0.77
3.87
7.55
10.50
12.86
14.58
15.53
15.66
15.01
13.77
12.12
10.27
8.34
6.40
4.49
2.58
0.62
-1.47
-3.73
-6.19
-8.90
-12.01
-15.71
-20.15
-25.22
-30.38
-34.73
-37.25
-37.16
-34.24
-28.96
-22.21
-14.98
-8.03
-1.71
3.95
8.99
13.41
17.04
19.63
21.05
21.37
20.90
20.05
19.18
18.41
17.64
16.58
14.90
12.50
9.52
6.29
3.20
0.46
-2.03
-4.61
-7.72
-11.73
-16.74
-22.47
-28.35
-33.54
-37.17
-38.55
-37.33
-33.67
-28.14
-21.48
-14.44
-7.51
-0.96
5.04
10.28
14.46
17.27
18.59
18.64
17.92
16.99
16.27
15.88
15.69
15.41
14.83
13.81
12.34
10.47
8.25
5.75
3.04
0.22
-2.61
-5.47
-8.46
-11.83
-15.78
-20.32
-25.09
-29.31
-31.99
-32.27
-29.73
-24.61
-17.70
-9.99
-2.37
4.68
11.01
16.65
21.58
25.59
28.43
29.93
30.21
29.68
28.91
28.40
28.41
28.88
29.45
29.66
29.19
27.94
26.05
23.80
21.42
18.94
16.29
13.30
9.87
5.97
1.67
-2.94
-7.71
-12.40
-16.62
-19.83
-21.48
-21.15
-18.72
-14.42
-8.75
-2.40
3.91
9.60
14.27
17.73
20.00
21.25
21.73
21.69
21.38
20.95
20.50
20.05
19.50
18.63
17.19
14.99
12.05
8.65
5.26
2.33
0.08
-1.61
-3.16
-5.14
-8.05
-12.06
-17.00
-22.28
-27.10
-30.60
-32.08
-31.18
-28.01
-23.10
-17.26
-11.29
-5.82
-1.14
2.67
5.68
7.89
9.29
9.90
9.82
9.33
8.77
8.42
8.31
8.22
7.78
6.64
4.67
2.05
-0.84
-3.59
-5.86
-7.62
-9.08
-10.61
-12.62
-15.41
-19.04
-23.36
-27.90
-32.01
-34.92
-35.91
-34.60
-30.96
-25.43
-18.77
-11.79
-5.16
0.72
5.70
9.83
13.11
15.47
16.80
17.06
16.40
15.20
13.91
12.87
12.13
11.45
10.40
8.65
6.09
2.91
-0.49
-3.74
-6.65
-9.27
-11.84
-14.74
-18.26
-22.59
-27.60
-32.81
-37.40
-40.43
-41.11
-39.07
-34.54
-28.24
-21.04
-13.68
-6.60
0.03
6.09
11.38
15.53
18.23
19.35
19.16
18.18
17.04
16.17
15.68
15.32
14.65
13.30
11.12
8.27
5.13
2.18
-0.32
-2.36
-4.22
-6.34
-9.15
-12.89
-17.55
-22.83
-28.17
-32.80
-35.88
-36.65
-34.71
-30.16
-23.63
-16.08
-8.48
-1.58
4.26
8.99
12.72
15.49
17.30
18.11
18.03
17.34
16.47
15.77
15.38
15.16
14.75
13.77
12.02
9.51
6.53
3.50
0.79
-1.45
-3.32
-5.19
-7.51
-10.66
-14.78
-19.72
-24.93
-29.62
-32.94
-34.14
-32.87
-29.19
-23.59
-16.80
-9.57
-2.47
4.12
10.06
15.23
19.52
22.77
24.89
25.91
26.03
25.68
25.26
25.10
25.28
25.62
25.77
25.40
24.33
22.58
20.33
17.82
15.21
12.53
9.74
6.75
3.49
-0.10
-4.04
-8.25
-12.48
-16.24
-18.86
-19.69
-18.32
-14.75
-9.46
-3.19
3.31
9.45
14.92
19.60
23.45
26.39
28.34
29.27
29.28
28.63
27.68
26.76
26.09
25.65
25.22
24.43
22.91
20.56
17.57
14.36
11.42
9.01
6.97
4.85
2.12
-1.59
-6.30
-11.68
-17.21
-22.33
-26.50
-29.30
-30.42
-29.69
-27.18
-23.19
-18.19
-12.72
-7.22
-2.05
2.53
6.25
8.89
10.29
10.50
9.83
8.75
7.77
7.19
7.06
7.13
7.04
6.45
5.18
3.23
0.79
-1.89
-4.56
-7.05
-9.37
-11.66
-14.19
-17.23
-21.00
-25.44
-30.20
-34.56
-37.62
-38.51
-36.75
-32.38
-26.00
-18.58
-11.10
-4.22
1.76
6.86
11.17
14.66
17.14
18.44
18.58
17.89
16.90
16.09
15.66
15.42
14.95
13.80
11.78
9.07
6.13
3.41
1.21
-0.52
-2.07
-3.88
-6.33
-9.67
-14.00
-19.21
-24.92
-30.49
-35.02
-37.56
-37.36
-34.12
-28.18
-20.36
-11.72
-3.23
4.49
11.16
16.77
21.32
24.72
26.78
27.38
26.54
24.59
22.07
19.51
17.33
15.56
13.97
12.20
9.96
7.14
3.95
0.68
-2.38
-5.12
-7.66
-10.25
-13.24
-16.92
-21.47
-26.84
-32.65
-38.16
-42.39
-44.35
-43.44
-39.64
-33.59
-26.32
-18.88
-12.03
-6.06
-0.88
3.70
7.77
11.18
13.72
15.20
15.69
15.49
15.02
14.68
14.64
14.80
14.82
14.34
13.13
11.18
8.76
6.17
3.65
1.23
-1.21
-3.89
-6.98
-10.53
-14.53
-18.92
-23.61
-28.36
-32.72
-35.97
-37.31
-36.13
-32.31
-26.32
-19.07
-11.60
-4.66
1.47
6.85
11.69
16.03
19.66
22.28
23.63
23.82
23.24
22.42
21.80
21.53
21.47
21.26
20.57
19.20
17.21
14.83
12.38
10.13
8.17
6.43
4.66
2.63
0.13
-2.91
-6.48
-10.49
-14.73
-18.80
-22.09
-23.85
-23.42
-20.50
-15.36
-8.75
-1.70
4.92
10.61
15.31
19.21
22.53
25.29
27.35
28.52
28.76
28.27
27.41
26.63
26.24
26.30
26.56
26.59
25.90
24.19
21.47
18.10
14.62
11.52
9.02
6.93
4.78
2.04
-1.64
-6.24
-11.39
-16.54
-21.15
-24.76
-27.04
-27.76
-26.78
-24.05
-19.70
-14.11
-7.87
-1.69
3.84
8.29
11.54
13.65
14.77
15.08
14.78
14.09
13.26
12.55
12.11
11.89
11.64
11.00
9.66
7.49
4.66
1.55
-1.41
-3.95
-5.98
-7.72
-9.56
-11.89
-15.00
-19.00
-23.68
-28.60
-33.08
-36.33
-37.61
-36.44
-32.82
-27.24
-20.54
-13.60
-7.06
-1.21
4.01
8.69
12.82
16.21
18.58
19.77
19.93
19.44
18.77
18.24
17.86
17.33
16.29
14.47
11.91
8.91
5.93
3.32
1.15
-0.78
-2.89
-5.57
-9.07
-13.43
-18.50
-24.04
-29.72
-35.13
-39.64
-42.51
-43.05
-40.86
-36.06
-29.34
-21.69
-14.12
-7.29
-1.43
3.56
7.85
11.47
14.29
16.11
16.83
16.62
15.85
14.95
14.25
13.76
13.28
12.47
11.05
8.94
6.32
3.51
0.84
-1.52
-3.64
-5.82
-8.47
-11.95
-16.48
-22.02
-28.25
-34.56
-40.14
-44.13
-45.82
-44.90
-41.50
-36.23
-29.94
-23.50
-17.56
-12.49
-8.34
-5.07
-2.69
-1.24
-0.80
-1.36
-2.66
-4.26
-5.58
-6.07
-5.41
-3.55
-0.77
2.46
5.61
8.26
10.14
11.23
11.60
11.46
10.94
10.14
9.03
7.46
5.27
2.31
-1.37
-5.48
-9.41
-12.40
-13.66
-12.68
-9.40
-4.27
1.98
8.55
14.82
20.46
25.39
29.54
32.81
35.03
36.12
36.15
35.45
34.52
33.76
33.39
33.32
33.27
32.93
32.12
30.85
29.28
27.62
25.97
24.34
22.61
20.63
18.27
15.48
12.23
8.50
4.21
-0.67
-6.02
-11.45
-16.25
-19.61
-20.84
-19.63
-16.22
-11.24
-5.55
0.17
5.45
10.14
14.22
17.64
20.23
21.81
22.25
21.62
20.24
18.60
17.21
16.39
16.19
16.35
16.47
16.13
15.09
13.36
11.13
8.63
6.07
3.52
0.92
-1.85
-4.89
-8.32
-12.25
-16.79
-21.95
-27.48
-32.79
-37.01
-39.19
-38.66
-35.30
-29.63
-22.62
-15.30
-8.45
-2.42
2.85
7.50
11.52
14.67
16.62
17.24
16.73
15.62
14.55
13.91
13.67
13.41
12.53
10.61
7.61
3.90
0.06
-3.39
-6.26
-8.68
-11.00
-13.61
-16.77
-20.53
-24.79
-29.27
-33.59
-37.23
-39.56
-40.01
-38.19
-34.11
-28.17
-21.07
-13.61
-6.44
0.03
5.64
10.33
14.07
16.81
18.52
19.25
19.21
18.68
17.92
17.13
16.32
15.40
14.23
12.65
10.65
8.32
5.83
3.33
0.93
-1.43
-3.88
-6.67
-10.04
-14.13
-18.96
-24.28
-29.56
-34.02
-36.77
-37.07
-34.55
-29.42
-22.42
-14.60
-6.90
0.08
6.15
11.41
15.92
19.56
22.00
22.98
22.48
20.91
18.96
17.32
16.34
15.93
15.60
14.78
13.10
10.55
7.49
4.38
1.60
-0.78
-2.93
-5.23
-8.03
-11.52
-15.73
-20.51
-25.62
-30.64
-34.98
-37.84
-38.42
-36.15
-31.01
-23.61
-15.06
-6.55
0.99
7.16
12.05
15.97
19.17
21.66
23.29
23.94
23.70
22.90
21.96
21.21
20.70
20.19
19.28
17.61
15.11
11.99
8.66
5.54
2.87
0.57
-1.70
-4.44
-8.07
-12.82
-18.56
-24.88
-31.06
-36.21
-39.40
-39.93
-37.50
-32.35
-25.22
-17.09
-8.90
-1.30
5.44
11.31
16.36
20.57
23.81
26.00
27.22
27.71
27.82
27.83
27.87
27.96
28.06
28.16
28.27
28.36
28.29
27.82
26.62
24.40
20.96
16.23
10.29
3.33
-4.30
-12.10
-19.46
-25.68
-30.12
-32.23
-31.65
-28.31
-22.49
-14.84
-6.29
2.12
9.58
15.66
20.35
23.95
26.75
28.86
30.16
30.42
29.57
27.81
25.56
23.32
21.40
19.76
18.10
15.99
13.12
9.49
5.43
1.42
-2.08
-4.89
-7.15
-9.27
-11.69
-14.74
-18.56
-23.18
-28.48
-34.28
-40.19
-45.56
-49.55
-51.33
-50.45
-47.07
-41.90
-35.97
-30.21
-25.12
-20.72
-16.74
-12.89
-9.08
-5.42
-2.12
0.70
3.08
5.22
7.35
9.61
11.93
14.08
15.76
16.73
16.87
16.24
15.07
13.59
11.95
10.12
7.94
5.13
1.45
-3.17
-8.55
-14.24
-19.61
-23.90
-26.48
-26.94
-25.24
-21.67
-16.79
-11.22
-5.58
-0.34
4.17
7.71
10.15
11.43
11.64
11.00
9.87
8.65
7.68
7.11
6.86
6.70
6.31
5.45
4.09
2.37
0.57
-1.07
-2.45
-3.67
-4.97
-6.64
-8.89
-11.80
-15.29
-19.09
-22.77
-25.74
-27.30
-26.86
-24.11
-19.22
-12.83
-5.85
0.85
6.74
11.72
16.02
19.97
23.70
27.03
29.62
31.12
31.36
30.55
29.09
27.46
25.97
24.63
23.20
21.31
18.77
15.63
12.21
8.92
6.00
3.40
0.82
-2.11
-5.60
-9.66
-14.08
-18.60
-22.93
-26.66
-29.26
-30.01
-28.30
-23.83
-16.89
-8.34
0.68
9.13
16.42
22.45
27.44
31.66
35.26
38.20
40.42
41.96
43.03
43.95
44.92
45.86
46.39
45.96
44.08
40.66
36.05
30.96
26.12
21.98
18.55
15.47
12.30
8.82
5.11
1.54
-1.44
-3.46
-4.32
-3.94
-2.30
0.63
4.78
9.92
15.68
21.53
26.98
31.66
35.42
38.24
40.19
41.35
41.71
41.24
39.92
37.88
35.34
32.66
30.20
28.17
26.54
25.03
23.26
20.92
17.96
14.59
11.27
8.48
6.56
5.56
5.18
4.81
3.65
0.94
-3.92
-11.07
-20.07
-29.90
-39.09
-46.17
-50.03
-50.32
-47.52
-42.69
-37.05
-31.57
-26.70
-22.43
-18.56
-14.96
-11.74
-9.09
-7.13
-5.69
-4.34
-2.57
-0.09
3.06
6.49
9.63
12.08
13.68
14.65
15.45
16.50
18.09
20.23
22.69
25.06
26.91
27.77
27.09
24.29
18.91
10.84
0.62
-10.56
-21.10
-29.43
-34.59
-36.50
-35.89
-33.93
-31.71
-29.93
-28.80
-28.28
-28.32
-29.04
-30.59
-33.01
-36.02
-39.04
-41.43
-42.75
-43.01
-42.66
-42.41
-42.83
-44.11
-45.94
-47.74
-48.96
-49.38
-49.25
-49.07
-49.42
-50.69
-52.91
-55.80
-58.85
-61.38
-62.69
-62.12
-59.15
-53.68
-46.02
-36.90
-27.26
-17.95
-9.48
-1.97
4.71
10.72
16.05
20.53
23.87
25.94
26.85
26.89
26.49
25.97
25.48
24.94
24.19
23.08
21.62
19.95
18.28
16.77
15.42
14.06
12.38
10.11
7.03
3.08
-1.60
-6.66
-11.50
-15.34
-17.40
-17.10
-14.31
-9.47
-3.45
2.68
8.09
12.32
15.44
17.78
19.69
21.31
22.52
23.03
22.58
21.09
18.78
16.02
13.20
10.59
8.25
6.13
4.15
2.26
0.45
-1.28
-3.03
-4.98
-7.32
-10.14
-13.39
-16.90
-20.49
-24.08
-27.74
-31.67
-36.14
-41.25
-46.77
-52.01
-55.91
-57.32
-55.41
-50.05
-41.92
-32.26
-22.49
-13.65
-6.22
-0.12
4.97
9.32
12.96
15.74
17.51
18.34
18.55
18.59
18.90
19.67
20.82
22.04
22.98
23.35
23.07
22.25
21.08
19.74
18.36
16.94
15.49
14.01
12.52
10.98
9.22
6.97
3.91
-0.10
-4.83
-9.60
-13.40
-15.08
-13.81
-9.33
-2.12
6.76
16.00
24.50
31.66
37.46
42.24
46.28
49.56
51.74
52.37
51.28
48.75
45.49
42.30
39.71
37.80
36.28
34.74
32.94
30.95
29.02
27.41
26.14
25.06
23.94
22.66
21.35
20.22
19.41
18.68
17.43
14.81
10.11
3.03
-6.20
-16.91
-28.31
-39.78
-51.03
-62.05
-73.01
-84.22
-96.02
-108.79
-122.82
-138.21
-154.74
-171.83
-188.71
-204.63
-219.06
-231.84
-243.03
-252.70
-260.66
-266.36
-268.89
-267.21
-260.36
-247.62
-228.65
-203.59
-173.18
-138.93
-103.12
-68.57
-38.03
-13.41
4.68
17.01
25.26
31.23
36.23
40.91
45.46
50.01
54.84
60.32
66.59
73.35
79.92
85.52
89.64
92.15
93.19
92.95
91.43
88.51
84.03
78.10
71.11
63.72
56.65
50.42
45.28
41.13
37.77
34.97
32.62
30.79
29.61
29.16
29.38
30.03
30.70
30.92
30.25
28.40
25.26
21.04
16.29
11.79
8.48
7.15
8.16
11.34
16.04
21.37
26.50
30.95
34.56
37.46
39.82
41.75
43.22
44.14
44.47
44.25
43.64
42.79
41.78
40.54
38.90
36.70
33.89
30.57
26.95
23.27
19.69
16.22
12.80
9.32
5.74
2.00
-1.95
-6.11
-10.41
-14.53
-17.93
-19.86
-19.63
-16.89
-11.80
-5.01
2.54
10.00
16.85
22.99
28.54
33.68
38.40
42.57
45.99
48.64
50.68
52.40
54.00
55.55
56.89
57.78
58.04
57.64
56.65
55.16
53.13
50.30
46.25
40.52
32.83
23.23
12.12
0.23
-11.51
-22.22
-31.04
-37.29
-40.40
-40.05
-36.27
-29.60
-21.08
-12.05
-3.80
2.81
7.56
10.80
13.11
15.00
16.65
17.93
18.63
18.64
18.08
17.24
16.33
15.33
14.04
12.16
9.64
6.73
3.92
1.75
0.43
-0.31
-1.13
-2.87
-6.15
-11.16
-17.57
-24.73
-31.85
-38.16
-43.03
-45.94
-46.49
-44.49
-40.09
-33.83
-26.55
-19.22
-12.61
-7.10
-2.62
1.16
4.54
7.62
10.31
12.44
14.05
15.47
17.25
19.88
23.51
27.77
31.92
35.10
36.74
36.71
35.35
33.20
30.73
28.11
25.24
21.87
17.80
13.05
7.80
2.39
-2.77
-7.19
-10.35
-11.77
-11.08
-8.22
-3.49
2.53
9.12
15.66
21.77
27.30
32.24
36.58
40.24
43.11
45.13
46.37
47.06
47.49
47.96
48.58
49.33
50.07
50.70
51.31
52.16
53.65
56.07
59.53
63.87
68.78
73.96
79.24
84.66
90.33
96.53
103.57
111.94
122.16
134.62
149.41
166.13
184.01
202.18
219.91
236.77
252.40
266.18
276.95
283.15
283.26
276.52
263.43
245.72
225.86
206.16
187.98
171.37
155.29
138.24
119.05
97.36
73.70
49.00
24.14
-0.62
-25.71
-52.02
-80.62
-112.60
-148.93
-190.30
-236.55
-285.86
-334.32
-376.46
-406.70
-421.37
-420.12
-406.05
-384.19
-359.42
-334.73
-310.79
-286.83
-262.02
-236.49
-211.30
-187.80
-166.77
-148.16
-131.42
-116.07
-102.11
-89.93
-80.00
-72.37
-66.43
-61.09
-55.19
-47.95
-39.34
-30.03
-21.10
-13.68
-8.47
-5.56
-4.37
-3.87
-2.87
-0.44
3.84
9.77
16.60
23.40
29.38
34.11
37.62
40.18
42.09
43.44
44.08
43.76
42.34
39.92
36.88
33.71
30.83
28.41
26.36
24.37
22.10
19.38
16.35
13.39
11.04
9.68
9.37
9.79
10.41
10.76
10.76
10.75
11.51
13.85
18.39
25.27
34.11
44.24
54.88
65.42
75.55
85.15
94.27
102.82
110.51
116.85
121.28
123.33
122.78
119.70
114.36
107.15
98.43
88.54
77.80
66.59
55.36
44.59
34.64
25.63
17.41
9.61
1.86
-6.13
-14.40
-22.72
-30.67
-37.69
-43.23
-46.82
-48.21
-47.49
-45.07
-41.65
-38.00
-34.76
-32.28
-30.64
-29.69
-29.31
-29.42
-30.03
-31.16
-32.78
-34.74
-36.83
-38.83
-40.59
-42.03
-43.17
-43.99
-44.50
-44.66
-44.42
-43.76
-42.79
-41.75
-40.91
-40.58
-40.92
-41.88
-43.19
-44.34
-44.75
-43.85
-41.26
-36.93
-31.19
-24.65
-18.07
-12.12
-7.18
-3.36
-0.57
1.38
2.59
3.09
2.89
2.07
0.81
-0.64
-2.07
-3.39
-4.67
-6.05
-7.65
-9.46
-11.28
-12.83
-13.84
-14.21
-14.10
-13.84
-13.89
-14.62
-16.22
-18.55
-21.23
-23.68
-25.29
-25.57
-24.23
-21.33
-17.17
-12.21
-6.93
-1.74
3.15
7.64
11.67
15.15
17.88
19.68
20.44
20.18
19.11
17.48
15.57
13.57
11.59
9.67
7.78
5.88
3.87
1.64
-0.95
-3.97
-7.45
-11.30
-15.37
-19.54
-23.74
-27.93
-32.02
-35.79
-38.84
-40.64
-40.70
-38.78
-35.07
-30.12
-24.75
-19.70
-15.43
-12.00
-9.19
-6.71
-4.41
-2.37
-0.79
0.13
0.38
0.18
-0.12
-0.22
0.02
0.51
1.03
1.42
1.60
1.67
1.73
1.84
1.83
1.47
0.54
-0.91
-2.59
-4.07
-5.03
-5.51
-5.84
-6.55
-8.07
-10.58
-13.93
-17.67
-21.16
-23.67
-24.51
-23.30
-20.23
-16.14
-12.39
-10.38
-10.95
-13.94
-18.21
-22.03
-23.76
-22.37
-17.78
-10.67
-2.22
6.24
13.54
18.77
21.47
21.60
19.64
16.47
13.13
10.59
9.45
9.79
11.21
12.98
14.29
14.54
13.46
11.22
8.32
5.50
3.53
2.98
4.08
6.66
10.15
13.84
17.05
19.36
20.72
21.39
21.71
22.00
22.42
22.95
23.54
24.12
24.68
25.25
25.79
26.21
26.39
26.23
25.75
25.15
24.79
25.04
26.07
27.72
29.53
30.87
31.25
30.60
29.29
27.99
27.38
27.90
29.55
32.06
34.98
37.95
40.72
43.12
44.96
45.91
45.47
43.13
38.44
31.23
21.75
10.66
-1.07
-12.49
-22.87
-31.89
-39.62
-46.31
-52.16
-57.15
-61.06
-63.60
-64.59
-64.00
-61.88
-58.33
-53.45
-47.48
-40.89
-34.47
-29.14
-25.68
-24.39
-24.94
-26.40
-27.64
-27.67
-26.13
-23.38
-20.44
-18.58
-18.83
-21.48
-25.87
-30.56
-33.91
-34.69
-32.59
-28.30
-23.12
-18.35
-14.76
-12.37
-10.65
-8.96
-6.92
-4.57
-2.18
0.00
2.11
4.63
8.24
13.49
20.51
28.90
37.84
46.24
52.98
57.11
58.02
55.62
50.48
43.76
36.98
31.71
29.17
29.99
34.05
40.56
48.23
55.53
61.13
64.26
64.99
64.20
63.15
62.86
63.63
64.85
65.40
64.21
60.84
55.58
49.31
43.02
37.47
33.05
29.91
28.03
27.42
28.01
29.62
31.84
34.08
35.64
35.88
34.35
30.90
25.69
19.08
11.52
3.50
-4.54
-12.15
-18.88
-24.27
-27.99
-29.90
-30.24
-29.54
-28.55
-27.90
-27.93
-28.57
-29.44
-30.06
-30.19
-29.92
-29.67
-29.91
-30.95
-32.69
-34.71
-36.40
-37.21
-36.83
-35.29
-32.92
-30.15
-27.42
-25.03
-23.10
-21.66
-20.63
-19.99
-19.72
-19.87
-20.40
-21.19
-22.09
-22.97
-23.86
-24.88
-26.14
-27.53
-28.58
-28.63
-27.05
-23.60
-18.57
-12.73
-6.96
-1.92
2.22
5.68
8.91
12.27
15.80
19.24
22.16
24.14
25.08
25.17
24.87
24.69
24.93
25.51
26.06
26.04
25.09
23.23
20.81
18.35
16.18
14.34
12.52
10.31
7.44
3.97
0.20
-3.54
-6.99
-10.15
-13.08
-15.70
-17.67
-18.44
-17.49
-14.63
-10.16
-4.79
0.61
5.28
8.86
11.36
13.00
14.05
14.59
14.54
13.76
12.26
10.27
8.24
6.62
5.64
5.12
4.57
3.40
1.25
-1.85
-5.48
-9.12
-12.37
-15.17
-17.72
-20.38
-23.41
-26.87
-30.66
-34.61
-38.54
-42.28
-45.59
-48.09
-49.32
-48.80
-46.30
-41.90
-36.07
-29.50
-22.90
-16.76
-11.29
-6.45
-2.12
1.75
5.10
7.73
9.49
10.31
10.33
9.87
9.33
9.07
9.23
9.66
10.02
9.87
8.92
7.13
4.75
2.17
-0.24
-2.32
-4.10
-5.75
-7.49
-9.48
-11.82
-14.60
-17.82
-21.36
-24.89
-27.82
-29.48
-29.29
-26.96
-22.65
-16.86
-10.29
-3.63
2.62
8.16
12.95
17.04
20.55
23.54
25.99
27.79
28.76
28.83
28.03
26.59
24.82
23.06
21.47
20.03
18.54
16.76
14.50
11.79
8.77
5.72
2.80
0.02
-2.85
-6.10
-9.92
-14.26
-18.88
-23.44
-27.73
-31.69
-35.36
-38.59
-40.97
-41.86
-40.66
-37.16
-31.67
-25.00
-18.07
-11.60
-5.88
-0.84
3.74
8.06
12.06
15.49
18.03
19.50
19.89
19.49
18.75
18.06
17.69
17.60
17.55
17.22
16.39
15.06
13.38
11.56
9.71
7.74
5.46
2.72
-0.47
-3.84
-7.04
-9.81
-12.15
-14.41
-17.07
-20.52
-24.73
-29.15
-32.83
-34.72
-34.08
-30.81
-25.40
-18.75
-11.79
-5.09
1.20
7.22
13.11
18.73
23.69
27.50
29.89
31.02
31.33
31.41
31.60
31.92
32.08
31.75
30.78
29.31
27.68
26.20
24.93
23.63
21.90
19.36
15.96
11.98
7.99
4.54
1.90
-0.02
-1.72
-3.87
-7.04
-11.46
-16.89
-22.68
-27.92
-31.70
-33.38
-32.72
-29.90
-25.38
-19.75
-13.56
-7.27
-1.26
4.21
8.94
12.88
16.08
18.66
20.71
22.22
23.08
23.17
22.44
21.08
19.38
17.70
16.23
14.98
13.71
12.11
9.92
7.06
3.68
0.06
-3.47
-6.74
-9.73
-12.63
-15.69
-19.09
-22.93
-27.15
-31.67
-36.30
-40.83
-44.91
-48.07
-49.77
-49.56
-47.26
-43.11
-37.70
-31.93
-26.66
-22.56
-19.93
-18.70
-18.46
-18.61
-18.48
-17.44
-15.02
-11.04
-5.62
0.77
7.49
13.85
19.29
23.51
26.46
28.25
29.10
29.20
28.68
27.65
26.12
24.06
21.37
17.97
13.82
9.01
3.74
-1.73
-7.17
-12.41
-17.23
-21.29
-24.14
-25.27
-24.33
-21.32
-16.69
-11.15
-5.51
-0.32
4.23
8.27
12.05
15.72
19.18
22.13
24.21
25.23
25.27
24.61
23.65
22.71
21.88
21.04
19.98
18.49
16.50
14.10
11.45
8.71
5.98
3.24
0.46
-2.42
-5.38
-8.35
-11.24
-14.04
-16.89
-20.01
-23.60
-27.62
-31.66
-34.96
-36.62
-35.90
-32.58
-27.05
-20.15
-12.93
-6.16
-0.16
5.20
10.26
15.23
20.05
24.33
27.62
29.63
30.47
30.49
30.19
29.86
29.49
28.83
27.55
25.54
22.92
20.03
17.18
14.47
11.74
8.72
5.21
1.29
-2.70
-6.31
-9.21
-11.45
-13.45
-15.86
-19.27
-23.87
-29.32
-34.81
-39.25
-41.70
-41.61
-39.06
-34.60
-29.03
-23.02
-16.94
-10.84
-4.63
1.66
7.80
13.35
17.95
21.43
23.90
25.64
26.85
27.59
27.71
27.14
25.93
24.39
22.91
21.78
20.99
20.22
19.04
17.06
14.18
10.66
6.94
3.50
0.62
-1.70
-3.69
-5.69
-7.97
-10.69
-13.89
-17.48
-21.32
-25.13
-28.49
-30.79
-31.43
-29.94
-26.22
-20.57
-13.62
-6.13
1.21
7.96
13.91
19.11
23.63
27.56
30.91
33.57
35.43
36.42
36.58
36.08
35.22
34.21
33.18
32.03
30.57
28.65
26.24
23.47
20.61
17.87
15.25
12.60
9.69
6.38
2.79
-0.77
-3.96
-6.61
-8.88
-11.30
-14.44
-18.63
-23.69
-28.89
-33.11
-35.30
-34.83
-31.72
-26.61
-20.43
-14.10
-8.16
-2.75
2.29
7.14
11.80
16.04
19.53
22.08
23.73
24.75
25.45
25.99
26.28
26.07
25.17
23.62
21.73
19.91
18.47
17.34
16.15
14.38
11.70
8.13
4.09
0.19
-3.08
-5.55
-7.43
-9.19
-11.37
-14.29
-18.00
-22.23
-26.47
-30.11
-32.57
-33.39
-32.34
-29.42
-24.88
-19.16
-12.81
-6.43
-0.55
4.42
8.24
10.92
12.64
13.67
14.24
14.46
14.34
13.83
12.93
11.75
10.50
9.36
8.38
7.42
6.17
4.32
1.69
-1.62
-5.29
-8.87
-12.00
-14.54
-16.62
-18.57
-20.71
-23.28
-26.34
-29.82
-33.55
-37.32
-40.81
-43.59
-45.11
-44.82
-42.33
-37.63
-31.10
-23.53
-15.78
-8.61
-2.47
2.61
6.88
10.68
14.22
17.45
20.09
21.76
22.23
21.55
20.11
18.50
17.26
16.67
16.56
16.48
15.91
14.50
12.28
9.53
6.64
3.87
1.22
-1.42
-4.20
-7.13
-10.09
-13.02
-16.02
-19.34
-23.27
-27.79
-32.44
-36.31
-38.39
-37.92
-34.78
-29.52
-23.11
-16.53
-10.46
-5.07
-0.16
4.54
9.14
13.46
17.16
19.91
21.58
22.25
22.20
21.74
21.09
20.35
19.50
18.45
17.17
15.66
14.04
12.41
10.85
9.27
7.48
5.24
2.45
-0.80
-4.21
-7.42
-10.21
-12.62
-15.01
-17.82
-21.37
-25.58
-29.91
-33.52
-35.55
-35.49
-33.33
-29.50
-24.63
-19.26
-13.64
-7.79
-1.67
4.61
10.71
16.16
20.59
23.88
26.18
27.78
28.93
29.70
30.04
29.84
29.07
27.88
26.50
25.21
24.13
23.20
22.17
20.75
18.71
16.01
12.85
9.53
6.38
3.52
0.92
-1.66
-4.49
-7.75
-11.46
-15.53
-19.79
-24.04
-28.02
-31.36
-33.59
-34.22
-32.89
-29.57
-24.60
-18.67
-12.57
-6.91
-2.01
2.17
5.83
9.14
12.05
14.29
15.50
15.38
13.90
11.37
8.41
5.73
3.97
3.52
4.44
6.47
9.22
12.25
15.22
17.85
19.96
21.35
21.83
21.26
19.64
17.13
14.07
10.79
7.51
4.18
0.52
-3.80
-8.94
-14.67
-20.26
-24.77
-27.33
-27.51
-25.50
-22.00
-17.84
-13.68
-9.79
-6.12
-2.56
0.88
3.96
6.37
7.92
8.73
9.15
9.61
10.35
11.35
12.33
12.94
13.02
12.64
12.11
11.74
11.65
11.61
11.22
10.07
8.00
5.22
2.21
-0.51
-2.65
-4.29
-5.83
-7.80
-10.61
-14.36
-18.77
-23.27
-27.19
-29.97
-31.23
-30.86
-28.93
-25.63
-21.22
-15.99
-10.27
-4.50
0.87
5.40
8.83
11.15
12.63
13.63
14.43
15.10
15.47
15.30
14.47
13.09
11.54
10.27
9.56
9.40
9.42
9.16
8.21
6.47
4.14
1.57
-0.93
-3.21
-5.35
-7.49
-9.79
-12.29
-14.98
-17.88
-21.10
-24.71
-28.56
-32.19
-34.82
-35.58
-33.92
-29.79
-23.79
-16.86
-9.98
-3.79
1.47
5.97
9.98
13.66
17.02
19.85
21.96
23.22
23.67
23.49
22.96
22.31
21.71
21.17
20.60
19.83
18.67
17.07
15.06
12.73
10.19
7.46
4.55
1.48
-1.67
-4.76
-7.62
-10.18
-12.58
-15.17
-18.37
-22.52
-27.57
-32.98
-37.79
-40.93
-41.56
-39.44
-34.95
-28.93
-22.32
-15.77
-9.56
-3.69
1.87
7.00
11.42
14.88
17.38
19.21
20.80
22.50
24.32
25.92
26.80
26.61
25.35
23.41
21.36
19.70
18.57
17.76
16.80
15.27
12.96
9.99
6.70
3.47
0.50
-2.24
-4.99
-8.00
-11.44
-15.32
-19.54
-23.92
-28.30
-32.41
-35.86
-38.10
-38.57
-36.88
-33.01
-27.38
-20.71
-13.80
-7.28
-1.46
3.65
8.22
12.42
16.32
19.82
22.71
24.79
25.95
26.29
26.03
25.42
24.65
23.70
22.47
20.80
18.70
16.37
14.15
12.29
10.86
9.58
8.02
5.75
2.64
-1.05
-4.81
-8.07
-10.57
-12.48
-14.32
-16.74
-20.17
-24.51
-29.09
-32.93
-35.03
-34.81
-32.27
-27.89
-22.42
-16.49
-10.40
-4.17
2.28
8.85
15.15
20.64
24.84
27.59
29.17
30.10
30.93
31.90
32.89
33.53
33.41
32.38
30.66
28.69
26.96
25.69
24.78
23.82
22.30
19.92
16.71
13.06
9.46
6.31
3.74
1.56
-0.57
-3.02
-5.96
-9.42
-13.30
-17.48
-21.82
-26.11
-29.94
-32.66
-33.57
-32.11
-28.22
-22.36
-15.46
-8.57
-2.46
2.59
6.74
10.36
13.75
16.88
19.51
21.30
22.12
22.08
21.53
20.88
20.33
19.84
19.21
18.19
16.72
14.91
13.04
11.32
9.75
8.12
6.08
3.39
0.04
-3.67
-7.27
-10.41
-13.00
-15.31
-17.83
-21.07
-25.25
-30.15
-35.16
-39.42
-42.10
-42.68
-41.01
-37.36
-32.23
-26.14
-19.57
-12.84
-6.22
0.01
5.52
9.99
13.23
15.25
16.28
16.73
17.00
17.31
17.64
17.73
17.27
16.09
14.28
12.21
10.32
8.91
7.97
7.18
6.10
4.42
2.12
-0.58
-3.31
-5.84
-8.13
-10.37
-12.80
-15.60
-18.83
-22.41
-26.25
-30.18
-33.92
-37.00
-38.80
-38.72
-36.36
-31.77
-25.41
-18.11
-10.75
-4.01
1.74
6.53
10.59
14.19
17.45
20.32
22.61
24.17
24.94
25.07
24.81
24.38
23.79
22.95
21.66
19.90
17.79
15.58
13.48
11.51
9.51
7.19
4.34
0.92
-2.87
-6.68
-10.17
-13.12
-15.55
-17.75
-20.22
-23.39
-27.47
-32.22
-36.97
-40.73
-42.60
-42.02
-39.01
-34.06
-27.94
-21.39
-14.89
-8.64
-2.66
3.03
8.26
12.78
16.29
18.69
20.09
20.80
21.17
21.41
21.54
21.41
20.87
19.88
18.52
16.92
15.09
12.88
10.01
6.26
1.72
-3.17
-7.74
-11.34
-13.64
-14.78
-15.23
-15.55
-16.11
-17.00
-18.10
-19.36
-20.81
-22.60
-24.75
-26.92
-28.41
-28.41
-26.29
-21.99
-16.00
-9.23
-2.55
3.49
8.81
13.61
18.15
22.48
26.35
29.37
31.20
31.77
31.35
30.40
29.40
28.63
28.07
27.51
26.64
25.28
23.44
21.30
19.09
16.95
14.86
12.64
10.05
6.94
3.32
-0.54
-4.23
-7.38
-9.78
-11.63
-13.45
-15.87
-19.33
-23.73
-28.40
-32.29
-34.39
-34.15
-31.62
-27.36
-22.05
-16.19
-9.96
-3.39
3.42
10.11
16.14
21.01
24.55
26.98
28.80
30.51
32.37
34.25
35.77
36.52
36.29
35.17
33.52
31.72
30.04
28.48
26.82
24.77
22.11
18.86
15.26
11.62
8.23
5.19
2.39
-0.37
-3.28
-6.47
-9.89
-13.52
-17.36
-21.45
-25.76
-30.02
-33.65
-35.83
-35.84
-33.34
-28.61
-22.38
-15.61
-9.07
-3.09
2.34
7.40
12.16
16.48
20.04
22.56
23.97
24.46
24.40
24.12
23.79
23.36
22.61
21.35
19.51
17.21
14.73
12.36
10.24
8.30
6.25
3.78
0.76
-2.69
-6.19
-9.27
-11.70
-13.60
-15.47
-17.92
-21.38
-25.81
-30.66
-35.05
-38.10
-39.23
-38.24
-35.34
-30.94
-25.47
-19.35
-12.93
-6.58
-0.62
4.61
8.87
12.08
14.34
15.94
17.22
18.45
19.67
20.66
21.09
20.68
19.38
17.49
15.47
13.74
12.44
11.36
10.02
7.96
5.08
1.59
-1.97
-5.13
-7.68
-9.75
-11.71
-13.99
-16.81
-20.20
-24.05
-28.18
-32.38
-36.38
-39.75
-41.93
-42.32
-40.50
-36.40
-30.39
-23.16
-15.56
-8.33
-1.93
3.47
8.00
11.89
15.31
18.30
20.72
22.39
23.22
23.34
23.02
22.54
22.06
21.47
20.56
19.11
17.12
14.78
12.40
10.20
8.17
6.12
3.82
1.13
-1.91
-5.06
-8.11
-10.97
-13.81
-16.98
-20.86
-25.61
-30.97
-36.18
-40.22
-42.13
-41.34
-37.99
-32.79
-26.71
-20.59
-14.79
-9.20
-3.51
2.48
8.55
14.15
18.62
21.60
23.18
23.83
24.12
24.40
24.61
24.43
23.53
21.89
19.82
17.82
16.27
15.20
14.28
12.99
10.88
7.86
4.20
0.39
-3.11
-6.07
-8.61
-11.07
-13.87
-17.29
-21.44
-26.15
-31.11
-35.86
-39.85
-42.50
-43.31
-41.96
-38.42
-32.96
-26.09
-18.47
-10.73
-3.41
3.14
8.79
13.62
17.83
21.60
25.01
27.95
30.14
31.31
31.33
30.37
28.79
27.09
25.62
24.53
23.67
22.75
21.49
19.75
17.55
14.98
12.15
9.05
5.66
1.98
-1.85
-5.58
-8.96
-11.93
-14.70
-17.71
-21.45
-26.13
-31.51
-36.77
-40.83
-42.63
-41.60
-37.81
-31.95
-25.02
-17.89
-11.03
-4.44
2.15
8.92
15.72
22.03
27.22
30.88
33.00
34.00
34.46
34.83
35.23
35.50
35.41
34.82
33.84
32.67
31.47
30.23
28.73
26.69
23.91
20.46
16.63
12.87
9.53
6.76
4.46
2.28
-0.21
-3.33
-7.24
-11.88
-17.01
-22.31
-27.31
-31.53
-34.44
-35.55
-34.56
-31.47
-26.58
-20.51
-13.94
-7.48
-1.50
3.89
8.70
13.00
16.73
19.74
21.82
22.85
22.91
22.26
21.26
20.24
19.36
18.57
17.67
16.46
14.84
12.89
10.79
8.69
6.63
4.45
1.95
-0.99
-4.34
-7.85
-11.14
-13.94
-16.15
-17.98
-19.88
-22.33
-25.61
-29.61
-33.78
-37.20
-38.94
-38.33
-35.18
-29.86
-23.11
-15.75
-8.46
-1.63
4.57
10.04
14.68
18.34
20.88
22.34
22.93
23.01
22.88
22.64
22.18
21.22
19.59
17.34
14.83
12.56
10.86
9.77
8.93
7.84
6.10
3.67
0.81
-2.05
-4.60
-6.84
-9.07
-11.74
-15.24
-19.70
-24.90
-30.37
-35.45
-39.46
-41.81
-42.08
-40.12
-36.05
-30.24
-23.25
-15.71
-8.25
-1.36
4.65
9.71
13.93
17.57
20.84
23.84
26.45
28.41
29.43
29.40
28.44
26.94
25.37
24.04
23.02
22.10
20.90
19.14
16.71
13.78
10.64
7.56
4.61
1.68
-1.43
-4.90
-8.68
-12.62
-16.58
-20.56
-24.78
-29.45
-34.52
-39.50
-43.46
-45.36
-44.50
-40.86
-35.17
-28.57
-22.15
-16.48
-11.52
-6.82
-1.92
3.35
8.69
13.55
17.37
19.88
21.24
21.85
22.15
22.36
22.38
21.95
20.85
19.10
17.01
15.02
13.42
12.18
10.92
9.17
6.63
3.33
-0.33
-3.85
-6.91
-9.51
-11.98
-14.83
-18.46
-23.06
-28.44
-34.12
-39.40
-43.52
-45.82
-45.87
-43.58
-39.16
-33.08
-25.88
-18.06
-10.09
-2.36
4.77
10.99
16.15
20.26
23.48
26.02
27.98
29.30
29.87
29.62
28.69
27.37
26.06
24.99
24.18
23.43
22.43
20.91
18.75
15.99
12.77
9.25
5.58
1.86
-1.84
-5.47
-9.01
-12.46
-15.83
-19.17
-22.62
-26.39
-30.56
-34.98
-39.11
-42.09
-42.97
-41.13
-36.55
-29.83
-21.98
-13.94
-6.31
0.78
7.48
13.95
20.14
25.71
30.26
33.51
35.45
36.35
36.60
36.57
36.43
36.15
35.54
34.42
32.76
30.71
28.56
26.59
24.89
23.30
21.46
19.01
15.79
11.96
7.93
4.18
1.00
-1.65
-4.07
-6.73
-9.96
-13.89
-18.42
-23.28
-28.14
-32.59
-36.05
-37.85
-37.35
-34.19
-28.47
-20.87
-12.43
-4.22
3.00
9.02
14.07
18.59
22.88
26.99
30.60
33.34
34.90
35.23
34.56
33.26
31.68
30.07
28.46
26.81
25.07
23.22
21.34
19.47
17.54
15.36
12.68
9.30
5.23
0.79
-3.52
-7.19
-9.94
-11.92
-13.66
-15.91
-19.28
-23.96
-29.49
-34.91
-39.02
-40.80
-39.79
-36.19
-30.76
-24.45
-17.99
-11.74
-5.69
0.27
6.08
11.39
15.68
18.55
19.98
20.33
20.17
19.91
19.65
19.12
17.95
15.96
13.34
10.60
8.26
6.53
5.23
3.80
1.67
-1.42
-5.26
-9.29
-12.87
-15.67
-17.78
-19.69
-22.01
-25.16
-29.24
-33.99
-38.97
-43.70
-47.68
-50.44
-51.44
-50.19
-46.43
-40.33
-32.52
-24.00
-15.73
-8.42
-2.28
2.85
7.34
11.48
15.35
18.80
21.56
23.41
24.26
24.20
23.47
22.35
21.08
19.77
18.35
16.65
14.47
11.71
8.46
4.97
1.47
-1.90
-5.25
-8.83
-12.92
-17.57
-22.58
-27.56
-32.24
-36.67
-41.27
-46.56
-52.83
-59.78
-66.49
-71.73
-74.33
-73.58
-69.34
-61.89
-51.75
-39.47
-25.68
-11.07
3.51
17.17
29.15
38.99
46.61
52.30
56.58
60.02
63.09
65.99
68.67
70.85
72.13
72.21
70.95
68.45
64.87
60.39
55.00
48.63
41.21
32.84
23.82
14.62
5.64
-2.93
-11.14
-19.22
-27.39
-35.68
-43.88
-51.52
-58.03
-62.88
-65.67
-66.23
-64.65
-61.21
-56.32
-50.45
-43.97
-37.21
-30.39
-23.76
-17.54
-11.94
-7.05
-2.86
0.73
3.79
6.28
8.04
8.88
8.75
7.80
6.36
4.81
3.37
1.99
0.36
-1.90
-5.02
-9.01
-13.59
-18.41
-23.12
-27.55
-31.62
-35.32
-38.64
-41.53
-43.96
-46.05
-48.03
-50.16
-52.51
-54.79
-56.27
-55.99
-53.12
-47.34
-39.06
-29.31
-19.38
-10.27
-2.45
4.24
10.28
16.08
21.70
26.88
31.23
34.57
37.04
39.08
41.13
43.45
45.96
48.35
50.30
51.64
52.42
52.88
53.29
53.78
54.37
54.94
55.39
55.69
55.89
56.12
56.47
56.86
56.97
56.35
54.57
51.47
47.43
43.29
40.16
39.03
40.34
43.89
48.95
54.57
59.97
64.68
68.57
71.66
73.95
75.34
75.76
75.19
73.78
71.74
69.25
66.36
63.00
58.99
54.25
48.84
42.99
37.07
31.34
25.91
20.62
15.11
9.01
2.11
-5.50
-13.45
-21.28
-28.62
-35.46
-42.09
-49.00
-56.62
-65.12
-74.28
-83.56
-92.22
-99.44
-104.48
-106.70
-105.72
-101.46
-94.20
-84.57
-73.42
-61.63
-49.94
-38.83
-28.50
-18.97
-10.19
-2.17
4.94
10.94
15.56
18.69
20.36
20.89
20.74
20.42
20.29
20.44
20.71
20.80
20.45
19.55
18.23
16.67
15.05
13.36
11.48
9.24
6.63
3.77
0.83
-2.16
-5.40
-9.26
-14.02
-19.52
-25.06
-29.46
-31.47
-30.30
-25.94
-19.18
-11.29
-3.54
3.29
8.99
13.85
18.28
22.43
26.17
29.10
30.92
31.57
31.31
30.56
29.66
28.71
27.60
26.11
24.14
21.77
19.25
16.84
14.67
12.65
10.51
7.96
4.86
1.28
-2.48
-6.05
-9.19
-11.94
-14.59
-17.62
-21.43
-26.10
-31.27
-36.09
-39.51
-40.59
-38.83
-34.40
-28.01
-20.66
-13.30
-6.57
-0.71
4.30
8.46
11.73
13.95
15.03
15.07
14.41
13.48
12.63
11.95
11.34
10.56
9.46
8.07
6.53
4.99
3.40
1.56
-0.79
-3.82
-7.41
-11.29
-15.05
-18.42
-21.32
-23.95
-26.67
-29.81
-33.57
-37.86
-42.30
-46.25
-48.94
-49.70
-48.08
-44.06
-37.96
-30.43
-22.22
-14.06
-6.50
0.09
5.57
9.96
13.43
16.19
18.44
20.36
21.99
23.24
23.96
24.03
23.45
22.42
21.26
20.24
19.49
18.90
18.20
17.09
15.43
13.22
10.64
7.83
4.90
1.81
-1.49
-5.01
-8.71
-12.54
-16.52
-20.74
-25.24
-29.83
-33.99
-36.95
-37.86
-36.22
-32.03
-25.85
-18.62
-11.33
-4.69
1.00
5.82
10.07
13.97
17.56
20.67
23.03
24.43
24.90
24.67
24.05
23.29
22.45
21.41
19.99
18.12
15.87
13.47
11.14
8.99
6.94
4.76
2.18
-0.96
-4.63
-8.64
-12.69
-16.60
-20.40
-24.32
-28.73
-33.83
-39.40
-44.76
-48.85
-50.62
-49.48
-45.52
-39.49
-32.50
-25.52
-19.12
-13.39
-8.13
-3.22
1.22
4.83
7.26
8.41
8.54
8.09
7.54
7.04
6.44
5.40
3.67
1.30
-1.31
-3.52
-4.85
-5.10
-4.56
-3.81
-3.50
-4.03
-5.42
-7.34
-9.29
-10.91
-12.19
-13.45
-15.26
-18.12
-22.22
-27.26
-32.52
-37.00
-39.78
-40.21
-38.09
-33.58
-27.15
-19.37
-10.83
-2.11
6.31
14.02
20.78
26.45
31.08
34.76
37.61
39.70
41.01
41.49
41.14
40.06
38.44
36.52
34.53
32.55
30.53
28.32
25.79
22.87
19.66
16.38
13.24
10.36
7.69
5.05
2.27
-0.74
-3.92
-7.20
-10.55
-14.06
-17.86
-21.91
-25.80
-28.76
-29.80
-28.16
-23.64
-16.77
-8.64
-0.48
6.81
12.88
17.91
22.34
26.45
30.29
33.61
36.16
37.81
38.73
39.21
39.48
39.63
39.48
38.79
37.39
35.33
32.90
30.43
28.14
26.02
23.81
21.16
17.83
13.82
9.40
4.98
0.94
-2.54
-5.66
-8.88
-12.77
-17.71
-23.61
-29.79
-35.18
-38.65
-39.43
-37.42
-33.17
-27.61
-21.63
-15.84
-10.49
-5.60
-1.19
2.57
5.49
7.42
8.43
8.80
8.90
8.99
9.11
9.11
8.74
7.88
6.59
5.12
3.74
2.63
1.70
0.71
-0.68
-2.67
-5.19
-7.96
-10.61
-12.88
-14.81
-16.71
-19.05
-22.21
-26.32
-31.13
-36.01
-40.17
-42.84
-43.44
-41.73
-37.85
-32.21
-25.41
-18.10
-10.92
-4.36
1.18
5.55
8.78
11.08
12.80
14.21
15.38
16.25
16.60
16.30
15.37
14.08
12.76
11.67
10.82
10.00
8.84
7.03
4.50
1.41
-1.83
-4.81
-7.24
-9.13
-10.74
-12.51
-14.88
-18.14
-22.31
-27.20
-32.32
-37.06
-40.69
-42.52
-42.01
-38.98
-33.60
-26.42
-18.23
-9.88
-2.08
4.73
10.41
15.04
18.83
22.00
24.66
26.82
28.36
29.17
29.19
28.50
27.29
25.81
24.23
22.61
20.89
18.93
16.64
13.98
11.02
7.87
4.60
1.23
-2.25
-5.87
-9.57
-13.28
-16.92
-20.54
-24.39
-28.82
-34.15
-40.30
-46.64
-51.96
-54.87
-54.26
-49.82
-42.17
-32.65
-22.76
-13.62
-5.67
1.26
7.56
13.48
18.94
23.62
27.19
29.56
30.96
31.75
32.22
32.45
32.25
31.42
29.89
27.85
25.70
23.82
22.34
21.07
19.51
17.16
13.75
9.38
4.47
-0.37
-4.73
-8.50
-11.93
-15.53
-19.82
-25.08
-31.25
-37.80
-43.84
-48.31
-50.25
-49.14
-44.96
-38.24
-29.82
-20.62
-11.39
-2.64
5.34
12.40
18.40
23.28
27.09
30.02
32.29
34.05
35.24
35.66
35.12
33.59
31.36
28.93
26.84
25.39
24.48
23.67
22.36
20.09
16.78
12.70
8.36
4.23
0.52
-2.81
-6.00
-9.31
-12.90
-16.87
-21.25
-26.07
-31.21
-36.23
-40.32
-42.42
-41.57
-37.32
-29.99
-20.61
-10.55
-1.04
7.22
14.16
20.16
25.66
30.87
35.64
39.57
42.30
43.69
43.95
43.50
42.78
42.01
41.13
39.91
38.16
35.90
33.34
30.78
28.40
26.09
23.57
20.50
16.73
12.42
7.97
3.83
0.23
-2.92
-6.00
-9.61
-14.19
-19.91
-26.44
-33.02
-38.58
-42.07
-42.75
-40.39
-35.33
-28.29
-20.19
-11.82
-3.77
3.68
10.37
16.18
20.97
24.61
27.09
28.53
29.18
29.33
29.17
28.72
27.88
26.55
24.79
22.82
20.90
19.22
17.69
16.00
13.72
10.58
6.59
2.12
-2.27
-6.10
-9.14
-11.54
-13.74
-16.26
-19.50
-23.63
-28.55
-33.86
-38.97
-43.10
-45.45
-45.32
-42.34
-36.63
-28.81
-19.88
-10.94
-2.91
3.73
8.94
12.99
16.22
18.86
20.91
22.23
22.69
22.27
21.14
19.64
18.11
16.79
15.69
14.69
13.56
12.07
10.11
7.70
4.93
2.00
-0.99
-4.00
-7.10
-10.34
-13.73
-17.22
-20.70
-24.23
-28.03
-32.43
-37.66
-43.51
-49.21
-53.51
-55.15
-53.29
-47.87
-39.68
-30.01
-20.15
-11.00
-2.90
4.23
10.61
16.32
21.24
25.10
27.71
29.13
29.66
29.73
29.67
29.57
29.30
28.60
27.35
25.64
23.76
22.03
20.53
19.07
17.21
14.52
10.83
6.35
1.60
-2.85
-6.66
-9.86
-12.84
-16.20
-20.45
-25.85
-32.19
-38.86
-44.90
-49.25
-51.02
-49.71
-45.36
-38.50
-29.97
-20.65
-11.32
-2.51
5.43
12.30
18.01
22.53
25.95
28.45
30.21
31.39
32.00
32.00
31.31
29.95
28.07
25.90
23.68
21.59
19.67
17.82
15.88
13.67
11.03
7.90
4.33
0.43
-3.58
-7.51
-11.23
-14.72
-18.08
-21.57
-25.49
-30.13
-35.55
-41.49
-47.24
-51.72
-53.76
-52.56
-47.93
-40.48
-31.34
-21.79
-12.83
-4.89
2.05
8.22
13.79
18.69
22.68
25.53
27.26
28.12
28.53
28.85
29.21
29.51
29.44
28.79
27.49
25.73
23.84
22.06
20.44
18.75
16.61
13.70
9.98
5.75
1.51
-2.23
-5.24
-7.70
-10.12
-13.17
-17.36
-22.74
-28.83
-34.71
-39.26
-41.52
-40.93
-37.49
-31.67
-24.22
-15.90
-7.37
0.89
8.56
15.42
21.26
25.96
29.49
31.93
33.46
34.29
34.61
34.53
34.07
33.25
32.12
30.76
29.32
27.94
26.60
25.17
23.43
21.16
18.33
15.11
11.80
8.67
5.87
3.31
0.80
-1.82
-4.64
-7.64
-10.86
-14.41
-18.51
-23.27
-28.46
-33.33
-36.78
-37.73
-35.50
-30.16
-22.53
-13.83
-5.27
2.35
8.76
14.09
18.58
22.33
25.26
27.17
27.94
27.68
26.71
25.46
24.27
23.28
22.40
21.35
19.87
17.84
15.35
12.62
9.94
7.41
4.99
2.47
-0.33
-3.39
-6.52
-9.40
-11.84
-13.96
-16.20
-19.15
-23.16
-28.12
-33.29
-37.47
-39.46
-38.47
-34.39
-27.82
-19.80
-11.41
-3.44
3.71
9.99
15.45
20.10
23.84
26.52
28.10
28.70
28.59
28.07
27.35
26.41
25.07
23.15
20.60
17.55
14.23
10.84
7.39
3.72
-0.37
-4.97
-9.95
-14.97
-19.67
-23.86
-27.62
-31.29
-35.32
-40.05
-45.53
-51.43
-57.01
-61.31
-63.35
-62.47
-58.53
-51.98
-43.73
-34.83
-26.18
-18.23
-11.10
-4.65
1.20
6.39
10.74
14.14
16.58
18.29
19.53
20.48
21.13
21.35
21.01
20.17
19.04
17.86
16.73
15.55
13.97
11.64
8.38
4.31
-0.24
-4.84
-9.16
-13.13
-16.98
-21.15
-26.09
-32.07
-38.99
-46.26
-52.95
-57.98
-60.50
-60.13
-57.13
-52.23
-46.46
-40.82
-36.08
-32.64
-30.59
-29.73
-29.70
-30.16
-30.95
-32.24
-34.60
-38.88
-45.87
-55.85
-68.18
-81.11
-92.06
-98.15
-97.14
-88.17
-72.15
-51.48
-29.38
-8.91
7.72
19.33
25.71
27.14
24.18
17.60
8.39
-2.18
-12.79
-22.28
-29.93
-35.41
-38.67
-39.65
-38.25
-34.37
-28.14
-19.98
-10.64
-0.89
8.63
17.56
25.82
33.40
40.29
46.33
51.31
55.06
57.59
59.14
60.11
60.91
61.82
62.81
63.60
63.82
63.20
61.75
59.77
57.74
56.04
54.79
53.72
52.23
49.64
45.40
39.35
31.80
23.44
15.18
7.86
2.12
-1.71
-3.47
-3.12
-0.71
3.65
9.56
16.41
23.41
29.83
35.15
39.26
42.34
44.73
46.64
48.12
49.02
49.14
48.42
46.99
45.22
43.51
42.17
41.28
40.68
40.06
39.06
37.49
35.32
32.66
29.66
26.41
22.87
18.96
14.59
9.82
4.80
-0.22
-5.10
-9.84
-14.54
-19.18
-23.50
-26.87
-28.50
-27.81
-24.71
-19.72
-13.77
-7.80
-2.46
2.04
5.79
8.94
11.49
13.30
14.26
14.40
13.99
13.46
13.18
13.34
13.84
14.37
14.58
14.17
13.07
11.40
9.40
7.36
5.42
3.60
1.82
-0.04
-2.04
-4.15
-6.33
-8.53
-10.80
-13.16
-15.54
-17.59
-18.73
-18.34
-15.99
-11.68
-5.92
0.48
6.73
12.36
17.33
21.93
26.46
30.96
35.15
38.54
40.68
41.42
40.95
39.66
38.01
36.22
34.27
31.92
28.81
24.68
19.56
13.91
8.64
4.93
3.91
6.13
11.30
18.22
25.15
30.40
32.84
32.12
28.54
22.69
15.15
6.32
-3.54
-14.27
-25.78
-38.00
-50.84
-63.86
-76.09
-85.98
-91.80
-92.22
-86.94
-76.95
-64.27
-51.28
-39.88
-31.03
-24.62
-19.83
-15.68
-11.52
-7.19
-2.95
0.83
3.94
6.49
8.79
11.04
13.16
14.70
15.11
13.99
11.39
7.77
3.70
-0.44
-4.68
-9.36
-14.90
-21.33
-28.20
-34.61
-39.51
-42.10
-42.12
-39.86
-36.06
-31.55
-27.01
-22.82
-19.05
-15.66
-12.60
-9.92
-7.73
-6.06
-4.79
-3.57
-1.97
0.33
3.43
7.08
10.84
14.27
17.12
19.42
21.41
23.31
25.18
26.84
27.95
28.22
27.52
25.90
23.53
20.51
16.88
12.52
7.35
1.43
-4.90
-11.02
-16.19
-19.78
-21.47
-21.35
-19.90
-17.83
-15.79
-14.26
-13.35
-12.88
-12.54
-12.02
-11.19
-10.07
-8.79
-7.47
-6.16
-4.83
-3.47
-2.08
-0.82
0.14
0.62
0.57
0.10
-0.57
-1.21
-1.63
-1.76
-1.61
-1.27
-0.81
-0.33
0.10
0.41
0.50
0.29
-0.21
-0.82
-1.18
-0.86
0.53
3.13
6.70
10.72
14.58
17.76
20.04
21.50
22.45
23.22
23.98
24.75
25.31
25.44
25.02
24.10
22.99
22.19
22.28
23.69
26.60
30.85
35.95
41.24
46.07
49.94
52.64
54.33
55.48
56.73
58.73
61.96
66.57
72.35
78.71
84.90
90.10
93.69
95.40
95.29
93.70
90.97
87.24
82.27
75.59
66.68
55.34
41.92
27.28
12.59
-1.00
-12.60
-21.64
-27.84
-31.14
-31.72
-30.02
-26.85
-23.33
-20.64
-19.67
-20.71
-23.37
-26.73
-29.76
-31.73
-32.40
-32.06
-31.23
-30.41
-29.82
-29.45
-29.14
-28.80
-28.53
-28.56
-29.13
-30.28
-31.71
-32.87
-33.05
-31.71
-28.69
-24.25
-18.88
-13.12
-7.22
-1.18
5.20
11.99
18.98
25.75
31.81
36.94
41.28
45.31
49.50
54.20
59.40
64.89
70.46
76.10
82.05
88.74
96.57
105.79
116.44
128.32
141.11
154.37
167.63
180.36
191.99
202.04
210.07
215.83
219.28
220.46
219.51
216.48
211.26
203.56
193.02
179.33
162.48
142.80
120.95
97.74
73.89
49.87
25.96
2.37
-20.53
-42.13
-61.83
-79.26
-94.56
-108.35
-121.47
-134.58
-147.87
-161.01
-173.41
-184.52
-194.04
-201.92
-208.16
-212.63
-215.08
-215.28
-213.29
-209.55
-204.82
-200.02
-195.95
-193.10
-191.53
-190.90
-190.50
-189.48
-187.05
-182.71
-176.47
-168.83
-160.57
-152.44
-144.95
-138.26
-132.35
-127.24
-123.11
-120.29
-119.06
-119.47
-121.18
-123.51
-125.55
-126.34
-125.02
-121.00
-114.01
-104.18
-92.11
-78.81
-65.64
-54.19
-46.03
-42.44
-44.05
-50.57
-60.66
-72.20
-82.88
-90.91
-95.57
-97.37
-97.63
-97.74
-98.36
-99.12
-98.74
-95.64
-88.73
-77.82
-63.69
-47.75
-31.49
-16.13
-2.39
9.36
18.92
26.12
30.88
33.23
33.55
32.52
31.03
29.92
29.71
30.51
32.05
33.87
35.53
36.77
37.57
38.02
38.27
38.44
38.48
38.23
37.52
36.18
34.19
31.65
28.66
25.29
21.47
17.11
12.28
7.35
3.01
0.06
-0.91
0.22
3.06
6.80
10.58
13.74
16.03
17.51
18.44
19.05
19.42
19.49
19.17
18.52
17.82
17.52
18.05
19.59
21.88
24.33
26.21
26.97
26.45
24.87
22.64
20.15
17.66
15.27
13.08
11.19
9.70
8.61
7.77
6.85
5.53
3.66
1.35
-0.94
-2.51
-2.65
-0.80
3.27
9.47
17.39
26.49
36.18
45.96
55.48
64.56
73.14
81.23
88.83
95.89
102.28
107.88
112.61
116.52
119.84
122.90
126.01
129.38
132.99
136.64
140.06
143.04
145.50
147.50
149.11
150.26
150.57
149.37
145.76
138.86
128.08
113.28
94.92
73.98
51.79
29.77
9.15
-9.28
-25.23
-38.71
-49.84
-58.58
-64.65
-67.74
-67.77
-65.21
-61.10
-56.74
-53.31
-51.48
-51.22
-52.03
-53.23
-54.28
-54.92
-55.14
-55.04
-54.71
-54.19
-53.55
-52.92
-52.47
-52.38
-52.67
-53.22
-53.77
-54.04
-53.97
-53.69
-53.55
-53.92
-54.94
-56.41
-57.67
-57.75
-55.67
-50.78
-43.02
-32.94
-21.50
-9.76
1.45
11.65
20.68
28.49
35.01
40.08
43.51
45.20
45.22
43.78
41.17
37.64
33.35
28.33
22.51
15.79
8.12
-0.37
-9.34
-18.23
-26.41
-33.36
-38.81
-42.82
-45.84
-48.46
-51.35
-55.01
-59.64
-64.95
-70.18
-74.18
-75.69
-73.76
-68.10
-59.20
-48.20
-36.47
-25.20
-15.09
-6.30
1.32
8.04
13.94
18.96
22.92
25.72
27.41
28.22
28.45
28.36
28.05
27.48
26.54
25.14
23.28
21.06
18.67
16.20
13.69
11.08
8.31
5.32
2.15
-1.22
-4.83
-8.81
-13.33
-18.47
-23.99
-29.28
-33.32
-35.03
-33.55
-28.63
-20.75
-11.00
-0.74
8.81
16.90
23.31
28.23
31.99
34.87
37.04
38.52
39.35
39.63
39.57
39.33
39.03
38.59
37.82
36.48
34.37
31.34
27.26
21.99
15.38
7.34
-2.08
-12.65
-23.99
-35.66
-47.24
-58.49
-69.26
-79.50
-89.05
-97.50
-104.09
-107.80
-107.58
-102.78
-93.47
-80.59
-65.69
-50.46
-36.18
-23.40
-12.03
-1.65
8.07
17.18
25.40
32.43
38.13
42.63
46.26
49.36
52.10
54.47
56.32
57.54
58.12
58.20
57.92
57.37
56.50
55.16
53.21
50.63
47.60
44.41
41.37
38.64
36.17
33.68
30.86
27.58
24.02
20.85
19.05
19.60
23.13
29.61
38.35
48.19
57.92
66.60
73.77
79.39
83.61
86.59
88.38
88.97
88.33
86.50
83.59
79.73
75.02
69.58
63.49
56.84
49.75
42.34
34.71
26.97
19.23
11.53
3.90
-3.63
-11.08
-18.38
-25.48
-32.33
-38.96
-45.55
-52.40
-59.86
-68.06
-76.85
-85.62
-93.50
-99.55
-103.12
-104.02
-102.61
-99.64
-96.01
-92.52
-89.72
-87.80
-86.68
-86.02
-85.44
-84.58
-83.29
-81.59
-79.63
-77.57
-75.44
-73.08
-70.29
-66.95
-63.10
-58.96
-54.85
-50.95
-47.33
-43.85
-40.37
-36.79
-33.11
-29.44
-25.94
-22.76
-20.03
-17.86
-16.37
-15.60
-15.45
-15.61
-15.47
-14.23
-11.10
-5.59
2.26
11.85
22.19
32.23
41.17
48.62
54.62
59.46
63.46
66.81
69.61
71.83
73.44
74.43
74.83
74.74
74.29
73.57
72.65
71.47
69.94
67.89
65.19
61.83
57.86
53.47
48.85
44.16
39.47
34.75
29.88
24.77
19.33
13.54
7.46
1.30
-4.59
-9.63
-13.06
-14.14
-12.36
-7.71
-0.76
7.43
15.71
23.14
29.33
34.39
38.71
42.70
46.53
50.15
53.38
56.03
58.00
59.26
59.83
59.72
59.02
57.91
56.62
55.32
54.05
52.67
50.92
48.57
45.52
41.82
37.62
33.09
28.33
23.44
18.56
13.78
9.13
4.48
-0.52
-6.20
-12.66
-19.56
-26.09
-31.24
-34.22
-34.79
-33.37
-30.83
-28.13
-25.95
-24.60
-24.07
-24.25
-25.14
-26.86
-29.59
-33.40
-38.19
-43.66
-49.47
-55.25
-60.81
-66.10
-71.18
-76.15
-80.97
-85.43
-89.13
-91.63
-92.63
-92.13
-90.43
-87.97
-85.17
-82.27
-79.36
-76.48
-73.74
-71.37
-69.66
-68.88
-69.10
-70.15
-71.60
-72.73
-72.68
-70.59
-65.86
-58.37
-48.60
-37.49
-26.23
-15.78
-6.68
1.02
7.61
13.46
18.78
23.62
27.86
31.39
34.16
36.23
37.70
38.66
39.19
39.33
39.17
38.82
38.36
37.82
37.11
36.04
34.40
32.09
29.18
25.87
22.46
19.14
15.97
12.89
9.74
6.37
2.64
-1.55
-6.24
-11.27
-16.24
-20.41
-22.90
-22.98
-20.35
-15.34
-8.80
-1.82
4.65
10.04
14.32
17.77
20.76
23.55
26.17
28.47
30.23
31.35
31.86
31.94
31.76
31.47
31.06
30.47
29.64
28.60
27.41
26.13
24.72
22.98
20.72
17.84
14.43
10.71
6.93
3.28
-0.19
-3.55
-6.90
-10.37
-14.11
-18.21
-22.65
-27.18
-31.25
-34.09
-34.99
-33.57
-30.02
-24.97
-19.32
-13.78
-8.73
-4.16
0.07
4.07
7.75
10.92
13.38
15.09
16.17
16.79
17.09
17.09
16.80
16.22
15.46
14.65
13.89
13.19
12.40
11.33
9.74
7.52
4.68
1.37
-2.13
-5.52
-8.55
-11.14
-13.36
-15.45
-17.77
-20.60
-24.11
-28.18
-32.35
-35.88
-37.90
-37.65
-34.81
-29.59
-22.74
-15.31
-8.26
-2.19
2.82
7.07
10.93
14.60
17.97
20.74
22.60
23.47
23.49
22.98
22.22
21.36
20.40
19.33
18.18
17.09
16.23
15.68
15.34
14.95
14.30
13.29
11.99
10.65
9.47
8.52
7.70
6.68
5.10
2.60
-1.05
-5.88
-11.58
-17.54
-22.89
-26.69
-28.28
-27.52
-25.01
-21.86
-19.38
-18.53
-19.51
-21.73
-24.04
-25.25
-24.60
-22.08
-18.29
-14.11
-10.26
-7.05
-4.38
-1.93
0.54
3.07
5.55
7.86
9.98
12.03
14.05
15.94
17.38
17.96
17.45
15.86
13.59
11.13
8.94
7.17
5.64
3.97
1.71
-1.40
-5.37
-9.89
-14.34
-17.90
-19.69
-18.95
-15.33
-9.05
-0.85
8.17
16.94
24.73
31.33
36.94
41.98
46.78
51.42
55.84
59.85
63.35
66.31
68.76
70.67
72.00
72.68
72.68
72.11
71.11
69.87
68.48
66.89
64.96
62.45
59.24
55.31
50.85
46.14
41.49
37.08
32.92
28.87
24.70
20.12
14.90
8.91
2.26
-4.62
-10.93
-15.66
-17.94
-17.34
-14.07
-8.98
-3.18
2.38
7.16
11.13
14.53
17.59
20.31
22.52
24.02
24.76
24.95
24.93
25.03
25.36
25.76
25.90
25.44
24.18
22.14
19.51
16.51
13.20
9.45
4.99
-0.44
-6.90
-14.24
-22.09
-30.08
-38.01
-45.99
-54.42
-63.71
-74.17
-85.75
-97.99
-110.16
-121.39
-130.94
-138.32
-143.35
-146.17
-147.18
-146.86
-145.72
-144.13
-142.24
-140.02
-137.22
-133.54
-128.71
-122.57
-115.16
-106.67
-97.43
-87.75
-77.95
-68.27
-58.90
-50.00
-41.66
-33.95
-26.87
-20.41
-14.56
-9.34
-4.81
-1.08
1.80
3.87
5.23
6.05
6.45
6.49
6.07
5.03
3.15
0.32
-3.37
-7.55
-11.51
-14.35
-15.17
-13.35
-8.77
-1.89
6.37
14.92
22.79
29.45
34.80
39.14
42.88
46.32
49.54
52.41
54.74
56.43
57.57
58.36
59.01
59.63
60.17
60.53
60.67
60.65
60.58
60.51
60.34
59.80
58.52
56.24
52.89
48.64
43.77
38.55
33.09
27.36
21.17
14.39
7.09
-0.38
-7.30
-12.69
-15.61
-15.39
-11.97
-5.95
1.57
9.38
16.55
22.71
28.02
32.86
37.51
41.90
45.65
48.24
49.36
48.99
47.41
44.99
42.06
38.85
35.47
32.06
28.78
25.77
23.08
20.61
18.14
15.43
12.37
9.00
5.52
2.15
-0.98
-3.88
-6.69
-9.62
-12.89
-16.69
-21.20
-26.46
-32.32
-38.30
-43.48
-46.73
-46.93
-43.49
-36.50
-26.86
-15.91
-5.02
4.85
13.28
20.41
26.61
32.24
37.51
42.45
47.00
51.08
54.62
57.54
59.64
60.70
60.44
58.73
55.62
51.36
46.38
41.07
35.75
30.53
25.43
20.41
15.49
10.76
6.30
2.15
-1.78
-5.72
-9.96
-14.83
-20.47
-26.74
-33.08
-38.50
-41.70
-41.35
-36.52
-26.99
-13.42
2.73
19.49
34.83
47.05
55.01
58.21
56.70
50.86
41.30
28.73
13.99
-1.96
-18.00
-33.01
-45.97
-56.22
-63.62
-68.54
-71.76
-74.20
-76.68
-79.79
-83.81
-88.76
-94.46
-100.51
-106.20
-110.66
-112.96
-112.46
-109.10
-103.54
-96.97
-90.65
-85.45
-81.36
-77.54
-72.65
-65.50
-55.56
-43.26
-29.77
-16.51
-4.62
5.45
13.91
21.33
28.29
35.04
41.53
47.48
52.69
57.08
60.74
63.73
66.00
67.36
67.58
66.57
64.51
61.87
59.24
57.07
55.44
54.03
52.21
49.42
45.40
40.35
34.80
29.38
24.50
20.20
16.14
11.81
6.81
1.10
-4.91
-10.38
-14.32
-15.91
-14.76
-11.12
-5.73
0.41
6.43
11.80
16.42
20.38
23.81
26.67
28.75
29.84
29.87
29.00
27.53
25.79
24.04
22.40
20.91
19.57
18.36
17.23
16.03
14.57
12.67
10.23
7.34
4.21
1.11
-1.77
-4.40
-6.94
-9.69
-12.92
-16.84
-21.51
-26.83
-32.58
-38.40
-43.83
-48.33
-51.42
-52.73
-52.11
-49.64
-45.57
-40.15
-33.63
-26.20
-18.10
-9.66
-1.29
6.69
14.09
20.93
27.28
33.14
38.21
42.01
44.00
43.85
41.57
37.55
32.33
26.45
20.35
14.36
8.84
4.21
0.85
-1.03
-1.62
-1.49
-1.42
-2.11
-3.92
-6.71
-9.95
-12.92
-14.89
-15.32
-13.94
-10.77
-6.09
-0.44
5.46
10.90
15.30
18.30
19.87
20.21
19.67
18.59
17.20
15.64
13.94
12.09
10.18
8.35
6.78
5.58
4.74
4.07
3.28
2.13
0.52
-1.43
-3.46
-5.26
-6.67
-7.69
-8.51
-9.33
-10.28
-11.41
-12.68
-14.09
-15.68
-17.45
-19.27
-20.73
-21.28
-20.31
-17.52
-13.00
-7.32
-1.26
4.44
9.34
13.38
16.74
19.65
22.21
24.37
25.96
26.78
26.75
25.92
24.49
22.67
20.70
18.71
16.76
14.83
12.82
10.62
8.13
5.29
2.12
-1.33
-4.98
-8.74
-12.51
-16.18
-19.62
-22.66
-25.22
-27.24
-28.69
-29.52
-29.54
-28.50
-26.12
-22.21
-16.84
-10.30
-3.14
4.02
10.65
16.44
21.36
25.60
29.40
32.91
36.05
38.63
40.39
41.23
41.32
41.02
40.72
40.64
40.75
40.79
40.41
39.38
37.68
35.55
33.38
31.55
30.34
29.78
29.68
29.73
29.58
28.99
27.82
25.99
23.51
20.44
17.01
13.64
10.90
9.35
9.30
10.70
13.15
16.19
19.42
22.71
26.00
29.09
31.49
32.40
31.02
26.83
19.97
11.27
2.09
-6.15
-12.35
-16.11
-17.80
-18.35
-18.79
-19.87
-21.78
-24.17
-26.47
-28.18
-29.10
-29.31
-28.90
-27.87
-26.00
-23.04
-18.98
-14.20
-9.42
-5.43
-2.77
-1.39
-0.65
0.49
2.99
7.30
12.98
18.78
22.98
24.02
20.99
13.94
3.78
-8.11
-20.31
-31.78
-41.95
-50.76
-58.51
-65.66
-72.72
-79.96
-87.31
-94.35
-100.45
-105.11
-108.14
-109.80
-110.58
-110.92
-110.90
-110.20
-108.23
-104.42
-98.53
-90.77
-81.83
-72.62
-64.03
-56.71
-50.94
-46.66
-43.60
-41.37
-39.48
-37.43
-34.67
-30.77
-25.48
-18.90
-11.40
-3.52
4.20
11.41
17.94
23.73
28.81
33.16
36.82
39.88
42.47
44.71
46.67
48.33
49.69
50.82
51.87
53.01
54.39
56.01
57.78
59.58
61.31
62.86
63.93
63.88
61.69
56.23
46.59
32.56
14.81
-5.14
-25.33
-43.77
-58.85
-69.54
-75.33
-76.25
-72.72
-65.58
-55.99
-45.26
-34.66
-25.11
-17.12
-10.71
-5.59
-1.33
2.45
5.91
9.04
11.65
13.54
14.62
15.01
15.04
15.14
15.65
16.64
17.92
19.12
19.89
20.07
19.76
19.25
18.83
18.64
18.57
18.42
17.98
17.22
16.26
15.32
14.54
13.87
13.13
12.17
11.09
10.29
10.50
12.45
16.55
22.68
30.18
38.06
45.43
51.77
57.13
62.03
67.22
73.36
80.79
89.33
98.22
106.16
111.52
112.61
108.23
97.94
82.30
62.69
40.96
18.91
-2.07
-21.15
-37.98
-52.50
-64.81
-75.00
-83.14
-89.28
-93.44
-95.63
-95.87
-94.27
-91.08
-86.70
-81.64
-76.34
-71.04
-65.71
-60.14
-54.03
-47.20
-39.69
-31.77
-23.84
-16.29
-9.40
-3.28
2.09
6.77
10.83
14.29
17.20
19.56
21.46
22.99
24.23
25.19
25.77
25.83
25.23
23.99
22.22
20.19
18.12
16.11
14.17
12.24
10.31
8.47
6.85
5.50
4.24
2.71
0.51
-2.59
-6.39
-10.24
-13.25
-14.54
-13.57
-10.26
-4.92
1.98
10.03
18.96
28.63
38.89
49.52
60.20
70.45
79.54
86.46
89.93
88.71
82.04
70.00
53.70
35.04
16.17
-1.15
-15.89
-27.80
-37.17
-44.46
-50.10
-54.40
-57.66
-60.17
-62.19
-63.89
-65.21
-65.99
-65.99
-65.17
-63.74
-62.20
-61.14
-60.96
-61.67
-62.76
-63.39
-62.66
-60.01
-55.48
-49.64
-43.38
-37.43
-32.09
-27.13
-22.05
-16.40
-10.05
-3.27
3.44
9.60
14.92
19.32
22.80
25.42
27.20
28.23
28.74
29.10
29.70
30.79
32.40
34.32
36.25
38.02
39.60
41.14
42.79
44.62
46.49
48.06
48.87
48.47
46.47
42.70
37.22
30.36
22.67
14.77
7.24
0.50
-5.27
-10.05
-13.96
-17.11
-19.62
-21.58
-23.01
-23.86
-24.05
-23.49
-22.12
-20.05
-17.47
-14.69
-11.95
-9.39
-7.06
-4.94
-3.08
-1.59
-0.65
-0.47
-1.15
-2.70
-4.99
-7.77
-10.72
-13.53
-15.97
-17.92
-19.39
-20.50
-21.36
-22.08
-22.68
-23.18
-23.56
-23.76
-23.62
-22.84
-21.01
-17.74
-12.76
-6.07
1.98
10.83
19.88
28.60
36.64
43.80
49.94
54.90
58.49
60.49
60.81
59.53
57.02
53.90
51.01
49.29
49.59
52.56
58.50
67.36
78.72
91.89
106.05
120.32
133.77
145.45
154.41
159.82
161.22
158.75
153.20
145.90
138.29
131.53
126.27
122.68
120.83
120.97
123.71
129.78
139.55
152.55
167.31
181.61
193.05
199.71
200.53
195.43
185.06
170.34
152.20
131.45
108.75
84.69
59.81
34.34
8.00
-20.01
-50.63
-84.14
-119.52
-154.15
-184.40
-206.66
-218.53
-219.46
-210.63
-194.22
-172.57
-147.61
-120.92
-93.97
-68.33
-45.48
-26.38
-11.07
1.49
12.98
25.01
38.37
52.61
66.00
76.10
80.60
78.20
69.04
54.60
37.01
18.28
-0.38
-18.59
-36.56
-54.46
-72.08
-88.78
-103.78
-116.52
-126.85
-134.99
-141.33
-146.28
-150.20
-153.54
-156.88
-160.80
-165.64
-171.00
-175.62
-177.66
-175.26
-167.48
-154.78
-139.05
-122.94
-108.97
-98.68
-92.36
-89.25
-88.04
-87.43
-86.31
-83.93
-79.81
-73.83
-66.27
-57.81
-49.43
-42.07
-36.37
-32.44
-29.95
-28.32
-27.00
-25.63
-24.10
-22.51
-21.01
-19.79
-18.95
-18.50
-18.34
-18.27
-18.06
-17.58
-16.79
-15.90
-15.20
-14.97
-15.36
-16.30
-17.56
-18.86
-20.05
-21.08
-22.10
-23.30
-24.94
-27.15
-29.90
-32.90
-35.64
-37.43
-37.65
-35.99
-32.56
-27.91
-22.89
-18.27
-14.59
-11.89
-9.83
-7.91
-5.69
-3.03
-0.20
2.28
3.78
3.87
2.50
-0.02
-3.16
-6.40
-9.45
-12.32
-15.20
-18.30
-21.58
-24.62
-26.71
-27.07
-25.11
-20.64
-14.05
-6.14
2.04
9.34
14.77
17.62
17.60
14.97
10.57
5.68
1.85
0.40
2.04
6.65
13.35
20.87
28.03
34.13
39.00
42.91
46.20
49.11
51.64
53.67
55.11
56.00
56.49
56.77
57.02
57.30
57.62
57.95
58.18
58.20
57.82
56.92
55.45
53.40
50.85
47.84
44.38
40.41
35.86
30.73
25.02
18.77
12.03
4.97
-2.10
-8.61
-13.80
-16.89
-17.43
-15.51
-11.84
-7.55
-3.88
-1.73
-1.44
-2.70
-4.77
-6.72
-7.69
-7.09
-4.61
-0.12
6.40
14.97
25.53
37.82
51.29
65.05
77.95
88.84
96.78
101.34
102.61
101.10
97.52
92.52
86.54
79.76
72.19
63.73
54.21
43.36
30.85
16.41
0.09
-17.44
-34.71
-49.67
-60.15
-64.60
-62.67
-55.41
-44.94
-33.71
-23.64
-15.56
-9.25
-3.97
0.68
4.26
5.47
2.80
-4.58
-16.21
-30.37
-44.79
-57.63
-68.27
-77.25
-85.73
-94.49
-103.41
-111.41
-117.13
-119.71
-119.31
-117.08
-114.59
-113.16
-113.35
-114.89
-117.03
-119.07
-120.75
-122.28
-124.06
-126.21
-128.22
-128.98
-127.16
-121.88
-113.18
-102.13
-90.41
-79.68
-70.93
-64.30
-59.29
-55.21
-51.65
-48.67
-46.66
-45.99
-46.82
-48.93
-51.86
-55.10
-58.32
-61.43
-64.52
-67.76
-71.25
-74.93
-78.52
-81.67
-84.03
-85.43
-85.87
-85.45
-84.21
-82.03
-78.62
-73.70
-67.22
-59.50
-51.17
-43.01
-35.64
-29.23
-23.44
-17.55
-10.72
-2.38
7.54
18.52
29.75
40.41
50.11
58.94
67.27
75.33
82.98
89.72
95.02
98.72
101.21
103.33
105.90
109.33
113.46
117.74
121.60
124.72
127.14
129.09
130.78
132.26
133.48
134.48
135.42
136.59
138.28
140.60
143.34
146.03
148.09
149.00
148.46
146.44
143.34
139.93
137.36
136.89
139.65
146.26
156.63
169.96
184.94
200.00
213.61
224.52
231.91
235.49
235.48
232.53
227.51
221.15
213.84
205.45
195.50
183.33
168.42
150.50
129.63
106.06
80.29
53.02
25.16
-2.22
-28.09
-51.73
-72.99
-92.21
-110.08
-127.24
-143.99
-160.18
-175.39
-189.29
-201.79
-213.12
-223.46
-232.62
-239.89
-244.17
-244.47
-240.52
-233.02
-223.53
-213.97
-206.03
-200.70
-198.29
-198.53
-200.87
-204.48
-208.13
-210.07
-208.26
-201.02
-187.72
-169.33
-148.19
-127.36
-109.42
-95.74
-86.27
-80.01
-75.78
-72.83
-71.04
-70.53
-71.34
-73.14
-75.30
-77.19
-78.51
-79.31
-79.93
-80.90
-82.66
-85.46
-89.26
-93.56
-97.46
-99.67
-98.89
-94.19
-85.35
-72.97
-58.23
-42.49
-26.93
-12.32
0.98
12.84
23.23
32.23
40.13
47.42
54.71
62.51
70.91
79.52
87.56
94.16
98.66
100.86
100.90
99.21
96.26
92.48
88.29
84.02
79.97
76.26
72.82
69.36
65.48
60.80
55.06
48.27
40.67
32.86
25.71
20.34
17.80
18.82
23.52
31.30
41.07
51.50
61.49
70.37
77.94
84.33
89.69
94.04
97.22
98.99
99.21
98.00
95.74
92.92
89.96
87.03
84.11
81.01
77.67
74.18
70.77
67.66
64.93
62.40
59.73
56.52
52.53
47.72
42.17
35.99
29.15
21.49
12.84
3.31
-6.52
-15.58
-22.52
-26.17
-25.94
-22.12
-15.70
-8.04
-0.32
6.78
13.10
18.83
24.20
29.24
33.75
37.43
40.13
41.92
43.13
44.22
45.59
47.48
49.90
52.72
55.74
58.76
61.59
63.98
65.61
66.05
64.87
61.80
56.81
50.22
42.50
34.20
25.71
17.19
8.64
0.11
-8.10
-15.34
-20.72
-23.37
-22.80
-19.18
-13.27
-6.20
0.92
7.40
13.01
17.83
22.04
25.61
28.27
29.67
29.66
28.43
26.50
24.56
23.09
22.22
21.70
21.07
19.92
18.07
15.63
12.88
10.08
7.36
4.68
1.90
-1.13
-4.49
-8.20
-12.31
-16.86
-21.88
-27.29
-32.75
-37.63
-41.09
-42.33
-40.82
-36.59
-30.20
-22.61
-14.82
-7.61
-1.37
3.91
8.38
12.20
15.36
17.72
19.14
19.64
19.49
19.10
18.87
19.03
19.54
20.15
20.54
20.47
19.84
18.69
17.11
15.15
12.78
9.96
6.66
2.97
-0.91
-4.81
-8.64
-12.51
-16.64
-21.16
-25.95
-30.42
-33.62
-34.57
-32.63
-27.85
-20.94
-13.05
-5.30
1.58
7.40
12.34
16.69
20.59
23.94
26.50
28.06
28.62
28.40
27.74
27.00
26.37
25.85
25.24
24.31
22.86
20.82
18.34
15.67
13.06
10.64
8.31
5.83
2.94
-0.49
-4.40
-8.60
-12.90
-17.25
-21.62
-25.93
-29.79
-32.51
-33.32
-31.68
-27.62
-21.74
-15.06
-8.59
-2.96
1.66
5.46
8.77
11.73
14.30
16.33
17.64
18.29
18.47
18.46
18.50
18.65
18.81
18.81
18.48
17.80
16.88
15.87
14.92
14.03
13.05
11.81
10.20
8.24
6.07
3.93
1.97
0.24
-1.43
-3.35
-5.81
-8.88
-12.30
-15.46
-17.62
-18.19
-17.01
-14.36
-10.89
-7.31
-4.17
-1.74
-0.05
0.95
1.26
0.82
-0.39
-2.30
-4.66
-7.20
-9.67
-12.00
-14.26
-16.59
-19.16
-22.09
-25.45
-29.26
-33.51
-38.11
-42.89
-47.64
-52.00
-55.61
-58.17
-59.53
-59.77
-59.23
-58.39
-57.72
-57.56
-57.94
-58.54
-58.80
-58.06
-55.79
-51.76
-46.08
-39.14
-31.52
-23.75
-16.26
-9.31
-3.03
2.45
6.99
10.48
12.87
14.28
14.93
15.04
14.74
14.07
12.99
11.52
9.75
7.81
5.80
3.69
1.40
-1.11
-3.76
-6.33
-8.53
-10.17
-11.22
-11.90
-12.55
-13.58
-15.38
-18.14
-21.87
-26.30
-30.94
-35.15
-38.31
-39.96
-39.96
-38.49
-35.97
-32.98
-30.03
-27.51
-25.55
-24.11
-23.00
-21.98
-20.82
-19.41
-17.75
-15.96
-14.28
-12.99
-12.27
-12.18
-12.56
-13.15
-13.64
-13.83
-13.71
-13.41
-13.14
-13.09
-13.36
-14.03
-15.18
-16.96
-19.51
-22.91
-26.98
-31.23
-34.99
-37.58
-38.60
-38.08
-36.44
-34.20
-31.67
-28.81
-25.22
-20.48
-14.45
-7.42
-0.06
6.86
12.84
17.80
22.03
25.91
29.65
33.13
35.98
37.84
38.64
38.67
38.49
38.61
39.25
40.29
41.33
41.97
42.02
41.56
40.79
39.86
38.76
37.35
35.43
32.97
30.08
27.07
24.29
22.00
20.27
18.92
17.63
15.99
13.72
10.88
7.88
5.43
4.31
5.11
8.05
12.93
19.27
26.42
33.75
40.76
47.12
52.73
57.72
62.41
67.27
72.66
78.73
85.31
91.99
98.24
103.67
108.18
111.87
115.02
117.82
120.29
122.20
123.12
122.52
119.95
115.14
108.13
99.23
88.97
78.02
66.96
56.21
45.93
36.04
26.33
16.53
6.44
-3.97
-14.48
-24.57
-33.51
-40.51
-44.97
-46.71
-46.09
-43.94
-41.35
-39.36
-38.68
-39.59
-41.90
-45.13
-48.70
-52.10
-55.06
-57.55
-59.75
-61.88
-64.09
-66.39
-68.70
-70.96
-73.22
-75.73
-78.83
-82.80
-87.58
-92.77
-97.62
-101.35
-103.41
-103.67
-102.36
-99.86
-96.48
-92.29
-87.19
-81.15
-74.37
-67.25
-60.18
-53.30
-46.37
-39.01
-30.96
-22.43
-14.08
-6.74
-0.96
3.24
6.43
9.38
12.66
16.35
20.01
23.03
24.92
25.53
25.04
23.70
21.69
19.00
15.51
11.18
6.09
0.50
-5.29
-10.99
-16.40
-21.31
-25.47
-28.58
-30.34
-30.60
-29.43
-27.20
-24.49
-21.97
-20.20
-19.51
-19.94
-21.20
-22.80
-24.15
-24.63
-23.77
-21.25
-17.05
-11.49
-5.19
1.03
6.40
10.45
13.08
14.58
15.40
16.02
16.78
17.88
19.41
21.37
23.70
26.30
29.02
31.73
34.39
37.02
39.66
42.28
44.70
46.65
47.90
48.35
48.12
47.50
46.80
46.19
45.61
44.80
43.39
41.09
37.80
33.68
29.20
25.05
21.99
20.60
21.14
23.40
26.81
30.57
33.98
36.55
38.15
38.91
38.99
38.52
37.50
35.82
33.41
30.27
26.54
22.43
18.13
13.82
9.58
5.45
1.45
-2.39
-6.03
-9.45
-12.66
-15.75
-18.75
-21.66
-24.34
-26.60
-28.28
-29.35
-29.97
-30.54
-31.55
-33.40
-36.25
-39.82
-43.47
-46.31
-47.56
-46.81
-44.19
-40.33
-36.16
-32.50
-29.86
-28.28
-27.47
-26.99
-26.49
-25.82
-24.94
-23.93
-22.83
-21.66
-20.42
-19.23
-18.28
-17.77
-17.84
-18.41
-19.25
-20.07
-20.62
-20.84
-20.83
-20.69
-20.51
-20.24
-19.78
-19.13
-18.45
-18.06
-18.37
-19.62
-21.76
-24.43
-26.95
-28.56
-28.57
-26.65
-22.91
-17.87
-12.31
-7.01
-2.56
0.75
2.92
4.09
4.45
4.21
3.61
2.97
2.63
2.78
3.37
4.04
4.25
3.56
1.82
-0.74
-3.68
-6.52
-8.95
-10.80
-12.02
-12.55
-12.32
-11.38
-9.96
-8.54
-7.71
-7.98
-9.59
-12.38
-15.81
-19.10
-21.47
-22.27
-21.26
-18.57
-14.72
-10.37
-6.12
-2.34
0.90
3.65
6.03
8.05
9.60
10.59
11.02
11.01
10.79
10.60
10.60
10.84
11.29
11.81
12.25
12.41
12.13
11.32
10.03
8.46
6.85
5.44
4.31
3.39
2.42
1.13
-0.65
-2.94
-5.48
-7.83
-9.41
-9.64
-8.09
-4.66
0.45
6.66
13.26
19.57
25.13
29.76
33.50
36.48
38.79
40.43
41.38
41.66
41.37
40.67
39.72
38.57
37.22
35.62
33.80
31.85
29.91
28.10
26.44
24.82
23.11
21.18
18.97
16.51
13.81
10.85
7.54
3.79
-0.37
-4.69
-8.71
-11.84
-13.48
-13.31
-11.31
-7.86
-3.58
0.85
4.91
8.32
11.08
13.28
14.97
16.09
16.50
16.17
15.27
14.19
13.45
13.44
14.31
15.91
17.86
19.71
21.12
21.94
22.20
22.04
21.63
21.07
20.42
19.62
18.60
17.26
15.51
13.35
10.81
8.15
5.78
4.35
4.59
7.05
11.94
18.93
27.25
36.00
44.44
52.21
59.33
66.01
72.45
78.65
84.43
89.51
93.67
96.75
98.69
99.47
99.18
98.04
96.33
94.36
92.20
89.64
86.08
80.72
72.80
61.81
47.63
30.55
11.12
-9.85
-31.43
-52.52
-71.88
-88.22
-100.39
-107.65
-109.83
-107.48
-101.70
-93.86
-85.28
-76.90
-69.19
-62.23
-55.93
-50.20
-45.09
-40.69
-37.00
-33.79
-30.67
-27.17
-22.99
-18.07
-12.58
-6.80
-0.95
4.81
10.37
15.61
20.38
24.47
27.74
30.13
31.73
32.66
33.08
33.11
32.86
32.41
31.85
31.35
31.08
31.16
31.60
32.20
32.60
32.43
31.41
29.45
26.69
23.30
19.44
15.16
10.48
5.49
0.40
-4.53
-9.09
-13.19
-16.86
-20.19
-23.23
-25.99
-28.41
-30.49
-32.27
-33.86
-35.37
-36.86
-38.37
-39.94
-41.65
-43.63
-46.01
-48.81
-51.84
-54.74
-56.95
-57.96
-57.41
-55.25
-51.81
-47.59
-43.18
-39.01
-35.33
-32.27
-29.91
-28.32
-27.54
-27.50
-27.95
-28.57
-29.05
-29.21
-29.07
-28.83
-28.67
-28.75
-29.06
-29.54
-30.10
-30.69
-31.26
-31.83
-32.42
-33.04
-33.75
-34.58
-35.54
-36.54
-37.44
-37.95
-37.74
-36.51
-34.13
-30.69
-26.55
-22.22
-18.19
-14.76
-11.92
-9.45
-7.03
-4.44
-1.71
0.92
3.18
4.84
5.96
6.76
7.51
8.38
9.37
10.24
10.77
10.83
10.48
9.93
9.37
8.84
8.20
7.21
5.65
3.44
0.67
-2.47
-5.78
-9.04
-12.00
-14.27
-15.41
-15.00
-12.90
-9.34
-4.86
-0.14
4.27
8.18
11.70
15.06
18.39
21.60
24.42
26.60
28.06
28.96
29.61
30.23
30.88
31.36
31.37
30.65
29.07
26.72
23.87
20.79
17.74
14.83
12.03
9.18
6.04
2.38
-1.98
-7.08
-12.76
-18.66
-24.18
-28.63
-31.32
-31.78
-29.87
-25.88
-20.42
-14.26
-8.15
-2.61
2.09
5.87
8.77
10.87
12.24
13.00
13.31
13.35
13.31
13.27
13.23
13.11
12.76
12.09
11.07
9.78
8.33
6.92
5.68
4.69
3.89
3.09
2.04
0.48
-1.73
-4.58
-7.86
-11.27
-14.43
-16.94
-18.48
-18.88
-18.14
-16.47
-14.24
-11.81
-9.42
-7.14
-4.88
-2.55
-0.14
2.20
4.27
5.94
7.22
8.27
9.27
10.31
11.34
12.24
12.81
12.95
12.60
11.78
10.51
8.84
6.80
4.47
1.96
-0.60
-3.08
-5.46
-7.81
-10.23
-12.84
-15.62
-18.43
-20.97
-22.86
-23.75
-23.43
-21.88
-19.26
-15.86
-12.04
-8.12
-4.37
-1.00
1.84
4.05
5.62
6.66
7.37
8.05
8.95
10.18
11.60
12.88
13.62
13.56
12.67
11.17
9.42
7.75
6.36
5.24
4.22
3.05
1.50
-0.60
-3.26
-6.34
-9.55
-12.50
-14.81
-16.20
-16.60
-16.08
-14.82
-13.05
-10.94
-8.68
-6.43
-4.36
-2.60
-1.23
-0.25
0.35
0.66
0.76
0.73
0.69
0.70
0.75
0.75
0.56
0.01
-0.99
-2.39
-4.11
-5.98
-7.85
-9.63
-11.28
-12.83
-14.38
-16.09
-18.11
-20.58
-23.46
-26.51
-29.33
-31.40
-32.26
-31.63
-29.50
-26.09
-21.78
-16.96
-12.00
-7.15
-2.63
1.44
4.96
7.90
10.28
12.15
13.52
14.36
14.66
14.47
13.95
13.38
12.98
12.84
12.84
12.69
12.07
10.82
8.95
6.61
4.04
1.40
-1.23
-3.86
-6.50
-9.17
-11.91
-14.78
-17.87
-21.17
-24.46
-27.29
-29.05
-29.18
-27.36
-23.66
-18.52
-12.55
-6.36
-0.38
5.12
10.04
14.39
18.18
21.51
24.44
27.03
29.29
31.17
32.60
33.61
34.32
34.90
35.50
36.09
36.47
36.32
35.33
33.32
30.34
26.56
22.28
17.71
13.02
8.25
3.42
-1.47
-6.39
-11.35
-16.35
-21.38
-26.31
-30.78
-34.25
-36.04
-35.63
-32.85
-28.05
-21.99
-15.56
-9.51
-4.25
0.20
4.00
7.31
10.11
12.30
13.74
14.48
14.76
14.93
15.28
15.91
16.64
17.14
17.10
16.38
15.07
13.43
11.74
10.14
8.61
7.00
5.19
3.21
1.22
-0.48
-1.67
-2.31
-2.63
-3.07
-4.08
-5.86
-8.24
-10.62
-12.21
-12.22
-10.19
-6.07
-0.18
6.94
14.79
23.00
31.32
39.63
47.77
55.51
62.64
68.99
74.57
79.51
84.04
88.35
92.53
96.56
100.36
103.81
106.82
109.23
110.83
111.26
110.08
106.95
101.66
94.32
85.33
75.32
65.04
55.12
45.98
37.68
29.90
22.11
13.74
4.42
-5.74
-16.15
-25.88
-33.89
-39.42
-42.17
-42.36
-40.63
-37.75
-34.42
-31.15
-28.20
-25.64
-23.47
-21.74
-20.56
-20.09
-20.42
-21.47
-22.99
-24.63
-26.03
-27.01
-27.62
-28.05
-28.54
-29.21
-30.02
-30.87
-31.66
-32.41
-33.19
-34.12
-35.18
-36.22
-37.02
-37.41
-37.37
-37.10
-36.98
-37.41
-38.71
-41.01
-44.21
-47.98
-51.78
-54.98
-56.99
-57.38
-56.04
-53.26
-49.60
-45.75
-42.34
-39.77
-38.14
-37.42
-37.48
-38.25
-39.76
-42.09
-45.35
-49.52
-54.47
-59.92
-65.60
-71.35
-77.24
-83.57
-90.81
-99.31
-109.13
-119.81
-130.42
-139.73
-146.52
-149.87
-149.39
-145.27
-138.13
-128.84
-118.27
-107.20
-96.22
-85.81
-76.25
-67.60
-59.58
-51.53
-42.61
-32.10
-19.68
-5.68
9.04
23.44
36.66
48.30
58.47
67.55
75.90
83.67
90.75
96.92
102.09
106.35
110.02
113.43
116.85
120.33
123.76
126.92
129.57
131.47
132.36
131.95
129.90
125.95
120.00
112.21
103.02
93.00
82.75
72.66
62.87
53.27
43.52
33.21
22.03
9.93
-2.73
-15.14
-26.19
-34.73
-39.95
-41.59
-40.07
-36.31
-31.41
-26.32
-21.56
-17.32
-13.51
-9.96
-6.63
-3.52
-0.67
1.90
4.21
6.28
8.06
9.50
10.51
11.07
11.22
11.06
10.71
10.24
9.67
8.97
8.08
6.87
5.20
2.92
-0.00
-3.47
-7.24
-10.99
-14.53
-17.86
-21.19
-24.87
-29.19
-34.16
-39.38
-44.07
-47.23
-47.94
-45.69
-40.54
-33.14
-24.49
-15.62
-7.25
0.30
7.03
13.05
18.34
22.71
25.95
27.99
29.06
29.57
29.95
30.43
30.91
31.08
30.61
29.36
27.49
25.34
23.25
21.39
19.62
17.62
15.02
11.62
7.48
2.90
-1.68
-5.90
-9.57
-12.78
-15.80
-18.99
-22.66
-26.95
-31.79
-36.90
-41.74
-45.64
-47.84
-47.71
-44.93
-39.66
-32.49
-24.31
-16.04
-8.33
-1.51
4.45
9.71
14.36
18.41
21.77
24.44
26.53
28.24
29.74
31.06
32.08
32.61
32.51
31.75
30.43
28.72
26.77
24.66
22.40
19.96
17.29
14.36
11.20
7.89
4.56
1.34
-1.74
-4.70
-7.67
-10.83
-14.33
-18.25
-22.58
-27.07
-31.28
-34.57
-36.21
-35.63
-32.57
-27.21
-20.14
-12.14
-3.98
3.74
10.67
16.64
21.57
25.43
28.27
30.23
31.53
32.52
33.49
34.61
35.84
36.85
37.21
36.55
34.74
32.01
28.80
25.62
22.76
20.20
17.63
14.69
11.15
7.05
2.66
-1.63
-5.55
-9.03
-12.23
-15.45
-19.02
-23.16
-27.90
-33.01
-37.98
-42.14
-44.76
-45.32
-43.61
-39.81
-34.39
-27.98
-21.17
-14.42
-8.05
-2.30
2.64
6.64
9.62
11.64
12.87
13.58
14.02
14.38
14.73
15.05
15.23
15.11
14.56
13.49
11.90
9.89
7.63
5.26
2.88
0.47
-2.03
-4.71
-7.59
-10.65
-13.83
-17.21
-20.94
-25.26
-30.27
-35.73
-41.01
-45.11
-47.05
-46.17
-42.44
-36.48
-29.31
-21.94
-15.03
-8.80
-3.13
2.16
7.05
11.28
14.53
16.64
17.76
18.35
18.87
19.66
20.69
21.63
22.08
21.76
20.66
19.08
17.38
15.81
14.37
12.75
10.61
7.68
4.04
0.00
-3.95
-7.46
-10.44
-13.07
-15.79
-19.04
-23.22
-28.47
-34.59
-40.99
-46.74
-50.72
-51.94
-49.89
-44.71
-37.18
-28.40
-19.45
-11.11
-3.78
2.52
7.93
12.67
16.90
20.74
24.23
27.30
29.79
31.52
32.30
32.13
31.14
29.62
27.91
26.26
24.73
23.23
21.55
19.50
17.05
14.37
11.74
9.49
7.91
7.14
7.15
7.79
8.74
9.52
9.56
8.21
5.08
0.18
-5.91
-12.10
-17.05
-19.60
-19.09
-15.58
-9.67
-2.30
5.63
13.43
20.58
26.61
31.04
33.35
33.28
30.97
27.12
22.79
19.02
16.47
15.14
14.39
13.25
10.85
6.77
1.25
-5.04
-11.23
-16.73
-21.37
-25.42
-29.37
-33.57
-38.00
-42.29
-45.90
-48.41
-49.77
-50.27
-50.40
-50.61
-51.16
-52.08
-53.25
-54.40
-55.23
-55.31
-54.21
-51.53
-47.07
-40.96
-33.61
-25.56
-17.36
-9.34
-1.70
5.42
11.83
17.24
21.44
24.40
26.39
27.84
29.19
30.67
32.27
33.73
34.74
35.12
34.88
34.15
33.07
31.69
29.92
27.63
24.66
20.99
16.72
12.06
7.31
2.78
-1.32
-4.94
-8.23
-11.50
-15.12
-19.36
-24.21
-29.27
-33.77
-36.80
-37.53
-35.57
-31.12
-24.87
-17.80
-10.82
-4.50
1.00
5.82
10.12
13.90
16.96
19.00
19.87
19.71
18.95
18.15
17.69
17.59
17.52
16.99
15.61
13.36
10.62
7.93
5.76
4.22
3.05
1.76
-0.07
-2.58
-5.60
-8.74
-11.70
-14.40
-17.03
-19.96
-23.50
-27.75
-32.46
-37.07
-40.78
-42.78
-42.43
-39.46
-34.09
-26.90
-18.75
-10.44
-2.55
4.68
11.25
17.27
22.81
27.84
32.23
35.83
38.48
40.09
40.61
40.07
38.56
36.23
33.31
29.98
26.46
22.86
19.28
15.75
12.28
8.86
5.47
2.14
-1.03
-3.90
-6.30
-8.18
-9.61
-10.86
-12.34
-14.50
-17.64
-21.76
-26.39
-30.61
-33.25
-33.25
-30.05
-23.83
-15.49
-6.26
2.69
10.66
17.52
23.51
28.91
33.80
38.02
41.31
43.52
44.75
45.37
45.75
46.11
46.40
46.31
45.50
43.77
41.21
38.21
35.21
32.56
30.27
28.06
25.50
22.21
18.11
13.42
8.61
4.12
0.23
-3.09
-6.13
-9.28
-12.90
-17.20
-22.15
-27.47
-32.65
-36.97
-39.63
-39.92
-37.44
-32.27
-25.05
-16.77
-8.56
-1.33
4.44
8.69
11.70
13.85
15.48
16.77
17.84
18.72
19.41
19.88
20.09
19.95
19.37
18.36
17.01
15.51
14.07
12.82
11.75
10.74
9.65
8.38
6.94
5.43
4.00
2.78
1.85
1.27
0.97
0.85
0.70
0.20
-0.91
-2.75
-5.09
-7.36
-8.71
-8.31
-5.59
-0.57
6.23
13.92
21.55
28.45
34.31
39.13
43.09
46.26
48.64
50.18
50.93
51.09
50.98
50.85
50.80
50.64
50.05
48.73
46.58
43.73
40.49
37.13
33.80
30.44
26.90
23.00
18.63
13.78
8.55
3.07
-2.48
-7.97
-13.36
-18.69
-24.09
-29.70
-35.53
-41.36
-46.73
-51.01
-53.61
-54.14
-52.52
-49.00
-44.09
-38.41
-32.54
-26.95
-21.88
-17.38
-13.42
-9.93
-6.89
-4.33
-2.35
-1.04
-0.44
-0.52
-1.16
-2.15
-3.32
-4.47
-5.54
-6.55
-7.65
-9.01
-10.80
-13.05
-15.65
-18.41
-21.04
-23.36
-25.26
-26.81
-28.20
-29.69
-31.55
-33.94
-36.79
-39.76
-42.22
-43.41
-42.62
-39.46
-34.00
-26.86
-18.98
-11.33
-4.67
0.69
4.83
8.09
10.85
13.36
15.65
17.61
19.04
19.83
19.98
19.65
19.06
18.38
17.70
16.95
15.99
14.69
12.97
10.86
8.48
5.97
3.42
0.86
-1.75
-4.46
-7.30
-10.24
-13.29
-16.50
-19.99
-23.84
-28.01
-32.11
-35.45
-37.16
-36.52
-33.23
-27.63
-20.57
-13.15
-6.28
-0.49
4.14
7.89
11.09
13.97
16.57
18.82
20.59
21.80
22.45
22.60
22.37
21.86
21.22
20.47
19.56
18.31
16.53
14.06
10.94
7.34
3.55
-0.16
-3.55
-6.51
-9.10
-11.43
-13.72
-16.19
-19.09
-22.47
-26.18
-29.72
-32.37
-33.34
-32.08
-28.50
-23.08
-16.67
-10.22
-4.46
0.33
4.25
7.62
10.70
13.58
16.16
18.28
19.86
20.97
21.72
22.20
22.43
22.32
21.84
20.99
19.86
18.60
17.27
15.82
14.10
11.93
9.22
6.01
2.48
-1.11
-4.55
-7.71
-10.64
-13.51
-16.60
-20.15
-24.24
-28.64
-32.79
-35.88
-37.07
-35.78
-31.93
-25.97
-18.77
-11.30
-4.32
1.74
6.80
10.99
14.50
17.44
19.87
21.84
23.43
24.76
25.93
26.98
27.89
28.59
28.98
29.02
28.64
27.81
26.49
24.69
22.40
19.64
16.48
13.02
9.48
6.10
3.09
0.53
-1.69
-3.87
-6.39
-9.52
-13.24
-17.21
-20.82
-23.31
-24.05
-22.63
-19.05
-13.69
-7.24
-0.48
5.88
11.38
15.81
19.22
21.79
23.74
25.25
26.45
27.31
27.75
27.59
26.65
24.89
22.40
19.43
16.31
13.27
10.38
7.54
4.47
0.90
-3.35
-8.26
-13.66
-19.23
-24.63
-29.59
-33.99
-37.87
-41.46
-45.09
-49.01
-53.31
-57.75
-61.79
-64.71
-65.77
-64.51
-60.83
-55.10
-47.99
-40.30
-32.72
-25.73
-19.48
-13.89
-8.78
-3.98
0.47
4.40
7.54
9.67
10.78
10.98
10.52
9.59
8.30
6.76
5.06
3.36
1.81
0.47
-0.78
-2.19
-3.96
-6.11
-8.39
-10.41
-11.77
-12.26
-11.87
-10.89
-9.71
-8.82
-8.64
-9.40
-11.03
-13.02
-14.56
-14.77
-13.08
-9.43
-4.39
1.18
6.43
10.92
14.64
17.89
20.95
23.91
26.59
28.72
30.19
31.08
31.67
32.21
32.78
33.23
33.26
32.65
31.30
29.32
26.94
24.36
21.73
19.12
16.55
14.06
11.67
9.34
7.04
4.64
2.05
-0.79
-3.90
-7.29
-10.88
-14.46
-17.68
-19.96
-20.75
-19.57
-16.28
-11.07
-4.42
3.06
10.70
17.88
24.03
28.66
31.42
32.17
31.10
28.66
25.48
22.08
18.72
15.25
11.23
6.08
-0.70
-9.32
-19.56
-30.80
-42.03
-52.02
-59.57
-63.77
-64.25
-61.26
-55.63
-48.55
-41.29
-34.97
-30.39
-28.02
-27.93
-29.82
-33.01
-36.52
-39.31
-40.39
-39.18
-35.52
-29.71
-22.36
-14.24
-6.06
1.59
8.38
14.23
19.24
23.60
27.50
30.98
33.95
36.22
37.60
38.00
37.49
36.27
34.60
32.73
30.81
28.89
26.89
24.70
22.18
19.28
16.01
12.46
8.74
4.92
1.00
-3.10
-7.46
-12.19
-17.34
-22.85
-28.51
-33.85
-38.21
-40.79
-40.92
-38.26
-32.98
-25.72
-17.43
-9.04
-1.22
5.72
11.77
17.11
21.87
26.05
29.53
32.14
33.78
34.46
34.33
33.64
32.67
31.66
30.73
29.86
28.90
27.61
25.67
22.88
19.20
14.85
10.19
5.66
1.60
-1.93
-5.07
-8.14
-11.53
-15.52
-20.27
-25.75
-31.63
-37.30
-41.84
-44.24
-43.68
-39.87
-33.20
-24.67
-15.55
-6.92
0.56
6.77
11.95
16.44
20.48
24.14
27.36
30.00
31.92
33.02
33.25
32.73
31.62
30.19
28.69
27.27
25.96
24.68
23.30
21.69
19.69
17.17
14.05
10.34
6.21
1.91
-2.27
-6.12
-9.63
-12.97
-16.44
-20.35
-24.78
-29.43
-33.62
-36.39
-36.87
-34.54
-29.49
-22.36
-14.13
-5.75
2.09
9.10
15.28
20.73
25.51
29.55
32.71
34.93
36.26
36.92
37.19
37.30
37.34
37.25
36.85
36.00
34.67
32.89
30.72
28.17
25.19
21.71
17.76
13.51
9.22
5.18
1.54
-1.71
-4.78
-7.98
-11.62
-15.89
-20.81
-26.12
-31.32
-35.72
-38.52
-39.13
-37.23
-33.00
-26.99
-20.01
-12.85
-6.12
-0.13
5.06
9.51
13.30
16.50
19.12
21.20
22.82
24.06
25.02
25.70
26.10
26.14
25.79
25.00
23.80
22.18
20.18
17.82
15.18
12.37
9.52
6.72
3.98
1.24
-1.59
-4.58
-7.73
-11.02
-14.45
-18.05
-21.80
-25.59
-29.06
-31.65
-32.74
-31.83
-28.81
-23.97
-18.00
-11.70
-5.78
-0.59
3.86
7.77
11.35
14.63
17.46
19.58
20.83
21.27
21.13
20.71
20.22
19.69
19.01
18.02
16.61
14.80
12.67
10.29
7.70
4.91
1.90
-1.28
-4.55
-7.85
-11.14
-14.44
-17.85
-21.47
-25.43
-29.76
-34.37
-38.99
-43.12
-46.10
-47.31
-46.32
-43.09
-38.00
-31.74
-25.03
-18.42
-12.18
-6.40
-1.06
3.77
7.92
11.21
13.58
15.20
16.38
17.45
18.61
19.79
20.78
21.32
21.28
20.69
19.69
18.45
17.03
15.39
13.38
10.91
8.03
4.87
1.69
-1.29
-3.96
-6.39
-8.79
-11.46
-14.65
-18.50
-22.82
-27.17
-30.85
-33.15
-33.52
-31.79
-28.19
-23.26
-17.66
-11.96
-6.50
-1.37
3.47
8.10
12.50
16.52
19.93
22.52
24.18
24.92
24.86
24.15
22.96
21.50
19.98
18.59
17.45
16.53
15.62
14.40
12.53
9.83
6.40
2.49
-1.52
-5.34
-8.86
-12.10
-15.15
-18.01
-20.63
-22.98
-25.10
-27.12
-29.17
-31.14
-32.64
-33.05
-31.79
-28.64
-23.86
-18.15
-12.33
-6.99
-2.30
1.90
5.86
9.69
13.22
16.16
18.35
19.88
21.10
22.43
24.03
25.79
27.34
28.31
28.57
28.27
27.73
27.29
27.08
26.95
26.62
25.79
24.35
22.39
20.18
18.08
16.35
15.10
14.18
13.29
11.97
9.86
6.78
2.90
-1.30
-5.09
-7.71
-8.57
-7.42
-4.48
-0.34
4.25
8.49
11.82
13.93
14.78
14.41
12.87
10.13
6.04
0.48
-6.63
-15.20
-25.06
-35.89
-47.24
-58.48
-68.86
-77.48
-83.54
-86.50
-86.25
-83.11
-77.76
-70.97
-63.48
-55.86
-48.54
-41.82
-35.97
-31.09
-27.19
-24.13
-21.71
-19.85
-18.55
-17.91
-17.94
-18.40
-18.74
-18.27
-16.35
-12.67
-7.38
-1.03
5.66
12.05
17.72
22.52
26.54
29.93
32.86
35.41
37.61
39.44
40.88
41.88
42.41
42.38
41.74
40.37
38.23
35.34
31.84
27.98
24.04
20.22
16.58
13.01
9.35
5.45
1.34
-2.82
-6.80
-10.46
-13.81
-17.06
-20.48
-24.25
-28.31
-32.30
-35.64
-37.73
-38.06
-36.49
-33.20
-28.67
-23.47
-18.07
-12.70
-7.40
-2.10
3.20
8.31
12.89
16.63
19.34
21.13
22.29
23.20
24.08
24.97
25.68
26.00
25.85
25.30
24.52
23.60
22.42
20.66
18.02
14.39
10.03
5.46
1.23
-2.31
-5.16
-7.66
-10.30
-13.46
-17.26
-21.45
-25.52
-28.80
-30.63
-30.59
-28.58
-24.85
-19.92
-14.42
-8.92
-3.84
0.63
4.46
7.75
10.57
13.01
15.12
16.88
18.24
19.14
19.52
19.34
18.59
17.36
15.81
14.16
12.64
11.37
10.27
9.14
7.66
5.55
2.75
-0.62
-4.27
-7.92
-11.42
-14.81
-18.23
-21.87
-25.79
-29.93
-34.08
-37.88
-40.88
-42.58
-42.55
-40.52
-36.52
-30.92
-24.30
-17.34
-10.61
-4.41
1.16
6.18
10.76
14.98
18.84
22.24
25.05
27.13
28.45
29.03
29.04
28.62
27.89
26.84
25.45
23.67
21.52
19.11
16.52
13.83
10.99
7.93
4.56
0.90
-2.94
-6.83
-10.64
-14.39
-18.20
-22.28
-26.66
-31.14
-35.17
-37.92
-38.55
-36.56
-31.97
-25.35
-17.65
-9.83
-2.61
3.71
9.12
13.79
17.87
21.38
24.33
26.67
28.46
29.79
30.78
31.47
31.86
31.85
31.32
30.23
28.62
26.61
24.34
21.91
19.31
16.45
13.24
9.70
5.96
2.21
-1.38
-4.75
-8.00
-11.33
-14.93
-18.92
-23.26
-27.73
-31.95
-35.34
-37.28
-37.25
-34.97
-30.57
-24.51
-17.48
-10.17
-3.10
3.48
9.48
14.85
19.54
23.42
26.40
28.51
29.90
30.81
31.45
31.91
32.15
32.01
31.38
30.23
28.64
26.76
24.70
22.48
20.06
17.32
14.23
10.81
7.13
3.32
-0.54
-4.47
-8.51
-12.78
-17.37
-22.29
-27.37
-32.21
-36.26
-38.88
-39.57
-38.09
-34.59
-29.54
-23.58
-17.30
-11.18
-5.41
-0.09
4.80
9.24
13.15
16.44
19.03
20.87
21.96
22.37
22.20
21.58
20.66
19.62
18.58
17.57
16.52
15.24
13.58
11.40
8.73
5.74
2.64
-0.41
-3.39
-6.40
-9.63
-13.29
-17.53
-22.38
-27.68
-33.04
-37.82
-41.19
-42.34
-40.74
-36.39
-29.86
-22.12
-14.22
-6.96
-0.72
4.56
9.14
13.27
17.03
20.29
22.89
24.70
25.70
26.05
25.91
25.44
24.71
23.73
22.45
20.86
18.94
16.75
14.35
11.76
8.96
5.86
2.47
-1.17
-4.92
-8.62
-12.14
-15.48
-18.80
-22.37
-26.49
-31.24
-36.37
-41.23
-44.86
-46.26
-44.78
-40.37
-33.66
-25.70
-17.61
-10.19
-3.71
2.02
7.33
12.45
17.35
21.80
25.54
28.47
30.65
32.26
33.43
34.15
34.30
33.75
32.50
30.70
28.62
26.46
24.31
22.09
19.63
16.79
13.53
9.95
6.23
2.62
-0.73
-3.74
-6.50
-9.26
-12.33
-16.00
-20.32
-25.01
-29.43
-32.71
-34.03
-32.88
-29.28
-23.71
-16.94
-9.77
-2.85
3.46
9.05
13.93
18.13
21.63
24.42
26.51
27.96
28.92
29.51
29.72
29.49
28.69
27.28
25.38
23.25
21.20
19.40
17.83
16.20
14.15
11.39
7.85
3.69
-0.75
-5.14
-9.18
-12.76
-15.90
-18.77
-21.62
-24.67
-28.10
-31.88
-35.76
-39.23
-41.64
-42.36
-41.00
-37.55
-32.39
-26.15
-19.54
-13.11
-7.18
-1.87
2.81
6.79
9.99
12.33
13.82
14.62
14.99
15.20
15.43
15.62
15.57
14.97
13.57
11.28
8.32
5.06
2.03
-0.32
-1.68
-1.97
-1.29
0.15
2.07
4.18
6.22
8.00
9.36
10.22
10.55
10.40
9.88
9.16
8.60
8.65
9.87
12.69
17.26
23.29
30.13
36.97
43.22
48.66
53.51
58.18
62.96
67.79
72.32
76.05
78.60
79.87
79.98
79.09
77.20
74.07
69.26
62.35
53.04
41.31
27.43
11.93
-4.48
-20.84
-36.13
-49.28
-59.48
-66.28
-69.80
-70.58
-69.48
-67.39
-65.06
-63.03
-61.59
-60.85
-60.67
-60.73
-60.54
-59.57
-57.42
-53.93
-49.21
-43.53
-37.18
-30.34
-23.07
-15.33
-7.06
1.73
10.89
20.15
29.09
37.25
44.20
49.70
53.77
56.64
58.73
60.47
62.19
64.06
66.09
68.20
70.18
71.74
72.53
72.13
70.18
66.47
61.02
54.08
46.17
37.84
29.66
22.03
15.19
9.26
4.29
0.42
-2.16
-3.22
-2.68
-0.77
1.86
4.26
5.40
4.63
1.89
-2.12
-6.23
-9.22
-10.33
-9.47
-7.22
-4.42
-1.81
0.31
2.07
3.85
6.01
8.73
11.91
15.35
18.81
22.07
24.88
26.84
27.31
25.56
20.95
13.28
2.95
-9.03
-21.39
-33.01
-43.34
-52.55
-61.33
-70.37
-79.95
-89.65
-98.54
-105.55
-109.92
-111.47
-110.58
-107.93
-104.19
-99.85
-95.10
-89.90
-84.24
-78.13
-71.68
-65.04
-58.39
-51.87
-45.64
-39.82
-34.55
-29.98
-26.28
-23.50
-21.63
-20.51
-19.82
-19.21
-18.41
-17.30
-16.00
-14.75
-13.79
-13.26
-13.03
-12.86
-12.45
-11.67
-10.57
-9.41
-8.49
-8.05
-8.15
-8.73
-9.59
-10.55
-11.38
-11.88
-11.85
-11.13
-9.70
-7.69
-5.39
-3.20
-1.49
-0.53
-0.39
-0.97
-2.06
-3.36
-4.58
-5.46
-5.83
-5.67
-5.11
-4.34
-3.55
-2.88
-2.41
-2.20
-2.37
-3.08
-4.53
-6.77
-9.68
-12.98
-16.29
-19.23
-21.60
-23.37
-24.67
-25.73
-26.76
-27.92
-29.27
-30.72
-32.01
-32.74
-32.42
-30.63
-27.19
-22.18
-16.03
-9.35
-2.77
3.24
8.48
13.00
16.94
20.42
23.46
26.02
28.06
29.65
30.97
32.27
33.76
35.52
37.41
39.14
40.32
40.64
39.96
38.39
36.19
33.65
31.00
28.23
25.13
21.43
16.86
11.34
4.94
-2.15
-9.69
-17.43
-24.99
-31.87
-37.33
-40.63
-41.22
-38.98
-34.37
-28.29
-21.82
-15.88
-10.98
-7.13
-4.00
-1.21
1.50
4.11
6.42
8.17
9.28
9.86
10.18
10.48
10.91
11.33
11.46
11.00
9.75
7.74
5.22
2.53
-0.07
-2.52
-4.98
-7.71
-10.89
-14.50
-18.33
-22.10
-25.67
-29.18
-32.89
-36.97
-41.23
-45.00
-47.31
-47.25
-44.31
-38.56
-30.50
-20.89
-10.47
0.13
10.35
19.58
27.17
32.50
35.22
35.35
33.31
29.86
25.81
21.89
18.59
16.05
14.16
12.61
11.06
9.33
7.38
5.36
3.41
1.56
-0.28
-2.27
-4.47
-6.76
-8.89
-10.66
-12.08
-13.50
-15.46
-18.41
-22.38
-26.84
-30.77
-32.98
-32.54
-29.13
-23.14
-15.49
-7.23
0.78
8.11
14.71
20.72
26.20
31.07
35.07
37.97
39.71
40.46
40.52
40.18
39.58
38.70
37.40
35.66
33.61
31.59
29.94
28.89
28.32
27.88
27.06
25.52
23.23
20.44
17.57
14.93
12.55
10.21
7.52
4.20
0.15
-4.42
-9.07
-13.24
-16.33
-17.76
-17.17
-14.45
-9.86
-3.98
2.46
8.79
14.60
19.76
24.27
28.17
31.34
33.55
34.65
34.62
33.70
32.23
30.58
28.95
27.39
25.83
24.12
22.16
19.86
17.18
14.07
10.53
6.56
2.22
-2.34
-6.90
-11.20
-15.02
-18.24
-20.92
-23.31
-25.77
-28.70
-32.36
-36.84
-41.91
-47.07
-51.53
-54.36
-54.65
-51.83
-45.80
-37.10
-26.69
-15.72
-5.14
4.53
13.24
21.24
28.84
36.12
42.88
48.77
53.41
56.63
58.51
59.32
59.40
59.02
58.34
57.42
56.29
55.00
53.56
51.89
49.79
46.95
43.07
38.06
32.10
25.70
19.53
14.20
10.00
6.81
4.15
1.38
-2.02
-6.21
-10.84
-15.08
-17.82
-17.97
-14.77
-8.07
1.66
13.43
26.15
38.87
51.09
62.77
74.10
85.39
96.81
108.45
120.41
132.83
145.88
159.63
173.94
188.43
202.68
216.37
229.32
241.37
252.11
260.79
266.48
268.32
265.83
258.99
248.05
233.32
215.00
193.24
168.44
141.26
112.69
83.64
54.73
26.09
-2.52
-31.59
-61.64
-93.08
-126.11
-160.55
-195.69
-230.26
-262.61
-290.98
-313.97
-330.66
-340.79
-344.64
-342.97
-336.94
-328.00
-317.69
-307.33
-297.74
-288.98
-280.41
-270.97
-259.54
-245.33
-228.15
-208.45
-187.28
-165.99
-145.92
-128.07
-112.87
-100.21
-89.61
-80.46
-72.27
-64.79
-58.00
-52.07
-47.23
-43.76
-41.94
-41.97
-43.90
-47.38
-51.63
-55.44
-57.46
-56.62
-52.57
-45.76
-37.30
-28.47
-20.22
-12.87
-6.17
0.30
6.79
13.08
18.60
22.73
25.14
25.92
25.49
24.43
23.10
21.64
19.95
17.85
15.26
12.32
9.38
6.85
5.04
3.93
3.20
2.30
0.75
-1.62
-4.64
-7.85
-10.91
-13.73
-16.64
-20.15
-24.73
-30.48
-37.01
-43.52
-48.98
-52.38
-52.92
-50.19
-44.28
-35.76
-25.58
-14.84
-4.44
5.01
13.35
20.63
26.96
32.33
36.65
39.84
41.96
43.28
44.20
45.04
45.92
46.75
47.32
47.45
47.08
46.34
45.36
44.27
43.06
41.67
40.03
38.14
36.01
33.67
31.09
28.22
24.99
21.36
17.28
12.67
7.41
1.52
-4.65
-10.31
-14.31
-15.47
-13.04
-7.07
1.54
11.37
20.96
29.26
35.82
40.76
44.44
47.20
49.24
50.62
51.32
51.40
50.97
50.25
49.42
48.60
47.78
46.86
45.72
44.26
42.49
40.49
38.33
35.99
33.33
30.21
26.58
22.59
18.56
14.81
11.55
8.71
5.99
3.02
-0.57
-4.86
-9.66
-14.45
-18.42
-20.62
-20.21
-16.65
-9.97
-0.80
9.77
20.55
30.53
39.10
46.02
51.23
54.64
56.07
55.33
52.48
47.88
42.27
36.45
31.09
26.51
22.68
19.35
16.27
13.32
10.53
7.98
5.73
3.66
1.57
-0.76
-3.42
-6.34
-9.28
-12.00
-14.33
-16.38
-18.40
-20.77
-23.81
-27.58
-31.88
-36.16
-39.71
-41.73
-41.58
-38.93
-33.84
-26.76
-18.43
-9.66
-1.16
6.56
13.22
18.75
23.19
26.64
29.22
31.09
32.39
33.25
33.75
33.94
33.89
33.62
33.20
32.62
31.86
30.84
29.45
27.64
25.34
22.61
19.51
16.22
12.88
9.64
6.61
3.74
0.94
-2.03
-5.49
-9.71
-14.84
-20.64
-26.46
-31.27
-33.92
-33.56
-29.92
-23.47
-15.26
-6.53
1.70
8.83
14.77
19.74
23.96
27.51
30.30
32.19
33.13
33.33
33.16
33.12
33.55
34.52
35.81
37.08
38.01
38.48
38.56
38.32
37.73
36.57
34.51
31.29
26.89
21.50
15.49
9.18
2.77
-3.75
-10.55
-17.83
-25.75
-34.26
-42.99
-51.22
-57.93
-62.11
-63.08
-60.72
-55.57
-48.61
-40.92
-33.31
-26.25
-19.88
-14.23
-9.31
-5.15
-1.76
0.99
3.32
5.51
7.73
9.98
12.12
13.94
15.28
16.14
16.67
17.07
17.48
17.84
17.94
17.42
16.02
13.68
10.57
7.05
3.51
0.17
-2.89
-5.82
-8.83
-12.15
-15.93
-20.23
-24.88
-29.43
-33.17
-35.25
-34.92
-31.80
-26.10
-18.57
-10.26
-2.20
4.88
10.77
15.62
19.80
23.65
27.35
30.91
34.24
37.24
39.92
42.35
44.63
46.79
48.73
50.16
50.79
50.30
48.49
45.30
40.69
34.72
27.53
19.40
10.78
2.30
-5.46
-12.05
-17.38
-21.71
-25.47
-29.17
-33.21
-37.78
-42.81
-47.90
-52.38
-55.33
-55.93
-53.69
-48.71
-41.72
-33.82
-26.09
-19.21
-13.31
-8.14
-3.34
1.27
5.55
9.20
11.96
13.81
14.96
15.75
16.49
17.26
17.94
18.28
18.08
17.29
16.03
14.54
12.99
11.38
9.58
7.39
4.73
1.71
-1.38
-4.20
-6.54
-8.44
-10.20
-12.22
-14.88
-18.32
-22.43
-26.86
-31.12
-34.60
-36.73
-37.00
-35.11
-31.10
-25.35
-18.50
-11.33
-4.46
1.73
7.21
12.16
16.81
21.33
25.73
29.94
33.84
37.35
40.47
43.21
45.60
47.60
49.11
49.98
50.05
49.25
47.62
45.32
42.59
39.62
36.52
33.26
29.73
25.85
21.62
17.13
12.53
7.90
3.21
-1.71
-7.10
-13.17
-19.94
-27.10
-34.07
-40.08
-44.43
-46.71
-46.94
-45.55
-43.19
-40.56
-38.12
-36.05
-34.25
-32.52
-30.70
-28.70
-26.54
-24.27
-21.86
-19.24
-16.32
-13.14
-9.87
-6.78
-4.13
-2.02
-0.39
0.96
2.17
3.27
4.14
4.63
4.64
4.23
3.59
2.92
2.29
1.62
0.64
-0.88
-3.11
-6.03
-9.43
-12.91
-15.90
-17.71
-17.68
-15.33
-10.59
-3.80
4.34
13.08
21.89
30.52
39.04
47.62
56.32
65.10
73.86
82.60
91.47
100.72
110.54
120.95
131.75
142.51
152.52
160.91
166.70
169.13
167.85
163.24
156.41
149.03
142.96
139.86
140.92
146.78
157.58
173.00
192.24
213.89
235.85
255.39
269.64
276.29
274.26
264.19
248.25
229.51
210.85
194.09
179.59
166.54
153.62
139.88
125.16
110.12
95.74
82.72
71.03
59.77
47.55
33.05
15.63
-4.42
-26.01
-47.82
-68.84
-88.87
-108.51
-128.85
-151.26
-177.24
-208.45
-246.11
-289.94
-336.71
-379.78
-410.25
-419.71
-403.51
-362.71
-303.70
-235.54
-166.57
-101.99
-43.65
8.55
54.68
93.99
125.43
148.95
166.16
179.90
192.67
205.27
216.34
223.17
223.12
215.07
199.91
180.06
158.40
137.15
117.30
98.64
80.19
60.74
39.30
15.36
-11.05
-39.40
-68.83
-98.48
-127.76
-156.62
-185.52
-215.20
-246.39
-279.62
-315.24
-353.49
-394.30
-437.02
-479.93
-520.31
-554.96
-581.35
-598.56
-607.46
-609.97
-607.65
-600.71
-587.88
-567.47
-538.84
-503.37
-464.27
-425.41
-389.78
-358.64
-331.58
-307.47
-285.39
-265.18
-247.29
-232.17
-219.67
-208.86
-198.39
-186.98
-174.09
-159.97
-145.63
-132.22
-120.52
-110.53
-101.50
-92.20
-81.52
-68.89
-54.51
-39.21
-24.01
-9.66
3.70
16.52
29.61
43.76
59.50
77.10
96.54
117.32
138.29
157.54
172.64
181.51
183.35
179.13
171.44
163.52
158.05
156.34
158.24
162.73
168.68
175.36
182.47
189.76
196.75
202.65
206.58
207.98
206.79
203.50
198.95
193.98
189.11
184.34
179.22
173.05
165.24
155.49
143.96
131.10
117.50
103.82
90.66
78.55
67.92
59.02
51.92
46.45
42.21
38.56
34.61
29.48
22.60
14.12
5.07
-2.77
-7.50
-7.82
-3.58
4.19
13.69
23.09
31.13
37.34
41.91
45.31
47.91
49.87
51.20
51.88
52.02
51.79
51.40
50.91
50.26
49.30
47.95
46.30
44.58
43.04
41.72
40.40
38.66
36.08
32.52
28.14
23.39
18.76
14.53
10.66
6.83
2.49
-2.85
-9.44
-17.04
-24.86
-31.61
-35.74
-35.96
-31.66
-23.13
-11.53
1.52
14.48
26.28
36.40
44.85
51.78
57.34
61.55
64.38
65.87
66.15
65.48
64.14
62.40
60.44
58.40
56.36
54.34
52.32
50.25
48.08
45.82
43.65
41.78
40.49
39.95
40.19
41.03
42.12
43.09
43.57
43.27
42.01
39.71
36.55
32.99
29.81
27.96
28.24
30.94
35.74
41.74
47.77
52.86
56.44
58.50
59.35
59.41
58.99
58.17
56.86
54.95
52.38
49.19
45.59
41.88
38.35
35.19
32.41
29.86
27.23
24.23
20.70
16.64
12.18
7.48
2.70
-2.12
-6.97
-11.80
-16.58
-21.29
-26.01
-30.96
-36.38
-42.41
-48.79
-54.76
-59.09
-60.47
-57.94
-51.35
-41.48
-29.81
-18.03
-7.48
1.14
7.82
12.87
16.61
19.09
20.16
19.64
17.60
14.40
10.61
6.74
2.99
-0.73
-4.77
-9.53
-15.30
-22.22
-30.33
-39.52
-49.50
-59.66
-69.10
-76.80
-81.91
-84.05
-83.42
-80.67
-76.65
-72.07
-67.46
-63.12
-59.25
-55.88
-52.71
-49.11
-44.13
-36.92
-27.13
-15.13
-2.04
10.77
22.12
31.38
38.57
44.06
48.32
51.60
53.93
55.23
55.50
54.90
53.74
52.43
51.28
50.45
49.94
49.61
49.26
48.68
47.65
46.02
43.69
40.60
36.81
32.49
27.93
23.50
19.51
16.12
13.21
10.36
7.11
3.07
-1.72
-6.71
-10.95
-13.37
-13.15
-10.09
-4.69
2.10
9.18
15.69
21.20
25.67
29.28
32.20
34.47
35.99
36.66
36.49
35.64
34.40
33.06
31.80
30.63
29.42
27.99
26.21
24.05
21.61
19.02
16.41
13.78
11.14
8.47
5.82
3.29
0.89
-1.42
-3.82
-6.58
-9.89
-13.72
-17.71
-21.18
-23.32
-23.38
-20.99
-16.24
-9.66
-2.08
5.67
12.94
19.39
25.01
29.95
34.45
38.68
42.68
46.43
49.86
52.92
55.66
58.25
60.95
64.05
67.78
72.20
77.19
82.43
87.47
91.87
95.31
97.65
98.87
99.01
98.11
96.12
93.01
88.81
83.75
78.14
72.41
66.97
62.29
58.88
57.35
58.20
61.63
67.25
73.98
80.30
84.59
85.55
82.50
75.37
64.52
50.53
34.06
15.82
-3.34
-22.45
-40.53
-56.80
-70.89
-82.97
-93.71
-104.03
-114.73
-126.09
-137.73
-148.58
-157.31
-162.75
-164.35
-162.38
-157.75
-151.64
-145.15
-138.97
-133.36
-128.32
-123.80
-119.84
-116.60
-114.12
-112.22
-110.28
-107.39
-102.59
-95.28
-85.56
-74.20
-62.41
-51.40
-41.92
-34.14
-27.69
-22.07
-16.89
-12.10
-7.87
-4.46
-1.98
-0.32
0.82
1.79
2.88
4.19
5.67
7.10
8.26
8.98
9.17
8.90
8.29
7.46
6.43
5.17
3.58
1.60
-0.70
-3.14
-5.52
-7.73
-9.89
-12.30
-15.35
-19.32
-24.08
-29.07
-33.31
-35.76
-35.69
-33.00
-28.26
-22.49
-16.81
-12.02
-8.45
-5.97
-4.26
-2.99
-2.03
-1.34
-0.90
-0.58
-0.14
0.62
1.77
3.16
4.50
5.48
5.95
6.04
6.07
6.36
7.04
7.94
8.64
8.73
8.04
6.70
5.13
3.72
2.69
1.95
1.19
0.02
-1.84
-4.48
-7.73
-11.21
-14.31
-16.29
-16.51
-14.57
-10.56
-5.07
1.00
6.77
11.63
15.40
18.25
20.52
22.46
24.20
25.70
26.90
27.78
28.37
28.73
28.91
28.92
28.75
28.44
27.99
27.47
26.87
26.15
25.23
24.03
22.51
20.66
18.53
16.25
13.95
11.74
9.69
7.78
5.86
3.73
1.18
-1.92
-5.50
-9.23
-12.54
-14.71
-15.12
-13.43
-9.69
-4.45
1.47
7.16
11.95
