1596630398.00
64.000000
-0.00
-0.00
-0.00
-0.00
-0.00
-0.00
-0.00
-0.00
-0.00
-0.00
0.00
0.01
0.01
-0.00
-0.03
-0.05
-0.05
0.00
0.13
0.36
0.66
1.01
1.37
1.72
2.06
2.40
2.79
3.24
3.80
4.42
5.06
5.66
6.20
6.68
7.15
7.68
8.31
9.14
10.09
11.04
11.88
12.56
13.14
13.76
14.65
15.96
17.91
20.32
22.90
25.38
27.58
29.57
31.68
34.32
37.81
42.54
48.15
54.10
59.83
64.97
69.58
74.14
79.34
85.71
93.76
103.00
112.62
121.73
129.77
136.75
143.30
150.75
157.77
166.64
177.95
191.79
206.97
220.57
228.25
225.36
208.53
176.87
132.76
80.05
23.07
-34.94
-92.44
-149.16
-205.23
-260.37
-313.74
-363.87
-409.83
-450.91
-486.50
-515.74
-537.23
-549.22
-549.96
-538.37
-514.21
-478.67
-433.88
-382.45
-327.02
-269.84
-212.63
-156.66
-102.95
-52.37
-5.90
35.58
71.43
101.35
125.50
144.38
158.69
169.15
176.37
180.75
182.57
182.07
179.51
175.23
169.65
163.18
156.15
148.81
141.30
133.69
126.02
118.33
110.69
103.16
95.80
88.68
81.83
75.25
68.95
62.95
57.25
51.86
46.78
42.03
37.59
33.45
29.61
26.07
22.81
19.83
17.12
14.67
12.48
10.53
8.83
7.35
6.08
5.00
4.08
3.28
2.58
1.97
1.45
1.01
0.68
0.44
0.28
0.16
0.04
-0.09
-0.25
-0.41
-0.54
-0.62
-0.64
-0.61
-0.58
-0.60
-0.71
-0.89
-1.11
-1.29
-1.36
-1.30
-1.15
-1.03
-1.07
-1.35
-1.85
-2.45
-2.98
-3.25
-3.21
-2.97
-2.77
-2.89
-3.50
-4.57
-5.84
-6.96
-7.57
-7.57
-7.14
-6.70
-6.74
-7.56
-9.12
-11.05
-12.74
-13.76
-13.89
-13.33
-12.53
-12.02
-12.23
-13.42
-15.76
-19.07
-22.67
-25.18
-24.81
-19.98
-10.28
3.09
17.52
30.01
38.40
42.20
42.62
41.71
41.30
42.27
44.32
46.68
48.54
49.51
49.59
48.85
47.26
44.55
40.65
35.32
28.83
21.66
14.36
7.22
0.27
-6.68
-13.79
-20.93
-27.58
-32.99
-36.42
-37.44
-36.09
-32.82
-28.42
-23.78
-19.68
-16.69
-14.91
-14.11
-13.80
-13.50
-12.95
-12.17
-11.36
-10.73
-10.31
-9.97
-9.52
-8.92
-8.30
-7.90
-7.89
-8.19
-8.49
-8.37
-7.50
-5.82
-3.48
-0.82
1.90
4.49
6.86
8.93
10.57
11.57
11.73
10.90
9.15
6.75
4.21
2.11
0.88
0.66
1.23
2.12
2.82
3.03
2.77
2.32
2.02
2.12
2.61
3.30
3.91
4.23
4.15
3.74
3.13
2.43
1.67
0.71
-0.57
-2.25
-4.29
-6.48
-8.48
-10.01
-10.91
-11.28
-11.41
-11.70
-12.48
-13.86
-15.63
-17.29
-18.21
-17.80
-15.72
-12.05
-7.20
-1.83
3.40
7.98
11.72
14.65
16.90
18.53
19.43
19.47
18.56
16.90
14.91
13.13
11.91
11.33
11.16
11.01
10.68
10.14
9.62
9.33
9.27
9.21
8.80
7.78
6.13
4.09
1.98
0.05
-1.67
-3.29
-4.98
-6.79
-8.61
-10.28
-11.69
-12.93
-14.28
-16.10
-18.65
-21.83
-25.18
-27.86
-28.98
-27.83
-24.19
-18.47
-11.57
-4.63
1.37
5.90
8.96
10.90
12.19
13.07
13.59
13.62
13.15
12.30
11.35
10.59
10.11
9.81
9.43
8.74
7.64
6.23
4.69
3.15
1.54
-0.36
-2.94
-6.51
-11.24
-16.97
-23.20
-29.26
-34.52
-38.65
-41.80
-44.52
-47.55
-51.53
-56.74
-62.92
-69.45
-75.59
-80.64
-84.20
-86.25
-87.04
-87.05
-86.81
-86.53
-86.00
-84.47
-81.04
-75.12
-66.85
-57.25
-48.16
-41.79
-40.31
-45.47
-58.19
-78.14
-103.45
-130.74
-155.88
-175.13
-186.25
-188.88
-184.06
-173.15
-157.05
-136.10
-110.76
-82.29
-53.01
-25.65
-2.33
16.20
30.82
43.57
56.98
73.24
93.67
118.33
145.84
173.71
198.82
218.36
230.50
234.64
231.22
221.31
206.36
188.13
168.77
150.67
135.98
125.88
120.23
117.46
115.26
111.35
104.38
94.24
81.98
69.42
58.34
49.83
43.99
40.02
36.67
32.87
28.05
22.26
15.92
9.48
3.24
-2.66
-8.10
-12.84
-16.62
-19.24
-20.70
-21.26
-21.30
-21.19
-21.19
-21.37
-21.71
-22.14
-22.65
-23.36
-24.42
-26.06
-28.35
-31.12
-33.92
-35.98
-36.49
-34.86
-30.87
-24.81
-17.40
-9.51
-1.91
4.84
10.44
14.75
17.72
19.38
19.88
19.50
18.62
17.65
16.85
16.31
15.97
15.73
15.55
15.49
15.56
15.74
15.80
15.44
14.37
12.49
9.91
6.95
3.94
1.18
-1.21
-3.37
-5.59
-8.24
-11.60
-15.66
-19.96
-23.70
-25.87
-25.66
-22.77
-17.58
-10.96
-3.96
2.56
8.18
12.81
16.60
19.63
21.85
23.12
23.35
22.61
21.20
19.52
17.95
16.76
16.01
15.62
15.45
15.37
15.30
15.25
15.19
15.05
14.66
13.86
12.51
10.59
8.25
5.73
3.27
1.06
-0.84
-2.48
-4.02
-5.72
-7.81
-10.49
-13.77
-17.50
-21.26
-24.48
-26.49
-26.69
-24.70
-20.48
-14.41
-7.15
0.42
7.47
13.37
17.80
20.79
22.60
23.54
23.88
23.75
23.18
22.24
21.07
19.93
19.08
18.63
18.54
18.56
18.42
17.98
17.31
16.61
16.08
15.73
15.37
14.70
13.43
11.47
8.88
5.87
2.67
-0.52
-3.62
-6.57
-9.32
-11.87
-14.27
-16.65
-19.21
-22.22
-25.82
-29.97
-34.24
-37.87
-39.94
-39.62
-36.55
-30.95
-23.62
-15.67
-8.14
-1.71
3.33
7.04
9.60
11.14
11.76
11.54
10.67
9.46
8.31
7.58
7.47
8.00
9.02
10.29
11.50
12.44
12.88
12.71
11.86
10.41
8.62
6.85
5.51
4.82
4.73
4.86
4.72
3.86
2.14
-0.31
-3.18
-6.17
-9.20
-12.44
-16.23
-20.88
-26.58
-33.26
-40.55
-47.82
-54.15
-58.48
-59.82
-57.52
-51.48
-42.30
-31.06
-19.08
-7.58
2.56
10.85
17.18
21.68
24.64
26.40
27.37
27.96
28.59
29.63
31.31
33.70
36.55
39.39
41.66
42.89
42.87
41.71
39.71
37.23
34.44
31.31
27.65
23.26
18.07
12.27
6.20
0.31
-5.04
-9.70
-13.80
-17.75
-21.98
-26.74
-31.95
-37.13
-41.61
-44.74
-46.06
-45.39
-42.75
-38.32
-32.39
-25.33
-17.61
-9.76
-2.21
4.76
11.07
16.82
22.08
26.81
30.84
33.97
35.95
36.70
36.27
34.78
32.46
29.53
26.18
22.58
18.91
15.25
11.70
8.28
4.96
1.70
-1.52
-4.72
-7.86
-10.88
-13.73
-16.37
-18.79
-21.04
-23.19
-25.32
-27.56
-29.98
-32.65
-35.54
-38.49
-41.14
-43.00
-43.45
-41.97
-38.34
-32.72
-25.67
-17.93
-10.22
-3.04
3.32
8.65
12.69
15.16
15.90
15.15
13.71
12.80
13.78
17.59
24.43
33.68
44.15
54.39
63.08
69.17
71.94
71.03
66.48
58.83
49.07
38.39
27.87
18.16
9.35
1.29
-6.06
-12.32
-16.82
-19.02
-19.02
-17.82
-17.07
-18.34
-22.45
-29.12
-37.12
-44.83
-50.83
-54.26
-54.70
-52.04
-46.29
-37.68
-26.81
-14.68
-2.53
8.53
17.85
25.36
31.54
37.16
43.23
50.81
60.86
74.02
90.27
108.84
128.36
147.22
163.94
177.64
188.16
196.09
202.57
209.11
217.11
227.38
239.54
251.98
262.07
267.00
264.62
254.09
236.01
211.90
183.64
152.97
121.21
89.25
57.52
26.02
-5.54
-37.56
-70.16
-102.96
-135.04
-164.85
-190.27
-209.01
-219.03
-219.19
-209.79
-193.09
-173.24
-155.67
-145.30
-144.89
-153.97
-168.89
-184.05
-193.75
-193.93
-183.30
-163.63
-138.14
-109.79
-80.25
-49.98
-18.80
13.25
45.42
76.21
102.79
123.08
136.68
144.19
145.81
140.47
126.26
101.53
65.30
15.74
-46.26
-115.43
-182.81
-238.40
-273.98
-284.90
-270.92
-236.80
-194.45
-155.27
-125.76
-106.72
-96.24
-92.42
-94.40
-102.09
-116.99
-145.76
-192.29
-253.85
-321.57
-384.93
-435.60
-468.98
-483.79
-450.58
-359.33
-228.02
-92.52
18.97
97.66
148.56
178.87
201.15
222.61
241.52
255.15
263.66
270.27
277.08
283.15
286.29
285.33
279.79
267.01
246.79
222.49
199.45
181.48
169.21
161.10
155.53
150.74
143.49
131.90
116.22
98.29
79.80
61.57
44.06
27.93
13.30
-1.09
-16.30
-32.28
-47.73
-60.79
-69.81
-73.76
-72.57
-67.50
-60.87
-54.55
-48.84
-42.25
-32.57
-18.39
-0.56
17.60
31.14
35.57
28.79
12.12
-10.26
-33.00
-51.63
-63.84
-69.57
-70.06
-66.54
-59.48
-48.62
-33.52
-14.30
8.17
32.53
57.44
81.84
104.83
125.23
141.17
150.33
150.38
139.82
118.83
89.61
56.47
25.03
0.80
-12.40
-13.99
-7.21
1.85
6.59
2.50
-11.17
-31.50
-53.84
-73.84
-88.91
-98.78
-104.78
-108.80
-112.25
-115.59
-118.35
-119.90
-119.38
-115.92
-109.02
-98.77
-85.98
-71.88
-57.75
-44.76
-35.10
-30.12
-29.57
-31.54
-33.42
-32.95
-28.73
-20.49
-9.09
1.16
6.28
4.21
-4.99
-20.26
-40.57
-64.51
-89.88
-113.87
-137.56
-161.24
-182.83
-198.55
-205.67
-204.43
-197.59
-189.06
-182.42
-185.08
-200.90
-227.85
-259.44
-288.99
-313.02
-331.22
-344.89
-322.42
-248.23
-131.48
-1.15
115.51
206.27
270.94
314.63
343.48
362.72
371.01
367.09
352.76
332.52
311.47
292.43
277.18
266.60
260.86
255.15
245.04
228.95
208.12
186.01
166.45
153.10
148.77
154.44
165.78
176.39
184.94
188.45
184.41
170.83
147.18
115.27
79.55
44.83
16.27
-2.16
-10.03
-10.47
-9.27
-12.10
-22.04
-38.78
-60.55
-85.20
-111.04
-137.78
-166.03
-197.25
-233.04
-274.35
-320.71
-370.27
-418.50
-458.03
-480.96
-481.80
-460.08
-420.52
-370.55
-317.91
-269.75
-230.31
-199.86
-175.53
-153.20
-128.92
-99.57
-63.15
-20.30
22.86
56.87
72.54
64.11
30.17
-25.90
-96.47
-170.65
-222.14
-229.48
-190.35
-123.74
-54.31
1.55
39.02
59.87
72.93
84.18
94.28
101.76
106.84
113.95
126.10
146.25
174.68
208.76
243.03
269.91
283.21
280.72
264.38
237.33
201.88
158.64
108.49
54.18
0.90
-43.70
-71.14
-74.92
-53.32
-9.89
47.76
110.66
170.16
218.84
251.40
265.17
260.65
241.40
213.69
184.91
161.56
147.10
140.89
138.95
136.14
128.66
115.44
98.44
81.24
67.28
58.41
54.31
52.99
51.71
48.01
40.46
28.89
14.23
-1.83
-17.34
-30.49
-40.07
-45.65
-47.41
-45.92
-41.82
-35.69
-28.03
-19.41
-10.41
-1.57
6.85
14.81
22.40
29.41
35.04
37.96
36.79
30.68
19.81
5.39
-10.73
-26.56
-40.44
-51.22
-58.31
-61.65
-61.69
-59.50
-56.57
-54.54
-54.80
-57.96
-63.66
-70.56
-76.79
-80.53
-80.72
-77.55
-72.53
-68.02
-66.25
-68.25
-73.32
-79.05
-82.23
-80.14
-71.59
-57.40
-39.84
-21.60
-4.63
10.50
24.38
38.07
52.17
66.30
79.30
89.88
97.36
102.21
105.90
110.40
117.37
127.47
140.08
153.53
165.67
174.59
179.14
179.21
175.54
169.22
161.07
151.23
139.16
123.95
104.97
82.31
57.09
31.25
7.19
-12.70
-26.49
-32.96
-31.77
-23.45
-9.38
8.33
27.16
44.78
59.55
71.14
80.52
89.39
99.22
110.20
120.98
129.17
132.56
130.29
123.07
112.84
101.72
91.37
82.90
77.14
74.78
76.07
80.17
84.77
86.58
82.45
70.68
51.68
27.43
0.23
-28.48
-58.64
-91.31
-127.76
-168.45
-212.42
-257.14
-298.66
-332.46
-354.52
-362.19
-355.02
-334.83
-305.45
-271.88
-239.32
-212.31
-193.94
-185.55
-186.80
-196.08
-210.99
-228.82
-246.98
-263.27
-276.26
-285.38
-290.88
-293.45
-293.37
-290.02
-281.80
-266.47
-242.08
-208.07
-166.13
-120.59
-77.90
-45.32
-28.60
-29.60
-45.04
-67.06
-85.71
-92.39
-82.39
-55.94
-16.91
28.89
75.27
116.28
146.37
160.90
157.28
136.12
101.70
61.27
23.02
-5.68
-19.77
-16.87
2.79
36.42
78.93
123.48
162.81
190.96
204.78
204.33
192.12
171.60
145.87
117.14
86.96
56.76
28.06
2.36
-19.16
-36.09
-48.66
-57.58
-63.97
-69.41
-76.13
-86.64
-102.64
-123.94
-147.66
-168.71
-181.47
-181.99
-169.66
-147.16
-119.30
-90.72
-64.05
-39.22
-13.94
15.14
51.25
96.39
150.49
210.66
271.03
323.62
360.39
375.80
368.76
342.71
303.85
258.36
209.90
158.72
102.57
39.03
-32.21
-107.88
-181.42
-244.80
-291.07
-316.72
-322.64
-313.52
-295.72
-274.60
-253.00
-231.10
-207.60
-181.35
-152.13
-120.41
-86.61
-50.63
-12.37
27.24
65.57
98.79
123.17
136.80
140.53
137.50
131.80
126.79
123.99
123.11
122.74
121.23
117.30
110.44
101.13
91.01
82.74
79.55
84.09
97.08
116.59
138.40
157.60
170.62
176.35
175.66
169.81
158.90
141.52
116.35
84.20
49.27
18.20
-2.90
-11.72
-10.99
-7.01
-6.63
-14.05
-29.69
-51.14
-74.44
-96.05
-113.51
-125.02
-128.76
-123.32
-107.97
-83.86
-54.15
-21.99
9.70
38.48
62.76
82.16
97.28
110.37
123.63
138.09
154.70
172.80
189.99
203.34
211.03
212.15
207.58
197.15
179.19
153.78
122.71
89.60
59.55
38.25
29.07
33.47
48.68
55.74
41.31
4.25
-44.36
-90.04
-116.66
-124.76
-116.29
-93.17
-57.45
-13.71
32.17
71.77
96.49
101.45
86.93
60.16
30.33
4.77
-11.67
-18.11
-17.58
-15.04
-14.95
-20.69
-32.61
-49.82
-70.49
-90.72
-105.62
-111.41
-106.86
-93.42
-75.03
-55.26
-36.39
-18.82
-1.14
17.68
35.79
48.15
49.05
35.47
10.32
-18.40
-41.19
-51.28
-47.17
-32.34
-11.99
10.08
32.19
53.49
71.52
81.85
79.92
63.87
36.13
2.67
-29.20
-53.81
-68.73
-75.13
-76.95
-79.15
-85.64
-97.15
-110.11
-117.53
-112.08
-89.76
-52.70
-8.96
30.93
58.42
70.09
67.78
55.92
38.17
16.24
-9.66
-39.17
-70.58
-101.38
-129.87
-156.74
-185.27
-219.44
-260.88
-306.44
-347.91
-374.05
-374.67
-344.56
-285.61
-206.34
-119.20
-36.99
30.23
76.82
101.85
108.21
101.14
86.70
70.37
56.44
47.74
45.89
51.39
63.50
79.67
95.72
106.81
109.10
101.43
85.96
67.47
51.69
43.39
45.03
56.33
74.60
95.56
114.55
127.72
133.17
131.47
125.45
119.02
115.50
116.40
120.84
125.98
128.18
124.60
114.33
98.78
80.98
64.13
50.54
40.70
33.16
25.17
13.97
-2.05
-22.76
-46.73
-72.27
-97.62
-121.42
-142.73
-161.25
-177.05
-190.45
-201.76
-211.82
-222.21
-233.63
-245.23
-254.26
-257.46
-252.03
-236.70
-211.57
-179.13
-144.03
-110.34
-80.32
-53.65
-29.37
-6.52
15.35
37.48
62.10
86.31
105.54
116.81
123.10
128.65
137.51
153.80
181.01
220.47
268.45
317.30
357.06
379.64
379.68
356.85
304.74
230.53
150.79
81.13
31.03
-6.35
-38.13
-69.82
-104.19
-143.11
-186.36
-233.78
-284.74
-335.86
-380.86
-411.19
-420.99
-409.56
-381.39
-342.65
-300.36
-260.62
-226.64
-198.75
-174.59
-151.95
-129.64
-107.15
-83.17
-56.59
-26.94
5.70
40.63
76.94
112.62
144.85
170.85
189.28
200.08
204.27
203.49
199.35
193.32
186.01
177.49
167.73
157.14
146.40
136.05
126.30
116.88
107.37
97.28
86.35
74.73
62.93
51.57
41.08
31.60
23.03
15.33
8.77
4.00
1.76
2.36
5.42
9.75
13.72
15.84
15.27
11.96
6.54
-0.05
-6.78
-12.69
-17.04
-19.45
-20.09
-19.78
-19.87
-21.71
-26.15
-33.18
-41.92
-51.13
-59.76
-67.28
-73.71
-79.34
-84.46
-89.21
-93.64
-97.79
-101.63
-104.95
-107.45
-108.89
-109.48
-109.99
-111.71
-115.86
-123.00
-132.62
-143.22
-152.92
-160.04
-163.38
-161.99
-154.83
-140.61
-118.42
-88.61
-53.44
-16.96
16.17
42.26
59.83
69.74
74.28
75.80
75.71
74.37
71.62
67.48
62.46
57.24
52.23
47.34
42.20
36.45
30.19
23.95
18.45
14.27
11.65
10.46
10.39
11.03
11.99
13.01
14.07
15.52
18.13
22.81
30.34
41.02
54.50
69.83
85.66
100.61
113.60
124.10
132.19
138.38
143.34
147.53
151.01
153.41
154.17
152.75
148.99
143.05
135.38
126.53
117.02
107.32
97.86
89.03
81.08
74.11
68.11
62.93
58.44
54.41
50.65
46.91
42.98
38.77
34.36
29.96
25.86
22.22
18.98
15.92
12.74
9.32
5.92
3.11
1.66
2.20
4.88
9.29
14.59
19.78
24.10
27.26
29.46
31.05
32.34
33.35
33.86
33.64
32.63
31.10
29.47
28.16
27.38
27.09
27.01
26.88
26.48
25.69
24.49
22.82
20.61
17.76
14.24
10.21
6.01
2.02
-1.45
-4.32
-6.77
-9.12
-11.63
-14.40
-17.31
-20.13
-22.61
-24.51
-25.53
-25.28
-23.36
-19.50
-13.78
-6.75
0.68
7.55
13.15
17.17
19.67
20.95
21.29
20.93
20.03
18.72
17.22
15.69
14.27
12.99
11.76
10.45
8.93
7.17
5.19
3.09
1.00
-0.96
-2.74
-4.28
-5.62
-6.79
-7.92
-9.15
-10.63
-12.49
-14.72
-17.22
-19.84
-22.44
-24.90
-27.06
-28.66
-29.27
-28.43
-25.79
-21.36
-15.56
-9.12
-2.82
2.67
7.01
10.10
12.06
13.06
13.33
13.08
12.47
11.54
10.31
8.77
7.05
5.42
4.24
3.81
4.20
5.18
6.31
7.11
7.28
6.77
5.78
4.61
3.47
2.39
1.26
-0.09
-1.73
-3.59
-5.53
-7.40
-9.12
-10.78
-12.53
-14.47
-16.61
-18.85
-21.17
-23.57
-26.13
-28.76
-31.00
-32.00
-30.71
-26.40
-18.94
-9.10
1.81
12.31
21.31
28.38
33.65
37.57
40.46
42.49
43.62
43.86
43.38
42.54
41.72
41.18
40.93
40.77
40.43
39.70
38.57
37.10
35.42
33.53
31.31
28.55
25.08
20.92
16.27
11.50
6.99
3.00
-0.48
-3.67
-6.91
-10.50
-14.58
-19.04
-23.62
-28.00
-31.97
-35.51
-38.77
-42.01
-45.50
-49.45
-53.89
-58.61
-63.20
-66.95
-69.04
-68.72
-65.58
-59.74
-51.91
-43.13
-34.43
-26.59
-19.97
-14.63
-10.48
-7.45
-5.49
-4.54
-4.37
-4.62
-4.89
-4.84
-4.30
-3.31
-2.08
-0.85
0.11
0.70
0.85
0.57
-0.11
-1.17
-2.60
-4.34
-6.27
-8.20
-9.94
-11.37
-12.48
-13.38
-14.23
-15.18
-16.34
-17.72
-19.39
-21.37
-23.73
-26.47
-29.56
-32.93
-36.46
-40.00
-43.28
-45.78
-46.83
-45.70
-41.91
-35.49
-27.07
-17.77
-8.87
-1.40
4.09
7.59
9.51
10.39
10.69
10.70
10.55
10.26
9.92
9.62
9.47
9.49
9.62
9.72
9.64
9.30
8.77
8.13
7.46
6.72
5.73
4.21
1.98
-0.99
-4.50
-8.14
-11.46
-14.10
-15.97
-17.29
-18.51
-20.17
-22.65
-26.03
-29.95
-33.69
-36.31
-36.98
-35.12
-30.70
-24.13
-16.25
-8.00
-0.24
6.43
11.74
15.64
18.17
19.39
19.37
18.23
16.31
14.06
12.00
10.51
9.77
9.63
9.76
9.80
9.51
8.86
7.96
7.02
6.19
5.52
4.89
4.13
3.03
1.43
-0.67
-3.14
-5.76
-8.31
-10.62
-12.59
-14.25
-15.66
-17.02
-18.63
-20.81
-23.78
-27.43
-31.20
-34.18
-35.34
-33.92
-29.76
-23.33
-15.57
-7.53
-0.09
6.23
11.24
14.95
17.39
18.59
18.59
17.55
15.83
13.94
12.39
11.48
11.28
11.54
11.93
12.13
12.04
11.72
11.33
10.98
10.65
10.24
9.64
8.78
7.71
6.47
5.09
3.54
1.74
-0.37
-2.82
-5.54
-8.35
-11.01
-13.29
-15.06
-16.44
-17.80
-19.57
-22.02
-25.14
-28.37
-30.81
-31.45
-29.57
-25.03
-18.40
-10.52
-2.30
5.48
12.45
18.49
23.59
27.63
30.30
31.12
30.25
28.38
26.45
25.57
26.55
29.51
33.82
38.08
40.65
41.11
40.26
39.46
40.38
44.26
50.96
58.98
65.51
67.42
63.75
55.83
46.12
37.94
34.41
37.65
48.32
65.01
84.34
102.99
117.82
125.68
125.09
116.65
102.38
86.95
76.51
67.23
52.05
28.87
-3.44
-42.62
-82.42
-113.67
-127.14
-117.66
-87.01
-42.72
3.79
40.87
61.58
65.42
56.94
42.37
26.15
9.64
-6.74
-22.46
-36.92
-49.19
-58.95
-66.96
-74.71
-83.55
-93.80
-103.62
-109.99
-110.04
-101.81
-85.15
-62.35
-38.28
-19.73
-13.90
-25.76
-56.08
-100.88
-152.03
-199.61
-235.11
-253.81
-255.72
-244.41
-224.62
-200.07
-172.30
-141.03
-105.48
-65.67
-23.00
20.46
62.89
103.40
141.88
178.29
212.21
242.93
270.09
293.98
315.79
336.95
358.27
379.33
398.24
412.02
417.40
411.71
393.81
364.44
326.33
283.51
240.39
200.56
165.66
135.04
106.23
76.36
44.02
10.55
-19.84
-41.59
-50.34
-45.38
-30.53
-13.17
-1.51
-1.89
-17.16
-46.36
-85.11
-126.24
-160.83
-179.92
-177.24
-152.17
-111.24
-66.27
-30.38
-13.28
-18.28
-41.97
-76.24
-111.54
-139.53
-155.00
-156.35
-145.56
-127.84
-110.37
-100.18
-101.88
-116.77
-143.40
-179.82
-223.65
-271.59
-319.22
-361.63
-395.32
-419.87
-438.53
-456.58
-480.00
-510.42
-543.75
-572.02
-587.52
-586.02
-567.21
-533.64
-488.67
-438.91
-388.78
-339.20
-287.93
-231.57
-167.22
-93.75
-13.25
68.00
134.29
170.95
170.71
136.11
76.98
6.38
-62.72
-120.25
-160.20
-188.44
-211.31
-231.06
-245.84
-253.95
-256.32
-255.61
-254.25
-209.51
-105.65
39.45
186.95
306.74
389.85
441.65
472.26
491.31
507.05
517.14
520.00
517.02
511.83
505.86
496.73
480.62
448.71
403.43
348.18
290.06
236.87
194.25
163.19
140.93
122.93
106.96
93.17
77.39
57.18
33.82
12.00
-3.40
-9.91
-8.03
-0.40
12.71
25.58
33.73
36.47
36.74
38.50
44.45
55.48
71.11
90.22
107.40
117.91
120.40
117.51
113.67
112.97
117.85
128.43
142.34
151.11
146.95
127.40
96.39
60.64
25.58
-6.87
-38.26
-72.31
-117.84
-181.35
-262.78
-355.71
-451.64
-543.04
-623.59
-687.51
-699.53
-639.45
-518.48
-373.99
-242.16
-140.37
-68.70
-18.98
17.64
46.43
66.00
73.40
70.34
64.24
63.92
75.42
100.94
140.07
186.76
231.64
266.23
286.33
292.43
287.28
274.02
256.16
237.65
222.24
210.60
201.55
194.19
189.05
187.57
191.09
200.31
214.57
231.26
245.59
252.69
250.25
239.59
224.44
208.71
194.78
182.69
170.37
154.82
133.68
106.61
75.38
42.93
12.02
-15.73
-40.27
-63.06
-86.34
-112.64
-144.40
-183.85
-232.93
-292.54
-361.44
-435.09
-505.83
-564.32
-602.59
-616.83
-608.71
-584.41
-551.78
-517.37
-484.60
-453.85
-424.07
-394.45
-365.21
-337.21
-310.94
-285.85
-260.50
-233.35
-203.78
-172.38
-140.95
-111.63
-86.01
-64.47
-46.16
-29.36
-12.31
6.04
25.63
45.39
63.80
79.67
92.69
103.57
113.72
124.66
137.45
152.53
169.83
189.04
209.56
230.29
249.45
264.70
273.80
275.40
269.61
257.96
242.66
225.72
208.31
190.71
172.80
154.72
137.21
121.45
108.60
99.28
93.28
89.77
87.72
86.45
85.86
86.35
88.16
90.83
92.90
92.36
87.47
77.66
64.01
49.02
35.60
26.11
21.56
21.53
24.68
29.40
34.51
39.41
44.02
48.43
52.56
56.04
58.38
59.14
58.16
55.58
51.60
46.31
39.60
31.28
21.37
10.18
-1.58
-13.03
-23.20
-31.12
-35.90
-36.82
-33.61
-26.56
-16.64
-5.24
6.23
16.75
25.79
33.25
39.19
43.62
46.45
47.62
47.29
45.85
43.82
41.67
39.63
37.70
35.70
33.44
30.77
27.64
24.13
20.38
16.71
13.49
11.09
9.79
9.65
10.51
11.98
13.57
14.75
15.05
14.03
11.39
7.12
1.49
-4.73
-10.48
-14.59
-16.14
-14.70
-10.50
-4.27
2.99
10.30
16.95
22.50
26.77
29.66
31.22
31.55
30.91
29.67
28.25
26.99
26.06
25.41
24.86
24.25
23.53
22.78
22.14
21.70
21.42
21.14
20.72
20.11
19.31
18.41
17.43
16.33
14.99
13.32
11.28
8.90
6.17
3.01
-0.68
-4.88
-9.31
-13.28
-15.88
-16.21
-13.73
-8.47
-1.05
7.56
16.24
24.11
30.62
35.55
38.95
41.04
42.05
42.24
41.83
41.06
40.21
39.60
39.39
39.59
39.93
39.88
38.95
36.85
33.68
29.90
26.02
22.40
19.00
15.58
11.90
7.95
4.04
0.65
-1.91
-3.67
-5.03
-6.56
-8.78
-11.93
-15.82
-20.00
-23.74
-26.23
-26.73
-24.79
-20.33
-13.81
-6.05
2.06
9.68
16.32
21.78
26.02
29.06
30.95
31.76
31.73
31.22
30.62
30.25
30.21
30.38
30.49
30.29
29.61
28.48
27.00
25.29
23.37
21.18
18.57
15.45
11.82
7.82
3.70
-0.37
-4.32
-8.27
-12.51
-17.28
-22.64
-28.32
-33.73
-38.03
-40.44
-40.39
-37.78
-32.98
-26.73
-19.92
-13.41
-7.88
-3.71
-1.02
0.38
0.83
0.76
0.61
0.63
0.91
1.34
1.77
2.04
2.18
2.30
2.56
3.05
3.66
4.17
4.26
3.69
2.35
0.41
-1.81
-3.91
-5.64
-6.99
-8.19
-9.61
-11.65
-14.53
-18.22
-22.45
-26.67
-30.17
-32.17
-32.02
-29.36
-24.29
-17.41
-9.63
-1.98
4.73
10.03
13.81
16.22
17.48
17.80
17.29
16.12
14.45
12.60
10.92
9.74
9.19
9.16
9.32
9.32
8.94
8.20
7.33
6.59
6.11
5.77
5.26
4.26
2.57
0.27
-2.37
-4.96
-7.15
-8.72
-9.71
-10.41
-11.32
-12.96
-15.67
-19.40
-23.67
-27.58
-30.14
-30.53
-28.42
-24.04
-18.12
-11.61
-5.37
-0.05
4.02
6.75
8.25
8.66
8.19
7.05
5.55
4.01
2.74
2.01
1.88
2.28
2.95
3.60
3.95
3.90
3.50
2.93
2.32
1.73
1.11
0.34
-0.68
-1.96
-3.45
-5.06
-6.72
-8.36
-10.01
-11.72
-13.58
-15.69
-18.06
-20.59
-22.93
-24.54
-24.82
-23.27
-19.80
-14.72
-8.74
-2.70
2.64
6.83
9.71
11.39
12.04
11.83
10.91
9.49
7.86
6.33
5.18
4.52
4.37
4.63
5.16
5.81
6.39
6.73
6.65
6.03
4.79
2.97
0.66
-1.99
-4.85
-7.77
-10.62
-13.30
-15.79
-18.15
-20.53
-23.09
-25.90
-28.73
-31.10
-32.28
-31.60
-28.64
-23.55
-16.98
-9.97
-3.55
1.53
5.02
7.09
8.10
8.41
8.19
7.52
6.40
4.96
3.40
2.00
1.02
0.58
0.66
1.12
1.73
2.20
2.26
1.69
0.39
-1.59
-4.05
-6.69
-9.24
-11.51
-13.43
-15.06
-16.52
-17.96
-19.50
-21.28
-23.35
-25.71
-28.15
-30.23
-31.33
-30.82
-28.33
-23.89
-18.03
-11.49
-5.07
0.66
5.37
8.97
11.40
12.58
12.48
11.21
9.14
6.83
4.88
3.72
3.45
3.85
4.48
4.92
4.89
4.39
3.59
2.73
1.94
1.21
0.32
-0.95
-2.77
-5.08
-7.63
-10.03
-11.96
-13.32
-14.23
-15.03
-16.08
-17.62
-19.71
-22.11
-24.41
-26.03
-26.45
-25.26
-22.27
-17.62
-11.75
-5.35
0.83
6.10
10.04
12.57
13.82
14.07
13.55
12.42
10.76
8.75
6.66
4.86
3.69
3.30
3.62
4.33
5.08
5.62
5.88
5.88
5.71
5.36
4.77
3.92
2.86
1.79
0.86
0.11
-0.52
-1.16
-1.77
-2.08
-1.66
-0.15
2.47
5.82
9.22
12.10
14.34
16.42
19.25
23.77
30.48
39.17
48.97
58.66
67.12
73.62
77.92
80.15
80.77
80.51
80.62
82.76
88.47
98.25
110.72
122.44
128.84
126.00
112.23
88.82
59.21
27.41
-3.60
-32.42
-58.73
-82.29
-102.21
-117.15
-126.13
-129.35
-128.25
-124.99
-121.38
-118.34
-115.80
-113.32
-110.74
-108.49
-107.41
-108.10
-110.39
-113.18
-114.70
-113.17
-107.42
-97.18
-82.90
-65.46
-45.86
-25.12
-4.28
15.69
34.00
50.28
64.56
77.11
87.88
96.18
100.55
99.03
89.82
71.76
44.84
10.48
-28.47
-67.90
-103.09
-129.67
-144.65
-147.22
-138.84
-122.82
-103.22
-84.00
-68.15
-57.44
-52.32
-52.03
-54.85
-58.51
-60.72
-59.81
-55.09
-46.95
-36.53
-25.28
-14.51
-5.07
2.69
8.79
13.54
17.28
20.36
23.01
25.40
27.59
29.55
31.22
32.44
33.07
33.06
32.50
31.63
30.72
29.94
29.24
28.34
26.88
24.66
21.81
18.77
16.12
14.29
13.33
12.86
12.24
10.89
8.54
5.35
1.88
-1.12
-2.94
-3.07
-1.38
1.87
6.11
10.59
14.59
17.52
19.13
19.43
18.66
17.13
15.19
13.14
11.15
9.34
7.77
6.51
5.63
5.22
5.30
5.76
6.41
6.97
7.26
7.19
6.90
6.50
6.09
5.60
4.89
3.82
2.26
0.25
-2.14
-4.78
-7.53
-10.27
-12.91
-15.45
-17.81
-19.83
-21.17
-21.36
-19.98
-16.85
-12.19
-6.60
-0.93
4.06
7.91
10.55
12.18
13.07
13.48
13.51
13.26
12.78
12.20
11.66
11.23
10.90
10.59
10.21
9.72
9.18
8.67
8.28
8.02
7.71
7.16
6.18
4.73
2.91
0.97
-0.85
-2.40
-3.64
-4.70
-5.73
-6.94
-8.45
-10.30
-12.33
-14.19
-15.39
-15.45
-14.10
-11.34
-7.51
-3.15
1.24
5.24
8.63
11.28
13.11
14.03
14.04
13.28
12.04
10.70
9.63
9.05
9.00
9.40
10.08
10.88
11.67
12.32
12.71
12.69
12.17
11.09
9.52
7.59
5.50
3.43
1.58
0.07
-1.03
-1.70
-2.06
-2.32
-2.79
-3.76
-5.44
-7.76
-10.33
-12.48
-13.51
-12.89
-10.46
-6.57
-1.87
2.90
7.11
10.41
12.66
13.92
14.26
13.84
12.79
11.36
9.84
8.47
7.43
6.80
6.56
6.68
7.10
7.72
8.36
8.79
8.79
8.20
7.10
5.69
4.24
2.97
1.91
0.98
-0.01
-1.23
-2.80
-4.79
-7.20
-9.98
-12.94
-15.72
-17.78
-18.54
-17.58
-14.84
-10.63
-5.59
-0.45
4.18
7.84
10.38
11.80
12.25
11.96
11.20
10.22
9.22
8.32
7.57
7.01
6.64
6.51
6.60
6.88
7.24
7.54
7.68
7.54
7.10
6.33
5.22
3.77
2.08
0.27
-1.42
-2.82
-3.86
-4.61
-5.34
-6.34
-7.87
-9.93
-12.25
-14.26
-15.28
-14.74
-12.35
-8.30
-3.19
2.16
6.95
10.65
13.04
14.25
14.56
14.30
13.68
12.78
11.62
10.25
8.79
7.48
6.53
6.06
6.01
6.15
6.24
6.11
5.73
5.21
4.68
4.22
3.76
3.17
2.30
1.07
-0.47
-2.16
-3.83
-5.28
-6.48
-7.52
-8.60
-9.98
-11.84
-14.11
-16.53
-18.62
-19.81
-19.66
-17.96
-14.80
-10.56
-5.80
-1.13
2.89
5.90
7.76
8.51
8.37
7.58
6.42
5.13
3.91
2.89
2.13
1.60
1.26
1.09
1.13
1.43
2.00
2.78
3.60
4.22
4.42
4.05
3.12
1.74
0.05
-1.76
-3.54
-5.14
-6.47
-7.53
-8.45
-9.47
-10.79
-12.50
-14.46
-16.32
-17.60
-17.81
-16.61
-13.91
-9.90
-5.03
0.12
4.99
9.11
12.21
14.22
15.24
15.48
15.18
14.58
13.86
13.15
12.54
12.07
11.76
11.59
11.54
11.52
11.44
11.22
10.83
10.31
9.71
9.09
8.44
7.65
6.61
5.23
3.58
1.83
0.19
-1.17
-2.28
-3.36
-4.70
-6.45
-8.48
-10.33
-11.33
-10.90
-8.73
-5.01
-0.29
4.69
9.27
13.04
15.87
17.79
18.89
19.24
18.89
17.95
16.61
15.13
13.72
12.53
11.60
10.84
10.16
9.46
8.65
7.70
6.60
5.36
3.99
2.54
1.02
-0.51
-1.98
-3.31
-4.45
-5.40
-6.23
-7.07
-8.08
-9.40
-11.08
-13.02
-14.96
-16.48
-17.13
-16.55
-14.64
-11.59
-7.84
-3.91
-0.25
2.85
5.29
6.97
7.84
7.89
7.20
6.08
4.95
4.23
4.13
4.59
5.34
6.02
6.43
6.51
6.37
6.10
5.78
5.36
4.76
3.94
2.84
1.49
-0.07
-1.72
-3.35
-4.79
-5.88
-6.62
-7.10
-7.58
-8.35
-9.65
-11.47
-13.57
-15.48
-16.63
-16.53
-14.91
-11.91
-7.96
-3.71
0.25
3.51
5.92
7.56
8.53
8.97
8.91
8.42
7.58
6.63
5.77
5.17
4.85
4.67
4.42
3.88
2.94
1.60
0.01
-1.64
-3.15
-4.39
-5.34
-6.10
-6.83
-7.71
-8.85
-10.26
-11.81
-13.29
-14.45
-15.17
-15.46
-15.52
-15.67
-16.22
-17.24
-18.51
-19.53
-19.67
-18.48
-15.84
-12.05
-7.69
-3.43
0.21
2.92
4.59
5.28
5.13
4.34
3.18
1.96
0.97
0.41
0.36
0.69
1.22
1.78
2.28
2.72
3.17
3.64
4.11
4.46
4.57
4.32
3.66
2.61
1.26
-0.26
-1.80
-3.24
-4.54
-5.73
-6.94
-8.27
-9.76
-11.31
-12.63
-13.32
-13.00
-11.41
-8.59
-4.85
-0.76
3.08
6.19
8.33
9.55
10.03
10.01
9.62
8.89
7.83
6.49
5.01
3.61
2.50
1.86
1.69
1.89
2.29
2.76
3.22
3.62
3.98
4.23
4.31
4.04
3.24
1.83
-0.11
-2.30
-4.42
-6.17
-7.51
-8.64
-9.97
-11.85
-14.29
-16.77
-18.46
-18.56
-16.74
-13.26
-8.96
-4.95
-2.29
-1.57
-2.67
-4.96
-7.57
-9.67
-10.77
-10.83
-10.38
-10.31
-11.39
-13.67
-16.63
-19.34
-20.64
-19.48
-14.95
-6.59
5.16
18.82
32.04
41.77
45.14
40.58
29.35
15.55
4.99
1.62
5.19
12.63
20.43
26.49
30.54
32.84
33.73
32.95
29.73
22.51
12.04
-0.07
-11.84
-21.51
-28.84
-34.53
-40.10
-47.34
-57.49
-70.51
-85.71
-102.64
-116.96
-126.99
-131.95
-131.42
-124.79
-110.77
-87.38
-52.90
-6.85
49.20
110.72
171.33
223.81
261.46
279.71
277.58
258.04
227.74
195.79
171.22
161.18
169.11
193.85
229.41
266.86
297.13
313.89
314.73
300.74
275.20
241.92
204.14
163.71
121.65
79.00
37.39
-1.53
-36.88
-69.23
-99.72
-129.14
-158.98
-191.20
-227.74
-269.15
-314.36
-359.64
-400.04
-428.49
-436.56
-420.56
-382.32
-327.21
-260.71
-188.58
-115.60
-48.76
6.64
50.60
81.35
96.52
95.94
84.32
66.04
44.76
18.47
-13.29
-42.97
-67.58
-88.94
-110.99
-135.18
-165.76
-206.27
-262.39
-331.15
-394.12
-437.55
-456.33
-452.36
-428.15
-392.07
-316.63
-198.42
-95.48
-16.18
59.37
148.92
232.98
311.64
377.99
422.59
433.85
410.48
368.75
322.02
276.39
232.92
193.98
156.80
114.88
59.38
-11.24
-85.84
-156.71
-222.00
-282.26
-334.63
-355.37
-329.72
-264.36
-180.57
-95.03
-18.73
41.99
84.42
110.87
124.45
126.21
117.10
100.99
85.58
75.83
72.58
74.25
79.58
86.77
92.13
92.97
90.12
87.51
88.57
94.67
105.64
120.98
139.33
156.70
168.51
171.26
163.64
146.53
122.49
95.16
68.18
43.90
22.02
1.12
-19.66
-39.04
-53.74
-61.10
-60.49
-53.71
-43.91
-34.47
-27.44
-23.08
-20.43
-18.33
-16.21
-14.06
-12.12
-10.61
-9.58
-8.92
-8.49
-8.11
-7.65
-7.14
-6.54
-5.81
-4.92
-3.88
-2.78
-1.78
-0.97
-0.43
-0.42
-1.32
-3.49
-6.81
-10.23
-12.04
-10.50
-4.93
3.60
12.51
19.18
22.07
21.43
18.94
16.47
14.95
14.00
12.51
9.69
5.86
2.22
0.03
-0.19
0.90
2.07
2.24
0.96
-1.56
-4.55
-7.21
-8.91
-9.36
-8.72
-7.28
-5.48
-3.83
-2.67
-1.88
-1.01
0.26
1.82
2.91
2.79
1.07
-2.28
-6.65
-10.47
-12.03
-10.20
-3.72
6.62
19.17
32.03
43.06
50.84
55.82
59.73
64.89
73.14
85.00
99.78
115.47
128.22
133.98
130.67
118.43
99.73
78.69
60.13
49.02
52.40
73.49
106.15
138.04
158.33
163.10
155.18
138.95
118.28
95.67
70.80
41.52
11.41
-16.22
-38.37
-53.32
-61.17
-63.36
-62.31
-62.06
-65.65
-73.47
-84.50
-96.88
-108.91
-119.54
-128.11
-134.57
-141.47
-150.66
-161.78
-173.44
-184.04
-192.58
-198.96
-203.80
-208.06
-215.49
-227.90
-244.03
-261.67
-279.17
-295.53
-309.88
-320.70
-325.63
-325.54
-320.04
-307.12
-285.75
-257.40
-224.94
-191.82
-160.99
-113.34
-46.98
25.10
86.54
129.13
153.91
167.02
174.68
181.17
188.40
193.44
194.39
192.52
190.34
189.81
192.91
200.32
211.48
225.12
237.69
243.21
240.87
232.22
212.04
180.12
141.10
102.19
68.94
41.64
18.95
0.47
-13.83
-23.98
-29.12
-29.07
-24.35
-15.50
-4.41
7.39
19.03
28.86
34.51
34.44
28.13
16.72
2.94
-9.94
-18.73
-20.92
-16.53
-6.21
8.98
27.42
47.28
66.81
84.61
100.09
113.45
125.18
135.65
144.74
151.25
153.00
147.32
131.96
105.98
70.15
26.86
-20.07
-66.08
-106.82
-139.00
-161.01
-173.00
-176.13
-172.34
-163.96
-153.26
-142.23
-132.34
-124.47
-118.84
-115.17
-112.09
-108.46
-103.93
-98.96
-94.20
-90.04
-86.42
-83.13
-80.06
-75.89
-70.04
-63.12
-56.56
-51.42
-47.71
-44.54
-40.77
-35.66
-26.93
-14.13
0.55
13.26
21.07
23.71
23.68
25.57
34.69
58.84
102.25
162.73
231.76
297.66
349.41
379.49
385.34
351.33
275.82
173.82
70.70
-11.93
-63.02
-80.19
-66.78
-31.08
14.04
56.83
86.24
94.49
79.82
47.49
7.52
-29.92
-57.08
-74.22
-81.34
-80.12
-73.68
-65.59
-58.34
-53.03
-50.25
-50.62
-54.65
-60.09
-64.13
-64.41
-59.58
-49.09
-33.09
-13.01
9.07
30.50
49.78
65.62
76.93
83.04
84.04
80.76
74.36
66.00
56.54
47.20
38.89
31.98
25.99
19.58
10.72
-2.60
-21.67
-46.55
-75.92
-107.61
-138.95
-167.15
-189.45
-203.38
-207.36
-201.30
-187.07
-168.02
-147.91
-129.44
-113.20
-97.60
-79.90
-57.61
-29.70
2.89
37.53
70.71
98.97
119.73
131.76
135.36
132.14
124.55
115.27
106.61
100.03
96.09
94.43
94.11
93.91
92.65
89.53
84.20
76.77
67.55
56.82
44.76
31.59
17.80
4.24
-7.92
-17.60
-24.18
-27.78
-29.25
-29.94
-31.21
-34.10
-39.10
-46.32
-55.56
-66.46
-78.37
-90.29
-100.83
-108.61
-112.76
-113.37
-111.60
-109.14
-107.54
-107.41
-108.27
-108.83
-107.77
-104.25
-98.25
-90.33
-81.28
-71.74
-62.03
-52.22
-42.18
-31.76
-20.90
-9.71
1.54
12.50
22.85
32.44
41.31
49.54
57.18
64.11
70.13
75.05
78.78
81.19
82.00
80.82
77.40
71.98
65.51
59.41
54.92
52.47
51.31
49.89
46.63
40.70
32.40
22.85
13.43
5.09
-1.87
-7.61
-12.40
-16.29
-19.19
-21.10
-22.39
-23.84
-26.36
-30.54
-36.15
-42.11
-46.79
-48.66
-46.96
-42.03
-35.09
-27.66
-20.92
-15.27
-10.38
-5.54
-0.24
5.41
10.56
13.89
14.22
11.20
5.75
-0.07
-3.79
-3.55
0.96
8.24
15.65
20.40
20.72
16.39
8.61
-0.64
-9.22
-15.32
-17.71
-15.82
-9.91
-1.21
8.21
15.90
19.77
18.87
13.78
6.40
-0.81
-5.75
-7.29
-5.46
-1.14
4.44
10.07
14.65
17.33
17.44
14.68
9.39
2.56
-4.34
-9.88
-13.15
-14.17
-13.76
-13.27
-13.99
-16.74
-21.62
-28.12
-35.32
-42.19
-47.86
-51.77
-53.71
-53.86
-52.68
-50.92
-49.47
-49.18
-50.57
-53.64
-57.79
-62.06
-65.44
-67.14
-66.83
-64.46
-60.12
-53.79
-45.33
-34.60
-21.77
-7.38
7.63
22.16
35.39
46.93
56.84
65.41
72.85
79.03
83.52
85.82
85.67
83.23
79.07
73.94
68.55
63.44
58.87
54.98
51.79
49.26
47.28
45.71
44.35
42.98
41.32
39.09
36.01
31.98
27.06
21.63
16.17
11.16
6.81
3.09
-0.22
-3.39
-6.55
-9.73
-12.84
-15.75
-18.31
-20.33
-21.60
-21.92
-21.20
-19.53
-17.11
-14.23
-11.14
-8.09
-5.23
-2.72
-0.63
1.05
2.47
3.89
5.58
7.72
10.36
13.39
16.61
19.88
23.13
26.41
29.85
33.55
37.39
41.07
44.11
46.09
46.75
46.18
44.68
42.62
40.21
37.46
34.20
30.32
25.87
21.16
16.70
12.94
10.18
8.36
7.04
5.62
3.56
0.69
-2.71
-5.89
-7.98
-8.26
-6.43
-2.74
2.14
7.32
11.98
15.53
17.82
19.08
19.99
21.25
23.24
25.85
28.59
30.93
32.52
33.37
33.76
34.15
34.82
35.66
36.33
36.50
36.10
35.30
34.40
33.67
33.58
34.34
35.73
37.22
38.22
38.25
36.99
34.22
29.86
24.86
19.74
14.19
7.39
-1.14
-10.90
-20.65
-28.98
-35.03
-36.54
-32.54
-23.62
-11.37
2.96
19.03
36.92
56.37
76.78
100.60
128.99
160.57
191.65
218.72
240.14
256.09
267.85
276.90
288.40
304.72
323.79
339.86
347.81
345.69
334.55
317.14
269.85
184.15
69.96
-49.14
-152.67
-231.42
-285.11
-317.46
-333.12
-337.16
-330.59
-315.96
-298.20
-284.45
-280.30
-286.26
-299.20
-313.55
-322.73
-317.40
-292.28
-245.38
-188.19
-136.23
-101.45
-87.91
-91.13
-101.37
-106.54
-99.71
-81.28
-57.81
-35.58
-17.58
-3.76
7.52
15.88
20.26
19.06
11.76
-0.32
-13.11
-21.87
-23.92
-19.66
-12.14
-4.58
0.76
3.30
3.35
2.13
0.87
0.18
0.01
-0.32
-1.50
-4.70
-10.19
-17.62
-25.81
-33.27
-38.89
-42.35
-44.29
-45.80
-47.93
-51.13
-55.30
-59.78
-63.63
-65.94
-66.10
-63.95
-59.71
-53.88
-46.94
-39.22
-30.75
-21.22
-10.08
3.12
18.35
34.80
50.86
64.60
74.49
80.21
83.18
86.18
92.42
104.17
121.84
143.83
167.38
189.77
209.41
226.28
241.60
256.83
272.70
288.39
301.23
307.26
302.33
283.60
250.65
205.70
152.66
95.65
37.71
-19.53
-75.33
-128.98
-179.37
-225.23
-265.84
-301.32
-332.17
-358.30
-378.11
-388.57
-386.48
-370.04
-340.14
-300.39
-255.98
-212.03
-172.18
-138.15
-110.00
-86.89
-67.63
-51.11
-36.50
-23.33
-11.62
-1.88
5.12
8.65
8.46
4.80
-1.81
-10.91
-22.40
-36.41
-52.85
-70.84
-88.40
-102.73
-110.94
-111.04
-102.77
-87.66
-68.43
-47.88
-27.93
-9.10
8.96
26.76
44.23
60.77
75.71
88.81
100.57
111.79
123.09
134.19
143.91
150.80
153.87
153.19
149.80
145.27
141.05
138.16
136.61
135.37
132.84
127.49
118.49
106.05
91.23
75.58
61.06
48.73
38.37
28.83
18.90
7.91
-4.19
-16.88
-29.31
-39.33
-45.36
-47.11
-45.29
-40.71
-33.80
-24.83
-14.13
-2.24
11.95
28.71
46.64
63.71
78.59
91.22
102.25
112.36
121.99
133.80
149.26
167.22
185.13
200.17
210.12
213.19
208.11
179.82
124.58
53.35
-15.37
-67.80
-100.82
-118.28
-126.15
-129.63
-132.03
-132.85
-131.71
-131.61
-134.16
-139.64
-146.37
-151.56
-152.77
-148.77
-138.20
-117.64
-92.00
-67.34
-47.81
-34.52
-26.69
-23.19
-23.12
-24.93
-27.45
-30.65
-33.65
-35.06
-33.47
-28.22
-20.87
-12.32
-3.20
5.93
14.25
21.87
29.29
36.96
45.01
53.07
60.77
67.98
74.89
81.62
88.72
96.66
105.44
114.68
123.77
131.75
137.99
142.17
144.01
143.36
139.85
132.71
120.92
103.35
79.06
47.62
9.39
-34.07
-79.91
-124.38
-163.61
-194.42
-214.98
-224.93
-225.15
-217.41
-203.80
-186.55
-167.72
-149.06
-131.67
-115.87
-101.34
-87.41
-73.66
-60.32
-48.25
-38.52
-31.95
-28.82
-28.85
-31.48
-36.02
-41.67
-47.35
-51.58
-52.73
-49.52
-41.66
-30.10
-16.72
-3.73
7.04
14.59
18.89
20.66
20.96
20.76
20.56
20.40
19.95
18.79
16.79
14.34
12.13
10.87
11.01
12.42
14.74
17.57
20.69
24.10
27.79
31.72
35.84
40.23
44.87
49.98
55.57
61.32
66.70
71.33
75.11
78.25
80.91
82.36
81.65
77.60
69.55
58.22
46.16
37.04
34.46
40.29
52.59
66.84
76.37
74.15
54.58
15.14
-42.83
-113.60
-187.09
-251.26
-293.10
-303.47
-280.71
-232.31
-172.64
-118.22
-81.72
-61.18
-52.47
-46.81
-36.28
-18.70
1.71
19.05
29.59
33.25
32.33
28.52
23.69
19.39
18.05
21.25
31.33
48.96
72.32
97.39
118.72
132.49
133.91
124.49
108.35
89.89
72.06
56.63
44.56
36.00
31.03
29.03
29.17
30.05
30.74
30.99
31.03
30.68
28.79
23.76
14.36
1.13
-14.04
-28.21
-38.95
-44.82
-45.73
-42.75
-37.24
-30.25
-22.09
-13.26
-4.65
2.35
6.44
6.97
4.42
0.09
-4.52
-8.10
-10.20
-10.97
-10.55
-8.63
-4.51
2.52
12.26
23.18
32.92
39.19
40.97
39.03
35.58
32.66
32.39
35.68
41.49
47.72
52.31
54.29
53.93
52.07
49.35
45.77
40.74
33.01
21.89
7.82
-7.69
-22.83
-36.50
-48.48
-58.66
-66.42
-71.23
-72.57
-70.73
-67.08
-64.28
-65.57
-73.48
-88.47
-103.94
-112.07
-107.55
-91.23
-68.43
-44.81
-23.90
-7.05
5.84
15.42
21.66
24.48
24.20
22.11
19.96
19.04
19.69
21.42
23.45
24.41
23.16
19.10
12.89
6.51
2.71
4.04
11.57
23.98
37.13
46.34
48.06
42.00
31.43
21.47
16.48
18.01
24.41
31.93
37.02
37.94
35.37
31.25
27.19
23.48
19.25
13.39
5.56
-3.17
-10.71
-14.56
-12.96
-5.84
5.02
16.53
25.44
29.48
28.34
22.94
15.58
9.05
5.60
6.15
10.01
15.21
19.31
20.28
17.15
10.59
2.75
-3.60
-6.18
-4.08
2.00
10.11
18.01
23.83
27.05
28.56
30.05
33.06
38.30
45.33
52.87
59.08
61.72
58.96
50.01
35.21
15.65
-7.10
-31.35
-55.60
-78.62
-100.31
-120.06
-135.74
-144.16
-142.89
-131.87
-113.79
-93.33
-75.42
-65.19
-64.08
-68.20
-70.30
-64.15
-47.28
-20.78
12.67
50.84
89.28
124.59
155.31
180.51
197.21
200.92
188.49
160.26
119.71
66.84
0.98
-76.47
-161.31
-248.11
-330.57
-401.09
-451.81
-450.78
-383.15
-267.22
-144.32
-48.33
9.40
36.18
47.32
57.44
75.07
97.19
116.69
129.42
137.72
144.94
152.30
158.00
158.59
150.94
130.75
97.34
55.76
14.36
-20.37
-44.43
-57.31
-60.84
-57.76
-52.62
-48.72
-46.36
-43.79
-39.59
-33.44
-26.55
-20.62
-16.71
-15.64
-16.62
-17.00
-14.07
-6.84
4.04
16.09
26.18
32.39
34.14
32.91
31.35
31.02
31.42
30.83
26.23
14.92
-3.33
-25.93
-49.08
-65.52
-68.08
-54.18
-26.29
10.64
49.33
81.71
100.79
104.04
94.19
77.72
56.58
36.14
20.14
6.94
-3.94
-15.70
-27.39
-35.39
-39.21
-38.99
-35.64
-30.39
-24.38
-17.47
-9.37
0.44
11.02
20.10
25.32
25.91
23.64
20.96
20.39
23.32
30.52
41.67
56.02
72.69
90.95
111.12
132.17
151.83
166.67
173.96
172.16
162.16
146.22
117.44
75.56
26.27
-21.33
-58.46
-76.47
-73.52
-49.79
-9.57
38.63
83.42
112.92
119.47
102.81
69.99
31.36
-3.44
-29.40
-46.51
-56.32
-60.69
-60.45
-55.41
-45.32
-31.32
-15.84
-2.32
6.13
8.78
6.90
2.87
-1.17
-4.33
-7.57
-12.61
-20.98
-32.89
-46.61
-59.56
-69.58
-75.90
-79.14
-80.80
-82.18
-83.93
-85.97
-87.67
-88.34
-87.70
-85.87
-83.19
-80.06
-76.65
-72.92
-68.61
-63.41
-57.10
-49.74
-41.63
-33.33
-25.36
-18.14
-11.77
-6.11
-0.93
3.94
8.39
12.11
14.70
15.91
15.88
15.18
14.59
14.82
16.15
18.31
20.63
22.25
22.51
21.08
17.96
13.39
7.71
1.25
-5.65
-12.64
-19.44
-25.80
-31.52
-36.32
-39.77
-41.37
-40.69
-37.67
-32.77
-26.87
-20.92
-15.58
-10.98
-6.78
-2.49
2.18
7.13
11.87
15.78
18.34
19.36
19.01
17.75
16.24
15.11
14.80
15.45
16.87
18.55
19.85
20.25
19.71
18.75
18.30
19.28
22.20
26.88
32.24
36.57
38.06
35.58
29.32
20.77
12.23
6.00
3.61
4.71
6.99
6.99
1.68
-10.01
-26.84
-45.73
-62.94
-74.89
-79.51
-76.70
-68.29
-57.31
-47.31
-41.56
-42.53
-51.36
-65.32
-79.61
-89.13
-91.71
-88.65
-82.15
-72.93
-60.86
-46.27
-29.85
-13.03
2.48
14.88
22.45
23.66
18.02
7.97
-4.46
-15.65
-22.34
-23.54
-21.27
-19.43
-21.61
-28.53
-38.35
-47.74
-53.10
-52.39
-45.46
-33.12
-15.87
2.30
18.93
31.42
37.63
37.22
31.97
25.46
21.59
22.94
29.78
41.09
55.13
70.98
89.18
110.68
135.23
160.37
181.72
194.57
196.33
187.12
169.66
148.28
127.29
109.80
97.31
89.88
86.51
86.02
86.90
87.69
87.18
84.61
79.67
72.39
63.13
52.55
41.84
32.41
25.53
21.85
21.02
21.89
23.07
23.62
23.48
23.31
23.90
25.50
27.63
29.28
29.57
28.30
26.04
23.93
23.14
24.34
27.52
31.99
36.55
39.81
40.67
38.67
34.30
28.81
23.67
19.48
16.00
12.36
7.79
2.30
-2.90
-5.71
-4.15
2.63
13.48
26.07
38.04
47.94
55.61
61.85
67.80
74.21
81.10
87.26
91.80
94.80
97.23
100.17
104.19
109.16
114.26
118.37
118.49
113.07
102.77
89.60
75.19
59.99
43.60
25.19
4.08
-24.03
-61.05
-105.20
-152.66
-200.50
-247.37
-292.31
-333.78
-369.54
-403.50
-437.25
-468.46
-493.25
-510.02
-519.95
-524.74
-525.09
-520.49
-518.28
-522.16
-529.62
-534.89
-534.40
-528.27
-518.46
-507.07
-444.77
-317.03
-150.02
12.17
142.23
235.25
296.79
333.95
352.79
358.76
349.19
325.62
295.78
269.43
251.85
242.31
236.89
231.79
226.31
215.24
197.00
174.79
153.75
136.70
123.46
112.75
104.14
98.68
94.73
92.16
92.48
96.95
104.49
112.30
116.73
115.69
109.90
100.99
92.20
86.84
86.19
88.69
90.75
88.93
81.79
67.02
45.99
24.07
6.68
-5.04
-13.61
-22.32
-32.58
-43.12
-51.62
-56.42
-58.46
-60.64
-66.01
-74.79
-84.93
-92.37
-93.59
-88.74
-81.55
-77.96
-83.11
-99.52
-125.30
-155.54
-184.39
-205.00
-213.34
-208.82
-193.98
-168.59
-135.74
-99.31
-62.96
-28.87
6.20
45.97
92.33
144.30
198.70
250.08
292.40
320.42
331.68
331.91
328.49
326.92
329.57
336.66
346.68
357.81
368.73
353.65
302.82
225.78
141.87
64.55
-1.30
-54.16
-92.54
-115.53
-126.84
-126.64
-117.49
-104.78
-94.66
-91.18
-95.81
-107.60
-124.05
-141.81
-153.34
-153.28
-141.22
-121.71
-101.33
-85.69
-77.85
-77.75
-83.23
-88.52
-89.02
-83.01
-71.56
-57.21
-42.50
-30.10
-22.23
-20.80
-24.10
-29.71
-35.07
-39.30
-43.46
-48.32
-55.68
-62.70
-65.87
-61.49
-47.96
-26.56
1.02
30.14
56.59
77.55
92.90
100.42
99.63
93.08
85.03
78.48
73.84
70.31
66.23
60.10
49.57
33.10
10.75
-15.04
-39.75
-58.26
-66.60
-65.86
-57.70
-46.13
-35.05
-27.02
-22.85
-22.02
-23.61
-25.11
-25.64
-24.38
-21.22
-16.14
-9.35
-1.66
5.77
11.69
15.40
16.79
16.74
15.99
15.12
14.13
12.72
10.61
7.59
3.77
-0.61
-5.02
-9.44
-13.92
-19.10
-25.52
-33.09
-41.93
-52.08
-62.94
-72.64
-78.37
-77.28
-67.94
-50.76
-27.68
-3.32
16.78
27.99
28.48
19.67
5.56
-8.90
-18.62
-18.86
-8.50
10.83
36.03
64.02
92.58
120.44
141.58
143.85
119.43
67.14
-4.40
-79.50
-140.75
-174.38
-174.85
-146.55
-104.13
-56.38
-11.86
22.78
43.42
48.11
36.71
10.87
-25.59
-67.73
-104.45
-125.95
-126.69
-107.27
-73.19
-31.62
11.83
54.95
97.74
140.53
179.40
207.29
217.04
205.03
173.65
130.59
86.28
49.01
22.85
6.41
-3.81
-10.18
-12.67
-9.79
-0.84
13.32
29.14
42.28
49.20
49.35
45.21
40.71
39.15
36.59
30.86
22.07
11.86
1.13
-9.48
-19.05
-26.49
-31.16
-33.34
-33.41
-32.46
-31.69
-31.81
-32.09
-30.90
-26.57
-18.36
-7.12
5.20
15.12
19.39
15.47
3.76
-12.43
-28.24
-39.16
-42.70
-38.84
-30.14
-19.78
-11.81
-8.07
-7.89
-9.16
-9.65
-8.18
-4.64
-0.04
4.23
6.91
7.68
6.50
3.29
-1.96
-8.93
-15.92
-20.09
-18.20
-8.44
8.60
29.52
49.30
63.54
70.32
70.45
66.80
62.32
58.35
54.46
49.24
41.73
32.34
22.82
14.83
9.25
5.70
2.68
-1.63
-8.41
-18.05
-30.51
-42.79
-53.85
-63.71
-73.24
-83.59
-95.45
-108.62
-121.93
-133.65
-142.04
-146.39
-146.71
-143.64
-138.19
-131.30
-123.55
-115.08
-105.54
-94.29
-81.04
-65.71
-48.74
-31.10
-14.06
1.20
13.91
23.89
31.45
36.89
40.63
43.07
44.55
45.37
45.66
45.37
44.36
42.72
40.91
40.03
41.54
46.69
55.91
68.38
82.32
95.48
106.04
113.04
116.56
117.22
115.63
111.95
105.99
97.71
87.67
77.06
67.39
59.80
54.57
51.01
47.84
43.89
38.69
32.41
25.55
18.40
10.72
1.94
-8.39
-20.13
-32.39
-43.53
-52.21
-58.21
-62.69
-67.59
-74.50
-83.87
-94.80
-105.68
-114.51
-120.21
-123.11
-124.50
-125.55
-126.44
-126.37
-124.19
-119.17
-110.41
-97.53
-80.76
-60.83
-38.47
-14.21
11.11
35.92
58.01
76.32
90.64
101.50
109.98
117.66
126.45
137.68
151.42
159.48
154.98
136.48
109.40
81.17
56.71
37.73
23.79
13.39
4.84
-2.07
-7.10
-10.33
-12.23
-14.10
-16.73
-20.40
-25.00
-30.26
-34.72
-36.76
-35.37
-30.64
-23.56
-15.37
-7.25
-0.36
4.16
6.02
5.31
2.12
-3.70
-12.36
-23.71
-37.23
-52.23
-67.85
-82.68
-95.05
-103.34
-106.28
-103.26
-94.33
-80.31
-62.78
-43.70
-24.98
-8.23
5.24
14.59
19.42
20.09
17.52
13.00
7.87
3.28
-0.06
-1.98
-2.78
-2.88
-2.30
-0.78
2.02
6.28
11.89
18.42
25.08
30.89
35.12
37.99
40.21
42.44
44.80
47.07
48.80
49.61
49.23
47.79
46.42
46.19
47.37
49.33
51.30
52.85
53.70
53.14
50.35
45.49
39.22
32.59
26.97
24.56
27.54
36.87
51.13
61.88
62.13
50.16
29.94
6.49
-16.81
-38.59
-58.39
-76.52
-91.87
-102.68
-107.33
-105.14
-96.80
-82.91
-64.01
-40.94
-16.11
9.10
34.86
59.92
82.24
94.70
92.17
74.68
53.63
33.79
18.31
8.33
5.73
10.53
20.62
33.63
47.50
60.66
70.85
77.00
78.51
74.85
65.58
51.02
33.37
15.72
0.69
-11.41
-20.94
-28.91
-36.28
-43.66
-51.05
-57.57
-62.43
-65.56
-68.20
-71.19
-74.86
-78.79
-82.14
-83.95
-83.39
-80.14
-74.60
-67.98
-61.32
-55.53
-51.25
-48.82
-48.25
-48.98
-49.93
-49.83
-47.80
-43.44
-37.27
-30.54
-24.69
-20.74
-18.67
-17.75
-17.00
-15.87
-14.08
-11.54
-8.08
-3.58
1.40
5.75
7.98
8.30
8.11
10.65
18.98
33.26
50.24
64.93
73.77
76.39
75.46
74.48
75.36
77.26
77.37
74.26
66.38
54.46
40.49
26.46
13.33
1.17
-10.04
-19.78
-26.85
-30.24
-29.54
-25.65
-20.58
-15.82
-13.12
-13.03
-14.83
-16.95
-18.12
-17.72
-16.14
-14.54
-14.16
-15.86
-19.44
-23.73
-26.93
-27.45
-24.45
-18.47
-11.33
-5.48
-3.03
-4.60
-9.00
-13.88
-16.82
-16.38
-12.66
-7.02
-1.26
3.16
5.78
7.07
7.99
9.42
11.78
14.90
18.17
20.76
21.91
21.38
19.71
18.06
17.56
18.69
21.19
24.42
27.76
30.94
34.07
37.31
40.34
41.76
39.54
32.40
21.00
7.79
-4.18
-12.85
-17.90
-20.62
-23.54
-28.93
-37.58
-48.12
-58.55
-67.52
-74.90
-80.51
-83.09
-80.70
-71.47
-54.80
-31.62
-5.62
17.69
30.86
28.12
11.05
-11.26
-28.57
-35.65
-31.95
-21.71
-9.67
0.78
9.25
18.22
28.87
42.07
57.76
76.52
97.42
118.11
135.68
148.04
153.96
152.46
143.19
119.04
82.63
43.79
12.20
-9.02
-22.43
-31.99
-39.99
-46.55
-51.01
-52.31
-52.11
-53.75
-59.72
-69.25
-78.94
-84.19
-82.43
-74.63
-63.69
-54.29
-49.82
-50.69
-54.03
-55.59
-51.91
-42.71
-30.85
-19.92
-12.96
-10.84
-11.72
-12.10
-8.77
-0.05
12.99
27.38
40.39
50.11
56.89
61.97
66.06
64.96
56.01
40.21
22.37
10.60
6.34
9.18
17.74
28.84
39.76
49.39
58.09
67.11
77.69
89.70
102.53
114.69
124.15
129.27
129.70
125.81
118.08
106.66
90.71
70.37
46.91
22.40
-0.83
-20.83
-36.79
-49.16
-59.15
-69.25
-80.55
-92.32
-102.53
-109.10
-110.60
-106.64
-97.61
-84.53
-70.51
-57.98
-47.67
-38.86
-30.89
-23.85
-18.65
-16.50
-18.51
-27.60
-45.25
-70.15
-98.79
-127.60
-154.00
-176.53
-194.17
-192.33
-164.12
-116.23
-64.43
-21.44
8.06
25.41
34.37
39.03
42.46
43.94
42.10
37.06
30.75
24.58
20.47
19.17
20.66
24.39
27.76
28.75
27.21
24.66
22.71
22.18
22.81
23.78
24.08
22.08
16.83
9.06
0.83
-5.67
-8.94
-8.52
-4.69
1.72
9.06
15.72
20.70
23.66
24.61
23.76
21.45
18.17
14.45
10.64
7.15
4.57
3.46
4.07
6.17
9.13
12.17
14.58
15.96
16.33
15.81
14.41
11.77
7.34
1.01
-6.68
-14.55
-21.12
-25.21
-26.37
-25.07
-22.43
-19.70
-17.40
-15.76
-15.03
-15.58
-17.49
-20.19
-22.50
-23.15
-21.29
-16.18
-8.17
0.96
8.89
14.03
16.28
16.68
16.49
16.62
18.53
22.66
27.76
31.55
32.29
29.72
24.59
18.09
11.69
9.00
13.64
27.70
50.84
80.87
114.14
145.89
171.27
176.19
153.70
110.23
61.43
19.71
-11.50
-34.30
-51.36
-63.44
-69.34
-66.95
-57.09
-44.78
-36.50
-36.67
-44.64
-55.36
-62.14
-59.48
-44.81
-20.31
7.79
32.21
47.96
54.19
53.15
44.53
29.95
11.91
-7.01
-24.46
-38.33
-46.69
-48.25
-43.15
-33.29
-21.06
-8.77
1.73
9.05
12.16
10.59
4.67
-4.41
-14.76
-23.78
-29.34
-30.49
-27.77
-22.81
-17.61
-13.61
-11.40
-10.76
-10.81
-10.87
-10.56
-9.76
-8.23
-5.66
-1.82
3.11
8.26
12.40
14.22
13.04
9.30
4.54
0.54
-1.59
-1.95
-1.78
-2.63
-5.66
-11.07
-18.09
-25.11
-30.53
-33.13
-32.34
-28.25
-21.78
-14.70
-9.32
-7.69
-10.17
-15.59
-21.61
-25.50
-25.14
-19.81
-10.64
-0.20
8.52
13.89
15.18
12.31
5.88
-2.53
-10.31
-14.38
-12.14
-2.51
14.54
36.72
59.95
80.10
94.70
103.64
108.42
110.94
106.13
91.83
70.70
48.61
30.03
15.63
3.31
-9.68
-24.92
-41.85
-57.16
-67.41
-71.66
-70.91
-67.35
-63.42
-60.93
-60.40
-61.25
-61.55
-59.77
-55.58
-49.58
-42.67
-35.16
-27.59
-20.54
-14.69
-10.12
-6.68
-3.95
-1.10
3.00
9.35
18.17
28.73
39.42
48.65
55.09
58.03
57.46
53.94
48.30
41.37
33.91
26.60
20.07
14.74
10.61
7.35
4.41
1.39
-1.83
-4.99
-7.81
-10.30
-12.97
-16.68
-22.09
-29.20
-37.13
-44.33
-49.20
-50.73
-49.08
-45.48
-41.71
-39.24
-38.61
-39.21
-39.63
-38.38
-34.57
-28.27
-20.44
-12.35
-4.97
1.40
7.13
12.77
18.46
23.62
27.14
27.94
25.64
20.90
15.23
10.32
7.33
6.45
7.01
8.07
8.99
9.76
10.91
13.03
16.30
20.29
24.03
26.43
26.65
24.48
20.44
15.53
10.81
6.99
3.98
1.06
-2.79
-8.20
-14.94
-21.89
-27.47
-30.33
-29.94
-26.69
-21.69
-16.09
-10.77
-6.04
-1.90
1.74
4.86
7.25
8.73
9.25
9.04
8.54
8.20
8.28
8.68
8.98
8.60
7.18
4.79
1.94
-0.69
-2.58
-3.65
-4.17
-4.59
-5.17
-5.85
-6.37
-6.51
-6.35
-6.24
-6.69
-8.03
-10.31
-13.28
-16.53
-19.59
-22.01
-23.33
-23.10
-21.06
-17.20
-11.96
-6.17
-0.75
3.56
6.48
8.23
9.39
10.52
11.93
13.60
15.18
16.26
16.56
16.02
14.83
13.35
12.00
11.10
10.80
11.00
11.36
11.46
10.85
9.31
6.91
3.95
0.94
-1.69
-3.67
-5.04
-6.05
-7.05
-8.34
-10.02
-11.95
-13.79
-15.12
-15.54
-14.80
-12.79
-9.61
-5.51
-0.90
3.78
8.02
11.43
13.70
14.69
14.45
13.25
11.49
9.73
8.51
8.17
8.73
9.77
10.44
9.80
7.19
2.59
-3.34
-9.46
-14.67
-18.39
-20.63
-21.89
-22.69
-23.32
-23.75
-23.88
-23.74
-23.58
-23.83
-24.91
-27.03
-30.04
-33.51
-36.98
-40.01
-42.33
-43.70
-43.96
-42.93
-40.37
-35.91
-29.15
-19.82
-7.92
6.15
21.91
38.61
55.39
71.34
85.73
97.95
107.58
114.37
118.45
120.72
121.90
122.17
121.18
118.39
113.40
106.06
96.49
85.00
73.12
61.91
51.58
41.88
32.84
24.98
18.97
15.18
13.48
15.17
20.62
29.16
39.66
51.64
65.24
80.61
97.33
114.26
132.09
150.05
165.61
175.31
176.93
170.22
156.95
140.10
108.40
59.83
1.32
-55.65
-103.11
-138.69
-163.54
-179.49
-188.26
-191.40
-188.30
-179.47
-167.09
-153.87
-140.91
-127.86
-113.09
-95.47
-75.14
-52.12
-28.29
-6.92
6.90
12.55
12.44
9.57
5.08
-2.11
-13.11
-28.48
-47.35
-66.79
-82.33
-90.53
-90.51
-84.29
-75.27
-66.84
-59.68
-53.59
-47.77
-41.08
-33.18
-24.61
-16.45
-9.50
-3.98
0.22
2.94
3.92
3.19
0.90
-2.21
-4.77
-4.61
0.20
10.52
25.57
43.35
61.67
77.31
87.68
88.86
79.45
61.29
38.86
17.06
-0.43
-11.85
-17.31
-18.08
-16.02
-12.51
-8.43
-4.22
-0.13
3.60
6.82
9.36
11.26
12.78
14.52
16.92
20.07
23.62
27.04
29.90
31.80
32.72
32.82
32.54
32.26
31.82
31.35
30.84
30.39
29.86
29.36
29.10
29.37
30.41
32.30
35.11
38.83
43.61
48.95
54.51
60.01
65.21
69.93
74.08
77.79
81.27
84.97
88.39
91.16
92.80
92.72
90.23
84.57
74.74
58.81
40.55
20.94
0.59
-20.24
-41.48
-63.36
-86.27
-110.67
-136.73
-163.66
-190.40
-214.56
-233.35
-244.56
-247.46
-243.01
-233.41
-221.32
-208.57
-196.45
-184.97
-173.76
-162.56
-151.37
-140.24
-129.03
-117.91
-106.96
-96.71
-87.60
-80.19
-74.66
-70.36
-65.69
-58.65
-48.41
-34.62
-17.34
3.09
25.49
47.92
68.21
84.52
95.69
99.94
96.89
88.06
76.18
63.62
51.79
41.38
32.82
26.22
19.38
10.19
-2.12
-17.09
-34.03
-51.99
-69.33
-83.80
-81.74
-57.79
-19.41
18.96
47.43
64.08
71.87
75.01
76.76
78.55
78.43
74.59
67.27
58.54
50.44
44.00
39.40
36.59
35.54
34.78
33.29
31.17
29.25
28.19
28.08
28.86
31.09
35.26
40.81
47.19
54.42
62.92
72.43
81.33
86.51
84.89
74.67
56.18
32.49
8.59
-10.78
-23.26
-29.54
-32.48
-34.13
-34.19
-30.17
-19.02
0.64
27.17
56.18
82.35
98.97
101.96
91.03
69.18
40.95
10.63
-18.73
-44.94
-64.16
-73.95
-74.40
-67.50
-55.70
-41.45
-27.13
-14.85
-6.02
-0.99
0.51
-0.27
-1.47
-1.52
0.24
3.37
6.81
9.50
10.82
10.51
9.01
7.28
6.19
6.10
6.64
7.00
6.36
4.08
-0.29
-6.93
-15.14
-23.68
-31.03
-35.76
-36.91
-34.34
-28.76
-21.64
-14.62
-8.85
-4.68
-1.72
0.64
2.98
5.43
7.86
9.80
10.69
10.24
8.62
6.51
4.57
3.31
2.76
2.75
2.68
1.57
-1.41
-6.52
-12.73
-18.96
-24.34
-28.50
-31.27
-33.04
-34.87
-37.70
-41.70
-46.09
-49.66
-51.12
-49.32
-42.62
-29.99
-11.85
9.93
32.65
53.42
69.88
81.01
83.11
76.00
64.31
53.43
45.09
37.67
29.17
19.29
9.53
2.00
-1.48
-0.99
1.18
2.22
0.46
-3.97
-9.53
-14.34
-16.91
-15.89
-10.59
-1.40
10.07
20.95
27.53
26.26
15.29
-4.07
-26.97
-46.87
-58.48
-59.78
-51.41
-38.10
-24.73
-14.18
-6.68
-1.02
3.88
8.14
11.55
14.53
18.21
23.93
31.80
40.47
47.47
50.56
48.83
43.01
34.96
26.49
19.18
13.23
8.54
4.68
1.02
-3.34
-9.30
-17.27
-26.78
-36.14
-43.10
-45.94
-44.51
-40.17
-35.11
-31.13
-28.79
-27.55
-26.21
-23.87
-20.40
-16.49
-13.01
-10.61
-9.40
-9.02
-8.96
-8.77
-8.20
-7.39
-6.75
-6.63
-7.10
-7.84
-8.13
-7.08
-4.45
-0.27
4.85
9.79
13.46
15.16
14.77
12.71
9.58
5.79
1.45
-3.64
-9.61
-15.83
-21.32
-25.12
-26.68
-26.05
-23.91
-21.37
-19.42
-18.57
-17.95
-16.59
-14.16
-11.00
-7.67
-4.76
-2.59
-1.28
-0.88
-0.25
1.59
4.91
9.66
16.03
24.21
34.07
45.27
56.81
69.21
82.89
97.25
111.14
123.24
132.02
136.26
135.82
121.85
93.13
56.88
23.19
-1.64
-16.72
-24.20
-26.03
-22.77
-14.58
-2.70
9.38
16.04
12.69
-2.31
-27.41
-60.17
-92.04
-116.50
-131.38
-139.22
-143.25
-144.19
-136.73
-116.18
-81.51
-37.09
7.56
43.43
65.39
65.58
43.81
8.17
-30.16
-61.52
-81.45
-93.35
-99.91
-101.59
-97.26
-84.10
-62.12
-35.43
-8.55
13.30
24.48
21.47
4.81
-20.06
-43.52
-55.95
-51.03
-23.75
26.35
94.37
172.00
250.29
321.62
380.66
423.25
426.81
380.49
294.18
193.64
102.62
32.01
-18.15
-52.27
-75.41
-91.38
-99.49
-99.30
-92.77
-84.52
-79.30
-80.43
-88.40
-102.49
-120.90
-138.40
-149.73
-151.46
-143.34
-127.44
-106.94
-85.21
-65.62
-50.41
-38.02
-28.11
-19.54
-11.41
-3.47
3.83
10.42
15.62
18.98
21.01
22.01
22.07
20.75
17.70
12.47
6.52
1.58
-1.08
-0.81
2.05
6.91
13.04
19.87
27.11
34.67
42.15
49.06
55.20
60.76
66.40
72.54
78.92
84.40
87.60
87.19
82.61
74.43
64.10
53.60
44.67
38.32
34.59
32.73
31.53
29.88
27.11
23.00
17.76
11.82
5.66
-0.28
-5.67
-10.26
-13.72
-15.85
-16.77
-16.99
-17.29
-18.33
-20.40
-23.51
-27.07
-29.97
-30.99
-29.43
-25.32
-19.28
-12.18
-4.90
0.95
4.18
4.64
2.94
-0.11
-3.97
-8.14
-12.07
-15.18
-18.94
-24.46
-31.45
-38.43
-44.14
-48.21
-50.83
-52.34
-53.02
-56.08
-63.81
-75.62
-88.77
-100.78
-110.71
-118.76
-125.60
-131.97
-142.49
-160.53
-185.58
-214.30
-243.60
-271.98
-298.88
-323.77
-321.04
-277.06
-199.64
-111.84
-33.77
26.05
67.41
93.56
108.56
116.53
117.54
112.69
106.23
104.76
112.46
129.35
152.00
175.49
195.24
205.39
198.37
176.67
148.15
120.32
97.36
80.22
68.12
59.88
52.70
44.63
36.37
29.37
24.37
21.16
19.03
17.37
15.87
13.54
9.86
5.76
2.34
0.20
-0.50
0.19
2.25
5.53
9.15
11.88
12.79
11.39
7.49
1.91
-3.77
-7.89
-9.52
-8.88
-7.11
-5.39
-4.52
-4.56
-4.79
-4.50
-3.50
-2.26
-1.59
-2.12
-4.05
-7.14
-10.86
-14.14
-16.14
-16.44
-15.21
-13.00
-10.60
-8.85
-8.30
-9.00
-9.93
-10.20
-9.62
-8.76
-8.88
-11.15
-16.67
-26.12
-39.36
-54.07
-67.30
-76.30
-78.90
-73.67
-60.03
-38.42
-10.02
23.53
61.50
101.86
140.75
173.36
195.56
205.50
203.82
193.27
169.43
133.62
92.37
53.74
22.85
0.80
-13.41
-21.40
-24.69
-24.76
-21.79
-16.53
-10.47
-5.13
-1.41
0.71
1.42
1.13
0.13
-0.57
-0.76
-1.42
-3.35
-6.93
-11.84
-17.83
-24.26
-30.53
-35.74
-39.72
-43.13
-46.70
-51.23
-57.21
-65.18
-74.31
-82.88
-88.72
-90.58
-89.07
-85.72
-83.83
-82.93
-85.13
-91.49
-101.72
-114.59
-128.77
-143.24
-155.45
-162.95
-163.69
-156.86
-141.90
-118.99
-89.24
-54.16
-15.14
28.37
75.64
123.53
166.54
200.00
221.88
233.42
238.32
229.75
206.38
172.88
136.39
101.02
68.49
39.96
16.59
-1.01
-13.45
-20.54
-23.13
-22.97
-22.57
-23.48
-25.89
-29.11
-32.13
-33.97
-32.81
-28.02
-20.43
-12.30
-5.47
-0.33
3.54
7.12
11.49
18.39
29.08
44.17
62.44
81.31
96.83
104.18
99.06
79.78
48.93
10.70
-24.68
-49.37
-60.59
-60.54
-54.19
-46.29
-39.39
-33.59
-27.96
-21.77
-16.05
-12.29
-11.32
-12.68
-14.96
-16.48
-16.13
-13.85
-10.17
-6.55
-4.19
-3.47
-3.96
-4.83
-5.31
-5.04
-4.16
-2.87
-1.63
-0.65
0.19
1.13
2.20
3.11
3.40
2.68
1.10
-0.96
-2.77
-3.89
-4.32
-4.75
-6.28
-9.80
-15.62
-23.36
-32.29
-41.55
-50.14
-56.61
-59.10
-55.96
-46.79
-33.51
-20.16
-11.27
-9.39
-13.28
-18.15
-18.12
-9.45
7.32
27.57
45.27
56.07
59.15
56.68
51.70
46.15
40.29
33.82
27.06
21.97
21.34
27.10
39.12
54.87
70.64
83.09
90.56
92.99
91.48
87.28
81.23
73.73
65.20
56.47
48.59
42.48
38.22
35.43
33.34
31.05
27.59
21.83
12.59
-1.40
-18.98
-38.17
-55.67
-67.83
-72.40
-69.71
-62.70
-55.79
-53.09
-56.74
-66.73
-80.25
-93.12
-101.68
-104.02
-100.23
-92.13
-82.68
-75.10
-72.64
-76.46
-85.44
-96.96
-107.78
-114.92
-116.47
-112.28
-103.83
-94.02
-84.36
-74.50
-63.05
-48.56
-30.27
-8.52
15.22
42.10
67.08
83.98
91.11
91.42
88.49
84.03
77.95
69.59
58.93
46.59
34.97
26.92
23.80
24.73
27.22
28.52
26.63
21.13
12.86
4.41
-1.26
-2.45
0.77
7.08
14.76
22.21
27.72
29.70
27.42
21.33
12.96
4.73
-0.91
-2.67
-1.54
-0.53
-3.14
-11.37
-24.51
-39.53
-52.62
-61.29
-65.69
-68.86
-74.81
-85.97
-101.82
-119.03
-132.95
-139.49
-136.58
-123.17
-100.89
-73.08
-43.17
-14.90
7.93
22.18
26.67
22.84
14.51
6.32
2.41
6.49
19.36
38.72
60.40
80.35
95.99
106.23
110.98
111.15
110.62
112.83
118.89
127.63
137.09
145.88
153.55
160.20
166.38
175.48
189.47
207.37
225.99
242.26
254.39
261.42
262.19
237.37
179.22
97.24
13.23
-53.88
-96.50
-117.10
-123.55
-124.86
-127.65
-131.63
-133.88
-132.22
-126.96
-120.03
-113.71
-109.79
-109.29
-112.01
-114.43
-113.20
-106.96
-96.54
-83.49
-69.41
-55.02
-41.17
-29.03
-18.48
-9.74
-3.82
-2.14
-5.37
-12.77
-22.28
-31.12
-36.74
-36.81
-30.83
-20.49
-9.02
0.39
5.87
6.80
5.13
3.77
5.03
9.32
15.21
20.52
23.59
23.97
22.22
19.48
16.70
14.58
13.53
13.67
14.61
15.34
14.43
10.55
3.20
-7.24
-19.52
-31.86
-42.53
-50.03
-53.37
-52.24
-47.22
-39.68
-31.60
-25.02
-20.76
-18.62
-17.49
-15.88
-12.79
-8.22
-3.07
1.28
3.68
3.69
1.62
-1.49
-4.30
-5.59
-4.68
-1.51
3.38
9.37
15.84
22.34
28.55
34.10
38.48
41.20
42.10
41.54
40.51
39.86
39.88
39.99
38.95
35.55
29.20
20.48
9.88
-0.70
-9.31
-14.66
-16.58
-16.15
-15.19
-15.66
-18.99
-25.60
-34.59
-44.39
-53.11
-59.41
-63.07
-64.69
-65.23
-65.34
-65.21
-64.43
-62.50
-58.53
-52.04
-43.18
-32.62
-21.19
-9.65
1.43
11.89
21.97
32.77
44.77
57.19
68.28
76.48
81.32
83.65
85.11
87.35
92.04
99.24
107.30
113.86
117.10
116.25
111.11
101.58
82.14
52.03
16.45
-16.45
-40.82
-55.25
-61.34
-61.81
-59.16
-55.17
-49.92
-43.50
-36.77
-31.05
-27.30
-25.55
-25.13
-25.03
-24.42
-22.23
-18.34
-13.69
-9.72
-7.38
-6.69
-6.99
-7.36
-7.12
-5.75
-3.58
-1.72
-1.48
-3.60
-7.85
-13.59
-19.56
-24.80
-28.77
-31.70
-34.48
-38.19
-43.64
-51.15
-60.31
-69.66
-76.81
-79.07
-74.72
-63.93
-48.93
-33.25
-20.27
-11.99
-8.02
-6.02
-3.12
2.50
10.82
20.25
28.52
33.59
34.18
30.39
23.69
16.36
10.74
8.82
12.01
20.82
34.99
51.31
64.59
70.53
68.46
60.72
50.37
39.58
29.31
19.75
10.84
3.04
-2.73
-5.65
-5.80
-4.15
-2.15
-1.02
-1.48
-3.56
-6.53
-9.17
-10.47
-10.13
-8.55
-6.46
-4.33
-2.32
-0.48
1.08
2.04
1.93
0.37
-2.17
-4.98
-6.90
-7.16
-5.74
-3.51
-1.54
-0.52
-0.34
-0.21
0.82
3.17
6.38
9.40
11.01
10.73
8.77
5.91
3.13
1.13
-0.02
-0.84
-1.81
-3.22
-4.43
-4.90
-4.49
-3.88
-4.54
-8.38
-17.42
-30.92
-45.88
-58.08
-65.65
-69.41
-71.24
-71.91
-69.52
-59.92
-39.26
-7.21
32.82
74.35
109.65
133.32
144.13
144.51
138.52
129.12
111.94
88.29
59.95
29.74
1.48
-20.97
-37.79
-50.73
-62.11
-73.25
-82.06
-85.10
-79.07
-62.67
-37.57
-7.72
22.79
49.42
67.49
74.82
72.19
62.82
49.84
34.98
20.16
4.92
-10.48
-25.17
-37.79
-48.15
-56.17
-62.36
-67.34
-71.43
-74.95
-78.29
-82.03
-86.37
-91.28
-96.48
-101.68
-106.62
-110.95
-114.37
-116.19
-115.41
-110.89
-101.97
-88.91
-73.04
-56.10
-39.57
-24.35
-10.55
2.09
13.76
24.29
32.99
38.90
41.22
39.85
35.37
29.13
22.77
17.75
15.08
15.13
17.78
22.82
30.07
39.38
50.35
61.96
72.44
79.63
81.55
77.23
67.11
53.22
38.67
26.82
20.38
20.65
27.15
37.91
50.09
60.85
68.13
71.05
69.97
66.13
61.06
56.20
52.42
49.93
48.28
46.53
43.44
37.78
28.67
15.80
-0.38
-18.75
-37.59
-54.88
-68.66
-77.40
-80.23
-77.18
-69.08
-57.36
-43.63
-29.38
-15.74
-3.35
7.44
16.50
23.75
29.11
32.59
34.27
34.34
32.96
30.19
25.93
20.00
12.42
3.64
-5.35
-13.10
-18.18
-19.68
-17.50
-12.39
-5.62
1.53
8.14
13.69
17.85
20.11
19.76
16.07
8.93
-0.72
-10.90
-19.08
-23.20
-22.52
-17.84
-11.08
-4.22
1.54
6.22
10.70
15.96
22.38
29.50
36.30
41.66
44.90
45.95
45.16
43.06
40.03
36.21
31.46
25.46
17.87
8.50
-2.38
-13.97
-24.97
-33.89
-39.56
-41.44
-39.81
-35.49
-29.49
-22.64
-15.46
-8.18
-0.97
5.88
11.87
16.42
19.03
19.56
18.21
15.43
11.53
6.47
-0.17
-8.89
-19.71
-31.83
-43.63
-53.25
-59.18
-60.86
-58.61
-53.20
-45.35
-35.42
-23.52
-10.00
4.17
17.37
27.67
33.50
34.11
30.00
22.81
14.99
9.09
7.06
9.68
16.33
25.32
34.52
42.12
47.17
49.66
50.13
49.25
47.33
44.25
39.66
33.35
25.47
16.59
7.44
-1.46
-9.94
-18.23
-26.68
-35.35
-43.76
-50.92
-55.73
-57.41
-55.88
-51.69
-45.73
-38.79
-31.28
-23.25
-14.64
-5.54
3.64
12.22
19.48
24.86
28.10
29.21
28.42
26.05
22.40
17.72
12.20
6.02
-0.58
-7.31
-13.76
-19.55
-24.35
-27.87
-29.83
-29.76
-27.03
-21.09
-11.91
-0.44
11.19
20.05
23.34
19.35
8.27
-7.72
-25.01
-39.62
-48.32
-49.36
-42.78
-30.19
-14.23
2.12
16.28
26.62
32.58
34.62
33.80
31.30
28.09
24.83
21.85
19.28
17.06
15.01
12.89
10.50
7.86
5.17
2.85
1.39
1.07
1.87
3.34
4.75
5.29
4.42
2.10
-1.19
-4.63
-7.29
-8.50
-7.96
-5.87
-2.76
0.54
3.13
4.16
2.98
-0.58
-6.09
-12.50
-18.42
-22.60
-24.34
-23.80
-21.89
-19.86
-18.78
-19.00
-20.07
-20.92
-20.26
-16.99
-10.53
-1.05
10.44
22.07
31.49
36.51
35.97
30.39
22.04
14.11
9.51
9.64
13.92
20.36
26.57
30.85
32.64
32.37
30.83
28.76
26.70
25.08
24.30
24.57
25.53
26.04
24.37
18.77
8.33
-6.53
-23.96
-41.14
-54.94
-62.59
-62.34
-53.96
-39.04
-20.88
-3.75
8.37
13.15
10.86
4.29
-2.35
-5.07
-1.64
7.68
20.50
33.37
43.24
48.51
49.37
47.40
44.74
43.30
44.04
46.96
51.39
56.46
61.56
66.33
70.42
73.49
75.28
75.81
75.43
74.70
73.94
73.05
71.45
68.16
62.57
54.85
45.85
36.63
27.96
20.00
12.61
5.69
-1.20
-7.99
-13.91
-17.88
-19.25
-17.90
-14.71
-10.67
-6.53
-4.02
-4.30
-7.30
-12.05
-17.74
-23.71
-30.42
-38.10
-46.53
-57.24
-71.22
-87.76
-104.94
-121.06
-134.78
-146.62
-156.99
-165.75
-175.10
-186.60
-199.61
-211.95
-221.86
-228.18
-232.41
-236.00
-222.94
-185.47
-129.46
-70.12
-19.64
12.32
32.96
47.97
60.69
72.59
83.47
91.48
96.41
99.77
102.98
107.14
110.74
112.35
111.13
104.93
92.70
76.22
59.48
46.71
41.31
43.66
52.73
66.31
79.94
89.03
91.04
86.01
75.78
63.01
49.83
38.40
30.26
25.05
21.26
17.46
12.75
6.65
-1.75
-13.27
-27.48
-42.85
-57.55
-69.65
-77.33
-79.34
-75.60
-68.36
-60.43
-53.48
-47.78
-42.88
-38.37
-34.09
-30.37
-20.94
-3.98
17.22
37.85
56.26
74.14
93.78
115.87
138.92
159.87
175.85
184.92
187.38
185.15
180.31
173.90
165.84
155.11
141.75
125.84
108.19
90.58
75.00
62.64
53.68
47.68
44.08
42.42
41.72
40.96
39.52
37.26
34.20
30.45
26.23
21.91
17.93
14.42
11.55
9.73
9.56
11.39
15.16
20.33
26.19
32.09
37.55
42.52
47.24
52.05
56.97
61.59
65.12
66.65
65.50
61.35
54.40
45.25
34.77
23.70
12.46
1.03
-10.97
-23.96
-38.15
-53.32
-68.94
-84.28
-98.64
-111.48
-122.38
-131.03
-137.19
-140.83
-142.16
-141.74
-140.37
-138.88
-137.99
-138.06
-139.06
-140.56
-141.83
-142.02
-140.41
-136.56
-130.51
-122.68
-113.76
-104.41
-95.10
-86.04
-77.23
-68.57
-59.94
-51.31
-42.69
-34.19
-26.07
-18.68
-12.42
-7.52
-3.96
-1.45
0.39
1.87
3.14
4.15
4.89
5.40
5.87
6.39
6.94
7.29
7.21
6.55
5.30
3.60
1.57
-0.75
-3.40
-6.45
-9.94
-13.80
-17.90
-21.93
-25.41
-27.70
-28.18
-26.52
-22.99
-18.43
-13.93
-10.52
-8.66
-8.17
-8.46
-8.86
-8.90
-8.42
-7.47
-6.22
-4.83
-3.37
-1.85
-0.25
1.42
3.04
4.26
4.48
3.08
-0.40
-5.87
-12.65
-19.71
-26.02
-30.92
-34.20
-35.95
-36.30
-35.33
-33.08
-29.79
-25.91
-22.05
-18.69
-16.01
-13.85
-11.97
-10.21
-8.70
-7.72
-7.51
-8.04
-8.98
-9.86
-10.22
-10.20
-10.10
-10.21
-10.78
-11.95
-13.60
-15.33
-16.60
-17.00
-16.70
-16.10
-15.48
-14.97
-14.58
-14.20
-13.69
-13.02
-12.29
-12.34
-13.54
-15.53
-17.59
-19.38
-20.98
-22.77
-25.23
-28.81
-35.62
-46.21
-58.92
-71.25
-81.58
-89.70
-96.47
-103.46
-112.29
-128.02
-152.24
-181.97
-212.44
-240.39
-264.65
-285.03
-301.65
-314.57
-330.14
-350.80
-373.17
-391.54
-402.18
-403.50
-394.68
-375.26
-345.59
-315.34
-290.05
-268.14
-245.04
-218.86
-190.68
-162.55
-136.24
-62.77
64.78
211.14
333.30
414.20
458.91
478.94
484.23
481.20
473.43
454.79
423.75
386.21
350.69
321.95
300.48
284.70
272.66
262.74
247.70
224.95
198.19
173.37
153.72
139.33
128.83
120.79
114.11
104.31
89.88
73.21
58.13
46.79
39.32
35.09
33.29
33.48
33.23
31.43
28.72
26.39
25.00
24.35
24.14
24.19
24.54
24.55
23.93
22.91
21.95
21.39
21.44
22.30
24.14
26.92
30.45
34.43
38.83
43.89
49.75
55.88
60.73
62.08
57.98
47.79
32.42
14.03
-5.07
-23.25
-39.75
-54.17
-65.85
-73.96
-76.99
-74.48
-67.67
-59.31
-52.31
-48.18
-46.29
-44.38
-40.07
-32.05
-20.86
-8.22
3.94
14.26
22.11
27.19
29.23
27.92
23.33
16.11
7.54
-0.73
-7.22
-10.88
-11.26
-8.44
-3.01
3.90
10.59
15.18
16.05
12.61
5.66
-2.86
-10.46
-15.44
-17.80
-19.50
-23.63
-33.12
-49.32
-71.17
-95.36
-117.18
-132.27
-138.03
-134.20
-122.50
-105.65
-86.28
-66.31
-46.83
-28.14
-10.64
4.77
17.03
25.52
30.55
33.27
35.24
37.83
42.84
51.03
61.86
73.86
85.53
95.64
102.97
106.31
104.85
100.76
96.74
94.49
94.03
94.18
93.20
89.25
81.37
70.13
60.56
56.99
60.05
66.71
73.34
78.06
81.26
85.05
91.92
107.42
133.87
168.39
204.44
236.35
261.45
279.56
291.74
274.28
217.15
131.40
41.94
-31.97
-83.66
-115.06
-131.60
-139.53
-144.80
-148.20
-150.07
-150.88
-153.31
-158.14
-163.79
-168.35
-171.13
-173.02
-172.55
-168.67
-161.73
-153.23
-144.05
-132.96
-119.33
-103.46
-86.65
-68.54
-49.08
-29.30
-11.08
4.23
16.58
26.54
34.82
41.61
47.65
53.39
58.93
64.14
68.65
72.58
76.26
79.88
83.42
87.56
93.53
102.62
115.34
129.66
143.28
154.51
162.19
165.30
163.01
154.95
141.26
122.25
96.09
62.56
24.03
-15.77
-53.81
-88.64
-120.30
-149.99
-179.33
-212.33
-249.64
-287.10
-318.03
-336.81
-340.64
-329.57
-305.82
-254.40
-176.75
-90.78
-17.42
33.37
62.78
77.04
83.17
87.26
93.61
101.20
107.63
111.41
110.24
101.22
82.35
54.65
22.43
-8.17
-31.02
-41.66
-39.40
-27.06
-9.30
9.32
25.53
36.89
42.39
41.79
37.32
34.89
40.96
59.37
89.55
126.90
163.04
189.62
200.17
191.89
165.81
126.27
80.15
35.64
0.12
-21.20
-25.76
-15.38
3.73
22.77
33.80
32.81
20.74
1.93
-21.41
-47.79
-75.28
-101.51
-124.35
-142.14
-153.70
-158.71
-140.66
-95.18
-33.32
27.49
76.72
113.28
140.85
163.83
185.32
205.13
220.80
229.44
230.39
225.33
216.51
205.63
193.22
177.89
160.90
138.85
108.25
68.16
20.39
-31.65
-84.15
-133.69
-177.90
-216.05
-250.79
-285.18
-320.97
-358.60
-398.16
-439.92
-483.43
-526.10
-562.22
-585.15
-588.88
-571.16
-535.59
-490.84
-446.79
-409.67
-379.46
-350.94
-318.31
-278.67
-233.69
-188.16
-146.84
-111.61
-80.85
-50.91
-18.67
16.81
54.37
91.86
127.65
161.53
194.57
228.55
264.93
304.15
345.56
388.07
431.26
475.87
523.19
573.46
624.15
669.55
702.16
715.40
706.16
676.02
630.57
577.26
522.96
472.37
427.87
390.25
359.51
335.17
315.92
299.37
282.22
261.15
234.00
200.54
162.37
122.41
83.68
48.14
16.08
-13.32
-41.19
-68.11
-93.93
-118.46
-142.00
-165.63
-190.99
-219.60
-251.96
-287.34
-324.00
-359.85
-393.49
-424.10
-451.52
-476.31
-499.77
-523.70
-549.61
-577.58
-605.07
-627.16
-636.68
-626.64
-593.51
-539.04
-469.85
-394.80
-322.19
-257.41
-203.83
-161.40
-127.81
-100.06
-75.02
-49.34
-19.88
14.79
52.98
87.70
111.33
118.00
104.06
68.83
15.46
-48.62
-112.82
-165.55
-199.53
-210.10
-196.12
-161.78
-115.79
-67.86
-25.22
8.83
48.86
94.00
132.76
155.37
160.43
152.60
137.63
120.39
103.60
88.33
72.56
55.47
40.10
30.81
30.59
40.00
57.14
78.21
99.03
115.53
120.82
115.74
106.09
97.95
95.26
99.32
109.27
122.85
136.16
146.67
154.90
164.47
177.74
195.31
216.88
241.62
267.29
288.82
300.14
297.46
282.91
259.77
231.57
202.89
179.72
168.18
172.31
193.20
229.25
279.41
336.58
388.51
423.00
433.20
419.25
386.63
343.48
271.08
173.46
73.09
-6.87
-58.33
-85.73
-96.97
-98.67
-95.20
-89.93
-80.59
-67.49
-54.54
-46.58
-46.17
-53.51
-67.91
-89.62
-114.73
-138.41
-159.37
-179.86
-203.12
-230.43
-260.73
-291.77
-321.25
-347.40
-368.11
-383.79
-397.36
-412.72
-432.98
-460.06
-494.24
-533.68
-573.72
-606.46
-623.42
-618.46
-589.79
-540.43
-477.12
-407.63
-338.44
-273.18
-212.77
-156.92
-105.63
-59.63
-19.64
14.40
44.29
72.07
98.91
124.35
147.09
165.72
179.58
189.31
196.56
204.98
216.83
231.65
246.79
259.13
266.31
266.93
260.87
249.17
237.71
231.63
233.33
242.50
257.51
275.76
293.18
305.45
309.36
310.12
312.95
319.65
328.48
336.90
342.98
345.10
343.07
338.26
340.73
356.44
382.88
411.40
434.04
447.53
452.54
453.03
409.84
311.47
179.10
49.55
-53.56
-125.46
-171.47
-201.41
-222.36
-245.18
-268.50
-289.61
-308.16
-325.62
-342.60
-351.89
-348.96
-334.64
-313.36
-281.90
-237.34
-181.90
-124.14
-75.30
-42.89
-31.88
-41.50
-65.81
-91.27
-106.73
-108.14
-98.49
-80.87
-58.71
-35.79
-14.73
2.26
16.40
28.50
37.76
41.83
39.16
29.97
15.54
-1.58
-19.66
-35.45
-46.53
-52.38
-55.56
-60.33
-70.95
-90.73
-119.80
-156.15
-192.73
-219.91
-228.62
-215.34
-182.91
-138.59
-91.02
-38.59
11.53
50.94
78.10
101.32
128.47
160.68
195.62
226.93
249.25
257.16
249.15
220.17
175.52
128.86
93.21
73.66
65.87
63.53
61.85
60.75
62.34
68.21
77.15
84.31
85.40
76.89
60.42
40.41
22.06
7.58
-4.30
-14.21
-26.13
-43.03
-68.75
-101.82
-136.95
-168.16
-192.68
-210.85
-225.81
-243.11
-267.38
-305.05
-355.01
-408.39
-452.52
-477.02
-476.29
-450.68
-406.75
-325.64
-215.84
-105.00
-17.50
41.36
78.77
103.30
122.65
139.34
154.99
167.34
178.33
190.26
205.03
220.87
234.36
243.71
249.72
255.24
259.16
260.77
260.19
258.33
255.85
253.97
254.34
257.25
260.58
257.63
242.86
214.60
175.31
129.24
80.68
32.85
-12.92
-56.41
-98.99
-141.04
-181.76
-219.64
-254.47
-287.99
-323.10
-362.14
-404.72
-447.05
-481.56
-499.38
-492.64
-459.09
-403.18
-334.14
-261.96
-194.07
-134.22
-83.06
-39.82
-1.47
34.31
68.60
102.32
137.36
175.92
218.46
262.15
301.03
330.59
346.03
342.99
319.55
278.91
229.19
180.88
143.54
123.02
124.33
146.28
181.39
219.50
253.32
280.64
303.06
323.11
315.83
268.86
190.66
103.63
25.83
-35.29
-79.57
-110.04
-130.90
-146.12
-154.07
-152.84
-141.94
-124.40
-103.74
-83.71
-68.24
-61.10
-64.40
-73.89
-83.58
-88.41
-86.48
-78.04
-65.88
-52.50
-39.74
-27.84
-13.36
2.65
16.97
25.00
23.66
12.23
-7.79
-33.61
-61.95
-88.26
-108.58
-119.99
-121.94
-114.84
-100.49
-81.84
-62.20
-45.15
-33.30
-27.12
-24.82
-24.87
-26.68
-30.37
-35.86
-41.16
-45.24
-46.56
-43.98
-36.69
-25.36
-11.83
1.46
12.34
19.56
23.29
25.55
25.26
23.49
21.36
19.60
18.39
17.48
16.40
15.03
13.24
10.60
7.13
3.05
-0.90
-3.68
-4.59
-3.87
-1.58
1.70
5.06
8.54
13.07
20.23
31.20
46.07
63.37
82.30
101.39
118.16
130.15
135.90
135.75
131.76
127.26
125.43
130.67
145.31
167.81
193.34
215.68
229.16
229.90
217.03
178.29
113.07
34.83
-36.83
-89.54
-123.56
-147.02
-168.56
-191.61
-212.99
-223.70
-215.25
-185.10
-137.38
-78.48
-17.65
32.19
64.63
79.42
76.05
56.84
25.94
-10.38
-44.43
-69.16
-81.71
-85.25
-87.33
-93.91
-105.73
-118.89
-126.88
-124.15
-108.06
-76.76
-35.22
6.25
38.47
58.00
65.37
65.01
58.11
46.36
33.29
23.14
19.51
23.66
33.81
44.45
48.54
38.93
15.24
-15.58
-43.87
-62.74
-70.30
-68.59
-60.95
-50.46
-39.77
-30.41
-24.24
-23.06
-26.62
-30.83
-28.74
-13.59
16.83
58.13
101.13
134.87
151.24
147.62
128.43
98.10
62.35
26.90
-2.78
-21.42
-26.13
-17.33
0.68
21.16
37.35
45.52
45.44
39.02
28.64
14.68
-3.32
-25.54
-50.89
-77.09
-101.21
-121.22
-137.27
-145.91
-146.73
-139.98
-126.38
-107.56
-86.56
-67.28
-53.18
-46.74
-49.06
-60.71
-80.49
-105.99
-133.95
-160.53
-181.12
-189.48
-180.16
-151.01
-105.66
-52.43
-2.72
32.01
43.87
31.76
4.13
-25.06
-41.90
-37.98
-12.04
30.02
77.36
118.20
144.28
156.27
161.05
167.17
180.45
202.80
232.41
265.05
296.15
307.18
287.30
240.97
184.65
132.87
90.65
56.28
26.80
1.29
-19.26
-31.26
-33.73
-30.86
-30.58
-39.22
-57.42
-79.67
-97.57
-104.56
-97.04
-77.15
-51.75
-28.63
-12.01
-1.17
6.97
14.17
18.97
17.94
7.84
-12.46
-40.82
-71.83
-98.62
-115.88
-120.36
-113.90
-99.45
-78.67
-51.67
-18.46
18.90
55.18
82.88
95.32
89.67
69.13
41.40
15.06
-3.86
-13.64
-16.26
-15.35
-14.00
-13.78
-14.54
-15.36
-15.49
-14.60
-12.68
-9.93
-6.86
-4.12
-2.59
-2.72
-4.32
-6.56
-8.28
-8.60
-7.27
-4.94
-2.83
-2.50
-4.92
-10.61
-19.32
-29.88
-39.97
-46.32
-45.46
-35.10
-15.50
9.90
35.13
53.80
61.34
56.87
43.46
26.93
13.49
7.37
9.54
17.74
28.27
37.76
44.69
49.28
52.75
55.77
57.35
55.22
47.09
32.84
14.82
-2.78
-16.12
-23.33
-24.98
-23.70
-21.96
-21.11
-20.39
-18.16
-13.11
-5.55
3.09
11.14
17.10
23.01
28.95
35.87
42.98
50.87
58.48
64.01
65.67
61.71
52.21
39.16
27.03
21.02
25.33
40.64
63.53
91.38
116.24
130.00
127.70
109.63
79.78
43.52
4.89
-33.67
-70.43
-103.58
-130.10
-145.97
-148.04
-136.56
-115.60
-91.95
-71.99
-59.43
-54.93
-57.06
-61.91
-64.92
-63.29
-56.49
-46.27
-34.95
-25.00
-19.16
-22.00
-36.26
-62.63
-100.27
-146.57
-197.20
-245.39
-283.56
-305.42
-309.77
-296.34
-265.89
-221.18
-166.81
-108.84
-52.20
-0.27
60.31
126.90
188.75
238.76
276.87
310.60
341.84
368.80
385.49
386.54
367.15
329.31
281.22
233.26
193.83
166.17
149.21
138.70
130.16
119.12
105.99
94.68
88.82
88.90
91.43
91.58
85.56
72.83
55.28
37.85
25.86
22.00
25.48
33.00
41.48
49.33
56.85
64.64
73.30
82.34
89.51
91.32
84.28
66.93
40.84
10.59
-18.02
-39.83
-52.41
-57.06
-57.93
-59.90
-66.22
-77.23
-90.94
-104.63
-116.59
-126.86
-137.01
-149.09
-164.55
-183.50
-204.60
-225.51
-243.50
-256.33
-262.75
-262.82
-257.26
-246.66
-230.85
-208.97
-180.49
-146.35
-109.60
-74.77
-46.15
-26.07
-14.16
-8.05
-4.99
-3.53
-4.19
-8.19
-15.98
-26.43
-37.15
-45.50
-49.66
-49.21
-45.04
-38.99
-32.63
-26.69
-21.14
-15.64
-9.59
-2.23
7.14
18.71
30.98
41.98
50.14
54.59
55.28
52.94
48.64
43.15
36.36
25.24
7.82
-15.49
-43.25
-74.94
-110.85
-150.34
-189.92
-222.58
-243.58
-247.03
-228.01
-187.68
-135.89
-87.38
-55.18
-45.73
-57.72
-91.16
-139.81
-190.97
-231.32
-252.89
-253.59
-235.64
-205.03
-171.13
-153.86
-166.07
-206.34
-262.62
-320.61
-368.09
-396.41
-402.40
-332.83
-182.98
-1.23
154.49
260.15
321.31
352.23
364.84
366.19
360.43
342.03
310.96
275.74
246.67
227.94
217.19
210.17
203.26
195.40
181.03
159.95
138.64
124.64
120.40
123.25
129.73
136.92
144.13
148.11
148.60
149.08
153.54
163.26
173.36
182.26
187.40
185.32
170.61
140.95
99.56
53.81
11.64
-21.64
-44.36
-59.13
-69.62
-78.11
-83.05
-79.51
-63.64
-36.16
-3.09
27.17
47.13
53.84
49.78
40.99
34.00
32.45
36.01
41.19
43.74
40.24
29.69
13.54
-5.07
-22.61
-36.36
-45.01
-48.59
-48.02
-44.82
-40.80
-38.35
-39.70
-46.09
-57.20
-71.10
-84.94
-95.94
-102.39
-103.87
-100.83
-94.06
-84.41
-72.74
-59.73
-45.60
-29.75
-10.84
12.88
42.55
77.69
115.59
151.51
180.07
197.01
200.45
191.44
173.51
151.44
129.68
110.68
94.23
78.29
60.60
40.19
17.85
-4.34
-24.14
-40.35
-53.14
-63.53
-72.09
-78.10
-80.05
-76.75
-67.95
-54.19
-36.38
-15.44
6.12
23.65
32.83
32.53
24.62
12.09
-2.22
-16.13
-28.40
-38.59
-46.51
-51.80
-54.14
-53.70
-51.07
-46.96
-41.84
-36.10
-30.33
-25.32
-21.81
-20.22
-20.31
-21.09
-21.04
-18.87
-14.15
-7.39
0.33
7.48
12.57
14.48
12.91
8.51
2.92
-1.70
-2.81
1.11
9.52
19.86
28.85
34.03
34.75
32.05
27.93
24.85
24.05
24.72
24.53
21.00
12.59
-1.02
-18.66
-37.36
-51.30
-53.99
-40.49
-9.94
33.04
78.63
114.70
131.23
119.04
80.03
28.66
-16.30
-43.64
-53.77
-54.54
-53.95
-55.75
-59.10
-60.00
-55.58
-46.36
-35.83
-27.64
-24.12
-25.37
-29.98
-36.25
-42.27
-46.71
-48.54
-46.38
-37.78
-21.39
2.73
31.57
59.67
81.73
94.23
96.55
88.60
75.85
63.35
53.88
47.06
40.11
30.10
13.60
-10.83
-41.97
-75.09
-103.36
-119.57
-118.56
-98.98
-63.64
-18.82
28.05
70.16
102.89
123.25
129.49
120.79
97.69
62.71
20.38
-23.26
-62.47
-93.93
-116.23
-130.16
-138.34
-143.06
-144.36
-139.56
-124.21
-94.63
-50.45
4.00
60.13
107.71
138.44
148.58
139.81
118.23
91.72
67.27
49.10
38.07
32.72
30.81
30.47
30.57
30.59
30.34
29.59
28.29
26.69
25.37
25.11
26.30
28.29
30.03
30.41
28.60
24.10
16.60
6.00
-7.54
-23.32
-40.52
-57.01
-69.93
-76.81
-76.67
-69.95
-57.85
-41.57
-22.00
-0.88
20.48
40.82
58.17
69.63
72.46
65.06
47.55
21.59
-11.43
-48.39
-84.61
-114.97
-135.24
-142.67
-136.81
-120.26
-91.15
-56.78
-29.36
-16.45
-15.74
-19.31
-20.34
-17.06
-12.17
-10.03
-14.77
-26.26
-40.73
-53.77
-63.93
-70.81
-75.03
-77.04
-76.65
-74.12
-68.47
-58.75
-45.41
-30.71
-17.56
-8.45
-4.52
-5.33
-10.60
-17.73
-23.73
-26.65
-26.05
-22.05
-14.82
-4.42
9.02
24.71
43.37
65.14
88.87
112.21
132.63
148.30
158.53
163.92
166.20
169.89
178.46
192.42
209.05
224.19
234.20
237.20
233.37
212.16
170.54
114.29
55.05
2.86
-37.90
-67.39
-87.95
-102.25
-112.43
-117.60
-116.33
-108.07
-93.65
-75.91
-58.01
-43.89
-36.99
-38.86
-46.67
-55.45
-60.38
-57.96
-46.50
-27.79
-7.14
8.71
13.60
4.73
-16.46
-48.22
-87.11
-127.93
-164.14
-189.73
-200.31
-194.14
-171.82
-136.26
-92.93
-48.79
-10.50
17.11
29.70
26.12
9.13
-15.30
-39.48
-57.49
-66.86
-67.65
-60.25
-46.49
-28.84
-10.20
6.51
20.14
30.70
39.36
44.54
47.46
48.49
46.76
41.13
32.24
24.58
26.93
40.14
61.81
89.88
120.95
152.42
184.61
212.36
235.69
255.21
270.15
266.15
238.40
191.52
136.78
85.10
42.65
11.94
-8.30
-21.81
-32.18
-39.51
-43.75
-45.22
-44.74
-43.20
-40.32
-36.01
-31.00
-26.42
-21.87
-18.40
-18.48
-25.06
-39.95
-62.07
-88.41
-115.62
-140.71
-159.93
-171.44
-175.65
-174.31
-169.26
-160.84
-148.20
-128.04
-100.81
-67.57
-31.27
3.54
32.14
51.24
60.19
60.69
56.02
49.63
45.59
47.09
55.73
71.73
92.61
114.31
131.93
140.96
138.17
123.52
99.54
70.31
40.41
13.65
-7.39
-21.59
-29.36
-33.02
-35.24
-38.70
-45.23
-54.89
-65.86
-75.08
-79.43
-75.19
-64.06
-49.88
-36.66
-27.06
-21.67
-19.70
-19.84
-20.60
-20.62
-19.15
-15.32
-8.87
-1.04
5.37
6.67
-0.39
-15.20
-33.34
-47.66
-50.56
-37.28
-8.33
30.73
70.89
100.80
112.48
102.44
72.14
27.91
-20.03
-61.70
-87.29
-88.95
-67.70
-31.43
8.33
41.62
63.70
75.33
79.70
79.39
73.98
60.69
38.11
8.16
-24.13
-52.23
-71.30
-80.24
-81.19
-77.95
-74.06
-69.28
-63.51
-55.43
-44.37
-31.27
-18.46
-8.29
-2.24
-0.56
-1.99
-4.71
-6.83
-7.36
-6.63
-5.90
-6.25
-7.87
-9.66
-9.57
-5.89
1.99
12.98
24.85
35.23
42.82
47.45
49.75
50.49
50.09
48.83
46.97
45.06
43.19
41.38
39.34
36.53
32.58
27.49
21.65
15.60
9.80
4.54
0.05
-3.51
-6.14
-8.03
-9.51
-10.87
-12.20
-13.27
-13.71
-13.21
-11.79
-9.74
-7.51
-5.46
-3.79
-2.59
-1.93
-1.94
-2.65
-3.82
-4.86
-5.00
-3.66
-0.85
2.75
5.89
7.30
6.28
3.02
-1.42
-5.62
-8.30
-8.80
-7.15
-3.88
0.42
5.37
10.88
16.99
23.54
30.10
35.92
40.37
43.13
44.48
44.90
45.05
45.41
46.02
46.54
46.23
44.46
40.94
35.99
30.62
26.37
24.87
27.27
33.68
42.94
53.03
61.74
67.45
69.57
68.47
64.98
59.90
53.89
47.45
41.07
35.04
29.21
22.81
14.58
3.26
-11.90
-30.76
-52.38
-75.29
-97.80
-118.23
-135.07
-147.29
-154.51
-157.02
-155.35
-149.92
-140.72
-127.75
-111.53
-93.68
-76.52
-62.24
-51.77
-44.35
-38.10
-31.02
-22.18
-11.90
-1.27
8.75
17.98
27.00
36.80
48.17
61.47
76.49
92.45
108.05
121.60
131.32
135.94
135.22
130.06
122.14
113.11
103.82
94.15
83.45
71.40
58.71
47.15
38.80
35.18
36.49
41.69
49.03
56.83
64.04
70.19
75.25
79.27
82.37
84.79
86.91
89.13
91.57
93.86
95.12
94.26
90.45
83.47
73.76
62.24
49.98
37.86
26.47
16.18
7.33
0.34
-4.28
-6.19
-5.43
-2.56
1.39
5.16
7.68
8.29
6.87
3.65
-1.03
-7.05
-14.53
-23.80
-34.98
-47.66
-60.80
-72.91
-82.55
-88.89
-92.10
-93.27
-93.90
-95.28
-97.99
-101.74
-105.74
-109.10
-111.43
-112.92
-114.27
-116.28
-119.44
-123.67
-128.31
-132.22
-134.21
-133.29
-128.86
-120.84
-109.49
-95.35
-79.11
-61.56
-43.54
-25.99
-9.83
4.27
15.97
25.32
32.62
38.20
42.11
44.14
43.93
41.35
36.71
30.86
24.95
20.05
16.78
15.05
14.30
13.71
12.63
10.78
8.19
5.17
1.98
-1.30
-4.79
-8.70
-13.11
-17.81
-22.30
-26.01
-28.53
-29.86
-30.47
-31.03
-32.05
-33.68
-35.61
-37.29
-38.38
-38.92
-39.37
-40.28
-41.93
-44.10
-46.09
-47.05
-46.32
-43.75
-39.59
-34.31
-28.31
-21.81
-14.89
-7.69
-0.52
6.06
11.37
14.89
16.45
16.26
14.89
13.07
11.36
10.04
9.00
7.88
6.38
4.44
2.35
0.58
-0.53
-1.02
-1.25
-1.73
-2.76
-4.25
-5.78
-6.84
-7.17
-6.90
-6.52
-6.62
-7.56
-9.29
-11.39
-13.23
-14.34
-14.65
-14.49
-14.44
-14.93
-16.09
-17.63
-19.08
-20.13
-20.74
-21.11
-21.45
-21.70
-21.48
-20.33
-17.91
-14.32
-10.07
-5.83
-2.19
0.67
2.91
4.90
6.93
9.03
10.85
11.86
11.64
10.15
7.84
5.49
3.93
3.60
4.35
5.50
6.22
5.90
4.58
2.80
1.44
1.15
2.00
3.49
4.74
5.02
4.01
1.99
-0.43
-2.58
-4.17
-5.39
-6.69
-8.58
-11.33
-14.87
-18.78
-22.54
-25.66
-27.77
-28.73
-28.51
-27.21
-25.05
-22.31
-19.31
-16.35
-13.67
-11.34
-9.36
-7.60
-5.91
-4.10
-2.06
0.27
2.77
5.24
7.44
9.15
10.25
10.79
10.89
10.64
10.07
9.13
7.79
6.16
4.45
2.99
1.98
1.45
1.11
0.58
-0.48
-2.09
-3.94
-5.49
-6.16
-5.77
-4.59
-3.34
-2.73
-3.17
-4.44
-5.78
-6.29
-5.37
-3.12
-0.16
2.69
4.97
6.82
8.94
12.12
16.79
22.71
29.06
34.84
39.28
42.08
43.46
43.88
43.79
43.39
42.73
41.67
40.12
38.05
35.49
32.49
29.07
25.33
21.49
18.02
15.55
14.77
16.12
19.60
24.52
29.63
33.33
34.16
31.17
24.28
14.16
2.06
-10.72
-23.21
-34.84
-45.38
-54.55
-61.86
-66.54
-67.83
-65.41
-59.66
-51.73
-43.15
-35.40
-29.40
-25.37
-22.88
-21.30
-20.12
-19.18
-18.54
-18.23
-18.01
-17.38
-15.84
-13.25
-10.12
-7.44
-6.12
-6.50
-7.96
-9.10
-8.41
-5.07
0.61
7.33
13.40
17.62
19.65
20.06
19.84
19.74
19.91
19.87
18.88
16.42
12.48
7.55
2.40
-2.41
-6.68
-10.56
-14.20
-17.49
-19.95
-20.85
-19.62
-16.15
-10.95
-4.93
0.96
5.96
9.74
12.28
13.71
14.17
13.69
12.30
10.06
7.31
4.55
2.46
1.64
2.32
4.22
6.58
8.48
9.19
8.49
6.69
4.39
2.12
0.01
-2.14
-4.69
-7.75
-11.10
-14.16
-16.30
-17.17
-16.88
-16.00
-15.31
-15.48
-16.79
-19.02
-21.51
-23.42
-24.03
-22.88
-19.91
-15.23
-9.09
-1.84
6.04
13.84
20.62
25.44
27.64
27.05
24.13
19.78
15.06
10.85
7.65
5.54
4.36
3.82
3.74
4.08
4.89
6.22
7.96
9.76
11.11
11.55
10.79
8.85
5.97
2.48
-1.39
-5.43
-9.47
-13.21
-16.21
-18.02
-18.33
-17.17
-15.06
-12.87
-11.48
-11.45
-12.69
-14.38
-15.31
-14.36
-11.04
-5.74
0.46
6.19
10.45
12.95
13.99
14.19
14.07
13.72
12.97
11.61
9.68
7.53
5.65
4.23
2.91
0.86
-2.79
-8.39
-15.29
-22.04
-26.83
-28.37
-26.60
-22.89
-19.44
-18.41
-20.94
-26.63
-33.70
-39.89
-43.44
-43.85
-41.99
-39.55
-38.06
-38.34
-40.34
-43.58
-47.47
-51.22
-53.34
-51.38
-42.41
-24.31
2.72
35.69
69.68
99.94
123.98
142.07
156.07
167.40
175.57
178.51
174.34
163.33
148.56
134.66
125.38
121.58
120.98
119.73
114.90
106.39
97.13
91.53
93.10
102.51
117.19
132.35
142.61
143.83
134.08
114.05
87.01
58.49
35.22
23.35
26.06
41.84
64.45
85.30
96.94
96.28
85.61
70.80
57.94
50.38
47.79
46.98
44.86
40.21
33.38
24.89
14.36
0.57
-17.52
-39.54
-63.77
-87.02
-105.77
-117.85
-123.34
-124.32
-123.84
-124.68
-128.68
-137.42
-150.57
-165.84
-180.27
-191.60
-198.84
-202.17
-202.67
-201.83
-203.81
-210.04
-218.22
-224.85
-228.04
-228.07
-226.38
-224.52
-223.46
-229.48
-244.12
-262.76
-279.35
-291.23
-299.17
-304.95
-309.99
-315.06
-330.29
-358.97
-394.54
-427.00
-450.39
-463.30
-466.28
-460.22
-446.07
-437.70
-440.46
-447.27
-447.35
-435.93
-415.13
-389.66
-363.79
-260.09
-67.61
155.64
341.67
465.25
534.96
567.53
577.11
573.94
565.11
542.73
505.68
463.76
429.02
407.03
396.58
394.17
397.48
405.59
408.68
403.74
397.26
393.73
396.94
405.05
412.67
413.27
400.99
366.97
311.43
245.21
183.03
135.92
106.45
89.86
80.80
74.72
66.22
54.04
40.81
29.65
21.84
15.07
6.49
-4.47
-16.99
-30.84
-45.63
-61.45
-80.39
-99.58
-120.30
-145.04
-174.56
-208.31
-244.45
-279.87
-310.36
-331.55
-339.60
-333.67
-315.54
-286.77
-249.22
-204.96
-156.49
-106.51
-58.03
-13.88
27.84
60.66
79.05
83.46
79.19
71.97
66.88
66.38
72.23
85.53
106.48
136.67
174.15
214.53
250.99
276.67
287.28
282.88
267.21
245.21
222.13
200.95
182.04
164.24
146.69
129.49
113.05
96.73
77.95
54.14
23.77
-12.41
-51.38
-88.85
-120.68
-144.39
-159.67
-168.07
-171.38
-171.03
-167.44
-160.21
-148.42
-131.37
-109.45
-84.77
-60.90
-41.54
-28.78
-21.69
-16.19
-6.50
12.20
41.55
79.06
119.06
154.94
181.35
195.62
197.75
190.01
176.18
161.12
149.97
147.02
154.24
170.26
190.57
209.03
220.10
220.71
210.92
193.12
170.73
146.86
123.73
102.62
84.07
67.87
53.05
37.77
19.80
-2.59
-29.82
-60.48
-91.51
-119.10
-139.78
-151.54
-154.29
-149.86
-141.34
-132.15
-125.17
-121.95
-122.58
-125.89
-130.17
-133.73
-135.69
-136.01
-135.47
-135.19
-136.05
-138.49
-142.31
-146.91
-151.39
-154.71
-155.50
-152.15
-143.08
-127.28
-105.12
-78.53
-50.87
-25.90
-6.77
5.02
9.78
9.30
5.98
1.82
-1.99
-5.21
-8.10
-10.90
-13.49
-15.41
-16.17
-15.58
-14.00
-12.27
-11.30
-11.56
-12.76
-13.97
-14.16
-12.79
-10.18
-7.74
-7.33
-10.54
-17.80
-28.08
-39.14
-48.41
-53.77
-54.13
-49.74
-41.94
-32.69
-23.91
-17.06
-12.70
-10.65
-9.63
-7.70
-3.22
4.44
14.55
25.41
35.03
41.95
44.87
43.96
40.46
35.48
29.27
21.18
10.27
-4.19
-22.32
-45.02
-71.41
-98.86
-124.65
-147.07
-165.80
-181.75
-196.86
-213.64
-236.23
-264.94
-295.22
-319.97
-332.75
-329.93
-311.58
-281.03
-243.57
-207.17
-175.16
-146.23
-117.97
-90.11
-64.21
-42.71
-27.28
0.02
40.01
80.26
108.75
122.98
125.71
120.45
109.64
95.64
80.38
62.65
44.37
29.22
19.79
15.53
16.01
18.23
20.86
23.25
23.07
22.41
24.04
28.44
31.70
31.94
28.12
20.72
10.38
-3.21
-14.05
-17.24
-12.38
-5.83
1.49
10.11
21.74
36.73
54.29
81.51
121.98
172.06
218.59
258.25
290.92
318.50
341.40
359.48
382.85
416.81
457.44
488.58
507.02
513.38
510.60
499.69
419.48
253.19
37.82
-125.60
-234.57
-300.85
-347.76
-382.68
-409.97
-431.79
-438.48
-424.25
-392.24
-357.90
-324.30
-291.19
-256.73
-221.84
-188.45
-150.95
-107.02
-60.07
-20.98
10.67
38.37
65.94
93.58
119.78
148.14
181.62
221.12
263.37
311.10
366.27
427.55
488.15
538.31
570.98
581.19
567.03
528.79
472.50
404.84
330.30
249.47
160.65
63.31
-40.61
-145.69
-243.67
-323.35
-374.48
-390.94
-373.01
-327.21
-264.29
-195.71
-130.58
-73.91
-26.92
11.16
41.21
63.13
76.12
79.68
74.55
62.96
48.07
33.07
20.31
10.69
3.86
-1.30
-6.04
-11.22
-16.94
-22.45
-26.59
-28.30
-26.89
-22.13
-14.20
-3.53
9.49
24.59
41.70
60.05
77.68
91.31
96.84
90.53
70.17
35.90
-9.93
-63.15
-119.43
-175.08
-226.77
-270.84
-303.23
-320.36
-320.47
-304.75
-276.19
-240.28
-203.50
-170.96
-144.65
-123.67
-105.67
-88.63
-71.76
-53.16
-32.81
-12.66
5.04
19.60
31.85
42.76
52.59
60.79
70.54
83.62
99.32
115.96
133.11
151.38
171.18
192.01
212.54
236.22
264.04
292.61
316.47
332.08
338.98
338.86
334.43
297.03
219.75
121.33
29.52
-40.72
-89.11
-121.78
-145.37
-164.89
-183.10
-195.69
-198.98
-193.18
-181.28
-166.44
-151.30
-137.99
-128.09
-122.24
-116.34
-107.22
-94.99
-81.38
-67.35
-53.34
-39.66
-27.80
-20.58
-19.24
-24.87
-38.40
-58.65
-82.09
-104.39
-121.68
-131.67
-131.51
-120.90
-101.20
-75.77
-49.08
-23.67
-1.54
17.19
33.84
49.93
66.00
81.06
88.03
84.06
69.53
47.42
22.97
1.32
-13.78
-20.37
-17.78
-7.58
6.80
20.32
27.04
22.84
6.18
-21.45
-56.13
-88.04
-107.63
-107.90
-87.79
-52.81
-12.42
25.46
54.57
72.35
80.46
81.91
80.32
77.60
70.18
58.03
42.65
27.77
18.63
20.67
31.42
44.97
53.78
51.87
38.32
17.36
-3.26
-16.58
-15.73
-0.68
22.23
43.97
57.39
59.89
52.88
40.27
26.63
14.90
6.32
3.85
9.92
24.68
45.85
69.22
89.92
103.70
106.27
96.15
75.25
47.14
15.17
-17.96
-50.55
-82.34
-114.55
-151.12
-193.28
-237.46
-275.95
-299.75
-301.71
-279.34
-236.10
-167.40
-85.10
-9.99
42.38
70.72
82.93
87.57
90.09
92.92
96.88
99.75
99.76
95.31
84.02
63.44
32.90
-4.87
-44.02
-77.77
-102.48
-110.19
-100.66
-78.85
-51.90
-26.01
-4.98
9.68
17.98
20.13
18.44
15.63
14.66
17.07
22.24
27.39
28.82
23.47
10.82
-5.32
-18.44
-21.10
-8.33
19.92
58.35
97.77
127.92
140.86
133.70
108.08
69.78
26.48
-14.40
-46.45
-64.76
-69.65
-64.73
-53.95
-40.75
-27.10
-14.21
-3.53
3.38
4.99
0.34
-10.55
-25.68
-42.47
-57.54
-67.18
-68.03
-58.29
-38.99
-13.10
11.68
29.18
36.76
35.75
30.04
23.51
18.42
14.85
11.69
8.21
5.97
7.64
15.70
30.45
48.88
65.05
71.87
64.20
40.96
6.15
-33.21
-69.92
-99.00
-118.47
-128.45
-129.70
-122.73
-108.37
-88.54
-67.00
-48.62
-37.52
-34.91
-38.84
-44.17
-44.09
-33.13
-10.06
20.84
51.11
71.60
76.65
67.04
50.25
37.57
39.11
59.64
97.09
144.23
192.50
235.55
270.84
299.00
321.61
339.40
351.95
358.83
360.71
359.62
357.77
355.91
352.33
343.43
325.30
295.72
255.15
206.40
153.29
99.20
46.33
-3.99
-49.99
-88.52
-115.17
-125.94
-119.59
-99.33
-72.71
-49.38
-37.68
-41.45
-58.97
-84.63
-112.09
-137.26
-159.45
-180.42
-202.29
-225.99
-250.32
-272.77
-291.04
-304.17
-312.73
-318.16
-322.00
-325.27
-328.97
-333.23
-337.50
-341.20
-343.98
-345.33
-344.24
-339.20
-328.88
-314.14
-296.07
-275.49
-252.94
-228.77
-202.57
-173.19
-139.67
-102.62
-67.02
-37.88
-18.38
-9.26
-9.39
-15.87
-24.62
-31.95
-35.93
-39.54
-45.02
-51.82
-56.88
-56.52
-47.63
-28.55
-0.40
49.96
117.59
183.48
229.26
250.36
253.22
246.88
238.15
230.03
223.35
215.57
206.62
198.04
191.08
184.43
174.91
160.03
138.76
112.28
81.29
51.46
28.90
16.94
14.88
18.40
25.67
35.35
46.37
56.52
64.59
70.27
73.91
74.62
70.59
62.97
54.91
49.46
46.69
44.78
41.79
37.37
32.76
29.53
27.75
24.45
15.06
-3.85
-31.65
-63.18
-91.77
-111.48
-118.95
-114.38
-101.27
-84.38
-67.59
-52.90
-40.69
-30.68
-22.72
-17.03
-13.88
-13.35
-14.92
-17.27
-19.12
-19.23
-17.07
-13.12
-8.72
-5.63
-5.35
-8.44
-14.25
-21.18
-27.41
-31.70
-33.58
-33.12
-30.49
-25.67
-18.50
-8.97
2.54
15.10
27.29
37.68
45.35
50.08
52.32
52.86
52.55
52.39
53.01
54.47
56.18
57.16
56.30
52.81
46.18
36.14
23.21
7.69
-10.46
-31.06
-52.73
-72.91
-88.29
-96.55
-97.28
-90.64
-78.69
-64.86
-52.68
-44.23
-39.78
-37.55
-35.38
-31.16
-20.91
-2.22
24.41
55.77
87.94
117.44
143.04
164.11
180.80
197.07
216.09
237.95
259.20
274.93
280.47
274.26
255.76
208.22
129.05
32.58
-58.02
-125.76
-163.28
-177.98
-175.44
-160.88
-139.38
-112.68
-82.09
-49.51
-17.40
12.80
40.67
68.13
94.31
115.43
128.78
132.09
122.90
99.00
61.01
6.93
-52.10
-99.92
-125.24
-127.40
-113.10
-89.77
-64.41
-41.93
-25.58
-14.63
-8.03
-5.15
-6.12
-9.17
-11.79
-12.71
-12.32
-12.36
-13.99
-18.97
-28.49
-41.54
-55.24
-66.49
-73.62
-76.63
-76.78
-75.17
-73.24
-72.12
-72.18
-72.83
-71.92
-69.27
-66.12
-64.40
-65.54
-70.26
-77.92
-86.52
-92.82
-93.81
-88.14
-76.30
-60.40
-43.24
-27.59
-15.25
-6.61
-0.45
5.21
11.98
20.37
29.25
36.21
38.30
33.32
20.57
1.09
-22.87
-48.79
-74.38
-97.73
-117.37
-132.01
-140.48
-141.83
-135.68
-122.62
-104.49
-84.11
-64.68
-49.11
-39.33
-35.80
-37.34
-41.57
-45.61
-46.87
-43.41
-33.70
-17.02
6.21
34.16
63.77
91.36
113.58
128.44
135.72
137.71
137.07
135.40
132.53
127.25
118.69
107.30
95.00
84.26
78.78
80.06
86.43
93.65
97.46
95.74
89.25
81.05
74.96
77.54
93.21
122.29
160.42
200.20
233.50
253.42
256.30
242.40
220.23
199.77
188.42
188.84
200.05
219.83
246.13
277.44
289.21
265.22
203.15
116.41
23.74
-60.09
-126.02
-169.72
-188.81
-189.33
-174.35
-148.55
-118.82
-93.05
-77.49
-74.84
-86.81
-111.10
-144.89
-177.99
-200.27
-206.42
-197.96
-180.68
-160.83
-142.81
-128.27
-117.53
-107.72
-96.94
-85.11
-73.57
-63.80
-56.38
-51.05
-46.98
-43.68
-39.73
-34.65
-28.91
-23.52
-19.23
-16.13
-13.86
-11.78
-9.62
-6.93
-3.84
-0.94
1.19
2.33
2.77
3.11
3.96
5.56
7.77
10.03
11.54
11.78
10.63
8.47
5.87
3.31
0.99
-1.44
-4.34
-8.24
-13.45
-20.07
-27.84
-36.24
-44.24
-50.30
-52.76
-50.21
-42.33
-30.16
-15.93
-2.28
8.67
16.06
20.44
23.13
25.47
28.01
30.46
32.02
32.04
30.32
27.23
23.51
19.79
16.53
13.79
11.50
9.65
8.33
7.73
7.94
8.92
10.40
12.05
13.44
14.26
14.37
13.72
12.30
10.08
7.00
2.84
-2.14
-7.83
-14.15
-20.90
-27.88
-34.82
-41.55
-48.01
-54.29
-60.38
-66.00
-70.12
-71.11
-67.20
-57.24
-41.41
-21.37
0.18
20.48
37.50
50.47
59.72
65.97
69.82
71.48
70.92
68.27
63.98
58.80
53.57
48.96
45.31
42.58
40.52
38.86
37.37
35.83
34.01
31.70
28.70
24.80
19.76
13.47
6.13
-1.97
-10.66
-19.96
-30.05
-41.23
-53.93
-68.57
-85.13
-102.62
-119.13
-132.28
-139.75
-139.97
-132.77
-119.57
-102.76
-84.56
-65.97
-46.99
-27.33
-7.01
13.45
33.20
51.37
66.34
74.71
74.22
65.67
51.99
36.73
23.24
14.08
10.27
11.03
14.36
18.40
21.94
24.54
26.24
27.22
27.42
26.54
24.29
20.92
17.37
14.58
12.95
12.27
12.08
11.97
11.65
10.99
10.05
9.06
8.18
7.37
6.48
5.45
4.28
3.12
2.25
2.14
3.26
5.57
8.18
9.45
7.63
1.76
-7.52
-18.37
-28.06
-34.15
-35.46
-32.40
-26.49
-19.52
-12.82
-7.01
-2.27
1.37
3.77
4.70
4.11
2.33
-0.00
-2.16
-3.54
-3.97
-3.67
-3.24
-3.46
-4.98
-8.11
-12.70
-18.13
-23.45
-27.65
-29.93
-29.88
-27.69
-24.06
-20.18
-17.39
-16.89
-19.27
-24.43
-31.53
-39.32
-46.52
-52.23
-56.04
-57.92
-58.22
-57.17
-54.83
-51.05
-45.66
-38.63
-30.27
-21.15
-11.79
-2.42
7.13
17.07
27.32
37.22
45.68
51.49
53.93
53.08
49.83
45.53
41.32
37.75
34.58
31.17
26.75
20.93
13.92
6.68
0.55
-3.26
-4.23
-2.73
0.51
4.39
7.89
10.39
11.80
12.36
12.44
12.39
12.77
14.98
20.22
28.91
40.41
53.33
66.08
77.29
86.25
93.00
99.24
106.33
114.52
122.79
129.62
133.70
134.37
131.91
127.40
123.77
123.00
125.03
127.71
128.02
123.52
113.00
96.78
68.30
27.34
-20.11
-65.12
-101.28
-126.89
-143.02
-151.43
-153.59
-150.85
-143.50
-132.77
-120.96
-110.74
-103.97
-101.03
-100.96
-101.77
-101.04
-95.62
-83.79
-66.17
-45.48
-25.19
-8.15
4.16
11.70
15.50
17.50
19.13
20.69
21.65
21.55
20.57
19.48
19.18
20.64
23.80
28.04
32.06
34.30
33.66
29.69
22.62
13.15
2.43
-8.07
-16.70
-22.07
-23.40
-20.86
-15.58
-9.44
-4.31
-1.43
-1.11
-2.60
-4.69
-6.23
-6.59
-5.75
-4.06
-2.44
-1.76
-2.53
-4.84
-8.60
-13.61
-19.55
-25.93
-32.04
-37.11
-40.44
-41.78
-41.44
-40.24
-38.95
-37.86
-36.61
-34.43
-30.68
-25.24
-18.95
-12.59
-7.19
-3.49
-1.76
-1.90
-3.41
-5.42
-6.74
-6.10
-2.65
3.45
11.01
18.17
23.17
25.19
24.50
22.29
19.91
18.23
17.34
16.74
15.81
14.15
11.77
8.96
6.22
3.97
2.41
1.47
1.00
0.91
0.79
0.57
0.31
0.40
1.11
2.36
3.87
5.41
6.92
8.53
10.44
12.78
15.78
19.24
22.61
25.33
27.27
28.82
30.63
33.39
37.50
43.41
50.85
58.67
65.17
68.51
67.05
59.61
45.68
23.78
-3.83
-31.67
-53.86
-67.34
-72.49
-71.59
-67.13
-60.96
-54.09
-46.66
-39.01
-32.05
-26.87
-24.04
-23.37
-23.99
-24.85
-25.06
-23.88
-21.35
-18.15
-15.25
-13.47
-13.32
-14.86
-17.66
-20.61
-21.75
-19.18
-11.84
-0.20
13.73
27.14
37.32
42.61
42.84
39.15
33.09
25.97
18.38
10.61
2.63
-5.04
-11.60
-16.46
-19.74
-22.39
-25.42
-29.01
-31.76
-30.95
-23.85
-9.53
10.15
30.75
46.79
54.66
53.95
47.14
38.16
30.47
25.71
23.82
23.70
24.08
24.31
24.18
23.76
23.23
22.67
22.11
21.95
23.05
26.20
31.37
36.63
38.18
31.55
13.84
-14.31
-48.33
-80.98
-105.13
-116.61
-115.45
-105.13
-90.34
-74.14
-59.11
-45.63
-33.57
-23.23
-15.19
-9.59
-5.54
-1.46
4.00
11.06
18.89
25.87
30.70
33.02
33.56
33.54
33.87
34.86
36.02
36.88
36.92
35.81
33.33
29.34
23.82
17.24
10.61
5.14
1.81
0.81
1.42
2.39
2.57
1.37
-1.04
-3.94
-6.67
-8.75
-10.17
-11.16
-11.93
-12.51
-12.79
-12.68
-12.19
-11.49
-10.68
-9.76
-8.68
-7.44
-6.23
-5.42
-5.43
-6.27
-7.52
-8.29
-7.69
-5.34
-1.48
2.98
6.99
9.62
10.54
9.78
7.61
4.33
0.41
-3.40
-6.10
-6.59
-4.35
0.44
6.73
12.96
17.68
20.06
20.13
18.51
15.99
12.91
9.42
5.52
1.24
-3.27
-7.85
-12.35
-16.99
-21.35
-25.49
-29.31
-32.51
-34.86
-36.38
-37.28
-37.67
-37.51
-36.67
-35.08
-32.73
-29.88
-27.19
-25.38
-24.75
-24.68
-23.92
-21.19
-15.69
-7.14
4.27
17.91
32.20
44.13
51.52
54.51
54.55
52.85
49.90
45.87
40.86
35.16
29.22
23.73
19.17
15.58
12.70
10.28
8.43
7.24
6.68
6.55
6.62
6.61
6.20
5.32
4.16
3.43
3.63
4.88
6.77
8.71
9.96
9.97
8.57
5.95
3.07
0.97
0.85
3.56
9.03
15.57
19.91
18.22
7.23
-13.22
-39.93
-67.17
-88.83
-100.92
-102.74
-96.34
-83.94
-69.51
-53.71
-36.40
-17.68
1.74
20.74
38.47
54.54
68.44
78.59
82.63
77.77
62.49
37.74
7.08
-24.44
-51.87
-70.98
-80.51
-81.33
-74.93
-62.39
-44.22
-21.03
5.83
33.87
59.89
81.72
97.32
105.97
108.11
104.57
95.86
82.09
63.43
39.66
14.34
-8.85
-26.47
-36.49
-38.81
-35.08
-27.73
-19.20
-10.96
-3.66
2.01
5.69
7.21
6.63
4.41
1.44
-1.18
-2.38
-1.45
1.31
5.15
9.16
12.60
15.11
16.63
17.29
17.29
17.12
17.25
18.38
21.08
25.33
30.19
33.89
34.39
29.68
19.31
4.42
-12.41
-27.91
-39.10
-44.06
-42.48
-35.89
-27.43
-20.94
-19.85
-25.86
-38.14
-53.50
-67.64
-76.75
-78.85
-74.17
-64.42
-51.72
-37.66
-23.11
-8.43
6.11
19.98
32.29
41.83
47.44
48.41
44.91
38.11
30.14
23.68
21.07
23.31
29.41
36.62
41.22
39.81
29.98
11.25
-14.36
-42.46
-67.33
-83.69
-88.55
-82.32
-68.99
-55.16
-47.34
-48.72
-57.42
-67.43
-71.34
-63.82
-43.35
-12.73
21.61
52.19
73.11
81.48
77.04
61.18
35.87
3.40
-29.71
-55.53
-69.37
-71.59
-65.25
-53.41
-37.83
-19.20
3.24
30.53
61.80
93.60
120.61
137.40
140.27
131.36
112.70
88.85
65.36
46.19
32.64
24.15
19.57
17.90
18.32
19.00
18.54
16.51
12.90
8.13
2.99
-1.80
-6.00
-9.97
-14.55
-20.22
-27.19
-35.37
-45.22
-57.28
-71.46
-86.48
-99.84
-105.93
-102.73
-90.37
-71.42
-50.29
-31.39
-17.64
-9.78
-6.47
-5.51
-5.34
-5.07
-4.55
-3.70
-1.60
3.09
11.03
20.82
29.04
31.58
26.72
16.81
6.79
2.22
6.02
16.89
30.06
40.37
44.88
44.21
41.35
38.99
37.74
35.92
31.25
22.68
11.50
0.96
-5.55
-6.13
-1.28
6.58
14.26
19.18
19.82
16.09
9.02
0.01
-9.37
-17.89
-24.99
-31.03
-35.70
-39.68
-43.99
-47.28
-48.30
-45.50
-37.78
-25.44
-10.26
5.27
18.89
29.56
37.45
42.88
45.94
46.08
42.46
34.56
22.74
8.34
-6.28
-18.37
-25.97
-28.38
-26.45
-22.25
-18.03
-15.29
-14.48
-15.09
-16.33
-17.96
-20.29
-23.81
-28.96
-35.09
-41.04
-45.61
-47.92
-47.68
-45.17
-40.96
-35.48
-29.10
-22.14
-15.11
-8.72
-3.66
-0.36
1.01
0.54
-1.50
-4.78
-8.91
-13.49
-18.03
-22.15
-25.63
-28.61
-31.51
-34.69
-38.19
-41.54
-43.79
-43.81
-41.19
-35.78
-28.00
-18.84
-9.44
-0.82
6.51
12.58
17.82
22.80
27.97
33.48
39.13
44.69
49.93
54.71
58.87
62.13
64.13
64.58
63.40
60.73
56.89
52.25
47.04
41.37
35.37
29.23
23.25
17.72
12.74
8.22
3.88
-0.61
-5.48
-10.76
-16.21
-21.33
-25.37
-27.52
-27.14
-24.01
-18.56
-11.72
-4.68
1.53
6.19
8.96
9.72
8.51
5.61
1.69
-2.14
-4.62
-4.73
-2.21
2.30
7.43
11.62
13.73
13.43
11.16
7.93
4.82
2.70
2.11
3.38
6.72
12.09
18.89
25.60
29.95
29.48
22.62
9.50
-7.79
-25.94
-41.67
-52.81
-58.73
-59.80
-56.67
-49.74
-39.38
-26.53
-13.14
-1.80
5.20
6.90
4.24
-0.56
-4.97
-7.43
-7.92
-7.78
-8.91
-12.86
-20.34
-31.01
-43.68
-56.59
-67.77
-75.48
-78.75
-77.84
-74.25
-70.34
-68.34
-69.51
-73.57
-78.88
-83.26
-84.90
-83.05
-78.20
-71.62
-64.77
-58.61
-53.34
-48.39
-42.70
-35.24
-25.30
-12.74
1.99
18.03
34.38
50.22
64.90
78.03
89.27
98.21
104.47
107.88
108.70
107.69
105.87
104.22
103.29
103.06
103.03
102.49
100.85
97.80
93.31
87.51
80.60
72.84
64.63
56.48
48.98
42.47
36.93
31.82
26.35
19.84
12.07
3.42
-5.34
-13.32
-19.86
-24.65
-27.61
-28.75
-28.02
-25.52
-21.64
-17.27
-13.57
-11.71
-12.36
-15.46
-20.36
-26.11
-31.83
-37.02
-41.45
-45.01
-47.54
-48.75
-48.40
-46.48
-43.27
-39.26
-34.96
-30.69
-26.50
-22.25
-17.74
-12.84
-7.63
-2.34
2.71
7.26
11.20
14.58
17.46
19.81
21.51
22.42
22.64
22.57
22.87
24.23
26.99
30.93
35.35
39.30
42.04
43.21
42.91
41.56
39.65
37.52
35.28
32.91
30.34
27.57
24.71
21.99
19.64
17.83
16.60
15.82
15.25
14.60
13.63
12.29
10.64
8.83
7.06
5.44
4.00
2.67
1.37
0.02
-1.41
-2.91
-4.46
-5.96
-7.17
-7.76
-7.34
-5.65
-2.74
1.00
4.90
8.22
10.42
11.27
10.93
9.76
8.22
6.65
5.26
4.09
3.14
2.37
1.80
1.50
1.53
1.87
2.36
2.76
2.84
2.49
1.79
1.01
0.42
0.18
0.20
0.22
-0.09
-0.90
-2.21
-3.84
-5.58
-7.31
-9.00
-10.62
-12.05
-13.06
-13.32
-12.64
-11.07
-8.97
-6.86
-5.26
-4.52
-4.77
-5.97
-7.99
-10.65
-13.65
-16.52
-18.66
-19.50
-18.77
-16.64
-13.72
-10.82
-8.60
-7.26
-6.51
-5.66
-3.98
-0.98
3.46
9.04
15.26
21.46
27.07
31.63
34.88
36.79
37.54
37.37
36.53
35.13
33.21
30.77
27.88
24.73
21.60
18.73
16.30
14.34
12.80
11.59
10.64
9.88
9.21
8.45
7.38
5.77
3.47
0.51
-2.95
-6.61
-10.10
-13.16
-15.64
-17.59
-19.17
-20.62
-22.10
-23.62
-25.02
-26.08
-26.56
-26.35
-25.50
-24.17
-22.61
-20.99
-19.42
-17.88
-16.40
-15.02
-13.87
-13.07
-12.60
-12.30
-11.85
-10.97
-9.47
-7.42
-5.06
-2.66
-0.41
1.60
3.40
5.04
6.52
7.80
8.81
9.47
9.75
9.67
9.31
8.78
8.24
7.79
7.43
7.08
6.54
5.62
4.24
2.46
0.49
-1.42
-3.05
-4.29
-5.14
-5.67
-5.97
-6.14
-6.28
-6.48
-6.82
-7.34
-7.93
-8.33
-8.19
-7.15
-5.02
-1.90
1.85
5.70
9.11
11.70
13.31
13.99
13.88
13.18
12.03
10.54
8.90
7.30
6.03
5.34
5.43
6.31
7.82
9.61
11.31
12.62
13.44
13.94
14.45
15.37
16.94
19.08
21.40
23.38
24.58
24.92
24.66
24.31
24.32
24.89
25.84
26.86
27.72
28.55
29.82
32.20
36.14
41.69
48.40
55.53
62.39
68.56
73.95
78.64
82.62
85.66
87.34
87.32
85.55
82.39
78.52
74.55
70.81
67.30
63.79
60.16
56.60
53.52
51.32
50.10
49.53
48.98
47.90
46.06
43.64
41.04
38.55
36.20
33.82
31.20
28.05
23.87
17.61
7.84
-6.78
-26.54
-50.04
-74.18
-95.13
-109.68
-116.51
-116.53
-112.19
-106.28
-100.70
-96.02
-91.53
-86.00
-78.27
-67.69
-54.51
-39.96
-26.14
-15.40
-9.37
-8.16
-9.89
-11.22
-8.68
-0.32
13.14
28.23
39.82
42.64
32.81
9.16
-25.81
-65.79
-101.82
-124.61
-127.49
-108.79
-73.04
-29.81
9.68
36.69
47.54
43.32
27.59
4.22
-23.43
-51.87
-76.71
-92.67
-94.91
-81.34
-54.92
-23.67
2.13
14.10
8.54
-13.29
-46.78
-86.30
-124.00
-150.90
-160.40
-152.48
-133.24
-110.25
-88.65
-70.00
-53.27
-36.30
-17.87
1.34
19.23
33.66
43.77
50.10
54.36
58.49
63.97
70.70
76.92
80.06
78.11
71.34
60.81
48.59
36.82
27.05
19.64
13.86
8.65
3.89
0.08
-1.85
-1.03
2.76
8.73
15.10
19.54
19.88
14.57
3.49
-11.86
-29.06
-45.33
-58.10
-65.45
-66.45
-59.55
-46.85
-31.03
-14.82
-0.56
10.23
17.10
20.67
22.31
23.46
24.81
26.63
28.69
30.43
31.35
31.18
29.87
27.36
23.81
19.03
13.15
6.42
-0.92
-8.51
-16.14
-23.82
-31.64
-39.39
-46.14
-49.86
-48.32
-40.34
-26.96
-11.46
1.77
9.03
9.05
3.37
-4.36
-10.29
-11.84
-8.14
0.37
12.82
28.19
45.20
62.05
76.36
85.74
88.79
85.57
77.47
66.95
56.62
48.35
42.79
39.45
37.13
34.75
31.73
28.05
24.14
19.95
15.40
10.57
5.67
0.87
-3.58
-7.51
-10.86
-13.69
-17.43
-23.27
-31.45
-41.45
-52.42
-63.24
-73.01
-81.12
-87.21
-93.13
-100.34
-109.13
-119.05
-129.80
-141.03
-152.90
-165.64
-178.66
-193.17
-208.57
-222.28
-231.20
-234.16
-231.91
-227.81
-225.91
-212.85
-181.78
-133.67
-74.64
-9.82
57.31
123.48
184.17
236.29
276.34
298.96
302.31
289.69
268.84
241.11
213.59
192.88
176.11
162.05
146.67
126.67
101.35
72.65
43.48
17.31
-4.39
-21.45
-33.12
-39.99
-42.35
-40.46
-35.46
-29.48
-23.71
-19.05
-15.43
-11.21
-5.70
1.14
8.70
16.23
22.74
28.79
35.07
42.34
51.46
61.80
71.67
78.55
79.80
73.95
62.32
47.51
32.61
20.76
13.74
12.24
15.54
21.30
26.63
29.33
27.33
19.21
5.10
-12.84
-29.68
-40.25
-43.02
-43.87
-46.73
-54.09
-67.48
-84.90
-105.42
-127.81
-150.17
-170.51
-185.62
-191.72
-187.34
-174.41
-156.93
-139.50
-124.49
-105.31
-78.10
-43.31
-6.02
26.60
49.32
61.87
67.15
69.30
71.03
71.18
66.76
55.42
37.16
14.41
-7.55
-24.16
-33.91
-37.96
-39.69
-41.67
-43.82
-43.23
-36.52
-20.01
6.51
39.46
72.80
99.92
116.49
121.78
118.97
104.87
83.14
61.07
46.38
43.08
49.23
58.57
64.22
65.49
61.87
56.32
51.95
50.52
52.18
56.34
63.02
70.91
80.60
91.82
104.72
117.74
128.33
134.17
134.24
129.00
119.86
108.67
96.32
84.22
73.44
64.79
58.61
54.45
51.04
46.80
41.13
34.54
29.55
28.88
34.42
46.11
61.71
77.27
88.52
92.43
87.70
75.47
57.65
37.54
19.07
5.45
-2.38
-6.13
-9.07
-14.82
-25.55
-43.46
-67.95
-95.88
-123.35
-148.24
-170.88
-192.84
-215.85
-240.26
-268.26
-299.51
-330.65
-356.69
-374.08
-381.84
-380.69
-372.88
-360.68
-350.66
-347.14
-350.31
-356.85
-363.01
-365.94
-363.02
-352.63
-306.30
-215.76
-97.15
19.96
113.99
178.62
215.84
236.40
247.01
251.67
248.56
237.54
220.93
204.42
193.07
188.70
190.69
196.11
202.12
203.37
197.66
186.84
175.97
169.36
167.43
167.76
166.50
161.57
151.53
138.75
127.60
122.86
126.28
134.52
142.12
144.43
140.16
129.41
113.79
93.55
68.81
39.70
5.59
-33.13
-74.63
-116.00
-155.36
-191.36
-224.65
-254.96
-270.42
-260.58
-224.14
-171.14
-115.58
-72.62
-40.74
-16.48
3.67
22.02
39.41
54.89
67.84
78.73
88.56
98.45
106.90
111.93
108.66
94.84
73.13
50.05
32.20
23.23
23.73
30.54
39.46
45.02
42.78
29.48
4.31
-30.49
-70.18
-108.70
-141.75
-158.93
-156.11
-135.85
-105.73
-73.81
-45.38
-22.36
-4.40
9.17
19.11
24.92
26.89
26.01
23.90
22.10
21.47
22.13
23.57
25.24
25.89
25.12
23.30
21.35
20.12
19.92
20.62
21.77
22.95
23.39
22.89
21.77
20.65
20.06
20.07
20.45
20.72
20.48
19.22
16.70
12.87
7.73
1.47
-5.59
-12.69
-19.05
-24.02
-27.45
-29.58
-30.55
-30.24
-28.21
-24.39
-19.08
-13.73
-10.19
-9.75
-12.31
-16.29
-19.31
-19.26
-15.34
-7.06
5.23
21.00
39.58
59.51
78.41
93.31
101.74
102.21
96.39
86.84
76.55
67.99
62.61
60.94
62.91
67.90
73.84
79.10
80.77
75.53
61.57
39.49
12.21
-16.15
-37.29
-54.53
-66.62
-74.13
-77.95
-78.60
-76.38
-72.15
-67.21
-62.90
-60.58
-59.22
-57.67
-54.75
-49.73
-42.94
-36.26
-31.59
-29.61
-30.02
-30.73
-30.44
-29.38
-28.52
-28.93
-32.42
-39.23
-47.64
-55.16
-59.33
-59.18
-56.00
-51.12
-45.15
-40.56
-39.12
-41.40
-47.09
-55.57
-65.81
-77.98
-91.53
-105.50
-122.73
-145.95
-176.06
-211.69
-250.49
-289.49
-328.35
-366.67
-384.61
-368.83
-320.55
-253.52
-180.41
-113.45
-46.86
20.77
87.83
153.10
208.69
249.72
276.34
293.04
305.71
320.15
338.26
360.28
384.69
406.66
420.07
419.28
401.42
367.60
323.16
273.95
226.03
183.76
148.97
121.39
99.65
82.77
70.40
62.81
58.96
57.84
47.57
24.17
-7.34
-38.39
-63.66
-82.35
-95.31
-103.73
-108.28
-109.74
-107.91
-103.69
-98.94
-95.43
-93.76
-93.36
-93.37
-93.00
-91.74
-88.21
-82.11
-74.46
-67.16
-61.66
-58.41
-56.71
-55.04
-51.21
-42.42
-26.92
-4.87
20.71
44.41
59.71
61.31
47.24
20.12
-12.98
-43.23
-62.63
-67.61
-59.92
-45.15
-29.87
-19.13
-15.67
-19.87
-30.38
-43.73
-56.38
-65.85
-70.78
-70.93
-66.90
-58.58
-47.01
-32.60
-12.81
15.20
51.94
94.56
137.55
174.68
200.70
213.94
207.64
182.90
148.89
116.64
92.19
75.97
68.08
66.94
73.55
89.14
114.53
147.70
181.78
209.98
228.46
237.38
238.55
234.76
228.10
220.57
212.95
205.15
197.29
189.72
182.21
171.10
153.30
127.71
96.01
60.56
22.96
-15.88
-55.45
-95.04
-137.44
-181.87
-223.85
-258.02
-282.22
-298.05
-308.66
-316.73
-323.50
-335.24
-353.14
-372.81
-388.67
-398.88
-405.95
-414.41
-428.79
-452.20
-493.34
-551.49
-614.49
-665.06
-689.90
-683.74
-649.08
-594.08
-477.09
-300.34
-104.84
63.28
184.88
264.34
312.94
340.02
351.95
353.71
341.74
317.73
289.85
267.11
253.25
246.36
242.40
238.02
231.76
217.66
195.26
170.12
149.13
135.58
128.85
126.67
126.85
127.77
124.03
113.04
96.12
76.79
58.27
43.08
33.22
29.69
31.73
34.80
34.85
30.49
22.87
14.36
7.23
2.63
0.10
-2.14
-6.81
-15.05
-25.67
-35.94
-43.28
-46.48
-45.98
-43.21
-39.60
-35.80
-31.49
-25.75
-17.99
-8.52
1.35
9.83
15.51
17.85
17.36
15.14
12.41
10.03
8.43
7.68
7.58
7.76
7.78
7.24
5.92
3.96
1.75
-0.26
-1.82
-2.98
-3.99
-5.08
-6.33
-7.63
-8.86
-10.17
-11.96
-14.75
-18.76
-23.65
-28.45
-31.81
-32.44
-29.63
-23.51
-14.96
-5.34
4.03
12.16
18.58
23.27
26.46
28.44
29.43
29.49
28.67
27.06
24.89
22.56
20.47
18.95
18.02
17.45
16.86
16.01
14.90
13.81
12.99
12.41
11.71
10.39
8.11
5.03
1.76
-1.00
-2.90
-4.24
-5.86
-8.71
-13.29
-19.28
-25.64
-30.91
-33.76
-33.37
-29.61
-23.04
-14.68
-5.86
2.18
8.49
12.65
14.81
15.53
15.48
15.16
14.84
14.60
14.56
14.96
16.03
17.81
20.03
22.18
23.66
24.19
23.74
22.51
20.71
18.43
15.60
12.23
8.48
4.67
1.11
-2.13
-5.21
-8.54
-12.42
-16.86
-21.51
-25.66
-28.54
-29.50
-28.24
-24.82
-19.65
-13.32
-6.52
0.18
6.35
11.81
16.49
20.40
23.45
25.54
26.60
26.70
26.13
25.28
24.49
23.85
23.13
21.93
19.93
17.07
13.63
10.03
6.65
3.58
0.69
-2.23
-5.33
-8.58
-11.78
-14.74
-17.41
-19.95
-22.72
-26.05
-30.09
-34.67
-39.19
-42.77
-44.47
-43.54
-39.69
-33.19
-24.72
-15.26
-5.77
2.97
10.48
16.44
20.80
23.59
24.95
25.16
24.55
23.50
22.36
21.30
20.35
19.35
18.16
16.70
15.09
13.62
12.51
11.81
11.33
10.70
9.66
8.18
6.45
4.78
3.33
1.98
0.41
-1.70
-4.52
-7.99
-11.79
-15.57
-18.90
-21.35
-22.45
-21.78
-19.09
-14.52
-8.60
-2.18
3.80
8.62
11.93
13.81
14.54
14.51
14.01
13.22
12.22
11.11
9.99
9.04
8.44
8.29
8.60
9.27
10.08
10.73
10.98
10.72
9.97
8.93
7.84
6.95
6.35
6.00
5.74
5.34
4.58
3.26
1.30
-1.25
-4.04
-6.50
-7.94
-7.70
-5.51
-1.49
3.84
9.78
15.63
20.87
25.16
28.27
30.08
30.51
29.60
27.57
24.82
21.86
19.12
16.94
15.47
14.69
14.56
14.97
15.83
16.96
18.07
18.81
18.79
17.80
15.88
13.40
10.86
8.75
7.33
6.54
6.12
5.69
4.93
3.59
1.59
-0.96
-3.69
-5.91
-6.73
-5.37
-1.46
4.68
12.11
19.57
25.92
30.54
33.43
35.03
35.88
36.37
36.64
36.58
36.05
34.94
33.23
31.00
28.41
25.69
23.03
20.62
18.48
16.49
14.39
11.86
8.68
4.86
0.69
-3.41
-7.09
-10.25
-13.02
-15.71
-18.49
-21.25
-23.63
-25.19
-25.73
-25.55
-25.32
-25.86
-27.80
-31.24
-35.76
-40.55
-44.75
-47.69
-49.01
-48.62
-46.53
-42.95
-38.37
-33.75
-30.43
-29.77
-32.55
-38.37
-45.64
-52.04
-55.46
-54.81
-50.34
-43.39
-35.65
-28.51
-22.74
-18.48
-15.54
-13.67
-12.71
-12.59
-13.25
-14.52
-15.98
-16.93
-16.49
-13.95
-9.01
-2.05
6.09
14.45
22.36
29.67
36.62
43.41
49.96
55.80
60.34
63.14
64.20
63.82
62.51
60.61
58.25
55.30
51.53
46.85
41.36
35.42
29.55
24.25
19.85
16.42
13.74
11.43
9.05
6.29
3.00
-0.77
-4.86
-9.04
-13.08
-16.76
-19.89
-22.22
-23.61
-24.00
-23.55
-22.65
-21.74
-21.13
-20.78
-20.30
-19.12
-16.81
-13.35
-9.10
-4.66
-0.57
2.93
5.91
8.49
10.75
12.46
13.29
12.97
11.47
9.05
6.18
3.33
0.84
-1.19
-2.85
-4.27
-5.54
-6.64
-7.50
-8.07
-8.39
-8.60
-8.83
-9.20
-9.70
-10.24
-10.71
-11.01
-11.18
-11.37
-11.82
-12.69
-14.02
-15.59
-16.96
-17.54
-16.76
-14.33
-10.36
-5.35
0.01
5.05
9.35
12.72
15.17
16.75
17.52
17.48
16.75
15.54
14.16
12.90
11.93
11.22
10.61
9.87
8.80
7.36
5.69
4.10
2.91
2.34
2.34
2.59
2.64
2.11
0.89
-0.87
-2.82
-4.66
-6.29
-7.82
-9.49
-11.48
-13.82
-16.32
-18.60
-20.23
-20.80
-20.03
-17.80
-14.28
-9.85
-5.01
-0.27
3.94
7.35
9.84
11.40
12.14
12.24
11.97
11.54
11.11
10.70
10.19
9.47
8.52
7.44
6.48
5.86
5.65
5.76
5.96
6.05
5.92
5.61
5.21
4.75
4.16
3.30
2.08
0.54
-1.15
-2.77
-4.16
-5.30
-6.30
-7.31
-8.49
-9.89
-11.52
-13.30
-15.07
-16.58
-17.51
-17.55
-16.43
-14.10
-10.72
-6.65
-2.32
1.85
5.56
8.64
11.07
12.92
14.31
15.40
16.29
17.05
17.63
17.88
17.65
16.90
15.73
14.42
13.30
12.59
12.31
12.28
12.20
11.83
11.07
10.03
8.97
8.15
7.76
7.78
8.03
8.27
8.21
7.72
6.77
5.44
3.78
1.84
-0.45
-3.11
-6.12
-9.45
-13.06
-17.16
-22.14
-28.44
-36.20
-44.97
-53.84
-61.72
-67.85
-72.12
-74.93
-76.71
-77.46
-76.54
-72.99
-66.17
-56.25
-44.24
-31.65
-19.77
-9.25
-0.05
8.17
15.61
22.08
27.07
30.13
31.17
30.66
29.46
28.49
28.33
29.13
30.63
32.39
34.00
35.21
35.95
36.27
36.20
35.77
34.97
33.82
32.33
30.46
28.18
25.41
22.19
18.71
15.36
12.65
11.02
10.74
11.72
13.62
15.91
18.06
19.70
20.70
21.09
20.95
20.37
19.42
18.20
16.87
15.65
14.66
13.97
13.42
12.78
11.79
10.34
8.44
6.26
3.97
1.71
-0.41
-2.30
-3.86
-4.91
-5.28
-4.85
-3.66
-1.96
-0.08
1.63
2.91
3.69
4.03
4.01
3.68
3.04
2.09
1.01
0.20
0.13
1.19
3.45
6.57
9.89
12.68
14.42
14.81
13.82
11.47
7.70
2.36
-4.83
-14.13
-25.76
-39.84
-56.39
-75.13
-95.46
-116.32
-136.17
-153.13
-165.22
-170.76
-168.75
-159.21
-143.17
-122.40
-98.92
-74.46
-50.26
-27.08
-5.55
13.59
29.34
40.76
47.30
49.10
46.91
41.89
35.30
28.35
22.19
17.79
15.92
16.84
20.25
25.45
31.51
37.61
43.25
48.26
52.85
57.30
61.74
66.11
70.33
74.24
77.62
80.15
81.44
81.20
79.18
75.14
68.95
60.98
51.91
42.67
34.28
27.50
23.16
21.64
22.79
25.92
30.85
36.98
43.39
49.05
52.80
54.99
56.65
58.82
62.16
68.24
77.59
89.59
102.76
114.52
124.60
133.55
141.64
148.72
156.30
164.68
172.90
178.95
179.50
175.47
169.54
164.24
161.35
164.05
172.97
186.27
199.94
207.80
209.88
210.02
213.59
204.08
173.03
121.87
60.18
10.93
-32.74
-79.11
-130.95
-190.42
-252.89
-309.68
-354.73
-382.67
-390.11
-380.95
-360.02
-332.48
-301.26
-266.19
-224.18
-177.05
-126.77
-80.43
-49.72
-40.98
-53.85
-81.91
-116.01
-145.07
-159.55
-153.23
-121.73
-71.26
-15.14
31.11
57.13
61.46
48.47
22.44
-12.89
-55.65
-103.95
-153.64
-199.07
-227.86
-231.49
-209.06
-168.10
-120.04
-75.58
-41.67
-19.61
-6.20
3.59
12.69
21.43
28.40
32.43
33.03
30.43
25.62
20.35
16.65
15.30
16.38
19.65
25.39
33.73
44.08
55.13
65.28
73.30
78.07
79.67
78.05
73.87
67.92
60.83
53.04
45.24
38.37
33.04
29.24
25.89
21.80
15.67
7.04
-3.08
-12.53
-18.81
-20.37
-17.34
-11.54
-5.50
-1.70
-1.69
-5.81
-13.22
-22.24
-31.23
-38.53
-43.38
-45.77
-46.28
-45.57
-43.90
-40.88
-35.79
-28.11
-18.12
-7.29
2.17
8.22
9.73
6.86
1.02
-5.88
-11.84
-15.45
-16.38
-15.08
-12.31
-8.93
-5.89
-4.18
-4.66
-7.62
-12.70
-19.10
-25.31
-29.19
-28.80
-23.20
-12.76
1.45
17.30
32.07
43.21
47.84
45.28
38.06
30.56
27.72
30.04
36.60
46.07
55.82
63.75
68.75
70.36
68.47
63.25
55.72
47.98
42.20
39.74
41.15
46.32
53.97
61.63
65.92
64.00
54.31
36.36
10.79
-20.17
-51.65
-75.96
-86.94
-84.55
-73.23
-57.95
-41.87
-26.31
-11.67
1.32
9.44
9.98
0.99
-15.74
-34.72
-48.99
-53.09
-45.16
-27.68
-7.47
9.05
14.96
7.33
-12.36
-40.14
-71.59
-103.31
-127.30
-136.70
-129.27
-108.89
-81.65
-52.74
-25.68
-2.58
15.61
28.96
37.37
41.06
40.65
38.02
35.34
34.07
34.61
36.54
39.11
41.06
41.51
40.25
38.13
36.35
35.55
35.86
36.90
38.23
39.26
39.68
39.59
39.53
39.91
40.48
40.80
40.18
38.09
34.22
28.75
22.17
15.03
7.50
-1.08
-11.04
-22.61
-35.44
-48.46
-60.34
-69.78
-75.81
-78.29
-78.28
-76.60
-74.79
-74.72
-78.15
-86.01
-97.07
-107.56
-109.14
-98.20
-73.32
-38.14
-0.27
31.77
51.76
58.79
56.85
52.60
51.23
56.59
69.42
88.27
110.06
129.60
141.55
141.84
129.04
103.17
71.98
44.15
26.01
19.36
19.20
20.01
18.18
12.23
2.15
-10.31
-22.79
-31.85
-33.25
-25.61
-7.76
20.59
56.41
92.90
121.09
132.54
122.51
90.80
36.64
-37.56
-122.90
-208.83
-286.27
-348.58
-391.04
-410.40
-384.33
-309.93
-208.04
-109.56
-35.54
10.25
35.00
48.79
59.20
69.33
75.27
73.89
67.05
59.15
55.21
57.64
66.24
79.29
94.36
106.70
113.72
116.43
113.05
104.98
93.85
81.20
68.35
56.27
43.95
30.84
17.60
5.35
-4.47
-11.60
-16.23
-18.47
-18.26
-16.23
-12.59
-6.79
1.89
13.79
27.01
37.87
42.03
36.43
20.65
-2.14
-26.20
-45.56
-56.24
-57.97
-53.47
-46.43
-39.58
-33.86
-29.17
-25.52
-24.28
-27.41
-36.74
-52.51
-72.67
-93.12
-108.99
-116.56
-114.52
-104.41
-89.72
-74.63
-62.49
-54.94
-51.74
-51.23
-51.30
-50.10
-46.43
-39.91
-30.67
-18.79
-4.10
13.78
34.74
57.54
79.50
97.18
107.40
108.49
101.08
87.92
72.90
59.45
49.46
42.98
39.13
36.82
35.57
35.76
38.17
43.33
50.79
59.19
66.54
71.60
73.44
71.45
65.25
54.84
40.53
22.99
3.62
-15.61
-31.10
-40.11
-42.04
-38.37
-31.59
-23.99
-16.96
-10.39
-3.79
5.00
16.23
27.43
35.09
37.21
34.59
30.38
29.66
36.86
57.14
91.66
136.05
181.57
218.29
238.15
236.98
216.83
167.56
92.29
6.91
-68.97
-123.83
-155.66
-166.28
-157.78
-131.23
-90.49
-40.13
12.07
57.23
88.90
105.67
110.69
98.12
71.41
36.30
0.60
-30.00
-53.06
-68.87
-79.08
-85.67
-90.57
-93.32
-93.45
-89.19
-79.94
-67.48
-55.69
-48.54
-48.70
-56.66
-69.31
-82.88
-93.26
-97.90
-96.52
-90.72
-82.92
-75.10
-68.69
-63.79
-60.34
-57.72
-54.93
-50.87
-44.46
-35.36
-23.32
-9.39
4.71
16.88
25.89
32.07
36.89
42.10
48.88
58.21
69.40
80.40
88.88
93.53
94.37
92.37
89.15
87.00
89.77
100.09
117.57
138.31
155.94
163.49
155.74
131.41
87.61
31.60
-22.52
-62.16
-83.50
-90.77
-90.54
-87.26
-82.36
-75.71
-66.41
-55.54
-45.87
-40.05
-38.86
-40.82
-43.36
-44.25
-42.46
-37.54
-30.68
-24.16
-20.06
-19.03
-20.10
-21.59
-22.02
-20.72
-17.43
-12.89
-8.51
-5.58
-4.48
-4.61
-4.99
-4.83
-3.77
-1.82
0.61
2.79
4.21
4.85
5.16
5.66
6.64
8.02
9.47
10.59
11.15
11.23
11.31
11.93
13.40
15.47
17.38
18.05
16.65
12.93
7.31
0.84
-5.38
-10.68
-15.16
-19.55
-24.80
-31.53
-39.46
-47.56
-54.48
-59.19
-61.36
-61.22
-59.21
-55.79
-51.75
-48.41
-47.55
-50.41
-56.47
-62.80
-64.76
-58.07
-41.19
-16.55
10.17
32.65
46.83
52.33
51.84
49.05
46.49
44.66
42.69
39.75
36.24
33.87
34.62
39.32
46.97
55.12
60.87
62.18
58.24
49.76
38.46
26.52
16.01
8.57
5.16
5.19
8.28
12.57
15.92
17.07
16.21
14.54
13.21
12.39
11.20
8.44
3.59
-2.44
-7.50
-9.35
-6.83
-0.70
6.66
12.41
14.35
11.93
6.47
0.49
-3.28
-2.83
2.53
11.83
22.26
29.45
28.49
15.73
-9.10
-42.39
-77.15
-105.44
-121.36
-123.22
-113.63
-97.97
-81.85
-69.05
-60.46
-54.34
-47.56
-36.93
-20.60
1.22
25.96
49.43
66.74
74.74
73.64
66.31
56.31
46.05
36.10
25.97
15.40
5.40
-1.77
-3.97
-0.53
7.33
17.06
26.09
32.56
35.77
35.93
33.87
30.65
27.19
23.98
20.63
15.98
8.51
-2.94
-18.16
-35.19
-50.86
-62.09
-66.37
-64.12
-57.58
-49.45
-41.70
-35.23
-30.37
-27.48
-26.79
-27.97
-29.36
-28.20
-21.79
-9.21
7.98
26.24
41.79
52.36
57.61
58.20
54.62
46.43
32.73
13.80
-7.82
-27.60
-40.77
-44.73
-40.29
-30.95
-21.03
-13.56
-9.07
-5.86
-1.42
6.12
16.93
28.62
37.91
41.65
37.65
25.53
6.50
-17.38
-44.08
-72.04
-99.78
-124.97
-144.05
-152.68
-147.19
-126.54
-93.30
-53.40
-14.55
15.84
32.32
32.13
15.31
-15.33
-54.54
-95.16
-129.35
-150.29
-153.98
-140.07
-111.63
-73.63
-31.30
11.15
50.89
86.21
116.18
140.48
159.42
173.90
184.97
193.23
198.24
198.38
191.32
175.04
148.78
113.66
72.57
29.69
-10.47
-43.88
-67.59
-80.30
-82.49
-76.40
-65.43
-53.09
-41.85
-32.61
-24.82
-17.28
-9.02
0.16
9.69
18.62
25.97
30.90
32.31
28.56
17.80
-1.16
-27.83
-59.41
-90.90
-116.19
-129.41
-127.16
-109.66
-80.53
-45.03
-7.83
28.71
64.85
101.98
141.31
180.85
214.85
235.87
237.91
218.99
181.78
132.42
78.50
28.70
-10.01
-33.07
-37.99
-24.07
7.17
51.34
101.17
148.02
185.89
210.95
221.47
218.04
203.41
181.64
156.86
132.09
96.77
47.40
-11.75
-71.32
-122.35
-159.72
-181.54
-188.17
-182.06
-167.81
-149.39
-130.03
-112.58
-98.41
-86.82
-75.44
-61.74
-44.57
-24.54
-5.95
7.50
12.91
9.92
0.78
-10.58
-20.47
-26.72
-29.18
-28.36
-24.73
-20.62
-18.61
-20.71
-27.50
-38.04
-50.60
-63.36
-74.25
-81.30
-83.21
-78.16
-65.18
-43.70
-13.93
22.38
61.37
97.66
125.41
139.14
134.82
111.47
72.38
24.33
-24.45
-66.51
-96.71
-112.81
-112.23
-96.66
-73.55
-52.54
-39.88
-35.99
-37.25
-39.17
-38.79
-35.47
-30.75
-26.45
-23.02
-19.51
-14.81
-8.72
-2.14
3.42
6.72
6.95
4.30
0.15
-3.50
-5.16
-4.30
-1.44
2.26
5.51
6.92
5.80
2.47
-1.81
-5.46
-7.17
-6.47
-3.63
0.40
4.20
6.69
7.23
5.48
1.02
-6.35
-15.99
-25.73
-31.96
-30.95
-20.73
-2.56
19.13
37.85
48.60
49.88
43.73
34.22
25.04
17.94
12.68
8.27
4.28
1.30
0.39
2.01
5.45
9.06
11.19
10.85
8.41
5.24
3.03
2.88
4.83
7.87
10.61
11.90
11.39
9.58
7.42
5.82
5.34
6.16
8.17
10.96
13.59
14.58
12.19
5.14
-6.70
-21.75
-37.04
-49.16
-55.59
-55.45
-49.53
-39.55
-27.24
-14.04
-1.21
9.53
15.87
15.52
7.44
-7.05
-23.91
-37.49
-42.45
-36.02
-19.21
3.47
25.78
42.01
49.02
46.85
38.00
25.89
13.29
1.58
-8.98
-18.42
-26.20
-31.11
-31.86
-27.94
-20.19
-10.58
-1.43
5.77
10.92
15.05
19.56
25.08
30.81
34.70
34.27
27.78
15.21
-1.54
-19.22
-34.28
-44.15
-48.01
-46.76
-42.48
-37.46
-33.38
-30.91
-29.73
-28.99
-27.73
-25.22
-21.07
-15.30
-8.44
-1.49
4.37
8.07
9.03
7.09
2.36
-4.97
-14.66
-26.02
-37.54
-46.61
-49.96
-44.77
-29.92
-7.01
19.68
44.13
60.52
65.19
57.91
41.95
22.79
6.24
-3.43
-4.48
2.32
14.63
29.57
44.43
56.85
64.63
65.77
58.82
43.57
21.53
-3.98
-28.63
-48.25
-60.09
-63.50
-59.96
-52.26
-43.40
-35.52
-29.28
-24.02
-18.55
-11.99
-4.25
4.18
12.77
21.50
30.79
41.02
51.89
62.31
71.01
77.36
81.97
86.18
90.84
94.79
94.47
85.24
63.98
31.57
-6.52
-41.90
-66.66
-76.67
-73.07
-61.40
-48.76
-40.72
-39.39
-43.65
-50.66
-57.74
-63.32
-66.84
-68.19
-67.03
-62.79
-55.25
-45.20
-34.82
-27.17
-25.08
-29.68
-39.96
-52.80
-63.78
-68.69
-64.94
-52.50
-33.84
-13.04
6.01
20.02
27.34
28.60
26.55
25.08
27.80
37.05
53.44
76.74
105.16
136.18
167.58
197.85
226.03
251.16
272.01
286.84
294.26
291.64
276.05
245.90
202.19
148.64
90.67
33.97
-22.23
-73.30
-113.34
-139.00
-151.12
-152.97
-147.97
-138.91
-128.03
-117.18
-106.87
-97.84
-90.80
-85.83
-82.21
-78.83
-74.83
-69.80
-63.89
-56.98
-49.88
-43.81
-39.67
-37.41
-36.10
-34.48
-31.45
-26.59
-19.92
-12.68
-6.76
-3.61
-3.40
-4.84
-5.78
-4.16
0.98
8.98
17.50
23.43
24.51
20.17
11.87
1.80
-8.57
-18.93
-29.45
-39.55
-47.32
-50.46
-48.03
-41.94
-36.12
-33.71
-34.46
-34.08
-26.63
-9.27
14.73
36.84
48.01
44.40
30.08
14.59
7.50
13.20
28.11
42.90
47.99
38.34
15.81
-12.18
-36.68
-50.16
-47.65
-28.19
4.88
45.64
86.92
122.63
148.90
163.05
161.63
145.68
119.63
89.12
59.80
34.89
15.63
1.13
-13.54
-33.12
-58.76
-88.32
-118.36
-144.77
-165.56
-179.49
-186.37
-190.50
-196.79
-207.88
-224.39
-246.46
-272.36
-300.67
-328.00
-332.27
-302.86
-248.07
-187.34
-134.29
-97.46
-64.71
-26.18
23.40
85.01
153.40
220.07
279.85
331.95
376.88
414.60
440.69
450.15
440.35
410.92
367.01
318.61
275.79
243.51
221.34
203.97
186.77
168.20
147.93
126.78
105.97
86.06
66.43
46.72
26.74
7.83
-7.58
-18.12
-23.62
-25.00
-24.31
-24.64
-28.97
-39.68
-57.13
-79.72
-104.93
-129.95
-152.29
-170.04
-181.87
-186.80
-184.26
-174.11
-157.05
-135.15
-112.05
-92.58
-81.81
-83.56
-98.95
-125.42
-157.05
-186.31
-206.49
-213.83
-208.45
-193.70
-174.30
-154.34
-135.83
-118.61
-101.53
-83.73
-65.54
-48.32
-33.68
-22.86
-16.30
-13.69
-14.50
-18.69
-26.97
-40.39
-59.53
-83.86
-111.65
-139.91
-164.41
-180.46
-184.66
-176.45
-158.26
-134.23
-108.40
-83.91
-61.88
-40.75
-16.88
13.64
53.69
104.99
167.84
240.34
315.75
383.12
431.24
453.00
447.29
418.85
376.43
329.48
284.87
243.07
199.41
149.15
90.80
25.28
-46.38
-124.00
-207.44
-281.61
-324.58
-323.54
-283.50
-218.99
-144.83
-73.36
-13.65
29.67
56.70
71.23
75.52
72.53
66.90
63.17
64.03
70.33
81.77
96.75
111.77
122.50
126.66
124.76
118.75
110.35
100.61
90.23
79.59
67.84
53.14
34.52
12.62
-10.96
-34.55
-56.88
-77.29
-95.84
-113.55
-131.97
-151.82
-172.86
-194.47
-216.19
-237.66
-258.14
-275.95
-288.52
-292.99
-286.64
-268.53
-240.33
-205.97
-169.91
-135.37
-103.32
-72.75
-42.07
-9.80
23.04
52.79
74.60
84.98
83.48
72.93
58.35
45.10
39.30
44.11
58.77
79.28
100.39
116.61
122.65
113.92
88.10
50.15
8.99
-24.60
-40.42
-30.76
7.23
69.53
145.66
221.47
287.50
337.20
367.47
379.10
377.40
370.34
365.08
365.39
345.79
292.97
213.20
127.38
53.42
-2.15
-41.36
-69.90
-93.20
-114.24
-129.12
-133.91
-128.18
-115.86
-102.43
-92.54
-88.73
-91.00
-97.01
-100.26
-96.16
-84.98
-71.70
-62.71
-62.76
-73.38
-92.98
-117.57
-140.09
-154.59
-158.06
-150.69
-134.50
-112.50
-88.45
-66.29
-49.31
-38.03
-31.08
-26.04
-20.64
-13.61
-5.29
2.47
7.28
7.37
3.09
-3.59
-10.03
-14.18
-15.41
-14.72
-14.92
-18.97
-29.16
-45.85
-67.00
-88.64
-105.95
-114.78
-112.74
-99.70
-77.51
-49.39
-19.27
8.83
31.13
44.38
46.29
36.05
14.97
-13.29
-43.10
-68.03
-82.43
-83.24
-70.71
-48.30
-21.20
5.52
28.41
46.23
59.45
69.20
76.26
80.61
81.56
78.29
70.35
57.78
41.10
21.31
0.06
-20.13
-35.96
-44.09
-42.33
-30.92
-13.11
5.51
18.73
21.78
12.84
-6.66
-32.91
-61.11
-86.85
-106.77
-118.84
-122.25
-117.57
-106.68
-92.72
-79.36
-69.90
-66.44
-69.35
-77.41
-88.22
-98.85
-106.42
-108.64
-104.31
-93.62
-78.15
-60.51
-43.49
-29.23
-18.77
-12.11
-8.64
-7.61
-7.91
-7.86
-4.91
3.94
20.91
46.21
77.33
109.69
138.21
159.15
171.32
176.10
176.35
175.01
173.88
173.14
171.68
167.87
160.60
150.06
138.12
127.87
122.53
124.18
132.82
146.40
161.83
176.34
188.61
198.79
207.78
216.06
223.15
227.69
228.23
223.98
214.99
201.92
185.47
166.29
145.15
123.43
103.07
86.10
73.73
65.76
60.61
56.22
51.05
44.98
39.32
36.16
37.35
43.48
53.39
64.31
72.59
74.59
67.64
50.60
24.12
-9.58
-47.06
-84.19
-116.80
-141.25
-155.27
-158.44
-152.35
-140.14
-125.48
-111.50
-99.96
-91.18
-84.35
-78.24
-71.74
-64.31
-56.07
-47.78
-40.60
-35.84
-34.55
-37.20
-43.41
-51.89
-60.76
-68.13
-72.76
-74.56
-74.74
-75.37
-78.67
-85.97
-97.05
-109.95
-121.41
-127.72
-125.78
-114.12
-93.73
-68.38
-44.01
-27.05
-22.14
-30.14
-47.61
-68.05
-84.49
-92.09
-89.71
-79.44
-65.01
-49.90
-36.22
-24.73
-15.32
-7.70
-1.62
3.03
6.15
7.48
6.61
3.50
-1.23
-6.15
-9.61
-10.60
-9.47
-7.99
-8.65
-13.54
-23.39
-37.31
-53.10
-67.96
-79.22
-84.76
-83.32
-74.61
-59.49
-39.76
-17.93
3.26
21.45
35.07
43.57
47.32
47.27
44.51
39.98
34.38
28.29
22.15
16.25
10.59
4.85
-1.40
-8.36
-15.75
-22.99
-29.57
-35.48
-41.13
-47.02
-53.17
-58.86
-62.97
-64.67
-64.01
-61.91
-59.70
-58.35
-58.02
-58.12
-57.65
-55.79
-51.99
-46.20
-38.71
-30.12
-21.33
-13.27
-6.65
-1.61
2.27
5.82
9.87
14.88
20.91
27.66
34.70
41.53
47.69
52.68
56.09
57.74
57.72
56.46
54.64
52.90
51.69
51.13
51.00
50.85
50.24
48.90
46.84
44.28
41.44
38.34
34.77
30.40
25.19
19.62
14.75
11.85
11.93
15.26
21.24
28.61
36.00
42.33
47.10
50.29
52.17
52.98
52.85
51.76
49.70
46.78
43.25
39.50
35.95
32.89
30.43
28.44
26.65
24.82
22.81
20.63
18.38
16.15
13.97
11.86
9.76
7.64
5.42
2.96
0.12
-3.26
-7.21
-11.64
-16.22
-20.48
-23.80
-25.54
-25.16
-22.41
-17.48
-11.05
-4.17
2.05
6.77
9.63
10.73
10.53
9.56
8.29
7.03
5.95
5.09
4.40
3.75
2.99
2.00
0.82
-0.40
-1.37
-1.84
-1.67
-0.94
0.11
1.14
1.83
1.94
1.39
0.20
-1.48
-3.44
-5.48
-7.45
-9.24
-10.76
-11.88
-12.39
-12.04
-10.54
-7.77
-3.83
0.94
5.99
10.68
14.38
16.64
17.28
16.40
14.34
11.59
8.65
5.89
3.50
1.54
-0.03
-1.25
-2.15
-2.79
-3.30
-3.93
-4.94
-6.53
-8.69
-11.22
-13.80
-16.15
-18.15
-19.83
-21.44
-23.22
-25.40
-28.11
-31.33
-34.95
-38.69
-42.10
-44.58
-45.50
-44.33
-40.96
-35.76
-29.62
-23.69
-19.04
-16.31
-15.57
-16.45
-18.39
-20.94
-23.94
-27.45
-31.60
-36.32
-41.32
-46.11
-50.25
-53.57
-56.17
-58.35
-60.33
-62.18
-63.76
-64.89
-65.29
-64.48
-61.43
-54.60
-42.39
-24.01
-0.23
26.50
52.74
75.36
92.74
105.07
113.80
120.53
126.09
130.29
132.46
132.08
129.18
124.27
117.84
110.03
100.63
89.35
76.23
61.82
47.05
33.03
20.68
10.60
2.98
-2.41
-6.09
-8.74
-10.99
-13.23
-15.55
-17.78
-19.64
-20.86
-21.37
-21.31
-21.07
-21.10
-21.85
-23.60
-26.37
-29.79
-33.22
-35.84
-36.81
-35.60
-32.01
-26.27
-19.01
-11.09
-3.45
3.05
7.84
10.70
11.82
11.68
10.89
10.02
9.42
9.19
9.19
9.19
8.97
8.48
7.83
7.19
6.67
6.24
5.67
4.67
3.03
0.67
-2.30
-5.65
-9.12
-12.51
-15.70
-18.70
-21.62
-24.65
-27.98
-31.63
-35.41
-38.87
-41.40
-42.47
-41.78
-39.41
-35.83
-31.71
-27.74
-24.47
-22.25
-21.21
-21.29
-22.29
-23.87
-25.64
-27.18
-28.10
-28.11
-27.04
-24.82
-21.49
-17.13
-11.94
-6.24
-0.44
4.93
9.42
12.71
14.76
15.79
16.11
15.98
15.50
14.59
13.15
11.11
8.60
5.83
3.02
0.40
-1.89
-3.70
-4.77
-4.76
-3.36
-0.44
3.86
9.11
14.71
20.09
24.79
28.56
31.34
33.12
33.97
34.00
33.42
32.53
31.70
31.21
31.13
31.20
30.94
29.79
27.30
23.37
18.21
12.28
6.18
0.45
-4.48
-8.36
-11.09
-12.75
-13.55
-13.74
-13.58
-13.24
-12.76
-12.04
-10.95
-9.29
-7.00
-4.06
-0.61
3.17
7.07
10.92
14.54
17.78
20.47
22.46
23.64
24.08
