1593536265.00
64.000000
-0.00
-0.00
-0.00
-0.00
-0.00
-0.00
-0.00
-0.00
-0.00
-0.00
0.00
0.01
0.01
-0.00
-0.03
-0.05
-0.05
0.00
0.13
0.36
0.66
1.01
1.37
1.72
2.06
2.40
2.79
3.24
3.80
4.42
5.06
5.66
6.20
6.68
7.15
7.68
8.31
9.14
10.09
11.04
11.88
12.56
13.14
13.76
14.65
15.96
17.91
20.32
22.90
25.38
27.58
29.57
31.68
34.32
37.81
42.54
48.15
54.10
59.83
64.97
69.58
74.14
79.34
85.71
93.76
103.00
112.62
121.73
129.77
136.75
143.30
150.75
157.77
166.64
177.95
191.79
206.97
220.57
228.25
225.36
208.53
176.87
132.76
80.05
23.07
-34.94
-92.44
-149.16
-205.23
-260.37
-313.74
-363.87
-409.83
-450.91
-486.50
-515.74
-537.23
-549.22
-549.96
-538.37
-514.21
-478.67
-433.88
-382.45
-327.02
-269.84
-212.63
-156.66
-102.95
-52.37
-5.90
35.58
71.43
101.35
125.50
144.38
158.69
169.15
176.37
180.75
182.57
182.07
179.51
175.23
169.65
163.18
156.15
148.81
141.30
133.69
126.02
118.33
110.69
103.16
95.80
88.68
81.83
75.25
68.95
62.95
57.25
51.86
46.78
42.03
37.59
33.45
29.61
26.07
22.81
19.83
17.11
14.67
12.48
10.54
8.83
7.35
6.07
4.97
4.05
3.27
2.62
2.09
1.65
1.30
1.01
0.79
0.61
0.48
0.37
0.29
0.23
0.18
0.15
0.13
0.13
0.15
0.17
0.20
0.21
0.18
0.12
0.05
-0.02
-0.05
-0.04
0.01
0.08
0.12
0.13
0.09
0.03
-0.02
-0.01
0.05
0.16
0.28
0.35
0.33
0.22
0.06
-0.05
-0.04
0.13
0.44
0.76
0.96
0.93
0.63
0.18
-0.25
-0.43
-0.24
0.29
0.96
1.47
1.58
1.20
0.49
-0.21
-0.51
-0.16
0.76
1.90
2.79
3.01
2.41
1.25
0.01
-0.78
-0.77
0.07
1.41
2.72
3.34
2.52
-0.45
-5.94
-13.43
-21.20
-26.60
-27.03
-21.08
-9.62
4.28
16.49
23.58
24.38
20.29
14.35
9.62
7.73
8.30
9.56
9.55
7.26
3.17
-1.10
-3.66
-3.21
0.31
5.61
10.71
13.69
13.45
9.95
4.08
-2.65
-8.36
-10.81
-7.53
3.28
21.49
43.94
64.64
76.52
74.45
57.61
30.07
-0.94
-28.30
-47.92
-59.55
-65.72
-69.56
-73.00
-76.26
-78.25
-77.50
-72.87
-64.16
-52.50
-40.36
-30.98
-26.93
-28.47
-32.95
-36.07
-34.19
-26.65
-16.20
-7.21
-2.65
-1.95
-1.12
4.68
18.28
38.54
60.66
78.61
88.21
89.07
84.06
77.15
71.07
66.14
60.83
53.39
43.29
31.83
21.35
13.96
10.52
10.42
12.13
14.04
15.07
15.05
14.53
14.25
14.55
14.98
14.48
11.76
5.99
-2.75
-13.45
-24.53
-34.56
-42.73
-48.99
-53.77
-57.46
-60.09
-61.31
-60.73
-58.27
-54.43
-50.15
-46.39
-43.75
-42.32
-41.73
-41.41
-40.86
-39.65
-37.27
-33.00
-26.11
-16.22
-3.68
10.19
23.38
33.86
40.28
42.43
41.19
37.99
34.30
31.04
28.44
26.22
23.87
21.06
17.73
14.17
10.80
7.99
5.92
4.52
3.60
2.99
2.67
2.77
3.52
5.12
7.50
10.27
12.73
14.18
14.20
12.96
11.26
10.05
9.93
10.66
11.25
10.65
8.54
5.82
4.29
5.74
10.74
18.28
26.19
32.32
35.86
37.72
40.01
44.56
51.77
60.14
66.98
69.78
67.59
61.55
54.46
49.71
49.92
56.04
67.14
81.05
95.19
107.45
116.58
122.06
124.06
123.20
120.66
118.11
117.30
119.20
122.99
125.84
123.83
113.96
96.08
73.51
51.68
35.29
25.77
20.47
14.23
2.34
-16.85
-41.23
-66.31
-87.70
-103.15
-112.88
-118.50
-121.39
-121.84
-119.30
-113.46
-105.12
-96.21
-89.08
-85.29
-84.99
-86.89
-89.03
-89.73
-88.40
-85.78
-83.74
-84.71
-90.66
-102.15
-117.71
-133.84
-145.98
-150.02
-143.82
-128.01
-105.70
-81.08
-57.93
-38.42
-22.96
-10.84
-1.18
6.35
11.49
13.73
13.03
10.10
6.30
3.15
1.66
1.96
3.27
4.37
4.27
2.73
0.38
-1.68
-2.50
-1.87
-0.42
0.67
0.35
-1.74
-5.07
-8.54
-10.99
-11.85
-11.42
-10.65
-10.82
-12.85
-17.07
-23.08
-29.99
-36.72
-42.16
-45.36
-45.53
-42.23
-35.47
-25.87
-14.63
-3.29
6.60
13.91
18.22
19.85
19.65
18.69
17.86
17.61
17.90
18.20
17.88
16.46
13.90
10.54
6.92
3.36
-0.22
-4.30
-9.45
-15.97
-23.73
-32.26
-41.16
-50.37
-60.36
-71.88
-85.49
-101.21
-118.30
-135.56
-151.81
-166.28
-178.87
-189.75
-199.10
-206.72
-212.22
-215.41
-216.72
-217.18
-217.81
-218.82
-218.99
-215.85
-206.55
-189.11
-163.26
-130.39
-92.72
-52.21
-9.98
33.33
76.59
117.41
152.20
177.21
190.11
191.05
182.65
168.91
153.67
139.64
128.19
119.98
115.53
115.33
119.36
126.49
134.45
140.47
142.39
139.69
133.72
127.18
123.11
123.74
129.80
140.30
152.99
165.17
174.55
179.91
181.19
179.01
174.03
166.44
156.01
142.66
127.17
111.37
97.75
88.34
83.84
83.20
84.10
84.06
81.46
76.13
69.25
62.75
58.68
58.56
63.11
72.19
84.80
99.19
113.11
124.20
130.37
130.31
123.55
110.60
92.57
71.10
48.09
25.51
5.26
-11.19
-22.99
-30.09
-33.12
-33.26
-31.83
-30.03
-28.79
-28.67
-29.94
-32.63
-36.58
-41.49
-47.12
-53.51
-61.16
-71.01
-83.93
-99.79
-116.67
-130.61
-136.42
-129.55
-108.15
-74.49
-34.80
2.53
29.57
41.18
36.12
16.71
-12.63
-46.80
-81.20
-111.96
-135.99
-151.02
-155.90
-151.10
-138.86
-122.73
-106.46
-92.76
-82.32
-73.82
-64.75
-52.72
-36.81
-18.02
0.94
16.82
26.99
30.36
27.57
20.44
11.23
1.88
-6.33
-12.74
-17.02
-19.05
-19.01
-17.44
-15.38
-13.95
-13.99
-15.66
-18.51
-21.95
-25.84
-30.71
-37.34
-45.91
-55.22
-62.55
-64.57
-58.70
-44.36
-23.34
0.86
24.56
45.34
63.01
79.40
97.57
120.43
149.46
183.98
220.79
254.71
279.69
290.31
283.16
257.70
216.52
164.90
109.70
57.98
15.54
-14.38
-31.75
-39.56
-42.70
-46.13
-53.29
-65.07
-79.93
-94.98
-107.41
-115.71
-119.94
-121.38
-121.67
-122.07
-123.02
-124.19
-124.89
-124.50
-122.94
-120.59
-118.02
-115.62
-113.30
-110.46
-106.34
-100.40
-92.56
-83.17
-72.74
-61.69
-50.27
-38.65
-27.21
-16.65
-8.02
-2.26
0.24
0.08
-1.15
-1.26
1.74
8.94
20.06
33.61
47.58
60.26
70.80
79.30
86.40
92.78
98.84
104.92
111.70
120.32
131.98
147.12
164.64
181.67
194.15
197.90
189.69
168.05
133.52
88.63
37.73
-13.53
-59.05
-93.61
-114.21
-120.89
-116.52
-105.65
-92.78
-81.16
-72.27
-66.31
-62.88
-61.57
-62.03
-63.78
-66.03
-67.78
-68.19
-67.01
-64.61
-61.72
-59.00
-56.61
-54.17
-51.02
-46.68
-41.18
-35.12
-29.44
-25.01
-22.32
-21.27
-21.31
-21.64
-21.43
-20.07
-17.30
-13.25
-8.39
-3.44
0.94
4.34
6.82
8.88
11.21
14.36
18.48
23.29
28.10
32.14
34.83
35.94
35.70
34.63
33.45
32.87
33.33
34.94
37.43
40.29
42.97
45.05
46.42
47.24
47.81
48.37
49.13
50.34
52.40
55.79
60.83
67.36
74.52
80.86
84.73
84.69
79.83
69.92
55.34
37.02
16.39
-4.80
-24.70
-41.77
-55.09
-64.58
-70.89
-75.16
-78.70
-82.75
-88.17
-94.99
-102.15
-107.47
-108.28
-102.36
-89.11
-70.07
-48.54
-28.42
-12.78
-2.97
1.58
2.51
1.65
0.14
-1.63
-3.72
-6.09
-8.30
-9.61
-9.25
-6.84
-2.53
3.02
8.90
14.23
18.28
20.58
20.85
19.05
15.22
9.54
2.15
-6.77
-17.01
-28.28
-40.11
-51.76
-62.44
-71.58
-79.02
-85.03
-90.09
-94.42
-97.89
-99.96
-100.21
-98.67
-96.15
-94.04
-93.86
-96.71
-102.71
-110.92
-119.57
-126.64
-130.63
-131.04
-128.57
-124.62
-120.35
-115.73
-109.13
-97.74
-78.73
-50.47
-13.05
32.18
83.68
140.28
200.84
263.32
324.09
378.23
420.97
449.39
463.17
464.25
455.39
438.81
415.64
386.48
352.19
314.38
275.00
235.49
196.01
155.47
112.51
66.72
19.54
-25.85
-65.45
-95.82
-115.35
-124.77
-126.56
-123.90
-119.36
-114.32
-109.11
-103.67
-98.29
-93.75
-91.00
-90.52
-92.03
-94.55
-96.97
-98.50
-98.94
-98.67
-98.38
-98.75
-100.24
-103.01
-106.87
-111.42
-116.16
-120.79
-125.24
-129.71
-134.34
-138.95
-142.82
-144.72
-143.45
-138.30
-129.44
-117.86
-105.00
-92.13
-80.01
-68.79
-58.31
-48.50
-39.58
-32.13
-26.83
-24.17
-24.12
-26.14
-29.28
-32.46
-34.75
-35.58
-34.77
-32.48
-29.04
-24.98
-20.87
-17.29
-14.61
-12.75
-11.12
-8.75
-4.76
1.16
8.46
15.95
22.36
27.06
30.29
32.89
35.58
38.21
39.63
38.13
32.42
22.38
9.38
-4.26
-16.11
-24.40
-28.41
-28.36
-25.25
-20.66
-16.71
-15.63
-19.18
-27.81
-40.12
-53.14
-63.25
-67.47
-64.47
-54.79
-40.32
-23.36
-5.89
10.76
25.75
38.52
48.61
55.75
59.87
61.26
60.48
58.17
55.00
51.51
48.03
44.80
41.96
39.64
37.99
37.01
36.55
36.24
35.65
34.47
32.70
30.69
29.03
28.11
27.94
27.84
26.52
22.42
14.35
2.15
-12.93
-28.37
-41.07
-48.38
-48.89
-42.84
-31.80
-18.01
-3.79
8.84
18.25
23.25
23.37
19.02
11.56
2.97
-4.88
-10.84
-14.91
-18.02
-21.57
-26.77
-34.20
-43.66
-54.09
-63.81
-70.77
-73.06
-69.43
-59.74
-45.07
-27.37
-8.92
8.13
22.13
32.10
37.86
40.11
40.28
40.20
41.45
44.80
50.05
56.26
62.40
67.83
72.36
75.99
78.50
79.32
77.81
73.75
67.63
60.56
53.75
47.92
43.08
38.53
33.36
26.85
18.78
9.49
-0.31
-9.76
-18.16
-25.07
-30.43
-34.50
-37.84
-41.07
-44.76
-49.21
-54.42
-60.08
-65.75
-71.08
-75.91
-80.37
-84.78
-89.43
-94.58
-100.42
-107.08
-114.55
-122.45
-129.63
-134.20
-133.83
-126.77
-112.83
-93.87
-73.37
-55.19
-42.07
-34.65
-31.54
-30.34
-28.89
-26.25
-22.72
-19.31
-16.85
-15.56
-15.00
-14.52
-13.73
-12.73
-11.98
-11.93
-12.72
-14.02
-15.22
-15.75
-15.53
-15.09
-15.36
-17.13
-20.42
-24.18
-26.64
-26.15
-22.03
-15.02
-6.90
0.43
5.90
9.83
13.55
18.60
25.80
34.72
44.00
51.94
57.40
60.06
60.45
59.35
57.35
54.54
50.63
45.24
38.10
29.41
19.72
9.87
0.88
-6.16
-10.16
-10.20
-5.69
3.34
16.11
31.16
46.68
60.91
72.61
81.23
86.92
90.28
92.05
92.86
92.95
92.32
90.81
88.30
84.89
80.93
76.92
73.36
70.63
68.83
67.80
67.20
66.60
65.68
64.23
62.28
60.01
57.68
55.48
53.50
51.71
49.95
48.05
45.92
43.55
40.99
38.37
35.82
33.40
31.13
28.90
26.58
24.07
21.36
18.59
15.98
13.71
11.83
10.25
8.76
7.11
5.07
2.43
-1.00
-5.25
-10.02
-14.52
-17.50
-17.57
-13.62
-5.22
7.29
23.02
40.85
59.69
78.44
95.84
110.19
119.39
121.30
114.46
98.81
76.04
49.45
22.91
-0.20
-18.09
-30.83
-39.90
-47.10
-53.64
-59.69
-64.63
-67.87
-69.30
-69.59
-69.72
-70.46
-72.00
-73.95
-75.72
-76.85
-77.24
-77.09
-76.76
-76.52
-76.50
-76.48
-75.93
-74.04
-69.93
-63.03
-53.42
-42.00
-30.28
-19.83
-11.66
-5.88
-1.66
2.31
7.37
14.48
24.17
36.47
50.82
65.81
78.96
87.01
86.83
76.68
57.39
32.48
7.24
-13.25
-25.92
-30.69
-29.93
-27.08
-24.92
-24.76
-26.56
-29.83
-34.41
-40.63
-48.81
-58.49
-68.11
-75.42
-78.47
-76.56
-70.61
-62.67
-54.94
-48.79
-44.25
-40.39
-36.06
-30.73
-24.83
-19.51
-15.92
-14.49
-14.52
-14.22
-11.15
-2.99
11.67
32.83
58.79
86.63
112.91
134.70
150.31
159.50
163.06
162.12
157.56
149.76
138.95
125.64
110.79
95.71
81.57
68.95
57.67
47.00
36.01
24.05
10.95
-2.81
-16.18
-27.81
-36.39
-40.97
-41.29
-37.80
-31.51
-23.59
-15.11
-6.73
1.12
8.17
14.12
18.57
21.17
21.74
20.38
17.38
13.18
8.20
2.82
-2.62
-7.75
-12.09
-15.18
-16.64
-16.36
-14.61
-11.98
-9.17
-6.70
-4.68
-2.86
-0.84
1.58
4.15
6.27
7.20
6.49
4.17
0.76
-3.00
-6.48
-9.32
-11.50
-13.22
-14.75
-16.25
-17.58
-18.12
-16.86
-12.62
-4.58
7.26
21.73
36.60
48.95
55.80
54.82
44.99
26.96
3.14
-22.72
-46.35
-63.87
-72.64
-71.64
-61.43
-43.70
-20.82
4.64
30.19
53.81
74.30
91.44
105.88
118.62
130.26
140.62
148.70
153.29
153.54
149.36
141.54
131.47
120.83
111.37
104.50
100.86
99.72
98.91
95.34
86.00
69.27
45.60
17.48
-11.38
-37.05
-56.32
-67.10
-68.58
-61.39
-47.61
-30.61
-14.26
-1.83
5.07
6.91
5.74
4.13
4.07
6.28
10.16
14.02
15.60
12.80
4.64
-8.29
-23.80
-39.07
-51.85
-61.77
-70.54
-81.18
-96.39
-116.99
-140.98
-163.78
-179.66
-183.75
-174.10
-152.80
-125.87
-101.52
-87.52
-88.67
-105.38
-133.92
-167.91
-200.22
-224.62
-236.64
-234.18
-217.84
-191.00
-159.27
-129.13
-106.03
-92.76
-88.88
-91.29
-95.90
-99.26
-99.57
-96.57
-90.72
-82.02
-69.21
-50.02
-22.27
14.38
57.08
99.85
135.40
158.04
166.21
163.10
154.97
148.01
145.57
147.25
150.15
151.10
148.44
142.29
133.46
121.97
106.35
84.08
52.95
12.45
-35.64
-87.52
-138.31
-183.15
-218.07
-240.34
-248.71
-243.37
-225.81
-198.68
-165.72
-131.28
-99.70
-74.43
-57.01
-46.69
-40.74
-35.53
-27.99
-16.61
-1.72
15.07
31.88
47.45
61.37
73.91
85.35
95.58
103.90
109.31
111.08
109.18
104.48
98.54
93.24
90.17
90.18
92.89
96.46
97.83
93.58
81.20
60.46
33.99
6.88
-14.98
-26.84
-26.78
-16.07
1.47
21.19
39.01
52.55
61.11
65.22
65.99
64.53
61.79
58.51
55.38
53.18
52.70
54.57
58.78
64.44
69.73
72.40
70.52
63.26
51.32
36.63
21.73
8.88
-0.47
-5.86
-7.48
-5.83
-1.43
5.12
13.19
21.97
30.60
38.40
44.96
50.21
54.26
57.20
59.02
59.58
58.81
56.83
53.99
50.78
47.62
44.74
42.13
39.72
37.55
35.82
34.84
34.86
35.77
37.13
38.29
38.73
38.38
37.72
37.62
38.99
42.31
47.43
53.51
59.36
63.90
66.63
67.92
68.94
71.22
75.96
83.53
93.21
103.53
112.75
119.52
123.25
124.09
122.72
120.02
116.74
113.38
109.95
105.88
100.11
91.20
77.76
58.89
34.71
6.62
-22.75
-50.07
-72.07
-86.46
-92.56
-91.33
-84.80
-75.19
-64.12
-52.48
-40.83
-30.17
-22.36
-19.86
-24.67
-37.22
-55.88
-77.31
-97.67
-113.94
-124.76
-130.36
-131.82
-130.10
-125.44
-117.49
-106.02
-91.62
-76.18
-62.60
-53.73
-51.25
-54.91
-62.68
-71.74
-79.77
-85.87
-90.55
-94.91
-99.67
-104.57
-108.39
-109.50
-106.42
-98.31
-85.25
-68.41
-50.10
-33.65
-22.59
-19.67
-25.64
-38.75
-55.21
-70.34
-80.18
-82.61
-77.64
-66.96
-52.88
-37.46
-22.01
-7.20
6.60
18.89
28.89
35.79
39.21
39.46
37.52
34.59
31.58
28.80
26.02
22.97
19.69
16.68
14.67
14.22
15.37
17.48
19.52
20.28
18.88
14.96
8.80
1.19
-6.88
-14.49
-21.08
-26.52
-30.93
-34.49
-37.32
-39.38
-40.60
-41.02
-40.89
-40.63
-40.65
-41.27
-42.61
-44.56
-46.91
-49.29
-51.40
-52.93
-53.77
-54.10
-54.44
-55.45
-57.63
-60.99
-64.76
-67.49
-67.53
-63.62
-55.42
-43.72
-30.14
-16.55
-4.48
5.28
12.70
18.19
22.26
25.23
27.23
28.26
28.36
27.63
26.34
24.76
23.07
21.35
19.53
17.57
15.41
13.21
11.27
9.94
9.41
9.58
10.04
10.25
9.80
8.58
6.86
5.10
3.65
2.63
1.78
0.72
-0.88
-3.08
-5.66
-8.19
-10.33
-11.98
-13.31
-14.71
-16.56
-19.06
-22.05
-25.09
-27.64
-29.32
-30.09
-30.30
-30.53
-31.37
-33.17
-36.00
-39.63
-43.63
-47.32
-49.88
-50.32
-47.80
-41.84
-32.56
-20.78
-7.86
4.70
15.72
24.44
30.73
34.80
37.09
38.02
37.92
37.14
36.10
35.49
36.15
38.83
43.61
49.53
54.45
55.74
51.24
40.17
23.64
4.19
-15.17
-32.01
-45.13
-54.47
-60.65
-64.37
-66.08
-66.04
-64.56
-62.16
-59.63
-57.80
-57.34
-58.59
-61.60
-66.14
-71.87
-78.52
-86.01
-94.49
-104.29
-115.78
-129.13
-144.15
-160.18
-176.24
-191.24
-204.29
-214.66
-221.71
-224.47
-221.62
-211.72
-193.76
-167.71
-134.69
-96.45
-54.51
-9.49
38.76
90.27
143.66
195.64
241.54
277.03
299.73
310.16
311.24
306.88
300.44
293.73
287.01
279.48
270.01
257.55
241.38
221.19
197.28
170.66
142.85
115.39
89.15
64.10
39.48
14.47
-11.05
-36.14
-58.99
-77.60
-90.61
-97.81
-100.15
-99.46
-97.87
-97.32
-99.18
-104.06
-111.65
-120.69
-129.13
-134.58
-134.99
-129.41
-118.44
-104.16
-89.42
-77.01
-68.76
-65.19
-65.67
-69.04
-74.20
-80.44
-87.39
-94.65
-101.50
-106.56
-108.09
-104.36
-94.39
-78.37
-57.86
-35.34
-13.43
5.95
22.11
35.40
46.56
56.05
63.52
68.02
68.60
65.11
58.57
50.92
44.24
40.04
38.76
39.98
42.91
46.87
51.57
56.86
62.33
67.07
69.80
69.42
65.60
59.27
52.34
47.08
45.11
46.81
51.21
56.53
61.06
63.79
64.74
64.54
63.84
62.80
60.96
57.64
52.37
45.32
37.33
29.54
22.90
17.75
13.90
10.81
8.07
5.57
3.37
1.45
-0.45
-2.72
-5.51
-8.26
-9.72
-8.25
-2.50
8.00
22.54
39.49
56.89
73.02
86.63
96.80
102.68
103.27
97.72
85.81
68.49
48.06
27.73
10.85
-0.14
-4.41
-2.83
2.52
9.23
15.39
20.01
22.89
24.28
24.41
23.35
21.20
18.37
15.71
14.38
15.34
18.79
23.93
29.09
32.36
32.35
28.72
22.27
14.60
7.52
2.39
-0.19
-0.40
0.99
3.10
5.28
7.35
9.59
12.34
15.65
18.90
20.77
19.49
13.56
2.55
-12.24
-27.60
-39.01
-41.76
-32.40
-9.83
24.16
65.36
108.37
148.09
181.05
205.98
223.76
236.51
246.60
255.84
265.07
274.27
282.81
289.65
293.42
292.61
285.70
271.80
251.07
224.99
196.05
166.88
139.46
114.51
91.59
69.67
47.85
25.81
3.82
-17.64
-38.40
-58.85
-80.14
-103.95
-132.09
-165.60
-203.99
-244.61
-282.95
-313.75
-332.62
-337.63
-329.87
-312.82
-290.95
-268.17
-246.90
-228.06
-211.69
-197.57
-185.61
-175.78
-167.92
-161.66
-156.48
-151.85
-147.15
-141.59
-134.17
-123.95
-110.44
-94.12
-76.41
-59.23
-44.19
-31.99
-22.25
-14.01
-6.52
0.19
5.32
7.80
7.22
4.15
0.01
-3.60
-5.62
-5.91
-5.04
-3.83
-2.89
-2.35
-2.08
-1.77
-1.19
-0.14
1.49
3.65
6.02
7.97
8.74
7.75
4.98
0.92
-3.68
-8.05
-11.78
-14.74
-17.10
-19.07
-20.85
-22.63
-24.51
-26.46
-28.23
-29.36
-29.31
-27.80
-24.98
-21.45
-18.01
-15.30
-13.59
-12.77
-12.52
-12.62
-12.97
-13.63
-14.72
-16.17
-17.68
-18.72
-18.62
-16.84
-13.09
-7.38
-0.11
8.05
16.18
23.31
28.58
31.50
31.99
30.42
27.56
24.42
22.06
21.37
22.79
26.12
30.53
34.64
36.90
36.04
31.53
23.92
14.75
6.18
0.31
-1.64
0.20
4.48
9.14
12.22
12.62
10.48
6.92
3.49
1.51
1.56
3.37
6.05
8.49
9.64
8.90
6.20
2.07
-2.62
-6.86
-9.93
-11.55
-11.92
-11.60
-11.23
-11.45
-12.82
-15.79
-20.59
-26.95
-33.96
-40.09
-43.57
-43.08
-38.33
-30.24
-20.70
-11.78
-4.92
-0.67
1.32
1.75
1.17
-0.25
-2.45
-5.12
-7.45
-8.16
-5.98
-0.27
8.59
19.21
29.69
38.32
44.16
47.11
47.58
46.11
43.06
38.64
33.14
27.07
21.11
15.96
12.13
9.87
9.12
9.50
10.29
10.52
9.15
5.53
-0.32
-7.53
-14.78
-20.91
-25.44
-28.67
-31.37
-34.18
-37.17
-39.89
-41.77
-42.56
-42.64
-42.78
-43.78
-45.97
-49.17
-52.74
-56.08
-58.77
-60.65
-61.57
-61.13
-58.65
-53.46
-45.28
-34.57
-22.45
-10.38
0.42
9.34
16.40
22.06
26.83
30.92
34.29
36.74
38.12
38.40
37.73
36.38
34.66
32.85
31.24
30.05
29.51
29.82
31.27
34.08
38.28
43.47
48.74
52.84
54.52
53.18
49.09
43.30
37.03
30.99
25.09
18.54
10.61
1.17
-9.00
-18.54
-26.18
-31.42
-34.62
-36.74
-38.75
-41.10
-43.60
-45.70
-46.90
-47.17
-46.96
-47.04
-48.03
-50.17
-53.13
-56.06
-57.96
-57.92
-55.32
-49.94
-41.87
-31.51
-19.47
-6.60
6.15
17.77
27.41
34.51
39.02
41.40
42.55
43.53
45.23
48.00
51.62
55.39
58.46
60.12
60.08
58.53
55.98
52.86
49.46
45.70
41.45
36.69
31.75
27.23
23.77
21.77
21.14
21.36
21.79
21.94
21.67
21.12
20.55
20.05
19.41
18.14
15.71
11.60
5.57
-2.25
-11.19
-20.13
-27.71
-32.76
-34.80
-34.26
-32.43
-31.00
-31.59
-35.21
-41.97
-51.07
-60.88
-69.32
-74.34
-74.44
-69.26
-59.72
-47.89
-36.31
-27.19
-21.63
-19.40
-19.30
-19.81
-19.88
-19.35
-18.86
-19.47
-22.02
-26.75
-33.28
-40.80
-48.62
-56.47
-64.39
-72.59
-81.07
-89.61
-97.92
-106.12
-114.88
-125.32
-138.60
-155.46
-176.08
-200.16
-226.99
-255.34
-283.20
-307.72
-325.60
-334.14
-332.33
-321.34
-304.17
-284.21
-263.74
-243.00
-220.31
-193.61
-162.42
-128.91
-97.54
-73.38
-60.18
-59.09
-68.53
-84.94
-103.74
-120.16
-129.58
-128.04
-112.93
-83.81
-42.87
5.47
56.03
104.50
148.68
188.53
225.17
259.68
292.35
322.97
351.35
377.88
403.72
430.43
459.75
493.34
533.00
580.43
636.25
698.61
762.14
818.33
857.60
872.57
860.82
825.75
775.00
717.39
659.81
605.78
555.82
508.94
464.19
421.15
379.64
339.19
298.92
257.96
216.04
173.66
131.75
91.27
52.47
14.84
-22.60
-60.82
-100.37
-141.18
-182.70
-224.23
-265.18
-305.43
-345.67
-387.55
-433.49
-485.44
-543.17
-602.73
-656.31
-694.05
-707.38
-692.18
-650.29
-588.30
-514.50
-435.88
-356.76
-279.53
-206.38
-140.34
-84.87
-42.26
-12.30
7.70
21.37
31.28
37.85
39.82
35.59
24.72
8.63
-9.93
-27.96
-43.15
-54.24
-61.01
-63.87
-63.67
-61.44
-58.33
-55.38
-53.52
-53.36
-55.30
-59.49
-65.98
-74.63
-85.00
-96.16
-106.79
-115.42
-120.91
-122.93
-122.19
-120.27
-118.73
-118.17
-117.67
-115.07
-108.25
-96.45
-80.94
-64.40
-49.44
-37.01
-25.95
-13.84
1.35
19.86
39.85
58.49
73.50
84.31
92.15
99.13
107.01
116.43
126.80
136.75
144.73
149.50
150.40
147.47
141.37
133.22
124.26
115.49
107.41
99.99
92.87
85.60
77.87
69.54
60.59
51.01
40.88
30.52
20.59
11.98
5.59
1.92
0.80
1.40
2.52
3.00
2.14
-0.16
-3.46
-7.10
-10.49
-13.45
-16.16
-19.10
-22.75
-27.40
-32.96
-39.01
-44.78
-49.39
-51.95
-51.74
-48.37
-41.94
-33.08
-22.78
-12.03
-1.44
8.87
19.15
29.41
38.96
46.25
49.38
46.99
39.08
27.18
13.77
1.33
-8.58
-15.64
-20.30
-23.24
-24.72
-24.59
-22.55
-18.66
-13.55
-8.28
-4.04
-1.71
-1.59
-3.35
-6.07
-8.60
-9.99
-9.80
-8.33
-6.46
-5.26
-5.51
-7.41
-10.52
-14.11
-17.41
-19.99
-21.63
-22.35
-22.33
-21.93
-21.61
-21.51
-20.87
-17.34
-7.13
13.95
48.56
96.03
151.60
207.45
255.16
288.54
305.43
307.68
299.60
285.67
268.85
250.06
228.83
204.37
176.42
145.51
112.71
79.08
45.38
11.94
-21.21
-54.26
-87.48
-121.00
-154.58
-187.38
-217.79
-243.77
-263.37
-275.49
-280.20
-278.77
-273.12
-265.07
-255.82
-245.73
-234.39
-221.04
-205.10
-186.89
-168.04
-151.55
-141.04
-139.70
-148.99
-168.05
-193.93
-222.44
-249.19
-270.33
-282.82
-284.45
-274.03
-251.75
-219.30
-179.51
-135.62
-90.51
-46.43
-5.40
30.35
58.52
77.70
88.61
94.56
100.58
111.34
129.10
152.89
179.43
205.30
228.70
249.92
270.24
290.13
308.29
322.40
331.07
335.58
339.86
348.57
363.95
383.77
401.59
409.46
401.44
376.12
336.69
288.73
237.08
184.14
130.11
74.89
20.11
-30.39
-71.74
-100.45
-116.15
-122.02
-123.37
-125.44
-131.46
-141.88
-154.90
-167.97
-179.12
-187.66
-194.01
-198.94
-202.67
-204.44
-202.67
-195.65
-182.44
-163.57
-141.06
-117.90
-97.06
-80.63
-69.36
-62.66
-59.05
-56.80
-54.45
-51.20
-47.06
-42.76
-39.42
-38.06
-39.19
-42.54
-46.99
-50.99
-53.06
-52.31
-48.87
-43.97
-39.79
-38.99
-43.81
-55.11
-71.45
-88.88
-101.85
-104.93
-94.88
-71.98
-40.14
-5.41
26.47
52.27
72.34
89.79
108.53
130.93
156.53
182.18
203.44
216.45
219.29
212.39
197.93
178.85
157.84
136.81
116.82
98.17
80.72
64.10
48.08
32.81
18.92
7.24
-1.59
-7.40
-10.49
-11.39
-10.53
-8.06
-4.04
1.31
7.33
13.03
17.37
19.76
20.31
19.82
19.55
20.81
24.53
30.92
39.29
48.14
55.63
60.25
61.65
60.84
59.65
59.54
60.46
60.32
55.76
43.77
23.45
-3.21
-31.89
-57.80
-77.48
-89.88
-96.11
-98.22
-97.93
-95.87
-91.85
-85.53
-77.12
-67.36
-57.23
-47.22
-37.13
-26.35
-14.42
-1.74
10.20
19.20
23.16
20.93
13.01
1.55
-10.27
-19.30
-23.40
-22.08
-16.56
-9.10
-2.18
2.33
3.56
1.64
-2.65
-8.24
-14.07
-19.29
-23.26
-25.60
-26.20
-25.28
-23.29
-20.95
-19.08
-18.36
-19.16
-21.31
-24.07
-26.31
-26.89
-25.09
-20.92
-15.10
-8.75
-2.97
1.60
4.85
7.12
9.01
10.97
13.22
15.54
17.41
18.10
16.95
13.54
7.82
-0.01
-9.64
-20.74
-33.06
-46.17
-59.45
-72.05
-83.12
-92.18
-99.34
-105.29
-111.03
-117.50
-125.26
-134.46
-144.86
-155.91
-166.82
-176.48
-183.67
-187.10
-185.66
-178.57
-165.35
-145.93
-120.59
-90.05
-55.43
-18.10
20.54
59.13
96.32
130.69
160.55
184.26
200.54
208.91
209.90
204.80
195.36
183.34
170.38
158.03
147.87
141.38
139.62
142.80
150.04
159.36
167.93
172.63
170.74
160.58
142.02
116.66
87.51
58.23
32.21
11.67
-2.71
-11.61
-16.39
-18.33
-18.09
-15.73
-11.30
-5.35
0.66
4.75
5.09
0.78
-7.77
-19.02
-31.03
-42.16
-51.53
-58.98
-64.67
-68.74
-71.05
-71.37
-69.65
-66.23
-61.79
-57.03
-52.47
-48.18
-43.78
-38.68
-32.42
-24.93
-16.59
-8.00
0.32
8.23
15.97
23.84
31.78
39.13
44.78
47.66
47.22
43.80
38.29
31.60
24.15
15.68
5.70
-5.86
-18.29
-30.18
-40.04
-47.04
-51.45
-54.42
-57.41
-61.47
-66.82
-73.00
-79.30
-85.25
-90.94
-96.95
-103.92
-112.22
-121.55
-131.07
-139.71
-146.69
-151.93
-156.10
-160.41
-166.00
-173.41
-182.28
-191.38
-198.94
-203.15
-202.58
-196.39
-184.43
-167.09
-145.21
-119.98
-92.83
-65.43
-39.51
-16.71
1.80
15.54
24.94
31.11
35.59
39.84
44.65
50.18
56.18
62.69
70.22
79.62
91.47
105.39
120.15
134.22
146.77
157.96
168.71
179.72
190.82
201.21
210.49
219.86
232.08
249.93
273.89
300.56
323.15
333.96
327.68
303.35
264.08
214.93
160.51
103.78
46.71
-8.05
-56.35
-93.14
-114.53
-119.85
-112.33
-97.91
-82.74
-71.03
-64.21
-61.66
-62.02
-64.42
-68.43
-73.47
-78.16
-80.53
-78.85
-72.61
-62.91
-51.98
-42.02
-34.24
-28.76
-25.28
-24.01
-25.90
-31.76
-40.81
-49.72
-53.37
-46.99
-28.82
-1.74
27.48
50.87
62.69
61.74
51.55
38.41
28.48
25.48
30.01
40.35
53.93
68.56
82.67
95.00
103.88
107.17
102.83
89.92
69.48
44.64
19.70
-1.50
-16.96
-27.20
-34.77
-42.85
-53.71
-67.68
-83.24
-97.91
-109.48
-117.09
-121.51
-124.80
-129.38
-137.15
-148.76
-163.34
-178.66
-191.62
-199.13
-198.96
-190.57
-175.33
-156.15
-136.50
-119.25
-105.87
-96.27
-89.29
-83.51
-77.91
-72.07
-66.11
-60.34
-54.96
-49.91
-44.50
-37.18
-25.40
-6.12
23.18
63.33
112.44
166.01
217.74
261.37
292.20
308.08
309.48
298.49
277.81
249.88
216.69
180.08
142.27
105.96
74.01
48.64
30.58
18.68
10.31
2.39
-7.41
-19.73
-33.44
-46.35
-56.31
-62.30
-64.79
-65.46
-66.22
-68.39
-72.16
-76.65
-80.54
-82.61
-82.18
-79.00
-72.99
-64.00
-51.73
-36.14
-17.92
1.14
18.30
30.53
35.62
33.06
24.44
13.04
2.56
-4.18
-6.33
-4.96
-2.49
-1.49
-3.70
-9.56
-18.07
-27.17
-34.09
-35.81
-29.62
-13.96
10.88
42.16
74.85
102.80
120.44
124.63
115.54
96.29
71.39
44.79
18.50
-7.73
-35.32
-65.49
-98.03
-131.10
-161.98
-188.19
-208.26
-221.82
-229.18
-230.80
-227.13
-218.88
-207.55
-195.61
-186.17
-182.16
-185.09
-194.17
-206.01
-215.52
-217.20
-206.96
-183.40
-148.41
-106.67
-64.24
-26.70
2.39
22.30
34.78
43.04
50.38
59.16
70.42
84.06
99.21
114.68
129.17
141.42
150.30
154.91
154.92
150.58
142.73
132.59
121.42
110.46
100.56
92.14
85.20
79.53
75.01
71.91
70.76
72.01
75.65
80.96
86.83
92.15
96.23
98.64
98.88
95.94
88.32
74.59
54.07
27.43
-3.41
-35.57
-65.80
-90.87
-107.88
-114.79
-110.81
-97.02
-76.23
-52.25
-28.81
-8.42
7.95
20.63
30.32
37.64
42.86
46.19
48.04
49.05
49.87
50.78
51.63
52.02
51.63
50.43
48.71
47.01
45.75
45.19
45.27
45.73
46.22
46.50
46.51
46.44
46.54
46.92
47.39
47.49
46.76
44.98
42.40
39.56
36.97
34.81
32.72
30.14
26.56
21.89
16.58
11.32
6.69
2.83
-0.64
-4.42
-9.18
-15.26
-22.49
-30.29
-37.75
-43.88
-47.77
-48.76
-46.57
-41.32
-33.54
-24.12
-14.07
-4.44
3.90
10.32
14.54
16.69
17.21
16.81
16.19
15.80
15.61
15.28
14.33
12.44
9.66
6.30
2.81
-0.47
-3.40
-6.01
-8.34
-10.32
-11.81
-12.62
-12.76
-12.47
-12.19
-12.34
-13.15
-14.47
-15.77
-16.33
-15.51
-13.10
-9.42
-5.26
-1.46
1.43
3.37
4.80
6.27
8.11
10.03
11.37
11.29
9.17
4.91
-1.11
-8.09
-15.03
-20.80
-24.25
-24.39
-20.61
-12.95
-2.20
10.24
22.69
33.66
42.21
48.10
51.76
54.03
55.88
58.13
61.21
65.03
69.03
72.37
74.29
74.29
72.39
68.94
64.48
59.40
53.80
47.58
40.69
33.33
26.12
19.87
15.26
12.43
10.89
9.74
8.13
5.61
2.33
-1.23
-4.65
-7.91
-11.32
-15.26
-19.79
-24.55
-28.90
-32.33
-34.84
-36.93
-39.33
-42.60
-46.71
-51.17
-55.22
-58.33
-60.46
-62.22
-64.53
-68.30
-73.96
-81.10
-88.47
-94.09
-95.87
-92.21
-82.60
-67.80
-49.67
-30.57
-12.68
2.54
14.52
23.39
29.71
34.08
37.10
39.31
41.14
42.98
44.98
47.07
48.90
50.03
50.10
48.99
46.95
44.48
42.25
40.77
40.25
40.45
40.84
40.79
39.84
37.86
35.05
31.76
28.33
24.97
21.71
18.49
15.22
11.85
8.46
5.10
1.81
-1.50
-5.06
-9.13
-13.88
-19.30
-25.12
-30.98
-36.60
-41.90
-47.07
-52.32
-57.78
-63.29
-68.59
-73.55
-78.36
-83.40
-88.88
-94.45
-99.03
-101.07
-99.25
-93.12
-83.44
-71.90
-60.49
-50.70
-43.09
-37.38
-32.88
-29.06
-25.77
-23.27
-21.79
-21.30
-21.34
-21.19
-20.05
-17.38
-12.95
-6.72
1.18
10.72
21.79
34.17
47.43
60.96
74.09
86.29
97.28
106.90
114.94
121.06
124.77
125.63
123.44
118.39
111.03
102.14
92.54
82.93
73.92
65.92
59.19
53.71
49.24
45.42
41.84
38.13
33.97
29.01
22.84
15.09
5.49
-5.96
-18.87
-32.43
-45.40
-56.27
-63.57
-66.26
-64.05
-57.63
-48.41
-38.08
-28.07
-19.16
-11.51
-4.85
1.18
6.86
12.38
17.81
23.24
28.61
33.67
37.99
41.11
42.74
42.84
41.65
39.54
36.91
34.10
31.43
29.20
27.70
27.11
27.43
28.49
30.03
31.64
32.92
33.51
33.08
31.42
28.50
24.49
19.76
14.79
10.09
5.99
2.61
-0.20
-2.74
-5.32
-8.19
-11.44
-15.06
-18.96
-23.01
-27.04
-30.83
-34.18
-36.97
-39.38
-41.90
-45.29
-50.22
-56.86
-64.59
-71.96
-77.05
-78.10
-74.09
-65.14
-52.38
-37.60
-22.60
-8.79
3.11
12.90
20.70
26.73
31.18
34.27
36.26
37.47
38.19
38.56
38.56
38.01
36.77
34.93
32.78
30.76
29.26
28.40
28.02
27.68
26.96
25.61
23.63
21.26
18.83
16.55
14.45
12.45
10.32
7.91
5.17
2.18
-0.91
-3.92
-6.75
-9.39
-11.91
-14.43
-17.07
-19.86
-22.71
-25.46
-27.98
-30.21
-32.28
-34.42
-36.90
-39.92
-43.59
-47.93
-52.88
-58.25
-63.54
-67.81
-69.78
-68.06
-61.76
-50.90
-36.62
-20.83
-5.64
7.35
17.42
24.70
29.87
33.66
36.61
38.91
40.57
41.63
42.21
42.60
42.89
42.86
41.80
38.79
33.07
24.56
14.08
3.10
-6.81
-14.59
-20.09
-23.86
-26.65
-28.95
-30.75
-31.76
-31.80
-31.04
-30.06
-29.49
-29.69
-30.56
-31.62
-32.36
-32.39
-31.82
-31.07
-30.77
-31.36
-32.95
-35.22
-37.59
-39.56
-40.93
-42.06
-43.67
-46.60
-51.31
-57.54
-64.18
-69.53
-71.72
-69.35
-61.95
-50.15
-35.44
-19.72
-4.67
8.58
19.61
28.46
35.37
40.58
44.22
46.49
47.73
48.42
49.05
49.92
50.99
51.96
52.48
52.42
51.98
51.50
51.33
51.54
51.87
51.81
50.93
49.01
46.16
42.66
38.83
34.87
30.82
26.70
22.51
18.39
14.51
11.07
8.19
5.79
3.70
1.61
-0.69
-3.32
-6.21
-9.19
-12.16
-15.15
-18.41
-22.30
-27.14
-33.03
-39.79
-46.94
-53.66
-58.91
-61.45
-60.12
-54.16
-43.54
-29.13
-12.52
4.31
19.53
31.85
40.79
46.60
50.14
52.53
54.81
57.61
60.87
63.91
65.60
64.95
61.47
55.46
47.85
39.87
32.63
26.80
22.70
20.39
19.80
20.83
23.16
26.24
29.26
31.40
32.08
31.29
29.56
27.78
26.72
26.65
27.20
27.51
26.64
24.01
19.59
13.82
7.26
0.28
-7.00
-14.64
-22.67
-30.89
-38.94
-46.39
-53.01
-58.92
-64.56
-70.64
-77.72
-85.83
-94.03
-100.50
-103.05
-99.96
-90.86
-76.99
-60.85
-45.20
-31.96
-21.69
-13.66
-6.66
0.27
7.26
13.77
18.95
22.24
23.59
23.41
22.34
20.93
19.45
17.92
16.34
14.75
13.45
12.83
13.15
14.38
16.05
17.43
17.76
16.63
14.11
10.75
7.30
4.39
2.21
0.51
-1.25
-3.63
-6.93
-11.14
-15.96
-21.01
-25.91
-30.33
-33.95
-36.46
-37.61
-37.35
-35.98
-34.13
-32.61
-32.24
-33.59
-36.90
-41.95
-48.03
-53.98
-58.24
-59.35
-56.38
-49.39
-39.44
-28.30
-17.69
-8.74
-1.72
3.79
8.41
12.53
16.20
19.27
21.65
23.51
25.20
27.05
29.14
31.26
33.04
34.15
34.49
34.24
33.72
33.22
32.86
32.56
32.16
31.56
30.76
29.69
28.08
25.45
21.18
14.97
7.10
-1.52
-9.67
-16.28
-20.93
-23.95
-26.21
-28.68
-31.99
-36.23
-41.02
-45.78
-50.01
-53.48
-56.27
-58.83
-61.75
-65.69
-71.12
-78.05
-85.87
-93.31
-98.67
-100.31
-97.19
-89.27
-77.48
-63.49
-49.09
-35.75
-24.33
-15.09
-7.80
-1.97
2.99
7.68
12.49
17.51
22.48
26.94
30.41
32.68
33.89
34.44
34.82
35.36
36.19
37.25
38.41
39.50
40.38
40.98
41.23
41.09
40.48
39.32
37.52
35.03
31.90
28.31
24.51
20.76
17.27
14.16
11.44
9.10
7.12
5.51
4.25
3.24
2.28
1.10
-0.59
-2.94
-5.93
-9.45
-13.34
-17.51
-22.06
-27.04
-32.20
-36.72
-39.26
-38.30
-32.82
-22.79
-9.38
5.40
19.35
30.80
39.07
44.36
47.45
49.23
50.45
51.54
52.74
54.11
55.63
57.13
58.34
58.90
58.46
56.89
54.32
51.27
48.44
46.53
45.91
46.50
47.78
49.03
49.63
49.24
47.88
45.82
43.46
41.16
39.14
37.48
36.07
34.66
33.00
30.87
28.19
24.97
21.21
16.69
11.07
3.93
-4.91
-15.27
-26.62
-38.25
-49.61
-60.44
-70.89
-81.36
-92.37
-104.33
-117.19
-130.16
-141.55
-149.12
-150.68
-145.00
-132.39
-114.69
-94.65
-74.85
-57.00
-41.66
-28.59
-17.23
-7.16
1.85
10.00
17.51
24.58
31.18
36.98
41.46
44.16
44.99
44.25
42.58
40.67
39.06
37.97
37.34
36.95
36.51
35.84
34.87
33.72
32.57
31.57
30.79
30.22
29.80
29.51
29.39
29.54
29.98
30.55
30.95
30.78
29.79
27.93
25.40
22.62
19.95
17.50
15.04
12.09
8.04
2.42
-5.00
-14.09
-24.36
-34.86
-44.26
-50.98
-53.56
-51.07
-43.56
-32.09
-18.59
-5.19
6.30
14.91
20.57
23.98
26.12
27.85
29.64
31.53
33.25
34.42
34.75
34.16
32.78
30.84
28.58
26.19
23.82
21.56
19.52
17.78
16.35
15.18
14.15
13.09
11.88
10.45
8.81
7.00
5.04
2.94
0.72
-1.54
-3.76
-5.92
-8.11
-10.61
-13.77
-17.92
-23.17
-29.40
-36.27
-43.39
-50.37
-56.96
-62.94
-68.18
-72.61
-76.40
-79.94
-83.67
-87.73
-91.46
-93.39
-91.51
-84.04
-70.36
-51.36
-29.31
-7.03
13.04
29.50
42.07
51.26
57.76
62.07
64.47
65.19
64.62
63.28
61.63
59.94
58.11
55.81
52.70
48.71
44.09
39.43
35.41
32.47
30.69
29.68
28.75
27.23
24.70
21.19
17.11
13.03
9.36
6.19
3.32
0.37
-2.86
-6.31
-9.67
-12.54
-14.74
-16.48
-18.30
-20.75
-24.13
-28.30
-32.75
-36.87
-40.26
-42.95
-45.24
-47.65
-50.60
-54.43
-59.25
-65.01
-71.33
-77.39
-81.82
-83.01
-79.64
-71.16
-58.23
-42.53
-26.25
-11.29
1.14
10.77
18.02
23.56
27.98
31.61
34.62
37.05
38.93
40.28
41.08
41.31
40.96
40.07
38.80
37.36
35.99
34.91
34.20
33.87
33.77
33.68
33.37
32.64
31.33
29.42
26.98
24.19
21.24
18.32
15.46
12.61
9.63
6.44
3.06
-0.32
-3.45
-6.20
-8.63
-11.04
-13.78
-17.06
-20.76
-24.55
-28.04
-30.94
-33.33
-35.50
-37.90
-41.00
-45.06
-50.05
-55.52
-60.51
-63.68
-63.68
-59.57
-51.28
-39.73
-26.49
-13.32
-1.51
8.33
16.16
22.18
26.57
29.35
30.60
30.56
29.71
28.63
27.78
27.36
27.29
27.38
27.49
27.51
27.50
27.50
27.58
27.75
27.99
28.23
28.34
28.21
27.75
26.90
25.57
23.62
20.82
16.95
12.00
6.27
0.37
-5.06
-9.57
-13.16
-16.23
-19.33
-22.75
-26.32
-29.50
-31.68
-32.66
-32.77
-32.83
-33.77
-36.22
-40.33
-45.76
-51.91
-58.04
-63.37
-67.05
-68.25
-66.36
-61.21
-53.25
-43.38
-32.69
-22.07
-11.96
-2.45
6.56
15.05
22.89
29.79
35.52
39.90
42.80
44.16
44.00
42.54
40.21
37.63
35.34
33.68
32.63
31.94
31.28
30.42
29.36
28.20
27.04
25.87
24.56
22.92
20.83
18.32
15.54
12.73
10.11
7.75
5.58
3.49
1.30
-1.03
-3.46
-5.91
-8.34
-10.86
-13.66
-16.93
-20.66
-24.68
-28.72
-32.59
-36.39
-40.50
-45.34
-51.02
-57.02
-62.14
-64.77
-63.42
-57.32
-46.77
-33.08
-18.17
-3.99
8.08
17.51
24.52
29.75
33.81
37.02
39.34
40.64
40.92
40.45
39.66
38.96
38.45
37.95
37.10
35.70
33.88
32.10
30.93
30.65
31.12
31.76
31.89
31.04
29.16
26.63
23.89
21.23
18.63
15.84
12.66
9.10
5.46
2.13
-0.62
-2.84
-4.87
-7.16
-10.06
-13.66
-17.81
-22.20
-26.48
-30.36
-33.73
-36.75
-39.79
-43.40
-48.03
-53.82
-60.25
-66.20
-70.18
-70.84
-67.40
-59.93
-49.24
-36.57
-23.24
-10.38
1.15
10.79
18.29
23.74
27.54
30.29
32.54
34.59
36.40
37.63
37.96
37.29
35.81
34.01
32.39
31.34
30.89
30.86
30.85
30.50
29.59
28.17
26.43
24.63
22.88
21.07
18.91
16.18
12.83
9.17
5.60
2.50
-0.04
-2.26
-4.59
-7.34
-10.57
-14.04
-17.36
-20.25
-22.62
-24.70
-26.83
-29.38
-32.58
-36.57
-41.37
-46.86
-52.78
-58.50
-63.07
-65.26
-63.93
-58.41
-48.80
-36.07
-21.79
-7.72
4.68
14.58
21.86
26.95
30.55
33.32
35.67
37.71
39.28
40.17
40.29
39.73
38.79
37.83
37.19
36.97
37.10
37.37
37.54
37.46
37.06
36.43
35.62
34.62
33.28
31.42
28.88
25.72
22.16
18.55
15.14
11.97
8.84
5.45
1.61
-2.66
-7.13
-11.45
-15.40
-18.94
-22.22
-25.45
-28.77
-32.20
-35.67
-39.11
-42.60
-46.36
-50.77
-56.10
-62.25
-68.56
-73.77
-76.27
-74.65
-68.20
-57.21
-42.96
-27.30
-12.00
1.65
13.10
22.42
29.92
35.90
40.49
43.68
45.54
46.34
46.55
46.68
47.02
47.59
48.11
48.31
48.09
47.68
47.45
47.76
48.66
49.88
50.93
51.39
51.05
49.98
48.52
46.99
45.62
44.44
43.26
41.77
39.69
36.93
33.72
30.55
27.89
25.98
24.59
23.04
20.55
16.59
11.21
4.94
-1.42
-7.30
-12.62
-17.80
-23.45
-30.10
-37.96
-46.95
-56.84
-67.18
-77.15
-85.40
-90.15
-89.73
-83.25
-71.20
-55.51
-38.93
-24.12
-12.77
-5.26
-0.84
1.72
3.54
5.21
6.82
8.15
8.94
9.14
8.92
8.65
8.67
9.18
10.12
11.27
12.41
13.49
14.63
16.08
18.03
20.42
22.93
25.07
26.40
26.66
25.85
24.21
22.06
19.69
17.27
14.84
12.38
9.84
7.20
4.43
1.48
-1.73
-5.29
-9.30
-13.76
-18.53
-23.33
-27.84
-31.90
-35.59
-39.39
-44.01
-50.19
-58.22
-67.65
-77.14
-84.72
-88.38
-86.76
-79.66
-68.05
-53.80
-38.95
-25.13
-13.22
-3.37
4.72
11.45
17.15
22.00
26.12
29.66
32.87
35.96
39.06
42.05
44.65
46.45
47.22
47.08
46.48
46.05
46.19
46.88
47.55
47.46
45.98
43.02
39.04
34.83
31.08
28.09
25.70
23.37
20.60
17.06
12.79
8.12
3.44
-0.93
-4.94
-8.74
-12.57
-16.64
-21.01
-25.57
-30.15
-34.64
-39.02
-43.34
-47.63
-51.83
-55.86
-59.73
-63.70
-68.17
-73.48
-79.47
-85.29
-89.32
-89.70
-84.99
-74.72
-59.74
-41.91
-23.53
-6.60
7.69
19.11
28.10
35.38
41.51
46.67
50.71
53.39
54.61
54.58
53.72
52.44
50.97
49.28
47.23
44.78
42.19
39.91
38.37
37.71
37.60
37.40
36.49
34.51
31.59
28.23
25.03
22.39
20.37
18.73
17.06
15.00
12.33
9.03
5.30
1.45
-2.20
-5.47
-8.42
-11.32
-14.52
-18.21
-22.30
-26.36
-29.94
-32.75
-34.94
-36.99
-39.58
-43.22
-48.14
-54.17
-60.85
-67.46
-73.01
-76.33
-76.18
-71.65
-62.48
-49.36
-33.80
-17.75
-3.05
9.07
18.19
24.61
28.97
31.98
34.13
35.66
36.63
37.04
36.94
36.42
35.64
34.79
34.05
33.56
33.33
33.28
33.24
32.98
32.33
31.28
29.91
28.32
26.55
24.54
22.23
19.62
16.87
14.23
11.85
9.72
7.63
5.33
2.71
-0.13
-2.97
-5.65
-8.20
-10.89
-13.97
-17.60
-21.61
-25.67
-29.42
-32.75
-35.85
-39.15
-43.21
-48.45
-54.85
-61.81
-68.10
-72.07
-72.14
-67.32
-57.70
-44.39
-29.25
-14.24
-0.81
10.40
19.41
26.59
32.26
36.56
39.50
41.21
42.00
42.30
42.49
42.71
42.82
42.48
41.45
39.75
37.65
35.60
33.97
32.92
32.29
31.74
30.89
29.49
27.50
25.08
22.49
19.98
17.63
15.43
13.21
10.78
8.04
5.02
1.86
-1.23
-4.18
-7.07
-10.12
-13.54
-17.38
-21.46
-25.48
-29.22
-32.67
-36.05
-39.68
-43.73
-48.20
-52.99
-58.04
-63.42
-69.26
-75.47
-81.47
-86.16
-88.17
-86.25
-79.73
-68.77
-54.29
-37.72
-20.66
-4.48
9.86
21.94
31.83
39.92
46.58
52.02
56.15
58.78
59.86
59.65
58.73
57.73
57.06
56.73
56.45
55.90
54.94
53.74
52.58
51.61
50.67
49.39
47.34
44.41
40.81
37.08
33.78
31.17
29.19
27.38
25.20
22.26
18.47
14.08
9.51
5.21
1.39
-1.98
-5.12
-8.31
-11.72
-15.35
-19.08
-22.77
-26.35
-29.90
-33.53
-37.33
-41.31
-45.52
-50.08
-55.23
-61.08
-67.30
-72.85
-76.02
-74.89
-68.02
-55.10
-37.27
-16.81
3.56
21.64
36.31
47.76
57.10
65.75
74.65
83.92
92.88
100.41
105.66
108.56
110.00
111.57
114.86
120.76
128.87
137.62
144.76
148.25
147.03
141.39
132.64
122.31
111.35
99.60
85.83
68.29
45.45
16.70
-17.35
-54.96
-93.56
-130.30
-162.79
-189.89
-212.30
-232.98
-256.93
-289.41
-334.56
-393.34
-462.15
-533.03
-595.74
-641.17
-664.49
-666.37
-651.20
-624.99
-592.83
-557.60
-520.08
-480.27
-438.59
-396.44
-355.50
-315.43
-274.95
-232.89
-189.25
-145.42
-103.63
-66.42
-35.87
-12.89
6.74
27.67
52.64
81.13
110.63
138.52
162.67
181.59
194.52
208.99
231.89
265.51
306.26
348.08
386.34
418.56
443.67
461.30
483.43
520.39
575.02
641.06
708.99
772.12
827.55
874.50
913.08
959.24
1026.49
1118.42
1226.71
1338.73
1445.89
1545.39
1638.07
1629.49
1461.72
1140.34
736.24
332.57
-19.88
-304.76
-523.84
-685.05
-798.67
-861.37
-874.11
-847.64
-801.65
-756.03
-720.52
-695.78
-678.01
-663.36
-638.65
-596.01
-537.57
-474.61
-419.40
-377.94
-349.80
-331.73
-321.11
-309.35
-290.99
-266.01
-239.20
-215.78
-197.81
-184.78
-175.52
-169.52
-163.29
-154.16
-141.26
-125.76
-109.51
-93.67
-79.08
-66.58
-57.15
-50.02
-43.84
-37.17
-29.06
-19.30
-8.21
3.49
15.10
26.53
38.57
52.38
68.70
87.03
105.47
121.38
132.52
138.09
138.99
137.38
135.45
134.49
134.35
133.66
130.60
123.63
112.14
96.72
79.06
61.59
46.88
37.12
33.46
35.72
42.35
51.02
59.25
65.01
67.01
64.65
57.79
46.63
31.83
14.64
-2.91
-18.44
-29.69
-35.40
-35.82
-32.78
-29.02
-27.17
-28.63
-33.18
-39.37
-45.40
-50.03
-53.05
-55.05
-56.79
-58.55
-59.87
-59.90
-57.97
-54.15
-49.39
-45.14
-42.63
-42.38
-43.93
-46.20
-48.03
-48.77
-48.49
-47.82
-47.48
-47.73
-48.16
-47.98
-46.50
-43.59
-39.73
-35.73
-32.29
-29.82
-28.53
-28.76
-31.14
-36.44
-45.15
-56.96
-70.56
-83.83
-94.47
-100.65
-101.39
-96.61
-86.81
-72.77
-55.36
-35.65
-15.07
4.54
21.15
33.02
39.12
39.47
34.95
27.07
17.39
7.23
-2.47
-11.00
-17.75
-22.10
-23.56
-21.94
-17.61
-11.46
-4.73
1.30
5.70
8.05
8.39
7.12
4.68
1.44
-2.38
-6.52
-10.73
-14.62
-17.87
-20.38
-22.41
-24.54
-27.36
-31.16
-35.78
-40.57
-44.74
-47.73
-49.50
-50.64
-52.17
-55.10
-59.99
-66.71
-74.26
-80.96
-84.86
-84.29
-78.37
-67.31
-52.36
-35.40
-18.49
-3.32
9.08
18.30
24.38
27.67
28.70
28.10
26.62
24.95
23.57
22.64
22.00
21.33
20.34
18.97
17.36
15.82
14.65
13.98
13.74
13.66
13.32
12.27
10.30
7.48
4.23
1.19
-1.03
-2.04
-1.78
-0.47
1.43
3.40
4.88
5.34
4.41
2.05
-1.41
-5.32
-8.95
-11.84
-14.05
-16.17
-19.10
-23.66
-30.16
-38.15
-46.33
-52.78
-55.44
-52.82
-44.47
-31.23
-15.02
1.78
17.07
29.53
38.78
45.16
49.35
51.99
53.58
54.45
54.83
54.92
54.86
54.62
54.06
52.90
50.98
48.34
45.32
42.42
40.17
38.80
38.22
37.99
37.57
36.61
35.04
33.15
31.39
30.05
29.11
28.17
26.61
23.82
19.51
13.79
7.15
0.24
-6.48
-12.86
-19.06
-25.41
-32.04
-38.75
-45.03
-50.32
-54.28
-57.03
-59.04
-60.96
-63.37
-66.76
-71.38
-77.35
-84.44
-91.74
-97.56
-99.60
-95.73
-84.87
-67.78
-46.93
-25.78
-7.49
6.14
15.06
20.53
24.30
27.69
31.23
34.77
37.83
40.12
41.71
42.95
44.32
46.09
48.25
50.43
52.17
53.10
53.16
52.59
51.73
50.75
49.46
47.31
43.70
38.27
31.19
23.14
15.09
7.92
2.19
-2.05
-5.15
-7.68
-10.25
-13.21
-16.68
-20.46
-24.21
-27.63
-30.56
-33.05
-35.28
-37.49
-39.85
-42.62
-46.10
-50.76
-56.88
-64.26
-71.80
-77.52
-79.12
-74.85
-64.32
-48.78
-30.71
-12.87
2.65
14.93
24.20
31.23
36.76
41.07
44.02
45.35
44.99
43.17
40.43
37.38
34.49
31.96
29.65
27.33
24.86
22.40
20.36
19.22
19.22
20.10
21.18
21.63
20.90
18.96
16.28
13.55
11.29
9.59
8.13
6.45
4.20
1.34
-1.95
-5.46
-9.08
-12.87
-16.87
-20.95
-24.81
-28.07
-30.56
-32.43
-34.22
-36.65
-40.39
-45.75
-52.46
-59.59
-65.61
-68.79
-67.64
-61.56
-51.09
-37.82
-23.86
-10.99
-0.23
8.39
15.39
21.34
26.43
30.54
33.51
35.39
36.63
37.77
39.18
40.80
42.24
42.99
42.79
41.77
40.37
39.16
38.50
38.41
38.54
38.41
37.60
35.96
33.65
31.01
28.40
26.05
23.99
22.12
20.26
18.25
15.97
13.41
10.60
7.61
4.56
1.61
-1.13
-3.63
-5.98
-8.35
-10.95
-13.96
-17.38
-21.03
-24.65
-27.94
-30.73
-33.07
-35.28
-37.92
-41.72
-47.29
-54.72
-63.31
-71.38
-76.72
-77.17
-71.60
-60.37
-45.27
-28.82
-13.32
-0.13
10.58
19.38
26.92
33.50
39.00
43.14
45.96
47.90
49.68
51.89
54.63
57.50
59.81
61.03
61.07
60.34
59.50
59.12
59.50
60.58
62.20
64.21
66.63
69.43
72.33
74.78
75.90
74.84
70.91
63.82
53.63
40.70
25.70
9.50
-6.84
-22.25
-35.82
-47.04
-55.84
-62.49
-67.43
-70.97
-73.34
-74.60
-74.84
-74.25
-73.17
-72.13
-71.76
-72.75
-75.62
-80.43
-86.39
-91.72
-93.94
-90.65
-80.54
-64.05
-43.46
-22.06
-3.03
11.69
21.75
28.11
32.19
35.12
37.41
38.98
39.67
39.43
38.55
37.41
36.34
35.44
34.64
33.69
32.43
30.82
29.03
27.32
25.97
25.11
24.67
24.32
23.69
22.43
20.49
18.11
15.74
13.87
12.78
12.41
12.37
12.11
11.12
9.12
6.11
2.25
-2.15
-6.89
-11.72
-16.43
-20.78
-24.61
-27.96
-31.21
-34.94
-39.89
-46.71
-55.76
-66.90
-79.28
-91.29
-100.65
-104.99
-102.64
-93.28
-78.30
-60.28
-42.17
-26.21
-13.38
-3.46
4.41
10.95
16.42
20.68
23.50
25.00
25.62
25.95
26.33
26.75
26.85
26.21
24.67
22.47
20.26
18.78
18.55
19.55
21.25
22.76
23.22
22.13
19.53
15.87
11.82
7.88
4.30
1.07
-1.96
-4.82
-7.40
-9.44
-10.66
-10.97
-10.49
-9.54
-8.58
-7.94
-7.79
-8.03
-8.37
-8.44
-8.04
-7.11
-5.87
-4.68
-4.02
-4.34
-6.14
-9.85
-15.65
-23.15
-31.17
-37.84
-41.01
-39.06
-31.65
-19.89
-5.97
7.69
19.24
27.98
34.14
38.44
41.48
43.51
44.51
44.48
43.64
42.45
41.39
40.77
40.62
40.73
40.86
40.89
40.91
41.14
41.76
42.79
43.98
44.89
44.98
43.87
41.41
37.84
33.64
29.38
25.53
22.24
19.37
16.62
13.65
10.38
7.00
3.88
1.30
-0.72
-2.55
-4.79
-7.98
-12.32
-17.56
-23.10
-28.30
-32.83
-36.76
-40.56
-44.84
-50.12
-56.63
-64.21
-72.23
-79.57
-84.68
-85.86
-81.82
-72.13
-57.59
-40.05
-21.84
-5.06
8.98
19.95
28.26
34.65
39.79
44.07
47.60
50.32
52.13
52.99
52.96
52.20
50.97
49.52
48.03
46.61
45.30
44.16
43.28
42.68
42.27
41.80
40.93
39.35
36.97
33.92
30.53
27.12
23.84
20.62
17.21
13.42
9.22
4.82
0.55
-3.34
-6.78
-9.93
-13.05
-16.40
-20.05
-23.95
-28.00
-32.10
-36.24
-40.43
-44.73
-49.30
-54.37
-60.20
-66.94
-74.22
-81.04
-85.78
-86.71
-82.69
-73.60
-60.55
-45.39
-30.08
-16.03
-3.90
6.29
14.77
21.71
27.22
31.33
34.25
36.32
37.96
39.44
40.80
41.87
42.42
42.29
41.52
40.33
39.06
38.03
37.42
37.16
37.04
36.74
35.99
34.71
33.04
31.24
29.54
28.00
26.43
24.47
21.77
18.17
13.87
9.32
5.06
1.52
-1.15
-3.09
-4.61
-6.04
-7.69
-9.74
-12.30
-15.40
-18.93
-22.73
-26.62
-30.48
-34.38
-38.55
-43.33
-49.01
-55.55
-62.43
-68.63
-72.85
-73.80
-70.67
-63.45
-52.96
-40.70
-28.34
-17.30
-8.34
-1.41
4.23
9.53
15.28
21.74
28.59
35.11
40.51
44.33
46.57
47.57
47.80
47.61
47.15
46.41
45.48
44.52
43.81
43.51
43.55
43.62
43.28
42.24
40.42
38.02
35.38
32.74
30.22
27.69
24.96
21.84
18.27
14.37
10.39
6.62
3.34
0.66
-1.49
-3.38
-5.45
-8.06
-11.39
-15.30
-19.39
-23.23
-26.57
-29.48
-32.30
-35.55
-39.65
-44.81
-50.95
-57.54
-63.67
-68.10
-69.54
-66.96
-59.99
-49.18
-35.90
-21.90
-8.87
2.06
10.52
16.76
21.40
25.06
28.19
30.95
33.31
35.14
36.31
36.83
36.81
36.41
35.78
35.06
34.25
33.41
32.63
31.98
31.56
31.34
31.14
30.71
29.81
28.35
26.39
24.06
21.39
18.22
14.26
9.29
3.40
-2.88
-8.67
-13.09
-15.57
-16.26
-15.87
-15.45
-15.90
-17.63
-20.53
-24.03
-27.53
-30.66
-33.46
-36.29
-39.71
-44.25
-50.15
-57.21
-64.77
-71.70
-76.66
-78.35
-75.88
-69.04
-58.36
-45.00
-30.47
-16.33
-3.82
6.30
13.81
19.01
22.60
25.35
27.94
30.67
33.45
35.91
37.62
38.38
38.22
37.48
36.54
35.76
35.33
35.29
35.60
36.12
36.64
36.87
36.55
35.50
33.78
31.63
29.43
27.53
26.06
24.95
23.99
22.94
21.66
20.11
18.36
16.46
14.49
12.42
10.24
7.86
5.12
1.83
-2.19
-6.94
-12.33
-18.07
-23.97
-29.96
-36.26
-43.21
-51.08
-59.84
-68.94
-77.30
-83.48
-86.06
-83.99
-77.00
-65.74
-51.62
-36.45
-21.91
-9.17
1.30
9.61
16.21
21.56
26.00
29.78
33.02
35.85
38.29
40.25
41.55
41.99
41.55
40.37
38.83
37.35
36.27
35.70
35.49
35.29
34.73
33.53
31.63
29.14
26.36
23.63
21.19
19.16
17.48
15.92
14.21
12.13
9.62
6.79
3.84
0.99
-1.64
-4.04
-6.34
-8.71
-11.28
-14.09
-17.12
-20.27
-23.41
-26.48
-29.44
-32.39
-35.57
-39.33
-44.03
-49.84
-56.51
-63.30
-68.98
-72.10
-71.41
-66.25
-56.82
-44.21
-30.06
-16.15
-3.87
6.02
13.48
19.02
23.32
26.97
30.27
33.21
35.62
37.36
38.36
38.69
38.46
37.79
36.78
35.58
34.39
33.42
32.88
32.79
32.92
32.90
32.34
31.06
29.12
26.88
24.71
22.91
21.50
20.30
18.96
17.20
14.89
12.10
9.14
6.35
4.07
2.41
1.26
0.31
-0.85
-2.48
-4.62
-7.13
-9.70
-12.06
-14.01
-15.54
-16.81
-18.17
-20.08
-22.95
-26.93
-31.68
-36.22
-39.11
-38.88
-34.52
-25.89
-13.76
0.39
14.84
28.20
39.62
48.86
56.12
61.79
66.23
69.68
72.27
74.07
75.05
75.15
74.32
72.60
70.20
67.53
65.07
63.31
62.61
63.10
64.69
67.14
70.08
73.04
75.56
77.26
77.88
77.37
75.83
73.40
70.18
66.13
61.24
55.58
49.59
44.05
40.06
38.73
40.77
46.21
54.26
63.49
72.20
78.86
82.45
82.62
79.68
74.31
67.30
59.19
50.05
39.63
27.60
14.04
-0.26
-13.86
-25.13
-32.87
-36.76
-37.46
-36.30
-34.77
-34.18
-35.43
-39.06
-45.34
-54.20
-65.34
-78.29
-92.50
-107.43
-122.52
-137.10
-150.33
-161.36
-169.58
-174.93
-177.94
-179.44
-180.18
-180.43
-179.97
-178.22
-174.46
-168.00
-158.31
-145.01
-128.02
-107.66
-84.71
-60.24
-35.46
-11.42
11.01
31.12
48.10
61.03
69.02
71.51
68.61
61.12
50.35
37.67
24.24
10.88
-1.72
-12.80
-21.46
-26.91
-28.85
-27.82
-25.19
-22.63
-21.43
-22.03
-23.91
-26.12
-27.80
-28.50
-28.02
-26.00
-21.75
-14.47
-3.93
9.01
22.41
33.98
42.10
46.50
48.20
48.69
48.94
48.79
47.37
43.79
38.05
31.08
24.36
19.01
15.26
12.48
9.68
6.23
2.10
-2.14
-5.82
-8.58
-10.51
-12.10
-13.88
-16.25
-19.30
-22.98
-27.19
-31.83
-36.70
-41.35
-44.96
-46.49
-45.15
-40.66
-33.63
-25.38
-17.52
-11.34
-7.36
-5.44
-5.02
-5.78
-7.79
-11.53
-17.49
-25.70
-35.68
-46.50
-57.10
-66.53
-74.02
-78.90
-80.62
-78.83
-73.56
-65.44
-55.55
-45.25
-35.69
-27.57
-20.93
-15.42
-10.42
-5.43
-0.27
4.89
9.67
13.75
17.07
20.02
23.34
27.80
33.84
41.24
49.17
56.39
61.78
64.59
64.65
62.15
57.39
50.69
42.35
32.82
22.83
13.40
5.51
-0.17
-3.62
-5.46
-6.67
-8.19
-10.54
-13.72
-17.30
-20.70
-23.51
-25.59
-27.17
-28.61
-30.22
-32.10
-33.96
-35.21
-35.25
-33.78
-31.03
-27.78
-25.03
-23.55
-23.57
-24.71
-26.34
-27.89
-29.01
-29.57
-29.36
-27.99
-24.89
-19.73
-12.72
-4.70
3.17
9.89
15.07
18.94
22.08
24.96
27.57
29.40
29.79
28.34
25.28
21.49
18.38
17.39
19.65
25.70
35.26
47.31
60.20
71.90
80.35
84.02
82.26
75.57
65.53
54.36
44.32
36.99
32.94
31.81
32.72
34.77
37.37
40.19
42.93
44.97
45.35
43.05
37.43
28.66
17.81
6.64
-3.03
-9.87
-13.55
-14.79
-15.15
-16.49
-20.23
-26.86
-35.47
-43.84
-48.88
-47.65
-38.47
-21.96
-1.28
18.64
32.74
37.85
33.82
23.76
12.77
5.97
6.65
15.21
29.20
44.31
55.85
60.17
55.34
41.46
20.18
-6.01
-34.45
-62.83
-89.31
-112.44
-130.99
-143.89
-150.34
-149.92
-142.69
-129.15
-110.15
-86.88
-60.92
-34.21
-8.97
12.63
28.87
38.94
43.04
42.30
38.34
32.71
26.49
20.11
13.55
6.59
-0.83
-8.48
-15.89
-22.50
-27.95
-32.14
-35.27
-37.72
-39.94
-42.26
-44.85
-47.72
-50.69
-53.44
-55.42
-55.97
-54.48
-50.67
-44.73
-37.36
-29.61
-22.56
-17.07
-13.60
-12.24
-12.63
-14.03
-15.43
-15.68
-14.00
-10.23
-4.93
0.85
6.13
10.55
14.43
18.52
23.45
29.43
36.11
42.89
49.14
54.44
58.50
61.09
62.04
61.43
59.63
57.35
55.33
54.15
53.95
54.41
54.94
54.85
53.41
50.07
44.47
36.63
26.99
16.43
6.12
-2.80
-9.57
-13.99
-16.50
-17.99
-19.48
-21.87
-25.74
-31.33
-38.55
-46.96
-55.72
-63.39
-67.96
-67.09
-58.86
-42.37
-18.33
10.97
42.36
72.68
99.42
120.68
134.77
139.98
134.87
119.34
95.57
68.20
42.93
24.47
14.47
10.94
9.39
5.11
-4.70
-20.03
-38.68
-57.83
-75.30
-90.03
-101.59
-109.47
-112.81
-110.67
-102.77
-90.05
-74.58
-58.96
-45.49
-35.56
-29.47
-26.75
-26.60
-28.29
-31.29
-35.23
-39.84
-44.96
-50.58
-56.85
-64.05
-72.35
-81.68
-91.57
-101.12
-109.09
-113.92
-114.02
-108.17
-95.98
-78.15
-56.28
-32.35
-8.09
15.42
37.70
58.42
77.06
92.85
105.03
113.30
117.98
119.84
119.58
117.55
113.78
108.37
101.82
95.24
89.97
87.12
87.08
89.39
92.92
96.26
98.24
98.28
96.55
93.89
91.40
90.00
89.88
90.35
89.85
86.58
79.17
67.33
52.03
35.10
18.45
3.17
-10.88
-24.71
-39.43
-55.28
-71.26
-85.48
-96.20
-102.75
-106.10
-108.39
-112.05
-118.55
-127.79
-137.96
-146.08
-149.03
-144.44
-131.46
-110.96
-85.19
-57.13
-29.62
-4.74
16.50
33.96
48.04
59.25
68.06
74.94
80.45
85.24
89.92
94.89
100.12
105.24
109.66
112.77
114.09
113.23
109.86
103.69
94.50
82.38
67.82
51.68
34.97
18.45
2.43
-13.29
-29.12
-45.24
-61.26
-76.23
-88.91
-98.31
-104.06
-106.44
-106.12
-103.72
-99.56
-93.73
-86.35
-77.75
-68.50
-59.11
-49.88
-40.91
-32.34
-24.76
-19.17
-16.82
-18.56
-24.36
-33.09
-42.59
-49.97
-51.99
-45.60
-28.75
-1.27
34.53
73.97
111.24
141.24
161.26
171.58
174.80
174.21
172.30
170.07
167.27
163.32
157.95
151.29
143.58
134.95
125.57
116.04
107.51
101.30
97.84
95.92
92.53
83.93
67.25
42.00
10.51
-22.78
-52.92
-76.17
-91.00
-98.16
-99.76
-98.18
-95.22
-91.80
-88.27
-84.99
-82.64
-82.14
-84.18
-88.69
-94.66
-100.52
-104.77
-106.75
-106.88
-106.55
-107.40
-110.69
-116.79
-125.00
-133.80
-141.15
-145.04
-143.84
-136.55
-122.82
-102.95
-77.92
-49.50
-20.33
6.40
27.77
42.11
49.85
53.45
56.49
62.23
72.37
86.63
103.19
119.67
133.90
144.35
150.02
150.49
146.16
138.72
131.27
127.90
132.28
145.98
167.16
190.50
208.69
214.98
205.84
182.29
149.47
114.53
84.03
62.13
50.03
46.57
49.37
55.54
61.98
65.53
63.25
53.19
35.18
11.07
-15.88
-42.00
-64.45
-81.79
-94.09
-102.41
-108.34
-113.43
-119.00
-125.85
-134.17
-143.49
-152.80
-160.76
-165.94
-167.18
-163.69
-155.20
-141.96
-124.66
-104.42
-82.68
-61.06
-41.20
-24.50
-11.76
-2.99
2.63
6.47
9.89
13.72
17.91
21.56
23.52
23.06
20.40
16.81
14.14
14.02
17.16
23.04
30.13
36.49
40.43
41.01
38.16
32.56
25.44
18.22
12.18
8.06
5.86
4.74
3.35
0.32
-5.14
-13.04
-22.69
-33.05
-43.12
-52.13
-59.52
-64.72
-67.16
-66.39
-62.39
-55.69
-47.34
-38.56
-30.35
-23.34
-17.80
-13.96
-12.11
-12.49
-14.95
-18.60
-21.85
-22.86
-20.28
-13.75
-4.06
7.30
18.75
29.15
37.90
44.70
49.33
51.44
50.77
47.35
41.70
34.79
27.73
21.44
16.43
12.81
10.47
9.36
9.66
11.74
15.91
22.05
29.48
36.89
42.69
45.40
44.17
39.00
30.79
21.08
11.64
4.07
-0.54
-1.77
0.07
3.96
8.33
11.17
10.51
4.83
-6.39
-22.41
-41.36
-60.70
-77.98
-91.44
-100.42
-105.27
-107.01
-106.94
-106.28
-105.84
-105.85
-105.79
-104.49
-100.52
-92.61
-80.15
-63.35
-43.19
-21.07
1.56
23.43
43.66
61.68
77.40
91.03
103.00
113.79
123.60
132.28
139.26
143.86
145.59
144.28
140.17
133.73
125.48
115.80
104.94
93.08
80.51
67.71
55.36
44.22
34.90
27.66
22.26
18.11
14.46
10.80
7.08
3.79
1.74
1.74
4.21
8.83
14.49
19.49
21.92
20.23
13.76
3.06
-10.25
-24.03
-36.38
-46.37
-54.52
-62.67
-73.26
-88.49
-109.18
-134.16
-160.17
-182.48
-196.01
-196.70
-182.68
-154.91
-117.24
-75.61
-36.89
-7.41
8.27
8.04
-7.65
-36.23
-73.73
-115.43
-156.37
-191.76
-217.39
-230.33
-229.64
-216.70
-195.03
-169.25
-143.72
-121.27
-102.68
-86.87
-71.74
-55.17
-35.76
-13.23
11.62
36.99
60.63
80.19
93.91
100.85
101.00
95.05
84.05
69.28
52.19
34.51
18.12
4.63
-5.16
-11.65
-16.30
-21.05
-27.55
-36.58
-47.89
-60.41
-72.64
-82.97
-89.80
-91.79
-88.25
-79.55
-67.38
-54.51
-43.84
-37.26
-34.72
-34.16
-32.32
-26.11
-13.94
3.76
24.81
46.29
65.68
81.55
93.64
102.48
108.85
113.42
116.61
118.68
119.84
120.41
120.75
121.22
122.14
123.76
126.34
130.10
135.24
141.83
149.64
158.04
165.91
171.66
173.45
169.52
158.77
141.21
118.14
91.94
65.36
40.58
18.53
-1.17
-19.67
-37.98
-56.20
-73.38
-88.05
-99.05
-106.18
-110.36
-113.20
-116.28
-120.60
-126.34
-132.86
-138.97
-143.07
-143.40
-138.38
-126.98
-109.22
-86.32
-60.61
-34.78
-11.23
8.55
24.12
35.86
44.59
51.12
56.13
60.11
63.37
66.05
68.23
69.78
70.61
70.67
70.01
68.83
67.35
65.86
64.55
63.52
62.69
61.86
60.67
58.76
55.87
51.95
47.23
42.10
36.95
32.03
27.31
22.50
17.21
11.07
4.00
-3.77
-11.70
-19.08
-25.30
-30.09
-33.64
-36.71
-40.34
-45.58
-52.98
-62.20
-71.90
-79.93
-84.03
-82.53
-74.99
-62.32
-46.39
-29.43
-13.33
0.75
12.53
22.36
31.07
39.55
48.53
58.34
68.74
79.01
88.16
95.22
99.55
100.98
99.81
96.64
92.19
87.14
82.08
77.35
73.11
69.22
65.42
61.45
57.13
52.52
47.82
43.28
39.07
35.28
31.81
28.47
25.04
21.41
17.59
13.73
10.02
6.53
3.23
-0.05
-3.53
-7.32
-11.42
-15.69
-19.93
-23.95
-27.64
-30.92
-33.85
-36.52
-39.16
-42.21
-46.15
-51.35
-57.61
-63.98
-68.82
-70.18
-66.54
-57.43
-43.75
-27.50
-11.17
3.07
13.90
21.12
25.36
27.55
28.58
28.99
29.11
29.34
30.35
33.11
38.43
46.46
56.23
65.91
73.38
77.21
77.17
74.22
69.83
65.15
60.53
55.57
49.70
42.70
34.97
27.35
20.65
15.22
10.82
6.81
2.53
-2.38
-7.76
-13.09
-17.65
-20.93
-22.83
-23.76
-24.40
-25.41
-27.24
-30.06
-33.79
-38.35
-43.76
-50.11
-57.60
-66.37
-76.44
-87.39
-98.21
-107.27
-112.58
-112.43
-106.05
-94.06
-78.25
-60.94
-44.18
-29.15
-16.12
-4.82
5.09
13.78
21.25
27.52
32.75
37.12
40.71
43.42
45.09
45.73
45.62
45.23
45.04
45.27
45.83
46.38
46.56
46.15
45.15
43.65
41.80
39.69
37.37
34.83
32.10
29.18
26.09
22.75
19.08
14.91
10.12
4.70
-1.19
-7.13
-12.57
-17.00
-20.22
-22.48
-24.37
-26.68
-29.95
-34.33
-39.48
-44.84
-49.89
-54.37
-58.42
-62.49
-67.14
-72.85
-79.82
-87.63
-95.24
-101.05
-103.30
-100.66
-92.69
-80.10
-64.49
-47.83
-31.78
-17.40
-5.07
5.26
13.86
20.99
26.92
31.92
36.22
39.95
42.98
45.00
45.65
44.70
42.31
39.03
35.75
33.43
32.82
34.24
37.42
41.63
45.86
49.15
50.88
50.93
49.58
47.32
44.69
42.05
39.63
37.49
35.67
34.11
32.67
31.13
29.20
26.61
23.20
19.02
14.29
9.38
4.65
0.41
-3.19
-6.26
-9.08
-12.04
-15.45
-19.42
-23.81
-28.29
-32.52
-36.32
-39.80
-43.36
-47.59
-53.07
-60.19
-68.86
-78.34
-87.25
-93.79
-96.18
-93.24
-84.74
-71.61
-55.65
-39.00
-23.52
-10.46
-0.20
7.50
13.21
17.52
20.86
23.39
25.21
26.39
27.13
27.76
28.69
30.28
32.74
36.02
39.90
44.01
48.02
51.62
54.56
56.58
57.38
56.77
54.71
51.46
47.49
43.34
39.43
35.86
32.51
29.08
25.40
21.45
17.44
13.60
10.14
7.02
4.03
0.81
-2.98
-7.54
-12.83
-18.53
-24.22
-29.54
-34.31
-38.58
-42.65
-46.92
-51.85
-57.82
-64.99
-73.13
-81.42
-88.49
-92.61
-92.28
-86.72
-76.23
-62.15
-46.41
-30.88
-16.91
-5.08
4.66
12.70
19.48
25.34
30.48
35.01
38.96
42.29
44.92
46.71
47.57
47.48
46.56
45.04
43.26
41.56
40.24
39.46
39.17
39.15
39.06
38.46
37.09
34.90
32.15
29.26
26.66
24.61
23.07
21.81
20.52
19.00
17.18
15.10
12.77
10.16
7.15
3.64
-0.37
-4.74
-9.30
-13.85
-18.25
-22.40
-26.26
-29.82
-33.16
-36.48
-40.12
-44.49
-49.98
-56.77
-64.62
-72.71
-79.73
-84.06
-84.23
-79.51
-70.08
-57.15
-42.54
-28.16
-15.44
-5.07
3.05
9.52
15.05
20.16
25.05
29.53
33.30
36.07
37.74
38.42
38.35
37.84
37.13
36.40
35.76
35.27
34.85
34.26
33.08
30.85
27.29
22.58
17.39
12.76
9.80
9.23
11.13
14.84
19.22
23.06
25.45
25.99
24.81
22.37
19.19
15.68
12.14
8.70
5.44
2.41
-0.40
-3.09
-5.89
-9.05
-12.76
-17.08
-21.89
-26.93
-31.94
-36.67
-41.03
-45.13
-49.31
-54.10
-59.99
-67.10
-74.89
-82.06
-86.72
-87.08
-82.08
-71.89
-57.86
-42.06
-26.49
-12.53
-0.77
8.80
16.35
22.00
25.78
27.84
28.59
28.68
28.76
29.25
30.19
31.30
32.20
32.70
32.87
32.98
33.32
34.02
34.87
35.53
35.68
35.13
33.96
32.35
30.46
28.29
25.70
22.47
18.50
13.84
8.81
3.84
-0.58
-4.12
-6.69
-8.56
-10.25
-12.35
-15.25
-18.92
-22.89
-26.54
-29.36
-31.35
-33.06
-35.37
-39.09
-44.59
-51.57
-59.03
-65.48
-69.24
-68.78
-63.13
-52.22
-37.01
-19.38
-1.64
14.09
26.48
35.16
40.66
44.03
46.34
48.40
50.62
53.00
55.31
57.29
58.73
59.56
59.78
59.48
58.77
57.80
56.76
55.96
55.70
56.15
57.15
58.14
58.34
57.03
53.94
49.38
44.15
39.22
35.29
32.52
30.47
28.30
25.24
20.95
15.70
10.22
5.29
1.27
-2.12
-5.73
-10.58
-17.42
-26.38
-36.88
-47.95
-58.53
-67.88
-75.87
-82.98
-90.15
-98.47
-108.51
-119.91
-131.08
-139.46
-142.30
-137.70
-125.46
-107.24
-85.99
-64.81
-45.93
-30.16
-17.03
-5.54
5.14
15.24
24.48
32.49
39.16
44.78
49.72
54.15
57.75
59.84
59.77
57.40
53.34
48.85
45.27
43.46
43.42
44.29
44.88
44.25
42.07
38.70
34.80
30.97
27.38
23.83
20.01
15.74
11.14
6.55
2.36
-1.30
-4.61
-8.04
-12.10
-17.11
-22.98
-29.26
-35.29
-40.51
-44.66
-48.00
-51.19
-55.06
-60.30
-67.08
-74.90
-82.59
-88.56
-91.17
-89.23
-82.35
-71.03
-56.54
-40.60
-24.88
-10.70
1.23
10.75
18.15
23.95
28.65
32.62
36.04
38.89
41.06
42.44
42.96
42.66
41.70
40.30
38.69
37.06
35.51
33.99
32.42
30.64
28.46
25.79
22.60
18.97
15.12
11.33
7.86
4.84
2.18
-0.37
-3.11
-6.25
-9.74
-13.38
-16.84
-19.98
-22.86
-25.83
-29.36
-33.91
-39.81
-47.02
-55.13
-63.21
-69.89
-73.57
-72.89
-67.19
-56.85
-43.28
-28.44
-14.24
-1.88
8.28
16.61
23.64
29.76
34.95
38.96
41.57
42.84
43.19
43.18
43.23
43.39
43.29
42.27
39.82
35.97
31.44
27.46
25.28
25.59
28.17
31.93
35.44
37.59
38.01
37.05
35.45
33.73
31.88
29.37
25.49
19.92
12.96
5.49
-1.43
-7.12
-11.47
-15.01
-18.50
-22.56
-27.41
-32.97
-39.02
-45.43
-52.02
-58.34
-63.49
-66.20
-65.34
-60.45
-52.15
-41.94
-31.61
-22.56
-15.37
-9.78
-5.18
-1.02
2.88
6.39
9.32
11.59
13.36
14.90
16.44
18.07
19.72
21.19
22.34
23.16
23.85
24.76
26.25
28.47
31.21
33.84
35.54
35.51
33.38
29.26
23.79
17.75
11.86
6.45
1.53
-3.18
-7.97
-12.98
-18.15
-23.19
-27.73
-31.47
-34.30
-36.35
-38.00
-39.77
-42.25
-45.87
-50.71
-56.31
-61.56
-64.82
-64.34
-58.87
-48.15
-33.13
-15.71
1.90
17.87
31.19
41.70
49.86
56.32
61.62
66.06
69.70
72.49
74.26
74.85
74.14
72.15
69.02
64.99
60.36
55.44
50.55
45.99
42.01
38.71
36.02
33.63
31.05
27.84
23.80
19.10
14.17
9.57
5.68
2.50
-0.36
-3.51
-7.46
-12.36
-17.91
-23.49
-28.40
-32.23
-34.98
-37.14
-39.46
-42.73
-47.53
-53.88
-61.17
-68.12
-73.09
-74.46
-71.13
-62.90
-50.61
-35.86
-20.54
-6.33
5.75
15.34
22.61
28.04
32.06
35.00
37.12
38.61
39.58
40.08
40.08
39.46
38.19
36.37
34.24
32.12
30.30
28.88
27.86
27.15
26.63
26.22
25.83
25.27
24.32
22.73
20.38
17.29
13.63
9.63
5.60
1.78
-1.60
-4.49
-7.03
-9.53
-12.42
-16.05
-20.45
-25.39
-30.38
-35.00
-39.05
-42.73
-46.47
-50.81
-56.19
-62.83
-70.61
-78.97
-86.78
-92.38
-93.93
-89.96
-80.00
-64.92
-46.82
-28.35
-11.87
1.28
10.95
17.93
23.36
28.19
32.88
37.40
41.44
44.65
46.85
48.15
48.91
49.58
50.58
52.06
53.87
55.70
57.17
57.97
57.95
57.03
55.15
52.28
48.43
43.75
38.59
33.40
28.56
24.24
20.30
16.42
12.24
7.57
2.48
-2.71
-7.53
-11.55
-14.54
-16.61
-18.14
-19.71
-21.78
-24.58
-28.01
-31.70
-35.23
-38.28
-40.83
-43.19
-45.88
-49.50
-54.45
-60.69
-67.52
-73.59
-77.14
-76.45
-70.52
-59.46
-44.57
-27.97
-11.98
1.58
11.71
18.34
22.10
24.01
25.09
26.14
27.58
29.40
31.26
32.64
33.02
32.14
29.95
26.77
22.99
19.09
15.46
12.32
9.68
7.39
5.23
3.05
0.88
-1.05
-2.35
-2.68
-1.88
-0.12
1.99
3.55
3.53
1.13
-3.89
-11.06
-19.30
-27.27
-33.81
-38.38
-41.14
-42.92
-44.75
-47.60
-51.92
-57.54
-63.52
-68.36
-70.28
-67.76
-60.02
-47.43
-31.40
-14.02
2.66
17.21
29.08
38.42
45.77
51.59
56.15
59.55
61.92
63.54
64.75
65.76
66.55
66.83
66.27
64.78
62.63
60.40
58.66
57.64
57.11
56.45
54.97
52.18
48.02
42.82
37.06
31.10
25.10
19.00
12.70
6.21
-0.42
-7.05
-13.68
-20.34
-27.08
-33.86
-40.51
-46.84
-52.88
-58.95
-65.53
-72.90
-80.70
-87.70
-92.12
-92.22
-87.07
-77.09
-63.89
-49.67
-36.38
-25.10
-15.94
-8.33
-1.60
4.61
10.27
15.15
19.09
22.18
24.71
27.11
29.66
32.48
35.49
38.36
40.77
42.49
43.42
43.66
43.40
42.77
41.72
40.11
37.69
34.37
30.30
25.88
21.68
18.29
16.10
15.13
14.97
14.94
14.31
12.53
9.49
5.46
0.89
-3.86
-8.70
-13.89
-19.80
-26.71
-34.67
-43.48
-52.70
-61.67
-69.52
-75.13
-77.23
-74.67
-66.85
-54.00
-37.33
-18.78
-0.49
15.75
28.92
38.80
45.75
50.38
53.23
54.67
54.90
54.13
52.67
50.88
49.14
47.72
46.71
46.02
45.40
44.53
43.12
41.03
38.38
35.50
32.75
30.39
28.46
26.77
25.12
23.38
21.61
19.96
18.47
16.93
14.95
12.13
8.29
3.65
-1.27
-5.88
-9.80
-13.07
-16.08
-19.41
-23.42
-28.15
-33.27
-38.24
-42.67
-46.54
-50.29
-54.65
-60.29
-67.51
-76.06
-84.98
-92.81
-97.82
-98.46
-93.73
-83.59
-69.09
-52.10
-34.77
-18.96
-5.77
4.60
12.62
19.04
24.49
29.35
33.75
37.60
40.72
42.89
43.87
43.44
41.58
38.47
34.53
30.38
26.60
23.56
21.41
20.03
19.16
18.43
17.50
16.06
13.86
10.81
7.07
3.03
-0.75
-3.76
-5.71
-6.69
-7.15
-7.75
-9.06
-11.34
-14.45
-17.95
-21.28
-24.13
-26.55
-28.97
-32.00
-36.17
-41.74
-48.46
-55.64
-62.26
-67.11
-69.07
-67.33
-61.60
-52.20
-40.05
-26.38
-12.52
0.42
11.72
21.03
28.34
33.80
37.67
40.31
42.09
43.36
44.36
45.17
45.77
46.12
46.17
46.00
45.70
45.32
44.86
44.27
43.46
42.34
40.77
38.45
34.89
29.61
22.39
13.56
4.19
-4.21
-10.13
-12.72
-12.16
-9.78
-7.49
-7.09
-9.60
-14.95
-22.18
-29.96
-37.09
-42.94
-47.48
-51.10
-54.52
-58.46
-63.53
-69.96
-77.36
-84.65
-90.18
-92.21
-89.42
-81.54
-69.34
-54.46
-38.82
-24.10
-11.36
-0.99
7.18
13.69
19.19
24.28
29.37
34.49
39.40
43.60
46.64
48.27
48.65
48.23
47.58
47.17
47.13
47.33
47.41
47.08
46.18
44.73
42.93
40.94
38.86
36.62
34.07
30.97
27.15
22.58
17.38
11.83
6.28
1.13
-3.33
-6.96
-9.82
-12.14
-14.19
-16.24
-18.41
-20.67
-22.88
-25.01
-27.14
-29.59
-32.82
-37.25
-43.14
-50.35
-58.37
-66.27
-72.77
-76.44
-75.84
-69.82
-57.79
-39.89
-16.92
9.70
38.19
66.63
93.20
116.39
135.20
149.39
159.56
167.03
173.51
180.72
189.82
201.08
213.53
224.98
232.29
231.99
221.31
199.08
166.41
126.69
84.84
46.17
15.07
-5.86
-16.13
-17.01
-10.90
-0.47
11.85
24.09
34.72
42.38
45.90
44.49
38.23
28.23
16.32
4.23
-7.45
-19.52
-33.72
-51.29
-71.81
-92.73
-110.30
-121.14
-123.90
-119.87
-112.31
-104.95
-100.44
-99.70
-102.10
-106.35
-111.19
-115.56
-118.35
-118.17
-113.48
-103.35
-88.34
-70.92
-55.03
-44.76
-42.75
-49.21
-62.05
-78.00
-93.99
-108.11
-119.80
-129.37
-137.49
-144.70
-151.30
-157.30
-162.42
-166.05
-167.33
-165.34
-159.43
-149.46
-135.91
-119.79
-102.40
-85.05
-68.78
-54.05
-40.73
-28.21
-15.68
-2.56
11.42
26.44
42.80
61.02
81.56
104.34
128.39
151.96
173.23
191.04
205.38
217.22
227.85
238.19
248.44
258.00
265.74
270.33
270.37
264.57
252.11
233.10
208.94
182.18
155.69
131.31
108.91
86.26
60.30
29.06
-6.69
-43.21
-75.17
-97.99
-109.87
-112.38
-109.37
-104.94
-101.64
-99.95
-98.99
-97.86
-96.52
-95.88
-97.02
-100.36
-105.14
-109.70
-112.31
-111.95
-108.86
-104.35
-100.25
-98.03
-98.19
-100.01
-101.89
-102.06
-99.22
-93.11
-84.52
-75.01
-66.42
-60.46
-58.37
-60.68
-67.17
-76.89
-88.24
-99.21
-107.64
-111.57
-109.67
-101.56
-88.05
-71.07
-53.14
-36.79
-23.74
-14.54
-8.48
-4.07
0.44
6.49
15.08
26.70
41.36
58.50
76.96
94.88
110.09
120.73
125.85
126.01
123.24
120.49
120.38
123.97
129.93
134.65
133.44
122.19
98.88
64.12
20.65
-27.81
-77.58
-125.49
-168.73
-204.51
-230.19
-243.88
-245.22
-235.85
-218.93
-198.20
-176.63
-155.75
-135.63
-115.63
-95.23
-74.61
-54.67
-36.60
-21.30
-9.19
-0.16
6.00
9.36
9.79
7.37
2.72
-2.77
-7.22
-8.94
-7.10
-2.08
4.78
11.74
17.38
21.10
23.13
24.46
26.20
29.26
33.98
40.17
47.30
54.79
62.28
69.61
76.58
82.70
87.16
89.01
87.57
82.81
75.37
66.35
56.82
47.54
38.82
30.72
23.20
16.23
9.77
3.69
-2.33
-8.65
-15.50
-22.73
-29.71
-35.37
-38.49
-38.05
-33.73
-26.04
-16.25
-5.89
3.75
12.06
19.19
25.75
32.34
39.15
45.90
52.03
57.10
60.98
63.87
66.13
68.01
69.49
70.41
70.61
70.07
69.05
67.90
66.90
66.16
65.53
64.75
63.52
61.66
59.17
56.19
53.03
49.98
47.23
44.76
42.38
39.85
37.03
33.90
30.64
27.38
24.14
20.79
17.13
13.09
8.88
4.82
1.23
-1.82
-4.63
-7.78
-11.73
-16.68
-22.29
-27.93
-32.90
-36.87
-40.03
-43.03
-46.70
-51.73
-58.36
-66.26
-74.56
-81.98
-87.04
-88.41
-85.28
-77.71
-66.59
-53.50
-40.13
-27.72
-16.77
-6.98
2.26
11.47
20.73
29.71
37.96
45.20
51.43
56.87
61.74
66.13
69.98
73.22
75.93
78.34
80.69
83.21
86.15
89.91
95.15
102.73
113.29
126.85
142.53
158.65
173.27
184.74
192.31
196.03
196.61
194.97
191.96
188.33
184.72
181.58
178.99
176.44
172.82
166.79
157.18
143.42
125.70
104.78
81.68
57.31
32.34
7.17
-17.88
-42.44
-65.86
-87.24
-105.55
-120.01
-130.54
-138.17
-145.09
-154.10
-167.60
-186.49
-209.47
-233.16
-253.08
-265.05
-266.49
-257.07
-238.60
-214.20
-187.28
-160.70
-136.33
-115.08
-97.17
-82.35
-70.15
-59.92
-50.96
-42.67
-34.56
-26.39
-18.13
-9.97
-2.26
4.54
9.89
13.38
14.87
14.59
12.99
10.66
7.97
5.08
1.92
-1.64
-5.57
-9.74
-13.97
-18.18
-22.38
-26.59
-30.62
-34.07
-36.35
-37.00
-35.88
-33.25
-29.62
-25.55
-21.44
-17.46
-13.61
-9.88
-6.32
-3.03
-0.09
2.47
4.65
6.36
7.51
7.99
7.77
6.98
5.83
4.48
2.97
1.13
-1.30
-4.56
-8.78
-13.87
-19.47
-24.91
-29.21
-31.20
-29.79
-24.27
-14.58
-1.45
13.75
29.45
44.24
57.17
67.87
76.33
82.73
87.18
89.72
90.38
89.30
86.78
83.26
79.17
74.72
69.84
64.31
57.90
50.62
42.80
34.97
27.64
21.01
14.85
8.57
1.39
-7.30
-17.77
-29.87
-43.07
-56.65
-69.74
-81.50
-91.15
-98.10
-102.05
-102.98
-101.20
-97.23
-91.69
-85.20
-78.35
-71.62
-65.36
-59.65
-54.30
-48.77
-42.42
-34.66
-25.22
-14.45
-3.40
6.24
12.41
13.22
7.52
-4.54
-21.37
-40.26
-58.13
-72.29
-81.19
-84.58
-83.33
-78.87
-72.71
-66.03
-59.63
-53.91
-49.04
-45.01
-41.59
-38.45
-35.16
-31.31
-26.66
-21.23
-15.31
-9.27
-3.34
2.63
9.20
17.14
27.09
39.13
52.66
66.44
78.95
88.79
95.09
97.62
96.70
93.09
87.66
81.27
74.50
67.69
60.87
53.98
47.13
40.82
35.94
33.41
33.71
36.49
40.42
43.67
44.53
42.03
36.19
27.74
17.66
6.74
-4.60
-16.20
-27.87
-39.34
-50.16
-60.00
-68.78
-76.68
-83.94
-90.59
-96.16
-99.65
-99.83
-95.71
-87.04
-74.57
-59.86
-44.74
-30.76
-18.67
-8.36
0.78
9.45
18.01
26.44
34.43
41.56
47.49
52.10
55.38
57.46
58.53
58.81
58.57
58.06
57.55
57.23
57.22
57.52
57.97
58.29
58.13
57.23
55.46
52.97
50.12
47.33
44.89
42.90
41.18
39.38
37.16
34.35
31.07
27.64
24.45
21.76
19.56
17.58
15.50
13.06
10.24
7.16
4.05
1.04
-1.81
-4.55
-7.22
-9.82
-12.40
-15.08
-18.07
-21.74
-26.33
-31.85
-37.88
-43.49
-47.39
-48.12
-44.58
-36.23
-23.32
-6.77
12.13
32.08
52.00
71.05
88.66
104.42
118.28
130.63
142.34
154.62
168.60
184.95
203.54
223.21
241.93
256.94
265.31
264.63
253.56
232.29
202.46
166.68
127.81
88.36
50.17
14.62
-17.13
-43.88
-64.63
-78.88
-87.03
-90.31
-90.37
-88.69
-86.06
-82.56
-77.78
-71.39
-63.46
-54.61
-45.67
-37.42
-30.32
-24.42
-19.54
-15.40
-11.75
-8.40
-5.19
-2.06
0.94
3.53
5.22
5.23
2.65
-3.35
-13.16
-26.28
-41.33
-56.25
-68.94
-77.82
-82.37
-83.04
-80.97
-77.47
-73.63
-70.20
-67.57
-65.85
-64.87
-64.34
-63.88
-63.23
-62.34
-61.29
-60.20
-59.02
-57.54
-55.55
-53.04
-50.21
-47.31
-44.39
-41.16
-37.13
-31.81
-25.14
-17.50
-9.62
-2.24
4.12
9.22
13.01
15.39
16.18
15.27
12.74
8.96
4.42
-0.54
-5.85
-11.76
-18.58
-26.47
-35.25
-44.44
-53.41
-61.56
-68.45
-73.78
-77.36
-79.22
-79.58
-79.00
-78.26
-78.14
-79.01
-80.58
-81.80
-81.25
-77.58
-70.16
-59.39
-46.60
-33.55
-21.83
-12.34
-5.18
0.14
4.36
8.04
11.42
14.40
16.76
18.30
19.03
19.10
18.82
18.48
18.21
18.01
17.77
17.40
16.94
16.53
16.35
16.48
16.82
17.06
16.94
16.34
15.40
14.44
13.81
13.66
13.79
13.78
13.07
11.31
8.41
4.64
0.44
-3.76
-7.70
-11.28
-14.61
-17.81
-20.92
-23.84
-26.40
-28.42
-29.86
-30.87
-31.83
-33.29
-35.74
-39.48
-44.37
-49.70
-54.30
-56.71
-55.76
-50.91
-42.58
-32.05
-20.99
-10.92
-2.66
3.69
8.64
12.88
16.90
20.77
24.08
26.20
26.46
24.59
20.80
15.83
10.69
6.27
3.10
1.14
0.06
-0.47
-0.62
-0.31
0.51
1.67
2.70
3.00
2.08
-0.14
-3.37
-6.97
-10.24
-12.68
-14.10
-14.72
-15.05
-15.73
-17.30
-19.91
-23.26
-26.74
-29.64
-31.54
-32.53
-33.15
-34.22
-36.46
-40.30
-45.60
-51.74
-57.66
-62.12
-63.88
-61.89
-55.57
-44.93
-30.69
-14.26
2.58
18.02
30.72
40.07
46.30
50.28
53.12
55.70
58.32
60.73
62.32
62.49
61.03
58.26
54.86
51.64
49.22
47.76
47.02
46.45
45.51
43.88
41.50
38.51
35.12
31.44
27.42
22.96
18.04
12.88
7.89
3.55
0.20
-2.20
-4.04
-5.97
-8.52
-12.01
-16.40
-21.33
-26.38
-31.17
-35.46
-39.18
-42.40
-45.27
-48.00
-50.93
-54.50
-59.13
-65.01
-71.79
-78.34
-82.80
-83.01
-77.25
-64.95
-47.14
-26.18
-5.00
13.80
28.75
39.75
47.68
53.85
59.26
64.31
68.79
72.23
74.23
74.71
73.87
72.14
69.86
67.26
64.41
61.35
58.23
55.28
52.79
50.88
49.37
47.79
45.56
42.19
37.51
31.74
25.50
19.54
14.54
10.81
8.27
6.36
4.44
1.99
-1.10
-4.56
-7.87
-10.62
-12.68
-14.26
-15.82
-17.81
-20.50
-23.84
-27.58
-31.37
-34.90
-38.00
-40.55
-42.70
-44.58
-46.50
-48.84
-51.96
-56.12
-61.18
-66.49
-70.88
-72.84
-70.99
-64.52
-53.57
-39.16
-22.97
-6.77
7.99
20.54
30.74
38.95
45.70
51.44
56.40
60.55
63.68
65.56
66.15
65.58
64.22
62.50
60.78
59.31
58.12
57.21
56.50
55.97
55.47
54.76
53.48
51.24
47.84
43.38
38.26
33.04
28.20
23.90
19.98
16.09
11.88
7.29
2.54
-1.98
-5.96
-9.33
-12.28
-15.13
-18.12
-21.24
-24.21
-26.64
-28.20
-28.81
-28.57
-27.70
-26.45
-25.07
-23.90
-23.36
-23.88
-25.58
-28.07
-30.33
-30.99
-28.89
-23.58
-15.61
-6.39
2.40
9.39
14.00
16.42
17.34
17.51
17.40
17.10
16.46
15.31
13.71
11.95
10.48
9.70
9.69
10.23
10.83
11.05
10.68
9.88
9.06
8.68
8.91
9.56
10.11
9.99
8.87
6.83
4.30
1.85
-0.07
-1.39
-2.41
-3.62
-5.45
-7.98
-10.91
-13.72
-15.91
-17.27
-17.99
-18.58
-19.55
-21.18
-23.35
-25.62
-27.45
-28.47
-28.70
-28.54
-28.59
-29.44
-31.43
-34.63
-38.88
-43.83
-49.01
-53.75
-57.12
-58.07
-55.72
-49.74
-40.61
-29.57
-18.24
-8.11
-0.03
5.91
10.19
13.54
16.60
19.69
22.88
26.11
29.24
32.17
34.78
37.00
38.79
40.20
41.29
42.20
43.04
43.95
45.13
46.77
49.07
51.98
55.11
57.64
58.54
56.89
52.23
44.77
35.31
24.89
14.45
4.58
-4.53
-12.79
-20.13
-26.32
-31.02
-33.98
-35.14
-34.77
-33.37
-31.57
-29.98
-29.07
-29.06
-29.90
-31.39
-33.22
-35.13
-36.94
-38.63
-40.26
-42.00
-44.09
-46.87
-50.62
-55.44
-60.97
-66.32
-70.20
-71.21
-68.36
-61.52
-51.40
-39.43
-27.23
-16.13
-6.85
0.48
6.18
10.67
14.33
17.39
19.98
22.19
24.13
25.89
27.48
28.81
29.69
29.92
29.48
28.52
27.44
26.63
26.33
26.53
26.90
27.05
26.64
25.59
24.02
22.13
20.07
17.85
15.46
13.04
10.80
9.04
7.95
7.42
7.08
6.43
5.10
3.02
0.55
-1.80
-3.54
-4.47
-4.89
-5.35
-6.41
-8.33
-10.97
-13.77
-16.13
-17.66
-18.43
-18.95
-19.95
-22.15
-25.97
-31.33
-37.61
-43.67
-48.08
-49.38
-46.63
-39.64
-29.21
-16.87
-4.41
6.65
15.43
21.70
25.74
28.03
29.10
29.41
29.39
29.40
29.66
30.13
30.57
30.73
30.37
29.54
28.43
27.32
26.41
25.73
25.20
24.65
24.00
23.20
22.22
21.06
19.66
17.96
15.92
13.60
11.15
8.83
6.89
5.48
4.59
3.98
3.29
2.20
0.57
-1.45
-3.50
-5.17
-6.26
-6.90
-7.59
-8.94
-11.43
-15.12
-19.54
-23.85
-27.21
-29.16
-29.86
-30.04
-30.68
-32.58
-36.05
-40.73
-45.75
-49.90
-51.99
-51.09
-46.79
-39.28
-29.36
-18.30
-7.46
1.97
9.27
14.23
17.10
18.36
18.59
18.34
18.05
17.99
18.24
18.72
19.23
19.54
19.51
19.09
18.39
17.55
16.72
16.08
15.76
15.85
16.32
17.06
17.83
18.36
18.37
17.69
16.28
14.28
11.94
9.54
7.26
5.19
3.25
1.32
-0.76
-3.02
-5.40
-7.67
-9.56
-10.90
-11.67
-12.10
-12.55
-13.40
-14.89
-16.92
-19.19
-21.26
-22.78
-23.65
-24.11
-24.62
-25.78
-28.07
-31.72
-36.55
-41.95
-46.83
-49.92
-50.02
-46.43
-39.17
-29.03
-17.35
-5.61
5.01
13.82
20.64
25.68
29.30
31.90
33.78
35.16
36.13
36.77
37.13
37.35
37.55
37.68
37.40
36.02
32.78
27.28
19.89
11.79
4.60
-0.27
-2.23
-1.73
0.06
1.82
2.74
2.76
2.33
2.04
2.22
2.68
2.99
2.70
1.72
0.34
-0.90
-1.45
-1.14
-0.22
0.74
1.13
0.57
-0.97
-3.15
-5.52
-7.71
-9.61
-11.28
-12.94
-14.74
-16.80
-19.14
-21.84
-25.05
-28.96
-33.52
-38.28
-42.24
-44.04
-42.37
-36.52
-26.81
-14.60
-1.82
9.61
18.50
24.59
28.47
31.05
33.15
35.14
36.99
38.51
39.55
40.17
40.64
41.23
42.12
43.21
44.21
44.78
44.75
44.22
43.54
43.10
43.07
43.29
43.27
42.47
40.57
37.68
34.31
31.11
28.54
26.66
25.10
23.28
20.76
17.37
13.32
8.98
4.70
0.58
-3.56
-7.97
-12.85
-18.11
-23.39
-28.18
-32.10
-35.08
-37.33
-39.31
-41.49
-44.27
-47.86
-52.29
-57.24
-62.07
-65.79
-67.22
-65.37
-59.82
-51.00
-40.08
-28.64
-18.19
-9.66
-3.34
1.13
4.41
7.21
10.03
13.12
16.44
19.70
22.56
24.70
25.90
26.16
25.65
24.69
23.67
22.97
22.88
23.55
24.83
26.40
27.75
28.39
27.97
26.44
24.08
21.36
18.79
16.66
14.94
13.26
11.16
8.36
4.94
1.39
-1.69
-3.85
-5.09
-5.81
-6.64
-8.08
-10.36
-13.33
-16.57
-19.58
-21.84
-23.02
-23.08
-22.56
-22.60
-24.75
-30.46
-40.32
-53.61
-68.18
-81.10
-89.51
-91.64
-87.26
-77.53
-64.54
-50.42
-36.86
-24.86
-14.77
-6.49
0.22
5.64
10.11
13.94
17.52
21.11
24.89
28.77
32.50
35.69
38.04
39.43
39.98
39.99
39.78
39.59
39.46
39.23
38.61
37.34
35.28
32.53
29.39
26.23
23.38
20.94
18.80
16.77
14.66
12.42
10.11
7.88
5.84
4.06
2.54
1.20
-0.05
-1.44
-3.24
-5.70
-8.85
-12.51
-16.28
-19.72
-22.68
-25.36
-28.43
-32.55
-38.15
-44.98
-51.98
-57.52
-59.86
-57.79
-51.04
-40.44
-27.62
-14.46
-2.49
7.46
15.32
21.54
26.63
30.89
34.32
36.71
37.89
37.91
37.06
35.69
34.15
32.55
30.93
29.26
27.67
26.35
25.54
25.34
25.59
25.97
26.02
25.44
24.11
22.14
19.79
17.39
15.16
13.20
11.41
9.58
7.51
5.19
2.84
0.76
-0.71
-1.52
-1.95
-2.53
-3.81
-6.12
-9.34
-13.03
-16.64
-19.77
-22.37
-24.72
-27.25
-30.38
-34.35
-39.15
-44.48
-49.68
-53.78
-55.63
-54.17
-48.88
-40.03
-28.72
-16.57
-5.15
4.45
11.95
17.67
22.25
26.21
29.77
32.84
35.20
36.73
37.52
37.86
38.12
38.55
39.22
39.96
40.57
40.83
40.74
40.41
40.00
39.55
38.91
37.89
36.30
34.16
31.69
29.24
27.10
25.37
23.88
22.30
20.30
17.72
14.67
11.44
8.32
5.54
3.00
0.45
-2.42
-5.84
-9.77
-13.93
-17.96
-21.63
-24.94
-28.28
-32.14
-37.00
-43.07
-50.10
-57.39
-63.89
-68.43
-69.96
-67.93
-62.36
-53.90
-43.64
-32.76
-22.29
-12.89
-4.86
1.79
7.18
11.51
14.95
17.68
19.83
21.46
22.56
23.02
22.83
22.01
20.74
19.28
17.96
17.06
16.74
17.00
17.64
18.36
18.80
18.72
18.04
16.87
15.43
13.91
12.44
10.95
9.34
7.45
5.20
2.65
-0.04
-2.64
-4.97
-6.96
-8.71
-10.39
-12.22
-14.29
-16.58
-19.01
-21.40
-23.66
-25.73
-27.64
-29.47
-31.42
-33.81
-37.08
-41.66
-47.64
-54.56
-61.26
-66.06
-67.29
-63.91
-55.94
-44.54
-31.64
-19.16
-8.50
-0.13
6.25
11.31
15.69
19.72
23.38
26.45
28.76
30.26
31.04
31.29
31.16
30.75
30.13
29.36
28.53
27.80
27.33
27.23
27.45
27.71
27.61
26.76
24.99
22.42
19.51
16.74
14.47
12.79
11.50
10.34
9.14
7.88
6.62
5.31
3.73
1.48
-1.84
-6.36
-11.82
-17.67
-23.20
-27.82
-31.30
-33.80
-35.79
-37.92
-40.88
-45.22
-51.31
-59.15
-68.19
-77.23
-84.58
-88.35
-87.06
-80.19
-68.36
-53.23
-37.01
-21.77
-8.97
0.77
7.62
12.26
15.55
18.22
20.74
23.30
25.86
28.30
30.62
32.92
35.33
37.87
40.36
42.55
44.19
45.26
45.95
46.53
47.13
47.63
47.63
46.77
44.86
42.12
39.04
36.16
33.81
31.91
30.02
27.66
24.52
20.69
16.64
12.99
10.24
8.45
7.23
5.90
3.78
0.51
-3.75
-8.40
-12.64
-15.90
-18.12
-19.89
-22.30
-26.48
-33.08
-41.75
-51.05
-58.61
-61.83
-58.70
-48.59
-32.77
-14.37
2.13
12.10
11.87
-0.09
-22.62
-51.79
-81.67
-105.49
-117.23
-113.22
-93.30
-61.15
-23.17
13.47
43.00
62.62
72.67
75.66
74.66
71.99
68.82
65.59
62.76
61.24
62.17
66.26
73.09
81.14
88.42
93.44
95.88
96.39
95.53
92.88
86.61
74.52
55.60
31.48
6.32
-14.68
-27.59
-31.40
-27.92
-20.34
-11.26
-1.70
8.34
18.39
26.28
28.42
21.43
4.19
-20.94
-48.53
-71.88
-85.40
-86.33
-75.15
-54.86
-29.56
-3.04
22.05
44.31
63.25
78.75
90.72
98.96
103.35
103.86
100.80
94.72
86.54
77.41
68.62
61.13
55.21
50.17
44.54
36.78
26.17
13.39
0.40
-10.44
-17.54
-20.92
-22.12
-23.24
-25.83
-30.07
-34.76
-38.23
-39.34
-38.20
-36.12
-34.71
-34.96
-36.44
-37.43
-35.92
-30.77
-22.62
-13.80
-7.38
-5.85
-10.16
-19.65
-32.76
-47.92
-64.11
-80.68
-96.85
-111.32
-122.26
-128.04
-127.82
-121.95
-111.80
-99.19
-85.83
-73.10
-62.02
-53.28
-47.22
-43.77
-42.37
-42.15
-42.22
-41.99
-41.28
-40.16
-38.68
-36.72
-33.92
-29.92
-24.60
-18.28
-11.65
-5.60
-0.94
1.86
2.77
2.15
0.63
-1.19
-2.86
-4.16
-4.97
-5.30
-5.21
-4.93
-4.77
-4.91
-5.19
-4.90
-3.15
0.62
6.02
11.63
15.47
15.97
12.88
7.59
2.51
-0.09
0.96
5.44
12.38
20.98
31.30
44.12
60.08
78.94
99.11
118.14
133.71
144.64
151.19
154.70
156.58
157.47
156.98
154.14
148.23
139.43
128.71
117.28
105.90
94.49
82.34
68.88
54.17
39.18
25.21
13.26
3.55
-4.59
-12.13
-19.81
-27.73
-35.51
-42.55
-48.38
-52.96
-56.48
-59.28
-61.60
-63.60
-65.37
-67.16
-69.36
-72.43
-76.62
-81.69
-86.68
-90.15
-90.63
-87.11
-79.48
-68.61
-56.01
-43.39
-32.09
-22.84
-15.68
-10.22
-5.85
-2.07
1.41
4.64
7.47
9.74
11.36
12.40
13.06
13.58
14.08
14.54
14.85
14.87
14.61
14.24
13.91
13.68
13.31
12.34
10.24
6.67
1.68
-4.28
-10.42
-15.93
-20.23
-23.25
-25.42
-27.58
-30.72
-35.61
-42.43
-50.59
-58.80
-65.35
-68.72
-68.02
-63.24
-55.22
-45.21
-34.44
-23.82
-13.74
-4.25
4.73
13.22
21.06
27.98
33.70
38.01
40.78
42.03
41.89
40.55
38.33
35.53
32.49
29.50
26.76
24.35
22.19
20.12
17.96
15.59
12.94
9.94
6.48
2.37
-2.49
-8.08
-14.01
-19.80
-25.00
-29.47
-33.56
-38.03
-43.72
-51.11
-59.99
-69.27
-77.09
-81.27
-79.97
-72.29
-58.66
-40.76
-20.97
-1.70
15.35
29.43
40.65
49.54
56.66
62.32
66.51
69.14
70.17
69.83
68.56
66.92
65.38
64.12
63.00
61.67
59.79
57.24
54.24
51.16
48.30
45.65
42.84
39.31
34.64
28.88
22.54
16.42
11.08
6.48
1.91
-3.89
-12.13
-23.55
-38.07
-54.81
-72.26
-88.52
-101.62
-109.70
-111.27
-105.56
-92.88
-74.57
-52.88
-30.31
-9.00
9.71
25.41
38.29
48.69
56.74
62.24
64.83
64.33
60.95
55.40
48.67
41.76
35.36
29.77
25.00
20.94
17.48
14.64
12.33
10.35
8.34
5.88
2.65
-1.38
-6.02
-10.92
-15.77
-20.46
-25.11
-29.92
-34.97
-40.16
-45.12
-49.40
-52.71
-55.13
-57.19
-59.77
-63.77
-69.77
-77.70
-86.66
-94.93
-100.32
-100.69
-94.60
-81.83
-63.58
-42.04
-19.74
1.22
19.57
34.93
47.45
57.37
64.84
69.92
72.74
73.66
73.20
71.96
70.35
68.68
67.09
65.66
64.50
63.68
63.20
62.94
62.69
62.19
61.15
59.37
56.74
53.32
49.29
44.90
40.44
36.18
32.32
28.92
25.94
23.16
20.28
17.01
13.23
9.09
4.95
1.25
-1.68
-3.84
-5.56
-7.31
-9.59
-12.61
-16.24
-20.09
-23.67
-26.66
-29.13
-31.55
-34.71
-39.41
-46.08
-54.46
-63.51
-71.56
-76.79
-77.78
-73.89
-65.47
-53.70
-40.19
-26.53
-13.91
-3.00
6.08
13.59
19.94
25.45
30.24
34.19
37.06
38.65
38.98
38.32
37.12
35.82
34.69
33.81
33.18
32.66
32.14
31.47
30.44
28.81
26.36
22.95
18.61
13.46
7.72
1.68
-4.33
-10.00
-15.02
-19.27
-22.85
-26.09
-29.41
-33.16
-37.41
-41.95
-46.36
-50.21
-53.21
-55.40
-57.06
-58.64
-60.63
-63.47
-67.32
-72.06
-77.12
-81.48
-83.80
-82.71
-77.14
-66.66
-51.75
-33.74
-14.47
4.12
20.50
33.83
44.03
51.53
56.93
60.73
63.12
64.13
63.72
61.99
59.24
55.96
52.62
49.65
47.22
45.35
43.90
42.66
41.41
39.96
38.13
35.82
32.96
29.54
25.64
21.44
17.16
13.08
9.35
5.95
2.69
-0.69
-4.40
-8.41
-12.45
-16.12
-19.11
-21.39
-23.29
-25.38
-28.17
-31.89
-36.35
-41.01
-45.26
-48.62
-51.00
-52.72
-54.51
-57.22
-61.63
-68.00
-75.82
-83.79
-89.90
-92.01
-88.40
-78.35
-62.42
-42.36
-20.55
0.58
19.17
34.19
45.45
53.36
58.57
61.74
63.39
63.84
63.31
61.87
59.64
56.72
53.30
49.72
46.41
43.82
42.27
41.79
42.02
42.41
42.27
41.09
38.67
35.14
30.85
26.25
21.70
17.42
13.47
9.78
6.25
2.77
-0.69
-4.09
-7.32
-10.19
-12.62
-14.61
-16.36
-18.15
-20.28
-22.91
-25.97
-29.22
-32.39
-35.26
-37.89
-40.54
-43.66
-47.68
-53.03
-59.83
-67.83
-76.21
-83.56
-88.02
-87.80
-81.75
-69.93
-53.70
-35.34
-17.38
-1.72
10.72
20.03
26.89
31.97
35.65
37.89
38.49
37.35
34.74
31.28
27.81
25.19
24.02
24.47
26.25
28.84
31.60
34.10
36.08
37.42
38.08
37.91
36.75
34.46
31.06
26.74
21.87
16.87
12.06
7.63
3.64
0.04
-3.23
-6.21
-8.98
-11.74
-14.87
-18.94
-24.40
-31.30
-38.87
-45.49
-49.07
-47.71
-40.53
-28.04
-12.10
4.76
20.07
32.20
40.57
45.45
47.59
47.74
46.51
44.23
41.18
37.57
33.63
29.61
25.73
22.12
18.80
15.76
12.97
10.48
8.42
6.94
6.15
5.92
5.87
5.32
3.37
-0.98
-8.57
-19.87
-34.63
-51.76
-69.46
-85.60
-98.33
-106.48
-109.94
-109.43
-106.23
-101.79
-97.33
-93.71
-91.22
-89.62
-88.12
-85.63
-81.09
-74.06
-65.10
-55.85
-48.63
-45.62
-48.01
-55.39
-65.85
-76.61
-84.90
-88.91
-88.23
-83.74
-76.97
-69.59
-62.87
-57.74
-55.05
-55.93
-61.82
-74.03
-93.15
-118.44
-147.65
-177.31
-203.43
-222.32
-231.25
-228.99
-215.91
-194.06
-166.68
-137.81
-111.28
-89.99
-75.18
-66.22
-60.94
-56.51
-50.41
-41.25
-29.10
-15.27
-1.56
10.55
20.77
30.21
41.07
55.72
75.60
100.26
127.36
153.43
175.12
190.39
198.90
201.67
199.94
194.47
185.28
172.02
154.77
134.13
110.99
85.99
59.23
30.72
1.05
-28.10
-54.00
-73.67
-84.70
-86.00
-77.94
-62.14
-41.15
-18.02
4.08
22.34
34.72
40.33
39.46
33.16
22.76
9.48
-5.60
-21.39
-36.64
-49.98
-60.26
-66.98
-70.42
-71.60
-72.02
-73.17
-76.18
-81.41
-88.24
-95.06
-99.53
-99.25
-92.40
-78.36
-57.93
-32.89
-5.29
23.38
52.66
83.03
115.33
149.88
185.86
221.11
252.78
278.16
295.71
305.50
308.95
308.12
304.71
299.47
292.31
282.85
271.07
257.59
243.45
229.57
216.41
203.90
191.76
179.88
168.50
158.02
148.67
140.15
131.50
121.45
109.04
94.33
78.66
64.37
53.93
48.81
48.77
51.72
54.52
54.06
48.25
36.45
19.14
-2.78
-28.39
-56.78
-86.59
-115.52
-140.42
-158.03
-166.20
-164.96
-156.68
-145.45
-135.43
-129.59
-128.88
-132.61
-139.26
-147.29
-155.43
-162.22
-165.51
-162.60
-151.04
-130.04
-101.42
-69.48
-39.56
-16.03
-0.65
7.66
11.77
14.62
17.72
20.79
22.48
21.59
18.12
13.33
9.00
6.41
5.74
6.14
6.63
6.95
7.95
11.30
18.68
30.89
47.51
66.96
87.01
105.30
119.64
128.18
129.45
122.68
108.27
88.07
65.22
43.51
26.28
15.58
11.64
13.24
18.36
25.17
32.46
39.79
47.16
54.55
61.66
67.93
72.80
75.94
77.41
77.62
77.21
76.88
77.28
78.80
81.48
84.82
87.93
89.81
89.78
87.98
85.45
83.84
84.92
89.82
98.58
110.13
122.76
134.72
144.66
151.61
154.73
152.94
144.86
128.92
103.93
69.59
27.04
-20.89
-69.68
-113.80
-147.73
-167.26
-170.47
-158.11
-133.23
-100.28
-64.11
-28.99
1.88
26.77
45.62
59.87
72.12
85.30
101.85
123.20
149.68
180.63
214.52
248.81
279.91
303.65
316.26
315.83
303.18
281.74
256.25
230.90
207.96
187.43
167.80
147.32
125.05
101.24
76.83
52.74
29.22
5.71
-18.88
-45.55
-74.72
-105.89
-137.77
-168.79
-197.60
-223.54
-246.74
-267.94
-288.05
-308.05
-328.95
-351.82
-377.46
-405.61
-434.17
-459.00
-475.00
-477.78
-465.64
-440.32
-406.31
-368.82
-331.80
-296.96
-264.23
-233.15
-203.99
-178.00
-156.65
-140.55
-128.94
-120.05
-112.03
-103.82
-95.42
-87.53
-80.84
-75.47
-70.78
-65.69
-59.20
-50.81
-40.68
-29.45
-17.96
-6.86
3.46
12.92
21.28
28.10
32.62
34.17
32.56
28.38
22.96
17.81
14.08
12.00
11.05
10.34
9.21
7.61
5.97
4.79
4.10
3.43
1.95
-0.97
-5.39
-10.71
-15.79
-19.45
-20.85
-19.89
-16.88
-12.62
-8.04
-3.88
-0.11
4.39
11.36
22.38
37.61
55.44
72.53
85.04
90.10
87.07
78.03
66.56
56.33
49.57
47.17
48.77
53.41
59.97
67.52
76.02
85.34
94.93
103.32
110.00
115.17
119.58
123.63
127.14
130.51
133.13
133.25
127.25
113.58
92.16
64.15
30.62
-7.22
-45.40
-79.69
-106.18
-123.89
-130.20
-123.31
-103.28
-73.99
-42.33
-13.62
6.90
15.46
8.35
-10.80
-34.40
-53.60
-62.99
-79.21
-113.11
-165.61
-209.63
-239.48
-253.85
-259.78
-259.60
-255.57
-249.63
-239.97
-224.61
-202.78
-178.43
-153.41
-129.03
-105.65
-84.14
-65.02
-45.92
-24.54
0.15
25.38
49.99
73.36
95.77
117.27
138.40
161.63
189.03
220.89
253.54
282.88
304.42
314.96
312.89
299.14
277.46
252.27
227.03
202.65
179.29
156.52
134.18
112.22
90.84
70.43
51.07
32.41
13.70
-5.39
-24.78
-44.00
-62.53
-79.87
-95.49
-108.63
-118.19
-122.81
-121.19
-112.76
-98.06
-78.86
-57.68
-37.03
-18.63
-3.01
10.32
22.24
33.47
44.23
54.28
63.35
71.43
78.87
86.16
93.59
101.01
107.85
113.52
117.74
120.81
123.46
126.52
130.35
134.61
138.34
140.28
139.52
135.86
129.92
122.95
116.32
111.01
107.39
105.24
104.07
103.58
103.96
105.89
110.44
118.82
132.22
151.59
177.35
208.72
243.26
276.78
304.03
320.14
322.28
310.64
288.22
259.54
228.73
198.16
168.07
137.38
105.06
71.22
37.36
5.68
-22.10
-45.75
-66.82
-88.00
-111.95
-140.11
-172.12
-206.07
-239.65
-271.18
-300.43
-328.52
-357.16
-387.85
-421.63
-459.38
-502.01
-550.01
-602.22
-654.58
-700.09
-730.27
-738.04
-720.45
-679.83
-622.77
-557.38
-490.49
-425.91
-364.68
-306.28
-250.07
-195.83
-143.43
-91.98
-39.50
16.46
77.29
141.73
205.26
260.77
300.93
320.96
320.52
303.70
277.21
247.71
219.77
195.32
174.65
157.82
145.48
138.54
137.30
140.62
146.04
150.71
152.58
150.97
146.46
140.35
133.76
127.24
120.76
114.02
106.75
98.95
90.84
82.79
75.12
68.05
61.62
55.84
50.73
46.38
42.82
40.05
37.96
36.45
35.42
34.76
34.33
33.77
32.51
30.03
26.08
20.90
15.15
9.47
4.10
-1.42
-8.01
-16.48
-26.98
-38.71
-50.12
-59.51
-65.77
-68.67
-69.00
-68.08
-67.33
-67.71
-69.42
-71.84
-73.65
-73.12
-68.72
-59.58
-45.85
-28.70
-10.00
8.36
24.92
39.05
50.73
60.30
68.05
74.09
78.44
81.18
82.65
83.34
83.65
83.66
83.11
81.57
78.75
74.76
70.13
65.60
61.72
58.65
56.03
53.27
49.74
45.11
39.38
32.89
26.07
19.34
12.92
6.88
1.10
-4.63
-10.48
-16.55
-22.79
-29.09
-35.30
-41.25
-46.82
-51.90
-56.38
-60.32
-64.06
-68.25
-73.68
-80.82
-89.33
-97.80
-104.05
-105.87
-101.89
-92.25
-78.57
-63.25
-48.62
-36.17
-26.32
-18.75
-12.90
-8.43
-5.33
-3.70
-3.53
-4.51
-6.09
-7.72
-9.08
-10.20
-11.46
-13.34
-16.16
-19.91
-24.19
-28.33
-31.67
-33.80
-34.74
-34.76
-34.32
-33.83
-33.55
-33.62
-34.11
-35.10
-36.57
-38.42
-40.37
-42.07
-43.19
-43.62
-43.56
-43.65
-44.75
-47.73
-52.96
-60.02
-67.53
-73.41
-75.57
-72.65
-64.51
-52.19
-37.49
-22.24
-7.79
5.17
16.40
25.90
33.67
39.75
44.30
47.70
50.46
53.10
55.93
58.97
61.94
64.43
66.00
66.44
65.83
64.57
63.16
61.96
60.94
59.70
57.61
54.13
49.10
42.82
35.86
28.84
22.22
16.22
10.87
6.04
1.48
-3.22
-8.64
-15.34
-23.56
-32.84
-41.91
-48.80
-51.43
-48.30
-39.11
-24.93
-7.84
9.78
25.91
39.50
50.44
59.34
66.97
73.79
79.89
85.09
89.24
92.53
95.52
98.95
103.39
108.98
115.41
122.10
128.66
135.06
141.63
148.87
157.03
165.91
174.97
183.62
191.66
199.49
208.02
218.36
231.35
247.12
265.04
283.80
301.74
317.29
329.25
336.84
339.68
337.59
330.50
318.52
302.01
281.69
258.58
233.82
208.42
183.14
158.46
134.69
112.04
90.62
70.29
50.52
30.47
9.22
-13.81
-38.52
-64.15
-89.54
-113.79
-136.71
-159.09
-182.34
-207.95
-236.76
-268.49
-302.02
-335.79
-368.57
-400.01
-430.74
-462.21
-496.38
-535.54
-581.70
-635.58
-695.25
-755.36
-807.53
-842.54
-853.48
-838.39
-801.07
-749.38
-692.08
-635.65
-582.94
-533.74
-486.65
-441.01
-397.32
-356.75
-319.81
-285.77
-252.71
-218.59
-182.17
-143.54
-104.10
-65.75
-29.95
2.85
33.42
63.27
93.91
126.18
160.21
195.70
232.40
270.10
307.95
343.72
373.52
392.63
397.10
385.38
359.12
322.53
280.85
238.60
198.63
162.11
129.09
99.22
71.91
46.18
20.67
-6.16
-35.36
-66.79
-98.79
-128.48
-152.40
-167.57
-172.43
-167.17
-153.61
-134.46
-112.30
-88.75
-64.40
-39.20
-13.34
12.20
35.70
55.37
70.22
80.62
88.22
95.18
103.25
113.00
123.85
134.43
143.37
149.75
153.22
153.78
151.52
146.57
139.22
130.18
120.75
112.59
107.35
106.25
109.54
116.46
125.35
134.16
140.98
144.59
144.71
141.88
137.08
131.30
125.18
118.95
112.56
105.86
98.64
90.59
81.29
70.32
57.55
43.52
29.51
17.33
8.81
5.19
6.84
13.21
23.06
34.87
47.22
59.10
70.05
80.04
89.16
97.36
104.19
108.87
110.61
109.06
104.50
97.80
89.94
81.62
72.96
63.55
52.92
40.77
27.23
12.72
-2.27
-17.32
-32.13
-46.42
-59.88
-72.18
-83.04
-92.17
-99.19
-103.46
-103.90
-99.24
-88.38
-70.96
-47.68
-20.35
8.48
36.17
60.49
79.88
93.57
101.54
104.40
103.37
99.98
95.70
91.59
87.94
84.41
80.30
75.09
68.64
61.34
53.88
47.06
41.65
38.22
37.12
38.29
41.23
45.12
49.06
52.44
55.20
57.80
61.03
65.60
71.78
79.38
87.92
97.01
106.74
117.79
131.27
148.28
169.34
193.99
220.71
247.25
271.10
290.17
303.19
309.94
311.35
309.39
306.82
306.57
310.85
320.12
332.66
344.93
352.75
352.87
344.10
327.56
305.85
281.79
257.35
233.35
209.84
186.79
164.50
143.56
124.40
106.92
90.40
73.79
56.27
37.62
18.30
-0.72
-18.43
-34.25
-48.28
-61.25
-74.23
-88.19
-103.63
-120.39
-137.75
-154.86
-171.07
-186.19
-200.55
-214.85
-229.84
-246.23
-264.64
-285.37
-308.18
-331.94
-354.44
-372.71
-383.83
-385.85
-378.57
-363.53
-343.48
-321.27
-299.06
-277.91
-258.06
-239.41
-222.01
-206.06
-191.76
-179.02
-167.39
-156.31
-145.40
-134.67
-124.50
-115.44
-107.84
-101.61
-96.27
-91.15
-85.73
-79.86
-73.81
-68.12
-63.36
-59.88
-57.75
-56.68
-56.19
-55.64
-54.42
-52.04
-48.14
-42.68
-35.89
-28.31
-20.66
-13.72
-8.07
-3.98
-1.42
-0.09
0.42
0.49
0.34
0.12
-0.14
-0.47
-0.85
-1.28
-1.72
-2.13
-2.45
-2.67
-2.82
-2.92
-3.04
-3.22
-3.49
-3.91
-4.58
-5.57
-6.95
-8.68
-10.66
-12.74
-14.82
-16.91
-19.13
-21.57
-24.26
-27.07
-29.77
-32.19
-34.35
-36.51
-39.13
-42.55
-46.87
-51.69
-56.22
-59.45
-60.57
-59.19
-55.59
-50.50
-44.85
-39.42
-34.53
-30.08
-25.69
-21.03
-16.09
-11.19
-6.85
-3.54
-1.43
-0.35
0.12
0.41
0.74
1.10
1.25
0.97
0.20
-0.95
-2.21
-3.35
-4.27
-5.05
-5.86
-6.88
-8.22
-9.93
-12.00
-14.40
-17.10
-19.99
-22.86
-25.52
-27.83
-29.81
-31.69
-33.83
-36.69
-40.55
-45.43
-50.83
-55.67
-58.47
-57.71
-52.40
-42.56
-29.30
-14.47
-0.09
12.39
22.34
29.92
35.66
39.97
42.99
44.65
44.89
43.92
42.17
40.15
38.25
36.60
35.05
33.37
31.40
29.18
26.97
25.10
23.76
22.91
22.18
21.02
18.95
15.74
11.58
6.95
2.39
-1.77
-5.63
-9.56
-14.04
-19.29
-25.13
-31.02
-36.32
-40.60
-43.85
-46.49
-49.18
-52.58
-57.10
-62.77
-69.11
-75.16
-79.49
-80.55
-77.03
-68.35
-55.02
-38.59
-21.27
-5.19
8.13
18.21
25.46
30.73
34.84
38.30
41.21
43.43
44.83
45.42
45.30
44.64
43.57
42.20
40.68
39.18
37.87
36.81
35.98
35.21
34.31
33.16
31.73
30.07
28.21
26.14
23.78
21.08
18.08
14.88
11.67
8.64
5.88
3.39
0.99
-1.61
-4.74
-8.53
-12.90
-17.43
-21.60
-24.97
-27.42
-29.19
-30.80
-32.83
-35.75
-39.86
-45.29
-51.98
-59.46
-66.67
-72.00
-73.62
-70.11
-61.10
-47.63
-31.80
-16.17
-2.72
7.59
15.01
20.45
24.90
28.94
32.62
35.72
38.05
39.68
40.89
41.92
42.81
43.33
43.14
42.05
40.21
38.10
36.31
35.25
34.90
34.80
34.24
32.56
29.48
25.27
20.63
16.39
13.12
10.93
9.39
7.77
5.42
2.03
-2.20
-6.80
-11.22
-15.14
-18.59
-21.87
-25.40
-29.58
-34.75
-41.08
-48.51
-56.48
-63.84
-69.01
-70.30
-66.59
-57.86
-45.26
-30.81
-16.64
-4.30
5.57
13.23
19.35
24.57
29.26
33.46
37.11
40.18
42.74
44.88
46.63
47.91
48.54
48.35
47.30
45.58
43.52
41.57
40.05
39.06
38.37
37.50
35.95
33.41
29.94
25.97
22.05
18.64
15.84
13.40
10.77
7.51
3.39
-1.41
-6.43
-11.13
-15.16
-18.51
-21.55
-24.83
-28.97
-34.41
-41.28
-49.21
-57.32
-64.28
-68.55
-68.79
-64.29
-55.26
-42.73
-28.28
-13.60
-0.08
11.37
20.36
26.98
31.62
34.85
37.28
39.37
41.27
42.86
43.89
44.18
43.79
42.99
42.12
41.38
40.79
40.19
39.39
38.33
37.04
35.69
34.43
33.38
32.50
31.57
30.28
28.29
25.40
21.71
17.61
13.65
10.25
7.53
5.21
2.80
-0.18
-3.92
-8.32
-13.06
-17.83
-22.47
-26.97
-31.41
-35.88
-40.48
-45.43
-51.10
-57.90
-65.93
-74.63
-82.58
-87.80
-88.30
-82.88
-71.71
-56.27
-38.90
-21.99
-7.25
4.64
13.92
21.34
27.73
33.59
39.02
43.82
47.68
50.35
51.81
52.27
52.07
51.50
50.69
49.66
48.39
47.04
45.93
45.40
45.59
46.26
46.86
46.69
45.29
42.56
38.89
34.96
31.43
28.67
26.67
25.00
23.02
20.20
16.37
11.77
7.03
2.79
-0.61
-3.31
-5.90
-9.07
-13.28
-18.50
-24.29
-29.99
-35.06
-39.28
-42.81
-46.11
-49.74
-54.23
-59.98
-67.18
-75.55
-84.19
-91.51
-95.49
-94.18
-86.44
-72.43
-53.76
-32.99
-12.90
4.43
18.00
27.93
35.03
40.22
44.18
47.23
49.41
50.79
51.48
51.75
51.85
51.95
52.01
51.86
51.30
50.30
49.04
47.87
47.09
46.75
46.54
45.90
44.28
41.44
37.61
33.41
29.53
26.42
24.02
21.84
19.20
15.63
11.08
6.00
1.11
-2.95
-5.88
-7.96
-9.81
-12.19
-15.60
-20.12
-25.35
-30.64
-35.35
-39.15
-42.11
-44.66
-47.45
-51.18
-56.38
-63.23
-71.33
-79.61
-86.37
-89.61
-87.61
-79.49
-65.63
-47.67
-28.07
-9.40
6.43
18.50
27.00
32.77
36.80
39.83
42.19
43.85
44.75
44.92
44.61
44.12
43.68
43.37
43.13
42.83
42.50
42.25
42.25
42.56
43.10
43.61
43.78
43.37
42.28
40.64
38.71
36.82
35.18
33.83
32.55
31.03
29.01
26.46
23.63
20.96
18.79
17.14
15.68
13.82
11.09
7.38
2.97
-1.58
-5.72
-9.15
-11.93
-14.46
-17.41
-21.48
-27.22
-34.74
-43.44
-51.89
-58.06
-59.89
-56.01
-46.36
-32.25
-15.95
0.13
14.15
25.30
33.71
39.95
44.64
48.13
50.57
52.04
52.78
53.09
53.23
53.20
52.71
51.34
48.76
44.90
40.00
34.47
28.61
22.50
16.10
9.31
2.23
-4.85
-11.52
-17.48
-22.70
-27.36
-31.77
-36.11
-40.33
-44.14
-47.20
-49.35
-50.72
-51.74
-52.92
-54.61
-56.83
-59.31
-61.60
-63.32
-64.32
-64.75
-64.95
-65.33
-66.33
-68.32
-71.52
-75.85
-80.68
-84.74
-86.29
-83.63
-75.70
-62.60
-45.66
-27.04
-9.09
6.38
18.46
27.16
33.04
36.83
39.10
40.26
40.60
40.37
39.87
39.35
38.92
38.55
38.07
37.36
36.39
35.28
34.18
33.21
32.26
31.15
29.63
27.58
24.98
21.91
18.49
14.86
11.13
7.43
3.86
0.45
-2.95
-6.54
-10.50
-14.84
-19.36
-23.74
-27.81
-31.65
-35.74
-40.71
-46.96
-54.24
-61.47
-66.92
-68.75
-65.64
-57.39
-44.97
-30.22
-15.14
-1.33
10.37
19.82
27.27
33.02
37.25
40.08
41.71
42.51
42.99
43.57
44.42
45.37
45.97
45.74
44.38
41.98
39.02
36.17
34.00
32.71
32.03
31.30
29.83
27.21
23.57
19.44
15.49
12.16
9.37
6.58
3.12
-1.38
-6.72
-12.11
-16.57
-19.43
-20.63
-20.78
-20.79
-21.40
-22.79
-24.58
-26.12
-26.83
-26.39
-24.61
-21.16
-15.33
-6.09
7.56
26.11
49.17
75.46
103.18
130.51
155.95
178.35
196.71
210.10
218.01
221.13
221.85
223.76
230.30
242.73
258.88
273.56
280.41
274.54
254.35
221.66
180.66
136.29
93.12
54.91
24.52
3.61
-7.74
-11.17
-9.21
-4.20
2.63
10.97
20.35
29.05
33.83
31.14
18.76
-3.05
-31.69
-63.40
-94.78
-123.59
-148.69
-169.49
-185.64
-197.01
-203.98
-207.53
-208.99
-209.62
-210.31
-211.51
-213.37
-215.84
-218.74
-221.73
-224.49
-226.89
-229.16
-231.79
-235.32
-239.96
-245.51
-251.44
-257.27
-262.90
-268.74
-275.46
-283.50
-292.51
-301.00
-306.27
-305.02
-294.16
-271.88
-238.24
-195.22
-146.22
-95.11
-45.41
0.36
40.93
76.18
106.85
134.23
159.67
184.24
208.25
230.90
250.26
263.62
268.51
263.79
250.42
231.52
211.34
193.90
181.57
174.52
171.20
169.41
167.39
164.20
159.56
153.17
144.37
132.19
115.87
95.37
71.46
45.58
19.36
-5.71
-28.36
-47.33
-61.40
-69.35
-70.38
-64.63
-53.48
-39.46
-25.56
-14.34
-7.11
-3.66
-2.69
-2.54
-2.04
-0.76
1.06
2.93
4.45
5.53
6.27
6.72
6.76
6.12
4.58
2.08
-1.14
-4.65
-8.13
-11.43
-14.67
-18.11
-22.03
-26.54
-31.51
-36.62
-41.54
-46.08
-50.33
-54.61
-59.36
-64.79
-70.68
-76.24
-80.25
-81.41
-78.84
-72.52
-63.33
-52.67
-41.96
-32.13
-23.43
-15.56
-8.07
-0.71
6.41
12.88
18.23
22.18
24.72
26.08
26.57
26.44
25.81
24.71
23.15
21.24
19.22
17.46
16.28
15.87
16.09
16.48
16.43
15.40
13.09
9.63
5.44
1.02
-3.22
-7.14
-10.85
-14.53
-18.34
-22.31
-26.35
-30.33
-34.18
-37.89
-41.51
-45.00
-48.34
-51.45
-54.43
-57.54
-61.22
-65.82
-71.25
-76.78
-81.04
-82.46
-79.85
-72.89
-62.36
-49.79
-36.90
-24.93
-14.33
-4.85
4.14
13.16
22.34
31.33
39.52
46.21
50.95
53.65
54.56
54.21
53.16
51.84
50.47
49.10
47.71
46.33
45.11
44.14
43.36
42.50
41.23
39.33
36.85
34.11
31.43
28.99
26.65
24.09
21.00
17.32
13.25
9.14
5.26
1.68
-1.74
-5.23
-8.96
-13.01
-17.28
-21.65
-25.97
-30.17
-34.32
-38.63
-43.43
-49.01
-55.48
-62.50
-69.22
-74.41
-76.76
-75.30
-69.68
-60.34
-48.25
-34.59
-20.40
-6.40
7.07
19.84
31.76
42.60
52.04
59.75
65.48
69.13
70.78
70.70
69.31
67.02
64.24
61.30
58.48
56.01
54.05
52.63
51.68
51.03
50.44
49.76
48.85
47.62
45.94
43.62
40.53
36.77
32.68
28.70
25.16
22.03
18.95
15.47
11.37
6.82
2.34
-1.48
-4.32
-6.32
-7.94
-9.75
-12.19
-15.39
-19.20
-23.29
-27.27
-30.84
-33.90
-36.58
-39.24
-42.41
-46.58
-52.01
-58.53
-65.46
-71.67
-75.81
-76.55
-72.96
-64.69
-52.19
-36.65
-19.75
-3.36
11.00
22.54
31.25
37.77
43.02
47.69
52.02
55.66
58.09
58.85
57.89
55.60
52.59
49.50
46.72
44.41
42.59
41.23
40.29
39.69
39.26
38.69
37.66
35.90
33.38
30.31
27.08
24.13
21.83
20.32
19.44
18.80
17.78
15.87
12.86
8.94
4.64
0.64
-2.55
-4.86
-6.55
-8.19
-10.23
-12.87
-15.96
-19.16
-22.13
-24.70
-27.01
-29.33
-32.05
-35.48
-39.74
-44.72
-49.96
-54.71
-57.90
-58.44
-55.48
-48.68
-38.46
-25.88
-12.45
0.30
11.17
19.62
25.64
29.78
32.69
34.97
37.01
38.95
40.73
42.18
43.13
43.42
43.04
42.15
41.01
40.00
39.36
39.17
39.28
39.39
39.17
38.41
37.05
35.12
32.77
30.18
27.56
25.14
23.11
21.54
20.25
18.91
17.12
14.68
11.64
8.33
5.22
2.73
1.05
0.16
-0.18
-0.24
-0.28
-0.51
-1.01
-1.85
-3.07
-4.77
-7.02
-9.95
-13.65
-18.16
-23.39
-29.01
-34.45
-38.93
-41.60
-41.80
-39.28
-34.35
-27.73
-20.44
-13.41
-7.38
-2.74
0.42
2.26
3.06
3.19
3.05
2.86
2.69
2.42
1.83
0.79
-0.65
-2.23
-3.63
-4.58
-5.02
-5.02
-4.68
-4.04
-3.03
-1.63
0.03
1.62
2.72
2.96
2.34
1.16
-0.05
-0.85
-1.10
-1.02
-1.13
-1.90
-3.51
-5.77
-8.18
-10.18
-11.44
-11.96
-12.10
-12.41
-13.42
-15.41
-18.41
-22.12
-26.08
-29.78
-32.94
-35.52
-37.88
-40.54
-44.05
-48.63
-53.97
-59.21
-63.08
-64.37
-62.20
-56.36
-47.33
-36.07
-23.77
-11.51
-0.13
9.83
18.17
24.90
30.18
34.28
37.44
39.79
41.34
42.00
41.74
40.55
38.62
36.20
33.64
31.24
29.28
27.92
27.14
26.81
26.64
26.35
25.74
24.78
23.51
21.98
20.21
18.13
15.73
13.14
10.61
8.36
6.44
4.63
2.64
0.29
-2.33
-4.87
-7.02
-8.67
-10.08
-11.74
-14.08
-17.16
-20.69
-24.10
-26.86
-28.81
-30.18
-31.53
-33.55
-36.80
-41.54
-47.51
-53.86
-59.27
-62.19
-61.32
-56.09
-46.85
-34.82
-21.63
-8.79
2.71
12.46
20.53
27.11
32.45
36.65
39.82
42.03
43.30
43.64
43.01
41.48
39.30
36.83
34.46
32.45
30.85
29.52
28.32
27.14
25.93
24.62
23.09
21.17
18.76
15.88
12.74
9.60
6.70
4.14
1.90
-0.07
-1.90
-3.65
-5.41
-7.26
-9.29
-11.54
-14.00
-16.60
-19.28
-22.03
-24.88
-27.87
-30.96
-34.00
-36.85
-39.48
-42.12
-45.23
-49.35
-54.68
-60.83
-66.74
-70.82
-71.44
-67.49
-58.78
-46.11
-31.00
-15.26
-0.45
12.42
23.01
31.48
38.25
43.68
47.96
51.03
52.78
53.20
52.46
50.85
48.71
46.24
43.47
40.45
37.31
34.40
32.12
30.71
30.11
29.83
29.26
27.85
25.42
22.19
18.65
15.32
12.47
10.08
7.86
5.44
2.57
-0.77
-4.37
-7.87
-10.95
-13.47
-15.49
-17.21
-18.84
-20.54
-22.44
-24.64
-27.31
-30.54
-34.30
-38.34
-42.24
-45.59
-48.21
-50.37
-52.69
-55.95
-60.57
-66.29
-71.95
-75.79
-75.88
-70.85
-60.40
-45.44
-27.81
-9.69
7.04
21.29
32.80
41.95
49.31
55.30
60.02
63.28
64.85
64.72
63.16
60.70
57.91
55.18
52.64
50.18
47.72
45.31
43.23
41.78
41.04
40.73
40.35
39.28
37.18
34.09
30.43
26.81
23.72
21.46
20.00
19.07
18.19
16.84
14.53
10.93
6.05
0.25
-5.79
-11.30
-15.71
-18.79
-20.76
-22.12
-23.43
-25.00
-26.75
-28.34
-29.43
-29.93
-30.27
-31.21
-33.55
-37.69
-43.21
-48.87
-52.90
-53.55
-49.71
-41.22
-28.95
-14.44
0.63
14.86
27.32
37.61
45.62
51.40
55.07
56.81
56.88
55.59
53.18
49.83
45.68
40.91
35.80
30.71
26.07
22.15
19.07
16.83
15.31
14.37
13.83
13.44
12.89
11.88
10.31
8.28
6.08
3.97
2.04
0.09
-2.20
-5.10
-8.60
-12.36
-15.84
-18.54
-20.32
-21.36
-22.19
-23.41
-25.52
-28.67
-32.66
-37.01
-41.20
-44.86
-47.96
-50.76
-53.68
-57.11
-61.14
-65.49
-69.48
-72.14
-72.42
-69.45
-62.78
-52.63
-39.91
-26.07
-12.73
-1.27
7.61
13.95
18.42
21.90
25.10
28.34
31.42
33.91
35.35
35.56
34.67
33.04
31.08
29.11
27.26
25.49
23.72
21.91
20.05
18.23
16.51
14.91
13.36
11.82
10.19
8.46
6.67
4.94
3.37
2.02
0.81
-0.45
-1.91
-3.69
-5.71
-7.76
-9.61
-11.16
-12.51
-13.93
-15.73
-18.12
-20.99
-24.01
-26.74
-28.87
-30.40
-31.69
-33.32
-35.96
-40.04
-45.58
-52.07
-58.45
-63.35
-65.36
-63.48
-57.45
-47.85
-35.90
-23.09
-10.80
0.12
9.35
17.07
23.74
29.81
35.68
41.53
47.30
52.67
57.12
60.08
61.12
60.13
57.44
53.64
49.44
45.38
41.73
38.49
35.51
32.64
29.83
27.16
24.61
22.14
19.54
16.60
13.23
9.45
5.46
1.51
-2.18
-5.54
-8.58
-11.37
-13.99
-16.52
-19.06
-21.72
-24.60
-27.75
-31.11
-34.51
-37.84
-41.03
-44.16
-47.40
-51.03
-55.41
-60.88
-67.45
-74.51
-80.73
-84.20
-83.07
-76.26
-63.93
-47.55
-29.38
-11.60
4.29
17.70
28.80
38.03
45.72
52.02
56.82
60.11
61.96
62.55
62.18
61.05
59.32
57.09
54.43
51.40
48.18
45.04
42.30
40.17
38.62
37.34
35.81
33.60
30.47
26.59
22.42
18.46
15.06
12.21
9.62
6.96
3.99
0.76
-2.50
-5.53
-8.28
-10.80
-13.33
-15.97
-18.76
-21.60
-24.38
-27.09
-29.85
-32.76
-35.86
-38.99
-42.00
-44.86
-47.93
-51.83
-57.20
-64.17
-72.04
-79.17
-83.43
-82.87
-76.45
-64.45
-48.40
-30.56
-13.15
2.25
15.07
25.49
34.18
41.75
48.41
54.02
58.20
60.69
61.42
60.64
58.75
56.16
53.16
49.94
46.67
43.54
40.84
38.77
37.43
36.71
36.35
35.95
35.13
33.59
31.18
27.95
24.10
20.03
16.15
12.82
10.12
7.84
5.63
3.11
0.18
-2.96
-5.92
-8.31
-10.00
-11.19
-12.32
-13.88
-16.18
-19.21
-22.73
-26.39
-29.93
-33.22
-36.30
-39.41
-42.89
-47.14
-52.41
-58.61
-65.05
-70.46
-73.25
-71.98
-65.89
-55.15
-40.88
-24.77
-8.59
6.22
18.78
28.74
36.22
41.56
45.19
47.59
49.17
50.20
50.81
51.03
50.77
49.99
48.68
46.95
45.00
43.09
41.47
40.26
39.46
38.83
38.00
36.59
34.29
31.08
27.25
23.29
19.72
16.85
14.66
12.84
10.99
8.83
6.37
3.83
1.48
-0.54
-2.24
-3.80
-5.33
-6.84
-8.27
-9.57
-10.83
-12.23
-14.07
-16.62
-20.09
-24.60
-30.09
-36.17
-41.99
-46.37
-48.00
-45.91
-39.78
-30.14
-18.10
-5.03
7.88
19.79
30.13
38.57
44.89
49.17
51.74
53.20
54.10
54.72
54.97
54.36
52.47
49.12
44.53
39.22
33.84
28.91
24.72
21.28
18.42
15.81
13.00
9.60
5.36
0.26
-5.45
-11.35
-17.04
-22.34
-27.39
-32.60
-38.54
-45.63
-53.96
-63.28
-73.01
-82.41
-90.70
-97.09
-100.87
-101.44
-98.57
-92.48
-83.95
-74.16
-64.37
-55.58
-48.29
-42.52
-37.95
-34.19
-30.93
-27.93
-24.98
-21.76
-17.85
-12.78
-6.23
1.70
10.46
19.04
26.39
31.82
35.35
37.71
40.03
43.34
48.10
54.15
60.83
67.35
73.08
77.60
80.69
82.21
82.10
80.48
77.73
74.38
71.01
67.89
64.89
61.51
57.15
51.36
44.08
35.64
26.60
17.53
8.79
0.53
-7.19
-14.30
-20.60
-25.79
-29.56
-31.87
-32.91
-33.14
-33.11
-33.35
-34.17
-35.68
-37.74
-40.05
-42.29
-44.12
-45.40
-46.18
-46.72
-47.50
-49.09
-52.02
-56.62
-62.91
-70.38
-77.96
-84.13
-87.28
-86.20
-80.43
-70.54
-57.88
-44.16
-30.82
-18.72
-8.07
1.34
9.69
16.97
22.97
27.53
30.74
33.02
34.97
37.03
39.34
41.64
43.53
44.72
45.22
45.24
45.08
44.85
44.44
43.56
42.00
39.78
37.24
34.87
33.08
31.99
31.38
30.80
29.80
28.05
25.50
22.33
18.94
15.88
13.64
12.59
12.76
13.71
14.58
14.32
11.97
7.06
-0.23
-9.16
-18.70
-27.91
-36.27
-43.68
-50.35
-56.43
-61.71
-65.53
-66.89
-64.90
-59.10
-49.75
-37.82
-24.64
-11.51
0.57
11.11
20.01
27.45
33.72
39.10
43.82
48.07
51.92
55.43
58.71
61.88
65.14
68.55
71.97
74.95
76.79
76.74
74.17
68.74
60.40
49.37
36.02
20.97
4.96
-11.07
-26.14
-39.33
-49.97
-57.75
-62.74
-65.33
-66.13
-65.80
-64.89
-63.73
-62.39
-60.74
-58.64
-56.09
-53.34
-50.81
-48.88
-47.70
-47.11
-46.74
-46.23
-45.48
-44.71
-44.49
-45.45
-48.06
-52.25
-57.34
-62.00
-64.64
-63.81
-58.75
-49.68
-37.66
-24.31
-11.22
0.48
10.20
17.89
23.77
28.13
31.24
33.35
34.69
35.48
35.93
36.18
36.32
36.36
36.27
35.96
35.33
34.32
33.00
31.51
30.06
28.79
27.71
26.69
25.59
24.29
22.81
21.18
19.47
17.66
15.70
13.52
11.17
8.75
6.37
4.04
1.66
-0.95
-3.96
-7.34
-10.96
-14.55
-17.90
-20.87
-23.51
-25.94
-28.39
-31.13
-34.48
-38.68
-43.69
-49.06
-53.85
-56.78
-56.67
-52.88
-45.61
-35.86
-25.13
-14.88
-6.13
0.78
6.10
10.35
14.07
17.53
20.76
23.56
25.71
27.16
27.93
28.22
28.19
27.94
27.49
26.80
25.90
24.87
23.90
23.16
22.69
22.39
22.03
21.33
20.07
18.18
15.77
13.08
10.34
7.71
5.18
2.61
-0.17
-3.23
-6.46
-9.64
-12.58
-15.25
-17.82
-20.59
-23.77
-27.30
-30.96
-34.35
-37.24
-39.66
-41.99
-44.78
-48.59
-53.71
-59.94
-66.47
-71.91
-74.65
-73.27
-67.13
-56.57
-42.93
-28.03
-13.59
-0.72
10.23
19.38
27.08
33.49
38.65
42.55
45.31
47.22
48.58
49.55
50.04
49.83
48.74
46.81
44.38
41.93
39.89
38.46
37.51
36.68
35.59
33.92
31.70
29.18
26.77
24.79
23.26
22.00
20.56
18.56
15.83
12.46
8.82
5.32
2.23
-0.44
-2.89
-5.46
-8.41
-11.85
-15.64
-19.57
-23.36
-26.81
-29.86
-32.54
-35.00
-37.46
-40.28
-43.95
-49.02
-55.72
-63.65
-71.55
-77.46
-79.37
-75.94
-67.07
-53.98
-38.75
-23.53
-9.81
1.80
11.48
19.78
27.14
33.74
39.42
43.98
47.24
49.18
49.87
49.50
48.27
46.39
44.11
41.66
39.37
37.47
36.12
35.35
34.96
34.68
34.23
33.38
32.02
30.17
27.96
25.58
23.17
20.81
18.42
15.83
12.89
9.60
6.21
3.07
0.46
-1.58
-3.36
-5.32
-7.83
-10.94
-14.34
-17.53
-20.18
-22.23
-23.97
-25.88
-28.44
-32.00
-36.62
-42.14
-47.99
-53.28
-56.75
-57.17
-53.63
-45.94
-34.80
-21.59
-7.93
4.74
15.56
24.31
31.24
36.74
41.17
44.65
47.20
48.77
49.41
49.23
48.42
47.19
45.71
44.09
42.40
40.67
38.93
37.21
35.53
33.89
32.26
30.59
28.83
26.94
24.97
22.99
21.11
19.42
17.90
16.47
14.95
13.19
11.18
8.97
6.70
4.52
2.51
0.71
-0.97
-2.65
-4.48
-6.56
-8.95
-11.55
-14.20
-16.70
-19.01
-21.33
-24.14
-27.94
-33.00
-38.97
-44.84
-49.16
-50.52
-48.10
-42.02
-33.24
-23.22
-13.38
-4.64
2.71
8.75
13.75
17.94
21.51
24.64
27.60
30.58
33.59
36.31
38.19
38.73
37.76
35.56
32.78
30.15
28.23
27.21
26.95
27.11
27.30
27.17
26.44
24.96
22.69
19.69
16.16
12.37
8.60
5.18
2.36
0.31
-0.94
-1.52
-1.67
-1.66
-1.66
-1.68
-1.53
-1.02
-0.03
1.32
2.68
3.65
3.86
3.13
1.60
-0.43
-2.60
-4.79
-7.26
-10.72
-16.08
-24.00
-34.43
-46.43
-58.19
-67.70
-73.37
-74.60
-71.89
-66.53
-59.94
-53.15
-46.54
-40.07
-33.55
-27.05
-20.84
-15.32
-10.70
-6.94
-3.75
-0.84
1.91
4.42
6.41
7.74
8.46
8.96
9.73
11.16
13.39
16.16
18.94
21.14
22.32
22.32
21.28
19.55
17.50
15.41
13.40
11.45
9.42
7.19
4.69
2.02
-0.65
-3.05
-5.00
-6.49
-7.62
-8.67
-9.96
-11.72
-14.09
-16.96
-20.10
-23.15
-25.82
-27.98
-29.76
-31.52
-33.83
-37.20
-41.92
-47.79
-53.97
-59.04
-61.37
-59.64
-53.36
-43.14
-30.50
-17.27
-4.96
5.75
14.91
22.92
30.01
36.10
40.92
44.28
46.35
47.53
48.19
48.42
47.99
46.58
44.05
40.69
37.06
33.82
31.42
29.92
29.06
28.44
27.67
26.53
25.02
23.27
21.46
19.71
18.01
16.24
14.29
12.09
9.72
7.34
5.07
2.94
0.81
-1.50
-4.16
-7.21
-10.57
-14.08
-17.56
-20.97
-24.33
-27.71
-31.11
-34.48
-37.63
-40.46
-43.06
-45.78
-49.21
-53.79
-59.52
-65.57
-70.44
-72.32
-69.72
-62.06
-49.86
-34.50
-17.71
-1.02
14.55
28.62
41.18
52.38
62.28
70.77
77.68
82.85
86.26
88.02
88.41
87.75
86.32
84.30
81.80
78.97
75.99
73.07
70.36
67.78
65.01
61.56
57.00
51.18
44.27
36.77
29.26
22.27
16.09
10.75
6.16
2.17
-1.40
-4.70
-7.86
-10.96
-14.04
-17.03
-19.83
-22.39
-24.77
-27.10
-29.54
-32.24
-35.20
-38.35
-41.54
-44.64
-47.56
-50.25
-52.77
-55.25
-57.98
-61.27
-65.35
-70.09
-74.93
-78.79
-80.34
-78.45
-72.53
-62.82
-50.32
-36.50
-22.90
-10.74
-0.67
7.22
13.23
17.88
21.62
24.75
27.35
29.40
30.78
31.42
31.33
30.54
29.24
27.57
25.77
24.10
22.85
22.17
22.00
22.07
22.00
21.48
20.38
18.80
16.96
15.04
13.09
11.11
9.05
6.88
4.68
2.47
0.25
-2.09
-4.57
-7.16
-9.66
-11.91
-13.81
-15.45
-17.13
-19.16
-21.73
-24.85
-28.27
-31.64
-34.67
-37.26
-39.62
-42.18
-45.47
-49.89
-55.35
-61.15
-66.02
-68.40
-67.02
-61.34
-51.89
-40.06
-27.62
-16.10
-6.39
1.41
7.72
13.07
17.83
22.12
25.89
29.02
31.44
33.14
34.14
34.49
34.27
33.62
32.69
31.63
30.60
29.76
29.20
28.99
29.01
29.02
28.66
27.63
25.81
23.34
20.57
17.86
15.39
13.11
10.81
8.27
5.42
2.35
-0.76
-3.73
-6.54
-9.23
-11.93
-14.74
-17.71
-20.84
-24.16
-27.62
-31.15
-34.61
-37.82
-40.71
-43.38
-46.19
-49.69
-54.41
-60.58
-67.78
-74.92
-80.30
-82.15
-79.14
-70.90
-58.10
-42.35
-25.54
-9.37
5.06
17.40
27.80
36.59
43.99
50.04
54.60
57.60
59.07
59.24
58.39
56.72
54.36
51.37
47.93
44.41
41.40
39.43
38.75
39.22
40.28
41.21
41.34
40.27
37.90
34.43
30.19
25.58
20.95
16.53
12.41
8.58
4.93
1.39
-2.00
-5.22
-8.25
-11.15
-13.97
-16.74
-19.49
-22.20
-24.86
-27.55
-30.39
-33.38
-36.44
-39.35
-41.92
-44.19
-46.50
-49.55
-54.04
-60.31
-67.97
-75.82
-82.01
-84.56
-81.91
-73.49
-59.85
-42.61
-23.92
-5.90
9.91
22.74
32.62
40.08
45.81
50.32
53.82
56.24
57.43
57.34
56.11
54.05
51.41
48.40
45.12
41.72
38.54
36.08
34.78
34.82
35.88
37.25
38.14
37.98
36.65
34.42
31.71
28.81
25.76
22.44
18.66
14.39
9.72
4.89
0.22
-4.04
-7.70
-10.71
-13.21
-15.52
-18.07
-21.19
-24.99
-29.22
-33.48
-37.31
-40.50
-43.18
-45.82
-49.07
-53.50
-59.41
-66.55
-74.00
-80.17
-83.15
-81.19
-73.26
-59.56
-41.59
-21.75
-2.62
13.75
26.39
35.41
41.67
46.29
50.15
53.74
57.08
59.93
61.89
62.69
62.30
60.94
59.00
56.85
54.76
52.75
50.75
48.61
46.34
43.97
41.53
38.86
35.64
31.59
26.63
21.09
15.55
10.63
6.66
3.47
0.59
-2.52
-6.16
-10.24
-14.35
-18.00
-20.99
-23.45
-25.81
-28.54
-31.86
-35.66
-39.57
-43.14
-46.17
-48.81
-51.56
-55.15
-60.23
-67.13
-75.57
-84.56
-92.38
-96.90
-96.14
-88.91
-75.31
-56.73
-35.54
-14.31
4.87
20.80
33.20
42.46
49.27
54.33
58.22
61.34
63.91
66.00
67.57
68.53
68.76
68.16
66.68
64.37
61.43
58.26
55.33
53.05
51.49
50.35
49.10
47.15
44.15
40.14
35.41
30.42
25.54
20.98
16.77
12.83
8.89
4.69
-0.02
-5.25
-10.69
-15.80
-20.02
-23.11
-25.28
-27.24
-29.78
-33.42
-38.12
-43.29
-48.08
-51.81
-54.27
-55.82
-57.23
-59.40
-63.06
-68.61
-75.88
-84.05
-91.58
-96.41
-96.42
-90.12
-77.24
-58.94
-37.60
-15.97
3.58
19.63
31.87
40.78
47.17
51.80
55.24
57.84
59.83
61.32
62.25
62.49
61.87
60.37
58.15
55.55
52.94
50.66
48.92
47.74
47.06
46.61
46.03
44.92
42.92
39.88
35.97
31.59
27.27
23.38
19.99
16.88
13.62
9.86
5.47
0.63
-4.24
-8.74
-12.58
-15.79
-18.71
-21.89
-25.72
-30.33
-35.37
-40.20
-44.17
-46.97
-48.85
-50.55
-53.07
-57.29
-63.59
-71.56
-79.91
-86.62
-89.36
-86.24
-76.39
-60.52
-40.77
-20.03
-1.11
14.25
25.57
33.45
38.91
42.87
45.84
48.03
49.59
50.71
51.60
52.28
52.54
52.01
50.41
47.79
44.57
41.40
38.84
37.18
36.30
35.76
35.05
33.73
31.64
28.85
25.66
22.40
19.34
16.51
13.73
10.67
7.07
2.84
-1.81
-6.45
-10.69
-14.33
-17.51
-20.61
-24.06
-28.08
-32.56
-37.10
-41.25
-44.72
-47.51
-49.94
-52.49
-55.68
-59.97
-65.67
-72.71
-80.39
-87.23
-91.18
-90.17
-82.94
-69.69
-52.15
-32.94
-14.75
0.65
12.68
21.92
29.43
36.31
43.20
50.28
57.30
63.72
68.94
72.47
74.10
73.97
72.54
70.39
68.01
65.75
63.78
62.20
61.00
60.06
59.02
57.31
54.30
49.70
43.75
37.27
31.31
26.66
23.46
21.09
18.54
14.89
9.74
3.32
-3.80
-11.09
-18.36
-25.83
-33.89
-42.85
-52.72
-63.17
-73.76
-84.11
-94.04
-103.66
-113.34
-123.61
-135.04
-148.13
-163.33
-180.85
-200.50
-221.36
-241.68
-258.92
-270.26
-273.37
-267.09
-251.84
-229.44
-202.52
-173.73
-145.06
-117.63
-91.69
-66.91
-42.65
-18.30
6.46
31.51
56.45
80.89
104.95
129.30
154.92
182.49
211.73
241.24
268.89
292.67
311.33
324.39
331.50
331.83
323.83
305.93
277.68
240.60
197.90
153.30
109.51
67.42
26.54
-13.67
-52.54
-87.72
-116.01
-134.89
-143.82
-144.59
-140.55
-135.27
-131.36
-129.95
-130.85
-133.17
-135.93
-138.40
-140.20
-141.26
-141.80
-142.35
-143.69
-146.70
-151.92
-158.99
-166.22
-170.69
-168.98
-158.37
-137.80
-108.31
-72.46
-33.11
7.83
50.12
94.73
142.76
194.06
246.66
296.97
340.93
375.27
398.30
410.14
412.24
406.84
396.30
382.71
367.52
351.30
333.64
313.35
289.05
259.85
225.89
188.55
149.99
112.50
77.87
47.11
20.51
-2.06
-20.99
-36.71
-49.77
-60.81
-70.42
-78.97
-86.57
-93.07
-98.25
-102.12
-105.04
-107.74
-110.95
-115.12
-120.17
-125.51
-130.37
-134.23
-137.09
-139.49
-142.30
-146.34
-152.03
-159.10
-166.56
-172.70
-175.47
-172.96
-164.12
-149.26
-130.09
-109.16
-88.90
-70.68
-54.44
-38.96
-22.79
-5.03
14.17
33.78
52.34
68.56
81.63
91.30
97.71
101.27
102.44
101.71
99.51
96.27
92.40
88.33
84.42
80.78
77.17
73.04
67.75
60.92
52.72
43.83
35.16
27.45
20.84
14.93
9.00
2.40
-5.03
-12.92
-20.55
-27.21
-32.57
-36.85
-40.74
-44.98
-49.99
-55.63
-61.23
-65.98
-69.40
-71.56
-73.22
-75.51
-79.49
-85.74
-94.06
-103.38
-111.89
-117.35
-117.68
-111.54
-98.79
-80.65
-59.36
-37.55
-17.56
-0.77
12.39
22.31
29.75
35.49
40.10
43.92
47.13
49.81
51.99
53.65
54.83
55.57
55.98
56.14
56.06
55.68
54.83
53.34
51.02
47.77
43.57
38.54
32.80
26.55
19.99
13.35
6.92
1.01
-4.06
-8.07
-11.03
-13.25
-15.24
-17.52
-20.45
-24.00
-27.78
-31.19
-33.68
-34.95
-35.07
-34.33
-33.21
-32.22
-31.94
-32.94
-35.62
-39.95
-45.10
-49.47
-50.98
-47.80
-39.06
-25.37
-8.59
8.73
24.23
36.44
44.94
50.13
52.72
53.27
52.06
49.13
44.53
38.54
31.62
24.35
17.21
10.43
4.10
-1.77
-7.09
-11.59
-14.92
-16.80
-17.19
-16.43
-15.22
-14.45
-14.98
-17.34
-21.59
-27.28
-33.60
-39.64
-44.72
-48.53
-51.22
-53.25
-55.12
-57.26
-59.97
-63.44
-67.83
-73.16
-79.20
-85.24
-90.13
-92.39
-90.73
-84.50
-74.00
-60.45
-45.59
-31.10
-18.11
-7.02
2.44
10.88
18.90
26.83
34.70
42.33
49.57
56.45
63.38
71.05
80.16
91.12
103.73
117.25
130.71
143.21
154.00
162.32
167.05
166.62
159.35
144.05
120.69
90.71
56.92
22.81
-8.26
-33.82
-52.83
-65.68
-73.94
-79.73
-85.11
-91.37
-98.77
-106.59
-113.47
-118.00
-119.02
-115.87
-108.45
-97.15
-82.89
-67.02
-50.94
-35.87
-22.53
-10.96
-0.84
8.30
16.75
24.47
31.18
36.58
40.53
43.12
44.62
45.38
45.71
45.87
46.03
46.35
46.87
47.55
48.22
48.53
48.06
46.34
43.05
38.04
31.54
24.03
16.20
8.69
1.96
-3.93
-9.19
-14.28
-19.72
-25.87
-32.86
-40.39
-47.81
-54.09
-58.12
-58.96
-56.20
-50.15
-41.67
-32.01
-22.43
-13.89
-6.88
-1.47
2.58
5.59
7.81
9.26
9.80
9.29
7.71
5.27
2.40
-0.35
-2.54
-3.98
-4.64
-4.71
-4.36
-3.72
-2.89
-1.93
-1.00
-0.35
-0.33
-1.22
-3.18
-6.09
-9.59
-13.17
-16.26
-18.55
-19.97
-20.76
-21.27
-21.88
-22.82
-24.13
-25.71
-27.40
-29.07
-30.63
-32.05
-33.38
-34.76
-36.41
-38.65
-41.73
-45.62
-49.77
-53.11
-54.32
-52.25
-46.45
-37.42
-26.44
-15.20
-5.04
3.23
9.61
14.53
18.60
22.29
25.75
28.90
31.46
33.17
33.87
33.61
32.61
31.17
29.58
28.01
26.51
25.04
23.59
22.19
20.90
19.72
18.54
17.09
15.05
12.21
8.63
4.64
0.76
-2.55
-5.10
-7.14
-9.20
-11.89
-15.53
-19.98
-24.66
-28.78
-31.75
-33.43
-34.25
-34.98
-36.48
-39.30
-43.54
-48.69
-53.72
-57.34
-58.17
-55.25
-48.18
-37.34
-23.78
-8.94
5.78
19.33
31.18
41.24
49.65
56.54
61.87
65.54
67.40
67.44
65.86
63.03
59.42
55.44
51.42
47.50
43.79
40.34
37.22
34.49
32.09
29.84
27.45
24.62
21.21
17.30
13.17
9.15
5.53
2.42
-0.17
-2.29
-4.04
-5.53
-6.94
-8.46
-10.34
-12.69
-15.48
-18.47
-21.29
-23.63
-25.28
-26.29
-26.91
-27.57
-28.66
-30.49
-33.06
-36.14
-39.31
-42.12
-44.27
-45.71
-46.67
-47.63
-49.22
-52.01
-56.36
-62.06
-68.21
-73.28
-75.46
-73.29
-66.18
-54.66
-40.23
-24.79
-10.07
2.85
13.61
22.41
29.67
35.79
41.00
45.36
48.83
51.35
52.85
53.37
53.04
52.06
50.73
49.29
47.99
47.08
46.70
46.91
47.54
48.16
48.20
47.11
44.57
40.68
35.94
31.07
26.72
23.23
20.55
18.36
16.29
14.08
11.68
9.18
6.70
4.25
1.72
-1.07
-4.29
-8.04
-12.31
-16.94
-21.66
-26.15
-30.10
-33.34
-35.90
-38.09
-40.41
-43.44
-47.70
-53.36
-60.11
-67.03
-72.66
-75.34
-73.70
-67.12
-56.01
-41.79
-26.36
-11.57
1.29
11.72
19.90
26.29
31.35
35.36
38.34
40.28
41.21
41.36
40.99
40.42
39.81
39.15
38.36
37.37
36.24
35.15
34.33
33.92
33.87
33.89
33.53
32.42
30.36
27.45
24.05
20.62
17.57
14.98
12.61
9.96
6.58
2.31
-2.57
-7.42
-11.55
-14.47
-16.17
-17.07
-17.87
-19.21
-21.43
-24.51
-28.12
-31.82
-35.33
-38.53
-41.55
-44.59
-47.93
-51.85
-56.54
-62.10
-68.30
-74.33
-78.86
-80.28
-77.22
-69.13
-56.58
-41.18
-24.98
-9.84
3.06
13.41
21.53
28.01
33.40
38.02
41.96
45.16
47.47
48.78
49.04
48.33
46.83
44.83
42.62
40.50
38.71
37.43
36.72
36.48
36.41
36.10
35.15
33.30
30.56
27.20
23.60
20.13
17.03
14.29
11.79
9.31
6.72
3.95
0.96
-2.23
-5.56
-8.91
-12.08
-14.84
-17.07
-18.80
-20.33
-22.04
-24.28
-27.13
-30.39
-33.59
-36.27
-38.25
-39.70
-41.19
-43.45
-47.18
-52.71
-59.83
-67.63
-74.64
-79.07
-79.25
-74.16
-63.77
-49.11
-31.97
-14.37
2.05
16.32
28.14
37.72
45.35
51.26
55.55
58.24
59.45
59.34
58.19
56.27
53.87
51.21
48.52
45.98
43.76
42.00
40.76
39.98
39.43
38.75
37.52
35.45
32.52
28.99
25.22
21.54
18.05
14.61
11.06
7.28
3.37
-0.45
-3.97
-7.07
-9.78
-12.26
-14.68
-17.21
-19.96
-23.00
-26.34
-29.93
-33.62
-37.28
-40.84
-44.34
-47.99
-52.11
-56.99
-62.70
-68.98
-74.98
-79.41
-80.67
-77.28
-68.44
-54.42
-36.59
-17.16
1.44
17.34
29.60
38.34
44.42
48.87
52.46
55.45
57.74
59.07
59.39
58.91
58.02
57.04
56.05
54.91
53.38
51.37
48.99
46.56
44.31
42.28
40.29
37.99
35.15
31.68
27.75
23.62
19.52
15.58
11.78
7.99
4.01
-0.26
-4.76
-9.19
-13.14
-16.32
-18.71
-20.71
-22.97
-26.06
-30.17
-35.00
-39.92
-44.27
-47.74
-50.50
-53.15
-56.51
-61.27
-67.71
-75.50
-83.53
-90.01
-92.79
-90.00
-80.73
-65.49
-46.18
-25.48
-6.01
10.44
23.30
33.04
40.57
46.73
52.00
56.44
59.98
62.54
64.22
65.14
65.49
65.39
64.89
64.09
63.08
61.98
60.90
59.95
59.27
58.93
59.02
59.44
59.94
60.03
59.25
57.33
54.35
50.83
47.51
45.09
43.87
43.68
43.95
43.95
43.11
41.21
38.36
34.91
31.36
28.14
25.52
23.46
21.54
18.97
14.82
8.26
-1.16
-13.28
-27.39
-42.36
-56.96
-70.26
-81.68
-91.13
-98.66
-104.22
-107.49
-107.90
-104.95
-98.61
-89.59
-79.22
-69.08
-60.46
-53.99
-49.59
-46.71
-44.70
-43.01
-41.41
-39.88
-38.61
-37.87
-37.94
-39.00
-40.98
-43.55
-46.15
-48.26
-49.56
-50.01
-49.80
-49.14
-48.14
-46.78
-45.01
-42.96
-40.95
-39.38
-38.62
-38.83
-40.02
-42.18
-45.37
-49.81
-55.69
-62.94
-71.03
-78.91
-85.29
-89.04
-89.66
-87.45
-83.44
-78.85
-74.62
-71.16
-68.46
-66.53
-66.08
-68.54
-75.66
-88.76
-108.07
-132.78
-161.35
-191.66
-221.49
-248.48
-270.03
-283.54
-286.85
-279.46
-263.22
-241.56
-217.90
-194.49
-171.93
-149.58
-126.79
-103.31
-80.03
-58.50
-39.94
-23.61
-7.72
9.56
29.34
51.17
74.30
97.31
118.83
138.41
159.19
184.68
216.75
254.94
296.29
340.15
386.57
435.38
485.52
538.00
589.65
632.14
654.89
648.01
612.52
554.96
482.95
403.14
326.69
261.21
209.73
172.61
147.01
137.96
147.82
171.97
201.46
235.36
273.43
314.08
354.28
386.52
413.59
437.72
457.47
411.40
269.96
51.82
-187.09
-360.74
-472.86
-540.21
-576.52
-600.39
-617.56
-620.26
-601.98
-563.80
-514.70
-471.09
-437.41
-414.12
-400.64
-393.99
-384.12
-363.58
-331.54
-293.77
-261.95
-238.70
-223.63
-215.61
-211.73
-204.79
-189.41
-164.77
-134.62
-106.86
-83.90
-66.19
-53.32
-43.25
-31.44
-14.19
9.71
38.52
67.77
95.24
119.61
140.33
158.24
175.65
195.20
219.13
248.91
284.59
325.35
367.71
405.13
429.46
433.37
413.54
372.60
318.62
262.34
213.26
176.48
151.84
135.62
123.45
112.94
104.58
100.63
103.07
111.94
125.04
139.16
151.76
162.28
172.04
182.83
195.69
210.57
227.36
247.08
272.07
304.57
344.37
387.31
425.77
451.43
458.79
447.31
421.16
386.82
350.13
314.55
281.18
250.06
221.42
196.05
174.68
157.26
142.71
129.38
115.91
101.78
87.37
73.51
60.72
48.75
36.61
22.93
6.61
-12.58
-33.98
-56.34
-78.44
-99.60
-119.93
-139.99
-160.30
-180.78
-200.65
-218.70
-233.86
-245.85
-255.37
-263.90
-273.17
-284.55
-298.68
-315.17
-332.59
-348.52
-360.07
-364.54
-360.38
-347.92
-329.55
-309.02
-289.65
-272.61
-255.90
-235.04
-205.24
-164.04
-112.98
-57.58
-5.44
36.40
63.58
75.12
72.76
59.57
38.59
12.34
-17.09
-47.65
-77.25
-104.09
-127.25
-147.34
-166.89
-189.89
-220.31
-259.83
-305.90
-351.16
-385.29
-398.67
-386.37
-350.51
-299.77
-246.19
-200.74
-170.14
-155.83
-155.19
-163.52
-175.51
-185.66
-188.28
-178.35
-153.37
-115.71
-73.41
-38.28
-21.74
-30.05
-61.32
-106.25
-151.99
-187.08
-205.17
-205.86
-192.93
-171.61
-146.59
-121.48
-99.25
-82.80
-74.56
-75.69
-85.27
-100.28
-116.53
-129.84
-137.24
-137.53
-131.46
-121.46
-110.92
-102.99
-99.19
-98.54
-97.63
-92.00
-78.31
-56.07
-27.94
1.64
28.77
52.13
73.37
95.93
123.18
157.12
197.93
244.27
293.44
341.44
382.73
410.90
420.11
406.95
371.55
317.40
249.43
171.75
86.61
-4.84
-100.25
-194.21
-278.30
-343.44
-383.45
-397.56
-390.50
-369.97
-343.27
-314.84
-285.91
-256.09
-225.42
-195.46
-168.48
-145.90
-126.97
-108.77
-87.77
-61.66
-30.47
3.66
37.42
67.70
92.47
111.32
125.52
137.71
151.02
167.59
187.18
206.40
219.58
221.11
208.26
183.29
153.39
128.23
116.08
120.35
138.36
162.92
185.98
202.45
212.43
220.74
234.31
258.45
294.30
338.46
384.75
427.17
462.11
488.80
508.15
520.82
526.01
521.68
505.78
477.82
439.58
394.91
348.69
305.47
268.33
238.16
213.59
191.53
168.25
140.79
108.07
71.09
32.26
-6.04
-42.81
-78.98
-116.80
-158.63
-205.94
-259.00
-316.81
-377.13
-436.17
-488.56
-527.89
-548.09
-545.19
-518.72
-472.07
-411.35
-343.29
-273.15
-203.95
-136.64
-71.43
-8.59
50.92
105.52
153.81
195.31
230.74
260.72
285.03
301.60
307.55
300.70
280.66
249.30
210.31
167.84
123.64
76.66
23.34
-38.92
-108.97
-181.10
-246.27
-295.03
-320.62
-323.03
-307.03
-284.50
-268.07
-263.18
-266.68
-271.89
-273.94
-269.48
-261.49
-253.19
-245.96
-237.95
-225.20
-203.80
-171.45
-132.66
-92.05
-54.32
-22.11
4.00
25.82
46.33
68.16
91.99
116.56
140.35
161.67
179.79
194.37
205.32
212.47
216.43
217.81
217.22
216.02
215.40
216.23
218.15
219.52
218.13
213.97
207.37
198.08
185.47
168.73
147.70
123.04
96.51
71.08
53.61
49.47
59.08
77.78
98.46
115.51
127.23
136.32
148.48
173.65
217.93
279.21
348.21
413.02
463.82
495.10
505.64
472.23
387.70
266.04
136.13
24.23
-57.95
-111.38
-142.39
-157.40
-161.10
-154.14
-136.57
-111.94
-86.39
-65.44
-51.47
-43.80
-40.51
-40.20
-40.20
-35.77
-27.70
-19.57
-14.80
-14.52
-17.56
-21.72
-25.03
-24.48
-18.62
-9.19
0.56
7.45
10.28
9.89
8.21
7.02
8.08
11.81
16.39
19.24
18.07
12.39
3.58
-5.94
-14.06
-19.63
-23.19
-27.21
-34.62
-48.25
-68.69
-94.04
-120.83
-145.70
-166.87
-184.65
-201.47
-220.83
-248.45
-287.75
-337.71
-392.35
-441.96
-475.17
-481.66
-455.28
-396.69
-318.77
-238.38
-171.19
-127.58
-111.55
-121.27
-150.65
-191.83
-238.06
-292.47
-357.58
-431.84
-509.28
-582.71
-646.56
-697.49
-733.98
-755.64
-771.83
-787.54
-800.61
-804.09
-792.36
-765.07
-726.69
-683.57
-587.72
-425.86
-220.52
-16.29
151.80
272.41
350.75
397.33
420.64
431.09
425.13
401.11
363.64
322.50
287.28
263.91
251.37
247.35
249.15
247.00
235.42
215.30
192.25
172.07
157.74
149.38
145.98
146.08
143.57
135.05
121.19
105.78
92.86
84.79
82.10
84.51
91.20
98.67
104.67
108.96
112.98
118.47
126.41
136.83
149.20
162.61
175.13
185.51
193.67
200.54
207.46
215.59
225.82
238.93
255.45
275.23
297.10
318.57
336.23
346.68
347.71
339.15
322.80
301.45
277.64
252.76
227.12
200.64
173.79
147.91
124.94
106.52
93.30
84.59
78.77
73.91
68.44
61.54
53.23
44.09
34.99
26.68
19.70
14.29
10.46
8.07
6.86
6.41
6.12
5.31
3.41
0.21
-4.04
-8.66
-12.73
-15.46
-16.39
-15.51
-13.23
-10.19
-7.15
-4.81
-3.71
-4.07
-5.69
-7.95
-9.98
-10.95
-10.33
-8.15
-4.93
-1.61
0.77
1.32
-0.45
-4.53
-10.43
-17.29
-24.10
-29.91
-34.03
-36.11
-36.22
-34.74
-32.26
-29.45
-26.81
-24.56
-22.48
-20.10
-16.76
-11.86
-5.21
2.88
11.73
20.69
29.31
37.41
44.80
51.18
56.07
58.87
58.99
56.22
50.98
44.18
36.93
30.00
23.54
17.44
11.13
3.92
-4.49
-13.60
-22.24
-28.79
-31.92
-31.02
-25.54
-16.29
-5.42
4.53
12.10
17.53
23.01
31.25
44.29
64.59
91.79
122.51
151.93
176.47
194.84
208.61
219.80
229.70
241.39
255.11
267.75
274.44
271.46
257.41
235.04
209.28
186.84
179.00
193.05
228.25
275.73
322.79
357.28
373.33
370.71
329.22
247.84
145.07
48.03
-25.92
-70.42
-97.20
-113.44
-122.69
-127.96
-126.62
-119.15
-109.67
-103.72
-104.42
-111.73
-121.72
-130.83
-137.10
-137.10
-130.36
-119.52
-108.75
-101.01
-97.34
-96.04
-95.46
-94.61
-91.11
-84.16
-74.88
-65.72
-59.01
-56.40
-57.93
-63.21
-71.34
-79.79
-86.24
-89.42
-89.62
-88.37
-88.08
-90.85
-98.11
-109.91
-124.29
-138.67
-151.29
-162.22
-173.62
-188.95
-211.49
-243.11
-283.81
-331.83
-384.17
-436.57
-483.70
-519.72
-539.77
-542.06
-529.60
-510.11
-493.39
-487.23
-493.63
-507.80
-520.24
-521.04
-504.13
-468.83
-418.73
-358.86
-292.93
-222.54
-148.46
-73.06
-1.71
57.94
98.92
118.90
122.57
120.91
127.30
151.92
197.17
256.21
315.31
359.03
375.60
360.59
317.63
256.67
190.62
131.63
87.96
62.41
52.60
52.75
56.09
57.01
51.76
38.66
17.71
-9.71
-40.49
-69.64
-90.72
-97.21
-84.36
-50.77
0.85
63.64
127.43
180.13
210.80
213.08
187.66
142.14
87.92
35.57
-9.04
-45.42
-76.38
-104.35
-128.81
-147.04
-156.55
-157.17
-150.89
-140.28
-126.50
-108.83
-85.41
-54.68
-16.99
25.10
67.86
108.18
144.12
175.07
199.41
212.95
213.15
201.92
184.45
165.17
146.22
127.67
109.14
90.65
73.04
57.96
46.81
40.18
36.89
36.08
35.65
34.44
32.40
30.23
29.16
30.76
36.73
47.63
62.87
80.32
96.34
106.52
107.00
96.49
72.75
39.25
1.59
-34.66
-65.46
-88.61
-102.43
-105.39
-96.06
-72.91
-36.73
7.53
52.64
92.20
122.57
144.15
159.12
169.68
178.62
187.46
195.56
201.38
203.74
201.70
195.80
186.84
165.36
129.23
84.06
38.50
-2.40
-34.95
-64.67
-94.74
-125.22
-154.64
-180.13
-200.34
-217.96
-238.31
-265.39
-299.14
-332.98
-357.35
-363.98
-348.31
-312.64
-264.89
-214.36
-167.12
-124.78
-84.35
-42.44
2.17
48.82
94.65
135.78
168.98
192.75
207.06
213.90
215.25
212.57
207.66
202.57
199.22
199.17
203.18
210.36
218.92
225.10
224.80
216.26
201.52
185.67
174.77
173.01
180.35
193.28
204.59
206.39
193.61
165.97
127.00
82.08
36.24
-12.36
-60.14
-101.02
-130.38
-147.10
-152.49
-148.92
-138.83
-124.81
-110.29
-97.45
-88.15
-83.67
-84.78
-88.75
-92.68
-94.61
-94.19
-93.41
-94.14
-98.21
-107.79
-124.02
-146.82
-175.59
-209.49
-240.62
-261.98
-266.35
-248.58
-208.63
-150.64
-81.24
-7.19
67.76
143.65
221.44
297.52
369.51
428.41
464.50
471.76
450.40
407.38
353.62
298.95
249.36
206.10
166.11
125.93
84.00
40.54
-2.71
-43.65
-81.68
-117.41
-151.57
-184.73
-215.73
-242.02
-262.59
-276.28
-280.94
-273.64
-251.21
-210.88
-151.69
-75.12
13.62
101.50
174.38
222.21
241.63
235.09
208.62
169.45
124.11
76.99
23.83
-38.95
-109.15
-179.13
-240.90
-290.51
-329.06
-360.92
-391.13
-431.99
-491.41
-568.13
-652.97
-735.00
-805.55
-858.42
-889.35
-846.16
-707.35
-497.21
-271.64
-77.93
66.14
165.14
231.51
276.11
306.59
319.62
313.70
294.81
274.92
264.63
268.02
282.76
303.48
326.88
346.32
356.69
361.97
371.31
392.34
427.89
476.35
521.14
547.27
539.91
494.27
417.32
323.26
226.64
139.49
69.39
18.56
-14.51
-38.56
-60.26
-79.89
-93.64
-99.75
-99.65
-97.64
-99.33
-109.30
-132.87
-171.73
-218.65
-264.13
