1589803857.00
64.000000
-0.00
-0.00
-0.00
-0.00
-0.00
-0.00
-0.00
-0.00
-0.00
-0.00
0.00
0.01
0.01
-0.00
-0.03
-0.05
-0.05
0.00
0.13
0.36
0.66
1.01
1.37
1.72
2.06
2.40
2.79
3.24
3.80
4.42
5.06
5.66
6.20
6.68
7.15
7.68
8.31
9.14
10.09
11.04
11.88
12.56
13.14
13.76
14.65
15.96
17.91
20.32
22.90
25.38
27.58
29.57
31.68
34.32
37.81
42.54
48.15
54.10
59.83
64.97
69.58
74.14
79.34
85.71
93.76
103.00
112.62
121.73
129.77
136.75
143.30
150.75
157.77
166.64
177.95
191.79
206.97
220.57
228.25
225.36
208.53
176.87
132.76
80.05
23.07
-34.94
-92.44
-149.16
-205.23
-260.37
-313.74
-363.87
-409.83
-450.91
-486.50
-515.74
-537.23
-549.22
-549.96
-538.37
-514.21
-478.67
-433.88
-382.45
-327.02
-269.84
-212.63
-156.66
-102.95
-52.37
-5.90
35.58
71.43
101.35
125.50
144.38
158.69
169.15
176.37
180.75
182.57
182.07
179.51
175.23
169.65
163.18
156.15
148.81
141.30
133.69
126.02
118.33
110.69
103.16
95.80
88.68
81.83
75.25
68.95
62.95
57.25
51.86
46.78
42.03
37.59
33.45
29.61
26.07
22.81
19.83
17.11
14.67
12.48
10.54
8.83
7.35
6.07
4.97
4.05
3.27
2.62
2.09
1.65
1.30
1.01
0.79
0.61
0.47
0.37
0.28
0.22
0.18
0.15
0.13
0.12
0.12
0.13
0.15
0.17
0.19
0.23
0.27
0.30
0.34
0.39
0.44
0.48
0.53
0.58
0.63
0.68
0.74
0.81
0.87
0.95
1.03
1.13
1.23
1.34
1.47
1.62
1.78
1.96
2.16
2.39
2.63
2.91
3.21
3.54
3.90
4.29
4.72
5.19
5.69
6.23
6.81
7.43
8.09
8.80
9.55
10.35
11.19
12.08
13.01
13.99
15.04
16.15
17.32
18.55
19.81
21.07
22.28
23.33
24.15
24.59
24.56
23.91
22.59
20.55
17.79
14.38
10.42
6.09
1.59
-2.85
-7.01
-10.71
-13.81
-16.26
-18.02
-19.12
-19.61
-19.55
-19.01
-18.08
-16.85
-15.42
-13.92
-12.42
-10.98
-9.58
-8.23
-6.87
-5.45
-3.96
-2.42
-0.87
0.59
2.00
3.43
4.91
6.54
8.43
10.60
12.91
15.16
17.13
18.75
20.17
21.47
22.91
24.74
27.06
29.63
32.03
33.83
34.85
35.35
35.49
35.80
36.77
38.54
40.73
42.57
43.26
42.39
40.24
36.96
33.20
29.52
25.96
21.81
15.70
5.62
-11.08
-32.54
-58.56
-88.23
-119.22
-147.62
-168.66
-178.11
-173.99
-157.42
-132.24
-104.25
-78.28
-56.99
-40.64
-28.06
-17.81
-9.11
-1.84
4.00
8.20
11.27
14.00
17.07
20.60
24.18
26.91
28.03
27.25
24.60
20.82
16.96
13.84
11.69
10.13
8.43
6.05
2.95
-0.64
-4.23
-7.69
-11.34
-15.83
-21.62
-28.44
-35.08
-39.67
-40.46
-36.44
-27.89
-16.23
-3.49
8.47
18.57
26.60
32.98
38.17
42.34
45.19
46.33
45.67
43.64
41.12
39.06
37.98
37.77
37.89
37.60
36.49
34.59
32.24
29.83
27.46
24.95
21.94
18.15
13.60
8.64
3.75
-0.72
-4.69
-8.44
-12.48
-17.35
-23.39
-30.53
-38.23
-45.45
-50.93
-53.40
-52.00
-46.52
-37.42
-25.77
-12.90
-0.13
11.49
21.24
28.78
34.04
37.16
38.51
38.52
37.73
36.52
35.14
33.64
31.98
30.14
28.21
26.42
25.02
24.12
23.58
23.02
21.92
19.85
16.59
12.23
7.20
1.98
-2.94
-7.27
-11.09
-14.74
-18.76
-23.70
-29.77
-36.67
-43.54
-49.05
-51.81
-50.73
-45.39
-36.24
-24.40
-11.37
1.36
12.63
21.70
28.29
32.38
34.25
34.29
33.12
31.35
29.55
28.05
26.90
25.97
25.02
23.96
22.79
21.60
20.44
19.26
17.88
16.15
13.91
11.14
7.86
4.10
-0.14
-4.86
-10.06
-15.66
-21.57
-27.69
-33.93
-40.20
-46.32
-51.84
-56.00
-57.81
-56.31
-51.04
-42.24
-30.99
-18.87
-7.49
2.02
9.20
14.18
17.38
19.22
19.92
19.54
18.16
15.98
13.35
10.68
8.37
6.60
5.30
4.13
2.59
0.17
-3.40
-8.01
-13.15
-18.14
-22.36
-25.57
-27.90
-29.72
-31.40
-33.21
-35.30
-37.87
-41.25
-45.79
-51.57
-58.08
-64.17
-68.33
-69.31
-66.67
-61.09
-54.08
-47.39
-42.30
-39.21
-37.80
-37.30
-37.19
-37.44
-38.50
-40.99
-45.32
-51.42
-58.85
-66.81
-74.40
-80.82
-85.52
-88.47
-90.50
-93.33
-99.33
-110.58
-127.63
-148.46
-168.42
-181.32
-181.38
-165.39
-133.63
-89.45
-37.79
16.45
69.44
118.72
163.00
201.84
235.53
264.87
290.51
312.24
328.41
336.33
333.45
318.90
294.29
263.32
230.50
199.54
172.39
148.99
127.77
106.34
82.30
54.04
21.49
-13.54
-47.79
-77.45
-99.36
-112.06
-115.99
-112.89
-104.70
-92.79
-77.59
-59.10
-38.01
-16.53
1.66
12.62
14.44
9.09
2.47
2.07
13.21
36.40
67.65
101.84
136.84
175.24
222.14
280.29
346.14
409.55
458.08
483.19
484.42
469.02
447.46
427.73
411.99
397.04
377.58
349.93
313.86
271.98
227.61
182.78
137.45
90.08
39.13
-15.70
-72.64
-128.27
-178.66
-220.72
-253.29
-277.33
-295.15
-309.19
-320.87
-329.95
-334.93
-334.26
-327.32
-315.30
-301.13
-288.52
-281.00
-281.34
-291.54
-312.93
-345.80
-388.26
-435.43
-479.43
-511.18
-523.21
-512.24
-480.22
-432.92
-377.20
-318.51
-259.99
-203.38
-150.67
-105.02
-70.00
-47.79
-37.62
-35.50
-35.77
-33.59
-26.80
-16.42
-5.76
1.70
3.96
1.15
-5.03
-12.53
-20.28
-28.44
-38.00
-49.59
-62.46
-74.24
-81.69
-82.12
-74.69
-61.15
-45.15
-31.07
-22.17
-19.51
-21.88
-26.43
-29.93
-29.86
-25.15
-16.39
-5.51
4.88
12.38
15.42
13.80
8.51
1.33
-5.95
-12.09
-16.72
-20.20
-23.13
-25.93
-28.64
-31.04
-32.92
-34.22
-35.22
-36.22
-37.66
-39.91
-43.32
-47.91
-53.28
-58.10
-60.04
-56.29
-44.69
-25.24
-0.63
24.23
43.94
54.65
55.35
47.77
35.18
20.91
7.22
-4.64
-13.86
-19.60
-20.73
-16.25
-5.68
10.70
32.06
57.14
84.42
111.83
136.70
156.14
167.29
168.19
158.20
138.15
110.10
76.75
40.80
4.53
-30.44
-63.05
-92.52
-118.18
-139.24
-154.91
-164.51
-167.68
-164.42
-154.92
-139.41
-117.98
-90.62
-57.58
-19.63
21.96
65.67
110.31
155.50
201.79
250.47
303.18
361.62
427.06
499.64
577.25
654.79
724.28
776.47
803.60
802.08
773.84
725.48
665.71
602.36
540.42
481.78
426.40
373.71
323.43
275.46
229.44
184.50
139.63
94.35
49.29
5.98
-33.77
-68.90
-99.76
-128.12
-156.51
-186.96
-219.96
-253.81
-285.17
-310.43
-327.47
-336.84
-341.69
-346.59
-355.84
-372.01
-395.18
-423.04
-451.51
-475.55
-490.26
-491.75
-477.95
-449.10
-407.51
-356.57
-299.38
-237.94
-173.74
-109.44
-50.09
-2.66
26.47
34.87
26.17
9.25
-5.34
-9.93
-2.92
11.40
25.93
35.01
36.91
33.52
27.63
20.61
11.93
0.93
-10.87
-19.18
-18.78
-6.63
15.79
42.47
65.56
78.92
80.57
73.01
61.22
50.23
43.04
39.77
37.75
32.38
18.57
-7.38
-45.95
-93.58
-143.31
-186.82
-216.90
-229.27
-223.29
-201.38
-168.37
-130.40
-94.10
-65.20
-46.87
-38.55
-36.08
-33.47
-25.69
-11.15
7.61
25.39
37.06
40.11
35.70
27.84
21.05
18.03
18.39
18.98
15.47
4.12
-16.95
-47.38
-84.69
-124.58
-161.39
-189.00
-202.44
-199.81
-183.66
-160.66
-139.50
-127.37
-127.13
-136.24
-148.16
-155.63
-153.68
-141.20
-120.42
-94.88
-67.47
-39.38
-10.37
20.22
52.61
86.16
119.40
150.41
177.17
198.01
212.19
220.42
224.99
229.20
236.07
247.04
261.35
276.47
289.30
297.22
298.35
291.43
275.90
252.50
223.81
193.86
166.62
143.92
124.47
104.96
82.70
58.09
35.30
20.29
17.71
28.56
50.44
79.75
113.88
151.81
192.36
232.25
265.64
286.12
289.82
277.56
254.55
227.77
202.67
181.14
161.72
141.67
119.17
94.49
69.49
46.31
26.14
8.91
-6.21
-19.93
-32.46
-43.48
-52.43
-58.80
-62.28
-62.75
-60.26
-55.16
-48.23
-40.59
-33.61
-28.43
-25.49
-24.39
-23.96
-22.77
-19.79
-14.82
-8.51
-2.15
2.68
4.46
1.82
-6.43
-21.32
-43.48
-72.86
-108.48
-148.33
-189.81
-230.21
-267.16
-298.64
-322.76
-337.43
-340.67
-331.20
-309.08
-275.86
-233.92
-185.21
-130.18
-68.18
0.78
73.76
144.13
203.28
244.19
265.02
270.29
268.88
269.69
277.33
290.15
301.70
304.38
293.25
268.22
233.11
193.70
155.00
119.84
88.56
59.80
31.59
2.08
-29.72
-64.86
-104.64
-150.28
-201.85
-256.95
-310.16
-353.70
-379.93
-383.39
-363.35
-323.34
-269.21
-206.38
-137.95
-64.53
13.90
93.33
169.01
233.22
278.17
299.00
295.65
272.48
236.00
191.90
142.78
89.03
30.46
-30.39
-86.76
-129.08
-148.77
-142.38
-113.51
-71.63
-27.55
10.35
38.96
60.19
77.99
94.96
110.55
121.30
122.91
112.87
91.71
63.56
35.10
13.85
5.84
13.39
33.77
59.72
81.78
91.59
85.10
63.82
33.27
-0.16
-32.46
-63.80
-98.09
-140.54
-194.48
-258.78
-326.84
-388.13
-431.38
-448.37
-436.88
-401.05
-350.01
-294.50
-243.78
-203.50
-174.76
-154.54
-136.95
-115.19
-84.35
-44.41
-1.33
34.32
51.99
46.56
21.25
-13.41
-44.39
-61.64
-61.72
-47.69
-26.40
-5.32
9.91
16.39
14.17
6.09
-2.45
-4.79
4.83
28.63
63.68
102.90
137.47
160.04
167.01
158.44
137.09
106.88
71.55
33.88
-4.74
-44.42
-85.74
-128.58
-170.92
-208.33
-235.23
-246.82
-241.03
-219.26
-185.78
-145.76
-103.25
-60.48
-18.06
24.02
65.28
105.36
145.27
188.14
238.61
300.43
373.67
452.84
527.49
584.82
614.66
613.36
585.05
539.50
487.83
438.55
395.43
357.98
322.82
286.79
248.72
209.25
169.22
128.50
86.33
42.85
0.54
-37.64
-67.44
-84.75
-88.02
-80.39
-68.96
-61.43
-62.50
-71.87
-89.41
-113.41
-140.33
-166.28
-189.91
-213.28
-239.83
-271.84
-308.45
-351.55
-399.97
-446.02
-477.42
-483.68
-460.63
-410.88
-342.25
-265.92
-202.97
-173.45
-186.79
-239.38
-320.10
-416.71
-519.18
-620.76
-662.14
-606.59
-463.31
-279.60
-102.21
46.29
162.91
252.84
322.97
370.41
397.28
404.27
396.78
384.84
376.86
375.15
376.51
375.10
372.90
364.43
344.79
315.30
282.51
252.45
226.37
200.83
170.21
129.38
72.14
-3.19
-89.29
-171.14
-232.07
-259.95
-250.43
-207.55
-142.28
-71.54
-12.39
23.77
33.35
19.19
-12.23
-53.62
-99.17
-145.75
-193.61
-243.94
-295.98
-345.83
-387.34
-414.45
-423.33
-413.33
-386.50
-346.49
-297.00
-240.89
-180.11
-116.28
-50.66
16.22
84.82
156.13
230.23
305.03
375.64
435.68
479.69
505.53
515.31
514.28
508.25
501.12
493.76
484.66
471.48
452.22
425.40
389.55
342.76
283.30
211.06
129.09
43.70
-36.94
-105.30
-157.03
-192.15
-214.34
-228.91
-240.57
-251.79
-262.63
-271.60
-277.08
-278.28
-275.61
-270.48
-264.66
-259.61
-256.01
-253.49
-250.87
-246.74
-240.02
-230.46
-218.78
-206.36
-194.56
-184.06
-174.40
-164.15
-152.01
-137.17
-119.99
-101.96
-85.34
-72.36
-64.55
-62.32
-64.83
-70.40
-75.52
-74.99
-63.38
-37.61
0.50
43.33
79.40
97.52
90.55
59.62
13.71
-34.14
-72.15
-93.54
-97.47
-86.87
-65.83
-38.96
-9.41
20.48
48.29
70.96
85.36
89.41
82.95
75.95
74.63
80.26
89.16
96.45
98.72
94.85
85.19
71.49
56.25
40.69
26.00
12.95
1.88
-7.56
-15.92
-23.86
-31.35
-37.72
-43.00
-46.69
-48.35
-47.62
-45.47
-41.81
-37.21
-32.34
-27.82
-24.77
-23.62
-24.52
-27.29
-31.68
-37.34
-44.20
-52.10
-60.82
-70.45
-80.42
-90.17
-99.10
-106.70
-112.39
-115.81
-116.39
-113.10
-108.25
-102.59
-96.52
-90.15
-83.53
-76.59
-69.43
-62.18
-55.06
-48.41
-42.11
-36.27
-31.06
-26.74
-23.51
-21.61
-21.22
-22.43
-25.30
-29.35
-34.14
-39.22
-44.14
-48.50
-51.99
-54.42
-55.76
-56.13
-55.53
-54.09
-52.01
-49.52
-46.84
-44.15
-41.60
-39.34
-37.52
-36.13
-35.22
-34.81
-34.89
-35.41
-36.27
-37.38
-38.72
-40.33
-42.26
-44.64
-47.53
-50.91
-54.64
-58.55
-62.45
-66.25
-70.02
-73.91
-78.08
-82.62
-87.35
-91.90
-95.70
-98.15
-98.81
-97.41
-93.84
-88.00
-79.55
-67.78
-51.59
-29.77
-1.35
33.93
75.46
121.73
170.76
220.57
269.65
317.13
362.81
406.84
449.30
489.86
527.46
560.21
585.76
602.39
609.54
608.02
599.64
586.01
567.45
542.38
507.95
461.40
401.88
330.70
251.22
168.15
87.30
15.39
-40.75
-75.76
-87.93
-79.73
-58.47
-33.94
-14.79
-5.40
-4.85
-8.58
-11.56
-10.62
-2.73
13.12
36.67
66.67
101.43
138.88
176.22
209.70
235.30
255.08
272.24
289.78
308.66
328.16
347.16
364.62
379.60
391.36
407.69
435.22
476.53
527.60
580.17
625.96
659.15
676.85
678.96
678.14
686.66
712.14
753.74
804.44
855.99
901.97
938.71
901.80
756.07
506.01
199.81
-100.20
-350.81
-537.86
-666.99
-751.11
-802.94
-819.36
-803.36
-760.64
-702.49
-642.65
-591.60
-554.04
-529.99
-517.46
-506.89
-489.29
-461.44
-427.28
-394.08
-367.56
-349.56
-338.90
-333.28
-325.77
-311.75
-290.15
-264.10
-238.47
-216.84
-200.40
-188.70
-181.06
-174.95
-169.14
-163.80
-160.38
-160.34
-163.93
-170.28
-178.33
-187.64
-197.76
-208.82
-221.17
-235.35
-251.96
-271.33
-293.10
-315.56
-335.32
-347.86
-349.03
-336.82
-312.52
-280.24
-245.34
-212.41
-184.29
-162.19
-146.77
-139.04
-140.21
-150.38
-166.99
-184.48
-195.59
-194.40
-179.37
-154.71
-129.27
-113.41
-114.67
-134.69
-168.32
-205.39
-234.39
-246.33
-237.40
-209.62
-169.62
-126.24
-87.77
-59.75
-43.63
-36.96
-34.96
-33.01
-28.89
-23.67
-20.73
-23.48
-33.17
-47.92
-63.50
-75.40
-80.74
-79.13
-71.90
-60.56
-45.46
-25.70
-0.20
30.87
65.11
98.33
125.93
144.75
154.33
156.97
156.61
157.12
160.72
167.24
174.54
179.97
181.83
180.45
178.19
178.42
184.28
197.79
219.76
250.05
287.46
329.17
370.18
403.40
421.14
417.49
390.56
343.23
282.16
215.34
149.64
89.31
36.16
-9.68
-48.86
-82.58
-112.98
-143.63
-179.23
-224.33
-281.12
-347.45
-416.35
-477.31
-519.82
-537.24
-529.29
-501.81
-463.87
-423.81
-386.17
-351.24
-316.93
-281.66
-246.11
-213.00
-185.14
-163.23
-144.93
-125.73
-101.27
-69.52
-31.84
7.62
43.96
74.04
97.92
118.91
141.97
171.73
210.62
258.26
311.67
366.05
415.41
453.33
474.08
474.38
455.11
422.03
384.57
352.59
332.49
324.53
322.99
319.26
306.35
282.20
250.26
216.87
187.25
162.56
139.74
114.10
83.04
48.58
16.73
-5.76
-15.64
-16.00
-15.53
-24.54
-49.66
-90.27
-138.44
-182.56
-212.57
-224.18
-220.01
-207.46
-194.81
-187.88
-188.39
-194.43
-202.16
-207.57
-207.33
-199.05
-181.34
-154.08
-118.97
-79.74
-41.80
-10.91
8.53
14.87
9.78
-2.38
-16.35
-27.89
-35.17
-38.86
-41.17
-44.35
-49.58
-56.80
-65.26
-74.25
-83.27
-91.61
-97.67
-98.89
-92.48
-76.73
-52.16
-21.54
11.18
42.51
70.84
96.68
121.78
147.89
175.68
204.45
232.84
259.71
284.89
309.41
335.25
364.81
399.86
440.46
483.94
524.90
556.25
571.43
566.78
542.89
504.20
457.18
407.82
359.94
315.02
273.08
234.11
198.65
167.47
140.68
117.00
94.00
69.01
40.41
8.34
-25.40
-58.13
-87.80
-114.20
-139.29
-166.45
-198.66
-236.56
-277.60
-316.38
-346.48
-362.63
-362.30
-346.26
-317.79
-281.80
-244.03
-210.71
-187.68
-178.91
-184.52
-199.72
-215.78
-223.10
-215.29
-191.92
-158.35
-122.79
-92.41
-70.66
-57.16
-49.64
-46.22
-46.61
-51.33
-60.11
-70.86
-80.25
-85.37
-85.23
-81.44
-77.28
-75.97
-79.01
-85.44
-92.47
-96.75
-95.83
-88.96
-77.13
-62.42
-46.99
-32.37
-19.14
-7.32
3.20
12.22
19.20
23.50
24.78
23.10
18.92
12.81
5.36
-2.87
-11.34
-19.47
-26.78
-32.91
-37.77
-41.54
-44.63
-47.64
-51.26
-56.16
-62.76
-71.01
-80.39
-90.07
-99.24
-107.45
-114.69
-121.15
-126.90
-131.60
-134.43
-134.42
-130.68
-122.75
-110.78
-95.41
-77.44
-57.51
-35.62
-10.94
17.88
51.76
90.19
130.66
169.04
200.82
222.71
233.71
235.22
230.17
221.82
212.73
204.34
196.82
189.37
180.40
168.07
150.84
128.18
100.98
71.34
41.89
14.87
-8.51
-27.91
-43.51
-55.51
-64.01
-69.21
-71.78
-72.85
-73.58
-74.48
-74.94
-73.34
-67.69
-56.64
-40.26
-20.29
0.31
18.28
31.14
37.80
38.67
35.26
29.45
22.98
17.21
13.05
11.11
11.63
14.38
18.54
22.77
25.57
25.71
22.62
16.48
8.09
-1.56
-11.59
-21.45
-30.84
-39.55
-47.28
-53.53
-57.68
-59.10
-57.36
-52.44
-44.76
-35.24
-25.12
-15.74
-8.19
-3.11
-0.50
0.19
-0.13
-0.42
0.20
2.35
6.32
12.15
19.55
27.91
36.21
43.18
47.45
47.92
44.00
35.88
24.41
10.99
-2.80
-15.40
-25.58
-32.53
-35.94
-36.06
-33.56
-29.44
-24.75
-20.32
-16.59
-13.51
-10.75
-7.93
-4.85
-1.65
1.31
3.62
5.03
5.64
5.79
5.87
6.07
6.24
5.95
4.67
2.11
-1.58
-5.80
-9.68
-12.37
-13.39
-12.85
-11.39
-9.94
-9.46
-10.56
-13.30
-17.16
-21.12
-23.89
-24.14
-20.77
-13.19
-1.51
13.36
29.86
46.06
60.12
70.67
77.03
79.23
77.86
73.80
67.99
61.18
53.85
46.10
37.82
28.81
19.08
8.90
-1.12
-10.30
-18.11
-24.35
-29.11
-32.69
-35.33
-37.12
-37.93
-37.41
-35.17
-30.86
-24.32
-15.74
-5.68
4.94
14.88
22.86
27.68
28.44
24.75
16.79
5.37
-8.18
-22.16
-34.81
-44.62
-50.61
-52.48
-50.60
-45.88
-39.41
-32.19
-24.87
-17.69
-10.56
-3.36
3.93
11.11
17.85
23.85
28.96
33.19
36.70
39.63
42.11
44.13
45.61
46.32
45.93
43.98
40.04
33.87
25.69
16.24
6.65
-1.85
-8.26
-12.12
-13.59
-13.31
-12.13
-10.95
-10.45
-11.07
-12.91
-15.73
-18.94
-21.77
-23.46
-23.59
-22.28
-20.20
-18.38
-17.87
-19.36
-23.08
-28.71
-35.57
-42.87
-49.92
-56.45
-62.57
-68.74
-75.40
-82.63
-89.75
-95.33
-97.53
-94.84
-86.81
-74.37
-59.64
-45.22
-33.29
-24.97
-20.23
-18.26
-18.04
-18.76
-20.02
-21.60
-23.22
-24.33
-24.17
-22.07
-17.73
-11.52
-4.38
2.40
7.74
11.15
13.03
14.43
16.59
20.37
25.85
32.34
38.69
43.73
46.63
46.96
44.66
39.98
33.43
25.81
18.16
11.56
6.80
4.08
2.79
1.66
-0.73
-5.42
-12.64
-21.73
-31.50
-40.81
-49.09
-56.50
-63.77
-71.73
-80.86
-91.00
-101.33
-110.53
-117.18
-120.05
-118.51
-112.64
-103.11
-90.72
-76.05
-59.22
-40.16
-19.06
3.33
25.78
46.97
65.85
81.72
94.00
101.90
104.41
100.84
91.40
77.66
62.16
47.60
35.82
27.37
21.63
17.39
13.55
9.42
4.85
0.10
-4.32
-7.84
-9.85
-9.75
-6.87
-0.45
10.09
24.76
42.66
61.63
78.71
91.05
97.05
97.09
93.36
88.75
85.47
84.08
83.43
81.55
76.79
68.76
58.47
47.85
38.91
33.02
30.39
30.13
30.54
29.72
26.07
18.78
7.97
-5.46
-20.25
-35.15
-49.07
-61.02
-70.07
-75.51
-77.08
-75.24
-71.06
-65.86
-60.54
-55.17
-49.15
-41.72
-32.70
-22.82
-13.41
-5.66
0.18
4.99
10.35
17.51
26.51
36.02
43.84
47.83
46.90
41.34
32.63
22.80
13.72
6.56
1.64
-1.33
-2.99
-3.93
-4.47
-4.68
-4.59
-4.41
-4.68
-6.04
-8.91
-13.18
-18.14
-22.87
-26.68
-29.45
-31.55
-33.57
-35.88
-38.50
-41.30
-44.14
-47.12
-50.37
-53.79
-56.99
-59.37
-60.41
-60.02
-58.62
-56.94
-55.74
-55.51
-56.34
-57.91
-59.75
-61.50
-62.93
-64.09
-65.01
-65.68
-65.71
-64.24
-59.85
-50.89
-36.00
-14.69
12.14
42.35
72.83
100.43
122.77
138.93
149.70
157.33
164.88
175.32
190.77
211.90
237.61
265.31
291.50
312.78
326.76
332.67
331.26
324.27
313.48
300.16
284.80
267.36
247.80
226.31
203.33
179.27
154.34
128.53
102.04
75.57
50.46
28.38
10.62
-2.48
-11.70
-18.54
-24.47
-30.27
-35.75
-40.05
-42.30
-42.14
-40.00
-36.86
-33.78
-31.55
-30.37
-30.01
-29.94
-29.54
-28.24
-25.64
-21.54
-16.15
-10.14
-4.81
-1.91
-3.55
-11.83
-28.46
-54.15
-88.32
-128.80
-172.03
-213.59
-249.06
-274.86
-288.70
-289.78
-278.66
-257.11
-227.93
-194.77
-161.90
-133.54
-113.07
-102.27
-100.99
-107.21
-117.73
-128.99
-137.79
-141.88
-140.12
-132.50
-119.88
-103.75
-85.93
-68.19
-51.93
-38.10
-27.15
-19.00
-13.27
-9.41
-6.94
-5.53
-5.13
-5.87
-7.83
-10.84
-14.31
-17.38
-19.32
-19.84
-19.31
-18.66
-18.96
-20.94
-24.81
-30.19
-36.54
-43.36
-50.40
-57.44
-64.00
-69.22
-71.97
-71.28
-66.83
-59.16
-49.51
-39.38
-29.98
-22.00
-15.61
-10.68
-7.12
-4.88
-3.98
-4.30
-5.48
-6.98
-8.28
-9.03
-9.11
-8.67
-7.91
-7.01
-5.99
-4.77
-3.27
-1.48
0.32
1.63
1.67
-0.36
-4.98
-12.07
-20.76
-29.47
-36.36
-39.87
-39.12
-33.90
-24.40
-10.83
6.69
27.86
51.76
76.54
99.60
118.33
130.87
136.76
136.89
133.12
127.60
122.29
118.74
117.99
120.46
125.54
131.42
135.17
133.44
123.69
105.24
79.81
51.17
23.98
2.29
-11.69
-18.00
-18.53
-16.00
-12.77
-10.14
-8.30
-6.69
-4.75
-2.35
0.23
2.49
4.24
5.71
7.49
10.07
13.47
17.12
20.10
21.63
21.47
20.09
18.38
17.21
17.01
17.55
18.16
18.11
17.05
15.20
13.22
11.82
11.38
11.65
11.95
11.41
9.40
5.80
0.95
-4.45
-9.60
-13.82
-16.63
-17.84
-17.55
-16.13
-14.02
-11.61
-9.03
-6.18
-2.87
0.92
4.92
8.56
11.21
12.49
12.46
11.57
10.56
10.09
10.62
12.20
14.55
17.10
19.25
20.59
21.04
20.91
20.78
21.18
22.30
23.85
25.15
25.50
24.59
22.69
20.47
18.69
17.76
17.57
17.69
17.69
17.49
17.31
17.61
18.70
20.72
23.66
27.48
32.05
36.95
41.44
44.57
45.69
44.86
43.00
41.45
41.23
42.53
44.60
46.47
47.56
48.18
49.23
51.41
54.52
57.28
57.84
54.74
47.61
37.48
26.22
15.73
7.23
0.97
-3.67
-7.55
-11.41
-15.45
-19.27
-21.59
-20.20
-12.34
4.26
29.92
61.87
94.35
120.27
133.63
131.77
115.98
90.63
61.21
32.74
8.86
-8.10
-16.82
-16.94
-9.50
2.91
16.51
27.45
33.12
32.79
27.45
18.96
9.13
-0.82
-10.27
-18.88
-26.23
-31.78
-35.03
-35.77
-34.30
-31.43
-28.20
-25.52
-23.85
-23.16
-23.09
-23.26
-23.46
-23.69
-24.00
-24.34
-24.47
-24.12
-23.14
-21.60
-19.82
-18.16
-16.91
-16.14
-15.69
-15.20
-14.22
-12.39
-9.50
-5.64
-1.15
3.47
7.79
11.51
14.62
17.28
19.64
21.70
23.36
24.46
25.00
25.17
25.35
26.00
27.54
30.28
34.40
39.98
46.96
55.11
64.01
73.07
81.78
89.91
97.69
105.73
114.87
125.73
138.48
152.63
167.04
180.10
190.03
195.39
195.57
191.06
183.42
174.85
167.45
162.62
160.72
161.19
162.98
165.07
166.69
167.32
166.51
163.69
158.16
149.34
137.02
121.48
103.49
84.11
64.19
44.32
24.55
4.60
-15.99
-37.62
-60.49
-84.67
-109.91
-135.48
-159.95
-181.20
-196.91
-205.37
-206.29
-201.14
-192.57
-183.39
-175.57
-169.66
-165.06
-160.81
-156.46
-152.39
-149.73
-149.92
-154.33
-164.03
-179.50
-200.30
-224.72
-249.83
-271.99
-287.74
-294.81
-292.55
-281.87
-264.57
-242.71
-218.29
-193.26
-169.57
-148.86
-131.91
-118.18
-105.91
-92.96
-77.86
-60.43
-41.72
-23.10
-5.44
11.27
27.33
42.32
54.39
60.57
58.19
46.56
28.10
8.10
-7.08
-12.49
-6.87
6.65
21.95
32.77
35.38
29.92
19.57
8.39
-0.63
-6.27
-8.44
-7.03
-1.25
9.59
24.76
40.99
53.01
55.70
46.78
28.39
6.63
-11.06
-19.17
-16.40
-5.97
6.13
14.25
15.67
11.62
5.99
2.49
2.10
2.39
-0.74
-10.12
-24.96
-40.84
-51.85
-53.85
-46.72
-34.23
-21.79
-13.51
-10.37
-10.33
-10.19
-7.64
-2.45
3.80
9.01
11.92
12.60
12.25
12.47
14.39
18.24
23.30
28.35
32.23
34.30
34.74
34.33
34.12
34.95
37.12
40.32
43.82
46.84
48.76
49.33
48.56
46.57
43.28
38.27
30.73
19.61
4.01
-16.54
-41.93
-71.61
-104.89
-140.92
-178.22
-214.40
-246.31
-270.88
-286.20
-292.18
-289.96
-280.58
-263.72
-237.51
-199.80
-150.04
-90.56
-26.22
37.13
94.68
143.32
180.88
204.71
211.26
197.38
162.45
109.88
46.62
-19.17
-80.74
-134.22
-178.34
-212.76
-236.77
-249.20
-249.57
-239.35
-222.25
-202.95
-185.18
-170.48
-158.14
-146.69
-135.52
-125.68
-119.49
-119.23
-125.89
-138.54
-154.48
-170.06
-181.80
-187.42
-186.42
-180.16
-171.19
-162.29
-155.21
-149.86
-144.37
-135.99
-122.43
-103.03
-79.07
-53.18
-28.23
-6.48
10.86
23.41
31.23
34.66
34.44
31.85
28.58
26.26
25.85
27.30
29.64
31.60
32.38
32.05
31.59
32.41
35.81
42.50
52.46
65.02
79.09
93.42
106.78
118.11
126.58
131.68
133.33
131.87
128.01
122.65
116.69
110.86
105.58
101.02
97.18
93.92
91.10
88.66
86.58
84.86
83.38
81.77
79.35
75.27
68.76
59.48
47.78
34.79
22.10
11.35
3.76
-0.11
-0.48
2.03
6.70
13.04
20.91
30.29
41.06
52.59
63.69
72.75
78.22
79.24
76.01
69.87
62.76
56.48
51.86
48.58
45.38
40.86
34.32
26.06
17.27
9.44
3.88
1.43
2.33
6.02
10.60
12.57
7.18
-10.25
-42.22
-87.29
-139.62
-190.39
-230.63
-254.19
-259.36
-248.63
-226.89
-199.12
-169.01
-138.71
-109.57
-83.12
-61.35
-46.51
-40.31
-43.04
-53.16
-67.53
-82.23
-93.76
-100.19
-101.60
-99.72
-96.95
-95.15
-94.93
-95.91
-97.65
-100.56
-106.27
-116.85
-133.47
-155.26
-179.06
-200.34
-214.85
-220.11
-216.05
-204.57
-188.48
-170.22
-151.20
-131.80
-111.86
-91.20
-69.99
-48.62
-27.56
-7.04
12.93
32.55
52.00
71.38
90.72
110.02
129.35
148.83
168.64
189.06
210.37
232.94
256.91
281.98
306.99
329.96
348.44
360.31
364.44
361.30
352.54
340.34
326.47
311.79
296.34
280.06
263.65
248.82
237.86
232.47
232.59
236.04
239.11
238.11
230.72
216.86
198.36
177.82
157.42
138.22
120.24
103.14
86.84
71.67
58.04
45.98
34.85
23.57
11.10
-3.03
-18.47
-34.02
-48.11
-59.27
-66.69
-70.58
-72.12
-73.15
-75.35
-79.62
-85.56
-91.52
-95.26
-94.74
-88.92
-78.06
-63.43
-46.70
-29.30
-12.10
4.54
20.31
34.66
46.70
55.52
60.64
62.31
61.51
59.52
57.42
55.63
53.88
51.44
47.58
41.97
34.81
26.79
18.77
11.42
4.96
-0.94
-7.04
-14.20
-22.94
-33.18
-44.04
-54.05
-61.64
-65.61
-65.60
-62.21
-56.82
-51.16
-46.79
-44.69
-44.96
-46.75
-48.53
-48.57
-45.66
-39.56
-31.17
-22.02
-13.55
-6.47
-0.62
4.58
9.37
13.11
14.39
11.68
3.90
-9.13
-26.94
-48.82
-73.91
-100.96
-127.82
-151.44
-168.61
-177.24
-177.55
-172.27
-165.63
-161.39
-161.24
-164.15
-167.17
-167.20
-162.53
-153.56
-142.20
-130.44
-119.13
-107.47
-93.73
-76.38
-55.17
-31.47
-7.65
14.00
32.27
47.40
60.77
74.19
89.25
107.12
128.72
154.85
185.84
220.79
256.86
289.47
313.39
324.49
321.34
305.73
281.79
254.39
227.27
202.17
178.96
156.55
134.01
111.29
89.29
69.53
53.50
42.17
35.57
32.86
32.47
32.78
32.54
31.13
28.53
25.02
20.90
16.38
11.68
6.96
2.44
-1.73
-5.62
-9.41
-13.23
-16.96
-20.11
-22.06
-22.34
-21.03
-19.00
-17.69
-18.75
-23.47
-32.28
-44.48
-58.34
-71.46
-81.45
-86.49
-85.87
-80.12
-70.81
-60.03
-49.75
-41.21
-34.55
-28.85
-22.49
-13.89
-2.16
12.42
28.48
44.08
57.50
67.94
75.65
81.65
87.10
92.78
98.83
105.01
110.97
116.43
121.19
124.97
127.27
127.51
125.32
120.90
114.95
108.42
102.05
96.01
89.95
83.33
75.76
67.24
58.09
48.69
39.34
30.24
21.71
14.37
9.08
6.70
7.66
11.60
17.36
23.17
27.21
28.02
25.02
18.59
9.92
0.62
-7.76
-14.08
-17.76
-18.79
-17.60
-14.78
-10.94
-6.49
-1.56
4.04
10.71
18.86
28.68
40.00
52.21
64.32
75.09
83.22
87.69
88.04
84.72
79.10
73.14
68.68
66.69
66.80
67.46
66.73
63.30
57.12
49.48
42.31
37.21
34.76
34.35
34.63
34.14
31.98
27.94
22.49
16.59
11.46
8.29
7.66
9.03
10.55
9.54
3.47
-8.83
-26.62
-47.46
-68.28
-86.60
-101.45
-113.35
-123.75
-134.22
-145.65
-157.92
-169.89
-179.77
-185.62
-185.98
-180.28
-169.01
-153.39
-134.88
-114.93
-94.89
-76.15
-60.17
-48.21
-40.74
-37.06
-35.37
-33.39
-29.39
-22.82
-14.51
-6.13
0.54
4.36
4.97
2.84
-1.21
-6.25
-11.59
-16.83
-21.73
-26.16
-29.85
-32.50
-33.75
-33.49
-31.94
-29.65
-27.27
-25.16
-23.30
-21.30
-18.66
-15.11
-10.67
-5.51
0.38
7.34
15.84
26.09
37.71
49.70
60.76
69.88
76.84
82.22
87.15
92.73
99.55
107.47
115.84
123.81
130.70
136.32
140.92
144.99
148.97
153.09
157.21
160.84
163.23
163.38
160.10
152.03
138.03
117.48
90.77
59.33
25.51
-8.04
-39.00
-65.86
-88.08
-105.73
-119.20
-128.79
-134.67
-137.04
-136.19
-132.60
-126.84
-119.52
-111.06
-101.75
-91.85
-81.71
-71.75
-62.37
-53.80
-46.00
-38.59
-30.81
-21.55
-9.64
5.74
24.17
43.49
59.86
68.65
65.89
49.56
20.15
-19.81
-66.57
-116.05
-164.18
-206.87
-240.18
-260.95
-267.77
-261.60
-245.64
-224.28
-201.61
-180.14
-160.56
-142.02
-123.27
-103.56
-83.16
-63.29
-45.60
-31.54
-21.75
-15.88
-12.77
-10.80
-8.56
-5.18
-0.60
4.59
9.41
12.85
14.26
13.52
11.10
7.67
3.80
-0.51
-5.66
-12.12
-19.95
-28.49
-36.49
-42.55
-45.71
-45.68
-43.11
-39.14
-35.09
-31.97
-30.02
-28.77
-27.22
-24.44
-20.04
-14.37
-8.27
-2.71
1.54
4.05
4.50
2.77
-0.99
-5.99
-10.59
-12.38
-8.93
1.33
18.40
40.39
64.23
86.62
104.96
117.77
124.51
125.26
120.29
110.13
95.66
78.24
59.46
40.79
23.18
6.93
-7.91
-21.11
-31.97
-39.48
-42.85
-42.03
-37.82
-31.55
-24.61
-18.09
-12.68
-8.73
-6.31
-5.25
-5.03
-4.97
-4.31
-2.53
0.52
4.59
9.12
13.46
17.03
19.52
20.88
21.26
20.93
20.08
18.77
16.96
14.64
11.97
9.27
6.86
4.79
2.74
-0.01
-4.24
-10.39
-18.21
-26.54
-33.45
-36.73
-34.62
-26.61
-14.01
0.04
11.28
15.45
9.67
-6.54
-30.98
-59.27
-85.88
-105.55
-114.47
-111.06
-96.10
-72.38
-43.80
-14.45
12.29
34.31
50.91
62.64
70.89
77.42
83.83
91.23
99.95
109.62
119.41
128.38
135.82
141.33
144.70
145.58
143.51
138.05
129.12
117.34
103.89
90.25
77.64
66.63
57.12
48.63
40.71
33.34
26.82
21.61
17.85
15.23
13.02
10.46
7.14
3.30
-0.28
-2.67
-3.28
-2.20
-0.23
1.55
2.21
1.36
-0.83
-3.97
-7.79
-12.42
-18.18
-25.31
-33.62
-42.51
-51.18
-59.04
-65.87
-71.75
-76.71
-80.36
-81.97
-80.73
-76.36
-69.39
-61.08
-52.96
-46.25
-41.50
-38.58
-36.96
-36.11
-35.65
-35.46
-35.49
-35.74
-36.11
-36.30
-35.75
-33.74
-29.57
-22.88
-13.99
-3.96
5.70
13.54
18.80
21.63
22.97
24.12
26.13
29.41
33.68
38.15
41.95
44.44
45.47
45.41
44.94
44.74
45.27
46.52
48.19
49.81
51.01
51.80
52.49
53.60
55.56
58.49
62.13
65.92
69.21
71.43
72.28
71.64
69.47
65.70
60.17
52.84
43.85
33.78
23.48
13.84
5.45
-1.56
-7.59
-13.37
-19.72
-27.33
-36.62
-47.67
-60.09
-72.95
-84.71
-93.49
-97.57
-95.99
-88.93
-77.80
-64.82
-52.32
-42.07
-34.84
-30.40
-27.73
-25.48
-22.53
-18.28
-12.88
-7.08
-1.97
1.48
2.74
1.88
-0.59
-4.02
-7.85
-11.68
-15.25
-18.28
-20.48
-21.67
-22.01
-22.07
-22.74
-24.80
-28.63
-33.93
-39.93
-45.71
-50.72
-54.97
-58.85
-62.55
-65.74
-67.43
-66.45
-62.09
-54.65
-45.45
-36.25
-28.47
-22.57
-18.00
-13.59
-8.19
-1.16
7.53
17.55
28.46
39.76
50.81
60.63
67.94
71.38
69.92
63.34
52.33
38.38
23.42
9.29
-2.63
-11.64
-17.71
-21.37
-23.31
-24.27
-24.75
-25.03
-25.23
-25.39
-25.60
-25.96
-26.46
-26.89
-26.86
-25.91
-23.75
-20.38
-16.12
-11.45
-6.76
-2.13
2.60
7.67
13.09
18.47
23.05
26.01
26.78
25.29
22.01
17.70
13.11
8.77
4.83
1.19
-2.29
-5.62
-8.64
-11.08
-12.74
-13.66
-14.15
-14.66
-15.62
-17.12
-18.91
-20.44
-21.15
-20.74
-19.27
-17.14
-14.78
-12.42
-9.94
-7.00
-3.23
1.40
6.50
11.32
15.03
17.06
17.25
15.88
13.47
10.57
7.61
4.91
2.74
1.39
1.11
2.00
3.96
6.52
8.96
10.55
10.76
9.48
7.03
4.02
1.01
-1.72
-4.26
-6.92
-9.87
-12.88
-15.29
-16.17
-14.77
-10.88
-4.90
2.32
9.87
17.08
23.65
29.44
34.31
37.90
39.75
39.45
36.99
32.82
27.70
22.40
17.40
12.74
8.07
3.06
-2.28
-7.42
-11.45
-13.51
-13.26
-11.10
-8.12
-5.68
-4.85
-6.07
-9.12
-13.29
-17.77
-21.91
-25.31
-27.72
-28.88
-28.37
-25.74
-20.58
-12.79
-2.64
9.07
21.15
32.25
41.12
46.93
49.44
48.96
46.16
41.78
36.41
30.39
23.94
17.33
10.96
5.41
1.21
-1.35
-2.30
-1.94
-0.69
1.06
2.96
4.59
5.40
4.68
1.79
-3.58
-11.10
-19.78
-28.23
-35.07
-39.40
-41.04
-40.42
-38.22
-34.98
-30.90
-25.86
-19.69
-12.41
-4.38
3.73
11.21
17.45
22.10
24.99
26.10
25.48
23.26
19.72
15.27
10.47
5.94
2.20
-0.33
-1.52
-1.47
-0.61
0.51
1.27
1.21
0.12
-2.01
-4.99
-8.61
-12.60
-16.58
-20.05
-22.30
-22.71
-20.89
-16.96
-11.54
-5.61
-0.12
4.19
7.00
8.26
8.04
6.36
3.27
-1.05
-6.10
-11.01
-14.75
-16.42
-15.60
-12.54
-8.05
-3.31
0.58
2.86
3.33
2.23
0.13
-2.39
-4.91
-7.35
-9.85
-12.69
-16.00
-19.68
-23.27
-26.11
-27.54
-27.28
-25.64
-23.54
-22.13
-22.30
-24.19
-27.15
-30.08
-31.88
-31.92
-30.07
-26.51
-21.40
-14.89
-7.21
1.03
8.79
14.89
18.44
19.22
17.72
14.83
11.40
7.92
4.59
1.46
-1.29
-3.35
-4.36
-4.12
-2.76
-0.76
1.14
2.27
2.28
1.33
0.05
-0.78
-0.55
0.84
3.00
5.36
7.48
9.31
11.13
13.28
15.83
18.50
20.71
21.87
21.63
19.98
17.22
13.82
10.29
7.00
4.12
1.58
-0.92
-3.78
-7.39
-11.90
-17.22
-22.97
-28.54
-33.29
-36.66
-38.39
-38.60
-37.82
-36.76
-36.06
-35.93
-35.99
-35.41
-33.20
-28.71
-21.92
-13.48
-4.39
4.34
12.03
18.48
23.82
28.33
32.20
35.44
37.99
39.87
41.30
42.67
44.43
46.81
49.62
52.33
54.24
54.92
54.43
53.28
52.12
51.21
50.28
48.62
45.58
41.12
35.95
31.26
28.11
26.93
27.36
28.55
29.70
30.45
31.00
31.87
33.48
35.93
38.97
42.20
45.33
48.32
51.29
54.36
57.46
60.34
62.74
64.63
66.27
68.02
69.97
71.65
72.06
70.03
64.81
56.49
45.94
34.44
23.01
12.10
1.60
-8.83
-19.34
-29.71
-39.49
-48.22
-55.73
-62.11
-67.51
-71.97
-75.25
-76.97
-76.75
-74.48
-70.40
-65.07
-59.20
-53.45
-48.30
-43.94
-40.33
-37.31
-34.80
-32.80
-31.44
-30.82
-30.89
-31.47
-32.25
-33.00
-33.58
-33.96
-34.10
-33.89
-33.14
-31.78
-29.91
-27.76
-25.51
-23.05
-19.98
-15.78
-10.22
-3.55
3.48
9.97
15.23
19.11
21.99
24.55
27.44
30.91
34.69
38.02
39.91
39.50
36.35
30.58
22.83
13.86
4.29
-5.50
-15.17
-24.27
-32.02
-37.66
-40.88
-42.27
-43.22
-45.29
-49.49
-55.61
-62.24
-67.39
-69.27
-67.06
-61.11
-52.66
-43.38
-34.82
-28.05
-23.61
-21.43
-20.99
-21.36
-21.45
-20.22
-17.01
-11.79
-5.28
1.24
6.36
9.10
9.36
7.93
6.19
5.45
6.41
8.93
12.18
15.17
17.22
18.11
18.07
17.48
16.56
15.41
13.98
12.26
10.36
8.52
7.01
6.01
5.59
5.65
6.02
6.47
6.76
6.64
5.94
4.60
2.70
0.53
-1.48
-2.88
-3.33
-2.73
-1.24
0.83
3.13
5.40
7.56
9.65
11.72
13.70
15.36
16.39
16.53
15.73
14.22
12.38
10.57
9.03
7.77
6.69
5.66
4.63
3.59
2.55
1.47
0.33
-0.86
-2.07
-3.34
-4.76
-6.52
-8.69
-11.24
-13.99
-16.79
-19.69
-22.94
-26.81
-31.28
-35.79
-39.25
-40.26
-37.65
-30.88
-20.37
-7.40
6.09
17.97
26.25
29.53
27.20
19.75
8.82
-2.90
-12.18
-16.20
-13.67
-5.52
5.17
14.30
18.42
16.19
8.84
-0.62
-8.96
-14.22
-16.27
-16.53
-16.85
-18.58
-22.07
-26.94
-32.55
-38.45
-44.50
-50.65
-56.64
-61.90
-65.61
-66.96
-65.42
-61.02
-54.22
-45.71
-36.02
-25.17
-12.75
1.66
17.96
35.08
51.07
63.75
71.39
73.41
70.49
64.25
56.62
49.21
42.98
38.13
34.36
31.08
27.80
24.39
21.27
19.29
19.33
21.79
26.28
31.60
36.12
38.39
37.53
33.41
26.66
18.54
10.95
6.43
7.71
16.96
34.77
59.55
87.72
114.78
136.75
151.34
158.22
158.43
153.36
144.06
131.20
115.39
97.67
79.38
61.80
45.74
31.31
18.24
6.24
-4.86
-15.18
-24.96
-34.62
-44.49
-54.31
-63.20
-69.93
-73.59
-74.17
-72.61
-70.24
-68.03
-66.01
-63.24
-58.48
-50.91
-40.58
-28.38
-15.49
-2.90
8.82
19.35
28.27
34.93
38.65
39.14
36.80
32.43
26.57
18.87
8.05
-7.31
-27.48
-50.52
-72.44
-88.59
-95.72
-93.63
-85.29
-75.59
-69.10
-68.31
-73.06
-81.22
-90.15
-97.85
-103.32
-106.22
-106.18
-102.49
-94.36
-81.57
-64.96
-46.47
-28.54
-13.17
-1.30
7.31
13.54
18.06
20.82
21.06
17.91
11.14
1.64
-8.95
-18.93
-27.38
-34.50
-41.21
-48.52
-56.88
-66.06
-75.40
-84.23
-92.05
-98.43
-102.82
-104.46
-102.78
-97.67
-89.75
-79.96
-68.96
-56.54
-41.57
-22.57
1.41
30.04
61.58
93.26
121.99
145.01
160.42
167.31
165.72
156.46
140.95
121.03
98.64
75.71
53.92
34.68
18.98
7.26
-0.78
-6.11
-10.02
-13.63
-17.36
-20.77
-22.88
-22.71
-19.88
-14.71
-8.09
-1.06
5.56
11.33
16.16
20.15
23.49
26.37
28.88
30.90
32.13
32.21
30.95
28.50
25.36
22.14
19.35
17.17
15.46
13.93
12.35
10.67
9.05
7.69
6.81
6.46
6.64
7.34
8.69
10.90
14.19
18.65
24.09
30.11
36.33
42.46
48.36
53.73
57.88
59.74
58.24
53.06
45.02
36.00
28.19
23.18
21.34
21.81
23.22
24.45
25.20
25.98
27.54
30.28
33.79
36.98
38.48
37.26
32.97
26.00
17.24
7.80
-1.29
-9.13
-15.02
-18.56
-19.82
-19.41
-18.34
-17.54
-17.53
-18.13
-18.75
-18.79
-18.02
-16.68
-15.25
-14.07
-13.17
-12.29
-11.19
-9.87
-8.51
-7.40
-6.76
-6.66
-7.18
-8.46
-10.81
-14.49
-19.57
-25.81
-32.68
-39.46
-45.37
-49.68
-51.88
-51.78
-49.56
-45.83
-41.38
-36.98
-33.05
-29.68
-26.64
-23.70
-20.77
-17.95
-15.34
-12.92
-10.59
-8.28
-6.20
-4.87
-4.89
-6.62
-9.97
-14.33
-18.92
-23.03
-26.34
-28.80
-30.43
-31.14
-30.75
-29.21
-26.77
-24.09
-21.97
-20.98
-21.07
-21.62
-21.74
-20.73
-18.50
-15.48
-12.36
-9.51
-6.76
-3.39
1.42
8.15
16.56
25.74
34.43
41.43
46.01
48.03
47.76
45.66
42.07
37.12
30.81
23.22
14.70
6.06
-1.64
-7.39
-10.61
-11.35
-10.30
-8.45
-6.73
-5.71
-5.50
-5.83
-6.34
-6.68
-6.69
-6.32
-5.51
-4.18
-2.23
0.27
2.99
5.41
7.07
7.93
8.56
10.04
13.52
19.62
28.04
37.48
46.14
52.34
55.18
54.75
51.99
48.18
44.45
41.43
39.20
37.46
35.74
33.66
30.99
27.71
23.87
19.54
14.75
9.50
3.82
-2.17
-8.26
-14.14
-19.50
-24.01
-27.43
-29.59
-30.43
-29.98
-28.41
-26.01
-23.22
-20.51
-18.36
-17.15
-17.07
-18.10
-19.99
-22.31
-24.54
-26.19
-26.95
-26.70
-25.56
-23.74
-21.49
-19.00
-16.36
-13.67
-11.16
-9.19
-8.22
-8.68
-10.70
-14.00
-17.92
-21.55
-24.09
-24.97
-24.09
-21.71
-18.39
-14.78
-11.51
-9.07
-7.68
-7.34
-7.76
-8.44
-8.81
-8.38
-6.88
-4.37
-1.19
2.16
5.13
7.39
8.85
9.69
10.24
10.79
11.53
12.38
13.18
13.66
13.66
13.12
12.12
10.79
9.28
7.67
6.08
4.64
3.49
2.80
2.63
2.92
3.48
3.99
4.23
4.08
3.61
3.01
2.54
2.35
2.47
2.77
2.95
2.71
1.86
0.43
-1.33
-3.02
-4.26
-4.83
-4.68
-3.90
-2.59
-0.80
1.45
4.14
7.16
10.24
12.99
15.01
15.89
15.37
13.36
10.04
5.86
1.48
-2.40
-5.26
-6.96
-7.77
-8.22
-8.87
-10.00
-11.40
-12.48
-12.44
-10.69
-7.16
-2.41
2.52
6.43
8.44
8.24
6.19
3.07
-0.12
-2.59
-3.88
-3.90
-2.85
-1.13
0.79
2.42
3.41
3.71
3.64
3.79
4.80
7.01
10.27
13.98
17.37
19.88
21.37
22.16
22.75
23.58
24.74
26.03
27.04
27.46
27.19
26.48
25.67
25.06
24.65
24.01
22.48
19.48
14.74
8.58
1.73
-5.08
-11.49
-17.67
-24.05
-30.89
-37.84
-43.98
-48.18
-49.66
-48.43
-45.37
-41.78
-38.89
-37.31
-36.91
-37.00
-36.83
-36.01
-34.72
-33.53
-33.05
-33.59
-34.94
-36.54
-37.74
-38.19
-38.03
-37.60
-37.20
-36.78
-35.95
-34.26
-31.65
-28.61
-25.99
-24.50
-24.18
-24.23
-23.24
-19.87
-13.50
-4.54
5.65
15.45
23.59
29.61
33.81
36.82
39.09
40.69
41.40
41.07
39.84
38.20
36.67
35.47
34.47
33.27
31.55
29.35
27.03
25.05
23.73
23.02
22.61
22.06
21.09
19.61
17.75
15.61
13.15
10.11
6.09
0.83
-5.59
-12.59
-19.14
-24.09
-26.52
-26.17
-23.46
-19.48
-15.53
-12.77
-11.89
-12.93
-15.36
-18.35
-21.03
-22.70
-23.00
-21.88
-19.55
-16.49
-13.32
-10.80
-9.62
-10.22
-12.50
-15.78
-18.96
-20.74
-20.11
-16.64
-10.74
-3.67
2.69
6.38
6.03
1.46
-6.09
-14.32
-20.62
-23.02
-20.86
-14.93
-7.04
0.60
6.17
8.53
7.34
2.89
-4.05
-12.36
-20.70
-27.61
-31.81
-32.36
-29.04
-22.46
-13.98
-5.30
2.03
7.14
10.11
11.78
13.33
15.75
19.45
24.33
29.90
35.65
41.23
46.50
51.58
56.78
62.55
69.43
77.76
87.43
97.72
107.39
115.23
120.51
123.41
124.87
126.10
127.98
130.73
133.98
137.09
139.47
140.72
140.40
137.84
132.07
122.10
107.27
87.57
63.77
37.27
9.94
-16.14
-38.96
-56.94
-69.32
-76.37
-79.24
-79.41
-77.93
-74.93
-69.65
-61.01
-48.43
-32.45
-14.81
2.07
15.98
25.66
31.16
33.56
34.34
34.62
34.77
34.40
32.87
29.84
25.62
21.10
17.36
15.12
14.53
15.16
16.38
17.70
18.96
20.31
22.07
24.50
27.65
31.24
34.62
36.88
37.02
34.36
28.80
20.97
12.05
3.26
-4.53
-11.17
-17.06
-22.80
-28.71
-34.61
-39.83
-43.52
-45.08
-44.40
-41.91
-38.38
-34.60
-31.12
-28.19
-25.82
-24.04
-23.04
-23.15
-24.75
-28.02
-32.72
-38.20
-43.44
-47.35
-49.06
-48.19
-45.08
-40.68
-36.49
-34.08
-34.69
-38.75
-45.55
-53.36
-59.89
-63.02
-61.69
-56.22
-48.16
-39.54
-31.91
-25.78
-20.57
-15.26
-9.12
-2.27
4.38
9.74
13.18
14.95
15.95
17.21
19.17
21.35
22.63
21.75
18.10
12.10
5.13
-1.10
-5.27
-6.98
-6.90
-6.26
-6.12
-6.89
-8.17
-9.05
-8.87
-7.65
-6.28
-6.09
-8.11
-12.51
-18.39
-24.14
-28.14
-29.42
-28.05
-24.97
-21.38
-18.15
-15.46
-12.88
-9.74
-5.65
-0.81
4.04
7.86
9.71
9.06
5.84
0.39
-6.72
-14.83
-23.28
-31.34
-38.21
-43.17
-45.76
-46.02
-44.61
-42.55
-40.90
-40.23
-40.49
-41.11
-41.49
-41.49
-41.60
-42.75
-45.65
-50.31
-55.76
-60.40
-62.67
-61.61
-57.24
-50.28
-41.74
-32.35
-22.38
-11.88
-1.04
9.40
18.25
24.17
26.33
24.85
20.85
16.13
12.51
11.31
12.96
17.07
22.62
28.29
32.79
35.11
34.66
31.40
25.79
18.65
10.85
3.11
-4.13
-10.68
-16.42
-21.17
-24.64
-26.49
-26.57
-24.99
-22.18
-18.72
-15.15
-11.77
-8.57
-5.39
-2.12
1.08
3.74
5.24
4.99
2.75
-1.29
-6.54
-12.22
-17.48
-21.56
-23.83
-23.89
-21.72
-17.74
-12.85
-8.23
-4.98
-3.78
-4.72
-7.43
-11.37
-16.13
-21.60
-27.83
-34.74
-41.86
-48.31
-52.99
-55.00
-53.98
-50.20
-44.39
-37.29
-29.26
-20.26
-9.99
1.52
13.52
24.51
32.58
36.18
34.89
29.68
22.68
16.45
13.13
13.66
17.59
23.31
28.64
31.63
31.12
27.07
20.41
12.57
4.96
-1.52
-6.64
-10.68
-14.04
-16.89
-19.02
-19.95
-19.27
-16.94
-13.43
-9.45
-5.65
-2.24
1.13
5.03
9.89
15.56
21.23
25.67
27.74
26.84
23.17
17.63
11.47
5.94
1.91
-0.29
-0.87
-0.49
-0.01
-0.18
-1.29
-3.03
-4.57
-5.03
-4.05
-2.20
-1.00
-2.28
-7.35
-16.23
-27.48
-38.63
-47.15
-51.36
-50.88
-46.54
-39.69
-31.58
-22.86
-13.63
-3.80
6.43
16.32
24.72
30.46
32.89
32.18
29.29
25.61
22.48
20.80
20.87
22.45
24.91
27.45
29.21
29.45
27.79
24.32
19.67
14.79
10.53
7.31
4.94
2.77
0.09
-3.40
-7.44
-11.31
-14.20
-15.60
-15.46
-14.12
-12.03
-9.47
-6.50
-3.02
1.08
5.62
10.22
14.35
17.55
19.65
20.82
21.43
21.94
22.79
24.32
26.90
30.78
35.93
41.85
47.44
51.27
52.13
49.64
44.56
38.61
33.64
30.73
29.59
28.72
26.15
20.46
11.45
0.03
-12.32
-24.44
-35.89
-46.81
-57.35
-67.08
-74.89
-79.37
-79.54
-75.31
-67.65
-58.10
-48.15
-38.85
-30.74
-24.03
-18.80
-14.92
-11.94
-8.98
-4.95
0.87
8.32
16.26
22.94
26.87
27.51
25.50
22.29
19.41
17.72
17.15
16.92
16.12
14.18
11.13
7.55
4.17
1.53
-0.27
-1.66
-3.29
-5.71
-9.07
-12.93
-16.42
-18.64
-19.03
-17.68
-15.14
-12.15
-9.08
-5.61
-0.88
6.12
15.83
27.73
40.37
51.84
60.53
65.63
67.26
66.07
62.71
57.51
50.62
42.26
33.19
24.60
17.81
13.64
12.08
12.32
13.19
13.79
13.76
13.32
12.93
12.92
13.32
13.98
14.84
16.14
18.31
21.73
26.44
32.02
37.84
43.38
48.51
53.52
58.81
64.56
70.41
75.47
78.70
79.37
77.41
73.48
68.63
63.84
59.54
55.54
51.23
46.04
39.88
33.24
26.94
21.75
17.94
15.20
12.92
10.53
7.87
5.13
2.63
0.52
-1.45
-3.80
-7.08
-11.53
-16.93
-22.70
-28.22
-33.15
-37.58
-41.91
-46.59
-51.81
-57.39
-62.72
-67.02
-69.44
-69.42
-66.84
-62.13
-56.24
-50.41
-45.82
-43.18
-42.46
-42.97
-43.56
-43.19
-41.27
-37.94
-33.95
-30.36
-28.07
-27.42
-28.00
-28.89
-29.02
-27.76
-25.17
-21.98
-19.08
-16.98
-15.48
-13.80
-11.06
-6.96
-1.95
2.81
6.11
7.27
6.52
4.83
3.46
3.34
4.71
7.14
9.82
11.93
12.90
12.52
10.76
7.66
3.23
-2.51
-9.44
-17.24
-25.39
-33.21
-40.03
-45.31
-48.79
-50.61
-51.27
-51.59
-52.41
-54.30
-57.36
-61.13
-64.76
-67.35
-68.24
-67.29
-64.82
-61.44
-57.81
-54.41
-51.48
-49.07
-47.11
-45.53
-44.29
-43.40
-42.84
-42.72
-43.08
-43.78
-44.27
-43.62
-40.83
-35.30
-27.45
-18.69
-11.15
-6.86
-7.02
-11.43
-18.28
-24.52
-26.66
-21.93
-9.32
9.69
31.46
51.38
65.50
72.00
71.61
66.90
60.89
55.78
52.48
51.07
51.55
54.32
59.89
68.22
78.21
87.76
94.38
96.11
92.15
83.20
70.86
56.95
42.70
28.48
13.97
-1.33
-17.82
-35.62
-54.62
-74.52
-94.67
-113.79
-129.94
-140.74
-144.05
-138.99
-126.58
-109.67
-91.95
-76.44
-64.36
-55.12
-47.36
-40.46
-35.32
-33.94
-37.77
-45.89
-54.25
-56.62
-47.00
-22.09
17.30
66.61
119.29
168.55
208.70
235.59
246.73
241.49
221.56
190.96
155.45
121.11
92.73
72.55
60.25
53.71
50.51
48.96
48.43
48.88
50.03
50.92
50.05
46.16
39.07
30.03
21.25
14.90
12.16
12.85
15.75
19.50
23.26
26.93
30.83
35.18
39.74
43.80
46.52
47.18
45.45
41.57
36.49
31.83
29.37
30.35
34.59
40.06
43.34
40.67
29.31
8.31
-21.43
-57.62
-96.96
-135.37
-168.03
-190.12
-198.22
-191.83
-174.25
-151.65
-130.79
-116.25
-108.92
-106.35
-104.74
-101.08
-94.28
-84.66
-72.69
-57.96
-39.38
-16.32
10.07
36.60
58.90
73.48
79.15
77.68
72.73
67.94
65.32
64.49
63.24
58.98
50.11
36.71
20.29
3.08
-12.76
-25.60
-34.43
-38.86
-39.15
-36.22
-31.49
-26.61
-22.91
-21.13
-21.39
-23.54
-27.51
-33.39
-41.35
-51.16
-62.08
-72.95
-82.55
-89.97
-94.82
-97.17
-97.38
-96.02
-93.72
-91.08
-88.61
-86.55
-84.76
-82.73
-79.83
-75.58
-69.91
-63.17
-55.89
-48.43
-40.91
-33.16
-24.98
-16.39
-7.67
0.69
8.26
14.75
20.05
24.11
26.73
27.61
26.48
23.51
19.41
15.43
12.96
13.07
16.22
22.07
29.71
37.86
45.20
50.48
52.70
51.20
45.82
36.95
25.44
12.37
-1.15
-14.13
-25.59
-34.59
-40.18
-41.75
-39.31
-33.74
-26.53
-19.41
-13.65
-9.65
-6.91
-4.58
-1.99
0.87
3.47
5.20
5.86
5.94
6.35
8.01
11.24
15.73
20.67
25.24
29.02
32.14
35.03
38.14
41.64
45.38
49.08
52.40
55.12
56.92
57.33
55.70
51.45
44.43
35.11
24.64
14.42
5.66
-0.97
-5.41
-7.89
-8.76
-8.24
-6.66
-4.64
-3.19
-3.51
-6.48
-12.16
-19.70
-27.56
-34.25
-38.91
-41.65
-43.35
-45.15
-47.74
-51.01
-54.02
-55.52
-54.39
-50.19
-43.23
-34.44
-25.11
-16.49
-9.61
-4.96
-2.47
-1.51
-1.25
-1.03
-0.71
-0.65
-1.31
-2.90
-4.97
-6.70
-7.28
-6.52
-5.00
-3.70
-3.35
-3.76
-3.82
-1.95
3.04
11.24
21.46
31.60
39.53
43.77
44.01
41.01
36.13
30.69
25.50
20.75
16.28
11.84
7.39
3.05
-1.00
-4.72
-8.23
-11.48
-14.18
-15.74
-15.57
-13.50
-10.10
-6.59
-4.44
-4.79
-8.05
-13.78
-21.11
-29.04
-36.84
-44.07
-50.42
-55.55
-59.09
-60.70
-60.25
-57.91
-54.07
-49.26
-44.00
-38.85
-34.40
-31.27
-29.90
-30.38
-32.12
-33.82
-33.80
-30.65
-23.80
-14.02
-3.31
5.81
11.03
11.00
5.73
-3.31
-13.60
-22.03
-25.80
-23.20
-14.18
-0.43
15.02
28.72
37.76
40.47
36.59
27.16
14.08
-0.30
-13.79
-24.81
-32.80
-38.28
-42.40
-46.04
-49.09
-50.24
-47.69
-40.11
-27.35
-10.47
8.88
29.20
49.43
68.62
85.53
98.43
105.54
105.74
99.08
86.63
69.89
49.99
27.51
2.82
-23.17
-48.52
-70.38
-85.82
-92.79
-90.84
-81.24
-66.38
-48.98
-31.28
-14.65
0.39
13.83
25.76
36.11
44.75
51.66
57.05
61.48
65.71
70.49
76.21
82.82
89.69
95.79
99.94
101.13
98.82
93.08
84.56
74.19
62.82
50.93
38.59
25.68
12.28
-1.10
-13.52
-23.89
-31.35
-35.53
-36.50
-34.60
-30.20
-23.51
-14.83
-4.60
6.36
17.04
26.42
33.86
39.19
42.66
44.66
45.53
45.41
44.38
42.54
40.15
37.52
34.95
32.57
30.28
27.88
25.21
22.26
19.19
16.27
13.71
11.49
9.33
6.76
3.31
-1.24
-6.73
-12.57
-17.87
-21.63
-23.08
-21.82
-18.01
-12.17
-5.01
2.89
11.15
19.55
27.90
35.81
42.69
47.94
51.15
52.33
51.85
50.33
48.32
46.13
43.80
41.22
38.28
35.03
31.65
28.42
25.57
23.25
21.41
19.87
18.34
16.52
14.12
10.94
6.83
1.75
-4.19
-10.68
-17.18
-22.95
-27.17
-29.16
-28.56
-25.46
-20.40
-14.23
-7.91
-2.23
2.35
5.76
8.21
9.98
11.21
11.85
11.66
10.46
8.26
5.31
2.09
-0.94
-3.47
-5.42
-6.91
-8.12
-9.21
-10.23
-11.27
-12.44
-13.92
-15.86
-18.30
-21.11
-24.08
-26.99
-29.77
-32.50
-35.28
-38.01
-40.23
-41.17
-39.99
-36.10
-29.53
-20.86
-11.10
-1.21
8.15
16.81
24.86
32.36
39.15
44.79
48.80
50.94
51.36
50.57
49.19
47.70
46.30
44.91
43.33
41.44
39.25
36.95
34.75
32.78
31.06
29.44
27.68
25.57
23.01
19.93
16.35
12.21
7.47
2.14
-3.56
-9.07
-13.60
-16.30
-16.52
-14.06
-9.18
-2.55
5.05
12.86
20.33
27.14
33.11
38.18
42.30
45.42
47.50
48.60
48.84
48.49
47.84
47.16
46.53
45.83
44.85
43.43
41.53
39.28
36.90
34.51
32.10
29.52
26.61
23.34
19.84
16.28
12.76
9.19
5.33
0.96
-3.97
-9.12
-13.82
-17.13
-18.18
-16.45
-11.94
-5.23
2.73
10.92
18.46
24.77
29.60
32.85
34.51
34.74
33.83
32.34
30.93
30.21
30.50
31.80
33.82
36.21
38.71
41.18
43.51
45.55
47.07
47.77
47.36
45.58
42.02
36.07
26.93
13.85
-3.40
-24.16
-46.74
-68.71
-87.53
-101.24
-108.92
-110.69
-107.38
-100.09
-89.80
-77.27
-63.17
-48.01
-32.19
-15.79
1.43
19.81
39.45
59.77
79.32
96.00
107.51
112.01
108.63
97.74
80.94
60.61
39.36
19.55
2.92
-9.47
-17.20
-20.55
-20.55
-19.01
-18.20
-20.16
-25.89
-34.79
-44.67
-52.70
-56.55
-55.49
-50.57
-44.01
-38.18
-34.62
-33.60
-34.35
-35.65
-36.36
-35.77
-33.64
-30.02
-25.08
-19.22
-13.21
-8.28
-6.02
-7.87
-14.44
-25.02
-37.48
-48.83
-56.24
-58.10
-54.58
-47.37
-38.87
-31.14
-25.12
-20.58
-16.47
-11.72
-5.76
1.19
8.32
14.69
19.73
23.34
25.81
27.51
28.59
29.05
28.84
28.10
27.17
26.48
26.32
26.65
27.20
27.67
27.89
27.79
27.10
25.23
21.41
15.03
6.03
-4.99
-17.03
-29.08
-40.45
-50.74
-59.61
-66.68
-71.47
-73.64
-73.10
-69.96
-64.46
-56.90
-47.89
-38.68
-31.17
-27.47
-28.98
-35.64
-45.65
-56.18
-64.43
-68.60
-68.32
-64.26
-57.48
-48.76
-38.52
-26.74
-13.30
1.98
19.13
37.94
57.60
76.60
92.81
103.99
108.48
105.74
96.40
82.06
64.74
46.42
28.85
13.41
1.19
-7.16
-11.55
-12.63
-11.69
-10.30
-9.75
-10.45
-11.87
-12.86
-12.38
-10.14
-6.80
-3.56
-1.43
-0.61
-0.35
0.58
3.24
8.00
14.46
21.72
28.75
34.66
38.87
41.14
41.63
40.90
39.68
38.58
37.81
37.08
35.96
34.22
32.12
30.42
30.15
32.16
36.92
44.21
53.12
61.91
68.27
69.83
64.93
53.45
37.12
19.18
3.37
-7.31
-11.44
-9.36
-2.70
6.40
15.78
23.44
27.53
26.44
19.23
6.25
-10.58
-28.12
-43.06
-53.14
-58.07
-59.44
-59.86
-61.57
-65.50
-71.07
-76.73
-80.94
-82.79
-82.03
-78.74
-72.89
-64.30
-53.00
-39.57
-25.36
-12.09
-1.24
6.56
11.73
15.41
18.74
22.14
25.10
26.42
24.98
20.47
13.92
7.50
3.84
5.03
11.88
23.58
38.07
52.64
64.66
72.10
73.94
70.43
63.15
54.77
48.34
46.20
48.98
55.09
61.15
63.29
58.68
46.53
28.24
6.48
-15.98
-37.32
-56.84
-74.59
-90.67
-104.68
-115.67
-122.60
-124.86
-122.75
-117.44
-110.51
-103.23
-96.19
-89.19
-81.60
-73.00
-63.61
-54.38
-46.59
-41.26
-38.69
-38.32
-38.86
-38.75
-36.59
-31.49
-23.35
-12.91
-1.62
8.69
16.24
19.82
19.16
14.91
8.40
1.23
-5.20
-9.90
-12.42
-12.81
-11.52
-9.36
-7.32
-6.26
-6.62
-8.16
-10.01
-10.90
-9.54
-5.07
2.62
12.82
24.11
34.53
41.97
44.48
40.77
30.49
14.52
-5.24
-26.20
-45.58
-60.87
-70.09
-72.00
-66.23
-53.57
-36.07
-16.75
1.12
14.86
23.09
26.02
24.98
21.69
17.55
13.28
9.02
4.78
0.68
-2.91
-5.58
-7.00
-7.02
-5.59
-2.57
2.36
9.56
19.31
31.53
45.72
60.99
76.17
89.91
100.76
107.34
108.58
104.27
95.29
83.51
71.14
59.96
50.79
43.52
37.80
33.58
31.35
31.69
34.73
39.79
45.71
51.53
56.94
62.26
67.81
73.20
77.22
78.31
75.53
69.08
60.19
50.49
41.17
32.57
24.24
15.42
5.62
-5.09
-16.17
-26.81
-36.17
-43.74
-49.44
-53.61
-56.77
-59.18
-60.71
-60.73
-58.51
-53.66
-46.52
-38.09
-29.61
-22.05
-15.82
-10.81
-6.78
-3.61
-1.48
-0.68
-1.41
-3.53
-6.56
-9.77
-12.45
-14.02
-14.15
-12.74
-9.88
-5.71
-0.43
5.70
12.24
18.53
23.60
26.30
25.56
20.86
12.37
1.02
-11.75
-24.38
-35.49
-44.18
-49.92
-52.41
-51.35
-46.37
-37.17
-23.88
-7.50
10.10
26.36
38.71
45.24
45.27
39.42
29.28
16.92
4.18
-7.62
-17.79
-26.04
-32.19
-35.87
-36.62
-33.95
-27.89
-19.22
-9.50
-0.73
5.31
7.66
6.44
2.49
-3.19
-10.01
-17.90
-26.95
-36.90
-46.86
-55.44
-61.28
-63.62
-62.43
-58.27
-51.83
-43.59
-33.76
-22.49
-10.21
2.28
13.83
23.27
29.76
33.03
33.35
31.23
27.14
21.29
13.69
4.49
-5.73
-15.93
-24.91
-31.71
-36.11
-38.53
-39.70
-40.13
-39.88
-38.55
-35.78
-31.60
-26.59
-21.71
-17.86
-15.63
-15.07
-15.76
-16.93
-17.63
-17.03
-14.70
-10.88
-6.51
-2.92
-1.25
-1.87
-4.15
-6.84
-8.68
-9.20
-8.92
-8.89
-9.99
-12.22
-14.66
-16.01
-15.39
-12.82
-9.23
-5.85
-3.43
-1.94
-0.63
1.43
4.76
9.16
13.85
17.89
20.60
21.86
22.06
21.77
21.54
21.66
22.23
23.27
24.95
27.47
30.93
35.05
39.07
41.96
42.75
40.98
36.85
31.04
24.38
17.52
10.85
4.60
-1.01
-5.70
-9.25
-11.72
-13.47
-15.05
-16.86
-18.85
-20.55
-21.24
-20.36
-17.77
-13.75
-8.94
-3.99
0.61
4.64
8.01
10.74
12.76
13.96
14.19
13.33
11.36
8.42
4.81
1.08
-2.14
-4.20
-4.72
-3.70
-1.55
1.09
3.59
5.63
7.23
8.70
10.42
12.64
15.37
18.40
21.44
24.29
27.03
30.07
34.17
40.12
48.39
58.76
70.15
80.73
88.28
90.72
86.61
75.47
58.12
36.73
14.82
-3.28
-13.39
-12.68
-0.74
19.89
44.15
65.63
78.34
78.40
65.11
40.96
10.63
-20.67
-48.84
-71.81
-89.34
-102.20
-111.07
-115.86
-116.00
-111.16
-101.97
-90.14
-77.87
-66.89
-58.01
-51.22
-46.37
-43.61
-43.39
-45.93
-50.65
-56.23
-61.09
-64.28
-65.82
-66.53
-67.18
-67.87
-67.82
-65.87
-61.27
-54.29
-46.14
-38.42
-32.38
-28.46
-26.21
-24.71
-22.96
-20.28
-16.36
-11.13
-4.54
3.67
13.81
26.08
40.12
54.90
68.90
80.70
89.48
95.31
99.04
101.71
104.06
106.15
107.46
107.28
105.15
101.12
95.82
90.19
85.20
81.51
79.31
78.35
78.06
77.81
77.14
75.87
74.10
72.09
70.11
68.29
66.53
64.52
61.76
57.67
51.75
43.68
33.45
21.46
8.41
-4.82
-17.37
-28.59
-38.15
-46.00
-52.35
-57.51
-61.75
-65.19
-67.81
-69.43
-69.89
-69.12
-67.19
-64.29
-60.56
-56.05
-50.76
-44.76
-38.35
-32.06
-26.49
-22.12
-19.11
-17.37
-16.66
-16.65
-17.05
-17.58
-18.06
-18.58
-19.58
-21.68
-25.42
-30.83
-37.19
-43.33
-48.13
-51.13
-52.74
-54.02
-56.02
-59.18
-63.04
-66.48
-68.30
-67.75
-64.75
-59.85
-53.82
-47.28
-40.50
-33.47
-26.13
-18.62
-11.40
-5.11
-0.30
2.83
4.56
5.50
6.30
7.26
8.25
8.70
7.94
5.61
1.74
-3.19
-8.56
-13.86
-18.91
-23.75
-28.50
-33.12
-37.40
-41.10
-44.10
-46.54
-48.66
-50.66
-52.47
-53.71
-53.85
-52.41
-49.20
-44.28
-37.92
-30.38
-21.93
-12.78
-3.26
6.21
15.03
22.52
28.11
31.43
32.44
31.47
29.22
26.71
25.07
25.34
28.06
33.17
39.98
47.52
55.01
62.21
69.21
76.17
82.69
87.72
89.81
87.81
81.49
71.67
59.93
47.87
36.60
26.49
17.45
9.29
1.94
-4.54
-10.16
-15.14
-19.89
-24.75
-29.89
-35.14
-40.16
-44.61
-48.27
-51.05
-52.85
-53.45
-52.45
-49.53
-44.65
-38.25
-31.31
-25.04
-20.56
-18.47
-18.71
-20.62
-23.26
-25.75
-27.58
-28.65
-29.20
-29.59
-30.09
-30.72
-31.30
-31.55
-31.23
-30.18
-28.38
-25.96
-23.28
-20.99
-19.97
-21.07
-24.77
-30.81
-38.15
-45.12
-49.84
-50.66
-46.53
-37.22
-23.35
-6.34
11.90
29.35
44.38
56.15
64.80
71.24
76.69
82.06
87.67
93.26
98.30
102.42
105.61
108.10
110.06
111.25
110.97
108.35
102.90
94.95
85.67
76.57
68.75
62.37
56.57
50.05
41.74
31.40
19.57
7.28
-4.54
-15.36
-25.04
-33.64
-41.12
-47.25
-51.73
-54.40
-55.44
-55.35
-54.91
-54.87
-55.70
-57.41
-59.43
-60.84
-60.66
-58.25
-53.57
-47.18
-39.99
-32.88
-26.41
-20.68
-15.44
-10.32
-5.16
-0.10
4.43
7.97
10.23
11.25
11.40
11.15
10.81
10.40
9.68
8.38
6.42
4.11
1.97
0.51
-0.12
-0.33
-1.07
-3.50
-8.59
-16.68
-27.22
-38.78
-49.34
-56.85
-59.66
-56.93
-48.73
-36.04
-20.51
-4.32
10.17
20.86
26.36
26.41
21.90
14.59
6.56
-0.35
-4.93
-6.74
-6.10
-3.84
-1.06
1.24
2.53
2.83
2.57
2.27
2.12
1.94
1.41
0.46
-0.48
-0.72
0.12
1.72
3.10
3.21
1.56
-1.47
-4.86
-7.54
-8.90
-8.97
-8.16
-6.80
-4.93
-2.25
1.57
6.57
12.43
18.50
24.14
28.91
32.65
35.43
37.45
38.86
39.82
40.54
41.46
43.19
46.31
50.92
56.28
60.66
61.64
56.88
45.11
26.72
3.82
-20.35
-42.42
-59.86
-71.57
-77.77
-79.64
-78.49
-75.41
-71.08
-65.95
-60.52
-55.41
-51.16
-47.83
-44.74
-40.66
-34.30
-24.90
-12.72
1.04
14.80
27.29
38.06
47.31
55.41
62.22
66.74
67.42
62.87
52.63
37.62
19.83
1.73
-14.56
-27.78
-37.43
-43.38
-45.47
-43.37
-36.98
-26.89
-14.51
-1.79
9.45
18.12
24.03
27.65
29.53
29.99
29.11
26.94
23.78
20.17
16.63
13.45
10.68
8.38
6.88
6.84
8.86
12.98
18.22
22.84
24.92
23.23
17.83
10.13
2.30
-3.58
-6.25
-5.50
-1.86
3.89
11.16
19.74
29.53
40.22
51.11
61.14
69.12
74.06
75.66
74.36
71.36
68.22
66.36
66.50
68.37
70.74
71.81
69.82
63.67
53.23
39.37
23.67
8.02
-5.80
-16.52
-23.59
-27.30
-28.64
-28.94
-29.45
-30.90
-33.26
-35.87
-37.71
-37.86
-35.83
-31.78
-26.42
-20.77
-15.88
-12.58
-11.35
-12.28
-15.14
-19.42
-24.52
-29.80
-34.70
-38.76
-41.73
-43.63
-44.84
-46.08
-48.04
-50.92
-54.11
-56.25
-55.85
-52.01
-45.05
-36.28
-27.39
-19.57
-13.04
-7.22
-1.51
4.11
8.88
11.79
12.36
11.16
9.66
9.44
11.45
15.56
20.85
26.20
30.95
35.11
39.22
43.90
49.43
55.65
61.99
67.82
72.73
76.61
79.65
82.17
84.42
86.43
87.94
88.50
87.60
84.87
80.14
73.46
65.24
56.38
48.64
44.66
47.59
60.11
83.14
114.91
150.90
184.93
210.95
224.72
224.55
211.15
186.79
154.64
118.54
82.98
52.77
32.12
23.23
25.35
34.80
46.28
54.73
56.97
52.30
42.05
28.48
13.77
-0.50
-13.35
-24.18
-32.59
-38.36
-41.60
-42.76
-42.67
-42.40
-42.99
-45.16
-49.17
-54.76
-61.47
-68.87
-76.86
-85.60
-95.19
-105.32
-115.21
-123.92
-130.73
-135.49
-138.42
-139.75
-139.27
-136.35
-130.38
-121.37
-110.18
-98.28
-87.14
-77.66
-69.94
-63.61
-58.23
-53.57
-49.55
-45.99
-42.46
-38.42
-33.57
-28.08
-22.61
-17.93
-14.56
-12.55
-11.46
-10.73
-9.88
-8.68
-7.24
-5.84
-4.85
-4.63
-5.41
-7.26
-10.15
-13.94
-18.41
-23.33
-28.38
-33.20
-37.45
-40.83
-43.26
-44.80
-45.64
-45.98
-45.91
-45.39
-44.35
-42.73
-40.56
-37.93
-34.95
-31.73
-28.39
-25.03
-21.72
-18.48
-15.21
-11.79
-8.13
-4.24
-0.22
3.86
7.98
12.23
16.71
21.37
26.01
30.36
34.32
38.07
42.08
46.88
52.77
59.59
66.69
73.13
78.00
80.65
80.82
78.63
74.43
68.56
61.20
52.28
41.53
28.68
13.67
-3.11
-20.84
-38.35
-54.40
-67.88
-78.05
-84.50
-87.23
-86.54
-83.03
-77.53
-71.02
-64.40
-58.33
-53.09
-48.62
-44.56
-40.53
-36.18
-31.24
-25.57
-18.97
-11.28
-2.34
7.89
19.28
31.34
43.31
54.16
62.88
68.71
71.40
71.15
68.49
64.00
58.12
51.26
43.87
36.58
30.08
24.81
20.64
16.80
12.10
5.54
-3.32
-14.09
-25.84
-37.44
-47.91
-56.58
-63.01
-66.97
-68.44
-67.69
-65.38
-62.32
-59.26
-56.56
-54.13
-51.57
-48.48
-44.73
-40.51
-36.13
-31.78
-27.51
-23.22
-18.86
-14.48
-10.22
-6.21
-2.45
1.14
4.65
8.08
11.32
14.26
16.87
19.29
21.70
24.23
26.90
29.59
32.22
34.83
37.59
40.67
44.06
47.44
50.25
51.92
52.04
50.50
47.45
43.13
37.81
31.81
25.52
19.45
14.24
10.48
8.60
8.78
11.00
15.08
20.72
27.51
34.91
42.28
48.98
54.48
58.42
60.57
60.78
58.87
54.58
47.69
38.06
25.91
11.79
-3.40
-18.71
-33.45
-47.40
-60.91
-74.53
-88.68
-103.25
-117.53
-130.46
-140.99
-148.35
-152.06
-151.90
-147.78
-139.89
-128.82
-115.73
-102.14
-89.51
-78.77
-69.96
-62.24
-54.24
-44.62
-32.60
-18.24
-2.54
12.82
25.85
34.79
38.50
36.80
30.44
21.01
10.55
1.14
-5.61
-8.87
-8.77
-6.34
-3.13
-0.72
-0.22
-1.99
-5.71
-10.58
-15.73
-20.38
-23.99
-26.13
-26.37
-24.23
-19.28
-11.36
-0.88
11.03
22.67
32.10
37.69
38.59
34.97
27.88
18.88
9.59
1.32
-5.10
-9.39
-11.72
-12.61
-12.85
-13.26
-14.44
-16.46
-18.72
-19.90
-18.29
-12.31
-1.06
15.25
35.08
55.74
73.99
86.73
91.85
88.63
77.83
61.29
41.27
19.80
-1.60
-21.92
-40.32
-55.85
-67.37
-73.76
-74.27
-68.78
-58.04
-43.54
-27.42
-12.20
-0.41
5.91
5.75
-0.58
-11.44
-24.47
-37.38
-48.65
-57.88
-65.49
-72.09
-77.89
-82.32
-84.25
-82.38
-75.89
-64.77
-49.93
-32.87
-15.41
0.80
14.56
25.22
32.77
37.74
41.02
43.55
46.11
49.10
52.50
56.06
59.45
62.40
64.55
65.40
64.16
59.97
52.35
41.65
29.17
16.89
6.74
-0.10
-3.57
-4.60
-4.48
-4.28
-4.44
-4.76
-4.73
-3.97
-2.53
-0.85
0.43
0.79
0.01
-1.77
-4.22
-6.94
-9.57
-11.79
-13.30
-13.79
-12.97
-10.68
-6.95
-2.16
3.08
7.99
11.90
14.39
15.47
15.60
15.61
16.34
18.40
21.81
25.96
29.88
32.67
34.14
35.08
37.17
42.28
51.58
64.78
79.96
94.05
103.77
106.61
101.40
88.48
69.49
47.08
24.52
5.25
-7.96
-13.71
-12.50
-6.50
1.44
8.90
14.87
19.84
25.07
31.74
40.30
50.42
61.39
72.65
84.01
95.44
106.81
117.71
127.42
135.16
140.23
142.19
140.86
136.26
128.52
117.79
104.17
87.77
68.82
47.77
25.26
2.01
-21.41
-44.72
-67.85
-90.67
-112.51
-132.06
-147.46
-156.91
-159.24
-154.48
-143.90
-129.60
-113.94
-98.87
-85.69
-75.04
-67.18
-62.10
-59.58
-59.17
-60.04
-61.21
-61.70
-60.93
-58.82
-55.80
-52.52
-49.64
-47.73
-47.10
-47.84
-49.69
-52.04
-53.97
-54.59
-53.42
-50.66
-47.18
-44.09
-42.15
-41.35
-40.87
-39.45
-36.16
-30.79
-24.04
-17.17
-11.48
-7.93
-7.00
-8.72
-12.91
-19.21
-27.10
-35.77
-44.21
-51.36
-56.19
-57.75
-55.08
-47.25
-33.49
-13.60
11.69
40.59
70.28
97.35
118.36
130.69
133.28
127.21
115.48
102.14
90.76
82.95
77.88
72.90
65.07
52.79
36.53
18.26
0.27
-15.95
-30.06
-42.38
-53.04
-61.51
-66.80
-68.14
-65.55
-59.98
-53.05
-46.30
-40.62
-36.04
-31.99
-27.67
-22.70
-17.46
-13.11
-11.29
-13.50
-20.38
-31.35
-44.63
-57.85
-68.90
-76.64
-81.13
-83.23
-83.88
-83.35
-81.05
-75.82
-66.75
-53.84
-38.21
-21.78
-6.49
6.40
16.66
25.04
32.73
40.78
49.54
58.54
66.61
72.31
74.46
72.59
66.97
58.39
47.69
35.49
22.26
8.70
-3.78
-12.89
-15.90
-10.41
4.80
29.30
61.13
97.21
133.89
167.29
193.51
208.89
210.74
198.19
172.90
138.93
101.78
66.82
37.79
16.17
1.37
-8.29
-14.56
-18.67
-21.35
-23.08
-24.47
-26.20
-28.83
-32.52
-36.99
-41.75
-46.38
-50.77
-55.10
-59.70
-64.81
-70.45
-76.45
-82.54
-88.45
-93.88
-98.59
-102.52
-105.75
-108.54
-111.09
-113.27
-114.44
-113.59
-109.78
-102.67
-92.79
-81.36
-69.73
-58.74
-48.44
-38.32
-27.86
-17.12
-6.75
2.22
8.98
13.26
15.41
16.10
16.00
15.47
14.65
13.60
12.50
11.74
11.75
12.78
14.75
17.15
19.28
20.53
20.66
19.85
18.60
17.46
16.75
16.43
16.26
15.98
15.56
15.26
15.49
16.50
18.29
20.54
22.75
24.54
25.67
26.14
26.04
25.49
24.61
23.55
22.54
21.89
21.86
22.44
23.35
24.04
23.91
22.52
19.85
16.21
12.17
8.24
4.71
1.57
-1.44
-4.61
-8.10
-11.86
-15.56
-18.71
-20.77
-21.32
-20.15
-17.38
-13.43
-8.87
-4.24
0.11
4.07
7.72
11.19
14.49
17.53
20.19
22.40
24.23
25.81
27.27
28.59
29.60
30.06
29.77
28.72
27.13
25.36
23.81
22.68
21.94
21.28
20.26
18.47
15.71
12.04
7.75
3.26
-0.95
-4.47
-6.97
-8.23
-8.23
-7.09
-5.05
-2.44
0.46
3.45
6.35
9.05
11.45
13.45
15.03
16.23
17.14
17.85
18.40
18.75
18.86
18.74
18.52
18.40
18.59
19.23
20.22
21.33
22.18
22.39
21.71
20.05
17.54
14.44
11.06
7.67
4.53
1.81
-0.37
-1.93
-2.87
-3.21
-3.00
-2.32
-1.24
0.23
2.03
4.08
6.23
8.21
9.72
10.53
10.55
9.88
8.75
7.45
6.11
4.74
3.20
1.38
-0.73
-2.90
-4.80
-6.15
-6.79
-6.83
-6.45
-5.84
-5.10
-4.19
-3.12
-1.97
-0.99
-0.50
-0.75
-1.78
-3.39
-5.17
-6.65
-7.48
-7.48
-6.70
-5.28
-3.42
-1.23
1.21
3.86
6.65
9.44
11.99
14.10
15.69
16.80
17.62
18.34
19.08
19.87
20.63
21.35
22.11
23.09
24.49
26.36
28.51
30.48
31.70
31.69
30.30
27.72
24.45
21.10
18.13
15.77
13.95
12.45
11.03
9.62
8.32
7.37
7.04
7.49
8.69
10.40
12.15
13.31
13.25
11.40
7.51
1.73
-5.29
-12.50
-18.78
-23.26
-25.65
-26.37
-26.34
-26.65
-28.12
-31.00
-34.94
-39.17
-42.89
-45.61
-47.25
-47.98
-48.00
-47.18
-44.96
-40.44
-32.65
-20.99
-5.58
12.48
31.20
48.03
60.39
66.28
64.77
56.09
41.50
22.77
1.74
-20.01
-41.20
-60.72
-77.42
-90.08
-97.57
-99.11
-94.57
-84.58
-70.56
-54.42
-38.07
-23.00
-10.03
0.74
9.67
17.27
23.95
30.01
35.73
41.47
47.58
54.19
60.96
67.03
71.33
73.01
71.84
68.40
63.72
58.86
54.40
50.32
46.17
41.54
36.36
31.10
26.53
23.30
21.61
21.17
21.34
21.47
21.21
20.53
19.65
18.79
18.13
17.81
18.06
19.16
21.38
24.60
28.13
30.72
31.01
28.03
21.80
13.28
4.03
-4.61
-12.23
-19.50
-27.85
-38.57
-52.05
-67.39
-82.65
-95.53
-104.19
-107.89
-107.09
-103.13
-97.75
-92.45
-88.07
-84.74
-82.02
-79.15
-75.39
-70.27
-63.74
-56.21
-48.44
-41.14
-34.62
-28.46
-21.55
-12.60
-0.78
13.56
28.91
43.07
54.06
60.90
63.88
64.21
63.42
62.77
63.01
64.43
66.94
70.20
73.53
76.21
77.80
78.40
78.73
79.68
81.62
83.99
85.30
83.79
78.30
68.87
56.69
43.50
30.76
19.10
8.39
-1.75
-11.34
-19.78
-25.99
-29.10
-29.09
-26.98
-24.58
-23.71
-25.30
-29.02
-33.40
-36.61
-37.39
-35.57
-31.96
-27.74
-23.76
-20.20
-16.65
-12.60
-8.00
-3.35
0.49
2.74
3.07
1.78
-0.37
-2.38
-3.39
-2.90
-0.95
2.00
5.22
8.05
10.17
11.71
13.03
14.47
16.23
18.27
20.58
23.20
26.18
29.29
31.59
31.59
27.76
19.50
7.85
-4.58
-14.51
-19.49
-18.90
-14.19
-7.93
-2.47
1.13
3.32
5.38
8.51
13.02
18.39
23.66
28.15
31.67
34.47
36.81
38.71
39.85
39.79
38.31
35.61
32.32
29.29
27.25
26.50
26.78
27.33
27.20
25.53
21.82
15.91
8.00
-1.41
-11.78
-22.47
-32.87
-42.45
-50.82
-57.85
-63.58
-68.24
-71.96
-74.60
-75.63
-74.28
-69.82
-62.07
-51.63
-39.84
-28.49
-19.17
-12.78
-9.23
-7.63
-6.76
-5.66
-4.10
-2.76
-3.07
-6.50
-13.79
-24.25
-35.68
-44.99
-49.41
-47.77
-41.07
-32.14
-24.25
-19.84
-19.59
-22.55
-26.92
-31.13
-34.39
-36.70
-38.38
-39.59
-40.16
-39.66
-37.71
-34.36
-30.13
-25.86
-22.20
-19.25
-16.31
-12.20
-5.88
2.86
13.20
23.63
32.76
39.99
45.63
50.47
54.87
58.31
59.51
57.11
50.41
39.86
26.81
12.99
-0.16
-11.92
-22.17
-31.10
-38.66
-44.46
-47.98
-48.92
-47.69
-45.39
-43.43
-42.88
-43.88
-45.55
-46.41
-45.06
-40.82
-34.05
-25.79
-17.27
-9.30
-2.03
4.88
12.02
19.90
28.75
38.68
49.75
62.19
76.15
91.28
106.37
119.26
127.29
128.26
121.19
106.82
87.26
65.34
43.78
24.61
9.07
-2.34
-9.63
-13.21
-13.90
-12.80
-11.16
-10.13
-10.61
-13.09
-17.63
-23.73
-30.40
-36.27
-39.91
-40.30
-37.28
-31.72
-25.22
-19.43
-15.43
-13.30
-12.23
-11.04
-8.77
-5.14
-0.51
4.39
8.85
12.44
15.02
16.56
16.96
16.14
14.07
11.07
7.76
4.99
3.43
3.36
4.46
5.97
7.05
7.16
6.41
5.45
5.20
6.43
9.34
13.51
18.07
22.18
25.29
27.35
28.65
29.52
29.95
29.60
27.97
24.76
20.14
14.81
9.74
5.73
2.94
0.84
-1.60
-5.44
-11.29
-19.07
-28.14
-37.63
-46.80
-55.16
-62.36
-67.97
-71.41
-72.09
-69.71
-64.57
-57.67
-50.41
-44.04
-39.14
-35.42
-31.88
-27.41
-21.37
-13.93
-5.97
1.49
7.80
12.97
17.41
21.37
24.41
25.39
22.90
16.10
5.25
-8.20
-22.14
-34.60
-44.52
-52.01
-58.03
-63.84
-70.17
-76.88
-82.88
-86.59
-86.74
-82.95
-75.88
-66.78
-56.77
-46.16
-34.30
-20.19
-3.37
15.34
33.63
48.24
55.97
54.70
44.26
26.63
5.44
-15.01
-31.06
-40.89
-44.89
-45.30
-45.02
-46.45
-50.88
-58.66
-69.70
-83.82
-100.49
-118.08
-133.50
-142.67
-142.09
-130.55
-110.09
-85.23
-60.88
-40.06
-22.88
-7.45
7.93
22.73
33.92
37.69
32.17
19.36
4.81
-4.85
-5.20
3.85
18.40
32.78
42.43
45.81
44.31
40.70
37.13
33.92
29.83
23.09
12.76
-0.54
-14.89
-27.92
-38.03
-45.03
-50.15
-55.36
-62.43
-72.07
-83.64
-95.41
-105.21
-111.10
-111.91
-107.49
-98.71
-87.19
-74.82
-63.15
-52.97
-44.28
-36.51
-29.04
-21.52
-13.90
-6.22
1.70
10.36
20.28
31.66
44.16
57.00
69.35
80.85
91.91
103.47
116.54
131.63
148.40
165.72
181.95
195.31
204.10
206.80
202.20
189.67
169.56
143.46
114.07
84.63
57.99
35.97
19.09
6.94
-1.18
-5.89
-7.64
-7.14
-5.56
-4.59
-5.98
-11.07
-20.31
-33.25
-48.67
-64.85
-79.77
-91.40
-98.04
-98.65
-93.11
-82.18
-67.21
-49.64
-30.80
-11.80
6.25
22.14
34.55
42.37
44.92
42.20
34.86
23.98
10.97
-2.61
-15.13
-25.05
-31.20
-33.02
-30.65
-24.92
-17.01
-8.09
0.92
9.50
17.46
24.76
31.39
37.22
42.05
45.69
48.03
49.10
49.02
47.99
46.20
43.93
41.56
39.57
38.39
38.27
39.12
40.45
41.53
41.56
39.89
36.22
30.65
23.61
15.77
7.74
-0.05
-7.50
-14.69
-21.74
-28.46
-34.31
-38.45
-40.12
-38.87
-34.87
-28.72
-21.26
-13.23
-5.05
3.14
11.35
19.53
27.46
34.77
41.11
46.34
50.66
54.61
58.88
63.94
69.89
76.15
81.69
85.31
86.11
83.75
78.67
71.95
64.99
59.08
54.81
51.89
49.16
45.05
38.29
28.44
15.91
1.81
-12.51
-25.83
-37.13
-45.58
-50.49
-51.35
-48.03
-40.76
-30.22
-17.24
-2.66
12.95
29.21
45.87
62.76
79.41
94.92
107.77
116.13
118.29
113.44
102.29
86.99
70.63
56.21
45.83
40.21
38.82
40.46
43.85
47.92
51.93
55.22
57.07
56.68
53.41
47.10
38.24
27.76
16.58
5.16
-6.60
-19.03
-32.14
-45.32
-57.52
-67.91
-76.37
-83.62
-90.63
-97.73
-104.15
-108.33
-108.74
-105.01
-98.31
-90.83
-84.59
-80.34
-77.11
-72.77
-65.04
-52.73
-36.13
-16.86
2.90
21.08
36.16
47.22
53.88
56.30
55.32
52.30
48.80
45.83
43.26
39.81
33.67
23.72
10.32
-4.43
-17.51
-26.38
-30.12
-29.85
-28.04
-27.24
-28.77
-31.98
-34.48
-33.01
-24.67
-8.10
16.01
44.90
74.18
98.67
113.70
116.56
107.62
90.50
70.88
54.26
43.75
39.01
36.99
34.00
27.77
18.55
8.47
0.03
-5.48
-8.46
-10.38
-12.56
-15.16
-17.11
-16.75
-12.93
-5.88
2.57
9.51
11.96
8.07
-2.12
-16.74
-32.99
-48.28
-61.10
-71.13
-78.71
-84.12
-87.23
-87.79
-85.69
-81.17
-74.46
-65.30
-52.85
-36.14
-14.95
9.62
35.17
58.85
78.36
92.57
101.32
104.82
103.12
96.11
84.16
68.67
52.02
36.81
24.66
15.44
7.53
-1.06
-11.44
-23.16
-34.58
-43.93
-50.43
-54.59
-57.75
-61.03
-64.54
-67.30
-67.90
-65.59
-60.86
-55.42
-51.39
-50.31
-52.51
-57.09
-62.45
-66.97
-69.57
-70.00
-68.71
-66.64
-64.87
-64.34
-65.60
-68.54
-72.34
-75.62
-76.73
-74.33
-67.85
-57.75
-45.33
-32.44
-20.82
-11.69
-5.54
-2.00
-0.12
1.31
3.45
7.16
12.69
19.85
28.14
37.28
47.54
60.01
75.95
95.84
118.24
139.26
153.30
154.77
140.34
110.51
69.60
24.44
-17.74
-51.16
-72.54
-81.49
-80.25
-73.19
-65.54
-61.78
-63.97
-70.80
-78.23
-81.43
-77.13
-64.94
-46.94
-25.79
-2.94
22.02
50.46
82.82
117.12
148.79
172.03
181.64
174.99
152.79
119.16
80.76
45.33
20.09
9.89
16.10
35.97
63.26
89.51
106.02
106.00
86.61
50.07
3.33
-43.78
-81.67
-103.91
-108.94
-99.89
-82.61
-63.11
-45.49
-31.28
-20.10
-10.86
-2.83
4.07
9.47
12.95
14.36
13.83
11.52
7.69
2.77
-2.74
-7.93
-11.65
-12.72
-10.37
-4.83
2.25
7.91
8.60
1.66
-13.17
-32.83
-51.22
-61.01
-56.05
-33.85
3.36
49.33
95.95
135.79
163.93
178.71
181.19
174.10
160.70
143.95
126.26
109.45
94.97
83.96
77.15
74.64
75.47
77.88
79.71
79.05
74.99
67.73
58.20
47.22
34.63
18.99
-2.32
-31.95
-70.97
-117.24
-164.72
-204.84
-229.66
-235.54
-225.21
-206.80
-189.95
-181.17
-180.96
-184.53
-185.53
-180.28
-169.81
-158.53
-150.68
-147.16
-144.86
-138.92
-126.23
-107.72
-87.96
-72.83
-66.31
-68.75
-76.95
-86.22
-92.75
-95.02
-93.72
-90.31
-85.47
-78.37
-67.36
-51.38
-31.37
-10.27
8.11
20.91
27.47
29.30
28.66
26.85
23.36
16.40
4.62
-11.21
-27.88
-41.00
-47.08
-45.14
-37.07
-26.23
-15.87
-7.81
-2.41
0.64
1.37
-0.89
-6.96
-16.99
-29.72
-42.57
-52.39
-56.73
-54.66
-47.09
-36.30
-24.97
-15.27
-8.25
-3.73
-0.72
2.11
5.91
11.39
18.69
27.37
36.47
44.70
50.63
53.09
51.57
46.44
39.01
31.12
24.57
20.48
18.84
18.46
17.24
12.81
3.48
-11.03
-29.13
-47.75
-63.36
-73.32
-76.91
-75.51
-71.94
-69.22
-69.20
-71.85
-75.20
-76.17
-71.75
-60.15
-41.47
-17.64
8.36
33.77
57.41
80.41
105.78
136.87
175.21
219.01
263.09
300.38
324.42
331.48
321.55
297.69
264.57
226.69
187.34
148.33
110.43
74.04
39.79
8.78
-17.56
-37.88
-51.57
-59.05
-61.88
-62.11
-61.36
-60.05
-57.09
-50.10
-36.09
-12.22
23.31
70.25
125.73
184.01
237.40
277.93
299.51
299.52
279.10
242.14
193.45
137.34
77.08
15.40
-44.68
-99.50
-145.35
-179.67
-202.24
-215.45
-223.30
-229.72
-236.89
-244.57
-250.70
-252.97
-250.29
-243.34
-234.04
-224.29
-214.91
-205.34
-194.19
-180.18
-162.81
-142.57
-120.52
-97.91
-75.93
-55.64
-37.98
-23.75
-13.39
-6.91
-3.91
-3.73
-5.70
-9.21
-13.64
-18.21
-22.00
-24.09
-23.91
-21.44
-17.20
-12.01
-6.70
-1.79
2.52
6.17
9.05
10.80
10.90
8.91
4.90
-0.13
-4.25
-5.01
-0.40
10.29
25.83
43.27
58.90
69.54
73.57
71.24
64.22
54.65
44.35
34.50
25.77
18.70
13.86
11.78
12.56
15.64
19.87
23.94
26.90
28.67
29.98
31.93
35.42
40.55
46.60
52.32
56.47
58.27
57.42
53.89
47.58
38.21
25.45
9.37
-9.25
-28.86
-47.46
-63.22
-74.99
-82.61
-86.57
-87.58
-86.03
-81.93
-75.20
-66.16
-55.76
-45.25
-35.60
-26.93
-18.43
-9.01
1.94
14.05
26.06
36.63
45.17
52.06
58.10
63.58
67.77
69.10
66.10
58.44
47.29
34.79
23.02
13.09
4.95
-2.07
-8.39
-13.64
-16.85
-17.09
-14.19
-8.97
-2.74
3.29
8.66
13.64
18.86
24.67
30.75
36.23
40.20
42.43
43.63
45.27
48.81
54.78
62.35
69.57
74.17
74.62
70.74
63.75
55.60
48.13
42.42
38.65
36.29
34.47
32.28
28.86
23.32
14.92
3.23
-11.67
-28.99
-47.36
-65.03
-80.23
-91.62
-98.58
-101.29
-100.74
-98.34
-95.51
-93.12
-91.25
-89.15
-85.59
-79.48
-70.30
-58.26
-44.23
-29.26
-14.26
0.10
13.41
25.26
35.19
42.71
47.38
48.99
47.60
43.59
37.60
30.48
23.12
16.31
10.50
5.87
2.36
-0.09
-1.46
-1.68
-0.77
0.92
2.71
3.81
3.72
2.58
1.28
1.19
3.64
9.39
18.32
29.53
41.66
53.44
63.97
72.82
79.70
84.19
85.63
83.33
76.97
66.93
54.35
40.83
28.01
17.16
8.84
2.86
-1.68
-6.05
-11.59
-19.10
-28.53
-38.72
-47.66
-53.16
-53.46
-47.83
-36.80
-22.16
-6.53
7.26
17.08
22.24
23.78
24.06
25.71
30.43
38.19
47.34
55.48
60.66
62.15
60.47
56.81
52.26
47.28
41.80
35.57
28.53
20.95
13.28
5.96
-0.80
-7.00
-12.71
-17.84
-22.01
-24.55
-24.70
-21.91
-16.16
-8.06
1.21
10.25
17.89
23.61
27.56
30.49
33.28
36.65
40.87
45.80
50.95
55.73
59.56
61.92
62.43
60.76
56.77
50.39
41.69
30.79
17.86
3.19
-12.82
-29.49
-45.97
-61.26
-74.44
-84.83
-92.11
-96.27
-97.41
-95.56
-90.52
-81.91
-69.47
-53.26
-33.85
-12.33
9.93
31.53
51.18
67.89
80.82
89.40
93.34
92.71
87.98
79.91
69.46
57.52
44.85
32.06
19.63
7.95
-2.75
-12.51
-21.76
-31.24
-41.65
-53.29
-65.71
-77.75
-87.91
-94.91
-98.21
-98.05
-95.23
-90.67
-85.05
-78.84
-72.41
-66.26
-60.98
-56.98
-54.22
-52.05
-49.51
-45.73
-40.40
-33.95
-27.29
-21.38
-16.75
-13.36
-10.70
-8.19
-5.44
-2.45
0.50
3.03
4.78
5.51
5.09
3.53
1.07
-1.83
-4.44
-5.99
-5.97
-4.35
-1.65
1.27
3.54
4.57
4.28
2.96
1.03
-1.22
-3.75
-6.75
-10.43
-14.76
-19.37
-23.58
-26.66
-28.07
-27.64
-25.58
-22.29
-18.19
-13.57
-8.74
-3.96
0.45
4.18
7.07
9.22
10.92
12.51
14.13
15.63
16.69
17.02
16.59
15.69
14.82
14.44
14.81
15.94
17.61
19.60
21.67
23.66
25.44
26.86
27.76
27.90
27.06
24.99
21.59
16.95
11.45
5.66
0.28
-4.11
-7.16
-8.74
-8.91
-7.79
-5.56
-2.45
1.33
5.54
10.02
14.69
19.54
24.49
29.32
33.65
37.00
38.93
39.15
37.68
34.83
31.16
27.30
23.81
21.02
18.93
17.30
15.71
13.77
11.14
7.66
3.22
-2.27
-8.85
-16.55
-25.26
-34.70
-44.34
-53.43
-61.08
-66.50
-69.18
-69.10
-66.81
-63.18
-59.14
-55.39
-52.19
-49.43
-46.91
-44.51
-42.36
-40.70
-39.73
-39.37
-39.21
-38.64
-37.09
-34.26
-30.29
-25.62
-20.86
-16.47
-12.61
-9.17
-5.94
-2.87
-0.30
1.14
0.78
-1.76
-6.31
-12.11
-18.04
-22.93
-25.81
-26.12
-23.73
-18.92
-12.26
-4.50
3.55
11.23
18.16
24.26
29.63
34.40
38.60
42.11
44.84
46.84
48.48
50.36
53.05
56.85
61.57
66.58
71.05
74.35
76.43
77.79
79.20
81.32
84.32
87.90
91.64
95.47
100.00
106.44
116.18
130.14
148.35
169.95
193.47
217.16
239.17
257.52
270.08
274.72
269.62
253.84
227.36
191.00
146.08
94.30
38.16
-18.75
-71.53
-114.87
-144.35
-158.14
-157.68
-147.12
-131.93
-117.03
-105.41
-97.67
-92.61
-88.34
-83.44
-77.63
-71.74
-67.18
-65.14
-66.04
-69.33
-73.73
-77.67
-79.82
-79.36
-76.10
-70.29
-62.34
-52.60
-41.63
-29.97
-18.14
-6.63
4.01
13.26
20.77
26.69
31.73
36.36
40.91
45.26
49.03
51.67
52.72
52.05
49.87
46.91
43.33
39.55
36.27
34.29
33.77
33.37
30.02
19.88
-0.08
-31.87
-74.82
-125.73
-179.80
-232.29
-279.67
-320.10
-352.85
-369.73
-363.74
-331.61
-276.88
-209.04
-139.26
-76.08
-23.74
17.18
48.46
71.42
87.12
96.34
100.16
100.06
97.74
94.78
92.44
91.62
91.88
92.28
91.89
90.27
87.69
84.84
82.45
81.10
81.11
81.98
82.95
83.22
82.39
80.52
77.92
74.91
71.70
68.39
64.75
60.37
54.95
48.50
41.42
34.29
27.71
22.21
18.15
15.63
14.68
14.92
16.16
18.30
21.34
25.30
30.23
36.19
43.24
51.46
60.41
69.74
79.19
88.54
97.66
106.47
114.88
122.80
130.22
136.41
140.95
143.60
144.29
143.02
139.61
133.38
122.74
110.20
96.06
80.32
63.05
44.58
25.52
6.61
-11.56
-28.64
-44.59
-60.27
-76.28
-92.87
-109.70
-126.13
-141.38
-154.85
-166.39
-176.23
-185.59
-195.87
-208.63
-225.22
-246.14
-270.30
-294.63
-314.59
-325.46
-324.36
-310.89
-287.23
-257.15
-224.44
-191.89
-160.93
-132.10
-105.60
-81.83
-61.03
-43.04
-27.23
-12.97
-0.01
11.21
19.86
25.20
26.92
25.30
21.17
15.48
9.23
3.33
-1.29
-3.76
-3.40
-0.09
5.60
12.37
18.51
22.54
23.72
22.33
19.45
16.36
13.91
12.06
9.97
6.46
0.66
-7.38
-16.58
-25.27
-31.85
-35.53
-36.57
-36.04
-35.10
-34.38
-33.77
-32.74
-30.96
-28.66
-26.56
-25.20
-24.41
-23.05
-19.57
-12.83
-2.78
9.43
22.17
34.16
45.16
55.86
67.32
80.18
94.04
107.50
118.53
125.30
126.71
122.86
114.84
104.41
93.35
83.01
74.12
66.83
61.13
57.00
54.52
53.63
53.97
54.75
54.93
53.60
50.34
45.41
39.47
33.27
27.23
21.29
15.05
8.10
0.36
-7.80
-15.54
-21.85
-25.69
-26.34
-23.50
-17.41
-8.85
0.98
10.71
19.16
25.51
29.41
30.92
30.22
27.54
23.10
17.26
10.61
4.05
-1.28
-4.27
-4.17
-1.01
4.16
9.20
11.32
7.83
-2.89
-20.56
-42.85
-66.03
-86.15
-100.39
-107.96
-110.09
-109.28
-108.08
-108.09
-109.54
-111.57
-113.03
-113.39
-113.10
-113.63
-116.81
-124.06
-135.65
-150.24
-165.04
-176.34
-180.55
-175.21
-159.67
-135.26
-104.72
-71.12
-36.91
-3.17
30.53
65.84
104.97
149.57
199.47
251.68
300.37
338.09
357.95
355.99
332.56
292.04
241.13
186.56
133.52
85.31
43.92
10.87
-12.43
-25.19
-27.91
-22.84
-13.65
-4.47
1.09
0.65
-6.59
-19.78
-36.85
-54.87
-70.65
-81.42
-85.49
-82.69
-74.47
-63.58
-53.32
-46.75
-45.81
-50.80
-60.33
-71.73
-81.79
-87.65
-87.45
-80.68
-68.01
-50.78
-30.51
-8.53
13.95
35.61
54.93
70.23
80.07
83.63
81.05
73.28
61.83
48.32
34.14
20.30
7.54
-3.50
-11.93
-16.49
-15.46
-6.92
10.72
37.91
73.21
112.77
150.63
179.73
193.72
189.00
166.12
129.89
87.94
48.09
15.90
-6.67
-20.86
-29.33
-34.40
-37.21
-38.24
-38.53
-40.42
-47.00
-60.51
-80.69
-104.20
-125.85
-140.65
-146.02
-142.85
-135.01
-127.77
-125.90
-132.13
-146.41
-166.01
-186.21
-201.46
-206.67
-198.46
-176.07
-141.87
-101.03
-60.44
-26.91
-5.36
2.65
-0.91
-11.43
-23.49
-32.71
-36.79
-35.51
-29.80
-20.69
-8.62
6.39
24.26
44.18
64.55
83.35
98.70
109.33
114.67
114.66
109.48
99.33
84.66
66.40
46.51
28.12
15.46
13.12
24.88
52.27
93.34
142.34
190.64
228.80
249.32
248.92
229.56
197.58
161.40
128.56
103.42
86.35
74.54
64.01
51.73
36.72
20.05
3.60
-11.39
-25.26
-39.76
-56.94
-77.74
-101.10
-124.26
-143.96
-158.16
-167.12
-173.31
-180.16
-190.21
-203.71
-218.36
-230.14
-234.89
-229.57
-213.05
-186.08
-151.02
-111.55
-72.15
-37.43
-11.05
5.37
12.76
14.28
13.85
14.62
17.98
23.57
30.16
36.79
43.26
49.92
57.07
64.32
70.44
73.92
73.72
69.71
62.84
54.61
46.35
38.68
31.33
23.59
14.98
6.09
-1.10
-3.45
2.41
18.91
46.28
81.85
120.27
154.71
178.77
188.42
183.49
167.70
147.34
129.01
117.11
112.37
111.94
110.96
104.85
91.13
69.93
43.34
14.02
-15.96
-45.49
-74.04
-100.97
-125.18
-145.16
-159.50
-167.44
-169.17
-165.81
-159.08
-151.03
-143.51
-137.73
-133.68
-129.95
-123.89
-112.30
-92.66
-64.29
-29.13
8.51
43.15
69.94
86.33
92.81
92.33
88.73
84.94
81.95
78.98
74.57
68.02
60.06
52.67
47.96
46.96
48.95
51.59
51.92
47.47
37.34
22.56
5.77
-9.72
-21.08
-26.84
-27.11
-23.21
-16.82
-9.22
-0.89
8.32
18.87
31.23
45.75
62.66
81.92
102.75
123.25
140.34
150.58
151.42
142.44
125.80
105.43
85.32
67.87
53.20
39.69
25.29
8.90
-9.12
-27.40
-44.53
-59.72
-73.03
-84.89
-95.52
-104.56
-111.23
-114.76
-114.89
-112.05
-107.21
-101.32
-94.77
-86.99
-76.60
-62.07
-42.57
-18.67
7.52
32.88
54.35
69.87
78.91
82.27
81.42
77.67
71.75
63.77
53.50
40.84
26.04
9.89
-6.39
-21.28
-33.22
-40.82
-43.30
-40.67
-33.87
-24.49
-14.33
-4.91
2.89
8.78
12.80
15.03
15.49
14.24
11.53
7.83
3.73
-0.28
-3.87
-6.91
-9.35
-11.12
-12.13
-12.33
-11.59
-9.81
-6.88
-2.80
2.24
7.86
13.58
19.02
24.13
29.05
34.01
38.95
43.44
46.75
48.22
47.57
44.97
40.96
36.22
31.44
27.25
24.19
22.63
22.59
23.58
24.69
24.81
23.14
19.44
14.16
8.16
2.27
-3.08
-7.90
-12.53
-17.22
-21.88
-26.03
-28.92
-29.80
-28.17
-23.93
-17.45
-9.55
-1.31
6.13
11.82
15.18
16.08
14.80
11.92
8.11
4.10
0.59
-1.80
-2.73
-2.18
-0.68
0.88
1.51
0.59
-1.88
-5.25
-8.55
-10.99
-12.21
-12.50
-12.48
-12.77
-13.62
-14.83
-15.84
-16.00
-14.89
-12.46
-9.07
-5.27
-1.69
1.25
3.35
4.71
5.64
6.48
7.46
8.68
10.10
11.65
13.33
15.27
17.61
20.31
22.99
25.00
25.55
24.06
20.41
15.04
8.80
2.63
-2.71
-6.81
-9.56
-10.99
-11.08
-9.74
-6.98
-3.00
1.56
5.78
8.58
9.10
6.94
2.25
-4.30
-11.83
-19.35
-25.88
-30.57
-32.74
-32.04
-28.57
-23.01
-16.45
-10.12
-4.97
-1.32
1.18
3.39
6.22
10.26
15.45
21.18
26.52
30.65
33.11
33.87
33.25
31.61
29.20
26.04
22.06
17.15
11.33
4.66
-2.76
-10.88
-19.71
-29.14
-38.83
-48.03
-55.76
-60.98
-62.92
-61.38
-56.80
-50.09
-42.31
-34.22
-26.10
-17.68
-8.45
1.99
13.51
25.40
36.53
45.62
51.70
54.22
53.14
48.81
41.78
32.69
22.23
11.14
0.17
-9.97
-18.75
-25.81
-31.04
-34.53
-36.49
-37.18
-36.86
-35.68
-33.69
-30.90
-27.35
-23.17
-18.51
-13.51
-8.20
-2.54
3.39
9.26
14.33
17.64
18.32
15.98
10.97
4.37
-2.40
-7.98
-11.52
-12.79
-12.12
-10.09
-7.35
-4.37
-1.41
1.34
3.74
5.59
6.65
6.82
6.13
4.90
3.52
2.31
1.33
0.26
-1.40
-4.11
-8.02
-12.93
-18.32
-23.62
-28.30
-31.95
-34.20
-34.69
-33.12
-29.38
-23.73
-16.76
-9.32
-2.30
3.57
7.76
9.98
10.17
8.53
5.56
2.05
-1.00
-2.57
-1.94
1.15
6.39
13.02
19.96
26.16
30.72
33.18
33.48
32.00
29.40
26.44
23.78
21.81
20.60
19.91
19.37
18.64
17.54
16.18
14.79
13.56
12.55
11.61
10.46
8.90
6.86
4.37
1.45
-1.96
-6.06
-10.98
-16.63
-22.66
-28.44
-33.44
-37.40
-40.40
-42.73
-44.58
-45.79
-45.82
-43.88
-39.30
-31.90
-22.18
-11.28
-0.68
8.27
14.68
18.41
19.97
20.27
20.23
20.52
21.35
22.52
23.54
23.83
22.96
20.73
17.37
13.43
9.66
6.67
4.68
3.45
2.43
1.09
-0.79
-2.95
-4.80
-5.72
-5.48
-4.40
-3.43
-3.82
-6.65
-12.34
-20.41
-29.50
-37.93
-44.18
-47.45
-47.77
-45.79
-42.48
-38.73
-35.20
-32.27
-30.01
-28.24
-26.55
-24.44
-21.62
-18.07
-14.09
-10.05
-6.10
-2.04
2.64
8.50
15.91
25.00
35.59
47.26
59.27
70.55
79.68
85.15
85.75
81.00
71.30
57.88
42.37
26.36
11.18
-2.22
-13.15
-21.16
-26.03
-27.87
-27.09
-24.33
-20.08
-14.50
-7.35
1.66
12.42
24.00
34.66
42.45
45.90
44.67
39.64
32.51
24.99
18.27
12.66
7.84
3.19
-1.71
-6.95
-12.24
-17.16
-21.37
-24.71
-27.19
-28.91
-29.89
-30.11
-29.58
-28.42
-27.05
-26.02
-25.86
-26.87
-28.99
-31.73
-34.37
-36.13
-36.42
-34.93
-31.66
-26.91
-21.14
-14.89
-8.59
-2.62
2.81
7.53
11.44
14.46
16.56
17.75
18.03
17.54
16.45
15.07
13.72
12.64
11.90
11.35
10.71
9.67
8.06
6.00
3.80
1.87
0.56
0.01
0.16
0.69
1.18
1.25
0.68
-0.51
-1.98
-3.15
-3.23
-1.50
2.55
8.95
17.13
26.07
34.54
41.61
46.92
50.81
54.02
57.25
60.70
63.94
66.08
66.17
63.69
58.64
51.55
43.16
34.23
25.30
16.82
9.15
2.78
-1.78
-4.09
-4.09
-2.26
0.38
2.44
2.62
0.06
-5.37
-13.11
-22.13
-31.26
-39.55
-46.35
-51.40
-54.76
-56.63
-57.26
-56.83
-55.45
-53.10
-49.82
-45.71
-40.98
-35.92
-30.82
-25.85
-21.21
-17.18
-14.13
-12.45
-12.29
-13.41
-15.13
-16.57
-16.96
-16.00
-13.77
-10.73
-7.35
-4.08
-1.21
1.07
2.65
3.57
4.08
4.61
5.55
7.10
9.09
11.06
12.40
12.63
11.45
8.90
5.26
1.03
-3.18
-6.75
-9.11
-9.92
-9.12
-6.94
-3.84
-0.35
3.03
5.85
7.81
8.68
8.35
6.86
4.47
1.57
-1.33
-3.77
-5.49
-6.51
-7.09
-7.59
-8.29
-9.21
-10.15
-10.84
-11.07
-10.92
-10.78
-11.16
-12.52
-15.04
-18.51
-22.46
-26.33
-29.69
-32.31
-34.05
-34.73
-34.07
-31.79
-27.79
-22.39
-16.28
-10.24
-4.72
0.37
5.48
11.05
17.06
23.06
28.41
32.81
36.49
40.14
44.52
50.08
56.84
64.56
73.01
82.01
91.30
100.29
108.00
113.26
115.16
113.34
108.06
99.92
89.49
77.19
63.24
47.98
32.07
16.59
2.80
-8.32
-16.52
-22.41
-27.36
-32.89
-40.17
-49.62
-60.80
-72.73
-84.20
-94.22
-102.17
-107.84
-111.31
-112.83
-112.74
-111.45
-109.38
-106.90
-104.16
-101.04
-97.13
-91.86
-84.75
-75.63
-64.87
-53.29
-41.98
-31.97
-23.98
-18.26
-14.64
-12.50
-10.85
-8.48
-4.11
3.23
13.88
27.26
41.85
55.53
66.15
72.14
72.86
68.66
60.65
50.27
38.91
27.78
17.76
9.53
3.50
-0.04
-1.01
0.41
3.61
7.50
10.78
12.30
11.78
10.34
10.48
15.42
27.84
48.41
75.02
102.93
126.22
139.65
140.38
128.55
106.84
79.35
50.56
24.57
4.69
-7.17
-11.15
-9.97
-8.52
-12.30
-25.05
-46.84
-73.78
-99.77
-119.22
-129.34
-130.76
-126.26
-118.76
-109.77
-99.14
-85.93
-69.64
-50.92
-31.42
-12.97
3.14
16.54
27.64
36.96
44.70
50.51
53.85
54.61
53.81
53.69
57.12
66.34
81.73
101.31
121.26
137.38
146.54
147.62
141.43
130.01
115.68
100.46
85.88
73.14
63.20
56.51
52.72
50.44
47.34
40.84
28.97
11.11
-11.58
-36.44
-60.09
-79.52
-93.09
-101.05
-105.40
-109.05
-114.78
-124.24
-137.23
-151.63
-163.91
-169.98
-166.48
-151.80
-126.83
-94.93
-61.03
-30.32
-6.62
8.57
16.27
19.25
20.73
23.16
27.63
33.92
41.02
47.76
53.18
56.57
57.41
55.40
50.58
43.54
35.41
27.54
21.09
16.66
14.23
13.47
14.31
17.25
23.25
33.24
47.32
64.29
81.47
95.19
101.65
98.05
83.54
59.76
30.67
1.48
-22.89
-39.26
-47.00
-47.54
-42.95
-34.59
-22.58
-6.33
14.13
37.19
59.55
77.14
86.39
85.03
72.28
48.50
15.07
-25.39
-68.76
-109.87
-143.67
-167.06
-180.01
-185.27
-186.75
-187.36
-187.70
-186.19
-180.51
-169.39
-153.40
-134.79
-116.01
-98.30
-81.05
-62.28
-39.91
-12.71
19.24
55.13
94.07
135.15
176.82
216.00
247.92
267.34
270.67
257.91
233.19
203.27
174.85
151.90
134.92
121.88
110.40
99.40
89.50
81.83
76.61
72.41
66.76
57.70
45.15
31.16
19.12
11.97
10.79
14.33
19.71
23.73
24.25
20.77
14.25
6.33
-1.59
-8.81
-15.30
-21.31
-26.89
-31.68
-35.02
-36.38
-35.68
-33.54
-30.93
-28.77
-27.35
-26.32
-25.00
-22.86
-20.07
-17.53
-16.58
-18.44
-23.65
-31.75
-41.25
-50.00
-55.65
-56.51
-52.22
-44.18
-35.31
-29.19
-28.78
-35.27
-47.56
-62.67
-76.76
-86.40
-89.42
-85.18
-74.50
-59.25
-42.01
-25.71
-13.20
-6.58
-6.64
-12.58
-22.15
-32.41
-40.49
-44.33
-43.03
-36.74
-26.55
-14.15
-1.67
8.77
15.50
18.00
17.29
15.81
16.49
21.34
30.30
40.90
49.05
50.74
43.90
29.31
10.37
-8.24
-22.41
-29.94
-30.97
-27.44
-22.01
-16.96
-13.61
-12.18
-12.06
-12.20
-11.49
-9.10
-4.66
1.61
8.89
15.89
21.09
23.07
20.82
13.99
3.04
-10.81
-25.77
-39.99
-52.02
-61.26
-68.25
-74.38
-81.30
-90.07
-100.55
-111.07
-118.85
-120.79
-114.64
-100.03
-78.78
-54.62
-31.99
-14.71
-4.76
-1.86
-3.90
-8.00
-11.64
-13.35
-12.75
-10.15
-6.09
-1.15
3.88
7.72
8.62
4.88
-4.44
-18.83
-36.28
-53.83
-68.49
-78.22
-82.42
-81.92
-78.59
-74.66
-71.95
-71.10
-71.23
-70.04
-64.60
-52.48
-32.75
-6.40
24.00
55.12
83.80
107.53
124.56
133.81
134.81
128.02
115.00
98.21
80.56
64.57
51.93
43.40
39.14
39.05
42.84
49.93
59.14
68.74
76.66
81.06
80.88
76.17
67.97
57.94
47.66
38.12
29.35
20.68
11.24
0.62
-10.69
-21.44
-30.24
-36.26
-39.68
-41.54
-43.09
-45.11
-47.59
-49.94
-51.58
-52.44
-52.98
-53.78
-54.85
-55.31
-53.52
-47.80
-37.36
-22.91
-6.66
8.32
19.12
23.91
22.37
15.65
5.73
-5.25
-15.55
-24.04
-30.22
-34.07
-35.88
-36.18
-35.68
-35.23
-35.73
-37.90
-42.04
-47.80
-54.18
-59.64
-62.62
-62.06
-57.79
-50.53
-41.61
-32.44
-24.16
-17.50
-12.80
-10.06
-8.74
-7.66
-4.97
1.41
12.96
29.87
50.67
72.62
92.64
108.33
118.59
123.54
123.97
120.77
114.52
105.74
95.15
83.88
73.22
64.18
57.05
51.48
46.82
42.64
39.10
36.78
36.34
37.98
41.28
45.39
49.48
53.06
56.18
59.20
62.58
66.53
70.87
75.03
78.28
79.95
79.63
77.25
73.02
67.26
60.43
53.31
47.08
43.21
42.92
46.46
52.59
58.64
61.42
58.47
49.12
34.77
18.16
2.04
-12.03
-24.18
-35.96
-49.44
-66.35
-87.45
-112.25
-139.01
-164.76
-185.57
-197.22
-196.46
-182.51
-158.04
-128.90
-102.30
-84.06
-76.15
-75.74
-76.50
-71.48
-56.12
-30.04
3.37
38.91
71.94
99.75
121.60
137.76
148.60
154.45
155.95
154.47
151.82
149.55
148.10
146.73
144.23
139.70
133.06
124.62
114.35
101.30
84.02
61.53
34.31
4.53
-24.71
-50.72
-72.14
-89.16
-102.77
-113.92
-122.80
-128.87
-131.38
-130.11
-125.70
-119.71
-113.92
-109.67
-107.27
-105.88
-103.93
-99.98
-93.44
-85.00
-76.39
-69.70
-66.55
-67.39
-71.49
-77.32
-83.15
-87.63
-90.13
-90.76
-90.16
-89.21
-88.73
-89.20
-90.65
-92.65
-94.40
-94.96
-93.47
-89.37
-82.52
-73.30
-62.27
-49.89
-36.11
-20.35
-1.83
19.55
42.52
64.23
80.88
89.07
86.95
74.79
54.65
29.51
2.50
-23.41
-45.36
-60.81
-67.97
-66.62
-58.30
-45.83
-32.12
-18.92
-6.40
6.25
19.61
33.09
44.95
53.34
57.43
58.00
56.87
55.79
55.24
54.27
51.37
45.66
37.75
29.44
22.57
17.67
13.20
5.85
-8.00
-30.29
-59.82
-91.81
-119.11
-134.46
-133.18
-115.07
-84.61
-49.20
-16.26
9.60
27.82
41.24
53.87
68.56
85.74
103.81
120.49
134.14
144.35
151.56
156.11
157.59
154.85
146.69
132.70
113.76
91.99
69.99
49.90
32.65
17.73
3.58
-11.57
-28.78
-47.80
-66.96
-83.55
-94.42
-96.96
-89.89
-73.83
-51.29
-25.93
-1.54
19.00
34.31
44.46
50.42
53.40
54.54
54.72
54.65
54.83
55.36
55.93
55.88
54.58
51.77
47.64
42.63
37.06
31.01
24.45
17.54
10.85
5.24
1.47
-0.11
0.24
1.80
3.71
5.36
6.62
7.95
10.27
14.52
21.21
29.90
39.09
46.60
50.28
48.86
42.43
32.49
21.35
11.48
4.84
2.41
4.10
8.66
14.00
17.61
17.42
12.63
4.14
-5.64
-13.74
-17.97
-17.95
-15.40
-13.49
-15.57
-23.81
-38.40
-57.51
-77.90
-96.12
-109.61
-117.42
-120.17
-119.48
-117.04
-113.87
-110.14
-105.55
-99.87
-93.14
-85.52
-76.78
-66.05
-52.14
-34.29
-13.12
9.16
29.30
44.44
53.46
57.65
60.18
64.74
73.85
87.93
105.18
122.57
136.95
145.90
147.93
142.36
129.18
109.30
85.02
60.10
39.04
25.53
20.77
22.73
26.93
28.51
24.54
15.29
3.76
-6.19
-11.98
-13.44
-12.57
-12.04
-13.69
-17.68
-22.84
-27.64
-31.20
-33.68
-35.91
-38.66
-42.02
-45.32
-47.54
-48.00
-46.84
-44.98
-43.78
-44.30
-46.83
-50.78
-54.96
-58.02
-58.99
-57.51
-53.90
-48.94
-43.56
-38.48
-34.03
-30.08
-26.18
-21.90
-17.10
-12.04
-7.35
-3.68
-1.44
-0.55
-0.53
-0.76
-0.77
-0.50
-0.27
-0.58
-1.86
-4.21
-7.32
-10.66
-13.73
-16.34
-18.69
-21.26
-24.48
-28.45
-32.80
-36.84
-39.82
-41.24
-40.90
-38.81
-34.98
-29.33
-21.70
-12.12
-1.01
10.80
22.17
32.04
39.63
44.60
47.05
47.25
45.59
42.38
38.00
32.85
27.51
22.58
18.61
15.81
14.00
12.69
11.28
9.37
6.95
4.39
2.22
0.87
0.47
0.81
1.51
2.15
2.56
2.78
3.11
3.92
5.58
8.32
12.19
17.04
22.56
28.33
33.86
38.65
42.24
44.17
44.13
41.97
37.86
32.26
25.81
19.21
12.94
7.23
1.98
-3.05
-8.00
-12.83
-17.24
-20.87
-23.50
-25.21
-26.33
-27.28
-28.37
-29.66
-30.94
-31.96
-32.58
-32.86
-33.01
-33.21
-33.48
-33.59
-33.12
-31.67
-29.02
-25.20
-20.52
-15.50
-10.68
-6.52
-3.36
-1.35
-0.50
-0.70
-1.60
-2.74
-3.50
-3.34
-2.05
0.11
2.36
3.73
3.45
1.27
-2.33
-6.41
-9.83
-11.77
-11.94
-10.69
-8.76
-6.99
-6.05
-6.25
-7.45
-9.14
-10.71
-11.61
-11.54
-10.48
-8.62
-6.26
-3.63
-0.93
1.74
4.28
6.63
8.71
10.50
11.99
13.09
13.62
13.29
11.86
9.26
5.76
1.98
-1.35
-3.60
-4.58
-4.51
-3.88
-3.15
-2.53
-1.93
-1.19
-0.25
0.66
1.15
0.85
-0.31
-2.06
-3.83
-5.04
-5.38
-4.85
-3.76
-2.58
-1.63
-1.05
-0.71
-0.32
0.35
1.41
2.70
3.95
4.85
5.25
5.12
4.60
3.80
2.73
1.26
-0.79
-3.47
-6.69
-10.19
-13.64
-16.79
-19.50
-21.82
-23.81
-25.60
-27.23
-28.81
-30.42
-32.24
-34.41
-36.97
-39.74
-42.29
-44.10
-44.70
-43.87
-41.65
-38.30
-34.15
-29.47
-24.41
-19.06
-13.44
-7.55
-1.31
5.36
12.54
20.09
27.64
34.65
40.52
44.82
47.37
48.24
47.64
45.83
43.05
39.66
36.04
32.66
29.88
27.82
26.29
24.86
23.14
20.93
18.38
15.88
13.87
12.62
12.11
12.13
12.44
12.94
13.67
14.77
16.26
17.97
19.59
20.80
21.48
21.67
21.56
21.32
20.94
20.26
19.03
17.17
14.78
12.26
9.99
8.25
6.97
5.86
4.53
2.74
0.56
-1.71
-3.74
-5.35
-6.65
-7.91
-9.44
-11.40
-13.71
-16.12
-18.31
-20.01
-21.00
-21.17
-20.49
-18.94
-16.58
-13.47
-9.70
-5.51
-1.20
2.78
5.95
7.92
8.53
7.93
6.51
4.76
3.14
1.89
1.05
0.49
-0.02
-0.72
-1.83
-3.51
-5.87
-8.87
-12.33
-15.94
-19.38
-22.42
-25.06
-27.55
-30.24
-33.42
-37.04
-40.75
-43.95
-46.12
-47.09
-47.07
-46.67
-46.47
-46.76
-47.25
-47.12
-45.33
-41.11
-34.46
-26.20
-17.76
-10.44
-4.84
-0.39
4.42
11.56
22.70
38.66
59.16
82.95
108.11
132.30
153.08
168.13
175.67
174.96
166.61
152.57
135.48
117.70
100.55
84.11
67.85
51.49
35.64
21.55
10.28
1.80
-5.26
-12.93
-22.76
-34.88
-47.88
-59.70
-68.73
-74.63
-78.25
-81.06
-84.35
-88.77
-94.29
-100.42
-106.46
-111.66
-115.46
-117.63
-118.51
-118.84
-119.40
-120.54
-121.70
-121.50
-118.26
-110.79
-99.08
-84.37
-68.58
-53.44
-39.71
-27.02
-14.28
-0.42
15.00
31.73
49.09
66.46
83.33
99.07
112.71
122.92
128.50
128.92
124.65
116.87
106.75
94.93
81.55
66.84
51.87
38.66
29.60
26.35
28.89
35.24
42.13
46.19
45.24
39.14
29.73
19.80
11.84
6.84
4.10
2.05
-0.66
-4.41
-8.82
-13.46
-18.43
-24.10
-30.17
-34.88
-35.33
-29.07
-15.93
1.07
16.81
26.52
28.19
23.20
15.12
7.45
1.82
-2.29
-6.30
-10.90
-15.10
-16.45
-12.37
-1.78
13.74
30.03
42.07
46.49
43.40
36.53
31.16
30.91
35.25
39.40
36.87
23.12
-1.78
-33.14
-64.07
-88.77
-104.67
-112.32
-113.74
-110.53
-103.26
-91.99
-77.51
-61.71
-47.09
-35.82
-28.80
-25.47
-24.39
-24.13
-23.82
-23.27
-22.62
-21.97
-21.17
-19.91
-18.03
-15.69
-13.43
-11.90
-11.57
-12.54
-14.59
-17.30
-20.31
-23.44
-26.70
-30.11
-33.58
-36.84
-39.46
-41.09
-41.63
-41.36
-40.84
-40.63
-40.77
-40.67
-39.25
-35.58
-29.58
-22.42
-16.13
-12.66
-12.91
-16.16
-20.53
-23.98
-25.40
-25.02
-23.82
-22.58
-21.07
-17.98
-11.59
-0.60
15.38
35.97
60.40
87.80
116.93
145.67
170.93
189.22
197.84
196.09
185.88
171.18
156.79
146.61
142.54
143.99
148.25
151.45
149.96
141.74
127.15
108.92
91.09
77.40
69.67
67.05
66.58
64.60
58.42
47.25
32.19
15.24
-1.75
-17.82
-32.83
-46.90
-59.76
-70.55
-78.15
-81.87
-82.07
-80.21
-78.29
-78.02
-79.94
-83.23
-86.11
-86.71
-83.98
-78.10
-70.30
-62.23
-55.10
-49.18
-43.82
-37.89
-30.48
-21.42
-11.39
-1.60
6.90
13.67
19.11
24.07
29.22
34.47
38.85
40.87
39.29
33.71
24.83
14.17
3.45
-6.03
-13.69
-19.58
-24.05
-27.53
-30.35
-32.80
-35.24
-38.00
-41.33
-45.20
-49.30
-53.13
-56.25
-58.36
-59.46
-59.73
-59.43
-58.75
-57.65
-56.00
-53.58
-50.41
-46.93
-44.00
-42.78
-44.20
-48.62
-55.51
-63.61
-71.30
-77.15
-80.30
-80.62
-78.57
-75.00
-70.87
-66.91
-63.27
-59.38
-54.16
-46.53
-36.08
-23.46
-10.18
2.10
12.41
20.94
28.61
36.24
43.68
49.71
52.71
51.78
47.40
41.22
35.04
29.64
24.35
17.54
7.81
-4.97
-19.35
-32.99
-43.76
-50.60
-53.82
-54.67
-54.78
-55.76
-58.90
-65.04
-74.25
-85.48
-96.40
-103.86
-105.01
-98.54
-85.41
-68.55
-51.62
-37.53
-27.55
-21.07
-16.32
-11.19
-3.84
6.91
21.44
39.24
58.90
78.27
95.01
107.14
113.69
114.79
111.48
105.13
97.00
88.04
79.00
70.65
63.86
59.51
58.33
60.62
66.19
74.42
84.55
95.83
107.70
119.71
131.39
142.09
151.03
157.55
161.29
162.41
161.39
158.89
155.59
152.16
149.26
147.57
147.55
149.11
151.42
152.73
150.52
141.88
124.07
95.38
55.98
8.42
-42.73
-91.91
-134.09
-166.07
-186.85
-197.13
-198.35
-192.05
-179.80
-163.56
-145.89
-129.58
-116.77
-108.03
-102.17
-96.88
-89.91
-80.15
-68.13
-55.52
-44.43
-36.56
-32.75
-32.99
-36.51
-41.99
-47.77
-52.06
-53.28
-50.57
-44.17
-35.43
-26.40
-18.92
-13.76
-10.12
-5.83
1.67
14.15
31.70
52.55
73.54
91.21
102.64
106.20
101.61
89.87
72.95
53.44
34.22
17.99
6.85
1.73
2.22
6.66
12.68
18.03
21.18
21.65
19.66
15.66
9.89
2.24
-7.47
-19.03
-31.52
-43.32
-52.55
-57.68
-58.02
-53.95
-47.02
-39.84
-35.88
-38.70
-50.47
-70.61
-95.05
-117.35
-131.26
-133.62
-126.06
-114.28
-105.14
-103.13
-108.28
-116.53
-122.46
-122.41
-116.36
-107.20
-98.53
-92.17
-87.14
-80.54
-69.73
-54.12
-35.88
-18.87
-6.69
-0.95
-0.59
-2.75
-4.31
-3.37
0.19
5.17
10.11
14.19
17.72
21.93
28.36
38.14
51.57
67.73
84.64
99.74
110.73
116.62
118.13
117.53
117.53
119.98
125.15
132.03
139.38
146.86
155.41
166.45
180.72
197.17
213.01
224.60
229.00
224.92
212.97
194.92
172.78
148.42
123.56
100.00
79.40
62.61
48.58
33.94
13.77
-16.45
-58.28
-108.93
-161.61
-207.93
-240.97
-257.57
-258.45
-246.75
-225.90
-198.15
-164.78
-127.20
-87.89
-50.25
-17.30
9.78
32.06
51.67
69.69
84.60
92.61
89.90
75.68
54.37
35.35
29.84
46.19
85.74
141.21
198.80
242.85
261.47
250.29
213.32
160.68
104.67
56.08
21.79
4.19
1.85
10.67
25.20
39.72
49.28
50.50
42.07
24.93
1.87
-22.98
-45.14
-60.65
-67.14
-64.54
-55.08
-42.61
-31.37
-24.56
-23.28
-26.41
-31.25
-34.62
-34.04
-28.58
-19.15
-8.15
1.41
7.17
8.32
5.88
2.26
0.01
0.84
4.97
11.26
17.89
23.07
25.52
24.56
20.11
12.40
1.93
-10.66
-24.58
-38.90
-52.45
-63.95
-72.09
-75.81
-74.63
-68.79
-59.27
-47.59
-35.57
-25.02
-17.51
-14.02
-14.59
-18.21
-23.02
-27.16
-29.71
-31.28
-33.67
-38.78
-47.31
-58.04
-68.29
-75.18
-77.04
-74.26
-69.04
-64.43
-63.13
-66.56
-74.65
-86.04
-98.66
-110.31
-119.19
-124.42
-126.02
-124.72
-121.36
-116.41
-109.81
-101.20
-90.37
-77.64
-63.82
-49.69
-35.59
-21.16
-5.54
11.98
31.30
51.27
70.15
86.61
100.43
112.59
124.44
136.48
147.61
155.58
158.38
155.68
149.45
143.12
139.72
140.33
143.59
146.79
147.68
145.95
143.25
141.81
142.60
144.35
144.01
138.38
125.91
107.98
88.69
73.39
66.51
69.57
80.28
93.14
101.21
98.52
81.74
50.92
8.80
-40.65
-93.49
-146.14
-194.95
-235.53
-263.27
-275.21
-272.65
-262.32
-254.61
-258.99
-278.89
-308.94
-336.47
-347.05
-331.34
-289.65
-231.59
-171.50
-121.95
-88.90
-70.97
-62.19
-56.53
-51.15
-46.99
-47.06
-53.73
-66.93
-84.23
-102.16
-117.84
-130.31
-140.28
-149.27
-158.55
-168.50
-178.62
-187.95
-195.48
-200.54
-202.78
-202.12
-198.45
-191.52
-180.75
-165.24
-144.06
-116.68
-83.24
-44.76
-3.02
39.80
81.77
121.61
159.15
195.29
231.61
269.95
312.00
359.25
412.77
472.55
536.59
600.02
655.39
694.42
710.66
702.08
671.87
627.13
576.04
524.93
476.93
432.42
390.73
351.73
316.34
285.74
260.20
238.47
218.09
196.59
172.59
146.35
119.66
94.75
73.17
54.98
38.64
21.53
1.09
-24.21
-54.21
-87.16
-120.45
-151.67
-179.49
-204.16
-227.38
-251.64
-279.32
-311.82
-348.81
-387.96
-425.00
-454.32
-469.94
-466.84
-442.39
-397.60
-337.46
-270.16
-205.23
-150.97
-112.53
-91.05
-84.39
-88.89
-101.07
-118.45
-139.38
-162.11
-184.19
-202.60
-214.66
-219.01
-216.16
-208.13
-197.54
-186.60
-176.45
-167.00
-157.39
-146.51
-133.60
-118.50
-101.35
-81.94
-59.15
-30.89
5.00
49.14
99.20
149.65
193.14
222.92
235.08
229.51
209.17
178.56
142.27
104.44
68.79
38.85
17.42
5.62
2.01
2.64
2.24
-3.95
-18.47
-40.98
-68.72
-97.73
-124.24
-145.58
-160.58
-169.25
-172.19
-170.02
-163.15
-151.72
-135.85
-115.83
-92.25
-66.08
-38.86
-12.67
10.06
27.11
37.27
40.98
40.20
37.54
34.96
32.81
29.93
24.74
16.69
7.15
-0.90
-4.34
-1.53
6.73
17.45
26.83
31.79
31.10
25.39
16.38
5.82
-5.04
-15.44
-24.54
-30.97
-32.81
-28.27
-16.63
0.99
21.72
41.66
57.22
66.38
69.32
68.13
65.77
64.71
65.85
68.21
69.39
66.61
57.87
42.76
22.69
0.39
-20.78
-37.64
-47.89
-50.41
-45.37
-33.92
-17.98
0.16
17.85
32.19
40.10
38.81
26.71
4.22
-25.74
-58.28
-87.89
-110.04
-122.18
-123.88
-116.17
-100.86
-80.36
-57.80
-37.04
-22.06
-15.53
-17.53
-25.23
-33.95
-39.11
-38.47
-32.99
-26.19
-22.16
-23.34
-29.29
-36.91
-41.91
-40.44
-30.65
-13.34
8.02
27.87
39.39
35.68
11.47
-34.87
-99.54
-173.13
-242.42
-294.15
-319.30
-315.72
-288.24
-245.96
-198.40
-152.51
-111.55
-75.73
-43.94
-14.90
12.67
40.61
71.28
106.62
146.31
186.64
221.08
242.64
246.69
233.18
206.59
173.94
142.06
115.40
95.39
81.15
70.92
63.09
56.53
50.47
44.37
38.23
32.82
29.86
31.45
39.16
53.50
73.71
98.30
125.78
155.08
185.48
216.17
245.69
271.91
292.62
306.45
313.36
314.53
311.64
306.28
299.83
293.66
289.31
288.40
292.12
300.74
313.38
328.15
342.54
353.84
359.46
357.36
346.65
328.02
303.94
278.03
253.82
233.44
216.84
202.24
187.38
170.82
152.37
132.78
112.75
92.16
69.77
43.80
12.65
-24.62
-68.23
-117.83
-172.22
-228.57
-282.02
-326.15
-354.89
-365.24
-359.18
-343.70
-328.32
-321.37
-326.57
-341.77
-359.99
-372.24
-370.50
-349.50
-307.03
-243.41
-161.25
-65.80
34.58
128.82
205.15
254.16
271.72
260.34
228.05
185.19
140.64
99.19
61.09
23.46
-17.38
-63.53
-114.35
-166.16
-213.27
-249.70
-271.26
-277.24
-270.85
-258.06
-245.17
-236.49
-233.01
-232.85
-232.78
-229.98
-222.66
-209.88
-190.76
-164.23
-129.62
-87.78
-41.84
3.13
41.44
68.63
82.95
85.64
80.25
71.12
62.01
55.30
51.91
51.61
53.56
56.59
59.32
60.23
57.79
50.84
38.99
23.05
4.96
-12.48
-26.52
-35.44
-39.15
-39.40
-38.99
-40.70
-46.04
-54.67
-64.55
-72.77
-76.67
-74.78
-67.07
-54.74
-39.55
-23.14
-6.61
9.46
24.77
38.96
51.41
61.32
67.98
71.11
70.90
67.93
62.96
56.78
50.16
43.79
38.16
33.42
29.34
25.59
22.26
20.18
20.77
25.41
34.41
46.49
58.80
67.90
71.02
67.05
56.82
42.63
27.39
13.54
2.33
-6.51
-14.56
-23.80
-35.69
-50.36
-66.64
-82.79
-97.80
-112.10
-127.31
-144.78
-163.77
-180.71
-190.17
-187.47
-171.12
-143.69
-110.65
-77.99
-49.90
-27.81
-10.75
3.55
17.77
34.34
55.05
80.64
110.34
141.90
172.39
199.02
219.87
233.91
240.69
240.11
232.73
220.24
205.37
190.94
178.36
166.86
153.97
137.14
115.46
90.37
64.89
41.96
23.08
8.02
-4.38
-15.13
-24.28
-30.96
-34.07
-33.13
-28.79
-22.96
-18.19
-16.58
-19.00
-24.69
-31.54
-36.77
-37.92
-33.51
-23.28
-8.06
10.51
30.11
47.62
59.04
60.09
47.63
21.59
-13.69
-49.80
-76.68
-86.41
-76.45
-50.86
-18.49
10.76
29.83
36.65
33.67
25.42
15.83
6.83
-1.56
-10.01
-18.70
-26.91
-33.45
-37.45
-38.93
-38.91
-38.76
-39.44
-40.88
-42.07
-41.82
-39.67
-36.60
-34.90
-37.12
-44.78
-57.36
-72.19
-85.46
-93.69
-95.11
-90.07
-80.66
-69.70
-59.71
-52.43
-48.55
-47.95
-49.82
-52.78
-55.21
-55.57
-52.92
-47.28
-39.59
-31.30
-23.81
-17.92
-13.74
-10.89
-8.87
-7.35
-6.28
-5.77
-5.93
-6.70
-7.84
-9.00
-9.83
-10.22
-10.30
-10.52
-11.52
-13.76
-17.44
-22.30
-27.83
-33.57
-39.37
-45.32
-51.56
-57.89
-63.68
-68.13
-70.76
-71.98
-73.06
-75.65
-80.97
-88.93
-98.13
-106.23
-111.33
-112.95
-112.36
-111.93
-113.80
-118.66
-125.17
-130.40
-130.60
-122.29
-102.96
-71.75
-30.01
18.28
66.48
106.36
130.21
133.57
117.35
88.09
55.89
30.85
19.54
23.25
38.67
60.38
83.66
106.13
127.44
147.57
165.18
177.09
179.46
169.80
148.67
119.89
89.02
61.09
38.61
20.99
5.52
-10.57
-28.11
-45.21
-57.84
-61.71
-54.33
-36.24
-10.88
16.85
42.46
63.23
78.63
89.57
97.26
102.16
103.61
100.25
90.81
75.00
54.09
30.91
9.25
-7.35
-16.69
-18.60
-14.90
-8.31
-1.14
5.19
9.79
11.61
9.52
3.41
-4.66
-10.38
-8.99
1.75
19.27
36.48
45.17
40.45
23.84
2.68
-13.83
-19.76
-15.27
-5.89
1.22
1.75
-3.68
-10.80
-15.15
-15.05
-12.22
-9.92
-10.06
-11.81
-12.70
-11.33
-9.31
-10.64
-18.98
-34.49
-52.85
-67.19
-72.13
-66.91
-55.86
-45.99
-43.22
-49.12
-60.01
-68.67
-67.80
-53.63
-28.11
1.03
23.34
30.42
20.27
-1.21
-22.83
-33.84
-29.84
-14.98
0.67
7.29
1.09
-13.79
-28.29
-34.13
-28.67
-15.70
-2.65
4.36
3.98
0.02
-1.82
1.62
8.53
13.38
11.04
0.83
-12.19
-20.08
-16.97
-3.18
14.55
27.06
28.19
18.11
2.74
-10.56
-17.40
-18.46
-17.88
-19.85
-26.09
-35.59
-45.87
-54.25
-58.19
-55.27
-44.16
-26.08
-5.95
8.77
11.54
0.66
-19.16
-39.22
-51.98
-55.11
-51.75
-46.57
-41.04
-31.95
-14.32
13.09
44.36
68.19
74.38
60.43
33.75
7.49
-7.06
-6.96
1.73
8.89
7.23
-3.70
-18.78
-32.03
-40.88
-46.78
-52.51
-58.51
-61.83
-58.26
-45.77
-26.65
-6.37
9.58
18.72
22.19
23.01
23.79
25.62
28.53
32.79
39.59
50.15
64.41
80.01
92.91
98.80
94.50
79.09
54.53
26.04
1.36
-11.09
-5.78
16.26
46.21
70.30
76.18
59.39
26.32
-9.01
-32.13
-35.91
-23.83
-7.33
0.98
-5.76
-26.21
-52.83
-76.73
-91.65
-95.29
-88.36
-72.72
-50.46
-24.04
2.81
25.24
38.76
41.20
33.85
21.08
8.34
-0.42
-4.28
-5.35
-7.27
-13.14
-23.87
-37.64
-50.55
-58.18
-57.46
-47.93
-32.13
-14.76
-0.81
6.43
6.75
2.58
-2.99
-8.20
-13.15
-18.33
-22.59
-22.64
-14.85
1.48
21.96
38.24
42.24
31.16
9.86
-11.49
-22.79
-19.66
-5.24
12.30
24.90
28.58
23.98
14.28
2.69
-8.50
-17.07
-20.20
-15.14
-1.57
16.57
31.38
34.39
21.11
-6.29
-39.79
-69.58
-88.74
-95.76
-93.45
-85.75
-74.58
-59.15
-37.77
-10.58
19.00
45.19
62.31
67.60
62.35
51.29
40.00
32.31
28.56
26.04
20.64
9.27
-8.20
-28.32
-44.97
-51.66
-44.33
-23.53
5.13
32.51
49.34
50.16
35.91
13.78
-6.10
-15.54
-12.14
-0.04
12.86
19.78
18.85
13.60
10.31
13.76
24.55
39.27
53.18
63.35
70.00
75.57
82.13
89.39
94.75
94.84
87.21
71.25
48.42
22.09
-2.88
-20.75
-26.81
-19.73
-3.45
13.55
21.55
14.14
-8.55
-39.66
-68.68
-86.11
-87.19
-73.16
-49.94
-25.06
-4.58
8.91
16.41
21.25
26.57
33.10
38.41
38.16
28.89
10.20
-14.61
-39.70
-59.00
-68.02
-64.63
-49.20
-24.89
2.64
26.32
40.21
42.17
34.94
24.49
16.21
11.45
7.13
-1.29
-15.70
-33.48
-49.13
-58.29
-60.48
-58.58
-55.69
-52.11
-45.01
-31.53
-12.38
7.27
20.50
23.35
17.57
9.47
5.47
7.84
13.60
17.33
15.65
10.00
5.71
8.20
19.16
35.09
49.31
55.57
51.31
38.43
22.03
7.27
-3.25
-10.31
-16.72
-24.53
-32.63
-36.64
-31.51
-15.48
7.61
29.21
40.24
36.05
19.07
-2.62
-19.72
-26.60
-23.50
-15.10
-6.75
-1.23
2.05
5.51
11.06
18.84
27.65
35.98
42.94
48.26
51.81
52.97
50.80
44.57
34.32
21.07
6.37
-8.41
-22.68
-36.67
-51.08
-66.43
-82.49
-97.67
-108.92
-112.08
-103.16
-80.16
-44.77
-3.00
36.04
63.07
71.98
61.90
37.23
5.37
-26.24
-52.44
-70.82
-80.78
-82.14
-74.55
-57.93
-33.53
-4.49
24.67
49.29
66.18
74.42
75.21
70.93
64.11
56.65
49.64
43.50
38.01
32.20
24.34
12.29
-5.55
-29.16
-56.43
-83.55
-106.29
-121.34
-127.16
-123.71
-111.83
-92.59
-67.31
-38.18
-8.85
15.71
30.28
31.13
17.40
-8.29
-40.62
-73.15
-100.23
-118.43
-127.26
-128.65
-125.71
-121.25
-116.84
-112.77
-108.60
-104.02
-99.13
-94.35
-89.74
-84.65
-77.67
-67.11
-51.92
-32.54
-11.35
7.72
20.33
23.37
16.55
3.04
-11.22
-19.46
-16.66
-1.26
24.41
55.67
87.64
117.30
144.31
170.73
199.82
234.72
276.84
324.64
373.20
414.78
440.85
444.83
424.31
381.82
323.81
258.03
191.04
126.67
65.75
6.84
-52.53
-114.63
-180.12
-246.91
-309.66
-360.56
-391.35
-396.16
-373.72
-327.99
-267.21
-201.82
-142.09
-96.25
-69.27
-61.80
-69.95
-85.85
-99.46
-101.66
-87.66
-59.24
-24.53
5.03
19.54
15.13
-4.08
-27.58
-42.99
-41.16
-19.48
18.13
64.12
111.40
156.07
197.94
239.24
282.64
330.05
382.06
437.58
493.51
544.48
583.30
602.94
598.95
571.25
524.41
465.94
403.58
343.10
287.56
237.92
194.35
156.94
125.50
98.88
74.54
48.96
18.86
-17.60
-60.21
-107.06
-155.42
-202.82
-247.42
-287.83
-322.82
-351.30
-372.94
-389.00
-402.47
-417.25
-436.24
-459.34
-482.65
-499.43
-502.72
-488.22
-456.01
-410.39
-358.00
-305.28
-256.53
-213.40
-175.54
-141.98
-112.13
-86.19
-64.70
-47.90
-35.29
-25.56
-17.18
-8.89
0.00
9.60
19.92
31.38
44.95
61.94
83.43
109.42
138.21
166.65
190.82
207.32
214.46
212.90
205.27
195.12
185.76
179.52
177.72
180.97
189.66
204.12
224.51
250.60
281.58
315.98
351.50
384.82
411.58
426.94
426.68
408.60
373.39
324.55
267.28
206.96
147.86
92.49
42.07
-2.99
-42.83
-78.03
-109.83
-140.39
-172.62
-209.32
-251.89
-298.97
-345.98
-386.03
-412.11
-419.82
-409.19
-384.68
-353.22
-321.38
-293.14
-269.19
-248.10
-227.97
-207.93
-188.31
-169.99
-153.39
-138.05
-123.03
-107.58
-91.75
-76.39
-62.76
-51.80
-43.75
-38.22
-34.62
-32.65
-32.55
-34.84
-39.83
-47.05
-54.98
-61.40
-64.06
-61.43
-53.19
-40.25
-24.36
-7.52
8.53
22.54
33.80
42.00
47.10
49.26
48.87
46.51
42.94
38.93
35.16
32.07
29.78
28.20
27.13
26.38
25.93
25.82
26.01
26.22
25.84
24.02
19.98
13.35
4.58
-5.06
-13.69
-19.40
-20.78
-17.35
-9.65
0.99
12.96
24.81
35.60
44.93
52.84
59.48
64.92
69.11
71.98
73.59
74.15
73.98
73.25
71.82
69.26
65.12
59.24
51.94
43.97
36.22
29.32
23.43
18.25
13.24
7.94
2.21
-3.72
-9.25
-13.60
-15.91
-15.45
-11.77
-4.90
4.51
15.25
25.83
34.80
41.22
44.82
45.90
45.10
43.04
40.15
36.72
32.99
29.24
25.68
22.29
18.70
14.33
8.73
1.79
-6.00
-13.85
-21.00
-27.08
-32.30
-37.22
-42.52
-48.57
-55.34
-62.29
-68.64
-73.65
-76.89
-78.32
-78.24
-77.09
-75.16
-72.58
-69.54
-66.43
-64.04
-63.22
-64.49
-67.66
-71.77
-75.48
-77.53
-77.14
-74.13
-68.83
-61.84
-53.96
-46.09
-39.11
-33.69
-30.01
-27.42
-24.51
-19.54
-11.20
0.47
13.84
26.15
34.79
38.69
39.03
38.86
41.62
49.47
62.22
77.52
92.12
103.43
110.48
113.87
115.05
115.35
115.44
115.42
115.13
114.55
113.94
113.84
114.79
117.11
120.71
125.01
129.04
131.79
132.71
132.07
130.94
130.79
132.62
136.44
141.10
144.90
146.45
145.40
142.47
138.89
135.55
132.46
128.81
123.69
116.89
109.23
102.33
97.92
97.18
100.41
107.14
116.34
126.49
135.61
141.33
141.23
133.62
118.26
96.68
71.85
47.26
25.77
8.87
-3.44
-12.23
-18.85
-24.39
-29.50
-34.67
-40.57
-48.29
-59.21
-74.58
-95.03
-120.03
-147.86
-175.72
-200.32
-218.60
-228.49
-229.41
-222.39
-209.78
-194.79
-180.86
-171.16
-168.00
-172.11
-181.96
-193.49
-200.85
-198.21
-181.92
-152.05
-112.45
-69.11
-27.80
7.85
36.75
59.52
77.03
89.58
97.04
99.57
98.31
95.34
92.85
92.16
93.25
94.95
95.81
94.91
92.35
89.10
86.33
84.67
83.81
82.79
80.58
76.78
71.83
66.62
61.84
57.36
52.25
45.37
36.15
25.07
13.61
3.57
-3.63
-7.42
-8.12
-6.61
-3.87
-0.73
2.23
4.56
5.93
6.13
5.25
3.85
2.87
3.26
5.57
9.56
14.20
18.02
19.63
18.35
14.51
9.35
4.74
2.55
4.00
9.24
17.16
25.84
33.29
38.30
40.96
42.41
44.13
46.93
50.41
53.33
54.40
53.03
49.53
44.61
38.57
31.09
21.45
9.53
-3.63
-15.93
-25.25
-30.71
-33.43
-36.05
-41.28
-50.22
-61.58
-72.15
-78.49
-78.81
-73.89
-66.64
-60.54
-57.76
-58.33
-60.61
-62.55
-62.81
-61.00
-57.20
-51.78
-45.70
-41.58
-43.69
-56.46
-81.52
-115.02
-147.02
-164.10
-154.39
-112.77
-43.70
39.96
121.40
185.62
223.63
234.00
221.31
193.10
156.77
117.84
79.54
43.55
10.85
-18.23
-44.62
-71.11
-101.99
-141.01
-188.79
-240.88
-287.98
-318.68
-323.24
-297.44
-244.42
-174.01
-99.90
-35.87
7.59
25.23
17.29
-11.72
-54.97
-105.11
-155.54
-200.73
-236.15
-258.03
-263.64
-251.81
-223.79
-183.14
-134.88
-83.90
-33.49
15.30
63.06
110.76
158.51
204.97
247.82
284.70
314.00
335.13
347.84
351.69
345.73
329.04
301.62
265.24
223.46
180.82
141.40
107.66
79.90
56.60
35.40
13.97
-9.11
-34.05
-59.93
-85.01
-107.02
-123.71
-133.29
-134.93
-129.02
-117.02
-101.16
-83.88
-67.39
-53.38
-42.98
-36.69
-34.33
-35.02
-37.27
-39.40
-40.05
-38.57
-35.19
-30.59
-25.43
-19.78
-13.06
-4.44
6.47
19.02
31.43
41.18
45.81
43.77
34.80
20.06
1.68
-17.75
-35.78
-50.52
-60.84
-66.38
-67.35
-64.36
-58.23
-49.95
-40.62
-31.42
-23.49
-17.69
-14.57
-14.29
-16.85
-22.30
-30.85
-42.71
-57.63
-74.42
-90.84
-103.90
-110.68
-109.29
-99.54
-83.14
-63.21
-43.51
-27.48
-17.45
-14.25
-17.07
-23.80
-31.48
-37.01
-37.80
-32.45
-21.05
-5.12
12.83
29.97
43.96
53.44
58.26
59.24
57.82
55.52
53.38
51.76
50.28
48.10
44.29
38.24
29.92
19.92
9.27
-0.84
-9.41
-15.73
-19.60
-21.35
-21.74
-21.81
-22.62
-24.83
-28.48
-32.88
-36.87
-39.40
-39.99
-38.93
-37.13
-35.63
-35.03
-35.16
-35.15
-33.89
-30.60
-25.21
-18.53
-12.01
-7.17
-5.13
-6.17
-9.68
-14.40
-18.89
-21.98
-23.10
-22.32
-20.20
-17.57
-15.33
-14.29
-15.11
-18.12
-23.08
-29.08
-34.43
-37.04
-35.09
-27.65
-15.19
0.49
16.73
30.92
41.32
47.42
49.85
49.85
48.55
46.55
43.90
40.39
36.09
31.62
28.00
26.26
26.95
29.84
34.07
38.62
42.77
46.33
49.46
52.45
55.31
57.77
59.54
60.63
61.48
62.82
65.09
67.97
70.05
69.13
63.01
50.51
32.34
11.22
-8.71
-23.08
-28.70
-24.41
-11.36
7.54
28.62
48.21
63.25
71.38
70.94
61.03
41.85
14.98
-16.65
-49.12
-78.38
-101.09
-115.34
-120.86
-118.81
-111.20
-100.37
-88.49
-77.42
-68.54
-62.72
-60.26
-60.73
-62.98
-65.33
-66.01
-63.74
-58.20
-50.25
-41.60
-34.09
-28.93
-26.16
-24.68
-22.72
-18.51
-10.83
0.62
15.31
32.13
49.59
66.16
80.50
91.60
98.93
102.48
102.63
100.11
95.84
90.71
85.47
80.48
75.68
70.65
64.95
58.46
51.63
45.32
40.48
37.57
36.32
35.82
35.06
33.56
31.65
30.24
30.29
32.16
35.28
38.30
39.43
37.13
30.48
19.55
5.52
-9.49
-22.81
-32.03
-35.84
-34.60
-30.30
-25.76
-23.42
-24.25
-27.43
-30.95
-32.74
-31.82
-28.83
-25.69
-24.67
-27.40
-34.20
-44.01
-54.69
-63.60
-68.22
-66.68
-58.12
-42.90
-22.55
0.58
23.76
44.48
60.76
71.40
76.03
75.03
69.38
60.59
50.43
40.57
32.33
26.38
22.77
20.96
20.18
19.52
18.28
16.05
12.94
9.62
7.16
6.60
8.38
11.83
15.11
15.81
11.77
1.95
-13.07
-31.39
-50.34
-67.29
-80.17
-87.68
-89.33
-85.44
-77.14
-66.30
-55.16
-45.66
-38.57
-33.24
-27.96
-21.03
-11.95
-2.08
5.82
8.72
4.81
-5.62
-20.21
-35.29
-46.96
-52.16
-49.21
-38.12
-20.55
0.52
21.26
37.92
47.60
48.84
41.75
27.68
8.87
-11.98
-31.92
-48.13
-58.38
-61.60
-58.16
-49.61
-38.06
-25.33
-12.58
-0.34
11.18
21.74
31.10
39.27
46.74
54.20
62.08
70.02
76.75
80.60
80.32
75.81
68.49
60.71
54.90
52.54
53.48
56.07
57.75
56.13
49.91
39.30
25.77
11.31
-2.51
-15.19
-27.38
-40.47
-55.82
-74.25
-95.79
-119.97
-146.07
-173.33
-200.79
-227.02
-249.95
-267.13
-276.42
-276.59
-267.93
-252.19
-232.12
-210.67
-190.13
-171.55
-154.58
-137.63
-118.60
-95.61
-67.82
-35.77
-1.33
32.80
63.90
90.02
110.40
125.62
137.22
147.20
157.40
169.04
182.31
196.18
208.37
215.66
214.83
203.97
183.85
158.51
134.45
118.42
114.68
123.05
138.88
154.93
164.33
163.08
150.90
130.33
105.00
78.12
51.97
28.33
8.93
-4.54
-10.99
-10.70
-5.67
0.98
6.15
8.03
6.74
4.04
2.23
2.99
6.51
11.51
15.93
17.93
16.69
12.46
6.32
-0.63
-7.83
-15.47
-24.44
-36.00
-51.26
-70.63
-93.17
-116.34
-136.26
-148.84
-151.47
-144.22
-130.17
-114.22
-101.03
-93.15
-90.19
-89.56
-88.17
-84.01
-76.87
-67.97
-58.98
-51.19
-45.05
-40.38
-36.75
-33.60
-30.32
-26.32
-21.05
-14.29
-6.52
0.86
5.71
5.81
-0.13
-11.76
-26.93
-42.45
-55.38
-64.20
-69.12
-71.28
-71.48
-69.22
-62.93
-51.17
-34.03
-13.57
6.93
24.64
38.65
50.24
61.82
75.30
90.80
106.57
119.92
128.59
131.90
130.82
127.42
123.87
121.57
120.79
120.75
120.12
117.48
111.86
102.95
91.28
78.06
64.90
53.35
44.35
37.91
32.96
27.54
19.31
6.29
-12.29
-35.42
-60.20
-82.63
-98.86
-106.52
-105.48
-97.48
-85.26
-71.28
-57.03
-43.12
-29.96
-18.24
-8.96
-2.74
0.87
3.55
7.52
14.59
25.34
38.90
53.27
65.72
73.23
72.92
62.77
42.41
13.79
-18.97
-50.67
-76.54
-93.68
-101.69
-102.16
-97.60
-90.24
-81.53
-72.26
-62.98
-54.35
-47.10
-41.66
-37.90
-35.07
-32.00
-27.61
-21.24
-12.96
-3.43
6.37
15.66
24.07
31.66
38.76
45.57
52.12
58.22
63.72
68.64
73.25
77.84
82.54
86.99
90.38
91.56
89.48
83.46
73.53
60.41
45.39
30.02
15.73
3.47
-6.40
-14.09
-20.14
-25.05
-29.09
-32.11
-33.75
-33.55
-31.27
-26.97
-20.97
-13.81
-6.03
1.94
9.84
17.63
25.40
33.24
40.99
48.10
53.53
55.96
54.23
47.88
37.54
24.87
12.14
1.48
-5.79
-9.42
-9.99
-8.52
-6.00
-3.23
-0.91
0.26
-0.50
-3.82
-9.88
-18.31
-28.16
-38.25
-47.47
-55.05
-60.45
-63.21
-62.80
-58.56
-50.09
-37.62
-22.36
-6.56
7.14
16.53
20.78
20.79
18.80
17.40
18.35
21.96
27.28
32.75
37.17
40.19
42.08
43.24
43.77
43.93
44.75
48.14
55.87
67.63
79.80
85.98
79.79
58.33
24.47
-13.85
-47.07
-68.20
-75.48
-71.97
-62.86
-52.22
-41.38
-29.39
-14.95
1.81
18.95
33.62
43.36
47.12
45.63
40.74
34.64
28.97
24.28
20.05
15.21
8.91
1.15
-7.01
-14.00
-18.47
-20.03
-19.42
-18.02
-17.10
-17.13
-17.64
-17.54
-15.87
-12.42
-7.93
-3.92
-2.13
-3.95
-9.87
-19.33
-30.78
-42.10
-51.10
-56.12
-56.43
-52.31
-44.88
-35.63
-25.93
-16.77
-8.70
-1.99
3.22
6.87
9.05
10.06
10.37
10.54
10.99
11.87
13.04
14.14
14.79
14.72
13.92
12.61
11.13
9.66
8.19
6.56
4.67
2.69
1.01
0.04
-0.15
-0.07
-0.73
-3.16
-7.84
-14.40
-21.66
-28.13
-32.56
-34.33
-33.41
-30.12
-24.76
-17.55
-8.74
1.11
11.00
19.62
25.67
28.29
27.40
23.72
18.49
13.09
8.67
5.81
4.53
4.37
4.57
4.41
3.37
1.27
-1.74
-5.34
-9.22
-13.26
-17.58
-22.47
-28.18
-34.72
-41.73
-48.38
-53.55
-56.03
-54.88
-49.72
-40.89
-29.40
-16.70
-4.31
6.54
15.11
21.22
25.03
26.93
27.27
26.31
24.27
21.35
17.87
14.23
10.89
8.23
6.40
5.37
4.86
4.57
4.28
3.95
3.67
3.58
3.69
3.78
3.46
2.29
0.01
-3.39
-7.57
-11.92
-15.68
-18.05
-18.38
-16.28
-11.84
-5.60
1.41
8.02
13.27
16.76
18.69
19.63
20.18
20.61
20.83
20.60
19.76
18.49
17.20
16.26
15.76
15.40
14.59
12.83
9.89
6.01
1.72
-2.40
-5.94
-8.81
-11.19
-13.29
-15.31
-17.54
-20.47
-24.90
-31.64
-40.98
-52.10
-63.05
-71.24
-74.49
-71.95
-64.41
-53.85
-42.43
-31.62
-21.81
-12.67
-3.81
4.76
12.43
18.45
22.32
24.05
24.11
23.18
21.76
20.07
18.01
15.39
12.15
8.42
4.54
0.89
-2.30
-5.07
-7.72
-10.68
-14.37
-19.05
-24.77
-31.34
-38.33
-45.10
-50.88
-54.86
-56.30
-54.74
-50.04
-42.44
-32.46
-20.80
-8.17
4.72
17.26
28.75
38.44
45.54
49.47
50.09
47.92
44.02
39.74
36.10
33.54
31.75
30.11
28.15
25.89
23.94
23.17
24.21
27.15
31.43
36.02
39.72
41.47
40.46
36.40
29.52
20.77
11.74
4.38
0.48
1.06
5.98
14.05
23.41
32.25
39.45
44.73
48.51
51.41
53.89
56.01
57.57
58.27
57.87
55.96
51.81
44.28
32.21
15.10
-6.19
-29.30
-50.78
-67.22
-76.27
-77.47
-72.18
-62.95
-52.74
-44.09
-38.84
-37.95
-41.53
-48.93
-58.77
-69.16
-77.95
-83.36
-84.23
-80.40
-72.57
-62.14
-50.76
-39.90
-30.35
-22.11
-14.49
-6.48
2.69
13.19
24.61
36.22
47.44
58.10
68.28
77.91
86.46
92.79
95.66
94.30
89.01
81.17
72.83
65.90
61.49
59.70
59.71
60.36
60.62
59.91
58.11
55.48
52.53
49.88
48.35
48.76
51.77
57.51
65.37
74.04
81.81
87.11
88.96
87.19
82.29
75.10
66.41
56.72
46.29
35.31
24.10
13.16
3.01
-5.96
-13.66
-20.32
-26.32
-32.00
-37.49
-42.72
-47.47
-51.60
-55.20
-58.72
-62.78
-67.95
-74.40
-81.68
-88.76
-94.24
-96.75
-95.38
-89.95
-81.00
-69.68
-57.43
-45.65
-35.46
-27.59
-22.31
-19.51
-18.79
-19.61
-21.46
-23.91
-26.66
-29.52
-32.35
-35.05
-37.54
-39.77
-41.71
-43.26
-44.30
-44.60
-43.92
-42.11
-39.29
-35.88
-32.55
-30.00
-28.81
-29.24
-31.21
-34.19
-37.36
-39.65
-39.94
-37.36
-31.52
-22.67
-11.64
0.35
12.01
22.16
29.85
34.40
35.51
33.36
28.70
22.77
17.01
12.72
10.70
11.15
13.67
17.47
21.59
25.13
27.46
28.40
28.15
27.20
26.06
24.92
23.63
21.74
18.78
14.48
8.93
2.49
-4.32
-10.92
-16.65
-20.88
-22.94
-22.34
-18.92
-12.99
-5.36
2.86
10.47
16.50
20.36
21.94
21.55
19.69
16.99
13.92
10.88
8.13
5.82
4.04
2.85
2.22
2.15
2.66
3.76
5.47
7.69
10.21
12.59
14.28
14.70
13.35
9.98
4.64
-2.24
-9.80
-16.88
-22.17
-24.62
-23.71
-19.66
-13.35
-5.99
1.33
7.91
13.46
18.00
21.50
23.82
24.74
24.25
22.65
20.57
18.66
17.30
16.45
15.70
14.56
12.77
10.43
7.89
5.55
3.72
2.54
2.05
2.24
2.93
3.74
4.02
3.06
0.48
-3.50
-7.99
-11.69
-13.47
-12.78
-9.81
-5.29
-0.07
5.20
10.22
14.95
19.39
23.41
26.77
29.12
30.21
29.91
28.31
25.69
22.49
19.20
16.18
13.62
11.40
9.29
7.18
5.24
3.93
3.74
4.80
6.62
8.06
7.72
4.45
-2.14
-11.45
-22.00
-31.92
-39.42
-43.29
-43.09
-39.23
-32.68
-24.68
-16.29
-8.21
-0.75
6.03
12.00
16.88
20.15
21.36
20.28
17.08
12.25
6.48
0.41
-5.47
-10.80
-15.27
-18.70
-21.04
-22.53
-23.66
-25.12
-27.44
-30.84
-35.09
-39.56
-43.51
-46.44
-48.30
-49.49
-50.59
-51.99
-53.56
-54.56
-53.79
-50.12
-42.93
-32.46
-19.75
-6.37
6.12
16.60
24.53
29.88
32.92
33.90
33.06
30.68
27.25
23.51
20.37
18.57
18.38
19.40
20.69
21.15
19.94
16.91
12.68
8.45
5.45
4.53
5.72
8.19
10.48
11.04
8.85
3.80
-3.03
-9.65
-13.67
-12.98
-6.38
5.98
22.58
40.86
57.96
71.35
79.53
82.22
80.26
75.13
68.33
60.95
53.43
45.79
37.85
29.59
21.26
13.22
5.77
-1.00
-7.21
-13.05
-18.58
-23.71
-28.23
-32.00
-35.08
-37.86
-40.92
-44.77
-49.67
-55.32
-60.90
-65.21
-67.03
-65.51
-60.50
-52.64
-43.15
-33.52
-25.07
-18.76
-15.04
-13.88
-14.74
-16.59
-18.01
-17.50
-13.91
-6.96
2.51
12.58
20.75
24.62
22.67
14.94
3.27
-9.02
-17.95
-20.22
-14.51
-2.24
12.73
25.32
31.05
27.59
15.55
-1.96
-20.44
-35.47
-43.96
-44.72
-38.45
-27.23
-13.85
-0.94
9.63
17.10
21.69
24.19
25.48
26.20
26.66
27.01
27.32
27.71
28.27
29.03
29.91
30.84
31.72
32.50
33.11
33.41
33.20
32.43
31.31
30.37
30.27
31.38
33.45
35.44
35.89
33.47
27.62
18.97
9.05
-0.23
-7.39
-11.82
-13.82
-14.10
-13.26
-11.54
-8.84
-5.17
-1.02
2.61
4.51
3.88
0.74
-4.01
-8.99
-13.00
-15.59
-17.25
-19.12
-22.34
-27.47
-34.18
-41.36
-47.54
-51.45
-52.43
-50.56
-46.69
-42.21
-38.81
-38.04
-40.90
-47.33
-55.82
-63.49
-66.67
-62.00
-47.63
-24.19
5.05
34.97
60.06
75.97
80.68
74.85
61.22
43.61
25.80
10.75
0.30
-4.83
-4.84
-0.70
5.90
12.79
17.61
18.39
14.11
5.11
-6.90
-19.29
-29.40
-35.30
-36.43
-33.61
-28.66
-23.62
-20.02
-18.43
-18.36
-18.70
-18.17
-15.95
-11.83
-6.26
-0.02
6.11
11.62
16.27
19.94
22.52
23.78
23.48
21.54
18.20
13.99
9.69
5.96
3.29
1.78
1.28
1.42
1.84
2.20
2.32
2.11
1.55
0.60
-0.82
-2.90
-5.81
-9.75
-14.76
-20.74
-27.36
-34.06
-40.01
-44.19
-45.57
-43.33
-37.20
-27.68
-15.95
-3.61
7.84
17.35
24.59
29.74
33.28
35.58
36.87
37.19
36.53
34.96
32.65
29.85
26.77
23.62
20.57
17.66
14.87
12.10
9.24
6.22
3.02
-0.30
-3.68
-7.15
-10.85
-14.98
-19.66
-24.77
-29.79
-33.77
-35.55
-34.03
-28.55
-19.17
-6.69
7.50
21.83
34.82
45.32
52.50
55.87
55.33
51.12
43.84
34.26
23.11
10.93
-1.90
-14.96
-27.56
-38.73
-47.37
-52.59
-54.01
-51.88
-47.06
-40.88
-35.04
-31.35
-31.32
-35.73
-44.07
-54.45
-64.04
-69.98
-70.43
-65.31
-56.19
-45.57
-35.75
-27.93
-21.92
-16.56
-10.51
-2.96
6.10
16.01
25.88
34.93
42.60
48.51
52.34
53.88
53.10
50.32
46.12
41.25
36.42
32.16
28.87
26.85
26.31
27.37
29.99
33.85
38.42
43.00
46.74
48.77
48.34
44.96
38.59
29.73
19.30
8.57
-1.14
-8.65
-12.98
-13.57
-10.36
-3.78
5.20
15.32
25.36
34.41
42.06
48.25
53.10
56.56
58.38
58.21
55.93
51.91
47.03
42.53
39.58
38.85
40.25
42.97
45.71
47.10
46.11
42.26
35.67
26.93
16.82
6.14
-4.46
-14.39
-23.17
-30.36
-35.66
-39.00
-40.67
-41.29
-41.71
-42.75
-45.00
-48.59
-53.04
-57.38
-60.31
-60.65
-57.68
-51.43
-42.65
-32.54
-22.26
-12.61
-3.92
3.77
10.50
16.14
20.43
23.25
24.66
25.03
24.79
24.21
23.26
21.72
19.32
16.06
12.16
8.06
4.14
0.58
-2.74
-6.19
-10.35
-15.80
-23.00
-32.13
-42.79
-53.91
-63.84
-70.76
-73.28
-70.86
-64.08
-54.28
-43.19
-32.30
-22.67
-14.85
-8.89
-4.38
-0.50
3.96
10.26
19.27
30.91
43.97
56.37
65.81
70.51
69.70
63.68
53.58
40.91
27.19
13.75
1.53
-8.95
-17.63
-24.81
-31.01
-36.80
-42.57
-48.45
-54.15
-58.94
-61.68
-61.14
-56.33
-47.05
-34.05
-18.99
-3.91
9.42
20.06
27.92
33.52
37.50
40.23
41.78
42.23
41.93
41.69
42.58
45.54
50.87
58.00
65.62
72.04
75.71
75.63
71.45
63.45
52.28
38.83
23.92
8.24
-7.90
-24.41
-41.34
-58.52
-75.21
-90.13
-101.70
-108.59
-110.27
-107.27
-101.10
-93.88
-87.79
-84.49
-84.52
-87.01
-89.91
-90.78
-87.96
-81.61
-73.84
-67.93
-66.68
-71.01
-79.25
-87.79
-92.49
-90.33
-80.45
-64.31
-44.90
-25.64
-9.38
2.32
9.11
11.51
10.35
6.31
-0.17
-8.56
-17.82
-26.35
-32.24
-33.94
-30.74
-22.83
-11.02
3.75
20.59
38.51
56.12
71.58
83.00
89.06
89.56
85.44
78.29
69.52
59.99
50.05
40.22
31.76
26.79
27.57
35.45
49.86
68.08
85.96
99.29
105.23
103.13
94.27
80.99
65.56
49.53
33.77
19.02
6.40
-2.51
-6.29
-4.47
1.90
10.37
17.92
22.11
21.90
17.76
11.27
4.41
-1.05
-3.77
-2.89
1.74
9.48
18.61
26.50
30.29
27.91
19.12
5.84
-8.32
-19.51
-25.07
-24.60
-19.93
-14.17
-10.42
-10.59
-15.10
-23.13
-33.40
-44.70
-56.10
-66.72
-75.36
-80.47
-80.44
-74.34
-62.48
-46.73
-29.99
-15.38
-5.16
-0.00
1.03
0.02
-0.57
1.17
6.19
14.27
24.30
34.69
43.93
51.14
56.40
60.68
65.28
70.87
76.70
80.42
78.85
69.38
51.33
26.62
-0.63
-25.41
-43.46
-52.51
-52.66
-45.94
-35.31
-23.63
-12.94
-4.25
2.32
7.10
10.45
12.42
12.67
10.69
6.08
-1.03
-9.87
-19.02
-26.74
-31.45
-32.19
-28.97
-22.88
-15.80
-9.93
-7.09
-8.01
-11.93
-16.63
-19.21
-17.19
-9.66
2.09
14.83
24.52
27.69
22.73
10.36
-6.83
-25.31
-41.82
-54.13
-61.27
-63.33
-60.97
-55.06
-46.49
-36.25
-25.56
-15.86
-8.57
-4.70
-4.38
-6.85
-10.64
-14.07
-15.69
-14.59
-10.26
-2.48
8.86
23.68
41.53
61.29
81.29
99.47
113.93
123.39
127.46
126.78
122.78
117.32
112.20
108.66
107.07
106.80
106.43
104.25
98.89
89.92
78.08
65.13
53.19
44.04
38.38
35.78
34.96
34.45
33.26
31.14
28.43
25.65
23.04
20.36
17.02
12.37
6.03
-1.95
-11.06
-20.42
-28.97
-35.61
-39.42
-39.91
-37.19
-32.01
-25.51
-18.85
-12.74
-7.19
-1.58
5.00
13.26
23.33
34.67
46.20
56.61
64.59
69.04
69.26
65.19
57.51
47.59
37.13
27.42
18.72
9.92
-1.24
-17.18
-39.50
-68.10
-101.00
-134.96
-166.48
-192.88
-212.71
-225.76
-232.49
-233.45
-229.05
-219.58
-205.64
-188.36
-169.35
-150.35
-132.79
-117.49
-104.70
-94.38
-86.41
-80.76
-77.23
-75.10
-73.01
-69.13
-61.72
-49.81
-33.62
-14.64
4.84
22.51
36.47
45.76
50.26
50.57
47.83
43.52
39.33
36.70
36.45
38.37
41.20
42.91
41.36
34.87
22.73
5.42
-15.36
-36.68
-54.70
-65.34
-65.35
-53.62
-31.93
-4.55
23.16
46.86
64.68
77.54
88.10
98.90
110.76
122.26
130.34
131.78
124.59
108.75
86.14
59.77
32.82
7.82
-13.76
-31.43
-45.29
-55.65
-62.83
-67.16
-69.08
-69.02
-67.16
-63.25
-56.94
-48.45
-39.20
-31.91
-29.76
-35.13
-48.32
-67.23
-88.15
-107.09
-121.08
-128.75
-130.09
-125.94
-117.53
-106.27
-93.79
-81.81
-71.73
-64.22
-58.97
-54.86
-50.37
-44.19
-35.61
-24.67
-12.01
1.44
14.82
27.59
39.65
51.20
62.63
74.30
86.49
99.22
112.17
124.56
135.11
142.20
144.28
140.30
130.24
115.22
97.36
79.23
63.22
50.88
42.64
37.82
35.14
33.28
31.56
30.00
29.18
29.56
31.00
32.52
32.72
30.40
25.34
18.48
11.67
6.92
5.59
8.01
13.55
21.04
29.28
37.23
43.95
48.42
49.44
45.88
37.10
23.44
6.37
-11.77
-28.43
-41.61
-50.44
-55.31
-57.52
-58.61
-59.72
-61.17
-62.48
-62.75
-61.14
-57.35
-51.69
-44.93
-37.99
-31.59
-26.18
-21.97
-19.04
-17.35
-16.81
-17.25
-18.40
-19.91
-21.39
-22.40
-22.55
-21.50
-19.04
-15.20
-10.17
-4.32
1.80
7.50
11.92
13.95
12.51
6.99
-2.26
-13.61
-24.38
-31.69
-33.63
-30.00
-22.42
-13.47
-5.56
-0.05
2.97
4.06
3.78
2.45
0.53
-0.84
0.33
6.28
18.37
36.03
56.55
75.98
90.52
97.81
97.29
89.75
76.36
58.31
36.78
13.41
-9.48
-29.37
-44.40
-54.21
-59.96
-63.53
-66.41
-68.89
-70.09
-68.84
-64.61
-57.94
-50.01
-41.82
-33.62
-24.81
-14.70
-3.21
8.72
19.38
27.09
31.13
32.20
32.23
33.69
38.51
47.33
59.20
71.90
82.80
89.65
91.17
87.16
78.26
65.76
51.30
36.75
23.86
13.68
6.04
-0.70
-9.17
-21.91
-40.10
-62.67
-86.31
-106.46
-118.82
-120.89
-112.81
-97.40
-79.23
-63.11
-52.60
-49.08
-51.37
-56.23
-59.46
-57.16
-46.76
-27.68
-1.31
29.44
60.80
88.95
110.59
123.42
126.43
120.15
106.42
88.06
68.02
48.65
31.16
15.71
1.93
-10.40
-20.95
-29.05
-34.12
-36.24
-36.10
-34.45
-31.51
-26.63
-18.67
-6.71
9.12
27.49
46.21
63.05
76.37
85.51
90.51
91.72
89.40
83.77
75.29
65.02
54.69
46.38
41.79
41.59
45.11
50.56
55.68
58.48
57.79
53.48
46.20
36.94
26.60
15.75
4.62
-6.63
-17.58
-27.41
-34.94
-39.10
-39.22
-35.41
-28.44
-19.48
-9.73
-0.13
8.66
16.26
22.43
27.04
30.10
31.66
31.82
30.61
27.96
23.77
18.03
10.99
3.14
-4.69
-11.56
-16.58
-19.19
-19.43
-18.00
-16.17
-15.33
-16.58
-20.35
-26.32
-33.60
-41.09
-47.78
-52.86
-55.72
-55.96
-53.41
-48.28
-41.24
-33.33
-25.71
-19.28
-14.40
-10.83
-7.92
-4.91
-1.22
3.36
8.64
14.15
19.24
23.33
26.06
27.40
27.70
27.47
27.23
27.28
27.77
28.63
29.68
30.53
30.50
28.71
24.32
16.96
7.06
-4.10
-14.70
-22.98
-27.67
-28.31
-25.16
-18.97
-10.76
-1.66
7.17
14.70
20.23
23.50
24.74
24.46
23.25
21.61
19.82
18.03
16.17
14.05
11.34
7.72
3.10
-2.22
-7.56
-12.13
-15.34
-17.11
-17.90
-18.51
-19.68
-21.91
-25.31
-29.71
-34.73
-39.87
-44.47
-47.69
-48.70
-46.90
-42.19
-35.11
-26.67
-18.08
-10.35
-4.02
0.81
4.33
6.74
8.16
8.58
8.04
6.71
4.98
3.30
2.10
1.59
1.71
2.18
2.64
2.73
2.25
1.20
-0.29
-2.04
-3.88
-5.80
-7.87
-10.29
-13.19
-16.49
-19.85
-22.70
-24.37
-24.37
-22.56
-19.17
-14.70
-9.73
-4.71
0.13
4.69
8.86
12.41
14.91
15.99
15.45
13.57
10.98
8.60
7.21
7.13
8.11
9.37
10.04
9.45
7.48
4.57
1.50
-1.01
-2.63
-3.62
-4.63
-6.44
-9.61
-14.27
-20.09
-26.42
-32.49
-37.43
-40.41
-40.68
-37.79
-31.86
-23.74
-14.81
-6.64
-0.40
3.56
5.66
6.71
7.50
8.39
9.43
10.68
12.40
15.12
19.33
25.11
31.90
38.60
43.89
46.73
46.63
43.79
38.89
32.86
26.59
20.76
15.71
11.45
7.79
4.46
1.20
-2.10
-5.40
-8.42
-10.73
-11.75
-10.93
-7.93
-2.76
4.14
12.06
20.13
27.60
33.80
38.26
40.62
40.65
38.33
33.92
28.00
21.30
14.51
8.12
2.35
-2.78
-7.32
-11.19
-14.27
-16.41
-17.60
-17.99
-17.90
-17.75
-17.91
-18.66
-20.16
-22.49
-25.60
-29.26
-33.02
-36.16
-37.85
-37.35
-34.29
-28.86
-21.78
-14.10
-6.82
-0.60
4.43
8.48
11.85
14.62
16.54
17.17
16.25
13.95
10.86
7.87
5.63
4.32
3.60
2.82
1.44
-0.71
-3.38
-6.07
-8.40
-10.31
-12.12
-14.28
-17.16
-20.83
-25.04
-29.33
-33.17
-36.13
-37.91
-38.29
-37.13
-34.33
-29.90
-24.00
-16.99
-9.43
-1.92
4.92
10.61
14.88
17.62
18.90
18.92
17.99
16.41
14.54
12.66
11.00
9.67
8.69
8.01
7.45
6.82
5.95
4.82
3.48
2.09
0.73
-0.65
-2.31
-4.58
-7.72
-11.71
-16.22
-20.67
-24.30
-26.46
-26.69
-24.83
-21.00
-15.56
-9.06
-2.08
4.82
11.19
16.66
21.02
24.17
26.18
27.29
27.84
28.16
28.44
28.64
28.52
27.81
26.33
24.07
21.17
17.83
14.17
10.30
6.24
1.99
-2.42
-7.02
-11.85
-16.94
-22.20
-27.55
-32.74
-37.53
-41.68
-44.91
-46.86
-47.14
-45.41
-41.61
-36.04
-29.34
-22.31
-15.68
-9.86
-5.07
-1.32
1.47
3.41
4.66
5.50
6.25
7.15
8.26
9.36
10.09
9.99
8.76
6.41
3.19
-0.40
-3.84
-6.74
-9.05
-11.00
-13.05
-15.69
-19.16
-23.41
-28.04
-32.44
-35.96
-38.00
-38.07
-35.88
-31.41
-24.92
-17.01
-8.53
-0.36
6.68
12.12
15.80
17.92
18.85
18.99
18.65
17.95
16.91
15.53
13.94
12.45
11.42
11.15
11.72
12.98
14.70
16.71
19.01
21.67
24.69
27.76
30.32
31.72
31.44
29.38
25.85
21.51
17.19
13.71
11.68
11.44
13.03
16.20
20.51
25.49
30.75
36.05
41.21
45.99
50.00
52.70
53.60
52.47
49.39
44.78
39.16
33.00
26.69
20.55
14.92
10.20
6.73
4.63
3.75
3.65
3.81
3.76
3.19
2.06
0.57
-0.98
-2.30
-3.36
-4.51
-6.39
-9.65
-14.77
-21.73
-30.15
-39.35
-48.68
-57.60
-65.66
-72.41
-77.38
-80.24
-81.13
-80.88
-80.89
-82.63
-87.11
-94.33
-103.29
-112.18
-119.17
-122.89
-122.87
-119.43
-113.32
-105.24
-95.52
-84.09
-70.70
-55.15
-37.34
-17.30
4.89
29.10
55.09
82.27
109.58
135.53
158.29
175.95
186.92
190.37
186.53
176.84
163.77
150.16
138.72
131.46
129.39
132.46
139.53
148.30
155.31
156.56
148.34
128.59
98.01
60.28
21.00
-14.15
-41.41
-60.12
-72.30
-81.43
-90.52
-100.78
-111.45
-120.77
-127.42
-131.59
-135.16
-140.20
-148.00
-157.76
-166.42
-169.48
-162.54
-142.70
-109.31
-64.24
-9.96
49.66
110.27
167.15
215.46
250.74
269.76
271.35
255.91
227.93
192.24
153.89
116.92
83.79
54.97
29.21
4.15
-24.38
-57.43
-97.06
-144.12
-197.43
-253.23
-305.20
-345.37
-366.39
-365.59
-340.95
-296.84
-239.97
-176.54
-109.94
-40.57
32.39
119.17
200.30
270.61
322.22
350.38
355.91
344.93
326.34
308.14
294.79
284.62
277.07
269.18
259.52
248.46
237.02
225.43
212.43
195.91
172.93
145.41
115.78
88.01
65.96
51.77
44.88
42.36
40.06
33.55
22.23
6.90
-9.82
-24.83
-35.95
-42.75
-46.57
-49.75
-55.05
-63.39
-74.85
-88.28
-101.70
-112.92
-120.07
-122.12
-118.98
-111.63
-101.30
-89.50
-77.54
-66.42
-56.91
-49.57
-44.72
-42.27
-41.58
-41.68
-41.60
-40.94
-40.11
-40.11
-41.86
-45.56
-50.40
-55.07
-58.81
-62.32
-68.05
