1603463571.00
64.000000
-0.00
-0.00
-0.00
-0.00
-0.00
-0.00
-0.00
-0.00
-0.00
-0.00
0.00
0.01
0.01
-0.00
-0.03
-0.05
-0.05
0.00
0.13
0.36
0.66
1.01
1.37
1.72
2.06
2.40
2.79
3.24
3.80
4.42
5.06
5.66
6.20
6.68
7.15
7.68
8.31
9.14
10.09
11.04
11.88
12.56
13.14
13.76
14.65
15.96
17.91
20.32
22.90
25.38
27.58
29.57
31.68
34.32
37.81
42.54
48.15
54.10
59.83
64.97
69.58
74.14
79.34
85.71
93.76
103.00
112.62
121.73
129.77
136.75
143.30
150.75
157.77
166.64
177.95
191.79
206.97
220.57
228.25
225.36
208.53
176.87
132.76
80.05
23.07
-34.94
-92.44
-149.16
-205.23
-260.37
-313.74
-363.87
-409.83
-450.91
-486.50
-515.74
-537.23
-549.22
-549.96
-538.37
-514.21
-478.67
-433.88
-382.45
-327.02
-269.84
-212.63
-156.66
-102.95
-52.38
-5.91
35.58
71.43
101.36
125.52
144.41
158.74
169.21
176.45
180.87
182.74
182.30
179.81
175.59
170.04
163.54
156.45
149.03
141.46
133.86
126.28
118.75
111.28
103.86
96.52
89.32
82.32
75.64
69.37
63.55
58.17
53.12
48.27
43.55
38.94
34.55
30.56
27.14
24.37
22.15
20.21
18.27
16.11
13.72
11.36
9.46
8.42
8.39
9.13
10.05
10.47
9.88
8.30
6.27
4.73
4.55
6.10
8.99
12.09
14.08
14.03
11.89
8.63
5.80
4.73
5.93
8.62
11.10
11.39
8.07
0.68
-10.12
-22.85
-35.29
-44.73
-48.58
-45.23
-34.92
-20.23
-5.57
4.21
5.85
-0.81
-12.49
-23.88
-29.96
-28.25
-19.81
-8.53
0.91
5.17
3.74
-1.11
-5.72
-6.90
-3.52
3.10
10.24
15.39
17.70
18.14
18.54
20.02
22.21
23.21
20.95
14.68
5.80
-2.71
-7.71
-7.52
-2.67
4.53
11.13
14.89
15.00
12.17
7.98
4.16
2.05
2.13
4.09
6.85
9.19
10.21
9.70
8.29
6.94
6.53
7.30
8.94
10.77
12.27
13.29
13.97
14.56
15.07
15.01
13.68
10.65
6.10
0.86
-3.92
-7.41
-9.41
-10.46
-11.35
-12.62
-14.12
-15.30
-15.73
-15.54
-15.58
-16.91
-20.18
-25.02
-30.22
-34.34
-36.44
-36.55
-35.50
-34.50
-34.39
-35.27
-36.43
-36.71
-35.12
-31.50
-26.64
-22.01
-18.88
-17.37
-16.12
-12.94
-6.19
4.03
15.50
24.89
29.43
28.40
23.44
17.45
12.88
10.50
9.44
8.17
5.85
2.95
0.89
1.04
3.80
8.27
12.72
15.49
15.57
13.19
9.51
6.20
4.77
5.78
8.57
11.49
12.60
10.75
6.32
1.16
-2.30
-2.30
1.20
6.52
11.03
12.55
10.24
4.89
-1.69
-7.55
-11.39
-12.74
-11.73
-8.72
-4.19
1.21
6.60
10.86
13.10
13.12
11.57
9.62
8.20
7.42
6.70
5.36
3.45
1.96
2.25
5.08
9.88
14.97
18.56
19.84
19.47
18.92
19.33
20.72
21.88
21.35
18.35
13.50
8.47
5.05
4.26
5.91
8.87
11.62
12.95
12.23
9.48
5.10
-0.22
-5.66
-10.28
-13.11
-13.50
-11.35
-7.44
-3.20
-0.28
0.17
-2.18
-6.62
-11.80
-16.26
-18.88
-19.26
-17.76
-15.30
-12.89
-11.23
-10.43
-10.11
-9.75
-9.06
-8.30
-8.05
-8.70
-9.98
-10.97
-10.58
-8.34
-4.89
-1.77
-0.55
-1.83
-4.91
-8.09
-9.65
-8.91
-6.59
-4.39
-3.87
-5.68
-9.08
-12.42
-14.13
-13.42
-10.63
-6.97
-3.89
-2.41
-2.88
-4.76
-7.16
-9.15
-10.22
-10.47
-10.38
-10.49
-10.77
-10.75
-9.55
-6.54
-1.84
3.54
8.12
10.73
11.08
9.95
8.58
8.01
8.43
9.08
8.81
6.85
3.45
-0.10
-1.96
-0.82
3.38
9.19
14.40
17.13
16.67
13.80
10.06
6.81
4.64
3.39
2.64
2.34
2.78
4.27
6.74
9.53
11.84
13.12
13.51
13.52
13.73
14.43
15.61
17.10
18.92
21.08
23.26
24.65
24.06
20.65
14.59
7.30
0.82
-3.21
-4.33
-3.42
-2.07
-1.52
-1.99
-2.77
-2.83
-1.76
-0.04
1.27
1.18
-0.52
-3.30
-6.31
-9.15
-12.17
-16.00
-21.07
-26.94
-32.19
-34.93
-33.72
-28.23
-19.53
-9.86
-1.75
2.72
2.61
-1.70
-8.65
-16.12
-22.09
-25.26
-25.39
-23.18
-19.80
-16.42
-13.86
-12.52
-12.55
-14.04
-16.85
-20.51
-23.88
-25.50
-24.03
-19.12
-11.91
-4.80
-0.42
-0.36
-4.22
-9.59
-13.22
-12.39
-6.31
3.74
15.08
25.05
32.09
36.04
37.67
37.87
37.01
34.91
31.17
25.72
19.26
13.15
9.06
8.17
10.57
14.81
18.38
18.65
14.20
5.69
-4.20
-11.85
-14.39
-11.06
-3.61
4.64
10.45
12.15
10.15
6.25
2.32
-0.75
-3.33
-6.15
-9.32
-11.85
-12.21
-9.45
-4.18
1.52
5.17
5.30
2.19
-2.55
-6.98
-10.02
-11.63
-12.41
-12.79
-12.67
-11.66
-9.57
-6.87
-4.51
-3.53
-4.46
-7.28
-11.45
-16.23
-20.87
-24.54
-26.48
-26.06
-23.22
-18.69
-13.92
-10.40
-8.76
-8.14
-6.57
-2.13
5.60
14.74
21.78
23.05
16.77
3.85
-12.48
-28.30
-40.71
-48.51
-51.97
-51.69
-47.74
-39.47
-26.02
-7.25
15.65
39.93
61.82
77.39
83.66
79.48
66.04
46.54
25.38
6.86
-5.89
-11.62
-11.01
-5.99
1.00
7.92
13.53
17.60
20.67
23.46
26.31
28.76
29.77
28.20
23.58
16.61
9.11
3.38
1.12
2.52
6.05
8.96
8.29
1.95
-10.47
-27.35
-45.11
-58.39
-61.21
-48.75
-19.53
22.88
69.25
106.54
122.01
108.05
66.26
7.40
-52.54
-98.58
-121.99
-122.72
-107.16
-83.30
-56.67
-28.47
2.31
35.49
67.90
94.66
111.63
118.09
117.18
113.65
111.35
110.92
110.01
102.70
85.62
59.30
27.60
-1.39
-23.19
-35.63
-38.03
-31.68
-18.15
0.55
21.83
43.06
60.90
72.85
78.34
78.23
73.85
66.25
56.03
43.73
31.04
21.22
18.65
28.66
53.48
90.88
133.69
171.20
192.23
189.53
163.13
120.79
74.95
37.35
14.17
5.37
5.48
6.54
1.89
-11.38
-31.99
-55.04
-73.59
-80.65
-70.78
-42.38
0.60
49.04
90.90
115.37
116.49
94.70
54.80
2.96
-56.30
-121.29
-192.35
-270.10
-354.13
-442.10
-524.82
-591.82
-632.57
-639.16
-609.16
-546.75
-461.52
-365.22
-268.02
-176.62
-95.17
-26.15
28.36
66.34
87.16
93.07
89.36
83.29
81.90
89.41
106.51
130.19
154.33
171.16
174.30
160.63
131.69
93.45
54.08
21.28
-0.43
-10.19
-10.64
-5.62
1.99
11.28
22.50
35.33
47.96
57.40
60.97
57.76
49.31
38.67
29.31
23.34
20.93
20.69
20.40
17.61
10.15
-3.05
-21.10
-40.21
-54.00
-55.10
-38.22
-3.08
44.51
94.28
135.35
160.33
167.86
161.81
148.78
134.66
122.86
114.25
108.63
106.15
107.09
110.21
111.25
103.64
81.77
44.96
0.11
-40.05
-62.42
-59.94
-35.17
0.99
34.93
56.86
64.45
62.09
56.97
54.88
57.97
64.98
72.60
76.79
73.55
59.65
34.07
-1.09
-40.42
-77.14
-105.38
-122.50
-129.67
-130.36
-128.42
-126.64
-126.66
-129.28
-134.42
-140.81
-145.23
-143.20
-130.86
-107.30
-75.62
-41.88
-12.65
7.86
19.01
23.25
24.27
25.06
26.99
30.17
34.28
38.55
43.47
49.06
54.59
58.79
60.47
58.94
54.58
48.63
42.80
38.70
37.04
37.56
39.20
40.55
40.36
38.41
34.78
30.49
26.95
25.26
25.85
28.35
31.66
34.41
35.58
34.67
32.09
28.87
26.20
25.11
26.42
30.53
37.02
44.32
49.43
48.66
39.07
20.14
-5.43
-32.34
-54.67
-68.41
-72.77
-70.03
-63.85
-57.46
-52.61
-49.67
-48.22
-47.56
-46.73
-44.30
-38.64
-28.76
-15.30
-0.77
11.43
18.49
19.59
16.05
10.43
4.99
0.85
-2.09
-4.32
-5.94
-6.39
-5.10
-2.16
1.30
3.54
3.03
-0.53
-6.06
-11.56
-15.01
-15.26
-12.52
-8.12
-4.00
-1.92
-2.89
-6.87
-12.90
-19.44
-24.88
-27.91
-27.77
-24.38
-18.24
-10.33
-1.93
5.59
11.13
13.97
13.97
11.49
7.36
2.75
-1.01
-2.67
-1.47
2.63
8.68
15.01
19.80
21.76
20.62
17.13
12.60
8.20
4.55
1.44
-1.78
-5.70
-10.49
-15.63
-20.15
-22.92
-23.15
-20.64
-16.06
-10.75
-6.29
-4.12
-5.00
-8.85
-14.84
-21.65
-27.67
-31.53
-32.64
-31.34
-28.79
-26.39
-25.27
-25.75
-27.26
-28.55
-28.24
-25.49
-20.35
-13.82
-7.32
-2.16
0.98
2.22
2.17
1.48
0.54
-0.57
-1.78
-2.87
-3.43
-3.14
-1.96
-0.25
1.42
2.60
3.20
3.58
4.33
6.00
8.93
13.09
18.12
23.31
27.87
31.08
32.49
32.17
30.63
28.67
27.11
26.50
26.95
28.14
29.55
30.59
30.79
29.94
28.06
25.36
22.21
19.05
16.36
14.58
13.88
14.12
14.82
15.33
15.06
13.80
11.76
9.43
7.32
5.63
4.30
3.04
1.65
0.15
-1.24
-2.23
-2.68
-2.76
-2.80
-3.14
-3.95
-5.18
-6.58
-7.97
-9.25
-10.51
-11.90
-13.51
-15.21
-16.68
-17.49
-17.30
-16.02
-13.91
-11.48
-9.31
-7.77
-6.91
-6.49
-6.12
-5.47
-4.39
-2.92
-1.16
0.76
2.84
5.08
7.44
9.83
12.13
14.25
16.13
17.80
19.30
20.63
21.75
22.62
23.24
23.63
23.74
23.38
22.24
20.00
16.52
11.93
6.51
0.61
-5.45
-11.32
-16.55
-20.51
-22.62
-22.63
-20.90
-18.37
-16.12
-14.98
-15.10
-16.01
-17.01
-17.57
-17.60
-17.36
-17.21
-17.29
-17.45
-17.31
-16.49
-14.71
-11.98
-8.63
-5.25
-2.55
-1.02
-0.71
-1.10
-1.28
-0.38
2.01
5.63
9.65
13.00
14.88
14.81
12.69
8.59
2.69
-4.51
-12.21
-19.31
-24.81
-28.12
-29.32
-28.98
-27.81
-26.15
-23.74
-20.14
-15.18
-9.29
-3.37
1.61
5.04
6.90
7.68
8.34
9.63
11.83
14.70
17.75
20.46
22.42
23.34
23.21
22.67
22.43
22.90
24.06
25.58
27.05
28.08
28.37
27.89
27.35
27.46
28.47
30.13
32.04
33.83
35.29
36.31
33.84
26.48
15.37
3.41
-7.03
-15.01
-20.49
-23.63
-24.63
-23.98
-21.68
-18.07
-13.92
-10.22
-7.65
-6.38
-6.20
-6.81
-8.13
-9.64
-11.01
-12.22
-13.42
-14.69
-15.85
-16.63
-16.81
-16.33
-15.02
-12.98
-10.62
-8.51
-7.08
-6.43
-6.33
-6.37
-6.09
-5.03
-3.01
-0.24
2.81
5.57
7.62
8.74
8.93
8.44
7.66
6.95
6.55
6.53
6.82
7.35
8.04
8.87
9.80
10.86
12.15
13.83
16.06
18.85
22.02
25.11
27.58
28.97
29.05
27.87
25.62
22.47
18.53
13.89
8.73
3.45
-1.43
-5.43
-8.29
-10.05
-10.99
-11.40
-11.41
-10.96
-9.82
-7.85
-5.15
-2.18
0.37
1.82
1.74
0.20
-2.29
-4.90
-6.89
-7.84
-7.87
-7.57
-7.84
-9.58
-13.38
-19.31
-26.77
-34.54
-41.09
-45.02
-45.60
-43.11
-38.77
-34.20
-30.70
-28.61
-27.21
-25.17
-21.38
-15.55
-8.50
-1.56
4.02
7.71
9.92
11.65
13.97
17.72
23.24
30.26
37.69
43.58
45.47
41.25
30.17
13.66
-4.94
-21.57
-33.17
-38.76
-39.50
-37.77
-35.70
-34.28
-33.24
-31.84
-29.61
-26.97
-24.72
-23.39
-22.87
-22.50
-21.49
-19.30
-15.92
-11.93
-8.46
-6.45
-6.18
-7.31
-9.09
-10.71
-11.45
-10.96
-9.24
-7.19
-5.71
-5.39
-6.41
-8.57
-11.32
-13.88
-15.45
-15.49
-14.71
-13.95
-13.68
-13.87
-14.25
-14.76
-15.84
-18.43
-19.08
-16.09
-9.38
0.26
12.11
25.35
38.35
48.95
55.54
57.97
56.93
54.25
52.06
51.53
52.46
53.65
53.66
51.73
48.21
43.79
39.72
36.77
34.48
31.40
25.97
17.67
7.40
-3.07
-12.69
-21.80
-30.23
-38.88
-48.33
-58.25
-67.51
-75.03
-80.47
-84.40
-87.42
-89.25
-88.87
-84.80
-76.20
-63.59
-48.78
-33.99
-20.97
-10.32
-1.64
5.68
12.09
17.69
22.41
26.26
29.42
32.17
34.74
37.24
39.39
40.88
41.41
40.92
39.60
37.84
36.11
34.75
33.93
33.50
33.19
32.72
31.96
30.91
29.72
28.56
27.54
26.58
25.44
23.88
21.77
19.23
16.62
14.39
12.82
11.90
11.26
10.37
8.81
6.50
3.76
1.22
-0.39
-0.43
1.40
4.96
9.39
13.25
14.73
12.39
5.77
-4.16
-15.23
-24.89
-31.19
-33.43
-32.21
-28.82
-24.42
-19.59
-14.34
-8.59
-2.56
3.00
7.18
9.32
9.41
8.06
6.23
4.81
4.20
4.31
4.67
4.77
4.40
3.68
3.00
2.81
3.32
4.45
5.87
7.20
8.21
8.89
9.36
9.84
10.47
11.41
12.81
14.81
17.50
20.77
24.35
27.79
30.71
32.88
34.35
35.35
36.17
37.05
38.09
39.30
40.60
41.80
42.60
42.60
41.39
38.67
34.33
28.51
21.59
14.11
6.81
0.52
-3.90
-5.86
-5.25
-2.57
1.16
4.74
7.12
7.69
6.36
3.48
-0.29
-4.00
-6.65
-7.32
-5.45
-1.16
4.81
11.25
16.97
21.17
23.63
24.55
24.26
22.91
20.52
17.05
12.62
7.58
2.46
-2.31
-6.55
-10.33
-13.93
-17.64
-21.60
-25.81
-30.09
-34.26
-38.19
-41.83
-45.18
-48.20
-50.73
-52.44
-52.95
-51.93
-49.30
-45.32
-40.59
-35.94
-32.22
-30.13
-29.99
-31.56
-34.01
-36.01
-36.08
-33.04
-26.57
-17.38
-7.10
2.21
8.84
11.87
11.43
8.56
4.69
1.15
-1.27
-2.47
-2.95
-3.40
-4.35
-5.95
-7.98
-10.12
-12.22
-14.43
-17.05
-20.22
-23.67
-26.79
-28.90
-29.66
-29.23
-28.17
-27.05
-26.05
-24.89
-22.95
-19.70
-15.05
-9.51
-3.99
0.57
3.50
4.74
4.75
4.37
4.44
5.58
7.97
11.38
15.28
19.08
22.33
24.86
26.76
28.28
29.70
31.18
32.72
34.15
35.25
35.77
35.49
34.26
31.96
28.60
24.41
19.77
15.15
10.93
7.24
3.91
0.52
-3.37
-8.04
-13.44
-19.20
-24.71
-29.28
-32.32
-33.43
-32.50
-29.70
-25.48
-20.43
-15.11
-9.94
-5.06
-0.39
4.25
8.92
13.39
17.16
19.52
19.82
17.70
13.17
6.64
-1.27
-9.80
-18.20
-25.79
-32.01
-36.46
-38.99
-39.63
-38.56
-36.04
-32.33
-27.71
-22.52
-17.15
-12.05
-7.63
-4.12
-1.58
0.05
0.85
0.94
0.47
-0.29
-0.91
-0.92
-0.05
1.71
3.98
6.21
7.90
8.83
9.05
8.80
8.18
7.02
4.87
1.24
-4.03
-10.54
-17.41
-23.48
-27.79
-29.84
-29.72
-27.98
-25.34
-22.49
-19.90
-17.79
-16.21
-15.07
-14.18
-13.28
-12.13
-10.62
-8.80
-6.90
-5.23
-4.05
-3.44
-3.26
-3.19
-2.89
-2.12
-0.89
0.63
2.13
3.39
4.38
5.22
6.09
7.08
8.07
8.84
9.19
9.14
8.98
9.11
9.89
11.45
13.64
16.13
18.59
20.67
22.15
22.82
22.55
21.35
19.39
16.89
13.89
10.15
5.12
-1.57
-9.64
-17.87
-24.37
-27.21
-25.26
-18.61
-8.39
3.74
16.21
27.84
37.69
44.94
48.90
49.23
46.37
41.57
36.58
33.09
32.21
34.34
39.29
46.49
55.11
63.95
71.70
77.14
79.79
80.06
79.28
79.14
81.10
86.14
94.58
105.92
118.41
128.77
132.61
125.94
107.28
79.13
47.63
20.21
2.14
-6.07
-8.72
-12.62
-23.50
-43.21
-69.47
-97.83
-124.59
-148.40
-169.90
-189.82
-207.27
-219.55
-223.37
-216.88
-200.93
-178.82
-154.63
-131.17
-108.80
-85.75
-59.43
-28.32
6.97
43.62
77.57
104.95
123.24
131.82
131.87
125.64
115.53
103.25
89.78
75.67
61.48
47.98
35.95
25.80
17.26
9.60
1.96
-5.90
-13.29
-19.03
-22.14
-22.34
-20.23
-16.97
-13.85
-11.91
-11.53
-12.46
-14.17
-16.19
-18.17
-19.94
-21.38
-22.46
-23.57
-24.91
-26.30
-27.48
-28.31
-28.82
-29.15
-29.48
-29.98
-31.71
-34.87
-38.54
-41.49
-43.14
-43.72
-43.93
-44.53
-46.06
-50.62
-58.48
-67.64
-75.53
-80.91
-83.99
-85.74
-87.35
-89.97
-97.73
-112.15
-131.12
-150.98
-168.95
-183.31
-192.73
-196.17
-193.35
-189.14
-186.40
-184.29
-180.38
-173.42
-163.33
-150.45
-135.27
-92.66
-20.54
60.17
125.90
168.56
192.20
203.76
208.20
209.08
207.52
199.96
186.00
169.56
155.62
145.96
139.75
134.91
129.58
122.63
111.09
95.27
79.10
67.22
61.86
62.57
67.43
74.16
80.72
83.75
81.91
76.26
68.76
60.55
52.08
43.65
35.83
29.22
23.44
18.45
14.83
13.08
13.00
13.82
14.67
14.96
14.44
12.96
10.91
9.15
8.45
8.97
10.22
11.26
11.06
8.82
4.26
-2.36
-10.26
-18.28
-25.14
-29.67
-31.11
-29.32
-24.94
-19.25
-13.76
-9.83
-8.14
-8.64
-10.61
-13.12
-15.30
-16.60
-16.81
-15.96
-14.25
-11.89
-9.07
-5.89
-2.39
1.49
5.76
10.37
15.08
19.50
23.04
24.95
24.47
21.01
14.42
5.27
-5.19
-15.27
-23.24
-27.89
-28.82
-26.46
-21.84
-16.27
-10.99
-6.95
-4.68
-4.25
-5.32
-7.33
-9.71
-12.17
-14.71
-17.58
-21.00
-24.99
-29.32
-33.59
-37.34
-40.11
-41.51
-41.23
-39.05
-35.04
-29.64
-23.61
-17.91
-13.35
-10.30
-8.62
-7.73
-6.91
-5.63
-3.79
-1.65
0.25
1.41
1.53
0.65
-0.97
-2.90
-4.78
-6.35
-7.51
-8.33
-8.95
-9.55
-10.28
-11.19
-12.16
-12.98
-13.38
-13.14
-12.11
-10.35
-8.01
-5.37
-2.77
-0.50
1.21
2.25
2.61
2.35
1.61
0.58
-0.55
-1.58
-2.32
-2.60
-2.27
-1.18
0.73
3.43
6.76
10.50
14.35
18.05
21.37
24.15
26.22
27.46
27.81
27.34
26.32
25.10
24.05
23.36
23.00
22.77
22.40
21.72
20.72
19.51
18.23
16.97
15.76
14.60
13.44
12.27
11.05
9.73
8.27
6.72
5.15
3.69
2.40
1.26
0.15
-1.07
-2.39
-3.68
-4.60
-4.83
-4.16
-2.61
-0.36
2.30
5.11
7.88
10.50
12.88
14.92
16.53
17.62
18.24
18.47
18.46
18.32
18.10
17.77
17.26
16.53
15.61
14.61
13.67
12.89
12.25
11.64
10.91
9.93
8.70
7.30
5.90
4.63
3.53
2.53
1.46
0.18
-1.35
-3.06
-4.81
-6.40
-7.66
-8.47
-8.72
-8.34
-7.26
-5.46
-2.99
0.03
3.44
7.03
10.59
13.91
16.83
19.22
21.09
22.52
23.67
24.64
25.48
26.14
26.59
26.86
27.05
27.30
27.69
28.25
28.89
29.54
30.16
30.73
31.21
31.55
31.65
31.48
31.08
30.58
30.13
29.75
29.37
28.78
27.84
26.52
25.01
23.60
22.58
22.06
21.94
21.93
21.73
21.18
20.42
19.83
20.01
21.50
24.66
29.43
35.30
41.28
46.07
48.29
46.90
41.56
32.83
22.12
11.32
2.22
-3.98
-6.98
-7.30
-5.98
-4.16
-2.76
-2.39
-3.39
-5.89
-9.80
-14.83
-20.39
-25.74
-30.10
-32.97
-34.28
-34.49
-34.35
-34.57
-35.56
-37.23
-39.12
-40.63
-41.33
-41.21
-40.66
-40.24
-40.47
-41.57
-43.57
-46.19
-48.87
-50.89
-51.55
-50.28
-46.82
-41.29
-34.20
-26.51
-19.23
-13.08
-8.48
-5.53
-4.20
-4.34
-5.76
-8.20
-11.53
-15.49
-19.62
-23.35
-26.18
-27.80
-28.07
-26.90
-23.59
-18.34
-12.50
-7.76
-5.15
-4.89
-6.34
-9.00
-12.20
-15.16
-17.32
-18.28
-17.58
-15.28
-12.02
-8.86
-6.83
-6.64
-8.30
-11.12
-13.65
-14.66
-13.22
-8.86
-1.72
7.27
16.43
23.90
28.18
28.96
27.04
23.93
21.18
19.90
20.91
24.74
31.65
39.33
44.82
45.64
41.10
32.12
20.37
7.81
-3.78
-13.21
-20.15
-24.67
-27.04
-27.95
-27.45
-25.75
-23.22
-20.39
-17.84
-16.01
-14.91
-14.22
-13.46
-12.20
-10.40
-7.94
-5.11
-2.34
-0.02
1.75
3.15
4.44
5.83
7.25
8.45
9.11
8.98
8.03
6.53
4.92
3.63
2.96
2.91
3.28
3.74
3.98
3.83
3.28
2.48
1.57
0.68
-0.21
-1.14
-2.13
-3.14
-4.11
-4.96
-5.67
-6.28
-6.85
-7.44
-8.12
-8.90
-9.82
-10.86
-11.99
-13.07
-13.90
-14.26
-13.95
-12.92
-11.30
-9.39
-7.51
-5.95
-4.83
-4.16
-3.80
-3.67
-3.69
-3.90
-4.36
-5.09
-6.01
-6.99
-7.89
-8.64
-9.22
-9.61
-9.76
-9.64
-9.21
-8.48
-7.54
-6.52
-5.53
-4.65
-3.78
-2.82
-1.73
-0.56
0.59
1.61
2.40
2.90
3.04
2.95
2.65
2.05
1.01
-0.44
-2.13
-3.76
-5.04
-5.71
-5.32
-3.74
-1.34
1.28
3.57
5.27
6.32
6.92
7.48
9.03
12.32
17.48
24.18
31.99
40.42
48.82
56.33
62.15
66.37
69.13
70.37
69.98
68.10
64.85
60.03
53.16
39.67
18.96
-4.94
-26.25
-41.46
-50.02
-53.16
-52.57
-49.78
-46.01
-41.38
-36.19
-31.14
-27.24
-24.59
-23.01
-22.18
-21.71
-21.42
-20.84
-19.97
-19.35
-19.49
-20.57
-22.61
-25.46
-28.46
-31.08
-32.62
-32.80
-31.74
-29.35
-25.63
-20.72
-14.76
-7.80
0.08
8.93
18.40
27.79
36.51
43.73
48.60
50.73
50.51
48.90
47.18
46.33
43.84
38.72
31.70
24.21
16.96
9.84
2.54
-4.46
-11.28
-17.48
-21.99
-24.18
-24.09
-22.36
-19.11
-14.89
-10.19
-5.42
-0.62
4.71
10.85
17.68
24.58
30.68
35.01
36.94
36.30
33.63
29.83
25.78
21.96
18.46
15.07
11.51
7.80
4.33
1.74
0.26
-0.25
-0.05
0.50
1.04
1.21
0.97
0.54
0.08
-1.12
-3.66
-7.39
-11.50
-15.19
-18.07
-19.95
-20.67
-20.30
-20.11
-20.64
-21.13
-20.10
-17.01
-12.75
-9.00
-7.29
-9.06
-16.66
-30.92
-50.32
-71.90
-93.17
-112.86
-130.24
-144.62
-145.41
-127.70
-96.69
-63.58
-36.51
-17.94
-6.61
-0.78
4.76
13.43
25.10
38.61
53.27
69.18
85.33
96.97
99.55
92.73
80.03
64.81
49.25
34.51
21.32
10.03
0.94
-5.03
-6.75
-4.36
-0.35
3.06
4.66
4.51
3.29
1.72
0.68
0.91
2.31
3.85
4.61
4.30
3.33
2.21
1.34
1.15
1.93
3.55
5.38
6.83
7.52
7.35
6.32
4.53
2.21
-0.26
-2.59
-4.61
-6.21
-7.40
-8.21
-8.71
-8.88
-8.61
-7.81
-6.50
-4.92
-3.36
-2.10
-1.20
-0.45
0.50
2.00
4.21
7.04
10.22
13.41
16.35
19.01
21.47
23.89
26.36
28.88
31.28
33.33
34.75
35.30
34.81
33.23
30.59
27.08
23.04
18.96
15.34
12.61
10.88
9.90
9.07
7.53
4.46
-0.65
-7.83
-16.63
-26.30
-36.06
-45.31
-53.74
-61.26
-67.79
-73.19
-77.14
-79.24
-79.06
-76.29
-70.70
-62.24
-51.12
-37.84
-23.24
-8.37
5.78
18.57
29.89
40.09
49.65
58.93
67.90
76.16
83.23
88.77
92.77
95.53
97.50
99.06
100.37
101.31
101.52
100.46
97.61
92.65
85.59
76.85
67.12
57.13
47.49
38.53
30.42
23.26
17.15
12.10
7.84
3.86
-0.46
-5.51
-11.11
-16.59
-21.12
-24.23
-26.04
-27.17
-28.29
-29.61
-30.81
-31.27
-30.63
-29.23
-28.14
-28.73
-32.14
-38.83
-48.53
-60.49
-73.86
-87.92
-102.18
-116.24
-129.78
-142.49
-154.31
-165.48
-176.42
-187.31
-197.38
-204.61
-205.89
-197.90
-178.33
-146.82
-105.31
-57.51
-7.77
39.95
82.93
119.74
150.07
174.34
193.40
208.42
220.72
231.53
241.56
250.66
257.65
260.45
256.60
244.07
221.99
191.12
153.86
113.53
73.55
36.55
3.91
-24.27
-48.66
-70.22
-89.68
-107.42
-123.57
-138.20
-151.56
-164.05
-175.93
-187.04
-196.49
-202.94
-205.08
-202.24
-194.75
-183.84
-171.23
-158.08
-144.47
-129.52
-112.31
-92.68
-71.57
-50.65
-31.74
-16.39
-5.17
2.26
6.87
9.84
12.39
15.87
21.78
31.51
45.05
61.51
79.37
97.01
113.06
126.86
138.82
150.15
162.08
173.35
182.19
187.73
190.47
191.50
191.88
192.56
194.40
198.06
200.44
199.58
196.46
194.21
194.62
196.15
194.78
186.49
168.89
136.10
86.51
24.32
-42.38
-107.20
-167.74
-223.57
-273.58
-315.21
-353.90
-394.16
-437.28
-481.11
-524.35
-567.68
-611.55
-654.46
-646.71
-561.67
-413.64
-248.84
-105.81
1.78
77.15
128.92
165.13
191.50
200.43
190.58
165.73
135.27
107.24
84.63
66.14
48.56
37.56
26.61
9.70
-13.65
-36.28
-48.40
-42.54
-16.41
26.66
78.71
124.98
154.85
165.72
163.16
155.39
148.38
143.76
140.45
136.70
129.43
118.88
107.99
100.76
99.51
104.75
114.07
124.41
132.60
134.03
125.09
104.27
73.22
35.42
-1.63
-31.59
-51.30
-61.09
-64.10
-63.51
-61.38
-58.48
-55.16
-53.23
-54.68
-61.90
-75.89
-94.95
-114.13
-126.55
-125.68
-106.73
-73.14
-33.04
3.72
29.54
41.81
43.15
39.10
34.87
32.99
32.71
32.12
29.73
25.71
21.62
19.15
19.03
20.58
22.36
22.56
20.53
16.67
12.21
8.57
6.67
6.55
7.41
8.14
7.66
5.74
2.82
-0.25
-2.63
-3.90
-4.16
-3.99
-3.95
-4.43
-5.32
-6.14
-6.34
-5.60
-3.91
-1.22
1.84
4.97
8.13
11.43
15.12
19.21
23.39
27.09
29.86
31.29
31.54
31.18
30.88
31.26
32.51
34.24
35.79
36.68
36.60
35.86
35.19
35.31
36.89
40.28
45.38
50.71
55.56
58.09
56.13
48.92
35.72
18.12
-0.73
-17.36
-29.37
-36.05
-38.67
-39.25
-39.42
-39.86
-40.00
-39.01
-36.49
-32.85
-28.99
-26.01
-24.58
-24.62
-25.54
-26.21
-25.56
-23.00
-18.57
-12.94
-7.34
-3.01
-0.69
-0.46
-1.66
-3.48
-5.42
-7.64
-10.88
-15.58
-21.32
-26.47
-28.46
-25.12
-15.29
-0.18
16.65
30.35
36.74
34.18
24.29
11.23
-0.05
-6.23
-6.46
-1.74
5.23
10.57
10.52
2.68
-13.38
-36.05
-61.92
-85.30
-99.30
-98.18
-79.93
-47.70
-9.28
25.79
52.56
69.20
77.50
80.84
81.47
79.37
72.77
60.04
41.95
22.44
6.76
-0.46
2.10
11.97
24.36
33.66
35.39
28.08
13.45
-6.23
-26.97
-45.57
-61.41
-75.25
-87.57
-97.96
-105.29
-109.04
-110.69
-112.45
-115.55
-118.33
-117.74
-106.79
-81.55
-43.05
3.11
48.72
86.41
112.38
122.54
120.41
113.10
106.19
101.93
100.04
98.55
95.11
87.63
74.72
56.81
35.50
14.07
-6.78
-26.38
-45.31
-65.23
-87.87
-113.86
-141.00
-165.02
-180.43
-181.67
-165.05
-130.66
-82.32
-26.27
30.70
83.68
126.38
153.38
162.86
156.53
138.41
113.99
89.30
69.52
57.85
54.40
56.98
62.82
68.87
72.24
71.34
66.39
58.79
50.10
41.07
28.20
11.88
-3.93
-15.47
-22.98
-30.23
-41.27
-57.18
-74.67
-86.91
-86.00
-68.62
-38.74
-6.26
17.69
25.97
18.39
1.88
-15.36
-26.06
-27.43
-21.72
-13.84
-8.28
-6.91
-8.85
-11.55
-12.45
-9.61
-2.87
6.35
16.35
26.06
35.36
44.20
51.86
57.13
59.27
58.18
54.70
50.69
48.09
47.61
47.73
44.98
35.54
17.47
-7.83
-35.85
-59.91
-73.80
-74.21
-61.82
-40.53
-15.61
8.10
27.13
39.07
43.28
40.29
30.88
16.18
-1.88
-20.39
-36.09
-46.29
-50.54
-48.72
-41.61
-31.87
-23.43
-19.65
-21.64
-28.09
-35.69
-41.84
-42.48
-34.66
-19.44
-1.98
10.78
12.52
-1.65
-33.50
-82.28
-139.61
-192.13
-227.23
-237.08
-220.07
-180.52
-128.39
-60.23
10.10
65.99
104.16
132.92
159.41
183.39
199.20
201.69
187.40
155.89
113.80
70.59
32.52
0.17
-30.22
-53.48
-66.25
-69.21
-67.13
-62.03
-53.25
-40.93
-27.57
-16.35
-8.95
-6.11
-6.72
-9.07
-10.05
-7.40
-1.44
5.47
10.96
14.18
14.83
13.56
11.34
9.95
10.61
13.18
16.46
19.25
21.17
21.89
21.62
20.72
20.14
20.39
21.40
22.63
23.55
23.96
23.61
22.45
20.10
17.25
14.14
10.82
7.30
3.63
-0.01
-3.57
-6.19
-8.43
-10.24
-11.63
-12.64
-13.28
-13.57
-13.51
-13.13
-12.56
-12.05
-11.64
-11.44
-11.47
-11.62
-11.72
-11.60
-11.22
-10.69
-10.34
-10.40
-11.04
-12.25
-13.77
-15.15
-15.99
-16.16
-15.92
-15.86
-16.57
-18.45
-21.48
-25.11
-28.67
-31.21
-32.46
-32.82
-33.28
-34.90
-38.40
-43.72
-50.00
-55.89
-60.25
-62.63
-63.39
-63.45
-63.81
-65.20
-68.07
-72.84
-78.99
-85.09
-88.42
-85.19
-72.01
-47.83
-15.17
20.21
51.45
73.36
84.42
86.61
84.02
80.39
77.57
75.47
73.17
70.26
66.73
64.21
63.48
64.24
65.25
65.06
62.58
57.84
51.80
45.93
41.54
39.05
38.14
37.85
37.09
35.13
31.91
28.00
24.24
21.59
20.06
19.32
18.73
17.54
15.46
12.25
8.24
3.97
0.03
-3.31
-5.97
-8.08
-9.88
-11.54
-13.08
-14.29
-14.94
-14.77
-13.73
-11.95
-9.74
-7.51
-5.64
-4.34
-3.52
-2.88
-2.01
-0.61
1.39
3.79
6.16
8.04
9.18
9.73
10.16
11.08
12.97
15.94
19.61
23.28
26.30
28.27
29.26
29.74
30.35
31.74
34.47
38.92
45.06
52.11
58.24
60.77
57.11
45.90
27.92
6.11
-15.41
-32.86
-44.06
-48.94
-49.03
-46.33
-42.39
-38.00
-33.44
-28.97
-25.13
-22.56
-21.28
-21.09
-21.36
-21.31
-20.35
-18.39
-15.82
-13.37
-11.70
-11.15
-11.64
-12.65
-13.49
-13.70
-13.24
-12.48
-11.87
-11.55
-11.16
-10.00
-7.35
-3.02
2.32
7.31
10.48
10.93
8.80
5.23
1.80
-0.08
0.41
3.48
8.93
16.45
25.66
36.01
46.62
56.28
63.71
67.91
68.43
65.50
59.99
53.33
47.14
43.26
43.46
48.95
59.87
75.06
92.04
107.40
117.55
119.59
112.45
97.37
77.26
55.52
34.59
15.24
-3.38
-22.80
-44.34
-67.74
-91.04
-111.55
-127.05
-136.47
-139.92
-138.41
-133.43
-127.45
-121.88
-116.43
-109.87
-101.07
-89.47
-75.31
-59.50
-43.41
-30.24
-21.16
-14.60
-8.04
-0.27
7.93
14.49
16.97
13.66
1.19
-19.97
-45.16
-68.84
-88.04
-102.70
-114.40
-125.18
-136.76
-154.24
-178.88
-206.73
-231.79
-249.55
-257.56
-254.56
-240.04
-188.78
-99.67
3.54
93.25
156.31
191.53
202.59
195.17
176.75
156.03
136.63
121.81
114.16
112.70
111.93
105.05
87.88
61.41
31.68
3.33
-18.18
-28.07
-24.65
-10.60
9.22
30.23
49.96
68.32
82.14
89.15
89.68
85.97
80.49
75.26
71.34
66.05
58.10
47.83
38.04
30.79
25.82
20.95
14.47
5.12
-6.23
-16.95
-24.85
-28.66
-28.43
-24.42
-18.48
-13.17
-13.65
-22.45
-35.62
-45.32
-45.27
-34.65
-18.17
-3.44
5.58
8.31
7.82
8.70
13.70
22.29
31.46
36.88
36.45
31.12
24.10
19.67
21.01
28.06
37.47
44.44
45.22
39.04
28.10
15.82
5.32
-1.96
-6.59
-10.15
-13.99
-19.17
-27.13
-40.61
-63.19
-96.78
-139.08
-182.64
-216.62
-230.86
-220.23
-186.74
-138.42
-85.47
-35.98
6.37
41.76
71.93
97.99
119.43
134.75
142.63
142.72
135.85
123.87
109.48
95.82
85.81
81.20
81.54
83.96
84.37
79.44
68.31
53.11
37.65
25.49
18.34
15.62
15.32
15.13
13.29
8.82
1.40
-8.63
-20.17
-31.33
-40.20
-45.61
-47.75
-48.00
-48.11
-49.13
-51.05
-53.08
-54.43
-54.88
-54.74
-54.53
-54.29
-53.34
-50.44
-44.51
-35.22
-23.38
-10.56
1.63
12.25
21.48
30.33
39.72
49.66
58.81
64.89
65.70
60.34
49.75
36.42
23.36
12.92
6.01
2.09
-0.18
-2.17
-4.61
-7.57
-10.71
-13.73
-16.53
-19.15
-21.44
-22.98
-23.21
-21.69
-18.38
-13.72
-8.52
-3.70
-0.07
1.96
2.40
1.72
0.59
-0.30
-0.58
-0.27
0.26
0.56
0.37
-0.25
-0.99
-1.49
-1.57
-1.29
-0.91
-0.67
-0.66
-0.82
-0.98
-1.02
-0.86
-0.56
-0.26
-0.04
0.02
-0.05
-0.17
-0.25
-0.24
-0.14
-0.00
0.10
0.12
0.06
-0.06
-0.18
-0.25
-0.26
-0.21
-0.14
-0.09
-0.08
-0.12
-0.18
-0.24
-0.27
-0.27
-0.25
-0.21
-0.17
-0.15
-0.14
-0.14
-0.14
-0.14
-0.14
-0.13
-0.12
-0.11
-0.11
-0.10
-0.10
-0.10
-0.10
-0.10
-0.10
-0.10
-0.10
-0.09
-0.09
-0.09
-0.09
-0.09
-0.09
-0.09
-0.09
-0.09
-0.09
-0.08
-0.08
-0.08
-0.08
-0.08
-0.08
-0.08
-0.08
-0.08
-0.08
-0.08
-0.08
-0.07
-0.07
-0.07
-0.07
-0.07
-0.07
-0.07
-0.07
-0.07
-0.07
-0.07
-0.07
-0.07
-0.07
-0.07
-0.06
-0.06
-0.06
-0.06
-0.06
-0.06
-0.06
-0.06
-0.06
-0.06
-0.06
-0.06
-0.06
-0.06
-0.06
-0.06
-0.06
-0.06
-0.06
-0.06
-0.05
-0.05
-0.05
-0.05
-0.05
-0.05
-0.05
-0.05
-0.05
-0.05
-0.05
-0.05
-0.05
-0.05
-0.05
-0.05
-0.05
-0.05
-0.05
-0.05
-0.05
-0.05
-0.05
-0.05
-0.05
-0.05
-0.05
-0.05
-0.04
-0.04
-0.04
-0.04
-0.04
-0.04
-0.04
-0.04
-0.04
-0.04
-0.04
-0.04
-0.04
-0.04
-0.04
-0.04
-0.04
-0.04
-0.04
-0.04
-0.04
-0.04
-0.04
-0.04
-0.04
-0.04
-0.04
-0.04
-0.04
-0.04
-0.04
-0.04
-0.04
-0.04
-0.04
-0.04
-0.04
-0.04
-0.04
-0.04
-0.04
-0.03
-0.04
-0.03
-0.03
-0.03
-0.03
-0.03
-0.03
-0.03
-0.03
-0.03
-0.02
-0.02
-0.02
-0.02
-0.04
-0.07
-0.10
-0.14
-0.17
-0.19
-0.20
-0.20
-0.21
-0.22
-0.25
-0.29
-0.33
-0.36
-0.38
-0.39
-0.41
-0.45
-0.52
-0.63
-0.78
-0.95
-1.12
-1.28
-1.42
-1.56
-1.72
-1.93
-2.20
-2.52
-2.86
-3.16
-3.40
-3.59
-3.77
-4.03
-4.43
-5.00
-5.71
-6.48
-7.20
-7.82
-8.32
-8.79
-9.34
-10.12
-11.18
-12.49
-13.96
-15.43
-16.79
-18.00
-19.12
-20.29
-21.68
-23.48
-25.81
-28.71
-32.01
-35.32
-38.01
-39.38
-38.90
-36.50
-32.71
-28.59
-25.37
-24.04
-24.97
-27.80
-31.70
-35.74
-39.36
-42.49
-45.40
-48.35
-51.30
-53.87
-55.48
-55.61
-53.83
-49.70
-42.68
-32.22
-18.13
-1.06
17.31
34.58
48.28
56.78
59.79
58.30
54.11
49.08
44.66
41.69
40.55
41.23
43.47
46.82
50.64
54.27
57.19
59.19
60.38
61.12
61.77
62.52
63.35
64.06
64.47
64.50
64.25
63.94
63.79
64.02
64.70
65.79
67.16
68.73
70.48
72.44
74.61
76.96
79.40
81.79
83.94
85.72
87.15
88.43
89.72
91.10
92.49
93.77
94.71
94.84
93.48
89.79
82.67
70.86
53.30
29.79
1.49
-29.41
-60.36
-88.89
-112.93
-131.34
-144.25
-152.88
-158.83
-162.73
-164.44
-163.27
-158.18
-148.05
-132.43
-112.08
-88.41
-62.80
-35.82
-8.88
14.69
29.86
32.16
19.95
-4.47
-35.19
-65.10
-88.40
-99.76
-98.87
-92.51
-88.93
-89.81
-89.23
-79.24
-59.36
-30.74
1.15
29.52
49.63
60.94
66.66
68.69
67.35
60.71
47.12
25.16
0.12
-18.38
-22.84
-12.84
5.20
22.65
33.32
36.18
33.73
29.45
25.06
20.20
14.04
6.70
-0.56
-5.88
-7.51
-5.05
0.83
8.36
15.46
20.55
22.90
22.60
20.69
18.16
16.00
15.02
15.13
15.57
15.41
14.17
12.06
9.96
8.88
9.59
12.24
16.00
19.45
21.21
20.57
17.65
13.24
8.28
3.66
0.02
-2.63
-4.68
-6.92
-9.77
-13.66
-18.69
-24.59
-30.35
-34.33
-35.16
-32.34
-26.85
-20.80
-16.75
-16.69
-21.79
-32.58
-47.52
-64.18
-78.80
-87.32
-86.71
-76.15
-57.51
-35.03
-13.75
2.61
12.94
18.78
22.64
26.27
29.63
31.43
30.45
26.71
21.41
16.14
12.00
9.07
6.79
4.65
2.57
1.10
0.93
2.46
5.37
8.78
11.44
12.11
10.15
5.28
-1.78
-9.16
-14.19
-14.24
-7.99
3.64
17.44
29.44
36.61
38.47
36.95
35.22
35.88
39.86
46.35
53.60
59.85
63.76
64.31
60.37
50.72
34.91
14.04
-8.71
-28.79
-41.88
-45.72
-41.06
-31.42
-21.72
-15.64
-14.85
-18.64
-24.66
-30.31
-33.95
-35.20
-34.35
-32.26
-29.02
-24.38
-18.10
-10.58
-2.94
3.25
6.81
7.45
5.87
3.53
1.91
1.98
3.93
7.22
10.74
13.35
14.06
12.44
8.89
4.41
0.27
-2.54
-3.74
-3.90
-3.91
-4.46
-5.61
-6.72
-6.99
-5.89
-3.64
-1.07
0.76
1.17
0.11
-1.78
-3.58
-4.48
-4.06
-2.61
-0.92
-0.02
-0.58
-2.77
-6.15
-10.07
-13.87
-16.80
-18.27
-17.61
-14.38
-9.22
-4.46
-3.68
-10.01
-23.90
-41.83
-57.33
-63.76
-57.27
-38.30
-10.89
19.76
49.64
75.04
93.77
104.34
104.94
94.00
72.09
43.09
13.46
-10.35
-24.69
-29.60
-28.38
-25.52
-24.71
-27.12
-31.85
-37.01
-40.89
-42.66
-42.32
-40.43
-37.70
-34.60
-31.08
-27.07
-22.64
-18.28
-14.71
-12.38
-11.31
-11.07
-10.95
-10.22
-9.11
-7.94
-7.11
-6.89
-7.17
-7.50
-7.31
-6.16
-3.86
-0.59
3.31
7.38
11.26
14.77
17.94
20.85
23.56
26.04
28.17
29.85
30.98
31.48
31.28
30.38
28.88
26.92
24.77
22.69
20.91
19.52
18.44
17.54
16.65
15.69
14.65
13.54
12.39
11.20
9.99
8.77
7.59
6.57
5.75
5.15
4.72
4.34
3.93
3.43
2.85
2.24
1.66
1.13
0.64
0.14
-0.46
-1.18
-2.01
-2.89
-3.67
-4.26
-4.59
-4.70
-4.69
-4.66
-4.70
-4.79
-4.88
-4.93
-4.88
-4.77
-4.61
-4.42
-4.19
-3.86
-3.42
-2.88
-2.26
-1.62
-0.98
-0.36
0.23
0.80
1.34
1.85
2.28
2.63
2.84
2.87
2.73
2.41
2.00
1.56
1.18
0.92
0.81
0.82
0.86
0.81
0.57
0.06
-0.68
-1.51
-2.25
-2.74
-2.94
-2.93
-2.83
-2.78
-2.84
-3.00
-3.19
-3.35
-3.46
-3.48
-3.43
-3.30
-3.10
-2.87
-2.65
-2.50
-2.42
-2.38
-2.34
-2.27
-2.17
-2.07
-1.99
-1.91
-1.82
-1.65
-1.36
-0.93
-0.35
0.37
1.17
1.97
2.66
3.12
3.28
3.12
2.73
2.21
1.69
1.23
0.84
0.52
0.24
0.00
-0.20
-0.35
-0.42
-0.41
-0.36
-0.31
-0.34
-0.48
-0.69
-0.88
-0.93
-0.76
-0.39
0.07
0.47
0.71
0.80
0.79
0.77
0.82
0.95
1.14
1.37
1.60
1.78
1.87
1.82
1.62
1.31
0.93
0.58
0.31
0.14
0.03
-0.04
-0.12
-0.20
-0.28
-0.35
-0.40
-0.48
-0.62
-0.84
-1.14
-1.49
-1.80
-2.01
-2.08
-2.01
-1.85
-1.67
-1.51
-1.41
-1.35
-1.31
-1.22
-1.06
-0.81
-0.51
-0.21
0.05
0.23
0.36
0.48
0.63
0.83
1.08
1.32
1.51
1.60
1.55
1.38
1.10
0.76
0.43
0.19
0.09
0.15
0.30
0.45
0.52
0.46
0.34
0.25
0.25
0.37
0.51
0.58
0.50
0.26
-0.08
-0.48
-0.89
-1.26
-1.55
-1.67
-1.54
-1.16
-0.58
0.04
0.53
0.75
0.71
0.48
0.22
0.04
0.01
0.10
0.27
0.47
0.68
0.88
1.06
1.19
1.24
1.18
1.00
0.74
0.45
0.21
0.10
0.13
0.31
0.56
0.81
0.99
1.05
0.98
0.78
0.48
0.12
-0.22
-0.45
-0.51
-0.43
-0.26
-0.14
-0.16
-0.34
-0.63
-0.89
-1.02
-1.00
-0.86
-0.70
-0.57
-0.46
-0.30
-0.03
0.35
0.74
1.02
1.07
0.87
0.50
0.12
-0.12
-0.13
0.05
0.30
0.50
0.55
0.46
0.30
0.17
0.13
0.16
0.16
0.07
-0.17
-0.51
-0.86
-1.10
-1.18
-1.09
-0.90
-0.69
-0.52
-0.46
-0.53
-0.70
-0.95
-1.18
-1.31
-1.27
-1.02
-0.60
-0.09
0.42
0.80
1.01
1.03
0.89
0.64
0.37
0.14
-0.02
-0.14
-0.24
-0.38
-0.51
-0.57
-0.51
-0.31
-0.03
0.23
0.36
0.34
0.21
0.07
-0.01
0.02
0.14
0.32
0.52
0.68
0.77
0.74
0.56
0.24
-0.17
-0.54
-0.77
-0.81
-0.64
-0.37
-0.10
0.07
0.11
0.06
0.01
0.03
0.14
0.27
0.31
0.19
-0.08
-0.38
-0.56
-0.53
-0.29
0.06
0.39
0.58
0.60
0.49
0.33
0.18
0.10
0.08
0.09
0.10
0.12
0.13
0.18
0.28
0.40
0.51
0.57
0.52
0.35
0.06
-0.29
-0.64
-0.95
-1.16
-1.26
-1.21
-1.01
-0.72
-0.40
-0.16
-0.03
-0.02
-0.08
-0.16
-0.19
-0.16
-0.06
0.06
0.20
0.32
0.39
0.36
0.24
0.09
0.02
0.07
0.22
0.42
0.62
0.75
0.74
0.59
0.42
0.32
0.30
0.24
0.12
-0.00
-0.04
0.04
0.24
0.62
1.16
1.72
2.01
2.07
2.07
2.25
2.79
3.74
5.24
7.17
9.22
10.82
11.72
11.94
11.56
10.70
8.23
3.74
-2.19
-7.62
-12.14
-15.54
-17.51
-17.55
-15.54
-11.91
-7.42
-3.13
-0.10
0.93
0.14
-1.57
-2.98
-3.10
-1.58
1.38
5.03
8.29
10.19
10.46
9.52
8.16
7.07
6.56
6.78
7.75
9.19
9.81
7.73
1.10
-10.16
-23.59
-35.05
-40.60
-38.39
-29.57
-17.66
-6.59
1.17
5.48
7.81
9.67
11.48
12.76
12.21
9.33
4.91
0.67
-1.57
-0.93
1.96
5.28
7.06
6.12
2.61
-2.12
-6.05
-7.16
-4.50
1.04
7.21
11.53
12.46
9.99
5.56
1.37
-0.28
1.81
7.19
14.20
21.00
25.94
27.33
23.06
9.80
-13.10
-40.87
-64.62
-76.42
-73.15
-57.33
-35.49
-14.97
-0.74
6.47
9.12
10.27
11.62
13.05
13.62
12.73
10.84
9.26
9.53
12.24
16.45
20.17
21.53
19.75
15.40
10.23
5.91
4.02
5.07
8.23
11.71
13.56
12.54
8.52
2.41
-4.24
-9.64
-12.40
-12.27
-9.94
-6.46
-2.90
0.36
3.16
5.32
6.76
7.35
7.00
5.77
3.94
1.93
0.12
-1.35
-2.68
-4.11
-5.81
-7.77
-9.71
-11.35
-12.53
-13.49
-14.04
-14.47
-15.03
-15.90
-17.00
-17.99
-18.42
-17.85
-16.05
-13.19
-9.90
-7.01
-5.26
-4.95
-5.71
-6.62
-6.59
-4.87
-1.46
2.91
7.20
10.56
12.76
14.06
15.01
15.96
16.95
17.74
18.05
17.86
17.42
17.13
17.38
18.33
19.84
21.50
22.69
22.71
20.94
17.15
11.75
5.89
1.11
-1.22
-0.46
3.08
8.34
14.00
18.89
22.34
24.07
23.77
21.04
15.62
7.97
-0.42
-7.27
-10.56
-9.09
-2.95
6.30
16.11
23.97
28.35
29.00
26.64
21.75
15.04
7.48
-0.02
-6.98
-13.16
-18.41
-22.67
-26.01
-29.64
-34.13
-38.81
-42.56
-44.64
-45.05
-44.27
-43.11
-42.37
-44.00
-48.75
-55.60
-62.68
-68.50
-71.99
-72.42
-69.55
-56.43
-33.77
-10.03
6.41
13.80
15.45
15.87
18.20
22.47
27.83
31.46
31.72
29.22
25.72
22.57
20.12
18.12
16.16
14.03
10.70
6.13
1.49
-1.80
-3.16
-2.87
-1.69
-0.48
0.13
-0.85
-3.61
-7.22
-10.35
-12.01
-11.87
-10.18
-7.61
-4.90
-2.89
-1.79
-1.10
-0.10
1.59
3.81
6.03
7.66
8.36
8.05
7.06
6.01
5.55
6.07
7.65
10.10
13.00
15.82
17.94
18.91
18.47
16.72
14.02
10.88
7.79
5.10
2.96
1.39
0.35
-0.16
-0.13
0.42
1.40
2.67
4.01
5.23
6.19
6.81
7.08
6.95
6.36
5.27
3.62
1.50
-0.91
-3.33
-5.45
-7.07
-8.07
-8.45
-8.23
-7.47
-6.28
-4.82
-3.28
-1.91
-0.84
-0.11
0.36
0.72
1.06
1.41
1.68
1.72
1.36
0.51
-0.86
-2.63
-4.58
-6.43
-7.86
-8.65
-8.71
-8.12
-7.17
-6.22
-5.61
-5.55
-6.01
-6.66
-7.00
-6.55
-5.05
-2.73
-0.36
0.95
0.07
-3.65
-10.05
-18.07
-26.02
-32.00
-34.43
-32.45
-26.05
-16.11
-4.09
8.21
19.03
27.02
31.44
32.41
30.71
27.57
24.30
21.84
20.67
20.72
21.59
22.71
23.55
23.68
22.90
21.19
18.70
15.73
12.63
9.72
7.21
5.21
3.71
2.58
1.70
0.88
-0.01
-1.06
-2.27
-3.56
-4.79
-5.83
-6.63
-7.19
-7.62
-7.97
-8.22
-8.37
-8.33
-8.05
-7.49
-6.68
-5.74
-4.78
-3.90
-3.13
-2.48
-1.87
-1.23
-0.49
0.35
1.20
1.95
2.61
3.30
4.14
5.23
6.58
8.09
9.52
10.66
11.40
12.02
12.80
13.78
14.73
15.38
15.56
15.23
14.54
13.68
13.23
13.48
14.19
14.88
15.34
15.73
16.37
17.45
18.87
20.87
23.26
25.16
25.57
23.98
20.55
15.85
10.57
5.45
2.10
1.72
4.39
9.33
15.60
22.31
28.59
33.67
31.80
21.06
5.30
-9.28
-19.29
-24.67
-26.84
-27.36
-27.35
-27.39
-26.85
-25.28
-23.21
-21.71
-21.42
-22.14
-23.27
-24.10
-24.10
-22.58
-19.58
-16.14
-13.62
-12.66
-12.92
-13.57
-13.90
-13.68
-12.77
-11.48
-10.30
-9.95
-10.72
-12.35
-13.80
-14.19
-13.42
-11.75
-9.57
-7.19
-4.91
-2.99
-1.67
-1.20
-1.78
-3.40
-5.53
-7.41
-8.55
-8.57
-7.50
-5.77
-4.05
-3.05
-3.17
-4.25
-5.63
-6.55
-6.44
-5.17
-2.97
-0.29
2.62
5.32
7.53
9.04
9.68
9.41
8.31
6.72
5.15
4.05
3.55
3.50
3.55
3.39
3.02
2.76
3.16
4.57
6.86
9.37
11.30
12.24
12.39
12.52
13.42
15.34
17.77
19.61
19.73
17.65
13.69
8.81
4.08
0.20
-2.69
-4.88
-6.74
-8.48
-10.01
-11.05
-11.36
-10.85
-9.66
-8.08
-6.45
-4.98
-3.73
-2.60
-1.52
-0.53
0.17
0.31
-0.26
-1.46
-3.01
-4.53
-5.69
-6.38
-6.67
-6.72
-6.68
-6.65
-6.59
-6.46
-6.20
-5.78
-5.26
-4.77
-4.46
-4.47
-4.84
-5.48
-6.18
-6.69
-6.77
-6.33
-5.42
-4.21
-2.92
-1.73
-0.79
-0.09
0.39
0.75
1.01
1.16
1.12
0.77
0.07
-0.96
-2.14
-3.25
-4.12
-4.67
-4.98
-5.25
-5.67
-6.29
-7.04
-7.72
-8.13
-8.14
-7.75
-7.06
-6.23
-5.42
-4.78
-4.40
-4.30
-4.40
-4.47
-4.15
-3.06
-0.92
2.25
6.08
9.90
12.97
14.66
14.76
13.46
11.35
9.14
7.39
6.37
5.99
5.91
5.76
5.31
4.55
3.67
2.91
2.41
2.15
2.03
1.90
1.73
1.55
1.45
1.49
1.62
1.71
1.60
1.26
0.80
0.46
0.51
1.09
2.09
3.23
4.15
4.65
4.74
4.66
4.70
5.04
5.56
5.97
5.91
5.20
3.96
2.53
1.31
0.53
0.14
-0.10
-0.47
-1.07
-1.76
-2.21
-2.13
-1.41
-0.22
1.05
1.98
2.34
2.11
1.54
0.90
0.42
0.14
-0.05
-0.26
-0.55
-0.84
-0.95
-0.69
0.03
1.16
2.48
3.68
4.45
4.58
4.05
3.04
1.86
0.85
0.21
-0.04
-0.00
0.16
0.29
0.28
-0.03
-0.82
-2.37
-4.86
-8.26
-12.23
-16.15
-19.33
-21.20
-21.55
-20.55
-18.65
-16.34
-13.98
-11.78
-9.81
-8.10
-6.75
-5.85
-5.40
-5.22
-4.97
-4.22
-2.73
-0.50
2.19
4.86
7.09
8.65
9.53
9.90
9.97
9.85
9.59
9.12
8.44
7.59
6.70
5.96
5.50
5.37
5.52
5.84
6.27
6.79
7.38
8.03
8.66
9.18
9.54
9.76
9.97
10.32
10.85
11.42
11.71
11.34
10.01
7.54
3.96
-0.41
-4.91
-8.68
-10.94
-11.24
-9.77
-7.36
-5.20
-4.42
-5.36
-7.40
-9.29
-9.81
-8.25
-4.68
0.25
5.55
10.19
13.58
15.58
16.26
15.75
14.29
12.19
9.72
6.99
3.72
-0.17
-4.34
-8.15
-10.85
-11.88
-11.10
-8.93
-5.18
-1.15
1.26
1.38
-0.00
-1.85
-3.92
-6.73
-11.01
-16.88
-23.68
-29.70
-32.71
-31.15
-24.99
-15.80
-6.06
1.87
6.59
7.99
7.12
5.80
5.27
5.73
6.51
6.73
5.88
4.05
1.64
-1.04
-3.64
-6.05
-8.15
-9.51
-9.28
-6.56
-1.03
7.17
15.40
20.91
22.22
19.65
14.81
9.59
5.24
2.04
-0.54
-3.32
-6.50
-9.76
-12.53
-14.36
-15.11
-14.98
-14.39
-13.75
-13.63
-13.76
-13.74
-13.22
-12.09
-10.53
-8.89
-7.65
-7.16
-7.60
-8.73
-10.14
-11.53
-12.94
-14.67
-16.88
-19.28
-21.14
-21.64
-20.16
-16.36
-10.31
-2.61
5.59
13.29
19.87
25.05
28.66
30.60
31.30
31.57
32.29
33.97
36.65
39.80
42.40
43.18
41.04
35.91
28.62
20.63
13.58
9.17
8.96
13.87
24.01
35.81
44.91
48.53
46.85
41.31
33.07
22.95
11.64
-0.05
-11.18
-20.42
-26.61
-29.32
-29.16
-27.34
-25.13
-23.52
-22.98
-23.50
-24.35
-24.67
-23.97
-22.38
-20.64
-19.06
-17.80
-16.86
-16.10
-15.11
-13.57
-11.39
-8.84
-6.40
-4.53
-3.59
-3.73
-4.72
-5.92
-6.51
-5.88
-4.01
-1.53
0.46
0.72
-1.58
-6.61
-13.41
-20.42
-25.92
-28.59
-28.03
-24.76
-19.95
-14.92
-10.75
-8.06
-7.03
-7.53
-9.17
-11.39
-13.41
-14.50
-14.25
-12.74
-10.56
-8.46
-6.87
-5.65
-4.16
-1.76
1.69
5.68
9.31
11.92
13.60
15.24
18.12
23.09
30.12
38.16
45.54
50.68
52.52
50.83
46.01
38.92
30.51
21.72
13.41
6.25
0.70
-3.10
-5.32
-6.43
-7.08
-7.91
-9.44
-11.91
-15.31
-19.35
-23.54
-27.27
-29.99
-31.34
-31.22
-29.85
-27.62
-25.00
-22.33
-19.76
-17.28
-14.82
-12.35
-9.98
-7.93
-6.46
-5.75
-5.74
-6.01
-5.85
-4.44
-1.20
3.93
10.45
17.44
23.89
29.06
32.61
34.55
35.08
34.41
32.73
30.30
27.49
24.75
22.51
21.04
20.34
20.23
20.43
20.60
20.44
19.66
18.10
15.78
12.92
9.95
7.36
5.56
4.74
4.80
5.48
6.39
7.18
7.56
7.37
6.54
5.16
3.49
1.88
0.75
0.40
0.96
2.36
4.33
6.51
8.55
10.19
11.30
11.98
12.50
13.21
14.37
15.96
17.56
18.44
17.78
15.07
10.32
4.08
-2.78
-9.50
-15.68
-21.27
-26.45
-31.45
-36.33
-40.95
-45.03
-48.15
-49.77
-49.34
-46.52
-41.41
-34.75
-27.72
-21.63
-17.36
-15.08
-14.23
-13.90
-13.33
-12.24
-10.84
-9.57
-8.78
-8.55
-8.64
-8.68
-8.37
-7.64
-6.60
-5.52
-4.65
-4.15
-3.96
-3.81
-3.16
-1.45
1.73
6.40
12.07
17.87
22.83
26.23
27.87
28.05
27.31
26.19
25.02
23.92
22.90
21.71
19.95
17.04
12.41
5.79
-2.47
-11.29
-19.11
-24.47
-26.77
-26.26
-23.83
-20.54
-17.22
-14.29
-11.80
-9.70
-8.08
-7.56
-8.69
-11.61
-15.84
-20.47
-24.45
-26.92
-27.49
-26.34
-24.45
-22.71
-21.49
-20.57
-19.59
-18.47
-17.60
-17.62
-16.54
-13.17
-7.50
-0.57
6.44
12.59
17.13
19.72
20.64
20.77
20.75
21.03
21.68
22.41
22.76
22.47
21.72
21.09
21.17
21.84
22.60
22.91
22.23
20.33
17.43
14.17
11.36
9.60
8.78
8.43
7.95
6.93
5.06
2.43
-0.55
-3.30
-5.27
-6.33
-6.49
-5.99
-4.28
-2.03
-0.33
0.06
-1.05
-2.88
-4.65
-5.70
-5.81
-5.17
-3.98
-2.87
-2.31
-2.47
-2.69
-2.47
-1.41
0.03
1.65
3.07
4.18
5.13
6.14
7.44
8.96
10.45
11.50
11.92
11.50
10.17
8.12
5.06
0.66
-5.10
-11.47
-17.15
-20.72
-21.49
-20.96
-19.96
-19.45
-20.03
-21.74
-23.95
-25.72
-26.22
-23.15
-16.75
-8.54
-0.48
6.16
11.13
14.75
17.45
19.66
21.08
21.08
19.65
17.23
14.60
12.53
11.42
11.24
11.63
11.81
11.10
9.40
6.97
4.34
2.08
0.53
-0.20
-0.26
0.01
0.21
0.19
-0.02
-0.31
-0.53
-0.64
-0.71
-0.87
-1.24
-1.86
-2.64
-3.38
-3.90
-4.10
-4.00
-3.75
-3.51
-3.39
-3.40
-3.48
-3.44
-3.12
-2.40
-1.30
0.04
1.46
2.77
3.83
4.61
5.10
5.39
5.52
5.42
5.03
4.39
3.64
2.94
2.42
2.19
2.25
2.51
2.66
2.51
2.06
1.51
1.04
0.72
0.49
0.26
-0.09
-0.86
-2.09
-3.53
-4.80
-5.70
-6.35
-6.95
-7.64
-8.56
-9.99
-11.99
-14.31
-16.56
-18.52
-20.23
-21.83
-23.42
-23.24
-20.79
-17.20
-14.12
-12.18
-11.05
-10.25
-9.98
-10.01
-10.34
-11.22
-12.56
-13.91
-14.75
-14.39
-12.83
-10.36
-7.24
-3.76
-0.08
3.91
8.49
13.69
19.07
23.80
27.08
28.47
28.00
26.38
24.85
24.67
26.42
29.71
33.39
36.12
36.94
35.48
32.29
28.49
25.22
23.14
22.60
23.97
27.78
34.33
40.60
42.11
35.12
19.54
-1.08
-21.48
-36.73
-44.04
-43.70
-38.70
-32.59
-27.78
-24.71
-22.45
-19.85
-16.61
-13.56
-12.02
-12.99
-16.19
-20.17
-23.15
-24.33
-23.71
-22.23
-21.06
-20.67
-20.72
-20.00
-16.98
-10.50
-0.39
12.39
26.00
37.67
45.13
47.25
44.25
37.55
29.16
20.93
14.03
8.84
4.57
0.75
-2.76
-5.75
-7.83
-8.76
-8.63
-7.80
-6.82
-6.23
-6.17
-6.45
-6.71
-6.48
-5.46
-3.64
-1.37
1.21
3.51
5.10
5.73
5.33
4.01
2.03
-0.21
-2.15
-3.30
-3.43
-2.61
-1.32
-0.31
-0.17
-1.09
-2.78
-4.64
-6.05
-6.77
-6.91
-6.89
-7.15
-7.86
-8.79
-9.36
-8.90
-7.01
-3.89
-0.35
2.33
2.87
0.41
-5.21
-13.44
-23.25
-33.49
-43.09
-51.11
-56.82
-59.66
-59.30
-55.73
-49.28
-40.57
-30.47
-19.95
-9.97
-1.40
5.20
9.70
12.46
14.28
16.10
18.69
22.47
27.44
33.20
39.10
44.45
48.61
51.08
51.51
49.89
46.67
42.76
39.12
36.23
34.02
31.86
28.94
24.80
19.71
14.61
10.60
8.15
6.76
5.54
3.79
1.42
-1.17
-3.45
-5.10
-6.25
-7.28
-8.66
-10.03
-10.49
-9.17
-5.98
-2.35
-0.51
-1.79
-4.61
-7.99
-11.11
-13.50
-14.61
-14.26
-12.66
-10.05
-6.60
-2.51
1.71
5.64
8.85
10.89
11.40
10.41
8.44
6.31
4.72
3.82
3.44
3.06
2.03
-0.14
-3.53
-7.79
-12.30
-16.26
-18.95
-19.61
-17.77
-13.46
-7.27
-0.13
6.91
13.05
17.88
20.98
22.85
24.46
26.35
28.34
29.98
31.37
32.08
31.79
30.23
27.29
22.99
17.49
11.24
5.27
0.52
-2.73
-4.91
-7.13
-10.83
-17.29
-27.05
-39.49
-52.88
-65.02
-74.02
-78.75
-79.16
-76.08
-70.89
-64.99
-59.44
-54.80
-51.22
-48.37
-45.43
-41.15
-34.25
-23.89
-10.18
5.67
21.82
36.23
47.40
54.77
58.66
59.86
59.11
56.75
52.74
47.08
40.01
32.27
25.00
19.34
16.01
15.16
16.39
18.91
22.08
25.26
28.00
30.01
31.16
31.43
30.87
29.49
27.04
23.80
19.81
15.28
10.56
6.03
1.94
-1.64
-4.73
-7.79
-10.05
-11.34
-11.71
-11.52
-11.40
-12.02
-13.71
-16.39
-20.30
-23.72
-26.05
-26.90
-26.23
-24.41
-22.13
-20.48
-20.78
-25.24
-33.12
-43.82
-55.34
-64.62
-68.61
-65.47
-55.44
-34.42
-15.06
1.26
13.14
20.65
24.74
26.25
25.54
22.58
17.46
9.82
2.23
-3.85
-7.29
-7.70
-5.47
-1.38
3.73
9.18
13.60
17.33
19.64
19.85
17.67
13.41
8.21
3.74
1.50
1.66
4.57
9.28
14.80
20.48
25.80
30.68
35.32
39.89
44.15
48.34
52.41
56.12
58.71
58.35
53.71
44.80
32.74
19.07
5.53
-6.62
-16.75
-24.91
-32.41
-39.75
-46.07
-50.21
-51.89
-51.85
-51.46
-52.27
-55.57
-63.16
-74.78
-87.89
-99.33
-107.09
-110.66
-110.39
-106.79
-90.60
-60.17
-22.97
11.56
38.30
55.55
63.10
62.14
56.48
48.45
38.76
28.49
19.39
12.96
9.73
9.56
12.42
17.91
24.92
31.28
35.82
39.14
42.65
47.28
52.99
59.05
64.38
67.98
68.95
67.34
64.05
59.80
54.52
47.59
38.63
27.95
16.47
5.16
-4.99
-13.21
-19.27
-23.46
-26.46
-28.69
-30.22
-31.01
-31.27
-31.31
-31.32
-31.26
-30.77
-29.64
-27.46
-23.81
-18.78
-13.15
-8.09
-4.61
-3.17
-3.43
-5.16
-7.67
-9.97
-11.38
-11.95
-12.23
-12.83
-14.10
-16.10
-19.49
-24.45
-30.29
-35.83
-40.13
-42.65
-43.30
-42.49
-36.65
-26.12
-14.89
-6.70
-1.94
1.19
4.48
8.67
12.98
16.71
18.29
16.92
13.30
9.21
6.34
5.70
7.90
12.96
20.42
28.70
35.69
39.26
38.77
35.33
30.66
26.10
22.20
18.99
15.80
12.46
9.06
6.37
5.05
5.22
6.60
8.68
10.99
12.61
13.02
12.17
10.47
8.24
5.52
2.54
-0.69
-3.81
-6.45
-8.41
-9.83
-11.21
-12.81
-15.34
-19.12
-23.86
-28.61
-32.36
-34.52
-35.11
-34.62
-33.61
-32.49
-31.14
-29.10
-25.86
-21.24
-15.48
-9.02
-2.32
4.27
10.42
15.93
20.56
24.13
26.46
27.48
27.33
26.40
25.13
23.83
22.71
21.82
21.09
20.32
19.18
17.64
15.83
13.85
11.63
9.12
6.46
4.01
2.26
1.39
1.56
2.72
4.44
5.94
6.49
5.59
2.93
-1.66
-8.39
-16.74
-25.40
-32.68
-36.98
-37.12
-32.77
-24.65
-13.00
-0.97
7.44
10.69
10.31
8.83
8.04
8.45
9.61
10.97
11.81
12.06
12.04
11.97
11.64
10.72
8.92
6.20
2.37
-1.89
-5.37
-7.07
-6.89
-5.79
-5.02
-5.67
-8.13
-11.92
-16.12
-19.65
-21.63
-21.83
-20.98
-19.39
-17.48
-15.62
-14.06
-12.97
-12.42
-12.34
-12.62
-13.18
-13.82
-14.33
-14.30
-13.21
-10.34
-5.49
0.94
8.02
14.58
19.74
23.16
25.15
26.43
27.69
29.25
31.15
33.30
35.54
37.67
39.42
40.50
40.66
39.64
37.31
33.71
29.13
23.85
18.13
12.27
6.64
1.55
-3.00
-7.24
-11.29
-14.91
-17.63
-19.01
-18.89
-17.65
-16.32
-16.40
-19.25
-25.38
-32.83
-38.31
-39.35
-36.21
-30.94
-25.46
-20.60
-16.06
-11.05
-4.98
1.91
8.62
14.02
17.65
19.81
21.16
22.16
23.00
23.21
22.27
19.91
16.38
12.51
9.29
7.35
6.77
7.07
7.57
7.78
7.58
7.24
7.33
8.19
9.62
11.46
13.00
13.51
12.51
10.00
6.64
3.66
2.45
3.93
8.05
13.47
17.98
19.24
15.68
7.21
-4.57
-17.06
-27.57
-34.38
-37.03
-36.08
-32.63
-27.86
-22.65
-17.63
-13.39
-10.61
-9.97
-11.47
-14.22
-17.00
-18.95
-19.88
-20.40
-21.60
-24.55
-29.71
-35.82
-40.18
-40.50
-36.15
-28.34
-19.49
-12.30
-8.87
-10.26
-15.00
-19.68
-21.07
-17.60
-9.41
1.75
12.59
18.85
16.13
3.17
-17.04
-38.95
-56.29
-63.26
-55.83
-32.96
7.83
56.82
96.42
115.25
113.02
95.52
70.24
44.16
22.90
6.53
-5.99
-14.86
-19.36
-19.60
-16.88
-12.91
-8.54
-4.76
-2.08
-0.43
1.60
6.08
13.43
22.45
31.30
38.31
42.10
41.73
36.76
27.69
15.78
1.86
-13.10
-27.58
-39.95
-49.39
-56.19
-61.38
-65.96
-66.61
-62.09
-53.84
-44.07
-34.21
-25.32
-18.65
-15.64
-15.87
-18.12
-21.12
-23.23
-22.74
-18.45
-9.93
2.04
15.98
30.07
42.39
51.04
55.22
55.61
53.75
51.38
49.85
49.89
51.66
54.50
57.09
58.24
57.41
54.39
49.36
42.92
36.03
29.92
25.41
22.53
20.83
19.66
18.07
15.26
10.99
5.73
0.69
-2.94
-4.63
-4.74
-4.41
-5.47
-9.35
-16.41
-25.58
-33.65
-36.83
-33.50
-26.59
-18.56
-11.44
-6.63
-4.65
-6.53
-12.78
-22.72
-34.33
-44.76
-51.62
-53.97
-52.37
-48.36
-43.84
-39.85
-35.96
-30.91
-21.08
-6.28
9.30
20.39
25.00
25.00
22.86
20.61
18.78
17.30
15.19
11.66
7.10
3.07
1.21
2.34
6.08
10.83
14.53
15.41
13.18
9.28
5.90
4.56
5.32
7.10
8.38
8.05
5.61
1.56
-3.03
-7.14
-10.43
-13.19
-15.78
-18.38
-20.81
-22.88
-24.43
-25.39
-25.82
-25.97
-26.06
-26.10
-25.86
-24.99
-23.30
-20.74
-17.45
-13.68
-9.79
-6.05
-2.62
0.45
3.22
5.77
8.11
10.20
11.89
13.05
13.59
13.60
13.35
13.19
13.43
14.17
15.24
16.29
16.96
17.01
16.41
15.28
13.80
12.13
10.35
8.51
6.65
4.84
3.13
1.54
0.10
-1.19
-2.26
-3.02
-3.43
-3.53
-3.48
-3.50
-3.84
-4.59
-5.67
-6.84
-7.70
-7.90
-7.24
-5.77
-3.79
-1.80
-0.28
0.43
0.28
-0.47
-1.29
-1.50
-0.43
2.22
6.22
10.84
14.87
16.93
15.91
11.44
4.35
-3.68
-10.67
-15.24
-17.06
-16.96
-16.55
-17.59
-21.42
-28.40
-38.02
-49.29
-60.90
-71.15
-78.11
-80.12
-76.45
-67.72
-55.37
-41.57
-29.06
-20.13
-15.48
-13.81
-12.61
-9.31
-2.31
9.58
26.27
45.41
63.30
76.84
84.87
87.86
87.66
86.81
89.77
100.16
117.33
135.37
145.35
138.77
110.57
61.85
0.92
-56.13
-92.08
-96.48
-69.10
-17.37
48.14
117.21
182.19
223.05
223.67
186.82
131.48
75.15
26.01
-13.84
-44.35
-66.29
-80.99
-87.91
-86.70
-79.87
-72.29
-68.06
-68.50
-72.42
-77.53
-81.69
-81.97
-76.56
-67.02
-56.81
-49.18
-45.31
-44.40
-44.86
-45.19
-43.42
-38.31
-30.62
-22.60
-16.30
-12.52
-10.74
-9.98
-9.38
-8.02
-5.52
-2.47
-0.05
0.96
-0.00
-2.34
-5.08
-7.29
-8.27
-7.84
-6.40
-4.61
-2.94
-1.55
-0.27
1.14
2.98
5.39
8.32
11.57
14.74
17.28
18.59
18.59
18.23
19.54
24.73
34.86
48.95
63.92
75.53
79.92
75.00
61.35
41.77
19.93
-0.97
-18.77
-32.23
-40.32
-41.82
-37.60
-30.52
-23.35
-17.34
-12.46
-8.75
-6.25
-4.91
-4.94
-6.29
-8.45
-10.55
-11.89
-12.25
-11.90
-11.22
-10.53
-10.02
-9.69
-9.27
-8.31
-6.49
-3.87
-0.81
2.33
5.28
7.86
9.96
11.48
12.35
12.39
11.34
9.04
5.75
2.05
-1.29
-3.57
-4.40
-3.75
-1.97
0.34
2.59
4.35
5.49
6.03
6.13
5.89
5.41
4.74
3.91
2.99
2.13
1.49
1.17
1.23
1.61
2.27
3.17
4.32
5.73
7.35
9.01
10.46
11.45
11.79
11.46
10.59
9.37
7.93
6.29
4.41
2.22
-0.16
-2.41
-4.08
-4.74
-4.20
-2.67
-0.73
0.90
1.58
0.97
-0.89
-3.70
-6.98
-10.27
-13.18
-15.41
-16.74
-17.02
-16.28
-14.71
-12.69
-10.75
-9.42
-9.10
-9.88
-11.52
-13.52
-15.27
-16.24
-16.13
-14.92
-12.79
-10.04
-6.97
-3.85
-0.86
1.79
4.00
5.67
6.78
7.38
7.52
7.24
6.54
5.41
3.85
1.93
-0.24
-2.50
-4.74
-6.89
-8.95
-10.92
-12.76
-14.36
-15.52
-16.08
-15.95
-15.16
-13.88
-12.30
-10.58
-8.83
-7.08
-5.38
-3.78
-2.33
-1.04
0.18
1.49
2.98
4.64
6.34
7.86
9.04
9.86
10.46
11.00
11.63
12.34
13.02
13.54
13.83
13.92
13.93
13.93
13.91
13.77
13.35
12.57
11.50
10.33
9.31
8.66
8.44
8.56
8.85
9.11
9.21
9.15
8.95
8.66
8.27
7.71
6.87
5.67
4.11
2.31
0.47
-1.16
-2.42
-3.22
-3.62
-3.71
-3.57
-3.20
-2.56
-1.63
-0.46
0.74
1.74
2.32
2.43
2.14
1.64
1.08
0.49
-0.22
-1.25
-2.72
-4.63
-6.81
-9.03
-11.14
-13.16
-15.31
-17.88
-21.14
-25.18
-29.92
-35.07
-40.22
-44.90
-48.65
-51.15
-52.31
-52.39
-51.86
-51.13
-50.30
-48.97
-46.39
-41.98
-35.62
-27.91
-19.94
-12.79
-7.22
-3.46
-1.42
-0.74
-1.32
-2.79
-4.50
-5.50
-4.79
-1.82
3.26
9.52
15.94
21.18
24.58
26.11
26.17
25.36
24.31
23.66
24.09
26.43
30.44
35.43
40.14
42.98
42.59
38.31
30.59
20.93
11.93
5.41
3.10
5.93
13.78
25.42
38.67
50.90
56.83
57.98
53.58
44.36
31.99
18.66
6.42
-3.16
-9.16
-11.24
-9.21
-4.00
2.80
8.92
12.53
12.90
10.15
4.97
-1.62
-8.12
-13.85
-18.22
-20.96
-22.03
-21.52
-19.65
-16.69
-12.93
-8.50
-4.06
-0.13
2.88
4.87
6.04
6.56
6.79
7.06
7.71
8.79
10.26
11.83
13.25
14.24
14.55
14.01
12.75
11.22
9.96
9.48
9.84
10.82
11.93
12.55
12.00
10.10
7.31
4.26
2.60
2.87
4.92
7.82
10.07
9.86
6.29
-0.14
-7.90
-15.31
-21.31
-25.56
-28.54
-31.47
-36.13
-43.21
-51.85
-60.20
-66.64
-70.61
-72.40
-72.88
-73.33
-75.12
-78.06
-80.36
-79.71
-75.14
-67.54
-58.41
-48.40
-30.77
-3.39
29.37
60.60
85.71
102.10
108.54
105.53
97.42
84.46
65.73
41.13
12.79
-14.45
-35.17
-45.62
-42.36
-25.41
0.34
26.74
45.97
50.91
41.98
26.56
13.78
5.54
0.48
-3.98
-9.12
-14.81
-19.64
-21.32
-18.99
-14.04
-8.86
-5.05
-3.19
-2.75
-2.62
-1.59
1.65
6.87
12.13
15.22
15.37
13.18
10.20
8.12
8.33
12.30
20.22
30.61
41.27
50.47
56.89
59.72
58.59
50.58
36.22
19.74
5.81
-3.42
-7.87
-8.44
-6.12
-1.83
3.61
9.65
16.28
22.78
28.20
32.10
34.25
34.66
33.45
30.69
26.77
22.06
16.74
11.06
5.56
0.56
-3.45
-5.92
-6.76
-6.31
-5.41
-5.16
-6.38
-9.24
-14.10
-20.40
-26.87
-32.60
-37.50
-42.12
-47.17
-53.08
-59.70
-67.62
-75.98
-82.53
-85.46
-84.59
-81.13
-77.01
-74.19
-74.07
-78.80
-88.14
-99.16
-108.40
-113.23
-111.63
-101.81
-82.47
-44.16
8.91
61.13
98.49
116.27
116.57
104.54
86.19
66.99
50.83
38.12
28.01
21.22
18.22
18.31
20.19
22.79
25.46
27.91
28.84
28.32
27.90
28.82
31.03
33.63
35.68
36.54
36.00
33.47
29.24
24.70
21.11
19.04
18.48
19.12
20.45
21.81
22.17
21.03
18.71
15.84
12.96
10.46
8.57
7.25
6.23
4.94
2.89
-0.12
-4.09
-8.85
-14.03
-19.09
-23.48
-26.78
-28.80
-29.63
-29.51
-28.75
-27.61
-26.23
-24.70
-23.12
-21.61
-20.31
-19.34
-18.75
-18.44
-18.29
-18.14
-17.91
-17.60
-17.22
-16.81
-16.33
-15.71
-14.91
-13.90
-12.74
-11.52
-10.37
-9.40
-8.70
-8.30
-8.12
-7.91
-7.28
-5.77
-3.08
0.73
5.17
9.41
12.62
14.30
14.55
13.92
13.15
12.74
12.81
13.05
13.08
12.67
11.90
11.04
10.38
10.00
9.72
9.26
8.41
7.18
5.74
4.39
3.37
2.82
2.76
3.18
4.00
5.11
6.34
7.41
8.03
7.88
6.80
4.81
2.21
-0.45
-2.50
-3.31
-2.58
-0.50
2.32
5.03
6.89
7.61
7.42
6.91
6.73
7.26
8.45
9.90
10.99
11.17
10.08
7.67
4.18
0.13
-3.85
-7.13
-9.28
-10.17
-10.02
-9.23
-8.26
-7.42
-6.82
-6.46
-6.27
-6.25
-6.38
-6.59
-6.69
-6.41
-5.57
-4.17
-2.42
-0.72
0.49
0.95
0.60
-0.40
-1.74
-3.12
-4.27
-5.02
-5.33
-5.20
-4.68
-3.85
-2.77
-1.55
-0.30
0.85
1.77
2.40
2.76
2.96
3.12
3.34
3.63
3.90
4.05
3.97
3.64
3.11
2.53
2.03
1.70
1.51
1.32
0.98
0.37
-0.46
-1.30
-1.86
-1.87
-1.25
-0.07
1.39
2.83
3.98
4.68
4.89
4.70
4.25
3.68
3.06
2.34
1.40
0.10
-1.53
-3.22
-4.50
-4.83
-3.80
-1.37
2.08
5.89
9.33
11.81
13.02
12.89
11.55
9.22
6.22
2.90
-0.36
-3.13
-5.08
-5.94
-5.65
-4.32
-2.22
0.27
2.70
4.67
5.88
6.22
5.72
4.58
3.09
1.52
0.11
-1.01
-1.77
-2.19
-2.29
-2.09
-1.60
-0.84
0.13
1.19
2.16
2.86
3.18
3.10
2.72
2.18
1.65
1.26
1.06
1.04
1.17
1.35
1.51
1.56
1.46
1.20
0.81
0.40
0.06
-0.11
-0.08
0.13
0.40
0.62
0.69
0.59
0.37
0.11
-0.12
-0.27
-0.38
-0.52
-0.75
-1.12
-1.60
-2.07
-2.44
-2.59
-2.46
-2.09
-1.56
-0.97
-0.39
0.13
0.59
0.97
1.26
1.41
1.40
1.24
0.98
0.72
0.53
0.44
0.45
0.51
0.55
0.48
0.29
-0.03
-0.39
-0.66
-0.71
-0.46
0.04
0.62
1.05
1.17
0.89
0.28
-0.49
-1.23
-1.82
-2.19
-2.34
-2.31
-2.16
-1.95
-1.73
-1.51
-1.28
-1.02
-0.70
-0.36
-0.06
0.10
0.02
-0.30
-0.82
-1.40
-1.87
-2.08
-1.95
-1.44
-0.60
0.50
1.71
2.89
3.86
4.52
4.79
4.69
4.29
3.70
3.04
2.43
1.99
1.85
2.14
3.01
4.53
6.68
9.25
11.92
14.27
15.92
16.67
16.53
15.69
14.45
13.07
11.74
10.54
9.47
8.55
7.78
7.13
6.51
5.75
4.73
3.41
1.91
0.46
-0.65
-1.24
-1.19
-0.58
0.43
1.63
2.83
3.90
4.75
5.35
5.74
6.01
6.32
6.77
7.42
8.14
8.72
8.83
8.21
6.69
4.34
1.43
-1.72
-4.72
-7.26
-9.26
-10.81
-12.23
-13.89
-15.96
-18.37
-20.97
-23.41
-25.23
-26.24
-26.48
-26.40
-26.64
-27.64
-29.46
-32.02
-34.70
-36.52
-36.61
-34.34
-29.62
-23.03
-15.37
-7.67
-1.53
1.83
2.08
-0.38
-4.14
-7.49
-8.95
-7.43
-2.69
4.09
11.60
19.13
26.37
33.69
41.28
46.82
48.03
47.32
45.66
42.05
36.47
27.44
15.30
2.13
-9.29
-16.86
-20.16
-20.83
-20.78
-21.15
-22.16
-22.75
-21.60
-18.00
-12.09
-5.04
1.04
4.57
5.19
3.34
0.33
-3.07
-6.61
-10.28
-14.09
-18.31
-22.67
-26.32
-28.31
-27.74
-24.25
-18.25
-10.77
-3.02
2.61
4.41
2.12
-3.33
-10.18
-16.66
-21.61
-24.90
-26.69
-27.35
-26.98
-25.30
-22.09
-17.37
-11.60
-5.49
0.21
5.15
9.52
13.08
16.25
19.55
23.36
27.75
32.37
36.55
39.49
40.48
39.23
36.09
31.80
27.22
23.02
19.53
16.74
14.45
12.46
10.72
9.44
8.76
8.69
8.99
9.29
9.21
8.62
7.61
6.48
5.67
5.42
5.73
6.35
6.92
7.13
6.88
6.26
5.44
4.68
4.11
3.76
3.64
3.82
4.43
5.64
7.53
9.94
12.47
14.54
15.64
15.58
14.61
13.31
12.31
12.03
12.48
13.32
13.90
13.63
12.12
9.35
5.65
1.57
-2.31
-5.45
-7.54
-8.59
-8.82
-8.64
-8.39
-8.31
-8.48
-8.83
-9.21
-9.46
-9.64
-9.88
-10.35
-10.96
-11.51
-11.68
-11.13
-9.50
-6.68
-3.08
0.57
3.38
4.94
5.02
3.76
1.46
-1.29
-3.84
-6.21
-8.74
-12.26
-17.35
-24.87
-35.37
-48.77
-63.60
-77.11
-86.43
-89.06
-84.10
-72.10
-56.04
-40.25
-29.45
-26.78
-29.94
-35.47
-38.44
-38.72
-34.45
-25.09
-9.31
10.93
32.21
50.94
63.95
69.71
68.18
61.08
50.21
37.19
23.24
9.86
-1.17
-8.57
-11.60
-10.42
-5.58
1.60
9.54
16.64
21.81
24.45
24.19
21.16
15.99
10.04
4.69
1.07
-0.17
1.07
4.42
9.10
14.31
19.35
23.92
27.80
30.76
32.54
32.74
30.95
27.07
21.60
15.64
10.64
7.71
6.14
5.29
4.54
3.52
2.18
0.65
-1.10
-3.34
-6.33
-9.96
-13.28
-15.10
-14.54
-11.66
-7.44
-3.38
-0.70
0.24
-0.09
-0.80
-1.46
-2.37
-4.42
-8.33
-14.03
-20.54
-26.01
-28.72
-27.88
-23.91
-18.22
-12.45
-7.64
-3.97
-1.12
1.55
4.62
8.57
13.91
20.90
28.81
35.90
39.91
39.03
33.26
24.49
15.76
9.79
7.76
8.70
10.36
10.21
6.47
-0.97
-10.93
-21.61
-31.18
-38.67
-44.37
-49.42
-54.40
-60.95
-69.81
-80.35
-90.23
-96.57
-94.83
-81.96
-57.57
-24.62
11.12
43.16
65.82
76.92
78.95
76.77
74.58
74.38
75.54
75.75
72.73
65.23
53.55
39.30
24.78
12.07
2.57
-3.69
-8.08
-11.87
-15.73
-19.15
-20.76
-19.34
-14.78
-8.22
-1.70
2.67
3.40
-0.19
-7.92
-18.73
-30.50
-40.29
-44.98
-42.44
-32.55
-17.43
-0.70
14.03
24.42
30.04
31.88
31.39
29.54
26.52
22.07
15.97
8.48
0.39
-7.65
-14.63
-19.68
-22.34
-22.53
-20.66
-17.46
-13.69
-9.94
-6.46
-3.30
-0.52
1.67
3.03
3.53
3.50
3.56
4.31
5.87
7.81
9.19
9.03
6.76
2.51
-3.06
-9.02
-14.44
-18.54
-20.68
-20.56
-18.50
-15.71
-14.08
-15.53
-20.95
-29.51
-38.57
-44.56
-44.45
-36.94
-23.09
-5.91
10.78
23.60
30.73
32.39
30.51
27.87
26.96
29.14
34.23
40.73
46.55
49.81
49.53
45.90
40.10
34.13
30.42
31.14
37.19
47.35
58.21
65.09
63.79
52.74
34.06
13.51
-1.54
-5.16
4.19
22.77
43.33
58.13
61.55
51.76
30.72
2.73
-27.43
-55.75
-79.18
-95.27
-102.40
-100.79
-92.38
-79.77
-64.83
-48.50
-31.30
-14.05
1.66
13.93
20.31
19.45
11.95
-0.04
-15.01
-33.44
-57.45
-88.76
-120.33
-141.27
-143.43
-127.49
-100.68
-71.43
-46.01
-27.34
-14.91
-5.88
2.07
9.85
17.30
24.31
31.12
38.03
45.27
52.87
60.64
67.25
70.73
69.61
63.87
54.89
44.70
35.95
30.09
27.93
28.74
30.48
30.92
28.52
22.68
13.90
4.11
-3.80
-6.79
-3.34
5.50
17.05
27.76
34.22
34.39
28.89
20.50
12.85
8.89
9.29
14.05
22.40
32.55
41.43
46.87
47.87
44.63
38.34
29.70
21.22
15.49
13.36
12.99
11.56
4.99
-11.55
-41.22
-84.62
-134.82
-179.87
-207.83
-211.43
-188.31
-141.86
-79.64
-2.98
72.83
130.95
162.91
174.05
165.92
139.10
96.37
39.98
-21.83
-81.40
-126.46
-146.79
-143.70
-129.21
-113.91
-101.08
-88.18
-70.53
-46.80
-17.71
13.29
40.85
60.02
69.65
71.52
68.24
62.21
53.84
43.64
32.47
21.49
11.80
4.77
0.97
-0.09
0.66
1.88
2.96
4.50
7.38
11.69
16.76
20.99
21.99
17.12
4.14
-17.52
-44.90
-71.39
-89.24
-92.49
-79.13
-51.74
-15.69
24.51
60.90
84.02
90.58
84.25
70.78
54.23
36.88
21.05
9.56
3.88
3.80
7.72
12.48
14.31
11.37
3.20
-8.29
-19.71
-28.97
-35.38
-38.41
-37.72
-33.21
-24.48
-10.71
8.67
33.20
59.79
82.23
95.31
96.51
85.63
65.04
39.30
11.12
-11.89
-24.08
-26.73
-24.44
-19.68
-13.29
-5.10
5.28
16.99
27.93
34.49
33.14
25.04
16.14
11.70
14.04
23.24
37.21
52.70
65.17
68.64
59.57
39.61
10.17
-28.47
-72.46
-112.71
-137.54
-129.13
-83.63
-24.67
35.64
90.14
127.24
138.43
121.05
78.53
18.21
-51.34
-117.73
-164.52
-180.01
-163.42
-123.57
-75.87
-36.81
-19.07
-28.98
-62.70
-108.03
-144.79
-157.28
-145.18
-123.52
-106.74
-98.48
-93.99
-84.01
-64.14
-30.87
10.52
51.85
87.11
115.10
138.41
152.62
154.75
146.86
133.91
118.28
101.08
83.79
68.60
56.54
46.25
36.48
27.09
19.53
14.46
12.07
11.50
11.24
9.39
5.53
1.26
-1.24
-0.93
-0.32
-3.72
-14.71
-32.62
-53.58
-71.88
-82.14
-82.54
-75.06
-64.87
-57.20
-55.42
-59.79
-67.88
-75.68
-78.62
-73.20
-58.11
-35.94
-9.84
15.85
37.52
53.40
63.74
70.14
72.88
73.75
73.13
70.77
66.36
60.31
53.88
48.67
45.93
45.97
48.46
52.24
56.27
59.93
62.18
61.18
54.15
38.59
14.18
-15.71
-45.19
-68.08
-80.97
-84.46
-81.89
-76.56
-69.37
-58.48
-41.34
-17.62
9.60
34.52
51.47
57.43
53.03
41.61
27.45
14.21
4.04
-2.43
-5.85
-7.76
-9.87
-13.13
-17.21
-20.59
-21.56
-19.64
-16.00
-12.90
-12.15
-13.77
-15.98
-16.67
-15.04
-12.21
-10.14
-10.01
-11.15
-11.39
-8.66
-2.48
5.92
14.51
21.76
27.54
32.27
35.84
37.18
35.04
29.34
21.80
15.37
12.03
11.89
12.90
12.06
7.25
-1.58
-12.75
-23.42
-30.67
-32.20
-26.82
-15.15
0.04
14.27
22.49
21.00
9.13
-10.35
-32.57
-52.26
-66.32
-74.45
-77.65
-76.40
-69.89
-56.86
-37.27
-13.56
9.82
28.14
38.52
41.10
38.46
33.95
30.03
27.48
25.64
23.52
20.55
17.11
14.33
13.42
15.15
19.17
24.09
27.92
28.75
25.54
18.56
9.33
-0.04
-7.68
-12.57
-14.68
-14.67
-13.35
-11.37
-9.01
-6.49
-4.11
-2.32
-1.55
-1.85
-2.73
-3.26
-2.52
-0.04
3.74
7.64
10.19
10.38
8.14
4.35
0.38
-2.49
-3.48
-2.71
-1.00
0.49
0.87
-0.20
-2.61
-5.92
-9.60
-12.84
-15.14
-16.56
-17.75
-19.37
-21.71
-24.57
-27.41
-29.65
-29.84
-27.49
-23.15
-18.02
-12.89
-7.63
-1.56
5.92
14.74
24.57
34.46
43.30
50.26
55.78
60.97
66.37
71.09
69.27
57.93
40.74
25.78
18.20
16.79
15.92
9.50
-4.73
-24.37
-43.04
-54.51
-54.64
-43.96
-27.27
-11.63
-2.71
-2.27
-8.11
-15.39
-19.91
-20.33
-18.56
-17.81
-21.06
-29.00
-39.64
-49.73
-56.24
-58.04
-55.82
-51.36
-43.24
-31.02
-15.79
0.72
17.65
35.44
52.78
67.24
74.53
72.34
60.54
41.69
20.36
1.63
-10.70
-15.33
-13.41
-7.95
-2.28
0.88
0.84
-0.96
-1.99
-0.27
4.81
12.39
21.10
29.65
36.99
42.40
45.10
44.14
38.73
28.91
16.05
2.45
-9.59
-18.46
-23.62
-25.63
-25.03
-22.71
-19.76
-17.20
-15.66
-15.40
-16.18
-17.61
-19.17
-20.29
-20.70
-20.35
-19.41
-17.51
-14.79
-10.65
-5.19
1.27
8.62
16.71
24.85
31.47
35.50
35.29
30.16
20.65
8.51
-3.94
-14.87
-22.90
-27.25
-28.05
-26.28
-22.92
-18.85
-14.60
-10.52
-6.99
-4.48
-3.41
-3.94
-5.77
-7.99
-9.54
-9.65
-8.20
-5.81
-3.55
-2.44
-3.11
-5.33
-8.11
-10.33
-11.31
-10.97
-9.72
-8.04
-6.21
-4.30
-1.88
1.65
6.30
11.17
14.90
16.40
15.44
12.86
9.94
8.89
11.81
19.14
28.98
38.11
43.39
43.08
37.38
27.47
16.58
8.87
7.39
13.12
24.95
39.63
51.51
53.24
37.46
2.41
-45.67
-94.63
-130.85
-143.75
-129.20
-90.45
-31.44
32.24
81.12
104.92
106.01
92.07
69.85
44.01
18.11
-4.80
-23.23
-35.57
-40.54
-38.15
-29.91
-18.20
-5.47
5.59
12.10
11.98
5.92
-2.67
-9.70
-12.70
-11.52
-7.92
-4.55
-3.52
-5.78
-9.65
-12.73
-13.48
-12.37
-11.29
-12.00
-15.01
-19.40
-23.56
-25.64
-24.38
-19.60
-12.22
-3.69
4.39
11.02
15.35
16.90
15.82
12.91
9.30
6.08
3.99
3.32
3.92
5.29
6.91
8.46
9.78
10.95
12.07
13.19
14.22
15.01
15.40
15.05
13.96
12.28
10.30
8.31
6.58
5.26
4.40
3.90
3.59
3.26
2.61
1.37
-0.59
-3.21
-6.22
-9.20
-11.66
-13.20
-13.57
-12.84
-11.33
-9.40
-7.42
-5.68
-4.37
-3.55
-3.20
-3.20
-3.49
-3.87
-3.89
-3.16
-1.61
0.42
2.24
3.04
2.26
-0.37
-4.30
-8.23
-10.77
-11.10
-9.30
-6.21
-3.12
-1.29
-1.76
-4.72
-9.41
-14.56
-18.92
-21.42
-21.22
-17.80
-9.87
1.51
12.91
20.80
23.59
21.81
17.05
11.02
5.04
-0.12
-4.45
-8.19
-10.97
-12.28
-11.94
-10.26
-7.83
-5.33
-3.24
-1.91
-1.18
-0.45
0.97
3.16
5.61
7.55
8.28
7.48
5.24
2.15
-0.78
-2.56
-2.58
-0.67
2.85
7.37
12.02
15.81
17.94
18.10
16.52
13.89
11.05
8.67
7.15
6.63
6.95
7.81
8.84
9.68
10.08
9.92
9.16
8.13
7.46
7.66
8.71
9.93
10.18
8.33
3.73
-3.64
-12.76
-21.88
-29.26
-33.78
-35.15
-33.68
-29.98
-23.28
-14.37
-5.39
1.42
4.93
5.16
2.98
-0.31
-3.35
-5.20
-5.75
-5.28
-4.15
-2.74
-1.42
-0.50
-0.26
-0.59
-1.11
-1.37
-0.55
2.15
7.06
13.58
20.30
25.46
27.70
26.52
22.42
16.76
11.13
6.68
3.64
1.65
-0.11
-2.49
-5.97
-10.49
-15.49
-20.15
-23.64
-25.39
-25.19
-23.23
-19.99
-16.14
-12.42
-9.44
-7.53
-6.57
-6.06
-5.10
-2.67
2.00
8.86
16.58
22.61
23.83
17.79
3.92
-15.81
-37.29
-55.52
-66.23
-67.22
-58.78
-43.19
-23.66
-3.33
15.37
30.91
42.45
49.70
52.81
52.37
49.43
45.33
41.35
38.30
36.29
34.82
33.05
30.30
26.36
21.77
17.53
14.55
13.27
13.47
14.51
15.58
16.05
15.60
14.46
13.12
11.85
10.43
8.22
4.49
-1.23
-8.91
-17.90
-26.69
-33.38
-36.36
-34.82
-28.98
-20.19
-10.84
-3.71
-2.88
-11.47
-28.99
-50.96
-70.90
-82.96
-83.82
-73.38
-54.59
-32.00
-9.73
9.59
24.76
35.34
41.11
41.94
38.75
31.76
21.66
10.10
-0.85
-9.28
-14.04
-14.61
-10.98
-3.18
8.06
21.17
34.43
46.36
55.92
62.38
65.39
62.84
54.50
41.20
24.14
5.03
-14.38
-32.47
-47.98
-59.87
-67.22
-69.15
-63.24
-50.46
-35.84
-25.70
-23.27
-27.24
-33.57
-38.28
-39.10
-36.27
-32.70
-30.04
-28.64
-27.73
-26.31
-23.81
-20.35
-16.44
-12.50
-8.72
-4.72
0.02
5.81
12.35
18.83
24.25
27.66
28.85
28.22
26.81
25.54
25.02
25.49
27.26
30.47
34.58
39.37
44.77
50.78
57.01
62.79
67.58
71.57
74.72
75.23
72.00
65.19
56.43
48.28
43.70
45.20
54.30
69.28
83.03
84.63
66.65
29.85
-17.24
-64.01
-102.47
-126.91
-133.40
-125.71
-102.65
-62.84
-8.97
49.65
99.62
123.73
112.90
76.71
22.65
-40.79
-106.31
-166.19
-213.70
-243.67
-251.93
-235.45
-185.16
-109.51
-28.46
37.70
79.91
100.85
109.27
114.14
121.57
132.30
142.16
144.92
136.70
116.44
84.84
44.27
-1.67
-49.23
-96.09
-143.86
-187.42
-218.44
-228.31
-211.90
-169.75
-108.05
-36.67
36.18
96.27
134.66
151.95
154.31
147.02
132.29
111.21
86.15
60.94
39.02
24.05
16.08
13.42
13.55
14.92
17.57
22.32
29.39
37.93
46.97
54.91
58.29
53.62
39.50
18.25
-4.82
-25.46
-40.12
-46.51
-42.36
-29.06
-10.87
6.99
20.23
26.68
25.81
19.33
9.34
-3.97
-23.07
-51.03
-88.74
-133.14
-177.14
-212.74
-232.23
-231.33
-210.82
-176.02
-133.73
-89.70
-47.75
-6.06
30.36
55.37
66.59
66.85
61.73
57.08
57.03
62.78
73.55
85.59
95.61
101.52
102.72
99.65
93.70
86.64
77.35
66.75
54.89
42.80
32.09
24.47
20.62
20.21
22.24
25.07
28.75
32.34
35.92
40.15
45.60
52.49
60.87
70.94
82.22
96.38
112.07
127.71
140.56
148.66
150.30
144.88
133.09
115.39
96.11
75.15
53.58
33.72
18.57
9.42
5.96
6.47
6.72
6.60
0.92
-14.07
-40.35
-72.01
-105.25
-137.75
-157.15
-179.57
-201.86
-227.71
-259.26
-295.38
-332.31
-365.96
-393.48
-413.67
-428.63
-413.66
-360.22
-276.15
-181.21
-93.98
-23.19
30.72
71.15
100.33
122.38
134.58
135.18
125.61
108.05
88.14
69.88
55.06
42.50
31.62
17.40
-3.72
-26.94
-50.55
-72.99
-92.87
-107.45
-112.97
-104.51
-81.72
-47.85
-9.16
26.14
51.94
65.36
67.84
63.45
56.83
49.69
41.76
32.24
20.94
10.19
1.71
-3.20
-4.77
-4.61
-5.28
-8.90
-16.14
-25.95
-36.21
-45.08
-51.53
-55.83
-59.29
-63.53
-69.72
-78.06
-87.25
-95.55
-101.52
-104.26
-103.75
-100.41
-94.38
-84.63
-73.89
-61.92
-47.89
-31.11
-11.54
10.17
32.84
55.26
76.62
96.80
116.95
138.21
161.74
188.51
218.86
251.84
284.83
313.73
334.31
343.55
340.15
325.44
303.12
277.91
253.78
232.76
214.81
199.48
185.87
172.86
159.88
147.33
136.18
127.28
120.89
116.56
114.79
115.08
115.79
115.07
112.06
107.23
101.85
97.43
95.29
97.83
105.10
114.03
119.77
117.82
105.40
81.87
48.57
-2.77
-68.80
-137.07
-193.84
-232.19
-252.88
-260.07
-257.83
-249.19
-236.37
-219.59
-200.33
-181.61
-166.17
-154.94
-146.85
-139.90
-132.44
-123.91
-113.66
-103.90
-97.01
-95.05
-98.34
-105.34
-113.49
-120.69
-126.00
-129.05
-127.91
-125.31
-123.98
-125.55
-130.46
-137.81
-145.31
-149.22
-144.62
-127.77
-98.63
-61.02
-21.70
11.95
35.08
46.70
49.34
47.17
43.76
40.31
36.59
32.63
28.42
25.60
25.73
29.06
34.05
38.55
40.22
38.05
32.67
25.81
20.55
18.88
20.73
23.95
26.26
25.66
21.74
15.71
9.63
7.14
10.29
18.57
28.97
38.67
45.51
49.27
51.58
55.19
65.21
85.80
119.33
160.07
202.78
241.55
271.11
287.85
278.35
238.56
175.34
103.33
35.17
-22.80
-71.11
-112.55
-148.97
-180.19
-202.42
-211.85
-205.73
-186.45
-155.01
-114.29
-68.83
-24.34
13.97
44.54
64.48
75.54
80.86
82.59
79.70
69.62
50.74
24.40
-4.02
-28.26
-43.46
-48.99
-47.66
-44.13
-41.81
-42.03
-44.32
-46.99
-48.94
-49.95
-50.64
-52.02
-54.36
-56.72
-57.41
-54.84
-48.29
-38.44
-26.84
-15.90
-7.21
-1.59
1.14
2.06
2.50
3.49
5.49
8.60
12.56
16.61
20.53
24.27
27.87
31.16
33.60
34.55
33.42
29.95
24.27
17.40
9.72
1.97
-5.06
-10.65
-14.33
-15.89
-15.41
-13.23
-9.91
-6.19
-2.69
0.07
1.74
2.25
1.76
0.68
-0.51
-1.38
-1.86
-1.95
-1.90
-2.04
-2.62
-3.66
-4.95
-6.11
-6.76
-6.75
-6.10
-5.05
-3.95
-3.09
-2.61
-2.46
-2.51
-2.59
-2.64
-2.63
-2.52
-2.29
-1.91
-1.34
-0.64
0.07
0.64
0.96
1.01
0.80
0.32
-0.51
-1.75
-3.45
-5.45
-7.45
-9.01
-9.75
-9.52
-8.51
-7.15
-5.96
-5.30
-5.26
-5.53
-5.64
-5.15
-3.87
-1.96
0.18
2.09
3.46
4.29
4.83
5.43
6.35
7.61
8.98
10.09
10.64
10.57
10.01
9.28
8.65
8.25
7.99
7.73
7.30
6.64
5.79
4.80
3.72
2.59
1.44
0.35
-0.56
-1.20
-1.51
-1.57
-1.52
-1.53
-1.68
-1.96
-2.25
-2.38
-2.24
-1.78
-1.11
-0.35
0.36
0.93
1.36
1.64
1.82
1.89
1.89
1.83
1.73
1.55
1.18
0.49
-0.65
-2.20
-3.93
-5.50
-6.56
-6.88
-6.46
-5.52
-4.35
-3.26
-2.47
-2.05
-1.98
-2.19
-2.59
-3.10
-3.68
-4.24
-4.71
-4.98
-4.97
-4.66
-4.06
-3.30
-2.50
-1.73
-1.04
-0.38
0.30
1.00
1.72
2.42
3.04
3.57
3.96
4.17
4.16
3.87
3.32
2.61
1.89
1.34
1.05
0.99
1.02
0.99
0.79
0.45
0.12
-0.05
0.02
0.30
0.64
0.83
0.76
0.46
0.08
-0.19
-0.24
-0.17
-0.18
-0.56
-1.47
-2.84
-4.41
-5.85
-6.83
-7.19
-6.95
-6.27
-5.35
-4.37
-3.44
-2.61
-1.89
-1.25
-0.64
-0.04
0.59
1.27
2.03
2.83
3.64
4.36
4.94
5.35
5.68
6.05
6.56
7.22
7.90
8.37
8.47
8.19
7.64
7.03
6.55
6.30
6.22
6.21
6.14
5.97
5.71
5.44
5.24
5.14
5.07
4.87
4.36
3.45
2.17
0.75
-0.50
-1.21
-1.18
-0.41
0.93
2.51
4.01
5.17
5.81
5.83
5.17
3.85
1.97
-0.26
-2.58
-4.69
-6.37
-7.46
-7.92
-7.79
-7.19
-6.32
-5.41
-4.70
-4.34
-4.28
-4.35
-4.27
-3.82
-2.97
-1.84
-0.66
0.35
1.07
1.48
1.61
1.48
1.06
0.34
-0.70
-1.97
-3.38
-4.81
-6.22
-7.60
-8.94
-10.19
-11.22
-11.85
-11.95
-11.51
-10.67
-9.65
-8.72
-8.08
-7.84
-8.04
-8.64
-9.56
-10.68
-11.84
-12.88
-13.62
-13.85
-13.31
-11.80
-9.21
-5.64
-1.43
2.89
6.75
9.80
12.00
13.67
15.24
17.09
19.31
21.59
23.36
23.97
22.97
20.27
16.12
11.06
5.80
1.04
-2.62
-4.73
-5.10
-3.98
-1.97
0.04
1.15
0.92
-0.43
-2.16
-3.41
-3.55
-2.51
-0.68
1.29
2.67
3.13
2.74
1.80
0.74
-0.05
-0.30
0.10
1.03
1.90
2.24
1.75
0.29
-1.92
-4.33
-6.21
-6.61
-4.58
0.56
8.73
19.20
30.25
39.84
46.23
48.25
45.54
40.39
33.20
24.72
16.06
8.32
2.37
-1.27
-2.81
-2.44
-0.57
1.87
4.30
6.33
7.85
9.08
10.41
12.18
14.51
17.21
19.60
21.21
21.77
21.26
19.95
18.26
16.61
15.25
14.21
12.93
11.06
7.91
2.47
-6.08
-17.64
-30.96
-44.10
-55.00
-62.42
-65.92
-65.87
-63.08
-58.40
-52.64
-46.60
-41.25
-37.23
-34.93
-34.12
-33.99
-33.51
-31.83
-28.77
-25.01
-21.93
-20.57
-21.43
-24.02
-27.09
-29.39
-30.00
-28.99
-27.28
-27.02
-29.06
-34.35
-43.48
-56.32
-71.33
-85.01
-92.46
-87.60
-68.96
-38.78
-3.32
29.47
53.18
65.33
67.94
65.60
62.72
61.30
61.23
61.04
59.65
57.81
56.56
57.30
60.39
65.16
70.17
73.99
75.69
75.23
73.48
71.76
71.52
73.44
77.46
83.01
89.61
96.93
104.68
112.30
118.59
121.90
120.26
112.95
101.28
88.21
76.80
68.87
64.39
61.89
59.71
56.11
51.73
49.72
53.48
64.19
79.72
95.47
106.29
108.25
98.25
76.96
49.41
21.84
-1.80
-21.57
-40.23
-61.01
-85.85
-118.33
-157.64
-198.48
-234.77
-263.41
-285.61
-304.72
-324.11
-346.43
-378.51
-422.91
-475.60
-528.01
-570.34
-594.44
-594.38
-567.51
-482.77
-341.11
-175.03
-25.15
86.58
160.89
208.02
237.95
258.82
273.61
278.35
273.06
264.17
254.62
248.45
246.04
245.14
242.79
236.79
222.86
200.96
176.21
155.33
143.21
140.15
143.17
147.75
149.15
142.81
125.83
100.45
71.85
45.52
24.44
9.24
-1.06
-7.81
-13.74
-21.05
-30.02
-39.89
-49.59
-58.77
-67.31
-74.84
-80.76
-84.83
-86.79
-86.35
-83.55
-79.12
-74.41
-70.68
-68.69
-68.66
-70.67
-74.37
-78.59
-80.88
-77.45
-64.72
-41.03
-8.26
28.24
61.64
86.93
102.77
111.19
114.97
114.89
108.77
93.16
67.37
34.00
0.78
-23.06
-30.96
-21.90
-0.57
25.15
47.43
61.40
65.14
60.58
50.47
37.05
21.67
5.45
-10.01
-22.44
-29.43
-29.38
-22.55
-11.59
-0.69
6.08
6.44
0.73
-8.32
-17.19
-22.99
-24.48
-22.42
-18.73
-15.38
-13.50
-13.15
-13.61
-13.86
-13.10
-11.01
-7.86
-4.29
-1.00
1.46
2.85
3.15
2.53
1.28
-0.28
-1.80
-2.98
-3.57
-3.48
-2.87
-2.16
-1.86
-2.29
-3.43
-4.91
-6.21
-6.92
-6.91
-6.31
-5.56
-5.08
-5.12
-5.64
-6.27
-6.38
-5.27
-2.47
2.11
7.87
13.69
18.33
20.93
21.30
19.91
17.60
14.55
11.28
8.05
5.07
2.51
0.66
-0.29
-0.37
0.03
0.35
0.18
-0.61
-1.79
-2.91
-3.54
-3.47
-2.86
-2.08
-1.59
-1.62
-2.27
-3.37
-4.61
-5.66
-6.32
-6.56
-6.52
-6.44
-6.49
-6.72
-7.05
-7.33
-7.37
-7.09
-6.55
-5.89
-5.29
-4.78
-4.30
-3.68
-2.79
-1.57
-0.16
1.22
2.30
2.87
2.84
2.24
1.16
-0.16
-1.42
-2.20
-2.06
-0.69
1.96
5.62
9.72
13.56
16.46
17.88
17.43
14.90
10.25
3.78
-3.83
-11.43
-17.59
-20.96
-20.71
-16.80
-10.01
-1.71
6.56
13.45
18.01
19.74
18.52
14.57
8.47
1.07
-6.49
-13.03
-17.54
-19.41
-18.59
-15.52
-10.98
-5.93
-1.22
2.48
4.81
5.69
5.28
3.92
2.10
0.31
-0.92
-1.23
-0.42
1.41
3.87
6.39
8.35
9.28
9.00
7.60
5.42
2.83
0.16
-2.40
-4.75
-6.74
-8.20
-8.84
-8.42
-6.84
-4.26
-1.16
1.85
4.14
5.29
5.16
3.94
1.94
-0.49
-3.07
-5.67
-8.17
-10.43
-12.17
-13.00
-12.49
-10.41
-6.83
-2.31
2.30
6.00
8.01
8.02
6.22
3.24
-0.13
-3.19
-5.40
-6.53
-6.50
-5.44
-3.52
-1.00
1.88
4.85
7.64
10.00
11.66
12.38
12.07
10.78
8.79
6.50
4.31
2.53
1.28
0.49
0.00
-0.38
-0.81
-1.36
-2.08
-2.96
-3.99
-5.12
-6.24
-7.14
-7.52
-7.12
-5.78
-3.56
-0.76
2.15
4.67
6.36
7.04
6.74
5.73
4.40
3.17
2.40
2.24
2.61
3.18
3.41
2.71
0.70
-2.70
-7.04
-11.44
-14.74
-15.80
-13.86
-8.74
-0.93
8.54
18.32
27.08
33.69
37.50
38.31
36.36
32.21
26.55
20.15
13.70
7.83
3.01
-0.50
-2.66
-3.67
-3.89
-3.73
-3.49
-3.35
-3.33
-3.39
-3.50
-3.67
-3.90
-4.21
-4.56
-4.86
-5.07
-5.12
-5.02
-4.77
-4.42
-4.04
-3.67
-3.37
-3.10
-2.75
-2.20
-1.31
-0.10
1.29
2.57
3.46
3.79
3.57
3.00
2.34
1.81
1.54
1.50
1.64
1.84
2.04
2.14
2.03
1.58
0.75
-0.29
-1.19
-1.48
-0.91
0.40
1.82
2.52
1.83
-0.34
-3.47
-6.62
-8.89
-9.82
-9.42
-8.05
-6.11
-3.82
-1.23
1.57
4.31
6.60
8.02
8.37
7.71
6.34
4.59
2.72
0.85
-1.01
-2.80
-4.45
-5.90
-7.16
-8.37
-9.87
-12.00
-15.03
-18.86
-23.00
-26.59
-28.70
-28.60
-26.08
-21.47
-15.55
-9.26
-3.43
1.35
4.74
6.60
6.94
5.90
3.78
0.94
-2.23
-5.55
-9.02
-12.78
-16.88
-21.08
-24.76
-27.05
-27.22
-25.00
-20.80
-15.55
-10.32
-5.82
-2.17
1.02
4.29
7.89
11.57
14.79
17.02
18.09
18.28
18.04
17.71
17.23
16.20
14.11
10.73
6.30
1.50
-2.80
-5.82
-7.13
-6.73
-4.98
-2.50
0.06
2.10
3.23
3.37
2.72
1.78
1.20
1.59
3.28
6.15
9.61
12.72
14.56
14.47
12.33
8.58
4.08
-0.28
-3.79
-6.24
-7.79
-8.88
-9.89
-10.93
-11.81
-12.12
-11.46
-9.64
-6.79
-3.31
0.32
3.65
6.36
8.27
9.27
9.28
8.35
6.69
4.74
3.10
2.33
2.73
4.12
5.84
6.95
6.55
4.23
0.24
-4.52
-8.87
-11.74
-12.55
-11.38
-8.81
-5.65
-2.62
-0.22
1.36
2.11
2.11
1.52
0.59
-0.38
-1.08
-1.26
-0.86
0.05
1.31
2.76
4.32
5.94
7.50
8.84
9.72
9.94
9.46
8.36
6.84
5.10
3.31
1.59
0.08
-1.02
-1.51
-1.31
-0.50
0.67
1.85
2.80
3.37
3.57
3.45
3.01
2.24
1.06
-0.54
-2.51
-4.66
-6.69
-8.22
-8.89
-8.44
-6.88
-4.50
-1.81
0.65
2.50
3.60
4.01
3.91
3.48
2.87
2.23
1.69
1.40
1.42
1.63
1.82
1.67
0.97
-0.36
-2.19
-4.22
-6.10
-7.51
-8.23
-8.15
-7.29
-5.78
-3.78
-1.50
0.77
2.75
4.14
4.70
4.36
3.21
1.50
-0.41
-2.14
-3.40
-3.98
-3.80
-2.87
-1.24
0.88
3.24
5.46
7.16
7.98
7.69
6.32
4.14
1.64
-0.60
-2.08
-2.48
-1.72
0.04
2.51
5.30
8.05
10.48
12.39
13.75
14.62
15.20
15.66
16.11
16.49
16.61
16.24
15.24
13.66
11.69
9.70
8.03
6.96
6.62
7.01
7.99
9.33
10.72
11.81
12.29
11.95
10.80
9.02
6.98
5.08
3.62
2.71
2.21
1.85
1.35
0.56
-0.48
-1.52
-2.22
-2.23
-1.25
0.95
4.39
8.81
13.61
17.95
20.92
21.93
20.91
18.30
14.79
10.90
6.73
1.93
-3.88
-10.73
-18.05
-24.78
-29.84
-32.58
-33.05
-31.86
-29.84
-27.64
-25.52
-23.36
-20.91
-18.06
-14.98
-12.10
-10.00
-9.23
-10.12
-12.66
-16.42
-20.64
-24.40
-26.81
-27.29
-25.68
-22.34
-17.99
-13.50
-9.67
-7.03
-5.75
-5.66
-6.35
-7.38
-8.34
-8.98
-9.14
-8.75
-7.81
-6.31
-4.32
-1.99
0.42
2.53
3.88
4.10
3.06
1.05
-1.27
-3.02
-3.47
-2.38
-0.16
2.25
3.78
3.64
1.65
-1.78
-5.90
-9.88
-13.01
-14.68
-14.30
-11.35
-5.64
2.42
11.63
20.21
26.35
28.85
27.55
23.28
17.51
11.69
6.81
3.18
0.57
-1.52
-3.55
-5.71
-7.90
-9.75
-10.86
-10.99
-10.16
-8.69
-7.04
-5.56
-4.37
-3.33
-2.17
-0.66
1.26
3.52
5.93
8.31
10.46
12.10
12.89
12.50
10.77
7.84
4.17
0.38
-2.86
-5.10
-6.10
-5.82
-4.37
-1.95
1.09
4.30
7.19
9.35
10.56
10.79
10.16
8.82
6.98
4.88
2.89
1.32
0.36
-0.10
-0.49
-1.38
-3.19
-5.94
-9.18
-12.14
-14.03
-14.22
-12.48
-8.93
-4.01
1.57
7.02
11.57
14.64
15.91
15.44
13.51
10.61
7.30
4.13
1.62
0.15
-0.16
0.51
1.70
2.79
3.30
3.05
2.24
1.30
0.72
0.85
1.75
3.29
5.22
7.26
9.16
10.72
11.75
12.13
11.83
10.97
9.79
8.55
7.47
6.59
5.78
4.87
3.71
2.32
0.87
-0.41
-1.30
-1.72
-1.71
-1.37
-0.77
0.02
0.93
1.83
2.55
2.89
2.76
2.22
1.45
0.70
0.14
-0.16
-0.25
-0.20
-0.06
0.15
0.40
0.64
0.74
0.56
0.02
-0.85
-1.94
-3.09
-4.16
-5.10
-5.95
-6.77
-7.64
-8.51
-9.33
-9.98
-10.38
-10.48
-10.27
-9.76
-8.91
-7.69
-6.09
-4.18
-2.17
-0.32
1.15
2.14
2.68
2.92
3.01
3.04
3.02
2.94
2.78
2.58
2.46
2.48
2.65
2.87
2.99
2.90
2.61
2.25
1.97
1.87
1.91
1.95
1.85
1.53
1.02
0.47
0.05
-0.16
-0.13
0.05
0.30
0.50
0.57
0.46
0.19
-0.22
-0.73
-1.27
-1.82
-2.31
-2.69
-2.86
-2.76
-2.38
-1.84
-1.36
-1.12
-1.25
-1.71
-2.34
-2.93
-3.31
-3.45
-3.41
-3.26
-3.07
-2.86
-2.61
-2.30
-1.98
-1.69
-1.50
-1.40
-1.35
-1.31
-1.30
-1.39
-1.66
-2.19
-2.97
-3.84
-4.58
-4.91
-4.68
-3.92
-2.87
-1.97
-1.64
-2.14
-3.37
-4.94
-6.24
-6.73
-6.12
-4.40
-1.79
1.46
5.14
9.12
13.22
17.21
20.82
23.77
25.86
26.97
27.06
26.07
23.92
20.64
16.50
12.04
7.97
4.96
3.28
2.70
2.57
2.13
0.86
-1.23
-3.69
-5.82
-7.09
-7.40
-7.07
-6.71
-6.84
-7.71
-9.24
-11.16
-13.20
-15.21
-17.18
-19.13
-21.01
-22.64
-23.83
-24.46
-24.64
-24.70
-25.03
-25.75
-26.59
-26.79
-25.41
-21.60
-14.92
-5.57
5.58
17.17
27.57
35.26
39.11
38.71
34.41
27.30
18.92
10.87
4.48
0.59
-0.61
0.52
3.15
6.28
8.90
10.15
9.55
7.01
2.83
-2.37
-7.77
-12.61
-16.32
-18.73
-20.10
-20.94
-21.74
-22.67
-23.47
-23.66
-22.77
-20.65
-17.55
-14.01
-10.60
-7.61
-4.95
-2.25
0.87
4.54
8.60
12.66
16.23
18.92
20.69
21.82
22.83
24.17
26.06
28.47
31.24
34.13
36.94
39.59
42.09
44.34
45.96
46.45
45.50
43.20
39.78
35.43
30.25
24.21
17.33
9.79
2.16
-4.47
-8.44
-8.24
-4.22
0.74
2.61
-1.59
-12.68
-29.11
-47.54
-64.03
-75.70
-81.51
-82.29
-80.04
-77.02
-75.00
-74.68
-75.49
-76.19
-75.97
-74.60
-72.58
-70.68
-69.72
-70.42
-73.52
-80.09
-89.72
-101.56
-113.31
-121.03
-120.11
-107.32
-82.76
-50.53
-16.75
12.25
32.21
42.40
44.95
43.20
39.79
35.88
31.38
27.02
24.03
24.04
28.64
38.74
54.22
74.28
98.26
120.08
136.81
147.13
151.20
150.30
145.92
138.91
129.12
115.81
98.52
78.79
59.19
42.62
31.19
25.32
23.73
24.03
23.84
21.56
17.41
12.36
7.70
4.50
3.30
4.02
6.04
8.35
9.75
9.65
7.70
4.00
-1.01
-6.74
-12.68
-18.48
-23.95
-28.90
-32.71
-34.66
-34.30
-31.74
-27.59
-22.72
-17.87
-13.46
-9.53
-5.71
-1.82
1.81
4.34
5.02
3.72
1.05
-1.84
-3.70
-3.23
0.39
7.03
15.26
22.93
27.85
28.17
22.95
12.66
-0.23
-12.11
-19.37
-19.80
-12.77
0.92
19.41
40.23
57.81
66.65
64.75
55.56
44.50
35.69
30.79
29.49
30.27
31.31
31.52
30.00
26.82
20.55
9.93
-5.67
-25.77
-48.88
-72.85
-91.96
-102.64
-104.02
-98.06
-87.97
-76.84
-66.74
-58.46
-51.75
-45.66
-39.75
-33.88
-28.51
-24.03
-20.54
-17.79
-15.38
-12.86
-9.88
-6.59
-3.27
-0.33
2.07
3.95
5.54
7.09
8.84
10.93
13.16
15.34
17.29
18.97
20.49
21.98
23.52
25.10
26.61
27.74
27.84
26.92
24.97
22.09
18.41
14.12
9.41
4.50
-0.45
-4.52
-8.04
-10.97
-13.25
-14.83
-15.77
-16.16
-16.09
-15.69
-15.07
-14.39
-13.72
-13.12
-12.59
-12.16
-11.81
-11.50
-11.15
-10.75
-10.35
-9.98
-9.70
-9.53
-9.51
-9.61
-9.76
-9.89
-9.95
-9.97
-10.03
-10.50
-11.24
-12.25
-13.46
-14.72
-15.87
-16.80
-17.54
-18.31
-19.37
-20.87
-22.76
-24.71
-26.15
-26.49
-25.56
-23.11
-19.55
-15.62
-11.98
-9.06
-6.76
-4.58
-1.97
1.49
5.67
9.82
12.90
14.09
13.18
10.69
7.67
4.92
2.90
1.17
-1.42
-6.19
-14.11
-25.70
-41.04
-58.85
-78.01
-95.53
-107.04
-108.15
-96.37
-72.75
-42.19
-11.78
11.99
25.54
29.34
26.67
21.36
15.88
10.80
5.45
-0.62
-6.85
-11.97
-14.66
-14.47
-12.05
-8.60
-5.13
-2.02
1.28
5.84
12.57
21.79
32.92
44.59
54.67
62.11
66.43
67.96
67.56
66.20
64.63
63.12
61.49
59.70
57.28
54.07
50.37
46.62
43.16
40.18
37.59
35.08
32.25
29.10
25.30
20.91
16.17
11.37
6.76
2.61
-0.92
-3.71
-5.69
-6.95
-7.58
-7.82
-8.01
-8.47
-9.48
-11.24
-13.78
-17.02
-20.81
-24.84
-28.77
-32.31
-35.13
-36.99
-37.69
-37.21
-35.68
-33.49
-30.98
-28.59
-26.80
-25.89
-25.92
-26.70
-27.94
-29.41
-31.11
-32.86
-34.79
-37.09
-39.81
-42.71
-45.30
-47.07
-47.83
-47.93
-47.60
-47.56
-48.51
-50.66
-53.56
-56.16
-57.31
-56.28
-53.25
-48.47
-42.84
-37.28
-32.02
-26.42
-18.94
-7.44
10.78
33.21
59.44
88.84
119.75
149.02
172.25
185.13
185.39
174.19
156.03
137.78
124.98
119.62
119.64
120.21
116.13
103.91
82.77
54.23
21.66
-11.61
-42.91
-69.99
-90.82
-103.60
-107.12
-101.55
-89.24
-74.29
-61.84
-56.04
-58.09
-65.51
-73.16
-75.61
-69.76
-56.19
-38.52
-21.65
-9.56
-3.97
-4.32
-8.78
-15.30
-22.21
-28.21
-32.02
-32.40
-28.46
-20.23
-8.90
3.33
13.99
21.10
23.92
23.02
19.96
16.50
13.97
12.93
13.16
13.96
14.77
15.51
16.74
19.46
24.58
32.37
42.18
52.49
61.48
67.67
70.43
70.07
67.55
63.98
60.15
56.36
52.54
48.54
44.32
40.06
35.97
32.15
28.49
24.64
20.36
15.61
10.74
6.31
2.73
0.07
-2.05
-4.26
-7.08
-10.58
-14.32
-17.52
-19.36
-19.32
-17.38
-13.93
-9.70
-5.46
-1.83
0.84
2.53
3.38
3.61
3.33
2.50
1.00
-1.12
-3.41
-5.08
-5.35
-3.95
-1.44
0.95
1.86
0.56
-2.68
-6.72
-10.25
-12.47
-13.48
-13.94
-14.50
-15.26
-15.67
-15.03
-13.01
-10.00
-6.92
-4.76
-4.03
-4.61
-5.82
-6.81
-6.96
-6.13
-4.66
-3.17
-2.28
-2.23
-2.82
-3.42
-3.26
-1.77
1.14
5.10
9.36
13.02
15.29
15.57
13.55
9.35
3.47
-3.09
-9.10
-13.41
-15.31
-14.80
-12.51
-9.43
-6.37
-3.78
-1.64
0.27
2.07
3.61
4.55
4.57
3.62
2.03
0.31
-1.00
-1.65
-1.72
-1.48
-1.21
-0.96
-0.58
0.17
1.43
3.06
4.68
5.80
6.08
5.49
4.32
3.02
1.97
1.32
0.96
0.67
0.21
-0.54
-1.53
-2.64
-3.76
-4.85
-5.99
-7.22
-8.56
-9.94
-11.26
-12.34
-12.98
-13.09
-12.65
-11.73
-10.39
-8.70
-6.70
-4.56
-2.37
-0.19
1.91
3.86
5.67
7.46
9.47
11.79
14.02
15.88
17.17
17.74
17.58
16.92
16.16
15.98
16.69
17.62
18.31
18.45
17.64
15.78
13.27
10.98
10.33
12.07
15.18
18.91
22.44
24.69
24.94
23.25
20.42
18.21
17.64
17.92
18.94
20.41
21.06
19.02
12.74
-2.60
-26.99
-50.19
-65.90
-70.29
-60.54
-37.55
-5.94
27.56
56.47
77.28
89.26
87.78
73.67
52.38
29.89
9.59
-7.62
-21.45
-30.06
-33.88
-35.10
-35.59
-37.31
-42.39
-51.49
-63.08
-73.85
-80.10
-79.61
-72.57
-60.16
-44.86
-30.30
-19.80
-14.98
-15.24
-18.05
-20.33
-19.60
-14.23
-4.18
8.72
21.94
33.32
41.56
46.09
46.80
44.01
38.99
33.56
28.76
24.66
20.40
14.63
6.45
-3.94
-14.66
-22.74
-25.13
-21.33
-13.35
-5.03
-0.86
-4.80
-19.46
-44.28
-74.87
-103.57
-123.94
-133.18
-132.13
-123.70
-111.58
-99.41
-90.77
-89.99
-95.16
-103.19
-109.57
-108.68
-95.46
-67.53
-23.25
28.18
74.22
106.22
121.19
122.01
114.52
104.13
94.05
85.61
80.68
79.46
82.88
89.96
97.46
100.86
96.25
82.07
60.14
34.46
10.25
-7.66
-17.27
-19.71
-17.27
-12.76
-8.47
-5.66
-4.93
-6.14
-8.36
-10.85
-13.11
-14.83
-15.99
-16.70
-17.17
-17.75
-18.70
-19.84
-20.98
-21.89
-22.30
-22.03
-20.98
-19.23
-17.14
-15.25
-13.99
-13.59
-13.99
-14.82
-15.60
-15.87
-15.41
-14.26
-12.63
-10.73
-8.58
-6.07
-2.96
0.84
5.23
9.86
14.23
17.82
20.22
21.21
20.76
19.06
16.42
13.22
9.91
6.92
4.61
3.13
2.43
2.31
2.45
2.58
2.48
2.10
1.50
0.83
0.30
0.08
0.27
0.96
2.09
3.57
5.22
6.89
8.44
9.73
10.63
11.07
11.06
10.71
10.22
9.87
10.08
11.09
12.88
15.11
17.35
19.25
20.69
21.76
22.77
24.29
26.66
29.66
32.54
34.44
34.82
33.65
31.49
29.32
28.62
30.45
34.80
40.65
46.56
51.39
54.59
56.29
57.16
58.44
61.01
64.81
68.97
72.26
73.38
70.67
62.03
42.73
11.63
-26.99
-64.90
-94.61
-112.63
-119.46
-118.05
-111.99
-104.07
-95.21
-85.47
-75.10
-65.06
-56.58
-50.45
-46.72
-44.69
-43.24
-40.89
-36.81
-31.24
-25.31
-20.29
-16.90
-15.20
-14.67
-14.51
-13.74
-11.80
-8.85
-5.60
-2.85
-1.08
-0.33
-0.30
-0.54
-0.50
0.15
1.33
2.71
3.88
4.61
4.87
4.80
4.58
4.47
4.61
4.99
5.46
5.89
6.19
6.35
6.40
6.41
6.44
6.51
6.66
6.86
7.12
7.42
7.77
8.16
8.60
9.01
9.46
9.96
10.51
11.11
11.74
12.41
13.14
13.93
14.80
15.78
16.88
18.15
19.58
21.15
22.77
24.36
25.73
26.73
27.02
26.51
25.06
22.59
19.14
14.83
9.85
4.49
-0.64
-5.49
-9.76
-13.29
-15.94
-17.71
-18.64
-18.85
-18.68
-18.08
-17.27
-16.33
-15.35
-14.38
-13.45
-12.57
-11.74
-10.96
-10.17
-9.41
-8.67
-7.95
-7.25
-6.63
-6.09
-5.65
-5.31
-4.98
-4.66
-4.29
-3.87
-3.44
-3.03
-2.72
-2.53
-2.44
-2.38
-2.30
-2.14
-1.90
-1.62
-1.42
-1.39
-1.59
-2.00
-2.47
-2.85
-2.97
-2.77
-2.39
-2.10
-2.21
-2.94
-4.25
-5.85
-7.27
-8.11
-8.22
-7.86
-7.61
-8.10
-9.75
-12.49
-15.70
-18.54
-20.21
-20.47
-19.77
-19.10
-19.63
-22.10
-26.47
-31.83
-36.82
-40.19
-41.29
-40.42
-38.71
-37.65
-38.79
-43.32
-51.66
-62.84
-73.99
-80.66
-78.09
-63.33
-37.16
-4.46
27.37
51.40
64.13
66.72
63.72
60.33
59.54
60.94
61.68
58.97
51.84
42.00
32.79
27.15
26.39
30.05
36.52
43.73
49.59
51.30
45.38
28.60
0.09
-36.57
-73.34
-100.10
-108.96
-97.95
-72.15
-41.12
-14.45
2.27
8.77
8.46
5.28
1.40
-3.33
-9.94
-18.51
-27.51
-34.52
-37.47
-36.19
-32.44
-28.85
-27.73
-29.84
-33.95
-37.52
-37.88
-33.34
-23.97
-11.52
1.46
12.35
19.48
22.46
22.01
19.36
15.64
11.54
7.32
3.17
-0.69
-3.66
-4.84
-3.25
1.73
10.13
21.27
33.13
44.64
54.66
62.39
67.44
69.90
70.10
68.53
65.69
62.04
58.14
54.32
50.75
47.37
44.12
40.87
37.55
34.22
31.06
28.49
26.71
26.05
25.91
25.76
25.19
23.99
22.37
20.87
20.27
21.04
23.12
25.81
28.12
29.14
28.28
26.02
22.89
19.94
17.94
16.95
16.32
15.04
12.59
8.91
4.91
2.08
1.89
5.33
12.84
24.31
38.52
53.94
67.08
73.23
68.04
49.82
20.90
-12.61
-43.13
-64.69
-74.99
-75.99
-71.81
-66.33
-61.42
-56.99
-52.00
-46.11
-40.15
-35.43
-32.93
-32.46
-32.75
-32.23
-29.67
-24.98
-19.10
-13.46
-9.23
-6.94
-6.25
-6.11
-5.34
-3.19
0.39
4.80
9.14
12.66
15.08
16.56
17.77
19.37
21.75
24.90
28.38
31.54
33.78
34.73
34.07
31.97
28.61
24.20
18.92
12.88
6.28
-0.64
-7.13
-13.12
-18.29
-22.41
-25.42
-27.33
-28.25
-28.32
-27.92
-27.00
-25.80
-24.50
-23.28
-22.27
-21.42
-20.63
-19.74
-18.66
-17.39
-16.19
-15.31
-14.97
-15.23
-15.90
-16.63
-17.00
-16.74
-15.86
-14.75
-13.99
-14.15
-15.47
-17.80
-20.54
-22.90
-24.23
-24.35
-23.76
-23.37
-24.21
-26.83
-31.10
-36.14
-40.75
-43.75
-44.65
-43.79
-42.39
-42.23
-45.21
-52.59
-63.78
-76.02
-84.46
-84.07
-71.66
-47.78
-16.55
16.16
44.78
65.32
75.06
72.13
55.59
26.86
-8.80
-42.58
-64.46
-67.62
-51.29
-21.30
13.31
44.47
68.23
83.55
89.81
85.38
68.30
39.63
5.45
-23.67
-37.10
-29.24
-2.24
34.96
70.37
93.27
98.05
85.33
60.77
32.22
6.83
-11.05
-20.16
-21.39
-16.13
-4.83
13.57
40.04
73.21
107.64
134.71
145.76
136.11
107.57
67.77
26.95
-6.25
-27.61
-38.00
-41.39
-42.53
-44.54
-48.06
-52.10
-55.54
-57.89
-59.60
-61.37
-63.17
-63.88
-61.85
-54.55
-42.44
-27.53
-12.20
1.66
13.07
21.87
28.60
33.71
37.10
37.91
34.95
26.75
12.05
-9.64
-37.16
-66.98
-93.53
-110.70
-112.39
-98.61
-74.45
-47.91
-26.70
-15.35
-13.88
-19.13
-27.09
-34.81
-41.21
-45.92
-48.43
-47.74
-42.88
-33.70
-20.73
-5.46
10.74
26.95
43.42
61.31
81.98
105.32
131.37
158.20
181.29
194.32
191.31
169.73
132.39
87.09
43.83
11.15
-7.29
-13.29
-11.93
-8.55
-6.11
-4.75
-3.07
-0.03
4.30
8.61
11.49
12.38
11.84
11.10
11.51
13.73
17.44
21.97
26.29
29.43
30.75
29.95
27.06
22.42
16.48
9.73
2.97
-3.30
-8.99
-14.54
-20.68
-27.94
-36.22
-44.58
-51.68
-55.92
-56.82
-55.16
-52.93
-52.55
-55.57
-62.39
-71.44
-82.49
-94.91
-107.57
-117.92
-121.33
-112.85
-90.15
-56.21
-20.03
6.14
12.69
-2.43
-32.80
-66.09
-90.50
-99.55
-93.37
-76.09
-51.68
-21.51
14.19
52.93
87.75
108.30
105.50
76.61
28.30
-25.27
-67.84
-87.20
-79.90
-51.42
-12.96
23.60
49.70
62.02
62.35
55.18
45.44
36.33
28.79
22.19
15.52
8.56
1.85
-3.74
-7.94
-10.89
-13.29
-15.89
-18.99
-22.03
-24.10
-24.14
-21.41
-16.00
-7.83
3.36
18.47
39.33
67.34
101.94
140.17
177.22
202.73
207.99
188.05
143.78
82.71
17.36
-38.12
-71.72
-76.89
-54.71
-12.38
39.02
88.27
126.24
146.35
144.24
118.70
72.96
15.14
-42.27
-86.06
-106.66
-101.86
-75.89
-41.07
-12.59
-0.32
-4.36
-17.76
-32.91
-45.60
-55.03
-62.42
-69.16
-75.01
-78.57
-78.67
-75.47
-70.64
-66.48
-64.71
-65.84
-69.46
-74.13
-77.96
-79.65
-79.24
-77.97
-77.49
-79.01
-82.69
-88.08
-94.04
-99.02
-101.83
-102.07
-100.02
-96.10
-90.86
-83.55
-73.42
-59.72
-41.96
-20.25
4.56
30.99
57.37
80.91
100.44
115.35
125.57
131.47
133.60
132.59
129.03
123.53
116.66
109.19
101.57
94.03
86.72
79.71
72.99
66.55
60.33
54.31
48.67
43.44
38.55
34.02
29.80
25.87
22.19
18.73
15.46
12.45
9.71
7.13
4.71
2.43
0.24
-1.87
-3.92
-5.90
-7.75
-9.05
-10.09
-10.88
-11.43
-11.73
-11.80
-11.66
-11.34
-10.85
-10.25
-9.60
-8.93
-8.23
-7.53
-6.84
-6.18
-5.58
-5.03
-4.52
-4.10
-3.71
-3.33
-2.95
-2.59
-2.28
-2.03
-1.85
-1.71
-1.60
-1.47
-1.28
-1.04
-0.77
-0.52
-0.34
-0.25
-0.18
-0.12
0.03
0.29
0.68
1.14
1.57
1.90
2.16
2.50
3.09
4.16
5.80
7.94
10.32
12.75
14.58
15.49
15.41
14.47
12.96
11.10
8.97
6.44
3.30
-0.58
-4.95
-9.18
-12.39
-13.73
-12.69
-9.37
-4.49
0.92
5.89
9.89
13.00
15.73
18.71
22.45
27.18
32.88
39.16
45.01
48.84
48.63
42.73
30.70
13.93
-4.59
-21.29
-33.43
-40.12
-42.42
-42.39
-41.86
-41.51
-40.78
-38.65
-34.57
-28.98
-23.11
-18.36
-15.54
-14.58
-14.67
-14.71
-13.98
-12.39
-10.43
-8.81
-8.11
-8.46
-9.50
-10.54
-10.86
-10.15
-8.56
-6.68
-4.98
-3.85
-3.36
-3.24
-3.06
-2.38
-1.17
0.14
0.92
0.57
-1.38
-5.06
-10.29
-16.56
-23.01
-28.99
-34.17
-38.42
-41.82
-44.66
-47.24
-49.74
-51.88
-52.76
-51.60
-47.74
-40.34
-28.56
-12.05
8.62
31.64
54.43
74.36
88.65
95.13
92.93
82.42
64.76
41.82
15.88
-11.53
-35.25
-50.15
-54.73
-51.06
-42.34
-31.72
-19.41
-5.54
9.05
23.07
34.69
41.13
41.41
36.54
28.91
21.33
15.90
13.74
15.18
19.24
24.11
28.31
30.99
32.03
31.88
30.97
29.49
27.26
23.47
17.16
8.26
-2.36
-13.26
-22.92
-30.31
-34.80
-36.00
-33.90
-28.89
-21.60
-13.01
-4.27
3.69
10.31
15.53
19.44
21.86
22.16
19.71
14.24
6.18
-3.42
-13.12
-21.48
-27.31
-29.75
-28.53
-23.96
-17.03
-9.11
-1.55
4.81
9.76
13.57
16.45
18.18
18.02
15.14
9.22
0.72
-9.21
-19.17
-27.92
-34.45
-37.93
-37.68
-33.38
-25.39
-14.92
-3.84
5.94
13.20
17.71
20.08
21.07
21.02
19.60
16.09
10.07
1.85
-7.55
-16.68
-24.21
-29.07
-30.54
-28.26
-22.39
-13.63
-3.27
7.07
15.97
22.67
27.17
29.92
31.26
30.99
28.47
23.13
15.03
5.10
-5.13
-13.95
-19.89
-22.06
-20.23
-14.84
-6.86
2.36
11.52
19.57
26.14
31.43
35.72
38.83
40.03
38.37
33.17
24.54
13.07
0.17
-12.26
-22.17
-27.82
-28.25
-23.95
-17.07
-10.73
-8.35
-11.63
-19.81
-30.19
-39.53
-45.65
-48.38
-49.34
-50.49
-53.33
-57.39
-60.62
-60.57
-55.65
-45.71
-32.02
-16.55
2.72
25.12
47.55
66.32
79.41
86.60
88.39
86.46
80.81
70.96
56.19
35.89
9.32
-24.10
-63.09
-102.05
-133.86
-152.93
-157.78
-150.92
-137.11
-121.46
-107.68
-97.80
-92.25
-89.85
-87.60
-80.81
-66.02
-39.36
-1.20
44.12
90.01
130.16
160.57
180.41
185.14
178.86
167.51
154.50
140.43
124.51
106.29
86.49
66.92
49.77
37.69
31.25
28.39
25.99
21.29
13.06
2.05
-9.72
-20.00
-26.70
-29.99
-31.84
-34.31
-38.35
-43.79
-49.09
-52.94
-55.01
-55.77
-56.81
-59.65
-64.55
-70.15
-74.04
-73.88
-68.57
-58.37
-44.43
-28.61
-12.71
1.95
14.46
24.13
30.47
33.19
32.55
29.45
25.08
20.67
17.13
14.88
13.93
14.09
14.48
14.50
13.86
12.61
11.17
10.10
9.86
10.58
11.98
13.51
14.58
14.71
13.58
11.05
7.13
1.92
-4.32
-11.16
-17.97
-23.85
-27.87
-29.31
-27.89
-23.90
-18.12
-11.53
-5.02
0.90
6.12
10.72
14.69
17.83
19.81
20.39
19.66
18.06
16.18
14.53
13.31
12.36
11.39
10.21
8.82
7.41
6.19
5.24
4.45
3.58
2.47
1.11
-0.29
-1.40
-1.88
-1.58
-0.55
1.00
2.81
4.65
6.37
7.89
9.13
9.97
10.27
9.95
9.14
8.15
7.36
7.12
7.54
8.43
9.41
10.03
10.06
9.61
9.03
8.64
8.57
8.64
8.47
7.73
6.37
4.82
3.87
4.20
6.01
8.97
12.27
14.95
16.32
16.19
15.13
14.36
14.94
17.19
20.49
23.34
23.95
21.10
14.58
5.88
-2.35
-7.67
-9.02
-7.10
-4.12
-3.05
-6.23
-14.88
-28.22
-43.85
-56.99
-63.01
-58.70
-44.32
-24.59
-7.14
0.06
-8.26
-29.59
-56.98
-81.21
-93.46
-88.59
-67.49
-32.34
9.40
48.55
76.55
87.27
79.30
56.65
27.27
-1.22
-24.26
-42.21
-58.40
-76.80
-99.60
-124.23
-143.52
-142.97
-112.54
-55.49
10.51
65.91
100.48
115.36
119.32
122.24
129.87
141.04
150.01
150.38
139.06
118.55
90.91
59.33
27.75
0.21
-20.98
-35.01
-42.06
-42.40
-36.37
-25.27
-11.08
3.85
16.43
22.83
19.62
6.04
-15.17
-39.33
-60.39
-74.47
-80.65
-80.39
-76.47
-71.62
-67.90
-66.42
-66.90
-67.88
-68.16
-60.63
-37.84
3.17
58.38
117.35
166.64
194.56
194.15
165.14
109.20
35.65
-43.95
-120.14
-187.74
-245.31
-283.15
-293.56
-276.95
-242.61
-202.27
-165.92
-139.22
-122.59
-111.34
-97.54
-76.30
-42.74
2.16
53.32
103.27
145.46
176.78
198.47
204.47
196.57
179.93
159.00
137.08
116.11
97.75
83.40
73.80
68.44
66.53
66.06
64.42
60.61
54.98
48.91
43.78
40.51
39.33
40.72
43.85
46.29
46.16
40.41
27.58
8.35
-14.49
-36.83
-54.13
-63.64
-65.36
-61.69
-55.69
-49.31
-43.20
-37.46
-32.46
-28.78
-27.43
-28.99
-32.66
-36.42
-37.73
-34.72
-27.19
-16.65
-5.52
3.55
8.68
9.60
7.67
4.90
3.17
3.35
5.00
6.86
7.63
6.76
4.83
3.11
2.79
4.23
6.78
9.15
10.10
8.79
5.09
-0.35
-6.43
-12.06
-16.42
-19.13
-20.28
-20.33
-20.11
-20.50
-21.41
-22.07
-21.43
-18.62
-13.33
-6.03
2.40
10.71
17.45
21.40
21.63
17.59
8.87
-2.63
-12.48
-13.33
-0.00
25.41
53.82
74.23
79.43
68.91
47.93
23.84
2.39
-14.25
-26.76
-36.28
-42.98
-46.16
-45.17
-40.26
-32.33
-23.22
-14.64
-8.34
-5.42
-5.96
-8.94
-12.47
-14.76
-14.93
-13.40
-11.64
-11.19
-12.65
-15.32
-17.80
-18.86
-17.99
-15.56
-12.57
-10.04
-8.80
-9.05
-10.26
-11.37
-10.95
-7.58
-0.43
10.19
22.67
34.51
43.22
47.15
46.03
40.99
33.92
26.45
19.39
12.84
6.76
1.58
-1.89
-2.81
-0.86
3.53
9.08
14.28
18.39
22.05
27.18
35.72
47.22
59.26
68.88
74.03
73.87
68.17
56.95
40.79
21.22
1.88
-14.67
-26.33
-32.86
-36.57
-41.69
-52.70
-70.73
-95.11
-122.27
-146.34
-160.41
-158.87
-139.25
-103.43
-57.47
-10.07
29.72
55.73
66.37
64.57
55.59
44.39
33.92
25.02
17.67
11.90
8.47
8.14
10.84
15.13
18.71
19.57
17.02
12.11
6.89
3.46
2.89
4.81
7.73
9.95
10.52
9.64
8.46
8.21
9.56
12.25
15.49
18.03
18.99
18.02
15.34
11.48
7.11
2.87
-0.73
-3.39
-5.06
-5.88
-6.16
-6.22
-6.31
-6.55
-6.90
-7.25
-7.46
-7.38
-6.93
-6.12
-5.10
-4.16
-3.57
-3.51
-3.93
-4.65
-5.34
-5.72
-5.64
-5.17
-4.49
-3.81
-3.23
-2.75
-2.27
-1.74
-1.22
-0.78
-0.51
-0.41
-0.40
-0.33
-0.08
0.33
0.79
1.26
1.78
2.53
3.61
5.01
6.63
8.32
10.10
12.17
14.80
18.04
21.54
24.60
26.40
26.44
24.73
21.77
18.17
14.38
10.43
6.06
1.10
-4.31
-9.79
-14.91
-19.51
-23.75
-27.78
-31.46
-34.33
-35.95
-36.36
-36.24
-36.52
-37.67
-39.13
-39.41
-36.82
-30.49
-20.98
-10.09
-0.04
7.53
12.12
14.27
14.84
14.55
13.70
12.36
10.59
8.74
7.32
6.87
7.71
9.71
12.35
14.92
16.76
17.48
17.13
16.14
15.21
14.99
15.65
16.93
18.25
19.04
18.92
17.90
16.37
14.99
14.45
14.83
15.88
17.10
17.90
17.84
16.74
14.84
12.82
11.58
11.33
11.86
12.51
12.35
10.46
6.33
0.09
-7.33
-14.51
-20.90
-26.24
-30.69
-34.79
-39.40
-45.81
-55.55
-69.85
-85.04
-96.47
-99.29
-91.27
-73.51
-49.52
-24.21
-2.38
12.73
22.83
30.12
36.93
43.80
49.02
50.28
46.55
37.95
27.28
18.19
13.40
14.73
21.12
28.77
33.21
30.59
18.09
-5.51
-38.93
-76.75
-108.65
-123.71
-114.70
-80.01
-24.35
42.15
107.13
154.11
166.87
146.42
110.50
76.81
53.01
38.11
27.74
18.33
8.55
-0.40
-6.03
-8.03
-8.97
-11.43
-15.78
-20.52
-23.52
-23.39
-19.31
-11.08
0.11
10.96
18.27
20.63
18.22
12.49
5.47
-0.32
-2.43
-0.40
4.00
8.10
10.09
9.03
5.24
-0.07
-5.12
-6.93
-4.79
-0.52
2.29
0.43
-7.88
-21.79
-38.09
-52.53
-61.54
-64.18
-62.10
-58.54
-55.90
-55.24
-55.77
-55.70
-53.59
-49.01
-43.01
-37.35
-34.79
-35.45
-39.33
-46.31
-56.08
-67.64
-78.52
-84.86
-80.28
-62.88
-33.90
1.37
35.60
62.22
77.95
83.54
82.35
78.26
73.50
69.08
65.01
61.45
59.11
58.71
60.36
63.08
65.25
65.33
62.92
58.88
55.00
53.23
54.80
59.53
65.34
68.85
66.44
56.27
39.09
18.38
-0.80
-14.53
-20.82
-20.49
-16.38
-11.89
-9.24
-8.82
-9.48
-9.48
-7.49
-3.13
2.71
8.22
11.07
9.17
1.45
-11.55
-27.63
-43.67
-55.90
-62.68
-64.30
-62.50
-59.27
-55.82
-52.23
-47.94
-42.61
-36.72
-31.63
-28.78
-28.84
-31.31
-34.70
-37.21
-37.48
-35.25
-31.55
-27.98
-26.09
-26.51
-28.81
-31.87
-34.77
-37.24
-39.38
-40.89
-40.44
-36.01
-26.24
-11.90
3.81
16.73
24.15
26.74
28.18
33.09
43.92
59.40
75.29
87.16
93.28
95.32
96.45
98.23
98.59
92.65
75.81
47.17
10.63
-26.33
-56.41
-75.34
-82.91
-81.23
-72.22
-56.26
-33.07
-4.04
26.25
50.92
63.87
62.76
50.37
32.89
16.64
5.31
-0.94
-4.07
-5.99
-7.35
-7.88
-7.38
-6.52
-6.34
-7.10
-7.67
-6.20
-1.49
5.67
12.65
16.55
15.46
9.06
-1.76
-15.66
-31.05
-45.47
-55.38
-56.90
-47.68
-28.85
-5.35
15.80
28.65
31.12
25.54
16.98
10.06
6.88
6.62
6.84
5.61
2.58
-0.98
-3.30
-3.20
-0.68
3.23
6.85
8.82
8.40
5.91
2.40
-0.87
-3.06
-3.94
-3.83
-3.10
-1.73
0.50
3.27
5.13
3.60
-3.62
-17.00
-34.09
-49.85
-58.50
-56.26
-43.25
-23.47
-2.95
12.71
20.63
21.00
16.14
8.99
1.89
-3.35
-5.26
-2.70
4.24
13.75
22.46
26.61
23.89
14.82
2.74
-7.77
-13.30
-13.34
-9.98
-6.13
-3.70
-2.53
-0.83
3.32
10.59
19.86
28.64
34.48
36.52
35.69
33.94
33.46
35.81
41.92
52.21
65.92
82.36
101.09
121.30
141.39
160.00
176.31
191.03
205.65
219.02
228.72
232.22
226.95
210.67
183.11
145.15
99.29
48.20
-9.83
-77.08
-153.21
-234.90
-316.49
-388.87
-442.54
-468.90
-464.27
-436.50
-398.94
-363.78
-338.91
-327.79
-328.02
-335.34
-345.00
-330.28
-283.88
-222.39
-169.12
-133.70
-120.16
-109.96
-88.56
-48.36
10.74
83.06
157.38
226.29
286.28
333.77
365.21
376.54
366.54
338.55
298.12
255.37
224.54
216.88
234.36
257.69
264.67
244.68
204.01
154.65
106.64
67.59
40.99
25.14
16.36
11.33
9.15
7.62
2.85
-9.83
-32.68
-65.14
-104.08
-142.44
-170.63
-180.97
-171.57
-141.65
-99.02
-54.08
-13.90
12.77
22.79
20.81
14.22
9.33
6.89
4.38
-0.64
-10.09
-24.43
-42.13
-60.36
-76.14
-85.38
-83.36
-67.49
-38.66
-2.74
31.46
55.61
64.42
56.69
36.33
10.52
-14.14
-32.53
-41.53
-38.39
-21.01
12.88
55.49
91.51
108.70
104.30
87.86
66.35
44.66
24.99
6.50
-12.90
-33.91
-55.54
-76.79
-95.82
-110.62
-118.77
-118.15
-107.95
-89.11
-63.38
-29.41
6.35
34.91
51.36
57.96
58.87
55.87
49.01
38.25
25.42
12.66
3.38
0.71
6.23
20.81
42.11
67.01
94.47
124.61
153.77
174.17
176.50
154.64
109.37
50.90
-9.91
-61.16
-94.26
-106.83
-102.12
-87.52
-72.57
-66.48
-74.90
-94.41
-117.01
-131.29
-127.17
-99.73
-51.72
6.44
60.40
97.50
111.21
101.84
74.08
33.61
-14.53
-62.07
-98.35
-116.33
-116.33
-103.39
-83.02
-59.53
-36.68
-17.59
-4.12
3.08
4.50
2.05
-1.37
-3.15
-2.08
1.36
5.66
9.31
11.18
10.53
7.62
3.80
0.73
-0.34
0.95
4.22
8.51
12.61
14.96
14.54
11.38
6.42
1.02
-3.53
-6.62
-8.79
-10.60
-13.41
-18.44
-26.21
-36.76
-49.89
-65.07
-79.86
-91.76
-96.58
-90.44
-71.77
-42.78
-9.22
21.64
44.00
55.65
58.18
55.61
51.67
48.18
45.02
41.30
36.67
31.91
28.41
26.97
27.48
28.70
29.08
27.44
23.73
18.91
14.39
11.38
10.26
10.64
11.46
11.56
10.23
7.57
4.32
1.47
-0.12
-0.36
0.38
1.35
1.90
1.80
1.37
1.28
2.30
4.66
8.09
11.95
15.48
18.12
19.83
21.01
22.31
24.20
26.74
29.53
31.92
33.40
33.78
33.37
32.79
32.69
33.54
35.66
39.16
43.90
49.02
52.78
52.84
47.08
34.70
17.04
-2.69
-20.52
-33.28
-39.71
-40.64
-38.07
-34.01
-29.63
-25.32
-21.20
-17.71
-15.67
-15.81
-18.12
-21.70
-25.01
-26.69
-26.01
-23.33
-19.77
-16.67
-15.04
-15.19
-16.70
-18.70
-20.23
-20.64
-19.75
-17.86
-15.59
-13.62
-12.37
-11.88
-11.82
-11.70
-11.10
-9.89
-8.16
-6.16
-4.22
-2.51
-0.98
0.62
2.55
4.90
7.54
10.17
12.47
14.38
16.13
18.24
21.18
25.14
29.81
34.37
37.78
39.14
38.06
34.87
30.52
26.20
22.92
21.10
20.46
20.23
19.53
17.84
15.17
12.07
9.42
8.04
8.40
10.49
13.88
17.97
22.28
26.62
31.12
36.03
41.42
46.87
51.52
54.44
55.06
53.64
51.17
48.97
47.91
48.20
49.52
51.38
53.39
55.05
55.21
51.57
41.06
21.24
-7.74
-42.12
-75.18
-99.60
-110.49
-107.23
-93.14
-73.50
-53.11
-34.87
-20.08
-9.55
-4.26
-5.00
-11.35
-21.03
-30.82
-38.01
-41.59
-42.44
-42.36
-42.64
-43.30
-43.30
-41.44
-38.01
-35.09
-35.70
-42.78
-58.73
-85.09
-121.68
-165.57
-210.52
-248.66
-272.51
-276.74
-259.47
-222.56
-170.58
-108.73
-41.31
28.65
97.14
158.12
204.65
230.93
233.99
214.64
177.31
126.99
74.61
32.57
7.13
-4.14
-7.57
-8.10
-7.61
-5.68
-1.38
5.66
13.71
19.64
21.13
18.13
12.61
7.26
4.35
4.89
8.58
13.36
16.32
15.48
10.92
4.58
-1.02
-3.81
-2.98
0.86
5.55
8.21
6.91
1.60
-5.99
-13.22
-17.59
-17.75
-14.06
-8.65
-4.98
-6.33
-15.01
-30.16
-48.00
-62.31
-66.23
-54.97
-27.73
10.80
51.58
83.91
98.68
91.38
63.35
21.13
-25.60
-66.18
-92.04
-98.49
-85.53
-57.93
-22.50
13.96
46.07
70.46
86.10
93.17
92.71
86.50
76.00
64.76
57.41
57.78
66.96
83.32
102.49
118.91
127.34
122.28
103.13
73.75
39.72
1.34
-39.17
-80.43
-122.67
-168.06
-221.54
-283.01
-346.23
-401.13
-437.80
-449.41
-434.75
-398.33
-334.55
-256.46
-185.60
-136.05
-107.25
-88.53
-71.95
-56.08
-41.69
-28.14
-19.21
-12.31
-1.96
15.94
41.46
71.14
100.34
125.62
145.57
159.16
169.53
181.99
200.98
227.81
260.25
293.74
322.79
342.25
347.34
337.64
316.50
289.21
260.62
233.61
208.75
184.45
157.72
124.76
83.48
33.77
-22.87
-83.81
-145.27
-202.06
-248.10
-277.24
-285.31
-271.08
-236.84
-187.76
-130.35
-70.34
-11.83
42.53
91.28
132.65
164.47
185.01
194.16
193.49
186.00
174.23
159.21
141.97
123.00
102.86
82.96
65.63
52.64
45.42
43.27
43.70
45.97
49.78
54.87
60.96
67.83
74.23
80.02
84.35
85.86
86.05
86.56
87.90
89.85
92.79
97.03
105.52
120.55
125.26
109.39
73.29
26.26
-21.94
-57.57
-84.76
-106.69
-124.67
-139.07
-148.99
-152.47
-149.65
-142.79
-134.52
-127.97
-123.30
-120.29
-118.91
-117.15
-113.21
-106.73
-98.53
-89.60
-81.70
-74.90
-69.41
-65.74
-63.03
-60.27
-57.23
-54.34
-52.06
-51.16
-51.05
-51.05
-50.62
-48.79
-44.79
-38.67
-31.13
-23.10
-15.74
-9.51
-4.67
-1.33
0.85
2.40
3.81
5.44
7.51
9.93
12.51
14.74
16.01
15.81
14.12
11.49
8.93
7.59
8.20
10.75
14.39
17.79
19.68
19.38
17.01
13.37
9.49
6.21
3.87
2.34
1.22
0.23
-0.66
-1.23
-1.17
-0.34
1.14
2.81
4.07
4.38
3.57
1.87
-0.14
-1.72
-2.28
-1.62
0.01
1.97
3.47
3.99
3.40
1.95
0.20
-1.28
-2.11
-2.23
-1.83
-1.31
-1.00
-1.13
-1.90
-3.37
-5.33
-7.38
-9.09
-10.22
-10.95
-11.54
-12.38
-13.94
-16.30
-18.94
-20.87
-21.16
-19.39
-16.20
-12.36
-8.94
-7.09
-7.31
-9.06
-10.99
-11.70
-10.55
-8.33
-5.78
-3.76
-3.08
-3.90
-5.47
-6.47
-5.44
-0.94
8.04
23.50
46.81
75.38
101.83
116.82
114.81
97.23
74.40
51.31
31.12
14.93
1.84
-9.84
-20.57
-29.76
-36.43
-40.16
-42.02
-42.91
-43.79
-45.55
-48.44
-51.96
-55.47
-58.84
-62.33
-66.25
-69.05
-68.05
-60.89
-46.83
-27.48
-6.36
12.40
25.69
32.23
33.24
30.91
27.04
22.45
17.36
12.08
7.35
4.24
3.37
4.84
7.91
11.23
13.51
14.04
12.91
10.90
8.99
7.90
7.93
8.87
10.11
11.03
11.23
10.72
9.80
8.91
8.39
8.34
8.62
8.92
8.89
8.36
7.32
6.03
4.80
3.91
3.46
3.37
3.43
3.41
3.18
2.72
2.17
1.69
1.40
1.34
1.45
1.64
1.78
1.80
1.69
1.53
1.40
1.36
1.37
1.27
0.87
-0.04
-1.54
-3.64
-6.20
-8.98
-11.72
-14.18
-16.12
-17.36
-17.73
-17.12
-15.50
-12.96
-9.67
-5.90
-1.91
2.10
6.04
9.91
13.72
17.40
20.78
23.54
25.29
25.71
24.67
22.30
18.90
14.82
10.34
5.69
1.11
-3.06
-6.38
-8.44
-9.07
-8.42
-6.98
-5.34
-3.92
-2.87
-2.03
-1.17
-0.19
0.84
1.73
2.34
2.63
2.67
2.60
2.48
2.30
2.02
1.62
1.15
0.73
0.46
0.39
0.51
0.78
1.10
1.35
1.37
1.00
0.29
-0.46
-0.62
0.54
3.47
7.98
13.19
17.77
20.54
20.85
18.87
15.30
11.03
6.79
3.07
0.19
-1.59
-2.03
-1.15
0.66
2.66
4.01
4.20
3.30
1.90
0.78
0.57
1.43
3.08
4.95
6.46
7.29
7.35
6.85
6.15
5.68
5.90
7.16
9.55
12.76
16.02
18.20
18.12
14.93
8.39
-0.91
-11.74
-22.55
-31.90
-38.77
-42.74
-43.92
-42.82
-40.13
-36.58
-32.86
-29.55
-27.04
-25.50
-24.80
-24.59
-24.42
-23.86
-22.66
-20.82
-18.62
-16.58
-15.31
-15.37
-16.98
-19.84
-23.12
-25.66
-26.35
-24.57
-20.41
-14.66
-8.47
-2.91
1.41
4.39
6.35
7.65
8.49
8.80
8.37
7.04
4.94
2.44
0.09
-1.64
-2.58
-2.84
-2.70
-2.43
-2.08
-1.56
-0.75
0.38
1.71
3.08
4.43
5.86
7.56
9.66
12.04
14.40
16.30
17.40
17.59
16.95
15.67
13.94
11.90
9.67
7.36
5.14
3.13
1.35
-0.33
-2.13
-4.24
-6.68
-9.25
-11.55
-13.14
-13.74
-13.36
-12.28
-10.90
-9.60
-8.50
-7.51
-6.32
-4.62
-2.16
1.16
5.29
10.10
15.34
20.67
25.69
29.98
33.24
35.34
36.38
36.56
36.12
35.22
33.92
32.22
30.13
27.77
25.31
22.93
20.76
18.82
16.98
15.09
12.98
10.50
7.62
4.35
0.82
-2.80
-6.34
-9.62
-12.52
-14.93
-16.77
-17.97
-18.46
-18.27
-17.53
-16.46
-15.32
-14.39
-13.82
-13.66
-13.84
-14.21
-14.60
-14.83
-14.76
-14.38
-13.78
-13.17
-12.82
-12.91
-13.47
-14.33
-15.17
-15.68
-15.66
-15.12
-14.22
-13.16
-12.07
-10.96
-9.70
-8.20
-6.34
-4.13
-1.58
1.27
4.40
7.76
11.23
14.59
17.54
19.84
21.33
21.95
21.69
20.49
18.21
14.72
9.95
4.11
-2.32
-8.62
-14.07
-18.05
-20.28
-20.77
-19.74
-17.58
-14.70
-11.53
-8.54
-6.11
-4.55
-3.93
-4.11
-4.75
-5.54
-6.28
-6.99
-7.84
-8.92
-10.17
-11.31
-11.99
-11.99
-11.35
-10.32
-9.18
-8.14
-7.17
-6.17
-5.04
-3.88
-2.89
-2.27
-2.07
-2.14
-2.20
-2.02
-1.52
-0.80
0.00
0.79
1.56
2.39
3.33
4.39
5.55
6.74
7.96
9.22
10.56
11.97
13.40
14.79
16.11
17.35
18.58
19.84
21.13
22.40
23.51
24.23
24.30
23.48
21.66
18.94
15.65
12.27
9.28
6.99
5.42
4.35
3.44
2.37
1.04
-0.49
-2.05
-3.49
-4.77
-5.95
-7.08
-8.19
-9.18
-9.99
-10.57
-10.99
-11.37
-11.83
-12.38
-12.96
-13.44
-13.76
-13.91
-13.93
-13.87
-13.71
-13.38
-12.80
-11.91
-10.71
-9.22
-7.48
-5.54
-3.49
-1.47
0.32
1.72
2.67
3.24
3.64
4.04
4.57
5.19
5.79
6.22
6.44
6.45
6.32
6.07
5.68
5.06
4.14
2.93
1.54
0.12
-1.15
-2.18
-2.95
-3.56
-4.15
-4.82
-5.59
-6.36
-7.03
-7.45
-7.56
-7.36
-6.92
-6.31
-5.60
-4.84
-4.04
-3.25
-2.47
-1.76
-1.13
-0.61
-0.17
0.24
0.68
1.22
1.84
2.47
2.95
3.11
2.85
2.16
1.12
-0.10
-1.33
-2.44
-3.35
-4.06
-4.64
-5.16
-5.70
-6.27
-6.80
-7.16
-7.23
-6.93
-6.31
-5.50
-4.67
-3.97
-3.46
-3.11
-2.81
-2.47
-2.00
-1.40
-0.75
-0.12
0.38
0.68
0.76
0.63
0.35
0.02
-0.28
-0.42
-0.32
0.01
0.52
1.04
1.43
1.57
1.45
1.16
0.80
0.48
0.24
0.07
-0.06
-0.14
-0.17
-0.12
-0.01
0.06
-0.01
-0.31
-0.81
-1.38
-1.87
-2.16
-2.26
-2.28
-2.34
-2.50
-2.72
-2.90
-2.91
-2.72
-2.36
-1.92
-1.49
-1.07
-0.65
-0.19
0.31
0.81
1.25
1.55
1.71
1.72
1.64
1.55
1.50
1.53
1.62
1.67
1.61
1.38
1.01
0.61
0.34
0.28
0.42
0.67
0.86
0.87
0.68
0.39
0.12
-0.07
-0.19
-0.35
-0.63
-1.05
-1.53
-1.92
-2.14
-2.21
-2.25
-2.42
-2.81
-3.44
-4.23
-5.04
-5.74
-6.21
-6.34
-6.10
-5.54
-4.76
-3.93
-3.16
-2.50
-1.86
-1.14
-0.24
0.88
2.15
3.46
4.70
5.74
6.43
6.68
6.45
5.73
4.61
3.19
1.61
-0.02
-1.57
-2.96
-4.06
-4.86
-5.55
-6.37
-7.57
-9.16
-10.93
-12.53
-13.55
-13.54
-12.28
-9.85
-6.57
-2.96
0.39
3.04
4.74
5.62
6.29
7.40
9.18
11.41
13.47
14.76
14.92
13.95
12.21
10.45
9.28
8.76
8.52
7.90
6.14
2.64
-3.03
-11.64
-22.40
-32.73
-39.59
-41.33
-38.51
-33.41
-27.49
-21.34
-14.69
-6.70
3.35
14.24
24.11
30.93
33.07
29.97
22.06
10.82
-1.38
-11.82
-18.07
-18.22
-11.51
1.40
18.49
36.66
52.72
64.44
70.84
72.16
69.52
64.34
58.03
51.81
46.50
42.56
40.07
38.64
37.47
35.76
32.93
28.91
24.02
18.86
14.07
10.14
7.19
4.90
2.60
-0.51
-5.08
-11.22
-18.52
-26.14
-33.09
-38.61
-42.24
-43.90
-43.75
-42.09
-39.19
-35.38
-30.97
-26.28
-21.59
-17.17
-13.24
-9.98
-7.53
-5.97
-5.25
-5.21
-5.57
-6.03
-6.31
-6.25
-5.79
-4.91
-3.64
-2.04
-0.15
1.99
4.32
6.74
9.16
11.39
13.21
14.37
14.64
13.92
12.27
9.90
7.21
4.58
2.33
0.62
-0.61
-1.55
-2.39
-3.28
-4.23
-5.13
-5.86
-6.34
-6.62
-6.79
-6.97
-7.21
-7.53
-7.86
-8.18
-8.42
-8.52
-8.42
-8.04
-7.39
-6.52
-5.63
-4.86
-4.34
-4.03
-3.78
-3.36
-2.56
-1.30
0.35
2.21
4.04
5.60
6.67
7.13
6.89
5.98
4.49
2.62
0.63
-1.18
-2.62
-3.59
-4.13
-4.37
-4.41
-4.33
-4.12
-3.69
-3.04
-2.19
-1.29
-0.53
-0.07
0.07
-0.05
-0.30
-0.55
-0.68
-0.68
-0.53
-0.21
0.28
0.93
1.65
2.28
2.64
2.63
2.26
1.69
1.13
0.77
0.68
0.79
0.99
1.12
1.12
0.98
0.78
0.59
0.47
0.43
0.45
0.48
0.50
0.49
0.45
0.40
0.32
0.17
-0.08
-0.48
-0.96
-1.45
-1.83
-2.02
-1.97
-1.70
-1.26
-0.70
-0.09
0.55
1.13
1.61
1.90
2.01
1.99
1.94
1.95
2.02
2.04
1.92
1.55
0.97
0.27
-0.41
-0.98
-1.42
-1.75
-1.99
-2.14
-2.16
-2.00
-1.71
-1.34
-0.99
-0.73
-0.57
-0.50
-0.48
-0.49
-0.45
-0.31
-0.00
0.48
1.06
1.59
1.92
1.93
1.68
1.25
0.81
0.46
0.23
0.11
0.08
0.13
0.26
0.48
0.73
0.94
1.04
1.01
0.92
0.87
0.92
1.07
1.26
1.37
1.32
1.11
0.80
0.50
0.30
0.24
0.30
0.40
0.46
0.41
0.24
-0.03
-0.37
-0.72
-1.04
-1.28
-1.38
-1.33
-1.12
-0.79
-0.40
-0.07
0.11
0.10
-0.05
-0.29
-0.53
-0.72
-0.86
-0.97
-1.07
-1.13
-1.14
-1.06
-0.91
-0.73
-0.54
-0.36
-0.16
0.06
0.31
0.53
0.63
0.57
0.33
-0.02
-0.34
-0.53
-0.48
-0.22
0.16
0.51
0.67
0.57
0.25
-0.15
-0.47
-0.62
-0.57
-0.39
-0.17
0.06
0.30
0.60
0.96
1.30
1.52
1.52
1.27
0.85
0.38
0.01
-0.15
-0.10
0.11
0.42
0.73
0.95
1.03
0.92
0.59
0.08
-0.57
-1.25
-1.82
-2.20
-2.33
-2.27
-2.11
-1.96
-1.88
-1.85
-1.81
-1.71
-1.55
-1.35
-1.15
-0.95
-0.73
-0.48
-0.24
-0.11
-0.17
-0.45
-0.84
-1.22
-1.46
-1.56
-1.62
-1.78
-2.09
-2.51
-2.89
-3.09
-3.08
-2.87
-2.61
-2.40
-2.28
-2.20
-2.02
-1.57
-0.72
0.55
2.17
3.94
5.59
6.88
7.66
7.90
7.71
7.26
6.74
6.31
6.07
6.03
6.10
6.12
5.90
5.27
4.19
2.78
1.25
-0.15
-1.22
-1.91
-2.24
-2.29
-2.10
-1.72
-1.15
-0.46
0.24
0.85
1.30
1.60
1.81
2.05
2.40
2.95
3.76
4.88
6.27
7.80
9.18
10.03
10.05
9.10
7.36
5.23
3.20
1.64
0.69
0.21
-0.04
-0.38
-1.06
-2.14
-3.55
-5.17
-6.87
-8.58
-10.29
-11.94
-13.58
-15.15
-16.47
-17.18
-17.00
-15.86
-13.97
-11.74
-9.57
-7.78
-6.35
-4.84
-2.44
1.45
6.92
13.31
19.46
24.13
26.21
25.19
21.23
15.20
8.16
1.04
-5.38
-10.71
-13.96
-15.04
-15.88
-19.39
-26.82
-37.05
-46.54
-51.11
-47.54
-34.91
-15.00
9.16
32.59
50.72
60.67
61.82
55.40
43.67
29.07
13.65
-0.94
-13.23
-21.71
-25.32
-23.87
-18.29
-10.34
-2.07
4.80
9.31
11.44
12.01
12.05
12.18
12.40
12.19
10.95
8.28
4.30
-0.51
-5.35
-9.52
-12.66
-14.75
-15.89
-16.16
-15.53
-14.00
-11.70
-8.96
-6.20
-3.83
-2.04
-0.73
0.45
1.83
3.58
5.59
7.55
9.12
10.09
10.49
10.50
10.35
10.22
10.14
10.05
9.84
9.50
9.10
8.75
8.57
8.58
8.65
8.57
8.13
7.23
5.90
4.35
2.84
1.59
0.65
-0.03
-0.68
-1.46
-2.49
-3.70
-4.88
-5.81
-6.29
-6.26
-5.82
-5.14
-4.44
-3.86
-3.54
-3.52
-3.84
-4.48
-5.34
-6.27
-7.10
-7.71
-8.09
-8.35
-8.63
-9.01
-9.43
-9.75
-9.81
-9.59
-9.16
-8.72
-8.46
-8.46
-8.70
-9.03
-9.28
-9.29
-9.02
-8.46
-7.69
-6.78
-5.81
-4.82
-3.85
-2.89
-1.97
-1.11
-0.37
0.22
0.63
0.86
0.97
1.05
1.19
1.47
1.89
2.43
2.99
3.48
3.83
4.04
4.15
4.24
4.35
4.47
4.51
4.33
3.88
3.16
2.31
1.48
0.83
0.39
0.10
-0.16
-0.50
-0.96
-1.53
-2.16
-2.78
-3.36
-3.83
-4.11
-4.09
-3.70
-2.93
-1.92
-0.85
0.06
0.68
1.00
1.12
1.20
1.36
1.67
2.11
2.60
3.05
3.41
3.61
3.62
3.42
3.05
2.55
2.04
1.59
1.27
1.08
1.05
1.15
1.41
1.80
2.25
2.63
2.83
2.79
2.61
2.43
2.44
2.70
3.13
3.56
3.82
3.84
3.68
3.47
3.30
3.18
3.01
2.66
2.06
1.23
0.32
-0.51
-1.13
-1.48
-1.63
-1.69
-1.73
-1.79
-1.87
-1.91
-1.89
-1.81
-1.65
-1.39
-1.00
-0.46
0.20
0.87
1.44
1.78
1.85
1.67
1.32
0.93
0.59
0.35
0.20
0.08
-0.05
-0.21
-0.37
-0.50
-0.55
-0.53
-0.50
-0.54
-0.70
-0.99
-1.31
-1.58
-1.72
-1.73
-1.64
-1.53
-1.48
-1.56
-1.84
-2.35
-3.06
-3.82
-4.36
-4.38
-3.62
-2.10
-0.09
1.93
3.52
4.41
4.58
4.25
3.63
2.89
2.05
1.11
0.08
-0.91
-1.65
-2.03
-2.03
-1.80
-1.53
-1.39
-1.42
-1.54
-1.62
-1.50
-1.10
-0.46
0.31
1.04
1.57
1.80
1.71
1.40
1.03
0.72
0.59
0.63
0.79
0.95
1.01
0.92
0.68
0.38
0.12
-0.03
-0.08
-0.10
-0.18
-0.33
-0.49
-0.51
-0.25
0.32
1.09
1.82
2.30
2.40
2.16
1.73
1.29
0.97
0.84
0.86
0.99
1.19
1.39
1.53
1.52
1.30
0.89
0.39
-0.03
-0.25
-0.20
0.07
0.41
0.67
0.74
0.59
0.29
-0.06
-0.35
-0.54
-0.62
-0.62
-0.59
-0.58
-0.62
-0.67
-0.70
-0.63
-0.43
-0.10
0.26
0.53
0.63
0.52
0.25
-0.08
-0.36
-0.52
-0.53
-0.36
-0.05
0.38
0.87
1.35
1.75
1.99
2.05
1.93
1.71
1.52
1.45
1.59
1.90
2.27
2.56
2.62
2.42
2.01
1.52
1.09
0.82
0.75
0.86
1.06
1.26
1.33
1.18
0.76
0.09
-0.69
-1.45
-2.02
-2.31
-2.33
-2.14
-1.87
-1.62
-1.43
-1.34
-1.32
-1.35
-1.43
-1.56
-1.77
-2.06
-2.44
-2.86
-3.22
-3.42
-3.40
-3.14
-2.72
-2.31
-2.04
-1.93
-1.89
-1.79
-1.46
-0.91
-0.26
0.26
0.52
0.47
0.27
0.08
0.07
0.22
0.42
0.50
0.37
0.07
-0.25
-0.41
-0.27
0.13
0.65
1.07
1.19
0.95
0.46
-0.11
-0.50
-0.57
-0.28
0.29
0.96
1.57
2.01
2.24
2.25
2.09
1.83
1.53
1.25
1.02
0.86
0.78
0.81
0.96
1.22
1.55
1.85
2.04
2.07
1.94
1.71
1.43
1.13
0.77
0.32
-0.17
-0.59
-0.79
-0.66
-0.26
0.24
0.61
0.65
0.37
-0.12
-0.64
-1.04
-1.27
-1.39
-1.46
-1.48
-1.42
-1.21
-0.83
-0.36
0.08
0.39
0.53
0.55
0.57
0.68
0.88
1.09
1.21
1.18
1.01
0.81
0.72
0.80
0.99
1.16
1.15
0.89
0.42
-0.13
-0.60
-0.91
-1.09
-1.21
-1.35
-1.51
-1.62
-1.54
-1.20
-0.61
0.08
0.68
1.03
1.07
0.86
0.56
0.35
0.38
0.67
1.17
1.76
2.26
2.53
2.51
2.16
1.56
0.79
-0.02
-0.73
-1.24
-1.49
-1.46
-1.20
-0.84
-0.49
-0.26
-0.17
-0.18
-0.17
-0.08
0.13
0.38
0.58
0.64
0.51
0.23
-0.14
-0.52
-0.82
-1.00
-1.02
-0.87
-0.59
-0.23
0.10
0.34
0.43
0.36
0.19
-0.04
-0.26
-0.37
-0.33
-0.07
0.39
0.93
1.39
1.56
1.32
0.71
-0.09
-0.82
-1.26
-1.30
-0.99
-0.49
0.05
0.51
0.85
1.08
1.23
1.33
1.34
1.27
1.11
0.87
0.60
0.37
0.24
0.26
0.40
0.63
0.85
0.97
0.93
0.74
0.43
0.08
-0.25
-0.52
-0.71
-0.84
-0.93
-1.03
-1.19
-1.44
-1.78
-2.09
-2.26
-2.22
-1.97
-1.65
-1.39
-1.25
-1.21
-1.12
-0.87
-0.40
0.17
0.70
1.02
1.08
0.93
0.69
0.45
0.24
0.04
-0.16
-0.37
-0.54
-0.62
-0.56
-0.38
-0.17
-0.01
0.01
-0.12
-0.36
-0.63
-0.83
-0.95
-1.01
-1.05
-1.08
-1.04
-0.85
-0.46
0.08
0.65
1.07
1.22
1.10
0.81
0.50
0.27
0.13
0.01
-0.16
-0.39
-0.64
-0.81
-0.83
-0.68
-0.42
-0.15
0.04
0.09
0.02
-0.13
-0.28
-0.36
-0.34
-0.22
-0.05
0.12
0.22
0.23
0.15
0.00
-0.13
-0.18
-0.07
0.22
0.66
1.11
1.41
1.45
1.21
0.81
0.41
0.14
0.03
0.01
-0.02
-0.10
-0.21
-0.29
-0.30
-0.29
-0.34
-0.50
-0.74
-0.95
-1.00
-0.84
-0.50
-0.13
0.15
0.28
0.27
0.19
0.08
-0.03
-0.14
-0.28
-0.45
-0.63
-0.84
-1.07
-1.32
-1.54
-1.65
-1.60
-1.36
-1.01
-0.66
-0.41
-0.28
-0.21
-0.13
-0.03
0.02
-0.09
-0.40
-0.78
-1.05
-1.02
-0.63
-0.03
0.54
0.87
0.89
0.71
0.48
0.35
0.34
0.42
0.55
0.71
0.92
1.19
1.46
1.63
1.60
1.36
0.99
0.65
0.46
0.48
0.66
0.88
1.00
0.99
0.91
0.85
0.86
0.90
0.85
0.61
0.15
-0.41
-0.87
-1.05
-0.92
-0.60
-0.28
-0.13
-0.17
-0.29
-0.27
0.01
0.56
1.21
1.71
1.87
1.59
0.95
0.13
-0.66
-1.27
-1.64
-1.78
-1.76
-1.66
-1.54
-1.44
-1.42
-1.49
-1.68
-1.96
-2.23
-2.37
-2.24
-1.78
-1.05
-0.23
0.48
0.90
0.95
0.74
0.39
0.03
-0.30
-0.64
-1.02
-1.44
-1.77
-1.90
-1.76
-1.38
-0.90
-0.49
-0.26
-0.27
-0.46
-0.75
-1.09
-1.42
-1.70
-1.85
-1.79
-1.49
-0.97
-0.33
0.28
0.76
1.05
1.17
1.20
1.18
1.14
1.04
0.86
0.58
0.25
-0.05
-0.25
-0.32
-0.27
-0.17
-0.08
-0.04
-0.05
-0.07
-0.04
0.11
0.40
0.81
1.25
1.64
1.90
2.02
2.03
2.00
1.99
2.03
2.05
1.97
1.74
1.35
0.89
0.47
0.21
0.16
0.30
0.52
0.74
0.93
1.07
1.11
1.00
0.72
0.36
0.11
0.14
0.59
1.42
2.39
3.21
3.60
3.51
3.22
3.07
3.20
3.66
4.39
5.08
5.56
5.58
5.10
4.45
3.95
3.59
3.52
3.86
4.36
4.71
4.35
2.89
0.66
-2.03
-5.44
-9.41
-13.56
-17.86
-22.33
-27.62
-34.54
-42.81
-51.88
-61.53
-69.72
-73.00
-70.19
-59.69
-41.81
-18.77
6.98
32.98
54.99
70.47
79.28
82.51
82.28
80.53
74.21
63.31
55.54
51.72
48.64
44.84
39.38
32.21
23.84
15.30
8.44
4.18
1.30
-1.20
-3.77
-7.08
-11.55
-17.63
-25.52
-34.47
-43.48
-52.04
-58.60
-61.24
-59.09
-52.57
-43.37
-33.89
-26.04
-21.20
-20.40
-23.13
-27.70
-32.03
-34.15
-32.69
-27.25
-18.20
-6.71
5.40
16.66
26.05
32.92
37.00
38.41
37.71
35.81
33.70
31.96
30.78
29.91
28.88
27.21
24.73
21.50
17.68
13.36
8.61
3.69
-0.82
-4.04
-5.11
-3.71
-0.34
3.71
6.79
7.63
5.80
1.81
-3.16
-7.86
-11.44
-13.62
-14.60
-14.85
-14.72
-14.43
-14.03
-13.53
-13.01
-12.62
-12.51
-12.75
-13.28
-13.94
-14.47
-14.69
-14.51
-13.90
-12.88
-11.40
-9.37
-6.67
-3.31
0.55
4.51
8.06
10.65
11.89
11.61
9.91
7.09
3.62
0.03
-3.23
-5.75
-7.32
-7.93
-7.71
-6.91
-5.72
-4.20
-2.35
-0.10
2.51
5.27
7.85
9.90
11.21
11.74
11.61
11.04
10.21
9.27
8.32
7.41
6.57
5.80
5.09
4.41
3.77
3.22
2.85
2.73
2.94
3.48
4.29
5.29
6.36
7.36
8.20
8.78
9.12
9.22
9.15
8.95
8.67
8.32
7.92
7.52
7.13
6.73
6.24
5.59
4.72
3.64
2.49
1.42
0.57
-0.00
-0.33
-0.52
-0.69
-1.00
-1.61
-2.67
-4.29
-6.50
-9.26
-12.38
-15.63
-18.84
-21.86
-24.67
-27.25
-29.61
-31.71
-33.52
-35.05
-36.35
-37.48
-38.42
-38.96
-38.70
-37.14
-33.85
-28.65
-21.75
-13.68
-5.18
3.05
10.51
16.94
22.30
26.64
30.05
32.63
34.52
35.83
36.62
36.84
36.36
35.10
33.06
30.42
27.52
24.67
22.12
19.96
18.34
17.43
17.47
18.49
20.29
22.47
24.56
26.12
26.94
27.04
26.60
25.79
24.50
22.71
20.62
18.65
17.11
16.08
15.38
14.74
14.01
12.97
11.80
11.00
11.03
11.79
12.59
12.56
11.09
8.17
3.90
-1.09
-5.86
-9.62
-12.16
-13.86
-15.51
-18.20
-20.25
-21.53
-23.86
-29.30
-37.62
-46.51
-53.16
-55.75
-54.10
-49.31
-43.42
-37.84
-32.94
-28.29
-23.63
-19.25
-15.81
-13.90
-13.52
-14.49
-15.90
-16.69
-16.11
-14.21
-11.80
-9.92
-9.29
-9.89
-11.26
-12.25
-11.82
-9.47
-5.68
-1.79
0.67
0.60
-2.09
-7.15
-12.76
-17.71
-21.38
-24.13
-27.03
-31.19
-37.35
-45.08
-55.05
-66.77
-78.73
-87.84
-90.01
-81.58
-61.35
-31.81
1.19
30.53
51.00
60.88
62.22
59.03
54.93
51.60
48.82
45.58
41.38
36.97
33.58
32.09
32.40
33.50
34.14
33.30
30.83
27.30
23.74
21.05
19.68
19.55
20.17
20.93
21.46
21.44
20.83
19.83
18.64
17.51
16.73
16.60
17.34
18.95
21.14
23.35
24.96
25.50
24.90
23.54
22.14
21.59
22.71
26.03
31.46
37.87
42.93
43.55
36.80
21.38
-1.29
-26.95
-49.53
-63.30
-64.93
-54.85
-36.88
-16.75
0.06
9.99
11.95
6.99
-2.90
-15.40
-28.26
-39.37
-46.83
-49.19
-45.86
-37.56
-26.19
-14.38
-4.49
2.02
5.03
5.46
4.69
3.91
3.68
3.88
4.00
3.50
2.14
0.12
-2.07
-3.77
-4.51
-4.15
-2.91
-1.20
0.50
1.85
2.65
2.85
2.54
1.88
1.08
0.36
-0.08
-0.17
0.05
0.41
0.67
0.70
0.45
0.07
-0.23
-0.28
-0.00
0.50
1.07
1.50
1.68
1.58
1.30
0.96
0.67
0.49
0.41
0.36
0.28
0.14
-0.04
-0.24
-0.42
-0.52
-0.53
-0.48
-0.40
-0.33
-0.29
-0.27
-0.28
-0.33
-0.49
-0.74
-1.04
-1.23
-1.17
-0.76
-0.07
0.72
1.34
1.60
1.41
0.84
0.07
-0.73
-1.38
-1.79
-1.88
-1.65
-1.18
-0.60
-0.11
0.18
0.24
0.16
0.11
0.18
0.38
0.60
0.75
0.77
0.68
0.57
0.50
0.48
0.50
0.55
0.64
0.78
0.97
1.12
1.15
0.98
0.61
0.14
-0.32
-0.68
-0.92
-1.06
-1.11
-1.06
-0.91
-0.65
-0.34
-0.05
0.18
0.31
0.39
0.42
0.43
0.39
0.27
0.11
-0.06
-0.17
-0.17
-0.06
0.12
0.27
0.32
0.23
-0.01
-0.32
-0.63
-0.85
-0.98
-1.03
-1.07
-1.09
-1.09
-1.01
-0.83
-0.58
-0.34
-0.22
-0.33
-0.69
-1.26
-1.94
-2.60
-3.11
-3.32
-3.13
-2.44
-1.29
0.19
1.74
3.07
3.95
4.27
4.11
3.67
3.18
2.80
2.63
2.68
2.88
3.14
3.38
3.58
3.68
3.70
3.58
3.26
2.65
1.69
0.43
-0.92
-2.10
-2.86
-3.09
-2.91
-2.59
-2.44
-2.68
-3.31
-4.17
-4.96
-5.37
-5.17
-4.28
-2.82
-1.04
0.67
1.96
2.57
2.46
1.75
0.75
-0.21
-0.86
-1.09
-0.96
-0.66
-0.44
-0.44
-0.71
-1.13
-1.54
-1.79
-1.80
-1.57
-1.12
-0.54
0.16
0.94
1.75
2.53
3.14
3.46
3.42
2.99
2.22
1.23
0.21
-0.64
-1.12
-1.13
-0.69
0.03
0.82
1.47
1.87
2.01
1.98
1.86
1.69
1.47
1.14
0.67
0.10
-0.48
-0.99
-1.34
-1.53
-1.60
-1.62
-1.67
-1.84
-2.18
-2.72
-3.43
-4.16
-4.70
-4.88
-4.61
-4.04
-3.56
-3.74
-5.11
-7.95
-12.03
-16.64
-20.75
-23.37
-23.95
-22.57
-19.90
-16.83
-14.02
-11.55
-8.97
-5.58
-1.02
4.41
9.71
13.54
14.77
12.95
8.33
1.76
-5.67
-12.66
-17.80
-19.47
-16.21
-7.31
6.57
23.22
39.41
52.03
59.15
60.63
57.77
52.34
45.60
37.84
28.81
18.49
7.75
-1.65
-7.80
-9.57
-7.21
-2.28
3.15
7.47
10.11
11.42
12.12
12.61
12.69
11.81
9.54
6.10
2.26
-1.00
-3.02
-3.75
-3.69
-3.47
-3.57
-4.07
-4.82
-5.59
-6.34
-7.26
-8.66
-10.84
-13.99
-18.05
-22.73
-27.56
-31.98
-35.45
-37.58
-38.19
-37.28
-35.05
-31.94
-28.47
-25.13
-22.10
-19.12
-15.50
-10.43
-3.46
5.09
14.08
21.95
27.33
29.62
29.09
26.64
23.29
19.66
15.88
11.83
7.47
3.04
-0.92
-3.81
-5.29
-5.43
-4.70
-3.72
-3.01
-2.78
-2.91
-3.04
-2.73
-1.66
0.29
3.05
6.42
10.09
13.70
16.91
19.41
21.05
21.81
21.81
21.28
20.42
19.40
18.38
17.46
16.73
16.21
15.75
14.99
13.51
10.91
7.03
2.00
-3.83
-10.02
-16.15
-21.91
-26.99
-30.97
-33.44
-34.10
-33.05
-30.88
-28.56
-27.04
-26.81
-27.62
-28.56
-28.51
-26.60
-22.57
-16.82
-10.20
-3.73
1.68
5.36
6.99
6.67
4.95
2.73
0.97
0.36
1.06
2.66
4.43
5.69
6.15
5.96
5.57
5.49
6.04
7.26
8.94
10.81
12.56
14.00
14.99
15.42
15.20
14.33
12.87
10.98
8.88
6.76
4.77
2.94
1.23
-0.42
-2.00
-3.46
-4.67
-5.54
-6.03
-6.19
-6.15
-6.01
-5.83
-5.60
-5.25
-4.69
-3.91
-2.98
-2.06
-1.28
-0.77
-0.53
-0.54
-0.72
-1.01
-1.38
-1.77
-2.13
-2.36
-2.42
-2.31
-2.08
-1.81
-1.55
-1.27
-0.91
-0.39
0.33
1.22
2.18
3.07
3.77
4.22
4.43
4.44
4.29
3.97
3.43
2.64
1.61
0.43
-0.67
-1.46
-1.78
-1.65
-1.24
-0.79
-0.50
-0.43
-0.50
-0.58
-0.56
-0.41
-0.17
0.15
0.56
1.04
1.57
2.05
2.38
2.52
2.48
2.36
2.22
2.05
1.80
1.38
0.80
0.16
-0.39
-0.73
-0.84
-0.81
-0.77
-0.85
-1.11
-1.55
-2.06
-2.56
-2.92
-3.08
-3.04
-2.86
-2.64
-2.46
-2.32
-2.17
-1.94
-1.60
-1.20
-0.84
-0.62
-0.60
-0.75
-0.99
-1.25
-1.44
-1.52
-1.43
-1.16
-0.69
-0.09
0.53
1.03
1.29
1.28
1.04
0.71
0.41
0.30
0.48
0.95
1.62
2.32
2.82
2.97
2.76
2.32
1.88
1.63
1.58
1.60
1.50
1.19
0.71
0.27
0.09
0.22
0.58
0.90
0.96
0.68
0.18
-0.27
-0.47
-0.34
0.01
0.36
0.50
0.35
-0.01
-0.45
-0.80
-1.02
-1.10
-1.10
-1.08
-1.06
-1.05
-1.05
-1.07
-1.07
-1.07
-1.04
-1.01
-1.01
-1.04
-1.06
-1.01
-0.81
-0.47
-0.03
0.38
0.65
0.74
0.67
0.50
0.28
0.03
-0.23
-0.45
-0.58
-0.55
-0.39
-0.23
-0.20
-0.41
-0.86
-1.42
-1.93
-2.26
-2.38
-2.38
-2.34
-2.37
-2.51
-2.74
-3.02
-3.27
-3.43
-3.46
-3.36
-3.22
-3.11
-3.10
-3.16
-3.24
-3.25
-3.13
-2.90
-2.59
-2.15
-1.46
-0.32
1.36
3.52
5.91
8.18
10.11
11.66
13.04
14.49
16.09
17.66
18.80
19.04
18.10
15.99
13.05
9.74
6.55
3.80
1.62
-0.03
-1.24
-2.14
-2.81
-3.36
-3.80
-4.14
-4.34
-4.36
-4.24
-4.05
-3.96
-4.12
-4.60
-5.37
-6.32
-7.27
-8.08
-8.68
-9.06
-9.25
-9.24
-9.05
-8.67
-8.10
-7.38
-6.55
-5.71
-4.94
-4.30
-3.86
-3.62
-3.55
-3.57
-3.62
-3.63
-3.60
-3.53
-3.46
-3.40
-3.30
-3.02
-2.42
-1.35
0.23
2.20
4.32
6.34
8.05
9.38
10.32
10.92
11.15
10.94
10.21
8.95
7.29
5.48
3.83
2.55
1.76
1.39
1.29
1.29
1.26
1.16
0.96
0.68
0.32
-0.09
-0.53
-0.94
-1.28
-1.50
-1.62
-1.71
-1.84
-2.11
-2.50
-2.97
-3.43
-3.80
-4.06
-4.20
-4.25
-4.17
-3.95
-3.55
-3.02
-2.43
-1.84
-1.28
-0.72
-0.08
0.64
1.35
1.87
2.01
1.69
1.00
0.21
-0.37
-0.54
-0.28
0.24
0.75
1.07
1.13
1.04
0.93
0.92
1.01
1.12
1.17
1.10
0.95
0.79
0.71
0.73
0.82
0.92
0.93
0.83
0.62
0.36
0.12
-0.06
-0.22
-0.41
-0.64
-0.90
-1.05
-1.03
-0.82
-0.52
-0.32
-0.37
-0.72
-1.26
-1.79
-2.14
-2.18
-1.94
-1.49
-0.98
-0.49
-0.09
0.24
0.52
0.79
1.03
1.20
1.26
1.19
1.03
0.83
0.63
0.42
0.15
-0.26
-0.81
-1.39
-1.81
-1.90
-1.59
-0.97
-0.26
0.29
0.53
0.45
0.15
-0.16
-0.28
-0.11
0.37
1.06
1.83
2.52
3.02
3.30
3.32
3.11
2.68
2.07
1.35
0.60
-0.02
-0.41
-0.52
-0.37
-0.07
0.25
0.50
0.61
0.63
0.61
0.64
0.81
1.13
1.59
2.13
2.67
3.16
3.59
3.98
4.34
4.66
4.87
4.89
4.75
4.55
4.47
4.68
5.22
5.97
6.71
7.19
7.30
7.13
6.90
6.87
7.19
7.78
8.41
8.82
8.83
8.40
7.60
6.51
5.17
3.48
1.25
-1.71
-5.54
-10.21
-15.57
-21.34
-27.13
-32.36
-36.36
-38.42
-37.83
-34.15
-27.37
-18.14
-7.72
2.43
11.08
17.52
21.63
23.86
24.96
25.76
26.81
28.34
30.36
32.74
35.04
36.47
36.23
33.90
29.82
24.85
20.11
16.68
15.30
15.89
17.66
19.38
19.87
18.30
13.84
5.71
-6.47
-20.49
-32.12
-37.07
-33.93
-25.13
-14.88
-7.67
-6.47
-11.70
-21.17
-31.27
-38.71
-41.65
-40.32
-35.91
-30.49
-25.77
-22.53
-20.62
-19.25
-17.96
-16.28
-15.19
-13.97
-12.81
-12.58
-14.74
-20.98
-32.30
-48.12
-63.09
-71.93
-68.33
-48.30
-12.28
34.22
81.13
119.66
141.92
143.56
124.85
91.02
49.93
10.04
-20.00
-36.71
-41.23
-37.63
-30.39
-22.82
-15.98
-9.84
-4.46
-0.28
1.65
0.95
-1.68
-4.78
-6.87
-6.70
-4.20
-0.26
3.66
5.81
4.54
-0.06
-7.29
-16.00
-24.74
-32.39
-38.66
-43.83
-47.91
-52.37
-57.73
-63.99
-70.97
-78.64
-87.00
-95.26
-101.10
-100.92
-91.20
-70.21
-39.95
-5.85
25.16
47.55
59.28
62.09
59.83
56.01
52.51
49.19
45.24
40.37
35.40
31.71
30.22
30.71
31.86
32.17
30.43
26.58
21.54
16.72
13.40
12.10
12.45
13.36
13.74
12.67
10.05
6.52
3.09
0.69
-0.27
0.03
0.88
1.48
1.22
0.09
-1.41
-2.43
-2.08
-0.03
3.57
8.06
12.54
16.22
18.76
20.33
21.52
23.04
25.30
28.28
31.45
34.07
35.54
35.72
34.94
33.93
33.40
33.89
35.73
39.12
44.05
49.87
55.00
57.01
53.49
43.29
27.42
9.02
-7.88
-20.08
-26.62
-28.81
-29.12
-29.61
-30.82
-31.81
-31.17
-28.16
-23.28
-18.07
-14.18
-12.56
-13.16
-15.19
-17.50
-19.14
-19.69
-19.17
-18.02
-16.74
-15.72
-15.36
-16.14
-18.80
-23.93
-31.86
-41.80
-51.67
-58.47
-59.35
-52.94
-40.02
-23.27
-6.19
8.16
18.82
25.74
29.60
31.18
30.95
29.05
25.59
20.98
15.95
11.43
7.97
5.72
4.39
3.46
2.52
1.54
0.84
0.86
1.92
3.91
6.39
8.76
10.49
11.35
11.41
10.96
10.32
9.64
8.86
7.83
6.42
4.63
2.61
0.66
-0.94
-1.90
-2.10
-1.57
-0.44
1.07
2.73
4.31
5.63
6.50
6.78
6.35
5.10
3.08
0.42
-2.68
-5.98
-9.37
-12.79
-16.29
-19.94
-23.80
-27.88
-32.09
-36.18
-39.71
-42.18
-43.12
-42.35
-40.02
-36.49
-32.08
-26.78
-20.17
-11.67
-0.95
11.67
25.18
38.09
48.85
56.26
59.57
58.55
53.39
44.70
33.53
21.33
9.69
-0.02
-6.93
-10.87
-12.20
-11.52
-9.42
-6.32
-2.57
1.44
5.28
8.44
10.52
11.34
10.93
9.50
7.31
4.59
1.54
-1.62
-4.60
-7.00
-8.44
-8.69
-7.81
-6.15
-4.22
-2.54
-1.43
-0.89
-0.72
-0.58
-0.18
0.61
1.71
2.82
3.57
3.60
2.76
1.21
-0.57
-1.95
-2.36
-1.55
0.34
2.82
5.30
7.26
8.42
8.79
8.56
7.96
7.14
6.10
4.65
2.46
-0.81
-5.31
-10.79
-16.54
-21.54
-24.73
-25.42
-23.49
-19.47
-14.28
-8.96
-4.34
-0.91
1.21
2.14
2.12
1.40
0.27
-1.01
-2.17
-3.01
-3.38
-3.25
-2.68
-1.88
-1.09
-0.53
-0.34
-0.50
-0.88
-1.26
-1.46
-1.42
-1.17
-0.87
-0.67
-0.69
-0.91
-1.22
-1.47
-1.55
-1.46
-1.28
-1.13
-1.08
-1.09
-1.06
-0.85
-0.39
0.28
1.05
1.73
2.24
2.52
2.62
2.64
2.60
2.55
2.44
2.26
1.97
1.58
1.13
0.73
0.47
0.45
0.68
1.12
1.65
2.10
2.33
2.25
1.88
1.32
0.70
0.15
-0.25
-0.46
-0.48
-0.33
-0.07
0.24
0.54
0.81
1.09
1.45
1.96
2.60
3.27
3.78
3.92
3.55
2.65
1.34
-0.19
-1.76
-3.18
-4.31
-5.05
-5.36
-5.28
-4.92
-4.43
-3.95
-3.52
-3.13
-2.78
-2.53
-2.53
-2.96
-3.85
-5.11
-6.45
-7.51
-8.06
-8.06
-7.71
-7.30
-7.12
-7.31
-7.77
-8.28
-8.56
-8.42
-7.80
-6.74
-5.28
-3.41
-1.04
1.90
5.34
9.07
12.71
15.88
18.33
19.99
20.92
21.23
21.01
20.28
19.07
17.43
15.47
13.34
11.16
9.01
6.93
4.93
3.03
1.25
-0.37
-1.81
-3.15
-4.45
-5.78
-7.08
-8.09
-8.39
-7.55
-5.39
-2.14
1.52
4.65
6.39
6.30
4.49
1.53
-1.78
-4.73
-6.88
-8.07
-8.32
-7.78
-6.66
-5.18
-3.63
-2.28
-1.32
-0.77
-0.53
-0.36
-0.09
0.36
0.87
1.21
1.22
0.82
0.16
-0.52
-0.99
-1.15
-1.03
-0.77
-0.54
-0.41
-0.33
-0.23
-0.05
0.14
0.23
0.09
-0.32
-0.88
-1.37
-1.53
-1.23
-0.51
0.40
1.22
1.72
1.85
1.70
1.43
1.17
0.95
0.73
0.46
0.15
-0.14
-0.36
-0.48
-0.52
-0.58
-0.70
-0.91
-1.17
-1.46
-1.79
-2.22
-2.73
-3.27
-3.66
-3.74
-3.46
-2.88
-2.23
-1.75
-1.57
-1.69
-1.98
-2.24
-2.32
-2.17
-1.88
-1.58
-1.43
-1.50
-1.83
-2.36
-2.98
-3.54
-3.95
-4.18
-4.28
-4.35
-4.53
-4.86
-5.34
-5.88
-6.35
-6.62
-6.63
-6.38
-5.94
-5.50
-5.25
-5.37
-5.92
-6.67
-7.16
-6.71
-4.66
-0.64
5.19
12.09
18.88
24.24
27.14
27.07
24.17
19.09
12.81
6.35
0.62
-3.65
-5.95
-6.04
-4.02
-0.36
4.11
8.38
11.56
13.12
12.94
11.33
8.78
5.80
2.77
-0.05
-2.52
-4.50
-5.87
-6.52
-6.45
-5.78
-4.68
-3.37
-2.01
-0.68
0.54
1.59
2.39
2.86
2.96
2.74
2.28
1.71
1.12
0.58
0.11
-0.29
-0.62
-0.90
-1.19
-1.52
-1.95
-2.44
-2.92
-3.29
-3.49
-3.48
-3.29
-2.99
-2.64
-2.30
-2.04
-1.87
-1.77
-1.69
-1.59
-1.44
-1.29
-1.21
-1.30
-1.58
-1.96
-2.36
-2.68
-2.94
-3.23
-3.72
-4.52
-5.60
-6.82
-7.89
-8.54
-8.54
-7.81
-6.49
-4.86
-3.29
-2.10
-1.44
-1.22
-1.18
-1.00
-0.42
0.69
2.34
4.48
7.03
9.94
13.02
15.95
18.25
19.40
19.00
