1596735393.00
64.000000
-0.00
-0.00
-0.00
-0.00
-0.00
-0.00
-0.00
-0.00
-0.00
-0.00
0.00
0.01
0.01
-0.00
-0.03
-0.05
-0.05
0.00
0.13
0.36
0.66
1.01
1.37
1.72
2.06
2.40
2.79
3.24
3.80
4.42
5.06
5.66
6.20
6.68
7.15
7.68
8.31
9.14
10.09
11.04
11.88
12.56
13.14
13.76
14.65
15.96
17.91
20.32
22.90
25.38
27.58
29.57
31.68
34.32
37.81
42.54
48.15
54.10
59.83
64.97
69.58
74.14
79.34
85.71
93.76
103.00
112.62
121.73
129.77
136.75
143.30
150.75
157.77
166.64
177.95
191.79
206.97
220.57
228.25
225.36
208.53
176.87
132.76
80.05
23.07
-34.94
-92.44
-149.16
-205.23
-260.37
-313.74
-363.87
-409.83
-450.91
-486.50
-515.74
-537.23
-549.22
-549.96
-538.37
-514.21
-478.67
-433.88
-382.45
-327.02
-269.84
-212.63
-156.66
-102.95
-52.37
-5.90
35.58
71.43
101.35
125.50
144.38
158.69
169.15
176.37
180.75
182.57
182.07
179.51
175.23
169.65
163.18
156.15
148.81
141.30
133.69
126.02
118.33
110.69
103.16
95.81
88.69
81.83
75.25
68.95
62.94
57.24
51.86
46.80
42.06
37.62
33.46
29.56
25.93
22.58
19.52
16.76
14.30
12.13
10.20
8.48
6.94
5.58
4.40
3.40
2.60
1.97
1.46
1.04
0.63
0.20
-0.24
-0.66
-1.00
-1.21
-1.30
-1.32
-1.37
-1.57
-1.96
-2.49
-3.06
-3.51
-3.72
-3.70
-3.58
-3.57
-3.90
-4.66
-5.76
-6.95
-7.94
-8.49
-8.57
-8.39
-8.34
-8.77
-9.86
-11.50
-13.33
-14.93
-16.00
-16.46
-16.53
-16.52
-16.76
-17.52
-19.06
-21.60
-25.11
-28.97
-31.76
-31.57
-26.78
-16.98
-3.47
11.00
23.37
31.44
34.72
34.27
31.86
29.04
26.47
24.15
21.89
19.70
17.81
16.44
15.51
14.84
14.43
14.60
15.91
18.97
24.03
30.79
38.44
45.62
50.61
51.64
47.44
38.00
24.96
11.28
0.24
-5.81
-6.59
-3.47
1.32
5.79
8.96
10.71
11.21
10.41
8.00
3.89
-1.39
-6.65
-10.48
-11.95
-11.05
-8.61
-5.88
-3.88
-2.90
-2.24
-0.48
3.83
11.20
20.56
29.23
33.78
31.51
21.75
6.38
-10.85
-25.91
-35.97
-40.36
-40.33
-38.01
-35.32
-33.26
-31.79
-30.37
-28.47
-25.95
-22.95
-19.85
-16.96
-14.56
-13.03
-13.01
-15.36
-20.97
-30.20
-42.35
-55.59
-67.30
-74.94
-76.84
-72.69
-63.35
-50.57
-36.34
-22.50
-10.56
-1.46
4.54
7.43
7.71
6.39
4.76
4.19
5.93
10.86
19.14
29.98
41.73
52.48
60.78
66.28
69.83
72.96
76.85
81.65
86.26
88.90
88.05
83.09
74.32
62.53
48.49
32.64
15.39
-2.56
-19.90
-34.85
-45.83
-52.23
-54.92
-56.01
-57.96
-62.34
-68.98
-76.04
-80.91
-81.61
-77.81
-71.07
-64.05
-59.28
-58.15
-60.45
-64.78
-69.21
-72.12
-72.63
-70.64
-66.54
-60.94
-54.44
-47.53
-40.64
-34.12
-28.37
-23.70
-20.39
-18.57
-18.13
-18.62
-19.18
-18.67
-15.90
-10.07
-1.08
10.22
22.22
32.93
40.55
43.91
42.70
37.40
29.09
19.07
8.64
-1.07
-9.17
-15.00
-18.21
-18.79
-17.09
-13.93
-10.48
-8.03
-7.74
-10.23
-15.40
-22.39
-29.94
-36.78
-42.09
-45.66
-47.88
-49.47
-51.15
-53.25
-55.33
-55.95
-52.67
-42.48
-22.66
8.08
48.86
96.46
145.91
191.81
229.62
256.64
272.23
277.38
273.96
264.03
249.52
232.13
213.40
194.69
177.02
160.94
146.45
133.13
120.44
108.09
96.14
85.01
75.24
67.15
60.68
55.34
50.44
45.36
39.76
33.69
27.52
21.68
16.46
11.79
7.28
2.38
-3.38
-10.15
-17.70
-25.51
-32.90
-39.29
-44.30
-47.90
-50.34
-52.07
-53.68
-55.70
-58.48
-62.01
-65.82
-68.99
-70.38
-68.98
-64.34
-56.85
-47.60
-38.05
-29.51
-22.68
-17.62
-13.86
-10.83
-8.18
-5.81
-3.88
-2.52
-1.71
-1.28
-0.98
-0.64
-0.21
0.14
0.22
-0.02
-0.44
-0.76
-0.76
-0.42
-0.08
-0.24
-1.31
-3.39
-6.19
-9.21
-11.93
-14.14
-15.88
-17.43
-19.04
-20.89
-22.95
-25.14
-27.29
-29.36
-31.43
-33.69
-36.44
-39.94
-44.29
-49.30
-54.48
-59.07
-62.18
-63.02
-61.10
-56.40
-49.38
-40.91
-32.03
-23.67
-16.48
-10.64
-5.97
-2.13
1.18
4.01
6.21
7.61
8.20
8.23
8.13
8.33
9.02
10.05
11.05
11.64
11.70
11.34
10.82
10.29
9.70
8.77
7.27
5.14
2.63
0.14
-1.97
-3.56
-4.84
-6.16
-7.88
-10.20
-13.12
-16.50
-20.12
-23.70
-27.01
-29.87
-32.29
-34.57
-37.22
-40.74
-45.24
-50.19
-54.42
-56.45
-55.12
-50.06
-41.90
-32.02
-21.99
-13.06
-5.82
-0.25
4.07
7.58
10.54
13.00
14.83
15.96
16.45
16.57
16.68
17.12
18.02
19.22
20.33
20.91
20.67
19.62
18.01
16.25
14.65
13.31
12.11
10.86
9.34
7.46
5.20
2.55
-0.55
-4.17
-8.30
-12.77
-17.18
-21.11
-24.20
-26.42
-28.15
-30.11
-33.06
-37.46
-43.06
-48.85
-53.31
-54.86
-52.52
-46.28
-37.13
-26.66
-16.49
-7.74
-0.81
4.50
8.66
12.03
14.72
16.69
17.92
18.66
19.29
20.26
21.73
23.54
25.25
26.34
26.57
26.01
24.99
23.91
23.00
22.20
21.22
19.71
17.43
14.39
10.87
7.28
3.97
1.08
-1.57
-4.30
-7.37
-10.82
-14.39
-17.72
-20.51
-22.77
-24.80
-27.05
-29.96
-33.74
-38.35
-43.43
-48.31
-52.04
-53.50
-51.76
-46.39
-37.79
-27.10
-15.91
-5.73
2.46
8.40
12.47
15.29
17.43
19.18
20.60
21.67
22.40
22.93
23.43
24.00
24.57
24.96
24.94
24.50
23.77
23.05
22.57
22.33
22.04
21.31
19.83
17.57
14.75
11.73
8.81
6.13
3.63
1.18
-1.37
-4.09
-6.98
-9.97
-12.98
-15.89
-18.61
-21.20
-23.83
-26.89
-30.77
-35.67
-41.41
-47.28
-52.20
-54.91
-54.43
-50.31
-42.87
-33.09
-22.34
-11.98
-2.95
4.33
9.97
14.33
17.75
20.35
22.06
22.81
22.65
21.89
21.02
20.54
20.70
21.44
22.41
23.11
23.15
22.37
20.89
18.97
16.91
14.86
12.82
10.69
8.34
5.77
3.05
0.31
-2.36
-4.98
-7.62
-10.36
-13.19
-16.02
-18.78
-21.49
-24.32
-27.62
-31.69
-36.54
-41.74
-46.37
-49.19
-49.07
-45.38
-38.26
-28.66
-18.00
-7.74
1.07
8.01
13.20
17.07
20.02
22.28
23.87
24.74
24.94
24.72
24.44
24.48
24.98
25.82
26.60
26.88
26.39
25.13
23.36
21.41
19.52
17.77
16.07
14.34
12.51
10.57
8.49
6.15
3.44
0.29
-3.21
-6.79
-10.18
-13.24
-16.02
-18.80
-21.89
-25.54
-29.84
-34.73
-39.93
-44.86
-48.62
-50.13
-48.45
-43.13
-34.53
-23.78
-12.42
-1.93
6.76
13.39
18.23
21.66
24.02
25.43
25.95
25.77
25.20
24.64
24.39
24.57
25.06
25.65
26.16
26.52
26.76
26.87
26.76
26.23
25.15
23.49
21.41
19.15
16.87
14.57
12.04
9.10
5.66
1.86
-2.00
-5.68
-9.04
-12.15
-15.19
-18.30
-21.57
-25.10
-29.00
-33.40
-38.25
-43.17
-47.35
-49.66
-49.09
-45.07
-37.81
-28.23
-17.69
-7.52
1.30
8.31
13.50
17.09
19.34
20.51
20.87
20.72
20.42
20.31
20.58
21.27
22.22
23.19
23.92
24.21
23.90
22.90
21.19
18.88
16.22
13.53
11.08
9.00
7.15
5.28
3.08
0.41
-2.69
-6.01
-9.28
-12.29
-15.00
-17.52
-20.08
-22.96
-26.44
-30.65
-35.52
-40.61
-45.15
-48.12
-48.48
-45.54
-39.18
-29.97
-19.06
-7.85
2.38
10.80
17.13
21.60
24.65
26.64
27.77
28.04
27.54
26.53
25.45
24.84
24.99
25.75
26.63
26.98
26.31
24.57
22.13
19.64
17.57
16.07
14.87
13.45
11.33
8.29
4.49
0.37
-3.59
-7.08
-10.08
-12.74
-15.34
-18.11
-21.20
-24.78
-29.01
-33.99
-39.53
-45.06
-49.57
-51.82
-50.79
-45.98
-37.72
-27.04
-15.40
-4.26
5.30
12.81
18.29
22.16
24.89
26.82
28.08
28.68
28.68
28.29
27.87
27.77
28.12
28.77
29.37
29.52
28.96
27.68
25.82
23.61
21.23
18.80
16.37
13.98
11.65
9.36
7.00
4.40
1.46
-1.82
-5.25
-8.57
-11.55
-14.08
-16.33
-18.67
-21.54
-25.32
-30.09
-35.56
-41.04
-45.59
-48.15
-47.83
-44.08
-36.93
-27.06
-15.68
-4.22
6.04
14.25
20.15
23.95
26.11
27.09
27.24
26.87
26.24
25.70
25.50
25.70
26.15
26.56
26.73
26.62
26.33
25.99
25.58
24.94
23.90
22.36
20.41
18.26
16.07
13.83
11.40
8.60
5.35
1.79
-1.79
-5.14
-8.15
-10.89
-13.54
-16.30
-19.32
-22.69
-26.52
-30.99
-36.18
-41.87
-47.34
-51.37
-52.62
-50.06
-43.54
-33.85
-22.48
-11.09
-1.00
7.18
13.46
18.16
21.68
24.23
25.86
26.61
26.63
26.20
25.73
25.58
25.94
26.74
27.61
28.06
27.68
26.32
24.16
21.66
19.33
17.45
15.99
14.59
12.76
10.14
6.68
2.67
-1.37
-5.00
-8.00
-10.44
-12.65
-15.00
-17.73
-20.95
-24.71
-29.03
-33.95
-39.32
-44.59
-48.74
-50.51
-48.80
-43.22
-34.28
-23.29
-11.91
-1.60
6.83
13.22
17.88
21.27
23.76
25.49
26.53
26.92
26.81
26.44
26.08
25.96
26.10
26.34
26.46
26.29
25.81
25.18
24.57
24.03
23.45
22.54
21.03
18.78
15.86
12.53
9.04
5.62
2.41
-0.56
-3.25
-5.66
-7.81
-9.82
-11.81
-14.00
-16.56
-19.68
-23.47
-27.88
-32.57
-36.81
-39.58
-39.72
-36.31
-29.06
-18.43
-5.66
7.68
20.02
30.31
38.17
43.93
48.30
52.04
55.69
59.45
63.28
66.98
70.39
73.27
75.36
76.37
76.33
75.81
76.05
78.55
84.30
93.01
102.78
110.51
113.05
108.33
96.19
78.17
56.82
34.55
12.98
-7.16
-25.74
-42.72
-58.04
-71.60
-83.53
-94.14
-103.84
-112.80
-120.83
-127.52
-132.47
-135.61
-137.28
-138.01
-138.15
-137.64
-135.96
-132.38
-126.38
-117.99
-107.83
-96.94
-86.47
-77.23
-69.55
-63.26
-57.86
-52.73
-47.36
-41.48
-35.05
-28.19
-20.95
-13.23
-4.74
4.88
15.82
28.00
41.00
54.18
66.92
78.75
89.40
98.73
106.50
112.34
115.72
116.12
113.26
107.18
98.44
87.94
76.77
65.96
56.17
47.54
39.69
31.94
23.60
14.20
3.66
-7.67
-19.07
-29.39
-37.27
-41.32
-40.58
-34.93
-25.24
-13.26
-1.05
9.67
17.99
23.88
27.93
30.84
33.08
34.78
35.84
36.26
36.24
36.21
36.58
37.53
38.79
39.73
39.61
37.87
34.35
29.39
23.64
17.80
12.39
7.59
3.34
-0.59
-4.34
-7.92
-11.22
-14.13
-16.64
-18.92
-21.27
-24.10
-27.75
-32.46
-38.31
-45.20
-52.88
-60.83
-68.17
-73.70
-76.05
-74.10
-67.39
-56.41
-42.58
-27.83
-14.08
-2.67
5.87
11.65
15.18
17.00
17.49
16.86
15.18
12.56
9.20
5.47
1.81
-1.34
-3.72
-5.34
-6.45
-7.47
-8.79
-10.60
-12.87
-15.43
-18.11
-20.82
-23.57
-26.40
-29.33
-32.31
-35.30
-38.29
-41.31
-44.38
-47.56
-50.90
-54.44
-58.22
-62.21
-66.44
-70.93
-75.88
-81.63
-88.43
-96.16
-104.06
-110.67
-114.17
-113.03
-106.53
-95.16
-80.40
-64.23
-48.60
-34.96
-24.09
-16.08
-10.57
-6.82
-3.90
-0.85
3.12
8.45
15.07
22.45
29.77
36.09
40.70
43.33
44.19
43.98
43.51
43.51
44.24
45.48
46.59
46.87
45.86
43.42
39.77
35.29
30.40
25.42
20.61
16.20
12.38
9.25
6.68
4.32
1.61
-2.05
-7.07
-13.38
-20.36
-26.83
-31.30
-32.44
-29.45
-22.42
-12.33
-0.78
10.60
20.59
28.68
34.96
39.77
43.37
45.75
46.74
46.33
44.83
42.88
41.27
40.53
40.70
41.40
41.96
41.87
40.95
39.36
37.47
35.54
33.62
31.42
28.62
24.96
20.48
15.49
10.50
6.02
2.32
-0.67
-3.32
-6.16
-9.66
-14.06
-19.33
-25.20
-31.19
-36.66
-40.82
-42.79
-41.79
-37.43
-29.96
-20.31
-9.88
-0.11
8.02
14.15
18.52
21.65
23.99
25.69
26.70
26.91
26.43
25.64
25.06
25.06
25.69
26.61
27.24
27.13
26.16
24.56
22.79
21.17
19.72
18.12
16.03
13.16
9.60
5.69
1.86
-1.58
-4.54
-7.20
-9.94
-13.24
-17.51
-22.92
-29.26
-35.84
-41.60
-45.31
-45.95
-43.07
-36.90
-28.34
-18.63
-9.02
-0.39
6.83
12.64
17.18
20.64
23.07
24.52
25.12
25.12
24.90
24.83
25.17
26.01
27.22
28.55
29.69
30.34
30.32
29.62
28.40
26.88
25.19
23.33
21.09
18.24
14.66
10.51
6.18
2.14
-1.28
-4.04
-6.44
-8.95
-12.10
-16.35
-21.91
-28.62
-35.88
-42.58
-47.31
-48.75
-46.08
-39.32
-29.45
-18.04
-6.76
3.11
11.07
17.21
21.99
25.84
28.87
30.99
32.09
32.26
31.90
31.55
31.70
32.51
33.72
34.80
35.20
34.62
33.20
31.31
29.46
27.96
26.78
25.55
23.78
21.07
17.39
13.11
8.87
5.29
2.67
0.90
-0.55
-2.38
-5.15
-9.16
-14.31
-20.21
-26.24
-31.71
-35.84
-37.94
-37.48
-34.24
-28.49
-20.89
-12.36
-3.87
3.77
10.00
14.50
17.06
17.53
15.76
11.66
5.38
-2.58
-11.23
-19.19
-24.97
-27.57
-26.86
-23.65
-19.30
-14.86
-10.50
-5.46
1.40
10.67
21.75
32.85
41.70
46.50
46.63
42.69
36.01
28.03
19.79
11.87
4.55
-1.99
-7.75
-12.95
-18.11
-23.87
-30.63
-38.11
-45.20
-50.11
-51.05
-46.98
-38.16
-26.11
-13.10
-1.20
8.47
16.08
22.75
29.91
38.43
48.29
58.52
67.48
73.44
75.16
72.60
67.60
64.12
67.65
83.71
115.59
162.39
218.34
273.94
318.77
344.67
348.19
330.92
297.98
255.60
208.73
160.04
110.07
57.98
2.31
-58.73
-126.72
-201.91
-281.75
-359.94
-426.99
-472.84
-490.50
-478.81
-442.90
-391.99
-335.79
-281.66
-233.65
-193.34
-161.44
-138.61
-125.11
-119.91
-120.25
-122.31
-122.60
-119.50
-113.66
-107.49
-103.94
-105.03
-110.87
-119.49
-127.21
-129.93
-124.41
-109.33
-85.62
-55.79
-22.98
9.88
40.30
66.21
85.94
98.53
104.38
105.66
106.07
109.58
118.72
133.30
150.37
165.49
174.64
175.80
169.20
156.57
139.68
119.59
96.58
71.10
44.71
20.24
0.89
-11.42
-17.65
-22.06
-31.01
-50.54
-83.42
-127.14
-173.98
-213.09
-233.95
-229.72
-199.19
-147.01
-82.18
-15.59
42.68
85.48
109.91
117.56
113.51
104.63
97.42
96.24
102.48
114.80
130.06
144.58
154.93
158.36
153.11
138.76
116.52
89.17
60.53
34.39
13.53
-0.99
-10.01
-15.56
-20.06
-25.40
-32.33
-40.37
-48.13
-53.94
-56.56
-55.75
-52.48
-48.70
-46.74
-48.37
-53.97
-61.97
-69.16
-71.68
-66.51
-52.71
-31.81
-7.19
17.25
38.28
54.05
64.16
69.24
70.50
69.38
67.38
65.68
64.62
63.41
60.36
53.81
43.26
30.06
17.09
7.56
3.45
4.79
10.22
18.15
27.91
39.78
54.04
69.83
84.79
95.90
101.07
100.45
96.44
92.35
90.65
91.71
93.86
94.55
92.05
86.40
79.32
73.08
69.20
67.70
67.23
65.78
61.78
54.85
46.05
37.41
31.12
28.57
29.80
33.35
36.70
37.01
31.94
20.31
2.54
-19.35
-42.22
-62.58
-77.38
-84.56
-83.28
-73.86
-57.73
-37.15
-14.96
5.94
23.14
35.47
43.26
48.28
52.97
59.31
67.98
77.97
87.03
92.63
92.94
87.35
76.28
60.68
41.41
19.16
-5.28
-30.56
-54.54
-74.71
-88.93
-96.22
-97.00
-92.72
-85.18
-75.91
-66.02
-56.33
-47.77
-41.33
-37.77
-37.11
-38.38
-39.71
-38.96
-34.49
-25.69
-13.11
1.88
17.63
32.76
46.37
57.93
67.07
73.34
76.16
74.96
69.36
59.31
45.16
27.69
8.13
-11.91
-30.60
-46.24
-57.57
-63.93
-65.23
-61.68
-53.62
-41.44
-25.78
-7.80
10.79
27.96
41.83
51.14
55.41
54.92
50.40
42.76
32.98
22.10
11.14
1.00
-7.78
-15.20
-21.71
-27.98
-34.42
-40.95
-46.92
-51.40
-53.62
-53.34
-50.97
-47.29
-43.23
-39.47
-36.40
-34.07
-32.40
-31.31
-30.73
-30.69
-31.14
-32.00
-33.11
-34.22
-35.14
-35.75
-36.03
-35.98
-35.65
-35.02
-34.05
-32.68
-30.81
-28.33
-25.08
-20.86
-15.53
-9.04
-1.58
6.47
14.57
22.09
28.42
33.09
35.73
36.17
34.41
30.60
25.05
18.17
10.41
2.22
-6.03
-13.96
-21.19
-27.25
-31.59
-33.65
-33.12
-30.15
-25.39
-19.91
-14.78
-10.72
-7.83
-5.70
-3.72
-1.41
1.21
3.82
5.94
7.26
7.83
7.98
8.12
8.53
9.27
10.18
11.05
11.76
12.30
12.75
13.10
13.22
12.80
11.53
9.25
6.15
2.79
0.01
-1.43
-1.11
0.86
3.82
6.85
9.12
10.09
9.58
7.62
4.27
-0.44
-6.40
-13.34
-20.65
-27.40
-32.56
-35.16
-34.56
-30.54
-23.36
-13.69
-2.51
9.02
19.66
28.28
34.03
36.49
35.83
32.67
27.96
22.68
17.59
13.10
9.35
6.38
4.17
2.76
2.10
1.95
1.91
1.58
0.70
-0.74
-2.52
-4.35
-6.00
-7.43
-8.70
-9.95
-11.33
-12.92
-14.76
-16.85
-19.19
-21.71
-24.33
-26.94
-29.40
-31.56
-33.38
-34.96
-36.59
-38.80
-42.09
-46.70
-52.19
-57.34
-60.36
-59.45
-53.56
-42.93
-29.18
-14.77
-2.29
6.32
10.20
9.55
5.47
-0.51
-6.68
-11.54
-13.96
-13.49
-10.29
-5.03
1.34
7.93
14.02
19.09
22.72
24.59
24.48
22.46
18.97
14.78
10.80
7.80
6.19
5.99
6.94
8.64
10.73
12.90
14.75
15.83
15.59
13.59
9.70
4.22
-2.17
-8.66
-14.57
-19.58
-23.75
-27.43
-31.14
-35.29
-40.08
-45.41
-50.94
-56.12
-60.46
-63.57
-65.19
-64.94
-62.18
-55.95
-45.30
-29.71
-9.60
13.41
36.96
58.48
76.11
89.08
97.79
103.29
106.67
108.71
109.59
109.23
107.51
104.55
100.80
96.95
93.76
91.86
91.75
93.70
97.70
103.14
108.56
111.65
109.65
100.25
82.48
57.31
27.27
-4.44
-35.12
-63.25
-88.35
-110.44
-129.21
-144.01
-154.10
-159.40
-160.63
-159.13
-155.99
-151.41
-144.66
-134.63
-120.81
-103.84
-85.55
-68.27
-53.88
-43.11
-35.48
-29.76
-24.62
-19.22
-13.29
-7.00
-0.61
5.76
12.14
18.67
25.38
32.14
38.56
44.08
48.05
49.99
49.77
47.72
44.50
40.83
37.17
33.49
29.44
24.55
18.57
11.64
4.19
-3.26
-10.30
-16.71
-22.46
-27.66
-32.45
-36.99
-41.44
-45.86
-50.25
-54.50
-58.34
-61.50
-63.71
-64.80
-64.73
-63.57
-61.42
-58.28
-54.00
-48.35
-41.19
-32.71
-23.62
-15.15
-8.75
-5.70
-6.61
-11.29
-18.73
-27.47
-35.93
-42.76
-46.92
-47.70
-44.59
-37.31
-25.82
-10.20
9.48
33.41
61.92
95.05
131.84
169.63
204.09
230.01
242.86
240.30
223.04
194.54
159.77
123.60
89.59
59.42
33.17
9.91
-11.65
-32.75
-54.01
-75.04
-93.97
-107.59
-112.13
-104.85
-85.67
-58.12
-28.63
-4.43
9.25
11.44
6.09
0.83
4.00
21.65
55.23
101.36
153.12
202.47
242.62
269.60
282.71
284.15
277.91
268.22
258.28
249.51
241.69
233.89
225.33
215.76
205.19
193.15
178.11
157.79
130.07
94.26
51.70
5.34
-41.20
-84.80
-123.34
-155.52
-180.33
-196.82
-204.48
-203.71
-196.18
-184.58
-172.02
-161.10
-153.35
-148.88
-146.67
-145.22
-143.30
-140.52
-137.33
-134.57
-132.69
-131.10
-128.08
-121.26
-108.51
-88.88
-63.12
-33.54
-3.47
23.75
45.43
60.04
67.23
67.53
62.09
52.34
39.91
26.49
13.76
2.97
-5.41
-12.01
-18.36
-26.20
-36.45
-48.62
-60.76
-70.31
-75.35
-75.50
-71.84
-66.25
-60.25
-54.47
-48.68
-42.33
-35.05
-26.94
-18.35
-9.87
-2.29
3.32
5.81
4.48
-0.26
-7.21
-14.26
-19.39
-21.76
-22.23
-22.58
-24.56
-28.42
-32.73
-35.54
-34.88
-29.34
-18.53
-3.20
15.24
34.80
53.55
69.73
80.72
84.78
81.81
73.38
62.13
51.31
43.36
39.86
40.90
42.19
40.07
34.18
27.53
24.12
27.21
35.88
46.79
55.21
50.57
26.86
-13.85
-63.77
-115.46
-163.70
-208.99
-251.07
-286.84
-321.06
-355.02
-384.89
-405.84
-418.36
-426.39
-440.14
-465.94
-505.16
-568.95
-661.74
-775.41
-891.60
-991.06
-1056.92
-1086.04
-1081.40
-970.63
-733.99
-416.52
-98.85
161.01
328.16
438.48
519.96
588.92
653.15
702.43
724.91
717.56
685.85
636.82
579.02
514.29
446.94
383.34
319.51
253.18
188.14
132.08
90.15
64.68
49.99
41.39
36.98
30.69
19.68
6.25
-4.22
-7.55
-0.94
13.39
33.27
57.07
80.19
99.37
114.93
130.49
150.30
177.51
210.63
245.43
276.30
297.07
304.48
299.52
286.30
269.33
251.54
233.00
212.55
189.40
164.03
138.08
113.36
90.79
70.05
50.21
30.77
12.21
-4.24
-17.58
-27.73
-35.92
-44.02
-53.46
-64.30
-75.08
-83.47
-87.37
-85.73
-78.88
-68.27
-55.77
-43.20
-31.99
-23.03
-16.64
-12.55
-10.06
-8.27
-6.45
-4.34
-2.34
-1.22
-1.72
-4.01
-7.34
-10.30
-11.42
-9.93
-6.22
-1.63
2.12
3.90
3.60
2.21
1.20
1.73
4.16
7.96
12.12
15.63
17.92
18.96
19.10
18.85
18.61
18.51
18.39
17.93
16.80
14.74
11.56
7.21
1.93
-3.59
-8.28
-10.94
-10.81
-8.02
-3.71
0.49
3.28
4.57
5.55
8.10
13.91
23.96
38.57
57.73
81.20
108.01
135.73
160.31
176.66
180.21
168.41
141.68
103.21
57.94
11.17
-32.26
-68.24
-93.46
-105.69
-104.68
-93.02
-76.23
-61.50
-55.08
-59.74
-73.31
-89.61
-101.26
-103.35
-95.75
-83.04
-71.84
-67.18
-69.82
-75.81
-78.64
-72.27
-53.66
-23.61
14.17
54.77
93.47
126.27
149.73
160.82
157.21
138.08
104.94
61.78
14.24
-31.87
-71.77
-102.26
-121.30
-127.60
-120.68
-101.92
-75.35
-47.50
-25.51
-14.53
-15.82
-26.97
-43.88
-63.30
-84.00
-105.78
-127.37
-144.82
-151.97
-142.67
-113.70
-66.68
-8.16
52.21
104.37
140.59
157.19
155.01
138.42
113.31
84.95
56.53
29.20
3.27
-20.16
-38.28
-47.19
-43.75
-27.73
-3.13
22.33
39.67
42.31
28.83
3.99
-23.17
-43.41
-51.32
-47.41
-36.99
-26.80
-21.16
-20.24
-20.91
-19.29
-13.01
-1.82
13.51
32.50
55.38
82.03
110.59
136.68
154.04
156.53
140.58
106.70
59.67
7.21
-42.19
-81.29
-105.33
-112.58
-104.47
-85.40
-62.07
-41.82
-30.37
-29.57
-36.62
-45.32
-49.03
-43.89
-30.63
-13.87
0.38
7.78
7.53
2.47
-2.31
-1.36
9.52
32.03
64.70
102.83
139.18
165.72
175.80
166.13
137.46
93.95
41.52
-13.97
-67.55
-114.90
-151.45
-172.00
-171.59
-147.71
-102.71
-44.89
12.88
56.92
77.38
71.55
44.37
5.98
-32.15
-60.80
-74.61
-71.91
-53.73
-22.79
16.97
60.69
103.22
139.80
166.96
182.79
186.76
179.31
161.34
134.06
98.75
56.63
8.72
-43.91
-99.28
-153.32
-199.37
-229.03
-234.80
-213.50
-168.77
-111.14
-55.09
-14.26
2.99
-4.10
-29.45
-63.13
-95.01
-117.42
-125.87
-118.43
-94.78
-55.86
-4.26
55.07
115.04
167.49
205.21
223.90
223.00
205.14
174.45
134.81
88.82
38.01
-16.19
-71.22
-122.74
-164.84
-191.22
-196.99
-180.61
-145.17
-98.28
-50.48
-12.28
8.94
10.85
-3.47
-27.42
-53.42
-75.27
-89.03
-92.52
-84.35
-63.49
-29.90
14.40
64.80
114.58
156.34
184.00
194.25
187.03
165.03
132.48
93.85
53.03
12.80
-25.14
-59.84
-90.43
-115.29
-131.73
-136.42
-126.82
-103.04
-69.13
-32.74
-3.02
12.58
11.03
-5.25
-29.66
-53.99
-71.12
-76.54
-68.44
-46.96
-13.65
28.66
75.71
121.85
160.77
186.75
195.91
186.89
160.87
121.07
72.04
19.03
-32.77
-79.02
-116.78
-144.54
-161.76
-167.98
-162.57
-145.27
-117.38
-82.87
-48.27
-21.13
-7.40
-9.14
-23.66
-44.46
-63.66
-74.38
-72.37
-56.31
-27.35
11.73
56.95
103.55
146.24
179.86
199.98
203.68
190.12
160.60
118.54
68.92
17.50
-30.19
-70.02
-99.78
-119.08
-128.45
-128.37
-118.94
-100.57
-75.08
-46.69
-21.50
-5.74
-3.35
-14.22
-34.12
-56.25
-73.78
-81.73
-77.86
-62.18
-36.07
-1.58
38.65
81.24
122.08
156.53
180.14
189.43
182.61
160.06
124.52
80.74
34.59
-8.32
-43.98
-70.71
-88.71
-98.70
-100.63
-93.31
-75.60
-48.26
-15.34
16.15
38.46
46.10
38.01
17.80
-7.93
-32.20
-49.53
-56.56
-51.53
-33.83
-4.22
34.68
78.07
119.74
153.57
175.16
182.53
175.87
156.59
126.56
87.99
43.74
-2.61
-47.32
-87.39
-121.01
-147.04
-163.92
-169.04
-159.51
-134.23
-96.07
-52.54
-13.95
10.19
14.81
1.10
-24.46
-53.01
-76.60
-89.98
-90.67
-78.08
-52.65
-15.89
29.22
77.82
123.71
160.50
182.94
188.12
175.84
148.42
110.10
66.04
21.37
-19.82
-55.08
-83.72
-106.17
-122.82
-133.18
-135.63
-128.31
-110.63
-84.58
-55.03
-28.49
-11.04
-6.07
-13.07
-27.95
-44.59
-56.71
-59.35
-49.41
-25.89
9.97
54.49
101.77
144.73
176.86
193.85
194.50
180.29
154.21
119.56
79.46
36.86
-5.12
-43.46
-75.88
-101.56
-121.15
-135.79
-145.91
-150.42
-147.35
-135.33
-115.26
-90.93
-68.06
-52.17
-46.34
-50.03
-59.47
-69.37
-75.03
-73.57
-64.08
-46.97
-23.38
5.09
36.23
67.22
94.96
116.65
130.35
135.06
130.61
117.44
96.58
69.75
39.45
8.50
-20.63
-46.45
-68.66
-87.46
-102.58
-112.49
-114.70
-107.05
-89.34
-64.40
-37.79
-16.07
-4.36
-4.34
-13.70
-27.32
-39.38
-45.32
-42.87
-31.80
-13.02
12.27
42.73
76.53
110.91
142.21
166.55
180.71
182.91
173.12
152.92
124.98
92.53
58.77
26.40
-2.79
-28.17
-49.90
-68.19
-82.43
-90.80
-90.94
-81.47
-63.63
-41.85
-22.78
-12.76
-15.24
-29.37
-50.43
-71.87
-87.76
-94.30
-90.03
-75.12
-50.73
-18.75
17.98
55.69
90.10
117.26
134.43
140.56
136.25
123.45
104.81
83.13
60.87
39.71
20.35
2.53
-14.46
-31.11
-47.06
-60.94
-70.71
-74.47
-71.52
-62.88
-51.43
-41.14
-35.77
-37.44
-45.79
-58.08
-70.31
-78.73
-80.98
-76.43
-65.51
-48.94
-27.18
-0.69
29.43
61.00
90.98
116.29
134.69
145.19
147.73
142.58
129.88
109.86
83.47
52.81
20.99
-8.75
-33.99
-53.43
-66.58
-73.00
-72.13
-63.91
-49.92
-33.93
-21.16
-16.39
-21.75
-35.82
-54.28
-72.00
-84.95
-91.12
-89.83
-80.40
-61.34
-31.01
10.66
60.63
112.48
158.04
189.96
204.00
200.00
181.03
151.76
116.67
79.28
42.16
7.41
-23.05
-47.72
-66.01
-78.38
-85.83
-89.07
-87.93
-81.75
-70.53
-56.00
-41.76
-32.01
-29.70
-35.17
-46.30
-59.98
-73.86
-87.13
-99.69
-110.52
-116.50
-112.81
-94.81
-60.52
-12.26
43.55
98.16
143.05
172.03
182.38
174.72
151.99
118.20
77.41
33.31
-10.64
-51.02
-84.51
-108.32
-120.85
-122.03
-113.25
-96.97
-76.38
-55.24
-37.44
-26.16
-22.50
-24.86
-29.11
-30.53
-26.20
-16.67
-5.64
2.39
4.86
3.14
1.97
7.30
23.34
50.71
86.21
124.17
158.33
183.41
195.99
194.70
180.03
153.89
119.06
78.84
36.69
-3.90
-39.77
-68.38
-88.36
-99.74
-103.90
-102.83
-98.37
-91.70
-83.32
-73.47
-62.54
-51.28
-40.46
-30.69
-22.31
-15.62
-11.16
-9.42
-10.14
-11.49
-10.00
-1.62
16.48
43.97
76.99
109.23
134.19
147.46
147.90
137.12
118.02
93.16
63.89
30.60
-6.41
-45.96
-85.79
-122.98
-154.80
-179.12
-194.42
-199.33
-192.69
-174.19
-145.62
-111.51
-78.50
-52.96
-38.29
-33.33
-33.18
-31.98
-26.16
-15.98
-4.46
5.33
12.73
20.15
31.41
49.15
73.10
100.06
125.57
145.79
158.63
163.57
160.75
150.23
131.80
105.37
71.72
32.88
-7.93
-46.91
-80.55
-106.36
-123.25
-131.38
-131.55
-124.74
-112.19
-95.84
-78.81
-65.01
-57.90
-59.01
-66.90
-77.61
-86.39
-89.92
-87.45
-80.53
-71.16
-59.81
-44.64
-22.49
9.00
49.45
95.21
140.29
178.39
204.71
216.96
215.20
201.02
176.70
144.64
107.30
67.38
27.80
-8.57
-39.46
-63.45
-79.90
-88.50
-88.88
-80.81
-64.97
-43.91
-22.44
-6.57
-1.28
-8.29
-24.98
-45.53
-63.52
-74.57
-77.50
-73.61
-64.73
-51.66
-33.99
-11.05
16.96
48.58
81.52
113.33
141.79
164.59
179.04
182.12
171.53
147.00
111.18
69.41
28.12
-7.20
-33.72
-51.60
-62.85
-69.75
-73.69
-75.36
-75.39
-74.85
-74.46
-73.25
-68.02
-54.51
-30.54
0.87
30.66
46.62
39.08
6.53
-42.42
-92.32
-127.74
-139.97
-129.89
-105.50
-76.42
-48.65
-22.78
3.99
33.84
65.30
93.04
110.65
114.29
105.05
88.46
71.93
61.59
60.25
67.29
79.83
94.15
106.89
115.50
118.41
114.97
105.41
90.76
72.78
53.57
35.03
18.05
1.80
-16.42
-40.09
-71.56
-110.08
-150.86
-186.09
-207.24
-208.10
-187.04
-147.56
-97.31
-45.92
-2.73
25.33
34.88
26.66
4.94
-23.81
-52.81
-76.52
-91.33
-95.32
-87.73
-69.10
-42.05
-12.03
13.24
25.97
21.46
0.53
-30.45
-62.02
-85.52
-96.26
-94.21
-82.24
-63.06
-37.23
-3.22
40.34
91.84
145.27
191.12
219.54
224.10
204.34
165.89
118.20
71.15
32.02
4.10
-12.91
-21.36
-23.88
-22.39
-18.07
-12.15
-6.64
-4.56
-9.00
-21.75
-42.00
-66.10
-88.65
-104.65
-111.45
-109.48
-101.40
-89.94
-75.90
-57.38
-30.71
7.10
55.99
111.63
165.94
209.22
233.05
232.76
208.82
166.49
114.20
61.03
14.58
-20.64
-43.41
-54.95
-57.54
-53.09
-42.85
-28.05
-11.02
4.14
12.34
9.56
-4.80
-27.12
-50.84
-69.50
-79.79
-82.62
-81.74
-80.54
-79.17
-73.82
-58.64
-29.27
14.00
65.21
114.34
150.72
166.79
160.40
134.99
97.67
56.44
17.54
-15.70
-42.61
-63.95
-80.46
-92.07
-97.98
-97.58
-91.53
-82.51
-74.79
-72.73
-78.85
-92.30
-109.00
-123.12
-129.69
-126.70
-115.46
-99.12
-80.15
-58.58
-31.88
2.99
46.95
96.99
146.37
186.66
210.73
215.07
200.71
172.47
136.95
100.47
67.44
40.08
18.94
3.95
-4.85
-7.66
-5.95
-3.38
-5.43
-17.06
-39.46
-67.85
-92.28
-101.46
-88.19
-53.20
-5.37
42.02
76.41
90.15
81.93
55.56
17.83
-23.01
-58.05
-78.68
-78.41
-55.41
-14.43
33.73
75.33
98.40
96.69
71.43
29.94
-17.65
-62.05
-97.16
-120.45
-131.80
-131.96
-121.83
-103.11
-79.56
-57.15
-42.35
-38.87
-45.12
-54.17
-56.88
-47.31
-26.62
-3.35
10.87
7.40
-14.45
-46.91
-77.63
-95.35
-94.02
-73.54
-37.52
9.29
62.13
115.53
162.17
193.21
200.78
181.44
138.75
82.93
27.38
-16.18
-41.22
-47.39
-38.65
-20.38
2.42
25.37
43.96
53.32
49.45
31.39
2.51
-30.25
-59.07
-78.99
-89.80
-95.16
-99.60
-105.05
-109.25
-106.72
-91.67
-61.16
-16.85
35.11
85.92
126.66
150.66
155.06
141.21
113.95
79.95
45.58
15.48
-8.00
-24.24
-33.35
-35.54
-31.63
-24.11
-17.67
-17.99
-28.95
-49.74
-73.84
-91.37
-93.85
-78.95
-52.40
-25.78
-11.10
-15.20
-36.98
-68.49
-99.32
-121.07
-129.68
-124.83
-107.58
-78.65
-38.61
10.14
61.71
106.88
135.53
140.67
121.50
84.01
38.65
-3.50
-34.05
-48.41
-45.32
-25.74
7.48
48.86
89.93
120.36
131.08
118.12
84.78
40.64
-2.51
-35.60
-55.70
-65.82
-71.74
-77.78
-84.10
-86.97
-81.18
-62.95
-31.61
10.23
57.74
105.12
146.38
176.13
190.27
187.18
168.57
139.33
106.11
75.17
50.57
33.64
23.73
19.66
20.36
24.49
29.48
31.08
24.69
7.67
-18.50
-48.01
-72.80
-86.44
-87.46
-80.19
-72.31
-70.43
-76.31
-85.63
-89.90
-80.58
-53.09
-8.95
44.68
97.61
140.00
165.10
170.54
158.14
132.43
98.93
62.79
28.08
-2.31
-26.50
-43.47
-53.08
-56.09
-54.29
-50.51
-48.26
-50.93
-60.54
-76.67
-96.03
-113.45
-123.98
-125.25
-118.47
-107.45
-96.08
-85.76
-74.17
-56.52
-28.42
11.22
58.78
106.66
145.87
168.94
172.19
156.30
125.64
86.60
45.67
7.83
-24.05
-48.98
-66.79
-77.01
-78.50
-70.40
-53.90
-33.45
-16.10
-8.83
-15.07
-32.58
-54.25
-71.61
-79.07
-76.37
-67.52
-57.42
-48.30
-38.60
-24.64
-3.68
23.93
54.81
84.54
109.50
127.79
138.55
141.03
134.35
118.17
93.71
64.11
33.73
6.66
-14.47
-28.77
-36.42
-37.72
-32.71
-21.89
-7.34
6.65
14.29
10.40
-7.11
-35.91
-69.75
-100.91
-123.10
-133.30
-131.68
-120.03
-99.82
-71.36
-34.43
10.35
60.23
110.13
153.52
184.07
197.14
190.95
167.05
129.99
86.37
43.05
5.39
-23.71
-43.88
-56.14
-61.52
-60.41
-53.22
-41.75
-30.03
-23.75
-27.84
-43.93
-69.10
-96.96
-120.59
-135.47
-140.81
-138.61
-131.26
-119.44
-101.58
-75.02
-38.02
8.62
60.97
112.61
156.02
184.20
192.33
179.05
147.14
103.10
55.54
12.79
-19.19
-37.89
-43.95
-39.82
-28.67
-14.10
-0.58
6.62
2.76
-13.77
-39.32
-64.95
-79.46
-74.44
-48.75
-9.95
28.43
52.70
54.99
36.45
6.27
-22.61
-38.99
-37.26
-18.56
10.92
42.91
70.02
87.42
93.01
86.75
69.75
43.99
12.51
-20.40
-49.59
-70.36
-79.78
-77.75
-67.13
-53.18
-42.31
-40.23
-49.61
-68.14
-88.29
-99.43
-92.31
-63.98
-20.60
24.05
53.91
57.76
34.29
-7.58
-52.78
-86.21
-97.75
-84.13
-48.16
3.15
60.19
111.91
147.47
158.90
143.82
107.03
59.28
13.61
-19.40
-34.88
-34.19
-23.04
-8.70
2.05
4.02
-5.45
-25.55
-51.18
-73.25
-81.48
-68.57
-33.94
14.83
64.33
100.46
113.79
102.79
73.72
37.32
4.44
-17.35
-25.09
-19.79
-4.90
15.13
35.49
51.42
58.60
54.01
37.14
10.51
-20.67
-49.80
-70.74
-79.43
-74.89
-59.59
-39.13
-21.27
-13.79
-21.41
-43.16
-71.80
-96.29
-106.63
-98.73
-76.44
-49.43
-27.98
-17.55
-16.07
-15.50
-6.16
18.20
57.65
106.25
154.59
193.23
215.41
218.47
203.74
175.76
140.79
105.33
74.92
53.21
41.38
38.23
40.47
43.37
41.49
29.59
4.42
-33.31
-77.45
-116.89
-138.90
-134.42
-103.21
-55.54
-9.06
18.41
16.62
-12.72
-57.17
-99.55
-125.07
-126.17
-103.19
-61.95
-10.45
43.23
91.67
128.28
148.27
149.99
136.20
113.50
90.04
72.44
63.45
61.61
62.66
61.57
54.14
37.87
12.52
-19.20
-51.56
-77.04
-89.05
-85.34
-70.44
-54.97
-51.46
-68.52
-106.38
-156.44
-205.20
-240.27
-255.00
-249.39
-227.55
-193.91
-151.23
-101.25
-46.99
5.63
48.48
74.29
80.26
69.85
51.68
35.87
29.95
36.27
51.60
68.72
78.86
74.53
52.10
13.81
-32.10
-73.38
-98.02
-99.18
-78.54
-46.08
-15.98
-0.44
-4.46
-24.24
-49.68
-69.45
-75.46
-64.76
-38.73
-0.98
44.08
91.56
135.48
169.06
186.15
183.27
161.52
126.59
87.12
51.83
26.94
14.71
13.72
20.05
28.47
33.68
31.03
17.41
-7.80
-42.04
-79.86
-114.26
-138.94
-150.55
-149.76
-140.65
-128.38
-116.46
-104.91
-90.36
-67.94
-34.07
11.12
63.11
114.00
155.04
179.34
183.92
170.26
143.36
109.80
75.61
45.02
20.24
2.00
-9.52
-14.31
-12.54
-5.03
6.00
16.80
22.54
18.76
2.99
-23.74
-56.91
-89.91
-116.53
-133.13
-139.42
-137.45
-129.50
-116.23
-96.15
-66.69
-26.17
24.41
80.61
135.12
179.40
205.94
210.31
192.65
157.64
113.34
68.71
30.89
3.59
-13.28
-22.24
-26.23
-27.22
-26.16
-24.18
-23.82
-28.93
-42.73
-65.45
-92.82
-117.20
-130.78
-129.39
-114.37
-91.38
-66.91
-44.71
-24.46
-3.10
22.32
52.51
85.48
117.78
145.94
167.08
178.81
178.99
166.16
140.66
105.44
65.90
28.48
-1.35
-20.71
-29.76
-31.01
-28.29
-25.81
-27.63
-36.90
-54.83
-79.53
-105.72
-125.88
-132.88
-123.07
-98.17
-65.06
-33.08
-10.22
0.01
-0.53
-6.07
-9.77
-6.60
5.17
23.97
46.16
67.63
84.93
95.91
99.60
95.95
85.55
69.60
50.03
29.47
10.98
-2.57
-9.34
-9.22
-4.49
0.27
-0.75
-12.36
-35.84
-67.26
-97.90
-117.18
-117.03
-95.72
-59.03
-18.08
15.03
31.68
29.37
11.41
-15.25
-42.93
-65.35
-78.60
-81.06
-72.94
-55.79
-32.09
-5.20
20.77
41.24
51.86
49.70
34.53
9.48
-19.57
-45.67
-62.95
-68.21
-61.30
-44.66
-22.80
-1.72
11.98
12.76
-1.35
-26.73
-54.37
-72.80
-72.93
-52.28
-16.40
23.69
56.49
74.75
77.69
69.85
58.20
49.05
46.27
50.89
61.51
74.85
86.50
91.93
87.84
73.45
50.94
24.87
0.54
-17.77
-28.09
-30.91
-28.31
-22.96
-17.48
-14.57
-16.87
-26.33
-42.71
-62.54
-79.24
-85.40
-76.21
-52.37
-20.35
10.60
33.14
45.53
51.96
59.48
73.36
94.02
117.14
136.61
147.92
149.86
143.88
131.99
115.26
93.74
67.66
38.83
10.77
-12.53
-28.52
-37.15
-40.43
-40.85
-39.80
-37.37
-33.24
-27.97
-23.47
-22.12
-25.15
-31.50
-38.10
-41.27
-38.42
-28.93
-13.84
5.26
26.95
49.81
71.63
89.00
97.99
95.75
82.14
60.10
34.59
10.54
-8.84
-22.65
-31.82
-37.97
-42.58
-46.73
-51.34
-57.38
-65.78
-77.21
-91.68
-108.27
-124.82
-137.93
-143.27
-136.68
-115.94
-82.52
-42.12
-3.36
25.30
39.11
39.24
32.23
26.72
29.37
41.97
61.45
82.17
98.83
108.42
110.27
104.72
91.97
71.76
44.17
10.65
-25.60
-60.54
-90.56
-113.45
-128.21
-134.29
-130.91
-117.57
-95.40
-68.27
-42.67
-25.78
-22.60
-33.63
-54.41
-77.06
-93.27
-96.98
-85.64
-60.11
-23.60
19.09
62.24
99.76
126.24
138.34
135.94
122.15
102.09
80.95
62.28
47.47
36.24
27.56
20.27
13.35
5.88
-2.62
-11.72
-19.90
-25.28
-27.09
-26.67
-27.42
-33.34
-46.93
-67.82
-92.75
-116.87
-135.32
-144.29
-141.24
-124.75
-94.61
-52.47
-2.45
48.99
94.21
126.47
141.86
140.44
125.78
103.48
79.08
56.37
36.57
18.73
0.88
-18.51
-39.31
-59.32
-74.74
-81.34
-76.23
-59.39
-34.56
-8.74
9.74
14.08
1.63
-24.88
-58.14
-88.86
-108.80
-112.85
-99.56
-70.29
-28.00
23.51
79.59
134.38
181.08
212.93
225.08
216.10
188.73
149.11
105.02
63.63
29.69
4.68
-12.61
-24.62
-33.17
-38.26
-38.04
-30.33
-14.74
5.63
24.29
33.44
27.21
4.56
-29.66
-66.17
-94.53
-106.81
-99.89
-75.83
-40.17
0.61
41.19
78.31
110.21
135.42
151.76
156.52
147.63
125.17
92.29
54.73
18.95
-10.31
-31.65
-46.95
-59.68
-72.56
-85.95
-97.99
-106.45
-110.79
-113.08
-116.77
-124.27
-134.89
-144.70
-148.54
-143.04
-128.57
-109.08
-89.90
-74.92
-65.14
-58.98
-53.78
-47.47
-39.16
-29.17
-18.66
-9.51
-4.09
-4.71
-12.61
-27.05
-45.44
-64.41
-81.43
-96.03
-109.90
-125.90
-146.77
-174.27
-208.88
-249.81
-294.86
-340.08
-379.89
-408.03
-419.21
-410.89
-384.17
-343.27
-294.04
-242.07
-191.53
-144.73
-102.70
-65.52
-32.87
-3.93
22.68
48.81
76.41
106.84
140.25
175.15
208.50
236.38
255.00
261.85
256.34
239.94
215.67
187.22
158.09
131.05
107.85
89.41
75.97
67.31
62.97
62.15
63.66
65.86
66.88
65.17
60.42
53.98
48.43
46.49
49.42
56.23
64.06
69.76
71.55
69.86
66.81
64.73
64.80
66.50
68.23
68.51
66.90
64.13
61.54
60.17
60.16
60.88
61.41
61.44
61.58
63.42
68.78
78.77
92.93
108.80
122.28
128.51
123.23
103.97
71.01
27.58
-20.64
-66.61
-103.54
-126.46
-133.33
-125.31
-106.10
-80.64
-53.79
-29.31
-9.45
5.00
14.22
18.95
20.17
18.88
16.03
12.36
8.28
3.77
-1.56
-8.18
-16.24
-25.11
-33.31
-38.82
-39.67
-34.73
-24.17
-9.33
7.71
24.99
41.15
55.62
68.37
79.54
89.18
97.28
103.95
109.55
114.64
119.80
125.36
131.33
137.28
142.47
146.09
147.56
146.88
144.74
142.17
139.92
137.91
135.12
129.93
121.02
107.95
91.37
72.57
52.96
33.72
15.89
0.82
-9.84
-14.45
-12.17
-3.44
10.11
26.17
42.32
56.48
67.01
72.68
72.79
67.50
58.16
47.45
39.01
36.39
41.69
54.31
70.40
83.61
86.99
75.35
47.31
5.96
-42.14
-89.36
-129.61
-160.03
-181.07
-195.23
-205.15
-212.19
-216.14
-215.82
-210.27
-199.64
-185.26
-169.06
-152.61
-136.54
-120.52
-103.85
-86.15
-67.84
-50.10
-34.38
-21.74
-12.46
-5.97
-1.16
3.18
7.95
13.43
19.40
25.12
29.73
32.47
32.87
30.89
26.82
21.18
14.58
7.54
0.41
-6.62
-13.55
-20.49
-27.64
-35.13
-42.98
-50.87
-58.00
-63.17
-64.98
-62.34
-54.94
-43.61
-30.22
-17.26
-7.12
-1.41
-0.47
-3.29
-7.72
-11.08
-10.88
-5.55
5.14
20.09
37.35
54.74
70.46
83.34
92.71
98.18
99.47
96.47
89.47
79.24
67.04
54.22
41.87
30.53
20.19
10.44
0.75
-9.24
-19.60
-30.04
-39.91
-48.31
-54.23
-56.82
-55.62
-50.78
-43.06
-33.64
-23.84
-14.71
-6.85
-0.31
5.15
9.84
13.99
17.64
20.78
23.45
25.80
27.99
30.06
31.86
33.10
33.44
32.76
31.19
29.11
27.00
25.25
24.06
23.40
23.05
22.67
21.87
20.28
17.60
13.69
8.62
2.78
-3.11
-8.12
-11.25
-11.75
-9.35
-4.35
2.50
10.32
18.33
26.03
33.09
39.40
44.86
49.44
53.23
56.43
59.33
62.22
65.36
68.82
72.46
75.86
78.40
79.46
78.68
76.18
72.47
68.23
63.86
59.31
54.10
47.61
39.48
29.75
18.79
7.06
-5.06
-17.16
-28.67
-38.72
-46.22
-50.20
-50.20
-46.47
-40.00
-32.13
-24.18
-17.01
-10.97
-5.98
-1.83
1.63
4.34
6.22
7.26
7.67
7.78
7.89
8.10
8.24
8.05
7.32
6.04
4.36
2.53
0.72
-0.95
-2.37
-3.47
-4.19
-4.53
-4.57
-4.43
-4.14
-3.66
-2.98
-2.21
-1.61
-1.49
-1.92
-2.58
-2.80
-1.84
0.74
4.87
10.01
15.42
20.49
24.91
28.67
31.87
34.60
36.83
38.51
39.62
40.21
40.39
40.33
40.13
39.82
39.29
38.33
36.68
34.14
30.65
26.35
21.59
16.80
12.32
8.27
4.50
0.69
-3.43
-8.01
-12.95
-18.07
-23.18
-28.19
-32.99
-37.37
-40.92
-43.08
-43.36
-41.53
-37.76
-32.54
-26.56
-20.45
-14.71
-9.66
-5.49
-2.37
-0.38
0.49
0.41
-0.26
-1.02
-1.36
-0.97
0.17
1.76
3.36
4.54
5.06
4.92
4.28
3.34
2.24
1.05
-0.19
-1.45
-2.78
-4.24
-6.02
-8.31
-11.20
-14.59
-18.13
-21.24
-23.25
-23.59
-21.93
-18.39
-13.45
-7.88
-2.46
2.26
6.05
8.96
11.12
12.61
13.43
13.56
13.05
12.11
11.05
10.18
9.71
9.64
9.79
9.85
9.55
8.69
7.23
5.25
2.93
0.42
-2.18
-4.79
-7.38
-9.90
-12.31
-14.62
-16.93
-19.36
-21.98
-24.71
-27.18
-28.88
-29.21
-27.74
-24.32
-19.13
-12.63
-5.47
1.71
8.37
14.11
18.74
22.21
24.68
26.38
27.64
28.72
29.77
30.79
31.63
32.16
32.26
31.93
31.17
29.97
28.26
25.90
22.82
19.03
14.75
10.32
6.12
2.43
-0.70
-3.49
-6.32
-9.62
-13.62
-18.27
-23.23
-27.96
-31.83
-34.32
-35.06
-33.94
-31.06
-26.79
-21.61
-16.09
-10.74
-5.99
-2.15
0.60
2.17
2.63
2.21
1.25
0.15
-0.79
-1.46
-1.89
-2.24
-2.69
-3.38
-4.36
-5.65
-7.23
-9.01
-10.90
-12.76
-14.45
-15.83
-16.86
-17.58
-18.14
-18.81
-19.86
-21.53
-23.91
-26.83
-29.85
-32.31
-33.51
-32.91
-30.28
-25.81
-20.03
-13.69
-7.48
-1.97
2.50
5.80
7.93
8.99
9.17
8.71
7.91
7.05
6.37
5.93
5.71
5.53
5.16
4.37
3.04
1.17
-1.11
-3.53
-5.85
-7.89
-9.64
-11.26
-13.02
-15.21
-18.05
-21.57
-25.63
-29.90
-33.89
-37.07
-38.95
-39.19
-37.66
-34.51
-30.11
-25.01
-19.80
-14.99
-10.95
-7.91
-5.94
-5.02
-4.93
-5.24
-5.28
-4.35
-1.88
2.22
7.58
13.38
18.67
22.69
25.02
25.71
25.07
23.58
21.70
19.79
18.11
16.77
15.67
14.58
13.13
10.88
7.45
2.72
-3.08
-9.28
-14.87
-18.77
-20.22
-19.03
-15.67
-11.00
-6.01
-1.40
2.48
5.64
8.24
10.39
12.15
13.46
14.28
14.63
14.61
14.35
13.99
13.64
13.29
12.87
12.22
11.20
9.77
7.99
6.05
4.13
2.34
0.69
-0.87
-2.41
-3.91
-5.35
-6.74
-8.18
-9.88
-12.09
-14.96
-18.43
-22.08
-25.26
-27.16
-27.13
-24.86
-20.53
-14.80
-8.60
-2.83
1.91
5.40
7.76
9.24
10.09
10.42
10.31
9.86
9.29
8.86
8.80
9.20
9.92
10.70
11.24
11.33
10.90
9.98
8.62
6.89
4.88
2.67
0.41
-1.76
-3.76
-5.62
-7.52
-9.71
-12.38
-15.57
-19.12
-22.63
-25.57
-27.34
-27.48
-25.74
-22.20
-17.30
-11.72
-6.22
-1.46
2.13
4.41
5.46
5.52
4.84
3.68
2.27
0.81
-0.55
-1.74
-2.74
-3.61
-4.44
-5.37
-6.55
-8.14
-10.24
-12.81
-15.75
-18.83
-21.84
-24.75
-27.62
-30.70
-34.21
-38.35
-43.20
-48.73
-54.77
-61.00
-66.90
-71.87
-75.35
-77.00
-76.92
-75.54
-73.50
-71.47
-69.89
-69.02
-68.96
-69.71
-71.22
-73.29
-75.59
-77.71
-79.35
-80.44
-81.09
-81.35
-80.96
-79.27
-75.42
-68.76
-59.13
-46.98
-33.03
-17.93
-1.83
15.62
35.03
56.83
80.82
105.93
130.34
151.81
168.29
178.49
182.28
180.82
176.35
171.65
169.32
170.93
176.24
182.95
187.15
184.63
172.58
151.07
123.52
95.81
74.34
63.60
64.52
74.11
86.64
95.78
96.81
88.06
70.98
49.24
27.03
7.58
-7.72
-19.30
-28.60
-37.11
-45.57
-53.77
-60.71
-64.98
-65.22
-60.47
-50.56
-36.48
-20.64
-6.78
0.82
-1.15
-13.50
-33.72
-56.54
-75.79
-86.89
-88.80
-84.39
-79.19
-78.89
-86.94
-103.05
-123.15
-140.62
-148.25
-140.38
-114.58
-72.28
-18.36
40.40
97.38
147.93
190.15
224.42
252.30
275.20
293.61
307.00
314.29
314.42
306.76
291.27
268.40
239.03
204.21
164.89
121.79
75.15
24.94
-28.49
-83.77
-138.04
-187.21
-226.90
-253.73
-266.51
-266.58
-257.43
-243.57
-229.31
-217.82
-210.79
-208.49
-210.02
-213.58
-216.55
-215.74
-207.79
-189.91
-160.67
-120.61
-72.42
-20.55
29.75
73.60
107.66
130.85
144.31
150.93
154.32
157.85
163.73
172.62
183.54
194.45
203.12
208.01
208.87
206.58
202.49
197.57
191.99
185.15
176.39
165.60
153.57
141.66
131.10
122.26
114.47
106.23
95.92
82.37
65.18
44.77
22.22
-1.01
-23.28
-43.10
-59.37
-71.65
-80.21
-85.91
-89.80
-92.82
-95.42
-97.60
-99.12
-99.82
-99.98
-100.36
-101.98
-105.72
-111.86
-119.79
-128.03
-134.51
-137.20
-134.72
-126.83
-114.59
-100.06
-85.69
-73.60
-65.09
-60.58
-59.77
-62.08
-66.75
-72.92
-79.51
-85.32
-89.34
-91.28
-91.72
-92.05
-93.81
-98.05
-104.76
-112.98
-121.24
-128.33
-133.80
-138.09
-142.24
-147.55
-155.26
-166.38
-181.44
-200.17
-221.06
-241.13
-256.21
-261.99
-255.38
-235.67
-204.89
-166.99
-126.36
-86.11
-47.20
-8.75
30.69
71.58
112.62
151.05
183.78
208.45
223.79
229.18
224.31
209.15
184.82
154.72
124.93
103.00
95.22
103.68
124.81
150.50
171.42
180.89
177.15
163.00
143.31
122.04
100.64
78.53
54.91
30.53
8.14
-9.00
-19.42
-25.06
-31.23
-44.93
-72.08
-114.83
-170.11
-229.58
-281.51
-313.89
-317.90
-290.72
-236.39
-164.53
-87.36
-16.41
39.84
76.84
93.49
91.37
73.92
46.00
13.46
-17.79
-42.83
-58.82
-65.50
-64.97
-61.04
-58.40
-61.35
-72.56
-91.68
-114.62
-134.19
-142.50
-134.13
-108.61
-70.87
-29.10
8.59
37.30
56.38
68.37
76.64
83.51
89.53
94.19
96.93
97.63
96.39
92.82
85.86
74.23
57.52
37.02
15.94
-1.42
-11.10
-11.01
-1.83
13.23
29.58
42.85
50.19
50.83
45.79
37.02
26.57
16.21
7.21
0.52
-3.28
-3.97
-1.78
2.68
8.63
15.31
22.06
28.16
32.87
35.36
35.09
32.01
26.67
20.02
13.17
7.26
3.39
2.66
5.78
12.67
22.15
31.95
39.47
42.79
41.50
36.82
30.80
25.14
20.29
15.42
9.17
0.73
-9.57
-20.57
-31.29
-41.85
-53.85
-69.58
-90.71
-116.91
-145.38
-171.61
-190.95
-200.46
-199.79
-191.10
-177.72
-162.69
-147.62
-132.67
-117.28
-101.23
-85.31
-71.00
-59.71
-51.96
-47.17
-44.08
-41.52
-38.98
-36.52
-34.38
-32.33
-29.42
-24.31
-15.81
-3.63
11.38
27.37
42.11
53.67
61.04
64.34
64.72
63.79
63.01
63.14
64.17
65.65
67.25
69.22
72.32
77.47
85.08
94.66
104.92
114.19
121.26
125.89
128.89
131.71
135.85
142.33
151.30
162.07
173.21
182.79
188.75
189.27
183.25
170.79
153.51
134.26
116.33
102.39
93.62
89.42
88.00
87.30
85.92
83.46
80.20
76.36
71.37
63.78
51.63
33.37
8.77
-20.74
-52.21
-81.88
-106.12
-122.33
-129.47
-128.04
-119.61
-106.11
-89.16
-69.78
-48.54
-25.89
-2.49
20.75
42.76
62.60
79.61
93.45
104.05
111.49
115.95
117.66
117.03
114.51
110.55
105.33
98.63
89.80
78.10
63.09
45.08
25.29
5.63
-11.71
-24.85
-32.62
-34.70
-31.62
-24.54
-15.25
-5.90
1.25
4.33
2.39
-4.40
-14.87
-27.36
-40.29
-52.62
-63.88
-74.09
-83.58
-92.91
-102.79
-113.99
-126.96
-141.49
-156.50
-170.16
-180.47
-185.85
-185.67
-180.29
-170.81
-158.60
-144.90
-130.73
-116.80
-103.73
-91.96
-81.77
-73.21
-65.98
-59.58
-53.32
-46.51
-38.65
-29.59
-19.57
-9.14
1.00
10.20
18.02
24.31
29.26
33.33
37.15
41.35
46.32
51.92
57.43
61.68
63.45
61.93
56.97
49.06
39.09
28.09
17.04
6.89
-1.37
-6.82
-8.71
-6.77
-1.36
6.54
15.63
24.61
32.58
39.13
44.30
48.41
51.76
54.55
56.79
58.38
59.22
59.35
58.96
58.44
58.39
59.42
62.06
66.45
72.14
78.13
83.06
85.65
85.06
81.18
74.54
66.10
56.96
48.08
40.10
33.27
27.50
22.38
17.35
11.90
5.84
-0.68
-7.18
-13.07
-17.90
-21.43
-23.68
-24.89
-25.46
-25.98
-27.13
-29.65
-34.21
-41.29
-51.08
-63.43
-77.93
-94.00
-111.07
-128.68
-146.51
-164.26
-181.52
-197.69
-212.01
-223.82
-232.80
-239.07
-243.08
-245.20
-245.43
-243.18
-237.48
-227.40
-212.44
-192.79
-169.31
-143.29
-116.11
-89.06
-63.12
-39.02
-17.21
2.06
18.74
33.06
45.47
56.61
67.14
77.60
88.34
99.55
111.34
123.77
136.77
150.03
162.96
174.81
184.90
192.75
198.04
200.58
200.18
196.78
190.56
182.00
171.81
160.67
149.00
137.02
125.04
113.66
103.88
96.62
92.25
90.09
88.57
85.73
79.98
70.64
57.89
42.49
25.31
7.11
-11.41
-29.37
-45.77
-59.56
-70.10
-77.39
-82.15
-85.47
-88.37
-91.47
-94.85
-98.25
-101.33
-103.91
-106.05
-107.98
-110.05
-112.42
-114.95
-117.03
-117.56
-115.27
-109.04
-98.42
-83.82
-66.55
-48.35
-30.89
-15.36
-2.29
8.33
16.76
23.26
28.01
31.15
32.95
33.78
34.09
34.26
34.50
34.78
34.94
34.79
34.19
33.16
31.78
30.20
28.51
26.72
24.76
22.54
20.01
17.16
14.10
10.89
7.55
3.92
-0.26
-5.25
-11.16
-17.65
-24.00
-29.12
-31.88
-31.48
-27.63
-20.74
-11.71
-1.63
8.48
17.88
26.14
33.06
38.50
42.43
44.83
45.86
45.84
45.15
44.20
43.25
42.40
41.57
40.67
39.62
38.44
37.21
35.99
34.67
33.05
30.89
28.10
24.82
21.37
18.14
15.31
12.85
10.48
7.91
4.89
1.29
-2.96
-7.91
-13.50
-19.38
-24.80
-28.68
-29.93
-27.86
-22.55
-14.83
-5.93
2.89
10.80
17.49
22.99
27.42
30.82
33.15
34.35
34.54
34.00
33.12
32.20
31.41
30.72
29.97
29.03
27.85
26.46
25.01
23.58
22.18
20.71
18.97
16.79
14.06
10.81
7.22
3.52
-0.04
-3.33
-6.34
-9.23
-12.28
-15.81
-20.02
-24.88
-29.94
-34.35
-37.04
-36.98
-33.56
-26.84
-17.57
-7.01
3.44
12.62
19.93
25.29
29.08
31.84
34.05
36.00
37.85
39.72
41.78
44.19
47.04
50.15
53.12
55.44
56.78
57.21
57.15
57.22
57.92
59.35
61.35
63.53
65.68
67.82
70.15
72.89
76.09
79.65
83.46
87.59
92.31
97.89
104.37
111.34
117.95
123.11
125.80
125.29
121.26
113.68
102.82
89.23
73.80
57.63
41.89
27.35
14.22
2.04
-10.00
-22.61
-35.92
-49.24
-61.13
-69.80
-73.59
-71.47
-63.32
-49.89
-32.58
-13.01
7.30
27.14
45.72
62.59
77.51
90.42
101.34
110.31
117.13
121.16
121.25
115.93
103.92
84.51
57.87
24.78
-13.70
-56.48
-102.29
-149.24
-194.39
-233.74
-263.00
-278.69
-279.46
-266.59
-243.72
-215.59
-186.61
-159.70
-136.02
-115.51
-97.63
-82.03
-68.56
-56.86
-45.96
-34.41
-20.85
-4.80
12.83
30.01
44.48
54.75
60.61
62.99
63.29
62.60
61.40
59.66
57.22
54.14
50.72
47.26
43.76
39.79
34.53
27.16
17.33
5.55
-6.81
-17.80
-25.59
-29.11
-28.40
-24.55
-19.29
-14.24
-10.48
-8.38
-7.84
-8.66
-10.85
-14.65
-20.29
-27.77
-36.64
-46.09
-55.27
-63.65
-71.29
-78.94
-87.72
-98.74
-112.52
-128.74
-146.39
-164.11
-180.62
-194.95
-206.50
-214.92
-220.28
-223.08
-224.26
-224.90
-225.66
-226.33
-225.81
-222.70
-216.06
-206.08
-194.01
-181.46
-169.61
-158.58
-147.50
-135.05
-120.01
-101.71
-79.98
-55.04
-27.38
2.26
32.86
63.22
92.11
118.58
142.10
162.63
180.44
195.90
209.35
221.03
231.20
240.26
248.74
257.19
265.83
274.34
281.75
286.62
287.54
283.66
275.03
262.63
247.99
232.67
217.64
203.07
188.37
172.56
154.69
134.08
110.51
84.13
55.43
25.29
-5.12
-34.36
-61.02
-84.21
-103.76
-120.33
-135.11
-149.38
-164.00
-179.28
-194.92
-210.25
-224.38
-236.28
-244.85
-249.04
-247.94
-241.10
-228.66
-211.35
-190.37
-166.99
-142.17
-116.43
-89.89
-62.58
-34.84
-7.52
18.17
41.08
60.62
77.06
91.42
104.96
118.59
132.46
145.94
158.06
167.95
175.35
180.73
185.26
190.45
197.71
207.78
220.25
233.37
244.14
249.01
244.86
229.90
204.16
169.30
127.81
82.19
34.23
-14.94
-64.46
-113.16
-159.20
-200.22
-233.73
-257.69
-270.97
-273.55
-266.52
-251.78
-231.67
-208.54
-184.32
-160.38
-137.51
-116.17
-96.73
-79.59
-65.11
-53.39
-44.17
-36.95
-31.30
-27.19
-25.08
-25.65
-29.32
-35.68
-43.35
-50.25
-54.27
-53.99
-49.11
-40.42
-29.31
-17.20
-5.02
6.85
18.43
29.81
40.88
51.31
60.61
68.40
74.51
79.02
82.26
84.56
86.25
87.47
88.20
88.33
87.79
86.70
85.37
84.22
83.62
83.69
84.31
85.20
86.06
86.85
87.74
89.08
91.12
93.91
97.10
99.99
101.68
101.27
98.15
92.12
83.63
73.84
64.53
57.81
55.53
58.76
67.36
80.02
94.55
108.50
119.48
125.37
124.41
115.16
96.83
69.60
34.84
-5.06
-47.13
-88.53
-126.98
-160.79
-188.65
-209.40
-222.11
-226.40
-222.90
-213.30
-200.08
-185.79
-172.36
-160.72
-150.82
-141.90
-133.04
-123.52
-112.94
-101.22
-88.54
-75.20
-61.62
-48.38
-36.24
-25.95
-18.10
-12.78
-9.45
-7.02
-4.15
0.31
6.97
15.73
25.97
36.77
47.15
56.32
63.70
69.03
72.37
74.08
74.70
74.66
74.07
72.63
69.80
65.15
58.73
51.09
43.18
35.98
30.18
26.07
23.67
22.91
23.72
25.96
29.28
33.05
36.47
38.75
39.44
38.44
35.93
32.15
27.18
21.06
13.89
6.19
-1.09
-6.75
-9.76
-9.60
-6.45
-0.99
5.84
13.18
20.33
26.81
32.35
36.88
40.64
43.99
47.30
50.61
53.57
55.52
55.77
53.92
50.02
44.47
37.75
30.26
22.34
14.37
6.93
0.71
-3.74
-6.30
-7.40
-7.93
-8.86
-10.98
-14.68
-20.04
-26.89
-34.99
-44.11
-53.96
-64.23
-74.58
-84.68
-94.30
-103.25
-111.32
-118.27
-123.81
-127.75
-130.07
-130.97
-130.80
-129.99
-129.00
-128.30
-128.36
-129.59
-132.11
-135.57
-139.09
-141.55
-142.06
-140.48
-137.68
-135.29
-135.04
-137.97
-143.95
-151.57
-158.67
-163.05
-163.13
-158.26
-148.67
-135.06
-118.30
-99.24
-78.71
-57.67
-37.15
-18.15
-1.35
13.08
25.53
36.78
47.64
58.78
70.66
83.58
97.82
113.70
131.43
150.93
171.61
192.44
212.09
229.25
242.91
252.54
257.89
258.90
255.47
247.49
235.04
218.54
198.74
176.52
152.61
127.36
100.87
73.15
44.44
15.27
-13.66
-41.59
-67.85
-91.84
-113.05
-131.04
-145.55
-156.59
-164.34
-169.06
-170.89
-169.89
-166.26
-160.55
-153.74
-146.92
-140.79
-135.26
-129.35
-121.62
-110.79
-96.32
-78.64
-58.96
-38.77
-19.38
-1.63
14.17
27.97
39.79
49.52
56.92
61.76
63.98
63.89
62.16
59.69
57.41
55.94
55.43
55.59
55.86
55.68
54.76
53.07
50.88
48.43
45.89
43.22
40.25
36.76
32.64
27.93
22.76
17.27
11.50
5.47
-0.72
-6.70
-11.74
-14.91
-15.38
-12.76
-7.32
0.06
8.26
16.28
23.56
30.03
35.84
41.10
45.66
49.14
51.14
51.45
50.28
48.14
45.74
43.70
42.30
41.48
40.88
40.06
38.68
36.64
34.03
31.06
27.90
24.66
21.37
17.96
14.38
10.60
6.56
2.14
-2.79
-8.37
-14.55
-20.93
-26.73
-30.89
-32.43
-30.84
-26.29
-19.61
-11.88
-4.03
3.48
10.62
17.53
24.19
30.30
35.31
38.83
40.75
41.36
41.12
40.46
39.61
38.60
37.41
36.07
34.69
33.42
32.35
31.45
30.54
29.34
27.65
25.37
22.56
19.44
16.26
13.24
10.44
7.80
5.14
2.21
-1.26
-5.41
-10.22
-15.35
-20.02
-23.23
-23.95
-21.49
-15.84
-7.62
2.09
12.21
22.00
31.17
39.76
47.87
55.42
62.17
67.85
72.36
75.90
78.95
82.01
85.44
89.31
93.45
97.70
101.98
106.37
111.05
116.15
121.64
127.37
133.15
138.89
144.60
150.39
156.30
162.20
167.76
172.66
176.71
180.06
183.14
186.30
189.42
191.48
190.64
184.75
172.10
152.14
125.72
94.77
61.62
28.35
-3.65
-33.60
-61.22
-86.54
-109.91
-132.03
-153.80
-175.92
-198.26
-219.63
-237.94
-250.93
-257.11
-256.26
-249.48
-238.45
-224.59
-208.44
-189.69
-167.85
-143.04
-116.50
-90.55
-68.02
-51.32
-41.78
-39.28
-42.43
-49.03
-56.79
-63.94
-69.52
-73.48
-76.34
-78.62
-80.30
-80.47
-77.64
-70.39
-58.17
-41.80
-23.28
-5.12
10.59
22.71
31.04
35.84
37.13
34.53
27.52
16.01
0.80
-16.50
-34.02
-50.48
-65.62
-80.30
-95.98
-114.01
-135.04
-158.75
-183.90
-208.60
-230.71
-248.20
-259.34
-262.94
-258.39
-245.62
-225.20
-198.13
-165.86
-130.06
-92.32
-53.90
-15.55
22.42
59.79
96.16
130.68
162.30
190.06
213.61
233.39
250.47
266.02
280.73
294.38
305.83
313.35
315.25
310.52
299.13
282.00
260.65
236.57
210.85
184.13
156.74
129.12
102.03
76.43
53.14
32.47
14.03
-3.05
-19.68
-36.32
-52.80
-68.43
-82.43
-94.28
-103.78
-111.00
-115.84
-117.94
-116.74
-111.96
-103.99
-94.08
-84.01
-75.54
-69.88
-67.38
-67.73
-70.34
-74.66
-80.31
-86.83
-93.52
-99.32
-103.04
-103.71
-100.90
-94.83
-86.18
-75.90
-64.90
-53.91
-43.47
-33.99
-25.72
-18.89
-13.61
-9.92
-7.68
-6.62
-6.39
-6.63
-7.15
-7.98
-9.36
-11.62
-14.94
-19.20
-23.87
-28.09
-30.85
-31.26
-28.77
-23.36
-15.52
-6.13
3.80
13.34
21.86
29.08
34.96
39.57
42.96
45.14
46.10
45.93
44.84
43.17
41.31
39.53
37.94
36.45
34.90
33.11
31.04
28.76
26.40
24.07
21.77
19.42
16.90
14.09
11.04
7.82
4.52
1.17
-2.33
-6.20
-10.59
-15.43
-20.28
-24.30
-26.49
-26.07
-22.71
-16.78
-9.19
-1.07
6.60
13.27
18.81
23.38
27.19
30.32
32.69
34.18
34.73
34.47
33.70
32.77
32.00
31.54
31.33
31.24
31.07
30.70
30.09
29.28
28.31
27.26
26.20
25.18
24.29
23.57
23.00
22.47
21.78
20.70
18.99
16.53
13.40
10.00
7.09
5.69
6.77
10.97
18.29
28.12
39.46
51.33
63.04
74.29
84.88
94.45
102.25
107.21
108.33
105.08
97.58
86.60
73.16
58.20
42.40
26.18
9.95
-5.69
-20.01
-32.32
-42.26
-50.02
-56.26
-61.89
-67.62
-73.78
-80.23
-86.53
-92.14
-96.52
-99.26
-100.04
-98.70
-95.37
-90.45
-84.61
-78.40
-72.05
-65.26
-57.29
-47.40
-35.18
-20.94
-5.71
8.98
21.51
30.51
35.21
35.50
32.01
26.04
19.32
13.81
11.14
12.28
17.09
24.40
32.32
38.92
42.85
43.79
42.42
39.97
37.68
36.21
35.55
35.18
34.47
33.02
30.76
27.85
24.46
20.48
15.47
8.80
-0.08
-11.41
-24.84
-39.44
-53.84
-66.56
-76.46
-83.04
-86.62
-88.24
-89.37
-91.41
-95.43
-101.96
-111.17
-123.06
-137.69
-155.16
-175.33
-197.57
-220.51
-242.16
-260.18
-272.35
-276.88
-272.69
-259.47
-237.75
-208.86
-174.84
-138.17
-101.34
-66.31
-34.15
-4.99
21.58
46.04
68.49
88.63
106.05
120.50
132.20
141.61
149.12
154.78
158.29
159.25
157.52
153.35
147.34
140.13
132.13
123.38
113.70
102.90
91.01
78.37
65.48
52.93
41.23
30.77
21.78
14.36
8.46
3.91
0.46
-2.15
-4.07
-5.31
-5.72
-5.14
-3.48
-0.87
2.33
5.71
8.86
11.52
13.51
14.63
14.54
12.87
9.26
3.62
-3.77
-12.14
-20.35
-27.05
-30.99
-31.32
-27.87
-21.21
-12.47
-3.05
5.83
13.40
19.47
24.23
28.04
31.09
33.38
34.76
35.11
34.51
33.29
31.91
30.78
30.09
29.74
29.43
28.81
27.69
26.02
23.90
21.43
18.64
15.55
12.19
8.64
5.07
1.63
-1.61
-4.68
-7.75
-11.04
-14.74
-18.84
-23.04
-26.71
-28.99
-29.13
-26.79
-22.20
-16.13
-9.56
-3.29
2.31
7.28
11.79
15.91
19.45
22.07
23.52
23.86
23.40
22.60
21.79
21.11
20.46
19.73
18.86
17.87
16.85
15.77
14.56
13.01
11.01
8.56
5.82
3.05
0.46
-1.86
-4.05
-6.38
-9.21
-12.85
-17.40
-22.64
-27.96
-32.42
-34.98
-34.81
-31.59
-25.66
-17.86
-9.22
-0.62
7.42
14.66
20.96
26.12
29.91
32.21
33.21
33.40
33.34
33.45
33.77
34.04
33.93
33.22
31.98
30.53
29.22
28.29
27.74
27.35
26.76
25.64
23.81
21.34
18.53
15.86
13.71
12.25
11.31
10.48
9.30
7.48
5.03
2.33
-0.00
-1.29
-0.94
1.39
5.79
12.05
19.85
28.79
38.66
49.41
61.20
74.19
88.33
103.03
116.93
128.07
134.12
133.12
124.10
107.48
84.99
58.99
31.70
4.65
-21.36
-45.63
-66.90
-83.00
-91.36
-90.10
-79.19
-60.97
-39.65
-19.85
-5.13
3.06
5.33
3.45
-0.77
-6.24
-12.62
-19.89
-27.79
-35.68
-42.76
-48.57
-53.24
-57.11
-60.26
-62.02
-61.03
-55.88
-45.92
-31.80
-15.43
0.73
14.53
24.67
30.81
33.19
32.26
28.41
22.11
14.10
5.36
-3.12
-10.74
-17.47
-23.89
-30.75
-38.66
-47.86
-58.20
-69.45
-81.48
-94.45
-108.77
-124.85
-142.88
-162.58
-183.20
-203.60
-222.45
-238.43
-250.45
-257.70
-259.68
-256.30
-247.92
-235.41
-219.94
-202.68
-184.26
-164.46
-142.26
-116.32
-85.78
-50.81
-12.81
26.09
63.72
98.46
129.38
155.94
177.70
194.10
204.80
210.05
210.92
209.10
206.33
203.77
201.64
199.22
195.30
188.75
178.97
166.08
150.89
134.61
118.52
103.57
90.23
78.41
67.60
57.11
46.39
35.09
23.18
10.87
-1.53
-13.59
-24.95
-35.22
-44.08
-51.14
-55.94
-58.05
-57.24
-53.54
-47.38
-39.43
-30.43
-21.05
-11.79
-3.08
4.69
11.12
15.85
18.75
19.93
19.74
18.61
16.85
14.57
11.74
8.27
4.22
-0.12
-4.18
-7.28
-8.95
-9.09
-8.15
-6.88
-6.12
-6.33
-7.50
-9.17
-10.81
-12.09
-13.06
-14.13
-15.77
-18.34
-21.92
-26.33
-31.22
-36.11
-40.40
-43.37
-44.27
-42.43
-37.60
-30.01
-20.46
-10.08
-0.05
8.78
15.99
21.60
25.88
29.14
31.59
33.30
34.33
34.80
34.88
34.73
34.34
33.60
32.32
30.42
28.04
25.51
23.22
21.34
19.73
17.94
15.48
12.06
7.82
3.23
-1.10
-4.71
-7.54
-9.86
-12.19
-15.00
-18.53
-22.70
-27.10
-31.11
-33.99
-35.05
-33.80
-30.10
-24.17
-16.57
-8.02
0.78
9.30
17.15
24.04
29.71
33.93
36.65
38.06
38.58
38.72
38.89
39.28
39.80
40.19
40.09
39.19
37.25
34.13
29.85
24.58
18.62
12.42
6.42
1.08
-3.31
-6.63
-8.99
-10.71
-12.30
-14.32
-17.22
-21.19
-26.02
-31.11
-35.57
-38.42
-38.89
-36.63
-31.83
-25.12
-17.44
-9.75
-2.75
3.19
8.02
11.87
14.85
17.01
18.31
18.78
18.53
17.85
17.06
16.45
16.20
16.32
16.70
17.20
17.65
17.93
17.94
17.61
16.87
15.73
14.25
12.59
10.90
9.37
8.11
7.16
6.45
5.79
4.93
3.59
1.66
-0.73
-3.04
-4.46
-3.99
-0.81
5.55
15.02
26.95
40.30
53.82
66.36
76.98
85.13
90.55
93.27
93.44
91.37
87.56
82.76
77.89
73.87
71.19
69.74
68.75
67.10
63.73
58.09
50.28
40.81
30.20
18.52
5.34
-10.04
-28.14
-48.83
-71.16
-93.46
-113.66
-129.77
-140.22
-144.17
-141.65
-133.59
-121.60
-107.51
-92.96
-78.87
-65.42
-52.23
-38.92
-25.47
-12.33
-0.32
9.86
17.84
23.72
27.82
30.55
32.16
32.82
32.64
31.82
30.77
29.97
29.82
30.43
31.50
32.35
32.17
30.39
26.98
22.46
17.67
13.27
9.55
6.26
2.87
-1.16
-6.09
-11.93
-18.41
-25.18
-31.88
-38.27
-44.35
-50.44
-57.25
-65.63
-76.32
-89.47
-104.37
-119.44
-132.62
-142.04
-146.63
-146.45
-142.65
-136.99
-131.19
-126.43
-123.21
-121.50
-121.10
-121.92
-123.98
-127.24
-131.39
-135.73
-139.35
-141.27
-140.77
-137.51
-131.58
-123.45
-113.73
-103.00
-91.54
-79.24
-65.62
-50.18
-32.86
-14.25
4.37
21.54
36.19
48.09
57.91
66.80
75.73
85.04
94.26
102.50
109.05
113.83
117.55
121.30
125.84
131.23
136.79
141.60
145.09
147.40
149.16
150.82
152.11
151.93
148.84
141.88
131.09
117.54
102.82
88.36
74.95
62.76
51.61
41.32
31.86
23.28
15.67
9.01
3.19
-2.02
-6.94
-11.98
-17.47
-23.52
-29.86
-35.94
-41.16
-45.10
-47.77
-49.48
-50.72
-51.91
-53.32
-55.13
-57.41
-60.13
-62.93
-65.04
-65.38
-62.87
-56.86
-47.39
-35.18
-21.39
-7.23
6.31
18.48
28.79
36.89
42.56
45.85
47.10
46.91
45.98
44.90
44.05
43.47
42.99
42.32
41.21
39.58
37.52
35.26
33.05
31.05
29.20
27.30
25.06
22.22
18.71
14.64
10.26
5.87
1.71
-2.10
-5.62
-9.02
-12.54
-16.36
-20.62
-25.29
-30.18
-34.90
-38.81
-41.16
-41.25
-38.69
-33.52
-26.34
-18.03
-9.50
-1.38
6.01
12.66
18.62
23.80
27.96
30.84
32.31
32.49
31.67
30.25
28.56
26.80
25.10
23.52
22.11
20.88
19.83
18.83
17.73
16.35
14.58
12.34
9.70
6.82
3.89
1.08
-1.53
-3.95
-6.29
-8.75
-11.57
-14.95
-19.01
-23.65
-28.48
-32.78
-35.66
-36.29
-34.19
-29.45
-22.64
-14.65
-6.36
1.65
9.06
15.76
21.63
26.48
30.04
32.17
32.88
32.47
31.38
30.06
28.80
27.65
26.50
25.14
23.43
21.43
19.32
17.32
15.60
14.12
12.69
11.02
8.87
6.15
2.94
-0.53
-4.01
-7.26
-10.23
-12.98
-15.68
-18.58
-21.92
-25.86
-30.49
-35.64
-40.82
-45.24
-47.86
-47.77
-44.50
-38.24
-29.79
-20.36
-11.11
-2.83
4.20
10.07
15.01
19.13
22.35
24.52
25.52
25.45
24.57
23.34
22.15
21.25
20.69
20.30
19.81
19.03
17.92
16.61
15.29
14.09
12.98
11.77
10.22
8.14
5.52
2.50
-0.64
-3.59
-6.18
-8.39
-10.35
-12.29
-14.49
-17.16
-20.45
-24.37
-28.84
-33.61
-38.18
-41.80
-43.55
-42.61
-38.63
-31.85
-23.17
-13.77
-4.73
3.32
10.29
16.34
21.66
26.19
29.69
31.95
32.97
33.05
32.68
32.32
32.22
32.44
32.87
33.41
34.01
34.69
35.50
36.40
37.33
38.11
38.62
38.79
38.68
38.47
38.37
38.53
38.96
39.51
39.97
40.13
39.89
39.33
38.67
38.24
38.43
39.53
41.64
44.50
47.54
49.97
51.08
50.46
48.11
44.27
39.09
32.42
23.85
12.99
0.04
-13.93
-27.05
-37.20
-42.71
-43.04
-38.79
-31.46
-22.72
-13.92
-5.82
1.32
7.39
12.22
15.47
16.83
16.20
13.80
10.06
5.43
0.15
-5.83
-12.83
-21.24
-31.24
-42.59
-54.59
-66.22
-76.51
-84.90
-91.51
-97.15
-102.98
-110.16
-119.32
-130.22
-141.66
-151.60
-157.65
-157.65
-150.28
-135.53
-114.77
-90.54
-65.92
-43.86
-26.46
-14.34
-6.45
-0.33
7.00
17.91
33.00
50.84
68.42
82.46
90.73
92.80
89.86
83.79
76.19
67.75
58.44
48.02
36.64
24.91
13.55
2.84
-7.65
-18.93
-32.04
-47.45
-64.71
-82.49
-99.19
-113.60
-125.57
-136.08
-146.95
-160.08
-176.61
-196.29
-217.24
-236.31
-249.94
-255.13
-250.47
-236.36
-214.63
-187.63
-157.24
-124.37
-89.18
-51.75
-12.78
26.10
62.72
95.14
122.40
144.77
163.32
179.27
193.15
204.66
212.93
217.10
216.79
212.20
203.86
192.29
177.87
160.87
141.73
121.28
100.74
81.52
64.85
51.57
41.94
35.56
31.36
27.69
22.50
13.89
0.63
-17.30
-38.58
-60.82
-81.13
-96.89
-106.25
-108.50
-104.18
-94.72
-82.05
-67.99
-53.86
-40.26
-27.24
-14.64
-2.42
9.15
19.60
28.50
35.65
41.15
45.26
48.19
49.99
50.60
49.96
48.22
45.77
43.13
40.73
38.72
36.86
34.60
31.33
26.73
20.98
14.73
8.89
4.24
1.11
-0.81
-2.27
-4.20
-7.32
-11.92
-17.77
-24.18
-30.18
-34.73
-36.93
-36.28
-32.83
-27.11
-20.00
-12.39
-4.97
1.93
8.21
13.86
18.88
23.16
26.56
28.99
30.44
30.96
30.68
29.75
28.28
26.42
24.35
22.26
20.33
18.72
17.45
16.35
15.15
13.51
11.28
8.54
5.66
3.12
1.26
0.09
-0.74
-1.80
-3.65
-6.65
-10.84
-15.87
-21.05
-25.47
-28.15
-28.29
-25.55
-20.23
-13.23
-5.81
0.92
6.31
10.32
13.36
15.96
18.42
20.73
22.66
24.06
24.92
25.43
25.81
26.18
26.45
26.41
25.86
24.71
23.05
21.07
18.99
16.99
15.11
13.25
11.23
8.85
6.01
2.74
-0.74
-4.17
-7.37
-10.36
-13.39
-16.85
-21.15
-26.47
-32.62
-38.94
-44.38
-47.76
-48.10
-44.99
-38.75
-30.34
-21.03
-11.96
-3.77
3.43
9.87
15.80
21.22
25.81
29.18
31.06
31.56
31.14
30.38
29.71
29.23
28.74
27.92
26.58
24.82
22.92
21.19
19.78
18.57
17.26
15.52
13.14
10.14
6.70
3.08
-0.48
-3.86
-7.00
-9.96
-12.87
-15.94
-19.41
-23.48
-28.20
-33.43
-38.68
-43.21
-46.05
-46.32
-43.49
-37.58
-29.24
-19.48
-9.38
0.26
9.04
16.93
24.01
30.34
35.78
40.13
43.29
45.29
46.40
46.98
47.42
47.95
48.69
49.57
50.55
51.58
52.73
54.06
55.53
56.98
58.15
58.89
59.27
59.67
60.58
62.33
64.81
67.47
69.50
70.28
69.75
68.53
67.69
68.42
71.42
76.67
83.11
88.86
91.61
89.17
80.27
65.01
44.99
22.91
1.68
-16.54
-31.10
-43.06
-54.64
-68.26
-85.39
-105.70
-127.02
-146.01
-159.33
-164.81
-162.04
-152.31
-137.96
-121.61
-105.51
-91.26
-79.76
-71.20
-65.19
-60.86
-57.12
-53.01
-48.09
-42.63
-37.47
-33.74
-32.37
-33.82
-37.85
-43.61
-49.87
-55.39
-59.29
-61.38
-62.22
-63.00
-65.11
-69.78
-77.71
-88.98
-103.03
-118.74
-134.55
-148.64
-159.18
-164.78
-164.88
-159.96
-151.39
-140.94
-130.09
-119.46
-108.74
-97.09
-83.64
-67.99
-50.17
-30.54
-9.54
12.38
34.62
56.55
77.72
98.20
118.59
139.59
161.36
183.10
203.25
220.13
232.81
241.45
247.02
250.54
252.32
251.66
247.27
238.00
223.43
204.13
181.41
156.88
132.02
107.86
85.00
63.80
44.67
28.06
14.42
3.88
-4.02
-10.27
-16.01
-22.12
-28.89
-36.11
-43.42
-50.60
-57.81
-65.34
-73.53
-82.49
-92.11
-102.22
-112.59
-122.94
-132.80
-141.39
-147.70
-150.62
-149.22
-142.96
-131.90
-116.69
-98.47
-78.71
-58.92
-40.36
-23.92
-10.03
1.26
10.06
16.53
20.83
23.13
23.70
22.92
21.27
19.16
16.89
14.58
12.16
9.55
6.60
3.20
-0.74
-5.30
-10.36
-15.52
-20.00
-22.76
-22.84
-19.67
-13.38
-4.77
4.98
14.73
23.71
31.65
38.61
44.76
50.08
54.38
57.34
58.78
58.75
57.59
55.77
53.74
51.71
49.68
47.53
45.09
42.35
39.43
36.54
33.82
31.29
28.77
25.93
22.48
18.26
13.32
8.01
2.76
-2.00
-6.03
-9.43
-12.56
-15.91
-19.92
-24.81
-30.50
-36.63
-42.57
-47.56
-50.74
-51.39
-49.08
-43.89
-36.39
-27.50
-18.24
-9.36
-1.29
5.84
12.03
17.24
21.39
24.37
26.23
27.19
27.58
27.70
27.67
27.47
26.91
25.90
24.48
22.87
21.30
19.95
18.76
17.45
15.67
13.14
9.77
5.72
1.34
-2.99
-6.96
-10.45
-13.57
-16.61
-20.01
-24.15
-29.20
-34.94
-40.70
-45.44
-48.03
-47.60
-43.87
-37.25
-28.68
-19.30
-10.08
-1.58
6.06
12.90
19.03
24.30
28.44
31.13
32.26
32.03
30.93
29.54
28.34
27.51
26.94
26.33
25.38
23.95
22.16
20.33
18.80
17.73
17.02
16.36
15.31
13.54
10.94
7.62
3.95
0.31
-2.94
-5.65
-7.87
-9.86
-12.05
-14.85
-18.61
-23.40
-28.94
-34.52
-39.11
-41.58
-41.00
-36.96
-29.73
-20.15
-9.37
1.51
11.73
20.97
29.20
36.48
42.68
47.54
50.68
51.94
51.53
50.07
48.39
47.28
47.13
47.75
48.40
48.10
46.01
41.89
36.17
29.90
24.24
19.93
16.86
13.99
9.64
2.17
-9.32
-24.55
-42.17
-60.16
-76.61
-90.23
-100.57
-107.89
-112.90
-116.70
-120.63
-125.93
-133.18
-141.59
-148.79
-151.48
-146.89
-134.29
-115.69
-95.19
-77.20
-64.64
-57.92
-55.34
-54.51
-53.70
-52.46
-51.35
-50.98
-51.46
-52.34
-53.11
-53.69
-54.64
-56.83
-60.93
-66.92
-74.04
-81.12
-87.13
-91.54
-94.50
-96.65
-98.73
-101.12
-103.65
-105.42
-105.01
-100.73
-91.19
-75.81
-55.31
-31.71
-7.70
14.26
32.89
48.41
62.03
75.16
88.59
102.45
116.52
130.95
146.29
163.17
181.56
200.36
217.54
230.86
238.69
240.52
236.87
228.82
217.56
204.06
189.17
173.57
157.79
142.18
126.78
111.41
95.81
79.90
63.88
48.21
33.46
20.06
8.06
-2.86
-13.15
-23.15
-32.69
-41.09
-47.40
-50.73
-50.69
-47.54
-42.21
-36.05
-30.45
-26.58
-25.05
-25.85
-28.34
-31.39
-33.70
-34.14
-32.03
-27.33
-20.54
-12.46
-3.95
4.35
11.99
18.70
24.25
28.46
31.21
32.55
32.73
32.15
31.20
30.14
29.04
27.90
26.65
25.30
23.93
22.65
21.54
20.63
19.85
19.08
18.10
16.65
14.49
11.50
7.73
3.41
-1.07
-5.34
-9.12
-12.30
-14.98
-17.39
-19.84
-22.69
-26.20
-30.46
-35.29
-40.09
-43.99
-46.02
-45.42
-41.93
-35.93
-28.25
-19.91
-11.78
-4.38
2.09
7.62
12.19
15.73
18.13
19.38
19.64
19.23
18.48
17.64
16.78
15.82
14.64
13.22
11.68
10.23
9.01
8.11
7.39
6.62
5.52
3.91
1.73
-0.94
-3.92
-6.99
-9.93
-12.61
-15.00
-17.18
-19.37
-21.85
-24.91
-28.70
-33.17
-37.92
-42.24
-45.21
-45.98
-44.04
-39.38
-32.59
-24.60
-16.34
-8.53
-1.46
4.84
10.46
15.34
19.30
22.08
23.58
23.95
23.57
22.89
22.26
21.80
21.43
21.01
20.47
19.86
19.27
18.80
18.34
17.68
16.53
14.74
12.32
9.51
6.70
4.25
2.34
0.87
-0.50
-2.20
-4.58
-7.71
-11.35
-14.98
-17.83
-19.15
-18.33
-15.05
-9.38
-1.65
7.58
17.73
28.26
38.66
48.49
57.37
65.01
71.28
76.31
80.43
84.08
87.60
91.15
94.66
97.88
100.57
102.57
103.89
104.74
105.56
106.97
109.59
113.73
119.07
124.48
128.13
127.99
122.51
111.26
95.16
76.22
56.84
38.88
23.08
8.95
-4.87
-19.97
-37.57
-58.20
-81.67
-107.08
-132.93
-157.08
-176.98
-190.15
-194.83
-190.79
-179.58
-164.37
-149.01
-136.95
-130.22
-129.07
-131.99
-136.41
-139.41
-138.54
-132.54
-121.65
-107.53
-92.68
-79.72
-70.42
-65.26
-63.43
-63.24
-62.76
-60.27
-54.60
-45.26
-32.59
-17.96
-3.72
7.14
11.81
8.44
-3.07
-20.99
-42.14
-62.72
-79.35
-89.93
-94.16
-93.51
-90.77
-89.15
-91.34
-98.73
-111.02
-126.51
-142.65
-156.80
-166.85
-171.60
-170.79
-165.11
-155.87
-144.75
-133.30
-122.57
-112.93
-104.20
-95.86
-87.27
-77.95
-67.52
-55.80
-42.75
-28.49
-13.28
2.50
18.40
34.00
48.86
62.65
75.24
86.80
97.91
109.53
122.83
138.91
158.40
181.11
205.68
229.59
249.60
262.57
266.35
260.64
246.96
228.12
207.12
186.08
165.84
146.03
125.88
104.95
83.59
62.85
44.15
28.66
16.99
9.03
4.06
1.03
-1.19
-3.49
-6.46
-10.30
-14.93
-20.09
-25.41
-30.49
-34.87
-38.01
-39.40
-38.66
-35.66
-30.69
-24.39
-17.57
-10.92
-4.78
0.91
6.37
11.71
16.70
20.78
23.35
24.03
22.90
20.49
17.49
14.52
11.90
9.60
7.37
4.87
1.81
-1.97
-6.48
-11.46
-16.43
-20.64
-23.20
-23.36
-20.74
-15.47
-8.29
-0.20
7.77
14.89
20.87
25.78
29.82
33.09
35.53
36.91
37.07
36.05
34.12
31.67
29.07
26.53
24.05
21.56
18.98
16.36
13.84
11.62
9.77
8.23
6.77
5.06
2.86
0.07
-3.15
-6.51
-9.63
-12.27
-14.38
-16.20
-18.12
-20.63
-24.08
-28.51
-33.54
-38.30
-41.65
-42.52
-40.23
-34.82
-27.00
-17.96
-8.87
-0.58
6.60
12.81
18.35
23.35
27.66
30.93
32.78
33.11
32.16
30.43
28.43
26.56
24.92
23.46
22.07
20.65
19.22
17.78
16.31
14.76
13.09
11.30
9.42
7.43
5.22
2.64
-0.38
-3.76
-7.22
-10.42
-13.11
-15.29
-17.21
-19.29
-21.91
-25.29
-29.46
-34.25
-39.30
-44.03
-47.65
-49.22
-47.95
-43.48
-36.09
-26.71
-16.59
-6.87
1.75
9.16
15.60
21.34
26.37
30.38
32.98
33.93
33.41
31.97
30.25
28.77
27.68
26.79
25.79
24.46
22.81
21.08
19.54
18.29
17.21
16.00
14.35
12.12
9.44
6.60
3.97
1.75
-0.08
-1.77
-3.66
-6.04
-9.03
-12.54
-16.29
-19.91
-23.05
-25.53
-27.37
-28.79
-30.17
-31.94
-34.47
-37.93
-42.16
-46.64
-50.54
-52.88
-52.80
-49.77
-43.78
-35.35
-25.37
-14.91
-4.87
4.18
12.07
18.89
24.85
30.02
34.27
37.29
38.78
38.69
37.30
35.16
32.86
30.84
29.21
27.89
26.75
25.75
24.97
24.43
23.96
23.20
21.74
19.35
16.15
12.54
9.02
5.89
3.16
0.62
-1.91
-4.43
-6.76
-8.66
-10.05
-11.04
-11.95
-13.10
-14.69
-16.80
-19.44
-22.58
-26.07
-29.46
-31.95
-32.38
-29.53
-22.49
-11.13
3.63
19.98
35.58
48.27
56.72
60.83
61.55
60.35
58.56
56.93
55.49
53.86
51.54
47.96
42.35
33.83
21.79
6.69
-9.32
-22.79
-30.21
-29.78
-22.56
-12.26
-3.64
-0.36
-3.56
-11.81
-22.38
-32.93
-42.47
-51.40
-60.62
-70.54
-80.77
-90.40
-98.73
-105.79
-112.39
-119.74
-128.85
-139.96
-152.37
-164.52
-174.49
-180.59
-181.94
-178.79
-172.37
-164.43
-156.52
-149.46
-143.26
-137.32
-131.05
-124.30
-117.53
-111.39
-106.28
-101.78
-96.74
-89.68
-79.47
-65.79
-49.21
-30.79
-11.52
8.12
28.22
49.14
71.15
94.25
118.06
142.09
165.76
188.40
209.19
227.04
240.80
249.53
252.75
250.60
243.79
233.35
220.35
205.66
189.68
172.30
153.02
131.38
107.49
82.32
57.67
35.57
17.59
4.23
-5.15
-11.97
-17.67
-23.30
-29.19
-35.24
-41.09
-46.42
-50.98
-54.58
-57.02
-58.05
-57.37
-54.68
-49.71
-42.36
-32.90
-22.05
-10.82
-0.27
8.86
16.37
22.62
28.21
33.65
39.08
44.22
48.58
51.73
53.55
54.26
54.26
53.89
53.23
52.10
50.24
47.49
44.01
40.17
36.47
33.28
30.82
29.13
28.20
27.98
28.24
28.60
28.43
27.14
24.39
20.20
14.96
9.10
2.85
-3.91
-11.54
-20.37
-30.38
-41.03
-51.44
-60.59
-67.63
-72.08
-73.82
-72.97
-69.78
-64.50
-57.43
-48.90
-39.39
-29.52
-20.07
-11.84
-5.45
-1.19
1.16
2.22
2.85
3.88
5.77
8.34
10.71
11.66
10.12
5.73
-0.94
-8.26
-13.91
-15.51
-11.38
-1.19
13.93
31.50
48.36
61.18
67.69
67.54
62.32
54.77
47.36
41.36
36.39
31.10
23.43
12.30
-1.53
-15.65
-27.29
-34.92
-38.89
-41.33
-44.91
-52.69
-65.99
-83.19
-99.78
-110.45
-111.94
-104.38
-91.36
-77.35
-66.95
-62.30
-62.40
-64.18
-64.65
-62.62
-57.48
-47.80
-22.14
27.40
98.12
175.21
240.37
281.86
297.40
295.17
282.17
263.16
239.30
210.20
176.21
139.49
105.54
79.34
63.38
56.21
53.63
49.12
36.93
14.68
-15.87
-49.70
-81.19
-105.98
-122.78
-132.75
-139.11
-145.31
-153.30
-163.51
-174.60
-185.27
-195.21
-206.25
-221.49
-243.75
-273.81
-309.48
-346.96
-380.92
-406.45
-420.02
-420.93
-410.72
-391.25
-363.59
-327.69
-284.46
-234.86
-180.57
-123.50
-66.89
-14.96
29.40
65.48
102.08
141.05
179.50
214.09
245.33
278.01
313.08
347.79
374.05
384.05
372.00
337.51
280.04
209.36
140.34
85.10
48.28
27.86
17.13
11.10
7.22
3.67
-0.62
-7.86
-19.40
-35.15
-51.95
-64.33
-67.31
-58.58
-39.22
-12.32
17.20
44.19
65.07
78.67
85.64
86.95
83.12
74.74
63.75
52.68
43.90
38.66
36.90
37.32
38.03
37.17
33.58
27.54
20.18
13.04
7.46
4.35
3.99
5.85
8.33
9.26
6.86
0.37
-9.62
-22.13
-35.71
-48.52
-58.27
-63.09
-62.02
-54.99
-42.64
-26.08
-8.43
6.62
16.05
18.49
13.49
0.60
-20.02
-46.23
-72.66
-93.05
-100.71
-90.49
-61.45
-19.81
21.51
48.03
49.93
25.85
-20.43
-80.81
-144.97
-197.69
-220.82
-203.07
-147.42
-73.00
8.90
87.27
152.29
192.61
202.29
182.77
142.25
94.11
53.67
34.27
40.09
67.96
110.51
159.73
207.15
244.16
263.56
261.25
237.20
191.50
126.40
47.42
-36.58
-116.10
-182.98
-230.87
-255.92
-249.67
-212.49
-157.37
-103.09
-62.56
-39.13
-30.16
-31.17
-37.87
-46.13
-53.76
-58.74
-58.55
-51.21
-37.30
-20.24
-4.10
6.68
9.29
2.26
-13.10
-32.43
-49.94
-61.10
-64.32
-61.20
-55.35
-50.44
-49.34
-52.62
-57.95
-61.10
-58.81
-48.80
-31.27
-8.97
13.93
33.28
46.93
55.53
61.71
68.16
76.10
84.64
91.64
95.20
94.52
90.02
82.57
72.74
60.53
46.03
29.95
13.85
-0.43
-11.73
-20.20
-27.06
-33.61
-40.16
-45.44
-47.34
-44.18
-36.14
-25.92
-18.31
-18.67
-30.78
-54.96
-87.19
-119.97
-144.53
-153.76
-144.67
-119.21
-83.47
-45.60
-13.47
7.26
14.07
7.91
-7.29
-25.65
-40.85
-47.82
-44.10
-29.67
-5.85
26.12
65.73
112.49
164.53
217.72
266.43
305.58
332.70
348.42
355.00
353.89
343.84
321.54
284.12
232.11
170.65
107.84
51.05
3.37
-37.62
-78.01
-123.67
-176.63
-233.83
-288.51
-333.31
-363.18
-376.40
-373.73
-356.76
-326.58
-283.57
-228.21
-162.00
-88.25
-11.93
60.77
123.48
170.61
198.80
208.05
202.12
187.61
171.80
160.20
154.86
154.37
155.20
153.67
147.40
135.74
119.34
99.19
76.20
51.53
27.24
6.54
-6.91
-10.67
-5.07
6.56
19.16
28.29
32.18
32.27
32.00
34.55
41.05
50.08
58.74
64.01
63.98
57.86
45.72
27.98
5.41
-20.44
-47.26
-72.46
-94.04
-111.09
-124.14
-135.00
-146.36
-161.25
-182.12
-209.87
-242.98
-277.50
-308.09
-329.79
-339.61
-337.31
-324.89
-305.45
-282.02
-256.85
-231.54
-207.24
-184.88
-164.84
-146.72
-129.10
-109.86
-86.85
-58.48
-24.15
15.41
58.22
101.07
140.05
171.22
191.73
200.85
200.67
195.74
191.90
194.15
204.72
222.13
241.98
259.14
270.37
276.04
279.93
287.24
301.78
323.92
350.01
373.95
389.38
391.73
379.05
351.81
312.22
263.63
210.09
156.13
106.44
65.25
35.39
17.43
9.44
7.81
8.67
9.28
8.45
6.65
5.33
6.03
9.55
15.56
22.71
28.98
31.85
27.59
12.78
-14.18
-51.68
-94.68
-136.06
-168.59
-187.14
-190.20
-182.13
-169.90
-159.89
-154.88
-153.65
-152.45
-147.15
-135.11
-116.41
-96.99
-84.31
-83.90
-96.84
-120.79
-152.45
-188.88
-227.09
-262.89
-294.82
-321.40
-341.52
-355.65
-368.16
-387.09
-420.21
-469.58
-504.13
-493.21
-422.46
-305.87
-174.08
-54.93
36.84
99.77
141.14
171.28
193.51
206.17
206.35
195.85
179.83
165.73
160.39
167.70
188.04
213.98
235.14
242.85
234.43
213.40
187.18
163.94
146.40
136.55
131.16
124.96
113.86
97.81
80.07
64.96
55.87
52.75
56.80
68.41
86.56
106.99
123.20
128.78
120.51
100.37
74.95
52.98
39.67
34.98
34.41
33.10
28.87
22.38
15.80
10.71
7.49
4.67
0.38
-6.90
-16.77
-27.44
-36.96
-44.35
-50.25
-56.53
-66.09
-77.75
-90.75
-103.16
-112.53
-117.12
-116.79
-113.04
-108.02
-103.32
-98.90
-93.54
-84.90
-71.15
-52.23
-30.32
-9.14
7.40
16.60
17.88
12.33
2.63
-7.94
-16.45
-20.82
-20.05
-14.25
-4.57
7.18
18.61
27.70
33.18
34.65
32.40
27.03
19.17
9.40
-1.58
-13.06
-24.14
-34.02
-42.22
-48.62
-53.38
-56.88
-59.55
-61.80
-64.13
-66.96
-70.52
-74.44
-77.52
-77.57
-71.96
-58.49
-36.32
-6.62
27.58
61.98
92.15
114.53
127.27
130.54
126.47
118.55
110.68
106.26
107.50
115.19
128.83
146.94
167.10
185.86
198.66
200.52
187.40
157.96
114.67
63.54
12.40
-31.58
-63.99
-84.05
-94.06
-97.85
-99.10
-100.24
-102.28
-105.18
-108.71
-112.95
-118.31
-124.90
-131.80
-136.67
-136.32
-127.91
-110.37
-85.17
-56.01
-27.47
-3.34
14.61
26.72
34.71
40.34
44.54
47.15
47.49
45.08
40.23
34.03
27.89
22.93
19.64
17.84
16.94
16.32
15.53
14.27
12.40
9.78
6.32
2.03
-2.92
-8.17
-13.32
-18.02
-22.18
-25.98
-29.88
-34.53
-40.54
-48.22
-57.28
-66.54
-73.99
-77.19
-74.02
-63.53
-46.45
-25.14
-2.85
17.29
33.21
44.26
50.93
54.26
55.17
54.18
51.46
47.17
41.67
35.61
29.73
24.61
20.49
17.22
14.41
11.57
8.31
4.42
-0.09
-5.04
-10.21
-15.36
-20.36
-25.20
-29.96
-34.82
-40.05
-45.99
-53.08
-61.58
-71.22
-80.89
-88.51
-91.42
-87.30
-75.10
-55.74
-31.99
-7.60
13.96
30.53
41.68
48.33
51.82
53.17
52.73
50.40
46.10
40.19
33.56
27.32
22.41
19.19
17.38
16.20
14.81
12.55
9.19
4.87
-0.01
-4.96
-9.56
-13.56
-16.97
-20.11
-23.65
-28.48
-35.47
-44.97
-56.39
-67.89
-76.56
-79.24
-73.67
-59.49
-38.57
-14.47
8.92
28.71
43.89
55.11
63.76
70.85
76.39
79.56
79.41
75.51
68.21
58.49
47.67
37.26
28.84
23.68
22.14
22.94
23.02
18.42
6.12
-14.09
-38.80
-61.84
-76.58
-78.55
-67.09
-45.36
-18.74
7.15
28.03
41.64
47.44
46.02
38.68
27.14
13.65
0.86
-8.57
-12.58
-10.43
-2.97
7.47
17.87
25.50
28.92
28.36
25.48
22.49
21.13
21.96
24.15
26.08
26.13
23.43
18.13
11.18
3.78
-3.17
-9.40
-15.16
-20.98
-27.21
-33.79
-40.20
-45.73
-49.76
-52.03
-52.77
-52.51
-51.89
-51.47
-51.65
-52.78
-55.26
-59.43
-65.24
-71.81
-77.30
-79.23
-75.36
-64.71
-48.17
-28.24
-8.25
8.93
21.64
29.67
33.82
35.14
34.42
32.10
28.40
23.66
18.45
13.43
9.11
5.65
2.85
0.28
-2.45
-5.54
-8.96
-12.50
-15.87
-18.85
-21.31
-23.29
-24.95
-26.51
-28.25
-30.43
-33.30
-37.07
-41.81
-47.31
-52.90
-57.45
-59.53
-57.87
-51.85
-41.85
-29.17
-15.58
-2.73
8.35
17.34
24.42
29.82
33.63
35.77
36.27
35.42
33.81
32.12
30.79
29.91
29.22
28.32
26.88
24.75
21.99
18.74
15.19
11.45
7.59
3.65
-0.40
-4.59
-8.95
-13.52
-18.39
-23.71
-29.66
-36.35
-43.52
-50.32
-55.41
-57.26
-54.71
-47.54
-36.61
-23.61
-10.49
1.19
10.66
17.86
23.09
26.71
28.86
29.59
29.03
27.62
25.95
24.62
23.94
23.79
23.72
23.24
22.08
20.39
18.63
17.27
16.54
16.25
15.89
14.94
13.09
10.45
7.42
4.47
1.91
-0.21
-2.11
-4.09
-6.49
-9.57
-13.51
-18.30
-23.57
-28.50
-31.79
-31.97
-27.92
-19.34
-6.96
7.64
22.50
35.92
46.84
54.91
60.24
63.13
63.90
62.90
60.57
57.52
54.42
51.76
49.72
48.06
46.29
43.89
40.57
36.38
31.70
27.06
22.88
19.34
16.26
13.30
10.09
6.48
2.58
-1.30
-4.86
-7.99
-10.83
-13.75
-17.18
-21.50
-26.87
-33.05
-39.30
-44.38
-46.79
-45.26
-39.21
-29.15
-16.54
-3.35
8.65
18.35
25.44
30.16
32.97
34.24
34.19
33.05
31.16
29.01
27.11
25.78
25.07
24.76
24.49
23.92
22.83
21.14
18.91
16.21
13.07
9.45
5.30
0.68
-4.19
-8.97
-13.35
-17.20
-20.68
-24.23
-28.37
-33.47
-39.44
-45.62
-50.76
-53.38
-52.23
-46.76
-37.36
-25.27
-12.18
0.34
11.17
19.83
26.24
30.57
33.05
33.94
33.66
32.80
32.02
31.85
32.48
33.71
35.09
36.08
36.38
35.99
35.18
34.31
33.64
33.16
32.59
31.53
29.66
26.91
23.53
19.92
16.48
13.41
10.60
7.70
4.32
0.07
-5.26
-11.66
-18.81
-25.96
-31.95
-35.44
-35.33
-31.16
-23.39
-13.32
-2.63
7.20
15.24
21.21
25.27
27.61
28.37
27.61
25.51
22.54
19.38
16.73
15.08
14.48
14.61
14.90
14.78
13.91
12.30
10.31
8.48
7.25
6.78
6.84
6.89
6.36
4.97
2.81
0.36
-1.84
-3.42
-4.42
-5.21
-6.34
-8.32
-11.47
-15.86
-21.36
-27.48
-33.41
-37.95
-39.79
-37.91
-32.05
-22.88
-11.94
-1.03
8.33
15.36
20.02
22.75
24.06
24.27
23.57
22.17
20.44
18.94
18.17
18.38
19.39
20.76
21.89
22.35
21.99
20.89
19.30
17.48
15.62
13.85
12.16
10.45
8.53
6.21
3.36
0.01
-3.66
-7.36
-10.79
-13.81
-16.48
-18.98
-21.61
-24.66
-28.31
-32.57
-37.18
-41.47
-44.42
-44.85
-41.81
-35.00
-25.00
-13.19
-1.29
9.17
17.23
22.64
25.64
26.68
26.21
24.58
22.17
19.47
17.08
15.50
14.96
15.24
15.80
16.01
15.45
14.09
12.29
10.60
9.44
8.88
8.59
7.99
6.52
3.92
0.35
-3.74
-7.79
-11.38
-14.36
-16.85
-19.21
-21.83
-25.09
-29.16
-33.97
-39.02
-43.35
-45.73
-44.94
-40.29
-31.98
-21.19
-9.72
0.60
8.47
13.50
16.03
16.80
16.47
15.44
13.89
11.97
9.99
8.35
7.38
7.08
7.14
7.03
6.32
4.86
2.81
0.53
-1.66
-3.59
-5.32
-7.05
-8.96
-11.11
-13.42
-15.73
-17.87
-19.80
-21.69
-23.89
-26.81
-30.71
-35.34
-39.87
-42.96
-43.19
-39.62
-32.25
-22.12
-10.93
-0.45
8.04
14.06
17.80
19.75
20.36
19.90
18.55
16.57
14.36
12.42
11.05
10.34
10.03
9.74
9.15
8.09
6.63
4.98
3.33
1.78
0.28
-1.36
-3.33
-5.68
-8.32
-10.96
-13.34
-15.28
-16.91
-18.58
-20.80
-24.06
-28.58
-34.11
-39.81
-44.36
-46.27
-44.42
-38.48
-29.14
-17.98
-6.84
2.69
9.72
14.13
16.25
16.67
16.06
15.25
15.20
16.87
20.86
27.11
34.85
42.89
50.13
55.92
60.19
63.26
65.51
67.15
68.20
68.56
68.17
67.05
65.25
62.82
59.72
55.86
51.14
45.45
38.78
31.21
22.98
14.48
6.21
-1.37
-7.87
-13.05
-16.71
-18.75
-19.24
-18.55
-17.44
-16.98
-18.27
-22.06
-28.41
-36.64
-45.56
-53.86
-60.62
-65.57
-69.10
-71.94
-74.74
-77.72
-80.46
-82.15
-81.93
-79.35
-74.51
-67.98
-60.47
-52.42
-43.86
-34.42
-23.64
-11.31
2.39
16.88
31.44
45.37
58.08
69.09
77.95
84.20
87.44
87.50
84.51
78.97
71.62
63.20
54.12
44.41
33.80
22.10
9.61
-2.74
-13.57
-21.50
-25.80
-26.64
-25.02
-22.37
-19.85
-18.05
-16.97
-16.26
-15.58
-14.85
-14.18
-13.76
-13.65
-13.69
-13.63
-13.23
-12.43
-11.39
-10.39
-9.67
-9.27
-8.99
-8.53
-7.69
-6.60
-5.74
-5.78
-7.32
-10.60
-15.35
-20.91
-26.56
-31.72
-36.26
-40.35
-44.46
-49.04
-54.36
-60.36
-66.52
-71.94
-75.46
-76.03
-72.98
-66.40
-57.02
-46.07
-34.86
-24.44
-15.43
-8.11
-2.62
0.93
2.48
2.12
0.22
-2.64
-5.70
-8.29
-9.88
-10.20
-9.16
-6.87
-3.57
0.46
4.99
9.88
15.02
20.17
24.87
28.46
30.28
29.96
27.64
23.96
19.78
15.85
12.51
9.64
6.83
3.63
-0.25
-4.79
-9.63
-14.02
-16.89
-17.10
-13.77
-6.69
3.53
15.56
27.86
39.11
48.67
56.48
62.77
67.67
70.96
72.20
71.05
67.52
62.13
55.75
49.27
43.36
38.33
34.13
30.53
27.31
24.33
21.59
19.18
17.17
15.51
14.01
12.44
10.60
8.37
5.72
2.69
-0.65
-4.27
-8.09
-12.00
-15.85
-19.51
-22.92
-26.18
-29.59
-33.54
-38.45
-44.51
-51.52
-58.70
-64.72
-68.05
-67.33
-61.98
-52.43
-40.13
-27.07
-15.15
-5.67
0.96
5.11
7.53
8.98
9.94
10.62
11.09
11.44
11.85
12.56
13.68
15.11
16.52
17.49
17.76
17.34
16.54
15.76
15.32
15.25
15.29
15.02
14.07
12.27
9.76
6.89
4.14
1.86
0.16
-1.15
-2.49
-4.35
-7.13
-10.99
-15.96
-21.90
-28.59
-35.60
-42.09
-46.91
-48.77
-46.74
-40.74
-31.65
-21.07
-10.75
-2.02
4.47
8.74
11.13
12.05
11.87
10.87
9.43
7.99
6.97
6.74
7.42
8.96
11.09
13.51
16.05
18.79
22.13
26.58
32.46
39.57
47.02
53.51
57.76
59.00
57.25
53.19
47.75
41.75
35.54
29.07
22.13
14.47
6.09
-2.67
-11.05
-17.97
-22.16
-22.64
-19.15
-12.52
-4.57
2.32
5.96
5.14
-0.04
-8.08
-16.60
-23.04
-25.27
-22.13
-13.65
-0.96
13.93
28.52
40.37
47.62
49.41
46.09
39.06
30.25
21.56
14.25
8.73
4.69
1.43
-1.79
-5.47
-9.88
-15.06
-20.82
-26.60
-31.52
-34.45
-34.44
-31.21
-25.34
-18.19
-11.44
-6.54
-4.22
-4.45
-6.48
-9.21
-11.39
-11.92
-10.13
-5.83
0.51
7.97
15.49
22.23
27.73
31.86
34.67
36.14
36.16
34.60
31.51
27.23
22.36
17.62
13.67
10.93
9.53
9.34
9.98
11.03
12.08
12.79
12.94
12.36
10.98
8.84
6.12
3.13
0.22
-2.36
-4.52
-6.37
-8.11
-9.88
-11.75
-13.68
-15.61
-17.52
-19.49
-21.66
-24.20
-27.22
-30.63
-34.07
-36.77
-37.68
-35.67
-30.03
-20.80
-8.97
3.81
15.70
25.27
31.83
35.45
36.62
35.93
33.90
30.99
27.78
25.00
23.41
23.47
25.12
27.69
30.14
31.42
30.88
28.39
24.35
19.37
14.09
8.94
4.20
0.02
-3.51
-6.45
-9.10
-11.95
-15.55
-20.25
-26.00
-32.28
-38.38
-43.75
-48.23
-52.21
-56.40
-61.54
-68.05
-75.83
-84.24
-92.21
-98.42
-101.42
-99.82
-92.51
-79.06
-59.99
-36.92
-12.33
11.11
31.25
47.04
58.54
66.60
72.15
75.81
77.73
77.92
76.53
74.13
71.61
69.82
69.38
70.54
73.13
76.62
80.09
82.36
82.17
78.59
71.32
60.83
48.22
34.71
21.34
8.60
-3.44
-14.96
-26.09
-36.89
-47.35
-57.44
-66.98
-75.41
-81.71
-84.58
-82.93
-76.49
-66.09
-53.51
-40.87
-29.90
-21.41
-15.28
-10.82
-7.37
-4.64
-2.85
-2.42
-3.67
-6.55
-10.65
-15.35
-20.12
-24.62
-28.78
-32.65
-36.32
-39.89
-43.53
-47.41
-51.68
-56.25
-60.62
-63.86
-64.87
-62.82
-57.48
-49.44
-39.90
-30.40
-22.45
-17.33
-15.86
-18.28
-24.07
-32.03
-40.49
-47.73
-52.43
-53.81
-51.68
-46.16
-37.58
-26.49
-13.79
-0.73
11.29
21.10
28.24
33.00
36.28
39.11
42.22
45.95
50.31
55.32
61.11
67.98
76.14
85.44
95.24
104.51
112.17
117.38
119.90
120.06
118.54
116.13
113.34
110.43
107.35
104.02
100.33
96.30
92.05
87.72
83.47
79.33
75.26
71.03
66.32
60.72
53.90
45.72
36.47
27.02
18.92
14.18
14.68
21.51
34.41
51.66
70.61
88.49
103.25
113.89
120.40
123.21
122.85
119.71
114.21
106.96
98.75
90.42
82.48
74.94
67.38
59.20
49.97
39.63
28.46
16.81
4.82
-7.69
-21.14
-35.90
-51.98
-68.93
-85.89
-101.92
-116.32
-128.76
-139.32
-148.31
-156.18
-163.38
-170.19
-176.50
-181.74
-184.90
-184.83
-180.73
-172.44
-160.64
-146.56
-131.60
-117.02
-103.71
-92.32
-83.34
-77.14
-73.86
-73.19
-74.40
-76.41
-78.24
-79.20
-79.04
-77.78
-75.56
-72.43
-68.40
-63.55
-58.21
-52.94
-48.29
-44.65
-42.01
-40.08
-38.50
-37.04
-35.76
-34.85
-34.55
-34.91
-35.92
-37.55
-39.83
-42.83
-46.30
-49.40
-50.70
-48.50
-41.57
-29.80
-14.42
2.28
17.82
30.38
39.27
44.89
48.13
49.84
50.45
50.06
48.72
46.62
44.13
41.56
39.03
36.27
32.81
28.18
22.18
14.99
7.22
-0.34
-6.92
-12.04
-15.67
-18.15
-19.92
-21.24
-22.04
-21.96
-20.65
-18.19
-15.16
-12.59
-11.59
-12.85
-16.34
-21.09
-25.41
-27.31
-25.06
-17.83
-6.00
8.88
24.49
38.57
49.47
56.60
60.30
61.49
61.22
60.27
59.17
58.19
57.58
57.58
58.39
60.11
62.64
65.76
69.29
73.37
78.51
85.27
93.62
102.21
108.22
108.05
98.66
79.02
50.80
17.83
-15.35
-45.26
-70.43
-91.37
-109.51
-125.94
-140.54
-151.88
-157.75
-155.97
-145.06
-124.71
-95.78
-60.30
-21.16
18.47
55.67
88.37
115.53
136.86
152.23
161.20
162.88
156.47
142.04
121.03
96.25
71.06
48.35
29.65
15.12
4.10
-4.09
-9.54
-11.84
-10.44
-5.20
3.37
14.06
25.19
34.82
41.13
42.69
38.78
29.61
16.31
0.50
-16.23
-32.90
-49.31
-65.65
-81.90
-97.25
-110.06
-118.48
-121.28
-118.62
-112.02
-103.72
-95.73
-88.99
-83.25
-77.43
-70.47
-61.86
-51.88
-41.23
-30.67
-20.65
-11.26
-2.46
5.75
13.13
19.29
23.85
26.62
27.81
28.00
27.91
28.00
28.14
27.44
24.54
18.13
7.62
-6.54
-22.91
-39.62
-54.98
-68.09
-78.93
-88.14
-96.58
-105.05
-114.07
-123.76
-133.61
-142.24
-147.32
-146.00
-135.84
-115.90
-87.43
-53.64
-18.63
13.89
41.41
62.67
76.94
83.70
82.81
75.31
64.03
53.20
47.05
47.95
55.31
65.79
75.00
79.44
77.88
71.27
61.77
51.39
41.25
31.61
22.39
13.67
5.72
-1.26
-7.36
-13.10
-19.09
-25.68
-32.73
-39.68
-45.82
-50.61
-54.00
-56.38
-58.59
-61.64
-66.38
-73.00
-80.70
-87.57
-91.04
-88.75
-79.57
-64.21
-45.07
-25.33
-7.71
6.37
16.98
25.11
31.74
37.21
41.13
42.88
42.24
39.72
36.50
33.91
32.86
33.46
35.02
36.48
36.90
35.94
33.88
31.46
29.39
27.97
26.92
25.52
23.01
18.99
13.69
7.83
2.32
-2.24
-5.74
-8.64
-11.64
-15.39
-20.33
-26.59
-33.96
-41.86
-49.24
-54.67
-56.67
-54.11
-46.75
-35.41
-21.72
-7.53
5.63
16.98
26.37
34.00
40.10
44.75
47.98
49.88
50.78
51.13
51.35
51.58
51.64
51.06
49.41
46.58
42.90
39.08
35.85
33.61
32.18
30.83
28.69
25.18
20.29
14.58
8.93
4.09
0.43
-2.19
-4.25
-6.37
-9.22
-13.37
-19.14
-26.42
-34.41
-41.64
-46.22
-46.46
-41.50
-31.77
-18.82
-4.80
8.30
19.26
27.77
34.14
38.87
42.23
44.22
44.72
43.80
41.83
39.43
37.24
35.68
34.80
34.30
33.77
32.86
31.48
29.80
28.17
26.88
26.04
25.45
24.67
23.19
20.69
17.17
12.98
8.70
4.88
1.80
-0.59
-2.62
-4.72
-7.31
-10.72
-15.21
-20.87
-27.48
-34.28
-39.99
-43.06
-42.12
-36.58
-26.93
-14.67
-1.76
10.08
19.82
27.31
32.94
37.23
40.47
42.65
43.63
43.36
42.07
40.25
38.39
36.85
35.71
34.79
33.80
32.53
30.91
29.01
26.98
24.94
22.95
21.04
19.24
17.58
16.06
14.58
12.93
10.86
8.18
4.86
1.10
-2.79
-6.50
-9.86
-12.91
-15.92
-19.28
-23.42
-28.64
-34.91
-41.75
-48.10
-52.57
-53.70
-50.54
-43.01
-32.01
-19.23
-6.50
4.68
13.60
20.25
25.06
28.54
30.97
32.47
33.05
32.90
32.40
32.01
32.09
32.68
33.50
34.06
33.99
33.15
31.73
30.14
28.74
27.69
26.85
25.80
24.04
21.20
17.23
12.43
7.39
2.72
-1.16
-4.17
-6.65
-9.15
-12.29
-16.55
-22.10
-28.76
-35.88
-42.39
-46.92
-48.18
-45.42
-38.72
-29.10
-18.15
-7.50
1.72
9.10
14.80
19.21
22.59
24.99
26.32
26.56
25.92
24.82
23.74
23.07
22.96
23.28
23.72
23.90
23.51
22.47
20.96
19.32
17.91
16.83
15.85
14.45
12.12
8.62
4.14
-0.73
-5.25
-8.92
-11.65
-13.79
-15.93
-18.59
-22.03
-26.23
-30.98
-35.91
-40.49
-43.95
-45.33
-43.73
-38.65
-30.34
-19.82
-8.63
1.77
10.40
17.04
21.98
25.70
28.45
30.18
30.72
30.02
28.38
26.41
24.73
23.73
23.41
23.42
23.28
22.63
21.39
19.76
18.11
16.71
15.64
14.70
13.47
11.54
8.68
4.94
0.71
-3.44
-6.99
-9.68
-11.62
-13.24
-15.04
-17.44
-20.65
-24.69
-29.48
-34.81
-40.21
-44.85
-47.63
-47.40
-43.52
-36.20
-26.57
-16.23
-6.76
0.88
6.50
10.46
13.32
15.46
16.99
17.86
18.08
17.85
17.56
17.60
18.23
19.44
20.94
22.26
22.95
22.73
21.62
19.89
17.96
16.12
14.45
12.74
10.71
8.12
5.01
1.67
-1.48
-4.07
-5.98
-7.41
-8.75
-10.48
-12.95
-16.36
-20.68
-25.62
-30.63
-34.87
-37.36
-37.19
-33.84
-27.39
-18.67
-9.03
0.02
7.32
12.36
15.33
16.83
17.48
17.62
17.26
16.29
14.75
12.93
11.33
10.31
9.94
9.88
9.63
8.79
7.31
5.47
3.69
2.29
1.27
0.38
-0.77
-2.49
-4.87
-7.69
-10.58
-13.14
-15.10
-16.49
-17.60
-18.96
-21.07
-24.29
-28.64
-33.74
-38.82
-42.78
-44.52
-43.19
-38.53
-31.04
-21.80
-12.22
-3.55
3.40
8.41
11.61
13.32
13.82
13.33
12.11
10.49
8.91
7.75
7.21
7.27
7.73
8.27
8.68
8.83
8.76
8.56
8.32
8.02
7.54
6.69
5.27
3.27
0.89
-1.50
-3.57
-5.12
-6.24
-7.23
-8.48
-10.33
-12.98
-16.39
-20.21
-23.76
-26.10
-26.30
-23.77
-18.56
-11.39
-3.45
4.07
10.35
15.16
18.67
21.22
22.92
23.71
23.46
22.18
20.20
18.04
16.20
14.92
14.16
13.59
12.91
11.95
10.75
9.49
8.24
6.95
5.40
3.36
0.82
-2.01
-4.76
-7.05
-8.79
-10.10
-11.33
-12.83
-14.93
-17.83
-21.57
-25.94
-30.31
-33.69
-34.93
-33.12
-28.04
-20.33
-11.33
-2.58
4.75
10.21
13.97
16.49
18.11
18.90
18.71
17.47
15.41
13.10
11.23
10.32
10.44
11.23
12.02
12.25
11.65
10.43
9.04
7.93
7.25
6.75
5.94
4.41
2.05
-0.81
-3.64
-5.99
-7.71
-9.02
-10.38
-12.24
-14.92
-18.50
-22.82
-27.40
-31.52
-34.16
-34.30
-31.29
-25.14
-16.68
-7.30
1.56
8.86
14.28
18.06
20.67
22.45
23.48
23.67
22.99
21.68
20.16
18.92
18.26
18.18
18.37
18.43
17.96
16.77
14.93
12.73
10.58
8.82
7.59
6.71
5.80
4.37
2.13
-0.92
-4.46
-7.97
-11.03
-13.44
-15.27
-16.80
-18.40
-20.36
-22.89
-26.14
-30.12
-34.64
-39.16
-42.74
-44.22
-42.55
-37.26
-28.67
-17.93
-6.66
3.57
11.70
17.35
20.75
22.38
22.73
22.19
21.01
19.49
17.94
16.68
15.90
15.61
15.60
15.53
15.09
14.10
12.58
10.75
8.92
7.40
6.29
5.50
4.65
3.32
1.20
-1.73
-5.16
-8.59
-11.51
-13.66
-15.11
-16.27
-17.72
-20.06
-23.63
-28.41
-33.87
-38.97
-42.37
-42.83
-39.63
-32.91
-23.73
-13.73
-4.56
2.65
7.57
10.53
12.19
13.14
13.63
13.66
13.22
12.39
11.46
10.76
10.49
10.57
10.73
10.61
10.00
8.92
7.67
6.63
6.09
6.07
6.27
6.14
5.19
3.18
0.31
-2.88
-5.72
-7.73
-8.77
-9.16
-9.46
-10.35
-12.37
-15.79
-20.49
-25.82
-30.68
-33.69
-33.60
-29.76
-22.47
-12.96
-2.96
5.88
12.58
16.99
19.60
21.13
22.05
22.42
22.04
20.74
18.67
16.32
14.34
13.26
13.22
13.93
14.83
15.32
15.04
13.97
12.40
10.73
9.29
8.13
7.07
5.73
3.75
1.00
-2.38
-5.99
-9.34
-12.09
-14.16
-15.73
-17.16
-18.81
-20.95
-23.76
-27.33
-31.61
-36.37
-40.99
-44.53
-45.86
-44.08
-38.92
-30.90
-21.26
-11.52
-3.00
3.60
8.20
11.26
13.32
14.79
15.79
16.25
16.12
15.52
14.72
14.11
13.98
14.40
15.20
16.01
16.47
16.41
15.87
15.08
14.32
13.75
13.32
12.79
11.86
10.32
8.13
5.44
2.57
-0.18
-2.56
-4.50
-6.10
-7.60
-9.37
-11.78
-15.12
-19.41
-24.28
-28.89
-32.09
-32.74
-30.07
-24.09
-15.55
-5.81
3.69
11.80
17.94
22.10
24.62
25.93
26.35
26.09
25.28
24.07
22.70
21.40
20.32
19.45
18.63
17.53
15.91
13.67
10.97
8.17
5.68
3.69
2.11
0.50
-1.65
-4.64
-8.41
-12.49
-16.25
-19.25
-21.39
-23.02
-24.71
-27.05
-30.39
-34.82
-40.04
-45.39
-49.91
-52.45
-51.96
-47.88
-40.38
-30.45
-19.61
-9.39
-0.88
5.57
10.25
13.71
16.36
18.35
19.53
19.81
19.32
18.50
17.92
17.99
18.79
19.98
20.99
21.27
20.53
18.85
16.63
14.34
12.31
10.61
9.04
7.23
4.86
1.81
-1.72
-5.34
-8.58
-11.15
-12.99
-14.33
-15.53
-16.99
-19.02
-21.85
-25.53
-29.85
-34.19
-37.50
-38.46
-35.94
-29.39
-19.21
-6.68
6.43
18.42
28.16
35.27
40.00
42.88
44.43
44.95
44.57
43.36
41.50
39.25
36.97
34.92
33.24
31.86
30.64
29.39
28.00
26.46
24.81
23.06
21.20
19.17
16.88
14.32
11.53
8.66
5.76
2.86
-0.13
-3.31
-6.71
-10.22
-13.63
-16.76
-19.54
-22.10
-24.69
-27.62
-31.14
-35.43
-40.43
-45.74
-50.51
-53.48
-53.39
-49.36
-41.41
-30.53
-18.46
-7.00
2.55
9.73
14.83
18.51
21.32
23.48
24.97
25.70
25.76
25.41
24.98
24.73
24.65
24.62
24.47
24.13
23.69
23.26
22.90
22.47
21.74
20.50
18.66
16.35
13.82
11.30
8.86
6.41
3.79
0.95
-1.98
-4.77
-7.20
-9.23
-11.08
-13.13
-15.74
-19.19
-23.58
-28.81
-34.53
-40.04
-44.30
-46.07
-44.33
-38.74
-29.89
-19.18
-8.36
1.12
8.52
13.90
17.75
20.65
22.89
24.47
25.26
25.23
24.56
23.64
22.94
22.79
23.26
24.13
24.96
25.32
24.95
23.84
22.22
20.38
18.54
16.78
15.00
13.09
10.94
8.53
5.87
2.98
-0.09
-3.26
-6.40
-9.38
-12.14
-14.77
-17.55
-20.84
-24.93
-29.90
-35.38
-40.57
-44.36
-45.61
-43.55
-38.05
-29.76
-19.88
-9.87
-0.92
6.25
11.54
15.28
17.97
20.01
21.64
22.88
23.73
24.19
24.34
24.31
24.20
24.08
23.93
23.68
23.28
22.72
22.08
21.48
20.97
20.47
19.77
18.61
16.82
14.41
11.65
8.92
6.50
4.50
2.73
0.84
-1.51
-4.45
-7.80
-11.22
-14.28
-16.75
-18.63
-20.21
-21.93
-24.26
-27.54
-31.89
-37.03
-42.24
-46.37
-48.13
-46.50
-41.15
-32.67
-22.48
-12.24
-3.35
3.54
8.56
12.26
15.17
17.47
19.02
19.62
19.31
18.48
17.76
17.64
18.29
19.42
20.48
21.03
20.89
20.29
19.64
19.31
19.41
19.70
19.74
19.12
17.63
15.40
12.83
10.41
8.53
7.27
6.41
5.50
4.07
1.85
-1.16
-4.65
-8.22
-11.49
-14.30
-16.71
-18.95
-21.37
-24.27
-27.90
-32.35
-37.36
-42.28
-46.01
-47.27
-45.09
-39.20
-30.35
-20.03
-9.98
-1.59
4.60
8.85
11.85
14.26
16.28
17.76
18.40
18.09
17.07
15.83
14.87
14.46
14.53
14.79
14.84
14.49
13.72
12.70
11.64
10.68
9.80
8.93
7.90
6.63
5.06
3.20
1.10
-1.14
-3.42
-5.64
-7.73
-9.61
-11.25
-12.63
-13.80
-14.91
-16.30
-18.36
-21.47
-25.67
-30.50
-34.93
-37.66
-37.49
-33.90
-27.22
-18.60
-9.56
-1.44
4.97
9.56
12.71
14.91
16.55
17.70
18.30
18.24
17.61
16.66
15.71
15.05
14.76
14.76
14.84
14.82
14.61
14.27
13.88
13.49
13.05
12.46
11.62
10.50
9.13
7.56
5.84
3.98
1.96
-0.18
-2.36
-4.51
-6.56
-8.47
-10.31
-12.16
-14.13
-16.34
-18.96
-22.14
-25.86
-29.81
-33.26
-35.18
-34.58
-30.94
-24.51
-16.28
-7.65
0.14
6.37
10.97
14.28
16.74
18.59
19.79
20.25
19.96
19.13
18.12
17.29
16.77
16.50
16.23
15.76
15.06
14.22
13.39
12.59
11.70
10.51
8.87
6.80
4.49
2.21
0.13
-1.77
-3.64
-5.70
-8.06
-10.71
-13.49
-16.17
-18.55
-20.54
-22.16
-23.53
-24.84
-26.33
-28.20
-30.59
-33.48
-36.50
-38.94
-39.82
-38.20
-33.57
-26.16
-16.96
-7.40
1.17
7.96
12.86
16.30
18.86
20.87
22.32
22.99
22.72
21.62
20.10
18.66
17.65
17.18
17.08
17.04
16.81
16.26
15.44
14.46
13.43
12.40
11.36
10.28
9.10
7.75
6.18
4.41
2.54
0.71
-0.95
-2.38
-3.68
-5.03
-6.60
-8.48
-10.64
-13.07
-15.79
-18.93
-22.49
-26.22
-29.39
-30.99
-30.05
-26.14
-19.62
-11.61
-3.59
3.22
8.21
11.53
13.75
15.49
17.08
18.41
19.16
19.01
17.90
16.13
14.25
12.83
12.22
12.39
12.92
13.23
12.81
11.50
9.52
7.40
5.63
4.45
3.69
2.89
1.53
-0.69
-3.71
-7.11
-10.37
-13.09
-15.19
-16.91
-18.67
-20.91
-23.86
-27.51
-31.63
-35.90
-39.88
-43.00
-44.61
-44.02
-40.75
-34.78
-26.66
-17.42
-8.28
-0.25
6.14
10.89
14.34
16.93
18.99
20.66
21.97
22.96
23.74
24.45
25.17
25.86
26.34
26.39
25.91
24.93
23.68
22.42
21.34
20.37
19.30
17.80
15.70
13.04
10.11
7.31
4.95
3.13
1.66
0.16
-1.76
-4.25
-7.19
-10.20
-12.82
-14.79
-16.15
-17.23
-18.53
-20.47
-23.29
-26.93
-31.15
-35.41
-39.02
-41.06
-40.64
-37.14
-30.58
-21.67
-11.72
-2.25
5.58
11.19
14.77
16.91
18.29
19.33
20.15
20.65
20.78
20.61
20.33
20.11
20.01
19.91
19.62
19.02
18.21
17.42
16.92
16.83
16.97
16.93
16.25
14.62
12.07
8.96
5.83
3.19
1.28
0.00
-0.97
-2.08
-3.59
-5.56
-7.79
-10.03
-12.12
-14.08
-16.11
-18.42
-21.21
-24.54
-28.41
-32.71
-37.25
-41.54
-44.74
-45.81
-43.76
-38.21
-29.60
-19.25
-8.88
0.02
6.68
11.25
14.41
16.95
19.29
21.36
22.85
23.49
23.31
22.65
22.01
21.78
22.05
22.60
23.03
22.93
22.10
20.57
18.56
16.37
14.25
12.29
10.44
8.52
6.35
3.82
0.94
-2.13
-5.16
-7.94
-10.35
-12.39
-14.15
-15.81
-17.49
-19.31
-21.41
-23.97
-27.17
-30.98
-34.91
-38.01
-39.07
-37.08
-31.75
-23.72
-14.31
-5.03
2.96
9.20
13.86
17.39
20.17
22.35
23.82
24.46
24.31
23.61
22.70
21.89
21.37
21.14
21.06
20.96
20.75
20.38
19.87
19.23
18.42
17.31
15.86
14.06
12.05
10.00
8.03
6.16
4.25
2.16
-0.23
-2.86
-5.54
-8.01
-10.07
-11.76
-13.32
-15.19
-17.87
-21.71
-26.75
-32.55
-38.25
-42.62
-44.42
-42.78
-37.57
-29.46
-19.81
-10.14
-1.70
4.87
9.60
12.91
15.32
17.18
18.63
19.65
20.23
20.44
20.43
20.36
20.33
20.37
20.40
20.36
20.20
19.94
19.62
19.23
18.68
17.78
16.38
14.45
12.19
9.95
8.06
6.66
5.57
4.35
2.55
-0.05
-3.32
-6.86
-10.19
-13.01
-15.33
-17.41
-19.62
-22.36
-25.85
-30.13
-34.95
-39.64
-43.17
-44.33
-42.20
-36.50
-27.88
-17.69
-7.50
1.42
8.55
14.02
18.38
22.05
25.17
27.53
28.87
29.09
28.37
27.14
25.91
25.06
24.72
24.78
24.94
24.88
24.35
23.30
21.86
20.21
18.51
16.75
14.81
12.49
9.69
6.45
3.00
-0.33
-3.26
-5.57
-7.28
-8.57
-9.70
-11.01
-12.78
-15.29
-18.71
-23.09
-28.24
-33.62
-38.27
-41.02
-40.82
-37.13
-30.25
-21.32
-11.93
-3.55
2.90
7.34
10.28
12.45
14.38
16.14
17.48
18.06
17.73
16.67
15.29
14.07
13.29
13.04
13.17
13.42
13.54
13.40
12.92
12.13
11.10
9.95
8.80
7.75
6.80
5.84
4.70
3.22
1.36
-0.77
-2.97
-5.01
-6.80
-8.37
-9.85
-11.45
-13.36
-15.74
-18.76
-22.50
-26.82
-31.24
-34.90
-36.74
-35.85
-31.81
-24.93
-16.19
-6.94
1.54
8.39
13.34
16.59
18.60
19.82
20.52
20.85
20.87
20.69
20.45
20.31
20.35
20.54
20.71
20.65
20.25
19.59
18.91
18.50
18.52
18.89
19.33
19.43
18.95
17.81
16.15
14.19
12.07
9.82
7.32
4.48
1.28
-2.14
-5.53
-8.64
-11.24
-13.28
-14.83
-16.15
-17.61
-19.63
-22.56
-26.52
-31.26
-36.01
-39.62
-40.82
-38.71
-33.08
-24.64
-14.78
-5.10
3.09
9.16
13.18
15.65
17.16
18.12
18.66
18.80
18.58
18.08
17.49
16.94
16.50
16.12
15.75
15.31
14.79
14.25
13.68
13.07
12.34
11.36
10.02
8.30
6.24
4.00
1.82
-0.13
-1.76
-3.13
-4.36
-5.59
-6.86
-8.08
-9.10
-9.80
-10.20
-10.54
-11.24
-12.79
-15.56
-19.69
-24.86
-30.26
-34.67
-36.75
-35.53
-30.75
-23.12
-14.08
-5.32
1.82
6.77
9.77
11.58
12.95
14.30
15.59
16.50
16.69
16.09
14.92
13.59
12.54
12.01
12.00
12.26
12.45
12.29
11.70
10.81
9.87
9.10
8.53
7.99
7.14
5.66
3.37
0.41
-2.86
-5.95
-8.44
-10.18
-11.29
-12.18
-13.30
-15.00
-17.47
-20.71
-24.59
-28.81
-32.86
-35.98
-37.25
-35.86
-31.40
-24.20
-15.25
-5.96
2.34
8.78
13.16
15.80
17.28
18.11
18.59
18.79
18.76
18.59
18.44
18.46
18.70
19.05
19.26
19.13
18.56
17.66
16.67
15.79
15.08
14.34
13.29
11.67
9.43
6.81
4.19
1.93
0.14
-1.33
-2.85
-4.79
-7.28
-10.14
-12.99
-15.42
-17.30
-18.75
-20.17
-22.06
-24.83
-28.68
-33.43
-38.44
-42.70
-44.97
-44.20
-39.88
-32.37
-22.82
-12.87
-4.05
2.70
7.21
9.97
11.69
12.93
13.82
14.17
13.70
12.41
10.63
9.02
8.19
8.41
9.49
10.81
11.69
11.74
10.98
9.80
8.67
7.88
7.39
6.92
6.12
4.84
3.14
1.27
-0.50
-1.98
-3.17
-4.14
-5.05
-6.04
-7.31
-9.12
-11.76
-15.37
-19.81
-24.41
-28.17
-29.94
-28.91
-24.91
-18.50
-10.75
-2.86
4.29
10.23
14.87
18.32
20.64
21.83
21.90
20.99
19.44
17.72
16.29
15.43
15.13
15.11
14.96
14.33
13.10
11.43
9.64
8.06
6.84
5.89
4.89
3.48
1.48
-1.10
-4.03
-6.94
-9.54
-11.66
-13.33
-14.78
-16.38
-18.56
-21.63
-25.63
-30.14
-34.28
-36.83
-36.69
-33.28
-26.85
-18.44
-9.56
-1.60
4.59
8.92
11.92
14.33
16.61
18.79
20.50
21.31
21.05
19.91
18.42
17.14
16.40
16.20
16.27
16.25
15.88
15.08
13.94
12.57
11.09
9.55
7.99
6.39
4.70
2.83
0.70
-1.72
-4.34
-6.95
-9.29
-11.17
-12.57
-13.67
-14.81
-16.33
-18.56
-21.67
-25.62
-30.02
-34.10
-36.81
-37.04
-34.09
-27.94
-19.43
-9.97
-1.11
6.02
10.99
14.06
15.84
16.95
17.71
18.19
18.29
17.95
17.25
16.41
15.69
15.25
15.09
15.07
14.93
14.44
13.46
11.96
10.04
7.88
5.69
3.62
1.74
0.03
-1.66
-3.45
-5.37
-7.33
-9.06
-10.26
-10.64
-10.15
-8.95
-7.43
-6.10
-5.51
-6.02
-7.71
-10.21
-12.65
-13.87
-12.70
-8.44
-1.23
7.96
17.61
26.26
33.01
37.81
41.26
44.19
47.09
49.94
52.27
53.54
53.51
52.45
50.96
49.60
48.57
47.57
45.90
42.69
37.14
28.57
16.45
0.49
-18.99
-40.80
-62.69
-81.74
-95.07
-100.82
-98.74
-90.30
-78.13
-65.22
-54.10
-46.39
-42.64
-42.46
-44.67
-47.68
-49.84
-49.80
-46.83
-41.01
-33.17
-24.66
-16.98
-11.37
-8.49
-8.20
-9.61
-11.39
-12.16
-10.96
-7.48
-1.99
4.86
12.35
19.80
26.58
32.06
35.76
37.39
37.11
35.42
32.93
30.09
27.03
23.57
19.48
14.71
9.54
4.58
0.66
-1.39
-0.75
3.19
10.86
22.22
36.67
53.05
69.78
85.23
98.17
107.93
114.41
117.81
118.22
115.48
109.23
99.23
85.75
69.76
52.71
36.11
21.00
7.65
-4.28
-15.42
-26.26
-36.97
-47.40
-57.29
-66.42
-74.49
-81.06
-85.44
-86.85
-84.74
-79.09
-70.61
-60.51
-50.17
-40.73
-32.82
-26.59
-21.75
-17.89
-14.56
-11.48
-8.51
-5.71
-3.16
-0.87
1.30
3.63
6.31
9.31
12.30
14.67
15.80
15.24
12.93
9.11
4.27
-1.06
-6.48
-11.75
-16.82
-21.77
-26.74
-31.97
-37.71
-44.30
-51.88
-60.14
-68.05
-73.91
-75.84
-72.61
-64.35
-52.67
-40.10
-29.10
-21.03
-15.79
-12.16
-8.48
-3.34
4.08
14.02
26.32
40.50
55.70
70.71
84.12
94.72
101.79
105.22
105.35
102.76
98.04
91.80
84.71
77.47
70.70
64.78
59.73
55.25
50.92
46.36
41.39
36.03
30.38
24.58
18.76
13.01
7.50
2.39
-2.12
-5.90
-8.93
-11.37
-13.56
-15.93
-18.84
-22.38
-26.29
-30.00
-32.84
-34.33
-34.36
-33.32
-31.96
-31.21
-31.94
-34.58
-38.96
-43.98
-47.84
-48.43
-44.15
-34.64
-21.22
-6.63
5.73
12.99
13.83
8.88
0.53
-7.93
-13.36
-13.61
-8.07
2.51
16.45
31.81
46.76
59.82
69.79
75.83
77.66
75.73
71.27
65.76
60.27
54.90
48.70
40.40
29.24
15.72
1.46
-11.41
-21.34
-27.95
-32.06
-35.06
-38.17
-41.91
-46.02
-49.89
-53.00
-55.28
-57.13
-59.15
-61.79
-65.12
-68.94
-73.03
-77.31
-81.84
-86.51
-90.65
-93.06
-92.31
-87.48
-78.78
-67.62
-56.16
-46.39
-39.49
-35.63
-34.32
-34.98
-37.21
-40.62
-44.34
-46.77
-45.92
-40.19
-29.27
-14.41
1.99
17.21
29.06
36.37
38.94
37.31
32.65
26.60
21.09
17.96
18.26
21.87
27.53
33.30
37.46
39.01
37.82
34.30
28.97
22.32
14.81
7.05
-0.26
-6.53
-11.62
-15.94
-20.29
-25.33
-31.13
-36.88
-41.12
-42.27
-39.40
-32.61
-23.10
-12.65
-3.02
4.70
10.27
14.15
17.00
19.37
21.40
22.96
23.81
23.89
23.31
22.33
21.23
20.18
19.25
18.42
17.72
17.24
17.07
17.23
17.60
17.91
17.80
17.00
15.42
13.23
10.71
8.21
5.95
3.97
2.07
-0.01
-2.54
-5.60
-9.00
-12.41
-15.45
-17.86
-19.70
-21.27
-23.06
-25.60
-29.33
-34.41
-40.65
-47.35
-53.33
-57.06
-57.14
-52.82
-44.40
-33.29
-21.52
-11.01
-2.90
2.67
6.34
8.86
10.69
11.78
11.88
10.96
9.35
7.72
6.64
6.22
6.07
5.47
3.80
0.90
-2.90
-6.94
-10.67
-13.91
-16.96
-20.44
-25.01
-30.97
-38.16
-45.98
-53.62
-60.40
-66.07
-70.81
-75.08
-79.32
-83.78
-88.46
-93.17
-97.45
-100.25
-99.56
-92.28
-74.97
-45.40
-4.23
43.99
91.34
128.62
148.14
146.08
123.39
85.30
39.64
-4.96
-40.46
-60.44
-60.82
-40.63
-2.72
46.09
96.21
137.90
164.41
174.31
171.60
163.68
157.92
158.62
165.79
176.08
185.08
189.50
188.27
182.12
172.36
159.79
144.19
124.72
100.68
72.22
40.83
9.42
-18.11
-37.94
-47.72
-47.71
-41.10
-33.08
-29.22
-33.46
-46.94
-67.92
-92.85
-117.92
-140.32
-158.73
-173.06
-183.75
-191.10
-195.02
-195.21
-191.44
-183.79
-172.73
-159.01
-143.40
-126.44
-108.26
-88.53
-66.60
-41.83
-13.99
16.51
48.76
81.61
114.00
145.00
173.57
198.40
218.09
231.49
238.24
238.79
234.08
225.00
212.07
195.59
176.06
154.64
133.06
113.25
96.77
84.31
75.72
70.21
66.56
63.19
58.25
49.77
36.09
16.34
-9.12
-38.57
-69.05
-96.81
-118.06
-129.77
-130.53
-120.91
-103.38
-81.57
-59.21
-39.22
-23.10
-11.02
-2.35
3.71
7.70
9.77
9.92
8.26
5.12
0.97
-3.78
-8.87
-14.22
-19.71
-24.98
-29.44
-32.50
-33.88
-33.95
-33.63
-34.06
-36.03
-39.64
-44.25
-48.87
-52.60
-55.12
-56.74
-58.37
-61.15
-66.15
-73.96
-84.34
-95.86
-105.93
-111.29
-109.01
-97.61
-77.81
-52.51
-25.78
-1.52
17.75
31.43
40.44
46.43
50.84
54.41
57.16
58.71
58.67
56.95
53.84
49.97
46.11
43.00
41.10
40.49
40.88
41.69
42.22
41.93
40.54
38.22
35.47
32.95
31.29
30.75
31.19
32.10
32.99
33.71
34.70
37.00
41.85
50.22
62.18
76.69
91.50
103.45
109.04
105.21
90.24
64.66
31.60
-3.64
-35.00
-57.50
-68.78
-69.72
-63.59
-54.63
-46.55
-41.59
-40.69
-43.83
-50.44
-59.32
-68.50
-75.37
-77.51
-73.80
-65.11
-54.24
-44.76
-39.48
-39.31
-42.86
-46.98
-47.46
-40.07
-21.76
8.00
46.22
85.95
117.55
131.56
122.38
91.06
45.53
-1.85
-38.72
-56.66
-53.11
-30.74
4.93
48.03
93.77
138.37
178.31
209.72
228.72
232.40
220.11
194.33
160.33
124.63
92.75
67.25
46.99
27.98
5.87
-21.35
-51.80
-80.10
-99.46
-104.54
-93.60
-69.16
-37.01
-4.31
22.52
39.35
44.90
40.33
28.16
10.86
-10.27
-35.52
-66.29
-104.11
-149.70
-202.11
-258.42
-313.99
-363.12
-400.29
-421.64
-426.06
-415.47
-393.92
-365.96
-335.21
-303.82
-272.87
-243.38
-216.67
-194.00
-175.56
-159.94
-144.37
-125.92
-102.65
-74.13
-41.01
-4.27
35.35
77.23
120.41
163.29
203.80
239.96
270.53
295.00
313.33
325.45
331.25
330.91
325.40
316.50
306.18
295.61
284.62
272.02
256.81
239.41
221.76
206.29
194.11
183.84
172.09
155.17
131.23
101.23
68.15
34.96
2.77
-29.76
-65.32
-106.33
-153.76
-207.05
-264.79
-325.45
-387.06
-446.36
-498.17
-535.91
-553.51
-547.56
-518.84
-471.93
-413.30
-349.02
-283.35
-219.11
-158.86
-105.88
-63.91
-35.61
-20.69
-15.03
-11.68
-3.05
16.62
49.84
96.02
152.24
214.29
277.12
334.98
381.83
412.52
424.59
419.66
403.76
385.59
373.67
373.02
383.34
399.11
412.20
415.48
405.84
385.39
359.97
336.15
317.98
305.47
295.27
283.06
266.15
244.71
221.35
199.22
180.24
164.17
149.16
133.24
115.44
96.29
77.19
59.38
43.08
27.36
10.48
-9.38
-33.44
-61.98
-94.37
-129.39
-165.62
-202.02
-238.09
-273.95
-310.13
-347.23
-385.71
-426.03
-469.07
-516.16
-568.44
-625.47
-683.78
-736.59
-775.20
-791.88
-782.86
-749.95
-699.73
-640.89
-581.03
-524.62
-472.78
-424.65
-379.01
-335.28
-293.45
-253.37
-214.36
-175.16
-134.72
-92.64
-49.49
-6.49
35.14
74.98
113.76
153.07
194.46
238.17
282.47
323.72
357.42
379.88
389.49
387.17
375.67
358.26
337.42
314.31
289.03
261.54
232.54
203.83
177.96
157.36
143.34
135.60
132.16
130.00
126.03
117.95
104.63
86.20
63.77
39.15
14.51
-7.78
-25.57
-37.45
-43.40
-45.11
-45.57
-47.92
-53.85
-62.50
-70.47
-73.10
-66.38
-48.67
-21.26
12.25
47.36
80.08
107.67
128.71
142.78
150.04
151.12
147.30
140.48
132.98
126.99
123.98
124.41
127.74
132.85
138.58
144.06
148.91
153.00
156.19
158.05
157.85
154.71
147.73
136.13
119.17
96.23
66.92
31.50
-8.89
-52.34
-96.70
-140.26
-182.09
-221.62
-257.64
-287.67
-308.12
-315.60
-308.48
-287.77
-256.55
-218.43
-175.93
-130.02
-81.09
-30.46
18.66
61.57
93.96
113.77
122.10
122.41
118.73
113.81
108.36
101.56
92.24
80.00
65.72
51.21
38.49
28.96
22.97
19.97
18.92
18.83
19.25
20.12
21.59
23.61
25.74
27.17
27.00
24.61
19.85
13.12
5.12
-3.31
-11.54
-19.25
-26.41
-33.22
-40.03
-47.32
-55.69
-65.70
-77.57
-90.66
-103.23
-112.44
-115.15
-108.95
-93.23
-69.65
-41.69
-13.44
11.71
31.99
47.38
58.88
67.65
74.27
78.68
80.52
79.64
76.47
71.87
66.81
61.93
57.31
52.51
46.99
40.49
33.29
26.18
20.09
15.55
12.36
9.58
5.94
0.40
-7.29
-16.50
-25.99
-34.44
-40.99
-45.57
-48.81
-51.76
-55.60
-61.28
-69.27
-79.27
-89.87
-98.62
-102.43
-98.57
-85.69
-64.57
-38.09
-10.25
15.12
35.62
50.72
61.34
69.00
74.79
79.03
81.34
81.22
78.52
73.73
67.79
61.70
56.19
51.50
47.48
43.82
40.32
36.94
33.73
30.74
27.85
24.86
21.52
17.64
13.11
7.87
1.89
-4.76
-11.88
-19.11
-26.01
-32.24
-37.70
-42.55
-47.19
-52.05
-57.58
-64.18
-72.11
-81.21
-90.51
-98.06
-101.12
-97.02
-84.28
-63.48
-37.33
-9.86
15.03
34.82
48.89
58.23
64.45
68.85
71.91
73.49
73.27
71.20
67.70
63.44
59.06
54.95
51.23
47.90
44.98
42.56
40.74
39.41
38.21
36.60
34.07
30.33
25.51
20.07
14.55
9.32
4.38
-0.58
-6.01
-12.16
-18.97
-26.04
-32.85
-38.97
-44.30
-49.13
-53.99
-59.60
-66.60
-75.40
-85.72
-96.31
-104.82
-108.24
-103.85
-90.31
-68.50
-41.45
-13.39
11.65
31.12
44.49
52.84
57.92
61.15
63.20
64.02
63.34
61.10
57.69
53.69
49.73
46.14
42.97
40.13
37.53
35.17
33.05
31.10
29.07
26.60
23.38
19.35
14.68
9.63
4.43
-0.92
-6.53
-12.53
-18.85
-25.25
-31.35
-36.86
-41.68
-46.00
-50.19
-54.71
-60.06
-66.68
-74.79
-83.99
-92.92
-99.27
-100.23
-93.49
-78.31
-56.11
-30.13
-4.42
17.62
34.26
45.62
53.08
58.14
61.69
63.74
63.78
61.50
57.21
51.91
46.88
43.17
41.01
39.89
38.77
36.72
33.38
29.10
24.70
20.96
18.21
16.05
13.63
10.04
4.83
-1.81
-9.06
-15.86
-21.37
-25.25
-27.84
-29.93
-32.40
-35.99
-41.06
-47.64
-55.50
-64.03
-72.11
-78.02
-79.70
-75.27
-63.89
-46.25
-24.58
-1.98
18.58
35.20
47.33
55.54
60.79
63.85
65.03
64.33
61.76
57.62
52.52
47.25
42.51
38.72
35.91
33.87
32.27
30.86
29.49
28.14
26.71
25.06
22.92
20.04
16.36
12.08
7.61
3.38
-0.40
-3.85
-7.39
-11.53
-16.58
-22.49
-28.76
-34.62
-39.32
-42.50
-44.46
-46.08
-48.62
-53.21
-60.33
-69.45
-78.92
-86.25
-88.75
-84.39
-72.48
-54.01
-31.42
-7.91
13.57
31.04
43.87
52.55
58.10
61.44
62.98
62.76
60.75
57.15
52.60
47.98
44.09
41.27
39.37
37.85
36.17
34.08
31.77
29.65
28.08
27.08
26.21
24.80
22.22
18.22
13.07
7.47
2.26
-1.91
-4.85
-6.93
-8.84
-11.39
-15.11
-19.99
-25.59
-31.15
-35.96
-39.63
-42.24
-44.26
-46.39
-49.35
-53.68
-59.69
-67.16
-75.19
-82.09
-85.60
-83.40
-74.06
-57.70
-36.14
-12.52
9.80
28.25
41.71
50.49
55.73
58.63
60.00
60.10
58.89
56.43
52.98
49.11
45.42
42.35
40.00
38.16
36.52
34.78
32.85
30.77
28.62
26.39
23.95
21.14
17.82
14.05
9.97
5.80
1.62
-2.62
-7.04
-11.68
-16.44
-21.04
-25.16
-28.62
-31.50
-34.21
-37.41
-41.78
-47.71
-54.97
-62.47
-68.32
-70.32
-66.62
-56.55
-41.00
-22.20
-3.02
13.99
27.33
36.79
43.02
46.97
49.34
50.39
50.08
48.41
45.60
42.11
38.55
35.37
32.83
30.89
29.35
27.93
26.46
24.87
23.13
21.23
19.06
16.47
13.37
9.82
6.02
2.23
-1.32
-4.61
-7.83
-11.23
-15.04
-19.28
-23.69
-27.92
-31.61
-34.61
-37.14
-39.67
-42.93
-47.50
-53.55
-60.49
-66.92
-70.89
-70.43
-64.27
-52.30
-35.74
-16.76
2.12
18.80
32.02
41.54
47.82
51.64
53.71
54.39
53.80
51.93
48.99
45.38
41.72
38.60
36.32
34.79
33.62
32.35
30.73
28.87
27.10
25.75
24.90
24.21
23.06
20.83
17.21
12.42
7.15
2.27
-1.59
-4.31
-6.34
-8.49
-11.48
-15.60
-20.56
-25.62
-29.98
-33.14
-35.13
-36.58
-38.37
-41.48
-46.56
-53.79
-62.72
-72.16
-80.22
-84.60
-83.15
-74.58
-59.11
-38.57
-15.96
5.46
23.22
36.22
44.77
49.96
52.96
54.49
54.78
53.78
51.61
48.68
45.62
42.95
40.80
38.97
37.04
34.74
32.11
29.52
27.42
26.01
25.10
24.08
22.24
19.06
14.53
9.12
3.69
-0.90
-4.10
-5.88
-6.77
-7.61
-9.27
-12.26
-16.59
-21.76
-26.98
-31.48
-34.83
-37.10
-38.91
-41.21
-44.96
-50.71
-58.16
-65.99
-72.02
-73.77
-69.33
-58.17
-41.44
-21.67
-1.90
15.30
28.58
37.87
44.02
48.07
50.73
52.21
52.38
51.18
48.80
45.76
42.67
39.98
37.84
36.12
34.55
32.92
31.18
29.39
27.60
25.77
23.71
21.18
18.02
14.28
10.16
5.94
1.81
-2.19
-6.16
-10.25
-14.54
-18.98
-23.37
-27.49
-31.19
-34.45
-37.49
-40.69
-44.53
-49.42
-55.38
-61.81
-67.30
-69.94
-67.81
-59.78
-46.02
-28.15
-8.72
9.60
24.80
36.03
43.52
48.15
50.89
52.35
52.78
52.15
50.45
47.82
44.69
41.57
38.91
36.95
35.65
34.78
34.06
33.29
32.34
31.21
29.83
28.17
26.16
23.75
21.00
17.97
14.71
11.21
7.48
3.63
-0.09
-3.34
-5.86
-7.62
-8.93
-10.35
-12.46
-15.59
-19.74
-24.47
-29.19
-33.36
-36.67
-39.20
-41.36
-43.72
-46.94
-51.54
-57.70
-65.03
-72.36
-77.84
-79.33
-74.97
-64.03
-47.22
-26.73
-5.49
13.68
28.96
39.81
46.80
51.01
53.45
54.69
54.91
54.15
52.51
50.27
47.85
45.58
43.64
42.01
40.55
39.06
37.46
35.84
34.39
33.30
32.57
31.97
30.98
29.12
26.15
22.25
17.99
14.01
10.73
8.12
5.74
3.04
-0.27
-4.09
-7.92
-11.17
-13.50
-15.05
-16.36
-18.11
-20.84
-24.62
-29.06
-33.46
-37.18
-39.91
-41.80
-43.43
-45.54
-48.89
-53.91
-60.55
-67.99
-74.60
-78.19
-76.58
-68.42
-53.79
-34.46
-13.36
6.40
22.52
34.07
41.44
45.68
47.88
48.73
48.48
47.20
45.05
42.40
39.73
37.39
35.55
34.04
32.56
30.83
28.74
26.45
24.27
22.61
21.64
21.25
20.98
20.15
18.16
14.76
10.22
5.21
0.59
-2.97
-5.29
-6.77
-8.21
-10.48
-14.06
-18.85
-24.17
-29.09
-32.84
-35.14
-36.35
-37.24
-38.70
-41.48
-45.93
-52.02
-59.21
-66.35
-71.82
-73.63
-70.06
-60.30
-44.96
-26.07
-6.50
11.00
24.66
34.04
39.81
43.16
45.10
46.14
46.33
45.50
43.62
40.93
37.88
34.97
32.54
30.71
29.37
28.27
27.21
26.08
24.91
23.75
22.56
21.15
19.26
16.69
13.43
9.66
5.74
2.00
-1.30
-4.06
-6.32
-8.21
-9.96
-11.88
-14.27
-17.36
-21.12
-25.30
-29.44
-33.11
-36.03
-38.23
-39.98
-41.79
-44.21
-47.75
-52.70
-58.99
-65.97
-72.29
-76.07
-75.33
-68.66
-55.86
-38.16
-17.94
1.99
19.22
32.43
41.44
46.98
50.05
51.51
51.79
51.00
49.20
46.61
43.68
40.90
38.65
36.99
35.72
34.52
33.19
31.76
30.49
29.66
29.36
29.36
29.15
28.16
26.03
22.78
18.80
14.76
11.32
8.83
7.26
6.14
4.86
2.84
-0.11
-3.81
-7.72
-11.23
-13.90
-15.73
-17.14
-18.79
-21.27
-24.84
-29.28
-33.98
-38.21
-41.44
-43.62
-45.15
-46.76
-49.30
-53.43
-59.38
-66.72
-74.23
-79.98
-81.71
-77.56
-66.78
-50.14
-29.85
-8.82
10.20
25.41
36.32
43.45
47.81
50.33
51.58
51.73
50.79
48.86
46.23
43.34
40.66
38.48
36.86
35.63
34.53
33.36
32.09
30.77
29.51
28.32
27.05
25.49
23.44
20.87
17.91
14.77
11.70
8.79
6.03
3.33
0.63
-2.15
-5.00
-7.90
-10.89
-14.01
-17.28
-20.65
-24.02
-27.21
-30.10
-32.70
-35.15
-37.75
-40.89
-45.00
-50.42
-57.10
-64.44
-71.05
-74.98
-74.16
-67.20
-54.01
-36.08
-16.07
3.05
19.00
30.76
38.57
43.47
46.55
48.52
49.54
49.47
48.23
46.02
43.31
40.71
38.61
37.09
35.95
34.81
33.41
31.72
29.98
28.53
27.56
26.94
26.20
24.72
21.96
17.83
12.68
7.26
2.41
-1.29
-3.75
-5.45
-7.19
-9.80
-13.72
-18.86
-24.55
-29.88
-34.07
-36.77
-38.27
-39.30
-40.85
-43.75
-48.54
-55.16
-62.92
-70.49
-75.96
-77.30
-72.93
-62.35
-46.46
-27.44
-8.04
9.27
22.95
32.70
39.13
43.28
45.96
47.61
48.25
47.83
46.39
44.24
41.85
39.66
37.98
36.79
35.89
34.92
33.63
31.96
30.08
28.32
26.87
25.76
24.70
23.24
20.91
17.51
13.17
8.35
3.70
-0.23
-3.19
-5.31
-7.05
-8.99
-11.63
-15.16
-19.44
-23.99
-28.28
-31.86
-34.61
-36.72
-38.69
-41.10
-44.49
-49.28
-55.56
-63.03
-70.75
-77.17
-80.29
-78.22
-69.83
-55.32
-36.32
-15.51
4.25
20.71
32.77
40.51
44.81
46.75
47.26
46.88
45.85
44.31
42.46
40.59
38.99
37.78
36.92
36.16
35.16
33.67
31.63
29.29
27.04
25.27
24.12
23.36
22.48
20.86
18.10
14.18
9.51
4.73
0.47
-2.94
-5.55
-7.76
-10.06
-12.86
-16.37
-20.47
-24.87
-29.18
-33.02
-36.15
-38.59
-40.62
-42.74
-45.69
-50.12
-56.36
-63.97
-71.62
-77.14
-78.14
-72.81
-60.75
-43.29
-23.09
-3.29
13.52
26.05
34.38
39.51
42.66
44.69
45.93
46.29
45.65
44.11
42.04
39.95
38.23
37.01
36.12
35.23
34.10
32.71
31.30
30.22
29.64
29.41
28.97
27.63
24.89
20.69
15.56
10.35
5.96
2.90
1.05
-0.22
-1.85
-4.65
-8.94
-14.48
-20.50
-26.07
-30.49
-33.54
-35.64
-37.64
-40.57
-45.24
-51.86
-59.82
-67.56
-72.88
-73.51
-67.85
-55.68
-38.36
-18.51
0.86
17.29
29.54
37.70
42.71
45.78
47.79
49.09
49.66
49.35
48.17
46.38
44.39
42.59
41.19
40.18
39.33
38.39
37.24
35.91
34.55
33.30
32.10
30.71
28.82
26.23
22.97
19.31
15.63
12.23
9.22
6.51
3.90
1.27
-1.36
-3.86
-6.07
-8.02
-9.89
-12.01
-14.69
-18.05
-21.90
-25.89
-29.62
-32.82
-35.44
-37.74
-40.15
-43.24
-47.56
-53.39
-60.43
-67.53
-72.76
-73.83
-68.90
-57.40
-40.42
-20.50
-0.74
16.23
29.04
37.72
43.22
46.73
49.06
50.48
50.86
50.12
48.39
46.09
43.70
41.62
39.97
38.61
37.31
35.87
34.26
32.60
31.08
29.80
28.67
27.46
25.85
23.68
20.96
17.91
14.81
11.81
8.92
6.00
2.96
-0.19
-3.24
-5.95
-8.18
-10.10
-12.05
-14.49
-17.66
-21.46
-25.46
-29.13
-32.09
-34.34
-36.29
-38.57
-41.81
-46.45
-52.52
-59.56
-66.54
-71.88
-73.72
-70.43
-61.21
-46.58
-28.41
-9.39
7.82
21.40
30.80
36.60
39.88
41.69
42.61
42.84
42.38
41.34
40.02
38.72
37.65
36.75
35.77
34.40
32.54
30.36
28.25
26.61
25.61
25.03
24.34
22.90
20.27
16.39
11.67
6.81
2.53
-0.75
-3.09
-5.00
-7.19
-10.26
-14.35
-19.10
-23.79
-27.64
-30.25
-31.70
-32.62
-33.89
-36.38
-40.60
-46.50
-53.32
-59.64
-63.57
-63.23
-57.40
-46.05
-30.54
-13.28
3.12
16.70
26.69
33.46
37.97
41.08
43.15
44.04
43.50
41.55
38.67
35.62
33.10
31.44
30.50
29.78
28.79
27.27
25.35
23.40
21.86
20.94
20.47
19.95
18.77
16.48
12.98
8.66
4.17
0.21
-2.79
-4.84
-6.39
-8.13
-10.66
-14.22
-18.57
-23.09
-27.03
-29.88
-31.55
-32.43
-33.18
-34.56
-37.20
-41.40
-47.09
-53.61
-59.65
-63.39
-62.93
-56.92
-45.26
-29.27
-11.40
5.56
19.47
29.39
35.61
39.20
41.31
42.65
43.40
43.43
42.58
40.93
38.79
36.57
34.58
32.92
31.49
30.05
28.44
26.58
24.59
22.67
21.02
19.70
18.53
17.17
15.24
12.41
8.65
4.24
-0.31
-4.44
-7.72
-10.06
-11.73
-13.20
-15.00
-17.47
-20.63
-24.22
-27.85
-31.13
-33.84
-35.99
-37.80
-39.59
-41.76
-44.69
-48.70
-53.84
-59.69
-65.14
-68.44
-67.62
-61.25
-49.07
-32.38
-13.74
3.93
18.29
28.31
34.31
37.46
39.06
39.91
40.24
39.88
38.71
36.79
34.46
32.09
29.94
28.08
26.44
24.95
23.60
22.48
21.64
21.03
20.43
19.55
18.06
15.75
12.58
8.72
4.53
0.39
-3.36
-6.56
-9.37
-12.10
-15.13
-18.63
-22.45
-26.17
-29.28
-31.44
-32.74
-33.64
-34.94
-37.45
-41.66
-47.45
-53.89
-59.35
-61.81
-59.48
-51.52
-38.41
-21.99
-4.83
10.60
22.64
30.85
35.78
38.44
39.81
40.48
40.59
40.08
38.90
37.20
35.27
33.45
31.93
30.71
29.64
28.55
27.37
26.19
25.11
24.17
23.22
21.92
19.92
17.00
13.21
8.86
4.41
0.34
-3.04
-5.68
-7.80
-9.81
-12.13
-15.03
-18.45
-22.02
-25.22
-27.66
-29.26
-30.39
-31.73
-34.02
-37.81
-43.23
-49.73
-56.12
-60.62
-61.35
-56.89
-46.87
-32.34
-15.50
0.96
14.79
24.88
31.43
35.51
38.34
40.64
42.40
43.14
42.44
40.33
37.41
34.56
32.46
31.30
30.62
29.63
27.66
24.60
21.06
18.07
16.53
16.50
17.02
16.43
13.29
7.28
-0.28
-6.82
-9.54
-6.67
1.90
14.69
29.41
43.83
56.28
65.63
71.28
73.08
71.57
67.96
63.67
59.34
53.81
43.89
25.27
-5.47
-48.66
-100.08
-151.37
-192.21
-213.59
-210.74
-184.63
-141.18
-88.96
-36.17
11.49
51.46
83.53
108.30
126.18
137.25
142.03
142.13
140.36
139.80
142.48
148.46
155.76
161.43
162.86
159.04
150.84
140.56
130.75
123.15
118.00
114.16
109.69
102.67
92.01
77.62
60.32
41.31
21.69
1.96
-18.04
-38.98
-61.64
-86.44
-112.95
-139.90
-165.36
-187.58
-205.60
-219.78
-231.63
-243.17
-256.09
-271.18
-288.22
-306.12
-323.03
-336.32
-342.67
-338.67
-321.92
-292.34
-252.83
-208.58
-165.34
-127.34
-95.98
-69.99
-46.78
-24.23
-1.74
19.88
39.48
56.72
72.51
88.55
106.13
125.17
144.00
160.03
171.06
176.35
176.80
174.34
170.73
166.58
161.20
153.28
141.95
127.67
112.21
98.10
87.60
81.94
81.05
83.77
88.21
92.11
93.11
89.11
78.66
61.68
39.83
16.43
-4.38
-18.95
-25.41
-24.19
-17.58
-8.58
0.31
7.89
14.17
19.81
25.46
31.38
37.50
43.58
49.45
54.80
59.16
61.83
62.16
60.04
56.18
52.06
49.34
49.15
51.39
54.59
56.41
54.51
47.47
35.30
19.36
1.64
-16.19
-33.65
-51.62
-71.90
-96.15
-124.85
-156.81
-189.48
-219.91
-245.63
-265.31
-278.81
-286.77
-290.13
-290.07
-288.03
-285.74
-284.73
-285.39
-286.23
-283.79
-273.52
-251.38
-215.36
-166.42
-108.35
-46.84
11.91
62.57
101.71
128.38
144.11
152.29
157.05
161.97
169.03
178.20
187.86
195.81
200.27
200.32
196.08
188.24
177.70
165.42
152.36
139.46
127.59
117.37
109.09
102.60
97.48
93.13
88.95
84.40
79.14
73.10
66.41
59.21
51.39
42.30
30.86
15.96
-3.06
-25.84
-50.99
-76.39
-99.89
-119.91
-135.89
-148.39
-158.70
-168.41
-178.91
-191.08
-205.09
-220.22
-234.71
-245.91
-250.90
-247.41
-234.94
-215.26
-191.95
-169.12
-149.83
-134.98
-123.38
-112.76
-101.15
-87.79
-73.09
-57.86
-42.37
-26.06
-7.80
13.41
37.81
64.87
93.57
122.81
151.73
179.48
205.02
227.03
244.16
255.50
261.17
262.20
260.09
256.28
251.61
246.28
240.19
233.15
224.98
215.43
203.98
190.01
173.20
154.01
133.86
114.67
97.92
83.75
70.53
55.37
35.26
8.40
-25.01
-62.67
-100.85
-135.47
-163.16
-182.08
-192.28
-195.54
-194.73
-193.00
-192.61
-194.18
-196.43
-196.66
-191.86
-179.79
-159.75
-132.63
-100.50
-65.90
-31.32
1.10
29.65
53.17
71.10
83.61
91.47
95.92
98.21
99.30
99.54
98.72
96.29
91.72
84.83
75.97
65.94
55.74
46.27
38.06
31.19
25.32
19.93
14.57
9.07
3.60
-1.42
-5.59
-8.75
-11.10
-13.19
-15.77
-19.52
-24.88
-31.76
-39.44
-46.61
-51.53
-52.57
-48.75
-40.17
-28.05
-14.32
-0.94
10.72
20.17
27.65
33.83
39.24
44.18
48.60
52.32
55.11
56.87
57.61
57.48
56.78
55.84
54.96
54.22
53.50
52.56
51.18
49.24
46.82
44.10
41.21
38.22
35.09
31.75
28.23
24.62
21.06
17.69
14.57
11.67
8.91
6.18
3.35
0.34
-2.93
-6.47
-10.23
-14.06
-17.79
-21.27
-24.45
-27.46
-30.59
-34.25
-38.82
-44.46
-50.94
-57.48
-62.78
-65.30
-63.73
-57.50
-47.08
-33.91
-19.94
-7.03
3.67
11.87
17.99
22.71
26.53
29.55
31.62
32.52
32.28
31.17
29.66
28.18
26.94
25.90
24.83
23.54
21.94
20.22
18.67
17.61
17.13
17.05
16.92
16.21
14.53
11.81
8.41
4.95
1.98
-0.19
-1.78
-3.37
-5.66
-9.12
-13.69
-18.85
-23.78
-27.85
-30.78
-32.80
-34.44
-36.34
-39.00
-42.76
-47.72
-53.66
-59.85
-65.00
-67.41
-65.47
-58.35
-46.42
-31.35
-15.45
-0.92
10.90
19.79
26.34
31.39
35.54
38.97
41.56
43.19
43.93
43.96
43.52
42.69
41.46
39.76
37.63
35.24
32.91
30.94
29.46
28.37
27.29
25.80
23.51
20.27
16.22
11.67
7.01
2.50
-1.73
-5.75
-9.71
-13.73
-17.80
-21.80
-25.51
-28.77
-31.58
-34.17
-37.01
-40.63
-45.43
-51.33
-57.59
-62.83
-65.33
-63.60
-56.97
-45.93
-32.05
-17.43
-4.00
7.08
15.57
21.91
26.77
30.61
33.53
35.41
36.12
35.79
34.80
33.59
32.44
31.39
30.23
28.73
26.78
24.55
22.40
20.72
19.72
19.23
18.77
17.74
15.70
12.61
8.81
4.93
1.54
-1.06
-2.98
-4.68
-6.78
-9.74
-13.71
-18.41
-23.25
-27.53
-30.78
-32.88
-34.16
-35.28
-37.01
-40.05
-44.76
-51.01
-57.99
-64.31
-68.13
-67.71
-61.97
-51.02
-36.22
-19.84
-4.27
8.68
18.25
24.72
28.92
31.76
33.78
35.13
35.77
35.71
35.11
34.26
33.38
32.50
31.47
30.07
28.25
26.21
24.34
22.98
22.28
22.01
21.63
20.57
18.41
15.14
11.09
6.88
3.15
0.28
-1.75
-3.41
-5.41
-8.39
-12.53
-17.49
-22.48
-26.64
-29.45
-30.93
-31.69
-32.57
-34.39
-37.68
-42.52
-48.53
-54.78
-59.84
-62.00
-59.75
-52.33
-40.21
-25.06
-9.29
4.81
15.71
23.06
27.50
30.10
31.78
33.03
33.86
34.11
33.67
32.66
31.34
30.00
28.84
27.86
26.97
26.04
24.97
23.74
22.33
20.72
18.87
16.78
14.50
12.09
9.62
7.07
4.35
1.34
-1.99
-5.55
-9.15
-12.54
-15.58
-18.36
-21.11
-24.24
-28.11
-33.02
-39.04
-46.02
-53.38
-60.12
-64.83
-65.96
-62.26
-53.36
-40.06
-24.22
-8.28
5.55
15.95
22.78
26.84
29.32
31.17
32.76
33.97
34.42
33.87
32.39
30.33
28.13
26.13
24.44
22.96
21.57
20.21
18.91
17.75
16.71
15.63
14.18
12.11
9.32
6.04
2.72
-0.21
-2.50
-4.29
-5.97
-8.01
-10.70
-14.00
-17.60
-21.06
-24.00
-26.31
-28.23
-30.26
-33.06
-37.16
-42.71
-49.16
-55.20
-58.95
-58.54
-52.83
-41.88
-27.06
-10.66
4.96
18.10
28.07
35.21
40.33
44.23
47.36
49.76
51.29
51.88
51.74
51.28
50.99
51.22
52.03
53.15
54.13
54.46
53.88
52.47
50.68
49.14
48.32
48.34
48.82
49.09
48.54
46.90
44.38
41.47
38.77
36.70
35.56
35.61
37.04
39.92
43.98
48.53
52.66
55.70
57.40
58.02
57.84
56.62
53.22
45.83
32.79
13.64
-10.05
-34.76
-55.95
-69.65
-73.89
-69.38
-59.21
-47.57
-38.16
-33.00
-32.04
-33.62
-35.58
-36.33
-35.38
-33.46
-31.97
-32.32
-35.37
-41.14
-48.84
-57.37
-65.75
-73.50
-80.56
-86.94
-92.31
-95.79
-96.26
-92.85
-85.54
-75.20
-63.33
-51.52
-40.94
-32.28
-25.75
-21.07
-17.31
-12.71
-4.76
9.05
30.22
58.34
90.91
124.32
155.20
181.58
203.21
220.85
235.22
246.06
252.06
251.29
242.14
224.09
198.02
166.24
132.10
99.27
70.81
48.19
30.75
15.93
0.20
-19.44
-44.08
-72.23
-100.20
-123.28
-137.30
-139.91
-131.20
-113.50
-90.62
-66.81
-45.79
-30.11
-20.74
-17.19
-17.81
-20.46
-23.26
-25.16
-26.17
-27.10
-29.10
-32.99
-39.00
-46.89
-56.40
-67.68
-81.31
-97.88
-117.23
-137.96
-157.57
-173.11
-182.11
-183.05
-175.45
-159.57
-136.12
-106.42
-72.80
-38.90
-9.32
11.44
20.64
18.45
8.00
-5.81
-18.29
-26.66
-30.72
-32.31
-33.93
-37.33
-42.77
-49.07
-54.41
-57.32
-57.29
-54.87
-51.36
-48.28
-46.94
-48.27
-52.67
-60.04
-69.79
-80.88
-92.03
-102.04
-110.23
-116.61
-121.94
-127.16
-132.82
-138.62
-143.39
-145.59
-144.01
-138.28
-129.07
-117.76
-106.00
-95.28
-86.79
-81.31
-79.03
-79.22
-79.97
-78.36
-71.30
-56.70
-34.54
-7.13
21.69
48.01
69.26
84.81
95.65
103.32
108.88
112.57
114.09
113.29
110.62
107.16
104.06
102.03
100.95
100.08
98.49
95.56
91.26
86.12
80.94
76.34
72.58
69.37
66.10
62.07
56.80
50.29
42.95
35.48
28.51
22.44
17.19
12.46
7.73
2.60
-3.23
-9.92
-17.52
-25.94
-34.69
-42.73
-48.41
-49.89
-45.75
-35.70
-20.90
-3.70
13.20
27.65
38.69
46.67
52.63
57.59
61.97
65.52
67.66
68.07
66.99
65.22
63.73
63.23
63.87
65.27
66.76
67.80
68.22
68.19
68.05
67.98
67.85
67.29
65.93
63.63
60.55
57.09
53.62
50.30
47.06
43.75
40.36
37.13
34.37
32.17
30.12
27.23
22.24
14.14
2.77
-10.83
-24.50
-35.58
-41.76
-41.98
-36.84
-28.46
-19.66
-13.12
-10.50
-12.15
-17.27
-24.24
-31.13
-36.05
-37.46
-34.38
-26.66
-15.12
-1.51
11.89
22.84
29.76
32.11
30.24
25.06
17.40
7.74
-3.82
-17.13
-31.59
-45.99
-58.79
-68.74
-75.37
-79.17
-81.10
-82.02
-82.28
-81.65
-79.74
-76.41
-71.95
-66.93
-61.85
-56.94
-52.18
-47.49
-42.91
-38.71
-35.19
-32.62
-31.11
-30.78
-31.76
-34.20
-37.99
-42.47
-46.27
-47.54
-44.48
-36.11
-22.80
-6.30
10.90
26.37
38.65
47.56
53.90
58.74
62.77
65.93
67.70
67.60
65.72
62.85
60.15
58.64
58.70
59.94
61.48
62.32
61.92
60.27
57.91
55.49
53.50
52.01
50.66
48.88
46.12
42.14
37.04
31.34
25.71
20.82
17.15
14.82
13.64
13.14
12.78
12.09
10.86
9.21
7.52
6.27
5.87
6.45
7.80
9.45
10.84
11.39
10.73
8.82
6.20
4.04
4.02
7.89
16.83
30.88
48.86
68.69
88.18
105.69
120.45
132.38
141.52
147.74
150.59
149.62
144.88
137.13
127.80
118.51
110.61
104.71
100.66
97.74
95.18
92.48
89.59
86.62
83.51
79.80
74.72
67.59
58.28
47.41
36.16
25.89
17.55
11.58
7.94
6.31
6.28
7.38
8.99
10.38
10.83
9.85
7.22
2.92
-3.21
-11.69
-23.51
-39.77
-60.94
-86.07
-112.34
-135.49
-151.20
-156.76
-152.25
-140.59
-126.13
-112.69
-101.94
-93.04
-83.61
-71.41
-55.73
-37.73
-19.88
-4.72
6.05
11.99
13.49
11.24
5.59
-3.65
-17.16
-35.52
-58.65
-85.36
-113.29
-139.40
-160.74
-175.16
-181.76
-180.79
-173.28
-160.58
-144.04
-124.90
-104.39
-83.80
-64.48
-47.69
-34.44
-25.33
-20.48
-19.59
-22.06
-27.06
-33.51
-40.00
-44.81
-46.10
-42.42
-33.23
-19.30
-2.58
14.36
29.22
40.67
48.53
53.57
56.89
59.43
61.66
63.73
65.68
67.69
70.10
73.21
77.13
81.55
85.93
89.68
92.56
94.84
97.29
100.78
105.87
112.41
119.43
125.51
129.41
130.67
129.97
128.82
128.85
130.78
133.90
136.06
134.41
126.40
110.53
86.62
55.73
19.99
-17.64
-53.48
-83.73
-105.34
-117.02
-119.85
-116.96
-112.42
-109.78
-110.89
-115.60
-122.32
-128.97
-133.90
-136.38
-136.64
-135.74
-135.19
-136.58
-141.04
-148.76
-158.70
-168.67
-175.97
-178.25
-174.42
-164.98
-151.85
-137.58
-124.29
-112.78
-102.12
-90.06
-74.05
-52.53
-25.80
3.90
33.17
58.72
78.43
91.71
99.12
101.54
99.53
93.14
82.29
67.25
48.78
28.01
6.02
-16.25
-37.73
-56.94
-71.93
-80.72
-82.05
-76.00
-64.05
-48.66
-32.35
-17.05
-3.78
7.12
15.67
21.91
25.82
27.44
26.86
24.12
19.15
11.53
0.78
-13.42
-30.83
-50.57
-71.28
-91.58
-110.43
-127.37
-142.44
-155.82
-167.60
-177.62
-185.51
-190.79
-192.88
-191.09
-184.71
-173.21
-156.69
-136.18
-113.61
-91.32
-71.30
-54.47
-40.48
-28.03
-15.55
-1.85
13.79
31.92
53.37
79.32
110.90
148.41
190.58
234.68
277.03
314.30
344.55
367.60
384.64
397.31
406.82
413.69
418.00
419.75
418.95
415.49
408.85
398.24
383.01
363.16
339.52
313.35
285.69
256.85
226.62
194.97
162.74
131.79
104.26
81.50
63.25
47.74
32.67
16.42
-1.32
-19.59
-37.02
-52.75
-67.01
-81.06
-96.62
-115.20
-137.65
-163.95
-193.12
-223.16
-251.08
-273.33
-286.72
-289.72
-283.33
-270.95
-257.16
-245.60
-237.47
-231.25
-223.87
-212.71
-197.19
-179.02
-161.27
-146.82
-137.32
-132.75
-131.60
-131.27
-128.49
-119.93
-103.23
-78.02
-46.53
-13.06
17.45
41.34
57.56
67.58
74.15
79.62
84.97
89.85
93.55
95.92
97.71
100.10
103.81
108.52
112.92
115.36
114.68
110.84
104.87
98.28
92.28
87.25
82.70
77.66
71.35
63.65
55.18
46.94
39.66
33.38
27.37
20.57
12.21
2.34
-7.99
-17.18
-23.71
-26.80
-26.67
-24.40
-21.44
-19.16
-18.39
-19.45
-22.23
-26.44
-31.74
-37.82
-44.42
-51.24
-58.00
-64.46
-70.54
-76.31
-82.02
-87.96
-94.30
-101.00
-107.94
-115.00
-122.29
-130.17
-139.08
-149.38
-161.07
-173.75
-186.70
-199.06
-210.00
-218.90
-225.54
-230.17
-233.55
-236.63
-240.15
-243.97
-246.85
-246.55
-240.56
-227.05
-205.65
-177.52
-144.84
-109.94
-74.45
-38.98
-3.30
33.37
72.00
113.54
158.54
206.62
256.02
303.41
344.53
375.40
393.75
399.74
395.69
384.93
370.38
353.68
335.18
314.53
291.27
265.21
236.22
204.17
169.07
131.48
92.91
55.76
22.69
-4.27
-24.55
-39.35
-51.38
-63.86
-79.39
-98.74
-120.29
-140.20
-153.60
-156.15
-145.61
-122.59
-90.23
-53.08
-15.72
18.22
46.44
67.74
81.73
88.56
88.87
83.62
73.92
60.61
44.01
23.95
-0.04
-28.26
-60.42
-95.22
-130.24
-162.32
-188.33
-206.01
-214.67
-215.29
-209.96
-200.77
-188.97
-174.64
-157.21
-136.43
-113.38
-90.50
-70.91
-57.36
-51.24
-52.55
-60.10
-71.89
-85.43
-97.71
-105.34
-105.08
-94.65
-73.65
-43.80
-8.57
28.21
63.80
97.27
128.96
158.98
185.51
204.34
210.22
199.42
171.76
130.62
81.21
27.95
-26.98
-82.77
-137.75
-187.54
-225.43
-244.97
-243.43
-223.43
-191.94
-156.76
-122.91
-91.13
-59.08
-24.11
14.35
54.13
91.52
123.25
147.87
166.08
180.09
192.47
205.22
219.34
234.91
251.19
266.82
279.88
288.17
289.64
283.09
268.76
248.61
226.02
205.03
189.38
181.45
181.70
188.41
198.13
206.69
210.50
207.78
199.03
186.82
174.57
165.25
160.10
158.28
157.28
154.12
146.61
134.26
118.25
100.63
83.20
66.71
50.89
35.15
19.43
4.65
-7.59
-15.74
-18.92
-17.17
-11.18
-2.00
8.94
19.55
27.04
28.47
21.87
7.24
-13.14
-35.65
-56.87
-74.89
-89.74
-102.61
-114.67
-126.43
-137.68
-148.21
-158.44
-169.51
-182.85
-199.49
-219.61
-242.47
-266.40
-288.78
-306.30
