1604190038.00
64.000000
-0.00
-0.00
-0.00
-0.00
-0.00
-0.00
-0.00
-0.00
-0.00
-0.00
0.00
0.01
0.01
-0.00
-0.03
-0.05
-0.05
0.00
0.13
0.36
0.66
1.01
1.37
1.72
2.06
2.40
2.79
3.24
3.80
4.42
5.06
5.66
6.20
6.68
7.15
7.68
8.31
9.14
10.09
11.04
11.88
12.56
13.14
13.76
14.65
15.96
17.92
20.32
22.91
25.38
27.58
29.57
31.67
34.32
37.84
42.59
48.20
54.14
59.79
64.80
69.25
73.63
78.69
84.96
92.97
102.20
111.81
120.86
128.79
135.63
142.03
149.37
156.37
165.26
176.61
190.43
205.47
218.78
226.08
222.81
205.71
173.96
129.92
77.29
20.22
-38.22
-96.52
-154.32
-211.48
-267.45
-321.21
-371.33
-417.17
-458.41
-494.82
-525.63
-549.25
-563.44
-565.90
-555.18
-531.11
-495.36
-450.72
-400.43
-347.34
-293.37
-239.53
-186.30
-134.18
-84.01
-37.24
4.55
39.94
67.96
88.31
101.51
109.10
113.76
119.02
128.25
143.57
164.74
189.08
212.38
230.58
241.23
244.11
240.68
232.91
222.27
209.46
194.73
178.60
162.12
146.64
133.19
121.95
112.24
102.95
93.09
82.33
71.02
59.93
49.86
41.30
34.49
29.11
24.73
20.96
17.55
14.38
11.40
8.57
5.86
3.28
0.93
-0.91
-1.91
-1.84
-0.75
0.97
2.64
3.64
3.66
2.85
1.86
1.48
2.36
4.77
8.55
13.14
17.69
21.10
22.13
19.62
12.81
1.87
-11.86
-25.89
-37.13
-42.91
-41.91
-34.72
-23.56
-11.54
-1.41
5.19
8.03
7.90
5.98
3.38
0.91
-0.84
-1.31
-0.06
3.17
8.19
14.33
20.31
24.45
25.01
20.81
11.94
0.17
-11.32
-19.00
-20.48
-15.60
-6.50
3.42
11.10
14.97
15.23
13.00
9.33
4.50
-1.81
-9.80
-18.95
-27.81
-34.59
-37.82
-37.03
-32.87
-26.86
-20.77
-16.02
-13.26
-12.20
-11.86
-11.02
-8.85
-5.25
-0.89
3.23
6.22
7.67
7.77
7.09
6.27
5.85
6.10
7.10
8.85
11.23
14.01
16.85
19.23
20.61
20.54
18.82
15.46
10.85
5.71
0.84
-3.07
-5.66
-6.95
-7.35
-7.32
-7.31
-7.46
-7.74
-7.96
-7.98
-7.76
-7.38
-6.99
-6.66
-6.43
-6.23
-5.96
-5.57
-5.10
-4.65
-4.31
-4.13
-4.06
-4.07
-4.11
-4.20
-4.28
-4.24
-3.85
-2.84
-1.10
1.25
3.83
6.14
7.79
8.57
8.57
8.01
7.16
6.22
5.32
4.54
3.95
3.62
3.49
3.53
3.64
3.82
4.12
4.60
5.26
6.01
6.71
7.22
7.47
7.52
7.44
7.28
7.04
6.66
6.16
5.69
5.38
5.25
5.10
4.51
3.03
0.37
-3.43
-8.04
-12.92
-17.62
-21.87
-25.60
-28.85
-31.58
-33.64
-34.79
-34.82
-33.65
-31.40
-28.35
-24.80
-21.02
-17.17
-13.38
-9.73
-6.34
-3.37
-0.94
0.90
2.24
3.27
4.24
5.36
6.70
8.15
9.48
10.41
10.77
10.56
9.94
9.14
8.31
7.51
6.72
5.91
5.09
4.34
3.72
3.25
2.84
2.32
1.52
0.33
-1.22
-2.96
-4.56
-5.64
-5.87
-5.10
-3.43
-1.16
1.34
3.71
5.75
7.36
8.52
9.23
9.47
9.28
8.77
8.14
7.61
7.31
7.22
7.21
7.14
6.92
6.60
6.27
6.03
5.89
5.75
5.48
4.96
4.16
3.17
2.13
1.17
0.36
-0.31
-0.93
-1.60
-2.43
-3.47
-4.72
-6.12
-7.56
-8.88
-9.89
-10.41
-10.27
-9.38
-7.77
-5.60
-3.13
-0.63
1.63
3.51
4.93
5.93
6.56
6.92
7.09
7.14
7.15
7.18
7.28
7.49
7.79
8.11
8.35
8.42
8.30
8.01
7.63
7.20
6.72
6.16
5.47
4.64
3.74
2.81
1.87
0.89
-0.20
-1.45
-2.86
-4.36
-5.87
-7.31
-8.58
-9.58
-10.15
-10.15
-9.50
-8.23
-6.47
-4.42
-2.22
0.06
2.39
4.72
6.92
8.81
10.21
11.03
11.29
11.08
10.49
9.59
8.47
7.24
6.09
5.19
4.64
4.40
4.33
4.27
4.08
3.73
3.21
2.53
1.66
0.58
-0.72
-2.15
-3.63
-5.04
-6.37
-7.64
-8.83
-9.88
-10.61
-10.79
-10.20
-8.79
-6.66
-4.08
-1.37
1.16
3.34
5.09
6.47
7.55
8.40
9.03
9.44
9.58
9.46
9.08
8.50
7.76
6.91
5.97
4.98
3.96
3.00
2.16
1.46
0.88
0.33
-0.28
-1.02
-1.93
-2.96
-4.05
-5.14
-6.19
-7.22
-8.27
-9.37
-10.51
-11.57
-12.34
-12.57
-12.04
-10.64
-8.45
-5.67
-2.60
0.43
3.13
5.30
6.84
7.75
8.11
8.10
7.91
7.64
7.36
7.02
6.57
6.00
5.38
4.83
4.43
4.20
4.07
3.90
3.59
3.07
2.32
1.34
0.19
-1.07
-2.38
-3.64
-4.78
-5.75
-6.57
-7.32
-8.09
-8.96
-9.96
-10.96
-11.79
-12.18
-11.90
-10.84
-9.03
-6.67
-4.08
-1.51
0.80
2.76
4.30
5.40
6.05
6.28
6.16
5.80
5.31
4.78
4.25
3.75
3.33
3.04
2.96
3.12
3.46
3.89
4.24
4.35
4.08
3.41
2.37
1.13
-0.12
-1.23
-2.14
-2.91
-3.62
-4.36
-5.14
-5.94
-6.74
-7.61
-8.63
-9.81
-11.01
-11.91
-12.16
-11.50
-9.91
-7.62
-4.99
-2.37
0.05
2.17
3.99
5.50
6.66
7.41
7.71
7.60
7.18
6.56
5.86
5.18
4.55
3.98
3.47
2.99
2.57
2.22
1.97
1.80
1.66
1.43
0.96
0.13
-1.11
-2.67
-4.37
-6.00
-7.38
-8.43
-9.20
-9.85
-10.55
-11.41
-12.47
-13.70
-14.99
-16.23
-17.31
-18.11
-18.47
-18.24
-17.28
-15.55
-13.14
-10.29
-7.29
-4.44
-1.97
0.01
1.50
2.59
3.37
3.93
4.33
4.59
4.75
4.87
5.05
5.40
5.93
6.55
7.10
7.42
7.44
7.26
7.06
6.94
6.92
6.86
6.58
5.96
5.01
3.85
2.62
1.39
0.13
-1.20
-2.61
-4.05
-5.45
-6.75
-7.95
-9.06
-10.07
-10.86
-11.24
-10.98
-9.94
-8.09
-5.53
-2.51
0.67
3.69
6.32
8.43
9.95
10.89
11.26
11.05
10.30
9.15
7.84
6.70
6.01
5.88
6.19
6.68
7.07
7.18
6.98
6.52
5.92
5.24
4.50
3.69
2.81
1.84
0.78
-0.37
-1.58
-2.80
-3.92
-4.85
-5.51
-5.91
-6.17
-6.51
-7.13
-8.16
-9.56
-11.11
-12.47
-13.21
-13.04
-11.82
-9.64
-6.77
-3.58
-0.41
2.51
5.04
7.18
8.91
10.23
11.10
11.51
11.50
11.21
10.80
10.42
10.12
9.89
9.68
9.46
9.27
9.13
9.07
9.02
8.87
8.55
7.99
7.20
6.20
5.04
3.75
2.35
0.90
-0.57
-2.02
-3.41
-4.73
-5.97
-7.14
-8.31
-9.53
-10.86
-12.21
-13.42
-14.19
-14.26
-13.44
-11.79
-9.51
-6.93
-4.34
-1.92
0.25
2.15
3.80
5.16
6.17
6.78
6.98
6.87
6.60
6.33
6.18
6.16
6.20
6.21
6.09
5.83
5.43
4.93
4.33
3.61
2.75
1.77
0.71
-0.34
-1.33
-2.21
-3.02
-3.81
-4.65
-5.55
-6.52
-7.51
-8.45
-9.33
-10.19
-11.11
-12.20
-13.47
-14.84
-16.06
-16.82
-16.79
-15.78
-13.76
-10.90
-7.47
-3.84
-0.40
2.52
4.68
5.94
6.32
5.98
5.18
4.20
3.27
2.58
2.25
2.35
2.92
3.90
5.20
6.59
7.84
8.75
9.24
9.32
9.07
8.54
7.75
6.69
5.39
3.97
2.63
1.59
0.93
0.60
0.40
0.08
-0.51
-1.39
-2.47
-3.59
-4.68
-5.76
-6.89
-8.08
-9.17
-9.86
-9.76
-8.62
-6.37
-3.26
0.26
3.67
6.50
8.42
9.32
9.19
8.11
6.27
3.96
1.59
-0.26
-1.02
-0.31
1.88
5.15
8.76
11.92
14.10
15.17
15.41
15.25
15.08
15.06
15.15
15.23
15.27
15.35
15.62
16.18
16.96
17.76
18.26
18.18
17.31
15.56
12.93
9.54
5.56
1.28
-2.92
-6.59
-9.32
-10.77
-10.77
-9.38
-6.86
-3.64
-0.20
2.99
5.63
7.62
8.97
9.82
10.25
10.32
10.00
9.25
8.12
6.70
5.20
3.80
2.62
1.65
0.81
-0.02
-0.88
-1.72
-2.45
-3.01
-3.48
-4.06
-4.98
-6.36
-8.17
-10.23
-12.30
-14.22
-15.97
-17.62
-19.26
-20.94
-22.65
-24.32
-25.83
-26.99
-27.60
-27.42
-26.28
-24.14
-21.14
-17.58
-13.81
-10.16
-6.86
-4.07
-1.89
-0.39
0.39
0.49
0.06
-0.69
-1.48
-2.08
-2.35
-2.20
-1.65
-0.71
0.54
1.98
3.41
4.58
5.28
5.39
4.89
3.84
2.37
0.60
-1.36
-3.36
-5.26
-6.89
-8.16
-9.11
-9.91
-10.81
-12.07
-13.80
-15.93
-18.17
-20.12
-21.33
-21.47
-20.34
-17.95
-14.52
-10.41
-6.05
-1.90
1.72
4.62
6.76
8.21
9.06
9.40
9.38
9.15
8.92
8.87
9.08
9.55
10.14
10.72
11.20
11.63
12.14
12.81
13.59
14.26
14.52
14.13
13.03
11.38
9.52
7.75
6.19
4.74
3.27
1.70
0.06
-1.45
-2.59
-3.11
-2.98
-2.44
-1.87
-1.68
-2.16
-3.43
-5.44
-7.84
-10.13
-11.78
-12.47
-12.05
-10.36
-7.20
-2.41
4.06
12.02
21.07
30.48
39.19
46.15
50.36
50.99
47.28
38.59
24.66
7.24
-9.75
-21.81
-26.12
-22.66
-13.50
-1.71
9.86
19.41
26.36
30.96
33.52
34.34
33.52
31.35
28.25
24.90
22.22
21.07
22.01
24.37
28.04
32.52
37.32
41.82
45.74
49.23
52.76
56.76
61.37
66.42
71.39
75.87
79.37
81.90
83.90
85.90
88.20
90.67
92.66
92.91
92.46
91.22
88.86
84.93
78.98
70.81
60.70
49.56
38.52
28.56
19.66
11.16
2.10
-8.17
-19.45
-30.69
-40.50
-47.87
-52.70
-55.98
-58.88
-62.08
-65.55
-68.72
-71.08
-72.59
-73.69
-74.96
-76.85
-79.19
-81.47
-83.21
-84.28
-84.95
-85.69
-86.79
-88.21
-89.74
-91.18
-92.32
-92.93
-92.77
-91.63
-89.40
-86.14
-82.07
-77.60
-73.25
-69.44
-66.40
-64.20
-62.85
-62.37
-62.65
-63.37
-63.99
-64.12
-63.29
-60.94
-56.75
-50.84
-43.86
-36.70
-30.32
-25.53
-23.80
-25.86
-31.12
-37.70
-43.24
-45.58
-43.35
-36.49
-26.59
-18.34
-15.98
-21.19
-32.72
-47.65
-62.86
-75.70
-84.57
-89.16
-92.89
-98.29
-105.13
-111.08
-114.25
-114.53
-113.19
-112.10
-112.98
-120.54
-136.99
-160.46
-186.36
-210.49
-230.44
-244.48
-251.05
-225.75
-160.09
-67.72
24.75
97.08
142.72
164.25
168.23
161.10
147.88
128.35
103.20
76.68
54.58
41.62
39.05
45.43
57.30
70.79
80.12
82.43
79.23
75.07
75.00
78.38
85.09
94.56
106.10
117.23
126.31
133.50
140.20
147.49
155.07
162.12
167.05
168.35
164.37
154.88
141.40
126.27
111.45
97.68
85.24
73.76
62.81
51.76
40.20
28.02
15.34
2.38
-10.57
-22.77
-33.44
-41.94
-47.86
-51.04
-51.49
-49.37
-44.95
-38.75
-31.33
-23.48
-15.92
-9.24
-3.84
0.02
2.03
1.94
-0.38
-4.68
-10.29
-16.28
-21.67
-25.75
-28.09
-28.57
-27.07
-23.47
-17.67
-9.82
-0.52
9.23
18.19
25.34
30.08
32.34
32.44
30.87
28.04
24.24
19.73
14.76
9.62
4.54
-0.43
-5.43
-10.75
-16.49
-22.36
-27.47
-30.48
-30.02
-25.22
-16.10
-3.64
10.54
24.68
37.39
47.93
56.10
62.09
66.16
68.55
69.46
69.09
67.73
65.76
63.60
61.71
60.45
60.05
60.58
61.96
64.05
66.63
69.48
72.31
74.78
76.53
77.28
77.00
75.92
74.43
72.85
71.15
68.93
65.56
60.52
53.69
45.53
36.95
29.05
22.82
18.92
17.62
18.81
22.04
26.64
31.83
36.91
41.41
45.16
48.14
50.32
51.48
51.11
48.56
43.36
35.54
25.82
15.54
6.36
-0.28
-3.63
-3.88
-2.13
0.09
1.30
0.57
-2.33
-7.02
-12.84
-19.20
-25.73
-32.29
-38.87
-45.48
-52.00
-58.19
-63.71
-68.16
-71.25
-72.87
-73.23
-72.77
-72.13
-71.76
-71.83
-72.14
-72.24
-71.68
-70.16
-67.63
-64.33
-60.68
-56.95
-53.11
-48.76
-43.32
-36.42
-28.14
-19.18
-10.63
-3.71
0.94
3.48
4.72
5.58
6.63
7.93
9.14
9.78
9.20
7.25
4.22
0.42
-4.22
-10.20
-18.08
-28.06
-39.84
-53.18
-67.07
-79.88
-90.16
-97.50
-102.60
-106.77
-111.30
-117.01
-125.01
-134.86
-144.61
-151.83
-154.86
-153.37
-148.07
-140.26
-131.66
-125.11
-121.87
-120.94
-119.81
-115.90
-107.37
-93.32
-73.76
-40.72
5.01
54.38
96.22
124.76
140.45
146.61
146.54
143.52
138.48
130.60
120.15
108.99
99.47
93.00
89.62
88.08
87.35
86.66
84.92
82.14
79.36
77.82
77.86
78.70
78.87
77.01
70.98
59.85
45.16
30.40
19.01
12.85
11.92
15.02
20.40
25.73
29.44
30.38
28.03
22.58
14.80
5.83
-3.22
-11.73
-18.19
-21.93
-22.95
-21.67
-18.70
-14.69
-10.28
-5.98
-2.11
1.30
4.46
7.76
11.52
15.92
20.68
24.97
27.36
26.15
19.77
7.22
-11.43
-34.90
-60.90
-86.63
-109.37
-127.09
-138.66
-143.92
-143.60
-138.98
-131.65
-123.17
-114.75
-107.07
-100.16
-93.55
-86.56
-78.64
-69.59
-59.56
-48.93
-38.17
-27.72
-17.95
-9.18
-1.69
4.25
8.52
11.19
12.57
13.19
13.66
14.56
16.28
18.88
22.02
25.17
27.75
29.49
30.62
31.77
33.82
37.46
42.86
49.47
56.31
62.09
65.72
66.61
64.62
59.99
53.17
44.87
36.05
27.78
20.95
15.72
11.16
5.32
-3.99
-18.13
-36.63
-57.09
-75.85
-89.43
-95.64
-94.09
-85.69
-71.71
-53.11
-30.65
-5.51
20.01
42.50
58.30
64.82
61.61
50.76
35.92
20.86
8.11
-1.61
-9.01
-15.32
-21.32
-27.02
-31.96
-35.83
-38.88
-41.84
-45.35
-49.36
-52.90
-54.46
-52.68
-47.00
-37.86
-26.43
-14.10
-2.05
8.87
18.01
24.79
28.77
29.88
28.70
26.42
24.69
25.06
28.53
35.31
44.77
55.70
66.65
76.29
83.72
88.66
91.39
92.64
93.29
94.07
95.34
97.01
98.52
99.01
97.42
92.74
84.30
72.16
57.26
41.47
27.02
15.97
9.47
7.49
8.93
12.20
15.76
18.44
19.62
18.97
16.36
11.84
5.70
-1.51
-9.06
-16.24
-22.59
-27.93
-32.27
-35.64
-37.94
-38.95
-38.43
-36.27
-32.62
-27.93
-22.91
-18.33
-14.86
-12.87
-12.34
-12.89
-13.93
-14.83
-15.12
-14.63
-13.47
-11.97
-10.53
-9.46
-8.94
-8.95
-9.30
-9.67
-9.76
-9.32
-8.28
-6.77
-5.05
-3.40
-2.07
-1.18
-0.74
-0.69
-0.98
-1.57
-2.47
-3.69
-5.16
-6.69
-8.00
-8.74
-8.53
-7.11
-4.38
-0.47
4.26
9.35
14.36
19.01
23.12
26.65
29.52
31.63
32.86
33.16
32.64
31.53
30.08
28.53
26.94
25.33
23.65
21.94
20.28
18.82
17.65
16.71
15.84
14.80
13.40
11.59
9.49
7.29
5.14
3.09
1.02
-1.30
-4.08
-7.43
-11.36
-15.71
-20.29
-24.81
-28.89
-32.07
-33.78
-33.48
-30.83
-25.82
-18.88
-10.80
-2.52
5.05
11.34
16.18
19.83
22.82
25.69
28.77
32.11
35.47
38.48
40.78
42.13
42.47
41.91
40.67
39.01
37.30
35.98
35.53
36.32
38.50
41.89
46.09
50.60
54.92
58.74
61.88
64.24
65.64
65.69
63.75
59.06
50.82
38.40
21.73
1.57
-20.47
-42.17
-61.32
-76.24
-85.95
-90.52
-90.82
-88.12
-83.55
-77.85
-71.43
-64.65
-57.85
-50.92
-43.82
-36.79
-30.29
-24.73
-20.31
-17.05
-14.78
-13.16
-10.83
-6.65
-0.24
7.94
17.00
26.10
34.54
41.80
47.58
53.00
58.99
65.80
72.92
79.64
85.45
89.94
92.59
86.62
68.77
40.89
9.20
-20.03
-43.37
-59.87
-69.72
-73.51
-73.06
-67.96
-58.06
-44.33
-28.82
-13.77
-0.83
9.17
16.05
19.95
21.91
22.60
22.00
19.56
14.97
8.49
0.99
-6.48
-13.03
-17.56
-19.64
-19.60
-18.29
-16.48
-14.60
-12.72
-10.76
-8.72
-6.34
-3.59
-0.54
2.69
6.09
9.78
13.78
17.87
21.64
24.80
27.26
29.20
30.98
32.90
34.86
36.21
35.82
32.45
25.18
13.65
-1.83
-20.48
-41.27
-63.01
-84.38
-104.01
-120.51
-132.69
-139.81
-141.69
-138.72
-131.66
-121.47
-109.14
-95.72
-82.28
-69.96
-59.72
-52.25
-47.75
-45.92
-46.12
-47.60
-49.62
-51.55
-52.89
-53.18
-52.07
-49.30
-44.80
-38.62
-30.93
-21.92
-11.68
-0.33
11.90
24.60
37.11
48.62
58.31
65.49
69.83
71.49
71.05
69.40
67.54
66.33
66.41
68.04
70.95
74.49
77.76
79.58
78.62
73.61
63.61
48.35
28.43
4.81
-20.78
-46.20
-69.25
-88.12
-101.66
-109.58
-112.24
-110.48
-105.92
-99.93
-93.36
-86.63
-79.98
-73.46
-67.14
-60.68
-53.28
-44.70
-34.58
-22.72
-9.31
4.70
17.93
28.53
34.81
40.23
45.89
50.85
53.29
52.54
49.72
47.04
46.01
47.11
49.84
52.52
53.64
52.65
49.95
44.97
39.48
34.73
31.73
31.21
33.07
36.81
41.87
47.51
52.66
56.27
57.19
54.86
49.24
42.54
36.31
31.62
28.62
26.62
24.66
21.67
17.02
10.38
1.87
-8.05
-18.35
-27.69
-34.77
-38.77
-40.13
-40.62
-43.03
-49.54
-60.98
-76.54
-94.17
-110.96
-123.62
-129.51
-127.40
-118.46
-104.75
-88.91
-73.81
-62.00
-55.01
-52.88
-54.92
-60.48
-69.71
-81.37
-92.36
-98.52
-96.02
-82.45
-57.31
-22.66
21.36
66.50
101.94
122.34
130.10
130.70
128.06
123.61
117.23
108.63
97.85
86.86
78.93
76.57
81.49
91.10
101.31
107.06
103.57
87.49
59.60
25.06
-8.91
-36.01
-52.71
-58.86
-57.35
-52.37
-46.97
-42.85
-39.85
-37.34
-35.35
-34.25
-34.51
-36.40
-39.60
-43.11
-45.38
-45.07
-41.94
-36.99
-30.63
-23.01
-14.31
-4.85
5.08
15.43
26.48
38.68
52.50
69.70
91.33
116.50
142.13
164.24
179.51
186.25
184.35
166.17
129.13
77.85
22.84
-25.69
-61.77
-83.71
-92.87
-92.76
-87.76
-80.62
-70.18
-54.07
-31.08
-2.70
26.28
48.83
58.23
51.42
32.01
5.46
-19.21
-34.51
-37.65
-31.11
-20.45
-11.25
-6.57
-5.81
-7.70
-10.49
-13.14
-16.12
-21.34
-29.85
-40.67
-51.77
-60.18
-65.15
-67.35
-68.69
-71.08
-75.02
-79.15
-80.95
-77.91
-65.81
-44.94
-19.65
3.97
21.28
30.96
34.12
32.80
29.98
26.33
21.36
14.95
7.67
0.34
-5.41
-8.04
-7.11
-3.26
2.08
7.30
11.75
16.08
21.26
29.21
41.49
58.38
78.50
99.49
118.66
133.51
142.12
136.39
111.64
70.22
21.43
-24.06
-58.70
-79.70
-90.12
-93.53
-93.26
-90.69
-86.04
-79.31
-71.31
-61.44
-49.45
-34.72
-15.35
7.06
28.77
45.45
56.92
62.90
63.13
57.80
45.82
28.53
7.82
-13.45
-32.16
-45.80
-53.58
-55.78
-53.58
-48.52
-41.77
-34.72
-28.03
-21.69
-15.43
-9.32
-3.31
2.89
9.78
18.05
27.67
37.93
47.48
54.50
56.93
53.46
44.00
29.86
13.54
-2.17
-14.95
-23.60
-28.09
-29.33
-28.48
-26.55
-24.20
-21.65
-18.85
-15.97
-13.43
-11.76
-11.13
-11.20
-11.36
-11.02
-9.50
-6.22
-1.09
5.19
11.49
16.85
20.91
23.77
25.91
28.49
33.01
40.47
50.71
62.32
73.21
80.94
82.87
76.62
57.50
24.89
-15.49
-54.50
-85.27
-105.70
-116.82
-120.53
-120.89
-116.99
-106.78
-89.26
-65.39
-37.71
-9.10
18.42
43.20
63.23
77.49
85.59
87.59
83.77
74.70
61.66
46.61
31.83
19.34
10.96
7.47
8.47
12.53
17.78
22.73
26.72
29.86
32.70
36.16
40.66
45.87
50.61
53.01
50.99
42.99
28.41
8.05
-15.85
-40.27
-62.19
-79.17
-89.97
-94.54
-93.69
-88.56
-80.28
-69.83
-58.33
-46.95
-36.61
-28.09
-21.97
-18.44
-17.16
-17.33
-17.95
-18.11
-17.05
-13.85
-8.26
-0.88
6.97
13.81
18.59
20.89
21.05
20.08
20.12
22.96
29.42
39.08
50.32
60.71
67.11
66.28
53.46
27.57
-7.24
-42.64
-70.94
-88.16
-94.00
-90.56
-81.07
-70.89
-60.55
-50.18
-40.02
-30.37
-21.17
-11.91
-1.89
9.47
22.23
36.13
49.82
61.40
68.95
71.18
67.93
60.15
49.58
38.33
28.85
22.61
19.92
20.06
21.79
23.86
25.29
25.39
23.72
20.30
15.04
8.05
-0.31
-9.29
-17.88
-25.04
-30.01
-32.38
-32.04
-29.31
-24.83
-19.57
-14.68
-11.34
-10.46
-12.48
-17.18
-23.77
-31.18
-38.33
-44.35
-48.71
-51.19
-51.73
-50.44
-47.58
-43.52
-38.73
-33.63
-28.54
-23.50
-18.36
-12.78
-6.46
0.73
8.55
16.47
23.77
29.80
34.17
36.95
38.62
39.92
41.57
44.08
47.59
51.91
56.63
61.30
65.55
69.21
72.23
74.55
75.98
76.05
74.08
69.33
61.21
49.62
35.11
18.81
2.30
-12.86
-25.58
-35.50
-43.09
-49.36
-55.46
-62.19
-69.64
-77.08
-83.06
-85.82
-83.76
-75.96
-62.62
-45.22
-26.28
-8.82
4.45
11.83
13.07
9.24
2.31
-5.58
-12.63
-17.70
-20.34
-20.65
-19.10
-16.38
-13.33
-10.87
-9.72
-10.35
-12.70
-16.27
-20.19
-23.52
-25.50
-25.79
-24.52
-22.14
-19.26
-16.39
-13.82
-11.58
-9.53
-7.63
-6.03
-5.10
-5.29
-6.89
-9.78
-13.38
-16.80
-19.15
-19.81
-18.56
-15.57
-11.23
-6.05
-0.59
4.51
8.49
10.69
10.72
8.70
5.30
1.52
-1.65
-3.60
-4.22
-3.91
-3.32
-3.08
-3.61
-5.01
-7.02
-9.04
-10.28
-9.95
-7.57
-3.08
3.10
10.27
17.71
24.97
31.84
38.29
44.30
49.66
54.02
57.01
58.35
57.98
56.10
53.09
49.47
45.80
42.57
40.08
38.33
37.00
35.55
33.41
30.15
25.67
20.29
14.66
9.64
6.05
4.42
4.88
7.13
10.57
14.54
18.46
21.92
24.67
26.54
27.42
27.26
26.13
24.33
22.23
20.21
18.40
16.57
14.10
10.26
4.45
-3.35
-12.39
-21.23
-28.13
-31.58
-30.93
-26.75
-20.69
-15.09
-12.25
-13.70
-19.70
-29.10
-39.65
-48.73
-54.17
-55.04
-51.94
-46.79
-41.99
-39.49
-39.95
-42.52
-45.19
-45.60
-42.10
-34.42
-23.83
-12.61
-3.05
3.60
7.68
10.87
15.46
23.26
35.03
50.34
67.97
86.32
103.76
118.73
129.81
136.03
137.17
133.92
127.51
119.01
108.61
95.47
78.20
55.81
28.60
-1.54
-31.59
-58.28
-79.13
-92.93
-99.83
-100.91
-97.71
-91.89
-85.09
-78.78
-74.17
-71.90
-71.76
-72.63
-72.79
-70.59
-65.16
-56.83
-46.99
-37.55
-30.07
-25.28
-23.00
-22.50
-23.11
-24.57
-27.18
-31.56
-38.31
-47.66
-59.27
-72.18
-84.83
-95.34
-101.76
-102.56
-97.03
-85.60
-69.79
-51.73
-33.66
-17.24
-3.28
8.21
17.73
25.91
33.26
40.03
46.30
52.01
57.08
61.34
64.69
67.16
69.04
70.85
73.23
76.67
81.18
86.28
91.09
94.63
96.22
95.65
93.19
89.38
84.90
80.32
76.14
72.74
70.30
68.76
67.75
66.67
64.84
61.79
57.36
51.75
45.39
38.74
32.10
25.41
18.15
9.34
-2.26
-17.75
-37.71
-61.83
-88.78
-116.42
-142.22
-163.79
-179.17
-187.03
-186.77
-178.47
-163.00
-141.97
-117.54
-92.08
-67.54
-45.13
-25.19
-7.41
8.62
23.09
35.77
46.22
54.15
59.78
63.81
67.22
70.86
75.20
80.25
85.76
91.40
96.90
102.11
106.92
111.29
115.35
119.42
123.94
129.26
135.29
141.33
146.04
147.70
144.53
135.16
118.95
96.24
68.52
38.31
8.80
-16.80
-35.95
-47.44
-51.53
-49.74
-44.20
-37.07
-30.08
-24.38
-20.51
-18.57
-18.23
-18.85
-19.70
-20.16
-20.05
-19.65
-19.55
-20.35
-22.27
-25.04
-28.07
-30.74
-32.82
-34.59
-36.70
-39.95
-44.94
-51.90
-60.73
-71.14
-82.88
-95.78
-109.78
-124.78
-140.66
-157.14
-173.81
-190.12
-205.28
-218.33
-228.10
-233.42
-233.38
-227.59
-216.31
-200.49
-181.48
-160.70
-139.39
-118.44
-98.49
-80.15
-64.11
-51.13
-41.72
-35.86
-32.78
-31.16
-29.49
-26.59
-21.76
-14.83
-5.87
4.98
17.52
31.30
45.47
58.74
69.75
77.49
81.60
82.48
80.98
78.12
74.69
71.17
67.72
64.24
60.59
56.63
52.30
47.68
42.97
38.52
34.74
32.09
31.00
31.77
34.43
38.68
43.85
49.03
53.39
56.37
57.81
57.92
57.11
55.70
53.95
52.03
50.13
48.54
47.55
47.32
47.78
48.59
49.32
49.60
49.30
48.49
47.38
46.12
44.70
42.97
40.73
37.87
34.49
30.85
27.32
24.21
21.63
19.52
17.64
15.65
13.27
10.37
7.01
3.49
0.28
-2.14
-3.40
-3.36
-2.13
-0.01
2.66
5.62
8.68
11.67
14.43
16.77
18.51
19.59
20.03
19.94
19.36
18.32
16.93
15.48
14.62
15.15
17.63
22.12
28.17
34.95
41.53
47.10
51.11
53.43
54.10
53.18
50.65
46.65
41.46
35.51
29.20
22.80
16.73
11.27
6.53
2.55
-0.57
-2.52
-3.04
-2.08
0.16
4.34
10.83
19.36
28.84
37.89
45.46
51.04
54.65
56.72
60.11
67.12
78.30
91.96
105.44
116.61
124.48
129.16
131.48
136.01
146.23
162.66
182.33
200.83
214.88
223.04
225.69
224.36
225.49
234.33
252.56
277.64
305.13
331.63
354.89
373.33
357.99
291.94
178.06
40.20
-92.78
-202.16
-281.75
-333.96
-364.82
-380.90
-383.30
-372.76
-351.46
-324.25
-298.62
-278.12
-264.48
-257.91
-257.49
-258.04
-254.79
-244.71
-227.73
-205.76
-180.99
-156.10
-133.81
-116.52
-101.47
-87.36
-73.69
-61.30
-51.67
-45.80
-44.16
-46.39
-51.37
-56.56
-60.04
-60.98
-60.07
-58.84
-58.50
-59.62
-61.79
-63.94
-64.30
-61.66
-55.33
-45.51
-33.10
-19.28
-5.33
7.66
18.93
28.15
35.20
40.34
44.01
46.61
48.47
49.91
51.25
52.88
55.12
57.98
61.23
64.36
66.73
67.82
67.46
65.81
63.28
60.26
56.95
53.32
49.17
44.27
38.50
31.87
24.57
16.85
9.00
1.26
-6.26
-13.58
-20.89
-28.36
-36.05
-43.68
-50.64
-56.08
-59.21
-59.52
-56.97
-51.96
-45.25
-37.71
-30.22
-23.48
-18.03
-14.13
-11.72
-10.38
-9.49
-8.38
-6.59
-4.00
-0.78
2.78
6.46
10.21
14.03
17.86
21.41
24.13
25.47
25.05
22.86
19.22
14.66
9.68
4.68
0.01
-3.89
-6.44
-6.95
-4.97
-0.56
5.44
11.48
15.66
16.32
12.58
4.55
-6.76
-19.86
-33.21
-45.54
-55.93
-63.68
-68.23
-69.20
-66.54
-60.74
-52.79
-44.04
-35.74
-28.82
-23.58
-19.86
-17.20
-15.10
-13.20
-11.32
-9.44
-7.57
-5.75
-4.03
-2.49
-1.21
-0.25
0.41
0.87
1.25
1.62
1.98
2.21
2.15
1.67
0.69
-0.84
-2.92
-5.52
-8.54
-11.75
-14.78
-17.12
-18.28
-17.91
-15.95
-12.62
-8.39
-3.82
0.53
4.29
7.28
9.47
10.96
11.88
12.38
12.62
12.77
12.95
13.29
13.82
14.57
15.51
16.63
17.93
19.45
21.21
23.20
25.34
27.45
29.27
30.44
30.58
29.36
26.61
22.43
17.20
11.53
6.15
1.71
-1.40
-3.15
-3.83
-3.98
-4.18
-4.83
-6.04
-7.60
-8.99
-9.61
-8.98
-6.91
-3.65
0.25
4.03
6.97
8.60
8.75
7.54
5.31
2.49
-0.45
-3.11
-5.17
-6.46
-6.92
-6.63
-5.72
-4.35
-2.64
-0.71
1.31
3.19
4.56
5.05
4.41
2.60
-0.11
-3.24
-6.30
-8.84
-10.67
-11.75
-12.18
-12.06
-11.44
-10.33
-8.83
-7.11
-5.27
-3.40
-1.48
0.57
2.86
5.46
8.28
11.14
13.83
16.42
19.05
21.87
24.92
28.14
31.37
34.49
37.38
40.14
43.28
47.13
51.55
55.89
59.26
60.97
60.81
58.98
56.24
53.91
52.78
52.78
53.10
52.93
51.94
50.51
49.07
48.36
49.42
52.53
57.04
61.73
65.54
68.01
69.43
69.98
66.14
56.14
40.31
20.70
-0.77
-23.11
-45.59
-66.89
-87.21
-105.93
-121.37
-132.32
-138.55
-140.90
-140.92
-140.71
-138.47
-134.68
-129.88
-123.84
-115.95
-105.43
-91.58
-74.10
-53.35
-30.56
-8.28
11.37
27.66
41.17
53.54
66.45
80.55
94.85
106.92
113.51
112.61
104.28
90.13
72.33
52.58
31.66
9.82
-12.43
-34.13
-53.51
-68.71
-78.77
-83.98
-85.55
-84.67
-81.58
-75.31
-64.31
-47.24
-23.92
4.30
34.96
65.30
93.18
117.36
137.21
151.99
160.66
162.00
155.36
141.24
121.33
98.15
74.11
50.74
28.23
5.81
-17.54
-42.28
-67.89
-93.17
-116.31
-135.24
-148.09
-153.67
-151.50
-141.75
-125.20
-103.35
-79.02
-55.32
-34.92
-19.30
-8.73
-2.53
0.36
0.53
-2.23
-9.67
-22.99
-41.65
-63.25
-84.56
-102.62
-115.46
-122.23
-122.91
-119.18
-112.75
-104.83
-96.33
-88.29
-81.46
-75.64
-69.34
-53.72
-25.19
12.29
49.62
79.03
97.60
106.60
109.07
107.82
104.64
99.13
90.90
80.88
71.70
64.98
61.45
60.82
62.25
65.10
68.31
71.58
75.49
80.74
86.98
92.61
95.13
90.35
75.89
51.39
19.65
-13.69
-42.10
-60.60
-67.30
-63.68
-53.46
-40.73
-28.85
-19.49
-12.62
-7.61
-3.98
-1.55
-0.30
-0.12
-0.76
-2.04
-3.90
-5.94
-7.68
-8.63
-8.45
-7.28
-5.15
-3.17
-3.12
-6.24
-11.58
-17.01
-20.51
-21.24
-19.70
-17.30
-15.64
-15.75
-18.72
-23.54
-28.95
-33.78
-36.76
-36.39
-31.03
-19.37
0.31
25.33
50.91
71.30
81.93
80.98
70.09
53.56
36.57
23.69
15.80
12.75
13.24
15.50
17.88
19.30
19.37
18.25
16.43
14.31
12.92
13.15
16.26
22.86
32.98
46.01
60.93
76.45
91.02
103.49
112.70
117.56
117.08
110.68
98.35
80.72
58.87
34.10
7.87
-18.53
-44.05
-67.99
-89.71
-108.57
-123.95
-135.20
-141.87
-143.63
-140.54
-133.07
-122.11
-108.85
-94.59
-80.58
-67.92
-57.38
-49.33
-43.75
-40.24
-38.25
-37.19
-36.67
-36.48
-36.57
-36.82
-36.79
-35.67
-32.38
-25.91
-15.73
-2.05
14.11
31.18
47.45
61.38
71.88
78.23
80.14
77.65
71.19
61.65
50.26
38.48
27.54
18.30
11.00
5.40
1.02
-2.67
-6.03
-9.25
-12.41
-15.61
-18.89
-22.29
-25.78
-29.29
-32.67
-35.84
-38.77
-41.56
-44.42
-47.58
-51.15
-54.98
-58.54
-61.01
-61.44
-59.11
-53.80
-45.93
-36.40
-26.31
-16.60
-7.88
-0.38
5.84
10.77
14.36
16.58
17.63
17.97
18.40
19.80
22.95
28.22
35.47
44.07
53.01
61.12
67.29
70.67
70.70
67.21
60.35
50.65
39.01
26.66
15.06
5.60
-0.71
-3.50
-3.16
-0.67
2.65
5.61
7.53
8.37
8.66
9.26
10.85
13.69
17.44
21.32
24.51
26.49
27.27
27.36
27.48
28.26
30.03
32.78
36.30
40.30
44.46
48.49
52.05
54.83
56.52
56.99
56.24
54.42
51.70
48.20
43.96
38.96
33.20
26.74
19.79
12.65
5.74
-0.51
-5.79
-9.99
-13.30
-16.17
-19.18
-22.79
-27.11
-31.79
-36.02
-38.89
-39.69
-38.23
-34.99
-30.89
-27.01
-24.21
-22.88
-22.95
-24.08
-25.83
-27.85
-29.80
-31.35
-32.13
-31.80
-30.19
-27.41
-23.80
-19.86
-16.00
-12.48
-9.38
-6.72
-4.58
-3.08
-2.38
-2.54
-3.46
-4.94
-6.72
-8.59
-10.44
-12.20
-13.91
-15.65
-17.57
-19.89
-22.82
-26.37
-30.23
-33.73
-36.00
-36.23
-34.04
-29.67
-23.96
-18.03
-12.94
-9.37
-7.48
-7.03
-7.57
-8.63
-9.88
-11.15
-12.38
-13.53
-14.62
-15.61
-16.47
-17.07
-17.29
-17.04
-16.30
-15.17
-13.91
-12.85
-12.29
-12.45
-13.42
-15.12
-17.31
-19.69
-21.97
-23.93
-25.52
-26.87
-28.25
-29.95
-32.05
-34.29
-36.01
-36.20
-33.86
-28.39
-19.85
-9.07
2.55
13.49
22.57
29.15
33.24
35.22
35.66
35.04
33.78
32.22
30.75
29.66
29.18
29.31
29.81
30.31
30.44
29.94
28.76
26.99
24.84
22.49
20.04
17.49
14.80
11.96
9.02
6.18
3.68
1.74
0.44
-0.35
-0.97
-1.78
-3.03
-4.66
-6.26
-7.14
-6.57
-4.03
0.53
6.66
13.49
19.95
25.12
28.43
29.72
29.21
27.36
24.67
21.63
18.66
16.12
14.28
13.25
12.96
13.18
13.56
13.79
13.68
13.21
12.44
11.45
10.24
8.80
7.11
5.30
3.56
2.13
1.18
0.66
0.36
-0.08
-1.04
-2.80
-5.47
-8.94
-12.76
-16.20
-18.34
-18.31
-15.57
-10.16
-2.67
5.88
14.37
21.92
27.98
32.33
34.90
35.57
34.12
30.26
23.86
15.19
5.04
-5.25
-14.10
-19.99
-21.91
-19.59
-13.57
-5.09
4.27
12.82
19.14
22.28
21.92
18.39
12.62
5.85
-0.67
-6.05
-9.96
-12.70
-15.13
-18.24
-22.83
-28.96
-35.79
-41.67
-44.62
-43.06
-36.46
-25.65
-12.56
0.37
11.01
18.02
21.02
20.42
17.04
11.88
5.91
0.06
-4.92
-8.51
-10.57
-11.33
-11.32
-11.11
-11.10
-11.44
-12.01
-12.61
-13.12
-13.56
-14.09
-14.85
-15.86
-16.90
-17.60
-17.56
-16.52
-14.50
-11.86
-9.17
-7.03
-5.74
-5.09
-4.32
-2.38
1.63
7.98
16.05
24.42
31.31
35.16
35.12
31.15
23.91
14.38
3.58
-7.51
-17.99
-26.87
-33.17
-36.01
-34.89
-29.80
-21.29
-10.36
1.75
13.71
24.28
32.41
37.34
38.74
36.73
31.87
24.98
16.89
8.23
-0.74
-10.07
-19.99
-30.69
-42.12
-53.81
-64.79
-73.60
-78.62
-78.43
-72.34
-60.72
-44.94
-27.06
-9.26
6.77
20.01
30.17
37.41
42.09
44.60
45.32
44.61
42.83
40.34
37.50
34.68
32.22
30.37
29.20
28.50
27.86
26.73
24.64
21.38
17.03
11.90
6.39
0.87
-4.40
-9.31
-13.84
-18.09
-22.20
-26.38
-30.71
-35.02
-38.72
-40.84
-40.21
-35.90
-27.74
-16.50
-3.89
7.97
17.07
22.09
22.66
19.30
13.12
5.46
-2.39
-9.39
-14.83
-18.35
-19.96
-19.96
-18.87
-17.31
-15.84
-14.86
-14.54
-14.87
-15.69
-16.84
-18.20
-19.72
-21.38
-23.09
-24.69
-25.94
-26.68
-26.96
-27.13
-27.70
-29.11
-31.40
-33.99
-35.75
-35.34
-31.72
-24.54
-14.36
-2.36
9.98
21.40
31.05
38.51
43.54
45.93
45.36
41.59
34.71
25.36
14.73
4.40
-4.12
-9.71
-11.95
-11.12
-8.07
-3.91
0.22
3.34
4.76
4.13
1.48
-2.77
-7.88
-12.96
-17.17
-19.95
-21.09
-20.83
-19.66
-18.07
-16.35
-14.31
-11.35
-6.61
0.56
10.30
22.01
34.44
46.03
55.39
61.59
64.22
63.34
59.17
52.04
42.36
30.81
18.39
6.35
-4.01
-11.68
-16.20
-17.75
-17.10
-15.39
-13.78
-13.18
-14.07
-16.39
-19.67
-23.21
-26.31
-28.54
-29.82
-30.39
-30.66
-31.08
-32.00
-33.66
-36.20
-39.52
-43.21
-46.38
-47.73
-45.96
-40.18
-30.37
-17.54
-3.50
9.72
20.52
28.04
32.30
33.92
33.76
32.61
31.07
29.56
28.30
27.40
26.81
26.39
25.93
25.30
24.48
23.60
22.77
22.03
21.28
20.23
18.59
16.16
12.95
9.18
5.18
1.23
-2.60
-6.53
-11.04
-16.73
-24.06
-33.12
-43.31
-53.31
-61.26
-65.16
-63.54
-56.02
-43.53
-28.16
-12.54
0.96
10.81
16.58
18.72
18.21
16.11
13.33
10.63
8.69
8.06
9.17
12.17
16.92
23.00
29.86
36.90
43.58
49.35
53.68
56.08
56.09
53.48
48.29
40.89
31.96
22.30
12.75
3.98
-3.60
-9.84
-14.85
-18.75
-21.50
-22.70
-21.60
-17.36
-9.39
2.21
16.57
32.16
47.20
60.11
69.80
75.78
77.96
76.47
71.55
63.49
52.77
40.17
26.66
13.38
1.44
-8.27
-15.21
-19.22
-20.59
-19.89
-17.92
-15.48
-13.24
-11.59
-10.66
-10.33
-10.32
-10.38
-10.41
-10.45
-10.73
-11.63
-13.51
-16.63
-20.92
-25.81
-30.21
-32.65
-31.68
-26.36
-16.65
-3.55
11.16
25.42
37.43
46.09
51.09
52.72
51.68
48.75
44.72
40.25
35.90
32.06
28.97
26.67
25.12
24.16
23.68
23.50
23.40
23.11
22.25
20.48
17.59
13.56
8.73
3.66
-0.91
-4.31
-6.12
-6.34
-5.47
-4.39
-4.07
-5.26
-8.12
-12.14
-16.18
-18.85
-18.94
-15.87
-9.96
-2.31
5.48
11.80
15.50
16.09
13.70
8.95
2.63
-4.52
-11.82
-18.73
-24.78
-29.63
-33.09
-35.22
-36.27
-36.55
-36.37
-35.87
-35.05
-33.77
-31.92
-29.41
-26.30
-22.83
-19.43
-16.66
-15.05
-14.98
-16.53
-19.47
-23.38
-27.76
-32.10
-35.80
-38.09
-38.02
-34.67
-27.53
-16.83
-3.66
10.24
22.99
33.08
39.72
42.87
43.03
41.01
37.63
33.61
29.53
25.84
22.85
20.74
19.55
19.15
19.31
19.75
20.17
20.31
20.00
19.15
17.73
15.79
13.47
10.92
8.33
5.84
3.50
1.25
-1.12
-3.89
-7.40
-11.86
-17.21
-22.95
-28.09
-31.36
-31.61
-28.22
-21.43
-12.32
-2.45
6.63
13.79
18.60
21.21
22.10
21.77
20.49
18.28
14.95
10.23
4.04
-3.45
-11.71
-19.91
-27.10
-32.40
-35.28
-35.64
-33.87
-30.69
-26.91
-23.25
-20.13
-17.74
-16.04
-15.02
-14.71
-15.30
-17.07
-20.25
-24.86
-30.46
-36.00
-39.91
-40.41
-36.07
-26.41
-12.29
4.22
20.33
33.28
41.11
42.97
39.15
30.82
19.67
7.58
-3.66
-12.54
-18.10
-20.06
-18.72
-14.87
-9.44
-3.28
2.98
8.97
14.52
19.53
23.95
27.70
30.65
32.51
32.91
31.33
27.32
20.53
10.95
-1.14
-15.12
-30.14
-45.06
-58.45
-68.57
-73.65
-72.27
-63.95
-49.44
-30.76
-10.78
7.38
21.13
28.86
30.07
25.32
15.92
3.68
-9.40
-21.48
-31.09
-37.27
-39.60
-38.25
-33.81
-27.19
-19.50
-11.93
-5.78
-2.19
-1.88
-4.86
-10.60
-18.27
-26.99
-36.03
-44.99
-53.79
-62.50
-71.13
-79.26
-86.44
-92.35
-96.67
-98.94
-98.57
-94.94
-87.61
-76.44
-61.41
-43.19
-23.21
-3.28
15.01
30.72
43.96
54.12
60.36
63.30
64.57
65.37
65.78
65.25
63.36
60.03
57.74
55.77
53.08
48.53
41.33
31.51
20.08
8.66
-1.09
-10.04
-17.95
-23.60
-25.53
-22.39
-13.45
0.91
18.82
36.96
51.30
58.36
56.72
46.85
31.00
12.69
-4.03
-15.54
-19.61
-15.96
-6.02
8.40
24.83
40.62
53.53
62.33
66.94
68.22
67.53
66.41
67.23
71.30
78.27
86.41
93.44
97.53
97.91
95.00
90.36
87.52
89.36
96.58
107.87
120.47
131.25
137.68
138.41
124.81
94.22
50.95
4.31
-36.67
-68.04
-90.78
-108.08
-122.93
-136.79
-146.70
-148.52
-140.00
-121.06
-94.11
-63.29
-33.43
-10.11
1.95
0.93
-13.09
-41.30
-79.23
-116.46
-141.51
-148.18
-137.92
-117.08
-93.84
-69.64
-44.22
-16.41
14.45
48.00
83.45
117.84
144.90
159.79
160.68
148.54
126.90
99.41
68.78
37.03
5.97
-22.32
-45.32
-60.87
-68.86
-70.21
-66.51
-59.46
-50.29
-39.71
-27.81
-14.59
0.45
15.68
28.45
36.11
37.51
33.56
27.02
21.46
20.30
25.61
36.36
49.28
60.00
64.51
60.16
46.28
23.78
-5.61
-36.59
-63.49
-82.72
-93.74
-97.89
-96.64
-90.55
-79.89
-65.08
-48.16
-32.88
-23.28
-21.96
-29.01
-43.36
-59.83
-71.75
-71.41
-53.23
-16.80
31.82
80.98
117.53
131.30
119.42
84.09
38.41
-1.80
-26.67
-35.63
-35.27
-32.98
-33.09
-35.18
-36.42
-33.75
-27.25
-19.74
-14.99
-16.77
-24.61
-36.55
-50.16
-64.19
-78.23
-92.58
-106.63
-114.42
-111.61
-94.92
-64.82
-26.27
12.69
44.65
65.38
75.10
77.45
76.47
74.79
72.75
69.61
64.93
59.75
55.97
55.16
57.89
64.22
73.04
83.38
94.22
103.54
107.96
103.35
86.82
57.37
20.43
-16.15
-45.07
-62.41
-68.66
-67.49
-63.47
-59.69
-57.14
-55.22
-53.42
-51.68
-50.61
-50.60
-51.44
-52.53
-53.00
-52.36
-51.08
-50.92
-53.63
-59.51
-66.30
-69.36
-64.11
-47.44
-20.49
11.52
41.04
61.56
70.23
67.80
59.02
48.69
39.80
33.00
27.63
22.93
18.90
16.15
15.12
15.65
16.68
17.18
16.31
14.15
11.41
9.04
7.76
7.69
8.47
9.31
9.62
9.17
8.27
7.58
7.42
7.82
8.48
8.98
9.05
8.88
9.06
10.28
12.91
16.69
20.89
24.58
27.26
28.82
29.93
31.61
34.90
40.37
47.86
56.35
64.04
68.62
67.89
60.72
47.66
31.12
14.75
2.26
-3.92
-3.61
0.88
5.68
6.88
1.96
-8.96
-23.54
-38.38
-50.63
-58.84
-63.23
-64.80
-64.45
-62.41
-58.37
-52.46
-45.69
-39.99
-37.19
-38.14
-41.97
-46.47
-49.35
-49.06
-45.81
-41.43
-38.33
-38.34
-42.63
-51.37
-63.59
-77.03
-88.02
-92.16
-85.27
-66.45
-38.21
-6.25
22.66
43.30
53.89
56.23
54.17
50.96
48.23
46.01
43.64
40.97
38.70
37.81
38.80
41.19
43.84
45.61
46.08
45.52
45.01
45.92
49.35
55.61
63.66
71.15
74.97
72.47
62.68
47.05
29.06
12.69
0.71
-6.49
-10.58
-13.96
-18.11
-22.79
-26.38
-27.15
-24.46
-19.18
-13.15
-8.11
-4.93
-3.43
-2.95
-2.85
-3.07
-3.92
-5.80
-8.77
-12.41
-15.93
-18.62
-20.16
-20.80
-21.31
-22.58
-25.18
-28.98
-32.90
-35.26
-34.51
-29.95
-22.15
-12.81
-4.04
2.46
5.92
6.69
5.90
4.74
3.95
3.67
3.72
3.91
4.69
6.11
7.99
10.01
11.65
12.29
11.45
8.77
4.55
-0.50
-5.51
-9.63
-12.21
-12.95
-12.02
-9.92
-7.26
-4.65
-2.52
-0.64
0.96
2.27
3.25
3.71
3.18
1.02
-3.39
-10.21
-18.82
-27.69
-34.63
-37.40
-34.48
-25.59
-11.76
4.98
22.25
37.89
50.35
58.93
63.51
64.39
61.98
56.71
49.04
39.43
28.50
17.00
5.88
-3.84
-11.22
-15.47
-16.12
-13.09
-6.82
1.79
11.41
20.66
28.39
33.96
37.34
39.04
39.87
40.60
41.77
43.50
45.50
47.20
47.86
46.70
43.08
36.72
27.87
17.35
6.46
-3.47
-11.56
-17.78
-22.96
-28.30
-34.66
-41.90
-48.67
-52.88
-52.62
-47.16
-37.34
-25.47
-14.48
-6.83
-3.87
-5.65
-11.15
-18.75
-26.60
-32.96
-36.56
-36.99
-34.86
-31.65
-29.13
-28.61
-30.34
-33.49
-36.56
-38.09
-37.18
-33.75
-28.39
-22.01
-15.67
-10.33
-6.80
-5.59
-6.79
-10.01
-14.52
-19.44
-23.90
-27.16
-28.75
-28.50
-26.51
-23.10
-18.60
-13.13
-6.45
1.91
12.33
24.81
38.71
52.90
66.08
77.27
86.15
93.22
99.53
106.14
113.40
120.33
124.61
123.28
114.00
96.40
72.59
46.61
22.95
4.92
-6.38
-11.79
-13.22
-12.50
-10.81
-8.96
-7.81
-8.59
-12.55
-20.34
-31.50
-44.44
-57.03
-67.38
-74.43
-78.25
-79.86
-80.83
-82.61
-85.96
-90.53
-94.88
-97.06
-95.38
-89.12
-78.72
-65.53
-51.12
-36.77
-23.21
-10.79
0.26
9.69
17.26
22.88
26.59
28.47
28.50
26.56
22.64
17.14
11.00
5.52
2.04
1.48
4.05
9.12
15.38
21.09
24.51
24.41
20.42
13.18
4.15
-4.95
-12.79
-18.86
-23.49
-27.44
-31.34
-35.28
-38.85
-41.46
-42.77
-42.91
-42.34
-41.61
-41.04
-40.68
-40.40
-40.04
-39.52
-38.76
-37.62
-35.91
-33.48
-30.34
-26.78
-23.28
-20.34
-18.27
-17.08
-16.52
-16.16
-15.59
-14.49
-12.70
-10.22
-7.22
-3.96
-0.74
2.15
4.55
6.41
7.79
8.82
9.60
10.20
10.62
10.83
10.87
10.82
10.82
11.02
11.52
12.30
13.23
14.09
14.58
14.42
13.34
11.24
8.15
4.35
0.28
-3.54
-6.63
-8.65
-9.44
-9.04
-7.67
-5.67
-3.44
-1.33
0.38
1.66
2.60
3.43
4.34
5.40
6.56
7.70
8.68
9.41
9.78
9.67
9.00
7.73
5.93
3.81
1.66
-0.21
-1.48
-1.88
-1.29
0.31
2.78
5.84
9.18
12.53
15.71
18.61
21.13
23.18
24.69
25.67
26.28
26.73
27.17
27.61
27.89
27.77
27.07
25.84
24.36
23.04
22.22
22.10
22.64
23.72
25.28
27.43
30.35
34.18
38.80
43.75
48.29
51.71
53.58
53.99
53.50
53.01
53.43
55.48
59.50
65.26
71.79
77.42
80.07
77.89
69.94
56.66
39.86
22.09
5.78
-7.50
-17.23
-23.74
-27.63
-29.35
-29.08
-26.93
-23.17
-18.34
-13.22
-8.63
-5.24
-3.53
-3.77
-6.20
-11.02
-18.40
-28.31
-40.40
-53.73
-66.86
-78.04
-85.58
-88.39
-86.21
-79.69
-70.10
-58.94
-47.54
-36.91
-27.67
-20.22
-14.81
-11.64
-10.84
-12.43
-16.17
-21.46
-27.41
-32.94
-37.06
-39.05
-38.67
-36.12
-31.96
-26.95
-21.89
-17.52
-14.39
-12.81
-12.74
-13.84
-15.53
-17.11
-17.89
-17.35
-15.21
-11.58
-7.02
-2.42
1.19
2.98
2.69
0.60
-2.56
-5.94
-8.79
-10.55
-10.82
-9.31
-5.94
-0.94
5.19
11.86
18.63
25.39
32.32
39.61
47.20
54.64
61.27
66.38
69.35
69.59
66.43
59.21
47.62
32.04
13.75
-5.31
-23.11
-38.16
-49.83
-58.16
-63.42
-65.64
-64.59
-59.99
-51.94
-41.19
-29.00
-16.79
-5.65
3.79
11.36
17.10
20.99
23.01
23.19
21.89
19.78
17.76
16.67
17.02
18.83
21.65
24.76
27.43
29.11
29.58
28.94
27.44
25.41
23.16
20.95
19.02
17.55
16.74
16.65
17.24
18.26
19.28
19.79
19.27
17.33
13.87
9.13
3.76
-1.39
-5.46
-7.83
-8.39
-7.47
-5.73
-3.85
-2.34
-1.43
-1.17
-1.50
-2.39
-3.80
-5.57
-7.38
-8.79
-9.31
-8.63
-6.71
-3.79
-0.32
3.19
6.28
8.64
10.11
10.72
10.58
9.97
9.17
8.48
8.09
8.08
8.37
8.81
9.17
9.29
9.04
8.44
7.65
6.99
6.90
7.76
9.86
13.14
17.23
21.48
25.12
27.47
28.18
27.23
24.94
21.85
18.51
15.42
12.88
11.06
9.95
9.45
9.38
9.46
9.33
8.66
7.19
4.88
1.89
-1.50
-5.01
-8.45
-11.81
-15.12
-18.37
-21.41
-24.01
-25.92
-27.07
-27.61
-27.83
-28.08
-28.51
-29.01
-29.22
-28.65
-26.87
-23.67
-19.13
-13.60
-7.54
-1.46
4.20
9.08
12.86
15.29
16.28
15.96
14.72
13.17
11.89
11.27
11.30
11.67
11.86
11.40
10.03
7.72
4.70
1.31
-2.11
-5.20
-7.72
-9.55
-10.72
-11.37
-11.75
-12.05
-12.40
-12.86
-13.49
-14.39
-15.70
-17.54
-19.84
-22.31
-24.36
-25.34
-24.73
-22.33
-18.39
-13.48
-8.33
-3.58
0.40
3.50
5.82
7.54
8.78
9.59
9.98
9.99
9.73
9.33
8.90
8.38
7.65
6.54
4.95
2.96
0.75
-1.35
-3.10
-4.38
-5.22
-5.82
-6.48
-7.51
-9.24
-11.95
-15.80
-20.69
-26.16
-31.40
-35.36
-37.08
-35.95
-31.92
-25.56
-17.84
-9.88
-2.59
3.49
8.25
11.89
14.70
16.95
18.76
20.17
21.23
22.01
22.68
23.37
24.11
24.82
25.28
25.22
24.46
22.95
20.77
18.11
15.20
12.23
9.33
6.51
3.71
0.79
-2.46
-6.16
-10.39
-15.05
-19.91
-24.57
-28.52
-31.25
-32.36
-31.72
-29.49
-26.15
-22.28
-18.43
-14.93
-11.91
-9.38
-7.33
-5.78
-4.79
-4.37
-4.41
-4.73
-5.08
-5.26
-5.15
-4.74
-4.01
-2.96
-1.61
0.03
1.92
3.98
6.12
8.27
10.34
12.23
13.83
15.05
15.86
16.26
16.35
16.21
15.90
15.46
14.98
14.57
14.43
14.71
15.46
16.48
17.38
17.64
16.86
14.89
11.91
8.29
4.44
0.61
-3.18
-6.98
-10.81
-14.47
-17.57
-19.66
-20.47
-19.99
-18.49
-16.38
-14.01
-11.64
-9.34
-7.12
-5.00
-3.00
-1.15
0.52
2.00
3.22
3.99
4.05
3.04
0.64
-3.24
-8.32
-13.90
-18.94
-22.33
-23.18
-21.18
-16.66
-10.47
-3.68
2.74
8.11
12.15
14.75
15.91
15.64
14.00
11.18
7.59
3.83
0.53
-1.78
-2.83
-2.62
-1.39
0.57
2.97
5.57
8.15
10.48
12.30
13.37
13.59
13.07
12.12
11.11
10.24
9.42
8.24
6.10
2.52
-2.67
-9.07
-15.80
-21.69
-25.61
-26.81
-25.09
-20.86
-14.94
-8.34
-1.95
3.64
8.25
12.01
15.28
18.36
21.45
24.57
27.59
30.34
32.71
34.65
36.17
37.30
38.05
38.45
38.53
38.27
37.54
36.09
33.59
29.78
24.60
18.26
11.17
3.80
-3.47
-10.40
-16.86
-22.71
-27.72
-31.64
-34.33
-35.86
-36.51
-36.61
-36.36
-35.70
-34.31
-31.75
-27.70
-22.14
-15.42
-8.14
-1.00
5.40
10.73
14.80
17.61
19.19
19.66
19.19
18.11
16.76
15.41
14.06
12.49
10.35
7.48
4.09
0.84
-1.42
-1.98
-0.56
2.56
6.72
11.19
15.37
18.97
21.96
24.43
26.52
28.27
29.70
30.75
31.36
31.48
31.08
30.19
28.95
27.51
26.05
24.64
23.28
21.83
20.09
17.83
14.85
10.95
5.92
-0.42
-8.21
-17.41
-27.74
-38.59
-49.04
-57.99
-64.46
-67.83
-67.93
-65.11
-60.04
-53.54
-46.39
-39.24
-32.59
-26.77
-22.01
-18.35
-15.68
-13.78
-12.37
-11.17
-9.97
-8.57
-6.85
-4.77
-2.44
-0.18
1.57
2.39
2.01
0.56
-1.52
-3.60
-5.08
-5.62
-5.22
-4.13
-2.63
-0.91
1.04
3.29
5.89
8.66
11.25
13.22
14.19
13.99
12.66
10.42
7.56
4.37
1.06
-2.14
-5.08
-7.56
-9.42
-10.51
-10.72
-10.08
-8.69
-6.76
-4.54
-2.29
-0.23
1.47
2.71
3.49
3.82
3.70
3.01
1.50
-1.16
-5.23
-10.71
-17.21
-23.89
-29.62
-33.30
-34.18
-32.05
-27.36
-20.97
-13.90
-7.02
-0.88
4.29
8.46
11.60
13.68
14.54
14.04
12.11
8.74
4.05
-1.71
-8.19
-14.93
-21.37
-26.96
-31.24
-33.95
-35.09
-34.89
-33.81
-32.41
-31.22
-30.65
-30.86
-31.71
-32.80
-33.57
-33.46
-32.19
-29.91
-27.22
-24.99
-24.03
-24.61
-26.18
-27.45
-26.73
-22.62
-14.64
-3.54
8.85
20.19
28.38
32.28
31.88
28.26
23.10
18.12
14.57
12.94
12.94
13.66
13.85
12.32
8.29
1.72
-6.52
-14.79
-21.14
-23.92
-22.39
-17.00
-9.12
-0.55
7.13
12.98
16.71
18.43
18.35
16.57
13.20
8.51
3.09
-2.29
-6.95
-10.59
-13.44
-16.02
-18.80
-21.79
-24.46
-25.94
-25.42
-22.57
-17.82
-12.07
-6.39
-1.54
2.27
5.33
8.09
10.93
13.92
16.87
19.47
21.45
22.72
23.38
23.66
23.87
24.31
25.18
26.62
28.70
31.41
34.66
38.32
42.14
45.81
48.94
51.22
52.51
52.91
52.82
52.81
53.43
54.93
57.23
59.88
62.35
64.25
65.46
66.14
66.47
66.42
65.69
63.68
59.75
53.39
44.28
32.31
17.65
0.79
-17.26
-34.94
-50.34
-61.61
-67.50
-67.80
-63.46
-56.27
-48.26
-41.09
-35.65
-32.04
-29.93
-28.93
-28.97
-30.33
-33.38
-38.27
-44.67
-51.72
-58.34
-63.57
-66.84
-68.05
-67.38
-65.07
-61.31
-56.22
-49.98
-43.00
-35.87
-29.19
-23.40
-18.54
-14.34
-10.40
-6.41
-2.37
1.40
4.39
6.20
6.67
6.10
5.12
4.45
4.74
6.37
9.41
13.66
18.67
23.88
28.90
33.47
37.36
40.39
42.37
43.23
43.10
42.21
40.87
39.54
38.51
37.71
36.81
35.45
33.49
31.22
29.12
27.65
27.74
29.85
33.68
38.26
42.56
45.74
47.91
49.40
50.44
52.58
56.90
63.46
71.21
78.86
85.27
90.87
96.35
102.24
110.91
123.49
138.65
152.81
162.03
163.64
159.00
151.39
144.58
144.61
154.94
174.96
200.25
225.20
244.67
257.26
262.46
241.58
184.94
97.29
-2.48
-93.13
-156.68
-197.14
-220.61
-232.68
-238.18
-237.07
-229.23
-216.04
-200.75
-187.00
-177.95
-173.39
-172.26
-173.38
-173.27
-169.17
-160.17
-147.42
-133.01
-119.26
-106.45
-94.74
-84.49
-74.64
-64.30
-53.37
-42.61
-33.12
-25.96
-20.73
-16.90
-14.09
-11.41
-8.41
-5.28
-2.86
-2.14
-3.89
-7.89
-13.40
-19.49
-24.87
-28.50
-29.85
-29.06
-26.77
-23.85
-20.87
-18.17
-15.85
-13.81
-11.91
-10.03
-8.10
-6.12
-4.07
-1.94
0.25
2.47
4.68
6.87
9.05
11.24
13.48
15.73
17.92
19.92
21.62
22.92
23.73
23.93
23.35
21.82
19.14
15.24
10.21
4.32
-2.05
-8.46
-14.53
-19.99
-24.67
-28.48
-31.38
-33.41
-34.69
-35.47
-36.03
-36.61
-37.28
-37.92
-38.25
-37.98
-36.89
-34.87
-31.86
-27.67
-21.90
-13.93
-3.17
10.67
27.21
45.33
63.29
79.30
92.02
100.94
106.45
109.47
110.94
111.46
111.20
109.94
107.23
102.36
94.51
82.83
66.82
46.74
23.88
0.37
-21.29
-39.04
-51.79
-59.56
-63.20
-63.89
-62.66
-60.22
-57.01
-53.35
-49.61
-46.17
-43.34
-41.26
-39.84
-38.76
-37.60
-36.03
-33.94
-31.53
-29.18
-27.30
-26.10
-25.52
-25.19
-24.61
-23.38
-21.31
-18.56
-15.45
-12.34
-9.41
-6.56
-3.43
0.40
5.17
10.75
16.60
21.99
26.26
29.16
30.95
32.27
33.81
36.07
39.18
42.86
46.50
49.32
50.59
49.88
47.41
44.14
41.62
41.46
44.62
50.95
58.97
66.17
69.55
66.30
54.57
34.19
7.05
-22.91
-50.64
-71.40
-82.29
-83.01
-75.61
-63.33
-49.13
-34.87
-21.39
-9.12
1.20
8.47
11.69
10.59
5.86
-1.09
-8.75
-15.93
-21.83
-25.86
-27.64
-27.14
-25.08
-23.06
-23.20
-27.17
-35.33
-46.17
-56.71
-63.65
-64.70
-59.43
-49.35
-37.11
-25.41
-16.18
-10.15
-7.14
-6.42
-7.11
-8.39
-9.44
-9.48
-7.85
-4.29
0.82
6.43
11.17
13.82
13.81
11.44
7.66
3.64
0.27
-2.14
-3.73
-4.95
-6.23
-7.89
-10.06
-12.71
-15.60
-18.28
-20.26
-21.10
-20.70
-19.32
-17.52
-15.79
-14.41
-13.28
-12.12
-10.66
-8.87
-7.01
-5.47
-4.54
-4.26
-4.35
-4.29
-3.52
-1.58
1.70
6.21
11.57
17.28
22.71
27.19
30.05
30.62
28.53
23.88
17.33
10.01
3.10
-2.56
-6.74
-9.75
-12.16
-14.40
-16.55
-18.39
-19.61
-20.17
-20.27
-20.26
-20.29
-20.16
-19.35
-17.41
-14.30
-10.52
-6.94
-4.33
-2.99
-2.51
-2.03
-0.61
2.38
7.11
13.34
20.56
27.92
34.16
37.74
37.32
32.39
23.86
13.98
5.66
1.27
1.79
6.53
13.72
21.41
28.35
34.18
39.15
43.67
48.12
52.88
58.46
65.46
74.16
84.04
93.46
99.90
100.68
93.95
79.56
59.40
36.98
16.37
0.88
-7.87
-10.18
-7.76
-2.70
3.49
10.35
18.24
27.66
38.34
49.00
57.47
61.42
59.22
50.56
36.55
19.51
2.22
-13.00
-24.68
-32.53
-37.22
-39.97
-42.03
-44.31
-47.14
-50.35
-53.73
-56.97
-59.87
-62.35
-64.36
-65.78
-66.26
-65.18
-61.89
-56.58
-49.95
-43.24
-37.76
-34.40
-33.27
-33.61
-33.93
-32.68
-29.76
-25.85
-22.56
-21.48
-23.61
-28.86
-36.05
-43.20
-48.29
-51.14
-52.23
-52.78
-53.94
-56.60
-61.57
-69.89
-82.92
-95.08
-102.19
-101.40
-93.00
-79.30
-63.26
-47.96
-36.13
-29.07
-25.42
-24.81
-21.59
-10.79
9.87
39.01
72.03
102.90
126.57
140.57
144.54
138.36
123.64
103.28
80.60
58.89
41.01
29.19
24.49
25.90
31.29
37.88
43.16
45.75
45.67
44.12
42.81
43.21
45.67
49.70
54.22
57.91
59.77
59.33
56.75
52.70
48.07
43.58
39.74
36.80
34.69
33.15
31.82
30.29
28.14
25.07
20.96
16.03
10.83
5.96
1.85
-1.39
-4.04
-6.60
-9.65
-13.63
-18.81
-25.21
-32.87
-41.62
-50.93
-59.99
-68.00
-74.50
-79.65
-84.10
-88.46
-93.06
-97.19
-99.22
-97.20
-89.91
-77.70
-62.50
-47.12
-34.13
-25.36
-20.90
-19.26
-18.11
-15.51
-10.79
-4.67
1.35
5.83
7.58
6.56
3.92
1.27
-0.31
-0.84
-1.29
-2.62
-1.71
3.55
12.73
22.26
27.76
26.92
20.61
12.40
6.93
7.45
13.81
23.02
30.89
34.32
32.58
27.04
20.29
14.79
11.68
10.31
9.30
7.43
4.24
0.11
-4.19
-8.24
-10.08
-8.06
-1.88
7.30
17.08
24.77
28.29
26.59
20.22
11.66
4.10
-0.03
0.01
3.13
7.22
9.78
8.28
1.26
-10.66
-25.23
-39.73
-51.73
-60.27
-66.12
-68.84
-70.64
-74.45
-82.41
-94.73
-109.44
-121.76
-126.27
-118.55
-97.43
-60.17
-11.52
36.80
74.59
104.91
136.67
174.44
219.33
268.41
315.25
353.76
378.81
387.37
364.87
307.85
228.52
148.49
88.48
45.52
13.41
-12.65
-32.79
-46.60
-53.10
-53.56
-51.83
-53.38
-63.20
-81.74
-106.48
-133.18
-157.95
-177.11
-189.69
-197.60
-204.56
-214.00
-225.78
-237.64
-246.30
-248.79
-242.17
-225.03
-197.89
-162.96
-123.43
-81.78
-40.65
-2.80
29.24
54.25
71.94
82.51
86.26
83.42
74.81
61.39
44.34
25.14
5.85
-11.48
-25.32
-34.94
-40.50
-42.60
-42.32
-40.80
-38.98
-37.32
-35.84
-34.31
-32.42
-30.00
-27.01
-23.47
-19.49
-15.23
-11.02
-7.35
-4.71
-3.32
-2.91
-2.71
-1.80
0.37
3.60
7.01
9.42
10.08
9.06
7.33
6.20
6.61
8.62
11.31
13.27
13.23
10.72
6.24
1.14
-2.95
-4.62
-3.19
1.16
7.50
14.47
20.78
25.49
28.23
29.12
28.56
27.02
24.88
22.45
20.03
17.90
16.26
15.02
13.78
11.79
8.39
3.31
-2.85
-8.70
-12.31
-11.95
-6.65
3.36
16.74
31.40
45.16
56.13
63.10
65.58
63.74
58.36
50.58
41.75
33.11
25.65
19.94
16.17
14.27
14.08
15.36
17.82
21.03
24.39
27.08
28.18
26.72
21.98
13.67
2.22
-11.14
-24.65
-36.42
-45.09
-50.23
-52.48
-53.11
-53.48
-54.31
-55.41
-55.68
-53.64
-47.97
-38.05
-24.19
-7.42
10.78
28.97
46.03
61.33
74.72
86.33
96.36
104.83
111.42
115.41
115.83
111.84
103.11
90.18
74.58
58.44
43.95
32.71
25.36
21.54
20.23
20.31
20.93
21.68
22.50
23.40
24.21
24.37
22.95
18.63
10.15
-3.37
-21.81
-43.80
-66.67
-87.01
-101.46
-107.66
-104.83
-93.79
-76.62
-55.94
-34.35
-14.07
3.20
16.22
24.30
27.36
26.06
21.74
16.15
11.05
7.74
6.73
7.73
9.85
11.97
13.17
13.00
11.60
9.51
7.45
5.97
5.28
5.25
5.47
5.44
4.70
2.86
-0.33
-4.98
-10.98
-17.91
-25.08
-31.57
-36.57
-39.60
-40.71
-40.45
-39.59
-38.86
-38.77
-39.58
-41.56
-45.04
-50.46
-58.07
-67.62
-78.12
-88.02
-95.64
-99.65
-99.48
-95.29
-87.78
-77.79
-66.16
-53.69
-41.27
-29.90
-20.60
-14.14
-10.79
-10.26
-11.86
-14.76
-18.09
-21.39
-24.64
-28.00
-31.28
-33.65
-33.40
-28.56
-17.69
-0.36
22.35
47.92
73.11
94.88
111.08
120.84
124.37
122.75
118.17
113.06
109.36
107.82
107.68
106.66
102.03
91.36
73.61
51.29
28.87
11.23
2.05
2.96
12.78
29.04
47.81
64.85
79.66
92.87
104.75
114.30
119.99
119.80
114.41
105.28
94.09
87.00
89.08
101.63
121.82
145.19
166.63
185.81
203.59
220.88
243.83
276.69
318.53
363.28
403.60
432.71
451.41
462.63
434.27
349.27
214.58
59.77
-82.57
-179.55
-239.16
-271.72
-285.78
-288.04
-280.93
-264.48
-240.71
-214.28
-190.13
-173.43
-163.36
-158.12
-156.39
-153.20
-145.18
-133.27
-122.51
-118.85
-127.31
-146.11
-170.60
-195.30
-212.87
-218.22
-210.77
-194.01
-173.01
-153.06
-135.88
-121.99
-111.50
-103.08
-95.31
-87.64
-80.48
-74.69
-71.51
-70.95
-72.81
-76.82
-82.03
-87.37
-92.10
-95.86
-98.43
-99.75
-99.35
-97.00
-92.92
-87.67
-81.84
-75.76
-69.21
-61.55
-51.99
-40.01
-25.66
-9.61
7.10
23.41
38.57
52.31
64.80
76.38
87.37
97.80
107.39
115.57
121.72
125.34
126.06
123.72
118.28
109.92
99.05
86.32
72.72
59.55
48.25
40.11
35.94
35.89
39.56
46.04
54.14
62.49
69.53
73.40
72.00
63.42
46.80
23.31
-4.03
-31.33
-55.15
-73.50
-86.08
-93.68
-97.19
-96.74
-91.22
-79.68
-62.67
-42.66
-23.02
-6.51
5.79
14.73
22.27
31.13
42.63
55.91
68.36
77.36
81.80
82.29
80.61
78.56
78.19
80.22
83.76
87.01
88.65
88.48
86.60
82.52
68.33
39.26
-2.41
-48.01
-89.12
-122.22
-147.74
-166.79
-178.47
-179.27
-163.85
-129.31
-78.47
-20.50
32.11
68.17
81.45
72.23
46.46
13.51
-17.37
-39.87
-51.65
-53.19
-46.41
-33.64
-17.29
1.16
19.95
37.24
50.91
58.71
58.99
51.18
35.75
14.32
-10.36
-35.29
-57.42
-73.65
-82.80
-86.84
-89.51
-94.06
-102.04
-109.22
-109.91
-98.77
-73.41
-36.22
6.36
46.29
74.78
88.74
91.05
87.31
82.91
80.56
79.62
78.20
75.23
71.67
70.05
72.06
76.36
79.16
76.15
64.76
46.38
25.63
8.12
-2.24
-5.39
-5.02
-6.09
-11.99
-23.36
-37.36
-50.08
-58.46
-61.57
-60.63
-58.14
-56.31
-55.34
-55.56
-55.70
-54.16
-49.86
-42.58
-33.23
-23.54
-15.39
-10.31
-9.68
-13.75
-22.21
-32.60
-41.03
-42.25
-31.19
-5.42
32.29
73.52
106.88
122.12
114.58
87.23
49.37
12.45
-14.27
-27.18
-29.03
-25.13
-19.79
-14.47
-8.55
-1.13
7.34
15.05
19.41
19.11
14.95
9.55
5.77
5.54
8.85
13.75
18.18
20.13
18.76
14.63
9.37
4.63
1.26
-0.90
-2.78
-5.39
-9.44
-14.00
-18.97
-23.63
-27.46
-30.38
-32.69
-34.66
-36.19
-37.01
-36.72
-35.38
-33.46
-31.94
-31.89
-33.85
-37.41
-41.17
-43.55
-43.57
-41.34
-38.08
-35.59
-35.39
-38.03
-43.10
-49.64
-56.51
-62.25
-64.81
-61.61
-50.17
-29.89
-2.74
26.65
53.31
73.35
85.92
93.23
98.55
103.66
106.89
103.89
90.30
65.28
32.55
-0.46
-25.94
-39.35
-41.00
-35.32
-27.70
-22.52
-20.31
-18.93
-15.89
-10.50
-5.00
-2.62
-6.31
-17.14
-34.16
-54.86
-75.90
-93.78
-104.56
-105.69
-95.97
-76.76
-52.05
-27.31
-7.29
5.61
11.86
14.02
14.82
15.97
17.76
19.55
21.14
23.41
27.71
34.89
44.51
54.67
62.95
67.29
66.65
61.46
53.36
44.34
35.85
28.47
21.94
15.19
8.11
1.12
-5.41
-10.40
-12.74
-11.86
-8.08
-2.53
3.43
8.43
11.56
12.83
13.11
13.56
15.05
17.79
21.18
24.40
26.40
26.55
25.16
23.43
22.84
24.48
28.54
34.20
40.34
45.66
49.43
51.95
54.40
58.11
64.10
72.96
82.87
94.51
107.06
117.50
120.97
112.38
89.03
52.64
9.55
-31.46
-62.31
-79.38
-83.97
-80.59
-74.29
-68.36
-63.63
-59.44
-55.06
-50.25
-45.76
-42.36
-40.08
-38.39
-36.69
-34.48
-31.85
-29.28
-27.11
-25.88
-26.13
-27.63
-30.19
-33.67
-38.05
-43.84
-51.83
-62.55
-74.73
-86.12
-92.39
-88.89
-72.66
-43.87
-6.45
32.54
65.18
84.92
87.90
73.91
46.09
9.80
-28.79
-64.11
-91.76
-108.33
-111.30
-99.60
-74.28
-38.55
-0.29
31.97
51.92
57.69
52.53
43.42
37.77
40.21
49.88
62.06
69.34
65.31
47.23
16.81
-20.63
-58.14
-89.29
-109.62
-116.83
-110.39
-91.41
-62.63
-28.84
3.88
29.70
44.88
49.01
44.78
36.53
28.26
22.47
19.73
19.40
20.52
22.26
23.93
24.84
24.41
20.84
14.92
7.72
0.25
-6.72
-12.79
-17.93
-22.42
-26.72
-31.20
-35.74
-40.20
-44.22
-46.70
-47.19
-45.31
-40.97
-34.50
-26.65
-18.17
-10.05
-3.09
2.23
6.31
9.76
13.13
16.60
19.94
22.69
24.20
23.99
22.00
19.34
17.43
17.77
21.83
30.83
45.61
66.22
92.08
116.85
135.74
144.98
142.88
130.52
111.32
89.77
69.72
53.24
40.39
30.73
23.47
18.25
15.17
14.28
15.08
16.40
16.74
14.77
10.37
4.07
-3.08
-10.03
-16.02
-20.75
-24.34
-27.10
-29.41
-31.22
-32.56
-33.50
-34.20
-34.91
-35.81
-36.89
-37.95
-38.60
-38.30
-36.65
-33.56
-29.16
-23.79
-17.95
-12.21
-7.22
-3.56
-1.61
-1.41
-2.59
-4.47
-6.33
-7.68
-8.41
-8.79
-9.24
-10.03
-11.21
-12.59
-13.95
-15.12
-16.07
-16.77
-17.08
-16.69
-15.23
-12.46
-8.59
-4.30
-0.65
1.37
1.24
-0.77
-3.70
-6.28
-7.50
-6.99
-5.11
-2.68
-0.55
0.73
1.02
0.49
-0.51
-1.66
-2.72
-3.52
-4.02
-4.24
-4.30
-4.29
-4.22
-3.96
-3.26
-1.92
0.09
2.64
5.48
8.37
11.14
13.71
15.95
17.66
18.57
18.44
17.23
15.16
12.71
10.44
8.82
8.06
8.09
8.66
9.39
9.85
9.71
8.77
7.06
4.85
2.58
0.75
-0.25
-0.24
0.74
2.45
4.66
7.17
9.94
12.95
16.24
19.81
23.64
27.70
31.97
36.49
41.35
46.65
52.45
58.76
65.57
72.80
80.39
88.25
96.14
103.61
109.91
114.10
115.30
112.92
106.88
97.67
86.21
73.53
60.52
47.68
35.13
22.67
9.96
-3.40
-17.75
-33.35
-50.19
-67.91
-85.60
-101.96
-115.54
-125.17
-130.28
-130.96
-127.80
-121.58
-113.02
-102.77
-91.39
-79.54
-67.91
-57.10
-47.52
-39.30
-32.36
-26.49
-21.37
-16.51
-11.31
-5.14
2.32
10.73
19.05
25.74
29.29
28.76
24.11
16.05
5.67
-6.06
-18.49
-31.23
-43.85
-55.62
-65.51
-72.53
-76.06
-76.15
-73.49
-69.06
-63.80
-58.27
-52.68
-46.99
-41.17
-35.29
-29.58
-24.29
-19.61
-15.62
-12.30
-9.57
-7.40
-5.73
-4.57
-3.90
-3.70
-3.88
-4.29
-4.72
-4.94
-4.80
-4.31
-3.56
-2.76
-2.04
-1.42
-0.78
0.08
1.31
2.99
5.08
7.44
9.96
12.50
14.98
17.26
19.26
20.86
22.02
22.82
23.39
23.93
24.60
25.45
26.42
27.39
28.19
28.76
29.18
29.63
30.37
31.59
33.38
35.63
38.09
40.49
42.58
44.32
45.84
47.40
49.30
51.73
54.64
57.78
60.64
62.61
63.12
61.76
58.40
53.18
46.49
38.80
30.69
22.68
15.33
9.20
4.79
2.54
2.69
5.19
9.65
15.37
21.46
27.04
31.50
34.69
36.94
38.92
41.31
44.44
48.09
51.45
53.34
52.67
48.76
41.70
32.26
21.60
10.87
0.82
-8.44
-17.30
-26.35
-36.03
-46.41
-57.21
-67.99
-78.35
-87.99
-96.72
-104.39
-110.82
-115.90
-119.63
-122.13
-123.49
-123.73
-122.75
-120.40
-116.79
-112.44
-108.33
-105.59
-105.19
-107.47
-111.99
-117.57
-122.59
-125.39
-124.65
-119.64
-110.36
-97.41
-81.89
-65.12
-48.41
-32.89
-19.31
-8.07
0.77
7.47
12.42
16.07
18.83
20.92
22.36
22.93
22.32
20.29
16.82
12.26
7.32
2.91
-0.08
-1.04
0.22
3.45
8.09
13.42
18.71
23.41
27.14
29.72
31.11
31.43
30.87
29.67
28.10
26.38
24.71
23.17
21.72
20.26
18.66
16.82
14.81
12.75
10.87
9.35
8.33
7.81
7.72
7.89
8.12
8.22
8.04
7.50
6.60
5.38
3.86
2.02
-0.14
-2.55
-4.92
-6.76
-7.43
-6.32
-3.16
1.86
8.03
14.37
19.89
23.94
26.41
27.61
28.10
28.32
28.44
28.35
27.87
26.94
25.77
24.75
24.30
24.63
25.68
27.14
28.65
29.92
30.83
31.38
31.64
31.72
31.68
31.55
31.31
30.89
30.22
29.30
28.18
26.98
25.75
24.39
22.61
20.01
16.22
11.13
4.91
-2.04
-9.25
-16.27
-22.60
-27.71
-30.98
-31.94
-30.47
-27.08
-22.76
-18.73
-15.90
-14.59
-14.46
-14.87
-15.25
-15.41
-15.50
-15.76
-16.26
-16.73
-16.80
-16.18
-14.83
-12.97
-10.82
-8.56
-6.22
-3.86
-1.69
-0.09
0.56
0.06
-1.43
-3.39
-5.20
-6.34
-6.57
-5.94
-4.69
-3.11
-1.37
0.41
2.26
4.26
6.57
9.41
13.08
17.91
24.21
32.26
42.20
53.98
67.44
82.29
98.06
113.98
128.87
141.22
149.65
153.23
152.11
147.79
143.02
141.10
144.83
155.64
172.88
194.02
214.83
230.29
235.62
227.36
204.17
166.84
118.16
62.20
4.15
-50.48
-96.66
-130.78
-151.59
-160.48
-161.37
-159.20
-158.27
-158.61
-157.27
-150.42
-136.60
-117.74
-97.57
-80.44
-67.56
-58.95
-53.98
-52.54
-55.52
-64.43
-80.32
-101.06
-121.40
-134.78
-137.17
-128.74
-113.07
-94.56
-75.98
-57.48
-37.48
-15.11
8.02
27.41
38.10
37.88
29.18
18.07
12.05
16.65
32.43
54.55
74.97
86.65
86.57
76.10
59.10
39.09
17.36
-6.50
-32.51
-59.48
-84.61
-104.44
-116.61
-120.93
-119.04
-113.16
-104.81
-94.48
-82.10
-67.65
-51.67
-35.29
-19.80
-6.10
5.53
15.31
23.64
30.97
37.78
44.58
51.63
58.69
64.85
68.73
68.89
64.29
54.88
41.83
27.26
13.60
2.85
-3.95
-6.82
-6.52
-4.08
-0.32
4.53
10.74
18.78
28.97
40.95
53.47
64.46
71.54
72.86
67.87
57.58
44.16
30.28
18.25
9.46
4.30
2.29
2.44
3.54
4.30
3.41
-0.21
-7.05
-16.94
-29.07
-42.20
-54.92
-65.76
-73.23
-76.16
-73.71
-65.70
-52.83
-36.76
-19.90
-4.77
6.62
13.30
15.17
13.12
8.72
3.73
-0.49
-3.47
-5.75
-8.65
-11.80
-15.05
-18.34
-21.87
-25.81
-30.03
-34.11
-37.27
-38.62
-37.47
-34.12
-29.76
-25.87
-23.33
-21.70
-19.31
-14.09
-4.77
8.38
23.27
37.20
48.19
55.88
61.33
65.87
70.57
75.30
79.22
81.10
79.91
75.25
67.50
57.79
47.15
36.52
26.96
19.42
14.25
11.20
9.58
8.66
7.93
6.41
2.64
-4.62
-16.43
-33.67
-56.72
-85.08
-117.61
-148.48
-172.98
-187.93
-191.29
-182.87
-164.55
-139.63
-111.59
-82.73
-53.34
-19.52
18.06
56.01
89.92
116.13
132.40
138.03
133.79
121.77
104.11
82.70
60.23
39.57
23.02
11.65
5.29
2.89
4.20
8.82
15.47
22.43
27.11
26.35
17.43
-0.76
-26.83
-56.02
-81.88
-98.68
-102.64
-92.93
-71.62
-43.24
-13.58
12.00
30.09
39.66
41.84
39.18
35.01
31.09
28.54
28.06
30.14
34.56
39.71
42.71
40.64
30.92
15.99
1.35
-7.39
-7.45
-0.31
9.13
15.26
15.20
9.09
-0.22
-9.34
-16.15
-20.60
-24.16
-28.69
-35.16
-43.19
-51.29
-57.33
-59.67
-57.76
-52.07
-43.73
-34.00
-23.66
-12.91
-2.38
7.52
16.52
24.46
31.29
36.94
41.16
43.48
43.38
40.44
34.91
27.72
20.30
14.20
10.54
9.65
10.78
12.33
12.22
8.79
1.26
-9.96
-23.37
-36.90
-48.58
-57.15
-62.36
-64.80
-65.29
-64.45
-62.35
-58.67
-53.05
-45.58
-37.11
-29.27
-23.98
-22.65
-25.59
-31.67
-38.57
-43.45
-43.84
-38.34
-26.94
-10.82
8.07
27.63
45.99
61.82
74.30
83.09
88.27
90.27
89.82
87.76
84.95
81.98
79.14
76.30
72.99
68.45
61.88
52.62
40.44
25.78
9.81
-5.72
-18.87
-27.91
-31.79
-30.31
-24.14
-14.68
-3.75
6.71
15.02
20.21
22.34
22.48
22.32
23.38
26.25
30.33
34.09
35.84
34.56
30.39
24.46
18.25
12.86
8.62
5.03
1.15
-4.17
-12.12
-23.73
-39.61
-59.47
-81.61
-102.88
-119.25
-126.94
-123.77
-109.98
-88.27
-62.81
-37.83
-16.30
0.86
14.60
26.82
38.97
50.93
60.63
64.79
60.41
46.25
23.61
-4.05
-32.35
-57.36
-76.41
-88.09
-91.75
-87.11
-74.33
-54.41
-29.54
-2.97
21.66
41.20
53.72
58.86
57.62
51.89
43.93
35.73
28.80
24.00
21.73
22.20
25.46
31.41
39.41
48.11
55.39
58.73
55.92
45.71
28.32
5.55
-19.56
-43.42
-62.90
-76.23
-83.60
-86.83
-88.39
-90.03
-91.91
-92.59
-90.10
-83.14
-72.13
-59.18
-46.90
-36.84
-28.67
-20.50
-10.23
3.05
18.88
35.57
51.31
65.33
78.37
92.01
107.39
124.11
140.14
153.52
162.95
168.45
171.40
173.91
177.89
184.03
191.37
197.58
200.89
199.52
191.49
174.74
147.88
110.98
66.07
17.30
-29.62
-67.12
-89.19
-93.61
-82.48
-60.58
-32.78
-2.16
30.63
56.80
69.89
67.82
52.91
28.41
-3.00
-38.05
-72.17
-100.69
-120.67
-130.54
-131.39
-126.22
-118.50
-110.58
-103.30
-96.68
-91.00
-87.19
-85.47
-85.69
-87.32
-89.32
-90.00
-87.61
-81.29
-71.71
-61.07
-51.49
-44.61
-41.04
-39.95
-39.59
-38.20
-34.89
-29.93
-24.46
-19.41
-15.07
-11.26
-7.34
-2.87
2.08
7.25
11.71
15.19
17.95
20.54
23.08
25.55
27.59
28.86
27.85
24.72
21.09
18.75
20.51
25.68
33.03
41.82
50.20
57.31
62.71
65.79
65.72
61.87
54.09
43.38
31.15
18.45
5.77
-6.73
-18.77
-29.41
-37.02
-40.08
-37.78
-30.81
-21.46
-12.47
-5.84
-2.10
-0.36
0.90
2.75
5.32
7.88
9.26
8.87
7.08
5.06
3.87
3.45
2.21
-2.82
-14.10
-31.86
-53.29
-73.87
-89.27
-97.06
-97.47
-92.49
-85.13
-77.73
-71.44
-66.39
-62.66
-60.97
-62.42
-67.07
-72.44
-74.99
-68.79
-49.71
-17.56
23.18
64.73
98.90
118.21
121.62
113.46
100.28
87.46
77.71
71.21
66.87
63.78
62.03
62.38
64.40
66.05
63.87
54.56
37.07
14.12
-10.33
-30.93
-43.32
-46.31
-41.75
-33.21
-23.72
-14.36
-4.54
6.46
18.12
27.88
31.74
26.57
12.15
-7.75
-26.59
-37.86
-38.13
-28.29
-12.92
1.93
11.58
14.53
12.71
9.81
8.77
10.65
15.39
22.33
30.60
39.29
47.54
54.86
60.70
63.59
61.16
51.40
34.03
11.04
-13.69
-35.21
-48.48
-50.48
-42.41
-30.09
-21.39
-22.96
-38.27
-67.25
-106.90
-151.96
-190.92
-212.23
-211.03
-191.93
-164.56
-137.05
-113.06
-92.42
-71.80
-49.83
-22.46
11.16
49.59
90.51
131.20
169.05
196.65
209.91
210.37
203.34
192.93
180.32
164.83
145.30
121.50
94.52
68.42
44.28
22.53
2.44
-16.55
-33.14
-44.88
-49.95
-48.81
-44.26
-41.66
-47.09
-63.91
-92.86
-129.63
-165.99
-192.82
-203.57
-196.08
-173.33
-141.48
-107.74
-78.03
-55.33
-40.14
-31.70
-28.93
-30.36
-34.23
-37.99
-39.00
-35.48
-26.96
-14.69
-1.24
10.58
18.89
23.23
24.65
24.98
25.87
28.32
32.27
36.80
40.59
42.55
42.29
40.25
37.53
35.35
34.81
36.53
40.53
46.33
53.09
59.94
66.21
71.59
75.97
79.41
81.88
83.30
83.62
82.96
81.56
79.57
76.88
73.05
67.62
60.46
52.04
43.30
35.22
28.30
22.26
16.44
10.27
3.82
-2.33
-7.34
-10.62
-12.12
-12.30
-11.84
-11.24
-10.65
-9.97
-9.23
-8.53
-7.78
-6.75
-4.94
-1.90
2.63
8.27
14.22
19.18
21.84
21.59
18.49
13.54
8.10
3.72
0.85
0.24
1.99
4.88
6.76
5.52
0.47
-7.39
-15.24
-19.80
-18.30
-9.99
2.24
15.31
25.54
30.04
27.44
18.92
6.73
-5.87
-15.83
-21.18
-21.30
-17.18
-7.52
7.04
25.44
44.80
62.73
77.90
89.73
97.65
100.51
97.13
86.34
67.94
40.40
4.42
-36.47
-77.03
-112.99
-142.71
-166.79
-187.52
-207.18
-230.32
-258.70
-289.92
-318.47
-338.96
-347.69
-342.58
-322.97
-270.45
-183.53
-79.40
17.31
91.05
139.43
168.14
185.01
195.94
203.45
203.34
192.66
169.73
136.94
98.61
59.05
21.66
-11.47
-39.27
-59.13
-69.98
-70.99
-61.57
-43.28
-20.26
1.95
17.39
25.15
25.31
19.75
12.65
9.04
12.31
23.46
41.82
63.88
85.09
100.92
108.71
109.22
105.75
101.64
98.43
95.03
88.49
75.61
56.22
30.24
0.18
-29.74
-55.75
-75.69
-89.27
-94.72
-92.75
-84.55
-71.34
-54.29
-34.87
-16.23
-0.96
8.40
10.64
6.46
-1.06
-7.53
-8.61
-1.46
14.11
34.19
51.96
60.75
56.72
40.57
17.88
-7.23
-31.19
-51.66
-67.46
-77.86
-81.96
-78.90
-68.20
-50.77
-29.37
-7.40
11.21
22.93
26.14
21.70
12.46
1.95
-7.18
-14.28
-20.03
-25.96
-33.35
-42.38
-51.98
-60.00
-64.54
-65.00
-62.28
-57.84
-52.96
-48.17
-43.19
-37.24
-28.64
-16.59
-1.98
12.61
24.29
31.19
33.26
32.29
31.16
34.16
43.97
60.09
79.02
96.46
109.57
118.14
124.10
130.25
140.79
158.08
181.34
206.93
230.26
247.51
255.97
253.80
227.53
171.06
90.82
4.03
-71.99
-128.65
-166.74
-192.13
-210.91
-225.87
-233.53
-227.49
-202.96
-160.56
-106.71
-51.28
-4.27
27.60
45.00
52.77
57.12
62.20
68.68
74.82
78.46
78.11
73.02
62.95
48.58
31.44
12.88
-5.64
-22.22
-34.78
-42.31
-45.50
-46.57
-47.80
-50.46
-55.63
-63.32
-71.45
-75.54
-69.80
-48.95
-10.37
44.07
107.80
168.89
213.84
232.51
221.47
184.13
128.48
63.97
-3.64
-62.96
-104.17
-124.70
-128.70
-122.28
-110.29
-95.93
-81.46
-68.44
-57.31
-48.82
-43.26
-39.78
-36.71
-32.60
-27.05
-20.62
-14.23
-8.29
-3.57
-0.49
1.28
2.92
5.50
9.35
14.08
18.94
23.44
26.78
27.85
26.77
24.26
21.12
17.80
14.44
11.05
7.81
4.69
1.70
-1.37
-4.16
-6.39
-8.11
-9.64
-11.44
-13.95
-17.54
-19.62
-21.35
-23.13
-24.86
-26.28
-27.22
-27.57
-27.34
-26.61
-25.46
-24.39
-23.34
-22.18
-20.92
-19.65
-18.48
-17.52
-16.86
-16.45
-16.51
-16.78
-16.89
-16.77
-16.50
-16.31
-16.49
-17.24
-18.51
-20.24
-21.91
-22.93
-23.11
-22.68
-22.21
-22.41
-23.76
-26.09
-28.92
-31.92
-33.31
-32.25
-28.75
-23.66
-18.21
-13.52
-9.98
-7.55
-5.60
-3.65
-1.72
-0.63
-1.73
-6.27
-15.12
-28.41
-46.13
-66.61
-88.08
-106.88
-117.93
-116.41
-100.01
-71.69
-36.06
-0.38
28.78
48.09
57.95
61.32
61.38
59.77
56.26
49.98
40.39
27.43
13.30
-0.04
-11.48
-21.09
-29.52
-37.08
-43.77
-48.87
-51.36
-50.48
-46.59
-40.67
-34.63
-30.65
-30.51
-35.01
-44.07
-56.90
-72.37
-89.65
-107.49
-125.10
-141.90
-157.29
-170.53
-180.91
-187.97
-191.62
-192.56
-190.98
-187.52
-182.97
-177.81
-172.06
-165.10
-155.55
-140.98
-125.10
-108.84
-92.60
-76.06
-58.91
-41.25
-24.11
-8.28
5.55
16.58
24.79
29.89
32.08
31.58
28.53
22.60
14.23
4.24
-6.35
-15.90
-23.17
-26.19
-23.83
-16.44
-6.81
3.06
11.62
17.80
20.97
20.57
19.56
20.29
23.01
22.96
19.09
12.49
5.85
1.32
0.44
10.82
37.42
79.48
124.88
168.05
207.13
243.55
277.69
309.77
350.51
407.37
479.54
549.13
609.10
658.22
700.14
736.31
767.50
808.11
868.88
950.69
1033.23
1109.16
1176.08
1234.57
1279.94
1221.39
1011.86
670.66
360.36
127.09
-24.72
-130.86
-205.18
-258.10
-297.06
-313.65
-302.61
-288.86
-306.44
-361.13
-439.96
-521.23
-591.13
-643.75
-668.43
-661.12
-627.70
-588.85
-552.67
-521.06
-491.48
-464.13
-439.99
-413.27
-379.92
-339.42
-302.59
-275.15
-258.89
-249.81
-242.34
-230.44
-207.45
-172.38
-130.78
-93.71
-66.86
-50.52
-40.60
-33.60
-28.49
-26.13
-29.02
-38.93
-55.46
-73.75
-87.74
-92.87
-89.03
-79.64
-69.59
-62.82
-61.11
-63.94
-69.52
-75.28
-77.91
-74.61
-62.00
-38.84
-6.89
28.98
62.17
86.93
99.52
101.19
96.01
88.41
81.07
74.84
69.75
66.35
65.82
68.81
73.94
76.94
72.47
56.80
30.21
-2.44
-33.80
-57.27
-69.69
-71.88
-67.48
-60.52
-53.68
-47.82
-42.89
-38.91
-36.27
-35.36
-35.82
-36.60
-36.36
-34.43
-30.47
-24.95
-18.72
-12.45
-6.59
-1.36
3.08
6.68
9.64
12.37
15.30
18.57
21.80
23.98
23.98
21.24
16.35
11.01
7.24
6.22
7.61
9.77
10.46
8.12
2.73
-4.14
-9.96
-12.44
-10.32
-3.64
6.53
17.87
27.18
30.92
25.74
10.50
-12.75
-38.36
-58.31
-65.06
-54.21
-26.41
12.21
51.86
82.43
96.87
93.53
74.38
47.71
21.92
2.29
-10.13
-17.32
-22.06
-26.29
-29.64
-30.86
-28.71
-23.43
-16.49
-9.81
-4.80
-1.68
0.25
2.25
5.24
9.67
14.96
20.06
23.97
26.28
27.24
27.52
27.92
28.89
30.59
32.53
33.82
33.67
31.62
27.84
22.83
16.84
9.42
0.02
-11.54
-24.42
-36.83
-46.64
-52.31
-53.49
-50.99
-46.26
-40.51
-34.51
-28.59
-22.98
-17.99
-13.98
-11.13
-9.23
-7.83
-6.19
-3.82
-0.66
2.95
6.45
9.38
11.54
13.05
14.22
15.65
17.66
20.25
23.11
25.75
27.74
28.83
29.01
27.92
26.09
23.60
20.26
15.77
9.91
2.74
-5.30
-12.61
-18.94
-23.83
-27.29
-29.74
-31.87
-34.24
-37.02
-39.85
-42.05
-43.12
-42.70
-41.25
-39.75
-39.37
-40.88
-44.28
-48.68
-52.77
-55.58
-56.52
-55.98
-55.04
-54.85
-56.31
-60.06
-66.41
-75.20
-85.13
-93.18
-95.16
-87.19
-67.73
-38.93
-6.66
22.39
42.75
52.38
53.06
48.69
42.91
37.62
32.80
27.54
21.49
15.34
10.45
7.87
7.68
8.89
10.37
11.33
11.73
12.47
14.70
19.36
26.62
35.78
45.42
53.63
59.60
62.97
64.05
63.44
61.83
59.64
57.59
55.06
51.76
47.67
42.83
37.48
31.89
26.38
21.24
16.80
13.25
10.90
9.84
9.87
10.45
10.97
10.98
10.34
9.40
8.80
9.32
11.37
14.74
18.58
21.89
23.84
24.14
23.24
22.08
21.86
23.74
28.46
36.01
45.31
53.95
58.54
55.84
44.21
24.79
1.54
-20.08
-35.18
-41.42
-39.70
-33.67
-27.72
-25.20
-27.33
-33.17
-40.48
-46.84
-50.44
-50.31
-46.53
-39.76
-31.06
-21.61
-12.44
-4.36
2.26
6.98
10.61
13.77
17.02
20.86
25.33
30.16
34.81
38.63
41.09
41.85
40.55
36.79
30.25
20.90
9.22
-3.64
-16.07
-26.46
-33.58
-37.18
-37.88
-36.77
-34.99
-33.25
-31.65
-29.89
-27.63
-24.83
-22.02
-20.09
-20.02
-22.39
-27.12
-33.39
-39.94
-45.57
-49.64
-52.23
-53.89
-54.99
-55.28
-53.78
-49.32
-41.23
-29.95
-17.04
-4.72
5.12
11.59
15.08
16.84
18.26
20.20
22.70
25.19
26.87
27.22
26.28
24.53
22.69
21.33
20.68
20.67
21.02
21.36
21.28
20.44
18.63
15.88
12.37
8.54
4.98
2.38
1.17
1.41
2.85
5.05
7.56
10.04
12.28
14.30
16.43
18.81
21.52
24.63
28.21
32.41
37.26
42.70
48.62
55.10
61.76
67.99
73.02
75.99
76.37
73.93
68.84
61.03
51.65
41.87
32.43
23.10
11.93
-2.12
-19.06
-38.26
-59.12
-78.35
-94.03
-104.93
-110.39
-110.41
-105.38
-96.76
-87.14
-79.81
-77.59
-82.38
-93.68
-108.72
-123.69
-134.73
-139.53
-137.65
-130.08
-118.14
-103.15
-85.55
-65.44
-43.42
-20.63
1.16
20.12
35.08
46.64
54.52
59.40
63.25
66.77
69.91
72.15
73.02
72.29
70.05
66.16
60.60
53.16
43.47
31.61
18.20
4.38
-8.42
-18.88
-26.21
-30.10
-30.92
-29.64
-27.29
-24.64
-22.06
-19.55
-16.99
-14.29
-11.36
-8.12
-4.59
-0.70
3.60
8.27
13.14
17.94
22.44
26.56
30.32
33.68
36.49
38.43
39.12
38.31
36.07
32.76
29.04
25.62
23.10
21.78
21.58
22.11
22.91
23.47
23.52
23.06
22.34
21.79
21.86
22.64
23.83
24.94
25.26
24.26
21.78
18.15
14.11
10.65
8.21
6.64
5.83
5.22
4.41
3.23
1.79
0.20
-1.37
-3.70
-8.09
-14.59
-23.13
-32.75
-42.35
-51.24
-59.38
-66.52
-73.03
-78.73
-80.57
-76.05
-62.46
-38.44
-4.31
37.81
84.46
128.87
162.23
178.01
169.69
135.63
79.41
9.89
-64.66
-125.94
-155.56
-151.38
-116.27
-61.04
1.30
57.81
99.20
121.87
128.35
122.87
102.56
80.82
57.06
31.90
7.49
-12.32
-23.32
-22.62
-11.82
3.79
16.55
16.06
-3.54
-41.11
-87.98
-131.30
-158.28
-161.14
-140.76
-100.43
-48.25
7.30
58.52
100.09
129.77
148.43
153.12
144.67
126.98
103.53
78.70
56.63
40.29
30.79
27.34
27.63
29.80
32.81
35.49
38.18
41.79
46.64
51.82
55.29
54.73
49.19
38.88
24.05
6.06
-13.56
-33.89
-54.94
-77.44
-102.03
-128.19
-154.52
-179.39
-199.34
-210.02
-207.78
-191.34
-162.90
-127.70
-92.26
-58.27
-30.55
-12.41
-3.35
0.15
1.88
3.91
5.40
6.85
8.79
10.78
12.64
14.22
14.91
14.62
12.68
8.97
4.80
3.75
8.50
19.76
34.84
48.29
54.75
51.65
40.63
26.90
16.31
12.31
15.25
23.24
33.66
44.48
55.39
66.24
76.25
83.50
85.03
78.38
63.38
42.59
20.50
1.63
-11.49
-19.33
-25.23
-31.75
-41.26
-53.54
-65.47
-72.39
-70.52
-58.99
-40.04
-17.97
2.87
19.37
30.68
37.54
41.21
42.48
41.45
37.95
32.05
24.34
15.55
6.55
-2.27
-11.30
-21.62
-34.49
-50.61
-69.52
-89.45
-107.93
-122.31
-130.63
-132.11
-127.33
-117.90
-105.91
-93.40
-81.95
-72.53
-65.45
-60.46
-56.91
-54.02
-50.93
-46.94
-41.58
-34.72
-26.59
-17.72
-8.75
-0.22
7.52
14.43
20.63
26.34
31.76
36.98
41.95
46.50
50.33
53.10
54.49
54.33
52.67
49.76
46.06
42.10
38.31
34.92
31.90
28.96
25.78
22.09
17.91
13.55
9.48
6.16
3.85
2.55
2.15
2.58
3.94
6.43
10.14
14.84
19.94
24.72
28.56
31.17
32.71
33.61
34.41
35.49
37.05
39.05
41.41
43.93
46.31
48.18
49.19
49.12
47.97
45.93
43.30
40.46
37.63
34.84
31.95
28.78
25.10
20.61
14.94
7.75
-0.80
-10.25
-19.84
-28.64
-35.72
-40.29
-41.98
-40.90
-37.58
-32.27
-25.45
-17.85
-10.29
-3.36
2.87
8.71
14.65
21.01
28.61
37.46
46.74
55.02
61.08
64.53
65.76
65.69
65.37
66.71
70.68
76.93
83.87
89.68
93.15
93.90
92.41
82.74
62.79
34.95
5.22
-20.92
-40.73
-53.74
-60.68
-62.43
-60.08
-53.65
-44.38
-34.11
-24.95
-18.26
-14.10
-12.06
-11.06
-9.94
-7.35
-3.97
-1.21
-0.90
-4.15
-10.71
-19.69
-28.86
-35.45
-36.99
-33.35
-26.91
-21.98
-23.03
-33.11
-53.56
-82.03
-112.99
-139.57
-156.17
-159.62
-149.46
-127.27
-90.34
-43.77
1.47
34.60
50.85
51.77
42.48
28.90
16.22
7.27
1.75
-1.03
-1.74
-1.11
-0.32
-0.64
-3.06
-6.45
-9.99
-14.35
-20.01
-26.57
-32.82
-37.54
-40.04
-40.23
-39.49
-36.93
-31.51
-21.48
-5.00
18.68
47.97
78.98
104.01
115.30
109.62
89.48
61.82
34.41
12.54
-2.19
-12.15
-19.47
-24.71
-26.90
-25.12
-19.38
-10.99
-2.03
5.94
11.83
15.98
19.98
25.75
34.19
44.77
55.86
65.60
72.71
76.71
78.24
78.65
79.49
81.66
85.22
89.36
92.80
94.21
92.46
87.57
80.81
74.30
69.93
68.47
69.13
69.74
67.51
59.36
43.64
20.73
-7.34
-37.67
-67.22
-93.05
-112.51
-123.63
-126.71
-122.93
-113.90
-101.73
-89.27
-79.64
-75.20
-76.79
-83.59
-95.41
-110.55
-125.65
-136.89
-141.94
-140.77
-135.17
-127.95
-122.22
-123.16
-133.84
-153.45
-177.77
-201.32
-218.74
-225.43
-217.98
-180.40
-110.36
-22.48
59.86
119.34
150.51
156.86
146.18
127.29
107.78
90.31
76.09
66.46
62.86
65.16
72.18
81.37
89.70
94.69
93.35
85.52
74.25
64.16
58.75
59.04
63.83
71.02
78.75
83.61
83.90
79.87
73.07
65.11
57.01
48.87
39.91
28.53
12.22
-10.56
-39.41
-71.78
-103.74
-131.16
-150.66
-160.10
-158.73
-147.28
-127.45
-101.86
-73.92
-47.40
-25.59
-10.36
-1.61
2.34
3.96
5.44
7.95
11.44
15.02
17.56
18.14
16.41
12.60
7.49
2.17
-2.26
-5.02
-5.75
-4.59
-2.06
1.09
4.04
6.06
6.64
5.62
3.26
0.21
-2.69
-4.72
-5.47
-5.02
-3.86
-2.72
-2.26
-2.79
-4.09
-5.34
-5.33
-2.89
2.69
11.26
21.71
32.30
41.20
47.08
49.48
48.82
46.05
42.22
38.14
34.32
31.06
28.59
27.19
27.08
28.29
30.51
33.04
34.94
35.26
33.32
28.84
22.03
13.49
4.10
-5.14
-13.11
-18.62
-20.62
-18.45
-12.25
-3.21
6.52
14.43
18.37
17.30
11.51
2.42
-8.05
-18.10
-26.37
-32.08
-34.89
-34.81
-32.17
-27.63
-22.11
-16.52
-11.50
-7.27
-3.63
-0.24
3.13
6.43
9.37
11.56
12.74
12.81
11.84
9.98
7.37
4.17
0.56
-3.23
-6.95
-10.39
-13.39
-15.76
-17.25
-17.50
-16.07
-12.70
-7.46
-0.91
6.01
12.26
16.99
19.74
20.57
19.89
18.24
16.09
13.77
11.47
9.28
7.37
5.90
5.04
4.90
5.43
6.46
7.74
9.04
10.23
11.31
12.30
13.27
14.25
15.24
16.25
17.32
18.46
19.66
20.82
21.84
22.56
22.92
22.89
22.45
21.62
20.51
19.28
18.10
17.06
16.23
15.71
15.63
16.09
17.20
19.03
21.52
24.47
27.55
30.35
32.63
34.19
34.88
34.72
33.95
33.00
32.35
32.25
32.69
33.67
34.81
35.40
34.84
32.97
30.21
27.28
24.80
23.15
23.02
24.34
26.14
27.19
26.79
25.07
22.79
20.84
19.93
21.56
25.99
32.12
38.28
43.48
48.10
53.56
61.74
74.23
93.18
118.15
145.40
168.90
182.61
182.39
166.84
137.33
88.11
22.86
-46.60
-106.44
-148.82
-173.74
-185.29
-187.80
-184.43
-177.27
-166.46
-153.04
-139.29
-127.69
-119.44
-113.92
-109.62
-105.09
-99.62
-92.19
-83.15
-74.07
-66.78
-62.22
-59.89
-58.51
-56.73
-53.76
-48.95
-42.86
-37.19
-33.66
-32.89
-33.64
-33.57
-30.18
-22.00
-8.85
7.59
24.22
38.09
46.67
48.69
44.15
34.34
21.53
8.69
-1.36
-6.70
-6.77
-2.54
4.05
10.71
15.68
18.29
18.98
19.14
20.42
24.05
30.17
37.64
44.20
47.58
46.33
40.29
30.72
19.42
8.14
-1.95
-10.26
-16.67
-20.80
-22.00
-19.71
-13.95
-5.78
3.03
10.59
16.74
21.20
24.56
27.96
32.57
38.99
46.79
55.12
63.11
70.31
76.53
82.04
87.09
91.48
94.35
93.70
87.88
76.36
59.83
39.79
18.32
-2.39
-20.52
-34.96
-46.52
-55.91
-63.30
-68.73
-72.82
-76.55
-80.82
-86.14
-92.63
-101.96
-114.53
-128.95
-142.87
-154.38
-162.39
-166.66
-167.90
-167.54
-169.58
-175.90
-185.05
-193.44
-197.73
-195.81
-186.79
-170.68
-133.66
-74.72
-5.61
58.12
107.40
140.20
157.75
162.25
156.38
143.72
126.30
107.85
93.34
86.53
87.55
93.17
99.20
102.64
103.05
99.85
93.64
85.32
75.12
62.36
46.90
30.57
15.62
4.49
-3.02
-8.39
-13.32
-18.78
-24.78
-30.13
-32.22
-29.80
-22.61
-12.36
-1.41
7.93
14.89
19.43
22.21
24.35
26.68
29.64
32.64
34.72
34.92
32.94
29.36
25.48
22.80
22.15
23.70
26.85
30.63
33.73
35.11
34.37
31.45
26.85
21.23
15.48
10.52
7.05
4.87
3.01
0.55
-2.96
-7.50
-12.80
-18.57
-24.70
-28.26
-27.54
-23.42
-18.32
-13.68
-8.87
-2.19
7.65
20.69
34.19
46.50
55.62
60.18
59.94
55.47
47.63
37.17
24.36
11.14
-1.33
-12.55
-21.97
-29.01
-33.19
-34.27
-32.27
-27.46
-20.31
-12.04
-4.35
1.35
4.47
5.44
5.52
6.47
10.02
17.38
28.79
43.47
59.81
75.38
86.93
91.05
85.15
68.72
43.98
15.37
-11.90
-33.55
-47.65
-54.77
-57.04
-56.54
-54.10
-49.08
-40.28
-27.18
-10.78
6.51
21.60
32.00
36.56
35.63
30.53
22.76
13.37
2.78
-8.88
-21.41
-34.19
-46.36
-56.82
-64.73
-69.88
-72.96
-75.25
-77.95
-81.50
-85.19
-87.55
-86.86
-81.96
-72.89
-60.99
-48.32
-36.78
-27.46
-20.40
-15.09
-10.38
-4.78
2.91
13.04
24.94
37.12
47.67
54.76
56.24
51.29
40.97
27.55
13.44
0.59
-9.76
-17.21
-22.28
-27.93
-36.18
-46.59
-57.11
-65.82
-72.08
-76.49
-80.66
-86.49
-98.12
-116.74
-139.23
-160.39
-176.37
-185.86
-189.43
-188.52
-184.76
-183.32
-186.84
-193.79
-200.50
-204.22
-203.66
-197.92
-185.88
-143.73
-67.07
25.45
107.92
166.75
202.42
221.40
230.25
233.48
232.71
224.63
208.13
187.08
167.75
154.58
148.33
147.46
150.28
154.97
157.84
155.82
148.01
134.30
114.09
87.08
55.30
24.08
-0.24
-16.23
-25.65
-30.47
-32.29
-27.99
-13.72
12.57
50.14
92.84
131.72
159.71
175.31
182.55
188.40
198.41
208.97
219.99
223.44
211.81
182.56
139.43
89.60
39.65
-4.16
-39.44
-67.04
-90.69
-112.86
-133.69
-151.37
-164.02
-171.15
-174.31
-176.44
-179.55
-184.93
-191.70
-197.86
-201.51
-202.09
-200.59
-198.99
-199.33
-202.15
-207.16
-212.60
-216.39
-216.28
-211.07
-201.10
-187.96
-173.46
-158.98
-145.38
-132.38
-119.30
-103.94
-84.48
-60.53
-33.07
-3.18
27.97
58.90
87.72
111.23
127.91
136.75
137.19
130.13
119.02
108.51
102.78
104.22
112.07
126.30
146.13
169.62
185.37
183.09
159.75
121.54
86.80
57.41
32.70
12.42
-6.58
-24.10
-38.03
-46.32
-48.42
-45.74
-42.10
-39.08
-37.24
-36.77
-37.07
-36.61
-33.79
-27.87
-19.41
-10.88
-3.27
2.79
6.59
7.92
7.23
5.42
3.34
1.58
-0.14
-1.15
-0.86
0.75
3.33
6.45
9.48
11.55
11.60
8.50
2.16
-6.84
-17.58
-28.90
-39.66
-48.99
-56.43
-61.69
-64.50
-64.18
-60.00
-51.65
-39.44
-24.07
-6.75
11.15
28.34
43.91
57.28
68.10
76.03
80.77
83.07
83.75
83.45
82.52
81.22
79.97
79.13
78.82
78.84
80.54
84.65
90.80
97.46
102.99
106.45
107.79
107.51
106.30
107.60
113.51
123.79
135.72
146.07
152.85
155.91
156.51
156.51
161.27
174.13
195.15
221.01
247.54
271.94
293.31
311.96
305.59
262.86
187.85
98.87
14.91
-53.66
-105.07
-142.00
-168.23
-187.22
-196.42
-196.56
-189.52
-178.81
-167.63
-157.51
-148.43
-139.90
-131.71
-121.22
-107.63
-91.67
-76.89
-67.25
-65.53
-72.55
-86.89
-105.35
-121.97
-131.98
-133.19
-126.99
-116.65
-105.49
-95.50
-87.15
-80.03
-72.77
-64.85
-56.58
-49.00
-42.85
-38.21
-34.48
-30.89
-26.98
-22.48
-17.69
-13.11
-9.32
-6.53
-4.53
-2.78
-0.81
1.65
4.49
7.27
9.55
11.09
11.96
12.49
13.18
14.38
16.30
18.74
21.30
23.48
24.96
25.72
25.95
25.97
25.69
25.16
23.87
21.07
16.12
8.83
-0.42
-10.63
-20.07
-28.02
-34.03
-38.41
-42.04
-45.83
-50.31
-55.35
-60.16
-63.70
-65.37
-65.08
-63.58
-62.01
-61.47
-62.70
-66.25
-72.29
-80.21
-88.22
-92.98
-90.54
-77.93
-55.15
-25.20
6.02
32.18
49.10
56.08
55.67
51.63
46.97
42.80
38.79
34.18
28.92
23.92
20.34
18.72
18.54
18.54
17.38
14.35
9.80
4.80
0.79
-1.18
-0.79
1.49
4.60
7.49
9.55
10.77
11.62
12.77
14.61
17.12
19.79
21.85
22.67
21.99
20.04
17.43
14.94
13.18
12.34
12.26
12.48
12.49
12.02
11.16
10.32
10.03
10.68
12.26
14.51
16.86
18.80
20.02
20.69
21.32
22.54
24.81
28.13
32.08
35.85
38.79
40.50
41.14
41.29
41.72
43.04
45.76
50.17
56.20
63.09
69.06
71.49
67.90
56.89
38.97
16.67
-6.13
-25.68
-39.56
-47.29
-49.96
-49.03
-45.97
-42.02
-38.27
-35.59
-34.70
-35.61
-37.64
-39.43
-39.03
-35.17
-27.80
-18.12
-7.68
2.29
11.31
19.59
27.88
37.64
49.78
64.06
78.97
92.09
100.47
100.96
90.82
66.11
28.30
-15.06
-53.76
-80.62
-94.04
-96.86
-93.57
-87.98
-81.97
-75.15
-66.80
-57.19
-47.82
-40.56
-36.64
-36.10
-37.91
-40.21
-40.70
-38.14
-32.89
-26.73
-21.82
-19.75
-20.98
-24.81
-29.38
-32.34
-32.26
-29.06
-24.04
-19.09
-15.81
-15.21
-17.84
-24.10
-33.24
-43.93
-53.57
-58.41
-54.59
-40.06
-15.62
13.01
38.84
56.38
63.55
62.14
56.17
49.52
44.25
40.28
36.53
32.43
28.48
25.67
24.74
25.52
26.98
27.94
27.41
25.35
22.50
19.92
18.36
18.01
18.53
19.30
19.82
19.87
19.58
19.33
19.35
19.64
19.95
19.93
19.41
18.59
17.75
17.45
18.38
20.94
24.80
28.65
30.55
28.30
20.69
8.22
-6.79
-21.01
-31.28
-35.91
-35.17
-31.02
-26.14
-22.68
-21.57
-22.36
-23.73
-24.27
-23.12
-20.28
-16.43
-12.49
-9.13
-6.45
-4.10
-1.76
0.63
2.73
4.01
4.15
3.31
2.09
1.26
1.29
2.16
3.34
4.07
3.72
2.04
-0.70
-3.82
-6.59
-8.47
-9.36
-9.54
-9.44
-9.43
-9.63
-9.91
-9.97
-9.56
-8.64
-7.40
-6.12
-5.06
-4.33
-3.84
-3.38
-2.68
-1.56
-0.03
1.74
3.55
5.20
6.62
7.83
8.58
8.84
8.70
8.42
8.28
8.56
9.46
10.99
13.12
15.80
19.11
23.16
28.01
33.58
39.61
45.72
51.52
56.79
61.46
65.63
69.42
72.90
76.08
78.98
81.73
84.49
87.46
90.70
94.04
97.13
99.62
101.22
101.81
101.42
100.12
97.86
94.25
88.63
80.35
69.28
55.97
41.67
27.85
15.72
5.78
-2.15
-8.89
-15.12
-20.99
-26.27
-30.74
-34.52
-38.16
-42.39
-47.96
-56.01
-67.18
-81.32
-97.42
-113.89
-128.77
-140.07
-146.28
-146.96
-144.19
-140.51
-137.62
-135.91
-134.77
-133.33
-130.83
-127.04
-122.42
-120.04
-122.44
-130.37
-142.79
-157.94
-174.09
-189.70
-203.31
-213.70
-222.72
-231.73
-240.29
-246.45
-248.17
-244.54
-235.90
-223.32
-191.61
-136.01
-63.36
12.54
80.27
135.18
177.01
206.61
224.73
232.40
229.89
218.47
201.49
183.51
168.40
158.07
152.22
149.17
146.66
140.56
127.29
106.51
80.29
53.52
31.96
19.04
14.46
14.99
15.70
13.82
10.00
6.92
6.61
10.21
16.90
25.22
34.11
42.84
51.48
60.80
71.59
81.08
86.97
87.32
81.29
69.27
52.80
34.61
18.03
5.73
-1.23
-3.19
-2.91
-3.43
-6.61
-12.41
-18.87
-22.93
-21.73
-13.93
-0.46
14.91
26.00
25.91
10.23
-19.99
-58.14
-95.35
-124.18
-140.35
-142.62
-131.20
-106.86
-72.80
-35.62
-4.62
11.75
10.63
-2.57
-16.17
-18.17
-2.26
29.15
67.71
103.58
130.24
146.60
155.70
161.11
159.92
151.63
134.22
106.53
70.69
32.39
-1.31
-25.04
-37.23
-40.21
-38.51
-36.24
-35.28
-35.33
-34.64
-31.75
-26.79
-21.79
-19.78
-22.85
-31.74
-45.06
-59.93
-72.83
-81.02
-83.53
-81.14
-75.77
-69.31
-63.50
-57.88
-52.72
-48.23
-44.27
-40.16
-34.65
-26.44
-14.79
-0.43
14.55
27.25
35.42
38.30
36.86
33.39
30.68
31.38
37.31
49.25
66.48
87.05
107.70
124.28
132.59
129.53
114.29
88.87
57.81
26.83
1.37
-15.06
-21.83
-20.76
-14.96
-7.20
1.20
10.39
21.15
33.84
47.78
61.43
73.20
82.30
89.08
94.62
99.97
105.58
111.10
115.77
118.87
120.13
119.72
118.20
116.19
114.32
113.06
112.73
113.51
115.41
118.31
122.09
126.64
132.00
138.19
145.13
152.42
159.27
164.46
166.49
163.79
155.06
139.54
117.32
89.30
56.99
22.08
-14.03
-50.48
-86.91
-123.11
-158.63
-192.34
-222.45
-247.06
-264.87
-275.70
-280.70
-281.86
-281.45
-281.56
-283.60
-288.21
-295.21
-303.65
-311.88
-317.81
-319.26
-314.51
-303.00
-284.95
-261.04
-232.18
-199.52
-164.52
-129.19
-95.88
-66.77
-44.04
-28.44
-18.99
-13.52
-9.61
-5.12
1.07
9.49
20.00
30.34
38.25
42.09
41.05
34.80
23.77
8.37
-10.12
-29.95
-51.74
-75.66
-100.80
-125.41
-147.94
-166.84
-181.73
-191.82
-195.94
-196.00
-193.15
-186.93
-175.92
-159.41
-137.49
-112.50
-86.74
-43.82
19.79
94.20
162.23
211.10
233.32
237.16
230.50
219.41
207.63
195.09
180.22
162.29
142.18
121.85
104.46
92.11
87.10
90.89
100.78
112.86
123.88
132.24
137.33
139.25
137.03
130.50
120.18
105.38
85.85
62.41
37.32
13.12
-8.13
-26.02
-39.95
-48.73
-51.56
-47.56
-36.10
-16.83
9.15
40.08
68.70
86.95
91.14
83.24
69.82
54.02
37.24
20.17
3.38
-12.40
-25.39
-33.55
-35.39
-30.81
-21.10
-7.77
7.66
23.60
38.46
51.40
62.36
71.34
77.63
79.56
73.61
57.19
30.64
-1.95
-33.96
-59.30
-74.94
-81.48
-81.66
-78.56
-74.21
-69.06
-62.89
-55.55
-47.57
-40.51
-36.84
-39.26
-47.83
-60.63
-73.26
-80.06
-75.80
-57.42
-26.17
12.57
52.72
89.60
121.42
148.92
172.56
190.90
201.48
201.44
184.49
151.24
107.48
61.40
20.41
-11.88
-34.92
-47.66
-49.07
-38.84
-16.73
14.70
49.52
79.76
96.94
95.38
75.95
42.91
1.29
-42.93
-84.88
-121.42
-144.88
-149.15
-144.99
-139.34
-130.53
-118.54
-102.88
-83.13
-59.30
-32.00
-3.71
21.97
43.16
57.46
61.45
53.07
32.25
1.71
-32.84
-64.42
-86.31
-92.63
-82.54
-61.31
-37.11
-17.77
-7.67
-6.41
-10.45
-15.41
-17.45
-15.78
-12.62
-10.73
-11.76
-15.27
-19.16
-21.18
-20.02
-15.31
-8.11
-0.43
6.05
10.54
13.76
17.44
22.89
29.92
36.86
41.18
40.94
36.21
28.94
22.89
21.69
26.91
36.93
47.74
54.81
54.95
47.08
31.37
9.78
-14.66
-38.40
-57.85
-69.68
-71.18
-60.82
-36.19
-0.50
37.82
68.90
86.24
88.01
75.80
53.74
27.76
4.92
-11.80
-20.90
-22.64
-19.06
-13.11
-7.38
-3.22
-0.80
-0.24
-2.55
-8.71
-19.22
-33.41
-49.27
-64.05
-75.10
-80.44
-79.17
-71.67
-58.81
-41.91
-23.49
-4.65
13.22
28.58
40.18
47.45
50.40
49.90
47.52
45.16
42.80
40.60
38.13
34.64
29.73
23.59
17.21
11.93
8.73
7.80
8.46
9.36
9.22
7.55
4.46
0.28
-4.77
-10.75
-17.80
-25.87
-34.72
-43.75
-51.56
-56.79
-58.60
-56.97
-52.70
-46.90
-40.66
-34.81
-29.63
-24.18
-17.27
-8.17
3.08
15.73
28.85
41.54
53.03
62.76
71.38
79.75
88.47
97.68
107.14
116.68
126.20
135.70
139.13
132.32
114.21
87.33
55.88
23.74
-5.95
-30.59
-48.52
-59.77
-65.56
-68.45
-71.31
-75.69
-81.17
-85.19
-84.80
-78.16
-65.50
-48.27
-29.08
-11.28
1.83
7.71
5.20
-5.39
-22.35
-43.09
-64.51
-82.48
-93.72
-96.62
-91.35
-79.46
-63.37
-45.75
-28.98
-14.42
-2.41
7.28
15.05
21.07
25.12
26.79
25.92
23.18
20.14
18.75
20.13
23.93
28.29
30.51
28.14
19.94
6.40
-10.49
-27.82
-42.89
-53.90
-60.34
-62.95
-63.15
-62.19
-60.46
-57.24
-51.19
-41.31
-27.78
-12.17
3.10
15.76
24.70
30.24
33.86
37.52
42.93
51.12
62.02
74.09
84.22
88.19
81.94
63.46
34.38
0.33
-30.62
-50.90
-56.37
-47.89
-30.65
-11.77
2.67
9.42
8.20
0.70
-11.02
-25.39
-41.07
-56.15
-67.80
-72.74
-68.58
-55.16
-34.76
-12.16
6.83
17.39
17.53
8.55
-5.62
-19.99
-30.01
-31.82
-23.73
-6.06
19.46
49.87
81.22
109.20
130.25
143.25
151.26
158.81
169.57
184.64
202.43
219.73
233.31
240.80
241.16
235.55
224.36
206.58
180.91
147.42
108.21
66.65
25.56
-21.84
-74.76
-125.47
-163.95
-184.84
-189.21
-182.35
-167.60
-146.32
-118.63
-84.33
-45.77
-7.96
22.92
41.85
46.62
38.33
20.31
-2.79
-25.24
-43.17
-55.39
-62.87
-67.15
-69.08
-68.39
-64.51
-57.20
-46.43
-33.58
-21.15
-11.77
-7.06
-7.13
-10.83
-16.55
-22.70
-27.85
-31.53
-34.46
-38.21
-44.41
-53.65
-64.87
-75.49
-82.19
-81.96
-73.50
-57.83
-37.94
-17.76
-0.86
10.51
15.32
13.53
5.82
-6.58
-21.87
-37.74
-51.64
-61.23
-64.63
-61.67
-54.00
-44.57
-36.16
-30.13
-25.86
-21.16
-13.37
-0.21
18.26
39.60
60.12
76.65
87.82
94.10
97.03
98.16
99.23
100.58
101.42
100.38
96.16
87.92
74.71
55.36
26.15
-11.70
-51.88
-85.59
-106.80
-114.51
-110.79
-98.66
-80.64
-59.98
-36.04
-8.84
19.98
47.29
69.53
84.61
92.05
92.76
85.07
69.06
45.93
16.98
-16.86
-54.42
-91.92
-123.06
-140.18
-137.56
-112.96
-68.40
-10.01
54.74
113.00
152.56
167.00
157.32
133.78
101.03
62.94
23.67
-13.52
-47.30
-76.72
-103.09
-125.77
-144.44
-157.36
-160.86
-152.83
-134.74
-111.09
-85.52
-62.30
-38.59
-12.62
15.07
43.15
69.35
91.26
103.67
103.82
92.46
73.97
53.18
33.81
18.20
6.61
-2.03
-9.11
-14.71
-18.16
-18.62
-16.72
-14.16
-12.42
-12.67
-15.29
-19.71
-24.38
-27.90
-29.91
-31.75
-35.48
-42.75
-54.09
-68.57
-84.22
-98.52
-107.91
-109.95
-103.64
-89.17
-67.84
-42.05
-14.99
9.80
29.36
42.01
47.68
47.91
45.21
42.10
40.37
41.07
44.56
50.95
60.11
71.47
83.96
96.07
105.89
111.72
113.06
110.58
105.86
100.48
95.22
89.82
83.23
74.04
61.41
46.27
30.90
18.20
10.53
8.93
13.24
22.59
35.41
46.25
49.37
40.62
20.55
-4.95
-27.37
-39.42
-38.14
-26.54
-11.75
-0.99
1.69
-3.01
-11.18
-18.84
-24.68
-30.40
-39.42
-53.57
-71.07
-87.40
-97.90
-100.47
-96.35
-89.47
-82.34
-75.68
-67.39
-54.03
-33.26
-5.52
26.22
57.09
82.78
102.22
113.42
114.02
101.21
72.88
29.47
-23.20
-73.98
-109.44
-119.53
-101.09
-60.21
-11.00
29.47
48.05
41.83
18.91
-6.34
-20.97
-15.06
14.24
62.32
120.40
174.04
209.90
221.32
215.75
194.72
157.99
107.34
46.69
-13.27
-61.35
-89.93
-97.71
-89.60
-74.98
-61.72
-54.27
-53.58
-57.67
-63.67
-68.17
-68.46
-64.06
-58.13
-54.72
-57.69
-69.29
-88.94
-114.00
-140.33
-163.72
-181.01
-190.83
-191.99
-183.69
-166.10
-140.94
-111.94
-83.73
-60.05
-42.25
-28.98
-16.82
-2.47
15.20
34.80
53.24
67.50
76.13
79.68
80.00
79.03
77.62
75.21
70.76
63.46
52.97
39.62
24.45
9.60
-2.21
-8.23
-6.83
2.47
18.60
38.55
57.41
68.71
68.47
57.41
40.27
22.24
7.49
-0.90
-2.80
0.30
5.74
10.72
11.79
5.49
-13.02
-44.95
-84.25
-117.95
-131.39
-116.10
-73.99
-19.22
34.84
76.85
101.22
108.94
105.19
95.98
82.38
66.30
49.22
33.11
19.64
10.77
7.74
9.89
14.54
17.98
17.47
11.84
2.18
-9.27
-19.32
-24.93
-24.39
-17.98
-7.79
3.76
14.51
23.59
31.08
37.73
44.15
50.22
54.99
57.21
56.47
53.35
49.31
45.69
43.02
40.62
36.76
29.59
18.28
3.97
-10.39
-21.02
-24.99
-21.69
-13.30
-4.05
1.55
0.47
-7.45
-19.60
-31.57
-39.00
-39.28
-32.45
-21.00
-8.69
1.04
6.38
7.63
6.88
7.12
10.72
18.40
28.82
38.67
43.17
37.26
16.93
-18.70
-66.24
-118.56
-166.40
-201.28
-217.94
-215.51
-196.64
-165.83
-127.38
-84.59
-40.61
1.52
38.54
67.56
86.87
96.55
95.74
84.26
64.78
42.78
24.94
15.14
13.36
17.05
22.86
29.59
38.30
50.87
67.67
88.17
109.87
129.93
141.59
140.47
125.88
101.84
78.29
59.18
46.07
37.70
31.05
23.38
11.97
-5.23
-28.25
-55.05
-82.86
-107.58
-127.25
-142.24
-149.14
-146.68
-136.68
-122.39
-106.42
-95.12
-87.14
-81.09
-75.73
-69.35
-57.71
-38.87
-13.06
16.71
44.87
66.40
77.15
75.97
64.97
47.88
28.78
11.79
0.17
-4.46
-1.60
6.97
18.35
29.31
36.66
37.88
32.19
20.71
6.14
-7.39
-16.13
-17.55
-11.17
0.86
14.48
25.40
30.59
29.20
22.77
13.92
5.36
-0.96
-4.30
-5.00
-3.91
-2.05
-0.50
-0.24
-2.17
-6.73
-13.73
-22.30
-31.20
-38.96
-43.91
-44.06
-37.35
-22.54
-0.22
26.59
53.08
74.13
86.22
88.58
83.06
72.87
60.48
46.76
31.65
15.76
1.38
-8.20
-10.36
-4.67
6.66
19.19
28.03
30.04
25.32
16.80
8.44
3.51
3.89
10.37
22.52
38.57
55.64
70.02
77.39
73.46
55.37
22.08
-20.82
-61.98
-90.47
-102.19
-100.10
-90.42
-78.49
-66.99
-56.21
-45.23
-33.85
-23.33
-15.52
-11.17
-9.66
-9.43
-8.68
-6.18
-1.37
5.16
11.86
16.99
19.96
21.24
21.96
23.31
26.01
30.24
35.36
40.06
42.40
42.04
39.13
34.27
28.15
21.33
14.17
6.72
-0.05
-6.70
-13.12
-18.96
-23.69
-26.99
-28.77
-29.24
-28.79
-27.82
-26.84
-25.86
-24.81
-23.60
-22.25
-20.96
-20.01
-19.63
-19.82
-20.44
-20.99
-21.05
-20.40
-19.26
-18.14
-17.73
-18.51
-20.52
-23.32
-26.02
-27.78
-28.20
-27.60
-26.86
-27.14
-29.28
-33.38
-38.69
-43.89
-47.89
-50.03
-50.96
-51.41
-52.49
-55.19
-60.25
-68.16
-78.80
-90.83
-101.17
-105.46
-99.49
-81.45
-53.32
-20.79
8.81
29.45
38.71
38.30
32.31
24.91
18.41
13.03
7.94
2.67
-2.14
-4.99
-4.26
0.66
9.32
20.49
32.60
44.53
55.71
66.10
75.33
83.92
91.97
99.20
105.02
108.73
109.83
108.21
104.78
100.14
95.41
91.38
88.28
85.90
84.05
83.10
83.72
86.04
88.42
87.44
78.59
58.55
27.42
-10.57
-48.34
-78.82
-97.69
-104.97
-103.74
-98.42
-92.53
-87.61
-83.84
-81.29
-80.85
-83.62
-89.36
-95.22
-96.16
-87.13
-65.65
-33.94
1.60
32.65
52.59
59.19
55.01
45.45
35.86
29.35
26.27
25.27
24.81
24.24
23.85
24.06
24.69
24.81
23.26
18.51
10.85
1.22
-8.95
-18.09
-25.08
-29.50
-31.63
-32.13
-31.31
-29.53
-26.64
-22.15
-15.61
-6.90
3.59
14.99
25.63
34.77
41.73
46.91
50.07
51.44
51.37
50.14
47.83
44.29
39.40
32.93
24.28
14.57
5.04
-3.17
-9.06
-12.10
-12.38
-10.16
-6.70
-2.87
0.89
4.67
8.79
13.68
19.75
27.35
36.73
47.51
58.42
66.24
68.36
62.51
48.31
27.89
5.27
-15.12
-30.28
-39.40
-43.59
-44.78
-44.80
-44.28
-43.03
-40.54
-36.47
-30.91
-24.32
-17.39
-10.87
-5.67
-2.51
-1.89
-4.12
-9.27
-17.04
-26.64
-36.64
-45.21
-50.68
-52.09
-49.67
-44.63
-38.71
-33.42
-29.50
-26.99
-25.53
-24.67
-23.99
-22.98
-20.90
-16.97
-10.63
-1.80
8.85
19.91
29.85
37.44
42.12
44.02
43.75
42.34
40.98
40.73
42.09
45.11
49.50
52.70
52.45
47.09
36.46
22.28
7.33
-5.90
-16.06
-23.55
-29.28
-34.38
-39.67
-45.30
-50.72
-54.10
-54.57
-51.63
-45.17
-33.74
-17.94
-0.54
14.86
26.13
34.11
39.62
43.04
43.63
41.00
34.92
25.77
14.69
3.71
-5.16
-11.25
-15.10
-18.07
-21.66
-27.28
-35.50
-45.63
-55.37
-61.53
-61.66
-54.48
-40.11
-20.15
2.32
24.23
40.33
46.59
43.06
32.79
19.50
5.77
-7.27
-19.34
-30.06
-38.76
-45.08
-47.94
-47.39
-44.61
-40.97
-37.37
-33.98
-30.30
-25.79
-19.83
-12.22
-3.73
3.99
9.57
12.60
13.76
14.49
16.42
20.97
28.99
40.05
52.41
63.09
68.22
64.04
48.52
22.84
-7.84
-35.72
-53.25
-56.18
-45.01
-24.48
-1.15
19.46
34.55
44.16
49.79
52.70
53.23
51.15
46.41
39.75
32.58
26.26
21.53
18.23
15.55
12.55
8.75
4.28
-0.19
-3.95
-6.67
-8.61
-10.54
-13.31
-17.45
-22.85
-28.82
-34.35
-38.37
-39.99
-38.59
-33.92
-26.27
-16.52
-6.18
2.90
9.00
11.03
8.92
3.57
-3.48
-10.57
-16.39
-20.27
-22.13
-22.29
-21.23
-19.30
-16.81
-14.12
-11.76
-10.34
-10.41
-12.18
-15.34
-19.13
-22.41
-24.22
-24.16
-22.44
-19.57
-16.09
-12.26
-8.11
-3.59
1.55
7.19
12.88
17.99
22.15
25.48
28.44
31.35
34.37
37.80
41.52
45.12
48.01
49.78
50.38
49.93
48.54
46.45
44.62
43.92
44.77
46.89
49.53
51.88
53.22
53.04
47.57
35.41
18.13
-0.37
-16.32
-27.86
-34.72
-36.94
-35.94
-32.80
-27.67
-20.72
-12.33
-2.97
5.95
13.71
20.01
24.58
27.30
28.39
27.80
25.21
20.27
12.95
3.89
-5.94
-15.72
-24.85
-32.82
-39.35
-44.37
-47.78
-49.48
-49.32
-47.50
-44.76
-42.05
-40.24
-39.80
-40.72
-42.47
-44.16
-44.73
-43.30
-39.53
-33.54
-25.93
-17.67
-9.95
-3.86
-0.21
0.66
-1.07
-4.88
-9.99
-15.51
-20.44
-23.68
-24.19
-21.20
-14.55
-4.87
6.49
17.80
27.61
35.09
40.13
43.14
44.56
44.60
43.22
40.28
35.92
30.66
25.24
20.40
16.56
13.71
11.51
9.51
7.32
4.81
2.06
-0.67
-3.08
-4.94
-6.17
-6.81
-7.02
-6.99
-6.86
-6.70
-6.52
-6.33
-6.13
-6.00
-5.98
-6.06
-6.08
-5.80
-4.92
-3.22
-0.64
2.69
6.55
10.67
14.83
18.88
22.69
26.12
28.95
30.93
31.84
31.62
30.41
28.56
26.56
24.94
24.16
24.39
25.47
26.73
27.07
25.21
20.03
11.08
-1.24
-15.58
-29.97
-42.36
-51.11
-55.36
-55.08
-50.85
-43.64
-34.46
-24.16
-13.34
-2.36
8.41
18.40
26.86
33.06
36.54
37.29
35.79
32.70
28.57
23.57
17.53
10.22
1.64
-8.20
-19.71
-33.85
-51.73
-73.59
-97.74
-120.34
-136.33
-141.32
-133.49
-114.56
-88.72
-60.78
-34.40
-11.39
7.82
23.11
34.12
40.15
40.82
37.04
30.95
24.92
20.36
17.26
14.06
9.87
5.73
4.15
7.48
16.00
27.68
39.41
48.56
54.03
56.32
57.86
58.59
57.77
54.91
50.26
44.77
39.64
35.72
32.96
30.28
26.01
18.42
7.86
-3.68
-14.16
-22.31
-27.88
-30.81
-31.32
-30.11
-28.15
-26.66
-26.78
-29.90
-36.55
-45.69
-54.74
-60.70
-61.66
-57.55
-50.76
-41.99
-31.69
-19.57
-4.83
12.88
32.23
49.97
62.21
63.80
54.76
40.04
27.49
23.87
31.50
46.99
63.08
72.28
70.39
58.52
41.04
23.08
7.92
-3.75
-13.25
-22.10
-29.85
-34.36
-32.73
-23.76
-8.68
8.02
21.15
27.05
24.80
16.06
3.84
-8.58
-19.24
-27.15
-31.97
-33.56
-31.93
-27.37
-20.51
-12.36
-3.94
3.82
10.34
15.24
18.40
19.86
19.79
18.57
16.78
15.13
14.20
14.22
15.20
16.61
17.63
17.40
15.27
10.96
4.59
-3.19
-11.24
-17.93
-21.36
-19.77
-12.16
1.03
17.80
34.90
48.85
56.93
57.91
52.11
40.90
25.95
8.82
-9.09
-26.35
-41.33
-52.51
-59.04
-61.22
-60.48
-58.81
-57.83
-58.18
-59.41
-60.37
-59.83
-56.99
-51.66
-44.09
-34.91
-25.04
-15.73
-8.47
-4.53
-4.48
-7.79
-12.88
-17.67
-20.35
-20.04
-16.97
-12.18
-7.00
-2.43
1.04
3.41
4.91
5.76
6.04
5.72
4.75
3.17
1.12
-1.06
-2.93
-4.08
-4.22
-3.35
-1.75
0.18
2.05
3.63
4.89
5.87
6.61
7.15
7.55
7.95
8.51
9.30
10.17
10.75
10.65
9.72
8.14
6.40
4.99
4.24
4.12
4.37
4.70
4.92
5.11
5.53
6.65
9.00
13.03
18.88
26.19
34.03
41.07
45.90
47.49
45.55
40.50
33.32
25.14
17.00
9.63
3.50
-1.12
-4.05
-5.29
-4.97
-3.48
-1.42
0.50
1.68
1.75
0.66
-1.42
-4.22
-7.52
-11.19
-15.10
-18.99
-22.43
-24.87
-25.81
-25.08
-22.92
-19.98
-17.11
-14.98
-13.91
-13.68
-13.71
-13.29
-11.95
-9.65
-6.82
-4.21
-2.53
-2.17
-2.98
-4.34
-5.19
-4.69
-2.40
1.37
5.68
9.33
11.32
11.21
9.16
6.03
2.79
0.39
-0.53
0.20
2.21
4.65
6.21
5.38
1.69
-4.67
-12.22
-18.95
-23.69
-26.64
-28.76
-30.86
-34.27
-38.01
-40.77
-41.48
-39.63
-35.27
-28.81
-20.77
-10.87
0.10
11.14
20.92
28.40
33.08
35.18
35.51
35.21
35.36
36.71
39.93
45.24
52.34
60.34
67.92
73.48
75.55
73.18
66.00
54.39
38.91
20.21
-0.92
-23.03
-44.05
-61.56
-73.31
-77.91
-75.04
-65.59
-51.37
-34.53
-16.94
-0.23
14.17
25.21
32.49
36.49
38.47
39.87
40.54
40.44
39.38
37.33
34.30
30.31
25.31
19.18
11.90
2.84
-7.83
-19.30
-30.30
-39.52
-45.84
-48.81
-47.33
-41.69
-32.90
-22.06
-10.46
0.54
9.76
16.65
21.24
24.13
25.88
27.17
28.43
29.11
27.59
21.72
10.02
-7.80
-30.53
-55.84
-79.93
-98.47
-107.94
-106.72
-95.23
-75.19
-49.15
-20.04
8.96
35.52
57.85
74.26
82.99
81.29
69.20
50.60
33.09
20.40
13.27
10.30
9.32
7.70
3.60
-2.86
-10.30
-17.13
-22.19
-23.76
-19.51
-7.42
12.06
35.24
55.85
66.49
60.84
36.02
-5.62
-57.11
-106.26
-141.93
-160.45
-165.46
-162.16
-151.90
-131.46
-96.89
-47.46
11.71
70.80
119.56
153.54
172.04
176.07
167.87
148.77
120.05
82.99
39.89
-5.36
-48.32
-84.55
-110.74
-126.57
-138.62
-150.19
-160.44
-164.93
-157.46
-133.50
-88.70
-26.24
47.12
121.23
185.85
232.37
255.49
254.28
231.32
192.38
136.92
75.79
24.27
-7.72
-21.26
-26.02
-28.45
-31.00
-33.21
-33.53
-28.58
-17.09
0.24
19.65
35.33
44.02
45.94
43.55
39.15
34.79
30.05
23.35
13.75
1.15
-13.47
-29.41
-47.20
-68.24
-92.87
-120.84
-150.42
-172.08
-179.75
-170.65
-146.56
-112.91
-76.90
-45.12
-22.66
-12.04
-9.86
-11.71
-11.66
-4.77
11.22
35.04
62.27
85.94
99.67
100.51
85.56
57.83
25.21
-1.98
-14.21
-4.67
23.49
57.84
84.47
94.59
88.15
71.12
51.10
33.85
21.67
13.46
7.34
2.78
0.59
2.58
9.80
20.89
32.02
38.10
34.71
21.05
1.15
-18.27
-30.61
-32.46
-25.36
-14.29
-3.83
2.39
3.82
2.97
3.11
5.96
10.79
14.21
12.41
4.10
-9.16
-23.16
-33.03
-35.68
-33.34
-26.74
-16.67
-3.79
11.42
29.62
49.25
67.46
80.94
87.15
85.72
77.58
64.40
47.61
27.68
4.46
-21.48
-47.95
-71.37
-87.61
-94.29
-91.47
-81.17
-66.08
-48.37
-28.97
-8.12
13.46
34.22
51.61
63.39
68.70
68.42
64.52
59.25
54.16
49.79
46.06
42.67
39.59
37.32
36.49
37.36
39.32
41.07
41.05
38.16
32.29
24.61
17.20
12.32
11.48
14.77
21.10
28.77
36.15
42.15
46.36
48.95
50.47
51.60
52.70
53.94
55.14
55.60
53.99
48.74
38.67
23.41
3.52
-20.61
-47.87
-76.39
-103.75
-127.57
-145.90
-157.53
-162.34
-161.43
-158.48
-156.67
-157.25
-159.63
-162.71
-165.75
-168.56
-171.23
-173.78
-178.46
-185.88
-194.26
-200.69
-203.36
-202.22
-198.53
-194.06
-190.63
-192.87
-202.92
-218.70
-235.16
-247.11
-250.75
-243.96
-226.35
-177.88
-94.84
7.61
104.65
178.77
226.10
252.37
266.89
277.38
286.27
288.95
280.88
260.96
231.60
194.73
153.76
112.45
77.05
53.12
39.54
32.16
27.90
26.91
31.17
41.06
57.74
79.56
102.41
120.23
129.62
131.44
129.89
127.78
127.17
128.29
129.56
128.14
120.39
104.44
81.22
53.66
24.92
-2.64
-28.37
-52.86
-77.43
-103.56
-131.45
-159.41
-184.64
-204.42
-216.61
-220.03
-213.52
-196.28
-168.47
-131.60
-88.76
-44.40
-3.33
32.12
57.83
73.31
82.66
90.64
98.83
105.62
108.62
107.18
103.02
98.75
96.41
95.42
92.57
83.99
67.90
45.92
22.39
2.46
-10.33
-14.68
-12.36
-6.89
-1.83
0.55
-0.01
-2.20
-3.90
-3.15
1.89
12.34
27.64
45.46
61.52
70.34
67.08
49.90
21.46
-11.33
-40.13
-58.67
-65.38
-63.50
-58.69
-56.20
-58.61
-65.30
-73.30
-78.27
-75.57
-61.26
-33.85
3.91
44.31
76.57
91.01
83.39
57.19
21.91
-11.33
-34.93
-47.36
-51.98
-53.77
-56.15
-59.74
-63.12
-64.23
-61.81
-54.87
-43.10
-26.66
-6.53
15.14
35.43
51.30
61.30
65.61
65.23
60.98
53.31
42.77
30.90
20.44
14.46
14.97
21.56
31.28
39.95
44.23
42.72
36.71
29.27
23.65
22.16
25.45
32.69
41.69
49.29
51.52
44.54
26.23
-2.19
-35.63
-66.27
-86.39
-91.44
-81.91
-62.85
-41.13
-22.49
-9.56
-2.02
1.88
3.68
3.98
2.79
0.31
-2.45
-4.18
-4.13
-2.38
-0.06
1.44
1.21
-0.63
-3.34
-5.59
-6.23
-4.77
-1.54
2.50
6.23
8.76
9.68
9.11
7.61
5.85
4.46
3.91
4.46
6.05
8.29
10.52
11.94
11.92
10.18
6.98
3.02
-0.88
-4.07
-6.34
-7.88
-9.12
-10.39
-11.81
-13.24
-14.23
-14.25
-12.90
-10.05
-6.03
-1.62
2.02
3.68
2.39
-1.97
-8.48
-15.41
-20.80
-23.18
-22.18
-18.57
-13.27
-7.70
-2.84
1.23
5.24
10.11
16.16
22.75
28.47
31.91
32.30
30.11
26.77
23.96
22.86
23.77
26.20
29.39
32.75
35.98
38.98
41.51
43.07
43.05
41.06
37.13
31.68
25.21
18.00
10.09
1.42
-7.74
-16.57
-23.90
-28.52
-29.82
-28.02
-24.12
-19.53
-15.62
-13.14
-12.03
-11.76
-12.12
-13.65
-17.60
-25.09
-36.29
-49.88
-62.97
-71.89
-73.78
-67.87
-55.95
-41.19
-26.65
-14.40
-5.51
0.10
3.37
5.80
9.49
16.65
29.32
48.36
71.92
94.86
110.40
112.66
98.46
68.61
26.76
-21.85
-69.86
-107.64
-128.57
-132.93
-126.56
-116.21
-105.51
-95.43
-85.27
-73.96
-61.41
-49.40
-40.13
-35.26
-37.39
-46.09
-60.52
-78.36
-95.86
-108.18
-110.97
-101.06
-74.72
-37.43
1.06
31.23
48.65
53.96
53.22
50.93
50.92
55.77
65.85
79.45
92.56
101.41
101.81
91.39
71.82
50.10
33.00
29.09
44.07
78.21
128.23
185.55
237.94
272.96
281.62
260.02
210.19
139.52
51.29
-37.73
-107.88
-149.21
-165.40
-167.04
-164.10
-162.29
-163.26
-165.31
-164.65
-155.70
-135.79
-105.23
-66.53
-23.37
20.07
60.32
89.87
105.87
110.02
105.59
95.38
81.33
65.58
50.74
39.06
31.94
30.68
34.83
41.98
49.93
54.64
52.96
42.81
22.79
-6.54
-41.56
-77.31
-106.70
-126.59
-138.41
-145.14
-147.60
-145.16
-131.75
-102.50
-57.49
-3.17
49.67
90.88
112.37
114.35
103.95
90.63
80.94
76.96
77.10
77.91
76.29
70.71
61.11
47.75
31.36
13.05
-5.24
-21.02
-32.53
-39.35
-41.64
-39.96
-35.58
-29.99
-24.79
-21.08
-19.16
-18.71
-18.92
-18.68
-16.98
-13.51
-8.62
-3.41
0.91
3.30
3.07
0.04
-5.43
-12.52
-20.25
-27.18
-32.24
-34.83
-34.91
-32.97
-29.75
-25.96
-21.96
-17.88
-13.75
-9.84
-6.85
-5.74
-7.47
-12.36
-19.61
-27.15
-32.27
-32.52
-26.83
-16.04
-2.62
10.26
19.93
25.04
25.69
22.74
17.38
10.60
3.32
-3.42
-8.48
-10.90
-10.37
-7.15
-2.33
3.13
8.61
14.19
20.35
27.33
34.68
41.08
45.13
44.97
39.60
28.98
14.74
-0.11
-12.11
-18.47
-18.47
-12.96
-6.10
-3.76
-11.31
-30.49
-58.48
-88.77
-112.94
-122.76
-111.53
-80.65
-33.47
22.55
77.48
121.66
148.52
156.37
142.09
112.42
77.79
47.35
25.24
11.30
3.28
-1.09
-3.36
-4.42
-3.97
-2.82
-2.25
-3.30
-5.92
-8.99
-10.93
-10.67
-8.13
-3.58
1.35
4.77
5.23
2.51
-2.41
-7.44
-10.63
-10.70
-6.99
-0.26
7.80
15.35
21.06
24.53
26.18
26.87
27.52
29.06
31.77
35.43
39.50
43.37
46.46
48.28
48.46
46.87
43.77
39.68
35.22
30.92
26.97
23.14
18.85
13.43
6.41
-2.32
-12.44
-23.27
-33.90
-43.33
-50.58
-54.94
-56.22
-54.85
-51.89
-48.71
-46.63
-46.46
-48.36
-51.79
-55.77
-59.20
-61.14
-60.96
-58.43
-53.66
-47.04
-39.16
-30.72
-22.45
-14.98
-8.72
-3.89
-0.45
1.89
3.55
5.06
6.94
9.60
13.23
17.71
22.56
27.06
30.52
32.62
33.55
34.07
35.20
37.85
42.39
48.46
54.91
60.06
62.01
59.00
49.92
34.77
15.06
-6.30
-25.65
-39.69
-46.68
-47.05
-43.09
-37.83
-33.57
-30.93
-28.88
-25.62
-19.83
-11.60
-2.49
5.26
9.91
11.00
9.65
7.93
7.97
10.95
16.58
23.26
28.76
31.07
29.22
23.54
15.69
8.26
4.25
6.40
16.31
33.67
55.79
78.02
95.11
103.13
101.19
91.95
80.62
72.81
72.20
79.18
91.08
103.43
111.89
113.68
108.21
96.85
81.95
65.63
48.82
30.94
10.36
-14.43
-43.42
-74.27
-102.69
-123.84
-134.28
-133.39
-123.49
-108.68
-92.95
-78.89
-67.29
-58.01
-51.09
-47.52
-49.04
-57.17
-72.10
-92.18
-114.30
-135.03
-151.70
-163.08
-169.22
-170.83
-168.66
-163.14
-154.56
-143.47
-130.93
-118.43
-107.48
-98.98
-92.91
-88.26
-83.54
-77.35
-68.96
-58.49
-46.73
-34.70
-23.29
-12.98
-3.91
3.98
10.84
16.85
22.26
27.34
32.35
37.36
42.23
46.73
50.62
53.80
56.33
58.35
59.94
61.15
62.00
62.53
62.74
62.57
61.74
59.85
56.49
51.44
44.86
37.27
29.40
22.03
15.75
10.90
7.64
5.97
5.79
6.88
8.88
11.25
13.33
14.45
14.13
12.20
8.93
4.91
0.90
-2.40
-4.57
-5.54
-5.54
-4.99
-4.26
-3.62
-3.17
-3.00
-3.15
-3.70
-4.71
-6.08
-7.58
-8.82
-9.47
-9.34
-8.54
-7.37
-6.24
-5.49
-5.35
-5.86
-7.01
-8.68
-10.70
-12.81
-14.61
-15.63
-15.46
-13.90
-11.04
-7.23
-3.03
0.95
4.24
6.57
7.88
8.40
8.54
8.79
9.58
11.18
13.65
16.81
20.32
23.74
26.67
28.76
29.80
29.75
28.79
27.21
25.34
23.39
21.40
19.17
16.43
12.96
8.71
3.86
-1.29
-6.34
-10.94
-14.77
-17.57
-19.19
-19.59
-18.96
-17.67
-16.22
-15.08
-14.56
-14.74
-15.47
-16.47
-17.44
-18.17
-18.50
-18.42
-17.97
-17.24
-16.34
-15.34
-14.18
-12.68
-10.59
-7.77
-4.27
-0.38
3.43
6.79
9.59
12.10
14.87
18.47
23.16
28.77
34.71
40.19
44.50
47.27
48.50
48.56
47.98
47.42
47.44
48.42
50.28
52.29
53.03
50.65
43.46
30.56
12.41
-9.25
-31.80
-52.58
-69.59
-81.79
-88.97
-91.37
-89.36
-83.31
-73.66
-61.08
-46.48
-30.95
-15.47
-0.79
12.60
24.23
33.66
40.41
44.16
44.89
42.91
38.84
33.50
27.62
21.71
16.05
10.71
5.63
0.73
-4.04
-8.60
-12.48
-15.09
-16.00
-15.00
-12.12
-7.56
-1.67
5.03
11.92
18.84
25.60
31.88
37.34
41.89
45.89
49.93
54.47
59.47
65.04
70.68
75.16
77.11
75.97
72.43
68.16
65.02
64.38
67.59
74.93
85.20
96.20
105.76
112.29
114.88
113.06
101.39
78.23
47.25
15.58
-10.89
-30.24
-43.60
-52.88
-59.04
-61.64
-59.66
-51.44
-37.07
-18.88
-0.41
15.11
25.63
30.66
30.74
27.39
21.78
14.01
3.46
-10.25
-26.59
-44.16
-61.45
-77.55
-91.97
-104.76
-116.37
-127.10
-136.83
-145.09
-151.58
-156.43
-160.08
-162.84
-164.70
-165.67
-165.76
-164.83
-162.19
-156.48
-145.94
-129.31
-106.57
-79.40
-50.87
-24.29
-2.09
15.23
29.11
42.14
56.73
74.07
93.85
114.48
133.89
149.74
160.67
166.79
169.62
171.25
173.36
176.73
181.14
185.64
187.93
186.16
179.87
170.31
159.51
149.23
140.42
133.04
126.04
115.95
99.30
74.28
41.74
4.28
-34.80
-72.13
-104.81
-130.80
-151.52
-169.45
-186.57
-203.37
-220.22
-237.97
-257.82
-280.82
-292.89
-283.31
-250.60
-204.03
-155.01
-110.50
-72.29
-39.64
-11.74
11.46
27.11
32.89
27.63
16.30
5.30
0.57
6.11
22.72
48.12
75.66
98.01
110.19
111.38
103.91
91.27
78.10
68.62
65.80
68.90
75.08
80.95
83.95
82.73
77.69
70.89
65.06
63.47
67.38
76.47
88.86
100.81
107.52
104.44
88.93
61.37
27.15
-5.24
-25.59
-25.59
-3.72
34.36
77.49
114.01
129.56
120.85
90.60
46.33
-3.15
-52.82
-100.04
-143.12
-180.20
-209.69
-229.55
-239.33
-240.06
-234.43
-228.83
-228.54
-235.25
-246.91
-259.77
-268.97
-270.76
-262.85
-229.38
-166.90
-86.97
-9.15
52.18
92.92
117.10
130.75
138.61
143.28
142.84
135.80
123.75
112.30
105.93
107.72
117.29
130.25
140.44
140.35
126.12
99.58
66.62
34.11
7.59
-10.17
-19.26
-19.66
-12.35
1.99
22.54
44.94
61.80
66.88
62.39
51.61
38.75
27.25
17.94
11.59
7.61
4.53
1.06
-3.53
-10.11
-18.68
-28.98
-40.56
-52.59
-64.25
-74.31
-81.15
-83.44
-81.27
-75.53
-67.78
-59.94
-53.53
-49.45
-47.44
-46.22
-44.17
-40.42
-34.64
-27.00
-18.25
-9.36
-1.55
4.20
7.43
8.20
6.94
4.63
2.87
3.20
6.69
13.54
23.13
34.33
45.63
55.44
62.57
67.28
70.52
73.51
77.11
81.73
87.35
93.40
98.97
103.07
105.98
108.09
109.43
109.44
107.50
103.62
98.28
92.35
86.75
83.61
84.30
88.94
96.37
105.06
114.15
123.17
131.95
131.98
118.14
90.84
56.43
21.96
-9.14
-36.77
-62.29
-86.11
-106.80
-120.30
-123.39
-115.31
-98.82
-80.21
-63.91
-53.29
-49.71
-52.59
-58.86
-65.78
-71.65
-76.68
-82.55
-91.44
-105.88
-128.02
-159.34
-194.94
-228.84
-253.45
-261.34
-247.53
-211.13
-156.61
-92.53
-29.17
24.91
64.38
88.31
98.74
98.83
91.77
79.93
65.32
49.56
34.03
19.47
6.64
-3.77
-10.83
-12.85
-7.75
6.51
30.19
59.08
84.96
100.99
105.37
100.79
91.67
81.42
71.71
62.41
52.47
41.19
28.81
16.06
3.51
-7.23
-17.21
-27.93
-41.28
-59.02
-81.84
-108.64
-136.25
-159.59
-171.74
-166.81
-141.88
-98.55
-42.63
18.16
75.42
120.97
150.04
163.55
166.03
163.14
159.55
157.78
158.09
158.96
157.75
144.83
114.06
65.07
4.94
-53.91
-98.07
-117.19
-107.14
-71.62
-21.46
30.50
74.66
103.82
114.26
106.06
82.03
45.89
1.06
-49.44
-101.88
-151.50
-192.59
-220.09
-230.74
-223.79
-201.39
-168.21
-129.86
-90.75
-53.56
-19.56
10.88
37.51
59.54
75.69
84.91
87.53
85.86
83.12
81.64
81.64
81.13
77.10
67.22
51.33
31.99
13.66
0.96
-3.40
0.42
9.50
19.34
25.52
25.31
18.55
7.40
-4.75
-14.82
-21.09
-23.33
-22.24
-18.75
-13.70
-8.06
-3.46
-2.20
-6.56
-17.67
-34.58
-54.25
-72.61
-86.08
-92.87
-93.30
-89.13
-82.36
-74.21
-64.81
-53.56
-39.88
-23.91
-6.67
10.20
25.01
36.54
44.27
48.34
49.22
47.52
43.81
38.59
32.32
25.46
18.45
11.59
5.07
-1.03
-6.67
-11.64
-15.59
-17.97
-18.21
-15.87
-10.87
-3.62
5.05
14.09
22.50
29.62
35.28
39.69
43.19
46.05
48.20
49.28
48.79
46.33
41.85
35.72
28.65
21.53
15.22
10.43
7.64
7.06
8.61
12.08
16.98
22.62
28.09
32.52
35.24
35.95
34.71
31.91
28.26
24.35
20.61
17.27
14.59
12.87
12.35
12.99
14.39
16.07
17.17
16.85
14.68
11.04
7.06
4.20
3.61
5.71
10.77
17.87
25.18
30.55
32.27
29.81
23.78
15.73
7.43
1.60
-0.41
0.86
3.05
2.80
-3.21
-17.54
-41.47
-74.96
-112.29
-144.29
-162.25
-163.15
-150.91
-132.76
-115.46
-103.39
-101.45
-105.47
-109.78
-109.32
-100.38
-81.26
-52.24
-15.20
30.21
76.52
115.24
140.54
151.95
153.57
150.31
145.28
138.74
128.80
112.37
89.37
63.85
38.57
17.09
2.16
-5.38
-7.16
-6.67
-8.60
-15.58
-27.20
-42.04
-56.84
-68.39
-75.04
-76.81
-74.69
-70.35
-64.43
-57.07
-49.12
-41.90
-37.25
-36.30
-39.22
-42.40
-41.40
-32.34
-13.88
11.49
38.84
62.45
78.24
85.37
86.11
84.12
82.96
84.92
90.40
98.98
110.20
122.87
136.11
148.94
159.97
167.75
170.94
168.36
159.46
144.31
123.60
98.82
72.06
45.70
21.73
1.04
-17.59
-36.56
-58.52
-85.56
-118.34
-156.03
-195.80
-233.24
-263.11
-281.74
-286.61
-276.78
-253.27
-218.63
-176.72
-130.97
-84.32
-39.75
-2.72
21.72
30.89
25.35
8.68
-14.87
-40.75
-65.71
-88.17
-110.01
-131.93
-151.80
-165.60
-169.57
-163.19
-147.64
-125.01
-84.73
-26.52
39.74
100.97
148.12
186.58
220.42
250.65
272.66
280.90
269.05
235.59
185.16
126.59
69.04
17.44
-26.78
-64.49
-96.76
-125.13
-148.63
-164.04
-167.80
-157.82
-134.97
-101.06
-58.37
-9.75
39.38
82.70
114.46
131.18
132.73
121.51
102.09
79.34
57.15
37.47
21.93
12.89
13.51
26.03
49.18
77.71
103.63
119.14
119.11
102.91
74.02
38.99
4.61
-24.64
-47.34
-64.29
-77.02
-86.82
-94.50
-100.54
-104.32
-104.94
-102.61
-99.12
-96.94
-98.06
-103.36
-112.84
-125.77
-139.39
-149.50
-152.03
-144.07
-124.09
-91.94
-49.19
4.45
59.89
104.15
129.70
137.65
133.24
120.98
103.62
85.09
65.29
45.14
27.96
17.68
16.20
22.47
33.39
45.23
55.08
60.62
60.97
57.22
51.02
43.01
32.59
18.58
1.23
-17.94
-36.99
-53.25
-63.48
-65.14
-57.58
-42.00
-21.17
2.68
27.57
48.97
61.62
63.28
55.94
43.73
33.26
24.37
16.29
8.79
2.22
-3.71
-7.78
-9.17
-8.12
-5.76
-4.01
-3.71
-5.07
-7.95
-11.71
-15.40
-18.80
-22.60
-27.95
-36.13
-46.96
-59.24
-71.19
-80.80
-86.29
-87.06
-83.86
-78.46
-73.33
-70.44
-71.15
-75.96
-83.99
-92.86
-99.34
-100.16
-93.09
-77.81
-55.84
-30.18
-4.43
18.36
36.44
49.35
57.62
62.30
64.54
65.51
66.29
67.78
70.63
75.10
80.85
86.89
91.77
93.94
92.37
86.97
78.70
69.26
60.41
53.34
48.35
45.09
42.99
41.85
41.94
43.73
47.41
52.51
57.77
61.49
62.00
58.12
49.46
36.45
20.24
2.58
-14.35
-28.12
-36.34
-37.03
-29.13
-12.95
9.70
35.66
60.97
81.64
94.48
97.68
91.14
76.49
56.72
35.69
17.36
5.07
0.95
5.51
17.55
34.53
53.15
70.11
82.76
89.41
89.42
82.93
70.61
53.44
32.73
10.27
-11.63
-30.37
-43.72
-50.63
-51.81
-49.52
-46.72
-45.62
-46.60
-47.98
-46.87
-40.54
-27.77
-9.29
12.55
34.82
54.96
71.21
82.53
88.30
88.11
81.79
69.69
52.83
32.79
11.37
-9.91
-30.09
-48.89
-66.43
-82.83
-97.76
-110.33
-119.19
-122.98
-120.78
-112.48
-98.85
-81.48
-62.46
-44.23
-29.33
-20.09
-18.30
-24.76
-38.96
-59.12
-82.39
-105.51
-125.41
-139.83
-147.60
-148.64
-143.75
-134.19
-121.43
-106.87
-91.82
-77.56
-65.22
-55.73
-49.45
-45.84
-43.42
-40.06
-33.49
-22.13
-5.63
14.91
37.26
58.64
76.36
88.63
94.75
95.11
90.83
83.38
74.15
64.32
54.82
46.27
39.21
33.96
30.57
28.64
27.28
25.32
21.59
15.40
6.47
-4.71
-17.11
-29.35
-40.17
-48.57
-54.00
-56.32
-55.45
-52.25
-47.47
-41.93
-36.26
-30.91
-26.07
-21.68
-17.53
-12.73
-7.91
-3.15
1.44
5.97
10.39
14.44
17.63
19.53
21.09
21.49
21.51
22.07
24.38
28.83
34.82
41.19
47.06
53.78
60.65
68.72
78.68
91.16
105.45
119.78
132.10
132.63
132.29
130.53
128.61
127.34
127.75
129.51
131.07
130.22
125.24
116.63
102.67
83.53
54.19
15.81
-24.29
-56.26
-74.08
-78.26
-73.19
-66.97
-65.03
-69.49
-78.33
-88.00
-95.45
-99.46
-100.00
-97.08
-92.12
-85.58
-78.09
-70.34
-64.59
-61.84
-62.17
-63.31
-61.06
-51.19
-30.46
0.96
39.12
77.23
108.17
126.51
130.39
120.33
98.82
69.89
37.54
5.18
-24.87
-51.45
-72.65
-87.78
-99.33
-110.88
-125.07
-137.41
-142.46
-136.53
-119.92
-104.21
-92.22
-84.35
-80.05
-74.51
-65.28
-50.98
-31.03
-4.70
30.47
70.97
108.95
138.60
159.28
171.61
178.13
174.53
156.62
123.93
80.67
34.21
-8.06
-38.29
-53.34
-55.82
-52.68
-50.94
-55.48
-68.43
-85.43
-100.57
-108.08
-106.12
-97.61
-88.02
-85.30
-88.68
-94.70
-98.79
-97.33
-88.54
-69.75
-42.01
-8.32
29.80
66.76
95.76
113.94
122.39
123.51
117.89
107.58
90.62
67.32
40.59
14.26
-8.02
-24.60
-35.91
-43.17
-48.18
-51.61
-53.02
-52.27
-50.08
-47.26
-44.15
-40.29
-34.49
-25.64
-12.09
7.25
31.85
59.54
87.62
113.44
134.80
150.39
152.89
139.63
115.14
88.12
64.83
46.37
30.45
14.40
-2.82
-20.30
-34.27
-42.73
-45.25
-43.30
-39.33
-35.71
-34.14
-35.46
-39.62
-45.20
-50.95
-55.97
-60.09
-63.35
-65.46
-65.80
-63.73
-59.05
-51.61
-42.07
-31.55
-21.40
-12.43
-4.57
2.99
11.25
20.88
32.16
44.49
56.68
67.14
74.57
78.35
78.59
75.85
70.84
64.27
56.65
48.43
39.90
31.31
22.86
14.68
6.81
-0.73
-7.89
-14.54
-20.51
-25.62
-29.82
-33.20
-35.98
-38.52
-41.21
-44.35
-48.07
-52.26
-56.64
-60.96
-65.09
-69.17
-73.52
-78.48
-84.16
-90.25
-95.99
-100.19
-101.48
-98.56
-90.51
-77.09
-58.94
-37.55
-15.10
6.04
23.86
37.12
45.55
49.73
50.67
49.44
46.91
43.77
40.57
37.90
36.28
36.00
36.96
38.60
40.13
40.88
40.61
39.63
38.66
38.54
39.86
42.80
47.16
52.46
58.11
63.45
67.80
70.48
71.00
69.25
65.68
61.25
57.13
54.30
53.28
53.93
55.67
57.67
59.23
60.06
60.25
60.11
59.73
58.69
56.05
50.68
41.97
30.22
16.70
3.16
-8.86
-18.52
-25.76
-30.81
-33.81
-34.62
-33.34
-30.81
-28.93
-30.03
-35.95
-47.13
-62.39
-79.33
-95.27
-108.23
-117.49
-123.52
-127.19
-129.23
-129.97
-129.47
-127.67
-124.14
-118.28
-109.39
-97.06
-80.83
-60.86
-38.34
-15.67
4.33
20.15
31.94
41.39
50.18
60.22
72.18
85.06
95.98
101.58
100.29
92.39
79.68
63.54
46.52
31.06
19.04
10.99
6.63
6.59
11.47
21.25
33.41
46.34
59.17
72.24
86.06
93.98
90.86
75.14
58.45
42.96
28.38
10.83
-9.56
-31.21
-52.02
-68.97
-79.84
-83.81
-82.97
-78.82
-72.58
-64.94
-56.92
-49.59
-42.83
-36.18
-29.31
-23.45
-18.99
-15.90
-13.73
-12.50
-12.45
-13.27
-14.46
-15.46
-16.62
-17.73
-18.48
-18.49
-17.67
-16.00
-13.11
-8.60
-2.41
4.64
11.63
17.65
22.24
25.21
26.73
27.10
26.42
24.44
20.67
15.03
8.04
0.87
-5.12
-8.91
-10.11
-9.09
-6.69
-3.85
-1.35
0.30
0.73
-0.25
-2.70
-6.45
-10.97
-15.46
-18.94
-20.56
-19.74
-16.40
-10.94
-4.16
2.85
8.98
13.28
15.21
14.66
11.96
7.69
2.53
-2.93
-8.22
-13.01
-17.10
-20.38
-22.89
-24.68
-25.90
-26.67
-27.06
-27.04
-26.46
-25.09
-22.71
-19.18
-14.57
-9.13
-3.30
2.49
7.85
12.54
16.49
19.70
22.22
24.06
25.17
25.51
25.14
24.21
23.02
21.90
21.15
20.89
21.04
21.42
21.76
21.86
21.59
20.91
19.79
18.28
16.40
14.28
12.04
9.87
7.89
6.15
4.64
3.28
1.96
0.53
-1.11
-2.97
-4.93
-6.71
-7.86
-7.93
-6.65
-4.02
-0.41
3.58
7.30
10.25
12.26
13.42
14.07
14.63
15.49
16.94
19.10
21.97
25.42
29.24
33.13
36.81
40.02
42.57
44.32
45.11
44.75
43.04
39.83
35.14
29.14
22.15
14.54
6.64
-1.25
-8.82
-15.77
-21.88
-26.97
-30.93
-33.71
-35.23
-35.45
-34.38
-32.13
-29.04
-25.71
-22.81
-20.81
-19.80
-19.47
-19.38
-19.14
-18.51
-17.51
-16.32
-15.08
-13.68
-11.85
-9.31
-6.08
-2.50
1.36
5.30
9.03
12.30
15.06
17.57
20.21
23.24
26.64
31.05
36.53
42.46
47.72
51.50
53.64
54.62
55.13
55.81
58.54
64.27
72.55
81.74
90.13
96.73
101.39
104.38
106.16
109.18
114.98
123.49
133.01
141.35
146.53
146.91
141.05
117.63
72.88
12.61
-50.28
-104.33
-144.75
-172.11
-188.80
-196.71
-198.59
-192.77
-178.19
-156.42
-131.35
-107.27
-86.95
-71.03
-58.51
-47.86
-37.02
-25.43
-14.50
-6.57
-3.33
-4.75
-9.38
-15.43
-21.69
-26.59
-30.05
-32.74
-35.30
-37.74
-39.44
-39.70
-38.27
-35.65
-32.27
-28.13
-23.87
-20.01
-16.58
-13.11
-9.20
-4.78
-0.28
3.89
7.32
9.44
10.16
9.92
9.33
8.69
7.92
6.83
5.50
4.55
4.01
4.21
5.62
8.37
11.86
15.05
16.99
17.31
16.28
13.10
7.85
2.02
-2.15
-2.97
0.08
6.05
12.83
17.45
14.39
0.10
-23.99
-52.33
-78.76
-98.34
-107.14
-104.69
-88.08
-58.04
-17.21
30.70
81.27
129.31
168.20
188.64
185.81
170.32
146.79
113.63
72.33
27.10
-17.71
-57.58
-88.05
-105.82
-105.54
-88.96
-64.08
-45.60
-36.97
-35.35
-33.09
-22.83
-0.02
36.15
79.23
119.19
147.71
161.39
159.55
144.08
118.94
85.37
49.48
18.17
-4.86
-19.22
-25.31
-24.75
-22.30
-17.58
-12.24
-8.22
-9.12
-19.97
-43.90
-75.42
-109.20
-140.69
-166.30
-186.95
-203.90
-207.50
-193.32
-164.52
-129.08
-95.26
-73.88
-58.68
-44.29
-27.21
-8.36
10.20
22.35
23.55
12.54
-7.48
-29.91
-50.03
-57.54
-47.45
-25.77
-4.86
6.36
2.58
-11.27
-29.74
-51.28
-74.55
-94.25
-106.80
-109.45
-100.22
-79.37
-50.00
-14.84
15.10
29.58
25.49
8.57
-11.04
-24.33
-25.79
-15.43
1.27
14.92
17.37
3.77
-24.80
-66.13
-114.97
-160.07
-188.44
-191.39
-166.91
-118.18
-52.38
24.45
104.58
177.83
241.33
297.59
349.20
396.99
440.25
476.91
508.74
535.35
550.95
555.55
551.64
538.29
511.67
467.93
379.86
248.89
124.82
19.41
-73.83
-156.38
-230.82
-298.83
-358.90
-406.17
-430.72
-428.89
-408.65
-377.16
-340.47
-305.21
-275.63
-252.22
-232.82
-212.30
-190.74
-175.13
-167.78
-166.32
-167.18
-166.08
-158.68
-141.69
-104.93
-49.79
9.25
58.66
93.54
115.06
126.65
131.09
132.51
131.30
125.69
114.22
99.55
86.89
80.03
80.13
84.96
91.48
95.99
94.30
84.22
65.57
43.37
24.12
11.40
4.09
-1.42
-8.31
-17.51
-27.07
-33.85
-35.57
-32.94
-29.29
-28.25
-32.42
-39.99
-47.51
-50.73
-46.29
-32.78
-12.00
11.48
32.18
46.01
51.36
48.63
39.54
25.69
8.38
-10.56
-29.31
-45.80
-57.56
-62.17
-58.52
-47.48
-32.36
-17.20
-5.40
0.95
1.48
-2.32
-7.68
-11.82
-12.84
-10.97
-6.95
-1.59
3.74
7.01
6.11
-0.30
-12.38
-29.26
-50.44
-74.18
-97.41
-116.77
-129.34
-132.49
-124.10
-103.00
-64.35
-13.47
36.21
72.50
91.59
96.83
94.24
88.99
84.15
80.51
76.44
71.16
65.73
61.79
60.18
60.57
61.59
62.06
61.29
58.65
55.00
52.15
51.15
51.00
49.86
44.42
33.12
16.76
-2.38
-20.60
-34.11
-40.49
-39.55
-32.02
-20.44
-7.05
6.18
16.92
23.08
23.56
18.81
10.94
3.11
-2.07
-3.39
-1.98
-0.82
-2.75
-8.91
-18.15
-27.91
-35.61
-40.06
-42.01
-42.20
-41.66
-41.01
-40.42
-40.08
-40.39
-41.91
-45.05
-49.69
-54.77
-59.03
-61.50
-62.13
-62.18
-63.89
-69.37
-79.07
-90.88
-99.82
-99.76
-85.96
-57.56
-18.78
22.05
55.35
73.69
73.83
57.57
30.40
-0.70
-29.04
-49.55
-59.05
-56.25
-39.89
-11.67
23.86
60.63
93.18
118.58
136.80
149.36
157.59
161.42
159.12
148.65
129.58
103.75
75.66
50.58
32.06
20.67
14.30
9.46
3.22
-4.72
-12.04
-14.63
-9.58
1.19
11.03
11.31
-4.71
-38.99
-86.91
-139.10
-183.88
-211.07
-216.18
-200.32
-168.02
-124.94
-76.62
-26.06
17.86
47.38
62.26
66.62
64.53
58.53
53.89
51.49
52.46
57.47
61.71
64.02
63.45
59.52
53.08
45.84
42.10
42.01
43.87
45.45
45.26
41.73
34.10
23.50
12.30
1.38
-6.74
-10.24
-8.60
-2.38
5.78
11.80
11.77
-0.15
-25.14
-57.72
-88.82
-111.08
-121.35
-120.39
-112.50
-99.06
-80.52
-56.95
-29.00
1.43
31.85
58.11
77.24
88.14
92.04
90.75
86.16
79.07
68.99
54.92
36.73
16.24
-3.22
-17.52
-24.13
-22.80
-15.75
-6.69
0.55
3.50
1.75
-3.37
-8.90
-12.06
-10.68
-3.59
9.33
26.86
46.44
64.55
77.65
84.16
84.18
79.46
72.37
65.06
58.25
51.03
41.38
24.36
0.04
-26.55
-48.55
-61.99
-66.84
-67.04
-66.06
-66.34
-69.03
-73.45
-78.93
-83.37
-85.41
-83.95
-78.29
-68.09
-53.72
-36.46
-18.18
-2.34
7.60
10.27
7.63
4.19
5.13
13.67
29.16
47.02
59.21
58.16
40.89
10.48
-25.45
-57.82
-79.43
-87.20
-78.37
-56.30
-30.58
-9.70
4.67
15.91
27.42
39.46
49.44
54.25
52.96
45.46
34.29
22.86
13.51
6.78
1.91
-2.03
-5.15
-7.13
-7.08
-3.27
5.38
18.39
33.76
48.74
58.98
61.63
56.17
44.90
31.95
20.87
13.21
9.30
6.87
4.11
0.61
-3.08
-5.94
-6.86
-5.74
-3.42
-1.46
-1.71
-5.29
-12.28
-21.90
-32.78
-41.84
-45.54
-41.05
-28.05
-9.02
12.12
31.44
46.04
54.65
58.60
59.30
58.18
56.54
55.41
55.69
57.92
62.10
67.70
73.18
76.45
75.61
69.54
58.32
43.27
26.47
10.11
-3.92
-14.21
-20.00
-20.98
-17.33
-10.01
-0.83
7.72
13.03
13.13
7.10
-5.07
-22.88
-45.79
-73.13
-103.49
-134.11
-160.81
-178.99
-185.19
-178.55
-161.24
-137.55
-112.16
-88.49
-67.78
-49.32
-31.46
-12.74
7.30
27.96
47.64
64.41
76.53
82.80
82.59
75.99
63.88
48.06
30.93
14.81
0.77
-11.99
-26.04
-44.46
-69.03
-99.03
-131.11
-160.75
-184.14
-199.74
-208.46
-212.61
-214.46
-215.17
-214.66
-212.26
-207.43
-200.14
-190.75
-179.56
-166.49
-150.89
-131.77
-108.28
-80.28
-48.79
-16.07
14.78
40.64
59.39
70.63
75.85
77.83
79.58
83.33
89.82
98.43
107.72
116.31
123.44
129.12
133.64
136.98
138.46
136.83
131.04
121.00
108.00
94.43
82.72
74.26
68.79
64.70
60.05
53.69
45.89
38.07
31.96
28.70
28.33
30.01
32.66
35.59
38.84
43.00
48.74
56.33
65.38
74.76
82.90
88.17
89.46
86.59
80.44
72.75
65.68
61.09
59.93
61.87
65.41
68.31
68.46
64.56
56.63
45.91
34.32
23.73
15.40
9.80
6.79
6.01
7.12
9.84
13.79
18.36
22.75
26.09
27.67
26.91
23.36
16.68
6.71
-6.18
-20.79
-35.01
-46.26
-52.25
-51.88
-45.71
-35.81
-24.99
-15.84
-9.98
-7.80
-8.77
-11.96
-16.36
-21.11
-25.41
-28.53
-29.95
-29.53
-27.62
-24.86
-21.95
-19.41
-17.50
-16.34
-16.09
-17.15
-19.95
-24.64
-30.71
-36.89
-41.45
-42.75
-39.69
-32.08
-20.72
-7.18
6.50
18.38
26.76
30.52
29.27
23.66
15.23
5.96
-2.09
-7.43
-8.75
-5.55
1.83
12.36
24.60
36.96
47.61
55.06
58.22
57.78
55.11
51.53
47.79
44.04
40.06
34.91
28.13
19.40
10.65
4.08
1.26
2.57
7.68
16.09
26.46
38.07
49.80
62.82
78.11
95.70
114.48
133.25
151.80
169.96
189.05
194.60
176.94
135.48
79.37
19.99
-35.13
-78.03
-112.56
-141.46
-166.29
-185.48
-197.58
-201.97
-199.53
-192.23
-182.13
-171.73
-161.77
-152.45
-141.78
-127.92
-110.36
-90.58
-71.13
-54.39
-42.40
-35.05
-31.37
-28.96
-25.82
-21.26
-16.06
-11.62
-9.00
-8.83
-10.48
-13.10
-15.59
-17.50
-19.13
-21.23
-24.25
-27.85
-31.22
-33.09
-32.54
-29.33
-23.98
-17.57
-11.16
-5.41
-0.44
3.92
8.06
12.56
17.65
23.20
28.82
34.25
39.48
44.67
49.95
55.35
61.34
67.91
74.57
80.68
86.10
91.44
97.48
104.63
112.42
120.54
127.67
132.04
132.29
128.62
123.11
118.72
117.96
122.00
131.72
145.71
160.71
172.43
177.17
173.21
160.66
140.94
107.86
62.41
12.36
-31.83
-64.19
-85.13
-97.93
-105.71
-109.88
-109.99
-103.32
-90.51
-72.40
-52.27
-34.79
-23.57
-20.23
-24.32
-33.40
-43.29
-51.21
-57.02
-59.81
-60.84
-61.48
-62.87
-66.19
-71.71
-78.34
-85.12
-91.77
-99.09
-108.52
-120.81
-135.89
-153.68
-172.70
-190.29
-204.04
-212.66
-216.28
-216.10
-213.06
-207.58
-200.53
-191.28
-178.25
-160.12
-136.79
-109.67
-80.94
-52.25
-18.27
19.54
55.42
83.19
99.80
106.42
105.59
99.16
89.23
78.24
66.45
55.29
46.22
40.00
36.27
33.89
31.75
29.44
27.13
24.36
21.41
18.91
17.46
17.30
18.29
20.23
23.22
27.25
31.44
35.27
38.52
41.33
43.94
46.46
48.88
51.40
54.04
56.32
57.92
58.71
58.75
58.04
56.41
53.59
50.10
46.66
43.72
41.40
39.52
37.93
36.32
34.61
32.76
32.24
34.58
40.62
49.88
60.65
71.31
80.27
86.79
90.68
93.92
98.74
106.41
116.46
126.65
134.63
137.83
134.17
112.89
68.91
6.16
-62.75
-122.93
-162.99
-175.52
-161.09
-122.97
-67.94
-4.60
57.03
108.10
142.84
153.73
139.82
104.82
55.42
-2.17
-61.91
-119.06
-168.03
-201.60
-215.86
-211.82
-195.64
-174.39
-153.84
-136.42
-122.26
-110.43
-100.23
-91.38
-81.91
-70.88
-54.70
-31.55
-1.48
33.45
69.92
104.08
128.70
140.40
139.03
126.91
106.57
80.91
53.47
28.24
8.51
-4.61
-11.87
-16.24
-20.98
-28.49
-39.35
-52.24
-64.79
-74.73
-80.86
-82.28
-78.38
-67.94
-50.40
-26.43
1.88
31.41
59.01
82.25
100.54
109.88
108.87
98.21
79.82
56.14
29.86
3.99
-18.37
-36.33
-49.31
-56.83
-59.13
-57.50
-53.87
-50.45
-48.18
-48.16
-50.91
-55.98
-61.88
-66.17
-67.01
-63.76
-57.09
-48.41
-39.44
-31.63
-25.86
-22.25
-19.24
-15.57
-10.75
-5.21
0.44
5.89
11.42
17.82
26.09
38.81
57.19
80.80
107.80
135.92
163.08
187.17
205.54
206.77
183.20
134.68
70.34
3.10
-55.91
-98.90
-120.83
-119.12
-96.48
-53.84
4.31
69.36
130.29
176.86
202.29
204.74
187.09
149.63
98.78
41.98
-14.72
-67.79
-116.06
-160.06
-201.03
-239.93
-268.92
-278.94
-266.39
-235.89
-196.69
-156.65
-119.71
-86.55
-56.35
-28.48
-3.19
17.90
34.33
46.19
54.77
62.00
69.62
78.67
89.38
97.65
101.26
98.76
89.08
71.99
48.58
21.70
-4.19
-24.17
-34.97
-35.81
-28.96
-18.54
-8.40
-0.92
3.34
5.26
5.92
5.52
3.95
0.89
-3.60
-8.56
-12.37
-13.56
-11.57
-7.05
-1.48
3.44
6.58
7.96
8.86
11.08
16.27
24.45
34.07
42.52
47.22
46.33
39.42
27.72
13.72
0.33
-10.09
-16.26
-18.38
-18.00
-17.18
-18.62
-24.60
-35.82
-50.63
-65.37
-75.59
-77.88
-71.27
-57.46
-40.02
-22.60
-7.69
3.86
12.20
17.60
19.97
19.02
14.88
8.54
1.92
-2.77
-3.95
-1.31
4.10
10.30
15.24
17.53
16.76
13.49
8.85
4.04
-0.09
-3.11
-4.90
-5.39
-4.49
-2.11
1.70
6.63
11.94
16.58
19.42
19.62
16.90
11.75
5.39
-0.38
-3.67
-3.00
2.06
10.56
20.13
27.55
29.56
23.77
9.43
-12.22
-38.13
-63.96
-85.11
-97.84
-100.23
-92.71
-77.71
-58.82
-39.44
-21.82
-6.73
6.06
16.98
26.01
32.68
36.57
37.88
37.55
36.86
36.60
36.56
35.55
32.11
25.48
16.27
6.38
-1.62
-5.60
-4.70
0.46
8.12
16.16
22.87
27.49
30.21
31.80
33.08
34.42
35.59
35.76
33.90
29.14
21.28
10.91
-0.53
-11.05
-18.56
-21.25
-18.01
-8.83
5.13
21.65
38.02
51.66
60.66
64.16
62.50
56.94
49.13
40.68
32.78
26.35
21.80
18.93
17.02
15.19
12.72
9.25
4.86
-0.08
-4.38
-6.58
-5.51
-0.73
7.41
17.31
26.09
30.10
25.90
12.58
-7.98
-31.66
-53.44
-68.64
-74.43
-70.44
-58.44
-41.68
-22.37
-1.85
18.92
36.18
45.55
44.71
35.02
23.42
11.85
1.15
-8.12
-16.63
-24.36
-30.84
-35.51
-37.98
-38.37
-37.71
-36.47
-35.07
-34.07
-33.92
-34.69
-35.95
-37.00
-37.09
-35.97
-33.02
-27.97
-21.15
-13.39
-5.73
0.90
5.79
8.45
8.42
5.98
1.74
-3.56
-9.23
-14.71
-19.75
-24.36
-28.75
-33.08
-37.01
-39.77
-40.46
-38.37
-33.34
-25.80
-16.82
-7.69
0.32
6.44
10.43
12.53
13.26
13.15
12.57
11.58
10.08
7.98
5.38
2.66
0.41
-0.62
0.20
3.19
8.17
14.55
21.57
28.29
33.74
37.17
38.23
37.20
34.80
31.99
29.69
28.77
29.43
30.91
31.83
30.79
27.30
22.14
17.29
15.36
19.01
29.33
44.89
62.05
76.31
84.15
84.17
77.33
66.52
55.89
49.04
47.36
49.83
53.46
54.49
49.28
34.96
7.41
-32.40
-76.97
-115.75
-140.98
-151.37
-150.72
-145.18
-140.85
-141.06
-144.87
-147.19
-143.20
-127.11
-96.66
-53.98
-5.15
41.38
78.81
100.86
107.02
102.55
94.94
89.65
88.38
91.50
93.97
91.60
82.30
66.84
47.83
29.12
14.64
6.88
5.98
9.07
12.34
12.49
8.01
-0.72
-11.81
-22.54
-30.20
-32.54
-28.84
-19.60
-6.88
6.21
16.43
22.39
26.01
30.93
40.27
53.16
64.56
67.43
56.57
30.90
-5.83
-46.85
-85.39
-114.10
-129.15
-132.82
-131.15
-128.76
-126.79
-126.87
-124.07
-114.67
-97.41
-74.00
-48.03
-23.35
-0.65
18.37
32.80
43.41
50.85
55.48
56.94
54.76
49.52
43.25
38.33
36.99
40.61
48.35
57.91
66.37
71.36
72.08
69.32
64.49
59.35
55.61
54.00
54.62
57.04
60.68
64.90
68.98
71.75
71.86
68.21
60.07
47.64
32.10
15.36
-0.45
-13.61
-23.31
-29.56
-32.97
-34.48
-34.97
-35.06
-35.01
-34.78
-34.18
-33.02
-31.19
-28.72
-25.81
-22.81
-20.17
-18.29
-17.37
-17.29
-17.60
-17.63
-16.80
-14.91
-12.28
-9.69
-7.91
-7.42
-8.10
-9.41
-10.77
-11.89
-13.00
-14.71
-17.66
-22.18
-28.08
-34.61
-40.67
-45.12
-47.12
-46.47
-43.85
-40.94
-40.18
-44.12
-54.37
-70.54
-89.90
-107.87
-119.52
-121.36
-112.54
-95.06
-72.65
-49.18
-27.36
-8.29
7.97
21.49
31.91
38.48
40.77
39.20
35.22
30.77
27.42
25.64
24.57
22.42
17.40
8.68
-3.07
-15.63
-25.97
-31.26
-29.80
-21.51
-7.68
9.64
28.50
47.42
65.42
81.67
95.17
104.77
109.61
109.52
105.33
98.56
90.76
82.86
74.83
65.52
53.29
36.88
16.20
-7.38
-31.17
-51.91
-66.66
-73.65
-73.02
-66.78
-57.99
-49.63
-43.61
-40.33
-38.84
-37.37
-33.99
-27.75
-18.82
-8.20
2.88
13.32
21.88
27.55
29.76
29.22
26.67
23.21
20.09
18.82
20.56
24.76
29.84
34.04
37.65
40.73
43.73
46.96
50.97
55.77
59.22
58.52
51.79
41.16
28.65
16.56
6.44
-0.22
-2.87
-3.90
-6.97
-15.30
-27.97
-45.38
-67.81
-95.87
-128.71
-153.67
-159.21
-141.36
-122.97
-113.55
-117.92
-130.53
-148.22
-166.36
-179.20
-183.09
-176.67
-161.07
-136.81
-108.36
-79.83
-53.98
-30.12
-5.73
20.32
47.65
75.01
104.79
133.64
156.69
170.23
174.05
169.55
157.25
137.52
111.92
85.80
61.55
42.00
28.82
22.22
20.71
21.44
21.63
19.56
15.64
9.92
3.36
-2.54
-6.69
-8.85
-9.43
-9.85
-10.12
-9.75
-8.82
-6.49
-2.40
3.32
10.11
17.21
24.03
30.47
36.54
42.20
47.51
52.09
55.05
55.32
52.06
45.34
36.25
26.22
16.65
8.52
2.08
-2.88
-6.70
-9.78
-12.15
-13.77
-14.81
-15.63
-16.73
-18.70
-21.66
-25.76
-31.55
-39.32
-48.60
-59.33
-70.18
-79.37
-85.18
-86.47
-80.79
-67.67
-47.83
-23.10
3.87
30.04
52.23
67.75
75.12
74.50
67.41
56.65
45.27
35.57
28.70
24.55
22.41
21.63
22.01
23.57
26.50
30.71
35.51
39.82
42.38
42.27
39.34
34.38
28.81
24.38
22.47
23.56
26.97
30.95
33.22
31.68
24.99
12.88
-3.65
-22.67
-41.72
-58.33
-70.59
-77.61
-79.68
-78.16
-75.12
-72.70
-72.60
-75.53
-80.96
-87.26
-92.19
-93.49
-89.58
-79.99
-65.62
-48.37
-30.65
-14.33
-0.66
9.92
17.51
22.66
26.10
28.44
30.23
31.72
33.40
35.38
37.23
38.20
37.71
35.81
32.90
29.84
27.26
26.22
27.16
29.72
32.90
35.79
38.02
39.51
40.98
43.36
48.59
58.05
71.74
88.07
104.70
119.58
131.10
139.21
137.72
123.74
99.38
70.70
43.28
19.50
1.10
-14.68
-29.17
-42.56
-53.51
-61.19
