1593711228.00
64.000000
-0.00
-0.00
-0.00
-0.00
-0.00
-0.00
-0.00
-0.00
-0.00
-0.00
0.00
0.01
0.01
-0.00
-0.03
-0.05
-0.05
0.00
0.13
0.36
0.66
1.01
1.37
1.72
2.06
2.40
2.79
3.24
3.80
4.42
5.06
5.66
6.20
6.68
7.15
7.68
8.31
9.14
10.09
11.04
11.88
12.56
13.14
13.76
14.65
15.96
17.91
20.32
22.90
25.38
27.58
29.57
31.68
34.32
37.81
42.54
48.15
54.10
59.83
64.97
69.58
74.14
79.34
85.71
93.76
103.00
112.62
121.73
129.77
136.75
143.30
150.75
157.77
166.64
177.95
191.79
206.97
220.57
228.25
225.36
208.54
176.87
132.76
80.04
23.06
-34.94
-92.41
-149.11
-205.17
-260.34
-313.80
-364.08
-410.20
-451.44
-487.14
-516.41
-537.87
-549.79
-550.48
-538.89
-514.79
-479.38
-434.71
-383.37
-327.96
-270.73
-213.46
-157.49
-103.92
-53.62
-7.53
33.60
69.23
99.15
123.46
142.50
156.79
166.84
173.27
176.62
177.46
176.33
173.65
169.71
164.57
158.19
150.55
141.79
132.32
122.74
113.67
105.54
98.32
91.57
84.62
76.86
68.10
58.66
49.32
40.90
33.98
28.66
24.52
20.84
16.77
11.46
4.22
-5.05
-15.31
-24.10
-27.92
-23.47
-9.29
13.10
39.27
63.29
79.86
86.09
82.16
70.66
55.23
39.24
25.10
14.17
6.91
3.15
2.18
2.92
4.37
5.89
7.39
8.97
10.57
11.72
11.80
10.56
8.56
7.02
7.05
9.04
12.45
16.04
18.56
19.15
17.48
13.61
7.89
1.08
-5.29
-9.14
-8.54
-2.89
6.15
14.75
18.37
13.93
1.53
-15.18
-30.30
-37.90
-34.32
-19.60
2.55
26.00
44.13
51.92
47.43
32.68
12.97
-4.86
-15.25
-16.17
-9.89
-1.59
3.30
1.65
-6.17
-16.98
-26.61
-31.70
-30.59
-23.30
-10.96
4.80
22.11
38.71
52.15
60.21
61.36
55.41
43.71
29.02
14.94
4.89
1.09
3.56
10.11
16.93
19.76
15.38
2.70
-16.62
-38.44
-57.42
-68.88
-70.36
-62.41
-48.02
-31.11
-15.08
-1.97
7.23
11.95
11.75
6.54
-2.72
-13.80
-23.80
-30.29
-32.10
-29.67
-24.33
-17.55
-10.42
-3.75
1.73
5.51
7.34
7.47
6.43
4.62
2.21
-0.79
-4.11
-7.07
-8.68
-8.24
-5.71
-1.97
1.71
4.34
5.81
6.85
8.47
11.11
14.26
16.91
18.12
17.76
16.55
15.32
14.34
12.98
10.07
4.62
-2.23
-8.00
-10.29
-8.41
-3.83
0.79
3.44
4.06
4.35
6.42
11.02
16.81
21.09
21.33
16.23
6.95
-4.43
-16.12
-26.91
-35.91
-41.89
-43.32
-39.90
-32.06
-21.92
-12.55
-6.33
-3.73
-3.41
-3.31
-2.06
0.33
2.94
4.82
5.70
6.21
7.34
9.77
13.49
17.96
22.56
27.02
30.83
33.42
34.08
32.06
26.84
18.49
7.68
-4.44
-16.51
-27.21
-35.29
-39.71
-39.70
-35.23
-27.29
-17.89
-9.54
-4.28
-2.85
-4.29
-6.47
-7.26
-5.63
-2.13
1.55
3.73
3.71
2.12
0.49
0.27
2.02
5.14
8.28
10.07
9.82
7.72
4.71
1.90
0.15
-0.13
0.99
3.11
5.49
7.21
7.45
5.86
2.77
-0.82
-3.67
-4.89
-4.43
-3.18
-2.61
-4.18
-8.75
-16.30
-26.00
-36.60
-46.76
-55.36
-61.57
-64.80
-64.73
-61.29
-54.78
-46.02
-36.42
-27.78
-21.63
-18.43
-17.30
-16.39
-13.86
-8.93
-2.47
3.40
6.30
4.79
-0.92
-9.14
-17.42
-23.39
-25.47
-22.98
-16.23
-6.31
5.15
16.41
25.95
32.90
37.18
39.40
40.47
40.99
41.10
40.48
39.15
37.48
36.14
35.70
36.40
37.98
39.54
40.10
38.74
35.98
33.20
31.91
32.92
36.05
40.29
43.79
45.21
43.41
38.89
32.01
22.17
7.97
-10.91
-31.77
-49.62
-58.08
-53.50
-34.93
-5.17
30.92
68.85
106.30
143.34
180.01
216.07
237.78
233.15
199.34
145.84
87.77
37.05
3.71
-15.28
-24.09
-27.52
-28.54
-29.08
-31.22
-36.09
-44.29
-55.71
-70.58
-86.53
-101.06
-110.72
-112.73
-106.21
-92.96
-77.35
-64.20
-57.30
-56.86
-61.10
-66.56
-70.28
-72.43
-73.11
-72.98
-71.89
-68.92
-62.40
-52.19
-39.70
-27.61
-18.69
-14.22
-13.80
-15.47
-17.11
-16.64
-14.07
-10.87
-8.82
-8.84
-10.29
-11.93
-12.86
-13.38
-14.88
-19.27
-27.49
-38.67
-50.14
-58.52
-61.36
-58.17
-50.46
-40.86
-31.93
-25.00
-19.90
-15.51
-10.65
-4.93
1.14
6.69
11.15
14.74
18.44
23.43
30.33
38.69
47.10
53.87
57.90
59.24
58.87
58.08
57.71
57.73
57.43
55.91
52.64
47.68
41.44
34.40
26.86
19.07
11.39
4.48
-0.92
-4.35
-5.94
-6.46
-6.84
-7.97
-10.04
-12.62
-15.01
-16.66
-17.45
-17.69
-17.79
-17.94
-18.22
-18.46
-18.61
-18.90
-19.90
-22.31
-26.63
-32.91
-40.45
-48.56
-56.19
-62.48
-67.08
-70.26
-72.66
-75.08
-78.06
-81.18
-84.81
-88.05
-89.39
-86.77
-78.10
-61.95
-38.55
-10.18
20.38
47.24
66.89
77.93
81.43
80.20
77.36
74.83
72.41
69.96
62.31
47.19
24.41
-3.27
-30.20
-48.97
-52.79
-37.99
-3.13
43.06
91.97
134.84
165.27
180.42
181.08
170.37
136.45
104.55
75.67
53.72
41.52
39.92
47.10
59.21
71.15
78.07
79.47
71.82
57.29
39.38
21.57
6.44
-3.90
-8.83
-9.24
-5.08
-1.19
1.04
0.93
-1.60
-5.92
-9.61
-10.42
-7.35
0.37
9.10
17.73
25.42
31.49
35.99
41.11
49.02
60.66
76.14
92.26
107.89
121.78
132.37
127.92
102.52
59.55
10.36
-26.29
-49.65
-62.22
-66.71
-66.58
-63.06
-55.77
-45.32
-36.23
-33.37
-40.21
-54.38
-71.27
-87.06
-99.68
-108.10
-112.75
-114.68
-114.58
-113.19
-109.36
-102.34
-94.42
-87.20
-81.96
-79.39
-78.70
-77.65
-74.22
-66.56
-54.92
-41.83
-30.47
-22.42
-18.75
-18.11
-17.48
-14.84
-9.98
-4.52
-0.62
0.72
0.07
-0.77
-0.00
3.56
9.49
16.26
21.91
25.11
25.92
25.45
25.23
26.53
29.66
33.68
37.06
38.53
37.75
35.56
33.47
33.05
35.24
39.89
45.63
50.62
53.44
53.91
53.12
52.81
54.44
58.37
63.62
68.49
71.61
72.66
72.14
70.57
67.67
62.27
52.85
38.38
18.59
-6.27
-35.98
-70.71
-110.58
-154.85
-201.12
-245.14
-281.51
-304.99
-312.08
-302.02
-277.07
-241.74
-201.45
-160.99
-123.66
-90.98
-63.42
-41.52
-26.36
-19.32
-20.89
-29.51
-41.18
-50.54
-52.85
-45.90
-31.01
-12.20
5.53
18.52
25.94
30.06
34.77
43.66
58.33
77.99
100.45
122.98
143.41
160.60
174.29
184.50
191.02
193.46
191.60
186.12
177.98
168.27
158.31
149.70
143.91
141.78
143.13
146.60
150.56
152.55
150.30
142.95
131.51
118.08
104.48
91.22
77.72
63.78
48.82
32.44
14.64
-4.52
-25.46
-49.17
-75.96
-108.39
-140.56
-162.46
-167.55
-157.92
-141.81
-127.84
-120.36
-119.23
-121.77
-124.06
-124.07
-121.19
-115.51
-107.00
-94.88
-78.45
-58.06
-35.60
-13.26
6.60
23.82
39.63
55.07
69.57
80.71
85.31
81.26
69.51
53.75
40.80
36.91
44.92
63.31
87.65
112.69
134.06
149.38
148.75
127.74
91.06
49.15
10.20
-22.73
-49.32
-69.65
-83.72
-92.03
-94.42
-91.34
-84.14
-74.74
-65.04
-57.03
-53.06
-55.16
-63.43
-74.34
-82.43
-83.31
-75.94
-62.87
-48.86
-38.65
-35.09
-36.78
-39.57
-39.08
-33.18
-22.97
-11.65
-2.54
2.71
4.70
5.81
8.61
13.87
19.73
22.68
19.82
10.79
-1.85
-13.95
-21.90
-24.50
-23.36
-21.85
-23.05
-27.97
-35.02
-40.73
-41.89
-37.20
-27.99
-17.57
-9.63
-6.87
-10.24
-19.04
-31.12
-43.30
-51.50
-51.59
-40.68
-18.58
11.41
43.23
70.22
87.63
94.25
92.24
85.47
77.42
69.91
63.08
56.32
49.31
42.35
36.11
31.07
27.14
23.84
20.48
16.57
11.96
6.97
2.15
-1.92
-4.92
-6.92
-8.37
-9.85
-11.75
-14.03
-16.25
-17.79
-18.29
-17.85
-17.09
-16.84
-17.58
-19.13
-20.53
-20.51
-18.11
-13.24
-6.79
-0.23
4.97
7.94
8.63
7.66
5.94
4.24
3.05
2.55
2.73
3.48
4.64
5.99
7.24
8.13
8.46
8.08
6.92
5.06
2.67
0.01
-2.59
-4.89
-6.76
-8.24
-9.43
-10.41
-11.14
-11.51
-11.40
-10.87
-10.18
-9.76
-10.02
-11.19
-13.17
-15.60
-18.00
-19.95
-21.26
-21.98
-22.29
-22.40
-22.45
-22.44
-22.28
-21.87
-21.08
-19.81
-18.02
-15.73
-13.10
-10.40
-8.00
-6.25
-5.34
-5.29
-5.86
-6.77
-7.68
-8.32
-8.38
-7.59
-5.73
-2.79
0.96
4.88
8.25
10.49
11.43
11.34
10.80
10.32
10.19
10.43
10.94
11.69
12.82
14.49
16.74
19.27
21.59
23.19
23.97
24.33
25.04
26.81
29.84
33.66
37.29
39.62
39.83
37.64
33.28
27.36
20.59
13.73
7.46
2.36
-1.21
-3.19
-3.84
-3.61
-3.02
-2.58
-2.69
-3.61
-5.38
-7.81
-10.49
-12.95
-14.93
-16.41
-17.54
-18.43
-18.89
-18.55
-17.07
-14.46
-11.26
-8.30
-6.20
-4.96
-3.91
-2.10
1.02
5.21
9.48
12.64
13.94
13.56
12.41
11.57
11.65
12.41
12.83
11.75
8.44
3.06
-3.45
-9.79
-14.87
-18.17
-19.82
-20.33
-20.33
-20.35
-20.70
-21.47
-22.52
-23.54
-24.10
-23.74
-22.21
-19.56
-16.23
-12.79
-9.73
-7.25
-5.23
-3.46
-1.81
-0.32
0.87
1.73
2.40
3.19
4.31
5.75
7.16
7.99
7.74
6.22
3.65
0.54
-2.50
-5.00
-6.76
-7.83
-8.46
-8.97
-9.58
-10.44
-11.51
-12.64
-13.59
-14.11
-14.06
-13.37
-12.06
-10.17
-7.70
-4.69
-1.17
2.71
6.77
10.82
14.70
18.36
21.76
24.93
27.88
30.59
33.08
35.37
37.46
39.31
40.81
41.77
41.99
41.29
39.62
37.05
33.76
30.01
26.01
21.95
18.00
14.39
11.47
9.62
9.09
9.81
11.29
12.70
13.17
12.15
9.66
6.26
2.79
-0.03
-1.83
-2.71
-3.13
-3.56
-4.31
-5.41
-6.58
-7.49
-7.85
-7.56
-6.71
-5.50
-4.11
-2.59
-0.83
1.36
4.16
7.55
11.34
15.11
18.39
20.74
21.94
21.96
21.02
19.48
17.80
16.41
15.68
15.78
16.66
18.04
19.48
20.54
20.93
20.59
19.67
18.43
17.14
16.01
15.16
14.69
14.64
15.00
15.62
16.23
16.49
16.20
15.34
14.25
13.42
13.32
14.25
16.19
18.85
21.82
24.69
27.14
28.95
29.99
30.20
29.59
28.26
26.31
23.85
20.89
17.34
13.12
8.17
2.61
-3.30
-9.21
-14.72
-19.47
-23.21
-25.89
-27.65
-28.87
-30.04
-31.57
-33.63
-36.12
-38.67
-40.86
-42.45
-43.48
-44.23
-45.09
-46.25
-47.68
-49.08
-50.15
-50.77
-51.08
-51.38
-51.98
-52.93
-54.02
-54.88
-55.12
-54.56
-53.28
-51.53
-49.70
-48.23
-47.58
-48.13
-49.96
-52.60
-54.87
-55.20
-52.17
-45.25
-35.15
-23.67
-13.02
-4.86
0.28
3.07
4.89
6.99
9.99
13.75
17.79
21.75
25.82
30.63
36.80
44.50
53.20
61.84
69.35
75.19
79.30
81.77
82.21
79.74
73.56
63.96
52.97
43.83
39.57
41.17
46.72
52.28
53.89
49.70
40.64
29.28
17.88
6.96
-4.50
-17.43
-30.90
-41.73
-46.00
-41.46
-29.13
-13.10
1.61
11.46
15.93
17.22
18.25
20.50
22.82
22.15
15.50
1.95
-16.38
-34.98
-48.75
-54.23
-51.02
-41.76
-30.85
-22.20
-17.75
-17.15
-18.56
-19.93
-19.93
-18.32
-15.60
-12.55
-9.45
-6.23
-2.92
0.19
2.77
4.58
5.28
4.20
0.11
-7.56
-18.55
-31.74
-45.09
-55.63
-59.95
-55.48
-42.01
-22.39
-1.03
16.09
22.20
11.14
-19.57
-66.54
-120.70
-169.69
-201.33
-205.59
-178.32
-122.95
-48.95
32.42
111.87
183.57
243.62
278.19
274.16
228.84
154.02
68.77
-9.99
-71.35
-109.92
-125.13
-119.77
-96.93
-60.55
-16.27
28.80
68.08
97.44
116.04
124.71
123.85
114.06
95.73
69.35
36.54
2.17
-29.17
-51.84
-62.08
-59.51
-46.13
-26.13
-4.70
13.13
23.81
26.06
21.19
11.74
0.48
-9.95
-18.24
-24.34
-29.51
-35.40
-42.77
-50.81
-58.02
-63.17
-64.72
-63.07
-59.89
-57.18
-56.32
-57.65
-60.51
-64.00
-67.04
-67.84
-63.69
-51.31
-28.79
2.31
36.25
64.89
81.24
82.92
73.32
59.48
48.32
43.12
42.57
42.71
40.19
34.59
28.43
25.12
26.58
32.23
39.71
46.60
51.88
56.24
61.35
68.88
79.56
92.97
107.76
122.10
134.11
142.18
145.22
142.78
135.19
123.48
109.13
93.89
79.45
67.26
58.13
51.86
47.02
41.13
31.34
15.32
-8.00
-38.13
-73.22
-110.54
-146.90
-179.06
-204.03
-219.60
-224.76
-220.11
-207.73
-190.59
-171.69
-153.29
-136.58
-121.87
-108.97
-97.62
-87.55
-78.55
-70.46
-63.05
-56.01
-48.99
-41.66
-33.91
-25.95
-18.30
-11.59
-6.23
-2.26
0.68
3.06
5.07
6.57
7.20
6.69
5.21
3.30
1.69
0.90
1.00
1.63
2.33
2.82
3.19
3.81
5.06
7.11
9.84
12.91
15.97
18.80
21.32
23.58
25.59
27.36
28.82
29.85
30.36
30.25
29.40
27.78
25.43
22.53
19.33
16.09
12.97
9.99
7.08
4.25
1.58
-0.73
-2.53
-3.79
-4.73
-5.70
-7.01
-8.74
-10.70
-12.47
-13.63
-13.95
-13.49
-12.52
-11.41
-10.40
-9.53
-8.67
-7.65
-6.30
-4.61
-2.62
-0.41
2.02
4.72
7.75
11.11
14.64
18.06
21.04
23.26
24.51
24.76
24.14
22.90
21.42
20.01
18.86
17.85
16.55
14.43
11.09
6.63
1.62
-3.08
-6.72
-9.05
-10.31
-11.06
-11.71
-12.27
-12.28
-11.17
-8.56
-4.58
0.18
4.97
9.21
12.74
15.80
18.77
21.89
25.05
27.75
29.39
29.53
28.11
25.47
22.14
18.59
15.09
11.64
8.13
4.53
0.91
-2.50
-5.51
-8.06
-10.26
-12.40
-14.74
-17.41
-20.29
-23.06
-25.26
-26.57
-26.85
-26.21
-24.84
-22.91
-20.44
-17.35
-13.67
-9.57
-5.42
-1.56
1.80
4.75
7.59
10.70
14.32
18.45
22.86
27.17
30.99
33.98
35.84
36.25
34.83
31.30
25.63
18.29
10.23
2.67
-3.29
-7.07
-8.79
-9.13
-8.94
-8.88
-9.13
-9.49
-9.55
-9.01
-7.80
-5.98
-3.73
-1.12
1.85
5.27
9.23
13.75
18.75
23.94
28.90
33.13
36.14
37.64
37.59
36.20
33.77
30.58
26.76
22.37
17.46
12.15
6.69
1.33
-3.75
-8.51
-13.00
-17.27
-21.29
-24.94
-28.03
-30.40
-32.00
-32.84
-33.02
-32.70
-32.00
-30.97
-29.55
-27.59
-24.87
-21.22
-16.54
-10.94
-4.66
1.92
8.42
14.48
19.77
24.08
27.25
29.19
29.92
29.45
27.83
25.05
21.04
15.70
9.02
1.21
-7.25
-15.60
-23.03
-28.87
-32.79
-34.84
-35.35
-34.74
-33.37
-31.44
-29.00
-26.06
-22.65
-18.90
-15.03
-11.21
-7.50
-3.72
0.45
5.32
10.87
16.62
21.67
25.09
26.43
26.00
24.77
23.93
24.25
25.67
27.31
27.99
26.76
23.38
18.35
12.61
7.16
2.68
-0.52
-2.49
-3.41
-3.62
-3.48
-3.37
-3.60
-4.25
-5.08
-5.60
-5.26
-3.72
-1.04
2.28
5.48
7.78
8.71
8.21
6.66
4.74
3.22
2.69
3.33
4.73
5.97
5.95
3.85
-0.38
-5.80
-10.80
-13.81
-14.09
-12.19
-9.75
-8.70
-10.26
-14.29
-19.40
-23.67
-25.68
-25.13
-22.86
-20.34
-18.93
-19.34
-21.51
-24.83
-28.64
-32.41
-35.82
-38.56
-40.23
-40.36
-38.57
-34.75
-29.20
-22.57
-15.77
-9.68
-4.89
-1.52
0.78
2.64
4.57
6.70
8.60
9.49
8.58
5.42
0.18
-6.50
-13.77
-20.85
-27.21
-32.55
-36.64
-39.19
-39.91
-38.55
-35.02
-29.44
-22.08
-13.32
-3.51
7.03
17.99
28.97
39.43
48.71
56.18
61.45
64.53
65.74
65.46
63.80
60.48
55.09
47.48
38.25
28.76
20.73
15.63
14.06
15.60
19.02
22.82
25.73
27.01
26.44
24.18
20.56
15.94
10.64
4.96
-0.75
-6.07
-10.52
-13.72
-15.49
-16.03
-15.88
-15.78
-16.36
-17.85
-20.04
-22.39
-24.33
-25.55
-26.07
-26.19
-26.28
-26.57
-27.04
-27.43
-27.41
-26.72
-25.31
-23.25
-20.76
-18.07
-15.38
-12.83
-10.51
-8.50
-6.82
-5.43
-4.19
-2.83
-0.93
1.95
6.14
11.69
18.26
25.23
31.86
37.54
41.96
45.08
47.07
48.09
48.22
47.51
46.04
43.93
41.30
38.14
34.27
29.46
23.63
17.02
10.09
3.43
-2.53
-7.63
-11.89
-15.47
-18.46
-20.85
-22.50
-23.19
-22.69
-20.87
-17.79
-13.80
-9.47
-5.41
-1.98
0.94
4.10
8.62
15.68
25.98
39.43
55.07
71.34
86.58
99.50
109.64
117.30
123.22
127.95
131.34
132.44
129.95
122.94
111.62
97.49
82.86
69.83
59.29
50.67
42.35
32.73
21.12
7.96
-5.54
-18.01
-28.17
-34.88
-37.20
-34.90
-29.38
-24.20
-24.83
-36.85
-63.46
-103.50
-151.17
-197.95
-235.91
-260.54
-271.81
-273.01
-268.23
-259.92
-247.80
-229.49
-202.04
-163.78
-115.43
-60.04
-2.18
53.29
102.07
140.74
166.90
179.38
178.64
167.09
148.90
128.86
110.67
95.53
81.62
65.51
44.23
17.12
-13.49
-43.21
-67.41
-83.02
-89.09
-86.49
-76.63
-60.94
-41.13
-19.67
0.31
15.77
24.94
28.31
27.99
27.06
27.66
29.51
29.63
23.90
9.32
-14.05
-42.33
-69.43
-88.60
-95.10
-87.98
-69.99
-46.00
-20.71
2.72
25.04
44.54
58.32
63.99
61.30
52.58
41.99
34.10
31.22
33.88
39.95
46.27
49.84
48.49
41.13
27.50
8.68
-13.47
-35.87
-55.09
-67.55
-70.89
-65.19
-53.13
-38.97
-26.77
-18.94
-15.62
-15.79
-18.17
-22.13
-27.82
-35.38
-44.07
-51.96
-56.50
-55.77
-49.70
-40.15
-29.83
-20.94
-14.04
-7.98
-0.88
8.66
20.52
32.88
43.17
49.49
51.68
51.39
51.18
51.81
53.06
54.22
54.97
55.46
55.55
54.37
50.39
42.18
29.52
14.45
0.83
-6.78
-5.39
4.90
20.84
37.28
49.79
55.88
55.51
50.51
43.83
37.85
33.64
30.87
28.40
24.65
19.01
11.64
3.06
-5.48
-12.87
-18.26
-20.91
-20.35
-16.64
-10.78
-4.84
-2.30
-5.02
-13.88
-28.05
-44.91
-60.88
-72.68
-78.43
-75.84
-67.57
-56.95
-46.73
-38.58
-32.97
-29.59
-27.61
-26.08
-24.21
-21.99
-19.51
-17.29
-16.13
-16.54
-18.36
-20.76
-22.55
-22.67
-21.10
-18.20
-15.04
-13.37
-14.95
-20.85
-30.43
-40.73
-46.97
-44.22
-29.64
-3.17
30.92
65.42
92.62
106.78
105.74
91.11
67.38
40.62
16.94
0.84
-5.83
-4.40
1.18
6.08
6.84
2.89
-3.42
-8.80
-11.29
-11.22
-10.34
-9.82
-8.93
-5.40
2.84
15.64
30.18
42.34
49.17
50.54
48.80
46.59
44.58
41.06
33.38
20.30
3.39
-13.32
-25.44
-30.44
-28.36
-22.47
-17.59
-17.78
-24.70
-37.34
-52.63
-66.74
-76.17
-78.59
-73.47
-62.23
-48.10
-35.40
-28.13
-28.40
-35.55
-46.31
-55.98
-60.07
-55.68
-42.32
-22.05
1.12
22.42
37.85
45.48
45.97
42.03
36.99
33.27
31.35
30.06
27.68
23.46
18.19
13.76
11.70
12.16
13.58
13.53
10.02
2.51
-7.78
-18.48
-27.18
-32.44
-34.18
-33.38
-31.36
-28.90
-25.93
-21.65
-15.39
-7.36
1.03
7.67
10.81
10.07
6.79
3.48
2.65
5.46
11.13
17.41
21.70
22.50
20.08
16.26
13.24
12.39
13.54
15.32
16.02
14.49
10.46
4.39
-3.08
-11.30
-19.49
-26.54
-31.05
-31.96
-29.13
-23.67
-17.46
-12.26
-8.96
-7.26
-6.07
-4.26
-1.16
3.16
8.14
13.07
17.28
20.38
22.29
23.40
24.34
25.76
27.87
30.27
32.04
32.26
30.66
27.77
24.75
22.69
22.06
22.44
22.78
22.02
19.62
15.82
11.49
7.67
5.02
3.63
2.97
2.31
0.92
-1.57
-5.07
-8.98
-12.33
-14.19
-14.17
-12.82
-11.46
-11.60
-13.93
-17.56
-20.23
-19.19
-12.65
-0.73
14.39
29.30
40.63
46.25
45.77
40.40
32.18
23.17
14.64
6.80
-0.88
-8.86
-16.66
-22.64
-24.80
-22.19
-16.05
-9.60
-6.48
-8.57
-14.73
-21.33
-24.46
-22.25
-16.02
-9.29
-5.51
-5.90
-8.83
-11.05
-9.80
-4.54
2.94
9.72
13.53
13.95
12.41
11.14
11.81
14.69
18.68
22.06
23.50
22.59
19.92
16.49
13.20
10.49
8.41
6.83
5.62
4.70
3.93
3.13
2.13
0.96
-0.08
-0.64
-0.56
-0.06
0.28
-0.16
-1.59
-3.73
-5.90
-7.48
-8.31
-8.76
-9.44
-10.71
-12.29
-13.32
-12.80
-10.20
-5.88
-1.09
2.60
4.07
3.23
1.09
-0.79
-1.15
0.30
2.71
4.57
4.55
2.02
-2.79
-8.91
-14.75
-18.20
-16.76
-8.26
7.91
29.81
52.82
70.99
79.39
76.26
63.70
46.44
29.50
16.02
6.58
0.02
-4.91
-8.49
-10.00
-8.69
-4.66
0.90
6.30
10.26
12.48
13.63
14.82
16.92
20.11
23.75
26.58
27.10
24.17
17.57
8.31
-1.53
-9.51
-13.79
-13.91
-10.94
-6.78
-3.19
-0.83
0.94
3.67
9.02
17.92
30.12
44.10
57.50
67.83
73.25
73.31
69.18
63.16
57.78
54.62
53.59
53.05
50.64
44.49
33.95
19.81
3.82
-12.04
-26.10
-37.30
-45.25
-50.10
-52.41
-52.87
-52.15
-50.65
-48.52
-45.78
-42.54
-39.22
-36.45
-34.74
-34.14
-34.03
-33.36
-31.12
-26.96
-21.47
-15.99
-12.06
-10.65
-11.78
-14.50
-17.39
-19.30
-19.75
-19.05
-17.94
-17.09
-16.81
-16.96
-17.22
-17.33
-17.28
-17.08
-16.65
-15.70
-13.84
-10.88
-7.04
-2.98
0.49
2.73
3.53
3.12
1.95
0.51
-0.85
-1.90
-2.46
-2.43
-1.81
-0.73
0.53
1.68
2.47
2.77
2.46
1.49
-0.11
-2.12
-4.06
-5.27
-5.27
-4.10
-2.55
-1.86
-3.18
-6.86
-12.11
-17.20
-20.19
-19.94
-16.65
-11.78
-7.29
-4.68
-4.31
-5.42
-6.68
-7.03
-6.20
-4.85
-4.10
-5.08
-8.52
-14.44
-22.01
-29.58
-34.95
-35.99
-31.45
-21.60
-8.40
5.26
16.56
23.92
27.29
27.85
27.13
26.12
25.08
23.85
22.56
21.90
22.91
26.32
31.80
37.94
42.75
44.67
43.19
39.05
33.66
28.38
24.06
20.91
18.65
16.99
15.66
14.45
13.20
11.80
10.41
9.58
9.93
11.67
14.39
17.12
18.64
18.06
14.99
9.80
3.48
-2.79
-8.25
-12.57
-15.81
-18.33
-20.29
-21.78
-22.40
-21.27
-17.84
-12.70
-6.97
-1.51
3.69
9.69
16.99
25.31
33.28
38.47
38.05
31.06
19.59
8.02
1.62
3.02
12.09
26.50
42.21
54.00
57.78
51.76
36.15
12.93
-17.17
-53.56
-92.88
-126.02
-144.85
-147.31
-136.29
-121.42
-103.38
-83.28
-63.15
-45.01
-28.26
-14.59
-5.21
0.13
2.75
5.11
8.22
12.56
18.26
24.78
30.24
33.08
33.12
31.48
30.61
31.84
35.82
42.42
50.64
58.47
64.36
68.01
70.43
73.65
79.19
88.12
100.94
117.42
136.39
156.04
173.98
187.25
192.57
186.44
166.44
132.68
88.47
40.00
-4.85
-38.79
-57.57
-61.32
-54.73
-45.36
-41.34
-48.99
-71.34
-107.57
-153.45
-202.41
-246.76
-278.98
-293.14
-286.27
-259.42
-217.90
-170.11
-125.16
-90.30
-68.82
-59.41
-57.63
-58.35
-57.93
-55.24
-51.21
-47.41
-44.75
-42.92
-40.89
-37.60
-32.45
-25.22
-15.93
-4.83
7.24
18.47
26.33
28.51
24.16
14.70
3.55
-5.34
-9.34
-8.20
-3.94
0.52
3.13
3.71
3.87
5.71
10.30
16.99
23.76
28.39
29.86
28.81
27.04
26.37
27.56
29.97
31.90
31.62
28.17
21.87
13.98
5.95
-1.04
-6.25
-9.13
-9.05
-5.60
0.77
8.62
15.46
18.66
16.81
10.73
3.41
-1.38
-1.33
2.69
7.35
8.18
1.97
-11.20
-27.66
-41.46
-47.13
-42.31
-29.28
-12.94
0.74
6.45
1.45
-13.49
-34.09
-53.76
-65.98
-67.24
-56.60
-36.62
-12.85
8.61
23.10
29.17
28.43
24.04
18.45
15.31
18.07
28.91
45.69
61.92
70.45
69.99
71.86
80.26
97.02
122.47
150.29
174.72
190.22
193.31
183.59
163.15
134.34
101.12
67.31
35.47
7.86
-13.66
-27.17
-31.29
-26.34
-15.65
-3.03
7.72
13.66
13.96
9.64
3.32
-1.96
-4.23
-3.70
-1.46
0.87
1.60
0.03
-3.67
-8.42
-12.83
-15.98
-17.98
-19.34
-20.70
-22.52
-24.62
-26.40
-27.17
-26.53
-24.67
-22.45
-20.78
-20.30
-21.13
-22.83
-24.74
-26.19
-26.81
-26.55
-25.58
-24.17
-22.50
-20.65
-18.68
-16.64
-14.72
-13.15
-12.14
-11.72
-11.70
-11.72
-11.39
-10.51
-9.12
-7.54
-6.19
-5.39
-5.21
-5.39
-5.51
-5.17
-4.19
-2.71
-1.09
0.30
1.21
1.61
1.61
1.37
0.96
0.30
-0.68
-1.99
-3.49
-4.89
-5.87
-6.19
-5.82
-4.94
-3.83
-2.79
-1.97
-1.40
-0.96
-0.56
-0.15
0.25
0.58
0.77
0.84
0.83
0.80
0.73
0.54
0.11
-0.59
-1.47
-2.33
-2.93
-3.09
-2.82
-2.28
-1.77
-1.52
-1.65
-2.12
-2.78
-3.45
-4.00
-4.40
-4.71
-4.98
-5.28
-5.59
-5.85
-5.97
-5.87
-5.55
-5.09
-4.61
-4.19
-3.83
-3.41
-2.77
-1.83
-0.69
0.41
1.14
1.27
0.82
0.04
-0.71
-1.19
-1.41
-1.62
-2.17
-3.31
-5.02
-7.05
-9.03
-10.70
-11.99
-12.98
-13.85
-14.68
-15.40
-15.85
-15.86
-15.36
-14.44
-13.30
-12.21
-11.36
-10.85
-10.62
-10.50
-10.27
-9.79
-9.02
-8.09
-7.19
-6.51
-6.07
-5.78
-5.41
-4.78
-3.83
-2.65
-1.44
-0.40
0.32
0.71
0.81
0.76
0.67
0.69
0.90
1.36
2.05
2.84
3.55
3.96
3.92
3.37
2.34
0.98
-0.49
-1.78
-2.66
-2.98
-2.76
-2.21
-1.63
-1.30
-1.33
-1.67
-2.15
-2.59
-2.94
-3.24
-3.54
-3.79
-3.74
-3.05
-1.45
1.12
4.46
8.16
11.85
15.27
18.38
21.22
23.78
25.92
27.41
28.07
27.95
27.29
26.48
25.77
25.17
24.36
22.85
20.25
16.45
11.73
6.66
1.91
-2.01
-4.84
-6.59
-7.51
-7.89
-8.03
-8.14
-8.41
-9.00
-10.01
-11.40
-13.08
-14.81
-16.35
-17.47
-18.05
-18.09
-17.64
-16.84
-15.85
-14.90
-14.23
-14.05
-14.41
-15.20
-16.17
-17.03
-17.60
-17.86
-17.87
-17.76
-17.55
-17.25
-16.82
-16.28
-15.74
-15.33
-15.10
-14.99
-14.78
-14.26
-13.25
-11.71
-9.67
-7.11
-3.93
0.01
4.68
9.75
14.45
17.81
19.00
17.69
14.24
9.65
5.17
1.93
0.60
1.32
3.74
7.21
10.96
14.24
16.44
17.11
16.07
13.40
9.46
4.85
0.33
-3.42
-5.97
-7.28
-7.72
-7.90
-8.37
-9.31
-10.49
-11.35
-11.32
-10.13
-7.87
-4.96
-1.92
0.83
3.03
4.56
5.30
5.18
4.13
2.30
-0.01
-2.32
-4.19
-5.29
-5.57
-5.16
-4.30
-3.26
-2.25
-1.38
-0.70
-0.14
0.42
1.12
2.00
3.01
3.98
4.83
5.70
6.96
9.13
12.54
17.10
22.20
26.97
30.56
32.46
32.54
30.88
27.63
22.90
16.87
10.00
3.08
-2.96
-7.31
-9.67
-10.33
-10.02
-9.56
-9.55
-10.26
-11.65
-13.54
-15.74
-18.12
-20.58
-22.99
-25.21
-27.09
-28.46
-29.21
-29.30
-28.72
-27.59
-26.07
-24.44
-22.97
-21.90
-21.26
-20.89
-20.48
-19.65
-18.11
-15.79
-12.85
-9.60
-6.42
-3.68
-1.65
-0.54
-0.47
-1.42
-3.13
-5.10
-6.64
-7.11
-6.21
-4.08
-1.28
1.49
3.72
5.22
6.16
6.83
7.43
7.95
8.19
7.98
7.28
6.25
5.15
4.15
3.24
2.28
1.11
-0.29
-1.73
-2.83
-3.25
-2.84
-1.79
-0.56
0.36
0.60
0.23
-0.33
-0.35
0.87
3.77
8.31
13.94
19.74
24.65
27.85
28.91
27.91
25.31
21.72
17.80
14.09
11.02
8.93
8.06
8.50
10.09
12.42
14.81
16.54
16.99
15.85
13.19
9.49
5.44
1.77
-0.97
-2.61
-3.38
-3.78
-4.35
-5.42
-6.97
-8.66
-10.03
-10.74
-10.71
-10.10
-9.24
-8.47
-7.99
-7.81
-7.71
-7.31
-6.11
-3.68
0.14
5.14
10.64
15.70
19.42
21.25
21.12
19.43
16.78
13.75
10.72
7.86
5.20
2.70
0.34
-1.90
-4.04
-6.10
-8.07
-9.95
-11.72
-13.40
-14.99
-16.49
-17.80
-18.81
-19.40
-19.58
-19.49
-19.39
-19.46
-19.71
-19.91
-19.73
-18.88
-17.24
-14.95
-12.25
-9.34
-6.26
-2.94
0.68
4.57
8.44
11.92
14.68
16.51
17.49
17.83
17.82
17.65
17.39
16.98
16.29
15.29
14.03
12.67
11.41
10.40
9.66
9.06
8.43
7.60
6.49
5.18
3.82
2.60
1.72
1.28
1.28
1.68
2.43
3.49
4.86
6.56
8.63
11.02
13.63
16.28
18.77
20.96
22.78
24.27
25.48
26.41
27.04
27.29
27.15
26.64
25.85
24.83
23.59
22.03
20.07
17.71
15.12
12.67
10.71
9.46
8.87
8.58
8.11
7.06
5.27
2.84
-0.03
-3.16
-6.46
-9.84
-13.12
-15.95
-17.92
-18.78
-18.57
-17.60
-16.25
-14.75
-13.06
-10.94
-8.14
-4.63
-0.71
3.07
6.05
7.63
7.50
5.64
2.40
-1.63
-5.70
-9.06
-11.20
-11.91
-11.31
-9.79
-7.77
-5.75
-4.07
-2.97
-2.49
-2.45
-2.49
-2.18
-1.26
0.23
1.89
3.01
2.88
1.06
-2.35
-6.70
-11.01
-14.28
-15.85
-15.60
-13.93
-11.54
-9.15
-7.25
-5.96
-5.11
-4.41
-3.66
-2.81
-1.91
-1.02
-0.09
0.98
2.24
3.62
4.85
5.58
5.61
5.02
4.20
3.62
3.67
4.43
5.68
6.97
7.89
8.17
7.79
6.84
5.48
3.76
1.77
-0.37
-2.56
-4.66
-6.51
-7.90
-8.68
-8.71
-7.95
-6.43
-4.36
-2.15
-0.29
0.91
1.48
1.77
2.28
3.45
5.49
8.25
11.11
13.17
13.84
13.04
11.24
9.27
7.94
7.89
9.36
11.72
13.85
14.78
14.27
12.71
11.10
10.31
10.99
13.13
15.46
15.95
12.91
5.90
-4.35
-16.32
-28.75
-40.57
-47.91
-46.70
-35.66
-17.48
2.82
19.68
28.30
25.62
12.22
-7.24
-26.06
-38.20
-40.44
-33.57
-23.05
-13.01
-6.93
-5.99
-9.01
-13.84
-18.77
-22.89
-26.09
-28.63
-30.38
-31.17
-30.73
-29.16
-26.26
-23.48
-22.28
-23.28
-25.89
-28.39
-29.09
-26.79
-21.44
-14.37
-8.00
-4.40
-4.26
-6.67
-9.43
-10.49
-8.79
-4.76
-0.01
3.50
4.67
3.59
1.16
-1.70
-4.77
-8.49
-13.45
-19.75
-26.79
-33.21
-37.44
-38.36
-35.75
-30.51
-24.43
-19.70
-18.22
-20.98
-27.52
-35.90
-43.28
-46.87
-45.12
-38.46
-29.16
-20.40
-14.82
-13.40
-15.16
-17.86
-19.09
-17.11
-11.09
-0.99
12.58
28.26
43.81
56.37
63.47
64.27
60.30
55.09
52.65
55.55
63.55
73.84
82.42
85.98
83.18
74.77
62.82
49.67
37.02
25.68
15.66
6.59
-1.96
-10.09
-17.53
-23.74
-28.18
-30.63
-31.25
-30.47
-28.62
-25.71
-21.40
-15.31
-7.59
0.85
8.50
13.87
16.17
15.76
13.90
12.10
11.43
11.90
12.64
12.55
11.17
9.03
7.33
7.11
8.46
10.46
11.56
10.36
6.51
0.86
-4.99
-9.56
-12.18
-13.18
-13.20
-12.97
-12.88
-12.92
-12.75
-11.97
-10.49
-8.49
-6.20
-2.95
2.00
8.89
17.23
26.01
34.12
40.66
45.30
48.41
52.22
58.38
66.77
75.53
82.47
86.28
86.79
84.69
81.00
78.97
80.81
86.76
95.38
105.17
115.21
124.70
132.57
137.76
142.86
150.29
160.75
172.89
184.93
195.60
204.02
209.21
191.32
140.83
63.48
-23.22
-102.85
-166.24
-209.53
-231.65
-233.99
-220.92
-196.64
-167.71
-141.66
-124.46
-117.26
-115.94
-114.60
-109.95
-102.85
-95.17
-90.20
-90.53
-96.44
-105.20
-112.32
-114.56
-111.25
-103.64
-92.37
-78.67
-65.08
-55.66
-54.35
-63.25
-80.80
-101.36
-115.86
-114.38
-90.82
-45.67
14.21
78.05
135.49
177.69
199.27
199.27
181.42
152.99
122.54
96.86
72.60
47.61
20.66
-6.45
-28.98
-42.15
-44.22
-37.98
-29.55
-24.91
-25.50
-27.84
-26.85
-19.65
-7.85
3.23
7.41
0.91
-15.46
-35.90
-52.70
-60.09
-55.69
-41.27
-21.63
-1.91
14.90
29.08
40.98
50.66
58.69
64.80
66.36
59.89
44.17
21.49
-3.47
-25.55
-40.85
-47.46
-45.28
-35.71
-21.51
-6.85
3.39
5.28
-1.88
-14.41
-25.95
-30.89
-27.86
-20.45
-15.20
-17.65
-28.78
-44.16
-55.62
-55.60
-41.12
-15.58
12.79
34.78
44.14
39.83
25.78
8.74
-5.92
-15.23
-19.19
-19.59
-18.23
-15.77
-11.77
-5.57
2.59
11.29
18.52
23.05
24.83
24.93
24.70
24.92
25.72
26.33
26.00
24.62
22.65
20.45
17.87
14.24
8.60
0.68
-8.85
-18.32
-25.62
-29.02
-27.96
-23.29
-16.99
-11.68
-8.73
-8.49
-10.24
-12.55
-14.31
-15.06
-14.70
-12.78
-8.26
-0.09
11.35
22.86
29.79
27.97
16.08
-3.19
-24.05
-40.25
-48.17
-47.11
-39.17
-27.36
-14.17
-1.40
9.26
15.46
14.55
5.22
-10.91
-29.00
-42.25
-44.84
-34.72
-14.62
9.23
30.20
44.15
50.70
51.95
50.13
45.86
38.03
25.39
8.46
-9.49
-23.42
-28.70
-23.59
-9.77
7.85
23.23
31.94
32.79
27.83
20.83
15.41
13.41
14.63
17.50
20.08
20.43
16.04
4.51
-14.89
-39.03
-61.23
-74.00
-71.98
-54.00
-23.80
10.76
40.40
57.71
59.91
49.61
33.00
16.88
5.39
-1.55
-6.64
-11.87
-16.08
-14.41
-1.80
22.87
55.96
90.30
118.72
137.13
145.52
146.24
141.37
131.06
113.17
85.97
49.88
8.02
-34.80
-73.61
-104.83
-127.48
-138.14
-137.48
-128.27
-114.19
-98.45
-82.84
-67.80
-53.25
-39.44
-27.38
-19.21
-16.27
-18.53
-24.82
-33.65
-43.82
-54.39
-64.28
-71.86
-75.83
-74.96
-68.67
-57.35
-42.48
-26.62
-12.83
-3.84
-0.90
-3.69
-10.06
-16.89
-21.16
-20.88
-15.54
-6.00
6.03
18.48
29.14
36.20
38.68
37.11
33.46
30.20
29.21
31.08
35.36
41.18
47.91
54.29
58.54
59.16
55.53
48.29
39.27
31.21
26.80
27.45
32.56
39.74
45.98
49.01
48.62
45.96
43.05
41.58
41.96
43.10
43.20
41.29
37.92
34.71
33.11
33.23
33.42
30.84
23.92
12.43
-1.81
-15.80
-26.89
-34.02
-37.85
-39.94
-41.64
-43.32
-44.52
-44.43
-42.66
-39.65
-36.41
-33.83
-32.24
-31.41
-30.98
-31.02
-31.98
-34.39
-38.27
-42.91
-47.09
-49.65
-50.10
-48.65
-45.89
-42.08
-37.06
-30.61
-22.86
-14.67
-7.35
-2.03
0.83
1.66
1.50
1.45
2.29
4.29
7.23
10.60
13.77
16.13
17.35
17.50
17.06
16.74
17.08
18.24
19.99
21.89
23.60
25.04
26.31
27.48
28.35
28.47
27.33
24.68
20.80
16.44
12.57
9.86
8.46
7.90
7.41
6.25
4.04
0.91
-2.68
-6.15
-9.03
-11.09
-12.39
-13.07
-13.32
-13.20
-12.71
-11.94
-11.20
-10.95
-11.48
-12.61
-13.46
-12.80
-9.66
-3.89
3.58
11.09
17.02
20.38
21.06
19.58
16.67
12.89
8.63
4.36
0.72
-1.77
-3.03
-3.69
-4.74
-6.93
-10.15
-13.37
-15.09
-14.25
-10.88
-6.14
-1.74
0.91
1.32
-0.08
-2.39
-4.80
-6.86
-8.39
-9.11
-8.60
-6.48
-2.79
1.80
6.14
9.15
10.44
10.55
10.74
12.17
15.25
19.37
23.23
25.54
25.63
23.62
20.11
15.69
10.82
6.05
2.26
0.59
1.83
5.75
10.80
14.60
15.01
11.26
4.35
-3.47
-9.90
-13.68
-14.97
-14.96
-14.96
-15.65
-16.93
-18.21
-19.01
-19.25
-19.27
-19.58
-20.43
-21.49
-21.89
-20.54
-16.68
-10.42
-2.98
3.59
7.16
6.47
1.81
-4.98
-11.29
-14.97
-15.29
-13.16
-10.50
-8.97
-9.02
-9.67
-9.20
-6.38
-1.34
4.40
8.99
11.37
11.91
11.86
12.16
12.55
11.62
7.92
1.32
-6.41
-12.31
-13.80
-10.18
-2.92
5.19
11.68
15.54
17.35
18.40
19.57
20.70
20.76
18.70
14.14
7.83
1.41
-3.32
-5.24
-4.41
-2.14
-0.37
-0.86
-4.35
-10.24
-16.94
-22.67
-26.41
-28.31
-29.43
-30.93
-33.19
-35.50
-36.56
-35.30
-31.74
-27.11
-23.31
-21.80
-22.85
-25.31
-27.32
-27.39
-25.22
-21.78
-18.68
-17.08
-17.05
-17.53
-17.22
-15.39
-12.43
-9.58
-8.10
-8.59
-10.79
-14.02
-17.96
-22.80
-28.86
-35.76
-42.01
-45.35
-43.91
-37.41
-27.63
-17.68
-10.58
-7.91
-9.29
-12.87
-16.37
-18.23
-18.30
-17.73
-18.29
-21.51
-27.96
-36.90
-46.30
-53.29
-55.15
-50.31
-39.10
-23.44
-6.29
9.55
22.35
31.93
39.42
46.19
52.84
58.64
62.41
63.20
60.84
55.96
49.63
43.08
36.91
30.88
23.99
16.33
9.01
3.69
1.55
2.72
6.79
12.69
18.83
22.99
24.27
22.74
19.06
14.03
8.74
5.23
5.60
10.82
19.92
31.89
45.40
58.86
70.27
72.98
61.80
37.82
14.59
-0.35
-3.58
3.52
17.86
34.30
47.39
54.11
54.55
51.21
47.43
46.77
50.74
58.37
66.87
72.98
74.68
71.57
59.24
38.00
14.13
-5.67
-19.41
-29.35
-38.13
-45.79
-50.23
-49.54
-43.70
-35.40
-29.23
-28.98
-35.39
-45.58
-55.10
-59.69
-57.44
-48.81
-36.31
-23.45
-13.21
-6.97
-4.63
-5.11
-7.09
-9.53
-11.36
-11.94
-11.03
-8.77
-5.42
-1.64
1.51
2.97
2.13
-0.71
-4.66
-8.47
-11.05
-11.85
-11.01
-9.29
-7.60
-6.76
-7.16
-8.87
-11.25
-13.26
-13.72
-11.73
-6.93
0.38
9.01
17.17
23.08
26.25
27.58
29.02
32.57
39.48
49.81
62.53
76.07
85.96
88.17
80.57
63.87
40.68
14.73
-9.23
-25.99
-31.67
-25.70
-11.31
5.34
17.79
21.81
16.76
4.92
-10.63
-27.92
-45.52
-61.40
-72.70
-76.20
-69.78
-53.62
-30.62
-5.71
15.81
30.16
36.20
35.15
29.41
21.20
12.15
3.54
-3.63
-8.29
-8.98
-4.12
7.24
24.68
45.99
67.71
86.06
98.27
103.48
102.84
98.67
93.22
87.79
82.57
77.14
70.88
63.22
53.59
41.35
25.84
6.82
-15.04
-38.14
-60.23
-79.37
-94.48
-105.55
-113.33
-118.89
-123.39
-127.97
-133.70
-141.15
-149.90
-158.22
-163.26
-162.07
-152.98
-136.66
-116.26
-96.48
-81.85
-75.02
-75.80
-81.35
-87.38
-89.80
-86.13
-76.09
-61.37
-44.75
-29.03
-16.26
-7.41
-2.38
-0.25
0.44
1.29
3.61
7.99
14.07
20.68
26.36
29.99
31.20
30.53
28.95
27.45
26.70
26.92
28.03
29.66
31.16
31.68
30.32
26.54
20.49
13.40
7.24
4.07
5.28
11.06
20.13
30.41
39.64
45.65
46.64
41.32
29.56
12.88
-5.30
-20.46
-28.24
-26.04
-13.99
5.14
27.08
47.53
63.38
73.29
77.54
77.60
75.53
73.39
72.83
74.70
78.97
84.74
90.57
95.06
96.96
95.35
89.81
80.76
69.34
57.17
45.73
35.60
26.30
16.70
5.94
-5.79
-17.27
-27.06
-34.63
-40.99
-48.51
-59.51
-74.59
-91.44
-105.08
-109.88
-102.14
-82.11
-54.12
-24.88
-0.83
13.99
18.92
15.84
7.88
-1.65
-9.49
-12.33
-7.31
6.76
28.08
51.82
71.80
83.56
86.69
85.06
84.91
91.66
107.41
130.36
156.20
180.13
198.16
207.43
205.94
192.75
168.25
134.38
94.57
53.58
16.68
-12.02
-31.22
-43.50
-53.92
-67.47
-86.82
-111.12
-136.00
-155.93
-167.72
-172.22
-174.18
-178.19
-185.36
-192.99
-196.33
-190.56
-173.16
-146.14
-115.73
-90.71
-77.73
-78.09
-87.90
-100.32
-107.38
-102.75
-84.81
-52.60
-13.75
19.10
39.13
51.05
60.76
69.11
74.95
75.91
70.17
57.35
40.30
24.32
13.93
10.21
11.34
14.26
15.79
14.16
9.04
2.30
-3.02
-4.90
-3.54
-0.24
3.96
8.32
12.46
15.89
18.58
21.06
23.93
27.25
30.90
34.68
37.91
39.58
38.70
35.14
29.72
23.65
17.64
11.84
6.01
-0.18
-6.81
-13.52
-19.63
-24.49
-27.87
-30.14
-31.94
-33.86
-36.28
-39.28
-42.62
-45.88
-48.43
-49.66
-49.10
-46.64
-42.51
-37.23
-31.35
-25.33
-19.46
-14.00
-9.20
-5.33
-2.57
-0.79
0.42
1.69
3.64
6.57
10.46
14.87
19.17
22.67
24.81
25.34
24.41
22.55
20.49
18.97
18.39
18.64
19.14
19.00
17.44
14.07
9.07
3.08
-2.98
-8.27
-12.21
-14.54
-15.21
-14.31
-11.99
-8.49
-4.21
0.37
4.74
8.49
11.39
13.37
14.53
15.03
15.18
15.38
16.04
17.36
19.17
20.87
21.66
21.00
18.92
16.10
13.49
11.88
11.47
11.84
12.31
12.27
11.51
10.19
8.62
6.99
5.33
3.50
1.46
-0.62
-2.40
-3.44
-3.40
-2.12
0.33
3.76
7.84
12.21
16.56
20.56
23.88
26.14
26.96
26.00
23.20
18.91
13.96
9.44
6.25
4.76
4.60
4.92
4.84
3.90
2.21
0.32
-1.26
-2.31
-2.99
-3.66
-4.56
-5.70
-6.90
-7.90
-8.59
-8.97
-9.22
-9.52
-10.03
-10.75
-11.47
-11.74
-11.03
-8.95
-5.50
-1.13
3.37
7.23
9.93
11.42
12.03
12.14
12.01
11.61
10.80
9.48
7.74
5.86
4.16
2.80
1.70
0.61
-0.71
-2.30
-3.95
-5.30
-6.11
-6.40
-6.48
-6.80
-7.70
-9.22
-11.03
-12.63
-13.51
-13.38
-12.22
-10.22
-7.62
-4.68
-1.55
1.64
4.78
7.77
10.60
13.32
16.04
18.78
21.44
23.76
25.41
26.10
25.73
24.40
22.32
19.76
16.93
14.05
11.31
8.92
7.07
5.83
5.16
4.93
4.90
4.79
4.27
3.16
1.43
-0.73
-2.97
-4.86
-5.92
-5.92
-4.95
-3.41
-1.77
-0.30
1.01
2.40
4.15
6.55
9.56
12.67
15.17
16.45
16.27
14.82
12.60
10.17
8.56
8.39
9.56
11.28
12.59
12.84
11.89
10.09
8.14
7.86
10.50
15.86
22.34
27.95
31.45
32.68
32.39
31.77
33.69
39.89
49.97
61.56
72.02
79.84
84.82
87.74
89.82
94.64
104.79
120.51
139.55
158.65
174.94
186.06
190.10
172.08
125.16
55.49
-20.05
-85.47
-133.40
-164.12
-181.72
-190.90
-195.22
-194.27
-187.05
-173.75
-156.49
-138.13
-121.06
-106.85
-96.43
-90.64
-86.75
-82.21
-75.53
-66.55
-55.80
-44.17
-33.01
-24.09
-18.85
-16.82
-16.80
-17.69
-19.28
-21.96
-26.17
-31.79
-37.76
-41.30
-39.51
-31.10
-17.20
-1.30
12.15
19.45
19.01
12.03
1.82
-7.54
-12.96
-13.24
-9.23
-3.16
2.39
5.48
5.44
2.44
-3.55
-12.90
-25.21
-38.29
-48.08
-50.07
-41.38
-22.28
3.49
29.70
50.26
62.15
66.07
64.52
59.17
49.87
36.38
20.45
6.24
-0.89
3.34
19.48
42.91
65.23
74.20
61.31
29.63
-7.19
-35.28
-48.46
-48.66
-42.17
-35.98
-32.77
-31.56
-29.71
-25.50
-19.53
-13.94
-10.73
-10.91
-13.65
-16.70
-17.16
-12.82
-3.65
8.06
19.23
27.76
33.09
36.02
37.92
40.06
43.04
46.25
48.17
47.24
42.71
34.91
25.04
14.75
5.68
-1.10
-5.52
-8.58
-11.70
-15.85
-21.18
-26.96
-32.07
-35.56
-37.17
-37.30
-36.53
-34.94
-32.09
-27.52
-21.48
-15.15
-10.32
-8.44
-9.78
-13.10
-16.02
-16.33
-13.23
-7.85
-2.59
0.17
-0.97
-5.88
-13.04
-19.98
-24.39
-25.13
-22.59
-18.09
-13.13
-8.84
-5.68
-3.47
-1.14
2.57
8.33
15.83
24.30
32.95
41.04
47.81
49.51
43.21
29.84
14.34
2.53
-1.93
1.77
11.79
24.48
35.76
42.91
45.32
44.00
40.57
36.54
32.84
29.69
26.90
24.83
23.43
22.94
23.03
22.53
20.06
14.88
7.47
-0.58
-7.11
-10.41
-9.80
-6.23
-1.75
1.53
2.44
0.94
-2.32
-5.80
-8.51
-10.00
-10.47
-10.32
-9.73
-8.66
-7.08
-5.32
-4.01
-3.84
-4.90
-6.57
-7.82
-7.72
-5.99
-3.17
-0.27
1.76
2.42
1.88
0.74
-0.34
-1.02
-1.36
-1.81
-2.86
-4.84
-7.74
-11.07
-14.02
-15.67
-15.31
-12.66
-7.97
-1.86
4.91
11.67
17.94
23.44
27.87
30.88
32.00
30.87
27.46
22.17
15.87
9.57
4.23
0.41
-1.68
-2.25
-1.76
-0.98
-0.94
-2.80
-7.57
-15.61
-26.32
-38.18
-49.23
-57.76
-62.96
-65.09
-65.14
-64.21
-62.91
-61.20
-58.57
-54.50
-48.90
-42.23
-35.33
-28.93
-23.32
-18.17
-12.86
-6.87
-0.27
6.19
11.43
14.58
15.46
14.73
13.55
13.05
13.79
15.61
17.85
19.74
20.79
20.91
20.37
19.51
18.56
17.56
16.42
15.03
13.38
11.66
10.18
9.23
8.95
9.22
9.71
9.95
9.55
8.33
6.44
4.31
2.51
1.49
1.46
2.32
3.74
5.37
6.94
8.34
9.54
10.55
11.32
11.77
11.81
11.40
10.57
9.41
7.99
6.40
4.76
3.18
1.77
0.55
-0.55
-1.65
-2.82
-4.04
-5.21
-6.21
-7.02
-7.69
-8.33
-9.01
-9.73
-10.39
-10.89
-11.23
-11.52
-11.87
-12.30
-12.66
-12.66
-12.00
-10.52
-8.32
-5.69
-3.02
-0.62
1.37
2.95
4.23
5.27
6.05
6.49
6.50
6.13
5.52
4.85
4.27
3.78
3.26
2.54
1.51
0.20
-1.18
-2.41
-3.34
-3.95
-4.49
-5.24
-6.45
-8.18
-10.22
-12.22
-13.81
-14.75
-14.98
-14.56
-13.59
-12.13
-10.17
-7.79
-5.16
-2.61
-0.47
0.99
1.76
2.00
2.02
2.04
2.18
2.41
2.63
2.74
2.72
2.56
2.26
1.78
1.08
0.18
-0.86
-1.88
-2.70
-3.24
-3.52
-3.66
-3.90
-4.45
-5.45
-6.88
-8.58
-10.22
-11.43
-11.84
-11.25
-9.71
-7.48
-4.98
-2.58
-0.49
1.26
2.78
4.14
5.34
6.26
6.81
6.96
6.85
6.67
6.59
6.69
6.85
6.92
6.77
6.35
5.70
4.92
4.08
3.25
2.43
1.62
0.80
-0.09
-1.11
-2.34
-3.79
-5.36
-6.85
-7.97
-8.46
-8.18
-7.15
-5.58
-3.75
-1.98
-0.48
0.67
1.50
2.13
2.66
3.17
3.66
4.11
4.45
4.63
4.64
4.46
4.15
3.73
3.22
2.63
1.91
1.03
-0.05
-1.26
-2.49
-3.59
-4.43
-4.96
-5.19
-5.21
-5.09
-4.86
-4.49
-3.89
-3.02
-1.84
-0.42
1.18
2.86
4.54
6.16
7.66
8.96
9.96
10.57
10.75
10.51
9.92
9.10
8.13
7.13
6.22
5.59
5.39
5.70
6.44
7.35
8.11
8.41
8.14
7.36
6.29
5.20
4.24
3.49
2.91
2.47
2.17
2.00
1.92
1.86
1.67
1.21
0.32
-1.07
-2.98
-5.29
-7.79
-10.24
-12.40
-14.10
-15.34
-16.18
-16.72
-16.98
-16.93
-16.57
-15.98
-15.30
-14.73
-14.29
-13.82
-13.02
-11.62
-9.57
-7.08
-4.58
-2.57
-1.38
-1.12
-1.63
-2.57
-3.53
-4.15
-4.19
-3.51
-2.13
-0.18
2.10
4.47
6.61
8.23
9.14
9.25
8.68
7.68
6.64
5.88
5.56
5.62
5.86
6.04
5.98
5.62
5.04
4.32
3.53
2.69
1.81
0.94
0.15
-0.50
-1.03
-1.52
-2.09
-2.78
-3.54
-4.21
-4.60
-4.56
-4.02
-3.01
-1.63
-0.01
1.70
3.32
4.64
5.53
5.92
5.89
5.55
5.09
4.61
4.16
3.72
3.27
2.82
2.49
2.37
2.46
2.67
2.79
2.58
1.89
0.75
-0.73
-2.38
-4.11
-5.91
-7.77
-9.64
-11.32
-12.49
-12.86
-12.25
-10.73
-8.47
-5.78
-2.91
-0.08
2.56
4.86
6.65
7.78
8.14
7.72
6.64
5.12
3.34
1.40
-0.74
-3.18
-5.97
-8.97
-11.82
-14.04
-15.19
-15.10
-13.94
-12.17
-10.32
-8.78
-7.62
-6.59
-5.30
-3.38
-0.70
2.55
6.00
9.23
11.93
14.02
15.56
16.67
17.41
17.69
17.41
16.46
14.87
12.77
10.38
7.93
5.63
3.62
1.98
0.74
-0.18
-0.96
-1.84
-3.11
-4.98
-7.56
-10.80
-14.54
-18.52
-22.45
-26.03
-28.96
-31.00
-31.96
-31.72
-30.23
-27.56
-23.89
-19.54
-14.93
-10.46
-6.49
-3.18
-0.58
1.40
2.82
3.68
3.94
3.53
2.46
0.81
-1.32
-3.88
-6.88
-10.35
-14.21
-18.22
-21.98
-25.07
-27.18
-28.20
-28.21
-27.43
-26.08
-24.31
-22.18
-19.72
-16.96
-14.00
-10.97
-7.96
-5.05
-2.26
0.39
2.89
5.16
7.15
8.83
10.26
11.57
12.95
14.54
16.42
18.55
20.76
22.76
24.26
24.97
24.84
24.10
23.22
22.69
22.82
23.55
24.47
24.97
24.54
22.91
20.19
16.79
13.28
10.24
8.12
7.18
7.45
8.76
10.82
13.29
15.96
18.72
21.54
24.38
27.04
29.17
30.37
30.35
29.03
26.52
23.13
19.22
15.12
11.13
7.50
4.47
2.23
0.84
0.12
-0.30
-0.92
-2.09
-3.84
-5.73
-7.03
-7.01
-5.33
-2.22
1.60
5.12
7.46
8.06
6.75
3.73
-0.57
-5.57
-10.70
-15.53
-19.89
-23.80
-27.29
-30.10
-31.54
-30.64
-26.60
-19.22
-9.20
1.99
12.62
21.20
26.93
29.72
29.96
28.20
24.93
20.60
15.73
10.87
6.56
3.01
0.17
-2.21
-4.22
-5.47
-4.99
-1.57
5.64
16.50
29.57
42.16
51.03
53.22
46.89
31.84
9.67
-16.57
-43.03
-65.93
-82.42
-91.03
-91.81
-86.03
-75.72
-63.20
-50.57
-39.35
-30.33
-23.62
-18.77
-15.09
-11.95
-9.06
-6.51
-4.55
-3.40
-3.06
-3.39
-4.03
-4.40
-3.92
-2.27
0.52
4.19
8.51
13.27
18.16
23.06
28.24
33.90
39.80
45.26
49.48
52.04
52.92
52.15
50.26
48.37
47.62
48.37
50.03
51.35
50.94
47.40
39.08
25.25
6.79
-14.06
-34.58
-52.19
-64.88
-71.63
-69.38
-58.83
-45.54
-35.77
-31.66
-31.09
-30.73
-29.31
-26.52
-23.37
-21.77
-22.72
-25.58
-28.67
-30.14
-29.40
-26.82
-23.39
-20.39
-19.23
-20.22
-22.22
-23.38
-22.31
-18.85
-13.92
-8.85
-5.00
-3.38
-4.03
-5.87
-7.29
-6.95
-4.40
-0.12
4.68
8.31
9.11
6.29
0.34
-7.09
-13.92
-18.52
-20.16
-19.10
-16.31
-12.86
-9.58
-7.01
-5.80
-6.71
-10.25
-15.86
-21.50
-24.06
-20.76
-10.81
3.79
18.80
29.80
34.24
32.55
27.52
22.51
19.59
18.80
18.73
17.84
15.66
12.75
10.13
8.61
8.58
10.17
13.41
18.26
24.43
31.51
38.73
45.37
50.94
55.15
57.65
57.93
55.72
51.52
47.30
45.40
47.53
53.95
63.28
73.04
80.75
84.90
85.20
83.05
79.72
76.04
72.50
69.52
67.58
67.00
67.62
68.61
69.53
69.07
65.51
57.64
45.61
31.25
17.67
8.18
-0.77
-10.08
-19.79
-30.09
-41.36
-53.38
-64.81
-73.96
-79.99
-83.37
-84.44
-84.03
-82.78
-80.93
-78.58
-76.49
-75.01
-74.40
-74.37
-73.46
-70.35
-64.51
-56.12
-45.99
-35.17
-24.60
-15.07
-6.97
0.09
6.58
12.54
18.05
23.21
28.01
32.20
35.23
36.54
36.14
34.42
32.08
29.81
27.90
25.83
22.39
16.26
6.79
-5.31
-18.11
-29.23
-36.76
-40.04
-39.80
-37.64
-35.25
-33.70
-33.42
-34.33
-36.31
-39.16
-42.48
-45.30
-46.20
-43.72
-37.06
-26.59
-13.83
-0.91
10.26
18.54
23.84
26.83
28.45
29.48
30.32
30.93
31.07
30.39
28.51
25.11
20.02
13.34
5.61
-2.31
-9.46
-15.05
-18.77
-20.82
-21.81
-22.41
-23.15
-24.16
-25.25
-26.08
-26.45
-26.44
-26.39
-26.63
-27.30
-28.09
-28.27
-26.97
-23.48
-17.61
-9.80
-1.00
7.62
15.07
20.79
24.75
27.39
29.33
31.17
33.16
35.12
36.50
36.57
34.75
30.91
25.43
19.09
12.89
7.65
3.90
1.75
1.01
1.27
2.01
2.63
2.49
1.03
-2.05
-6.59
-11.80
-16.59
-19.72
-20.18
-17.69
-12.95
-7.46
-2.89
-0.30
0.45
0.50
1.71
5.80
13.49
23.85
34.57
42.87
46.84
46.47
43.49
41.14
43.37
53.19
71.13
94.69
118.61
136.13
140.57
126.28
92.13
43.67
-7.21
-45.65
-58.92
-40.92
5.55
69.97
135.83
188.86
222.02
235.95
235.07
223.26
202.05
171.48
131.66
80.40
18.34
-49.41
-114.67
-169.82
-210.54
-236.45
-250.09
-255.90
-263.96
-282.10
-311.72
-348.29
-385.69
-420.35
-452.18
-483.01
-482.81
-433.71
-342.64
-236.70
-140.12
-62.07
-1.82
44.06
78.58
103.99
117.30
116.83
104.93
86.90
67.00
48.85
34.41
26.00
27.09
36.98
53.72
77.82
103.81
125.64
138.97
142.63
138.87
131.77
122.31
110.44
97.46
85.44
77.09
74.28
77.89
85.56
93.21
94.52
84.24
62.26
31.92
-1.07
-30.86
-53.18
-66.70
-73.13
-77.06
-82.67
-89.55
-95.60
-98.19
-95.00
-84.23
-64.96
-35.80
1.77
45.50
96.36
154.10
215.50
274.21
322.13
351.03
354.99
332.44
272.14
182.68
88.22
12.47
-35.70
-61.32
-74.11
-81.33
-85.96
-87.72
-83.15
-72.03
-58.30
-47.13
-41.51
-41.28
-44.09
-47.18
-48.37
-44.72
-36.35
-26.21
-17.84
-13.02
-11.36
-11.28
-11.14
-9.84
-6.40
-1.34
3.24
5.27
4.04
0.33
-4.36
-8.48
-10.93
-10.42
-7.86
-4.53
-1.33
1.57
4.55
8.00
12.12
16.71
21.63
24.82
24.79
20.85
12.97
1.34
-14.19
-34.12
-60.00
-81.40
-94.54
-99.35
-98.13
-93.36
-86.79
-79.62
-72.45
-65.90
-60.19
-56.53
-54.87
-54.42
-54.01
-52.94
-51.25
-49.28
-47.95
-47.81
-49.61
-52.79
-56.32
-58.91
-59.84
-61.15
-62.39
-62.62
-64.57
-70.72
-81.91
-96.71
-111.12
-119.15
-115.25
-96.61
-65.34
-27.43
8.81
37.74
55.53
61.53
57.79
47.77
35.59
24.64
17.75
16.42
20.24
26.77
32.84
35.73
34.12
28.27
18.80
7.19
-5.46
-18.67
-32.33
-46.04
-59.20
-71.60
-83.56
-95.80
-107.22
-116.57
-122.95
-125.92
-125.02
-119.53
-108.69
-91.34
-70.96
-46.84
-18.56
12.66
44.24
73.68
99.48
120.96
137.97
150.65
163.99
181.84
204.73
230.13
254.91
276.98
295.44
310.21
321.74
336.21
358.26
387.97
421.27
453.13
479.97
500.05
513.02
486.34
407.34
289.40
162.68
52.96
-28.71
-82.90
-116.15
-137.41
-152.88
-166.80
-180.73
-195.82
-212.78
-230.43
-246.01
-257.48
-265.31
-270.22
-270.97
-266.23
-256.47
-243.89
-230.94
-219.25
-209.70
-202.80
-198.69
-195.24
-189.07
-178.70
-165.40
-151.94
-140.23
-130.41
-120.92
-109.30
-92.46
-66.39
-29.23
17.76
70.76
125.64
179.17
229.29
274.71
303.33
305.77
281.16
238.90
191.62
148.38
112.73
84.49
62.01
43.41
29.07
19.86
17.02
18.22
21.12
24.23
26.82
28.00
26.43
22.10
15.79
8.64
1.62
-4.13
-7.35
-7.16
-4.13
-0.28
2.74
3.88
2.80
-0.58
-5.94
-13.11
-22.33
-34.23
-49.07
-65.82
-82.62
-97.77
-110.89
-122.77
-134.83
-148.07
-162.39
-176.71
-189.82
-201.55
-213.14
-226.17
-240.49
-252.79
-256.86
-245.55
-213.45
-159.45
-87.80
-7.47
70.03
133.48
174.80
190.62
182.59
156.15
118.59
76.90
36.48
0.85
-27.85
-48.06
-58.50
-58.38
-47.91
-28.83
-4.68
19.60
38.65
48.20
46.86
37.40
26.12
20.61
26.64
46.14
77.04
115.03
155.70
195.55
231.57
260.01
275.93
274.19
251.49
208.12
148.48
80.00
11.26
-49.60
-95.98
-123.53
-131.04
-121.25
-100.57
-77.80
-61.43
-56.99
-65.48
-83.30
-103.47
-117.59
-118.09
-100.41
-64.80
-16.95
33.07
73.67
95.68
95.42
75.80
44.69
11.57
-15.85
-33.50
-40.87
-39.68
-32.39
-21.45
-9.31
1.44
8.07
8.25
0.91
-13.22
-31.61
-50.41
-65.71
-74.76
-76.92
-73.81
-68.56
-64.47
-63.58
-65.87
-69.36
-71.12
-68.54
-60.36
-46.98
-30.25
-12.73
3.05
15.29
23.53
28.78
33.09
38.48
45.73
53.73
59.88
61.44
57.14
48.07
37.25
28.12
22.76
21.03
21.01
20.35
17.73
13.58
9.43
6.78
5.87
5.23
2.21
-5.69
-19.39
-37.50
-56.53
-72.26
-81.13
-81.16
-71.93
-54.24
-29.63
-0.65
28.94
54.26
70.12
72.73
61.19
37.98
7.94
-23.48
-51.82
-73.86
-86.90
-88.23
-75.70
-49.21
-12.08
28.94
65.68
91.64
104.73
108.02
107.18
107.08
109.06
110.67
107.45
95.96
75.82
50.38
25.94
8.75
2.85
8.98
25.26
48.07
73.37
97.13
116.19
129.11
135.23
134.35
126.44
112.13
92.62
69.73
44.85
16.70
-12.36
-37.28
-53.33
-59.54
-58.38
-56.23
-55.95
-58.26
-62.46
-66.84
-70.70
-72.78
-73.99
-75.89
-80.00
-86.77
-96.08
-106.80
-116.70
-123.66
-126.28
-124.48
-118.95
-110.91
-101.54
-92.07
-83.22
-74.80
-66.49
-58.36
-51.31
-46.46
-44.45
-44.70
-45.53
-44.48
-39.11
-28.28
-12.85
4.43
20.18
31.66
37.69
38.74
36.44
32.87
29.74
28.04
27.96
29.31
31.79
35.10
38.92
42.74
45.90
47.53
46.77
42.91
35.77
25.80
14.08
2.03
-8.99
-18.09
-24.97
-29.75
-32.59
-33.41
-31.92
-27.95
-21.68
-13.73
-4.97
3.84
12.25
19.88
26.10
29.77
29.39
23.76
12.82
-1.83
-17.03
-28.94
-34.28
-31.45
-20.96
-5.21
12.21
27.43
37.05
38.67
31.25
15.22
-7.50
-33.85
-60.23
-83.15
-99.80
-108.42
-108.32
-99.79
-84.02
-63.02
-39.37
-15.89
5.00
21.72
33.76
41.59
46.26
49.10
51.55
55.05
60.77
69.33
80.35
92.24
102.37
107.81
106.22
96.72
80.20
59.11
36.72
16.27
0.34
-9.36
-12.03
-7.67
2.93
18.14
35.40
51.56
63.39
68.46
65.78
56.05
41.35
24.36
7.67
-6.80
-17.94
-25.31
-29.07
-29.80
-28.44
-26.09
-23.68
-21.71
-20.13
-18.53
-16.48
-13.89
-11.08
-8.56
-6.76
-5.81
-5.66
-6.27
-7.88
-10.98
-16.09
-23.40
-32.59
-42.79
-52.91
-61.89
-68.90
-73.42
-75.17
-74.00
-69.99
-63.44
-54.96
-45.37
-35.52
-26.10
-17.56
-10.13
-3.88
1.15
5.10
8.30
11.37
15.06
20.04
26.63
34.59
43.13
51.14
57.49
61.34
62.35
60.66
56.81
51.47
45.39
39.16
33.11
27.36
21.79
16.27
10.79
5.63
1.20
-2.12
-4.32
-5.71
-6.75
-7.70
-8.39
-8.31
-7.07
-4.70
-1.76
0.98
3.07
4.71
6.71
9.98
14.93
21.08
27.12
31.33
32.15
28.69
20.99
9.99
-2.64
-14.95
-25.20
-32.21
-35.67
-36.03
-34.33
-31.81
-29.66
-28.77
-29.57
-31.92
-35.07
-37.92
-39.33
-38.61
-35.70
-31.22
-26.05
-20.94
-16.29
-12.10
-8.31
-5.03
-2.61
-1.47
-1.75
-3.11
-4.71
-5.51
-4.56
-1.33
4.16
11.45
19.72
27.98
35.22
40.66
43.90
45.09
44.98
44.63
45.03
46.65
49.18
51.73
53.15
52.61
49.79
44.96
38.61
31.17
22.91
14.00
4.69
-4.57
-13.25
-20.86
-27.04
-31.36
-33.26
-32.03
-27.13
-18.76
-7.97
3.48
13.84
22.08
28.13
32.52
35.69
37.41
36.78
32.90
25.57
15.79
5.44
-3.55
-10.11
-14.36
-17.46
-20.83
-25.34
-30.91
-36.50
-40.60
-41.82
-39.45
-33.65
-25.36
-15.90
-6.59
1.36
6.91
9.06
7.02
0.61
-9.36
-20.99
-31.73
-39.14
-41.75
-39.48
-33.55
-25.76
-17.75
-10.48
-4.13
1.60
7.03
12.17
16.57
19.58
20.51
19.14
15.89
11.90
8.66
7.60
9.47
14.16
20.75
27.96
34.65
40.13
44.28
47.22
49.05
49.48
47.94
43.77
36.65
26.88
15.46
3.92
-6.19
-13.69
-18.10
-19.67
-19.16
-17.42
-15.04
-12.19
-8.68
-4.12
1.81
9.15
17.60
26.42
34.54
40.61
43.34
41.77
35.70
25.88
13.87
1.58
-9.30
-17.79
-23.70
-27.36
-29.23
-29.53
-28.24
-25.34
-21.09
-16.20
-11.67
-8.38
-6.71
-6.38
-6.68
-6.89
-6.65
-6.13
-5.90
-6.55
-8.37
-11.21
-14.53
-17.66
-19.91
-20.68
-19.44
-15.77
-9.64
-1.71
6.35
12.11
12.97
7.26
-4.88
-21.18
-37.84
-50.75
-56.95
-55.45
-47.37
-35.12
-21.37
-8.21
3.25
12.61
19.88
25.01
27.98
28.85
28.02
26.17
24.10
22.35
20.96
19.58
17.75
15.33
12.80
11.10
11.11
13.11
16.40
19.47
20.69
19.16
15.22
10.37
6.48
4.97
6.04
8.73
11.43
12.73
12.02
9.54
6.05
2.19
-1.81
-6.13
-11.06
-16.56
-22.09
-26.76
-29.72
-30.53
-29.42
-27.17
-24.77
-23.03
-22.27
-22.25
-22.38
-22.08
-20.98
-19.09
-16.66
-13.92
-11.00
-7.97
-4.89
-1.96
0.61
2.66
4.32
6.05
8.54
12.25
16.90
21.39
24.03
23.31
18.66
10.87
1.95
-5.34
-8.61
-6.65
0.21
10.45
21.91
32.46
40.41
44.76
45.82
44.50
41.98
39.24
36.86
34.98
33.29
31.06
27.30
22.35
16.94
12.05
8.59
7.43
9.22
14.10
21.15
28.41
35.38
41.86
48.12
54.51
61.46
69.40
78.47
88.24
97.82
108.62
122.09
138.85
157.99
177.88
197.84
218.94
243.45
257.89
251.10
216.76
157.42
82.02
1.21
-75.39
-140.13
-188.49
-219.99
-235.33
-237.31
-229.40
-215.38
-198.72
-182.57
-170.10
-164.29
-166.65
-173.84
-180.25
-177.74
-160.24
-126.20
-79.56
-28.80
15.79
45.70
58.22
55.90
44.66
30.31
16.62
5.08
-4.17
-11.19
-15.77
-17.14
-15.24
-11.15
-6.79
-4.10
-3.61
-4.06
-3.32
0.32
7.30
16.65
26.71
35.92
43.50
49.47
54.26
58.29
61.80
64.98
68.03
71.20
74.57
77.98
81.13
83.75
85.69
87.03
87.91
88.32
87.68
84.67
77.16
62.79
39.71
7.51
-32.15
-75.58
-117.71
-153.48
-179.12
-193.18
-196.78
-192.98
-185.77
-178.76
-174.27
-172.93
-173.89
-175.49
-176.05
-174.46
-170.48
-164.54
-157.40
-149.77
-142.05
-134.32
-126.45
-118.26
-109.66
-100.67
-91.46
-82.26
-73.26
-64.56
-56.15
-47.91
-39.68
-31.30
-22.57
-13.23
-2.86
8.97
22.53
37.59
53.30
68.23
80.91
90.29
96.19
99.41
101.29
103.12
105.55
108.40
110.81
111.75
110.52
107.10
102.13
96.59
91.43
87.11
83.47
79.70
74.77
67.83
58.62
47.60
35.85
24.73
15.57
9.43
6.97
8.41
13.45
21.16
30.16
38.88
46.08
51.22
54.51
56.63
58.28
59.77
61.02
61.69
61.49
60.22
57.68
53.52
47.32
38.74
27.97
15.79
3.52
-7.49
-16.28
-22.63
-27.00
-30.25
-33.16
-36.13
-39.12
-41.68
-43.29
-43.57
-42.41
-39.92
-36.28
-31.72
-26.44
-20.77
-15.19
-10.31
-6.71
-4.64
-3.94
-4.08
-4.48
-4.68
-4.57
-4.32
-4.17
-4.21
-4.28
-4.04
-3.25
-1.95
-0.51
0.56
0.80
0.13
-1.25
-2.95
-4.73
-6.61
-8.78
-11.35
-14.15
-16.67
-18.26
-18.42
-17.08
-14.62
-11.64
-8.67
-5.89
-3.18
-0.27
2.99
6.46
9.73
12.38
14.18
15.25
15.97
16.74
17.73
18.69
19.11
18.40
16.33
13.13
9.44
6.07
3.64
2.36
2.04
2.21
2.45
2.44
2.09
1.38
0.32
-1.11
-2.88
-4.79
-6.54
-7.73
-8.13
-7.73
-6.80
-5.69
-4.67
-3.81
-3.02
-2.18
-1.30
-0.52
-0.02
0.14
0.06
-0.02
0.05
0.23
0.30
0.00
-0.78
-1.94
-3.23
-4.35
-5.13
-5.57
-5.80
-6.04
-6.46
-7.21
-8.40
-10.01
-11.95
-14.04
-16.05
-17.74
-18.93
-19.47
-19.21
-18.04
-15.86
-12.70
-8.76
-4.43
-0.11
3.83
7.22
10.02
12.29
14.08
15.35
16.06
16.18
15.82
15.17
14.42
13.66
12.79
11.64
10.10
8.19
6.12
4.11
2.33
0.73
-0.84
-2.53
-4.40
-6.35
-8.21
-9.88
-11.30
-12.46
-13.29
-13.58
-13.11
-11.74
-9.54
-6.79
-3.89
-1.17
1.18
3.10
4.60
5.71
6.43
6.79
6.87
6.84
6.79
6.76
6.64
6.26
5.50
4.42
3.22
2.14
1.36
0.84
0.42
-0.12
-0.92
-1.99
-3.20
-4.42
-5.56
-6.62
-7.66
-8.67
-9.56
-10.09
-10.01
-9.11
-7.38
-4.96
-2.16
0.69
3.32
5.56
7.33
8.63
9.44
9.80
9.76
9.42
8.90
8.31
7.73
7.14
6.53
5.85
5.09
4.22
3.27
2.24
1.19
0.18
-0.68
-1.40
-2.06
-2.85
-3.99
-5.61
-7.66
-9.88
-11.92
-13.39
-14.04
-13.82
-12.81
-11.19
-9.16
-6.89
-4.51
-2.13
0.12
2.17
3.96
5.50
6.82
7.92
8.82
9.50
9.98
10.30
10.50
10.63
10.70
10.68
10.57
10.35
10.07
9.74
9.33
8.79
8.11
7.24
6.21
5.00
3.58
1.91
0.01
-2.07
-4.15
-6.04
-7.57
-8.61
-9.09
-9.00
-8.30
-7.03
-5.29
-3.26
-1.15
0.77
2.31
3.28
3.58
3.18
2.18
0.82
-0.53
-1.53
-1.97
-1.88
-1.52
-1.27
-1.43
-2.13
-3.28
-4.63
-5.92
-7.00
-7.87
-8.61
-9.34
-10.12
-10.91
-11.66
-12.28
-12.74
-12.97
-12.92
-12.46
-11.47
-9.86
-7.63
-4.89
-1.86
1.21
4.08
6.58
8.64
10.21
11.29
11.93
12.22
12.26
12.16
11.95
11.60
11.01
10.07
8.70
6.98
5.06
3.16
1.46
0.03
-1.15
-2.17
-3.14
-4.14
-5.26
-6.55
-8.02
-9.59
-11.10
-12.34
-13.07
-13.14
-12.51
-11.26
-9.54
-7.46
-5.16
-2.77
-0.46
1.56
3.08
3.97
4.26
4.07
3.60
3.06
2.55
2.16
1.92
1.83
1.86
1.93
1.97
1.92
1.78
1.59
1.39
1.17
0.84
0.27
-0.65
-1.92
-3.45
-5.10
-6.70
-8.15
-9.32
-10.14
-10.49
-10.22
-9.22
-7.41
-4.81
-1.65
1.72
4.88
7.43
9.15
10.02
10.22
10.01
9.60
9.10
8.56
7.98
7.37
6.81
6.33
5.89
5.40
4.73
3.82
2.74
1.67
0.89
0.67
1.21
2.55
4.59
7.13
9.96
12.89
15.81
18.73
21.66
24.62
27.57
30.46
33.25
35.91
38.39
40.55
42.13
42.81
42.29
40.43
37.33
33.31
28.79
24.25
20.03
16.32
13.09
10.15
7.20
3.98
0.41
-3.40
-7.19
-10.65
-13.61
-16.04
-18.04
-19.73
-21.18
-22.43
-23.49
-24.46
-25.42
-26.43
-27.37
-27.96
-27.83
-26.67
-24.41
-21.26
-17.63
-13.97
-10.60
-7.62
-4.97
-2.54
-0.33
1.60
3.15
4.27
5.09
5.77
6.46
7.15
7.67
7.73
7.13
5.79
3.88
1.65
-0.59
-2.66
-4.53
-6.25
-7.97
-9.86
-12.00
-14.41
-16.99
-19.55
-21.78
-23.42
-24.19
-23.95
-22.64
-20.33
-17.17
-13.39
-9.29
-5.20
-1.45
1.74
4.28
6.27
7.91
9.50
11.28
13.37
15.78
18.37
21.03
23.70
26.40
29.18
32.10
35.08
37.90
40.26
41.82
42.31
41.52
39.37
35.92
31.27
25.63
19.19
12.13
4.66
-2.98
-10.42
-17.21
-22.88
-27.06
-29.64
-30.76
-30.75
-30.06
-29.06
-28.07
-27.24
-26.65
-26.23
-25.75
-24.82
-23.06
-20.20
-16.29
-11.68
-6.89
-2.40
1.62
5.33
9.23
13.85
19.48
26.01
32.92
39.50
45.21
49.86
53.69
57.18
60.90
65.31
70.59
76.49
82.10
85.69
84.89
77.31
61.42
37.39
7.28
-25.50
-57.24
-85.05
-107.38
-123.86
-134.73
-140.30
-140.79
-136.63
-128.71
-118.36
-107.08
-96.05
-85.82
-76.23
-66.67
-56.56
-45.86
-35.32
-26.38
-20.75
-19.62
-23.09
-29.94
-38.09
-45.45
-50.82
-54.15
-56.30
-58.13
-59.96
-61.36
-61.69
-60.59
-58.28
-55.28
-51.93
-48.00
-42.72
-35.25
-25.20
-12.88
0.78
14.70
27.97
40.08
50.73
59.63
66.31
70.21
70.97
68.59
63.51
56.41
47.93
38.48
28.42
18.35
9.27
2.48
-0.93
-0.59
2.81
7.60
11.59
12.75
9.78
2.46
-8.39
-21.13
-33.75
-44.40
-51.89
-56.04
-57.49
-57.35
-56.53
-55.37
-53.58
-50.60
-46.06
-40.15
-33.60
-27.33
-22.03
-17.67
-13.54
-8.60
-2.06
6.21
15.66
25.41
34.75
43.48
51.82
60.05
68.05
75.09
80.08
81.96
80.07
74.16
64.29
50.70
33.85
14.67
-5.30
-24.12
-39.97
-51.87
-60.04
-65.68
-70.18
-74.25
-77.43
-78.44
-76.17
-70.85
-64.52
-60.56
-62.17
-70.73
-84.79
-100.43
-112.67
-117.38
-112.74
-99.55
-80.50
-58.91
-37.47
-17.69
-0.15
14.94
27.67
38.67
49.03
59.65
70.30
79.06
83.35
81.69
75.48
68.97
67.71
76.16
95.73
124.22
156.90
188.20
212.90
226.90
227.38
213.18
185.63
148.93
109.28
72.96
44.05
23.34
8.93
-1.75
-9.65
-13.15
-9.03
5.04
27.64
52.17
67.90
63.77
33.47
-20.79
-87.90
-151.56
-196.01
-211.18
-195.06
-152.46
-92.31
-25.06
38.33
87.04
111.87
108.37
80.07
39.25
3.85
-9.10
9.04
54.47
112.28
162.65
188.75
182.73
147.89
96.46
44.55
6.50
-9.24
-1.78
23.57
58.67
96.07
131.35
163.23
191.83
216.31
234.03
241.32
235.49
216.31
186.22
149.27
109.99
73.09
43.53
26.16
24.08
36.50
57.72
78.22
87.90
79.78
52.22
8.04
-48.20
-112.98
-184.42
-260.51
-336.57
-404.15
-452.80
-474.00
-465.08
-430.56
-380.26
-325.08
-272.82
-226.37
-184.65
-145.69
-109.52
-78.96
-58.15
-49.75
-52.82
-62.68
-72.94
-78.36
-77.09
-71.16
-64.85
-62.17
-64.77
-71.23
-77.81
-80.21
-75.25
-61.89
-41.24
-15.82
11.42
37.79
61.14
79.96
93.14
100.04
100.61
95.71
87.10
77.16
68.18
61.61
57.54
54.73
51.19
45.04
35.36
22.49
7.89
-6.53
-19.19
-29.24
-36.64
-41.81
-45.23
-47.20
-47.94
-47.88
-47.76
-48.52
-50.89
-54.99
-60.08
-64.91
-68.20
-69.21
-67.95
-65.03
-61.17
-56.85
-52.22
-47.16
-41.45
-34.81
-26.62
-15.88
-1.34
17.80
41.08
66.40
90.44
109.97
123.26
130.89
135.31
139.50
145.33
152.67
159.67
163.94
163.85
159.24
151.30
141.82
132.47
124.42
118.30
114.40
112.61
112.37
112.58
111.81
108.60
101.92
91.34
77.12
60.00
41.05
21.54
2.88
-13.54
-26.58
-35.79
-41.69
-45.72
-49.81
-55.67
-63.96
-74.02
-84.01
-91.63
-95.08
-93.76
-88.56
-81.45
-74.73
-70.20
-68.52
-69.18
-70.80
-71.89
-71.34
-68.80
-64.55
-59.28
-53.68
-48.31
-43.57
-39.72
-36.77
-34.41
-31.96
-28.54
-23.45
-16.54
-8.43
-0.25
6.79
11.91
15.00
16.57
17.38
18.12
19.19
20.77
22.96
25.92
29.85
34.84
40.80
47.40
54.17
60.69
66.64
71.81
75.94
78.55
78.96
76.34
70.05
59.88
46.20
29.92
12.30
-5.30
-21.77
-36.35
-48.65
-58.56
-65.96
-70.59
-72.03
-69.94
-64.38
-56.00
-45.93
-35.41
-25.37
-16.17
-7.76
0.06
7.32
13.84
19.32
23.54
26.43
27.96
28.03
26.44
23.12
18.32
12.72
7.27
2.82
-0.16
-1.77
-2.45
-2.72
-2.95
-3.17
-3.20
-2.82
-2.00
-0.93
-0.01
0.27
-0.52
-2.65
-6.22
-11.12
-17.04
-23.37
-29.32
-34.05
-36.87
-37.41
-35.74
-32.23
-27.42
-21.81
-15.72
-9.40
-3.02
3.13
8.73
13.51
17.40
20.59
23.44
26.28
29.26
32.26
34.93
36.83
37.55
36.85
34.63
30.89
25.71
19.19
11.51
2.94
-6.15
-15.26
-23.81
-31.13
-36.58
-39.60
-39.88
-37.41
-32.50
-25.68
-17.58
-8.83
0.00
8.31
15.49
20.95
24.17
24.90
23.24
19.75
15.32
10.99
7.70
6.06
6.41
8.75
12.92
18.56
25.09
31.66
37.22
40.60
40.81
37.21
29.66
18.45
4.23
-12.17
-29.78
-47.44
-63.83
-77.58
-87.58
-93.45
-95.74
-95.94
-95.87
-96.89
-99.19
-101.55
-102.02
-98.96
-92.09
-82.79
-73.58
-66.97
-64.35
-65.62
-69.49
-74.27
-78.65
-82.00
-84.29
-85.78
-86.68
-87.22
-87.68
-88.59
-90.61
-94.37
-100.12
-107.43
-115.15
-121.49
-124.35
-121.68
-111.83
-93.88
-67.79
-34.59
3.82
44.94
86.20
125.61
162.13
195.69
226.65
255.15
280.55
301.51
316.52
324.72
326.35
322.78
316.03
307.81
298.95
289.24
277.83
263.80
246.58
226.31
204.04
181.74
161.41
144.05
128.90
113.66
95.68
73.72
49.12
25.79
8.96
2.29
5.95
16.67
29.72
41.36
50.16
56.54
61.12
64.56
65.70
62.29
52.73
37.49
19.03
-0.05
-18.47
-36.69
-53.13
-65.89
-73.13
-73.80
-67.67
-55.53
-39.54
-22.70
-7.60
8.82
29.96
57.10
88.09
119.21
147.42
170.97
189.43
203.59
220.27
244.64
277.14
312.82
344.85
368.33
381.34
384.55
347.73
258.61
129.20
-9.51
-130.08
-221.80
-286.77
-331.74
-362.76
-383.43
-390.07
-381.67
-359.27
-328.41
-296.29
-268.15
-246.67
-232.58
-225.42
-219.58
-209.76
-193.05
-167.87
-135.62
-99.68
-66.37
-44.50
-42.20
-59.97
-91.37
-124.91
-148.85
-155.42
-142.71
-114.87
-79.35
-43.53
-11.19
15.74
35.80
46.98
47.87
39.01
22.89
2.65
-19.65
-43.35
-69.35
-98.46
-129.94
-160.92
-186.81
-202.53
-203.87
-188.73
-157.90
-115.88
-70.16
-29.49
-1.08
11.83
11.57
5.27
2.21
10.06
31.42
63.37
98.95
130.26
150.21
155.28
146.36
128.09
106.78
86.88
70.77
59.05
52.31
49.48
49.13
49.57
49.26
46.65
38.90
24.67
5.33
-14.04
-30.04
-41.24
-48.69
-54.76
-62.29
-75.68
-97.29
-126.08
-156.16
-183.38
-205.12
-220.80
-230.69
-222.65
-191.95
-144.45
-105.96
-82.24
-72.31
-68.96
-68.22
-66.95
-62.58
-56.17
-50.01
-45.83
-41.71
-36.71
-29.67
-19.85
-6.40
11.45
31.20
49.01
61.57
69.37
73.43
75.96
78.95
84.17
93.50
106.41
121.13
135.90
151.16
167.02
182.90
196.47
195.37
171.42
126.51
72.70
22.59
-18.02
-51.35
-80.86
-109.64
-134.88
-148.64
-143.49
-116.80
-72.03
-16.37
40.06
88.34
122.76
141.79
147.83
144.49
134.69
120.08
101.82
81.38
60.86
42.20
26.94
16.32
10.52
8.36
7.64
6.15
2.58
-2.95
-9.52
-15.76
-20.26
-22.38
-22.36
-21.22
-20.05
-19.52
-19.57
-19.66
-19.13
-17.50
-14.69
-11.06
-7.21
-3.73
-1.01
0.89
2.14
3.03
3.85
4.74
5.70
6.52
6.90
6.53
5.27
3.30
0.93
-1.42
-3.36
-4.67
-5.29
-5.42
-5.35
-5.35
-5.62
-6.26
-7.23
-8.31
-9.05
-8.93
-7.54
-4.84
-1.16
2.87
6.45
9.05
10.77
12.42
15.12
19.70
26.28
34.15
42.06
48.37
51.94
52.89
52.81
53.89
57.90
65.32
75.19
85.44
92.84
94.64
90.04
80.75
69.87
60.23
53.36
49.25
46.54
41.76
31.03
11.83
-15.61
-48.48
-82.04
-110.25
-127.01
-128.28
-115.99
-97.41
-82.11
-78.01
-89.11
-114.86
-151.16
-192.20
-221.58
-225.42
-201.02
-159.10
-113.83
-73.42
-39.09
-9.31
17.08
39.97
56.80
65.15
65.21
60.46
55.43
53.85
56.89
63.61
71.91
78.22
79.59
75.26
67.13
57.25
48.46
41.77
36.78
32.40
26.69
18.12
6.48
-4.59
-13.97
-20.57
-24.23
-25.49
-25.21
-24.63
-24.69
-25.57
-26.67
-27.47
-27.29
-26.26
-24.95
-24.04
-24.10
-25.24
-27.00
-28.51
-29.34
-29.18
-28.48
-28.08
-28.76
-30.76
-33.68
-36.64
-38.73
-39.88
-40.31
-40.80
-42.05
-44.19
-46.83
-49.62
-52.80
-57.22
-63.34
-69.89
-73.50
-69.61
-54.68
-28.40
5.50
40.29
68.85
86.32
91.74
87.43
77.54
66.22
56.42
50.19
48.99
53.78
64.52
78.77
90.99
93.69
80.51
49.73
7.53
-32.81
-55.85
-50.86
-18.07
30.29
74.92
98.10
91.07
57.12
8.75
-38.54
-72.07
-85.01
-76.13
-48.50
-8.26
35.82
73.65
95.78
96.75
77.59
45.38
10.25
-19.02
-38.26
-48.31
-52.65
-54.55
-55.13
-53.56
-49.05
-42.33
-36.10
-33.85
-37.88
-48.14
-62.77
-79.26
-95.43
-109.50
-119.25
-121.42
-112.25
-90.54
-60.32
-31.48
-16.38
-23.81
-54.00
-97.51
-138.84
-162.60
-160.96
-136.13
-98.26
-59.49
-28.36
-7.40
5.16
13.18
21.23
30.54
41.46
53.79
67.62
84.04
104.57
129.73
159.76
195.88
238.56
288.03
344.13
406.76
475.49
548.32
619.60
666.40
668.16
615.55
517.83
398.07
281.40
185.15
119.36
76.62
48.50
30.61
20.48
15.84
12.56
6.50
-6.12
-26.76
-54.60
-85.76
-114.59
-137.24
-152.95
-164.42
-176.28
-193.22
-218.66
-254.39
-298.57
-345.15
-385.31
-409.60
-411.27
-389.10
-348.56
-299.99
-255.02
-221.76
-202.69
-195.91
-198.20
-208.30
-227.84
-259.36
-302.68
-352.28
-397.59
-426.81
-432.08
-412.73
-375.05
-329.17
-284.39
-245.87
-213.14
-182.30
-149.76
-114.69
-79.57
-48.38
-24.27
-8.07
1.61
8.25
15.37
25.04
37.06
49.54
60.39
68.51
74.33
79.35
86.78
99.91
121.00
150.48
187.16
229.54
276.75
328.85
377.70
413.58
428.48
420.78
395.40
359.56
319.22
277.91
237.43
198.68
163.52
133.97
111.33
95.35
83.88
74.25
64.14
52.26
38.47
24.48
12.72
5.15
2.23
2.25
2.82
1.67
-2.33
-8.82
-15.72
-20.31
-20.60
-14.65
-5.44
3.44
8.57
7.91
1.55
-8.42
-18.68
-25.75
-26.45
-20.03
-8.18
4.58
11.65
6.54
-15.18
-53.44
-102.37
-150.77
-186.39
-199.60
-187.08
-152.72
-105.06
-54.98
-13.75
10.18
16.30
9.45
-3.94
-19.27
-34.73
-48.85
-61.33
-70.80
-76.68
-77.44
-72.41
-62.38
-49.28
-35.66
-21.27
-5.96
10.18
27.67
48.15
73.05
103.18
139.28
176.88
215.87
255.19
291.53
319.50
332.92
325.89
294.91
240.72
158.17
58.78
-37.59
-114.10
-165.18
-194.35
-207.21
-205.86
-189.12
-156.29
-108.52
-53.69
-3.98
29.76
44.79
43.54
31.99
16.60
1.92
-8.52
-14.38
-17.21
-18.42
-18.07
-15.65
-10.78
-4.06
3.04
9.06
12.69
13.13
10.51
5.92
0.45
-5.33
-11.76
-19.78
-29.85
-42.02
-55.76
-69.75
-82.02
-90.50
-93.42
-89.69
-79.19
-62.63
-41.56
-18.22
4.80
24.98
40.07
48.55
49.91
44.91
35.42
24.08
13.42
5.07
-0.68
-4.88
-9.25
-15.44
-24.38
-35.90
-48.68
-60.59
-69.11
-71.91
-67.65
-56.70
-41.41
-25.52
-12.79
-5.24
-2.18
-0.42
4.20
14.58
30.77
49.69
66.48
76.64
77.79
70.28
56.49
39.34
21.04
2.65
-15.56
-33.34
-50.00
-64.29
-74.85
-80.77
-81.75
-78.16
-70.70
-60.25
-47.82
-34.57
-21.80
-10.66
-1.97
4.03
7.60
9.40
10.23
10.86
12.04
14.40
18.41
24.17
31.32
38.95
45.87
50.88
53.21
52.62
49.43
44.20
37.42
29.27
19.64
8.51
-3.67
-15.75
-26.10
-33.00
-35.38
-33.16
-27.37
-19.79
-12.40
-6.76
-3.67
-2.86
-3.22
-3.14
-1.03
4.05
12.07
22.01
32.27
41.21
47.67
51.17
51.74
49.66
45.27
38.96
31.27
22.97
14.98
8.02
2.37
-2.37
-7.10
-12.87
-20.43
-29.88
-40.57
-51.33
-60.81
-67.78
-71.44
-71.52
-68.42
-63.08
-56.81
-50.81
-45.73
-41.37
-36.75
-30.64
-22.25
-11.76
-0.32
10.40
18.91
24.54
27.45
28.40
28.13
27.11
25.42
23.10
20.33
17.66
15.81
15.43
16.74
19.41
22.67
25.59
27.44
27.85
26.93
24.99
22.46
19.63
16.66
13.58
10.43
7.30
4.38
1.89
0.02
-1.14
-1.60
-1.47
-0.95
-0.25
0.36
0.68
0.60
0.16
-0.45
-0.95
-1.12
-0.86
-0.24
0.59
1.47
2.27
2.92
3.32
3.35
2.93
2.05
0.85
-0.46
-1.67
-2.62
-3.31
-3.82
-4.25
-4.70
-5.21
-5.77
-6.33
-6.76
-6.93
-6.71
-6.06
-5.06
-3.92
-2.82
-1.84
-0.91
0.12
1.33
2.69
4.06
5.29
6.32
7.22
8.21
9.57
11.53
14.25
17.67
21.44
24.88
27.05
26.92
23.74
17.32
8.22
-2.34
-12.84
-21.87
-28.54
-32.58
-34.26
-34.14
-32.80
-30.68
-28.02
-24.99
-21.74
-18.45
-15.40
-12.83
-10.92
-9.72
-9.03
-8.44
-7.44
-5.55
-2.63
1.02
4.64
7.25
8.02
6.69
3.75
0.36
-1.99
-2.04
0.80
6.28
13.27
20.23
25.67
28.62
28.84
26.73
23.09
18.79
14.49
10.52
6.90
3.37
-0.35
-4.52
-9.10
-13.76
-17.95
-21.10
-22.94
-23.52
-23.19
-22.35
-21.26
-19.91
-18.12
-15.73
-12.72
-9.26
-5.62
-2.03
1.41
4.78
8.19
11.73
15.33
18.71
21.49
23.34
24.11
23.91
23.08
22.00
20.94
20.01
19.21
18.55
18.05
17.66
17.20
16.27
14.38
11.15
6.52
0.89
-5.00
-10.32
-14.42
-17.04
-18.31
-18.60
-18.27
-17.48
-16.25
-14.54
-12.47
-10.37
-8.66
-7.73
-7.71
-8.50
-9.84
-11.45
-13.12
-14.64
-15.79
-16.30
-15.90
-14.45
-11.92
-8.42
-4.10
0.79
5.94
10.93
15.37
18.96
21.64
23.62
25.21
26.54
27.43
27.45
26.10
23.09
18.54
13.03
7.42
2.66
-0.52
-1.68
-0.66
2.42
7.09
12.53
17.63
21.28
22.66
21.37
17.71
12.72
7.95
4.80
4.09
5.83
9.44
14.11
18.96
23.51
27.91
32.72
38.36
44.58
50.48
54.74
56.02
53.04
44.98
31.94
15.23
-2.83
-19.49
-32.54
-40.96
-43.94
-42.56
-40.33
-41.73
-48.90
-60.07
-70.77
-76.08
-72.47
-58.92
-37.57
-13.23
8.02
20.95
22.90
14.91
1.25
-12.37
-21.47
-24.64
-23.44
-20.43
-16.99
-12.88
-7.04
1.05
10.56
19.57
26.04
29.01
28.54
26.30
23.80
22.17
21.20
19.82
16.68
10.87
2.50
-7.67
-17.64
-25.48
-29.99
-31.22
-30.07
-27.91
-26.13
-25.63
-27.24
-30.52
-34.67
-38.91
-42.73
-45.89
-48.30
-49.87
-47.15
-41.19
-33.04
-23.58
-13.54
-3.61
5.60
13.66
20.39
25.82
29.52
31.81
33.20
34.11
34.82
35.52
36.33
37.32
38.57
39.64
40.66
41.85
43.43
45.48
47.99
50.82
53.63
56.01
56.95
56.23
53.64
49.09
42.63
34.43
24.80
14.11
3.52
-6.89
-16.61
-25.11
-31.90
-36.72
-39.51
-40.53
-40.27
-39.33
-38.38
-37.67
-37.16
-36.55
-35.49
-33.79
-31.62
-29.48
-27.98
-27.69
-28.67
-30.44
-32.14
-32.90
-32.25
-30.44
-28.42
-27.37
-28.26
-31.21
-35.42
-39.47
-42.02
-42.40
-40.97
-38.96
-38.13
-39.37
-43.16
-49.39
-57.40
-65.72
-71.86
-72.62
-65.07
-48.01
-22.96
5.83
32.95
54.03
67.30
73.71
75.62
74.90
71.95
66.22
57.51
47.28
38.68
35.07
37.99
45.92
54.75
59.38
56.24
45.17
29.66
15.61
9.02
13.25
27.40
45.74
59.39
59.23
40.02
2.57
-45.89
-94.18
-130.78
-147.27
-140.96
-115.41
-79.02
-42.52
-15.60
-3.96
-7.19
-18.88
-28.82
-27.41
-10.51
17.77
46.33
62.08
57.09
33.21
1.71
-21.95
-25.54
-6.11
28.65
63.92
84.93
83.64
62.45
31.96
5.66
-6.33
-1.69
14.19
32.35
45.59
51.29
51.11
47.99
43.32
36.69
27.05
15.02
3.29
-4.90
-8.41
-9.16
-10.86
-16.37
-24.86
-32.31
-34.62
-30.84
-23.90
-18.89
-19.79
-27.00
-38.72
-52.08
-64.67
-74.54
-79.86
-78.47
-70.82
-59.66
-48.66
-41.12
-37.78
-37.71
-39.25
-41.21
-43.79
-48.48
-55.64
-63.18
-67.32
-63.58
-49.57
-25.54
5.75
39.26
68.31
86.05
86.75
64.97
23.26
-27.69
-76.53
-111.70
-125.24
-115.73
-88.44
-52.97
-19.44
5.11
17.95
20.84
17.74
12.50
7.95
6.27
9.96
22.17
46.79
78.99
113.52
144.19
165.44
174.03
169.66
154.92
133.78
109.90
86.56
66.55
50.97
39.27
29.89
21.12
12.11
6.28
1.73
-2.59
-6.43
-9.74
-13.20
-18.09
-25.92
-37.24
-52.09
-70.43
-90.36
-108.41
-120.54
-123.64
-115.73
-99.15
-75.29
-45.68
-17.68
3.04
13.95
17.04
15.99
13.65
10.50
5.67
-2.62
-9.75
-16.38
-22.29
-24.18
-19.66
-8.62
6.95
25.62
48.02
69.60
90.40
111.65
136.30
164.73
195.05
224.02
250.04
273.58
296.30
319.92
325.99
303.36
252.11
184.02
112.80
47.25
-10.35
-60.86
-105.14
-142.43
-167.71
-176.90
-168.13
-147.29
-123.63
-106.09
-99.63
-103.98
-113.95
-119.27
-110.68
-83.08
-39.38
11.70
56.64
83.45
84.68
60.19
19.46
-26.19
-57.58
-58.42
-25.87
25.81
73.64
97.34
88.13
51.18
-0.21
-50.98
-92.09
-121.10
-139.15
-146.82
-143.42
-128.10
-102.62
-73.14
-48.23
-36.75
-42.81
-62.64
-85.18
-97.25
-89.43
-60.32
-17.42
27.02
60.43
75.18
71.41
56.95
40.95
31.00
29.61
33.52
37.10
34.76
23.99
6.60
-12.35
-26.54
-30.50
-21.18
1.14
32.77
66.10
91.12
98.76
84.52
51.13
8.86
-27.90
-46.19
-39.74
-12.18
24.39
54.96
67.90
59.30
33.54
-0.02
-32.01
-54.44
-62.75
-57.16
-41.35
-20.37
1.38
21.09
37.47
50.41
60.78
70.29
80.98
94.75
112.01
130.49
145.00
148.57
135.01
101.51
49.98
-13.20
-78.79
-137.17
-180.82
-205.88
-212.60
-204.84
-188.83
-171.57
-158.72
-152.62
-151.57
-150.75
-144.72
-130.08
-107.05
-79.11
-51.42
-28.72
-14.21
-9.52
-15.14
-30.58
-54.01
-81.74
-108.33
-127.78
-135.15
-128.01
-106.98
-75.26
-37.59
0.68
34.44
59.61
73.84
76.78
69.96
56.17
38.49
19.73
2.16
-12.22
-21.52
-24.19
-19.51
-8.11
8.02
26.14
43.73
59.37
73.18
86.43
100.59
116.42
133.50
150.22
164.48
174.31
178.40
176.27
168.08
154.46
136.36
115.09
92.25
69.43
47.90
28.26
10.39
-6.21
-21.96
-36.83
-50.14
-60.81
-67.69
-70.01
-67.70
-61.56
-53.19
-44.60
-37.63
-33.35
-31.67
-31.47
-31.18
-29.62
-26.51
-22.56
-18.99
-16.76
-16.14
-16.65
-17.49
-18.14
-18.66
-19.58
-21.44
-24.11
-26.58
-27.08
-23.93
-16.30
-4.81
8.60
21.47
31.71
38.26
41.19
41.19
38.86
34.32
27.20
17.07
3.97
-11.26
-26.99
-41.21
-52.00
-57.93
-58.35
-53.35
-43.56
-29.86
-13.24
5.33
24.75
43.68
60.33
72.57
78.32
76.21
66.23
49.89
29.88
9.25
-9.47
-24.84
-36.39
-44.21
-48.42
-49.07
-46.50
-41.65
-35.99
-30.81
-26.26
-21.06
-13.12
-0.88
15.51
33.81
50.58
62.56
68.04
67.23
61.58
52.67
41.38
27.70
11.30
-7.54
-27.56
-46.51
-61.89
-71.76
-75.40
-73.45
-67.58
-59.77
-51.67
-44.31
-38.23
-33.90
-32.03
-33.51
-39.04
-48.60
-61.13
-74.62
-86.66
-95.25
-99.39
-99.43
-96.97
-94.37
-94.05
-97.63
-105.36
-116.01
-126.86
-133.99
-132.80
-119.08
-90.23
-46.48
8.79
69.81
130.02
183.74
226.95
257.18
272.71
272.27
255.44
223.86
182.17
137.64
98.26
70.07
55.07
50.93
52.45
54.16
52.43
46.34
37.14
26.92
17.20
8.47
0.61
-6.19
-10.87
-11.68
-7.26
2.10
14.00
24.45
29.63
27.56
19.19
7.93
-1.88
-6.90
-6.27
-1.89
2.30
1.81
-6.72
-24.22
-48.62
-75.32
-98.53
-113.33
-117.44
-111.98
-100.78
-88.39
-78.00
-70.22
-63.41
-55.26
-44.53
-31.96
-20.03
-11.66
-8.94
-12.34
-20.51
-30.48
-38.10
-38.92
-29.74
-10.01
16.86
43.99
63.20
68.15
56.87
32.28
0.72
-30.74
-56.58
-74.35
-84.61
-89.56
-91.50
-91.63
-89.46
-83.06
-69.92
-47.96
-17.07
20.42
60.52
99.07
132.97
160.67
181.61
195.04
199.74
192.44
168.83
126.24
66.68
-1.90
-67.13
-115.83
-138.06
-128.55
-90.64
-35.36
22.47
69.18
95.23
96.18
72.71
30.15
-19.70
-64.92
-97.00
-111.59
-106.68
-81.29
-35.13
30.77
113.04
208.52
308.60
399.50
466.70
501.03
501.11
471.72
420.79
332.45
210.21
79.14
-28.24
-93.75
-119.91
-122.00
-117.77
-119.91
-131.60
-147.88
-163.63
-177.65
-192.00
-208.09
-223.78
-233.51
-230.68
-207.61
-160.51
-93.52
-18.27
50.44
100.39
125.20
124.32
101.72
64.44
22.40
-15.04
-41.85
-56.56
-61.44
-61.01
-60.05
-61.41
-64.82
-66.98
-64.31
-55.58
-42.48
-28.33
-16.06
-7.13
-1.50
1.60
2.80
2.20
-0.66
-6.28
-14.86
-26.35
-40.79
-58.30
-78.66
-101.02
-123.41
-143.11
-157.48
-164.65
-164.03
-156.19
-142.55
-125.06
-105.83
-86.65
-68.66
-52.12
-36.56
-21.34
-6.28
7.90
19.74
27.72
31.17
30.74
28.27
26.05
25.88
28.53
33.80
41.02
49.61
59.09
68.88
78.12
86.03
92.54
98.76
106.36
116.26
127.16
134.99
134.26
120.33
91.52
49.71
-0.98
-56.72
-115.86
-178.87
-246.32
-316.18
-382.38
-435.95
-468.35
-475.09
-457.81
-423.30
-380.29
-335.64
-291.94
-247.43
-198.38
-142.12
-79.33
-14.70
44.75
92.43
124.71
142.14
149.05
151.85
156.83
167.88
185.59
207.43
229.34
247.51
259.91
266.61
268.91
268.03
264.12
256.17
242.86
223.82
200.41
175.59
152.63
133.47
117.79
103.41
87.78
69.79
50.56
33.09
20.87
16.19
19.03
26.95
36.09
42.46
43.35
38.20
28.61
17.76
9.12
5.23
6.88
12.97
21.18
29.02
34.91
38.53
40.65
42.30
44.04
45.57
46.04
44.53
40.57
34.20
25.76
15.60
3.86
-9.39
-23.85
-38.73
-52.84
-64.87
-73.73
-78.80
-80.05
-77.91
-73.09
-66.32
-58.23
-49.14
-39.06
-27.75
-14.99
-0.90
13.84
27.99
40.05
48.73
53.42
54.25
52.01
47.72
42.17
35.72
28.31
19.70
9.75
-1.29
-12.75
-23.70
-33.21
-40.64
-45.83
-49.07
-50.92
-51.90
-52.25
-51.88
-50.55
-48.10
-44.64
-40.48
-35.98
-31.40
-26.80
-22.17
-17.64
-13.53
-10.33
-8.39
-7.72
-7.90
-8.16
-7.75
-6.18
-3.38
0.32
4.45
8.58
12.52
16.23
19.79
23.24
26.58
29.74
32.62
35.07
36.82
37.48
36.61
33.93
29.42
23.50
16.88
10.35
4.50
-0.39
-4.40
-7.81
-10.89
-13.80
-16.56
-19.08
-21.32
-23.22
-24.73
-25.74
-26.08
-25.56
-24.11
-21.92
-19.43
-17.26
-16.01
-16.06
-17.29
-19.28
-21.41
-23.16
-24.21
-24.41
-23.80
-22.68
-21.77
-22.04
-24.60
-30.01
-37.76
-45.96
-51.69
-52.05
-45.37
-31.94
-13.82
6.18
25.76
43.88
60.65
76.54
91.53
104.94
115.90
124.16
130.59
136.82
144.40
153.57
162.90
169.53
170.35
163.10
147.05
122.91
92.19
56.61
17.96
-21.18
-57.03
-85.10
-101.52
-104.76
-96.46
-80.81
-62.64
-45.29
-29.47
-13.81
3.38
22.37
41.37
57.48
68.46
74.04
76.40
79.21
85.87
97.92
114.38
132.08
147.17
156.65
159.35
155.98
148.24
137.52
124.00
106.77
84.67
57.35
26.04
-7.04
-39.15
-68.04
-92.55
-112.71
-129.33
-143.41
-155.41
-165.08
-172.32
-176.85
-178.49
-177.45
-174.40
-170.29
-165.71
-160.35
-153.02
-143.99
-134.05
-124.53
-116.77
-111.77
-109.76
-109.75
-109.55
-106.41
-100.70
-93.53
-85.91
-78.02
-69.87
-62.60
-58.89
-62.04
-74.13
-97.72
-131.35
-169.63
-205.52
-234.44
-257.09
-278.76
-305.80
-320.41
-307.83
-261.79
-189.92
-108.17
-31.55
30.68
75.49
105.27
125.65
139.26
147.46
150.48
148.63
142.49
133.05
121.53
109.73
99.98
92.11
86.12
82.42
81.71
83.33
86.34
88.35
87.04
81.47
71.21
58.32
46.68
40.15
40.52
46.79
55.08
60.66
59.87
50.97
35.75
19.03
5.88
0.26
4.63
19.37
42.73
71.01
96.29
110.18
107.54
87.98
57.52
27.73
11.02
15.62
42.68
86.99
140.35
194.89
241.98
272.91
280.64
260.72
212.73
141.43
56.41
-33.43
-109.50
-156.21
-171.21
-163.30
-144.46
-123.45
-104.76
-89.90
-78.56
-69.02
-60.76
-55.66
-53.04
-52.26
-53.40
-57.32
-65.24
-78.34
-97.09
-119.14
-143.38
-165.91
-180.33
-180.04
-161.39
-126.16
-81.40
-36.63
-0.97
20.03
27.08
24.85
18.62
11.75
4.95
-2.54
-11.07
-20.12
-28.75
-35.30
-38.60
-39.49
-39.45
-40.07
-42.08
-45.11
-48.27
-50.86
-51.89
-51.32
-49.93
-48.85
-49.15
-51.46
-55.79
-61.73
-68.91
-76.30
-83.31
-89.72
-95.35
-100.00
-103.26
-104.18
-100.98
-95.61
-87.63
-76.32
-61.11
-42.00
-19.77
4.05
27.63
49.27
67.89
83.90
98.33
112.67
128.70
148.08
171.83
199.61
229.09
255.86
274.86
281.40
272.97
250.45
217.88
181.09
145.80
115.91
92.86
76.39
65.23
58.24
54.94
55.46
59.88
67.67
77.44
87.18
95.01
99.70
101.04
99.62
96.23
91.21
84.18
74.48
61.80
46.79
31.00
16.20
3.65
-6.46
-14.98
-23.21
-32.04
-41.52
-50.73
-58.29
-63.03
-64.38
-62.55
-58.13
-51.84
-44.22
-35.71
-26.74
-17.88
-9.80
-3.07
2.11
6.00
9.21
12.42
16.18
20.68
25.84
31.34
36.76
41.56
45.11
46.75
45.97
42.60
36.88
29.49
21.29
13.08
5.31
-1.90
-8.70
-15.33
-21.97
-28.69
-35.40
-41.88
-47.73
-52.45
-55.56
-56.80
-56.21
-54.23
-51.51
-48.61
-45.82
-43.06
-40.03
-36.52
-32.49
-28.16
-23.87
-19.90
-16.46
-13.72
-11.88
-11.13
-11.60
-13.15
-15.26
-17.19
-18.14
-17.58
-15.36
-11.76
-7.34
-2.79
1.25
4.18
5.58
5.26
3.26
-0.07
-4.16
-8.38
-12.18
-15.19
-17.30
-18.61
-19.33
-19.75
-20.13
-20.69
-21.54
-22.71
-24.08
-25.46
-26.59
-27.25
-27.25
-26.53
-25.13
-23.17
-20.84
-18.30
-15.70
-13.15
-10.72
-8.52
-6.67
-5.27
-4.43
-4.14
-4.29
-4.69
-5.16
-5.51
-5.66
-5.64
-5.56
-5.57
-5.77
-6.14
-6.55
-6.85
-6.88
-6.65
-6.26
-5.83
-5.39
-4.75
-3.61
-1.62
1.31
5.00
8.97
12.62
15.40
16.98
17.22
16.16
13.97
10.88
7.17
3.15
-0.88
-4.60
-7.78
-10.21
-11.77
-12.39
-12.06
-10.87
-9.00
-6.71
-4.34
-2.19
-0.50
0.65
1.28
1.48
1.35
0.96
0.35
-0.38
-1.03
-1.29
-0.75
0.91
3.73
7.44
11.47
15.12
17.86
19.40
19.84
19.50
18.82
18.26
18.09
18.31
18.54
18.02
15.78
11.06
3.74
-5.44
-14.99
-23.16
-28.62
-30.89
-30.44
-28.28
-25.36
-22.16
-18.62
-14.40
-9.28
-3.46
2.53
8.01
12.47
15.75
17.99
19.42
20.24
20.47
20.01
18.76
16.65
13.74
10.20
6.32
2.43
-1.05
-3.76
-5.45
-6.09
-5.91
-5.36
-4.96
-5.24
-6.55
-9.09
-12.82
-17.57
-23.02
-28.78
-34.33
-39.18
-42.87
-45.13
-45.94
-45.51
-44.14
-42.02
-39.09
-35.09
-29.77
-23.08
-15.27
-6.82
1.76
10.05
17.83
24.90
30.98
35.65
38.53
39.43
38.52
36.28
33.27
29.91
26.38
22.67
18.83
15.09
11.91
9.75
8.79
8.81
9.24
9.38
8.74
7.20
4.97
2.41
-0.20
-2.71
-5.11
-7.42
-9.65
-11.75
-13.70
-15.52
-17.26
-18.90
-20.32
-21.31
-21.63
-21.09
-19.61
-17.24
-14.07
-10.26
-5.99
-1.45
3.11
7.38
11.02
13.67
15.04
15.01
13.69
11.49
9.02
7.00
5.98
6.21
7.47
9.22
10.80
11.72
11.86
11.50
11.15
11.26
12.07
13.48
15.15
16.61
17.44
17.30
15.88
12.91
8.26
1.98
-5.45
-13.23
-20.32
-25.76
-28.88
-29.53
-27.92
-24.59
-20.14
-15.14
-10.02
-5.13
-0.63
3.44
7.12
10.51
13.59
16.25
18.22
19.25
19.20
18.08
16.10
13.53
10.64
7.60
4.52
1.46
-1.55
-4.48
-7.28
-9.90
-12.24
-14.20
-15.60
-16.26
-16.07
-14.99
-13.14
-10.70
-7.89
-4.90
-1.86
1.18
4.17
7.07
9.81
12.32
14.56
16.50
18.14
19.46
20.41
20.85
20.65
19.68
17.92
15.47
12.53
9.37
6.29
3.55
1.34
-0.26
-1.26
-1.75
-1.86
-1.72
-1.49
-1.32
-1.36
-1.72
-2.42
-3.33
-4.23
-4.86
-5.04
-4.78
-4.27
-3.82
-3.69
-3.96
-4.53
-5.18
-5.64
-5.74
-5.48
-4.92
-4.17
-3.31
-2.37
-1.35
-0.28
0.74
1.60
2.18
2.44
2.42
2.22
1.96
1.71
1.56
1.53
1.65
1.89
2.19
2.44
2.52
2.33
1.88
1.23
0.45
-0.37
-1.19
-1.98
-2.67
-3.23
-3.57
-3.71
-3.65
-3.43
-3.04
-2.41
-1.51
-0.37
0.86
1.94
2.65
2.89
2.71
2.27
1.81
1.48
1.34
1.36
1.45
1.56
1.66
1.76
1.90
2.06
2.20
2.29
2.26
2.11
1.83
1.49
1.10
0.74
0.45
0.27
0.23
0.31
0.46
0.57
0.60
0.57
0.55
0.65
0.95
1.52
2.33
3.30
4.26
5.05
5.52
5.58
5.27
4.75
4.20
3.78
3.53
3.37
3.19
2.94
2.77
2.99
3.99
6.01
9.00
12.55
16.03
18.82
20.57
21.38
21.73
22.30
23.67
25.99
28.87
31.47
32.84
32.30
29.81
26.10
22.45
20.32
20.72
23.84
29.01
35.04
40.72
45.35
49.12
53.06
58.76
67.60
79.72
93.26
104.10
106.38
93.62
60.64
5.66
-67.96
-151.51
-232.45
-297.45
-335.98
-343.00
-320.08
-274.42
-216.16
-155.38
-99.77
-53.73
-18.64
6.01
21.64
29.33
29.60
22.90
10.31
-6.04
-23.26
-38.18
-48.16
-51.05
-46.02
-33.71
-15.66
6.33
30.35
54.54
77.24
97.65
116.56
134.86
152.60
168.83
182.11
191.00
194.23
191.03
181.79
169.03
155.55
143.10
131.91
120.78
107.20
87.73
59.09
15.10
-41.48
-98.79
-143.07
-167.43
-173.66
-168.01
-156.80
-144.30
-132.12
-119.41
-105.95
-93.44
-84.57
-80.67
-80.10
-78.76
-72.01
-56.85
-33.14
-4.74
21.93
41.62
51.89
53.76
50.36
44.80
38.88
33.26
27.41
20.44
12.01
2.77
-5.99
-13.02
-17.81
-20.34
-20.79
-19.59
-17.14
-13.86
-9.97
-5.34
0.53
7.71
16.27
26.18
36.93
47.31
55.37
58.98
56.74
48.55
35.81
21.06
7.10
-3.96
-11.24
-15.07
-16.47
-16.38
-15.32
-13.41
-10.71
-7.47
-4.30
-2.07
-1.54
-3.08
-6.41
-10.82
-15.46
-19.67
-23.07
-25.70
-27.81
-29.63
-31.07
-31.54
-30.39
-27.35
-22.90
-17.74
-12.66
-8.20
-4.47
-1.15
2.57
7.15
12.30
16.68
19.16
18.92
15.74
9.93
2.41
-5.18
-11.45
-15.88
-19.14
-21.37
-22.15
-20.73
-16.44
-9.02
1.83
15.65
31.11
45.89
58.84
69.52
77.67
82.81
80.34
68.08
48.34
29.96
14.89
2.55
-9.06
-21.22
-34.84
-49.92
-64.70
-76.82
-84.37
-87.15
-85.26
-79.51
-71.34
-62.39
-53.87
-45.87
-38.17
-30.96
-25.41
-21.95
-20.43
-20.04
-19.60
-17.92
-14.04
-7.98
-0.95
4.95
8.34
8.87
7.11
4.12
0.94
-1.57
-3.13
-3.92
-4.45
-4.82
-4.71
-3.43
-0.27
5.31
13.44
23.61
34.80
45.73
55.44
63.33
69.08
72.27
72.15
67.72
58.18
43.58
25.31
5.95
-11.45
-24.36
-31.62
-33.66
-32.11
-28.92
-25.57
-22.62
-19.82
-16.54
-12.34
-7.27
-1.88
3.09
7.09
9.97
11.95
13.49
14.97
16.54
18.08
19.30
19.99
20.07
19.70
19.06
18.24
17.16
15.48
12.84
9.00
3.97
-1.89
-8.05
-13.86
-18.75
-22.36
-24.55
-25.37
-25.01
-23.72
-21.74
-19.31
-16.62
-13.80
-10.95
-8.12
-5.38
-2.78
-0.42
1.63
3.39
4.95
6.46
8.10
9.96
11.99
14.09
16.07
17.85
19.35
20.56
21.43
21.81
21.54
20.47
18.57
15.99
13.08
10.24
7.84
6.09
4.99
4.36
3.97
3.60
3.16
2.69
2.29
2.09
2.13
2.29
2.28
1.65
-0.06
-3.11
-7.44
-12.58
-17.74
-22.05
-24.76
-25.46
-24.12
-21.04
-16.73
-11.76
-6.66
-1.88
2.25
5.54
7.92
9.48
10.35
10.70
10.66
10.40
10.09
9.91
10.00
10.43
11.08
11.67
11.94
11.71
10.97
9.95
8.86
7.83
6.83
5.72
4.37
2.79
1.17
-0.26
-1.25
-1.71
-1.69
-1.30
-0.71
-0.04
0.66
1.33
1.94
2.43
2.75
2.86
2.80
2.63
2.47
2.38
2.39
2.46
2.54
2.57
2.49
2.29
1.92
1.30
0.38
-0.90
-2.48
-4.25
-6.03
-7.65
-9.01
-10.05
-10.72
-11.01
-10.88
-10.35
-9.50
-8.47
-7.39
-6.33
-5.28
-4.16
-2.89
-1.45
0.04
1.41
2.51
3.28
3.82
4.28
4.82
5.48
6.14
6.57
6.54
5.93
4.78
3.24
1.47
-0.38
-2.23
-4.02
-5.65
-6.99
-7.93
-8.41
-8.52
-8.43
-8.32
-8.32
-8.40
-8.48
-8.43
-8.23
-7.91
-7.54
-7.17
-6.75
-6.19
-5.41
-4.44
-3.42
-2.53
-1.90
-1.51
-1.24
-0.91
-0.33
0.54
1.70
3.05
4.51
6.00
7.49
8.97
10.49
12.11
13.89
15.82
17.77
19.50
20.65
20.90
19.96
17.80
14.63
10.89
7.11
3.78
1.18
-0.67
-1.96
-3.02
-4.13
-5.45
-7.07
-8.93
-10.89
-12.78
-14.41
-15.54
-16.03
-15.77
-14.76
-13.04
-10.68
-7.71
-4.19
-0.21
4.06
8.34
12.35
15.83
18.61
20.65
21.94
22.47
22.28
21.42
20.02
18.30
16.61
15.25
14.38
13.96
13.74
13.41
12.81
11.99
11.24
10.94
11.31
12.25
13.37
14.16
14.29
13.86
13.42
13.72
15.36
18.45
22.54
26.77
30.34
32.81
34.30
35.48
37.27
40.30
44.55
49.09
52.59
54.03
53.21
50.93
48.81
48.62
51.48
57.26
64.50
71.26
75.97
77.90
76.74
72.64
66.03
57.83
49.73
43.47
40.30
40.03
40.41
37.16
27.45
12.76
-0.36
-2.45
12.93
46.01
89.78
132.21
159.15
161.75
140.05
101.95
59.40
20.67
-10.35
-33.77
-52.31
-72.60
-100.21
-137.52
-183.33
-232.63
-281.78
-325.84
-359.03
-377.02
-382.72
-381.69
-378.80
-375.99
-371.12
-365.03
-358.51
-351.56
-318.47
-245.10
-136.33
-13.21
90.84
175.78
242.97
291.67
320.80
330.28
320.64
296.84
267.10
239.74
221.08
208.71
197.22
182.49
163.47
139.15
110.83
81.67
55.67
36.79
23.90
13.79
4.14
-5.53
-16.19
-28.13
-40.80
-52.85
-62.04
-68.39
-73.69
-78.59
-82.12
-83.53
-82.89
-81.23
-79.72
-78.80
-78.94
-82.29
-89.18
-97.72
-105.49
-111.44
-116.42
-121.84
-128.53
-136.39
-147.77
-163.40
-181.42
-198.70
-213.25
-224.94
-234.49
-242.74
-229.48
-187.11
-125.32
-63.64
-15.81
15.94
36.27
50.90
63.00
73.06
76.56
71.57
62.64
59.05
69.38
95.67
135.40
180.47
220.90
245.27
247.84
230.88
201.79
168.36
135.90
107.45
82.53
65.98
60.79
65.12
75.43
86.14
90.30
82.19
56.99
17.01
-29.16
-72.00
-103.68
-120.10
-122.17
-114.70
-103.62
-93.17
-84.58
-76.85
-69.49
-62.70
-56.82
-52.02
-47.85
-42.99
-35.67
-24.18
-7.99
11.33
30.87
47.81
60.36
68.38
73.22
76.89
81.08
86.26
91.32
94.47
94.37
90.69
84.20
76.14
67.49
58.76
49.91
40.56
30.43
19.66
8.80
-1.30
-9.84
-16.33
-20.63
-22.96
-23.81
-23.76
-23.39
-23.06
-22.84
-22.78
-23.09
-23.98
-25.50
-27.54
-29.80
-31.92
-33.49
-33.71
-32.31
-29.64
-26.24
-22.39
-18.12
-13.30
-7.81
-1.57
6.20
15.34
24.57
32.44
38.30
42.15
44.31
45.09
44.65
44.61
45.57
46.96
48.59
51.55
57.38
66.99
80.11
95.93
115.51
138.43
161.88
181.53
192.61
190.41
171.19
133.53
68.23
-17.91
-106.07
-179.10
-231.05
-264.41
-282.70
-287.25
-278.23
-256.94
-225.44
-189.75
-158.15
-136.56
-126.79
-126.89
-132.59
-139.61
-143.88
-140.42
-126.89
-104.57
-76.48
-46.69
-18.79
4.99
24.52
41.90
61.75
88.71
120.31
155.40
193.32
233.57
274.36
311.35
337.70
346.57
333.77
300.73
256.25
212.72
180.68
163.66
156.70
149.26
130.87
95.70
43.90
-19.91
-91.23
-168.03
-249.96
-335.13
-417.03
-484.62
-525.81
-532.75
-505.26
-451.49
-384.39
-316.41
-255.20
-202.21
-154.38
-107.42
-58.56
-7.43
44.07
92.95
136.16
171.20
196.63
212.21
218.75
217.72
211.03
200.38
187.30
173.07
159.02
147.01
138.43
133.49
130.97
128.86
125.07
118.81
110.40
101.01
93.01
88.02
86.03
85.67
85.29
83.44
80.16
75.98
71.64
69.56
71.32
76.86
84.53
92.20
97.57
100.15
100.12
98.32
98.56
103.89
115.72
133.40
155.02
177.37
198.35
215.78
214.40
186.92
136.79
77.48
22.66
-16.09
-43.46
-64.80
-84.08
-103.19
-119.99
-133.82
-145.44
-157.36
-172.39
-193.47
-220.79
-253.72
-290.60
-327.58
-363.44
-396.68
-424.50
-442.19
-445.68
-431.44
-399.08
-350.18
-273.41
-171.35
-59.33
42.28
119.36
166.52
190.28
197.27
192.65
181.37
165.44
147.33
127.50
109.95
98.33
94.41
96.48
100.72
102.78
97.93
85.34
68.55
53.76
45.31
43.95
46.56
49.10
49.05
45.38
39.63
34.21
30.57
27.33
21.49
10.59
-4.80
-20.84
-32.92
-37.55
-34.20
-25.22
-14.81
-6.49
-1.50
1.30
3.84
6.68
8.56
7.35
1.96
-6.68
-15.64
-21.62
-22.71
-19.34
-13.82
-8.69
-5.20
-2.78
0.00
4.06
8.82
12.45
13.16
10.54
6.03
2.26
1.44
4.00
8.35
11.76
12.04
8.72
3.22
-2.20
-5.78
-7.26
-7.79
-8.89
-11.36
-14.70
-17.44
-18.15
-16.32
-12.50
-7.85
-3.22
1.24
6.00
11.45
17.31
22.53
25.76
26.24
24.22
20.85
17.40
14.47
11.71
8.19
3.25
-2.91
-9.14
-14.10
-17.00
-18.12
-18.58
-19.55
-21.53
-24.00
-25.95
-26.60
-26.02
-25.06
-24.69
-25.30
-26.25
-26.33
-24.47
-20.49
-15.31
-10.45
-7.24
-6.12
-6.57
-7.44
-7.68
-6.78
-4.87
-2.47
-0.05
2.17
4.18
6.01
7.44
8.09
7.58
5.88
3.50
1.42
0.74
2.17
5.63
10.20
14.51
17.37
18.31
17.73
16.56
15.61
15.04
14.28
12.54
9.46
5.66
2.61
1.83
4.08
8.76
14.03
17.61
17.78
14.12
7.66
0.46
-5.40
-8.44
-8.37
-6.17
-3.61
-2.54
-4.14
-8.41
-14.26
-20.32
-25.49
-29.54
-33.20
-37.59
-43.60
-51.47
-60.78
-70.71
-80.87
-90.83
-100.17
-108.12
-113.44
-114.68
-110.90
-102.08
-89.10
-73.76
-57.40
-40.71
-23.97
-7.81
6.16
15.03
15.53
9.60
0.03
-8.32
-11.08
-6.81
2.70
14.20
24.71
32.99
39.63
45.35
50.29
53.36
52.95
48.26
40.42
32.22
27.08
28.10
36.56
51.83
71.54
92.42
109.34
119.28
121.60
117.26
107.72
93.82
76.11
55.19
32.51
10.56
-7.54
-19.63
-25.46
-26.81
-26.70
-27.81
-31.54
-38.10
-46.14
-53.84
-59.77
-63.22
-64.06
-62.55
-58.83
-53.07
-45.49
-36.42
-26.33
-15.92
-6.07
2.43
9.04
13.73
16.66
18.11
18.45
17.99
16.96
15.44
13.65
10.59
6.24
0.67
-6.03
-13.92
-23.28
-34.40
-47.24
-61.01
-74.00
-83.78
-88.24
-86.30
-78.48
-66.84
-54.32
-43.95
-38.18
-38.50
-44.86
-55.46
-66.53
-72.89
-69.54
-53.60
-25.96
8.51
42.54
69.33
84.99
89.68
86.79
80.90
75.80
73.51
74.45
78.34
84.91
93.98
105.10
117.20
128.76
138.22
144.49
147.28
146.90
143.74
137.81
128.64
115.54
98.11
76.63
52.20
26.72
2.63
-17.65
-32.17
-39.86
-40.85
-36.37
-28.44
-19.44
-11.43
-5.81
-3.07
-2.96
-4.64
-7.14
-9.58
-11.45
-12.70
-13.60
-14.67
-16.39
-19.03
-22.61
-26.90
-31.54
-36.17
-40.52
-44.44
-47.82
-50.62
-52.82
-54.43
-55.47
-56.04
-56.20
-56.02
-55.53
-54.65
-53.29
-51.31
-48.62
-45.21
-41.21
-36.84
-32.37
-28.07
-24.15
-20.67
-17.64
-14.97
-12.62
-10.56
-8.77
-7.22
-5.83
-4.43
-2.81
-0.87
1.38
3.68
5.70
7.09
7.64
7.35
6.48
5.38
4.38
3.68
3.36
3.37
3.71
4.38
5.49
7.08
9.12
11.48
13.93
16.21
18.04
19.17
19.43
18.78
17.29
15.19
12.72
10.14
7.58
5.10
2.72
0.47
-1.57
-3.32
-4.77
-5.98
-7.04
-8.02
-8.92
-9.65
-10.11
-10.26
-10.14
-9.79
-9.26
-8.57
-7.74
-6.82
-5.89
-5.07
-4.43
-3.92
-3.41
-2.72
-1.71
-0.31
1.45
3.46
5.62
7.83
10.03
12.17
14.14
15.81
17.00
17.56
17.47
16.80
15.73
14.43
13.07
11.73
10.47
9.28
8.13
7.01
5.92
4.85
3.84
2.96
2.27
1.85
1.71
1.82
2.09
2.45
2.78
2.97
2.89
2.43
1.52
0.22
-1.30
-2.74
-3.78
-4.14
-3.70
-2.53
-0.86
1.02
2.86
4.51
5.90
7.04
7.98
8.75
9.34
9.78
10.06
10.21
10.21
10.03
9.62
8.98
8.11
7.14
6.18
5.37
4.78
4.37
4.04
3.67
3.18
2.57
1.92
1.31
0.78
0.32
-0.11
-0.55
-1.01
-1.50
-2.03
-2.63
-3.34
-4.08
-4.72
-5.07
-4.96
-4.32
-3.22
-1.83
-0.32
1.16
2.57
3.86
5.04
6.06
6.88
7.45
7.74
7.76
7.53
7.12
6.60
6.04
5.47
4.90
4.32
3.79
3.33
2.99
2.72
2.50
2.27
2.02
1.74
1.42
1.04
0.51
-0.21
-1.09
-1.98
-2.71
-3.11
-3.17
-3.05
-2.97
-3.09
-3.45
-3.91
-4.27
-4.38
-4.22
-3.88
-3.52
-3.21
-2.90
-2.43
-1.62
-0.38
1.22
3.03
4.87
6.59
8.14
9.45
10.47
11.12
11.34
11.12
10.50
9.55
8.35
6.94
5.37
3.71
2.10
0.67
-0.44
-1.16
-1.52
-1.61
-1.50
-1.31
-1.09
-0.93
-0.91
-1.15
-1.72
-2.67
-3.98
-5.51
-7.10
-8.61
-9.92
-10.95
-11.67
-12.03
-11.97
-11.44
-10.41
-8.90
-6.95
-4.67
-2.19
0.34
2.73
4.77
6.26
7.10
7.28
6.92
6.20
5.34
4.45
3.54
2.55
1.39
-0.02
-1.63
-3.35
-5.02
-6.46
-7.51
-8.08
-8.10
-7.57
-6.57
-5.23
-3.77
-2.47
-1.61
-1.38
-1.81
-2.72
-3.81
-4.71
-5.12
-4.90
-4.08
-2.80
-1.22
0.53
2.40
4.30
6.11
7.61
8.60
8.89
8.48
7.49
6.19
4.83
3.58
2.54
1.71
1.10
0.70
0.57
0.72
1.12
1.68
2.30
2.91
3.49
4.07
4.66
5.24
5.76
6.17
6.49
6.78
7.13
7.58
8.10
8.57
8.84
8.79
8.39
7.70
6.85
5.95
5.12
4.42
3.89
3.50
3.19
2.89
2.57
2.28
2.08
2.00
2.02
1.99
1.74
1.13
0.14
-1.15
-2.59
-4.10
-5.72
-7.62
-10.01
-13.02
-16.63
-20.68
-24.75
-28.30
-30.73
-31.54
-30.55
-27.91
-24.20
-20.40
-17.66
-16.84
-18.22
-21.30
-25.09
-28.35
-29.88
-28.78
-24.77
-17.89
-8.19
4.39
19.97
38.19
58.20
78.74
98.39
115.49
128.69
137.36
141.72
142.54
140.21
134.66
125.36
111.64
92.61
67.87
38.01
4.78
-29.28
-62.00
-91.68
-117.36
-135.74
-143.80
-140.93
-129.24
-113.03
-93.68
-72.15
-49.78
-28.23
-9.69
3.74
11.25
13.70
13.42
13.34
15.22
19.44
25.15
30.93
35.18
36.71
34.96
29.97
22.31
12.39
0.74
-11.68
-23.59
-34.08
-41.73
-46.04
-47.96
-49.14
-50.97
-53.51
-55.17
-53.68
-47.48
-36.39
-21.95
-6.52
7.70
19.12
26.47
29.14
26.98
20.00
9.29
-2.80
-12.65
-16.88
-14.24
-6.58
1.66
5.25
-0.13
-14.57
-32.93
-45.81
-43.54
-23.19
8.65
40.37
62.54
71.58
69.05
58.18
41.19
19.45
-4.43
-24.74
-33.89
-26.69
-4.58
24.06
47.80
57.78
51.94
34.60
13.46
-4.66
-16.29
-21.64
-22.91
-21.15
-17.03
-11.67
-7.46
-6.89
-11.13
-18.82
-26.13
-27.85
-19.55
0.13
28.84
60.97
89.39
107.70
112.06
102.01
80.82
54.51
29.80
12.11
4.12
5.29
12.56
23.53
34.90
44.25
50.50
53.36
52.60
47.53
37.19
21.01
-0.61
-26.35
-53.99
-81.10
-105.71
-126.40
-142.15
-152.10
-155.51
-152.11
-142.49
-127.93
-110.22
-91.38
-73.27
-57.19
-43.64
-32.19
-21.70
-10.89
1.15
14.24
26.86
36.47
40.44
37.04
26.05
8.76
-12.53
-35.04
-55.93
-72.52
-82.39
-83.74
-75.88
-59.76
-38.12
-14.95
5.50
19.91
26.73
26.41
20.94
13.16
5.98
1.84
2.25
7.42
16.23
26.50
35.77
42.34
46.03
48.16
50.82
55.61
62.77
70.88
77.55
80.32
77.68
69.50
56.98
42.48
29.01
19.55
16.25
19.59
27.87
37.73
45.24
47.45
43.26
33.35
19.24
2.25
-16.73
-36.74
-55.69
-70.07
-75.86
-70.42
-54.25
-31.49
-8.77
7.28
12.40
5.88
-9.90
-31.20
-54.68
-78.41
-101.60
-123.82
-144.11
-160.89
-172.47
-177.92
-177.53
-172.59
-164.36
-153.11
-137.68
-116.08
-86.87
-50.51
-9.94
29.97
64.04
88.55
102.47
107.49
107.08
104.80
103.04
102.34
101.62
98.96
92.50
81.22
65.31
46.16
26.00
7.44
-7.13
-16.16
-19.32
-17.43
-12.22
-5.54
1.20
7.39
13.12
18.68
23.98
28.35
30.69
30.13
26.68
21.54
16.81
14.88
17.49
25.12
36.62
49.48
60.47
66.47
65.40
56.63
41.12
21.07
-0.70
-21.38
-38.73
-51.59
-60.09
-65.74
-70.99
-78.09
-87.70
-97.67
-103.12
-97.99
-77.71
-41.61
6.02
57.12
102.57
135.17
151.51
152.02
139.71
118.34
91.35
61.60
31.76
4.58
-17.43
-32.72
-41.38
-45.26
-47.23
-49.80
-53.75
-57.63
-58.26
-52.43
-38.61
-17.93
5.90
27.98
43.92
51.22
49.68
41.05
28.13
13.89
0.87
-9.27
-15.77
-18.90
-19.85
-20.24
-21.54
-24.48
-28.64
-32.77
-35.45
-35.82
-33.92
-30.47
-26.09
-20.60
-12.82
-0.97
16.23
38.56
63.89
88.58
108.53
120.46
122.70
115.38
100.02
78.83
54.11
27.96
2.28
-21.03
-40.04
-52.94
-58.43
-56.11
-46.80
-32.47
-15.84
0.23
13.39
22.20
26.29
26.16
22.83
17.52
11.42
5.57
0.94
-1.71
-1.94
0.26
4.29
8.97
12.77
14.27
12.59
7.79
0.85
-6.62
-12.93
-16.88
-18.08
-16.91
-14.21
-10.91
-7.66
-4.76
-2.14
0.32
2.74
5.12
7.49
9.98
12.76
16.07
20.04
24.64
29.59
34.36
38.18
40.13
39.16
34.33
25.06
11.33
-6.12
-25.82
-45.61
-62.98
-75.46
-81.21
-79.55
-71.18
-58.10
-43.06
-28.74
-17.09
-8.95
-4.23
-2.38
-2.84
-5.25
-9.27
-14.33
-19.50
-23.68
-25.92
-25.78
-23.39
-19.15
-13.43
-6.18
2.92
14.11
27.00
40.28
51.84
59.41
61.25
56.91
47.26
34.26
20.22
7.22
-3.33
-10.76
-15.01
-16.49
-15.89
-14.05
-11.84
-9.95
-8.78
-8.46
-8.95
-10.18
-12.12
-14.63
-17.30
-19.33
-19.73
-17.77
-13.37
-7.35
-1.18
3.59
6.03
6.21
5.28
4.95
6.88
12.05
20.48
31.21
42.57
52.53
59.11
60.83
57.08
48.36
36.22
22.79
10.13
-0.44
-8.56
-14.63
-19.27
-22.76
-24.96
-25.56
-24.59
-22.70
-21.06
-20.82
-22.51
-25.69
-29.15
-31.36
-31.13
-27.95
-22.12
-14.49
-6.16
1.80
8.53
13.55
16.67
18.00
17.79
16.34
13.97
11.01
7.87
5.06
3.12
2.45
3.14
4.82
6.70
7.86
7.60
5.74
2.70
-0.65
-3.36
-4.81
-4.90
-4.03
-2.76
-1.58
-0.69
-0.05
0.49
1.03
1.51
1.87
2.06
2.15
2.28
2.56
2.95
3.34
3.58
3.63
3.61
3.73
4.21
5.19
6.63
8.31
9.87
10.97
11.36
10.97
9.97
8.71
7.56
6.82
6.53
6.50
6.41
5.92
4.85
3.21
1.15
-1.04
-3.12
-4.83
-6.03
-6.64
-6.67
-6.23
-5.47
-4.54
-3.56
-2.60
-1.66
-0.77
0.07
0.89
1.71
2.53
3.30
3.92
4.26
4.26
3.92
3.33
2.60
1.82
1.05
0.32
-0.32
-0.79
-0.99
-0.83
-0.27
0.60
1.70
2.85
3.90
4.70
5.09
4.91
4.02
2.31
-0.26
-3.55
-7.18
-10.60
-13.21
-14.60
-14.68
-13.74
-12.31
-10.92
-9.87
-9.17
-8.58
-7.80
-6.65
-5.18
-3.61
-2.21
-1.14
-0.35
0.36
1.21
2.33
3.69
5.10
6.32
7.24
7.82
8.09
8.01
7.40
6.06
3.91
1.12
-1.85
-4.42
-6.15
-6.86
-6.77
-6.29
-5.83
-5.60
-5.57
-5.54
-5.27
-4.61
-3.53
-2.09
-0.40
1.37
3.03
4.34
5.13
5.30
4.92
4.14
3.17
2.18
1.21
0.24
-0.75
-1.71
-2.52
-3.07
-3.30
-3.26
-3.02
-2.70
-2.29
-1.75
-1.02
-0.07
1.01
2.06
2.89
3.37
3.45
3.13
2.49
1.61
0.58
-0.48
-1.44
-2.17
-2.56
-2.59
-2.34
-1.91
-1.42
-0.90
-0.34
0.36
1.23
2.27
3.37
4.42
5.30
5.91
6.20
6.12
5.68
4.91
3.96
3.00
2.27
1.90
1.89
2.07
2.19
2.00
1.42
0.50
-0.56
-1.52
-2.21
-2.54
-2.53
-2.27
-1.91
-1.61
-1.47
-1.55
-1.83
-2.24
-2.68
-3.07
-3.35
-3.47
-3.33
-2.83
-1.87
-0.43
1.37
3.28
4.98
6.20
6.83
6.86
6.39
5.48
4.15
2.36
0.13
-2.40
-4.86
-6.76
-7.62
-7.25
-5.75
-3.59
-1.36
0.39
1.41
1.72
1.60
1.34
1.13
1.02
0.87
0.54
-0.11
-1.11
-2.44
-4.05
-5.83
-7.62
-9.22
-10.38
-10.92
-10.75
-9.95
-8.71
-7.27
-5.83
-4.46
-3.14
-1.82
-0.44
0.96
2.25
3.30
3.93
4.07
3.75
3.09
2.30
1.56
0.97
0.51
0.08
-0.45
-1.12
-1.84
-2.42
-2.61
-2.27
-1.42
-0.27
0.86
1.64
1.81
1.27
0.07
-1.67
-3.73
-5.81
-7.58
-8.73
-9.06
-8.52
-7.33
-5.83
-4.40
-3.33
-2.75
-2.60
-2.73
-2.98
-3.17
-3.19
-2.92
-2.30
-1.28
0.04
1.46
2.74
3.62
4.02
3.97
3.67
3.34
3.11
3.00
2.90
2.72
2.41
2.04
1.75
1.65
1.71
1.83
1.83
1.56
0.98
0.16
-0.76
-1.64
-2.37
-2.85
-2.99
-2.70
-1.90
-0.59
1.07
2.70
3.87
4.18
3.50
2.01
0.17
-1.48
-2.57
-2.97
-2.81
-2.40
-1.96
-1.62
-1.36
-1.08
-0.77
-0.43
-0.15
-0.01
-0.08
-0.44
-1.11
-2.15
-3.58
-5.40
-7.55
-9.87
-12.12
-14.04
-15.33
-15.76
-15.19
-13.58
-11.04
-7.76
-4.02
-0.13
3.58
6.82
9.40
11.24
12.40
13.05
13.39
13.57
13.69
13.78
13.78
13.63
13.24
12.59
11.68
10.61
9.48
8.41
7.43
6.46
5.38
4.09
2.58
0.95
-0.66
-2.09
-3.28
-4.17
-4.70
-4.79
-4.36
-3.44
-2.19
-0.91
0.09
0.60
0.62
0.34
0.07
0.05
0.37
0.95
1.59
2.08
2.26
2.14
1.78
1.29
0.72
0.07
-0.69
-1.53
-2.37
-3.07
-3.49
-3.58
-3.38
-3.00
-2.57
-2.22
-2.00
-1.94
-2.06
-2.39
-2.95
-3.74
-4.74
-5.84
-6.89
-7.68
-8.02
-7.81
-7.05
-5.90
-4.58
-3.30
-2.25
-1.50
-1.06
-0.90
-1.01
-1.29
-1.66
-1.94
-1.97
-1.65
-0.98
-0.05
0.94
1.82
2.47
2.80
2.82
2.61
2.28
1.98
1.84
1.91
2.11
2.33
2.40
2.22
1.84
1.37
0.95
0.62
0.35
0.05
-0.30
-0.64
-0.79
-0.60
-0.04
0.79
1.68
2.46
3.00
3.33
3.55
3.74
3.94
4.11
4.13
3.89
3.32
2.45
1.42
0.41
-0.41
-0.90
-1.06
-0.90
-0.51
0.01
0.56
1.00
1.19
1.04
0.57
-0.05
-0.59
-0.82
-0.69
-0.31
0.04
0.07
-0.39
-1.32
-2.52
-3.68
-4.50
-4.78
-4.44
-3.55
-2.25
-0.72
0.84
2.26
3.43
4.26
4.71
4.80
4.60
4.22
3.80
3.50
3.41
3.55
3.84
4.12
4.26
4.16
3.86
3.48
3.18
3.07
3.17
3.43
3.72
3.89
3.87
3.62
3.15
2.52
1.75
0.86
-0.10
-1.10
-2.06
-2.85
-3.32
-3.37
-2.96
-2.23
-1.38
-0.68
-0.26
-0.12
-0.14
-0.16
-0.08
0.12
0.32
0.45
0.49
0.44
0.38
0.30
0.19
-0.05
-0.44
-0.93
-1.47
-1.96
-2.37
-2.73
-3.10
-3.54
-4.09
-4.75
-5.48
-6.19
-6.80
-7.22
-7.38
-7.30
-7.04
-6.67
-6.25
-5.83
-5.39
-4.90
-4.32
-3.63
-2.81
-1.87
-0.82
0.25
1.25
2.05
2.53
2.58
2.18
1.43
0.45
-0.53
-1.36
-1.91
-2.19
-2.23
-2.12
-1.93
-1.73
-1.55
-1.39
-1.26
-1.10
-0.91
-0.68
-0.51
-0.46
-0.57
-0.80
-1.04
-1.20
-1.25
-1.28
-1.39
-1.60
-1.86
-2.01
-1.87
-1.43
-0.76
-0.01
0.71
1.37
2.04
2.81
3.71
4.67
5.57
6.27
6.68
6.79
6.64
6.28
5.78
5.16
4.46
3.70
2.86
2.00
1.16
0.40
-0.26
-0.91
-1.64
-2.58
-3.76
-5.21
-6.84
-8.55
-10.22
-11.78
-13.16
-14.27
-14.98
-15.16
-14.67
-13.44
-11.54
-9.12
-6.40
-3.53
-0.67
2.14
4.77
7.09
8.91
10.11
10.66
10.77
10.73
10.83
11.15
11.61
11.92
11.83
11.21
10.11
8.74
7.38
6.26
5.50
5.12
5.02
5.07
5.15
5.15
5.06
4.89
4.67
4.41
4.04
3.50
2.71
1.65
0.40
-0.90
-2.07
-3.00
-3.66
-4.11
-4.42
-4.67
-4.82
-4.83
-4.59
-4.07
-3.34
-2.50
-1.67
-0.93
-0.27
0.33
0.90
1.40
1.75
1.86
1.71
1.35
0.90
0.45
0.06
-0.30
-0.68
-1.06
-1.38
-1.51
-1.36
-0.88
-0.15
0.65
1.31
1.63
1.48
0.88
-0.05
-1.13
-2.15
-2.98
-3.55
-3.89
-4.10
-4.27
-4.48
-4.73
-4.98
-5.14
-5.13
-4.93
-4.61
-4.25
-3.93
-3.65
-3.34
-2.86
-2.17
-1.33
-0.51
0.08
0.32
0.24
-0.05
-0.40
-0.71
-0.92
-1.05
-1.09
-1.06
-0.95
-0.76
-0.51
-0.27
-0.15
-0.22
-0.53
-0.96
-1.36
-1.53
-1.37
-0.93
-0.40
-0.02
-0.01
-0.41
-1.08
-1.84
-2.47
-2.90
-3.12
-3.19
-3.13
-2.92
-2.49
-1.81
-0.92
0.04
0.90
1.54
1.94
2.22
2.47
2.77
3.11
3.42
3.64
3.77
3.87
4.00
4.19
4.39
4.51
4.47
4.31
4.10
3.92
3.81
3.70
3.51
3.14
2.58
1.96
1.40
1.03
0.85
0.75
0.57
0.20
-0.38
-1.10
-1.82
-2.42
-2.79
-2.90
-2.70
-2.20
-1.47
-0.62
0.15
0.67
0.87
0.74
0.37
-0.13
-0.66
-1.16
-1.51
-1.59
-1.31
-0.63
0.34
1.38
2.23
2.74
2.87
2.77
2.61
2.55
2.62
2.75
2.79
2.64
2.28
1.76
1.21
0.72
0.34
-0.01
-0.41
-0.98
-1.70
-2.43
-2.99
-3.22
-3.09
-2.76
-2.40
-2.18
-2.12
-2.09
-1.95
-1.63
-1.17
-0.71
-0.38
-0.23
-0.23
-0.29
-0.31
-0.27
-0.13
0.13
0.58
1.22
1.98
2.68
3.14
3.17
2.77
2.06
1.24
0.51
-0.06
-0.55
-1.10
-1.90
-3.02
-4.42
-5.96
-7.42
-8.56
-9.16
-9.04
-8.12
-6.46
-4.31
-2.04
-0.09
1.16
1.57
1.18
0.21
-1.14
-2.80
-4.80
-7.13
-9.63
-11.85
-13.21
-13.23
-11.72
-8.97
-5.59
-2.32
0.30
1.99
2.74
2.66
1.90
0.51
-1.41
-3.69
-5.98
-7.81
-8.76
-8.58
-7.38
-5.59
-3.75
-2.35
-1.53
-1.08
-0.51
0.74
3.04
6.39
10.42
14.55
18.18
20.97
22.90
24.26
25.45
26.75
28.20
29.53
30.39
30.49
29.72
28.20
26.20
23.99
21.71
19.35
16.74
13.66
9.86
5.15
-0.55
-7.20
-14.58
-22.31
-29.84
-36.46
-41.47
-44.29
-44.66
-42.64
-38.63
-33.23
-27.13
-20.98
-15.36
-10.69
-7.17
-4.68
-2.82
-1.07
1.03
3.59
6.36
8.80
10.39
10.92
10.58
9.87
9.36
9.42
10.12
11.24
12.39
13.19
13.40
12.95
12.00
10.81
9.68
8.84
8.40
8.31
8.47
8.69
8.82
8.77
8.43
7.75
6.68
5.27
3.62
1.87
0.11
-1.57
-3.16
-4.64
-5.97
-7.05
-7.80
-8.16
-8.13
-7.80
-7.24
-6.52
-5.68
-4.68
-3.49
-2.14
-0.72
0.55
1.43
1.69
1.23
0.14
-1.37
-3.03
-4.61
-5.99
-7.14
-8.03
-8.61
-8.79
-8.53
-7.91
-7.15
-6.53
-6.25
-6.34
-6.68
-7.07
-7.37
-7.55
-7.67
-7.74
-7.65
-7.20
-6.19
-4.60
-2.65
-0.77
0.58
1.08
0.69
-0.37
-1.78
-3.19
-4.34
-5.06
-5.23
-4.73
-3.49
-1.56
0.87
3.46
5.84
7.74
9.08
10.02
10.78
11.49
12.13
12.54
12.59
12.32
12.07
12.25
13.16
14.74
16.60
18.10
18.69
18.17
16.76
15.01
13.55
12.82
12.96
13.76
14.73
15.30
15.11
14.15
12.81
11.71
11.37
11.96
13.29
14.84
16.19
17.43
19.17
22.37
27.81
35.31
44.00
52.33
58.72
62.27
63.36
63.53
64.98
69.66
77.97
89.07
100.94
111.06
117.68
120.64
121.07
120.70
120.49
118.89
112.92
98.35
70.97
27.76
-31.72
-104.68
-184.58
-261.60
-324.78
-362.93
-368.59
-341.32
-288.77
-225.15
-167.19
-128.96
-110.66
-108.98
-114.24
-115.21
-105.61
-86.54
-63.28
-40.66
-20.12
-0.46
19.18
38.82
56.48
69.94
78.97
86.11
93.90
105.84
122.43
140.22
154.73
162.69
163.54
159.42
153.75
149.34
147.41
147.45
147.30
143.86
134.00
114.65
83.90
41.53
-10.77
-69.07
-127.14
-177.76
-215.40
-236.95
-243.27
-239.19
-231.93
-228.31
-231.89
-241.28
-251.58
-258.22
-257.60
-248.42
-231.56
-209.53
-185.03
-159.96
-133.90
-96.90
-45.51
16.79
80.69
136.57
178.49
205.43
220.09
228.23
235.15
241.50
244.37
238.84
220.91
189.86
152.38
113.57
80.47
58.68
48.91
48.29
52.02
55.85
57.37
56.37
53.63
50.62
47.64
42.93
34.69
21.80
5.79
-10.38
-23.39
-31.15
-33.08
-30.50
-26.45
-23.89
-24.72
-29.05
-35.53
-41.78
-45.36
-44.74
-39.65
-31.44
-22.01
-13.23
-6.29
-1.66
1.09
2.77
4.67
8.18
14.10
23.05
35.65
52.45
72.73
93.62
109.98
114.47
103.11
73.66
28.39
-26.37
-82.33
-132.06
-171.10
-190.30
-189.24
-173.34
-150.13
-125.35
-102.22
-82.21
-65.81
-52.76
-41.80
-32.27
-22.94
-13.14
-2.89
6.84
14.73
20.27
24.16
27.90
31.82
35.87
39.39
41.76
42.78
42.28
40.54
38.02
35.20
31.71
27.42
22.58
18.01
14.54
12.33
10.73
8.47
4.47
-1.49
-7.78
-11.20
-8.32
2.48
19.46
37.20
48.71
48.83
36.56
15.89
-5.95
-21.58
-26.57
-21.52
-10.04
2.43
10.61
11.01
2.66
-12.58
-30.51
-45.82
-53.72
-51.36
-38.98
-19.66
2.04
21.14
33.35
37.23
34.25
27.42
19.61
12.27
5.59
-0.69
-6.67
-12.18
-17.14
-21.97
-27.45
-33.69
-39.49
-42.54
-40.52
-32.71
-20.53
-6.92
4.94
13.12
17.51
19.31
20.01
20.40
20.28
19.08
16.64
13.64
11.35
10.89
12.47
15.12
17.12
16.92
14.07
9.49
4.87
1.62
0.10
-0.52
-1.46
-3.42
-5.99
-7.95
-8.13
-6.38
-3.76
-1.89
-1.93
-3.82
-6.44
-8.54
-9.66
-10.44
-12.11
-15.40
-19.88
-24.05
-26.31
-26.03
-23.95
-21.74
-21.01
-22.36
-25.17
-28.05
-29.51
-28.41
-24.07
-16.07
-4.27
10.86
28.09
45.51
61.15
73.80
83.37
90.77
97.14
103.05
108.21
111.68
112.38
109.32
101.48
87.51
65.81
35.09
-4.61
-51.28
-100.99
-148.74
-189.43
-218.71
-233.36
-231.44
-212.74
-179.22
-135.28
-87.20
-41.76
-4.27
22.83
40.26
50.83
57.75
63.26
68.23
72.62
76.42
80.10
84.50
90.12
96.53
102.13
104.72
102.41
94.66
82.78
69.54
58.23
51.27
49.21
50.60
52.82
53.41
51.20
46.70
41.56
37.52
35.40
34.76
34.14
31.90
26.97
19.25
9.66
-0.23
-8.71
-14.45
-16.96
-16.75
-15.15
-13.75
-13.76
-15.52
-18.51
-21.81
-24.67
-26.88
-28.69
-30.36
-31.73
-32.25
-31.27
-28.69
-25.21
-22.20
-20.97
-22.13
-25.20
-28.78
-31.32
-31.73
-29.88
-26.58
-23.03
-20.28
-18.80
-18.55
-19.14
-20.25
-21.63
-23.13
-24.56
-25.60
-25.93
-25.48
-24.50
-23.55
-23.14
-23.46
-24.24
-25.01
-25.30
-24.85
-23.72
-22.26
-20.98
-20.20
-19.87
-19.66
-19.30
-18.37
-16.21
-12.02
-5.30
3.72
14.23
25.21
35.66
44.69
52.14
58.90
66.59
76.64
89.52
104.91
122.16
139.85
155.60
166.93
172.52
172.52
168.26
161.29
153.75
148.18
145.43
143.15
136.52
120.41
91.44
49.07
-5.34
-67.73
-131.41
-183.65
-212.97
-216.30
-197.78
-163.20
-117.67
-68.47
-24.96
11.02
39.65
62.09
79.62
92.87
100.61
99.49
81.07
40.57
-19.75
-92.01
-166.64
-236.27
-297.19
-348.94
-377.09
-372.80
-337.70
-283.21
-222.89
-166.07
-117.24
-77.56
-46.53
-22.81
-7.34
-0.45
-0.70
-5.73
-13.13
-20.61
-25.01
-22.06
-7.33
19.24
54.07
91.04
123.39
146.10
157.44
159.42
156.40
153.18
151.28
149.69
146.35
139.53
128.68
114.36
98.89
82.74
66.94
51.49
35.95
20.56
6.48
-4.32
-10.06
-9.85
-4.47
4.29
13.59
20.94
25.00
25.80
24.29
21.30
17.40
12.57
6.67
-0.48
-8.69
-17.18
-24.54
-28.95
-29.05
-24.39
-16.03
-6.09
2.75
8.29
9.45
6.12
0.66
-5.20
-10.31
-14.18
-16.72
-17.74
-16.79
-13.37
-7.55
-0.23
6.75
11.70
13.77
13.33
11.63
10.08
9.60
10.27
11.64
12.89
13.60
13.86
14.12
14.80
16.00
17.35
18.10
17.47
14.86
10.29
4.34
-2.10
-8.14
-13.14
-16.90
-19.58
-21.50
-22.93
-23.90
-24.28
-23.87
-22.68
-20.95
-19.13
-17.73
-17.04
-17.07
-17.58
-18.17
-18.48
-18.40
-18.09
-17.93
-18.34
-19.48
-21.19
-22.98
-24.28
-24.72
-24.24
-23.06
-21.48
-19.69
-17.70
-15.50
-13.16
-10.95
-9.22
-8.23
-8.00
-8.35
-9.06
-9.95
-10.92
-11.87
-12.62
-12.97
-12.76
-12.03
-11.04
-10.17
-9.63
-9.37
-9.05
-8.27
-6.87
-5.11
-3.61
-3.07
-3.93
-6.15
-9.23
-12.48
-15.28
-17.33
-18.65
-19.40
-19.70
-19.51
-18.65
-16.90
-14.11
-10.30
-5.50
0.27
7.09
14.95
23.53
32.00
39.05
43.32
43.87
40.72
34.90
28.08
21.93
17.48
14.92
13.71
13.12
12.55
11.74
10.63
9.16
7.20
4.60
1.38
-2.28
-6.04
-9.66
-13.07
-16.38
-19.74
-23.20
-26.60
-29.63
-31.94
-33.26
-33.44
-32.39
-30.13
-26.71
-22.21
-16.81
-10.84
-4.74
1.02
5.98
9.84
12.51
14.08
14.77
14.77
14.30
13.58
12.97
12.82
13.36
14.46
15.62
16.16
15.52
13.65
11.04
8.46
6.47
5.11
3.86
2.02
-0.80
-4.52
-8.51
-12.08
-14.82
-16.75
-18.31
-19.94
-21.81
-23.66
-24.90
-24.88
-23.14
-19.51
-14.13
-7.40
0.06
7.44
13.84
18.52
21.06
21.51
20.34
18.24
15.83
13.46
11.17
8.79
6.10
2.96
-0.63
-4.47
-8.14
-11.01
-12.40
-11.82
-9.32
-5.52
-1.61
1.16
1.95
0.70
-1.91
-4.80
-6.98
-7.95
-7.86
-7.30
-7.03
-7.61
-9.17
-11.34
-13.33
-14.17
-13.03
-9.55
-4.13
2.19
8.09
12.36
14.33
13.93
11.61
8.15
4.54
1.72
0.53
1.40
4.21
8.26
12.52
15.98
18.04
18.65
18.20
17.19
16.00
14.71
13.28
11.57
9.58
7.31
4.89
2.51
0.36
-1.45
-2.93
-4.25
-5.69
-7.50
-9.69
-11.98
-13.88
-15.03
-15.35
-15.13
-14.83
-14.78
-14.97
-15.05
-14.67
-13.72
-12.57
-11.91
-12.42
-14.46
-17.84
-22.02
-26.34
-30.36
-33.93
-37.19
-40.37
-43.71
-47.41
-51.58
-56.21
-61.08
-65.73
-69.54
-71.94
-72.78
-72.32
-70.97
-68.78
-65.03
-58.47
-47.87
-32.79
-13.70
8.25
31.73
55.52
78.46
99.07
115.37
125.15
126.84
120.75
109.53
97.34
88.18
84.14
85.01
88.69
92.55
94.76
95.01
93.99
92.16
89.02
83.30
74.30
62.52
48.99
34.37
18.72
1.64
-17.29
-37.80
-58.57
-76.56
-88.25
-92.11
-89.54
-83.67
-78.01
-75.78
-79.58
-91.03
-108.90
-129.49
-149.62
-168.17
-185.20
-201.02
-215.29
-226.63
-232.02
-225.48
-199.96
-152.37
-85.62
-6.19
78.50
162.19
240.49
300.05
324.54
313.77
284.00
250.61
219.52
189.72
158.89
125.79
91.25
59.35
35.35
21.11
13.69
8.56
1.27
-9.21
-22.07
-36.04
-48.97
-58.76
-65.21
-69.93
-70.29
-65.39
-53.98
-36.23
-14.47
8.28
29.33
46.22
56.42
59.45
55.06
44.77
30.79
15.53
1.69
-8.31
-13.42
-14.85
-14.83
-16.23
-20.96
-29.93
-42.89
-58.46
-74.96
-87.20
-92.14
-88.73
-78.37
-63.64
-47.14
-30.36
-13.35
4.43
23.04
40.58
54.17
61.00
60.27
53.59
44.24
35.56
29.36
25.62
22.68
18.90
13.62
7.53
2.17
-0.88
-0.66
2.75
8.42
14.81
20.85
26.51
32.58
40.02
48.86
57.74
64.17
65.62
60.79
50.44
37.00
23.10
10.06
-2.51
-16.02
-31.52
-48.75
-66.08
-81.49
-93.55
-102.08
-107.85
-111.84
-114.48
-115.53
-114.29
-110.09
-102.72
-92.59
-80.65
-68.16
-56.22
-45.45
-35.90
-27.37
-19.76
-13.44
-9.10
-7.09
-6.83
-6.77
-5.13
-0.97
5.17
11.61
16.63
19.73
21.86
24.63
28.93
34.19
38.65
40.71
40.17
38.47
37.84
39.77
43.85
47.91
49.34
46.73
40.75
33.78
28.54
26.56
27.67
30.59
34.14
38.03
42.63
48.08
53.53
57.46
58.92
58.90
60.42
66.94
79.90
96.84
111.88
118.33
112.12
93.96
69.06
44.34
25.22
13.59
7.99
5.59
4.38
3.95
4.92
7.55
10.90
13.15
12.84
9.87
5.69
2.36
1.30
2.51
4.75
6.35
6.13
3.91
0.36
-3.43
-6.35
-7.57
-6.69
-3.85
0.05
3.56
5.18
4.08
0.52
-4.20
-8.52
-11.28
-12.30
-12.25
-12.07
-12.35
-13.17
-14.23
-15.38
-16.74
-18.67
-21.38
-24.69
-28.00
-30.59
-32.06
-32.49
-32.38
-32.22
-32.16
-31.86
-30.68
-28.07
-23.94
-18.79
-13.42
-8.61
-4.74
-1.77
0.64
2.75
4.56
5.82
6.24
5.78
4.67
3.33
2.13
1.15
0.25
-0.86
-2.36
-4.21
-6.14
-7.89
-9.36
-10.70
-12.20
-14.12
-16.41
-18.79
-20.88
-22.45
-23.57
-24.60
-25.96
-27.80
-29.88
-31.57
-32.16
-31.12
-28.33
-24.09
-18.91
-13.35
-7.83
-2.63
2.05
6.02
9.05
10.97
11.71
11.46
10.60
9.58
8.72
8.07
7.43
6.46
4.92
2.85
0.53
-1.62
-3.25
-4.24
-4.78
-5.22
-5.88
-6.90
-8.21
-9.64
-11.01
-12.31
-13.67
-15.36
-17.56
-20.30
-23.36
-26.23
-28.26
-28.85
-27.63
-24.64
-20.26
-15.10
-9.71
-4.45
0.52
5.15
9.37
12.97
15.69
17.32
17.81
17.28
16.00
14.22
12.20
10.12
8.15
6.41
4.99
3.85
2.88
1.93
0.92
-0.24
-1.62
-3.20
-4.90
-6.65
-8.42
-10.27
-12.22
-14.27
-16.43
-18.77
-21.31
-23.98
-26.62
-28.99
-30.78
-31.58
-31.01
-29.04
-26.03
-22.52
-19.06
-16.10
-14.06
-13.20
-13.31
-13.93
-14.95
-16.71
-19.53
-23.47
-28.43
-34.38
-41.36
-48.52
-54.58
-59.01
-62.43
-65.84
-70.10
-76.02
-84.34
-95.47
-107.81
-118.59
-126.00
-129.79
-130.09
-126.58
-118.92
-107.17
-91.68
-70.88
-42.14
-4.11
42.30
95.14
152.24
211.07
268.82
311.23
323.59
304.86
267.71
225.22
183.96
146.33
113.49
86.41
65.58
51.99
45.80
44.62
44.76
42.58
36.95
28.86
19.97
11.32
3.81
-2.72
-10.59
-23.28
-41.44
-62.28
-80.80
-92.37
-95.00
-89.02
-77.31
-64.27
-54.05
-49.03
-48.83
-50.92
-51.86
-48.68
-39.17
-22.70
-0.84
25.09
52.04
75.75
91.97
98.25
95.62
89.19
85.28
89.27
102.95
122.44
139.63
146.47
139.23
120.65
98.96
82.15
77.05
89.57
121.33
166.38
213.12
248.94
264.94
258.96
230.94
187.23
138.95
95.61
60.39
31.55
6.33
-16.61
-36.90
-61.24
-93.66
-131.96
-171.57
-209.85
-245.86
-278.15
-304.73
-324.20
-346.87
-380.14
-422.52
-468.03
-512.59
-554.73
-593.23
-626.51
-591.93
-470.00
-299.89
-138.61
-14.77
71.13
128.91
169.10
199.71
225.90
240.64
240.03
229.16
215.90
205.96
200.05
196.76
194.49
191.97
180.81
156.60
126.28
97.47
74.81
59.12
49.53
44.88
44.09
41.63
34.47
24.60
15.73
10.26
8.35
9.14
11.68
15.24
17.05
15.69
12.31
8.70
6.18
4.89
4.53
4.74
5.27
5.15
3.96
2.17
0.41
-0.85
-1.52
-1.72
-1.61
-1.30
-0.88
-0.41
0.12
0.59
0.96
1.25
1.50
1.69
1.88
2.07
2.25
2.43
2.59
2.71
2.80
2.87
2.92
2.99
3.04
3.07
3.07
3.04
2.99
2.92
2.83
2.44
2.02
1.59
1.10
0.58
0.02
-0.59
-1.26
-1.97
-2.74
-3.49
-4.26
-5.08
-5.98
-6.93
-7.94
-9.03
-10.18
-11.40
-12.61
-13.84
-15.14
-16.52
-17.94
-19.43
-20.97
-22.61
-24.34
-26.09
-27.96
-29.97
-32.16
-34.42
-36.57
-38.36
-39.44
-39.82
-38.61
-35.34
-29.67
-21.51
-11.05
1.31
14.88
28.69
41.69
53.04
61.85
67.65
70.22
69.62
66.17
60.46
53.19
45.13
37.13
29.68
23.18
17.81
13.58
10.34
7.88
6.13
5.06
5.01
6.05
8.47
12.50
18.08
24.81
31.96
38.93
45.27
50.91
55.48
59.15
62.09
64.25
65.31
64.62
61.75
56.80
50.58
43.32
35.71
28.21
20.42
11.26
-0.78
-16.86
-37.27
-60.89
-87.04
-114.28
-141.40
-168.24
-195.83
-226.53
-263.84
-312.53
-368.60
-430.95
-496.87
-560.87
-614.94
-650.19
-659.76
-641.18
-597.39
-535.41
-465.00
-393.97
-326.75
-264.74
-207.77
-155.85
-109.62
-69.91
-36.75
-9.93
12.04
30.89
47.75
62.92
76.03
86.78
95.60
103.82
112.84
124.31
139.23
157.55
178.13
199.07
218.42
234.59
246.63
253.78
255.55
251.24
239.93
220.65
192.72
156.16
112.10
62.80
11.28
-39.05
-84.93
-123.54
-152.88
-171.80
-179.92
-177.49
-165.29
-144.56
-116.92
-84.41
-49.33
-14.21
18.40
46.22
67.55
81.61
88.77
90.33
88.28
84.90
82.33
82.20
85.49
92.47
102.61
114.71
127.08
137.81
145.10
147.62
144.85
137.22
126.06
113.18
100.44
89.46
81.23
76.04
73.36
71.99
70.79
68.23
62.66
52.59
37.13
16.28
-8.47
-34.67
-59.61
-80.15
-93.87
-99.48
-96.86
-86.81
-70.76
-50.01
-25.94
-0.04
27.28
55.33
82.83
108.07
129.34
145.01
155.28
161.16
163.79
167.30
174.79
186.94
201.78
216.03
225.16
228.27
225.71
218.08
212.47
214.72
226.67
245.79
267.44
284.86
298.63
311.35
325.10
351.16
397.95
466.35
549.52
636.94
714.98
782.04
840.10
890.87
948.05
1021.96
1113.26
1212.73
1306.49
1377.07
1422.72
1446.79
1368.25
1143.84
781.48
340.24
-102.22
-440.59
-675.36
-826.26
-912.56
-949.02
-943.73
-896.74
-812.68
-703.09
-596.32
-520.54
-483.67
-482.42
-508.25
-541.34
-564.09
-568.42
-556.16
-534.66
-515.27
-499.01
-484.07
-469.55
-450.38
-424.21
-395.16
-371.78
-361.34
-366.42
-377.16
-380.46
-367.68
-335.89
-289.73
-239.66
-196.34
-165.59
-147.97
-138.18
-131.36
-124.50
-118.99
-115.45
-113.51
-111.77
-108.51
-103.24
-96.16
-88.64
-82.62
-79.47
-78.58
-78.36
-77.03
-73.04
-66.21
-57.76
-49.45
-42.57
-37.41
-32.80
-27.17
-19.52
-9.16
3.22
16.23
28.73
40.67
53.40
69.87
94.38
126.14
165.71
211.67
259.50
301.81
330.15
337.95
323.56
291.26
249.68
209.31
177.76
157.75
147.47
142.65
139.01
133.67
125.14
112.53
95.64
74.44
49.82
23.95
-0.13
-19.49
-32.29
-38.40
-39.24
-36.80
-33.31
-30.64
-29.97
-31.60
-35.13
-39.63
-44.02
-47.43
-49.35
-49.99
-50.11
-50.67
-52.37
-55.33
-58.91
-61.97
-63.29
-62.04
-58.36
-53.40
-48.93
-46.67
-47.53
-51.27
-56.75
-62.46
-67.21
-70.65
-73.22
-76.02
-80.29
-86.95
-95.90
-105.73
-114.00
-118.01
-115.95
-107.76
-95.09
-80.42
-65.76
-51.86
-38.26
-24.29
-10.13
2.73
12.12
16.36
15.41
11.02
5.97
2.74
2.42
4.35
6.67
7.37
5.10
-0.27
-7.86
-16.42
-24.91
-32.84
-40.08
-46.37
-50.90
-52.31
-49.04
-40.19
-26.21
-9.11
7.96
21.84
30.44
33.36
31.66
26.90
20.09
11.18
-0.36
-14.43
-29.49
-42.73
-51.36
-54.23
-52.62
-49.69
-48.65
-50.94
-55.53
-59.77
-61.33
-59.87
-57.33
-56.70
-60.05
-67.06
-74.99
-80.02
-79.19
-72.03
-60.90
-49.90
-42.91
-41.60
-44.60
-48.28
-48.62
-43.24
-32.61
-19.73
-8.75
-3.07
-3.98
-10.33
-19.12
-26.80
-30.43
-28.58
-21.73
-12.03
-2.72
3.09
3.54
-1.07
-8.46
-15.37
-19.02
-18.32
-14.14
-8.82
-5.04
-4.69
-8.31
-15.01
-23.00
-30.20
-34.86
-35.86
-32.87
-26.34
-17.34
-7.31
2.21
9.92
14.99
17.11
16.44
13.54
9.38
5.24
2.54
2.52
5.69
11.50
18.34
24.26
27.84
28.90
28.35
27.36
26.37
24.46
19.69
10.35
-3.71
-20.41
-35.85
-45.73
-47.07
-39.53
-25.56
-9.52
4.04
12.06
14.12
12.45
10.79
12.69
20.09
32.75
48.91
66.30
82.93
96.95
106.05
107.12
96.76
72.95
36.90
-6.14
-47.93
-79.87
-95.97
-94.55
-78.16
-51.95
-21.63
7.92
33.18
51.87
62.77
65.76
61.98
53.79
44.29
36.47
32.54
33.61
39.97
51.35
67.05
85.55
104.08
118.28
122.89
113.09
86.45
44.41
-7.41
-60.57
-106.09
-136.98
-149.67
-144.05
-122.31
-87.65
-43.37
7.07
59.74
110.23
154.16
188.14
210.52
221.48
222.28
214.29
198.36
174.74
143.68
105.77
62.12
13.93
-38.01
-93.20
-150.40
-206.38
-255.49
-290.79
-306.50
-300.20
-273.75
-232.22
-181.86
-128.26
-75.81
-28.08
11.45
39.48
53.78
54.26
43.67
27.08
10.53
-0.71
-3.74
1.01
9.50
14.81
8.85
-15.05
-59.25
-120.36
-189.90
-256.96
-311.63
-347.62
-362.86
-358.37
-336.52
-300.09
-252.40
-197.94
-142.41
-91.64
-49.59
-16.86
9.23
32.98
57.61
83.65
109.05
131.12
148.79
163.61
178.84
197.21
218.78
240.45
257.19
264.44
260.23
245.81
224.76
201.10
177.50
155.09
134.44
117.01
105.56
102.78
108.66
118.40
123.01
112.96
83.60
38.93
-9.02
-45.50
-60.53
-54.08
-35.53
-17.47
-7.85
-5.30
-1.06
14.07
42.01
74.17
95.23
91.68
59.98
8.92
-45.12
-86.97
-109.82
-116.78
-116.68
-117.40
-121.42
-125.97
-126.74
-121.73
-112.47
-101.96
-91.41
-78.64
-59.33
-30.37
7.13
47.53
83.25
108.38
120.98
122.70
116.15
102.32
79.73
46.29
2.37
-47.06
-92.79
-124.74
-136.09
-126.05
-99.85
-66.10
-33.26
-7.46
7.76
10.73
1.22
-19.07
-45.64
-71.67
-90.30
-98.14
-97.41
-95.10
-99.03
-112.88
-133.30
-150.78
-154.34
-137.29
-100.58
-52.08
-2.34
40.66
74.56
102.22
128.50
156.67
186.28
213.71
234.35
244.92
244.53
234.25
215.99
191.62
162.68
130.91
98.79
69.82
47.92
36.22
35.54
43.09
52.56
56.03
47.20
24.31
-8.85
-44.86
-76.23
-98.73
-112.38
-119.59
-122.19
-119.48
-108.85
-88.48
-60.07
-29.39
-4.04
10.18
12.15
5.69
-2.65
-6.78
-3.50
7.01
22.17
38.65
53.64
65.37
72.88
75.70
73.82
67.76
58.65
48.15
38.01
29.45
22.90
17.80
12.80
5.90
-5.08
-21.72
-44.09
-69.97
-94.77
-112.74
-119.34
-113.84
-100.70
-88.40
-85.61
-96.48
-117.80
-139.83
-151.00
-143.71
-118.20
-82.10
-46.12
-18.47
-1.44
8.26
16.10
25.61
36.27
44.65
47.47
44.48
38.93
35.65
37.79
44.63
51.68
53.38
46.49
32.31
16.38
5.82
5.77
17.04
35.75
55.13
68.37
70.87
61.08
39.77
8.59
-30.79
-76.40
-124.90
-170.73
-206.67
-225.82
-224.21
-202.54
-165.92
-121.69
-76.38
-33.71
5.56
42.05
75.82
105.53
129.14
145.40
154.71
158.74
159.01
155.86
148.43
135.77
118.24
98.05
78.41
61.89
49.04
38.12
26.42
12.25
-3.79
-18.96
-30.00
-35.13
-35.15
-32.91
-31.71
-33.38
-37.46
-41.64
-43.20
-40.43
-33.24
-22.65
-9.69
5.46
23.49
45.01
69.33
93.79
114.03
125.43
124.67
110.87
85.79
53.12
17.48
-16.41
-44.34
-63.10
-71.15
-69.10
-59.68
-46.77
-33.80
-22.35
-11.80
-0.35
13.27
28.45
42.57
52.21
54.71
49.32
37.26
21.03
3.45
-12.96
-26.26
-35.17
-39.13
-38.38
-34.04
-27.82
-21.52
-16.45
-13.08
-10.99
-9.20
-6.80
-3.41
0.56
4.14
6.29
6.52
5.18
3.27
1.84
1.39
1.51
1.13
-0.77
-4.60
-9.89
-15.68
-21.00
-25.46
-29.12
-32.14
-34.26
-34.63
-32.22
-26.49
-17.94
-8.10
1.00
7.73
11.46
12.70
12.62
12.25
11.88
10.90
8.29
3.34
-3.67
-11.36
-17.80
-21.31
-21.35
-18.68
-15.09
-12.53
-12.33
-14.75
-19.06
-23.97
-28.16
-30.62
-30.82
-28.67
-24.61
-19.45
-14.23
-9.90
-6.96
-5.24
-4.02
-2.46
0.02
3.41
7.22
10.79
13.62
15.53
16.55
16.72
15.98
14.27
11.71
8.62
5.43
2.42
-0.33
-2.85
-4.97
-6.13
-5.68
-3.31
0.32
3.69
4.91
2.83
-2.21
-8.32
-12.84
-13.56
-9.69
-2.06
7.50
17.07
25.45
32.35
38.03
42.81
46.71
49.37
50.38
49.56
47.16
43.72
39.89
36.14
32.59
29.06
25.21
20.70
15.47
9.72
3.82
-1.88
-7.23
-12.31
-17.11
-21.31
-24.19
-24.88
-22.89
-18.52
-12.85
-7.28
-2.89
0.03
1.92
3.43
4.92
6.18
6.81
6.70
6.36
6.63
8.12
10.58
13.03
14.44
14.64
14.72
16.57
21.78
30.54
41.19
50.81
56.38
55.88
48.86
36.32
20.22
2.98
-12.90
-25.04
-31.64
-31.83
-26.10
-16.15
-4.33
7.16
16.85
24.10
28.92
31.64
32.93
33.90
36.17
41.44
50.60
62.89
75.71
85.37
88.59
84.00
72.60
57.05
40.16
23.60
7.82
-6.95
-19.42
-26.94
-26.56
-16.94
0.27
20.56
38.42
49.67
52.96
49.34
40.40
26.39
5.94
-22.36
-57.29
-93.40
-121.78
-133.47
-123.55
-93.98
-53.10
-12.42
17.89
32.47
31.47
19.09
0.70
-19.42
-38.99
-57.16
-73.42
-86.79
-95.70
-98.85
-96.19
-89.45
-81.76
-76.35
-74.93
-76.65
-78.35
-76.10
-67.57
-53.78
-39.11
-29.46
-29.51
-40.63
-60.45
-84.43
-107.87
-127.61
-142.31
-151.75
-155.90
-154.75
-149.13
-141.41
-135.49
-135.34
-142.64
-155.07
-166.63
-170.27
-161.52
-140.89
-113.50
-86.09
-63.00
-44.04
-25.59
-4.10
20.52
44.32
61.86
70.27
71.84
73.13
81.12
98.82
123.40
147.61
163.90
168.39
162.31
150.59
138.88
130.82
127.09
126.07
125.18
121.98
114.61
101.99
84.04
61.96
38.22
16.09
-1.37
-12.31
-16.57
-15.32
-10.04
-1.53
10.57
27.57
50.57
79.02
109.77
137.37
155.81
160.97
152.66
134.74
113.44
94.67
81.72
74.59
71.05
68.25
63.63
54.67
38.31
11.53
-26.69
-72.96
-118.79
-152.80
-165.46
-153.93
-124.12
-88.61
-61.45
-52.48
-63.88
-90.40
-122.70
-151.55
-170.93
-178.91
-176.77
-167.20
-153.21
-137.50
-122.44
-109.82
-100.00
-91.21
-80.16
-63.84
-41.82
-17.39
3.77
16.85
21.17
21.54
26.43
43.96
78.43
129.26
192.52
263.34
337.04
408.36
470.04
512.98
528.35
511.49
464.84
397.62
322.32
249.60
184.21
124.10
63.42
-3.74
-79.23
-158.70
-232.57
-289.38
-319.97
-320.55
-293.40
-244.62
-183.55
-120.84
-66.60
-28.61
-10.84
-12.62
-29.04
-52.48
-73.22
-84.38
-83.28
-70.20
-46.00
-10.34
37.56
96.54
161.46
225.58
279.53
314.56
326.22
315.92
290.08
257.06
223.49
178.34
118.05
47.29
-23.15
-82.90
-126.73
-154.21
-167.53
-170.72
-168.97
-165.56
-163.87
-167.41
-176.28
-187.35
-195.03
-193.03
-177.09
-146.39
-101.80
-47.66
8.96
59.69
96.52
110.35
95.92
54.38
-5.69
-68.86
-119.15
-145.73
-146.65
-128.94
-104.75
-85.53
-78.27
-83.79
-97.41
-112.72
-124.34
-129.13
-126.19
-116.06
-99.68
-78.81
-56.22
-35.43
-20.15
-13.07
-14.61
-22.37
-31.64
-36.55
-32.30
-16.82
8.35
38.49
67.26
88.88
100.05
100.91
94.70
86.04
78.91
75.09
73.79
72.45
68.32
59.96
48.01
34.92
23.79
16.85
14.56
15.37
16.42
14.82
8.78
-1.71
-15.03
-28.64
-40.17
-48.24
-52.65
-54.06
-53.31
-50.83
-46.52
-40.10
-31.72
-22.32
-13.55
-7.00
-3.49
-2.70
-3.40
-4.26
-4.63
-4.71
-5.32
-7.10
-10.05
-13.47
-16.34
-17.86
-17.75
-16.24
-13.82
-11.02
-8.26
-5.81
-3.84
-2.35
-1.19
0.00
1.77
4.68
9.12
15.05
21.92
28.60
33.65
35.81
34.42
29.82
23.25
16.42
10.89
7.54
6.36
6.73
7.80
9.01
10.25
11.68
13.41
15.08
15.75
14.30
9.99
3.18
-4.57
-11.07
-14.41
-14.04
-11.07
-7.78
-6.44
-8.11
-12.17
-16.79
-20.08
-21.33
-21.42
-22.33
-25.97
-33.03
-42.50
-52.17
-59.79
-64.26
-66.20
-67.58
-70.72
-77.07
-86.69
-98.37
-110.47
-121.94
-132.68
-143.44
-155.02
-167.52
-180.08
-191.30
-199.94
-205.40
-207.71
-206.85
-202.03
-191.59
-173.45
-146.07
-109.33
-64.56
-13.86
40.96
98.87
158.96
218.84
273.50
315.38
336.42
331.41
300.53
249.61
187.81
124.12
64.62
11.98
-32.77
-68.05
-90.73
-97.07
-84.96
-55.75
-14.66
30.58
72.04
103.61
122.04
126.94
119.98
103.83
81.24
54.28
24.19
-8.24
-41.92
-74.70
-103.48
-125.15
-137.63
-140.83
-136.56
-127.74
-117.10
-106.54
-96.98
-88.72
-81.92
-76.87
-73.78
-72.32
-71.36
-69.05
-63.30
-52.52
-36.13
-14.77
10.05
36.53
63.14
88.82
112.96
135.13
154.99
172.38
187.33
200.18
211.37
221.17
229.53
236.07
240.37
242.27
242.05
240.28
237.59
234.38
230.74
226.46
221.25
214.74
206.55
196.41
184.23
170.39
155.64
141.03
127.53
115.73
105.71
97.09
89.11
80.79
70.96
58.50
42.65
23.43
1.88
-20.04
-39.90
-55.52
-65.48
-69.45
-68.02
-62.52
-54.71
-46.39
-39.12
-33.82
-30.60
-28.81
-27.45
-25.61
-22.91
-19.48
-15.75
-12.12
-8.73
-5.57
-2.75
-0.71
-0.18
-1.93
-6.37
-13.27
-21.66
-30.09
-37.08
-41.61
-43.37
-42.74
-40.49
-37.39
-33.85
-29.71
-24.34
-16.90
-6.70
6.53
22.34
39.46
55.67
68.06
73.69
70.57
58.63
40.29
20.30
4.35
-3.07
-0.89
7.87
17.63
23.02
21.58
14.82
7.23
3.95
8.08
19.08
33.48
47.16
57.45
63.59
65.70
63.83
57.64
46.94
32.37
15.77
-0.41
-14.95
-29.81
-49.61
-78.60
-117.10
-159.51
-196.07
-216.95
-216.13
-193.66
-155.48
-108.35
-61.50
-22.14
9.19
35.61
57.49
70.12
66.87
46.13
8.99
-38.09
-86.23
-127.20
-157.21
-177.90
-194.49
-207.99
-219.80
-230.01
-230.56
-216.58
-187.96
-150.11
-110.79
-75.97
-47.75
-26.16
-9.60
3.75
14.26
21.86
26.35
27.96
27.65
27.12
26.83
26.85
26.68
24.82
20.18
12.58
2.94
-7.80
-17.79
-27.02
-36.02
-45.80
-57.90
-73.61
-93.72
-118.14
-145.29
-168.35
-182.67
-183.43
-168.07
-138.50
-100.95
-63.98
-34.96
-17.48
-10.11
-9.28
-10.06
-10.26
-9.81
-9.55
-10.05
-10.98
-11.57
-10.65
-8.78
-7.21
-7.45
-10.37
-15.66
-22.08
-28.11
-32.84
-35.34
-36.22
-36.41
-36.55
-36.25
-33.95
-27.18
-12.80
5.81
27.33
50.09
72.65
94.21
114.85
135.47
157.52
182.45
211.03
243.56
278.01
310.29
335.20
348.01
346.25
330.65
304.82
273.81
242.88
215.14
191.24
170.15
150.42
131.21
112.61
95.21
79.36
65.24
52.17
39.20
25.69
11.73
-1.85
-13.96
-23.91
-31.94
-38.90
-46.09
-54.39
-63.80
-73.37
-81.72
-87.75
-91.13
-92.37
-92.42
-92.40
-93.29
-95.83
-100.41
-106.89
-114.38
-121.11
-124.81
-123.41
-115.98
-103.23
-87.32
-71.07
-56.81
-45.80
-38.13
-33.26
-30.62
-29.81
-30.35
-31.41
-31.66
-29.67
-24.61
-16.79
-7.54
1.31
8.37
13.15
16.02
17.65
18.42
18.19
16.56
13.34
8.94
4.29
0.38
-2.21
-3.54
-4.21
-4.98
-6.44
-8.96
-12.77
-18.07
-25.12
-34.03
-44.58
-56.08
-67.42
-77.34
-84.77
-89.11
-90.39
-88.99
-85.22
-78.98
-69.63
-56.45
-39.31
-19.31
1.11
18.75
30.69
35.39
33.20
26.21
17.30
9.01
2.75
-1.50
-4.67
-7.85
-11.46
-15.00
-17.41
-17.82
-16.31
-14.10
-12.98
-14.35
-18.36
-23.75
-28.55
-31.12
-31.00
-29.11
-27.05
-26.25
-27.22
-29.57
-32.44
-35.22
-38.06
-41.79
-47.49
-55.85
-66.83
-79.79
-93.78
-107.85
-121.06
-132.02
-138.54
-137.75
-126.94
-105.04
-73.70
-37.28
-1.38
29.45
53.50
72.02
87.80
102.84
116.88
127.51
131.83
128.44
118.67
106.02
94.66
87.72
86.60
91.21
100.92
114.98
132.28
150.51
165.62
172.34
165.96
144.64
110.93
71.53
35.08
9.02
-2.77
-0.51
12.70
32.73
55.64
77.76
95.29
104.33
101.86
87.20
62.82
33.73
5.54
-17.75
-34.79
-46.43
-54.36
-59.96
-64.04
-67.39
-71.13
-76.55
-84.16
-93.05
-100.82
-104.41
-101.26
-90.08
-71.15
-46.00
-17.02
12.92
40.68
63.18
77.89
83.28
79.38
67.72
51.02
32.47
14.90
0.20
-11.20
-20.10
-28.02
-36.21
-44.91
-52.92
-58.18
-58.76
-54.05
-45.35
-35.51
-27.91
-25.16
-28.30
-36.49
-47.49
-58.50
-67.10
-72.01
-73.44
-72.85
-72.71
-75.79
-84.35
-99.14
-118.52
-138.03
-150.91
-149.91
-130.01
-90.86
-37.81
19.29
69.15
102.63
115.05
106.58
80.95
43.39
-0.43
-44.59
-82.69
-107.97
-114.36
-98.28
-60.39
-6.24
54.75
111.95
156.71
184.89
197.42
199.14
195.94
192.14
188.97
185.03
178.08
166.98
152.69
137.85
125.17
115.98
109.58
103.91
96.72
86.79
74.28
60.43
46.83
34.47
23.44
13.17
3.05
-6.91
-15.82
-22.41
-25.74
-25.90
-24.08
-22.03
-21.22
-22.26
-24.86
-28.23
-31.60
-34.55
-36.98
-39.00
-40.87
-42.98
-45.88
-49.99
-55.23
-60.93
-66.14
-70.24
-73.61
-77.73
-84.45
-95.01
-109.13
-124.87
-139.67
-151.81
-161.38
-169.96
-179.17
-189.17
-198.05
-202.73
-200.38
-190.11
-173.28
-152.49
-129.89
-106.03
-80.02
-50.71
-18.15
16.30
50.16
80.80
106.36
126.20
140.57
149.66
153.04
150.02
141.37
129.41
117.33
107.86
102.08
98.93
95.55
88.61
76.06
59.60
43.24
30.93
24.38
22.67
23.04
22.20
17.72
8.97
-0.54
-5.44
-1.12
14.36
40.05
73.05
109.65
146.43
170.67
172.78
151.96
116.98
78.73
43.60
13.30
-12.35
-33.36
-49.40
-58.48
-59.63
-54.53
-47.64
-44.03
-46.94
-56.57
-69.45
-82.49
-91.43
-93.46
-88.76
-80.35
-72.12
-66.60
-64.13
-63.15
-61.97
-58.70
-52.83
-45.42
-38.40
-33.21
-29.76
-28.20
-27.57
-27.31
-26.95
-26.53
-26.37
-26.63
-26.96
-26.62
-24.98
-21.80
-17.90
-14.43
-12.62
-13.24
-16.34
-21.23
-26.79
-31.79
-35.06
-35.96
-34.39
-30.70
-25.48
-19.44
-13.16
-7.00
-1.16
4.37
9.62
14.55
19.18
23.77
28.89
35.09
42.72
51.80
62.12
73.62
86.07
99.30
113.24
127.67
141.88
154.72
164.98
171.78
175.46
176.84
177.31
178.25
180.18
182.30
182.91
180.22
173.25
162.53
148.32
130.15
107.07
78.67
46.36
14.20
-12.02
-30.85
-40.88
-45.26
-51.07
-64.46
-85.87
-109.89
-128.96
-137.91
-136.54
-128.07
-117.39
-107.68
-99.07
-89.75
-78.28
-64.73
-50.48
-37.49
-26.87
-19.11
-13.62
-9.21
-4.65
0.30
4.54
7.75
9.34
9.34
7.95
5.64
3.12
1.13
-0.34
-1.22
-1.20
-0.01
2.72
6.92
12.03
17.19
21.57
23.97
24.08
22.39
19.54
16.00
11.19
3.27
-10.96
-30.34
-55.85
-88.14
-126.52
-168.39
-208.97
-242.09
-262.20
-266.54
-256.61
-238.20
-218.28
-202.15
-191.84
-186.02
-181.51
-174.91
-163.06
-143.06
-113.23
-73.53
-27.05
19.47
57.34
78.84
79.92
60.80
24.46
-25.74
-86.38
-153.04
-218.78
-273.85
-308.20
-315.42
-295.98
-257.45
-211.34
-167.90
-131.97
-102.32
-74.36
-44.27
-12.27
17.15
37.86
46.13
43.69
37.63
37.39
50.13
77.14
113.50
151.26
184.08
210.41
233.06
255.46
277.68
295.02
300.55
290.16
266.30
237.66
214.83
204.34
205.44
211.58
215.45
214.17
210.55
209.84
214.31
219.90
217.83
199.78
163.73
116.09
68.77
33.01
13.59
6.98
3.92
-5.02
-24.67
-53.50
-85.70
-114.93
-137.52
-152.91
-161.76
-163.54
-155.46
-133.89
-97.52
-50.00
-0.23
40.34
62.46
63.34
48.40
29.26
18.85
25.96
51.42
87.49
120.88
138.06
131.04
101.05
58.51
18.80
-4.23
-4.28
15.03
42.63
65.99
77.21
75.86
67.09
56.48
45.28
29.06
1.29
-40.92
-92.33
-140.95
-173.18
-181.41
-168.41
-145.54
-126.27
-118.22
-119.05
-118.32
-104.70
-73.04
-28.05
18.09
52.83
70.53
75.60
79.47
93.74
122.06
158.24
188.77
199.40
181.66
136.01
70.16
-5.43
-80.60
-150.30
-210.65
-258.64
-291.73
-308.75
-311.09
-302.60
-287.92
-268.26
-246.53
-221.28
-190.88
-155.07
-115.26
-73.56
-31.28
11.65
59.63
110.30
164.90
224.50
289.77
360.13
432.59
500.99
557.04
596.96
611.17
600.45
570.52
529.68
486.01
444.96
408.44
348.71
298.77
250.85
203.45
155.69
106.84
56.61
5.22
-46.95
-99.57
-148.42
-198.99
-252.32
-310.00
-373.55
-442.14
