1594831573.00
64.000000
-0.00
-0.00
-0.00
-0.00
-0.00
-0.00
-0.00
-0.00
-0.00
-0.00
0.00
0.01
0.01
-0.00
-0.03
-0.05
-0.05
0.00
0.13
0.36
0.66
1.01
1.37
1.72
2.06
2.40
2.79
3.24
3.80
4.42
5.06
5.66
6.20
6.68
7.15
7.68
8.31
9.14
10.09
11.04
11.88
12.56
13.14
13.76
14.65
15.96
17.91
20.32
22.90
25.38
27.58
29.57
31.68
34.32
37.81
42.54
48.15
54.10
59.83
64.97
69.58
74.14
79.34
85.71
93.76
103.00
112.62
121.73
129.77
136.75
143.30
150.75
157.77
166.64
177.95
191.79
206.97
220.57
228.25
225.36
208.53
176.87
132.76
80.05
23.07
-34.94
-92.44
-149.16
-205.23
-260.37
-313.74
-363.87
-409.83
-450.91
-486.50
-515.74
-537.23
-549.22
-549.96
-538.37
-514.21
-478.67
-433.88
-382.45
-327.02
-269.84
-212.63
-156.66
-102.95
-52.37
-5.90
35.58
71.43
101.35
125.50
144.38
158.69
169.15
176.37
180.75
182.57
182.07
179.51
175.23
169.65
163.18
156.15
148.81
141.30
133.69
126.02
118.33
110.69
103.16
95.80
88.68
81.83
75.25
68.95
62.95
57.25
51.86
46.78
42.03
37.59
33.45
29.61
26.07
22.81
19.83
17.11
14.67
12.48
10.54
8.83
7.34
6.06
4.98
4.06
3.30
2.66
2.10
1.61
1.18
0.79
0.48
0.25
0.10
0.01
-0.05
-0.10
-0.18
-0.29
-0.40
-0.50
-0.55
-0.53
-0.47
-0.42
-0.41
-0.49
-0.66
-0.87
-1.05
-1.12
-1.07
-0.92
-0.81
-0.84
-1.11
-1.62
-2.22
-2.75
-3.02
-2.96
-2.67
-2.41
-2.44
-2.95
-3.94
-5.15
-6.20
-6.77
-6.69
-6.16
-5.58
-5.44
-6.07
-7.46
-9.23
-10.80
-11.72
-11.74
-11.03
-10.06
-9.33
-9.27
-10.21
-12.32
-15.48
-19.01
-21.50
-21.05
-15.96
-5.69
8.67
24.46
38.45
48.10
52.44
52.27
49.44
45.81
42.46
39.54
36.66
33.47
30.00
26.34
22.58
18.59
14.07
8.79
2.83
-3.29
-8.71
-12.62
-14.64
-15.00
-14.48
-14.08
-14.51
-15.94
-17.90
-19.50
-19.89
-18.60
-15.69
-11.74
-7.57
-4.06
-1.77
-0.88
-1.12
-1.87
-2.41
-2.14
-0.81
1.44
4.14
6.71
8.59
9.44
9.07
7.53
5.00
1.80
-1.55
-4.56
-6.74
-7.83
-7.81
-6.83
-5.17
-3.14
-1.03
0.91
2.48
3.58
4.20
4.44
4.47
4.45
4.43
4.35
4.09
3.47
2.36
0.67
-1.60
-4.36
-7.16
-9.53
-11.06
-11.45
-10.69
-9.03
-7.03
-5.33
-4.55
-5.03
-6.82
-9.57
-12.66
-15.35
-17.01
-17.25
-15.94
-13.23
-9.40
-4.91
-0.27
3.99
7.45
9.82
11.08
11.37
10.99
10.21
9.18
7.91
6.39
4.59
2.54
0.34
-1.81
-3.69
-4.93
-5.19
-4.16
-1.74
1.95
6.54
11.55
16.47
20.89
24.52
27.15
28.60
28.73
27.37
24.50
20.21
14.81
8.72
2.49
-3.39
-8.49
-12.56
-15.55
-17.64
-19.22
-20.80
-22.93
-25.95
-29.89
-34.36
-38.71
-42.23
-44.40
-45.08
-44.46
-42.96
-41.01
-38.87
-36.67
-34.42
-32.07
-29.63
-27.05
-24.31
-21.34
-18.19
-14.94
-11.74
-8.76
-6.08
-3.78
-1.92
-0.63
-0.13
-0.65
-2.26
-4.70
-7.41
-9.61
-10.56
-9.81
-7.26
-3.18
2.00
7.82
13.93
20.09
26.19
32.19
38.12
44.01
49.82
55.35
60.16
63.56
64.89
63.64
59.74
53.53
45.64
36.68
27.11
17.05
6.37
-5.16
-17.76
-31.35
-45.36
-58.56
-69.02
-74.42
-72.60
-62.38
-44.05
-19.54
8.18
35.87
60.89
81.48
96.65
105.75
108.19
103.55
92.02
74.88
54.47
33.82
15.79
2.29
-6.09
-9.92
-10.52
-9.29
-7.37
-5.53
-4.25
-3.84
-4.54
-6.43
-9.42
-13.18
-17.21
-20.94
-23.92
-25.83
-26.55
-26.12
-24.75
-22.70
-20.34
-18.09
-16.38
-15.60
-16.04
-17.92
-21.26
-25.90
-31.34
-36.81
-41.30
-43.87
-43.85
-41.05
-35.81
-28.88
-21.16
-13.50
-6.53
-0.66
3.99
7.46
9.98
11.85
13.40
14.89
16.49
18.24
20.09
21.89
23.44
24.43
24.52
23.42
21.06
17.65
13.62
9.53
5.85
2.85
0.56
-1.16
-2.47
-3.56
-4.60
-5.77
-7.29
-9.30
-11.81
-14.64
-17.44
-19.81
-21.50
-22.52
-23.14
-23.83
-25.03
-27.06
-29.96
-33.57
-37.50
-41.26
-44.32
-46.19
-46.48
-45.00
-41.83
-37.25
-31.76
-25.81
-19.79
-13.89
-8.12
-2.43
3.23
8.83
14.25
19.36
24.08
28.44
32.54
36.49
40.29
43.73
46.43
47.89
47.75
45.97
42.86
39.02
35.13
31.68
28.91
26.78
25.11
23.69
22.40
21.23
20.23
19.51
19.13
19.13
19.45
19.88
20.10
19.64
18.00
14.79
9.82
3.24
-4.43
-12.34
-19.50
-24.97
-28.23
-29.17
-28.20
-25.87
-22.75
-19.10
-14.97
-10.30
-5.12
0.30
5.53
10.09
13.61
15.95
17.17
17.40
16.83
15.70
14.22
12.65
11.11
9.70
8.38
7.14
6.08
5.39
5.35
6.10
7.56
9.36
10.91
11.68
11.34
9.86
7.48
4.61
1.60
-1.25
-3.78
-5.94
-7.81
-9.57
-11.50
-13.93
-17.09
-21.04
-25.60
-30.42
-35.10
-39.25
-42.56
-44.72
-45.41
-44.30
-41.16
-35.99
-29.11
-21.09
-12.62
-4.31
3.40
10.28
16.17
20.94
24.44
26.54
27.21
26.60
25.08
23.18
21.43
20.21
19.60
19.40
19.22
18.73
17.82
16.71
15.76
15.31
15.41
15.76
15.84
15.18
13.59
11.27
8.64
6.18
4.21
2.74
1.62
0.61
-0.48
-1.74
-3.25
-5.11
-7.54
-10.72
-14.75
-19.51
-24.62
-29.55
-33.70
-36.50
-37.57
-36.70
-33.89
-29.39
-23.71
-17.52
-11.52
-6.28
-2.13
0.97
3.32
5.31
7.27
9.33
11.37
13.19
14.60
15.52
15.99
16.15
16.06
15.75
15.16
14.29
13.23
12.14
11.19
10.42
9.78
9.11
8.36
7.58
6.93
6.50
6.29
6.08
5.63
4.81
3.75
2.75
2.10
1.92
2.04
2.00
1.33
-0.33
-3.11
-6.93
-11.59
-16.77
-22.09
-27.04
-31.02
-33.40
-33.80
-32.15
-28.78
-24.31
-19.46
-14.82
-10.76
-7.31
-4.30
-1.44
1.57
4.86
8.46
12.24
16.11
19.96
23.77
27.53
31.14
34.36
36.86
38.28
38.35
36.97
34.24
30.44
25.91
21.04
16.22
11.82
8.17
5.49
3.80
2.84
2.11
0.92
-1.39
-5.26
-10.69
-17.22
-24.03
-30.21
-35.06
-38.31
-40.19
-41.32
-42.40
-43.95
-46.04
-48.31
-50.08
-50.71
-49.87
-47.70
-44.65
-41.30
-38.07
-35.14
-32.49
-30.07
-27.93
-26.15
-24.78
-23.60
-22.15
-19.83
-16.21
-11.20
-5.15
1.32
7.63
13.46
18.76
23.73
28.51
33.10
37.32
40.91
43.70
45.76
47.33
48.69
49.94
50.91
51.28
50.65
48.79
45.72
41.71
37.11
32.24
27.32
22.40
17.50
12.65
7.95
3.51
-0.57
-4.30
-7.76
-11.09
-14.40
-17.68
-20.80
-23.50
-25.55
-26.81
-27.29
-27.07
-26.23
-24.72
-22.38
-18.97
-14.37
-8.68
-2.29
4.21
10.21
15.17
18.80
21.00
21.84
21.46
20.02
17.75
14.98
12.17
9.84
8.46
8.24
9.13
10.78
12.69
14.34
15.36
15.59
15.06
13.94
12.43
10.68
8.74
6.55
3.99
1.02
-2.27
-5.58
-8.56
-10.94
-12.74
-14.40
-16.57
-19.84
-24.42
-29.88
-35.22
-39.28
-41.31
-41.43
-40.75
-41.02
-43.93
-50.24
-59.41
-69.62
-78.57
-84.38
-86.55
-86.15
-85.41
-86.79
-91.81
-100.41
-110.90
-120.71
-127.46
-130.00
-128.95
-126.86
-127.71
-135.91
-154.72
-184.64
-222.02
-258.94
-285.00
-290.78
-271.69
-230.54
-177.38
-126.33
-90.56
-77.67
-87.27
-111.74
-139.63
-159.90
-165.18
-153.16
-125.69
-86.65
-39.84
12.44
69.66
132.36
200.87
274.01
348.18
417.57
475.56
516.84
539.28
544.54
537.04
521.54
500.82
474.71
440.81
396.49
340.77
275.59
205.68
137.62
78.51
34.55
9.89
5.93
21.04
51.04
90.40
133.05
173.00
204.59
222.99
225.06
210.34
181.46
143.09
100.39
57.77
19.00
-11.99
-30.76
-33.81
-21.35
0.71
21.37
28.59
14.72
-19.52
-65.32
-110.01
-142.99
-159.85
-162.66
-157.08
-148.45
-139.48
-130.31
-120.44
-110.55
-102.69
-99.39
-101.88
-109.07
-117.42
-122.35
-119.91
-108.31
-88.56
-64.26
-40.31
-21.16
-9.35
-4.79
-5.22
-7.57
-9.45
-10.13
-10.35
-11.36
-13.68
-16.42
-17.64
-15.35
-8.63
1.85
14.04
25.32
33.51
37.52
37.57
34.87
30.98
27.26
24.40
22.39
20.52
17.66
12.46
3.71
-9.34
-26.68
-47.27
-69.18
-89.77
-106.23
-116.05
-117.34
-109.15
-91.34
-64.53
-29.69
11.82
58.01
105.65
150.14
186.40
210.51
221.20
220.24
211.25
197.55
180.47
159.30
132.71
100.87
66.51
34.38
9.16
-6.42
-12.49
-11.37
-6.15
0.52
6.87
11.77
14.44
14.30
11.04
4.62
-4.90
-17.29
-32.04
-48.13
-64.00
-77.77
-87.88
-93.69
-95.73
-95.44
-94.39
-93.72
-93.77
-94.26
-94.79
-95.26
-95.95
-97.17
-99.05
-101.14
-102.72
-103.09
-102.00
-99.69
-96.78
-93.86
-91.13
-88.15
-83.97
-77.46
-67.86
-55.12
-40.11
-24.43
-9.85
2.26
11.53
18.50
24.29
29.94
35.92
42.04
47.75
52.48
55.87
57.72
57.84
55.91
51.66
45.13
36.86
27.78
19.07
11.71
6.28
2.82
0.99
0.18
-0.33
-1.33
-3.60
-7.70
-13.84
-21.79
-30.92
-40.41
-49.52
-57.78
-64.99
-71.31
-76.98
-82.12
-86.76
-90.87
-94.41
-97.05
-98.29
-97.27
-93.57
-87.11
-78.32
-68.29
-58.53
-50.73
-45.69
-43.72
-44.11
-46.71
-51.26
-57.22
-63.55
-68.71
-71.06
-68.39
-59.91
-45.69
-28.46
-11.36
3.62
16.42
28.72
41.85
56.60
70.27
79.29
79.01
67.82
48.03
24.01
-0.77
-26.96
-57.32
-97.23
-134.42
-155.91
-154.22
-132.72
-101.31
-67.53
-43.58
-22.20
3.41
35.35
67.09
87.99
91.96
75.83
43.24
1.78
-38.91
-73.22
-98.03
-113.00
-117.02
-108.06
-85.65
-53.14
-18.57
10.57
29.89
41.69
52.23
68.69
95.21
130.65
169.97
203.47
221.11
218.11
199.38
174.00
148.93
126.49
106.07
86.86
68.94
54.06
44.10
40.56
41.45
43.46
43.54
40.18
33.75
25.97
19.52
16.84
18.84
24.08
29.79
32.29
29.48
21.26
9.33
-3.39
-13.63
-19.04
-19.16
-14.96
-8.45
-1.98
1.87
0.68
-7.06
-21.16
-39.55
-58.68
-74.43
-83.54
-84.60
-78.39
-67.07
-52.74
-36.32
-17.53
4.26
29.04
55.72
82.39
107.02
128.10
144.78
156.40
162.13
160.90
152.04
136.20
116.05
95.98
80.80
73.98
76.25
85.35
97.07
106.93
111.88
111.05
105.54
97.43
88.52
79.58
70.20
59.49
47.03
33.41
20.09
8.63
-0.13
-6.48
-11.55
-16.64
-22.49
-29.10
-35.99
-42.84
-49.84
-57.54
-66.45
-76.40
-86.61
-95.92
-103.38
-108.56
-111.49
-112.44
-111.78
-109.96
-107.55
-105.09
-102.92
-100.95
-98.71
-95.59
-91.12
-85.32
-78.59
-71.53
-64.72
-58.55
-53.22
-48.84
-45.42
-42.84
-40.67
-38.35
-35.34
-31.54
-27.40
-23.63
-20.87
-19.16
-17.97
-16.43
-13.88
-10.34
-6.54
-3.61
-2.54
-3.67
-6.61
-10.31
-13.37
-14.41
-12.45
-7.20
0.76
10.19
19.47
27.16
32.31
34.62
34.48
32.76
30.57
28.89
28.32
28.78
29.64
30.03
29.36
27.83
26.32
25.96
27.34
29.99
32.47
33.07
30.59
24.75
15.99
5.20
-6.25
-16.23
-21.97
-20.95
-12.59
0.48
12.72
17.92
12.41
-2.73
-21.92
-37.91
-45.46
-43.66
-35.70
-26.37
-19.13
-14.69
-11.66
-8.45
-4.88
-2.27
-2.41
-6.06
-12.31
-18.95
-23.57
-24.85
-22.95
-19.23
-15.44
-12.82
-11.66
-11.35
-10.94
-9.78
-8.02
-6.57
-6.71
-9.45
-14.95
-22.37
-30.11
-36.33
-39.38
-38.19
-32.27
-21.83
-7.80
8.04
23.15
34.75
40.67
40.30
34.85
26.84
18.91
12.60
7.93
3.75
-1.41
-8.46
-17.56
-28.38
-40.61
-54.29
-69.55
-86.11
-102.96
-118.74
-132.34
-143.58
-152.98
-160.99
-167.10
-169.71
-166.85
-157.52
-142.66
-125.11
-108.41
-95.38
-86.99
-82.52
-80.43
-79.50
-79.26
-79.75
-80.77
-81.69
-81.67
-80.45
-78.80
-78.17
-80.68
-87.57
-98.88
-113.43
-129.22
-144.06
-156.07
-164.00
-167.31
-166.97
-164.78
-162.87
-162.51
-162.67
-159.47
-147.12
-120.53
-77.69
-22.96
35.16
86.65
124.06
145.24
153.41
154.65
154.18
155.04
153.82
146.76
131.16
107.68
80.67
56.69
42.02
40.30
54.07
77.12
104.41
131.04
153.46
169.80
179.09
180.57
173.55
162.29
144.03
122.82
104.07
92.56
90.40
96.04
105.15
113.13
123.08
130.21
138.02
150.29
168.67
191.86
216.55
239.45
224.85
217.08
213.01
216.16
228.31
248.09
270.61
288.65
294.82
284.04
260.87
223.05
177.33
130.90
89.19
54.59
26.88
4.44
-14.36
-26.55
-37.61
-48.70
-61.15
-75.97
-93.04
-110.86
-126.91
-138.52
-141.32
-138.03
-130.12
-120.02
-110.10
-101.88
-95.54
-90.10
-84.03
-74.82
-63.52
-50.86
-38.38
-27.79
-20.28
-16.17
-14.91
-15.40
-16.12
-16.86
-17.41
-17.91
-18.56
-19.46
-20.51
-21.54
-22.39
-23.03
-23.59
-24.27
-25.22
-26.54
-28.20
-30.15
-32.38
-34.93
-37.94
-41.49
-45.55
-49.92
-54.33
-58.55
-62.45
-66.06
-69.39
-72.27
-74.24
-74.62
-72.69
-68.00
-60.50
-50.75
-39.67
-28.37
-17.80
-8.53
-0.69
5.97
11.77
16.91
21.39
25.05
27.85
30.00
32.08
34.72
38.39
43.10
48.39
53.51
57.75
60.64
62.07
62.20
61.28
59.49
56.93
53.58
49.33
44.08
37.69
30.09
21.40
11.91
2.09
-7.58
-16.68
-24.99
-32.43
-39.14
-45.34
-51.30
-57.19
-63.00
-68.39
-72.66
-74.92
-74.25
-70.07
-62.35
-51.66
-38.99
-25.44
-11.97
0.78
12.48
22.93
31.98
39.43
45.08
48.81
50.68
50.91
49.86
47.90
45.38
42.55
39.56
36.51
33.48
30.49
27.50
24.45
21.25
17.85
14.30
10.71
7.29
4.23
1.67
-0.33
-1.80
-2.83
-3.49
-3.81
-3.70
-3.06
-1.82
-0.09
1.78
3.27
3.73
2.57
-0.65
-6.05
-13.33
-21.74
-30.19
-37.36
-42.03
-43.41
-41.25
-35.93
-28.30
-19.37
-10.07
-1.09
7.15
14.41
20.61
25.67
29.56
32.26
33.84
34.41
34.11
33.09
31.48
29.39
26.97
24.43
22.01
19.96
18.39
17.23
16.24
15.10
13.52
11.40
8.85
6.08
3.33
0.76
-1.50
-3.44
-4.97
-6.03
-6.62
-6.83
-6.97
-7.47
-8.70
-10.89
-13.96
-17.56
-21.28
-24.84
-28.16
-31.41
-34.71
-37.95
-40.73
-42.46
-42.62
-40.91
-37.48
-32.72
-27.12
-21.05
-14.71
-8.19
-1.65
4.68
10.47
15.43
19.46
22.62
25.04
26.87
28.14
28.76
28.58
27.51
25.60
23.10
20.41
17.99
16.23
15.27
14.96
14.91
14.65
13.83
12.38
10.50
8.48
6.57
4.80
3.00
0.99
-1.31
-3.83
-6.39
-8.83
-11.18
-13.61
-16.36
-19.61
-23.32
-27.25
-31.11
-34.60
-37.51
-39.77
-41.30
-41.93
-41.33
-39.07
-34.90
-28.80
-21.24
-12.99
-4.92
2.30
8.34
13.23
17.21
20.51
23.28
25.58
27.45
28.92
30.04
30.76
31.00
30.69
29.90
28.86
27.88
27.21
26.90
26.76
26.41
25.53
23.90
21.57
18.78
15.85
13.09
10.64
8.47
6.42
4.34
2.23
0.29
-1.15
-1.71
-1.20
0.30
2.37
4.24
4.86
3.08
-1.89
-10.14
-20.75
-31.93
-41.46
-47.50
-49.10
-46.47
-40.70
-33.17
-25.10
-17.20
-9.79
-2.90
3.50
9.44
15.01
20.27
25.34
30.27
34.96
39.19
42.66
45.02
46.03
45.62
43.92
41.25
37.96
34.36
30.64
26.88
23.09
19.29
15.50
11.82
8.35
5.22
2.52
0.21
-1.88
-4.05
-6.61
-9.68
-13.13
-16.58
-19.65
-22.13
-24.09
-25.87
-27.87
-30.38
-33.51
-37.23
-41.42
-45.91
-50.44
-54.60
-57.85
-59.71
-59.94
-58.70
-56.50
-53.99
-51.68
-49.74
-47.98
-46.10
-43.88
-41.46
-39.24
-37.76
-37.35
-38.00
-39.28
-40.52
-41.04
-40.34
-38.15
-34.42
-29.29
-23.09
-16.23
-9.30
-2.85
2.66
7.08
10.52
13.26
15.59
17.63
19.35
20.69
21.64
22.24
22.59
22.70
22.49
21.88
20.77
19.19
17.16
14.74
11.88
8.53
4.70
0.45
-4.00
-8.36
-12.33
-15.63
-17.96
-19.06
-18.68
-16.70
-13.09
-8.03
-1.86
4.98
12.02
18.84
25.11
30.55
34.98
38.21
40.11
40.56
39.54
37.17
33.71
29.59
25.33
21.41
18.16
15.73
14.05
12.89
12.05
11.39
10.86
10.40
9.84
8.91
7.27
4.75
1.46
-2.23
-5.82
-8.97
-11.55
-13.76
-15.86
-18.14
-20.73
-23.64
-26.86
-30.38
-34.18
-38.14
-41.99
-45.24
-47.39
-47.95
-46.61
-43.29
-38.18
-31.70
-24.37
-16.77
-9.33
-2.34
4.13
10.10
15.53
20.26
24.06
26.73
28.18
28.54
28.07
27.02
25.66
24.20
22.84
21.76
21.08
20.74
20.53
20.14
19.28
17.85
15.84
13.42
10.75
7.97
5.23
2.64
0.32
-1.72
-3.52
-5.21
-6.92
-8.73
-10.66
-12.76
-15.13
-17.96
-21.45
-25.62
-30.30
-35.05
-39.28
-42.43
-44.12
-44.09
-42.24
-38.56
-33.16
-26.37
-18.68
-10.74
-3.16
3.63
9.49
14.41
18.51
21.78
24.12
25.43
25.67
24.96
23.52
21.55
19.24
16.72
14.18
11.85
9.97
8.68
7.97
7.65
7.52
7.38
7.13
6.75
6.14
5.14
3.57
1.32
-1.56
-4.82
-8.13
-11.20
-13.82
-15.91
-17.56
-18.95
-20.39
-22.21
-24.77
-28.21
-32.43
-36.97
-41.16
-44.20
-45.42
-44.46
-41.29
-36.18
-29.59
-22.04
-14.00
-5.85
2.10
9.62
16.53
22.67
27.94
32.24
35.56
37.87
39.23
39.71
39.46
38.64
37.44
36.03
34.53
33.04
31.57
30.15
28.73
27.27
25.67
23.87
21.85
19.65
17.41
15.28
13.38
11.64
9.85
7.71
5.00
1.68
-2.04
-5.87
-9.60
-13.27
-17.14
-21.56
-26.74
-32.59
-38.65
-44.16
-48.30
-50.37
-49.93
-46.96
-41.73
-34.79
-26.77
-18.26
-9.78
-1.70
5.76
12.47
18.34
23.29
27.29
30.29
32.38
33.68
34.42
34.81
34.92
34.72
34.13
33.20
32.09
31.08
30.37
29.96
29.61
28.97
27.81
26.10
24.07
21.97
19.94
17.88
15.56
12.75
9.37
5.59
1.65
-2.18
-5.76
-9.10
-12.34
-15.69
-19.38
-23.55
-28.22
-33.22
-38.16
-42.51
-45.70
-47.29
-47.05
-44.95
-41.21
-36.06
-29.81
-22.71
-15.07
-7.20
0.54
7.82
14.36
20.04
24.80
28.57
31.28
32.87
33.35
32.92
31.89
30.63
29.42
28.41
27.56
26.74
25.77
24.58
23.10
21.38
19.44
17.33
15.08
12.67
10.04
7.12
3.91
0.49
-2.93
-6.11
-8.89
-11.29
-13.46
-15.64
-18.05
-20.81
-23.98
-27.59
-31.67
-36.21
-41.10
-46.01
-50.40
-53.57
-54.87
-53.78
-50.16
-44.19
-36.35
-27.29
-17.69
-8.17
0.81
8.91
15.94
21.81
26.56
30.37
33.47
36.09
38.34
40.20
41.46
41.93
41.47
40.19
38.41
36.58
35.11
34.29
34.16
34.53
35.02
35.26
34.96
34.03
32.52
30.65
28.55
26.27
23.78
20.99
17.87
14.54
11.17
7.89
4.72
1.49
-2.02
-5.97
-10.40
-15.14
-19.99
-24.72
-29.17
-33.13
-36.33
-38.34
-38.67
-36.94
-33.06
-27.37
-20.49
-13.22
-6.20
0.24
6.07
11.45
16.50
21.17
25.25
28.44
30.55
31.57
31.73
31.30
30.57
29.71
28.82
27.95
27.16
26.45
25.77
24.97
23.86
22.36
20.49
18.33
16.07
13.84
11.71
9.67
7.65
5.52
3.11
0.28
-3.03
-6.72
-10.50
-14.02
-17.05
-19.56
-21.87
-24.42
-27.63
-31.68
-36.42
-41.36
-45.82
-49.09
-50.58
-49.98
-47.25
-42.64
-36.54
-29.38
-21.65
-13.78
-6.17
0.84
7.02
12.28
16.63
20.14
22.85
24.76
25.83
26.08
25.63
24.72
23.57
22.33
21.09
19.84
18.57
17.26
15.94
14.68
13.55
12.62
11.90
11.33
10.78
10.07
9.03
7.61
5.80
3.68
1.38
-0.98
-3.36
-5.77
-8.28
-10.95
-13.89
-17.15
-20.80
-24.88
-29.43
-34.49
-39.98
-45.59
-50.81
-54.97
-57.42
-57.69
-55.70
-51.66
-46.04
-39.33
-31.98
-24.39
-16.85
-9.68
-3.12
2.58
7.27
10.88
13.44
15.05
15.90
16.24
16.27
16.08
15.66
14.94
13.98
12.98
12.28
12.18
12.77
13.85
14.96
15.61
15.51
14.63
13.20
11.50
9.72
7.92
6.02
4.01
1.94
-0.03
-1.81
-3.42
-5.00
-6.79
-8.89
-11.28
-13.76
-16.14
-18.35
-20.57
-23.07
-26.09
-29.63
-33.32
-36.54
-38.54
-38.75
-36.88
-33.06
-27.70
-21.42
-14.76
-8.13
-1.72
4.44
10.39
16.05
21.26
25.74
29.27
31.74
33.23
33.96
34.22
34.22
34.03
33.59
32.85
31.79
30.53
29.28
28.19
27.33
26.57
25.73
24.60
23.11
21.30
19.27
17.11
14.84
12.42
9.87
7.28
4.80
2.57
0.60
-1.23
-3.21
-5.60
-8.53
-11.98
-15.77
-19.77
-23.91
-28.22
-32.72
-37.24
-41.38
-44.49
-45.97
-45.39
-42.67
-38.08
-32.12
-25.40
-18.44
-11.63
-5.17
0.85
6.40
11.42
15.79
19.36
22.03
23.78
24.73
25.07
25.00
24.65
24.06
23.24
22.22
21.15
20.21
19.60
19.40
19.50
19.62
19.43
18.64
17.18
15.18
12.91
10.64
8.54
6.57
4.54
2.22
-0.48
-3.54
-6.75
-9.86
-12.65
-15.05
-17.18
-19.28
-21.63
-24.49
-27.96
-31.98
-36.26
-40.32
-43.58
-45.48
-45.56
-43.58
-39.57
-33.78
-26.70
-18.94
-11.19
-4.06
2.05
7.05
11.06
14.41
17.42
20.23
22.79
24.87
26.25
26.80
26.57
25.77
24.66
23.52
22.54
21.80
21.24
20.74
20.18
19.45
18.52
17.36
16.00
14.39
12.54
10.48
8.27
5.96
3.57
1.09
-1.54
-4.27
-7.03
-9.67
-12.13
-14.45
-16.83
-19.52
-22.78
-26.70
-31.19
-35.98
-40.66
-44.78
-47.95
-49.85
-50.32
-49.31
-46.86
-43.02
-37.92
-31.73
-24.71
-17.21
-9.69
-2.53
3.95
9.62
14.45
18.52
21.91
24.69
26.87
28.42
29.33
29.60
29.28
28.55
27.63
26.74
26.11
25.88
26.08
26.63
27.32
27.81
27.74
26.84
24.98
22.29
19.10
15.81
12.76
10.10
7.77
5.57
3.21
0.47
-2.67
-6.07
-9.46
-12.61
-15.45
-18.05
-20.66
-23.49
-26.61
-29.87
-32.86
-35.10
-36.09
-35.46
-33.04
-28.88
-23.28
-16.69
-9.72
-2.92
3.27
8.63
13.15
16.89
19.99
22.52
24.49
25.85
26.54
26.51
25.79
24.48
22.76
20.83
18.94
17.31
16.08
15.32
15.01
14.98
15.05
14.97
14.61
13.93
13.01
11.92
10.68
9.16
7.25
4.88
2.17
-0.67
-3.44
-6.05
-8.57
-11.17
-13.97
-16.95
-20.05
-23.18
-26.38
-29.85
-33.82
-38.29
-42.94
-47.11
-49.95
-50.71
-48.98
-44.78
-38.53
-30.91
-22.54
-13.95
-5.49
2.59
10.05
16.66
22.21
26.59
29.83
32.04
33.38
34.03
34.16
33.89
33.34
32.53
31.44
30.01
28.26
26.32
24.42
22.75
21.34
20.00
18.40
16.26
13.55
10.45
7.25
4.18
1.30
-1.45
-4.17
-6.88
-9.54
-12.06
-14.42
-16.67
-18.85
-21.00
-23.01
-24.85
-26.54
-28.30
-30.42
-33.16
-36.59
-40.50
-44.40
-47.63
-49.47
-49.33
-46.93
-42.38
-36.21
-29.15
-21.99
-15.34
-9.48
-4.42
0.02
4.06
7.82
11.30
14.44
17.13
19.31
20.96
22.07
22.63
22.67
22.15
21.16
19.79
18.29
16.92
15.92
15.38
15.20
15.14
14.93
14.42
13.64
12.70
11.68
10.55
9.16
7.35
5.10
2.55
-0.02
-2.36
-4.33
-5.94
-7.34
-8.75
-10.33
-12.12
-14.14
-16.35
-18.74
-21.32
-24.13
-27.10
-30.05
-32.61
-34.33
-34.70
-33.42
-30.35
-25.65
-19.64
-12.77
-5.48
1.82
8.74
14.98
20.29
24.53
27.69
29.89
31.34
32.23
32.72
32.85
32.65
32.09
31.18
29.99
28.69
27.44
26.35
25.47
24.68
23.84
22.74
21.26
19.39
17.19
14.82
12.46
10.27
8.35
6.66
5.12
3.61
2.05
0.43
-1.18
-2.78
-4.38
-6.11
-8.15
-10.69
-13.84
-17.61
-21.84
-26.22
-30.30
-33.57
-35.53
-35.87
-34.50
-31.62
-27.59
-22.82
-17.65
-12.28
-6.81
-1.31
4.13
9.34
14.10
18.19
21.40
23.63
24.82
25.07
24.59
23.69
22.69
21.83
21.23
20.81
20.44
19.96
19.27
18.30
17.01
15.39
13.38
11.01
8.36
5.58
2.82
0.20
-2.25
-4.59
-6.88
-9.18
-11.50
-13.79
-16.02
-18.18
-20.29
-22.43
-24.77
-27.44
-30.55
-34.07
-37.80
-41.42
-44.49
-46.59
-47.37
-46.58
-44.12
-40.04
-34.60
-28.22
-21.42
-14.70
-8.48
-2.95
1.89
6.13
9.89
13.24
16.15
18.56
20.40
21.60
22.13
21.99
21.16
19.74
17.84
15.69
13.54
11.67
10.27
9.43
9.08
9.06
9.11
9.03
8.63
7.84
6.61
5.00
3.07
0.97
-1.17
-3.24
-5.15
-6.92
-8.59
-10.19
-11.73
-13.22
-14.73
-16.40
-18.43
-21.01
-24.14
-27.65
-31.18
-34.29
-36.63
-37.91
-37.97
-36.73
-34.18
-30.42
-25.70
-20.36
-14.72
-9.05
-3.48
1.98
7.29
12.38
17.03
20.99
24.00
25.91
26.72
26.55
25.70
24.52
23.41
22.63
22.29
22.30
22.45
22.50
22.30
21.84
21.15
20.32
19.38
18.39
17.39
16.47
15.70
15.06
14.43
13.54
12.14
10.03
7.24
4.00
0.65
-2.51
-5.35
-7.95
-10.56
-13.40
-16.56
-19.92
-23.19
-26.02
-28.09
-29.15
-29.03
-27.59
-24.72
-20.40
-14.74
-7.97
-0.47
7.32
15.01
22.25
28.70
34.03
37.89
40.09
40.62
39.78
38.10
36.11
34.18
32.42
30.74
28.96
26.98
24.85
22.71
20.70
18.86
17.10
15.30
13.38
11.28
9.03
6.62
4.05
1.30
-1.60
-4.58
-7.51
-10.28
-12.87
-15.31
-17.72
-20.20
-22.83
-25.65
-28.67
-31.96
-35.60
-39.61
-43.85
-47.84
-50.87
-52.05
-50.59
-46.06
-38.44
-28.16
-15.96
-2.74
10.54
22.99
33.87
42.69
49.23
53.46
55.48
55.36
53.12
48.87
42.88
35.68
28.01
20.65
14.24
9.15
5.53
3.33
2.36
2.27
2.48
2.15
0.42
-3.35
-9.27
-16.73
-24.58
-31.45
-36.31
-38.84
-39.60
-39.81
-40.88
-43.83
-48.91
-55.58
-62.75
-69.27
-74.37
-77.88
-80.28
-82.47
-85.43
-89.92
-96.14
-103.43
-110.21
-114.16
-112.80
-104.23
-87.95
-65.36
-39.48
-14.19
7.00
22.08
30.97
35.26
37.31
39.11
41.55
44.32
46.42
47.02
45.93
43.82
41.68
40.43
40.43
41.58
43.64
46.57
50.70
56.46
64.12
73.26
82.79
91.10
96.60
98.18
95.65
89.79
82.05
74.07
67.17
62.03
58.73
57.04
56.58
57.03
58.01
58.98
59.17
57.74
53.94
47.28
37.68
25.47
11.34
-3.62
-18.11
-30.77
-40.55
-46.90
-49.92
-50.16
-48.29
-44.81
-39.87
-33.45
-25.54
-16.42
-6.79
2.35
9.91
15.05
17.35
16.93
14.28
10.17
5.39
0.64
-3.53
-6.74
-8.76
-9.53
-9.13
-7.79
-5.80
-3.45
-0.99
1.42
3.65
5.59
7.16
8.37
9.24
9.73
9.66
8.73
6.61
3.07
-1.93
-8.18
-15.20
-22.49
-29.71
-36.78
-43.85
-51.10
-58.58
-66.11
-73.13
-78.70
-81.86
-82.03
-79.29
-74.35
-68.38
-62.60
-57.88
-54.52
-51.64
-48.25
-43.85
-38.86
-34.45
-32.03
-32.74
-37.05
-44.46
-52.38
-58.28
-60.62
-59.58
-56.68
-53.79
-52.07
-51.27
-49.40
-41.11
-21.15
13.77
63.93
126.83
197.56
269.05
332.06
376.39
395.80
387.54
353.91
302.27
243.99
191.34
154.06
135.71
117.76
86.63
37.93
-21.06
-78.63
-126.27
-161.19
-184.44
-199.77
-211.04
-217.99
-219.03
-211.95
-196.98
-175.95
-151.50
-125.05
-97.93
-71.13
-43.67
-15.60
11.48
34.98
53.64
62.09
61.32
55.53
49.89
49.47
56.16
68.32
81.95
93.03
99.20
101.07
99.86
96.38
91.08
83.57
73.38
60.66
46.69
33.47
23.33
16.92
12.98
9.33
3.71
-5.09
-16.97
-30.75
-44.76
-57.01
-66.16
-71.40
-72.24
-68.44
-60.30
-49.05
-37.00
-27.19
-22.24
-23.56
-30.76
-41.73
-53.49
-63.48
-70.43
-74.42
-76.23
-76.54
-75.47
-72.76
-68.25
-62.24
-55.45
-48.57
-41.91
-35.35
-28.78
-22.47
-17.18
-13.73
-12.21
-11.54
-9.71
-4.71
4.30
16.31
28.71
38.51
43.74
44.33
41.99
39.17
37.71
38.04
39.13
39.40
37.63
33.66
28.30
22.73
17.79
13.52
9.37
4.55
-1.43
-8.55
-16.28
-23.84
-30.56
-36.10
-40.46
-43.95
-46.88
-49.35
-51.00
-51.18
-49.21
-44.68
-37.77
-29.18
-19.86
-10.75
-2.52
4.49
10.10
14.22
16.82
18.03
18.15
17.67
17.12
16.98
17.60
19.10
21.34
23.85
25.73
25.81
22.96
16.54
6.74
-5.23
-17.46
-27.79
-34.33
-36.01
-32.65
-25.06
-14.80
-3.96
5.28
11.05
12.33
9.25
3.17
-3.73
-9.15
-11.40
-10.02
-5.91
-0.95
2.81
3.92
2.05
-1.97
-6.75
-10.93
-13.64
-14.65
-14.18
-12.54
-9.84
-6.11
-1.46
3.59
8.26
12.05
14.92
17.30
19.73
22.44
24.94
26.14
24.68
19.53
10.94
0.21
-10.89
-20.74
-28.27
-33.16
-35.39
-35.10
-32.31
-25.84
-14.90
-0.01
16.82
33.24
47.28
58.43
66.15
68.82
65.34
53.24
29.54
-7.08
-53.36
-101.44
-139.81
-159.25
-156.42
-131.27
-89.07
-38.21
12.98
59.75
100.69
138.02
172.61
203.45
233.79
267.64
307.96
354.31
403.09
447.42
481.78
500.77
475.64
393.75
266.65
125.01
-3.31
-99.07
-171.91
-228.50
-269.82
-293.74
-292.47
-262.57
-209.34
-146.74
-91.16
-56.03
-44.64
-54.21
-78.25
-106.08
-130.37
-144.91
-148.33
-144.31
-139.63
-136.54
-134.22
-129.68
-117.32
-93.38
-58.09
-17.24
23.72
60.21
92.26
121.24
148.47
174.97
199.44
218.31
226.66
221.34
197.21
157.10
107.18
54.42
4.94
-37.39
-70.96
-96.04
-113.37
-123.80
-127.07
-123.64
-114.90
-102.78
-89.16
-75.40
-62.40
-50.63
-40.50
-31.76
-24.33
-18.19
-13.31
-9.58
-6.90
-5.21
-4.42
-4.40
-4.43
-4.03
-2.98
-1.52
-0.19
0.36
-0.27
-2.05
-4.56
-7.03
-8.92
-10.04
-10.60
-10.98
-11.59
-12.70
-14.43
-16.81
-19.65
-22.62
-25.22
-26.89
-27.20
-26.04
-23.71
-20.77
-17.87
-15.44
-13.63
-12.28
-11.11
-9.86
-8.36
-6.59
-4.57
-2.36
-0.08
2.14
4.13
5.66
6.55
6.68
6.02
4.70
2.94
1.04
-0.68
-1.91
-2.39
-1.98
-0.72
1.14
3.24
5.18
6.64
7.46
7.70
7.51
7.12
6.59
5.87
4.75
2.92
0.15
-3.63
-8.26
-13.41
-18.64
-23.44
-27.36
-29.97
-31.01
-30.40
-28.38
-25.48
-22.43
-19.84
-18.06
-17.05
-16.44
-15.80
-14.87
-13.60
-12.16
-10.71
-9.35
-8.01
-6.60
-5.10
-3.65
-2.49
-1.85
-1.77
-2.09
-2.49
-2.66
-2.44
-1.91
-1.29
-0.77
-0.42
-0.10
0.45
1.41
2.80
4.42
5.98
7.18
7.83
7.91
7.48
6.64
5.47
3.96
2.04
-0.29
-2.97
-5.83
-8.62
-11.11
-13.11
-14.48
-15.23
-15.41
-15.15
-14.58
-13.78
-12.77
-11.49
-9.92
-8.05
-6.00
-3.92
-1.99
-0.28
1.25
2.66
3.97
5.09
5.89
6.24
6.17
5.82
5.37
4.92
4.48
3.94
3.19
2.22
1.11
0.02
-0.91
-1.62
-2.22
-2.93
-3.94
-5.28
-6.83
-8.29
-9.35
-9.80
-9.64
-9.05
-8.30
-7.60
-6.98
-6.31
-5.39
-4.10
-2.44
-0.63
1.02
2.23
2.93
3.25
3.56
4.21
5.40
7.07
8.96
10.72
12.05
12.81
12.94
12.50
11.52
10.09
8.36
6.60
5.17
4.36
4.28
4.80
5.50
5.89
5.57
4.40
2.58
0.50
-1.41
-2.89
-3.91
-4.60
-5.13
-5.61
-6.04
-6.39
-6.65
-6.85
-7.08
-7.40
-7.86
-8.42
-9.03
-9.66
-10.31
-10.91
-11.42
-11.75
-11.83
-11.72
-11.53
-11.43
-11.54
-11.86
-12.24
-12.41
-12.10
-11.13
-9.49
-7.32
-4.86
-2.40
-0.21
1.48
2.54
2.92
2.72
2.14
1.46
0.96
0.82
1.06
1.60
2.26
2.89
3.42
3.85
4.21
4.49
4.61
4.46
3.96
3.12
2.04
0.87
-0.25
-1.29
-2.25
-3.18
-4.12
-5.04
-5.90
-6.64
-7.27
-7.83
-8.40
-9.06
-9.87
-10.81
-11.84
-12.89
-14.01
-15.17
-16.18
-16.82
-16.88
-16.26
-14.98
-13.17
-11.05
-8.94
-7.06
-5.44
-4.02
-2.80
-1.85
-1.29
-1.21
-1.63
-2.78
-4.69
-7.09
-9.58
-11.90
-13.97
-15.76
-17.32
-18.76
-21.09
-24.81
-29.61
-34.82
-40.00
-45.07
-50.10
-55.09
-59.98
-66.36
-74.72
-84.13
-93.15
-101.14
-108.55
-115.99
-123.78
-131.70
-141.81
-154.29
-167.39
-179.02
-188.65
-197.10
-204.75
-210.84
-213.97
-216.74
-220.59
-224.52
-225.43
-220.21
-206.49
-183.33
-152.85
-98.34
-23.14
53.54
111.81
145.82
161.48
166.76
166.91
164.17
160.89
157.67
157.87
165.03
181.35
203.40
224.11
237.63
241.06
235.31
221.30
202.27
182.93
167.52
157.93
150.04
142.01
133.09
123.74
113.73
104.27
97.42
94.96
96.80
101.29
106.83
111.35
113.01
110.38
104.06
96.12
88.72
82.48
76.15
67.86
54.80
35.12
9.94
-15.95
-36.19
-45.83
-43.08
-29.48
-8.68
13.13
29.29
36.10
34.45
28.51
23.84
25.76
37.73
59.57
84.47
100.34
95.46
63.22
3.48
-77.77
-169.42
-257.53
-318.05
-327.99
-285.17
-211.57
-135.40
-74.91
-35.36
-13.11
-1.02
7.25
13.68
16.94
16.86
16.00
16.61
17.26
12.61
-3.38
-33.02
-73.37
-117.11
-152.01
-165.72
-151.98
-113.70
-61.10
-7.03
37.67
65.76
74.40
66.16
47.50
26.34
9.99
3.66
9.72
27.50
53.27
78.58
96.34
102.43
96.30
80.97
62.03
46.22
39.38
44.34
59.35
79.13
96.65
106.02
105.01
95.74
83.25
72.69
66.56
63.48
59.22
48.61
28.06
-2.61
-39.55
-75.63
-102.14
-111.27
-98.59
-64.97
-17.44
32.11
70.60
87.89
80.10
50.66
8.64
-34.57
-68.99
-88.84
-93.51
-86.14
-71.88
-55.92
-42.29
-33.45
-30.36
-32.84
-39.73
-49.20
-58.66
-65.65
-68.53
-67.05
-62.13
-55.40
-48.74
-43.84
-41.80
-41.86
-42.42
-41.96
-39.88
-36.43
-32.51
-29.27
-27.95
-29.52
-32.25
-33.84
-32.90
-29.96
-26.83
-25.63
-28.24
-36.27
-50.65
-67.85
-82.79
-90.99
-90.29
-80.32
-61.56
-35.07
-2.77
32.98
74.24
123.85
182.95
249.63
320.68
393.90
468.69
545.39
598.41
607.42
568.55
497.63
414.97
331.35
247.48
161.30
73.68
-9.70
-76.71
-117.23
-129.19
-120.28
-103.04
-88.59
-81.48
-80.89
-83.19
-81.61
-71.58
-53.25
-31.61
-12.76
-0.37
5.71
8.30
11.13
18.86
33.75
56.20
81.66
103.66
116.69
117.58
105.20
80.28
46.57
10.57
-19.07
-33.47
-25.91
4.97
53.11
105.91
148.40
169.58
166.18
142.80
108.08
70.39
34.68
2.02
-28.64
-58.36
-86.72
-112.26
-133.96
-152.80
-171.41
-192.95
-218.98
-248.32
-277.45
-301.35
-315.42
-317.29
-307.96
-291.07
-271.01
-251.12
-232.89
-217.70
-205.96
-196.95
-189.05
-180.71
-170.95
-159.53
-147.04
-134.93
-127.99
-129.64
-139.27
-152.30
-163.25
-168.32
-166.12
-157.11
-143.07
-131.44
-129.24
-139.91
-162.77
-194.70
-230.50
-262.07
-279.60
-275.66
-255.29
-230.27
-212.86
-210.78
-226.53
-257.66
-297.82
-339.33
-337.91
-269.75
-145.23
-0.33
133.61
244.40
332.52
401.32
452.68
488.34
504.25
497.79
473.52
441.70
412.09
389.88
375.78
367.97
358.19
337.16
301.46
256.14
211.00
173.70
146.54
127.21
111.62
93.85
68.51
36.04
2.93
-23.31
-39.09
-45.43
-45.72
-43.46
-45.19
-57.76
-85.03
-126.90
-181.38
-245.16
-311.64
-370.54
-387.45
-341.80
-244.69
-131.66
-35.03
30.26
64.46
76.90
79.51
82.08
86.68
92.26
98.19
104.92
110.51
110.68
101.04
80.07
50.20
14.41
-21.75
-50.50
-63.34
-51.81
-17.29
32.70
87.93
138.88
177.57
204.38
221.38
231.66
235.20
228.11
205.14
162.20
99.33
21.36
-61.67
-134.04
-175.06
-174.33
-136.70
-78.99
-23.47
10.78
13.75
-12.79
-58.01
-106.82
-146.04
-169.47
-171.87
-151.08
-108.70
-50.80
12.35
68.00
104.80
113.52
95.54
62.85
29.87
6.68
-4.04
-5.26
-2.31
0.86
3.11
6.13
12.28
21.81
32.45
40.33
41.46
33.10
15.01
-9.54
-34.80
-54.16
-62.56
-58.19
-42.77
-20.49
4.11
24.53
36.13
36.46
24.58
1.34
-30.39
-65.95
-100.11
-128.79
-150.43
-166.68
-177.70
-183.19
-181.06
-168.78
-145.63
-114.20
-80.21
-50.35
-29.05
-16.87
-11.50
-8.75
-5.79
-2.35
-0.16
-1.39
-6.87
-15.13
-22.93
-27.28
-25.55
-17.59
-5.32
8.38
21.09
31.94
42.64
57.73
76.28
100.45
131.88
170.57
214.17
257.82
294.69
317.81
322.24
306.82
276.20
238.95
205.84
187.05
189.36
213.55
254.53
302.42
344.76
370.66
372.77
349.51
304.85
246.24
180.58
113.38
47.94
-14.45
-72.81
-126.42
-173.76
-213.08
-243.42
-266.72
-285.19
-300.17
-312.17
-320.86
-326.40
-328.86
-328.69
-326.62
-325.39
-325.75
-325.62
-321.17
-308.46
-285.94
-253.93
-214.68
-160.05
-93.42
-25.73
32.31
74.79
106.33
129.66
145.84
153.14
151.50
141.09
124.85
107.15
91.28
78.26
66.45
54.38
41.89
30.25
19.49
10.04
2.54
-2.66
-5.55
-7.10
-7.96
-8.46
-8.41
-8.59
-9.16
-9.78
-10.05
-10.00
-10.48
-12.12
-15.06
-18.85
-23.28
-27.91
-32.14
-35.54
-37.85
-39.20
-39.57
-38.87
-36.92
-33.96
-30.36
-26.55
-22.90
-19.62
-16.76
-14.12
-11.50
-8.81
-6.18
-3.93
-2.32
-1.39
-0.95
-0.62
-0.05
0.95
2.39
4.08
5.82
7.46
9.07
10.82
12.95
15.60
18.72
21.88
24.43
25.54
24.53
21.18
15.78
9.18
2.50
-3.25
-7.58
-10.64
-13.11
-15.82
-19.13
-22.77
-25.73
-26.72
-24.78
-19.89
-13.09
-6.22
-1.10
1.54
2.20
2.74
5.54
12.20
22.55
34.50
44.71
50.12
49.87
45.32
39.88
37.49
40.81
50.03
63.15
77.09
89.06
98.06
103.33
104.66
102.44
98.44
96.32
101.14
116.75
142.36
171.77
193.21
195.51
173.30
130.41
78.50
32.03
1.84
-16.00
-26.64
-38.07
-54.64
-74.23
-90.21
-97.51
-96.20
-91.24
-89.06
-92.34
-99.58
-103.45
-97.13
-76.53
-42.51
-0.08
42.94
78.54
101.52
103.08
83.56
50.11
13.91
-15.56
-33.82
-42.83
-49.10
-59.25
-76.53
-97.39
-114.14
-117.81
-104.61
-75.81
-37.40
2.50
36.76
60.43
71.93
68.18
50.90
23.84
-7.98
-39.51
-66.75
-87.37
-100.97
-107.81
-109.64
-105.79
-96.45
-82.90
-67.86
-54.58
-45.20
-39.69
-35.63
-30.11
-21.03
-9.20
2.50
10.68
13.03
9.92
4.08
-0.65
-1.17
2.90
10.56
19.65
27.75
32.56
32.95
29.17
22.62
15.74
11.82
14.53
25.36
42.14
58.63
67.94
66.13
54.72
39.75
28.52
26.37
32.53
40.56
38.62
17.93
-20.19
-62.78
-92.57
-98.02
-76.53
-36.24
14.73
69.89
125.58
180.36
233.11
281.39
313.92
322.33
302.39
256.05
190.52
116.62
45.63
-13.98
-58.37
-87.70
-103.12
-106.84
-101.36
-90.16
-77.20
-66.37
-61.03
-63.62
-75.31
-94.44
-117.46
-139.61
-156.45
-164.89
-163.86
-154.55
-139.86
-123.35
-107.42
-93.26
-80.97
-70.29
-60.88
-52.35
-44.16
-35.66
-26.38
-15.83
-3.95
8.62
20.55
30.29
36.64
39.26
38.60
35.23
30.36
25.55
22.12
20.39
19.62
18.41
15.51
10.39
2.56
-6.74
-14.71
-18.48
-17.07
-11.75
-5.25
-0.34
1.44
-1.34
-7.51
-13.03
-13.21
-5.34
10.35
30.80
50.62
62.86
58.16
30.97
-16.66
-75.14
-130.91
-170.94
-186.87
-177.59
-135.31
-67.21
6.63
66.85
107.65
135.20
158.40
182.72
208.91
235.37
256.10
266.17
263.67
249.08
224.11
191.56
155.30
119.27
87.67
62.27
43.05
29.26
20.00
14.10
10.26
7.22
3.07
-5.12
-22.09
-50.90
-90.18
-133.65
-172.18
-196.88
-201.91
-186.00
-152.23
-107.12
-57.94
-10.92
29.20
59.00
76.89
83.99
84.33
83.59
86.26
93.44
102.22
107.22
103.44
89.05
66.13
39.02
11.52
-15.34
-43.14
-74.00
-107.90
-141.49
-169.08
-185.44
-188.53
-180.71
-167.75
-156.11
-149.98
-149.84
-153.01
-155.74
-155.49
-152.29
-148.59
-147.61
-151.38
-159.56
-169.46
-177.50
-180.81
-178.42
-171.30
-161.53
-150.90
-140.00
-128.10
-113.93
-96.76
-77.01
-55.98
-35.34
-16.71
-1.29
10.19
17.42
20.40
19.41
15.18
9.62
5.17
3.84
6.31
11.99
19.38
26.76
32.51
35.78
37.66
39.81
42.84
45.42
45.31
40.95
32.36
20.69
7.54
-4.40
-13.63
-21.20
-30.23
-42.76
-57.27
-68.46
-70.20
-58.12
-29.20
16.68
76.67
145.92
219.81
294.65
366.58
429.51
460.87
441.52
371.78
274.59
177.75
96.80
33.09
-16.21
-56.91
-88.24
-103.47
-96.24
-66.43
-21.72
25.91
61.40
74.74
64.88
39.40
10.52
-10.98
-19.73
-16.83
-7.83
0.77
4.24
0.59
-8.17
-18.62
-27.10
-31.40
-31.39
-27.37
-18.80
-4.17
15.98
37.28
52.11
53.46
39.01
12.82
-15.90
-37.71
-47.35
-46.19
-40.44
-37.28
-41.11
-51.98
-67.00
-80.71
-87.69
-83.76
-67.50
-40.87
-9.16
20.94
43.62
55.04
56.86
54.57
54.44
60.31
71.87
85.47
94.16
91.76
75.02
45.23
7.54
-30.25
-60.08
-76.20
-76.92
-65.37
-47.92
-32.05
-23.40
-24.18
-32.55
-43.58
-51.58
-50.34
-37.05
-13.62
13.60
36.70
49.29
48.98
37.78
20.64
3.05
-11.23
-20.59
-25.02
-25.01
-21.12
-14.27
-6.18
0.52
2.98
-1.16
-12.40
-28.82
-46.52
-61.13
-69.41
-70.40
-65.50
-57.50
-49.36
-42.92
-38.26
-34.01
-28.25
-19.53
-7.60
6.55
21.09
34.02
43.85
50.00
52.74
52.91
51.48
49.25
46.80
44.41
42.14
39.97
37.72
35.17
32.05
28.14
23.37
17.93
12.16
6.59
1.68
-2.25
-5.16
-7.36
-9.31
-11.50
-14.24
-17.51
-21.00
-24.20
-26.61
-27.81
-27.65
-26.15
-23.54
-20.08
-16.08
-11.79
-7.42
-3.16
0.82
4.37
7.41
9.90
11.86
13.30
14.24
14.64
14.45
13.69
12.49
11.06
9.61
8.33
7.27
6.38
5.57
4.74
3.86
2.95
2.06
1.23
0.44
-0.39
-1.29
-2.27
-3.29
-4.22
-4.97
-5.51
-5.91
-6.34
-6.96
-7.92
-9.28
-11.08
-13.31
-15.93
-18.80
-21.69
-24.22
-26.04
-26.85
-26.55
-25.20
-22.99
-20.10
-16.71
-12.94
-8.87
-4.63
-0.36
3.73
7.45
10.64
13.25
15.30
16.90
18.18
19.24
20.09
20.67
20.85
20.59
19.96
19.15
18.45
18.05
18.01
18.19
18.31
18.05
17.26
15.93
14.22
12.40
10.69
9.19
7.90
6.70
5.44
4.02
2.43
0.74
-0.97
-2.60
-4.21
-5.91
-7.86
-10.16
-12.79
-15.63
-18.46
-21.04
-23.13
-24.52
-25.01
-24.49
-22.95
-20.51
-17.43
-13.99
-10.42
-6.84
-3.30
0.17
3.52
6.67
9.48
11.87
13.76
15.14
16.00
16.39
16.43
16.26
16.07
15.96
15.94
15.90
15.73
15.37
14.87
14.41
14.14
14.16
14.43
14.84
15.23
15.44
15.40
15.06
14.46
13.69
12.89
12.20
11.72
11.44
11.26
11.00
10.49
9.59
8.27
6.61
4.82
3.09
1.58
0.31
-0.90
-2.29
-4.09
-6.36
-8.94
-11.45
-13.44
-14.52
-14.46
-13.23
-10.91
-7.71
-3.86
0.38
4.74
8.97
12.89
16.38
19.36
21.79
23.64
24.89
25.57
25.83
25.87
25.88
26.03
26.36
26.74
26.97
26.79
25.94
24.23
21.54
17.90
13.47
8.54
3.50
-1.27
-5.45
-8.93
-11.78
-14.18
-16.32
-18.28
-20.01
-21.36
-22.19
-22.45
-22.23
-21.72
-21.07
-20.40
-19.70
-18.93
-18.06
-17.19
-16.47
-16.16
-16.39
-17.17
-18.32
-19.50
-20.33
-20.51
-19.90
-18.50
-16.47
-14.02
-11.32
-8.52
-5.67
-2.82
0.02
2.81
5.47
7.87
9.87
11.34
12.19
12.45
12.19
11.56
10.71
9.78
8.92
8.25
7.88
7.83
8.01
8.24
8.30
8.06
7.51
6.77
6.01
5.32
4.71
4.13
3.48
2.71
1.84
0.91
-0.04
-1.01
-2.02
-3.08
-4.17
-5.26
-6.36
-7.51
-8.77
-10.15
-11.57
-12.90
-14.06
-15.10
-16.19
-17.49
-19.04
-20.70
-22.09
-22.79
-22.49
-21.11
-18.79
-15.82
-12.58
-9.34
-6.31
-3.59
-1.17
0.97
2.93
4.78
6.52
8.08
9.33
10.10
10.28
9.87
8.95
7.75
6.50
5.46
4.74
4.38
4.27
4.29
4.30
4.24
4.11
3.90
3.69
3.50
3.36
3.23
3.07
2.80
2.43
1.96
1.48
0.97
0.31
-0.69
-2.20
-4.18
-6.32
-8.16
-9.32
-9.70
-9.56
-9.35
-9.51
-10.23
-11.46
-13.02
-14.68
-16.34
-17.87
-19.10
-19.77
-19.54
-18.22
-15.86
-12.75
-9.33
-6.03
-3.14
-0.73
1.30
3.13
4.90
6.66
8.35
9.83
10.97
11.65
11.86
11.65
11.13
10.44
9.76
9.17
8.76
8.50
8.32
8.11
7.81
7.43
7.02
6.60
6.16
5.59
4.80
3.76
2.60
1.53
0.75
0.35
0.25
0.26
0.17
-0.12
-0.64
-1.32
-2.10
-2.97
-3.88
-4.81
-5.74
-6.63
-7.51
-8.49
-9.64
-10.98
-12.45
-13.83
-14.89
-15.46
-15.40
-14.69
-13.34
-11.44
-9.16
-6.74
-4.42
-2.37
-0.62
0.92
2.38
3.76
4.92
5.59
5.53
4.68
3.23
1.54
-0.02
-1.23
-2.05
-2.64
-3.22
-3.99
-5.03
-6.32
-7.68
-8.93
-9.92
-10.72
-11.64
-13.08
-15.45
-18.85
-23.03
-27.33
-31.06
-33.77
-35.50
-36.81
-38.54
-41.40
-45.61
-50.86
-56.46
-61.62
-65.72
-68.51
-69.94
-70.14
-69.60
-69.23
-70.19
-73.16
-77.52
-80.99
-79.91
-70.47
-50.23
-19.23
19.91
62.91
105.33
143.75
176.20
201.89
220.43
231.43
234.38
229.22
216.69
198.52
177.22
155.40
135.24
117.88
103.16
90.35
78.84
68.51
59.72
53.01
48.58
46.00
44.14
41.44
36.71
29.72
21.15
12.32
4.61
-0.95
-3.93
-4.53
-3.79
-2.66
-1.69
-1.15
-1.15
-1.71
-2.63
-3.51
-3.92
-4.70
-6.31
-8.56
-11.15
-14.16
-17.92
-22.37
-26.83
-29.94
-32.53
-34.22
-33.51
-29.32
-22.65
-16.37
-13.83
-17.31
-27.36
-46.41
-73.24
-103.39
-132.05
-157.36
-181.08
-207.09
-239.38
-279.92
-332.03
-391.53
-447.00
-484.91
-496.40
-480.52
-443.33
-394.71
-313.37
-200.60
-77.27
31.60
113.98
170.24
205.21
224.11
232.40
235.68
233.45
225.83
213.44
196.67
174.71
147.48
117.52
89.45
67.76
49.95
35.10
24.25
19.83
23.38
34.49
50.66
67.75
80.97
84.09
74.93
55.56
30.70
4.75
-19.58
-41.02
-59.64
-76.24
-92.97
-109.10
-123.00
-132.27
-134.95
-130.54
-119.78
-105.32
-90.99
-80.41
-74.44
-71.10
-66.53
-57.35
-42.31
-21.27
3.76
29.78
54.30
76.55
97.03
116.18
133.12
145.51
152.73
154.37
150.51
142.15
131.69
122.33
116.82
116.64
122.46
137.49
163.87
200.37
241.73
279.94
306.52
315.03
302.53
252.00
161.59
46.38
-69.58
-166.51
-235.12
-273.75
-283.87
-270.62
-239.81
-195.84
-143.37
-87.25
-29.67
25.73
77.86
128.16
176.60
219.91
254.26
275.91
281.56
270.79
246.67
214.90
184.75
164.62
159.13
158.33
151.94
130.37
90.27
45.09
-1.75
-47.23
-88.95
-126.94
-160.00
-187.05
-208.43
-221.06
-222.15
-211.66
-190.83
-164.04
-137.50
-116.13
-100.72
-89.27
-77.96
-64.51
-50.16
-36.97
-27.54
-23.78
-25.90
-31.65
-38.89
-44.34
-46.58
-46.88
-46.94
-48.67
-53.68
-62.74
-75.36
-90.38
-104.97
-115.81
-120.20
-116.24
-104.00
-85.77
-65.33
-43.42
-23.03
-6.02
6.96
16.04
21.80
24.76
25.45
24.67
23.63
23.26
24.76
28.78
35.28
43.79
53.52
63.76
73.88
83.30
91.08
96.57
99.14
98.20
93.17
83.80
70.45
54.24
36.94
20.29
5.90
-5.33
-13.34
-18.78
-22.74
-26.27
-30.08
-34.42
-39.05
-43.24
-46.08
-46.92
-45.70
-42.97
-39.62
-36.44
-33.75
-31.33
-28.63
-25.09
-20.54
-15.14
-9.25
-3.21
2.78
8.55
13.89
18.49
22.07
24.46
25.76
26.30
26.46
26.54
26.64
26.70
26.49
25.86
24.74
23.21
21.45
19.71
18.19
17.03
16.26
15.86
15.72
15.68
15.53
15.06
14.14
12.78
11.11
9.39
7.78
6.33
4.93
3.45
1.80
0.04
-1.75
-3.50
-5.19
-6.91
-8.72
-10.62
-12.52
-14.30
-15.95
-17.61
-19.51
-21.89
-24.71
-27.61
-29.91
-30.85
-29.81
-26.61
-21.50
-15.09
-8.14
-1.29
5.04
10.63
15.35
19.07
21.62
22.90
22.98
22.12
20.77
19.36
18.13
17.10
16.05
14.69
12.83
10.54
8.11
5.92
4.35
3.53
3.36
3.51
3.62
3.40
2.78
1.82
0.65
-0.65
-2.12
-3.89
-6.00
-8.40
-10.92
-13.37
-15.67
-17.90
-20.18
-22.65
-25.23
-27.74
-29.91
-31.61
-32.93
-34.10
-35.23
-36.13
-36.21
-34.61
-30.61
-23.97
-15.14
-5.17
4.63
13.07
19.40
23.48
25.64
26.46
26.62
26.61
26.64
26.65
26.41
25.70
24.39
22.57
20.41
18.13
15.81
13.31
10.33
6.49
1.57
-4.34
-10.66
-16.46
-20.75
-22.88
-22.92
-21.80
-21.01
-22.11
-26.06
-32.82
-41.36
-49.97
-57.00
-61.44
-63.42
-64.19
-65.90
-70.89
-80.91
-96.36
-115.72
-135.60
-151.42
-158.63
-154.19
-137.78
-112.07
-81.98
-52.94
-29.07
-11.86
-0.11
9.13
19.00
31.39
46.28
61.93
75.82
85.68
90.31
89.89
85.74
79.69
73.34
67.60
62.59
57.86
52.91
47.55
41.97
36.50
31.30
26.23
21.03
15.61
10.41
6.28
4.12
4.37
6.74
10.19
13.47
15.58
16.25
16.05
16.16
17.84
21.97
28.69
37.16
45.85
52.90
56.75
56.66
52.97
46.96
40.37
34.73
30.70
27.81
24.45
18.42
7.54
-9.51
-32.51
-59.36
-86.34
-108.87
-122.69
-125.06
-115.51
-95.84
-69.55
-40.84
-13.64
9.17
26.03
36.84
42.56
44.82
45.38
45.63
46.36
47.66
49.17
50.32
50.48
49.00
45.22
38.57
28.89
16.73
3.49
-8.86
-18.43
-23.91
-24.95
-22.00
-15.91
-7.69
1.58
10.59
17.74
21.42
20.61
15.44
7.37
-1.28
-8.15
-11.77
-11.91
-9.47
-5.90
-2.53
-0.15
1.16
1.90
2.81
4.54
7.31
10.81
14.26
16.75
17.61
16.68
14.30
11.14
7.95
5.35
3.78
3.58
4.98
8.00
12.33
17.33
22.14
25.98
28.43
29.66
30.25
30.91
32.07
33.65
35.11
35.79
35.24
33.48
31.01
28.58
26.84
26.11
26.28
26.95
27.64
27.95
27.58
26.30
23.87
20.11
15.16
9.52
4.14
-0.01
-2.35
-3.12
-3.33
-4.35
-7.20
-11.86
-17.28
-21.76
-23.75
-22.51
-18.28
-12.06
-5.02
1.94
8.40
14.26
19.56
24.23
28.10
30.93
32.54
32.82
31.74
29.43
26.08
22.01
17.53
12.93
8.35
3.84
-0.58
-4.82
-8.69
-11.97
-14.58
-16.67
-18.63
-20.93
-23.82
-27.21
-30.67
-33.58
-35.48
-36.17
-35.82
-34.80
-33.56
-32.47
-31.78
-31.57
-31.83
-32.42
-33.13
-33.74
-34.10
-34.24
-34.34
-34.60
-35.06
-35.47
-35.32
-33.91
-30.67
-25.35
-18.23
-10.08
-1.94
5.14
10.46
13.80
15.48
16.09
16.26
16.43
16.78
17.20
17.46
17.29
16.46
14.84
12.52
9.82
7.32
5.71
5.57
7.09
9.82
12.71
14.37
13.59
9.83
3.48
-4.22
-11.65
-17.29
-20.27
-20.44
-18.31
-14.78
-10.84
-7.38
-5.04
-4.09
-4.50
-5.89
-7.84
-10.02
-12.37
-14.99
-18.04
-21.42
-24.71
-27.23
-28.31
-27.56
-25.03
-21.16
-16.61
-11.96
-7.61
-3.60
0.22
4.08
8.11
12.27
16.34
19.96
22.83
24.63
25.17
24.27
21.93
18.37
14.13
10.05
7.01
5.76
6.55
9.05
12.40
15.44
17.08
16.56
13.69
8.85
2.85
-3.30
-8.72
-12.83
-15.45
-16.77
-17.26
-17.52
-18.18
-19.77
-22.51
-26.13
-29.78
-32.31
-32.76
-30.88
-27.36
-23.65
-21.33
-21.34
-23.54
-26.76
-29.28
-29.44
-26.25
-19.55
-9.99
1.22
12.64
22.85
30.75
35.67
37.46
36.45
33.33
28.99
24.42
20.59
18.20
17.50
18.17
19.40
20.13
19.58
17.52
14.42
11.16
8.63
7.27
6.98
7.23
7.45
7.30
6.78
6.14
5.65
5.42
5.29
4.93
4.01
2.35
-0.01
-2.76
-5.49
-7.82
-9.55
-10.70
-11.54
-12.45
-13.80
-15.72
-18.10
-20.48
-22.20
-22.65
-21.42
-18.48
-14.16
-9.04
-3.70
1.37
5.90
9.72
12.75
14.90
16.16
16.58
16.34
15.75
15.15
14.85
15.04
15.69
16.53
17.12
16.96
15.76
13.64
11.12
9.01
8.04
8.50
10.09
11.98
13.13
12.84
11.02
8.24
5.43
3.46
2.67
2.63
2.31
0.50
-3.66
-10.34
-19.00
-28.30
-36.30
-40.63
-38.96
-29.76
-13.29
8.01
29.68
46.45
53.93
50.14
36.27
16.09
-5.53
-24.09
-36.20
-39.91
-34.52
-20.42
0.72
25.81
50.49
69.72
79.21
76.87
63.61
43.03
20.80
2.98
-5.56
-2.42
11.76
31.91
50.97
62.16
62.27
53.59
41.80
32.89
30.98
36.72
47.31
58.35
63.16
55.67
33.45
-1.26
-42.65
-83.37
-117.89
-144.03
-163.91
-174.05
-174.14
-166.25
-153.70
-139.25
-123.74
-110.39
-97.65
-84.40
-70.47
-57.38
-46.73
-38.27
-32.15
-27.33
-21.81
-12.93
0.54
18.31
38.14
57.59
74.89
89.01
99.77
106.97
110.54
109.96
104.91
95.33
82.15
67.15
52.56
40.69
33.04
29.93
30.22
31.96
33.24
33.17
31.89
30.15
29.01
28.88
29.31
29.17
27.24
22.88
16.34
7.88
-2.23
-13.12
-23.67
-32.90
-39.54
-42.76
-42.13
-38.21
-33.85
-33.32
-39.81
-54.74
-77.76
-105.30
-132.73
-155.37
-170.43
-178.99
-184.63
-190.04
-197.37
-209.08
-225.40
-245.24
-264.67
-270.24
-249.48
-197.86
-122.16
-39.15
32.21
84.10
119.43
145.57
170.39
199.15
220.72
228.55
230.54
225.24
211.87
183.16
140.31
90.42
43.24
8.04
-7.39
-1.22
20.74
50.49
79.58
103.03
118.88
126.89
127.17
120.93
108.62
89.48
65.07
38.65
15.18
-1.56
-10.56
-13.58
-12.58
-8.83
-2.59
8.00
24.27
45.44
66.78
80.60
79.18
58.64
20.84
-26.79
-72.60
-104.57
-113.29
-94.66
-50.90
10.18
77.18
137.59
180.09
197.06
185.48
147.77
91.18
26.40
-34.05
-77.98
-96.07
-84.90
-49.15
-1.65
40.83
63.81
60.78
35.55
0.12
-31.41
-50.09
-56.25
-58.20
-65.69
-83.16
-107.25
-129.14
-139.58
-133.44
-111.75
-76.48
-35.00
2.13
27.60
40.70
44.33
40.83
31.18
17.10
-0.97
-20.62
-37.49
-46.96
-46.67
-37.96
-25.03
-11.98
-2.53
1.68
1.36
-0.85
-1.54
1.67
8.97
18.68
28.34
35.47
38.32
36.20
29.95
22.17
16.58
16.68
24.12
37.47
51.91
60.89
59.07
44.98
21.83
-4.41
-28.41
-48.19
-65.40
-83.04
-102.09
-119.44
-128.76
-124.00
-103.34
-71.06
-36.19
-8.39
6.21
7.22
-0.93
-12.17
-22.02
-28.94
-33.64
-37.04
-38.68
-36.58
-28.70
-14.76
2.73
19.16
29.77
31.76
25.37
13.43
-0.27
-12.69
-22.18
-28.07
-29.64
-25.57
-14.43
3.99
27.47
51.27
69.67
78.24
75.76
64.47
48.74
32.92
19.63
9.44
1.59
-4.71
-9.53
-12.41
-13.00
-11.71
-9.79
-8.81
-9.92
-13.19
-17.65
-21.66
-23.69
-22.89
-19.43
-14.26
-8.72
-3.97
-0.62
1.34
2.39
3.13
3.97
5.02
6.05
6.74
6.88
6.52
6.02
5.86
6.45
7.86
9.80
11.70
12.92
13.06
12.04
10.11
7.71
5.29
3.19
1.59
0.60
0.27
0.56
1.33
2.32
3.25
3.88
4.09
3.88
3.34
2.60
1.76
0.96
0.31
-0.07
-0.20
-0.22
-0.37
-0.93
-2.05
-3.75
-5.89
-8.30
-10.74
-13.02
-14.91
-16.23
-16.87
-16.87
-16.37
-15.60
-14.74
-13.93
-13.15
-12.30
-11.19
-9.59
-7.36
-4.46
-1.07
2.48
5.84
8.73
11.07
12.88
14.19
14.95
15.08
14.55
13.51
12.32
11.46
11.28
11.84
12.92
14.05
14.79
14.93
14.54
13.91
13.40
13.20
13.33
13.56
13.67
13.49
13.09
12.62
12.25
11.99
11.70
11.13
10.07
8.43
6.30
3.89
1.40
-0.99
-3.20
-5.21
-6.97
-8.38
-9.31
-9.63
-9.37
-8.68
-7.84
-7.14
-6.66
-6.24
-5.49
-4.03
-1.69
1.22
4.05
6.02
6.58
5.75
4.09
2.51
1.81
2.34
3.77
5.29
5.97
5.24
3.17
0.49
-1.71
-2.53
-1.68
0.29
2.18
2.73
1.29
-1.76
-4.94
-6.17
-3.60
3.56
14.65
27.65
39.55
46.97
46.73
36.69
16.60
-11.13
-41.44
-67.79
-84.17
-87.38
-78.22
-61.05
-41.86
-25.86
-15.77
-11.69
-12.15
-15.54
-20.87
-27.56
-34.68
-40.38
-42.26
-38.33
-28.08
-13.10
3.25
17.03
25.13
26.52
22.50
16.10
10.75
8.90
11.06
15.64
19.39
18.60
10.60
-5.05
-25.92
-46.97
-61.86
-64.83
-52.79
-26.75
8.19
44.45
74.27
91.94
95.45
86.62
70.29
52.36
37.61
28.41
24.40
23.06
20.83
14.59
2.22
-15.75
-35.47
-51.54
-59.82
-58.84
-49.71
-35.45
-19.97
-7.53
-1.43
-3.16
-11.93
-24.55
-35.78
-39.79
-33.08
-13.70
16.81
53.61
89.69
118.07
133.70
135.08
123.84
103.55
78.29
51.51
26.12
4.57
-11.00
-19.65
-20.67
-14.94
-5.03
5.53
12.99
14.93
10.61
1.24
-11.49
-24.30
-33.47
-36.65
-34.62
-30.91
-28.54
-30.65
-34.99
-39.03
-41.39
-42.83
-46.09
-51.79
-61.16
-74.14
-89.14
-102.85
-111.60
-111.54
-99.88
-75.94
-41.58
-1.30
39.45
75.58
104.04
123.67
135.22
140.09
139.39
133.69
123.31
109.52
94.73
82.03
73.56
69.67
68.59
67.24
62.68
53.16
38.81
21.08
1.82
-17.51
-35.86
-52.14
-64.85
-72.29
-73.21
-67.36
-55.78
-40.41
-23.51
-6.86
8.38
21.67
32.87
42.14
49.95
56.79
62.69
66.54
66.22
59.23
44.01
21.07
-6.62
-34.41
-57.41
-72.01
-76.78
-72.17
-59.88
-42.19
-21.57
-0.58
18.26
32.85
41.95
45.40
44.43
41.25
38.30
37.45
39.53
44.20
50.12
55.25
56.82
52.75
42.18
25.50
3.91
-20.86
-46.96
-72.66
-96.51
-118.38
-137.62
-153.21
-164.40
-171.46
-175.53
-177.95
-179.68
-181.11
-183.81
-187.92
-192.44
-196.25
-199.07
-201.38
-203.73
-206.26
-208.39
-210.80
-211.83
-207.89
-195.47
-173.24
-142.51
-106.39
-68.53
-19.13
39.64
97.27
142.88
172.28
187.23
191.76
189.91
185.06
179.55
172.40
163.23
152.85
142.38
132.57
123.71
116.02
109.91
105.88
102.72
100.21
98.73
98.04
96.38
91.71
82.04
67.48
50.43
33.62
20.17
12.07
9.04
8.80
8.64
6.94
4.04
1.47
0.11
-0.04
0.08
-0.98
-4.38
-10.35
-18.33
-27.21
-35.91
-44.23
-52.56
-60.56
-67.38
-71.48
-71.13
-65.37
-54.60
-40.19
-24.56
-10.41
0.11
6.03
7.77
6.54
3.61
0.04
-2.46
-2.42
0.90
7.34
16.05
26.00
36.18
45.73
54.29
63.29
74.56
89.26
107.26
127.31
147.34
164.53
175.52
170.39
143.90
99.00
46.33
-2.14
-38.55
-60.80
-71.09
-73.89
-73.76
-73.21
-73.81
-76.81
-82.91
-90.78
-97.54
-98.19
-88.67
-67.71
-37.09
-1.94
30.97
54.15
63.83
61.78
53.08
42.68
33.80
28.07
25.55
25.34
25.94
25.90
24.00
19.99
13.20
3.91
-6.39
-15.81
-22.69
-26.01
-25.27
-20.60
-12.94
-3.92
4.72
11.67
16.26
18.50
18.96
18.54
18.03
17.86
17.86
17.63
16.69
14.47
10.43
4.27
-3.73
-12.72
-21.56
-29.20
-34.80
-38.04
-39.12
-38.57
-36.92
-34.58
-31.98
-29.60
-27.86
-26.85
-26.28
-25.67
-24.70
-23.40
-22.19
-21.69
-22.39
-24.16
-26.13
-27.13
-26.49
-24.57
-22.66
-22.30
-24.63
-29.95
-36.93
-42.92
-45.08
-41.83
-33.76
-23.22
-13.49
-7.88
-9.43
-18.49
-32.22
-45.25
-51.86
-47.81
-30.68
0.16
42.67
91.25
139.12
179.60
207.29
218.06
209.45
182.18
140.08
87.27
25.55
-42.62
-112.68
-176.41
-224.64
-250.89
-252.85
-232.96
-189.65
-131.45
-73.72
-29.26
1.50
31.11
68.71
112.97
161.88
210.15
247.03
265.62
256.31
218.39
161.23
100.18
48.96
14.01
-7.09
-21.72
-34.82
-46.79
-53.59
-51.86
-42.72
-30.87
-21.61
-19.16
-26.27
-40.87
-58.51
-73.22
-80.55
-79.24
-70.61
-57.09
-41.73
-27.44
-15.64
-6.53
1.12
8.37
15.07
20.02
22.17
21.00
17.00
11.89
7.55
5.74
7.02
10.64
15.03
18.63
20.44
20.26
18.59
16.20
14.05
12.98
13.55
15.92
19.84
24.73
29.75
34.11
37.27
39.21
40.41
41.64
43.62
46.74
51.12
56.81
64.16
73.79
86.25
101.47
118.40
135.19
149.93
161.47
169.87
175.97
180.30
182.12
179.10
168.15
146.89
114.91
74.07
27.68
-20.73
-68.39
-113.31
-153.72
-187.41
-211.83
-224.91
-226.12
-216.74
-199.22
-175.68
-146.93
-112.61
-72.47
-28.04
16.73
56.32
85.72
102.42
107.21
103.27
94.30
82.95
70.34
56.75
42.65
29.20
17.66
8.28
-0.39
-11.26
-27.27
-49.81
-77.65
-107.18
-133.78
-153.59
-164.91
-168.51
-167.04
-163.80
-161.64
-162.03
-164.61
-167.21
-166.52
-159.24
-143.60
-120.51
-93.77
-68.86
-51.01
-43.12
-44.89
-53.43
-65.00
-76.74
-87.43
-97.18
-106.18
-113.79
-118.13
-116.54
-106.28
-85.25
-52.64
-9.45
41.07
93.48
140.98
177.10
197.70
202.29
194.03
178.35
160.77
145.06
132.50
122.31
112.87
102.68
90.80
76.74
60.23
41.46
21.66
3.58
-8.74
-11.19
-1.39
19.70
47.43
74.65
94.07
100.62
92.92
73.11
45.40
14.35
-16.38
-44.22
-67.06
-82.69
-88.78
-83.81
-68.24
-45.03
-19.10
4.29
21.45
31.42
35.84
37.65
39.44
42.23
45.43
47.67
47.82
45.63
41.63
36.62
31.27
26.09
21.80
19.49
20.28
24.67
31.86
39.67
45.21
45.94
40.67
29.91
15.46
-0.52
-16.25
-30.75
-43.66
-54.93
-64.50
-72.15
-77.64
-80.77
-81.52
-80.04
-76.68
-71.93
-66.29
-60.26
-54.13
-48.09
-42.22
-36.48
-30.80
-24.98
-18.87
-12.59
-6.67
-2.01
0.38
0.00
-2.77
-6.60
-9.53
-9.68
-5.80
2.28
13.60
26.27
37.88
46.01
48.75
45.25
35.97
22.64
7.69
-6.35
-17.60
-25.09
-28.77
-29.23
-27.32
-23.90
-19.74
-15.49
-11.63
-8.49
-6.29
-5.10
-4.86
-5.28
-5.93
-6.28
-5.86
-4.46
-2.33
-0.16
1.20
0.83
-1.91
-7.26
-15.04
-24.63
-34.99
-44.80
-52.62
-57.21
-57.89
-54.78
-48.69
-40.86
-32.49
-24.41
-16.96
-10.18
-4.14
0.92
4.57
6.48
6.71
5.78
4.52
3.72
3.74
4.41
5.25
5.73
5.64
5.13
4.63
4.52
4.90
5.64
6.49
7.33
8.26
9.54
11.36
13.68
16.14
18.21
19.31
19.04
17.27
14.04
9.63
4.37
-1.30
-6.87
-11.86
-15.87
-18.76
-20.69
-22.06
-23.33
-24.76
-26.35
-27.82
-28.80
-29.02
-28.57
-27.77
-27.11
-26.97
-27.50
-28.55
-29.72
-30.44
-30.10
-28.18
-24.51
-19.35
-13.45
-7.83
-3.44
-0.78
0.27
0.23
-0.30
-1.01
-1.92
-3.28
-5.10
-7.00
-8.25
-8.05
-5.91
-1.88
3.48
9.36
14.91
19.48
22.67
24.26
24.25
22.77
20.16
16.97
13.89
11.57
10.39
10.36
11.06
11.70
11.44
9.66
6.25
1.70
-3.09
-7.12
-9.81
-11.25
-12.25
-14.07
-17.87
-24.29
-33.16
-43.50
-53.79
-62.48
-68.42
-71.48
-72.87
-75.12
-81.39
-94.26
-114.19
-138.53
-161.57
-175.99
-175.11
-155.33
-117.45
-66.56
-10.44
42.88
87.32
120.07
141.56
154.39
161.60
165.27
165.80
162.23
153.29
138.65
119.49
98.41
78.39
61.70
49.17
40.07
32.65
24.88
14.81
0.94
-17.31
-38.89
-60.47
-76.58
-81.16
-69.98
-43.10
-6.06
31.38
58.63
68.44
59.84
38.26
12.97
-6.63
-14.33
-8.70
7.53
29.31
51.40
69.84
82.41
88.18
87.69
82.87
76.87
73.57
76.59
88.21
108.36
134.30
160.40
180.65
190.53
188.10
174.01
150.87
122.53
93.12
65.79
40.54
16.42
-7.19
-29.84
-50.29
-67.13
-79.43
-87.55
-94.02
-105.55
-127.96
-163.40
-209.82
-262.56
-315.97
-363.95
-400.04
-418.82
-420.22
-406.19
-380.05
-346.13
-309.97
-276.91
-250.14
-229.58
-192.43
-128.95
-47.22
32.35
93.55
132.36
153.63
163.54
170.71
179.75
188.82
195.06
197.01
194.98
188.80
177.83
162.27
144.60
128.26
113.79
100.78
88.81
78.04
68.69
61.05
55.29
52.03
51.59
52.31
53.02
54.29
58.16
66.14
77.29
87.11
89.68
80.03
55.80
19.47
-21.70
-58.30
-81.48
-84.54
-70.50
-50.74
-36.55
-32.99
-38.76
-49.70
-61.35
-73.65
-88.12
-106.30
-127.43
-148.06
-163.78
-171.11
-167.03
-150.78
-123.10
-85.47
-40.95
6.08
50.05
84.70
104.62
107.56
95.34
73.37
48.73
27.47
13.50
8.74
13.48
26.83
46.97
71.02
95.20
115.53
128.69
133.21
130.03
121.83
111.92
102.98
96.37
92.15
89.54
87.34
84.50
80.40
74.90
68.37
61.36
54.41
47.90
41.89
36.08
30.05
23.41
16.15
8.60
1.30
-5.32
-11.22
-16.85
-22.90
-30.06
-38.52
-47.95
-57.59
-66.52
-73.99
-79.48
-82.56
-82.80
-79.72
-73.05
-63.07
-50.84
-38.13
-26.95
-18.90
-14.59
-13.52
-14.43
-15.88
-16.85
-16.99
-16.46
-15.66
-14.78
-13.73
-12.25
-10.09
-7.20
-3.84
-0.44
2.60
5.00
6.78
8.06
9.02
9.73
10.05
9.72
8.53
6.44
3.67
0.65
-2.16
-4.39
-5.78
-6.17
-5.33
-2.95
1.32
7.69
15.98
25.55
35.33
43.98
50.40
53.95
54.78
53.69
51.87
50.54
50.45
51.48
52.42
51.01
44.52
30.65
8.79
-19.28
-49.39
-76.47
-96.42
-107.71
-111.64
-111.53
-111.29
-114.09
-121.87
-135.07
-152.90
-173.25
-192.32
-204.79
-204.94
-188.70
-155.48
-108.78
-54.57
0.59
51.68
96.29
134.14
165.60
190.41
207.52
216.04
217.24
213.46
206.86
198.65
189.29
178.97
168.16
158.36
151.99
153.61
165.85
187.39
213.59
238.75
257.87
266.86
263.09
245.75
219.54
190.11
161.85
137.31
118.22
105.26
97.07
91.60
87.47
89.45
101.98
125.62
156.20
187.42
213.06
227.75
229.49
192.85
111.73
4.52
-97.86
-175.48
-226.45
-258.97
-283.08
-304.42
-324.17
-335.33
-331.76
-312.26
-280.63
-242.25
-197.09
-151.71
-112.80
-83.95
-62.58
-47.88
-43.99
-57.51
-90.84
-138.08
-189.38
-230.78
-250.46
-242.14
-209.83
-166.08
-126.73
-104.01
-102.95
-121.06
-150.57
-180.78
-201.05
-205.20
-192.70
-167.33
-134.27
-98.15
-62.82
-30.60
-3.10
18.49
33.23
41.03
42.82
40.26
35.18
28.91
22.68
18.02
16.54
19.80
29.12
44.85
66.11
91.14
117.83
144.14
168.49
189.63
206.53
218.65
225.12
224.41
214.71
194.81
164.59
125.71
81.51
36.15
-6.17
-43.05
-74.66
-102.77
-129.07
-154.42
-177.96
-197.70
-214.99
-228.67
-236.86
-239.85
-240.31
-239.17
-236.68
-230.98
-219.27
-198.97
-171.41
-138.73
-104.07
-69.94
-36.62
-2.97
33.13
73.79
120.32
173.08
230.72
289.34
343.16
386.75
415.14
425.72
419.32
400.49
376.30
353.53
335.90
323.24
313.62
303.04
287.15
262.90
229.69
189.47
145.74
102.16
61.90
29.11
6.18
-6.60
-10.58
-7.55
0.96
13.63
28.81
33.75
21.56
-7.67
-48.38
-94.18
-139.84
-180.65
-212.11
-230.93
-238.81
-236.51
-225.71
-209.29
-190.46
-171.53
-153.73
-137.90
-125.21
-114.95
-105.84
-96.93
-87.84
-78.64
-69.48
-60.46
-51.85
-44.12
-37.73
-32.17
-27.08
-22.54
-18.95
-16.54
-15.18
-14.52
-14.15
-13.80
-12.88
-11.05
-8.32
-5.01
-1.45
2.09
5.36
8.07
9.87
10.49
9.77
7.71
4.56
0.80
-3.05
-6.69
-10.15
-13.64
-17.42
-21.46
-25.42
-28.76
-31.02
-32.07
-32.17
-31.89
-31.85
-32.50
-33.85
-35.50
-36.69
-36.37
-33.33
-26.51
-15.35
-0.17
17.60
35.53
50.82
61.10
65.17
63.26
56.86
48.04
38.76
30.37
23.42
17.92
13.59
10.21
7.66
5.90
4.96
4.69
4.86
5.13
5.34
5.62
6.43
8.37
11.82
16.67
22.19
27.36
31.29
33.66
34.88
35.90
37.80
41.18
45.96
51.26
55.78
58.12
57.09
51.91
42.20
27.99
9.90
-10.78
-32.02
-51.38
-66.59
-76.23
-80.12
-79.30
-75.55
-70.71
-66.06
-62.09
-58.63
-55.28
-51.84
-48.66
-46.58
-46.62
-49.50
-55.28
-63.40
-72.86
-82.64
-91.85
-99.80
-105.76
-108.93
-108.64
-104.71
-97.81
-89.38
-81.07
-74.07
-68.70
-64.43
-60.48
-56.38
-52.26
-48.55
-45.63
-43.42
-41.41
-38.95
-35.73
-31.92
-28.16
-25.17
-23.47
-23.25
-24.43
-26.82
-30.14
-33.96
-37.58
-39.97
-39.91
-36.37
-28.87
-17.79
-4.47
9.06
20.46
27.76
29.85
26.88
20.23
12.13
4.80
-0.40
-3.50
-5.85
-9.39
-15.81
-25.94
-39.66
-56.22
-74.47
-92.89
-109.40
-121.44
-126.30
-122.03
-108.12
-85.72
-57.17
-24.92
9.25
44.33
79.54
113.47
143.78
167.59
182.57
187.99
185.18
177.06
166.92
156.80
146.55
133.93
116.04
91.40
61.44
30.65
4.97
-10.92
-15.71
-12.13
-5.38
-0.55
-0.18
-3.55
-7.95
-10.82
-11.59
-11.92
-14.55
-21.40
-32.25
-44.71
-55.35
-61.22
-60.87
-54.54
-43.50
-29.35
-13.42
3.29
19.90
35.42
48.66
58.42
63.78
64.43
60.90
54.54
47.34
41.47
38.70
39.91
44.84
52.25
60.45
67.92
73.70
77.57
79.80
80.84
80.99
80.31
78.61
75.61
71.13
65.22
58.35
51.39
45.57
42.11
41.94
45.34
51.80
60.18
69.04
77.05
83.20
86.88
87.87
86.21
82.29
76.77
70.50
64.14
57.95
51.62
44.57
36.35
27.06
17.48
8.79
2.09
-2.11
-4.01
-4.34
-4.02
-3.82
-4.19
-5.37
-7.47
-10.46
-14.13
-18.03
-21.45
-23.63
-24.04
-22.61
-19.83
-16.62
-14.01
-12.89
-13.66
-16.26
-20.20
-24.81
-29.42
-33.46
-36.48
-38.16
-38.32
-36.96
-34.30
-30.74
-26.82
-23.05
-19.74
-16.98
-14.59
-12.29
-9.79
-6.88
-3.50
0.22
4.06
7.70
10.83
13.17
14.54
14.92
14.44
13.33
11.89
10.40
9.03
7.81
6.63
5.29
3.58
1.46
-0.96
-3.40
-5.51
-7.02
-7.85
-8.14
-8.16
-8.19
-8.39
-8.71
-8.95
-8.84
-8.21
-7.07
-5.61
-4.18
-3.16
-2.97
-3.92
-6.18
-9.63
-13.83
-18.07
-21.61
-23.89
-24.69
-24.19
-22.73
-20.66
-18.16
-15.25
-11.98
-8.52
-5.19
-2.33
-0.08
1.65
3.13
4.63
6.16
7.50
8.28
8.22
7.23
5.52
3.49
1.51
-0.18
-1.58
-2.85
-4.19
-5.63
-7.01
-8.03
-8.42
-8.06
-7.11
-5.84
-4.58
-3.50
-2.56
-1.62
-0.53
0.79
2.28
3.84
5.31
6.57
7.50
8.02
8.08
7.64
6.74
5.42
3.74
1.80
-0.27
-2.35
-4.28
-5.91
-7.09
-7.66
-7.51
-6.61
-5.04
-3.02
-0.94
0.81
1.93
2.29
2.04
1.48
0.98
0.76
0.86
1.11
1.28
1.20
0.89
0.52
0.34
0.51
1.07
1.90
2.83
3.69
4.39
4.89
5.17
5.28
5.32
5.42
5.74
6.28
6.91
7.38
7.44
7.00
6.15
5.14
4.20
3.37
2.51
1.34
-0.36
-2.60
-5.11
-7.47
-9.22
-10.16
-10.33
-10.02
-9.58
-9.23
-9.03
-8.84
-8.54
-8.02
-7.30
-6.40
-5.37
-4.22
-2.98
-1.77
-0.81
-0.34
-0.50
-1.24
-2.28
-3.22
-3.71
-3.57
-2.89
-1.98
-1.28
-1.11
-1.61
-2.58
-3.64
-4.35
-4.45
-3.93
-3.03
-2.12
-1.47
-1.10
-0.81
-0.34
0.46
1.50
2.41
2.77
2.33
1.08
-0.69
-2.60
-4.29
-5.55
-6.33
-6.57
-6.27
-5.51
-4.47
-3.55
-3.20
-3.75
-5.29
-7.59
-10.16
-12.45
-13.93
-14.28
-13.34
-11.19
-8.10
-4.56
-1.15
1.58
3.25
3.79
3.40
2.41
1.21
0.12
-0.67
-1.06
-1.07
-0.77
-0.32
0.15
0.55
0.84
1.08
1.32
1.58
1.76
1.74
1.41
0.74
-0.17
-1.15
-2.02
-2.66
-3.06
-3.28
-3.41
-3.56
-3.81
-4.21
-4.74
-5.37
-6.03
-6.67
-7.25
-7.74
-8.09
-8.28
-8.26
-8.04
-7.62
-7.09
-6.53
-5.98
-5.40
-4.66
-3.60
-2.09
-0.13
2.18
4.65
7.05
9.16
10.84
11.97
12.54
12.55
12.10
11.31
10.39
9.49
8.77
8.27
7.93
7.67
7.35
6.89
6.26
5.50
4.69
3.87
3.10
2.35
1.61
0.87
0.16
-0.46
-0.97
-1.44
-2.03
-2.87
-4.02
-5.37
-6.64
-7.50
-7.71
-7.21
-6.19
-4.96
-3.90
-3.30
-3.28
-3.79
-4.60
-5.37
-5.80
-5.70
-5.03
-3.89
-2.47
-1.00
0.36
1.54
2.56
3.44
4.13
4.61
4.89
4.97
4.79
4.25
3.26
1.86
0.22
-1.47
-2.91
-3.83
-4.31
-4.77
-5.81
-7.81
-10.73
-13.91
-16.71
-18.20
-17.69
-15.34
-12.32
-10.31
-10.69
-13.96
-19.50
-26.50
-33.26
-37.95
-39.77
-39.37
-38.41
-38.64
-41.23
-46.41
-54.73
-65.04
-75.15
-83.19
-88.64
-92.58
-96.97
-103.73
-113.80
-127.53
-141.55
-149.95
-147.02
-129.94
-100.05
-62.32
-24.01
16.67
53.22
77.14
85.51
83.41
79.25
78.83
83.42
90.32
94.69
90.93
77.63
58.37
38.70
25.51
23.68
34.74
56.13
81.47
101.70
110.12
104.45
86.22
59.12
26.99
-7.19
-39.32
-65.53
-83.53
-91.86
-90.46
-81.33
-68.30
-55.83
-47.17
-43.15
-42.41
-42.45
-40.32
-33.99
-23.41
-10.47
1.93
11.38
17.04
19.59
20.67
22.13
25.17
29.77
35.06
39.96
44.01
47.49
50.86
54.31
57.40
59.22
58.90
56.30
52.17
48.04
45.54
45.65
48.34
52.70
57.41
61.42
64.26
66.21
67.96
70.46
74.46
80.47
88.51
97.78
106.27
110.75
107.31
92.73
66.21
30.46
-8.42
-42.77
-66.03
-75.20
-71.75
-60.69
-48.14
-38.91
-35.01
-35.75
-38.93
-42.41
-44.88
-45.88
-45.21
-42.43
-36.89
-28.31
-17.39
-5.98
3.44
8.88
9.65
6.70
2.09
-2.01
-4.38
-5.17
-5.57
-7.04
-10.51
-16.04
-22.88
-29.97
-36.44
-41.77
-45.90
-49.00
-51.38
-53.32
-54.99
-56.43
-57.49
-57.91
-57.45
-55.92
-53.24
-49.43
-44.58
-38.89
-32.78
-26.92
-22.18
-19.35
-18.79
-20.28
-23.02
-25.91
-27.93
-28.35
-26.75
-23.07
-17.47
-10.39
-2.50
5.36
12.42
18.15
22.50
25.75
28.36
30.71
32.96
35.04
36.64
37.41
37.05
35.45
32.78
29.44
25.96
22.79
20.06
17.63
15.11
12.25
9.07
5.89
3.17
1.22
0.11
-0.37
-0.49
-0.57
-0.86
-1.62
-3.07
-5.22
-7.73
-10.00
-11.31
-11.24
-9.89
-7.90
-6.11
-5.20
-5.34
-6.22
-7.25
-7.83
-7.53
-6.17
-3.75
-0.45
3.41
7.44
11.28
14.81
18.15
21.57
25.14
28.60
31.18
31.95
30.25
26.20
20.76
15.58
12.32
12.09
15.01
20.22
26.20
31.34
34.24
34.02
30.31
23.28
13.82
3.47
-5.77
-11.94
-13.79
-11.42
-6.30
-0.71
3.08
3.81
1.57
-2.34
-6.20
-8.65
-9.30
-8.63
-7.55
-6.73
-6.14
-5.18
-3.03
0.77
5.97
11.77
17.23
21.76
25.45
29.08
33.67
39.82
47.35
55.34
62.46
67.68
70.56
71.50
71.47
71.64
72.89
75.58
79.36
83.39
86.38
86.84
83.32
75.14
62.73
47.64
32.25
18.85
8.87
2.12
-3.36
-10.77
-22.51
-39.33
-60.22
-82.49
-102.79
-117.42
-123.53
-120.26
-109.49
-94.43
-79.21
-68.41
-65.76
-74.56
-96.90
-133.81
-185.13
-248.48
-316.48
-377.71
-420.08
-433.78
-415.84
-369.47
-302.50
-224.50
-143.65
-63.56
15.83
95.62
174.84
242.74
288.07
309.00
325.02
346.07
373.72
405.19
425.66
426.26
404.11
364.73
319.47
268.73
217.50
170.67
129.31
90.96
55.50
24.73
2.46
-8.60
-9.48
-4.03
2.81
8.15
11.48
14.00
15.39
14.51
10.75
4.53
-2.62
-9.73
-15.58
-19.22
-19.64
-20.78
-27.29
-42.11
-66.20
-93.21
-119.57
-142.94
-162.16
-177.11
-193.63
-217.50
-251.09
-292.96
-340.22
-391.85
-447.22
-504.42
-530.09
-501.36
-417.91
-301.44
-178.65
-69.00
16.50
75.11
110.62
130.87
139.33
137.93
128.66
114.78
99.83
86.52
77.05
72.70
73.92
76.24
75.35
69.59
61.29
53.58
48.94
48.68
52.86
61.18
70.34
77.24
80.71
81.68
81.79
82.27
83.42
84.85
86.84
88.58
89.95
92.27
98.20
110.47
130.71
159.12
188.36
212.74
227.47
230.11
221.36
204.50
183.47
160.93
137.04
109.90
77.79
39.57
-4.46
-52.34
-100.04
-141.48
-169.48
-177.94
-164.18
-129.96
-82.36
-32.09
9.41
33.89
38.57
25.67
0.04
-33.18
-69.46
-103.30
-127.14
-135.75
-129.40
-112.52
-90.54
-68.18
-48.90
-34.33
-24.46
-18.35
-14.87
-12.70
-10.40
-7.11
-2.90
1.41
4.92
7.14
8.06
7.91
7.24
6.86
7.24
8.16
8.92
8.63
6.75
3.17
-1.87
-8.11
-14.62
-20.82
-26.67
-32.26
-37.77
-43.20
-48.26
-52.50
-55.43
-56.67
-56.29
-54.91
-53.08
-51.83
-52.60
-56.91
-65.63
-78.05
-91.31
-101.06
-102.85
-93.15
-71.46
-40.37
-4.48
31.36
63.57
90.53
112.77
127.05
132.63
130.25
122.09
111.22
100.80
93.02
88.61
86.82
86.09
85.57
84.76
83.47
81.70
79.36
76.20
71.82
65.83
57.95
48.71
38.72
28.49
18.34
8.38
-1.40
-11.04
-20.46
-29.50
-37.60
-44.26
-49.20
-52.31
-53.71
-53.67
-52.63
-51.19
-49.93
-49.11
-48.77
-48.60
-48.18
-47.09
-45.18
-42.53
-39.39
-35.94
-32.05
-27.45
-21.84
-15.10
-7.51
0.38
7.84
14.21
19.04
22.20
23.74
23.86
22.76
20.54
17.24
12.87
7.55
1.52
-4.77
-10.72
-15.62
-18.67
-18.95
-15.57
-7.85
4.38
20.40
38.54
56.38
71.38
81.48
85.78
84.67
79.70
73.06
66.92
62.92
61.82
63.49
67.19
71.76
75.87
78.19
77.43
72.68
63.75
51.30
37.37
25.41
19.13
21.19
32.40
51.75
77.07
105.89
135.65
164.28
190.05
210.96
224.59
228.53
221.35
203.41
176.97
144.56
109.22
73.97
40.93
10.77
-16.84
-42.36
-65.66
-85.90
-104.34
-121.31
-135.65
-146.08
-153.33
-159.86
-168.47
-180.48
-195.06
-214.27
-236.58
-255.35
-262.00
-251.10
-222.14
-178.75
-127.87
-78.80
-49.13
-50.21
-80.42
-127.63
-177.83
-220.59
-251.02
-270.22
-284.04
-310.17
-359.49
-428.65
-504.50
-574.76
-632.50
-674.77
-700.73
-646.52
-491.92
-278.22
-72.29
87.02
195.29
263.58
305.13
330.01
344.45
342.09
320.68
287.95
257.14
237.76
231.04
233.66
240.58
247.10
241.24
218.89
185.95
153.50
129.60
116.50
113.08
117.08
124.46
126.95
119.82
104.30
85.48
67.88
53.84
45.25
43.37
48.51
57.42
66.65
74.11
79.42
83.25
83.02
79.18
73.84
69.10
65.12
60.88
55.34
48.51
41.66
36.81
36.37
41.03
49.23
58.00
64.36
66.81
65.74
63.05
60.92
61.38
64.90
70.37
75.84
79.29
79.55
76.59
71.37
65.24
59.65
55.17
51.28
46.64
39.66
29.25
15.24
-1.41
-18.86
-34.71
-46.89
-54.21
-56.81
-56.13
-54.23
-53.42
-55.61
-61.77
-71.68
-84.15
-97.34
-109.37
-118.81
-124.65
-127.02
-127.32
-127.56
-129.32
-133.22
-138.55
-143.86
-147.44
-147.13
-141.99
-132.86
-121.83
-110.78
-100.95
-92.23
-83.84
-74.77
-62.99
-47.94
-31.32
-16.14
-4.53
2.89
8.09
14.32
25.26
45.73
78.03
120.45
167.58
212.37
247.17
266.72
268.98
245.36
196.76
136.51
82.18
42.15
13.03
-16.46
-51.92
-92.74
-134.46
-166.94
-182.88
-180.43
-163.10
-130.24
-88.80
-49.57
-21.35
-5.85
2.14
8.42
15.60
23.02
28.91
30.71
28.52
22.38
12.34
-1.40
-18.80
-39.16
-60.15
-77.67
-88.24
-89.23
-80.31
-61.92
-37.03
-9.33
18.71
46.46
74.54
103.08
131.84
159.98
186.52
210.37
230.42
245.24
253.05
252.19
241.80
222.84
197.82
169.95
141.95
115.90
93.43
75.92
64.29
58.41
56.93
57.37
56.80
53.01
45.59
35.80
25.39
15.13
3.79
-11.53
-34.07
-65.81
-106.84
-155.76
-210.81
-270.40
-332.52
-393.35
-446.45
-483.69
-497.74
-485.18
-448.11
-393.40
-329.79
-264.64
-202.30
-144.41
-91.77
-45.98
-9.57
15.11
27.55
29.66
25.09
17.34
8.22
-2.71
-17.29
-36.77
-60.04
-82.96
-99.38
-103.22
-90.62
-61.20
-17.67
35.39
93.07
151.01
205.33
252.25
288.02
309.47
315.11
305.85
285.11
257.81
228.82
201.50
176.97
154.28
131.47
107.02
80.98
55.30
33.10
17.33
9.41
8.63
12.54
18.25
23.55
27.42
29.68
30.27
28.78
24.60
17.39
7.73
-2.84
-12.36
-19.15
-22.37
-22.19
-19.59
-15.88
-12.38
-10.19
-10.09
-12.50
-17.38
-24.19
-31.94
-39.48
-45.82
-50.36
-52.98
-53.99
-53.94
-53.57
-53.63
-54.72
-57.02
-60.06
-62.65
-63.21
-60.38
-53.64
-43.53
-31.50
-19.32
-8.41
0.56
7.68
13.46
18.49
23.07
27.21
30.51
32.02
30.26
23.58
10.81
-7.75
-29.84
-51.56
-68.66
-78.36
-80.61
-78.04
-74.54
-73.31
-75.46
-80.04
-85.26
-89.81
-93.37
-95.77
-95.48
-88.75
-70.35
-36.12
14.24
75.32
136.92
187.09
216.13
219.51
198.75
159.90
111.03
59.86
12.61
-25.96
-52.14
-63.05
-57.32
-35.97
-2.93
35.40
71.60
99.16
114.13
115.91
107.06
92.24
76.67
64.66
58.65
58.85
63.69
70.65
77.27
82.01
84.48
85.32
85.69
86.72
88.96
92.21
95.58
97.92
98.47
97.33
95.77
95.97
100.28
110.09
124.94
142.26
158.14
168.92
172.94
171.55
168.75
169.63
178.28
195.87
219.98
245.09
264.17
270.46
259.12
228.73
182.41
128.04
76.91
40.42
25.96
33.62
55.78
80.03
94.27
91.43
71.34
39.30
2.28
-34.57
-69.46
-103.09
-136.81
-171.07
-205.13
-237.70
-267.46
-293.29
-314.05
-328.69
-336.38
-336.79
-330.02
-316.48
-296.62
-271.16
-241.64
-210.72
-181.83
-158.06
-140.88
-129.43
-121.11
-113.01
-103.45
-92.73
-82.71
-75.54
-72.41
-72.89
-75.20
-77.11
-76.90
-74.02
-69.11
-63.57
-58.98
-56.49
-56.56
-58.88
-62.63
-66.70
-69.99
-71.68
-71.46
-69.55
-66.63
-63.53
-60.93
-59.02
-57.49
-55.72
-53.20
-49.83
-46.19
-43.36
-42.46
-44.19
-48.41
-54.11
-59.67
-63.52
-64.96
-64.64
-64.62
-67.56
-75.58
-89.09
-106.27
-123.51
-136.58
-142.16
-139.01
-128.32
-113.19
-97.49
-84.53
-76.05
-71.65
-68.97
-64.57
-55.16
-39.22
-17.79
5.58
26.20
40.15
46.02
45.54
42.82
42.59
48.32
61.00
78.98
98.92
117.19
131.20
140.11
144.67
146.63
147.52
147.82
146.75
143.09
136.68
129.80
127.40
135.43
158.17
195.53
242.18
289.00
326.22
346.80
348.22
332.31
303.43
266.45
225.69
185.02
148.33
119.62
102.09
96.93
102.32
113.40
123.43
125.71
115.90
93.67
62.94
30.37
2.62
-16.55
-27.86
-35.99
-47.09
-65.70
-92.55
-124.52
-156.33
-183.19
-202.82
-215.71
-224.15
-230.32
-234.62
-234.94
-227.40
-208.27
-176.26
-134.31
-89.50
-50.93
-26.39
-19.28
-27.57
-44.98
-64.06
-79.05
-87.37
-88.95
-84.73
-75.39
-61.42
-44.01
-25.88
-11.03
-3.36
-4.85
-14.57
-29.11
-44.16
-56.38
-64.57
-69.47
-72.71
-75.37
-77.17
-76.58
-71.73
-61.58
-46.81
-30.03
-14.94
-4.89
-1.23
-2.65
-5.83
-7.48
-6.32
-3.94
-3.78
-8.79
-19.20
-31.83
-41.33
-42.50
-32.34
-11.04
18.37
51.03
81.49
104.58
116.19
113.97
98.07
71.32
38.64
5.73
-22.51
-42.87
-53.70
-54.21
-44.01
-23.39
5.64
38.48
68.16
87.08
89.47
73.75
43.52
6.54
-27.83
-51.55
-60.11
-53.14
-33.80
-7.34
20.18
43.06
56.75
58.67
48.90
30.29
8.12
-11.21
-22.01
-21.29
-9.97
7.14
22.90
30.40
25.69
9.41
-13.19
-33.94
-44.82
-41.01
-22.93
3.77
30.21
47.71
51.28
41.47
24.01
7.27
-1.16
2.49
17.06
37.28
55.97
66.65
65.53
52.35
30.28
5.16
-15.75
-25.64
-20.40
-0.56
28.21
56.42
74.05
74.39
56.70
26.58
-6.26
-31.75
-43.07
-38.69
-22.11
0.04
20.63
34.18
38.10
32.67
20.29
4.50
-11.24
-24.35
-33.42
-37.98
-38.33
-35.20
-29.86
-23.90
-19.05
-16.62
-16.92
-18.96
-20.77
-20.24
-16.03
-8.29
1.34
10.44
16.77
19.30
18.49
16.03
14.00
13.96
16.36
20.50
24.99
28.50
30.30
30.52
29.93
29.36
29.32
29.80
30.40
30.72
30.55
29.93
29.02
27.84
26.28
24.14
21.32
17.94
14.36
10.92
7.80
4.91
1.95
-1.38
-5.26
-9.63
-14.26
-18.84
-23.02
-26.48
-28.93
-30.17
-30.05
-28.51
-25.63
-21.62
-16.83
-11.76
-6.88
-2.59
0.99
3.92
6.43
8.71
10.79
12.44
13.34
13.24
12.11
10.23
8.11
6.27
5.03
4.46
4.34
4.25
3.82
2.82
1.20
-0.84
-3.06
-5.28
-7.48
-9.77
-12.30
-15.17
-18.30
-21.48
-24.41
-26.81
-28.52
-29.58
-30.18
-30.56
-30.99
-31.59
-32.37
-33.23
-34.00
-34.49
-34.46
-33.65
-31.76
-28.59
-24.06
-18.35
-11.88
-5.10
1.53
7.76
13.43
18.52
23.02
26.99
30.50
33.61
36.35
38.59
40.14
40.81
40.56
39.65
38.47
37.45
36.74
36.22
35.52
34.36
32.65
30.72
29.08
28.19
28.15
28.69
29.19
28.98
27.66
25.20
21.96
18.51
15.49
13.35
12.29
12.19
12.63
12.98
12.62
11.23
9.03
6.76
5.35
5.46
7.09
9.67
12.42
14.96
17.72
21.76
28.23
37.43
48.42
59.13
67.22
71.30
71.74
70.78
71.66
77.15
88.23
103.62
119.80
131.82
134.21
122.10
92.98
48.72
-3.08
-49.94
-78.14
-78.51
-51.21
-6.85
36.93
62.29
57.97
22.81
-34.91
-101.38
-161.97
-204.90
-223.37
-216.39
-188.73
-149.71
-110.73
-81.86
-68.73
-71.24
-84.56
-101.88
-117.20
-126.57
-128.19
-121.66
-107.47
-87.20
-63.72
-40.93
-22.70
-11.59
-7.66
-8.59
-10.78
-10.72
-6.55
1.41
11.04
19.55
24.76
25.92
23.85
20.45
17.76
17.21
19.19
23.02
27.40
30.88
32.38
31.55
28.78
25.04
21.46
18.88
17.59
17.21
17.08
16.56
15.42
13.91
12.54
11.69
11.34
11.09
10.35
8.68
6.02
2.68
-0.87
-4.21
-7.12
-9.54
-11.47
-12.83
-13.46
-13.22
-12.04
-9.99
-7.21
-3.82
0.11
4.56
9.41
14.43
19.20
23.28
26.27
27.99
28.47
27.95
26.70
24.95
22.87
20.60
18.35
16.38
14.96
14.30
14.46
15.32
16.68
18.29
19.89
21.18
21.78
21.34
19.56
16.40
12.15
7.35
2.64
-1.42
-4.52
-6.62
-7.89
-8.56
-8.88
-9.11
-9.51
-10.37
-11.87
-14.08
-16.88
-20.06
-23.22
-25.94
-27.71
-28.04
-26.59
-23.31
-18.57
-13.07
-7.66
-2.97
0.71
3.52
5.82
7.94
10.03
12.00
13.73
15.08
16.04
16.59
16.74
16.47
15.80
14.86
13.86
13.02
12.46
12.12
11.86
11.46
10.79
9.85
8.73
7.54
6.38
5.28
4.26
3.33
2.43
1.50
0.49
-0.69
-2.01
-3.37
-4.68
-5.85
-6.98
-8.18
-9.61
-11.31
-13.17
-14.94
-16.33
-17.13
-17.27
-16.79
-15.77
-14.28
-12.27
-9.64
-6.30
-2.27
2.20
6.64
10.46
13.17
14.64
15.21
15.54
16.30
17.83
19.87
21.66
22.32
21.32
18.82
15.73
13.34
12.79
14.50
17.91
21.65
24.07
23.92
20.89
15.83
10.47
6.83
6.46
9.89
16.38
24.02
30.11
31.78
27.02
15.56
-0.40
-16.39
-26.77
-26.86
-15.11
5.69
28.95
46.76
53.07
46.24
29.47
9.11
-8.32
-18.73
-21.42
-18.29
-12.04
-4.74
2.65
9.67
15.56
19.06
18.94
14.96
8.38
1.43
-3.67
-5.77
-5.19
-3.19
-0.98
0.98
3.08
5.85
9.34
12.69
14.45
13.36
8.95
1.81
-6.65
-14.80
-21.26
-25.17
-26.27
-24.84
-21.75
-18.33
-16.24
-16.94
-21.14
-28.37
-37.12
-45.33
-51.18
-53.84
-53.62
-51.69
-49.36
-47.56
-46.57
-46.14
-45.88
-45.47
-44.59
-42.78
-39.31
-33.40
-24.68
-13.62
-1.67
9.10
16.70
19.89
18.61
13.94
7.67
1.65
-2.72
-4.92
-5.37
-5.18
-5.61
-7.61
-11.32
-16.03
-20.43
-23.11
-23.06
-19.95
-14.22
-7.12
-0.64
2.75
0.77
-7.57
-21.07
-36.07
-47.56
-51.00
-44.44
-29.51
-10.74
6.43
18.04
22.94
22.71
20.18
17.79
16.70
16.90
17.99
19.79
22.45
25.97
29.81
32.83
33.85
32.31
28.73
24.54
21.46
20.72
22.62
26.54
31.16
34.84
35.86
32.75
24.89
13.20
0.50
-8.94
-10.81
-2.65
14.72
37.24
59.07
74.98
82.30
81.51
75.35
66.98
58.45
50.10
41.02
30.10
16.89
1.85
-13.85
-28.85
-41.80
-51.57
-57.19
-58.21
-55.04
-49.24
-43.31
-39.98
-41.14
-47.06
-56.10
-65.14
-70.53
-69.28
-60.10
-44.03
-24.23
-5.14
9.00
15.52
14.15
6.93
-2.76
-11.53
-17.10
-18.78
-17.07
-13.08
-7.99
-2.76
1.79
4.97
6.40
6.08
4.45
2.21
0.16
-1.10
-1.23
-0.28
1.37
3.10
4.17
4.04
2.56
0.13
-2.49
-4.48
-5.34
-5.13
-4.42
-4.03
-4.59
-6.22
-8.53
-10.77
-12.21
-12.41
-11.27
-9.02
-5.96
-2.44
1.34
5.21
9.04
12.62
15.64
17.79
18.80
18.63
17.53
15.99
14.49
13.35
12.55
11.85
11.02
10.08
9.38
9.37
10.26
11.65
12.59
12.03
9.38
4.95
-0.10
-4.33
-6.80
-7.55
-7.65
-8.57
-11.41
-16.34
-22.58
-28.75
-33.52
-35.93
-35.49
-31.94
-25.18
-15.48
-3.91
7.44
15.80
18.70
15.22
6.70
-3.57
-11.73
-15.02
-13.03
-7.61
-1.69
2.40
4.02
4.25
4.83
6.93
10.42
14.08
16.55
17.24
16.66
16.01
16.34
17.82
19.62
20.41
19.11
15.59
10.72
6.06
3.08
2.67
4.72
8.29
11.90
14.13
13.98
11.26
6.51
0.84
-4.57
-8.87
-11.73
-13.37
-14.25
-14.77
-15.08
-15.12
-14.78
-14.11
-13.38
-13.00
-13.32
-14.46
-16.32
-18.56
-20.86
-22.95
-24.74
-26.24
-27.54
-28.67
-29.56
-30.08
-30.10
-29.64
-28.87
-28.07
-27.51
-27.34
-27.56
-28.05
-28.70
-29.51
-30.69
-32.57
-35.55
-39.92
-45.72
-52.72
-60.48
-68.48
-76.36
-84.05
-91.83
-100.21
-109.73
-120.66
-132.84
-145.64
-158.30
-170.20
-181.20
-191.71
-202.62
-214.94
-229.43
-246.17
-264.26
-281.77
-295.86
-303.47
-301.96
-289.96
-267.73
-237.06
-200.57
-160.82
-119.48
-76.93
-32.56
14.53
64.50
116.04
166.14
210.66
245.52
268.00
277.67
276.43
267.90
256.35
245.61
238.44
236.23
238.99
245.49
253.46
260.04
262.47
258.89
248.92
233.86
216.22
198.96
184.55
174.28
168.05
164.60
162.01
158.41
152.58
144.26
134.00
122.89
112.07
102.44
94.42
87.96
82.56
77.51
72.08
65.87
58.91
51.72
44.98
39.17
34.27
29.77
24.94
19.18
12.41
5.05
-2.12
-8.23
-12.59
-14.78
-14.66
-12.44
-8.65
-4.16
0.03
2.99
4.19
3.63
1.86
-0.25
-1.76
-2.05
-0.97
1.16
3.67
5.85
7.17
7.46
6.80
5.56
4.13
2.86
1.99
1.63
1.77
2.33
3.14
3.96
4.50
4.58
4.16
3.43
2.78
2.59
3.13
4.42
6.18
8.04
9.64
10.86
11.79
12.70
13.78
15.01
16.15
16.89
17.06
16.79
16.50
16.77
18.07
20.67
24.50
29.20
34.17
38.76
42.31
44.29
44.32
42.27
38.15
32.06
24.09
14.31
2.79
-10.19
-24.12
-38.18
-51.37
-62.69
-71.31
-76.72
-78.86
-78.08
-75.10
-70.85
-66.24
-61.99
-58.52
-55.90
-53.94
-52.28
-50.61
-48.64
-46.31
-43.71
-41.07
-38.72
-36.92
-35.84
-35.46
-35.56
-35.81
-35.87
-35.43
-34.39
-32.87
-31.19
-29.75
-28.90
-28.75
-29.08
-29.44
-29.28
-28.24
-26.23
-23.45
-20.27
-17.01
-13.82
-10.65
-7.31
-3.68
0.24
4.24
8.02
11.31
13.95
15.94
17.31
18.07
18.14
17.47
16.14
14.43
12.81
11.72
11.38
11.64
12.07
12.17
11.60
10.32
8.53
6.59
4.79
3.33
2.27
1.58
1.18
1.04
1.10
1.34
1.74
2.20
2.55
2.62
2.26
1.45
0.26
-1.14
-2.68
-4.35
-6.18
-8.08
-9.75
-10.78
-10.74
-9.49
-7.25
-4.55
-1.93
0.35
2.40
4.58
7.22
10.35
13.51
15.97
16.92
15.74
12.27
6.80
0.12
-6.62
-12.11
-15.13
-14.88
-11.23
-4.90
2.71
9.84
14.86
16.72
15.29
11.35
6.28
1.60
-1.67
-3.32
-4.00
-4.87
-7.04
-11.00
-16.40
-22.11
-26.74
-29.22
-29.13
-26.90
-23.49
-19.94
-17.03
-15.05
-13.89
-13.29
-13.06
-13.20
-13.84
-15.01
-16.54
-18.03
-19.02
-19.19
-18.54
-17.34
-15.94
-14.49
-12.92
-11.01
-8.78
-6.65
-5.46
-6.08
-8.89
-13.46
-18.61
-22.96
-25.45
-25.81
-24.43
-21.99
-19.13
-16.24
-13.54
-11.27
-9.67
-8.88
-8.76
-8.87
-8.68
-7.85
-6.40
-4.65
-2.96
-1.54
-0.41
0.55
1.36
1.92
1.99
1.42
0.23
-1.39
-3.14
-4.75
-6.12
-7.26
-8.28
-9.34
-10.51
-11.79
-13.03
-13.93
-14.10
-13.23
-11.20
-8.19
-4.58
-0.89
2.45
5.19
7.23
8.60
9.39
9.68
9.61
9.31
8.98
8.77
8.85
9.27
9.99
10.90
11.73
12.17
11.90
10.77
8.87
6.54
4.27
2.46
1.33
0.79
0.61
0.53
0.44
0.33
0.27
0.24
0.12
-0.29
-1.17
-2.58
-4.40
-6.40
-8.29
-9.83
-10.86
-11.37
-11.46
-11.36
-11.29
-11.45
-11.87
-12.38
-12.64
-12.29
-11.04
-8.89
-6.06
-3.02
-0.27
1.80
3.02
3.49
3.51
3.40
3.44
3.71
4.14
4.55
4.81
4.87
4.83
4.82
4.99
5.38
5.88
6.31
6.44
6.15
5.46
4.58
3.76
3.22
3.04
3.15
3.42
3.67
3.78
3.61
3.07
2.12
0.84
-0.60
-1.99
-3.17
-4.12
-4.96
-5.75
-6.49
-6.99
-7.01
-6.42
-5.24
-3.65
-1.83
0.12
2.25
4.62
7.20
9.82
12.12
13.74
14.45
14.18
13.06
11.33
9.32
7.38
5.83
4.86
4.46
4.36
4.12
3.37
2.03
0.43
-0.79
-0.97
0.20
2.43
4.91
6.62
6.78
5.18
2.35
-0.68
-2.71
-2.86
-0.88
2.70
6.62
9.23
8.99
5.14
-1.89
-10.39
-17.74
-21.23
-18.83
-9.87
4.74
22.73
40.99
56.32
66.29
69.62
66.37
57.87
46.29
33.94
22.54
12.56
3.33
-6.38
-17.72
-31.05
-45.59
-59.65
-71.38
-79.68
-84.54
-86.76
-86.82
-84.98
-81.36
-76.58
-72.44
-72.00
-78.78
-95.35
-121.64
-153.04
-182.34
-202.05
-207.28
-197.82
-178.67
-158.25
-144.77
-142.18
-146.22
-148.25
-139.15
-112.51
-65.76
0.07
81.05
170.85
260.89
343.39
407.85
443.13
442.31
407.52
350.87
290.67
245.61
228.91
248.28
299.21
366.51
430.38
474.37
490.27
478.71
446.88
380.26
280.58
164.39
53.68
-38.28
-109.34
-161.37
-194.34
-206.42
-197.03
-164.27
-113.11
-55.73
-6.99
22.33
29.46
15.73
-12.68
-48.34
-83.02
-113.61
-141.70
-170.31
-200.40
-230.58
-259.15
-285.57
-310.71
-333.39
-351.68
-362.67
-363.08
-350.31
-323.79
-286.05
-241.62
-195.47
-150.31
-107.26
-66.55
-28.53
5.88
35.37
58.79
76.22
88.81
98.32
105.38
108.91
106.91
98.39
84.97
70.76
60.74
58.17
62.91
71.64
79.98
84.93
86.37
86.60
88.51
93.78
102.12
111.71
120.43
126.77
129.99
129.64
124.97
114.84
98.26
75.24
47.20
16.93
-12.17
-37.11
-56.17
-69.21
-77.46
-82.81
-87.12
-91.64
-96.80
-102.26
-107.28
-111.09
-113.27
-113.93
-113.60
-112.97
-112.53
-112.27
-111.88
-110.81
-108.55
-104.68
-98.55
-89.18
-75.39
-56.50
-33.05
-7.11
18.52
41.67
61.84
79.89
96.64
110.94
118.98
115.73
97.60
64.94
22.51
-22.35
-62.69
-94.54
-117.52
-133.37
-143.67
-148.19
-144.74
-130.40
-103.24
-63.52
-14.13
40.13
93.73
141.81
181.16
210.80
231.52
245.04
252.92
255.73
253.08
244.29
229.16
208.29
183.08
155.02
124.75
91.87
55.36
14.72
-29.05
-73.22
-113.92
-147.47
-171.61
-185.91
-191.36
-189.42
-181.24
-167.52
-148.76
-125.89
-100.43
-74.42
-50.02
-29.10
-12.92
-2.22
2.66
1.52
-5.76
-19.10
-37.86
-60.32
-83.59
-103.97
-117.94
-123.24
-119.60
-108.62
-93.08
-75.73
-58.61
-42.89
-29.18
-18.07
-10.17
-5.84
-4.71
-5.53
-6.36
-5.35
-1.43
5.29
13.58
21.75
28.32
32.56
34.62
35.25
35.33
35.40
35.53
35.32
34.19
31.71
27.81
22.87
17.61
12.79
8.94
6.12
3.85
1.34
-2.20
-7.20
-13.42
-19.93
-25.28
-27.80
-26.15
-19.81
-9.40
3.24
15.44
24.36
27.80
24.85
16.14
3.52
-10.52
-23.53
-33.56
-39.22
-39.56
-33.89
-21.91
-3.92
18.91
44.51
70.28
93.68
112.84
126.79
135.24
138.06
134.98
125.53
109.51
87.49
61.12
32.83
5.14
-20.05
-41.98
-60.82
-77.30
-92.02
-105.00
-115.44
-121.85
-122.31
-114.91
-98.30
-72.18
-37.85
1.73
42.23
78.72
106.81
123.61
128.37
122.50
109.00
91.50
73.39
57.10
43.89
33.96
26.84
21.81
18.07
14.82
11.24
6.53
0.07
-8.34
-18.45
-29.57
-40.96
-52.13
-63.14
-74.58
-87.34
-102.21
-119.58
-139.27
-160.58
-182.42
-203.45
-221.99
-236.14
-243.88
-243.49
-233.95
-215.30
-188.41
-154.53
-114.72
-69.99
-22.02
25.78
67.79
96.94
106.63
93.30
58.32
8.54
-45.33
-91.62
-120.90
-128.12
-113.26
-80.36
-35.73
13.83
62.19
104.44
137.13
158.41
168.40
169.29
165.05
160.28
158.55
161.18
166.89
172.76
175.85
174.74
169.94
163.36
157.14
152.47
149.19
146.10
141.69
134.83
125.04
112.48
97.66
81.31
64.30
47.66
32.55
20.11
11.28
6.57
6.04
9.22
15.33
23.39
32.52
42.11
51.93
62.03
72.49
83.07
92.99
101.11
106.22
107.63
105.46
100.64
94.44
87.88
81.17
73.58
63.73
50.24
32.42
10.76
-13.04
-36.54
-57.26
-73.60
-85.40
-94.05
-102.14
-112.77
-128.66
-151.22
-179.80
-211.24
-240.32
-260.86
-267.53
-257.52
-231.33
-192.21
-144.58
-92.15
-37.21
18.76
73.67
123.65
163.34
187.70
194.20
184.29
162.98
136.70
110.84
88.18
68.84
51.58
35.36
20.22
7.00
-3.65
-12.09
-19.77
-28.53
-39.45
-52.18
-64.87
-74.89
-79.95
-79.03
-72.57
-62.25
-50.16
-38.20
-27.63
-19.04
-12.57
-8.18
-5.74
-5.10
-6.00
-8.01
-10.57
-13.04
-14.89
-15.77
-15.55
-14.30
-12.22
-9.61
-6.83
-4.25
-2.16
-0.71
0.10
0.39
0.30
-0.22
-1.34
-3.41
-6.72
-11.36
-17.07
-23.17
-28.71
-32.68
-34.36
-33.48
-30.33
-25.56
-19.93
-14.00
-8.05
-2.15
3.66
9.11
13.80
17.26
19.24
19.81
19.25
17.93
16.04
13.62
10.70
7.42
4.10
1.09
-1.43
-3.65
-6.07
-9.29
-13.75
-19.48
-26.14
-33.13
-39.83
-45.66
-50.17
-52.94
-53.61
-51.98
-48.15
-42.57
-36.03
-29.33
-23.11
-17.58
-12.59
-7.80
-2.92
2.07
6.93
11.28
14.83
17.50
19.50
21.18
22.89
24.83
26.97
29.14
31.11
32.74
34.02
35.00
35.72
36.07
35.80
34.58
32.09
28.15
22.77
16.14
8.61
0.69
-7.01
-13.83
-19.12
-22.35
-23.31
-22.09
-19.09
-14.92
-10.26
-5.72
-1.77
1.32
3.54
5.05
6.16
7.12
8.09
9.01
9.67
9.77
9.07
7.53
5.25
2.50
-0.48
-3.55
-6.79
-10.42
-14.63
-19.37
-24.20
-28.32
-30.84
-31.13
-29.15
-25.48
-21.12
-17.03
-13.85
-11.70
-10.37
-9.53
-8.94
-8.44
-7.94
-7.27
-6.24
-4.77
-2.95
-1.12
0.33
1.13
1.30
1.11
0.94
1.05
1.48
2.02
2.32
2.09
1.18
-0.35
-2.23
-4.11
-5.60
-6.39
-6.30
-5.44
-4.20
-3.14
-2.84
-3.58
-5.14
-6.88
-7.90
-7.49
-5.44
-2.21
1.25
3.90
5.00
4.34
2.24
-0.75
-4.13
-7.67
-11.40
-15.47
-19.90
-24.49
-28.85
-32.48
-34.94
-36.00
-35.69
-34.23
-31.93
-29.10
-25.78
-21.59
-15.54
-6.17
8.09
28.30
54.27
84.20
114.74
141.66
160.74
168.87
165.13
151.28
131.36
110.40
92.75
80.83
74.95
74.35
78.85
89.60
108.18
134.55
164.88
191.12
203.22
192.82
156.53
96.98
21.21
-62.11
-144.97
-220.52
-282.20
-323.27
-337.95
-324.00
-285.16
-231.44
-176.25
-131.36
-102.53
-88.16
-81.93
-77.55
-72.68
-69.66
-72.75
-83.86
-99.97
-113.93
-118.17
-108.82
-87.89
-61.90
-38.18
-21.01
-10.04
-1.56
8.42
21.33
35.17
45.99
50.70
49.27
45.16
43.69
49.06
61.90
78.65
93.10
99.25
94.05
78.47
56.70
33.99
14.19
-1.94
-16.85
-34.65
-58.41
-87.71
-118.11
-142.70
-155.49
-154.27
-141.55
-122.84
-103.28
-85.11
-67.68
-49.60
-31.26
-15.48
-5.85
-3.90
-7.67
-12.93
-15.89
-15.40
-12.62
-9.08
-5.12
-0.30
4.68
6.54
0.59
-15.62
-39.06
-61.28
-72.89
-69.33
-54.13
-36.77
-26.24
-24.63
-25.08
-16.04
11.18
56.68
111.65
163.82
204.58
233.19
255.45
278.67
306.03
334.43
356.72
366.22
360.12
339.89
309.48
273.11
234.37
196.54
163.19
137.69
121.73
114.25
111.88
110.65
107.62
101.53
91.65
76.35
52.79
18.77
-24.65
-71.93
-114.63
-145.20
-160.43
-162.51
-157.09
-149.72
-143.58
-138.97
-134.68
-129.79
-124.61
-120.51
-119.07
-121.08
-125.79
-130.74
-131.71
-123.33
-100.64
-61.35
-8.06
51.02
104.06
139.46
149.72
133.50
94.82
40.33
-23.52
-91.68
-159.71
-222.27
-272.44
-302.96
-308.87
-290.41
-254.23
-211.87
-176.07
-156.67
-157.89
-177.93
-210.55
-247.65
-281.46
-305.67
-315.88
-309.49
-285.80
-246.25
-194.23
-134.44
-71.82
-10.63
45.85
95.07
134.90
163.77
181.54
190.40
194.94
200.66
211.73
228.83
248.64
265.36
273.38
269.90
256.01
235.94
215.05
197.85
186.71
181.85
181.97
185.01
188.62
190.55
188.69
181.58
168.93
151.57
131.28
110.10
89.51
69.96
50.98
31.52
10.80
-11.05
-32.75
-51.82
-65.05
-68.98
-60.81
-39.40
-6.24
34.24
75.59
111.44
137.94
155.32
167.61
180.63
199.13
224.59
254.55
283.46
304.88
313.56
306.89
285.41
252.34
212.27
169.74
128.01
88.56
51.80
18.16
-11.75
-37.62
-60.40
-82.31
-105.50
-129.89
-152.51
-167.85
-170.64
-159.66
-139.84
-121.17
-114.42
-125.94
-154.89
-195.15
-238.39
-278.25
-312.09
-339.93
-361.81
-375.42
-376.03
-359.18
-325.20
-279.80
-232.38
-192.23
-164.95
-151.34
-148.48
-152.25
-152.23
-142.03
-120.63
-92.44
-63.25
-36.01
-10.32
15.60
43.00
71.12
95.89
112.23
116.28
106.61
85.75
59.82
36.80
23.75
24.21
36.23
53.80
69.44
77.13
73.72
59.84
38.50
13.34
-12.47
-34.95
-48.54
-47.56
-29.40
3.00
40.56
70.60
82.21
71.10
41.67
4.86
-27.34
-47.08
-52.92
-48.55
-40.22
-30.73
-20.58
-8.99
4.36
18.01
28.80
33.10
28.86
16.63
0.13
-15.17
-23.59
-21.23
-7.62
14.38
38.32
57.07
64.62
58.33
39.61
13.77
-11.77
-30.46
-38.69
-36.53
-26.80
-13.60
-0.80
8.37
11.43
7.26
-4.18
-21.15
-40.23
-57.19
-68.67
-73.43
-72.56
-68.28
-61.17
-50.68
-35.20
-13.57
13.96
45.61
78.72
110.63
139.14
163.36
181.18
189.72
186.12
169.65
143.63
115.00
92.16
74.59
63.16
56.62
52.51
47.70
39.91
28.63
14.74
-0.38
-15.11
-26.27
-30.91
-26.00
-9.64
15.47
43.61
66.66
76.05
66.46
39.41
-0.97
-41.93
-71.12
-82.49
-77.55
-63.73
-50.85
-45.80
-49.42
-58.07
-65.58
-65.17
-51.87
-22.81
20.84
72.19
121.28
158.39
175.80
170.78
144.97
103.64
54.42
3.71
-46.09
-94.76
-138.38
-173.99
-199.97
-217.54
-229.70
-239.15
-236.94
-218.63
-186.04
-145.96
-105.61
-68.69
-37.11
-15.65
-3.38
-0.99
-10.91
-33.49
-65.64
-102.38
-133.52
-151.85
-153.72
-139.16
-112.38
-80.17
-47.49
-15.59
17.02
52.39
89.57
124.33
150.58
161.60
152.12
120.51
68.98
2.66
-71.11
-143.79
-205.82
-247.49
-261.97
-247.51
-207.80
-150.76
-86.15
-23.07
31.29
72.54
99.24
112.39
115.94
116.74
123.19
142.17
175.35
217.41
257.48
283.76
287.75
267.18
225.60
169.42
104.64
35.20
-36.15
-105.35
-164.74
-205.22
-219.87
-207.04
-171.36
-122.31
-70.88
-25.98
8.03
32.95
52.33
67.54
76.80
77.37
68.31
52.22
35.05
24.14
28.05
50.44
87.12
128.25
163.60
186.68
196.05
194.34
186.67
182.39
189.34
209.98
241.36
277.54
311.85
337.97
350.91
326.36
255.55
153.05
48.00
-36.67
-94.06
-128.61
-148.16
-159.46
-166.91
-170.68
-169.91
-166.89
-165.15
-166.02
-167.26
-164.95
-156.39
-141.86
-121.85
-96.62
-71.64
-53.14
-44.55
-45.38
-52.80
-63.63
-75.43
-85.02
-90.37
-92.09
-92.19
-92.66
-94.46
-97.39
-100.61
-102.98
-102.71
-98.58
-90.85
-80.20
-66.98
-51.00
-32.17
-11.17
10.47
31.11
49.34
64.15
75.21
82.62
86.36
86.05
81.25
72.08
59.71
46.27
34.06
24.91
19.56
17.64
17.99
19.25
20.35
20.68
20.03
18.47
16.16
13.32
10.15
6.89
3.81
1.16
-0.86
-2.24
-3.11
-3.73
-4.37
-5.14
-5.96
-6.65
-6.99
-6.90
-6.45
-5.82
-5.27
-4.90
-4.75
-4.70
-4.60
-4.30
-3.74
-3.00
-2.24
-1.67
-1.44
-1.56
-1.95
-2.48
-3.00
-3.43
-3.76
-3.98
-4.07
-4.04
-3.89
-3.65
-3.38
-3.08
-2.71
-2.20
-1.51
-0.71
0.05
0.53
0.49
-0.18
-1.49
-3.28
-5.27
-7.17
-8.67
-9.59
-9.88
-9.68
-9.21
-8.76
-8.55
-8.69
-9.21
-10.00
-10.87
-11.61
-11.99
-11.87
-11.17
-9.97
-8.43
-6.80
-5.33
-4.19
-3.43
-2.96
-2.56
-2.06
-1.39
-0.63
0.00
0.34
0.32
0.10
-0.02
0.20
0.86
1.80
2.77
3.47
3.79
3.80
3.69
3.65
3.70
3.69
3.30
2.28
0.52
-1.78
-4.27
-6.55
-8.36
-9.65
-10.55
-11.22
-11.78
-12.26
-12.67
-13.04
-13.43
-13.83
-14.17
-14.21
-13.69
-12.42
-10.37
-7.70
-4.67
-1.58
1.29
3.71
5.47
6.47
6.70
6.34
5.69
5.05
4.63
4.53
4.73
5.15
5.75
6.51
7.43
8.41
9.31
9.91
10.04
9.59
8.57
7.09
5.30
3.38
1.47
-0.29
-1.87
-3.28
-4.65
-6.24
-8.29
-11.00
-14.37
-18.08
-21.55
-24.10
-25.17
-24.54
-22.38
-19.26
-15.93
-13.09
-11.22
-10.45
-10.55
-11.08
-11.69
-12.21
-12.81
-13.80
-15.44
-17.71
-20.22
-22.42
-23.81
-24.20
-23.71
-22.59
-21.08
-19.35
-17.66
-16.46
-16.47
-18.46
-23.00
-30.25
-39.88
-51.21
-63.35
-75.30
-86.01
-94.53
-100.15
-102.63
-102.37
-100.42
-98.27
-97.44
-99.15
-103.82
-110.76
-117.83
-121.73
-119.00
-107.55
-87.91
-63.55
-39.76
-21.57
-11.79
-10.18
-14.16
-20.34
-25.94
-29.08
-28.40
-22.44
-9.73
10.32
36.41
65.10
91.74
112.20
124.30
128.37
126.54
121.44
115.03
108.07
100.52
92.22
83.48
75.22
68.65
64.73
63.77
65.30
68.34
71.84
75.10
77.74
79.63
80.60
80.38
78.77
75.85
72.27
69.10
67.52
68.36
71.64
76.51
81.44
84.57
84.28
79.73
71.17
59.98
48.20
37.88
30.30
25.66
23.10
21.30
19.07
15.82
11.53
6.56
1.28
-4.10
-9.47
-14.81
-19.95
-24.75
-29.05
-32.82
-36.05
-38.63
-40.31
-40.72
-39.43
-36.15
-30.90
-24.07
-16.37
-8.73
-2.07
2.90
5.83
6.76
6.19
4.83
3.50
2.96
3.67
5.74
8.86
12.49
16.00
18.94
21.11
22.54
23.36
23.70
23.54
22.82
21.44
19.38
16.75
13.78
10.72
7.75
4.96
2.31
-0.28
-2.84
-5.30
-7.53
-9.33
-10.57
-11.20
-11.31
-11.15
-11.08
-11.48
-12.70
-14.96
-18.28
-22.43
-26.98
-31.34
-34.94
-37.34
-38.35
-38.08
-36.93
-35.43
-34.11
-33.31
-33.13
-33.37
-33.77
-34.08
-34.20
-34.28
-34.57
-35.34
-36.69
-38.48
-40.44
-42.20
-43.46
-44.05
-43.90
-42.99
-41.38
-39.19
-36.66
-34.09
-31.80
-29.93
-28.41
-27.06
-25.75
-24.52
-23.61
-23.29
-23.64
-24.29
-24.50
-23.40
-20.37
-15.41
-9.12
-2.54
3.36
8.07
11.69
14.74
17.81
21.11
24.25
26.43
26.90
25.39
22.33
18.73
15.64
13.82
13.44
14.24
15.82
17.83
20.10
22.46
24.62
26.21
26.94
26.90
26.48
26.20
26.22
26.07
24.85
21.59
15.89
8.22
-0.14
-7.56
-12.67
-14.71
-13.72
-10.35
-5.59
-0.49
4.06
7.47
9.52
10.33
10.25
9.78
9.39
9.46
10.12
11.26
12.53
13.49
13.81
13.47
12.79
12.36
12.75
14.31
17.10
20.88
25.26
29.82
34.18
38.01
41.02
42.99
43.89
43.85
43.08
41.77
39.95
37.52
34.36
30.48
26.14
21.72
17.66
14.25
11.58
9.53
7.93
6.59
5.40
4.34
3.40
2.53
1.57
0.29
-1.51
-3.93
-6.83
-9.86
-12.53
-14.51
-15.83
-17.00
-18.82
-22.05
-26.90
-32.82
-38.55
-42.45
-43.09
-39.77
-32.74
-23.11
-12.54
-2.69
5.13
10.30
12.97
13.73
13.36
12.50
11.46
10.32
9.07
7.76
6.50
5.52
5.07
5.53
7.43
11.28
17.21
24.58
31.79
36.58
36.86
31.55
21.08
7.26
-7.49
-20.95
-31.77
-39.53
-44.56
-47.50
-49.03
-49.71
-49.90
-49.68
-48.87
-47.12
-44.13
-39.81
-34.45
-28.59
-22.82
-17.62
-13.22
-9.72
-7.13
-5.43
-4.49
-4.05
-3.73
-3.02
-1.54
0.94
4.36
8.51
13.08
17.86
22.77
27.91
33.49
39.62
46.20
52.78
58.61
62.84
64.82
64.36
61.85
58.17
54.32
51.15
48.97
47.58
46.37
44.66
42.02
38.37
33.98
29.26
24.56
20.10
15.92
11.97
8.18
4.47
0.82
-2.73
-6.01
-8.73
-10.53
-11.13
-10.58
-9.37
-8.24
-8.01
-9.15
-11.56
-14.63
-17.47
-19.45
-20.47
-21.14
-22.47
-25.34
-29.95
-35.50
-40.43
-43.10
-42.53
-38.86
-33.40
-28.06
-24.71
-24.69
-28.60
-36.14
-45.80
-54.60
-58.34
-52.72
-35.21
-6.84
27.25
59.02
80.33
86.05
75.93
54.34
28.11
3.70
-14.89
-26.61
-32.50
-34.25
-33.17
-30.11
-25.83
-21.52
-18.84
-19.34
-23.57
-30.37
-37.02
-40.15
-37.11
-27.05
-11.26
7.46
25.95
41.83
53.96
62.31
67.33
69.33
68.31
64.14
56.90
47.30
36.59
26.30
17.85
12.14
9.40
9.23
10.83
13.17
15.34
16.60
16.57
15.12
12.44
8.92
5.11
1.61
-1.01
-2.45
-2.73
-2.22
-1.52
-1.22
-1.72
-2.96
-4.57
-5.94
-6.46
-5.78
-3.85
-0.84
2.91
6.90
10.28
11.84
10.31
4.89
-4.21
-15.56
-26.93
-36.18
-42.05
-44.39
-43.69
-40.34
-34.13
-24.53
-11.47
3.97
19.75
33.67
44.24
50.94
53.73
52.31
45.99
34.46
18.70
1.54
-12.89
-20.67
-19.58
-9.72
6.99
27.88
50.36
71.99
90.16
101.88
104.27
95.71
76.79
50.43
20.93
-7.46
-31.76
-50.84
-65.13
-75.74
-83.73
-89.66
-93.60
-95.37
-94.76
-91.60
-85.70
-76.73
-64.34
-48.48
-29.75
-9.65
9.65
25.88
37.31
43.32
44.46
42.14
37.99
33.35
29.04
25.39
22.46
20.22
18.59
17.53
16.93
16.67
16.63
16.62
16.42
15.75
14.38
12.26
9.58
6.73
4.16
2.21
0.96
0.30
0.03
0.02
0.25
0.73
1.36
1.89
1.91
1.06
-0.79
-3.49
-6.61
-9.61
-12.09
-13.86
-14.97
-15.60
-15.91
-15.94
-15.64
-14.87
-13.58
-11.77
-9.55
-7.08
-4.55
-2.18
-0.17
1.30
2.17
2.49
2.47
2.44
2.73
3.44
4.35
4.98
4.75
3.21
0.30
-3.65
-8.02
-12.15
-15.56
-18.10
-19.92
-21.37
-22.82
-24.52
-26.44
-28.29
-29.61
-29.88
-28.75
-26.18
-22.47
-18.20
-14.06
-10.63
-8.31
-7.11
-6.65
-6.16
-4.68
-1.42
3.85
10.62
17.68
23.62
27.33
28.38
27.04
24.01
20.04
15.67
11.23
6.96
3.16
0.12
-2.00
-3.37
-4.51
-6.15
-8.92
-13.03
-18.16
-23.48
-27.91
-30.43
-30.43
-27.85
-23.20
-17.38
-11.42
-6.22
-2.35
0.02
1.07
1.25
1.11
1.14
1.67
2.81
4.46
6.39
8.34
10.08
11.42
12.23
12.41
11.93
10.82
9.27
7.52
5.82
4.38
3.28
2.51
1.98
1.60
1.28
1.00
0.79
0.72
0.90
1.38
2.15
3.04
3.80
4.12
3.83
2.94
1.63
0.22
-1.04
-1.99
-2.62
-3.00
-3.24
-3.40
-3.53
-3.68
-3.90
-4.27
-4.85
-5.66
-6.63
-7.64
-8.50
-9.03
-9.11
-8.66
-7.71
-6.32
-4.58
-2.64
-0.69
1.03
2.30
3.02
3.23
3.05
2.65
2.15
1.58
0.95
0.30
-0.26
-0.63
-0.76
-0.68
-0.45
-0.11
0.33
0.89
1.54
2.17
2.68
3.00
3.25
3.60
4.22
5.13
6.17
7.06
7.54
7.43
6.70
5.47
3.91
2.19
0.44
-1.29
-3.02
-4.80
-6.58
-8.25
-9.60
-10.37
-10.39
-9.56
-7.91
-5.58
-2.74
0.36
3.46
6.28
8.60
10.29
11.39
11.97
12.17
12.06
11.73
11.25
10.69
10.06
9.31
8.26
6.73
4.63
2.10
-0.54
-2.90
-4.64
-5.62
-5.91
-5.65
-5.03
-4.19
-3.25
-2.29
-1.36
-0.51
0.26
0.89
1.27
1.21
0.50
-0.98
-3.13
-5.67
-8.21
-10.40
-12.00
-12.97
-13.33
-13.12
-12.31
-10.87
-8.84
-6.38
-3.74
-1.25
0.87
2.50
3.66
4.43
4.84
4.84
4.35
3.34
1.88
0.15
-1.61
-3.15
-4.29
-4.93
-5.05
-4.69
-4.00
-3.14
-2.30
-1.69
-1.50
-1.86
-2.86
-4.49
-6.66
-9.17
-11.76
-14.15
-16.10
-17.53
-18.46
-19.04
-19.40
-19.67
-19.83
-19.77
-19.26
-18.18
-16.50
-14.39
-12.10
-9.86
-7.76
-5.65
-3.30
-0.55
2.44
5.20
7.00
7.24
5.65
2.53
-1.41
-5.28
-8.38
-10.36
-11.53
-12.61
-14.29
-16.75
-19.46
-21.29
-20.88
-17.17
-9.88
-0.04
10.27
18.57
23.12
23.83
22.54
22.42
26.94
38.73
58.28
83.75
111.48
136.72
154.15
158.47
146.29
118.19
80.19
41.40
10.58
-7.35
-12.93
-11.53
-10.43
-14.70
-24.27
-33.46
-36.71
-31.84
-20.88
-8.07
2.27
6.39
1.86
-11.61
-30.25
-50.11
-67.08
-77.40
-77.81
-67.88
-52.58
-41.14
-42.94
-61.44
-97.33
-148.45
-210.10
-274.36
-323.59
-337.30
-304.18
-242.85
-165.49
-81.12
4.30
81.01
141.93
184.95
211.79
226.32
233.27
238.92
244.91
248.54
244.99
230.99
205.61
169.29
123.40
70.09
13.96
-42.22
-97.08
-149.21
-195.20
-230.72
-252.52
-259.81
-254.36
-238.19
-214.44
-185.63
-152.60
-114.02
-68.30
-16.31
37.52
86.09
122.76
142.91
145.97
136.08
120.85
108.13
103.07
107.07
118.68
135.92
157.08
180.31
202.40
218.12
220.63
204.07
166.45
111.63
48.73
-11.09
-58.11
-86.28
-93.79
-82.53
-57.74
-27.65
-2.02
12.75
15.99
11.00
2.18
-6.98
-14.78
-20.54
-24.00
-24.70
-22.19
-17.10
-11.89
-9.75
-11.98
-19.52
-30.86
-42.90
-52.34
-57.07
-57.12
-54.34
-51.05
-48.69
-47.51
-46.63
-44.95
-41.82
-37.18
-31.44
-25.24
-19.28
-14.07
-9.94
-6.98
-5.21
-4.59
-4.93
-5.91
-7.15
-8.25
-8.85
-8.88
-8.39
-7.61
-6.75
-5.87
-4.77
-3.05
-0.25
3.96
9.47
15.62
21.22
24.79
24.97
21.04
13.10
2.10
-10.44
-22.91
-33.97
-42.87
-49.37
-53.61
-55.86
-56.39
-55.37
-52.80
-48.66
-42.91
-35.64
-27.15
-18.01
-8.94
-0.73
5.97
10.74
13.51
14.46
13.99
12.63
10.97
9.55
8.80
8.99
10.23
12.44
15.47
19.07
22.98
26.91
30.63
33.97
36.90
39.50
41.96
44.40
46.81
49.03
50.79
51.79
51.88
51.05
49.41
47.25
44.88
42.59
40.56
38.81
37.23
35.66
34.03
32.40
31.00
30.08
29.78
29.99
30.33
30.28
29.31
27.05
23.27
17.88
10.89
2.44
-7.10
-17.07
-26.51
-34.36
-39.69
-41.91
-41.00
-37.40
-31.89
-25.39
-18.75
-12.67
-7.69
-4.16
-2.23
-1.80
-2.48
-3.73
-4.89
-5.40
-4.93
-3.38
-0.90
2.17
5.45
8.54
11.07
12.72
13.18
12.21
9.63
5.45
-0.16
-6.74
-13.60
-19.85
-24.60
-27.15
-27.15
-24.74
-20.45
-15.14
-9.68
-4.83
-1.04
1.60
3.21
4.07
4.33
3.94
2.53
-0.60
-6.41
-15.84
-29.52
-47.47
-68.89
-92.34
-116.03
-138.36
-158.30
-175.41
-189.60
-200.55
-207.40
-208.71
-203.02
-189.51
-168.69
-142.45
-113.68
-85.36
-59.70
-37.62
-18.80
-1.98
14.43
31.82
50.99
71.71
92.50
110.61
122.62
125.53
118.06
101.70
80.72
61.00
48.03
44.82
50.77
61.92
72.57
77.44
73.51
60.79
42.01
21.39
3.24
-9.36
-15.10
-14.39
-8.91
-0.86
7.58
14.69
19.21
20.43
18.08
12.52
4.75
-3.60
-10.63
-14.74
-15.22
-12.47
-7.87
-3.11
0.44
2.18
2.42
2.02
1.98
3.00
5.27
8.53
12.30
16.13
19.79
23.18
26.23
28.70
30.07
29.72
27.10
22.02
14.72
5.80
-3.97
-13.85
-23.18
-31.34
-37.70
-41.62
-42.67
-40.82
-36.61
-31.04
-25.29
-20.26
-16.23
-12.80
-9.17
-4.59
1.17
7.73
14.21
19.67
23.52
25.69
26.62
27.00
27.50
28.58
30.39
32.81
35.56
38.33
40.83
42.90
44.44
45.37
45.62
45.08
43.69
41.51
38.67
35.40
31.95
28.54
25.34
22.53
20.31
18.80
18.05
17.88
17.93
17.71
16.75
14.81
11.96
8.64
5.49
3.25
2.41
3.04
4.75
6.76
8.18
8.45
7.47
5.79
4.30
3.93
5.34
8.79
14.14
21.10
29.28
38.35
47.89
57.33
65.98
73.11
78.18
80.99
81.79
81.21
80.08
79.26
79.45
81.14
84.46
89.26
95.14
101.58
108.08
114.20
119.60
123.92
126.73
127.42
125.23
119.36
109.05
93.78
73.49
48.79
21.03
-7.70
-34.83
-57.65
-73.89
-82.24
-82.81
-77.21
-68.45
-60.33
-56.67
-60.28
-72.23
-91.50
-115.43
-140.57
-163.47
-181.46
-193.01
-197.71
-196.00
-189.03
-178.39
-166.11
-154.31
-144.54
-137.52
-133.23
-131.28
-131.02
-131.86
-132.66
-132.14
-129.01
-122.06
-110.91
-96.48
-81.17
-67.67
-58.16
-52.81
-50.56
-49.59
-47.61
-42.59
-33.01
-18.47
1.07
25.26
54.17
85.77
113.94
132.25
138.70
136.81
131.25
128.83
128.72
128.22
124.58
116.91
107.52
97.53
90.01
85.96
83.25
77.27
63.29
38.57
5.02
-29.98
-56.14
-64.34
-51.16
-19.31
24.67
72.55
116.15
149.20
168.30
172.46
162.15
137.93
95.80
39.68
-19.39
-69.32
-103.20
-120.39
-123.96
-118.07
-107.47
-96.25
-86.38
-79.05
-75.34
-76.14
-81.47
-90.54
-99.58
-104.26
-100.16
-83.49
-53.83
-15.02
26.47
60.89
82.47
91.26
91.16
87.01
82.07
76.22
67.06
52.71
33.93
14.63
-0.60
-9.34
-12.34
-12.69
-13.55
-16.21
-19.38
-20.11
-15.60
-5.72
6.09
14.20
13.67
2.62
-16.86
-39.75
-59.57
-71.35
-73.93
-69.85
-63.37
-58.20
-56.12
-56.74
-58.02
-57.22
-51.53
-38.99
-19.20
6.29
34.36
61.22
83.73
101.07
112.75
118.67
118.55
111.67
97.45
76.31
50.30
23.11
-0.62
-16.69
-22.13
-16.27
-1.25
18.25
36.30
47.61
49.34
42.04
29.01
15.11
4.65
-0.12
0.70
5.45
12.10
19.18
26.56
33.42
38.73
41.15
39.35
32.35
19.97
3.12
-16.23
-35.56
-52.47
-65.27
-73.60
-78.68
-82.70
-87.94
-95.57
-105.06
-114.25
-120.11
-119.40
-109.53
-89.06
-57.97
-18.11
26.34
68.73
100.92
115.25
107.34
77.91
33.15
-17.05
-62.21
-94.24
-109.25
-107.53
-92.33
-68.29
-40.28
-12.79
10.30
26.07
33.07
31.63
23.97
13.60
4.38
-0.53
0.41
6.84
16.81
27.70
37.35
44.89
50.99
57.23
65.08
74.88
85.49
94.80
100.90
103.05
102.12
99.96
98.42
98.38
99.52
100.97
102.06
102.41
101.43
97.81
89.94
77.30
61.60
46.62
36.26
31.77
30.35
26.13
13.45
-9.53
-39.27
-68.44
-89.60
-98.82
-97.06
-88.81
-79.21
-71.69
-67.31
-65.72
-66.48
-69.84
-76.43
-86.57
-99.54
-113.32
-125.09
-132.13
-132.64
-126.41
-114.77
-100.04
-84.51
-69.70
-55.98
-43.03
-30.54
-18.90
-9.32
-3.34
-2.02
-5.18
-11.16
-17.27
-20.65
-19.28
-12.62
-1.78
10.94
22.77
31.24
34.88
33.43
27.71
19.21
9.50
-0.08
-8.57
-15.44
-20.51
-23.99
-26.45
-28.82
-32.19
-37.52
-45.26
-55.14
-66.18
-76.91
-85.83
-91.67
-93.71
-91.74
-85.89
-76.47
-63.86
-48.51
-31.07
-12.46
6.27
24.04
40.02
53.63
64.49
72.28
76.67
77.40
74.58
68.85
61.36
53.59
46.88
42.15
39.71
39.32
40.45
42.48
44.84
47.02
48.65
49.46
49.34
48.35
46.66
44.54
42.38
40.63
39.67
39.72
40.76
42.42
44.10
45.05
44.70
42.81
39.56
35.27
30.39
25.46
21.06
17.63
15.41
14.36
14.02
13.55
11.36
5.94
-3.58
-16.79
-32.00
-46.57
-57.53
-62.43
-59.98
-51.22
-38.72
-25.68
-14.84
-7.97
-5.71
-7.64
-12.51
-18.73
-25.65
-32.96
-40.37
-47.36
-53.60
-59.57
-66.70
-77.02
-86.43
-91.21
-89.25
-81.31
-69.64
-56.33
-42.73
-29.93
-18.51
-8.55
-0.47
5.23
8.08
7.77
3.89
-3.80
-14.21
-24.18
-29.43
-25.07
-8.81
18.13
51.77
86.80
118.20
142.19
156.19
158.37
147.24
122.05
85.03
42.83
5.02
-19.19
-24.21
-9.34
22.66
65.15
108.41
142.54
160.24
157.86
135.46
96.63
47.79
-5.24
-50.53
-78.47
-88.01
-85.10
-76.60
-66.57
-56.41
-46.36
-36.78
-28.18
-22.12
-19.58
-19.85
-20.82
-20.40
-17.57
-12.66
-6.90
-1.52
1.87
2.38
0.62
-1.80
-3.32
-3.25
-1.95
-0.77
-0.49
-2.34
-7.26
-15.11
-24.50
-33.04
-37.87
-36.46
-27.53
-11.80
7.71
26.80
41.81
50.89
54.37
54.17
52.71
51.83
52.16
53.31
54.55
55.35
55.59
55.30
54.27
51.87
48.63
44.61
40.16
35.92
32.54
30.24
28.55
26.36
22.43
16.01
7.16
-2.98
-12.73
-20.52
-25.51
-27.76
-27.98
-26.96
-25.20
-22.87
-19.86
-16.06
-11.64
-7.12
-3.24
-0.69
0.16
-0.57
-2.36
-4.38
-5.90
-6.60
-6.70
-6.82
-7.59
-9.32
-11.76
-14.38
-16.60
-18.16
-19.28
-20.52
-22.42
-25.23
-28.81
-32.64
-36.16
-38.99
-41.16
-43.06
-45.34
-48.61
-53.19
-58.99
-65.46
-71.61
-76.13
-77.57
-74.57
-66.37
-53.13
-36.22
-17.98
-1.13
12.07
20.49
24.38
25.04
24.16
23.20
23.02
23.88
25.70
28.23
31.13
33.92
35.96
36.57
35.27
31.98
27.13
21.56
16.22
11.85
8.79
6.99
6.13
5.83
5.82
6.00
6.37
6.89
7.42
7.75
7.63
7.01
5.99
4.88
3.98
3.53
3.57
4.02
4.67
5.25
5.50
5.10
3.82
1.60
-1.39
-4.70
-7.83
-10.35
-12.16
-13.45
-14.53
-15.58
-16.48
-16.89
-16.40
-14.78
-12.15
-8.90
-5.54
-2.52
-0.07
1.77
3.12
4.10
4.77
5.17
5.28
5.13
4.77
4.28
3.72
3.09
2.33
1.31
0.00
-1.62
-3.41
-5.13
-6.50
-7.30
-7.47
-7.15
-6.65
-6.40
-6.80
-8.06
-10.17
-12.83
-15.66
-18.27
-20.47
-22.22
-23.66
-24.96
-26.25
-27.61
-28.95
-30.12
-30.87
-30.89
-29.97
-28.02
-25.22
-21.92
-18.54
-15.35
-12.34
-9.36
-6.25
-3.04
0.03
2.59
4.42
5.56
6.40
7.48
9.21
11.71
14.72
17.72
20.12
21.48
21.64
20.75
19.21
17.60
16.40
15.90
15.95
16.02
15.40
13.44
9.90
4.96
-0.70
-6.17
-10.51
-12.99
-13.28
-11.63
-8.86
-6.25
-5.24
-6.96
-11.91
-19.80
-29.64
-40.12
-50.02
-58.55
-65.39
-70.58
-74.25
-76.29
-76.33
-73.80
-68.29
-59.91
-49.49
-38.31
-27.75
-18.75
-11.57
-5.92
-1.40
2.14
4.39
4.79
2.96
-1.00
-6.34
-12.01
-17.01
-20.72
-23.02
-24.09
-24.18
-23.47
-21.95
-19.61
-16.62
-13.34
-10.33
-8.13
-7.09
-7.23
-8.25
-9.68
-10.99
-11.74
-11.70
-10.77
-8.98
-6.39
-3.08
0.90
5.46
10.41
15.49
20.36
24.68
28.14
30.54
31.86
32.25
32.01
31.46
30.81
30.13
29.32
28.28
27.02
25.67
24.46
23.49
22.59
21.39
19.41
16.30
12.01
6.83
1.23
-4.24
-9.22
-13.60
-17.58
-21.68
-26.60
-32.96
-41.08
-50.73
-61.09
-70.94
-79.10
-84.85
-88.16
-89.61
-89.98
-89.78
-88.98
-87.04
-83.27
-77.29
-69.32
-60.05
-50.41
-41.10
-32.46
-24.53
-17.31
-11.08
-6.41
-3.99
-4.35
-7.64
-13.48
-21.01
-28.97
-35.85
-40.07
-40.29
-35.78
-26.62
-13.67
1.70
18.08
34.44
50.22
65.25
79.50
92.81
104.80
114.90
122.48
127.01
128.16
125.87
120.37
112.17
102.06
91.03
80.16
70.56
63.20
58.71
57.27
58.48
61.39
64.83
67.63
69.08
68.99
67.72
65.86
64.04
62.68
61.79
61.00
59.61
56.75
51.73
44.32
35.00
24.91
15.55
8.27
3.80
2.08
2.45
4.05
6.29
9.01
12.26
15.90
19.28
21.31
20.93
17.78
12.52
6.71
2.12
-0.09
0.18
2.01
4.06
5.21
4.95
3.37
0.86
-2.22
-5.66
-9.40
-13.32
-17.16
-20.46
-22.63
-23.12
-21.55
-17.90
-12.58
-6.34
-0.12
5.20
9.01
11.07
11.42
10.37
8.42
6.18
4.30
3.33
3.49
4.59
6.01
6.99
6.94
5.67
3.40
0.63
-2.13
-4.52
-6.46
-8.00
-9.19
-10.01
-10.26
-9.68
-8.04
-5.24
-1.42
2.98
7.21
10.34
11.55
10.41
7.21
2.98
-0.75
-2.36
-0.72
4.53
12.81
22.78
32.65
40.60
45.21
45.72
42.21
35.56
27.19
18.83
12.15
8.54
8.84
13.25
21.20
31.45
42.23
51.70
58.36
61.43
60.99
57.77
52.80
47.00
41.02
35.19
29.68
24.66
20.34
16.93
14.54
13.09
12.39
12.12
11.98
11.69
11.06
10.13
9.15
8.66
9.28
11.51
15.43
20.59
26.11
31.01
34.50
36.27
36.48
35.67
34.53
33.66
33.46
34.08
35.44
37.32
39.46
41.54
43.16
43.78
42.75
39.42
33.42
24.88
14.57
3.68
-6.46
-14.88
-21.28
-26.03
-30.05
-34.34
-39.72
-46.47
-54.39
-62.93
-71.38
-79.14
-85.82
-91.28
-95.64
-99.18
-102.20
-104.96
-107.46
-109.37
-110.05
-108.80
-105.13
-99.04
-91.12
-82.38
-73.93
-66.62
-60.86
-56.64
-53.67
-51.52
-49.94
-48.91
-48.56
-48.91
-49.97
-51.67
-53.86
-56.32
-58.63
-60.40
-61.45
-61.82
-61.77
-61.83
-62.75
-65.32
-70.02
-76.54
-84.11
-91.62
-97.64
-100.67
-99.76
-94.82
-86.82
-77.30
-67.03
-56.79
-47.10
-37.66
-27.25
-14.55
0.95
18.52
36.26
53.28
67.51
76.48
79.25
77.41
74.07
72.11
72.90
76.22
83.43
93.89
105.40
116.24
126.49
137.17
149.71
165.95
187.87
219.61
259.53
299.14
327.09
334.74
319.19
283.81
236.80
166.34
79.96
-2.06
-64.56
-106.71
-134.13
-150.77
-158.04
-156.63
-148.91
-135.71
-120.84
-109.91
-106.83
-111.54
-121.16
-131.57
-138.61
-138.05
-124.81
-98.46
-63.84
-28.18
2.39
24.43
35.05
36.28
32.61
29.11
27.08
24.46
18.91
10.56
2.00
-3.55
-3.80
1.29
10.47
20.94
29.10
31.84
27.31
15.23
-2.62
-23.72
-44.90
-63.34
-77.81
-88.80
-97.69
-105.27
-110.65
-111.11
-103.20
-84.68
-56.21
-21.25
15.05
47.28
71.17
84.70
88.29
84.21
75.14
62.97
48.72
33.09
16.79
1.10
-11.66
-18.87
-17.51
-7.03
9.12
24.73
33.66
31.83
18.75
-1.67
-21.78
-36.14
-41.51
-37.54
-25.65
-7.60
14.11
37.23
58.84
76.17
88.05
95.43
98.84
97.50
90.36
77.83
57.87
31.77
4.89
-18.42
-36.76
-52.72
-71.17
-88.47
-100.63
-104.68
-105.64
-100.07
-85.13
-56.44
-15.86
32.02
83.33
133.43
174.43
196.99
199.05
185.56
164.16
144.21
124.76
105.08
84.14
60.64
34.75
9.00
-15.51
-39.19
-63.47
-89.30
-115.14
-139.24
-160.18
-176.54
-186.62
-190.29
-189.10
-185.81
-183.33
-182.76
-184.63
-188.75
-193.71
-196.79
-195.09
-187.25
-174.17
-158.27
-141.67
-126.34
-113.83
-105.03
-99.85
-96.34
-92.69
-87.82
-80.71
-69.49
-52.58
-29.57
-1.24
31.21
68.76
111.31
156.34
199.62
236.86
264.30
279.37
281.84
274.78
266.46
263.99
269.57
280.52
291.48
296.22
289.47
268.83
219.23
143.46
61.28
-6.37
-51.80
-78.04
-90.52
-92.74
-86.61
-74.47
-57.99
-41.84
-32.30
-33.20
-42.89
-56.02
-67.16
-74.44
-78.35
-79.28
-79.32
-81.33
-86.71
-93.58
-97.89
-95.66
-84.90
-66.61
-43.21
-19.11
0.99
14.22
20.88
23.34
23.76
23.80
24.11
25.08
26.53
28.01
29.15
29.75
29.32
26.81
21.05
11.20
-2.38
-18.34
-34.60
-48.94
-59.53
-65.48
-67.20
-66.15
-64.43
-63.98
-65.80
-69.59
-73.83
-76.53
-76.11
-72.16
-65.59
-58.25
-52.07
-48.24
-46.91
-47.52
-49.41
-52.35
-56.64
-62.73
-70.73
-80.00
-89.17
-96.40
-99.79
-97.70
-88.97
-73.06
-50.38
-22.43
8.13
37.97
63.89
83.98
98.48
109.82
121.91
138.52
161.79
191.04
222.77
251.51
271.37
277.64
267.90
242.24
202.71
152.52
95.35
35.21
-23.60
-76.54
-119.30
-148.66
-163.24
-163.70
-152.30
-132.14
-106.32
-77.83
-49.68
-25.18
-7.62
0.59
-1.10
-10.77
-24.38
-36.96
-44.18
-43.60
-35.14
-20.90
-4.26
11.13
22.26
27.30
25.81
18.62
7.53
-5.14
-16.93
-25.53
-28.97
-25.83
-15.34
2.51
26.73
55.31
85.34
113.47
136.66
152.79
161.22
162.90
160.13
155.98
153.72
155.89
163.46
175.30
188.14
197.33
198.28
187.86
165.20
131.61
89.69
42.51
-6.85
-55.06
-98.40
-132.97
-155.62
-165.09
-162.77
-152.25
-138.08
-124.18
-112.66
-103.69
-96.11
-88.43
-79.60
-69.39
-58.39
-47.77
-38.91
-33.14
-31.43
-34.11
-41.08
-51.81
-65.71
-82.21
-100.75
-120.62
-140.80
-160.10
-177.33
-191.67
-202.70
-210.31
-214.35
-214.46
-210.11
-200.89
-187.00
-169.33
-149.36
-128.55
-107.93
-87.85
-68.18
-48.80
-30.01
-12.51
2.86
15.64
26.19
35.71
45.91
58.50
74.48
93.95
115.92
138.67
160.09
178.16
191.26
198.48
199.63
195.23
186.34
174.48
161.43
148.98
138.64
131.30
126.93
124.60
122.77
119.70
113.95
104.74
92.00
76.16
57.94
38.13
17.50
-3.16
-22.98
-41.01
-56.31
-68.11
-75.93
-79.71
-79.77
-76.79
-71.63
-65.16
-58.22
-51.43
-45.18
-39.66
-34.91
-30.88
-27.46
-24.55
-21.98
-19.55
-17.07
-14.38
-11.42
-8.22
-4.82
-1.27
2.45
6.39
10.61
15.08
19.59
23.87
27.64
30.74
33.25
35.41
37.50
39.69
41.90
43.82
45.01
45.03
43.55
40.41
35.59
29.25
21.73
13.63
5.72
-1.19
-6.47
-9.83
-11.43
-11.77
-11.39
-10.74
-10.05
-9.37
-8.70
-8.03
-7.41
-6.85
-6.39
-6.02
-5.73
-5.55
-5.49
-5.55
-5.69
-5.84
-5.94
-5.99
-5.98
-5.93
-5.83
-5.59
-5.19
-4.67
-4.17
-3.87
-3.86
-4.16
-4.69
-5.38
-6.22
-7.27
-8.60
-10.21
-12.02
-13.96
-15.93
-17.96
-20.09
-22.25
-24.21
-25.54
-25.79
-24.64
-22.07
-18.39
-14.09
-9.67
-5.50
-1.72
1.72
4.92
8.02
11.05
14.01
16.81
19.31
21.28
22.50
22.73
21.85
19.96
17.29
14.25
11.22
8.57
6.49
5.03
4.13
3.63
3.29
2.83
2.00
0.65
-1.25
-3.51
-5.90
-8.19
-10.26
-12.17
-14.12
-16.34
-18.99
-22.07
-25.34
-28.39
-30.74
-32.02
-31.99
-30.66
-28.25
-25.10
-21.61
-18.13
-14.90
-12.04
-9.50
-7.17
-4.92
-2.69
-0.57
1.22
2.45
3.00
2.94
2.53
2.07
1.76
1.68
1.72
1.78
1.83
1.93
2.18
2.62
3.18
3.65
3.84
3.63
3.06
2.28
1.47
0.72
0.02
-0.73
-1.62
-2.64
-3.75
-4.80
-5.74
-6.61
-7.62
-8.98
-10.78
-12.87
-14.86
-16.21
-16.50
-15.53
-13.40
-10.41
-6.94
-3.24
0.58
4.49
8.43
12.24
15.72
18.67
21.03
22.84
24.20
25.20
25.88
26.24
26.25
25.83
24.92
23.45
21.35
18.65
15.52
12.26
9.25
6.75
4.81
3.19
1.46
-0.85
-3.99
-7.94
-12.35
-16.72
-20.58
-23.73
-26.25
-28.49
-30.98
-34.26
-38.74
-44.60
-51.51
-58.51
-63.91
-65.61
-61.59
-50.74
-33.25
-10.76
14.07
38.36
59.67
76.46
88.10
94.69
96.71
94.85
89.92
82.85
74.61
66.11
58.06
50.81
44.42
38.65
33.21
27.88
22.59
17.54
12.96
8.99
5.51
2.21
-1.37
-5.51
-10.27
-15.34
-20.30
-24.74
-28.51
-31.71
-34.55
-37.24
-39.93
-42.70
-45.76
-49.41
-54.07
-59.96
-66.97
-74.54
-81.82
-87.97
-92.53
-95.46
-97.19
-98.25
-99.01
-99.48
-99.37
-98.23
-95.72
-91.74
-86.44
-80.16
-73.32
-66.29
-59.45
-53.12
-47.56
-42.94
-39.21
-36.11
-33.31
-30.46
-27.54
-24.93
-23.39
-23.84
-27.04
-33.19
-41.62
-50.78
-58.43
-62.19
-60.12
-51.31
-36.21
-16.54
5.06
25.70
42.84
54.75
60.67
60.79
56.15
48.52
40.19
33.78
31.62
35.27
44.96
59.51
76.66
93.76
108.48
119.36
125.81
127.89
125.94
120.34
111.56
100.26
87.44
74.35
62.27
52.20
44.71
39.99
38.05
38.87
42.51
48.88
57.57
67.75
78.32
88.08
96.03
101.46
103.84
102.85
98.50
91.38
82.98
75.50
71.29
71.83
77.00
84.90
92.72
97.99
99.65
98.41
96.02
94.00
92.58
90.36
84.97
74.29
57.49
35.48
10.53
-14.56
-37.36
-56.33
-70.94
-81.41
-88.34
-92.40
-93.98
-92.97
-88.70
-79.88
-64.97
-42.73
-12.90
23.15
62.30
100.19
132.36
155.61
168.91
173.55
172.31
168.27
163.52
158.76
153.49
146.77
137.92
126.88
114.03
99.74
84.01
66.43
46.31
22.87
-4.49
-35.93
-70.54
-105.90
-138.07
-162.34
-174.75
-173.64
-160.45
-139.31
-115.42
-93.24
-75.25
-61.96
-52.75
-46.97
-44.34
-44.69
-47.35
-50.80
-53.07
-52.49
-48.44
-41.62
-33.61
-26.17
-20.45
-17.16
-15.88
-15.47
-14.83
-13.61
-12.22
-11.38
-11.65
-13.16
-16.03
-19.81
-23.70
-27.11
-30.16
-33.46
-37.68
-43.24
-50.09
-58.90
-69.49
-80.58
-90.74
-99.19
-105.75
-110.55
-114.05
-117.33
-124.93
-139.09
-157.86
-176.39
-189.36
-192.06
-180.87
-153.95
-111.52
-61.86
-10.96
39.42
87.03
124.81
142.98
134.11
97.17
38.66
-38.98
-125.30
-202.94
-257.92
-287.85
-299.91
-304.70
-311.77
-327.82
-368.51
-437.22
-520.57
-598.62
-656.74
-688.01
-691.21
-669.66
-551.05
-332.57
-83.25
122.35
259.33
339.22
381.78
402.56
411.39
413.96
401.29
371.72
335.42
304.90
285.03
273.80
267.32
263.04
259.83
248.13
225.42
199.01
178.31
167.39
164.48
166.28
170.42
175.25
173.94
164.27
150.34
137.74
128.74
122.36
115.01
106.69
97.84
86.21
71.47
55.94
42.35
31.72
23.45
16.67
10.96
5.71
-0.62
-8.57
-17.28
-25.27
-31.20
-34.38
-34.77
-32.85
-29.96
-27.48
-26.29
-26.72
-28.31
-30.22
-31.68
-32.17
-31.52
-30.08
-28.50
-27.71
-29.14
-34.22
-43.74
-57.31
-73.01
-87.73
-98.23
-102.38
-98.15
-86.45
-70.31
-53.56
-39.27
-28.63
-20.78
-13.67
-5.32
5.24
17.39
29.69
40.71
49.57
56.06
60.38
62.82
63.54
62.67
60.21
56.41
51.68
46.45
41.01
35.58
30.51
26.53
24.72
26.02
30.71
37.93
45.57
50.84
51.30
45.77
34.90
20.72
5.71
-8.11
-19.64
-28.56
-34.81
-38.25
-38.74
-36.64
-33.13
-30.07
-29.28
-31.69
-36.86
-43.31
-49.33
-53.79
-56.52
-58.15
-59.45
-60.80
-61.85
-61.70
-59.18
-53.18
-42.96
-28.42
-10.26
9.89
29.63
46.24
57.45
62.10
60.64
54.90
47.58
41.33
38.03
38.35
41.80
47.10
52.71
57.27
59.82
59.87
57.30
52.22
44.95
36.03
26.30
16.80
8.63
2.63
-0.90
-2.24
-2.15
-1.51
-0.98
-0.80
-0.83
-0.74
-0.34
0.43
1.51
3.00
5.27
8.72
13.39
18.51
22.45
23.25
19.46
10.99
-0.59
-12.62
-22.31
-27.86
-28.93
-26.56
-22.38
-17.93
-14.12
-11.30
-9.56
-9.04
-10.02
-12.75
-17.12
-22.47
-27.63
-31.30
-32.52
-31.03
-27.39
-22.70
-18.01
-13.96
-10.52
-7.28
-3.77
0.13
4.15
7.86
11.02
13.76
16.56
19.98
24.41
29.96
36.50
43.72
51.32
58.94
66.15
72.49
77.53
81.05
83.08
83.97
84.31
84.84
86.28
89.11
93.28
98.01
101.77
102.55
98.56
88.91
74.24
56.71
39.44
25.54
16.88
13.41
12.93
11.70
5.62
-8.40
-31.30
-61.35
-94.46
-125.43
-149.31
-162.76
-164.63
-155.89
-138.84
-116.55
-92.24
-69.16
-50.14
-37.10
-30.34
-28.31
-28.06
-26.37
-21.14
-12.12
-0.80
10.64
20.50
28.23
34.26
39.26
43.37
45.97
46.02
42.80
36.46
28.11
19.35
11.75
6.31
3.19
1.85
1.50
1.45
1.37
1.28
1.26
1.17
0.58
-1.09
-4.23
-8.69
-13.70
-18.13
-20.93
-21.62
-20.47
-18.31
-16.09
-14.37
-13.09
-11.79
-9.90
-7.22
-4.01
-0.86
1.62
3.17
3.93
4.37
4.97
6.04
7.56
9.28
10.78
11.69
11.73
10.81
8.99
6.44
3.36
-0.05
-3.64
-7.18
-10.40
-12.88
-14.24
-14.23
-12.92
-10.73
-8.31
-6.34
-5.25
-5.20
-6.06
-7.62
-9.62
-11.79
-13.83
-15.33
-15.87
-15.12
-13.03
-9.91
-6.39
-3.27
-1.20
-0.46
-0.80
-1.60
-2.08
-1.67
-0.29
1.69
3.55
4.64
4.63
3.63
2.01
0.25
-1.32
-2.57
-3.48
-4.03
-4.10
-3.56
-2.34
-0.60
1.28
2.78
3.43
3.04
1.81
0.20
-1.24
-2.15
-2.50
-2.60
-2.85
-3.55
-4.65
-5.87
-6.81
-7.17
-6.93
-6.23
-5.24
-4.02
-2.48
-0.49
1.95
4.63
7.18
9.24
10.64
11.53
12.23
13.09
14.28
15.65
16.76
17.09
16.25
14.15
11.07
7.58
4.33
1.87
0.40
-0.19
-0.22
-0.02
0.22
0.53
1.03
1.71
2.33
2.44
1.55
-0.61
-3.89
-7.79
-11.61
-14.74
-16.88
-18.10
-18.79
-19.51
-20.87
-23.40
-27.41
-32.86
-39.25
-45.58
-50.49
-52.57
-50.79
-44.80
-35.13
-23.02
-10.09
2.06
12.18
19.53
23.81
25.08
23.59
19.76
14.13
7.42
0.50
-5.72
-10.44
-13.11
-13.59
-12.17
-9.43
-6.12
-2.91
-0.20
1.96
3.77
5.55
7.48
9.46
11.17
12.31
12.82
13.07
13.79
15.80
19.76
25.84
33.69
42.45
50.89
57.52
60.75
59.27
52.45
40.73
25.88
10.60
-2.15
-10.02
-11.98
-8.47
-1.18
7.61
15.67
21.32
23.62
22.49
18.49
12.69
6.43
1.03
-2.52
-3.81
-3.11
-1.26
0.63
1.56
1.01
-0.92
-3.58
-6.03
-7.45
-7.41
-6.02
-3.90
-1.96
-1.24
-2.61
-6.50
-12.72
-20.33
-27.79
-33.36
-35.68
-34.35
-30.14
-24.83
-20.53
-18.92
-20.64
-25.07
-30.74
-35.95
-39.50
-41.16
-41.67
-42.39
-44.67
-49.24
-55.87
-63.26
-69.34
-71.66
-68.06
-57.17
-38.83
-14.21
14.39
44.06
71.84
95.39
113.29
125.09
131.02
131.61
127.39
118.73
106.01
89.81
71.04
50.98
30.95
12.05
-5.16
-20.80
-35.50
-50.09
-65.25
-81.23
-97.76
-114.16
-129.56
-143.16
-154.44
-163.40
-170.63
-177.22
-184.36
-192.92
-202.87
-213.05
-221.27
-224.85
-221.43
-209.71
-189.82
-163.22
-132.25
-99.45
-67.11
-36.97
-10.29
12.23
30.23
43.77
53.34
59.79
64.11
67.20
69.70
71.99
74.35
77.08
80.55
85.04
90.51
96.47
101.99
105.94
107.31
105.67
101.50
96.24
91.96
90.66
93.40
99.76
107.82
114.87
118.57
117.98
113.93
108.65
104.84
104.54
108.22
114.39
119.83
120.59
113.30
96.66
72.09
43.60
16.37
-5.03
-18.15
-23.11
-21.90
-17.09
-10.59
-3.22
4.99
14.12
23.89
33.61
42.56
50.39
57.18
63.46
69.70
76.10
82.43
88.19
92.95
96.67
99.85
103.34
107.89
113.64
119.91
125.34
128.42
128.16
124.33
117.46
108.39
97.73
85.59
71.50
54.77
34.97
12.34
-12.06
-36.64
-59.99
-81.82
-103.46
-127.76
-158.03
-196.39
-242.18
-291.23
-336.74
-371.08
-388.16
-385.16
-363.09
-326.26
-280.71
-232.63
-186.85
-146.10
-111.04
-80.99
-54.70
-31.08
-9.48
10.27
27.85
42.44
52.63
56.66
53.07
41.71
24.46
5.22
-11.12
-20.51
-21.19
-14.34
-3.20
8.44
17.85
24.06
27.62
29.77
31.56
33.48
35.57
37.81
40.33
43.26
46.48
49.50
51.72
52.78
52.88
52.72
53.02
54.08
55.51
56.50
56.26
54.53
51.94
49.87
49.92
53.03
58.75
65.03
68.86
67.49
59.67
46.37
30.40
15.21
3.46
-3.94
-7.73
-9.51
-10.50
-10.97
-10.23
-7.40
-2.04
5.45
14.01
22.33
29.28
34.04
35.99
34.57
29.19
19.60
6.37
-8.81
-23.32
-34.48
-40.46
-41.09
-37.87
-33.21
-29.42
-27.74
-28.03
-29.11
-29.39
-27.54
-22.90
-15.54
-6.10
4.42
14.86
24.15
31.45
36.28
38.57
38.69
37.27
35.02
32.57
30.37
28.56
27.13
25.91
24.79
23.70
22.73
22.05
21.80
22.07
22.72
23.47
23.95
23.80
22.80
20.92
18.32
15.27
12.08
9.04
6.36
4.18
2.46
1.08
-0.20
-1.63
-3.34
-5.23
-7.00
-8.26
-8.68
-8.23
-7.08
-5.54
-3.85
-2.05
-0.04
2.33
5.02
7.74
10.07
11.61
12.21
11.97
11.19
10.22
9.29
8.46
7.71
7.00
6.37
5.87
5.53
5.26
4.85
4.08
2.76
0.92
-1.26
-3.50
-5.55
-7.24
-8.56
-9.60
-10.49
-11.33
-12.17
-13.00
-13.82
-14.64
-15.51
-16.49
-17.54
-18.53
-19.22
-19.33
-18.70
-17.32
-15.41
-13.29
-11.26
-9.43
-7.71
-5.90
-3.85
-1.54
0.84
3.07
4.92
6.31
7.29
8.02
8.66
9.35
10.19
11.20
12.39
13.73
15.16
16.63
18.15
19.74
21.49
23.49
25.72
28.12
30.58
33.01
35.43
37.97
40.79
43.99
47.53
51.27
55.07
58.91
62.89
67.01
71.00
74.34
76.59
77.94
79.44
82.88
90.07
102.22
119.45
140.79
164.47
188.20
209.35
224.99
232.24
228.82
213.75
187.71
152.80
111.73
66.88
19.70
-29.20
-79.62
-131.24
-183.25
-234.09
-281.52
-322.70
-354.67
-375.04
-382.96
-379.49
-367.28
-349.58
-328.80
-305.78
-279.94
-250.35
-216.91
-181.11
-145.74
-113.96
-88.03
-68.54
-54.33
-43.12
-32.59
-21.42
-9.80
0.75
8.18
10.92
8.72
2.93
-4.06
-9.75
-12.51
-12.04
-9.22
-5.55
-2.55
-1.34
-2.44
-5.83
-10.91
-16.64
-21.67
-24.50
-23.83
-18.72
-8.77
5.73
23.63
42.92
60.92
74.90
82.97
84.79
81.80
76.68
72.32
70.73
72.66
77.73
85.07
93.82
103.04
111.11
115.60
113.86
104.47
88.73
70.81
56.35
50.02
53.31
63.89
76.78
86.82
91.01
89.54
84.77
79.43
75.18
72.22
69.88
67.58
65.43
64.09
64.76
67.70
71.84
75.29
76.35
74.29
69.50
63.11
56.39
51.12
47.57
44.48
39.90
32.69
23.29
13.37
4.96
-0.65
-2.14
-0.51
1.65
2.34
2.32
5.27
15.64
36.09
65.79
102.09
138.78
168.10
183.58
182.52
166.37
138.92
104.91
55.82
-7.46
-75.12
-134.14
-177.56
-207.01
-228.15
-245.47
-260.40
-269.78
-266.58
-246.05
-208.49
-159.49
-107.57
-60.94
-26.46
-8.07
-4.87
-10.51
-17.52
-20.39
-17.14
-8.82
2.19
13.34
24.08
34.93
46.41
57.01
62.93
59.41
43.18
14.26
-25.69
-67.76
-100.23
-115.49
-113.98
-102.26
-88.23
-77.47
-72.43
-73.87
-81.52
-92.50
-103.96
-112.10
-112.35
-100.81
-76.17
-37.23
6.99
45.63
71.12
81.30
79.62
71.97
63.51
57.05
53.64
53.30
57.45
67.47
80.99
93.00
97.08
87.90
63.71
27.78
-13.77
-49.61
-71.58
-78.01
-72.67
-61.60
-49.81
-39.66
-31.09
-23.92
-18.20
-15.42
-17.29
-23.63
-31.41
-35.23
-29.71
-10.63
21.72
62.70
103.96
136.23
152.08
147.96
124.80
86.92
40.50
-8.62
-54.99
-93.84
-120.82
-132.49
-127.32
-106.74
-75.73
-41.70
-13.19
3.37
5.12
-5.66
-24.12
-45.84
-67.44
-87.73
-103.70
-113.34
-114.66
-106.47
-89.38
-66.67
-43.74
-26.17
-17.62
-18.18
-25.14
-34.31
-42.25
-47.36
-49.35
-47.77
-40.82
-25.90
-1.18
32.48
71.97
113.66
155.40
196.95
238.44
277.89
309.79
326.44
321.20
292.24
243.81
184.54
123.74
68.04
20.43
-19.03
-51.12
-76.21
-94.03
-104.49
-108.57
-108.57
-107.24
-106.69
-107.71
-109.80
-111.79
-112.71
-112.42
-111.53
-110.89
-110.80
-110.56
-108.67
-103.57
-94.54
-82.23
-68.42
-55.29
-44.34
-35.83
-28.78
-21.71
-13.46
-3.97
5.72
13.93
19.29
21.52
21.79
22.30
25.49
33.07
45.42
61.37
78.31
92.41
99.08
93.83
73.82
39.70
-3.20
-45.73
-77.73
-92.15
-88.22
-71.79
-52.54
-39.29
-36.11
-40.96
-47.80
-50.41
-45.75
-35.04
-22.53
-12.65
-7.69
-6.90
-7.34
-5.63
0.33
10.54
23.10
35.39
45.34
52.16
56.27
58.36
58.53
55.90
49.08
37.27
21.26
3.54
-12.50
-23.95
-29.55
-29.91
-26.78
-21.72
-15.39
-7.63
1.46
10.34
15.69
13.28
-0.41
-26.46
-62.78
-104.64
-145.89
-180.57
-203.66
-211.34
-200.97
-171.51
-124.51
-64.96
-1.24
56.41
98.71
120.14
120.57
104.93
81.05
56.73
37.42
25.22
19.51
18.47
20.40
24.43
30.28
37.62
45.56
52.80
58.15
61.22
62.78
64.44
67.94
74.17
82.83
92.55
101.67
109.04
114.38
118.09
120.68
122.20
122.08
119.45
113.61
104.53
92.84
79.79
66.86
55.50
46.92
41.77
39.88
40.02
40.14
37.84
31.34
20.15
5.40
-10.84
-26.33
-39.77
-51.44
-62.93
-76.59
-94.68
-118.52
-147.86
-180.36
-211.49
-235.02
-244.29
-233.94
-201.62
-148.99
-81.65
-7.86
63.37
124.09
168.67
194.26
200.57
189.27
163.36
126.64
83.26
37.49
-6.56
-45.04
-74.79
-93.80
-101.96
-101.19
-95.07
-87.79
-82.79
-81.60
-83.54
-86.30
-87.24
-84.67
-78.56
-70.34
-62.19
-56.06
-53.08
-53.57
-57.26
-63.67
-72.18
-81.90
-91.59
-99.79
-105.13
-106.76
-104.67
-99.65
-92.77
-84.88
-76.11
-65.74
-52.39
-34.40
-10.16
21.52
60.95
106.96
156.34
203.73
242.53
266.59
272.26
259.81
233.36
199.31
163.91
131.22
102.36
76.20
50.92
25.46
0.09
-23.97
-45.35
-63.05
-76.63
-85.93
-90.69
-90.69
-86.01
-77.38
-66.17
-53.64
-39.90
-23.07
0.34
33.89
78.75
131.94
186.28
232.55
262.95
274.04
267.65
249.48
226.21
202.82
181.60
162.72
145.87
131.35
119.98
112.20
107.12
102.28
94.53
81.40
62.25
38.58
13.46
-9.69
-28.27
-41.39
-49.90
-55.86
-61.54
-68.50
-77.03
-86.24
-94.69
-101.17
-105.30
-107.66
-109.41
-111.61
-114.68
-118.24
-121.35
-123.03
-122.67
-120.24
-116.21
-111.17
-105.62
-99.74
-93.39
-86.17
-77.58
-67.19
-54.80
-40.58
-25.17
-9.64
4.63
16.27
24.29
28.42
29.27
28.22
26.96
26.86
28.50
31.55
35.01
37.84
39.57
40.58
41.94
44.94
50.52
58.90
69.50
81.11
91.98
100.03
102.94
98.45
84.83
61.56
29.90
-7.03
-44.58
-77.58
-101.43
-113.20
-112.20
-100.02
-80.10
-56.98
-35.47
-20.00
-14.02
-19.49
-36.12
-60.83
-87.86
-109.82
-119.75
-113.37
-90.82
-56.86
-19.13
14.54
39.00
53.22
59.84
63.02
66.18
70.20
73.04
70.80
59.38
35.68
-1.78
-53.36
-117.98
-192.11
-268.87
-338.43
-389.98
-415.20
-411.41
-382.37
-337.50
-287.76
-241.04
-199.60
-161.07
-120.91
-75.09
-21.79
38.42
101.30
159.69
205.73
233.33
240.77
232.42
217.96
208.73
213.06
230.36
251.30
263.30
256.76
229.16
185.29
133.98
79.46
29.89
-8.07
-33.61
-50.00
-60.16
-64.75
-63.84
-58.95
-53.03
-47.62
-43.16
-38.24
-29.13
-12.28
12.79
42.37
69.75
87.76
92.07
82.79
60.88
31.04
0.38
-24.12
-37.57
-38.04
-26.46
-5.59
19.97
43.93
60.68
66.79
61.40
46.29
25.37
3.58
-14.66
-27.33
-35.24
-40.85
-46.12
-51.85
-57.48
-61.61
-62.99
-61.21
-57.04
-51.92
-46.63
-40.99
-34.45
-26.82
-18.75
-11.81
-7.67
-7.20
-9.93
-13.96
-16.78
-16.71
-13.23
-7.38
-1.13
3.58
5.76
5.60
4.02
2.08
0.26
-1.34
-2.75
-3.72
-3.65
-1.96
1.54
6.43
11.98
17.57
23.03
28.60
34.51
40.53
45.72
48.66
48.15
43.86
36.74
28.79
22.37
19.37
20.67
25.97
34.02
42.91
50.30
53.66
50.76
40.57
24.08
4.66
-12.63
-22.68
-22.24
-11.17
7.53
29.05
48.66
63.14
71.54
74.77
74.75
73.52
72.77
73.73
77.22
83.59
92.45
102.13
109.55
110.76
102.32
83.03
54.85
22.60
-7.90
-32.33
-49.57
-61.87
-73.24
-87.18
-104.79
-124.40
-142.58
-155.77
-161.83
-160.54
-153.30
-142.09
-128.58
-113.61
-97.40
-80.35
-63.78
-50.24
-42.83
-44.00
-54.24
-71.57
-91.89
-110.24
-122.03
-123.94
-114.34
-93.43
-63.52
-29.43
1.75
21.77
23.38
2.80
-38.60
-94.10
-153.21
-204.35
-237.82
-247.94
-234.02
-199.78
-151.94
-98.26
-45.68
0.81
38.70
67.71
89.11
104.84
116.99
127.29
136.94
146.48
155.93
164.98
173.43
181.51
189.86
199.17
209.72
221.17
232.65
243.27
252.55
260.77
268.88
278.20
289.82
303.84
318.82
331.60
337.78
333.10
314.99
283.88
243.26
198.60
155.25
116.62
83.26
53.24
23.24
-10.13
-49.11
-93.87
-141.81
-187.39
-222.84
-240.18
-234.02
-204.02
-155.73
-99.09
-45.11
-2.33
25.33
38.52
40.68
35.91
27.52
17.50
7.02
-3.28
-13.41
-24.25
-37.79
-57.02
-85.29
-124.97
-175.93
-234.23
-291.91
-338.34
-362.97
-358.58
-323.89
-264.31
-190.51
-115.21
-49.44
0.32
33.34
53.58
67.20
79.49
92.87
106.44
117.18
121.92
118.80
107.47
88.10
60.06
22.28
-24.92
-77.49
-126.92
-162.30
-174.49
-160.17
-123.67
-75.20
-26.85
11.83
36.23
47.02
48.58
46.78
47.02
52.86
65.73
84.78
107.08
128.16
143.23
148.40
141.51
122.28
92.01
53.23
9.12
-36.98
-82.68
-126.88
-170.16
-214.43
-261.33
-310.79
-359.39
-400.57
-426.68
-432.78
-417.87
-385.00
-339.96
-288.69
-236.22
-184.87
-134.59
-84.73
-37.19
5.58
42.08
72.77
100.73
128.52
158.70
192.55
228.45
258.56
274.15
269.60
244.65
205.16
157.22
106.87
57.83
10.13
-41.90
-101.72
-166.67
-228.67
-277.19
-308.69
-324.64
-329.37
-304.78
-244.53
-158.49
-67.71
-0.87
45.03
76.34
98.79
119.07
140.99
163.25
184.13
203.19
221.15
239.60
254.86
262.15
258.15
242.38
215.35
181.34
147.37
120.06
103.67
95.70
91.80
89.06
86.90
84.91
83.14
81.41
78.91
75.17
68.67
59.36
48.77
38.53
28.72
18.94
9.38
1.65
-1.80
-0.49
3.37
4.65
-3.55
-27.76
-71.13
-131.82
-203.18
-275.58
-339.37
-386.80
-413.24
-417.55
-401.57
-369.24
-325.38
-274.63
-220.71
-166.08
-112.14
-59.88
-10.33
35.13
74.80
107.17
131.34
147.39
156.36
159.92
159.65
156.79
152.13
146.18
139.49
132.78
126.65
121.32
116.43
111.21
105.01
97.69
89.84
82.55
76.98
73.75
72.68
72.75
72.47
70.48
66.02
59.22
50.98
42.64
35.35
29.79
26.03
23.72
22.48
22.08
22.51
23.82
25.84
28.11
30.01
31.06
31.10
30.39
29.42
28.70
28.54
28.95
29.73
30.56
31.13
31.24
30.83
29.96
28.86
27.87
27.44
28.05
30.03
33.43
37.93
42.89
47.67
51.93
55.83
59.97
64.95
70.90
77.14
82.25
84.54
82.67
76.08
65.32
51.86
37.78
25.27
16.13
11.32
10.84
13.77
18.64
23.85
28.20
31.09
32.65
33.56
34.88
37.71
42.69
49.50
56.49
60.89
59.61
50.31
32.40
7.43
-21.32
-49.86
-74.62
-93.26
-105.06
-110.71
-111.79
-110.24
-107.81
-105.71
-104.39
-103.68
-102.97
-101.55
-98.91
-94.91
-89.73
-83.88
-78.01
-72.84
-68.99
-66.76
-66.08
-66.43
-67.04
-67.06
-65.81
-62.99
-58.67
-53.21
-47.05
-40.54
-33.87
-27.09
-20.15
-13.01
-5.77
1.36
7.97
13.58
17.74
20.21
21.11
20.95
20.50
20.49
21.32
22.90
24.72
26.20
26.98
27.06
26.71
26.23
25.71
24.99
23.77
21.88
19.43
16.79
14.34
12.19
10.09
7.51
3.96
-0.70
-6.12
-11.57
-16.24
-19.59
-21.43
-21.91
-21.31
-19.89
-17.80
-15.20
-12.24
-9.12
-6.02
-3.06
-0.26
2.30
4.38
5.63
5.70
4.44
2.02
-1.09
-4.32
-7.28
-9.84
-12.14
-14.45
-16.95
-19.72
-22.67
-25.71
-28.69
-31.36
-33.34
-34.16
-33.48
-31.26
-27.94
-24.29
-21.12
-18.97
-17.83
-17.28
-16.66
-15.48
-13.61
