1589025873.00
64.000000
-0.00
-0.00
-0.00
-0.00
-0.00
-0.00
-0.00
-0.00
-0.00
-0.00
0.00
0.01
0.01
-0.00
-0.03
-0.05
-0.05
0.00
0.13
0.36
0.66
1.01
1.37
1.72
2.06
2.40
2.79
3.24
3.80
4.42
5.06
5.66
6.20
6.68
7.15
7.68
8.31
9.14
10.09
11.04
11.88
12.56
13.14
13.76
14.65
15.96
17.91
20.32
22.90
25.38
27.58
29.57
31.68
34.32
37.81
42.54
48.15
54.10
59.83
64.97
69.58
74.14
79.34
85.71
93.76
103.00
112.62
121.73
129.77
136.75
143.30
150.75
157.77
166.64
177.95
191.79
206.97
220.57
228.25
225.36
208.53
176.87
132.76
80.05
23.07
-34.94
-92.44
-149.16
-205.23
-260.37
-313.74
-363.87
-409.83
-450.91
-486.50
-515.74
-537.23
-549.22
-549.96
-538.37
-514.21
-478.67
-433.88
-382.45
-327.02
-269.84
-212.63
-156.66
-102.95
-52.37
-5.90
35.58
71.43
101.35
125.50
144.38
158.69
169.15
176.37
180.75
182.57
182.07
179.51
175.23
169.65
163.18
156.15
148.81
141.30
133.69
126.02
118.33
110.69
103.16
95.80
88.68
81.83
75.25
68.95
62.95
57.25
51.86
46.78
42.03
37.59
33.45
29.61
26.07
22.81
19.83
17.11
14.67
12.48
10.54
8.83
7.35
6.07
4.97
4.05
3.27
2.62
2.09
1.65
1.30
1.01
0.79
0.61
0.47
0.37
0.29
0.23
0.18
0.16
0.14
0.14
0.14
0.16
0.18
0.20
0.24
0.28
0.32
0.36
0.40
0.46
0.50
0.56
0.61
0.67
0.73
0.79
0.86
0.94
1.01
1.10
1.19
1.28
1.39
1.51
1.64
1.78
1.95
2.14
2.35
2.58
2.84
3.14
3.47
3.83
4.22
4.66
5.15
5.70
6.28
6.89
7.50
8.09
8.68
9.28
9.96
10.76
11.68
12.70
13.77
14.81
15.77
16.65
17.50
18.41
19.42
20.49
21.50
22.23
22.46
21.97
20.72
18.72
16.11
12.99
9.45
5.42
0.83
-4.39
-10.17
-16.21
-22.00
-26.96
-30.64
-32.95
-34.19
-34.99
-36.02
-37.69
-39.84
-41.83
-42.71
-41.72
-38.67
-34.10
-29.14
-24.98
-22.34
-21.06
-20.22
-18.61
-15.46
-10.87
-5.92
-2.14
-0.86
-2.68
-7.35
-14.13
-22.08
-29.97
-36.05
-37.89
-33.01
-20.27
-1.02
20.42
37.98
46.29
43.45
32.38
19.87
13.58
18.58
35.50
61.00
90.12
118.84
145.47
169.80
191.13
206.65
211.70
202.17
177.60
142.42
104.49
71.52
47.47
30.88
17.00
-0.09
-24.79
-57.92
-96.90
-138.00
-179.07
-220.82
-265.93
-316.40
-371.27
-425.59
-471.83
-503.05
-515.87
-511.62
-495.17
-472.17
-446.22
-418.02
-386.23
-349.51
-308.50
-266.21
-226.67
-192.89
-165.29
-141.65
-118.49
-92.81
-63.36
-31.01
1.76
32.31
59.02
82.04
103.21
125.10
150.01
179.31
213.33
251.40
291.85
331.84
367.35
393.92
408.23
409.92
402.46
392.21
385.74
386.80
394.58
404.39
410.28
407.95
396.44
377.59
354.19
327.99
299.15
266.98
231.38
193.73
156.70
123.20
95.06
72.29
53.31
35.71
17.34
-2.95
-24.83
-46.60
-65.65
-79.16
-85.03
-82.41
-71.92
-55.35
-34.97
-12.78
10.00
33.03
56.58
81.18
107.12
134.04
160.59
184.24
201.58
209.09
204.29
186.93
159.50
126.74
94.05
65.69
43.33
25.91
10.63
-5.29
-23.05
-41.88
-59.59
-73.96
-83.86
-89.59
-92.50
-94.04
-95.21
-96.30
-97.34
-98.61
-100.92
-105.51
-113.54
-125.61
-141.43
-159.89
-179.40
-198.43
-216.00
-232.02
-247.26
-262.69
-278.54
-293.52
-304.87
-309.07
-302.93
-284.39
-252.75
-208.82
-154.87
-95.00
-35.24
16.98
54.25
71.12
65.82
41.21
3.85
-37.61
-74.52
-99.81
-108.78
-98.93
-69.68
-22.26
40.01
111.11
182.19
242.56
281.80
292.71
273.55
228.72
167.37
100.65
38.57
-11.98
-47.74
-68.39
-75.00
-68.78
-50.48
-20.82
18.45
63.33
107.47
143.13
163.52
165.28
149.42
120.33
83.29
42.29
-0.68
-44.49
-87.32
-126.15
-157.79
-180.62
-195.52
-204.98
-210.86
-212.22
-205.02
-183.84
-144.98
-89.19
-22.49
45.41
104.31
146.81
170.24
176.50
170.40
157.16
140.89
123.73
106.42
89.24
72.51
56.47
41.08
26.24
12.32
0.47
-7.92
-12.61
-15.64
-20.85
-31.64
-48.35
-66.68
-78.68
-75.87
-53.07
-10.77
44.92
104.61
158.82
200.25
224.71
230.54
217.88
188.29
144.88
92.37
36.59
-16.34
-61.45
-96.18
-121.09
-139.58
-156.57
-176.82
-203.34
-236.64
-274.92
-314.68
-351.53
-380.93
-398.95
-403.06
-392.87
-370.21
-338.40
-300.69
-258.68
-211.71
-157.63
-94.88
-24.46
49.14
118.93
177.84
221.18
248.19
261.64
266.12
265.82
262.86
257.03
246.59
229.79
206.31
177.92
148.29
122.14
104.17
98.06
105.56
125.77
154.93
186.96
214.71
231.94
235.04
223.94
201.57
172.32
140.15
107.47
75.13
43.21
12.04
-17.40
-43.81
-66.34
-85.16
-101.55
-117.62
-135.77
-158.17
-185.86
-218.18
-252.54
-284.80
-310.28
-325.11
-327.14
-316.12
-293.26
-260.50
-220.14
-174.92
-128.25
-84.14
-46.43
-17.65
1.94
14.45
23.41
32.13
42.44
54.22
66.03
76.13
83.35
87.49
88.79
87.40
83.26
76.85
70.43
68.52
76.89
100.02
138.13
185.53
231.71
264.76
275.70
261.45
224.83
172.42
111.58
48.63
-11.23
-63.07
-101.89
-123.70
-127.43
-116.38
-97.58
-79.36
-68.05
-65.85
-70.88
-79.24
-87.71
-95.48
-103.94
-114.92
-128.62
-142.60
-152.50
-154.37
-147.32
-134.82
-123.21
-118.22
-121.50
-129.41
-135.21
-133.28
-122.68
-107.70
-94.83
-88.32
-86.98
-84.45
-72.59
-45.75
-3.44
49.91
107.33
161.91
208.21
242.34
261.49
264.07
250.37
222.96
186.58
146.92
108.74
74.28
42.72
11.35
-22.28
-58.00
-91.92
-117.45
-128.25
-121.07
-97.46
-63.00
-24.55
12.96
48.01
81.71
114.93
145.51
168.06
176.37
166.72
140.12
102.06
59.83
19.37
-16.75
-49.69
-81.72
-113.58
-143.28
-166.81
-179.89
-180.18
-167.71
-144.66
-115.76
-85.82
-58.33
-35.68
-20.36
-14.91
-21.38
-38.69
-61.91
-86.32
-106.96
-119.56
-121.90
-114.50
-98.42
-74.88
-42.94
-1.50
43.44
82.49
107.33
113.95
103.04
80.02
50.43
20.19
-7.14
-37.31
-78.19
-133.79
-201.81
-276.01
-347.22
-408.67
-454.02
-446.53
-369.48
-240.50
-101.11
15.14
89.40
139.38
179.44
215.67
246.72
262.19
252.63
218.56
171.75
128.51
103.64
102.09
122.21
158.03
198.26
233.99
262.21
284.11
299.83
306.89
298.68
270.56
222.59
157.11
80.45
2.89
-63.90
-110.62
-132.33
-131.08
-113.16
-87.09
-62.66
-47.03
-42.52
-46.97
-56.11
-65.41
-71.96
-73.79
-69.91
-61.22
-50.45
-41.68
-39.26
-46.18
-62.47
-84.87
-107.71
-125.20
-133.95
-134.17
-129.00
-122.77
-119.08
-119.71
-124.62
-132.67
-142.38
-152.33
-161.23
-167.97
-171.88
-173.03
-172.12
-170.02
-166.87
-161.57
-151.98
-135.94
-112.53
-82.69
-49.21
-15.36
16.19
44.12
68.32
89.26
107.41
122.96
135.99
146.57
155.03
161.75
166.98
170.77
173.01
173.61
172.75
170.94
168.95
167.70
167.99
170.30
174.48
179.74
184.85
188.55
190.17
189.94
189.03
188.86
190.27
193.01
195.41
195.02
189.35
176.81
157.09
131.29
101.52
70.44
40.88
15.37
-4.03
-16.46
-22.44
-23.85
-23.37
-23.74
-26.96
-33.73
-43.37
-53.68
-62.03
-65.99
-64.01
-55.62
-41.47
-22.90
-1.33
22.30
48.43
77.73
110.58
146.80
185.70
225.91
265.19
300.27
327.02
342.26
343.39
329.44
301.65
263.54
219.76
174.45
130.36
88.65
50.70
16.95
-12.76
-39.08
-62.56
-83.78
-103.37
-121.73
-145.80
-175.47
-205.25
-228.11
-240.55
-243.47
-240.35
-235.86
-233.72
-236.91
-246.56
-263.84
-288.42
-318.85
-351.80
-382.61
-406.70
-420.86
-424.10
-416.54
-400.21
-378.13
-353.56
-328.86
-305.24
-282.95
-261.39
-239.47
-215.31
-187.64
-156.14
-121.63
-85.40
-48.78
-12.88
21.70
54.90
87.46
120.35
154.48
190.25
227.24
263.82
297.23
324.17
341.84
349.18
347.11
338.15
325.25
310.61
294.99
277.88
258.40
236.20
211.95
187.04
162.88
140.21
118.89
98.23
77.45
56.02
33.84
11.02
-12.20
-35.51
-58.37
-79.98
-99.35
-115.62
-128.31
-137.55
-143.90
-147.99
-150.39
-151.28
-150.60
-148.18
-143.87
-137.48
-128.56
-116.48
-100.57
-80.70
-57.67
-33.32
-10.12
9.77
25.20
36.43
44.74
51.64
58.00
63.75
68.10
70.33
70.36
68.95
67.34
66.50
66.64
67.07
66.67
64.42
59.99
53.90
47.21
40.94
35.65
31.30
27.37
23.27
18.69
13.69
8.55
3.42
-1.76
-7.35
-13.61
-20.50
-27.48
-33.64
-38.18
-40.76
-41.78
-42.22
-43.24
-45.58
-49.27
-53.58
-57.25
-58.96
-57.70
-53.00
-44.87
-33.74
-20.18
-4.86
11.50
28.05
43.73
57.40
67.95
74.60
77.14
75.96
72.03
66.52
60.55
54.89
50.00
46.00
42.79
40.18
37.89
35.55
32.77
29.25
24.90
19.91
14.80
10.16
6.57
4.21
2.92
2.23
1.67
1.02
0.45
0.36
1.12
2.77
4.78
6.35
6.56
4.79
0.82
-5.21
-12.98
-22.23
-32.74
-44.32
-56.48
-68.23
-78.06
-84.27
-85.43
-80.89
-71.15
-57.72
-42.72
-28.19
-15.46
-4.85
4.21
12.73
21.54
30.85
40.12
48.33
54.49
58.12
59.43
59.19
58.35
57.63
57.26
57.14
57.08
57.02
57.07
57.31
57.55
57.26
55.70
52.26
46.80
39.74
31.95
24.36
17.62
11.73
6.11
-0.20
-8.10
-17.94
-29.31
-41.09
-51.81
-60.28
-66.03
-69.50
-71.81
-74.24
-77.54
-81.52
-85.08
-86.56
-84.50
-78.18
-67.94
-54.95
-40.75
-26.64
-13.30
-0.87
10.87
21.99
32.27
41.27
48.56
54.04
57.93
60.68
62.58
63.60
63.37
61.39
57.42
51.71
45.02
38.43
32.95
29.17
27.19
26.54
26.52
26.38
25.56
23.71
20.74
16.78
12.09
7.03
1.92
-3.08
-7.94
-12.75
-17.63
-22.55
-27.29
-31.58
-35.11
-37.84
-40.05
-42.38
-45.60
-50.32
-56.63
-63.87
-70.66
-75.22
-75.87
-71.68
-62.67
-49.77
-34.46
-18.14
-1.80
14.00
28.95
42.60
54.31
63.48
69.86
73.84
76.35
78.35
80.26
81.64
81.32
77.98
70.82
59.99
46.66
32.64
19.89
9.90
3.48
0.51
0.10
0.89
1.39
0.56
-1.96
-5.73
-9.80
-13.13
-15.08
-15.61
-15.25
-14.86
-15.18
-16.57
-18.92
-21.74
-24.42
-26.57
-28.28
-30.14
-33.10
-38.07
-45.40
-54.56
-64.08
-71.81
-75.61
-74.09
-67.01
-55.42
-41.14
-26.16
-12.01
0.61
11.79
22.22
32.71
43.94
56.14
69.06
81.99
94.08
104.57
113.10
119.80
125.17
129.94
134.84
140.52
147.50
156.06
166.17
177.38
188.90
199.84
209.81
219.29
229.86
243.54
261.62
283.29
304.97
321.04
325.57
314.83
288.74
251.00
207.52
163.86
123.25
85.95
50.24
14.08
-23.25
-61.02
-97.92
-133.24
-167.36
-200.91
-233.37
-262.37
-284.26
-296.04
-297.37
-290.99
-281.07
-270.36
-258.03
-239.84
-210.81
-168.77
-116.49
-60.92
-9.99
30.76
59.81
78.50
88.13
87.70
73.90
43.82
-1.60
-55.57
-106.77
-143.71
-159.88
-157.00
-144.40
-134.92
-139.66
-164.05
-207.17
-263.67
-326.92
-391.17
-451.95
-505.22
-546.60
-571.60
-577.02
-562.50
-531.17
-488.76
-441.89
-396.04
-354.34
-317.47
-284.47
-253.78
-224.18
-195.20
-167.03
-140.14
-114.84
-91.03
-68.38
-46.58
-25.46
-5.11
14.41
33.27
51.92
71.20
92.08
115.65
142.91
174.39
209.60
246.43
280.98
308.32
323.92
325.26
312.89
290.10
261.67
232.07
204.33
179.92
159.54
143.90
133.92
130.21
132.05
137.07
141.65
142.25
136.71
125.00
109.10
91.86
75.85
62.37
51.17
41.02
30.56
19.14
7.04
-4.82
-15.59
-25.12
-34.08
-43.51
-54.11
-65.71
-77.32
-87.66
-95.85
-101.78
-105.97
-109.11
-111.49
-112.81
-112.31
-109.14
-102.82
-93.45
-81.83
-69.38
-57.87
-49.04
-43.98
-42.62
-43.39
-43.51
-39.72
-29.53
-12.30
10.30
34.59
55.95
70.17
74.63
68.95
55.22
37.60
21.56
12.56
14.28
27.10
47.56
69.34
85.58
91.64
86.85
74.45
59.82
48.02
41.93
41.81
46.15
52.95
60.75
68.80
76.73
84.15
90.40
94.77
96.86
96.80
95.24
93.06
90.86
88.68
85.98
82.11
76.99
71.46
67.27
66.42
70.20
78.51
89.78
101.61
111.72
118.72
122.34
123.09
121.76
119.00
115.37
111.46
108.09
105.88
104.84
103.85
100.81
93.25
79.26
58.26
31.11
-0.29
-33.60
-66.38
-96.08
-120.03
-135.73
-141.52
-137.36
-125.18
-108.43
-91.01
-76.04
-65.13
-58.24
-54.22
-51.53
-48.72
-44.71
-38.74
-30.36
-19.28
-5.37
11.42
31.05
53.19
76.96
100.72
122.22
139.07
149.42
152.57
149.11
140.60
128.99
116.09
103.32
91.65
81.80
74.16
68.73
64.94
61.70
57.73
52.01
44.26
35.00
25.40
16.72
9.79
4.73
0.97
-2.46
-6.37
-11.14
-16.52
-21.81
-26.29
-29.56
-31.75
-33.49
-35.52
-38.32
-41.94
-45.93
-49.60
-52.35
-53.90
-54.41
-54.33
-54.22
-54.50
-55.39
-56.84
-58.62
-60.41
-61.87
-62.85
-63.38
-63.76
-64.42
-65.81
-68.12
-71.05
-73.89
-75.47
-74.60
-70.36
-62.43
-51.19
-37.62
-22.98
-8.47
4.96
16.79
26.81
35.07
41.74
47.08
51.40
54.98
57.98
60.42
62.13
62.90
62.56
61.04
58.36
54.66
50.08
44.87
39.29
33.66
28.30
23.48
19.37
15.99
13.20
10.64
7.89
4.55
0.42
-4.38
-9.39
-13.99
-17.64
-20.14
-21.74
-22.99
-24.55
-26.86
-30.04
-33.86
-37.98
-42.05
-45.93
-49.61
-53.09
-56.35
-59.24
-61.60
-63.29
-64.17
-64.07
-62.70
-59.70
-54.76
-47.74
-38.85
-28.54
-17.44
-6.17
4.73
14.91
24.12
32.23
39.17
44.95
49.56
52.92
54.88
55.34
54.30
51.96
48.74
45.17
41.70
38.64
36.09
33.90
31.81
29.51
26.76
23.48
19.81
16.04
12.49
9.38
6.71
4.29
1.81
-1.00
-4.25
-7.92
-11.82
-15.73
-19.43
-22.71
-25.51
-27.85
-29.94
-32.12
-34.72
-38.01
-42.03
-46.66
-51.61
-56.55
-61.13
-64.98
-67.64
-68.57
-67.23
-63.25
-56.59
-47.68
-37.31
-26.42
-15.83
-6.04
2.84
10.92
18.39
25.33
31.62
36.98
41.16
43.97
45.40
45.66
45.06
43.98
42.66
41.20
39.54
37.56
35.19
32.56
29.96
27.64
25.77
24.27
22.89
21.39
19.70
17.91
16.19
14.62
13.01
11.05
8.38
4.91
0.86
-3.28
-7.06
-10.24
-12.90
-15.39
-18.03
-21.00
-24.28
-27.73
-31.29
-35.06
-39.24
-43.82
-48.47
-52.41
-54.63
-54.27
-50.87
-44.69
-36.51
-27.40
-18.29
-9.78
-2.10
4.84
11.13
16.83
21.91
26.31
30.06
33.22
35.83
37.88
39.25
39.83
39.64
38.82
37.64
36.33
35.00
33.60
32.01
30.15
28.05
25.88
23.71
21.51
19.08
16.20
12.80
9.05
5.31
1.97
-0.70
-2.75
-4.47
-6.30
-8.62
-11.64
-15.33
-19.47
-23.73
-27.76
-31.32
-34.26
-36.65
-38.83
-41.26
-44.49
-48.87
-54.26
-59.97
-64.69
-66.93
-65.49
-59.94
-50.89
-39.81
-28.54
-18.66
-11.12
-6.01
-2.79
-0.65
1.16
3.10
5.22
7.33
9.06
10.08
10.18
9.38
7.94
6.19
4.50
3.05
1.85
0.93
0.40
0.59
1.84
4.33
7.82
11.69
15.14
17.51
18.64
18.82
18.52
18.10
17.52
16.47
14.62
12.04
9.25
7.12
6.48
7.90
11.51
17.03
23.82
31.01
37.36
41.32
41.21
35.61
23.92
6.60
-14.66
-37.29
-58.40
-75.34
-86.24
-90.31
-87.88
-80.15
-68.71
-55.07
-40.32
-25.20
-10.34
3.30
14.44
21.80
24.77
23.90
20.90
17.93
16.61
17.34
19.37
21.37
22.41
22.46
22.21
22.60
24.04
26.23
28.35
29.55
29.46
28.30
26.62
24.96
23.59
22.42
21.16
19.56
17.45
14.86
11.89
8.70
5.40
2.10
-1.23
-4.61
-8.07
-11.58
-15.03
-18.23
-21.02
-23.34
-25.39
-27.55
-30.23
-33.61
-37.51
-41.31
-44.08
-44.90
-43.05
-38.28
-30.86
-21.54
-11.37
-1.47
7.27
14.35
19.77
23.88
27.21
30.15
32.85
35.12
36.64
37.07
36.24
34.19
31.22
27.78
24.38
21.51
19.48
18.34
17.90
17.81
17.69
17.27
16.42
15.13
13.44
11.44
9.24
7.05
5.09
3.56
2.47
1.58
0.49
-1.24
-3.89
-7.46
-11.70
-16.18
-20.44
-24.08
-26.92
-28.95
-30.43
-31.82
-33.58
-36.03
-39.08
-42.22
-44.58
-45.21
-43.33
-38.61
-31.18
-21.58
-10.62
0.79
11.75
21.53
29.67
36.03
40.74
44.08
46.37
47.79
48.40
48.17
47.07
45.14
42.46
39.21
35.59
31.90
28.47
25.65
23.65
22.49
21.88
21.27
20.02
17.56
13.67
8.51
2.60
-3.35
-8.70
-13.01
-16.17
-18.28
-19.57
-20.27
-20.63
-20.87
-21.24
-21.99
-23.33
-25.29
-27.75
-30.46
-33.13
-35.66
-38.11
-40.76
-43.87
-47.52
-51.37
-54.64
-56.31
-55.39
-51.36
-44.32
-35.03
-24.58
-14.06
-4.30
4.29
11.64
17.86
23.17
27.78
31.87
35.44
38.36
40.30
40.89
39.95
37.66
34.59
31.53
29.22
28.01
27.83
28.22
28.60
28.42
27.31
25.10
21.82
17.70
13.08
8.43
4.25
0.96
-1.23
-2.29
-2.44
-2.08
-1.67
-1.65
-2.36
-3.92
-6.30
-9.22
-12.30
-15.08
-17.20
-18.43
-18.83
-18.72
-18.67
-19.40
-21.50
-25.18
-30.16
-35.60
-40.36
-43.33
-43.78
-41.52
-36.87
-30.52
-23.27
-15.83
-8.73
-2.31
3.24
7.97
12.00
15.55
18.72
21.32
22.95
23.05
21.25
17.55
12.54
7.17
2.53
-0.56
-1.78
-1.39
-0.07
1.31
2.01
1.58
-0.04
-2.52
-5.27
-7.50
-8.37
-7.18
-3.65
1.87
8.22
13.65
16.32
15.04
9.72
1.53
-7.62
-15.81
-21.78
-25.26
-26.77
-27.14
-27.03
-26.76
-26.40
-26.01
-25.82
-26.17
-27.32
-29.25
-31.50
-33.24
-33.52
-31.50
-26.84
-19.87
-11.48
-2.90
4.84
11.26
16.57
21.43
26.54
32.20
38.21
43.97
48.83
52.32
54.33
54.92
54.29
52.64
50.25
47.52
44.93
42.90
41.59
40.89
40.44
39.90
39.01
37.64
35.74
33.24
30.09
26.47
22.81
19.82
18.23
18.42
20.04
22.05
23.05
21.79
17.71
11.18
3.19
-5.15
-13.17
-20.84
-28.63
-36.97
-45.78
-54.28
-61.32
-65.82
-67.35
-66.20
-63.23
-59.40
-55.53
-52.11
-49.33
-47.16
-45.28
-43.07
-39.67
-34.35
-26.95
-18.29
-10.11
-4.60
-3.65
-7.95
-16.66
-27.46
-37.19
-42.81
-42.28
-35.21
-22.99
-8.30
5.68
16.31
22.12
23.32
21.44
18.77
17.56
19.32
24.48
32.40
41.70
50.74
58.14
62.99
65.08
64.78
62.81
59.96
56.93
54.20
52.09
50.80
50.27
50.17
49.76
47.98
43.69
36.01
24.63
9.87
-7.46
-26.35
-45.82
-64.98
-83.03
-99.14
-112.58
-122.91
-130.05
-134.33
-136.20
-135.96
-133.43
-128.04
-118.90
-105.33
-87.21
-65.17
-40.59
-15.25
9.02
30.59
48.20
61.03
68.73
71.47
70.07
65.93
60.81
56.26
53.31
52.10
52.19
52.88
53.59
54.06
54.11
53.52
51.95
49.07
44.87
39.82
34.67
30.10
26.34
23.02
19.39
14.79
9.00
2.36
-4.48
-10.97
-16.95
-22.63
-28.41
-34.50
-40.70
-46.47
-51.13
-54.20
-55.65
-55.85
-55.32
-54.54
-53.59
-52.16
-49.61
-45.32
-38.96
-30.68
-21.16
-11.34
-2.15
5.88
12.58
18.17
22.90
26.88
29.99
31.97
32.65
32.19
31.13
30.29
30.50
32.36
35.86
40.33
44.36
46.22
44.29
37.70
26.75
12.90
-1.53
-14.07
-22.64
-26.01
-23.80
-16.36
-4.65
9.86
25.22
39.17
49.45
54.34
53.12
46.22
35.09
21.78
8.49
-2.78
-10.36
-13.08
-10.41
-3.07
6.49
14.02
14.39
3.49
-19.80
-52.42
-87.77
-117.98
-136.82
-141.74
-134.15
-118.05
-97.78
-76.58
-56.06
-36.96
-19.87
-5.68
4.88
11.71
15.66
18.10
20.26
22.70
25.20
27.13
28.13
28.51
29.25
31.57
36.38
43.72
52.63
61.44
68.35
72.07
72.20
69.23
64.22
58.36
52.63
47.64
43.67
40.71
38.52
36.61
34.31
31.02
26.43
20.77
14.77
9.40
5.42
3.09
1.96
1.03
-0.89
-4.84
-11.38
-20.42
-31.38
-43.38
-55.51
-67.16
-78.02
-88.04
-97.17
-105.16
-111.42
-115.04
-114.89
-109.86
-98.99
-81.90
-59.05
-32.01
-3.31
23.98
47.06
64.07
74.42
78.75
78.39
74.84
69.40
63.05
56.49
50.22
44.52
39.48
35.06
31.24
28.05
25.56
23.70
22.26
20.81
18.99
16.62
13.81
10.82
7.88
5.02
2.07
-1.10
-4.51
-7.89
-10.90
-13.34
-15.35
-17.35
-19.79
-22.93
-26.65
-30.59
-34.33
-37.68
-40.76
-43.80
-46.82
-49.42
-50.70
-49.61
-45.19
-36.90
-24.75
-9.27
8.64
27.66
46.28
62.97
76.56
86.72
94.02
99.71
105.05
110.68
116.21
120.53
122.41
121.24
117.29
111.58
105.22
98.92
92.85
86.88
81.01
75.64
71.29
68.01
64.75
59.21
48.51
30.36
4.34
-27.71
-62.16
-95.06
-123.57
-146.80
-165.49
-180.92
-193.84
-203.94
-210.12
-211.34
-207.32
-198.71
-186.68
-172.40
-156.62
-139.72
-121.99
-103.97
-86.59
-71.08
-58.57
-49.70
-44.29
-41.28
-39.09
-36.15
-31.50
-25.07
-17.50
-9.67
-2.18
4.98
12.22
20.02
28.55
37.59
46.69
55.51
63.86
71.71
78.93
85.15
89.73
91.93
91.15
87.16
80.20
71.07
60.96
51.24
43.04
36.90
32.58
29.22
25.73
21.25
15.62
9.28
3.09
-2.14
-5.92
-8.14
-8.89
-8.28
-6.40
-3.40
0.29
3.95
6.67
7.66
6.58
3.70
-0.28
-4.49
-8.25
-11.32
-13.93
-16.56
-19.73
-23.70
-28.32
-33.00
-36.80
-38.75
-38.14
-34.78
-29.05
-21.69
-13.54
-5.38
2.03
7.91
11.46
12.15
9.99
5.84
1.38
-1.30
-0.24
5.79
16.93
32.10
49.24
65.69
78.83
86.67
88.29
83.97
75.05
63.33
50.72
38.75
28.48
20.42
14.56
10.44
7.30
4.32
1.02
-2.68
-6.42
-9.72
-12.28
-14.17
-15.79
-17.60
-19.85
-22.43
-24.98
-27.09
-28.52
-29.37
-29.99
-30.85
-32.28
-34.50
-37.50
-41.15
-45.13
-48.94
-51.90
-53.23
-52.30
-48.81
-42.85
-34.93
-25.70
-15.77
-5.57
4.59
14.40
23.38
30.98
36.78
40.71
43.22
45.09
47.00
49.09
50.65
50.24
46.24
37.64
24.69
9.15
-5.97
-17.12
-21.20
-16.50
-3.31
16.00
37.56
56.97
70.51
76.02
73.33
64.01
50.77
36.71
24.59
16.28
12.52
12.79
15.53
18.59
19.73
17.28
10.50
-0.34
-14.03
-28.73
-42.23
-52.40
-57.60
-57.21
-52.03
-44.41
-37.63
-34.81
-37.47
-44.76
-53.49
-59.36
-58.86
-50.75
-36.63
-20.07
-4.97
6.14
12.73
15.90
17.17
17.44
16.56
13.71
8.20
0.12
-9.39
-18.52
-25.23
-27.88
-25.67
-18.81
-8.43
3.72
15.66
25.67
32.67
36.27
36.78
34.84
31.25
26.71
21.76
16.70
11.61
6.48
1.28
-3.79
-8.33
-11.79
-13.74
-13.97
-12.62
-10.07
-6.75
-3.13
0.35
3.23
4.98
5.02
2.90
-1.55
-8.15
-16.35
-25.24
-33.74
-40.73
-45.26
-46.78
-45.24
-40.91
-34.32
-25.92
-16.12
-5.26
6.16
17.43
27.74
36.42
43.15
48.02
51.39
53.57
54.63
54.37
52.45
48.71
43.42
37.34
31.59
27.35
25.46
26.07
28.53
31.47
33.17
32.00
26.82
17.33
4.29
-10.46
-24.15
-33.56
-35.79
-29.18
-14.03
7.29
30.92
52.69
69.28
78.86
81.11
76.70
66.66
52.20
34.84
16.54
-0.44
-14.24
-24.25
-31.49
-38.34
-47.35
-59.95
-75.58
-91.85
-105.62
-114.40
-117.43
-115.84
-111.87
-107.75
-104.63
-102.32
-99.69
-95.44
-88.76
-79.56
-68.20
-55.09
-40.45
-24.37
-7.20
10.14
26.20
39.40
48.60
53.69
55.47
55.27
54.16
52.50
49.84
45.42
38.81
30.43
21.55
13.76
8.35
5.81
5.82
7.59
10.31
13.42
16.51
19.15
20.68
20.38
17.80
13.10
7.11
1.13
-3.63
-6.50
-7.54
-7.48
-7.27
-7.74
-9.35
-12.13
-15.81
-19.96
-24.13
-27.96
-31.08
-33.09
-33.41
-31.41
-26.54
-18.69
-8.42
3.00
14.02
23.31
30.24
35.04
38.46
41.30
43.82
45.67
46.07
44.34
40.31
34.39
27.41
20.26
13.66
7.98
3.39
-0.05
-2.33
-3.57
-4.05
-4.27
-4.76
-5.90
-7.72
-9.89
-11.87
-13.18
-13.56
-13.07
-11.97
-10.54
-9.00
-7.49
-6.04
-4.67
-3.34
-1.93
-0.23
2.01
4.85
8.11
11.21
13.32
13.68
11.87
8.09
3.03
-2.26
-6.78
-9.74
-10.74
-9.63
-6.42
-1.25
5.58
13.54
21.94
29.99
37.11
43.09
48.13
52.60
56.69
60.05
61.68
60.32
54.84
44.88
31.06
14.90
-1.57
-16.37
-28.00
-35.68
-39.42
-39.97
-38.64
-36.87
-35.87
-36.13
-37.38
-38.76
-39.29
-38.33
-35.85
-32.31
-28.41
-24.86
-22.22
-20.91
-21.20
-23.13
-26.26
-29.64
-31.94
-31.80
-28.48
-22.12
-13.84
-5.38
1.44
5.32
5.77
3.22
-1.32
-6.65
-11.78
-16.17
-19.76
-22.83
-25.68
-28.37
-30.54
-31.38
-29.93
-25.36
-17.35
-6.29
6.82
20.61
33.72
45.08
54.10
60.57
64.50
65.92
64.76
60.91
54.32
45.22
34.24
22.49
11.32
1.98
-4.68
-8.43
-9.53
-8.57
-6.28
-3.52
-1.34
-0.98
-3.71
-10.35
-20.81
-33.90
-47.53
-59.26
-66.96
-69.31
-65.92
-57.21
-44.15
-28.13
-10.90
5.62
19.56
29.46
34.68
35.50
32.97
28.57
23.63
19.08
15.20
11.74
8.20
4.07
-0.94
-6.77
-13.06
-19.23
-24.55
-28.19
-29.39
-27.57
-22.58
-14.84
-5.39
4.38
13.06
19.69
23.98
26.35
27.68
28.95
30.85
33.62
37.12
40.98
44.89
48.71
52.40
55.83
58.47
59.38
57.40
51.73
42.39
30.30
17.03
4.10
-7.62
-18.17
-28.19
-38.41
-48.97
-59.19
-67.74
-73.04
-73.83
-69.44
-59.91
-45.95
-28.91
-10.62
6.75
21.12
30.84
35.17
34.44
29.83
22.93
15.16
7.43
0.08
-6.85
-13.29
-18.92
-23.25
-25.87
-26.63
-25.87
-24.25
-22.48
-21.07
-20.09
-19.06
-17.07
-13.13
-6.64
2.23
12.46
22.53
31.03
37.25
41.30
43.76
45.20
45.68
44.76
41.95
37.20
31.13
24.86
19.37
14.94
11.03
6.51
0.36
-7.88
-17.74
-27.95
-36.76
-42.50
-44.11
-41.43
-35.30
-27.21
-18.84
-11.47
-5.90
-2.41
-1.08
-1.87
-4.52
-8.37
-12.27
-14.92
-15.37
-13.61
-10.47
-7.24
-4.94
-3.88
-3.76
-4.07
-4.60
-5.53
-7.22
-9.78
-12.80
-15.53
-17.15
-17.09
-15.14
-11.39
-6.19
-0.12
5.97
11.03
14.07
14.56
12.65
9.09
4.87
0.76
-3.00
-6.65
-10.57
-14.87
-19.12
-22.42
-23.72
-22.20
-17.58
-10.12
-0.45
10.59
22.10
33.17
42.90
50.43
55.20
57.02
56.19
53.36
49.30
44.68
39.93
35.35
31.17
27.65
24.93
22.88
21.02
18.54
14.58
8.59
0.62
-8.71
-18.38
-27.41
-35.11
-41.30
-46.19
-50.18
-53.52
-56.22
-58.03
-58.60
-57.76
-55.66
-52.74
-49.50
-46.22
-42.72
-38.48
-32.92
-25.84
-17.68
-9.40
-2.13
3.43
7.30
10.21
13.26
17.35
22.78
29.01
34.91
39.11
40.54
38.78
34.18
27.76
20.92
15.00
10.87
8.79
8.44
9.15
10.24
11.22
11.79
11.73
10.84
8.94
6.03
2.49
-0.94
-3.31
-3.91
-2.50
0.46
3.99
6.90
8.28
7.73
5.43
1.98
-1.84
-5.36
-8.13
-10.07
-11.34
-12.30
-13.43
-15.19
-17.83
-21.36
-25.39
-29.27
-32.21
-33.50
-32.76
-30.00
-25.53
-19.77
-13.07
-5.68
2.23
10.38
18.37
25.64
31.59
35.71
37.76
37.82
36.30
33.76
30.76
27.65
24.53
21.27
17.76
14.01
10.28
6.99
4.55
3.20
2.85
3.17
3.80
4.42
4.98
5.50
6.10
6.77
7.37
7.66
7.43
6.74
6.00
5.89
7.16
10.28
15.28
21.80
29.22
36.89
44.22
50.71
55.82
59.06
60.07
58.69
55.02
49.16
41.08
30.55
17.49
2.46
-12.97
-26.40
-35.25
-37.73
-33.50
-23.90
-11.53
0.42
9.05
12.34
9.64
1.72
-9.34
-20.82
-30.09
-35.46
-36.63
-34.58
-30.97
-27.22
-23.94
-20.79
-16.91
-11.69
-5.11
2.17
9.25
15.44
20.41
24.06
26.08
25.85
22.61
15.94
6.16
-5.59
-17.79
-29.08
-38.62
-46.05
-51.30
-54.41
-55.54
-55.25
-54.42
-54.01
-54.53
-55.72
-56.64
-56.21
-53.81
-49.65
-44.55
-39.47
-35.02
-31.31
-28.14
-25.37
-23.04
-21.27
-19.93
-18.49
-16.08
-11.88
-5.59
2.47
11.39
20.21
28.29
35.49
42.09
48.37
54.39
59.86
64.30
67.29
68.64
68.42
66.88
64.32
60.96
56.97
52.47
47.66
42.83
38.42
34.84
32.35
30.93
30.17
29.41
27.92
25.22
21.22
16.17
10.55
4.80
-0.71
-5.73
-10.00
-13.37
-15.86
-17.80
-19.77
-22.42
-26.08
-30.52
-34.98
-38.58
-40.80
-41.93
-43.04
-45.59
-50.71
-58.64
-68.36
-77.81
-84.47
-86.25
-82.30
-73.57
-62.68
-53.11
-48.07
-49.18
-55.73
-64.70
-71.63
-71.99
-62.57
-42.40
-13.00
22.06
58.20
91.11
117.87
137.44
150.44
158.21
161.79
161.48
157.05
148.61
137.26
125.14
114.79
108.04
105.38
105.92
108.02
109.92
110.14
107.46
100.78
89.41
73.35
53.68
32.25
10.94
-9.19
-28.32
-47.42
-67.48
-88.73
-110.40
-131.02
-149.13
-163.70
-174.39
-181.41
-185.34
-186.98
-187.17
-186.64
-185.69
-184.05
-180.90
-175.08
-165.47
-151.22
-131.82
-107.32
-78.44
-46.82
-14.99
14.11
37.94
55.17
66.06
72.18
75.52
77.53
78.57
78.13
75.41
70.04
62.35
53.28
43.80
34.63
26.06
18.22
11.36
5.88
2.10
0.03
-0.77
-0.84
-0.44
0.63
2.86
6.49
11.11
15.73
19.36
21.59
22.78
23.65
24.52
24.86
23.44
19.03
11.26
0.96
-10.17
-20.34
-28.36
-33.98
-37.65
-40.06
-41.77
-43.12
-44.25
-45.32
-46.42
-47.56
-48.41
-48.28
-46.23
-41.39
-33.27
-22.16
-9.11
4.33
16.57
26.53
33.93
39.25
43.33
46.95
50.45
53.77
56.57
58.55
59.54
59.46
58.16
55.44
51.27
45.95
40.18
34.81
30.21
25.89
20.43
12.16
0.08
-15.30
-31.81
-46.11
-54.75
-55.30
-46.96
-30.80
-9.41
13.66
34.81
50.97
60.33
62.52
58.56
50.35
40.10
29.72
20.44
12.82
6.90
2.35
-1.43
-5.20
-9.74
-15.63
-22.88
-30.82
-38.08
-43.04
-44.40
-41.57
-34.95
-25.73
-15.61
-6.32
0.72
4.72
5.69
4.38
2.10
0.31
0.17
2.18
6.17
11.46
17.23
22.81
27.70
31.39
33.28
32.73
29.43
23.73
16.79
10.26
5.75
4.19
5.51
8.69
12.20
14.57
14.85
12.76
8.62
3.11
-3.04
-9.14
-14.73
-19.50
-23.25
-25.92
-27.47
-27.92
-27.42
-26.29
-24.89
-23.61
-22.63
-21.93
-21.32
-20.54
-19.46
-18.15
-16.94
-16.26
-16.54
-17.92
-20.18
-22.76
-24.95
-26.26
-26.63
-26.59
-26.97
-28.62
-31.92
-36.60
-41.72
-45.97
-48.15
-47.35
-43.32
-36.28
-26.90
-16.04
-4.66
6.27
15.89
23.47
28.69
31.75
33.42
34.72
36.52
39.01
41.66
43.45
43.44
41.32
37.59
33.23
29.27
26.25
24.15
22.58
21.17
19.78
18.52
17.52
16.81
16.22
15.49
14.39
12.93
11.27
9.69
8.44
7.65
7.23
6.97
6.62
6.04
5.20
4.22
3.31
2.62
2.23
2.08
2.05
1.98
1.77
1.41
0.96
0.54
0.24
0.09
0.08
0.13
0.18
0.18
0.12
0.02
-0.08
-0.15
-0.17
-0.16
-0.12
-0.09
-0.07
-0.07
-0.08
-0.09
-0.11
-0.11
-0.12
-0.12
-0.12
-0.12
-0.12
-0.12
-0.12
-0.12
-0.12
-0.12
-0.12
-0.12
-0.12
-0.12
-0.12
-0.12
-0.12
-0.12
-0.12
-0.12
-0.12
-0.11
-0.11
-0.11
-0.11
-0.11
-0.11
-0.11
-0.11
-0.11
-0.11
-0.11
-0.11
-0.11
-0.11
-0.11
-0.11
-0.11
-0.11
-0.11
-0.11
-0.11
-0.11
-0.11
-0.11
-0.11
-0.11
-0.11
-0.10
-0.10
-0.10
-0.10
-0.10
-0.10
-0.10
-0.10
-0.10
-0.10
-0.10
-0.10
-0.10
-0.10
-0.10
-0.10
-0.10
-0.10
-0.10
-0.10
-0.10
-0.10
-0.10
-0.10
-0.10
-0.10
-0.10
-0.10
-0.10
-0.10
-0.10
-0.10
-0.10
-0.09
-0.09
-0.09
-0.09
-0.09
-0.09
-0.09
-0.09
-0.09
-0.09
-0.09
-0.09
-0.09
-0.09
-0.09
-0.09
-0.09
-0.09
-0.09
-0.09
-0.09
-0.09
-0.09
-0.09
-0.09
-0.09
-0.09
-0.09
-0.09
-0.09
-0.09
-0.09
-0.09
-0.09
-0.08
-0.08
-0.08
-0.08
-0.08
-0.08
-0.08
-0.08
-0.08
-0.08
-0.08
-0.08
-0.08
-0.08
-0.08
-0.08
-0.08
-0.08
-0.08
-0.08
-0.08
-0.08
-0.08
-0.08
-0.08
-0.08
-0.08
-0.08
-0.09
-0.09
-0.08
-0.07
-0.05
-0.04
-0.06
-0.11
-0.19
-0.30
-0.41
-0.49
-0.54
-0.54
-0.51
-0.49
-0.50
-0.56
-0.66
-0.78
-0.88
-0.93
-0.94
-0.92
-0.95
-1.05
-1.26
-1.55
-1.85
-2.07
-2.17
-2.14
-2.08
-2.13
-2.41
-2.96
-3.71
-4.50
-5.11
-5.39
-5.36
-5.22
-5.27
-5.79
-6.90
-8.46
-10.13
-11.46
-12.16
-12.20
-11.90
-11.78
-12.36
-13.90
-16.22
-18.83
-21.09
-22.49
-22.89
-22.57
-22.10
-22.19
-23.49
-26.43
-30.97
-36.35
-41.04
-42.97
-40.17
-31.62
-17.90
-1.34
14.74
27.08
33.65
34.18
30.03
23.39
16.44
10.66
6.82
5.10
5.44
7.63
11.33
15.98
20.83
25.13
28.34
30.30
31.35
32.14
33.38
35.59
38.86
42.83
46.77
49.83
51.38
51.29
50.14
49.14
49.80
53.42
60.59
70.94
83.02
94.57
103.04
106.14
102.41
91.53
74.40
52.80
29.08
5.61
-15.66
-33.34
-46.85
-56.21
-61.98
-65.01
-66.30
-66.69
-66.72
-66.49
-65.57
-63.30
-59.11
-52.91
-45.41
-38.05
-32.57
-30.32
-31.61
-35.51
-40.16
-43.50
-44.05
-41.33
-35.86
-28.83
-21.64
-15.71
-12.33
-12.52
-16.75
-24.71
-35.18
-46.34
-56.30
-63.68
-67.90
-69.04
-67.47
-63.44
-56.96
-47.91
-36.28
-22.37
-6.76
9.78
26.30
41.68
54.66
64.01
68.98
69.56
66.69
61.97
57.01
52.86
49.63
46.57
42.60
36.87
29.23
20.33
11.27
3.28
-2.79
-6.66
-8.63
-9.46
-9.95
-10.76
-12.10
-13.85
-15.62
-17.04
-17.95
-18.51
-19.05
-19.87
-21.07
-22.41
-23.43
-23.65
-22.70
-20.41
-16.80
-11.98
-6.12
0.52
7.54
14.42
20.51
25.27
28.34
29.75
29.86
29.20
28.22
27.11
25.73
23.78
21.01
17.44
13.42
9.51
6.23
3.88
2.50
1.96
2.13
3.03
4.78
7.49
11.04
14.98
18.66
21.39
22.66
22.21
19.94
15.85
10.02
2.78
-5.13
-12.54
-18.17
-21.12
-21.25
-19.29
-16.53
-14.18
-13.01
-13.27
-14.94
-17.98
-22.39
-27.90
-33.69
-38.31
-40.13
-38.09
-32.28
-23.97
-15.12
-7.48
-1.85
2.08
5.41
9.32
14.52
20.92
27.77
33.93
38.28
40.00
38.67
34.34
27.36
18.44
8.57
-0.78
-7.75
-10.17
-6.18
5.03
22.56
43.72
64.66
81.55
91.86
94.93
91.82
84.43
74.59
63.57
52.26
41.58
32.72
26.93
24.92
26.32
29.65
32.81
33.99
32.29
27.92
21.92
15.51
9.59
4.46
-0.15
-4.87
-10.47
-17.63
-26.70
-37.50
-49.12
-59.96
-67.99
-71.32
-68.81
-60.58
-48.30
-35.08
-24.78
-21.02
-25.95
-39.43
-58.93
-80.34
-99.38
-113.00
-120.06
-121.13
-117.56
-110.49
-100.41
-87.23
-70.89
-51.72
-30.50
-8.18
14.32
36.02
55.66
71.52
81.86
85.47
82.36
73.81
62.01
49.20
36.97
26.03
16.42
7.93
0.42
-6.11
-11.66
-16.32
-20.24
-23.45
-25.75
-26.80
-26.36
-24.60
-22.32
-20.76
-21.18
-24.25
-29.63
-35.86
-40.91
-42.85
-40.65
-34.40
-25.23
-14.70
-4.29
4.94
12.48
18.20
22.34
25.40
28.00
30.63
33.37
35.72
36.78
35.65
32.00
26.28
19.59
13.15
7.79
3.75
0.81
-1.29
-2.53
-2.63
-1.34
1.31
4.82
8.48
11.57
13.72
14.85
15.11
14.62
13.38
11.33
8.41
4.71
0.47
-4.01
-8.54
-13.16
-18.27
-24.50
-32.42
-42.22
-53.45
-65.00
-75.47
-83.47
-88.09
-88.86
-85.55
-78.05
-66.32
-50.65
-32.02
-12.13
6.88
23.07
35.32
43.57
48.62
51.62
53.50
54.63
54.96
54.28
52.65
50.48
48.43
47.04
46.45
46.22
45.54
43.63
40.14
35.31
29.90
24.77
20.56
17.43
15.21
13.58
12.37
11.59
11.31
11.39
11.41
10.79
9.15
6.48
3.18
-0.17
-3.13
-5.50
-7.24
-8.37
-8.85
-8.71
-8.25
-8.11
-9.12
-11.84
-16.28
-21.78
-27.30
-31.87
-34.94
-36.50
-36.90
-36.54
-35.69
-34.33
-32.26
-29.10
-24.49
-18.26
-10.64
-2.22
6.07
13.25
18.65
22.08
23.91
24.84
25.61
26.61
27.85
28.93
29.30
28.56
26.62
23.69
20.15
16.39
12.63
9.02
5.66
2.73
0.51
-0.79
-1.15
-0.93
-0.72
-1.15
-2.54
-4.78
-7.30
-9.40
-10.59
-10.88
-10.77
-11.03
-12.27
-14.70
-17.98
-21.43
-24.30
-26.17
-26.97
-27.05
-26.91
-27.09
-28.04
-30.03
-33.06
-36.76
-40.36
-42.71
-42.65
-39.42
-33.02
-24.32
-14.63
-5.23
3.18
10.63
17.60
24.58
31.70
38.60
44.59
49.04
51.55
52.12
51.04
48.78
45.85
42.68
39.59
36.74
34.16
31.79
29.57
27.44
25.33
23.12
20.67
17.87
14.71
11.37
8.09
5.17
2.71
0.67
-1.08
-2.68
-4.16
-5.57
-6.98
-8.69
-10.96
-13.98
-17.65
-21.55
-25.19
-28.16
-30.45
-32.27
-34.04
-36.01
-38.19
-40.30
-41.93
-42.65
-42.07
-39.89
-35.86
-29.88
-22.07
-12.85
-2.93
6.87
15.75
23.24
29.19
33.89
37.80
41.34
44.64
47.50
49.48
50.24
49.73
48.25
46.32
44.33
42.42
40.50
38.38
36.03
33.61
31.37
29.44
27.71
25.93
23.87
21.49
19.01
16.77
14.90
13.18
10.99
7.54
2.18
-5.30
-14.54
-24.78
-35.08
-44.60
-52.74
-59.14
-63.62
-66.16
-66.92
-66.39
-65.37
-64.70
-65.06
-66.58
-68.75
-70.54
-70.70
-68.24
-62.67
-54.18
-43.55
-31.90
-20.37
-9.83
-0.73
6.93
13.38
18.92
23.73
27.85
31.20
33.76
35.58
36.78
37.47
37.68
37.35
36.44
34.96
33.00
30.78
28.59
26.77
25.69
25.51
26.18
27.26
28.07
27.86
26.12
22.75
18.13
12.97
8.04
3.94
0.98
-0.85
-1.81
-2.34
-2.92
-4.02
-5.86
-8.46
-11.54
-14.77
-17.92
-21.00
-24.18
-27.60
-31.24
-34.85
-38.15
-40.95
-43.24
-45.09
-46.35
-46.64
-45.34
-41.96
-36.35
-28.88
-20.27
-11.29
-2.54
5.63
13.10
19.83
25.82
31.09
35.63
39.32
41.99
43.35
43.27
41.80
39.28
36.23
33.17
30.41
28.13
26.37
25.16
24.53
24.38
24.39
24.05
22.80
20.37
16.86
12.78
8.76
5.33
2.67
0.63
-1.14
-2.92
-4.81
-6.70
-8.46
-10.10
-11.80
-13.75
-16.00
-18.32
-20.26
-21.36
-21.49
-20.96
-20.46
-20.76
-22.34
-25.17
-28.69
-32.05
-34.28
-34.64
-32.63
-28.15
-21.43
-13.06
-3.84
5.32
13.69
20.87
26.84
31.83
36.12
39.80
42.77
44.83
45.84
45.80
44.93
43.51
41.79
39.96
38.13
36.38
34.78
33.39
32.19
31.15
30.13
28.97
27.49
25.53
23.03
20.02
16.71
13.40
10.41
7.96
6.11
4.72
3.43
1.88
-0.22
-2.88
-5.76
-8.27
-9.86
-10.44
-10.65
-11.87
-15.85
-24.09
-37.21
-54.72
-75.05
-95.96
-114.94
-129.47
-137.21
-136.31
-125.89
-106.51
-80.39
-51.06
-22.48
2.02
20.61
33.12
40.68
44.92
47.31
48.78
49.78
50.42
50.64
50.36
49.45
47.77
45.26
41.92
37.88
33.39
28.74
24.27
20.30
17.11
14.88
13.64
13.18
13.10
12.90
12.21
10.85
8.78
6.02
2.50
-1.77
-6.62
-11.43
-15.30
-17.35
-17.28
-15.70
-13.95
-13.57
-15.53
-19.71
-25.05
-30.04
-33.56
-35.29
-35.69
-35.60
-35.77
-36.57
-37.91
-39.43
-40.72
-41.35
-41.00
-39.40
-36.39
-31.94
-26.14
-19.17
-11.33
-3.01
5.34
13.22
20.17
25.90
30.33
33.59
35.86
37.26
37.81
37.47
36.28
34.46
32.35
30.31
28.60
27.29
26.28
25.42
24.60
23.79
23.02
22.31
21.55
20.56
19.05
16.84
13.91
10.54
7.13
4.17
1.92
0.35
-0.79
-1.90
-3.26
-4.92
-6.73
-8.50
-10.05
-11.32
-12.25
-12.73
-12.59
-11.79
-10.54
-9.33
-8.76
-9.17
-10.47
-12.10
-13.29
-13.43
-12.28
-10.02
-7.00
-3.51
0.36
4.74
9.74
15.41
21.55
27.81
33.69
38.65
42.22
44.16
44.58
43.92
42.80
41.81
41.27
41.25
41.59
42.06
42.34
41.80
39.38
33.62
23.20
7.66
-11.98
-33.14
-52.33
-66.35
-73.31
-73.18
-67.36
-57.90
-46.56
-34.47
-22.24
-10.47
-0.05
7.84
12.20
12.65
9.63
4.27
-2.19
-8.78
-15.01
-20.78
-26.10
-30.89
-35.03
-38.51
-41.52
-44.33
-47.02
-49.30
-50.46
-49.73
-46.62
-41.21
-34.01
-25.73
-16.99
-8.35
-0.37
6.32
11.20
14.20
15.92
17.46
19.92
23.72
28.33
32.55
35.19
35.77
34.76
33.20
32.09
31.78
31.91
31.72
30.56
28.27
25.19
21.93
19.06
16.84
15.17
13.64
11.77
9.23
5.99
2.32
-1.35
-4.67
-7.52
-10.05
-12.56
-15.29
-18.32
-21.62
-25.19
-29.06
-33.27
-37.64
-41.70
-44.86
-46.64
-47.01
-46.51
-45.88
-45.73
-46.12
-46.50
-46.01
-43.87
-39.77
-33.99
-27.19
-20.17
-13.49
-7.41
-1.80
3.68
9.45
15.79
22.71
29.90
36.78
42.72
47.23
50.16
51.67
52.12
51.86
51.12
49.97
48.37
46.26
43.62
40.43
36.65
32.29
27.41
22.25
17.11
12.28
7.98
4.35
1.42
-0.77
-2.28
-3.20
-3.78
-4.34
-5.19
-6.53
-8.39
-10.67
-13.18
-15.73
-18.23
-20.66
-23.04
-25.39
-27.73
-30.04
-32.38
-34.85
-37.63
-40.78
-44.10
-47.00
-48.54
-47.76
-44.07
-37.58
-29.10
-19.91
-11.26
-3.94
1.83
6.31
10.01
13.40
16.76
20.21
23.72
27.16
30.27
32.66
33.83
33.33
30.87
26.58
21.05
15.24
10.25
6.96
5.76
6.40
8.14
10.09
11.46
11.88
11.28
9.88
7.94
5.78
3.76
2.23
1.50
1.69
2.60
3.75
4.46
4.15
2.49
-0.45
-4.24
-8.29
-11.97
-14.88
-16.92
-18.37
-19.77
-21.75
-24.72
-28.69
-33.17
-37.22
-39.61
-39.01
-34.31
-24.92
-11.13
5.83
23.94
40.83
54.34
62.88
65.56
62.04
52.46
37.49
18.53
-2.11
-21.50
-36.64
-45.28
-46.41
-40.37
-28.49
-12.61
5.28
23.27
39.54
52.51
61.10
64.93
64.39
60.41
54.15
46.54
38.22
29.58
21.03
13.10
6.44
1.56
-1.38
-2.68
-3.04
-3.29
-4.14
-5.84
-8.26
-10.94
-13.25
-14.58
-14.46
-12.70
-9.54
-5.70
-2.25
-0.34
-0.74
-3.57
-8.13
-13.21
-17.48
-19.97
-20.33
-18.75
-15.62
-11.18
-5.26
2.46
12.10
23.02
33.66
41.74
44.92
41.54
31.35
15.61
-3.16
-21.95
-38.09
-49.83
-56.66
-59.19
-58.85
-57.38
-56.30
-56.41
-57.46
-58.22
-56.79
-51.33
-40.85
-25.68
-7.58
10.85
26.96
38.82
45.49
47.00
44.06
37.78
29.63
21.34
14.61
10.70
9.96
11.72
14.61
17.14
18.34
17.99
16.38
13.95
10.96
7.41
3.27
-1.39
-6.37
-11.50
-16.79
-22.33
-28.12
-33.84
-38.79
-42.15
-43.28
-42.13
-39.26
-35.74
-32.77
-31.46
-32.52
-36.18
-42.04
-48.82
-54.38
-55.95
-50.85
-37.51
-16.28
10.34
38.25
62.97
81.08
91.08
93.71
91.36
87.02
83.37
82.08
83.56
87.09
91.24
94.29
94.76
91.79
85.30
75.91
64.73
52.94
41.49
31.00
21.72
13.69
6.98
1.63
-2.30
-4.95
-6.66
-8.05
-9.83
-12.80
-17.84
-25.93
-38.08
-55.04
-76.70
-101.65
-126.97
-148.68
-162.82
-166.55
-158.94
-141.09
-115.52
-85.42
-53.97
-24.04
1.87
21.77
34.49
40.03
39.75
36.15
32.18
30.32
31.96
37.12
44.66
52.84
59.84
64.16
64.87
61.73
55.07
45.77
34.97
23.89
13.61
4.86
-1.97
-6.99
-10.62
-13.63
-16.87
-21.03
-26.34
-32.37
-38.16
-42.49
-44.56
-44.38
-42.97
-41.90
-42.56
-45.38
-49.40
-52.58
-52.51
-47.45
-36.89
-21.78
-4.12
13.58
28.91
39.94
45.45
45.14
39.69
30.73
20.45
11.17
4.77
2.28
3.81
8.65
15.50
22.80
29.07
33.19
34.61
33.32
29.70
24.28
17.60
10.17
2.68
-3.88
-8.33
-9.65
-7.37
-1.84
5.88
14.33
22.12
28.25
32.23
34.04
33.91
32.27
29.60
26.47
23.40
20.71
18.38
16.00
12.75
7.73
0.25
-9.80
-21.81
-34.55
-46.40
-55.87
-62.00
-64.62
-64.34
-62.36
-60.07
-58.59
-58.46
-59.45
-60.73
-61.16
-59.72
-55.83
-49.49
-41.19
-31.69
-21.78
-12.09
-3.05
5.05
12.09
17.99
22.76
26.48
29.35
31.70
33.92
36.40
39.33
42.58
45.67
47.93
48.77
47.96
45.70
42.55
39.14
35.85
32.76
29.70
26.52
23.24
20.14
17.61
15.94
15.22
15.24
15.69
16.17
16.37
16.09
15.30
14.11
12.66
10.97
8.80
5.67
1.04
-5.44
-13.81
-23.80
-34.96
-46.79
-58.73
-70.05
-79.78
-86.97
-90.98
-91.86
-90.48
-88.09
-85.69
-83.44
-80.58
-75.84
-68.22
-57.48
-44.37
-30.21
-16.32
-3.53
8.05
18.73
28.92
38.70
47.67
55.03
60.00
62.09
61.42
58.71
55.08
51.73
49.60
49.12
50.18
52.20
54.31
55.53
54.92
51.85
46.09
38.00
28.50
18.87
10.49
4.46
1.35
1.05
2.81
5.51
7.98
9.32
9.07
7.23
4.10
0.12
-4.24
-8.66
-12.96
-17.14
-21.20
-25.14
-28.80
-32.00
-34.62
-36.81
-39.04
-41.92
-45.89
-50.73
-55.48
-58.69
-59.07
-56.13
-50.47
-43.61
-37.18
-32.28
-28.92
-26.21
-22.92
-18.22
-12.21
-5.87
-0.65
2.21
2.20
-0.38
-4.65
-9.45
-13.50
-15.52
-14.18
-8.44
2.07
16.56
33.09
49.11
62.38
71.80
77.64
81.01
82.97
83.78
82.87
79.44
73.33
65.43
57.44
51.00
46.83
44.32
41.96
38.17
32.17
24.36
16.13
9.07
4.22
1.74
0.88
0.51
-0.53
-3.14
-7.95
-15.38
-25.70
-38.79
-54.04
-70.15
-85.17
-96.92
-103.35
-103.15
-96.12
-83.31
-66.88
-49.59
-34.17
-22.58
-15.49
-12.21
-11.03
-9.84
-6.90
-1.32
6.74
16.27
25.85
34.15
40.21
43.66
44.61
43.58
41.40
38.98
37.19
36.60
37.24
38.49
39.25
38.37
35.12
29.57
22.50
15.06
8.16
2.15
-3.07
-7.74
-11.83
-14.95
-16.66
-16.96
-16.52
-16.53
-18.13
-21.88
-27.33
-33.33
-38.48
-41.68
-42.49
-41.07
-37.98
-33.86
-29.38
-25.11
-21.57
-19.16
-17.99
-17.78
-17.75
-16.88
-14.06
-8.52
-0.05
10.79
22.77
34.24
43.52
49.32
51.10
49.18
44.53
38.45
32.08
26.09
20.61
15.37
10.13
4.97
0.38
-2.97
-4.60
-4.44
-2.81
-0.20
3.01
6.69
10.85
15.38
19.75
23.03
24.23
22.66
18.43
12.48
6.31
1.39
-1.43
-2.16
-1.60
-0.80
-0.55
-1.12
-2.30
-3.82
-5.64
-8.00
-11.24
-15.42
-20.18
-24.86
-28.83
-31.77
-33.77
-35.18
-36.33
-37.34
-38.04
-38.13
-37.20
-34.95
-31.24
-26.22
-20.27
-14.02
-8.06
-2.79
1.78
5.92
10.06
14.47
19.06
23.47
27.16
29.67
30.79
30.61
29.45
27.77
26.06
24.79
24.28
24.63
25.66
26.90
27.77
27.79
26.76
24.91
22.69
20.63
18.97
17.61
16.20
14.33
11.83
8.86
5.78
3.05
0.94
-0.53
-1.57
-2.56
-3.87
-5.76
-8.32
-11.45
-14.90
-18.40
-21.79
-25.04
-28.25
-31.56
-35.02
-38.54
-41.83
-44.51
-46.07
-46.02
-43.90
-39.46
-32.81
-24.55
-15.70
-7.44
-0.74
4.01
7.15
9.55
12.20
15.75
20.25
25.17
29.70
33.11
35.05
35.66
35.40
34.78
34.11
33.47
32.68
31.53
29.91
27.90
25.68
23.46
21.35
19.32
17.27
15.15
12.99
10.94
9.23
8.04
7.46
7.51
7.99
8.64
9.15
9.30
8.97
8.25
7.39
6.60
6.00
5.41
4.39
2.29
-1.43
-7.01
-14.22
-22.35
-30.45
-37.49
-42.69
-45.64
-46.27
-44.80
-41.56
-36.95
-31.38
-25.29
-19.13
-13.27
-7.84
-2.75
2.27
7.53
13.03
18.40
22.84
25.54
25.97
24.28
21.18
17.64
14.53
12.25
10.78
9.90
9.46
9.41
9.70
10.09
10.08
9.15
7.12
4.33
1.53
-0.46
-1.26
-1.19
-1.06
-1.80
-3.97
-7.46
-11.58
-15.31
-17.73
-18.37
-17.40
-15.54
-13.93
-13.77
-15.96
-20.73
-27.53
-35.00
-41.34
-44.91
-44.77
-41.08
-35.06
-28.45
-22.82
-18.88
-16.33
-14.10
-10.99
-6.22
0.18
7.53
14.81
21.07
25.84
29.13
31.39
33.15
34.81
36.28
36.98
35.88
31.85
24.15
12.81
-1.11
-15.53
-27.70
-34.80
-34.55
-25.83
-9.13
13.43
38.44
61.98
80.60
92.21
96.60
95.16
90.25
84.19
78.46
73.53
69.08
64.60
59.71
54.22
47.86
40.10
30.17
17.60
2.70
-13.15
-27.82
-39.21
-46.01
-48.19
-46.85
-43.74
-40.67
-39.13
-40.17
-44.32
-51.55
-61.04
-71.12
-79.45
-83.81
-82.80
-76.47
-66.29
-54.46
-43.07
-33.41
-25.95
-20.69
-17.72
-17.33
-19.77
-24.62
-30.43
-34.93
-35.70
-31.13
-21.06
-6.76
9.54
25.46
39.18
49.68
56.74
60.66
61.96
61.25
59.15
56.29
53.27
50.64
48.75
47.61
46.81
45.56
42.90
38.10
31.04
22.44
13.74
6.57
2.15
0.74
1.43
2.54
2.17
-1.01
-7.32
-16.02
-25.64
-34.42
-40.83
-43.92
-43.58
-40.76
-37.43
-36.14
-39.29
-47.98
-61.23
-75.93
-87.65
-92.41
-88.23
-76.00
-58.91
-40.88
-24.63
-10.55
3.03
18.55
37.57
59.74
82.82
103.73
119.78
129.51
132.74
130.09
122.54
111.25
97.84
84.52
73.94
68.49
69.56
77.02
89.21
103.54
117.13
127.37
132.24
130.47
121.72
106.75
87.38
66.16
45.69
27.89
13.55
2.29
-7.13
-16.20
-26.26
-37.96
-51.13
-64.68
-76.81
-85.50
-89.11
-86.97
-79.50
-67.99
-54.01
-39.00
-24.03
-9.91
2.56
12.43
18.75
20.68
17.61
9.23
-4.32
-22.27
-42.86
-63.32
-80.15
-90.09
-91.19
-83.74
-70.30
-54.94
-41.80
-33.66
-31.14
-32.82
-36.09
-38.42
-38.47
-36.45
-33.91
-32.89
-35.13
-41.47
-51.78
-65.17
-80.27
-95.23
-107.74
-115.23
-115.37
-106.97
-90.59
-68.70
-45.18
-24.26
-9.46
-2.92
-5.34
-16.33
-34.90
-59.68
-88.71
-119.23
-147.59
-169.58
-181.48
-181.12
-168.77
-147.33
-121.54
-96.38
-75.58
-60.55
-50.46
-43.07
-35.95
-27.45
-17.02
-5.14
7.24
19.06
29.42
37.63
43.26
46.28
47.06
46.48
45.75
46.24
49.09
54.99
63.90
74.95
86.40
95.79
100.39
97.89
87.28
69.31
46.47
22.37
0.53
-16.57
-28.02
-34.28
-36.50
-35.74
-32.60
-27.43
-20.84
-14.22
-9.61
-9.08
-13.55
-22.02
-31.35
-37.28
-36.14
-26.57
-10.36
8.22
24.29
34.48
38.30
38.08
37.54
39.80
46.00
54.90
63.76
69.79
71.41
68.73
63.33
57.39
52.81
50.67
51.11
53.68
57.73
62.58
67.41
71.08
72.08
68.83
60.51
47.61
32.22
17.44
6.28
0.43
-0.33
2.02
4.77
5.64
3.59
-0.99
-6.72
-11.96
-15.46
-16.74
-16.02
-14.04
-11.75
-10.04
-9.55
-10.55
-12.91
-16.21
-19.96
-23.71
-27.21
-30.31
-32.93
-34.98
-36.45
-37.46
-38.33
-39.39
-40.79
-42.14
-42.56
-40.87
-36.14
-28.21
-18.09
-7.80
0.21
3.82
2.09
-4.42
-13.74
-23.03
-29.33
-30.26
-24.44
-11.71
6.87
29.28
52.81
74.63
92.39
104.77
111.81
114.69
115.13
114.52
113.27
110.63
105.13
95.27
80.22
60.24
36.55
11.04
-14.32
-37.85
-58.40
-75.38
-88.74
-98.64
-105.28
-108.60
-108.25
-103.77
-94.96
-82.21
-66.55
-49.48
-32.47
-16.72
-3.11
7.67
14.90
17.86
16.17
10.16
1.10
-8.89
-17.42
-22.44
-22.88
-18.78
-11.18
-1.73
7.80
15.97
21.85
25.23
26.55
26.75
26.91
27.98
30.42
34.20
38.87
43.79
48.32
51.86
53.87
53.92
51.82
47.92
43.19
39.06
36.83
37.19
39.79
43.39
46.39
47.43
45.79
41.32
34.25
25.02
14.26
2.89
-7.86
-16.68
-22.69
-25.83
-27.00
-27.68
-29.30
-32.62
-37.41
-42.64
-46.98
-49.47
-49.95
-49.15
-48.33
-48.74
-51.00
-54.75
-58.75
-61.31
-61.04
-57.30
-50.35
-41.05
-30.28
-18.66
-6.44
6.18
18.72
30.26
39.78
46.49
50.30
51.76
51.85
51.47
51.12
50.77
50.00
48.31
45.41
41.38
36.71
32.19
28.61
26.58
26.15
26.82
27.70
27.83
26.62
24.04
20.64
17.26
14.66
13.17
12.59
12.29
11.41
9.29
5.56
0.28
-6.06
-12.71
-18.76
-23.47
-26.44
-27.88
-28.75
-30.58
-35.04
-43.31
-55.48
-70.18
-84.81
-96.12
-101.14
-97.96
-86.18
-66.89
-42.28
-15.08
11.90
36.11
55.55
68.91
75.75
76.52
72.50
65.42
57.04
48.84
41.72
36.08
31.88
28.82
26.52
24.65
23.06
21.87
21.49
22.53
25.53
30.82
38.33
47.61
57.79
67.79
76.34
82.28
84.79
83.62
79.13
72.13
63.49
53.84
43.45
32.33
20.50
8.14
-4.38
-16.60
-28.16
-38.81
-48.37
-56.73
-63.85
-69.85
-75.03
-79.72
-84.09
-87.97
-90.89
-92.30
-91.82
-89.47
-85.50
-80.23
-73.71
-65.59
-55.32
-42.51
-27.35
-10.78
5.64
20.22
31.75
39.87
45.18
48.92
52.37
56.31
60.75
65.11
68.55
70.45
70.61
69.20
66.46
62.46
57.12
50.35
42.32
33.40
24.10
14.72
5.36
-3.88
-12.46
-19.15
-22.33
-20.70
-14.10
-3.87
7.47
17.16
23.20
25.00
23.24
19.22
14.18
8.77
3.04
-3.27
-10.36
-18.13
-26.19
-33.97
-40.87
-46.24
-49.48
-50.06
-47.78
-43.08
-37.22
-32.01
-29.26
-29.93
-33.62
-38.67
-42.90
-44.56
-43.02
-38.85
-33.27
-27.44
-22.05
-17.33
-13.56
-11.32
-11.54
-14.97
-21.68
-30.70
-40.14
-47.66
-51.17
-49.43
-42.39
-31.22
-18.03
-5.30
4.72
10.63
12.14
10.01
5.69
0.72
-3.67
-6.79
-8.27
-7.92
-5.42
-0.60
6.13
13.45
19.10
20.53
15.89
4.97
-10.52
-27.42
-42.14
-51.85
-55.17
-52.35
-44.76
-34.21
-22.33
-10.21
1.71
13.59
25.92
39.29
53.96
69.59
85.11
98.93
109.37
115.25
116.20
112.74
105.97
97.09
87.07
76.39
65.16
53.28
40.59
26.97
12.41
-2.83
-18.12
-32.35
-44.08
-51.85
-54.76
-52.81
-47.03
-39.19
-31.26
-24.94
-21.27
-20.60
-22.74
-27.12
-32.91
-39.09
-44.43
-47.66
-47.81
-44.51
-38.37
-30.88
-24.17
-20.39
-21.05
-26.52
-35.70
-46.21
-54.95
-59.07
-56.84
-48.29
-35.17
-20.27
-6.49
4.17
11.02
14.56
15.93
16.30
16.50
17.00
18.12
20.20
23.65
28.71
35.18
42.35
49.04
54.05
56.60
56.65
54.91
52.45
50.25
48.86
48.33
48.35
48.52
48.41
47.60
45.66
42.28
37.37
31.13
23.99
16.31
8.18
-0.57
-10.24
-21.01
-32.86
-45.63
-59.07
-72.77
-85.92
-97.04
-104.10
-104.94
-98.11
-83.52
-62.68
-38.42
-14.14
6.88
22.25
30.72
32.45
28.82
22.14
14.90
8.95
4.72
1.06
-4.25
-13.15
-25.94
-40.49
-52.42
-56.71
-49.73
-30.99
-3.66
26.51
53.23
71.83
80.53
80.27
73.62
63.29
51.23
38.48
25.68
13.58
3.20
-4.51
-9.18
-11.18
-11.59
-11.61
-12.09
-13.36
-15.22
-17.29
-19.23
-20.91
-22.35
-23.64
-24.84
-25.89
-26.63
-26.77
-25.94
-23.94
-20.94
-17.63
-15.23
-14.94
-17.39
-22.11
-27.57
-31.67
-32.61
-29.63
-23.33
-15.26
-7.25
-0.66
4.03
7.07
9.08
10.66
11.99
13.00
13.50
13.43
12.95
12.35
11.87
11.42
10.71
9.34
7.19
4.57
2.15
0.57
0.03
0.12
-0.04
-1.33
-4.12
-7.99
-11.93
-14.76
-15.72
-14.78
-12.63
-10.34
-8.93
-9.02
-10.70
-13.65
-17.23
-20.68
-23.20
-24.01
-22.56
-18.66
-12.75
-5.87
0.53
5.04
6.78
5.79
3.02
0.09
-1.35
-0.24
3.42
8.48
12.97
14.78
12.34
5.19
-5.85
-18.83
-31.10
-39.71
-42.00
-36.01
-21.11
1.65
29.48
58.23
83.39
101.26
109.96
109.77
102.71
91.67
79.38
67.76
57.72
49.43
42.67
37.01
31.92
26.71
20.70
13.35
4.61
-4.93
-14.24
-22.18
-28.06
-32.02
-35.01
-38.37
-43.29
-50.25
-58.82
-67.88
-76.07
-82.31
-86.01
-87.00
-85.29
-80.81
-73.45
-63.20
-50.46
-36.10
-21.35
-7.44
4.72
14.71
22.55
28.49
32.86
35.95
38.02
39.33
40.17
40.90
41.81
43.08
44.63
46.19
47.21
47.18
45.75
42.93
39.13
35.02
31.28
28.43
26.58
25.46
24.49
22.95
20.13
15.62
9.47
2.28
-4.91
-11.02
-15.38
-17.98
-19.42
-20.52
-21.76
-23.06
-23.85
-23.50
-21.90
-19.59
-17.72
-17.44
-19.49
-23.77
-29.49
-35.38
-40.16
-42.81
-42.78
-40.01
-34.83
-27.84
-19.74
-11.20
-2.85
4.80
11.19
15.69
17.66
16.51
12.05
4.74
-4.23
-12.86
-18.73
-19.56
-13.79
-1.29
16.45
36.48
55.20
69.42
77.34
78.98
75.96
70.58
64.87
59.88
55.61
51.40
46.35
39.75
31.11
20.18
7.09
-7.56
-22.61
-36.54
-47.90
-55.76
-59.79
-60.07
-56.64
-49.37
-38.27
-23.96
-8.17
6.49
17.15
21.75
19.75
12.28
1.57
-9.89
-20.19
-28.34
-34.16
-37.81
-39.38
-38.75
-35.75
-30.43
-23.34
-15.45
-7.86
-1.42
3.52
7.06
9.51
11.20
12.32
13.05
13.68
14.64
16.39
19.34
23.62
29.12
35.36
41.55
46.66
49.64
49.82
47.08
41.99
35.51
28.63
22.07
16.15
10.96
6.54
2.94
0.10
-2.31
-4.91
-8.38
-13.11
-18.89
-24.95
-30.18
-33.72
-35.39
-35.91
-36.76
-39.55
-45.36
-54.02
-63.88
-72.06
-75.23
-70.60
-56.87
-34.65
-6.42
24.11
52.95
76.84
94.02
104.41
109.22
110.27
109.11
106.66
103.14
98.49
92.67
85.84
78.31
70.24
61.64
52.31
42.07
30.91
19.04
6.86
-5.11
-16.37
-26.58
-35.75
-44.42
-53.44
-63.67
-75.41
-88.06
-100.12
-109.58
-114.62
-114.15
-108.12
-97.47
-83.88
-69.37
-55.96
-45.38
-38.79
-36.52
-38.04
-42.08
-46.87
-50.65
-52.08
-50.49
-46.00
-39.30
-31.34
-23.05
-15.04
-7.61
-0.81
5.43
11.26
16.79
22.10
27.21
31.93
35.87
38.50
39.35
38.33
35.87
32.89
30.51
29.63
30.57
33.03
36.15
39.02
40.89
41.53
41.11
40.13
39.11
38.42
38.27
38.62
39.42
40.59
42.06
43.80
45.63
47.26
48.29
48.48
47.78
46.53
45.22
44.25
43.62
42.91
41.43
38.59
34.20
28.41
21.46
13.29
3.34
-9.19
-24.71
-42.58
-60.76
-76.04
-84.92
-84.40
-72.52
-48.35
-11.83
36.05
92.76
153.51
211.39
258.40
287.54
294.98
281.24
250.66
209.39
163.12
115.62
68.80
23.80
-17.69
-52.99
-79.06
-93.80
-97.16
-91.36
-80.12
-67.24
-55.44
-45.83
-38.40
-32.94
-29.70
-29.45
-32.89
-39.88
-49.11
-58.58
-66.55
-72.38
-76.63
-80.13
-82.94
-83.61
-79.73
-69.13
-51.30
-28.03
-2.87
20.36
38.91
51.86
59.86
64.15
65.87
65.40
62.31
55.44
43.28
24.72
0.09
-27.58
-52.15
-65.08
-58.09
-26.54
27.76
96.02
164.72
220.02
252.32
258.81
243.46
214.39
180.48
148.73
123.49
107.15
101.29
106.87
123.46
148.08
174.88
196.55
206.87
203.25
187.73
165.91
144.38
127.84
117.64
112.03
107.85
102.37
94.20
83.26
69.77
53.60
33.97
9.90
-19.19
-53.03
-90.45
-129.74
-169.31
-208.13
-246.01
-283.60
-322.26
-363.45
-407.80
-453.92
-497.83
-533.47
-554.59
-556.87
-539.65
-505.91
-460.84
-409.82
-356.94
-304.85
-255.28
-209.74
-169.74
-136.59
-111.02
-93.29
-83.33
-80.67
-84.03
-90.81
-97.19
-99.19
-94.26
-82.28
-65.27
-45.92
-25.86
-4.97
17.99
43.83
71.54
98.18
120.03
134.19
139.50
136.59
126.92
112.10
93.96
75.54
61.69
58.43
70.55
98.85
138.50
179.96
212.52
228.19
224.31
203.60
171.93
135.61
99.86
68.98
47.04
37.71
42.75
59.91
82.11
98.99
100.57
81.32
42.42
-8.90
-62.56
-109.48
-144.49
-166.92
-179.13
-184.27
-184.42
-180.12
-171.08
-157.43
-140.49
-122.69
-106.64
-93.99
-84.50
-76.30
-66.83
-54.15
-37.95
-19.72
-2.15
12.01
21.10
25.07
25.32
24.10
23.63
25.55
30.61
38.82
49.71
62.76
77.39
92.93
108.33
122.03
132.15
136.79
134.66
125.48
110.17
90.58
69.20
48.55
30.91
18.11
11.39
11.40
17.89
29.70
44.77
60.36
73.56
81.81
83.63
79.01
69.66
58.75
49.98
46.45
49.53
58.36
70.27
82.03
91.14
96.58
98.67
98.10
95.03
88.74
78.06
62.20
41.48
17.37
-7.97
-32.37
-54.24
-72.78
-87.91
-100.03
-109.82
-118.02
-125.27
-131.91
-137.98
-143.40
-148.02
-151.85
-154.88
-157.05
-158.03
-157.48
-155.31
-152.00
-148.67
-146.78
-147.57
-151.50
-158.05
-165.72
-172.40
-175.84
-174.15
-166.26
-152.13
-132.86
-110.32
-86.68
-63.78
-42.63
-23.43
-5.80
10.76
26.42
40.98
53.97
64.96
73.70
80.28
84.91
87.81
89.09
88.78
86.97
83.88
79.94
75.73
71.77
68.32
65.26
62.00
57.77
51.79
43.63
33.37
21.66
9.62
-1.47
-10.45
-16.72
-20.51
-22.97
-25.99
-31.59
-41.23
-55.17
-72.46
-91.40
-110.48
-129.15
-148.08
-168.64
-191.84
-217.27
-242.49
-263.47
-275.74
-275.80
-262.29
-236.58
-202.98
-168.27
-140.50
-126.85
-131.20
-152.11
-182.83
-213.25
-233.58
-237.76
-225.17
-199.79
-167.42
-132.61
-97.04
-59.85
-19.45
24.73
71.37
117.70
160.74
198.34
229.56
254.72
274.95
291.91
307.74
324.94
345.91
372.03
402.62
434.44
462.40
481.11
486.82
478.44
457.21
425.34
384.84
337.24
284.48
230.00
178.86
136.52
106.90
91.00
86.83
90.60
98.20
106.04
110.96
109.77
99.44
77.96
45.32
3.91
-42.26
-88.77
-131.70
-167.72
-193.84
-207.54
-207.68
-195.94
-177.31
-159.13
-148.57
-149.96
-163.46
-185.55
-210.95
-234.55
-252.53
-262.26
-262.05
-251.06
-229.52
-199.05
-162.64
-124.26
-88.19
-58.33
-37.40
-26.12
-22.99
-24.42
-25.81
-22.98
-13.35
3.73
27.66
57.35
91.08
125.72
156.10
175.72
179.08
164.33
134.61
97.27
61.28
34.44
21.28
22.22
33.83
49.88
62.65
64.47
49.64
16.28
-32.59
-89.34
-143.53
-184.86
-206.10
-204.95
-184.66
-152.76
-118.59
-90.02
-70.47
-57.63
-44.46
-22.75
12.68
61.03
115.41
165.63
202.36
220.65
221.15
208.73
189.51
168.63
149.44
134.04
124.13
120.81
123.28
127.58
126.75
113.06
81.62
33.06
-26.14
-86.02
-136.81
-172.05
-189.88
-192.08
-182.34
-164.45
-141.52
-115.86
-88.99
-61.54
-33.14
-2.69
30.86
67.64
106.10
143.00
174.05
195.13
203.08
196.19
174.26
138.48
91.32
36.69
-20.29
-73.77
-118.11
-148.95
-163.89
-162.73
-147.26
-121.05
-89.17
-57.81
-33.27
-20.19
-19.71
-28.42
-39.04
-43.02
-34.01
-10.58
23.13
59.23
89.32
107.35
111.30
102.66
84.65
60.54
32.57
2.17
-29.30
-59.77
-86.53
-106.87
-119.23
-124.06
-123.81
-122.06
-122.11
-125.87
-133.58
-144.33
-156.98
-170.82
-185.62
-201.08
-216.29
-229.55
-238.86
-242.65
-240.48
-233.11
-222.11
-209.15
-195.43
-181.52
-167.62
-153.74
-139.84
-125.73
-110.95
-94.77
-76.50
-55.72
-32.46
-7.06
20.17
49.07
79.58
111.26
142.97
172.68
197.98
216.72
227.90
231.90
230.33
225.31
218.82
212.14
205.78
199.66
193.48
186.86
179.54
171.40
162.48
153.04
143.44
134.03
124.99
116.22
107.36
98.00
87.91
77.18
66.13
55.17
44.54
34.28
24.21
14.15
4.02
-6.12
-16.13
-26.08
-36.27
-47.18
-59.23
-72.31
-85.58
-97.34
-105.45
-107.88
-103.31
-91.51
-73.36
-50.54
-25.14
0.80
25.63
48.34
68.63
86.83
103.52
119.08
133.24
145.05
153.15
156.43
154.63
148.64
140.35
132.06
125.67
122.00
120.63
120.13
118.76
115.35
109.67
102.57
95.32
89.16
84.72
82.20
81.52
82.77
86.02
90.94
96.27
99.75
98.60
90.55
74.95
53.27
28.78
5.39
-13.74
-27.21
-35.54
-40.48
-44.06
-47.66
-51.90
-56.97
-63.29
-71.58
-82.48
-95.80
-110.04
-122.62
-130.85
-133.02
-129.04
-120.23
-108.52
-95.54
-82.16
-68.64
-55.07
-41.69
-29.00
-17.48
-7.50
0.74
7.09
11.35
13.41
13.39
11.84
9.60
7.48
5.96
5.03
4.40
3.76
2.96
2.01
0.87
-0.70
-3.04
-6.35
-10.46
-14.79
-18.61
-21.43
-23.21
-24.23
-24.68
-24.36
-22.79
-19.51
-14.58
-8.72
-2.92
2.11
6.32
10.29
14.52
18.79
21.78
21.60
16.79
7.41
-4.50
-15.55
-22.18
-22.13
-15.13
-2.77
12.37
27.90
42.24
54.77
65.28
73.55
79.03
81.10
79.40
74.12
65.98
55.89
44.61
32.56
19.89
6.67
-6.75
-19.61
-30.61
-38.13
-40.51
-36.60
-26.39
-11.23
6.21
22.77
35.72
43.63
46.58
45.78
42.77
38.67
33.96
28.60
22.47
15.72
8.72
1.89
-4.57
-10.69
-16.70
-22.72
-28.76
-34.71
-40.44
-45.91
-51.12
-56.12
-60.89
-65.29
-69.04
-71.71
-72.76
-71.67
-68.10
-62.02
-53.84
-44.30
-34.36
-24.90
-16.45
-9.18
-3.00
2.12
6.10
8.75
10.13
10.68
11.19
12.47
14.73
17.38
19.22
19.09
16.55
12.25
7.57
3.95
2.17
2.08
2.91
3.79
4.23
4.15
3.67
2.86
1.63
-0.06
-2.05
-3.86
-4.99
-5.31
-5.29
-5.95
-8.50
-13.84
-22.14
-32.76
-44.35
-55.21
-63.79
-68.95
-70.29
-68.10
-63.22
-56.66
-49.35
-41.85
-34.44
-27.14
-19.83
-12.43
-4.81
3.13
11.50
20.27
29.26
38.13
46.44
53.83
60.05
64.98
68.53
70.54
70.82
69.24
65.91
61.18
55.64
49.88
44.41
39.41
34.77
30.05
24.61
17.66
8.52
-3.08
-16.70
-30.88
-43.32
-51.36
-52.82
-46.81
-34.18
-17.32
0.55
16.38
28.07
34.88
37.21
36.13
32.78
28.06
22.57
16.78
11.10
5.86
1.10
-3.54
-8.64
-14.62
-21.32
-27.85
-32.84
-34.99
-33.70
-29.28
-22.84
-15.69
-8.84
-2.74
2.70
7.85
13.07
18.54
24.22
29.90
35.21
39.69
42.86
44.33
43.99
42.07
39.14
35.90
32.96
30.64
28.94
27.65
26.47
25.14
23.48
21.38
18.83
15.93
12.98
10.35
8.37
7.07
6.17
5.20
3.78
1.80
-0.53
-2.91
-5.17
-7.35
-9.63
-12.10
-14.58
-16.74
-18.32
-19.34
-20.20
-21.44
-23.48
-26.39
-29.96
-33.76
-37.36
-40.38
-42.46
-43.20
-42.17
-39.02
-33.68
-26.50
-18.24
-9.81
-2.04
4.61
10.11
14.75
18.83
22.49
25.56
27.78
28.94
29.09
28.54
27.73
27.01
26.49
26.05
25.42
24.36
22.79
20.85
18.78
16.90
15.45
14.49
13.86
13.21
12.18
10.54
8.29
5.66
3.03
0.74
-1.02
-2.24
-3.13
-3.98
-5.09
-6.66
-8.68
-10.94
-13.09
-14.86
-16.17
-17.24
-18.52
-20.43
-23.18
-26.59
-30.20
-33.39
-35.65
-36.63
-36.16
-34.14
-30.51
-25.32
-18.73
-11.18
-3.26
4.37
11.14
16.76
21.21
24.66
27.34
29.39
30.81
31.49
31.32
30.35
28.81
27.07
25.48
24.26
23.45
22.93
22.53
22.10
21.53
20.74
19.59
17.97
15.82
13.24
10.48
7.85
5.62
3.87
2.53
1.35
0.09
-1.44
-3.30
-5.46
-7.75
-9.96
-11.91
-13.49
-14.70
-15.67
-16.62
-17.80
-19.38
-21.39
-23.72
-26.20
-28.54
-30.48
-31.74
-31.99
-30.88
-28.11
-23.51
-17.24
-9.75
-1.73
6.13
13.32
19.60
24.99
29.55
33.30
36.12
37.85
38.42
37.90
36.51
34.52
32.15
29.57
26.93
24.37
22.01
19.91
18.01
16.14
14.13
11.95
9.77
7.85
6.43
5.57
5.12
4.84
4.47
3.84
2.82
1.29
-0.90
-3.84
-7.48
-11.56
-15.58
-19.05
-21.56
-22.96
-23.34
-22.95
-21.94
-20.27
-17.76
-14.27
-10.02
-5.70
-2.39
-1.15
-2.55
-6.23
-11.01
-15.30
-17.75
-17.88
-16.12
-13.51
-11.09
-9.32
-7.91
-6.01
-2.73
2.39
9.10
16.48
23.29
28.40
31.17
31.60
30.16
27.50
24.16
20.34
15.94
10.76
4.73
-1.96
-8.77
-14.94
-19.64
-22.23
-22.47
-20.70
-17.81
-15.04
-13.55
-14.06
-16.60
-20.65
-25.44
-30.31
-34.92
-39.13
-42.85
-45.81
-47.68
-48.22
-47.56
-46.19
-44.84
-44.17
-44.49
-45.67
-47.23
-48.52
-48.91
-47.96
-45.44
-41.39
-36.07
-29.92
-23.44
-16.96
-10.67
-4.52
1.55
7.49
13.08
17.93
21.70
24.27
25.77
26.46
26.59
26.25
25.46
24.27
22.89
21.71
21.06
21.09
21.58
22.09
22.16
21.51
20.19
18.46
16.63
14.93
13.36
11.78
10.07
8.17
6.19
4.28
2.58
1.08
-0.35
-1.88
-3.62
-5.59
-7.65
-9.64
-11.45
-13.09
-14.64
-16.23
-17.87
-19.51
-21.05
-22.41
-23.61
-24.74
-25.94
-27.20
-28.43
-29.29
-29.35
-28.15
-25.33
-20.77
-14.63
-7.32
0.59
8.50
15.95
22.65
28.46
33.32
37.21
40.05
41.79
42.48
42.29
41.58
40.73
40.08
39.75
39.57
39.20
38.25
36.46
33.78
30.32
26.29
21.78
16.78
11.14
4.80
-2.20
-9.57
-16.89
-23.69
-29.63
-34.56
-38.52
-41.67
-44.13
-45.97
-47.09
-47.44
-47.02
-45.99
-44.67
-43.33
-42.20
-41.28
-40.52
-39.79
-39.09
-38.51
-38.15
-38.02
-37.87
-37.18
-35.20
-31.19
-24.67
-15.60
-4.49
7.72
19.88
30.96
40.26
47.44
52.47
55.48
56.66
56.17
54.18
50.87
46.53
41.57
36.53
31.90
28.01
24.81
21.81
18.22
13.23
6.37
-2.25
-11.97
-21.81
-30.83
-38.36
-44.04
-47.75
-49.48
-49.21
-47.02
-43.03
-37.42
-30.36
-21.90
-12.02
-0.73
11.71
24.62
36.96
47.59
55.66
60.90
63.73
65.00
65.72
66.62
68.01
69.82
71.80
73.82
76.01
78.95
83.55
90.93
101.95
116.89
135.07
154.77
173.56
188.78
198.32
201.06
196.98
186.93
172.10
153.58
132.02
107.58
80.17
49.79
16.94
-17.28
-51.22
-83.08
-111.37
-135.19
-154.16
-168.01
-176.25
-178.11
-172.96
-160.94
-143.39
-122.68
-101.60
-82.35
-66.04
-52.72
-41.91
-33.27
-26.90
-23.37
-23.31
-27.07
-34.56
-45.37
-58.82
-74.02
-89.89
-105.15
-118.57
-129.35
-137.38
-143.22
-147.57
-150.77
-152.31
-151.06
-145.90
-136.53
-123.90
-109.96
-96.87
-86.04
-77.63
-70.63
-63.61
-55.49
-46.01
-35.68
-25.23
-15.08
-5.13
5.07
15.90
27.17
37.96
46.91
52.74
54.84
53.61
50.32
46.56
43.56
41.74
40.68
39.54
37.59
34.61
30.96
27.27
24.18
21.99
20.69
19.92
19.15
17.75
15.18
11.11
5.64
-0.73
-7.22
-13.01
-17.54
-20.59
-22.26
-22.76
-22.36
-21.30
-19.79
-17.98
-15.88
-13.35
-10.05
-5.56
0.44
8.14
17.43
27.94
39.00
49.80
59.43
67.06
72.09
74.30
73.80
71.03
66.60
61.17
55.34
49.46
43.71
38.00
32.24
26.48
21.15
16.93
14.57
14.48
16.39
19.41
22.24
23.69
23.13
20.60
16.64
11.93
7.04
2.26
-2.31
-6.62
-10.61
-14.28
-17.71
-21.19
-25.04
-29.42
-34.19
-38.74
-42.29
-44.07
-43.76
-41.68
-38.75
-36.20
-35.15
-36.16
-39.11
-43.29
-47.83
-52.10
-56.03
-59.99
-64.64
-70.56
-78.06
-86.99
-96.80
-106.49
-114.74
-120.07
-121.07
-116.93
-107.68
-94.38
-78.92
-63.53
-50.19
-40.07
-33.18
-28.38
-23.87
-17.72
-8.64
3.63
18.18
33.31
47.11
58.21
66.09
71.16
74.36
76.67
78.69
80.52
81.86
82.27
81.38
79.04
75.25
70.18
64.19
57.93
52.41
48.94
48.64
51.98
58.44
66.63
74.84
81.67
86.58
89.83
92.16
94.17
95.96
97.20
97.39
96.25
93.74
89.83
84.32
76.66
66.23
52.65
36.28
18.39
1.04
-13.52
-23.49
-28.25
-28.66
-26.88
-25.62
-27.17
-32.46
-40.69
-49.69
-56.74
-59.69
-57.78
-51.81
-43.74
-35.85
-29.89
-26.58
-25.57
-25.82
-26.18
-25.91
-24.90
-23.53
-22.39
-21.99
-22.63
-24.39
-27.30
-31.28
-36.16
-41.54
-46.64
-50.53
-52.25
-51.18
-47.16
-40.54
-32.05
-22.61
-13.22
-4.70
2.36
7.83
11.99
15.39
18.55
21.56
24.05
25.28
24.70
22.28
18.77
15.42
13.46
13.49
15.23
17.65
19.45
19.61
17.72
14.03
9.21
4.04
-0.72
-4.52
-6.96
-7.89
-7.42
-5.97
-4.19
-2.64
-1.53
-0.43
1.47
5.12
10.97
18.66
27.01
34.54
40.01
42.87
43.33
41.95
39.27
35.52
30.78
25.20
19.22
13.62
9.09
6.04
4.36
3.57
3.13
2.66
2.01
1.20
0.21
-1.06
-2.74
-4.91
-7.48
-10.20
-12.68
-14.56
-15.57
-15.54
-14.50
-12.49
-9.65
-6.07
-1.95
2.44
6.62
9.98
11.85
11.68
9.34
5.22
0.29
-4.07
-6.29
-5.03
0.56
10.51
23.97
39.38
54.84
68.71
79.94
88.29
94.20
98.44
101.71
104.37
106.50
108.11
109.38
110.85
113.33
117.73
124.77
134.63
146.59
158.91
168.92
173.69
170.97
160.03
142.34
121.31
101.53
87.49
82.45
87.69
102.37
123.89
148.47
171.85
189.97
199.64
199.14
188.47
169.34
144.73
118.26
93.33
72.35
56.15
43.85
33.24
21.58
6.73
-12.06
-33.93
-56.91
-78.81
-98.32
-115.42
-131.27
-147.68
-166.59
-189.61
-217.71
-250.62
-286.20
-320.16
-346.60
-359.58
-355.08
-332.64
-295.57
-249.78
-201.70
-156.35
-116.57
-83.39
-57.14
-38.36
-27.87
-26.07
-31.96
-42.81
-54.64
-63.57
-67.26
-65.72
-60.99
-55.87
-52.28
-50.24
-48.08
-43.60
-35.64
-25.08
-14.61
-7.50
-6.01
-10.36
-18.58
-27.41
-33.54
-34.81
-30.75
-22.47
-12.03
-1.61
7.34
14.41
20.15
25.44
30.74
35.48
37.95
35.80
26.98
10.84
-11.26
-35.96
-58.64
-74.50
-79.72
-72.33
-52.40
-22.00
15.40
55.42
93.53
125.89
150.15
165.99
175.05
180.17
184.04
187.95
191.24
191.61
186.30
173.38
152.83
126.65
98.11
70.49
45.85
24.29
3.90
-18.39
-45.32
-77.63
-113.08
-146.47
-171.07
-180.69
-171.79
-144.55
-102.86
-53.24
-3.41
38.92
67.05
75.96
63.26
29.78
-19.97
-78.36
-136.35
-185.63
-220.84
-240.47
-246.63
-243.68
-236.52
-229.20
-224.14
-221.93
-221.38
-219.90
-214.14
-200.90
-178.34
-146.94
-109.84
-72.12
-39.38
-15.98
-3.74
-1.55
-6.00
-12.71
-17.87
-19.33
-17.18
-13.44
-11.06
-12.50
-18.34
-26.52
-32.67
-31.47
-18.70
7.01
43.15
83.98
122.17
151.19
167.24
170.31
163.86
153.25
143.72
138.29
136.86
136.31
131.79
118.39
92.57
53.18
2.03
-55.94
-113.09
-160.24
-188.89
-193.88
-175.42
-139.61
-96.76
-58.25
-33.02
-25.32
-34.22
-55.02
-81.44
-107.63
-129.52
-145.15
-154.46
-158.63
-159.44
-158.61
-157.57
-157.31
-158.29
-160.10
-161.31
-159.53
-152.04
-136.91
-113.84
-84.52
-52.01
-19.74
9.43
33.61
51.51
62.10
64.41
57.90
43.03
21.70
-2.98
-27.34
-47.98
-62.37
-68.97
-66.92
-55.71
-35.20
-5.75
31.25
73.33
117.17
159.08
195.37
222.49
237.16
236.85
220.69
190.36
150.32
106.83
66.08
32.06
5.25
-17.06
-38.95
-63.59
-91.34
-119.34
-142.59
-155.92
-155.79
-141.33
-114.32
-78.31
-37.65
3.41
40.99
71.65
92.34
100.93
96.96
82.13
60.23
36.34
15.55
1.74
-3.05
1.18
12.74
28.70
45.54
60.02
70.07
75.39
77.49
78.93
82.21
88.69
98.05
108.54
117.59
122.34
120.11
108.70
86.78
54.52
14.03
-30.65
-74.34
-112.04
-140.33
-158.15
-166.71
-168.66
-166.87
-163.43
-159.16
-153.82
-146.49
-136.28
-122.74
-106.08
-87.03
-66.71
-46.43
-27.64
-11.82
-0.07
7.42
11.69
14.99
20.04
28.98
42.47
59.39
77.35
93.57
105.81
113.10
115.95
116.40
117.46
122.25
132.78
148.82
167.56
184.31
194.21
194.05
183.41
164.52
140.99
116.32
92.92
71.89
53.57
38.10
25.75
16.60
10.25
5.70
1.55
-3.41
-9.75
-17.22
-25.12
-32.79
-40.07
-47.22
-54.49
-61.43
-66.49
-67.22
-61.15
-46.74
-24.10
4.75
36.37
66.52
90.72
104.88
105.86
92.21
64.84
27.11
-15.71
-57.62
-93.09
-117.98
-129.72
-127.26
-110.98
-82.83
-46.42
-6.86
30.15
59.59
78.37
85.79
83.27
73.41
59.07
42.88
27.03
13.22
2.43
-5.20
-10.36
-14.02
-16.79
-18.16
-16.60
-10.37
1.13
16.17
30.58
39.02
37.21
24.06
2.70
-20.48
-37.95
-43.88
-35.85
-15.33
13.48
45.44
75.99
102.01
121.84
134.92
141.42
142.01
137.65
129.39
118.26
105.16
91.01
77.03
65.02
57.03
54.90
59.37
69.40
82.09
93.20
98.38
94.32
79.76
55.76
25.38
-7.33
-38.23
-64.01
-82.60
-93.24
-96.41
-93.51
-86.62
-78.10
-70.27
-64.93
-63.03
-64.53
-68.34
-72.59
-74.78
-72.20
-62.48
-44.37
-18.68
11.35
40.57
63.42
76.12
78.22
73.03
66.31
63.89
69.30
82.51
100.20
117.55
130.17
135.80
134.64
128.75
120.71
112.32
104.01
94.93
83.81
69.81
53.16
35.11
17.21
0.39
-15.79
-33.13
-54.00
-79.89
-110.10
-141.19
-167.71
-183.91
-185.86
-172.65
-146.36
-110.66
-69.16
-24.57
20.85
64.21
101.29
127.42
139.46
137.87
127.44
115.70
109.87
113.62
125.49
139.73
148.96
147.35
132.58
106.02
71.32
32.47
-7.62
-47.44
-86.27
-123.03
-155.76
-181.96
-199.62
-208.32
-209.65
-206.44
-201.36
-195.63
-188.69
-178.97
-165.32
-148.15
-129.68
-113.12
-101.17
-94.84
-93.06
-93.16
-91.94
-86.68
-75.70
-58.56
-36.01
-9.86
17.15
41.69
60.32
70.31
70.38
61.21
45.30
26.29
7.90
-7.03
-17.00
-21.71
-21.59
-17.17
-8.85
3.06
17.97
34.77
51.75
67.05
79.21
87.75
93.41
97.89
103.14
110.62
120.60
131.90
142.01
147.62
145.54
133.65
111.74
81.87
48.10
15.47
-11.11
-28.06
-33.84
-29.02
-15.89
2.32
22.33
41.60
58.77
73.67
86.76
98.28
107.55
112.75
111.54
101.97
83.38
56.67
23.93
-12.12
-48.74
-83.26
-113.09
-135.80
-149.62
-154.04
-150.16
-140.53
-128.39
-116.65
-107.05
-99.90
-94.37
-89.16
-83.07
-75.40
-65.95
-54.96
-42.93
-30.36
-17.64
-4.83
8.40
22.72
38.86
57.12
77.01
97.12
115.45
130.09
139.94
145.00
146.21
144.86
141.94
137.98
133.30
128.58
125.03
123.98
125.89
129.45
131.48
127.89
115.22
91.89
58.55
17.50
-28.23
-75.19
-119.46
-156.29
-180.59
-188.12
-177.19
-149.60
-110.15
-64.72
-18.03
27.63
71.76
113.93
152.08
182.15
199.47
200.97
186.95
161.28
129.92
98.63
70.89
47.31
26.17
5.00
-18.19
-44.41
-74.25
-108.62
-148.73
-195.06
-245.77
-295.89
-337.98
-364.53
-371.01
-357.74
-329.86
-295.04
-260.32
-229.76
-204.00
-181.54
-160.81
-141.56
-124.66
-110.84
-99.30
-87.64
-72.95
-53.60
-30.36
-6.09
15.79
33.32
47.12
59.81
74.40
92.49
113.49
135.21
155.27
172.35
186.62
199.22
211.02
221.75
229.64
231.91
225.80
209.83
184.34
151.53
114.91
78.51
46.17
20.63
2.92
-8.08
-15.23
-22.30
-32.51
-47.21
-65.18
-82.99
-96.52
-102.96
-102.33
-97.43
-92.47
-90.75
-92.81
-95.93
-95.38
-86.69
-67.84
-40.31
-8.62
21.77
46.59
63.78
72.84
73.50
64.81
45.90
17.81
-14.94
-44.54
-62.42
-62.67
-45.10
-15.67
15.59
38.61
47.08
40.33
23.08
3.04
-11.76
-15.50
-6.13
14.03
38.74
59.61
68.76
61.86
40.18
10.70
-16.18
-30.32
-25.40
-0.86
38.57
84.95
130.05
167.28
192.51
203.91
201.62
187.61
165.57
140.63
118.46
103.90
99.33
103.80
113.15
121.42
122.94
114.25
95.07
67.88
36.53
4.35
-27.35
-59.74
-95.57
-137.25
-184.64
-233.43
-275.44
-300.81
-301.64
-275.50
-226.85
-165.98
-105.31
-55.11
-20.58
-1.42
6.33
7.58
6.15
4.27
3.34
4.91
11.06
23.75
43.59
68.93
95.72
118.54
132.41
134.50
125.03
107.04
85.39
65.27
50.89
44.54
45.95
52.27
58.46
58.61
47.97
25.09
-7.01
-41.59
-70.70
-88.35
-92.59
-85.94
-73.63
-61.22
-52.74
-50.08
-53.28
-61.08
-70.98
-78.86
-79.18
-66.28
-36.81
7.81
60.54
110.32
145.80
159.29
149.36
120.49
80.39
36.28
-7.81
-51.39
-95.82
-141.68
-187.09
-227.76
-258.50
-275.27
-276.46
-262.76
-236.06
-198.60
-152.72
-101.61
-49.95
-3.69
31.35
51.50
56.27
48.47
32.40
12.31
-8.66
-28.56
-46.67
-63.28
-79.42
-96.61
-116.05
-137.97
-160.55
-180.10
-192.00
-192.44
-179.19
-151.35
-108.87
-52.32
15.80
90.75
165.02
229.84
276.62
299.96
299.15
277.72
241.69
196.70
148.59
103.46
68.02
46.14
37.99
39.63
44.15
43.78
30.48
0.76
-44.01
-98.01
-158.21
-223.65
-293.35
-363.22
-425.84
-475.95
-509.03
-523.21
-517.34
-497.33
-470.92
-443.78
-416.93
-388.49
-360.92
-336.36
-315.54
-293.52
-269.63
-244.45
-219.25
-194.21
-141.46
-51.06
67.19
165.93
235.39
276.97
300.35
309.05
306.34
296.04
278.13
254.57
230.21
215.16
213.19
223.86
243.71
269.33
297.66
322.71
340.40
349.45
353.28
351.45
341.91
322.50
293.01
254.30
205.44
146.69
81.25
18.05
-33.35
-63.67
-67.34
-45.28
-6.61
32.29
54.47
48.68
14.01
-42.20
-106.98
-166.26
-208.78
-228.72
-226.07
-204.14
-167.00
-117.72
-59.38
3.58
63.89
111.73
136.76
131.51
94.66
32.54
-42.25
-114.30
-169.78
-199.83
-202.03
-179.96
-140.96
-93.36
-43.84
4.01
49.63
94.17
138.51
181.90
221.73
254.67
277.77
289.07
287.67
273.58
248.21
215.20
180.79
153.03
139.74
145.65
170.24
207.33
246.90
278.32
293.58
289.44
267.44
232.47
190.34
145.91
102.39
61.76
25.47
-4.96
-28.17
-43.52
-51.27
-51.94
-45.28
-29.86
-3.98
32.30
75.27
117.46
149.78
165.12
161.25
141.61
113.37
84.03
58.42
37.62
19.70
1.39
-20.28
-47.11
-79.45
-116.11
-154.53
-190.89
-220.80
-240.40
-247.50
-242.46
-228.17
-209.24
-190.49
-175.39
-165.10
-158.48
-153.10
-146.60
-137.79
-127.00
-115.48
-104.74
-95.92
-89.73
-86.60
-86.81
-90.31
-96.46
-104.18
-112.54
-121.51
-132.27
-147.00
-167.76
-195.42
-228.77
-264.45
-297.61
-323.01
-336.37
-335.51
-321.06
-296.37
-266.57
-237.00
-211.66
-192.32
-178.62
-168.95
-161.59
-155.42
-150.13
-145.85
-142.64
-140.22
-137.79
-134.30
-128.70
-120.22
-108.67
-94.35
-77.90
-59.99
-40.95
-20.60
1.69
26.85
55.96
89.97
129.23
172.85
218.23
261.01
295.91
318.24
325.39
318.03
299.84
276.27
252.61
232.15
215.41
200.72
185.82
169.60
153.26
140.04
133.73
136.51
147.29
161.51
172.55
174.21
162.82
138.08
102.46
59.84
14.46
-29.12
-65.77
-89.97
-97.10
-85.32
-56.60
-16.38
28.47
72.26
111.83
146.36
175.93
200.20
218.35
229.96
236.07
239.26
242.46
247.27
252.98
256.94
256.21
249.13
236.13
219.16
200.42
181.25
161.54
140.23
116.14
88.77
58.64
27.18
-3.72
-32.13
-56.53
-75.96
-90.30
-100.24
-107.26
-113.32
-120.23
-129.03
-139.49
-150.14
-158.67
-162.66
-160.41
-151.37
-136.16
-116.27
-93.52
-69.60
-45.79
-22.86
-1.14
19.44
39.17
58.56
78.18
98.39
119.15
139.83
159.27
176.05
188.94
197.19
200.74
200.08
195.99
189.33
180.75
170.68
159.26
146.49
132.27
116.57
99.47
81.07
61.48
40.64
18.36
-5.43
-30.51
-56.12
-81.04
-103.87
-123.51
-139.54
-152.36
-162.89
-172.09
-180.35
-187.21
-191.47
-191.65
-186.64
-176.14
-160.90
-142.66
-123.81
-106.85
-93.63
-84.69
-78.92
-73.86
-66.67
-55.43
-40.06
-22.49
-5.74
7.49
16.19
21.41
25.53
30.68
37.36
43.83
46.79
42.97
30.80
11.21
-12.82
-37.70
-60.94
-82.13
-102.71
-124.74
-149.49
-176.67
-204.38
-229.79
-249.59
-260.38
-258.83
-242.39
-210.50
-165.82
-114.51
-64.83
-24.51
2.22
16.08
21.96
26.36
34.28
47.41
64.14
81.24
95.92
107.18
115.94
124.29
134.51
148.37
166.79
189.65
215.76
243.09
269.16
291.58
308.35
317.93
319.05
310.73
292.66
265.73
232.32
196.12
161.02
129.95
104.06
82.60
63.65
45.14
25.51
4.01
-19.55
-45.08
-72.36
-101.02
-130.65
-160.82
-191.23
-222.11
-254.31
-289.27
-328.34
-371.87
-418.29
-463.74
-502.44
-528.10
-535.66
-522.99
-491.88
-447.81
-398.65
-352.56
-315.83
-291.14
-277.12
-269.17
-261.32
-248.44
-227.78
-199.41
-165.31
-128.00
-89.46
-50.76
-12.66
23.71
56.40
82.77
100.21
106.99
102.98
90.10
72.16
54.19
41.25
37.12
43.27
58.73
80.71
105.73
130.55
152.64
170.22
182.21
188.20
188.50
183.74
174.24
159.38
137.66
107.89
70.78
30.04
-7.99
-36.04
-48.51
-43.47
-23.23
6.70
39.58
69.47
92.43
107.10
114.74
118.48
122.11
128.28
138.06
151.17
166.95
185.09
205.43
227.37
248.30
263.63
267.01
253.47
221.81
175.39
120.87
65.73
16.52
-22.99
-51.49
-70.87
-84.28
-94.97
-105.20
-115.85
-126.39
-134.53
-138.46
-137.26
-133.06
-129.16
-128.62
-133.19
-143.44
-159.52
-180.49
-206.11
-222.52
-217.01
-184.22
-130.74
-69.81
-12.52
30.40
61.87
83.32
92.62
84.81
56.43
10.27
-45.27
-97.65
-134.44
-146.49
-126.23
-78.71
-21.41
25.77
51.34
56.00
48.42
38.12
32.41
32.87
37.69
44.56
52.53
61.64
71.55
81.04
86.03
84.43
76.68
65.77
55.89
50.05
47.82
44.87
35.12
14.17
-17.69
-56.11
-94.74
-127.26
-148.96
-157.31
-151.81
-133.58
-105.18
-69.83
-31.59
5.29
37.71
64.39
85.86
103.53
118.67
131.89
143.09
151.32
155.11
152.99
144.21
129.34
110.34
90.37
72.96
61.21
56.90
60.25
69.80
82.89
96.13
106.13
110.39
108.36
101.80
94.26
89.50
89.49
93.19
96.89
96.02
87.63
71.85
51.70
31.18
13.18
-1.86
-15.59
-30.19
-46.81
-64.65
-81.34
-94.06
-100.77
-100.78
-94.75
-84.28
-71.37
-58.01
-45.92
-36.37
-30.12
-27.40
-27.93
-30.83
-34.54
-36.73
-34.59
-25.43
-7.65
18.44
50.21
83.16
112.08
132.54
142.23
141.40
132.44
118.63
102.82
86.70
70.74
54.87
39.18
24.26
10.95
-0.29
-9.78
-18.73
-28.59
-40.38
-54.10
-68.72
-82.53
-93.88
-101.68
-105.80
-106.92
-106.14
-104.33
-101.65
-97.44
-90.53
-80.04
-65.97
-49.45
-32.35
-16.51
-3.04
7.88
16.80
24.71
32.57
41.23
51.14
62.27
73.92
84.75
93.17
97.91
98.47
95.21
89.14
81.33
72.49
63.01
53.21
43.87
36.51
33.49
37.69
51.62
76.08
109.07
145.42
177.77
198.82
203.93
192.77
169.22
139.48
109.24
81.45
55.72
29.05
-2.42
-41.77
-89.94
-144.91
-201.66
-252.86
-290.38
-307.39
-300.47
-270.91
-224.78
-171.45
-121.26
-83.04
-62.50
-61.59
-79.03
-111.32
-153.72
-201.01
-247.90
-289.04
-319.44
-335.06
-333.78
-316.33
-286.41
-249.67
-211.93
-177.44
-147.93
-122.87
-100.50
-79.00
-57.49
-36.08
-15.42
3.71
20.68
34.89
45.55
51.80
53.13
49.77
42.83
33.91
24.39
14.82
4.92
-5.90
-17.79
-30.01
-41.01
-48.97
-52.43
-50.60
-43.37
-30.97
-13.93
6.78
29.40
51.41
70.15
83.75
91.84
95.56
96.87
97.37
97.55
96.80
94.08
88.88
81.68
73.75
66.53
60.88
56.89
54.19
52.39
51.38
51.23
51.78
52.52
52.58
51.19
47.99
43.27
37.82
32.55
28.13
24.67
21.82
18.97
15.64
11.57
6.83
1.47
-4.50
-11.13
-18.30
-25.46
-31.57
-35.42
-36.03
-33.10
-27.07
-18.89
-9.53
0.32
10.37
20.55
30.69
40.43
49.20
56.48
61.92
65.49
67.33
67.72
66.95
65.28
62.95
60.16
57.09
53.89
50.70
47.65
44.82
42.26
39.93
37.70
35.36
32.69
29.54
25.88
21.79
17.46
13.07
8.76
4.62
0.59
-3.44
-7.68
-12.36
-17.66
-23.56
-29.76
-35.67
-40.43
-43.11
-42.90
-39.46
-33.04
-24.62
-15.69
-7.85
-2.27
0.77
1.97
2.73
4.46
7.87
12.58
17.10
19.47
18.10
12.53
3.71
-6.16
-14.35
-18.61
-18.11
-13.71
-7.47
-1.87
1.37
1.93
1.09
1.47
6.07
17.50
37.11
64.55
97.58
132.21
163.22
185.21
194.37
189.31
171.53
144.93
114.67
85.64
61.23
43.13
32.05
30.08
40.07
65.15
106.88
163.77
230.47
298.10
356.11
395.21
412.52
410.28
394.32
371.19
345.91
321.03
296.70
271.82
245.72
222.78
208.20
205.27
213.17
227.16
240.70
247.81
244.87
231.76
216.16
206.65
208.79
222.61
243.57
265.61
283.51
294.42
271.50
202.63
94.40
-28.88
-139.87
-222.84
-275.89
-305.11
-318.15
-320.84
-311.80
-290.77
-260.05
-225.39
-193.91
-170.80
-157.96
-154.57
-158.55
-164.90
-167.50
-164.12
-156.30
-147.32
-139.78
-134.67
-131.73
-130.21
-127.38
-121.37
-112.26
-101.83
-92.50
-86.05
-83.40
-84.96
-90.95
-100.54
-112.78
-127.06
-142.81
-159.31
-175.60
-190.75
-204.40
-216.85
-228.27
-238.57
-247.17
-253.04
-254.92
-251.92
-244.19
-233.27
-222.08
-214.53
-214.83
-226.59
-251.32
-287.07
-327.83
-364.50
-387.53
-390.28
-371.61
-336.18
-292.25
-248.00
-208.30
-173.39
-139.99
-103.98
-63.02
-17.85
28.08
69.90
102.89
123.45
129.70
122.11
103.78
80.01
57.12
40.42
32.38
31.83
34.83
36.72
34.43
27.66
18.39
9.33
2.25
-2.73
-6.51
-9.69
-11.74
-11.30
-7.30
-0.08
8.29
14.67
16.35
12.19
3.06
-8.77
-20.78
-31.15
-39.09
-44.52
-47.40
-47.35
-43.59
-35.53
-23.24
-7.73
9.24
25.85
40.80
53.61
64.62
74.51
83.87
92.81
101.05
108.09
113.53
117.19
119.13
119.61
118.99
117.72
116.27
115.07
114.25
113.57
112.52
110.60
107.63
103.89
100.00
96.53
93.58
90.63
86.80
81.26
73.66
64.16
53.32
41.62
29.36
16.69
3.82
-8.78
-20.49
-30.79
-39.49
-46.67
-52.34
-56.14
-57.18
-54.49
-47.60
-37.09
-24.63
-12.48
-2.70
3.67
6.94
8.53
10.17
13.13
17.60
22.58
26.42
27.62
25.63
21.24
16.32
13.03
12.94
16.30
21.97
27.93
32.14
33.37
31.72
28.43
25.26
23.77
24.82
28.41
33.74
39.18
42.35
40.32
30.51
11.83
-14.45
-44.76
-74.57
-100.32
-121.00
-138.25
-154.96
-173.14
-192.39
-209.94
-222.02
-225.84
-220.83
-208.62
-191.85
-172.97
-153.33
-133.31
-112.80
-91.94
-71.41
-52.31
-35.67
-21.96
-10.86
-1.41
7.46
16.40
25.27
33.20
39.14
42.43
43.29
42.74
42.23
43.03
45.70
50.00
55.04
59.71
63.09
64.62
64.21
62.08
58.67
54.46
49.84
45.00
39.95
34.57
28.68
22.20
15.23
8.01
0.91
-5.76
-11.97
-17.94
-24.07
-30.58
-37.19
-42.90
-46.26
-45.86
-40.98
-31.96
-20.18
-7.49
4.40
14.45
22.44
28.77
34.13
39.33
45.05
51.80
59.66
67.97
75.16
79.12
77.93
70.94
59.58
47.34
38.62
37.05
43.77
56.89
72.16
84.84
91.60
91.67
86.51
78.58
70.03
61.78
53.80
45.81
37.99
31.06
25.82
22.42
20.14
17.77
14.32
9.72
4.99
1.55
0.57
2.30
6.20
11.63
18.72
28.71
43.46
64.28
90.96
121.62
153.25
182.67
207.11
224.34
232.62
231.27
221.60
207.53
195.22
191.00
198.54
216.80
240.20
260.95
272.43
271.56
258.96
237.30
209.35
177.17
142.91
109.78
82.04
63.51
55.53
55.72
58.89
59.23
52.72
38.41
17.95
-5.72
-29.33
-49.39
-62.16
-64.08
-53.31
-31.61
-4.88
18.16
29.42
24.69
5.42
-22.52
-52.20
-79.10
-103.05
-127.26
-155.73
-190.18
-228.46
-265.15
-293.61
-308.47
-307.00
-289.14
-256.69
-212.52
-160.50
-105.92
-55.53
-16.55
5.28
7.83
-6.71
-32.88
-64.64
-98.07
-132.53
-169.64
-210.71
-254.18
-294.63
-324.45
-336.94
-329.43
-304.53
-268.94
-230.67
-196.13
-168.44
-147.63
-132.29
-121.16
-113.72
-109.56
-107.37
-104.36
-96.94
-82.36
-60.23
-33.11
-5.42
18.55
36.73
50.01
61.63
75.38
93.87
117.47
144.38
171.49
195.45
213.56
224.45
228.33
226.93
222.77
218.00
213.02
205.94
193.21
171.33
138.91
97.83
52.72
9.39
-27.25
-54.51
-72.41
-83.21
-90.52
-98.15
-108.91
-123.61
-140.51
-155.82
-165.07
-165.02
-155.10
-137.60
-116.69
-96.88
-81.65
-73.11
-72.32
-79.68
-94.99
-117.01
-143.10
-169.31
-191.26
-205.44
-210.22
-206.40
-196.74
-184.74
-173.43
-164.35
-157.21
-150.28
-141.14
-127.60
-108.52
-84.15
-56.22
-27.44
-0.81
21.21
37.28
47.45
52.85
55.07
55.65
55.94
57.13
60.33
66.49
76.14
89.28
105.63
125.24
148.86
177.73
212.57
252.19
292.90
328.91
354.17
364.46
358.69
338.98
309.38
274.33
237.55
201.90
169.88
143.89
126.19
118.27
120.16
130.01
144.34
158.66
168.36
169.70
160.72
141.99
116.73
90.24
68.52
56.55
56.95
69.57
92.14
121.20
152.96
183.57
209.09
225.55
229.83
220.60
199.01
168.55
133.66
98.17
64.05
31.14
-2.30
-38.64
-79.89
-126.80
-178.02
-229.80
-276.38
-311.49
-330.32
-331.19
-316.02
-289.34
-256.52
-222.13
-189.20
-159.47
-134.19
-114.44
-100.85
-92.66
-86.90
-78.33
-60.55
-28.25
20.31
81.57
146.85
204.79
245.23
262.76
258.11
236.57
204.38
165.75
122.11
74.19
25.09
-18.27
-46.45
-51.34
-30.00
13.46
69.20
125.29
171.59
202.16
215.46
213.02
197.65
172.52
141.04
107.21
75.53
50.18
33.69
25.81
23.36
21.01
13.07
-4.76
-34.28
-74.72
-123.33
-176.09
-228.33
-275.22
-312.38
-336.92
-348.31
-348.76
-342.59
-334.66
-328.64
-325.84
-325.15
-323.93
-319.22
-308.93
-292.37
-270.27
-244.48
-217.31
-191.04
-167.39
-147.13
-129.98
-114.71
-99.61
-83.09
-64.42
-44.07
-23.79
-6.03
6.91
13.69
14.42
10.43
3.68
-4.04
-11.62
-18.70
-25.37
-31.70
-37.42
-41.75
-43.57
-41.70
-35.20
-23.53
-6.73
14.56
39.09
65.04
90.17
112.05
128.44
137.68
139.07
133.06
121.22
105.90
89.53
74.08
60.50
48.77
38.26
28.48
19.70
12.95
9.56
10.25
14.42
20.10
24.58
25.43
21.41
12.94
1.74
-9.72
-18.99
-24.23
-24.56
-20.15
-12.13
-2.32
7.54
16.36
24.24
32.27
41.85
53.81
67.71
81.91
94.11
102.40
105.93
105.13
101.34
96.18
91.08
86.95
84.24
83.02
82.98
83.28
82.43
78.45
69.55
55.01
35.83
14.65
-5.05
-20.23
-29.51
-33.46
-34.07
-33.73
-34.15
-35.99
-38.96
-42.41
-45.72
-48.43
-50.19
-50.66
-49.71
-47.63
-45.30
-43.91
-44.49
-47.26
-51.30
-54.71
-55.16
-50.75
-40.61
-25.25
-6.37
13.58
32.09
47.10
57.44
62.99
64.59
63.84
62.64
62.81
65.61
71.46
79.85
89.44
98.53
105.44
109.06
109.06
105.91
100.69
94.65
88.92
84.13
80.35
76.98
73.08
67.75
60.65
52.30
43.98
37.14
32.74
30.69
29.81
28.36
24.61
17.38
6.15
-8.97
-27.30
-47.54
-67.74
-85.58
-98.78
-105.70
-105.59
-98.55
-85.23
-66.58
-43.81
-18.42
7.68
32.41
53.84
70.49
81.50
86.41
85.10
77.68
64.65
46.93
25.68
1.80
-24.43
-53.48
-86.18
-122.79
-162.13
-201.06
-234.85
-258.38
-267.75
-261.66
-241.86
-212.62
-179.31
-146.90
-118.86
-96.88
-81.17
-71.07
-65.53
-63.29
-62.98
-63.25
-62.99
-61.66
-59.32
-56.64
-54.48
-53.69
-54.79
-57.98
-63.10
-69.77
-77.48
-85.68
-93.79
-101.17
-107.03
-110.34
-109.80
-104.19
-92.67
-75.35
-53.38
-28.86
-4.25
18.28
37.34
52.57
64.34
73.47
80.75
86.79
91.89
96.19
99.67
102.25
103.80
104.22
103.56
102.01
99.91
97.60
95.31
93.12
90.95
88.62
85.89
82.55
78.38
73.27
67.22
60.38
53.14
45.94
39.28
33.48
28.69
24.79
21.44
18.15
14.37
9.70
4.02
-2.18
-7.98
-12.23
-14.09
-13.40
-10.82
-7.53
-4.53
-2.00
1.05
6.52
16.69
33.33
57.06
87.01
120.75
154.68
184.74
207.38
220.44
223.85
219.83
212.33
205.86
203.90
207.41
214.12
219.08
216.37
201.60
173.85
136.31
95.20
57.30
27.70
8.37
-1.52
-4.13
-1.40
5.73
16.98
31.79
48.38
63.81
74.68
78.54
74.96
65.88
54.86
45.59
40.33
38.83
38.35
34.83
24.52
5.40
-22.34
-56.87
-95.81
-137.15
-179.55
-221.99
-263.13
-301.10
-333.71
-359.07
-376.09
-384.63
-385.27
-378.89
-366.36
-348.56
-326.59
-301.89
-276.11
-250.63
-226.09
-201.98
-176.89
-149.07
-117.44
-82.29
-45.58
-10.34
20.26
43.97
60.02
69.05
72.49
71.90
68.52
63.26
56.87
50.07
43.55
37.73
32.66
27.95
23.02
17.25
10.12
1.17
-9.91
-23.34
-39.10
-56.85
-75.95
-95.40
-113.87
-129.70
-141.10
-146.37
-144.37
-134.89
-118.80
-97.88
-74.44
-50.72
-28.45
-8.55
8.77
23.78
36.90
48.39
58.23
66.13
71.79
75.09
76.34
76.17
75.44
74.96
75.25
76.50
78.54
80.97
83.22
84.70
84.95
83.77
81.33
78.05
74.48
71.08
68.02
65.18
62.31
59.18
55.75
52.11
48.42
44.74
40.98
37.02
32.71
28.01
22.92
17.42
11.41
4.76
-2.49
-9.92
-16.67
-21.50
-23.15
-20.85
-14.49
-4.78
7.12
19.86
32.41
44.10
54.66
63.99
71.95
78.27
82.65
84.93
85.21
83.88
81.44
78.40
75.09
71.69
68.28
64.96
61.82
58.95
56.30
53.70
50.87
47.58
43.79
39.70
35.62
31.83
28.40
25.10
21.48
17.10
11.78
5.76
-0.25
-5.39
-8.91
-10.52
-10.49
-9.54
-8.59
-8.42
-9.52
-11.98
-15.52
-19.48
-22.95
-24.86
-24.17
-20.14
-12.54
-1.72
11.47
25.90
40.34
53.61
64.68
72.86
77.92
80.25
80.72
80.48
80.54
81.46
83.27
85.62
88.03
90.12
91.76
93.11
94.48
96.34
99.15
103.28
108.70
114.82
120.49
124.17
124.42
120.45
112.42
101.39
88.95
76.63
65.55
56.26
48.78
42.86
37.94
33.23
27.62
19.87
8.84
-6.00
-24.24
-44.42
-64.13
-80.49
-90.81
-93.29
-87.54
-74.85
-57.75
-39.25
-21.93
-7.16
4.87
14.68
22.67
28.62
31.65
30.75
25.33
15.63
2.63
-12.40
-28.32
-44.41
-60.28
-75.68
-90.24
-103.58
-115.50
-126.24
-136.54
-147.23
-158.64
-170.06
-179.63
-184.94
-183.99
-176.14
-162.45
-145.32
-127.45
-110.86
-96.48
-84.24
-73.66
-64.45
-56.69
-50.62
-46.28
-43.34
-41.13
-38.92
-36.20
-32.69
-28.34
-23.14
-16.98
-9.75
-1.31
8.37
19.16
30.76
42.71
54.48
65.54
75.45
83.93
90.90
96.48
100.84
104.18
106.65
108.18
108.62
107.69
105.14
100.88
94.97
87.62
78.97
68.95
57.16
43.04
26.14
6.64
-14.30
-34.40
-50.71
-60.52
-62.34
-56.76
-46.52
-35.64
-28.06
-26.24
-30.25
-37.88
-45.48
-49.15
-45.94
-34.62
-16.05
7.01
30.60
50.53
63.71
69.01
67.64
62.77
58.48
58.30
63.98
74.55
86.41
94.25
92.84
79.05
53.28
19.59
-15.65
-45.96
-66.90
-77.20
-78.37
-73.45
-65.45
-56.47
-47.67
-39.74
-33.28
-28.87
-26.74
-26.50
-27.13
-27.36
-26.22
-23.59
-20.31
-18.00
-18.52
-23.21
-32.29
-44.62
-58.01
-69.88
-78.17
-82.06
-82.13
-79.99
-77.55
-76.30
-76.82
-78.82
-81.45
-83.65
-84.38
-82.72
-77.98
-69.76
-58.20
-44.08
-28.66
-13.39
0.50
12.33
22.05
30.02
36.70
42.35
46.88
49.85
50.70
48.94
44.40
37.38
28.67
19.58
11.71
6.56
5.04
7.07
11.48
16.36
19.77
20.49
18.35
14.10
8.80
3.18
-2.59
-8.76
-15.40
-22.10
-27.85
-31.54
-32.52
-31.02
-28.05
-24.98
-23.00
-22.73
-24.19
-27.01
-30.72
-34.91
-39.29
-43.49
-46.92
-48.80
-48.27
-44.79
-38.32
-29.52
-19.54
-9.71
-1.13
5.62
10.50
13.84
16.09
17.63
18.66
19.27
19.60
19.79
20.01
20.34
20.80
21.34
21.91
22.48
22.96
23.22
23.05
22.32
21.03
19.32
17.37
15.26
12.92
10.28
7.36
4.45
2.02
0.52
0.16
0.77
1.88
2.92
3.41
3.05
1.66
-0.90
-4.94
-10.74
-18.35
-27.23
-36.12
-43.20
-46.58
-45.04
-38.49
-28.10
-15.81
-3.67
6.85
15.19
21.53
26.39
30.17
32.93
34.39
34.20
32.11
28.30
23.53
19.11
16.67
17.66
22.51
30.12
37.80
42.03
39.73
29.70
13.23
-6.12
-23.60
-34.60
-35.85
-26.09
-6.23
20.77
50.52
78.11
99.35
112.05
116.70
116.22
114.69
115.43
119.56
125.41
129.25
126.84
115.13
93.40
63.35
28.44
-7.31
-40.33
-68.10
-89.23
-103.13
-109.75
-109.53
-103.40
-93.00
-80.40
-67.78
-56.81
-48.21
-41.71
-36.37
-31.12
-25.28
-18.84
-12.31
-6.56
-2.36
-0.15
0.10
-1.17
-3.37
-5.92
-8.53
-11.23
-14.15
-17.32
-20.43
-22.79
-23.67
-22.59
-19.72
-15.91
-12.45
-10.70
-11.65
-15.77
-22.99
-32.76
-44.18
-56.07
-67.11
-76.08
-82.33
-85.93
-87.71
-88.84
-90.14
-91.63
-92.44
-91.28
-87.14
-79.88
-70.25
-59.40
-48.16
-36.75
-24.99
-12.86
-1.09
8.86
15.33
17.28
14.84
9.29
2.48
-3.72
-7.81
-8.63
-5.40
2.23
13.89
28.26
43.29
56.81
67.27
74.10
77.68
78.78
77.93
75.24
70.51
63.60
54.68
44.12
32.37
19.69
6.25
-7.70
-21.69
-35.06
-47.14
-57.53
-66.27
-73.78
-80.78
-88.10
-96.60
-107.02
-119.83
-134.91
-151.37
-167.54
-181.14
-189.85
-191.82
-186.10
-172.80
-152.93
-128.13
-100.35
-71.56
-43.66
-18.24
3.46
20.70
33.28
41.55
46.35
48.81
50.13
51.34
53.11
55.65
58.80
62.18
65.35
67.94
69.77
70.77
71.03
70.67
69.87
68.82
67.60
66.17
64.35
61.87
58.53
54.25
49.11
43.29
37.08
30.74
24.55
18.72
13.39
8.48
3.70
-1.34
-7.00
-13.35
-20.02
-26.19
-30.74
-32.58
-30.98
-25.86
-17.78
-7.81
2.84
13.22
22.85
31.76
40.20
48.37
56.07
62.72
67.56
70.00
69.91
67.73
64.32
60.61
57.34
54.83
53.09
51.91
51.14
50.69
50.47
50.26
49.68
48.28
45.81
42.31
38.20
34.07
30.43
27.45
24.90
22.36
19.39
15.88
11.97
8.05
4.48
1.36
-1.50
-4.50
-8.07
-12.46
-17.63
-23.32
-29.07
-34.37
-38.66
-41.52
-42.59
-41.68
-38.78
-33.95
-27.33
-19.01
-9.22
1.48
12.03
20.96
26.83
28.87
27.60
24.73
22.74
23.85
29.22
38.60
50.76
64.13
77.62
91.11
105.27
121.16
139.74
161.56
186.50
213.61
240.91
265.44
283.85
293.23
292.09
280.90
261.82
237.82
211.60
184.89
158.45
132.54
107.31
83.02
59.57
35.99
10.26
-20.47
-59.24
-108.23
-167.61
-234.47
-302.40
-362.30
-404.56
-422.07
-412.97
-381.46
-336.41
-287.90
-243.72
-207.21
-177.58
-152.04
-128.27
-105.92
-86.30
-71.13
-61.16
-55.64
-52.84
-50.94
-48.63
-45.30
-40.67
-34.42
-26.18
-15.75
-3.41
9.96
22.97
34.07
41.95
45.79
45.45
41.56
35.48
29.01
23.95
21.55
22.06
24.66
27.86
30.17
30.64
29.22
26.52
23.49
20.97
19.47
18.99
19.16
19.24
18.20
14.99
8.86
-0.25
-11.47
-23.19
-33.65
-41.53
-46.33
-48.37
-48.29
-46.54
-43.18
-37.98
-30.88
-22.32
-13.30
-5.13
1.01
4.51
5.52
4.81
3.54
2.98
4.13
7.49
12.90
19.65
26.71
33.16
38.40
42.26
44.87
46.44
47.11
46.96
46.10
44.76
43.32
42.11
41.31
40.84
40.40
39.62
38.15
35.82
32.62
28.78
24.60
20.46
16.70
13.55
11.26
10.10
10.41
12.48
16.36
21.67
27.54
32.76
36.14
36.92
35.01
31.05
26.14
21.40
17.71
15.60
15.38
17.35
21.89
29.33
39.69
52.50
66.79
81.38
95.34
108.31
120.56
132.68
145.15
158.04
170.95
183.25
194.36
203.83
211.16
215.50
215.41
209.11
195.07
172.76
143.11
108.26
70.79
32.71
-4.94
-41.93
-78.05
-112.47
-143.63
-169.78
-189.87
-203.98
-213.26
-219.29
-223.42
-226.41
-228.55
-229.84
-230.08
-228.74
-224.89
-217.28
-204.93
-187.59
-166.11
-142.26
-118.02
-94.93
-73.67
-54.18
-36.07
-19.23
-3.97
9.03
19.17
26.34
31.03
34.23
36.91
39.70
42.73
45.73
48.33
50.24
51.29
51.29
50.05
47.33
43.00
37.20
30.28
22.62
14.47
5.86
-3.25
-12.78
-22.33
-31.29
-39.00
-44.96
-49.00
-51.21
-51.83
-51.17
-49.53
-47.32
-45.08
-43.49
-43.25
-44.86
-48.57
-54.14
-61.02
-68.38
-75.28
-80.91
-84.88
-87.33
-89.01
-90.98
-94.05
-98.33
-102.86
-105.84
-105.25
-99.69
-88.96
-74.19
-57.38
-40.53
-24.95
-10.98
1.77
13.75
24.94
34.65
41.88
45.87
46.61
44.89
41.88
38.50
34.93
30.61
24.70
16.68
6.76
-4.01
-14.19
-22.45
-28.02
-30.90
-31.70
-31.26
-30.35
-29.37
-28.32
-26.95
-25.07
-22.78
-20.60
-19.25
-19.38
-21.32
-24.95
-29.80
-35.24
-40.64
-45.42
-48.97
-50.67
-49.94
-46.40
-40.08
-31.40
-21.12
-10.14
0.70
10.80
19.85
27.71
34.45
40.13
44.85
48.68
51.66
53.86
55.37
56.29
56.71
56.68
56.16
55.17
53.85
52.63
52.13
52.92
55.20
58.65
62.47
65.63
67.31
67.17
65.42
62.62
59.29
55.70
51.74
47.04
41.34
34.66
27.42
20.27
13.86
8.54
4.20
0.31
-3.89
-9.10
-15.73
-23.75
-32.62
-41.32
-48.47
-52.63
-52.65
-48.03
-39.16
-27.21
-13.78
-0.38
12.01
23.04
32.87
41.83
50.18
57.90
64.78
70.49
74.77
77.41
78.36
77.73
75.80
72.98
69.73
66.42
63.23
60.13
56.93
53.44
49.61
45.55
41.50
37.75
34.50
31.79
29.40
26.92
23.76
19.30
13.11
5.08
-4.50
-15.02
-25.65
-35.60
-44.16
-50.73
-54.81
-56.05
-54.44
-50.52
-45.51
-41.15
-39.18
-40.72
-45.75
-52.94
-60.01
-64.45
-64.35
-58.96
-48.83
-35.46
-20.73
-6.23
7.11
19.23
30.80
42.79
56.07
70.91
86.80
102.49
116.43
127.31
134.61
138.67
140.56
141.76
143.76
147.81
154.53
163.51
173.14
180.75
183.40
178.85
166.58
148.04
126.20
104.43
85.39
70.24
58.65
49.19
40.03
29.46
16.16
-0.78
-21.78
-46.73
-74.86
-104.72
-134.36
-161.71
-185.13
-203.90
-218.28
-229.14
-237.25
-242.67
-244.55
-241.52
-232.51
-217.39
-197.08
-173.27
-147.74
-121.96
-96.88
-73.19
-51.52
-32.56
-16.86
-4.59
4.61
11.63
17.52
23.13
28.84
34.51
39.64
43.64
46.06
46.76
45.95
44.18
42.22
40.92
40.94
42.52
45.36
48.62
51.21
52.13
50.82
47.30
41.99
35.50
28.21
20.13
11.16
1.29
-8.91
-18.28
-25.39
-29.09
-29.13
-26.34
-22.44
-19.33
-18.37
-19.79
-22.75
-25.86
-27.83
-28.13
-27.04
-25.37
-23.90
-22.77
-21.35
-18.45
-12.85
-3.83
8.41
22.87
38.04
52.28
64.20
72.86
77.85
79.41
78.43
76.29
74.62
74.62
76.63
79.80
82.39
82.34
78.13
69.42
57.19
43.44
30.44
20.01
12.84
8.33
4.75
-0.16
-8.49
-21.52
-39.27
-60.53
-83.27
-105.19
-124.36
-139.62
-150.61
-157.59
-161.10
-161.68
-159.81
-155.93
-150.58
-144.53
-138.64
-133.75
-130.32
-128.30
-127.03
-125.44
-122.32
-116.65
-107.95
-96.32
-82.41
-67.10
-51.27
-35.48
-19.87
-4.26
11.56
27.61
43.50
58.47
71.64
82.27
90.09
95.37
98.76
100.95
102.45
103.32
103.37
102.42
100.53
98.09
95.64
93.63
92.12
90.85
89.42
87.53
85.16
82.45
79.53
76.22
71.97
66.05
57.82
47.07
34.20
20.17
6.30
-6.13
-16.19
-23.54
-28.47
-31.87
-34.93
-38.90
-44.83
-53.29
-64.13
-76.38
-88.40
-98.22
-104.00
-104.58
-99.76
-90.28
-77.54
-63.19
-48.71
-35.19
-23.27
-13.07
-4.34
3.47
10.92
18.45
26.16
33.93
41.46
48.48
54.70
59.66
62.70
63.02
60.11
54.10
46.14
38.04
31.76
28.48
28.14
29.46
30.60
30.07
27.42
23.44
19.59
17.20
16.82
17.86
18.95
18.49
15.30
9.02
0.15
-10.20
-20.56
-29.46
-35.83
-39.48
-41.43
-43.85
-49.53
-60.66
-77.74
-98.84
-119.92
-136.11
-143.37
-139.82
-126.16
-105.13
-80.35
-55.25
-32.39
-13.19
2.00
13.86
23.88
33.95
45.76
60.05
76.26
92.56
106.39
115.30
117.66
113.08
102.38
87.32
70.31
53.80
39.83
29.56
23.00
19.30
17.28
16.02
15.22
14.98
15.43
16.34
17.04
16.76
15.08
12.16
8.65
5.33
2.72
0.92
-0.39
-1.69
-3.46
-6.12
-9.97
-15.19
-21.67
-28.88
-35.83
-41.28
-44.05
-43.39
-39.19
-31.87
-22.18
-10.83
1.63
14.85
28.46
41.93
54.53
65.50
74.29
80.82
85.46
88.95
92.15
95.69
99.73
103.95
107.58
109.79
109.97
108.01
104.47
100.33
96.81
95.06
95.97
100.02
107.26
117.20
128.86
140.91
151.83
160.17
164.58
163.94
157.28
143.89
123.59
97.00
65.71
32.18
-0.67
-30.30
-55.07
-74.76
-90.41
-103.73
-116.42
-129.29
-142.04
-153.45
-162.10
-167.17
-168.79
-167.94
-165.78
-163.01
-159.55
-154.79
-148.06
-139.05
-127.97
-115.32
-101.70
-87.69
-73.96
-61.37
-50.94
-43.45
-39.13
-37.37
-36.99
-36.71
-35.64
-33.56
-30.68
-27.38
-23.83
-19.95
-15.56
-10.55
-5.05
0.67
6.25
11.50
16.45
21.32
26.47
32.15
38.31
44.43
49.48
52.06
50.78
44.72
33.89
19.31
2.79
-13.50
-27.59
-38.19
-44.95
-48.51
-50.17
-51.35
-52.98
-55.02
-56.42
-55.57
-51.10
-42.57
-30.72
-17.19
-3.88
7.71
16.71
22.82
25.91
26.06
23.58
19.29
14.50
10.70
8.96
9.52
11.72
14.34
16.26
16.99
16.78
16.42
16.71
18.10
20.46
23.19
25.47
26.66
26.52
25.24
23.32
21.32
19.63
18.31
17.24
16.17
14.99
13.74
12.52
11.44
10.41
9.15
7.23
4.06
-1.08
-8.95
-20.14
-34.68
-51.71
-69.34
-84.85
-95.32
-98.31
-92.55
-78.25
-57.21
-32.45
-7.66
13.43
27.93
34.47
33.57
27.49
19.54
13.06
10.29
11.79
16.41
21.83
25.47
25.34
20.63
11.86
0.59
-11.10
-21.17
-28.15
-31.38
-31.09
-28.28
-24.39
-20.91
-18.98
-19.11
-21.08
-24.17
-27.39
-29.94
-31.42
-31.91
-31.82
-31.67
-31.92
-32.71
-34.00
-35.51
-36.96
-38.23
-39.49
-41.18
-43.84
-47.92
-53.45
-60.01
-66.77
-72.66
-76.66
-78.02
-76.32
-71.58
-64.19
-54.92
-44.77
-34.84
-26.03
-18.87
-13.33
-9.04
-5.45
-2.13
1.08
4.03
6.54
8.56
10.25
11.97
14.06
16.63
19.52
22.30
24.50
25.74
25.79
24.62
22.38
19.36
16.09
13.22
11.43
11.24
12.82
15.93
19.99
24.28
28.12
31.11
33.08
34.08
34.22
33.58
32.11
29.75
26.54
22.63
18.31
13.82
9.18
4.23
-1.26
-7.22
-13.04
-17.61
-19.62
-18.11
-12.84
-4.44
5.83
16.47
26.12
33.73
38.55
40.20
38.69
34.59
29.06
23.61
19.79
18.57
20.13
23.78
28.33
32.54
35.59
37.22
37.65
37.41
37.02
36.86
37.07
37.58
38.17
38.58
38.66
38.46
38.20
38.16
38.50
39.12
39.64
39.59
38.67
37.01
35.17
33.92
33.86
35.08
37.06
38.91
39.77
39.22
37.45
35.19
33.26
32.32
32.75
34.72
38.44
44.19
52.20
62.33
73.90
85.70
96.30
104.42
109.12
109.77
105.79
96.55
81.58
61.05
36.45
10.72
-12.06
-27.75
-33.34
-27.84
-12.48
9.85
35.58
61.30
84.34
102.80
115.43
121.41
120.48
113.16
100.94
86.27
71.97
60.34
52.21
46.54
40.91
32.76
20.94
6.73
-6.48
-14.49
-14.15
-4.71
12.03
32.43
52.32
67.97
76.65
76.58
66.96
47.95
20.75
-12.70
-50.10
-89.31
-128.67
-166.71
-201.90
-232.34
-255.87
-270.61
-275.49
-270.55
-256.94
-236.55
-211.49
-183.78
-155.00
-126.33
-98.59
-72.40
-48.27
-26.60
-7.48
9.39
24.68
39.14
53.11
66.18
77.24
84.91
88.24
87.05
82.00
74.03
63.90
52.03
38.73
24.61
10.84
-1.11
-10.02
-15.40
-17.73
-17.99
-17.13
-15.53
-12.93
-8.83
-3.07
3.73
10.02
13.66
12.71
6.21
-5.19
-19.19
-32.41
-41.46
-44.12
-40.11
-31.20
-20.58
-11.72
-7.34
-8.77
-15.85
-27.28
-41.08
-55.09
-67.39
-76.59
-82.08
-83.99
-82.99
-79.99
-75.72
-70.57
-64.58
-57.71
-50.16
-42.41
-35.16
-29.03
-24.27
-20.70
-17.82
-14.99
-11.69
-7.58
-2.54
3.26
9.32
14.75
18.28
18.56
14.49
5.63
-7.60
-23.92
-41.40
-57.88
-71.41
-80.68
-85.37
-86.17
-84.65
-82.67
-81.91
-83.37
-87.17
-92.58
-98.25
-102.38
-103.04
-98.46
-87.55
-70.29
-47.91
-22.76
2.38
24.99
43.49
57.33
66.87
72.86
76.08
77.15
76.58
74.89
72.75
70.92
70.01
70.27
71.47
72.99
74.11
74.46
74.23
74.11
75.01
77.49
81.50
86.26
90.50
92.87
92.33
88.44
81.44
72.14
61.61
50.92
40.88
32.10
24.91
19.44
15.43
11.93
7.30
-0.58
-13.60
-32.55
-56.70
-84.06
-112.17
-138.83
-162.26
-180.55
-191.14
-190.78
-176.49
-147.02
-103.88
-51.23
5.34
60.47
109.77
149.67
176.60
186.77
177.24
147.77
102.35
49.00
-2.47
-43.85
-71.10
-85.06
-89.84
-90.23
-89.37
-88.05
-85.50
-80.85
-74.15
-66.44
-58.97
-52.39
-46.45
-40.30
-33.18
-25.04
-16.61
-9.07
-3.44
-0.13
1.15
1.16
0.71
0.30
-0.07
-0.79
-2.36
-5.20
-9.52
-15.33
-22.57
-31.16
-41.06
-52.11
-63.82
-75.21
-84.78
-90.80
-91.64
-86.23
-74.38
-56.85
-35.29
-11.88
11.17
32.11
49.97
64.71
76.81
86.77
94.65
99.86
101.42
98.49
90.91
79.43
65.57
51.13
37.80
26.87
19.08
14.52
12.55
11.96
11.19
8.95
4.70
-1.15
-7.49
-13.08
-17.03
-19.11
-19.70
-19.48
-19.30
-19.96
-22.17
-26.33
-32.43
-39.84
-47.53
-54.40
-59.74
-63.51
-66.32
-69.17
-73.08
-78.76
-86.43
-95.70
-105.45
-113.83
-118.54
-117.37
-108.89
-92.96
-70.93
-45.15
-18.32
7.32
30.48
50.82
68.69
84.58
98.81
111.42
122.22
131.11
138.26
144.14
149.33
154.35
159.25
163.56
166.40
166.76
163.89
157.57
148.28
137.06
125.22
113.86
103.59
94.41
85.76
76.87
67.08
56.11
44.13
31.65
19.32
7.76
-2.65
-11.75
-19.63
-26.68
-33.53
-40.97
-49.71
-60.25
-72.69
-86.73
-101.98
-118.04
-134.57
-151.11
-166.67
-179.54
-187.50
-188.42
-181.21
-166.37
-145.92
-122.70
-99.38
-77.57
-57.60
-38.96
-20.99
-3.41
13.45
28.89
42.21
53.04
61.37
67.49
71.82
74.80
76.84
78.27
79.32
80.18
81.01
82.05
83.49
85.42
87.51
89.09
89.18
86.92
82.01
74.92
66.91
59.52
53.99
50.74
49.23
48.23
46.49
43.26
38.47
32.57
26.00
18.81
10.53
0.59
-11.42
-25.44
-41.03
-57.62
-74.49
-90.56
-104.16
-113.02
-114.80
-108.06
-93.01
-71.66
-47.21
-22.73
-0.16
20.05
38.46
55.64
71.35
84.35
93.00
96.12
93.76
87.33
79.09
71.31
65.37
61.36
58.33
54.95
50.27
44.25
37.64
31.43
26.15
21.42
16.03
8.55
-1.86
-14.94
-29.30
-42.94
-54.05
-61.70
-65.96
-67.63
-67.71
-66.92
-65.64
-64.05
-62.44
-61.30
-61.17
-62.50
-65.47
-69.92
-75.51
-81.64
-87.38
-91.35
-91.73
-86.60
-74.57
-55.38
-30.15
-1.15
28.86
57.41
82.83
104.44
122.19
136.27
146.74
153.48
156.38
155.63
151.82
145.74
138.14
129.46
119.83
109.32
98.33
87.64
78.30
71.07
66.07
62.61
59.46
55.29
49.06
40.23
28.82
15.44
1.27
-11.97
-22.53
-29.18
-31.88
-32.02
-31.87
-33.73
-38.90
-47.34
-57.90
-69.20
-80.18
-90.53
-100.39
-110.07
-119.88
-130.09
-140.97
-152.52
-163.90
-173.23
-177.71
-174.59
-162.30
-141.38
-114.37
-85.08
-57.22
-33.39
-14.70
-1.12
7.89
12.85
14.03
11.75
6.64
-0.33
-7.91
-14.98
-20.78
-25.14
-28.27
-30.44
-31.58
-30.98
-27.41
-19.51
-6.39
12.02
34.78
60.20
86.31
111.29
133.78
152.86
167.83
178.02
182.72
181.32
173.46
159.17
138.94
113.61
84.50
53.36
22.27
-6.73
-32.13
-53.47
-71.59
-88.24
-105.42
-124.41
-145.08
-165.79
-183.77
-195.97
-199.94
-194.57
-180.25
-158.87
-133.20
-106.27
-80.62
-57.76
-38.10
-21.07
-5.71
8.93
23.37
37.70
51.68
64.92
77.02
87.57
96.14
102.25
105.59
106.22
104.80
102.57
101.00
101.32
104.01
108.61
113.88
118.26
120.48
120.04
117.29
113.32
109.37
106.30
104.09
101.67
97.11
88.39
74.12
54.28
30.25
4.38
-20.91
-44.07
-64.89
-84.54
-104.99
-128.25
-155.43
-186.02
-217.56
-246.04
-266.84
-276.16
-272.11
-255.30
-228.39
-195.12
-159.12
-123.18
-89.15
-58.12
-30.71
-7.23
12.32
28.27
41.02
50.91
58.09
62.63
64.74
64.97
64.09
62.89
61.94
61.41
61.07
60.42
58.90
56.07
51.80
46.37
40.40
34.69
29.92
26.34
23.62
21.02
17.55
12.46
5.39
-3.43
-13.30
-23.38
-32.89
-41.43
-48.97
-55.84
-62.60
-69.94
-78.47
-88.57
-100.09
-112.11
-122.94
-130.47
-132.79
-128.76
-118.35
-102.43
-82.29
-59.18
-33.99
-7.37
20.02
47.32
73.41
97.13
117.39
133.30
144.15
149.53
149.45
144.61
136.42
126.75
117.40
109.49
103.25
98.16
93.43
88.61
83.78
79.50
76.34
74.49
73.53
72.62
70.82
67.60
62.99
57.53
52.07
47.30
43.54
40.52
37.49
33.49
27.73
19.92
10.41
0.03
-10.37
-20.25
-29.67
-39.12
-49.18
-60.13
-71.65
-82.86
-92.44
-98.89
-100.61
-96.15
-84.61
-66.33
-43.34
-19.33
1.19
14.57
19.53
17.91
13.93
12.36
16.47
26.75
41.23
56.74
70.64
81.79
90.53
97.83
104.38
110.15
114.63
117.67
119.93
123.06
129.06
139.28
153.60
170.17
186.00
198.01
204.14
204.05
199.10
191.62
184.10
178.69
176.90
179.53
186.56
196.81
207.86
216.33
218.82
212.95
198.09
175.27
146.54
114.18
80.39
47.48
18.21
-4.47
-18.30
-22.83
-20.02
-13.53
-7.26
-3.77
-3.52
-5.42
-8.09
-10.99
-14.46
-19.21
-25.33
-31.95
-37.96
-43.31
-49.90
-60.99
-79.44
-105.58
-136.19
-165.26
-186.16
-194.04
-187.04
-166.03
-133.58
-93.19
-49.23
-7.55
24.52
39.67
33.06
4.83
-39.03
-88.13
-131.15
-159.74
-171.09
-168.31
-158.72
-151.02
-152.67
-168.49
-200.24
-246.79
-304.18
-365.61
-421.93
-463.04
-480.47
-470.02
-433.38
-377.70
-313.05
-249.12
-192.34
-144.83
-104.94
-68.81
-32.28
7.48
50.71
94.55
133.31
160.18
169.50
159.13
131.39
92.38
49.72
10.32
-21.11
-42.45
-54.03
-58.51
-60.67
-66.65
-82.21
-110.43
-149.82
-194.15
-234.43
-262.18
-272.42
-264.92
-243.15
-211.98
-175.64
-137.10
-98.83
-63.79
-35.42
-16.70
-8.65
-9.75
-16.61
-25.52
-34.19
-42.31
-51.08
-61.67
-74.13
-86.97
-97.82
-104.41
-105.26
-99.83
-88.30
-71.28
-49.79
-25.43
-0.22
23.72
44.81
62.48
77.13
89.76
101.27
111.98
121.62
129.75
136.42
142.49
149.46
158.69
170.53
183.78
196.03
204.71
208.25
206.79
201.94
195.89
190.29
185.70
181.61
177.10
171.49
164.56
156.45
147.27
137.04
125.75
113.66
101.37
89.71
79.32
70.41
62.66
55.42
48.16
40.60
32.84
25.13
17.68
10.47
3.33
-3.80
-10.81
-17.46
-23.54
-29.18
-34.80
-40.93
-47.69
-54.51
-60.13
-62.98
-61.82
-56.32
-47.07
-35.36
-22.53
-9.53
3.20
15.53
27.30
38.04
47.08
53.80
57.98
59.93
60.44
60.43
60.54
60.85
60.92
60.08
58.01
55.12
52.59
51.89
54.09
59.19
66.00
72.55
76.98
78.31
76.81
73.75
70.66
68.55
67.53
66.96
65.95
64.00
61.23
58.28
55.74
53.81
52.03
49.47
45.10
38.09
27.98
14.68
-1.41
-19.25
-36.83
-51.45
-60.31
-61.44
-54.57
-41.36
-25.00
-9.12
3.46
11.61
16.15
19.40
24.14
32.47
44.99
60.62
77.14
92.12
104.06
112.85
119.67
126.20
133.73
142.81
153.50
166.06
181.24
199.87
221.82
244.96
265.23
277.94
279.82
270.59
253.10
231.82
210.59
191.02
172.26
152.35
130.01
105.81
81.84
60.45
42.73
27.90
13.79
-1.87
-20.30
-41.20
-63.27
-85.03
-105.82
-126.15
-147.45
-171.43
-199.66
-233.30
-272.79
-317.17
-363.03
-404.12
-432.31
-439.92
-422.86
-382.52
-325.47
-261.04
-197.95
-141.94
-95.07
-56.63
-24.32
4.91
34.81
69.03
109.70
155.64
201.33
237.83
255.82
249.42
218.47
168.95
111.03
56.26
14.89
-6.27
-5.42
13.37
40.79
64.65
73.88
62.91
34.51
-0.61
-27.75
-34.44
-15.92
22.71
68.69
107.19
127.41
126.04
107.06
78.12
46.17
14.55
-17.40
-52.36
-92.48
-137.81
-186.03
-233.29
-275.25
-307.60
-326.72
-330.46
-319.03
-295.51
-265.25
-234.28
-207.30
-186.29
-170.36
-156.96
-143.51
-129.02
-114.50
-102.65
-96.56
-98.63
-109.70
-128.85
-153.79
-181.36
-207.88
-229.24
-241.12
-239.50
-221.83
-188.13
-141.82
-89.39
-38.77
2.73
30.66
44.54
47.53
45.01
42.55
44.13
51.16
62.55
75.54
87.10
94.95
98.37
98.04
95.57
92.63
90.22
88.28
85.84
81.57
74.55
64.75
53.12
41.10
30.13
21.14
14.47
9.99
7.23
5.27
2.72
-2.08
-10.43
-22.47
-36.76
-50.54
-60.72
-65.26
-63.93
-58.26
-50.52
-42.51
-34.76
-26.54
-16.66
-4.53
9.27
23.11
35.04
43.76
49.06
51.73
52.92
53.38
53.11
51.39
47.44
40.87
32.15
22.53
13.64
6.93
3.15
2.11
2.75
3.50
2.83
-0.16
-5.38
-11.92
-18.36
-23.40
-26.35
-27.34
-27.16
-26.97
-27.78
-30.02
-33.32
-36.50
-37.99
-36.28
-30.52
-20.89
-8.56
4.69
17.14
27.79
36.66
44.66
53.24
63.62
76.29
90.62
105.06
117.64
126.73
131.63
132.91
132.14
131.26
131.80
134.32
138.13
141.75
143.44
142.09
137.79
131.97
126.98
125.32
128.32
135.23
142.86
146.08
139.13
117.34
78.79
25.78
-34.82
-92.65
-136.42
-157.49
-152.94
-126.81
-88.66
-49.83
-19.18
-0.15
9.35
14.36
19.40
25.74
31.21
32.04
25.43
10.89
-10.08
-35.49
-63.93
-94.51
-126.08
-156.09
-180.66
-195.73
-198.68
-189.36
-169.90
-143.62
-113.65
-82.25
-50.67
-19.43
11.65
43.58
77.97
116.27
158.77
203.90
248.29
287.87
319.12
339.78
349.23
348.23
338.59
322.86
304.02
284.96
267.80
253.39
241.08
229.20
215.84
199.68
180.38
158.51
135.25
111.95
89.82
69.75
52.25
37.56
25.87
17.41
12.47
11.28
13.62
18.56
24.40
28.97
30.26
27.17
19.85
9.64
-1.66
-12.61
-22.86
-33.35
-45.84
-62.35
-84.77
-114.64
-152.87
-198.93
-249.73
-298.95
-337.80
-357.46
-352.47
-323.21
-276.06
-220.82
-166.67
-118.94
-78.20
-42.38
-9.90
18.04
37.55
44.36
36.74
17.02
-9.20
-35.46
-57.07
-72.35
-82.21
-88.22
-90.92
-89.37
-82.04
-68.50
-50.47
-31.67
-16.35
-7.38
-5.21
-7.97
-12.84
-17.69
-22.07
-27.07
-34.23
-44.26
-56.35
-68.20
-76.91
-79.97
-76.10
-65.38
-49.03
-28.82
-6.62
16.05
37.36
57.76
77.33
96.52
115.95
136.01
156.73
177.48
197.02
212.72
223.49
227.74
224.80
215.31
201.09
184.67
168.55
154.58
141.72
132.07
125.08
120.00
116.00
112.30
108.07
102.58
95.40
81.25
66.54
51.95
38.01
24.74
11.55
-2.54
-18.45
-36.53
-67.10
-96.84
-124.38
-148.84
-170.34
-190.05
-209.80
-231.33
-255.56
-299.44
-342.62
-383.80
-422.24
-458.25
-493.12
-528.90
-568.11
-613.42
-689.62
-772.64
-860.85
-949.10
-1029.29
-1092.63
-1132.79
-1148.41
-1001.92
-882.91
-770.55
-668.81
-578.05
-496.10
-420.27
-349.01
-282.17
-220.16
-185.23
-151.09
-115.92
-78.24
-37.60
5.23
48.48
90.35
129.73
149.28
169.11
190.32
213.68
239.09
265.41
290.73
312.96
330.52
331.89
329.56
324.60
318.37
312.03
306.27
301.30
297.08
293.43
284.79
276.52
267.75
257.45
244.98
230.69
216.03
203.20
194.16
187.51
184.10
181.45
177.24
170.67
162.77
155.71
151.53
151.12
154.21
160.00
168.10
178.75
192.37
208.77
226.74
244.26
259.22
270.07
275.93
276.34
270.86
258.80
239.44
212.25
177.22
134.97
86.86
35.11
-17.34
-67.01
-110.44
-144.80
-168.57
-181.88
-186.58
-185.91
-183.82
-184.06
-189.08
-199.24
-212.68
-226.07
-235.88
-239.67
-236.69
-227.70
-214.19
-197.63
-179.10
-159.43
-139.70
-121.29
-105.72
-94.03
-86.30
-81.43
-77.58
-72.83
-65.90
-56.44
-44.96
-32.40
-19.53
-6.59
6.84
21.65
38.80
58.93
81.98
107.02
132.24
155.27
173.61
185.39
190.06
188.78
184.29
180.21
179.89
185.36
196.66
212.00
228.53
243.40
254.64
261.40
263.72
261.94
256.25
246.68
233.32
216.68
197.73
177.78
158.20
140.20
124.79
112.82
104.85
101.01
100.66
102.45
104.61
105.58
104.60
101.85
98.16
94.48
91.40
88.96
86.77
84.45
81.73
78.51
74.69
69.97
63.96
56.36
47.36
37.74
28.74
21.55
16.85
14.37
13.06
11.56
8.79
4.42
-1.07
-6.76
-11.72
-15.38
-17.63
-18.67
-18.87
-18.59
-18.21
-18.03
-18.32
-19.23
-20.60
-22.12
-23.38
-24.21
-24.88
-26.14
-29.08
-34.65
-43.19
-54.00
-65.30
-74.56
-79.26
-77.68
-69.42
-55.54
-38.01
-19.00
-0.26
17.17
32.81
46.45
57.92
67.09
73.90
78.53
81.18
81.89
80.50
76.69
70.32
61.70
51.60
40.96
30.52
20.56
10.88
1.16
-8.68
-18.32
-27.06
-34.13
-38.95
-41.20
-40.89
-38.19
-33.46
-27.34
-20.81
-15.20
-11.80
-11.48
-14.28
-19.35
-25.30
-30.88
-35.59
-39.90
-44.84
-51.31
-59.25
-67.39
-73.53
-75.34
-71.10
-60.23
-43.32
-21.77
2.60
27.89
52.40
74.80
94.26
110.64
124.27
135.57
144.74
151.64
155.97
157.90
158.25
158.56
160.73
166.41
176.66
191.57
210.18
230.43
249.39
263.72
270.50
268.17
257.02
239.04
217.07
193.67
170.20
146.80
122.96
98.49
74.02
50.95
30.68
13.86
0.01
-12.13
-23.85
-35.69
-47.33
-58.01
-67.48
-76.45
-86.36
-98.41
-112.56
-127.06
-138.97
-145.40
-144.59
-136.40
-121.90
-102.62
-80.16
-56.23
-33.05
-13.44
-0.36
4.20
0.21
-10.14
-22.94
-34.01
-40.33
-41.12
-38.26
-36.03
-39.84
-54.47
-81.97
-120.02
-161.76
-197.39
-217.34
-215.51
-191.31
-149.30
-96.90
-41.42
12.08
61.29
105.82
145.92
181.88
214.13
243.51
271.11
297.47
321.59
340.72
351.25
350.26
337.03
313.64
284.21
253.36
224.66
199.79
178.59
159.71
141.40
122.09
100.73
76.82
50.38
21.86
-8.03
-38.57
-69.27
-100.11
-131.61
-164.68
-200.29
-238.72
-279.15
-319.48
-356.98
-389.29
-415.37
-435.88
-452.66
-467.62
-481.55
-493.57
-501.31
-501.76
-492.31
-471.50
-439.46
-397.86
-349.74
-298.90
-249.32
-204.29
-165.79
-134.20
-108.41
-86.44
-66.03
-45.34
-23.41
-0.30
23.00
44.94
63.99
79.35
91.30
101.31
111.61
124.50
141.73
163.86
190.16
218.69
246.94
272.33
292.94
307.68
316.26
318.94
316.12
308.32
296.22
280.77
263.15
244.65
226.21
208.20
190.38
171.98
152.10
129.86
104.68
76.53
46.23
15.67
-12.44
-35.26
-50.78
-58.65
-60.39
-59.01
-57.87
-59.64
-65.42
-74.70
-85.66
-95.99
-103.56
-107.18
-106.88
-103.99
-100.67
-99.20
-101.14
-106.65
-114.32
-121.45
-125.07
-123.41
-117.12
-109.45
-105.26
-109.16
-123.50
-147.23
-175.87
-203.01
-222.61
-230.96
-227.37
-213.65
-193.15
-169.36
-144.96
-121.23
-98.35
-76.29
-55.50
-36.63
-19.60
-3.54
12.95
30.47
47.86
61.68
66.98
59.34
37.45
6.97
-21.36
-35.86
-30.96
-9.93
18.71
46.97
70.53
88.91
103.80
116.76
128.07
136.73
141.84
143.23
142.02
139.98
138.78
139.44
141.73
144.40
145.36
143.20
137.32
128.69
119.17
110.80
105.00
102.04
100.96
99.91
97.39
91.96
83.58
73.18
61.92
50.30
37.56
21.32
-2.50
-32.09
-67.10
-106.48
-148.68
-192.01
-234.55
-273.70
-305.97
-327.55
-335.40
-329.43
-311.67
-285.27
-252.60
-214.02
-168.09
-113.68
-51.90
13.11
74.34
125.17
161.78
184.17
195.52
200.29
202.23
203.69
205.67
207.55
207.90
204.93
197.27
184.85
169.40
153.59
140.41
131.88
127.78
125.96
123.63
118.91
111.75
103.60
94.90
85.54
74.92
62.00
45.67
25.26
1.14
-25.52
-53.25
-83.47
-117.19
-153.80
-191.75
-230.57
-271.88
-318.54
-372.50
-432.66
-497.47
-559.96
-608.51
-631.62
-623.59
-586.55
-528.34
-459.39
-390.40
-336.03
-306.82
-305.17
-325.43
-357.07
-388.22
-408.41
-411.42
-364.27
-260.78
-124.61
6.96
108.73
175.76
214.71
234.48
242.13
241.66
233.32
218.33
201.25
188.13
182.67
184.84
192.66
204.79
219.71
234.27
248.47
265.92
290.51
321.83
353.32
374.41
374.44
346.65
288.83
207.09
115.59
32.12
-27.94
-55.94
-50.86
-18.11
32.65
88.94
138.62
171.88
182.19
166.84
127.94
73.00
14.00
-36.10
-67.79
-77.89
-69.87
-51.39
-30.39
-11.83
3.85
19.14
36.08
53.56
66.33
66.70
47.77
6.90
-52.68
-122.54
-191.58
-249.49
-289.28
-308.39
-307.73
-290.07
-258.62
-216.54
-167.22
-114.71
-63.62
-18.06
19.54
49.30
73.93
97.54
123.89
154.74
188.91
222.38
249.85
266.17
268.23
256.08
232.94
203.96
174.24
147.10
123.39
102.36
82.65
63.36
44.53
27.08
12.56
2.86
-0.29
3.99
15.16
29.81
41.68
43.11
27.65
-7.28
-59.08
-120.48
-181.63
-231.55
-262.55
-272.34
-264.04
-243.85
-218.28
-192.14
-167.84
-145.82
-122.67
-95.94
-65.81
-34.81
-5.32
22.35
49.98
79.94
113.66
155.59
207.35
266.45
326.83
382.19
428.49
464.34
490.12
507.33
524.28
547.90
580.19
616.87
650.68
675.02
685.91
682.52
629.42
512.01
343.36
159.70
-3.82
-130.17
-219.29
-278.73
-316.57
-339.16
-345.42
-335.55
-313.83
-288.83
-268.46
-256.31
-252.07
-253.21
-257.06
-257.56
-251.54
-240.32
-230.06
-226.95
-233.91
-249.84
-270.93
-292.87
-310.00
-320.39
-320.83
-313.85
-302.61
-288.31
-269.92
-245.63
-214.71
-176.97
-134.30
-89.97
-48.41
-12.65
15.95
36.97
50.24
55.75
54.56
48.10
37.66
22.95
3.43
-21.23
-50.48
-82.17
-112.76
-138.37
-156.39
-166.34
-170.57
-171.65
-172.07
-173.52
-176.48
-180.01
-181.90
-179.49
-169.86
-151.07
-120.51
-77.63
-24.96
32.21
87.73
136.52
175.31
203.45
221.63
234.33
245.54
257.16
269.00
280.72
293.23
307.63
325.24
345.51
370.37
400.66
435.23
470.75
503.00
527.88
540.98
540.02
500.52
413.26
290.24
160.07
48.97
-32.58
-84.17
-120.29
-150.23
-177.47
-198.32
-209.75
-212.46
-211.80
-214.75
-226.57
-250.35
-285.48
-329.97
-377.54
-421.07
-454.15
-472.18
-472.41
-454.05
-419.50
-372.87
-319.97
-264.42
-208.39
-153.14
-99.86
-49.71
-3.58
37.56
73.64
105.08
134.03
163.11
194.08
226.45
256.97
280.23
290.17
282.74
257.27
217.18
168.32
116.52
65.81
17.93
-26.62
-67.44
-103.61
-134.17
-158.98
-179.19
-197.04
-214.92
-234.14
-254.05
-271.85
-283.28
-283.97
-271.14
-244.88
-208.45
-167.37
-127.43
-92.73
-64.51
-41.50
-21.28
-1.93
17.06
35.00
51.12
65.49
79.56
95.90
117.45
146.36
182.94
225.08
268.24
306.63
334.95
350.17
352.49
344.71
330.53
312.68
292.10
268.26
240.38
208.51
173.84
138.14
103.09
69.77
38.95
11.68
-10.47
-25.92
-33.95
-35.14
-31.14
-24.04
-15.84
-7.94
-0.54
7.12
16.36
28.17
42.40
57.15
68.82
72.41
63.36
40.09
5.44
-33.73
-68.85
-92.47
-100.31
-92.13
-71.80
-45.81
-20.89
-2.40
6.42
4.33
-7.76
-28.11
-50.20
-65.45
-68.32
-58.96
-41.34
-19.72
2.73
24.21
43.88
61.47
76.43
87.83
96.12
102.62
109.08
116.51
125.08
134.26
143.29
151.02
156.25
158.32
156.92
154.46
152.26
150.90
150.37
150.32
150.04
148.69
145.83
141.51
136.16
129.84
122.53
114.06
104.34
93.20
80.61
66.85
52.49
38.29
24.70
12.10
0.65
-9.52
-18.48
-26.28
-32.97
-38.55
-42.94
-46.16
-48.23
-49.11
-48.74
-47.07
-44.12
-40.02
-35.03
-29.50
-23.92
-18.69
-14.06
-10.10
-6.74
-3.88
-1.46
0.39
1.42
1.30
-0.19
-3.00
-6.80
-11.09
-15.45
-19.81
-24.54
-30.41
-38.28
-48.69
-61.60
-76.35
-91.91
-107.35
-122.30
-137.20
-153.08
-171.10
-191.99
-216.08
-242.71
-270.54
-298.12
-324.80
-350.76
-376.72
-403.50
-431.91
-463.39
-498.94
-538.13
-578.01
-612.64
-633.84
-633.30
-605.50
-550.05
-473.25
-384.65
-293.66
-206.97
-128.11
-58.00
3.81
58.31
106.85
148.41
184.44
219.22
257.19
299.26
341.24
375.45
393.90
391.74
362.37
307.14
235.26
159.24
88.23
25.24
-30.50
-80.58
-125.63
-175.68
-235.31
-301.28
-365.98
-424.50
-477.45
-528.53
-581.25
-636.41
-705.10
-788.04
-872.79
-940.27
-977.21
-982.51
-963.97
-932.72
-817.53
-600.57
-322.18
-52.02
163.11
312.22
403.15
450.64
466.54
468.26
453.61
422.50
382.48
347.90
329.01
326.05
336.25
357.81
389.45
418.79
438.51
449.30
460.15
476.94
494.55
508.29
517.37
522.23
516.94
499.24
472.06
445.70
427.00
410.64
392.70
373.58
353.74
330.06
300.90
239.13
136.71
40.79
-33.57
-96.82
-150.54
-194.30
-228.21
-252.01
-265.44
-264.52
-248.32
-225.62
-201.46
-175.03
-145.02
-110.29
-70.78
-28.04
18.16
65.73
106.20
135.54
155.89
171.37
187.43
209.49
241.25
285.07
338.00
388.61
424.90
437.89
422.15
378.35
314.05
242.02
177.59
132.79
111.04
108.71
116.86
124.02
120.93
104.05
75.91
43.18
12.35
-13.83
-36.01
-56.58
-77.88
-101.00
-125.81
-152.43
-182.03
-216.00
-254.25
-293.49
-327.24
-347.54
-347.99
-325.77
-283.53
-228.48
-169.74
-115.10
-68.55
-29.95
4.10
37.60
74.52
115.79
158.98
199.39
232.06
253.37
261.37
256.89
242.77
225.55
211.43
203.77
201.78
201.38
197.61
186.58
168.58
146.43
126.55
112.83
104.73
98.57
91.20
83.17
77.76
80.50
74.57
47.79
-3.39
-71.74
-145.54
-214.88
-267.44
-303.92
-324.14
-327.56
-311.01
-273.09
-217.58
-152.82
-90.79
-43.72
-20.71
-21.86
-38.92
-55.71
-56.65
-33.31
12.76
72.34
133.89
187.95
231.08
263.47
287.80
305.21
314.57
313.91
302.54
282.24
256.23
228.75
202.59
179.38
158.76
138.84
117.03
91.12
60.31
25.60
-9.99
-42.91
-70.26
-91.24
-107.59
-122.77
-140.52
-163.70
-193.66
-230.14
-271.47
-314.12
-352.36
-378.81
-386.45
-371.78
-337.40
-292.37
-249.50
-220.67
-212.20
-222.85
-245.11
-268.93
-285.77
-290.94
-283.67
-265.43
-238.12
-203.08
-161.03
-112.80
-59.86
-4.53
50.47
102.64
150.02
191.23
225.13
250.14
263.68
262.30
242.63
203.24
146.13
77.36
6.17
-57.41
-105.98
-137.52
-156.04
-169.19
-184.05
-203.57
-225.34
-242.91
-249.18
-240.00
-216.18
-182.52
-145.11
-108.15
-73.16
-39.94
-8.07
21.91
48.34
69.14
82.08
84.30
75.21
57.63
36.04
13.92
-7.40
-28.10
-48.71
-68.67
-87.25
-102.72
-113.51
-119.28
-120.93
-119.87
-117.06
-112.30
-105.91
-97.23
-85.18
-69.26
-50.02
-28.81
-7.02
14.52
35.78
57.43
80.69
106.95
136.78
169.28
201.86
230.65
251.45
260.96
257.86
243.59
221.90
197.63
175.05
156.73
143.20
133.28
125.05
116.78
107.57
97.48
86.95
76.26
65.11
52.70
38.14
21.09
2.16
-16.91
-33.85
-46.82
-55.30
-60.56
-65.11
-71.34
-80.23
-90.55
-99.22
-102.72
-98.53
-86.19
-67.11
-43.59
-17.63
9.50
36.71
62.09
82.35
93.41
91.90
76.93
50.89
18.84
-12.93
-38.82
-54.89
-59.08
-50.38
-28.55
5.64
49.87
99.82
149.37
191.64
220.70
233.27
229.98
215.19
195.67
178.43
168.53
167.66
174.09
184.08
193.75
201.01
205.27
206.40
203.31
193.40
173.27
140.09
93.34
35.40
-28.18
-90.83
-146.64
-191.27
-222.35
-239.24
-242.85
-235.33
-219.56
-197.30
-170.86
-143.28
-117.80
-96.47
-78.82
-61.72
-40.40
-10.46
32.28
87.27
148.77
208.19
257.94
294.40
317.95
331.23
337.03
339.94
342.29
343.57
341.76
335.15
323.33
306.64
285.64
243.26
174.64
89.28
6.08
-58.76
-99.47
-118.88
-123.42
-119.17
-110.38
-97.36
-80.09
-60.17
-40.46
-23.54
-10.63
-1.73
3.64
5.71
5.56
5.90
7.23
8.73
9.32
8.43
6.10
2.67
-1.37
-6.10
-11.22
-16.46
-21.62
-27.04
-33.66
-42.62
-54.72
-70.04
-91.22
-118.60
-149.83
-181.08
-209.59
-234.98
-258.57
-281.92
-305.65
-335.53
-373.50
-416.31
-457.64
-492.65
-520.33
-542.67
-562.95
-584.40
-618.38
-670.75
-737.89
-807.87
-866.64
-903.22
-912.16
-893.93
-803.64
-633.97
-416.15
-201.24
-26.17
99.13
181.97
233.95
262.27
276.89
275.71
259.01
233.03
207.76
191.11
186.21
191.01
202.38
218.05
229.79
233.64
231.63
229.60
232.49
241.75
256.03
273.58
293.20
309.89
321.36
328.97
336.06
344.57
353.41
359.36
360.15
354.89
342.23
323.56
303.10
286.26
277.07
277.07
285.35
300.92
321.18
341.05
354.61
356.66
344.16
317.04
278.91
236.14
197.49
168.46
148.86
133.27
114.43
87.08
50.36
8.29
-43.15
-99.40
-151.36
-190.39
-214.04
-226.28
-232.87
-240.99
-253.80
-270.45
-284.87
-290.01
-278.93
-247.74
-197.54
-135.39
-73.58
-25.80
-3.14
-8.99
-39.68
-86.17
-137.27
-182.49
-214.37
-229.56
-228.06
-212.65
-187.02
-156.53
-127.55
-106.41
-96.99
-99.08
-108.16
-116.86
-118.14
-107.48
-84.99
-54.73
-22.83
4.78
23.34
29.21
19.79
-5.93
-45.89
-94.08
-140.97
-176.12
-191.51
-184.45
-158.14
-119.60
-76.40
-33.78
6.34
44.21
80.37
114.09
143.08
164.47
176.44
179.33
175.93
170.38
166.42
165.72
166.99
166.73
161.13
148.52
130.69
112.29
98.42
91.70
90.73
90.88
87.08
76.94
62.40
48.77
42.12
46.44
62.03
85.92
113.33
139.17
158.93
168.91
166.39
150.12
120.99
82.05
37.95
-6.42
-47.09
-81.72
-109.61
-131.14
-147.27
-159.10
-167.73
-173.97
-178.13
-179.90
-178.45
-172.86
-162.65
-148.19
-130.57
-111.41
-92.23
-74.07
-57.23
-41.34
-25.79
-10.25
5.03
19.28
31.51
41.02
47.76
52.15
54.92
56.49
56.98
56.19
53.99
50.39
45.68
40.22
34.26
27.93
21.24
14.21
6.91
-0.50
-7.81
-14.72
-20.80
-25.61
-28.71
-29.94
-29.49
-27.99
-26.28
-25.28
-25.68
-27.85
-31.87
-37.51
-44.37
-51.77
-58.78
-64.17
-66.69
-65.30
-59.61
-50.06
-37.77
-24.19
-10.57
2.35
14.38
25.59
36.06
45.68
54.20
61.49
67.68
73.09
78.05
82.59
86.38
88.91
89.76
88.79
86.32
82.88
79.06
75.32
71.89
68.81
65.83
62.48
58.12
52.00
43.65
33.07
20.96
8.61
-2.48
-11.10
-16.60
-18.95
-18.41
-15.25
-9.59
-1.52
8.53
19.60
30.24
38.91
44.59
47.19
47.73
48.05
50.42
56.85
68.71
86.30
108.58
132.95
155.46
171.28
175.73
165.51
139.85
100.97
53.64
3.94
-42.44
-81.61
-112.02
-134.18
-149.73
-160.45
-167.63
-172.00
-173.87
-173.36
-170.38
-164.65
-155.71
-143.23
-127.38
-109.12
-90.07
-72.06
-56.56
-44.19
-34.69
-27.23
-20.91
-15.31
-10.67
-7.72
-7.36
-10.20
-16.18
-24.52
-33.85
-42.64
-49.69
-54.53
-57.39
-59.03
-60.13
-60.90
-60.68
-58.12
-51.48
-39.34
-21.23
1.95
27.98
53.81
76.39
93.51
104.30
109.21
109.57
106.85
102.18
96.09
88.75
80.25
70.86
61.07
51.43
42.37
34.10
26.73
20.35
15.18
11.60
10.00
10.65
13.43
17.74
22.51
26.49
28.56
28.19
25.66
21.96
18.42
16.20
15.81
17.02
18.98
20.65
21.22
20.31
17.97
14.45
10.06
5.04
-0.31
-5.53
-9.91
-12.47
-12.26
-8.62
-1.44
8.76
21.02
34.15
47.01
58.79
69.11
78.01
85.89
93.44
101.38
110.36
120.64
131.99
143.67
154.63
163.90
170.91
175.81
179.40
182.81
187.10
192.86
200.05
207.92
215.16
219.96
220.37
214.55
201.23
180.07
151.73
117.71
79.76
39.43
-2.07
-43.72
-84.25
-121.97
-155.09
-182.21
-202.96
-218.09
-229.05
-237.22
-243.38
-247.46
-248.84
-246.73
-240.58
-230.11
-215.40
-196.88
-175.56
-153.06
-131.53
-113.15
-99.44
-90.79
-86.38
-84.51
-83.33
-81.36
-77.79
-72.46
-65.50
-57.13
-47.65
-37.48
-27.36
-18.12
-10.51
-4.70
-0.10
4.42
10.09
17.55
26.56
36.07
44.76
51.73
57.01
61.55
66.74
73.70
82.63
92.70
102.42
110.37
115.88
119.35
122.05
125.40
130.22
136.25
142.06
145.51
144.38
137.15
123.51
104.62
82.83
61.13
42.26
27.90
18.22
12.02
7.32
2.16
-4.60
-12.84
-21.23
-27.70
-30.24
-27.69
-20.18
-9.16
3.16
14.71
24.50
33.00
42.02
53.88
70.26
91.11
114.20
135.47
150.14
154.36
146.43
127.28
99.91
67.96
34.21
-0.30
-36.01
-73.63
-112.87
-151.74
-187.07
-215.91
-236.91
-251.00
-260.86
-269.55
-279.08
-289.75
-300.53
-310.11
-317.92
-324.33
-329.89
-334.38
-336.34
-333.52
-324.18
-308.25
-287.60
-265.21
-243.59
-223.50
-203.64
-181.53
-155.09
-123.89
-89.54
-55.06
-23.72
1.95
20.67
32.17
36.91
35.75
30.02
21.61
12.95
6.61
4.63
8.04
16.46
28.38
41.68
54.30
64.77
72.51
77.89
81.97
86.17
91.85
99.91
110.38
122.36
134.14
143.67
149.25
150.01
146.09
138.28
127.56
114.48
99.05
81.11
60.89
39.59
19.38
2.89
-7.56
-10.67
-6.51
3.77
18.34
35.30
53.07
70.58
87.30
103.04
117.58
130.24
139.67
144.07
141.92
132.88
118.27
100.93
84.30
71.14
62.68
58.43
56.85
56.23
55.49
54.32
52.94
51.59
50.34
49.21
48.36
48.18
48.96
50.41
51.38
50.01
44.55
34.36
20.58
6.08
-5.57
-11.69
-11.87
-8.50
-6.08
-9.45
-21.94
-44.02
-73.18
-105.06
-135.14
-160.35
-179.79
-194.47
-206.12
-216.06
-224.35
-229.90
-231.20
-227.29
-218.34
-205.56
-190.61
-174.87
-158.89
-142.54
-125.45
-107.59
-89.53
-72.18
-56.41
-42.54
-30.24
-18.81
-7.67
3.26
13.46
22.05
28.19
31.50
32.21
31.11
29.22
27.42
26.20
25.50
24.83
23.50
20.95
16.93
11.59
5.39
-1.13
-7.54
-13.56
-19.13
-24.32
-29.28
-34.15
-39.04
-43.97
-48.77
-52.91
-55.46
-55.16
-50.76
-41.43
-27.19
-9.03
11.27
31.63
50.30
66.28
79.50
90.54
100.19
108.96
116.76
122.90
126.46
126.64
123.13
116.21
106.59
95.21
82.96
70.69
59.16
49.05
40.91
34.92
30.75
27.63
24.57
20.77
15.94
10.33
4.60
-0.60
-4.92
-8.33
-11.06
-13.35
-15.28
-16.84
-17.94
-18.63
-19.04
-19.36
-19.75
-20.31
-21.11
-22.29
-24.01
-26.33
-29.03
-31.42
-32.39
-30.62
-25.04
-15.19
-1.50
14.73
31.63
47.16
59.63
68.05
72.20
72.55
69.96
65.39
59.63
53.36
47.14
41.44
36.69
33.07
30.46
28.42
26.35
23.78
20.64
17.22
14.02
11.47
9.67
8.40
7.39
6.50
5.93
6.11
7.36
9.70
12.76
15.88
18.48
20.20
20.96
20.82
19.86
18.10
15.58
12.49
9.09
5.67
2.37
-0.85
-4.02
-6.91
-8.91
-9.05
-6.38
-0.34
8.92
20.58
33.41
46.18
57.99
68.36
77.24
84.90
91.77
98.41
105.31
112.59
119.76
125.66
128.70
127.48
121.38
110.85
97.34
82.73
68.72
56.37
46.06
37.57
30.45
24.17
18.23
12.27
6.06
-0.34
-6.55
-12.04
-16.36
-19.33
-21.22
-22.76
-24.87
-28.36
-33.55
-39.97
-46.54
-51.93
-55.24
-56.47
-56.69
-57.60
-60.82
-67.21
-76.46
-87.29
-97.83
-106.14
-110.61
-110.18
-104.40
-93.64
-79.04
-62.31
-45.29
-29.37
-15.15
-2.45
9.25
20.25
30.22
38.15
42.70
42.72
37.83
28.65
16.71
3.98
-7.59
-16.71
-22.85
-26.19
-27.15
-26.02
-22.64
-16.57
-7.47
4.59
18.96
34.56
50.33
65.40
79.25
91.48
101.68
109.30
113.76
114.79
112.63
108.14
102.41
96.39
90.39
84.03
76.34
66.31
53.31
37.48
19.79
1.90
-14.15
-26.28
-32.81
-32.75
-26.14
-14.13
1.22
17.43
32.23
44.17
52.88
58.84
62.93
65.75
67.34
67.27
65.07
60.66
54.53
47.58
40.66
34.24
28.38
22.98
18.07
13.99
11.11
9.47
8.53
7.18
4.08
-1.64
-9.96
-19.77
-29.29
-36.67
-40.78
-41.62
-40.37
-38.91
-39.12
-42.16
-48.07
-55.98
-64.48
-72.34
-78.90
-84.25
-88.93
-93.55
-98.34
-102.93
-106.47
-107.91
-106.42
-101.72
-94.22
-84.77
-74.44
-64.13
-54.41
-45.46
-37.21
-29.63
-22.82
-17.15
-12.99
-10.54
-9.66
-9.72
-9.91
-9.43
-7.91
-5.46
-2.74
-0.59
0.35
-0.12
-1.58
-3.31
-4.61
-5.08
-4.64
-3.38
-1.28
1.80
5.86
10.38
14.21
15.83
14.03
8.54
0.20
-9.35
-18.46
-26.21
-32.62
-38.38
-44.16
-50.33
-56.86
-63.78
-71.38
-80.19
-90.41
-101.34
-111.18
-117.41
-117.81
-111.40
-98.83
-82.18
-63.98
-46.40
-30.62
-16.93
-5.06
5.30
14.38
22.22
28.81
34.15
38.23
41.03
42.60
43.17
43.20
43.23
43.64
44.48
45.42
46.03
46.13
45.87
45.71
45.98
46.60
46.94
46.08
43.30
38.49
32.24
25.60
19.58
14.68
10.76
7.15
3.12
-1.73
-7.25
-12.86
-17.89
-21.97
-25.38
-28.86
-33.34
-39.46
-47.12
-55.44
-62.97
-68.09
-69.58
-66.87
-60.21
-50.42
-38.70
-26.24
-14.10
-3.17
5.86
12.48
16.53
18.18
18.04
16.99
15.96
15.75
16.77
19.10
22.52
26.63
30.89
34.73
37.63
39.26
39.65
39.07
37.96
36.58
34.95
32.82
29.90
26.16
21.91
17.74
14.20
11.47
9.26
6.91
3.67
-0.89
-6.70
-13.29
-19.96
-26.22
-31.96
-37.54
-43.63
-50.94
-59.94
-70.60
-82.32
-93.91
-103.79
-110.26
-111.89
-107.93
-98.51
-84.57
-67.55
-49.06
-30.53
-13.08
2.46
15.60
26.14
34.22
40.30
44.84
48.12
49.96
49.88
47.38
42.40
35.44
27.54
19.87
13.24
7.88
3.54
-0.28
-3.94
-7.55
-11.02
-14.37
-17.92
-22.17
-27.40
-33.13
-37.91
-39.68
-36.48
-27.39
-13.09
4.19
21.26
34.91
42.63
43.18
36.67
24.44
8.70
-7.98
-23.46
-36.68
-47.89
-58.30
-69.13
-80.44
-90.68
-97.09
-96.86
-88.51
-72.72
-52.17
-30.43
-10.72
5.12
16.76
24.92
30.58
34.33
36.31
36.38
34.54
31.12
26.73
21.95
17.17
12.38
7.22
1.17
-6.24
-15.29
-26.07
-38.66
-53.14
-69.59
-87.67
-106.30
-123.30
-135.76
-140.71
-136.28
-122.54
-101.80
-77.95
-55.18
-36.67
-23.74
-15.90
-11.64
-9.47
-8.63
-9.14
-11.44
-15.74
-21.83
-29.11
-36.96
-44.96
-52.91
-60.51
-67.07
-71.43
-72.08
-67.72
-57.71
-42.39
-23.12
-1.90
19.10
38.02
53.70
65.71
74.21
79.69
82.74
83.85
83.39
81.71
79.16
76.09
72.89
69.87
67.30
65.29
63.81
62.71
61.72
60.61
59.27
57.73
56.02
54.10
51.77
48.75
44.84
40.06
34.68
29.11
23.71
18.63
13.81
9.13
4.56
0.27
-3.40
-6.06
-7.51
-7.82
-7.41
-6.92
-7.04
-8.37
-11.23
-15.59
-20.99
-26.60
-31.38
-34.23
-34.23
-30.83
-23.92
-13.88
-1.46
12.41
26.77
40.83
54.06
66.11
76.89
86.40
94.79
102.28
109.19
115.70
121.84
127.41
131.98
135.19
136.85
137.24
137.02
137.08
138.18
140.61
143.98
147.18
148.68
147.09
141.82
133.57
124.44
117.36
115.03
118.54
126.41
134.50
136.99
128.03
103.68
63.35
10.59
-47.44
-101.60
-143.26
-166.70
-170.84
-159.21
-138.37
-115.40
-95.36
-80.18
-68.94
-59.29
-49.01
-36.96
-23.15
-8.08
7.87
24.83
43.54
65.16
91.13
122.37
158.40
196.55
232.11
259.09
272.01
267.64
245.99
210.40
166.71
122.08
83.59
56.93
45.10
47.89
61.87
81.21
99.19
109.76
108.74
94.27
66.64
27.91
-18.35
-67.27
-113.28
-150.91
-176.13
-187.33
-185.72
-174.70
-158.67
-141.59
-126.05
-113.17
-102.74
-94.12
-86.80
-80.63
-75.64
-71.84
-68.96
-66.44
-63.62
-59.83
-54.66
-48.08
-40.44
-32.15
-23.41
-14.13
-4.00
6.97
18.06
27.76
34.26
36.33
34.06
28.83
22.55
16.45
10.37
2.88
-7.67
-21.83
-38.47
-55.04
-68.49
-76.33
-77.32
-71.73
-61.45
-49.96
-41.64
-40.25
-47.09
-59.80
-73.05
-81.18
-81.50
-76.29
-72.01
-76.12
-93.21
-122.68
-159.40
-196.38
-227.98
-251.45
-266.48
-273.56
-272.80
-263.87
-247.06
-224.32
-199.35
-176.63
-159.89
-150.83
-148.52
-149.78
-150.37
-146.40
-135.58
-117.69
-94.40
-68.44
-42.50
-18.33
3.57
23.64
42.63
60.92
78.20
93.46
105.42
112.97
115.57
113.34
107.05
97.91
87.34
76.86
67.93
61.90
59.84
62.24
68.73
77.87
87.32
94.41
96.91
93.86
85.93
75.16
64.12
54.87
48.34
44.13
41.19
38.48
35.72
33.29
32.03
32.54
34.92
38.69
43.07
47.32
50.85
53.32
54.61
54.98
55.21
56.74
61.40
70.96
86.46
107.62
132.86
159.64
185.25
207.65
226.03
240.93
253.74
266.09
279.04
292.57
305.49
315.64
320.62
318.46
308.36
290.83
267.58
240.76
212.14
182.53
151.70
118.95
84.01
47.58
11.29
