1589889235.00
64.000000
-0.00
-0.00
-0.00
-0.00
-0.00
-0.00
-0.00
-0.00
-0.00
-0.00
0.00
0.01
0.01
-0.00
-0.03
-0.05
-0.05
0.00
0.13
0.36
0.66
1.01
1.37
1.72
2.06
2.40
2.79
3.25
3.80
4.43
5.08
5.73
6.35
6.94
7.56
8.24
9.02
9.99
11.06
12.15
13.18
14.12
15.04
16.07
17.41
19.15
21.50
24.28
27.25
30.18
32.94
35.60
38.46
41.88
46.10
51.48
57.69
64.32
70.91
77.22
83.33
89.65
96.69
104.81
114.44
125.16
136.39
147.56
158.34
168.83
179.45
191.17
202.31
214.91
229.69
247.14
266.63
285.67
300.04
304.78
295.90
271.86
234.69
188.37
137.76
86.84
37.76
-9.01
-53.85
-97.14
-139.01
-179.35
-218.85
-258.33
-298.01
-336.56
-370.74
-396.17
-408.85
-406.99
-391.71
-366.80
-337.29
-307.61
-280.37
-256.16
-234.30
-213.86
-194.38
-175.86
-158.57
-142.58
-127.62
-113.27
-99.26
-85.64
-72.79
-61.23
-51.23
-42.75
-35.43
-28.73
-22.17
-15.56
-9.05
-3.00
2.22
6.39
9.59
12.08
14.25
16.38
18.57
20.71
22.54
23.80
24.36
24.30
23.86
23.34
23.03
23.00
23.16
23.30
23.19
22.72
21.97
21.08
20.23
19.53
18.97
18.48
17.98
17.44
16.88
16.33
15.80
15.26
14.68
14.08
13.53
13.08
12.77
12.57
12.36
12.06
11.63
11.07
10.45
9.87
9.35
8.93
8.62
8.40
8.23
8.08
7.91
7.73
7.59
7.59
7.79
8.16
8.58
8.87
8.87
8.57
8.02
7.34
6.68
6.11
5.64
5.29
5.03
4.83
4.62
4.36
3.99
3.56
3.18
2.97
3.02
3.32
3.73
4.09
4.25
4.13
3.74
3.15
2.44
1.73
1.09
0.58
0.21
-0.07
-0.29
-0.51
-0.75
-1.00
-1.27
-1.62
-2.13
-2.88
-3.84
-4.90
-5.87
-6.58
-6.97
-7.12
-7.19
-7.34
-7.61
-7.95
-8.24
-8.33
-8.19
-7.87
-7.44
-7.03
-6.66
-6.34
-6.01
-5.60
-5.08
-4.44
-3.70
-2.94
-2.22
-1.61
-1.13
-0.74
-0.37
0.03
0.45
0.83
1.11
1.25
1.28
1.30
1.37
1.53
1.75
1.96
2.12
2.26
2.43
2.67
2.96
3.21
3.29
3.16
2.85
2.48
2.20
2.10
2.22
2.46
2.71
2.88
2.96
2.97
2.97
3.01
3.04
3.02
2.89
2.64
2.33
2.06
1.91
1.88
1.94
1.97
1.89
1.68
1.39
1.13
1.00
1.01
1.07
1.06
0.82
0.31
-0.45
-1.29
-2.04
-2.58
-2.86
-2.95
-2.98
-3.09
-3.38
-3.87
-4.54
-5.29
-6.04
-6.74
-7.37
-7.95
-8.50
-9.07
-9.67
-10.34
-11.09
-11.90
-12.75
-13.55
-14.25
-14.76
-15.03
-14.95
-14.32
-12.91
-10.43
-6.66
-1.49
5.06
12.77
21.19
29.66
37.31
43.30
47.01
48.25
47.34
44.92
41.67
38.04
34.13
29.86
25.27
20.69
16.65
13.55
11.34
9.54
7.48
4.75
1.49
-1.66
-3.93
-4.86
-4.55
-3.41
-1.88
-0.11
1.86
3.82
5.24
5.38
3.71
0.35
-3.94
-8.03
-11.13
-13.07
-14.28
-15.37
-16.66
-17.92
-18.66
-18.46
-17.30
-15.61
-13.98
-12.84
-12.27
-12.07
-11.90
-11.46
-10.64
-9.47
-8.07
-6.58
-5.10
-3.71
-2.46
-1.34
-0.39
0.34
0.81
0.97
0.80
0.35
-0.32
-1.09
-1.82
-2.35
-2.56
-2.30
-1.53
-0.27
1.30
2.94
4.38
5.39
5.81
5.56
4.57
2.89
0.71
-1.58
-3.47
-4.47
-4.33
-3.18
-1.55
-0.11
0.48
-0.15
-1.97
-4.48
-6.84
-8.05
-7.32
-4.48
-0.08
4.69
8.47
10.35
10.19
8.67
6.86
5.67
5.48
6.10
6.99
7.67
7.94
7.84
7.56
7.18
6.67
5.91
4.84
3.57
2.38
1.63
1.60
2.28
3.39
4.45
5.00
4.75
3.73
2.23
0.64
-0.66
-1.46
-1.72
-1.54
-1.14
-0.74
-0.53
-0.56
-0.73
-0.78
-0.42
0.56
2.16
4.19
6.31
8.15
9.45
10.10
10.08
9.45
8.30
6.74
4.91
3.01
1.27
-0.11
-1.03
-1.47
-1.52
-1.33
-1.04
-0.75
-0.52
-0.41
-0.42
-0.53
-0.72
-0.90
-1.02
-1.02
-0.92
-0.79
-0.70
-0.69
-0.76
-0.90
-1.11
-1.50
-2.25
-3.53
-5.34
-7.42
-9.27
-10.33
-10.23
-8.99
-6.98
-4.79
-2.96
-1.75
-1.15
-1.00
-1.16
-1.62
-2.44
-3.58
-4.77
-5.53
-5.30
-3.78
-1.05
2.31
5.47
7.65
8.36
7.57
5.64
3.19
0.80
-1.08
-2.22
-2.62
-2.45
-2.01
-1.63
-1.60
-2.08
-3.02
-4.17
-5.17
-5.70
-5.59
-4.93
-3.97
-3.09
-2.59
-2.64
-3.24
-4.14
-4.93
-5.09
-4.18
-1.97
1.37
5.32
9.09
11.91
13.30
13.21
11.92
9.92
7.64
5.43
3.50
2.06
1.30
1.35
2.12
3.30
4.39
4.96
4.84
4.17
3.33
2.72
2.51
2.63
2.85
2.91
2.66
2.08
1.26
0.28
-0.73
-1.60
-2.14
-2.20
-1.81
-1.16
-0.60
-0.44
-0.83
-1.70
-2.76
-3.70
-4.32
-4.52
-4.33
-3.81
-2.97
-1.83
-0.52
0.74
1.61
1.85
1.36
0.34
-0.80
-1.58
-1.72
-1.19
-0.23
0.78
1.53
1.87
1.88
1.73
1.61
1.66
1.97
2.57
3.39
4.27
4.95
5.10
4.51
3.16
1.28
-0.72
-2.38
-3.39
-3.64
-3.18
-2.19
-0.84
0.72
2.31
3.76
4.86
5.40
5.33
4.71
3.73
2.63
1.53
0.46
-0.67
-1.96
-3.36
-4.68
-5.64
-5.97
-5.60
-4.64
-3.34
-1.98
-0.78
0.17
0.85
1.27
1.48
1.54
1.52
1.47
1.37
1.11
0.61
-0.13
-1.01
-1.86
-2.55
-3.02
-3.38
-3.73
-4.11
-4.42
-4.52
-4.28
-3.71
-2.94
-2.18
-1.55
-1.09
-0.68
-0.19
0.49
1.40
2.52
3.75
4.88
5.67
5.90
5.46
4.49
3.31
2.36
1.96
2.19
2.81
3.39
3.55
3.13
2.26
1.20
0.28
-0.34
-0.62
-0.62
-0.41
-0.04
0.46
1.05
1.64
2.08
2.22
1.92
1.18
0.08
-1.15
-2.29
-3.13
-3.61
-3.75
-3.66
-3.40
-2.98
-2.34
-1.46
-0.41
0.64
1.51
2.03
2.16
1.99
1.68
1.42
1.35
1.53
1.92
2.37
2.67
2.67
2.31
1.68
0.97
0.37
-0.04
-0.28
-0.41
-0.50
-0.53
-0.42
-0.07
0.46
1.03
1.45
1.57
1.36
0.97
0.58
0.32
0.22
0.19
0.09
-0.14
-0.48
-0.78
-0.86
-0.61
0.04
1.02
2.18
3.32
4.24
4.83
5.10
5.24
5.51
6.13
7.04
7.85
7.82
6.17
2.40
-3.43
-10.57
-17.78
-23.62
-26.83
-26.65
-22.95
-16.25
-7.59
1.69
10.23
16.96
21.30
23.19
23.05
21.48
19.05
16.07
12.61
8.60
4.02
-1.01
-6.11
-10.83
-14.70
-17.49
-19.18
-19.93
-19.99
-19.52
-18.57
-17.17
-15.41
-13.60
-12.18
-11.62
-12.22
-13.86
-16.01
-17.79
-18.29
-16.80
-13.18
-7.84
-1.76
3.84
7.88
9.70
9.34
7.44
5.03
3.16
2.53
3.29
5.06
7.17
8.90
9.84
9.93
9.48
8.93
8.64
8.72
8.98
9.08
8.72
7.80
6.46
4.99
3.69
2.70
2.07
1.75
1.71
1.93
2.36
2.81
3.00
2.66
1.70
0.30
-1.08
-1.95
-1.96
-1.09
0.36
1.91
3.09
3.61
3.38
2.51
1.23
-0.20
-1.54
-2.62
-3.30
-3.51
-3.29
-2.78
-2.24
-1.96
-2.12
-2.76
-3.72
-4.73
-5.52
-5.97
-6.11
-6.09
-6.10
-6.22
-6.42
-6.57
-6.50
-6.06
-5.18
-3.87
-2.25
-0.45
1.34
2.98
4.30
5.10
5.23
4.58
3.23
1.42
-0.51
-2.29
-3.85
-5.28
-6.72
-8.19
-9.51
-10.45
-10.88
-10.91
-10.83
-10.84
-10.90
-10.70
-9.88
-8.27
-6.10
-3.91
-2.34
-1.89
-2.69
-4.63
-7.37
-10.52
-13.66
-16.33
-18.04
-18.37
-17.22
-14.87
-12.11
-9.96
-9.29
-10.40
-12.73
-15.00
-15.68
-13.73
-9.19
-3.30
1.92
4.53
3.58
-0.29
-4.88
-7.19
-4.57
4.18
18.16
34.68
50.27
61.96
68.29
69.61
67.56
64.13
60.78
58.11
56.08
54.48
53.35
52.81
52.76
52.44
50.62
46.09
38.51
28.76
18.77
10.57
5.24
2.41
0.48
-2.34
-6.97
-12.99
-18.90
-23.06
-24.61
-23.80
-21.66
-19.39
-17.68
-16.60
-15.80
-14.87
-13.71
-12.49
-11.62
-11.45
-12.18
-13.72
-15.64
-17.36
-18.27
-18.05
-16.76
-14.87
-12.96
-11.51
-10.60
-9.98
-9.27
-8.20
-6.78
-5.23
-3.86
-2.85
-2.20
-1.81
-1.52
-1.32
-1.30
-1.65
-2.55
-4.00
-5.74
-7.35
-8.33
-8.37
-7.47
-5.94
-4.28
-2.92
-2.11
-1.83
-1.89
-2.08
-2.21
-2.21
-2.11
-2.04
-2.14
-2.60
-3.53
-4.90
-6.51
-7.99
-8.96
-9.18
-8.65
-7.63
-6.53
-5.68
-5.26
-5.19
-5.27
-5.25
-4.98
-4.44
-3.73
-3.00
-2.41
-2.11
-2.17
-2.55
-3.05
-3.32
-3.00
-1.83
0.12
2.50
4.83
6.62
7.66
7.94
7.66
7.00
6.11
5.04
3.83
2.56
1.31
0.17
-0.82
-1.63
-2.27
-2.69
-2.82
-2.60
-2.01
-1.09
0.02
1.16
2.19
2.96
3.36
3.34
2.96
2.35
1.75
1.39
1.39
1.74
2.24
2.69
2.89
2.80
2.51
2.15
1.84
1.59
1.39
1.24
1.18
1.28
1.59
2.05
2.56
2.94
3.06
2.88
2.40
1.70
0.91
0.15
-0.50
-0.96
-1.26
-1.50
-1.87
-2.58
-3.80
-5.54
-7.63
-9.63
-10.97
-11.05
-9.50
-6.33
-2.02
2.59
6.61
9.35
10.56
10.34
9.08
7.22
5.07
2.87
0.78
-1.02
-2.33
-3.00
-3.03
-2.59
-1.95
-1.41
-1.17
-1.24
-1.52
-1.88
-2.21
-2.53
-2.93
-3.44
-4.02
-4.48
-4.55
-4.08
-3.05
-1.72
-0.45
0.40
0.68
0.50
0.16
0.01
0.21
0.64
1.01
1.02
0.61
0.00
-0.38
-0.14
0.82
2.23
3.53
4.16
3.83
2.64
1.01
-0.55
-1.67
-2.24
-2.37
-2.21
-1.90
-1.50
-1.14
-0.96
-1.16
-1.76
-2.61
-3.30
-3.41
-2.70
-1.28
0.41
1.85
2.64
2.74
2.41
2.01
1.84
1.90
2.02
1.93
1.47
0.67
-0.32
-1.24
-1.92
-2.31
-2.40
-2.29
-2.04
-1.70
-1.31
-0.89
-0.46
-0.01
0.45
0.95
1.52
2.16
2.89
3.65
4.34
4.85
5.03
4.82
4.24
3.46
2.66
2.01
1.59
1.35
1.20
1.07
0.97
0.99
1.25
1.79
2.55
3.33
3.88
4.00
3.67
3.04
2.37
1.91
1.79
1.98
2.33
2.63
2.71
2.47
1.81
0.66
-1.09
-3.46
-6.30
-9.15
-11.38
-12.39
-11.86
-9.92
-7.15
-4.33
-2.17
-1.07
-0.98
-1.52
-2.22
-2.68
-2.74
-2.38
-1.68
-0.71
0.45
1.70
2.81
3.49
3.39
2.32
0.30
-2.36
-5.17
-7.56
-9.11
-9.61
-9.14
-7.92
-6.26
-4.46
-2.74
-1.20
0.15
1.35
2.42
3.34
4.04
4.45
4.50
4.24
3.79
3.32
2.99
2.85
2.84
2.76
2.35
1.37
-0.27
-2.43
-4.76
-6.75
-7.90
-7.92
-6.91
-5.36
-3.97
-3.39
-3.91
-5.39
-7.22
-8.63
-8.96
-7.95
-5.85
-3.32
-1.18
-0.11
-0.45
-2.10
-4.63
-7.42
-9.72
-10.76
-9.83
-6.51
-0.90
6.22
13.54
19.60
23.33
24.44
23.43
21.23
18.82
16.83
15.46
14.67
14.32
14.31
14.55
14.87
15.03
14.80
14.10
13.01
11.72
10.47
9.37
8.41
7.48
6.38
4.97
3.17
1.00
-1.40
-3.79
-5.92
-7.58
-8.68
-9.31
-9.62
-9.81
-9.99
-10.14
-10.12
-9.79
-9.07
-8.01
-6.80
-5.66
-4.81
-4.31
-4.12
-4.14
-4.24
-4.33
-4.36
-4.30
-4.13
-3.80
-3.30
-2.63
-1.83
-1.02
-0.28
0.30
0.65
0.77
0.71
0.57
0.44
0.40
0.48
0.67
0.89
1.08
1.18
1.18
1.09
0.92
0.67
0.36
0.04
-0.23
-0.38
-0.40
-0.33
-0.20
-0.09
-0.03
-0.04
-0.11
-0.22
-0.36
-0.55
-0.78
-1.05
-1.28
-1.39
-1.28
-0.89
-0.23
0.58
1.37
1.96
2.21
2.10
1.72
1.22
0.75
0.37
0.10
-0.15
-0.47
-0.88
-1.34
-1.74
-1.97
-1.96
-1.75
-1.45
-1.18
-1.05
-1.08
-1.26
-1.58
-2.00
-2.49
-3.02
-3.52
-3.91
-4.11
-4.07
-3.76
-3.19
-2.35
-1.22
0.26
2.13
4.36
6.85
9.39
11.72
13.58
14.80
15.32
15.19
14.49
13.34
11.82
10.08
8.29
6.70
5.54
4.89
4.64
4.48
4.03
3.03
1.39
-0.72
-3.07
-5.37
-7.44
-9.14
-10.40
-11.13
-11.29
-10.91
-10.15
-9.28
-8.57
-8.22
-8.24
-8.45
-8.61
-8.45
-7.82
-6.73
-5.34
-3.82
-2.36
-1.09
-0.03
0.77
1.30
1.57
1.64
1.61
1.64
1.80
2.07
2.36
2.45
2.21
1.56
0.55
-0.70
-2.01
-3.23
-4.26
-5.01
-5.46
-5.62
-5.51
-5.20
-4.77
-4.33
-3.99
-3.78
-3.63
-3.38
-2.85
-1.92
-0.66
0.71
1.88
2.55
2.55
1.90
0.73
-0.63
-1.79
-2.28
-1.76
-0.12
2.35
5.06
7.31
8.58
8.73
8.02
6.86
5.63
4.44
3.23
1.89
0.46
-0.82
-1.61
-1.66
-0.96
0.24
1.53
2.49
2.85
2.52
1.58
0.27
-1.13
-2.32
-2.98
-2.91
-2.08
-0.67
0.90
2.12
2.54
2.00
0.68
-0.96
-2.36
-3.12
-3.13
-2.58
-1.85
-1.30
-1.14
-1.37
-1.85
-2.43
-2.94
-3.32
-3.52
-3.48
-3.13
-2.43
-1.40
-0.17
1.02
1.89
2.22
1.89
0.98
-0.30
-1.62
-2.63
-2.98
-2.45
-1.09
0.81
2.74
4.19
4.81
4.60
3.85
2.96
2.23
1.73
1.36
0.92
0.34
-0.30
-0.83
-1.20
-1.48
-1.88
-2.55
-3.39
-4.08
-4.13
-3.18
-1.19
1.52
4.38
6.78
8.27
8.70
8.11
6.74
4.86
2.78
0.79
-0.86
-2.00
-2.56
-2.64
-2.45
-2.22
-2.13
-2.20
-2.35
-2.42
-2.26
-1.82
-1.17
-0.43
0.22
0.64
0.75
0.57
0.18
-0.26
-0.57
-0.61
-0.33
0.22
0.86
1.38
1.61
1.51
1.13
0.63
0.14
-0.23
-0.41
-0.36
-0.08
0.37
0.87
1.28
1.47
1.36
0.98
0.48
0.04
-0.15
-0.02
0.41
0.94
1.32
1.31
0.80
-0.13
-1.26
-2.33
-3.14
-3.63
-3.88
-4.01
-4.10
-4.14
-4.11
-3.99
-3.84
-3.79
-3.98
-4.45
-5.07
-5.59
-5.72
-5.25
-4.18
-2.74
-1.34
-0.38
-0.09
-0.40
-1.00
-1.44
-1.33
-0.50
0.92
2.64
4.26
5.50
6.21
6.44
6.30
5.90
5.33
4.60
3.77
2.94
2.30
2.08
2.43
3.30
4.42
5.41
5.90
5.69
4.84
3.62
2.40
1.48
1.00
0.85
0.80
0.56
-0.12
-1.33
-3.04
-5.07
-7.11
-8.84
-9.91
-10.08
-9.27
-7.65
-5.59
-3.65
-2.30
-1.83
-2.20
-3.05
-3.88
-4.19
-3.71
-2.42
-0.55
1.49
3.26
4.34
4.51
3.81
2.55
1.21
0.25
-0.03
0.37
1.22
2.19
3.00
3.43
3.43
2.99
2.17
1.11
0.05
-0.71
-0.94
-0.64
-0.07
0.32
0.14
-0.73
-2.12
-3.62
-4.82
-5.50
-5.65
-5.38
-4.85
-4.17
-3.47
-2.90
-2.64
-2.84
-3.48
-4.34
-5.09
-5.38
-5.04
-4.15
-3.04
-2.16
-1.88
-2.35
-3.39
-4.49
-4.96
-4.22
-2.02
1.40
5.36
9.03
11.66
12.90
12.77
11.60
9.78
7.66
5.52
3.53
1.88
0.74
0.25
0.40
1.03
1.84
2.49
2.74
2.48
1.79
0.93
0.19
-0.23
-0.28
-0.09
0.11
0.19
0.14
0.17
0.54
1.48
2.99
4.86
6.71
8.16
8.92
8.92
8.26
7.24
6.16
5.29
4.74
4.50
4.48
4.54
4.62
4.71
4.80
4.90
4.93
4.76
4.25
3.31
1.87
-0.10
-2.57
-5.47
-8.65
-11.83
-14.58
-16.34
-16.52
-14.64
-10.51
-4.35
3.18
11.08
18.29
23.91
27.49
29.00
28.80
27.34
24.96
21.77
17.67
12.57
6.60
0.25
-5.72
-10.54
-13.71
-15.17
-15.29
-14.64
-13.70
-12.70
-11.58
-10.20
-8.55
-6.81
-5.32
-4.41
-4.23
-4.68
-5.45
-6.15
-6.47
-6.28
-5.63
-4.73
-3.82
-3.13
-2.75
-2.69
-2.86
-3.13
-3.38
-3.54
-3.57
-3.50
-3.39
-3.33
-3.37
-3.49
-3.61
-3.62
-3.46
-3.17
-2.82
-2.50
-2.23
-1.94
-1.53
-0.94
-0.24
0.41
0.84
0.99
0.91
0.75
0.65
0.66
0.76
0.88
0.99
1.09
1.20
1.27
1.23
1.01
0.62
0.17
-0.14
-0.16
0.07
0.42
0.65
0.62
0.35
0.01
-0.20
-0.16
0.09
0.37
0.50
0.36
0.01
-0.37
-0.56
-0.46
-0.11
0.32
0.61
0.63
0.36
-0.10
-0.58
-0.97
-1.22
-1.37
-1.47
-1.58
-1.72
-1.86
-1.98
-2.00
-1.88
-1.57
-1.09
-0.51
0.05
0.45
0.64
0.63
0.53
0.45
0.48
0.60
0.77
0.90
0.98
1.04
1.11
1.20
1.19
1.00
0.58
-0.01
-0.56
-0.89
-0.87
-0.52
-0.02
0.42
0.64
0.59
0.32
-0.04
-0.34
-0.50
-0.47
-0.27
0.02
0.31
0.49
0.51
0.36
0.05
-0.38
-0.86
-1.30
-1.62
-1.74
-1.63
-1.32
-0.92
-0.53
-0.22
-0.03
0.11
0.26
0.46
0.66
0.76
0.67
0.39
-0.02
-0.42
-0.69
-0.78
-0.72
-0.60
-0.47
-0.36
-0.25
-0.11
0.02
0.12
0.14
0.09
0.03
0.06
0.22
0.46
0.68
0.75
0.65
0.42
0.22
0.18
0.36
0.67
0.96
1.07
0.93
0.60
0.22
-0.07
-0.20
-0.20
-0.14
-0.09
-0.08
-0.09
-0.12
-0.17
-0.28
-0.43
-0.59
-0.67
-0.58
-0.31
0.08
0.48
0.78
0.93
0.93
0.84
0.70
0.56
0.43
0.30
0.18
0.03
-0.18
-0.45
-0.79
-1.13
-1.40
-1.54
-1.51
-1.34
-1.05
-0.65
-0.18
0.29
0.68
0.87
0.82
0.56
0.19
-0.16
-0.42
-0.56
-0.63
-0.66
-0.64
-0.50
-0.22
0.18
0.58
0.84
0.91
0.81
0.68
0.64
0.79
1.09
1.41
1.61
1.57
1.27
0.78
0.25
-0.19
-0.48
-0.60
-0.60
-0.54
-0.46
-0.38
-0.33
-0.30
-0.33
-0.40
-0.50
-0.57
-0.54
-0.37
-0.07
0.29
0.61
0.78
0.75
0.52
0.19
-0.14
-0.35
-0.38
-0.25
-0.04
0.14
0.22
0.20
0.12
0.04
-0.02
-0.02
0.01
0.08
0.22
0.42
0.67
0.88
0.93
0.77
0.39
-0.10
-0.53
-0.75
-0.71
-0.44
-0.09
0.22
0.36
0.30
0.08
-0.22
-0.49
-0.68
-0.74
-0.68
-0.53
-0.35
-0.22
-0.13
-0.07
0.02
0.18
0.39
0.56
0.58
0.40
0.06
-0.33
-0.64
-0.77
-0.77
-0.75
-0.84
-1.09
-1.42
-1.69
-1.79
-1.73
-1.63
-1.60
-1.71
-1.84
-1.84
-1.60
-1.18
-0.80
-0.73
-1.14
-1.96
-2.90
-3.61
-3.86
-3.65
-3.24
-3.00
-3.24
-4.10
-5.42
-6.89
-8.10
-8.78
-8.90
-8.69
-8.55
-8.87
-9.82
-11.28
-12.91
-14.28
-15.09
-15.27
-15.04
-14.75
-14.82
-15.62
-17.39
-20.11
-23.31
-25.93
-26.46
-23.30
-15.46
-3.12
12.20
27.99
41.58
51.04
55.68
56.11
53.62
49.61
45.05
40.43
35.92
31.61
27.68
24.28
21.39
18.79
16.09
12.96
9.32
5.39
1.60
-1.59
-3.90
-5.36
-6.24
-6.89
-7.57
-8.37
-9.21
-9.86
-10.16
-10.03
-9.55
-8.93
-8.34
-7.96
-7.83
-7.91
-8.10
-8.27
-8.31
-8.12
-7.72
-7.16
-6.59
-6.13
-5.90
-5.94
-6.19
-6.54
-6.85
-7.04
-7.09
-6.99
-6.80
-6.59
-6.46
-6.55
-6.98
-7.80
-8.93
-10.18
-11.34
-12.25
-12.90
-13.42
-14.04
-14.98
-16.35
-18.07
-19.96
-21.82
-23.48
-24.95
-26.41
-28.21
-30.63
-33.81
-37.55
-41.41
-44.89
-47.72
-50.07
-52.45
-55.49
-59.61
-64.79
-70.61
-76.49
-81.82
-86.05
-88.61
-88.90
-86.48
-81.25
-73.59
-64.39
-54.70
-45.62
-38.15
-33.17
-31.64
-34.55
-42.87
-56.96
-76.00
-97.39
-116.77
-128.64
-127.75
-110.83
-77.98
-33.10
17.08
65.00
104.58
132.72
149.52
157.17
158.47
155.66
150.09
142.58
133.97
125.35
117.83
112.08
107.92
104.35
100.06
94.09
86.30
77.46
68.85
61.67
56.50
53.06
50.37
47.32
43.13
37.75
31.85
26.45
22.42
20.09
19.15
18.80
18.18
16.69
14.23
11.10
7.80
4.78
2.26
0.26
-1.35
-2.70
-3.81
-4.64
-5.10
-5.19
-5.01
-4.75
-4.58
-4.60
-4.75
-4.91
-4.93
-4.70
-4.19
-3.41
-2.41
-1.25
0.01
1.25
2.36
3.24
3.82
4.16
4.36
4.57
4.85
5.20
5.52
5.70
5.71
5.55
5.31
5.05
4.81
4.59
4.40
4.21
4.01
3.78
3.51
3.20
2.86
2.54
2.25
2.03
1.89
1.83
1.86
2.00
2.25
2.60
3.02
3.46
3.86
4.18
4.38
4.39
4.15
3.58
2.66
1.44
0.04
-1.37
-2.63
-3.59
-4.19
-4.44
-4.44
-4.30
-4.16
-4.05
-3.97
-3.87
-3.69
-3.47
-3.30
-3.24
-3.23
-3.04
-2.37
-0.99
1.09
3.57
5.97
7.81
8.85
9.15
9.04
8.87
8.89
9.14
9.54
9.91
10.08
9.84
8.95
7.12
4.18
0.15
-4.64
-9.66
-14.27
-18.03
-20.74
-22.51
-23.60
-24.21
-24.33
-23.70
-21.98
-18.92
-14.59
-9.41
-4.04
0.83
4.70
7.45
9.22
10.33
10.99
11.28
11.16
10.62
9.75
8.81
8.07
7.68
7.59
7.60
7.48
7.11
6.57
6.06
5.74
5.63
5.49
4.99
3.84
2.00
-0.30
-2.61
-4.52
-5.75
-6.32
-6.41
-6.26
-6.04
-5.76
-5.40
-4.95
-4.50
-4.19
-4.12
-4.26
-4.48
-4.59
-4.48
-4.19
-3.85
-3.64
-3.66
-3.92
-4.33
-4.73
-5.02
-5.11
-4.94
-4.48
-3.68
-2.56
-1.22
0.17
1.42
2.38
2.99
3.28
3.32
3.18
2.90
2.53
2.13
1.78
1.58
1.60
1.82
2.19
2.64
3.08
3.46
3.73
3.83
3.75
3.51
3.21
2.98
2.92
3.02
3.18
3.25
3.11
2.74
2.21
1.65
1.19
0.90
0.76
0.73
0.73
0.69
0.58
0.42
0.29
0.25
0.38
0.68
1.10
1.55
1.95
2.24
2.43
2.59
2.82
3.19
3.76
4.51
5.36
6.20
6.95
7.54
7.96
8.24
8.45
8.65
8.84
8.97
8.95
8.73
8.30
7.74
7.18
6.76
6.59
6.73
7.22
8.04
9.13
10.26
11.05
11.00
9.69
7.02
3.27
-0.96
-5.00
-8.38
-10.96
-12.86
-14.30
-15.37
-16.05
-16.26
-15.98
-15.39
-14.73
-14.21
-13.88
-13.60
-13.15
-12.36
-11.26
-10.01
-8.92
-8.26
-8.14
-8.47
-8.97
-9.31
-9.21
-8.61
-7.68
-6.79
-6.30
-6.39
-7.01
-7.90
-8.71
-9.19
-9.25
-9.01
-8.73
-8.68
-9.04
-9.91
-11.17
-12.50
-13.34
-13.05
-11.10
-7.31
-2.10
3.67
8.90
12.65
14.50
14.56
13.39
11.65
9.87
8.35
7.13
6.21
5.54
5.11
4.86
4.73
4.57
4.27
3.74
2.98
2.11
1.28
0.62
0.18
-0.07
-0.29
-0.67
-1.30
-2.15
-3.07
-3.83
-4.28
-4.42
-4.43
-4.59
-5.10
-6.03
-7.19
-8.25
-8.84
-8.72
-7.88
-6.50
-4.90
-3.33
-1.97
-0.82
0.13
0.93
1.53
1.89
1.98
1.86
1.68
1.62
1.83
2.31
2.94
3.53
3.93
4.09
4.11
4.19
4.48
5.05
5.84
6.69
7.43
7.92
8.07
7.86
7.34
6.59
5.72
4.86
4.11
3.51
3.07
2.74
2.47
2.25
2.05
1.88
1.78
1.77
1.91
2.22
2.69
3.21
3.64
3.85
3.77
3.43
2.96
2.51
2.21
2.13
2.20
2.36
2.49
2.55
2.56
2.57
2.62
2.73
2.91
3.13
3.36
3.60
3.90
4.28
4.70
5.12
5.46
5.66
5.72
5.68
5.56
5.38
5.13
4.83
4.52
4.29
4.22
4.30
4.48
4.67
4.77
4.81
4.90
5.22
5.93
7.06
8.51
10.07
11.51
12.62
13.24
13.27
12.71
11.66
10.40
9.27
8.56
8.24
7.88
6.70
3.90
-0.87
-7.26
-14.30
-20.73
-25.52
-28.13
-28.53
-27.02
-23.95
-19.68
-14.65
-9.46
-4.81
-1.29
0.87
1.89
2.32
2.72
3.38
4.23
5.02
5.49
5.57
5.49
5.57
6.10
7.26
8.96
10.84
12.25
12.41
10.67
6.80
1.22
-5.06
-10.79
-14.95
-17.16
-17.71
-17.29
-16.55
-15.80
-15.00
-13.99
-12.72
-11.48
-10.66
-10.61
-11.34
-12.51
-13.56
-13.94
-13.30
-11.67
-9.39
-7.03
-5.16
-4.25
-4.45
-5.60
-7.17
-8.40
-8.43
-6.55
-2.45
3.62
10.81
17.93
23.73
27.35
28.52
27.53
25.11
22.07
19.11
16.73
15.14
14.29
13.80
13.02
11.18
7.69
2.40
-4.23
-11.26
-17.62
-22.44
-25.29
-26.17
-25.24
-22.72
-18.72
-13.38
-6.98
-0.01
6.89
13.05
17.95
21.33
23.23
23.91
23.77
23.29
22.93
23.04
23.86
25.44
27.54
29.58
30.61
29.57
25.64
18.68
9.42
-0.75
-10.27
-18.01
-23.54
-27.11
-29.23
-30.31
-30.52
-29.88
-28.53
-26.85
-25.36
-24.47
-24.24
-24.39
-24.46
-24.11
-23.25
-22.01
-20.51
-18.74
-16.50
-13.61
-10.07
-6.09
-1.98
2.16
6.50
11.43
17.22
23.73
30.36
36.26
40.81
43.85
45.67
46.63
46.79
45.75
42.96
38.10
31.42
23.67
15.77
8.45
2.11
-3.16
-7.29
-10.10
-11.34
-10.87
-8.87
-5.85
-2.48
0.64
3.19
5.11
6.55
7.73
8.93
10.49
12.64
15.40
18.40
20.90
22.05
21.14
17.84
12.22
4.66
-4.31
-14.00
-23.58
-32.07
-38.52
-42.28
-43.28
-42.07
-39.55
-36.60
-33.77
-31.17
-28.73
-26.39
-24.23
-22.46
-21.18
-20.34
-19.72
-19.09
-18.27
-17.18
-15.83
-14.27
-12.57
-10.83
-9.18
-7.76
-6.65
-5.87
-5.40
-5.18
-5.20
-5.49
-6.05
-6.87
-7.85
-8.80
-9.50
-9.74
-9.35
-8.27
-6.58
-4.49
-2.29
-0.25
1.48
2.93
4.20
5.36
6.36
6.97
6.96
6.20
4.79
3.02
1.25
-0.25
-1.43
-2.44
-3.52
-4.86
-6.50
-8.33
-10.08
-11.50
-12.42
-12.82
-12.85
-12.74
-12.69
-12.87
-13.29
-13.86
-14.36
-14.38
-13.38
-10.80
-6.30
-0.07
7.11
14.06
19.60
22.96
24.06
23.41
21.80
19.90
18.10
16.49
15.05
13.84
12.96
12.52
12.50
12.69
12.78
12.47
11.66
10.43
9.03
7.74
6.79
6.24
5.99
5.89
5.76
5.46
4.97
4.28
3.48
2.71
2.12
1.84
1.93
2.29
2.74
3.10
3.29
3.36
3.46
3.71
4.16
4.73
5.32
5.80
6.11
6.18
5.99
5.51
4.77
3.91
3.15
2.72
2.76
3.21
3.81
4.19
4.00
3.07
1.53
-0.29
-2.00
-3.40
-4.73
-6.62
-9.84
-14.86
-21.47
-28.72
-35.22
-39.72
-41.61
-41.15
-39.33
-37.42
-36.46
-37.14
-39.69
-43.98
-49.37
-54.42
-56.97
-54.54
-45.40
-29.61
-9.43
11.32
28.64
40.05
45.37
46.21
44.58
41.42
36.04
26.80
12.59
-6.09
-27.10
-47.49
-64.64
-76.73
-82.60
-81.29
-72.00
-54.61
-30.51
-2.95
23.61
44.90
58.32
63.70
62.91
58.65
53.29
48.24
43.99
40.60
38.05
36.38
35.52
35.16
34.83
34.07
32.57
30.39
27.90
25.62
24.03
23.37
23.49
23.89
23.85
22.74
20.21
16.47
12.17
8.20
5.37
4.04
4.12
5.14
6.60
8.10
9.45
10.46
10.77
9.85
7.21
2.70
-3.22
-9.58
-15.17
-19.03
-20.81
-20.75
-19.45
-17.54
-15.38
-13.07
-10.60
-7.99
-5.39
-3.08
-1.28
-0.09
0.57
0.89
1.11
1.37
1.71
2.06
2.29
2.31
2.15
1.91
1.74
1.77
2.02
2.39
2.77
3.05
3.24
3.41
3.66
4.00
4.37
4.66
4.78
4.72
4.54
4.39
4.44
4.84
5.70
6.91
8.09
8.58
7.63
4.70
-0.24
-6.57
-13.25
-19.13
-23.42
-25.81
-26.37
-25.29
-22.69
-18.64
-13.43
-7.70
-2.33
1.78
4.16
4.89
4.53
3.74
3.01
2.49
2.10
1.71
1.29
0.88
0.58
0.39
0.23
0.03
-0.25
-0.55
-0.75
-0.78
-0.63
-0.33
-0.01
0.26
0.39
0.32
0.01
-0.55
-1.30
-2.10
-2.74
-3.07
-3.04
-2.84
-2.78
-3.17
-4.16
-5.60
-7.13
-8.33
-8.94
-9.01
-8.81
-8.75
-9.08
-9.85
-10.88
-11.78
-12.08
-11.31
-9.09
-5.28
-0.18
5.55
10.95
15.10
17.45
17.98
17.17
15.72
14.19
12.90
11.87
11.04
10.35
9.83
9.51
9.29
8.96
8.22
6.87
4.91
2.58
0.31
-1.48
-2.53
-2.83
-2.62
-2.26
-2.06
-2.16
-2.53
-2.96
-3.23
-3.19
-2.85
-2.32
-1.76
-1.29
-0.95
-0.73
-0.55
-0.34
-0.02
0.45
1.09
1.88
2.75
3.57
4.20
4.53
4.54
4.29
3.90
3.51
3.22
3.07
3.01
2.99
2.99
3.06
3.33
3.91
4.83
5.95
6.99
7.67
7.88
7.70
7.45
7.47
8.02
9.23
11.09
13.44
15.95
18.01
18.82
17.63
14.09
8.57
2.12
-3.87
-8.23
-10.43
-10.64
-9.49
-7.65
-5.55
-3.37
-1.23
0.67
2.07
2.81
3.00
3.10
3.64
4.98
7.15
9.81
12.44
14.51
15.68
15.80
14.98
13.53
12.03
11.17
11.57
13.34
15.84
17.69
17.23
13.32
5.92
-3.66
-13.28
-20.81
-24.92
-25.52
-23.48
-20.10
-16.49
-13.28
-10.62
-8.45
-6.67
-5.20
-3.93
-2.64
-1.09
0.84
3.06
5.33
7.28
8.67
9.50
10.04
10.80
12.51
15.82
20.86
26.75
31.46
32.25
26.88
14.75
-2.40
-20.98
-36.98
-47.57
-52.11
-51.92
-49.16
-45.54
-41.63
-37.16
-31.87
-26.18
-21.26
-18.41
-18.32
-20.60
-24.09
-27.45
-29.67
-30.50
-30.10
-28.70
-26.23
-22.43
-17.11
-10.55
-3.56
2.77
7.47
10.09
10.78
10.08
8.61
6.85
5.09
3.59
2.54
2.12
2.41
3.34
4.70
6.27
7.81
9.12
10.03
10.44
10.35
9.89
9.29
8.72
8.27
7.87
7.40
6.78
6.05
5.33
4.74
4.34
4.04
3.71
3.23
2.54
1.68
0.70
-0.35
-1.46
-2.63
-3.79
-4.83
-5.60
-6.01
-6.05
-5.86
-5.57
-5.31
-5.09
-4.84
-4.51
-4.05
-3.46
-2.77
-2.01
-1.21
-0.50
-0.11
-0.31
-1.32
-3.11
-5.43
-7.88
-10.07
-11.75
-12.91
-13.68
-14.21
-14.59
-14.85
-14.92
-14.70
-14.12
-13.15
-11.90
-10.63
-9.70
-9.37
-9.68
-10.34
-10.75
-10.24
-8.22
-4.41
1.09
7.81
14.97
21.69
27.13
30.77
32.42
32.32
30.87
28.46
25.34
21.60
17.39
13.05
9.12
6.18
4.58
4.33
5.08
6.26
7.35
7.99
8.05
7.54
6.58
5.31
3.93
2.61
1.49
0.63
0.00
-0.44
-0.76
-1.02
-1.26
-1.53
-1.88
-2.27
-2.62
-2.79
-2.69
-2.35
-1.94
-1.67
-1.66
-1.80
-1.88
-1.63
-1.00
-0.11
0.80
1.54
2.06
2.54
3.11
3.82
4.55
5.04
5.11
4.71
3.97
3.10
2.28
1.60
1.09
0.70
0.41
0.23
0.15
0.15
0.15
0.03
-0.29
-0.84
-1.55
-2.25
-2.75
-2.94
-2.79
-2.41
-1.95
-1.54
-1.24
-1.05
-0.92
-0.83
-0.76
-0.73
-0.75
-0.79
-0.82
-0.79
-0.69
-0.54
-0.40
-0.30
-0.26
-0.28
-0.33
-0.37
-0.38
-0.33
-0.24
-0.14
-0.07
-0.03
-0.04
-0.08
-0.11
-0.12
-0.10
-0.06
-0.01
0.03
0.04
0.03
0.01
-0.01
-0.02
-0.02
-0.01
0.01
0.02
0.03
0.02
0.02
0.01
0.00
-0.00
-0.00
-0.00
0.00
0.00
0.00
0.00
0.00
-0.00
0.00
0.00
0.00
0.00
0.00
0.00
0.00
0.00
0.00
0.00
0.00
0.00
0.00
0.00
0.00
0.00
0.00
0.00
0.00
0.00
0.00
0.00
0.00
0.00
0.00
0.00
0.00
0.00
0.00
0.00
0.00
0.00
0.00
0.00
0.00
0.00
0.00
0.00
0.00
0.00
0.00
0.00
0.00
0.00
0.00
0.00
0.00
0.00
0.00
0.00
0.00
0.00
0.00
0.00
0.00
0.00
0.00
0.00
0.00
0.00
0.00
0.00
0.00
0.00
0.00
0.00
0.00
0.00
0.00
0.00
0.00
0.00
0.00
0.00
0.00
0.00
0.00
0.00
0.00
0.00
0.00
0.00
0.00
0.00
0.00
0.00
0.00
0.00
0.00
0.00
0.00
0.00
0.00
0.00
0.00
0.00
0.00
0.00
0.00
0.00
0.00
0.00
0.00
0.00
0.00
0.00
0.00
0.00
0.00
0.00
0.00
0.00
0.00
0.00
0.00
0.00
0.00
0.00
0.00
0.00
0.00
0.00
0.00
0.00
0.00
0.00
0.00
0.00
-0.00
-0.00
-0.00
-0.00
-0.00
-0.00
0.00
0.00
0.00
-0.00
-0.01
-0.02
-0.03
-0.05
-0.06
-0.07
-0.09
-0.10
-0.12
-0.14
-0.15
-0.17
-0.19
-0.21
-0.22
-0.24
-0.26
-0.28
-0.31
-0.35
-0.39
-0.43
-0.46
-0.49
-0.52
-0.56
-0.62
-0.69
-0.78
-0.88
-0.98
-1.07
-1.16
-1.26
-1.37
-1.50
-1.67
-1.87
-2.09
-2.30
-2.51
-2.71
-2.92
-3.14
-3.40
-3.69
-4.03
-4.39
-4.75
-5.11
-5.45
-5.76
-6.06
-6.35
-6.66
-7.05
-7.55
-8.17
-8.83
-9.39
-9.65
-9.44
-8.70
-7.46
-5.81
-3.87
-1.76
0.43
2.55
4.45
6.01
7.16
7.95
8.49
8.89
9.21
9.45
9.57
9.55
9.42
9.23
9.00
8.73
8.37
7.89
7.27
6.58
5.86
5.14
4.39
3.58
2.71
1.85
1.13
0.66
0.50
0.61
0.84
1.05
1.14
1.12
1.07
1.11
1.28
1.56
1.86
2.10
2.27
2.43
2.64
2.96
3.36
3.75
4.03
4.14
4.06
3.87
3.68
3.67
3.96
4.66
5.71
6.98
8.24
9.26
9.88
10.14
10.19
10.28
10.58
11.12
11.75
12.27
12.58
12.66
12.62
12.54
12.36
11.91
11.07
9.88
8.55
7.18
5.57
3.07
-1.06
-7.12
-14.62
-22.27
-28.50
-32.16
-32.99
-31.63
-29.12
-26.28
-23.40
-20.39
-17.14
-13.85
-10.98
-8.99
-7.95
-7.47
-6.88
-5.65
-3.65
-1.21
1.04
2.56
3.09
2.77
1.96
1.09
0.46
0.17
0.14
0.17
0.11
-0.17
-0.65
-1.22
-1.71
-2.01
-2.05
-1.92
-1.75
-1.74
-2.07
-2.87
-4.24
-6.10
-8.20
-10.02
-10.89
-10.21
-7.73
-3.75
0.89
5.18
8.28
9.86
10.18
9.82
9.34
9.05
8.93
8.79
8.49
8.05
7.59
7.26
7.07
6.91
6.67
6.25
5.68
5.09
4.61
4.35
4.29
4.34
4.39
4.32
4.10
3.80
3.56
3.53
3.81
4.36
5.00
5.50
5.69
5.57
5.33
5.29
5.77
6.93
8.75
10.99
13.35
15.62
17.77
19.98
22.48
25.41
28.66
31.81
34.36
35.95
36.65
37.02
37.95
40.29
44.38
49.84
55.79
61.25
65.67
69.08
71.93
74.62
77.20
79.41
80.96
81.59
80.74
77.03
68.26
52.06
27.38
-4.34
-38.92
-70.75
-94.95
-109.26
-114.67
-114.34
-111.76
-109.11
-106.77
-104.02
-100.12
-95.21
-90.31
-86.84
-85.88
-87.74
-91.91
-97.29
-102.59
-106.83
-109.57
-110.95
-111.58
-112.21
-113.42
-115.52
-118.46
-121.84
-124.72
-125.48
-121.84
-111.45
-92.78
-66.07
-33.64
0.52
31.97
57.13
74.26
83.47
86.14
84.07
78.85
71.67
63.48
55.12
47.33
40.63
35.36
31.66
29.66
29.43
30.97
34.13
38.55
43.74
49.13
54.18
58.35
61.12
62.08
61.04
58.22
54.19
49.83
45.96
43.08
41.24
40.12
39.25
38.28
37.08
35.78
34.61
33.73
33.12
32.56
31.66
30.09
27.71
24.62
21.16
17.76
14.83
12.66
11.34
10.79
10.69
10.56
9.83
8.02
4.96
0.94
-3.27
-6.69
-8.47
-8.26
-6.38
-3.65
-1.07
0.65
1.34
1.38
1.47
2.24
3.94
6.37
8.93
10.87
11.45
10.09
6.45
0.60
-6.97
-15.31
-23.26
-29.75
-34.14
-36.40
-36.94
-36.33
-34.94
-32.67
-29.08
-23.72
-16.51
-7.97
1.00
9.46
16.91
23.40
29.35
35.07
40.35
44.49
46.61
46.33
44.21
41.68
40.65
42.76
48.80
58.21
68.89
77.24
78.69
68.93
45.63
9.75
-34.22
-79.49
-119.37
-149.64
-169.71
-182.04
-190.24
-196.78
-201.62
-202.22
-194.99
-177.22
-148.55
-111.25
-69.51
-28.01
9.45
40.66
65.00
82.86
94.95
101.94
104.50
103.58
100.53
96.92
94.15
93.05
93.74
95.76
98.46
101.22
103.61
105.54
107.17
108.86
110.97
113.77
117.38
121.73
126.74
132.50
139.34
147.50
156.53
164.67
168.69
164.58
149.05
121.11
82.93
39.42
-3.38
-40.19
-67.85
-85.56
-94.20
-95.29
-90.38
-80.92
-68.57
-55.44
-43.84
-35.72
-32.08
-32.53
-35.46
-38.75
-40.94
-42.15
-44.31
-50.31
-62.39
-80.45
-101.38
-119.98
-131.04
-131.54
-121.91
-105.58
-87.20
-70.56
-57.37
-47.21
-38.63
-30.32
-21.87
-13.76
-6.88
-2.04
0.22
-0.29
-3.57
-9.44
-17.49
-26.90
-36.48
-44.91
-51.01
-54.10
-54.08
-51.44
-47.05
-41.94
-37.01
-32.86
-29.72
-27.44
-25.64
-23.86
-21.77
-19.26
-16.41
-13.47
-10.77
-8.62
-7.25
-6.65
-6.51
-6.17
-4.84
-1.76
3.53
10.99
20.03
29.67
38.81
46.46
51.92
54.83
55.05
52.65
47.92
41.39
33.92
26.57
20.42
16.24
14.28
14.23
15.36
16.76
17.61
17.26
15.30
11.58
6.31
0.20
-5.71
-10.28
-12.77
-13.14
-12.09
-10.66
-9.68
-9.40
-9.41
-9.01
-7.70
-5.52
-3.03
-1.00
0.06
0.10
-0.45
-1.04
-1.24
-0.82
0.21
1.75
3.65
5.59
7.02
7.25
5.63
1.92
-3.52
-9.78
-15.75
-20.46
-23.46
-24.83
-24.99
-24.44
-23.52
-22.39
-21.09
-19.63
-18.06
-16.43
-14.83
-13.26
-11.71
-10.15
-8.57
-7.00
-5.52
-4.29
-3.43
-3.04
-3.21
-3.94
-5.21
-6.97
-9.10
-11.32
-13.12
-13.85
-12.86
-9.82
-4.92
1.10
7.07
11.80
14.44
14.75
13.02
9.97
6.36
2.84
-0.16
-2.35
-3.50
-3.38
-1.89
0.81
4.28
7.83
10.73
12.46
12.87
12.19
10.88
9.43
8.16
7.21
6.57
6.20
6.04
6.02
5.99
5.69
4.91
3.52
1.58
-0.71
-3.01
-5.05
-6.67
-7.82
-8.55
-8.90
-8.87
-8.46
-7.70
-6.65
-5.44
-4.22
-3.12
-2.21
-1.51
-1.02
-0.71
-0.60
-0.69
-1.00
-1.46
-1.98
-2.40
-2.59
-2.55
-2.33
-2.09
-1.98
-2.10
-2.44
-2.93
-3.44
-3.83
-4.02
-3.98
-3.72
-3.35
-2.98
-2.75
-2.72
-2.86
-3.05
-3.12
-2.94
-2.50
-1.92
-1.40
-1.12
-1.16
-1.47
-1.86
-2.12
-2.10
-1.76
-1.13
-0.33
0.54
1.43
2.30
3.12
3.85
4.44
4.88
5.20
5.50
5.85
6.26
6.58
6.60
6.12
5.10
3.71
2.25
1.11
0.49
0.40
0.66
0.99
1.17
1.11
0.86
0.52
0.14
-0.28
-0.81
-1.49
-2.24
-2.86
-3.04
-2.53
-1.28
0.46
2.18
3.32
3.48
2.61
1.03
-0.73
-2.16
-2.91
-2.83
-1.93
-0.27
2.01
4.62
7.15
9.13
10.19
10.22
9.44
8.25
7.06
6.07
5.24
4.39
3.40
2.26
1.08
0.03
-0.83
-1.52
-2.16
-2.83
-3.58
-4.32
-4.94
-5.34
-5.49
-5.49
-5.45
-5.45
-5.49
-5.52
-5.45
-5.30
-5.12
-5.04
-5.11
-5.29
-5.45
-5.40
-4.99
-4.20
-3.11
-1.91
-0.81
0.06
0.63
0.95
1.12
1.27
1.52
1.93
2.51
3.18
3.82
4.27
4.36
3.96
3.14
2.09
1.15
0.58
0.52
0.86
1.34
1.70
1.80
1.65
1.39
1.12
0.89
0.62
0.27
-0.10
-0.32
-0.25
0.14
0.69
1.08
1.07
0.61
-0.13
-0.80
-1.08
-0.83
-0.11
0.85
1.75
2.40
2.72
2.76
2.67
2.61
2.66
2.84
3.02
3.01
2.57
1.58
0.05
-1.85
-3.87
-5.69
-7.03
-7.69
-7.57
-6.76
-5.48
-4.07
-2.87
-2.10
-1.75
-1.65
-1.58
-1.35
-1.00
-0.73
-0.77
-1.32
-2.33
-3.54
-4.56
-5.03
-4.71
-3.63
-2.01
-0.25
1.25
2.15
2.24
1.53
0.24
-1.19
-2.23
-2.39
-1.37
0.75
3.51
6.25
8.31
9.29
9.18
8.30
7.12
6.01
5.12
4.42
3.70
2.84
1.80
0.68
-0.36
-1.17
-1.73
-2.04
-2.22
-2.35
-2.50
-2.68
-2.81
-2.78
-2.44
-1.76
-0.81
0.17
0.90
1.16
0.94
0.45
-0.01
-0.18
-0.01
0.39
0.77
0.91
0.68
0.12
-0.65
-1.42
-1.94
-2.00
-1.46
-0.34
1.13
2.55
3.49
3.68
3.09
2.03
0.93
0.21
0.08
0.50
1.20
1.84
2.11
1.89
1.24
0.31
-0.68
-1.53
-2.07
-2.14
-1.73
-0.94
0.02
0.87
1.42
1.59
1.49
1.31
1.20
1.22
1.31
1.36
1.32
1.15
0.88
0.53
0.15
-0.21
-0.48
-0.59
-0.55
-0.48
-0.55
-0.87
-1.40
-1.88
-2.02
-1.55
-0.47
0.96
2.37
3.37
3.81
3.76
3.41
3.01
2.70
2.52
2.42
2.38
2.37
2.42
2.55
2.73
2.89
2.95
2.79
2.37
1.74
1.02
0.41
0.12
0.24
0.71
1.33
1.81
1.90
1.48
0.59
-0.58
-1.75
-2.71
-3.31
-3.56
-3.53
-3.38
-3.25
-3.28
-3.50
-3.91
-4.43
-4.90
-5.15
-5.01
-4.41
-3.44
-2.34
-1.42
-0.99
-1.16
-1.79
-2.54
-2.95
-2.69
-1.71
-0.22
1.37
2.69
3.51
3.86
3.88
3.72
3.47
3.10
2.59
1.94
1.22
0.56
0.13
0.03
0.32
0.94
1.75
2.50
2.95
2.93
2.44
1.67
0.95
0.54
0.57
0.98
1.61
2.26
2.85
3.34
3.69
3.80
3.53
2.75
1.47
-0.14
-1.77
-3.14
-4.07
-4.54
-4.63
-4.46
-4.11
-3.64
-3.11
-2.61
-2.24
-2.03
-2.01
-2.11
-2.25
-2.35
-2.32
-2.13
-1.79
-1.39
-1.04
-0.83
-0.82
-0.92
-1.02
-0.97
-0.73
-0.36
0.00
0.23
0.29
0.19
0.02
-0.18
-0.41
-0.67
-0.97
-1.31
-1.63
-1.87
-1.99
-1.99
-1.89
-1.71
-1.47
-1.18
-0.85
-0.51
-0.23
-0.08
-0.13
-0.39
-0.79
-1.18
-1.46
-1.53
-1.37
-1.08
-0.77
-0.57
-0.60
-0.87
-1.34
-1.87
-2.26
-2.29
-1.86
-1.01
0.06
1.06
1.73
1.96
1.80
1.49
1.25
1.25
1.48
1.79
2.01
2.04
1.92
1.76
1.67
1.69
1.72
1.61
1.25
0.70
0.13
-0.24
-0.22
0.22
0.94
1.71
2.30
2.56
2.46
2.06
1.47
0.81
0.23
-0.18
-0.29
-0.06
0.47
1.13
1.67
1.83
1.47
0.61
-0.57
-1.81
-2.92
-3.74
-4.16
-4.12
-3.59
-2.63
-1.43
-0.23
0.72
1.31
1.56
1.66
1.79
2.04
2.37
2.63
2.67
2.42
1.92
1.29
0.72
0.36
0.27
0.39
0.57
0.66
0.60
0.49
0.43
0.50
0.64
0.67
0.41
-0.16
-0.86
-1.38
-1.47
-1.02
-0.22
0.61
1.11
1.10
0.56
-0.35
-1.38
-2.32
-3.02
-3.41
-3.49
-3.25
-2.73
-1.97
-1.10
-0.22
0.53
1.05
1.31
1.33
1.18
0.95
0.71
0.53
0.45
0.53
0.81
1.29
1.92
2.58
3.05
3.16
2.85
2.18
1.37
0.67
0.28
0.20
0.32
0.45
0.47
0.39
0.37
0.57
1.05
1.72
2.35
2.67
2.54
1.95
1.03
0.00
-0.95
-1.69
-2.17
-2.38
-2.35
-2.14
-1.84
-1.58
-1.49
-1.64
-2.03
-2.55
-3.01
-3.16
-2.82
-1.94
-0.68
0.63
1.60
1.99
1.78
1.24
0.74
0.58
0.79
1.13
1.30
1.09
0.52
-0.17
-0.69
-0.91
-0.82
-0.58
-0.27
0.11
0.63
1.37
2.25
3.09
3.64
3.75
3.46
2.97
2.58
2.49
2.72
3.08
3.35
3.29
2.87
2.14
1.31
0.53
-0.09
-0.55
-0.92
-1.30
-1.75
-2.30
-2.94
-3.62
-4.31
-4.93
-5.43
-5.74
-5.79
-5.56
-5.07
-4.38
-3.57
-2.73
-1.93
-1.22
-0.69
-0.40
-0.42
-0.72
-1.21
-1.71
-2.03
-2.05
-1.78
-1.33
-0.87
-0.53
-0.35
-0.32
-0.34
-0.41
-0.53
-0.77
-1.17
-1.70
-2.31
-2.90
-3.39
-3.79
-4.15
-4.54
-5.03
-5.60
-6.17
-6.58
-6.67
-6.38
-5.82
-5.25
-5.02
-5.43
-6.59
-8.32
-10.21
-11.66
-12.07
-11.02
-8.38
-4.42
0.19
4.56
7.84
9.48
9.39
7.94
5.74
3.38
1.19
-0.78
-2.64
-4.52
-6.46
-8.40
-10.27
-12.20
-14.46
-17.43
-21.35
-26.18
-31.50
-36.65
-41.03
-44.43
-47.24
-50.47
-55.35
-62.81
-73.06
-85.31
-98.09
-109.71
-118.91
-125.25
-129.10
-131.35
-133.20
-135.94
-140.84
-148.85
-159.96
-172.57
-183.29
-187.52
-180.84
-160.62
-127.06
-83.14
-33.52
16.94
64.37
106.19
140.79
167.05
184.19
192.07
191.61
184.85
174.52
163.23
152.79
143.80
135.93
128.37
120.48
112.09
103.52
95.28
87.82
81.30
75.55
70.22
64.96
59.60
54.23
49.09
44.48
40.57
37.30
34.43
31.62
28.57
25.16
21.45
17.68
14.14
11.10
8.75
7.13
6.16
5.65
5.36
5.00
4.37
3.35
1.94
0.32
-1.22
-2.27
-2.40
-1.32
1.01
4.28
7.88
11.12
13.44
14.65
14.93
14.66
14.13
13.41
12.30
10.53
8.01
4.90
1.66
-1.19
-3.24
-4.32
-4.49
-3.96
-2.95
-1.64
-0.22
1.11
2.17
2.81
2.98
2.74
2.23
1.56
0.79
-0.12
-1.24
-2.63
-4.32
-6.23
-8.22
-10.03
-11.40
-12.03
-11.78
-10.64
-8.81
-6.59
-4.27
-2.04
-0.02
1.79
3.33
4.49
5.16
5.26
4.84
4.03
3.07
2.21
1.63
1.47
1.74
2.32
3.00
3.48
3.52
2.98
1.86
0.28
-1.57
-3.49
-5.31
-6.88
-8.08
-8.87
-9.29
-9.45
-9.52
-9.59
-9.65
-9.55
-9.12
-8.16
-6.57
-4.31
-1.43
1.97
5.72
9.59
13.30
16.57
19.16
20.92
21.77
21.66
20.56
18.42
15.19
10.96
6.01
0.83
-3.94
-7.75
-10.20
-11.24
-11.12
-10.25
-9.04
-7.80
-6.72
-5.87
-5.25
-4.83
-4.49
-4.08
-3.45
-2.61
-1.72
-1.08
-0.98
-1.62
-2.98
-4.85
-6.89
-8.78
-10.21
-11.02
-11.08
-10.32
-8.72
-6.36
-3.45
-0.34
2.54
4.77
6.10
6.45
5.94
4.86
3.57
2.47
1.91
2.15
3.20
4.83
6.57
7.87
8.35
7.96
6.99
5.93
5.24
5.21
5.81
6.66
7.15
6.57
4.38
0.48
-4.62
-9.87
-13.96
-15.77
-14.86
-11.55
-6.76
-1.61
3.04
6.75
9.48
11.34
12.45
12.81
12.40
11.34
9.83
8.18
6.62
5.26
4.01
2.77
1.50
0.29
-0.62
-1.04
-0.89
-0.29
0.47
1.05
1.20
0.83
-0.00
-1.09
-2.23
-3.28
-4.19
-5.04
-5.99
-7.15
-8.52
-9.89
-10.95
-11.31
-10.74
-9.17
-6.74
-3.76
-0.55
2.58
5.35
7.56
9.08
9.91
10.22
10.25
10.29
10.52
10.97
11.55
12.04
12.31
12.30
12.12
12.00
12.24
13.06
14.48
16.20
17.64
18.05
16.86
13.95
9.72
5.03
0.88
-1.89
-2.88
-2.29
-0.92
-0.01
-0.80
-4.08
-9.78
-16.93
-23.96
-29.36
-32.27
-32.78
-31.73
-30.14
-28.60
-26.90
-24.23
-19.68
-12.89
-4.35
4.77
13.10
19.64
23.91
25.82
25.30
22.11
15.96
6.94
-4.05
-15.33
-24.90
-31.20
-33.67
-32.91
-30.23
-27.11
-24.65
-23.44
-23.69
-25.43
-28.50
-32.37
-35.90
-37.44
-35.27
-28.42
-17.28
-3.68
9.65
20.14
26.34
28.30
27.29
24.94
22.47
20.32
18.39
16.43
14.48
12.90
12.08
12.17
12.93
13.83
14.31
13.99
12.84
11.18
9.47
8.14
7.45
7.32
7.49
7.58
7.37
6.81
5.98
5.03
3.97
2.74
1.22
-0.61
-2.60
-4.55
-6.23
-7.58
-8.65
-9.56
-10.31
-10.68
-10.28
-8.76
-6.01
-2.33
1.65
5.15
7.59
8.80
9.03
8.78
8.50
8.38
8.33
8.07
7.40
6.28
4.85
3.30
1.81
0.44
-0.80
-1.91
-2.88
-3.60
-3.97
-3.93
-3.50
-2.84
-2.16
-1.69
-1.58
-1.81
-2.18
-2.45
-2.39
-1.94
-1.22
-0.42
0.26
0.71
0.99
1.19
1.39
1.61
1.77
1.80
1.67
1.44
1.25
1.22
1.42
1.78
2.18
2.46
2.52
2.38
2.12
1.92
1.90
2.12
2.55
3.11
3.75
4.45
5.09
5.44
5.07
3.52
0.56
-3.63
-8.40
-12.88
-16.22
-17.93
-17.91
-16.36
-13.66
-10.20
-6.35
-2.57
0.65
2.88
3.91
3.86
3.13
2.28
1.76
1.84
2.49
3.49
4.52
5.29
5.62
5.48
4.92
4.09
3.16
2.28
1.55
0.99
0.58
0.26
0.02
-0.14
-0.21
-0.21
-0.20
-0.26
-0.44
-0.74
-1.05
-1.26
-1.29
-1.18
-1.06
-1.09
-1.36
-1.83
-2.35
-2.74
-2.86
-2.68
-2.27
-1.74
-1.18
-0.63
-0.07
0.54
1.21
1.87
2.45
2.88
3.16
3.33
3.46
3.58
3.65
3.60
3.39
3.04
2.68
2.43
2.36
2.45
2.55
2.52
2.30
1.93
1.58
1.45
1.64
2.16
2.87
3.58
4.13
4.44
4.53
4.53
4.58
4.79
5.18
5.72
6.34
7.00
7.73
8.60
9.65
10.86
12.09
13.14
13.83
14.07
13.93
13.57
13.22
13.04
13.07
13.30
13.66
14.11
14.61
15.05
15.16
14.56
12.92
10.17
6.65
2.96
-0.31
-2.93
-5.19
-7.66
-10.84
-14.77
-19.05
-22.99
-26.03
-27.97
-28.97
-29.30
-29.15
-28.53
-27.36
-25.64
-23.63
-21.71
-20.30
-19.64
-19.71
-20.13
-20.29
-19.44
-16.98
-12.75
-7.21
-1.31
3.76
7.09
8.34
7.87
6.41
4.77
3.41
2.45
1.77
1.22
0.81
0.65
0.85
1.39
2.09
2.68
2.95
2.82
2.37
1.80
1.33
1.07
1.03
1.07
1.05
0.87
0.57
0.27
0.14
0.26
0.62
1.09
1.51
1.73
1.70
1.42
1.00
0.54
0.15
-0.10
-0.20
-0.19
-0.14
-0.14
-0.24
-0.51
-0.94
-1.52
-2.20
-2.88
-3.44
-3.76
-3.80
-3.59
-3.26
-2.97
-2.89
-3.15
-3.81
-4.86
-6.16
-7.41
-8.16
-7.93
-6.36
-3.47
0.30
4.23
7.55
9.76
10.77
10.81
10.28
9.51
8.63
7.67
6.65
5.67
4.89
4.40
4.20
4.16
4.07
3.77
3.23
2.50
1.75
1.13
0.77
0.68
0.81
1.06
1.29
1.40
1.36
1.16
0.88
0.59
0.37
0.25
0.21
0.21
0.20
0.17
0.15
0.21
0.36
0.56
0.74
0.80
0.71
0.54
0.40
0.43
0.65
0.99
1.34
1.57
1.65
1.66
1.67
1.76
1.91
2.07
2.16
2.12
2.00
1.82
1.62
1.37
1.04
0.59
0.08
-0.42
-0.79
-1.00
-1.08
-1.12
-1.25
-1.52
-1.91
-2.32
-2.60
-2.67
-2.54
-2.29
-2.03
-1.83
-1.69
-1.58
-1.46
-1.34
-1.25
-1.24
-1.32
-1.45
-1.54
-1.56
-1.52
-1.48
-1.49
-1.58
-1.72
-1.84
-1.86
-1.75
-1.50
-1.14
-0.69
-0.19
0.32
0.74
0.99
1.00
0.75
0.29
-0.28
-0.80
-1.15
-1.25
-1.09
-0.71
-0.23
0.24
0.58
0.72
0.65
0.41
0.05
-0.37
-0.80
-1.15
-1.31
-1.16
-0.67
0.09
0.90
1.53
1.80
1.70
1.34
0.96
0.69
0.60
0.60
0.56
0.35
-0.08
-0.68
-1.35
-1.96
-2.39
-2.62
-2.66
-2.67
-2.78
-3.13
-3.70
-4.36
-4.91
-5.17
-5.12
-4.87
-4.66
-4.72
-5.17
-5.95
-6.90
-7.79
-8.47
-8.90
-9.15
-9.35
-9.57
-9.87
-10.30
-10.88
-11.62
-12.31
-12.53
-11.61
-8.99
-4.47
1.44
7.68
12.98
16.40
17.72
17.39
16.22
14.89
13.73
12.67
11.51
10.21
8.94
7.97
7.50
7.43
7.51
7.42
6.96
6.18
5.26
4.46
3.94
3.75
3.79
3.86
3.77
3.41
2.76
1.92
1.09
0.47
0.19
0.26
0.58
0.95
1.20
1.23
1.03
0.72
0.46
0.41
0.64
1.12
1.68
2.07
2.08
1.58
0.63
-0.55
-1.66
-2.48
-2.94
-3.10
-3.11
-3.08
-3.03
-2.87
-2.54
-2.01
-1.37
-0.76
-0.30
-0.09
-0.12
-0.35
-0.67
-0.99
-1.23
-1.33
-1.31
-1.22
-1.13
-1.07
-1.02
-0.93
-0.73
-0.41
-0.04
0.31
0.53
0.60
0.51
0.33
0.07
-0.21
-0.45
-0.57
-0.50
-0.20
0.26
0.72
1.01
1.01
0.70
0.23
-0.19
-0.37
-0.21
0.25
0.87
1.44
1.79
1.83
1.58
1.15
0.65
0.17
-0.24
-0.58
-0.85
-1.06
-1.20
-1.25
-1.21
-1.11
-1.03
-0.99
-1.00
-1.01
-0.97
-0.86
-0.68
-0.47
-0.27
-0.14
-0.10
-0.13
-0.22
-0.32
-0.38
-0.38
-0.30
-0.16
-0.02
0.11
0.25
0.41
0.60
0.80
0.95
1.01
0.92
0.72
0.44
0.13
-0.17
-0.44
-0.65
-0.76
-0.74
-0.59
-0.34
-0.05
0.24
0.45
0.56
0.53
0.35
0.06
-0.28
-0.55
-0.65
-0.53
-0.21
0.18
0.53
0.73
0.78
0.72
0.62
0.51
0.42
0.33
0.24
0.15
0.07
-0.01
-0.11
-0.22
-0.30
-0.31
-0.23
-0.09
0.02
0.02
-0.13
-0.32
-0.43
-0.33
-0.00
0.42
0.76
0.83
0.58
0.09
-0.43
-0.82
-0.98
-0.91
-0.72
-0.49
-0.27
-0.04
0.22
0.51
0.79
0.95
0.94
0.77
0.54
0.34
0.24
0.21
0.19
0.13
0.03
-0.08
-0.17
-0.22
-0.28
-0.35
-0.40
-0.36
-0.17
0.16
0.53
0.80
0.85
0.66
0.31
-0.08
-0.37
-0.53
-0.55
-0.49
-0.41
-0.30
-0.15
0.06
0.38
0.78
1.26
1.80
2.38
3.03
3.73
4.49
5.28
6.03
6.68
7.14
7.38
7.39
7.22
7.00
6.90
7.06
7.56
8.35
9.27
10.13
10.78
11.19
11.43
11.65
12.07
12.87
14.11
15.68
17.27
18.41
18.58
17.35
14.48
10.04
4.43
-1.68
-7.54
-12.46
-15.96
-17.93
-18.55
-18.22
-17.35
-16.26
-15.05
-13.67
-12.06
-10.29
-8.58
-7.20
-6.34
-5.97
-5.85
-5.58
-4.81
-3.43
-1.60
0.31
1.97
3.20
4.07
4.87
5.91
7.39
9.26
11.25
12.96
14.04
14.32
13.93
13.29
12.98
13.61
15.55
18.77
22.69
26.19
27.88
26.47
21.31
12.73
2.03
-8.93
-18.39
-25.32
-29.60
-31.82
-32.76
-32.88
-32.16
-30.40
-27.64
-24.41
-21.63
-20.23
-20.71
-23.03
-26.79
-31.57
-37.13
-43.35
-50.12
-57.13
-64.01
-70.55
-76.94
-83.44
-89.75
-94.39
-94.65
-87.59
-71.45
-47.03
-17.86
10.88
34.34
49.76
57.14
58.67
57.18
54.82
52.44
49.91
46.94
43.69
40.84
39.16
38.95
39.84
40.93
41.23
40.13
37.72
34.72
32.08
30.62
30.61
31.67
32.99
33.72
33.37
32.01
30.21
28.76
28.22
28.73
29.97
31.39
32.54
33.29
33.82
34.47
35.46
36.74
37.96
38.65
38.49
37.43
35.71
33.69
31.55
28.96
24.99
18.28
7.58
-7.53
-26.14
-46.08
-64.41
-78.39
-86.09
-86.65
-80.13
-67.25
-49.26
-28.05
-6.08
14.04
30.25
41.72
49.06
53.74
56.94
58.63
57.31
50.88
37.98
19.13
-3.05
-24.71
-42.26
-53.66
-58.87
-59.47
-57.54
-54.65
-51.52
-48.25
-44.92
-42.09
-40.62
-41.21
-43.76
-47.27
-50.16
-51.20
-50.12
-47.81
-45.99
-46.30
-49.43
-54.80
-60.75
-65.39
-67.45
-66.89
-64.84
-63.11
-63.47
-67.14
-74.46
-84.62
-95.41
-103.22
-103.65
-92.91
-69.57
-35.75
3.11
39.98
68.82
86.69
94.32
94.92
92.11
88.23
83.87
78.61
72.22
65.35
59.31
55.26
53.43
52.96
52.33
50.24
46.21
40.78
35.17
30.61
27.81
26.64
26.31
25.74
24.15
21.35
17.78
14.28
11.63
10.23
9.94
10.19
10.28
9.73
8.42
6.62
4.77
3.28
2.37
2.03
2.10
2.33
2.50
2.47
2.18
1.69
1.13
0.63
0.32
0.23
0.30
0.41
0.46
0.39
0.23
0.04
-0.14
-0.27
-0.33
-0.34
-0.30
-0.21
-0.12
-0.06
-0.06
-0.09
-0.13
-0.13
-0.09
-0.06
-0.08
-0.19
-0.35
-0.49
-0.52
-0.39
-0.14
0.13
0.34
0.42
0.40
0.32
0.25
0.19
0.09
-0.11
-0.39
-0.70
-0.90
-0.90
-0.71
-0.41
-0.15
-0.02
-0.02
-0.07
-0.09
-0.04
0.00
-0.04
-0.18
-0.39
-0.56
-0.63
-0.57
-0.45
-0.33
-0.22
-0.08
0.15
0.49
0.88
1.20
1.30
1.10
0.60
-0.05
-0.70
-1.20
-1.47
-1.52
-1.39
-1.16
-0.86
-0.54
-0.24
0.00
0.12
0.10
-0.03
-0.20
-0.30
-0.29
-0.16
0.05
0.27
0.46
0.56
0.59
0.56
0.48
0.39
0.34
0.35
0.44
0.62
0.84
1.04
1.13
1.04
0.76
0.37
0.01
-0.17
-0.10
0.15
0.43
0.55
0.46
0.21
-0.04
-0.18
-0.22
-0.21
-0.26
-0.37
-0.48
-0.45
-0.25
0.04
0.29
0.33
0.15
-0.18
-0.51
-0.68
-0.66
-0.46
-0.20
0.02
0.13
0.13
0.08
0.05
0.09
0.21
0.36
0.48
0.52
0.45
0.31
0.14
0.02
-0.03
-0.00
0.06
0.07
0.00
-0.13
-0.28
-0.35
-0.30
-0.16
0.01
0.12
0.14
0.11
0.12
0.23
0.42
0.62
0.71
0.61
0.33
-0.06
-0.40
-0.54
-0.42
-0.08
0.36
0.70
0.82
0.67
0.33
-0.07
-0.41
-0.62
-0.71
-0.73
-0.69
-0.60
-0.46
-0.28
-0.12
-0.01
0.04
0.06
0.08
0.13
0.22
0.29
0.34
0.31
0.21
0.04
-0.22
-0.54
-0.87
-1.13
-1.22
-1.08
-0.71
-0.22
0.24
0.57
0.73
0.77
0.78
0.81
0.83
0.79
0.60
0.27
-0.12
-0.44
-0.62
-0.62
-0.52
-0.36
-0.18
0.03
0.26
0.48
0.58
0.50
0.25
-0.09
-0.39
-0.55
-0.54
-0.39
-0.20
-0.02
0.10
0.17
0.21
0.27
0.35
0.47
0.62
0.76
0.85
0.85
0.74
0.57
0.36
0.17
0.05
0.03
0.09
0.23
0.39
0.52
0.57
0.54
0.43
0.28
0.10
-0.05
-0.14
-0.11
0.09
0.45
0.93
1.43
1.86
2.19
2.43
2.65
2.87
3.11
3.30
3.41
3.43
3.42
3.46
3.61
3.90
4.29
4.72
5.09
5.33
5.37
5.18
4.74
4.05
3.15
2.14
1.18
0.47
0.22
0.53
1.37
2.58
3.88
5.01
5.76
6.04
5.90
5.47
4.93
4.47
4.21
4.27
4.65
5.20
5.61
5.44
4.26
1.86
-1.58
-5.53
-9.27
-12.16
-13.84
-14.37
-14.08
-13.42
-12.76
-12.27
-11.97
-11.79
-11.71
-11.76
-12.02
-12.53
-13.25
-14.03
-14.68
-15.05
-15.15
-15.13
-15.24
-15.65
-16.31
-16.84
-16.64
-15.12
-11.97
-7.39
-2.08
3.04
7.14
9.78
11.00
11.23
10.98
10.60
10.22
9.78
9.24
8.62
8.06
7.67
7.47
7.32
7.07
6.59
5.89
5.09
4.33
3.72
3.28
2.95
2.66
2.35
2.03
1.71
1.43
1.21
1.08
1.10
1.29
1.61
1.95
2.17
2.14
1.82
1.31
0.80
0.44
0.31
0.39
0.58
0.77
0.91
0.98
1.03
1.07
1.11
1.14
1.15
1.14
1.09
1.02
0.94
0.85
0.76
0.66
0.55
0.43
0.32
0.30
0.39
0.61
0.86
1.06
1.10
1.01
0.90
0.93
1.25
1.89
2.74
3.56
4.17
4.46
4.53
4.59
4.91
5.68
6.91
8.40
9.83
10.84
11.23
11.02
10.48
10.06
10.20
11.16
12.91
15.10
17.25
18.92
19.95
20.50
20.96
21.79
23.38
25.91
29.26
32.95
35.99
36.96
34.42
27.45
16.25
2.34
-11.84
-23.75
-31.67
-35.25
-35.36
-33.48
-30.94
-28.44
-26.12
-23.83
-21.57
-19.55
-18.05
-17.21
-16.90
-16.84
-16.79
-16.72
-16.80
-17.25
-18.17
-19.39
-20.50
-21.09
-20.90
-19.99
-18.73
-17.64
-17.14
-17.38
-18.12
-18.94
-19.38
-19.25
-18.69
-18.18
-18.19
-19.01
-20.57
-22.50
-24.33
-25.74
-26.62
-27.12
-27.52
-28.17
-29.42
-31.64
-35.02
-39.26
-43.25
-45.07
-42.53
-34.14
-19.99
-2.05
16.41
32.00
42.50
47.52
48.20
46.35
43.49
40.31
36.85
33.02
29.04
25.47
22.92
21.63
21.30
21.18
20.50
18.86
16.37
13.61
11.26
9.80
9.25
9.23
9.18
8.65
7.49
5.94
4.43
3.40
3.10
3.50
4.31
5.18
5.76
5.89
5.56
4.97
4.36
3.91
3.72
3.69
3.67
3.52
3.19
2.73
2.27
1.89
1.63
1.47
1.39
1.41
1.50
1.62
1.67
1.57
1.28
0.85
0.41
0.06
-0.19
-0.35
-0.51
-0.66
-0.71
-0.57
-0.18
0.38
0.94
1.32
1.41
1.20
0.80
0.34
-0.08
-0.40
-0.62
-0.76
-0.82
-0.81
-0.69
-0.47
-0.17
0.15
0.41
0.53
0.46
0.24
-0.04
-0.31
-0.52
-0.68
-0.85
-1.04
-1.25
-1.41
-1.46
-1.33
-1.05
-0.67
-0.29
0.05
0.35
0.61
0.83
0.99
1.02
0.85
0.46
-0.06
-0.57
-0.87
-0.86
-0.56
-0.11
0.25
0.38
0.28
0.07
-0.04
0.04
0.31
0.61
0.83
0.90
0.89
0.91
1.04
1.30
1.63
1.96
2.26
2.55
2.86
3.21
3.61
4.03
4.44
4.87
5.38
6.00
6.75
7.56
8.29
8.80
9.00
8.94
8.81
8.88
9.36
10.28
11.51
12.80
13.94
14.92
15.84
16.86
18.05
19.25
20.23
20.80
20.96
20.92
20.95
21.23
21.74
22.33
22.85
23.25
23.64
24.20
25.09
26.41
28.16
30.35
32.98
35.97
39.01
41.41
42.23
40.53
35.68
27.68
17.21
5.49
-6.04
-16.09
-23.79
-28.70
-30.86
-30.51
-28.00
-23.71
-17.96
-10.94
-2.86
5.70
13.42
18.15
17.58
10.23
-3.50
-21.11
-38.69
-52.50
-60.42
-62.57
-60.79
-57.37
-53.86
-50.61
-47.20
-43.27
-39.10
-35.51
-33.32
-32.75
-33.25
-33.80
-33.49
-31.91
-29.43
-26.93
-25.36
-25.26
-26.54
-28.48
-30.10
-30.61
-29.82
-28.21
-26.70
-26.17
-27.01
-28.94
-31.14
-32.71
-33.15
-32.59
-31.75
-31.57
-32.93
-36.28
-41.47
-47.58
-52.88
-55.01
-51.62
-41.26
-24.20
-2.64
19.85
39.51
53.70
61.59
64.08
62.93
59.86
55.94
51.60
47.02
42.49
38.52
35.63
34.05
33.53
33.49
33.20
32.11
30.10
27.46
24.77
22.63
21.39
21.06
21.30
21.59
21.43
20.54
18.85
16.46
13.53
10.22
6.70
3.20
0.04
-2.42
-3.92
-4.42
-4.15
-3.49
-2.77
-2.13
-1.51
-0.67
0.51
1.98
3.45
4.56
5.04
4.95
4.65
4.71
5.65
7.66
10.48
13.42
15.70
16.74
16.43
15.16
13.66
12.72
13.05
15.11
19.02
24.16
28.92
30.76
26.91
15.56
-3.00
-26.03
-49.14
-68.02
-80.09
-85.40
-86.07
-84.97
-84.25
-84.65
-85.63
-86.06
-84.83
-81.08
-74.23
-63.87
-50.04
-33.48
-15.62
1.70
16.75
28.43
36.47
41.22
43.37
43.61
42.56
40.80
38.85
37.10
35.73
34.55
33.20
31.30
28.70
25.63
22.59
20.11
18.50
17.71
17.39
17.10
16.46
15.33
13.84
12.28
10.94
10.02
9.55
9.40
9.36
9.23
8.89
8.35
7.74
7.21
6.92
6.90
7.08
7.31
7.43
7.36
7.13
6.87
6.73
6.87
7.33
8.10
9.08
10.09
10.92
11.37
11.31
10.79
10.00
9.18
8.51
7.99
7.45
6.67
5.58
4.33
3.25
2.69
2.85
3.70
5.01
6.51
8.01
9.51
11.09
12.76
14.32
15.34
15.29
13.86
11.07
7.34
3.25
-0.80
-4.71
-8.60
-12.61
-16.60
-20.07
-22.40
-23.20
-22.55
-20.98
-19.21
-17.78
-16.79
-16.03
-15.11
-13.86
-12.35
-10.89
-9.82
-9.30
-9.25
-9.41
-9.51
-9.35
-8.90
-8.24
-7.46
-6.62
-5.74
-4.86
-4.02
-3.30
-2.76
-2.41
-2.19
-2.03
-1.86
-1.64
-1.38
-1.11
-0.86
-0.64
-0.47
-0.32
-0.17
-0.00
0.21
0.47
0.76
1.05
1.31
1.49
1.54
1.41
1.05
0.49
-0.18
-0.79
-1.18
-1.24
-0.96
-0.40
0.30
0.95
1.39
1.55
1.45
1.23
1.09
1.24
1.79
2.69
3.76
4.75
5.47
5.83
5.91
5.85
5.83
5.97
6.39
7.10
7.99
8.74
8.89
7.98
5.78
2.49
-1.29
-4.78
-7.28
-8.50
-8.56
-7.89
-7.01
-6.26
-5.83
-5.70
-5.82
-6.13
-6.54
-6.95
-7.27
-7.40
-7.32
-7.05
-6.64
-6.17
-5.71
-5.28
-4.88
-4.51
-4.09
-3.57
-2.89
-1.97
-0.78
0.71
2.51
4.60
6.89
9.27
11.53
13.51
15.07
16.12
16.66
16.72
16.37
15.72
14.88
14.01
13.25
12.71
12.45
12.54
12.96
13.55
13.93
13.47
11.51
7.71
2.34
-3.76
-9.37
-13.44
-15.52
-15.80
-14.97
-13.77
-12.64
-11.68
-10.79
-9.93
-9.25
-9.04
-9.51
-10.63
-12.09
-13.41
-14.18
-14.11
-13.25
-11.84
-10.22
-8.71
-7.48
-6.53
-5.73
-4.88
-3.87
-2.69
-1.47
-0.44
0.14
0.11
-0.55
-1.70
-3.08
-4.39
-5.40
-6.06
-6.43
-6.69
-6.99
-7.38
-7.80
-8.09
-8.12
-7.85
-7.37
-6.90
-6.65
-6.77
-7.31
-8.16
-9.15
-10.06
-10.75
-11.13
-11.24
-11.21
-11.23
-11.51
-12.18
-13.21
-14.34
-15.07
-14.76
-12.93
-9.45
-4.72
0.41
4.95
8.11
9.63
9.70
8.87
7.66
6.35
5.01
3.56
1.95
0.21
-1.54
-3.04
-3.93
-3.73
-2.01
1.35
5.98
11.02
15.40
18.26
19.31
18.85
17.58
16.11
14.76
13.51
12.19
10.78
9.46
8.54
8.20
8.40
8.85
9.16
9.03
8.39
7.39
6.31
5.42
4.85
4.57
4.40
4.10
3.55
2.77
1.93
1.29
1.04
1.22
1.69
2.20
2.52
2.52
2.24
1.87
1.62
1.61
1.81
2.08
2.24
2.23
2.09
1.96
1.97
2.15
2.42
2.65
2.80
2.95
3.30
4.03
5.19
6.65
8.14
9.37
10.22
10.76
11.19
11.76
12.59
13.64
14.73
15.65
16.28
16.64
16.86
17.17
17.74
18.70
20.13
22.00
24.05
25.68
25.99
23.96
18.90
10.84
0.67
-10.09
-19.81
-27.27
-31.95
-33.99
-33.91
-32.26
-29.44
-25.70
-21.31
-16.54
-11.75
-7.29
-3.41
-0.22
2.28
4.25
5.92
7.49
9.07
10.58
11.88
12.88
13.64
14.35
15.06
15.45
14.86
12.54
8.16
2.12
-4.40
-9.94
-13.35
-14.27
-13.10
-10.71
-7.88
-5.07
-2.44
-0.19
1.29
1.37
-0.37
-3.92
-8.62
-13.45
-17.41
-19.91
-20.91
-20.82
-20.19
-19.46
-18.86
-18.38
-17.97
-17.53
-16.95
-16.11
-14.84
-12.98
-10.49
-7.54
-4.47
-1.64
0.74
2.70
4.46
6.31
8.33
10.35
11.99
12.87
12.78
11.79
10.16
8.10
5.68
2.87
-0.34
-3.77
-7.04
-9.66
-11.29
-11.85
-11.57
-10.90
-10.29
-10.07
-10.36
-11.09
-12.10
-13.17
-14.12
-14.82
-15.21
-15.35
-15.37
-15.38
-15.48
-15.64
-15.72
-15.53
-14.82
-13.29
-10.66
-6.76
-1.63
4.36
10.50
15.92
19.82
21.77
21.76
20.22
17.78
15.02
12.36
10.00
8.01
6.43
5.23
4.35
3.64
2.94
2.08
1.03
-0.13
-1.20
-1.95
-2.23
-2.02
-1.46
-0.82
-0.39
-0.30
-0.54
-0.91
-1.18
-1.20
-1.02
-0.86
-0.97
-1.49
-2.35
-3.30
-4.05
-4.45
-4.56
-4.58
-4.76
-5.23
-5.93
-6.65
-7.17
-7.36
-7.23
-6.95
-6.79
-7.03
-7.93
-9.59
-11.94
-14.75
-17.67
-20.34
-22.57
-24.35
-25.90
-27.48
-29.34
-31.48
-33.74
-35.80
-37.28
-37.79
-36.98
-34.69
-31.00
-26.43
-21.89
-18.35
-16.31
-15.45
-14.46
-11.67
-5.87
2.92
13.36
23.40
31.28
36.38
39.27
41.11
42.77
44.30
45.03
44.22
41.71
38.14
34.57
31.88
30.28
29.29
28.11
26.14
23.28
19.92
16.66
13.95
11.95
10.52
9.34
8.15
6.80
5.35
3.91
2.61
1.50
0.54
-0.36
-1.27
-2.17
-3.01
-3.69
-4.16
-4.46
-4.66
-4.81
-4.97
-5.15
-5.36
-5.60
-5.90
-6.29
-6.81
-7.48
-8.30
-9.30
-10.48
-11.74
-12.80
-13.30
-12.82
-11.10
-8.19
-4.43
-0.32
3.74
7.54
11.15
14.70
18.20
21.41
23.92
25.33
25.51
24.79
23.88
23.68
24.96
28.07
32.77
38.33
43.75
48.13
51.05
52.67
53.62
54.71
56.56
59.33
62.70
66.10
68.87
70.63
71.28
70.91
69.75
67.95
65.39
61.57
55.56
46.16
32.32
13.64
-9.22
-34.39
-59.10
-80.35
-95.62
-103.51
-103.95
-98.08
-87.86
-75.58
-63.40
-53.02
-45.43
-40.87
-38.93
-38.74
-39.31
-39.79
-39.65
-38.72
-37.27
-35.69
-34.39
-33.56
-33.10
-32.63
-31.74
-30.25
-28.27
-26.29
-24.88
-24.46
-25.09
-26.39
-27.67
-28.06
-26.67
-22.77
-15.96
-6.42
5.00
16.82
27.31
35.04
39.37
40.61
39.83
38.26
36.70
35.11
32.79
28.92
23.17
16.06
8.83
2.89
-0.85
-2.34
-2.27
-1.64
-1.18
-1.09
-1.14
-1.00
-0.57
-0.04
0.21
-0.08
-0.85
-1.77
-2.43
-2.56
-2.14
-1.40
-0.65
-0.17
-0.07
-0.30
-0.68
-0.97
-0.94
-0.49
0.37
1.45
2.47
3.15
3.29
2.89
2.12
1.31
0.75
0.66
1.02
1.68
2.38
2.90
3.13
3.04
2.72
2.23
1.68
1.12
0.60
0.18
-0.14
-0.38
-0.63
-0.95
-1.42
-1.98
-2.53
-2.94
-3.12
-3.10
-2.93
-2.72
-2.56
-2.47
-2.47
-2.51
-2.56
-2.56
-2.48
-2.30
-2.05
-1.82
-1.75
-1.95
-2.40
-3.03
-3.65
-4.08
-4.19
-3.97
-3.45
-2.72
-1.91
-1.10
-0.38
0.18
0.53
0.66
0.59
0.37
0.06
-0.29
-0.63
-0.97
-1.30
-1.59
-1.81
-1.88
-1.76
-1.45
-1.00
-0.51
-0.10
0.16
0.27
0.27
0.26
0.31
0.42
0.61
0.82
1.02
1.19
1.29
1.30
1.19
0.98
0.74
0.58
0.57
0.75
1.06
1.37
1.58
1.61
1.45
1.16
0.79
0.41
0.10
-0.11
-0.20
-0.15
0.01
0.23
0.50
0.78
1.04
1.23
1.31
1.24
1.03
0.69
0.26
-0.27
-0.92
-1.66
-2.40
-2.98
-3.29
-3.24
-2.90
-2.41
-1.87
-1.34
-0.77
-0.08
0.73
1.59
2.35
2.85
3.02
2.88
2.53
2.11
1.73
1.45
1.27
1.14
1.01
0.80
0.46
-0.01
-0.56
-1.14
-1.68
-2.15
-2.54
-2.87
-3.12
-3.31
-3.41
-3.42
-3.34
-3.15
-2.90
-2.62
-2.38
-2.21
-2.09
-1.97
-1.75
-1.38
-0.86
-0.27
0.28
0.72
1.02
1.23
1.40
1.55
1.63
1.59
1.44
1.25
1.15
1.23
1.46
1.76
1.95
1.97
1.83
1.65
1.52
1.46
1.36
1.09
0.57
-0.16
-0.91
-1.47
-1.70
-1.59
-1.29
-1.01
-0.88
-0.93
-1.12
-1.33
-1.51
-1.68
-1.89
-2.15
-2.40
-2.48
-2.24
-1.61
-0.70
0.26
0.99
1.33
1.26
0.93
0.56
0.31
0.21
0.20
0.22
0.21
0.20
0.25
0.34
0.42
0.39
0.19
-0.14
-0.50
-0.76
-0.82
-0.70
-0.51
-0.35
-0.30
-0.34
-0.38
-0.32
-0.12
0.17
0.45
0.57
0.44
0.05
-0.51
-1.08
-1.52
-1.69
-1.55
-1.14
-0.59
-0.03
0.44
0.77
1.01
1.24
1.52
1.82
2.01
2.00
1.71
1.24
0.73
0.36
0.24
0.34
0.55
0.74
0.79
0.66
0.37
-0.04
-0.49
-0.89
-1.17
-1.28
-1.26
-1.20
-1.24
-1.46
-1.86
-2.35
-2.78
-3.07
-3.24
-3.37
-3.55
-3.82
-4.14
-4.43
-4.64
-4.77
-4.88
-5.05
-5.29
-5.58
-5.87
-6.09
-6.23
-6.35
-6.55
-6.92
-7.53
-8.36
-9.30
-10.20
-10.89
-11.31
-11.49
-11.55
-11.65
-11.88
-12.24
-12.63
-12.85
-12.61
-11.57
-9.35
-5.68
-0.59
5.50
11.74
17.09
20.70
22.17
21.69
19.89
17.53
15.18
13.07
11.23
9.59
8.16
7.07
6.43
6.25
6.39
6.59
6.65
6.44
6.00
5.47
4.98
4.61
4.36
4.11
3.77
3.25
2.58
1.89
1.36
1.18
1.44
2.07
2.88
3.59
3.96
3.89
3.43
2.74
2.06
1.54
1.23
1.10
1.05
0.99
0.90
0.80
0.69
0.56
0.37
0.05
-0.41
-1.01
-1.71
-2.44
-3.16
-3.83
-4.37
-4.71
-4.80
-4.62
-4.21
-3.71
-3.28
-3.09
-3.21
-3.64
-4.25
-4.91
-5.51
-6.08
-6.80
-7.90
-9.56
-11.74
-14.10
-16.10
-17.23
-17.25
-16.40
-15.32
-14.82
-15.53
-17.63
-20.73
-24.12
-27.00
-28.86
-29.67
-29.81
-29.93
-30.73
-32.75
-36.20
-40.74
-45.28
-48.09
-47.15
-40.90
-28.98
-12.62
5.66
22.83
36.44
45.34
49.79
50.97
50.16
48.25
45.58
42.24
38.44
34.69
31.66
29.84
29.27
29.45
29.54
28.69
26.50
23.17
19.45
16.34
14.65
14.63
15.84
17.30
17.91
16.93
14.30
10.72
7.34
5.31
5.19
6.77
9.07
10.80
10.88
8.87
5.19
0.95
-2.43
-3.72
-2.24
1.73
6.78
10.37
9.45
1.39
-14.96
-38.41
-65.26
-89.98
-106.68
-110.90
-101.04
-78.85
-48.91
-17.03
11.45
33.07
46.73
53.26
54.42
51.92
46.91
40.14
32.30
24.44
17.84
13.50
11.62
11.48
11.80
11.38
9.71
7.14
4.64
3.20
3.28
4.61
6.30
7.38
7.20
5.77
3.66
1.71
0.64
0.74
1.81
3.30
4.59
5.22
5.04
4.23
3.09
1.99
1.14
0.61
0.31
0.11
-0.09
-0.32
-0.51
-0.56
-0.37
0.06
0.63
1.19
1.57
1.63
1.35
0.82
0.19
-0.38
-0.78
-0.99
-1.05
-1.05
-1.04
-1.05
-1.05
-1.02
-0.94
-0.82
-0.71
-0.64
-0.62
-0.63
-0.64
-0.62
-0.57
-0.51
-0.48
-0.50
-0.58
-0.71
-0.84
-0.93
-0.95
-0.89
-0.76
-0.58
-0.32
0.02
0.48
1.04
1.63
2.15
2.52
2.67
2.65
2.54
2.40
2.29
2.22
2.18
2.18
2.19
2.18
2.09
1.83
1.37
0.74
0.07
-0.48
-0.75
-0.65
-0.16
0.62
1.58
2.59
3.54
4.32
4.87
5.22
5.44
5.67
6.11
6.87
7.96
9.29
10.62
11.75
12.55
13.04
13.38
13.79
14.44
15.39
16.54
17.70
18.66
19.33
19.74
20.08
20.60
21.48
22.74
24.11
25.03
24.70
22.31
17.22
9.29
-0.99
-12.50
-23.73
-33.22
-39.92
-43.50
-44.30
-43.12
-40.89
-38.34
-35.94
-33.89
-32.16
-30.55
-28.64
-25.88
-21.82
-16.32
-9.79
-3.15
2.53
6.39
8.20
8.32
7.51
6.50
5.69
5.17
4.76
4.32
3.87
3.52
3.40
3.50
3.68
3.73
3.48
2.88
2.00
1.00
0.00
-0.91
-1.74
-2.54
-3.37
-4.22
-5.02
-5.64
-5.98
-5.94
-5.54
-4.82
-3.89
-2.84
-1.76
-0.68
0.40
1.50
2.63
3.74
4.74
5.51
5.96
6.12
6.09
6.04
6.16
6.49
6.98
7.45
7.76
7.86
7.83
7.86
8.11
8.64
9.37
10.16
10.83
11.34
11.73
12.11
12.61
13.28
14.12
15.08
16.09
17.14
18.22
19.37
20.65
22.11
23.78
25.62
27.36
28.56
28.56
26.67
22.34
15.38
6.11
-4.61
-15.52
-25.32
-32.93
-37.83
-40.07
-40.20
-38.99
-37.13
-35.15
-33.30
-31.67
-30.29
-29.14
-28.17
-27.23
-26.12
-24.69
-22.96
-21.15
-19.64
-18.84
-19.07
-20.41
-22.67
-25.49
-28.40
-31.02
-33.11
-34.62
-35.67
-36.43
-37.05
-37.63
-38.15
-38.52
-38.57
-38.10
-36.89
-34.81
-31.95
-28.71
-25.81
-24.04
-23.97
-25.60
-28.30
-30.85
-31.82
-29.93
-24.49
-15.62
-4.34
7.68
18.48
26.35
30.21
29.84
25.91
19.78
13.24
8.11
5.88
7.24
11.94
18.81
26.17
32.35
36.34
38.02
37.98
37.15
36.28
35.68
35.29
34.90
34.32
33.55
32.63
31.62
30.47
29.15
27.58
25.77
23.84
21.94
20.25
18.84
17.63
16.45
15.07
13.35
11.31
9.12
7.07
5.46
4.48
4.13
4.22
4.45
4.55
4.35
3.90
3.39
3.06
3.02
3.24
3.56
3.77
3.74
3.47
3.05
2.59
2.18
1.86
1.64
1.51
1.48
1.56
1.74
1.99
2.30
2.68
3.12
3.58
4.00
4.27
4.33
4.20
4.01
3.98
4.31
5.08
6.25
7.63
8.99
10.17
11.10
11.87
12.64
13.59
14.86
16.46
18.28
20.09
21.66
22.88
23.84
24.83
26.23
28.27
30.87
33.64
36.02
37.60
38.39
38.92
40.11
42.86
47.65
54.28
61.82
68.88
74.05
76.33
75.41
71.80
66.79
62.15
59.73
60.97
66.29
74.48
82.66
86.79
83.01
69.17
45.95
16.88
-12.92
-38.64
-57.43
-69.05
-75.23
-78.33
-80.14
-81.37
-81.96
-81.83
-81.34
-81.12
-81.67
-82.83
-83.73
-83.28
-80.76
-76.18
-70.35
-64.50
-59.69
-56.42
-54.48
-53.10
-51.33
-48.48
-44.35
-39.30
-34.08
-29.44
-25.91
-23.55
-22.02
-20.79
-19.36
-17.52
-15.38
-13.23
-11.39
-10.03
-9.14
-8.57
-8.13
-7.65
-7.03
-6.22
-5.25
-4.19
-3.18
-2.38
-1.89
-1.75
-1.91
-2.29
-2.81
-3.42
-4.12
-4.89
-5.69
-6.45
-7.15
-7.85
-8.66
-9.69
-10.95
-12.25
-13.33
-13.90
-13.77
-12.98
-11.69
-10.16
-8.63
-7.22
-5.97
-4.84
-3.73
-2.48
-0.95
1.00
3.31
5.78
8.04
9.73
10.59
10.65
10.15
9.42
8.75
8.24
7.84
7.42
6.92
6.35
5.87
5.69
5.96
6.70
7.81
9.02
10.01
10.53
10.46
9.86
8.92
7.85
6.83
5.92
5.10
4.35
3.65
3.08
2.67
2.43
2.26
2.08
1.79
1.38
0.95
0.63
0.50
0.58
0.81
1.03
1.17
1.18
1.08
0.92
0.76
0.58
0.39
0.14
-0.13
-0.37
-0.49
-0.46
-0.29
-0.11
-0.05
-0.24
-0.69
-1.29
-1.86
-2.22
-2.30
-2.14
-1.87
-1.63
-1.48
-1.42
-1.38
-1.32
-1.26
-1.30
-1.47
-1.78
-2.15
-2.49
-2.69
-2.74
-2.65
-2.51
-2.41
-2.45
-2.66
-3.05
-3.53
-3.99
-4.29
-4.38
-4.29
-4.07
-3.80
-3.49
-3.10
-2.55
-1.79
-0.79
0.46
1.97
3.69
5.51
7.22
8.55
9.27
9.28
8.69
7.76
6.79
6.00
5.42
4.94
4.38
3.65
2.74
1.79
0.93
0.27
-0.18
-0.45
-0.57
-0.57
-0.44
-0.22
0.03
0.19
0.17
-0.03
-0.33
-0.55
-0.54
-0.24
0.31
0.94
1.47
1.71
1.62
1.24
0.71
0.20
-0.16
-0.35
-0.42
-0.48
-0.61
-0.82
-1.06
-1.23
-1.31
-1.31
-1.32
-1.41
-1.61
-1.87
-2.06
-2.08
-1.88
-1.51
-1.07
-0.68
-0.46
-0.47
-0.72
-1.12
-1.53
-1.78
-1.72
-1.34
-0.72
-0.03
0.54
0.89
1.02
1.01
0.95
0.89
0.81
0.67
0.45
0.21
0.10
0.26
0.73
1.48
2.29
2.94
3.20
2.98
2.31
1.32
0.24
-0.74
-1.42
-1.73
-1.68
-1.36
-0.89
-0.42
-0.03
0.24
0.37
0.37
0.24
0.00
-0.32
-0.67
-0.97
-1.18
-1.28
-1.29
-1.25
-1.18
-1.11
-1.06
-1.00
-0.95
-0.87
-0.75
-0.57
-0.37
-0.17
-0.04
-0.02
-0.10
-0.26
-0.46
-0.68
-0.87
-1.00
-1.07
-1.04
-0.94
-0.81
-0.70
-0.65
-0.65
-0.65
-0.60
-0.48
-0.29
-0.09
0.06
0.12
0.06
-0.09
-0.26
-0.40
-0.42
-0.29
-0.04
0.25
0.49
0.59
0.57
0.50
0.51
0.70
1.05
1.50
1.91
2.15
2.17
1.98
1.63
1.17
0.67
0.18
-0.24
-0.56
-0.72
-0.75
-0.68
-0.58
-0.49
-0.44
-0.43
-0.44
-0.43
-0.38
-0.29
-0.18
-0.07
0.01
0.02
-0.04
-0.18
-0.40
-0.71
-1.07
-1.43
-1.73
-1.87
-1.79
-1.51
-1.09
-0.59
-0.11
0.32
0.69
1.02
1.31
1.57
1.79
1.97
2.09
2.16
2.15
2.02
1.77
1.42
1.02
0.63
0.29
0.05
-0.10
-0.18
-0.24
-0.30
-0.37
-0.44
-0.50
-0.56
-0.68
-0.90
-1.22
-1.57
-1.80
-1.76
-1.39
-0.78
-0.10
0.41
0.59
0.41
-0.03
-0.56
-1.04
-1.34
-1.39
-1.15
-0.63
0.08
0.88
1.58
2.03
2.14
1.93
1.53
1.12
0.87
0.81
0.89
0.96
0.88
0.61
0.25
-0.02
-0.07
0.13
0.44
0.65
0.62
0.31
-0.13
-0.53
-0.77
-0.82
-0.74
-0.59
-0.39
-0.14
0.18
0.50
0.74
0.80
0.69
0.50
0.33
0.26
0.25
0.20
0.04
-0.26
-0.61
-0.90
-1.04
-1.03
-0.95
-0.86
-0.82
-0.77
-0.66
-0.44
-0.14
0.12
0.23
0.16
-0.06
-0.29
-0.43
-0.40
-0.22
0.06
0.36
0.63
0.85
0.98
1.00
0.92
0.75
0.55
0.33
0.14
-0.02
-0.11
-0.13
-0.09
-0.02
0.05
0.08
0.12
0.20
0.30
0.36
0.23
-0.18
-0.83
-1.56
-2.08
-2.17
-1.82
-1.14
-0.39
0.25
0.73
1.09
1.40
1.66
1.77
1.64
1.29
0.84
0.49
0.40
0.60
0.96
1.28
1.42
1.31
1.02
0.66
0.32
0.06
-0.08
-0.10
-0.04
0.05
0.07
-0.08
-0.43
-0.92
-1.40
-1.71
-1.73
-1.48
-1.05
-0.66
-0.45
-0.53
-0.85
-1.31
-1.70
-1.88
-1.77
-1.42
-0.97
-0.55
-0.30
-0.23
-0.31
-0.43
-0.53
-0.55
-0.48
-0.32
-0.08
0.20
0.51
0.81
1.10
1.36
1.58
1.70
1.65
1.37
0.89
0.33
-0.11
-0.25
-0.04
0.41
0.86
1.06
0.93
0.55
0.15
-0.04
0.07
0.38
0.67
0.72
0.47
-0.00
-0.51
-0.87
-1.01
-0.96
-0.80
-0.62
-0.45
-0.31
-0.17
-0.08
-0.05
-0.11
-0.26
-0.43
-0.54
-0.52
-0.35
-0.08
0.22
0.41
0.42
0.23
-0.08
-0.36
-0.49
-0.39
-0.12
0.17
0.32
0.23
-0.05
-0.37
-0.54
-0.44
-0.08
0.39
0.80
0.97
0.84
0.47
-0.01
-0.46
-0.77
-0.90
-0.88
-0.75
-0.58
-0.42
-0.31
-0.23
-0.18
-0.12
-0.05
0.06
0.18
0.34
0.55
0.84
1.20
1.56
1.81
1.83
1.59
1.15
0.67
0.31
0.17
0.20
0.29
0.34
0.28
0.16
0.06
0.01
0.03
0.03
-0.06
-0.28
-0.60
-0.95
-1.24
-1.40
-1.41
-1.31
-1.16
-1.01
-0.91
-0.85
-0.83
-0.82
-0.81
-0.81
-0.81
-0.82
-0.78
-0.65
-0.43
-0.11
0.22
0.49
0.63
0.58
0.37
0.06
-0.28
-0.54
-0.65
-0.58
-0.37
-0.11
0.09
0.18
0.17
0.12
0.12
0.22
0.40
0.60
0.76
0.87
0.93
0.99
1.06
1.15
1.23
1.28
1.26
1.12
0.84
0.41
-0.14
-0.71
-1.16
-1.35
-1.18
-0.70
-0.06
0.54
0.93
1.04
0.92
0.72
0.60
0.61
0.72
0.80
0.70
0.41
0.00
-0.34
-0.48
-0.37
-0.10
0.19
0.37
0.40
0.30
0.14
-0.02
-0.20
-0.41
-0.64
-0.80
-0.81
-0.59
-0.20
0.24
0.55
0.66
0.56
0.39
0.26
0.26
0.36
0.48
0.53
0.46
0.32
0.21
0.25
0.52
0.98
1.53
2.03
2.35
2.44
2.32
2.11
1.92
1.82
1.79
1.77
1.65
1.45
1.22
1.05
1.00
0.99
0.89
0.58
0.01
-0.68
-1.28
-1.60
-1.57
-1.26
-0.85
-0.54
-0.49
-0.71
-1.14
-1.63
-2.07
-2.35
-2.45
-2.42
-2.31
-2.22
-2.19
-2.25
-2.39
-2.57
-2.78
-2.99
-3.18
-3.30
-3.32
-3.19
-2.91
-2.51
-2.06
-1.65
-1.34
-1.15
-1.02
-0.86
-0.59
-0.19
0.26
0.66
0.90
0.95
0.88
0.80
0.84
1.04
1.39
1.80
2.15
2.36
2.39
2.28
2.09
1.93
1.83
1.81
1.82
1.82
1.77
1.65
1.45
1.15
0.73
0.22
-0.34
-0.89
-1.35
-1.66
-1.79
-1.74
-1.57
-1.32
-1.05
-0.79
-0.57
-0.39
-0.22
-0.04
0.14
0.29
0.35
0.31
0.19
0.04
-0.07
-0.11
-0.10
-0.12
-0.23
-0.41
-0.60
-0.69
-0.60
-0.33
0.03
0.31
0.35
0.11
-0.33
-0.80
-1.09
-1.10
-0.85
-0.54
-0.37
-0.49
-0.92
-1.50
-2.02
-2.30
-2.23
-1.88
-1.36
-0.82
-0.37
-0.02
0.23
0.41
0.54
0.60
0.58
0.45
0.22
-0.07
-0.40
-0.70
-0.91
-0.94
-0.76
-0.36
0.20
0.78
1.24
1.47
1.50
1.43
1.46
1.71
2.18
2.74
3.19
3.35
3.13
2.60
1.92
1.26
0.78
0.54
0.49
0.52
0.50
0.34
0.04
-0.31
-0.60
-0.69
-0.53
-0.18
0.26
0.66
0.93
1.01
0.93
0.71
0.45
0.24
0.16
0.27
0.54
0.86
1.08
1.08
0.80
0.27
-0.39
-1.04
-1.58
-1.92
-2.04
-1.94
-1.70
-1.39
-1.15
-1.07
-1.20
-1.47
-1.75
-1.89
-1.80
-1.46
-0.93
-0.35
0.17
0.51
0.63
0.49
0.14
-0.29
-0.65
-0.79
-0.62
-0.16
0.46
1.13
1.73
2.20
2.50
2.60
2.49
2.21
1.81
1.41
1.11
0.99
1.01
1.10
1.12
0.98
0.63
0.12
-0.47
-1.00
-1.37
-1.51
-1.42
-1.18
-0.90
-0.68
-0.57
-0.56
-0.61
-0.71
-0.85
-1.04
-1.27
-1.52
-1.73
-1.83
-1.78
-1.59
-1.28
-0.95
-0.66
-0.42
-0.24
-0.06
0.17
0.46
0.77
1.01
1.09
0.96
0.65
0.25
-0.09
-0.26
-0.22
0.02
0.34
0.65
0.89
1.04
1.13
1.19
1.23
1.25
1.21
1.07
0.78
0.35
-0.20
-0.82
-1.45
-2.00
-2.36
-2.43
-2.17
-1.62
-0.93
-0.30
0.07
0.09
-0.17
-0.56
-0.85
-0.91
-0.70
-0.29
0.18
0.60
0.92
1.15
1.33
1.50
1.66
1.79
1.86
1.85
1.74
1.56
1.29
0.99
0.68
0.43
0.27
0.21
0.20
0.18
0.10
-0.05
-0.23
-0.36
-0.38
-0.28
-0.14
-0.03
-0.03
-0.17
-0.40
-0.69
-0.96
-1.16
-1.29
-1.33
-1.29
-1.21
-1.10
-0.97
-0.82
-0.60
-0.30
0.10
0.54
0.92
1.15
1.17
0.97
0.65
0.34
0.13
0.08
0.18
0.32
0.40
0.35
0.15
-0.12
-0.34
-0.40
-0.28
-0.04
0.16
0.22
0.10
-0.15
-0.43
-0.64
-0.75
-0.77
-0.73
-0.65
-0.51
-0.33
-0.11
0.08
0.14
0.04
-0.19
-0.49
-0.77
-0.96
-1.04
-1.00
-0.84
-0.56
-0.19
0.25
0.67
1.03
1.27
1.40
1.44
1.47
1.50
1.56
1.61
1.61
1.53
1.40
1.24
1.09
0.97
0.82
0.62
0.33
-0.03
-0.40
-0.71
-0.89
-0.92
-0.82
-0.62
-0.39
-0.19
-0.07
-0.05
-0.13
-0.27
-0.42
-0.55
-0.64
-0.73
-0.83
-0.91
-0.94
-0.86
-0.65
-0.34
-0.01
0.25
0.40
0.42
0.34
0.20
0.05
-0.09
-0.23
-0.36
-0.45
-0.49
-0.45
-0.34
-0.17
0.03
0.22
0.39
0.49
0.54
0.52
0.44
0.32
0.17
0.04
-0.04
-0.03
0.08
0.24
0.39
0.45
0.37
0.12
-0.24
-0.61
-0.89
-1.00
-0.95
-0.82
-0.72
-0.71
-0.77
-0.82
-0.74
-0.51
-0.14
0.23
0.49
0.57
0.51
0.37
0.27
0.29
0.44
0.68
0.93
1.14
1.28
1.34
1.35
1.29
1.13
0.82
0.37
-0.18
-0.69
-1.01
-1.06
-0.83
-0.43
-0.02
0.24
0.26
0.04
-0.35
-0.80
-1.18
-1.40
-1.45
-1.36
-1.21
-1.06
-0.91
-0.75
-0.52
-0.22
0.09
0.34
0.45
0.44
0.37
0.35
0.40
0.52
0.64
0.70
0.69
0.66
0.64
0.64
0.58
0.40
0.10
-0.24
-0.49
-0.53
-0.32
0.03
0.37
0.53
0.47
0.23
-0.03
-0.17
-0.12
0.09
0.37
0.59
0.66
0.57
0.36
0.07
-0.24
-0.52
-0.75
-0.92
-1.01
-0.99
-0.89
-0.76
-0.65
-0.60
-0.59
-0.57
-0.47
-0.29
-0.08
0.08
0.14
0.10
0.01
-0.06
-0.07
-0.04
-0.02
-0.05
-0.13
-0.18
-0.14
0.04
0.34
0.68
1.00
1.24
1.40
1.51
1.60
1.69
1.80
1.93
2.08
2.20
2.25
2.14
1.81
1.26
0.58
-0.06
-0.52
-0.70
-0.66
-0.48
-0.29
-0.14
-0.00
0.15
0.33
0.49
0.48
0.20
-0.37
-1.13
-1.85
-2.30
-2.34
-1.99
-1.39
-0.76
-0.28
-0.02
0.04
-0.06
-0.24
-0.44
-0.61
-0.69
-0.61
-0.32
0.15
0.68
1.07
1.18
0.94
0.47
-0.03
-0.37
-0.44
-0.31
-0.09
0.07
0.09
-0.04
-0.28
-0.61
-0.97
-1.32
-1.58
-1.62
-1.41
-0.95
-0.38
0.13
0.44
0.49
0.33
0.10
-0.10
-0.18
-0.14
-0.04
0.08
0.18
0.23
0.25
0.21
0.12
-0.02
-0.16
-0.24
-0.19
-0.00
0.28
0.57
0.77
0.80
0.66
0.41
0.14
-0.09
-0.23
-0.25
-0.18
-0.12
-0.15
-0.37
-0.81
-1.41
-1.99
-2.40
-2.53
-2.43
-2.23
-2.10
-2.12
-2.28
-2.45
-2.54
-2.48
-2.30
-2.08
-1.85
-1.56
-1.15
-0.60
0.04
0.63
1.05
1.22
1.21
1.10
1.02
0.99
1.00
0.97
0.85
0.61
0.25
-0.19
-0.67
-1.17
-1.64
-2.04
-2.32
-2.44
-2.38
-2.15
-1.74
-1.19
-0.50
0.33
1.28
2.34
3.45
4.56
5.55
6.32
6.75
6.79
6.45
5.84
5.11
4.41
3.82
3.34
2.87
2.36
1.76
1.13
0.56
0.14
-0.11
-0.21
-0.24
-0.26
-0.33
-0.45
-0.62
-0.80
-0.94
-0.95
-0.83
-0.61
-0.39
-0.28
-0.34
-0.53
-0.74
-0.82
-0.72
-0.46
-0.17
-0.02
-0.07
-0.31
-0.64
-0.91
-1.03
-0.99
-0.81
-0.58
-0.40
-0.31
-0.32
-0.37
-0.43
-0.43
-0.39
-0.32
-0.24
-0.16
-0.04
0.14
0.37
0.56
0.64
0.56
0.33
0.05
-0.17
-0.28
-0.25
-0.16
-0.09
-0.08
-0.17
-0.34
-0.55
-0.78
-0.97
-1.09
-1.10
-1.02
-0.90
-0.83
-0.86
-0.98
-1.14
-1.27
-1.30
-1.24
-1.12
-0.94
-0.72
-0.43
-0.08
0.27
0.52
0.61
0.53
0.36
0.19
0.09
0.05
0.00
-0.11
-0.29
-0.47
-0.56
-0.50
-0.31
-0.04
0.22
0.43
0.55
0.56
0.45
0.24
-0.02
-0.24
-0.33
-0.25
-0.08
0.05
0.05
-0.12
-0.38
-0.60
-0.67
-0.58
-0.40
-0.23
-0.10
-0.01
0.11
0.32
0.59
0.83
0.93
0.85
0.61
0.31
0.06
-0.08
-0.12
-0.15
-0.29
-0.54
-0.84
-1.03
-0.95
-0.59
-0.03
0.54
0.91
1.02
0.90
0.66
0.43
0.26
0.12
-0.02
-0.18
-0.36
-0.52
-0.62
-0.65
-0.60
-0.47
-0.27
-0.03
0.18
0.32
0.35
0.31
0.27
0.29
0.38
0.50
0.57
0.53
0.41
0.30
0.28
0.37
0.49
0.53
0.43
0.22
0.00
-0.09
-0.03
0.09
0.15
0.03
-0.27
-0.61
-0.82
-0.75
-0.41
0.09
0.56
0.84
0.87
0.66
0.30
-0.11
-0.52
-0.90
-1.23
-1.47
-1.55
-1.41
-1.06
-0.57
-0.10
0.21
0.32
0.29
0.24
0.27
0.40
0.53
0.52
0.28
-0.19
-0.76
-1.25
-1.48
-1.32
-0.71
0.29
1.54
2.81
3.84
4.44
4.52
4.13
3.42
2.58
1.77
1.08
0.58
0.25
0.08
0.04
0.07
0.10
0.08
-0.03
-0.20
-0.38
-0.52
-0.58
-0.58
-0.54
-0.47
-0.35
-0.15
0.13
0.43
0.65
0.71
0.56
0.26
-0.05
-0.22
-0.15
0.15
0.52
0.74
0.64
0.15
-0.63
-1.51
-2.27
-2.79
-3.06
-3.14
-3.14
-3.13
-3.12
-3.10
-3.05
-3.02
-3.09
-3.34
-3.80
-4.47
-5.32
-6.28
-7.30
-8.30
-9.19
-9.91
-10.44
-10.86
-11.34
-12.08
-13.25
-14.86
-16.74
-18.61
-20.18
-21.39
-22.42
-23.70
-25.68
-28.63
-32.42
-36.53
-40.28
-43.10
-44.90
-46.17
-47.81
-50.78
-55.58
-61.99
-69.00
-75.27
-79.64
-81.66
-81.87
-81.57
-82.43
-85.91
-92.74
-102.57
-113.69
-123.03
-126.49
-119.74
-99.66
-65.72
-20.89
28.70
75.47
112.73
136.69
147.26
147.32
140.94
131.69
121.70
111.80
102.29
93.56
86.33
81.15
77.93
75.74
73.10
68.70
62.10
53.90
45.52
38.55
33.95
31.73
30.96
30.33
28.75
25.82
21.92
17.93
14.72
12.75
11.92
11.71
11.45
10.66
9.20
7.25
5.20
3.46
2.26
1.63
1.39
1.26
1.05
0.68
0.25
-0.04
-0.04
0.34
1.03
1.90
2.74
3.44
3.90
4.11
4.08
3.85
3.47
2.99
2.50
2.06
1.77
1.63
1.63
1.64
1.55
1.30
0.90
0.48
0.16
0.05
0.13
0.29
0.39
0.36
0.21
0.08
0.09
0.28
0.62
0.97
1.17
1.17
0.98
0.75
0.63
0.74
1.08
1.54
1.95
2.15
2.07
1.77
1.41
1.13
1.04
1.11
1.27
1.44
1.55
1.59
1.54
1.37
1.06
0.64
0.18
-0.19
-0.37
-0.32
-0.15
0.01
0.03
-0.12
-0.36
-0.56
-0.61
-0.53
-0.38
-0.28
-0.26
-0.32
-0.36
-0.32
-0.21
-0.08
0.01
0.02
-0.05
-0.16
-0.23
-0.24
-0.18
-0.06
0.12
0.34
0.55
0.72
0.82
0.84
0.81
0.75
0.72
0.74
0.81
0.96
1.15
1.36
1.52
1.56
1.47
1.28
1.09
1.01
1.12
1.41
1.82
2.23
2.56
2.81
3.04
3.33
3.74
4.33
5.04
5.75
6.26
6.32
5.76
4.57
2.94
1.27
-0.01
-0.62
-0.61
-0.31
-0.13
-0.30
-0.72
-0.97
-0.59
0.64
2.53
4.54
6.11
6.95
7.26
7.63
8.75
11.07
14.60
18.86
23.05
26.14
27.06
24.89
19.06
9.64
-2.52
-15.89
-28.69
-39.44
-47.35
-52.58
-55.92
-58.39
-60.63
-62.46
-62.84
-60.22
-53.25
-41.59
-26.30
-9.69
5.46
16.88
23.62
26.19
25.99
24.47
22.42
19.92
16.66
12.61
8.26
4.51
2.16
1.46
1.97
2.82
3.18
2.69
1.63
0.69
0.60
1.65
3.61
5.79
7.46
8.12
7.74
6.64
5.34
4.27
3.64
3.44
3.54
3.81
4.16
4.58
5.11
5.78
6.62
7.58
8.53
9.32
9.78
9.79
9.37
8.61
7.62
6.46
5.10
3.52
1.71
-0.18
-1.93
-3.33
-4.28
-4.82
-5.11
-5.33
-5.54
-5.66
-5.53
-5.01
-4.06
-2.80
-1.43
-0.16
0.86
1.57
2.02
2.27
2.40
2.44
2.39
2.27
2.12
2.02
2.03
2.15
2.32
2.44
2.42
2.19
1.74
1.09
0.27
-0.68
-1.69
-2.64
-3.37
-3.74
-3.72
-3.43
-3.06
-2.84
-2.86
-3.06
-3.31
-3.45
-3.44
-3.34
-3.28
-3.36
-3.56
-3.80
-3.90
-3.78
-3.44
-3.02
-2.70
-2.61
-2.79
-3.10
-3.30
-3.20
-2.67
-1.79
-0.76
0.18
0.87
1.27
1.47
1.62
1.82
2.09
2.36
2.58
2.74
2.89
3.06
3.26
3.42
3.43
3.30
3.07
2.92
2.94
3.16
3.45
3.60
3.47
3.04
2.46
1.92
1.59
1.50
1.56
1.62
1.57
1.38
1.15
0.97
0.87
0.85
0.85
0.86
0.88
0.98
1.19
1.50
1.82
2.03
2.06
1.91
1.61
1.24
0.87
0.56
0.33
0.20
0.15
0.13
0.10
0.01
-0.14
-0.31
-0.46
-0.57
-0.65
-0.72
-0.79
-0.88
-0.97
-1.05
-1.12
-1.20
-1.31
-1.48
-1.72
-2.07
-2.50
-2.96
-3.35
-3.58
-3.61
-3.46
-3.24
-3.03
-2.89
-2.82
-2.77
-2.71
-2.62
-2.50
-2.37
-2.26
-2.21
-2.23
-2.34
-2.51
-2.69
-2.85
-2.94
-2.92
-2.77
-2.40
-1.75
-0.77
0.49
1.83
2.97
3.66
3.77
3.35
2.61
1.81
1.13
0.63
0.25
-0.08
-0.37
-0.57
-0.59
-0.39
0.01
0.53
1.09
1.68
2.33
3.05
3.75
4.25
4.40
4.11
3.48
2.69
1.96
1.42
1.02
0.67
0.24
-0.30
-0.93
-1.58
-2.18
-2.69
-3.10
-3.41
-3.63
-3.75
-3.82
-3.85
-3.87
-3.82
-3.63
-3.22
-2.54
-1.63
-0.56
0.56
1.63
2.54
3.25
3.72
3.95
3.99
3.91
3.79
3.68
3.59
3.52
3.40
3.20
2.86
2.36
1.71
0.97
0.24
-0.34
-0.66
-0.63
-0.29
0.29
0.98
1.66
2.22
2.57
2.67
2.48
2.01
1.33
0.59
-0.05
-0.48
-0.68
-0.72
-0.70
-0.71
-0.77
-0.86
-0.91
-0.85
-0.67
-0.38
-0.05
0.22
0.36
0.34
0.19
-0.02
-0.19
-0.24
-0.15
0.07
0.34
0.56
0.65
0.58
0.37
0.08
-0.19
-0.37
-0.43
-0.39
-0.29
-0.17
-0.05
0.05
0.11
0.07
-0.10
-0.40
-0.74
-1.00
-1.08
-0.97
-0.73
-0.49
-0.38
-0.44
-0.62
-0.80
-0.88
-0.80
-0.60
-0.36
-0.18
-0.10
-0.08
-0.08
-0.05
0.00
0.01
-0.10
-0.35
-0.66
-0.91
-1.00
-0.91
-0.74
-0.65
-0.70
-0.86
-1.02
-1.04
-0.88
-0.60
-0.32
-0.14
-0.05
0.04
0.24
0.54
0.88
1.13
1.21
1.19
1.20
1.38
1.75
2.20
2.48
2.38
1.85
0.98
0.03
-0.72
-1.10
-1.07
-0.73
-0.24
0.27
0.72
1.06
1.26
1.31
1.21
0.98
0.67
0.37
0.13
-0.03
-0.16
-0.30
-0.51
-0.77
-1.04
-1.23
-1.29
-1.18
-0.96
-0.72
-0.51
-0.38
-0.31
-0.25
-0.15
-0.04
0.04
0.02
-0.14
-0.36
-0.54
-0.61
-0.53
-0.37
-0.23
-0.20
-0.32
-0.54
-0.77
-0.95
-1.04
-1.02
-0.94
-0.84
-0.75
-0.67
-0.60
-0.53
-0.47
-0.42
-0.40
-0.42
-0.49
-0.58
-0.66
-0.72
-0.76
-0.81
-0.86
-0.88
-0.81
-0.60
-0.27
0.10
0.43
0.65
0.79
0.92
1.11
1.39
1.68
1.87
1.83
1.57
1.15
0.71
0.35
0.11
-0.04
-0.13
-0.19
-0.20
-0.10
0.16
0.59
1.14
1.71
2.15
2.35
2.24
1.87
1.33
0.79
0.39
0.23
0.33
0.66
1.15
1.71
2.26
2.72
3.00
3.02
2.73
2.18
1.50
0.87
0.48
0.42
0.64
1.00
1.29
1.39
1.26
0.94
0.55
0.20
-0.02
-0.10
-0.04
0.11
0.30
0.49
0.67
0.82
0.94
1.01
0.98
0.83
0.57
0.25
-0.07
-0.34
-0.55
-0.76
-0.99
-1.25
-1.47
-1.63
-1.72
-1.78
-1.84
-1.93
-2.02
-2.06
-2.04
-2.02
-2.08
-2.34
-2.78
-3.29
-3.63
-3.60
-3.10
-2.22
-1.22
-0.39
0.07
0.13
-0.08
-0.36
-0.56
-0.63
-0.61
-0.55
-0.47
-0.33
-0.13
0.11
0.31
0.36
0.22
-0.10
-0.48
-0.76
-0.82
-0.61
-0.19
0.31
0.72
0.94
0.92
0.72
0.46
0.25
0.16
0.19
0.29
0.38
0.38
0.27
0.06
-0.18
-0.36
-0.40
-0.26
0.02
0.38
0.76
1.11
1.42
1.67
1.83
1.88
1.83
1.72
1.64
1.72
1.96
2.30
2.57
2.57
2.16
1.34
0.26
-0.85
-1.76
-2.28
-2.40
-2.17
-1.75
-1.31
-0.98
-0.80
-0.76
-0.80
-0.89
-0.97
-1.04
-1.10
-1.15
-1.19
-1.20
-1.17
-1.09
-0.99
-0.91
-0.85
-0.83
-0.84
-0.89
-0.97
-1.09
-1.23
-1.34
-1.41
-1.39
-1.29
-1.14
-0.96
-0.81
-0.73
-0.72
-0.80
-0.92
-1.06
-1.19
-1.34
-1.57
-1.91
-2.37
-2.87
-3.31
-3.63
-3.81
-3.88
-3.89
-3.89
-3.88
-3.85
-3.80
-3.72
-3.59
-3.34
-2.92
-2.27
-1.43
-0.51
0.36
1.11
1.73
2.34
3.02
3.83
4.69
5.50
6.13
6.49
6.57
6.36
5.90
5.23
4.41
3.57
2.86
2.40
2.22
2.24
2.33
2.36
2.26
2.02
1.71
1.38
1.10
0.88
0.72
0.60
0.50
0.42
0.34
0.26
0.19
0.13
0.11
0.17
0.32
0.54
0.78
0.97
1.03
0.97
0.82
0.72
0.74
0.89
1.05
1.05
0.73
0.10
-0.68
-1.39
-1.86
-2.05
-2.09
-2.16
-2.36
-2.68
-2.97
-3.06
-2.89
-2.48
-1.99
-1.54
-1.25
-1.11
-1.07
-1.06
-0.95
-0.68
-0.25
0.31
0.88
1.35
1.61
1.65
1.50
1.23
0.93
0.62
0.34
0.08
-0.16
-0.37
-0.54
-0.64
-0.66
-0.64
-0.61
-0.62
-0.69
-0.82
-0.95
-0.99
-0.86
-0.59
-0.22
0.11
0.34
0.45
0.53
0.68
0.96
1.37
1.78
2.08
2.16
2.02
1.72
1.37
1.07
0.84
0.68
0.55
0.47
0.44
0.51
0.69
0.94
1.18
1.31
1.26
1.00
0.59
0.11
-0.31
-0.58
-0.67
-0.61
-0.50
-0.43
-0.46
-0.59
-0.79
-1.00
-1.18
-1.30
-1.37
-1.39
-1.37
-1.34
-1.26
-1.15
-0.97
-0.70
-0.36
0.02
0.37
0.57
0.56
0.33
-0.03
-0.36
-0.52
-0.46
-0.23
0.04
0.23
0.30
0.26
0.20
0.13
0.03
-0.11
-0.29
-0.46
-0.49
-0.31
0.06
0.50
0.85
0.97
0.84
0.50
0.06
-0.37
-0.73
-0.98
-1.12
-1.15
-1.05
-0.81
-0.47
-0.04
0.41
0.82
1.09
1.13
0.95
0.58
0.17
-0.14
-0.29
-0.29
-0.27
-0.32
-0.51
-0.79
-1.08
-1.30
-1.44
-1.53
-1.59
-1.60
-1.50
-1.26
-0.90
-0.52
-0.21
-0.05
-0.05
-0.15
-0.29
-0.41
-0.50
-0.57
-0.62
-0.64
-0.62
-0.56
-0.47
-0.35
-0.23
-0.14
-0.08
-0.08
-0.13
-0.22
-0.32
-0.41
-0.47
-0.48
-0.47
-0.42
-0.35
-0.24
-0.06
0.16
0.40
0.65
0.89
1.14
1.47
1.90
2.43
2.95
3.33
3.39
3.02
2.25
1.22
0.17
-0.71
-1.29
-1.55
-1.55
-1.37
-1.05
-0.60
-0.05
0.56
1.13
1.59
1.89
2.05
2.12
2.15
2.12
1.99
1.69
1.22
0.64
0.04
-0.47
-0.83
-1.05
-1.18
-1.27
-1.35
-1.41
-1.39
-1.26
-1.03
-0.77
-0.54
-0.40
-0.36
-0.38
-0.43
-0.47
-0.49
-0.52
-0.58
-0.65
-0.73
-0.79
-0.86
-0.96
-1.11
-1.28
-1.41
-1.44
-1.38
-1.25
-1.11
-1.00
-0.92
-0.85
-0.75
-0.62
-0.45
-0.26
-0.02
0.26
0.59
0.91
1.15
1.27
1.29
1.32
1.48
1.82
2.24
2.57
2.62
2.33
1.81
1.27
0.91
0.83
0.96
1.15
1.25
1.16
0.92
0.63
0.41
0.32
0.34
0.44
0.55
0.65
0.75
0.85
0.95
1.00
0.94
0.72
0.36
-0.07
-0.44
-0.69
-0.79
-0.78
-0.75
-0.75
-0.79
-0.85
-0.88
-0.88
-0.86
-0.85
-0.86
-0.86
-0.81
-0.66
-0.40
-0.11
0.15
0.29
0.29
0.19
0.06
-0.02
-0.03
0.05
0.15
0.26
0.36
0.42
0.40
0.23
-0.13
-0.63
-1.07
-1.23
-0.89
0.01
1.32
2.72
3.89
4.59
4.83
4.79
4.72
4.81
5.05
5.31
5.38
5.10
4.44
3.46
2.36
1.33
0.62
0.44
0.93
1.99
3.16
3.72
2.86
0.10
-4.44
-10.01
-15.51
-19.88
-22.47
-23.11
-21.94
-19.24
-15.29
-10.46
-5.28
-0.52
3.01
4.76
4.65
3.14
1.01
-0.97
-2.25
-2.60
-2.13
-1.09
0.17
1.33
2.14
2.45
2.29
1.78
1.14
0.61
0.37
0.48
0.85
1.32
1.69
1.88
1.88
1.81
1.85
2.10
2.58
3.14
3.61
3.83
3.74
3.43
3.03
2.67
2.41
2.25
2.12
2.01
1.92
1.86
1.84
1.82
1.72
1.47
1.04
0.49
-0.04
-0.38
-0.40
-0.08
0.45
1.02
1.43
1.57
1.45
1.17
0.86
0.68
0.69
0.88
1.18
1.46
1.64
1.68
1.62
1.48
1.30
1.07
0.76
0.35
-0.08
-0.40
-0.51
-0.39
-0.13
0.13
0.30
0.34
0.33
0.32
0.31
0.22
-0.03
-0.46
-0.99
-1.49
-1.84
-1.98
-1.94
-1.78
-1.53
-1.22
-0.83
-0.37
0.12
0.54
0.81
0.87
0.68
0.33
-0.07
-0.39
-0.53
-0.47
-0.26
-0.04
0.08
0.04
-0.14
-0.37
-0.56
-0.64
-0.67
-0.74
-0.95
-1.34
-1.86
-2.38
-2.76
-2.91
-2.80
-2.49
-2.05
-1.54
-1.05
-0.60
-0.23
-0.00
0.06
-0.04
-0.27
-0.58
-0.94
-1.33
-1.75
-2.15
-2.47
-2.64
-2.60
-2.31
-1.80
-1.13
-0.40
0.28
0.78
1.01
0.92
0.53
-0.03
-0.60
-1.06
-1.36
-1.57
-1.80
-2.14
-2.53
-2.82
-2.84
-2.44
-1.64
-0.60
0.47
1.38
2.04
2.46
2.67
2.72
2.65
2.52
2.38
2.35
2.52
2.93
3.53
4.20
4.79
5.17
5.26
5.07
4.67
4.16
3.63
3.16
2.75
2.37
1.96
1.53
1.13
0.86
0.78
0.89
1.08
1.20
1.14
0.89
0.54
0.21
0.00
-0.06
-0.01
0.08
0.15
0.20
0.21
0.18
0.07
-0.13
-0.41
-0.71
-0.95
-1.06
-0.97
-0.69
-0.28
0.19
0.60
0.89
1.02
1.02
0.94
0.83
0.69
0.48
0.19
-0.13
-0.39
-0.46
-0.31
-0.01
0.25
0.33
0.16
-0.18
-0.54
-0.75
-0.74
-0.51
-0.14
0.31
0.77
1.21
1.51
1.54
1.18
0.40
-0.66
-1.74
-2.52
-2.79
-2.52
-1.89
-1.15
-0.57
-0.29
-0.29
-0.45
-0.61
-0.67
-0.62
-0.47
-0.27
-0.04
0.23
0.56
0.93
1.29
1.54
1.62
1.53
1.38
1.29
1.35
1.57
1.84
2.03
2.03
1.83
1.51
1.15
0.79
0.40
-0.10
-0.73
-1.44
-2.10
-2.59
-2.83
-2.84
-2.69
-2.45
-2.16
-1.82
-1.43
-1.01
-0.59
-0.21
0.11
0.37
0.61
0.86
1.16
1.51
1.93
2.38
2.76
2.96
2.89
2.54
1.99
1.38
0.82
0.33
-0.13
-0.59
-1.04
-1.40
-1.53
-1.38
-1.00
-0.54
-0.15
0.06
0.12
0.18
0.43
1.01
1.95
3.10
4.19
4.97
5.29
5.18
4.87
4.60
4.56
4.79
5.20
5.65
6.01
6.11
5.80
4.91
3.35
1.18
-1.32
-3.77
-5.77
-7.07
-7.66
-7.71
-7.46
-7.08
-6.66
-6.18
-5.61
-4.99
-4.39
-3.92
-3.62
-3.49
-3.43
-3.33
-3.14
-2.86
-2.59
-2.42
-2.39
-2.46
-2.53
-2.54
-2.46
-2.32
-2.19
-2.08
-1.98
-1.86
-1.69
-1.50
-1.32
-1.18
-1.05
-0.89
-0.67
-0.35
0.02
0.37
0.63
0.74
0.69
0.50
0.23
-0.05
-0.27
-0.40
-0.46
-0.50
-0.58
-0.71
-0.88
-0.98
-0.90
-0.56
0.03
0.77
1.47
1.95
2.08
1.89
1.52
1.18
1.05
1.18
1.50
1.83
1.96
1.80
1.34
0.68
-0.02
-0.66
-1.16
-1.51
-1.75
-1.89
-1.94
-1.91
-1.82
-1.70
-1.59
-1.51
-1.45
-1.34
-1.13
-0.76
-0.23
0.40
1.02
1.54
1.90
2.11
2.22
2.31
2.43
2.58
2.72
2.79
2.71
2.43
1.99
1.46
0.98
0.63
0.48
0.49
0.55
0.54
0.35
-0.05
-0.62
-1.22
-1.69
-1.91
-1.82
-1.45
-0.93
-0.42
-0.05
0.09
0.04
-0.13
-0.27
-0.29
-0.15
0.10
0.37
0.51
0.44
0.18
-0.17
-0.49
-0.65
-0.60
-0.37
-0.07
0.20
0.35
0.32
0.08
-0.32
-0.77
-1.18
-1.43
-1.48
-1.37
-1.19
-1.00
-0.84
-0.67
-0.47
-0.28
-0.18
-0.29
-0.64
-1.13
-1.55
-1.69
-1.44
-0.83
-0.07
0.60
1.02
1.17
1.19
1.24
1.45
1.80
2.21
2.53
2.67
2.62
2.44
2.21
2.01
1.86
1.76
1.67
1.58
1.50
1.45
1.45
1.48
1.51
1.48
1.38
1.25
1.16
1.17
1.34
1.63
1.97
2.29
2.56
2.84
3.21
3.75
4.43
5.15
5.79
6.26
6.62
7.03
7.71
8.77
10.13
11.56
12.72
13.36
13.42
13.09
12.77
12.88
13.67
15.18
17.16
19.23
21.04
22.45
23.53
24.52
25.67
27.05
28.52
29.78
30.44
29.97
27.79
23.30
16.13
6.51
-4.59
-15.59
-24.75
-30.86
-33.56
-33.42
-31.48
-28.72
-25.70
-22.57
-19.34
-16.17
-13.40
-11.38
-10.19
-9.46
-8.51
-6.71
-3.74
0.16
4.34
7.97
10.41
11.52
11.70
11.76
12.63
14.97
18.91
23.90
28.86
32.50
33.73
32.04
27.75
21.88
15.91
11.26
8.82
8.62
9.71
10.41
8.87
3.82
-4.88
-16.07
-27.72
-37.63
-44.30
-47.28
-47.19
-45.13
-42.15
-38.88
-35.57
-32.28
-29.16
-26.48
-24.51
-23.28
-22.51
-21.75
-20.51
-18.56
-16.01
-13.23
-10.72
-8.88
-7.81
-7.33
-7.02
-6.47
-5.45
-4.00
-2.37
-0.96
-0.05
0.26
0.10
-0.24
-0.49
-0.46
-0.20
0.11
0.22
-0.05
-0.68
-1.49
-2.20
-2.57
-2.53
-2.19
-1.75
-1.41
-1.25
-1.27
-1.38
-1.55
-1.77
-2.12
-2.64
-3.27
-3.91
-4.39
-4.58
-4.47
-4.14
-3.74
-3.37
-3.10
-2.87
-2.63
-2.32
-1.94
-1.54
-1.17
-0.90
-0.74
-0.66
-0.63
-0.61
-0.52
-0.25
0.33
1.32
2.69
4.29
5.86
7.08
7.79
7.97
7.77
7.38
6.95
6.53
6.03
5.38
4.55
3.66
2.82
2.14
1.59
1.03
0.27
-0.82
-2.22
-3.78
-5.28
-6.49
-7.27
-7.59
-7.51
-7.17
-6.74
-6.35
-6.13
-6.10
-6.24
-6.48
-6.75
-7.00
-7.25
-7.55
-7.95
-8.46
-9.04
-9.57
-9.92
-10.02
-9.80
-9.28
-8.51
-7.60
-6.72
-6.07
-5.81
-5.96
-6.27
-6.28
-5.46
-3.47
-0.34
3.51
7.43
10.78
13.18
14.52
14.89
14.44
13.35
11.81
10.13
8.66
7.73
7.48
7.75
8.19
8.40
8.13
7.40
6.40
5.39
4.57
3.98
3.57
3.24
2.96
2.70
2.50
2.37
2.31
2.27
2.23
2.15
2.02
1.81
1.50
1.11
0.65
0.18
-0.22
-0.50
-0.69
-0.84
-1.02
-1.29
-1.65
-2.05
-2.40
-2.62
-2.68
-2.62
-2.60
-2.79
-3.34
-4.27
-5.39
-6.44
-7.16
-7.48
-7.53
-7.67
-8.29
-9.62
-11.60
-13.84
-15.88
-17.31
-18.01
-18.20
-18.26
-18.63
-19.60
-21.28
-23.61
-26.26
-28.59
-29.66
-28.37
-23.88
-16.08
-5.85
5.11
14.83
21.83
25.59
26.59
25.80
24.12
21.97
19.37
16.17
12.48
8.70
5.43
3.11
1.79
1.17
0.66
-0.34
-2.19
-4.83
-7.66
-9.72
-10.01
-7.96
-3.79
1.43
6.20
9.15
9.64
7.91
4.81
1.34
-1.71
-3.83
-4.68
-3.97
-1.53
2.49
7.43
12.26
15.92
17.74
17.67
16.16
13.91
11.47
9.18
7.16
5.49
4.25
3.52
3.31
3.47
3.78
4.02
4.02
3.73
3.17
2.42
1.56
0.67
-0.17
-0.85
-1.21
-1.07
-0.29
1.14
3.04
5.06
6.78
7.86
8.19
7.87
7.15
6.29
5.46
4.69
4.01
3.43
2.99
2.77
2.78
2.91
3.03
3.05
2.96
2.85
2.81
2.91
3.10
3.30
3.46
3.60
3.76
3.97
4.16
4.20
4.00
3.59
3.16
2.92
3.00
3.36
3.78
4.03
3.99
3.69
3.32
3.05
2.96
3.02
3.15
3.23
3.22
3.14
3.00
2.80
2.54
2.20
1.85
1.63
1.69
2.10
2.71
3.14
2.95
1.82
-0.21
-2.74
-5.12
-6.78
-7.46
-7.29
-6.63
-5.85
-5.14
-4.53
-3.96
-3.42
-2.96
-2.68
-2.61
-2.68
-2.78
-2.83
-2.80
-2.72
-2.63
-2.52
-2.36
-2.08
-1.69
-1.23
-0.79
-0.48
-0.31
-0.27
-0.24
-0.10
0.28
0.89
1.61
2.28
2.71
2.82
2.64
2.31
1.99
1.84
1.90
2.11
2.38
2.61
2.79
2.94
3.16
3.48
3.92
4.42
4.96
5.57
6.22
6.78
6.95
6.30
4.50
1.56
-2.09
-5.75
-8.67
-10.41
-10.94
-10.56
-9.65
-8.44
-7.01
-5.32
-3.46
-1.66
-0.33
0.25
0.01
-0.78
-1.68
-2.25
-2.25
-1.76
-1.08
-0.57
-0.45
-0.71
-1.16
-1.54
-1.71
-1.65
-1.49
-1.34
-1.29
-1.30
-1.33
-1.30
-1.23
-1.10
-0.94
-0.76
-0.58
-0.43
-0.35
-0.39
-0.55
-0.79
-1.09
-1.40
-1.71
-1.99
-2.21
-2.29
-2.17
-1.85
-1.43
-1.05
-0.84
-0.83
-0.94
-1.07
-1.11
-1.04
-0.88
-0.69
-0.49
-0.29
-0.09
0.09
0.16
0.09
-0.12
-0.35
-0.43
-0.20
0.36
1.19
2.09
2.87
3.40
3.64
3.60
3.34
2.94
2.45
1.90
1.31
0.72
0.17
-0.30
-0.67
-0.96
-1.15
-1.28
-1.38
-1.46
-1.54
-1.57
-1.51
-1.31
-0.93
-0.41
0.15
0.63
0.95
1.06
1.00
0.86
0.73
0.69
0.73
0.78
0.74
0.55
0.19
-0.27
-0.70
-0.98
-1.01
-0.78
-0.36
0.14
0.59
0.88
0.98
0.89
0.70
0.50
0.39
0.41
0.57
0.82
1.09
1.31
1.47
1.60
1.71
1.79
1.81
1.73
1.53
1.29
1.13
1.15
1.39
1.77
2.12
2.25
2.08
1.63
1.04
0.48
0.07
-0.18
-0.29
-0.34
-0.37
-0.39
-0.37
-0.30
-0.21
-0.12
-0.04
0.01
0.05
0.11
0.17
0.21
0.20
0.12
-0.01
-0.17
-0.31
-0.39
-0.38
-0.27
-0.06
0.20
0.50
0.82
1.14
1.45
1.76
2.02
2.24
2.41
2.58
2.80
3.15
3.66
4.31
5.04
5.73
6.27
6.61
6.76
6.81
6.89
7.12
7.58
8.27
9.16
10.11
10.95
11.42
11.26
10.27
8.42
5.93
3.19
0.61
-1.47
-2.97
-4.00
-4.77
-5.43
-6.00
-6.39
-6.53
-6.40
-6.10
-5.75
-5.45
-5.19
-4.88
-4.39
-3.65
-2.71
-1.70
-0.77
-0.01
0.65
1.36
2.32
3.58
5.08
6.58
7.81
8.68
9.27
9.77
10.38
11.11
11.78
12.07
11.71
10.50
8.40
5.38
1.49
-3.19
-8.36
-13.58
-18.24
-21.80
-23.94
-24.71
-24.41
-23.54
-22.54
-21.73
-21.26
-21.15
-21.36
-21.80
-22.38
-22.98
-23.37
-23.22
-22.11
-19.69
-15.89
-11.06
-5.92
-1.34
1.99
3.84
4.43
4.24
3.77
3.35
3.06
2.91
2.91
3.11
3.58
4.25
4.92
5.29
5.10
4.25
2.83
1.09
-0.65
-2.16
-3.29
-4.06
-4.59
-5.05
-5.64
-6.47
-7.58
-8.92
-10.36
-11.69
-12.69
-13.21
-13.16
-12.58
-11.56
-10.23
-8.62
-6.72
-4.39
-1.49
2.01
6.02
10.22
14.14
17.29
19.29
19.97
19.45
18.09
16.35
14.66
13.31
12.39
11.81
11.39
10.96
10.40
9.66
8.79
7.81
6.73
5.56
4.25
2.80
1.19
-0.48
-2.07
-3.36
-4.17
-4.37
-4.05
-3.43
-2.86
-2.66
-3.03
-3.93
-5.18
-6.48
-7.59
-8.45
-9.13
-9.81
-10.69
-11.89
-13.43
-15.19
-16.93
-18.20
-18.45
-17.09
-13.74
-8.43
-1.72
5.35
11.56
15.86
17.70
17.10
14.61
11.02
7.06
3.32
0.17
-2.19
-3.67
-4.32
-4.35
-4.06
-3.81
-3.94
-4.66
-6.01
-7.90
-10.11
-12.24
-13.75
-14.02
-12.50
-8.90
-3.42
3.28
10.21
16.38
21.00
23.75
24.68
24.15
22.68
20.83
19.13
17.95
17.47
17.61
18.12
18.72
19.27
19.76
20.19
20.25
19.32
16.71
11.95
5.04
-3.60
-13.48
-24.34
-36.02
-47.93
-58.46
-64.98
-64.76
-56.31
-40.46
-20.47
-0.81
14.61
23.87
27.40
27.14
25.26
23.12
21.06
18.84
16.27
13.59
11.35
10.05
9.77
10.14
10.59
10.55
9.75
8.28
6.51
4.91
3.87
3.60
4.01
4.79
5.51
5.78
5.40
4.42
3.12
1.86
0.99
0.65
0.86
1.44
2.23
3.07
3.86
4.50
4.95
5.19
5.27
5.33
5.56
6.11
7.01
8.10
9.10
9.76
9.98
9.95
10.12
10.91
12.55
14.84
17.18
18.82
19.24
18.47
17.20
16.53
17.42
20.25
24.49
28.95
32.24
33.47
32.69
30.82
29.38
29.78
32.88
38.72
46.50
54.55
60.40
60.97
53.09
34.55
5.26
-32.13
-72.63
-110.36
-140.68
-161.79
-174.80
-182.34
-186.22
-185.93
-178.72
-161.50
-133.26
-96.53
-56.95
-21.05
6.33
23.75
32.99
37.40
39.95
41.96
43.20
42.90
40.83
37.79
35.22
34.37
35.56
38.00
40.14
40.42
38.05
33.37
27.64
22.51
19.27
18.32
19.11
20.48
21.26
20.74
18.90
16.30
13.73
11.79
10.73
10.35
10.19
9.75
8.72
7.07
4.99
2.83
0.91
-0.59
-1.65
-2.41
-3.06
-3.74
-4.49
-5.21
-5.72
-5.81
-5.39
-4.50
-3.28
-1.93
-0.58
0.74
2.06
3.42
4.76
5.92
6.73
7.04
6.86
6.32
5.60
4.88
4.27
3.80
3.46
3.20
2.95
2.67
2.33
1.95
1.58
1.28
1.08
0.96
0.82
0.59
0.22
-0.26
-0.74
-1.11
-1.30
-1.33
-1.28
-1.24
-1.26
-1.34
-1.42
-1.43
-1.34
-1.17
-0.97
-0.76
-0.56
-0.39
-0.26
-0.20
-0.23
-0.37
-0.59
-0.80
-0.94
-0.92
-0.74
-0.44
-0.12
0.10
0.18
0.12
-0.01
-0.08
-0.02
0.17
0.39
0.51
0.44
0.18
-0.18
-0.52
-0.75
-0.86
-0.88
-0.85
-0.80
-0.72
-0.61
-0.47
-0.32
-0.23
-0.23
-0.35
-0.54
-0.77
-0.96
-1.06
-1.07
-1.04
-0.95
-0.75
-0.35
0.35
1.36
2.56
3.71
4.59
5.06
5.17
5.07
4.98
4.99
5.10
5.16
5.03
4.70
4.31
4.14
4.48
5.49
7.04
8.79
10.29
11.21
11.48
11.39
11.44
12.14
13.70
15.97
18.40
20.35
21.31
21.24
20.61
20.29
21.16
23.72
27.77
32.42
36.41
38.66
38.77
37.30
35.56
35.19
37.44
42.67
50.17
58.23
64.30
65.30
58.08
40.23
11.10
-27.42
-70.91
-113.45
-149.51
-175.74
-191.91
-200.12
-203.00
-201.71
-195.20
-181.08
-157.48
-124.87
-86.49
-47.35
-12.27
15.73
35.96
49.55
58.14
62.91
64.22
62.12
56.96
49.83
42.45
36.55
33.19
32.36
33.10
33.87
33.37
31.06
27.34
23.22
19.85
17.91
17.38
17.65
17.81
17.17
15.48
12.95
10.15
7.64
5.82
4.75
4.22
3.90
3.53
3.09
2.74
2.75
3.30
4.36
5.71
6.99
7.90
8.25
8.09
7.55
6.84
6.14
5.54
5.07
4.75
4.52
4.30
3.99
3.52
2.87
2.12
1.40
0.88
0.65
0.70
0.90
1.06
1.00
0.63
-0.01
-0.75
-1.37
-1.68
-1.64
-1.32
-0.87
-0.41
0.01
0.41
0.85
1.33
1.75
2.00
2.02
1.85
1.60
1.40
1.23
1.03
0.66
0.08
-0.62
-1.24
-1.53
-1.38
-0.79
0.12
1.15
2.09
2.80
3.18
3.21
2.94
2.48
1.94
1.46
1.12
0.91
0.83
0.78
0.70
0.53
0.23
-0.19
-0.64
-1.00
-1.15
-1.06
-0.79
-0.51
-0.38
-0.47
-0.71
-0.95
-1.04
-0.90
-0.63
-0.38
-0.27
-0.34
-0.53
-0.75
-0.95
-1.14
-1.34
-1.51
-1.60
-1.52
-1.23
-0.76
-0.24
0.25
0.64
0.95
1.22
1.46
1.65
1.75
1.71
1.51
1.19
0.81
0.45
0.17
-0.01
-0.09
-0.13
-0.15
-0.20
-0.26
-0.29
-0.25
-0.13
0.00
0.10
0.07
-0.10
-0.39
-0.73
-1.03
-1.22
-1.26
-1.14
-0.89
-0.58
-0.27
-0.04
0.10
0.14
0.13
0.08
-0.00
-0.14
-0.35
-0.61
-0.85
-0.99
-0.95
-0.74
-0.47
-0.26
-0.26
-0.49
-0.87
-1.25
-1.48
-1.50
-1.36
-1.20
-1.14
-1.20
-1.30
-1.29
-1.09
-0.73
-0.35
-0.14
-0.18
-0.45
-0.75
-0.92
-0.82
-0.50
-0.11
0.19
0.27
0.17
0.00
-0.09
-0.02
0.20
0.49
0.75
0.93
1.04
1.14
1.27
1.42
1.58
1.72
1.82
1.85
1.79
1.56
1.13
0.51
-0.20
-0.82
-1.18
-1.16
-0.80
-0.20
0.46
1.03
1.40
1.53
1.41
1.10
0.68
0.27
-0.01
-0.13
-0.10
-0.01
0.05
0.07
0.07
0.14
0.29
0.52
0.73
0.87
0.90
0.87
0.86
0.93
1.07
1.22
1.29
1.23
1.02
0.72
0.36
0.02
-0.27
-0.48
-0.57
-0.56
-0.49
-0.42
-0.44
-0.58
-0.84
-1.15
-1.41
-1.54
-1.49
-1.30
-1.05
-0.82
-0.68
-0.66
-0.74
-0.82
-0.77
-0.48
0.07
0.78
1.46
1.88
1.89
1.51
0.89
0.25
-0.20
-0.38
-0.32
-0.18
-0.11
-0.20
-0.46
-0.80
-1.09
-1.26
-1.25
-1.07
-0.73
-0.26
0.33
1.00
1.67
2.23
2.57
2.60
2.33
1.83
1.26
0.77
0.48
0.45
0.66
1.04
1.49
1.90
2.15
2.13
1.81
1.23
0.48
-0.30
-0.98
-1.52
-1.91
-2.21
-2.42
-2.54
-2.54
-2.39
-2.16
-1.97
-1.91
-2.03
-2.26
-2.47
-2.58
-2.58
-2.56
-2.63
-2.81
-3.05
-3.20
-3.11
-2.75
-2.15
-1.44
-0.76
-0.17
0.34
0.80
1.22
1.57
1.80
1.85
1.75
1.54
1.33
1.18
1.12
1.14
1.18
1.19
1.17
1.12
1.10
1.12
1.21
1.37
1.55
1.67
1.69
1.59
1.41
1.23
1.16
1.26
1.50
1.80
1.98
1.91
1.49
0.77
-0.09
-0.87
-1.36
-1.44
-1.14
-0.62
-0.12
0.16
0.10
-0.28
-0.82
-1.35
-1.74
-1.91
-1.90
-1.80
-1.68
-1.60
-1.55
-1.51
-1.43
-1.29
-1.11
-0.92
-0.78
-0.70
-0.69
-0.70
-0.64
-0.45
-0.13
0.26
0.58
0.72
0.63
0.39
0.16
0.07
0.20
0.51
0.89
1.26
1.57
1.82
2.02
2.10
2.01
1.69
1.16
0.52
-0.04
-0.37
-0.42
-0.24
0.02
0.19
0.18
-0.00
-0.25
-0.45
-0.54
-0.52
-0.46
-0.41
-0.36
-0.25
-0.02
0.32
0.66
0.83
0.73
0.38
-0.07
-0.40
-0.49
-0.35
-0.11
0.02
-0.04
-0.30
-0.61
-0.83
-0.83
-0.64
-0.37
-0.15
-0.07
-0.13
-0.27
-0.40
-0.49
-0.56
-0.65
-0.83
-1.06
-1.25
-1.30
-1.16
-0.88
-0.61
-0.48
-0.57
-0.83
-1.15
-1.38
-1.46
-1.41
-1.36
-1.42
-1.66
-2.05
-2.45
-2.71
-2.70
-2.39
-1.81
-1.07
-0.26
0.55
1.33
2.08
2.78
3.37
3.80
3.99
3.89
3.48
2.81
1.96
1.08
0.31
-0.23
-0.50
-0.54
-0.43
-0.26
-0.07
0.16
0.40
0.63
0.79
0.83
0.76
0.66
0.63
0.72
0.89
1.02
1.00
0.77
0.38
-0.09
-0.52
-0.86
-1.08
-1.19
-1.18
-1.04
-0.81
-0.58
-0.41
-0.37
-0.44
-0.57
-0.70
-0.82
-0.89
-0.92
-0.85
-0.66
-0.36
-0.01
0.25
0.32
0.18
-0.08
-0.29
-0.33
-0.12
0.27
0.71
1.07
1.24
1.18
0.90
0.45
-0.05
-0.47
-0.67
-0.56
-0.19
0.28
0.67
0.83
0.75
0.53
0.31
0.20
0.20
0.23
0.19
0.05
-0.12
-0.18
-0.02
0.41
1.08
1.86
2.66
3.41
4.06
4.62
5.06
5.35
5.42
5.22
4.73
3.98
3.09
2.20
1.50
1.10
1.06
1.33
1.78
2.24
2.57
2.69
2.62
2.41
2.12
1.79
1.42
0.97
0.35
-0.48
-1.54
-2.80
-4.15
-5.48
-6.63
-7.44
-7.74
-7.45
-6.53
-5.06
-3.21
-1.25
0.51
1.78
2.34
2.13
1.24
-0.06
-1.41
-2.45
-2.95
-2.92
-2.53
-2.07
-1.76
-1.72
-1.88
-2.12
-2.31
-2.42
-2.51
-2.61
-2.74
-2.77
-2.56
-1.99
-1.09
-0.08
0.74
1.09
0.91
0.38
-0.14
-0.29
0.10
0.90
1.81
2.43
2.55
2.13
1.37
0.52
-0.22
-0.75
-1.06
-1.24
-1.35
-1.48
-1.70
-2.01
-2.37
-2.69
-2.85
-2.74
-2.37
-1.76
-1.01
-0.20
0.61
1.37
2.04
2.60
3.03
3.34
3.53
3.64
3.67
3.61
3.45
3.19
2.86
2.51
2.15
1.80
1.46
1.10
0.74
0.41
0.20
0.17
0.34
0.71
1.17
1.54
1.68
1.54
1.14
0.62
0.12
-0.28
-0.50
-0.59
-0.55
-0.44
-0.28
-0.12
-0.05
-0.15
-0.45
-0.92
-1.44
-1.84
-2.02
-1.94
-1.67
-1.32
-1.04
-0.92
-0.97
-1.13
-1.30
-1.36
-1.28
-1.06
-0.73
-0.39
-0.11
0.08
0.16
0.15
0.11
0.05
-0.03
-0.14
-0.30
-0.48
-0.63
-0.68
-0.58
-0.36
-0.13
0.03
0.07
0.00
-0.08
-0.11
-0.08
-0.04
-0.04
-0.09
-0.15
-0.14
0.00
0.29
0.67
1.03
1.30
1.40
1.30
1.01
0.59
0.13
-0.25
-0.46
-0.47
-0.34
-0.14
0.01
0.04
-0.10
-0.40
-0.84
-1.36
-1.88
-2.33
-2.64
-2.79
-2.83
-2.81
-2.82
-2.85
-2.89
-2.91
-2.90
-2.88
-2.92
-3.05
-3.24
-3.44
-3.58
-3.66
-3.70
-3.79
-4.00
-4.36
-4.80
-5.16
-5.27
-4.99
-4.22
-2.99
-1.38
0.46
2.37
4.19
5.78
7.05
7.93
8.41
8.50
8.23
7.65
6.87
6.04
5.31
4.80
4.56
4.53
4.60
4.64
4.57
4.40
4.15
3.86
3.52
3.12
2.67
2.24
1.91
1.74
1.69
1.64
1.45
1.02
0.35
-0.42
-1.11
-1.55
-1.69
-1.55
-1.27
-0.98
-0.79
-0.72
-0.71
-0.68
-0.59
-0.45
-0.33
-0.32
-0.41
-0.56
-0.64
-0.56
-0.31
0.02
0.28
0.38
0.29
0.11
-0.06
-0.14
-0.12
-0.02
0.16
0.42
0.80
1.31
1.86
2.32
2.58
2.56
2.32
2.01
1.78
1.74
1.91
2.19
2.48
2.67
2.69
2.54
2.25
1.89
1.51
1.15
0.88
0.75
0.81
1.07
1.47
1.90
2.17
2.11
1.62
0.76
-0.29
-1.24
-1.88
-2.15
-2.22
-2.33
-2.70
-3.33
-4.01
-4.44
-4.32
-3.61
-2.46
-1.15
0.05
1.04
1.86
2.65
3.49
4.39
5.22
5.87
6.25
6.39
6.38
6.37
6.46
6.71
7.18
7.87
8.76
9.69
10.37
10.43
9.56
7.69
5.06
2.20
-0.35
-2.22
-3.38
-4.14
-4.87
-5.85
-7.05
-8.24
-9.11
-9.47
-9.37
-9.01
-8.65
-8.43
-8.39
-8.39
-8.27
-7.96
-7.47
-6.92
-6.40
-5.95
-5.51
-4.99
-4.32
-3.54
-2.79
-2.21
-1.91
-1.89
-2.02
-2.14
-2.14
-1.97
-1.70
-1.40
-1.15
-0.98
-0.90
-0.92
-1.07
-1.36
-1.79
-2.31
-2.84
-3.26
-3.50
-3.52
-3.33
-2.99
-2.57
-2.15
-1.75
-1.38
-0.99
-0.54
-0.02
0.55
1.09
1.55
1.91
2.13
2.25
2.25
2.12
1.87
1.53
1.18
0.91
0.83
0.95
1.23
1.58
1.87
2.06
2.14
2.17
2.23
2.38
2.64
2.99
3.37
3.75
4.16
4.63
5.24
5.99
6.79
7.49
7.92
7.99
7.81
7.66
7.91
8.86
10.61
12.97
15.52
17.75
19.33
20.27
20.96
22.04
24.10
27.37
31.57
36.03
39.97
42.94
45.08
47.15
50.18
54.98
61.73
69.80
78.02
85.18
90.69
94.75
98.33
102.70
108.86
117.31
127.99
140.41
153.64
166.04
175.23
178.44
173.46
159.73
138.84
114.01
88.54
64.16
40.06
13.58
-17.88
-54.77
-94.45
-131.93
-162.01
-181.49
-190.31
-190.96
-186.89
-180.76
-173.62
-165.26
-155.22
-143.70
-131.91
-121.52
-113.74
-108.73
-105.53
-102.61
-98.60
-92.87
-85.59
-77.50
-69.37
-61.62
-54.17
-46.66
-38.73
-30.42
-22.25
-15.06
-9.69
-6.59
-5.71
-6.50
-8.22
-10.21
-12.02
-13.55
-14.89
-16.21
-17.64
-19.21
-20.84
-22.36
-23.62
-24.50
-24.95
-25.00
-24.71
-24.00
-22.61
-20.05
-15.75
-9.31
-0.82
8.99
18.86
27.37
33.34
36.21
36.08
33.62
29.68
25.06
20.34
15.91
12.00
8.80
6.40
4.80
3.83
3.19
2.56
1.68
0.45
-1.05
-2.66
-4.21
-5.58
-6.80
-7.96
-9.23
-10.81
-12.96
-15.89
-19.78
-24.61
-30.19
-36.15
-42.06
-47.58
-52.54
-56.97
-60.99
-64.76
-68.45
-72.12
-75.77
-79.28
-82.45
-85.08
-87.14
-89.01
-91.47
-95.59
-102.34
-112.34
-125.62
-141.67
-159.56
-177.96
-194.91
-207.87
-213.92
-210.42
-195.81
-170.13
-134.85
-92.07
-43.79
8.38
62.58
115.92
164.09
202.17
226.30
235.39
231.77
220.33
206.51
194.21
184.81
177.41
170.15
161.69
151.95
142.04
133.53
127.52
124.09
122.26
120.36
116.70
110.37
101.63
91.80
82.86
76.76
74.65
76.56
81.17
85.82
86.72
79.60
60.77
28.55
-15.53
-66.38
-116.12
-156.17
-179.84
-184.35
-171.54
-146.81
-116.87
-87.24
-60.90
-38.16
-17.99
0.52
17.12
30.64
39.94
44.96
47.02
48.16
49.80
51.64
51.70
47.50
37.58
22.62
5.43
-10.23
-21.31
-26.64
-27.08
-24.63
-21.17
-17.58
-13.65
-8.68
-2.34
4.81
11.48
16.28
18.38
17.87
15.58
12.66
10.04
8.19
7.11
6.51
6.11
5.71
5.28
4.82
4.36
3.91
3.47
3.06
2.72
2.48
2.37
2.38
2.50
2.71
2.98
3.24
3.44
3.52
3.49
3.37
3.23
3.08
2.89
2.59
2.15
1.61
1.10
0.82
0.89
1.33
2.06
2.91
3.74
4.42
4.94
5.29
5.51
5.65
5.76
5.87
6.01
6.13
6.21
6.23
6.21
6.21
6.28
6.43
6.62
6.76
6.72
6.44
5.94
5.34
4.84
4.64
4.90
5.69
6.87
8.19
9.31
9.92
9.84
9.11
8.01
6.92
6.20
5.99
6.18
6.42
6.28
5.48
4.06
2.35
0.85
-0.00
-0.04
0.62
1.70
2.95
4.24
5.63
7.22
9.05
11.08
13.21
15.30
17.22
18.72
19.50
19.22
17.75
15.25
12.23
9.34
7.13
5.80
5.24
5.19
5.50
6.24
7.50
9.16
10.72
11.43
10.65
8.26
4.78
1.12
-1.96
-4.27
-6.26
-8.69
-12.11
-16.45
-21.04
-25.00
-27.69
-29.02
-29.40
-29.45
-29.64
-30.08
-30.52
-30.58
-29.91
-28.39
-26.29
-24.14
-22.62
-22.30
-23.37
-25.50
-27.93
-29.80
-30.57
-30.41
-30.23
-31.28
-34.64
-40.57
-48.37
-56.55
-63.44
-67.88
-69.68
-69.63
-69.11
-69.63
-72.40
-78.16
-86.88
-97.41
-107.03
-111.54
-106.23
-87.72
-55.90
-14.75
28.55
66.11
92.26
105.37
107.74
103.76
97.56
91.41
85.64
79.70
73.37
67.32
62.74
60.47
60.33
61.13
61.20
59.26
54.86
48.53
41.32
34.32
28.16
22.92
18.31
13.96
9.72
5.73
2.35
-0.07
-1.39
-1.78
-1.66
-1.55
-1.86
-2.80
-4.23
-5.81
-7.09
-7.74
-7.64
-6.90
-5.79
-4.62
-3.66
-3.08
-2.92
-3.12
-3.52
-3.94
-4.20
-4.24
-4.13
-4.06
-4.22
-4.73
-5.51
-6.34
-6.98
-7.22
-7.02
-6.47
-5.81
-5.24
-4.95
-4.98
-5.29
-5.76
-6.22
-6.53
-6.56
-6.23
-5.49
-4.35
-2.88
-1.23
0.41
1.87
3.10
4.13
5.07
5.99
6.86
7.53
7.87
7.79
7.32
6.57
5.73
4.90
4.13
3.47
2.91
2.48
2.20
2.05
1.93
1.75
1.37
0.75
-0.08
-1.01
-1.92
-2.73
-3.42
-4.02
-4.58
-5.11
-5.57
-5.83
-5.73
-5.10
-3.83
-1.91
0.53
3.17
5.57
7.31
8.10
7.94
7.09
5.97
4.98
4.37
4.13
4.11
4.13
4.12
4.11
4.20
4.47
4.87
5.25
5.44
5.36
5.05
4.66
4.37
4.28
4.39
4.64
4.92
5.17
5.36
5.50
5.61
5.74
5.91
6.14
6.44
6.77
7.12
7.48
7.92
8.56
9.54
10.95
12.76
14.81
16.84
18.59
19.94
20.94
21.87
23.15
25.12
27.97
31.61
35.67
39.70
43.37
46.68
50.03
54.02
59.25
65.91
73.65
81.71
89.26
95.86
101.79
107.94
115.38
124.91
136.81
150.88
166.70
183.54
200.14
214.23
222.70
222.19
210.32
186.63
152.85
111.99
66.95
19.45
-29.88
-80.40
-130.20
-175.62
-212.09
-235.92
-245.92
-243.87
-233.64
-219.42
-204.27
-189.45
-174.86
-160.12
-145.37
-131.46
-119.53
-110.34
-103.85
-99.31
-95.71
-92.13
-87.96
-82.90
-76.73
-69.37
-60.92
-51.91
-43.28
-36.17
-31.38
-29.03
-28.33
-28.08
-27.26
-25.62
-23.70
-22.36
-22.05
-22.44
-22.69
-22.04
-20.39
-18.24
-16.12
-13.92
-10.73
-5.50
1.95
10.32
17.24
20.43
19.12
14.49
9.03
5.19
4.11
5.33
7.41
9.01
9.62
9.60
9.67
10.29
11.36
12.42
13.02
13.00
12.58
12.16
12.03
12.21
12.47
12.40
11.68
10.24
8.25
6.12
4.32
3.17
2.70
2.70
2.78
2.60
1.96
0.92
-0.26
-1.29
-1.91
-2.03
-1.72
-1.17
-0.55
-0.06
0.20
0.15
-0.19
-0.75
-1.37
-1.88
-2.16
-2.15
-1.87
-1.40
-0.83
-0.24
0.30
0.72
0.92
0.88
0.64
0.33
0.12
0.11
0.29
0.50
0.53
0.24
-0.38
-1.18
-1.90
-2.30
-2.27
-1.87
-1.33
-0.90
-0.78
-1.02
-1.56
-2.26
-3.01
-3.77
-4.57
-5.45
-6.41
-7.33
-8.07
-8.56
-8.83
-9.10
-9.63
-10.61
-12.03
-13.66
-15.18
-16.36
-17.20
-17.81
-18.19
-18.02
-16.63
-13.36
-8.08
-1.52
4.73
8.89
9.71
7.14
2.33
-2.94
-7.04
-9.22
-9.59
-8.78
-7.38
-5.48
-2.85
0.57
4.25
7.27
8.98
9.87
11.89
17.68
29.07
45.83
65.40
83.89
97.96
106.17
109.25
108.76
105.60
99.02
87.23
69.02
45.17
18.83
-5.68
-24.76
-36.93
-43.13
-45.65
-46.80
-47.80
-48.59
-48.55
-47.26
-45.03
-42.81
-41.63
-42.01
-43.64
-45.50
-46.34
-45.25
-42.15
-37.81
-33.52
-30.48
-29.23
-29.44
-30.09
-30.13
-28.99
-26.97
-25.06
-24.48
-26.12
-30.16
-35.99
-42.25
-47.09
-48.34
-44.10
-33.40
-17.04
2.10
19.39
29.77
29.56
17.93
-2.76
-27.82
-52.09
-71.82
-85.70
-94.76
-101.32
-107.67
-115.12
-123.83
-133.24
-142.71
-152.08
-161.72
-172.17
-183.30
-193.82
-201.08
-201.75
-192.83
-172.84
-142.13
-102.55
-56.50
-6.37
45.54
96.45
142.71
180.15
205.20
216.39
215.06
204.97
190.81
176.47
163.98
153.53
144.36
135.64
127.04
118.65
110.58
102.76
94.95
86.96
78.84
70.85
63.38
56.71
50.84
45.59
40.67
35.86
31.11
26.55
22.45
19.08
16.63
15.10
14.33
14.00
13.73
13.25
12.43
11.36
10.30
9.50
9.12
9.11
9.27
9.34
9.13
8.67
8.11
7.66
7.46
7.51
7.66
7.74
7.60
7.22
6.62
5.84
4.90
3.77
2.44
1.00
-0.40
-1.55
-2.31
-2.65
-2.65
-2.45
-2.18
-1.92
-1.66
-1.41
-1.18
-1.02
-0.94
-0.95
-0.97
-0.94
-0.81
-0.61
-0.39
-0.26
-0.24
-0.32
-0.44
-0.60
-0.79
-1.05
-1.40
-1.79
-2.13
-2.31
-2.26
-2.01
-1.66
-1.36
-1.20
-1.18
-1.27
-1.35
-1.37
-1.30
-1.22
-1.18
-1.23
-1.37
-1.51
-1.54
-1.38
-1.00
-0.45
0.19
0.84
1.41
1.83
2.08
2.16
2.13
2.04
1.95
1.87
1.78
1.65
1.46
1.25
1.03
0.84
0.68
0.54
0.43
0.40
0.49
0.71
1.01
1.29
1.45
1.42
1.22
0.93
0.61
0.31
0.05
-0.14
-0.18
-0.00
0.41
1.00
1.59
1.99
2.05
1.78
1.31
0.89
0.72
0.91
1.43
2.11
2.77
3.30
3.66
3.95
4.30
4.77
5.31
5.80
6.11
6.19
6.20
6.41
7.10
8.40
10.22
12.23
14.01
15.22
15.81
16.07
16.53
17.76
20.09
23.44
27.34
31.08
34.01
35.85
36.82
37.59
39.04
41.84
46.13
51.49
56.97
61.57
64.65
66.24
67.03
68.18
70.94
76.19
84.18
94.28
104.79
112.90
115.00
107.68
89.03
59.85
23.94
-12.99
-45.31
-69.55
-85.44
-95.46
-103.06
-110.79
-119.18
-127.04
-132.68
-135.30
-135.52
-135.02
-135.56
-137.99
-142.00
-146.51
-150.27
-152.26
-151.83
-148.48
-141.76
-131.52
-118.39
-104.08
-91.26
-82.73
-80.11
-82.75
-87.38
-88.90
-82.24
-64.33
-35.54
0.27
37.14
69.14
92.33
105.78
111.18
111.62
110.17
108.90
108.70
109.70
111.58
113.92
116.23
117.93
118.60
118.28
117.76
118.27
120.79
125.02
128.81
128.27
118.77
96.30
58.73
6.74
-56.02
-123.50
-188.33
-243.27
-282.58
-302.90
-303.52
-285.91
-252.79
-207.39
-153.25
-94.34
-35.38
18.50
62.72
94.60
114.09
123.56
126.58
126.56
125.72
125.06
124.86
125.33
126.90
130.00
134.65
140.23
145.69
150.05
152.81
154.21
155.14
156.74
159.85
164.46
169.30
171.83
168.68
156.53
133.07
97.78
52.17
-0.61
-56.58
-111.95
-163.65
-209.62
-248.53
-279.41
-301.50
-314.53
-319.26
-317.64
-312.49
-306.17
-299.36
-290.32
-275.35
-250.25
-212.20
-161.12
-100.07
-34.54
28.92
84.12
126.58
154.26
167.85
170.21
165.45
157.53
149.27
141.89
135.39
129.52
124.40
120.71
119.23
120.29
123.38
127.15
129.73
129.10
123.28
110.78
90.88
64.01
32.04
-1.87
-33.88
-60.42
-79.13
-89.42
-92.45
-90.58
-86.54
-82.68
-80.43
-80.26
-81.79
-84.10
-86.15
-87.14
-86.72
-85.20
-83.48
-82.79
-84.33
-88.49
-94.16
-98.48
-97.37
-86.90
-65.20
-33.73
2.76
37.74
65.33
82.34
89.04
88.30
83.78
78.34
73.23
68.54
63.97
59.58
55.82
53.14
51.61
50.76
49.87
48.37
46.12
43.33
40.44
37.79
35.57
33.76
32.31
31.20
30.47
30.16
30.24
30.58
31.00
31.43
31.93
32.80
34.34
36.76
40.06
44.06
48.42
52.62
55.89
57.23
55.56
50.13
40.98
29.22
16.75
5.73
-2.36
-7.17
-9.59
-11.04
-12.74
-14.98
-17.05
-17.62
-15.41
-9.81
-1.05
10.01
22.37
35.34
48.79
62.89
77.36
90.73
100.10
101.94
93.56
74.69
48.10
18.89
-7.52
-27.35
-39.52
-45.32
-47.12
-46.93
-45.77
-43.81
-41.03
-37.76
-34.65
-32.29
-30.89
-30.12
-29.41
-28.10
-25.93
-23.30
-21.67
-23.35
-30.78
-45.34
-66.17
-89.95
-111.88
-127.42
-134.03
-131.80
-122.91
-110.31
-96.47
-82.84
-70.12
-58.81
-49.55
-42.91
-38.93
-36.86
-35.42
-33.29
-29.78
-25.09
-20.03
-15.61
-12.47
-10.82
-10.65
-11.93
-14.55
-17.79
-19.64
-16.88
-6.02
15.07
45.72
81.95
117.36
145.00
159.50
158.48
142.86
116.10
82.85
47.74
14.46
-14.52
-38.00
-55.72
-68.04
-75.68
-79.53
-80.58
-79.76
-77.80
-75.01
-71.28
-66.41
-60.55
-54.47
-49.34
-46.21
-45.53
-46.91
-49.38
-51.95
-54.17
-56.30
-59.21
-64.00
-71.41
-81.40
-92.58
-102.06
-105.64
-98.76
-78.01
-42.71
4.20
56.52
106.49
147.33
175.21
190.20
195.31
194.61
191.21
186.30
179.42
169.56
156.23
139.91
121.59
102.18
82.11
61.56
41.05
21.88
5.95
-4.89
-9.70
-9.00
-4.55
1.40
7.09
11.70
15.08
16.91
16.06
10.53
-1.74
-21.65
-48.08
-77.93
-107.27
-132.66
-152.19
-165.50
-173.10
-175.51
-172.95
-165.63
-154.38
-140.93
-127.36
-115.09
-104.04
-92.68
-79.08
-62.23
-43.13
-24.64
-10.45
-3.69
-5.85
-16.37
-32.76
-50.91
-65.61
-71.34
-63.73
-41.21
-6.16
35.22
74.80
105.30
122.75
127.36
122.44
112.40
100.76
89.51
79.44
71.02
64.89
61.64
61.28
62.91
64.90
65.58
63.93
59.90
54.34
48.50
43.44
39.66
36.96
34.64
31.87
28.00
22.86
16.83
10.61
5.00
0.62
-2.32
-3.97
-4.72
-5.00
-5.05
-4.86
-4.22
-2.92
-0.94
1.40
3.56
5.00
5.39
4.80
3.62
2.38
1.48
1.11
1.18
1.50
1.87
2.11
2.13
1.92
1.48
0.85
0.13
-0.58
-1.18
-1.59
-1.73
-1.51
-0.87
0.23
1.73
3.44
5.08
6.33
6.94
6.72
5.65
3.84
1.54
-0.88
-3.05
-4.64
-5.47
-5.56
-5.09
-4.31
-3.45
-2.64
-1.90
-1.16
-0.38
0.47
1.31
2.00
2.43
2.56
2.47
2.33
2.30
2.48
2.84
3.22
3.46
3.44
3.17
2.78
2.43
2.25
2.29
2.52
2.91
3.40
3.92
4.32
4.40
3.93
2.81
1.12
-0.84
-2.70
-4.18
-5.17
-5.78
-6.21
-6.57
-6.90
-7.06
-6.96
-6.55
-5.91
-5.20
-4.54
-4.01
-3.59
-3.22
-2.88
-2.58
-2.38
-2.33
-2.43
-2.59
-2.70
-2.64
-2.40
-2.02
-1.63
-1.35
-1.25
-1.31
-1.44
-1.57
-1.63
-1.62
-1.56
-1.49
-1.46
-1.46
-1.44
-1.32
-1.05
-0.64
-0.16
0.23
0.41
0.32
-0.03
-0.52
-1.06
-1.58
-2.08
-2.58
-3.09
-3.59
-4.02
-4.37
-4.64
-4.91
-5.23
-5.62
-6.03
-6.40
-6.67
-6.86
-7.11
-7.60
-8.47
-9.70
-11.09
-12.33
-13.11
-13.19
-12.53
-11.17
-9.17
-6.62
-3.59
-0.25
3.18
6.38
9.11
11.25
12.85
14.04
14.95
15.61
15.93
15.86
15.43
14.80
14.17
13.71
13.44
13.25
12.98
12.54
11.90
11.05
9.95
8.53
6.70
4.53
2.27
0.27
-1.15
-1.84
-1.91
-1.63
-1.29
-1.06
-0.96
-0.92
-0.89
-0.90
-1.00
-1.21
-1.48
-1.69
-1.73
-1.56
-1.24
-0.88
-0.59
-0.45
-0.45
-0.55
-0.70
-0.86
-0.99
-1.05
-1.02
-0.85
-0.52
-0.05
0.49
1.01
1.42
1.68
1.78
1.82
1.89
2.12
2.51
2.99
3.36
3.42
3.06
2.29
1.29
0.31
-0.42
-0.78
-0.78
-0.59
-0.46
-0.58
-1.09
-1.94
-2.97
-3.92
-4.56
-4.79
-4.69
-4.52
-4.63
-5.30
-6.61
-8.42
-10.38
-12.03
-12.94
-12.80
-11.51
-9.18
-6.11
-2.73
0.53
3.29
5.28
6.38
6.65
6.23
5.37
4.32
3.34
2.58
2.15
2.00
2.06
2.20
2.32
2.32
2.19
1.90
1.51
1.09
0.73
0.55
0.59
0.82
1.14
1.44
1.67
1.83
1.98
2.18
2.44
2.72
2.90
2.91
2.71
2.36
1.94
1.59
1.39
1.37
1.48
1.60
1.66
1.60
1.45
1.30
1.21
1.18
1.12
0.93
0.57
0.13
-0.26
-0.46
-0.45
-0.33
-0.28
-0.38
-0.64
-0.94
-1.13
-1.21
-1.23
-1.32
-1.57
-1.94
-2.30
-2.52
-2.49
-2.21
-1.78
-1.30
-0.86
-0.50
-0.24
-0.08
-0.04
-0.10
-0.26
-0.49
-0.72
-0.90
-0.99
-0.98
-0.89
-0.77
-0.65
-0.55
-0.43
-0.28
-0.06
0.26
0.65
1.09
1.51
1.87
2.15
2.36
2.56
2.79
3.10
3.46
3.81
4.10
4.31
4.47
4.65
4.89
5.17
5.40
5.48
5.38
5.22
5.15
5.36
5.95
6.87
8.02
9.22
10.24
10.81
10.62
9.37
6.93
3.43
-0.65
-4.67
-7.98
-10.19
-11.26
-11.41
-10.98
-10.21
-9.24
-8.15
-7.04
-6.10
-5.51
-5.36
-5.56
-5.91
-6.14
-6.09
-5.72
-5.13
-4.49
-3.95
-3.56
-3.30
-3.04
-2.65
-2.05
-1.26
-0.39
0.40
0.96
1.25
1.32
1.27
1.25
1.36
1.63
2.08
2.64
3.19
3.60
3.73
3.52
3.07
2.62
2.42
2.68
3.35
4.21
4.95
5.31
5.28
5.07
5.10
5.76
7.21
9.29
11.51
13.24
14.02
13.81
13.11
12.82
13.83
16.62
20.92
25.76
29.90
32.33
32.85
32.19
31.74
32.93
36.56
42.39
49.24
55.41
59.49
60.95
60.35
59.10
58.95
61.45
67.40
76.39
86.28
93.19
92.08
78.13
48.81
5.63
-45.51
-95.68
-135.81
-159.87
-167.16
-162.40
-153.82
-149.96
-156.62
-175.13
-202.32
-232.02
-257.08
-271.22
-270.17
-251.87
-216.38
-165.94
-105.02
-40.22
20.62
70.03
103.16
119.20
121.48
115.93
108.56
103.29
101.15
100.86
100.41
98.57
95.48
92.27
90.10
89.32
89.29
88.77
86.61
82.38
76.68
70.86
66.53
64.86
66.01
68.87
71.24
70.32
63.49
49.15
27.34
-0.15
-30.02
-58.48
-82.15
-99.07
-109.14
-113.92
-115.88
-117.45
-119.91
-122.82
-124.02
-120.34
-108.99
-88.89
-61.48
-30.48
-0.74
23.46
39.71
47.98
50.02
48.17
44.35
39.70
34.76
30.07
26.35
24.42
24.62
26.53
28.99
30.55
30.17
27.58
23.46
19.06
15.61
13.89
13.89
14.91
15.93
16.06
14.94
12.80
10.31
8.20
6.97
6.65
6.90
7.21
7.18
6.65
5.72
4.69
3.80
3.23
2.95
2.84
2.74
2.53
2.15
1.63
1.06
0.55
0.21
0.07
0.14
0.34
0.54
0.59
0.39
-0.08
-0.78
-1.55
-2.19
-2.55
-2.53
-2.18
-1.65
-1.13
-0.81
-0.76
-0.96
-1.30
-1.65
-1.92
-2.06
-2.05
-1.91
-1.68
-1.41
-1.15
-0.93
-0.75
-0.62
-0.52
-0.47
-0.50
-0.67
-0.98
-1.37
-1.75
-1.99
-2.03
-1.88
-1.62
-1.35
-1.14
-1.02
-0.95
-0.94
-0.96
-0.99
-1.02
-0.97
-0.79
-0.42
0.11
0.73
1.34
1.81
2.04
1.99
1.70
1.21
0.64
0.07
-0.42
-0.85
-1.25
-1.68
-2.19
-2.78
-3.41
-4.05
-4.67
-5.27
-5.73
-5.85
-5.31
-3.88
-1.53
1.41
4.37
6.74
8.14
8.53
8.23
7.70
7.27
7.08
7.01
6.87
6.54
6.06
5.58
5.29
5.27
5.48
5.76
5.89
5.68
5.07
4.11
2.99
1.88
0.85
-0.13
-1.16
-2.31
-3.55
-4.73
-5.63
-6.07
-5.96
-5.37
-4.45
-3.40
-2.39
-1.52
-0.87
-0.47
-0.33
-0.45
-0.76
-1.15
-1.51
-1.73
-1.79
-1.71
-1.60
-1.52
-1.46
-1.31
-0.90
-0.11
1.04
2.34
3.46
4.12
4.16
3.77
3.32
3.35
4.23
6.01
8.36
10.63
12.17
12.63
12.19
11.53
11.57
13.06
16.15
20.28
24.36
27.22
28.12
27.15
25.25
23.99
24.99
29.32
37.02
46.95
57.17
65.62
71.18
74.27
77.03
82.35
92.30
106.45
121.11
129.83
125.18
101.32
56.50
-5.43
-75.11
-139.62
-185.61
-202.86
-187.18
-141.70
-76.22
-4.43
60.04
107.43
134.30
143.61
142.70
139.77
140.57
146.40
154.20
158.54
154.19
138.19
110.64
73.79
30.66
-16.06
-64.26
-112.06
-157.06
-196.01
-224.93
-239.79
-237.24
-215.16
-173.27
-113.94
-42.86
30.96
96.29
142.21
160.98
150.37
114.46
62.39
5.57
-45.49
-83.63
-106.01
-113.58
-109.81
-99.07
-85.58
-72.79
-63.18
-58.19
-58.06
-61.86
-67.66
-72.84
-75.06
-73.04
-67.03
-58.73
-50.48
-44.28
-41.01
-40.17
-40.23
-39.41
-36.51
-31.34
-24.75
-18.19
-13.01
-9.85
-8.44
-7.69
-6.34
-3.52
0.88
6.16
11.17
14.82
16.42
15.96
13.99
11.37
8.93
7.18
6.25
5.96
5.98
6.04
6.03
5.95
5.80
5.59
5.26
4.81
4.33
3.96
3.87
4.07
4.42
4.70
4.70
4.33
3.67
2.92
2.28
1.87
1.70
1.72
1.81
1.86
1.80
1.64
1.40
1.13
0.85
0.54
0.20
-0.15
-0.42
-0.52
-0.42
-0.22
-0.11
-0.24
-0.68
-1.29
-1.83
-2.07
-1.91
-1.44
-0.87
-0.39
-0.08
0.13
0.33
0.55
0.76
0.86
0.78
0.55
0.27
0.05
-0.03
0.00
0.08
0.12
0.08
-0.04
-0.19
-0.33
-0.44
-0.51
-0.56
-0.58
-0.58
-0.55
-0.47
-0.31
-0.09
0.17
0.42
0.60
0.66
0.63
0.54
0.45
0.40
0.39
0.37
0.32
0.23
0.15
0.16
0.31
0.57
0.89
1.16
1.33
1.44
1.53
1.65
1.77
1.76
1.50
0.95
0.25
-0.41
-0.78
-0.80
-0.54
-0.20
0.00
-0.05
-0.36
-0.80
-1.23
-1.56
-1.73
-1.78
-1.75
-1.70
-1.66
-1.62
-1.55
-1.42
-1.24
-1.09
-1.01
-1.03
-1.11
-1.14
-1.03
-0.73
-0.30
0.13
0.42
0.48
0.36
0.15
-0.02
-0.07
-0.01
0.10
0.18
0.14
0.01
-0.15
-0.26
-0.26
-0.14
0.04
0.22
0.32
0.31
0.21
0.07
-0.05
-0.11
-0.09
-0.04
0.03
0.11
0.20
0.33
0.46
0.52
0.45
0.21
-0.13
-0.48
-0.72
-0.78
-0.68
-0.48
-0.27
-0.11
-0.03
-0.05
-0.18
-0.37
-0.55
-0.64
-0.55
-0.30
0.02
0.26
0.34
0.29
0.21
0.23
0.37
0.57
0.71
0.71
0.53
0.25
-0.04
-0.26
-0.37
-0.37
-0.30
-0.19
-0.06
0.05
0.10
0.10
0.10
0.13
0.21
0.33
0.42
0.43
0.32
0.11
-0.12
-0.31
-0.39
-0.33
-0.14
0.14
0.43
0.66
0.77
0.75
0.63
0.50
0.43
0.45
0.54
0.62
0.59
0.40
0.09
-0.26
-0.51
-0.57
-0.43
-0.18
0.03
0.08
-0.08
-0.41
-0.80
-1.11
-1.27
-1.24
-1.06
-0.76
-0.37
0.08
0.50
0.81
0.93
0.82
0.56
0.26
0.03
-0.07
-0.05
0.01
0.07
0.11
0.19
0.33
0.52
0.69
0.76
0.65
0.36
-0.06
-0.49
-0.83
-0.99
-0.92
-0.66
-0.27
0.14
0.44
0.57
0.49
0.27
0.00
-0.21
-0.31
-0.26
-0.12
0.05
0.17
0.15
-0.00
-0.23
-0.43
-0.52
-0.48
-0.36
-0.23
-0.14
-0.09
-0.01
0.13
0.32
0.47
0.51
0.40
0.19
0.02
-0.02
0.10
0.32
0.48
0.50
0.39
0.25
0.20
0.30
0.47
0.59
0.55
0.33
-0.01
-0.33
-0.53
-0.58
-0.49
-0.32
-0.12
0.06
0.20
0.28
0.23
0.05
-0.25
-0.61
-0.92
-1.09
-1.10
-0.97
-0.77
-0.56
-0.36
-0.20
-0.05
0.10
0.22
0.28
0.27
0.18
0.05
-0.07
-0.14
-0.12
-0.02
0.16
0.35
0.49
0.53
0.44
0.27
0.08
-0.06
-0.12
-0.13
-0.14
-0.16
-0.18
-0.14
-0.01
0.18
0.37
0.45
0.38
0.20
-0.00
-0.12
-0.10
0.04
0.26
0.48
0.65
0.73
0.67
0.47
0.14
-0.25
-0.55
-0.64
-0.46
-0.06
0.38
0.68
0.71
0.49
0.14
-0.16
-0.30
-0.29
-0.24
-0.25
-0.38
-0.61
-0.84
-0.97
-0.99
-0.95
-0.95
-1.07
-1.32
-1.62
-1.88
-2.04
-2.10
-2.12
-2.15
-2.22
-2.26
-2.18
-1.95
-1.59
-1.25
-1.06
-1.11
-1.41
-1.87
-2.35
-2.76
-3.05
-3.22
-3.29
-3.20
-2.86
-2.13
-0.94
0.74
2.81
5.20
7.85
10.78
13.91
17.01
19.61
21.11
21.10
19.50
16.70
13.34
10.00
6.92
4.03
1.21
-1.42
-3.45
-4.37
-3.93
-2.35
-0.25
1.64
2.77
2.98
2.41
1.40
0.30
-0.58
-1.02
-0.94
-0.41
0.24
0.55
0.14
-1.09
-2.93
-4.91
-6.61
-7.80
-8.51
-8.88
-9.05
-9.09
-8.95
-8.59
-8.02
-7.35
-6.76
-6.37
-6.22
-6.20
-6.11
-5.77
-5.07
-4.05
-2.90
-1.85
-1.12
-0.76
-0.72
-0.85
-0.98
-1.01
-0.91
-0.73
-0.53
-0.34
-0.23
-0.20
-0.24
-0.30
-0.32
-0.25
-0.08
0.16
0.38
0.51
0.51
0.36
0.12
-0.16
-0.44
-0.69
-0.91
-1.13
-1.39
-1.70
-2.05
-2.43
-2.73
-2.87
-2.70
-2.16
-1.26
-0.12
1.01
1.90
2.36
2.41
2.19
1.91
1.73
1.66
1.59
1.40
1.06
0.72
0.61
0.93
1.68
2.64
3.45
3.80
3.55
2.78
1.73
0.69
-0.18
-0.79
-1.15
-1.30
-1.26
-1.07
-0.80
-0.57
-0.49
-0.61
-0.94
-1.41
-1.97
-2.52
-2.96
-3.19
-3.10
-2.67
-2.01
-1.31
-0.81
-0.65
-0.76
-0.92
-0.88
-0.46
0.35
1.39
2.46
3.35
3.95
4.23
4.21
3.89
3.32
2.49
1.43
0.13
-1.34
-2.87
-4.23
-5.15
-5.41
-4.99
-4.13
-3.29
-2.91
-3.24
-4.22
-5.54
-6.87
-8.12
-9.47
-11.32
-13.96
-17.42
-21.40
-25.45
-29.18
-32.52
-35.68
-39.04
-42.91
-47.44
-52.52
-57.87
-63.16
-68.09
-72.51
-76.41
-79.97
-83.53
-87.41
-91.84
-96.82
-102.10
-107.30
-112.05
-116.18
-119.85
-123.53
-127.95
-133.69
-140.72
-147.89
-152.80
-152.12
-142.48
-121.37
-88.00
-43.70
8.20
62.89
114.87
159.02
191.49
210.57
216.96
213.36
203.54
191.18
178.88
167.87
158.32
149.92
142.43
135.81
130.15
125.46
121.49
117.83
114.00
109.67
104.80
99.70
94.79
90.43
86.63
83.10
79.52
75.87
72.32
68.65
63.42
53.79
36.38
9.00
-27.72
-69.80
-111.04
-145.07
-167.35
-176.05
-171.60
-155.72
-130.57
-98.74
-63.68
-29.68
-1.19
18.57
28.65
30.55
27.38
22.47
18.19
15.56
14.53
14.48
14.76
14.86
14.41
13.19
11.07
8.12
4.70
1.31
-1.50
-3.34
-4.18
-4.28
-4.11
-4.09
-4.36
-4.60
-4.21
-2.54
0.69
5.23
10.22
14.56
17.29
17.95
16.73
14.23
11.21
8.26
5.72
3.70
2.27
1.49
1.46
2.13
3.27
4.50
5.41
5.71
5.31
4.39
3.21
2.08
1.18
0.56
0.14
-0.18
-0.49
-0.82
-1.15
-1.40
-1.53
-1.49
-1.32
-1.04
-0.70
-0.38
-0.13
0.03
0.12
0.18
0.29
0.50
0.75
0.96
1.02
0.88
0.63
0.43
0.45
0.74
1.23
1.77
2.19
2.43
2.46
2.31
2.01
1.58
1.05
0.50
0.02
-0.31
-0.46
-0.49
-0.49
-0.50
-0.50
-0.39
-0.10
0.38
1.03
1.75
2.48
3.13
3.65
3.98
4.07
3.95
3.71
3.49
3.42
3.54
3.75
3.85
3.72
3.36
2.97
2.80
3.06
3.75
4.69
5.61
6.28
6.66
6.88
7.16
7.71
8.62
9.79
10.98
11.97
12.62
13.00
13.35
13.97
15.12
16.83
18.90
21.00
22.79
24.06
24.81
25.19
25.47
25.94
26.86
28.43
30.58
32.84
34.28
33.71
30.11
23.13
13.46
2.68
-7.21
-14.54
-18.53
-19.45
-18.22
-15.90
-13.15
-10.10
-6.46
-2.00
3.14
8.27
12.41
14.59
14.31
11.72
7.59
2.95
-1.23
-4.34
-6.19
-6.91
-6.80
-6.28
-5.88
-6.22
-7.92
-11.32
-16.25
-21.99
-27.48
-31.69
-34.06
-34.55
-33.55
-31.63
-29.28
-26.85
-24.59
-22.71
-21.42
-20.78
-20.67
-20.75
-20.59
-19.90
-18.64
-16.98
-15.27
-13.78
-12.63
-11.77
-11.02
-10.21
-9.26
-8.17
-7.05
-5.98
-5.02
-4.18
-3.45
-2.82
-2.32
-1.94
-1.68
-1.48
-1.29
-1.05
-0.77
-0.45
-0.14
0.12
0.30
0.38
0.38
0.31
0.18
0.02
-0.17
-0.38
-0.57
-0.72
-0.78
-0.75
-0.63
-0.49
-0.38
-0.34
-0.40
-0.52
-0.71
-0.96
-1.30
-1.68
-2.05
-2.29
-2.34
-2.23
-2.05
-1.92
-1.88
-1.89
-1.88
-1.82
-1.79
-1.93
-2.35
-3.02
-3.74
-4.29
-4.49
-4.33
-3.98
-3.69
-3.71
-4.18
-5.13
-6.47
-7.98
-9.39
-10.46
-11.07
-11.39
-11.82
-12.86
-14.89
-17.91
-21.42
-24.65
-26.85
-27.76
-27.79
-27.93
-29.26
-32.46
-37.36
-43.01
-48.11
-51.62
-53.25
-53.56
-53.66
-54.71
-57.62
-62.94
-70.79
-80.56
-90.36
-96.82
-95.67
-83.28
-58.49
-23.83
14.88
50.49
77.09
92.08
96.46
93.58
87.15
79.67
72.14
64.62
57.27
50.72
45.83
43.06
42.04
41.63
40.48
37.68
33.16
27.64
22.20
17.70
14.41
11.96
9.49
6.15
1.57
-3.79
-8.54
-10.78
-8.79
-1.90
9.02
21.71
33.34
41.58
45.51
45.76
43.85
41.35
39.03
36.78
34.07
30.59
26.65
23.04
20.59
19.60
19.69
20.03
19.70
18.23
15.74
12.79
10.06
8.08
7.07
6.98
7.70
9.04
10.71
12.14
12.50
10.92
6.94
0.85
-6.26
-12.90
-17.71
-20.09
-20.28
-19.12
-17.53
-16.10
-14.88
-13.68
-12.32
-10.90
-9.73
-9.11
-9.05
-9.28
-9.34
-8.93
-8.00
-6.84
-5.86
-5.37
-5.39
-5.72
-5.99
-5.92
-5.40
-4.53
-3.52
-2.57
-1.80
-1.28
-1.00
-0.92
-0.97
-1.08
-1.16
-1.13
-0.96
-0.69
-0.39
-0.13
0.06
0.20
0.30
0.39
0.45
0.43
0.32
0.14
-0.05
-0.17
-0.19
-0.11
-0.01
0.03
-0.06
-0.29
-0.65
-1.05
-1.38
-1.53
-1.45
-1.16
-0.78
-0.42
-0.19
-0.09
-0.06
0.04
0.31
0.80
1.44
2.12
2.71
3.14
3.41
3.61
3.81
4.11
4.52
5.05
5.68
6.38
7.00
7.30
6.98
5.78
3.69
0.98
-1.80
-4.07
-5.43
-5.83
-5.54
-4.97
-4.50
-4.32
-4.44
-4.74
-5.09
-5.37
-5.52
-5.48
-5.19
-4.66
-3.91
-3.06
-2.28
-1.72
-1.53
-1.70
-2.17
-2.75
-3.25
-3.48
-3.38
-3.02
-2.56
-2.18
-2.01
-2.06
-2.28
-2.57
-2.87
-3.16
-3.40
-3.54
-3.53
-3.31
-2.92
-2.50
-2.26
-2.36
-2.86
-3.70
-4.71
-5.73
-6.61
-7.26
-7.65
-7.77
-7.70
-7.60
-7.67
-8.11
-9.01
-10.25
-11.65
-12.97
-14.05
-14.86
-15.42
-15.70
-15.67
-15.27
-14.60
-13.80
-12.91
-11.70
-9.69
-6.31
-1.35
4.79
11.11
16.35
19.55
20.41
19.35
17.23
14.95
13.11
11.93
11.36
11.27
11.50
11.89
12.30
12.54
12.47
12.02
11.20
10.17
9.20
8.61
8.66
9.39
10.59
11.75
12.26
11.73
10.12
7.82
5.43
3.53
2.39
1.95
1.89
1.84
1.60
1.16
0.65
0.25
0.03
-0.02
-0.01
-0.10
-0.37
-0.82
-1.35
-1.77
-1.87
-1.53
-0.71
0.48
1.86
3.24
4.48
5.53
6.43
7.27
8.20
9.38
10.95
12.99
15.46
18.19
20.95
23.51
25.73
27.60
29.19
30.57
31.82
32.96
34.07
35.23
36.52
37.92
39.33
40.57
41.58
42.41
43.13
43.65
43.55
42.10
38.56
32.41
23.57
12.43
-0.34
-13.94
-27.46
-39.89
-50.06
-56.86
-59.57
-58.20
-53.68
-47.57
-41.53
-36.66
-33.19
-30.48
-27.49
-23.33
-17.70
-10.88
-3.62
3.04
7.90
9.66
7.30
0.44
-10.20
-22.76
-34.83
-44.28
-50.16
-52.93
-54.03
-54.90
-56.08
-56.89
-55.93
-51.96
-44.74
-35.32
-25.62
-17.61
-12.54
-10.63
-11.17
-13.01
-15.31
-17.79
-20.64
-24.24
-28.64
-33.41
-37.92
-41.70
-44.82
-47.61
-50.24
-52.13
-51.98
-48.23
-39.97
-27.65
-13.11
1.08
12.65
20.44
24.51
25.74
25.21
23.71
21.79
19.97
18.89
19.18
21.22
24.80
29.25
33.71
37.46
40.12
41.66
42.21
41.92
40.88
39.20
37.03
34.54
31.88
29.12
26.29
23.45
20.67
18.09
15.82
13.90
12.26
10.74
9.25
7.74
6.25
4.90
3.74
2.82
2.08
1.48
0.93
0.43
-0.03
-0.45
-0.85
-1.26
-1.72
-2.25
-2.79
-3.22
-3.27
-2.67
-1.19
1.18
4.19
7.34
10.10
12.05
13.05
13.24
12.92
12.41
11.94
11.63
11.50
11.53
11.68
11.89
12.11
12.29
12.48
12.76
13.21
13.85
14.59
15.28
15.75
15.99
16.04
16.05
16.14
16.42
16.97
17.85
19.01
20.09
20.32
18.60
13.95
6.02
-4.47
-15.80
-25.79
-32.55
-35.25
-34.29
-30.98
-26.89
-23.22
-20.52
-18.78
-17.79
-17.31
-17.27
-17.64
-18.33
-19.17
-19.95
-20.51
-20.91
-21.33
-22.03
-23.06
-24.09
-24.42
-23.15
-19.67
-14.00
-6.98
-0.02
5.42
8.38
8.75
7.18
4.69
2.21
0.30
-0.88
-1.40
-1.40
-1.01
-0.42
0.11
0.29
-0.06
-0.92
-2.05
-3.10
-3.73
-3.77
-3.20
-2.17
-0.92
0.28
1.24
1.94
2.58
3.46
4.83
6.74
8.92
10.90
12.22
12.63
12.21
11.30
10.29
9.44
8.79
8.20
7.51
6.68
5.80
5.01
4.41
4.00
3.67
3.30
2.87
2.50
2.36
2.60
3.21
4.02
4.75
5.15
5.10
4.59
3.77
2.81
1.90
1.14
0.61
0.30
0.12
-0.04
-0.26
-0.56
-0.86
-1.01
-0.89
-0.46
0.23
0.96
1.55
1.82
1.78
1.51
1.20
1.03
1.09
1.35
1.71
2.02
2.19
2.21
2.14
2.13
2.29
2.72
3.38
4.17
4.92
5.43
5.60
5.46
5.20
5.09
5.41
6.28
7.59
9.06
10.27
10.95
11.06
10.91
11.00
11.77
13.38
15.55
17.68
19.15
19.61
19.21
18.57
18.50
19.68
22.49
26.95
32.64
38.60
43.16
44.21
39.77
29.02
12.98
-5.46
-22.44
-34.61
-40.42
-40.54
-37.14
-32.69
-28.82
-26.01
-24.02
-22.53
-21.61
-21.64
-22.83
-24.88
-27.02
-28.35
-28.30
-26.89
-24.72
-22.60
-21.14
-20.44
-20.10
-19.45
-17.97
-15.62
-12.89
-10.61
-9.57
-10.11
-11.96
-14.41
-16.64
-18.04
-18.42
-17.99
-17.19
-16.47
-16.22
-16.68
-17.89
-19.55
-20.98
-21.16
-19.12
-14.35
-7.23
1.02
8.65
14.11
16.61
16.42
14.55
12.29
10.53
9.53
8.96
8.25
6.96
5.08
2.96
1.15
0.08
-0.10
0.35
0.89
0.90
-0.11
-2.41
-6.00
-10.58
-15.41
-19.30
-20.75
-18.35
-11.46
-0.69
12.11
24.43
34.04
39.80
42.00
41.92
41.02
40.26
39.76
39.12
38.01
36.53
35.23
34.87
35.89
38.30
41.82
46.04
50.48
54.24
55.79
53.12
44.55
29.79
10.58
-9.55
-26.61
-37.70
-42.13
-41.33
-37.85
-33.93
-30.65
-28.01
-25.56
-23.13
-21.03
-19.79
-19.58
-19.95
-20.08
-19.13
-16.74
-13.19
-9.24
-5.74
-3.28
-2.02
-1.69
-1.85
-2.04
-1.96
-1.43
-0.40
1.13
3.07
5.23
7.28
8.88
9.79
10.03
9.93
10.07
11.02
13.15
16.41
20.30
24.09
27.09
29.00
29.94
30.45
31.24
32.92
35.94
40.42
45.93
51.18
54.03
51.89
42.74
26.24
4.32
-19.21
-40.04
-54.99
-63.19
-65.98
-65.93
-65.41
-65.66
-66.61
-67.57
-67.94
-67.61
-66.89
-66.19
-65.68
-65.34
-65.05
-64.90
-65.16
-66.15
-67.94
-70.11
-71.72
-71.59
-68.67
-62.50
-53.45
-42.64
-31.57
-21.62
-13.51
-7.12
-1.57
4.32
11.50
20.17
29.72
38.94
46.53
51.59
53.85
53.71
51.85
48.99
45.69
42.30
39.03
36.03
33.41
31.19
29.30
27.57
25.83
23.96
21.92
19.80
17.78
16.01
14.56
13.35
12.18
10.81
9.06
6.92
4.57
2.29
0.26
-1.49
-3.17
-5.09
-7.44
-10.09
-12.54
-14.06
-14.01
-12.23
-9.21
-5.93
-3.53
-2.83
-4.11
-7.10
-11.29
-15.99
-20.42
-23.53
-24.07
-20.96
-13.84
-3.50
8.17
18.81
26.54
30.56
31.34
30.06
27.92
25.66
23.47
21.30
19.19
17.38
16.20
15.81
16.07
16.62
17.07
17.08
16.48
15.27
13.57
11.61
9.69
8.12
7.12
6.71
6.75
7.04
7.38
7.65
7.77
7.60
7.00
5.81
4.06
1.96
-0.12
-1.83
-2.98
-3.61
-3.93
-4.18
-4.43
-4.67
-4.79
-4.73
-4.49
-4.14
-3.71
-3.21
-2.56
-1.73
-0.74
0.34
1.38
2.27
2.94
3.37
3.58
3.60
3.49
3.32
3.18
3.09
2.92
2.41
1.28
-0.61
-3.08
-5.67
-7.82
-9.09
-9.36
-8.85
-7.98
-7.09
-6.34
-5.68
-5.02
-4.30
-3.61
-3.08
-2.79
-2.74
-2.80
-2.88
-2.89
-2.86
-2.82
-2.81
-2.85
-2.91
-2.96
-2.96
-2.91
-2.78
-2.57
-2.28
-1.87
-1.35
-0.76
-0.18
0.30
0.59
0.67
0.62
0.55
0.61
0.83
1.18
1.55
1.85
2.03
2.09
2.03
1.84
1.50
1.00
0.43
-0.09
-0.39
-0.37
-0.05
0.52
1.18
1.81
2.26
2.43
2.29
1.88
1.33
0.83
0.53
0.51
0.74
1.15
1.64
2.14
2.63
3.11
3.56
3.92
4.11
4.12
3.95
3.71
3.53
3.49
3.58
3.63
3.38
2.63
1.32
-0.36
-2.04
-3.37
-4.11
-4.27
-4.04
-3.68
-3.35
-3.09
-2.80
-2.35
-1.64
-0.69
0.34
1.26
1.86
1.99
1.60
0.75
-0.40
-1.64
-2.72
-3.42
-3.59
-3.21
-2.36
-1.26
-0.16
0.74
1.32
1.57
1.58
1.41
1.12
0.68
0.04
-0.81
-1.79
-2.72
-3.40
-3.69
-3.61
-3.28
-2.91
-2.63
-2.49
-2.42
-2.33
-2.19
-2.04
-1.91
-1.82
-1.73
-1.51
-1.08
-0.45
0.25
0.85
1.19
1.19
0.96
0.67
0.51
0.63
1.06
1.75
2.59
3.42
4.10
4.49
4.51
4.10
3.34
2.38
1.49
0.91
0.77
1.00
1.36
1.56
1.37
0.77
-0.05
-0.84
-1.34
-1.47
-1.28
-0.93
-0.56
-0.18
0.28
0.93
1.78
2.70
3.41
3.63
3.12
1.86
0.04
-1.97
-3.78
-5.08
-5.77
-5.93
-5.73
-5.37
-4.94
-4.49
-3.97
-3.40
-2.84
-2.43
-2.28
-2.45
-2.89
-3.39
-3.73
-3.72
-3.31
-2.59
-1.82
-1.24
-1.05
-1.31
-1.97
-2.90
-3.95
-4.97
-5.82
-6.38
-6.60
-6.55
-6.45
-6.60
-7.26
-8.51
-10.18
-11.94
-13.37
-14.18
-14.32
-14.01
-13.67
-13.71
-14.42
-15.77
-17.41
-18.80
-19.37
-18.77
-17.06
-14.66
-12.31
-10.80
-10.72
-12.21
-14.84
-17.61
-19.19
-18.32
-14.28
-7.22
1.81
11.16
19.17
24.73
27.56
28.16
27.41
26.12
24.78
23.50
22.20
20.86
19.63
18.70
18.22
18.09
18.00
17.54
16.45
14.75
12.81
11.12
10.15
10.05
10.63
11.42
11.93
11.82
11.08
10.00
9.05
8.67
9.10
10.34
12.12
14.08
15.82
17.05
17.62
17.60
17.31
17.23
17.96
19.90
23.12
27.14
31.07
33.80
34.58
33.41
31.18
29.42
29.56
32.32
37.22
42.87
47.59
50.28
50.98
50.81
51.48
54.61
61.11
70.91
82.79
94.32
101.88
101.23
88.73
63.04
26.33
-15.78
-55.78
-86.92
-105.50
-111.79
-109.11
-101.85
-93.47
-85.66
-78.64
-72.14
-66.21
-61.26
-57.58
-54.85
-52.13
-48.31
-42.85
-36.16
-29.56
-24.88
-23.66
-26.51
-32.78
-40.65
-47.74
-51.84
-51.65
-47.07
-39.13
-29.53
-20.05
-12.04
-6.24
-2.79
-1.40
-1.60
-2.90
-4.91
-7.39
-10.23
-13.33
-16.48
-19.30
-21.21
-21.73
-20.81
-19.13
-18.01
-19.03
-23.22
-30.53
-39.78
-49.21
-57.33
-63.26
-66.56
-66.69
-62.74
-53.81
-39.85
-22.48
-4.92
9.04
16.51
16.57
10.54
1.19
-8.22
-14.79
-16.39
-11.83
-1.03
14.73
32.94
50.35
64.04
72.35
75.28
74.13
70.82
66.98
63.51
60.52
57.55
53.88
48.88
42.26
34.25
25.61
17.44
10.78
6.32
4.14
3.83
4.66
5.96
7.20
8.07
8.37
8.03
7.07
5.67
4.15
2.86
2.05
1.77
1.90
2.21
2.53
2.84
3.20
3.76
4.55
5.47
6.34
6.97
7.36
7.69
8.23
9.21
10.66
12.36
13.89
14.97
15.45
15.48
15.39
15.48
16.03
17.27
19.46
22.76
26.80
30.30
31.20
27.33
17.51
2.49
-15.04
-31.45
-43.64
-50.25
-51.87
-50.13
-46.53
-41.64
-35.28
-27.30
-18.33
-9.91
-3.76
-0.91
-1.12
-3.10
-5.24
-6.36
-6.14
-5.03
-3.76
-2.92
-2.63
-2.68
-2.67
-2.26
-1.29
0.16
1.86
3.51
4.85
5.72
6.09
6.11
5.99
6.05
6.52
7.49
8.89
10.43
11.77
12.65
13.03
13.08
13.23
13.85
15.21
17.28
19.76
22.22
24.21
25.48
25.96
25.83
25.45
25.30
25.86
27.60
30.79
35.19
39.81
42.84
42.19
36.28
24.94
9.79
-6.19
-19.78
-28.72
-32.54
-32.40
-30.27
-27.91
-26.17
-25.01
-23.95
-22.68
-21.29
-20.19
-19.77
-20.11
-20.90
-21.65
-21.81
-21.10
-19.68
-18.00
-16.69
-16.29
-17.05
-18.82
-21.17
-23.61
-25.79
-27.63
-29.32
-31.22
-33.70
-37.02
-41.21
-46.01
-50.83
-54.94
-57.68
-58.73
-58.34
-57.16
-55.96
-55.25
-54.95
-54.46
-53.10
-50.51
-47.04
-43.70
-41.81
-42.54
-46.67
-54.47
-65.62
-78.94
-91.90
-100.43
-99.57
-85.12
-55.68
-14.07
32.98
76.95
110.55
130.20
136.67
133.81
126.24
117.36
108.68
100.44
92.68
85.97
81.25
79.12
79.28
80.48
81.13
80.09
77.23
73.24
69.17
65.66
62.60
59.16
54.20
46.70
36.27
23.27
8.83
-5.43
-17.82
-27.04
-32.60
-34.93
-35.17
-34.64
-34.29
-34.38
-34.53
-34.17
-33.01
-31.21
-29.26
-27.62
-26.46
-25.69
-25.07
-24.44
-23.76
-23.03
-22.15
-20.86
-18.88
-16.06
-12.57
-8.84
-5.47
-2.98
-1.71
-1.72
-2.85
-4.75
-6.94
-8.93
-10.28
-10.74
-10.38
-9.54
-8.72
-8.39
-8.88
-10.27
-12.45
-15.00
-17.22
-18.17
-16.92
-12.94
-6.41
1.64
9.66
16.12
20.02
21.25
20.38
18.29
15.74
13.14
10.62
8.29
6.36
5.09
4.62
4.83
5.30
5.47
4.93
3.63
2.01
0.86
1.03
2.99
6.62
11.15
15.53
18.77
20.37
20.48
19.68
18.65
17.85
17.33
16.92
16.45
15.96
15.74
16.16
17.40
19.42
21.88
24.40
26.69
28.67
30.51
32.46
34.72
37.34
40.18
43.02
45.60
47.78
49.63
51.46
53.72
56.85
60.99
65.81
70.39
73.41
73.42
69.13
59.70
44.92
25.38
2.57
-21.23
-43.27
-61.01
-72.70
-77.94
-77.63
-73.51
-67.48
-61.05
-55.11
-50.05
-46.10
-43.43
-42.12
-41.95
-42.42
-42.78
-42.40
-40.99
-38.65
-35.84
-33.11
-30.85
-29.13
-27.79
-26.46
-24.85
-22.81
-20.41
-17.88
-15.49
-13.44
-11.81
-10.59
-9.72
-9.15
-8.83
-8.71
-8.69
-8.66
-8.51
-8.21
-7.78
-7.29
-6.85
-6.54
-6.39
-6.36
-6.34
-6.23
-5.93
-5.47
-4.91
-4.39
-3.92
-3.46
-2.87
-2.04
-0.95
0.28
1.45
2.39
3.04
3.40
3.53
3.43
3.15
2.90
3.11
4.32
7.00
11.19
16.40
21.69
26.05
28.81
29.84
29.50
28.34
26.78
24.93
22.63
19.72
16.26
12.62
9.31
6.76
5.05
3.83
2.53
0.60
-2.17
-5.59
-9.19
-12.45
-15.05
-16.95
-18.27
-19.18
-19.77
-20.15
-20.46
-20.97
-21.94
-23.48
-25.39
-27.20
-28.33
-28.37
-27.33
-25.62
-23.92
-22.88
-22.89
-23.99
-25.87
-27.94
-29.43
-29.54
-27.68
-23.71
-18.26
-12.64
-8.41
-6.72
-7.50
-9.38
-10.17
-7.94
-2.02
6.62
15.69
22.46
24.71
21.38
12.67
-0.19
-15.39
-31.03
-45.39
-57.20
-65.70
-70.67
-72.33
-71.26
-68.37
-64.85
-62.21
-61.96
-64.91
-70.56
-76.89
-80.77
-78.95
-69.17
-50.91
-25.59
3.88
33.90
61.06
82.84
97.93
106.36
109.18
108.10
104.92
101.11
97.59
94.73
92.49
90.70
89.19
87.71
86.05
84.05
81.74
79.38
77.39
76.18
75.90
76.20
76.25
74.98
71.47
65.38
57.08
47.52
37.77
28.57
20.01
11.61
2.71
-7.10
-17.65
-28.22
-37.77
-45.34
-50.34
-52.66
-52.64
-50.88
-48.05
-44.76
-41.44
-38.36
-35.59
-33.11
-30.85
-28.75
-26.79
-24.97
-23.21
-21.38
-19.27
-16.72
-13.75
-10.69
-8.06
-6.42
-5.98
-6.46
-7.04
-6.65
-4.51
-0.52
4.66
9.83
13.84
16.10
16.87
17.19
18.43
21.71
27.43
35.08
43.38
50.77
55.96
58.47
58.80
58.22
58.25
60.20
64.85
72.31
81.81
91.43
97.87
96.95
84.85
59.97
24.23
-16.95
-56.40
-87.96
-108.61
-118.99
-121.78
-119.29
-111.87
-98.26
-77.40
-50.41
-21.33
4.12
20.80
26.26
21.47
10.01
-3.73
-16.27
-25.89
-32.48
-36.79
-39.60
-41.18
-41.36
-39.78
-36.34
-31.44
-25.98
-21.07
-17.55
-15.73
-15.35
-15.86
-16.80
-17.90
-19.15
-20.53
-21.88
-22.90
-23.36
-23.28
-23.04
-23.12
-23.88
-25.28
-26.81
-27.75
-27.55
-26.17
-24.26
-22.89
-23.16
-25.76
-30.71
-37.19
-43.58
-47.63
-46.83
-39.09
-23.57
-1.13
25.61
52.94
77.30
96.30
109.31
117.04
120.70
121.10
118.21
111.40
100.05
84.32
65.43
45.56
27.26
12.71
3.06
-1.85
-3.34
-3.24
-3.21
-4.16
-6.07
-8.31
-10.24
-11.59
-12.67
-14.04
-16.00
-18.32
-20.27
-21.02
-20.09
-17.78
