1603895434.00
64.000000
-0.00
-0.00
-0.00
-0.00
-0.00
-0.00
-0.00
-0.00
-0.00
-0.00
0.00
0.01
0.01
-0.00
-0.03
-0.05
-0.05
0.00
0.13
0.36
0.66
1.01
1.37
1.72
2.06
2.40
2.79
3.24
3.80
4.42
5.06
5.66
6.20
6.68
7.15
7.68
8.31
9.14
10.09
11.04
11.88
12.56
13.14
13.76
14.65
15.96
17.91
20.32
22.90
25.38
27.58
29.57
31.68
34.32
37.81
42.54
48.15
54.10
59.83
64.97
69.58
74.14
79.34
85.71
93.76
103.00
112.62
121.73
129.77
136.75
143.30
150.75
157.77
166.64
177.95
191.79
206.97
220.57
228.25
225.36
208.53
176.87
132.76
80.05
23.07
-34.94
-92.44
-149.16
-205.23
-260.37
-313.74
-363.87
-409.83
-450.91
-486.50
-515.74
-537.23
-549.22
-549.96
-538.37
-514.21
-478.67
-433.88
-382.45
-327.02
-269.84
-212.63
-156.66
-102.96
-52.38
-5.91
35.58
71.43
101.36
125.53
144.43
158.77
169.27
176.53
180.97
182.86
182.42
179.94
175.74
170.23
163.82
156.84
149.54
142.06
134.48
126.85
119.22
111.64
104.15
96.80
89.60
82.59
75.83
69.38
63.31
57.68
52.47
47.65
43.15
38.89
34.86
31.10
27.68
24.68
22.13
19.99
18.16
16.49
14.86
13.24
11.71
10.44
9.61
9.33
9.46
9.75
9.83
9.40
8.40
7.10
5.95
5.49
5.99
7.25
8.68
9.52
9.08
7.19
4.19
0.82
-2.20
-4.65
-7.12
-10.82
-17.17
-27.23
-40.93
-57.07
-73.56
-88.36
-99.91
-107.77
-112.34
-114.42
-114.95
-114.53
-113.86
-113.28
-112.18
-107.82
-96.67
-74.87
-40.69
3.48
51.36
94.46
125.60
141.59
143.90
136.93
125.41
113.01
99.56
84.31
66.91
48.44
30.84
15.83
3.91
-5.57
-13.80
-22.22
-30.11
-36.61
-40.26
-39.79
-34.85
-26.28
-15.75
-5.22
3.83
10.81
15.82
19.62
23.01
26.38
29.55
31.95
32.98
32.58
31.18
29.53
28.65
29.29
31.64
35.28
39.38
41.61
42.08
41.38
40.29
39.61
39.77
40.60
41.39
41.19
39.40
36.29
32.67
29.71
28.40
29.07
31.10
33.14
33.71
32.15
28.94
25.32
22.74
22.11
23.45
26.27
30.07
34.52
38.97
41.73
39.47
28.57
6.98
-23.98
-59.33
-92.43
-118.02
-134.65
-144.25
-149.80
-152.30
-149.40
-136.84
-111.96
-76.33
-36.48
-1.11
22.98
33.87
34.78
31.64
29.90
31.98
36.72
41.28
43.40
42.90
41.61
41.96
45.51
52.00
59.80
66.36
70.15
71.60
72.85
76.21
81.97
87.54
86.99
75.97
52.52
19.09
-18.50
-53.53
-81.04
-98.92
-106.69
-104.22
-89.12
-59.85
-18.13
29.02
70.12
93.34
91.66
66.13
25.57
-17.54
-53.17
-77.00
-89.89
-94.44
-91.54
-79.70
-57.40
-26.51
6.38
31.51
40.57
31.27
8.65
-17.20
-36.42
-44.06
-41.51
-33.99
-26.75
-22.28
-20.05
-18.20
-15.53
-12.38
-10.02
-9.41
-10.56
-12.44
-13.55
-13.08
-11.30
-9.47
-9.29
-12.00
-18.11
-26.28
-34.66
-41.58
-46.39
-49.54
-52.26
-55.99
-62.05
-70.40
-81.43
-93.56
-103.22
-105.68
-96.74
-74.97
-42.99
-7.10
25.11
47.63
58.55
60.04
56.39
51.65
47.75
44.56
41.11
37.08
33.07
30.50
30.41
32.64
36.28
39.54
41.08
40.62
38.83
36.66
35.00
34.22
34.03
33.73
32.63
30.47
26.99
23.19
19.84
17.44
16.15
15.81
16.13
17.25
18.84
20.70
22.77
24.87
26.85
28.85
31.06
33.79
37.18
41.17
45.34
49.47
53.79
58.91
65.09
71.34
75.18
72.37
61.22
42.29
18.77
-4.85
-24.78
-39.29
-48.58
-53.37
-53.22
-46.52
-32.28
-11.75
10.91
29.77
39.75
38.73
28.56
13.71
-1.07
-12.84
-21.15
-27.35
-33.15
-38.85
-44.38
-48.77
-50.98
-50.63
-48.27
-44.96
-41.79
-39.33
-37.50
-35.79
-33.56
-30.48
-26.79
-23.13
-20.18
-18.27
-17.26
-16.62
-15.81
-14.40
-12.36
-9.98
-7.70
-5.92
-4.75
-4.07
-3.61
-3.11
-2.40
-1.49
-0.51
0.44
1.29
2.07
2.76
3.33
3.56
3.45
3.05
2.49
2.11
2.21
2.93
4.05
5.08
5.46
4.82
3.19
1.04
-0.82
-1.74
-1.48
-0.55
0.04
-0.85
-3.99
-9.33
-16.27
-23.34
-29.48
-34.11
-37.55
-40.72
-44.63
-50.07
-57.07
-66.23
-77.15
-88.33
-96.71
-98.28
-89.57
-69.53
-40.98
-9.42
18.36
37.42
46.36
47.39
44.47
41.00
38.38
36.02
32.88
28.47
23.85
20.79
20.72
23.70
28.39
32.87
35.01
34.04
30.42
25.95
22.83
22.77
26.15
31.75
37.32
40.37
39.49
34.78
28.18
22.71
21.14
24.76
32.61
42.02
49.37
52.21
49.81
43.99
38.16
35.64
38.45
46.54
58.44
70.61
80.20
83.19
75.45
54.39
21.38
-16.34
-48.86
-65.19
-59.39
-33.91
0.26
28.56
39.34
29.21
3.56
-27.92
-54.72
-72.29
-81.53
-85.75
-87.00
-84.81
-77.58
-64.88
-49.00
-34.09
-24.52
-22.75
-28.67
-40.46
-55.70
-71.71
-85.59
-93.62
-92.21
-79.62
-56.96
-28.44
0.09
23.47
38.84
46.89
50.36
52.10
53.24
53.25
50.93
45.95
39.64
34.52
32.95
35.65
41.21
46.93
50.17
49.52
45.54
40.13
35.70
34.27
36.74
42.71
50.14
56.10
57.36
51.43
37.60
17.51
-5.16
-25.94
-41.27
-49.63
-51.67
-49.52
-45.22
-40.11
-34.74
-29.36
-24.49
-20.99
-19.64
-20.44
-22.45
-24.12
-24.15
-21.97
-18.00
-13.35
-9.13
-6.08
-4.27
-3.32
-2.68
-2.04
-1.54
-1.69
-3.06
-5.74
-9.07
-11.70
-12.06
-9.05
-2.78
5.36
13.09
17.97
18.08
12.57
1.79
-12.52
-27.28
-38.72
-43.00
-37.55
-22.48
-1.10
20.66
36.13
40.26
31.56
12.47
-11.38
-33.16
-47.37
-51.32
-45.63
-33.39
-18.76
-5.82
2.00
2.44
-5.31
-20.24
-39.12
-56.56
-66.15
-62.34
-41.46
-5.23
39.42
82.58
114.69
129.51
125.27
104.36
72.02
34.90
-0.52
-28.64
-45.72
-50.60
-44.88
-32.22
-16.93
-2.42
9.61
18.85
25.69
30.32
32.42
31.53
27.71
21.89
15.68
10.78
8.18
7.95
9.33
11.12
12.18
11.82
9.85
6.58
2.56
-1.64
-5.48
-8.50
-10.30
-10.63
-9.49
-7.29
-4.86
-3.22
-3.28
-5.45
-9.44
-14.39
-19.21
-22.91
-24.96
-25.28
-24.10
-21.75
-18.52
-14.71
-10.64
-6.58
-2.76
0.79
4.15
7.46
10.72
13.86
16.75
19.47
22.21
25.19
28.24
30.64
31.21
28.72
22.64
13.53
3.12
-6.29
-12.60
-14.72
-12.85
-8.29
-2.80
2.08
5.54
7.46
8.12
7.81
6.59
4.37
1.16
-2.72
-6.57
-9.64
-11.44
-11.97
-11.75
-11.52
-11.84
-12.89
-14.32
-15.43
-15.47
-14.01
-11.12
-7.38
-3.67
-0.84
0.60
0.70
-0.08
-1.03
-1.51
-1.21
-0.16
1.26
2.54
3.20
2.97
1.88
0.27
-1.41
-2.78
-3.61
-3.91
-3.74
-3.11
-1.95
-0.18
2.11
4.68
7.24
9.71
12.28
15.07
17.84
19.80
19.85
17.26
12.12
5.36
-1.58
-7.60
-12.45
-16.62
-20.65
-24.48
-26.98
-26.76
-23.04
-16.00
-6.96
2.31
10.29
16.17
19.75
21.23
20.35
16.59
10.23
2.49
-4.60
-9.07
-9.85
-7.25
-2.10
4.11
9.94
14.88
18.49
19.63
16.22
5.97
-11.99
-35.12
-58.36
-75.32
-79.70
-68.22
-42.08
-6.60
30.29
57.53
72.11
78.31
78.98
76.84
72.59
65.10
52.95
35.96
16.28
-1.53
-13.20
-16.68
-12.16
-2.38
8.71
17.27
20.32
16.33
4.68
-13.10
-32.36
-46.76
-52.67
-50.95
-45.33
-39.68
-36.51
-34.08
-29.94
-22.90
-13.50
-3.89
3.60
7.85
8.96
8.07
6.87
6.55
7.40
8.97
10.44
11.17
11.06
10.34
9.62
9.77
11.49
14.93
19.49
23.88
26.70
26.96
24.24
19.04
12.62
6.30
0.84
-3.89
-8.59
-13.85
-19.73
-26.01
-32.12
-37.39
-41.33
-43.79
-44.83
-44.40
-42.17
-36.07
-25.80
-13.45
-2.49
4.50
6.97
6.09
3.72
1.61
0.84
1.45
3.14
5.82
9.66
14.50
19.58
23.80
26.35
27.19
26.82
26.29
26.69
28.73
32.06
35.37
37.25
37.24
36.00
34.54
33.69
33.14
32.61
31.75
30.21
27.34
23.14
18.57
14.79
12.89
14.12
19.94
30.82
45.00
58.31
65.41
61.47
43.59
12.02
-29.83
-74.15
-110.32
-130.34
-133.45
-125.07
-111.79
-97.66
-83.76
-69.75
-55.35
-41.47
-30.03
-22.73
-19.72
-19.47
-19.69
-18.57
-15.29
-10.04
-3.96
1.18
3.96
4.13
2.66
1.05
0.47
1.45
3.84
6.90
9.53
10.82
10.58
9.37
8.03
7.26
7.32
8.16
9.40
10.51
11.04
10.90
10.33
9.72
9.35
9.35
9.72
10.29
10.89
11.36
11.65
11.81
11.96
12.16
12.46
12.88
13.36
13.93
14.58
15.29
16.08
16.94
17.88
18.89
19.97
20.98
21.99
22.95
23.78
24.38
24.64
24.46
23.73
22.41
20.30
17.54
14.18
10.33
6.16
1.84
-2.44
-6.50
-9.79
-12.51
-14.60
-16.04
-16.87
-17.15
-16.97
-16.42
-15.80
-15.02
-14.20
-13.34
-12.47
-11.62
-10.78
-9.96
-9.21
-8.54
-7.93
-7.47
-7.06
-6.66
-6.23
-5.74
-5.20
-4.67
-4.22
-3.85
-3.63
-3.49
-3.34
-3.14
-2.84
-2.48
-2.16
-1.98
-2.01
-2.29
-2.69
-3.04
-3.17
-3.02
-2.69
-2.43
-2.54
-3.20
-4.45
-5.99
-7.41
-8.28
-8.46
-8.14
-7.87
-8.31
-9.90
-12.61
-15.94
-19.00
-21.01
-21.65
-21.27
-20.83
-21.46
-23.92
-28.20
-33.49
-38.42
-41.95
-43.54
-43.64
-43.29
-43.68
-45.77
-50.20
-57.34
-66.95
-77.68
-86.54
-89.37
-82.33
-63.82
-35.97
-4.32
24.17
44.02
53.24
53.57
48.88
42.82
37.25
32.06
26.35
19.72
12.90
7.18
3.44
1.50
0.16
-2.05
-6.29
-12.67
-20.34
-27.79
-33.76
-37.59
-39.41
-39.89
-39.82
-39.58
-38.93
-37.12
-33.03
-25.90
-15.61
-2.74
11.62
26.21
39.92
52.07
61.65
69.07
74.59
78.39
80.52
81.01
79.90
77.37
74.18
70.37
66.43
62.64
59.17
56.03
53.19
50.56
48.07
45.68
43.24
40.87
38.49
36.00
33.26
30.17
26.62
22.55
18.27
13.47
8.31
2.95
-2.44
-7.67
-12.54
-16.91
-20.66
-23.76
-26.30
-28.24
-29.64
-30.63
-31.31
-31.80
-32.19
-32.54
-32.90
-33.37
-33.86
-34.32
-34.73
-35.12
-35.51
-35.96
-36.53
-37.30
-38.42
-39.73
-41.20
-42.81
-44.59
-46.57
-48.80
-51.33
-54.22
-57.61
-61.18
-64.75
-68.23
-71.58
-74.85
-78.09
-81.41
-84.96
-89.01
-93.12
-97.11
-100.92
-104.62
-108.28
-112.03
-115.92
-119.98
-124.28
-127.94
-130.38
-131.26
-130.36
-127.49
-122.21
-113.50
-99.29
-83.24
-66.17
-48.67
-31.41
-15.23
-1.03
10.56
19.43
26.06
31.40
37.51
45.89
57.30
71.64
88.20
105.93
123.91
141.60
158.88
176.84
196.77
219.93
247.16
278.07
310.49
340.38
362.68
372.66
368.04
349.20
319.09
281.92
241.70
201.01
160.91
121.61
83.02
45.48
9.50
-24.57
-56.46
-85.79
-112.00
-134.41
-152.43
-165.79
-174.15
-177.10
-174.13
-164.59
-148.17
-125.21
-96.72
-64.41
-30.26
3.51
34.56
60.51
79.30
89.64
91.31
85.28
73.44
58.24
42.48
28.87
19.77
16.73
19.90
27.86
38.18
48.14
55.64
59.83
61.03
60.35
59.08
58.13
57.63
57.18
55.91
52.95
47.84
40.57
31.65
21.77
11.59
1.48
-8.33
-17.62
-25.96
-32.81
-37.69
-40.53
-41.82
-42.48
-43.37
-44.86
-46.55
-47.52
-46.84
-44.15
-39.86
-35.00
-30.66
-27.52
-25.54
-24.16
-22.61
-20.31
-17.04
-12.75
-7.54
-1.54
5.08
12.16
19.36
26.06
31.42
34.42
34.26
30.52
23.34
13.31
1.36
-11.46
-24.28
-36.44
-47.42
-56.48
-62.98
-66.64
-67.83
-67.57
-67.14
-67.51
-68.71
-69.95
-69.29
-65.28
-58.08
-49.85
-43.76
-42.35
-46.42
-54.45
-63.48
-69.00
-67.77
-59.21
-45.19
-28.39
-10.59
7.58
26.03
44.29
63.07
82.16
100.07
114.78
125.36
132.85
139.68
148.39
160.65
179.21
205.25
237.12
270.91
302.44
329.13
350.52
367.45
362.78
325.45
256.45
169.09
80.27
1.75
-61.72
-109.84
-144.80
-169.60
-187.97
-202.93
-218.35
-238.93
-268.65
-308.78
-357.21
-409.72
-454.20
-478.23
-472.52
-434.65
-370.16
-290.40
-208.39
-135.05
-76.90
-35.16
-6.39
15.11
34.27
53.41
72.38
89.75
104.01
114.36
121.21
125.74
129.35
132.57
134.86
135.14
132.74
127.76
120.86
113.12
105.25
97.77
90.94
84.92
79.99
76.71
75.48
75.96
76.57
74.26
65.67
48.60
23.30
-6.94
-36.59
-59.92
-73.13
-75.64
-70.12
-60.93
-52.28
-46.97
-46.00
-49.10
-55.24
-63.07
-70.81
-76.37
-77.75
-73.69
-64.28
-50.92
-35.79
-20.94
-7.49
4.47
15.56
26.46
37.48
48.43
58.73
67.62
74.42
78.72
80.47
80.06
78.16
75.46
72.34
68.71
64.17
58.42
51.54
43.97
36.09
27.82
18.48
7.22
-6.17
-20.62
-33.72
-42.64
-45.35
-41.76
-33.90
-25.17
-18.78
-16.51
-18.14
-21.96
-25.99
-29.10
-31.48
-34.28
-38.71
-45.12
-52.74
-60.04
-65.57
-68.61
-69.43
-68.90
-68.05
-67.50
-67.37
-67.38
-67.08
-66.09
-64.22
-61.59
-58.57
-55.81
-53.94
-53.35
-54.08
-55.81
-58.18
-61.06
-64.75
-69.73
-76.30
-84.21
-92.46
-99.54
-103.75
-103.64
-98.30
-87.55
-71.98
-52.81
-31.65
-10.09
10.62
29.68
46.57
60.78
71.61
78.37
80.72
79.08
74.71
69.35
64.64
61.53
60.08
59.67
59.37
58.43
56.52
53.73
50.49
47.30
44.60
42.53
40.93
39.35
37.31
34.50
30.96
27.04
23.22
19.95
17.42
15.60
14.36
13.58
13.23
13.33
13.79
14.31
14.43
13.61
11.55
8.27
4.20
-0.08
-4.04
-7.35
-9.94
-11.78
-12.80
-12.84
-11.77
-9.65
-6.86
-4.05
-1.90
-0.89
-1.21
-2.69
-4.96
-7.47
-9.61
-10.79
-10.63
-8.97
-6.01
-2.29
1.54
4.91
7.46
9.14
10.18
10.92
11.68
12.59
13.56
14.25
14.19
12.99
10.51
7.02
3.14
-0.37
-2.90
-4.17
-4.23
-3.36
-1.91
-0.12
1.89
4.07
6.33
8.45
10.07
10.72
9.96
7.58
3.64
-1.47
-7.13
-12.68
-17.51
-21.20
-23.49
-24.27
-23.67
-21.97
-19.62
-17.12
-14.86
-13.12
-11.98
-11.43
-11.36
-11.59
-11.82
-11.73
-11.06
-9.76
-7.98
-5.99
-4.04
-2.20
-0.35
1.66
3.88
6.22
8.46
10.45
12.15
13.72
15.38
17.30
19.46
21.60
23.18
23.59
22.37
19.47
15.29
10.62
6.28
2.83
0.34
-1.52
-3.26
-5.16
-7.06
-8.44
-8.59
-6.95
-3.35
1.88
8.05
14.25
19.58
23.30
24.96
24.46
22.01
18.10
13.28
7.96
2.34
-3.58
-9.80
-16.02
-21.60
-25.57
-26.97
-25.12
-19.97
-12.06
-2.48
7.35
15.95
21.91
24.21
22.39
16.80
8.46
-1.13
-10.52
-18.68
-25.21
-30.27
-34.20
-37.19
-39.12
-39.63
-38.36
-35.28
-30.79
-25.52
-20.04
-14.50
-8.69
-2.26
4.81
11.98
18.19
22.32
23.75
22.66
19.92
16.67
13.71
11.18
8.72
5.73
1.99
-2.11
-5.78
-8.26
-9.16
-8.61
-7.08
-5.01
-2.50
0.71
4.93
10.07
15.35
19.41
20.78
18.51
12.62
4.03
-5.74
-15.20
-23.36
-29.91
-35.02
-38.81
-41.02
-40.91
-37.77
-31.14
-21.15
-8.56
5.49
19.74
33.17
45.08
55.02
62.39
66.88
68.65
68.35
66.83
64.89
63.12
61.96
61.74
62.14
62.77
63.06
62.29
59.55
54.05
45.65
34.92
22.88
9.70
-4.58
-19.58
-34.20
-46.87
-56.25
-62.13
-66.03
-66.57
-64.46
-61.59
-59.41
-57.48
-54.05
-48.07
-40.11
-31.95
-25.00
-20.29
-17.42
-15.18
-12.36
-8.54
-4.17
0.05
3.43
6.04
7.79
8.91
10.03
11.76
14.39
17.69
21.05
23.55
24.81
24.26
21.77
17.80
13.04
8.02
2.83
-2.96
-10.95
-21.10
-33.40
-47.10
-60.68
-72.27
-80.49
-84.80
-84.16
-81.14
-77.51
-74.85
-74.30
-76.64
-82.00
-89.18
-95.21
-95.82
-87.05
-66.73
-36.70
-2.44
28.94
51.70
63.68
66.60
64.29
60.29
56.60
53.15
49.05
43.91
38.48
34.16
31.95
31.72
32.14
31.78
29.41
24.93
19.20
13.62
9.41
7.14
6.49
6.50
6.01
4.29
1.40
-1.91
-4.47
-5.28
-3.77
-0.05
5.17
10.96
16.42
21.21
25.05
28.05
30.36
32.06
32.99
32.88
31.48
28.71
24.88
20.58
16.59
13.66
12.21
12.24
13.32
14.77
15.93
16.41
16.23
15.88
15.97
17.00
19.08
21.83
24.60
26.78
28.01
28.38
28.39
28.68
29.84
32.35
36.50
42.20
48.71
54.28
56.41
52.58
41.48
23.92
2.79
-17.90
-34.62
-45.44
-50.60
-51.84
-51.23
-50.15
-48.90
-47.20
-44.86
-42.27
-39.95
-38.41
-37.79
-37.68
-37.37
-36.00
-33.03
-28.44
-22.63
-15.70
-7.48
2.17
13.37
26.01
39.75
53.94
67.80
78.28
83.12
81.62
74.92
65.12
54.28
43.92
35.06
28.19
23.38
20.58
19.40
18.98
18.06
15.23
9.37
0.04
-12.21
-25.89
-38.73
-48.67
-54.54
-56.46
-55.45
-52.83
-49.63
-46.38
-43.21
-40.01
-36.72
-33.54
-30.73
-28.44
-26.55
-24.77
-22.76
-20.42
-17.78
-15.05
-12.54
-10.48
-8.91
-7.68
-6.51
-5.17
-3.56
-1.74
0.14
1.86
3.30
4.43
5.35
6.22
7.18
8.28
9.49
10.70
11.80
12.76
13.56
14.29
15.06
15.93
16.90
17.83
18.61
19.13
19.16
18.44
16.75
13.93
9.83
4.44
-2.11
-9.76
-17.96
-26.18
-33.89
-40.56
-45.67
-48.97
-50.21
-48.80
-45.29
-39.85
-32.72
-24.21
-15.11
-5.37
4.55
14.20
23.06
30.59
36.43
40.35
42.25
42.10
40.23
37.05
33.08
28.85
24.74
21.12
18.17
15.93
14.12
12.72
11.57
10.59
9.72
8.99
8.55
8.49
8.92
9.54
10.51
11.72
12.96
13.98
14.45
14.12
12.72
10.08
5.77
0.20
-6.26
-13.15
-19.96
-26.26
-31.76
-36.37
-37.57
-37.17
-35.89
-34.03
-31.76
-29.14
-26.22
-23.14
-20.17
-17.64
-16.29
-16.03
-16.55
-17.37
-17.91
-17.77
-16.87
-15.61
-14.70
-15.15
-17.11
-20.23
-23.64
-26.27
-27.40
-27.00
-25.89
-25.40
-26.98
-30.96
-36.77
-42.87
-47.52
-49.75
-49.61
-48.41
-47.99
-49.86
-54.45
-61.41
-69.84
-78.61
-86.13
-89.85
-86.58
-73.13
-48.29
-13.85
25.89
65.11
99.23
126.43
148.19
167.28
185.12
199.11
205.42
197.81
174.90
140.27
101.74
68.23
45.74
35.29
33.28
34.27
33.96
31.10
27.03
23.97
23.09
23.57
23.04
18.92
9.89
-3.93
-20.79
-38.18
-53.96
-66.79
-76.65
-84.26
-90.76
-97.02
-102.56
-107.57
-111.98
-116.25
-120.99
-126.18
-130.14
-129.52
-120.63
-101.92
-74.59
-43.42
-14.88
5.74
16.32
18.35
15.41
10.96
6.83
3.01
-1.20
-6.11
-10.90
-14.30
-15.31
-13.83
-10.59
-6.50
-2.20
2.57
8.68
17.39
29.27
44.09
60.62
77.05
91.57
102.84
110.41
113.89
114.65
113.72
111.68
108.55
103.98
97.48
88.69
77.87
65.38
51.57
36.98
22.15
7.56
-6.39
-19.35
-30.91
-40.81
-48.57
-53.98
-57.14
-58.41
-58.32
-57.42
-56.24
-55.15
-54.29
-53.80
-53.65
-53.69
-53.69
-53.40
-52.48
-50.68
-47.77
-43.55
-38.14
-31.76
-24.71
-17.32
-10.08
-3.43
2.22
6.59
9.61
11.23
11.65
11.31
10.73
10.53
11.28
13.38
17.01
22.11
28.29
35.02
41.77
48.06
53.72
58.67
62.93
65.34
66.37
65.95
63.89
60.06
54.48
47.52
39.62
31.15
22.81
13.80
3.43
-8.67
-22.31
-36.60
-50.09
-61.14
-68.45
-71.90
-71.79
-69.17
-65.25
-60.59
-54.91
-47.55
-37.63
-24.43
-8.79
8.04
24.83
40.37
53.15
61.05
61.71
52.87
36.70
17.78
2.15
-5.27
-2.93
6.60
18.26
27.16
31.09
30.88
28.66
26.20
23.65
19.92
13.96
6.54
-1.18
-7.08
-9.73
-9.33
-7.16
-5.10
-4.33
-4.76
-5.18
-4.12
-0.48
5.73
13.15
19.82
24.14
25.58
24.97
23.98
24.16
26.29
30.14
34.72
38.87
41.48
41.30
37.09
28.02
14.45
-1.13
-14.68
-22.27
-22.41
-17.44
-12.77
-13.73
-22.65
-37.39
-52.53
-62.55
-64.72
-60.03
-51.09
-41.48
-32.50
-23.30
-12.66
-0.71
10.58
18.72
22.75
23.27
22.28
22.09
23.85
27.15
30.71
33.08
33.61
32.50
30.39
27.88
25.43
23.17
21.02
18.69
15.40
10.26
2.46
-8.21
-20.99
-34.01
-45.10
-52.85
-55.77
-54.82
-52.90
-53.61
-59.72
-71.73
-87.43
-102.87
-113.96
-118.05
-114.95
-106.52
-95.51
-84.37
-74.30
-65.19
-56.09
-46.00
-34.31
-21.25
-7.46
6.37
19.73
32.31
43.85
54.00
62.33
68.42
71.94
72.90
71.78
69.31
66.31
63.41
60.90
58.69
56.40
53.42
49.32
43.98
37.73
31.19
25.02
19.60
14.85
10.42
5.94
1.37
-2.79
-5.86
-7.28
-7.06
-5.85
-4.62
-4.19
-4.84
-6.30
-7.94
-9.22
-9.97
-10.45
-11.19
-12.66
-15.05
-18.16
-21.47
-24.22
-25.63
-25.05
-22.14
-17.05
-10.45
-3.40
2.65
6.07
5.32
-0.63
-11.91
-27.46
-45.19
-62.51
-77.01
-87.01
-91.82
-91.56
-86.91
-78.92
-68.90
-58.52
-49.48
-43.13
-39.86
-38.86
-38.28
-35.87
-29.79
-19.21
-4.49
12.98
31.32
48.78
64.28
77.60
89.23
99.80
109.52
117.77
123.23
124.58
121.36
114.41
105.66
97.18
90.24
84.93
80.24
74.70
67.14
57.19
45.43
33.11
21.72
12.51
6.30
3.01
1.60
0.39
-2.23
-7.21
-14.46
-23.01
-31.43
-38.14
-42.26
-44.02
-44.44
-44.69
-45.55
-47.21
-49.23
-50.77
-50.17
-46.21
-38.88
-29.20
-18.46
-7.35
4.13
16.36
29.51
44.13
59.49
73.09
81.53
82.35
75.40
62.98
49.07
38.16
35.54
44.43
64.46
91.73
120.52
145.16
161.15
165.73
149.29
108.96
51.74
-8.50
-60.04
-98.36
-124.63
-142.16
-153.99
-161.99
-165.29
-162.36
-152.49
-136.24
-114.96
-90.50
-65.24
-42.03
-23.33
-9.19
1.62
10.38
17.54
22.74
25.19
24.13
19.24
11.16
2.09
-5.54
-10.36
-12.41
-12.64
-12.41
-12.63
-13.50
-14.73
-15.35
-14.52
-12.30
-9.33
-6.41
-4.19
-2.95
-2.54
-2.56
-2.25
-1.00
1.02
3.37
5.56
7.13
7.81
7.44
5.82
2.71
-2.12
-9.09
-17.81
-27.06
-35.14
-40.35
-41.51
-38.37
-31.40
-19.77
-6.13
5.91
13.57
15.91
13.73
9.47
4.70
0.64
-2.12
-3.93
-5.18
-6.20
-7.38
-8.96
-10.94
-13.02
-14.33
-13.72
-10.38
-3.61
6.66
19.48
32.99
45.01
53.55
57.64
57.32
53.25
46.65
38.77
30.56
22.60
15.14
8.17
1.61
-4.68
-10.86
-16.83
-22.16
-26.18
-28.19
-27.77
-25.11
-20.96
-16.54
-13.17
-11.72
-12.25
-13.90
-15.35
-15.36
-13.39
-9.73
-5.26
-1.00
2.34
4.39
5.03
4.05
1.30
-3.07
-8.17
-12.31
-13.58
-10.68
-3.65
6.02
15.90
23.66
27.91
28.67
27.15
24.93
23.29
22.66
22.74
22.88
22.42
20.98
18.67
16.12
14.12
13.20
13.28
13.85
14.36
14.32
13.68
13.00
13.30
15.44
19.75
25.87
33.22
41.28
48.59
52.06
47.28
29.99
-1.85
-45.97
-94.99
-137.58
-162.05
-161.41
-136.24
-93.90
-44.77
1.72
39.69
65.61
75.44
68.37
47.65
18.31
-14.08
-43.56
-64.81
-75.30
-76.32
-71.57
-64.64
-57.59
-50.54
-42.69
-33.54
-23.60
-13.80
-4.48
5.19
16.91
30.86
45.17
57.05
64.39
67.07
66.84
64.66
62.89
62.23
61.37
58.93
55.03
51.11
49.04
49.58
51.65
53.13
51.62
45.93
35.75
22.49
8.35
-4.68
-15.59
-24.48
-32.06
-38.30
-44.05
-49.41
-53.56
-55.61
-55.24
-53.21
-51.04
-50.10
-51.10
-54.27
-59.23
-65.30
-71.63
-76.67
-77.98
-72.57
-59.27
-37.81
-11.48
14.27
34.54
47.09
53.33
57.16
61.33
66.15
67.53
59.11
37.05
3.20
-34.85
-66.60
-83.31
-81.23
-63.21
-34.78
-2.84
27.48
54.05
76.98
96.40
110.85
117.11
111.84
93.74
64.77
30.47
-2.12
-27.23
-42.49
-49.05
-49.95
-47.35
-41.12
-29.88
-12.43
7.45
21.80
21.83
3.62
-28.26
-61.59
-81.95
-80.60
-57.25
-20.20
17.77
45.30
57.80
57.81
51.86
45.75
41.56
37.63
30.23
16.35
-5.42
-33.78
-65.37
-95.64
-119.72
-133.58
-135.23
-125.78
-105.49
-78.93
-51.48
-26.77
-5.59
12.58
27.38
36.43
36.40
25.84
6.99
-13.40
-27.19
-29.26
-20.43
-6.62
4.88
9.53
7.37
1.26
-5.40
-11.12
-16.80
-24.77
-36.31
-50.17
-63.15
-71.94
-75.54
-74.60
-69.90
-60.80
-46.07
-24.38
4.61
39.18
75.54
108.01
132.18
147.12
155.96
161.97
167.53
174.01
181.89
191.22
200.62
209.15
217.25
226.71
235.36
238.33
230.40
207.97
169.67
114.19
41.58
-45.23
-139.05
-233.56
-321.58
-393.93
-441.02
-444.95
-397.64
-311.13
-219.99
-137.25
-66.10
-7.88
35.28
62.99
76.84
78.59
71.48
60.93
54.12
53.48
57.17
61.86
65.01
65.64
62.79
56.60
49.38
45.97
49.09
57.91
69.09
78.55
83.22
81.83
76.67
73.68
80.31
100.53
131.02
162.65
184.71
189.38
174.20
142.40
100.96
50.51
-2.88
-51.77
-91.15
-120.18
-140.71
-155.00
-164.67
-170.44
-172.33
-168.42
-157.67
-140.43
-118.10
-92.79
-67.22
-44.70
-28.87
-23.06
-27.54
-40.30
-56.44
-69.16
-72.19
-62.30
-41.10
-14.43
10.31
28.84
40.59
47.24
53.50
62.37
73.32
82.58
87.00
83.20
70.97
51.44
26.48
-1.49
-30.01
-56.32
-77.24
-89.69
-91.82
-82.65
-63.60
-37.53
-7.63
22.74
50.30
72.14
86.03
88.01
76.92
53.57
21.46
-13.78
-46.25
-71.23
-85.96
-89.93
-84.71
-69.71
-48.26
-26.54
-9.87
0.04
4.72
7.06
9.89
13.49
17.23
19.48
19.14
16.23
11.66
5.50
-1.50
-8.47
-14.86
-20.24
-24.85
-28.65
-30.99
-30.80
-27.26
-20.00
-9.44
3.31
17.01
30.14
41.50
50.42
56.78
60.88
63.40
64.93
65.60
64.81
61.12
53.15
40.49
24.19
6.75
-8.86
-20.05
-25.14
-23.83
-17.39
-8.22
0.83
7.45
10.08
8.24
2.77
-4.41
-10.86
-14.80
-15.89
-15.23
-14.21
-14.16
-16.08
-20.25
-26.04
-32.14
-37.04
-39.41
-38.17
-31.70
-18.83
0.36
24.29
49.96
73.06
88.87
93.52
81.82
54.76
20.82
-8.56
-26.14
-31.68
-29.48
-24.64
-20.46
-18.17
-17.97
-20.77
-28.01
-39.29
-50.58
-55.16
-47.47
-26.99
0.74
26.99
43.60
46.37
35.95
16.82
-5.07
-24.52
-37.92
-43.22
-39.85
-29.54
-16.82
-7.57
-6.53
-14.55
-28.06
-40.92
-47.32
-44.07
-31.57
-13.51
5.16
20.25
29.37
31.96
28.53
20.42
10.14
1.55
-1.11
4.70
17.70
32.70
42.59
41.74
29.27
10.11
-7.25
-15.01
-8.86
9.14
31.59
50.74
62.08
64.39
59.03
48.44
34.57
18.33
-0.13
-20.61
-40.95
-59.02
-73.33
-82.06
-83.12
-75.41
-59.52
-37.89
-14.00
8.55
26.25
36.42
38.27
32.86
22.38
9.34
-5.46
-21.03
-35.65
-47.00
-52.32
-48.61
-34.49
-11.53
15.50
40.17
55.70
59.45
54.06
42.95
30.18
19.04
11.50
8.36
9.67
15.09
23.88
33.86
42.06
46.33
44.55
36.49
23.53
8.28
-6.26
-17.30
-23.81
-26.24
-25.67
-23.79
-22.53
-23.77
-28.43
-35.98
-44.52
-52.66
-59.57
-64.87
-68.85
-72.57
-77.59
-84.93
-94.34
-98.47
-91.40
-72.40
-45.76
-16.80
10.55
33.97
52.56
66.53
76.68
82.99
85.30
84.25
81.55
79.44
79.68
82.60
86.57
88.33
83.69
70.18
48.92
24.35
2.22
-13.01
-19.90
-20.10
-17.04
-14.38
-14.20
-16.62
-20.58
-25.12
-29.83
-34.46
-38.29
-40.11
-39.09
-35.28
-29.75
-24.13
-19.57
-16.06
-12.58
-7.83
-1.42
5.62
11.43
14.71
15.57
15.86
18.00
23.64
32.16
40.68
44.88
41.05
27.57
5.72
-20.42
-44.25
-59.11
-60.55
-48.06
-25.37
0.88
23.70
38.26
43.25
40.29
32.17
21.02
7.80
-7.21
-23.25
-38.50
-50.58
-57.70
-59.68
-57.69
-53.01
-45.72
-34.54
-18.31
2.51
24.89
44.05
55.21
55.96
47.13
32.16
15.56
0.96
-9.85
-16.92
-21.13
-23.23
-23.36
-21.33
-17.26
-11.80
-6.13
-1.56
1.00
1.28
-0.32
-2.88
-5.40
-7.14
-7.87
-7.94
-8.08
-8.97
-10.67
-12.47
-13.00
-10.68
-4.54
5.43
18.10
31.72
44.17
53.31
57.24
54.80
46.10
32.83
18.18
5.93
-0.83
-1.10
3.59
9.91
14.39
14.90
11.59
6.55
2.55
1.58
3.64
6.85
8.42
6.10
-0.79
-11.02
-22.11
-31.56
-37.56
-39.04
-35.42
-26.80
-14.52
-1.67
7.19
7.18
-4.57
-26.62
-53.00
-74.80
-83.55
-74.47
-48.34
-11.35
26.98
57.26
73.44
73.52
60.33
40.37
20.95
7.32
0.83
-0.79
-1.19
-3.09
-7.11
-11.73
-14.71
-14.64
-11.93
-8.23
-5.04
-2.90
-1.19
0.98
4.26
8.85
14.50
20.23
24.57
26.02
23.91
18.23
10.04
1.31
-5.21
-7.00
-3.25
4.73
14.34
23.18
28.99
30.64
27.97
22.82
18.38
17.33
20.90
29.33
43.09
61.50
82.78
102.76
117.53
123.81
119.28
102.33
70.15
27.16
-17.38
-55.20
-85.93
-116.84
-152.07
-190.32
-227.64
-259.45
-274.70
-267.14
-227.42
-159.84
-77.80
3.75
75.67
135.28
184.37
221.58
242.39
243.49
219.24
173.48
113.35
53.64
7.37
-20.47
-33.06
-37.82
-40.50
-44.47
-48.76
-50.89
-48.44
-42.08
-34.39
-27.86
-23.79
-21.74
-21.28
-20.91
-19.53
-16.03
-11.40
-7.71
-6.62
-8.56
-12.65
-17.94
-23.25
-29.11
-34.72
-40.60
-47.57
-55.80
-64.90
-74.39
-84.43
-92.79
-99.21
-100.86
-93.96
-75.51
-45.27
-6.56
34.87
73.39
105.53
129.89
146.37
154.46
151.29
134.51
104.85
67.46
30.70
2.78
-11.57
-13.08
-7.77
-2.55
-2.05
-7.00
-15.02
-22.85
-28.58
-32.31
-35.46
-40.69
-48.74
-59.61
-72.56
-86.97
-102.23
-117.20
-129.53
-133.83
-126.95
-107.05
-75.87
-38.87
-3.48
23.86
40.04
46.03
45.41
41.85
37.94
34.31
30.76
27.33
24.97
24.92
27.98
33.73
40.56
47.18
51.80
53.85
53.67
52.20
50.11
47.74
44.81
40.60
34.56
26.57
17.29
7.42
-1.07
-6.99
-9.81
-9.71
-7.46
-4.01
-0.15
3.80
7.85
12.72
18.06
23.41
28.07
31.29
32.32
30.85
27.16
22.01
16.41
11.14
6.82
3.06
0.32
-1.45
-2.37
-2.45
-1.57
0.41
3.30
6.77
10.25
13.22
15.23
16.18
16.39
16.48
17.00
18.35
20.74
24.22
28.51
32.74
35.51
35.21
30.59
21.49
9.07
-4.44
-16.66
-25.92
-31.86
-35.15
-36.85
-37.65
-37.64
-36.58
-34.38
-31.35
-28.09
-25.13
-22.50
-19.78
-16.31
-11.73
-6.09
0.09
6.05
11.02
14.14
14.72
12.18
6.37
-1.90
-10.81
-18.03
-21.73
-21.44
-18.14
-13.72
-9.91
-7.40
-5.75
-4.00
-1.59
1.13
3.19
3.78
2.88
1.40
0.64
1.57
4.28
7.94
11.26
13.11
12.87
10.63
7.07
3.08
-0.56
-3.40
-5.44
-6.99
-8.49
-10.20
-12.05
-13.59
-14.18
-13.24
-10.54
-6.29
-1.02
4.55
9.62
13.47
15.42
14.96
12.07
7.32
1.89
-2.55
-4.75
-4.43
-2.31
0.26
1.94
2.11
0.91
-1.04
-3.02
-4.68
-5.98
-7.02
-7.79
-8.13
-7.76
-6.58
-4.76
-2.72
-1.06
-0.23
-0.40
-1.35
-2.58
-3.51
-3.66
-2.86
-1.28
0.65
2.39
3.48
3.73
3.20
2.18
1.02
-0.02
-0.83
-1.47
-2.05
-2.66
-3.26
-3.70
-3.83
-3.55
-2.90
-2.05
-1.22
-0.61
-0.34
-0.39
-0.69
-1.04
-1.28
-1.26
-0.96
-0.49
-0.00
0.32
0.40
0.23
-0.06
-0.26
-0.18
0.33
1.27
2.55
3.97
5.27
6.21
6.55
6.23
5.34
4.15
3.01
2.23
2.00
2.27
2.85
3.49
4.04
4.44
4.71
4.87
4.89
4.70
4.34
3.88
3.50
3.30
3.23
3.10
2.67
1.78
0.43
-1.21
-2.87
-4.30
-5.30
-5.75
-5.58
-4.84
-3.73
-2.65
-2.03
-2.20
-3.20
-4.76
-6.40
-7.63
-8.17
-8.00
-7.28
-6.26
-5.11
-3.88
-2.52
-0.98
0.71
2.45
4.05
5.30
6.03
6.15
5.66
4.62
3.11
1.22
-0.90
-3.04
-4.91
-6.22
-6.77
-6.53
-5.70
-4.59
-3.53
-2.77
-2.36
-2.22
-2.15
-1.96
-1.50
-0.75
0.26
1.41
2.61
3.77
4.86
5.83
6.62
7.15
7.30
7.07
6.54
5.95
5.54
5.49
5.77
6.14
6.25
5.76
4.54
2.71
0.63
-1.22
-2.42
-2.74
-2.21
-1.13
0.09
1.02
1.41
1.28
0.88
0.54
0.47
0.65
0.84
0.66
0.02
-0.93
-1.79
-2.03
-1.30
0.46
3.04
6.18
9.62
12.87
15.17
15.50
13.05
7.70
0.32
-7.49
-14.08
-18.53
-20.92
-22.00
-22.54
-22.73
-22.09
-20.01
-16.30
-11.60
-7.14
-3.92
-2.16
-1.29
-0.42
0.98
2.82
4.29
4.33
2.20
-1.76
-6.10
-8.97
-9.01
-5.99
-0.91
4.39
7.94
8.47
6.17
2.64
-0.13
-0.70
1.55
6.57
13.80
21.88
28.54
31.13
27.68
17.90
3.79
-10.39
-19.44
-18.98
-7.83
9.25
23.56
28.27
22.21
8.98
-6.11
-18.83
-27.02
-30.34
-29.40
-24.87
-17.47
-8.40
0.63
8.13
13.19
15.69
15.72
13.18
8.40
2.22
-3.82
-8.10
-9.47
-7.86
-4.20
-0.01
3.18
4.63
4.73
4.54
5.02
6.67
9.28
12.22
14.73
16.26
16.85
17.02
17.44
18.14
18.74
18.57
17.11
14.36
10.86
7.46
4.84
3.26
2.41
1.80
0.98
-0.26
-1.99
-4.31
-7.46
-11.67
-16.95
-22.87
-28.53
-32.84
-34.81
-33.90
-30.19
-24.36
-17.59
-11.26
-6.62
-4.39
-4.66
-6.87
-10.01
-13.06
-15.25
-16.25
-16.14
-15.18
-13.63
-11.62
-9.24
-6.57
-3.77
-1.08
1.32
3.38
5.15
6.71
8.08
9.15
9.72
9.57
8.64
7.05
5.09
3.17
1.68
0.90
0.96
1.71
2.72
3.37
3.10
1.69
-0.61
-3.07
-4.81
-5.17
-4.00
-1.71
1.01
3.56
5.67
7.49
9.33
11.37
13.52
15.46
16.79
17.32
17.05
16.12
14.66
12.61
9.83
6.23
1.96
-2.42
-6.13
-8.37
-8.60
-6.77
-3.36
0.76
4.61
7.34
8.47
7.97
6.13
3.48
0.58
-2.12
-4.32
-5.89
-6.81
-7.15
-7.07
-6.74
-6.32
-5.93
-5.60
-5.26
-4.81
-4.17
-3.33
-2.37
-1.43
-0.69
-0.29
-0.31
-0.68
-1.25
-1.85
-2.30
-2.49
-2.36
-1.95
-1.36
-0.77
-0.32
-0.14
-0.32
-0.91
-1.88
-3.13
-4.48
-5.73
-6.69
-7.18
-7.08
-6.44
-5.41
-4.20
-2.95
-1.84
-0.99
-0.52
-0.41
-0.58
-1.13
-2.23
-3.99
-6.33
-9.04
-11.74
-14.02
-15.19
-14.81
-13.06
-10.72
-8.65
-7.38
-6.94
-6.91
-6.59
-4.85
-1.09
4.11
9.27
12.92
14.37
13.95
12.77
12.23
14.21
19.84
28.80
39.55
50.26
59.53
66.33
69.78
65.12
50.09
27.90
6.00
-9.28
-15.67
-14.65
-10.05
-6.25
-6.35
-10.45
-16.42
-21.71
-24.84
-25.77
-25.38
-24.76
-24.35
-23.62
-21.07
-15.73
-8.29
-0.91
3.93
4.73
1.58
-3.97
-9.57
-12.85
-12.57
-9.37
-5.37
-3.04
-3.71
-6.86
-10.31
-11.36
-8.00
-0.10
10.44
20.68
28.13
31.80
32.31
31.13
29.51
27.88
25.97
23.37
20.25
17.47
16.15
16.94
19.48
22.39
24.03
22.86
18.48
11.73
4.14
-2.93
-8.82
-13.71
-18.13
-22.45
-26.52
-29.78
-31.63
-31.84
-30.59
-28.27
-25.24
-21.67
-17.68
-13.45
-9.30
-5.58
-2.53
-0.20
1.62
3.18
4.62
5.74
6.12
5.21
2.68
-1.46
-6.69
-12.09
-16.58
-19.24
-19.63
-17.99
-15.19
-12.55
-11.50
-13.19
-18.14
-25.90
-35.09
-43.58
-49.26
-50.69
-47.66
-41.35
-33.70
-26.68
-21.41
-17.88
-15.07
-11.68
-6.78
-0.15
7.66
15.78
23.36
29.87
34.96
38.34
39.68
38.73
35.64
31.17
26.60
23.23
21.70
21.58
21.52
19.90
15.76
9.31
1.92
-4.57
-8.73
-10.20
-9.68
-8.45
-7.75
-8.28
-10.05
-12.57
-15.09
-17.04
-18.11
-18.23
-17.45
-15.82
-13.36
-10.11
-6.06
-1.28
3.94
9.24
14.25
18.79
22.93
26.92
31.14
36.11
42.23
49.45
57.17
64.28
69.55
71.95
70.88
66.25
58.56
48.55
36.87
24.05
10.86
-1.48
-11.47
-17.96
-20.67
-19.99
-16.77
-12.01
-6.40
-0.00
7.27
14.86
21.70
24.15
18.64
5.10
-12.94
-30.78
-44.77
-53.38
-57.20
-57.86
-56.96
-55.00
-51.62
-46.61
-40.61
-34.93
-30.96
-29.49
-30.13
-31.61
-32.21
-30.62
-26.73
-21.66
-17.02
-14.19
-13.89
-15.99
-19.76
-23.74
-25.77
-23.54
-15.24
-0.59
18.57
38.42
54.73
64.47
67.29
65.30
61.50
58.17
55.57
51.99
45.02
33.58
18.77
3.53
-8.47
-14.89
-15.54
-12.37
-7.63
-4.60
-4.47
-6.56
-9.23
-10.71
-10.37
-8.84
-7.63
-8.37
-12.08
-18.59
-26.74
-35.56
-43.13
-48.79
-52.68
-55.69
-58.93
-63.13
-68.34
-73.42
-79.20
-85.62
-91.87
-95.73
-93.75
-82.64
-61.17
-31.50
1.06
29.87
50.15
60.38
62.56
60.46
57.38
54.72
52.13
48.68
44.10
39.53
36.51
36.00
37.67
40.07
41.38
40.19
36.42
31.14
26.31
23.58
23.77
26.41
29.98
32.61
32.99
30.79
26.97
23.36
21.68
22.87
26.64
31.57
35.77
37.86
37.38
35.11
32.54
31.12
31.86
35.32
41.62
50.35
60.05
67.91
70.15
63.42
46.61
21.87
-5.53
-29.24
-44.49
-49.95
-47.82
-42.12
-36.17
-31.91
-29.02
-26.30
-23.14
-20.06
-18.15
-18.18
-20.04
-22.47
-24.08
-23.73
-21.20
-17.19
-12.85
-9.22
-6.87
-5.86
-5.68
-5.79
-5.85
-5.73
-5.73
-6.41
-8.18
-11.30
-15.76
-21.26
-27.26
-33.03
-37.77
-40.41
-41.11
-40.08
-38.03
-36.05
-35.16
-36.00
-38.41
-41.57
-44.34
-46.01
-46.32
-45.56
-44.70
-44.71
-46.35
-50.07
-56.14
-64.35
-73.42
-80.45
-81.45
-72.88
-53.43
-25.36
5.91
33.79
53.22
62.61
63.88
60.85
56.86
53.49
50.48
46.94
42.57
38.09
34.69
33.18
33.30
33.86
33.61
31.60
27.98
23.66
19.85
17.44
16.59
16.80
17.11
16.76
15.42
13.36
11.27
9.82
9.26
9.45
9.90
10.10
9.85
9.34
9.05
9.50
11.05
13.61
16.96
20.80
24.69
28.70
33.02
37.80
43.26
50.04
58.29
67.42
75.90
81.02
79.67
69.37
49.77
23.35
-4.79
-29.01
-45.65
-54.33
-58.16
-61.53
-68.17
-79.34
-94.17
-110.64
-127.08
-142.20
-154.17
-159.92
-155.17
-137.03
-104.97
-64.63
-24.18
8.97
30.95
43.08
49.05
53.56
59.21
66.20
73.00
78.33
81.87
84.23
86.37
87.56
88.62
89.42
89.36
87.93
84.93
80.20
73.37
64.00
51.84
37.50
22.02
6.95
-6.11
-15.93
-22.08
-24.88
-25.34
-24.57
-23.28
-22.19
-21.82
-22.46
-24.06
-26.20
-28.24
-29.44
-29.30
-27.63
-24.88
-21.85
-19.36
-17.96
-17.71
-18.28
-19.13
-19.66
-19.40
-18.24
-16.43
-14.36
-12.33
-10.46
-8.74
-7.24
-6.10
-5.31
-4.73
-4.11
-3.09
-1.33
1.41
4.88
8.30
10.92
12.42
13.06
13.15
13.02
12.99
13.48
14.50
15.56
15.68
14.58
12.48
9.41
5.70
2.22
0.70
2.60
8.46
17.70
28.78
39.49
46.60
47.80
41.29
29.24
16.88
8.89
6.30
6.44
5.73
0.65
-10.52
-27.65
-47.93
-68.70
-88.58
-107.39
-124.79
-133.30
-126.94
-104.34
-69.68
-29.84
7.50
35.59
50.37
51.69
42.82
27.41
9.24
-8.07
-20.59
-24.50
-16.72
4.17
36.51
74.70
108.72
129.32
129.66
108.59
71.03
26.20
-15.75
-47.18
-63.88
-67.87
-65.11
-61.84
-61.70
-65.28
-70.95
-75.99
-77.48
-72.68
-60.39
-40.83
-16.20
9.69
32.14
46.83
51.37
46.17
35.11
22.48
13.26
11.26
17.67
30.36
44.64
55.23
57.53
51.11
38.34
23.14
8.92
-2.32
-10.03
-14.51
-15.98
-14.56
-10.59
-5.37
-0.66
1.99
1.82
-0.75
-4.44
-7.65
-9.16
-8.43
-5.91
-2.63
0.38
2.43
3.32
3.14
2.17
0.61
-1.45
-4.00
-6.95
-9.70
-11.14
-10.31
-6.97
-1.82
3.71
7.82
8.69
5.24
-2.11
-11.49
-20.65
-27.80
-31.94
-32.58
-29.49
-21.93
-11.07
0.26
9.38
15.22
18.51
20.61
22.30
23.06
22.14
18.16
11.43
4.26
-0.16
0.53
6.55
15.89
25.54
32.22
34.00
31.18
25.70
19.77
14.82
11.29
8.98
7.63
7.06
6.98
7.14
7.20
6.61
5.08
3.01
1.53
2.02
5.40
11.73
20.20
29.37
37.08
41.13
40.07
33.54
22.19
7.44
-8.84
-24.65
-38.58
-50.97
-63.25
-76.23
-88.70
-97.07
-96.14
-80.99
-49.46
-3.91
47.43
93.16
122.98
130.98
116.66
84.09
39.81
-10.14
-55.68
-88.69
-107.05
-113.83
-113.20
-108.02
-100.31
-92.31
-86.72
-85.35
-88.99
-95.05
-97.22
-87.90
-62.47
-22.50
24.35
67.61
99.69
116.97
120.58
115.68
108.52
103.24
100.57
98.73
93.45
84.35
71.65
56.40
40.00
23.72
8.74
-3.84
-12.91
-16.41
-12.52
-1.89
12.40
25.46
32.42
30.30
19.32
2.51
-14.26
-26.19
-32.45
-35.31
-38.54
-44.84
-54.58
-66.11
-77.08
-85.86
-91.72
-94.10
-90.98
-79.62
-58.38
-29.73
-1.20
17.62
20.11
6.83
-13.67
-28.76
-29.25
-13.11
13.63
40.60
58.98
65.85
64.34
59.49
57.36
59.98
65.70
71.14
72.98
69.36
59.91
45.28
27.24
8.77
-7.06
-17.78
-22.59
-22.75
-20.73
-18.44
-16.82
-15.82
-14.92
-14.28
-14.51
-16.22
-19.34
-22.54
-23.78
-21.58
-15.89
-8.06
-0.95
3.08
3.44
1.77
1.24
5.05
14.61
28.29
41.60
48.96
46.74
35.59
19.27
3.64
-6.54
-10.06
-9.72
-10.32
-15.78
-26.67
-40.65
-54.33
-65.19
-72.28
-75.35
-73.62
-65.31
-48.97
-25.14
2.38
27.37
43.92
49.04
43.67
32.03
20.31
13.06
12.65
18.54
27.90
36.92
42.80
44.24
41.77
36.72
30.01
21.31
9.03
-8.77
-33.07
-62.03
-91.12
-114.00
-124.42
-118.54
-96.55
-62.98
-24.39
9.84
34.20
48.08
54.62
58.25
62.03
66.48
70.20
71.61
70.11
66.53
61.74
55.79
48.31
39.63
31.39
25.60
23.32
23.13
21.75
15.75
2.97
-15.84
-37.49
-57.96
-74.06
-84.13
-87.79
-84.89
-75.26
-59.34
-38.54
-15.37
6.96
25.47
38.02
43.61
41.96
34.60
24.09
13.58
5.72
1.60
0.14
-1.15
-4.22
-9.02
-13.04
-12.93
-6.76
4.40
16.43
24.27
24.56
17.51
6.65
-3.10
-7.99
-7.09
-2.03
4.42
10.08
14.21
17.23
19.73
21.22
20.51
15.76
5.74
-8.97
-25.47
-39.33
-46.36
-44.49
-34.68
-20.53
-6.75
2.97
7.33
7.45
5.73
4.34
4.18
4.71
4.86
3.86
1.84
-0.29
-1.41
-0.92
0.98
3.48
5.48
6.27
5.78
4.60
3.66
3.64
4.70
6.40
8.06
8.99
8.91
8.02
6.88
6.12
6.08
6.59
7.15
7.18
6.03
3.64
0.26
-3.36
-6.25
-7.76
-7.87
-7.10
-6.13
-6.06
-7.79
-11.39
-15.80
-19.34
-20.67
-19.49
-16.40
-12.56
-10.15
-11.38
-17.17
-26.45
-36.63
-44.78
-48.61
-46.30
-36.61
-20.45
-0.19
21.22
40.71
55.01
60.51
54.09
33.04
0.78
-34.84
-66.77
-92.78
-113.54
-128.66
-134.95
-127.79
-106.42
-69.73
-22.78
25.20
65.51
93.90
111.55
123.45
127.41
125.90
123.04
120.57
117.44
111.38
100.61
84.51
63.70
39.89
16.87
-1.76
-14.51
-21.79
-24.90
-25.21
-23.64
-20.92
-17.98
-15.18
-13.26
-13.38
-16.01
-20.21
-23.97
-25.27
-23.12
-18.20
-11.83
-6.04
-2.86
-3.41
-7.26
-12.94
-18.68
-22.98
-24.91
-24.25
-21.81
-19.24
-18.51
-20.29
-24.15
-28.28
-29.91
-26.33
-16.49
-2.16
12.47
22.35
24.18
17.64
5.56
-7.67
-17.88
-22.91
-22.87
-18.45
-11.50
-3.03
7.09
19.78
35.43
53.41
71.60
86.80
95.67
95.62
86.18
68.83
47.76
25.38
3.90
-15.53
-32.63
-47.56
-60.38
-69.53
-74.72
-76.82
-78.19
-81.18
-86.64
-92.52
-94.09
-85.99
-65.06
-32.88
4.41
38.01
60.36
67.98
62.39
48.72
33.21
21.28
15.15
15.33
20.69
29.17
38.02
44.35
45.64
40.82
30.73
17.44
3.92
-7.35
-14.81
-18.10
-17.89
-15.65
-12.84
-10.61
-9.50
-9.11
-8.60
-6.97
-3.85
0.13
3.33
4.26
1.94
-3.64
-11.44
-19.67
-26.02
-27.37
-19.68
-0.86
27.35
58.31
83.24
95.51
93.44
80.57
63.03
47.47
34.41
21.98
7.49
-10.87
-32.90
-56.73
-78.15
-93.75
-103.31
-109.85
-115.89
-120.96
-120.94
-110.40
-86.32
-50.67
-10.72
24.10
46.23
53.68
49.59
40.00
30.69
25.75
25.97
30.48
37.75
46.12
54.10
59.76
60.97
56.16
43.82
26.53
8.19
-7.52
-18.93
-24.92
-25.26
-20.67
-12.76
-3.59
4.82
10.54
12.49
11.01
7.79
4.84
3.43
3.83
5.45
7.13
7.37
4.91
-0.63
-8.76
-18.34
-27.76
-35.11
-36.95
-30.09
-14.34
6.25
25.66
38.97
44.62
45.68
45.42
46.02
47.32
46.75
40.51
25.83
1.27
-31.55
-67.36
-99.91
-124.18
-137.35
-137.83
-124.62
-97.17
-57.56
-11.60
31.94
63.93
78.59
75.51
60.83
40.64
21.09
6.68
-0.42
-0.29
5.17
13.23
21.16
26.81
28.75
26.82
21.57
13.97
4.76
-4.79
-13.28
-19.61
-23.16
-23.89
-22.17
-19.01
-15.74
-13.40
-12.18
-11.21
-9.38
-5.89
-0.63
5.58
11.04
13.77
12.14
5.57
-5.00
-17.54
-29.13
-35.97
-35.04
-25.59
-9.84
7.34
19.17
22.79
19.75
12.59
5.49
1.97
3.44
9.08
16.76
24.47
31.25
36.62
40.35
43.26
46.33
50.36
55.68
62.02
68.83
75.29
79.82
76.89
62.69
37.04
4.09
-29.82
-59.03
-79.44
-88.94
-87.95
-79.26
-66.39
-53.00
-42.16
-34.06
-27.92
-22.21
-15.34
-6.38
4.65
17.42
29.99
39.90
45.13
44.41
37.85
26.82
13.39
-0.17
-11.76
-20.02
-24.45
-25.26
-23.39
-19.82
-15.45
-11.08
-7.18
-4.03
-1.75
-0.29
0.48
0.53
-0.18
-1.68
-3.92
-6.80
-10.23
-14.05
-18.02
-21.79
-24.99
-27.09
-27.50
-25.65
-20.82
-12.98
-2.75
8.79
20.30
30.50
38.40
43.43
45.39
44.42
40.79
35.03
27.93
20.52
13.87
8.83
5.76
4.39
3.88
3.18
1.51
-1.25
-4.49
-7.12
-7.98
-6.35
-2.21
3.79
10.49
16.57
20.84
22.39
20.82
16.26
9.26
0.64
-8.79
-18.38
-27.75
-36.70
-45.00
-52.16
-57.36
-59.66
-58.34
-53.18
-44.42
-32.91
-20.00
-7.37
3.21
10.10
12.17
9.21
2.16
-6.64
-14.41
-18.89
-19.12
-15.62
-9.88
-3.52
2.31
7.17
11.64
16.37
21.74
27.92
34.99
42.92
51.30
58.92
62.01
57.51
44.71
25.95
5.10
-14.65
-31.47
-44.16
-51.54
-53.80
-50.64
-42.87
-32.78
-23.18
-16.43
-13.21
-11.93
-9.80
-4.24
6.11
19.47
31.54
38.32
38.09
31.88
22.76
13.60
5.48
-1.77
-8.65
-15.12
-19.35
-19.11
-13.20
-1.51
13.58
27.10
33.12
26.61
3.43
-34.31
-77.79
-117.95
-146.88
-158.34
-150.73
-126.74
-91.29
-48.79
-1.02
51.77
108.34
165.52
215.75
248.84
256.57
236.62
193.62
137.04
76.80
16.53
-36.70
-75.33
-94.59
-94.50
-79.22
-54.88
-27.71
-2.84
16.57
30.38
39.04
42.65
40.92
33.76
22.03
7.50
-8.03
-23.23
-37.03
-49.61
-61.43
-72.68
-83.39
-93.35
-102.32
-109.44
-112.70
-108.64
-94.39
-70.25
-38.42
-4.16
26.39
48.73
61.81
68.04
71.54
74.11
76.48
76.21
69.96
56.61
38.40
20.07
6.36
-0.17
-1.00
0.51
0.52
-2.79
-8.27
-12.69
-12.86
-7.45
2.50
14.24
24.83
31.98
34.65
32.72
26.34
15.48
0.10
-19.20
-40.78
-61.73
-79.82
-93.33
-100.60
-99.76
-89.18
-68.72
-40.48
-9.02
19.86
41.03
52.07
53.77
49.16
42.33
35.33
29.43
25.15
22.58
21.37
20.87
20.13
18.20
14.36
8.48
1.50
-5.15
-10.17
-12.82
-12.94
-10.81
-7.11
-2.80
1.14
4.29
6.65
8.49
10.24
12.28
14.70
16.58
16.51
13.28
6.40
-3.60
-15.15
-25.82
-32.85
-34.17
-27.85
-14.50
2.26
17.64
28.49
34.63
37.90
40.44
42.95
45.18
44.07
36.83
22.07
0.15
-27.07
-56.86
-84.08
-102.43
-107.66
-99.73
-81.86
-58.80
-35.11
-13.90
3.22
16.00
24.64
29.21
29.61
26.38
21.34
16.35
13.50
14.13
18.30
24.36
29.50
30.97
27.63
20.25
10.99
2.41
-3.61
-6.26
-5.90
-3.54
-0.12
3.75
7.61
10.88
12.84
12.92
11.30
8.77
6.46
5.31
5.62
6.61
6.86
4.88
-0.10
-7.84
-17.34
-27.36
-36.37
-42.72
-43.32
-35.33
-19.01
1.21
19.32
30.97
35.03
33.51
30.90
29.22
28.51
27.26
23.56
16.36
6.11
-6.08
-16.95
-23.02
-22.81
-17.32
-9.51
-2.44
2.20
4.47
5.42
6.22
7.31
7.87
7.12
4.94
2.32
0.93
2.22
6.44
12.44
17.98
20.70
19.32
13.47
4.26
-6.35
-16.26
-23.95
-28.81
-30.83
-30.41
-28.06
-24.51
-20.63
-17.21
-14.56
-12.81
-12.24
-13.11
-15.54
-19.32
-23.96
-28.68
-32.73
-35.31
-34.87
-31.22
-25.44
-18.96
-12.39
-5.28
2.99
12.38
22.73
33.42
43.06
50.31
54.36
55.03
52.76
48.58
41.51
33.08
25.85
21.73
20.89
21.69
21.78
19.53
14.74
8.44
2.90
-0.87
-3.17
-5.17
-8.13
-13.05
-20.14
-28.96
-38.44
-46.57
-50.04
-46.38
-34.62
-16.09
5.47
25.14
38.08
41.29
34.99
22.02
6.42
-7.91
-17.73
-22.22
-21.64
-17.37
-11.49
-6.12
-2.99
-3.22
-6.93
-13.29
-21.08
-27.47
-29.96
-28.17
-23.72
-18.44
-13.23
-8.15
-3.08
1.86
6.84
12.04
17.50
23.08
28.37
32.75
35.74
37.73
38.31
37.08
33.12
25.20
12.48
-4.66
-24.17
-42.28
-54.54
-58.29
-53.38
-42.20
-28.35
-14.95
-3.70
5.30
12.59
18.47
22.47
23.90
22.35
18.26
13.40
9.84
9.62
13.46
20.13
26.70
29.88
27.40
18.95
6.26
-7.74
-19.85
-27.87
-31.01
-29.85
-25.72
-20.19
-14.64
-9.69
-6.60
-5.71
-6.44
-7.53
-7.87
-7.05
-5.10
-2.42
0.43
2.78
4.14
4.08
2.56
-0.20
-3.92
-8.31
-12.94
-16.97
-19.45
-19.42
-16.32
-9.69
0.34
13.04
27.08
41.08
53.98
65.03
73.64
76.45
71.00
57.12
37.31
15.24
-5.48
-21.77
-31.67
-34.69
-31.86
-24.91
-16.53
-8.39
-2.01
1.58
2.19
0.33
-3.18
-7.22
-10.25
-11.03
-9.17
-5.11
-0.02
4.70
7.67
7.41
3.14
-4.65
-14.34
-23.64
-30.44
-33.44
-32.63
-27.92
-21.31
-15.64
-12.37
-10.56
-8.03
-3.35
3.32
10.59
16.67
20.02
20.12
17.34
12.46
6.30
-0.39
-6.62
-11.17
-12.89
-11.78
-8.31
-3.52
1.26
4.83
6.58
6.73
6.30
6.49
7.85
10.17
12.61
14.15
14.14
12.58
10.27
8.71
9.45
13.30
19.98
28.43
36.98
43.51
45.53
39.51
23.36
-1.46
-29.58
-53.95
-69.04
-72.92
-67.39
-56.76
-45.56
-36.44
-29.65
-23.83
-17.58
-10.53
-3.44
2.44
6.39
8.64
10.38
12.69
15.77
18.63
19.84
18.45
14.71
9.93
5.86
4.00
4.80
7.64
11.07
13.69
14.60
13.69
11.44
8.61
5.88
3.60
1.69
-0.28
-2.77
-6.05
-10.03
-14.25
-17.73
-19.31
-17.95
-13.26
-5.76
3.09
11.27
16.94
19.11
18.17
15.34
11.97
8.82
5.73
1.96
-3.32
-10.47
-19.03
-27.54
-34.00
-36.38
-33.22
-24.23
-10.65
4.62
17.97
25.25
25.08
19.30
11.78
6.45
5.48
8.85
14.76
21.08
26.23
29.80
32.12
33.68
34.82
34.71
33.74
31.96
28.90
24.09
17.55
10.39
4.58
2.06
3.47
8.67
16.22
23.79
29.36
32.76
36.06
42.71
55.64
74.01
94.46
110.93
115.92
103.00
69.40
17.28
-46.72
-112.81
-170.88
-209.36
-219.09
-197.52
-150.83
-92.84
-41.26
-12.18
-14.55
-48.80
-103.03
-159.25
-201.29
-219.93
-213.68
-186.65
-145.13
-85.44
-16.89
48.50
103.54
145.00
168.88
170.43
147.88
106.06
58.32
13.56
-18.81
-33.31
-31.31
-19.88
-7.13
1.75
6.15
9.30
12.86
20.24
33.98
54.06
76.42
95.11
104.65
103.01
91.90
73.83
52.91
32.80
15.75
2.86
-5.20
-8.21
-6.72
-2.58
0.89
1.59
-0.98
-6.21
-12.78
-19.08
-23.52
-25.02
-22.63
-16.46
-7.38
2.89
11.88
17.46
18.68
15.96
10.63
4.40
-1.30
-5.55
-7.55
-6.78
-2.72
4.49
13.82
23.52
31.82
37.60
39.46
36.97
28.97
16.09
0.36
-15.33
-28.79
-38.92
-44.87
-46.58
-43.60
-37.43
-30.36
-24.70
-21.92
-22.07
-23.87
-25.38
-25.16
-22.75
-18.99
-15.01
-11.79
-9.88
-9.30
-9.59
-10.13
-10.15
-9.34
-8.27
-7.66
-7.78
-8.33
-8.42
-7.45
-5.28
-2.32
0.73
3.03
4.25
4.59
4.68
5.18
6.50
8.58
10.97
13.00
14.14
14.38
14.20
14.24
14.94
16.28
17.86
19.01
19.13
17.85
15.20
11.52
7.23
2.75
-1.60
-5.48
-8.57
-10.57
-11.34
-10.91
-9.50
-7.46
-5.12
-2.76
-0.58
1.29
2.75
3.76
4.39
4.80
5.18
5.70
6.37
7.05
7.56
7.79
7.76
7.61
7.45
7.36
7.44
7.65
7.89
7.97
7.77
7.28
6.59
5.77
4.86
4.05
3.39
2.73
1.71
-0.00
-2.50
-5.60
-8.94
-11.99
-13.87
-13.91
-11.98
-8.50
-4.15
0.41
4.73
8.57
11.99
15.83
20.85
27.55
36.01
45.94
56.77
67.65
77.45
81.40
75.95
60.78
39.62
17.63
-1.31
-15.44
-24.57
-30.28
-33.89
-36.01
-37.45
-39.20
-42.39
-47.18
-53.47
-60.60
-67.47
-72.74
-72.71
-65.67
-52.80
-37.45
-22.94
-11.12
-2.32
3.82
7.74
9.81
9.96
8.32
5.47
2.48
0.47
-0.16
0.47
1.95
3.82
5.43
6.44
6.87
7.00
7.14
7.42
7.80
8.16
8.49
8.45
8.05
7.57
7.34
7.58
8.18
8.87
9.33
9.33
8.78
7.82
6.79
5.97
5.49
5.26
5.08
4.79
4.28
3.57
2.74
1.86
0.93
-0.12
-1.45
-3.17
-5.32
-7.85
-10.61
-13.30
-15.58
-17.12
-17.68
-17.24
-15.94
-14.07
-11.96
-9.87
-7.92
-6.10
-4.35
-2.56
-0.69
1.22
3.09
4.81
6.32
7.63
8.76
9.73
10.47
10.81
10.51
9.33
7.19
4.07
0.02
-4.95
-10.84
-17.53
-24.65
-31.63
-37.94
-43.29
-47.92
-52.46
-57.51
-63.15
-68.62
-72.47
-73.16
-69.81
-62.58
-52.62
-41.57
-30.88
-21.37
-13.13
-5.82
1.01
7.68
14.32
20.88
27.32
33.61
39.67
45.40
50.57
54.87
58.04
59.83
60.10
58.93
56.58
53.46
49.96
46.40
42.83
39.22
35.42
31.42
27.35
23.48
20.06
17.21
14.95
13.12
11.58
10.16
8.76
7.33
5.87
4.40
3.02
1.86
1.03
0.56
0.36
0.28
0.21
0.10
0.01
0.03
0.18
0.39
0.51
0.44
0.15
-0.27
-0.68
-0.98
-1.17
-1.36
-1.70
-2.30
-3.14
-4.08
-4.87
-5.31
-5.26
-4.73
-3.89
-2.99
-2.30
-2.00
-2.13
-2.61
-3.26
-3.91
-4.39
-4.65
-4.71
-4.62
-4.44
-4.24
-4.05
-3.91
-3.81
-3.77
-3.73
-3.66
-3.52
-3.31
-3.07
-2.85
-2.67
-2.52
-2.35
-2.08
-1.67
-1.13
-0.45
0.36
1.37
2.62
4.11
5.78
7.49
9.09
10.51
11.71
12.75
13.68
14.52
15.22
15.73
16.00
16.00
15.73
15.14
14.17
12.80
11.05
9.05
6.99
5.11
3.57
2.37
1.44
0.61
-0.21
-1.03
-1.78
-2.36
-2.74
-2.94
-3.03
-3.08
-3.12
-3.14
-3.14
-3.14
-3.25
-3.55
-4.07
-4.73
-5.33
-5.68
-5.65
-5.24
-4.58
-3.85
-3.23
-2.79
-2.55
-2.50
-2.61
-2.87
-3.25
-3.71
-4.18
-4.62
-4.98
-5.30
-5.65
-6.11
-6.74
-7.55
-8.51
-9.55
-10.54
-11.39
-12.03
-12.45
-12.65
-12.70
-12.63
-12.49
-12.30
-12.06
-11.77
-11.40
-10.91
-10.24
-9.35
-8.30
-7.25
-6.42
-6.02
-6.14
-6.66
-7.27
-7.58
-7.35
-6.54
-5.39
-4.23
-3.31
-2.68
-2.09
-1.19
0.44
3.16
7.24
12.84
19.86
27.80
35.75
42.45
46.68
47.76
45.89
42.11
37.89
34.49
32.39
31.22
30.08
28.03
24.51
19.47
13.14
5.90
-1.90
-9.85
-17.38
-23.80
-28.43
-30.94
-31.50
-30.74
-29.45
-28.23
-27.29
-26.47
-25.46
-24.07
-22.29
-20.32
-18.41
-16.71
-15.34
-14.37
-13.88
-13.94
-14.55
-15.55
-16.56
-17.06
-16.56
-14.82
-12.00
-8.55
-5.08
-2.10
0.25
2.29
4.70
8.18
13.02
18.88
24.94
30.03
33.13
33.66
31.79
28.43
24.92
22.60
22.43
25.08
30.52
37.80
44.84
48.89
47.53
39.79
26.95
12.39
0.93
-3.49
0.33
10.18
21.54
29.93
32.86
30.44
24.78
19.06
15.75
15.84
18.98
24.64
32.86
43.97
57.38
67.03
65.57
47.97
14.88
-27.91
-72.59
-111.83
-140.07
-154.16
-153.63
-139.88
-116.16
-87.19
-58.37
-34.47
-18.18
-9.68
-7.23
-8.18
-9.54
-8.99
-5.22
1.73
10.65
19.65
26.69
30.25
29.90
26.73
22.56
18.91
16.20
13.82
10.89
7.14
3.19
0.17
-0.87
0.26
2.80
5.40
6.89
6.85
5.66
4.06
2.62
1.46
0.36
-1.07
-2.95
-5.00
-6.71
-7.65
-7.70
-7.11
-6.30
-5.65
-5.26
-4.98
-4.57
-3.89
-3.03
-2.25
-1.85
-2.01
-2.70
-3.68
-4.62
-5.26
-5.48
-5.35
-5.06
-4.83
-4.81
-4.97
-5.18
-5.24
-5.00
-4.40
-3.62
-2.93
-2.60
-2.95
-4.25
-6.63
-9.78
-12.81
-14.34
-12.92
-7.66
1.17
12.02
22.63
30.84
35.40
36.18
33.92
29.56
23.87
17.24
10.03
2.86
-3.40
-7.87
-10.09
-10.29
-9.28
-8.08
-7.48
-7.75
-8.65
-9.68
-10.43
-10.71
-10.62
-10.40
-10.25
-10.20
-10.14
-9.90
-9.33
-8.36
-7.04
-5.46
-3.72
-1.94
-0.13
1.67
3.37
4.87
6.02
6.68
6.78
6.33
5.52
4.63
3.96
3.70
3.80
4.03
4.06
3.66
2.82
1.84
1.18
1.31
2.37
4.11
5.87
6.96
6.88
5.67
3.92
2.54
2.41
3.82
6.36
9.07
10.86
11.11
9.85
7.87
6.34
6.40
8.63
12.95
18.78
25.13
30.68
33.82
32.83
25.90
12.76
-5.14
-24.96
-43.33
-57.67
-67.07
-72.54
-76.04
-79.08
-81.40
-81.05
-75.41
-62.87
-44.19
-22.53
-2.26
12.95
21.61
24.77
25.00
24.75
25.17
25.90
25.80
24.12
21.16
18.10
16.30
16.39
17.97
19.89
20.86
20.14
17.82
14.74
11.98
10.39
10.21
10.99
11.90
12.15
11.37
9.76
7.93
6.57
6.09
6.52
7.41
8.22
8.54
8.26
7.57
6.77
6.10
5.58
5.09
4.38
3.34
1.93
0.27
-1.50
-3.30
-5.04
-6.64
-8.00
-8.98
-9.46
-9.43
-8.98
-8.26
-7.44
-6.60
-5.73
-4.81
-3.79
-2.76
-1.86
-1.25
-0.98
-1.01
-1.14
-1.24
-1.18
-0.98
-0.71
-0.46
-0.30
-0.19
-0.11
-0.02
0.05
0.07
-0.00
-0.13
-0.26
-0.31
-0.19
0.08
0.45
0.79
0.98
0.98
0.84
0.67
0.59
0.69
0.96
1.27
1.44
1.35
1.04
0.68
0.53
0.75
1.36
2.19
3.00
3.48
3.56
3.48
3.63
4.27
5.37
6.62
7.47
7.51
6.39
4.23
1.66
-0.58
-2.03
-2.69
-2.83
-2.87
-3.11
-3.91
-5.21
-6.41
-6.81
-6.16
-4.77
-3.38
-2.77
-3.54
-6.21
-10.72
-16.36
-22.28
-27.86
-32.66
-35.93
-36.79
-32.31
-22.29
-10.24
-0.75
3.85
4.07
2.14
0.64
1.31
4.31
8.08
10.86
12.15
12.24
11.61
10.78
10.22
10.11
10.40
10.84
11.48
12.89
15.51
18.97
21.28
20.83
16.73
9.17
-0.56
-10.12
-16.56
-16.48
-8.20
6.52
23.23
36.51
42.12
38.59
27.92
14.90
5.06
2.28
6.90
16.02
25.11
30.30
29.96
25.00
17.58
9.47
0.83
-9.24
-21.21
-34.13
-46.42
-56.02
-61.91
-64.29
-63.71
-60.07
-52.27
-38.99
-20.31
1.20
21.23
35.43
41.54
40.08
33.69
25.50
18.03
12.44
8.60
6.38
6.05
8.17
12.93
19.64
26.40
31.07
31.80
27.88
20.22
11.18
3.74
0.08
0.81
5.04
11.36
18.52
25.57
31.60
35.31
34.61
26.71
9.15
-18.83
-54.45
-90.61
-119.54
-136.93
-142.76
-138.84
-126.63
-107.03
-81.50
-53.04
-26.22
-5.60
6.77
12.71
17.17
25.29
39.51
58.34
77.48
92.25
99.87
100.50
96.57
90.93
84.84
77.48
66.74
51.08
30.57
7.33
-15.35
-34.20
-47.23
-54.51
-58.13
-61.18
-66.08
-73.21
-80.14
-82.66
-76.69
-60.41
-35.47
-6.59
20.57
42.11
56.01
62.18
61.41
54.69
43.04
28.10
12.48
-0.74
-9.28
-12.82
-12.92
-11.95
-11.42
-11.20
-9.97
-6.38
-0.30
6.92
13.12
16.70
17.43
16.58
15.92
16.68
19.09
22.40
25.55
27.57
27.79
24.88
18.23
7.64
-5.95
-20.06
-31.29
-36.57
-34.67
-26.97
-16.85
-7.93
-2.58
-1.09
-2.00
-3.71
-5.30
-6.73
-8.46
-10.69
-12.89
-14.04
-13.22
-10.31
-6.19
-2.39
-0.35
-0.95
-4.11
-8.85
-13.59
-17.03
-18.73
-19.10
-18.91
-18.72
-18.73
-18.74
-18.28
-16.45
-12.76
-7.90
-3.19
0.19
2.08
2.94
3.63
5.06
8.52
14.44
21.86
28.90
33.84
36.25
36.49
35.43
34.20
34.86
38.81
45.98
55.16
64.78
73.98
81.49
85.76
79.69
60.81
33.89
7.39
-11.68
-24.70
-33.65
-40.50
-45.83
-50.09
-52.46
-52.25
-49.82
-46.47
-43.76
-42.17
-41.86
-42.56
-43.73
-43.82
-41.61
-37.05
-31.16
-25.31
-20.14
-15.98
-12.90
-10.73
-8.72
-6.32
-3.71
-1.56
-0.52
-0.48
-1.10
-1.89
-2.55
-2.71
-2.29
-1.58
-1.01
-0.92
-1.24
-1.70
-2.00
-1.87
-1.05
0.52
2.60
4.77
6.58
7.84
8.57
8.96
9.26
9.69
10.29
10.98
11.63
12.17
12.63
13.17
13.99
15.24
16.93
18.91
20.93
22.69
23.98
24.59
24.34
23.08
20.67
17.06
12.39
6.95
1.23
-4.24
-9.03
-12.88
-15.72
-17.65
-18.85
-19.54
-19.89
-19.94
-19.64
-18.88
-17.54
-15.55
-12.83
-9.45
-5.63
-1.63
2.38
6.29
10.05
13.60
16.95
20.30
23.73
27.16
30.39
33.19
35.21
36.06
35.35
33.16
30.12
26.94
24.06
21.56
19.17
16.28
12.05
5.58
-3.50
-14.58
-26.38
-37.26
-45.29
-48.77
-47.12
-40.38
-31.05
-23.42
-19.69
-18.54
-17.70
-15.83
-12.09
-6.70
-0.71
4.50
8.20
10.71
12.72
14.57
16.21
17.20
16.80
14.36
9.74
3.69
-2.25
-6.45
-7.80
-5.72
0.05
9.29
21.28
34.47
46.54
54.82
56.98
51.91
40.53
25.64
10.67
-1.67
-10.35
-15.91
-19.63
-22.61
-25.25
-27.29
-28.35
-28.45
-28.12
-28.02
-28.43
-29.00
-28.95
-27.57
-24.60
-20.41
-15.85
-11.89
-9.26
-8.15
-8.24
-8.87
-9.29
-8.97
-7.72
-5.74
-3.46
-1.33
0.35
1.54
2.40
3.15
3.95
4.76
5.42
5.73
5.59
5.09
4.46
3.91
3.60
3.48
3.46
3.39
3.21
2.95
2.71
2.56
2.57
2.71
2.94
3.17
3.37
3.53
3.67
3.78
3.86
3.85
3.64
3.19
2.47
1.59
0.72
0.10
-0.12
0.13
0.74
1.47
2.05
2.29
2.18
1.85
1.51
1.33
1.36
1.47
1.45
1.15
0.51
-0.37
-1.32
-2.20
-2.90
-3.39
-3.67
-3.74
-3.59
-3.23
-2.69
-2.09
-1.52
-1.07
-0.77
-0.54
-0.32
-0.04
0.28
0.57
0.72
0.66
0.38
-0.00
-0.33
-0.44
-0.26
0.14
0.58
0.85
0.78
0.27
-0.62
-1.72
-2.81
-3.63
-4.04
-3.96
-3.40
-2.49
-1.40
-0.30
0.67
1.41
1.90
2.10
2.01
1.68
1.20
0.64
0.13
-0.13
0.03
0.66
1.61
2.66
3.63
4.41
4.88
5.03
4.95
4.78
4.65
4.48
4.25
4.01
3.79
3.42
2.82
2.13
1.67
1.73
2.16
2.51
2.17
0.55
-2.99
-8.47
-15.22
-22.10
-27.96
-32.29
-34.97
-36.16
-34.42
-29.56
-23.08
-17.07
-13.36
-11.10
-9.39
-7.50
-4.80
-1.17
2.90
6.74
9.85
12.03
13.28
13.56
13.07
12.29
11.73
11.76
12.63
14.55
17.46
21.05
24.57
27.29
28.69
28.53
26.70
23.33
18.87
14.02
9.50
5.79
3.18
1.66
1.01
0.88
1.00
1.33
1.94
2.89
3.98
4.91
5.33
5.03
3.96
2.23
0.13
-2.06
-4.05
-5.68
-6.86
-7.54
-7.70
-7.31
-6.37
-4.91
-3.14
-1.47
-0.48
-0.73
-2.59
-5.96
-10.30
-14.78
-18.59
-21.24
-22.75
-23.45
-23.80
-24.04
-24.02
-23.36
-21.63
-18.64
-14.61
-9.99
-5.25
-0.67
3.73
7.88
11.42
13.55
13.32
10.10
4.13
-3.39
-10.68
-16.04
-18.52
-18.17
-15.77
-12.28
-8.36
-4.20
0.24
4.91
9.40
12.99
15.01
15.15
13.70
11.40
9.14
7.59
6.90
6.71
6.45
5.62
4.10
2.14
0.21
-1.27
-2.16
-2.59
-2.87
-3.22
-3.71
-4.23
-4.60
-4.67
-4.42
-3.91
-3.23
-2.47
-1.68
-0.85
-0.03
0.75
1.45
2.03
2.49
2.81
3.00
3.01
2.80
2.35
1.73
1.08
0.56
0.29
0.30
0.50
0.75
0.98
1.17
1.38
1.66
2.02
2.39
2.66
2.77
2.74
2.67
2.69
2.89
3.26
3.69
4.02
4.13
4.00
3.63
3.10
2.46
1.78
1.14
0.66
0.47
0.65
1.22
2.05
3.00
3.88
4.60
5.14
5.54
5.85
6.09
6.25
6.32
6.34
6.34
6.32
6.24
5.95
5.35
4.40
3.18
1.91
0.84
0.15
-0.14
-0.10
0.11
0.34
0.53
0.65
0.74
0.85
1.04
1.31
1.69
2.10
2.47
2.75
2.92
3.04
3.24
3.51
3.75
3.78
3.42
2.63
1.54
0.38
-0.58
-1.17
-1.35
-1.27
-1.12
-1.09
-1.27
-1.65
-2.04
-2.19
-1.82
-0.86
0.47
1.79
2.63
2.65
1.80
0.38
-1.03
-1.72
-1.43
-0.50
0.49
0.80
-0.15
-2.43
-5.51
-8.40
-10.00
-9.96
-8.80
-7.18
-5.84
-5.43
-6.46
-9.47
-15.07
-23.06
-32.47
-40.89
-44.10
-38.36
-22.57
0.87
26.84
49.83
66.82
77.27
82.36
83.82
81.34
72.53
55.17
29.99
-1.19
-29.43
-43.58
-42.10
-28.89
-10.50
6.43
17.89
23.43
25.22
26.46
26.28
22.95
16.23
7.16
-2.93
-13.00
-22.33
-29.98
-34.40
-34.59
-30.39
-22.44
-12.84
-4.43
0.08
-0.80
-6.54
-14.40
-21.30
-24.60
-22.71
-15.66
-4.88
7.28
18.08
24.30
22.94
12.00
-7.91
-31.92
-51.50
-57.63
-45.40
-17.79
14.94
40.13
48.65
39.26
18.80
-2.18
-15.27
-16.91
-11.91
-9.46
-14.19
-21.70
-22.85
-11.40
11.13
36.35
54.25
58.99
50.79
35.17
19.67
9.54
6.14
7.36
9.39
8.99
5.06
-1.55
-8.66
-13.89
-16.24
-16.12
-15.04
-14.85
-17.26
-23.65
-33.02
-43.70
-53.19
-59.27
-60.10
-54.83
-44.09
-29.95
-15.35
-3.30
3.00
4.04
1.30
-3.01
-6.65
-7.61
-4.39
3.60
14.79
25.37
31.26
28.05
13.48
-11.12
-40.64
-67.60
-81.53
-75.04
-49.93
-16.82
11.64
27.84
30.80
24.16
13.23
2.79
-4.47
-7.82
-7.39
-4.14
0.09
2.78
1.33
-5.37
-15.34
-25.13
-30.76
-28.98
-18.51
-0.73
20.15
38.01
47.11
44.73
32.11
14.19
-2.04
-9.98
-5.55
11.87
39.93
71.66
98.36
114.29
118.33
111.91
96.76
74.66
48.42
22.02
-0.27
-15.08
-21.60
-21.52
-18.32
-15.58
-15.11
-16.66
-19.26
-22.16
-24.87
-27.35
-30.59
-36.75
-47.93
-63.98
-81.15
-93.05
-93.26
-77.65
-46.41
-4.10
42.15
83.92
112.76
125.59
123.74
110.08
87.69
60.10
32.07
8.83
-6.07
-12.89
-15.18
-17.78
-24.50
-35.80
-48.36
-56.75
-56.78
-48.14
-34.59
-21.63
-13.93
-13.91
-20.61
-31.60
-43.25
-52.27
-57.17
-58.47
-57.70
-55.76
-53.05
-49.29
-43.88
-35.35
-22.44
-5.64
11.96
25.85
33.35
34.15
30.09
23.97
19.07
18.02
21.55
28.70
38.45
52.32
71.60
94.25
110.28
106.97
79.50
37.24
-0.88
-26.55
-38.68
-42.46
-44.44
-51.33
-64.44
-77.84
-82.50
-72.38
-48.19
-15.53
16.82
40.83
51.08
46.26
31.66
15.90
4.76
-1.57
-5.36
-9.74
-15.50
-21.13
-23.71
-20.43
-10.80
2.59
15.50
24.77
28.94
28.13
23.69
18.12
14.14
12.96
13.17
11.79
6.53
-3.19
-16.07
-29.23
-39.26
-43.60
-41.90
-36.01
-28.63
-19.74
-9.42
2.98
17.89
34.20
48.80
57.42
56.71
46.39
29.75
11.90
-2.26
-10.11
-11.94
-10.04
-7.01
-4.71
-3.66
-3.48
-3.84
-4.22
-3.78
-1.46
3.72
12.01
22.10
31.75
38.42
40.14
36.65
30.01
24.23
23.94
32.32
48.82
68.91
85.34
90.80
81.04
56.69
22.99
-12.63
-41.46
-59.15
-66.68
-68.17
-67.69
-67.07
-65.82
-62.57
-56.79
-49.37
-42.51
-38.16
-37.04
-38.38
-40.46
-41.51
-40.36
-36.78
-31.39
-25.67
-21.20
-19.06
-19.53
-22.02
-25.37
-28.13
-29.07
-27.73
-24.59
-20.90
-18.05
-17.05
-18.03
-21.01
-25.96
-32.72
-40.32
-46.22
-46.07
-34.99
-10.39
25.37
64.15
94.38
105.80
94.07
62.57
20.27
-22.67
-59.63
-87.45
-105.64
-113.63
-109.74
-92.31
-62.15
-24.15
13.69
43.40
60.63
66.12
64.76
62.59
63.65
68.72
75.65
81.35
82.83
80.47
75.61
70.05
65.23
61.87
59.82
58.64
58.44
58.24
57.45
54.88
49.20
39.38
25.30
8.00
-10.66
-28.53
-44.18
-56.63
-65.54
-70.31
-69.86
-63.02
-49.23
-30.06
-8.50
11.73
27.66
37.77
42.39
43.11
41.79
39.52
36.22
31.18
23.82
14.54
4.77
-3.47
-8.54
-9.88
-8.32
-5.62
-3.59
-3.28
-4.77
-7.47
-10.31
-11.81
-10.12
-3.73
7.29
20.41
30.86
33.32
24.60
5.55
-18.76
-41.00
-55.05
-58.85
-54.98
-48.92
-45.79
-47.89
-54.04
-60.83
-64.68
-64.10
-60.07
-55.28
-52.17
-51.55
-52.54
-52.95
-52.40
-51.18
-49.66
-46.83
-39.87
-25.47
-2.50
25.50
50.52
63.34
58.48
37.66
9.71
-13.58
-23.60
-17.93
-1.00
18.88
34.05
41.02
41.05
38.31
36.66
37.63
40.19
41.86
40.96
37.62
33.81
31.43
32.03
35.04
38.26
39.39
37.29
32.62
27.57
24.71
25.97
31.66
40.15
48.56
53.50
52.25
43.78
29.27
11.79
-4.82
-17.29
-24.34
-26.78
-26.80
-26.61
-27.34
-28.67
-29.43
-28.60
-26.05
-22.77
-20.16
-19.26
-20.16
-22.08
-23.80
-24.36
-23.48
-21.54
-19.25
-17.20
-15.54
-14.03
-12.27
-9.94
-7.05
-3.90
-0.90
1.58
3.38
4.51
5.13
5.43
5.50
5.39
5.11
4.73
4.35
4.15
4.26
4.74
5.47
6.17
6.46
6.11
5.01
3.07
0.43
-2.55
-5.23
-6.71
-6.02
-2.73
2.64
8.56
12.93
13.86
10.44
3.46
-5.16
-13.21
-19.02
-21.93
-21.68
-18.24
-11.72
-2.73
7.25
16.16
22.07
24.12
22.85
19.86
16.80
14.43
12.28
9.06
3.97
-2.40
-8.04
-10.60
-8.76
-2.88
5.42
14.16
21.33
25.30
24.68
18.17
4.84
-15.02
-39.14
-63.39
-80.75
-85.73
-77.18
-58.53
-35.61
-13.96
2.94
14.04
19.90
21.70
20.29
16.52
11.73
7.53
5.31
5.64
8.06
11.47
14.53
15.89
14.73
11.34
6.55
1.69
-1.85
-3.14
-1.96
0.92
3.72
4.37
1.75
-3.78
-10.21
-14.51
-14.10
-7.93
2.64
14.30
22.67
25.13
21.95
15.76
10.33
7.63
8.11
10.76
13.91
16.23
17.51
18.18
18.77
19.52
20.20
20.48
20.38
20.48
21.52
24.38
28.84
33.00
33.99
29.32
18.61
3.97
-10.87
-22.25
-28.19
-29.14
-27.34
-25.23
-24.09
-23.59
-22.69
-20.93
-18.87
-17.63
-18.16
-20.49
-23.65
-26.13
-26.38
-23.85
-19.41
-14.72
-11.20
-9.38
-8.85
-8.49
-6.92
-2.77
4.65
14.84
26.33
37.08
44.57
46.06
39.07
21.77
-4.13
-32.83
-57.85
-75.96
-87.56
-94.55
-98.04
-97.40
-90.83
-76.77
-55.49
-29.52
-2.40
23.04
45.31
63.75
77.65
85.82
87.00
80.60
67.30
49.26
29.77
12.23
-0.85
-8.26
-9.96
-6.89
-0.87
5.78
10.90
13.40
13.42
12.01
10.44
9.53
9.39
9.55
9.47
8.86
7.84
6.70
5.62
4.57
3.53
2.82
2.92
4.30
7.11
11.01
15.17
18.50
20.10
19.33
16.14
11.08
5.39
0.72
-1.46
-0.48
2.87
6.64
8.29
5.74
-1.65
-12.63
-24.53
-34.45
-40.70
-43.58
-44.84
-46.84
-51.26
-58.18
-65.99
-72.28
-74.94
-72.97
-66.65
-56.59
-43.39
-27.50
-9.53
9.24
26.88
41.26
51.02
54.38
51.59
44.51
35.61
27.02
20.06
15.34
12.92
12.38
12.65
12.62
11.21
7.63
1.93
-4.79
-10.48
-12.63
-8.89
0.79
14.41
29.57
44.80
59.60
73.57
85.34
92.24
90.97
79.26
57.82
30.55
3.12
-18.88
-32.09
-36.16
-33.10
-25.91
-17.16
-8.56
-1.77
1.56
-0.22
-7.80
-19.87
-32.99
-42.97
-46.37
-41.93
-29.92
-14.90
-1.71
6.63
10.02
10.58
10.39
10.59
10.79
8.92
2.32
-10.05
-26.32
-41.86
-49.57
-45.48
-30.84
-11.60
5.03
14.32
16.22
14.17
12.23
12.37
13.52
13.40
10.62
5.54
0.29
-2.77
-2.43
0.97
5.99
10.77
14.13
15.70
15.85
15.58
15.96
17.58
20.49
24.15
27.58
29.90
30.63
29.74
27.42
24.27
20.61
16.74
12.93
9.45
6.63
4.78
4.08
4.57
6.12
8.39
10.95
13.28
14.86
15.32
14.63
13.08
11.12
9.08
6.91
4.30
0.85
-3.58
-8.68
-13.78
-18.15
-21.38
-23.53
-25.09
-26.60
-28.34
-30.18
-31.68
-32.39
-32.07
-30.88
-29.21
-27.55
-26.22
-25.28
-24.60
-23.96
-23.21
-22.33
-21.40
-20.57
-19.97
-19.67
-19.73
-20.21
-21.19
-22.80
-25.10
-27.91
-30.80
-33.06
-33.86
-32.50
-28.73
-22.90
-15.85
-8.69
-2.33
2.70
6.38
9.04
11.04
12.59
13.70
14.33
14.48
14.36
14.26
14.43
14.91
15.52
15.97
16.01
15.59
14.87
14.06
13.37
12.82
12.30
11.62
10.65
9.43
8.11
6.97
6.16
5.72
5.47
5.17
4.62
3.78
2.83
2.02
1.58
1.54
1.81
2.15
2.37
2.39
2.25
2.06
1.92
1.87
1.83
1.72
1.49
1.20
0.99
1.04
1.42
2.07
2.80
3.37
3.63
3.58
3.36
3.16
3.07
3.08
3.04
2.77
2.18
1.33
0.41
-0.35
-0.79
-0.90
-0.82
-0.71
-0.73
-0.86
-1.03
-1.08
-0.97
-0.80
-0.74
-0.97
-1.53
-2.29
-2.99
-3.40
-3.43
-3.19
-2.92
-2.86
-3.12
-3.62
-4.16
-4.48
-4.40
-3.87
-2.98
-1.94
-0.90
-0.09
0.46
0.88
1.36
2.00
2.81
3.79
4.90
6.12
7.37
8.61
9.84
11.07
12.21
13.15
13.87
14.48
15.16
15.92
16.87
18.22
20.04
22.07
23.85
24.93
25.08
24.40
22.72
20.41
18.30
16.87
15.64
13.52
9.51
3.44
-3.92
-12.32
-20.53
-26.56
-29.18
-28.85
-27.22
-26.01
-26.34
-28.53
-34.28
-43.49
-53.80
-62.58
-68.75
-72.70
-75.58
-78.70
-83.28
-92.77
-108.25
-127.20
-145.52
-159.75
-167.22
-166.01
-155.39
-120.68
-64.39
-5.53
37.49
60.00
67.43
67.47
65.71
64.30
63.27
59.64
52.80
45.55
41.41
41.36
44.04
47.06
48.17
46.12
39.03
27.53
14.96
4.83
-1.38
-4.26
-5.37
-6.24
-7.69
-10.86
-15.15
-18.24
-17.79
-12.99
-4.62
5.64
16.00
25.17
32.03
36.53
39.60
42.22
44.74
47.01
48.78
50.05
51.01
51.62
51.73
51.12
49.54
46.76
42.85
38.23
33.52
29.28
25.82
23.15
21.03
19.15
17.15
14.69
11.48
7.36
2.51
-2.61
-7.28
-10.86
-13.00
-13.82
-13.79
-13.56
-13.57
-14.00
-14.74
-15.57
-16.27
-16.75
-16.97
-16.95
-16.74
-16.44
-16.22
-16.26
-16.61
-17.12
-17.46
-17.25
-16.24
-14.40
-11.92
-9.05
-6.02
-2.95
0.07
2.94
5.57
7.90
9.99
11.96
13.92
15.84
17.53
18.75
19.40
19.56
19.45
19.27
19.07
18.76
18.18
17.30
16.28
15.40
14.87
14.71
14.70
14.48
13.68
12.09
9.71
6.72
3.43
0.16
-2.70
-4.83
-6.01
-6.19
-5.53
-4.38
-3.21
-2.43
-2.30
-2.84
-3.84
-4.97
-5.93
-6.45
-6.43
-5.96
-5.17
-4.14
-2.87
-1.35
0.40
2.28
4.19
5.96
7.43
8.48
9.07
9.22
8.96
8.33
7.32
6.09
4.78
3.45
2.17
1.09
0.39
0.22
0.62
1.52
3.11
5.35
7.88
10.21
12.01
13.21
13.91
14.33
14.67
15.81
18.10
20.96
23.30
24.31
23.80
22.15
20.14
18.65
19.54
23.60
30.06
37.14
43.45
48.43
52.27
55.72
59.63
66.01
75.66
87.45
98.80
107.24
111.19
110.03
104.11
84.61
50.68
11.42
-21.31
-41.91
-51.30
-53.70
-54.03
-55.39
-59.53
-66.30
-74.82
-82.97
-89.64
-94.26
-96.75
-97.68
-98.08
-99.52
-103.55
-110.59
-119.73
-129.13
-136.05
-137.41
-131.03
-116.67
-89.11
-52.86
-19.12
3.95
15.91
21.04
23.86
26.32
28.43
29.65
29.10
27.46
26.46
27.43
30.26
33.84
36.74
37.94
37.07
33.76
28.68
23.69
20.38
19.33
20.38
23.17
27.50
33.21
39.48
45.27
50.01
52.97
53.31
50.66
45.62
39.68
33.66
30.13
28.73
28.76
28.95
27.94
24.91
19.87
13.57
7.11
1.42
-3.24
-6.59
-8.59
-9.34
-9.01
-7.93
-6.65
-6.00
-6.71
-9.58
-14.68
-21.57
-29.46
-37.45
-44.79
-50.92
-55.46
-58.13
-59.01
-58.26
-56.24
-53.40
-50.16
-46.72
-43.16
-39.44
-35.54
-31.62
-27.79
-24.11
-20.53
-16.91
-13.15
-9.27
-5.42
-1.84
1.28
3.85
5.97
7.76
9.34
10.72
11.81
12.53
12.87
12.91
12.76
12.55
12.32
12.05
11.76
11.51
11.44
11.66
12.16
12.78
13.24
13.24
12.63
11.43
9.87
8.23
6.73
5.45
4.32
3.21
2.03
0.78
-0.44
-1.53
-2.42
-3.10
-3.59
-3.90
-4.02
-3.91
-3.54
-2.90
-2.05
-1.05
-0.01
1.00
1.91
2.75
3.58
4.54
5.71
7.09
8.49
9.62
10.21
10.10
9.36
8.24
7.04
5.96
5.05
4.23
3.39
2.52
1.69
1.02
0.54
0.19
-0.18
-0.70
-1.35
-2.00
-2.43
-2.54
-2.41
-2.27
-2.40
-2.94
-3.88
-5.01
-6.08
-6.89
-7.40
-7.67
-7.84
-8.03
-8.31
-8.62
-8.85
-8.84
-8.46
-7.68
-6.61
-5.46
-4.51
-3.95
-3.87
-4.20
-4.75
-5.27
-5.58
-5.57
-5.30
-4.90
-4.57
-4.49
-4.74
-5.24
-5.79
-6.14
-6.20
-6.09
-6.07
-6.36
-7.03
-8.04
-9.18
-10.19
-10.81
-10.99
-10.91
-10.90
-11.25
-12.19
-13.79
-15.94
-18.28
-20.24
-21.32
-21.16
-19.56
-16.44
-12.09
-7.21
-2.81
0.52
2.63
3.33
2.07
-1.75
-8.38
-17.47
-27.85
-37.50
-43.32
-42.37
-34.16
-21.43
-8.64
0.18
2.88
-0.14
-6.25
-10.53
-8.12
2.52
18.36
33.99
44.29
45.89
37.84
21.81
3.21
-10.55
-13.78
-4.25
18.09
52.08
94.36
138.57
166.85
159.90
115.83
54.34
-0.01
-31.40
-35.91
-19.85
4.75
25.92
37.96
42.09
41.95
39.34
33.61
23.02
6.17
-16.34
-41.16
-62.01
-72.15
-68.71
-54.62
-36.95
-22.19
-14.84
-15.81
-22.50
-29.61
-31.85
-27.30
-18.45
-9.96
-5.65
-6.96
-12.48
-19.08
-23.41
-23.36
-19.31
-13.71
-9.29
-7.55
-8.48
-10.81
-12.89
-13.78
-12.82
-10.27
-7.02
-4.02
-1.78
-0.36
0.52
1.20
1.80
2.30
2.44
2.11
1.40
0.73
0.57
1.19
2.57
4.46
6.54
8.49
10.11
11.41
12.48
13.42
14.22
14.72
14.90
14.73
14.22
13.39
12.36
11.37
10.66
10.36
10.36
10.64
11.05
11.34
11.42
11.54
12.20
14.02
17.23
21.27
25.21
27.61
27.28
23.95
18.77
14.12
13.02
18.07
27.88
40.70
54.51
67.64
78.30
84.03
82.10
70.77
50.60
24.79
-1.35
-22.75
-36.47
-42.58
-43.44
-42.14
-40.97
-40.78
-41.20
-41.11
-39.88
-37.61
-34.95
-32.22
-29.30
-25.76
-21.18
-15.63
-9.77
-4.91
-2.61
-3.62
-7.30
-11.90
-15.53
-17.05
-16.67
-15.52
-14.98
-15.69
-17.19
-18.36
-17.95
-15.43
-11.18
-6.29
-2.02
0.61
1.26
0.35
-1.12
-1.92
-1.20
1.35
5.39
10.22
15.05
19.13
21.81
22.66
21.50
18.51
14.25
9.57
5.44
2.39
0.52
-0.61
-1.79
-3.70
-6.51
-9.56
-11.52
-10.66
-5.94
2.78
14.29
26.18
35.02
36.84
28.19
7.20
-22.95
-56.67
-86.25
-104.71
-108.48
-98.62
-79.90
-58.31
-38.17
-20.56
-4.31
12.33
29.43
44.93
55.80
59.81
56.59
47.71
36.14
24.99
16.59
11.87
10.25
10.13
9.47
6.39
0.01
-8.81
-16.55
-18.35
-11.56
1.70
15.26
23.35
22.65
13.34
-1.11
-15.58
-25.81
-29.37
-26.55
-19.68
-11.68
-4.73
0.47
4.64
9.36
15.62
23.25
30.97
37.39
41.88
44.60
46.06
45.02
39.99
30.17
16.48
1.41
-11.73
-19.77
-20.93
-15.88
-7.91
-1.47
-0.18
-5.26
-15.30
-27.40
-38.70
-47.60
-53.51
-55.98
-53.94
-46.36
-33.48
-17.78
-3.23
6.46
9.57
7.20
2.50
-1.32
-2.28
-0.35
3.05
6.10
7.57
7.18
5.50
3.52
2.15
1.85
2.46
3.34
3.69
2.96
1.12
-1.40
-4.02
-6.40
-8.50
-10.63
-13.14
-16.17
-19.45
-22.40
-24.36
-24.90
-23.88
-21.65
-18.88
-16.30
-14.35
-13.03
-11.91
-10.34
-7.66
-3.40
2.65
10.52
20.13
31.30
43.59
56.27
68.29
78.52
86.00
90.17
91.06
89.38
86.28
82.98
80.44
79.24
79.54
81.27
83.92
86.92
89.73
91.83
92.45
90.61
85.28
75.71
61.67
43.08
20.54
-4.45
-29.64
-52.60
-71.39
-84.96
-93.33
-97.37
-99.31
-101.19
-103.97
-107.22
-109.73
-110.37
-108.59
-104.41
-98.31
-92.00
-87.07
-84.34
-83.72
-84.91
-88.01
-93.25
-100.67
-103.16
-95.57
-77.79
-55.53
-35.76
-22.44
-15.58
-12.27
-8.56
-1.38
9.18
21.01
31.59
39.53
44.78
48.04
50.13
51.68
53.04
53.66
53.22
51.65
49.47
47.20
44.95
42.65
40.28
38.02
35.58
32.48
28.42
23.61
18.69
14.35
11.04
8.76
7.19
5.69
3.75
1.21
-1.42
-3.44
-4.41
-4.53
-4.47
-5.01
-6.75
-9.86
-14.09
-18.77
-22.69
-24.63
-23.85
-20.27
-14.47
-7.35
-0.04
6.33
10.97
14.10
16.48
18.87
21.68
25.00
28.95
33.56
38.34
40.28
37.21
29.50
19.44
9.27
0.09
-7.33
-12.21
-14.53
-14.85
-13.70
-11.85
-10.39
-10.48
-12.82
-16.54
-19.78
-21.52
-21.72
-20.78
-19.34
-18.93
-21.16
-27.57
-37.85
-49.86
-61.22
-69.01
-69.73
-60.13
-39.48
-9.06
22.45
43.98
53.72
54.47
50.09
41.66
32.07
23.69
17.77
14.42
14.08
17.47
23.89
31.68
38.86
43.90
45.45
43.01
37.13
29.91
24.17
21.36
21.64
24.32
28.51
32.78
35.45
34.80
29.80
20.67
8.29
-5.52
-18.28
-27.89
-34.06
-38.45
-42.99
-48.26
-52.45
-53.00
-48.40
-39.41
-28.80
-19.75
-13.63
-8.90
-2.25
9.02
24.16
38.82
47.27
45.49
33.49
15.48
-1.84
-14.75
-22.71
-28.29
-34.90
-43.68
-52.18
-55.26
-48.05
-29.45
-3.46
22.79
41.46
48.09
44.67
37.27
31.29
28.27
25.92
20.88
12.26
2.45
-4.34
-5.16
-0.39
6.43
10.93
10.37
4.79
-3.52
-11.76
-17.89
-21.09
-20.91
-17.70
-12.29
-6.10
-1.01
1.21
-0.75
-7.14
-17.08
-28.29
-37.81
-42.75
-40.96
-32.08
-17.65
-1.23
12.79
19.72
18.24
10.67
1.29
-6.13
-10.46
-12.92
-16.38
-23.34
-34.64
-48.35
-60.79
-67.59
-64.94
-51.16
-26.84
4.41
36.39
60.65
71.92
70.46
61.08
51.67
44.82
40.09
35.53
29.55
22.46
16.95
16.33
22.54
35.28
50.71
63.47
69.40
66.88
57.01
42.59
26.25
9.48
-7.09
-23.02
-36.64
-45.84
-49.19
-46.75
-39.93
-30.86
-21.51
-13.11
-6.26
-0.60
3.67
5.88
5.41
2.28
-2.67
-8.08
-12.76
-16.48
-18.70
-19.26
-18.26
-16.30
-14.67
-15.33
-19.22
-25.99
-33.11
-36.32
-31.80
-18.76
-0.82
15.16
22.61
19.08
7.78
-3.77
-8.04
-1.71
12.86
29.62
41.90
46.13
43.37
37.94
34.77
36.49
42.46
49.92
56.32
60.88
64.59
68.45
69.76
64.32
48.54
22.03
-11.69
-46.59
-76.49
-97.07
-107.15
-108.61
-104.84
-99.21
-94.18
-90.95
-89.58
-88.98
-87.00
-80.87
-68.30
-48.51
-23.30
2.94
24.78
37.96
41.54
38.36
33.43
31.37
34.15
40.59
47.02
49.62
46.29
37.49
25.67
14.25
6.43
4.15
7.57
14.67
21.66
24.01
18.10
2.67
-20.75
-48.12
-73.98
-92.70
-100.47
-94.87
-76.39
-48.32
-16.11
14.09
37.29
50.70
55.22
53.92
50.41
47.02
44.45
42.65
41.48
41.23
42.29
44.73
47.97
51.21
53.80
55.24
55.25
53.28
48.56
40.40
28.85
14.96
0.63
-12.08
-21.63
-27.43
-29.74
-29.42
-27.58
-25.24
-23.27
-22.29
-22.49
-23.54
-24.56
-24.62
-23.12
-20.17
-16.56
-13.39
-11.58
-11.67
-13.61
-16.65
-19.29
-19.43
-15.15
-5.74
7.38
20.71
29.90
31.80
26.12
15.65
4.85
-2.52
-5.18
-4.38
-2.47
-1.32
-1.05
-0.82
-0.39
-1.00
-4.89
-13.40
-25.47
-37.84
-47.18
-52.19
-54.12
-54.97
-54.93
-51.15
-39.25
-16.94
13.43
44.50
67.17
75.28
68.82
53.52
37.27
25.75
19.92
16.79
12.45
4.95
-4.66
-13.29
-17.98
-17.66
-13.36
-7.33
-1.73
2.39
5.07
7.02
8.92
10.85
12.27
12.38
10.63
7.19
2.93
-0.95
-3.40
-3.97
-3.01
-1.33
0.21
1.10
1.16
0.55
-0.52
-1.78
-2.92
-3.68
-3.83
-3.42
-2.77
-2.33
-2.37
-2.82
-3.28
-3.32
-2.76
-1.78
-0.82
-0.31
-0.54
-1.48
-2.86
-4.22
-5.09
-5.02
-3.80
-1.54
1.40
4.40
6.87
8.41
8.97
8.76
8.15
7.44
6.65
5.69
4.50
3.26
2.30
2.08
2.84
4.36
6.01
7.12
7.29
6.63
5.72
5.33
5.93
7.74
10.55
14.00
17.72
21.41
24.71
26.96
27.16
24.21
17.41
6.68
-6.88
-21.56
-35.65
-47.96
-57.89
-65.21
-69.79
-71.59
-70.64
-67.40
-62.97
-58.90
-56.82
-57.96
-62.82
-70.43
-77.97
-81.06
-75.06
-57.06
-27.76
8.12
43.33
70.99
87.29
93.09
91.76
87.45
83.05
79.31
75.64
71.36
66.59
61.99
57.49
52.99
47.63
40.80
32.77
24.56
17.43
12.04
8.22
5.32
2.78
0.44
-1.65
-3.70
-6.40
-10.52
-16.15
-22.23
-26.68
-27.40
-23.48
-15.66
-6.13
2.45
8.18
10.58
10.53
9.55
8.99
9.64
11.63
14.48
17.13
18.05
15.44
7.99
-4.50
-20.75
-38.12
-53.41
-64.06
-69.16
-69.33
-66.40
-62.36
-58.79
-56.67
-56.70
-59.67
-65.62
-73.43
-80.07
-81.09
-72.45
-52.42
-23.29
9.16
37.97
57.91
67.48
68.92
65.97
62.63
60.55
59.27
57.62
55.24
52.98
52.32
54.38
58.91
64.71
70.09
73.13
72.52
67.55
58.31
45.87
32.11
19.02
7.86
-1.61
-10.85
-21.40
-33.35
-44.68
-51.81
-51.54
-43.18
-29.32
-15.03
-5.50
-3.64
-9.08
-19.06
-29.92
-38.94
-44.89
-47.77
-48.19
-46.88
-44.83
-43.40
-45.05
-51.41
-61.82
-72.54
-77.58
-71.14
-50.54
-17.99
20.56
57.44
86.49
104.84
112.71
111.89
104.27
91.27
74.27
55.32
37.07
22.00
11.04
3.32
-2.97
-8.96
-13.95
-15.93
-12.57
-3.45
9.17
20.59
25.51
20.25
4.29
-19.11
-43.80
-62.92
-71.50
-67.66
-53.11
-32.00
-9.49
9.54
21.01
22.23
12.77
-4.61
-23.69
-36.69
-37.82
-26.57
-8.68
6.81
12.57
7.24
-4.10
-13.45
-15.25
-9.84
-2.47
0.85
-2.07
-8.20
-11.39
-6.80
5.68
21.17
32.65
34.56
25.12
7.08
-13.64
-30.34
-38.12
-35.54
-24.97
-11.13
1.17
9.52
14.66
19.60
27.47
39.43
53.87
67.29
75.85
77.63
72.55
61.90
47.41
30.79
13.71
-2.06
-14.77
-23.21
-26.96
-26.81
-24.43
-21.90
-20.92
-22.43
-26.37
-31.82
-37.11
-40.36
-40.05
-35.42
-26.75
-15.31
-3.26
6.97
13.08
13.94
9.87
2.46
-5.90
-12.82
-16.68
-17.12
-14.72
-10.77
-6.56
-3.05
-0.66
0.67
1.26
1.61
2.14
3.14
4.69
6.54
8.19
8.99
8.40
6.23
2.77
-1.33
-5.35
-8.64
-10.95
-12.36
-13.13
-13.44
-13.38
-12.89
-11.87
-10.28
-8.20
-5.84
-3.41
-1.08
1.03
2.88
4.44
5.65
6.47
6.92
7.04
7.00
6.95
7.04
7.26
7.48
7.53
7.25
6.58
5.52
4.21
2.82
1.48
0.27
-0.77
-1.62
-2.25
-2.54
-2.41
-1.80
-0.76
0.53
1.82
2.84
3.41
3.53
3.33
3.03
2.89
3.11
3.74
4.67
5.64
6.34
6.56
6.21
5.40
4.35
3.31
2.47
1.86
1.38
0.85
0.10
-0.78
-1.71
-2.50
-2.98
-3.09
-2.88
-2.50
-2.14
-1.91
-1.82
-1.86
-1.98
-2.23
-2.71
-3.53
-4.71
-6.17
-7.67
-8.98
-9.90
-10.36
-10.47
-10.44
-10.54
-10.95
-11.67
-12.56
-13.42
-14.07
-14.48
-14.77
-15.13
-15.74
-16.64
-17.76
-18.94
-20.04
-21.01
-21.84
-22.61
-23.35
-24.06
-24.75
-25.29
-25.62
-25.75
-25.74
-25.64
-25.61
-25.80
-26.37
-27.39
-28.63
-29.64
-29.99
-29.42
-28.10
-26.60
-25.73
-26.23
-28.53
-32.24
-36.64
-41.11
-45.28
-49.18
-53.16
-57.54
-62.57
-68.25
-73.54
-77.41
-79.01
-77.20
-70.17
-56.15
-33.93
-4.70
27.52
58.34
83.04
98.29
103.97
103.60
101.87
103.21
108.93
117.42
128.37
141.24
155.17
169.22
182.69
193.61
200.71
202.16
196.76
187.91
179.17
172.04
166.41
162.38
160.00
161.74
169.43
163.38
134.47
87.56
34.92
-14.47
-49.93
-76.31
-95.89
-109.98
-119.68
-123.68
-120.75
-112.39
-101.74
-91.35
-83.39
-77.22
-72.62
-69.15
-63.51
-53.68
-40.78
-27.89
-17.75
-12.41
-10.98
-13.14
-17.34
-19.46
-16.74
-9.84
-1.87
4.15
6.25
5.12
0.34
-6.64
-11.40
-10.11
-2.33
9.33
20.57
25.74
19.12
-7.11
-55.75
-121.19
-191.84
-254.64
-298.16
-315.02
-303.77
-250.77
-163.73
-68.88
9.92
65.86
103.46
127.84
140.31
139.48
124.83
96.58
60.79
27.88
6.65
-0.61
2.20
8.27
11.68
9.98
2.30
-8.12
-15.48
-15.54
-8.32
2.51
13.17
21.03
25.40
25.79
23.42
20.73
19.62
20.15
21.13
21.32
20.14
17.93
14.91
11.95
10.28
10.59
12.41
14.42
15.34
14.41
11.74
7.80
3.48
-0.51
-3.68
-6.16
-8.40
-10.74
-13.22
-15.53
-17.29
-18.32
-18.80
-19.03
-19.19
-19.10
-18.38
-16.90
-15.23
-14.54
-15.95
-19.68
-24.52
-28.31
-29.00
-25.74
-19.44
-12.32
-6.60
-3.34
-1.95
-0.75
1.88
6.50
12.32
17.79
21.40
22.54
21.87
20.84
20.90
22.73
25.87
29.06
30.82
29.88
25.66
18.54
9.79
1.03
-6.11
-10.43
-11.41
-9.27
-5.21
-0.98
1.56
1.03
-3.04
-9.64
-16.16
-18.63
-12.08
6.15
33.92
64.75
90.83
105.95
107.40
96.06
76.09
53.38
33.80
21.86
19.69
26.21
37.02
45.62
46.22
35.70
14.97
-11.81
-38.99
-61.81
-78.11
-88.58
-93.05
-94.06
-93.46
-91.41
-87.60
-82.29
-76.72
-72.59
-70.97
-71.65
-73.90
-76.61
-79.14
-81.26
-82.20
-79.66
-70.12
-50.55
-20.47
16.44
53.66
84.15
103.01
108.94
103.93
91.43
74.64
56.06
38.06
23.74
16.30
17.61
26.18
37.61
46.24
47.40
39.41
24.16
6.07
-9.78
-19.33
-20.51
-13.74
-1.42
13.07
26.26
35.75
40.61
41.73
40.87
39.26
36.55
30.95
20.78
5.86
-11.58
-27.49
-37.22
-37.46
-27.62
-10.12
10.30
28.03
38.27
38.39
28.72
12.05
-7.40
-25.34
-38.85
-47.17
-51.48
-53.61
-54.35
-54.27
-52.88
-49.89
-46.03
-42.70
-41.69
-43.67
-48.02
-53.25
-58.03
-61.58
-63.34
-62.51
-57.63
-47.26
-31.00
-10.47
10.90
29.39
42.40
49.36
51.46
50.55
48.09
45.05
42.37
41.31
42.74
46.61
51.50
55.12
55.50
51.86
45.06
36.27
27.21
19.20
13.55
11.85
15.36
23.77
34.44
43.06
45.70
41.23
32.15
23.37
19.12
20.17
23.09
22.35
13.64
-3.43
-24.87
-44.58
-57.36
-61.50
-59.09
-54.45
-51.16
-51.46
-54.91
-59.44
-62.62
-62.59
-58.06
-48.70
-35.21
-19.13
-3.00
10.53
19.65
24.01
24.62
23.15
20.88
18.24
15.00
10.88
6.15
1.56
-2.21
-5.00
-7.24
-9.48
-11.73
-13.28
-12.91
-9.64
-3.32
5.01
13.54
20.55
25.06
27.02
26.99
25.53
22.78
18.55
12.63
5.28
-2.45
-9.10
-13.03
-12.97
-8.38
0.38
12.08
24.95
36.94
46.01
50.35
48.95
41.96
31.02
18.99
9.25
4.26
4.42
7.68
10.13
7.98
-0.74
-15.00
-31.07
-44.18
-50.90
-50.62
-45.36
-39.28
-35.69
-35.84
-38.97
-43.58
-48.69
-54.33
-60.78
-66.66
-68.56
-61.66
-42.37
-10.89
27.41
63.36
87.50
93.88
82.65
59.70
34.37
15.57
8.80
14.52
29.01
46.55
61.55
70.12
70.36
62.02
45.63
23.47
-0.76
-22.16
-35.85
-39.11
-33.26
-24.03
-19.26
-24.92
-41.71
-64.03
-82.25
-87.05
-73.70
-43.90
-4.67
34.79
66.13
84.07
86.94
75.62
53.06
23.24
-9.68
-41.94
-70.48
-92.31
-104.30
-103.80
-90.01
-65.44
-36.01
-9.36
8.90
17.87
21.60
26.24
35.95
50.00
63.40
69.72
65.15
50.80
31.93
15.06
4.59
0.84
0.74
0.38
-2.56
-7.13
-9.84
-7.16
1.61
12.99
20.84
20.20
10.45
-3.75
-15.48
-20.18
-19.11
-18.42
-24.51
-39.37
-58.15
-72.56
-76.11
-68.25
-54.24
-41.29
-33.43
-29.14
-23.57
-11.32
8.15
30.45
49.76
63.13
72.13
80.89
93.84
108.55
119.05
118.49
103.32
75.67
42.81
13.86
-5.20
-11.12
-7.68
-2.01
-1.27
-8.84
-23.51
-41.15
-57.25
-68.60
-73.34
-71.99
-63.71
-48.31
-27.04
-3.18
18.26
32.20
35.59
28.74
13.94
-2.60
-15.75
-23.31
-25.65
-23.88
-18.85
-10.94
-1.04
8.22
13.11
9.67
-3.64
-24.41
-46.61
-63.35
-69.03
-62.15
-46.32
-27.84
-12.73
-3.68
0.66
3.77
8.16
13.61
17.45
16.86
11.31
3.18
-3.47
-5.14
-0.52
8.67
18.95
26.90
30.99
31.96
31.79
32.35
34.38
37.61
40.66
41.57
38.55
30.76
18.87
5.38
-5.55
-9.18
-1.54
17.86
44.87
71.73
90.21
94.72
84.00
60.41
25.03
-18.13
-61.91
-96.80
-113.63
-106.90
-77.70
-34.90
7.24
34.79
41.22
29.73
10.59
-5.27
-12.06
-11.06
-7.92
-7.04
-8.86
-9.80
-5.91
3.77
16.12
25.81
28.07
21.16
6.99
-10.44
-26.70
-38.96
-46.79
-51.56
-53.63
-52.97
-49.21
-42.09
-32.06
-20.18
-7.76
3.59
12.30
17.61
19.64
19.63
19.79
22.51
29.37
40.20
50.65
53.31
41.74
15.77
-16.42
-41.90
-50.17
-38.25
-11.52
18.27
38.15
41.51
28.58
5.42
-18.77
-36.03
-41.32
-32.28
-7.67
27.38
63.40
91.03
103.86
100.05
83.35
55.96
22.00
-12.85
-43.37
-65.66
-77.76
-81.64
-78.65
-75.64
-80.14
-94.70
-115.59
-134.65
-142.22
-130.21
-100.22
-54.30
0.13
53.33
97.02
126.06
138.89
130.80
104.83
69.79
36.95
14.00
3.56
4.07
10.79
17.89
20.86
19.03
13.83
7.90
2.85
-1.42
-5.30
-9.31
-14.18
-20.62
-28.31
-36.44
-43.19
-46.27
-43.28
-32.88
-15.81
5.32
26.71
44.23
54.63
54.78
44.46
26.65
5.81
-14.38
-31.32
-42.94
-47.24
-43.25
-32.09
-16.63
-1.05
10.57
15.89
15.01
9.94
3.56
-1.49
-4.30
-4.55
-2.12
2.85
9.97
18.43
27.02
34.39
39.23
40.34
36.80
28.29
15.29
-0.81
-17.88
-33.71
-46.59
-55.30
-59.31
-58.10
-50.79
-37.29
-19.51
-1.46
12.32
19.32
20.60
20.00
21.90
29.19
41.60
56.58
71.46
85.24
98.56
111.49
121.39
119.43
98.27
57.10
4.24
-46.93
-85.50
-107.55
-115.83
-116.75
-116.98
-119.93
-125.76
-132.02
-134.70
-129.20
-111.51
-80.26
-38.07
8.59
52.39
87.14
109.60
119.69
119.26
110.96
96.91
79.79
60.30
40.97
24.84
14.23
9.29
8.03
7.87
6.64
3.39
-1.35
-5.72
-8.39
-9.32
-10.16
-13.53
-21.39
-34.06
-50.51
-69.18
-88.33
-106.27
-120.66
-128.10
-126.63
-112.77
-86.19
-50.41
-11.70
23.63
51.60
71.77
86.11
96.74
104.53
107.86
104.46
93.69
77.90
61.86
50.78
47.94
51.68
59.04
65.63
67.82
64.44
57.22
49.66
45.07
44.90
48.04
50.06
46.88
36.71
20.93
2.59
-15.68
-32.63
-48.14
-62.34
-74.66
-83.99
-89.33
-90.58
-88.68
-85.13
-81.12
-76.95
-72.06
-65.46
-56.35
-44.66
-31.20
-17.37
-4.69
5.61
12.84
16.85
17.98
17.01
14.87
12.44
10.37
8.97
8.28
8.06
7.96
7.64
6.99
6.04
4.98
4.14
3.62
3.73
4.42
5.42
6.31
6.76
6.51
5.54
4.01
2.21
0.49
-0.89
-1.73
-1.92
-1.42
-0.36
0.98
2.28
3.24
3.75
3.85
3.71
3.43
3.06
2.39
1.38
0.16
-0.87
-1.21
-0.58
0.91
2.81
4.60
5.80
6.28
6.18
5.68
4.87
3.69
1.95
-0.64
-3.57
-6.69
-9.98
-13.44
-16.90
-20.01
-22.22
-23.06
-22.34
-20.25
-17.44
-14.57
-12.11
-10.22
-8.80
-7.74
-7.03
-6.72
-6.73
-6.89
-6.80
-6.09
-4.41
-1.57
2.33
6.93
11.85
16.87
21.74
26.29
30.11
33.03
35.19
36.61
37.01
36.08
33.73
30.07
25.51
20.19
14.65
9.76
5.74
1.90
-2.49
-7.60
-13.13
-18.49
-23.80
-28.81
-32.64
-35.30
-37.92
-41.39
-45.75
-50.65
-55.90
-62.78
-72.05
-82.59
-93.15
-102.48
-107.95
-105.87
-93.81
-67.45
-33.02
-3.19
14.29
20.65
19.36
13.57
6.69
0.03
-4.74
-6.46
-1.97
14.40
44.43
83.40
122.13
150.72
162.16
155.94
137.95
109.59
82.69
68.22
66.29
68.63
67.86
62.51
56.07
51.95
50.60
50.43
46.64
34.83
15.05
-7.82
-27.21
-38.03
-39.27
-33.83
-25.41
-18.70
-17.18
-21.17
-27.94
-33.87
-36.42
-35.33
-32.16
-28.54
-26.29
-26.45
-28.36
-30.13
-29.96
-27.44
-23.65
-20.61
-19.64
-21.18
-24.46
-27.98
-30.49
-31.53
-31.27
-29.66
-25.93
-18.89
-8.29
4.31
15.86
23.44
26.05
25.26
24.42
26.38
31.31
36.35
37.29
31.25
18.69
3.55
-9.12
-15.47
-14.82
-9.74
-4.30
-1.64
-2.17
-3.70
-3.30
0.42
6.27
11.14
11.91
7.57
0.03
-7.18
-10.97
-10.36
-6.57
-1.86
1.89
3.96
4.51
3.81
1.85
-1.15
-4.15
-5.39
-3.16
2.91
11.33
19.09
23.06
21.32
13.94
2.49
-10.77
-23.96
-35.80
-45.98
-54.97
-63.67
-73.10
-83.43
-93.14
-98.76
-95.56
-79.55
-49.56
-9.10
33.90
69.63
90.21
93.08
82.06
66.08
52.48
45.58
44.90
46.35
45.17
38.83
28.14
15.82
5.68
-0.59
-3.43
-4.91
-6.82
-9.50
-11.88
-12.53
-10.90
-7.52
-4.10
-2.16
-2.29
-3.90
-5.73
-6.56
-5.83
-3.91
-1.59
0.36
1.73
2.70
3.55
4.26
4.43
3.58
1.29
-2.43
-7.33
-12.67
-17.17
-18.85
-15.36
-5.14
11.99
32.27
49.60
58.29
56.05
44.98
30.48
18.91
12.85
12.18
14.80
18.48
21.82
24.33
25.77
25.12
21.77
15.78
8.35
1.11
-4.42
-7.52
-8.53
-8.58
-9.12
-11.35
-16.18
-23.78
-33.56
-43.99
-52.91
-58.30
-59.18
-56.18
-51.17
-46.52
-43.87
-43.74
-45.33
-47.17
-47.94
-46.94
-44.51
-41.52
-38.98
-37.66
-38.04
-40.43
-44.84
-50.42
-54.96
-54.93
-46.71
-28.52
-1.97
27.88
54.32
71.88
78.63
76.52
69.66
61.83
54.51
46.98
37.98
27.70
18.40
13.34
14.68
21.99
32.23
41.40
46.36
46.48
43.22
38.81
34.97
31.94
28.68
23.91
17.14
9.12
1.47
-4.24
-7.24
-7.88
-7.30
-6.83
-7.33
-8.85
-10.85
-12.54
-13.43
-13.53
-13.23
-13.03
-13.23
-13.68
-13.92
-13.46
-12.07
-10.00
-7.83
-6.22
-5.62
-6.01
-7.05
-8.22
-9.14
-9.56
-9.40
-8.59
-7.00
-4.58
-1.61
1.28
3.25
3.66
2.41
0.04
-2.52
-4.32
-4.90
-4.41
-3.50
-2.94
-3.29
-4.69
-6.88
-9.29
-11.17
-11.81
-10.96
-8.69
-5.26
-1.09
3.29
7.36
10.52
12.33
12.82
12.18
10.97
9.95
9.73
10.38
11.38
11.82
10.94
8.46
4.35
-0.67
-5.13
-7.43
-6.83
-3.60
1.24
6.43
10.98
13.08
12.02
9.19
7.36
9.04
15.49
26.67
41.42
57.36
68.94
72.28
68.35
62.14
59.34
64.07
77.90
99.55
125.17
145.36
152.76
146.70
131.69
112.04
89.51
63.62
32.87
-4.02
-53.02
-117.14
-192.73
-272.40
-350.69
-424.45
-490.09
-541.76
-537.06
-455.20
-319.31
-176.24
-58.80
23.20
74.29
104.57
123.87
138.40
144.58
138.47
122.49
104.54
91.81
87.64
91.69
101.16
112.34
117.42
111.84
97.91
82.50
71.53
67.70
70.98
79.55
90.36
97.01
94.32
81.39
61.32
38.57
17.43
1.28
-8.09
-11.05
-11.05
-11.64
-14.18
-17.70
-20.46
-21.30
-20.07
-17.58
-15.09
-14.09
-15.17
-17.64
-20.15
-21.56
-21.57
-20.52
-19.13
-18.04
-17.57
-17.65
-17.89
-17.83
-17.17
-15.88
-14.13
-12.21
-10.41
-8.87
-7.55
-6.33
-5.00
-3.44
-1.62
0.37
2.29
3.92
5.02
5.50
5.41
4.93
4.33
3.82
3.54
3.48
3.51
3.45
3.18
2.66
1.99
1.35
0.92
0.79
0.95
1.24
1.43
1.38
1.04
0.51
-0.05
-0.45
-0.62
-0.62
-0.59
-0.64
-0.87
-1.25
-1.72
-2.21
-2.72
-3.27
-3.90
-4.56
-5.18
-5.62
-5.80
-5.75
-5.69
-5.89
-6.55
-7.69
-9.13
-10.59
-11.80
-12.70
-13.46
-14.44
-16.00
-18.32
-21.26
-24.43
-27.19
-28.95
-29.39
-28.41
-26.36
-23.94
-21.82
-20.45
-19.94
-20.08
-20.49
-20.75
-20.45
-19.29
-17.24
-14.49
-11.45
-8.52
-5.96
-3.69
-1.31
1.69
5.53
9.94
14.23
17.56
19.31
19.41
18.33
17.00
16.51
17.73
21.05
26.27
32.49
38.41
42.78
44.92
44.86
43.25
40.82
38.02
34.84
30.92
25.87
19.53
12.03
3.66
-5.34
-14.70
-24.06
-32.85
-40.31
-45.64
-48.23
-47.84
-44.62
-38.85
-30.98
-21.51
-10.83
0.56
11.98
22.48
31.01
36.78
39.66
40.14
39.09
37.81
37.41
38.15
39.20
38.96
36.02
30.49
23.84
18.30
16.62
20.53
29.88
42.55
55.53
66.08
73.01
75.64
73.06
64.99
52.23
37.35
24.40
17.94
20.94
33.82
52.93
67.63
67.93
50.20
20.17
-11.39
-33.64
-46.12
-51.79
-54.16
-55.46
-55.72
-53.74
-48.92
-42.39
-36.61
-34.21
-35.89
-40.90
-47.65
-53.93
-57.73
-57.99
-54.90
-49.45
-43.12
-36.68
-30.86
-26.36
-23.25
-21.03
-18.92
-16.38
-13.39
-10.47
-8.01
-6.34
-5.61
-5.47
-5.27
-4.49
-3.00
-1.21
0.24
0.99
1.06
0.74
0.57
0.96
1.97
3.23
4.20
4.48
4.15
3.73
3.84
4.99
7.26
10.40
13.88
17.13
19.67
21.18
21.54
20.83
19.41
17.72
16.19
14.87
13.42
11.24
7.85
3.28
-1.88
-6.64
-10.10
-11.77
-11.78
-10.81
-9.60
-8.62
-7.96
-7.48
-6.98
-6.22
-5.02
-3.35
-1.32
0.97
3.34
5.62
7.50
8.70
9.15
9.06
8.72
8.28
7.81
7.30
6.61
5.59
4.22
2.91
2.44
3.72
7.25
13.00
19.99
26.09
28.18
22.20
5.42
-21.39
-53.60
-85.34
-111.88
-130.48
-139.61
-138.02
-124.56
-98.95
-62.85
-20.32
22.87
61.36
91.13
109.73
115.93
109.52
92.07
67.54
42.84
22.89
11.38
9.04
13.31
19.66
23.74
23.17
18.18
10.17
1.75
-5.06
-9.74
-12.94
-15.21
-16.62
-16.76
-15.18
-11.87
-7.66
-3.74
-1.43
-1.57
-4.20
-8.57
-13.30
-16.85
-18.23
-17.35
-14.75
-11.57
-8.90
-7.30
-6.65
-6.29
-5.52
-3.90
-1.52
1.21
3.85
6.05
7.44
7.63
6.35
3.70
0.40
-2.15
-2.08
2.34
11.62
24.41
36.98
44.81
45.09
37.98
26.03
12.60
0.44
-9.05
-15.61
-19.51
-20.93
-19.77
-16.16
-10.86
-5.26
-1.00
0.38
-1.72
-6.46
-11.70
-14.56
-12.62
-5.22
6.26
18.85
28.97
33.20
29.87
19.42
4.24
-11.60
-23.18
-25.79
-16.83
2.14
24.75
41.44
43.23
26.11
-6.02
-42.05
-67.83
-72.42
-53.51
-18.83
17.35
40.19
40.53
18.35
-18.17
-57.16
-87.45
-101.69
-97.62
-77.05
-44.26
-4.39
36.88
70.66
89.05
87.45
66.96
35.52
5.45
-11.96
-12.19
1.65
19.99
32.41
33.31
24.54
13.51
7.72
10.19
16.91
20.79
17.02
6.89
-3.69
-8.71
-6.21
0.31
4.60
1.50
-9.47
-24.16
-36.02
-39.99
-34.83
-23.64
-12.05
-5.28
-5.69
-11.84
-19.69
-24.65
-23.91
-17.75
-8.91
-1.08
2.99
2.65
-0.59
-4.26
-6.08
-5.01
-1.49
3.06
7.02
9.49
10.60
11.50
13.32
16.36
19.77
21.98
21.69
18.76
14.33
10.11
7.57
6.93
7.31
7.47
6.68
4.98
2.95
1.23
0.01
-0.93
-1.85
-2.67
-2.98
-2.39
-0.94
0.73
1.70
1.35
-0.30
-2.49
-4.03
-3.90
-1.93
1.14
3.87
5.17
4.89
3.88
3.46
4.65
7.47
10.77
12.82
11.92
7.58
0.73
-6.73
-12.55
-15.08
-13.52
-8.42
-1.67
3.44
3.50
-4.16
-20.41
-43.26
-67.72
-86.86
-94.00
-83.43
-56.60
-19.79
18.31
49.59
69.23
76.44
73.61
64.45
52.44
39.73
27.95
18.48
12.44
10.57
12.69
17.56
23.14
27.26
28.27
25.55
19.84
12.43
4.98
-1.09
-4.85
-5.84
-3.92
0.78
7.91
16.43
24.05
27.88
25.10
14.36
-3.11
-23.77
-43.04
-57.17
-64.16
-65.46
-63.99
-62.39
-61.83
-61.81
-61.13
-58.94
-55.17
-50.32
-44.90
-38.74
-31.08
-21.25
-9.18
4.03
16.35
25.60
30.40
30.70
27.90
23.89
20.19
17.43
15.40
13.71
12.33
11.66
12.13
13.68
15.27
15.39
12.82
7.29
-0.29
-8.19
-14.42
-17.31
-15.66
-9.08
1.95
15.96
30.63
43.39
52.14
56.08
55.50
52.51
49.40
48.03
49.23
52.65
56.76
59.27
58.05
51.52
39.69
23.91
6.46
-10.25
-24.34
-34.79
-41.34
-44.22
-44.16
-42.27
-40.04
-38.81
-39.23
-40.91
-42.42
-42.25
-39.68
-35.25
-30.26
-26.07
-23.22
-21.27
-19.26
-16.51
-13.06
-9.68
-7.25
-5.89
-4.75
-2.41
2.24
9.12
16.72
22.70
25.05
23.24
18.66
13.87
11.22
11.63
14.08
16.23
15.88
12.20
6.22
0.14
-3.82
-4.63
-2.80
0.04
2.11
2.25
0.52
-2.13
-4.30
-4.73
-2.68
1.71
7.26
11.96
13.63
10.85
3.64
-6.33
-16.42
-23.96
-27.20
-25.60
-19.50
-9.87
1.55
12.07
18.51
18.44
11.60
0.46
-10.62
-17.38
-17.57
-11.80
-2.81
6.43
13.93
19.28
23.09
25.91
27.57
27.21
23.98
17.88
9.81
1.08
-7.12
-14.36
-21.12
-28.39
-36.99
-46.84
-56.34
-62.85
-63.50
-56.26
-41.08
-20.39
1.34
18.95
28.71
30.03
25.71
20.80
20.10
25.52
34.88
43.58
47.01
43.02
33.41
22.06
12.71
6.97
4.02
1.77
-1.17
-4.71
-7.46
-7.95
-5.91
-2.56
0.10
0.32
-2.25
-6.31
-9.60
-10.05
-6.91
-1.19
4.83
8.75
9.13
6.28
2.04
-1.40
-2.58
-1.62
-0.24
-1.02
-5.97
-15.15
-26.03
-34.20
-35.37
-27.08
-10.33
10.54
29.20
39.53
37.30
21.48
-5.41
-37.80
-68.05
-88.12
-91.62
-75.99
-43.93
-3.10
36.23
64.79
77.49
74.63
60.66
41.75
23.28
8.46
-1.77
-7.72
-9.87
-8.62
-4.71
0.46
5.10
7.34
6.09
1.12
-7.08
-16.51
-23.48
-23.82
-15.25
0.98
20.36
37.30
47.65
50.56
48.27
44.16
40.25
36.14
29.95
20.28
7.93
-4.44
-13.53
-17.44
-16.39
-12.25
-7.44
-4.13
-4.00
-8.05
-16.57
-28.45
-41.00
-50.42
-53.29
-48.26
-36.85
-22.69
-9.75
-0.56
4.68
7.44
9.50
11.46
12.58
11.38
7.12
0.84
-4.85
-7.05
-4.76
0.71
6.15
7.82
3.57
-5.93
-17.42
-26.36
-28.41
-22.42
-10.86
1.86
11.80
17.37
19.49
20.24
21.65
24.49
27.98
30.85
31.57
29.48
25.10
19.83
14.57
9.27
2.61
-7.26
-21.12
-37.36
-52.16
-61.01
-58.83
-45.77
-26.32
-6.41
9.70
20.79
28.39
33.72
36.22
34.41
27.19
15.74
3.41
-5.73
-8.76
-4.67
4.97
16.48
25.54
27.82
20.63
3.86
-19.56
-44.32
-62.54
-66.49
-53.95
-30.55
-6.46
9.89
15.69
14.19
9.78
6.05
4.50
4.44
4.42
3.15
0.21
-3.53
-6.13
-5.54
-0.25
9.65
22.17
34.01
41.28
41.15
33.67
21.88
10.19
2.67
1.55
6.78
16.42
27.07
35.04
37.68
33.16
19.73
-3.78
-36.60
-73.44
-100.98
-105.51
-84.35
-47.58
-10.58
14.39
22.71
17.76
7.76
0.88
0.61
4.95
9.19
8.98
2.61
-7.77
-17.08
-19.53
-11.81
4.31
22.11
34.81
38.02
31.59
19.27
6.62
-1.73
-4.21
-2.76
-0.94
-0.93
-2.41
-3.08
-0.47
6.31
16.06
25.96
32.67
33.87
29.27
20.55
10.53
2.37
-1.89
-1.96
0.59
3.07
2.87
-1.30
-8.83
-17.41
-24.17
-26.95
-25.02
-19.10
-10.60
-0.86
9.15
18.86
27.70
34.69
38.50
38.26
34.31
28.43
23.20
20.37
20.38
22.07
22.99
20.44
12.97
1.18
-12.54
-25.24
-35.31
-41.77
-44.17
-42.71
-38.41
-32.60
-26.48
-20.99
-16.98
-16.19
-18.93
-23.78
-28.85
-33.22
-37.02
-40.98
-46.07
-53.39
-65.45
-82.90
-103.63
-123.86
-139.41
-146.20
-140.64
-120.78
-78.64
-19.52
40.34
86.62
115.84
132.01
140.16
142.77
139.64
129.58
111.09
86.34
60.91
40.53
27.98
22.57
21.58
21.82
20.95
16.96
10.27
3.27
-1.54
-3.12
-2.00
0.46
2.74
3.26
0.12
-7.26
-17.53
-28.17
-36.66
-41.23
-41.67
-38.45
-33.06
-27.57
-23.23
-20.03
-17.28
-14.33
-10.93
-7.12
-3.04
1.07
4.81
7.65
9.22
9.29
7.95
5.86
3.97
3.00
2.96
3.39
3.53
2.90
1.63
0.31
-0.14
0.83
3.28
6.68
10.23
13.18
15.07
15.87
15.17
13.13
10.16
6.77
3.31
-0.04
-3.23
-6.27
-9.12
-11.68
-13.76
-15.36
-16.59
-17.54
-18.12
-17.98
-16.63
-13.79
-9.69
-5.02
-0.70
2.67
5.15
7.51
10.66
14.93
19.70
23.44
24.45
21.66
15.21
6.47
-2.43
-9.50
-13.49
-14.28
-12.67
-9.97
-7.49
-6.23
-6.66
-8.62
-11.41
-13.98
-15.19
-14.25
-11.02
-6.08
-0.52
4.49
8.19
10.42
11.52
11.99
12.09
11.80
10.95
9.50
7.67
5.85
4.43
3.59
3.27
3.22
3.25
3.23
3.19
3.16
3.17
3.15
3.09
2.99
2.80
2.52
2.22
2.02
2.07
2.42
2.99
3.78
4.76
5.89
7.18
8.61
10.09
11.32
11.93
11.60
10.62
9.66
9.48
10.69
13.59
17.92
22.95
27.55
30.55
31.61
31.03
29.48
27.74
26.44
25.93
26.48
28.54
30.08
29.66
25.88
17.48
4.18
-12.53
-29.40
-42.72
-50.26
-52.40
-51.42
-49.28
-46.55
-42.38
-35.33
-24.58
-10.60
5.11
19.66
31.09
38.72
42.66
42.91
39.18
31.45
20.67
8.64
-2.87
-12.45
-19.74
-25.16
-29.12
-31.79
-33.02
-32.49
-30.23
-26.78
-22.91
-19.47
-17.32
-16.48
-16.53
-16.65
-15.77
-13.20
-8.97
-3.80
1.05
4.17
4.79
2.67
-1.87
-7.69
-12.87
-15.14
-12.46
-3.91
9.56
25.57
40.63
50.38
51.74
44.83
33.04
21.08
13.01
8.67
6.40
4.39
1.93
0.06
0.97
6.49
16.76
29.80
41.46
46.99
42.37
25.62
-2.00
-36.07
-69.68
-94.82
-104.45
-94.95
-67.75
-29.93
7.83
34.97
44.94
37.45
17.61
-7.12
-30.30
-48.71
-62.39
-72.68
-80.75
-87.07
-91.55
-94.00
-93.99
-90.33
-81.09
-64.52
-40.04
-9.39
23.51
53.80
77.69
93.42
101.52
104.75
104.53
102.20
98.55
93.67
87.19
78.56
67.29
53.41
37.68
21.46
6.66
-5.26
-13.50
-18.04
-19.38
-18.21
-15.32
-11.58
-8.11
-5.81
-5.30
-6.60
-9.09
-11.67
-13.24
-12.94
-10.47
-6.29
-1.63
1.96
3.20
1.70
-1.72
-5.47
-7.89
-8.22
-6.92
-5.30
-4.88
-6.28
-8.76
-10.62
-10.22
-7.08
-2.21
2.34
4.68
4.11
1.54
-1.13
-2.29
-1.81
-1.10
-2.35
-7.07
-14.97
-23.93
-30.77
-32.74
-28.84
-20.42
-10.17
-0.97
5.14
7.37
5.87
1.60
-3.98
-9.32
-12.91
-13.35
-9.39
-0.30
13.98
30.85
45.71
54.44
55.22
48.56
36.56
22.24
8.61
-2.14
-9.34
-13.39
-15.17
-15.51
-14.86
-13.39
-11.20
-8.79
-7.08
-7.09
-8.90
-11.37
-12.67
-11.28
-6.90
-0.77
4.78
7.39
5.76
0.39
-6.69
-12.85
-15.98
-15.20
-10.83
-4.18
2.96
8.64
11.26
10.11
5.64
-0.48
-5.86
-8.28
-6.68
-1.37
5.58
11.43
13.84
11.53
4.67
-5.18
-15.37
-22.98
-25.88
-23.64
-17.61
-10.17
-3.48
1.51
5.12
7.86
9.39
8.39
3.67
-4.33
-12.71
-17.21
-14.47
-3.99
11.46
27.10
38.45
43.02
40.58
32.35
20.08
5.75
-8.21
-18.90
-23.64
-21.30
-12.96
-2.05
7.12
11.35
9.79
3.99
-3.28
-9.55
-13.54
-15.00
-14.16
-11.21
-6.38
-0.31
5.69
9.90
11.20
9.63
6.45
3.30
1.48
1.32
2.15
2.95
2.93
1.87
0.06
-1.98
-3.77
-4.96
-5.49
-5.39
-4.73
-3.65
-2.38
-1.19
-0.26
0.26
0.38
0.18
-0.17
-0.49
-0.66
-0.61
-0.35
0.07
0.54
0.86
0.89
0.58
0.07
-0.36
-0.47
-0.09
0.80
1.90
2.71
2.73
1.82
0.25
-1.33
-2.22
-1.91
-0.33
1.97
3.95
4.70
3.91
2.11
0.33
-0.36
0.67
3.41
6.88
9.44
9.68
7.21
2.88
-1.71
-4.81
-5.12
-2.04
3.95
11.33
18.26
23.03
24.13
20.27
10.56
-5.64
-25.54
-43.10
-52.77
-52.93
-46.09
-36.67
-28.57
-23.38
-19.81
-14.58
-5.05
8.61
23.29
34.55
38.92
35.87
27.93
19.31
13.65
12.25
13.14
13.69
12.50
9.98
7.59
6.56
6.93
7.69
7.09
4.16
-0.98
-6.86
-11.49
-13.63
-12.56
-8.63
-3.10
2.23
5.49
5.92
4.69
4.45
7.97
16.23
27.79
39.30
46.84
48.02
41.49
28.09
10.21
-9.08
-26.83
-40.57
-48.92
-49.82
-44.74
-38.39
-36.51
-43.19
-58.55
-78.16
-94.41
-99.56
-88.74
-62.58
-26.74
10.20
39.81
56.66
59.82
52.62
40.54
28.67
19.51
13.25
9.01
6.21
5.12
6.44
10.28
15.47
19.83
20.57
16.01
6.70
-4.46
-13.13
-15.09
-7.94
7.76
28.16
47.50
60.37
63.69
57.60
45.01
30.16
16.85
7.29
1.76
-0.93
-2.41
-3.87
-5.73
-7.70
-9.16
-9.65
-9.22
-8.45
-7.92
-7.92
-8.46
-9.29
-10.28
-11.96
-15.55
-22.32
-32.48
-44.13
-53.39
-55.85
-48.68
-32.43
-11.18
8.99
22.63
27.12
23.41
15.03
6.13
-0.26
-3.14
-3.04
-1.21
1.19
3.47
5.31
6.52
7.02
6.80
5.96
4.86
3.96
3.76
4.41
5.65
6.83
7.24
6.48
4.71
2.57
0.80
-0.10
-0.08
0.61
1.68
2.97
4.38
5.66
6.35
5.80
3.59
-0.08
-4.18
-7.21
-7.80
-5.52
-1.23
3.19
5.87
5.72
2.94
-1.18
-5.09
-7.74
-8.78
-8.19
-5.87
-1.56
4.56
11.26
16.19
16.91
12.30
3.61
-5.89
-12.73
-15.17
-14.12
-12.20
-11.79
-13.45
-15.66
-16.26
-13.68
-8.27
-2.09
2.43
3.99
3.23
1.81
1.45
3.04
6.12
9.24
10.98
10.74
8.83
6.28
4.00
2.31
0.84
-0.94
-3.28
-5.65
-6.93
-6.26
-3.08
2.26
8.29
12.86
13.91
10.03
0.48
-14.56
-33.65
-52.93
-66.63
-68.85
-55.85
-27.90
10.31
50.79
85.42
104.94
104.62
87.26
60.88
34.09
12.64
-0.85
-7.44
-8.19
-4.41
2.49
10.04
15.16
15.24
9.13
-1.40
-12.92
-20.89
-22.21
-16.52
-6.71
1.88
3.32
-7.10
-31.14
-66.90
-106.06
-135.74
-144.56
-128.90
-94.25
-51.41
-12.69
18.17
41.06
58.32
72.50
84.80
94.81
99.43
94.75
80.14
58.59
34.63
12.86
-4.01
-15.52
-22.22
-24.65
-22.47
-15.05
-2.64
12.36
26.37
35.80
38.18
33.17
22.70
10.34
-0.19
-6.35
-7.85
-5.75
-1.59
3.11
7.30
10.58
13.20
15.57
17.66
18.55
16.79
11.69
3.78
-5.24
-13.40
-19.56
-24.15
-29.00
-36.22
-46.64
-59.19
-71.55
-81.50
-87.89
-90.55
-89.30
-83.20
-70.87
-51.80
-27.70
-2.57
18.93
33.70
41.54
44.85
46.75
49.05
51.47
52.19
49.29
42.28
32.32
21.77
13.89
11.81
17.64
31.41
49.97
67.29
76.33
72.23
54.98
29.63
3.97
-15.29
-25.33
-27.61
-25.86
-23.44
-21.57
-19.61
-16.39
-11.58
-6.08
-1.20
2.10
3.99
5.15
6.43
7.98
9.17
8.72
5.39
-1.60
-12.19
-24.57
-35.85
-42.79
-43.45
-38.36
-30.50
-24.04
-22.65
-27.65
-37.05
-46.30
-50.20
-45.63
-33.31
-17.67
-4.68
1.25
-0.64
-7.13
-13.11
-14.20
-8.92
0.84
11.12
17.85
19.11
15.52
9.66
4.47
1.86
2.22
4.78
8.39
11.82
14.28
15.30
14.55
11.90
7.75
3.11
-0.64
-2.06
-0.30
4.61
11.63
19.15
25.24
27.94
25.62
17.63
5.16
-8.58
-19.14
-22.61
-17.41
-5.12
10.45
25.05
35.87
42.42
46.10
48.93
52.16
55.40
56.65
53.43
44.21
29.83
13.54
-0.21
-7.81
-8.38
-4.17
0.71
2.55
0.02
-5.48
-11.07
-14.45
-15.24
-14.94
-15.58
-18.24
-22.33
-26.11
-27.96
-27.21
-24.61
-21.67
-19.84
-19.70
-20.88
-22.26
-22.65
-21.28
-18.10
-13.72
-9.15
-5.37
-3.09
-2.50
-3.31
-4.81
-6.23
-6.89
-6.47
-5.06
-3.08
-0.99
0.87
2.36
3.54
4.55
5.45
6.16
6.52
6.38
5.80
5.03
4.39
4.15
4.35
4.79
5.07
4.88
4.08
2.81
1.44
0.36
-0.18
-0.11
0.42
1.14
1.83
2.32
2.60
2.70
2.69
2.62
2.48
2.27
2.00
1.69
1.35
0.96
0.43
-0.32
-1.30
-2.40
-3.37
-3.93
-3.93
-3.42
-2.64
-1.92
-1.47
-1.34
-1.34
-1.22
-0.81
-0.12
0.70
1.37
1.71
1.65
1.31
0.92
0.68
0.71
1.03
1.52
2.00
2.34
2.45
2.38
2.27
2.26
2.40
2.58
2.59
2.26
1.53
0.58
-0.28
-0.76
-0.74
-0.34
0.13
0.36
0.18
-0.34
-0.91
-1.25
-1.18
-0.81
-0.42
-0.36
-0.81
-1.72
-2.78
-3.63
-4.01
-3.87
-3.38
-2.80
-2.30
-1.93
-1.58
-1.16
-0.62
-0.01
0.57
1.05
1.44
1.81
2.23
2.74
3.28
3.71
3.85
3.60
3.01
2.28
1.70
1.53
1.82
2.40
2.97
3.16
2.83
2.04
1.06
0.19
-0.40
-0.69
-0.84
-1.00
-1.26
-1.61
-1.92
-2.10
-2.10
-1.97
-1.82
-1.76
-1.83
-1.95
-1.96
-1.71
-1.14
-0.34
0.49
1.13
1.47
1.52
1.45
1.48
1.72
2.13
2.53
2.69
2.47
1.89
1.13
0.42
-0.06
-0.26
-0.24
-0.13
-0.03
0.05
0.16
0.39
0.76
1.22
1.60
1.73
1.48
0.89
0.10
-0.62
-1.07
-1.20
-1.11
-1.00
-1.02
-1.19
-1.34
-1.27
-0.85
-0.14
0.67
1.32
1.64
1.65
1.47
1.31
1.31
1.48
1.69
1.77
1.62
1.27
0.88
0.63
0.65
0.92
1.27
1.50
1.49
1.30
1.09
1.05
1.21
1.43
1.45
1.05
0.23
-0.81
-1.68
-2.02
-1.65
-0.69
0.58
1.77
2.64
3.14
3.42
3.68
4.05
4.51
4.90
5.01
4.73
4.09
3.25
2.35
1.50
0.67
-0.22
-1.22
-2.28
-3.25
-3.94
-4.26
-4.30
-4.28
-4.46
-4.99
-5.80
-6.59
-7.07
-7.05
-6.62
-6.15
-6.09
-6.76
-8.23
-10.29
-12.60
-14.81
-16.73
-18.35
-19.67
-20.69
-21.33
-21.49
-21.12
-20.21
-18.89
-17.27
-15.45
-13.46
-11.22
-8.70
-5.95
-3.16
-0.59
1.50
2.94
3.81
4.41
5.16
6.31
7.86
9.57
11.04
11.92
12.08
11.74
11.41
11.58
12.39
13.48
14.18
13.84
12.15
9.32
6.13
3.61
2.63
3.29
4.85
6.22
6.35
4.90
2.24
-0.52
-1.97
-1.04
2.61
8.61
16.34
25.13
34.02
40.33
40.32
31.21
13.95
-6.53
-23.89
-33.36
-33.54
-26.43
-16.17
-6.69
-0.06
3.80
6.04
7.64
8.95
9.44
8.63
6.55
3.90
1.87
1.43
3.01
6.18
10.02
13.56
15.98
16.85
16.36
15.15
13.64
12.05
10.27
8.11
5.63
3.00
0.64
-0.88
-1.19
-0.47
0.28
-0.29
-3.16
-8.30
-15.11
-22.47
-29.06
-33.68
-35.64
-35.10
-32.90
-30.15
-27.72
-26.57
-27.06
-28.63
-29.98
-28.30
-22.45
-14.34
-9.02
-8.06
-10.78
-15.00
-18.35
-18.97
-16.26
-11.16
-5.21
0.55
6.26
12.36
18.87
25.10
29.79
31.77
30.57
26.94
22.73
20.22
20.79
24.18
28.80
32.55
33.88
32.20
28.02
22.51
15.93
9.26
3.85
0.75
-0.16
-0.15
-1.05
-4.29
-10.07
-16.77
-21.40
-21.21
-15.20
-4.86
6.51
15.33
19.64
19.38
16.28
12.79
10.71
10.42
11.10
11.52
10.89
9.22
7.06
5.28
4.67
5.51
7.55
10.19
12.64
14.16
14.01
11.42
5.67
-3.61
-16.01
-30.07
-43.22
-52.33
-54.75
-49.47
-37.52
-21.69
-5.35
8.83
19.55
26.78
31.29
33.94
35.31
35.94
36.43
37.61
40.35
44.94
50.51
55.48
58.03
56.91
52.55
46.50
41.29
39.67
43.19
51.16
61.55
72.02
80.83
87.94
92.88
94.55
91.15
80.66
61.27
33.34
-1.31
-41.03
-83.95
-129.57
-176.22
-219.09
-251.33
-267.70
-266.07
-249.50
-225.60
-201.78
-184.58
-177.37
-180.67
-186.31
-189.78
-189.29
-185.02
-185.51
-184.59
-173.73
-148.24
-103.30
-43.17
21.77
82.38
133.45
171.98
197.42
210.28
211.98
203.78
191.46
173.59
150.15
124.09
100.28
82.80
75.01
77.06
86.00
96.46
102.28
100.69
92.37
79.85
66.69
55.04
45.83
39.63
36.84
37.39
41.73
49.78
59.67
68.02
67.25
51.09
18.98
-21.81
-59.77
-84.14
-89.06
-75.65
-50.77
-23.94
-2.81
9.38
13.76
14.42
14.11
14.38
15.23
15.81
15.28
14.11
13.74
15.53
19.63
24.95
30.78
36.38
40.54
42.07
40.71
37.22
33.00
29.48
27.47
27.91
30.05
31.20
26.68
12.40
-12.72
-45.63
-80.32
-116.39
-151.34
-181.54
-196.78
-189.85
-157.97
-105.05
-41.83
16.68
56.49
70.96
62.18
39.69
15.39
-0.18
-1.07
12.92
37.21
64.78
88.86
102.83
100.68
77.33
31.48
-32.35
-103.40
-167.19
-208.90
-217.22
-188.75
-129.24
-52.35
24.84
86.11
120.14
122.00
95.11
50.58
2.92
-35.16
-56.67
-61.25
-53.81
-40.71
-27.63
-15.40
0.11
23.85
56.74
94.02
126.72
144.76
140.97
111.13
57.37
-11.49
-82.90
-144.83
-187.88
-206.39
-199.23
-157.08
-84.64
-1.50
71.49
124.53
157.84
175.13
182.54
181.76
174.74
162.92
148.15
134.44
125.36
119.14
111.10
95.61
70.05
38.03
6.52
-17.96
-29.68
-27.10
-15.65
-5.84
-8.16
-27.95
-63.67
-110.82
-167.44
-230.42
-294.47
-352.63
-397.21
-421.23
-419.80
-392.11
-324.01
-222.15
-110.29
-13.53
56.95
104.06
135.68
158.35
174.77
184.00
180.06
160.37
129.25
95.65
69.87
55.89
53.27
57.62
62.36
58.18
41.13
15.50
-10.09
-28.27
-36.71
-37.61
-35.15
-32.25
-30.36
-27.33
-17.23
4.61
37.75
75.94
107.73
121.61
119.93
108.72
92.21
76.59
65.69
59.51
55.14
49.51
41.62
32.86
24.26
16.80
11.53
8.17
5.43
1.84
-3.30
-9.29
-14.37
-17.78
-19.49
-19.62
-19.06
-18.88
-19.74
-21.51
-23.16
-23.31
-21.62
-18.58
-14.84
-11.31
-8.68
-7.19
-6.58
-6.14
-5.02
-2.92
0.04
3.62
7.45
11.02
13.73
15.03
14.64
12.75
9.78
6.35
2.98
0.15
-2.05
-3.90
-5.87
-8.18
-10.57
-12.25
-12.19
-9.57
-3.81
4.86
15.32
25.87
35.07
42.34
48.21
53.78
57.74
58.30
53.72
43.15
26.48
4.26
-22.17
-50.60
-78.16
-101.69
-117.46
-121.95
-112.85
-90.36
-57.90
-21.74
10.74
33.56
44.11
44.07
37.65
29.31
21.83
15.81
10.78
6.12
2.10
-0.62
-1.60
-1.48
-1.71
-3.75
-7.93
-13.06
-16.95
-17.59
-14.49
-8.61
-2.06
2.79
4.45
2.83
-0.75
-4.03
-4.91
-2.50
3.14
10.89
18.99
25.57
29.32
29.90
28.19
25.43
22.19
18.90
15.52
12.11
9.17
7.72
8.54
12.47
19.62
28.92
39.38
49.48
57.44
61.21
58.79
46.43
23.97
-2.19
-28.20
-51.35
-69.96
-83.33
-91.40
-94.22
-92.07
-84.42
-70.76
-52.04
-27.21
-0.21
21.98
32.83
33.21
27.01
19.41
15.36
17.78
27.34
41.82
57.90
72.76
85.12
94.77
102.22
108.35
113.79
119.08
123.75
126.54
125.75
119.93
108.19
90.27
67.81
44.15
23.21
7.27
-4.28
-14.37
-26.95
-45.62
-73.49
-110.11
-149.92
-183.28
-199.90
-193.49
-164.27
-119.22
-70.06
-31.54
-15.03
-24.12
-54.77
-98.37
-147.08
-196.01
-243.20
-272.69
-272.40
-242.54
-195.40
-145.25
-99.65
-61.33
-30.98
-8.65
6.19
12.93
10.63
0.10
-18.26
-39.25
-58.06
-70.08
-70.92
-57.57
-30.97
3.57
42.08
75.05
97.21
108.34
112.23
113.60
115.34
119.67
123.51
125.19
125.32
127.32
133.89
145.84
162.24
174.38
179.83
177.91
169.15
153.71
132.14
104.96
73.72
41.32
11.47
-11.75
-27.16
-35.62
-39.49
-40.54
-39.75
-37.22
-32.92
-27.39
-21.16
-15.95
-13.15
-13.31
-15.35
-18.14
-20.54
-22.23
-23.68
-25.18
-27.15
-29.37
-30.94
-30.46
-27.22
-21.46
-14.38
-7.63
-2.38
0.57
1.19
-0.05
-2.43
-5.30
-8.08
-10.36
-11.93
-12.64
-12.65
-12.23
-11.70
-11.27
-10.98
-10.62
-9.86
-8.52
-6.46
-3.84
-1.06
1.36
3.07
3.89
3.95
3.55
2.98
2.43
1.93
1.39
0.71
0.02
-0.48
-0.62
-0.31
0.33
1.09
1.64
1.75
1.32
0.63
0.04
-0.18
-0.03
0.28
0.43
0.16
-0.57
-1.44
-1.67
-0.49
2.49
7.05
12.40
17.39
20.86
21.87
18.74
11.11
-0.03
-12.69
-24.65
-34.04
-39.51
-40.27
-36.28
-28.44
-18.24
-7.61
1.60
8.30
12.37
14.42
15.22
15.34
14.50
12.51
9.35
5.37
1.23
-2.40
-5.10
-6.84
-7.85
-8.47
-8.69
-8.36
-7.27
-5.38
-2.89
-0.15
2.38
4.21
5.05
4.97
4.28
3.46
2.93
2.92
3.38
3.96
4.25
3.92
2.98
1.73
0.60
-0.05
-0.14
0.15
0.47
0.45
-0.10
-1.11
-2.35
-3.50
-4.35
-4.84
-5.10
-5.36
-5.82
-6.52
-7.27
-7.75
-7.65
-6.84
-5.42
-3.70
-2.00
-0.53
0.69
1.77
2.86
3.99
5.05
5.88
6.35
6.42
6.23
5.98
5.86
5.96
6.20
6.46
6.58
6.53
6.37
6.27
6.37
6.68
7.05
7.28
7.16
6.67
5.97
5.36
5.11
5.36
5.99
6.73
7.28
7.48
7.30
6.91
6.52
6.23
6.06
5.92
5.74
5.60
5.66
6.06
6.84
7.79
8.55
8.67
7.88
6.23
4.11
2.08
0.56
-0.32
-0.74
-1.19
-2.13
-3.81
-6.06
-8.44
-10.33
-11.46
-11.80
-11.57
-11.14
-10.83
-10.79
-10.92
-11.01
-10.82
-10.47
-10.14
-9.99
-10.05
-10.15
-9.99
-9.35
-8.48
-7.49
-7.54
-9.71
-13.86
-18.35
-21.00
-20.27
-16.15
-10.64
-5.10
-0.86
1.49
2.04
1.35
-0.05
-1.84
-3.87
-5.85
-6.97
-6.28
-2.38
5.13
14.98
24.81
32.41
36.48
36.84
34.28
29.84
24.65
19.51
14.87
10.99
7.79
4.99
2.21
-0.64
-3.49
-6.04
-8.00
-9.33
-9.79
-9.41
-8.43
-7.18
-5.78
-4.22
-2.47
-0.59
1.31
3.38
5.67
8.01
10.07
11.65
12.61
12.98
12.93
13.02
14.44
17.99
23.87
31.41
38.99
44.11
43.71
34.97
15.28
-13.79
-46.33
-75.31
-96.09
-107.35
-109.80
-104.78
-93.51
-77.20
-57.22
-35.74
-15.62
0.65
11.95
18.66
22.22
24.53
27.56
33.31
43.00
56.20
70.58
82.20
86.50
79.93
61.66
34.14
2.68
-26.79
-49.73
-63.91
-69.12
-66.68
-58.84
-48.31
-37.83
-29.72
-24.22
-20.49
-16.36
-9.34
2.11
17.58
34.53
49.18
58.35
60.51
55.92
46.41
34.55
22.78
12.85
5.52
0.61
-2.52
-4.57
-6.08
-7.18
-7.88
-8.32
-8.81
-9.65
-10.86
-11.96
-12.23
-11.19
-8.81
-5.63
-2.55
-0.45
0.21
-0.52
-2.06
-3.74
-4.93
-5.29
-4.77
-3.52
-1.80
0.13
1.95
3.35
4.07
3.94
3.01
1.67
0.53
0.40
1.95
5.39
10.32
15.81
20.71
24.08
25.43
24.76
22.35
18.47
13.64
8.20
2.45
-3.25
-8.58
-13.21
-16.91
-19.52
-20.91
-21.08
-20.28
-18.95
-17.62
-16.54
-15.58
-14.23
-12.06
-9.06
-5.81
-3.36
-2.50
-3.40
-5.45
-7.58
-8.86
-8.96
-8.20
-7.21
-6.47
-6.11
-5.98
-5.92
-6.00
-6.54
-7.74
-9.47
-11.07
-11.61
-10.10
-5.92
1.12
10.74
22.11
33.92
44.37
51.47
53.55
50.00
41.48
29.77
17.14
5.27
-4.96
-13.36
-19.94
-24.31
-25.69
-23.29
-17.18
-8.56
0.35
7.21
10.35
9.42
5.20
-1.00
-7.83
-14.35
-19.94
-24.02
-25.84
-24.69
-20.32
-13.24
-4.83
3.25
9.59
13.71
15.92
16.85
16.69
15.00
11.28
5.49
-1.24
-6.89
-9.59
-8.68
-5.26
-1.55
0.32
-0.41
-2.92
-5.42
-6.48
-5.90
-4.69
-4.29
-5.53
-7.98
-10.23
-10.68
-8.40
-3.49
3.20
10.45
17.14
22.32
25.24
25.44
22.95
18.46
13.22
8.71
5.65
4.21
3.93
4.09
4.14
3.97
3.77
3.83
4.18
4.54
4.40
3.22
0.62
-3.37
-8.21
-12.97
-16.64
-18.51
-18.49
-17.01
-14.80
-12.56
-10.72
-9.45
-8.85
-9.03
-10.02
-11.57
-13.01
-13.44
-12.19
-9.12
-4.83
-0.34
3.34
5.60
6.30
5.74
4.31
2.30
-0.20
-3.19
-6.52
-9.74
-12.26
-13.47
-12.94
-10.61
-6.87
-2.55
1.34
4.04
5.38
5.72
5.87
6.67
8.84
12.70
17.93
23.68
28.94
32.85
34.83
34.77
33.00
30.28
27.29
24.20
20.46
15.19
7.86
-1.34
-11.19
-19.68
-24.72
-24.63
-19.08
-10.43
-2.62
1.45
1.41
-1.24
-4.50
-7.02
-8.53
-9.58
-10.82
-12.39
-13.70
-14.05
-13.08
-10.96
-8.28
-5.79
-4.16
-3.73
-4.33
-5.32
-5.99
-5.87
-4.89
-3.34
-1.71
-0.52
-0.16
-0.60
-1.44
-2.31
-2.72
-2.32
-0.93
1.38
4.31
7.45
10.45
13.21
15.80
18.32
20.75
22.79
24.00
23.96
22.52
19.83
16.33
12.50
8.72
5.15
1.84
-1.21
-3.94
-6.27
-8.16
-9.61
-10.70
-11.44
-11.82
-11.83
-11.52
-11.02
-10.50
-10.10
-9.82
-9.63
-9.49
-9.50
-9.86
-10.74
-12.09
-13.53
-14.48
-14.47
-13.36
-11.40
-9.14
-7.07
-5.40
-3.96
-2.31
-0.10
2.75
6.03
9.38
12.46
15.11
17.27
18.96
20.21
20.92
20.87
19.96
18.23
15.91
13.40
11.05
8.65
6.07
3.08
-0.54
-4.83
-9.44
-13.62
-16.47
-17.40
-16.31
-13.60
-10.09
-6.64
-3.86
-2.07
-1.41
-1.81
-3.28
-5.73
-8.80
-11.92
-14.40
-15.67
-15.51
-14.10
-11.96
-9.77
-8.07
-7.10
-6.86
-7.07
-7.48
-7.80
-7.79
-7.24
-6.01
-4.12
-1.72
0.86
3.23
5.02
6.03
6.22
5.67
4.56
3.17
1.88
1.08
1.05
1.81
3.10
4.44
5.38
5.63
5.20
4.31
3.23
2.20
1.33
0.64
0.10
-0.29
-0.53
-0.60
-0.50
-0.28
-0.02
0.16
0.14
-0.14
-0.59
-1.01
-1.19
-1.04
-0.72
-0.53
-0.67
-0.97
-0.91
0.25
3.03
7.38
12.62
17.70
21.61
23.78
24.26
23.41
21.69
19.35
16.43
12.96
9.10
5.30
2.10
-0.13
-1.38
-2.01
-2.58
-3.49
-4.79
-6.15
-7.05
-7.04
-6.02
-4.22
-2.11
-0.17
1.32
2.33
2.98
3.41
3.71
3.82
3.70
3.37
2.94
2.63
2.65
3.05
3.75
4.52
5.09
5.24
4.94
4.25
3.35
2.47
1.73
1.15
0.66
0.14
-0.48
-1.17
-1.82
-2.32
-2.66
-2.94
-3.31
-3.85
-4.52
-5.12
-5.45
-5.40
-5.05
-4.58
-4.19
-4.00
-4.00
-4.13
-4.28
-4.39
-4.35
-4.03
-3.34
-2.28
-0.98
0.27
1.21
1.64
1.50
0.88
-0.07
-1.23
-2.53
-3.91
-5.27
-6.44
-7.27
-7.71
-7.78
-7.51
-6.99
-6.30
-5.48
-4.56
-3.54
-2.14
-0.34
1.64
3.38
4.37
4.19
2.77
0.64
-1.07
-1.06
1.41
6.06
11.56
15.90
17.19
14.24
6.71
-4.79
-18.91
-33.64
-46.38
-54.34
-55.32
-48.54
-35.19
-18.28
-1.61
11.57
19.67
22.99
23.34
22.21
20.55
18.62
16.35
13.86
11.58
10.12
9.67
10.07
10.53
10.20
8.55
5.71
2.38
-0.53
-2.23
-2.32
-0.87
1.61
4.39
6.70
7.96
7.86
6.57
4.65
2.90
1.96
2.05
2.95
4.02
4.41
3.28
0.21
-4.46
-9.67
-13.99
-16.12
-15.40
-12.05
-6.88
-1.03
4.63
9.77
14.54
19.14
23.34
26.25
26.05
21.99
14.59
5.81
-1.77
-5.81
-5.26
-0.56
6.67
14.37
20.47
22.43
17.38
3.06
-20.19
-47.96
-72.14
-83.85
-77.64
-54.57
-22.39
8.06
27.91
34.08
29.56
20.44
11.94
5.89
1.09
-4.47
-11.28
-17.67
-21.16
-20.16
-15.25
-8.79
-3.69
-1.81
-3.28
-6.61
-9.66
-10.64
-8.83
-4.71
0.36
4.79
7.47
8.01
6.84
4.88
3.09
2.06
1.84
1.90
1.48
0.01
-2.63
-6.01
-9.38
-11.99
-13.39
-13.63
-13.09
-12.30
-11.59
-11.01
-10.35
-9.31
-7.75
-5.78
-3.73
-1.80
0.14
2.64
6.45
12.23
20.29
30.35
41.47
52.22
61.15
67.21
70.09
70.31
69.06
67.77
67.29
67.10
65.20
59.01
46.72
28.49
6.79
-14.21
-30.13
-38.04
-37.54
-30.65
-20.76
-11.41
-5.75
-6.46
-15.81
-34.68
-60.30
-86.32
-105.24
-111.15
-101.50
-78.04
-46.30
-13.55
13.88
32.49
41.75
43.21
39.24
32.17
23.94
16.38
11.25
10.03
13.15
19.44
26.44
31.50
32.86
30.06
23.64
14.56
3.83
-7.63
-18.88
-28.84
-36.60
-41.75
-44.73
-46.72
-49.00
-51.89
-54.19
-53.62
-47.90
-36.05
-19.14
-0.24
17.60
31.65
40.65
44.87
45.41
43.31
38.98
32.54
24.45
15.78
7.86
1.69
-2.67
-6.10
-9.75
-14.14
-19.11
-23.63
-26.68
-28.07
-28.40
-28.72
-30.10
-32.46
-35.31
-37.87
-39.20
-38.62
-35.96
-31.32
-24.92
-16.86
-7.05
4.40
16.65
27.61
34.85
36.60
33.00
26.52
21.03
20.06
24.94
34.32
45.19
54.59
60.99
64.48
65.84
65.38
62.48
56.10
45.94
33.08
19.78
8.45
0.53
-4.02
-6.41
-8.18
-10.38
-13.01
-15.29
-16.31
-15.59
-13.55
-11.42
-10.95
-13.71
-20.34
-30.11
-41.30
-52.03
-60.78
-66.59
-68.89
-67.20
-60.73
-50.01
-36.39
-21.13
-5.98
7.86
20.02
30.66
39.57
45.72
47.24
43.32
34.73
23.90
14.00
7.39
4.49
3.85
3.33
1.40
-1.95
-5.55
-8.14
-9.04
-8.49
-7.38
-6.57
-6.30
-6.35
-6.18
-5.43
-4.09
-2.43
-0.77
0.66
1.78
2.63
3.24
3.71
4.12
4.51
4.94
5.39
5.72
5.73
5.24
4.12
2.37
0.17
-2.20
-4.26
-5.47
-5.39
-3.84
-1.07
2.27
5.36
7.56
8.59
8.58
7.86
6.66
4.94
2.50
-0.81
-4.84
-9.03
-12.56
-14.66
-14.99
-13.73
-11.59
-9.45
-8.12
-8.08
-9.39
-11.76
-14.61
-17.28
-19.24
-20.08
-19.56
-17.60
-14.15
-9.55
-4.53
0.05
3.27
4.52
3.74
1.60
-0.77
-2.21
-2.00
-0.16
2.95
6.68
10.48
14.00
17.09
19.58
21.09
21.24
19.79
17.20
14.38
12.38
12.00
13.38
16.10
19.18
21.81
21.77
17.84
10.22
0.56
-8.64
-14.88
-16.26
-12.14
-3.29
7.78
17.86
23.89
24.28
19.51
11.66
4.14
-1.87
-6.01
-8.71
-10.36
-11.11
-10.76
-9.04
-6.05
-2.44
0.74
2.76
3.31
2.81
2.17
1.69
1.76
2.36
3.09
3.30
2.62
0.97
-1.28
-3.53
-5.29
-6.26
-6.63
-6.89
-7.66
-9.15
-11.23
-13.47
-15.32
-16.42
-16.63
-16.06
-15.05
-13.90
-12.76
-11.71
-10.71
-9.73
-8.81
-7.92
-7.09
-6.36
-5.77
-5.35
-5.15
-5.25
-5.75
-6.67
-7.92
-9.33
-10.62
-11.56
-12.05
-12.17
-12.15
-12.21
-12.53
-13.14
-13.92
-14.69
-15.32
-15.78
-16.14
-16.51
-16.98
-17.51
-17.93
-18.02
-17.58
-16.50
-14.82
-12.74
-10.43
-8.09
-5.78
-3.41
-0.89
1.86
4.82
7.83
10.70
13.24
15.42
17.33
19.14
20.95
22.79
24.50
25.91
26.88
27.39
27.54
27.39
26.92
25.96
24.38
22.20
19.78
17.75
16.80
17.41
19.61
22.94
26.65
30.03
32.59
34.13
34.67
34.26
33.01
31.12
29.05
27.41
26.79
27.34
28.62
29.60
29.07
26.15
20.73
13.55
5.91
-0.82
-5.71
-8.59
-10.02
-11.03
-12.65
-15.50
-19.57
-24.25
-28.73
-32.34
-34.79
-36.18
-36.75
-36.69
-36.04
-34.79
-33.16
-31.76
-31.43
-32.91
-36.37
-41.28
-46.56
-50.99
-53.62
-53.98
-51.95
-47.55
-40.82
-31.81
-20.85
-8.69
3.52
14.59
23.59
30.07
34.09
35.97
36.09
34.68
31.93
28.14
24.01
20.38
17.94
16.93
17.17
18.25
19.68
21.07
22.12
23.10
24.18
25.37
26.39
27.07
27.59
28.32
29.61
31.46
34.18
37.73
41.72
45.53
48.78
51.59
54.32
57.19
59.94
62.81
65.83
68.95
71.93
74.97
78.74
84.05
91.22
94.14
88.21
72.14
48.54
20.90
-8.54
-38.79
-69.03
-97.63
-122.51
-140.93
-151.35
-154.03
-151.78
-148.41
-146.95
-148.06
-149.35
-146.16
-132.93
-107.97
-71.49
-28.38
14.19
50.02
76.06
92.45
100.80
102.63
97.90
85.85
66.17
41.01
15.08
-6.19
-19.07
-23.22
-21.11
-16.60
-12.96
-11.84
-13.15
-15.46
-17.11
-17.12
-15.58
-13.22
-10.95
-9.28
-8.29
-7.75
-7.32
-6.87
-6.65
-7.05
-8.31
-10.34
-12.58
-14.34
-15.07
-14.52
-12.87
-10.65
-8.52
-6.99
-6.23
-5.99
-5.72
-4.88
-3.09
-0.39
2.83
6.03
8.73
10.71
12.01
12.79
13.22
13.39
13.38
13.21
12.98
12.76
12.50
12.05
11.19
9.79
7.89
5.75
3.75
2.22
1.31
0.89
0.68
0.38
-0.16
-0.85
-1.42
-1.61
-1.31
-0.68
-0.09
0.05
-0.53
-1.81
-3.52
-5.21
-6.45
-6.96
-6.66
-5.71
-4.39
-3.12
-2.28
-2.24
-3.17
-5.04
-7.55
-10.21
-12.51
-14.01
-14.52
-14.11
-13.04
-11.67
-10.26
-8.96
-7.75
-6.52
-5.21
-3.83
-2.46
-1.25
-0.33
0.23
0.42
0.29
-0.09
-0.67
-1.41
-2.27
-3.25
-4.36
-5.64
-7.08
-8.66
-10.32
-11.97
-13.52
-14.90
-16.06
-16.96
-17.55
-17.79
-17.71
-17.48
-17.42
-17.83
-18.89
-20.44
-22.01
-22.99
-22.95
-21.82
-19.95
-17.86
-15.89
-14.04
-11.91
-8.94
-4.79
0.55
6.64
12.90
18.80
24.02
28.45
32.10
35.00
37.08
38.27
38.51
37.84
36.45
34.59
32.57
30.65
28.94
27.47
26.16
24.90
23.61
22.25
20.85
19.43
17.98
16.45
14.77
12.91
10.90
8.86
6.93
5.19
3.67
2.32
0.99
-0.39
-1.84
-3.24
-4.44
-5.37
-6.04
-6.54
-7.00
-7.48
-7.95
-8.31
-8.46
-8.32
-7.95
-7.42
-6.81
-6.11
-5.21
-4.04
-2.55
-0.78
1.11
2.86
4.21
5.02
5.38
5.51
5.68
6.07
6.86
8.01
9.18
9.85
9.58
8.17
5.74
2.66
-0.47
-2.53
-2.63
-0.60
2.95
6.95
10.36
12.49
13.15
12.79
12.87
14.56
18.16
23.00
28.04
32.49
36.13
39.05
41.71
45.42
50.89
57.87
65.23
71.81
77.00
80.86
83.62
79.83
66.58
45.12
20.45
-2.29
-20.50
-33.92
-42.55
-48.14
-51.66
-52.64
-50.79
-46.61
-41.51
-37.02
-34.27
-33.62
-34.93
-37.34
-39.18
-39.22
-37.19
-33.79
-30.06
-26.81
-24.37
-22.78
-21.79
-20.76
-19.33
-17.54
-15.73
-14.20
-12.99
-11.97
-11.10
-10.38
-9.80
-9.46
-9.50
-9.95
-10.67
-11.30
-11.43
-10.87
-9.62
-7.88
-6.03
-4.47
-3.50
-3.21
-3.42
-3.85
-4.26
-4.51
-4.62
-4.67
-4.75
-4.88
-5.00
-5.04
-4.93
-4.69
-4.36
-4.04
-3.78
-3.66
-3.73
-4.02
-4.51
-5.09
-5.55
-5.61
-5.01
-3.68
-1.80
0.20
1.71
2.22
1.58
0.10
-1.50
-2.44
-2.24
-1.05
0.49
1.49
1.31
-0.08
-2.10
-3.85
-4.56
-4.03
-2.58
-0.89
0.44
1.11
1.11
0.50
-0.77
-2.78
-5.36
-7.79
-8.95
-7.81
-4.17
1.02
5.85
8.40
7.68
4.17
-0.49
-4.37
-6.33
-6.41
-5.60
-5.10
-5.49
-6.52
-7.36
-7.22
-5.92
-3.89
-1.97
-0.83
-0.63
-0.92
-0.94
-0.01
2.09
5.03
8.12
10.72
12.53
13.71
14.68
15.82
17.20
18.52
19.33
19.26
18.28
16.69
14.94
13.43
12.33
11.60
11.06
10.55
9.98
9.34
8.64
7.87
7.03
6.09
5.06
4.01
3.05
2.22
1.55
0.94
0.27
-0.60
-1.69
-2.88
-3.88
-4.36
-4.09
-2.97
-1.19
0.86
2.70
3.84
4.00
3.10
1.37
-0.78
-2.84
-4.39
-5.24
-5.46
-5.30
-5.10
-5.11
-5.44
-6.03
-6.73
-7.36
-7.81
-8.01
-7.96
-7.69
-7.29
-6.83
-6.37
-5.94
-5.53
-5.18
-4.89
-4.66
-4.44
-4.20
-3.93
-3.63
-3.36
-3.17
-3.17
-3.34
-3.53
-3.57
-3.39
-3.13
-2.99
-3.15
-3.65
-4.50
-5.53
-6.42
-6.93
-7.08
-7.09
-7.24
-7.74
-8.61
-10.00
-11.79
-13.63
-15.11
-16.04
-16.51
-16.75
-16.99
-17.36
-18.21
-19.42
-20.44
-20.54
-19.27
-16.73
-13.46
-10.51
-6.96
-3.58
-2.10
-3.73
-7.84
-12.58
-16.03
-16.93
-14.85
-10.06
-3.47
4.15
12.30
20.25
27.54
33.13
36.02
35.74
32.63
27.42
21.35
15.40
10.91
8.51
8.22
9.65
12.09
14.51
15.45
13.72
8.93
1.96
-5.94
-13.09
-17.90
-19.48
-17.94
-14.25
-9.53
-4.70
-0.33
3.10
5.06
5.10
3.00
-0.88
-5.83
-10.31
-12.68
-11.95
-8.33
-3.09
2.09
5.75
7.22
6.70
5.03
3.12
1.58
0.60
0.03
-0.48
-1.35
-2.90
-5.28
-8.41
-12.07
-15.78
-18.97
-20.94
-21.02
-18.88
-14.62
-8.84
-2.49
3.44
8.20
11.51
13.51
14.64
15.37
16.03
16.79
17.67
18.60
19.52
20.34
20.98
21.38
21.51
21.35
20.91
20.26
19.56
18.98
18.61
18.45
18.35
18.10
17.51
16.52
15.28
14.08
13.21
12.83
12.92
13.26
13.56
13.53
13.00
12.00
10.71
9.35
8.08
6.95
5.95
5.05
4.13
3.16
2.21
1.43
0.89
0.51
0.14
-0.41
-1.29
-2.58
-4.34
-6.32
-8.20
-9.82
-11.30
-12.87
-14.70
-16.76
-18.77
-20.23
-20.28
-18.02
-13.07
-5.71
3.14
12.30
20.49
26.51
28.00
23.41
13.38
0.92
-10.14
-17.04
-18.83
-16.27
-11.32
-6.26
-2.75
-0.63
0.95
2.88
5.51
8.57
11.26
12.69
12.30
10.41
8.22
7.20
8.51
12.60
19.13
27.07
34.68
39.67
38.83
29.41
10.99
-13.31
-38.43
-59.69
-74.55
-82.97
-86.67
-87.78
-87.70
-86.99
-85.53
-83.13
-79.47
-73.79
-64.93
-51.88
-34.62
-14.30
6.96
27.19
44.87
59.04
68.94
73.35
70.76
60.30
43.28
22.11
1.12
-15.27
-23.99
-24.05
-16.55
-4.06
10.20
23.38
33.15
39.37
43.16
45.83
47.73
47.87
44.47
36.31
24.08
10.48
-0.74
-6.95
-7.97
-6.03
-4.32
-5.17
-8.74
-13.10
-15.23
-12.62
-5.09
5.22
14.74
19.94
18.56
10.40
-2.56
-16.90
-28.68
-35.16
-35.46
-30.41
-21.82
-11.53
-1.10
8.48
16.12
21.76
25.95
29.47
32.36
33.51
30.65
20.62
1.62
-25.06
-54.06
-77.49
-88.28
-84.25
-70.02
-55.18
-49.21
-55.71
-69.77
-79.59
-74.15
-49.19
-9.80
32.07
66.32
87.71
97.40
100.50
101.58
101.76
98.96
90.66
76.16
56.95
36.18
17.54
3.79
-4.31
-8.19
-10.93
-15.91
-25.45
-41.58
-64.87
-92.86
-119.73
-138.34
-142.34
-131.09
-104.24
-63.96
-15.56
34.19
79.01
114.63
138.28
149.29
148.75
134.31
107.59
72.64
35.52
1.23
-22.93
-33.21
-31.21
-22.56
-13.02
-5.82
-1.28
2.04
6.06
12.30
20.76
30.52
40.76
51.14
62.01
72.96
82.27
86.64
82.13
61.89
25.60
-18.41
-58.29
-86.08
-101.00
-106.54
-106.67
-103.75
-98.54
-90.59
-80.56
-70.57
-63.04
-59.95
-61.75
-67.37
-74.10
-77.96
-73.82
-58.23
-32.13
2.24
39.54
73.36
99.02
115.57
125.72
134.05
142.73
150.04
150.97
140.18
114.98
77.46
33.86
-8.54
-39.66
-55.80
-59.68
-57.50
-54.18
-51.99
-50.55
-48.54
-45.51
-42.25
-40.87
-42.67
-48.98
-57.18
-65.06
-71.28
-75.84
-79.89
-85.21
-94.17
-104.99
-117.79
-128.89
-132.53
-123.11
-98.13
-60.16
-16.37
23.82
52.94
67.84
71.18
68.29
64.21
61.50
59.98
58.16
54.86
50.40
45.95
43.31
43.14
44.70
46.51
46.92
45.21
41.63
37.33
33.53
31.45
31.48
33.09
35.20
36.65
36.69
35.31
33.09
30.83
29.41
29.22
30.17
31.94
34.30
37.16
40.32
42.93
43.38
39.81
30.96
17.14
0.43
-15.95
-28.90
-36.74
-39.62
-39.02
-36.80
-34.28
-31.93
-29.65
-27.32
-25.13
-23.50
-22.78
-22.87
-23.26
-23.33
-22.57
-20.94
-18.82
-16.76
-15.20
-14.24
-13.59
-12.74
-11.23
-8.84
-5.77
-2.48
0.44
2.55
3.65
3.83
3.42
2.79
2.25
1.94
1.84
1.79
1.64
1.32
0.86
0.35
-0.05
-0.22
-0.14
0.16
0.57
0.96
1.22
1.29
1.18
0.97
0.75
0.59
0.54
0.57
0.61
0.60
0.52
0.39
0.25
0.14
0.05
-0.04
-0.20
-0.43
-0.71
-0.95
-1.04
-0.92
-0.61
-0.16
0.30
0.69
0.97
1.14
1.22
1.21
1.13
0.95
0.69
0.39
0.12
-0.06
-0.09
0.01
0.18
0.32
0.35
0.27
0.11
-0.05
-0.14
-0.18
-0.19
-0.21
-0.25
-0.24
-0.16
-0.01
0.12
0.13
-0.03
-0.31
-0.59
-0.72
-0.65
-0.45
-0.24
-0.15
-0.21
-0.39
-0.60
-0.80
-0.97
-1.11
-1.20
-1.18
-0.99
-0.66
-0.31
-0.10
-0.15
-0.41
-0.72
-0.90
-0.84
-0.61
-0.42
-0.43
-0.68
-1.08
-1.46
-1.68
-1.71
-1.63
-1.55
-1.52
-1.54
-1.57
-1.59
-1.63
-1.69
-1.78
-1.87
-1.91
-1.93
-1.98
-2.17
-2.52
-3.00
-3.52
-3.98
-4.33
-4.57
-4.74
-4.87
-4.92
-4.80
-4.42
-3.71
-2.68
-1.37
0.12
1.71
3.25
4.66
5.84
6.75
7.36
7.69
7.76
7.57
7.15
6.57
5.93
5.33
4.85
4.51
4.31
4.19
4.13
4.08
4.03
3.94
3.76
3.47
3.07
2.59
2.08
1.64
1.32
1.14
1.04
0.93
0.72
0.36
-0.13
-0.66
-1.12
-1.47
-1.74
-2.03
-2.45
-3.05
-3.79
-4.56
-5.27
-5.85
-6.29
-6.63
-6.91
-7.14
-7.32
-7.43
-7.44
-7.32
-7.07
-6.69
-6.24
-5.77
-5.36
-5.06
-4.90
-4.88
-5.00
-5.27
-5.63
-6.05
-6.38
-6.51
-6.33
-5.85
-5.21
-4.64
-4.38
-4.54
-5.02
-5.50
-5.58
-4.87
-3.24
-0.81
2.06
4.89
7.18
8.53
8.73
7.75
5.82
3.36
0.92
-0.97
-1.90
-1.71
-0.49
1.50
3.98
6.75
9.71
12.80
15.93
18.95
21.67
23.90
25.57
26.68
27.30
27.45
27.12
26.22
24.76
22.87
20.72
18.36
15.74
12.77
9.43
5.91
2.64
0.23
-0.79
-0.37
0.97
2.42
3.27
3.25
2.62
1.98
2.19
3.76
6.45
9.24
10.86
10.45
8.01
4.36
0.79
-1.22
-0.63
2.75
8.22
14.63
20.75
25.27
26.85
23.26
13.44
-0.89
-15.40
-26.08
-31.94
-35.04
-38.90
-46.31
-57.98
-72.05
-85.10
-93.66
-95.29
-89.01
-75.25
-55.88
-33.95
-13.12
3.77
15.68
23.39
28.48
32.17
34.71
35.71
35.13
33.84
33.53
35.74
40.76
47.22
52.70
54.82
51.64
42.36
27.19
7.65
-13.82
-33.97
-50.36
-62.28
-70.39
-75.51
-76.97
-72.10
-57.90
-34.05
-4.67
22.42
39.35
42.28
33.07
17.96
4.13
-3.70
-4.62
-0.17
7.47
16.83
27.24
37.73
46.34
50.11
46.39
34.68
17.69
0.95
-8.98
-7.21
6.54
27.60
47.70
58.16
53.52
35.07
9.84
-12.42
-23.17
-18.29
0.88
28.38
55.79
75.09
81.39
73.16
52.85
25.91
-1.35
-24.06
-39.96
-48.99
-53.06
-53.84
-52.13
-48.09
-42.80
-37.95
-36.23
-39.89
-49.25
-61.90
-73.67
-80.77
-81.16
-75.57
-66.88
-58.85
-54.54
-55.68
-62.06
-72.15
-83.44
-92.55
-95.65
-89.32
-72.03
-44.06
-11.22
19.79
43.53
57.66
63.35
63.92
62.70
61.35
59.67
56.57
51.93
46.85
43.12
42.12
43.80
46.76
49.01
48.93
46.06
41.56
37.30
34.96
35.24
37.61
40.63
42.72
42.93
41.22
38.62
36.40
35.56
36.45
38.87
42.32
46.03
48.87
49.35
45.96
37.96
25.63
10.73
-4.17
-16.82
-26.53
-34.21
-41.62
-50.09
-59.66
-69.02
-76.27
-80.67
-82.66
-83.42
-83.71
-83.11
-80.27
-74.03
-63.95
-50.91
-36.79
-23.37
-11.61
-1.46
8.04
18.12
29.83
43.42
58.00
71.42
80.83
83.76
78.84
66.89
50.66
33.79
19.30
8.64
1.60
-2.89
-5.85
-7.74
-8.45
-7.93
-6.47
-4.83
-3.84
-3.93
-4.88
-5.97
-6.46
-5.88
-4.32
-2.30
-0.48
0.64
0.91
0.56
0.04
-0.19
0.16
1.09
2.35
3.49
4.13
4.15
3.72
3.30
3.33
4.08
5.50
7.25
8.82
9.83
10.22
10.30
10.72
12.11
14.78
18.43
22.47
25.92
27.83
27.45
23.75
16.02
3.99
-11.55
-28.03
-41.45
-48.05
-46.13
-37.05
-24.43
-12.07
-2.19
5.06
10.54
14.47
15.75
12.69
4.60
-7.14
-19.41
-29.07
-34.51
-36.09
-35.33
-33.51
-31.02
-27.72
-23.91
-20.37
-18.43
-19.00
-21.95
-26.53
-31.36
-34.65
-34.38
-28.72
-17.08
-1.21
14.71
25.44
27.11
19.22
5.00
-10.18
-21.65
-27.65
-29.89
-32.12
-37.81
-48.16
-60.94
-71.96
-76.52
-71.33
-55.82
-32.47
-5.82
18.14
35.46
45.12
48.71
49.12
48.74
48.32
47.17
44.40
40.14
35.70
32.91
32.87
35.22
38.43
40.64
40.57
38.22
34.68
31.63
30.37
31.28
33.68
36.32
37.94
37.84
36.28
34.40
33.80
35.70
40.07
45.28
48.48
46.72
38.39
24.32
7.51
-8.02
-18.91
-23.89
-23.95
-21.33
-18.25
-16.23
-15.97
-17.66
-21.26
-26.27
-31.50
-35.08
-35.50
-32.22
-26.30
-19.78
-14.50
-11.34
-9.69
-8.09
-5.19
-0.73
4.16
7.32
6.64
1.02
-9.16
-21.91
-34.41
-44.02
-49.24
-50.30
-48.80
-46.67
-45.51
-46.44
-49.82
-55.61
-62.92
-69.47
-71.43
-65.01
-48.23
-22.42
7.59
35.43
55.55
65.67
67.33
64.22
59.95
56.59
54.55
53.61
53.52
54.32
55.72
56.48
54.60
48.32
37.29
22.79
7.39
-6.14
-15.81
-20.77
-21.16
-17.87
-12.25
-5.96
-0.70
2.20
2.24
0.05
-2.91
-5.07
-5.59
-4.63
-3.17
-2.28
-2.52
-3.69
-5.09
-6.11
-6.58
-6.78
-7.17
-8.02
-9.16
-10.12
-10.37
-9.64
-8.07
-6.14
-4.51
-3.71
-3.97
-5.12
-6.70
-8.23
-9.35
-10.01
-10.38
-10.62
-10.77
-10.66
-10.04
-8.86
-7.45
-6.45
-6.66
-8.68
-12.65
-18.06
-23.90
-29.02
-32.47
-33.79
-32.95
-30.33
-26.55
-22.13
-17.49
-12.92
-8.72
-5.25
-2.94
-1.86
-1.70
-1.70
-0.84
1.88
7.14
15.13
25.72
37.41
48.79
58.57
65.70
69.26
68.42
62.72
52.49
39.27
25.66
14.82
9.15
9.20
13.45
18.99
22.86
23.36
20.51
15.61
10.38
5.90
2.33
-0.73
-3.63
-6.26
-8.16
-8.85
-8.28
-6.79
-4.97
-3.38
-2.32
-1.70
-1.25
-0.72
-0.02
0.78
1.53
2.07
2.36
2.58
3.01
3.82
4.96
6.17
7.06
7.35
7.03
6.45
6.19
6.66
7.76
8.87
9.21
8.18
5.66
2.04
-1.90
-5.23
-7.27
-7.79
-6.92
-5.18
-3.65
-4.14
-8.89
-19.77
-36.62
-56.35
-74.09
-85.37
-87.71
-81.21
-67.96
-50.98
-32.93
-15.49
0.38
13.94
24.43
31.19
33.97
33.58
30.82
26.85
22.84
19.54
17.14
15.32
13.56
11.49
9.00
6.28
3.82
2.21
1.79
2.47
3.79
5.14
6.01
6.12
5.43
4.25
3.03
2.09
1.55
1.26
0.95
0.40
-0.43
-1.45
-2.39
-3.02
-3.23
-3.11
-2.83
-2.59
-2.49
-2.56
-2.76
-3.02
-3.27
-3.47
-3.58
-3.58
-3.42
-3.11
-2.67
-2.16
-1.68
-1.27
-0.96
-0.72
-0.47
-0.17
0.19
0.57
0.92
1.17
1.32
1.42
1.51
1.64
1.81
1.99
2.12
2.15
2.08
1.93
1.69
1.38
1.04
0.73
0.53
0.52
0.69
0.98
1.27
1.45
1.46
1.33
1.09
0.75
0.28
-0.35
-1.09
-1.82
-2.36
-2.59
-2.51
-2.23
-1.92
-1.67
-1.48
-1.28
-0.98
-0.56
-0.09
0.38
0.76
1.05
1.26
1.41
1.49
1.48
1.38
1.22
1.06
0.94
0.88
0.84
0.73
0.48
0.11
-0.31
-0.63
-0.72
-0.51
-0.07
0.45
0.85
1.01
0.90
0.62
0.28
-0.04
-0.32
-0.62
-0.95
-1.31
-1.65
-1.91
-2.06
-2.13
-2.18
-2.28
-2.41
-2.55
-2.63
-2.62
-2.52
-2.33
-2.05
-1.67
-1.18
-0.61
-0.08
0.31
0.45
0.37
0.18
0.01
-0.01
0.09
0.20
0.15
-0.18
-0.77
-1.49
-2.16
-2.64
-2.87
-2.93
-2.96
-3.12
-3.56
-4.33
-5.33
-6.34
-6.93
-6.56
-4.74
-1.31
3.31
8.01
11.21
11.34
7.42
-0.42
-10.95
-22.12
-31.76
-38.16
-40.42
-38.47
-32.87
-24.60
-14.85
-4.89
4.13
11.32
16.20
18.88
19.95
20.21
20.38
20.91
21.85
23.03
24.06
24.46
23.87
22.18
19.56
16.46
13.52
11.33
10.29
10.36
10.94
11.22
10.41
7.97
3.57
-2.78
-10.81
-19.68
-28.13
-34.73
-38.13
-37.57
-33.31
-26.59
-19.01
-13.03
-9.85
-8.77
-8.96
-9.42
-9.31
-8.12
-5.67
-2.21
1.67
5.28
7.83
8.70
7.86
5.97
4.10
3.44
4.82
8.44
14.02
20.69
27.11
31.88
33.93
32.96
29.70
25.61
22.34
21.25
22.67
25.75
28.81
30.12
28.74
25.01
20.02
15.15
11.46
9.30
8.15
6.88
4.25
-0.50
-7.22
-15.25
-23.57
-31.03
-36.66
-39.37
-38.43
-34.39
-29.32
-24.05
-18.80
-13.78
-9.46
-6.35
-4.75
-4.65
-5.64
-6.89
-7.35
-6.50
-4.50
-1.97
0.30
1.73
2.07
1.51
0.59
0.04
0.19
0.96
1.96
2.83
3.35
3.49
3.44
3.55
4.22
5.61
7.63
10.00
12.42
14.54
16.10
16.85
16.65
15.54
13.61
11.10
8.30
5.56
3.18
1.33
0.08
-0.58
-0.73
-0.51
-0.18
-0.03
-0.33
-1.15
-2.33
-3.49
-4.21
-4.15
-3.32
-2.01
-0.67
0.30
0.76
0.87
0.92
1.28
2.25
3.89
6.02
8.22
10.10
11.34
11.91
11.95
11.86
12.14
13.13
14.75
16.51
17.63
17.40
15.42
11.64
6.60
1.29
-3.21
-6.19
-7.60
-8.15
-9.27
-11.52
-15.84
-22.98
-32.79
-43.94
-54.65
-63.54
-70.10
-74.74
-78.20
-81.41
-84.63
-87.04
-86.70
-81.20
-68.73
-49.06
-24.27
2.00
25.48
43.07
53.83
58.82
59.96
58.91
57.00
53.70
48.81
42.71
36.44
31.20
27.65
25.58
24.13
22.29
19.31
15.32
10.99
7.26
4.87
4.06
4.43
5.28
5.83
5.47
4.17
2.25
0.36
-0.87
-1.03
-0.39
0.73
1.82
2.37
2.04
0.69
-1.43
-4.02
-6.73
-9.27
-11.23
-12.27
-12.34
-11.72
-11.07
-10.89
-11.64
-13.61
-16.60
-19.81
-22.18
-22.93
-21.82
-19.29
-15.68
-11.62
-8.17
-6.34
-6.56
-8.39
-10.50
-10.98
-7.91
0.53
14.53
32.11
49.95
64.95
75.34
81.15
83.74
80.50
71.30
58.76
46.25
35.45
26.23
18.01
10.63
4.40
0.36
-0.90
0.77
4.64
9.36
13.58
16.30
16.91
15.24
10.88
4.78
-1.68
-7.39
-11.76
-14.62
-16.12
-16.60
-16.47
-16.02
-15.03
-13.35
-11.27
-9.37
-8.17
-7.89
-8.41
-9.40
-10.60
-11.73
-13.00
-15.03
-18.56
-23.92
-30.71
-37.82
-43.86
-47.64
-48.55
-46.87
-43.63
-40.08
-37.22
-35.38
-34.34
-33.54
-32.52
-31.06
-29.25
-27.33
-25.55
-24.06
-22.90
-22.05
-21.46
-21.06
-20.71
-20.22
-19.30
-17.67
-15.09
-11.50
-6.99
-1.88
3.40
8.35
12.54
15.75
17.98
19.48
20.58
21.57
22.58
23.61
24.50
25.07
25.20
24.83
24.01
22.85
21.50
20.11
18.83
17.77
16.93
16.27
15.66
14.96
14.01
12.77
11.24
9.51
7.74
6.05
4.57
3.35
2.40
1.67
1.13
0.74
0.52
0.53
0.83
1.45
2.38
3.49
4.67
5.79
6.81
7.74
8.64
9.57
10.56
11.63
12.71
13.74
14.62
15.26
15.58
15.53
15.08
14.28
13.18
11.85
10.38
8.80
7.14
5.45
3.83
2.40
1.34
0.79
0.85
1.49
2.60
4.00
5.56
7.16
8.83
10.59
12.47
14.45
16.48
18.51
20.52
22.50
24.41
26.12
27.43
28.14
28.11
27.31
25.85
23.89
21.60
19.04
16.20
13.04
9.49
5.54
1.23
-3.29
-7.84
-12.18
-16.08
-19.34
-21.89
-23.75
-24.98
-25.68
-25.90
-25.68
-25.05
-24.10
-22.94
-21.69
-20.41
-19.14
-17.84
-16.48
-15.11
-13.80
-12.66
-11.72
-10.95
-10.28
-9.61
-8.94
-8.30
-7.82
-7.56
-7.52
-7.61
-7.71
-7.69
-7.50
-7.18
-6.80
-6.43
-6.09
-5.76
-5.36
-4.82
-4.12
-3.28
-2.39
-1.56
-0.88
-0.42
-0.23
-0.34
-0.74
-1.40
-2.25
-3.24
-4.30
-5.43
-6.65
-7.96
-9.30
-10.56
-11.63
-12.40
-12.86
-13.08
-13.09
-12.96
-12.67
-12.24
-11.71
-11.18
-10.78
-10.61
-10.67
-10.87
-11.02
-11.03
