1596031340.00
64.000000
-0.00
-0.00
-0.00
-0.00
-0.00
-0.00
-0.00
-0.00
-0.00
-0.00
0.00
0.01
0.01
-0.00
-0.03
-0.05
-0.05
0.00
0.13
0.36
0.66
1.01
1.37
1.72
2.06
2.40
2.79
3.24
3.80
4.42
5.06
5.66
6.20
6.68
7.15
7.68
8.31
9.14
10.09
11.04
11.88
12.56
13.14
13.76
14.65
15.96
17.91
20.32
22.90
25.38
27.58
29.57
31.68
34.32
37.81
42.54
48.15
54.10
59.83
64.97
69.58
74.14
79.34
85.71
93.76
103.00
112.62
121.73
129.77
136.75
143.30
150.75
157.77
166.64
177.95
191.79
206.97
220.57
228.25
225.36
208.53
176.87
132.76
80.05
23.07
-34.94
-92.44
-149.16
-205.23
-260.37
-313.74
-363.87
-409.83
-450.91
-486.50
-515.74
-537.23
-549.22
-549.96
-538.37
-514.21
-478.67
-433.88
-382.45
-327.02
-269.84
-212.63
-156.66
-102.95
-52.37
-5.90
35.58
71.43
101.35
125.50
144.38
158.69
169.15
176.37
180.75
182.57
182.07
179.51
175.23
169.65
163.18
156.15
148.81
141.30
133.69
126.02
118.33
110.69
103.16
95.80
88.68
81.83
75.25
68.95
62.95
57.25
51.86
46.78
42.03
37.59
33.45
29.61
26.07
22.81
19.83
17.11
14.67
12.48
10.54
8.83
7.35
6.07
4.97
4.05
3.27
2.62
2.09
1.65
1.30
1.01
0.79
0.61
0.47
0.37
0.28
0.22
0.18
0.14
0.12
0.11
0.11
0.11
0.12
0.14
0.16
0.20
0.25
0.30
0.35
0.37
0.36
0.33
0.27
0.23
0.22
0.24
0.30
0.36
0.41
0.42
0.40
0.37
0.35
0.38
0.47
0.60
0.74
0.85
0.89
0.87
0.83
0.86
1.02
1.33
1.73
2.13
2.40
2.46
2.33
2.13
2.04
2.22
2.74
3.48
4.21
4.68
4.70
4.32
3.75
3.35
3.43
4.11
5.21
6.34
7.05
7.05
6.33
5.21
4.14
3.36
2.93
2.51
1.58
-0.36
-3.63
-8.45
-14.92
-22.96
-31.95
-40.44
-46.40
-47.80
-43.66
-34.62
-22.90
-11.43
-2.58
2.69
4.92
5.46
5.58
5.90
6.51
7.42
8.87
11.35
15.16
20.03
24.99
28.78
30.37
29.22
25.58
20.24
14.40
9.18
5.37
3.18
2.21
1.67
0.74
-0.89
-2.90
-4.46
-4.83
-3.83
-1.93
-0.07
1.04
1.25
1.06
1.25
2.33
4.18
6.11
7.41
7.64
6.77
5.01
2.49
-0.86
-5.12
-10.17
-15.62
-20.75
-24.85
-27.43
-28.45
-28.13
-26.90
-25.23
-22.99
-20.58
-18.57
-17.50
-17.66
-18.96
-20.83
-22.29
-22.25
-19.73
-14.28
-5.99
4.46
15.93
27.08
36.74
44.13
48.91
51.16
51.13
49.25
46.08
42.37
38.99
36.75
36.16
37.12
39.00
40.84
41.88
41.93
41.33
40.62
39.99
39.08
37.06
33.23
27.45
20.31
12.80
5.72
-0.75
-6.92
-13.22
-19.68
-25.81
-30.93
-34.62
-37.02
-38.70
-40.22
-41.82
-43.35
-44.58
-45.52
-46.60
-48.42
-51.36
-55.19
-59.13
-62.03
-62.81
-60.85
-56.12
-49.18
-40.89
-32.12
-23.32
-14.32
-4.48
6.90
19.90
33.59
46.15
55.57
60.60
61.30
59.06
55.71
52.61
50.04
47.37
43.81
39.22
34.33
30.37
28.26
28.00
28.70
29.11
28.30
26.15
23.17
20.06
17.17
14.39
11.33
7.65
3.30
-1.50
-6.43
-11.24
-15.71
-19.69
-23.02
-25.66
-27.76
-29.69
-31.90
-34.65
-37.94
-41.64
-45.70
-50.35
-56.01
-62.84
-70.35
-77.30
-82.04
-83.15
-80.02
-73.04
-63.34
-52.26
-40.87
-29.77
-19.25
-9.49
-0.64
7.13
13.77
19.41
24.25
28.44
32.05
35.01
37.33
39.03
40.21
40.90
41.09
40.72
39.80
38.49
37.00
35.39
33.53
31.10
27.90
24.14
20.44
17.57
16.00
15.56
15.49
14.79
12.81
9.53
5.47
1.35
-2.36
-5.53
-8.33
-10.90
-13.30
-15.52
-17.71
-20.30
-23.80
-28.42
-33.81
-38.95
-42.49
-43.25
-40.66
-34.92
-26.87
-17.67
-8.41
0.09
7.42
13.53
18.59
22.90
26.70
30.06
32.88
34.96
36.16
36.52
36.18
35.36
34.20
32.71
30.90
28.89
26.88
25.15
23.78
22.67
21.50
19.95
17.87
15.44
12.97
10.73
8.71
6.61
4.00
0.57
-3.61
-8.17
-12.55
-16.32
-19.39
-22.04
-24.76
-28.06
-32.20
-37.14
-42.50
-47.67
-51.90
-54.42
-54.57
-51.97
-46.68
-39.11
-29.97
-20.05
-10.15
-0.89
7.24
13.95
19.20
23.17
26.29
28.94
31.40
33.64
35.47
36.66
37.24
37.52
37.97
38.98
40.60
42.55
44.32
45.45
45.71
45.18
44.17
43.06
42.08
41.23
40.30
38.91
36.78
33.80
30.10
25.93
21.34
16.10
9.75
2.03
-6.76
-15.63
-23.27
-28.68
-31.74
-33.29
-34.68
-37.01
-40.62
-45.04
-49.36
-52.84
-55.30
-57.12
-59.09
-62.00
-66.38
-72.29
-79.11
-85.62
-90.23
-91.46
-88.47
-81.40
-71.32
-59.81
-48.37
-37.97
-28.98
-21.31
-14.78
-9.26
-4.80
-1.46
0.88
2.49
3.78
5.01
6.21
7.22
7.93
8.53
9.62
12.05
16.47
22.98
30.87
38.94
45.87
50.73
53.26
53.75
52.82
51.07
48.94
46.55
43.89
40.91
37.62
34.10
30.53
26.98
23.45
19.91
16.34
12.85
9.65
6.92
4.63
2.46
-0.06
-3.47
-8.04
-13.77
-20.36
-27.26
-33.76
-39.04
-42.33
-42.99
-40.83
-36.13
-29.64
-22.30
-14.99
-8.26
-2.27
3.01
7.72
11.90
15.55
18.61
21.10
23.09
24.68
25.97
26.99
27.71
28.05
27.98
27.53
26.80
25.90
24.89
23.73
22.33
20.65
18.72
16.64
14.56
12.51
10.47
8.36
6.19
4.03
1.97
-0.05
-2.26
-4.98
-8.42
-12.46
-16.67
-20.45
-23.36
-25.41
-27.02
-28.93
-31.79
-35.94
-41.20
-47.02
-52.55
-56.89
-59.23
-58.94
-55.72
-49.67
-41.31
-31.55
-21.45
-11.96
-3.67
3.31
9.31
14.77
19.98
24.86
29.00
31.85
33.03
32.52
30.65
27.94
24.83
21.63
18.48
15.46
12.69
10.32
8.43
7.01
5.95
5.12
4.48
4.08
4.00
4.32
5.00
5.90
6.82
7.51
7.67
7.03
5.41
2.85
-0.44
-4.09
-7.80
-11.38
-14.83
-18.25
-21.71
-25.20
-28.65
-31.91
-34.85
-37.36
-39.42
-41.26
-43.34
-46.32
-50.86
-57.21
-64.99
-73.11
-80.05
-84.26
-84.62
-80.74
-72.95
-62.19
-49.71
-36.75
-24.32
-13.06
-3.28
4.98
11.73
17.02
20.86
23.43
25.03
26.19
27.39
28.96
30.95
33.17
35.37
37.32
38.91
40.08
40.86
41.30
41.54
41.75
42.08
42.59
43.18
43.65
43.73
43.16
41.75
39.49
36.61
33.55
30.83
28.85
27.68
26.96
26.06
24.30
21.25
16.85
11.32
5.08
-1.35
-7.45
-12.71
-16.73
-19.37
-20.89
-21.96
-23.42
-25.87
-29.30
-33.00
-35.76
-36.32
-33.88
-28.38
-20.49
-11.34
-2.08
6.41
13.69
19.71
24.55
28.33
31.09
32.90
33.97
34.55
34.83
34.65
33.63
31.24
27.27
22.13
16.88
12.87
11.12
11.88
14.47
17.73
20.57
22.55
23.93
25.44
27.68
30.76
34.31
37.73
40.65
43.16
45.72
48.72
52.14
55.40
57.63
58.04
56.32
52.64
47.42
41.04
33.69
25.48
16.75
8.04
0.04
-6.81
-12.59
-17.91
-23.59
-30.23
-37.84
-45.69
-52.60
-57.20
-58.44
-55.86
-49.70
-40.81
-30.36
-19.52
-9.22
-0.02
7.81
14.21
19.26
23.20
26.39
29.31
32.30
35.44
38.52
41.20
43.25
44.71
45.78
46.50
46.59
45.47
42.69
38.27
32.83
27.39
22.81
19.45
17.08
15.20
13.38
11.46
9.42
7.05
3.89
-0.60
-6.68
-14.07
-21.92
-29.17
-34.86
-38.46
-39.98
-39.84
-38.82
-37.82
-37.64
-38.77
-41.21
-44.54
-48.17
-51.73
-55.25
-59.12
-63.71
-68.92
-73.93
-77.42
-77.98
-74.73
-67.69
-57.66
-45.90
-33.61
-21.62
-10.37
-0.03
9.18
16.97
22.98
27.04
29.14
29.61
28.92
27.56
26.00
24.45
22.96
21.28
19.04
15.91
11.85
7.19
2.47
-1.79
-5.46
-8.85
-12.55
-17.05
-22.49
-28.51
-34.48
-39.80
-44.04
-47.02
-48.64
-48.82
-47.50
-44.75
-40.85
-36.34
-31.86
-27.86
-24.54
-21.79
-19.32
-16.94
-14.69
-12.90
-12.15
-13.01
-15.79
-20.34
-25.82
-30.86
-33.89
-33.65
-29.67
-22.45
-13.29
-3.69
5.07
12.47
18.58
23.83
28.56
32.80
36.26
38.62
39.73
39.74
38.98
37.83
36.56
35.30
34.07
32.95
32.00
31.32
30.98
30.91
30.96
30.85
30.31
29.04
26.92
23.97
20.49
16.95
13.82
11.28
9.15
6.96
4.19
0.70
-3.18
-6.68
-8.94
-9.36
-7.93
-5.18
-2.12
0.11
0.46
-1.82
-6.92
-14.39
-23.09
-31.37
-37.51
-40.13
-38.69
-33.55
-25.76
-16.70
-7.61
0.66
7.71
13.46
18.05
21.68
24.65
27.25
29.69
32.02
34.06
35.57
36.30
36.16
35.23
33.69
31.71
29.43
27.03
24.70
22.71
21.23
20.20
19.21
17.74
15.36
11.97
7.89
3.59
-0.57
-4.62
-8.80
-13.32
-18.04
-22.35
-25.51
-27.08
-27.31
-27.07
-27.46
-29.23
-32.43
-36.46
-40.41
-43.63
-45.93
-47.67
-49.35
-51.38
-53.87
-56.64
-59.49
-62.23
-64.72
-66.68
-67.54
-66.47
-62.65
-55.69
-45.84
-34.13
-21.99
-10.81
-1.46
5.86
11.55
16.28
20.57
24.69
28.54
31.92
34.65
36.75
38.41
39.84
41.19
42.32
42.97
42.86
41.89
40.23
38.24
36.27
34.52
32.90
31.16
29.11
26.73
24.24
21.98
20.16
18.78
17.54
16.05
13.91
10.96
7.23
2.98
-1.47
-5.83
-9.91
-13.68
-17.30
-21.06
-25.34
-30.42
-36.27
-42.36
-47.74
-51.19
-51.65
-48.61
-42.30
-33.59
-23.75
-13.92
-4.91
2.90
9.53
15.10
19.82
23.81
27.22
30.12
32.56
34.47
35.73
36.17
35.66
34.23
32.05
29.47
26.90
24.71
23.08
21.99
21.14
20.14
18.57
16.24
13.21
9.78
6.35
3.19
0.31
-2.53
-5.68
-9.37
-13.58
-18.06
-22.40
-26.24
-29.39
-31.90
-33.98
-35.92
-38.01
-40.62
-44.05
-48.36
-53.28
-57.94
-61.11
-61.52
-58.31
-51.38
-41.44
-29.75
-17.62
-6.16
4.06
12.86
20.36
26.85
32.65
38.01
43.01
47.55
51.34
54.13
55.77
56.36
56.18
55.51
54.50
53.16
51.40
49.19
46.64
43.86
40.96
37.92
34.67
31.27
27.96
25.18
23.38
22.75
23.03
23.56
23.38
21.56
17.44
10.88
2.30
-7.46
-17.35
-26.46
-34.27
-40.74
-46.19
-51.00
-55.31
-58.88
-61.30
-62.22
-61.69
-60.28
-58.92
-58.62
-60.06
-63.43
-68.22
-73.41
-77.61
-79.43
-77.83
-72.32
-63.19
-51.38
-38.32
-25.50
-14.15
-4.85
2.49
8.51
13.98
19.45
25.00
30.29
34.88
38.50
41.20
43.19
44.59
45.30
45.01
43.52
40.98
38.05
35.57
34.19
34.06
34.71
35.32
35.15
33.76
31.17
27.72
23.86
20.01
16.51
13.55
11.22
9.36
7.71
5.90
3.64
0.85
-2.32
-5.54
-8.53
-11.10
-13.29
-15.30
-17.47
-20.24
-24.09
-29.41
-36.19
-43.84
-51.07
-56.21
-57.72
-54.81
-47.72
-37.67
-26.35
-15.30
-5.45
2.94
10.14
16.55
22.39
27.65
32.16
35.75
38.40
40.25
41.51
42.33
42.74
42.68
42.02
40.77
39.09
37.30
35.76
34.67
34.03
33.52
32.73
31.23
28.84
25.69
22.14
18.66
15.51
12.69
9.85
6.53
2.33
-2.84
-8.78
-15.04
-21.16
-26.84
-32.03
-36.92
-41.83
-47.12
-53.17
-60.31
-68.61
-77.76
-86.94
-94.83
-99.88
-100.76
-96.78
-88.17
-75.98
-61.77
-47.13
-33.28
-20.83
-9.84
-0.01
9.04
17.53
25.52
32.86
39.37
44.99
49.78
53.90
57.47
60.57
63.18
65.32
67.01
68.37
69.56
70.66
71.59
72.05
71.66
70.09
67.36
63.85
60.33
57.50
55.76
54.88
54.11
52.61
49.83
45.96
41.77
38.24
35.90
34.49
33.06
30.36
25.51
18.43
10.00
1.68
-4.81
-8.06
-7.14
-1.97
6.43
15.64
22.08
21.88
12.44
-6.02
-29.68
-51.91
-65.53
-65.58
-51.43
-27.03
0.83
25.31
42.05
50.22
51.78
49.59
45.59
39.86
31.04
17.51
-1.42
-25.02
-51.46
-78.55
-104.53
-128.20
-148.56
-164.53
-174.99
-179.27
-177.84
-172.33
-165.07
-158.04
-151.89
-145.62
-137.19
-124.62
-107.01
-84.95
-60.23
-35.19
-12.00
7.92
24.20
37.53
49.57
62.62
78.85
99.47
124.05
150.40
175.14
194.65
206.11
208.14
201.08
186.65
167.55
146.94
127.87
112.80
103.12
98.90
98.98
101.36
103.78
104.36
102.03
96.66
88.85
79.50
69.44
58.91
47.59
34.70
19.32
0.83
-20.85
-45.19
-71.21
-97.64
-123.25
-146.97
-167.92
-185.46
-199.05
-208.19
-212.35
-211.08
-204.15
-191.64
-173.95
-151.76
-125.83
-97.16
-67.01
-37.08
-9.36
14.34
32.92
46.29
55.25
60.80
63.58
63.43
59.83
52.48
41.95
29.69
17.49
6.72
-2.10
-9.18
-14.93
-19.40
-22.15
-22.62
-20.63
-16.72
-12.02
-7.85
-5.18
-4.28
-4.79
-5.97
-7.02
-7.32
-6.48
-4.25
-0.54
4.64
10.91
17.37
22.64
25.11
23.50
17.41
7.69
-3.83
-14.94
-23.97
-30.28
-34.39
-37.28
-39.76
-41.98
-43.43
-43.60
-42.50
-40.98
-40.40
-41.97
-46.11
-52.05
-58.07
-62.10
-62.49
-58.47
-50.34
-39.15
-26.27
-12.89
0.24
12.82
24.92
36.71
48.45
60.30
72.34
84.35
95.81
105.88
113.64
118.46
120.26
119.48
116.83
112.82
107.64
101.18
93.38
84.46
75.00
65.65
56.83
48.63
40.91
33.62
26.91
21.16
16.69
13.48
11.03
8.59
5.46
1.32
-3.69
-9.09
-14.35
-19.07
-23.21
-27.02
-30.91
-35.36
-40.75
-47.21
-54.45
-61.68
-67.73
-71.32
-71.51
-68.02
-61.32
-52.35
-42.10
-31.19
-19.87
-8.12
4.02
16.26
28.09
38.90
48.09
55.23
60.00
62.35
62.55
61.24
59.27
57.50
56.43
56.05
55.88
55.16
53.24
49.76
44.63
38.04
30.30
21.80
13.04
4.59
-3.03
-9.50
-14.75
-18.98
-22.50
-25.59
-28.38
-30.85
-32.92
-34.47
-35.39
-35.58
-35.01
-33.74
-32.09
-30.56
-29.70
-29.88
-31.08
-32.88
-34.64
-35.87
-36.46
-36.77
-37.49
-39.40
-43.11
-48.86
-56.24
-64.21
-71.09
-74.89
-73.93
-67.37
-55.67
-40.46
-23.93
-8.04
6.10
18.37
29.22
39.00
47.53
54.09
57.80
58.23
55.65
50.98
45.39
39.86
34.94
30.76
27.31
24.53
22.43
20.96
19.98
19.25
18.65
18.16
17.88
17.91
18.05
17.92
17.03
15.14
12.41
9.38
6.65
4.60
3.16
1.89
0.25
-2.21
-5.60
-9.69
-14.01
-18.09
-21.60
-24.53
-27.21
-30.22
-34.20
-39.59
-46.45
-54.30
-62.15
-68.66
-72.45
-72.45
-68.17
-59.93
-48.69
-35.85
-22.79
-10.51
0.46
10.07
18.47
25.82
32.19
37.60
42.01
45.37
47.66
48.86
49.06
48.39
47.16
45.74
44.47
43.58
43.04
42.68
42.23
41.49
40.46
39.25
38.02
36.76
35.31
33.40
30.83
27.66
24.18
20.78
17.69
14.85
11.95
8.65
4.87
0.87
-2.90
-6.01
-8.29
-9.93
-11.26
-12.64
-14.26
-16.13
-18.15
-20.19
-22.18
-24.10
-25.98
-27.87
-29.87
-32.08
-34.70
-37.95
-42.11
-47.45
-53.92
-61.06
-67.70
-72.26
-73.11
-69.18
-60.52
-48.27
-34.36
-20.75
-8.80
1.02
9.00
15.75
21.78
27.20
31.83
35.32
37.44
38.16
37.64
36.20
34.23
32.11
30.18
28.73
27.92
27.82
28.42
29.59
31.16
32.90
34.52
35.70
36.28
36.22
35.73
35.14
34.85
35.14
36.09
37.56
39.26
40.86
41.88
41.77
39.76
35.02
26.98
15.70
2.16
-11.90
-24.37
-33.61
-38.89
-40.60
-39.94
-38.25
-36.54
-35.24
-34.41
-34.00
-34.21
-35.39
-37.98
-42.23
-48.16
-55.75
-65.01
-76.08
-88.93
-102.97
-116.59
-127.26
-132.13
-128.96
-117.14
-97.95
-74.25
-49.38
-26.10
-5.82
11.34
26.01
38.85
50.07
59.40
66.32
70.43
71.64
70.14
66.38
61.04
54.86
48.57
42.78
37.78
33.73
30.69
28.70
27.89
28.29
29.72
31.74
33.74
35.17
35.75
35.48
34.55
33.11
31.03
27.97
23.43
17.09
8.95
-0.54
-10.58
-20.26
-28.79
-35.81
-41.36
-45.78
-49.54
-53.08
-56.75
-60.81
-65.42
-70.43
-75.19
-78.50
-78.75
-74.50
-65.09
-51.08
-34.25
-17.03
-1.73
10.21
18.44
23.54
26.47
28.10
28.85
28.85
28.18
27.10
26.09
25.68
26.09
27.11
28.04
28.11
26.83
24.29
21.12
18.27
16.44
15.84
16.09
16.50
16.45
15.59
13.96
11.82
9.46
7.08
4.76
2.45
0.02
-2.64
-5.65
-9.01
-12.55
-15.89
-18.69
-20.73
-22.16
-23.51
-25.49
-28.67
-33.08
-38.17
-42.90
-46.21
-47.42
-46.55
-44.12
-40.72
-36.59
-31.55
-25.29
-17.84
-9.79
-2.06
4.61
10.16
15.19
20.43
26.17
31.84
36.38
38.83
39.06
37.84
36.47
36.11
37.25
39.70
42.74
45.52
47.18
46.93
44.09
38.37
30.14
20.47
10.90
2.85
-2.86
-6.31
-8.17
-9.29
-10.22
-11.11
-11.94
-12.69
-13.65
-15.15
-17.39
-20.22
-23.13
-25.54
-27.04
-27.59
-27.44
-27.05
-26.87
-27.28
-28.70
-31.48
-35.88
-41.74
-48.40
-54.74
-59.43
-61.44
-60.26
-56.10
-49.58
-41.49
-32.47
-22.99
-13.40
-4.01
4.84
12.86
19.88
25.83
30.66
34.40
37.07
38.88
40.22
41.56
43.30
45.61
48.44
51.60
54.85
57.96
60.64
62.39
62.47
60.04
54.47
45.76
34.67
22.69
11.51
2.48
-3.80
-7.64
-9.89
-11.53
-13.18
-15.00
-16.81
-18.39
-19.69
-20.83
-21.92
-22.88
-23.56
-23.98
-24.55
-26.12
-29.62
-35.52
-43.39
-51.88
-59.01
-62.93
-62.42
-57.19
-47.83
-35.45
-21.32
-6.63
7.68
20.85
32.28
41.50
48.17
52.15
53.68
53.28
51.72
49.74
47.79
45.91
43.87
41.45
38.66
35.90
33.59
31.97
30.79
29.47
27.42
24.37
20.53
16.48
12.82
9.79
7.23
4.64
1.48
-2.57
-7.48
-12.87
-18.22
-23.05
-27.09
-30.29
-32.85
-35.04
-37.01
-38.69
-39.82
-40.15
-39.63
-38.55
-37.50
-37.16
-38.15
-40.91
-45.66
-52.33
-60.42
-68.78
-75.70
-79.27
-77.94
-71.20
-59.84
-45.68
-30.94
-17.39
-5.99
3.24
10.80
17.33
23.30
29.01
34.56
40.00
45.28
50.20
54.46
57.67
59.51
59.74
58.35
55.54
51.68
47.27
42.90
39.06
36.00
33.60
31.37
28.76
25.39
21.32
17.07
13.36
10.77
9.39
8.85
8.47
7.71
6.38
4.71
3.12
2.00
1.47
1.32
1.12
0.30
-1.68
-5.18
-10.26
-16.65
-23.75
-30.88
-37.48
-43.32
-48.52
-53.45
-58.57
-64.22
-70.56
-77.46
-84.44
-90.59
-94.57
-94.89
-90.44
-80.87
-66.93
-50.23
-32.78
-16.36
-2.06
9.84
19.62
27.84
34.96
41.23
46.70
51.37
55.25
58.39
60.91
62.86
64.15
64.63
64.12
62.65
60.53
58.32
56.62
55.82
55.90
56.42
56.71
56.10
54.28
51.36
47.88
44.53
41.85
39.92
38.17
35.44
30.36
21.85
9.68
-5.36
-21.62
-37.12
-50.22
-60.09
-66.77
-71.02
-73.82
-76.16
-78.69
-81.58
-84.33
-85.75
-84.21
-78.12
-66.73
-50.67
-32.09
-14.11
0.11
8.37
10.05
6.01
-1.96
-11.88
-22.17
-31.88
-40.50
-47.73
-53.22
-56.37
-56.41
-52.49
-43.89
-30.48
-13.13
6.00
23.72
36.82
43.37
43.73
40.58
37.76
38.46
43.71
51.94
59.96
64.51
63.78
57.79
47.95
36.03
23.48
11.16
-0.42
-10.70
-18.83
-23.64
-23.94
-19.14
-9.86
1.72
12.27
18.25
17.20
8.67
-5.71
-23.05
-40.29
-55.02
-65.70
-71.34
-71.29
-65.38
-54.17
-39.20
-22.71
-6.89
6.81
17.94
26.93
34.57
41.54
48.29
54.99
61.66
68.09
73.91
78.58
81.65
82.96
82.76
81.70
80.61
80.28
81.18
83.38
86.57
90.21
93.71
96.65
98.88
100.37
101.14
101.02
99.69
96.79
92.13
85.80
78.16
69.84
61.42
53.37
45.95
39.19
32.91
26.70
20.05
12.48
3.76
-5.91
-15.92
-25.41
-33.65
-40.35
-45.74
-50.48
-55.33
-60.91
-67.56
-75.41
-84.51
-94.70
-105.33
-115.10
-122.04
-124.17
-120.15
-110.10
-95.54
-78.92
-62.66
-48.25
-36.06
-25.54
-15.85
-6.40
2.92
11.91
20.28
27.86
34.63
40.59
45.72
49.86
52.80
54.25
54.02
52.04
48.56
44.21
39.90
36.72
35.55
36.71
39.78
43.68
46.95
48.25
46.72
42.10
34.66
24.87
13.28
0.44
-13.08
-26.61
-39.34
-50.57
-59.86
-67.14
-72.65
-76.71
-79.56
-81.26
-81.81
-81.35
-80.32
-79.41
-79.23
-80.00
-81.19
-81.58
-79.66
-74.22
-64.94
-52.45
-38.21
-23.76
-10.31
1.70
12.40
22.14
31.15
39.20
45.79
50.44
52.95
53.57
52.89
51.53
49.87
47.98
45.66
42.77
39.45
36.08
33.17
31.06
29.73
28.78
27.67
25.85
22.87
18.42
12.41
5.02
-3.14
-11.01
-17.33
-21.06
-21.83
-20.14
-17.15
-14.29
-12.67
-12.73
-14.27
-16.67
-19.32
-21.86
-24.30
-26.83
-29.68
-32.97
-36.79
-41.29
-46.77
-53.44
-61.00
-68.37
-73.67
-74.84
-70.46
-60.55
-46.69
-31.50
-17.58
-6.63
1.04
6.17
9.87
12.95
15.66
17.80
19.09
19.50
19.31
18.97
18.86
19.17
19.87
20.79
21.72
22.50
23.02
23.32
23.56
23.97
24.73
25.76
26.78
27.35
27.11
25.97
24.12
21.88
19.43
16.63
13.11
8.49
2.76
-3.59
-9.76
-14.93
-18.73
-21.35
-23.44
-25.65
-28.33
-31.31
-34.13
-36.27
-37.53
-38.16
-38.70
-39.76
-41.84
-45.22
-49.94
-55.90
-62.64
-69.24
-74.35
-76.31
-73.80
-66.29
-54.38
-39.65
-24.13
-9.61
2.84
12.95
21.08
27.79
33.58
38.72
43.28
47.22
50.41
52.77
54.18
54.64
54.20
52.98
51.12
48.83
46.38
44.08
42.15
40.61
39.22
37.52
35.07
31.70
27.69
23.67
20.34
18.09
16.78
15.83
14.50
12.25
8.97
4.97
0.78
-3.12
-6.50
-9.40
-12.14
-15.16
-18.91
-23.72
-29.67
-36.46
-43.37
-49.26
-52.85
-53.03
-49.24
-41.74
-31.53
-20.09
-8.86
1.10
9.39
16.18
21.99
27.28
32.27
36.89
40.87
43.85
45.60
46.03
45.27
43.55
41.26
38.80
36.53
34.69
33.38
32.50
31.82
31.07
30.03
28.58
26.66
24.34
21.68
18.78
15.84
13.12
10.90
9.36
8.49
7.96
7.24
5.73
3.03
-0.90
-5.71
-10.76
-15.42
-19.29
-22.48
-25.51
-29.18
-34.28
-41.28
-50.24
-60.79
-72.19
-83.34
-92.82
-99.00
-100.33
-95.88
-85.66
-70.92
-53.77
-36.61
-21.40
-9.15
0.23
7.50
13.70
19.68
25.78
31.92
37.65
42.41
45.76
47.55
47.88
47.05
45.43
43.31
40.96
38.59
36.48
34.85
33.82
33.25
32.75
31.82
30.02
27.26
23.80
20.14
16.82
14.14
12.07
10.28
8.33
5.91
2.90
-0.51
-4.01
-7.27
-10.16
-12.74
-15.26
-18.04
-21.35
-25.20
-29.41
-33.55
-37.15
-39.92
-41.90
-43.54
-45.55
-48.69
-53.46
-59.89
-67.34
-74.60
-80.05
-81.99
-79.21
-71.37
-59.21
-44.42
-29.11
-15.09
-3.36
6.05
13.78
20.65
27.20
33.50
39.26
44.12
47.90
50.64
52.51
53.65
54.04
53.59
52.22
50.03
47.37
44.78
42.80
41.75
41.57
41.74
41.49
40.10
37.27
33.34
29.10
25.51
23.21
22.16
21.71
20.88
18.81
15.22
10.45
5.21
0.30
-3.86
-7.29
-10.35
-13.57
-17.46
-22.39
-28.66
-36.50
-45.78
-55.89
-65.49
-72.74
-75.83
-73.64
-66.23
-54.88
-41.55
-28.19
-16.13
-5.86
2.78
10.19
16.68
22.35
27.18
31.15
34.29
36.64
38.22
39.05
39.15
38.63
37.58
36.09
34.22
32.11
29.99
28.15
26.86
26.11
25.57
24.64
22.69
19.39
14.91
9.87
5.05
1.03
-2.11
-4.80
-7.71
-11.39
-15.91
-20.86
-25.53
-29.31
-32.02
-34.02
-36.02
-38.83
-42.96
-48.54
-55.15
-61.97
-67.82
-71.38
-71.44
-67.22
-58.67
-46.61
-32.47
-17.96
-4.44
7.35
17.37
26.01
33.81
41.09
47.94
54.24
59.73
64.10
67.01
68.17
67.41
64.81
60.68
55.51
49.82
43.95
38.08
32.24
26.44
20.79
15.48
10.70
6.54
3.03
0.16
-1.98
-3.25
-3.50
-2.79
-1.44
-0.05
0.74
0.50
-0.78
-2.71
-4.72
-6.36
-7.53
-8.46
-9.50
-10.91
-12.68
-14.64
-16.52
-18.25
-19.92
-21.78
-24.12
-27.11
-30.84
-35.33
-40.48
-45.92
-50.91
-54.43
-55.45
-53.38
-48.38
-41.37
-33.63
-26.31
-19.93
-14.33
-8.89
-2.98
3.68
10.95
18.28
25.07
30.78
35.02
37.54
38.29
37.35
35.01
31.82
28.41
25.48
23.52
22.76
23.11
24.26
25.83
27.47
28.97
30.17
30.99
31.33
31.14
30.38
29.08
27.34
25.20
22.70
19.83
16.61
13.16
9.65
6.27
3.15
0.25
-2.63
-5.69
-9.06
-12.61
-16.03
-18.94
-21.16
-22.80
-24.42
-26.92
-31.17
-37.67
-46.16
-55.34
-63.13
-67.20
-65.83
-58.50
-46.29
-31.34
-16.19
-2.78
8.02
16.41
23.18
29.08
34.48
39.32
43.42
46.64
49.05
50.78
51.85
52.14
51.44
49.61
46.71
43.09
39.31
35.98
33.56
32.23
31.81
31.91
32.15
32.29
32.37
32.55
32.88
33.19
32.95
31.67
29.00
24.98
19.96
14.29
8.15
1.43
-6.04
-14.31
-23.06
-31.76
-39.79
-46.73
-52.60
-57.73
-62.70
-68.12
-74.51
-82.20
-91.19
-101.00
-110.59
-118.30
-122.22
-120.73
-112.99
-99.46
-81.71
-62.02
-42.69
-25.39
-10.87
0.93
10.52
18.54
25.42
31.42
36.59
40.93
44.41
46.98
48.62
49.26
49.00
48.02
46.61
45.07
43.64
42.46
41.63
41.21
41.24
41.64
42.14
42.24
41.39
39.20
35.71
31.34
26.83
22.84
19.71
17.31
15.16
12.74
9.69
6.02
2.00
-1.95
-5.52
-8.58
-11.32
-14.11
-17.31
-21.17
-25.64
-30.44
-35.17
-39.50
-43.24
-46.41
-49.15
-51.63
-54.17
-57.18
-61.25
-66.91
-74.24
-82.45
-89.78
-93.91
-92.71
-85.21
-71.97
-55.09
-37.28
-20.95
-7.41
3.35
12.15
20.00
27.42
34.31
40.22
44.71
47.73
49.60
50.85
51.76
52.32
52.15
50.91
48.54
45.47
42.51
40.44
39.64
39.93
40.65
41.02
40.56
39.25
37.47
35.69
34.12
32.55
30.47
27.39
23.15
18.07
12.82
8.09
4.33
1.48
-0.86
-3.28
-6.19
-9.71
-13.65
-17.58
-21.15
-24.20
-26.95
-29.89
-33.57
-38.46
-44.69
-52.08
-60.06
-67.85
-74.50
-79.08
-80.75
-78.94
-73.49
-64.77
-53.64
-41.29
-29.11
-18.30
-9.81
-4.13
-1.23
-0.68
-1.65
-3.24
-4.66
-5.61
-6.32
-7.56
-10.35
-15.47
-23.18
-33.06
-44.11
-55.03
-64.51
-71.48
-75.28
-76.17
-75.83
-77.36
-84.50
-99.83
-122.82
-148.90
-170.33
-178.67
-167.75
-135.94
-86.60
-26.81
34.84
90.66
135.23
165.80
181.70
183.30
171.18
145.98
108.87
62.51
11.65
-37.39
-78.28
-106.95
-123.07
-129.99
-133.00
-136.69
-143.02
-150.62
-155.83
-154.34
-142.71
-119.29
-84.18
-39.12
12.58
65.93
114.67
152.41
174.53
180.17
172.98
160.21
150.09
148.49
156.55
170.52
183.70
189.73
185.42
171.81
153.24
135.03
121.17
112.85
108.54
105.17
99.80
91.08
79.58
67.34
56.71
49.21
44.95
42.65
40.31
36.01
28.63
18.20
5.78
-6.97
-18.28
-26.76
-31.83
-33.83
-33.96
-33.90
-35.50
-40.12
-48.27
-59.44
-72.19
-84.67
-95.23
-102.95
-107.77
-110.26
-110.99
-110.08
-107.01
-100.80
-90.44
-75.45
-56.29
-34.60
-13.06
5.15
17.17
21.37
17.94
8.94
-2.19
-11.53
-15.69
-12.92
-3.68
9.31
21.82
29.33
28.52
18.48
1.05
-19.69
-38.97
-52.91
-59.81
-60.55
-57.89
-55.25
-55.46
-59.88
-68.20
-78.71
-88.98
-96.60
-99.67
-97.12
-88.84
-75.57
-58.91
-41.01
-24.23
-10.63
-1.52
2.68
2.46
-0.98
-5.94
-10.43
-12.42
-10.25
-2.93
9.66
26.79
47.08
68.90
90.62
110.83
128.45
142.92
154.26
163.10
170.58
177.93
186.07
195.24
204.73
213.11
218.54
219.42
215.05
206.03
194.29
182.42
172.62
165.93
161.77
158.47
154.05
147.01
136.86
124.00
109.45
94.54
80.68
69.25
61.37
57.50
57.34
59.77
63.34
66.80
69.38
70.63
69.93
65.98
56.89
40.82
16.89
-14.03
-49.15
-84.43
-115.56
-139.27
-153.91
-159.58
-157.59
-149.77
-137.94
-123.57
-107.63
-90.54
-72.12
-51.74
-28.84
-3.60
22.54
46.79
65.63
75.84
75.71
65.61
47.87
26.09
4.20
-14.20
-26.33
-30.48
-26.37
-15.18
0.63
18.08
34.65
49.05
61.18
71.49
80.13
86.41
89.00
86.61
78.73
65.99
49.85
31.94
13.42
-5.13
-23.60
-41.89
-59.68
-76.40
-91.35
-104.05
-114.38
-122.84
-130.45
-138.45
-147.77
-158.39
-168.90
-176.75
-178.97
-173.23
-158.82
-136.98
-110.60
-83.23
-57.97
-36.70
-19.87
-6.91
3.16
11.10
17.32
21.92
24.97
26.69
27.43
27.48
26.90
25.59
23.37
20.29
16.81
13.70
11.86
11.93
14.00
17.51
21.46
24.73
26.52
26.57
25.14
22.83
20.27
17.88
15.80
13.95
12.05
9.70
6.54
2.25
-3.17
-9.40
-15.72
-21.35
-25.68
-28.65
-30.81
-33.15
-36.77
-42.36
-49.96
-58.80
-67.45
-74.09
-77.01
-75.08
-68.12
-56.99
-43.37
-29.22
-16.15
-4.97
4.34
12.35
19.71
26.73
33.38
39.43
44.71
49.28
53.29
56.81
59.61
61.21
61.16
59.41
56.43
53.10
50.36
48.74
48.13
47.92
47.29
45.63
42.75
39.00
35.03
31.54
29.01
27.52
26.64
25.53
23.26
19.09
12.78
4.68
-4.47
-13.84
-22.81
-31.14
-38.94
-46.51
-54.20
-62.17
-70.26
-77.72
-83.21
-85.08
-81.87
-73.07
-59.52
-43.34
-27.17
-13.21
-2.45
5.43
11.54
17.01
22.34
27.34
31.46
34.29
35.78
36.15
35.64
34.19
31.54
27.52
22.30
16.59
11.35
7.45
5.28
4.58
4.53
4.19
2.80
0.07
-3.79
-8.22
-12.54
-16.21
-18.99
-21.02
-22.65
-24.35
-26.45
-28.99
-31.79
-34.55
-37.01
-39.09
-40.92
-42.76
-44.82
-47.20
-49.81
-52.47
-54.97
-57.23
-59.31
-61.42
-63.78
-66.65
-70.24
-74.68
-80.01
-85.98
-91.76
-95.94
-96.70
-92.39
-82.19
-66.67
-47.73
-28.08
-10.30
3.96
14.30
21.45
26.58
30.80
34.68
38.30
41.48
44.01
45.81
46.91
47.37
47.15
46.11
44.17
41.45
38.35
35.48
33.45
32.61
32.87
33.74
34.53
34.63
33.78
32.02
29.71
27.18
24.66
22.20
19.68
17.00
14.07
10.86
7.42
3.87
0.42
-2.68
-5.24
-7.28
-9.01
-10.89
-13.38
-16.73
-20.84
-25.24
-29.35
-32.65
-35.06
-36.84
-38.57
-40.95
-44.58
-49.79
-56.49
-63.96
-70.81
-75.22
-75.29
-69.79
-58.58
-42.88
-24.91
-7.21
8.15
20.09
28.65
34.61
38.97
42.45
45.35
47.55
48.90
49.35
49.09
48.47
47.81
47.18
46.39
45.14
43.24
40.77
38.06
35.61
33.83
32.82
32.30
31.67
30.23
27.39
22.97
17.22
10.78
4.35
-1.60
-7.14
-12.86
-19.61
-28.11
-38.47
-50.07
-61.80
-72.48
-81.44
-88.80
-95.48
-102.89
-112.30
-124.35
-138.77
-154.43
-169.61
-182.28
-190.51
-192.77
-188.25
-177.56
-162.97
-148.23
-137.38
-132.87
-133.87
-135.75
-131.58
-115.14
-84.10
-41.29
6.35
50.94
87.02
113.25
131.85
146.24
158.73
169.56
177.94
183.82
188.92
195.98
206.68
219.67
230.27
232.44
221.77
198.10
165.83
132.06
103.61
84.26
73.67
68.13
62.57
52.64
36.31
14.51
-9.19
-29.62
-41.65
-41.80
-28.93
-3.85
31.84
76.51
128.20
183.43
236.11
277.88
300.41
298.44
272.01
226.23
168.80
106.47
42.70
-21.96
-87.52
-151.80
-209.59
-254.20
-280.60
-288.48
-282.99
-273.01
-267.39
-271.33
-284.30
-300.73
-312.82
-314.09
-301.83
-277.63
-245.90
-211.62
-178.31
-147.14
-117.67
-89.06
-61.10
-34.50
-10.09
12.10
33.19
54.76
77.58
100.44
119.69
130.23
127.68
110.70
82.45
50.33
24.16
13.32
24.02
57.31
108.66
168.81
225.98
268.58
287.91
279.87
245.51
190.28
122.27
49.95
-19.61
-81.76
-134.24
-176.37
-208.20
-229.73
-240.88
-241.71
-232.77
-215.48
-192.02
-164.99
-136.86
-109.45
-83.76
-60.12
-38.52
-18.96
-1.58
13.46
26.15
36.76
45.78
53.82
61.31
68.42
75.02
80.84
85.68
89.57
92.83
95.79
98.48
100.46
100.86
98.71
93.54
85.72
76.57
67.83
60.99
56.53
53.82
51.46
47.98
42.61
35.46
27.28
19.03
11.43
4.65
-1.59
-7.88
-14.95
-23.44
-33.76
-45.69
-58.17
-69.31
-76.82
-78.67
-73.79
-62.51
-46.37
-27.64
-8.65
8.77
23.55
35.42
44.78
52.51
59.64
67.05
75.18
83.73
91.77
97.95
101.00
100.20
95.70
88.48
80.09
72.03
65.22
59.77
55.05
50.11
44.20
37.08
29.16
21.21
13.91
7.63
2.31
-2.32
-6.43
-9.88
-12.25
-13.13
-12.25
-9.52
-4.76
2.54
13.14
27.43
44.55
61.71
74.45
77.92
68.84
46.95
15.27
-21.31
-58.15
-92.42
-123.39
-151.13
-175.00
-192.89
-201.88
-199.89
-186.96
-165.50
-139.18
-111.44
-84.62
-59.95
-38.28
-20.34
-6.63
3.23
10.64
17.56
25.38
34.13
42.57
49.01
52.51
53.44
53.19
53.20
54.15
55.77
57.34
58.42
59.14
60.03
61.48
63.28
64.48
63.83
60.35
53.83
45.00
35.28
26.32
19.35
14.74
12.00
9.94
7.27
3.15
-2.53
-9.10
-15.47
-20.63
-24.08
-26.00
-27.17
-28.64
-31.44
-36.22
-43.04
-51.28
-59.62
-66.27
-69.47
-68.01
-61.69
-51.40
-38.76
-25.61
-13.39
-2.96
5.37
11.64
16.02
18.69
19.84
19.60
18.15
15.61
12.13
7.89
3.14
-1.83
-6.73
-11.29
-15.27
-18.32
-20.02
-19.90
-17.65
-13.29
-7.24
-0.21
7.09
14.18
20.99
27.64
34.29
40.82
46.87
51.96
55.70
57.94
58.74
58.23
56.49
53.51
49.31
43.95
37.65
30.59
22.95
14.75
6.01
-3.22
-12.62
-21.64
-29.47
-35.15
-37.75
-36.69
-32.01
-24.39
-15.04
-5.20
4.36
13.59
23.03
33.18
44.00
54.72
64.06
70.89
74.71
75.84
75.16
73.62
71.82
70.01
68.18
66.32
64.50
62.73
60.80
58.16
54.19
48.55
41.57
34.32
28.38
25.32
25.95
29.97
35.83
41.35
44.44
43.97
40.07
33.89
26.96
20.45
14.85
9.99
5.50
1.00
-3.70
-8.73
-14.24
-20.32
-26.90
-33.70
-40.48
-47.28
-54.59
-63.16
-73.51
-85.45
-97.84
-108.82
-116.33
-118.74
-115.27
-106.18
-92.63
-76.43
-59.70
-44.34
-31.74
-22.48
-16.35
-12.46
-9.60
-6.59
-2.62
2.48
8.30
13.98
18.70
22.00
24.05
25.54
27.37
30.22
34.22
38.83
43.03
45.76
46.28
44.53
41.23
37.58
34.81
33.54
33.57
33.89
33.28
30.88
26.61
21.11
15.28
9.89
5.26
1.49
-1.41
-3.25
-3.79
-3.08
-1.59
-0.27
-0.08
-1.58
-4.68
-8.84
-13.53
-18.56
-24.33
-31.34
-39.70
-48.59
-56.23
-60.43
-59.33
-52.28
-40.11
-24.93
-9.27
4.81
16.24
24.95
31.38
35.89
38.47
38.95
37.35
34.17
30.35
26.93
24.62
23.63
23.70
24.25
24.63
24.15
22.25
18.58
13.21
6.78
0.22
-5.56
-10.23
-14.09
-17.88
-22.24
-27.27
-32.39
-36.61
-39.07
-39.42
-38.04
-35.76
-33.70
-32.70
-33.22
-35.12
-37.90
-40.84
-43.41
-45.45
-47.29
-49.68
-53.53
-59.61
-68.32
-79.45
-92.05
-104.46
-114.48
-119.82
-118.72
-110.64
-96.55
-78.83
-60.49
-44.29
-31.88
-23.42
-17.83
-13.44
-8.75
-2.99
3.74
10.69
16.91
21.62
24.57
26.10
26.98
28.15
30.40
34.08
38.92
44.21
48.93
52.15
53.26
52.19
49.36
45.53
41.51
37.91
35.05
33.05
31.95
31.79
32.45
33.50
34.12
33.27
30.23
25.00
18.48
12.16
7.48
5.13
4.70
4.89
4.03
0.93
-4.67
-12.07
-19.95
-26.94
-32.11
-35.13
-36.05
-35.16
-32.91
-29.92
-27.04
-25.20
-24.90
-25.77
-26.36
-24.61
-18.92
-9.12
3.10
14.90
23.58
27.91
28.64
28.00
28.47
31.55
37.20
43.98
49.88
53.31
53.60
51.20
47.16
42.55
37.89
33.12
27.93
22.18
16.35
11.35
8.08
6.81
6.92
7.11
6.10
3.25
-1.16
-6.18
-10.84
-14.65
-17.74
-20.60
-23.58
-26.60
-29.15
-30.55
-30.31
-28.43
-25.44
-22.29
-19.97
-19.17
-19.99
-21.91
-24.03
-25.47
-25.88
-25.65
-25.84
-27.85
-32.79
-41.03
-51.82
-63.33
-72.97
-78.21
-77.29
-69.78
-56.82
-40.62
-23.82
-8.62
3.65
12.64
18.72
22.58
24.99
26.62
28.03
29.65
31.58
33.67
35.52
36.74
37.13
36.79
36.06
35.33
34.84
34.64
34.62
34.60
34.43
33.98
33.10
31.63
29.47
26.64
23.26
19.52
15.58
11.57
7.52
3.47
-0.56
-4.53
-8.44
-12.35
-16.33
-20.44
-24.58
-28.58
-32.26
-35.53
-38.49
-41.35
-44.32
-47.55
-51.06
-54.88
-59.19
-64.26
-70.31
-77.07
-83.53
-88.00
-88.58
-83.99
-74.10
-60.21
-44.43
-29.04
-15.64
-4.91
3.20
9.16
13.42
16.40
18.52
20.25
22.06
24.14
26.32
28.04
28.64
27.57
24.73
20.50
15.75
11.72
9.81
11.20
16.35
24.70
34.56
43.65
49.91
52.35
51.42
48.61
45.66
43.53
42.15
40.69
38.38
35.22
32.04
29.91
29.39
29.95
30.10
28.01
22.40
13.01
0.63
-13.35
-27.47
-40.74
-52.73
-63.56
-73.75
-83.95
-94.68
-105.95
-117.03
-126.29
-131.64
-131.09
-123.59
-109.49
-90.50
-69.22
-48.28
-29.67
-14.38
-2.40
6.88
14.25
20.39
25.57
29.74
32.59
33.79
33.24
31.28
28.64
26.30
25.15
25.73
28.19
32.52
38.64
46.48
55.82
66.09
76.29
85.13
91.43
94.39
93.96
90.66
85.44
79.24
72.74
66.27
59.87
53.62
47.73
42.60
38.69
36.16
34.68
33.35
30.87
25.92
17.42
4.78
-11.96
-32.01
-53.71
-74.62
-91.78
-102.47
-104.98
-99.22
-86.86
-70.72
-53.95
-39.06
-27.38
-19.06
-13.43
-9.56
-6.59
-3.99
-1.36
1.67
5.66
11.28
19.02
28.89
40.03
50.96
59.92
65.56
67.51
66.43
63.72
60.84
58.70
57.33
56.12
54.25
51.27
47.32
42.96
38.87
35.27
31.90
28.05
23.01
16.49
8.70
0.31
-7.96
-15.66
-22.75
-29.53
-36.46
-43.98
-52.44
-62.02
-72.63
-83.75
-94.27
-102.50
-106.55
-104.91
-97.04
-83.65
-66.55
-48.05
-30.25
-14.49
-1.24
9.77
19.05
27.05
33.96
39.70
44.08
46.85
47.85
47.01
44.40
40.32
35.18
29.56
24.02
19.06
15.07
12.40
11.28
11.79
13.71
16.39
18.82
19.95
19.05
16.04
11.54
6.56
2.08
-1.32
-3.65
-5.30
-6.85
-8.82
-11.55
-15.13
-19.40
-23.95
-28.25
-31.93
-34.89
-37.42
-39.93
-42.75
-45.89
-49.03
-51.77
-53.78
-55.00
-55.56
-55.73
-55.91
-56.55
-58.32
-61.94
-68.04
-76.84
-87.83
-99.54
-109.52
-114.76
-112.43
-100.94
-80.74
-54.54
-26.38
-0.24
21.35
37.86
50.27
59.90
67.41
72.71
75.41
75.69
74.42
72.77
71.35
69.77
67.05
62.45
56.40
50.41
46.34
45.17
46.42
48.33
48.79
46.45
41.16
33.87
25.94
18.51
12.16
6.92
2.53
-1.43
-5.38
-9.65
-14.43
-19.69
-25.19
-30.67
-35.90
-40.81
-45.41
-49.68
-53.56
-56.89
-59.55
-61.51
-62.96
-64.43
-66.67
-70.58
-76.66
-84.56
-92.94
-99.65
-102.39
-99.37
-89.74
-73.71
-52.42
-27.61
-1.39
24.12
47.14
66.65
82.69
96.17
108.31
119.94
131.06
140.80
147.98
151.63
151.45
147.86
141.75
134.26
126.41
119.00
112.44
106.70
101.56
96.57
91.36
85.69
79.52
72.88
65.85
58.54
51.02
43.44
35.88
28.46
21.31
14.59
8.53
3.35
-0.91
-4.55
-8.35
-13.57
-21.66
-33.79
-50.15
-69.50
-89.16
-105.70
-115.98
-118.12
-112.18
-99.89
-83.96
-67.08
-51.17
-37.12
-24.98
-14.39
-5.00
3.39
10.80
17.17
22.46
26.67
29.90
32.31
34.17
35.80
37.59
39.92
43.05
47.05
51.76
56.77
61.51
65.29
67.43
67.43
65.06
60.65
54.98
49.19
44.36
41.17
39.71
39.60
40.27
41.27
42.46
43.89
45.61
47.46
49.09
49.96
49.46
47.10
42.63
36.26
28.58
20.50
12.72
5.32
-2.47
-11.98
-24.47
-40.41
-59.10
-78.87
-97.49
-112.73
-122.73
-126.11
-122.12
-110.87
-93.66
-72.96
-51.88
-33.28
-18.87
-8.82
-2.00
3.29
8.46
14.24
20.58
26.88
32.29
35.99
37.35
36.15
32.72
27.94
22.94
18.68
15.71
14.00
13.18
12.79
12.54
12.26
11.86
11.23
10.24
8.87
7.25
5.58
4.06
2.76
1.55
0.23
-1.42
-3.46
-5.84
-8.46
-11.22
-14.08
-17.08
-20.24
-23.54
-26.87
-30.05
-32.85
-35.19
-37.11
-38.89
-40.95
-43.69
-47.30
-51.65
-56.20
-60.31
-63.38
-65.24
-66.21
-67.07
-68.85
-72.46
-78.42
-86.55
-95.76
-104.11
-109.18
-108.68
-101.25
-87.03
-67.76
-46.26
-25.47
-7.55
6.64
17.42
25.68
32.33
37.86
42.42
46.03
48.86
51.18
53.21
54.98
56.18
56.39
55.30
52.97
49.94
47.01
44.99
44.35
45.04
46.45
47.64
47.71
46.09
42.75
38.15
33.02
27.97
23.29
18.83
14.23
9.18
3.75
-1.68
-6.53
-10.35
-13.19
-15.60
-18.48
-22.64
-28.45
-35.62
-43.21
-49.99
-54.87
-57.34
-57.68
-56.96
-56.66
-58.14
-62.19
-68.59
-76.13
-82.91
-86.83
-86.12
-79.91
-68.39
-52.72
-34.66
-16.09
1.40
16.73
29.38
39.27
46.60
51.77
55.39
58.12
60.60
63.21
65.95
68.47
70.22
70.79
70.17
68.76
67.21
66.06
65.54
65.33
64.85
63.48
60.92
57.30
53.07
48.67
44.43
40.45
36.82
33.77
31.63
30.54
30.25
30.08
29.21
27.14
23.94
20.12
16.25
12.43
8.25
3.01
-3.68
-11.58
-19.85
-27.48
-33.89
-39.19
-44.17
-49.93
-57.43
-67.11
-78.73
-91.25
-102.95
-111.69
-115.41
-112.84
-103.80
-89.40
-71.64
-52.75
-34.61
-18.41
-4.72
6.34
14.83
20.97
25.17
27.98
30.04
31.78
33.31
34.38
34.68
34.06
32.77
31.39
30.59
30.87
32.33
34.73
37.52
40.15
42.16
43.25
43.22
41.96
39.53
36.04
31.83
27.31
22.92
18.96
15.53
12.51
9.60
6.49
2.90
-1.27
-5.97
-10.98
-15.99
-20.69
-24.80
-28.21
-30.99
-33.43
-35.96
-38.97
-42.68
-46.98
-51.49
-55.70
-59.18
-61.81
-63.84
-65.77
-68.24
-71.89
-77.14
-83.99
-91.75
-99.00
-103.68
-103.67
-97.47
-84.89
-67.18
-46.71
-26.21
-7.89
7.08
18.63
27.42
34.36
40.26
45.67
50.88
55.97
60.86
65.27
68.80
71.03
71.62
70.52
68.00
64.66
61.27
58.63
57.28
57.38
58.60
60.26
61.53
61.75
60.60
58.11
54.61
50.48
46.07
41.62
37.29
33.13
29.09
25.05
20.84
16.38
11.72
7.12
2.86
-0.93
-4.31
-7.59
-11.04
-14.80
-18.73
-22.59
-26.10
-29.16
-31.87
-34.51
-37.56
-41.58
-47.07
-54.14
-62.04
-69.00
-72.56
-70.31
-61.02
-45.31
-25.56
-5.00
13.50
28.40
39.75
48.69
56.57
64.34
72.21
79.95
87.11
93.43
98.82
103.34
107.00
109.60
110.86
110.41
108.11
104.17
99.19
93.95
89.09
84.79
80.69
76.19
70.70
63.97
56.14
47.59
38.74
29.99
21.69
14.14
7.58
1.87
-3.48
-9.28
-16.23
-24.55
-33.73
-42.79
-50.76
-57.12
-62.09
-66.37
-70.70
-75.37
-80.07
-84.12
-86.89
-88.21
-88.53
-88.89
-90.56
-94.62
-101.64
-111.32
-122.34
-132.49
-139.03
-139.48
-132.39
-117.92
-97.85
-75.17
-53.02
-33.83
-18.71
-7.51
0.78
7.27
12.71
17.44
21.42
24.54
26.78
28.12
28.52
27.91
26.28
23.80
20.87
18.07
15.91
14.70
14.37
14.55
14.68
14.22
12.82
10.37
7.04
3.23
-0.57
-3.90
-6.43
-8.08
-8.98
-9.38
-9.59
-9.83
-10.25
-10.93
-11.89
-13.10
-14.59
-16.30
-18.20
-20.22
-22.31
-24.42
-26.57
-28.75
-30.97
-33.21
-35.44
-37.64
-39.84
-42.13
-44.58
-47.30
-50.36
-53.91
-58.19
-63.56
-70.40
-78.76
-88.06
-96.85
-102.99
-104.27
-99.15
-87.52
-70.88
-51.88
-33.45
-17.82
-5.96
2.50
8.69
14.00
19.40
25.38
31.92
38.73
45.39
51.45
56.40
59.75
61.07
60.26
57.66
54.03
50.30
47.28
45.22
43.86
42.60
40.93
38.65
35.94
33.14
30.48
28.03
25.71
23.57
21.76
20.53
20.00
20.01
20.17
20.03
19.23
17.47
14.53
10.19
4.41
-2.49
-9.65
-15.99
-20.69
-23.70
-25.88
-28.68
-33.34
-40.32
-48.87
-57.33
-63.68
-66.25
-64.13
-57.25
-46.25
-32.29
-16.88
-1.75
11.46
21.57
28.25
32.09
34.41
36.65
39.83
44.12
48.96
53.34
56.28
57.17
55.90
52.87
48.93
45.39
43.83
45.57
51.04
59.27
68.01
74.50
76.55
73.53
66.51
57.70
49.54
43.81
41.38
42.20
45.55
50.18
54.50
56.85
56.05
51.85
45.06
37.12
29.25
21.89
14.60
6.58
-2.61
-12.79
-23.23
-33.27
-42.73
-51.97
-61.61
-72.18
-83.94
-96.85
-110.66
-124.60
-137.29
-146.73
-150.80
-147.99
-138.12
-122.49
-103.34
-83.09
-63.64
-46.02
-30.46
-16.60
-3.70
9.07
22.35
36.19
49.83
61.78
70.33
74.27
73.39
68.50
61.17
53.23
46.44
42.24
41.55
44.55
50.44
57.58
63.96
67.90
68.75
66.97
63.67
60.00
56.57
53.35
50.04
46.40
42.46
38.39
34.29
30.04
25.40
20.27
14.79
9.38
4.47
0.30
-3.19
-6.29
-9.37
-12.69
-16.44
-20.81
-26.00
-32.15
-39.08
-46.20
-52.52
-57.08
-59.40
-59.82
-59.55
-60.25
-63.52
-70.17
-79.80
-90.82
-100.68
-106.55
-106.04
-97.93
-82.53
-61.64
-37.96
-14.33
7.05
25.12
39.86
52.02
62.56
72.32
81.87
91.51
101.36
111.39
121.35
130.78
139.04
145.42
149.51
151.29
151.32
150.56
149.92
149.89
150.18
149.79
147.41
142.05
133.46
122.33
109.96
97.72
86.59
76.96
68.65
61.23
54.21
47.28
40.35
33.45
26.51
19.24
11.04
1.21
-10.74
-24.71
-39.97
-55.30
-69.42
-81.52
-91.39
-99.39
-105.96
-111.35
-115.50
-118.24
-119.73
-120.67
-122.14
-125.11
-129.82
-135.41
-139.85
-140.68
-135.75
-124.17
-106.71
-85.60
-63.83
-44.14
-28.21
-16.35
-7.77
-1.13
4.76
10.53
16.21
21.46
25.96
29.61
32.53
34.95
36.98
38.45
39.03
38.33
36.11
32.41
27.50
21.73
15.52
9.27
3.42
-1.54
-5.20
-7.45
-8.55
-9.15
-10.07
-11.95
-15.02
-19.05
-23.50
-27.80
-31.53
-34.49
-36.58
-37.59
-37.14
-34.75
-30.07
-23.20
-14.86
-6.37
0.74
5.13
6.18
4.12
-0.13
-5.47
-11.04
-16.49
-21.94
-27.63
-33.81
-40.56
-47.92
-55.83
-63.95
-71.39
-76.55
-77.54
-72.90
-62.30
-46.98
-29.39
-12.34
1.95
12.51
19.60
24.27
27.66
30.58
33.29
35.71
37.62
38.91
39.65
40.03
40.26
40.46
40.63
40.74
40.79
40.93
41.40
42.30
43.43
44.18
43.70
41.22
36.37
29.45
21.28
12.94
5.37
-0.90
-5.92
-10.14
-14.23
-18.73
-23.82
-29.35
-34.98
-40.45
-45.68
-50.73
-55.64
-60.22
-64.03
-66.66
-67.99
-68.49
-69.09
-70.86
-74.44
-79.68
-85.71
-91.33
-95.58
-98.31
-100.20
-102.52
-106.49
-112.86
-121.50
-131.51
-141.36
-149.20
-153.03
-150.94
-141.66
-125.02
-102.39
-76.52
-50.76
-27.84
-8.92
6.57
20.20
33.33
46.33
58.48
68.82
76.87
82.97
87.75
91.47
93.73
93.86
91.75
88.34
85.32
84.20
85.36
87.87
90.20
91.20
90.72
89.46
88.14
86.86
85.01
81.82
77.16
71.80
67.03
63.83
62.25
61.28
59.43
55.56
49.37
41.52
33.19
25.47
18.93
13.58
8.99
4.73
0.65
-3.11
-6.14
-8.18
-9.38
-10.34
-11.97
-15.25
-20.84
-28.98
-39.40
-51.25
-63.20
-73.38
-79.69
-80.29
-74.21
-61.83
-44.90
-26.04
-7.87
7.78
20.17
29.63
36.96
43.05
48.52
53.68
58.54
62.94
66.58
69.05
70.08
69.55
67.68
64.91
61.77
58.75
56.24
54.48
53.54
53.35
53.64
54.03
54.11
53.55
52.25
50.28
47.83
45.10
42.24
39.36
36.54
33.93
31.67
29.91
28.59
27.48
26.10
23.87
20.38
15.67
10.21
4.70
-0.38
-5.14
-10.24
-16.62
-24.89
-34.90
-45.66
-55.74
-63.80
-69.16
-72.06
-73.51
-75.08
-78.44
-84.95
-95.10
-108.03
-121.36
-131.49
-134.73
-128.62
-113.04
-90.39
-64.68
-40.08
-19.43
-3.67
7.90
16.58
23.49
29.12
33.64
37.26
40.47
43.91
47.84
51.97
55.48
57.47
57.35
55.17
51.56
47.48
43.93
41.61
40.77
41.09
41.84
42.09
41.16
38.88
35.70
32.41
29.72
27.97
26.93
26.11
25.12
23.87
22.63
21.71
21.23
20.90
20.22
18.78
16.58
14.07
11.93
10.73
10.51
10.79
10.74
9.77
7.83
5.63
4.25
4.67
7.25
11.58
16.58
20.86
23.02
21.75
16.02
5.25
-10.26
-28.95
-48.00
-63.94
-73.72
-75.81
-70.76
-60.87
-49.16
-38.08
-28.68
-20.48
-11.99
-1.60
11.56
27.18
43.81
59.19
70.91
77.08
76.84
70.74
60.55
48.71
37.69
29.21
23.99
21.67
21.18
21.08
19.94
16.77
11.20
3.72
-4.53
-12.15
-18.08
-21.92
-24.07
-25.20
-25.85
-26.10
-25.65
-24.40
-22.63
-21.20
-21.09
-22.94
-26.77
-32.05
-38.11
-44.40
-50.72
-56.90
-62.81
-68.31
-73.51
-78.89
-85.18
-92.92
-101.81
-110.44
-116.43
-117.30
-111.33
-98.33
-79.72
-58.00
-35.90
-15.53
1.87
15.95
26.79
34.71
40.18
43.93
47.03
50.66
55.71
62.23
69.36
75.56
79.34
79.91
77.46
73.03
67.95
63.32
59.59
56.62
53.92
50.98
47.62
43.94
40.23
36.64
33.05
29.03
24.05
17.79
10.26
1.89
-6.74
-15.11
-22.90
-30.09
-36.87
-43.57
-50.68
-58.83
-68.62
-80.35
-93.57
-106.86
-117.93
-124.12
-123.26
-114.44
-98.41
-77.45
-54.72
-33.24
-15.05
-0.86
9.81
18.08
25.04
31.25
36.81
41.49
45.12
47.72
49.49
50.67
51.34
51.44
50.85
49.49
47.39
44.77
41.96
39.25
36.84
34.68
32.53
29.98
26.72
22.63
17.87
12.74
7.55
2.40
-2.74
-7.92
-13.06
-17.97
-22.60
-27.19
-32.44
-39.23
-48.16
-59.05
-70.71
-81.15
-88.10
-89.67
-84.95
-74.20
-58.80
-40.85
-22.57
-5.77
8.49
19.96
29.04
36.36
42.43
47.44
51.30
53.80
54.87
54.69
53.55
51.78
49.58
46.99
44.07
40.97
37.98
35.42
33.46
32.00
30.63
28.83
26.17
22.44
17.71
12.23
6.37
0.54
-4.81
-9.39
-13.13
-16.28
-19.45
-23.27
-28.15
-34.01
-40.29
-46.22
-51.21
-55.08
-58.15
-61.10
-64.67
-69.53
-76.12
-84.61
-94.63
-105.11
-114.22
-119.62
-119.15
-111.57
-97.16
-77.74
-56.03
-34.82
-16.14
-0.85
11.18
20.67
28.41
34.94
40.53
45.21
48.93
51.61
53.10
53.30
52.19
49.97
46.98
43.67
40.53
38.01
36.51
36.26
37.24
39.07
41.05
42.37
42.39
40.83
37.80
33.73
29.10
24.42
20.15
16.73
14.51
13.54
13.39
13.10
11.59
8.06
2.49
-4.49
-11.80
-18.54
-24.31
-29.32
-34.24
-39.88
-46.88
-55.42
-64.99
-74.34
-81.51
-84.41
-81.41
-72.12
-57.60
-40.11
-22.26
-6.16
7.14
17.69
26.19
33.43
39.84
45.52
50.31
54.06
56.66
58.06
58.18
56.99
54.61
51.41
48.03
45.16
43.30
42.55
42.55
42.72
42.41
41.26
39.16
36.24
32.74
28.88
24.88
20.87
16.93
13.07
9.25
5.41
1.60
-2.00
-5.20
-8.02
-10.90
-14.70
-20.42
-28.76
-39.66
-52.13
-64.28
-73.83
-78.63
-77.32
-69.64
-56.56
-39.93
-21.93
-4.57
10.80
23.52
33.45
40.73
45.61
48.39
49.59
49.85
49.79
49.88
50.16
50.36
50.05
48.95
47.09
44.84
42.69
40.99
39.78
38.72
37.22
34.72
30.96
26.07
20.60
15.30
10.79
7.36
4.89
2.99
1.15
-1.01
-3.65
-6.72
-9.98
-13.13
-15.85
-18.02
-19.67
-21.12
-22.75
-24.87
-27.54
-30.60
-33.77
-36.95
-40.31
-44.30
-49.49
-56.29
-64.81
-74.87
-85.92
-96.98
-106.50
-112.57
-113.18
-106.97
-93.88
-75.41
-54.29
-33.53
-15.47
-1.04
10.12
19.22
27.44
35.44
43.17
50.07
55.51
59.06
60.61
60.39
58.72
56.01
52.62
48.95
45.43
42.44
40.30
39.11
38.74
38.79
38.72
37.95
36.08
33.03
29.09
24.96
21.43
19.15
18.27
18.42
18.76
18.45
16.97
14.36
11.16
8.10
5.86
4.78
4.78
5.30
5.39
3.97
0.12
-6.53
-15.66
-26.28
-37.14
-47.03
-55.22
-61.57
-66.57
-71.20
-76.66
-84.00
-93.71
-105.18
-116.57
-125.11
-127.83
-122.67
-109.26
-89.18
-65.33
-40.99
-18.77
0.05
15.53
28.49
39.95
50.57
60.55
69.79
78.11
85.24
90.79
94.20
94.86
92.46
87.31
80.41
73.11
66.75
62.11
59.39
58.25
58.18
58.62
59.02
58.83
57.48
54.60
50.11
44.27
37.60
30.58
23.42
16.07
8.32
0.13
-8.23
-16.14
-22.95
-28.21
-32.02
-35.00
-38.16
-42.52
-48.80
-57.07
-66.59
-75.85
-82.84
-85.62
-82.85
-74.31
-61.01
-44.97
-28.58
-13.88
-2.03
6.84
13.41
18.69
23.50
28.30
33.01
37.33
40.87
43.40
44.97
45.77
46.08
46.10
45.95
45.72
45.52
45.56
46.03
46.98
48.14
49.00
48.90
47.34
44.06
39.20
33.14
26.28
18.90
11.08
2.80
-5.81
-14.34
-22.10
-28.26
-32.26
-34.14
-34.56
-34.66
-35.48
-37.60
-40.84
-44.53
-47.88
-50.42
-52.18
-53.63
-55.40
-58.02
-61.77
-66.68
-72.44
-78.36
-83.29
-85.81
-84.45
-78.30
-67.30
-52.43
-35.42
-18.21
-2.38
11.24
22.52
31.82
39.54
45.88
50.81
54.13
55.68
55.46
53.65
50.46
46.19
41.09
35.48
29.72
24.23
19.44
15.65
13.00
11.40
10.59
10.16
9.62
8.64
7.01
4.88
2.63
0.74
-0.42
-0.75
-0.45
0.07
0.38
0.25
-0.41
-1.55
-3.11
-5.08
-7.41
-10.00
-12.63
-15.07
-17.29
-19.52
-22.20
-25.70
-30.19
-35.33
-40.52
-45.09
-48.65
-51.30
-53.60
-56.41
-60.59
-66.67
-74.57
-83.40
-91.39
-96.28
-95.88
-88.89
-75.41
-57.04
-36.35
-16.05
1.81
16.28
27.43
35.88
42.39
47.55
51.80
55.44
58.67
61.53
63.87
65.34
65.56
64.35
61.87
58.63
55.31
52.52
50.54
49.29
48.39
47.42
46.07
44.22
41.96
39.42
36.70
33.76
30.50
26.84
22.83
18.69
14.70
11.07
7.79
4.54
0.88
-3.58
-8.90
-14.76
-20.55
-25.65
-29.72
-32.87
-35.72
-39.15
-44.06
-51.03
-60.02
-70.10
-79.55
-86.13
-87.82
-83.51
-73.43
-59.14
-42.96
-27.13
-13.25
-1.99
6.61
12.73
16.49
17.99
17.47
15.57
13.24
11.36
10.50
10.86
12.54
15.92
21.67
30.44
42.24
56.00
69.75
81.23
88.79
91.83
90.85
86.83
80.75
73.37
65.37
57.60
51.11
46.80
44.96
44.97
45.52
45.16
42.88
38.53
32.68
26.31
20.31
15.14
10.73
6.62
2.21
-2.91
-8.70
-14.68
-20.05
-24.11
-26.63
-28.03
-29.37
-32.01
-37.12
-45.19
-55.57
-66.43
-75.11
-78.83
-75.63
-65.09
-48.54
-28.69
-8.65
8.90
22.39
31.39
36.41
38.43
38.56
37.82
36.96
36.36
35.99
35.44
34.19
31.88
28.58
24.74
21.10
18.34
16.81
16.41
16.69
17.05
17.05
16.59
15.87
15.20
14.68
14.12
13.09
11.22
8.51
5.32
2.20
-0.46
-2.70
-4.91
-7.50
-10.64
-14.07
-17.28
-19.81
-21.48
-22.34
-22.56
-22.24
-21.32
-19.81
-17.81
-15.65
-13.79
-12.71
-12.84
-14.44
-17.65
-22.44
-28.48
-35.25
-42.15
-48.88
-55.64
-63.11
-71.83
-81.65
-91.10
-97.60
-98.36
-91.52
-77.16
-57.36
-35.48
-14.86
2.29
15.43
25.29
33.09
39.77
45.66
50.61
54.37
56.95
58.56
59.53
60.00
59.87
58.95
57.14
54.68
52.09
49.99
48.75
48.37
48.35
47.95
46.44
43.41
38.93
33.42
27.46
21.46
15.44
9.11
2.05
-5.92
-14.65
-23.51
-31.72
-38.65
-44.09
-48.34
-51.98
-55.58
-59.32
-63.01
-66.13
-68.20
-69.02
-68.81
-68.13
-67.76
-68.43
-70.66
-74.60
-79.81
-85.26
-89.31
-90.10
-86.06
-76.48
-61.84
-43.75
-24.49
-6.24
9.42
21.89
31.42
38.75
44.71
49.91
54.63
58.87
62.52
65.40
67.33
68.14
67.72
66.10
63.52
60.46
57.53
55.25
53.88
53.27
52.96
52.34
50.86
48.20
44.34
39.54
34.23
28.93
24.03
19.66
15.58
11.31
6.33
0.51
-5.79
-11.79
-16.56
-19.58
-20.90
-21.13
-21.14
-21.69
-23.22
-25.77
-29.08
-32.72
-36.30
-39.60
-42.72
-46.14
-50.57
-56.54
-63.93
-71.61
-77.64
-79.87
-76.89
-68.63
-56.46
-42.61
-29.24
-17.73
-8.48
-1.21
4.59
9.24
12.91
15.77
18.30
21.11
24.66
28.95
33.37
37.04
39.20
39.69
38.96
37.87
37.19
37.26
37.94
38.82
39.58
40.18
40.83
41.76
42.95
44.06
44.60
44.23
42.97
41.15
39.11
36.89
34.12
30.14
24.42
16.89
8.08
-1.14
-9.82
-17.29
-23.35
-28.20
-32.28
-36.12
-40.09
-44.29
-48.55
-52.44
-55.51
-57.57
-58.79
-59.78
-61.35
-64.25
-68.83
-74.99
-82.09
-88.98
-94.11
-95.78
-92.41
-83.13
-68.16
-48.96
-28.00
-7.92
9.13
22.19
31.51
38.24
43.72
48.94
54.26
59.42
63.96
67.36
69.33
69.85
69.18
67.66
65.66
63.40
60.87
57.92
54.39
50.32
46.02
41.96
38.48
35.60
32.92
29.79
25.72
20.62
14.85
8.91
3.09
-2.66
-8.45
-14.03
-18.63
-21.09
-20.58
-17.21
-12.15
-7.31
-4.39
-4.27
-6.78
-11.13
-16.51
-22.51
-29.12
-36.46
-44.57
-53.35
-62.72
-72.59
-82.56
-91.62
-97.99
-99.49
-94.43
-82.37
-64.55
-43.56
-22.38
-3.48
11.79
23.28
31.64
37.78
42.51
46.39
49.70
52.50
54.75
56.31
57.11
57.17
56.60
55.59
54.35
53.02
51.69
50.46
49.36
48.38
47.38
46.10
44.24
41.57
38.05
33.83
29.25
24.65
20.31
16.33
12.63
8.97
5.06
0.78
-3.80
-8.38
-12.67
-16.52
-20.14
-23.95
-28.36
-33.49
-39.04
-44.39
-49.03
-52.77
-55.89
-59.06
-62.99
-68.30
-75.25
-83.65
-92.74
-101.07
-106.72
-107.73
-102.74
-91.65
-75.68
-57.00
-37.92
-20.12
-4.44
9.08
20.66
30.58
39.19
47.00
54.62
62.54
70.57
77.71
82.27
82.72
78.50
70.58
61.26
53.42
49.30
49.59
53.00
56.80
57.98
54.61
46.87
37.02
28.49
24.29
25.71
31.78
39.46
44.70
43.57
33.38
13.49
-14.17
-45.13
-73.12
-91.73
-96.47
-86.69
-66.26
-42.56
-24.08
-17.46
-25.41
-46.21
-75.05
-106.33
-135.61
-160.50
-180.14
-194.07
-201.41
-200.88
-191.55
-173.84
-149.86
-123.00
-96.84
-73.90
-54.92
-38.89
-23.78
-7.55
10.83
30.95
51.07
68.99
83.06
93.01
99.99
105.90
112.19
118.98
124.99
128.38
127.76
123.11
115.81
108.00
101.75
98.30
97.73
99.04
100.59
100.60
97.80
91.80
83.09
72.78
61.92
51.06
40.21
29.20
18.30
8.51
1.30
-2.12
-1.69
1.18
3.94
3.94
-0.45
-9.18
-20.64
-32.32
-41.96
-48.30
-51.50
-52.86
-54.19
-57.12
-62.59
-70.74
-80.82
-91.33
-100.22
-105.21
-104.72
-98.97
-90.63
-84.38
-84.97
-94.59
-110.99
-127.60
-135.63
-127.40
-99.12
-52.09
8.15
73.54
135.59
186.71
221.08
235.17
228.19
202.25
161.95
113.54
63.52
17.67
-19.81
-46.41
-61.47
-66.10
-62.83
-55.05
-46.06
-38.23
-32.47
-28.45
-25.07
-21.36
-17.12
-12.96
-10.00
-9.06
-9.87
-10.70
-8.69
-0.92
14.14
35.37
58.68
77.90
86.67
80.67
59.27
25.82
-13.49
-51.53
-82.17
-101.39
-107.63
-101.39
-84.85
-61.47
-35.69
-12.33
4.45
12.25
11.28
4.34
-3.98
-8.88
-6.78
3.55
20.67
40.85
59.17
70.94
72.98
64.58
47.88
27.53
9.66
0.40
4.26
22.72
53.83
92.55
132.13
165.89
188.88
198.88
196.45
184.20
165.79
144.90
124.51
106.69
92.47
82.01
74.83
70.03
66.62
63.60
60.03
55.21
48.78
40.73
31.45
21.57
11.62
1.80
-8.26
-19.29
-32.19
-47.68
-65.96
-86.53
-107.99
-128.19
-144.49
-154.42
-156.23
-149.51
-135.20
-115.41
-92.85
-70.17
-49.70
-33.14
-21.52
-15.11
-13.42
-15.34
-19.54
-24.97
-31.08
-37.55
-43.71
-47.95
-47.81
-40.58
-24.29
1.54
35.74
75.68
117.65
157.17
189.31
209.37
214.04
202.47
176.88
141.92
103.13
65.05
30.27
-0.52
-27.56
-50.91
-70.30
-85.62
-97.62
-108.21
-120.02
-135.70
-157.19
-185.54
-220.57
-260.67
-302.41
-340.57
-369.12
-382.75
-378.66
-357.37
-322.38
-278.60
-230.85
-182.86
-137.29
-96.08
-60.60
-31.19
-6.81
14.90
36.66
60.09
84.79
108.46
127.81
140.06
143.85
139.70
129.76
117.59
107.71
105.11
114.34
138.20
176.49
225.37
277.73
324.62
357.29
369.19
357.42
323.29
271.73
210.02
145.88
85.80
33.97
-7.80
-39.44
-61.74
-75.78
-82.95
-85.11
-84.67
-84.23
-85.65
-89.44
-94.54
-98.93
-100.66
-98.92
-94.38
-88.90
-84.71
-83.54
-86.05
-91.67
-98.82
-105.19
-108.28
-105.91
-96.79
-80.91
-59.65
-35.40
-10.80
11.89
31.34
47.07
59.19
67.90
73.32
75.66
75.47
73.85
72.41
72.97
77.22
86.49
101.42
121.78
146.22
172.38
197.19
217.39
230.27
234.08
228.28
213.43
191.15
163.89
134.69
106.77
83.02
65.38
54.45
49.53
49.07
51.29
54.68
58.03
60.13
59.55
54.62
43.93
27.05
5.00
-19.83
-44.46
-66.38
-84.39
-98.77
-110.67
-121.23
-130.84
-139.15
-145.58
-150.11
-153.49
-156.95
-161.54
-167.41
-173.49
-177.83
-178.27
-173.32
-162.73
-147.62
-130.04
-112.21
-95.73
-81.11
-67.87
-55.01
-41.68
-27.53
-12.96
1.23
14.15
25.18
34.22
41.60
47.93
53.81
59.56
65.14
70.34
74.96
79.09
82.92
86.48
89.42
90.92
90.08
86.47
80.47
73.17
65.95
59.79
54.95
51.06
47.44
43.56
39.12
34.03
28.22
21.63
14.26
6.22
-2.20
-10.71
-19.06
-27.13
-34.86
-42.26
-49.33
-56.08
-62.63
-69.06
-75.45
-81.74
-87.69
-92.81
-96.36
-97.33
-94.55
-86.97
-74.11
-56.41
-35.31
-12.94
8.63
28.01
44.75
59.11
71.55
82.27
91.06
97.59
101.74
103.88
104.70
104.89
104.87
104.59
103.80
102.28
100.21
98.14
96.87
96.99
98.55
100.85
102.49
101.83
97.64
89.63
78.60
66.08
53.64
42.20
31.81
21.80
11.41
0.34
-11.04
-21.75
-30.68
-37.05
-40.80
-42.51
-43.24
-44.07
-45.81
-48.67
-52.34
-56.18
-59.50
-61.92
-63.42
-64.34
-65.14
-66.26
-68.08
-71.03
-75.62
-82.19
-90.48
-99.27
-106.33
-108.97
-105.08
-94.11
-77.53
-58.51
-40.69
-26.85
-17.88
-12.78
-9.48
-6.01
-1.39
4.11
9.50
13.79
16.53
17.89
18.37
18.37
17.98
17.02
15.39
13.25
11.09
9.46
8.71
8.83
9.43
10.00
10.17
9.83
9.16
8.59
8.50
9.14
10.47
12.06
13.18
13.00
10.86
6.57
0.51
-6.54
-13.59
-19.88
-25.08
-29.29
-32.86
-36.12
-39.15
-41.84
-44.00
-45.68
-47.18
-49.05
-51.78
-55.51
-59.91
-64.35
-68.14
-71.02
-73.31
-75.82
-79.51
-84.98
-92.05
-99.55
-105.52
-107.79
-104.63
-95.44
-80.88
-62.72
-43.15
-24.18
-7.14
7.35
19.17
28.43
35.25
39.73
42.12
42.80
42.28
40.98
39.19
37.02
34.59
32.06
29.75
27.92
26.69
25.92
25.31
24.58
23.69
22.86
22.42
22.61
23.36
24.34
25.08
25.24
24.73
23.68
22.33
20.78
18.95
16.63
13.64
9.99
5.90
1.76
-2.01
-5.12
-7.49
-9.35
-11.20
-13.61
-17.10
-21.84
-27.54
-33.56
-39.04
-43.36
-46.26
-47.86
-48.55
-48.74
-48.89
-49.57
-51.46
-55.16
-60.75
-67.17
-72.31
-73.51
-68.65
-57.16
-40.22
-20.33
-0.17
18.25
34.03
46.94
57.04
64.16
68.13
69.08
67.78
65.57
63.87
63.56
64.58
66.02
66.50
64.90
60.79
54.63
47.67
41.47
37.38
36.17
37.84
41.67
46.51
51.00
53.95
54.49
52.32
47.69
41.27
33.87
26.12
18.31
10.39
2.15
-6.51
-15.46
-24.36
-32.75
-40.30
-46.84
-52.42
-57.25
-61.60
-65.75
-69.96
-74.30
-78.69
-82.94
-86.82
-90.34
-93.76
-97.71
-102.96
-110.28
-120.12
-132.28
-145.72
-158.44
-167.83
-171.27
-166.98
-154.72
-135.89
-113.14
-89.45
-67.21
-47.43
-29.86
-13.40
3.09
20.07
37.19
53.41
67.69
79.33
88.28
94.90
99.55
102.45
103.60
103.21
101.94
100.90
101.22
103.48
107.22
111.10
113.39
112.73
108.73
101.97
93.68
85.12
77.11
69.75
62.71
55.62
48.40
41.42
35.14
29.80
25.11
20.39
15.00
8.82
2.38
-3.47
-8.06
-11.39
-14.13
-17.23
-21.33
-26.41
-31.90
-36.98
-41.14
-44.48
-47.64
-51.64
-57.43
-65.60
-76.15
-88.42
-101.08
-112.30
-119.95
-122.10
-117.44
-105.80
-88.26
-66.92
-44.45
-23.37
-5.51
8.26
17.96
24.23
28.03
30.30
31.79
32.90
33.81
34.54
35.25
36.25
37.92
40.51
43.86
47.41
50.37
52.16
52.71
52.41
51.84
51.37
50.90
50.00
48.24
45.46
42.00
38.41
35.21
32.53
30.14
27.47
23.94
19.24
13.50
7.32
1.53
-3.14
-6.38
-8.48
-10.24
-12.61
-16.23
-21.18
-26.80
-32.12
-36.21
-38.68
-39.78
-40.31
-41.23
-43.36
-47.23
-53.05
-60.67
-69.53
-78.35
-85.29
-88.14
-85.08
-75.37
-59.77
-40.41
-20.08
-1.23
14.69
27.38
37.37
45.40
52.02
57.50
61.98
65.63
68.67
71.29
73.49
75.11
75.94
75.92
75.21
74.15
73.11
72.42
72.35
73.06
74.64
76.95
79.51
81.66
82.73
82.49
81.27
79.86
79.05
79.03
79.17
78.25
75.09
69.22
61.25
52.52
44.48
37.84
32.24
26.48
19.08
9.03
-3.81
-18.72
-34.53
-50.09
-64.66
-78.00
-90.30
-101.91
-113.25
-124.77
-136.74
-149.12
-161.17
-171.26
-177.01
-175.89
-166.17
-147.73
-122.35
-93.28
-64.28
-38.45
-17.58
-1.97
9.24
17.40
23.82
29.43
34.74
39.81
44.51
48.67
52.13
54.83
56.64
57.32
56.57
54.23
50.50
46.06
41.90
38.96
37.70
37.87
38.62
38.93
38.00
35.59
32.06
28.16
24.62
21.88
19.82
17.92
15.40
11.69
6.66
0.73
-5.20
-10.17
-13.48
-15.04
-15.39
-15.61
-17.01
-20.68
-27.15
-36.14
-46.60
-57.05
-66.05
-72.69
-76.97
-79.66
-82.11
-85.75
-91.61
-99.89
-109.69
-119.02
-125.16
-125.39
-117.90
-102.52
-80.90
-56.08
-31.42
-9.63
7.86
21.00
30.61
37.85
43.77
49.12
54.30
59.30
63.80
67.24
69.07
68.96
67.08
63.97
60.37
56.91
53.96
51.64
49.91
48.63
47.61
46.56
45.18
43.23
40.73
37.93
35.17
32.61
30.11
27.31
23.95
20.01
15.93
12.26
9.31
6.98
4.65
1.64
-2.47
-7.66
-13.43
-19.19
-24.47
-29.18
-33.57
-38.16
-43.60
-50.51
-59.17
-69.34
-79.99
-89.30
-95.07
-95.26
-88.74
-75.75
-57.94
-37.89
-18.28
-1.19
12.35
22.32
29.38
34.38
38.13
41.21
44.05
46.83
49.50
51.73
53.04
53.00
51.52
48.94
45.94
43.19
41.14
39.78
38.86
38.02
37.08
36.08
35.13
34.20
33.05
31.30
28.61
24.91
20.47
15.77
11.28
7.24
3.62
0.20
-3.27
-6.97
-10.93
-15.13
-19.52
-24.05
-28.61
-33.07
-37.33
-41.44
-45.70
-50.60
-56.77
-64.63
-74.19
-84.75
-94.83
-102.35
-105.13
-101.57
-91.26
-75.27
-55.82
-35.52
-16.67
-0.57
12.45
22.76
30.96
37.59
43.03
47.57
51.51
55.00
58.04
60.41
61.75
61.82
60.61
58.41
55.68
52.97
50.64
48.87
47.58
46.47
45.14
43.20
40.40
36.67
32.22
27.36
22.52
18.06
14.21
11.05
8.45
6.10
3.61
0.64
-2.97
-7.05
-11.14
-14.68
-17.22
-18.64
-19.29
-19.86
-21.16
-23.79
-27.89
-33.09
-38.63
-43.69
-47.71
-50.63
-52.93
-55.45
-59.19
-64.92
-72.83
-82.34
-91.94
-99.55
-102.91
-100.37
-91.45
-77.01
-59.04
-39.98
-22.00
-6.42
6.35
16.69
25.25
32.77
39.81
46.70
53.58
60.30
66.51
71.65
75.23
76.95
76.73
74.80
71.47
67.09
61.95
56.33
50.51
44.80
39.51
34.80
30.63
26.71
22.63
18.09
13.09
7.92
3.17
-0.61
-3.16
-4.62
-5.55
-6.68
-8.64
-11.69
-15.76
-20.59
-25.91
-31.54
-37.40
-43.43
-49.57
-55.86
-62.46
-69.63
-77.48
-85.59
-92.81
-97.36
-97.36
-91.50
-79.72
-63.19
-44.01
-24.41
-6.19
9.71
23.10
34.29
43.73
51.81
58.74
64.64
69.52
73.34
76.06
77.66
78.16
77.61
76.04
73.40
69.62
64.77
59.11
53.12
47.34
42.13
37.54
33.28
28.88
23.95
18.35
12.21
5.84
-0.41
-6.38
-12.06
-17.55
-22.97
-28.41
-33.95
-39.77
-46.26
-53.83
-62.79
-72.83
-82.84
-90.90
-94.84
-92.91
-84.55
-70.66
-53.28
-35.01
-17.96
-3.34
8.71
18.75
27.47
35.25
42.02
47.47
51.32
53.56
54.51
54.61
54.29
53.73
52.86
51.44
49.31
46.49
43.26
40.06
37.25
34.96
32.93
30.64
27.44
22.93
17.12
10.41
3.45
-3.21
-9.27
-14.83
-20.17
-25.71
-31.78
-38.73
-46.75
-55.78
-65.26
-73.93
-79.96
-81.48
-77.27
-67.35
-53.10
-36.76
-20.63
-6.32
5.61
15.39
23.63
30.81
37.13
42.50
46.79
49.93
51.95
52.93
52.94
52.06
50.46
48.32
45.90
43.48
41.25
39.34
37.80
36.55
35.42
34.14
32.36
29.78
26.21
21.73
16.62
11.36
6.41
1.99
-1.98
-5.86
-10.07
-14.89
-20.29
-25.90
-31.23
-35.85
-39.67
-42.96
-46.34
-50.54
-56.22
-63.72
-72.80
-82.57
-91.53
-97.84
-99.75
-96.11
-86.67
-72.24
-54.51
-35.54
-17.31
-1.14
12.47
23.78
33.50
42.33
50.60
58.14
64.36
68.62
70.57
70.39
68.71
66.39
64.18
62.39
60.98
59.69
58.31
56.89
55.63
54.69
53.96
53.01
51.24
48.28
44.17
39.36
34.47
29.93
25.81
21.89
17.90
13.71
9.42
5.25
1.30
-2.46
-6.27
-10.35
-14.80
-19.56
-24.45
-29.24
-33.79
-38.13
-42.43
-47.19
-53.03
-60.48
-69.51
-79.24
-87.86
-93.06
-92.81
-86.10
-73.47
-56.79
-38.58
-21.18
-6.08
6.31
16.43
25.03
32.72
39.76
46.01
51.21
55.19
57.96
59.75
60.86
61.42
61.43
60.77
59.45
57.68
55.95
54.77
54.38
54.61
54.83
54.30
52.41
48.94
44.08
38.32
32.17
26.04
20.17
14.65
9.42
4.27
-1.12
-7.00
-13.46
-20.30
-27.05
-33.15
-38.24
-42.33
-45.83
-49.40
-53.79
-59.60
-67.10
-76.00
-85.27
-93.19
-97.62
-96.63
-89.28
-76.03
-58.79
-40.16
-22.54
-7.31
5.35
16.09
25.64
34.35
42.08
48.48
53.45
57.15
59.96
62.07
63.34
63.46
62.21
59.76
56.66
53.65
51.24
49.59
48.45
47.47
46.38
45.08
43.60
41.86
39.71
36.92
33.41
29.29
24.91
20.68
16.85
13.45
10.28
7.06
3.55
-0.28
-4.34
-8.43
-12.33
-15.86
-19.01
-21.90
-24.87
-28.32
-32.56
-37.58
-42.97
-48.03
-52.09
-54.85
-56.63
-58.27
-60.81
-65.11
-71.60
-80.08
-89.78
-99.38
-107.12
-111.03
-109.43
-101.49
-87.65
-69.70
-50.25
-31.85
-16.19
-3.76
5.99
14.06
21.29
28.05
34.36
40.11
45.23
49.68
53.36
56.06
57.58
57.87
57.19
56.01
54.89
54.16
53.90
53.97
54.10
54.08
53.78
53.04
51.68
49.50
46.44
42.68
38.63
34.78
31.44
28.57
25.85
22.86
19.31
15.24
10.93
6.75
3.00
-0.25
-3.06
-5.56
-7.84
-10.00
-12.17
-14.56
-17.33
-20.54
-24.07
-27.64
-30.92
-33.76
-36.17
-38.47
-41.13
-44.72
-49.82
-56.67
-64.92
-73.39
-80.15
-82.96
-80.08
-70.98
-56.67
-39.44
-22.01
-6.61
5.68
14.93
21.94
27.64
32.56
36.88
40.56
43.57
46.03
48.02
49.52
50.30
50.02
48.44
45.68
42.20
38.72
35.93
34.20
33.42
33.09
32.50
31.11
28.73
25.60
22.22
19.11
16.53
14.46
12.57
10.52
8.11
5.34
2.44
-0.35
-2.87
-5.22
-7.64
-10.42
-13.75
-17.66
-22.00
-26.57
-31.26
-35.96
-40.61
-45.05
-49.10
-52.72
-56.21
-60.21
-65.55
-72.76
-81.47
-90.26
-96.81
-98.64
-94.09
-83.00
-66.89
-48.38
-30.33
-14.74
-2.37
7.26
15.23
22.56
29.73
36.61
42.79
47.90
51.87
54.89
57.21
58.92
59.89
59.83
58.56
56.21
53.26
50.44
48.47
47.66
47.88
48.48
48.64
47.62
45.12
41.34
36.86
32.36
28.34
24.97
22.03
19.09
15.71
11.72
7.21
2.56
-1.76
-5.41
-8.31
-10.68
-12.90
-15.40
-18.46
-22.17
-26.46
-31.12
-35.90
-40.54
-44.81
-48.60
-52.02
-55.46
-59.56
-65.01
-72.21
-80.93
-90.01
-97.53
-101.22
-99.25
-90.86
-76.74
-58.87
-39.84
-22.07
-7.05
4.80
14.03
21.55
28.14
34.15
39.50
43.96
47.31
49.51
50.67
50.90
50.33
49.00
46.95
44.33
41.45
38.71
36.49
34.98
34.15
33.67
33.07
31.95
30.04
27.35
24.10
20.57
17.04
13.68
10.59
7.77
5.23
2.90
0.65
-1.69
-4.22
-6.94
-9.65
-12.03
-13.85
-15.07
-15.95
-16.99
-18.72
-21.43
-25.11
-29.39
-33.73
-37.62
-40.80
-43.35
-45.65
-48.27
-51.78
-56.64
-62.95
-70.31
-77.74
-83.71
-86.42
-84.32
-76.63
-63.66
-46.86
-28.42
-10.63
4.71
16.71
25.44
31.62
36.24
40.21
44.05
47.86
51.34
53.98
55.33
55.19
53.72
51.39
48.77
46.29
44.14
42.31
40.76
39.49
38.52
37.79
37.04
35.78
33.47
29.84
25.00
19.54
14.23
9.69
6.14
3.30
0.53
-2.88
-7.38
-12.95
-19.11
-25.08
-30.13
-33.97
-36.85
-39.55
-43.00
-47.98
-54.77
-63.11
-72.12
-80.50
-86.67
-89.01
-86.32
-78.14
-65.05
-48.65
-31.11
-14.52
-0.33
11.03
19.97
27.35
34.03
40.47
46.76
52.58
57.49
61.04
62.94
63.09
61.65
59.01
55.73
52.39
49.50
47.27
45.68
44.41
43.09
41.41
39.29
36.82
34.15
31.34
28.25
24.69
20.47
15.61
10.38
5.16
0.30
-3.98
-7.66
-10.95
-14.12
-17.42
-21.01
-24.89
-28.94
-32.98
-36.88
-40.62
-44.40
-48.54
-53.42
-59.43
-66.79
-75.34
-84.32
-92.29
-97.26
-97.33
-91.30
-79.31
-62.89
-44.46
-26.49
-10.63
2.53
13.37
22.63
30.91
38.41
45.09
50.82
55.56
59.33
62.08
63.68
63.94
62.81
60.51
57.49
54.40
51.83
50.20
49.52
49.49
49.50
48.87
47.15
44.21
40.34
36.06
31.87
27.99
24.31
20.54
16.49
12.24
8.11
4.51
1.57
-0.93
-3.49
-6.56
-10.28
-14.38
-18.29
-21.62
-24.28
-26.72
-29.59
-33.38
-38.11
-43.33
-48.27
-52.27
-55.11
-57.01
-58.63
-60.72
-63.98
-68.87
-75.50
-83.50
-91.83
-98.80
-102.33
-100.55
-92.47
-78.47
-60.23
-40.22
-20.84
-3.78
10.27
21.56
30.72
38.57
45.69
52.48
59.01
65.07
70.13
73.52
74.66
73.32
69.81
64.86
59.37
54.19
49.85
46.62
44.54
43.46
43.05
42.91
42.52
41.41
39.31
36.23
32.42
28.27
24.13
20.18
16.48
12.96
9.54
6.18
2.77
-0.81
-4.74
-9.08
-13.78
-18.55
-23.01
-26.85
-29.97
-32.63
-35.28
-38.49
-42.75
-48.30
-55.07
-62.50
-69.47
-74.39
-75.50
-71.42
-61.72
-47.22
-29.86
-12.01
4.38
18.30
29.79
39.43
47.81
55.05
60.85
64.83
66.76
66.73
65.01
61.89
57.56
52.24
46.17
39.73
33.36
27.57
22.92
19.85
18.63
19.14
20.81
22.71
23.94
23.96
22.78
20.87
18.68
16.38
13.74
10.42
6.30
1.79
-2.35
-5.44
-7.22
-8.09
-8.91
-10.64
-13.87
-18.62
-24.33
-30.14
-35.30
-39.43
-42.69
-45.62
-48.90
-53.16
-58.78
-65.86
-74.14
-82.87
-90.73
-95.94
-96.73
-91.87
-81.30
-66.19
-48.64
-30.91
-14.74
-0.95
10.49
20.10
28.38
35.72
42.27
48.13
53.27
57.55
60.72
62.45
62.56
61.17
58.70
55.80
53.00
50.64
48.80
47.39
46.32
45.46
44.61
43.47
41.64
38.78
34.83
30.10
25.16
20.60
16.79
13.70
10.99
8.15
4.77
0.69
-3.98
-8.90
-13.68
-17.95
-21.54
-24.52
-27.11
-29.67
-32.50
-35.78
-39.46
-43.31
-47.02
-50.33
-53.18
-55.70
-58.29
-61.45
-65.71
-71.44
-78.62
-86.63
-94.12
-99.18
-99.76
-94.40
-82.79
-66.11
-46.65
-27.03
-9.31
5.61
17.95
28.59
38.31
47.35
55.37
61.83
66.47
69.41
71.11
71.95
72.03
71.13
69.03
65.79
61.89
58.13
55.23
53.53
52.76
52.20
51.06
48.71
45.02
40.26
35.00
29.83
25.17
21.20
17.82
14.82
11.93
8.96
5.84
2.64
-0.55
-3.65
-6.69
-9.84
-13.29
-17.12
-21.24
-25.32
-28.94
-31.84
-34.01
-35.80
-37.74
-40.51
-44.66
-50.61
-58.54
-68.22
-78.87
-89.00
-96.60
-99.52
-96.26
-86.49
-71.32
-53.04
-34.29
-17.29
-3.24
7.81
16.61
24.13
31.06
37.64
43.70
48.89
52.90
55.56
56.79
56.66
55.32
53.07
50.36
47.70
45.57
44.22
43.67
43.69
43.93
44.02
43.58
42.35
40.18
37.09
33.30
29.22
25.28
21.76
18.59
15.40
11.69
7.17
1.95
-3.42
-8.25
-12.03
-14.73
-16.80
-18.92
-21.65
-25.24
-29.53
-34.16
-38.81
-43.29
-47.62
-51.94
-56.43
-61.37
-67.10
-73.94
-81.89
-90.27
-97.58
-101.71
-100.65
-93.30
-80.04
-62.71
-43.93
-26.16
-10.91
1.55
11.82
20.78
29.03
36.66
43.47
49.19
53.68
57.04
59.39
60.87
61.48
61.24
60.18
58.44
56.27
53.96
51.84
50.17
49.13
48.66
48.49
48.14
47.12
45.09
42.03
38.22
34.13
30.14
26.45
22.97
19.53
15.98
12.29
8.53
4.72
0.84
-3.21
-7.42
-11.61
-15.49
-18.82
-21.63
-24.30
-27.40
-31.38
-36.30
-41.75
-47.06
-51.60
-55.13
-57.87
-60.42
-63.57
-67.99
-74.15
-81.99
-90.83
-99.11
-104.61
-104.95
-98.45
-84.95
-66.04
-44.70
-24.15
-6.82
6.45
16.22
23.81
30.44
36.72
42.64
47.89
52.29
55.84
58.70
60.90
62.30
62.69
61.94
60.20
57.81
55.22
52.78
50.69
48.99
47.65
46.56
45.58
44.49
43.03
40.99
38.32
35.19
31.90
28.73
25.76
22.84
19.62
15.81
11.36
6.59
2.07
-1.60
-4.16
-5.78
-7.09
-8.88
-11.82
-16.10
-21.39
-26.97
-32.08
-36.18
-39.19
-41.43
-43.45
-45.82
-49.03
-53.46
-59.34
-66.53
-74.46
-81.79
-86.66
-87.06
-81.54
-69.91
-53.34
-34.10
-14.79
2.46
16.55
27.36
35.47
41.69
46.70
50.92
54.54
57.64
60.22
62.35
64.07
65.42
66.40
66.92
66.83
66.00
64.48
62.51
60.58
59.18
58.63
58.85
59.33
59.35
58.14
55.22
50.53
44.41
37.41
30.10
22.81
15.52
8.01
-0.06
-8.72
-17.66
-26.19
-33.56
-39.21
-43.04
-45.40
-46.82
-47.80
-48.57
-49.12
-49.36
-49.35
-49.42
-50.00
-51.55
-54.23
-58.05
-62.74
-67.91
-73.05
-77.43
-80.18
-80.45
-77.69
-71.87
-63.56
-53.71
-43.35
-33.26
-23.90
-15.35
-7.50
-0.03
7.44
15.28
23.65
32.36
40.83
48.23
53.86
57.40
59.08
59.52
59.47
59.57
60.25
61.59
63.30
64.66
64.58
61.91
55.91
46.72
35.40
23.66
13.19
5.08
-0.47
-4.03
-6.48
-8.54
-10.59
-12.73
-15.01
-17.51
-20.34
-23.56
-27.02
-30.40
-33.41
-35.89
-37.91
-39.74
-41.71
-44.07
-46.93
-50.22
-53.80
-57.46
-61.03
-64.53
-68.22
-72.67
-78.54
-86.08
-94.63
-102.41
-106.82
-105.33
-96.61
-81.17
-61.33
-40.31
-21.05
-5.27
6.73
15.70
22.82
29.26
36.01
43.85
53.27
64.21
76.01
87.49
97.30
104.51
108.80
110.61
110.78
110.21
109.58
109.23
109.29
109.67
110.12
110.20
109.38
107.06
102.74
96.01
86.71
74.95
61.10
45.81
29.83
13.93
-1.24
-15.20
-27.56
-38.14
-46.89
-54.00
-59.85
-64.91
-69.55
-73.90
-77.79
-80.92
-83.03
-84.07
-84.29
-84.19
-84.45
-85.73
-88.62
-93.28
-99.21
-105.09
-108.90
-108.42
-102.01
-89.35
-71.63
-51.30
-31.17
-13.50
0.57
11.19
19.28
26.03
32.25
38.29
44.00
49.06
53.15
56.09
57.86
58.58
58.39
57.41
55.73
53.40
50.55
47.43
44.48
42.10
40.48
39.46
38.41
36.53
33.21
28.32
22.35
16.15
10.54
5.93
2.13
-1.48
-5.57
-10.52
-16.24
-22.24
-27.85
-32.58
-36.28
-39.19
-41.83
-44.84
-48.81
-54.19
-61.07
-69.11
-77.34
-84.24
-87.95
-86.87
-80.15
-68.13
-52.29
-34.86
-18.07
-3.47
8.34
17.65
25.24
31.84
37.90
43.45
48.27
52.00
54.34
55.15
54.51
52.87
50.86
49.19
48.30
48.24
48.64
49.02
49.00
48.49
47.59
46.35
44.65
42.17
38.70
34.34
29.61
25.21
21.67
19.00
16.66
13.85
10.00
5.03
-0.54
-5.89
-10.38
-13.80
-16.52
-19.23
-22.61
-27.08
-32.59
-38.75
-45.03
-50.94
-56.37
-61.52
-66.98
-73.47
-81.65
-91.86
-103.87
-116.75
-128.71
-137.35
-140.13
-135.16
-121.90
-101.60
-76.98
-51.39
-27.70
-7.49
9.17
23.19
35.66
47.25
57.92
67.22
74.68
80.05
83.42
85.08
85.44
84.96
84.24
84.01
85.04
87.83
92.42
98.20
104.13
109.05
112.07
112.83
111.46
108.34
103.79
97.95
90.90
82.77
74.01
65.21
56.84
48.97
41.28
33.28
24.77
16.09
7.98
1.15
-4.23
-8.79
-13.66
-20.04
-28.63
-39.40
-51.69
-64.52
-76.83
-87.75
-96.64
-103.26
-107.78
-110.89
-113.63
-117.14
-122.27
-129.08
-136.67
-143.13
-145.94
-142.73
-132.12
-114.34
-91.33
-66.11
-41.77
-20.53
-3.20
10.62
21.92
31.68
40.42
48.24
55.02
60.68
65.17
68.49
70.54
71.18
70.29
67.91
64.35
60.23
56.32
53.42
51.98
51.94
52.66
53.15
52.47
50.09
46.05
40.82
35.02
29.17
23.51
18.13
13.04
8.25
3.82
-0.33
-4.34
-8.48
-13.01
-18.11
-23.74
-29.70
-35.55
-40.85
-45.27
-48.80
-51.90
-55.47
-60.55
-67.88
-77.38
-87.97
-97.65
-104.02
-104.95
-99.22
-87.01
-69.74
-49.79
-29.78
-11.95
2.36
12.81
19.91
24.71
28.42
32.17
36.78
42.62
49.50
56.67
63.00
67.32
68.91
67.68
64.26
59.59
54.51
49.48
44.57
39.72
34.96
30.54
26.72
23.67
21.28
19.17
16.90
14.10
10.58
6.30
1.21
-4.75
-11.58
-19.08
-26.71
-33.65
-39.08
-42.44
-43.72
-43.47
-42.61
-42.05
-42.38
-43.70
-45.69
-47.87
-49.98
-52.27
-55.53
-60.80
-68.79
-79.30
-90.74
-100.44
-105.42
-103.42
-93.79
-77.66
-57.44
-35.78
-14.75
4.56
21.86
37.19
50.59
61.98
71.38
79.10
85.75
91.90
97.79
103.14
107.20
109.20
108.73
106.04
101.97
97.67
94.11
91.68
90.16
88.81
86.81
83.57
78.95
73.26
66.95
60.49
54.15
48.02
42.07
36.36
30.93
25.89
21.28
16.97
12.74
8.31
3.40
-2.17
-8.41
-15.17
-22.15
-28.96
-35.23
-40.74
-45.59
-50.21
-55.30
-61.69
-70.05
-80.57
-92.69
-104.95
-115.16
-120.93
-120.33
-112.60
-98.42
-79.77
-59.24
-39.31
-21.70
-7.15
4.46
13.76
21.52
28.45
35.08
41.64
48.16
54.45
60.19
65.08
68.87
71.38
72.59
72.50
71.28
69.22
66.69
64.09
61.65
59.43
57.26
54.85
51.91
48.34
44.31
40.23
36.50
33.40
30.83
28.35
25.37
21.37
16.20
10.16
3.75
-2.56
-8.56
-14.37
-20.31
-26.72
-33.76
-41.41
-49.45
-57.59
-65.48
-72.75
-79.05
-84.20
-88.31
-91.86
-95.73
-100.94
-108.28
-117.79
-128.44
-138.10
-144.03
-143.65
-135.54
-119.99
-98.97
-75.51
-52.62
-32.37
-15.54
-1.70
10.11
20.79
30.71
39.82
47.79
54.41
59.63
63.59
66.41
68.05
68.37
67.29
64.99
62.01
59.13
57.09
56.26
56.54
57.38
58.04
57.87
56.52
53.98
50.50
46.45
42.29
38.47
35.34
33.02
31.34
29.89
28.13
25.65
22.33
18.40
14.29
10.41
6.91
3.69
0.40
-3.31
-7.64
-12.54
-17.72
-22.78
-27.33
-31.20
-34.50
-37.67
-41.38
-46.45
-53.52
-62.91
-74.24
-86.38
-97.44
-105.16
-107.44
-103.01
-91.82
-75.06
-54.84
-33.62
-13.57
3.84
17.99
29.00
37.47
44.08
49.38
53.57
56.54
58.06
58.05
56.71
54.55
52.14
49.96
48.23
47.01
46.26
46.00
46.24
46.87
47.62
48.09
47.90
46.82
44.83
42.11
38.88
35.35
31.69
28.02
24.41
20.75
16.69
11.66
5.13
-3.13
-12.79
-22.91
-32.28
-39.83
-45.03
-48.14
-50.07
-52.08
-55.45
-61.09
-69.40
-80.05
-91.97
-103.47
-112.43
-116.85
-115.32
-107.48
-93.99
-76.38
-56.45
-35.88
-15.98
2.33
18.34
31.54
41.64
48.86
53.96
58.09
62.45
67.74
74.00
80.58
86.61
91.37
94.60
96.50
97.59
98.59
100.44
104.44
112.04
124.25
140.68
158.86
174.57
183.08
181.13
168.19
146.78
121.05
94.93
70.68
48.54
27.66
7.40
-11.87
-28.96
-42.75
-53.08
-60.95
-67.99
-75.58
-84.34
-94.11
-104.35
-114.69
-125.11
-135.78
-146.63
-157.14
-166.20
-172.35
-174.05
-169.99
-159.39
-142.26
-119.56
-93.16
-65.53
-39.17
-15.94
3.44
19.42
33.23
46.09
58.47
69.74
78.55
83.38
83.48
79.25
72.12
64.06
56.75
51.13
47.35
45.07
43.93
43.75
44.41
45.61
46.64
46.51
44.34
39.78
33.19
25.44
17.53
10.17
3.64
-2.10
-7.18
-11.63
-15.53
-19.06
-22.71
-27.12
-32.93
-40.29
-48.78
-57.58
-65.76
-72.81
-78.77
-84.33
-90.44
-98.04
-107.71
-119.36
-132.09
-144.09
-152.86
-155.66
-150.41
-136.31
-114.39
-87.25
-58.29
-30.67
-6.39
13.91
30.63
44.53
56.24
66.05
74.04
80.37
85.28
89.01
91.54
92.57
91.75
88.98
84.69
79.79
75.31
71.94
69.80
68.46
67.24
65.59
63.22
60.20
56.65
52.77
48.62
44.26
39.75
35.15
30.48
25.72
20.81
15.71
10.46
5.14
-0.17
-5.51
-10.93
-16.40
-21.74
-26.55
-30.47
-33.41
-35.79
-38.43
-42.20
-47.67
-54.77
-62.88
-71.14
-78.86
-85.77
-92.08
-98.29
-105.02
-112.92
-122.54
-134.04
-146.85
-159.32
-168.74
-172.00
-166.52
-151.29
-127.37
-97.51
-65.28
-33.89
-5.55
18.77
38.88
55.02
67.58
77.06
84.16
89.70
94.33
98.28
101.36
103.08
103.12
101.51
98.70
95.30
91.88
88.79
86.21
84.26
82.92
82.04
81.17
79.62
76.64
71.83
65.39
58.07
50.93
44.83
40.09
36.39
33.01
29.20
24.51
18.93
12.82
6.67
0.85
-4.52
-9.62
-14.81
-20.52
-27.04
-34.45
-42.52
-50.80
-58.78
-66.14
-72.90
-79.50
-86.62
-95.02
-105.09
-116.60
-128.44
-138.60
-144.51
-143.65
-134.33
-116.38
-91.38
-62.17
-32.03
-3.74
21.10
41.98
59.18
73.22
84.64
93.95
101.76
108.65
114.93
120.39
124.19
125.17
122.29
115.12
103.93
89.66
73.54
56.85
40.82
26.55
15.08
7.12
2.95
2.15
3.70
6.21
8.33
9.16
8.33
6.05
2.72
-1.13
-5.11
-8.78
-11.71
-13.49
-13.97
-13.58
-13.39
-14.84
-19.19
-27.03
-38.00
-51.12
-65.30
-79.78
-94.27
-108.61
-122.51
-135.39
-146.46
-154.88
-159.82
-160.39
-155.67
-145.02
-128.35
-106.30
-80.08
-51.10
-20.70
9.74
38.47
63.31
82.07
93.44
97.65
96.49
92.45
87.56
82.75
78.05
73.38
69.29
66.94
67.27
70.20
74.25
77.11
76.77
72.48
65.14
56.82
49.78
45.52
44.23
44.89
45.75
45.20
42.34
37.27
30.92
24.41
18.56
13.45
8.57
3.19
-3.17
-10.45
-18.10
-25.43
-31.92
-37.50
-42.44
-47.21
-52.32
-58.17
-65.13
-73.46
-83.22
-93.99
-104.56
-112.99
-116.92
-114.36
-104.47
-88.00
-67.13
-44.80
-23.72
-5.65
8.84
20.22
29.44
37.58
45.44
53.42
61.48
69.11
75.51
79.86
81.70
81.06
78.55
74.99
71.12
67.48
64.31
61.78
59.96
58.83
58.05
57.00
55.00
51.63
47.03
41.78
36.66
32.11
28.08
24.10
19.72
14.78
9.50
4.21
-0.98
-6.29
-12.19
-19.00
-26.65
-34.64
-42.23
-48.83
-54.26
-58.73
-62.86
-67.48
-73.55
-81.97
-93.26
-106.98
-121.40
-133.54
-139.89
-137.63
-125.78
-105.65
-80.35
-53.68
-28.69
-7.01
11.24
26.75
40.31
52.43
63.32
73.18
82.25
90.74
98.52
105.14
110.01
112.76
113.51
112.81
111.30
109.47
107.59
105.81
104.35
103.51
103.52
104.39
105.88
107.65
109.40
110.94
112.11
112.65
112.30
110.95
108.83
106.27
103.47
99.98
94.74
86.39
74.02
57.70
38.62
18.73
0.02
-16.04
-28.84
-38.51
-45.73
-51.52
-57.14
-63.94
-73.20
-85.76
-101.68
-120.21
-139.94
-159.53
-178.21
-195.99
-213.47
-231.17
-249.07
-266.38
-281.81
-293.87
-301.05
-301.71
-294.09
-276.56
-248.26
-209.94
-164.25
-115.44
-68.17
-26.31
8.07
34.80
55.09
70.76
83.49
94.49
104.37
113.29
121.13
127.70
132.80
136.27
138.01
138.07
136.91
135.42
134.94
136.78
141.69
149.37
158.42
166.73
172.12
173.08
169.18
161.09
150.25
138.38
126.80
115.94
105.22
93.28
78.72
60.75
39.69
16.68
-6.87
-29.83
-51.53
-71.52
-89.12
-103.38
-113.37
-118.64
-119.55
-117.02
-111.99
-105.10
-96.80
-87.77
-79.23
-72.75
-69.34
-68.77
-69.24
-68.25
-63.81
-55.44
-44.38
-32.71
-22.20
-13.45
-6.00
1.00
8.00
14.70
20.37
24.44
26.89
28.20
29.01
29.63
29.86
29.09
26.59
21.97
15.24
6.95
-2.10
-11.18
-19.87
-28.24
-36.64
-45.49
-54.86
-64.44
-73.63
-81.87
-89.00
-95.33
-101.59
-108.62
-117.15
-127.46
-139.18
-151.08
-161.19
-167.05
-166.45
-158.16
-142.49
-121.41
-97.99
-75.49
-56.31
-41.35
-29.86
-20.02
-9.70
2.77
18.17
36.41
56.84
78.48
100.24
120.80
138.63
152.11
160.01
161.99
158.92
152.63
145.23
138.20
131.91
125.53
117.66
107.08
93.43
77.39
60.52
44.66
31.50
22.11
16.73
14.68
14.43
13.73
10.19
1.86
-11.94
-30.12
-49.87
-67.37
-78.96
-82.28
-76.96
-64.49
-47.49
-28.66
-10.03
7.28
22.93
36.84
48.97
59.13
67.18
73.17
77.35
80.12
81.76
82.37
81.78
79.83
76.49
72.12
67.45
63.28
60.12
57.87
55.87
53.23
49.37
44.32
38.78
33.58
29.28
25.87
22.81
19.39
14.99
9.31
2.35
-5.68
-14.37
-23.20
-31.56
-39.02
-45.44
-51.03
-56.15
-61.04
-65.56
-69.26
-71.84
-73.38
-74.70
-77.06
-81.75
-89.56
-100.67
-114.53
-129.93
-145.07
-157.61
-165.04
-165.31
-157.56
-142.67
-123.10
-102.10
-82.60
-66.28
-53.25
-42.53
-32.72
-22.75
-12.17
-1.04
10.33
21.63
32.47
42.35
50.61
56.53
59.66
60.03
58.31
55.67
53.43
52.57
53.48
55.78
58.59
60.94
62.13
61.95
60.65
58.66
56.33
53.80
50.98
47.64
43.52
38.48
32.52
25.76
18.38
10.52
2.27
-6.31
-15.14
-23.99
-32.55
-40.48
-47.68
-54.45
-61.49
-69.57
-79.04
-89.25
-98.48
-104.36
-104.75
-98.72
-86.97
-71.58
-55.18
-39.91
-26.76
-15.57
-5.61
3.78
12.79
21.14
28.39
34.20
38.52
41.41
43.00
43.33
42.46
40.46
37.55
34.00
30.16
26.35
22.79
19.56
16.54
13.43
9.89
5.74
1.20
-3.13
-6.50
-8.45
-9.07
-9.22
-10.11
-12.83
-17.82
-24.63
-32.21
-39.46
-45.85
-51.71
-58.05
-65.95
-75.92
-87.53
-99.48
-110.08
-117.85
-122.13
-123.34
-122.98
-123.17
-126.12
-133.37
-145.13
-159.80
-174.05
-183.57
-184.33
-173.91
-152.45
-122.49
-87.94
-52.47
-18.09
15.51
50.61
90.37
137.13
190.95
248.60
303.59
347.34
371.46
370.59
344.74
299.93
246.73
196.95
160.09
140.67
137.84
146.84
161.52
176.53
188.60
196.56
200.75
202.40
202.93
203.52
204.47
205.03
203.53
198.18
187.78
172.20
152.10
128.18
100.75
69.72
35.52
-0.03
-33.67
-61.85
-82.98
-98.84
-114.34
-134.84
-162.53
-193.97
-220.62
-232.38
-222.40
-190.14
-140.91
-82.50
-21.05
40.66
101.84
160.31
210.17
242.47
248.82
225.64
176.06
108.57
33.36
-41.17
-109.69
-169.32
-218.53
-256.91
-285.78
-308.56
-329.69
-352.56
-377.62
-402.13
-421.74
-432.99
-434.75
-428.27
-415.68
-398.43
-376.85
-350.83
-320.82
-288.10
-254.29
-220.63
-188.02
-157.44
-130.66
-110.09
-97.59
-93.07
-93.80
-95.06
-91.73
-80.13
-58.87
-28.38
10.00
54.54
102.90
151.66
196.66
234.20
262.47
282.18
295.77
305.87
314.04
320.63
325.61
329.40
332.89
336.54
339.44
339.41
334.25
323.24
307.50
288.92
268.21
243.79
212.59
172.24
123.34
70.10
19.01
-23.73
-54.49
-73.07
-81.95
-84.62
-84.13
-82.49
-80.92
-80.50
-82.37
-87.26
-94.77
-102.85
-108.13
-107.05
-97.32
-78.95
-54.26
-26.92
-0.52
22.64
41.90
57.93
71.74
83.99
94.52
102.60
107.46
108.74
106.79
102.53
97.22
92.04
87.90
85.25
84.12
84.26
85.21
86.46
87.53
88.05
87.67
86.23
83.76
80.51
76.95
73.62
70.93
69.03
67.73
66.55
64.93
62.54
59.39
55.96
53.00
51.31
51.39
53.18
56.12
59.23
61.50
62.26
61.45
59.77
58.47
59.05
62.53
68.63
75.38
79.17
75.44
59.99
30.20
-13.95
-69.44
-130.65
-190.35
-241.11
-276.84
-294.18
-293.08
-276.77
-250.66
-220.66
-191.52
-165.80
-143.71
-123.93
-104.86
-85.50
-66.00
-47.32
-30.68
-16.88
-5.92
2.93
10.70
18.20
25.79
33.31
40.44
47.00
53.00
58.51
63.55
68.23
73.12
79.43
88.59
101.18
115.95
129.66
138.07
137.84
128.15
111.20
91.15
72.16
56.72
45.12
36.12
28.26
20.66
13.18
5.80
-1.79
-10.32
-20.54
-32.69
-46.25
-60.07
-72.78
-83.33
-91.39
-97.39
-102.37
-107.58
-113.97
-121.73
-130.18
-137.83
-142.97
-144.12
-140.50
-132.09
-119.44
-103.34
-84.45
-63.04
-38.92
-11.35
20.63
57.54
98.57
140.85
179.50
208.53
222.53
218.45
196.63
160.59
115.96
68.94
24.98
-11.71
-38.38
-53.70
-57.86
-52.52
-40.66
-25.71
-10.66
2.78
14.45
25.24
36.35
48.41
60.97
72.44
80.70
83.73
80.17
69.86
53.85
34.18
13.48
-5.55
-20.65
-30.43
-34.72
-34.65
-32.14
-29.27
-27.33
-26.14
-24.14
-19.15
-9.54
4.71
21.57
37.51
48.59
51.72
45.51
30.54
8.99
-16.08
-41.44
-64.48
-83.77
-99.37
-112.55
-125.15
-138.59
-153.00
-167.00
-178.04
-183.50
-181.62
-172.20
-156.70
-137.66
-117.88
-99.58
-83.94
-71.10
-60.38
-50.69
-40.89
-30.21
-18.52
-6.32
5.60
16.61
26.72
36.47
46.66
57.75
69.52
81.18
91.75
100.64
107.77
113.43
117.82
120.71
121.58
120.03
116.29
111.25
106.05
101.47
97.55
93.48
88.04
80.15
69.22
55.52
40.11
24.71
11.18
1.06
-5.13
-8.11
-9.73
-12.34
-17.96
-27.53
-40.66
-55.75
-70.51
-82.60
-90.10
-91.89
-87.84
-78.90
-66.83
-53.80
-41.76
-31.83
-24.11
-17.78
-11.78
-5.37
1.34
7.38
11.37
12.10
9.10
2.87
-5.30
-13.79
-21.28
-27.08
-31.23
-34.29
-36.92
-39.56
-42.22
-44.60
-46.22
-46.64
-45.52
-42.69
-38.03
-31.57
-23.43
-13.73
-2.54
10.23
24.60
40.42
57.00
73.11
87.15
97.64
103.75
105.66
104.57
102.19
99.99
98.57
97.33
94.80
89.45
80.63
69.20
57.51
48.52
44.69
47.09
55.14
67.05
80.69
94.18
106.31
116.41
124.35
130.48
135.58
140.58
145.99
151.32
154.97
154.54
147.86
133.72
112.27
84.77
53.10
19.46
-13.66
-43.55
-67.51
-83.60
-91.38
-92.26
-89.14
-85.22
-82.97
-83.42
-86.37
-91.10
-96.79
-102.86
-108.74
-113.78
-117.39
-119.40
-120.23
-120.87
-122.39
-125.48
-130.15
-135.71
-141.09
-145.11
-146.71
-145.11
-139.93
-131.36
-120.07
-107.27
-94.39
-82.92
-74.10
-68.78
-67.20
-69.08
-73.73
-80.40
-88.50
-97.51
-106.65
-114.59
-119.38
-119.00
-112.07
-98.62
-80.01
-58.48
-36.24
-14.87
4.78
22.20
36.94
48.52
56.67
61.78
64.86
67.38
70.76
75.86
82.89
91.35
100.37
109.09
116.95
123.80
129.86
135.39
140.38
144.50
147.06
147.34
144.85
139.49
131.64
122.13
112.09
102.74
94.99
89.01
84.09
78.82
71.74
62.14
50.50
38.39
27.77
20.06
15.46
12.98
10.87
7.29
0.89
-8.97
-22.25
-38.23
-55.67
-73.04
-88.94
-102.68
-114.54
-125.57
-136.87
-148.70
-160.06
-168.81
-172.62
-169.94
-160.75
-146.47
-129.26
-111.24
-93.78
-77.57
-62.78
-49.52
-37.96
-28.29
-20.50
-14.32
-9.34
-5.21
-1.87
0.57
2.07
2.93
3.96
6.22
10.68
17.62
26.44
35.76
43.96
49.75
52.56
52.57
50.46
47.05
43.00
38.78
34.66
30.86
27.49
24.57
21.88
19.05
15.68
11.50
6.55
1.13
-4.29
-9.39
-14.14
-18.89
-24.22
-30.62
-38.14
-46.29
-54.22
-61.10
-66.48
-70.44
-73.45
-76.08
-78.75
-81.75
-85.12
-88.69
-91.97
-93.99
-93.53
-89.44
-81.20
-69.17
-54.65
-39.34
-24.75
-11.73
-0.41
9.58
18.63
26.87
34.08
39.80
43.67
45.52
45.54
44.15
41.88
39.18
36.38
33.69
31.24
29.18
27.63
26.63
26.05
25.57
24.80
23.34
20.92
17.46
13.15
8.42
3.89
0.25
-1.97
-2.56
-1.72
0.01
2.05
4.03
5.90
7.77
9.68
11.39
12.42
12.35
11.14
9.12
6.84
4.69
2.57
0.04
-3.35
-7.62
-12.24
-16.31
-19.11
-20.55
-21.25
-22.36
-24.94
-29.67
-36.56
-45.04
-54.00
-62.02
-67.55
-69.20
-66.20
-58.69
-47.85
-35.46
-23.39
-12.95
-4.63
1.83
7.06
11.69
16.16
20.76
25.67
30.96
36.45
41.65
45.90
48.58
49.50
48.96
47.70
46.57
46.18
46.71
47.91
49.32
50.46
51.00
50.81
49.93
48.42
46.37
43.85
40.93
37.66
34.14
30.43
26.61
22.78
19.03
15.48
12.17
9.10
6.17
3.14
-0.32
-4.57
-9.78
-15.94
-22.71
-29.55
-35.92
-41.54
-46.43
-50.92
-55.32
-59.76
-64.12
-68.06
-71.37
-74.12
-76.74
-79.89
-84.20
-89.89
-96.46
-102.56
-106.08
-104.77
-96.93
-82.26
-62.11
-39.23
-16.90
2.15
16.41
25.85
31.55
34.98
37.43
39.69
41.98
44.16
45.94
47.13
47.75
48.05
48.38
48.98
49.90
50.96
52.05
53.21
54.71
56.85
59.59
62.51
64.74
65.51
64.36
61.40
57.20
52.40
47.46
42.49
37.42
32.17
26.85
21.72
17.00
12.78
8.87
4.99
0.83
-3.74
-8.70
-13.86
-18.96
-23.70
-27.82
-31.18
-33.80
-35.92
-37.96
-40.47
-43.93
-48.70
-54.93
-62.58
-71.48
-81.18
-90.77
-98.84
-103.57
-103.26
-96.92
-84.79
-68.36
-50.00
-32.12
-16.54
-4.10
5.26
12.12
17.27
21.41
25.15
29.00
33.17
37.57
41.76
45.09
47.02
47.37
46.39
44.67
42.82
41.30
40.24
39.57
39.05
38.52
37.87
37.05
36.10
35.02
33.81
32.40
30.73
28.76
26.56
24.30
22.17
20.30
18.63
16.92
14.87
12.26
9.07
5.54
2.01
-1.23
-4.09
-6.63
-9.07
-11.64
-14.47
-17.58
-20.97
-24.54
-28.21
-31.92
-35.59
-39.20
-42.79
-46.49
-50.57
-55.34
-60.98
-67.43
-74.10
-79.92
-83.47
-83.34
-78.66
-69.46
-56.78
-42.33
-27.93
-14.92
-3.84
5.43
13.32
20.17
26.10
31.08
35.20
38.73
42.06
45.44
48.70
51.36
52.83
52.86
51.64
49.80
47.95
46.47
45.32
44.21
42.88
41.31
39.70
38.37
37.51
37.04
36.70
36.15
35.14
33.57
31.57
29.32
27.03
24.80
22.64
20.46
18.14
15.59
12.78
9.77
6.60
3.36
0.16
-2.93
-5.81
-8.49
-11.07
-13.82
-17.00
-20.79
-25.15
-29.82
-34.37
-38.44
-41.86
-44.71
-47.37
-50.40
-54.42
-59.91
-66.97
-74.97
-82.50
-87.66
-88.48
-83.73
-73.37
-58.69
-41.81
-25.00
-9.94
2.63
12.76
20.98
27.81
33.58
38.44
42.47
45.80
48.59
50.92
52.69
53.68
53.68
52.66
50.90
48.84
46.93
45.42
44.31
43.48
42.78
42.22
41.83
41.60
41.34
40.75
39.56
37.70
35.28
32.60
29.94
27.46
25.19
23.02
20.85
18.54
15.99
13.18
10.22
7.29
4.59
2.16
-0.18
-2.80
-6.10
-10.33
-15.37
-20.87
-26.31
-31.27
-35.54
-39.14
-42.34
-45.50
-49.00
-53.22
-58.43
-64.60
-71.24
-77.25
-81.06
-80.98
-75.82
-65.34
-50.44
-33.03
-15.34
0.65
13.73
23.64
30.82
36.08
40.26
44.02
47.72
51.43
54.93
57.79
59.52
59.79
58.56
56.14
53.02
49.70
46.49
43.41
40.38
37.23
33.91
30.40
26.78
23.18
19.75
16.74
14.33
12.68
11.63
10.84
9.75
7.88
5.03
1.34
-2.69
-6.55
-9.80
-12.29
-14.16
-15.72
-17.31
-19.17
-21.40
-23.87
-26.35
-28.54
-30.28
-31.50
-32.32
-32.82
-33.00
-32.75
-31.89
-30.47
-28.87
-27.88
-28.55
-31.86
-38.45
-48.23
-60.25
-72.65
-82.99
-88.69
-87.75
-79.36
-64.21
-44.39
-22.78
-2.31
14.88
27.74
36.41
41.83
45.26
47.89
50.41
52.99
55.30
56.80
57.09
56.21
54.72
53.51
53.36
54.54
56.62
58.70
59.91
59.78
58.49
56.67
54.95
53.61
52.38
50.71
48.10
44.47
40.06
35.43
31.02
27.01
23.37
19.95
16.74
13.89
11.67
10.30
9.77
9.64
9.05
6.94
2.27
-5.43
-15.91
-28.10
-40.49
-51.70
-61.03
-68.65
-75.43
-82.33
-89.83
-97.64
-104.85
-110.47
-114.01
-115.76
-116.78
-118.43
-121.91
-127.86
-136.08
-145.51
-154.27
-160.04
-160.59
-154.37
-141.15
-122.19
-100.03
-77.78
-58.24
-42.98
-31.99
-23.65
-15.45
-4.94
9.20
26.69
45.86
64.48
80.79
94.15
104.96
113.99
121.69
127.75
131.49
132.42
130.72
127.17
122.58
117.41
111.67
105.58
100.14
97.18
98.50
104.74
114.59
124.97
132.29
133.89
129.15
119.25
106.44
92.83
79.96
68.86
60.34
55.00
52.78
52.49
51.69
47.42
37.42
21.13
0.05
-22.91
-44.49
-62.18
-74.78
-82.54
-86.71
-89.16
-91.82
-96.24
-103.23
-112.43
-122.14
-129.46
-131.03
-124.02
-107.35
-82.46
-53.14
-24.65
-1.97
11.84
16.68
15.22
11.68
10.11
12.99
20.74
32.05
44.62
56.07
64.40
68.36
67.56
62.62
55.04
46.97
40.42
36.61
35.45
35.67
35.48
33.50
29.43
23.94
18.27
13.36
9.52
6.46
3.62
0.67
-2.38
-5.35
-8.25
-11.38
-15.28
-20.31
-26.28
-32.40
-37.54
-40.77
-41.82
-41.33
-40.38
-40.11
-41.10
-43.26
-45.97
-48.53
-50.59
-52.35
-54.54
-58.12
-63.86
-72.06
-82.17
-92.82
-101.92
-107.06
-106.25
-98.55
-84.56
-66.30
-46.57
-28.00
-12.25
0.31
10.25
18.42
25.32
30.97
35.10
37.72
39.29
40.65
42.69
45.83
49.83
53.99
57.53
59.93
61.12
61.39
61.19
60.90
60.74
60.72
60.59
59.87
57.95
54.35
48.97
42.19
34.82
27.75
21.69
16.78
12.74
9.03
5.08
0.44
-5.14
-11.71
-19.13
-26.94
-34.51
-41.06
-46.00
-49.16
-50.91
-52.12
-53.82
-56.89
-61.54
-67.18
-72.40
-75.37
-74.44
-68.78
-58.76
-45.86
-32.19
-19.69
-9.56
-2.01
3.49
7.80
11.74
15.83
20.33
25.24
30.34
35.19
39.13
41.51
41.88
40.29
37.28
33.83
30.96
29.46
29.58
31.05
33.13
34.85
35.30
33.84
30.27
24.78
17.91
10.45
3.22
-3.01
-7.79
-11.03
-13.17
-15.02
-17.51
-21.35
-26.78
-33.53
-41.07
-48.96
-57.04
-65.33
-73.60
-81.05
-86.24
-87.56
-84.02
-75.74
-64.10
-51.11
-38.62
-27.48
-17.43
-7.54
3.15
14.89
27.17
38.86
48.76
55.99
60.22
61.66
60.89
58.66
55.61
52.21
48.67
45.07
41.40
37.75
34.35
31.45
29.30
27.89
26.95
25.96
24.35
21.61
17.49
11.99
5.33
-2.08
-9.83
-17.61
-25.29
-32.97
-40.95
-49.64
-59.40
-70.40
-82.43
-94.87
-106.58
-116.19
-122.23
-123.62
-119.87
-111.15
-98.16
-81.81
-62.89
-42.03
-19.93
2.38
23.38
41.50
55.68
65.89
73.22
79.17
84.90
90.43
94.81
96.71
95.41
91.25
85.41
79.08
72.82
66.41
59.63
53.05
48.09
45.94
46.40
47.35
45.75
39.62
29.67
19.28
12.60
11.81
15.55
19.54
19.11
12.17
0.46
-11.57
-19.52
-21.64
-19.45
-16.22
-14.53
-14.61
-14.55
-12.16
-6.98
-1.25
0.94
-4.38
-18.96
-41.56
-68.53
-95.41
-118.46
-135.43
-145.48
-148.53
-144.74
-134.48
-118.57
-98.49
-76.35
-54.31
-33.96
-15.75
1.12
18.36
38.00
61.86
91.05
125.57
164.01
203.42
239.52
267.53
283.34
284.70
271.84
247.05
213.66
174.69
132.05
86.61
38.81
-10.41
-59.14
-104.57
-143.68
-174.01
-194.38
-204.97
-206.94
-201.72
-190.47
-173.97
-152.89
-128.28
-101.58
-74.39
-47.78
-22.01
3.10
27.31
48.98
64.93
71.32
65.17
45.89
15.96
-19.46
-53.90
-81.20
-97.13
-100.54
-93.48
-80.23
-65.70
-53.35
-44.03
-36.19
-27.21
-15.01
0.96
20.02
41.07
63.21
85.66
107.09
125.27
137.50
141.84
138.44
129.72
119.44
110.79
104.93
100.65
95.17
85.71
70.73
50.52
27.07
3.42
-16.94
-30.82
-36.06
-32.11
-20.15
-2.95
15.85
32.72
45.05
51.65
52.66
49.22
42.81
34.95
26.95
19.83
14.23
10.28
7.59
5.28
2.45
-1.50
-6.59
-12.53
-18.96
-25.90
-33.72
-42.94
-53.73
-65.47
-76.73
-85.46
-89.58
-87.64
-79.35
-65.74
-48.89
-31.35
-15.24
-1.69
9.37
18.93
28.21
38.19
49.29
61.43
73.97
85.79
95.30
100.68
100.52
94.43
83.41
69.68
55.99
44.58
36.62
32.03
29.88
28.95
28.08
26.46
23.64
19.58
14.67
9.72
5.62
3.01
1.99
2.10
2.58
2.71
2.10
0.65
-1.51
-4.30
-7.74
-11.96
-17.07
-23.04
-29.65
-36.50
-43.12
-49.11
-54.27
-58.61
-62.38
-66.04
-70.19
-75.45
-82.24
-90.43
-99.07
-106.28
-109.70
-107.21
-97.85
-82.24
-62.57
-41.78
-22.51
-6.36
6.31
16.06
23.73
30.01
35.28
39.66
43.27
46.24
48.67
50.53
51.64
51.78
50.82
48.86
46.18
43.21
40.40
38.07
36.39
35.34
34.71
34.16
33.35
32.07
30.29
28.18
25.99
23.88
21.86
19.74
17.19
14.03
10.17
5.71
0.79
-4.45
-9.87
-15.28
-20.34
-24.65
-27.88
-30.00
-31.24
-32.12
-33.17
-34.79
-37.11
-40.01
-43.16
-46.13
-48.58
-50.32
-51.58
-53.11
-56.05
-61.58
-70.24
-81.35
-92.82
-101.53
-104.42
-99.53
-86.83
-68.17
-46.59
-25.18
-6.23
9.28
21.41
30.84
38.34
44.46
49.60
53.98
57.80
61.14
63.85
65.71
66.41
65.81
63.98
61.25
58.02
54.78
51.86
49.45
47.56
46.01
44.53
42.86
40.88
38.58
36.08
33.49
30.79
27.87
24.51
20.63
16.31
11.82
7.37
3.02
-1.35
-5.93
-10.75
-15.60
-20.07
-23.82
-26.76
-29.13
-31.33
-33.77
-36.70
-40.28
-44.72
-50.27
-57.11
-64.89
-72.47
-77.93
-79.11
-74.39
-63.43
-47.38
-28.53
-9.48
7.67
21.89
33.22
42.37
50.19
57.27
63.63
68.91
72.53
74.06
73.41
70.92
67.27
63.25
59.58
56.74
54.98
54.32
54.59
55.40
56.20
56.30
55.03
51.99
47.10
40.67
33.22
25.39
17.65
10.32
3.56
-2.63
-8.28
-13.44
-18.08
-22.21
-25.80
-28.90
-31.66
-34.26
-36.87
-39.53
-42.17
-44.51
-46.35
-47.61
-48.47
-49.28
-50.38
-52.03
-54.20
-56.72
-59.33
-61.80
-64.02
-65.97
-67.74
-69.52
-71.69
-74.74
-79.09
-84.74
-90.93
-96.08
-98.11
-95.11
-86.07
-71.39
-52.79
-32.83
-14.04
1.80
14.02
22.96
29.55
34.81
39.42
43.66
47.43
50.51
52.71
53.98
54.38
53.98
52.91
51.20
48.96
46.35
43.66
41.23
39.36
38.17
37.52
37.03
36.17
34.51
31.88
28.48
24.74
21.23
18.28
15.85
13.61
11.09
8.03
4.50
0.91
-2.23
-4.62
-6.33
-7.78
-9.54
-11.98
-15.11
-18.59
-21.89
-24.64
-26.77
-28.57
-30.53
-33.01
-36.10
-39.55
-42.91
-45.77
-48.00
-49.77
-51.59
-54.08
-57.79
-63.02
-69.68
-77.19
-84.45
-89.93
-91.91
-88.98
-80.52
-67.00
-50.04
-31.93
-14.99
-0.89
9.64
16.82
21.42
24.32
26.16
27.27
27.75
27.64
27.01
25.95
24.50
22.63
20.29
17.42
13.98
10.13
6.16
2.52
-0.32
-2.02
-2.61
-2.53
-2.62
-3.83
-6.82
-11.66
-17.71
-23.79
-28.65
-31.48
-32.28
-31.83
-31.33
-31.82
-33.73
-36.77
-40.13
-43.01
-44.98
-46.19
-47.17
-48.58
-50.87
-54.16
-58.14
-62.08
-65.08
-66.22
-65.15
-62.29
-58.82
-56.28
-55.95
-58.26
-62.59
-67.32
-70.19
-68.78
-60.96
-45.59
-22.89
5.22
35.52
64.46
89.42
109.63
126.19
141.07
155.77
170.38
183.62
193.71
199.59
201.31
199.96
196.69
192.11
185.97
177.68
167.02
154.64
142.05
130.86
122.09
115.57
110.07
103.88
95.66
85.08
72.89
60.50
49.26
39.94
32.44
26.08
20.06
13.91
7.59
1.36
-4.47
-9.71
-14.31
-18.28
-21.65
-24.50
-27.12
-29.92
-33.37
-37.73
-42.88
-48.39
-53.62
-58.03
-61.36
-63.68
-65.27
-66.43
-67.49
-68.77
-70.71
-73.73
-78.04
-83.20
-87.87
-89.96
-87.20
-78.06
-62.44
-41.70
-18.16
5.82
28.59
49.30
67.61
83.16
95.22
102.91
105.57
103.12
96.10
85.51
72.39
57.71
42.36
27.29
13.56
2.21
-5.98
-10.75
-12.40
-11.72
-9.68
-7.29
-5.32
-4.23
-4.16
-4.99
-6.53
-8.69
-11.44
-14.85
-18.98
-23.65
-28.52
-33.12
-37.06
-40.24
-42.87
-45.38
-48.08
-51.00
-53.82
-56.10
-57.53
-58.21
-58.55
-59.08
-60.13
-61.65
-63.29
-64.55
-65.13
-65.00
-64.46
-63.94
-63.96
-65.02
-67.56
-71.93
-78.09
-85.34
-92.11
-96.17
-95.32
-88.12
-74.67
-56.67
-36.94
-18.43
-3.29
7.69
15.01
19.94
23.87
27.74
31.87
36.00
39.54
41.91
42.75
42.10
40.31
37.92
35.41
33.09
31.00
29.13
27.41
25.94
24.81
24.06
23.45
22.60
21.12
18.82
15.84
12.61
9.64
7.21
5.27
3.48
1.46
-0.94
-3.46
-5.56
-6.71
-6.72
-5.94
-5.07
-4.87
-5.75
-7.63
-9.93
-11.92
-13.09
-13.41
-13.34
-13.74
-15.50
-19.33
-25.47
-33.60
-42.69
-51.14
-57.01
-58.40
-54.14
-44.17
-29.81
-13.41
2.25
14.92
23.55
28.40
30.76
32.17
33.80
36.08
38.81
41.49
43.71
45.28
46.26
46.73
46.70
46.15
45.04
43.47
41.64
39.76
37.96
36.24
34.51
32.67
30.67
28.37
25.62
22.17
17.89
12.86
7.42
2.13
-2.50
-6.20
-9.09
-11.55
-14.02
-16.81
-19.85
-22.78
-25.13
-26.61
-27.37
-28.01
-29.32
-31.97
-36.09
-41.26
-46.62
-51.27
-54.69
-56.82
-58.08
-59.09
-60.49
-62.79
-66.47
-71.88
-79.02
-87.22
-94.95
-99.98
-99.99
-93.51
-80.57
-62.92
-43.39
-24.94
-9.64
1.84
10.01
16.00
20.83
25.16
29.19
32.97
36.58
40.14
43.62
46.73
49.03
50.01
49.49
47.72
45.33
43.16
41.87
41.77
42.65
43.92
44.85
44.87
43.77
41.78
39.40
37.16
35.38
34.02
32.74
31.13
28.91
26.11
23.10
20.34
18.10
16.31
14.56
12.34
9.30
5.54
1.53
-2.09
-4.86
-6.74
-8.20
-9.93
-12.54
-16.28
-20.86
-25.69
-30.11
-33.77
-36.71
-39.33
-42.20
-45.88
-50.76
-57.00
-64.44
-72.49
-80.03
-85.44
-86.91
-83.00
-73.16
-58.09
-39.67
-20.43
-2.77
11.70
22.46
29.97
35.25
39.37
43.08
46.70
50.19
53.35
55.97
57.90
59.08
59.46
59.05
57.87
56.10
54.01
52.00
50.52
49.84
49.97
50.55
50.99
50.64
49.09
46.30
42.72
38.99
35.77
33.34
31.63
30.16
28.37
25.88
22.64
18.93
15.23
11.93
9.23
6.98
4.92
2.70
0.11
-2.83
-5.97
-9.10
-12.11
-14.96
-17.73
-20.54
-23.49
-26.68
-30.28
-34.56
-39.72
-45.70
-51.85
-56.88
-59.08
-56.85
-49.37
-37.00
-21.24
-4.29
11.74
25.45
36.39
44.86
51.45
56.59
60.41
62.77
63.61
63.05
61.43
59.17
56.56
53.71
50.61
47.29
43.90
40.68
37.88
35.70
34.24
33.51
33.40
33.64
33.86
33.62
32.61
30.75
28.25
25.40
22.41
19.29
15.89
12.07
7.85
3.43
-0.91
-4.94
-8.62
-12.02
-15.20
-18.14
-20.70
-22.75
-24.21
-25.23
-26.11
-27.22
-28.90
-31.25
-34.19
-37.45
-40.76
-43.96
-47.08
-50.33
-54.02
-58.50
-64.03
-70.81
-78.81
-87.58
-95.99
-102.24
-104.18
-100.01
-89.07
-72.22
-51.75
-30.64
-11.61
3.68
14.91
22.80
28.58
33.37
37.86
42.24
46.37
50.01
52.94
55.05
56.31
56.73
56.22
54.67
52.06
48.59
44.78
41.32
38.87
37.68
37.56
37.87
37.93
37.27
35.86
34.01
32.14
30.57
29.36
28.33
27.13
25.54
23.46
21.05
18.60
16.46
14.83
13.72
12.89
11.95
10.55
8.50
5.85
2.83
-0.32
-3.51
-6.89
-10.80
-15.64
-21.59
-28.50
-35.81
-42.80
-48.82
-53.54
-57.16
-60.27
-63.77
-68.47
-74.86
-82.79
-91.35
-98.86
-103.20
-102.34
-95.12
-81.71
-63.76
-43.93
-24.98
-8.96
3.33
12.24
18.79
24.04
28.71
33.04
36.99
40.46
43.43
45.91
47.94
49.44
50.33
50.55
50.10
49.12
47.82
46.50
45.45
44.93
45.04
45.70
46.55
47.03
46.58
44.78
41.45
36.73
30.93
24.43
17.57
10.64
3.97
-2.15
-7.43
-11.66
-14.84
-17.17
-19.01
-20.77
-22.80
-25.34
-28.49
-32.22
-36.36
-40.64
-44.68
-48.14
-50.73
-52.39
-53.29
-53.76
-54.21
-55.03
-56.64
-59.46
-63.84
-69.71
-76.24
-81.63
-83.42
-79.38
-68.50
-51.70
-31.61
-11.69
5.13
17.47
25.65
31.08
35.25
39.08
42.65
45.68
47.97
49.72
51.36
53.21
55.20
56.82
57.48
56.74
54.68
51.83
48.91
46.46
44.63
43.15
41.53
39.41
36.68
33.55
30.40
27.49
24.81
22.03
18.68
14.33
8.84
2.39
-4.62
-11.76
-18.78
-25.64
-32.38
-38.85
-44.65
-49.20
-52.07
-53.28
-53.36
-53.17
-53.53
-54.90
-57.18
-59.90
-62.27
-63.46
-62.76
-59.82
-54.82
-48.60
-42.51
-38.04
-36.32
-37.82
-42.16
-48.30
-54.56
-58.93
-59.38
-54.38
-43.56
-28.16
-10.80
5.33
17.74
25.61
29.91
32.65
35.70
39.83
44.57
48.76
51.47
52.39
51.94
50.75
49.24
47.40
45.03
42.03
38.64
35.40
32.89
31.50
31.17
31.48
31.87
31.82
31.08
29.73
28.13
26.68
25.69
25.23
25.15
25.16
24.98
24.47
23.63
22.52
21.19
19.56
17.51
14.95
11.93
8.63
5.29
2.15
-0.74
-3.52
-6.45
-9.79
-13.65
-17.91
-22.29
-26.45
-30.22
-33.72
-37.34
-41.63
-47.08
-53.95
-62.04
-70.45
-77.66
-81.61
-80.29
-72.36
-57.78
-38.06
-15.93
5.40
23.30
36.36
44.66
49.28
51.69
53.10
54.20
55.21
56.13
56.93
57.51
57.78
57.51
56.47
54.57
51.98
49.14
46.56
44.69
43.68
43.40
43.51
43.60
43.31
42.49
41.15
39.48
37.71
35.97
34.23
32.25
29.81
26.80
23.39
19.97
16.99
14.63
12.67
10.45
7.14
2.01
-5.22
-14.32
-24.49
-34.68
-43.82
-51.14
-56.33
-59.64
-61.77
-63.53
-65.54
-67.83
-69.69
-69.88
-67.18
-61.00
-51.81
-41.15
-31.00
-23.09
-18.16
-15.82
-14.89
-13.98
-12.09
-8.81
-4.28
1.13
7.01
12.92
18.46
23.04
26.14
27.35
26.67
24.47
21.50
18.65
16.62
15.84
16.25
17.48
18.86
19.73
19.63
18.42
16.39
14.01
11.81
10.05
8.68
7.37
5.70
3.36
0.25
-3.49
-7.58
-11.61
-15.12
-17.68
-19.04
-19.25
-18.82
-18.57
-19.37
-21.75
-25.64
-30.43
-35.22
-39.30
-42.49
-45.25
-48.55
-53.43
-60.59
-69.99
-80.66
-90.79
-98.11
-100.49
-96.51
-86.01
-70.14
-51.10
-31.45
-13.46
1.44
12.83
21.11
27.12
31.75
35.70
39.32
42.71
45.82
48.54
50.70
52.16
52.77
52.51
51.56
50.22
48.97
48.13
47.78
47.75
47.63
47.04
45.70
43.57
40.71
37.23
33.19
28.70
23.93
19.15
14.70
10.74
7.17
3.57
-0.61
-5.83
-12.10
-18.96
-25.66
-31.47
-36.00
-39.44
-42.46
-46.00
-50.96
-57.88
-66.76
-76.88
-86.79
-94.62
-98.38
-96.65
-89.00
-76.18
-59.91
-42.35
-25.43
-10.43
2.15
12.45
20.95
28.26
34.91
41.31
47.67
53.99
59.94
65.02
68.69
70.57
70.63
69.26
67.08
64.83
63.04
61.96
61.55
61.59
61.81
62.03
62.11
61.90
61.21
59.82
57.59
54.48
50.57
45.97
40.69
34.55
27.29
18.68
8.66
-2.50
-14.21
-25.57
-35.49
-42.86
-46.82
-47.00
-43.67
-37.82
-30.85
-24.26
-19.29
-16.70
-16.82
-19.72
-25.31
-33.27
-42.82
-52.58
-60.61
-64.96
-64.33
-58.56
-48.79
-37.06
-25.47
-15.55
-7.92
-2.41
1.62
4.83
7.86
11.23
15.41
20.71
27.03
33.82
40.12
45.01
47.98
49.17
49.19
48.75
48.15
47.15
45.18
41.74
36.89
31.22
25.65
20.92
17.19
14.06
10.86
7.19
3.11
-0.78
-3.79
-5.52
-6.01
-5.74
-5.25
-4.90
-4.80
-4.86
-4.98
-5.16
-5.55
-6.33
-7.78
-10.18
-13.78
-18.62
-24.42
-30.50
-36.04
-40.41
-43.43
-45.44
-47.06
-48.87
-51.24
-54.41
-58.66
-64.35
-71.68
-80.10
-88.08
-93.21
-93.01
-85.96
-72.23
-53.74
-33.41
-14.09
2.37
15.40
25.45
33.39
39.99
45.68
50.54
54.52
57.57
59.64
60.78
61.09
60.72
59.84
58.59
57.10
55.46
53.86
52.51
51.58
51.04
50.61
49.78
48.12
45.42
41.84
37.77
33.55
29.27
24.77
19.82
14.39
8.74
3.37
-1.26
-5.04
-8.25
-11.46
-15.23
-19.78
-24.97
-30.32
-35.33
-39.72
-43.55
-47.24
-51.43
-56.83
-63.94
-72.86
-83.03
-93.17
-101.39
-105.66
-104.37
-96.93
-83.95
-67.05
-48.39
-29.95
-13.21
1.06
12.60
21.58
28.37
33.55
37.80
41.71
45.58
49.31
52.49
54.63
55.50
55.24
54.27
53.16
52.27
51.76
51.56
51.53
51.51
51.38
50.98
50.12
48.60
46.34
43.42
40.11
36.75
33.60
30.75
28.13
25.46
22.42
18.82
14.63
10.01
5.29
0.74
-3.47
-7.45
-11.47
-15.82
-20.71
-26.07
-31.58
-36.79
-41.29
-45.04
-48.42
-52.28
-57.67
-65.52
-76.14
-88.78
-101.57
-111.85
-116.92
-114.89
-105.42
-89.82
-70.64
-50.74
-32.46
-17.08
-4.83
4.76
12.41
18.72
24.16
29.10
33.85
38.63
43.41
47.93
51.76
54.56
56.30
57.28
58.00
58.92
60.24
61.85
63.45
64.66
65.20
64.86
63.54
61.12
57.59
53.02
47.66
41.94
36.32
31.23
26.92
23.40
20.38
17.44
14.09
10.08
5.54
0.92
-3.23
-6.55
-9.16
-11.59
-14.53
-18.44
-23.33
-28.74
-34.10
-39.00
-43.41
-47.57
-51.78
-56.24
-61.01
-66.23
-72.21
-79.34
-87.70
-96.61
-104.36
-108.57
-106.93
-98.17
-82.68
-62.49
-40.63
-20.00
-2.54
11.17
21.60
29.71
36.37
42.01
46.75
50.49
53.25
55.12
56.25
56.77
56.71
56.11
55.02
53.67
52.39
51.61
51.78
53.19
55.83
59.30
62.88
65.71
67.16
67.02
65.66
63.78
62.19
61.44
61.64
62.51
63.56
64.32
64.55
64.33
63.90
63.44
62.88
61.76
59.36
54.81
47.40
36.64
22.42
4.97
-15.06
-36.55
-58.04
-77.98
-95.10
-108.83
-119.56
-128.39
-136.59
-144.81
-152.52
-158.01
-158.83
-152.81
-138.99
-118.23
-93.04
-66.71
-42.18
-21.15
-3.80
10.75
23.64
35.59
46.64
56.44
64.61
70.98
75.64
78.60
79.71
78.70
75.49
70.54
64.91
59.99
56.99
56.49
58.13
60.88
63.50
65.06
65.30
64.54
63.41
62.38
61.43
59.88
56.66
50.61
41.02
27.97
12.37
-4.29
-20.51
-35.24
-48.27
-59.93
-70.70
-80.61
-88.88
-94.12
-94.98
-90.97
-82.86
-72.79
-63.73
-58.78
-60.32
-69.37
-85.14
-104.97
-124.71
-139.61
-145.60
-140.59
-125.14
-102.16
-75.87
-50.29
-28.05
-10.03
4.33
16.14
26.50
36.13
45.45
54.68
63.70
71.96
78.28
81.14
79.19
72.01
60.46
46.56
32.88
21.72
14.46
11.30
11.52
13.90
17.19
20.36
22.73
23.93
23.85
22.57
20.30
17.31
13.80
9.83
5.39
0.47
-4.91
-10.71
-17.01
-24.11
-32.48
-42.50
-54.15
-66.78
-79.13
-89.69
-97.13
-100.74
-100.78
-98.47
-95.67
-94.26
-95.31
-98.46
-101.75
-102.24
-97.12
-84.95
-66.33
-43.78
-20.74
-0.37
15.49
26.56
33.70
38.23
41.25
43.38
44.86
45.80
46.31
46.57
46.59
46.23
45.16
43.00
39.49
34.51
28.08
20.32
11.42
1.80
-7.80
-16.31
-22.79
-26.83
-28.88
-30.23
-32.55
-37.31
-45.28
-56.38
-69.52
-82.70
-93.19
-98.21
-95.98
-86.77
-73.27
-59.99
-51.61
-51.11
-58.70
-71.83
-86.17
-97.08
-100.76
-95.17
-80.45
-59.07
-35.24
-13.50
2.89
13.21
19.07
23.17
27.55
32.81
38.70
45.29
53.79
65.95
82.27
100.59
116.44
125.37
126.09
122.26
121.59
132.22
158.73
199.71
248.52
296.38
335.92
363.18
377.38
379.07
368.42
344.62
306.76
255.03
191.61
120.64
47.61
-21.42
-80.61
-125.36
-153.61
-166.85
-169.89
-169.38
-171.45
-180.13
-197.11
-222.63
-256.23
-296.59
-340.34
-381.30
-411.19
-422.22
-410.39
-377.67
-331.52
-282.05
-238.06
-204.05
-179.34
-159.34
-138.13
-110.87
-75.45
-32.86
13.23
57.75
95.38
121.66
133.63
130.50
114.09
88.94
61.76
40.15
30.75
37.63
61.41
99.45
146.53
196.05
241.26
276.38
297.67
303.93
296.51
278.35
252.70
222.01
187.73
150.78
112.44
74.83
40.50
11.59
-11.12
-28.16
-40.75
-49.89
-55.80
-58.15
-56.67
-51.83
-44.89
-37.58
-31.56
-28.24
-28.84
-34.38
-45.30
-60.68
-77.77
-92.41
-100.77
-101.13
-95.15
-87.17
-81.88
-81.76
-85.58
-88.95
-86.33
-73.68
-50.21
-18.69
15.38
45.71
67.10
77.27
77.80
73.67
71.49
77.02
93.26
119.67
152.99
188.62
221.61
246.90
258.99
252.45
223.41
171.90
103.20
27.19
-44.50
-102.14
-140.60
-159.92
-163.81
-157.34
-145.19
-131.00
-117.30
-105.92
-97.93
-93.27
-90.67
-87.75
-81.76
-70.44
-52.97
-30.48
-6.39
13.91
24.19
19.05
-4.07
-43.74
-94.54
-148.82
-199.08
-240.10
-269.82
-288.59
-297.71
-297.92
-289.14
-270.99
-243.86
-209.50
-170.76
-130.43
-90.05
-49.52
-7.70
35.88
79.67
119.78
151.40
171.02
178.45
177.29
173.34
172.01
175.88
183.90
192.36
197.02
195.37
187.69
176.85
166.83
160.99
160.73
165.09
171.30
176.14
177.47
174.92
169.72
163.64
157.73
151.64
144.12
133.96
121.11
106.99
93.77
83.25
75.92
70.77
65.98
59.98
52.44
44.55
38.50
36.28
38.43
43.23
46.88
44.40
31.59
6.69
-28.70
-69.92
-110.37
-143.22
-163.02
-166.77
-154.78
-130.64
-100.79
-72.96
-53.71
-46.17
-48.49
-54.43
-55.58
-44.42
-16.89
26.59
81.67
141.37
197.65
242.45
268.41
269.85
244.29
193.93
126.30
53.35
-10.95
-54.07
-68.20
-52.34
-12.85
37.98
84.98
113.98
115.70
88.30
37.54
-25.23
-86.77
-135.86
-166.08
-176.63
-171.28
-156.26
-137.80
-120.64
-107.39
-98.48
-92.44
-86.51
-77.33
-61.88
-38.48
-7.68
27.43
61.67
88.97
103.90
103.23
86.87
58.04
22.31
-13.99
-45.51
-69.12
-84.36
-92.95
-97.58
-100.65
-103.26
-104.89
-103.78
-97.67
-84.50
-62.89
-32.47
5.94
50.01
95.90
138.57
172.66
193.99
200.84
194.66
179.25
159.18
137.94
117.19
97.27
78.50
62.06
49.75
42.61
39.65
37.74
32.96
22.56
6.28
-13.82
-34.78
-54.25
-71.27
-85.76
-97.72
-106.87
-112.87
-116.00
-117.34
-118.25
-119.63
-121.45
-122.97
-123.47
-122.90
-121.85
-121.01
-120.63
-120.22
-118.91
-116.04
-111.52
-105.67
-98.88
-91.07
-81.67
-69.97
-55.65
-39.23
-22.02
-5.67
8.49
19.87
28.67
35.54
41.11
45.53
48.52
49.53
48.27
45.00
40.55
36.03
32.29
29.53
27.21
24.42
20.42
15.05
8.87
2.76
-2.63
-7.25
-11.71
-16.89
-23.55
-31.97
-41.93
-52.83
-63.96
-74.77
-84.97
-94.56
-103.73
-112.78
-122.00
-131.72
-142.39
-154.54
-168.35
-183.16
-196.95
-206.30
-207.14
-196.02
-171.24
-133.44
-85.42
-31.27
24.67
78.61
127.95
171.32
208.43
239.69
265.63
286.59
302.61
313.67
320.17
323.19
324.31
325.20
327.09
330.58
335.78
342.37
349.49
355.46
357.62
352.88
338.75
314.38
280.95
241.08
197.73
152.96
107.57
61.61
15.37
-29.78
-71.31
-106.26
-132.33
-148.94
-157.51
-161.04
-163.10
-166.66
-173.08
-181.77
-190.51
-196.51
-197.51
-192.75
-183.11
-170.72
-157.92
-146.36
-136.38
-126.93
-116.17
-102.24
-84.18
-62.45
-38.98
-16.62
1.86
14.62
21.24
22.64
20.48
16.38
11.48
6.31
1.13
-3.73
-7.78
-10.44
-11.37
-10.73
-9.17
-7.68
-7.10
-7.86
-9.62
-11.57
-12.72
-12.56
-11.34
-9.99
-9.69
-11.16
-14.26
-18.17
-21.81
-24.48
-26.03
-26.83
-27.35
-27.93
-28.75
-29.97
-31.79
-34.36
-37.71
-41.60
-45.79
-50.11
-54.69
-59.71
-65.17
-70.65
-75.36
-78.60
-80.17
-80.63
-81.16
-83.06
-87.12
-93.18
-100.00
-105.60
-107.84
-105.02
-96.49
-82.78
-65.50
-46.83
-28.85
-12.96
0.32
11.33
20.84
29.63
38.12
46.32
53.91
60.43
65.48
68.79
70.25
69.83
67.65
64.01
59.44
54.67
50.49
47.50
45.91
45.44
45.46
45.18
43.97
41.47
37.69
32.88
27.44
21.84
16.49
11.78
7.97
5.14
3.19
1.82
0.68
-0.53
-1.94
-3.56
-5.28
-7.04
-8.77
-10.51
-12.32
-14.26
-16.40
-18.80
-21.51
-24.50
-27.65
-30.69
-33.32
-35.34
-36.78
-37.94
-39.40
-41.90
-46.02
-51.96
-59.20
-66.48
-71.94
-73.64
-70.23
-61.52
-48.60
-33.53
-18.53
-5.28
5.53
14.16
21.30
27.58
33.25
38.22
42.31
45.42
47.66
49.14
49.89
49.78
48.66
46.55
43.65
40.39
37.26
34.68
32.88
31.88
31.56
31.62
31.72
31.47
30.63
29.15
27.22
25.16
23.28
21.70
20.30
18.82
17.01
14.76
12.21
9.62
7.27
5.24
3.37
1.29
-1.40
-4.93
-9.23
-13.98
-18.74
-23.24
-27.45
-31.59
-35.92
-40.49
-45.06
-49.15
-52.37
-54.66
-56.49
-58.71
-62.26
-67.75
-75.10
-83.47
-91.30
-96.68
-97.87
-93.80
-84.32
-70.38
-53.72
-36.42
-20.40
-6.96
3.43
11.02
16.53
20.74
24.25
27.34
30.10
32.46
34.35
35.74
36.56
36.75
36.25
35.23
34.02
33.14
33.04
33.87
35.44
37.20
38.51
38.88
38.10
36.27
33.65
30.56
27.23
23.81
20.42
17.13
14.01
11.10
8.35
5.63
2.70
-0.68
-4.65
-9.10
-13.57
-17.36
-19.79
-20.48
-19.56
-17.69
-15.81
-14.84
-15.36
-17.47
-20.92
-25.23
-29.90
-34.51
-38.77
-42.63
-46.22
-49.99
-54.58
-60.60
-68.27
-76.98
-85.20
-90.73
-91.38
-85.84
-74.26
-58.25
-40.40
-23.31
-8.82
2.39
10.65
16.76
21.52
25.50
29.01
32.24
35.37
38.51
41.54
44.15
45.84
46.17
44.97
42.47
39.18
35.81
32.98
31.14
30.39
30.55
31.23
31.90
32.10
31.51
30.07
27.95
25.43
22.78
20.07
17.21
13.98
10.23
5.90
1.19
-3.61
-8.17
-12.32
-16.10
-19.76
-23.64
-27.95
-32.79
-38.00
-43.23
-47.97
-51.76
-54.33
-55.69
-56.26
-56.61
-57.44
-59.36
-62.72
-67.50
-72.98
-77.68
-79.56
-76.66
-67.87
-53.54
-35.45
-16.21
1.69
16.70
28.26
36.64
42.31
45.74
47.47
48.23
48.93
50.24
52.40
55.09
57.80
60.26
62.61
65.13
67.86
70.40
72.03
72.21
70.84
68.30
65.13
61.71
58.12
54.16
49.71
44.74
39.43
34.09
29.09
24.83
21.61
19.44
17.84
15.99
12.98
8.35
2.34
-4.21
-10.25
-15.23
-19.29
-23.17
-27.68
-33.22
-39.50
-45.73
-51.09
-55.10
-57.84
-59.79
-61.69
-64.15
-67.67
-72.52
-78.71
-85.85
-92.96
-98.41
-100.21
-96.51
-86.31
-70.08
-49.77
-28.32
-8.69
7.04
18.23
25.61
30.60
34.69
38.83
43.33
48.04
52.61
56.75
60.22
62.86
64.54
65.21
64.92
63.93
62.62
61.46
60.84
60.94
61.65
62.56
63.04
62.45
60.42
56.99
52.60
47.95
43.73
40.40
38.00
36.23
34.46
31.95
28.06
22.51
15.45
7.48
-0.58
-8.01
-14.39
-19.74
-24.39
-28.77
-33.20
-37.86
-42.74
-47.70
-52.53
-56.98
-60.85
-64.08
-66.87
-69.72
-73.23
-77.91
-83.81
-90.36
-96.28
-99.83
-99.25
-93.33
-81.90
-66.02
-47.80
-29.69
-13.81
-1.21
8.20
15.34
21.34
26.91
32.21
37.01
41.05
44.28
46.89
49.08
50.81
51.89
52.03
51.22
49.75
48.18
47.07
46.73
47.09
47.80
48.38
48.38
47.49
45.52
42.45
38.46
33.90
29.23
24.78
20.63
16.58
12.30
7.55
2.40
-2.77
-7.53
-11.65
-15.27
-18.77
-22.65
-27.17
-32.22
-37.37
-42.12
-46.12
-49.34
-52.17
-55.22
-59.17
-64.44
-70.88
-77.63
-83.20
-85.78
-83.87
-76.77
-64.88
-49.63
-32.95
-16.72
-2.27
9.80
19.42
26.75
31.94
35.09
36.44
36.42
35.65
34.71
33.90
33.22
32.36
31.08
29.36
27.46
25.74
24.51
23.87
23.71
23.83
24.09
24.41
24.79
25.15
25.39
25.31
24.78
23.74
22.23
20.35
18.15
15.62
12.68
9.32
5.68
2.03
-1.27
-4.03
-6.36
-8.68
-11.51
-15.24
-19.78
-24.60
-28.96
-32.29
-34.56
-36.30
-38.42
-41.84
-47.15
-54.38
-62.94
-71.63
-78.82
-82.69
-81.79
-75.51
-64.39
-50.05
-34.62
-20.02
-7.46
2.81
11.14
18.04
23.87
28.81
32.99
36.70
40.25
43.86
47.36
50.25
51.93
51.99
50.60
48.38
46.18
44.66
44.10
44.27
44.67
44.83
44.44
43.44
41.87
39.83
37.45
34.81
32.07
29.35
26.77
24.38
22.17
20.06
17.96
15.80
13.47
10.93
8.15
5.23
2.32
-0.39
-2.84
-5.07
-7.33
-9.91
-13.04
-16.83
-21.14
-25.76
-30.41
-34.87
-38.99
-42.74
-46.23
-49.75
-53.76
-58.88
-65.59
-73.96
-83.29
-91.99
-97.89
-98.93
-93.89
-83.02
-67.99
-51.32
-35.44
-21.90
-11.04
-2.25
5.43
12.73
19.83
26.52
32.46
37.56
41.96
45.90
49.45
52.42
54.42
55.06
54.30
52.49
50.36
48.76
48.27
48.93
50.29
51.62
52.21
51.76
50.46
48.79
47.13
45.55
43.75
41.26
37.80
33.49
28.86
24.58
21.26
19.20
18.33
18.31
18.66
18.89
18.54
17.35
15.13
11.90
7.78
2.93
-2.38
-7.79
-12.88
-17.26
-20.79
-23.71
-26.63
-30.31
-35.38
-42.13
-50.40
-59.55
-68.56
-76.02
-80.38
-80.29
-75.04
-64.92
-51.27
-36.00
-21.01
-7.61
3.82
13.54
22.08
29.90
37.17
43.90
49.95
55.14
59.24
61.99
63.21
63.01
61.75
60.00
58.29
56.94
55.95
55.11
54.18
53.00
51.50
49.75
47.79
45.68
43.43
41.04
38.45
35.59
32.37
28.73
24.69
20.34
15.80
11.12
6.28
1.17
-4.24
-9.77
-15.09
-19.80
-23.59
-26.44
-28.55
-30.34
-32.30
-34.84
-38.24
-42.54
-47.57
-52.91
-58.07
-62.60
-66.28
-69.21
-71.79
-74.56
-78.11
-82.91
-89.23
-96.96
-105.40
-113.08
-117.93
-117.89
-111.66
-99.27
-82.04
-62.08
-41.36
-21.18
-2.13
15.47
31.16
44.16
53.75
59.74
62.75
64.02
64.86
66.05
67.68
69.33
70.43
70.61
69.84
68.30
66.33
64.25
62.29
60.59
59.06
57.50
55.57
53.06
49.91
46.29
42.47
38.72
35.19
31.91
28.85
25.96
23.16
20.30
17.19
13.65
9.66
5.50
1.65
-1.32
-3.13
-3.90
-4.17
-4.70
-6.15
-8.91
-13.02
-18.35
-24.58
-31.45
-38.57
-45.50
-51.65
-56.49
-59.68
-61.28
-61.84
-62.33
-63.89
-67.39
-73.06
-80.15
-86.94
-91.14
-90.58
-84.07
-71.91
-55.99
-39.21
-24.42
-13.39
-6.25
-1.58
2.77
8.68
17.01
27.42
38.70
49.42
58.46
65.18
69.31
70.84
69.92
66.99
62.84
58.53
55.11
53.22
52.96
53.88
55.22
56.26
56.47
55.61
53.67
50.86
47.50
44.08
41.05
38.72
37.12
35.93
34.59
32.52
29.34
24.97
19.75
14.17
8.82
4.07
0.00
-3.58
-7.08
-10.91
-15.32
-20.34
-25.76
-31.19
-36.21
-40.45
-43.77
-46.32
-48.61
-51.37
-55.44
-61.38
-69.22
-78.21
-86.89
-93.31
-95.58
-92.40
-83.55
-69.96
-53.50
-36.41
-20.78
-7.98
1.46
7.79
11.86
14.66
17.15
20.00
23.46
27.36
31.23
34.52
36.77
37.75
37.48
36.23
34.37
32.35
30.64
29.62
29.53
30.31
31.61
32.81
33.24
32.44
30.29
27.12
23.49
20.04
17.14
14.85
12.85
10.69
7.99
4.62
0.81
-3.00
-6.35
-9.11
-11.52
-14.22
-17.80
-22.57
-28.23
-34.01
-39.00
-42.62
-44.93
-46.61
-48.62
-51.67
-55.84
-60.56
-64.96
-68.38
-70.79
-72.68
-74.74
-77.44
-80.69
-84.02
-86.73
-88.16
-87.78
-85.07
-79.42
-70.24
-57.37
-41.33
-23.61
-6.30
8.58
19.69
26.89
31.16
34.05
37.04
41.04
46.24
52.24
58.47
64.45
69.87
74.42
77.72
79.31
78.90
76.53
72.78
68.57
64.78
61.99
60.22
59.09
58.01
56.48
54.25
51.32
47.93
44.33
40.68
36.94
32.89
28.34
23.30
18.05
13.12
9.01
5.96
3.86
2.22
0.35
-2.34
-6.20
-11.21
-16.98
-22.86
-28.15
-32.37
-35.49
-38.01
-40.62
-43.86
-47.64
-51.29
-53.89
-54.75
-53.88
-51.95
-49.99
-48.95
-49.47
-51.87
-56.21
-62.17
-68.89
-74.73
-77.46
-74.84
-65.58
-49.96
-29.89
-8.26
12.08
29.14
42.21
51.58
58.17
63.04
67.07
70.83
74.42
77.46
79.16
78.71
75.71
70.54
64.26
58.21
53.51
50.74
49.90
50.67
52.63
55.33
58.25
60.64
61.72
60.74
57.37
51.82
44.76
37.14
29.89
23.66
18.64
14.58
10.97
7.30
3.36
-0.68
-4.43
-7.65
-10.45
-13.31
-16.76
-21.03
-25.93
-30.91
-35.52
-39.65
-43.50
-47.35
-51.21
-54.79
-57.67
-59.68
-61.13
-62.82
-65.64
-70.30
-76.86
-84.73
-92.69
-99.10
-102.18
-100.38
-92.92
-80.01
-62.98
-43.98
-25.36
-9.01
4.12
13.99
21.27
26.83
31.42
35.59
39.60
43.59
47.49
51.05
53.78
55.23
55.17
53.83
51.87
50.23
49.66
50.34
51.81
53.05
52.94
50.73
46.30
40.22
33.48
27.04
21.55
17.25
13.94
11.37
9.30
7.69
6.57
5.89
5.47
5.01
4.15
2.65
0.44
-2.31
-5.31
-8.23
-10.93
-13.43
-15.96
-18.76
-21.97
-25.50
-29.11
-32.60
-35.93
-39.22
-42.65
-46.26
-49.88
-53.24
-56.17
-58.79
-61.55
-64.93
-69.13
-73.67
-77.35
-78.38
-75.03
-66.16
-51.79
-33.28
-12.95
6.61
23.42
36.58
46.29
53.41
58.81
63.11
66.57
69.44
72.03
74.75
77.79
80.87
83.29
84.27
83.37
80.75
77.12
73.33
70.07
67.58
65.69
63.98
61.99
59.35
55.89
51.56
46.53
41.05
35.44
29.97
24.78
19.90
15.28
10.90
6.78
3.00
-0.37
-3.33
-5.98
-8.48
-11.12
-14.12
-17.64
-21.66
-25.95
-30.27
-34.44
-38.44
-42.36
-46.31
-50.30
-54.25
-58.05
-61.67
-65.14
-68.52
-71.80
-74.88
-77.70
-80.36
-83.19
-86.57
-90.53
-94.42
-96.89
-96.24
-91.09
-81.03
-66.94
-50.69
-34.51
-20.19
-8.59
0.48
7.85
14.39
20.61
26.47
31.56
35.46
37.95
39.13
39.31
38.80
37.84
36.54
35.01
33.41
31.98
30.97
30.48
30.42
30.50
30.31
29.51
28.05
26.10
24.04
22.19
20.64
19.19
17.43
15.03
11.91
8.36
4.97
2.31
0.71
0.09
0.01
-0.08
-0.61
-1.69
-3.17
-4.74
-6.24
-7.77
-9.66
-12.30
-15.84
-20.07
-24.49
-28.52
-31.85
-34.58
-37.15
-40.18
-44.17
-49.38
-55.83
-63.33
-71.46
-79.42
-85.92
-89.34
-88.07
-81.22
-69.03
-53.01
-35.45
-18.64
-4.29
6.95
15.28
21.43
26.17
30.08
33.48
36.51
39.22
41.57
43.54
45.06
46.12
46.69
46.77
46.41
45.67
44.73
43.79
43.08
42.79
42.93
43.32
43.61
43.37
42.22
39.97
36.68
32.66
28.29
24.00
19.99
16.28
12.72
9.20
5.83
2.93
0.89
-0.14
-0.42
-0.60
-1.43
-3.36
-6.36
-9.85
-13.03
-15.30
-16.53
-17.14
-17.82
-19.26
-21.74
-25.13
-28.94
-32.58
-35.59
-37.78
-39.26
-40.45
-41.95
-44.37
-48.29
-53.94
-61.06
-68.73
-75.31
-78.85
-77.60
-70.68
-58.50
-42.74
-25.82
-10.12
2.79
12.53
19.74
25.53
30.84
36.06
41.04
45.32
48.48
50.36
51.02
50.71
49.61
47.86
45.56
42.81
39.92
37.26
35.31
34.40
34.58
35.57
36.77
37.47
37.07
35.41
32.75
29.72
26.97
24.93
23.63
22.82
22.13
21.34
20.49
19.75
19.25
18.93
18.46
17.40
15.44
12.57
9.08
5.41
1.93
-1.28
-4.39
-7.71
-11.44
-15.54
-19.72
-23.62
-26.96
-29.72
-32.16
-34.76
-38.10
-42.72
-48.90
-56.45
-64.49
-71.43
-75.34
-74.42
-67.73
-55.53
-39.32
-21.35
-4.01
10.82
22.24
30.21
35.43
38.85
41.36
43.52
45.53
47.27
48.44
48.78
48.08
46.30
43.55
40.02
35.98
31.69
27.43
23.43
19.81
16.67
14.02
11.85
10.08
8.51
6.87
4.82
2.11
-1.34
-5.37
-9.58
-13.60
-17.22
-20.51
-23.81
-27.39
-31.33
-35.32
-38.81
-41.23
-42.23
-41.80
-40.22
-37.90
-35.29
-32.76
-30.56
-28.76
-27.25
-25.70
-23.78
-21.32
-18.52
-15.84
-13.70
-12.28
-11.45
-11.09
-11.39
-13.01
-16.64
-22.49
-29.69
-36.39
-40.40
-40.04
-34.96
-26.11
-15.18
-3.74
7.35
17.94
28.10
37.70
46.26
53.17
58.18
61.55
63.96
66.06
68.10
69.85
70.98
71.53
72.13
73.86
77.72
84.08
92.38
101.23
108.82
113.38
113.59
108.78
99.08
85.32
68.96
51.76
35.35
20.79
8.43
-2.03
-11.18
-19.48
-27.03
-33.57
-38.73
-42.29
-44.27
-45.00
-44.91
-44.45
-43.95
-43.62
-43.54
-43.76
-44.30
-45.22
-46.57
-48.36
-50.49
-52.76
-54.90
-56.76
-58.36
-59.94
-61.89
-64.53
-68.08
-72.52
-77.55
-82.56
-86.63
-88.53
-87.06
-81.35
-71.36
-57.95
-42.74
-27.57
-13.82
-1.96
8.52
18.62
29.22
40.45
51.65
61.64
69.39
74.42
77.02
77.89
77.77
77.10
75.93
74.20
71.95
69.49
67.29
65.71
64.75
64.00
62.80
60.48
56.70
51.63
45.92
40.38
35.61
31.70
28.12
24.07
18.85
12.39
5.27
-1.59
-7.40
-11.96
-15.60
-19.01
-22.63
-26.50
-30.22
-33.33
-35.66
-37.52
-39.58
-42.52
-46.86
-52.85
-60.52
-69.73
-80.00
-90.38
-99.36
-105.12
-106.03
-101.25
-91.02
-76.60
-59.84
-42.54
-26.11
-11.36
1.39
12.19
21.35
29.31
36.56
43.44
49.96
55.77
60.25
62.77
62.93
60.64
56.23
50.28
43.52
36.73
30.61
25.73
22.32
20.31
19.23
18.51
17.69
16.61
15.52
14.88
15.18
16.49
18.45
20.30
21.16
20.37
17.69
13.25
7.35
0.32
-7.66
-16.39
-25.65
-35.07
-44.15
-52.40
-59.37
-64.85
-68.80
-71.29
-72.51
-72.66
-72.13
-71.46
-71.37
-72.59
-75.54
-79.92
-84.66
-88.08
-88.51
-84.98
-77.67
-67.84
-57.22
-47.17
-38.10
-29.44
-20.18
-9.59
2.34
14.94
27.24
38.51
48.39
56.86
63.95
69.56
73.47
75.48
75.63
74.27
71.97
69.26
66.54
63.91
61.21
58.16
54.43
49.92
44.73
39.28
34.00
29.24
24.99
21.00
16.96
12.82
8.90
5.78
3.97
3.56
4.17
5.02
5.30
4.45
2.28
-1.01
-5.04
-9.27
-13.17
-16.31
-18.53
-20.06
-21.64
-24.35
-29.26
-36.86
-46.69
-57.26
-66.42
-71.98
-72.43
-67.34
-57.47
-44.35
-29.83
-15.57
-2.84
7.70
15.90
22.08
26.86
30.97
34.97
39.01
42.77
45.70
47.29
47.38
46.22
44.36
42.36
40.65
39.35
38.43
37.72
37.06
36.28
35.26
33.92
32.25
30.25
27.90
25.11
21.78
17.85
13.45
8.88
4.49
0.42
-3.43
-7.46
-12.10
-17.54
-23.55
-29.57
-34.98
-39.38
-42.83
-45.75
-48.74
-52.38
-57.05
-62.90
-69.73
-77.00
-83.72
-88.55
-90.07
-87.23
-79.80
-68.46
-54.69
-40.20
-26.43
-14.21
-3.70
5.37
13.39
20.73
27.62
34.19
40.39
46.02
50.72
54.05
55.75
55.84
54.72
52.97
51.23
49.91
49.16
48.96
49.14
49.50
49.69
49.28
47.82
45.06
41.11
36.43
31.70
27.51
24.14
21.44
18.96
16.20
12.86
8.96
4.78
0.79
-2.64
-5.33
-7.44
-9.38
-11.68
-14.77
-18.75
-23.46
-28.48
-33.39
-37.92
-42.01
-45.79
-49.50
-53.46
-58.04
-63.66
-70.56
-78.64
-87.06
-94.29
-98.40
-97.65
-91.18
-79.42
-64.00
-47.21
-31.20
-17.35
-6.03
3.27
11.42
19.19
26.95
34.67
42.08
48.80
54.49
58.90
61.91
63.50
63.82
63.20
62.02
60.74
59.67
59.00
58.76
58.88
59.21
59.51
59.50
58.87
57.43
55.15
52.30
49.33
46.69
44.65
43.13
41.78
40.14
37.92
35.15
32.16
29.34
26.94
24.97
23.23
21.54
19.78
17.98
16.22
14.48
12.67
10.66
8.35
5.60
2.25
-2.04
-7.61
-14.72
-23.32
-32.93
-42.76
-51.94
-59.82
-66.18
-71.31
-75.90
-80.74
-86.32
-92.42
-97.94
-101.11
-100.00
-93.28
-80.85
-64.00
-45.00
-26.40
-10.17
2.63
11.92
18.12
21.85
23.68
24.16
24.02
24.16
25.47
28.43
32.84
37.78
41.99
44.41
44.70
43.30
41.20
39.42
38.47
38.33
38.52
38.53
38.13
37.35
36.38
35.27
33.89
31.93
29.18
25.66
21.67
17.65
13.94
10.74
7.98
5.52
3.19
0.90
-1.37
-3.59
-5.73
-7.77
-9.72
-11.64
-13.62
-15.76
-18.13
-20.75
-23.55
-26.52
-29.69
-33.14
-36.93
-40.93
-44.88
-48.44
-51.45
-54.01
-56.49
-59.31
-62.81
-67.09
-71.91
-76.71
-80.56
-82.23
-80.40
-74.12
-63.27
-48.77
-32.39
-16.19
-1.69
10.44
20.38
28.63
35.63
41.51
46.31
50.15
53.33
56.18
58.82
61.07
62.58
63.23
63.23
63.05
63.15
63.72
64.63
65.63
66.49
67.11
67.32
66.74
64.78
60.85
54.72
46.73
37.68
28.56
20.13
12.75
6.43
1.02
-3.56
-7.25
-10.01
-11.83
-12.91
-13.57
-14.11
-14.79
-15.74
-17.05
-18.78
-20.99
-23.70
-26.93
-30.70
-35.08
-40.30
-46.60
-54.03
-62.14
-69.86
-75.56
-77.49
-74.43
-66.13
-53.55
-38.49
-23.08
-9.10
2.40
11.19
17.61
22.19
25.42
27.65
29.12
30.04
30.60
30.96
31.23
31.36
31.26
30.82
30.02
28.99
28.00
27.38
27.35
27.96
29.01
30.10
30.83
30.90
30.20
28.80
26.84
24.45
21.69
18.64
15.36
11.99
8.63
5.37
2.21
-0.91
-4.08
-7.32
-10.61
-13.86
-16.98
-19.97
-22.94
-26.05
-29.47
-33.24
-37.22
-41.18
-44.86
-48.15
-51.21
-54.45
-58.49
-63.83
-70.69
-78.68
-86.70
-93.04
-95.78
-93.39
-85.31
-72.26
-56.03
-38.91
-22.98
-9.51
1.10
9.12
15.06
19.42
22.60
25.03
27.24
29.73
32.77
36.19
39.44
41.75
42.54
41.66
39.54
37.07
35.25
34.89
36.28
39.11
42.47
45.32
46.78
46.67
45.52
44.53
45.05
48.14
54.12
62.34
71.26
78.83
83.13
82.92
78.13
69.85
60.01
50.62
43.08
37.71
33.72
29.57
23.61
14.65
2.39
-12.57
-28.81
-44.42
-57.43
-66.23
-70.09
-69.37
-65.53
-60.75
-57.32
-56.99
-60.58
-67.89
-77.89
-89.01
-99.37
-107.05
-110.32
-107.90
-99.37
-85.36
-67.48
-47.98
-29.17
-12.79
0.28
10.13
17.53
23.49
28.91
34.23
39.33
43.78
47.15
49.33
50.64
51.59
52.52
53.34
53.65
53.04
51.53
49.67
48.21
47.61
47.64
47.45
46.04
42.81
37.90
32.05
26.13
20.66
15.64
10.71
5.61
0.37
-4.59
-8.85
-12.23
-14.90
-17.35
-20.04
-23.27
-27.14
-31.62
-36.64
-41.99
-47.38
-52.39
-56.73
-60.43
-64.00
-68.27
-74.00
-81.54
-90.45
-99.57
-107.25
-111.68
-111.23
-104.81
-92.21
-74.35
-53.25
-31.68
-12.30
3.14
14.29
22.18
28.46
34.60
41.28
48.28
54.95
60.73
65.41
69.03
71.67
73.21
73.38
72.11
69.61
66.40
63.04
59.89
56.94
54.01
50.91
47.58
44.08
40.43
36.59
32.43
27.98
23.42
19.04
15.11
11.66
8.49
5.25
1.75
-2.07
-6.03
-9.97
-13.71
-17.20
-20.38
-23.29
-26.10
-29.25
-33.38
-39.14
-46.81
-56.05
-65.86
-74.89
-81.88
-86.15
-87.81
-87.75
-87.29
-87.77
-90.10
-94.34
-99.48
-103.51
-104.00
-98.86
-87.25
-70.02
-49.53
-28.85
-10.72
3.26
12.89
18.96
22.69
25.12
26.98
28.70
30.66
33.24
36.62
40.60
44.44
47.15
47.84
46.21
42.70
38.37
34.43
31.78
30.69
30.87
31.70
32.55
33.04
33.10
32.89
32.64
32.50
32.50
32.52
32.37
31.80
30.64
28.82
26.35
23.38
20.16
17.02
14.25
12.01
10.21
8.57
6.67
4.22
1.08
-2.68
-6.89
-11.41
-16.17
-21.13
-26.29
-31.77
-37.78
-44.71
-52.96
-62.62
-73.06
-82.85
-89.93
-92.31
-88.75
-79.35
-65.43
-49.09
-32.47
-17.22
-4.16
6.53
15.05
21.72
26.85
30.81
33.96
36.66
39.10
41.26
42.94
43.97
44.28
43.96
43.21
42.21
41.10
40.05
39.24
38.86
38.99
39.52
40.05
40.09
39.19
37.20
34.24
30.70
27.04
23.60
20.56
17.84
15.26
12.49
9.30
5.59
1.58
-2.31
-5.63
-8.17
-10.18
-12.28
-15.17
-19.18
-24.09
-29.17
-33.64
-37.13
-39.91
-42.83
-46.88
-52.79
-60.68
-70.04
-79.76
-88.41
-94.42
-96.40
-93.51
-85.65
-73.62
-58.87
-43.16
-28.04
-14.46
-2.78
7.14
15.65
23.09
29.62
35.34
40.31
44.56
48.08
50.67
52.15
52.41
51.62
50.33
49.26
49.06
49.88
51.37
52.82
53.59
53.38
52.39
51.00
49.53
48.02
46.25
44.05
41.44
38.65
35.92
33.30
30.57
27.47
23.92
20.16
16.62
13.66
11.31
9.27
7.07
4.39
1.23
-2.12
-5.38
-8.49
-11.67
-15.29
-19.59
-24.54
-29.83
-35.04
-39.79
-43.99
-47.72
-51.32
-55.23
-59.90
-65.75
-72.94
-81.23
-89.79
-97.14
-101.51
-101.28
-95.60
-84.67
-69.74
-52.66
-35.33
-19.20
-5.11
6.64
16.14
23.67
29.68
34.68
39.22
43.64
47.98
51.87
54.77
56.20
56.10
54.81
53.01
51.36
50.26
49.72
49.47
49.15
48.55
47.71
46.81
46.04
45.41
44.72
43.67
42.04
39.78
37.05
34.09
31.12
28.23
25.36
22.38
19.11
15.47
11.54
7.55
3.86
0.77
-1.63
-3.58
-5.60
-8.21
-11.73
-16.09
-20.82
-25.32
-29.14
-32.21
-34.82
-37.54
-41.03
-45.88
-52.40
-60.51
-69.55
-78.25
-84.85
-87.50
-84.84
-76.50
-63.33
-47.08
-29.95
-13.86
-0.03
11.11
19.79
26.52
31.86
36.23
39.90
42.98
45.51
47.50
48.93
49.85
50.27
50.24
49.78
48.97
47.96
47.02
46.47
46.49
47.05
47.75
47.97
47.03
44.57
40.64
35.76
30.73
26.32
22.97
20.61
18.77
16.75
13.96
10.23
5.74
0.99
-3.65
-8.05
-12.36
-16.82
-21.47
-26.09
-30.26
-33.62
-36.09
-37.95
-39.72
-41.92
-44.91
-48.78
-53.47
-58.89
-65.04
-71.97
-79.60
-87.44
-94.46
-99.14
-99.78
-95.14
-84.98
-70.34
-53.32
-36.43
-21.81
-10.55
-2.62
2.90
7.14
10.97
14.66
17.99
20.49
21.73
21.51
19.97
17.49
14.58
11.70
9.05
6.52
3.61
-0.34
-5.90
-13.25
-21.99
-31.18
-39.49
-45.89
-50.01
-52.52
-54.94
-58.86
-64.91
-71.90
-76.76
-75.53
-64.84
-43.29
-12.13
24.90
62.44
94.55
115.83
122.64
114.24
93.64
67.38
43.90
30.76
31.73
45.31
65.55
84.90
97.55
101.38
97.95
90.50
81.82
73.29
65.08
57.48
51.84
50.43
55.16
66.22
81.54
97.56
110.98
120.23
125.95
130.09
134.58
140.24
146.65
152.48
155.98
155.18
147.79
131.49
104.69
67.72
23.67
-21.82
-62.12
-91.90
-108.83
-114.04
-110.93
-103.30
-93.84
-83.67
-72.97
-61.94
-51.37
-42.54
-36.64
-33.98
-33.78
-34.43
-34.22
-32.11
-28.12
-23.29
-19.14
-17.07
-17.68
-20.59
-24.61
-28.28
-30.39
-30.52
-28.99
-26.58
-24.12
-21.92
-19.60
-16.22
-10.74
-2.70
7.28
17.24
24.43
26.06
20.39
7.37
-11.16
-32.00
-51.53
-66.58
-75.14
-76.58
-71.51
-61.30
-47.55
-31.68
-14.71
2.66
19.91
36.39
51.23
63.32
71.53
74.90
72.86
65.45
53.40
38.16
21.69
6.16
-6.50
-14.89
-18.32
-16.72
-10.57
-0.74
11.54
24.74
37.15
47.16
53.48
55.30
52.41
45.06
33.86
19.61
3.34
-13.72
-30.10
-44.08
-53.90
-58.08
-55.88
-47.69
-35.16
-21.00
-8.26
0.42
3.51
0.87
-6.50
-17.10
-29.68
-43.52
-58.49
-74.47
-90.88
-106.42
-119.27
-127.58
-130.13
-126.62
-117.67
-104.58
-88.76
-71.53
-53.88
-36.68
-20.76
-7.11
3.17
9.18
10.53
7.68
2.04
-4.34
-9.22
-10.81
-8.23
-1.74
7.53
17.96
28.01
36.64
43.50
48.84
53.33
57.58
61.76
65.45
67.60
66.94
62.42
53.68
41.20
26.22
10.37
-4.79
-18.10
-29.10
-37.88
-45.01
-51.16
-56.87
-62.36
-67.52
-72.06
-75.66
-78.20
-79.84
-81.10
-82.70
-85.34
-89.49
-95.08
-101.44
-107.22
-110.65
-109.97
-103.97
-92.32
-75.78
-55.92
-34.75
-14.22
4.17
19.64
32.07
41.98
50.18
57.52
64.54
71.39
77.81
83.29
87.38
89.79
90.53
89.85
88.05
85.45
82.31
78.78
74.98
71.07
67.20
63.51
59.97
56.31
52.03
46.66
39.98
32.21
24.01
16.16
9.25
3.41
-1.67
-6.61
-11.92
-17.95
-24.71
-32.08
-39.94
-48.25
-57.00
-66.04
-74.86
-82.48
-87.63
-88.99
-85.68
-77.62
-65.66
-51.42
-36.81
-23.55
-12.68
-4.42
1.72
6.72
11.55
16.88
22.80
28.82
34.15
38.07
40.29
41.12
41.33
41.75
42.94
44.91
47.17
49.09
50.24
50.59
50.51
50.33
50.00
48.95
46.23
41.04
33.21
23.46
13.20
4.04
-2.80
-6.93
-8.89
-9.88
-11.34
-14.39
-19.57
-26.67
-34.88
-43.13
-50.54
-56.88
-62.65
-69.04
-77.38
-88.67
-103.18
-120.20
-138.13
-154.63
-166.95
-172.58
-169.88
-158.86
-141.49
-121.40
-102.37
-86.67
-73.75
-60.45
-42.78
-18.50
11.01
40.73
64.00
75.49
73.47
60.22
40.57
19.66
1.22
-12.71
-20.88
-21.99
-14.49
2.30
26.99
55.57
82.17
100.90
107.85
102.20
86.09
63.19
37.27
11.24
-12.78
-32.73
-46.16
-50.31
-42.91
-23.19
7.76
47.65
94.25
146.11
202.08
259.89
314.63
358.66
383.51
382.85
355.01
303.53
235.67
159.62
82.34
8.56
-58.92
-118.35
-168.19
-207.14
-234.59
-251.43
-260.43
-265.83
-272.08
-282.12
-295.98
-310.10
-318.75
-316.21
-299.22
-268.30
-227.36
-181.90
-136.79
-94.82
-56.73
-22.29
8.27
33.56
51.39
60.04
59.68
53.17
45.34
40.74
41.19
44.73
46.66
42.67
32.11
19.27
12.03
18.57
44.05
88.90
148.75
215.77
280.07
331.18
359.64
358.93
327.45
269.44
194.14
113.13
36.97
-27.39
-77.40
-113.99
-139.71
-157.02
-167.33
-170.61
-165.70
-151.06
-125.86
-91.26
-51.24
-12.30
18.02
33.28
30.49
11.13
-19.25
-52.89
-82.07
-101.22
-107.91
-102.76
-88.56
-69.07
-47.92
-27.78
-9.99
5.53
19.98
35.00
51.91
71.05
91.33
110.39
125.48
134.77
138.54
139.42
141.20
146.68
155.75
164.84
168.49
162.13
144.64
119.11
91.45
67.52
50.71
41.00
36.08
33.28
31.20
30.06
30.92
34.53
40.55
47.91
55.39
62.30
68.59
74.49
79.85
83.69
84.49
81.11
73.98
65.52
59.49
59.05
64.65
73.05
78.26
74.26
57.98
30.98
-1.25
-32.06
-56.73
-74.35
-87.29
-99.15
-112.32
-126.75
-140.41
-150.79
-156.12
-155.58
-148.87
-135.38
-114.14
-84.53
-47.60
-6.86
32.05
62.97
81.35
86.01
79.67
67.90
56.98
51.67
53.77
62.22
74.27
87.05
98.44
107.21
112.41
113.35
110.10
104.59
100.75
103.33
115.39
135.98
159.68
178.43
185.03
176.16
153.41
121.70
86.66
52.24
19.87
-10.80
-40.59
-69.84
-98.02
-124.06
-146.57
-164.14
-175.49
-179.90
-177.53
-169.62
-157.97
-144.45
-130.36
-116.35
-102.66
-89.41
-76.78
-64.87
-53.55
-42.33
-30.65
-18.22
-5.24
7.61
19.38
29.19
36.40
40.62
41.67
39.62
34.84
28.10
20.51
13.15
6.80
1.78
-1.97
-4.43
-5.38
-4.39
-1.20
