1587241555.00
64.000000
-0.00
-0.00
-0.00
-0.00
-0.00
-0.00
-0.00
-0.00
-0.00
-0.00
0.00
0.01
0.01
-0.00
-0.03
-0.05
-0.05
0.00
0.13
0.36
0.66
1.01
1.37
1.72
2.06
2.40
2.79
3.24
3.80
4.42
5.06
5.66
6.20
6.68
7.15
7.68
8.31
9.14
10.09
11.04
11.88
12.56
13.14
13.76
14.65
15.96
17.91
20.32
22.90
25.38
27.58
29.57
31.68
34.32
37.81
42.54
48.15
54.10
59.83
64.97
69.58
74.14
79.34
85.71
93.76
103.00
112.62
121.73
129.77
136.75
143.30
150.75
157.77
166.64
177.95
191.79
206.97
220.57
228.25
225.36
208.53
176.87
132.76
80.05
23.07
-34.94
-92.44
-149.16
-205.23
-260.37
-313.74
-363.87
-409.83
-450.91
-486.50
-515.74
-537.23
-549.22
-549.96
-538.37
-514.21
-478.67
-433.88
-382.45
-327.02
-269.84
-212.63
-156.66
-102.95
-52.37
-5.90
35.58
71.43
101.35
125.50
144.38
158.69
169.15
176.37
180.75
182.57
182.07
179.51
175.23
169.65
163.18
156.15
148.81
141.30
133.69
126.02
118.33
110.69
103.16
95.80
88.68
81.83
75.25
68.95
62.95
57.25
51.86
46.78
42.03
37.59
33.45
29.61
26.07
22.81
19.83
17.11
14.67
12.48
10.54
8.83
7.35
6.07
4.97
4.05
3.27
2.62
2.09
1.65
1.30
1.02
0.79
0.61
0.47
0.36
0.28
0.24
0.22
0.24
0.25
0.23
0.16
0.03
-0.12
-0.26
-0.33
-0.32
-0.23
-0.12
-0.05
-0.07
-0.17
-0.33
-0.46
-0.50
-0.42
-0.24
-0.06
0.02
-0.07
-0.35
-0.73
-1.05
-1.16
-0.96
-0.54
-0.11
0.07
-0.21
-0.97
-1.97
-2.82
-3.11
-2.67
-1.65
-0.55
0.00
-0.44
-1.91
-3.94
-5.72
-6.47
-5.84
-4.11
-2.17
-1.10
-1.67
-3.92
-7.06
-9.83
-11.10
-10.41
-8.17
-5.52
-3.67
-3.58
-5.69
-10.13
-16.78
-24.80
-32.20
-35.84
-32.39
-20.16
-0.44
22.21
41.67
52.88
54.19
47.80
38.30
29.95
24.75
21.97
19.59
16.11
11.69
7.81
6.07
6.84
9.11
11.17
11.73
10.63
8.99
8.49
10.40
14.84
20.75
26.34
29.72
29.62
25.72
18.51
9.03
-1.56
-12.29
-22.48
-31.70
-39.64
-46.07
-50.80
-53.71
-54.91
-54.96
-54.80
-55.60
-58.44
-63.81
-71.46
-80.34
-88.96
-95.77
-99.58
-99.95
-97.21
-92.44
-87.08
-82.70
-80.54
-81.27
-84.74
-90.17
-96.29
-101.81
-105.76
-107.63
-107.28
-104.98
-101.04
-95.42
-87.53
-76.32
-60.59
-39.56
-13.22
17.39
50.46
83.82
115.55
144.28
169.38
190.74
208.56
223.07
234.33
242.19
246.37
246.41
241.74
231.78
216.05
194.42
167.50
136.68
104.14
72.48
44.14
20.83
3.11
-9.73
-19.32
-27.63
-36.27
-45.96
-56.30
-65.93
-73.00
-75.96
-74.13
-68.03
-59.20
-49.68
-41.31
-35.24
-31.70
-30.16
-29.63
-28.88
-26.58
-21.48
-12.62
0.39
17.15
36.52
56.91
76.89
95.58
112.81
128.79
143.59
156.57
166.18
170.32
167.01
155.19
135.29
109.27
80.02
50.47
22.77
-2.11
-24.12
-43.56
-60.43
-74.25
-84.36
-90.46
-93.02
-93.29
-92.80
-92.81
-93.72
-95.08
-95.88
-95.13
-92.35
-87.70
-81.89
-75.77
-70.06
-65.08
-60.93
-57.65
-55.36
-54.22
-54.19
-54.78
-55.02
-53.74
-50.01
-43.46
-34.45
-23.72
-11.98
0.34
13.19
26.54
40.16
53.46
65.71
76.39
85.47
93.49
101.29
109.51
118.13
126.33
132.63
135.52
133.96
127.94
118.42
106.98
95.21
84.19
74.30
65.23
56.47
47.59
38.53
29.53
20.87
12.66
4.67
-3.66
-13.10
-24.21
-37.25
-51.93
-67.55
-83.07
-97.34
-109.18
-117.59
-121.76
-121.19
-115.81
-106.01
-92.65
-76.92
-60.15
-43.51
-27.82
-13.53
-0.70
10.74
20.82
29.48
36.48
41.58
44.66
45.77
45.09
42.91
39.39
34.71
29.02
22.58
15.75
8.97
2.53
-3.56
-9.49
-15.71
-22.53
-30.06
-38.08
-46.06
-53.41
-59.53
-64.00
-66.54
-67.11
-65.85
-63.18
-59.77
-56.34
-53.43
-51.20
-49.26
-46.84
-43.10
-37.35
-29.40
-19.45
-8.02
4.25
16.72
28.79
39.96
49.77
57.89
64.08
68.21
70.21
70.07
67.83
63.79
58.47
52.53
46.61
41.09
36.05
31.39
26.92
22.57
18.46
14.74
11.50
8.72
6.28
3.97
1.64
-0.91
-3.82
-7.20
-11.05
-15.21
-19.39
-23.28
-26.71
-29.72
-32.57
-35.67
-39.39
-44.01
-49.66
-56.17
-63.10
-69.64
-74.85
-77.80
-77.87
-74.99
-69.58
-62.38
-54.23
-45.86
-37.74
-30.13
-23.13
-16.76
-10.95
-5.61
-0.70
3.75
7.57
10.49
12.28
12.89
12.52
11.59
10.58
9.91
9.82
10.34
11.52
13.38
15.86
18.78
21.70
24.05
25.35
25.37
24.23
22.20
19.55
16.34
12.56
8.14
3.19
-2.04
-7.28
-12.54
-18.06
-24.18
-30.98
-38.07
-44.65
-49.59
-51.87
-50.85
-46.48
-39.30
-30.29
-20.59
-11.26
-3.06
3.59
8.61
12.12
14.37
15.57
15.91
15.49
14.43
12.83
10.82
8.49
5.84
2.85
-0.49
-4.08
-7.75
-11.21
-14.28
-16.91
-19.29
-21.84
-24.96
-28.77
-32.84
-36.22
-37.66
-36.18
-31.55
-24.65
-17.35
-11.97
-10.65
-14.73
-24.38
-38.55
-55.15
-71.39
-84.22
-90.92
-89.72
-80.27
-63.69
-42.23
-18.63
4.64
25.72
43.45
57.21
66.70
71.83
72.81
70.17
64.77
57.65
49.72
41.57
33.48
25.42
17.36
9.40
1.87
-4.69
-9.61
-12.31
-12.46
-10.08
-5.57
0.36
6.87
13.22
18.96
23.98
28.42
32.44
36.03
38.91
40.60
40.57
38.48
34.30
28.31
20.87
12.35
2.80
-7.92
-19.92
-32.96
-46.19
-58.16
-67.15
-71.77
-71.44
-66.64
-58.64
-49.06
-39.20
-29.77
-20.90
-12.42
-4.17
3.80
11.19
17.72
23.22
27.73
31.50
34.75
37.57
39.87
41.54
42.60
43.31
44.02
44.97
46.08
46.93
46.90
45.57
42.92
39.32
35.29
31.19
26.99
22.35
16.82
10.18
2.43
-6.11
-15.11
-24.26
-33.44
-42.61
-51.77
-60.91
-70.04
-79.24
-88.59
-98.10
-107.43
-115.86
-122.31
-125.60
-124.82
-119.59
-110.14
-97.13
-81.38
-63.63
-44.44
-24.34
-3.96
15.84
34.04
49.83
62.77
73.02
81.14
87.84
93.65
98.74
102.99
106.24
108.54
110.18
111.63
113.23
114.97
116.45
117.03
116.06
113.14
108.26
101.77
94.26
86.25
78.09
69.88
61.48
52.80
43.78
34.51
25.05
15.38
5.43
-4.85
-15.38
-25.93
-36.31
-46.50
-56.70
-67.08
-77.55
-87.41
-95.48
-100.45
-101.41
-98.15
-91.32
-82.05
-71.56
-60.80
-50.31
-40.31
-31.04
-22.83
-16.19
-11.56
-9.04
-8.20
-8.18
-7.93
-6.72
-4.34
-1.15
2.23
5.25
7.70
9.76
11.68
13.62
15.57
17.48
19.46
21.83
25.02
29.24
34.34
39.81
44.99
49.41
52.84
55.17
56.31
56.09
54.32
51.01
46.41
40.94
34.92
28.43
21.43
13.96
6.54
0.11
-4.13
-5.26
-2.93
2.48
10.06
18.70
27.29
34.87
40.58
43.74
43.93
41.10
35.67
28.37
20.02
11.29
2.50
-6.31
-15.21
-24.18
-32.98
-41.20
-48.37
-54.16
-58.47
-61.48
-63.54
-65.00
-66.04
-66.63
-66.68
-66.14
-65.21
-64.32
-63.88
-64.05
-64.63
-65.16
-65.18
-64.49
-63.24
-61.76
-60.37
-59.21
-58.16
-56.94
-55.10
-52.02
-46.94
-38.95
-27.35
-12.03
6.27
25.95
44.89
61.08
73.22
81.06
85.36
87.47
88.73
90.03
91.57
92.99
93.81
93.73
92.86
91.58
90.27
89.10
87.92
86.42
84.35
81.63
78.29
74.35
69.70
64.10
57.36
49.46
40.61
31.14
21.27
10.95
0.01
-11.73
-24.27
-37.28
-50.20
-62.50
-73.84
-84.22
-93.95
-103.44
-112.96
-122.41
-131.26
-138.60
-143.37
-144.74
-142.43
-136.67
-128.22
-118.00
-106.93
-95.74
-84.98
-75.06
-66.24
-58.57
-51.93
-46.02
-40.54
-35.23
-30.02
-24.93
-20.06
-15.50
-11.27
-7.36
-3.71
-0.31
2.77
5.41
7.45
8.76
9.32
9.21
8.50
7.19
5.23
2.63
-0.44
-3.55
-6.21
-8.00
-8.80
-8.74
-7.99
-6.60
-4.49
-1.59
1.89
5.34
8.01
9.36
9.42
8.94
9.07
10.89
15.01
21.29
29.10
37.56
45.92
53.73
60.85
67.39
73.56
79.50
85.20
90.42
94.76
97.69
98.75
97.72
94.73
90.23
84.81
79.04
73.28
67.64
62.08
56.54
51.03
45.67
40.63
35.91
31.32
26.40
20.62
13.54
5.07
-4.53
-14.70
-24.82
-34.48
-43.51
-51.98
-60.08
-68.00
-75.88
-83.78
-91.66
-99.19
-105.74
-110.36
-111.94
-109.58
-102.88
-92.08
-78.04
-61.98
-45.18
-28.65
-13.02
1.33
14.23
25.53
35.05
42.66
48.42
52.61
55.77
58.52
61.27
64.12
66.86
69.16
70.85
72.01
73.00
74.26
76.11
78.61
81.50
84.30
86.57
88.06
88.89
89.41
90.07
91.09
92.37
93.51
94.00
93.54
92.05
89.72
86.75
83.26
79.32
75.03
70.65
66.49
62.61
58.46
52.93
44.70
32.92
17.71
0.13
-18.32
-36.27
-53.02
-68.61
-83.42
-97.78
-111.69
-124.89
-137.03
-147.77
-156.81
-163.76
-168.10
-169.34
-167.28
-162.14
-154.52
-145.22
-134.95
-124.26
-113.49
-102.92
-92.73
-83.13
-74.35
-66.70
-60.67
-56.90
-56.17
-59.19
-66.28
-77.14
-90.82
-105.87
-120.76
-134.20
-145.37
-153.77
-158.95
-160.39
-157.37
-149.28
-135.99
-118.17
-97.33
-75.38
-54.20
-35.13
-18.86
-5.39
5.71
15.21
23.97
32.81
42.44
53.20
65.02
77.44
89.78
101.28
111.34
119.60
125.90
130.22
132.62
133.23
132.21
129.68
125.64
119.90
112.17
102.23
90.06
76.04
60.87
45.54
30.93
17.65
5.87
-4.63
-14.35
-23.79
-33.28
-42.86
-52.23
-60.86
-67.91
-72.51
-73.69
-70.78
-63.48
-52.00
-37.09
-19.91
-1.78
16.16
33.15
48.86
63.26
76.48
88.65
99.76
109.56
117.82
124.34
129.10
132.37
134.22
134.98
135.04
134.72
134.22
133.47
132.27
130.26
127.35
122.94
117.18
110.68
103.93
97.05
89.72
81.46
71.95
61.49
49.43
35.72
20.11
1.99
-19.11
-42.61
-66.21
-86.11
-97.93
-100.64
-94.61
-82.45
-68.60
-58.17
-55.49
-63.30
-85.30
-118.20
-162.64
-215.69
-270.95
-319.76
-353.78
-367.82
-361.59
-339.52
-302.65
-260.24
-222.78
-196.44
-180.42
-169.63
-159.18
-147.00
-132.35
-113.84
-93.64
-71.80
-47.74
-21.28
6.93
35.50
63.34
90.37
117.67
145.55
175.16
206.93
239.26
268.67
290.61
301.50
300.28
288.79
269.97
247.92
225.88
205.32
186.57
168.98
151.85
135.08
119.39
105.58
94.66
87.19
83.02
82.49
85.09
89.53
94.27
98.31
101.43
104.02
106.45
108.77
112.59
118.34
124.87
129.90
131.45
128.74
122.23
113.33
104.18
99.71
103.24
114.63
130.23
144.82
153.59
153.58
144.24
111.85
54.63
-16.84
-85.49
-139.05
-174.63
-195.42
-206.11
-210.49
-211.06
-206.84
-197.56
-184.65
-170.94
-158.83
-149.17
-141.67
-135.66
-130.70
-124.92
-117.81
-110.27
-103.56
-97.51
-90.05
-78.68
-62.43
-42.93
-22.65
-5.04
6.94
12.60
12.58
9.09
4.39
-0.24
-4.61
-8.32
-10.99
-12.25
-12.02
-10.59
-8.40
-6.07
-4.23
-3.40
-3.35
-3.48
-3.16
-2.00
-0.08
2.22
4.27
5.51
5.66
4.93
3.85
2.98
2.61
2.58
2.49
1.70
0.17
-2.24
-5.57
-9.71
-14.59
-20.12
-26.22
-32.78
-39.59
-46.22
-52.06
-56.32
-58.14
-57.00
-52.90
-46.49
-38.78
-30.88
-23.69
-17.68
-12.90
-9.09
-5.96
-3.35
-1.33
-0.11
0.19
-0.36
-1.39
-2.32
-2.53
-1.66
0.25
2.89
5.83
8.80
11.73
14.61
17.40
19.86
21.67
22.60
22.72
22.33
21.95
22.03
22.81
24.26
26.14
28.12
29.90
31.23
32.03
32.31
32.20
31.84
31.26
30.34
28.76
26.11
22.07
16.59
10.00
3.00
-3.49
-8.57
-11.57
-12.23
-10.76
-7.71
-3.83
0.14
3.63
6.37
8.36
9.72
10.56
10.87
10.53
9.38
7.28
4.31
0.79
-2.79
-5.87
-8.06
-9.21
-9.49
-9.24
-8.84
-8.57
-8.58
-8.89
-9.48
-10.25
-11.16
-12.13
-13.12
-14.13
-15.19
-16.41
-17.91
-19.83
-22.18
-24.84
-27.45
-29.56
-30.82
-31.15
-30.90
-30.69
-31.18
-32.78
-35.46
-38.79
-42.08
-44.67
-46.06
-45.90
-44.07
-40.53
-35.42
-29.05
-21.85
-14.34
-6.93
0.08
6.51
12.15
16.94
20.80
23.86
26.41
29.00
32.46
37.80
45.96
57.46
72.12
88.79
105.52
119.92
129.90
134.32
133.33
128.01
119.75
109.69
98.22
85.17
69.95
52.11
31.83
9.94
-12.48
-34.29
-54.44
-72.03
-86.46
-97.78
-106.69
-114.09
-120.77
-127.05
-132.30
-134.55
-130.93
-118.72
-97.20
-68.49
-37.29
-9.52
9.29
15.92
10.59
-3.60
-19.40
-29.46
-30.07
-21.25
-4.95
16.18
39.17
61.18
79.19
90.93
94.64
89.49
76.39
58.02
38.13
20.91
9.92
7.21
14.18
30.74
55.20
84.37
113.42
136.27
146.94
141.69
119.64
84.44
42.58
1.00
-35.14
-63.96
-86.69
-106.78
-121.30
-129.55
-130.92
-125.12
-112.50
-94.35
-73.00
-51.71
-34.06
-23.13
-21.47
-28.93
-42.61
-57.75
-69.30
-73.74
-70.09
-59.57
-44.25
-26.26
-6.00
17.32
44.16
73.50
102.47
127.31
144.69
152.79
151.35
142.05
128.02
113.25
101.78
96.61
98.54
105.55
113.27
116.52
111.59
97.77
77.24
53.74
30.76
10.19
-7.85
-24.21
-39.65
-54.14
-67.04
-77.98
-87.48
-96.88
-107.70
-120.62
-134.79
-147.84
-156.70
-158.99
-154.53
-145.18
-133.99
-123.77
-116.27
-111.78
-109.18
-106.56
-102.01
-95.03
-86.06
-75.85
-65.21
-55.30
-47.50
-42.47
-39.18
-34.90
-27.27
-14.90
2.15
21.97
40.66
53.56
57.69
53.39
44.00
32.72
21.44
10.60
-0.66
-14.59
-33.57
-58.05
-85.80
-103.37
-100.55
-78.04
-46.64
-17.38
5.26
22.91
40.08
60.23
82.77
104.33
119.42
124.74
121.28
112.30
100.67
87.87
73.94
56.75
34.91
9.37
-15.33
-30.79
-30.35
-15.82
3.61
18.64
25.27
24.59
20.06
15.17
11.73
9.17
5.80
1.05
-3.95
-7.36
-8.12
-6.47
-3.42
-0.09
2.45
3.56
3.71
4.53
8.19
15.56
25.87
36.80
45.12
47.48
41.91
28.78
10.88
-7.78
-23.50
-34.05
-39.05
-39.45
-36.90
-32.66
-27.49
-21.66
-15.40
-9.21
-3.64
0.98
4.88
7.30
8.53
9.08
9.25
8.90
7.60
4.92
0.71
-4.78
-11.09
-17.63
-24.15
-30.69
-37.26
-43.54
-48.74
-51.78
-51.72
-48.25
-41.72
-33.33
-24.68
-17.22
-11.79
-8.30
-6.01
-4.02
-1.84
0.40
1.84
1.51
-1.13
-5.75
-11.30
-16.38
-19.85
-21.18
-20.29
-17.40
-12.70
-6.25
1.95
11.65
22.24
32.80
42.36
50.17
55.93
59.75
62.02
63.16
63.42
62.82
61.22
58.50
54.67
50.00
44.87
39.72
34.93
30.74
27.22
24.30
21.78
19.37
16.77
13.72
10.11
6.00
1.57
-2.95
-7.32
-11.32
-14.80
-17.69
-20.02
-21.99
-24.00
-26.55
-30.10
-34.86
-40.64
-46.79
-52.34
-56.33
-58.07
-57.35
-54.47
-50.10
-45.03
-39.87
-34.90
-30.06
-25.04
-19.43
-12.98
-5.63
2.31
10.29
17.64
23.79
28.45
31.68
33.77
35.16
36.15
36.87
37.38
37.71
38.00
38.42
39.08
39.91
40.59
40.66
39.80
37.86
35.00
31.53
27.78
23.91
19.83
15.27
9.91
3.54
-3.76
-11.51
-18.90
-24.98
-28.96
-30.46
-29.65
-27.11
-23.56
-19.61
-15.55
-11.37
-6.92
-2.11
2.99
8.06
12.72
16.59
19.41
21.14
21.91
21.98
21.64
21.14
20.64
20.22
19.90
19.63
19.28
18.69
17.71
16.30
14.48
12.37
10.07
7.57
4.81
1.71
-1.75
-5.50
-9.34
-13.05
-16.46
-19.54
-22.30
-24.82
-27.18
-29.54
-32.05
-34.82
-37.80
-40.66
-42.81
-43.46
-41.90
-37.74
-31.10
-22.63
-13.24
-3.90
4.65
12.07
18.27
23.40
27.66
31.25
34.33
37.01
39.32
41.18
42.43
42.82
42.14
40.37
37.71
34.64
31.73
29.45
28.03
27.41
27.29
27.28
27.06
26.49
25.55
24.27
22.68
20.72
18.26
15.19
11.48
7.26
2.79
-1.63
-5.74
-9.45
-12.85
-16.14
-19.55
-23.25
-27.32
-31.75
-36.44
-41.17
-45.65
-49.47
-52.18
-53.38
-52.86
-50.60
-46.80
-41.81
-36.02
-29.91
-23.92
-18.49
-14.02
-10.72
-8.66
-7.72
-7.65
-8.19
-9.16
-10.53
-12.37
-14.81
-17.87
-21.38
-24.95
-28.12
-30.50
-31.90
-32.38
-32.18
-31.63
-31.15
-31.20
-32.18
-34.23
-36.98
-39.51
-40.57
-39.07
-34.61
-27.75
-19.68
-11.76
-4.88
0.77
5.55
9.90
13.97
17.44
19.75
20.35
18.97
15.68
10.75
4.60
-2.27
-9.25
-15.59
-20.47
-23.19
-23.38
-21.08
-16.81
-11.38
-5.61
-0.14
4.70
8.84
12.37
15.39
17.92
19.99
21.56
22.60
23.12
23.14
22.78
22.24
21.84
22.01
23.18
25.66
29.55
34.75
40.94
47.68
54.40
60.48
65.31
68.37
69.39
68.40
65.75
61.94
57.44
52.50
47.15
41.22
34.62
27.48
20.26
13.70
8.50
5.13
3.56
3.15
2.91
1.70
-1.41
-6.83
-14.40
-23.45
-32.92
-41.64
-48.56
-52.88
-54.28
-52.87
-49.13
-43.69
-37.18
-30.08
-22.72
-15.40
-8.43
-2.09
3.38
7.89
11.46
14.20
16.13
17.17
17.18
16.11
14.14
11.71
9.44
7.87
7.30
7.69
8.68
9.81
10.71
11.27
11.66
12.25
13.48
15.73
19.23
24.07
30.11
37.06
44.44
51.66
58.08
63.23
66.94
69.44
71.26
72.95
74.88
76.96
78.63
79.11
77.60
73.61
67.07
58.29
47.88
36.63
25.44
15.16
6.48
-0.17
-4.75
-7.48
-8.69
-8.61
-7.31
-4.91
-1.71
1.64
4.23
5.25
4.35
1.86
-1.38
-4.39
-6.59
-8.03
-9.40
-11.56
-15.06
-19.60
-24.05
-26.86
-26.66
-23.03
-16.72
-9.31
-2.57
2.27
5.05
6.58
8.11
11.03
16.29
24.11
33.70
42.83
47.79
43.85
26.58
-6.18
-52.58
-106.53
-159.20
-202.01
-229.54
-240.75
-238.06
-224.87
-203.23
-173.16
-133.93
-86.19
-33.43
18.36
62.76
95.26
114.81
123.56
125.26
123.41
120.07
115.99
111.19
105.96
101.13
97.78
96.60
97.26
98.20
97.22
92.31
82.72
69.36
54.59
41.23
31.43
25.83
23.55
22.59
20.81
16.49
8.62
-3.25
-19.27
-39.30
-62.72
-88.04
-112.88
-134.31
-149.53
-156.71
-155.44
-146.81
-132.93
-116.43
-99.80
-85.09
-73.70
-66.28
-62.73
-62.23
-63.43
-64.89
-65.54
-64.91
-63.13
-60.67
-57.93
-54.94
-51.41
-46.83
-40.85
-33.43
-24.91
-15.79
-6.53
2.55
11.36
19.83
27.71
34.55
39.80
43.04
44.31
44.14
43.48
43.30
44.24
46.36
49.23
52.16
54.53
55.94
56.21
55.22
52.83
48.86
43.32
36.47
28.88
21.28
14.32
8.37
3.46
-0.66
-4.29
-7.64
-10.79
-13.68
-16.24
-18.40
-20.11
-21.41
-22.34
-23.06
-23.81
-24.82
-26.19
-27.76
-29.13
-29.68
-28.89
-26.45
-22.40
-17.08
-10.87
-4.11
3.05
10.59
18.50
26.61
34.54
41.74
47.71
52.19
55.36
57.76
60.06
62.76
65.94
69.25
72.11
74.02
74.75
74.35
73.06
71.03
68.27
64.62
60.03
54.63
48.76
42.91
37.44
32.47
27.85
23.29
18.51
13.45
8.15
2.74
-2.80
-8.68
-15.26
-22.89
-31.69
-41.43
-51.52
-61.19
-69.64
-76.20
-80.48
-82.27
-81.49
-78.21
-72.71
-65.48
-57.30
-49.04
-41.43
-34.90
-29.35
-24.37
-19.43
-14.17
-8.56
-2.90
2.41
7.02
10.75
13.58
15.58
16.86
17.53
17.67
17.34
16.58
15.46
14.09
12.63
11.20
9.79
8.30
6.52
4.33
1.82
-0.65
-2.51
-3.19
-2.37
-0.15
2.92
5.94
7.92
8.02
5.77
1.13
-5.47
-13.23
-21.09
-27.97
-32.97
-35.55
-35.64
-33.57
-29.98
-25.60
-21.11
-17.03
-13.68
-11.18
-9.47
-8.29
-7.31
-6.29
-5.20
-4.21
-3.67
-3.76
-4.42
-5.33
-6.06
-6.34
-6.08
-5.23
-3.55
-0.46
4.81
12.77
23.19
34.84
45.80
54.03
58.10
57.64
53.34
46.61
39.06
32.16
26.98
24.20
24.02
26.06
29.38
32.64
34.44
33.76
30.28
24.38
16.89
8.71
0.56
-7.16
-14.21
-20.44
-25.65
-29.68
-32.34
-33.56
-33.23
-31.29
-27.75
-22.80
-16.91
-10.86
-5.53
-1.64
0.46
0.88
0.09
-1.32
-2.87
-4.30
-5.50
-6.44
-7.03
-7.18
-6.79
-5.88
-4.56
-3.02
-1.44
0.05
1.46
2.83
4.22
5.62
6.92
7.92
8.36
8.07
7.00
5.25
3.04
0.57
-2.00
-4.68
-7.50
-10.46
-13.38
-15.86
-17.43
-17.64
-16.28
-13.37
-9.20
-4.14
1.44
7.24
12.99
18.43
23.31
27.42
30.63
32.91
34.34
35.02
35.04
34.48
33.43
31.97
30.20
28.19
25.95
23.50
20.89
18.20
15.56
13.05
10.66
8.33
5.96
3.52
1.01
-1.48
-3.91
-6.26
-8.58
-10.95
-13.41
-15.98
-18.61
-21.24
-23.83
-26.40
-29.06
-31.90
-34.98
-38.14
-40.98
-42.94
-43.43
-42.07
-38.83
-34.04
-28.26
-22.05
-15.86
-9.93
-4.34
0.89
5.69
10.01
13.72
16.74
19.01
20.50
21.17
21.03
20.13
18.62
16.74
14.77
12.93
11.35
10.02
8.80
7.55
6.10
4.33
2.17
-0.35
-3.17
-6.13
-9.03
-11.70
-14.07
-16.21
-18.30
-20.55
-23.07
-25.79
-28.53
-31.03
-33.14
-34.79
-36.03
-37.03
-38.02
-39.26
-40.87
-42.78
-44.57
-45.57
-45.04
-42.40
-37.54
-30.85
-23.04
-14.86
-6.91
0.56
7.51
13.94
19.84
25.05
29.46
32.97
35.57
37.33
38.34
38.66
38.36
37.53
36.30
34.85
33.34
31.90
30.63
29.52
28.46
27.30
25.91
24.21
22.25
20.20
18.28
16.64
15.29
14.11
12.87
11.39
9.63
7.70
5.84
4.30
3.24
2.65
2.35
2.03
1.44
0.40
-1.14
-3.12
-5.41
-7.89
-10.34
-12.49
-14.02
-14.67
-14.33
-13.09
-11.16
-8.72
-5.77
-2.19
2.03
6.61
10.88
13.97
15.16
14.12
11.16
6.96
2.34
-2.09
-6.12
-9.88
-13.70
-17.90
-22.67
-28.01
-33.70
-39.35
-44.39
-48.21
-50.28
-50.40
-48.77
-46.01
-42.94
-40.31
-38.58
-37.74
-37.39
-36.89
-35.65
-33.28
-29.71
-25.12
-19.94
-14.63
-9.70
-5.51
-2.28
-0.09
1.07
1.25
0.54
-0.87
-2.62
-4.16
-4.81
-3.94
-1.34
2.66
7.13
10.93
13.21
13.86
13.61
13.73
15.41
19.20
24.82
31.33
37.56
42.54
45.73
46.93
46.24
43.97
40.69
37.24
34.59
33.46
34.00
35.59
37.08
37.23
35.31
31.38
26.39
21.72
18.65
17.84
19.15
21.73
24.42
26.22
26.59
25.58
23.66
21.46
19.48
17.96
16.87
15.97
14.87
13.12
10.24
5.89
0.10
-6.59
-13.07
-17.94
-19.93
-18.35
-13.37
-6.00
2.36
10.33
17.00
21.93
25.16
26.97
27.59
27.09
25.43
22.69
19.21
15.57
12.31
9.80
8.02
6.62
5.04
2.88
0.10
-2.92
-5.63
-7.83
-9.68
-11.57
-13.98
-17.26
-21.36
-25.78
-29.81
-32.80
-35.01
-36.92
-38.80
-40.79
-42.94
-45.20
-47.23
-48.45
-48.14
-46.96
-45.46
-44.01
-43.11
-43.75
-47.12
-53.85
-63.47
-74.29
-85.66
-95.87
-102.45
-103.66
-100.04
-94.76
-92.12
-95.86
-107.40
-127.48
-153.02
-177.81
-195.20
-201.08
-195.22
-180.32
-161.07
-127.34
-78.85
-24.46
23.68
58.84
81.53
95.81
105.98
114.51
122.22
126.45
125.08
117.64
104.71
87.27
66.13
44.70
27.74
20.16
23.40
36.51
56.57
78.80
97.83
106.90
103.65
90.16
71.46
52.19
34.76
21.11
12.35
8.74
9.30
12.66
16.99
20.76
22.52
21.95
20.11
18.47
18.66
21.23
25.66
30.41
33.87
34.91
33.33
30.01
26.42
24.86
27.15
34.07
44.85
57.52
69.20
76.62
77.07
65.87
43.24
15.43
-9.05
-25.11
-32.57
-34.15
-32.89
-30.65
-27.97
-24.11
-18.85
-13.25
-9.11
-7.64
-8.70
-11.03
-12.97
-13.27
-11.18
-7.16
-2.96
-0.60
-1.38
-5.48
-12.16
-20.00
-27.14
-31.74
-32.04
-27.70
-19.92
-10.98
-3.45
0.87
1.69
0.55
0.12
2.78
9.00
17.20
24.49
28.17
26.93
21.32
13.29
5.26
-0.99
-4.89
-6.69
-7.04
-6.44
-5.20
-3.59
-2.06
-1.31
-1.45
-2.92
-5.72
-9.47
-13.60
-17.54
-20.77
-22.95
-23.92
-23.82
-23.31
-23.33
-25.13
-30.11
-39.61
-54.61
-75.29
-100.59
-127.83
-153.00
-171.49
-179.43
-174.73
-157.59
-130.16
-95.74
-57.97
-20.21
14.54
43.96
66.49
81.53
89.28
90.36
85.44
74.93
59.28
39.46
17.50
-3.64
-20.70
-31.10
-33.61
-28.66
-17.94
-3.89
10.92
24.21
34.33
40.38
42.20
40.19
35.07
27.56
18.37
8.16
-2.40
-12.65
-22.12
-30.64
-38.37
-45.60
-52.50
-58.91
-64.40
-68.50
-70.88
-71.42
-70.04
-66.57
-60.63
-51.75
-39.82
-25.28
-9.13
7.43
23.29
37.71
50.37
61.36
71.02
79.67
87.42
94.20
99.86
104.21
107.13
108.54
108.45
107.26
105.28
102.68
99.52
96.00
92.34
88.74
85.26
81.81
78.92
76.66
74.64
72.38
69.76
67.02
64.44
62.01
59.54
58.11
58.08
58.88
59.82
60.81
62.26
64.50
67.27
69.84
73.59
78.76
84.20
88.74
92.66
97.67
105.98
119.02
136.77
160.15
186.55
209.79
223.17
222.77
208.75
184.52
155.10
107.11
41.45
-28.39
-86.79
-126.52
-149.14
-159.10
-160.46
-156.34
-149.21
-138.29
-123.89
-108.77
-95.63
-86.16
-80.09
-76.16
-73.32
-71.13
-68.52
-65.01
-62.88
-63.84
-69.05
-77.47
-86.75
-94.71
-99.99
-101.81
-100.40
-98.55
-97.70
-98.96
-101.48
-103.17
-102.63
-100.16
-99.11
-96.75
-95.15
-85.80
-65.61
-36.87
-5.03
24.92
50.52
66.34
72.74
68.04
52.04
23.50
-19.02
-71.45
-129.38
-175.12
-192.09
-172.03
-122.21
-57.09
7.24
58.94
92.48
107.66
107.52
94.43
73.31
48.06
23.97
4.82
-7.27
-11.70
-9.61
-4.91
-2.93
-1.06
1.22
4.69
9.46
16.05
25.94
40.42
56.09
67.57
71.70
67.10
55.04
38.10
19.54
2.00
-14.18
-35.41
-68.87
-116.97
-177.48
-245.04
-312.49
-371.63
-414.64
-409.71
-345.15
-243.05
-141.62
-66.18
-21.17
1.60
12.83
20.02
25.79
26.42
18.71
5.29
-7.08
-12.82
-9.79
0.23
13.30
24.87
30.16
26.61
16.34
4.29
-6.22
-13.93
-19.64
-24.79
-37.62
-60.04
-89.53
-120.03
-141.73
-152.54
-152.80
-143.98
-127.07
-105.81
-80.98
-53.18
-22.50
11.16
47.08
84.75
122.94
159.18
189.68
212.66
226.07
229.06
223.08
211.82
200.44
192.48
188.22
185.01
183.21
182.72
182.55
181.48
178.96
175.62
172.00
168.01
163.24
162.66
169.12
180.80
192.40
199.19
199.43
193.99
185.18
176.05
176.19
192.07
223.13
263.02
304.56
342.62
374.00
396.94
371.89
283.72
152.19
16.67
-95.42
-178.31
-238.15
-282.39
-314.97
-336.02
-338.21
-318.56
-283.28
-245.20
-215.64
-200.29
-199.00
-207.76
-221.06
-229.30
-226.69
-213.61
-194.76
-174.47
-154.80
-136.03
-119.02
-104.93
-91.17
-75.02
-55.47
-33.64
-11.35
9.43
26.95
40.01
48.72
55.72
63.27
71.61
79.19
84.43
86.92
87.67
88.04
89.24
92.05
95.95
99.27
100.18
97.88
92.74
86.13
78.90
71.81
65.35
59.49
53.75
47.61
41.07
34.32
28.37
23.40
20.50
21.47
27.57
38.52
52.13
65.23
73.58
74.12
63.65
42.17
12.61
-21.13
-56.18
-91.49
-126.92
-163.62
-200.73
-237.67
-270.45
-293.00
-300.19
-291.07
-269.84
-243.70
-222.14
-194.39
-158.59
-120.49
-86.52
-56.92
-28.86
-5.41
13.33
23.26
23.43
12.80
-6.49
-27.69
-42.65
-44.94
-32.60
-3.10
35.67
73.65
100.61
114.09
120.55
129.38
147.11
176.36
217.94
265.44
317.63
371.07
419.77
439.51
413.51
345.23
256.47
180.49
119.12
70.62
30.18
-6.95
-45.07
-86.02
-130.18
-177.10
-225.84
-276.07
-322.09
-358.25
-380.75
-388.55
-381.15
-360.19
-330.03
-298.10
-273.86
-261.09
-258.73
-261.59
-263.19
-258.02
-245.16
-227.24
-209.85
-197.88
-189.28
-176.49
-150.66
-106.90
-46.71
21.84
90.59
150.61
193.82
216.56
219.38
204.62
173.72
127.77
69.61
11.69
-31.84
-50.77
-40.78
-3.49
53.50
118.60
180.50
232.49
280.85
332.60
388.37
442.99
490.83
528.31
554.05
568.90
531.22
429.54
292.32
161.96
60.77
-10.63
-60.30
-96.26
-123.67
-145.02
-154.32
-148.93
-133.89
-118.43
-109.29
-108.53
-114.84
-125.31
-136.82
-142.03
-137.28
-125.26
-111.92
-101.34
-94.44
-90.35
-87.93
-86.51
-82.53
-74.37
-63.82
-54.16
-47.26
-43.09
-40.75
-39.29
-38.64
-36.98
-33.29
-28.07
-22.63
-17.80
-13.86
-10.95
-9.39
-9.61
-11.22
-13.83
-17.29
-21.52
-26.14
-30.65
-34.64
-38.10
-41.40
-45.07
-49.67
-55.39
-61.88
-68.13
-72.74
-74.28
-71.82
-65.20
-55.05
-42.59
-29.27
-16.29
-4.49
5.75
14.37
21.51
27.40
32.37
36.75
40.84
44.76
48.40
51.46
53.62
54.69
54.72
54.03
53.01
52.00
51.17
50.47
49.70
48.65
47.16
45.17
42.70
39.85
36.73
33.44
30.04
26.52
22.85
19.00
14.97
10.74
6.31
1.65
-3.23
-8.23
-13.14
-17.76
-21.98
-25.86
-29.65
-33.72
-38.42
-43.90
-50.09
-56.57
-62.65
-67.40
-69.82
-69.04
-64.62
-56.73
-46.11
-33.90
-21.29
-9.28
1.56
10.97
19.07
26.07
32.14
37.32
41.47
44.39
45.98
46.29
45.60
44.28
42.72
41.15
39.66
38.25
36.91
35.61
34.36
33.18
32.06
31.01
30.00
28.93
27.66
25.95
23.62
20.62
17.05
13.16
9.17
5.23
1.33
-2.60
-6.68
-10.87
-15.07
-19.05
-22.67
-25.86
-28.81
-31.82
-35.30
-39.58
-44.76
-50.59
-56.50
-61.69
-65.22
-66.25
-64.23
-58.99
-50.83
-40.47
-28.88
-17.10
-6.02
3.82
12.19
19.17
24.91
29.52
33.05
35.53
37.03
37.72
37.83
37.56
37.08
36.43
35.65
34.80
33.99
33.40
33.10
33.11
33.26
33.30
32.97
32.10
30.59
28.49
25.94
23.12
20.25
17.48
14.87
12.39
9.92
7.35
4.54
1.44
-1.96
-5.55
-9.17
-12.57
-15.56
-18.08
-20.32
-22.67
-25.59
-29.36
-33.76
-38.07
-41.13
-41.75
-39.12
-33.12
-24.37
-13.96
-3.15
7.00
15.77
22.75
27.81
31.04
32.69
33.16
32.96
32.53
32.16
31.94
31.82
31.73
31.65
31.63
31.74
31.95
32.10
32.01
31.49
30.53
29.23
27.77
26.29
24.84
23.33
21.58
19.40
16.72
13.65
10.42
7.24
4.23
1.26
-1.90
-5.43
-9.33
-13.34
-17.10
-20.29
-22.83
-24.91
-26.96
-29.46
-32.71
-36.72
-41.13
-45.30
-48.38
-49.62
-48.51
-44.99
-39.36
-32.23
-24.22
-15.91
-7.63
0.35
7.83
14.62
20.52
25.35
29.06
31.65
33.26
34.09
34.37
34.27
33.92
33.41
32.76
32.01
31.25
30.56
30.01
29.54
28.96
28.04
26.61
24.67
22.41
20.14
18.09
16.35
14.79
13.14
11.10
8.49
5.30
1.68
-2.10
-5.80
-9.22
-12.26
-14.92
-17.26
-19.41
-21.52
-23.82
-26.48
-29.63
-33.21
-36.96
-40.43
-43.03
-44.22
-43.60
-41.06
-36.76
-31.07
-24.51
-17.59
-10.75
-4.22
1.88
7.56
12.77
17.45
21.45
24.67
27.09
28.83
29.99
30.62
30.69
30.10
28.93
27.38
25.78
24.40
23.30
22.25
20.82
18.60
15.48
11.70
7.74
4.07
1.00
-1.37
-3.14
-4.43
-5.34
-5.96
-6.31
-6.55
-6.90
-7.58
-8.60
-9.83
-11.00
-11.83
-12.09
-11.46
-10.10
-8.45
-7.03
-6.23
-6.35
-7.71
-10.62
-15.21
-20.82
-26.63
-31.59
-34.14
-32.50
-25.50
-13.42
1.93
17.64
31.27
40.44
43.73
41.56
36.27
30.96
28.27
30.00
36.84
49.26
65.73
82.89
96.58
103.29
100.87
88.77
68.89
39.45
5.90
-23.15
-42.45
-52.54
-56.24
-55.44
-51.45
-45.14
-38.27
-32.40
-29.36
-30.03
-33.39
-36.91
-38.26
-38.39
-38.72
-41.74
-49.17
-62.55
-82.40
-107.45
-133.97
-151.79
-154.98
-139.79
-107.03
-62.44
-16.31
19.97
38.54
38.16
24.03
4.20
-13.23
-23.69
-26.80
-25.36
-22.73
-20.76
-19.06
-15.98
-10.69
-3.06
5.77
14.21
21.03
25.79
28.78
30.62
31.68
31.58
29.88
26.37
21.54
16.60
13.16
12.46
14.59
18.15
20.65
19.74
14.49
5.93
-3.40
-10.67
-14.16
-13.86
-11.07
-7.44
-3.93
-0.69
2.38
4.92
5.81
3.77
-1.75
-9.89
-18.65
-25.81
-29.90
-30.77
-29.45
-27.39
-25.65
-24.36
-22.87
-19.59
-13.74
-5.37
4.69
15.06
24.45
32.08
37.91
42.47
46.45
50.20
53.70
56.52
58.21
58.57
57.84
56.50
55.00
53.47
51.64
49.12
45.63
41.28
36.42
31.50
26.65
21.54
15.55
8.04
-1.23
-11.85
-22.80
-32.70
-40.14
-44.13
-44.15
-40.20
-32.74
-22.67
-11.13
0.69
11.56
20.46
26.41
28.80
27.68
23.70
17.86
11.20
4.64
-1.43
-7.02
-12.90
-19.71
-27.34
-34.87
-41.03
-44.81
-45.47
-43.20
-38.68
-33.60
-29.54
-27.19
-26.32
-26.41
-27.06
-27.68
-28.27
-28.71
-29.98
-32.95
-37.85
-44.34
-52.17
-61.53
-72.36
-85.29
-93.35
-91.68
-80.42
-64.16
-47.03
-30.44
-17.38
-5.71
5.08
14.57
21.09
23.60
23.09
21.27
19.98
20.31
23.02
27.52
33.01
37.77
40.21
39.37
34.91
26.97
15.90
2.94
-10.75
-23.63
-34.90
-44.27
-51.84
-58.07
-63.52
-68.83
-74.00
-78.81
-82.34
-83.46
-80.95
-73.84
-61.83
-45.54
-26.24
-5.49
14.83
33.58
50.33
64.91
77.08
86.37
92.27
94.65
93.94
90.68
85.86
80.59
75.59
71.14
67.19
63.66
60.98
59.48
58.33
56.74
54.21
50.15
44.25
36.73
28.42
21.58
18.01
15.93
13.71
10.56
5.57
-1.59
-10.37
-19.43
-24.78
-23.69
-20.49
-18.64
-18.95
-21.84
-26.52
-31.09
-33.18
-27.23
-10.37
9.11
24.95
35.81
41.35
43.01
44.03
48.99
68.25
110.60
171.20
246.34
334.18
427.83
516.75
589.71
605.91
544.76
467.45
401.23
339.96
284.96
235.59
189.87
145.91
103.21
67.75
44.60
25.99
6.85
-12.61
-32.71
-53.29
-73.32
-91.05
-100.75
-98.49
-91.02
-83.38
-76.80
-73.39
-74.71
-81.22
-92.45
-104.91
-115.45
-126.23
-136.94
-144.08
-145.38
-140.25
-130.27
-118.93
-109.22
-103.44
-104.42
-111.77
-122.55
-135.32
-149.82
-166.66
-187.02
-211.66
-240.72
-273.97
-309.15
-341.70
-368.30
-384.19
-384.31
-366.19
-332.08
-287.89
-240.26
-194.00
-151.13
-116.65
-92.45
-77.24
-69.22
-68.19
-74.16
-85.21
-97.54
-107.30
-120.53
-141.48
-169.53
-201.62
-235.68
-270.26
-303.36
-332.87
-357.50
-387.23
-425.27
-463.99
-490.71
-496.73
-480.89
-448.68
-410.06
-311.01
-144.73
49.48
223.91
358.31
453.37
513.75
543.29
547.06
534.33
506.44
469.16
432.02
402.36
380.70
363.66
349.10
336.20
326.71
314.38
296.24
274.55
253.56
235.35
219.89
207.55
197.16
189.14
179.66
166.89
151.58
134.89
115.89
91.47
64.79
34.74
3.14
-28.02
-55.76
-77.84
-93.43
-103.43
-109.54
-112.96
-119.06
-128.53
-138.31
-144.79
-147.24
-147.92
-150.88
-160.14
-177.73
-208.85
-250.45
-291.92
-322.02
-334.83
-329.87
-309.74
-278.40
-206.83
-102.34
-1.79
63.44
88.63
86.89
76.00
70.58
77.99
97.51
117.11
128.27
130.72
128.87
126.84
126.52
127.43
127.37
124.03
112.35
92.99
72.23
56.34
47.57
44.15
42.73
40.14
34.63
23.72
8.61
-6.27
-16.74
-21.39
-21.38
-18.90
-16.18
-14.62
-15.84
-19.37
-22.91
-24.21
-22.44
-18.24
-12.96
-8.22
-5.36
-5.60
-8.93
-14.11
-19.45
-23.55
-25.79
-26.00
-24.80
-23.25
-22.50
-23.33
-25.81
-29.43
-33.35
-36.81
-38.76
-38.76
-37.33
-36.28
-38.61
-47.85
-66.82
-96.25
-133.97
-174.12
-209.37
-233.25
-242.19
-236.37
-218.82
-193.29
-161.70
-128.56
-95.62
-63.02
-30.13
3.75
38.76
74.60
110.63
146.11
180.25
213.19
245.42
277.57
309.80
340.94
368.13
387.23
393.83
384.79
359.78
320.99
272.78
221.33
174.28
139.90
125.15
132.80
158.96
193.50
222.28
232.21
216.12
175.09
116.99
52.70
-8.07
-59.24
-98.64
-127.26
-148.01
-164.82
-181.51
-200.40
-220.91
-238.77
-246.99
-238.57
-210.24
-165.27
-113.75
-69.47
-44.61
-44.48
-65.17
-95.10
-120.03
-128.71
-116.63
-86.52
-45.94
-3.69
32.73
58.28
70.39
68.96
56.68
39.15
23.93
18.17
25.50
44.22
68.20
89.92
103.93
109.28
109.01
107.47
107.17
107.27
104.88
97.86
87.23
77.15
72.54
75.55
83.48
89.52
85.84
67.20
33.43
-10.82
-57.87
-99.31
-127.77
-137.45
-124.75
-89.71
-37.28
22.30
75.34
108.92
115.86
97.35
63.03
26.46
-1.17
-15.18
-17.74
-15.12
-13.78
-17.29
-26.10
-37.58
-49.14
-60.33
-72.50
-86.72
-102.20
-116.12
-124.44
-124.26
-112.58
-88.77
-55.84
-19.80
13.13
38.82
56.25
67.60
75.59
84.96
98.97
117.56
138.22
159.11
179.98
201.17
221.46
219.92
179.38
99.83
0.67
-93.56
-165.26
-207.62
-228.01
-234.27
-232.75
-224.40
-207.64
-181.86
-149.66
-112.22
-74.05
-40.08
-12.61
2.99
5.40
-0.87
-8.44
-12.10
-10.82
-7.44
-5.73
-7.42
-12.38
-16.80
-16.49
-10.12
-0.22
8.91
13.42
12.14
6.80
0.00
-4.79
-5.45
-2.42
1.61
3.41
0.55
-7.79
-19.89
-32.78
-42.15
-43.82
-35.73
-19.16
1.46
20.13
31.56
33.57
27.64
18.34
10.93
9.33
14.40
23.80
33.85
41.49
45.61
46.90
47.00
47.38
48.86
50.77
51.89
51.17
47.96
42.66
36.74
32.47
31.61
34.56
40.16
45.76
49.62
50.63
48.87
45.54
42.50
41.87
45.56
55.14
71.42
93.63
118.71
141.87
158.01
163.33
156.68
139.56
114.68
87.06
61.68
41.47
26.80
16.23
7.80
0.09
-7.34
-14.31
-20.31
-25.18
-29.03
-31.90
-33.49
-33.43
-31.86
-29.08
-25.28
-20.49
-14.99
-9.25
-3.79
1.09
5.42
9.18
12.54
15.47
17.31
16.57
11.61
1.70
-12.27
-28.07
-43.64
-57.22
-67.74
-75.32
-81.42
-88.05
-97.00
-109.44
-125.93
-148.30
-176.45
-207.19
-235.67
-257.79
-271.28
-276.23
-275.27
-273.08
-278.61
-296.55
-323.64
-351.08
-369.61
-372.42
-356.17
-321.06
-269.57
-210.71
-149.39
-83.99
-12.55
60.26
123.91
167.21
183.21
171.38
128.65
58.84
-26.00
-112.35
-191.48
-258.19
-307.92
-336.72
-294.22
-173.02
-20.13
108.27
190.38
233.10
251.99
259.99
263.99
265.96
257.87
236.62
209.00
185.25
170.58
164.46
163.68
164.69
165.06
157.84
140.95
119.79
102.07
91.62
88.21
89.75
93.89
98.59
98.32
90.34
76.87
62.39
49.82
40.37
34.33
31.63
31.83
32.40
31.94
31.42
32.76
36.78
42.67
48.41
51.45
49.74
42.13
29.76
16.03
5.10
-0.19
0.97
7.67
18.01
30.10
42.26
53.67
64.21
74.17
83.61
92.28
99.65
105.29
108.46
108.26
104.38
97.30
88.04
77.47
66.09
54.44
43.69
36.03
33.29
36.68
45.69
57.32
66.36
67.36
57.54
38.63
16.94
-1.03
-8.43
0.22
27.56
71.92
127.86
187.95
244.44
290.21
314.50
310.48
278.75
227.23
166.82
107.24
54.73
11.35
-24.45
-63.82
-115.05
-177.77
-243.89
-304.29
-353.75
-391.39
-419.05
-439.48
-465.18
-505.15
-559.39
-620.83
-682.72
-742.69
-801.61
-861.14
-857.46
-757.76
-579.87
-377.43
-196.13
-54.27
49.19
122.53
174.85
214.07
236.32
238.75
225.69
207.15
191.61
182.49
179.65
181.85
184.69
182.11
169.90
149.96
128.59
110.52
96.82
86.30
77.42
69.76
58.54
40.59
17.45
-6.89
-30.81
-55.09
-81.99
-115.34
-153.06
-196.76
-245.70
-292.65
-326.89
-340.60
-328.86
-290.64
-230.82
-158.02
-82.96
-13.68
48.71
105.77
155.33
196.09
229.47
256.45
278.11
294.89
307.20
318.23
329.21
334.56
330.52
319.17
303.27
285.43
266.88
228.99
165.06
106.13
62.48
27.27
2.29
-9.28
-4.97
15.42
50.45
100.96
166.30
239.57
297.84
325.11
315.56
276.98
223.86
168.55
120.02
81.48
48.91
19.01
-6.43
-25.29
-36.84
-42.55
-45.19
-45.87
-45.42
-46.80
-51.39
-56.77
-60.23
-60.48
-58.28
-55.60
-53.63
-53.25
-56.09
-60.89
-67.48
-74.68
-81.78
-89.05
-97.26
-106.67
-117.05
-128.29
-140.01
-150.94
-159.76
-165.95
-169.76
-171.81
-172.54
-172.10
-170.46
-167.79
-164.00
-159.04
-153.30
-147.19
-140.77
-133.35
-123.43
-108.69
-90.70
-70.19
-48.07
-25.55
-3.76
16.66
35.77
54.14
72.72
92.49
114.77
140.28
168.40
196.88
221.77
238.35
242.64
232.98
210.90
181.25
150.10
122.77
102.31
89.17
81.98
78.75
77.87
78.29
79.50
80.69
80.73
78.43
73.19
65.21
55.54
45.50
36.06
27.57
19.60
11.33
2.14
-8.04
-18.61
-28.50
-36.69
-42.51
-45.83
-47.11
-47.13
-46.74
-46.70
-47.54
-49.51
-52.50
-56.13
-59.71
-62.52
-64.02
-64.07
-63.10
-61.80
-60.82
-60.33
-59.93
-58.70
-55.54
-49.51
-40.08
-27.10
-10.77
8.49
30.02
52.93
76.10
98.23
117.96
133.92
144.68
148.75
144.64
131.32
108.79
78.49
43.29
6.88
-27.14
-56.07
-78.55
-94.33
-103.81
-107.67
-106.86
-102.84
-97.69
-93.64
-92.17
-93.27
-95.41
-95.98
-92.38
-82.65
-65.69
-41.13
-9.09
29.58
72.81
117.08
157.85
190.47
211.47
219.18
213.66
195.95
167.22
128.01
78.26
17.70
-52.84
-130.12
-207.72
-276.37
-325.92
-348.48
-341.27
-307.72
-256.20
-196.81
-137.87
-83.77
-35.27
8.66
48.51
83.28
110.96
129.97
140.39
143.91
142.72
138.31
130.88
119.78
105.05
88.64
74.50
67.11
69.16
79.78
94.01
104.09
102.16
83.07
46.12
-4.94
-63.40
-121.72
-173.43
-214.09
-241.62
-255.96
-258.58
-251.86
-238.25
-219.55
-196.47
-168.39
-133.47
-89.72
-35.95
27.42
97.96
171.23
241.10
300.32
341.79
360.56
354.42
324.79
276.90
219.20
161.83
114.23
82.59
68.74
71.18
85.15
104.72
124.65
141.71
154.64
163.16
166.44
163.46
155.04
142.96
130.11
119.67
114.48
116.46
125.95
140.38
145.29
128.72
84.51
16.03
-66.02
-148.39
-218.94
-269.02
-300.52
-318.01
-324.78
-323.88
-317.80
-308.61
-298.38
-289.63
-279.78
-263.00
-236.77
-200.76
-158.15
-113.69
-71.39
-33.59
-1.06
26.13
47.13
60.97
68.20
70.34
69.58
68.46
68.93
72.00
77.61
84.12
89.25
91.50
90.23
85.42
77.85
68.59
58.71
49.46
41.80
36.64
34.88
36.75
41.00
45.61
48.23
46.91
40.92
30.74
17.94
4.78
-6.50
-14.69
-18.87
-18.43
-12.83
-1.49
15.79
38.22
63.54
91.72
118.80
140.11
151.63
151.04
137.99
113.78
80.89
42.90
4.42
-29.80
-54.76
-66.89
-65.40
-52.54
-32.57
-10.26
10.57
27.29
37.75
40.34
33.76
17.25
-8.93
-43.68
-85.57
-133.58
-187.09
-244.96
-303.33
-354.75
-389.32
-397.74
-375.56
-325.77
-258.37
-186.60
-121.92
-69.81
-29.14
5.26
38.78
73.79
109.16
142.05
170.03
192.39
209.87
223.12
231.75
234.13
228.54
214.58
193.97
170.24
147.67
129.75
118.02
111.74
108.36
104.62
97.62
85.75
68.87
48.05
25.05
1.70
-20.44
-40.34
-57.48
-71.77
-83.45
-93.01
-100.98
-107.81
-113.75
-118.84
-122.95
-126.04
-128.30
-130.22
-132.43
-135.44
-139.36
-143.77
-147.84
-150.77
-152.15
-152.26
-152.00
-152.38
-153.96
-156.23
-157.61
-155.89
-149.27
-137.31
-121.21
-103.49
-86.92
-73.40
-63.46
-56.40
-51.07
-46.65
-42.68
-38.64
-33.21
-24.03
-8.46
15.05
45.68
79.88
112.43
138.27
154.42
160.87
160.09
155.36
149.12
141.99
132.94
120.38
103.29
81.81
57.23
31.47
6.54
-15.81
-34.29
-48.05
-56.73
-60.42
-59.54
-54.78
-46.93
-36.82
-25.31
-13.21
-1.27
10.03
20.64
30.80
40.82
50.60
59.52
66.50
70.56
71.30
69.28
65.85
62.64
60.85
60.84
62.12
63.82
65.29
66.41
67.51
69.09
71.29
73.87
76.16
77.34
76.38
72.04
62.89
47.78
26.73
1.56
-24.09
-45.74
-59.73
-64.73
-62.12
-55.11
-46.94
-39.38
-32.32
-24.49
-14.87
-3.61
7.89
17.78
24.76
28.62
30.07
30.14
29.53
28.31
25.94
21.68
14.85
5.37
-6.04
-17.51
-26.31
-29.43
-24.94
-13.36
1.65
13.70
15.44
0.85
-32.54
-82.60
-143.01
-205.01
-259.83
-300.82
-324.78
-331.87
-324.60
-306.28
-279.89
-247.72
-211.80
-174.53
-138.84
-107.68
-82.81
-63.80
-48.12
-32.17
-12.98
10.41
36.67
62.96
86.21
104.27
116.38
122.90
124.64
122.26
116.06
106.11
92.67
76.54
59.25
42.77
28.94
18.84
12.35
8.20
4.59
-0.09
-6.53
-14.04
-21.27
-26.93
-30.45
-32.15
-32.94
-33.88
-35.73
-38.69
-42.36
-46.29
-50.35
-54.76
-59.67
-64.83
-69.43
-72.29
-72.31
-68.30
-59.94
-47.98
-33.92
-19.45
-6.18
4.45
10.98
12.06
8.42
1.38
-7.60
-17.42
-27.66
-38.75
-51.85
-67.81
-85.74
-99.22
-100.92
-85.72
-52.15
-1.91
61.30
132.05
203.31
267.04
320.15
360.68
387.77
403.27
413.16
426.22
449.88
486.48
532.33
585.09
639.41
687.16
719.77
732.49
726.49
707.40
682.57
618.67
502.77
348.09
185.56
40.82
-78.11
-176.67
-264.01
-346.12
-422.52
-488.13
-537.01
-568.85
-590.56
-612.06
-640.92
-679.63
-725.88
-765.64
-783.56
-769.98
-725.71
-660.66
-587.56
-515.91
-449.63
-387.87
-327.92
-266.50
-202.94
-139.86
-80.60
-25.88
26.91
81.38
138.79
196.48
249.29
291.46
318.07
326.08
314.76
285.63
242.39
191.38
141.73
103.99
87.39
95.50
123.81
160.65
191.31
203.66
192.63
161.36
118.55
74.85
39.01
16.26
8.84
17.44
42.04
81.91
134.41
193.95
251.94
298.49
325.08
326.93
304.32
262.57
210.23
156.34
107.21
63.80
21.86
-24.93
-80.92
-144.44
-206.36
-252.23
-267.70
-245.17
-188.27
-111.41
-33.29
29.19
66.14
76.07
64.07
38.42
7.40
-22.13
-44.61
-53.61
-44.36
-16.43
24.74
69.41
107.37
131.44
139.03
131.69
115.68
98.48
86.72
84.92
95.54
118.70
151.03
185.61
200.83
181.93
130.35
65.54
11.20
-20.82
-34.37
-42.36
-56.78
-81.55
-109.51
-129.16
-132.75
-120.99
-102.03
-85.51
-77.61
-79.32
-87.74
-97.31
-103.57
-104.54
-99.89
-89.93
-74.36
-53.32
-29.55
-8.51
4.39
6.16
-2.45
-17.56
-34.41
-49.11
-60.75
-71.69
-85.03
-101.40
-118.01
-130.44
-131.15
-118.09
-94.24
-67.00
-45.42
-36.43
-42.19
-60.51
-87.17
-118.23
-151.41
-183.26
-208.86
-222.36
-218.91
-196.73
-158.54
-110.55
-60.00
-12.93
28.79
65.89
99.80
131.04
159.82
186.22
210.84
233.80
246.19
239.88
211.64
164.80
106.49
44.84
-12.74
-59.74
-91.67
-107.28
-107.56
-96.30
-79.27
-63.91
-53.10
-47.94
-47.76
-50.79
-54.97
-57.68
-57.02
-52.48
-44.96
-35.74
-26.33
-17.73
-10.66
-5.43
-1.22
2.97
7.66
12.54
17.17
20.71
22.49
22.34
20.90
19.67
20.11
22.71
26.65
30.88
33.97
34.85
33.28
30.31
27.94
28.23
32.28
39.85
50.17
60.72
67.26
64.81
49.90
22.88
-11.13
-43.61
-65.46
-69.17
-52.62
-20.34
18.52
54.47
81.23
96.96
102.65
93.12
67.37
30.44
-10.00
-48.41
-81.87
-107.85
-121.81
-119.20
-97.98
-59.89
-11.22
39.00
80.58
106.80
116.76
115.27
108.78
102.73
101.44
108.59
125.18
149.66
179.67
206.65
224.35
227.71
214.61
178.91
127.06
73.53
32.10
8.43
-0.80
-1.58
0.78
3.49
6.23
10.60
16.29
21.15
22.97
20.29
14.04
5.94
-2.48
-10.42
-17.09
-23.55
-32.92
-44.97
-60.43
-79.03
-100.68
-125.88
-154.85
-186.43
-218.23
-246.37
-265.90
-272.71
-264.15
-240.42
-204.34
-159.43
-108.56
-53.59
4.03
62.52
118.65
168.74
209.25
237.69
254.41
261.12
260.23
253.88
243.64
230.08
213.44
193.54
168.80
139.79
105.63
65.83
21.01
-26.53
-72.77
-112.84
-143.45
-166.89
-184.18
-201.10
-222.10
-247.22
-271.06
-284.14
-277.67
-248.51
-204.43
-150.88
-99.20
-58.19
-31.92
-20.56
-21.18
-30.89
-49.02
-80.35
-118.61
-161.58
-205.87
-248.26
-287.79
-324.06
-358.02
-361.13
-373.18
-385.63
-393.94
-393.16
-379.54
-352.32
-310.61
-254.55
-187.16
-116.02
-38.13
44.44
129.92
222.29
311.94
390.21
464.45
537.32
604.96
668.16
720.17
752.02
755.35
724.78
663.21
579.97
485.53
388.11
297.81
217.76
147.75
86.13
30.76
-18.62
-62.14
-102.07
-141.02
-177.13
-207.13
-226.22
-230.27
-218.48
-193.14
-159.72
-125.97
-98.72
-81.27
-74.90
-79.17
-92.73
-113.76
-139.52
-167.13
-194.53
-220.23
-242.98
-261.17
-272.08
-271.91
-256.69
-223.65
-173.21
-109.92
-41.75
21.56
70.84
99.84
106.98
95.80
73.59
48.54
27.48
14.22
9.22
10.09
13.02
14.35
11.72
4.62
-6.72
-20.47
-33.10
-39.99
-37.20
-23.05
1.15
31.40
62.16
86.35
98.73
97.83
86.07
67.73
46.90
26.45
8.23
-6.52
-19.18
-31.69
-45.54
-61.62
-80.99
-104.72
-132.75
-162.71
-176.95
-162.10
-117.54
-56.35
5.15
56.32
93.47
117.21
130.14
135.20
133.33
126.57
120.30
122.55
139.36
172.41
216.60
261.63
296.04
310.38
301.94
275.85
242.28
210.89
187.11
171.21
160.48
151.65
143.54
135.67
128.33
121.81
115.63
108.63
99.62
88.37
75.58
62.06
48.22
34.09
19.58
4.39
-11.91
-29.61
-48.78
-69.39
-91.68
-116.53
-145.21
-179.12
-219.18
-264.84
-313.42
-360.36
-400.64
-430.75
-450.25
-461.22
-466.46
-467.27
-462.18
-447.76
-420.94
-381.36
-332.20
-279.17
-228.11
-183.02
-145.13
-113.47
-86.00
-60.71
-36.15
-11.48
13.29
37.68
60.92
82.51
102.57
122.31
143.68
168.40
196.33
224.10
244.54
247.89
224.56
169.05
83.03
-23.58
-134.84
-233.69
-307.29
-350.54
-366.36
-362.77
-348.84
-331.42
-313.97
-297.44
-281.98
-268.02
-256.42
-247.70
-241.39
-235.77
-228.67
-218.39
-204.44
-187.61
-169.64
-152.50
-137.66
-125.69
-116.04
-107.00
-96.19
-81.20
-59.72
-30.72
5.48
47.88
96.01
149.86
208.64
269.09
324.57
366.95
389.69
391.21
376.28
354.08
333.74
319.94
311.87
305.29
297.51
288.82
281.70
277.96
276.25
271.77
258.38
232.71
196.52
158.92
130.05
116.15
116.92
126.98
139.02
146.16
145.46
137.49
131.27
135.12
152.10
178.56
207.46
231.95
246.37
250.16
245.42
244.72
257.98
287.09
325.94
366.72
404.57
435.72
460.22
476.71
493.89
517.59
547.93
580.07
610.86
640.85
669.14
696.57
651.30
497.56
255.18
-11.83
-246.30
-423.54
-531.48
-596.51
-634.74
-653.29
-643.26
-598.30
-525.87
-445.54
-377.59
-335.43
-325.28
-341.48
-374.77
-407.07
-424.82
-421.88
-402.62
-371.40
-330.65
-283.97
-233.63
-184.75
-137.97
-103.66
-69.98
-39.44
-11.39
17.14
48.91
87.59
133.78
186.69
241.02
289.05
319.27
325.63
308.65
273.96
230.45
185.63
144.47
108.19
76.47
45.79
14.91
-15.71
-44.62
-69.64
-88.78
-100.63
-104.47
-99.79
-88.62
-72.95
-55.31
-38.53
-25.51
-18.90
-20.52
-30.61
-47.12
-67.11
-86.72
-102.95
-114.54
-122.06
-126.88
-129.99
-131.24
-129.54
-124.28
-116.02
-106.74
-98.98
-94.38
-92.51
-90.92
-86.27
-75.92
-59.01
-36.65
-11.15
15.05
40.23
63.38
83.82
100.74
113.09
119.89
120.63
115.48
105.09
90.11
70.84
47.09
18.53
-14.79
-52.05
-91.50
-130.62
-166.59
-196.77
-219.13
-232.51
-236.64
-231.99
-219.45
-200.09
-174.92
-144.83
-110.70
-73.46
-34.32
5.18
43.12
77.36
105.71
126.24
137.57
139.05
130.80
113.51
88.24
56.33
19.61
-19.24
-56.65
-88.59
-111.60
-123.88
-125.83
-119.69
-108.49
-94.75
-79.72
-63.49
-45.67
-26.21
-5.69
14.70
33.71
50.33
63.99
74.40
81.39
84.84
84.64
80.75
73.25
62.43
48.95
33.89
18.76
5.31
-4.91
-10.99
-12.90
-11.52
-8.21
-4.37
-0.94
1.69
3.56
4.79
5.35
4.98
3.40
0.58
-3.06
-6.71
-9.39
-10.32
-9.25
-6.49
-2.76
1.19
4.81
8.02
11.04
14.19
17.58
20.93
23.67
25.15
24.90
22.81
19.14
14.49
9.76
6.06
4.59
6.34
11.71
20.29
30.77
41.30
49.97
55.32
56.61
53.82
47.41
38.10
26.64
13.71
-0.13
-14.52
-29.40
-45.01
-61.83
-80.35
-100.74
-122.49
-144.12
-163.20
-176.62
-181.23
-174.66
-156.00
-126.21
-88.08
-45.57
-2.94
36.21
69.65
96.64
117.60
133.50
145.16
153.01
157.10
157.39
154.01
147.34
137.79
125.71
111.14
94.04
74.40
52.46
28.67
3.52
-22.63
-49.54
-76.90
-104.02
-129.62
-151.84
-168.49
-177.54
-177.58
-168.20
-150.08
-124.81
-94.59
-61.76
-28.53
3.27
32.24
57.44
78.37
94.94
107.39
116.15
121.60
123.94
122.99
118.33
109.55
96.49
79.45
59.10
36.40
12.33
-12.20
-36.36
-59.33
-80.37
-98.78
-114.02
-125.72
-133.56
-137.11
-135.86
-129.31
-117.30
-100.30
-79.56
-56.95
-34.48
-13.84
3.95
18.65
30.60
40.43
48.75
55.95
62.11
66.98
70.05
70.61
67.93
61.49
51.17
37.44
21.36
4.33
-12.21
-27.21
-40.14
-50.93
-59.71
-66.41
-70.57
-71.37
-67.93
-59.64
-46.54
-29.25
-8.86
13.38
36.25
58.66
79.61
98.09
113.09
123.69
129.22
129.36
124.17
114.05
99.67
81.95
62.00
41.02
20.17
0.30
-18.17
-35.23
-51.06
-65.67
-78.69
-89.30
-96.41
-99.07
-96.75
-89.58
-78.25
-63.92
-47.86
-31.26
-14.95
0.62
15.30
29.15
42.12
53.99
64.29
72.39
77.70
79.93
79.22
75.99
70.90
64.68
58.05
51.57
45.33
39.07
32.40
25.13
17.56
10.49
4.92
1.42
-0.23
-1.36
-3.83
-8.90
-16.51
-25.27
-33.23
-38.96
-42.26
-44.26
-47.27
-53.26
-62.14
-71.14
-75.82
-71.83
-56.61
-30.41
3.99
41.17
75.42
103.78
127.06
148.55
171.93
199.44
231.02
264.31
293.40
310.57
309.59
287.92
247.49
195.21
142.52
102.55
85.60
91.70
109.75
123.31
117.38
83.29
20.95
-62.00
-156.53
-238.96
-284.77
-286.35
-254.09
-205.19
-154.94
-113.95
-87.76
-76.71
-77.15
-85.37
-99.49
-116.53
-131.79
-140.52
-139.20
-126.34
-103.23
-73.85
-42.79
-18.14
-5.29
-4.56
-12.08
-22.18
-29.69
-31.64
-27.58
-20.25
-14.39
-13.20
-17.32
-25.31
-34.31
-40.76
-41.26
-33.53
-18.00
1.73
20.85
34.81
40.57
37.38
26.80
11.71
-4.77
-20.31
-33.75
-43.92
-49.39
-48.66
-40.94
-26.85
-8.77
9.45
23.55
29.99
27.42
16.95
1.78
-14.09
-27.27
-35.93
-39.89
-39.99
-37.23
-32.23
-25.42
-17.66
-10.61
-6.46
-6.96
-12.22
-20.12
-26.92
-28.84
-23.96
-13.18
0.33
12.52
20.21
22.13
18.86
12.10
3.46
-6.32
-17.12
-28.63
-39.80
-49.08
-55.14
-57.51
-56.48
-52.87
-47.76
-42.04
-36.23
-30.69
-26.07
-23.04
-21.40
-19.05
-12.94
-1.39
14.67
32.12
46.75
54.79
54.05
45.11
32.00
20.23
13.90
14.38
20.34
27.69
29.94
20.19
-4.91
-40.64
-74.79
-92.71
-82.71
-40.13
30.57
116.78
198.95
250.50
254.34
216.94
161.81
111.21
75.13
51.94
34.65
17.31
-0.84
-14.74
-18.38
-10.68
3.69
17.71
26.92
31.28
33.65
37.06
43.34
52.42
60.37
62.18
53.83
35.31
9.97
-18.26
-46.28
-70.64
-86.72
-90.12
-77.04
-48.83
-10.64
29.25
60.48
73.41
63.48
32.67
-14.19
-72.42
-139.82
-212.46
-283.11
-341.66
-377.04
-378.45
-338.55
-257.83
-130.11
23.69
166.18
265.33
309.31
304.01
265.03
216.79
170.70
135.15
112.60
103.71
108.06
122.24
138.75
147.69
139.69
112.80
77.24
42.22
9.86
-20.50
-45.87
-65.50
-78.68
-83.80
-79.84
-67.07
-50.69
-36.88
-29.42
-29.23
-35.70
-46.48
-57.94
-67.00
-71.45
-71.97
-69.92
-65.75
-59.37
-51.34
-42.36
-32.92
-23.58
-14.76
-7.66
-3.32
-1.96
-3.28
-7.08
-12.94
-20.04
-27.44
-34.29
-40.25
-45.31
-49.44
-52.55
-54.75
-56.07
-56.52
-56.19
-55.45
-55.00
-55.69
-58.07
-62.22
-67.59
-73.04
-77.17
-78.83
-77.51
-73.59
-68.13
-62.53
-58.13
-55.90
-56.32
-59.29
-64.27
-70.26
-75.87
-79.59
-79.99
-76.12
-67.85
-55.85
-41.48
-26.39
-12.07
0.48
10.84
19.13
25.80
31.35
36.16
40.41
44.04
47.01
49.22
50.76
51.82
52.66
53.56
54.69
56.08
57.55
58.77
59.26
58.62
56.60
53.24
48.82
43.75
38.42
33.09
27.81
22.51
17.14
11.70
6.31
1.17
-3.55
-7.78
-11.55
-15.09
-18.71
-22.77
-27.63
-33.52
-40.44
-47.96
-55.11
-60.47
-62.47
-59.99
-52.83
-41.95
-29.16
-16.50
-5.60
2.75
8.60
12.53
15.21
17.23
18.99
20.77
22.71
24.88
27.22
29.61
31.92
34.15
36.38
38.72
41.20
43.69
46.00
48.01
49.71
51.19
52.58
53.94
55.23
56.33
57.07
57.23
56.51
54.52
50.83
45.09
37.16
27.36
16.46
5.55
-4.27
-12.27
-18.30
-22.86
-26.77
-30.90
-35.79
-41.45
-47.45
-53.04
-57.43
-59.95
-60.11
-57.58
-52.18
-43.99
-33.36
-21.01
-7.90
4.87
16.32
25.81
33.13
38.45
42.24
45.07
47.45
49.74
52.03
54.20
55.99
57.24
58.09
59.15
61.35
65.60
72.36
81.27
91.05
99.95
106.38
109.46
109.19
106.24
101.46
95.34
87.98
79.08
68.37
55.71
41.19
25.24
8.55
-7.85
-22.83
-35.39
-45.21
-52.99
-60.32
-69.11
-80.71
-95.28
-111.63
-127.73
-141.50
-151.41
-156.72
-157.21
-152.77
-143.20
-128.41
-108.75
-85.44
-60.48
-36.25
-14.76
2.93
16.88
28.08
37.81
47.15
56.65
66.21
75.35
83.40
89.73
93.92
95.90
95.95
94.64
92.66
90.45
88.03
84.68
79.16
69.90
55.60
35.85
11.61
-14.65
-39.18
-57.74
-66.76
-64.42
-51.26
-30.23
-5.78
17.32
35.23
45.77
48.57
44.66
35.82
24.10
11.42
-0.59
-10.66
-18.02
-22.49
-24.38
-24.33
-23.03
-21.03
-18.65
-16.12
-13.62
-11.22
-8.83
-5.98
-1.97
3.97
12.43
23.47
36.56
50.49
63.36
72.74
75.97
70.73
55.92
32.35
3.13
-26.63
-50.89
-64.27
-63.54
-48.48
-21.91
11.17
45.02
74.44
95.77
107.19
108.58
101.04
86.54
67.61
47.24
28.65
14.80
7.78
8.26
15.20
26.11
37.69
46.70
50.68
48.55
40.60
28.21
13.29
-2.14
-16.47
-28.58
-37.78
-43.72
-46.34
-45.98
-43.49
-40.24
-37.85
-37.68
-40.30
-45.28
-51.42
-57.31
-61.99
-65.22
-67.41
-69.23
-71.10
-72.97
-74.24
-74.14
-72.00
-67.50
-60.66
-51.79
-41.28
-29.55
-16.96
-3.84
9.43
22.30
34.09
44.03
51.41
55.78
57.09
55.75
52.50
48.19
43.45
38.50
33.12
26.84
19.22
10.17
0.00
-10.60
-20.87
-30.16
-38.20
-45.19
-51.86
-59.48
-69.55
-83.09
-99.70
-116.83
-129.77
-132.75
-120.86
-92.00
-48.00
5.75
61.96
113.62
155.63
185.34
202.03
205.98
197.85
178.69
150.41
116.20
80.46
47.98
22.75
6.94
0.28
0.37
3.67
6.72
7.28
4.77
-0.03
-5.69
-10.97
-15.38
-19.09
-22.53
-25.97
-29.21
-31.72
-33.08
-33.27
-32.80
-32.55
-33.34
-35.54
-38.93
-42.75
-46.05
-48.00
-48.19
-46.66
-43.83
-40.24
-36.29
-32.22
-28.10
-24.08
-20.46
-17.71
-16.29
-16.40
-17.76
-19.60
-20.83
-20.36
-17.40
-11.64
-3.28
7.05
18.54
30.18
40.92
49.65
55.41
57.51
55.77
50.56
42.70
33.19
22.95
12.58
2.45
-7.27
-16.37
-24.50
-31.17
-35.94
-38.58
-39.09
-37.73
-34.82
-30.73
-25.84
-20.41
-14.69
-8.86
-3.08
2.57
8.08
13.52
18.77
23.51
27.34
30.01
31.41
31.73
31.42
30.90
30.72
30.84
30.73
29.91
28.33
26.45
25.13
25.56
28.59
35.05
44.39
54.92
64.79
72.79
78.50
82.06
84.48
86.72
90.73
97.50
107.20
120.02
136.20
155.15
174.92
192.84
205.12
209.70
204.42
187.39
157.96
116.88
65.65
6.21
-58.30
-129.77
-198.20
-249.35
-275.11
-277.34
-263.16
-239.38
-214.43
-187.72
-158.14
-123.77
-85.12
-44.89
-5.49
32.21
66.94
97.18
121.48
137.23
143.95
141.45
129.91
111.22
88.91
66.85
49.38
41.55
40.23
41.33
43.19
43.27
39.54
30.98
17.33
-0.94
-22.52
-46.13
-69.07
-89.04
-105.52
-119.32
-132.03
-145.13
-158.97
-172.29
-183.12
-188.73
-187.54
-180.23
-168.95
-156.15
-143.68
-132.36
-122.17
-113.05
-104.80
-97.48
-91.60
-87.52
-85.06
-83.53
-81.92
-79.37
-75.57
-70.62
-65.08
-59.86
-55.65
-52.72
-50.94
-50.04
-49.87
-50.58
-52.24
-54.57
-56.85
-57.84
-56.21
-51.07
-42.41
-31.13
-18.73
-6.75
3.72
12.28
19.16
24.81
29.64
33.82
37.30
39.92
41.51
41.99
41.33
39.63
37.07
33.90
30.48
27.05
23.73
20.46
17.08
13.46
9.67
5.98
2.71
0.12
-1.81
-3.39
-5.08
-7.33
-10.40
-14.27
-18.67
-23.20
-27.51
-31.41
-34.96
-38.33
-41.76
-45.40
-49.29
-53.43
-57.76
-62.15
-66.38
-70.05
-72.70
-73.96
-73.74
-72.23
-69.70
-66.24
-61.50
-54.75
-45.28
-32.78
-17.61
-0.83
16.17
31.96
45.40
55.87
63.36
68.56
72.86
78.09
86.06
97.91
113.67
132.18
151.49
169.48
184.53
195.68
202.57
205.13
203.39
197.47
187.85
175.46
161.51
147.10
132.60
117.39
100.14
79.45
54.81
26.82
-2.92
-32.61
-60.91
-86.98
-109.96
-128.17
-139.07
-140.20
-130.72
-112.38
-89.29
-66.48
-47.97
-35.53
-28.74
-25.92
-25.35
-25.88
-26.93
-28.08
-29.03
-29.85
-31.35
-35.06
-42.65
-54.96
-71.44
-90.11
-108.19
-123.13
-133.09
-137.39
-136.35
-130.88
-121.98
-110.29
-95.92
-78.55
-57.83
-33.73
-6.89
21.43
49.50
75.51
97.85
115.36
127.36
133.53
133.95
128.96
119.26
105.86
90.03
73.02
55.82
39.03
22.85
7.43
-6.97
-19.81
-30.43
-38.41
-43.91
-47.82
-51.42
-55.91
-61.86
-68.86
-75.55
-80.04
-80.45
-75.50
-64.86
-49.27
-30.33
-10.22
8.71
24.41
35.48
41.51
43.16
41.96
39.77
38.25
38.39
40.35
43.60
47.33
50.72
53.15
54.29
54.07
52.72
50.69
48.64
47.22
46.84
47.65
49.54
52.31
55.81
59.98
64.69
69.63
74.22
77.73
79.47
78.92
75.72
69.57
60.06
46.80
29.71
9.37
-12.62
-33.69
-50.83
-61.32
-63.69
-58.14
-46.54
-31.77
-16.73
-3.49
7.18
15.58
22.58
28.90
34.70
39.54
42.64
43.24
40.91
35.79
28.50
20.23
12.50
6.97
5.07
7.57
14.31
24.11
35.09
45.07
52.07
54.61
51.91
43.90
31.23
15.26
-2.12
-18.72
-32.54
-42.17
-47.12
-47.73
-44.95
-39.94
-33.75
-27.25
-21.09
-15.80
-11.74
-9.08
-7.68
-7.13
-6.93
-6.59
-5.85
-4.54
-2.50
0.64
5.35
12.04
20.67
30.54
40.37
48.67
54.25
56.62
56.18
53.95
51.10
48.53
46.64
45.33
44.24
42.95
41.16
38.70
35.58
31.87
27.79
23.65
19.85
16.74
14.52
13.05
11.84
10.22
7.52
3.43
-2.04
-8.49
-15.33
-21.95
-27.86
-32.71
-36.38
-38.96
-40.80
-42.42
-44.28
-46.63
-49.24
-51.44
-52.35
-51.15
-47.37
-41.01
-32.53
-22.68
-12.38
-2.62
5.71
11.95
15.86
17.64
17.95
17.62
17.34
17.55
18.29
19.34
20.41
21.19
21.41
20.82
19.27
16.84
13.95
11.31
9.72
9.67
11.09
13.34
15.35
16.06
14.71
10.97
4.93
-3.03
-12.40
-22.64
-33.19
-43.50
-53.06
-61.35
-67.94
-72.41
-74.50
-74.26
-72.14
-68.92
-65.50
-62.53
-60.24
-58.29
-56.04
-52.84
-48.29
-42.44
-35.68
-28.71
-22.29
-17.17
-13.82
-12.35
-12.41
-13.26
-14.01
-13.96
-12.72
-10.28
-6.90
-2.94
1.29
5.55
9.69
13.62
17.27
20.53
23.30
25.43
26.77
27.18
26.63
25.15
22.88
20.00
16.60
12.67
8.12
2.88
-3.01
-9.40
-16.02
-22.60
-28.88
-34.79
-40.27
-45.30
-49.72
-53.24
-55.49
-56.14
-55.05
-52.36
-48.48
-43.92
-39.14
-34.38
-29.53
-24.23
-18.00
-10.53
-1.82
7.71
17.40
26.45
34.14
40.02
43.90
45.86
46.23
45.55
44.49
43.70
43.65
44.46
45.97
47.74
49.30
50.33
50.71
50.55
50.10
49.61
49.28
49.18
49.23
49.25
48.93
47.90
45.86
42.65
38.34
33.18
27.58
21.95
16.59
11.74
7.53
3.99
1.08
-1.39
-3.71
-6.20
-9.09
-12.44
-16.07
-19.70
-22.97
-25.60
-27.42
-28.32
-28.23
-27.08
-24.84
-21.48
-17.00
-11.46
-4.98
2.23
9.75
17.08
23.66
29.10
33.26
36.27
38.47
40.20
41.63
42.77
43.41
43.29
42.20
40.10
37.10
33.55
29.90
26.62
24.11
22.58
21.92
21.71
21.26
19.69
16.09
9.83
0.76
-10.57
-22.99
-34.89
-44.65
-51.03
-53.56
-52.57
-49.01
-44.13
-39.09
-34.72
-31.54
-29.80
-29.59
-30.85
-33.22
-36.04
-38.41
-39.49
-38.79
-36.26
-32.36
-27.68
-22.77
-17.90
-13.13
-8.47
-3.94
0.35
4.28
7.77
10.77
13.21
15.02
16.13
16.52
16.27
15.51
14.38
12.93
11.19
9.14
6.81
4.29
1.65
-1.01
-3.59
-5.91
-7.76
-8.86
-9.07
-8.41
-7.20
-5.94
-5.21
-5.40
-6.59
-8.50
-10.57
-12.22
-13.05
-13.01
-12.35
-11.45
-10.61
-9.83
-8.90
-7.56
-5.78
-3.76
-1.83
-0.14
1.64
4.20
8.39
14.86
23.72
34.35
45.40
54.76
59.57
56.57
43.01
17.95
-16.41
-54.41
-88.12
-109.97
-115.61
-105.78
-86.16
-65.08
-50.38
-46.64
-53.94
-68.59
-85.20
-99.07
-107.56
-110.69
-110.05
-107.64
-104.54
-100.55
-94.26
-84.09
-68.90
-48.14
-22.04
8.35
40.43
69.64
90.10
96.49
86.91
64.84
38.76
19.00
13.15
22.56
41.90
62.04
74.64
75.78
66.97
53.23
39.96
30.61
26.07
25.55
28.23
33.65
41.78
52.01
62.67
71.10
74.81
72.54
64.85
54.06
43.05
34.23
28.45
24.92
21.80
17.13
9.81
-0.00
-11.08
-21.75
-30.48
-36.50
-39.75
-40.70
-40.00
-38.13
-35.35
-31.67
-27.19
-22.14
-17.14
-12.98
-10.56
-10.56
-13.19
-18.20
-24.89
-32.36
-39.82
-46.68
-52.61
-57.40
-60.91
-63.02
-63.80
-63.66
-63.22
-63.17
-63.89
-65.21
-66.37
-66.29
-64.01
-58.98
-51.23
-41.35
-30.16
-18.65
-7.72
2.00
10.19
16.92
22.39
26.68
29.54
30.47
29.00
25.19
19.95
14.86
11.65
11.51
14.54
19.79
25.77
31.14
35.25
38.24
40.60
42.82
45.02
47.07
48.79
50.18
51.41
52.57
53.52
53.81
52.91
50.55
46.87
42.34
37.53
32.78
28.19
23.64
19.01
14.31
9.63
5.08
0.59
-4.07
-9.24
-15.16
-21.79
-28.68
-34.90
-39.31
-40.95
-39.31
-34.54
-27.36
-18.74
-9.60
-0.69
7.39
14.08
18.87
21.54
22.21
21.43
19.95
18.47
17.35
16.62
16.15
15.81
15.60
15.58
15.81
16.25
16.85
17.67
19.01
21.38
25.31
30.99
37.99
45.13
50.78
53.32
51.80
46.30
37.87
28.03
18.13
8.91
0.54
-7.10
-14.01
-20.08
-25.13
-29.26
-32.87
-36.47
-40.45
-44.81
-49.29
-53.54
-57.39
-60.77
-63.57
-65.39
-65.50
-63.11
-57.69
-49.34
-38.80
-27.18
-15.68
-5.20
3.77
11.16
17.14
21.99
26.05
29.63
33.02
36.39
39.80
43.05
45.76
47.42
47.61
46.05
42.69
37.68
31.28
23.92
16.07
8.39
1.54
-3.79
-7.15
-8.51
-8.35
-7.58
-7.27
-8.19
-10.56
-13.97
-17.69
-21.07
-23.87
-26.39
-29.19
-32.79
-37.23
-42.02
-46.29
-49.11
-49.82
-48.11
-44.03
-37.87
-30.06
-21.02
-11.13
-0.54
10.92
23.66
38.15
54.61
72.73
91.56
109.75
125.82
138.57
147.25
151.61
151.75
148.07
141.16
131.89
121.35
110.74
101.16
93.31
87.30
82.59
78.09
72.42
64.13
52.09
35.75
15.43
-7.62
-31.37
-53.58
-72.41
-87.06
-97.85
-105.88
-112.22
-117.36
-120.95
-122.29
-121.05
-117.76
-113.87
-111.00
-110.19
-111.35
-113.39
-114.77
-114.09
-110.28
-102.30
-89.35
-71.74
-51.78
-33.93
-23.52
-24.21
-35.61
-52.84
-68.39
-75.66
-71.94
-59.28
-42.77
-27.60
-16.66
-10.06
-6.31
-4.05
-2.96
-3.37
-5.31
-7.87
-9.36
-8.16
-3.36
4.85
15.30
26.25
35.93
42.93
46.35
46.10
42.98
38.44
34.14
31.50
31.31
33.60
37.88
43.48
49.78
56.29
62.43
67.30
69.64
68.03
61.39
49.47
33.11
14.12
-5.16
-22.46
-36.12
-45.31
-50.00
-50.76
-48.46
-44.04
-38.32
-31.91
-25.19
-18.33
-11.35
-4.26
2.88
10.01
17.05
23.96
30.64
36.93
42.57
47.23
50.61
52.55
53.04
52.23
50.30
47.46
43.88
39.69
35.02
29.99
24.77
19.53
14.42
9.50
4.74
0.02
-4.81
-9.78
-14.85
-19.84
-24.57
-28.89
-32.73
-36.07
-38.83
-40.93
-42.34
-43.12
-43.46
-43.57
-43.51
-43.16
-42.23
-40.37
-37.33
-33.00
-27.43
-20.86
-13.69
-6.57
-0.28
4.44
7.16
7.95
7.38
6.28
5.40
5.07
5.09
5.01
4.39
3.10
1.35
-0.41
-1.76
-2.52
-2.77
-2.80
-2.91
-3.26
-3.77
-4.21
-4.29
-3.91
-3.19
-2.51
-2.33
-2.96
-4.44
-6.51
-8.72
-10.65
-11.94
-12.42
-11.99
-10.66
-8.53
-5.94
-3.46
-1.81
-1.60
-3.00
-5.56
-8.19
-9.52
-8.28
-3.79
3.85
13.73
24.43
34.54
42.95
49.19
53.31
55.70
56.83
56.98
56.29
54.81
52.68
50.09
47.28
44.45
41.72
39.16
36.80
34.67
32.82
31.26
29.99
28.96
28.07
27.19
26.14
24.68
22.66
19.97
16.69
13.04
9.32
5.82
2.70
0.00
-2.38
-4.68
-7.13
-9.94
-13.24
-17.01
-21.13
-25.43
-29.69
-33.65
-36.96
-39.13
-39.70
-38.34
-35.03
-30.10
-24.11
-17.71
-11.41
-5.56
-0.34
4.17
7.96
11.04
13.51
15.51
17.15
18.35
18.94
18.64
17.31
15.06
12.30
9.57
7.37
5.99
5.43
5.47
5.76
5.91
5.64
4.73
3.07
0.72
-2.13
-5.17
-8.10
-10.68
-12.89
-14.91
-17.02
-19.50
-22.50
-25.89
-29.40
-32.63
-35.30
-37.41
-39.18
-41.06
-43.44
-46.47
-49.86
-52.91
-54.59
-53.91
-50.27
-43.61
-34.60
-24.37
-14.16
-4.94
2.84
9.25
14.69
19.57
24.10
28.25
31.83
34.65
36.62
37.82
38.38
38.47
38.15
37.52
36.58
35.41
34.10
32.80
31.64
30.70
29.91
29.12
28.08
26.57
24.50
21.92
19.01
15.98
12.96
9.98
7.02
4.06
1.13
-1.69
-4.37
-6.96
-9.57
-12.27
-15.05
-17.75
-20.18
-22.28
-24.13
-26.02
-28.29
-31.18
-34.69
-38.58
-42.37
-45.42
-47.08
-46.77
-44.22
-39.50
-33.09
-25.73
-18.22
-11.14
-4.74
1.02
6.30
11.20
15.67
19.52
22.56
24.73
26.13
26.98
27.49
27.71
27.57
26.91
25.62
23.80
21.70
19.66
17.91
16.51
15.32
14.12
12.80
11.30
9.76
8.38
7.31
6.56
6.02
5.48
4.69
3.48
1.83
-0.09
-2.01
-3.62
-4.76
-5.52
-6.23
-7.29
-8.97
-11.28
-13.93
-16.54
-18.82
-20.71
-22.36
-24.00
-25.69
-27.22
-28.09
-27.75
-25.76
-21.96
-16.51
-9.88
-2.68
4.48
11.12
16.94
21.80
25.75
28.86
31.22
32.78
33.53
33.41
32.46
30.82
28.68
26.23
23.61
20.95
18.38
16.04
14.04
12.37
10.94
9.56
8.06
6.42
4.71
3.08
1.62
0.26
-1.18
-2.83
-4.73
-6.70
-8.51
-10.01
-11.22
-12.35
-13.69
-15.39
-17.42
-19.56
-21.58
-23.32
-24.83
-26.23
-27.71
-29.33
-31.12
-33.02
-35.03
-37.15
-39.32
-41.30
-42.70
-43.01
-41.78
-38.81
-34.19
-28.34
-21.79
-15.07
-8.57
-2.53
2.98
7.97
12.48
16.56
20.24
23.52
26.33
28.57
30.12
30.88
30.80
29.92
28.40
26.48
24.45
22.54
20.90
19.59
18.59
17.83
17.15
16.40
15.40
13.99
12.14
9.97
7.68
5.52
3.60
1.90
0.22
-1.64
-3.81
-6.28
-8.94
-11.63
-14.19
-16.54
-18.56
-20.15
-21.20
-21.65
-21.52
-20.99
-20.37
-20.05
-20.38
-21.60
-23.67
-26.29
-28.91
-30.86
-31.51
-30.41
-27.38
-22.54
-16.29
-9.26
-2.19
4.21
9.45
13.38
16.20
18.32
20.10
21.71
23.07
23.97
24.29
24.01
23.30
22.29
21.09
19.69
18.13
16.54
15.16
14.19
13.62
13.25
12.77
11.94
10.71
9.18
7.45
5.62
3.68
1.63
-0.46
-2.49
-4.34
-5.98
-7.52
-9.13
-10.95
-13.00
-15.22
-17.50
-19.72
-21.79
-23.59
-25.07
-26.25
-27.33
-28.64
-30.51
-33.09
-36.18
-39.26
-41.58
-42.47
-41.47
-38.54
-33.91
-28.05
-21.49
-14.73
-8.18
-2.19
3.12
7.74
11.80
15.51
19.07
22.50
25.72
28.49
30.55
31.75
32.12
31.89
31.46
31.23
31.46
32.26
33.48
34.82
35.93
36.51
36.36
35.40
33.71
31.39
28.60
25.42
21.97
18.34
14.65
11.02
7.57
4.27
1.04
-2.23
-5.75
-9.56
-13.67
-17.94
-22.18
-26.18
-29.69
-32.54
-34.69
-36.24
-37.44
-38.64
-40.18
-42.28
-44.89
-47.69
-50.12
-51.52
-51.27
-48.95
-44.43
-37.94
-29.98
-21.23
-12.37
-3.95
3.71
10.53
16.59
21.95
26.60
30.41
33.19
34.83
35.35
34.98
34.08
33.07
32.27
31.86
31.83
31.97
32.01
31.73
31.03
29.97
28.69
27.34
26.02
24.82
23.88
23.38
23.45
24.00
24.61
24.64
23.32
20.21
15.31
9.13
2.51
-3.72
-8.99
-13.13
-16.31
-18.89
-21.22
-23.58
-26.12
-28.99
-32.27
-36.07
-40.35
-44.88
-49.16
-52.53
-54.33
-54.10
-51.78
-47.67
-42.33
-36.33
-30.11
-23.91
-17.76
-11.69
-5.77
-0.21
4.77
9.03
12.56
15.45
17.85
19.87
21.51
22.73
23.56
24.05
24.33
24.53
24.65
24.64
24.43
23.99
23.35
22.60
21.76
20.75
19.44
17.61
15.16
12.07
8.53
4.84
1.39
-1.54
-3.79
-5.41
-6.63
-7.72
-9.02
-10.72
-12.90
-15.48
-18.27
-21.01
-23.55
-25.84
-27.99
-30.21
-32.69
-35.44
-38.21
-40.57
-41.97
-41.88
-39.98
-36.11
-30.34
-22.99
-14.50
-5.49
3.35
11.37
18.09
23.25
26.85
29.13
30.44
31.14
31.50
31.62
31.44
30.80
29.54
27.69
25.38
22.97
20.83
19.34
18.67
18.78
19.36
20.01
20.28
19.87
18.68
16.81
14.49
11.95
9.43
7.03
4.83
2.85
1.02
-0.81
-2.88
-5.41
-8.44
-11.71
-14.76
-17.20
-18.87
-20.04
-21.25
-23.02
-25.67
-29.13
-33.00
-36.75
-39.76
-41.47
-41.41
-39.27
-34.99
-28.86
-21.52
-13.75
-6.30
0.36
6.07
10.90
15.00
18.48
21.32
23.46
24.84
25.46
25.42
24.91
24.10
23.18
22.25
21.42
20.72
20.14
19.64
19.10
18.37
17.33
15.92
14.20
12.29
10.35
8.46
6.66
4.92
3.14
1.24
-0.86
-3.20
-5.72
-8.30
-10.72
-12.84
-14.59
-16.05
-17.42
-18.84
-20.37
-21.96
-23.55
-25.14
-26.90
-29.01
-31.54
-34.29
-36.80
-38.44
-38.66
-37.11
-33.69
-28.54
-21.86
-14.01
-5.42
3.33
11.59
18.78
24.49
28.66
31.52
33.44
34.77
35.67
36.14
36.07
35.43
34.33
33.02
31.81
30.92
30.37
30.04
29.69
29.15
28.37
27.38
26.27
25.01
23.52
21.64
19.29
16.46
13.25
9.86
6.45
3.12
-0.10
-3.20
-6.20
-9.11
-11.88
-14.46
-16.81
-18.92
-20.84
-22.71
-24.70
-26.98
-29.67
-32.75
-36.14
-39.64
-42.97
-45.69
-47.24
-47.05
-44.69
-40.12
-33.69
-26.13
-18.36
-11.12
-4.83
0.50
5.07
9.14
12.76
15.82
18.04
19.19
19.21
18.21
16.49
14.41
12.35
10.61
9.36
8.65
8.41
8.48
8.69
8.89
8.98
8.86
8.46
7.66
6.38
4.63
2.54
0.36
-1.68
-3.46
-5.11
-6.93
-9.23
-12.22
-15.77
-19.46
-22.70
-25.00
-26.14
-26.29
-25.92
-25.53
-25.57
-26.20
-27.37
-28.86
-30.38
-31.59
-32.09
-31.52
-29.56
-26.09
-21.15
-15.03
-8.01
-0.36
7.78
16.29
25.02
33.77
42.30
50.45
58.15
65.44
72.43
79.21
85.74
91.74
96.58
99.24
98.40
92.74
81.51
65.02
44.81
23.34
3.34
-13.03
-24.66
-31.58
-34.62
-34.83
-33.09
-29.93
-25.61
-20.33
-14.47
-8.52
-3.02
1.56
5.01
7.27
8.36
8.16
6.31
2.19
-4.80
-14.87
-27.54
-41.62
-55.41
-67.10
-75.17
-78.66
-77.35
-71.67
-62.58
-51.40
-39.55
-28.41
-19.03
-12.12
-7.81
-5.70
-4.78
-3.65
-0.75
5.17
14.52
26.67
40.03
52.57
62.45
68.57
70.89
70.18
67.67
64.66
62.11
60.57
60.11
60.44
60.94
60.79
59.16
55.35
49.01
40.24
29.61
18.03
6.64
-3.51
-11.70
-17.65
-21.60
-24.11
-25.82
-27.27
-28.69
-30.10
-31.32
-32.16
-32.46
-32.02
-30.67
-28.26
-24.82
-20.63
-16.17
-12.01
-8.60
-6.16
-4.59
-3.62
-2.89
-2.08
-0.91
0.78
3.10
5.99
9.26
12.52
15.35
17.36
18.31
18.14
16.92
14.81
12.03
8.85
5.61
2.67
0.36
-1.03
-1.33
-0.59
0.97
2.93
4.75
5.92
6.14
5.37
3.93
2.26
0.85
0.01
-0.17
0.12
0.49
0.49
-0.39
-2.52
-6.07
-10.90
-16.49
-22.10
-26.90
-30.24
-31.80
-31.66
-30.31
-28.36
-26.36
-24.70
-23.59
-23.13
-23.42
-24.57
-26.58
-29.20
-31.84
-33.63
-33.78
-31.91
-28.27
-23.63
-18.98
-15.06
-12.08
-9.72
-7.33
-4.36
-0.59
3.77
8.23
12.19
15.28
17.40
18.75
19.65
20.43
21.29
22.23
23.20
24.04
24.64
24.82
24.40
23.19
21.07
18.14
14.70
11.20
8.06
5.49
3.46
1.74
0.08
-1.68
-3.47
-5.08
-6.32
-7.11
-7.57
-8.01
-8.75
-10.01
-11.75
-13.77
-15.74
-17.44
-18.89
-20.37
-22.34
-25.12
-28.70
-32.60
-36.00
-38.02
-37.99
-35.64
-31.13
-24.93
-17.62
-9.82
-2.10
5.05
11.26
16.35
20.42
23.63
26.19
28.17
29.40
29.64
28.83
27.13
25.00
22.97
21.44
20.52
20.11
19.99
19.99
20.04
20.09
20.10
19.97
19.54
18.69
17.38
15.60
13.46
11.07
8.61
6.37
4.62
3.52
2.98
2.59
1.71
-0.23
-3.54
-8.03
-13.13
-18.06
-22.23
-25.44
-27.94
-30.34
-33.23
-36.95
-41.36
-45.91
-49.83
-52.32
-52.78
-50.89
-46.63
-40.27
-32.37
-23.70
-15.14
-7.47
-1.19
3.53
6.89
9.20
10.82
12.00
12.90
13.58
14.04
14.27
14.28
14.12
13.93
13.93
14.30
15.05
16.00
16.84
17.25
17.07
16.27
14.88
12.91
10.20
6.62
2.11
-3.09
-8.57
-13.79
-18.36
-22.15
-25.24
-27.87
-30.19
-32.25
-33.98
-35.32
-36.28
-36.92
-37.36
-37.58
-37.53
-37.15
-36.57
-36.11
-36.23
-37.25
-39.13
-41.35
-43.00
-43.13
-41.04
-36.49
-29.84
-21.78
-13.20
-4.89
2.50
8.61
13.33
16.78
19.24
21.02
22.35
23.35
24.01
24.29
24.16
23.67
22.96
22.27
21.83
21.86
22.46
23.59
25.01
26.42
27.43
27.74
27.21
25.98
24.31
22.60
21.10
19.94
19.00
18.07
16.89
15.23
13.04
10.41
7.58
4.86
2.48
0.56
-1.03
-2.65
-4.73
-7.60
-11.31
-15.50
-19.56
-22.77
-24.51
-24.33
-22.03
-17.71
-11.68
-4.51
3.12
10.54
17.34
23.44
29.03
34.34
39.43
44.05
47.79
50.26
51.33
51.27
50.58
49.76
49.11
48.61
47.96
46.77
44.74
41.82
38.19
34.23
30.28
26.61
23.37
20.61
18.34
16.54
15.13
13.94
12.66
10.94
8.49
5.20
1.24
-2.99
-6.96
-10.26
-12.70
-14.38
-15.66
-17.07
-19.05
-21.86
-25.45
-29.47
-33.36
-36.45
-38.09
-37.74
-35.05
-30.04
-23.06
-14.87
-6.50
1.06
7.08
11.21
13.61
14.68
14.88
14.58
13.96
13.13
12.21
11.27
10.38
9.46
8.40
7.08
5.63
4.30
3.50
3.53
4.47
6.10
7.96
9.44
9.97
9.16
6.84
3.17
-1.48
-6.60
-11.65
-16.26
-20.30
-23.81
-26.94
-29.81
-32.46
-34.76
-36.57
-37.75
-38.31
-38.47
-38.64
-39.32
-40.94
-43.65
-47.18
-50.85
-53.71
-54.81
-53.42
-49.34
-42.86
-34.74
-25.93
-17.33
-9.55
-2.88
2.67
7.21
10.88
13.80
16.12
18.02
19.69
21.25
22.68
23.78
24.29
24.03
23.07
21.77
20.62
20.06
20.23
20.88
21.55
21.71
20.98
19.28
16.79
13.80
10.61
7.43
4.36
1.44
-1.31
-3.84
-6.08
-7.96
-9.39
-10.29
-10.63
-10.53
-10.23
-10.05
-10.34
-11.29
-12.86
-14.79
-16.61
-17.75
-17.70
-16.06
-12.63
-7.50
-1.05
6.02
12.89
18.81
23.32
26.39
28.41
29.90
31.29
32.72
34.11
35.24
36.02
36.53
36.95
37.40
37.78
37.81
37.13
35.62
33.49
31.27
29.51
28.56
28.31
28.18
27.40
25.41
22.17
18.16
14.20
11.02
8.90
7.59
6.44
4.78
2.14
-1.59
-6.14
-11.09
-16.02
-20.59
-24.62
-28.03
-30.82
-32.97
-34.44
-35.09
-34.72
-33.09
-29.98
-25.27
-18.91
-11.00
-1.85
8.08
18.08
27.38
35.23
41.10
44.73
46.25
46.12
45.10
44.07
43.85
44.95
47.45
50.96
54.78
58.33
61.28
63.71
65.83
67.71
68.98
68.96
66.99
62.80
56.68
49.25
40.98
31.90
21.80
10.64
-1.02
-11.93
-20.70
-26.58
-30.03
-32.66
-36.48
-42.86
-51.92
-62.50
-72.81
-81.31
-87.24
-90.74
-92.50
-93.30
-93.77
-94.18
-94.56
-94.74
-94.44
-93.27
-90.82
-86.83
-81.17
-74.06
-65.99
-57.59
-49.57
-42.62
-37.29
-33.88
-32.38
-32.41
-33.41
-34.78
-36.12
-37.23
-38.09
-38.65
-38.75
-38.07
-36.17
-32.61
-27.06
-19.33
-9.37
2.62
16.16
30.47
44.52
57.28
67.95
76.10
81.66
84.76
85.52
83.98
80.10
73.78
65.10
54.29
41.82
28.34
14.58
1.16
-11.46
-23.09
-33.75
-43.49
-52.23
-59.70
-65.47
-69.09
-70.27
-68.90
-65.08
-58.94
-50.65
-40.41
-28.62
-15.96
-3.36
8.09
17.38
23.85
27.18
27.47
25.03
20.26
13.52
5.24
-4.00
-13.30
-21.47
-27.19
-29.45
-27.80
-22.64
-15.04
-6.38
2.11
9.72
16.34
22.40
28.46
34.95
42.03
49.51
57.07
64.36
71.09
76.99
81.68
84.66
85.34
83.23
78.19
70.44
60.59
49.31
37.17
24.48
11.38
-1.93
-15.09
-27.56
-38.74
-48.21
-55.72
-61.20
-64.52
-65.41
-63.42
-58.09
-49.26
-37.21
-22.73
-6.95
8.92
23.79
37.03
48.36
57.77
65.32
70.91
74.28
75.14
73.36
69.09
62.80
55.08
46.50
37.54
28.55
19.91
12.02
5.29
-0.04
-3.92
-6.54
-8.27
-9.47
-10.46
-11.43
-12.48
-13.56
-14.54
-15.14
-15.07
-14.06
-12.01
-9.05
-5.51
-1.83
1.57
4.24
5.90
6.31
5.43
3.38
0.44
-3.08
-7.00
-11.40
-16.62
-23.02
-30.75
-39.43
-48.17
-55.73
-60.92
-62.95
-61.68
-57.54
-51.35
-44.07
-36.51
-29.26
-22.65
-16.72
-11.38
-6.41
-1.61
3.16
7.86
12.32
16.42
20.12
23.53
26.87
30.26
33.58
36.43
38.31
38.83
37.94
35.95
33.40
30.84
28.57
26.59
24.64
22.36
19.43
15.54
10.50
4.34
-2.70
-10.08
-17.08
-22.98
-27.34
-30.14
-31.71
-32.58
-33.20
-33.86
-34.68
-35.72
-37.02
-38.65
-40.56
-42.56
-44.39
-45.79
-46.62
-46.94
-46.81
-46.35
-45.53
-44.28
-42.55
-40.31
-37.61
-34.48
-30.92
-26.90
-22.41
-17.52
-12.37
-7.08
-1.71
3.76
9.39
15.10
20.61
25.49
29.21
31.35
31.71
30.48
28.09
25.13
22.12
19.41
17.05
14.85
12.41
9.31
5.32
0.48
-4.74
-9.55
-12.99
-14.19
-12.65
-8.48
-2.36
4.56
10.97
15.70
17.96
17.49
14.49
9.52
3.28
-3.53
-10.37
-16.98
-23.41
-29.90
-36.72
-43.88
-50.94
-56.99
-60.83
-61.33
-57.84
-50.39
-39.73
-27.05
-13.65
-0.56
11.66
22.86
33.16
42.72
51.57
59.53
66.20
71.07
73.67
73.65
71.04
66.24
60.03
53.40
47.22
42.07
38.03
34.78
31.80
28.67
25.25
21.67
18.28
15.39
13.25
11.90
11.26
11.20
11.59
12.37
13.46
14.72
15.93
16.80
17.00
16.29
14.47
11.48
7.27
1.86
-4.66
-11.98
-19.50
-26.39
-31.73
-34.79
-35.21
-33.16
-29.17
-24.03
-18.50
-13.12
-8.15
-3.49
1.10
5.97
11.44
17.70
24.76
32.43
40.23
47.47
53.32
56.84
57.35
54.52
48.58
40.33
30.99
21.89
14.16
8.45
4.85
2.93
1.89
0.87
-0.90
-3.85
-8.03
-13.04
-18.17
-22.59
-25.58
-26.81
-26.43
-25.02
-23.27
-21.72
-20.54
-19.58
-18.54
-17.24
-15.80
-14.55
-13.93
-14.25
-15.61
-17.84
-20.52
-23.11
-24.96
-25.43
-24.05
-20.71
-15.69
-9.67
-3.46
2.13
6.58
9.66
11.49
12.46
13.14
14.17
16.04
18.88
22.35
25.73
28.27
29.52
29.46
28.53
27.19
25.66
23.84
21.45
18.38
14.86
11.40
8.48
6.22
4.27
1.95
-1.35
-5.84
-11.16
-16.60
-21.49
-25.45
-28.56
-31.13
-33.49
-35.73
-37.62
-38.74
-38.76
-37.62
-35.71
-33.74
-32.52
-32.66
-34.32
-37.20
-40.58
-43.58
-45.37
-45.39
-43.39
-39.42
-33.84
-27.20
-20.23
-13.74
-8.37
-4.46
-1.89
-0.19
1.30
3.13
5.58
8.61
12.01
15.55
19.06
22.47
25.70
28.55
30.71
31.87
31.73
30.26
27.64
24.38
21.13
18.47
16.67
15.47
14.20
11.90
7.86
1.88
-5.53
-13.40
-20.62
-26.39
-30.43
-32.93
-34.27
-34.78
-34.58
-33.57
-31.60
-28.58
-24.70
-20.35
-16.20
-13.00
-11.46
-11.98
-14.53
-18.59
-23.24
-27.37
-30.01
-30.54
-28.81
-25.20
-20.42
-15.36
-10.87
-7.57
-5.71
-5.16
-5.45
-5.90
-5.78
-4.43
-1.44
3.23
9.29
16.19
23.29
30.08
36.26
41.79
46.73
51.07
54.77
57.67
59.66
60.71
60.83
59.97
57.92
54.26
48.47
40.25
29.74
17.71
5.40
-5.75
-14.53
-20.34
-23.23
-23.72
-22.44
-19.91
-16.39
-12.08
-7.32
-2.65
1.22
3.64
4.41
3.88
2.83
2.26
2.94
5.16
8.65
12.77
16.71
19.82
21.80
22.57
22.27
21.16
19.54
17.83
16.52
16.06
16.72
18.46
20.99
23.92
26.88
29.65
32.04
33.79
34.51
33.78
31.38
27.45
22.57
17.55
13.11
9.61
6.98
4.84
2.77
0.51
-1.97
-4.53
-6.99
-9.29
-11.44
-13.55
-15.69
-17.82
-19.81
-21.44
-22.49
-22.84
-22.49
-21.58
-20.40
-19.30
-18.65
-18.69
-19.56
-21.24
-23.54
-26.09
-28.37
-29.67
-29.35
-26.90
-22.22
-15.71
-8.18
-0.72
5.69
10.44
13.47
15.19
16.24
17.23
18.43
19.79
20.96
21.53
21.16
19.74
17.37
14.34
11.06
8.03
5.70
4.43
4.37
5.35
6.89
8.35
9.02
8.41
6.29
2.78
-1.72
-6.66
-11.50
-15.85
-19.57
-22.72
-25.52
-28.16
-30.74
-33.17
-35.20
-36.44
-36.56
-35.44
-33.34
-30.89
-29.01
-28.56
-29.98
-33.05
-36.82
-39.91
-41.05
-39.57
-35.65
-30.24
-24.58
-19.73
-16.24
-13.96
-12.31
-10.54
-8.05
-4.55
-0.12
4.92
10.17
15.20
19.78
23.83
27.46
30.92
34.42
38.02
41.53
44.53
46.42
46.71
45.14
41.80
37.15
31.82
26.43
21.37
16.68
12.22
7.75
3.12
-1.58
-6.12
-10.22
-13.68
-16.45
-18.48
-19.78
-20.28
-19.99
-18.99
-17.55
-16.06
-14.92
-14.44
-14.77
-15.99
-18.16
-21.28
-25.30
-29.98
-34.82
-39.14
-42.21
-43.43
-42.52
-39.59
-35.01
-29.40
-23.41
-17.55
-12.13
-7.23
-2.76
1.51
5.82
10.40
15.41
20.88
26.64
32.30
37.35
41.28
43.71
44.45
43.58
41.40
38.38
35.11
32.15
29.88
28.36
27.28
26.01
23.87
20.41
15.63
10.00
4.29
-0.66
-4.29
-6.36
-7.06
-6.82
-6.13
-5.37
-4.64
-3.87
-2.86
-1.52
0.01
1.31
1.84
1.04
-1.41
-5.44
-10.63
-16.29
-21.65
-26.01
-28.86
-29.88
-28.99
-26.28
-22.01
-16.60
-10.58
-4.47
1.32
6.51
11.02
14.91
18.27
21.15
23.55
25.37
26.46
26.66
25.89
24.22
21.84
19.12
16.38
13.87
11.63
9.58
7.57
5.46
3.26
1.09
-0.85
-2.44
-3.68
-4.71
-5.74
-6.86
-8.01
-9.00
-9.66
-9.98
-10.23
-10.81
-12.12
-14.32
-17.22
-20.37
-23.26
-25.56
-27.34
-28.99
-31.08
-34.03
-37.81
-41.75
-44.60
-44.84
-41.12
-32.76
-20.15
-4.77
10.99
24.39
33.04
35.53
31.77
22.87
10.83
-2.13
-14.10
-23.78
-30.55
-34.37
-35.63
-35.04
-33.54
-32.15
-31.77
-32.90
-35.53
-39.05
-42.43
-44.50
-44.15
-40.62
-33.62
-23.38
-10.59
3.66
18.05
31.28
42.30
50.56
56.11
59.50
61.60
63.19
64.76
66.29
67.38
67.38
65.71
62.03
56.23
48.29
38.18
25.82
11.25
-5.14
-22.43
-39.32
-54.38
-66.46
-74.99
-79.88
-81.36
-79.59
-74.57
-66.18
-54.54
-40.13
-23.85
-6.91
9.55
24.63
37.78
48.74
57.42
63.78
67.85
69.73
69.62
67.81
64.61
60.30
55.11
49.29
43.06
36.63
30.15
23.74
17.46
11.43
5.84
0.90
-3.18
-6.28
-8.36
-9.45
-9.63
-9.01
-7.78
-6.24
-4.76
-3.73
-3.37
-3.71
-4.59
-5.80
-7.22
-8.85
-10.86
-13.40
-16.57
-20.27
-24.22
-27.98
-31.16
-33.41
-34.59
-34.65
-33.63
-31.47
-28.06
-23.26
-17.05
-9.69
-1.70
6.20
13.34
19.22
23.69
26.88
29.06
30.48
31.26
31.33
30.55
28.79
26.18
23.08
20.08
17.85
16.84
17.08
18.14
19.18
19.22
17.43
13.45
7.43
0.05
-7.77
-15.08
-21.10
-25.38
-27.82
-28.57
-28.01
-26.58
-24.66
-22.52
-20.26
-17.93
-15.59
-13.49
-12.05
-11.80
-13.19
-16.41
-21.33
-27.43
-33.93
-39.91
-44.46
-46.88
-46.81
-44.34
-39.95
-34.43
-28.60
-23.14
-18.39
-14.30
-10.52
-6.60
-2.21
2.70
7.82
12.74
16.97
20.25
22.48
23.74
24.11
23.66
22.42
20.45
17.93
15.07
12.17
9.44
7.01
4.92
3.13
1.51
-0.08
-1.76
-3.46
-4.95
-5.86
-5.81
-4.70
-2.72
-0.44
1.48
2.51
2.49
1.67
0.62
0.01
0.40
2.11
5.22
9.60
14.94
20.77
26.53
31.67
35.73
38.54
40.16
40.89
41.06
40.92
40.57
39.97
38.98
37.54
35.66
33.44
30.97
28.35
25.61
22.79
20.03
17.52
15.52
14.16
13.40
12.93
12.31
11.16
9.25
6.58
3.28
-0.45
-4.41
-8.38
-12.08
-15.22
-17.67
-19.59
-21.42
-23.75
-27.00
-31.13
-35.52
-39.13
-40.85
-39.83
-35.80
-29.09
-20.49
-10.99
-1.57
7.00
14.23
19.93
24.10
26.85
28.39
28.96
28.84
28.35
27.73
27.20
26.82
26.63
26.60
26.70
26.91
27.19
27.46
27.59
27.39
26.66
25.21
22.94
19.88
16.14
11.92
7.43
2.89
-1.56
-5.83
-9.86
-13.64
-17.11
-20.28
-23.16
-25.87
-28.57
-31.40
-34.47
-37.74
-41.01
-43.89
-45.84
-46.25
-44.58
-40.57
-34.30
-26.23
-17.08
-7.65
1.27
9.10
15.47
20.31
23.77
26.10
27.54
28.28
28.45
28.13
27.38
26.24
24.72
22.73
20.16
16.97
13.30
9.52
6.12
3.49
1.77
0.81
0.25
-0.23
-0.91
-1.90
-3.23
-4.81
-6.50
-8.08
-9.34
-10.15
-10.49
-10.55
-10.59
-10.88
-11.59
-12.73
-14.23
-15.99
-17.92
-20.05
-22.41
-25.01
-27.78
-30.51
-32.83
-34.25
-34.28
-32.50
-28.74
-23.15
-16.26
-8.87
-1.97
3.52
6.95
8.13
7.32
5.16
2.39
-0.26
-2.26
-3.24
-3.12
-2.08
-0.73
0.09
-0.49
-3.01
-7.37
-12.78
-18.09
-22.25
-24.69
-25.39
-24.78
-23.43
-21.98
-21.04
-21.19
-22.79
-25.70
-29.14
-31.79
-32.28
-29.60
-23.59
-14.82
-4.34
6.69
17.31
26.85
34.96
41.57
46.75
50.47
52.27
51.09
45.43
33.85
15.74
-8.16
-35.67
-63.60
-88.57
-107.87
-119.79
-123.68
-119.76
-108.71
-91.51
-69.56
-44.76
-19.51
3.63
22.58
36.39
45.50
51.16
54.50
55.57
53.20
45.75
32.45
14.53
-4.67
-20.64
-29.27
-28.28
-17.85
-0.13
21.67
44.38
65.53
83.29
96.40
104.14
106.24
103.14
96.11
86.91
77.43
69.13
62.60
57.62
53.50
49.58
45.53
41.38
37.12
32.46
26.69
18.95
8.75
-3.73
-17.57
-31.46
-44.23
-55.16
-64.07
-70.97
-75.70
-77.67
-75.99
-69.84
-58.96
-43.94
-26.30
-7.99
8.98
23.18
33.93
41.22
45.54
47.43
47.18
44.73
39.88
32.46
22.83
12.01
1.69
-6.10
-9.61
-7.99
-1.61
7.89
18.14
26.75
32.06
33.50
31.55
27.25
21.63
15.35
8.48
0.84
-7.67
-16.88
-26.25
-34.99
-42.33
-47.56
-50.19
-50.00
-47.06
-41.78
-34.91
-27.50
-20.61
-15.20
-11.93
-11.10
-12.71
-16.46
-21.74
-27.65
-33.04
-36.68
-37.60
-35.32
-30.04
-22.66
-14.44
-6.73
-0.50
3.85
6.60
8.49
10.46
13.22
16.99
21.43
25.75
29.01
30.65
30.63
29.60
28.63
28.92
31.34
36.18
43.01
50.75
57.90
62.87
64.33
61.53
54.37
43.37
29.41
13.57
-3.23
-20.14
-36.52
-51.75
-65.22
-76.25
-84.14
-88.22
-87.99
-83.18
-73.99
-61.15
-46.00
-30.35
-16.10
-4.98
1.83
3.80
1.13
-5.24
-13.81
-22.69
-30.06
-34.56
-35.66
-33.70
-29.70
-24.87
-20.22
-16.35
-13.35
-11.01
-8.94
-6.74
-4.01
-0.51
3.81
8.71
13.71
18.33
22.15
25.11
27.33
29.06
30.47
31.67
32.73
33.77
34.97
36.43
38.11
39.69
40.69
40.57
39.01
35.94
31.64
26.67
21.62
17.00
13.14
10.11
7.84
6.19
5.03
4.24
3.76
3.53
3.47
3.56
3.87
4.65
6.22
8.84
12.50
16.86
21.20
24.67
26.42
25.85
22.62
16.81
8.75
-0.92
-11.39
-21.76
-31.18
-39.00
-44.81
-48.58
-50.54
-51.15
-50.89
-50.23
-49.47
-48.71
-47.91
-46.93
-45.64
-43.98
-41.99
-39.81
-37.63
-35.65
-33.99
-32.69
-31.66
-30.61
-29.25
-27.30
-24.66
-21.36
-17.64
-13.80
-10.17
-7.03
-4.55
-2.82
-1.82
-1.46
-1.54
-1.77
-1.74
-1.00
0.91
4.25
9.09
15.27
22.56
30.72
39.58
49.00
58.69
68.14
76.58
83.20
87.45
89.25
88.99
87.41
85.25
83.05
80.96
78.72
75.75
71.30
64.70
55.57
44.08
30.93
17.24
4.28
-6.83
-15.37
-21.08
-24.15
-25.09
-24.53
-23.16
-21.58
-20.28
-19.64
-19.96
-21.45
-24.25
-28.21
-32.93
-37.63
-41.34
-43.14
-42.41
-38.99
-33.22
-25.79
-17.57
-9.36
-1.80
4.67
9.85
13.68
16.19
17.51
17.84
17.41
16.48
15.22
13.58
11.25
7.79
2.82
-3.67
-11.22
-19.06
-26.32
-32.25
-36.40
-38.59
-38.80
-37.28
-34.54
-31.38
-28.78
-27.55
-27.89
-29.06
-29.48
-26.99
-19.49
-5.58
14.98
41.10
70.40
99.47
124.22
140.46
144.72
135.23
112.70
80.51
43.88
8.44
-21.65
-44.80
-62.15
-76.35
-89.83
-103.33
-115.49
-123.55
-124.73
-117.47
-101.97
-79.90
-53.65
-25.93
0.53
22.93
38.52
45.34
43.12
33.90
21.66
10.91
4.72
3.43
4.66
4.83
1.32
-5.93
-14.31
-19.73
-18.75
-10.03
5.22
23.91
42.32
57.26
66.67
69.78
66.96
59.44
49.12
38.32
29.32
23.91
22.93
26.12
32.27
39.56
46.12
50.41
51.52
49.10
43.25
34.25
22.45
8.32
-7.45
-23.89
-39.84
-54.25
-66.57
-76.91
-85.94
-94.40
-102.42
-109.24
-113.18
-112.33
-105.30
-91.95
-73.39
-51.72
-29.29
-8.23
9.78
23.53
32.23
35.52
33.63
27.58
19.04
9.98
2.20
-3.12
-5.67
-5.80
-4.37
-2.29
-0.31
1.22
2.35
3.46
5.08
7.67
11.46
16.30
21.68
26.82
30.93
33.45
34.20
33.40
31.51
28.95
25.89
22.25
17.81
12.48
6.45
0.16
-5.90
-11.45
-16.48
-21.22
-25.83
-30.30
-34.29
-37.37
-39.16
-39.51
-38.50
-36.27
-32.93
-28.40
-22.64
-15.69
-7.91
0.09
7.57
13.88
18.66
21.87
23.68
24.34
24.07
23.03
21.46
19.67
18.02
16.77
16.04
15.65
15.31
14.74
13.85
12.79
11.90
11.50
11.70
12.29
12.78
12.63
11.48
9.27
6.29
2.99
-0.19
-3.01
-5.46
-7.71
-9.96
-12.30
-14.71
-16.99
-18.95
-20.46
-21.60
-22.62
-23.93
-25.87
-28.59
-31.97
-35.62
-39.07
-41.91
-43.81
-44.44
-43.46
-40.51
-35.37
-28.28
-20.00
-11.77
-4.86
-0.13
2.38
3.52
4.67
7.29
12.31
19.81
28.99
38.54
47.00
53.36
57.18
58.56
57.91
55.65
52.05
47.26
41.45
34.94
28.16
21.59
15.62
10.49
6.27
2.89
0.18
-2.09
-4.13
-6.00
-7.51
-8.33
-8.13
-6.84
-4.82
-2.79
-1.68
-2.22
-4.82
-9.36
-15.32
-21.84
-27.85
-32.22
-33.84
-31.96
-26.52
-18.40
-9.32
-1.39
3.60
4.92
3.30
0.60
-0.84
0.82
6.21
14.52
23.90
32.23
37.94
40.46
40.19
38.11
35.16
31.89
28.40
24.56
20.31
15.90
11.79
8.41
5.97
4.25
2.84
1.27
-0.71
-3.12
-5.77
-8.42
-10.97
-13.37
-15.72
-18.14
-20.63
-23.02
-25.01
-26.22
-26.44
-25.76
-24.71
-24.07
-24.63
-26.84
-30.63
-35.33
-39.97
-43.55
-45.37
-45.10
-42.75
-38.53
-32.75
-25.74
-17.88
-9.57
-1.17
6.98
14.67
21.72
27.98
33.30
37.48
40.39
41.95
42.11
40.95
38.58
35.26
31.35
27.31
23.61
20.63
18.66
17.83
18.23
19.81
22.36
25.41
28.25
30.03
30.16
28.44
25.26
21.34
17.38
13.78
10.43
6.90
2.65
-2.63
-8.90
-15.74
-22.41
-28.06
-31.97
-33.72
-33.42
-31.72
-29.56
-27.82
-26.98
-26.98
-27.36
-27.53
-27.14
-26.16
-24.78
-23.29
-21.82
-20.31
-18.56
-16.30
-13.23
-9.18
-4.14
1.58
7.46
12.84
17.16
20.12
21.61
21.62
20.22
17.50
13.70
9.32
5.09
1.73
-0.32
-1.02
-0.73
0.02
0.77
1.31
1.60
1.70
1.58
1.11
0.12
-1.54
-3.99
-7.20
-11.12
-15.61
-20.49
-25.57
-30.65
-35.57
-40.19
-44.46
-48.39
-52.01
-55.40
-58.59
-61.52
-63.96
-65.55
-65.86
-64.47
-61.08
-55.63
-48.27
-39.37
-29.38
-18.78
-7.92
2.98
13.82
24.58
35.09
44.90
53.16
58.80
61.03
59.68
55.64
50.50
46.05
43.37
42.37
41.94
40.63
37.63
33.41
29.65
28.52
31.62
39.28
50.35
62.75
74.20
83.02
88.41
90.39
89.45
86.17
81.03
74.45
66.98
59.46
52.95
48.47
46.66
47.54
50.53
54.79
59.72
65.32
72.32
81.82
94.73
111.20
130.40
150.57
169.63
185.61
196.90
202.57
202.53
197.58
190.33
185.13
186.94
199.13
221.36
248.92
273.97
288.14
285.18
263.30
225.03
175.33
119.03
59.49
-1.08
-60.20
-114.43
-160.48
-195.39
-217.49
-227.03
-226.18
-218.01
-205.15
-188.84
-169.38
-148.99
-128.90
-108.46
-85.59
-59.29
-31.31
-5.89
12.43
20.12
11.56
-13.82
-50.35
-88.42
-120.10
-142.42
-156.58
-164.73
-169.93
-182.72
-210.09
-252.13
-302.42
-353.81
-402.48
-447.48
-487.89
-524.52
-568.68
-627.66
-700.30
-776.80
-846.09
-901.84
-942.35
-967.19
-907.86
-730.51
-456.68
-154.89
111.54
315.03
456.89
542.82
597.04
633.30
647.70
636.49
600.67
549.13
495.16
447.64
410.67
385.97
370.82
353.78
326.63
285.11
232.49
175.27
118.35
63.74
11.87
-40.00
-99.55
-149.63
-174.96
-170.19
-143.30
-107.29
-71.01
-37.37
-7.38
16.84
34.44
43.25
43.52
38.21
31.06
25.28
22.88
23.90
26.83
30.44
31.72
29.04
23.20
16.16
10.14
6.70
6.31
8.95
14.49
21.20
25.41
28.60
32.52
38.74
48.24
61.25
77.35
95.77
114.73
132.56
148.60
162.48
174.07
183.50
190.84
196.23
199.96
202.18
203.32
204.62
207.16
211.85
219.49
230.33
243.99
259.49
275.39
290.00
301.60
310.46
315.52
315.54
309.10
294.68
270.93
236.96
192.69
139.18
78.34
12.51
-55.53
-123.11
-188.07
-249.04
-305.48
-357.72
-406.58
-452.65
-495.66
-533.45
-562.29
-578.03
-577.88
-561.87
-533.22
-497.27
-459.39
-423.44
-390.66
-360.20
-330.61
-300.99
-271.35
-242.18
-213.87
-186.64
-161.04
-138.36
-120.51
-109.09
-104.49
-105.33
-109.06
-113.31
-117.06
-121.04
-126.59
-134.19
-142.32
-147.75
-146.98
-137.97
-121.27
-99.65
-76.74
-55.44
-37.02
-21.38
-7.73
4.33
14.46
21.86
25.92
26.78
25.37
22.96
20.51
18.20
15.42
11.05
4.11
-5.81
-18.36
-32.55
-47.16
-61.19
-74.15
-86.08
-97.36
-108.35
-119.15
-129.49
-138.79
-146.43
-151.91
-155.03
-155.86
-154.68
-151.73
-147.19
-141.09
-133.41
-124.12
-113.34
-101.32
-88.47
-75.23
-62.02
-49.21
-37.05
-25.75
-15.49
-6.44
1.24
7.39
11.88
14.63
15.58
14.75
12.17
7.95
2.22
-4.85
-13.05
-22.13
-31.82
-41.82
-51.84
-61.55
-70.63
-78.75
-85.56
-90.72
-93.92
-94.90
-93.51
-89.73
-83.65
-75.53
-65.67
-54.45
-42.21
-29.18
-15.48
-1.07
14.28
30.95
49.43
70.29
94.01
120.91
151.05
184.05
219.09
254.80
289.34
320.49
345.83
363.11
370.40
366.53
351.23
325.33
290.65
249.82
205.97
162.31
121.77
86.65
58.43
37.71
24.17
16.79
14.01
14.04
15.10
15.69
14.73
11.67
6.50
-0.31
-7.86
-15.08
-20.83
-24.12
-24.24
-20.90
-14.18
-4.59
7.06
19.83
32.78
45.07
55.97
64.95
71.58
75.50
76.45
74.35
69.34
61.95
53.01
43.55
34.56
26.68
20.09
14.48
9.30
4.91
1.94
-0.02
-0.74
0.76
4.82
10.91
17.77
24.00
29.50
35.17
41.46
49.86
62.41
79.97
101.76
125.77
149.72
173.97
200.01
226.91
255.40
288.10
326.79
372.15
423.55
478.74
538.78
601.66
653.91
685.67
695.70
686.37
662.65
629.66
590.23
554.87
530.16
502.46
467.53
436.75
421.85
429.71
458.45
497.38
547.70
607.40
645.21
645.89
619.56
579.32
537.66
504.09
484.52
503.37
576.80
672.90
768.27
862.41
954.37
1043.44
1129.25
1072.32
791.08
486.76
248.24
29.04
-180.50
-380.47
-563.57
-719.76
-841.51
-905.66
-901.43
-868.05
-834.79
-804.05
-775.34
-746.51
-716.11
-685.01
-639.56
-571.56
-507.85
-466.04
-443.16
-434.98
-436.56
-443.39
-452.18
-450.62
-430.25
-405.13
-384.14
-364.30
-343.29
-320.31
-296.46
-274.36
-251.74
-226.59
-205.88
-192.56
-183.18
-174.90
-166.34
-157.79
-150.65
-144.60
-138.95
-135.57
-134.26
-132.33
-127.69
-119.51
-108.45
-96.15
-84.52
-75.05
-68.33
-64.14
-61.72
-60.28
-59.32
-58.81
-58.98
-60.08
-62.11
-64.70
-67.17
-68.87
-69.27
-68.12
-65.40
-61.20
-55.72
-49.25
-42.16
-34.85
-27.55
-20.21
-12.56
-4.40
3.92
11.21
15.50
14.67
7.25
-6.86
-26.07
-47.49
-67.82
-84.31
-95.50
-101.36
-102.94
-101.59
-98.32
-93.32
-86.11
-75.94
-62.31
-45.47
-26.44
-6.81
11.75
27.86
40.67
49.81
55.15
56.65
54.20
47.75
37.43
23.72
7.60
-9.58
-26.29
-41.13
-53.13
-61.94
-67.84
-71.55
-73.85
-75.18
-75.38
-73.69
-69.14
-61.04
-49.54
-35.76
-21.64
-9.49
-1.36
1.35
-1.75
-10.02
-22.05
-35.87
-49.41
-60.88
-68.95
-72.87
-72.45
-68.00
-60.29
-50.58
-40.36
-31.03
-23.41
-17.42
-12.14
-6.29
1.01
9.75
18.88
26.88
32.36
34.75
34.40
32.27
29.35
26.25
23.12
19.83
16.31
12.79
9.70
7.45
6.28
6.13
6.76
7.99
9.88
12.70
16.81
22.41
29.29
36.76
43.76
49.15
51.94
51.62
48.22
42.19
34.24
25.11
15.39
5.56
-4.02
-12.93
-20.74
-26.96
-31.18
-33.15
-32.91
-30.82
-27.44
-23.50
-19.65
-16.35
-13.73
-11.76
-10.32
-9.38
-8.95
-9.07
-9.60
-10.17
-10.30
-9.58
-7.86
-5.32
-2.43
0.25
2.31
3.56
4.11
4.31
4.63
5.55
7.34
10.06
13.43
16.95
20.02
22.18
23.20
23.19
22.49
21.55
20.79
20.39
20.29
20.15
19.42
17.57
14.23
9.39
3.41
-3.07
-9.25
-14.42
-18.09
-20.10
-20.60
-20.00
-18.91
-17.97
-17.77
-18.62
-20.45
-22.80
-24.88
-25.86
-25.15
-22.58
-18.46
-13.45
-8.36
-3.92
-0.62
1.39
2.32
2.70
3.26
4.72
7.50
11.61
16.61
21.74
26.22
29.44
31.04
30.95
29.27
26.24
22.27
17.88
13.63
10.05
7.42
5.81
5.06
4.95
5.28
5.93
6.74
7.47
7.84
7.58
6.57
4.92
2.91
0.80
-1.28
-3.33
-5.44
-7.62
-9.77
-11.67
-13.11
-13.96
-14.25
-14.10
-13.69
-13.20
-12.81
-12.61
-12.63
-12.76
-12.84
-12.67
-12.12
-11.07
-9.43
-7.06
-3.84
0.28
5.13
10.28
15.16
19.17
21.88
23.12
22.98
21.69
19.59
17.04
14.43
11.99
9.76
7.52
4.83
1.27
-3.34
-8.76
-14.43
-19.62
-23.75
-26.54
-28.08
-28.65
-28.64
-28.43
-28.36
-28.77
-29.91
-31.80
-34.16
-36.38
-37.72
-37.51
-35.45
-31.64
-26.56
-20.82
-15.02
-9.59
-4.79
-0.79
2.32
4.47
5.60
5.70
4.86
3.24
1.07
-1.33
-3.59
-5.30
-6.12
-5.74
-4.06
-1.19
2.52
6.59
10.43
13.52
15.44
16.00
15.26
13.49
11.11
8.59
6.34
4.64
3.62
3.32
3.75
4.83
6.44
8.42
10.55
12.63
14.52
16.12
17.39
18.22
18.46
17.99
16.88
15.40
14.01
13.24
13.37
14.34
15.68
16.66
16.59
15.01
11.94
7.73
2.98
-1.80
-6.29
-10.42
-14.19
-17.52
-20.16
-21.73
-21.91
-20.73
-18.66
-16.54
-15.28
-15.55
-17.46
-20.51
-23.76
-26.17
-27.01
-26.03
-23.59
-20.42
-17.40
-15.21
-14.21
-14.29
-14.97
-15.50
-15.16
-13.35
-9.87
-4.89
1.07
7.36
13.35
18.60
22.92
26.25
28.62
30.00
30.35
29.69
28.13
25.95
23.50
21.21
19.44
18.42
18.19
18.59
19.19
19.46
18.83
16.90
13.59
9.07
3.81
-1.60
-6.62
-10.84
-13.99
-16.00
-16.97
-17.10
-16.65
-15.90
-15.02
-14.04
-12.88
-11.36
-9.37
-6.97
-4.38
-1.93
0.15
1.85
3.39
5.14
7.39
10.25
13.57
16.98
20.02
22.20
23.07
22.22
19.44
14.77
8.56
1.45
-5.78
-12.36
-17.71
-21.44
-23.39
-23.66
-22.53
-20.50
-18.22
-16.32
-15.22
-15.09
-15.85
-17.37
-19.61
-22.65
-26.62
-31.45
-36.77
-41.93
-46.17
-48.92
-49.94
-49.40
-47.74
-45.50
-43.15
-40.97
-39.06
-37.32
-35.53
-33.39
-30.63
-27.08
-22.77
-17.93
-12.93
-8.22
-4.25
-1.36
0.30
0.85
0.73
0.64
1.37
3.54
7.41
12.75
18.88
24.94
30.03
33.45
34.75
33.70
30.25
24.52
16.90
8.01
-1.33
-10.20
-17.76
-23.31
-26.20
-25.83
-21.62
-13.25
-0.93
14.22
30.18
44.45
54.65
59.29
58.21
52.54
44.20
35.27
27.38
21.45
17.69
15.87
15.54
16.24
17.43
18.58
19.10
18.49
16.41
12.73
7.56
1.15
-6.17
-13.94
-21.53
-28.21
-33.24
-36.08
-36.62
-35.22
-32.54
-29.29
-25.93
-22.59
-19.12
-15.31
-11.03
-6.30
-1.24
4.05
9.44
14.80
19.82
24.06
27.01
28.35
28.08
26.65
24.82
23.49
23.38
24.82
27.69
31.47
35.44
38.87
41.26
42.30
41.99
40.49
38.08
35.08
31.79
28.46
25.24
22.15
19.03
15.69
11.92
7.72
3.29
-1.08
-5.19
-9.08
-13.01
-17.37
-22.37
-27.86
-33.42
-38.44
-42.38
-44.83
-45.45
-43.93
-40.07
-34.03
-26.60
-19.15
-13.23
-9.93
-9.34
-10.51
-11.94
-12.39
-11.41
-9.45
-7.50
-6.42
-6.58
-7.84
-9.85
-12.50
-16.02
-20.83
-27.23
-34.95
-43.11
-50.33
-55.09
-56.20
-53.13
-46.17
-36.32
-24.94
-13.37
-2.56
7.02
15.28
22.22
27.79
31.75
33.94
34.44
33.78
32.84
32.56
33.53
35.74
38.51
40.69
41.11
38.98
34.11
27.06
18.84
10.81
4.32
0.53
0.17
3.50
10.17
19.34
29.75
39.96
48.57
54.49
57.05
56.10
52.02
45.56
37.73
29.64
22.26
16.29
11.91
8.67
5.53
1.17
-5.58
-15.13
-26.72
-38.55
-48.21
-53.58
-53.58
-48.59
-40.28
-30.99
-22.94
-17.66
-15.74
-16.99
-20.79
-26.50
-33.60
-41.74
-50.59
-59.71
-68.53
-76.42
-82.85
-87.48
-90.14
-90.82
-89.48
-86.00
-80.22
-72.02
-61.43
-48.68
-34.25
-18.76
-2.90
12.62
27.14
40.09
50.86
58.85
63.45
64.13
60.76
53.78
44.30
33.97
24.58
17.59
13.81
13.27
15.47
19.66
25.08
31.09
37.12
42.60
46.93
49.57
50.17
48.57
44.89
39.42
32.63
25.11
17.56
10.69
5.02
0.77
-2.27
-4.64
-7.09
-10.19
-14.12
-18.55
-22.76
-25.89
-27.29
-26.79
-24.67
-21.60
-18.26
-15.15
-12.44
-9.98
-7.53
-4.93
-2.20
0.48
2.94
5.12
7.11
9.01
10.85
12.47
13.67
14.41
15.02
16.15
18.49
22.42
27.65
33.17
37.60
39.55
38.10
33.00
24.58
13.62
1.21
-11.32
-22.51
-30.91
-35.47
-35.81
-32.44
-26.60
-19.84
-13.52
-8.50
-4.99
-2.83
-1.70
-1.35
-1.68
-2.65
-4.23
-6.39
-9.11
-12.32
-15.91
-19.63
-23.05
-25.67
-27.11
-27.20
-26.06
-24.05
-21.59
-19.03
-16.57
-14.25
-12.01
-9.78
-7.47
-5.03
-2.44
0.32
3.18
6.04
8.83
11.47
13.99
16.52
19.20
22.17
25.46
28.89
32.09
34.54
35.72
35.29
33.25
29.96
25.96
21.84
18.05
14.82
12.20
10.17
8.74
7.98
7.96
8.70
10.05
11.70
13.22
14.17
14.10
12.62
9.41
4.31
-2.55
-10.67
-19.15
-26.82
-32.51
-35.29
-34.72
-30.94
-24.65
-16.90
-8.98
-2.11
2.76
5.12
5.00
2.88
-0.36
-3.71
-6.15
-6.86
-5.41
-1.89
3.06
8.33
12.64
14.94
14.77
12.37
8.61
4.64
1.51
-0.06
0.17
2.04
5.17
9.06
13.22
17.17
20.45
22.65
23.48
22.86
20.94
18.13
15.01
12.16
10.08
9.09
9.20
10.21
11.68
13.11
14.06
14.23
13.56
12.20
10.37
8.31
6.17
4.03
1.95
0.04
-1.57
-2.76
-3.51
-3.96
-4.36
-5.03
-6.20
-7.99
-10.35
-13.09
-15.96
-18.72
-21.18
-23.24
-24.90
-26.17
-27.08
-27.60
-27.62
-26.88
-25.15
-22.33
-18.57
-14.31
-10.25
-7.04
-5.05
-4.25
-4.09
-3.73
-2.27
0.94
6.04
12.61
19.73
26.18
30.63
32.01
29.64
23.51
14.26
3.08
-8.46
-18.83
-26.81
-31.73
-33.50
-32.53
-29.48
-25.08
-19.94
-14.57
-9.37
-4.74
-1.03
1.57
3.06
3.63
3.53
2.98
2.05
0.70
-1.12
-3.34
-5.81
-8.31
-10.71
-13.02
-15.37
-17.87
-20.40
-22.55
-23.72
-23.32
-21.09
-17.27
-12.58
-7.94
-4.20
-1.78
-0.64
-0.38
-0.51
-0.61
-0.44
0.18
1.45
3.61
6.80
10.88
15.37
19.57
22.77
24.59
25.06
24.59
23.71
22.83
22.10
21.46
20.80
20.06
19.33
18.70
18.21
17.72
16.95
15.60
13.51
10.76
7.67
4.66
2.15
0.37
-0.68
-1.22
-1.63
-2.28
-3.43
-5.12
-7.17
-9.27
-11.10
-12.50
-13.48
-14.23
-14.93
-15.67
-16.38
-16.87
-16.87
-16.17
-14.64
-12.26
-9.14
-5.52
-1.73
1.84
4.82
7.05
8.54
9.51
10.22
10.81
11.19
10.92
9.35
5.83
-0.05
-8.13
-17.59
-27.06
-34.88
-39.55
-40.15
-36.51
-29.16
-19.12
-7.66
3.92
14.46
22.99
28.84
31.77
31.99
30.16
27.13
23.78
20.75
18.33
16.44
14.70
12.58
9.47
4.95
-1.12
-8.45
-16.29
-23.65
-29.63
-33.66
-35.74
-36.28
-35.96
-35.33
-34.67
-33.85
-32.52
-30.24
-26.71
-21.88
-15.97
-9.47
-3.02
2.66
6.93
9.36
9.84
8.62
6.26
3.42
0.72
-1.45
-2.92
-3.64
-3.56
-2.51
-0.23
3.54
8.87
15.48
22.76
29.81
35.64
39.40
40.52
38.80
34.41
27.89
19.99
11.64
3.79
-2.69
-7.15
-9.35
-9.58
-8.65
-7.74
-8.12
-10.73
-15.85
-22.78
-29.90
-35.00
-35.95
-31.44
-21.56
-7.97
6.55
18.95
26.75
28.78
25.36
18.06
9.10
0.74
-5.26
-7.91
-7.12
-3.64
1.19
5.69
8.24
7.57
3.10
-4.92
-15.36
-26.34
-35.60
-40.96
-40.76
-34.33
-22.09
-5.52
13.23
31.76
47.85
59.85
66.82
68.59
65.59
58.66
48.90
37.50
25.65
14.49
4.99
-2.21
-6.88
-9.23
-9.78
-9.20
-8.06
-6.68
-5.11
-3.19
-0.68
2.56
6.42
10.52
14.24
16.87
17.83
16.93
14.40
10.85
7.03
3.49
0.50
-2.06
-4.45
-6.87
-9.30
-11.50
-12.99
-13.30
-12.12
-9.39
-5.44
-0.94
3.25
6.26
7.55
7.04
5.16
2.64
0.24
-1.54
-2.53
-2.79
-2.43
-1.51
-0.05
1.79
3.64
4.95
5.22
4.17
1.93
-1.08
-4.30
-7.31
-9.91
-12.01
-13.59
-14.56
-14.81
-14.32
-13.22
-11.84
-10.53
-9.60
-9.22
-9.43
-10.23
-11.57
-13.39
-15.58
-17.92
-20.18
-22.21
-23.95
-25.52
-27.13
-28.94
-30.96
-32.98
-34.62
-35.41
-34.95
-33.06
-29.81
-25.49
-20.50
-15.19
-9.75
-4.27
1.17
6.38
11.00
14.55
16.65
17.23
16.61
15.47
14.76
15.33
17.73
22.02
27.76
34.06
39.82
43.98
45.69
44.53
40.49
34.08
26.12
17.68
9.85
3.51
-0.77
-2.92
-3.30
-2.65
-1.81
-1.62
-2.66
-5.20
-9.22
-14.37
-20.09
-25.72
-30.58
-34.13
-36.11
-36.50
-35.51
-33.47
-30.72
-27.49
-23.91
-19.96
-15.61
-10.80
-5.52
0.18
6.17
12.28
18.28
23.88
28.73
32.50
34.88
35.67
34.81
32.46
28.86
24.35
19.28
14.02
8.95
4.42
0.74
-1.93
-3.57
-4.32
-4.33
-3.77
-2.75
-1.38
0.16
1.60
2.62
2.92
2.35
0.94
-1.03
-3.15
-5.04
-6.42
-7.30
-7.95
-8.83
-10.34
-12.68
-15.69
-18.83
-21.37
-22.51
-21.65
-18.54
-13.39
-6.80
0.32
7.04
12.59
16.58
18.99
20.08
20.25
19.90
19.37
18.94
18.80
19.05
19.60
20.23
20.64
20.57
19.86
18.54
16.74
14.66
12.54
10.60
9.10
8.34
8.62
10.06
12.58
15.70
18.67
20.63
20.87
19.09
15.38
10.22
4.17
-2.22
-8.52
-14.45
-19.77
-24.37
-28.33
-31.97
-35.65
-39.67
-43.88
-47.69
-50.09
-50.01
-46.71
-40.04
-30.58
-19.45
-8.07
2.25
10.60
16.61
20.44
22.65
23.89
24.68
25.35
26.05
26.83
27.76
28.83
29.93
30.73
30.79
29.72
27.39
24.00
20.06
16.19
12.86
10.32
8.57
7.48
6.94
6.86
7.20
7.94
8.99
10.25
11.58
12.86
13.87
14.32
13.84
12.17
9.28
5.55
1.67
-1.47
-3.20
-3.23
-1.90
-0.00
1.43
1.54
-0.06
-3.11
-6.90
-10.48
-13.11
-14.50
-14.87
-14.77
-14.70
-14.85
-14.97
-14.59
-13.33
-11.11
-8.25
-5.17
-2.14
0.75
3.40
5.33
5.46
2.21
-6.12
-20.94
-43.09
-72.64
-108.74
-149.47
-191.56
-230.39
-260.53
-276.98
-276.52
-258.96
-227.30
-186.62
-142.42
-98.79
-57.32
-16.93
25.13
71.51
122.83
176.49
226.83
266.91
291.05
297.12
287.25
266.71
241.55
216.31
193.01
171.78
152.35
135.04
120.72
109.80
101.46
93.83
85.17
75.15
65.34
58.29
56.17
59.43
66.57
74.89
81.76
85.53
85.71
82.55
76.47
67.95
57.67
46.51
35.43
25.00
15.18
5.43
-4.88
-16.08
-27.96
-39.91
-51.16
-61.27
-70.07
-77.54
-83.48
-87.40
-89.03
-88.38
-85.95
-82.58
-79.21
-76.35
-73.89
-71.13
-67.16
-61.78
-55.04
-46.84
-36.70
-24.15
-9.51
5.46
17.73
24.07
21.66
10.68
-5.28
-20.89
-31.91
-37.54
-40.53
-45.25
-55.20
-72.82
-97.21
-124.65
-150.48
-171.33
-186.25
-196.34
-203.33
-208.42
-214.18
-221.80
-230.76
-239.41
-245.91
-248.83
-246.58
-236.91
-204.96
-144.28
-60.51
29.61
108.05
164.73
199.08
215.84
220.13
215.09
200.05
174.99
143.92
114.85
96.46
93.90
106.52
128.40
152.37
166.58
163.05
141.73
109.27
74.69
44.73
22.02
4.08
-10.57
-23.12
-32.55
-36.78
-34.65
-27.32
-18.52
-13.22
-15.64
-25.33
-40.93
-58.73
-74.02
-83.03
-84.18
-78.15
-66.91
-52.31
-35.00
-15.34
6.93
31.74
58.09
84.00
107.06
125.26
137.88
145.34
148.19
146.96
141.72
132.16
118.18
100.47
80.63
60.57
41.75
24.41
7.78
-9.30
-27.98
-49.17
-73.80
-103.08
-138.24
-179.32
-223.74
-265.48
-296.13
-307.40
-294.15
-256.09
-197.72
-126.63
-50.86
23.18
91.15
149.92
196.45
227.16
238.96
230.81
204.03
162.17
110.14
53.03
-4.33
-57.03
-100.18
-128.75
-138.94
-131.12
-110.56
-85.85
-65.82
-56.00
-56.98
-65.68
-77.36
-88.01
-96.63
-103.89
-109.78
-112.13
-106.76
-86.94
-51.58
-8.25
34.54
65.99
74.54
52.63
0.27
-72.74
-148.33
-205.79
-228.02
-207.03
-147.11
-61.94
31.32
117.33
186.07
233.65
261.13
273.74
280.02
289.33
309.91
346.34
397.28
455.12
508.18
544.76
557.70
546.69
517.29
478.09
437.25
399.79
366.77
336.25
305.30
272.18
237.16
201.78
167.91
136.95
109.77
87.16
70.24
60.20
57.76
62.24
71.21
80.97
87.99
90.09
87.16
81.12
75.03
71.80
73.12
78.96
87.68
96.86
104.21
108.14
108.09
104.22
97.07
87.06
74.41
59.13
41.40
21.85
1.59
-17.90
-35.12
-49.06
-59.41
-66.63
-71.81
-76.13
-80.65
-85.94
-92.13
-99.04
-106.43
-114.14
-122.23
-130.94
-140.49
-150.90
-161.95
-173.20
-184.21
-194.76
-205.03
-215.65
-227.50
-241.49
-258.28
-278.12
-300.83
-325.86
-352.46
-379.86
-407.58
-435.84
-465.87
-499.83
-539.83
-586.31
-636.50
-684.13
-720.60
-737.69
-730.33
-698.28
-645.93
-580.73
-510.89
-443.68
-384.46
-336.18
-299.33
-271.96
-250.19
-229.32
-205.34
-176.22
-142.33
-105.90
-69.99
-37.63
-11.25
7.45
17.84
20.45
16.64
7.86
-5.40
-23.76
-48.20
-78.40
-111.42
-141.94
-163.86
-172.79
-167.73
-150.80
-125.54
-94.75
-59.74
-21.34
17.92
52.47
74.61
77.75
60.15
27.01
-10.91
-41.32
-55.59
-51.86
-35.07
-13.68
4.88
17.38
25.37
33.13
44.46
60.38
78.70
95.45
107.29
113.14
114.60
114.85
117.08
123.02
132.74
145.51
160.61
177.13
192.89
203.39
202.31
184.22
148.01
99.05
48.00
6.59
-17.47
-23.39
-16.58
-4.78
6.18
14.53
21.59
29.09
36.94
42.99
44.78
41.50
34.79
27.69
23.01
21.79
23.16
25.22
26.44
26.63
26.81
28.53
32.73
39.01
45.70
50.69
52.53
51.29
48.50
46.44
46.79
49.76
54.05
57.46
58.20
55.89
51.95
49.11
50.73
59.87
78.25
105.11
136.07
162.94
175.30
163.93
124.95
62.59
-11.27
-81.15
-133.64
-162.20
-168.33
-159.11
-142.64
-124.29
-105.56
-85.76
-64.64
-44.06
-27.47
-17.89
-15.90
-18.90
-22.01
-20.42
-11.33
5.24
26.83
49.63
69.63
83.51
89.07
85.83
75.34
61.18
48.26
41.66
45.19
60.49
86.00
117.29
148.22
172.94
188.08
194.03
194.77
196.06
203.25
218.59
240.33
263.66
282.98
294.05
294.76
284.44
262.76
230.52
189.60
144.15
100.62
65.97
44.53
35.39
31.96
25.01
10.23
-10.57
-29.63
-37.31
-27.03
1.60
42.77
87.60
128.53
167.57
210.93
265.11
332.59
410.45
491.93
568.75
632.52
675.28
698.61
705.80
700.70
686.75
667.72
649.34
638.85
642.47
663.23
711.27
793.07
908.74
1049.51
1199.05
1338.41
1451.29
1527.58
1498.61
1325.51
1008.82
596.04
160.37
-234.85
-557.08
-802.23
-981.26
-1108.50
-1185.61
-1212.98
-1194.89
-1143.05
-1074.53
-1005.59
-946.86
-902.25
-870.82
-841.25
-803.24
-751.71
-688.99
-622.98
-562.22
-512.08
-473.88
-446.13
-421.12
-392.04
-355.51
-312.90
-268.99
-228.99
-196.18
-171.37
-153.91
-139.85
-125.75
-109.77
-92.28
-75.22
-60.56
-49.27
-41.10
-35.06
-29.40
-22.63
-14.04
-3.80
7.26
18.27
28.74
38.66
48.46
58.14
67.80
77.47
87.12
96.65
105.92
114.87
123.48
131.87
139.42
145.66
150.08
152.25
151.72
148.10
140.86
129.02
116.18
103.79
92.69
83.19
75.11
68.05
61.59
55.53
49.93
45.05
40.34
35.22
28.86
20.35
8.92
-5.69
-23.10
-42.31
-61.89
-81.04
-99.21
-116.40
-133.28
-151.03
-171.01
-194.11
-220.12
-247.11
-271.75
-289.35
-295.17
-285.83
-260.55
-221.65
-173.98
-123.59
-75.94
-34.83
-1.69
24.10
44.41
61.51
77.41
93.56
110.64
128.48
145.90
160.94
171.01
173.56
166.70
149.80
123.78
91.09
55.24
20.16
-10.82
-35.79
-54.85
-69.86
-83.73
-99.13
-117.30
-137.54
-157.49
-174.00
-184.37
-187.22
-182.69
-172.17
-157.53
-140.61
-122.93
-105.71
-89.60
-74.38
-58.59
-39.74
-15.16
16.64
54.79
96.03
135.66
169.36
194.64
211.30
220.67
224.36
223.11
216.63
204.07
184.97
159.82
129.95
97.30
63.74
30.89
-0.06
-28.30
-53.17
-74.10
-90.65
-102.75
-111.05
-117.08
-123.10
-131.27
-142.79
-157.06
-171.75
-183.62
-189.67
-188.26
-179.49
-164.95
-147.01
-128.12
-110.36
-95.30
-83.95
-76.73
-73.36
-73.01
-74.58
-77.10
-80.18
-83.95
-88.89
-95.35
-103.26
-112.09
-121.04
-129.26
-136.04
-140.77
-142.86
-141.80
-137.35
-129.66
-119.48
-107.98
-96.49
-86.10
-77.40
-70.57
-65.47
-61.85
-59.35
-57.34
-54.82
-50.39
-42.58
-30.22
-12.85
9.04
34.10
60.33
85.49
107.59
125.38
138.46
147.31
152.98
156.69
159.55
162.13
164.42
165.89
165.67
162.88
157.22
149.02
139.15
128.66
118.20
107.81
97.06
85.52
73.19
60.59
48.56
37.77
28.43
20.29
12.92
6.11
0.13
-4.33
-6.34
-5.13
-0.53
6.74
15.06
22.33
26.60
26.91
23.68
18.54
13.84
11.79
14.17
22.12
36.19
56.21
80.89
107.42
131.61
148.93
156.09
152.32
139.33
119.98
96.26
67.83
32.56
-11.62
-64.15
-120.54
-173.22
-214.25
-238.42
-245.03
-237.54
-221.52
-201.94
-181.60
-161.23
-141.06
-122.57
-109.22
-105.50
-114.79
-137.24
-168.81
-202.49
-230.66
-247.92
-252.49
-246.07
-232.27
-214.74
-196.06
-177.46
-159.67
-143.54
-130.36
-121.15
-116.06
-113.98
-112.80
-109.97
-103.26
-91.56
-75.22
-55.97
-36.19
-17.90
-2.25
10.67
21.76
32.42
43.76
56.03
67.88
77.68
84.35
87.72
88.17
86.57
83.97
80.86
76.81
69.48
57.09
39.59
18.51
-4.30
-26.87
-47.24
-64.19
-77.40
-89.11
-100.43
-110.28
-116.40
-118.13
-116.68
-114.37
-113.85
-116.20
-122.47
-129.59
-130.69
-118.33
-88.79
-42.01
20.49
96.69
195.45
307.86
410.67
479.35
508.31
504.74
477.78
437.66
389.52
341.65
298.80
263.04
234.07
209.65
185.25
156.64
122.52
84.67
47.45
18.69
6.45
14.20
38.34
70.76
104.33
135.09
161.25
182.23
196.42
202.81
201.39
194.10
183.45
172.02
161.71
152.85
144.43
135.98
125.88
113.13
98.22
82.66
68.37
56.91
48.90
44.17
41.57
39.03
34.73
27.80
18.33
6.92
-5.72
-19.13
-33.06
-47.50
-63.27
-81.74
-104.63
-133.46
-168.68
-208.70
-249.54
-285.52
-311.08
-323.06
-321.64
-309.89
-292.28
-272.89
-254.47
-238.34
-224.73
-212.88
-200.95
-185.65
-162.78
-128.83
-83.08
-28.81
27.18
76.76
113.50
134.62
141.51
138.37
130.04
120.22
110.70
101.72
92.83
83.68
74.23
64.65
54.89
44.79
34.28
23.72
13.97
6.07
0.68
-2.44
-4.47
-7.01
-11.43
-18.23
-26.84
-35.82
-43.39
-47.95
-48.64
-45.41
-38.93
-30.15
-20.00
-9.15
1.94
12.81
22.78
30.97
36.50
38.76
37.56
33.10
25.68
15.91
4.70
-6.50
-15.81
-21.55
-22.98
-20.72
-16.55
-12.56
-10.21
-9.86
-10.92
-12.27
-12.58
-10.33
-4.05
7.23
23.08
41.17
57.63
68.48
71.53
67.44
59.25
50.57
43.42
37.26
29.53
17.46
-0.24
-22.78
-47.98
-73.48
-97.66
-119.64
-138.75
-153.98
-164.03
-167.59
-163.98
-153.41
-136.91
-116.05
-92.51
-67.95
-43.80
-21.24
-0.99
16.90
33.00
48.22
63.38
78.79
94.05
108.22
120.23
129.33
135.42
139.09
141.49
143.99
147.56
152.34
157.16
159.77
157.29
147.26
128.61
102.25
70.85
38.01
7.09
-19.67
-41.43
-58.48
-71.68
-82.04
-90.39
-97.52
-104.14
-110.89
-118.15
-125.89
-133.85
-141.65
-148.95
-155.54
-161.38
-166.56
-171.16
-175.01
-177.68
-178.57
-177.03
-172.55
-164.96
-154.63
-142.63
-130.48
-119.63
-111.09
-105.20
-101.55
-99.15
-96.65
-93.04
-88.09
-82.56
-77.22
-72.83
-70.27
-70.45
-73.77
-79.72
-86.86
-93.47
-98.28
-99.48
-96.06
-88.71
-79.59
-70.94
-63.12
-54.24
-40.88
-19.48
14.32
62.29
120.77
180.00
227.39
252.50
251.13
226.81
189.43
154.92
138.37
148.40
184.90
241.68
310.66
384.38
455.77
501.77
500.56
445.71
353.59
250.97
158.81
86.66
34.56
-1.62
-30.40
-54.10
-71.55
-81.79
-86.80
-90.95
-98.72
-112.25
-132.55
-160.32
-193.74
-230.66
-269.49
-308.79
-345.54
-374.11
-387.86
-382.30
-357.40
-315.53
-261.05
-198.79
-133.17
-68.07
-7.16
45.33
84.52
106.63
111.95
104.88
92.27
80.65
74.09
73.57
77.56
83.28
88.23
91.27
92.08
90.45
85.76
77.39
65.33
50.76
35.73
22.53
12.95
7.27
4.41
2.49
-0.21
-4.41
-9.52
-14.02
-16.11
-14.40
-8.27
2.23
16.39
32.94
50.16
66.10
78.96
87.58
91.82
92.57
91.30
89.40
87.59
85.73
83.16
79.21
73.65
66.99
60.20
54.35
50.17
47.85
47.02
46.96
46.94
46.44
45.26
43.52
41.47
39.41
37.46
35.48
33.14
30.05
26.03
21.14
15.72
10.13
4.60
-0.89
-6.51
-12.40
-18.56
-24.73
-30.56
-35.76
-40.21
-44.03
-47.57
-51.27
-55.52
-60.54
-66.27
-72.32
-77.90
-82.11
-84.05
-83.08
-78.97
-71.90
-62.32
-50.90
-38.36
-25.41
-12.76
-0.97
9.57
18.70
26.44
32.90
38.15
42.23
45.14
46.99
47.99
48.51
48.87
49.30
49.87
50.52
51.09
51.49
51.62
51.45
50.94
50.03
48.76
47.09
45.05
42.66
39.94
36.98
33.96
31.04
28.37
25.92
23.50
20.73
17.29
12.97
7.85
2.23
-3.49
-8.99
-14.02
-18.45
-22.24
-25.36
-27.94
-30.35
-33.04
-36.32
-40.05
-43.40
-45.08
-43.84
-38.94
-30.52
-19.50
-7.25
4.86
15.83
25.12
32.58
38.31
42.48
45.27
46.86
47.41
47.16
46.34
45.14
43.59
41.59
38.90
35.39
31.24
27.09
23.82
22.11
22.17
23.46
25.03
25.91
25.55
23.98
21.71
19.30
17.18
15.46
13.99
12.50
10.71
8.41
5.51
2.12
-1.46
-4.80
-7.53
-9.48
-10.85
-12.11
-13.86
-16.59
-20.45
-25.21
-30.29
-34.92
-38.26
-39.57
-38.30
-34.22
-27.44
-18.51
-8.31
2.16
11.92
20.29
26.94
31.86
35.20
37.08
37.53
36.59
34.36
31.21
27.62
24.15
21.18
18.89
17.14
15.72
14.43
13.23
12.21
11.53
11.37
11.69
12.25
12.67
12.58
11.80
10.45
8.88
7.49
6.51
5.93
5.46
4.74
3.51
1.68
-0.56
-2.81
-4.64
-5.78
-6.26
-6.58
-7.44
-9.57
-13.22
-17.96
-22.67
-25.91
-26.45
-23.70
-17.94
-10.09
-1.37
7.26
15.44
23.48
32.11
41.99
53.17
64.87
75.68
84.18
89.71
92.87
95.46
99.74
107.48
119.03
133.11
147.47
159.80
168.73
174.40
178.50
183.64
193.05
209.71
235.50
270.23
310.74
350.65
381.56
395.69
389.22
364.52
329.62
294.85
268.01
250.46
236.61
216.88
182.71
130.69
63.93
-10.04
-82.89
-148.65
-204.84
-251.37
-288.85
-317.53
-337.58
-349.68
-355.33
-355.90
-351.72
-341.12
-320.65
-287.10
-239.86
-182.13
-119.81
-59.24
-4.64
42.47
83.02
118.81
150.70
177.95
198.60
210.88
214.19
208.98
194.87
171.42
139.25
101.41
63.66
33.10
15.68
13.49
23.45
35.44
39.15
29.16
6.97
-21.43
-49.68
-73.80
-92.97
-108.37
-127.32
-154.43
-188.38
-222.80
-251.09
-270.23
-280.82
-285.27
-286.16
-294.60
-318.45
-357.85
-405.56
-453.32
-497.12
-537.39
-576.46
-616.38
-669.97
-745.32
-839.98
-941.39
-1035.27
-1112.77
-1171.44
-1212.39
-1161.05
-977.80
-680.32
-337.98
-21.38
233.23
421.44
553.86
644.67
706.74
737.84
736.40
707.85
665.72
624.07
591.05
568.69
554.22
544.12
525.96
491.26
439.26
377.66
316.01
263.09
221.73
191.46
170.76
152.12
130.38
104.60
78.99
58.54
46.12
41.53
43.30
49.97
54.32
55.81
55.32
55.89
60.13
69.55
83.69
101.25
120.76
139.76
156.76
170.57
181.26
188.52
192.13
191.57
186.61
177.39
164.36
148.13
127.83
107.95
90.16
75.30
63.33
53.81
46.10
39.48
33.51
27.46
20.79
12.19
0.92
-13.14
-29.33
-46.15
-61.65
-73.75
-81.07
-83.07
-80.86
-76.21
-71.41
-69.04
-71.59
-80.80
-96.89
-118.07
-140.46
-159.57
-171.21
-173.13
-165.80
-151.94
-135.26
-119.01
-105.10
-94.19
-86.59
-82.67
-83.12
-88.62
-99.22
-114.04
-131.39
-149.20
-165.63
-179.33
-189.45
-195.29
-196.16
-191.26
-179.88
-161.85
-137.70
-108.68
-76.66
-43.84
-12.30
16.30
40.86
60.79
75.62
84.97
88.55
86.12
77.69
63.56
44.30
20.85
-5.56
-33.77
-62.41
-89.72
-113.74
-132.49
-144.42
-148.59
-144.73
-133.20
-115.64
-93.89
-69.48
-43.56
-17.29
7.74
29.66
46.74
57.86
61.32
56.62
45.22
30.07
14.53
1.15
-8.35
-12.86
-11.85
-8.03
-4.41
-3.04
-4.26
-7.20
-10.60
-12.93
-12.78
-9.31
-6.15
-7.46
-15.86
-31.41
-52.96
-79.66
-111.51
-149.23
-172.48
-168.50
-137.25
-90.91
-42.71
1.15
40.56
77.05
111.01
141.26
162.77
172.08
169.65
159.81
147.96
137.78
130.65
126.27
123.91
120.52
114.18
104.95
94.67
85.36
77.94
72.25
67.81
64.32
60.24
54.56
47.32
39.58
32.47
26.43
21.30
16.77
12.70
8.34
3.29
-2.43
-8.35
-13.94
-19.07
-23.92
-28.65
-33.35
-38.25
-43.46
-48.92
-54.39
-59.50
-64.08
-67.97
-70.92
-72.60
-72.61
-70.59
-66.28
-60.19
-52.01
-41.85
-30.19
-17.60
-4.75
7.68
19.05
28.87
36.79
42.76
46.76
48.89
49.42
48.68
47.02
44.70
41.93
38.87
35.63
32.19
28.51
24.55
20.36
15.96
11.38
6.67
1.84
-3.03
-8.00
-13.12
-18.49
-24.00
-29.63
-35.34
-41.13
-46.97
-52.84
-58.77
-64.81
-71.06
-77.33
-83.58
-89.76
-95.89
-101.97
-108.04
-114.16
-120.37
-126.78
-133.11
-139.16
-144.70
-149.52
-153.30
-155.67
-156.04
-153.63
-149.81
-145.03
-139.55
-133.53
-127.10
-120.38
-113.51
-106.64
-99.95
-93.68
-87.72
-82.05
-76.69
-71.66
-67.01
-62.75
-58.92
-55.56
-52.75
-50.28
-48.03
-45.89
-43.81
-41.71
-39.57
-37.35
-35.07
-32.75
-30.29
-27.66
-24.85
-21.89
-18.89
-15.93
-13.12
-10.60
-8.50
-6.84
-5.65
-4.94
-4.68
-4.80
-5.17
-5.68
-6.18
-6.58
-6.78
-6.75
-6.50
-6.10
-5.59
-5.04
-4.46
-3.90
-3.40
-3.00
-2.77
-2.73
-2.92
-3.30
-3.77
-4.20
-4.45
-4.42
-4.07
-3.40
-2.45
-1.23
0.35
2.46
5.38
9.33
14.45
20.65
27.64
35.02
42.40
49.60
56.67
63.91
71.65
80.08
89.09
98.24
107.01
114.95
122.04
128.71
135.75
144.01
153.99
165.68
178.57
191.94
205.19
218.12
231.06
244.68
259.84
277.50
298.47
323.09
350.66
379.04
404.57
422.90
430.30
425.04
408.07
382.61
352.89
322.65
294.10
267.94
244.17
223.01
205.40
192.54
184.97
181.67
180.02
176.75
169.39
157.32
141.92
125.44
109.29
92.90
73.74
48.73
16.08
-23.40
-66.45
-108.50
-145.22
-173.33
-190.70
-195.97
-188.52
-168.91
-139.61
-105.39
-72.64
-47.82
-35.64
-37.83
-53.09
-78.03
-108.62
-141.11
-172.19
-198.49
-216.03
-220.31
-207.39
-175.69
-127.64
-70.29
-13.89
31.03
57.26
63.30
53.49
35.73
18.02
5.58
-0.27
-1.00
1.33
5.70
12.41
21.92
33.42
44.16
50.32
48.78
38.82
22.72
4.89
-9.89
-18.25
-19.31
-14.61
-7.05
0.27
5.13
6.58
4.63
-0.25
-7.72
-17.67
-30.07
-44.46
-59.70
-73.97
-85.27
-92.20
-94.50
-93.32
-90.83
-89.48
-91.01
-95.77
-102.51
-109.04
-113.26
-114.33
-113.22
-112.40
-114.41
-120.13
-127.53
-131.70
-126.20
-105.54
-67.48
-14.57
46.33
105.87
155.18
188.34
203.50
202.67
190.33
171.93
152.58
136.10
123.99
114.69
103.82
85.88
57.20
18.93
-21.74
-53.49
-65.33
-51.75
-15.88
31.39
75.59
104.36
111.50
98.18
71.01
38.76
9.40
-11.48
-20.99
-18.65
-5.70
15.13
40.07
64.86
85.42
98.76
103.42
99.76
89.47
75.09
59.19
43.79
29.83
17.14
4.70
-8.72
-23.68
-39.60
-54.74
-66.89
-74.30
-76.54
-74.80
-71.43
-69.05
-69.42
-72.89
-78.47
-84.44
-89.25
-92.02
-92.70
-91.65
-89.23
-85.49
-80.24
-73.35
-64.95
-55.64
-46.28
-37.77
-30.73
-25.41
-21.67
-19.06
-17.01
-14.92
-12.36
-9.05
-4.93
-0.13
5.06
10.26
15.01
18.85
21.38
22.31
21.55
19.27
15.83
11.79
7.77
4.24
1.50
-0.41
-1.62
-2.24
-2.30
-1.71
-0.41
1.56
3.99
6.51
8.75
10.44
11.52
12.03
12.02
11.53
10.53
9.03
7.20
5.28
3.60
2.38
1.68
1.30
0.89
0.08
-1.37
-3.50
-6.12
-8.89
-11.49
-13.62
-15.14
-16.01
-16.26
-15.92
-14.93
-13.24
-10.76
-7.54
-3.71
0.40
4.40
7.90
10.61
12.41
13.28
13.25
12.33
10.49
7.72
4.06
-0.32
-5.19
-10.21
-15.11
-19.69
-23.85
-27.53
-30.69
-33.26
-35.15
-36.33
-36.79
-36.58
-35.74
-34.30
-32.25
-29.63
-26.47
-22.85
-18.78
-14.20
-8.99
-3.06
3.55
10.56
17.57
24.17
30.01
34.87
38.71
41.61
43.86
45.91
48.36
51.81
56.73
63.15
70.60
78.03
84.03
87.12
86.13
80.52
70.45
56.70
40.35
22.51
4.20
-13.57
-29.71
-43.00
-52.36
-57.29
-58.17
-56.35
-53.72
-52.07
-52.50
-55.17
-59.42
-64.23
-68.64
-71.94
-73.75
-73.89
-72.26
-68.93
-64.12
-58.15
-51.40
-44.14
-36.48
-28.46
-20.22
-12.02
-4.27
2.67
8.69
13.97
18.87
23.68
28.43
32.82
36.39
38.74
39.82
39.93
39.62
39.39
39.58
40.27
41.44
43.05
45.10
47.48
49.84
51.61
52.24
51.64
50.47
50.01
51.71
56.32
63.42
71.48
78.32
81.86
80.65
73.95
61.64
44.09
22.32
-1.77
-25.24
-44.55
-56.32
-58.38
-50.45
-34.34
-13.48
7.94
25.99
37.83
42.28
39.87
32.52
22.67
12.58
3.70
-3.45
-8.95
-13.10
-16.07
-17.88
-18.56
-18.26
-17.27
-15.85
-14.10
-11.95
-9.39
-6.59
-4.00
-2.15
-1.37
-1.61
-2.52
-3.63
-4.74
-5.99
-7.75
-10.41
-14.09
-18.55
-23.24
-27.54
-30.87
-32.90
-33.55
-33.00
-31.62
-29.88
-28.21
-26.86
-25.85
-25.01
-24.13
-23.08
-21.82
-20.49
-19.20
-17.99
-16.82
-15.55
-14.10
-12.52
-11.08
-10.17
-10.20
-11.43
-13.82
-17.02
-20.40
-23.19
-24.69
-24.50
-22.58
-19.30
-15.32
-11.28
-7.66
-4.61
-2.02
0.24
2.20
3.64
4.13
3.22
0.39
-5.01
-13.55
-25.57
-40.63
-57.09
-72.25
-83.01
-87.07
-83.95
-75.22
-63.83
-52.73
-43.64
-36.52
-30.02
-22.47
-12.86
-1.23
11.61
24.72
37.64
50.57
63.95
77.85
91.56
103.70
112.80
118.07
119.84
119.53
119.09
120.15
123.48
129.06
136.36
144.87
154.36
164.78
176.02
187.76
199.67
211.62
224.00
237.48
252.54
268.92
285.07
298.06
304.06
299.56
282.89
255.62
222.85
192.04
170.50
162.54
167.54
180.17
192.63
197.70
191.34
173.33
146.12
112.84
75.58
35.11
-8.40
-54.25
-100.98
-146.74
-190.30
-231.45
-270.70
-308.41
-343.90
-375.19
-399.63
-415.01
-420.54
-417.26
-407.78
-395.54
-383.94
-375.65
-372.14
-373.55
-378.70
-385.43
-391.15
-393.53
-391.16
-383.71
-371.79
-356.41
-338.57
-319.00
-298.26
-277.01
-256.08
-236.26
-217.81
-200.01
-181.20
-159.35
-133.05
-102.47
-69.73
-38.43
-12.45
5.68
15.85
20.82
25.43
35.07
53.88
83.06
120.25
159.83
194.34
216.40
220.75
205.51
172.41
125.92
71.68
14.92
-40.48
-91.85
-137.01
-173.42
-198.01
-208.08
-202.56
-182.94
-153.18
-118.31
-82.64
-48.24
-14.69
20.18
58.87
102.77
151.17
200.72
245.84
279.79
296.65
293.27
270.63
233.67
189.49
144.80
103.76
67.42
34.65
4.02
-24.78
-50.60
-71.60
-86.37
-94.61
-96.95
-94.30
-87.10
-75.15
-57.87
-35.01
-7.39
22.78
52.05
76.54
92.94
99.53
96.60
86.19
71.27
54.76
38.82
24.70
13.02
4.19
-1.34
-3.13
-1.15
3.88
10.42
16.39
19.79
19.32
14.82
7.40
-0.83
-7.40
-10.16
-7.97
-0.99
9.50
21.55
33.26
43.19
50.57
55.17
57.06
56.43
53.55
48.81
42.72
35.86
28.66
21.39
14.24
7.49
1.58
-2.94
-5.65
-6.58
-6.23
-5.45
-5.04
-5.50
-6.78
-8.42
-9.76
-10.23
-9.42
-7.17
-3.46
1.54
7.46
13.72
19.58
24.29
27.35
28.60
28.39
27.39
26.44
26.23
27.18
29.29
32.21
35.44
38.44
40.85
42.56
43.66
44.36
44.81
45.03
44.92
44.30
43.00
40.93
38.09
34.58
30.61
26.47
22.44
18.79
15.62
12.84
10.22
7.54
4.67
1.71
-1.05
-3.25
-4.52
-4.67
-3.71
-1.86
0.56
3.08
5.23
6.57
6.82
5.94
4.16
1.92
-0.29
-2.08
-3.28
-3.99
-4.42
-4.75
-5.00
-5.15
-5.14
-4.98
-4.72
-4.30
-3.45
-1.70
1.40
6.07
12.09
18.87
25.58
31.47
36.02
39.01
40.47
40.57
39.62
37.99
36.04
34.08
32.20
30.29
28.09
25.28
21.64
17.08
11.60
5.33
-1.57
-8.83
-16.04
-22.74
-28.52
-33.15
-36.69
-39.32
-41.16
-42.11
-41.79
-39.78
-35.85
-30.16
-23.27
-15.95
-8.89
-2.47
3.23
8.33
12.99
17.24
21.04
24.33
27.09
29.36
31.14
32.33
32.67
31.86
29.69
26.21
21.85
17.29
13.31
10.48
9.06
8.92
9.69
10.86
11.95
12.49
12.06
10.35
7.25
2.92
-2.17
-7.33
-11.95
-15.71
-18.73
-21.47
-24.47
-28.02
-31.96
-35.76
-38.73
-40.29
-40.21
-38.61
-35.85
-32.30
-28.24
-23.82
-19.14
-14.35
-9.69
-5.39
-1.59
1.70
4.58
7.04
8.86
9.69
9.23
7.50
4.94
2.32
0.46
-0.12
0.68
2.62
5.30
8.44
11.87
15.49
19.04
22.13
24.28
25.19
24.89
23.74
22.18
20.49
18.45
15.42
10.55
3.29
-6.22
-16.95
-27.12
-34.70
-37.95
-35.95
-28.78
-17.51
-3.96
9.61
20.90
27.94
29.39
24.85
14.96
1.39
-13.46
-26.86
-36.51
-41.06
-40.47
-35.80
-28.63
-20.30
-11.47
-2.07
8.11
18.86
29.24
37.81
43.24
44.95
43.25
39.01
32.99
25.42
16.05
4.59
-8.63
-22.45
-35.03
-44.55
-49.91
-51.09
-49.15
-45.62
-41.89
-38.71
-36.09
-33.55
-30.53
-26.81
-22.67
-18.77
-15.85
-14.34
-14.20
-14.78
-15.01
-13.83
-10.58
-5.44
0.57
5.89
9.05
9.35
7.17
3.88
1.24
0.68
2.76
7.00
12.22
16.99
20.23
21.42
20.71
18.74
16.42
14.55
13.59
13.61
14.33
15.34
16.30
17.02
17.44
17.60
17.50
17.11
16.33
15.02
13.05
10.32
6.94
3.18
-0.40
-3.12
-4.40
-4.02
-2.24
0.28
2.75
4.53
5.29
5.04
3.94
2.22
0.15
-2.00
-3.80
-4.79
-4.60
-3.21
-1.11
0.82
1.51
0.16
-3.52
-9.18
-15.91
-22.52
-27.84
-30.96
-31.47
-29.51
-25.72
-21.10
-16.63
-12.97
-10.33
-8.44
-6.88
-5.25
-3.50
-1.82
-0.52
0.12
-0.00
-0.89
-2.51
-4.81
-7.67
-10.71
-13.34
-14.82
-14.46
-11.95
-7.50
-1.86
3.87
8.49
11.04
10.94
8.17
3.23
-2.89
-8.94
-13.58
-15.78
-14.99
-11.29
-5.37
1.69
8.66
14.49
18.40
20.08
19.66
17.72
15.11
12.79
11.51
11.49
12.38
13.27
13.05
10.82
6.17
-0.61
-8.65
-16.74
-23.73
-28.74
-31.30
-31.28
-28.81
-24.19
-17.79
-10.11
-1.88
5.94
12.30
16.24
17.26
15.42
11.31
5.81
-0.18
-5.96
-11.07
-15.16
-17.97
-19.42
-19.91
-20.33
-21.79
-24.91
-29.22
-33.01
-33.95
-30.30
-21.95
-10.66
0.64
9.28
14.08
15.76
16.29
17.66
20.78
25.11
29.05
30.83
29.34
24.39
16.51
6.52
-4.87
-17.10
-29.51
-41.06
-50.11
-54.73
-53.37
-45.64
-32.83
-17.82
-4.13
5.29
9.08
7.84
3.58
-1.28
-4.89
-6.54
-6.45
-5.27
-3.46
-1.09
2.12
6.38
11.61
17.36
22.93
27.64
31.03
32.89
33.23
32.20
30.04
27.02
23.49
19.80
16.31
13.32
11.02
9.52
8.80
8.81
9.41
10.40
11.47
12.23
12.37
11.72
10.28
8.27
5.98
3.69
1.60
-0.18
-1.61
-2.73
-3.66
-4.64
-5.93
-7.74
-10.13
-12.87
-15.50
-17.39
-17.99
-16.90
-14.08
-9.83
-4.76
0.35
4.73
7.76
9.14
8.87
7.20
4.51
1.24
-2.15
-5.14
-7.19
-7.86
-7.09
-5.31
-3.39
-2.34
-2.86
-4.90
-7.62
-9.62
-9.49
-6.44
-0.53
7.35
15.88
23.87
30.78
36.81
42.70
49.23
56.66
64.46
71.50
76.49
78.70
78.39
76.83
75.83
77.06
81.49
89.15
99.38
111.23
123.72
135.89
146.76
155.23
160.23
161.00
157.23
149.01
136.35
118.48
93.60
59.53
15.11
-38.14
-95.41
-149.37
-192.51
-219.74
-230.04
-226.22
-213.11
-195.16
-174.82
-152.45
-127.47
-99.82
-70.82
-43.05
-19.63
-3.38
3.73
1.01
-10.70
-28.88
-49.63
-68.44
-81.33
-85.91
-82.00
-71.30
-56.55
-40.54
-25.57
-13.32
-5.06
-1.71
-3.71
-10.67
-21.12
-32.83
-43.43
-51.16
-55.41
-56.81
-56.78
-56.93
-58.50
-61.97
-67.06
-72.84
-78.10
-81.61
-82.49
-80.36
-75.42
-68.26
-59.58
-50.01
-39.97
-29.77
-19.80
-10.64
-2.90
2.95
6.85
9.29
11.06
13.07
15.96
20.05
25.35
31.63
38.58
45.75
52.70
58.98
64.33
68.71
72.25
75.03
76.91
77.52
76.39
73.29
68.39
62.28
55.74
49.46
43.78
38.73
34.20
30.12
26.58
23.80
21.99
21.25
21.52
22.58
24.03
25.41
26.17
25.82
24.07
20.90
16.59
11.67
6.82
2.63
-0.48
-2.49
-3.78
-5.07
-7.21
-10.87
-16.19
-22.71
-29.33
-34.74
-37.87
-38.24
-36.04
-31.99
-26.98
-21.69
-16.57
-11.82
-7.56
-4.02
-1.43
0.05
0.54
0.43
0.26
0.44
1.12
2.12
3.06
3.68
4.01
4.33
5.02
6.28
7.95
9.53
10.42
10.16
8.74
6.54
4.18
2.32
1.43
1.66
2.95
5.00
7.40
9.68
11.38
12.11
11.63
9.94
7.25
3.96
0.58
-2.47
-4.86
-6.45
-7.31
-7.66
-7.87
-8.34
-9.37
-11.02
-13.08
-14.98
-16.05
-15.75
-13.94
-10.91
-7.21
-3.36
0.29
3.61
6.57
9.08
10.89
11.76
11.62
10.66
9.37
8.31
7.95
8.47
9.77
11.49
13.05
13.71
12.62
9.01
2.43
-6.98
-18.34
-30.10
-40.31
-47.03
-48.86
-45.31
-36.91
-25.02
-11.40
2.24
14.54
24.61
32.01
36.58
38.39
37.73
35.04
30.99
26.30
21.66
17.55
14.19
11.57
9.47
7.63
5.79
3.77
1.51
-0.91
-3.30
-5.45
-7.21
-8.54
-9.50
-10.19
-10.68
-10.96
-10.95
-10.60
-9.93
-9.10
-8.35
-7.85
-7.58
-7.25
-6.44
-4.76
-2.06
1.50
5.42
9.12
12.08
13.99
14.83
14.77
14.10
13.12
12.13
11.37
11.03
11.19
11.84
12.89
14.21
15.73
17.48
19.58
22.18
25.27
28.61
31.60
33.35
33.02
30.18
25.19
19.20
13.88
10.71
10.52
13.13
17.59
22.65
27.28
30.85
33.05
33.53
31.66
26.62
17.77
4.94
-11.27
-29.67
-48.62
-66.36
-80.99
-90.60
-93.35
-87.90
-73.89
-52.38
-25.94
1.89
27.32
47.29
59.96
64.88
62.65
54.45
41.72
25.93
8.56
-8.85
-24.84
-38.14
-47.88
-53.65
-55.53
-53.93
-49.56
-43.26
-35.94
-28.48
-21.60
-15.73
-10.95
-7.06
-3.62
-0.21
3.59
8.10
13.55
19.98
27.18
34.53
41.03
45.49
46.85
44.56
38.71
30.01
19.48
8.20
-2.93
-13.19
-22.00
-28.85
-33.36
-35.44
-35.39
-33.85
-31.64
-29.39
-27.34
-25.19
-22.27
-17.83
-11.34
-2.83
7.02
17.06
25.95
32.53
36.18
36.84
35.03
31.64
27.63
23.95
21.29
20.13
20.56
22.37
24.99
27.64
29.50
29.92
28.49
25.17
20.13
13.73
6.41
-1.37
-9.13
-16.37
-22.54
-27.13
-29.73
-30.16
-28.62
-25.63
-21.98
-18.49
-15.80
-14.19
-13.65
-13.88
-14.48
-15.02
-15.13
-14.59
-13.39
-11.73
-10.02
-8.75
-8.31
-8.87
-10.32
-12.25
-14.18
-15.66
-16.43
-16.45
-15.92
-15.14
-14.34
-13.60
-12.76
-11.60
-9.97
-7.96
-5.90
-4.24
-3.29
-3.10
-3.34
-3.52
-3.21
-2.21
-0.59
1.40
3.52
5.59
7.53
9.33
10.88
12.03
12.60
12.45
11.51
9.93
7.96
5.95
4.26
3.15
2.74
2.97
3.64
4.46
5.22
5.75
5.96
5.75
5.06
3.79
1.95
-0.37
-2.97
-5.59
-7.99
-9.98
-11.44
-12.36
-12.76
-12.74
-12.48
-12.24
-12.29
-12.81
-13.80
-15.01
-16.04
-16.40
-15.70
-13.82
-10.94
-7.47
-3.98
-0.92
1.45
3.07
4.06
4.59
4.80
4.82
4.78
4.80
5.09
5.85
7.24
9.30
11.91
14.82
17.68
20.13
21.92
22.94
23.29
23.13
22.71
22.18
21.53
20.66
19.40
17.62
15.31
12.60
9.73
6.99
4.53
2.36
0.32
-1.80
-4.17
-6.78
-9.48
-12.08
-14.43
-16.52
-18.46
-20.31
-22.10
-23.72
-25.03
-25.91
-26.30
-26.22
-25.67
-24.64
-23.02
-20.81
-18.22
-15.72
-14.15
-14.42
-17.17
-22.48
-29.73
-37.85
-45.80
-52.97
-59.33
-65.07
-70.10
-73.67
-74.52
-71.36
-63.63
-51.83
-37.42
-22.18
-7.57
5.58
16.99
26.56
34.09
39.23
41.74
41.74
39.83
36.87
33.74
31.01
28.82
26.90
24.80
22.04
18.30
13.57
8.12
2.52
-2.53
-6.33
-8.38
-8.49
-6.83
-3.78
0.13
4.42
8.71
12.74
16.32
19.24
21.36
22.51
22.56
21.46
19.23
16.05
12.25
8.31
4.72
1.96
0.28
-0.28
0.12
1.20
2.66
4.24
5.69
6.77
7.30
7.22
6.57
5.47
4.13
2.73
1.46
0.62
0.53
1.60
4.07
7.86
12.41
16.83
20.10
21.44
20.59
17.92
14.33
10.93
8.66
7.86
8.13
8.45
7.66
5.03
0.68
-4.32
-8.34
-9.91
-8.27
-3.78
2.39
8.81
14.51
19.35
23.93
29.10
35.22
41.91
47.98
52.15
53.69
52.92
51.13
50.16
51.69
56.77
65.73
78.06
92.35
106.04
115.32
115.96
104.88
82.13
51.93
21.75
-0.45
-9.79
-6.74
2.99
11.34
11.73
1.89
-15.73
-35.94
-53.84
-66.95
-75.60
-81.76
-87.08
-91.92
-95.24
-95.62
-92.23
-85.59
-77.29
-69.30
-63.07
-58.86
-55.79
-52.28
-46.89
-38.95
-28.98
-18.45
-9.11
-2.12
2.62
6.67
12.41
22.10
36.82
55.67
76.07
94.68
108.75
117.30
121.48
124.03
128.09
135.97
148.41
164.54
182.18
198.23
209.22
211.73
203.22
183.43
155.72
127.54
108.67
107.80
128.50
167.05
213.31
254.65
280.79
287.31
275.74
250.73
216.30
173.81
122.43
61.75
-5.94
-75.32
-140.15
-196.29
-243.40
-284.08
-321.02
-354.34
-380.66
-394.66
-392.26
-373.19
-341.66
-304.52
-268.39
-237.38
-212.38
-192.02
-174.33
-157.87
-142.12
-126.97
-112.21
-97.27
-81.66
-65.34
-48.92
-33.53
-20.36
-10.12
-2.80
2.32
6.43
10.70
15.79
21.76
28.09
34.11
39.49
44.52
50.09
57.16
66.19
76.81
88.02
98.76
108.59
117.85
127.42
137.97
149.45
160.93
171.08
178.94
184.37
187.93
190.38
191.81
191.24
186.93
176.69
158.46
130.81
93.42
47.69
-2.91
-52.96
-96.13
-126.28
-139.36
-135.21
-118.25
-96.72
-80.52
-78.18
-94.36
-128.66
-175.33
-225.33
-269.67
-302.18
-321.11
-328.39
-327.24
-320.66
-311.12
-300.03
-289.46
-283.64
-288.09
-307.50
-342.10
-385.23
-425.22
-449.98
-449.41
-419.19
-362.39
-287.86
-207.72
-134.42
-78.27
-48.11
-50.73
-85.97
-145.23
-213.01
-271.32
-306.17
-312.89
-296.41
-254.73
-190.24
-102.36
12.20
153.92
313.73
471.52
598.07
680.46
717.87
718.21
695.31
661.91
624.51
582.66
533.48
475.98
414.21
353.96
299.45
252.52
211.62
172.87
132.49
89.39
46.04
7.97
-20.31
-37.57
-45.17
-46.69
-46.55
-48.39
-53.77
-61.94
-70.17
-76.03
-78.48
-77.60
-74.44
-70.54
-67.19
-64.93
-63.58
-62.39
-61.01
-59.60
-58.39
-57.51
-56.80
-56.03
-55.06
-53.95
-52.85
-52.05
-51.55
-51.05
-50.10
-48.28
-45.33
-41.16
-35.83
-29.68
-23.43
-18.08
-14.53
-13.04
-12.96
-12.80
-10.93
-6.39
0.60
8.73
16.29
21.95
25.23
26.47
26.42
25.73
24.73
23.56
22.35
21.41
21.03
21.38
22.32
23.45
24.25
24.32
23.58
22.23
20.65
19.21
18.08
17.23
16.40
15.30
13.68
11.43
8.58
5.20
1.38
-2.74
-7.01
-11.25
-15.31
-19.13
-22.77
-26.34
-30.01
-33.87
-37.98
-42.30
-46.67
-50.64
-53.60
-54.89
-54.11
-51.41
-47.52
-43.51
-40.34
-38.40
-37.38
-36.53
-35.12
-32.89
-30.17
-27.74
-26.43
-26.77
-28.78
-31.99
-35.78
-39.68
-43.65
-48.08
-53.63
-60.80
-69.69
-79.87
-90.52
-100.85
-110.50
-119.65
-129.10
-139.92
-153.23
-169.90
-190.28
-213.75
-238.45
-261.28
-278.55
-287.05
-285.13
-273.33
-254.31
-232.09
-210.69
-192.99
-180.23
-172.23
-168.01
-166.37
-166.10
-166.01
-164.86
-161.31
-154.05
-142.06
-124.79
-102.23
-74.61
-42.10
-4.74
37.39
83.51
131.68
178.68
220.66
254.19
277.33
290.17
294.52
292.97
287.81
280.34
270.88
259.45
246.19
231.55
216.08
200.22
184.13
167.88
151.61
135.76
121.05
108.31
98.13
90.66
85.61
82.24
79.63
76.87
73.19
68.18
61.79
54.32
46.34
38.59
31.67
25.93
21.32
17.31
13.10
7.84
1.04
-7.14
-15.83
-23.69
-29.39
-32.09
-31.75
-29.05
-25.06
-20.66
-16.19
-11.37
-5.58
1.65
10.21
19.17
26.98
32.02
33.15
30.25
24.34
17.13
10.36
5.10
1.35
-1.71
-4.93
-8.46
-11.09
-10.53
-4.12
10.30
33.75
65.70
104.04
145.05
183.75
214.59
232.70
235.29
222.59
197.79
165.90
132.04
99.99
71.75
48.01
29.01
15.06
6.52
3.18
3.96
7.00
10.29
12.44
13.01
12.44
11.56
11.17
11.76
13.64
17.18
22.98
31.76
44.18
60.47
80.18
102.40
125.86
149.41
172.28
194.08
214.60
233.89
252.49
271.62
292.99
317.75
345.43
373.12
395.85
408.07
405.67
387.29
354.42
310.37
259.12
204.66
151.13
102.94
64.06
36.52
18.94
6.26
-8.41
-30.71
-62.22
-99.81
-137.38
-168.97
-191.56
-205.75
-214.20
-219.21
-221.23
-219.23
-212.21
-200.41
-185.71
-170.94
-158.62
-150.55
-148.18
-153.35
-168.15
-193.64
-228.05
-266.06
-299.77
-321.36
-326.01
-313.33
-286.79
-251.77
-213.45
-175.67
-140.97
-110.90
-86.01
-65.57
-47.44
-28.53
-6.41
19.09
45.13
66.73
78.89
78.81
66.75
45.94
21.33
-1.60
-17.91
-23.74
-16.97
1.95
29.41
59.16
84.40
100.54
107.07
107.14
104.84
101.55
94.24
76.59
42.90
-7.75
-70.15
-135.02
-193.04
-238.28
-269.19
-286.90
-293.21
-289.56
-277.66
-260.45
-242.10
-226.67
-216.18
-209.88
-205.18
-199.31
-190.94
-180.27
-168.08
-154.71
-140.04
-124.27
-108.76
-95.58
-86.24
-80.35
-75.28
-67.22
-52.96
-31.63
-5.26
21.98
45.28
61.04
68.23
68.62
66.09
65.44
70.87
84.74
106.59
132.96
158.09
175.56
180.52
171.57
