1603808368.00
64.000000
-0.00
-0.00
-0.00
-0.00
-0.00
-0.00
-0.00
-0.00
-0.00
-0.00
0.00
0.01
0.01
-0.00
-0.03
-0.05
-0.05
0.00
0.13
0.36
0.66
1.01
1.37
1.72
2.06
2.40
2.79
3.24
3.80
4.42
5.06
5.66
6.20
6.68
7.15
7.68
8.31
9.14
10.09
11.04
11.88
12.56
13.14
13.76
14.65
15.96
17.91
20.32
22.90
25.38
27.58
29.57
31.68
34.32
37.81
42.54
48.15
54.10
59.83
64.97
69.58
74.14
79.34
85.71
93.76
103.00
112.62
121.73
129.77
136.75
143.30
150.73
157.76
166.65
177.98
191.85
207.03
220.58
228.15
225.13
208.17
176.45
132.39
79.83
23.02
-34.90
-92.49
-149.51
-206.02
-261.59
-315.24
-365.37
-411.08
-451.80
-487.15
-516.45
-538.36
-551.03
-552.45
-541.24
-516.99
-480.95
-435.51
-383.76
-328.71
-272.71
-217.20
-162.86
-110.04
-59.17
-11.36
31.81
68.64
97.94
119.56
134.62
145.16
153.38
160.84
167.73
172.90
174.47
170.94
162.10
149.52
136.07
124.79
117.45
113.81
111.63
107.76
99.74
86.77
70.07
52.14
35.78
23.58
17.49
18.60
26.63
39.23
51.59
57.40
51.37
32.34
5.44
-19.07
-29.60
-18.56
13.32
56.62
97.28
122.69
127.13
113.52
90.98
69.76
56.28
51.22
50.73
50.39
48.43
46.93
49.78
59.24
73.68
87.85
95.47
93.13
82.20
67.84
55.61
47.74
41.60
31.75
14.12
-10.54
-36.24
-54.68
-59.76
-50.77
-32.47
-12.46
2.81
10.34
10.71
6.24
-1.16
-11.08
-24.22
-40.71
-58.74
-74.35
-82.81
-80.46
-66.49
-43.63
-17.29
6.42
22.96
30.76
31.26
27.65
23.09
19.31
16.32
13.14
8.73
2.91
-3.70
-10.00
-14.91
-17.72
-18.03
-15.85
-11.46
-5.53
0.91
6.72
10.98
13.23
13.49
12.18
9.70
6.45
2.83
-0.60
-3.06
-3.81
-2.46
0.73
4.91
8.88
11.50
12.11
10.74
8.17
5.54
3.97
4.03
5.60
7.77
9.30
9.26
7.26
3.69
-0.51
-4.34
-6.86
-7.25
-4.75
1.15
10.03
20.05
28.07
30.57
25.29
12.52
-4.69
-21.56
-33.74
-39.26
-39.02
-35.63
-31.74
-28.68
-26.28
-23.66
-20.29
-16.56
-13.45
-11.85
-11.89
-12.87
-13.71
-13.39
-11.58
-8.66
-5.63
-3.34
-2.33
-2.54
-3.38
-4.05
-3.91
-2.76
-0.86
1.20
2.86
3.77
3.97
3.82
3.74
4.11
5.05
6.40
7.89
9.22
10.23
10.94
11.52
12.13
12.96
14.05
15.34
16.75
18.16
19.54
20.87
22.21
23.53
24.84
26.08
27.16
27.93
28.24
27.98
27.03
25.35
22.75
19.35
15.27
10.65
5.68
0.56
-4.46
-9.19
-13.02
-16.15
-18.54
-20.17
-21.08
-21.35
-21.07
-20.37
-19.57
-18.57
-17.53
-16.45
-15.37
-14.33
-13.33
-12.39
-11.49
-10.63
-9.78
-9.00
-8.27
-7.58
-6.91
-6.29
-5.69
-5.12
-4.58
-4.05
-3.56
-3.11
-2.69
-2.30
-1.95
-1.64
-1.36
-1.12
-0.89
-0.72
-0.58
-0.47
-0.40
-0.39
-0.42
-0.52
-0.69
-0.87
-1.09
-1.29
-1.50
-1.71
-1.95
-2.24
-2.60
-3.05
-3.60
-4.20
-4.86
-5.52
-6.17
-6.84
-7.50
-8.20
-8.98
-9.85
-10.77
-11.70
-12.58
-13.39
-14.24
-15.09
-15.98
-16.84
-17.43
-17.46
-16.60
-14.60
-11.35
-7.43
-2.69
2.68
8.38
14.24
20.08
25.76
31.03
35.56
38.60
39.67
38.22
33.94
26.94
17.68
6.92
-4.64
-15.11
-24.64
-33.15
-40.90
-48.51
-56.80
-66.40
-76.98
-86.85
-93.26
-94.28
-89.46
-81.18
-73.91
-72.07
-78.32
-92.41
-112.31
-134.22
-154.80
-170.88
-179.44
-177.81
-164.44
-140.50
-110.29
-80.08
-55.74
-40.40
-33.03
-29.61
-25.74
-17.95
-5.33
11.30
30.55
51.45
73.25
95.24
116.16
133.44
145.87
152.69
154.18
151.45
146.15
139.71
133.12
126.65
120.53
114.02
106.65
98.48
90.00
81.96
74.92
69.14
64.43
60.30
56.24
51.90
47.25
42.50
38.03
34.14
31.01
28.58
26.58
24.76
22.91
21.01
19.19
17.62
16.41
15.66
15.27
15.11
14.98
14.83
14.70
14.66
14.84
15.19
15.67
16.11
16.22
15.73
14.47
12.41
9.60
6.54
2.99
-1.06
-5.66
-10.95
-16.98
-23.57
-30.24
-36.30
-41.05
-44.11
-45.46
-45.48
-44.99
-44.76
-45.05
-45.50
-45.25
-43.37
-39.42
-33.77
-27.46
-22.19
-19.36
-19.25
-20.87
-22.19
-21.10
-16.38
-8.30
1.64
10.92
17.52
20.92
22.34
24.03
28.16
35.86
45.47
56.95
69.27
80.04
85.48
80.63
61.48
27.86
-14.61
-55.24
-82.18
-88.18
-74.64
-49.41
-23.49
-5.88
0.03
-3.54
-11.35
-19.80
-26.61
-32.84
-40.18
-48.86
-57.17
-61.99
-61.78
-56.79
-49.15
-42.02
-38.39
-39.26
-43.65
-49.27
-53.37
-54.37
-51.59
-45.91
-39.21
-33.74
-30.74
-30.21
-31.15
-31.88
-31.49
-28.73
-23.67
-17.75
-13.39
-12.54
-15.98
-23.12
-31.94
-40.53
-45.37
-44.34
-37.30
-25.88
-11.70
5.32
23.06
42.46
64.88
93.86
131.06
175.18
222.38
268.36
310.23
347.19
380.67
395.28
382.88
345.42
294.36
242.46
196.35
154.75
111.54
61.03
1.14
-62.15
-119.48
-162.08
-185.48
-190.16
-180.33
-161.96
-140.38
-119.56
-99.85
-81.29
-64.49
-52.03
-46.51
-48.62
-56.79
-67.48
-76.63
-80.04
-75.81
-64.75
-49.76
-34.47
-21.99
-14.75
-13.94
-19.57
-29.75
-41.72
-52.55
-60.30
-65.03
-66.34
-64.93
-61.29
-54.94
-44.60
-29.42
-10.04
10.85
28.60
39.15
40.46
33.53
21.87
9.97
2.45
3.36
15.53
38.76
71.97
109.00
140.82
160.76
166.31
158.45
139.13
110.09
73.24
29.61
-17.10
-61.39
-98.65
-128.55
-154.45
-182.79
-214.09
-249.76
-285.48
-311.86
-318.15
-296.97
-248.34
-177.33
-91.72
7.25
106.46
190.03
246.04
269.39
267.06
241.29
195.30
135.93
72.42
11.34
-38.20
-69.87
-82.39
-79.39
-68.22
-55.38
-45.46
-41.00
-43.87
-52.75
-64.75
-76.80
-86.64
-93.86
-98.23
-99.89
-99.51
-98.77
-98.19
-97.74
-97.03
-95.65
-93.77
-91.22
-87.94
-84.38
-81.82
-81.27
-83.34
-87.64
-92.38
-94.49
-89.91
-75.08
-48.67
-12.50
28.99
70.04
105.47
132.29
150.01
160.20
165.23
167.25
167.86
168.33
169.75
172.96
178.05
184.05
188.96
190.44
186.79
177.55
163.58
146.53
128.12
109.64
91.79
74.94
59.28
44.94
31.97
20.28
9.73
0.29
-7.92
-14.68
-19.77
-23.24
-25.39
-26.84
-28.25
-30.05
-32.29
-34.60
-36.29
-36.71
-35.45
-32.54
-28.43
-23.90
-19.76
-16.73
-15.22
-15.31
-16.71
-18.88
-21.21
-23.20
-24.63
-25.63
-26.57
-27.84
-29.59
-31.71
-33.76
-35.20
-35.60
-34.76
-32.77
-29.95
-26.78
-23.70
-21.05
-18.91
-17.19
-15.77
-14.65
-14.10
-14.62
-16.67
-20.44
-25.53
-31.08
-36.01
-39.51
-41.21
-41.26
-40.07
-37.94
-34.94
-30.96
-25.97
-20.21
-14.28
-8.89
-4.59
-1.54
0.59
2.33
4.18
6.40
8.98
11.73
14.50
17.15
19.61
21.73
23.26
23.93
23.52
22.04
19.69
16.84
13.82
10.86
8.05
5.39
2.88
0.62
-1.19
-2.31
-2.60
-2.06
-0.92
0.49
1.79
2.65
2.93
2.61
1.81
0.77
-0.28
-1.14
-1.67
-1.82
-1.60
-1.07
-0.29
0.64
1.62
2.55
3.34
3.92
4.30
4.52
4.64
4.71
4.78
4.85
4.89
4.84
4.64
4.24
3.65
2.99
2.40
2.07
2.08
2.37
2.77
3.06
3.08
2.77
2.22
1.57
0.94
0.40
-0.10
-0.67
-1.46
-2.61
-4.15
-6.03
-8.02
-9.81
-11.12
-11.73
-11.58
-10.75
-9.40
-7.76
-6.04
-4.42
-3.01
-1.84
-0.92
-0.20
0.30
0.60
0.72
0.78
0.98
1.52
2.48
3.79
5.21
6.54
7.70
8.80
10.03
11.46
12.95
14.17
14.81
14.77
14.17
13.29
12.33
11.25
9.87
7.95
5.42
2.43
-0.73
-3.80
-6.69
-9.52
-12.44
-15.50
-18.53
-21.18
-23.08
-24.00
-23.95
-23.16
-21.92
-20.40
-18.68
-16.70
-14.46
-11.99
-9.45
-6.99
-4.67
-2.47
-0.31
1.86
3.98
5.95
7.61
8.86
9.73
10.31
10.69
10.97
11.14
11.22
11.24
11.35
11.72
12.54
13.87
15.59
17.47
19.23
20.71
21.94
23.16
24.65
26.64
29.15
31.95
34.74
37.19
39.05
40.17
40.42
39.62
37.63
34.34
29.89
24.62
19.01
13.56
8.68
4.67
1.77
0.18
0.01
1.11
3.03
5.13
6.73
7.44
7.31
6.75
6.34
6.55
7.54
9.17
11.03
12.62
13.51
13.50
12.71
11.49
10.28
9.40
8.90
8.56
8.13
7.48
6.61
5.59
4.42
2.94
0.98
-1.43
-3.93
-5.91
-6.82
-6.47
-5.21
-3.72
-2.75
-2.74
-3.66
-4.99
-6.03
-6.20
-5.26
-3.42
-1.24
0.63
1.69
1.75
0.95
-0.44
-2.11
-3.81
-5.36
-6.54
-7.15
-6.92
-5.80
-3.91
-1.66
0.50
2.26
3.66
5.09
7.05
9.80
13.14
16.27
18.11
17.68
14.55
8.97
1.79
-5.98
-13.47
-20.20
-26.02
-30.95
-35.04
-38.35
-40.93
-42.83
-44.04
-44.48
-43.98
-42.45
-40.00
-37.04
-34.09
-31.55
-29.44
-27.32
-24.54
-20.55
-15.25
-9.03
-2.62
3.31
8.24
11.98
14.44
15.51
15.05
12.98
9.46
5.03
0.52
-3.20
-5.53
-6.26
-5.66
-4.23
-2.48
-0.69
1.06
2.87
4.87
7.10
9.46
11.74
13.70
15.13
15.89
15.90
15.16
13.75
11.82
9.62
7.40
5.40
3.77
2.58
1.78
1.30
1.00
0.67
0.11
-0.86
-2.28
-4.00
-5.75
-7.16
-7.95
-8.01
-7.42
-6.43
-5.34
-4.39
-3.73
-3.38
-3.27
-3.29
-3.37
-3.50
-3.73
-4.15
-4.83
-5.80
-7.00
-8.27
-9.44
-10.33
-10.81
-10.89
-10.64
-10.25
-9.89
-9.69
-9.67
-9.78
-9.92
-9.99
-9.93
-9.69
-9.21
-8.49
-7.60
-6.72
-6.12
-6.01
-6.47
-7.30
-8.03
-8.08
-6.95
-4.46
-0.90
3.06
6.56
8.86
9.59
8.86
7.18
5.21
3.57
2.60
2.32
2.54
3.00
3.49
3.90
4.24
4.48
4.50
4.09
2.96
0.87
-2.23
-6.19
-10.65
-15.19
-19.44
-23.11
-26.06
-28.19
-29.45
-29.84
-29.37
-28.06
-25.87
-22.68
-18.36
-12.85
-6.35
0.66
7.47
13.37
17.96
21.28
23.70
25.67
27.39
28.67
28.95
27.59
24.20
18.81
11.87
4.12
-3.68
-10.86
-16.93
-21.52
-24.40
-25.46
-24.76
-22.58
-19.41
-15.90
-12.66
-10.14
-8.42
-7.28
-6.29
-5.04
-3.34
-1.28
0.80
2.52
3.59
3.90
3.59
2.84
1.88
0.84
-0.17
-1.14
-2.03
-2.84
-3.54
-4.14
-4.69
-5.25
-5.88
-6.60
-7.34
-7.99
-8.43
-8.63
-8.59
-8.43
-8.28
-8.26
-8.40
-8.67
-8.95
-9.08
-8.90
-8.27
-7.14
-5.49
-3.40
-0.95
1.75
4.60
7.45
10.09
12.24
13.58
13.94
13.38
12.17
10.76
9.51
8.63
8.09
7.70
7.25
6.63
5.88
5.09
4.35
3.68
3.02
2.26
1.38
0.37
-0.68
-1.66
-2.48
-3.04
-3.33
-3.40
-3.40
-3.55
-4.05
-5.04
-6.48
-8.16
-9.72
-10.83
-11.25
-10.96
-10.05
-8.68
-6.93
-4.84
-2.46
0.08
2.46
4.31
5.30
5.35
4.66
3.69
2.95
2.83
3.45
4.67
6.20
7.70
8.94
9.80
10.30
10.54
10.60
10.54
10.39
10.14
9.77
9.24
8.49
7.48
6.16
4.55
2.75
0.92
-0.80
-2.26
-3.46
-4.45
-5.33
-6.19
-7.11
-8.11
-9.23
-10.42
-11.59
-12.54
-13.01
-12.75
-11.64
-9.75
-7.30
-4.60
-1.93
0.54
2.70
4.53
6.00
7.13
7.92
8.42
8.65
8.68
8.57
8.40
8.30
8.37
8.68
9.20
9.84
10.46
10.93
11.15
11.11
10.82
10.34
9.75
9.13
8.56
8.15
7.94
7.93
7.99
7.86
7.32
6.19
4.52
2.53
0.58
-1.05
-2.24
-3.10
-3.86
-4.74
-5.78
-6.85
-7.73
-8.25
-8.38
-8.25
-8.02
-7.79
-7.54
-7.15
-6.54
-5.66
-4.59
-3.48
-2.44
-1.53
-0.74
0.03
0.83
1.70
2.60
3.43
4.09
4.48
4.53
4.29
3.89
3.48
3.23
3.20
3.36
3.64
3.99
4.43
5.02
5.79
6.65
7.38
7.68
7.34
6.31
4.75
2.99
1.36
0.14
-0.56
-0.78
-0.64
-0.37
-0.17
-0.24
-0.69
-1.57
-2.80
-4.18
-5.43
-6.22
-6.28
-5.47
-3.90
-1.81
0.40
2.37
3.85
4.80
5.32
5.60
5.84
6.15
6.59
7.18
7.92
8.78
9.74
10.78
11.87
13.06
14.38
15.91
17.64
19.44
21.09
22.32
22.88
22.63
21.60
19.94
17.93
15.92
14.26
13.20
12.81
12.87
12.91
12.27
10.36
6.94
2.19
-3.29
-8.66
-13.15
-16.32
-18.07
-18.63
-18.31
-17.36
-15.89
-13.95
-11.60
-9.03
-6.50
-4.26
-2.39
-0.83
0.58
1.89
2.95
3.35
2.59
0.30
-3.55
-8.55
-14.01
-19.13
-23.29
-26.17
-27.77
-28.34
-28.13
-27.33
-26.00
-24.17
-21.92
-19.47
-17.12
-15.15
-13.65
-12.56
-11.67
-10.81
-9.88
-8.92
-8.03
-7.29
-6.69
-6.14
-5.51
-4.66
-3.55
-2.18
-0.64
0.91
2.34
3.44
4.11
4.26
3.95
3.28
2.43
1.52
0.64
-0.22
-1.08
-1.95
-2.82
-3.59
-4.16
-4.47
-4.47
-4.17
-3.56
-2.60
-1.25
0.48
2.53
4.76
7.03
9.18
11.14
12.83
14.20
15.20
15.79
16.00
15.92
15.76
15.69
15.89
16.39
17.11
17.89
18.56
19.01
19.27
19.46
19.74
20.25
21.08
22.26
23.72
25.24
26.48
27.02
26.43
24.45
21.02
16.37
10.90
5.14
-0.30
-4.88
-8.14
-9.80
-9.87
-8.64
-6.68
-4.63
-3.08
-2.40
-2.67
-3.70
-5.10
-6.45
-7.33
-7.50
-6.92
-5.78
-4.39
-3.03
-1.83
-0.68
0.72
2.67
5.33
8.58
12.10
15.42
18.17
20.09
21.13
21.26
20.45
18.55
15.38
10.79
4.88
-1.96
-9.01
-15.41
-20.40
-23.52
-24.76
-24.52
-23.44
-22.17
-21.20
-20.77
-20.91
-21.53
-22.43
-23.34
-23.95
-24.00
-23.40
-22.35
-21.30
-20.76
-21.10
-22.31
-23.99
-25.55
-26.42
-26.27
-25.06
-22.95
-20.13
-16.76
-12.95
-8.92
-5.04
-1.79
0.39
1.33
1.26
0.73
0.50
1.18
3.11
6.21
10.09
14.12
17.63
20.08
21.24
21.23
20.52
19.80
19.69
20.57
22.46
25.03
27.79
30.20
31.84
32.44
31.89
30.28
27.88
25.10
22.42
20.22
18.71
17.86
17.45
17.24
16.97
16.48
15.72
14.68
13.40
12.00
10.62
9.36
8.28
7.31
6.27
4.99
3.28
1.04
-1.75
-4.96
-8.40
-11.77
-14.78
-17.28
-19.27
-20.95
-22.60
-24.37
-26.15
-27.62
-28.34
-27.98
-26.53
-24.27
-21.70
-19.26
-17.19
-15.49
-14.04
-12.75
-11.64
-10.89
-10.67
-11.03
-11.83
-12.81
-13.74
-14.51
-15.23
-16.13
-17.43
-19.17
-21.17
-23.04
-24.34
-24.70
-23.98
-22.28
-19.93
-17.28
-14.62
-12.02
-9.35
-6.45
-3.22
0.19
3.46
6.23
8.21
9.36
9.78
9.64
8.99
7.79
5.97
3.63
1.11
-1.03
-2.22
-2.08
-0.59
1.90
4.88
7.86
10.58
13.00
15.22
17.30
19.17
20.63
21.49
21.63
21.14
20.20
18.98
17.57
15.93
13.99
11.77
9.43
7.19
5.26
3.73
2.47
1.24
-0.20
-1.99
-4.11
-6.43
-8.74
-10.82
-12.49
-13.66
-14.33
-14.63
-14.76
-14.90
-15.19
-15.63
-16.14
-16.60
-16.94
-17.18
-17.37
-17.55
-17.77
-18.02
-18.30
-18.58
-18.86
-19.05
-19.01
-18.52
-17.37
-15.40
-12.63
-9.25
-5.68
-2.37
0.29
2.14
3.33
4.23
5.29
6.83
8.86
11.19
13.45
15.34
16.68
17.49
17.87
17.95
17.81
17.47
16.92
16.21
15.41
14.57
13.73
12.83
11.77
10.51
9.10
7.69
6.50
5.71
5.40
5.50
5.79
6.05
6.05
5.68
4.92
3.85
2.59
1.27
0.01
-1.14
-2.17
-3.12
-3.99
-4.80
-5.53
-6.14
-6.65
-7.07
-7.43
-7.72
-7.92
-7.93
-7.67
-7.04
-5.99
-4.52
-2.65
-0.46
1.90
4.26
6.43
8.27
9.72
10.79
11.57
12.09
12.34
12.26
11.83
11.06
10.05
8.90
7.73
6.60
5.55
4.60
3.77
3.10
2.53
2.02
1.44
0.71
-0.19
-1.19
-2.15
-2.90
-3.35
-3.50
-3.47
-3.45
-3.68
-4.33
-5.43
-6.91
-8.59
-10.32
-12.03
-13.72
-15.37
-16.88
-18.04
-18.55
-18.19
-16.86
-14.65
-11.80
-8.61
-5.34
-2.24
0.49
2.63
4.03
4.64
4.60
4.19
3.77
3.64
3.92
4.57
5.32
5.86
5.92
5.38
4.30
2.96
1.74
1.05
1.27
2.60
5.06
8.40
12.18
15.87
18.95
21.09
22.17
22.28
21.60
20.34
18.64
16.59
14.33
12.05
9.93
8.08
6.46
4.86
3.06
0.95
-1.44
-3.94
-6.35
-8.61
-10.71
-12.66
-14.32
-15.41
-15.61
-14.72
-12.83
-10.34
-7.76
-5.48
-3.62
-1.98
-0.25
1.84
4.27
6.80
9.02
10.56
11.26
11.22
10.69
10.05
9.65
9.70
10.30
11.33
12.51
13.45
13.72
12.99
11.20
8.57
5.55
2.69
0.44
-0.92
-1.33
-0.92
0.07
1.33
2.54
3.39
3.66
3.23
2.15
0.61
-1.14
-2.87
-4.45
-5.93
-7.48
-9.38
-11.91
-15.22
-19.28
-23.79
-28.29
-32.19
-34.94
-36.17
-35.75
-33.91
-31.05
-27.63
-24.02
-20.39
-16.71
-12.95
-9.13
-5.40
-1.98
0.88
3.05
4.48
5.21
5.28
4.71
3.56
1.97
0.16
-1.63
-3.19
-4.36
-5.05
-5.24
-4.95
-4.21
-3.15
-1.95
-0.85
-0.03
0.42
0.56
0.56
0.64
0.92
1.40
1.95
2.38
2.53
2.37
1.96
1.49
1.13
1.00
1.09
1.22
1.13
0.57
-0.57
-2.26
-4.27
-6.30
-8.08
-9.43
-10.28
-10.58
-10.28
-9.33
-7.73
-5.63
-3.40
-1.48
-0.24
0.21
0.03
-0.37
-0.58
-0.35
0.33
1.30
2.34
3.27
4.02
4.62
5.13
5.66
6.36
7.37
8.74
10.40
12.14
13.63
14.56
14.78
14.32
13.36
12.23
11.22
10.54
10.25
10.36
10.81
11.55
12.47
13.46
14.47
15.33
15.82
15.67
14.70
12.97
10.73
8.24
5.76
3.61
1.97
0.91
0.41
0.41
1.03
2.39
4.44
7.07
10.34
14.19
18.31
22.24
25.39
27.58
28.83
29.32
29.31
29.39
29.90
30.70
31.36
31.19
30.01
27.91
25.23
20.26
12.63
3.33
-5.73
-11.99
-15.92
-18.22
-19.25
-19.20
-18.00
-15.36
-11.53
-7.20
-3.25
-0.57
0.67
0.66
-0.17
-1.28
-1.88
-1.53
-0.08
2.39
5.31
7.98
9.33
8.32
4.61
-1.16
-7.95
-14.97
-21.80
-28.22
-33.98
-38.87
-42.76
-45.62
-46.34
-44.76
-41.29
-36.67
-31.83
-27.42
-23.75
-20.75
-18.08
-15.33
-12.43
-9.49
-6.75
-4.50
-2.92
-2.07
-1.83
-1.95
-2.13
-2.28
-2.33
-2.30
-2.20
-2.13
-2.13
-2.22
-2.32
-2.31
-2.16
-1.91
-1.65
-1.52
-1.66
-2.07
-2.66
-3.25
-3.71
-4.06
-4.39
-4.74
-5.02
-5.01
-4.48
-3.33
-1.72
-0.00
1.41
2.27
2.62
2.70
2.82
3.17
3.78
4.52
5.28
6.11
7.16
8.62
10.59
12.97
15.51
17.90
19.94
21.66
23.25
24.90
26.71
28.55
30.11
31.05
31.08
30.18
28.51
26.42
24.23
22.21
20.51
19.15
18.09
17.15
16.18
15.07
13.87
12.62
11.55
10.98
11.20
12.42
13.89
14.65
13.67
10.34
4.59
-2.97
-11.39
-20.14
-28.67
-36.51
-43.35
-49.18
-53.14
-54.96
-54.80
-53.06
-50.35
-47.23
-44.18
-41.36
-38.69
-35.88
-32.72
-29.06
-24.91
-20.45
-15.94
-11.68
-7.87
-4.55
-1.59
1.13
3.77
6.40
8.93
11.27
13.26
14.85
16.03
16.86
17.28
17.22
16.69
15.84
14.93
14.27
14.03
14.16
14.41
14.45
14.04
13.16
12.02
10.89
9.98
9.36
8.92
8.51
7.97
7.23
6.29
5.17
3.87
2.33
0.52
-1.57
-3.90
-6.31
-8.64
-10.74
-12.53
-14.00
-15.28
-16.53
-17.85
-19.27
-20.64
-21.65
-21.96
-21.35
-19.78
-17.43
-14.61
-11.61
-8.57
-5.55
-2.58
0.26
2.76
4.73
6.04
6.76
7.07
7.25
7.51
7.94
8.52
9.18
9.81
10.33
10.64
10.66
10.32
9.64
8.72
7.72
6.81
6.12
5.66
5.33
4.93
4.28
3.29
1.99
0.62
-0.54
-1.19
-1.18
-0.52
0.59
1.86
2.99
3.79
4.25
4.53
4.88
5.56
6.69
8.18
9.75
11.05
11.82
12.00
11.72
11.22
10.73
10.33
9.96
9.49
8.79
7.84
6.67
5.41
4.19
3.12
2.25
1.64
1.30
1.25
1.50
2.09
2.96
4.03
5.14
6.10
6.73
6.95
6.80
6.35
5.68
4.79
3.62
2.09
0.18
-2.06
-4.47
-6.88
-9.17
-11.28
-13.18
-14.84
-16.20
-17.22
-17.91
-18.42
-18.92
-19.61
-20.50
-21.48
-22.27
-22.62
-22.40
-21.64
-20.48
-19.06
-17.43
-15.54
-13.32
-10.82
-8.20
-5.69
-3.47
-1.57
0.16
1.94
3.91
6.05
8.15
9.97
11.41
12.52
13.51
14.55
15.68
16.74
17.47
17.65
17.19
16.20
14.84
13.28
11.65
10.02
8.45
7.05
5.94
5.22
4.90
4.88
5.00
5.04
4.85
4.35
3.57
2.60
1.60
0.68
-0.12
-0.84
-1.69
-2.85
-4.50
-6.67
-9.26
-12.07
-14.82
-17.20
-18.95
-19.89
-19.93
-19.14
-17.68
-15.82
-13.81
-11.89
-10.15
-8.59
-7.14
-5.75
-4.48
-3.49
-2.98
-3.08
-3.77
-4.82
-5.94
-6.85
-7.43
-7.73
-7.91
-8.14
-8.48
-8.82
-8.96
-8.67
-7.76
-6.18
-3.96
-1.24
1.83
5.09
8.40
11.66
14.72
17.41
19.53
20.91
21.46
21.24
20.38
19.11
17.64
16.08
14.54
13.06
11.66
10.28
8.80
7.07
4.95
2.46
-0.19
-2.61
-4.40
-5.30
-5.28
-4.46
-3.10
-1.39
0.57
2.71
4.97
7.16
9.02
10.25
10.64
10.10
8.75
6.84
4.72
2.70
1.00
-0.26
-1.05
-1.33
-1.09
-0.35
0.76
2.01
3.09
3.71
3.76
3.25
2.35
1.24
0.10
-0.95
-1.81
-2.39
-2.66
-2.63
-2.42
-2.20
-2.07
-2.08
-2.20
-2.38
-2.56
-2.77
-3.08
-3.58
-4.35
-5.46
-6.90
-8.57
-10.26
-11.65
-12.39
-12.20
-10.90
-8.51
-5.23
-1.43
2.44
5.98
8.95
11.30
13.19
14.81
16.30
17.68
18.85
19.72
20.25
20.54
20.72
20.87
20.96
20.90
20.60
20.06
19.41
18.83
18.46
18.36
18.41
18.42
18.17
17.45
16.18
14.38
12.19
9.77
7.28
4.86
2.59
0.50
-1.35
-2.95
-4.31
-5.46
-6.48
-7.48
-8.63
-10.04
-11.80
-13.89
-16.17
-18.41
-20.32
-21.61
-22.05
-21.51
-20.00
-17.68
-14.86
-11.94
-9.29
-7.17
-5.68
-4.68
-3.95
-3.25
-2.42
-1.38
-0.12
1.39
3.20
5.30
7.60
9.86
11.80
13.18
13.91
14.14
14.16
14.27
14.61
15.14
15.60
15.70
15.22
14.13
12.59
10.80
8.97
7.20
5.51
3.87
2.29
0.82
-0.52
-1.69
-2.78
-3.89
-5.06
-6.33
-7.67
-9.08
-10.58
-12.21
-13.93
-15.63
-17.07
-17.99
-18.21
-17.68
-16.51
-14.85
-12.91
-10.83
-8.72
-6.69
-4.82
-3.24
-1.99
-1.11
-0.54
-0.19
0.07
0.37
0.80
1.42
2.20
3.11
4.04
4.89
5.55
5.96
6.09
5.97
5.66
5.20
4.60
3.83
2.84
1.64
0.27
-1.15
-2.50
-3.69
-4.69
-5.49
-6.08
-6.41
-6.48
-6.32
-6.02
-5.75
-5.65
-5.86
-6.45
-7.48
-8.94
-10.80
-12.89
-14.96
-16.69
-17.76
-17.97
-17.30
-15.85
-13.82
-11.43
-8.90
-6.40
-4.09
-2.02
-0.21
1.42
2.92
4.33
5.58
6.53
7.08
7.19
6.95
6.55
6.14
5.84
5.60
5.34
4.97
4.46
3.87
3.33
2.90
2.56
2.18
1.63
0.82
-0.20
-1.23
-2.04
-2.44
-2.39
-1.90
-1.06
0.10
1.60
3.41
5.41
7.33
8.83
9.59
9.49
8.56
7.02
5.19
3.41
1.96
1.10
1.01
1.81
3.52
6.09
9.31
12.90
16.50
19.74
22.28
23.91
24.52
24.14
22.93
21.04
18.68
15.96
12.99
9.82
6.54
3.24
0.07
-2.78
-5.13
-6.76
-7.57
-7.57
-6.98
-6.11
-5.43
-5.28
-5.87
-7.18
-8.99
-10.98
-12.83
-14.32
-15.29
-15.66
-15.41
-14.58
-13.34
-11.93
-10.67
-9.85
-9.62
-9.91
-10.48
-10.98
-11.06
-10.52
-9.29
-7.48
-5.31
-3.08
-1.05
0.55
1.61
2.15
2.33
2.41
2.67
3.38
4.65
6.45
8.53
10.55
12.16
13.15
13.49
13.33
12.96
12.64
12.54
12.66
12.86
12.98
12.86
12.40
11.61
10.56
9.38
8.24
7.22
6.37
5.65
5.01
4.42
3.89
3.51
3.30
3.13
2.75
1.87
0.32
-1.77
-4.02
-5.95
-7.20
-7.65
-7.43
-6.82
-6.04
-5.29
-4.67
-4.28
-4.21
-4.48
-4.96
-5.44
-5.69
-5.69
-5.71
-6.18
-7.51
-9.81
-12.79
-15.82
-18.18
-19.37
-19.24
-18.06
-16.31
-14.43
-12.72
-11.19
-9.75
-8.29
-6.88
-5.75
-5.20
-5.41
-6.35
-7.74
-9.21
-10.46
-11.38
-12.04
-12.54
-13.03
-13.52
-14.05
-14.63
-15.32
-16.11
-16.85
-17.24
-16.83
-15.23
-12.26
-8.01
-2.87
2.62
7.91
12.50
16.05
18.41
19.64
19.97
19.67
19.03
18.22
17.23
16.01
14.47
12.64
10.63
8.60
6.67
4.89
3.26
1.79
0.49
-0.66
-1.73
-2.85
-4.13
-5.57
-7.03
-8.24
-8.94
-8.99
-8.48
-7.60
-6.63
-5.77
-5.17
-4.86
-4.87
-5.14
-5.53
-5.85
-5.87
-5.43
-4.45
-3.04
-1.33
0.53
2.43
4.32
6.16
7.88
9.36
10.48
11.12
11.23
10.84
10.06
9.01
7.84
6.68
5.63
4.73
3.96
3.24
2.46
1.51
0.36
-0.96
-2.33
-3.64
-4.78
-5.72
-6.52
-7.30
-8.22
-9.43
-11.02
-13.01
-15.27
-17.55
-19.44
-20.51
-20.42
-19.07
-16.60
-13.41
-9.89
-6.36
-2.96
0.33
3.57
6.69
9.47
11.62
12.86
13.11
12.50
11.34
9.98
8.59
7.08
5.17
2.58
-0.71
-4.30
-7.42
-9.25
-9.22
-7.28
-3.86
0.32
4.58
8.49
11.93
14.96
17.59
19.70
21.08
21.53
20.95
19.45
17.19
14.38
11.18
7.70
4.00
0.10
-4.03
-8.48
-13.32
-18.46
-23.56
-27.97
-30.95
-31.88
-30.51
-27.07
-22.13
-16.35
-10.24
-4.10
1.94
7.76
13.14
17.75
21.31
23.59
24.60
24.45
23.34
21.48
19.00
16.05
12.74
9.18
5.49
1.76
-1.92
-5.40
-8.47
-10.90
-12.45
-13.00
-12.59
-11.43
-9.79
-7.93
-6.01
-4.10
-2.21
-0.33
1.50
3.23
4.78
6.10
7.18
8.03
8.69
9.23
9.74
10.27
10.79
11.20
11.35
11.07
10.31
9.10
7.62
6.07
4.66
3.51
2.61
1.92
1.36
0.90
0.53
0.26
0.03
-0.31
-0.96
-2.15
-4.02
-6.53
-9.44
-12.39
-15.02
-17.06
-18.40
-19.05
-19.10
-18.67
-17.88
-16.87
-15.74
-14.54
-13.29
-11.92
-10.31
-8.29
-5.71
-2.49
1.32
5.54
9.83
13.70
16.67
18.34
18.59
17.55
15.60
13.21
10.78
8.55
6.54
4.59
2.42
-0.23
-3.55
-7.43
-11.50
-15.12
-17.52
-18.07
-16.56
-13.27
-8.92
-4.41
-0.51
2.37
4.20
5.23
5.84
6.34
6.92
7.62
8.31
8.75
8.67
7.95
6.69
5.30
4.30
4.10
4.77
6.03
7.29
7.98
7.77
6.66
4.96
3.10
1.47
0.35
-0.14
-0.04
0.45
1.03
1.42
1.47
1.26
1.00
0.89
1.00
1.22
1.29
1.04
0.43
-0.44
-1.41
-2.41
-3.42
-4.45
-5.41
-6.06
-6.14
-5.47
-4.09
-2.24
-0.22
1.72
3.53
5.30
7.21
9.35
11.70
14.15
16.51
18.61
20.28
21.34
21.58
20.83
19.04
16.39
13.26
10.21
7.75
6.23
5.69
5.86
6.32
6.59
6.38
5.61
4.43
3.06
1.71
0.45
-0.78
-2.08
-3.52
-5.00
-6.35
-7.39
-8.05
-8.40
-8.63
-8.93
-9.45
-10.23
-11.21
-12.33
-13.49
-14.58
-15.48
-16.01
-15.99
-15.26
-13.81
-11.71
-9.11
-6.18
-3.04
0.22
3.51
6.67
9.41
11.42
12.45
12.45
11.71
10.80
10.41
11.06
12.84
15.21
17.13
17.40
15.09
10.00
2.77
-5.27
-12.48
-17.39
-19.05
-17.19
-12.27
-5.29
2.38
9.31
14.26
16.47
15.77
12.54
7.53
1.67
-4.16
-9.19
-12.84
-14.79
-15.05
-14.11
-12.81
-12.04
-12.43
-14.03
-16.34
-18.59
-20.12
-20.70
-20.58
-20.25
-20.21
-20.73
-21.81
-23.27
-24.84
-26.22
-27.10
-27.20
-26.33
-24.50
-21.96
-19.04
-16.06
-13.11
-10.03
-6.44
-1.89
3.96
11.18
19.45
28.05
35.90
41.75
44.49
43.41
38.41
30.00
19.22
7.35
-4.30
-14.59
-22.68
-28.13
-30.94
-31.49
-30.43
-28.55
-26.54
-24.90
-23.85
-23.41
-23.42
-23.67
-23.98
-24.17
-24.13
-23.76
-23.03
-21.89
-20.37
-18.49
-16.33
-13.97
-11.50
-8.95
-6.25
-3.29
0.05
3.79
7.88
12.18
16.56
20.85
24.91
28.55
31.52
33.51
34.30
33.86
32.42
30.43
28.44
26.85
25.84
25.34
25.16
25.02
24.71
24.13
23.23
22.05
20.67
19.15
17.57
15.97
14.40
12.82
11.24
9.63
8.00
6.36
4.67
2.88
0.87
-1.40
-3.83
-6.15
-7.97
-8.92
-8.83
-7.78
-6.08
-4.08
-2.05
-0.03
2.07
4.33
6.68
8.84
10.44
11.16
10.91
9.84
8.21
6.32
4.42
2.59
0.90
-0.64
-1.98
-3.09
-3.91
-4.43
-4.71
-4.81
-4.83
-4.86
-4.98
-5.20
-5.48
-5.73
-5.88
-5.93
-5.91
-5.92
-6.07
-6.41
-6.91
-7.48
-8.03
-8.49
-8.84
-9.12
-9.42
-9.83
-10.44
-11.29
-12.33
-13.42
-14.27
-14.58
-14.11
-12.77
-10.71
-8.20
-5.53
-2.89
-0.34
2.10
4.37
6.27
7.58
8.12
7.88
7.04
5.86
4.59
3.39
2.28
1.29
0.42
-0.31
-0.83
-1.11
-1.14
-0.93
-0.53
0.01
0.61
1.18
1.59
1.72
1.52
1.00
0.27
-0.53
-1.34
-2.18
-3.16
-4.37
-5.88
-7.62
-9.43
-11.14
-12.56
-13.57
-14.02
-13.77
-12.67
-10.64
-7.77
-4.29
-0.55
3.04
6.14
8.55
10.22
11.20
11.64
11.67
11.43
10.97
10.32
9.50
8.54
7.56
6.73
6.27
6.30
6.83
7.71
8.68
9.45
9.81
9.68
9.05
8.02
6.68
5.15
3.59
2.17
1.06
0.35
0.03
-0.02
-0.04
-0.28
-0.95
-2.23
-4.17
-6.72
-9.60
-12.37
-14.42
-15.23
-14.51
-12.32
-9.07
-5.37
-1.74
1.50
4.31
6.80
9.05
11.02
12.53
13.40
13.55
13.08
12.19
11.08
9.82
8.39
6.73
4.91
3.16
1.82
1.20
1.43
2.37
3.67
4.92
5.80
6.17
6.07
5.64
4.94
3.99
2.70
0.99
-1.15
-3.61
-6.21
-8.87
-11.64
-14.69
-18.20
-22.17
-26.30
-30.06
-32.81
-34.11
-33.83
-32.19
-29.60
-26.50
-23.14
-19.62
-15.87
-11.74
-7.16
-2.20
2.88
7.64
11.58
14.19
15.24
14.92
13.85
12.96
13.19
15.14
18.72
23.23
27.51
30.39
31.08
29.32
25.37
19.79
13.25
6.31
-0.50
-6.70
-11.84
-15.65
-18.16
-19.71
-20.87
-22.10
-23.58
-25.10
-26.15
-26.25
-25.16
-23.00
-20.16
-17.12
-14.29
-11.93
-10.13
-8.87
-8.16
-7.93
-8.08
-8.39
-8.56
-8.26
-7.32
-5.74
-3.73
-1.62
0.38
2.16
3.83
5.54
7.43
9.42
11.27
12.63
13.21
12.90
11.87
10.51
9.33
8.80
9.16
10.37
12.11
13.95
15.52
16.66
17.40
17.91
18.30
18.55
18.51
18.09
17.32
16.41
15.65
15.21
15.03
14.87
14.48
13.73
12.69
11.54
10.43
9.37
8.27
7.09
5.91
4.96
4.45
4.39
4.55
4.48
3.84
2.50
0.67
-1.21
-2.61
-3.12
-2.45
-0.48
2.76
7.08
12.11
17.28
21.98
25.68
28.12
29.30
29.44
28.83
27.68
26.17
24.43
22.59
20.76
18.96
17.07
14.91
12.34
9.32
5.98
2.55
-0.73
-3.67
-6.07
-7.70
-8.38
-8.04
-6.89
-5.41
-4.23
-3.88
-4.58
-6.18
-8.38
-10.85
-13.48
-16.29
-19.33
-22.50
-25.49
-27.84
-29.02
-28.65
-26.63
-23.19
-18.92
-14.67
-11.41
-9.92
-10.64
-13.50
-17.95
-23.17
-28.23
-32.29
-34.77
-35.39
-34.25
-31.71
-28.26
-24.28
-19.98
-15.39
-10.53
-5.61
-0.90
3.39
7.43
11.75
17.01
23.53
30.90
37.95
43.17
45.31
43.87
39.27
32.57
24.96
17.34
10.18
3.58
-2.58
-8.40
-13.92
-19.07
-23.67
-27.49
-30.27
-31.78
-31.93
-30.83
-28.79
-26.23
-23.47
-20.70
-17.89
-15.01
-12.05
-9.14
-6.47
-4.21
-2.43
-1.13
-0.36
-0.30
-1.27
-3.51
-7.06
-11.61
-16.56
-21.26
-25.18
-27.99
-29.56
-29.82
-28.72
-26.21
-22.36
-17.37
-11.62
-5.55
0.45
6.11
11.28
15.85
19.70
22.75
24.96
26.38
27.11
27.25
26.87
25.97
24.60
22.83
20.70
18.26
15.45
12.15
8.32
4.16
0.12
-3.18
-5.21
-5.79
-5.25
-4.31
-3.85
-4.57
-6.80
-10.46
-15.24
-20.68
-26.33
-31.70
-36.36
-40.02
-42.68
-44.64
-46.38
-48.33
-50.54
-52.53
-53.44
-52.38
-48.83
-42.87
-35.12
-26.42
-17.54
-9.00
-1.00
6.39
13.13
19.16
24.44
28.99
32.90
36.30
39.31
41.97
44.27
46.12
47.38
47.77
46.94
44.50
40.16
33.96
26.34
18.06
10.01
2.96
-2.60
-6.47
-8.63
-9.14
-8.11
-5.70
-2.28
1.67
5.50
8.64
10.74
11.74
11.85
11.36
10.53
9.47
8.15
6.48
4.37
1.83
-1.00
-3.83
-6.29
-7.99
-8.56
-7.84
-5.89
-3.05
0.17
3.28
5.92
7.96
9.50
10.71
11.73
12.58
13.18
13.46
13.38
13.01
12.44
11.81
11.21
10.71
10.31
10.01
9.85
9.87
10.18
10.88
12.03
13.54
15.16
16.50
17.14
16.77
15.30
12.88
9.78
6.28
2.54
-1.45
-5.74
-10.35
-15.14
-19.76
-23.73
-26.61
-28.13
-28.29
-27.38
-25.88
-24.30
-23.05
-22.33
-22.15
-22.39
-22.82
-23.18
-23.20
-22.57
-21.09
-18.68
-15.48
-11.80
-8.05
-4.61
-1.70
0.70
2.72
4.58
6.42
8.29
10.07
11.62
12.83
13.61
13.98
14.02
13.83
13.51
13.16
12.87
12.69
12.68
12.84
13.14
13.52
13.88
14.10
14.05
13.65
12.86
11.75
10.42
8.99
7.53
6.10
4.71
3.40
2.29
1.47
1.00
0.76
0.58
0.18
-0.59
-1.75
-3.17
-4.63
-5.96
-7.12
-8.21
-9.39
-10.79
-12.34
-13.81
-14.76
-14.68
-13.20
-10.19
-5.88
-0.77
4.53
9.50
13.84
17.44
20.37
22.65
24.27
25.14
25.13
24.15
22.21
19.44
16.07
12.34
8.45
4.56
0.73
-2.99
-6.47
-9.58
-12.10
-13.87
-14.85
-15.13
-14.89
-14.32
-13.57
-12.74
-11.87
-11.00
-10.16
-9.32
-8.41
-7.32
-5.96
-4.29
-2.35
-0.23
2.02
4.43
7.06
9.90
12.80
15.46
17.44
18.41
18.21
16.94
14.88
12.41
9.92
7.75
6.20
5.50
5.78
6.97
8.79
10.81
12.60
13.83
14.33
14.12
13.28
11.88
9.95
7.55
4.83
2.08
-0.35
-2.17
-3.24
-3.62
-3.51
-3.16
-2.72
-2.18
-1.47
-0.47
0.80
2.21
3.47
4.28
4.41
3.73
2.29
0.23
-2.15
-4.53
-6.61
-8.19
-9.27
-9.98
-10.58
-11.28
-12.15
-13.10
-13.95
-14.57
-14.95
-15.23
-15.58
-16.07
-16.68
-17.29
-17.81
-18.25
-18.73
-19.32
-19.96
-20.35
-20.11
-18.89
-16.64
-13.59
-10.22
-6.97
-4.15
-1.79
0.28
2.24
4.17
5.97
7.47
8.50
9.04
9.19
9.17
9.15
9.23
9.38
9.55
9.68
9.80
9.95
10.19
10.48
10.74
10.85
10.71
10.32
9.74
9.06
8.38
7.77
7.22
6.67
6.04
5.28
4.36
3.35
2.33
1.41
0.61
-0.13
-0.91
-1.80
-2.80
-3.83
-4.81
-5.68
-6.51
-7.38
-8.36
-9.45
-10.52
-11.43
-12.03
-12.23
-11.95
-11.13
-9.73
-7.79
-5.43
-2.88
-0.38
1.91
3.95
5.79
7.53
9.17
10.65
11.86
12.73
13.25
13.49
13.52
13.38
13.14
12.85
12.65
12.65
12.92
13.41
13.99
14.51
14.85
14.98
14.91
14.68
14.30
13.80
13.21
12.62
12.07
11.55
10.95
10.15
9.09
7.83
6.52
5.31
4.23
3.19
2.02
0.59
-1.12
-3.03
-5.01
-7.00
-8.94
-10.73
-12.15
-12.91
-12.74
-11.54
-9.50
-7.03
-4.58
-2.44
-0.71
0.71
1.98
3.18
4.30
5.24
5.91
6.30
6.41
6.28
5.99
5.63
5.31
5.10
5.04
5.08
5.12
5.09
4.95
4.74
4.49
4.27
4.02
3.68
3.19
2.51
1.69
0.80
-0.09
-0.88
-1.52
-1.97
-2.27
-2.49
-2.81
-3.39
-4.36
-5.70
-7.27
-8.83
-10.13
-11.05
-11.61
-11.95
-12.28
-12.78
-13.58
-14.69
-16.00
-17.31
-18.32
-18.70
-18.23
-16.81
-14.60
-11.90
-9.09
-6.49
-4.28
-2.48
-1.01
0.22
1.29
2.28
3.22
4.13
4.96
5.61
5.94
5.85
5.36
4.61
3.85
3.34
3.25
3.57
4.16
4.76
5.12
5.07
4.57
3.72
2.72
1.79
1.07
0.58
0.24
-0.05
-0.39
-0.77
-1.16
-1.56
-1.99
-2.52
-3.19
-4.01
-4.95
-5.92
-6.90
-7.86
-8.81
-9.72
-10.57
-11.37
-12.18
-13.09
-14.20
-15.47
-16.76
-17.78
-18.28
-18.06
-17.06
-15.36
-13.07
-10.35
-7.38
-4.38
-1.54
0.97
3.08
4.81
6.26
7.54
8.71
9.75
10.60
11.22
11.62
11.83
11.93
12.02
12.20
12.55
13.12
13.86
14.62
15.22
15.49
15.39
14.93
14.22
13.35
12.37
11.31
10.15
8.94
7.75
6.64
5.60
4.55
3.39
2.01
0.46
-1.14
-2.62
-3.86
-4.90
-5.89
-7.01
-8.41
-10.06
-11.78
-13.32
-14.39
-14.84
-14.58
-13.62
-12.04
-9.97
-7.58
-5.07
-2.62
-0.41
1.38
2.69
3.55
4.07
4.44
4.85
5.45
6.31
7.30
8.17
8.74
9.02
9.16
9.36
9.76
10.34
10.97
11.33
11.14
10.34
9.09
7.62
6.09
4.67
3.59
3.11
3.20
3.49
3.34
2.07
-0.81
-5.33
-10.84
-16.65
-21.16
-22.92
-21.83
-18.84
-14.73
-9.89
-4.63
0.77
5.92
10.36
13.54
15.06
15.01
13.98
12.73
11.93
11.92
12.67
13.84
14.88
15.33
15.06
14.30
13.39
12.63
12.20
12.14
12.38
12.71
12.82
12.48
11.56
10.05
8.07
5.82
3.55
1.46
-0.31
-1.69
-2.62
-2.99
-2.81
-2.13
-1.11
0.18
1.71
3.57
5.80
8.31
10.86
13.08
14.61
15.32
15.27
14.59
13.34
11.41
8.51
4.44
-0.86
-7.12
-13.91
-20.75
-27.27
-33.27
-38.66
-43.39
-47.38
-50.50
-52.59
-53.50
-53.12
-51.48
-48.74
-45.28
-41.61
-38.26
-35.51
-33.32
-31.28
-28.78
-25.26
-20.38
-14.19
-7.02
0.62
8.17
15.18
21.29
26.28
30.08
32.69
34.17
34.63
34.18
32.91
30.91
28.26
24.98
21.03
16.31
10.71
4.19
-3.12
-10.89
-18.60
-25.70
-31.68
-36.14
-38.89
-39.88
-39.26
-37.37
-34.64
-31.56
-28.53
-25.69
-22.94
-20.05
-16.81
-13.24
-9.66
-6.55
-4.30
-3.01
-2.39
-1.92
-1.03
0.63
3.14
6.26
9.63
12.85
15.51
17.28
17.94
17.41
15.95
14.09
12.59
12.14
13.06
15.14
17.67
19.77
20.75
20.46
19.20
17.61
16.20
15.27
14.86
14.95
15.61
17.00
19.13
21.76
24.31
26.07
26.48
25.37
22.98
19.80
16.35
12.99
9.86
6.98
4.30
1.74
-0.72
-3.15
-5.54
-7.93
-10.31
-12.71
-15.11
-17.43
-19.57
-21.37
-22.74
-23.62
-24.08
-24.21
-24.08
-23.65
-22.84
-21.49
-19.54
-17.06
-14.20
-11.22
-8.33
-5.73
-3.53
-1.76
-0.39
0.66
1.43
1.98
2.31
2.45
2.46
2.46
2.58
2.95
3.63
4.60
5.77
6.99
8.10
8.95
9.46
9.57
9.30
8.74
8.01
7.34
6.89
6.81
7.08
7.51
7.79
7.55
6.56
4.87
2.80
0.87
-0.39
-0.70
-0.06
1.17
2.42
3.07
2.61
0.84
-2.12
-5.81
-9.59
-12.83
-15.04
-16.07
-16.02
-15.20
-13.98
-12.64
-11.27
-9.73
-7.70
-4.80
-0.87
3.92
8.89
13.13
15.68
16.01
14.17
10.78
6.72
2.77
-0.65
-3.54
-6.10
-8.53
-10.79
-12.71
-14.05
-14.68
-14.67
-14.21
-13.52
-12.77
-12.05
-11.40
-10.87
-10.50
-10.24
-9.99
-9.51
-8.59
-7.08
-4.94
-2.23
0.91
4.22
7.40
10.07
11.95
12.95
13.28
13.38
13.77
14.78
16.42
18.36
20.05
20.93
20.65
19.18
16.83
14.08
11.44
9.26
7.65
6.49
5.55
4.57
3.38
1.92
0.20
-1.73
-3.70
-5.45
-6.59
-6.71
-5.53
-3.13
0.07
3.35
5.93
7.17
6.82
4.99
2.10
-1.24
-4.39
-6.75
-7.92
-7.68
-6.12
-3.57
-0.52
2.44
4.87
6.48
7.25
7.32
6.93
6.35
5.78
5.31
4.95
4.64
4.27
3.80
3.18
2.47
1.70
0.88
-0.02
-1.04
-2.22
-3.53
-4.95
-6.41
-7.89
-9.41
-10.92
-12.34
-13.50
-14.17
-14.20
-13.52
-12.22
-10.47
-8.49
-6.44
-4.47
-2.67
-1.16
-0.07
0.52
0.62
0.35
-0.08
-0.44
-0.62
-0.60
-0.50
-0.44
-0.47
-0.57
-0.62
-0.46
0.06
1.02
2.36
3.94
5.52
6.82
7.65
7.94
7.76
7.31
6.86
6.61
6.60
6.68
6.57
5.97
4.78
3.10
1.21
-0.56
-1.98
-2.98
-3.65
-4.17
-4.72
-5.44
-6.41
-7.58
-8.82
-9.88
-10.53
-10.61
-10.20
-9.51
-8.81
-8.26
-7.82
-7.37
-6.83
-6.25
-5.80
-5.69
-5.97
-6.49
-6.96
-7.08
-6.68
-5.81
-4.68
-3.58
-2.71
-2.16
-1.84
-1.58
-1.15
-0.46
0.43
1.32
2.00
2.33
2.37
2.34
2.51
3.02
3.82
4.67
5.23
5.30
4.85
4.05
3.16
2.46
2.09
2.06
2.23
2.41
2.42
2.09
1.36
0.27
-1.08
-2.51
-3.93
-5.30
-6.67
-8.09
-9.53
-10.81
-11.63
-11.66
-10.69
-8.72
-6.00
-2.94
0.06
2.68
4.81
6.51
7.95
9.26
10.53
11.67
12.56
13.05
13.12
12.88
12.53
12.34
12.46
12.89
13.48
13.98
14.20
14.09
13.75
13.35
13.04
12.82
12.60
12.21
11.55
10.60
9.45
8.26
7.18
6.27
5.46
4.67
3.82
2.91
1.99
1.12
0.30
-0.52
-1.39
-2.41
-3.58
-4.86
-6.17
-7.50
-8.87
-10.36
-11.94
-13.52
-14.98
-16.21
-17.17
-17.86
-18.29
-18.38
-17.94
-16.73
-14.60
-11.64
-8.16
-4.62
-1.46
0.99
2.49
2.89
2.27
0.91
-0.77
-2.10
-2.29
-0.62
3.16
8.62
14.64
20.18
24.29
26.34
26.07
23.78
20.11
16.05
12.59
10.55
11.00
14.42
20.35
27.53
34.50
40.08
43.90
46.03
46.77
47.16
48.01
49.44
50.93
51.73
51.06
48.53
43.84
32.92
14.83
-7.38
-28.13
-42.90
-49.48
-49.92
-46.35
-40.35
-32.84
-24.20
-14.86
-5.79
1.57
5.95
6.73
4.43
0.22
-4.49
-7.91
-8.89
-7.36
-4.02
0.25
4.83
9.63
14.48
18.78
21.85
22.79
20.72
15.27
6.85
-3.47
-14.26
-24.28
-32.74
-38.98
-42.71
-43.90
-42.78
-39.74
-35.54
-31.01
-26.99
-24.09
-22.31
-21.46
-21.07
-20.65
-19.76
-18.49
-17.13
-16.12
-15.74
-15.86
-16.48
-17.61
-19.18
-21.12
-23.52
-26.30
-29.21
-31.84
-33.71
-35.13
-36.80
-39.31
-40.86
-39.54
-34.16
-25.04
-15.36
-5.65
4.12
14.12
24.67
35.48
45.60
53.88
59.27
61.17
59.88
55.83
49.80
42.76
35.74
29.34
23.87
19.38
15.81
13.20
11.26
9.78
8.65
7.87
7.31
6.77
5.98
4.74
2.98
0.65
-2.07
-4.78
-7.01
-8.51
-9.17
-9.16
-8.79
-8.47
-8.65
-9.55
-11.16
-13.27
-15.61
-17.81
-19.70
-20.14
-18.63
-15.74
-12.85
-11.18
-10.99
-12.31
-14.22
-16.00
-17.27
-18.18
-19.10
-19.63
-19.65
-19.06
-17.93
-16.36
-14.69
-13.20
-12.19
-11.71
-11.54
-11.27
-10.48
-8.95
-6.60
-3.65
-0.37
2.88
5.89
8.56
10.83
12.73
14.24
15.37
16.08
16.37
16.16
15.46
14.36
12.99
11.52
10.08
8.75
7.44
6.03
4.36
2.36
0.11
-2.20
-4.35
-6.10
-7.33
-8.00
-8.20
-8.09
-7.89
-7.81
-7.95
-8.26
-8.55
-8.48
-7.79
-6.33
-4.17
-1.51
1.37
4.25
6.98
9.52
11.87
14.06
16.10
18.00
19.71
21.11
22.03
22.33
21.90
20.74
18.96
16.75
14.31
11.84
9.52
7.54
6.04
5.08
4.66
4.63
4.82
5.04
5.14
5.00
4.56
3.84
2.87
1.74
0.51
-0.78
-2.14
-3.57
-5.00
-6.32
-7.35
-7.98
-8.24
-8.30
-8.40
-8.73
-9.38
-10.31
-11.43
-12.64
-13.87
-15.10
-16.24
-17.11
-17.45
-17.01
-15.65
-13.47
-10.77
-8.03
-5.67
-3.96
-2.90
-2.27
-1.78
-1.18
-0.33
0.73
1.93
3.13
4.22
5.08
5.68
6.00
6.10
6.14
6.24
6.53
7.06
7.79
8.57
9.24
9.62
9.59
9.16
8.41
7.46
6.42
5.30
4.06
2.62
0.97
-0.79
-2.54
-4.14
-5.51
-6.71
-7.80
-8.88
-9.99
-11.17
-12.42
-13.79
-15.26
-16.79
-18.26
-19.54
-20.51
-21.11
-21.28
-20.99
-20.19
-18.82
-16.84
-14.33
-11.47
-8.51
-5.71
-3.28
-1.27
0.39
1.83
3.18
4.45
5.57
6.35
6.68
6.59
6.24
5.92
5.83
6.09
6.59
7.17
7.66
7.95
8.03
7.91
7.59
7.04
6.26
5.30
4.24
3.18
2.18
1.25
0.33
-0.62
-1.63
-2.71
-3.86
-5.06
-6.32
-7.65
-9.11
-10.75
-12.63
-14.71
-16.88
-18.91
-20.53
-21.44
-21.44
-20.41
-18.40
-15.59
-12.25
-8.72
-5.34
-2.34
0.19
2.32
4.18
5.93
7.61
9.16
10.49
11.54
12.34
13.05
13.81
14.71
15.67
16.57
17.32
17.91
18.46
19.06
19.74
20.38
20.79
20.83
20.47
19.82
19.05
18.29
17.59
16.97
16.35
15.69
14.95
14.12
13.19
12.16
11.05
9.88
8.71
7.62
6.76
6.31
6.44
7.27
8.77
10.80
13.11
15.50
17.79
19.93
21.95
23.86
25.70
27.40
28.82
29.79
30.12
29.72
28.67
27.20
25.66
24.35
23.41
22.75
22.05
20.97
19.27
16.93
14.17
11.31
8.68
6.52
4.90
3.76
2.90
2.06
0.92
-0.76
-3.08
-5.93
-9.04
-12.05
-14.64
-16.65
-18.03
-18.84
-19.20
-19.27
-19.27
-19.52
-20.34
-21.98
-24.48
-27.62
-30.92
-33.74
-35.51
-35.82
-34.55
-31.87
-28.10
-23.72
-19.18
-14.91
-11.20
-8.19
-5.82
-3.85
-1.97
0.04
2.24
4.51
6.65
8.48
9.92
11.02
11.84
12.38
12.57
12.30
11.57
10.51
9.43
8.64
8.38
8.71
9.51
10.51
11.36
11.75
11.47
10.43
8.74
6.63
4.38
2.27
0.50
-0.87
-1.87
-2.63
-3.29
-3.98
-4.83
-5.94
-7.38
-9.09
-10.94
-12.72
-14.30
-15.70
-17.15
-18.96
-21.29
-24.02
-26.69
-28.69
-29.50
-28.92
-27.15
-24.67
-22.02
-19.61
-17.60
-15.94
-14.46
-12.97
-11.35
-9.59
-7.76
-6.01
-4.45
-3.19
-2.27
-1.64
-1.15
-0.62
0.15
1.34
2.98
4.99
7.15
9.17
10.83
12.02
12.77
13.16
13.32
13.31
13.13
12.78
12.30
11.72
11.12
10.56
10.11
9.82
9.71
9.78
9.96
10.17
10.33
10.41
10.43
10.44
10.49
10.55
10.53
10.33
9.85
9.10
8.14
7.09
6.03
4.92
3.67
2.14
0.26
-1.92
-4.22
-6.34
-7.94
-8.74
-8.55
-7.35
-5.27
-2.60
0.35
3.22
5.79
7.91
9.57
10.81
11.66
12.15
12.34
12.27
12.04
11.77
11.55
11.43
11.45
11.66
12.11
12.89
14.02
15.43
16.97
18.41
19.49
19.95
19.63
18.42
16.34
13.52
10.24
6.84
3.68
1.02
-1.03
-2.54
-3.68
-4.60
-5.41
-6.15
-6.86
-7.63
-8.58
-9.76
-11.16
-12.67
-14.06
-15.18
-15.93
-16.39
-16.77
-17.28
-18.12
-19.34
-20.84
-22.34
-23.48
-23.85
-23.14
-21.27
-18.44
-15.04
-11.50
-8.17
-5.18
-2.52
-0.12
1.99
3.76
5.08
5.93
6.38
6.56
6.57
6.42
6.04
5.39
4.53
3.63
2.90
2.53
2.54
2.80
3.10
3.26
3.12
2.67
1.99
1.23
0.55
0.08
-0.09
0.08
0.57
1.34
2.35
3.53
4.76
5.93
6.85
7.40
7.47
7.03
6.12
4.80
3.13
1.23
-0.74
-2.58
-4.08
-5.09
-5.64
-5.88
-6.10
-6.58
-7.49
-8.81
-10.31
-11.67
-12.54
-12.66
-11.91
-10.36
-8.22
-5.76
-3.32
-1.12
0.69
2.13
3.31
4.36
5.35
6.26
6.94
7.26
7.13
6.60
5.87
5.19
4.78
4.71
4.94
5.29
5.54
5.52
5.19
4.59
3.89
3.24
2.75
2.39
2.07
1.63
0.99
0.18
-0.68
-1.40
-1.86
-2.04
-2.05
-2.06
-2.24
-2.67
-3.37
-4.24
-5.18
-6.06
-6.83
-7.52
-8.25
-9.13
-10.22
-11.47
-12.68
-13.62
-14.04
-13.84
-13.02
-11.69
-10.02
-8.12
-6.11
-3.98
-1.80
0.38
2.40
4.12
5.39
6.07
6.13
5.56
4.47
3.00
1.34
-0.29
-1.71
-2.76
-3.37
-3.53
-3.34
-2.89
-2.28
-1.58
-0.82
-0.00
0.83
1.61
2.20
2.51
2.47
2.11
1.59
1.07
0.71
0.55
0.56
0.66
0.78
0.91
1.05
1.20
1.25
1.01
0.30
-0.96
-2.66
-4.53
-6.24
-7.54
-8.41
-9.07
-9.81
-10.86
-12.17
-13.44
-14.20
-14.08
-12.93
-10.90
-8.38
-5.77
-3.37
-1.32
0.40
1.84
3.03
3.90
4.38
4.35
3.75
2.56
0.80
-1.41
-3.88
-6.33
-8.43
-9.90
-10.57
-10.50
-9.91
-9.08
-8.24
-7.47
-6.71
-5.81
-4.61
-3.07
-1.21
0.87
3.03
5.18
7.23
9.07
10.58
11.57
11.90
11.48
10.42
8.96
7.48
6.38
5.91
6.10
6.73
7.38
7.54
6.83
4.99
2.06
-1.74
-5.98
-10.15
-13.80
-16.55
-18.24
-18.85
-18.55
-17.54
-16.08
-14.41
-12.75
-11.33
-10.34
-9.88
-9.91
-10.25
-10.59
-10.60
-10.06
-8.94
-7.44
-5.85
-4.45
-3.36
-2.52
-1.76
-0.90
0.15
1.35
2.60
3.78
4.87
5.89
6.88
7.83
8.65
9.20
9.35
9.05
8.33
7.32
6.17
5.01
3.89
2.77
1.58
0.25
-1.26
-2.85
-4.43
-5.91
-7.25
-8.48
-9.62
-10.63
-11.35
-11.59
-11.15
-9.95
-8.07
-5.77
-3.36
-1.13
0.77
2.34
3.68
4.91
6.05
7.04
7.73
8.05
8.06
7.95
7.98
8.30
8.91
9.63
10.21
10.46
10.31
9.81
9.11
8.34
7.58
6.85
6.13
5.38
4.58
3.75
2.91
2.11
1.42
0.84
0.36
-0.08
-0.59
-1.26
-2.13
-3.16
-4.25
-5.26
-6.08
-6.69
-7.16
-7.66
-8.36
-9.39
-10.73
-12.23
-13.63
-14.64
-15.01
-14.59
-13.36
-11.44
-9.07
-6.52
-4.05
-1.81
0.12
1.76
3.13
4.26
5.10
5.63
5.80
5.67
5.37
5.11
5.07
5.36
5.95
6.71
7.43
7.94
8.15
8.11
7.96
7.91
8.09
8.58
9.27
9.98
10.47
10.51
9.98
8.90
7.48
6.01
4.83
4.21
4.28
4.99
6.18
7.55
8.80
9.60
9.77
9.24
8.04
6.25
3.89
0.92
-2.68
-6.77
-10.99
-14.76
-17.47
-18.60
-18.02
-15.96
-12.94
-9.61
-6.56
-4.25
-2.99
-2.96
-4.26
-7.02
-11.15
-16.25
-21.43
-25.55
-27.64
-27.31
-24.81
-20.82
-16.11
-11.12
-5.98
-0.74
4.32
8.47
10.94
11.23
9.94
7.80
5.41
2.92
0.41
-1.69
-2.60
-1.68
0.96
4.21
6.28
5.79
2.61
-2.00
-5.80
-6.82
-3.89
3.12
13.68
26.99
42.26
57.50
70.52
79.30
81.99
77.60
66.44
50.36
32.19
14.86
0.44
-10.16
-17.17
-21.65
-24.71
-27.08
-29.02
-30.55
-31.60
-32.27
-32.99
-33.49
-33.53
-32.81
-31.03
-28.12
-24.28
-20.02
-15.95
-12.47
-9.63
-7.30
-5.26
-3.34
-1.55
-0.08
0.84
1.09
0.74
0.05
-0.73
-1.37
-1.72
-1.70
-1.46
-1.08
-0.66
-0.31
-0.06
-0.01
-0.19
-0.57
-1.09
-1.68
-2.31
-3.02
-3.88
-4.92
-6.06
-7.09
-7.72
-7.66
-6.79
-5.16
-3.06
-0.81
1.28
3.06
4.53
5.77
6.87
7.86
8.69
9.33
9.77
10.05
10.20
10.27
10.26
10.18
10.03
9.86
9.70
9.54
9.32
8.99
8.53
7.96
7.36
6.78
6.23
5.69
5.10
4.43
3.65
2.74
1.66
0.43
-0.94
-2.33
-3.60
-4.62
-5.38
-5.94
-6.47
-7.15
-8.08
-9.20
-10.37
-11.34
-11.81
-11.56
-10.53
-8.80
-6.61
-4.27
-2.05
-0.08
1.64
3.25
4.84
6.47
8.08
9.53
10.68
11.43
11.77
11.80
11.63
11.43
11.29
11.31
11.46
11.65
11.80
11.84
11.82
11.83
11.98
12.30
12.67
12.87
12.70
12.15
11.37
10.58
9.92
9.34
8.64
7.60
6.18
4.54
3.06
2.04
1.53
1.32
1.14
0.75
0.13
-0.60
-1.16
-1.12
-0.23
1.55
4.02
6.83
9.67
12.24
14.41
16.22
17.99
19.89
21.82
23.46
24.60
25.34
25.94
26.72
27.73
28.92
29.65
28.99
26.16
21.10
14.32
6.54
-1.76
-11.95
-23.91
-35.92
-45.46
-50.78
-51.52
-48.63
-43.83
-38.94
-35.24
-32.82
-31.15
-29.50
-27.42
-24.87
-21.88
-18.54
-14.77
-10.22
-4.05
4.25
14.52
24.92
33.41
38.14
38.17
33.86
26.70
18.76
11.54
5.42
-0.13
-5.80
-11.89
-18.04
-23.39
-27.09
-28.74
-28.67
-27.70
-27.05
-26.83
-26.78
-26.34
-25.04
-22.69
-19.47
-15.84
-12.33
-9.35
-7.03
-5.31
-4.07
-3.12
-2.35
-1.73
-1.27
-1.08
-1.21
-1.61
-2.15
-2.64
-2.91
-2.85
-2.64
-2.52
-2.72
-3.38
-4.45
-5.78
-7.09
-8.16
-8.83
-9.14
-9.19
-9.12
-9.02
-8.87
-8.54
-7.86
-6.74
-5.13
-3.13
-0.86
1.53
3.89
6.09
8.00
9.51
10.53
11.13
11.48
11.78
12.21
12.85
13.69
14.61
15.46
16.09
16.44
16.55
16.50
16.39
16.37
16.63
17.20
17.97
18.73
19.34
19.76
20.04
20.22
20.35
20.56
20.79
20.87
20.64
20.10
19.41
18.76
18.37
18.32
18.80
19.56
19.98
19.30
16.98
12.90
7.40
1.21
-6.10
-13.73
-20.29
-24.72
-26.89
-27.21
-26.24
-24.47
-22.34
-20.35
-18.76
-17.76
-17.38
-17.33
-17.10
-16.15
-14.10
-10.89
-6.71
-1.65
4.07
10.21
15.82
20.32
23.28
24.27
23.13
19.95
15.38
10.21
5.06
0.18
-4.37
-8.75
-13.10
-17.25
-20.86
-23.45
-24.80
-25.03
-24.63
-24.09
-23.77
-24.03
-24.51
-24.72
-24.23
-22.78
-20.39
-17.44
-14.39
-11.70
-9.64
-8.22
-7.26
-6.46
-5.58
-4.50
-3.32
-2.16
-1.11
-0.23
0.58
1.39
2.26
3.21
4.19
5.18
5.88
6.19
6.10
5.72
5.12
4.39
3.60
2.79
1.97
1.21
0.59
0.22
0.12
0.27
0.54
0.77
0.82
0.64
0.25
-0.23
-0.66
-0.96
-1.16
-1.37
-1.74
-2.36
-3.22
-4.23
-5.22
-6.07
-6.74
-7.25
-7.66
-8.03
-8.44
-8.99
-9.78
-10.87
-12.23
-13.66
-14.81
-15.28
-14.77
-13.17
-10.63
-7.48
-4.12
-0.92
1.90
4.23
6.11
7.64
8.96
10.16
11.29
12.31
13.13
13.65
13.80
13.57
13.04
12.35
11.70
11.27
11.19
11.47
12.02
12.63
13.04
13.09
12.72
12.08
11.36
10.75
10.30
9.92
9.49
8.92
8.18
7.34
6.43
5.49
4.51
3.48
2.47
1.55
0.78
0.16
-0.38
-0.95
-1.70
-2.71
-4.03
-5.64
-7.37
-8.96
-10.02
-10.23
-9.42
-7.67
-5.30
-2.71
-0.23
1.93
3.74
5.26
6.59
7.81
8.98
10.06
11.02
11.74
12.14
12.19
11.95
11.59
11.25
11.05
10.99
10.95
10.81
10.52
10.08
9.60
9.20
8.96
8.86
8.76
8.52
8.03
7.29
6.38
5.46
4.61
3.86
3.10
2.20
1.08
-0.25
-1.66
-2.98
-4.12
-5.10
-5.97
-6.83
-7.72
-8.62
-9.53
-10.47
-11.48
-12.59
-13.77
-14.90
-15.73
-15.98
-15.43
-13.96
-11.67
-8.78
-5.64
-2.64
-0.03
2.04
3.61
4.80
5.77
6.61
7.34
7.91
8.24
8.32
8.18
7.92
7.66
7.49
7.46
7.53
7.61
7.61
7.50
7.27
6.98
6.71
6.44
6.17
5.80
5.28
4.57
3.68
2.63
1.44
0.16
-1.17
-2.45
-3.61
-4.59
-5.44
-6.23
-7.13
-8.25
-9.66
-11.35
-13.19
-15.01
-16.50
-17.34
-17.25
-16.08
-13.90
-10.99
-7.79
-4.71
-1.99
0.32
2.31
4.10
5.74
7.19
8.35
9.13
9.56
9.71
9.69
9.61
9.49
9.35
9.22
9.15
9.19
9.39
9.71
10.07
10.31
10.32
10.04
9.48
8.76
7.96
7.17
6.41
5.65
4.84
3.92
2.88
1.72
0.49
-0.79
-2.09
-3.39
-4.67
-5.89
-7.08
-8.27
-9.57
-11.08
-12.90
-15.00
-17.23
-19.29
-20.78
-21.35
-20.75
-18.99
-16.29
-13.02
-9.60
-6.35
-3.48
-1.04
1.01
2.77
4.33
5.74
7.00
8.06
8.87
9.35
9.51
9.42
9.19
8.93
8.69
8.49
8.31
8.14
7.96
7.75
7.46
7.01
6.31
5.33
4.10
2.74
1.37
0.07
-1.10
-2.13
-2.96
-3.59
-4.08
-4.56
-5.22
-6.18
-7.53
-9.18
-10.87
-12.20
-12.84
-12.58
-11.38
-9.47
-7.23
-5.23
-3.87
-3.18
-2.74
-1.86
0.05
3.31
7.76
12.68
16.86
19.05
18.42
14.86
9.00
2.01
-4.69
-9.88
-12.37
-12.02
-10.08
-8.12
-6.90
-6.18
-5.32
-3.86
-1.86
0.28
2.05
3.28
4.20
5.20
6.41
7.67
8.55
8.60
7.64
5.75
3.27
0.75
-1.27
-2.37
-2.37
-1.29
0.70
3.18
5.55
7.13
7.37
6.01
2.99
-1.46
-6.79
-12.33
-17.35
-21.16
-23.24
-23.26
-21.21
-17.36
-12.26
-6.64
-1.21
3.46
7.11
9.74
11.58
12.93
14.07
15.17
16.26
17.24
18.01
18.58
18.99
19.25
19.24
18.87
18.04
16.79
15.07
13.07
11.20
9.84
9.09
8.74
8.45
7.85
6.74
4.71
1.83
-1.17
-3.35
-4.10
-3.42
-1.88
-0.45
-0.25
-2.77
-8.46
-16.41
-25.04
-33.17
-40.43
-47.11
-53.84
-61.15
-70.07
-80.55
-91.11
-99.57
-103.84
-102.37
-94.05
-78.40
-50.88
-13.37
26.00
58.05
78.04
86.22
85.34
78.54
68.38
56.58
43.49
29.72
16.62
5.81
-1.83
-6.30
-8.20
-8.41
-8.27
-8.78
-10.15
-11.62
-12.07
-10.88
-8.14
-4.44
-0.54
2.89
5.11
5.89
5.65
5.19
5.05
5.42
6.17
7.06
7.66
7.56
6.57
4.95
3.18
1.69
0.64
-0.01
-0.46
-0.94
-1.65
-2.68
-4.00
-5.48
-7.03
-8.55
-9.88
-10.80
-11.07
-10.48
-8.98
-6.71
-3.94
-1.04
1.64
3.86
5.45
6.43
6.92
7.08
7.04
6.87
6.60
6.26
5.93
5.70
5.69
5.97
6.51
7.24
8.03
8.83
9.72
10.79
12.09
13.53
14.84
15.78
16.15
15.92
15.23
14.43
13.82
13.53
13.41
13.17
12.60
11.61
10.29
8.82
7.61
7.00
7.15
7.97
9.21
10.59
11.77
12.45
12.41
11.93
11.46
11.47
12.23
13.80
16.01
18.57
21.02
21.03
16.76
7.32
-6.47
-22.59
-38.66
-52.39
-61.94
-66.14
-64.84
-58.40
-47.89
-34.58
-19.70
-4.23
11.31
25.94
38.19
46.42
49.83
48.41
43.13
35.65
27.80
21.05
16.11
12.93
9.93
6.87
4.05
2.30
2.32
4.02
6.14
6.76
4.05
-2.65
-12.26
-22.64
-31.51
-37.43
-40.29
-41.62
-42.41
-43.17
-43.54
-42.52
-39.24
-33.52
-26.03
-18.08
-11.08
-5.90
-2.81
-1.35
-0.66
0.01
1.02
2.23
3.39
4.39
5.34
6.42
7.88
9.83
12.19
14.75
17.33
19.88
22.42
24.91
26.12
24.76
19.95
12.13
3.14
-4.50
-8.56
-7.92
-2.91
4.66
12.43
18.59
22.47
24.44
25.39
25.86
25.62
23.78
19.35
12.01
2.08
-9.00
-19.47
-27.32
-31.28
-30.81
-25.72
-15.85
-0.40
19.03
38.86
54.66
62.98
62.35
53.35
38.19
19.95
2.13
-14.18
-27.78
-37.69
-43.30
-44.75
-42.75
-38.42
-33.14
-27.12
-21.47
-16.90
-13.78
-12.10
-11.68
-12.17
-13.22
-14.58
-16.17
-18.32
-20.95
-23.66
-25.86
-27.03
-26.99
-25.92
-24.36
-22.86
-22.03
-21.91
-22.21
-22.56
-22.77
-22.89
-23.13
-23.68
-24.54
-25.59
-26.37
-26.28
-24.78
-21.46
-16.18
-9.07
-0.55
8.74
17.96
26.38
33.42
38.78
42.41
44.46
45.22
45.00
44.03
42.49
40.45
37.96
35.06
31.78
28.18
24.37
20.46
16.61
12.91
9.38
5.99
2.64
-0.75
-4.20
-7.63
-10.86
-13.68
-15.87
-17.33
-18.10
-18.38
-18.44
-18.51
-18.58
-18.45
-17.70
-15.92
-12.92
-8.87
-4.36
-0.13
3.08
4.82
4.99
3.88
2.02
0.03
-1.45
-1.94
-1.07
1.26
4.93
9.50
14.38
18.91
22.54
24.91
25.91
25.64
24.34
22.32
19.94
17.52
15.34
13.54
12.12
10.94
9.83
8.62
7.30
5.96
4.76
3.78
2.99
2.23
1.34
0.23
-1.03
-2.26
-3.28
-3.95
-4.30
-4.46
-4.59
-4.84
-5.27
-5.88
-6.63
-7.47
-8.34
-9.22
-10.11
-11.06
-12.14
-13.35
-14.66
-15.99
-17.21
-18.26
-19.11
-19.79
-20.32
-20.63
-20.57
-19.92
-18.49
-16.20
-13.13
-9.50
-5.63
-1.80
1.72
4.77
7.26
9.18
10.57
11.45
11.90
11.95
11.68
11.14
10.40
9.57
8.75
8.04
7.54
7.31
7.32
7.50
7.71
7.77
7.57
7.06
6.27
5.26
4.15
2.98
1.81
0.70
-0.30
-1.12
-1.72
-2.09
-2.24
-2.14
-1.79
-1.20
-0.51
0.09
0.35
0.06
-0.88
-2.45
-4.54
-6.96
-9.45
-11.63
-13.12
-13.55
-12.83
-11.11
-8.88
-6.65
-4.82
-3.48
-2.46
-1.49
-0.38
0.86
2.06
3.06
3.80
4.33
4.77
5.22
5.66
6.06
6.35
6.56
6.76
7.03
7.42
7.88
8.36
8.77
9.04
9.11
8.91
8.39
7.56
6.55
5.54
4.75
4.25
3.97
3.75
3.39
2.82
2.10
1.37
0.75
0.24
-0.32
-1.10
-2.21
-3.65
-5.28
-6.96
-8.57
-10.01
-11.24
-12.18
-12.71
-12.71
-12.08
-10.80
-8.93
-6.64
-4.12
-1.60
0.71
2.69
4.28
5.52
6.48
7.21
7.73
7.97
7.90
7.50
6.85
6.07
5.25
4.45
3.71
3.01
2.39
1.92
1.71
1.86
2.42
3.38
4.65
6.02
7.26
8.05
8.17
7.47
5.98
3.91
1.58
-0.64
-2.33
-3.20
-3.09
-2.10
-0.58
0.91
1.77
1.49
-0.15
-3.05
-6.80
-10.79
-14.34
-16.88
-18.07
-17.84
-16.45
-14.37
-12.20
-10.45
-9.49
-9.36
-9.83
-10.48
-10.77
-10.32
-9.00
-6.94
-4.53
-2.18
-0.21
1.26
2.30
3.12
3.97
5.09
6.64
8.71
11.24
14.09
17.04
19.87
22.43
24.57
26.13
26.96
26.94
26.10
24.65
22.95
21.39
20.16
19.21
18.26
16.91
14.81
11.77
7.72
2.79
-2.72
-8.35
-13.59
-17.99
-21.34
-23.74
-25.52
-27.01
-28.30
-29.16
-29.10
-27.72
-24.95
-21.14
-16.93
-12.99
-9.76
-7.33
-5.55
-4.19
-3.10
-2.26
-1.77
-1.68
-1.93
-2.36
-2.75
-2.93
-2.86
-2.60
-2.27
-1.96
-1.69
-1.40
-0.97
-0.24
0.97
2.79
5.27
8.37
11.85
15.40
18.66
21.34
23.27
24.43
24.86
24.71
24.14
23.38
22.71
22.36
22.47
23.01
23.76
24.46
24.89
24.99
24.86
24.74
24.90
25.50
26.48
27.58
28.33
28.22
26.83
24.01
19.95
15.12
10.16
5.63
1.86
-1.09
-3.36
-5.19
-6.77
-8.19
-9.48
-10.62
-11.58
-12.35
-12.88
-13.10
-12.95
-12.36
-11.37
-10.11
-8.77
-7.54
-6.55
-5.86
-5.43
-5.16
-4.92
-4.60
-4.16
-3.66
-3.22
-3.03
-3.22
-3.83
-4.81
-6.01
-7.29
-8.50
-9.59
-10.57
-11.57
-12.70
-14.05
-15.66
-17.46
-19.33
-21.12
-22.74
-24.14
-25.34
-26.40
-27.32
-28.11
-28.69
-28.97
-28.88
-28.35
-27.36
-25.88
-23.88
-21.35
-18.34
-14.99
-11.57
-8.42
-5.87
-4.09
-3.05
-2.52
-2.21
-1.86
-1.37
-0.78
-0.19
0.36
0.94
1.66
2.60
3.71
4.81
5.64
6.08
6.14
6.00
5.88
5.88
5.94
5.94
5.76
5.45
5.20
5.15
5.38
5.72
5.96
5.86
5.35
4.51
3.53
2.57
1.71
0.92
0.15
-0.68
-1.59
-2.59
-3.62
-4.57
-5.26
-5.50
-5.13
-4.13
-2.58
-0.69
1.30
3.22
4.98
6.54
7.87
8.93
9.65
9.97
9.88
9.46
8.84
8.15
7.50
6.95
6.52
6.20
5.97
5.81
5.66
5.47
5.21
4.85
4.42
3.95
3.48
3.00
2.45
1.76
0.88
-0.19
-1.37
-2.55
-3.62
-4.58
-5.49
-6.49
-7.67
-9.02
-10.47
-11.80
-12.88
-13.63
-14.10
-14.47
-14.91
-15.54
-16.35
-17.19
-17.81
-17.97
-17.51
-16.41
-14.74
-12.66
-10.36
-8.00
-5.68
-3.51
-1.55
0.19
1.69
2.98
4.09
5.01
5.71
6.18
6.46
6.59
6.67
6.75
6.89
7.05
7.18
7.18
7.00
6.63
6.13
5.57
5.01
4.46
3.90
3.29
2.61
1.90
1.19
0.51
-0.18
-0.98
-1.98
-3.19
-4.52
-5.78
-6.76
-7.32
-7.46
-7.27
-6.91
-6.53
-6.21
-6.06
-6.15
-6.61
-7.54
-8.94
-10.69
-12.48
-13.97
-14.84
-14.94
-14.23
-12.78
-10.66
-7.90
-4.54
-0.71
3.39
7.43
11.07
14.06
16.26
17.63
18.26
18.30
17.99
17.60
17.44
17.68
18.38
19.39
20.45
21.31
21.88
22.21
22.45
22.74
23.04
23.20
23.02
22.40
21.42
20.29
19.27
18.52
18.05
17.67
17.15
16.30
15.07
13.53
11.87
10.21
8.60
6.94
5.00
2.60
-0.32
-3.64
-7.02
-10.06
-12.39
-13.79
-14.17
-13.58
-12.16
-10.07
-7.54
-4.84
-2.27
-0.09
1.49
2.42
2.77
2.73
2.51
2.29
2.19
2.17
2.15
2.03
1.75
1.36
0.93
0.57
0.32
0.12
-0.11
-0.39
-0.72
-0.99
-1.11
-1.03
-0.78
-0.47
-0.19
-0.06
-0.11
-0.36
-0.75
-1.20
-1.60
-1.86
-1.96
-1.91
-1.76
-1.53
-1.27
-1.01
-0.81
-0.77
-0.92
-1.25
-1.58
-1.67
-1.31
-0.38
1.12
3.12
5.55
8.36
11.51
14.83
18.06
20.79
22.62
23.26
22.67
21.07
18.85
16.45
14.20
12.23
10.37
8.30
5.64
2.13
-2.20
-6.95
-11.50
-15.11
-17.18
-17.43
-15.93
-13.08
-9.46
-5.64
-2.08
0.95
3.32
4.95
5.79
5.83
5.12
3.84
2.24
0.56
-1.08
-2.71
-4.43
-6.35
-8.48
-10.71
-12.95
-15.15
-17.43
-19.98
-22.92
-26.24
-29.69
-32.86
-35.35
-36.82
-37.09
-36.13
-34.00
-30.83
-26.78
-22.03
-16.87
-11.65
-6.71
-2.36
1.14
3.62
4.96
5.12
4.19
2.43
0.24
-1.89
-3.59
-4.66
-5.18
-5.35
-5.42
-5.54
-5.74
-5.97
-6.16
-6.27
-6.33
-6.37
-6.36
-6.25
-6.00
-5.61
-5.16
-4.79
-4.63
-4.72
-5.00
-5.32
-5.53
-5.55
-5.43
-5.28
-5.26
-5.48
-5.98
-6.73
-7.65
-8.63
-9.50
-10.06
-10.07
-9.32
-7.76
-5.50
-2.86
-0.24
1.99
3.67
4.86
5.81
6.74
7.77
8.84
9.79
10.53
11.07
11.55
12.11
12.75
13.28
13.43
13.02
12.10
11.00
10.15
9.89
10.35
11.39
12.73
14.12
15.41
16.60
17.69
18.64
19.35
19.68
19.52
18.89
17.94
16.95
16.22
16.04
16.53
17.65
19.16
20.66
21.82
22.38
22.36
21.92
21.35
20.87
20.61
20.56
20.59
20.52
20.19
19.48
18.37
16.90
15.13
13.12
10.95
8.65
6.35
4.22
2.45
1.20
0.47
0.12
-0.08
-0.28
-0.57
-0.90
-1.22
-1.58
-2.11
-3.02
-4.41
-6.26
-8.38
-10.54
-12.49
-14.06
-15.14
-15.72
-15.87
-15.77
-15.70
-15.93
-16.62
-17.70
-18.92
-19.90
-20.33
-20.09
-19.25
-18.02
-16.65
-15.30
-14.10
-13.12
-12.44
-12.13
-12.19
-12.56
-13.17
-13.88
-14.63
-15.33
-15.89
-16.14
-15.88
-14.96
-13.36
-11.25
-8.92
-6.67
-4.71
-3.08
-1.74
-0.61
0.26
0.75
0.75
0.25
-0.52
-1.26
-1.64
-1.49
-0.85
0.07
1.03
1.91
2.72
3.53
4.40
5.31
6.11
6.65
6.82
6.62
6.17
5.64
5.15
4.77
4.46
4.13
3.64
2.93
1.98
0.86
-0.29
-1.34
-2.22
-2.95
-3.60
-4.32
-5.26
-6.51
-8.13
-10.06
-12.12
-14.02
-15.38
-15.93
-15.54
-14.34
-12.64
-10.81
-9.09
-7.57
-6.16
-4.73
-3.22
-1.70
-0.31
0.82
1.63
2.14
2.35
2.30
2.01
1.53
0.96
0.46
0.19
0.22
0.51
0.91
1.25
1.42
1.40
1.25
1.06
0.90
0.77
0.64
0.50
0.33
0.13
-0.09
-0.35
-0.71
-1.21
-1.88
-2.71
-3.65
-4.64
-5.61
-6.52
-7.37
-8.19
-9.09
-10.13
-11.31
-12.48
-13.37
-13.65
-13.11
-11.70
-9.59
-7.06
-4.44
-1.97
0.23
2.12
3.75
5.22
6.64
8.11
9.69
11.31
12.80
13.91
14.43
14.34
13.77
13.06
12.54
12.46
12.91
13.76
14.74
15.50
15.77
15.44
14.63
13.74
13.35
13.95
15.59
17.73
19.22
18.69
14.97
7.68
-2.66
-14.71
-26.73
-37.06
-44.42
-48.10
-48.04
-44.78
-39.48
-33.64
-28.84
-26.28
-26.43
-28.99
-32.99
-37.21
-40.60
-42.45
-42.48
-40.72
-37.34
-32.65
-27.01
-20.79
-14.27
-7.69
-1.19
5.17
11.32
17.23
22.73
27.64
31.86
35.44
38.51
41.09
43.15
44.61
45.48
45.66
45.12
44.07
42.92
42.10
41.82
42.01
42.40
42.66
42.10
40.12
36.59
32.03
27.32
23.23
20.08
17.73
15.64
12.51
6.97
-1.83
-13.76
-27.98
-43.32
-58.62
-72.75
-81.88
-82.65
-74.48
-60.24
-43.98
-28.39
-14.33
-1.73
9.63
19.54
26.96
30.84
31.00
28.45
24.96
22.35
21.28
21.75
23.43
25.50
27.26
28.42
29.13
29.62
29.92
29.90
29.55
29.07
28.56
28.08
27.42
26.58
25.61
24.56
23.58
22.92
22.80
23.22
23.89
24.39
24.28
23.20
21.10
18.17
14.73
11.07
7.29
3.34
-0.89
-5.68
-10.96
-16.15
-20.34
-22.89
-23.72
-23.30
-22.39
-21.82
-22.79
-25.88
-30.56
-35.51
-39.52
-41.89
-42.54
-41.83
-40.55
-40.60
-43.23
-47.98
-53.03
-56.46
-57.13
-54.93
-50.68
-45.98
-44.07
-47.52
-56.76
-70.19
-85.08
-98.03
-105.06
-102.24
-79.60
-35.83
18.28
65.97
95.63
105.14
99.29
85.39
69.85
56.26
44.13
32.14
20.44
10.94
5.58
4.96
8.07
12.79
16.65
16.83
12.35
4.69
-3.09
-8.36
-9.99
-8.63
-5.35
-1.54
1.09
1.74
0.88
-0.18
-0.31
0.89
3.18
5.95
8.43
9.69
9.33
7.63
5.38
3.35
1.97
1.34
1.28
1.47
1.53
1.25
0.70
0.19
-0.16
-0.25
-0.10
0.24
0.65
1.01
1.23
1.27
1.10
0.73
0.23
-0.32
-0.82
-1.18
-1.36
-1.42
-1.49
-1.74
-2.29
-3.15
-4.24
-5.48
-6.74
-7.93
-8.94
-9.59
-9.73
-9.22
-8.06
-6.37
-4.37
-2.28
-0.25
1.62
3.35
4.92
6.32
7.48
8.39
8.99
9.31
9.39
9.31
9.14
8.92
8.65
8.30
7.82
7.20
6.47
5.72
5.03
4.45
3.94
3.45
2.91
2.29
1.65
1.03
0.48
-0.04
-0.58
-1.20
-1.86
-2.55
-3.23
-3.92
-4.69
-5.60
-6.65
-7.84
-9.12
-10.48
-11.91
-13.39
-14.81
-16.05
-16.88
-17.15
-16.75
-15.68
-14.04
-11.94
-9.53
-6.94
-4.28
-1.62
0.96
3.43
5.73
7.78
9.50
10.84
11.78
12.32
12.53
12.51
12.38
12.27
12.24
12.26
12.24
12.08
11.68
11.00
10.13
9.18
8.30
7.60
7.14
7.06
7.49
8.46
9.91
11.66
13.44
14.96
16.01
16.51
16.72
16.96
17.37
17.93
18.44
18.69
18.48
17.71
16.40
15.07
14.17
13.86
14.06
14.63
15.56
17.00
19.11
21.95
26.07
31.57
37.99
44.46
50.20
54.84
58.38
60.94
62.61
64.16
65.88
67.38
67.76
66.26
62.68
57.39
51.08
39.30
20.80
-2.10
-24.67
-42.89
-55.10
-61.66
-63.97
-63.86
-62.91
-61.78
-60.56
-59.10
-57.14
-54.27
-50.13
-44.62
-38.21
-31.92
-26.16
-21.16
-17.12
-14.23
-12.54
-11.92
-12.10
-13.04
-14.91
-17.45
-20.24
-22.93
-25.24
-26.69
-26.58
-24.08
-18.97
-12.09
-4.96
0.46
2.48
0.22
-5.88
-14.26
-21.47
-23.87
-20.04
-11.37
-0.56
9.99
19.05
26.72
33.17
38.55
42.81
45.91
48.21
49.57
50.49
51.26
51.78
51.59
50.19
47.08
41.88
34.63
25.92
16.87
8.64
2.14
-2.20
-4.50
-5.57
-6.73
-9.43
-14.72
-22.85
-33.23
-44.50
-54.96
-63.02
-67.77
-69.14
-67.73
-64.40
-59.83
-54.52
-48.80
-42.91
-37.01
-31.24
-25.62
-20.17
-14.94
-10.22
-6.45
-4.05
-3.15
-3.49
-4.56
-5.87
-7.15
-8.26
-8.97
-8.74
-6.76
-2.28
4.96
14.40
24.87
34.99
43.65
50.29
54.84
57.61
58.84
58.72
57.48
55.48
53.17
50.97
48.83
46.12
41.79
34.81
24.83
12.81
1.11
-7.46
-10.83
-9.14
-4.52
-0.27
0.35
-4.89
-16.61
-33.85
-54.66
-76.52
-97.20
-114.21
-124.93
-127.43
-121.30
-108.07
-90.53
-72.05
-55.51
-43.52
-37.13
-35.66
-37.32
-39.98
-41.85
-41.63
-39.11
-30.12
-14.21
5.11
22.57
34.66
41.05
42.34
41.07
38.77
36.05
32.23
26.73
20.60
15.03
11.00
8.86
8.58
9.50
10.98
11.92
11.78
10.68
9.07
7.35
5.61
3.88
2.06
0.20
-1.88
-4.14
-6.25
-7.84
-8.56
-8.22
-6.68
-4.06
-0.63
2.98
6.12
8.33
9.38
9.31
8.31
6.70
4.71
2.55
0.34
-1.72
-3.30
-4.08
-3.80
-2.37
0.10
3.32
6.93
10.49
13.62
15.99
17.43
17.96
17.78
17.25
16.72
16.47
16.63
17.19
18.08
19.12
20.12
20.81
20.91
20.22
18.74
16.69
14.43
12.33
10.56
9.03
7.39
5.22
2.29
-1.33
-5.18
-8.54
-10.67
-11.01
-9.39
-6.09
-1.78
2.67
6.42
8.91
10.03
10.08
9.65
9.36
9.67
10.69
12.23
13.95
15.47
16.56
17.09
17.06
16.49
15.41
13.85
11.88
9.63
7.37
5.39
4.00
3.45
3.84
5.15
7.24
9.83
12.60
15.13
16.93
17.61
16.92
14.90
11.94
8.59
5.46
2.87
0.75
-1.36
-4.00
-7.54
-11.95
-16.71
-21.05
-24.26
-25.87
-25.80
-24.31
-21.76
-18.50
-14.76
-10.72
-6.61
-2.77
0.42
2.64
3.81
4.10
3.93
3.79
4.01
4.61
5.36
5.83
5.71
4.91
3.61
2.20
1.00
0.16
-0.39
-0.91
-1.59
-2.48
-3.41
-4.12
-4.36
-4.08
-3.38
-2.45
-1.42
-0.31
0.94
2.35
3.76
4.83
5.10
4.23
2.14
-0.87
-4.19
-7.10
-9.03
-9.73
-9.37
-8.43
-7.47
-6.94
-6.98
-7.43
-7.98
-8.28
-8.16
-7.55
-6.55
-5.28
-3.81
-2.20
-0.48
1.26
2.87
4.14
4.88
5.03
4.69
4.10
3.56
3.30
3.41
3.79
4.20
4.39
4.20
3.64
2.92
2.34
2.19
2.58
3.47
4.64
5.82
6.79
7.44
7.78
7.91
7.97
8.06
8.22
8.35
8.15
7.16
4.95
1.28
-3.60
-9.00
-13.88
-17.24
-18.48
-17.52
-14.83
-11.24
-7.69
-5.02
-3.83
-4.30
-6.23
-8.97
-11.68
-13.51
-13.89
-12.66
-10.03
-6.37
-2.03
2.71
7.61
12.36
16.52
19.59
21.20
21.28
20.06
18.00
15.66
13.54
11.95
11.02
10.66
10.55
10.22
9.12
6.82
3.24
-1.22
-5.77
-9.40
-11.31
-11.15
-9.15
-6.01
-2.60
0.36
2.43
3.50
3.65
2.95
1.45
-0.82
-3.79
-7.25
-10.84
-14.13
-16.72
-18.38
-19.14
-19.20
-18.95
-18.74
-18.83
-19.24
-19.82
-20.22
-19.97
-18.63
-15.82
-11.42
-5.65
0.90
7.40
12.98
17.01
19.20
19.70
18.88
17.12
14.69
11.71
8.20
4.25
0.07
-4.03
-7.70
-10.70
-12.97
-14.58
-15.73
-16.58
-17.17
-17.38
-16.99
-15.78
-13.66
-10.77
-7.42
-4.04
-1.00
1.48
3.35
4.63
5.41
5.75
5.74
5.48
5.17
5.00
5.10
5.43
5.74
5.65
4.75
2.82
-0.01
-3.24
-6.16
-8.05
-8.44
-7.24
-4.83
-1.81
1.15
3.58
5.29
6.38
7.07
7.62
8.18
8.84
9.58
10.34
10.96
11.20
10.72
9.23
6.63
3.15
-0.63
-3.99
-6.28
-7.20
-6.79
-5.36
-3.26
-0.75
2.00
4.89
7.75
10.27
12.12
13.05
13.05
12.40
11.61
11.21
11.50
12.40
13.47
14.10
13.80
12.32
9.74
6.31
2.20
-2.54
-7.99
-14.12
-20.66
-26.99
-32.32
-35.95
-37.51
-37.11
-35.30
-32.88
-30.61
-28.96
-27.98
-27.37
-26.62
-25.24
-22.98
-20.01
-16.85
-14.40
-13.61
-15.13
-18.96
-24.20
-29.20
-32.01
-31.06
-25.79
-16.81
-5.69
5.70
15.80
23.81
29.66
33.74
36.50
38.20
38.90
38.53
37.12
34.86
32.07
29.06
26.02
22.99
19.98
17.02
14.32
12.21
10.96
10.69
11.16
11.84
12.05
11.21
9.06
5.66
1.45
-2.98
-7.01
-10.18
-12.22
-13.11
-13.02
-12.19
-10.92
-9.41
-7.81
-6.17
-4.46
-2.63
-0.66
1.35
3.24
4.77
5.69
5.87
5.35
4.32
3.06
1.89
1.00
0.44
0.09
-0.25
-0.76
-1.52
-2.44
-3.34
-3.98
-4.17
-3.90
-3.30
-2.59
-2.00
-1.69
-1.80
-2.38
-3.36
-4.55
-5.52
-5.81
-5.07
-3.35
-1.14
0.72
1.46
0.65
-1.56
-4.60
-7.77
-10.51
-12.61
-14.03
-14.84
-15.05
-14.63
-13.59
-12.06
-10.20
-8.19
-6.05
-3.78
-1.32
1.27
3.80
6.03
7.76
8.89
9.50
9.81
10.09
10.58
11.41
12.60
14.00
15.42
16.63
17.50
17.96
18.09
18.05
18.01
18.10
18.34
18.67
18.95
19.05
18.95
18.75
18.62
18.66
18.71
18.35
17.00
14.20
9.86
4.39
-1.41
-6.60
-10.47
-12.73
-13.56
-13.45
-13.00
-12.66
-12.62
-12.80
-12.93
-12.75
-12.07
-10.85
-9.16
-7.05
-4.50
-1.46
2.03
5.80
9.50
12.74
15.27
17.05
18.28
19.23
20.14
21.11
22.11
23.10
24.01
24.77
25.19
25.01
23.97
21.90
18.87
15.16
11.17
7.28
3.70
0.45
-2.57
-5.44
-8.24
-10.98
-13.68
-16.40
-19.23
-22.21
-25.30
-28.37
-31.26
-33.80
-35.90
-37.55
-38.81
-39.75
-40.46
-40.93
-41.07
-40.64
-39.41
-37.18
-33.94
-29.93
-25.58
-21.34
-17.53
-14.23
-11.33
-8.64
-6.04
-3.51
-1.10
1.07
2.93
4.43
5.54
6.28
6.71
6.97
7.27
7.78
8.55
9.47
10.32
10.89
11.08
10.97
10.71
10.45
10.25
10.00
9.58
8.90
8.01
7.06
6.28
5.76
5.50
5.33
5.05
4.51
3.76
2.88
2.00
1.13
0.20
-0.89
-2.09
-3.18
-3.84
-3.77
-2.89
-1.36
0.57
2.63
4.73
6.84
9.00
11.18
13.31
15.30
17.09
18.67
19.98
20.87
21.13
20.57
19.20
17.30
15.32
13.73
12.81
12.55
12.72
12.92
12.84
12.31
11.34
10.09
8.78
7.64
6.80
6.29
6.01
5.87
5.73
5.55
5.35
5.16
5.01
4.81
4.43
3.71
2.55
0.94
-1.03
-3.20
-5.35
-7.29
-8.85
-9.93
-10.55
-10.86
-11.14
-11.73
-12.93
-14.86
-17.33
-19.82
-21.53
-21.62
-19.51
-15.09
-8.82
-1.57
5.64
11.96
16.89
20.24
22.06
22.51
21.77
20.07
17.71
15.06
12.49
10.30
8.65
7.49
6.61
5.79
4.84
3.78
2.78
2.11
1.96
2.34
2.98
3.44
3.29
2.25
0.32
-2.30
-5.26
-8.20
-10.82
-12.90
-14.30
-15.03
-15.22
-15.18
-15.30
-15.90
-17.12
-18.85
-20.74
-22.35
-23.28
-23.30
-22.35
-20.57
-18.19
-15.50
-12.78
-10.24
-8.04
-6.12
-4.30
-2.21
0.56
4.28
8.93
14.12
19.21
23.47
26.38
27.77
27.80
26.84
25.29
23.43
21.39
19.25
17.08
14.97
12.96
11.03
9.01
6.79
4.34
1.80
-0.57
-2.49
-3.76
-4.35
-4.40
-4.18
-3.99
-4.10
-4.64
-5.65
-7.01
-8.54
-10.08
-11.53
-12.87
-14.08
-15.15
-16.00
-16.46
-16.37
-15.64
-14.29
-12.42
-10.19
-7.77
-5.31
-2.95
-0.80
1.03
2.47
3.53
4.25
4.72
5.03
5.29
5.57
5.93
6.37
6.83
7.18
7.29
7.09
6.62
6.09
5.71
5.65
5.92
6.34
6.67
6.71
6.40
5.82
5.16
4.62
4.28
4.14
4.09
3.96
3.59
2.89
1.83
0.45
-1.14
-2.79
-4.31
-5.55
-6.39
-6.80
-6.83
-6.68
-6.64
-6.98
-7.82
-9.07
-10.37
-11.19
-11.06
-9.76
-7.46
-4.60
-1.75
0.70
2.64
4.20
5.59
6.92
8.12
9.05
9.64
10.00
10.35
10.95
11.86
12.97
13.95
14.46
14.25
13.31
11.87
10.37
9.38
9.43
10.82
13.47
16.83
19.98
21.78
21.19
17.49
10.61
1.21
-9.34
-19.23
-26.73
-30.69
-30.92
-28.23
-24.00
-19.67
-16.20
-13.91
-12.66
-12.14
-12.21
-12.96
-14.53
-16.94
-19.98
-23.30
-26.49
-29.27
-31.52
-33.23
-34.45
-35.21
-35.49
-35.24
-34.37
-32.82
-30.66
-28.05
-25.31
-22.77
-20.71
-19.19
-18.09
-17.16
-16.16
-14.96
-13.61
-12.29
-11.15
-10.30
-9.67
-9.18
-8.68
-8.12
-7.48
-6.73
-5.80
-4.52
-2.73
-0.24
3.04
7.15
12.05
17.55
23.32
28.86
33.63
37.06
38.79
38.72
37.07
34.27
30.81
27.07
23.21
19.22
14.93
10.23
5.08
-0.34
-5.71
-10.64
-14.78
-17.92
-19.99
-21.04
-21.22
-20.71
-19.77
-18.62
-17.47
-16.39
-15.28
-13.92
-12.03
-9.46
-6.31
-2.91
0.24
2.73
4.37
5.26
5.74
6.19
6.83
7.71
8.78
9.96
11.27
12.73
14.35
16.02
17.51
18.64
19.32
19.70
20.05
20.63
21.54
22.75
24.12
25.46
26.60
27.34
27.56
27.13
25.94
23.99
21.51
18.86
16.42
14.38
12.70
11.41
10.44
9.78
9.43
9.53
10.18
11.36
12.81
14.10
15.14
15.89
16.32
16.51
16.61
16.91
17.61
18.76
20.24
22.19
24.59
27.05
29.02
30.06
30.06
29.18
27.76
23.42
15.25
4.07
-7.99
-18.86
-27.42
-33.40
-37.02
-38.68
-38.86
-37.55
-34.82
-31.06
-26.83
-22.60
-18.49
-14.45
-10.37
-6.24
-1.95
2.37
6.20
9.02
10.53
10.71
9.66
7.33
3.53
-1.70
-7.57
-12.74
-15.56
-14.29
-7.56
5.11
22.99
43.86
64.39
80.52
88.34
85.33
71.27
48.51
21.24
-5.77
-28.56
-44.89
-54.44
-58.49
-59.09
-58.30
-57.79
-58.71
-61.55
-65.99
-70.89
-74.50
-74.87
-70.47
-60.77
-46.67
-30.54
-15.47
-4.16
1.95
2.98
0.29
-4.18
-8.74
-12.44
-15.39
-17.99
-20.26
-21.62
-21.29
-18.86
-14.63
-9.51
-4.63
-1.26
-0.05
-0.74
-2.48
-4.45
-6.06
-6.60
-4.92
2.01
15.25
31.90
45.91
51.84
47.85
36.03
21.05
7.85
-0.43
-3.83
-4.52
-4.97
-6.46
-8.74
-10.75
-11.45
-10.82
-9.29
-8.04
-8.08
-9.55
-11.62
-12.95
-12.48
-9.76
-5.09
0.69
6.29
10.64
13.40
15.00
16.24
17.89
19.83
21.69
23.00
23.19
21.97
19.59
16.71
14.17
12.59
12.17
12.72
13.83
14.97
15.86
16.54
17.31
18.45
20.03
21.83
23.49
24.78
25.61
26.19
26.74
27.44
28.31
29.16
29.73
29.83
29.57
29.16
28.89
28.72
28.48
27.90
26.77
24.96
22.51
19.65
16.45
12.85
8.29
2.32
-5.06
-13.41
-22.01
-30.05
-36.67
-41.34
-43.57
-43.49
-41.18
-36.81
-31.24
-26.18
-23.86
-25.80
-32.58
-43.03
-55.48
-67.65
-77.49
-83.96
-87.15
-88.15
-88.14
-88.99
-86.85
-80.08
-69.26
-56.23
-42.35
-27.94
-16.08
-6.30
1.20
6.49
9.53
11.09
12.99
16.03
20.18
24.65
29.03
33.00
36.95
40.90
44.89
48.92
51.95
53.64
54.44
55.37
56.26
56.00
52.89
46.15
36.46
25.43
14.93
6.12
-0.55
-5.47
-9.09
-11.72
-13.49
-14.51
-15.02
-15.28
-15.62
-16.15
-16.81
-17.27
-17.16
-16.26
-14.41
-11.80
-8.64
-5.24
-1.76
1.72
5.42
9.80
14.79
20.35
26.23
32.08
37.48
42.05
45.45
47.48
47.99
46.82
44.05
39.99
35.26
30.62
26.73
23.90
21.99
20.45
18.42
15.22
10.65
5.04
-0.92
-6.49
-11.10
-14.48
-16.68
-18.21
-19.57
-21.18
-23.22
-25.77
-28.85
-32.34
-35.94
-39.13
-41.64
-43.26
-43.96
-43.83
-43.23
-42.67
-42.59
-42.99
-41.55
-36.57
-27.78
-16.76
-5.88
2.81
7.95
9.08
6.89
2.44
-3.23
-8.84
-13.16
-15.12
-13.55
-8.35
-0.32
9.15
18.47
26.05
30.76
32.20
30.75
27.32
22.90
18.31
14.09
10.12
5.58
-0.56
-8.85
-18.73
-28.53
-36.04
-39.17
-36.39
-27.27
-12.90
4.39
21.56
35.84
45.33
49.37
48.54
44.59
39.40
34.00
28.27
21.47
13.22
3.75
-6.13
-15.37
-22.42
-25.68
-24.06
-17.34
-6.10
8.43
24.41
39.69
49.83
51.06
43.29
30.59
17.96
8.62
3.56
2.10
2.57
2.98
2.16
-0.08
-3.34
-6.94
-10.93
-15.25
-19.76
-24.15
-28.02
-30.50
-30.74
-28.62
-24.94
-21.01
-17.86
-15.98
-15.11
-14.87
-14.64
-13.90
-12.56
-10.94
-9.55
-8.61
-8.07
-7.73
-7.38
-6.72
-5.60
-4.15
-2.78
-2.05
-2.31
-3.61
-5.60
-7.75
-9.46
-10.26
-10.06
-9.06
-7.65
-6.12
-4.64
-3.21
-1.72
-0.03
1.99
4.37
7.07
9.96
12.83
15.44
17.58
19.09
19.92
20.11
19.79
19.08
18.13
17.06
16.01
15.09
14.43
14.08
14.00
14.08
14.11
13.86
13.12
11.73
9.57
6.60
2.83
-1.60
-6.46
-11.47
-16.35
-20.81
-24.58
-27.40
-29.10
-29.54
-28.71
-26.75
-23.85
-20.29
-16.33
-12.20
-8.12
-4.30
-0.90
1.98
4.28
6.05
7.32
8.15
8.57
8.59
8.26
7.68
6.97
6.25
5.59
5.06
4.66
4.36
4.11
3.86
3.50
2.97
2.22
1.27
0.21
-0.82
-1.68
-2.30
-2.70
-2.97
-3.30
-3.82
-4.64
-5.77
-7.09
-8.45
-9.65
-10.48
-10.81
-10.54
-9.65
-8.18
-6.21
-3.88
-1.34
1.20
3.61
5.76
7.60
9.12
10.31
11.19
11.76
12.06
12.10
11.91
11.46
10.76
9.85
8.81
7.75
6.76
5.85
4.95
3.99
2.89
1.71
0.56
-0.43
-1.19
-1.80
-2.39
-3.12
-4.05
-5.11
-6.16
-7.08
-7.84
-8.51
-9.26
-10.18
-11.25
-12.28
-13.01
-13.18
-12.67
-11.55
-10.00
-8.25
-6.46
-4.69
-2.94
-1.13
0.73
2.54
4.10
5.25
5.86
6.01
5.87
5.69
5.67
5.89
6.25
6.53
6.53
6.10
5.29
4.28
3.35
2.79
2.73
3.09
3.59
3.94
3.98
3.79
3.59
3.64
4.25
5.47
7.06
8.59
9.71
10.25
10.32
10.16
10.06
10.59
12.19
14.96
18.71
23.07
27.59
31.74
34.94
36.74
37.46
37.66
37.88
38.39
39.31
40.55
41.89
42.98
43.53
44.06
44.97
46.22
47.28
47.55
46.66
44.55
41.30
32.88
17.70
-2.67
-24.02
-42.30
-55.36
-62.83
-65.50
-64.79
-62.28
-58.59
-53.94
-48.32
-41.79
-34.53
-26.92
-19.40
-12.29
-5.56
1.71
9.42
16.24
19.95
18.72
12.34
2.67
-7.01
-13.42
-14.41
-10.23
-3.08
4.09
9.21
11.80
12.63
12.78
12.79
12.60
11.74
9.78
6.68
2.91
-0.75
-3.58
-5.31
-6.15
-6.50
-6.73
-7.26
-8.16
-9.01
-9.15
-8.11
-5.92
-3.13
-0.63
0.77
0.06
-3.08
-7.94
-13.10
-17.29
-19.84
-20.82
-20.75
-20.18
-20.36
-22.15
-25.48
-29.58
-33.69
-37.31
-40.10
-41.69
-41.71
-41.32
-42.12
-45.27
-51.11
-59.38
-69.07
-78.21
-84.18
-78.07
-55.86
-22.04
13.16
40.80
56.87
61.64
57.79
47.26
31.72
11.99
-10.55
-31.63
-45.94
-49.59
-41.68
-24.26
-1.07
24.20
48.07
68.13
81.96
88.18
86.90
79.14
66.23
49.57
30.82
11.21
-8.07
-25.36
-39.20
-48.88
-54.44
-56.32
-54.92
-50.43
-43.42
-35.59
-27.17
-18.75
-11.08
-4.69
0.31
4.08
6.97
9.23
11.18
13.77
17.77
23.43
30.35
37.36
42.85
45.25
43.66
36.93
25.84
12.04
-2.68
-16.43
-27.32
-33.68
-34.40
-29.29
-19.26
-6.06
7.88
19.21
24.94
24.37
19.68
14.19
10.02
7.27
4.89
2.56
-0.29
-3.26
-5.40
-6.15
-5.73
-4.97
-4.71
-5.78
-7.91
-10.31
-11.68
-10.93
-7.76
-3.01
1.71
4.46
3.90
0.03
-5.94
-11.72
-15.03
-14.56
-10.58
-4.63
0.63
2.50
-0.49
-8.19
-18.60
-28.58
-34.57
-33.48
-23.26
-4.12
21.58
50.33
78.41
102.62
120.73
131.87
136.57
136.64
133.22
126.32
115.21
99.15
77.84
51.57
21.47
-13.15
-47.93
-76.93
-97.28
-110.08
-117.56
-120.63
-118.91
-111.86
-99.87
-84.29
-67.89
-53.58
-42.55
-33.74
-23.47
-8.91
10.69
33.33
55.17
71.48
78.46
75.51
65.52
53.33
43.09
37.03
34.95
34.43
33.28
29.72
23.44
15.72
8.62
3.56
1.13
0.75
1.08
1.16
-0.47
-4.75
-11.79
-19.81
-27.40
-32.95
-36.12
-37.60
-38.58
-40.42
-43.60
-47.46
-50.61
-51.74
-50.15
-46.02
-40.12
-33.42
-26.90
-21.22
-16.73
-13.74
-12.73
-14.08
-17.93
-23.76
-30.46
-36.75
-41.51
-44.00
-44.04
-42.00
-38.48
-34.14
-29.15
-23.50
-17.22
-10.60
-4.03
2.04
7.20
11.18
13.99
16.29
18.84
22.05
25.83
29.78
33.50
36.69
39.29
41.42
43.88
47.28
51.74
56.75
61.49
65.24
67.41
67.51
62.16
49.79
31.95
12.87
-3.36
-14.66
-20.97
-23.37
-23.27
-21.94
-19.69
-16.61
-12.86
-8.97
-5.54
-3.05
-1.81
-2.00
-3.55
-5.58
-7.41
-8.42
-8.40
-7.47
-5.94
-4.28
-3.02
-2.50
-2.56
-2.90
-3.16
-3.23
-3.11
-2.84
-2.43
-1.80
-0.82
0.68
2.43
4.10
5.34
6.00
6.27
6.69
7.50
9.02
11.42
14.47
17.66
20.21
21.16
19.57
14.98
7.64
-1.34
-10.40
-18.17
-23.88
-27.23
-28.41
-28.00
-26.68
-25.01
-23.39
-22.13
-21.46
-21.45
-22.00
-22.40
-22.19
-21.06
-18.91
-15.90
-12.33
-8.62
-5.09
-1.96
0.62
2.51
3.70
4.31
4.52
4.53
4.45
4.32
4.13
3.83
3.34
2.63
1.75
0.81
-0.06
-0.73
-1.07
-1.01
-0.59
0.09
0.90
1.76
2.64
3.54
4.44
5.27
5.97
6.43
6.61
6.48
6.02
5.25
4.24
3.24
2.67
3.06
4.81
7.99
12.20
16.65
20.39
22.63
22.95
21.37
18.22
13.99
9.15
4.14
-0.64
-4.83
-8.11
-10.29
-11.46
-11.87
-11.94
-12.00
-12.18
-12.35
-12.26
-11.64
-10.39
-8.62
-6.57
-4.49
-2.56
-0.80
0.84
2.45
4.02
5.48
6.70
7.52
7.87
7.79
7.44
7.04
6.77
6.70
6.72
6.66
6.33
5.69
4.85
4.04
3.51
3.34
3.43
3.53
3.36
2.70
1.52
-0.02
-1.67
-3.22
-4.55
-5.69
-6.73
-7.74
-8.69
-9.44
-9.81
-9.66
-9.00
-7.92
-6.63
-5.26
-3.91
-2.57
-1.20
0.21
1.62
2.94
4.08
4.93
5.48
5.70
5.64
5.39
5.09
4.89
4.90
5.19
5.72
6.41
7.13
7.75
8.17
8.31
8.14
7.66
6.93
6.03
5.09
4.24
3.57
3.12
2.85
2.69
2.53
2.26
1.79
1.12
0.26
-0.70
-1.67
-2.61
-3.47
-4.25
-4.91
-5.38
-5.55
-5.35
-4.72
-3.73
-2.45
-0.98
0.57
2.09
3.51
4.74
5.69
6.30
6.55
6.46
6.13
5.69
5.27
4.96
4.80
4.76
4.77
4.75
4.70
4.67
4.70
4.75
4.74
4.60
4.26
3.72
3.05
2.38
1.83
1.42
1.14
0.99
1.04
1.34
1.74
1.99
1.84
1.10
-0.27
-2.13
-4.13
-5.69
-6.39
-6.17
-5.20
-3.72
-1.86
0.29
2.72
5.43
8.63
12.29
16.09
19.44
21.67
22.12
20.36
16.52
10.10
2.58
-3.47
-5.89
-4.33
0.22
6.33
12.61
17.73
20.17
18.66
12.24
1.18
-12.92
-27.21
-38.80
-46.01
-48.86
-48.71
-47.04
-45.42
-43.65
-41.18
-37.53
-32.77
-27.52
-22.65
-18.78
-16.00
-14.10
-12.59
-11.08
-9.14
-6.57
-3.32
0.52
4.78
9.16
13.29
17.00
20.01
22.39
24.32
26.06
27.87
29.79
31.36
31.67
29.70
24.75
16.79
6.29
-5.69
-17.51
-26.16
-28.80
-24.60
-15.19
-4.10
6.53
15.22
21.31
25.06
26.54
26.12
24.01
20.39
15.47
9.70
3.45
-3.04
-9.76
-17.05
-25.35
-34.84
-44.89
-54.09
-60.79
-64.07
-63.92
-61.17
-57.01
-52.49
-48.27
-44.35
-40.44
-36.24
-31.80
-27.29
-22.87
-18.51
-14.08
-9.48
-4.36
1.38
7.50
13.53
19.10
24.19
28.94
33.54
38.00
42.66
47.56
52.26
56.11
58.65
59.93
60.48
61.03
62.27
65.31
70.45
76.90
83.04
87.22
88.39
86.33
81.51
70.31
52.03
29.31
6.87
-11.58
-24.88
-33.70
-39.28
-42.66
-44.44
-44.21
-41.89
-37.98
-33.57
-29.78
-27.34
-26.47
-27.04
-28.74
-30.61
-31.89
-32.29
-31.66
-29.87
-26.77
-22.24
-16.33
-9.22
-0.89
8.33
17.61
25.75
31.54
34.31
34.07
31.49
27.63
23.69
20.47
18.10
16.28
14.53
12.52
10.22
7.79
5.44
3.30
1.21
-1.18
-4.30
-8.41
-13.50
-19.25
-25.19
-30.83
-35.79
-39.88
-43.21
-46.05
-48.69
-51.26
-53.55
-55.03
-55.12
-53.43
-50.01
-45.29
-39.91
-34.33
-28.69
-22.78
-16.32
-9.24
-1.80
5.46
11.93
17.16
20.96
23.47
25.04
26.13
27.13
28.33
29.75
31.21
32.40
33.02
32.90
32.12
30.93
29.64
28.49
27.53
26.62
25.55
24.18
22.47
20.48
18.28
15.83
13.00
9.70
6.00
2.22
-1.21
-3.95
-5.94
-7.51
-9.22
-11.65
-15.07
-19.40
-24.27
-29.20
-33.93
-38.46
-43.11
-48.20
-53.92
-60.09
-66.07
-71.01
-73.94
-74.15
-71.23
-65.19
-56.34
-45.17
-32.30
-18.46
-4.45
8.86
20.63
30.18
37.11
41.37
43.27
43.35
42.27
40.60
38.78
37.05
35.49
34.13
32.94
31.87
30.85
29.78
28.56
27.12
25.44
23.56
21.57
19.52
17.52
15.65
13.96
12.50
11.20
9.88
8.26
6.10
3.27
-0.08
-3.60
-6.77
-9.07
-10.15
-9.92
-8.52
-6.26
-3.55
-0.73
1.89
4.14
5.92
7.20
8.02
8.49
8.74
8.92
9.10
9.27
9.36
9.27
8.97
8.50
7.90
7.26
6.59
5.91
5.26
4.69
4.28
4.11
4.15
4.32
4.47
4.47
4.22
3.70
2.90
1.85
0.56
-0.94
-2.60
-4.34
-6.08
-7.75
-9.34
-10.88
-12.43
-13.96
-15.42
-16.69
-17.65
-18.20
-18.27
-17.81
-16.78
-15.17
-13.01
-10.36
-7.41
-4.43
-1.66
0.74
2.69
4.21
5.39
6.32
7.02
7.41
7.44
7.13
6.65
6.21
5.98
6.04
6.34
6.73
6.96
6.90
6.60
6.27
6.15
6.30
6.63
7.00
7.16
6.81
5.80
4.27
2.55
1.12
0.20
-0.12
0.09
0.43
0.24
-1.11
-3.96
-8.33
-13.85
-20.15
-26.76
-32.38
-35.47
-35.31
-32.72
-29.27
-26.88
-25.57
-24.89
-24.40
-23.65
-22.29
-20.47
-18.49
-16.39
-13.91
-10.56
-6.21
-0.99
4.78
10.33
14.46
16.12
15.00
11.81
8.08
5.55
5.66
9.40
16.37
24.78
32.16
36.53
37.18
34.77
30.75
26.83
24.80
25.49
28.49
32.54
36.19
38.17
37.44
33.25
23.24
7.82
-9.33
-23.07
-30.07
-30.24
-25.86
-19.88
-14.55
-10.34
-5.91
-0.26
6.33
12.37
16.10
16.23
12.50
5.59
-3.63
-12.72
-19.16
-21.13
-18.08
-10.64
-0.59
9.44
15.79
14.96
6.58
-6.15
-18.70
-27.98
-33.33
-35.92
-37.42
-38.96
-40.59
-41.33
-40.46
-38.17
-35.76
-34.25
-34.17
-35.31
-36.79
-37.39
-35.85
-31.74
-25.76
-19.37
-14.07
-10.81
-9.64
-9.77
-10.47
-10.63
-9.42
-6.59
-2.45
2.46
7.51
12.21
16.25
19.50
22.19
24.57
26.80
28.85
30.56
31.57
31.47
29.86
26.53
21.75
16.14
10.60
6.01
2.96
1.51
1.19
1.23
0.86
-0.36
-2.46
-5.10
-7.75
-9.78
-10.58
-9.63
-6.57
-1.42
5.26
12.34
18.32
21.84
22.09
19.08
13.58
6.75
-0.24
-6.59
-12.00
-16.50
-20.30
-23.53
-26.16
-27.97
-28.75
-28.40
-27.02
-24.97
-22.71
-20.62
-18.83
-17.21
-15.49
-13.42
-10.93
-8.12
-5.23
-2.44
0.18
2.70
5.23
7.89
10.74
13.74
16.76
19.58
21.99
23.86
25.15
25.97
26.46
26.72
26.77
26.57
26.04
25.19
24.11
22.93
21.77
20.67
19.56
18.35
16.93
15.32
13.61
12.02
10.72
9.81
9.23
8.83
8.41
7.79
6.96
6.00
5.12
4.52
4.36
4.74
5.76
7.47
9.83
12.72
15.86
18.95
21.67
23.82
25.37
26.48
27.40
28.33
29.33
30.37
31.30
31.92
32.06
31.62
30.85
30.05
29.45
29.07
28.79
28.34
27.48
26.09
24.28
22.62
21.51
20.82
20.05
18.71
16.75
14.61
12.85
11.80
11.75
12.45
13.27
13.67
13.59
13.45
13.77
14.68
15.96
17.84
20.43
23.54
26.66
29.20
30.72
31.11
30.48
24.76
12.01
-6.97
-28.90
-50.37
-69.32
-84.79
-96.19
-103.07
-105.04
-101.86
-94.23
-83.89
-73.15
-64.04
-57.62
-53.79
-51.61
-49.05
-43.65
-32.99
-15.79
7.62
35.09
62.84
86.08
97.77
94.88
78.41
52.81
24.32
-1.26
-20.35
-32.32
-38.78
-42.30
-44.42
-45.54
-45.32
-43.49
-40.42
-37.03
-34.72
-33.53
-32.83
-31.28
-27.75
-21.89
-14.27
-6.20
0.91
6.03
8.98
10.24
10.90
11.91
13.69
16.00
18.16
19.34
18.99
17.14
14.18
10.77
7.34
4.00
0.67
-2.63
-4.79
-4.58
-1.01
5.95
15.39
25.80
35.61
43.87
50.41
55.16
58.08
59.25
58.92
57.55
55.75
54.06
52.65
51.59
50.68
49.60
47.95
45.34
41.56
36.69
30.97
24.78
18.55
12.62
7.41
3.22
0.22
-1.52
-2.05
-1.65
-0.87
-0.72
-2.38
-6.63
-13.82
-23.61
-34.65
-44.96
-52.55
-56.16
-56.19
-54.12
-51.04
-48.12
-46.27
-45.41
-44.88
-43.88
-42.00
-40.22
-39.71
-39.85
-40.40
-41.74
-43.74
-45.79
-47.10
-47.06
-46.88
-47.93
-48.89
-49.22
-49.64
-50.23
-50.64
-50.41
-49.33
-49.29
-51.78
-54.34
-55.58
-56.48
-58.31
-62.76
-71.51
-73.68
-62.29
-53.32
-50.90
-47.48
-40.41
-29.27
-15.33
-0.48
13.81
25.09
32.13
37.82
43.62
48.44
51.40
52.27
51.67
50.85
49.58
47.37
45.90
45.35
44.19
41.56
37.44
32.61
28.25
24.58
21.73
21.22
23.56
27.84
32.99
37.88
41.51
43.21
42.25
38.42
32.67
25.86
18.42
10.91
4.03
-1.43
-4.75
-5.66
-4.26
-0.75
4.24
9.79
15.15
19.77
23.44
26.13
27.98
29.14
29.77
29.95
29.76
29.28
28.64
28.05
27.65
27.46
27.30
26.83
25.76
23.92
21.35
18.21
14.66
10.77
6.51
1.92
-2.82
-7.29
-11.05
-13.74
-15.34
-16.14
-16.61
-17.13
-17.89
-18.80
-19.65
-20.19
-20.24
-19.69
-18.47
-16.51
-13.87
-10.76
-7.61
-4.96
-3.24
-2.59
-2.80
-3.36
-3.68
-3.34
-2.21
-0.55
1.16
2.36
2.67
1.96
0.46
-1.39
-3.12
-4.45
-5.39
-6.20
-7.26
-8.80
-10.84
-13.18
-15.48
-17.42
-18.76
-19.40
-19.31
-18.55
-17.25
-15.66
-14.12
-13.01
-12.67
-13.26
-14.80
-17.13
-20.01
-23.13
-26.21
-29.00
-31.25
-32.83
-33.76
-34.18
-34.39
-34.72
-35.42
-36.52
-37.83
-38.99
-39.59
-39.21
-37.54
-34.38
-29.78
-24.09
-18.02
-12.54
-8.50
-6.22
-5.15
-4.03
-1.36
3.71
10.89
18.76
25.41
29.42
30.41
29.20
27.25
25.97
26.34
28.73
33.16
39.47
47.29
55.91
64.06
70.10
72.43
70.05
63.00
52.34
39.79
27.30
16.42
8.05
2.34
-1.15
-3.19
-4.49
-5.65
-7.07
-8.91
-11.19
-13.78
-16.49
-19.14
-21.70
-24.03
-26.16
-28.13
-30.01
-31.86
-33.72
-35.60
-37.36
-38.94
-39.59
-38.86
-36.52
-32.71
-27.89
-22.65
-17.46
-12.47
-8.08
-3.35
1.86
7.35
12.67
17.25
20.70
22.92
24.06
23.45
22.25
20.44
17.96
14.87
11.48
8.29
5.73
3.91
1.30
-1.56
-5.50
-10.94
-17.55
-24.23
-29.51
-32.14
-24.17
-15.61
-6.10
2.87
9.75
13.23
12.54
7.68
-0.47
-10.27
-20.83
-28.87
-33.15
-33.42
-30.44
-25.61
-20.41
-15.88
-12.44
-10.71
-8.99
-6.61
-3.28
0.71
4.60
7.60
9.38
10.25
10.46
11.38
13.20
15.37
16.92
17.07
15.69
13.41
11.24
9.72
9.33
9.66
10.06
10.08
9.76
9.43
9.36
9.36
8.64
6.44
2.26
-3.72
-10.63
-17.18
-22.21
-24.93
-25.12
-23.08
-19.44
-15.01
-10.56
-6.59
-3.22
-0.13
3.29
7.61
13.03
19.18
25.23
30.20
33.30
34.27
33.33
31.05
28.15
25.33
23.16
22.09
22.30
23.76
26.20
29.16
32.12
34.62
36.36
37.24
37.33
36.77
35.69
34.11
31.96
29.17
25.83
22.16
18.54
15.32
12.72
10.76
9.29
8.15
7.24
6.56
6.15
5.92
5.68
5.18
4.27
2.91
1.22
-0.60
-2.35
-3.83
-4.84
-5.22
-4.92
-4.09
-3.12
-2.56
-2.96
-4.64
-7.52
-11.05
-14.33
-16.28
-15.99
-12.95
-7.41
-0.34
6.77
12.39
15.49
15.82
13.85
10.43
6.38
2.20
-1.87
-5.64
-8.75
-10.70
-11.11
-9.97
-7.80
-5.57
-4.24
-4.41
-6.07
-8.54
-10.80
-11.85
-11.05
-8.39
-4.48
-0.31
3.02
4.69
4.38
2.32
-0.85
-4.32
-7.40
-9.65
-10.96
-11.39
-11.14
-10.44
-9.44
-8.32
-7.23
-6.32
-5.68
-5.35
-5.26
-5.34
-5.48
-5.62
-5.78
-6.06
-6.60
-7.38
-8.20
-8.60
-8.02
-6.00
-2.42
2.40
7.79
12.94
17.07
19.69
20.60
19.92
18.01
15.38
12.56
9.96
7.75
5.90
4.22
2.53
0.80
-0.89
-2.43
-3.74
-4.84
-5.77
-6.54
-7.10
-7.40
-7.46
-7.40
-7.39
-7.60
-8.07
-8.76
-9.49
-10.11
-10.48
-10.54
-10.32
-9.96
-9.63
-9.49
-9.65
-10.08
-10.66
-11.23
-11.69
-12.01
-12.25
-12.47
-12.64
-12.68
-12.46
-11.87
-10.91
-9.66
-8.26
-6.79
-5.31
-3.81
-2.32
-0.91
0.27
1.07
1.36
1.17
0.63
-0.02
-0.57
-0.89
-0.95
-0.84
-0.64
-0.44
-0.28
-0.15
-0.08
-0.12
-0.35
-0.78
-1.38
-1.99
-2.45
-2.66
-2.70
-2.77
-3.09
-3.81
-4.88
-6.06
-7.08
-7.74
-8.08
-8.30
-8.71
-9.44
-10.41
-11.33
-11.85
-11.74
-11.01
-9.87
-8.55
-7.26
-5.99
-4.66
-3.19
-1.61
-0.10
1.06
1.60
1.32
0.19
-1.61
-3.74
-5.70
-6.97
-7.19
-6.30
-4.56
-2.48
-0.64
0.56
0.98
0.72
0.01
-0.92
-1.94
-2.96
-3.92
-4.73
-5.33
-5.71
-5.93
-6.13
-6.50
-7.12
-7.97
-8.91
-9.74
-10.33
-10.67
-10.89
-11.19
-11.71
-12.48
-13.32
-13.96
-14.09
-13.53
-12.23
-10.28
-7.82
-5.05
-2.12
0.78
3.48
5.85
7.79
9.31
10.44
11.27
11.85
12.20
12.31
12.19
11.89
11.53
11.18
10.89
10.63
10.32
9.93
9.49
9.11
8.87
8.81
8.84
8.87
8.81
8.59
8.25
7.79
7.20
6.42
5.38
4.07
2.53
0.83
-1.00
-2.94
-5.05
-7.31
-9.56
-11.47
-12.63
-12.69
-11.48
-9.19
-6.27
-3.27
-0.61
1.57
3.42
5.22
7.17
9.27
11.26
12.83
13.75
13.99
13.74
13.29
12.88
12.59
12.39
12.16
11.85
11.49
11.18
11.00
10.93
10.85
10.55
9.90
8.90
7.71
6.50
5.41
4.44
3.48
2.43
1.22
-0.07
-1.35
-2.51
-3.57
-4.57
-5.63
-6.79
-8.05
-9.37
-10.71
-12.08
-13.48
-14.83
-15.87
-16.27
-15.69
-13.96
-11.20
-7.77
-4.16
-0.76
2.28
5.04
7.68
10.26
12.69
14.68
16.01
16.57
16.49
16.06
15.53
15.05
14.59
14.04
13.24
12.14
10.81
9.36
7.95
6.68
5.64
4.86
4.38
4.22
4.38
4.81
5.39
5.93
6.24
6.20
5.73
4.89
3.81
2.64
1.47
0.40
-0.54
-1.35
-2.03
-2.63
-3.28
-4.12
-5.28
-6.82
-8.64
-10.57
-12.35
-13.72
-14.46
-14.42
-13.50
-11.70
-9.12
-5.96
-2.50
0.95
4.12
6.87
9.14
10.92
12.27
13.24
13.90
14.28
14.45
14.45
14.31
14.08
13.84
13.68
13.70
13.93
14.25
14.43
14.20
13.37
11.98
10.25
8.57
7.25
6.42
5.95
5.50
4.75
3.47
1.71
-0.28
-2.14
-3.56
-4.37
-4.59
-4.54
-4.81
-6.23
-9.68
-15.76
-24.46
-34.93
-45.59
-54.59
-60.45
-62.37
-60.36
-54.89
-46.47
-35.52
-22.34
-7.43
8.26
23.27
35.83
44.30
47.66
45.66
38.85
28.51
16.45
4.68
-5.10
-11.89
-15.57
-16.94
-17.45
-18.75
-21.98
-27.10
-33.01
-38.06
-40.68
-40.02
-36.30
-30.84
-25.72
-22.91
-22.88
-25.02
-28.22
-31.33
-33.23
-32.79
-29.05
-21.70
-11.38
1.06
13.89
24.73
31.61
34.36
35.00
36.86
42.67
53.52
69.48
88.97
108.85
125.89
138.51
147.77
156.69
168.07
174.48
170.33
155.10
133.57
112.15
95.65
86.03
82.11
78.86
72.84
61.54
46.38
30.93
18.64
11.51
9.42
10.17
8.29
-0.00
-15.44
-36.00
-59.02
-82.48
-105.04
-125.93
-144.90
-164.57
-186.74
-210.70
-233.57
-252.75
-267.22
-277.53
-285.40
-277.21
-247.86
-203.08
-155.02
-112.57
-78.42
-51.73
-30.89
-14.74
-1.93
7.03
13.02
18.43
25.98
36.42
47.72
58.26
66.41
71.63
72.63
69.39
63.18
56.04
49.43
43.82
39.26
35.58
32.87
30.11
26.87
22.75
18.55
15.13
12.84
11.69
11.32
11.39
11.00
9.49
6.68
2.98
-1.14
-5.22
-8.83
-11.69
-13.68
-15.15
-16.63
-18.61
-21.24
-24.48
-28.06
-31.60
-34.78
-37.46
-39.66
-41.45
-42.82
-43.40
-42.65
-39.91
-34.68
-26.80
-16.55
-4.56
8.33
21.20
33.28
43.92
52.67
59.32
63.90
66.72
68.19
68.73
68.59
67.89
66.60
64.68
62.19
59.29
56.17
53.02
49.94
46.99
44.27
41.88
39.90
38.28
36.79
35.06
32.72
29.54
25.49
20.65
15.22
9.33
3.13
-3.27
-9.75
-16.20
-22.60
-29.01
-35.53
-42.14
-48.64
-54.53
-59.16
-61.85
-62.10
-59.73
-54.92
-48.23
-40.38
-32.20
-24.38
-17.38
-11.43
-6.49
-2.31
1.49
5.39
9.82
14.92
20.41
25.60
29.60
31.64
31.37
28.93
24.82
19.63
13.89
8.14
2.97
-0.95
-3.01
-3.04
-1.43
0.86
2.73
3.44
2.95
1.80
0.77
0.34
0.37
0.27
-0.72
-3.06
-6.73
-11.30
-16.16
-20.76
-24.63
-27.38
-28.58
-27.85
-25.02
-20.40
-14.82
-9.48
-5.59
-3.96
-4.82
-7.80
-12.18
-17.23
-22.39
-27.45
-32.40
-37.34
-42.28
-47.06
-51.25
-54.29
-55.49
-54.22
-50.08
-43.03
-33.55
-22.53
-11.14
-0.53
8.50
15.60
20.84
24.51
26.93
28.29
28.73
28.32
27.26
25.75
24.01
22.16
20.23
18.16
15.88
13.34
10.49
7.33
3.89
0.26
-3.36
-6.62
-9.08
-10.12
-9.33
-6.72
-2.65
2.36
7.89
13.60
19.20
24.43
29.30
33.80
37.77
40.93
43.09
44.18
44.33
43.80
42.94
42.65
43.47
45.18
47.00
48.14
48.17
47.12
45.37
43.41
43.17
45.74
50.49
55.40
58.55
59.08
57.18
53.73
49.91
49.73
55.50
66.01
77.32
85.76
89.76
89.64
86.68
82.40
82.56
90.63
105.20
121.62
136.27
148.64
160.21
172.60
186.94
209.54
243.77
286.77
331.19
370.38
401.01
422.10
433.43
395.88
292.30
140.30
-19.18
-153.64
-252.66
-320.14
-364.00
-390.27
-400.72
-390.52
-354.91
-296.94
-227.66
-160.56
-106.65
-72.78
-67.14
-88.79
-123.58
-155.13
-173.78
-178.72
-174.29
-165.76
-158.47
-153.74
-150.17
-143.23
-130.23
-112.61
-94.74
-80.63
-71.73
-67.08
-64.25
-59.99
-51.43
-38.13
-22.66
-9.07
-0.32
2.90
1.93
-1.03
-3.88
-5.38
-5.71
-6.18
-8.21
-12.29
-17.77
-23.35
-27.66
-29.76
-29.51
-27.34
-24.01
-20.23
-16.43
-12.76
-9.11
-5.32
-1.27
2.96
7.13
10.94
14.09
16.31
17.43
17.38
16.22
14.11
11.30
8.04
4.54
0.93
-2.68
-6.10
-9.02
-11.00
-11.64
-10.68
-8.11
-4.14
0.89
6.65
12.81
19.10
25.17
30.65
35.11
38.19
39.66
39.39
37.42
33.88
29.06
23.37
17.30
11.33
5.87
1.25
-2.34
-4.85
-6.32
-6.93
-7.05
-7.07
-7.37
-8.19
-9.54
-11.25
-13.07
-14.77
-16.16
-17.15
-17.71
-17.96
-18.13
-18.50
-19.29
-20.50
-21.85
-22.79
-22.76
-21.33
-18.43
-14.35
-9.60
-4.77
-0.35
3.41
6.49
9.02
11.20
13.20
15.08
16.76
18.05
18.78
18.82
18.18
16.98
15.44
13.72
11.95
10.18
8.48
6.99
5.84
5.13
4.85
4.80
4.68
4.20
3.21
1.80
0.20
-1.31
-2.58
-3.65
-4.70
-5.96
-7.61
-9.62
-11.86
-14.06
-15.89
-17.03
-17.17
-16.13
-13.89
-10.62
-6.67
-2.48
1.54
5.13
8.15
10.61
12.55
14.03
15.07
15.71
16.01
16.04
15.92
15.72
15.48
15.21
14.90
14.58
14.34
14.27
14.42
14.80
15.31
15.76
15.91
15.54
14.47
12.65
10.17
7.25
4.22
1.43
-0.88
-2.59
-3.81
-4.74
-5.68
-6.82
-8.28
-10.07
-12.10
-14.17
-16.00
-17.28
-17.66
-16.89
-14.91
-11.87
-8.12
-4.11
-0.25
3.16
6.00
8.26
9.99
11.28
12.22
12.92
13.46
13.87
14.12
14.15
13.89
13.37
12.69
11.99
11.37
10.87
10.41
9.92
9.34
8.69
8.04
7.43
6.85
6.25
5.56
4.76
3.83
2.84
1.79
0.68
-0.49
-1.73
-3.00
-4.24
-5.35
-6.31
-7.12
-7.83
-8.54
-9.35
-10.34
-11.53
-12.88
-14.21
-15.28
-15.74
-15.31
-13.81
-11.32
-8.15
-4.75
-1.53
1.27
3.63
5.71
7.68
9.54
11.17
12.32
12.79
12.58
11.87
10.97
10.18
9.67
9.45
9.36
9.26
9.02
8.63
8.18
7.75
7.42
7.19
6.99
6.70
6.20
5.42
4.37
3.14
1.85
0.67
-0.30
-1.04
-1.63
-2.22
-2.96
-3.92
-5.04
-6.17
-7.19
-8.05
-8.83
-9.66
-10.67
-11.92
-13.31
-14.71
-15.96
-16.90
-17.38
-17.31
-16.60
-15.22
-13.23
-10.80
-8.13
-5.41
-2.79
-0.38
1.77
3.61
5.12
6.27
7.08
7.60
7.91
8.10
8.25
8.40
8.57
8.78
8.99
9.20
9.38
9.50
9.51
9.37
9.03
8.48
7.77
6.94
6.08
5.19
4.26
3.27
2.24
1.24
0.34
-0.43
-1.10
-1.73
-2.42
-3.23
-4.13
-5.07
-6.01
-6.91
-7.77
-8.57
-9.30
-9.98
-10.66
-11.43
-12.33
-13.29
-14.10
-14.45
-14.06
-12.87
-11.01
-8.83
-6.64
-4.68
-2.96
-1.39
0.17
1.79
3.42
4.96
6.31
7.39
8.17
8.66
8.87
8.85
8.64
8.32
7.91
7.43
6.79
5.89
4.59
2.84
0.71
-1.60
-3.81
-5.71
-7.23
-8.49
-9.70
-11.04
-12.56
-14.19
-15.77
-17.17
-18.32
-19.23
-19.87
-20.18
-20.03
-19.32
-18.02
-16.29
-14.40
-12.70
-11.51
-11.01
-11.20
-11.86
-12.69
-13.32
-13.49
-13.10
-12.19
-10.92
-9.41
-7.71
-5.76
-3.52
-0.98
1.70
4.26
6.41
7.92
8.74
8.92
8.64
8.16
7.75
7.81
8.79
11.08
14.89
20.06
26.02
31.85
36.56
39.35
39.81
38.01
34.35
29.41
23.73
17.79
11.99
6.62
1.94
-1.92
-4.96
-7.34
-9.30
-11.04
-12.70
-14.30
-15.86
-17.37
-18.86
-20.31
-21.67
-22.74
-23.31
-23.16
-22.18
-20.41
-18.00
-15.17
-12.16
-9.15
-6.28
-3.60
-1.10
1.22
3.33
5.17
6.64
7.68
8.33
8.70
8.93
9.15
9.39
9.63
9.80
9.83
9.69
9.40
8.96
8.40
7.74
7.00
6.21
5.34
4.38
3.30
2.08
0.77
-0.58
-1.91
-3.23
-4.58
-5.97
-7.36
-8.65
-9.75
-10.62
-11.32
-11.97
-12.69
-13.44
-14.06
-14.27
-13.88
-12.81
-11.18
-9.21
-7.15
-5.17
-3.37
-1.78
-0.37
0.88
2.00
2.97
3.76
4.29
4.49
4.34
3.91
3.39
3.00
2.94
3.23
3.77
4.35
4.80
5.03
5.10
5.10
5.12
5.22
5.41
5.71
6.10
6.55
6.97
7.24
7.22
6.80
5.96
4.80
3.48
2.24
1.29
0.74
0.56
0.55
0.42
-0.06
-0.97
-2.18
-3.38
-4.22
-4.48
-4.05
-3.01
-1.49
0.36
2.36
4.39
6.27
7.85
9.03
9.76
10.07
10.02
9.70
9.21
8.64
8.11
7.64
7.25
6.88
6.45
5.89
5.21
4.48
3.80
3.27
2.94
2.84
2.90
3.04
3.16
3.15
2.94
2.50
1.85
1.01
0.04
-1.05
-2.18
-3.30
-4.34
-5.24
-6.02
-6.75
-7.58
-8.61
-9.93
-11.51
-13.27
-15.07
-16.73
-18.03
-18.77
-18.77
-17.96
-16.42
-14.37
-12.11
-9.91
-7.99
-6.46
-5.36
-4.63
-4.17
-3.77
-3.24
-2.40
-1.22
0.21
1.63
2.79
3.51
3.78
3.81
3.91
4.33
5.17
6.19
6.99
7.06
6.10
4.13
1.54
-1.05
-3.06
-4.24
-4.77
-5.25
-6.38
-8.70
-12.27
-16.63
-20.86
-23.97
-25.29
-24.74
-22.81
-20.38
-18.32
-16.98
-15.95
-13.88
-8.65
2.21
20.68
47.32
80.49
116.31
149.58
175.28
190.24
193.98
188.45
176.70
161.44
144.10
124.84
103.35
79.71
54.84
30.41
8.28
-10.07
-23.88
-33.11
-38.35
-40.55
-40.64
-39.14
-35.99
-30.78
-23.24
-13.88
-4.19
3.69
7.80
7.16
2.16
-5.68
-14.25
-21.44
-25.42
-24.92
-19.47
-9.65
2.82
15.26
24.80
29.24
27.70
20.67
9.56
-3.99
-18.55
-33.02
-46.46
-57.99
-66.82
-72.48
-75.06
-75.16
-73.66
-71.37
-68.79
-66.06
-63.01
-59.38
-55.07
-50.19
-45.10
-40.27
-36.08
-32.72
-30.10
-27.96
-25.99
-23.98
-21.87
-19.74
-17.76
-16.05
-14.68
-13.62
-12.77
-11.99
-11.16
-10.23
-9.23
-8.29
-7.59
-7.29
-7.46
-7.98
-8.64
-9.13
-9.23
-8.84
-8.09
-7.20
-6.41
-5.88
-5.61
-5.53
-5.54
-5.57
-5.56
-5.41
-5.04
-4.36
-3.39
-2.25
-1.12
-0.11
0.80
1.84
3.28
5.28
7.76
10.40
12.77
14.51
15.47
15.71
15.46
14.91
14.17
13.23
11.97
10.34
8.41
6.42
4.65
3.33
2.52
2.06
1.68
1.11
0.24
-0.91
-2.25
-3.70
-5.23
-6.85
-8.55
-10.23
-11.82
-13.27
-14.63
-16.01
-17.47
-18.95
-20.29
-21.36
-22.03
-22.31
-22.23
-21.79
-20.98
-19.81
-18.34
-16.77
-15.34
-14.22
-13.50
-13.11
-12.90
-12.72
-12.42
-11.92
-11.14
-10.05
-8.69
-7.17
-5.62
-4.14
-2.77
-1.48
-0.21
1.11
2.45
3.73
4.83
5.60
6.01
6.06
5.85
5.50
5.10
4.74
4.44
4.23
4.14
4.17
4.29
4.42
4.46
4.32
4.01
3.62
3.27
3.09
3.07
3.14
3.13
2.88
2.24
1.18
-0.27
-1.96
-3.68
-5.18
-6.21
-6.62
-6.35
-5.46
-4.11
-2.51
-0.83
0.77
2.17
3.27
3.98
4.25
4.12
3.70
3.17
2.66
2.22
1.76
1.16
0.35
-0.62
-1.57
-2.26
-2.54
-2.41
-1.99
-1.45
-0.92
-0.44
-0.02
0.33
0.55
0.56
0.31
-0.15
-0.74
-1.33
-1.86
-2.33
-2.86
-3.62
-4.75
-6.29
-8.09
-9.88
-11.31
-12.08
-12.02
-11.16
-9.67
-7.77
-5.66
-3.46
-1.22
0.99
3.11
5.03
6.62
7.81
8.61
9.09
9.39
9.63
9.88
10.18
10.50
10.76
10.89
10.84
10.60
10.23
9.81
9.42
9.06
8.70
8.25
7.64
6.84
5.91
4.89
3.86
2.85
1.85
0.81
-0.34
-1.69
-3.30
-5.15
-7.15
-9.07
-10.64
-11.64
-11.93
-11.54
-10.56
-9.13
-7.35
-5.31
-3.11
-0.92
1.08
2.72
3.94
4.79
5.39
5.84
6.16
6.33
6.31
6.11
5.79
5.47
5.21
5.05
5.02
5.13
5.41
5.85
6.39
6.90
7.14
6.93
6.24
5.21
4.11
3.19
2.58
2.19
1.80
1.19
0.30
-0.79
-1.89
-2.86
-3.69
-4.54
-5.57
-6.86
-8.27
-9.50
-10.22
-10.23
-9.50
-8.14
-6.39
-4.43
-2.37
-0.30
1.73
3.65
5.38
6.83
7.94
8.68
9.10
9.29
9.39
9.52
9.77
10.11
10.42
10.58
10.55
10.35
10.13
9.99
9.98
9.98
9.84
9.39
8.58
7.49
6.33
5.31
4.61
4.28
4.23
4.26
4.13
3.67
2.82
1.63
0.20
-1.35
-2.97
-4.61
-6.18
-7.51
-8.45
-8.89
-8.87
-8.48
-7.86
-7.07
-6.06
-4.77
-3.20
-1.46
0.30
1.96
3.46
4.81
5.99
6.94
7.55
7.78
7.69
7.45
7.21
7.02
6.80
6.40
5.70
4.79
3.84
3.11
2.70
2.57
2.54
2.39
2.03
1.53
1.07
0.78
0.69
0.70
0.58
0.20
-0.50
-1.44
-2.50
-3.53
-4.48
-5.34
-6.14
-6.89
-7.60
-8.24
-8.78
-9.21
-9.52
-9.71
-9.74
-9.50
-8.89
-7.81
-6.24
-4.29
-2.14
0.01
2.03
3.84
5.45
6.78
7.73
8.20
8.11
7.56
6.77
6.03
5.56
5.43
5.52
5.66
5.67
5.48
5.14
4.74
4.37
4.05
3.76
3.44
3.07
2.64
2.17
1.67
1.15
0.59
-0.03
-0.66
-1.31
-1.96
-2.66
-3.48
-4.48
-5.61
-6.72
-7.58
-7.91
-7.58
-6.56
-4.98
-3.04
-0.90
1.34
3.63
5.92
8.16
10.27
12.20
13.83
15.11
16.11
16.99
17.93
19.00
20.27
21.65
23.12
24.43
25.38
25.93
26.25
26.60
27.09
27.71
28.08
27.70
25.74
21.63
15.47
8.08
0.78
-5.35
-9.59
-12.22
-14.08
-16.63
-21.02
-27.57
-35.65
-44.04
-51.78
-58.28
-63.97
-66.59
-64.61
-58.49
-50.91
-44.57
-40.01
-37.46
-33.78
-26.55
-14.65
0.92
17.85
33.68
45.15
49.77
46.59
36.99
23.70
10.05
-1.65
-10.66
-17.48
-23.07
-27.76
-31.04
-31.69
-28.90
-22.77
-14.70
-6.65
-0.27
3.91
6.63
9.19
12.76
17.54
23.01
28.27
32.67
36.16
39.14
42.11
45.13
47.73
48.90
47.63
43.27
35.83
26.11
15.47
5.65
-1.81
-5.89
-6.48
-4.34
-0.76
2.95
5.91
7.80
8.78
9.13
9.02
8.45
7.34
5.74
3.84
1.95
0.33
-0.83
-1.45
-1.52
-1.07
-0.23
0.74
1.55
1.89
1.66
0.95
-0.04
-1.02
-1.82
-2.38
-2.70
-2.84
-2.78
-2.50
-1.98
-1.27
-0.41
0.49
1.36
2.15
2.77
3.11
3.04
2.46
1.37
-0.17
-2.01
-3.97
-5.86
-7.55
-8.95
-9.99
-10.67
-11.05
-11.27
-11.50
-11.87
-12.44
-13.20
-14.04
-14.82
-15.42
-15.68
-15.47
-14.63
-13.05
-10.72
-7.73
-4.25
-0.53
3.17
6.63
9.65
12.09
13.86
14.92
15.30
15.06
14.23
12.84
10.88
8.40
5.52
2.43
-0.66
-3.60
-6.32
-8.84
-11.17
-13.35
-15.36
-17.21
-18.94
-20.59
-22.17
-23.63
-24.83
-25.58
-25.78
-25.42
-24.68
-23.85
-23.18
-22.76
-22.53
-22.22
-21.59
-20.51
-19.06
-17.54
-16.26
-15.43
-15.04
-14.86
-14.61
-14.05
-13.08
-11.72
-10.03
-8.04
-5.71
-2.95
0.25
3.85
7.65
11.36
14.67
17.38
19.39
20.81
21.77
22.43
22.86
23.03
22.87
22.24
21.09
19.36
17.11
14.45
11.56
8.69
6.06
3.87
2.19
1.05
0.43
0.32
0.72
1.56
2.65
3.70
4.43
4.71
4.62
4.39
4.30
4.46
4.82
5.13
5.15
4.68
3.71
2.33
0.75
-0.85
-2.28
-3.41
-4.13
-4.40
-4.27
-3.88
-3.41
-3.02
-2.81
-2.71
-2.64
-2.46
-2.11
-1.66
-1.23
-0.95
-0.93
-1.22
-1.81
-2.70
-3.81
-5.01
-6.03
-6.59
-6.44
-5.51
-3.93
-2.02
-0.13
1.53
2.87
3.97
4.93
5.77
6.47
6.98
7.30
7.50
7.67
7.80
7.78
7.45
6.72
5.72
4.69
3.95
3.64
3.74
4.01
4.19
4.14
3.83
3.36
2.83
2.31
1.80
1.28
0.68
-0.09
-1.11
-2.45
-4.10
-5.95
-7.78
-9.36
-10.51
-11.10
-11.10
-10.47
-9.25
-7.50
-5.42
-3.27
-1.37
0.11
1.17
2.00
2.82
3.77
4.80
5.70
6.19
6.10
5.43
4.37
3.17
2.06
1.12
0.33
-0.35
-0.94
-1.38
-1.60
-1.60
-1.47
-1.40
-1.57
-2.05
-2.76
-3.51
-4.15
-4.64
-5.06
-5.57
-6.23
-7.02
-7.76
-8.30
-8.52
-8.39
-7.89
-7.00
-5.67
-3.88
-1.74
0.54
2.65
4.38
5.65
6.53
7.17
7.72
8.23
8.67
9.00
9.22
9.31
9.29
9.11
8.73
8.12
7.36
6.56
5.85
5.33
4.99
4.75
4.48
4.12
3.65
3.11
2.54
1.96
1.33
0.62
-0.23
-1.22
-2.34
-3.61
-5.04
-6.65
-8.38
-10.16
-11.83
-13.24
-14.20
-14.59
-14.31
-13.32
-11.68
-9.54
-7.16
-4.83
-2.74
-0.98
0.55
1.97
3.36
4.70
5.84
6.62
6.97
6.98
6.81
6.60
6.44
6.26
5.95
5.41
4.65
3.81
3.05
2.53
2.31
2.29
2.34
2.28
2.01
1.50
0.78
-0.11
-1.11
-2.20
-3.32
-4.42
-5.46
-6.46
-7.45
-8.51
-9.71
-11.06
-12.52
-13.93
-15.10
-15.81
-15.90
-15.27
-13.99
-12.20
-10.14
-8.03
-6.03
-4.23
-2.60
-1.13
0.20
1.34
2.24
2.87
3.26
3.52
3.76
4.04
4.34
4.57
4.66
4.61
4.50
4.48
4.70
5.18
5.87
6.61
7.28
7.79
8.15
8.41
8.64
8.83
8.94
8.90
8.66
8.20
7.56
6.81
6.01
5.15
4.16
2.93
1.35
-0.61
-2.92
-5.42
-7.84
-9.89
-11.26
-11.71
-11.19
-9.85
-7.97
-5.91
-3.92
-2.10
-0.43
1.16
2.62
3.84
4.65
4.95
4.81
4.35
3.75
3.07
2.29
1.35
0.26
-0.86
-1.82
-2.45
-2.64
-2.44
-2.02
-1.59
-1.34
-1.35
-1.60
-1.97
-2.31
-2.52
-2.57
-2.52
-2.48
-2.58
-2.87
-3.38
-4.12
-5.05
-6.17
-7.40
-8.62
-9.72
-10.55
-11.02
-11.08
-10.70
-9.85
-8.51
-6.66
-4.37
-1.77
0.91
3.46
5.76
7.75
9.46
10.92
12.06
12.80
13.04
12.79
12.12
11.17
10.05
8.80
7.33
5.58
3.53
1.36
-0.62
-2.03
-2.56
-2.08
-0.67
1.41
3.86
6.36
8.66
10.54
11.83
12.42
12.29
11.51
10.27
8.73
7.03
5.24
3.37
1.49
-0.30
-1.87
-3.15
-4.22
-5.20
-6.17
-7.09
-7.70
-7.68
-6.81
-5.09
-2.83
-0.45
1.63
3.19
4.24
4.86
5.14
5.07
4.55
3.58
2.30
0.96
-0.17
-0.95
-1.41
-1.72
-2.02
-2.35
-2.68
-2.97
-3.19
-3.38
-3.54
-3.62
-3.54
-3.27
-2.90
-2.68
-2.84
-3.47
-4.44
-5.42
-6.11
-6.37
-6.34
-6.30
-6.50
-7.03
-7.76
-8.41
-8.70
-8.41
-7.48
-5.94
-3.87
-1.38
1.35
4.10
6.61
8.64
10.06
10.83
11.05
10.95
10.78
10.69
10.71
10.70
10.51
10.00
9.16
8.11
7.09
6.33
5.89
5.68
5.48
5.11
4.46
3.52
2.37
1.24
0.33
-0.27
-0.63
-0.83
-0.88
-0.76
-0.43
0.10
1.16
3.09
6.07
10.09
14.99
20.48
26.07
31.00
34.28
35.68
35.29
33.49
30.74
27.61
24.65
22.24
20.36
18.77
18.07
18.98
22.00
27.18
34.28
43.03
53.22
64.63
72.86
74.71
69.16
57.80
43.08
26.73
9.97
-5.81
-18.48
-27.92
-33.63
-35.89
-35.92
-35.61
-36.56
-39.50
-43.45
-47.22
-49.85
-50.18
-47.91
-43.67
-38.71
-34.35
-31.39
-29.97
-29.90
-30.81
-31.87
-32.44
-32.29
-31.52
-30.32
-28.68
-26.47
-23.60
-20.20
-16.22
-11.72
-6.79
-1.50
4.10
10.00
16.16
22.31
27.99
32.66
35.69
36.48
34.63
30.03
23.00
14.20
4.49
-5.22
-14.08
-21.41
-26.68
-29.67
-30.63
-30.16
-29.00
-27.89
-27.40
-27.76
-28.81
-30.04
-30.83
-31.00
-30.53
-29.38
-27.47
-24.68
-20.87
-15.92
-9.89
-3.14
3.14
7.80
10.19
10.34
8.70
5.84
2.24
-1.81
-6.17
-11.43
-17.78
-24.73
-31.30
-36.62
-40.42
-43.05
-45.30
-44.00
-37.85
-27.95
-16.74
-5.82
4.52
14.31
23.22
30.58
35.93
38.73
39.30
38.76
38.45
39.27
41.41
44.42
47.57
50.11
50.97
49.60
46.21
41.50
36.26
30.93
25.67
20.55
15.80
11.49
7.72
5.13
3.83
3.26
2.36
0.11
-3.91
-9.25
-14.94
-19.72
-22.47
-22.61
-20.16
-15.49
-9.20
-1.88
5.81
13.06
19.05
23.16
25.08
25.08
23.91
22.60
22.22
23.53
26.83
31.87
37.91
43.83
48.47
50.93
50.91
48.78
45.48
42.09
39.43
37.81
36.95
36.29
35.35
33.92
32.16
30.33
28.62
26.98
25.20
23.01
20.30
17.15
13.72
10.18
6.55
2.72
-1.45
-5.99
-10.74
-15.27
-19.03
-21.49
-22.25
-21.27
-18.82
-15.50
-12.04
-9.14
-7.29
-6.68
-7.21
-8.60
-10.52
-12.68
-14.93
-17.21
-19.57
-22.09
-24.82
-27.80
-30.97
-34.24
-37.40
-40.22
-42.43
-43.82
-44.34
-44.10
-43.41
-42.57
-41.73
-40.87
-39.78
-38.30
-36.45
-34.49
-32.80
-31.73
-31.43
-31.87
-32.88
-34.29
-35.96
-37.75
-39.49
-40.91
-41.82
-42.10
-41.82
-41.14
-40.23
-39.28
-38.43
-37.77
-37.37
-37.20
-36.97
-36.10
-33.72
-28.69
-19.98
-7.03
9.69
28.73
47.79
64.25
75.85
81.30
80.68
75.22
66.77
57.02
47.29
38.46
31.10
25.46
21.60
19.34
18.22
17.57
16.38
14.06
10.68
6.84
3.26
0.45
-1.41
-2.55
-3.45
-5.46
-9.20
-14.13
-18.94
-22.45
-24.00
-23.48
-21.27
-18.04
-16.38
-17.87
-22.34
-28.59
-35.78
-43.64
-52.05
-60.71
-69.08
-79.26
-91.89
-105.23
-116.56
-124.44
-129.10
-131.69
-133.56
-135.78
-142.47
-155.01
-170.79
-185.05
-194.20
-196.76
-192.78
-183.04
-146.72
-80.12
0.95
73.99
126.48
157.46
171.36
173.92
170.46
165.27
157.54
146.83
134.57
122.94
112.90
104.22
96.63
90.17
85.01
78.46
69.20
58.44
48.78
42.11
39.14
39.70
43.06
48.07
51.67
52.16
50.02
47.14
45.04
44.36
45.03
46.43
47.60
45.88
39.99
30.89
21.04
12.88
7.86
6.14
7.23
10.52
14.89
19.43
23.43
25.99
26.00
22.58
15.49
5.24
-6.99
-19.96
-32.62
-44.36
-54.79
-63.42
-69.44
-71.91
-70.01
-63.36
-52.48
-38.64
-23.53
-8.71
4.82
16.63
26.36
32.68
34.84
33.46
30.10
26.35
23.45
22.08
22.29
23.47
24.68
25.54
25.50
24.28
21.78
18.11
13.48
8.08
2.16
-3.95
-9.73
-14.81
-18.47
-20.44
-20.88
-20.24
-19.05
-17.65
-16.12
-14.21
-11.73
-8.59
-5.14
-1.96
0.36
1.46
1.35
0.26
-1.46
-3.64
-6.16
-9.14
-12.83
-17.31
-22.37
-27.55
-32.28
-36.13
-38.82
-39.72
-38.19
-33.64
-25.70
-14.49
-0.93
13.29
25.94
34.99
39.85
41.02
39.90
38.08
36.99
37.52
40.29
46.03
53.02
60.62
68.73
76.72
82.31
82.20
73.95
57.65
35.95
12.83
-7.48
-22.70
-32.82
-39.31
-43.79
-47.18
-49.65
-50.99
-51.94
-52.09
-51.55
-50.58
-49.32
-47.56
-44.92
-41.27
-36.17
-30.85
-26.06
-22.16
-19.04
-16.16
-12.72
-7.86
-1.02
7.77
17.50
26.83
34.56
39.35
40.74
39.25
36.01
32.09
27.95
23.27
17.85
11.84
5.91
1.07
-1.92
-3.06
-3.04
-2.82
-3.16
-4.08
-5.11
-5.62
-5.16
-3.67
-1.67
0.19
1.30
1.25
0.04
-2.01
-4.39
-6.35
-7.06
-5.78
-2.05
3.91
11.11
17.95
22.62
23.75
20.95
14.98
7.43
0.23
-5.04
-7.40
-6.57
-2.74
3.51
11.28
19.36
26.32
30.83
32.03
29.81
24.79
18.05
10.68
3.50
-3.06
-8.84
-13.78
-17.84
-20.96
-23.18
-24.60
-25.39
-25.65
-25.48
-24.91
-24.01
-22.97
-22.02
-21.39
-21.21
-21.38
-21.64
-21.63
-21.08
-19.87
-18.06
-15.84
-13.45
-11.12
-9.08
-7.50
-6.49
-5.99
-5.73
-5.27
-4.13
-1.96
1.25
5.19
9.38
13.33
16.79
19.74
22.33
24.64
26.65
28.15
28.92
28.82
27.88
26.26
24.18
21.80
19.19
16.40
13.46
10.47
7.51
4.68
2.04
-0.37
-2.53
-4.45
-6.13
-7.61
-8.94
-10.21
-11.53
-12.98
-14.61
-16.39
-18.29
-20.23
-22.15
-24.02
-25.77
-27.36
-28.74
-29.90
-30.86
-31.62
-32.09
-32.03
-31.09
-28.93
-25.40
-20.67
-15.20
-9.58
-4.31
0.38
4.48
8.10
11.29
13.95
15.89
17.01
17.35
17.14
16.67
16.18
15.74
15.31
14.82
14.23
13.64
13.12
12.73
12.44
12.12
11.57
10.67
9.33
7.57
5.47
3.17
0.82
-1.44
-3.56
-5.54
-7.47
-9.46
-11.63
-14.01
-16.54
-19.02
-21.12
-22.48
-22.71
-21.53
-18.90
-15.04
-10.47
-5.77
-1.49
2.06
4.85
7.08
8.99
10.72
12.28
13.54
14.35
14.60
14.32
13.64
12.74
11.82
11.00
10.34
9.76
9.12
8.33
7.34
6.24
5.14
4.15
3.31
2.57
1.75
0.70
-0.64
-2.22
-3.91
-5.60
-7.27
-8.91
-10.61
-12.47
-14.53
-16.70
-18.69
-20.14
-20.70
-20.18
-18.32
-15.14
-10.96
-6.30
-1.68
2.59
6.39
9.75
12.74
15.84
19.30
22.91
26.15
28.52
29.83
30.18
29.85
29.20
29.13
30.18
32.17
34.36
36.02
36.86
36.96
36.52
35.82
35.88
37.44
40.38
43.85
46.95
49.06
49.92
49.52
42.86
28.29
8.71
-10.26
-24.53
-33.30
-37.81
-39.75
-40.42
-39.97
-37.88
-33.80
-28.18
-22.12
-16.68
-12.41
-9.32
-7.05
-6.15
-5.88
-5.36
-4.12
-2.14
0.44
3.40
6.41
8.89
10.22
10.41
9.68
8.20
6.08
3.54
0.86
-1.66
-3.87
-5.80
-7.28
-8.33
-9.17
-10.15
-11.50
-13.20
-14.92
-16.19
-16.54
-15.56
-13.24
-10.11
-7.16
-5.48
-5.74
-8.12
-12.27
-17.51
-23.18
-28.98
-34.97
-41.33
-47.91
-53.94
-58.32
-60.11
-59.01
-55.45
-50.39
-44.59
-38.16
-30.17
-18.92
-3.27
16.35
37.68
57.11
70.94
76.75
74.03
64.59
52.40
41.19
33.07
28.44
26.26
24.89
23.04
19.74
15.23
11.85
11.41
14.09
19.12
25.05
30.26
33.57
33.17
27.67
18.52
7.21
-4.45
-12.82
-13.63
-4.50
12.74
30.12
37.17
28.12
1.41
-39.40
-85.40
-126.41
-155.16
-160.89
-139.83
-111.48
-84.84
-57.97
-30.77
-4.03
20.12
38.51
48.54
48.20
38.35
25.35
15.11
11.02
14.63
25.26
39.85
53.98
62.57
63.22
58.88
52.49
45.27
37.48
28.72
18.65
7.55
-4.36
-16.88
-28.06
-37.11
-44.23
-49.59
-53.16
-54.84
-54.52
-52.55
-49.39
-43.59
-35.57
-26.83
-19.06
-13.75
-11.88
-13.57
-18.09
-23.93
-29.01
-31.90
-31.83
-28.69
-22.89
-15.17
-6.34
2.89
11.98
20.50
27.87
33.75
38.00
40.74
42.23
42.82
42.82
42.47
41.95
41.22
40.32
39.25
38.01
36.52
34.71
32.56
30.20
27.78
25.39
22.98
20.42
17.57
14.45
11.27
8.31
5.80
3.74
1.86
-0.23
-2.89
-6.27
-10.26
-14.51
-18.52
-21.75
-23.68
-23.99
-22.60
-19.76
-15.91
-11.54
-7.06
-2.72
1.31
4.92
7.95
10.17
11.34
11.42
10.57
9.08
7.28
5.35
3.41
1.56
-0.14
-1.62
-2.62
-2.85
-2.12
-0.55
1.45
3.25
4.27
3.92
1.89
-1.46
-4.97
-7.00
-5.96
-0.93
7.86
19.08
30.16
38.33
41.67
39.76
33.58
24.88
15.54
5.93
-2.38
-8.05
-11.00
-12.08
-12.47
-12.63
-12.87
-13.65
-15.50
-18.35
-22.14
-26.54
-30.93
-34.56
-36.91
-37.93
-37.95
-37.41
-36.47
-35.26
-33.69
-31.50
-28.36
-24.17
-19.08
-13.56
-8.23
-3.69
-0.52
0.96
0.91
-0.01
-0.88
-0.72
1.09
4.55
8.97
13.11
15.72
15.86
13.31
8.51
2.65
-2.87
-6.90
-8.90
-8.94
-7.54
-5.41
-3.02
-0.59
2.25
6.00
10.95
16.89
23.24
29.32
34.48
38.30
38.28
32.51
21.10
6.70
-7.14
-17.45
-22.53
-21.97
-16.68
-7.89
3.29
15.65
27.97
39.13
48.31
55.33
58.62
57.90
53.59
46.79
38.82
30.77
23.20
16.13
9.25
2.11
-5.38
-13.21
-21.02
-28.41
-35.01
-40.63
-45.19
-48.62
-50.90
-51.81
-51.20
-49.02
-45.31
-40.33
-34.52
-28.50
-22.90
-18.30
-14.93
-12.77
-11.52
-10.75
-9.97
-8.77
-6.96
-4.49
-1.53
1.66
4.76
7.47
9.59
11.10
12.06
12.52
12.52
11.98
10.86
9.18
7.06
4.77
2.51
0.47
-1.38
-3.14
-4.98
-6.99
-9.21
-11.58
-13.99
-16.26
-18.15
-19.38
-19.63
-18.68
-16.49
-13.22
-9.29
-5.16
-1.27
2.15
5.10
7.71
10.15
12.50
14.76
16.75
18.21
18.85
18.45
16.98
14.68
12.09
9.88
8.64
8.62
9.67
11.27
12.82
13.94
14.56
14.91
15.30
15.89
16.59
17.14
17.23
16.71
15.59
14.01
12.10
9.92
7.44
4.57
1.25
-2.50
-6.55
-10.71
-14.76
-18.51
-21.76
-24.30
-25.93
-26.44
-25.73
-23.86
-21.09
-17.77
-14.26
-10.80
-7.50
-4.36
-1.37
1.45
4.04
6.31
8.21
9.71
10.76
11.37
11.53
11.35
10.97
10.62
10.52
10.82
11.60
12.84
14.43
16.19
17.87
19.16
19.72
19.31
17.81
15.30
11.96
8.06
3.89
-0.23
-4.01
-7.18
-9.59
-11.24
-12.39
-13.45
-14.83
-16.79
-19.29
-22.05
-24.68
-26.76
-28.03
-28.31
-27.44
-25.20
-21.38
-15.95
-9.15
-1.60
5.88
12.40
17.35
20.50
21.97
22.07
21.13
19.43
17.17
14.57
11.90
9.51
7.67
6.59
6.27
6.64
7.54
8.85
10.44
12.06
13.24
13.35
11.78
8.27
3.15
-2.65
-7.86
-11.38
-12.65
-11.88
-9.82
-7.40
-5.28
-3.78
-2.81
-2.24
-2.01
-2.23
-3.00
-4.31
-5.89
-7.26
-7.91
-7.47
-5.83
-3.18
0.11
3.56
6.76
9.45
11.48
12.86
13.65
13.87
13.52
12.51
10.83
8.59
6.07
3.70
1.91
0.94
0.75
1.04
1.39
1.44
1.02
0.15
-1.02
-2.26
-3.35
-4.11
-4.50
-4.55
-4.45
-4.41
-4.57
-4.92
-5.25
-5.27
-4.71
-3.52
-1.93
-0.41
0.48
0.29
-1.21
-3.86
-7.25
-10.84
-14.11
-16.76
-18.67
-19.88
-20.50
-20.55
-20.01
-18.81
-16.82
-13.90
-9.92
-4.82
1.29
8.00
14.66
20.49
24.84
27.37
28.19
27.74
26.59
25.22
23.91
22.68
21.41
19.93
18.16
16.15
14.07
12.15
10.60
9.54
9.03
9.02
9.42
9.99
10.31
9.83
8.00
4.51
-0.49
-6.36
-12.18
-17.08
-20.59
-22.66
-23.60
-23.76
-23.36
-22.45
-21.02
-19.17
-17.20
-15.50
-14.37
-13.87
-13.72
-13.47
-12.66
-11.04
-8.65
-5.82
-2.96
-0.44
1.58
3.21
4.68
6.26
8.13
10.27
12.55
14.73
16.57
17.91
18.64
18.78
18.41
17.65
16.66
15.56
14.43
13.32
12.29
11.41
10.80
10.53
10.61
10.87
11.01
10.68
9.57
7.59
4.86
1.73
-1.41
-4.25
-6.69
-8.76
-10.60
-12.28
-13.72
-14.80
-15.36
-15.39
-15.05
-14.62
-14.42
-14.70
-15.49
-16.64
-17.80
-18.54
-18.47
-17.34
-15.16
-12.21
-8.98
-5.95
-3.49
-1.69
-0.42
0.53
1.36
2.13
2.81
3.30
3.50
3.34
2.79
1.86
0.62
-0.79
-2.15
-3.21
-3.73
-3.57
-2.74
-1.39
0.24
1.86
3.24
4.27
4.95
5.37
5.69
5.99
6.28
6.46
6.37
5.86
4.84
3.39
1.67
-0.03
-1.43
-2.38
-2.95
-3.43
-4.27
-5.88
-8.46
-11.85
-15.57
-18.97
-21.40
-22.41
-21.76
-19.52
-15.94
-11.42
-6.46
-1.57
2.73
5.95
7.69
7.67
5.85
2.46
-1.97
-6.68
-10.82
-13.59
-14.42
-13.12
-9.86
-5.10
0.49
6.22
11.52
16.09
19.96
23.46
27.07
31.17
35.80
40.54
44.56
46.92
46.91
44.35
39.69
33.77
27.60
21.93
17.08
12.90
9.00
4.94
0.46
-4.45
-9.61
-14.81
-19.86
-24.69
-29.30
-33.70
-37.89
-41.78
-45.30
-48.34
-50.79
-52.51
-53.33
-53.14
-51.84
-49.46
-46.08
-41.87
-37.03
-31.79
-26.39
-21.06
-16.02
-11.50
-7.62
-4.44
-1.89
0.29
2.44
4.90
7.81
11.09
14.48
17.67
20.55
23.25
26.13
29.46
33.22
36.95
39.81
40.91
39.59
35.78
30.00
23.15
16.20
9.87
4.45
-0.16
-4.19
-7.81
-10.97
-13.51
-15.28
-16.36
-17.08
-17.85
-18.99
-20.45
-21.84
-22.57
-22.10
-20.15
-16.70
-11.90
-5.92
1.09
8.89
17.07
24.92
31.53
36.08
38.04
37.35
34.39
29.83
24.44
18.97
14.03
10.06
7.28
5.68
5.02
4.95
5.05
4.93
4.31
2.99
0.93
-1.75
-4.81
-7.91
-10.76
-13.20
-15.23
-16.95
-18.45
-19.76
-20.81
-21.51
-21.79
-21.69
-21.36
-21.06
-21.05
-21.58
-22.79
-24.66
-26.97
-29.36
-31.37
-32.61
-32.76
-31.69
-29.44
-26.23
-22.44
-18.47
-14.75
-11.56
-8.99
-6.89
-4.94
-2.79
-0.16
2.94
6.22
9.22
11.48
12.77
13.13
12.90
12.44
12.08
11.97
12.13
12.51
13.09
13.84
14.68
15.50
16.12
16.44
16.48
16.37
16.31
16.42
16.65
16.71
16.25
15.04
13.07
10.65
8.29
6.49
5.50
5.22
5.21
4.94
3.99
2.18
-0.37
-3.41
-6.54
-9.43
-11.77
-13.30
-13.82
-13.18
-11.41
-8.67
-5.30
-1.64
2.03
5.55
8.84
11.89
14.67
17.12
19.13
20.71
22.07
23.45
25.03
26.76
28.41
29.65
30.13
29.67
28.36
26.64
25.01
23.75
22.81
21.91
20.81
19.33
17.48
15.46
13.84
12.99
12.87
13.13
13.34
13.35
13.10
12.58
11.74
10.83
9.98
9.13
8.17
7.02
5.76
4.22
2.03
-2.70
-10.28
-19.01
-26.24
-30.26
-31.51
-30.72
-28.60
-25.40
-21.48
-16.97
-12.11
-7.38
-3.30
-0.17
2.18
4.11
6.00
8.12
10.82
14.19
17.89
21.22
23.50
24.37
23.72
21.73
18.79
15.43
11.99
8.45
4.54
0.13
-4.56
-8.98
-12.45
-14.48
-14.91
-14.15
-13.07
-12.65
-13.61
-16.04
-19.49
-23.17
-26.37
-28.67
-30.16
-31.25
-32.47
-34.16
-36.32
-38.71
-40.90
-42.48
-43.02
-42.15
-39.63
-35.44
-29.81
-23.24
-16.31
-9.48
-2.93
3.43
9.78
16.17
22.28
27.54
31.31
33.18
33.13
31.57
29.14
26.39
23.62
20.85
17.94
14.74
11.31
7.89
4.85
2.49
0.94
0.16
-0.05
0.10
0.44
0.90
1.50
2.25
3.15
4.11
5.02
5.72
6.06
5.82
4.79
2.84
-0.07
-3.74
-7.82
-11.87
-15.50
-18.54
-21.08
-23.38
-25.63
-27.92
-30.07
-31.72
-32.33
-31.40
-28.63
-24.02
-17.89
-10.66
-2.88
4.86
11.97
17.95
22.35
24.82
25.17
23.46
20.19
16.02
11.57
7.27
3.47
0.37
-2.05
-3.97
-5.58
-6.53
-6.48
-5.20
-2.71
0.96
5.64
10.67
14.98
17.53
18.47
18.20
17.27
16.13
15.46
15.90
17.11
17.76
16.20
12.53
7.20
0.93
-5.60
-11.28
-14.77
-15.82
-15.39
-15.28
-16.06
-19.47
-28.33
-45.64
-72.20
-101.85
-123.68
-127.10
-116.33
-94.90
-66.49
-32.21
3.65
36.86
64.79
85.63
98.18
102.04
99.46
92.72
83.59
72.99
58.80
41.34
22.62
4.57
-12.11
-25.82
-34.81
-37.33
-33.29
-23.19
-9.07
5.23
15.10
16.92
10.40
-2.30
-18.28
-30.85
-32.27
-18.86
6.10
33.73
54.14
61.36
54.94
39.29
21.13
6.96
-2.14
-6.86
-8.50
-8.17
-6.01
-1.79
4.54
12.53
20.81
27.54
30.68
29.63
24.97
18.14
10.84
4.49
-0.04
-2.82
-4.48
-5.29
-4.87
-2.45
2.57
10.03
18.61
26.15
30.18
28.94
22.41
12.35
1.52
-7.33
-12.39
-13.28
-10.86
-6.76
-2.64
0.45
2.20
2.81
2.71
2.27
1.63
0.74
-0.49
-2.07
-3.82
-5.42
-6.60
-7.31
-7.69
-8.10
-8.86
-10.14
-11.83
-13.64
-15.15
-15.98
-15.93
-15.01
-13.39
-11.27
-8.82
-6.08
-3.02
0.38
4.07
7.81
11.31
14.28
16.58
18.24
19.38
20.01
20.07
19.42
18.07
16.25
14.38
12.87
11.87
11.23
10.56
9.45
7.75
5.55
3.20
1.04
-0.78
-2.31
-3.78
-5.41
-7.32
-9.49
-11.82
-14.18
-16.46
-18.52
-20.17
-21.22
-21.46
-20.84
-19.50
-17.81
-16.27
-15.39
-15.54
-16.74
-18.69
-20.82
-22.49
-23.23
-22.82
-21.44
-19.43
-17.21
-15.00
-12.81
-10.50
-7.93
-5.15
-2.34
0.21
2.24
3.63
4.41
4.65
4.49
4.08
3.64
3.45
3.74
4.60
5.85
7.04
7.67
7.45
6.45
5.05
3.75
2.79
2.11
1.43
0.49
-0.72
-1.96
-2.90
-3.35
-3.38
-3.26
-3.30
-3.65
-4.29
-5.15
-6.21
-7.52
-9.14
-10.99
-12.77
-14.04
-14.33
-13.41
-11.28
-8.21
-4.63
-0.95
2.47
5.40
7.73
9.42
10.55
11.22
11.59
11.75
11.75
11.57
11.16
10.50
9.65
8.76
7.97
7.37
6.94
6.58
6.17
5.63
5.01
4.39
3.82
3.26
2.62
1.77
0.66
-0.70
-2.23
-3.86
-5.52
-7.15
-8.65
-9.95
-11.05
-11.97
-12.85
-13.81
-14.94
-16.22
-17.52
-18.65
-19.36
-19.38
-18.39
-16.09
-12.26
-6.89
-0.19
7.35
15.14
22.51
28.83
33.63
36.57
37.56
36.78
34.63
31.64
28.29
24.85
21.37
17.65
13.49
8.79
3.67
-1.52
-6.32
-10.34
-13.34
-15.34
-16.51
-17.11
-17.39
-17.45
-17.36
-17.14
-16.86
-16.62
-16.50
-16.55
-16.77
-17.13
-17.60
-18.13
-18.69
-19.17
-19.48
-19.57
-19.48
-19.37
-19.39
-19.66
-20.18
-20.83
-21.49
-22.00
-22.18
-21.78
-20.50
-18.09
-14.46
-9.81
-4.64
0.39
4.69
7.90
10.02
11.30
12.10
12.70
13.20
13.53
13.53
13.06
12.13
10.92
9.71
8.76
8.24
8.09
8.18
8.30
8.31
8.22
8.11
8.10
8.19
8.31
8.33
8.12
7.66
7.02
6.29
5.49
4.59
3.45
1.96
0.10
-2.01
-4.20
-6.33
-8.35
-10.34
-12.41
-14.63
-16.92
-19.03
-20.63
-21.38
-21.02
-19.46
-16.71
-12.96
-8.50
-3.71
0.98
5.20
8.61
11.06
12.54
13.21
13.36
13.30
13.23
13.23
13.24
13.17
12.93
12.52
11.98
11.35
10.66
9.89
9.03
8.12
7.22
6.36
5.53
4.63
3.61
2.44
1.20
-0.08
-1.36
-2.69
-4.11
-5.57
-6.89
-7.88
-8.37
-8.39
-8.15
-7.96
-8.09
-8.68
-9.68
-10.91
-12.12
-13.04
-13.42
-13.07
-11.86
-9.82
-7.08
-3.90
-0.59
2.61
5.50
7.98
9.98
11.48
12.47
12.98
13.06
12.75
12.13
11.26
10.25
9.22
8.29
7.51
6.91
6.45
6.10
5.81
5.53
5.20
4.71
4.03
3.12
2.08
1.00
-0.05
-1.07
-2.11
-3.21
-4.38
-5.51
-6.52
-7.38
-8.17
-9.06
-10.21
-11.74
-13.56
-15.47
-17.14
-18.17
-18.20
-16.97
-14.44
-10.81
-6.52
-2.12
1.86
5.09
7.47
9.13
10.32
11.26
12.06
12.66
12.92
12.71
12.06
11.12
10.16
9.41
8.95
8.71
8.51
8.16
7.60
6.87
6.12
5.45
4.92
4.41
3.77
2.81
1.44
-0.25
-2.05
-3.66
-4.85
-5.53
-5.85
-6.10
-6.60
-7.60
-9.15
-11.10
-13.15
-14.98
-16.25
-16.73
-16.25
-14.77
-12.36
-9.19
-5.50
-1.58
2.23
5.63
8.40
10.41
11.67
12.33
12.57
12.52
12.28
11.83
11.17
10.32
9.41
8.61
8.08
7.90
8.03
8.33
8.66
8.85
8.83
8.54
7.97
7.20
6.30
5.40
4.54
3.67
2.70
1.49
0.02
-1.63
-3.30
-4.86
-6.29
-7.66
-9.07
-10.55
-12.04
-13.43
-14.67
-15.78
-16.78
-17.61
-18.00
-17.61
-16.11
-13.47
-9.92
-5.93
-2.03
1.40
4.16
6.29
7.91
9.12
9.98
10.49
10.69
10.60
10.31
9.87
9.34
8.75
8.13
7.55
7.11
6.91
6.98
7.30
7.72
8.08
8.17
7.87
7.16
6.12
4.95
3.84
2.97
2.33
1.77
1.03
-0.11
-1.65
-3.41
-5.04
-6.16
-6.52
-6.06
-4.87
-3.14
-1.13
0.91
2.68
3.92
4.47
4.34
3.68
2.73
1.79
1.08
0.71
0.73
1.13
1.86
2.85
3.95
5.01
5.84
6.32
6.40
6.12
5.59
4.92
4.21
3.56
3.01
2.58
2.25
1.94
1.57
1.11
0.58
0.06
-0.41
-0.79
-1.15
-1.61
-2.27
-3.19
-4.34
-5.60
-6.85
-7.99
-8.97
-9.79
-10.47
-11.13
-11.90
-12.90
-14.22
-15.81
-17.49
-18.93
-19.75
-19.66
-18.46
-16.20
-13.11
-9.55
-5.90
-2.50
0.46
2.92
4.92
6.54
7.78
8.64
9.03
8.95
8.51
7.94
7.51
7.43
7.74
8.30
8.85
9.17
9.14
8.81
8.32
7.82
7.40
7.03
6.63
6.09
5.33
4.33
3.11
1.73
0.28
-1.18
-2.57
-3.88
-5.09
-6.26
-7.44
-8.69
-10.05
-11.52
-13.06
-14.53
-15.76
-16.49
-16.45
-15.40
-13.28
-10.18
-6.44
-2.51
1.16
4.22
6.57
8.26
9.50
10.48
11.30
11.98
12.45
12.68
12.68
12.51
12.22
11.84
11.36
10.80
10.20
9.68
9.31
9.13
9.05
8.93
8.63
8.09
7.35
6.49
5.56
4.57
3.45
2.18
0.78
-0.60
-1.82
-2.82
-3.67
-4.58
-5.77
-7.36
-9.29
-11.34
-13.18
-14.53
-15.20
-15.10
-14.22
-12.56
-10.20
-7.31
-4.12
-0.90
2.10
4.71
6.86
8.53
9.77
10.60
11.06
11.22
11.18
11.02
10.78
10.48
10.12
9.73
9.36
9.09
8.97
9.00
9.09
9.12
8.97
8.54
7.85
6.94
5.91
4.87
3.88
2.93
1.94
0.78
-0.59
-2.16
-3.82
-5.40
-6.77
-7.87
-8.72
-9.38
-9.98
-10.67
-11.61
-12.88
-14.48
-16.24
-17.83
-18.85
-18.97
-17.97
-15.89
-12.91
-9.38
-5.70
-2.17
0.98
3.71
6.04
8.03
9.67
10.85
11.47
11.50
11.06
10.41
9.82
9.45
9.32
9.26
9.12
8.84
8.50
8.26
8.25
8.41
8.57
8.46
7.95
7.08
6.08
5.23
4.66
4.27
3.83
3.07
1.91
0.49
-0.96
-2.24
-3.30
-4.28
-5.33
-6.55
-7.91
-9.28
-10.58
-11.82
-13.11
-14.57
-16.20
-17.83
-19.15
-19.78
-19.43
-17.98
-15.49
-12.26
-8.62
-4.95
-1.53
1.45
3.88
5.74
7.02
7.73
7.90
7.61
6.98
6.21
5.48
4.97
4.79
4.95
5.42
6.10
6.88
7.64
8.23
8.56
8.52
8.09
7.32
6.31
5.17
4.05
3.03
2.16
1.41
0.69
-0.12
-1.09
-2.21
-3.40
-4.54
-5.57
-6.51
-7.42
-8.43
-9.60
-10.94
-12.38
-13.77
-14.90
-15.53
-15.40
-14.36
-12.38
-9.64
-6.42
-3.06
0.14
3.00
5.39
7.24
8.57
9.44
9.98
10.33
10.54
10.60
10.44
10.01
9.32
8.49
7.67
7.03
6.68
6.63
6.81
7.05
7.16
6.96
6.37
5.46
4.40
3.43
2.70
2.19
1.73
1.12
0.20
-1.02
-2.42
-3.84
-5.18
-6.44
-7.67
-8.92
-10.21
-11.50
-12.75
-13.98
-15.25
-16.61
-18.00
-19.20
-19.88
-19.65
-18.22
-15.57
-11.92
-7.75
-3.57
0.15
3.19
5.53
7.30
8.71
9.87
10.84
11.59
12.07
12.24
12.14
11.81
11.34
10.80
10.29
9.87
9.58
9.45
9.43
9.46
9.45
9.34
9.07
8.65
8.11
7.50
6.82
6.08
5.26
4.37
3.44
2.50
1.54
0.43
-0.93
-2.64
-4.66
-6.78
-8.72
-10.25
-11.32
-12.06
-12.76
-13.73
-15.14
-17.01
-19.15
-21.20
-22.75
-23.35
-22.67
-20.63
-17.39
-13.37
-9.08
-4.98
-1.38
1.62
4.05
5.97
7.43
8.44
9.02
9.25
9.19
8.92
8.53
8.09
7.70
7.50
7.60
8.07
8.85
9.79
10.68
11.35
11.70
11.68
11.30
10.60
9.63
8.46
7.22
6.02
4.92
3.92
2.87
1.61
0.02
-1.92
-4.07
-6.20
-8.10
-9.69
-11.05
-12.38
-13.93
-15.79
-17.86
-19.81
-21.16
-21.51
-20.62
-18.50
-15.41
-11.71
-7.79
-3.96
-0.45
2.60
5.15
7.22
8.90
10.27
11.40
12.24
12.73
12.82
12.56
12.13
11.75
11.58
11.57
11.58
11.45
11.16
10.85
10.71
10.87
11.19
11.41
11.20
10.43
9.20
7.79
6.45
5.28
4.22
3.10
1.77
0.21
-1.52
-3.33
-5.11
-6.81
-8.39
-9.82
-11.08
-12.16
-13.15
-14.18
-15.39
-16.87
-18.59
-20.37
-21.88
-22.76
-22.62
-21.24
-18.60
-14.91
-10.57
-6.05
-1.80
1.89
4.86
7.15
8.85
10.10
11.06
11.81
12.41
12.83
13.05
13.06
12.86
12.52
12.13
11.77
11.53
11.44
11.51
11.68
11.87
11.97
11.91
11.64
11.19
10.59
9.87
9.00
7.95
6.70
5.30
3.85
2.47
1.24
0.15
-0.89
-2.01
-3.31
-4.82
-6.51
-8.25
-9.90
-11.40
-12.75
-14.09
-15.61
-17.43
-19.53
-21.67
-23.46
-24.45
-24.30
-22.86
-20.24
-16.68
-12.56
-8.23
-4.02
-0.16
3.16
5.84
7.86
9.28
10.22
10.85
11.31
11.66
11.92
12.04
11.95
11.63
11.14
10.58
10.13
9.94
10.06
10.43
10.86
11.14
11.05
10.53
9.63
8.47
7.21
5.95
4.70
3.40
1.98
0.41
-1.28
-3.00
-4.68
-6.24
-7.70
-9.11
-10.56
-12.11
-13.83
-15.71
-17.72
-19.70
-21.34
-22.28
-22.14
-20.70
-17.99
-14.33
-10.24
-6.24
-2.73
0.16
2.43
4.23
5.64
6.69
7.35
7.58
7.42
6.98
6.42
5.91
5.61
5.62
5.98
6.69
7.73
9.00
10.34
11.52
12.22
12.18
11.26
9.49
7.14
4.60
2.28
0.41
-0.97
-2.05
-3.10
-4.35
-5.87
-7.57
-9.30
-10.96
-12.55
-14.20
-16.08
-18.28
-20.74
-23.24
-25.41
-26.75
-26.79
-25.15
-21.73
-16.79
-10.91
-4.90
0.50
4.80
7.92
10.09
11.69
13.04
14.27
15.33
16.10
16.50
16.57
16.44
16.25
16.09
15.92
15.68
15.34
14.91
14.51
14.26
14.22
14.27
14.14
13.54
12.28
10.39
8.12
5.79
3.63
1.68
-0.19
-2.18
-4.37
-6.71
-9.00
-11.05
-12.80
-14.31
-15.84
-17.63
-19.85
-22.48
-25.23
-27.59
-28.97
-28.83
-26.92
-23.36
-18.57
-13.12
-7.60
-2.42
2.18
6.15
9.50
12.30
14.62
16.52
18.01
19.07
19.66
19.81
19.62
19.23
18.79
18.36
17.95
17.54
17.18
16.92
16.79
16.70
16.45
15.79
14.59
12.89
10.94
9.02
7.35
5.92
4.56
3.02
1.16
-1.09
-3.63
-6.31
-8.97
-11.45
-13.59
-15.31
-16.67
-17.95
-19.65
-22.27
-26.03
-30.68
-35.36
-38.80
-39.73
-37.35
-31.55
-22.98
-12.79
-2.30
7.33
15.32
21.27
25.13
27.10
27.52
26.80
25.40
23.68
21.98
20.51
19.39
18.64
18.21
17.99
17.89
17.85
17.96
18.36
19.18
20.41
21.81
22.98
23.49
23.05
21.64
19.48
16.93
14.34
11.91
9.68
7.60
5.64
3.80
2.12
0.65
-0.63
-1.83
-3.12
-4.64
-6.51
-8.74
-11.27
-14.01
-16.87
-19.74
-22.40
-24.52
-25.72
-25.63
-24.11
-21.27
-17.52
-13.30
-9.06
-5.00
-1.17
2.47
5.92
9.08
11.83
14.05
15.69
16.79
17.42
17.65
17.54
17.16
16.59
15.89
15.08
14.11
12.86
11.24
9.25
6.97
4.57
2.19
-0.08
-2.17
-4.05
-5.65
-6.93
-7.90
-8.69
-9.49
-10.52
-11.90
-13.56
-15.33
-16.95
-18.23
-19.09
-19.60
-19.98
-20.47
-21.29
-22.50
-24.02
-25.50
-26.50
-26.54
-25.21
-22.36
-18.06
-12.68
-6.76
-0.86
4.49
8.98
12.43
14.91
16.49
17.33
17.61
17.46
17.11
16.77
16.61
16.70
16.99
17.31
17.52
17.53
17.35
17.02
16.59
16.01
15.20
14.10
12.71
11.13
9.50
7.99
6.66
5.49
4.35
3.06
1.48
-0.47
-2.73
-5.12
-7.41
-9.45
-11.25
-12.95
-14.78
-16.90
-19.34
-21.93
-24.36
-26.25
-27.26
-27.12
-25.67
-22.90
-18.94
-14.18
-9.10
-4.26
-0.09
3.17
5.55
7.24
8.47
9.44
10.22
10.75
10.94
10.65
9.80
8.45
6.77
5.07
3.74
3.08
3.17
3.82
4.59
5.02
4.75
3.71
2.17
0.69
-0.01
0.70
3.24
7.57
13.16
19.01
23.91
26.75
26.87
24.27
19.59
13.91
8.34
3.71
0.32
-2.07
-4.05
-6.28
-9.13
-12.54
-16.01
-18.77
-20.11
-19.54
-17.01
-12.73
-7.23
-1.08
5.19
11.11
16.36
20.71
24.04
26.33
27.73
28.48
28.89
29.16
29.41
29.60
29.52
28.81
27.12
24.24
20.11
14.93
9.02
2.80
-3.32
-9.19
-14.89
-20.63
-26.46
-32.24
-37.66
-42.44
-46.45
-49.74
-52.64
-55.56
-58.43
-60.49
-60.61
-57.84
-52.06
-44.07
-35.23
-27.28
-21.80
-19.57
-20.36
-23.23
-26.92
-30.06
-31.13
-28.36
-20.77
-8.67
6.09
20.58
31.46
36.03
33.18
22.88
8.58
-3.75
-9.49
-7.95
-1.01
8.96
20.06
30.92
40.40
48.39
53.90
55.83
53.75
48.42
41.41
34.43
28.81
25.30
24.11
23.99
23.67
22.00
18.54
13.50
7.52
1.30
-4.59
-9.73
-14.08
-17.64
-20.28
-21.60
-21.14
-18.67
-14.34
-8.68
-2.34
3.89
9.42
13.84
17.06
19.14
20.27
20.64
20.45
19.85
18.96
17.81
16.43
14.88
13.29
11.82
10.59
9.63
8.88
8.17
7.39
6.45
5.33
4.01
2.52
0.86
-0.90
-2.67
-4.35
-5.92
-7.49
-9.21
-11.23
-13.49
-15.77
-17.73
-19.13
-20.00
-20.66
-21.55
-23.02
-25.15
-27.67
-30.05
-31.66
-31.98
-30.68
-27.75
-23.46
-18.24
-12.66
-7.25
-2.39
1.71
5.01
7.59
9.56
11.01
11.96
12.43
12.41
11.98
11.24
10.36
9.48
8.71
8.11
7.69
7.45
7.39
7.47
7.56
7.52
7.18
6.48
5.52
4.48
3.58
2.88
2.33
1.68
0.72
-0.72
-2.69
-5.15
-7.95
-10.91
-13.80
-16.36
-18.38
-19.81
-20.80
-21.71
-22.91
-24.59
-26.54
-28.18
-28.74
-27.60
-24.54
-19.83
-14.12
-8.18
-2.66
2.05
5.82
8.69
10.79
12.23
13.13
13.56
13.58
13.21
12.52
11.58
10.54
9.55
8.77
8.26
8.00
7.85
7.66
7.33
6.82
6.14
5.34
4.43
3.35
2.06
0.53
-1.22
-3.11
-5.04
-6.94
-8.77
-10.50
-12.09
-13.51
-14.79
-16.08
-17.61
-19.54
-21.82
-24.14
-25.93
-26.60
-25.68
-23.05
-18.92
-13.75
-8.10
-2.51
2.66
7.17
10.93
13.92
16.14
17.63
18.45
18.68
18.47
17.95
17.20
16.28
15.20
14.05
12.98
12.14
11.64
11.47
11.52
11.57
11.45
11.01
10.16
8.85
7.08
4.94
2.58
0.21
-2.00
-3.96
-5.66
-7.24
-8.77
-10.32
-11.88
-13.42
-14.97
-16.60
-18.39
-20.49
-22.95
-25.74
-28.60
-31.09
-32.62
-32.64
-30.79
-27.13
-22.04
-16.19
-10.23
-4.67
0.26
4.50
8.15
11.24
13.77
15.73
17.10
17.96
18.43
18.62
18.60
18.39
17.97
17.33
16.58
15.83
15.21
14.83
14.66
14.65
14.63
14.43
13.90
12.93
11.53
9.79
7.85
5.89
4.02
2.26
0.56
-1.19
-3.07
-5.12
-7.32
-9.60
-11.85
-13.95
-15.81
-17.43
-18.92
-20.54
-22.53
-24.98
-27.64
-29.97
-31.22
-30.76
-28.33
-24.13
-18.76
-12.94
-7.28
-2.10
2.47
6.45
9.77
12.28
13.86
14.49
14.35
13.74
12.99
12.34
11.88
11.58
11.34
11.02
10.51
9.77
8.87
8.05
7.63
7.92
9.03
10.73
12.47
13.50
13.18
11.27
8.17
4.85
2.57
2.38
4.65
8.90
13.86
17.96
19.91
19.10
15.68
10.33
3.91
-2.85
-9.44
-15.54
-20.92
-25.48
-29.20
-32.18
-34.53
-36.24
-37.14
-36.95
-35.44
-32.55
-28.48
-23.55
-18.14
-12.53
-7.01
-1.87
2.53
5.86
7.92
8.80
8.88
8.67
8.66
9.18
10.37
12.20
14.48
16.96
19.28
21.12
22.21
22.47
21.99
21.00
19.72
18.28
16.73
15.05
13.29
11.55
9.97
8.65
7.58
6.65
5.68
4.57
3.27
1.83
0.35
-1.09
-2.43
-3.68
-4.87
-6.06
-7.33
-8.81
-10.60
-12.78
-15.25
-17.71
-19.66
-20.59
-20.09
-18.06
-14.74
-10.56
-6.06
-1.65
2.33
5.70
8.34
10.15
11.10
11.26
10.76
9.78
8.51
7.06
5.58
4.18
3.02
2.25
1.98
2.16
2.65
3.23
3.74
4.10
4.38
4.69
5.06
5.39
5.46
5.02
3.93
2.21
0.10
-2.07
-4.00
-5.50
-6.60
-7.43
-8.24
-9.22
-10.51
-12.18
-14.24
-16.66
-19.34
-21.99
-24.15
-25.18
-24.50
-21.79
-17.18
-11.26
-4.87
1.11
6.10
9.85
12.50
14.29
15.48
16.21
16.49
16.29
15.65
14.71
13.68
12.82
12.27
12.02
11.94
11.87
11.70
11.43
11.16
10.97
10.84
10.59
10.03
8.98
7.39
5.40
3.28
1.31
-0.29
-1.46
-2.31
-3.05
-3.97
-5.32
-7.23
-9.67
-12.41
-15.14
-17.56
-19.50
-20.99
-22.22
-23.46
-24.82
-26.16
-27.07
-27.05
-25.70
-23.00
-19.23
-14.93
-10.57
-6.41
-2.46
1.35
4.98
8.25
10.81
12.42
13.06
12.94
12.39
11.70
10.98
10.21
9.35
8.51
7.95
7.95
8.71
10.13
11.80
13.21
13.88
13.67
12.73
11.48
10.34
9.52
8.92
8.21
7.05
5.27
3.01
0.60
-1.58
-3.33
-4.67
-5.81
-7.06
-8.63
-10.57
-12.78
-15.04
-17.09
-18.65
-19.42
-19.13
-17.54
-14.54
-10.23
-4.95
0.74
6.16
10.69
13.91
15.70
16.22
15.77
14.68
13.19
11.44
9.51
7.52
5.64
4.03
2.82
2.05
1.73
1.81
2.25
2.94
3.70
4.25
4.31
3.69
2.38
0.60
-1.30
-2.97
-4.22
-5.02
-5.52
-5.96
-6.52
-7.32
-8.32
-9.45
-10.62
-11.79
-13.02
-14.39
-15.99
-17.80
-19.68
-21.36
-22.50
-22.73
-21.75
-19.36
-15.52
-10.43
-4.54
1.52
7.06
11.53
14.66
16.52
17.41
17.71
17.72
17.62
17.49
17.35
17.20
17.00
16.64
16.02
15.10
14.06
13.23
12.98
13.46
14.51
15.65
16.29
16.06
14.93
13.28
11.63
10.39
9.64
9.18
8.61
7.62
6.12
4.24
2.26
0.35
-1.46
-3.32
-5.44
-7.98
-10.97
-14.27
-17.61
-20.64
-22.95
-24.16
-23.94
-22.14
-18.81
-14.25
-8.94
-3.49
1.53
5.65
8.56
10.17
10.54
9.93
8.69
7.23
5.86
4.76
3.96
3.32
2.70
2.03
1.29
0.54
-0.16
-0.80
-1.40
-2.02
-2.68
-3.35
-3.91
-4.26
-4.36
-4.28
-4.21
-4.42
-5.15
-6.48
-8.36
-10.55
-12.78
-14.85
-16.77
-18.72
-20.94
-23.45
-26.03
-28.14
-29.10
-28.42
-25.91
-21.80
-16.61
-10.92
-5.24
0.10
4.83
8.73
11.63
13.47
14.40
14.77
15.04
15.53
16.36
17.38
18.32
18.94
19.16
19.06
18.84
18.68
18.68
18.84
19.05
19.16
18.94
18.18
16.74
14.54
11.74
8.60
5.51
2.86
0.85
-0.54
-1.65
-2.98
-5.05
-8.17
-12.35
-17.30
-22.46
-27.18
-30.80
-32.80
-32.85
-30.93
-27.29
-22.46
-17.10
-11.85
-7.21
-3.44
-0.58
1.48
2.95
4.12
5.23
6.48
7.93
9.48
10.96
12.16
12.93
13.27
13.27
13.09
12.87
12.74
12.70
12.73
12.73
12.59
12.23
11.58
10.63
9.40
7.97
6.36
4.62
2.73
0.72
-1.31
-3.27
-5.03
-6.55
-7.92
-9.29
-10.80
-12.46
-14.04
-15.07
-14.98
-13.28
-9.72
-4.41
2.16
9.29
16.25
22.51
27.85
32.25
35.85
38.66
40.55
41.29
40.71
38.87
36.05
32.76
29.44
26.44
23.86
21.63
19.55
17.40
14.95
12.01
8.49
4.39
-0.16
-4.91
-9.59
-14.00
-18.05
-21.79
-25.37
-28.96
-32.66
-36.37
-39.88
-42.82
-44.90
-46.01
-46.26
-46.04
-45.79
-45.88
-46.39
-47.15
-47.76
-47.74
-46.67
-44.29
-40.49
-35.33
-29.02
-21.83
-14.17
-6.45
0.92
7.58
13.27
17.81
21.16
23.43
24.83
25.72
26.43
27.24
28.24
29.34
30.30
30.93
31.14
31.02
30.78
30.56
30.32
29.75
28.45
26.13
22.81
18.79
14.56
10.54
6.91
3.66
0.62
-2.33
-5.18
-7.83
-10.21
-12.32
-14.30
-16.32
-18.52
-20.95
-23.60
-26.36
-29.04
-31.28
-32.56
-32.27
-29.91
-25.31
-18.80
-11.13
-3.24
4.02
10.16
15.08
19.02
22.33
25.30
28.07
30.58
32.53
33.57
33.38
31.84
29.15
25.85
22.60
19.98
18.26
17.26
16.47
15.29
13.22
10.11
6.10
1.63
-2.79
-6.65
-9.60
-11.46
-12.33
-12.44
-12.16
-11.85
-11.76
-11.98
-12.41
-12.82
-13.03
-12.93
-12.68
-12.58
-13.03
-14.33
-16.59
-19.64
-23.04
-26.22
-28.57
-29.61
-29.02
-26.65
-22.66
-17.46
-11.70
-6.06
-1.15
2.65
5.23
6.73
7.49
7.81
7.81
7.42
6.47
4.91
2.83
0.52
-1.59
-2.97
-3.34
-2.77
-1.71
-0.60
0.17
0.39
0.07
-0.58
-0.79
-0.04
1.66
3.95
6.48
9.05
11.57
13.96
16.14
18.93
22.65
26.86
30.78
34.00
36.60
38.78
40.65
42.22
44.85
49.13
54.36
59.28
63.16
66.13
68.70
71.54
75.32
82.29
93.18
106.28
118.55
127.32
131.06
129.22
122.20
99.93
61.53
15.92
-24.99
-54.88
-74.06
-85.84
-93.64
-99.62
-104.96
-107.24
-105.08
-99.66
-93.57
-88.98
-86.94
-87.75
-91.29
-95.77
-98.93
-98.86
-96.20
-92.14
-86.78
-79.30
-69.29
-57.21
-45.06
-31.27
-14.97
3.38
22.87
43.07
64.13
84.34
98.35
101.06
91.45
73.36
53.14
35.95
24.05
16.55
10.70
4.09
-3.51
-10.37
-14.76
-16.62
-18.16
-21.77
-28.89
-39.19
-50.49
-59.16
-61.89
-57.06
-43.25
-23.34
-2.23
14.59
22.60
19.81
7.95
-8.06
-21.87
-28.25
-25.74
-16.57
-5.40
3.22
7.20
7.98
8.53
11.22
16.47
22.23
25.50
23.75
16.00
3.03
-13.14
-30.08
-45.34
-56.57
-61.94
-60.00
-50.13
-32.80
-9.55
17.50
45.36
69.90
87.76
96.96
97.08
89.08
74.93
57.31
39.11
22.84
10.16
1.79
-2.82
-5.02
-6.27
-7.46
-8.77
-10.01
-11.22
-12.77
-14.97
-17.89
-21.16
-23.94
-25.27
-24.46
-21.42
-16.71
-11.11
-5.14
0.86
6.45
10.41
11.45
9.17
4.10
-2.66
-10.55
-18.93
-27.07
-34.56
-40.23
-43.32
-43.39
-40.60
-35.80
-30.18
-24.66
-19.67
-15.19
-10.95
-6.65
-1.75
3.97
10.16
16.06
20.96
24.56
26.93
28.38
29.34
30.83
33.69
38.23
44.06
50.44
56.67
62.08
65.90
64.42
55.60
40.84
24.22
9.44
-1.71
-8.83
-12.33
-13.05
-11.91
-9.26
-5.89
-2.18
0.84
1.65
-0.72
-6.46
-14.83
-24.38
-32.99
-39.07
-42.38
-41.90
-38.54
-33.95
-30.00
-28.25
-29.55
-33.70
-39.84
-46.83
-53.63
-59.58
-63.83
-65.48
-63.68
-57.86
-47.88
-34.35
-18.76
-3.18
10.03
19.26
24.08
25.22
24.21
22.67
21.67
21.47
21.67
21.52
20.70
19.39
18.09
17.22
16.77
16.27
15.14
12.99
9.89
6.36
3.18
0.91
-0.28
-0.63
-0.66
-0.84
-1.38
-2.17
-2.84
-2.96
-2.25
-0.77
1.15
3.05
4.55
5.54
6.16
6.70
7.41
8.41
9.63
10.91
12.13
13.21
14.14
14.87
15.24
15.05
14.05
12.13
9.35
5.98
2.42
-0.89
-3.57
-5.39
-6.30
-6.52
-6.47
-6.68
-7.66
-9.66
-12.59
-16.03
-19.24
-21.45
-22.02
-20.67
-17.48
-12.82
-7.23
-1.24
4.62
9.89
14.30
17.71
20.12
21.61
22.31
22.39
21.96
