1587298286.00
64.000000
-0.00
-0.00
-0.00
-0.00
-0.00
-0.00
-0.00
-0.00
-0.00
-0.00
0.00
0.01
0.01
-0.00
-0.03
-0.05
-0.05
0.00
0.13
0.36
0.66
1.01
1.37
1.72
2.06
2.40
2.79
3.24
3.80
4.42
5.06
5.66
6.20
6.68
7.15
7.68
8.31
9.14
10.09
11.04
11.88
12.56
13.14
13.76
14.65
15.96
17.91
20.32
22.90
25.38
27.58
29.57
31.68
34.32
37.81
42.54
48.15
54.10
59.83
64.97
69.58
74.14
79.34
85.71
93.76
103.00
112.62
121.73
129.77
136.75
143.30
150.75
157.77
166.64
177.95
191.79
206.97
220.57
228.25
225.36
208.53
176.87
132.76
80.05
23.07
-34.94
-92.44
-149.16
-205.23
-260.37
-313.74
-363.87
-409.83
-450.91
-486.50
-515.74
-537.23
-549.22
-549.96
-538.37
-514.21
-478.67
-433.88
-382.45
-327.02
-269.84
-212.63
-156.66
-102.95
-52.37
-5.90
35.58
71.43
101.35
125.50
144.38
158.69
169.15
176.37
180.75
182.57
182.07
179.51
175.23
169.65
163.18
156.15
148.81
141.30
133.69
126.02
118.33
110.69
103.16
95.80
88.68
81.83
75.25
68.95
62.95
57.25
51.86
46.78
42.03
37.59
33.45
29.61
26.07
22.81
19.83
17.11
14.67
12.48
10.54
8.83
7.35
6.07
4.97
4.05
3.27
2.62
2.09
1.65
1.30
1.01
0.79
0.61
0.47
0.37
0.29
0.23
0.19
0.17
0.16
0.16
0.17
0.18
0.21
0.24
0.27
0.31
0.35
0.40
0.44
0.49
0.54
0.58
0.64
0.69
0.75
0.82
0.89
0.96
1.04
1.14
1.24
1.36
1.49
1.63
1.79
1.98
2.18
2.40
2.65
2.93
3.23
3.56
3.93
4.32
4.76
5.23
5.73
6.28
6.86
7.49
8.16
8.87
9.63
10.44
11.29
12.19
13.12
14.12
15.18
16.30
17.48
18.72
19.99
21.26
22.47
23.54
24.37
24.83
24.82
24.20
22.91
20.90
18.17
14.80
10.86
6.54
2.03
-2.46
-6.71
-10.54
-13.79
-16.36
-18.18
-19.25
-19.62
-19.37
-18.60
-17.44
-16.00
-14.35
-12.58
-10.72
-8.82
-6.85
-4.85
-2.85
-0.85
1.16
3.19
5.28
7.45
9.74
12.20
14.75
17.29
19.82
22.33
24.86
27.49
30.31
33.40
36.91
40.62
44.40
48.21
52.04
55.94
60.04
64.43
69.29
74.77
80.50
86.23
91.85
97.34
102.75
108.25
114.04
120.24
126.96
133.51
139.33
143.95
147.07
148.46
147.83
144.55
137.15
128.25
118.08
106.51
93.40
78.88
63.45
47.85
32.84
18.81
5.84
-7.18
-21.25
-37.05
-54.66
-73.54
-92.78
-111.48
-129.06
-145.46
-161.57
-178.39
-196.96
-218.35
-243.33
-271.77
-301.99
-330.44
-352.28
-363.08
-360.25
-344.16
-318.14
-287.11
-255.68
-226.65
-200.67
-176.99
-154.87
-134.26
-115.82
-100.43
-88.43
-79.30
-71.93
-65.20
-58.55
-52.14
-46.75
-43.23
-42.01
-42.96
-45.47
-48.92
-52.97
-57.67
-63.13
-68.91
-73.69
-75.38
-71.74
-61.24
-43.69
-20.36
6.42
34.06
60.27
83.50
102.84
117.80
128.17
133.96
135.56
133.76
129.75
124.80
119.95
115.69
111.99
108.42
104.48
99.90
94.73
89.27
83.83
78.46
72.96
66.90
59.90
51.83
42.96
33.80
24.92
16.65
8.94
1.30
-6.93
-16.35
-27.26
-39.39
-51.83
-63.07
-71.29
-74.71
-72.13
-63.19
-48.50
-29.43
-7.71
14.85
36.55
55.92
71.67
82.91
89.26
91.05
89.24
85.18
80.23
75.39
71.18
67.66
64.62
61.80
59.04
56.25
53.42
50.47
47.31
43.73
39.57
34.73
29.29
23.48
17.60
11.91
6.55
1.54
-3.24
-7.98
-12.90
-18.37
-24.75
-32.33
-41.05
-50.16
-58.19
-63.19
-63.29
-57.37
-45.53
-29.00
-9.82
9.96
28.68
45.30
59.23
70.09
77.56
81.46
81.99
79.82
76.10
72.09
68.81
66.78
65.89
65.57
65.10
63.95
61.91
59.07
55.70
51.93
47.69
42.66
36.44
28.78
19.70
9.58
-0.95
-11.23
-20.75
-29.32
-37.12
-44.65
-52.55
-61.33
-71.13
-81.44
-91.09
-98.48
-101.95
-100.27
-92.95
-80.39
-63.72
-44.64
-24.98
-6.61
8.86
20.31
27.31
30.17
29.92
27.88
25.30
23.04
21.42
20.36
19.57
18.67
17.36
15.43
12.77
9.38
5.46
1.28
-2.86
-6.81
-10.66
-14.71
-19.37
-24.87
-31.17
-37.89
-44.56
-50.81
-56.69
-62.64
-69.31
-77.17
-86.00
-94.81
-101.84
-105.17
-103.20
-95.23
-81.61
-63.65
-43.16
-22.02
-1.87
16.15
31.25
42.98
51.18
56.01
58.05
58.18
57.40
56.44
55.56
54.51
52.72
49.74
45.44
40.21
34.70
29.60
25.31
21.87
19.05
16.62
14.44
12.60
11.22
10.29
9.53
8.32
5.92
1.72
-4.49
-12.32
-20.71
-28.14
-32.99
-33.99
-30.56
-22.96
-12.14
0.58
13.89
26.70
38.16
47.56
54.26
57.78
57.90
54.84
49.34
42.47
35.39
29.04
23.97
20.28
17.71
15.81
14.06
12.10
9.73
6.97
3.98
1.00
-1.70
-3.99
-5.92
-7.82
-10.27
-13.98
-19.52
-26.95
-35.67
-44.35
-51.22
-54.63
-53.46
-47.51
-37.43
-24.53
-10.32
3.67
16.20
26.23
33.11
36.58
36.88
34.66
30.77
26.02
20.92
15.72
10.48
5.36
0.67
-3.21
-6.02
-7.79
-8.76
-9.25
-9.34
-8.87
-7.52
-5.17
-2.04
1.28
4.06
5.79
6.33
5.93
5.02
3.98
2.90
1.66
0.07
-1.82
-3.57
-4.45
-3.66
-0.72
4.43
11.37
19.43
27.75
35.42
41.47
44.94
45.13
41.88
35.69
27.62
18.96
10.66
3.12
-3.75
-10.14
-16.08
-21.39
-25.95
-29.97
-34.08
-38.94
-44.90
-51.60
-58.14
-63.47
-67.00
-68.92
-70.10
-71.57
-73.88
-76.62
-78.49
-77.72
-72.80
-63.11
-49.16
-32.41
-14.78
2.16
17.68
32.03
46.04
60.50
75.48
90.02
102.34
110.38
112.62
108.60
99.18
86.08
71.36
56.74
43.22
31.13
20.35
10.72
2.23
-5.06
-11.19
-16.46
-21.51
-27.04
-33.51
-40.99
-49.17
-57.67
-66.26
-75.04
-84.25
-93.86
-103.19
-110.83
-114.87
-113.48
-105.53
-91.06
-71.35
-48.47
-24.72
-2.02
18.43
36.02
50.53
61.77
69.48
73.44
73.73
70.92
66.00
60.10
54.12
48.54
43.36
38.49
33.86
29.55
25.72
22.36
19.20
15.81
11.80
7.00
1.56
-4.22
-10.05
-15.89
-21.96
-28.71
-36.56
-45.67
-55.74
-65.75
-74.14
-79.03
-78.80
-72.58
-60.60
-44.12
-25.02
-5.22
13.71
30.72
45.16
56.58
64.58
68.89
69.59
67.23
62.73
57.24
51.72
46.70
42.25
38.08
33.81
29.18
24.15
18.82
13.38
7.92
2.36
-3.47
-9.74
-16.52
-23.68
-31.03
-38.38
-45.73
-53.31
-61.44
-70.25
-79.43
-87.94
-94.27
-96.80
-94.40
-86.80
-74.58
-58.74
-40.37
-20.42
0.05
19.51
35.94
47.28
52.31
51.27
46.01
39.23
33.42
30.10
29.55
31.27
34.54
38.82
43.62
48.37
52.23
54.34
54.17
51.77
47.58
42.20
35.95
28.82
20.58
11.03
0.08
-12.18
-25.56
-39.76
-54.20
-67.96
-79.78
-88.31
-92.38
-91.32
-84.95
-73.71
-58.43
-40.29
-20.69
-1.13
17.00
32.57
44.82
53.48
58.58
60.46
59.64
56.75
52.40
47.11
41.28
35.18
29.13
23.40
18.20
13.52
8.93
3.70
-2.89
-11.20
-21.09
-32.02
-43.41
-55.07
-67.28
-80.67
-95.84
-113.21
-132.94
-155.04
-179.51
-206.07
-233.64
-259.63
-279.88
-289.27
-283.18
-259.06
-217.35
-161.19
-95.21
-24.09
48.38
119.24
185.68
244.60
292.97
328.86
352.27
365.03
369.55
367.15
357.05
336.85
303.63
256.00
194.63
122.77
46.07
-27.95
-90.99
-135.25
-155.19
-149.10
-119.02
-70.36
-10.23
54.02
115.46
167.54
204.28
220.96
215.42
190.53
153.28
113.73
82.04
65.24
64.94
77.68
96.78
114.74
128.94
139.51
149.36
161.81
178.12
196.23
212.25
222.46
223.24
217.61
207.85
196.11
183.04
167.67
147.30
119.72
83.94
37.04
-16.90
-77.99
-146.97
-224.21
-308.07
-394.69
-476.38
-543.76
-593.12
-616.65
-616.87
-600.16
-573.22
-539.97
-501.59
-455.80
-375.34
-294.26
-212.44
-138.09
-78.73
-37.64
-4.01
29.63
67.91
110.79
150.35
185.94
212.35
227.34
232.53
231.77
228.00
223.40
218.78
211.43
204.24
194.87
181.67
164.94
146.26
127.07
108.85
92.17
75.02
58.58
38.16
8.30
-31.02
-78.97
-134.79
-198.06
-268.52
-345.26
-404.99
-427.41
-403.60
-341.45
-259.67
-177.77
-109.82
-62.37
-34.57
-19.81
-13.51
-12.82
-16.19
-22.45
-29.84
-35.98
-38.53
-36.06
-27.53
-16.13
-6.10
-0.56
-0.15
-3.25
-7.39
-10.51
-10.89
-8.11
-4.45
-2.65
-4.46
-9.84
-17.05
-23.34
-30.02
-36.97
-44.29
-53.23
-65.13
-80.82
-100.22
-122.48
-146.35
-170.45
-192.75
-211.42
-225.29
-233.53
-235.65
-231.39
-220.80
-204.11
-181.64
-153.13
-118.39
-77.46
-30.94
19.84
72.82
125.50
175.44
220.77
260.84
295.89
327.16
356.64
386.83
419.93
456.79
495.80
532.52
560.60
573.47
566.75
539.89
496.22
441.58
382.16
322.75
266.19
213.84
166.29
123.98
87.20
56.02
30.24
9.63
-5.78
-15.60
-19.52
-17.85
-11.88
-3.75
4.02
9.24
10.36
6.66
-1.87
-14.48
-29.83
-46.13
-61.72
-75.52
-87.19
-96.96
-104.97
-110.78
-113.35
-111.68
-105.82
-97.69
-90.98
-89.97
-98.02
-116.26
-143.37
-176.51
-212.47
-248.57
-282.70
-312.58
-335.20
-347.04
-345.08
-327.96
-296.45
-253.02
-200.68
-142.41
-81.37
-21.49
32.50
76.27
108.10
130.54
150.28
175.78
213.65
265.55
327.39
390.87
446.41
485.90
504.22
499.18
470.78
420.53
351.43
268.54
179.34
93.22
19.73
-33.92
-65.38
-78.40
-81.91
-87.25
-104.57
-140.08
-194.73
-264.70
-342.76
-420.05
-487.37
-536.62
-562.09
-561.58
-537.10
-494.34
-440.96
-384.34
-329.39
-277.40
-226.28
-171.88
-109.81
-37.34
45.22
134.02
221.86
299.70
358.81
392.95
399.71
380.73
340.98
287.66
229.05
173.70
129.34
101.10
89.48
89.23
90.41
82.17
57.78
18.55
-25.94
-62.00
-78.39
-72.16
-50.21
-26.03
-13.10
-18.62
-40.85
-70.99
-98.07
-114.12
-116.69
-108.03
-92.11
-71.72
-47.32
-18.06
16.33
54.04
91.38
124.05
148.76
164.15
170.68
169.91
163.73
153.75
141.17
126.62
110.11
91.26
69.94
47.18
25.82
10.18
4.45
10.55
26.69
47.78
67.67
81.76
88.69
89.75
86.77
79.92
67.22
46.39
17.72
-14.26
-41.80
-57.47
-57.99
-45.90
-28.14
-12.39
-3.40
-1.55
-3.92
-6.89
-8.24
-7.60
-5.46
-2.08
2.76
8.93
15.17
19.67
21.53
22.27
25.79
36.66
57.11
85.17
115.32
141.33
159.32
169.09
172.90
172.81
168.92
158.79
138.89
106.68
61.87
6.15
-58.37
-129.94
-206.57
-283.42
-353.00
-406.77
-437.99
-443.87
-425.91
-388.79
-338.27
-279.65
-215.65
-148.69
-82.24
-20.64
32.99
78.33
116.83
149.11
173.04
186.88
189.77
183.84
174.54
169.47
175.44
194.78
223.82
241.79
231.56
188.60
124.79
57.95
0.19
-44.84
-78.63
-103.67
-120.77
-126.19
-116.63
-91.50
-55.26
-16.86
13.97
29.95
28.48
9.81
-16.39
-37.67
-45.20
-37.85
-21.50
-3.94
9.01
14.91
14.40
9.98
2.98
-6.86
-20.77
-40.12
-63.96
-89.24
-111.97
-128.87
-137.86
-139.58
-137.26
-129.91
-118.40
-101.95
-77.99
-43.65
1.94
56.60
114.59
168.19
210.28
235.96
245.14
242.11
233.62
226.34
224.58
228.81
236.04
241.69
241.34
233.55
220.11
204.64
190.45
178.83
168.77
158.26
145.87
131.32
115.75
100.41
85.50
69.81
51.36
28.46
0.79
-30.42
-63.20
-95.66
-127.10
-158.17
-190.14
-223.74
-258.37
-292.13
-322.79
-349.15
-371.56
-391.82
-412.18
-434.50
-459.49
-486.55
-513.68
-537.52
-553.66
-557.12
-543.66
-511.25
-461.54
-400.18
-335.71
-277.35
-232.09
-202.52
-185.94
-175.44
-162.22
-138.65
-100.76
-49.22
11.08
72.86
128.60
172.33
200.63
213.01
211.83
201.62
188.21
177.34
173.28
177.81
190.01
206.65
223.40
236.18
242.32
241.22
234.34
224.39
214.02
204.62
195.75
185.51
171.58
152.36
127.47
97.38
62.95
25.41
-13.09
-48.70
-76.03
-89.52
-85.81
-65.66
-34.20
0.87
32.32
56.17
72.66
85.13
97.66
112.94
131.33
151.25
170.40
186.70
198.64
205.13
205.41
199.22
187.34
172.09
157.13
146.43
142.60
145.47
151.71
155.79
151.84
135.61
105.53
62.72
10.34
-47.04
-103.73
-153.29
-189.43
-207.90
-208.56
-196.58
-181.59
-174.57
-183.80
-211.60
-253.34
-299.52
-339.69
-366.23
-376.50
-372.59
-359.16
-340.89
-320.97
-300.79
-280.64
-260.62
-240.81
-220.79
-199.00
-172.57
-138.28
-94.37
-42.16
13.61
66.29
110.13
142.73
165.94
184.92
205.46
231.41
263.07
297.25
328.86
352.93
366.15
367.54
358.26
340.86
318.67
295.26
273.79
256.54
244.66
237.85
234.67
232.68
228.77
219.50
201.68
173.13
133.32
83.88
28.43
-28.11
-80.86
-126.22
-162.39
-189.36
-208.03
-219.55
-224.99
-225.60
-223.07
-219.58
-217.14
-216.64
-217.19
-216.28
-210.87
-198.84
-180.19
-157.29
-134.33
-115.92
-105.52
-104.13
-109.69
-117.57
-121.99
-117.93
-102.83
-77.51
-45.83
-13.39
14.58
34.95
47.65
55.51
63.30
76.41
99.29
133.87
178.39
227.33
272.79
307.03
325.10
326.27
313.59
291.94
265.73
237.58
208.49
178.75
149.13
120.91
95.00
70.99
46.73
18.88
-15.89
-59.55
-111.55
-168.12
-222.28
-265.43
-289.64
-290.49
-268.60
-229.12
-179.07
-124.17
-67.00
-7.90
52.46
110.68
160.25
193.91
207.09
200.31
179.08
151.27
123.65
99.50
78.50
57.89
34.68
7.03
-25.32
-61.13
-98.08
-133.21
-163.33
-185.72
-198.84
-202.79
-199.14
-190.60
-180.15
-170.30
-162.58
-157.17
-153.09
-148.43
-140.95
-128.84
-111.38
-89.13
-63.73
-37.27
-11.54
12.29
33.59
51.99
67.01
77.84
83.62
83.70
77.95
66.80
51.16
32.23
11.39
-9.90
-30.13
-47.75
-61.36
-69.95
-73.16
-71.53
-66.48
-60.04
-54.39
-51.33
-51.85
-56.00
-63.02
-71.52
-79.93
-86.74
-90.69
-90.90
-86.98
-78.99
-67.49
-53.38
-37.77
-21.76
-6.36
7.56
19.31
28.38
34.48
37.69
38.42
37.32
34.97
31.72
27.49
21.90
14.64
5.79
-3.95
-13.39
-21.34
-27.10
-30.84
-33.64
-37.07
-42.53
-50.68
-60.98
-71.79
-80.87
-86.14
-86.51
-82.27
-74.89
-66.37
-58.44
-51.93
-46.64
-41.62
-35.63
-27.62
-17.22
-5.02
7.40
17.91
24.78
27.81
28.99
32.28
42.44
63.11
95.24
136.30
180.77
221.80
253.09
270.56
273.14
262.67
242.98
218.67
193.93
171.73
153.72
140.48
131.95
127.70
126.91
128.19
129.74
129.76
127.13
121.92
115.39
109.37
105.33
103.57
103.05
101.98
98.87
93.38
86.53
80.03
75.28
72.58
71.17
69.85
67.77
64.79
61.20
57.23
52.88
48.33
44.39
42.73
44.83
50.85
58.88
65.48
67.17
62.05
50.46
34.25
15.27
-6.25
-32.20
-65.84
-110.08
-165.54
-229.39
-295.23
-354.47
-398.43
-421.30
-422.20
-405.44
-378.71
-349.98
-324.81
-304.83
-288.55
-272.42
-253.88
-232.67
-210.43
-189.11
-169.36
-150.60
-131.18
-110.06
-85.80
-58.77
-31.15
-6.00
14.57
30.73
44.03
57.28
72.34
92.08
117.35
146.65
176.99
206.02
233.33
259.10
284.64
310.28
339.12
373.57
413.96
457.81
500.84
538.67
566.68
583.60
567.98
509.87
416.41
309.52
210.76
130.04
73.21
30.42
-4.57
-34.60
-57.63
-72.83
-82.55
-91.07
-102.66
-119.18
-141.18
-166.51
-193.44
-218.75
-240.87
-260.71
-281.36
-305.90
-335.14
-367.94
-399.87
-426.17
-441.55
-443.30
-432.28
-412.46
-388.84
-365.04
-343.05
-322.19
-301.01
-277.35
-249.85
-218.55
-184.94
-151.27
-119.55
-91.06
-65.52
-41.40
-16.15
12.81
47.43
88.63
136.50
190.24
247.48
303.78
352.65
386.90
400.84
392.74
365.93
327.90
287.60
252.02
223.88
201.51
180.86
158.49
133.86
109.80
91.05
81.99
84.58
97.89
118.85
143.82
169.85
195.11
218.12
236.94
248.78
250.64
240.57
218.69
187.53
151.33
114.68
80.82
50.80
23.38
-3.92
-33.43
-65.93
-99.87
-131.69
-156.84
-171.30
-172.69
-161.12
-139.34
-112.26
-86.06
-66.71
-58.37
-62.12
-75.84
-95.28
-115.98
-135.27
-153.01
-170.70
-189.52
-208.56
-224.32
-232.01
-227.69
-209.78
-179.16
-137.91
-88.29
-32.87
23.97
75.02
110.92
123.25
108.87
72.67
26.85
-13.68
-37.48
-41.13
-29.78
-13.48
-1.55
2.03
-0.25
-1.85
3.37
17.60
38.15
59.31
75.65
84.51
86.09
81.51
70.68
51.61
22.20
-16.93
-60.70
-100.75
-129.20
-142.85
-145.19
-144.84
-151.17
-169.49
-198.71
-232.25
-261.29
-278.49
-280.24
-266.89
-241.54
-208.36
-171.35
-133.81
-98.44
-67.60
-43.34
-27.18
-19.65
-19.99
-26.17
-35.53
-45.52
-54.36
-61.14
-65.34
-66.20
-62.43
-52.52
-35.64
-12.47
14.49
41.21
63.02
75.60
75.96
62.98
37.63
2.62
-38.29
-81.20
-122.71
-160.11
-191.10
-213.51
-225.22
-224.71
-211.77
-187.98
-156.43
-120.66
-83.37
-45.83
-8.16
29.42
65.54
97.32
121.21
134.40
136.16
128.18
113.97
97.64
82.65
71.20
64.24
61.85
63.69
69.36
78.16
89.07
100.73
111.70
120.97
128.56
135.84
144.98
157.75
174.07
191.25
204.52
208.58
199.59
176.46
141.07
97.47
50.82
6.53
-30.25
-55.24
-65.79
-61.56
-44.86
-19.96
8.30
35.73
59.52
78.28
91.84
101.10
108.20
115.89
126.34
139.53
152.34
159.53
156.42
142.15
121.36
103.43
98.95
115.23
152.80
204.38
257.14
296.97
313.35
302.49
268.04
219.17
167.21
122.10
90.02
72.70
68.04
71.62
78.33
83.52
83.81
77.40
64.20
45.58
23.79
1.03
-21.41
-43.61
-67.04
-94.17
-127.49
-168.15
-214.65
-262.32
-304.00
-332.25
-341.87
-331.97
-306.14
-271.13
-234.14
-200.47
-172.10
-147.58
-122.99
-93.16
-53.26
-0.53
64.12
135.35
204.09
260.01
295.04
306.32
297.02
274.47
246.96
220.45
197.21
176.49
156.15
134.18
108.73
77.81
39.27
-7.85
-61.51
-115.64
-161.21
-189.29
-194.28
-175.92
-138.53
-88.59
-32.27
25.55
80.56
127.80
161.43
176.36
170.51
146.41
110.66
71.35
35.01
4.83
-19.23
-39.04
-56.41
-72.18
-86.40
-99.14
-110.99
-122.88
-135.16
-146.95
-155.93
-158.97
-153.49
-138.58
-115.42
-86.61
-54.86
-21.65
13.17
50.70
91.74
135.53
179.42
219.59
252.20
274.45
284.90
283.19
269.69
245.47
212.50
174.07
134.78
99.71
73.18
57.57
52.72
56.21
64.29
72.98
79.10
80.74
77.22
68.77
56.12
39.98
20.75
-1.79
-28.43
-60.03
-96.34
-134.71
-169.71
-194.20
-201.92
-190.27
-161.79
-123.24
-82.78
-46.85
-18.40
2.59
17.01
24.72
23.99
12.47
-10.91
-44.74
-85.14
-126.71
-163.88
-192.07
-208.39
-212.36
-206.31
-195.14
-185.16
-182.62
-192.31
-216.64
-255.26
-305.17
-360.96
-415.43
-460.65
-489.63
-498.04
-485.37
-454.95
-412.77
-365.43
-318.30
-274.31
-233.66
-194.43
-153.59
-108.30
-57.26
-1.68
54.66
106.06
146.62
172.07
181.05
175.47
159.89
140.17
121.58
107.42
98.33
92.54
87.06
79.14
67.46
52.53
36.16
20.60
7.68
-1.50
-6.37
-6.44
-1.45
8.34
21.68
36.26
49.26
58.39
62.60
62.41
59.52
56.16
54.28
55.01
58.13
62.14
64.83
64.22
59.48
51.34
41.56
32.00
23.75
16.91
11.29
7.31
6.37
10.40
20.74
37.11
57.48
78.71
97.73
112.57
122.83
129.52
134.59
140.17
147.59
156.51
164.63
168.05
162.59
145.24
115.31
74.79
27.76
-20.65
-65.42
-102.58
-129.74
-146.37
-153.78
-154.57
-151.88
-148.36
-145.47
-143.31
-141.11
-138.03
-133.53
-127.47
-119.60
-109.23
-95.18
-76.19
-51.55
-21.84
10.74
42.26
67.59
81.55
80.56
64.31
36.67
5.13
-21.45
-35.76
-34.37
-18.26
8.52
41.05
75.44
109.22
140.58
167.04
184.87
189.78
178.31
149.41
105.12
50.12
-9.53
-67.83
-119.92
-162.43
-193.44
-212.03
-217.95
-211.66
-194.56
-169.29
-139.62
-109.87
-83.79
-63.65
-49.84
-41.16
-35.58
-31.08
-26.07
-19.31
-9.81
3.08
19.34
37.82
56.41
72.73
85.23
93.83
99.91
105.40
111.57
118.32
124.29
127.71
127.30
122.74
114.39
102.56
86.91
66.33
39.32
4.72
-37.52
-85.92
-137.23
-186.70
-228.63
-257.52
-269.25
-262.38
-238.71
-202.85
-160.82
-118.24
-78.85
-43.92
-12.85
15.66
42.50
67.48
89.40
106.42
116.67
118.68
111.79
96.37
74.06
47.67
20.75
-3.00
-20.53
-30.03
-31.49
-26.80
-19.32
-12.99
-10.78
-13.28
-18.10
-20.79
-17.09
-5.62
10.66
24.95
29.40
18.62
-7.76
-44.89
-84.68
-119.11
-142.84
-154.15
-154.16
-145.12
-128.94
-106.77
-79.49
-48.51
-16.19
14.40
40.36
59.87
72.84
80.91
86.84
93.55
103.33
117.47
136.39
159.99
187.81
218.68
250.32
279.15
300.93
312.18
311.70
301.41
285.68
269.30
255.07
242.58
228.77
210.22
185.68
157.22
129.37
106.56
90.62
79.79
69.86
56.69
38.42
16.21
-7.21
-29.74
-51.39
-74.20
-100.37
-130.28
-161.44
-189.27
-209.14
-218.51
-217.81
-209.67
-197.35
-183.31
-168.89
-154.74
-141.49
-129.81
-120.07
-111.93
-104.56
-97.42
-91.10
-87.45
-88.70
-96.07
-108.69
-123.37
-135.56
-140.75
-135.90
-120.52
-97.01
-70.40
-47.21
-33.69
-33.74
-47.30
-70.19
-95.43
-115.67
-125.35
-122.01
-106.15
-80.24
-47.44
-10.78
27.14
63.99
97.58
125.88
147.28
161.02
167.45
168.00
164.77
159.80
154.38
148.66
141.91
133.16
122.01
109.12
96.05
84.53
75.57
68.89
63.06
56.13
46.68
34.57
21.25
9.25
1.42
-0.09
5.67
18.14
35.46
54.87
73.21
87.44
95.24
95.51
88.78
77.15
63.94
52.83
46.86
47.73
55.47
68.74
85.46
103.51
121.27
137.67
152.04
163.77
172.20
176.63
176.63
172.20
163.89
152.61
139.36
124.95
109.92
94.57
79.10
63.79
49.08
35.49
23.52
13.43
5.16
-1.74
-7.91
-14.02
-20.45
-27.17
-33.79
-39.82
-45.02
-49.47
-53.59
-57.80
-62.28
-66.85
-70.99
-74.12
-75.81
-75.79
-74.03
-70.57
-65.52
-59.02
-51.30
-42.67
-33.45
-24.00
-14.74
-6.14
1.25
6.98
10.88
13.16
14.32
14.92
15.34
15.66
15.65
15.07
13.78
11.89
9.70
7.53
5.65
4.10
2.76
1.38
-0.31
-2.49
-5.19
-8.26
-11.47
-14.60
-17.53
-20.30
-23.07
-26.05
-29.38
-33.05
-36.77
-39.95
-41.78
-41.47
-38.57
-33.21
-26.10
-18.30
-10.83
-4.36
1.00
5.53
9.66
13.69
17.60
21.10
23.79
25.32
25.60
24.74
23.02
20.85
18.61
16.62
15.12
14.12
13.43
12.66
11.31
9.02
5.69
1.64
-2.56
-6.28
-9.15
-11.19
-12.73
-14.26
-16.20
-18.79
-22.09
-26.08
-30.65
-35.62
-40.65
-45.22
-48.76
-50.76
-50.95
-49.34
-46.12
-41.52
-35.73
-28.87
-21.12
-12.89
-4.76
2.59
8.60
13.02
15.87
17.41
17.95
17.74
17.01
15.95
14.79
13.68
12.72
11.89
11.03
9.93
8.41
6.36
3.79
0.82
-2.35
-5.52
-8.52
-11.29
-13.85
-16.25
-18.55
-20.81
-23.16
-25.80
-28.91
-32.56
-36.57
-40.44
-43.54
-45.23
-45.21
-43.54
-40.61
-36.85
-32.52
-27.58
-21.77
-14.91
-7.08
1.19
9.00
15.45
19.93
22.44
23.55
24.08
24.71
25.58
26.29
26.20
24.84
22.26
19.06
16.11
14.12
13.29
13.25
13.23
12.42
10.35
6.94
2.59
-2.16
-6.77
-10.94
-14.70
-18.30
-22.07
-26.26
-30.96
-36.05
-41.26
-46.23
-50.53
-53.67
-55.21
-54.82
-52.34
-47.89
-41.81
-34.55
-26.59
-18.27
-9.87
-1.64
6.08
12.91
18.44
22.37
24.65
25.42
25.11
24.18
23.06
22.03
21.14
20.27
19.24
17.82
15.79
13.01
9.44
5.20
0.60
-3.92
-7.93
-11.16
-13.59
-15.46
-17.19
-19.20
-21.82
-25.28
-29.67
-35.03
-41.25
-48.05
-54.93
-61.15
-65.95
-68.65
-68.78
-66.13
-60.70
-52.54
-41.92
-29.35
-15.64
-1.82
11.06
22.10
30.72
36.66
40.10
41.45
41.22
39.96
38.17
36.29
34.61
33.23
32.07
31.14
30.40
29.73
28.87
27.53
25.53
22.85
19.69
16.39
13.77
12.43
12.24
12.38
11.76
9.64
5.91
0.92
-4.80
-9.75
-12.84
-13.98
-13.94
-13.52
-12.65
-10.35
-5.39
3.11
16.77
35.99
59.21
83.24
104.71
121.64
133.81
142.24
148.61
156.90
170.82
191.98
219.14
248.97
277.53
301.30
317.94
312.03
275.67
213.15
139.91
72.65
20.39
-16.47
-41.87
-60.06
-72.74
-80.46
-83.20
-82.74
-83.24
-89.48
-104.43
-127.97
-157.32
-184.54
-200.27
-197.19
-173.17
-132.27
-82.81
-34.32
5.06
29.86
37.58
28.84
6.49
-25.11
-60.35
-92.41
-114.22
-120.56
-110.27
-86.87
-57.37
-29.67
-10.01
-1.18
-2.09
-9.19
-18.61
-28.05
-37.33
-47.76
-60.73
-76.56
-94.35
-112.29
-128.34
-141.09
-149.93
-154.78
-155.47
-151.17
-140.73
-123.56
-100.36
-73.40
-46.06
-21.86
-3.81
5.41
3.27
-12.19
-41.09
-80.12
-122.03
-157.04
-175.82
-173.02
-149.58
-112.48
-72.24
-39.40
-21.01
-18.66
-28.46
-42.52
-51.71
-48.35
-28.22
8.46
57.37
111.47
162.81
204.41
231.63
242.92
240.08
227.53
210.77
194.52
181.26
170.95
161.88
152.11
140.45
126.60
110.50
91.84
70.14
45.45
18.83
-7.32
-29.60
-44.78
-50.73
-47.27
-36.18
-20.60
-3.98
10.94
22.85
31.93
39.29
46.08
52.81
59.08
63.97
66.70
67.10
65.74
63.44
60.70
57.36
52.72
45.95
36.76
25.62
13.65
2.12
-8.17
-17.06
-25.00
-32.53
-40.03
-47.34
-53.81
-58.75
-61.77
-62.92
-62.79
-62.08
-61.35
-61.07
-61.36
-62.00
-62.50
-62.10
-59.85
-54.95
-46.75
-35.17
-21.08
-5.79
9.48
23.92
37.09
48.83
58.47
64.93
66.83
61.99
49.45
30.13
6.35
-19.58
-46.25
-74.41
-105.30
-139.34
-177.41
-217.82
-256.61
-289.06
-311.75
-322.54
-322.15
-311.98
-293.94
-274.43
-259.88
-254.68
-260.03
-274.33
-292.83
-312.25
-329.70
-343.13
-355.75
-369.35
-382.06
-389.23
-386.79
-372.38
-350.15
-326.22
-276.96
-193.43
-83.48
32.48
135.18
204.86
249.62
277.69
294.80
304.73
307.80
303.66
293.87
281.68
270.34
263.54
261.41
264.13
272.66
285.72
302.44
322.34
344.47
366.56
386.44
399.86
404.07
390.70
355.13
301.15
239.71
183.06
138.93
109.86
92.66
81.97
72.97
60.15
40.52
14.59
-13.42
-36.67
-47.51
-41.63
-19.82
13.28
47.78
71.96
75.87
54.26
8.31
-54.24
-120.88
-176.93
-209.30
-210.25
-180.15
-128.10
-69.04
-18.44
12.58
19.42
3.09
-31.93
-79.64
-132.82
-183.32
-222.68
-244.30
-245.97
-231.15
-207.58
-183.55
-164.42
-150.61
-138.83
-124.86
-106.02
-82.02
-54.30
-24.66
5.53
35.36
64.18
91.58
117.28
141.45
164.45
186.69
207.91
226.35
238.31
238.35
220.69
181.40
120.76
44.61
-36.37
-109.50
-164.20
-195.15
-203.35
-194.30
-175.48
-153.45
-132.34
-113.84
-98.06
-84.59
-72.85
-62.08
-50.54
-36.62
-19.72
-0.91
17.27
31.74
39.80
40.69
35.73
29.19
25.26
26.16
32.05
41.90
54.53
68.42
82.30
94.49
105.71
116.60
126.78
134.59
137.24
132.21
118.45
99.80
84.51
85.84
113.04
165.33
231.16
293.16
336.43
353.89
349.47
313.44
246.20
158.18
65.95
-16.37
-81.83
-123.68
-144.98
-147.66
-134.66
-107.86
-71.23
-33.90
-3.92
13.71
18.21
11.41
-2.02
-16.93
-25.94
-22.97
-5.43
24.94
61.89
96.27
118.14
121.55
106.19
79.29
51.28
30.94
22.15
22.97
27.90
30.91
29.03
22.71
15.35
10.15
8.02
7.67
7.07
5.32
3.12
2.12
2.23
0.08
-11.01
-38.27
-84.92
-147.22
-214.25
-271.62
-306.88
-314.02
-294.49
-254.71
-202.33
-143.86
-84.59
-30.14
12.76
38.06
43.76
34.71
22.18
19.83
37.33
75.62
126.29
175.34
209.45
221.24
210.92
184.43
149.72
113.64
80.57
52.74
30.70
13.93
0.64
-12.62
-30.53
-57.39
-95.00
-141.27
-190.23
-234.46
-266.84
-282.84
-281.70
-266.01
-240.29
-209.06
-175.72
-142.19
-110.75
-82.96
-59.66
-41.26
-28.07
-20.62
-19.52
-24.95
-36.06
-52.35
-71.14
-87.94
-98.20
-99.52
-92.74
-81.66
-71.56
-67.53
-75.19
-96.17
-127.25
-161.55
-191.30
-210.57
-216.88
-211.22
-183.10
-132.41
-68.48
-5.14
47.30
85.21
109.45
122.48
126.60
127.13
127.83
133.34
148.02
173.80
208.52
246.44
277.85
294.55
288.34
257.17
209.28
159.34
120.39
97.39
86.91
81.29
73.90
62.32
44.68
21.10
-7.00
-36.96
-64.84
-85.82
-95.57
-91.82
-73.55
-45.42
-15.39
7.70
17.09
10.28
-10.55
-40.09
-72.29
-102.82
-130.35
-155.18
-177.76
-197.33
-211.65
-218.00
-215.00
-204.15
-189.80
-177.85
-172.72
-175.31
-182.53
-188.62
-187.63
-175.76
-152.63
-120.89
-84.89
-48.61
-14.36
17.57
48.32
79.63
112.82
148.05
183.88
217.13
243.55
258.94
260.73
249.32
228.73
205.77
187.97
181.01
186.68
202.55
223.04
241.35
251.32
248.63
231.48
201.21
162.68
124.19
96.02
87.53
103.71
142.46
194.43
245.63
282.16
294.64
280.65
244.22
193.00
134.72
74.78
15.63
-42.03
-97.46
-148.61
-192.06
-224.21
-242.99
-248.87
-244.72
-234.58
-222.18
-209.98
-199.56
-192.53
-191.43
-199.27
-217.74
-245.14
-275.50
-299.90
-309.68
-299.99
-271.70
-230.79
-185.38
-142.30
-104.65
-71.80
-40.88
-8.83
26.30
65.67
110.12
159.85
213.37
266.59
313.61
349.06
370.85
381.24
385.35
387.76
389.45
387.22
375.91
351.90
315.48
270.51
221.87
172.63
122.88
70.95
15.85
-40.81
-95.02
-142.15
-179.15
-206.04
-225.68
-242.38
-259.73
-278.71
-297.13
-310.44
-313.46
-302.63
-277.49
-240.96
-198.28
-155.26
-116.49
-84.36
-59.06
-39.28
-23.23
-9.59
2.24
12.11
19.22
22.21
19.24
8.41
-11.38
-39.23
-71.58
-102.65
-125.99
-136.53
-132.39
-115.25
-89.35
-59.63
-30.01
-2.51
22.54
45.76
67.89
89.19
109.27
127.12
141.28
150.03
151.64
144.80
128.93
104.73
74.38
41.64
11.27
-11.83
-23.86
-23.20
-10.95
9.31
32.37
52.64
65.39
67.78
59.54
43.21
23.44
5.55
-6.39
-10.84
-9.09
-3.97
1.93
7.60
13.85
22.09
33.02
45.48
56.95
64.54
66.60
63.48
57.29
51.03
47.16
46.59
48.18
49.37
47.49
41.17
31.10
19.73
10.27
5.62
8.05
19.49
41.57
75.13
118.99
168.81
217.39
256.58
280.06
285.60
275.37
254.40
228.25
201.29
176.34
155.09
138.84
128.29
123.15
121.75
121.36
119.40
114.42
106.77
98.13
90.69
86.06
84.65
85.53
86.65
85.35
79.06
65.94
45.37
18.28
-13.22
-46.42
-78.81
-108.98
-137.07
-164.73
-194.21
-227.13
-263.09
-299.16
-330.44
-351.61
-358.64
-350.02
-326.87
-292.18
-249.82
-203.79
-157.91
-115.36
-78.21
-46.76
-19.56
5.61
30.12
52.93
70.47
77.89
71.57
51.19
20.62
-12.84
-40.30
-53.42
-46.40
-17.40
30.74
90.76
152.56
205.76
242.36
258.70
255.67
237.35
209.14
176.06
142.09
110.16
82.37
59.79
41.98
26.89
11.74
-5.35
-23.93
-40.88
-51.68
-52.48
-41.85
-21.41
5.02
32.91
58.38
78.82
92.68
99.23
98.50
91.51
80.43
68.13
57.21
48.86
42.48
35.94
26.83
13.49
-4.36
-25.61
-48.23
-70.04
-89.17
-104.32
-114.91
-121.07
-123.64
-124.07
-124.13
-125.44
-128.98
-134.71
-141.64
-148.21
-152.91
-154.87
-154.13
-151.72
-149.34
-148.78
-151.16
-156.12
-161.39
-163.06
-156.72
-139.14
-109.75
-71.20
-28.63
12.08
46.24
71.69
88.74
99.28
105.36
108.10
107.65
103.47
95.17
82.94
67.49
49.87
31.08
11.94
-6.86
-24.56
-40.27
-53.13
-62.69
-69.19
-73.72
-77.83
-83.00
-90.07
-98.89
-108.54
-117.73
-125.30
-130.67
-133.85
-135.48
-136.69
-138.80
-142.97
-149.47
-157.15
-163.20
-163.86
-155.62
-136.75
-108.14
-73.18
-36.62
-3.18
23.54
41.40
49.45
47.80
37.57
21.08
1.78
-16.42
-30.26
-38.14
-40.48
-39.28
-36.94
-35.29
-35.09
-36.19
-38.16
-40.70
-43.73
-47.17
-50.63
-53.31
-54.36
-53.25
-50.34
-46.95
-45.06
-46.66
-52.95
-63.71
-76.97
-89.21
-96.06
-93.40
-78.66
-51.83
-15.60
25.32
65.82
102.03
132.23
156.86
177.34
194.60
208.00
215.09
212.34
196.33
164.99
118.92
62.21
2.66
-49.36
-83.46
-92.59
-75.89
-39.45
5.63
47.21
76.19
88.89
86.57
72.97
51.52
23.95
-8.98
-45.73
-82.62
-114.15
-135.02
-142.56
-138.03
-126.24
-113.40
-104.53
-101.73
-103.90
-107.70
-109.27
-105.43
-94.36
-75.65
-50.13
-19.70
12.65
43.18
67.95
83.71
88.82
83.43
69.37
49.30
25.73
0.40
-26.26
-55.25
-88.94
-130.51
-182.65
-245.89
-317.26
-390.02
-455.32
-504.88
-533.83
-542.20
-534.19
-515.98
-493.11
-468.87
-444.33
-419.37
-393.98
-368.54
-343.71
-319.64
-295.81
-271.25
-245.26
-217.95
-190.24
-163.73
-139.86
-119.35
-101.95
-86.58
-71.86
-56.69
-40.74
-24.50
-8.96
4.92
16.59
26.18
34.40
42.09
49.97
58.21
66.57
74.44
81.36
87.15
92.13
96.88
102.08
108.17
115.21
122.94
130.90
138.82
146.73
154.96
164.04
174.44
186.29
199.38
213.27
227.45
241.63
255.83
270.35
285.62
302.19
320.60
341.30
364.35
389.09
413.93
436.58
454.64
466.43
471.57
470.98
466.21
458.56
448.50
435.63
419.33
399.47
376.84
352.90
329.25
306.89
286.01
266.03
246.06
225.22
202.92
178.95
153.47
126.91
100.06
73.87
49.19
26.47
5.46
-14.78
-35.53
-57.94
-82.56
-108.98
-135.87
-161.22
-182.69
-198.02
-205.55
-204.66
-196.03
-181.60
-164.06
-146.18
-129.95
-116.10
-104.08
-92.47
-79.62
-64.15
-45.43
-23.69
-0.03
23.71
45.34
62.76
74.51
80.09
80.02
75.57
68.39
60.12
52.12
45.33
40.10
36.13
32.64
28.62
23.35
16.78
9.62
3.03
-1.91
-4.77
-5.84
-5.98
-6.06
-6.59
-7.58
-8.65
-9.52
-10.18
-11.16
-13.34
-17.70
-24.91
-34.95
-47.02
-59.59
-70.90
-79.47
-84.52
-86.05
-84.62
-80.97
-75.70
-69.26
-61.97
-53.93
-44.75
-33.34
-18.12
2.37
28.44
58.68
90.10
119.07
142.59
158.93
167.45
167.64
158.53
138.83
108.15
68.47
24.87
-15.27
-44.34
-57.08
-52.33
-33.50
-7.42
17.64
34.03
36.44
22.77
-5.86
-45.90
-92.63
-141.70
-190.00
-235.63
-277.05
-312.04
-337.29
-349.04
-344.63
-323.82
-289.06
-244.48
-194.07
-140.37
-84.49
-27.22
29.40
81.60
124.63
154.56
169.93
172.51
166.52
157.04
148.23
142.11
138.39
135.15
130.09
121.78
110.48
98.10
87.43
80.78
78.88
80.48
82.88
83.04
78.45
67.59
49.72
24.63
-7.26
-44.33
-83.35
-119.77
-149.08
-168.33
-177.19
-177.65
-172.46
-163.35
-150.06
-130.79
-103.60
-67.91
-25.03
22.78
73.87
128.22
186.93
250.26
315.30
375.14
420.29
442.04
436.01
403.90
352.59
291.10
227.25
165.84
109.02
57.97
14.46
-18.93
-39.97
-48.30
-46.22
-38.03
-28.48
-21.21
-17.95
-18.51
-21.45
-24.93
-27.43
-28.20
-27.44
-26.11
-25.51
-26.65
-29.98
-35.41
-42.56
-50.91
-59.83
-68.33
-74.95
-78.01
-76.15
-68.99
-57.33
-42.98
-28.12
-14.59
-3.53
4.64
10.05
13.05
14.01
13.29
11.23
8.24
4.74
1.23
-1.78
-3.83
-4.76
-4.87
-4.80
-5.42
-7.33
-10.63
-14.88
-19.28
-23.11
-25.97
-27.88
-29.20
-30.30
-31.41
-32.64
-34.13
-36.25
-39.61
-44.90
-52.53
-62.42
-73.90
-85.88
-97.21
-106.88
-114.19
-118.78
-120.55
-119.79
-117.26
-114.20
-112.18
-112.62
-116.36
-123.37
-132.89
-143.86
-155.66
-168.65
-184.18
-204.00
-229.10
-258.60
-289.40
-316.76
-335.77
-343.07
-337.86
-322.00
-298.99
-272.51
-245.43
-219.37
-195.11
-173.22
-154.38
-139.25
-128.08
-120.00
-113.52
-107.50
-100.81
-92.53
-82.46
-70.94
-58.51
-45.48
-31.50
-16.00
0.97
19.25
38.66
58.60
78.36
97.48
116.03
135.34
156.61
178.88
200.84
221.27
238.46
250.87
257.51
258.27
256.02
253.53
249.08
242.26
234.91
228.41
223.45
220.04
217.72
220.57
231.51
243.92
253.59
260.93
265.62
266.97
264.53
258.75
258.57
271.37
288.79
305.31
322.12
339.11
355.50
370.24
382.23
400.10
429.90
458.23
477.68
492.00
504.56
517.49
531.23
483.76
341.70
196.96
90.09
3.79
-64.32
-115.60
-151.63
-175.05
-189.67
-190.55
-175.75
-162.40
-160.67
-168.07
-181.09
-196.34
-211.75
-226.87
-234.88
-231.14
-225.71
-224.08
-223.83
-223.76
-224.13
-226.17
-231.06
-234.40
-232.01
-228.60
-226.44
-223.61
-219.57
-214.96
-211.00
-208.74
-206.35
-202.00
-198.31
-196.75
-196.59
-197.17
-197.48
-195.87
-190.39
-178.52
-159.10
-134.13
-106.34
-78.07
-51.35
-27.48
-7.10
9.47
21.95
30.16
34.27
35.03
33.66
31.50
29.51
28.05
26.90
25.66
24.05
22.08
19.98
17.96
16.05
14.07
11.72
8.81
5.27
1.24
-3.14
-7.77
-12.69
-18.08
-24.13
-30.95
-38.43
-46.11
-53.18
-58.53
-61.03
-59.84
-54.66
-45.93
-34.61
-21.90
-8.77
4.17
16.77
29.06
40.91
51.84
61.04
67.69
71.22
71.57
69.28
65.18
60.18
54.99
50.03
45.51
41.53
38.09
35.19
32.67
30.30
27.82
25.12
22.38
20.06
18.76
18.94
20.73
23.79
27.46
30.99
33.86
35.82
36.82
36.94
36.33
35.24
33.99
32.94
32.41
32.66
33.71
35.31
37.01
38.38
39.27
39.80
40.29
41.04
42.37
44.27
46.30
47.82
48.28
47.56
45.96
44.01
42.09
41.14
41.60
43.21
45.09
46.22
46.04
44.67
42.64
40.46
40.01
42.42
47.33
52.86
56.76
57.79
56.30
53.67
51.29
52.44
58.71
69.09
80.23
88.38
91.73
91.14
89.44
90.09
99.75
123.60
163.22
215.43
273.28
328.49
373.51
403.19
394.02
334.40
229.87
103.06
-19.12
-119.47
-193.97
-246.35
-281.34
-301.88
-305.78
-291.67
-262.38
-225.18
-189.26
-161.76
-145.42
-138.72
-138.62
-139.69
-138.12
-133.07
-126.46
-121.15
-119.18
-120.65
-123.48
-126.00
-125.89
-121.77
-113.81
-103.76
-94.26
-88.17
-86.87
-89.39
-93.83
-96.54
-93.31
-80.90
-58.12
-22.89
22.50
69.55
113.84
152.08
179.86
192.88
188.51
167.22
133.20
92.95
53.99
23.01
2.97
-6.51
-7.38
-1.88
8.03
20.33
32.05
39.86
41.17
34.03
18.06
-5.19
-32.90
-62.37
-92.15
-122.72
-155.68
-192.23
-232.41
-273.88
-311.59
-338.97
-350.00
-341.34
-313.61
-270.97
-219.28
-164.26
-109.61
-56.50
-4.36
47.50
98.65
147.10
190.14
225.53
252.26
270.57
281.18
284.37
279.54
265.81
243.22
213.85
181.99
152.99
131.34
118.92
114.38
113.82
112.62
107.06
95.41
78.03
56.96
35.14
15.60
0.74
-8.44
-12.74
-14.59
-17.24
-23.56
-34.93
-50.78
-68.83
-86.02
-99.57
-107.93
-111.36
-111.92
-112.62
-115.95
-122.14
-128.02
-127.37
-112.92
-79.74
-28.06
35.68
100.51
154.46
188.53
199.24
188.55
161.83
125.02
82.69
37.51
-8.74
-54.00
-95.31
-129.23
-152.96
-165.23
-166.51
-158.32
-142.24
-119.44
-90.75
-57.23
-20.81
15.54
48.22
73.77
89.59
94.44
88.51
73.41
51.92
27.52
3.64
-17.03
-33.07
-44.26
-51.06
-54.41
-55.61
-56.47
-58.83
-63.57
-69.34
-72.12
-66.43
-47.80
-15.44
26.80
71.73
111.87
142.46
162.61
174.23
179.80
180.49
175.87
164.99
147.66
125.17
99.95
74.81
52.23
33.93
20.73
12.33
7.30
3.39
-1.90
-10.31
-22.23
-36.57
-51.32
-64.25
-73.41
-77.41
-75.45
-67.48
-54.46
-38.44
-22.27
-8.91
-0.51
2.20
-0.02
-5.53
-12.71
-20.69
-29.53
-39.73
-51.53
-64.22
-76.12
-85.16
-89.95
-90.55
-88.53
-86.21
-85.45
-86.80
-89.34
-91.48
-92.05
-90.97
-89.10
-87.55
-86.78
-86.17
-84.49
-80.61
-74.36
-66.75
-59.69
-55.10
-54.13
-56.67
-61.36
-66.12
-68.87
-68.21
-63.85
-56.55
-47.81
-39.17
-31.67
-25.48
-19.98
-14.23
-7.45
0.45
8.80
16.50
22.49
26.22
27.83
27.91
27.19
26.11
24.70
22.74
20.01
16.46
12.32
7.91
3.44
-1.06
-5.80
-10.96
-16.56
-22.38
-27.97
-32.94
-37.14
-40.75
-44.27
-48.23
-53.02
-58.70
-65.05
-71.64
-77.88
-83.07
-86.40
-87.08
-84.55
-78.71
-70.06
-59.55
-48.27
-37.08
-26.40
-16.30
-6.74
2.17
10.03
16.32
20.64
22.94
23.55
23.05
22.01
20.79
19.54
18.22
16.82
15.39
14.10
13.12
12.52
12.23
12.02
11.62
10.78
9.31
7.16
4.36
1.03
-2.71
-6.66
-10.67
-14.55
-18.20
-21.58
-24.71
-27.69
-30.70
-33.99
-37.73
-41.96
-46.50
-50.92
-54.62
-56.87
-56.87
-53.87
-47.35
-37.17
-23.83
-8.37
7.88
23.57
37.68
49.48
58.43
63.97
65.51
62.81
56.27
47.13
37.25
28.49
22.12
18.48
17.11
17.19
17.93
18.75
19.35
19.52
19.16
18.24
16.93
15.55
14.43
13.78
13.51
13.31
12.66
11.12
8.42
4.52
-0.34
-5.70
-10.97
-15.46
-18.61
-19.99
-19.44
-17.02
-13.00
-7.73
-1.66
4.72
10.89
16.33
20.67
23.77
25.71
26.71
27.07
27.04
26.79
26.45
26.07
25.60
24.97
24.04
22.74
21.17
19.59
18.29
17.40
16.74
15.87
14.24
11.52
7.71
3.15
-1.60
-6.05
-9.90
-13.12
-15.89
-18.47
-21.07
-23.78
-26.56
-29.27
-31.81
-34.13
-36.29
-38.46
-40.85
-43.69
-47.15
-51.16
-55.31
-58.76
-60.37
-59.20
-54.84
-47.70
-38.84
-29.47
-20.26
-11.03
-1.00
10.63
23.93
37.91
50.70
60.34
65.47
65.91
62.58
57.06
50.95
45.47
41.18
38.11
35.99
34.52
33.45
32.66
32.08
31.58
31.03
30.28
29.20
27.72
25.86
23.63
21.13
18.49
15.87
13.35
10.83
8.05
4.68
0.50
-4.35
-9.33
-13.71
-16.79
-18.25
-18.17
-16.97
-15.14
-13.03
-10.80
-8.43
-5.71
-2.30
2.34
8.80
17.55
28.54
40.78
52.25
60.27
62.29
56.86
44.42
27.32
9.10
-6.69
-17.81
-23.79
-25.81
-25.80
-25.36
-25.13
-24.89
-24.10
-22.54
-20.62
-19.22
-19.11
-20.54
-23.10
-25.90
-28.10
-29.25
-29.49
-29.48
-30.00
-31.64
-34.48
-38.06
-41.63
-44.51
-46.49
-47.87
-49.35
-51.38
-53.89
-56.16
-57.09
-55.73
-51.79
-45.73
-38.55
-31.44
-25.32
-20.80
-18.23
-17.81
-19.73
-24.07
-30.69
-39.21
-49.02
-59.52
-70.39
-82.01
-95.69
-113.54
-137.66
-168.87
-205.68
-243.89
-277.56
-300.88
-310.31
-305.76
-290.41
-269.11
-246.40
-225.15
-206.23
-189.38
-174.19
-160.78
-149.72
-141.41
-135.63
-131.41
-127.52
-123.03
-117.71
-112.07
-106.96
-103.08
-100.56
-98.86
-97.02
-94.04
-89.24
-82.50
-74.20
-65.04
-55.68
-46.61
-37.98
-29.74
-21.67
-13.59
-5.34
3.12
11.75
20.41
28.84
36.76
43.87
50.08
55.52
60.65
66.05
72.25
79.51
87.61
96.00
103.98
111.07
117.19
122.78
128.59
135.51
144.43
156.02
170.48
187.16
204.27
218.93
227.93
228.84
221.17
206.79
189.35
172.97
160.72
153.82
151.72
153.07
156.58
161.63
168.11
175.87
184.29
192.17
198.10
200.99
200.45
196.83
191.00
183.94
176.37
168.55
160.38
151.61
142.20
132.45
123.02
114.64
107.76
102.28
97.57
92.72
86.92
79.78
71.44
62.44
53.38
44.73
36.60
28.82
21.07
13.02
4.42
-4.79
-14.45
-24.04
-32.73
-39.44
-43.07
-42.87
-38.56
-30.55
-19.68
-7.04
6.41
19.99
33.38
46.52
59.30
71.46
82.39
91.28
97.31
99.99
99.44
96.36
91.88
87.13
82.88
79.35
76.28
73.25
69.90
66.13
62.02
57.69
53.14
48.24
42.77
36.59
29.70
22.29
14.69
7.23
0.18
-6.40
-12.58
-18.65
-24.94
-31.76
-39.29
-47.48
-55.91
-63.81
-70.12
-73.63
-73.32
-68.73
-60.10
-48.34
-34.77
-20.63
-6.84
6.21
18.42
29.72
39.84
48.25
54.38
57.88
58.81
57.64
55.08
51.84
48.41
45.03
41.73
38.48
35.26
32.13
29.19
26.44
23.80
21.03
17.87
14.07
9.55
4.45
-0.92
-6.11
-10.79
-14.77
-18.17
-21.28
-24.48
-28.13
-32.48
-37.65
-43.57
-49.90
-55.97
-60.80
-63.32
-62.64
-58.39
-50.84
-40.80
-29.26
-17.10
-4.92
6.96
18.17
28.21
36.43
42.17
45.09
45.35
43.61
40.82
37.92
35.54
33.86
32.70
31.64
30.37
28.79
27.02
25.35
23.99
22.94
21.92
20.58
18.53
15.63
11.91
7.60
3.03
-1.55
-5.97
-10.23
-14.43
-18.79
-23.55
-28.90
-34.96
-41.59
-48.37
-54.56
-59.16
-61.19
-59.90
-55.10
-47.20
-37.11
-25.93
-14.65
-3.91
6.04
15.14
23.34
30.42
36.03
39.80
41.51
41.24
39.38
36.53
33.36
30.38
27.81
25.65
23.72
21.86
19.98
18.11
16.21
14.19
11.84
8.92
5.35
1.18
-3.32
-7.88
-12.27
-16.44
-20.43
-24.36
-28.35
-32.53
-37.03
-42.00
-47.49
-53.31
-58.89
-63.33
-65.59
-64.84
-60.71
-53.43
-43.71
-32.53
-20.77
-9.07
2.17
12.64
21.99
29.80
35.65
39.28
40.74
40.37
38.75
36.48
34.06
31.72
29.48
27.25
24.96
22.63
20.35
18.23
16.25
14.21
11.79
8.70
4.75
0.03
-5.13
-10.26
-14.90
-18.83
-22.09
-25.07
-28.32
-32.42
-37.69
-44.02
-50.84
-57.19
-62.01
-64.39
-63.85
-60.41
-54.47
-46.64
-37.52
-27.60
-17.25
-6.80
3.36
12.81
21.04
27.65
32.32
35.03
35.96
35.51
34.18
32.39
30.41
28.30
26.03
23.66
21.43
19.78
19.23
20.09
22.31
25.32
28.16
29.73
29.04
25.53
19.31
11.13
2.28
-5.78
-11.87
-15.45
-16.87
-17.23
-17.99
-20.43
-25.15
-31.84
-39.39
-46.32
-51.26
-53.40
-52.64
-49.47
-44.65
-38.81
-32.30
-25.18
-17.48
-9.49
-1.89
4.34
8.32
9.59
8.32
5.26
1.36
-2.51
-5.89
-8.66
-10.93
-12.79
-14.16
-14.84
-14.65
-13.63
-12.12
-10.74
-10.18
-10.99
-13.27
-16.67
-20.51
-24.11
-27.03
-29.32
-31.42
-33.98
-37.49
-42.14
-47.59
-53.08
-57.59
-59.99
-59.42
-55.41
-48.04
-37.92
-26.00
-13.30
-0.66
11.32
22.30
32.00
40.15
46.41
50.50
52.33
52.09
50.21
47.25
43.74
40.03
36.29
32.58
28.97
25.61
22.68
20.25
18.17
16.04
13.37
9.75
5.08
-0.38
-6.15
-11.71
-16.71
-21.12
-25.17
-29.30
-33.95
-39.47
-45.95
-53.05
-60.00
-65.65
-68.84
-68.65
-64.74
-57.45
-47.60
-36.19
-24.09
-11.86
0.20
11.85
22.78
32.49
40.44
46.20
49.67
51.08
50.92
49.74
47.95
45.74
43.13
40.09
36.72
33.27
30.09
27.50
25.61
24.23
22.87
20.93
17.95
13.75
8.56
2.86
-2.75
-7.82
-12.19
-15.97
-19.51
-23.28
-27.66
-32.80
-38.48
-43.97
-48.16
-49.75
-47.68
-41.48
-31.53
-18.83
-4.66
9.91
24.35
38.62
52.90
67.19
81.05
93.70
104.31
112.42
118.24
122.68
127.09
132.96
141.68
154.23
170.84
190.70
211.71
230.64
243.85
248.30
242.51
226.94
203.77
176.17
147.54
120.95
98.78
82.51
72.50
67.74
66.09
64.86
61.76
55.76
47.25
37.53
27.96
19.14
10.69
1.51
-9.76
-24.33
-43.07
-66.41
-94.02
-124.50
-155.42
-183.79
-206.98
-223.58
-233.67
-238.47
-239.46
-237.59
-233.06
-225.64
-215.35
-202.91
-189.74
-177.44
-167.20
-159.36
-153.45
-148.48
-143.44
-137.72
-131.31
-124.82
-119.01
-114.46
-111.22
-108.85
-106.74
-104.53
-102.35
-100.74
-100.33
-101.48
-104.15
-108.05
-112.84
-118.25
-123.88
-129.01
-132.50
-133.05
-129.64
-122.06
-110.99
-97.82
-84.01
-70.72
-58.62
-48.16
-39.77
-34.03
-31.41
-31.90
-34.68
-38.25
-40.94
-41.49
-39.54
-35.53
-30.22
-24.16
-17.31
-9.27
0.33
11.26
22.55
32.78
40.63
45.42
47.11
46.19
43.20
38.69
33.29
27.99
24.16
23.18
25.86
32.02
40.46
49.50
57.75
64.68
70.56
76.09
81.71
87.31
92.28
95.90
97.75
97.83
96.40
93.64
89.56
83.97
76.84
68.50
59.78
51.70
45.13
40.40
37.20
34.81
32.48
29.85
27.14
24.91
23.69
23.75
24.89
26.78
29.03
31.27
33.22
34.77
35.93
36.90
38.24
40.79
45.47
52.63
61.31
69.07
72.56
68.30
53.82
28.57
-5.84
-45.54
-85.30
-119.50
-142.83
-150.29
-138.86
-108.45
-62.60
-8.34
46.35
93.91
128.96
149.57
158.50
160.23
158.55
154.70
146.60
132.36
110.77
82.07
48.65
16.62
-8.06
-21.16
-21.10
-9.30
14.28
49.16
93.00
141.33
190.60
236.37
274.07
299.90
310.42
307.39
294.45
275.10
234.79
166.94
75.76
-24.32
-106.72
-170.49
-220.52
-260.99
-294.70
-320.24
-332.64
-328.53
-308.03
-274.80
-235.93
-195.39
-155.56
-117.86
-82.65
-47.42
-9.66
31.48
74.11
112.64
142.56
160.12
162.78
150.02
124.31
89.09
47.69
2.99
-42.85
-85.83
-121.74
-147.75
-163.27
-169.48
-169.15
-165.63
-161.78
-159.72
-159.55
-160.22
-160.33
-158.48
-153.52
-145.04
-133.46
-119.66
-104.36
-86.92
-65.42
-37.62
-2.35
39.13
82.76
122.75
153.46
171.41
176.37
171.01
159.56
146.02
132.96
121.26
110.76
101.10
92.33
84.90
79.26
75.47
73.10
71.56
70.47
69.76
69.38
68.93
67.41
63.49
56.28
45.92
33.95
22.87
15.10
12.11
13.99
19.65
27.35
35.06
40.68
42.25
38.44
29.16
15.82
0.91
-12.93
-24.15
-32.77
-40.13
-47.92
-57.23
-68.18
-80.13
-92.29
-104.09
-115.29
-125.73
-135.33
-144.17
-152.87
-162.39
-173.52
-186.20
-198.91
-208.84
-212.58
-207.36
-192.10
-168.01
-138.11
-106.21
-75.51
-47.75
-23.14
-1.13
18.59
35.57
48.61
56.60
59.22
57.39
52.94
47.97
44.13
42.26
42.50
44.59
48.29
53.45
59.94
67.45
75.35
82.73
88.54
91.89
92.36
90.11
85.89
80.75
75.75
71.53
68.24
65.57
63.01
60.19
57.05
53.88
50.99
48.49
46.11
43.24
39.25
33.84
27.20
19.95
12.90
6.63
1.33
-3.32
-7.95
-13.29
-19.92
-28.12
-37.76
-48.23
-58.59
-67.54
-73.78
-76.24
-74.39
-68.43
-59.13
-47.63
-35.05
-22.28
-9.86
1.84
12.48
21.60
28.71
33.44
35.72
35.85
34.40
32.05
29.38
26.70
24.06
21.39
18.57
15.62
12.73
10.13
7.97
6.12
4.23
1.84
-1.39
-5.47
-10.07
-14.65
-18.75
-22.18
-25.12
-28.03
-31.48
-35.94
-41.62
-48.34
-55.47
-62.00
-66.65
-68.25
-66.02
-59.89
-50.45
-38.82
-26.17
-13.44
-1.17
10.40
21.12
30.72
38.78
44.83
48.61
50.14
49.80
48.17
45.84
43.25
40.63
37.99
35.25
32.43
29.65
27.16
25.19
23.75
22.59
21.26
19.21
16.10
11.88
6.89
1.64
-3.34
-7.78
-11.69
-15.38
-19.31
-23.93
-29.49
-35.94
-42.87
-49.52
-54.90
-57.94
-57.82
-54.13
-46.99
-37.10
-25.49
-13.25
-1.22
10.08
20.38
29.54
37.27
43.24
47.10
48.76
48.48
46.83
44.50
42.04
39.72
37.50
35.19
32.61
29.78
26.86
24.11
21.69
19.55
17.44
15.00
11.88
7.97
3.45
-1.31
-5.89
-10.00
-13.56
-16.78
-20.01
-23.66
-28.06
-33.37
-39.49
-45.94
-51.88
-56.23
-57.98
-56.42
-51.47
-43.62
-33.74
-22.86
-11.79
-1.15
8.71
17.51
25.03
31.04
35.37
38.00
39.05
38.83
37.73
36.19
34.52
32.90
31.30
29.59
27.67
25.55
23.40
21.39
19.56
17.70
15.46
12.47
8.61
4.04
-0.83
-5.57
-9.88
-13.73
-17.30
-20.87
-24.67
-28.88
-33.57
-38.74
-44.24
-49.69
-54.41
-57.52
-58.10
-55.55
-49.74
-41.13
-30.59
-19.16
-7.78
2.91
12.47
20.63
27.14
31.71
34.21
34.73
33.68
31.70
29.45
27.41
25.72
24.21
22.58
20.62
18.30
15.79
13.33
11.04
8.87
6.63
4.07
1.06
-2.39
-6.17
-10.11
-14.09
-18.02
-21.95
-26.01
-30.46
-35.50
-41.15
-47.12
-52.66
-56.72
-58.22
-56.39
-51.05
-42.69
-32.27
-20.93
-9.68
0.77
9.97
17.68
23.70
27.88
30.21
30.79
29.98
28.22
26.04
23.85
21.98
20.54
19.57
18.95
18.49
17.93
16.95
15.26
12.63
8.98
4.45
-0.68
-6.02
-11.19
-15.91
-20.12
-23.95
-27.77
-32.00
-36.97
-42.71
-48.81
-54.42
-58.42
-59.78
-57.79
-52.35
-43.94
-33.49
-22.05
-10.57
0.31
10.29
19.30
27.31
34.20
39.73
43.57
45.50
45.58
44.11
41.58
38.49
35.22
31.96
28.78
25.74
22.89
20.31
17.96
15.68
13.14
10.04
6.20
1.64
-3.44
-8.70
-13.85
-18.69
-23.17
-27.49
-32.05
-37.30
-43.53
-50.54
-57.52
-63.16
-66.00
-64.95
-59.74
-50.92
-39.71
-27.42
-15.05
-3.19
7.98
18.40
27.91
36.20
42.93
47.89
51.02
52.52
52.68
51.85
50.33
48.41
46.26
44.01
41.70
39.30
36.80
34.17
31.37
28.30
24.80
20.69
15.88
10.46
4.68
-1.11
-6.64
-11.84
-16.89
-22.14
-28.01
-34.74
-42.28
-50.16
-57.47
-63.03
-65.65
-64.48
-59.31
-50.64
-39.47
-27.03
-14.42
-2.37
8.73
18.73
27.52
34.95
40.78
44.84
47.09
47.67
46.92
45.25
43.04
40.55
37.94
35.24
32.45
29.59
26.78
24.10
21.63
19.25
16.68
13.57
9.60
4.74
-0.73
-6.24
-11.25
-15.45
-19.02
-22.46
-26.43
-31.40
-37.45
-44.23
-51.07
-57.09
-61.35
-63.00
-61.40
-56.26
-47.81
-36.79
-24.28
-11.44
0.81
11.89
21.49
29.47
35.63
39.83
41.99
42.29
41.10
38.90
36.10
33.02
29.88
26.85
24.14
21.94
20.31
19.07
17.85
16.19
13.76
10.44
6.36
1.86
-2.68
-6.95
-10.87
-14.56
-18.35
-22.60
-27.66
-33.58
-40.09
-46.53
-51.98
-55.37
-55.70
-52.38
-45.36
-35.25
-23.11
-10.17
2.42
13.87
23.75
31.89
38.22
42.65
45.09
45.60
44.39
41.85
38.49
34.80
31.19
27.92
25.12
22.81
21.03
19.70
18.60
17.29
15.23
12.07
7.71
2.48
-2.98
-7.87
-11.67
-14.58
-17.42
-21.24
-26.78
-34.08
-42.54
-51.03
-58.10
-62.43
-63.27
-60.55
-54.77
-46.68
-37.08
-26.72
-15.91
-4.15
9.79
27.09
47.96
70.90
92.76
109.28
116.55
111.33
93.85
69.46
46.67
32.36
28.30
31.64
37.73
42.82
44.21
41.85
36.18
27.34
15.66
2.75
-8.12
-13.05
-9.46
4.94
27.60
52.40
72.03
80.74
76.15
59.55
34.57
5.52
-23.48
-48.92
-67.50
-76.32
-73.60
-59.48
-36.31
-8.31
19.71
43.77
61.92
74.80
85.20
96.63
111.78
131.28
153.49
175.17
192.87
204.11
208.11
205.54
197.73
185.87
170.87
153.59
135.31
117.80
102.82
91.55
84.04
79.07
74.61
68.63
59.88
48.38
35.32
22.42
11.18
2.11
-5.46
-13.15
-22.89
-36.31
-54.28
-76.57
-101.69
-126.87
-148.41
-162.58
-166.81
-160.72
-146.43
-127.74
-108.75
-92.22
-79.06
-68.60
-59.73
-51.82
-45.05
-39.92
-36.63
-34.94
-34.57
-35.91
-40.22
-48.87
-62.17
-78.32
-93.55
-103.53
-105.26
-98.51
-85.84
-71.38
-58.86
-50.28
-45.74
-44.23
-44.76
-46.98
-50.96
-56.52
-62.70
-67.83
-70.21
-68.91
-64.33
-58.12
-52.62
-49.87
-50.78
-54.64
-59.29
-62.01
-60.52
-54.00
-43.21
-30.08
-16.79
-4.94
4.74
12.19
17.42
20.22
20.26
17.45
12.50
6.93
2.61
0.98
2.33
5.54
8.45
8.76
5.09
-2.29
-11.33
-18.99
-22.42
-20.29
-13.41
-4.47
3.01
6.07
3.35
-4.64
-15.99
-28.27
-39.38
-48.03
-53.66
-56.18
-55.71
-52.62
-47.56
-41.65
-36.11
-31.74
-28.34
-24.51
-18.21
-7.83
6.67
23.42
39.18
50.78
56.46
56.43
52.43
46.50
39.96
33.02
25.10
15.65
4.65
-7.35
-19.49
-30.95
-40.99
-48.81
-53.57
-54.57
-51.63
-45.44
-37.45
-29.37
-22.39
-16.80
-12.03
-7.31
-2.35
2.30
5.56
6.49
4.98
2.01
-0.81
-2.12
-1.53
-0.00
0.66
-1.23
-6.28
-13.60
-21.13
-26.42
-27.70
-24.45
-17.53
-8.81
-0.56
5.19
7.15
5.21
0.61
-4.38
-7.18
-5.92
-0.30
8.17
16.76
22.69
24.23
21.29
15.13
7.61
0.35
-5.66
-10.08
-13.07
-15.12
-17.04
-19.82
-24.24
-30.38
-37.20
-42.76
-44.94
-42.47
-35.60
-26.15
-16.65
-9.19
-4.49
-1.67
1.13
5.80
13.32
23.44
34.96
46.26
55.81
62.32
64.82
62.81
56.57
47.47
37.80
30.16
26.53
27.43
31.76
37.24
41.36
42.20
38.91
31.62
21.15
8.66
-4.54
-17.13
-27.96
-36.27
-42.02
-45.83
-48.84
-52.22
-56.83
-62.87
-69.64
-75.79
-79.48
-79.15
-74.02
-64.53
-52.18
-39.04
-26.96
-17.09
-9.72
-4.62
-1.51
-0.32
-1.17
-3.95
-8.12
-12.62
-16.20
-17.94
-17.62
-15.86
-13.97
-13.52
-15.78
-21.07
-28.39
-35.51
-39.75
-39.08
-33.19
-23.86
-14.45
-8.79
-9.83
-18.72
-34.71
-55.66
-78.82
-101.55
-121.78
-138.14
-150.19
-158.38
-163.88
-168.04
-171.50
-173.59
-172.19
-164.30
-147.01
-118.56
-78.97
-30.24
23.93
78.67
128.69
169.24
197.02
210.93
212.32
204.50
191.69
177.78
165.41
155.68
148.41
142.78
137.86
132.99
127.97
123.00
118.51
114.95
112.48
110.84
109.35
106.96
102.41
94.45
82.06
64.84
43.36
19.35
-4.58
-25.67
-41.98
-53.02
-59.78
-64.05
-67.43
-70.52
-72.68
-72.43
-68.11
-58.65
-43.91
-24.77
-2.94
19.31
39.48
55.11
64.14
65.30
58.45
44.75
26.60
7.12
-10.45
-23.61
-31.28
-33.98
-33.63
-32.68
-33.05
-35.25
-38.19
-39.65
-37.51
-30.74
-19.98
-7.31
4.56
13.06
16.33
13.21
3.19
-13.49
-35.48
-60.14
-83.91
-103.19
-115.73
-121.39
-122.06
-120.48
-118.79
-117.43
-115.04
-109.40
-98.83
-83.36
-65.05
-47.71
-35.85
-33.47
-42.87
-63.74
-92.91
-124.79
-152.65
-170.43
-174.18
-162.88
-138.15
-103.12
-61.02
-14.24
35.79
87.93
140.38
190.21
233.61
266.96
287.93
296.13
293.13
281.65
264.53
243.91
220.92
196.09
169.84
143.02
116.93
92.94
72.03
54.31
39.03
25.00
11.25
-2.16
-13.77
-21.08
-21.63
-14.26
0.10
18.48
36.96
52.14
62.23
67.44
69.32
69.77
70.12
70.79
71.48
71.59
70.48
67.60
62.46
54.76
44.73
33.36
22.32
13.43
7.96
5.99
6.47
7.68
8.05
6.74
3.79
-0.22
-4.68
-9.29
-14.04
-19.07
-24.44
-30.13
-36.13
-42.56
-49.67
-57.67
-66.59
-76.24
-86.28
-96.26
-105.58
-113.26
-118.01
-118.47
-113.80
-104.32
-91.68
-78.48
-67.37
-60.16
-57.47
-59.16
-65.10
-75.78
-92.09
-114.19
-140.29
-166.13
-185.69
-192.97
-184.01
-158.08
-117.68
-67.42
-12.75
40.67
87.19
121.23
137.85
133.97
109.64
68.79
18.70
-31.70
-74.18
-103.17
-116.63
-115.65
-103.04
-81.82
-54.34
-22.34
12.44
47.67
80.52
108.34
129.49
143.82
152.10
155.18
153.60
148.20
141.12
136.54
139.47
153.38
177.66
206.98
233.14
248.68
250.03
238.51
218.76
196.09
174.39
155.72
141.30
132.44
130.48
135.72
146.19
157.51
164.11
161.36
147.45
123.89
94.64
64.22
36.03
11.64
-9.05
-26.82
-42.01
-53.94
-61.19
-62.32
-56.82
-45.48
-30.24
-13.60
2.03
14.62
22.66
25.21
22.10
14.08
2.86
-9.32
-20.29
-28.65
-34.05
-37.23
-39.60
-42.72
-47.76
-54.96
-63.44
-71.51
-77.37
-79.98
-79.82
-78.78
-79.42
-83.74
-92.24
-103.74
-116.01
-126.84
-134.96
-140.20
-143.15
-144.60
-144.98
-144.25
-141.92
-137.29
-129.66
-118.58
-104.01
-86.51
-67.21
-47.73
-29.97
-15.74
-6.36
-2.33
-3.15
-7.45
-13.34
-19.05
-23.38
-25.97
-27.02
-27.01
-26.21
-24.72
-22.53
-19.93
-17.48
-15.85
-15.55
-16.74
-19.21
-22.67
-26.93
-31.96
-37.75
-44.11
-50.58
-56.49
-61.31
-64.88
-67.60
-70.29
-73.78
-78.57
-84.30
-89.71
-92.88
-91.78
-84.92
-71.85
-53.32
-31.00
-6.91
17.01
39.29
58.87
74.91
86.68
93.54
95.16
91.72
83.95
73.07
60.53
47.74
35.98
26.28
19.36
15.43
14.00
13.82
13.05
9.83
2.82
-8.27
-22.62
-38.63
-54.51
-68.75
-80.48
-89.45
-95.96
-100.76
-104.93
-109.62
-115.72
-123.33
-131.35
-137.63
-139.52
-134.81
-122.46
-102.81
-77.31
-47.89
-16.49
15.10
45.13
71.74
93.08
107.71
115.15
116.02
111.94
104.96
96.84
88.60
80.41
71.83
62.39
52.02
41.19
30.74
21.36
13.24
5.92
-1.43
-9.51
-18.51
-27.92
-36.79
-44.20
-49.67
-53.43
-56.39
-59.90
-65.25
-73.44
-84.77
-98.66
-113.70
-127.70
-137.97
-141.69
-136.70
-122.17
-99.20
-70.75
-40.81
-13.18
9.73
27.33
40.41
50.15
57.22
61.46
62.38
59.78
54.39
47.64
41.03
35.45
30.90
26.72
22.18
17.01
11.47
6.07
1.23
-3.12
-7.58
-12.92
-19.82
-28.43
-38.44
-49.10
-59.68
-69.66
-79.03
-88.20
-97.82
-108.34
-119.55
-130.32
-138.64
-142.10
-138.62
-127.06
-107.43
-80.69
-48.17
-11.21
28.99
71.03
113.05
152.59
186.96
213.88
232.08
241.53
243.33
239.16
230.76
219.61
206.87
193.49
180.31
168.12
157.49
148.63
141.36
135.27
129.89
125.04
120.72
116.93
113.35
109.16
103.25
94.67
83.19
69.61
55.63
43.47
35.22
32.25
34.91
42.33
52.83
64.35
74.99
83.58
89.87
94.44
98.36
102.84
108.90
117.35
128.75
143.37
161.01
180.60
199.95
215.86
224.72
223.52
210.92
187.92
157.68
124.77
93.67
67.54
47.50
32.76
21.46
11.73
2.50
-6.28
-13.98
-19.88
-23.68
-25.59
-26.30
-26.64
-27.40
-29.20
-32.62
-38.11
-46.12
-56.74
-69.60
-83.72
-97.76
-110.43
-121.01
-129.64
-136.98
-143.60
-149.19
-152.31
-150.90
-143.38
-129.67
-111.58
-92.26
-74.85
-61.37
-52.25
-46.70
-43.67
-42.58
-43.37
-46.08
-50.19
-54.42
-57.12
-56.99
-53.73
-48.17
-41.92
-36.64
-33.42
-32.46
-33.22
-34.83
-36.51
-37.80
-38.71
-39.58
-40.95
-43.53
-48.05
-55.11
-64.81
-76.53
-88.82
-99.83
-108.07
-113.12
-115.88
-118.09
-121.38
-126.43
-132.60
-138.28
-141.65
-141.56
-138.11
-132.72
-127.80
-126.16
-130.09
-140.63
-156.72
-174.99
-190.22
-196.64
-189.43
-166.23
-127.95
-79.03
-26.53
21.20
56.82
76.22
80.10
74.07
67.00
68.18
84.17
116.48
161.04
209.70
253.08
283.56
297.13
293.68
275.80
247.10
210.95
170.00
126.54
82.98
42.06
6.40
-22.07
-42.62
-55.47
-61.32
-60.70
-53.99
-41.67
-24.89
-5.49
14.20
31.78
45.22
53.01
54.33
49.28
39.00
25.64
11.94
0.29
-8.12
-13.67
-18.14
-23.66
-31.62
-41.99
-53.30
-63.44
-70.59
-74.02
-74.18
-72.40
-70.11
-68.38
-67.55
-67.39
-67.36
-67.03
-66.45
-66.18
-67.26
-70.81
-77.60
-87.43
-98.77
-108.76
-113.76
-110.36
-96.49
-72.29
-40.11
-3.82
32.46
65.53
93.70
116.74
135.17
149.46
159.60
165.10
165.30
159.95
149.32
134.31
116.15
96.23
75.76
55.67
36.52
18.39
1.03
-16.07
-33.43
-51.41
-70.03
-89.07
-108.16
-126.96
-145.50
-164.30
-184.35
-206.62
-231.32
-257.19
-281.23
-299.37
-307.88
-304.84
-291.00
-269.39
-243.99
-217.92
-192.46
-166.92
-139.59
-108.88
-74.12
-35.85
4.46
44.69
82.44
115.28
141.20
159.33
170.45
176.88
181.73
187.51
195.01
202.86
208.19
207.74
199.23
182.08
157.72
129.08
99.86
73.65
53.16
39.87
34.09
35.30
42.53
54.59
70.04
86.93
102.80
114.88
120.80
119.19
109.86
93.58
71.69
46.07
19.43
-4.58
-21.85
-29.28
-26.22
-15.15
-0.93
11.41
18.81
21.49
22.45
25.79
34.65
49.89
69.89
91.43
110.89
125.21
132.63
132.80
126.79
116.70
105.12
94.42
86.27
81.46
80.05
81.53
84.95
88.93
91.86
92.33
89.72
84.61
78.64
73.73
71.07
70.28
69.54
66.47
59.43
48.21
34.01
18.65
3.82
-9.09
-18.66
-22.87
-19.27
-6.02
16.91
46.82
78.69
106.81
126.72
136.60
137.29
131.16
120.56
106.94
90.89
72.79
53.63
35.03
18.74
5.82
-3.86
-11.51
-18.72
-26.65
-35.58
-44.97
-53.94
-61.91
-68.72
-74.60
-79.77
-84.25
-87.76
-89.96
-90.64
-89.90
-88.18
-86.11
-84.50
-84.02
-85.01
-87.19
-89.63
-90.93
-89.63
-84.82
-76.47
-65.47
-53.26
-41.20
-30.22
-20.72
-12.80
-6.66
-2.64
-1.11
-2.10
-5.11
-9.08
-12.82
-15.48
-16.89
-17.60
-18.68
-21.20
-25.88
-32.75
-41.22
-50.20
-58.43
-64.81
-68.68
-69.86
-68.65
-65.64
-61.52
-56.97
-52.55
-48.68
-45.51
-42.89
-40.53
-38.27
-36.22
-34.90
-34.82
-35.99
-37.55
-37.89
-35.22
-28.51
-18.00
-5.20
7.82
19.27
28.25
34.74
39.26
42.26
43.90
44.03
42.30
38.51
32.68
25.23
16.93
8.87
2.15
-2.42
-4.59
-4.81
-3.98
-3.20
-3.38
-5.03
-8.13
-12.22
-16.49
-20.05
-22.35
-23.49
-24.35
-26.33
-30.67
-37.83
-47.08
-56.78
-65.08
-70.74
-73.55
-74.38
-74.55
-75.17
-76.50
-77.82
-77.68
-74.66
-68.23
-59.19
-49.61
-41.99
-38.15
-38.32
-41.00
-43.81
-44.68
-43.02
-39.94
-37.71
-38.68
-44.61
-56.28
-73.32
-94.16
-115.79
-133.68
-142.40
-137.15
-115.69
-79.92
-35.92
7.92
43.91
68.10
81.60
89.65
98.98
114.69
138.25
167.31
197.09
222.42
239.42
246.20
242.74
230.27
210.73
186.64
160.94
136.59
116.08
100.77
90.41
83.35
77.19
69.88
60.55
49.83
39.52
31.55
27.01
25.54
25.42
24.34
20.29
12.28
0.67
-13.06
-26.76
-38.22
-45.80
-48.91
-48.29
-45.71
-43.52
-43.76
-47.54
-54.59
-63.52
-72.32
-79.07
-82.54
-82.50
-79.70
-75.56
-71.70
-69.33
-68.94
-70.18
-72.14
-73.85
-74.63
-74.25
-72.73
-70.14
-66.39
-61.27
-54.59
-46.29
-36.51
-25.55
-13.95
-2.53
7.55
14.96
18.62
18.21
14.41
8.74
2.97
-1.62
-4.67
-6.72
-8.61
-10.84
-13.18
-14.69
-14.35
-11.57
-6.66
-0.67
4.93
8.74
9.77
7.69
2.84
-3.82
-10.96
-17.20
-21.55
-23.64
-23.85
-22.93
-21.69
-20.53
-19.35
-17.74
-15.30
-11.93
-7.86
-3.54
0.59
4.30
7.70
11.13
15.15
20.15
26.11
32.33
37.46
39.99
38.78
33.70
25.84
17.17
9.79
5.09
3.30
3.52
4.37
4.71
4.12
2.99
2.05
1.83
2.24
2.63
2.19
0.46
-2.52
-6.28
-10.26
-14.02
-17.27
-19.74
-21.12
-21.16
-19.87
-17.68
-15.31
-13.28
-11.63
-9.63
-6.18
-0.52
7.12
15.22
21.46
23.57
20.43
12.55
1.94
-8.78
-17.33
-22.38
-23.70
-21.80
-17.59
-12.17
-6.81
-2.90
-1.80
-4.38
-10.62
-19.46
-29.11
-37.59
-43.48
-46.24
-46.33
-44.87
-43.29
-42.97
-44.85
-49.24
-55.70
-62.99
-69.39
-73.05
-72.53
-67.22
-57.46
-44.43
-29.74
-14.93
-1.08
11.28
22.05
31.28
38.81
44.14
46.53
45.17
39.60
30.06
17.55
3.72
-9.67
-21.31
-30.87
-38.92
-46.65
-55.17
-65.15
-76.62
-89.20
-102.39
-115.88
-129.53
-143.20
-156.69
-169.81
-182.63
-195.66
-209.73
-225.38
-242.09
-257.85
-269.37
-273.09
-266.45
-249.00
-222.51
-190.28
-155.83
-121.75
-89.27
-58.45
-28.87
-0.12
28.14
56.54
86.00
117.43
150.91
184.99
216.58
241.82
257.39
261.88
256.44
244.42
230.22
217.95
210.32
208.08
210.17
214.09
216.43
213.51
202.12
180.48
149.06
110.91
71.12
35.48
8.66
-7.42
-14.23
-16.13
-18.88
-27.53
-44.68
-69.60
-98.63
-126.51
-148.25
-160.33
-161.56
-152.64
-135.32
-111.42
-82.15
-47.84
-8.15
37.50
89.05
144.87
201.15
252.03
290.68
311.44
311.89
294.02
263.78
229.18
197.92
175.55
164.60
164.61
172.47
183.02
189.83
186.43
167.95
132.57
82.04
21.17
-43.71
-106.09
-160.43
-202.55
-229.83
-241.50
-239.05
-226.23
-208.38
-191.02
-178.26
-171.54
-169.56
-169.04
-166.15
-157.87
-142.67
-120.66
-93.03
-61.44
-27.54
7.19
41.47
74.00
103.45
128.47
147.92
161.05
167.66
168.18
163.61
155.41
145.25
134.66
124.65
115.60
107.29
99.27
91.19
83.08
75.24
68.02
61.58
55.77
50.14
44.19
37.48
29.78
21.12
11.77
2.21
-6.98
-15.33
-22.58
-28.88
-34.73
-40.89
-48.14
-57.07
-67.81
-79.83
-91.82
-101.69
-107.01
-105.52
-95.82
-77.87
-53.06
-23.86
6.87
36.68
64.06
88.42
109.77
128.16
143.23
154.21
160.31
161.17
157.25
149.79
140.38
130.42
120.76
111.61
102.82
94.18
85.57
76.98
68.39
59.71
50.75
41.37
31.44
20.85
9.47
-2.79
-15.87
-29.43
-42.82
-55.27
-66.08
-74.89
-81.72
-86.89
-90.94
-94.52
-98.20
-102.35
-106.77
-110.61
-112.33
-110.16
-102.68
-89.44
-71.15
-49.47
-26.42
-3.77
17.37
36.44
53.15
67.18
77.91
84.66
87.00
85.06
79.64
72.08
63.97
56.65
50.96
46.97
44.24
42.01
39.59
36.56
32.82
28.36
23.11
16.83
9.19
0.12
-10.05
-20.45
-29.98
-37.61
-42.87
-45.90
-47.38
-48.28
-49.51
-51.88
-56.07
-62.46
-70.99
-80.80
-90.17
-96.79
-98.42
-93.65
-82.48
-66.21
-46.90
-26.63
-6.90
11.51
28.30
43.24
55.96
65.86
72.37
75.19
74.48
70.87
65.39
59.19
53.27
48.24
44.18
40.79
37.55
34.02
30.08
25.94
21.98
18.53
15.58
12.74
9.35
4.61
-2.00
-10.53
-20.42
-30.66
-40.11
-47.92
-53.80
-58.16
-61.81
-65.68
-70.39
-76.04
-82.01
-87.02
-89.33
-87.19
-79.33
-65.44
-46.38
-23.98
-0.33
23.02
45.52
67.66
90.26
113.63
136.85
157.48
172.07
176.98
169.54
149.04
117.36
78.91
39.58
5.25
-19.95
-34.78
-40.86
-41.60
-40.65
-40.46
-41.97
-45.01
-49.13
-54.27
-60.59
-68.01
-75.75
-82.35
-86.30
-86.83
-84.38
-80.34
-76.46
-74.00
-73.38
-74.32
-76.35
-79.28
-83.36
-88.78
-95.01
-100.40
-102.17
-97.17
-82.85
-58.13
-23.88
17.11
60.61
101.57
134.95
156.73
164.70
159.13
142.72
119.77
94.87
71.61
51.75
35.35
21.49
9.18
-2.11
-12.34
-21.17
-28.39
-33.99
-38.17
-41.16
-43.07
-43.99
-44.02
-43.50
-43.04
-43.47
-45.67
-50.19
-56.95
-65.08
-73.17
-79.75
-83.95
-85.91
-86.72
-87.99
-91.12
-96.90
-105.06
-114.45
-123.10
-128.60
-128.58
-121.18
-105.61
-82.50
-53.79
-22.23
9.51
39.57
67.19
92.51
115.83
136.91
154.63
167.20
172.75
170.23
159.83
143.09
122.35
100.14
78.46
58.69
41.55
27.44
16.63
9.23
5.04
3.41
3.30
3.52
3.08
1.38
-1.77
-6.31
-12.13
-19.26
-27.77
-37.61
-48.40
-59.39
-69.68
-78.55
-85.84
-92.03
-98.09
-105.04
-113.58
-123.89
-135.46
-147.01
-156.52
-161.49
-159.47
-148.69
-128.75
-100.83
-67.32
-31.03
5.54
40.54
72.67
100.77
123.55
139.76
148.65
150.39
146.19
137.94
127.68
117.04
107.09
98.20
90.29
82.91
75.50
67.59
58.85
49.30
39.19
28.97
19.06
9.83
1.49
-5.91
-12.52
-18.68
-24.89
-31.65
-39.28
-47.70
-56.36
-64.42
-71.04
-75.84
-79.09
-81.74
-85.12
-90.52
-98.61
-109.00
-119.95
-128.56
-131.35
-125.40
-109.32
-83.95
-52.16
-17.93
15.07
44.47
69.66
91.32
110.54
128.02
143.68
156.77
166.20
170.99
170.47
164.51
153.65
139.06
122.37
105.22
88.96
74.33
61.64
51.00
42.54
36.45
32.68
30.76
29.81
28.86
27.46
25.90
25.14
26.22
29.57
34.64
39.92
43.47
43.67
39.78
32.12
21.91
10.71
-0.02
-9.25
-16.50
-21.79
-25.51
-28.22
-30.55
-33.02
-35.96
-39.36
-42.93
-46.11
-48.23
-48.66
-46.96
-42.97
-36.80
-28.83
-19.73
-10.46
-2.16
4.02
7.28
7.35
4.66
0.24
-4.66
-8.97
-12.11
-14.11
-15.52
-17.15
-19.74
-23.75
-29.29
-36.04
-43.42
-50.72
-57.29
-62.63
-66.56
-69.19
-70.83
-71.86
-72.57
-73.04
-73.18
-72.85
-72.03
-70.97
-70.14
-70.04
-70.97
-72.93
-75.62
-78.54
-81.04
-82.30
-81.36
-77.30
-69.57
-58.29
-44.42
-29.43
-14.90
-1.97
8.89
17.78
24.98
30.67
34.78
37.17
37.84
37.04
35.21
32.83
30.27
27.76
25.45
23.38
21.60
20.07
18.67
17.21
15.40
12.92
9.49
4.89
-0.93
-7.85
-15.58
-23.73
-31.84
-39.55
-46.69
-53.29
-59.65
-66.25
-73.71
-82.58
-93.28
-105.92
-120.44
-136.62
-154.30
-173.49
-194.09
-215.56
-236.55
-254.68
-267.00
-270.78
-264.48
-248.36
-224.42
-195.86
-166.20
-138.56
-115.01
-96.63
-83.64
-75.51
-70.93
-67.53
-62.50
-53.25
-38.54
-19.02
2.93
24.09
41.74
54.78
64.33
72.72
82.21
93.81
106.95
119.92
130.61
137.45
139.95
139.83
139.34
140.15
142.55
145.58
147.58
146.81
142.06
132.79
120.96
108.34
95.46
81.59
66.08
49.66
34.51
23.31
18.13
22.76
38.73
64.52
96.16
129.43
161.69
191.98
220.37
247.09
276.10
310.10
348.73
388.49
424.90
454.69
476.42
490.20
471.62
407.83
303.26
178.71
57.69
-45.38
-126.56
-188.21
-234.37
-268.74
-290.24
-297.94
-293.45
-281.21
-266.46
-253.39
-244.43
-239.96
-238.78
-236.28
-228.60
-214.63
-196.04
-175.68
-155.88
-137.79
-120.57
-100.98
-75.53
-40.98
3.73
57.32
117.39
181.72
239.58
280.69
298.63
292.30
264.73
220.54
164.69
102.43
39.14
-14.93
-60.25
-98.06
-129.40
-154.66
-173.47
-184.54
-186.36
-178.10
-161.75
-140.20
-115.83
-91.09
-67.87
-47.18
-28.79
-11.41
6.71
26.86
49.17
72.76
94.34
108.55
109.58
93.23
58.73
9.26
-48.89
-108.02
-160.24
-199.58
-222.70
-228.70
-218.66
-195.03
-161.49
-122.55
-83.02
-46.84
-16.55
7.31
26.18
42.88
60.33
80.24
102.30
124.13
142.43
154.32
158.42
155.24
146.73
135.29
122.85
110.30
97.72
84.72
71.05
56.90
42.90
29.87
18.45
8.90
1.07
-5.55
-11.55
-17.45
-23.60
-30.18
-37.17
-44.43
-51.62
-58.22
-63.40
-66.17
-65.57
-60.96
-52.26
-40.08
-25.53
-9.95
5.52
20.12
33.49
45.52
56.11
64.93
71.50
75.32
76.10
73.98
69.58
63.87
57.89
52.50
48.17
44.97
42.61
40.62
38.50
35.82
32.25
27.58
21.80
15.08
7.81
0.53
-6.29
-12.41
-17.92
-23.28
-29.09
-35.94
-44.09
-53.32
-62.88
-71.57
-78.02
-81.05
-79.99
-74.81
-66.09
-54.76
-41.75
-27.82
-13.45
1.03
15.25
28.72
40.88
51.18
59.25
64.95
68.35
69.67
69.18
67.23
64.19
60.50
56.66
53.12
50.19
47.96
46.23
44.60
42.54
39.58
35.45
30.12
23.87
17.13
10.37
3.95
-2.02
-7.71
-13.47
-19.69
-26.61
-34.18
-41.97
-49.19
-54.85
-57.95
-57.73
-53.86
-46.55
-36.45
-24.48
-11.60
1.42
13.97
25.69
36.23
45.28
52.49
57.57
60.40
61.09
59.99
57.61
54.46
50.92
47.22
43.42
39.56
35.74
32.11
28.79
25.78
22.87
19.69
15.84
11.09
5.46
-0.74
-7.08
-13.09
-18.52
-23.32
-27.71
-32.05
-36.72
-42.02
-47.99
-54.37
-60.55
-65.62
-68.57
-68.48
-64.89
-57.88
-48.10
-36.55
-24.25
-11.93
0.03
11.50
22.38
32.38
40.91
47.33
51.11
52.13
50.74
47.63
43.61
39.35
35.24
31.40
27.79
24.37
21.17
18.32
15.90
13.87
12.00
9.93
7.28
3.77
-0.67
-5.98
-12.05
-18.76
-26.05
-33.84
-41.97
-50.07
-57.56
-63.62
-67.43
-68.27
-65.76
-60.01
-51.54
-41.19
-29.87
-18.33
-7.12
3.46
13.13
21.60
28.48
33.40
36.13
36.72
35.49
32.92
29.48
25.58
21.52
17.53
13.86
10.75
8.35
6.63
5.35
4.03
2.11
-0.90
-5.26
-10.93
-17.56
-24.65
-31.68
-38.26
-44.28
-49.87
-55.39
-61.22
-67.57
-74.22
-80.51
-85.34
-87.45
-85.76
-79.80
-69.88
-57.08
-42.97
-29.06
-16.46
-5.56
3.81
12.18
20.06
27.67
34.92
41.50
47.07
51.37
54.32
55.98
56.47
55.96
54.57
52.46
49.78
46.77
43.81
41.33
39.73
39.18
39.54
40.33
40.91
40.64
38.97
35.55
30.23
23.18
14.99
6.68
-0.49
-5.36
-7.38
-6.85
-4.89
-2.99
-2.43
-3.72
-6.39
-9.17
-10.43
-8.81
-3.72
4.47
14.47
24.59
33.15
38.98
41.55
40.99
37.86
33.15
28.24
24.90
25.04
30.16
40.71
55.62
72.38
87.73
98.62
103.03
100.31
90.99
76.26
57.53
36.19
13.77
-8.15
-27.87
-44.00
-55.75
-63.27
-67.63
-70.51
-73.73
-78.55
-85.23
-92.88
-99.78
-104.10
-104.58
-101.01
-94.08
-84.89
-74.31
-62.77
-50.30
-37.03
-23.57
-10.99
-0.53
6.93
11.22
12.92
13.15
13.25
14.40
17.37
22.45
29.31
37.20
45.12
52.05
57.20
60.03
60.15
57.25
51.20
42.10
30.56
17.70
4.93
-6.46
-15.67
-22.58
-27.65
-31.66
-35.40
-39.50
-44.27
-49.66
-55.22
-60.03
-62.91
-62.71
-58.71
-50.92
-40.11
-27.59
-14.68
-2.39
8.85
19.06
28.42
36.95
44.34
50.06
53.49
54.34
52.74
49.25
44.69
39.84
35.21
30.95
26.89
22.75
18.34
13.60
8.61
3.42
-1.97
-7.58
-13.32
-18.80
-23.42
-26.60
-28.15
-28.60
-29.22
-31.64
-37.23
-46.53
-58.92
-72.73
-85.62
-95.15
-99.26
-96.64
-86.89
-70.68
-49.62
-26.03
-2.49
18.73
36.04
48.82
57.20
61.81
63.40
62.60
59.95
55.88
50.90
45.45
39.89
34.46
29.25
24.34
19.79
15.77
12.39
9.70
7.59
5.77
3.91
1.63
-1.34
-5.14
-9.69
-14.72
-19.82
-24.58
-28.71
-32.11
-34.97
-37.70
-40.77
-44.60
-49.34
-54.78
-60.23
-64.72
-67.13
-66.55
-62.53
-55.18
-45.13
-33.31
-20.69
-8.06
4.04
15.19
25.04
33.22
39.38
43.30
45.06
45.03
43.82
42.11
40.48
39.24
38.42
37.84
37.18
36.14
34.52
32.23
29.26
25.66
21.49
16.78
11.65
6.27
0.82
-4.54
-9.76
-14.90
-20.15
-25.69
-31.60
-37.87
-44.34
-50.72
-56.61
-61.47
-64.69
-65.70
-64.06
-59.64
-52.62
-43.45
-32.75
-21.11
-9.08
2.85
14.20
24.41
32.89
39.15
42.93
44.29
43.65
41.63
38.81
35.68
32.48
29.35
26.37
23.69
21.46
19.79
18.62
17.68
16.51
14.62
11.66
7.50
2.35
-3.34
-9.03
-14.29
-18.97
-23.23
-27.52
-32.32
-38.00
-44.52
-51.41
-57.69
-62.15
-63.61
-61.28
-55.00
-45.23
-32.99
-19.45
-5.75
7.27
19.05
29.18
37.36
43.33
47.01
48.48
48.10
46.33
43.67
40.50
37.08
33.58
30.17
27.02
24.32
22.13
20.33
18.55
16.35
13.33
9.32
4.43
-1.00
-6.59
-12.05
-17.23
-22.17
-27.05
-32.11
-37.64
-43.87
-50.85
-58.25
-65.29
-70.79
-73.50
-72.49
-67.48
-58.89
-47.65
-34.82
-21.34
-7.87
5.20
17.55
28.85
38.71
46.80
52.85
56.73
58.43
58.11
56.04
52.58
48.23
43.47
38.77
34.49
30.90
28.06
25.89
24.07
22.15
19.63
16.11
11.46
5.83
-0.33
-6.50
-12.22
-17.30
-21.90
-26.50
-31.65
-37.82
-45.07
-52.98
-60.59
-66.66
-69.95
-69.57
-65.18
-57.05
-45.95
-32.93
-19.05
-5.17
8.10
20.40
31.48
41.06
48.81
54.40
57.64
58.60
57.65
55.34
52.24
48.76
45.15
41.49
37.85
34.34
31.10
28.27
25.77
23.37
20.68
17.29
13.00
7.87
2.23
-3.47
-8.88
-13.90
-18.72
-23.69
-29.14
-35.28
-42.10
-49.35
-56.55
-62.97
-67.65
-69.57
-67.90
-62.28
-53.04
-41.06
-27.54
-13.59
0.02
12.84
24.62
35.00
43.53
49.72
53.32
54.47
53.74
51.85
49.47
46.95
44.32
41.48
38.34
35.01
31.70
28.65
25.95
23.45
20.79
17.62
13.66
8.94
3.68
-1.74
-6.92
-11.64
-15.90
-19.88
-23.92
-28.38
-33.57
-39.61
-46.37
-53.35
-59.67
-64.20
-65.83
-63.78
-57.98
-48.99
-37.85
-25.67
-13.29
-1.18
10.43
21.34
31.18
39.48
45.77
49.86
51.86
52.13
51.10
49.17
46.59
43.60
40.37
37.10
33.95
31.01
28.28
25.71
23.23
20.73
18.05
15.03
11.49
7.33
2.59
-2.49
-7.62
-12.53
-17.15
-21.60
-26.16
-31.19
-36.92
-43.38
-50.31
-57.21
-63.33
-67.78
-69.70
-68.44
-63.75
-55.86
-45.45
-33.43
-20.80
-8.33
3.41
14.08
23.42
31.20
37.15
41.07
42.91
42.88
41.44
39.14
36.52
33.95
31.62
29.56
27.73
26.13
24.73
23.45
22.10
20.41
18.07
14.90
10.90
6.30
1.46
-3.27
-7.63
-11.62
-15.46
-19.55
-24.28
-29.89
-36.37
-43.30
-49.97
-55.48
-58.85
-59.27
-56.19
-49.52
-39.67
-27.49
-14.13
-0.80
11.48
21.99
30.35
36.42
40.25
42.04
42.05
40.66
38.25
35.17
31.69
28.01
24.35
20.91
17.91
15.42
13.36
11.42
9.20
6.34
2.63
-1.89
-6.97
-12.24
-17.30
-21.87
-25.91
-29.57
-33.27
-37.43
-42.33
-47.93
-53.76
-59.04
-62.84
-64.31
-62.86
-58.23
-50.56
-40.29
-28.16
-15.03
-1.83
10.67
21.89
31.43
39.10
44.81
48.54
50.38
50.51
49.24
46.93
43.92
40.48
36.82
33.09
29.45
26.04
22.97
20.20
17.57
14.81
11.61
7.74
3.15
-1.99
-7.42
-12.80
-17.90
-22.69
-27.37
-32.33
-37.98
-44.60
-52.10
-59.97
-67.24
-72.73
-75.30
-74.19
-69.20
-60.78
-49.76
-37.14
-23.71
-9.97
3.76
17.21
29.96
41.39
50.87
57.90
62.30
64.24
64.05
62.13
58.81
54.39
49.23
43.82
38.73
34.46
31.29
29.09
27.33
25.27
22.18
17.65
11.76
5.04
-1.77
-7.97
-13.23
-17.66
-21.77
-26.22
-31.57
-38.06
-45.57
-53.58
-61.26
-67.54
-71.33
-71.68
-68.07
-60.58
-49.91
-37.18
-23.61
-10.16
2.59
14.42
25.27
34.98
43.23
49.64
53.90
56.00
56.22
55.01
52.88
50.17
47.08
43.66
39.99
36.23
32.63
29.38
26.53
23.86
20.96
17.43
12.99
7.69
1.83
-4.09
-9.62
-14.48
-18.67
-22.47
-26.30
-30.67
-35.94
-42.21
-49.23
-56.34
-62.54
-66.71
-67.83
-65.23
-58.80
-49.04
-36.95
-23.75
-10.55
1.90
13.25
23.44
32.45
40.09
46.07
50.07
51.99
52.02
50.61
48.29
45.44
42.25
38.78
35.08
31.31
27.77
24.74
22.34
20.45
18.67
16.49
13.43
9.30
4.24
-1.30
-6.77
-11.78
-16.22
-20.36
-24.64
-29.54
-35.34
-42.01
-49.20
-56.19
-62.05
-65.68
-66.15
-62.91
-56.00
-46.03
-34.03
-21.09
-8.07
4.42
16.02
26.44
35.36
42.42
47.39
50.24
51.19
50.59
48.81
46.11
42.72
38.80
34.61
30.47
26.72
23.62
21.25
19.49
18.05
16.56
14.67
12.09
8.72
4.57
-0.15
-5.10
-9.95
-14.42
-18.39
-22.00
-25.59
-29.61
-34.46
-40.19
-46.44
-52.39
-56.92
-58.91
-57.54
-52.55
-44.18
-33.23
-20.74
-7.81
4.56
15.63
24.94
32.23
37.49
40.81
42.34
42.32
41.06
38.89
36.22
33.37
30.62
28.13
25.96
24.09
22.41
20.79
19.02
16.95
14.38
11.26
7.60
3.52
-0.81
-5.22
-9.57
-13.87
-18.23
-22.91
-28.20
-34.26
-40.99
-47.84
-53.87
-57.84
-58.57
-55.35
-48.10
-37.51
-24.79
-11.32
1.69
13.42
23.45
31.63
37.90
42.13
44.24
44.30
42.58
39.62
36.06
32.47
29.23
26.44
24.02
21.83
19.78
17.85
15.95
13.90
11.34
7.95
3.57
-1.67
-7.34
-12.91
-17.98
-22.45
-26.52
-30.60
-35.11
-40.30
-46.11
-52.11
-57.59
-61.59
-63.13
-61.48
-56.37
-48.09
-37.44
-25.47
-13.23
-1.53
9.14
18.50
26.42
32.78
37.48
40.50
41.94
42.04
41.12
39.48
37.36
34.89
32.19
29.33
26.41
23.46
20.38
16.97
12.97
8.28
3.00
-2.54
-7.89
-12.72
-16.95
-20.74
-24.46
-28.53
-33.29
-38.89
-45.32
-52.30
-59.19
-65.05
-68.71
-69.08
-65.54
-58.14
-47.54
-34.82
-21.05
-7.00
6.94
20.61
33.74
45.87
56.35
64.66
70.52
74.09
75.93
76.72
77.10
77.40
77.78
78.47
80.03
83.15
88.40
95.97
105.36
115.28
123.46
127.12
123.69
111.29
88.93
57.07
18.19
-23.21
-61.29
-91.13
-110.35
-119.82
-123.31
-126.25
-133.18
-145.27
-159.58
-170.03
-170.84
-158.18
-130.86
-90.20
-40.52
11.58
58.37
92.52
109.28
106.63
86.51
54.69
21.63
-1.82
-10.23
-6.32
-0.81
0.93
-2.28
-9.15
-17.51
-23.39
-25.01
-22.34
-16.42
-8.49
1.01
11.22
21.22
30.12
36.87
39.39
35.14
22.38
1.28
-25.34
-53.69
-79.85
-100.55
-113.85
-119.79
-119.56
-114.58
-105.71
-93.05
-77.10
-59.13
-41.04
-24.82
-12.16
-3.72
1.04
3.49
5.26
7.34
10.10
13.63
18.17
24.11
31.73
40.79
50.30
58.77
64.74
67.58
67.79
66.89
66.61
68.11
71.55
76.14
80.74
84.39
86.62
87.45
86.97
85.11
81.54
75.89
67.97
57.93
46.30
33.80
21.26
9.57
-0.29
-7.18
-9.92
-7.40
1.05
15.49
35.20
58.80
84.34
109.61
132.32
150.25
161.44
164.44
158.76
145.08
125.18
101.36
75.38
47.65
16.83
-19.56
-63.74
-116.00
-173.56
-230.45
-278.80
-310.90
-321.39
-308.59
-274.57
-224.32
-164.41
-101.82
-43.25
5.53
40.17
58.43
60.76
50.26
31.82
10.58
-9.61
-26.93
-41.32
-53.39
-63.38
-70.68
-74.13
-72.78
-66.37
-55.54
-41.37
-25.12
-7.81
9.58
25.98
40.03
50.29
55.59
55.56
50.85
43.09
34.56
27.55
23.78
23.94
27.62
33.41
39.49
44.21
46.53
46.23
43.66
39.40
33.86
27.19
19.35
10.45
0.99
-8.17
-16.05
-21.94
-25.73
-27.92
-29.41
-31.10
-33.59
-37.01
-41.09
-45.26
-48.80
-50.90
-50.78
-47.78
-41.59
-32.29
-20.44
-6.92
7.25
21.14
34.02
45.36
54.80
62.11
67.24
70.34
71.70
71.78
71.06
69.94
68.70
67.47
66.25
65.07
64.01
63.30
63.21
63.92
65.38
67.24
68.99
70.10
70.32
69.77
68.99
68.68
69.50
71.73
75.22
79.38
83.40
86.61
88.78
90.30
92.18
95.65
101.66
110.21
119.94
128.03
130.86
125.01
108.57
82.13
49.00
14.67
-14.54
-32.85
-36.29
-23.57
3.57
40.62
81.20
118.49
146.83
163.05
166.91
160.58
147.36
130.31
111.35
91.22
70.13
48.53
27.63
9.01
-6.02
-17.23
-25.85
-34.17
-44.66
-58.90
-77.07
-97.91
-119.55
-140.44
-159.66
-176.97
-192.27
-205.42
-216.14
-224.22
-229.57
-231.98
-231.02
-225.99
-216.56
-203.37
-188.44
-174.82
-165.66
-163.09
-167.51
-177.57
-190.80
-204.49
-216.24
-224.22
-226.99
-223.45
-212.91
-195.32
-171.52
-143.23
-112.90
-83.20
-56.42
-34.00
-16.38
-3.12
6.72
14.09
19.68
23.75
26.29
27.19
26.40
23.95
19.91
14.38
7.44
-0.60
-8.96
-16.22
-20.45
-19.71
-12.56
1.38
21.42
45.91
72.84
100.24
126.55
150.80
172.64
192.22
209.83
225.52
238.73
248.17
252.12
248.96
237.74
218.56
192.59
161.82
128.81
96.42
67.51
44.54
28.97
20.81
18.44
19.06
19.38
16.51
8.44
-5.89
-26.82
-54.33
-88.18
-127.89
-172.52
-220.35
-268.48
-312.67
-347.54
-367.34
-367.38
-345.56
-303.43
-246.25
-181.89
-118.69
-63.33
-19.26
13.56
37.69
56.58
72.97
88.01
101.21
111.06
115.87
114.31
105.82
90.58
69.54
44.50
18.05
-6.73
-27.00
-41.06
-48.95
-52.42
-54.21
-57.02
-62.58
-71.40
-82.80
-95.47
-108.00
-119.25
-128.50
-135.64
-141.30
-146.70
-153.39
-162.63
-174.73
-188.57
-201.73
-211.04
-213.64
-207.86
-193.71
-172.74
-147.33
-119.82
-91.88
-64.34
-37.43
-11.33
13.44
35.91
54.89
69.30
78.68
83.31
84.17
82.60
79.93
77.08
74.52
72.30
70.24
68.19
66.05
63.74
61.15
57.95
53.77
48.30
41.51
33.64
25.09
16.18
6.92
-3.05
-14.35
-27.67
-43.64
-62.62
-84.57
-108.78
-133.70
-156.92
-175.50
-186.62
-188.32
-180.16
-163.26
-139.92
-112.89
-84.67
-57.11
-31.52
-8.89
9.94
24.36
34.49
41.58
47.97
56.61
70.16
90.15
116.68
148.51
183.55
219.45
253.81
284.40
309.27
327.03
337.28
340.81
339.50
335.75
331.68
328.53
326.33
324.13
320.23
312.56
299.04
277.83
247.82
208.87
161.91
108.56
50.43
-11.14
-74.82
-138.43
-198.20
-248.84
-284.89
-302.62
-301.62
-285.02
-258.08
-226.00
-192.22
-158.10
-123.94
-90.39
-59.29
-33.17
-14.06
-2.37
3.45
6.05
8.03
10.92
14.97
19.48
23.58
26.79
29.14
31.06
33.02
35.24
37.63
39.78
41.05
40.87
38.90
35.22
30.34
25.01
19.94
15.50
11.58
7.66
3.09
-2.65
-9.77
-18.12
-27.26
-36.43
-44.60
-50.48
-52.76
-50.40
-42.98
-30.85
-15.12
2.68
21.02
38.72
55.06
69.70
82.43
93.01
101.12
106.49
109.07
109.18
107.58
105.24
103.12
101.86
101.64
102.20
103.05
103.79
104.32
104.89
105.89
107.65
110.13
112.94
115.46
117.15
117.82
117.67
117.21
117.02
117.60
119.41
122.96
128.83
137.23
147.51
157.67
164.50
164.40
154.58
134.06
103.80
66.24
24.27
-19.32
-61.86
-100.34
-131.15
-150.44
-155.23
-144.75
-121.08
-88.79
-53.58
-20.49
7.23
28.47
43.60
53.47
58.48
58.44
52.77
41.18
24.06
2.66
-21.28
-45.99
-70.05
-92.39
-112.05
-127.83
-138.29
-142.16
-139.00
-129.46
-115.21
-98.25
-80.12
-61.58
-42.90
-24.64
-8.26
3.94
9.69
8.00
0.01
-11.09
-21.05
-26.08
-23.86
-13.86
3.10
25.58
52.07
81.11
111.13
140.19
166.06
186.59
200.15
206.09
204.85
197.78
186.67
173.22
158.63
143.42
127.63
111.33
95.07
80.04
67.74
59.15
53.99
50.40
45.29
35.41
18.60
-5.39
-34.66
-65.87
-95.22
-119.53
-137.05
-147.59
-152.37
-153.39
-152.79
-152.39
-153.36
-156.13
-160.36
-164.98
-168.28
-168.27
-163.20
-152.22
-135.82
-115.71
-94.30
-73.82
-55.71
-40.41
-27.72
-17.30
-9.07
-3.19
0.20
1.20
0.24
-2.06
-5.13
-8.54
-11.88
-14.75
-16.79
-17.89
-18.43
-19.31
-21.75
-26.64
-34.16
-43.55
-53.30
-61.75
-67.71
-70.86
-71.77
-71.61
-71.60
-72.73
-75.58
-80.42
-87.19
-95.28
-103.29
-108.87
-109.05
-101.23
-84.22
-59.09
-29.10
1.32
28.01
48.37
61.76
69.06
71.71
70.85
67.14
61.02
53.21
44.88
37.39
31.60
27.50
24.27
20.80
16.41
11.31
6.37
2.61
0.50
-0.33
-0.85
-2.11
-4.75
-8.74
-13.57
-18.51
-23.03
-26.86
-30.12
-33.18
-36.52
-40.55
-45.46
-51.03
-56.65
-61.31
-63.79
-62.92
-57.75
-47.82
-33.20
-14.40
7.72
32.01
56.92
80.33
99.69
112.45
116.84
112.68
101.70
87.04
72.19
59.76
50.88
45.17
41.41
38.23
34.57
29.74
23.23
14.62
3.62
-9.78
-25.20
-41.89
-58.88
-75.11
-89.58
-101.51
-110.55
-116.81
-120.97
-123.99
-126.83
-130.09
-133.71
-136.97
-138.65
-137.28
-131.66
-121.14
-105.81
-86.44
-64.15
-40.01
-14.85
10.70
36.02
60.17
81.72
98.90
109.98
113.67
109.57
98.30
81.53
61.69
41.59
23.89
10.61
2.71
0.07
1.63
5.77
10.51
13.93
14.31
10.42
1.86
-10.68
-25.46
-40.11
-52.44
-61.34
-67.25
-72.01
-78.13
-87.76
-101.89
-119.90
-139.68
-158.04
-171.40
-176.55
-171.46
-155.78
-130.93
-99.68
-65.35
-30.90
1.67
31.42
58.15
81.83
102.11
118.31
129.53
135.17
135.23
130.52
122.37
112.31
101.52
90.58
79.47
67.98
56.11
44.30
33.30
23.80
16.04
9.64
3.77
-2.50
-9.85
-18.46
-27.99
-37.71
-46.76
-54.47
-60.63
-65.63
-70.46
-76.36
-84.39
-94.86
-106.90
-118.46
-126.71
-128.74
-122.44
-107.19
-84.01
-55.32
-24.27
6.03
33.26
56.21
74.81
89.85
102.45
113.57
123.54
131.78
136.94
137.41
132.00
120.69
104.78
86.78
69.59
55.76
46.78
42.90
43.15
45.70
48.29
48.70
45.28
37.25
25.01
10.01
-5.69
-20.13
-32.00
-41.01
-47.80
-53.55
-59.62
-67.13
-76.72
-88.30
-100.87
-112.52
-120.65
-122.61
-116.48
-101.73
-79.40
-51.79
-21.66
8.55
37.19
63.42
86.83
107.02
123.50
135.84
143.89
147.95
148.75
147.28
144.60
141.59
138.77
136.36
134.41
132.88
131.75
131.11
131.15
131.95
133.13
133.32
130.50
122.56
108.05
86.88
60.46
31.22
1.65
-26.67
-54.06
-81.57
-110.02
-139.19
-167.87
-194.73
-219.02
-241.06
-262.01
-284.21
-308.24
-332.17
-351.97
-363.42
-364.11
-354.35
-336.83
-315.41
-295.56
-280.32
-270.01
-262.71
-256.42
-250.43
-244.99
-239.96
-234.07
-227.33
-218.46
-206.22
-189.57
-168.83
-146.32
-124.89
-106.43
-75.76
-27.41
33.45
92.76
138.84
167.70
180.96
183.43
180.06
176.24
173.40
171.76
169.08
165.74
164.12
166.31
173.04
185.24
203.01
224.28
246.02
261.73
269.06
268.99
262.87
254.05
246.57
233.28
208.42
185.61
167.07
148.30
129.72
113.00
102.79
104.40
121.40
155.23
204.40
261.02
321.03
381.96
424.60
430.62
390.32
309.13
206.28
116.43
44.83
-9.80
-50.35
-80.95
-105.20
-122.48
-130.80
-128.04
-114.45
-96.64
-79.99
-69.81
-71.47
-86.42
-111.81
-141.96
-170.33
-192.12
-207.37
-215.56
-216.35
-209.73
-194.36
-168.77
-133.44
-91.64
-49.38
-14.44
8.92
20.24
21.99
18.66
14.56
12.13
11.56
11.67
10.69
8.33
5.24
2.38
0.70
0.83
2.84
6.36
10.78
15.37
19.88
24.32
28.81
33.45
38.27
43.13
47.85
52.21
56.10
59.51
62.48
65.11
67.38
69.26
70.63
71.43
71.77
71.93
72.34
73.37
75.13
77.33
79.41
80.68
80.61
79.03
76.06
72.02
67.31
62.25
57.08
51.98
47.00
42.08
37.07
31.73
25.87
19.48
12.71
5.85
-0.76
-6.89
-12.36
-17.14
-21.22
-24.62
-27.42
-29.71
-31.67
-33.50
-35.42
-37.55
-39.95
-42.54
-45.19
-47.71
-49.96
-51.84
-53.40
-54.78
-56.25
-58.06
-60.44
-63.44
-66.88
-70.38
-73.40
-75.35
-75.70
-74.11
-70.54
-65.30
-58.97
-52.35
-46.15
-40.86
-36.44
-32.37
-27.90
-22.38
-15.75
-8.63
-2.09
2.85
5.65
6.55
6.28
5.65
5.08
4.46
3.41
1.67
-0.57
-2.71
-4.04
-4.18
-3.30
-2.01
-1.02
-0.75
-1.26
-2.27
-3.42
-4.45
-5.30
-6.09
-7.03
-8.30
-9.93
-11.76
-13.47
-14.72
-15.39
-15.84
-17.04
-20.27
-26.67
-36.69
-49.71
-64.12
-77.78
-88.58
-94.95
-96.10
-91.97
-83.15
-70.71
-56.07
-40.82
-26.56
-14.54
-5.47
0.62
4.13
5.73
5.99
5.30
3.92
1.98
-0.42
-3.30
-6.90
-11.64
-17.97
-25.97
-35.02
-43.69
-49.98
-52.00
-48.70
-40.34
-28.44
-15.19
-2.63
8.01
16.47
23.23
28.89
33.89
38.51
43.19
48.68
55.91
65.32
76.47
87.86
97.56
104.04
106.93
107.08
106.08
105.32
105.36
105.70
104.97
101.50
93.89
81.46
64.54
44.52
23.46
3.58
-13.48
-27.16
-38.03
-47.35
-56.35
-65.69
-75.15
-83.84
-90.66
-94.67
-95.40
-92.83
-87.29
-79.32
-69.57
-58.73
-47.52
-36.64
-26.64
-17.96
-10.73
-4.95
-0.44
2.96
5.38
6.87
7.50
7.33
6.52
5.29
3.85
2.46
1.29
0.46
0.02
-0.06
0.12
0.41
0.69
0.85
0.82
0.59
0.18
-0.35
-1.00
-1.82
-3.03
-4.94
-7.90
-12.11
-17.38
-23.16
-28.61
-32.82
-35.04
-34.87
-32.22
-27.22
-20.21
-11.71
-2.45
6.65
14.73
21.33
26.60
31.27
36.19
41.74
47.34
51.59
52.77
49.71
42.38
31.96
20.36
9.45
0.22
-7.39
-14.39
-22.21
-32.18
-45.10
-61.13
-79.59
-98.86
-116.14
-127.78
-130.07
-120.54
-99.34
-69.69
-37.26
-8.35
12.14
22.32
23.51
19.22
13.46
9.28
8.07
9.79
13.64
18.76
24.56
30.74
37.01
43.04
48.44
52.98
56.79
60.40
64.46
69.39
75.00
80.51
84.80
86.87
86.26
83.15
78.18
72.21
66.02
60.22
55.25
51.29
48.29
45.92
43.71
41.26
38.46
35.56
32.94
30.89
29.28
27.60
25.13
21.32
16.12
10.12
4.39
0.23
-1.28
0.50
5.66
13.75
23.96
35.27
46.65
57.20
66.23
73.31
78.25
81.04
81.67
80.07
76.09
69.56
60.60
49.52
36.85
23.29
9.65
-3.36
-15.14
-25.25
-33.45
-39.77
-44.67
-49.18
-54.36
-60.96
-69.14
-78.54
-88.46
-98.13
-106.99
-114.90
-122.30
-129.53
-136.52
-142.87
-148.00
-151.40
-152.70
-151.56
-147.74
-141.41
-132.47
-120.57
-105.33
-86.74
-65.37
-42.32
-19.14
4.75
27.53
46.28
58.73
64.80
66.50
66.43
66.46
67.25
68.71
70.20
71.53
72.63
73.49
73.77
72.79
69.90
64.83
57.91
49.59
40.69
32.12
24.54
18.08
12.39
6.93
1.22
-4.89
-11.35
-17.63
-22.87
-26.17
-26.93
-25.05
-20.87
-14.93
-7.83
-0.19
7.57
15.16
22.41
29.07
34.83
39.31
42.24
43.48
43.10
41.38
38.75
35.70
32.60
29.65
26.93
24.40
22.07
19.88
17.77
15.64
13.37
10.82
7.95
4.77
1.39
-2.06
-5.50
-8.89
-12.35
-16.06
-20.19
-24.84
-29.86
-34.90
-39.35
-42.55
-43.84
-42.85
-39.53
-34.18
-27.37
-19.73
-11.82
-4.00
3.56
10.67
17.11
22.53
26.56
29.00
29.94
29.72
28.84
27.71
26.60
25.55
24.49
23.33
21.98
20.39
18.48
16.20
13.57
10.69
7.72
4.84
2.10
-0.60
-3.46
-6.71
-10.50
-14.87
-19.75
-25.01
-30.46
-35.75
-40.37
-43.67
-44.98
-43.87
-40.32
-34.75
-27.95
-20.79
-13.98
-7.90
-2.59
2.02
5.98
9.20
11.44
12.51
12.32
11.02
8.93
6.47
4.09
2.19
1.17
1.35
2.95
5.96
10.09
14.79
19.36
23.21
25.93
27.36
27.54
26.61
24.74
22.10
18.78
14.83
10.22
4.86
-1.27
-7.90
-14.44
-19.98
-23.61
-24.68
-23.12
-19.38
-14.25
-8.58
-2.90
2.52
7.63
12.32
16.31
19.16
20.49
20.25
18.80
16.77
14.80
13.25
12.14
11.25
10.28
9.09
7.69
6.17
4.57
2.87
0.99
-1.14
-3.52
-6.11
-8.90
-11.94
-15.28
-18.94
-22.88
-27.01
-31.17
-35.16
-38.61
-41.04
-41.90
-40.71
-37.28
-31.83
-24.95
-17.37
-9.79
-2.70
3.65
9.11
13.56
16.88
19.01
19.98
20.00
19.42
18.56
17.69
16.89
16.07
15.12
13.90
12.38
10.61
8.72
6.79
4.80
2.55
-0.24
-3.73
-7.86
-12.25
-16.35
-19.73
-22.42
-24.94
-28.15
-32.78
-38.91
-45.77
-51.83
-55.28
-54.70
-49.46
-39.82
-26.80
-11.92
2.89
15.38
23.25
24.65
18.82
6.55
-10.01
-28.14
-45.63
-61.39
-75.19
-86.65
-94.11
-94.49
-84.23
-61.03
-25.27
19.66
68.23
114.45
153.33
181.62
197.75
201.42
193.31
175.00
149.00
118.36
86.22
55.18
26.96
2.55
-17.51
-32.85
-43.16
-48.16
-47.77
-42.24
-32.28
-19.12
-4.58
9.43
21.41
30.67
37.38
42.10
45.36
47.35
48.23
48.42
48.61
49.11
49.19
46.77
39.15
24.43
2.86
-22.87
-48.69
-70.99
-88.24
-101.25
-112.13
-122.45
-131.89
-138.09
-137.91
-128.93
-110.90
-86.00
-58.13
-31.47
-9.50
5.51
12.32
10.27
-0.68
-19.67
-44.44
-71.32
-95.91
-114.38
-124.69
-127.27
-124.73
-120.67
-118.24
-118.94
-122.20
-125.75
-126.64
-122.37
-111.77
-95.30
-74.76
-52.52
-30.72
-10.68
7.12
22.80
36.64
48.87
59.59
68.93
77.11
84.43
91.05
96.78
100.98
102.84
101.68
97.42
90.72
82.85
75.16
68.55
63.12
58.23
52.87
46.13
37.70
27.94
17.78
8.45
1.04
-3.74
-5.81
-5.71
-4.47
-3.18
-2.66
-3.06
-3.89
-4.29
-3.50
-1.24
2.22
6.28
10.42
14.50
18.75
23.70
29.89
37.74
47.52
59.43
73.54
89.73
107.47
125.68
142.86
157.37
167.92
173.93
175.59
173.78
169.69
164.52
159.21
154.39
150.30
146.96
144.10
141.18
137.44
131.90
123.62
112.09
97.65
81.81
67.23
57.12
54.27
59.96
73.12
90.21
105.91
114.57
111.80
95.93
68.58
34.47
0.35
-26.58
-40.61
-39.19
-23.93
-0.35
23.56
39.75
42.42
29.53
2.95
-32.98
-73.44
-115.04
-156.38
-197.26
-237.13
-273.70
-302.65
-318.78
-317.89
-298.66
-263.43
-217.82
-169.25
-125.15
-91.56
-72.35
-68.76
-79.38
-100.39
-126.05
-149.92
-166.17
-170.76
-162.04
-140.84
-109.84
-72.89
-34.10
2.88
35.46
62.29
83.09
98.15
107.82
112.13
110.93
104.08
91.98
75.76
57.23
38.60
22.19
9.96
3.05
1.29
3.03
5.64
6.55
4.47
0.05
-4.33
-5.73
-2.14
6.65
18.88
31.43
40.78
43.83
38.69
25.27
5.70
-15.57
-32.62
-39.97
-34.71
-18.16
4.36
25.60
39.44
43.42
39.24
31.30
23.99
19.61
17.75
16.54
14.34
10.93
7.58
5.87
6.55
9.06
12.02
14.31
15.78
17.34
20.22
24.93
30.65
35.41
36.85
33.34
24.73
12.39
-1.28
-13.85
-23.55
-29.78
-33.08
-34.78
-36.51
-39.60
-44.52
-50.63
-56.16
-58.71
-56.07
-46.98
-31.70
-11.86
10.10
31.80
51.53
68.43
82.20
92.58
99.05
100.78
96.95
87.12
71.49
50.94
26.97
1.66
-22.51
-42.90
-57.10
-63.67
-62.57
-55.42
-45.06
-34.76
-27.34
-24.41
-26.26
-32.10
-40.57
-50.18
-59.56
-67.63
-73.75
-77.90
-80.74
-83.38
-86.78
-91.07
-95.05
-96.44
-92.67
-82.06
-64.64
-42.25
-17.85
5.56
25.94
42.56
55.75
66.27
74.74
81.42
86.19
88.95
89.75
88.89
86.82
83.98
80.67
76.98
72.98
68.67
64.18
59.51
54.52
48.78
41.61
32.37
20.82
7.34
-7.12
-21.34
-34.31
-45.61
-55.48
-64.73
-74.38
-85.31
-98.06
-112.42
-127.27
-140.41
-148.78
-149.16
-139.11
-117.81
-86.63
-48.77
-8.41
30.34
64.41
91.99
112.44
125.75
132.13
131.95
125.83
114.91
101.03
86.39
73.09
62.31
53.84
46.17
37.17
25.08
9.29
-9.52
-29.81
-49.95
-68.78
-85.69
-100.33
-112.22
-120.67
-125.07
-125.28
-122.00
-116.68
-111.21
-107.47
-106.94
-110.47
-118.06
-128.57
-139.54
-147.44
-148.39
-139.37
-119.11
-88.50
-50.10
-7.11
37.40
80.61
119.44
150.15
168.65
171.82
159.15
133.67
101.50
69.90
44.78
29.08
22.61
23.15
27.94
34.65
41.48
46.86
49.10
46.62
38.57
25.35
8.71
-8.74
-24.14
-35.16
-40.42
-39.96
-35.18
-28.83
-24.54
-25.81
-34.90
-51.78
-73.84
-96.28
-113.48
-120.57
-114.91
-96.94
-70.00
-39.35
-10.55
11.98
26.03
31.70
30.81
25.96
19.64
13.86
10.04
9.22
11.89
17.80
25.61
32.99
37.12
35.73
28.17
15.92
2.32
-8.60
-13.75
-12.34
-6.24
0.70
4.33
1.87
-7.03
-20.26
-34.44
-46.30
-54.00
-57.61
-58.88
-60.26
-63.76
-69.91
-77.25
-82.67
-82.47
-73.96
-56.74
-33.20
-7.82
14.34
29.48
36.21
35.76
31.16
25.81
22.26
21.52
23.11
25.60
27.29
26.84
23.65
18.08
11.07
4.19
-0.86
-2.74
-1.09
3.12
7.89
10.73
9.69
3.82
-6.10
-17.81
-28.42
-35.65
-38.71
-38.65
-37.89
-39.28
-45.42
-56.90
-71.59
-85.17
-92.76
-90.74
-78.20
-57.26
-32.34
-10.08
4.52
9.94
8.06
2.36
-3.97
-9.02
-12.19
-13.68
-17.13
-25.01
-37.39
-52.51
-68.61
-85.02
-101.57
-117.62
-131.53
-146.54
-164.54
-184.99
-205.60
-224.87
-243.17
-261.95
-282.19
-303.90
-333.35
-373.99
-423.75
-475.62
-521.57
-556.02
-577.01
-585.58
-546.40
-448.59
-309.14
-163.57
-41.39
46.72
104.12
138.83
155.85
163.91
162.00
149.94
131.67
114.62
105.73
108.89
122.22
142.49
166.74
187.13
198.90
201.99
200.11
197.25
195.31
194.08
192.85
191.30
185.97
175.18
159.98
143.48
128.64
116.78
107.64
100.49
94.67
87.87
78.68
67.13
54.40
41.81
30.02
19.03
8.64
-1.34
-11.87
-23.54
-36.31
-49.53
-62.19
-73.25
-81.80
-86.96
-88.10
-84.90
-77.33
-65.42
-49.25
-28.85
-4.38
23.76
54.69
86.99
118.91
148.68
174.94
197.07
215.21
230.12
242.93
254.87
267.11
280.44
294.89
309.32
321.48
328.33
327.10
316.20
295.94
268.32
236.22
202.27
168.18
134.73
102.30
71.74
44.57
22.75
7.91
0.65
0.36
5.45
14.05
24.47
35.52
46.36
56.23
64.25
69.43
70.97
68.55
62.54
53.92
43.98
33.87
24.34
15.71
8.07
1.69
-2.65
-3.74
-0.18
9.16
24.68
45.75
70.63
96.49
119.78
136.83
144.74
142.18
129.85
110.25
86.77
62.56
39.57
18.39
-1.28
-19.84
-37.11
-52.18
-63.82
-70.99
-73.29
-70.91
-64.46
-54.59
-41.79
-26.41
-8.86
10.21
29.78
48.56
65.22
78.63
88.09
93.38
94.77
92.90
88.69
83.12
77.09
71.25
65.95
61.33
57.29
53.67
50.23
46.74
42.88
38.39
33.06
26.84
19.88
12.43
4.84
-2.60
-9.69
-16.37
-22.73
-28.92
-35.19
-41.72
-48.64
-56.00
-63.77
-71.73
-79.50
-86.36
-91.32
-93.26
-91.22
-84.71
-73.91
-59.58
-42.86
-24.93
-6.82
10.66
26.86
41.14
52.91
61.68
67.20
69.56
69.17
66.68
62.84
58.34
53.74
49.40
45.53
42.14
39.18
36.50
33.89
31.12
27.98
24.33
20.11
15.38
10.20
4.59
-1.43
-7.83
-14.48
-21.08
-27.28
-32.76
-37.42
-41.50
-45.45
-49.82
-55.04
-61.27
-68.33
-75.72
-82.62
-88.01
-90.83
-90.15
-85.45
-76.76
-64.69
-50.27
-34.62
-18.77
-3.44
10.92
23.95
35.31
44.59
51.40
55.50
56.92
56.01
53.35
49.68
45.65
41.80
38.40
35.58
33.27
31.36
29.61
27.78
25.59
22.81
19.33
15.17
10.51
5.58
0.62
-4.19
-8.81
-13.29
-17.75
-22.31
-27.03
-31.84
-36.59
-41.10
-45.30
-49.32
-53.55
-58.41
-64.15
-70.57
-76.88
-81.86
-84.15
-82.79
-77.42
-68.42
-56.69
-43.29
-29.10
-14.75
-0.68
12.66
24.68
34.71
42.15
46.73
48.59
48.26
46.40
43.63
40.46
37.21
34.19
31.64
29.75
28.56
27.86
27.26
26.29
24.59
22.01
18.62
14.66
10.43
6.17
2.08
-1.75
-5.31
-8.68
-12.03
-15.59
-19.55
-23.95
-28.65
-33.37
-37.86
-42.05
-46.17
-50.62
-55.71
-61.33
-66.86
-71.19
-73.01
-71.30
-65.68
-56.51
-44.77
-31.72
-18.46
-5.80
5.90
16.46
25.73
33.48
39.35
43.08
44.60
44.14
42.16
39.27
36.05
32.95
30.27
28.10
26.36
24.88
23.48
22.01
20.39
18.61
16.65
14.40
11.74
8.58
4.96
0.99
-3.16
-7.41
-11.76
-16.25
-20.86
-25.44
-29.76
-33.63
-36.98
-39.98
-42.94
-46.23
-50.20
-54.94
-60.24
-65.48
-69.66
-71.63
-70.37
-65.35
-56.71
-45.20
-31.99
-18.26
-4.94
7.35
18.24
27.45
34.70
39.75
42.47
43.01
41.79
39.45
36.75
34.33
32.64
31.87
31.88
32.35
32.85
33.00
32.61
31.70
30.47
29.15
27.90
26.72
25.50
24.15
22.61
20.92
19.13
17.31
15.45
13.53
11.55
9.51
7.53
5.71
4.16
2.89
1.83
0.86
-0.15
-1.24
-2.39
-3.49
-4.47
-5.32
-6.08
-6.86
-7.73
-8.67
-9.58
-10.29
-10.72
-10.84
-10.76
-10.64
-10.63
-10.86
-11.35
-12.10
-13.12
-14.42
-16.07
-18.09
-20.45
-23.00
-25.53
-27.84
-29.84
-31.57
-33.21
-35.02
-37.26
-40.07
-43.45
-47.22
-51.07
-54.68
-57.76
-60.26
-62.38
-64.61
-67.52
-71.54
-76.61
-82.04
-86.55
-88.65
-87.15
-81.53
-72.17
-60.13
-46.71
-33.09
-20.03
-7.91
3.12
12.99
21.54
28.58
33.94
37.55
39.51
40.11
39.71
38.68
37.26
35.58
33.60
31.30
28.74
26.10
23.63
21.47
19.55
17.60
15.22
12.13
8.29
3.92
-0.62
-4.95
-8.92
-12.54
-16.06
-19.76
-23.93
-28.76
-34.32
-40.48
-46.81
-52.62
-56.98
-58.93
-57.77
-53.28
-45.80
-36.11
-25.21
-13.99
-3.08
7.21
16.75
25.38
32.85
38.81
42.89
44.92
44.99
43.47
40.91
37.86
34.69
31.58
28.56
25.65
22.92
20.50
18.47
16.70
14.89
12.62
9.57
5.59
0.83
-4.45
-9.87
-15.17
-20.21
-25.04
-29.82
-34.80
-40.24
-46.23
-52.53
-58.51
-63.21
-65.58
-64.79
-60.50
-52.98
-42.96
-31.45
-19.38
-7.46
3.91
14.52
24.22
32.81
40.00
45.53
49.20
51.03
51.18
49.90
47.51
44.35
40.73
36.97
33.38
30.20
27.53
25.34
23.39
21.35
18.85
15.62
11.53
6.68
1.33
-4.16
-9.43
-14.30
-18.82
-23.26
-28.03
-33.56
-40.06
-47.40
-54.99
-61.84
-66.80
-68.78
-67.07
-61.53
-52.60
-41.14
-28.22
-14.84
-1.74
10.59
21.92
32.10
40.93
48.12
53.33
56.31
57.06
55.84
53.15
49.61
45.79
42.05
38.61
35.53
32.81
30.44
28.32
26.28
24.10
21.48
18.20
14.18
9.52
4.41
-0.85
-6.04
-10.98
-15.61
-20.00
-24.39
-29.19
-34.84
-41.63
-49.44
-57.57
-64.82
-69.75
-71.13
-68.31
-61.40
-51.19
-38.82
-25.45
-11.99
1.00
13.29
24.73
35.15
44.21
51.50
56.62
59.37
59.85
58.44
55.73
52.32
48.76
45.40
42.39
39.76
37.41
35.21
33.03
30.76
28.28
25.45
22.12
18.14
13.49
8.28
2.81
-2.59
-7.62
-12.13
-16.17
-19.96
-23.81
-28.01
-32.80
-38.27
-44.34
-50.70
-56.81
-61.87
-65.02
-65.43
-62.51
-56.13
-46.61
-34.69
-21.33
-7.46
6.11
18.82
30.20
39.85
47.38
52.51
55.15
55.53
54.14
51.64
48.67
45.71
43.04
40.68
38.54
36.48
34.46
32.51
30.74
29.18
27.68
25.89
23.39
19.89
15.34
10.00
4.36
-1.14
-6.21
-10.78
-14.94
-18.84
-22.63
-26.44
-30.40
-34.71
-39.52
-44.90
-50.69
-56.34
-61.00
-63.62
-63.25
-59.34
-51.91
-41.61
-29.49
-16.68
-4.14
7.53
18.02
27.20
34.89
40.87
44.89
46.80
46.70
44.94
42.12
38.89
35.83
33.33
31.52
30.34
29.59
29.03
28.42
27.56
26.28
24.50
22.15
19.25
15.85
12.07
8.05
3.97
-0.07
-3.97
-7.73
-11.37
-14.91
-18.41
-21.92
-25.57
-29.54
-34.02
-39.17
-44.93
-50.94
-56.50
-60.68
-62.49
-61.18
-56.48
-48.64
-38.36
-26.59
-14.29
-2.23
8.99
18.93
27.17
33.31
37.08
38.41
37.59
35.23
32.16
29.16
26.82
25.36
24.65
24.32
24.01
23.48
22.68
21.66
20.42
18.86
16.76
13.92
10.25
5.88
1.13
-3.61
-8.05
-12.03
-15.59
-18.88
-22.16
-25.69
-29.71
-34.39
-39.74
-45.46
-50.95
-55.33
-57.64
-57.08
-53.26
-46.35
-37.00
-26.15
-14.72
-3.44
7.28
17.22
26.19
33.95
40.18
44.57
46.96
47.42
46.26
43.94
40.99
37.93
35.07
32.57
30.38
28.32
26.21
23.95
21.54
19.09
16.64
14.13
11.40
8.17
4.26
-0.33
-5.42
-10.66
-15.68
-20.26
-24.35
-28.12
-31.81
-35.71
-40.01
-44.79
-49.91
-55.00
-59.43
-62.33
-62.85
-60.36
-54.77
-46.53
-36.52
-25.67
-14.68
-3.88
6.63
16.75
26.11
34.10
40.04
43.48
44.43
43.31
40.82
37.70
34.52
31.63
29.19
27.21
25.59
24.20
22.87
21.45
19.85
18.03
15.99
13.64
10.90
7.66
3.92
-0.17
-4.36
-8.36
-12.03
-15.39
-18.65
-22.10
-25.99
-30.51
-35.71
-41.53
-47.71
-53.77
-58.96
-62.32
-62.91
-60.10
-53.80
-44.50
-33.16
-20.93
-8.78
2.60
12.83
21.69
28.98
34.43
37.86
39.30
39.06
37.72
35.90
34.12
32.57
31.19
29.77
28.11
26.20
24.16
22.21
20.48
18.94
17.38
15.51
13.06
9.88
5.96
1.43
-3.56
-8.80
-14.13
-19.40
-24.46
-29.22
-33.69
-38.00
-42.39
-47.13
-52.36
-58.05
-63.82
-69.00
-72.74
-74.14
-72.53
-67.58
-59.53
-48.96
-36.77
-23.83
-10.90
1.46
12.78
22.58
30.37
35.72
38.49
38.85
37.40
34.92
32.16
29.66
27.62
26.00
24.61
23.30
21.97
20.65
19.37
18.12
16.75
15.02
12.66
9.53
5.70
1.45
-2.83
-6.76
-10.18
-13.15
-15.90
-18.70
-21.78
-25.27
-29.22
-33.61
-38.29
-42.88
-46.70
-48.90
-48.59
-45.24
-38.80
-29.78
-19.09
-7.73
3.49
14.05
23.67
32.09
38.97
43.87
46.36
46.33
44.03
40.16
35.56
31.03
27.05
23.75
21.01
18.62
16.46
14.53
12.89
11.46
10.02
8.18
5.54
1.88
-2.71
-7.86
-13.05
-17.79
-21.85
-25.26
-28.32
-31.51
-35.26
-39.84
-45.27
-51.18
-56.85
-61.28
-63.43
-62.54
-58.45
-51.60
-42.85
-33.12
-22.97
-12.56
-1.76
9.43
20.64
31.10
39.95
46.50
50.58
52.54
53.14
53.28
53.88
55.70
59.15
64.20
70.17
75.87
79.91
81.11
78.99
73.85
66.71
58.77
51.07
44.14
38.03
32.49
27.25
22.14
16.97
11.50
5.32
-2.02
-10.83
-20.98
-31.90
-42.61
-52.04
-59.32
-63.95
-65.80
-65.03
-62.02
-57.20
-51.09
-44.18
-36.93
-29.60
-22.27
-14.96
-7.74
-0.92
5.01
9.51
12.25
13.31
13.14
12.39
11.66
11.24
11.16
11.23
11.29
11.30
11.35
11.55
11.87
12.12
11.96
11.11
9.42
6.94
3.94
0.74
-2.36
-5.14
-7.61
-9.90
-12.24
-14.94
-18.29
-22.51
-27.66
-33.58
-39.84
-45.71
-50.27
-52.57
-51.85
-47.77
-40.54
-30.91
-19.93
-8.66
2.02
11.57
19.72
26.36
31.36
34.56
35.90
35.60
34.27
32.78
32.12
32.98
35.56
39.54
44.26
49.03
53.47
57.56
61.51
65.52
69.53
73.13
75.72
76.69
75.66
72.45
67.09
59.73
50.58
40.02
28.61
17.08
6.11
-3.85
-12.76
-20.88
-28.53
-35.74
-42.16
-47.08
-49.77
-49.79
-47.15
-42.27
-35.78
-28.34
-20.45
-12.53
-4.97
1.80
7.42
11.68
14.60
16.40
17.39
17.84
17.90
17.63
17.04
16.14
15.02
13.79
12.58
11.51
10.71
10.19
9.90
9.71
9.49
9.10
8.44
7.41
5.85
3.61
0.55
-3.30
-7.72
-12.33
-16.71
-20.52
-23.61
-26.08
-28.19
-30.35
-32.91
-36.06
-39.61
-42.96
-45.21
-45.37
-42.77
-37.23
-29.23
-19.65
-9.50
0.32
9.25
16.91
23.10
27.65
30.42
31.41
30.83
29.15
26.94
24.78
23.05
21.86
21.06
20.35
19.49
18.32
16.87
15.28
13.73
12.35
11.14
9.95
8.55
6.70
4.16
0.78
-3.49
-8.52
-14.04
-19.66
-25.01
-29.84
-34.18
-38.25
-42.40
-46.91
-51.72
-56.38
-60.05
-61.81
-60.88
-56.98
-50.36
-41.73
-32.02
-22.15
-12.75
-4.21
3.31
9.70
14.76
18.26
20.00
19.97
18.47
16.07
13.43
11.10
9.36
8.15
7.23
6.35
5.42
4.52
3.82
3.45
3.42
3.55
3.63
3.43
2.81
1.75
0.25
-1.65
-4.00
-6.90
-10.50
-14.99
-20.42
-26.62
-33.12
-39.07
-43.42
-45.16
-43.56
-38.51
-30.51
-20.59
-10.01
0.08
8.88
16.08
21.71
25.96
28.99
30.87
31.60
31.24
29.97
28.06
25.84
23.53
21.27
19.06
16.93
14.90
13.05
11.43
10.00
8.57
6.89
4.73
1.98
-1.25
-4.72
-8.11
-11.19
-13.94
-16.50
-19.15
-22.17
-25.78
-30.07
-34.95
-40.07
-44.83
-48.37
-49.79
-48.37
-43.85
-36.51
-27.12
-16.66
-6.05
4.03
13.19
21.18
27.79
32.78
35.96
37.29
36.94
35.31
32.90
30.17
27.45
24.93
22.65
20.64
18.91
17.52
16.46
15.62
14.75
13.53
11.66
8.98
5.55
1.60
-2.51
-6.45
-9.98
-13.03
-15.73
-18.27
-20.97
-24.09
-27.88
-32.41
-37.49
-42.60
-46.92
-49.51
-49.55
-46.61
-40.83
-32.83
-23.51
-13.82
-4.45
4.20
11.95
18.68
24.27
28.52
31.31
32.60
32.57
31.49
29.76
27.77
25.80
23.96
22.23
20.48
18.58
16.47
14.14
11.65
9.02
6.19
3.06
-0.44
-4.26
-8.17
-11.83
-14.98
-17.51
-19.62
-21.69
-24.10
-27.13
-30.78
-34.83
-38.92
-42.60
-45.38
-46.78
-46.33
-43.66
-38.66
-31.53
-22.78
-13.09
-3.11
6.67
15.91
24.30
31.48
37.04
40.64
42.16
41.80
40.04
37.42
34.41
31.26
28.13
25.08
22.26
19.81
17.79
16.11
14.49
12.56
10.05
6.81
2.96
-1.21
-5.29
-8.90
-11.79
-13.95
-15.67
-17.52
-20.19
-24.19
-29.59
-35.87
-41.99
-46.77
-49.16
-48.70
-45.48
-40.00
-32.93
-24.81
-15.94
-6.52
3.24
12.95
22.01
29.75
35.56
39.10
40.41
39.83
37.95
35.31
32.33
29.22
26.07
22.96
20.09
17.63
15.70
14.18
12.71
10.82
8.09
4.38
-0.17
-5.18
-10.20
-14.88
-19.03
-22.62
-25.78
-28.80
-32.06
-35.93
-40.57
-45.79
-50.85
-54.65
-55.98
-53.92
-48.14
-39.01
-27.43
-14.58
-1.58
10.70
21.69
31.00
38.38
43.70
46.93
48.25
47.98
46.58
44.55
42.29
40.12
38.15
36.38
34.74
33.17
31.64
30.12
28.58
26.84
24.70
21.90
18.29
13.92
9.09
4.24
-0.17
-3.84
-6.81
-9.48
-12.44
-16.34
-21.53
-27.92
-34.86
-41.33
-46.13
-48.24
-47.07
-42.54
-35.06
-25.36
-14.28
-2.61
8.94
19.76
29.31
37.03
42.38
45.00
44.97
42.89
39.84
37.06
35.54
35.57
36.67
37.91
38.37
37.71
36.31
35.14
35.26
37.34
41.47
47.29
54.27
61.84
69.39
76.09
80.84
82.49
80.22
73.94
64.38
52.87
40.89
29.95
21.67
18.24
22.63
38.28
67.79
111.21
164.70
220.68
269.53
302.66
315.37
308.23
286.33
256.85
226.05
197.34
170.99
145.32
118.21
88.05
53.95
15.72
-25.99
-69.03
-109.35
-141.52
-160.45
-163.47
-151.77
-130.13
-105.07
-82.31
-64.86
-52.72
-43.84
-35.75
-26.74
-16.33
-5.03
5.98
15.05
20.14
19.23
10.96
-4.67
-25.80
-48.93
-69.83
-84.78
-91.72
-90.94
-84.97
-77.76
-73.32
-74.34
-81.41
-93.05
-106.73
-120.02
-131.39
-140.34
-146.90
-151.13
-152.77
-151.38
-146.53
-138.09
-126.27
-111.87
-96.27
-81.37
-69.16
-60.92
-56.49
-54.11
-51.05
-44.93
-34.84
-21.75
-7.95
4.15
13.07
18.56
21.28
22.04
21.29
18.86
14.30
7.30
-1.94
-12.61
-23.54
-33.59
-42.00
-48.43
-52.67
-54.23
-52.16
-45.34
-33.02
-15.51
5.64
27.90
48.57
65.82
79.18
89.16
96.35
100.43
99.91
92.90
78.64
58.69
36.80
17.40
3.34
-5.36
-11.01
-16.24
-21.72
-25.29
-23.23
-12.71
5.92
28.67
49.59
63.31
67.16
61.65
49.49
33.76
16.52
-1.45
-19.96
-38.34
-54.90
-66.91
-71.52
-66.99
-53.61
-33.85
-11.62
9.07
25.38
36.32
42.50
45.26
45.81
44.72
42.06
37.97
33.03
28.21
24.28
20.95
16.67
9.19
-3.29
-20.91
-41.69
-62.04
-78.23
-87.79
-90.47
-88.01
-83.21
-78.62
-75.65
-74.39
-74.17
-74.23
-74.28
-74.58
-75.71
-78.13
-81.95
-86.89
-92.44
-98.00
-102.83
-105.73
-105.05
-98.93
-85.92
-65.70
-39.31
-8.82
23.34
54.93
84.03
108.68
126.55
135.23
133.08
120.28
99.50
75.27
52.56
34.98
23.59
17.01
12.49
7.42
0.35
-8.67
-18.64
-28.38
-37.04
-44.38
-50.47
-55.45
-59.45
-62.57
-65.12
-67.68
-70.94
-75.39
-81.06
-87.31
-93.04
-96.98
-98.26
-96.76
-93.25
-89.17
-86.02
-84.87
-85.81
-87.57
-87.48
-81.84
-66.99
-40.67
-3.48
40.52
84.51
120.84
143.50
149.98
141.70
123.06
99.47
75.69
54.82
38.35
26.64
19.38
15.79
14.62
14.30
13.25
10.32
5.09
-2.05
-10.24
-18.47
-26.00
-32.70
-39.05
-45.98
-54.43
-64.66
-75.95
-86.62
-94.63
-98.53
-98.30
-95.53
-93.00
-93.60
-99.26
-110.16
-124.40
-138.17
-146.43
-143.96
-126.82
-93.90
-47.81
5.34
57.58
101.61
133.08
151.59
159.80
161.44
159.13
153.49
143.75
129.29
111.03
91.61
74.43
62.03
54.95
51.72
49.87
47.40
43.70
39.60
36.56
35.62
36.75
38.93
40.79
41.33
40.40
38.54
36.50
34.76
33.30
31.64
29.27
26.00
22.07
18.07
14.62
12.12
10.52
9.35
7.89
5.54
2.12
-1.94
-5.74
-8.21
-8.64
-7.06
-4.26
-1.47
0.09
-0.30
-2.77
-6.92
-12.10
-17.58
-22.72
-27.08
-30.51
-33.25
-35.93
-39.27
-43.75
-49.17
-54.62
-58.79
-60.72
-60.30
-58.54
-57.08
-57.44
-60.32
-65.24
-70.90
-75.86
-79.38
-81.72
-84.13
-88.00
-94.05
-101.86
-110.05
-117.18
-122.80
-127.95
-134.74
-144.95
-158.37
-171.86
-179.81
-175.91
-155.34
-116.64
-62.37
1.55
67.16
126.15
171.29
197.82
204.63
194.93
175.79
156.27
144.58
145.32
158.12
178.27
199.08
214.48
220.92
217.56
205.38
185.90
160.40
129.94
95.83
60.11
25.38
-5.70
-31.05
-49.72
-61.91
-68.92
-72.62
-75.03
-77.82
-82.12
-88.41
-96.39
-104.93
-111.87
-114.28
-108.98
-93.62
-67.75
-33.38
5.25
42.91
74.98
98.74
113.67
120.87
121.86
117.72
108.96
96.12
80.56
64.66
51.24
42.39
38.40
37.57
36.95
33.74
26.41
15.14
1.29
-13.47
-27.86
-41.17
-53.07
-63.30
-71.65
-78.18
-83.43
-88.38
-94.14
-101.51
-110.69
-121.23
-132.28
-142.66
-151.22
-157.07
-159.76
-159.55
-157.39
-154.68
-152.75
-152.01
-151.45
-148.25
-138.33
-117.56
-83.51
-37.03
17.13
71.15
116.38
146.03
157.20
151.54
134.11
111.38
89.04
70.79
57.96
50.10
45.73
43.04
40.41
36.64
31.09
23.67
14.86
5.51
-3.41
-11.08
-17.21
-22.17
-27.09
-33.46
-42.59
-55.00
-70.05
-86.10
-101.18
-113.64
-122.81
-129.10
-133.54
-137.02
-139.42
-139.15
-133.17
-117.86
-90.35
-50.12
-0.05
53.69
102.99
140.12
160.04
161.70
148.00
124.39
96.87
70.35
47.62
29.50
15.38
4.16
-5.30
-13.92
-22.48
-31.58
-41.36
-51.21
-59.79
-65.36
-66.59
-63.48
-57.72
-52.35
-50.74
-55.26
-66.49
-83.16
-103.03
-124.16
-145.69
-167.88
-191.25
-215.45
-238.53
-257.09
-267.27
-266.13
-252.75
-228.43
-195.88
-158.20
-117.93
-76.88
-36.58
1.30
34.93
63.03
85.87
105.59
125.67
149.24
177.21
207.28
234.25
251.93
255.74
244.81
222.50
195.12
169.41
150.04
138.24
132.18
128.57
124.57
119.06
112.51
106.04
100.37
95.22
89.67
82.87
74.59
65.15
54.78
42.88
27.83
7.64
-18.80
-50.38
-83.15
-110.86
-126.47
-124.44
-102.81
-64.16
-15.02
36.10
81.40
115.89
138.20
150.15
155.54
158.78
163.66
172.45
185.03
198.69
208.67
209.67
197.73
171.61
133.01
85.45
32.65
-22.79
-79.35
-135.65
-189.25
-236.19
-271.52
-290.48
-290.10
-270.70
-236.92
-197.59
-163.97
-146.27
-149.83
-172.54
-205.22
-235.06
-250.67
-246.15
-222.35
-184.98
-140.94
-95.16
-49.63
-4.42
40.27
82.92
120.76
151.09
172.68
186.21
193.85
197.82
199.18
197.05
189.08
172.74
146.87
112.92
75.06
39.09
10.33
-8.34
-17.59
-21.17
-24.07
-30.42
-41.80
-57.03
-73.21
-87.29
-97.32
-102.78
-104.19
-102.28
-97.65
-90.79
-82.51
-74.15
-67.42
-63.67
-63.11
-64.34
-64.59
-60.54
-49.54
-30.40
-3.60
29.26
66.39
106.53
148.87
192.54
235.75
275.49
308.07
330.30
340.64
339.73
329.93
314.18
294.87
273.22
249.54
223.91
196.96
170.02
144.69
122.15
102.59
85.17
68.38
50.72
31.37
10.40
-11.16
-31.81
-50.10
-65.07
-76.60
-85.36
-92.52
-99.31
-106.51
-114.21
-121.65
-127.37
-129.60
-126.69
-117.54
-101.92
-80.67
-55.33
-27.83
0.10
27.22
52.79
76.35
97.36
115.22
129.37
139.74
146.92
152.10
156.78
162.26
169.29
177.78
186.54
193.09
193.91
185.06
163.55
128.70
82.99
31.78
-18.18
-60.97
-93.12
-114.20
-126.12
-131.62
-132.98
-131.51
-127.91
-122.98
-118.03
-114.76
-114.48
-117.44
-122.43
-127.11
-128.87
-125.76
-117.07
-103.41
-86.26
-67.21
-47.43
-27.41
-7.20
13.18
33.33
52.32
68.91
81.90
90.63
95.14
96.15
94.79
92.17
89.08
85.87
82.56
78.98
75.00
70.65
66.11
61.63
57.45
53.64
50.04
46.30
41.95
36.64
30.22
22.87
14.98
7.04
-0.55
-7.63
-14.27
-20.72
-27.26
-34.22
-41.82
-50.14
-58.99
-67.79
-75.55
-81.01
-82.97
-80.60
-73.76
-63.10
-49.86
-35.54
-21.50
-8.63
2.68
12.44
20.83
27.97
33.83
38.32
41.55
44.02
46.71
50.89
57.80
68.32
82.65
100.26
119.71
138.74
154.38
163.45
163.28
152.66
132.55
106.13
78.00
52.84
33.88
21.90
15.25
10.59
4.13
-7.06
-24.14
-46.03
-69.62
-90.52
-104.40
-108.13
-100.75
-83.67
-60.18
-34.62
-11.22
6.73
17.42
20.66
17.77
11.11
3.41
-3.00
-6.73
-7.71
-6.87
-5.66
-5.36
-6.66
-9.60
-13.63
-17.94
-21.75
-24.50
-26.02
-26.53
-26.60
-26.92
-28.10
-30.47
-34.00
-38.37
-43.15
-47.91
-52.29
-55.95
-58.62
-60.08
-60.27
-59.35
-57.67
-55.60
-53.33
-50.79
-47.78
-44.25
-40.43
-36.78
-33.72
-31.24
-28.77
-25.28
-19.74
-11.62
-1.10
10.97
23.46
35.30
45.77
54.48
61.25
65.95
68.41
68.60
66.75
63.40
59.39
55.56
52.53
50.41
48.88
47.35
45.26
42.39
38.85
35.02
31.26
27.76
24.42
20.98
17.18
12.96
8.50
4.04
-0.21
-4.21
-8.08
-12.05
-16.29
-20.86
-25.75
-30.80
-35.83
-40.52
-44.36
-46.74
-47.00
-44.65
-39.63
-32.35
-23.62
-14.44
-5.68
2.09
8.65
14.00
18.22
21.30
23.11
23.50
22.44
20.15
17.13
14.01
11.37
9.54
8.50
7.97
7.55
6.94
5.91
4.46
2.55
0.21
-2.58
-5.77
-9.19
-12.62
-15.77
-18.53
-20.96
-23.32
-25.97
-29.20
-33.11
-37.53
-42.09
-46.21
-49.27
-50.64
-49.86
-46.71
-41.31
-34.10
-25.78
-17.09
-8.71
-1.04
5.72
11.57
16.50
20.44
23.20
24.57
24.46
22.94
20.34
17.17
13.97
11.20
9.12
7.72
6.85
6.21
5.55
4.66
3.40
1.70
-0.45
-3.06
-6.01
-9.16
-12.31
-15.31
-18.04
-20.51
-22.80
-25.03
-27.32
-29.80
-32.55
-35.47
-38.15
-39.85
-39.61
-36.61
-30.46
-21.42
-10.36
1.46
12.79
22.78
31.16
38.14
44.13
49.54
54.56
59.11
62.92
65.65
67.12
67.58
67.38
67.06
67.49
69.94
75.97
86.95
102.98
122.48
142.14
157.20
163.26
158.12
142.82
121.14
97.98
76.97
59.47
44.53
29.06
9.63
-15.66
-46.43
-80.19
-113.19
-141.98
-163.66
-176.12
-179.13
-173.87
-161.80
-144.22
-121.94
-92.80
-56.70
-16.86
27.00
75.37
125.89
173.36
210.71
231.24
231.35
211.84
178.39
139.44
102.07
69.73
42.16
16.73
-9.34
-37.09
-65.53
-91.48
-110.50
-118.87
-114.54
-97.74
-71.35
-40.58
-11.59
9.99
20.79
20.40
10.30
-7.12
-29.31
-53.85
-78.13
-99.02
-113.17
-117.55
-110.53
-92.83
-67.54
-38.96
-11.23
12.73
31.66
45.58
55.10
60.80
62.97
61.75
57.39
50.47
41.64
31.36
19.55
5.55
-11.62
-32.78
-57.96
-85.87
-113.62
-137.17
-152.37
-156.44
-149.33
-133.97
-115.51
-99.52
-90.08
-88.49
-93.29
-101.36
-109.47
-115.55
-119.28
-121.62
-124.16
-128.40
-135.26
-144.95
-156.83
-169.25
-179.45
-183.74
-178.34
-160.52
-130.00
-89.55
-44.61
-1.60
34.02
59.35
74.42
81.24
82.40
79.82
74.47
66.79
57.44
47.65
39.05
33.01
30.10
29.96
31.63
34.14
36.94
40.00
43.52
47.53
51.65
55.11
56.95
56.45
53.41
48.17
41.46
34.02
26.30
18.27
9.55
-0.28
-11.32
-23.19
-35.00
-45.50
-53.36
-57.48
-57.25
-52.67
-44.44
-33.78
-22.17
-10.95
-1.11
6.90
13.02
17.33
19.86
20.50
19.11
15.82
11.11
5.84
0.95
-2.87
-5.46
-7.26
-9.04
-11.55
-15.16
-19.75
-24.75
-29.47
-33.39
-36.38
-38.68
-40.75
-43.02
-45.75
-48.93
-52.36
-55.82
-59.17
-62.49
-65.94
-69.76
-74.06
-78.84
-83.88
-88.77
-92.90
-95.56
-95.98
-93.57
-88.05
-79.61
-68.90
-56.85
-44.47
-32.59
-21.74
-12.24
-4.33
1.79
5.92
8.01
8.27
7.15
5.20
2.88
0.42
-2.16
-4.90
-7.81
-10.70
-13.31
-15.38
-16.78
-17.52
-17.77
-17.77
-17.78
-18.04
-18.76
-20.08
-22.07
-24.66
-27.74
-31.23
-35.21
-39.97
-46.06
-53.91
-63.72
-75.05
-86.75
-97.17
-104.50
-107.34
-104.95
-97.36
-84.98
-68.38
-47.94
-23.98
3.00
31.96
61.28
88.93
112.84
131.47
144.03
150.65
152.19
149.93
145.20
139.07
132.26
125.18
118.12
111.41
105.47
100.60
96.70
93.23
89.17
83.55
75.77
66.02
55.15
44.29
34.41
25.92
18.64
12.02
5.36
-1.84
-9.82
-18.55
-27.71
-36.65
-44.40
-49.78
-51.72
-49.58
-43.42
-34.01
-22.54
-10.31
1.72
12.96
23.17
32.18
39.75
45.52
49.22
50.78
50.48
48.83
46.40
43.69
41.02
38.63
36.67
35.33
34.78
35.02
35.86
36.79
37.12
36.22
33.72
29.65
24.46
18.83
13.42
8.71
4.83
1.50
-1.81
-5.75
-10.93
-17.60
-25.52
-33.91
-41.52
-46.98
-49.18
-47.61
-42.46
-34.46
-24.61
-13.84
-2.82
8.04
18.46
28.07
36.38
42.79
46.81
48.34
47.71
45.69
43.25
41.20
39.98
39.49
39.28
38.74
37.49
35.43
32.81
30.03
27.40
24.97
22.54
19.73
16.28
12.16
7.62
3.09
-1.14
-5.01
-8.82
-13.07
-18.18
-24.30
-31.13
-37.91
-43.58
-46.98
-47.16
-43.64
-36.57
-26.74
-15.37
-3.78
6.96
16.28
24.11
30.65
36.11
40.47
43.51
44.96
44.71
42.97
40.24
37.12
34.10
31.41
28.98
26.60
24.06
21.31
18.43
15.51
12.58
9.57
6.30
2.67
-1.29
-5.43
-9.63
-13.90
-18.50
-23.83
-30.24
-37.72
-45.76
-53.36
-59.25
-62.27
-61.65
-57.21
-49.34
-38.90
-26.93
-14.47
-2.39
8.67
18.34
26.41
32.86
37.70
41.00
42.84
43.38
42.79
41.29
39.12
36.53
33.81
31.22
29.08
27.54
26.59
25.96
25.15
23.66
21.05
17.16
12.10
6.22
-0.02
-6.20
-12.05
-17.56
-22.94
-28.61
-34.97
-42.22
-50.11
-57.86
-64.30
-68.12
-68.30
-64.44
-56.84
-46.43
-34.40
-21.89
-9.68
1.84
12.57
22.52
31.54
39.32
45.41
49.47
51.35
51.24
49.53
46.70
43.22
39.50
35.90
32.71
30.14
28.21
26.68
25.04
22.60
18.73
13.04
5.56
-3.31
-12.91
-22.51
-31.53
-39.69
-47.06
-54.01
-61.16
-69.07
-77.99
-87.56
-96.81
-104.39
-108.99
-109.86
-106.95
-100.71
-91.65
-80.01
-65.71
-48.68
-29.06
-7.40
15.43
38.45
60.56
80.61
97.33
109.60
116.75
118.99
117.40
113.60
109.12
104.94
101.24
97.54
93.22
87.87
81.41
74.04
66.03
57.49
48.60
39.56
30.58
21.90
13.76
6.28
-0.49
-6.71
-12.68
-18.46
-24.03
-29.23
-33.81
-37.26
-39.04
-38.38
-34.88
-28.71
-19.70
-8.19
4.95
18.50
31.39
42.72
52.72
61.66
69.43
77.41
86.44
96.32
105.87
113.81
118.85
121.73
123.46
124.53
127.85
135.46
147.42
161.76
175.76
186.20
193.11
197.19
199.23
204.00
215.82
236.58
264.56
295.49
322.74
342.82
353.44
330.23
260.97
150.51
20.14
-104.83
-197.65
-260.60
-298.43
-314.64
-312.61
-294.04
-263.04
-227.30
-195.72
-174.14
-164.32
-160.71
-156.67
-148.20
-131.97
-107.74
-77.91
-46.25
-16.12
9.63
31.87
52.31
72.17
93.43
116.41
138.72
155.81
162.98
156.92
138.77
112.13
81.19
50.04
20.81
-6.65
-33.97
-63.06
-95.43
-130.75
-167.35
-202.40
-231.73
-251.17
-258.20
-253.38
-240.57
-225.80
-214.44
-209.14
-208.87
-209.70
-206.97
-197.47
-180.65
-158.18
-132.71
-106.50
-80.90
-56.61
-34.28
-14.89
0.39
10.66
16.02
17.59
17.36
17.40
19.23
23.29
28.87
34.54
38.72
40.32
39.07
35.56
30.88
26.17
22.17
19.04
16.42
13.74
10.57
6.83
2.78
-1.16
-4.71
-7.79
-10.62
-13.39
-16.08
-18.28
-19.24
-18.19
-14.61
-8.55
-0.62
8.16
16.69
24.12
29.97
34.10
36.56
37.46
36.90
35.06
32.26
28.98
25.72
22.87
20.48
18.36
16.21
13.79
11.10
8.27
5.50
2.88
0.33
-2.37
-5.41
-8.82
-12.48
-16.18
-19.72
-23.04
-26.17
-29.21
-32.24
-35.34
-38.55
-41.94
-45.47
-48.95
-51.88
-53.55
-53.23
-50.46
-45.26
-38.24
-30.33
-22.49
-15.43
-9.51
-4.81
-1.33
0.94
2.05
2.19
1.76
1.24
1.10
1.57
2.58
3.87
5.16
6.25
7.07
7.62
7.88
7.80
7.26
6.25
4.80
3.00
0.96
-1.22
-3.51
-5.87
-8.30
-10.80
-13.50
-16.55
-20.12
-24.21
-28.52
-32.42
-35.07
-35.68
-33.83
-29.54
-23.31
-15.89
-8.05
-0.45
6.48
12.39
17.03
20.19
21.81
22.03
21.16
19.68
17.93
16.14
14.30
12.31
10.10
7.76
5.54
3.69
2.34
1.40
0.59
-0.45
-1.95
-3.96
-6.35
-8.92
-11.41
-13.62
-15.40
-16.64
-17.37
-17.83
-18.44
-19.70
-21.90
-24.94
-28.20
-30.73
-31.50
-29.87
-25.65
-19.28
-11.47
-3.09
5.11
12.58
18.89
23.77
27.03
28.59
28.54
27.09
24.61
21.54
18.32
15.30
12.76
10.86
9.71
9.32
9.63
10.43
11.37
11.97
11.73
10.29
7.55
3.75
-0.66
-5.20
-9.51
-13.48
-17.27
-21.19
-25.52
-30.36
-35.49
-40.40
-44.29
-46.30
-45.70
-42.14
-35.80
-27.38
-17.88
-8.42
0.10
7.11
12.39
15.94
17.90
18.44
17.69
15.86
13.27
10.33
7.51
5.19
3.53
2.45
1.67
0.80
-0.48
-2.34
-4.80
-7.75
-11.09
-14.74
-18.70
-22.98
-27.50
-32.17
-36.86
-41.59
-46.49
-51.80
-57.65
-63.81
-69.53
-73.64
-74.84
-72.18
-65.47
-55.33
-43.00
-29.90
-17.20
-5.54
4.83
13.86
21.48
27.47
31.56
33.68
33.97
32.90
31.06
28.97
27.00
25.25
23.64
22.00
20.16
17.99
15.41
12.42
9.04
5.33
1.30
-3.04
-7.68
-12.51
-17.45
-22.41
-27.49
-32.98
-39.28
-46.63
-54.79
-62.90
-69.49
-73.03
-72.35
-67.05
-57.63
-45.22
-31.12
-16.49
-2.06
11.71
24.50
35.91
45.39
52.41
56.66
58.21
57.55
55.42
52.61
49.70
46.96
44.41
41.98
39.61
37.26
34.89
32.33
29.38
25.80
21.51
16.64
11.40
6.08
0.81
-4.41
-9.77
-15.52
-21.92
-29.10
-36.97
-45.10
-52.67
-58.54
-61.46
-60.40
-54.91
-45.27
-32.43
-17.71
-2.41
12.47
26.26
38.52
48.85
56.84
62.12
64.57
64.44
62.37
59.23
55.84
52.79
50.35
48.47
46.95
45.56
44.08
42.32
40.08
37.18
33.48
28.91
23.56
17.71
11.70
5.83
0.27
-5.07
-10.47
-16.26
-22.76
-30.06
-37.90
-45.58
-51.99
-55.84
-55.98
-51.73
-43.20
-31.22
-17.10
-2.23
12.25
25.57
37.23
46.85
54.07
58.61
60.43
59.86
57.54
54.25
50.75
47.56
44.92
42.86
41.24
39.92
38.72
37.48
35.99
34.03
31.33
27.77
23.35
18.28
12.90
7.56
2.49
-2.26
-6.84
-11.49
-16.51
-22.13
-28.49
-35.46
-42.50
-48.68
-52.75
-53.46
-50.07
-42.60
-31.82
-19.00
-5.48
7.74
19.96
30.75
39.68
46.28
50.24
51.54
50.64
48.35
45.56
42.90
40.65
38.75
36.99
35.25
33.56
31.99
30.59
29.25
27.71
25.69
22.98
19.55
15.58
11.32
7.08
3.04
-0.77
-4.44
-8.16
-12.12
-16.53
-21.54
-27.27
-33.66
-40.36
-46.65
-51.50
-53.74
-52.45
-47.26
-38.49
-27.08
-14.31
-1.46
10.39
20.53
28.58
34.41
38.05
39.66
39.48
37.86
35.26
32.19
29.19
26.71
24.97
23.92
23.28
22.71
21.87
20.60
18.83
16.58
13.84
10.60
6.89
2.81
-1.46
-5.71
-9.73
-13.51
-17.16
-20.96
-25.27
-30.35
-36.19
-42.42
-48.21
-52.49
-54.19
-52.59
-47.51
-39.43
-29.23
-18.00
-6.69
3.99
13.56
21.70
28.09
32.46
34.65
34.74
33.12
30.37
27.17
24.06
21.35
19.07
17.17
15.51
14.02
12.63
11.21
9.60
7.59
4.98
1.71
-2.15
-6.39
-10.75
-14.98
-19.01
-22.89
-26.84
-31.12
-36.00
-41.60
-47.83
-54.28
-60.22
-64.70
-66.78
-65.79
-61.54
-54.34
-44.91
-34.07
-22.61
-11.12
-0.04
10.26
19.35
26.81
32.27
35.55
36.73
36.15
34.36
31.91
29.34
26.93
24.77
22.79
20.85
18.86
16.83
14.83
12.85
10.74
8.22
5.02
1.07
-3.43
-8.10
-12.49
-16.40
-19.92
-23.42
-27.38
-32.17
-37.91
-44.39
-51.12
-57.39
-62.34
-65.10
-64.92
-61.42
-54.70
-45.27
-33.97
-21.67
-9.04
3.43
15.41
26.55
36.38
44.38
50.11
53.41
54.44
53.69
51.81
49.39
46.84
44.31
41.77
39.11
36.23
33.16
30.01
26.88
23.77
20.52
16.86
12.55
7.47
1.77
-4.19
-10.01
-15.38
-20.22
-24.73
-29.29
-34.31
-40.11
-46.78
-54.13
-61.60
-68.37
-73.45
-75.87
-74.92
-70.40
-62.58
-52.17
-39.98
-26.77
-13.09
0.66
14.07
26.64
37.71
46.62
52.91
56.42
57.34
56.17
53.58
50.25
46.80
43.66
41.06
38.97
37.27
35.71
34.07
32.20
29.99
27.31
24.01
19.92
14.96
9.26
3.12
-3.03
-8.82
-14.11
-18.98
-23.71
-28.67
-34.13
-40.25
-47.04
-54.38
-61.95
-69.20
-75.32
-79.35
-80.39
-77.85
-71.69
-62.30
-50.43
-36.94
-22.58
-7.96
6.40
19.95
32.07
42.15
49.68
54.45
56.53
56.36
54.59
51.94
49.08
46.48
44.35
42.64
41.14
39.59
37.78
35.63
33.16
30.42
27.44
24.19
20.57
16.49
11.91
6.89
1.54
-3.97
-9.45
-14.75
-19.79
-24.62
-29.38
-34.32
-39.72
-45.76
-52.43
-59.43
-66.09
-71.46
-74.47
-74.17
-70.01
-61.99
-50.71
-37.17
-22.54
-7.85
6.13
18.94
30.27
39.83
47.26
52.26
54.76
55.01
53.67
51.53
49.33
47.48
46.04
44.84
43.62
42.20
40.59
38.78
36.79
34.52
31.83
28.61
24.86
20.68
16.22
11.66
7.12
2.66
-1.75
-6.21
-10.83
-15.76
-21.06
-26.77
-32.85
-39.31
-46.16
-53.39
-60.81
-67.90
-73.78
-77.38
-77.74
-74.38
-67.46
-57.78
-46.42
-34.41
-22.39
-10.63
0.83
11.85
22.05
30.76
37.30
41.25
42.64
42.05
40.34
38.39
36.85
35.97
35.63
35.50
35.33
34.99
34.48
33.87
33.09
31.89
29.94
26.90
22.72
17.66
12.23
6.99
2.32
-1.76
-5.55
-9.57
-14.30
-20.05
-26.82
-34.40
-42.37
-50.13
-56.93
-61.93
-64.27
-63.26
-58.59
-50.43
-39.45
-26.60
-12.93
0.71
13.63
25.36
35.47
43.56
49.32
52.58
53.52
52.61
50.55
48.04
45.60
43.44
41.50
39.58
37.48
35.13
32.61
30.07
27.63
25.27
22.80
19.90
16.29
11.76
6.41
0.55
-5.36
-10.96
-16.03
-20.68
-25.18
-29.87
-35.06
-40.91
-47.48
-54.68
-62.16
-69.24
-74.85
-77.81
-77.09
-72.28
-63.67
-52.13
-38.81
-24.69
-10.43
3.57
16.98
29.35
40.10
48.68
54.72
58.21
59.48
58.99
57.27
54.79
51.96
49.12
46.52
44.23
42.19
40.15
37.85
35.10
31.85
28.16
24.06
19.55
14.57
9.13
3.36
-2.45
-7.96
-12.92
-17.29
-21.25
-25.19
-29.51
-34.59
-40.61
-47.50
-54.86
-61.95
-67.72
-71.06
-71.04
-67.16
-59.54
-48.83
-36.08
-22.37
-8.61
4.59
16.87
27.94
37.47
45.09
50.42
53.34
53.99
52.87
50.63
47.89
45.10
42.48
40.05
37.78
35.63
33.63
31.79
30.07
28.28
26.16
23.44
19.92
15.59
10.65
5.48
0.45
-4.15
-8.29
-12.18
-16.19
-20.65
-25.81
-31.74
-38.36
-45.38
-52.27
-58.27
-62.39
-63.71
-61.61
-56.03
-47.46
-36.78
-24.88
-12.47
-0.03
12.09
23.40
33.28
41.03
46.18
48.65
48.86
47.53
45.49
43.38
41.53
39.92
38.41
36.77
34.95
32.98
30.99
29.06
27.14
25.06
22.59
19.53
15.82
11.57
7.00
2.40
-2.02
-6.09
-9.83
-13.37
-16.92
-20.80
-25.24
-30.42
-36.26
-42.41
-48.18
-52.63
-54.72
-53.64
-49.02
-41.00
-30.23
-17.60
-4.09
9.37
21.94
32.90
41.75
48.29
52.77
55.78
58.00
59.93
61.65
62.91
63.32
62.77
61.63
60.72
60.94
62.93
66.64
71.24
75.49
78.26
78.97
77.88
75.91
74.22
73.76
75.16
78.84
84.80
92.29
99.32
102.75
99.18
86.65
66.01
41.04
16.68
-3.63
-19.94
-35.69
-55.62
-82.74
-116.52
-153.11
-187.57
-216.54
-239.54
-258.11
-273.73
-285.85
-291.54
-286.84
-268.80
-236.88
-192.87
-139.81
-80.92
-19.68
39.48
90.67
127.16
143.54
138.17
114.49
80.29
45.08
16.99
1.13
-0.42
12.65
39.60
78.27
124.07
169.53
205.65
224.73
223.20
202.70
168.87
128.83
88.69
52.35
21.92
-1.33
-16.46
-23.14
-22.37
-16.69
-9.55
-3.95
-1.31
-1.29
-2.56
-4.07
-6.05
-9.91
-17.55
-30.10
-47.21
-66.90
-86.38
-103.12
-115.80
-124.69
-131.06
-136.30
-140.90
-144.15
-144.46
-140.26
-130.88
-116.99
-100.42
-83.52
-68.39
-56.40
-48.08
-43.45
-42.53
-45.45
-52.25
-62.28
-73.63
-83.22
-87.53
-83.90
-71.60
-52.36
-29.74
-7.98
9.39
20.40
24.60
22.65
15.57
4.50
-9.21
-23.69
-36.46
-44.97
-47.16
-42.23
-30.71
-14.23
5.24
25.93
46.61
66.25
83.70
97.38
105.38
106.07
98.69
83.84
63.36
39.78
15.52
-7.75
-29.37
-49.54
-68.59
-86.40
-101.95
-113.48
-119.10
-117.57
-109.09
-95.28
-78.78
-62.23
-47.52
-35.27
-25.08
-16.21
-8.16
-0.86
5.58
11.44
17.66
25.56
36.20
49.80
65.61
82.42
99.21
115.53
131.21
145.66
157.40
164.12
163.65
155.14
139.69
119.91
98.60
77.32
55.84
32.89
7.77
-18.17
-41.33
-57.09
-61.88
-54.79
-37.97
-15.47
8.54
31.23
51.49
69.31
84.82
97.80
107.68
114.24
117.87
119.56
120.40
121.06
121.51
121.34
120.22
118.26
116.07
114.38
113.56
113.28
112.55
110.22
105.52
98.52
90.11
81.74
75.17
72.19
74.26
82.03
94.54
108.87
120.37
124.04
116.45
97.27
69.43
37.86
7.42
-18.71
-39.35
-54.64
-64.96
-70.52
-71.74
-69.88
-67.14
-65.95
-67.84
-72.65
-78.76
-84.11
-87.18
-87.48
-85.12
-80.10
-72.16
-61.20
-48.03
-34.54
-23.14
-15.73
-12.80
-13.27
-15.22
-16.87
-17.39
-17.10
-17.17
-18.93
-23.29
-30.10
-37.90
-44.02
-45.29
-39.24
-25.35
-5.90
14.43
29.95
35.84
29.85
13.04
-10.45
-34.68
-53.61
-63.17
-62.63
-54.92
-45.38
-39.27
-39.24
-44.09
-49.51
-50.60
-44.64
-32.72
-19.28
-9.96
-8.81
-16.44
-29.65
-42.79
-49.95
-47.18
-34.00
-13.76
7.34
22.15
24.96
13.61
-9.52
-38.00
-63.23
-77.34
-75.98
-60.09
-35.86
-12.65
0.40
-2.30
-20.93
-50.53
-83.41
-112.28
-132.75
-144.09
-148.53
-149.38
-149.27
-149.09
-147.72
-142.42
-129.58
-105.75
-68.99
-20.30
35.61
90.53
134.48
158.24
156.23
128.36
80.26
21.34
-38.19
-90.35
-130.79
-158.23
-172.64
-173.45
-159.42
-129.88
-86.91
-36.27
13.35
52.78
75.11
77.44
60.91
29.31
-12.58
-60.12
-108.91
-154.72
-193.07
-219.43
-229.98
-222.82
-199.07
-163.38
-123.38
-87.90
-64.56
-57.41
-65.84
-85.29
-109.11
-131.07
-147.12
-155.88
-158.00
-154.95
-147.87
-136.97
-121.64
-101.05
-75.13
-45.21
-14.04
14.99
39.08
57.10
69.88
79.56
88.55
98.21
108.28
117.04
122.01
120.90
112.40
96.72
75.63
52.41
31.24
16.51
11.80
19.05
37.84
65.54
97.78
129.63
156.67
175.85
185.89
187.18
181.42
171.02
158.87
147.86
140.66
139.23
144.36
155.33
169.92
184.84
196.49
201.74
198.35
185.17
162.08
129.92
90.42
46.20
0.40
-43.82
-84.02
-119.07
-149.32
-176.27
-201.79
-227.24
-252.75
-276.87
-296.84
-309.20
-310.83
-300.01
-277.19
-245.16
-208.37
-171.68
-138.89
-111.87
-90.45
-73.31
-59.11
-47.21
-37.82
-31.33
-27.53
-25.39
-23.36
-20.15
-15.40
-9.79
-4.56
-0.72
1.48
2.51
3.19
4.03
4.93
5.19
3.91
0.50
-5.03
-12.11
-19.96
-28.03
-36.32
-45.33
-55.60
-67.06
-78.68
-88.36
-93.50
-91.80
-82.17
-64.95
-41.88
-15.34
12.42
39.83
66.22
91.66
116.70
142.04
168.13
194.79
220.95
244.70
263.75
276.13
280.89
278.43
270.26
258.35
244.45
229.72
214.79
200.03
185.84
172.62
160.56
149.42
138.47
126.85
113.95
99.79
84.93
70.31
56.76
44.74
34.31
25.42
18.30
13.67
12.65
16.28
25.09
38.75
56.08
75.42
95.07
113.63
130.15
144.17
155.69
165.18
173.66
182.42
192.50
204.02
215.52
224.19
226.60
219.92
202.98
176.73
143.89
108.08
72.88
41.21
15.04
-4.62
-17.61
-24.62
-27.01
-26.63
-25.35
-24.77
-25.95
-29.42
-35.33
-43.48
-53.23
-63.44
-72.48
-78.56
-80.32
-77.31
-70.20
-60.54
-50.14
-40.43
-32.04
-24.88
-18.45
-12.36
-6.63
-1.67
1.95
3.81
3.78
2.05
-1.07
-5.28
-10.40
-16.28
-22.78
-29.71
-36.86
-44.01
-51.05
-58.02
-65.03
-72.24
-79.67
-87.24
-94.72
-101.90
-108.71
-115.32
-122.19
-129.98
-139.27
-150.30
-162.66
-175.12
-185.70
-192.08
-192.13
-184.51
-169.09
-146.95
-120.04
-90.65
-60.86
-32.22
-5.66
18.38
39.73
58.42
74.59
88.41
99.99
109.18
115.55
118.47
117.24
111.34
100.59
85.27
66.20
44.71
22.55
1.61
-16.43
-30.51
-40.33
-46.33
-49.38
-50.43
-50.31
-49.74
-49.42
-50.21
-52.98
-58.43
-66.69
-77.05
-87.94
-97.23
-102.84
-103.35
-98.50
-89.11
-76.79
-63.21
-49.59
-36.48
-23.94
-11.80
-0.05
11.13
21.41
30.50
38.17
44.28
48.64
51.03
51.30
49.44
45.73
40.69
34.93
29.02
23.37
18.21
13.65
9.74
6.40
3.52
0.86
-2.00
-5.57
-10.39
-16.86
-25.07
-34.75
-45.34
-56.14
-66.45
-75.55
-82.73
-87.16
-87.98
-84.49
-76.42
-64.22
-49.00
-32.20
-15.17
1.10
16.02
29.15
39.97
47.88
52.39
53.48
51.71
48.14
43.95
40.04
36.83
34.27
32.07
29.92
27.64
25.11
22.22
18.79
14.67
9.79
4.28
-1.58
-7.40
-12.83
-17.66
-21.71
-24.83
-26.89
-27.81
-27.78
-27.40
-27.59
-29.34
-33.26
-39.10
-45.68
-51.06
-53.22
-50.75
-43.33
-31.80
-17.88
-3.48
9.79
20.98
29.74
36.11
40.24
42.34
42.66
41.70
40.23
39.27
39.84
42.77
48.46
56.75
66.96
77.94
88.38
97.04
103.12
106.41
107.25
106.28
104.16
101.22
97.36
92.21
85.39
76.93
67.43
58.16
50.75
46.75
47.11
51.86
59.93
69.30
77.39
81.63
80.13
72.19
58.62
41.53
23.83
8.43
-2.54
-8.14
-8.79
-5.88
-1.32
3.02
5.73
6.08
3.98
-0.20
-5.82
-12.29
-19.14
-25.93
-32.24
-37.64
-41.83
-44.84
-47.14
-49.50
-52.73
-57.29
-63.15
-69.82
-76.58
-82.73
-87.82
-91.65
-94.26
-95.74
-96.07
-95.07
-92.30
-87.15
-79.03
-67.59
-52.92
-35.59
-16.64
2.76
21.45
38.47
53.11
64.89
73.45
78.57
80.27
78.92
75.23
70.12
64.47
58.83
53.31
47.59
41.27
34.15
26.46
18.80
11.91
6.33
2.19
-0.80
-3.18
-5.47
-8.09
-11.31
-15.35
-20.48
-26.96
-34.88
-44.04
-53.82
-63.22
-71.03
-76.19
-77.98
-76.34
-71.77
-65.15
-57.18
-47.97
-36.86
-22.86
-5.45
14.44
34.23
50.21
58.96
58.89
50.96
38.33
25.05
14.42
8.11
6.11
7.60
11.93
19.07
29.19
41.84
55.53
68.08
77.52
82.97
84.70
83.32
78.79
69.90
54.92
32.84
4.40
-27.77
-59.97
-88.72
-111.38
-125.97
-130.61
-122.98
-100.73
-62.43
-8.78
56.70
127.62
195.56
251.61
287.97
299.92
286.94
252.98
205.54
153.64
105.67
67.42
41.34
26.87
21.65
22.90
28.32
36.32
45.51
54.12
59.89
60.67
55.42
45.01
31.92
18.96
7.68
-2.45
-13.72
-28.59
-48.17
-71.44
-95.76
-118.15
-136.50
-149.81
-158.06
-161.48
-160.34
-154.99
-146.22
-135.32
-123.93
-113.62
-105.49
-100.07
-97.42
-97.34
-99.53
-103.67
-109.31
-115.93
-122.84
-129.30
-134.67
-138.45
-140.35
-140.29
-138.36
-134.75
-129.80
-123.92
-117.57
-111.15
-105.01
-99.39
-94.42
-90.12
-86.46
-83.37
-80.88
-79.15
-78.50
-79.37
-82.13
-86.88
-93.24
-100.37
-107.03
-111.91
-113.91
-112.36
-107.20
-98.84
-88.15
-76.15
-63.89
-52.31
-42.19
-34.16
-28.74
-26.23
-26.69
-29.70
-34.37
-39.35
-43.16
-44.61
-43.21
-39.38
-34.31
-29.56
-26.43
-25.49
-26.31
-27.49
-27.05
-22.88
-13.32
2.36
23.69
49.05
75.86
101.22
122.47
137.67
145.85
146.98
141.93
132.22
119.85
107.16
96.36
89.09
86.00
86.67
89.87
94.14
98.32
101.77
104.28
105.79
106.15
105.10
102.47
98.29
92.85
86.59
79.96
73.27
66.66
60.17
53.75
47.36
40.94
34.46
27.93
21.35
14.68
7.80
0.57
-7.01
-14.76
-22.27
-29.06
-34.76
-39.38
-43.26
-46.99
-51.03
-55.57
-60.25
-64.35
-66.93
-67.10
-64.27
-58.33
-49.60
-38.73
-26.58
-14.05
-1.95
9.05
18.40
25.70
30.75
33.55
34.35
33.64
32.04
30.18
28.50
27.24
26.34
25.56
24.60
23.22
21.25
18.67
15.54
12.02
8.28
4.48
0.76
-2.86
-6.39
-9.98
-13.77
-17.98
-22.85
-28.54
-35.02
-41.86
-48.23
-52.95
-54.81
-52.95
-47.15
-37.94
-26.49
-14.15
-2.13
8.81
18.41
26.72
33.89
39.92
44.70
48.03
49.81
50.11
49.19
47.40
45.06
42.41
39.64
36.91
34.40
32.16
30.13
28.05
25.55
22.33
18.27
13.52
8.36
3.14
-1.95
-6.89
-11.88
-17.20
-23.11
-29.78
-37.10
-44.65
-51.65
-57.07
-59.83
-59.11
-54.63
-46.69
-36.11
-23.91
-11.10
1.63
13.80
25.08
35.22
43.94
50.98
56.19
59.57
61.25
61.46
60.40
58.33
55.49
52.19
48.71
45.34
42.20
39.27
36.33
33.11
29.38
25.08
20.35
15.46
10.67
6.11
1.71
-2.79
-7.71
-13.37
-19.91
-27.27
-35.01
-42.40
-48.42
-51.97
-52.15
-48.57
-41.42
-31.48
-19.80
-7.51
4.56
15.83
26.00
34.89
