1605186788.00
64.000000
-0.00
-0.00
-0.00
-0.00
-0.00
-0.00
-0.00
-0.00
-0.00
-0.00
0.00
0.01
0.01
-0.00
-0.03
-0.05
-0.05
0.00
0.13
0.36
0.66
1.01
1.37
1.72
2.06
2.40
2.79
3.24
3.80
4.42
5.06
5.66
6.20
6.68
7.15
7.68
8.31
9.14
10.08
11.03
11.88
12.58
13.18
13.82
14.70
15.93
17.74
19.94
22.32
24.60
26.65
28.56
30.61
33.21
36.62
41.21
46.63
52.40
57.98
63.05
67.67
72.25
77.43
83.64
91.38
100.18
109.33
118.08
125.93
132.91
139.49
146.81
153.37
161.34
171.40
183.91
197.98
210.91
218.36
215.43
198.30
165.67
119.76
64.58
4.94
-55.33
-114.25
-171.54
-227.75
-283.31
-338.07
-390.86
-440.51
-485.60
-524.72
-556.35
-578.98
-591.24
-592.05
-581.11
-558.96
-527.39
-488.74
-444.94
-396.68
-342.99
-281.97
-212.27
-134.63
-52.54
28.32
101.92
163.79
212.12
247.60
272.24
288.07
296.49
298.37
294.54
286.31
275.35
263.18
250.69
237.98
224.60
210.05
194.27
177.76
161.46
146.30
132.84
121.07
110.50
100.48
90.47
80.30
70.17
60.50
51.70
44.05
37.56
32.00
27.03
22.26
17.60
12.97
8.56
4.64
1.48
-0.89
-2.63
-4.05
-5.42
-6.82
-8.14
-9.16
-9.69
-9.75
-9.47
-9.04
-8.60
-8.15
-7.66
-7.13
-6.59
-6.17
-5.93
-5.88
-5.91
-5.88
-5.73
-5.49
-5.29
-5.25
-5.34
-5.40
-5.13
-4.35
-3.06
-1.58
-0.35
0.22
0.00
-0.83
-1.87
-2.73
-3.21
-3.30
-3.19
-3.05
-3.00
-3.03
-3.09
-3.09
-2.97
-2.76
-2.48
-2.19
-1.99
-1.90
-1.90
-1.90
-1.82
-1.62
-1.36
-1.13
-1.02
-1.01
-0.97
-0.77
-0.36
0.22
0.78
1.18
1.35
1.32
1.25
1.27
1.45
1.75
2.07
2.29
2.41
2.45
2.51
2.65
2.94
3.38
3.92
4.47
4.95
5.24
5.25
4.91
4.25
3.31
2.24
1.18
0.20
-0.69
-1.52
-2.34
-3.19
-4.04
-4.87
-5.62
-6.21
-6.64
-6.89
-6.97
-6.89
-6.67
-6.29
-5.77
-5.15
-4.49
-3.89
-3.40
-3.08
-2.88
-2.75
-2.58
-2.29
-1.89
-1.42
-0.99
-0.70
-0.58
-0.63
-0.78
-0.95
-1.08
-1.14
-1.12
-1.04
-0.88
-0.65
-0.37
-0.09
0.11
0.20
0.15
0.01
-0.17
-0.31
-0.37
-0.35
-0.29
-0.22
-0.17
-0.17
-0.22
-0.34
-0.53
-0.79
-1.10
-1.45
-1.80
-2.16
-2.50
-2.82
-3.04
-3.13
-3.06
-2.83
-2.47
-2.03
-1.54
-0.97
-0.31
0.46
1.28
2.04
2.63
3.00
3.19
3.30
3.46
3.68
3.92
4.05
3.97
3.68
3.25
2.82
2.47
2.24
2.08
1.94
1.77
1.55
1.32
1.08
0.87
0.67
0.48
0.27
0.00
-0.31
-0.63
-0.91
-1.09
-1.19
-1.28
-1.50
-1.91
-2.52
-3.23
-3.89
-4.38
-4.64
-4.67
-4.51
-4.18
-3.68
-3.06
-2.35
-1.61
-0.84
-0.05
0.81
1.74
2.64
3.37
3.80
3.85
3.55
3.01
2.41
1.90
1.56
1.41
1.40
1.43
1.36
1.12
0.67
0.09
-0.52
-1.05
-1.38
-1.51
-1.44
-1.24
-1.00
-0.84
-0.84
-1.07
-1.53
-2.11
-2.66
-3.03
-3.12
-2.97
-2.71
-2.51
-2.50
-2.72
-3.13
-3.58
-3.94
-4.15
-4.17
-4.06
-3.86
-3.58
-3.16
-2.51
-1.63
-0.58
0.45
1.24
1.62
1.58
1.23
0.80
0.50
0.45
0.61
0.85
1.00
0.97
0.71
0.31
-0.16
-0.56
-0.80
-0.79
-0.52
-0.03
0.61
1.29
1.95
2.55
3.13
3.66
4.12
4.40
4.43
4.20
3.78
3.34
3.01
2.83
2.73
2.58
2.32
1.97
1.67
1.52
1.57
1.77
2.01
2.24
2.48
2.79
3.22
3.76
4.33
4.84
5.24
5.57
5.90
6.27
6.69
7.03
7.23
7.24
7.11
6.92
6.73
6.54
6.26
5.82
5.12
4.17
3.02
1.75
0.44
-0.86
-2.13
-3.32
-4.40
-5.28
-5.95
-6.40
-6.72
-7.06
-7.59
-8.44
-9.66
-11.13
-12.65
-14.00
-15.02
-15.70
-16.08
-16.25
-16.20
-15.84
-15.03
-13.76
-12.12
-10.34
-8.61
-6.99
-5.39
-3.65
-1.70
0.38
2.37
4.01
5.16
5.82
6.10
6.14
6.03
5.80
5.45
5.00
4.51
4.06
3.70
3.45
3.31
3.28
3.33
3.43
3.54
3.59
3.54
3.37
3.09
2.74
2.33
1.86
1.33
0.77
0.20
-0.35
-0.83
-1.25
-1.56
-1.73
-1.68
-1.39
-0.91
-0.33
0.21
0.66
1.01
1.37
1.82
2.38
3.00
3.55
3.93
4.14
4.24
4.35
4.53
4.75
4.94
4.99
4.90
4.68
4.41
4.15
3.92
3.71
3.47
3.17
2.78
2.29
1.72
1.09
0.47
-0.09
-0.57
-0.98
-1.40
-1.95
-2.69
-3.62
-4.67
-5.72
-6.66
-7.44
-8.01
-8.37
-8.48
-8.31
-7.86
-7.17
-6.35
-5.54
-4.86
-4.38
-4.06
-3.78
-3.43
-2.96
-2.42
-1.93
-1.64
-1.59
-1.76
-2.05
-2.36
-2.65
-2.90
-3.12
-3.32
-3.46
-3.55
-3.60
-3.64
-3.67
-3.71
-3.75
-3.77
-3.80
-3.85
-3.92
-4.00
-4.07
-4.12
-4.14
-4.18
-4.24
-4.29
-4.26
-4.09
-3.75
-3.27
-2.75
-2.23
-1.76
-1.29
-0.72
0.06
1.10
2.37
3.73
5.05
6.28
7.49
8.82
10.38
12.19
14.08
15.82
17.24
18.26
18.93
19.35
19.57
19.57
19.31
18.74
17.90
16.81
15.54
14.10
12.51
10.82
9.10
7.48
6.01
4.70
3.48
2.28
1.05
-0.18
-1.34
-2.38
-3.29
-4.12
-4.90
-5.66
-6.35
-6.86
-7.10
-7.02
-6.67
-6.16
-5.61
-5.08
-4.55
-3.98
-3.30
-2.54
-1.78
-1.13
-0.67
-0.41
-0.27
-0.14
0.04
0.26
0.43
0.45
0.28
-0.01
-0.27
-0.34
-0.16
0.21
0.62
0.87
0.86
0.58
0.12
-0.43
-1.00
-1.57
-2.15
-2.68
-3.09
-3.32
-3.38
-3.38
-3.48
-3.83
-4.46
-5.22
-5.91
-6.29
-6.26
-5.84
-5.17
-4.38
-3.57
-2.74
-1.84
-0.84
0.23
1.29
2.19
2.82
3.16
3.28
3.28
3.29
3.36
3.46
3.58
3.65
3.67
3.65
3.60
3.51
3.36
3.15
2.86
2.51
2.12
1.72
1.30
0.87
0.44
0.05
-0.29
-0.55
-0.80
-1.09
-1.47
-1.97
-2.58
-3.21
-3.81
-4.30
-4.67
-4.94
-5.13
-5.25
-5.28
-5.17
-4.87
-4.38
-3.74
-3.00
-2.22
-1.44
-0.65
0.15
0.96
1.77
2.51
3.13
3.55
3.74
3.73
3.55
3.28
2.98
2.70
2.46
2.30
2.23
2.23
2.27
2.27
2.12
1.76
1.20
0.56
-0.01
-0.39
-0.56
-0.69
-0.99
-1.65
-2.73
-4.10
-5.47
-6.52
-6.97
-6.69
-5.70
-4.20
-2.49
-0.87
0.41
1.21
1.57
1.60
1.44
1.20
0.88
0.50
0.04
-0.40
-0.75
-0.89
-0.84
-0.69
-0.56
-0.54
-0.64
-0.84
-1.08
-1.37
-1.74
-2.19
-2.67
-3.03
-3.12
-2.77
-1.96
-0.80
0.51
1.77
2.83
3.65
4.34
5.11
6.16
7.66
9.65
12.05
14.74
17.59
20.55
23.60
26.68
29.69
32.44
34.75
36.46
37.59
38.24
38.57
38.72
38.72
38.59
38.32
37.88
37.12
35.74
33.27
29.17
23.06
14.87
4.92
-6.10
-17.38
-28.15
-37.82
-46.03
-52.56
-57.37
-60.56
-62.36
-63.10
-63.21
-63.20
-63.43
-64.02
-64.73
-65.10
-64.53
-62.43
-58.42
-52.62
-45.76
-39.01
-33.42
-29.43
-26.60
-23.74
-19.26
-12.01
-2.03
9.05
18.68
24.57
25.71
22.78
17.80
13.54
12.52
16.14
24.31
35.87
49.11
62.09
72.42
76.30
69.76
51.61
25.13
-3.38
-27.90
-44.92
-53.77
-55.94
-53.79
-49.26
-43.41
-36.73
-29.81
-23.45
-18.35
-14.76
-12.60
-11.65
-11.52
-11.51
-10.57
-7.58
-1.54
7.94
20.37
34.06
46.50
55.30
58.92
56.92
49.82
39.28
26.52
13.51
2.54
-4.22
-5.28
-0.44
8.96
20.09
29.58
34.73
34.50
29.41
21.10
11.62
2.81
-4.23
-9.19
-12.37
-14.34
-15.51
-16.07
-16.04
-15.48
-14.34
-12.79
-11.08
-9.43
-7.93
-6.43
-4.83
-3.17
-1.74
-0.90
-0.90
-1.71
-2.98
-4.17
-4.72
-4.32
-3.10
-1.53
-0.23
0.29
-0.15
-1.31
-2.61
-3.20
-2.44
-0.32
2.42
4.67
5.40
4.15
1.29
-2.14
-4.54
-4.64
-2.16
1.88
5.84
8.12
7.80
5.07
1.27
-1.19
0.16
6.78
18.44
33.32
48.35
60.04
65.53
61.52
47.34
26.24
4.44
-12.22
-20.47
-20.31
-14.07
-5.52
1.19
3.30
0.62
-4.11
-6.89
-4.00
5.72
19.65
31.97
36.15
28.54
9.90
-15.54
-42.50
-65.68
-82.40
-92.97
-99.88
-105.65
-111.08
-115.16
-116.36
-113.80
-107.82
-99.97
-91.48
-83.24
-75.47
-67.78
-59.73
-51.42
-43.56
-36.94
-31.93
-27.01
-20.12
-9.14
7.52
30.41
58.62
89.69
120.21
146.54
166.94
180.20
185.71
183.53
174.73
161.27
145.93
131.87
115.04
95.78
76.76
60.18
45.76
31.69
16.77
1.27
-13.52
-26.36
-35.69
-41.46
-44.75
-46.78
-48.15
-48.84
-48.69
-47.82
-46.76
-45.15
-43.03
-40.66
-38.20
-35.57
-32.55
-29.23
-26.02
-23.61
-21.99
-21.18
-21.06
-21.28
-21.23
-20.34
-18.31
-15.26
-11.70
-8.07
-4.92
-2.66
-1.39
-0.87
-0.70
-0.52
-0.23
0.13
0.48
0.76
0.96
1.08
1.14
1.14
1.05
0.83
0.51
0.13
-0.24
-0.54
-0.78
-0.96
-1.10
-1.24
-1.42
-1.68
-2.08
-2.65
-3.31
-3.91
-4.30
-4.38
-4.18
-3.81
-3.40
-3.03
-2.73
-2.49
-2.36
-2.45
-2.92
-3.87
-5.29
-7.03
-8.91
-10.73
-12.35
-13.63
-14.43
-14.65
-14.22
-13.19
-11.70
-9.86
-7.68
-4.94
-1.36
3.12
8.19
13.15
17.10
19.22
19.08
16.88
13.65
10.82
9.77
11.32
15.49
21.48
27.98
33.61
37.40
39.15
39.13
37.67
35.00
31.39
27.24
23.11
19.62
17.12
16.02
16.28
17.52
19.19
20.94
22.66
24.40
26.10
25.35
20.59
11.71
0.27
-11.59
-22.09
-29.99
-34.55
-35.70
-34.10
-30.48
-25.94
-21.73
-18.87
-17.65
-17.61
-18.08
-18.36
-18.07
-16.97
-15.24
-13.54
-12.94
-14.45
-18.70
-25.54
-33.68
-40.79
-43.91
-40.93
-31.68
-18.31
-4.17
7.45
14.39
16.15
13.61
8.41
2.07
-4.27
-9.72
-12.78
-11.71
-5.23
6.70
22.66
40.23
56.71
69.87
76.04
73.02
61.23
43.84
24.98
7.87
-5.79
-15.51
-21.50
-24.46
-24.91
-23.44
-20.72
-17.48
-14.23
-11.15
-8.31
-5.87
-4.26
-3.47
-3.03
-2.28
-0.74
1.69
4.63
7.26
8.60
7.76
4.62
-0.17
-5.49
-10.13
-13.04
-13.59
-11.79
-7.83
-3.07
0.86
2.82
2.47
0.23
-3.00
-6.48
-9.79
-12.89
-15.97
-18.94
-21.21
-22.11
-21.55
-19.38
-15.97
-12.08
-8.48
-5.81
-4.20
-3.04
-1.52
0.95
4.75
9.75
15.40
20.85
25.07
26.37
23.88
17.43
7.60
-4.07
-15.37
-23.93
-27.80
-26.04
-18.98
-8.18
4.88
18.26
30.18
39.14
44.24
45.22
42.40
35.38
25.93
15.97
6.82
-0.92
-7.13
-11.90
-15.33
-17.48
-18.45
-18.32
-17.47
-16.80
-16.58
-16.78
-17.11
-17.09
-16.39
-14.95
-12.89
-10.68
-8.88
-7.86
-7.79
-8.60
-10.08
-12.04
-14.29
-16.59
-18.67
-19.75
-19.20
-16.75
-12.63
-7.58
-2.52
1.90
5.44
8.25
10.76
13.27
15.65
17.47
18.44
18.65
19.10
20.03
21.25
22.34
22.77
22.27
21.08
19.77
18.40
17.18
15.94
14.41
12.41
9.94
7.30
4.90
3.07
1.95
1.47
1.40
1.56
1.96
2.67
3.79
5.25
6.84
8.17
8.93
8.81
7.75
5.89
3.51
0.87
-1.76
-4.17
-6.20
-7.64
-8.42
-8.54
-8.10
-7.32
-6.47
-5.81
-5.49
-5.57
-5.98
-6.63
-7.41
-8.20
-8.88
-9.36
-9.54
-9.44
-9.12
-8.72
-8.45
-8.47
-8.91
-9.76
-10.93
-12.21
-13.38
-14.24
-14.66
-14.58
-14.05
-13.16
-12.04
-10.83
-9.59
-8.38
-7.18
-6.00
-4.82
-3.70
-2.69
-1.85
-1.20
-0.72
-0.34
0.02
0.41
0.86
1.35
1.83
2.25
2.54
2.68
2.65
2.48
2.22
1.96
1.76
1.67
1.69
1.78
1.89
1.96
1.92
1.73
1.36
0.86
0.29
-0.21
-0.52
-0.55
-0.30
0.17
0.75
1.30
1.66
1.68
1.22
0.20
-1.31
-3.10
-4.86
-6.22
-6.94
-6.92
-6.27
-5.23
-4.05
-2.94
-1.99
-1.18
-0.46
0.24
0.92
1.57
2.12
2.55
2.82
2.97
3.06
3.18
3.39
3.73
4.11
4.45
4.63
4.60
4.40
4.10
3.80
3.51
3.22
2.86
2.43
1.97
1.59
1.34
1.20
1.05
0.73
0.17
-0.61
-1.43
-2.12
-2.55
-2.75
-2.86
-3.03
-3.40
-3.96
-4.59
-5.14
-5.47
-5.48
-5.17
-4.57
-3.76
-2.82
-1.82
-0.82
0.17
1.06
1.80
2.29
2.46
2.33
2.04
1.79
1.75
2.00
2.46
2.96
3.33
3.49
3.49
3.45
3.47
3.58
3.72
3.78
3.65
3.33
2.86
2.38
1.99
1.78
1.71
1.72
1.69
1.50
1.11
0.54
-0.16
-0.91
-1.65
-2.33
-2.87
-3.17
-3.12
-2.70
-1.99
-1.16
-0.39
0.22
0.66
1.03
1.44
1.93
2.47
2.99
3.46
3.90
4.32
4.73
5.08
5.30
5.34
5.18
4.88
4.49
4.10
3.77
3.55
3.52
3.67
3.95
4.22
4.29
4.03
3.40
2.52
1.60
0.83
0.33
0.06
-0.10
-0.28
-0.56
-0.95
-1.42
-1.95
-2.55
-3.19
-3.81
-4.27
-4.42
-4.14
-3.41
-2.35
-1.16
-0.00
1.01
1.86
2.57
3.15
3.61
3.94
4.11
4.15
4.09
3.94
3.74
3.53
3.34
3.18
3.01
2.80
2.50
2.14
1.79
1.57
1.54
1.65
1.78
1.72
1.34
0.64
-0.23
-1.07
-1.69
-2.02
-2.09
-2.02
-1.98
-2.08
-2.39
-2.87
-3.45
-3.99
-4.40
-4.63
-4.67
-4.58
-4.38
-4.10
-3.70
-3.16
-2.49
-1.70
-0.85
0.02
0.85
1.62
2.29
2.84
3.22
3.38
3.33
3.10
2.75
2.39
2.13
2.00
1.97
1.94
1.81
1.48
0.99
0.43
-0.07
-0.46
-0.74
-0.97
-1.24
-1.57
-1.90
-2.14
-2.20
-2.06
-1.76
-1.41
-1.09
-0.87
-0.74
-0.65
-0.55
-0.41
-0.26
-0.17
-0.16
-0.20
-0.19
0.01
0.52
1.35
2.40
3.52
4.53
5.30
5.81
6.10
6.25
6.33
6.39
6.44
6.46
6.45
6.45
6.51
6.63
6.77
6.79
6.56
6.01
5.15
4.12
3.12
2.30
1.73
1.45
1.40
1.53
1.76
1.95
1.98
1.72
1.14
0.30
-0.72
-1.81
-2.91
-4.01
-5.12
-6.18
-7.09
-7.76
-8.11
-8.12
-7.81
-7.24
-6.44
-5.47
-4.40
-3.28
-2.19
-1.14
-0.17
0.69
1.37
1.79
1.94
1.84
1.62
1.41
1.32
1.39
1.54
1.68
1.70
1.58
1.31
0.94
0.50
0.03
-0.45
-0.92
-1.34
-1.71
-2.04
-2.34
-2.61
-2.87
-3.13
-3.43
-3.81
-4.33
-5.04
-5.92
-6.92
-7.94
-8.87
-9.56
-9.92
-9.90
-9.52
-8.89
-8.13
-7.31
-6.43
-5.44
-4.25
-2.82
-1.21
0.47
2.09
3.53
4.72
5.66
6.32
6.73
6.88
6.85
6.68
6.43
6.14
5.76
5.29
4.71
4.08
3.49
3.06
2.80
2.65
2.48
2.14
1.58
0.87
0.14
-0.51
-1.07
-1.63
-2.31
-3.13
-3.99
-4.71
-5.13
-5.23
-5.15
-5.11
-5.23
-5.50
-5.74
-5.76
-5.42
-4.73
-3.80
-2.77
-1.71
-0.67
0.33
1.26
2.06
2.72
3.31
3.90
4.58
5.38
6.22
6.93
7.37
7.46
7.26
6.96
6.84
7.13
7.93
9.15
10.55
11.81
12.70
13.13
13.14
12.83
12.22
11.23
9.72
7.63
5.10
2.42
-0.02
-1.94
-3.22
-3.97
-4.46
-4.93
-5.54
-6.33
-7.22
-8.13
-9.07
-10.01
-10.85
-11.28
-10.84
-9.17
-6.32
-2.82
0.46
2.73
3.71
3.77
3.62
3.94
4.88
6.08
6.90
6.90
6.13
4.98
3.99
3.45
3.31
3.28
3.07
2.53
1.68
0.66
-0.35
-1.25
-1.98
-2.58
-3.16
-3.85
-4.78
-5.91
-7.07
-8.00
-8.47
-8.46
-8.17
-7.90
-7.94
-8.32
-8.87
-9.27
-9.27
-8.75
-7.79
-6.56
-5.21
-3.79
-2.26
-0.53
1.42
3.50
5.55
7.36
8.73
9.57
9.89
9.84
9.60
9.37
9.27
9.28
9.31
9.23
8.96
8.50
7.92
7.31
6.73
6.19
5.62
5.00
4.30
3.53
2.73
1.93
1.13
0.30
-0.56
-1.44
-2.32
-3.17
-3.99
-4.79
-5.60
-6.45
-7.34
-8.27
-9.17
-9.96
-10.53
-10.84
-10.86
-10.66
-10.30
-9.83
-9.24
-8.52
-7.64
-6.62
-5.57
-4.59
-3.77
-3.12
-2.64
-2.32
-2.16
-2.16
-2.30
-2.54
-2.76
-2.87
-2.79
-2.53
-2.18
-1.84
-1.62
-1.60
-1.80
-2.15
-2.52
-2.76
-2.80
-2.61
-2.26
-1.85
-1.44
-1.04
-0.67
-0.35
-0.16
-0.16
-0.40
-0.80
-1.21
-1.43
-1.35
-0.94
-0.31
0.40
1.05
1.57
1.93
2.21
2.51
2.94
3.58
4.36
5.17
5.82
6.16
6.15
5.90
5.58
5.34
5.20
5.11
4.97
4.75
4.49
4.32
4.29
4.37
4.44
4.35
4.02
3.48
2.81
2.10
1.40
0.71
0.01
-0.66
-1.25
-1.75
-2.14
-2.47
-2.80
-3.13
-3.47
-3.81
-4.13
-4.48
-4.86
-5.26
-5.62
-5.83
-5.79
-5.47
-4.93
-4.26
-3.60
-2.99
-2.42
-1.82
-1.13
-0.34
0.48
1.22
1.79
2.12
2.22
2.15
2.01
1.89
1.84
1.84
1.85
1.78
1.57
1.20
0.73
0.26
-0.13
-0.41
-0.62
-0.79
-0.95
-1.09
-1.17
-1.21
-1.28
-1.46
-1.80
-2.27
-2.72
-3.02
-3.09
-2.96
-2.78
-2.68
-2.78
-3.09
-3.52
-3.95
-4.28
-4.43
-4.37
-4.07
-3.54
-2.75
-1.72
-0.51
0.79
2.07
3.21
4.11
4.72
5.02
5.07
4.97
4.81
4.71
4.66
4.64
4.60
4.51
4.41
4.41
4.55
4.85
5.24
5.58
5.78
5.79
5.62
5.32
4.94
4.50
4.04
3.55
3.03
2.49
1.91
1.28
0.59
-0.14
-0.91
-1.71
-2.54
-3.40
-4.24
-4.99
-5.60
-6.01
-6.24
-6.31
-6.24
-6.04
-5.68
-5.14
-4.44
-3.68
-2.97
-2.34
-1.78
-1.18
-0.48
0.30
0.96
1.34
1.33
1.00
0.60
0.42
0.61
1.18
1.95
2.72
3.32
3.72
3.90
3.90
3.69
3.26
2.62
1.83
1.00
0.20
-0.52
-1.15
-1.72
-2.21
-2.60
-2.88
-3.04
-3.15
-3.30
-3.56
-3.96
-4.46
-4.96
-5.39
-5.68
-5.82
-5.80
-5.65
-5.41
-5.13
-4.87
-4.69
-4.60
-4.55
-4.42
-4.13
-3.61
-2.91
-2.14
-1.41
-0.79
-0.29
0.10
0.37
0.48
0.34
-0.11
-0.84
-1.73
-2.59
-3.23
-3.53
-3.48
-3.16
-2.70
-2.22
-1.79
-1.43
-1.09
-0.77
-0.49
-0.27
-0.14
-0.07
0.02
0.23
0.64
1.23
1.90
2.55
3.06
3.39
3.58
3.74
4.00
4.48
5.24
6.22
7.25
8.11
8.58
8.57
8.15
7.49
6.80
6.23
5.79
5.42
5.04
4.59
4.04
3.38
2.62
1.77
0.89
0.05
-0.64
-1.11
-1.36
-1.43
-1.37
-1.21
-0.99
-0.74
-0.53
-0.40
-0.35
-0.31
-0.14
0.27
0.92
1.70
2.39
2.83
2.93
2.73
2.35
1.88
1.41
0.93
0.47
0.08
-0.15
-0.10
0.25
0.88
1.64
2.40
3.04
3.56
4.00
4.41
4.83
5.23
5.52
5.61
5.46
5.07
4.53
3.95
3.43
3.02
2.68
2.34
1.92
1.38
0.75
0.13
-0.39
-0.74
-0.91
-0.95
-0.89
-0.79
-0.68
-0.59
-0.54
-0.58
-0.71
-0.91
-1.17
-1.46
-1.73
-1.98
-2.21
-2.43
-2.65
-2.90
-3.17
-3.52
-3.97
-4.54
-5.17
-5.80
-6.32
-6.62
-6.66
-6.40
-5.87
-5.12
-4.18
-3.14
-2.10
-1.20
-0.52
-0.09
0.12
0.24
0.35
0.50
0.71
0.93
1.15
1.32
1.45
1.49
1.44
1.30
1.13
1.01
1.01
1.09
1.20
1.23
1.11
0.85
0.50
0.15
-0.18
-0.47
-0.76
-1.10
-1.49
-1.91
-2.29
-2.57
-2.70
-2.73
-2.76
-2.91
-3.26
-3.79
-4.37
-4.79
-4.91
-4.66
-4.13
-3.45
-2.74
-2.09
-1.45
-0.79
-0.07
0.68
1.38
1.94
2.30
2.45
2.44
2.38
2.33
2.35
2.44
2.55
2.66
2.72
2.73
2.70
2.65
2.55
2.36
2.01
1.51
0.93
0.36
-0.09
-0.42
-0.69
-1.04
-1.58
-2.30
-3.08
-3.76
-4.23
-4.49
-4.67
-4.95
-5.46
-6.22
-7.10
-7.93
-8.47
-8.55
-8.08
-7.10
-5.75
-4.24
-2.76
-1.45
-0.30
0.72
1.71
2.68
3.63
4.45
5.10
5.51
5.68
5.60
5.28
4.73
4.03
3.29
2.62
2.15
1.93
1.94
2.07
2.19
2.12
1.79
1.22
0.50
-0.23
-0.87
-1.38
-1.78
-2.11
-2.37
-2.47
-2.31
-1.84
-1.15
-0.43
0.11
0.30
0.12
-0.33
-0.95
-1.61
-2.27
-2.91
-3.53
-4.09
-4.53
-4.78
-4.83
-4.65
-4.28
-3.73
-3.02
-2.17
-1.18
-0.11
0.95
1.91
2.70
3.27
3.64
3.89
4.13
4.46
4.94
5.56
6.26
6.90
7.36
7.59
7.56
7.35
7.02
6.63
6.22
5.80
5.38
4.98
4.63
4.34
4.10
3.92
3.75
3.57
3.33
2.95
2.39
1.64
0.78
-0.05
-0.70
-1.07
-1.21
-1.26
-1.38
-1.68
-2.16
-2.69
-3.09
-3.24
-3.11
-2.76
-2.32
-1.86
-1.41
-0.91
-0.31
0.40
1.13
1.79
2.29
2.60
2.73
2.72
2.58
2.37
2.16
2.01
2.00
2.16
2.40
2.64
2.81
2.86
2.83
2.71
2.48
2.11
1.59
1.01
0.55
0.33
0.36
0.51
0.57
0.36
-0.17
-0.92
-1.70
-2.39
-2.95
-3.47
-4.05
-4.72
-5.42
-6.03
-6.47
-6.71
-6.82
-6.89
-6.94
-6.87
-6.53
-5.79
-4.68
-3.39
-2.16
-1.19
-0.50
0.07
0.69
1.47
2.31
3.03
3.43
3.46
3.21
2.86
2.58
2.47
2.53
2.70
2.92
3.14
3.31
3.38
3.30
3.00
2.50
1.87
1.21
0.64
0.20
-0.10
-0.33
-0.54
-0.75
-0.97
-1.14
-1.27
-1.39
-1.62
-2.05
-2.72
-3.56
-4.43
-5.19
-5.70
-5.92
-5.87
-5.60
-5.15
-4.58
-3.93
-3.27
-2.63
-2.04
-1.45
-0.80
-0.04
0.82
1.70
2.48
3.10
3.52
3.82
4.07
4.31
4.55
4.75
4.86
4.87
4.79
4.61
4.36
4.07
3.75
3.43
3.15
2.92
2.74
2.58
2.39
2.16
1.91
1.64
1.39
1.13
0.82
0.44
-0.03
-0.54
-1.03
-1.45
-1.81
-2.17
-2.60
-3.15
-3.79
-4.41
-4.85
-5.01
-4.88
-4.58
-4.31
-4.22
-4.40
-4.79
-5.30
-5.82
-6.34
-6.97
-7.82
-8.99
-10.58
-12.58
-14.92
-17.31
-19.22
-19.93
-18.76
-15.24
-9.41
-1.83
6.55
14.67
21.57
26.58
29.27
29.50
27.36
23.21
17.71
11.77
6.33
2.16
-0.34
-1.33
-1.36
-1.21
-1.60
-2.88
-4.91
-7.23
-9.25
-10.63
-11.44
-12.15
-13.35
-15.47
-18.63
-22.63
-27.07
-31.56
-35.79
-39.53
-42.58
-44.77
-46.02
-46.43
-46.31
-46.05
-46.00
-46.26
-46.53
-46.18
-44.43
-40.64
-34.58
-26.50
-17.12
-7.32
2.15
10.89
18.88
26.28
33.19
39.53
45.00
49.31
52.27
53.89
54.37
53.91
52.68
50.81
48.43
45.75
43.08
40.69
38.74
37.20
35.83
34.35
32.45
30.01
27.09
23.99
21.09
18.70
16.98
15.84
15.12
14.58
14.02
13.40
12.81
12.40
12.29
12.47
12.94
13.65
14.57
15.66
17.05
19.02
21.92
25.79
30.28
34.74
38.45
40.81
41.60
41.18
40.56
40.83
42.59
45.70
49.47
52.88
54.81
54.25
50.78
44.93
37.74
29.96
21.49
11.19
-2.99
-23.54
-52.49
-90.61
-135.11
-179.05
-213.57
-231.51
-229.34
-206.76
-166.18
-113.14
-56.03
-4.09
35.20
58.74
68.65
70.49
70.07
70.24
69.79
65.13
53.29
33.19
6.24
-24.27
-53.84
-77.23
-89.20
-85.94
-67.70
-36.48
1.67
38.21
65.10
77.57
75.46
62.31
43.24
22.84
4.38
-10.48
-20.67
-25.20
-23.47
-16.15
-5.61
4.54
10.90
11.80
7.73
1.07
-5.15
-8.68
-8.90
-6.87
-4.52
-3.57
-4.65
-7.30
-10.28
-12.32
-12.79
-11.98
-10.76
-10.03
-10.25
-11.29
-12.64
-13.81
-14.62
-15.28
-16.14
-17.45
-19.10
-20.70
-21.89
-22.70
-23.53
-24.77
-26.33
-27.45
-27.18
-24.91
-20.90
-16.08
-11.36
-6.95
-2.31
3.25
9.70
15.77
19.48
19.23
14.89
8.13
1.66
-2.04
-1.81
1.94
7.80
14.29
20.46
26.03
31.10
35.79
39.89
42.82
43.98
43.02
40.14
36.07
31.84
28.31
25.87
24.29
22.89
21.21
19.36
18.11
18.38
20.60
24.14
27.58
29.01
26.93
21.04
12.50
3.42
-3.99
-8.42
-9.84
-9.03
-7.48
-6.76
-7.64
-9.76
-11.87
-12.59
-11.17
-8.11
-4.30
-1.42
-1.39
-5.44
-13.58
-24.77
-37.31
-49.04
-57.61
-59.43
-51.81
-34.57
-10.55
15.19
37.33
52.81
62.50
66.36
67.68
69.56
71.41
68.92
58.26
39.94
18.92
3.04
-5.63
-7.64
-6.15
-5.00
-6.47
-10.32
-14.62
-17.74
-18.93
-18.96
-18.52
-18.62
-19.94
-22.32
-24.67
-25.62
-24.40
-21.22
-17.40
-13.92
-11.57
-10.66
-10.88
-11.39
-11.33
-10.30
-8.45
-6.49
-4.83
-3.77
-3.39
-3.53
-3.81
-3.85
-3.44
-2.65
-1.78
-1.05
-0.58
-0.41
-0.45
-0.58
-0.68
-0.72
-0.69
-0.62
-0.47
-0.20
0.15
0.48
0.63
0.46
0.00
-0.61
-1.18
-1.57
-1.78
-1.93
-2.14
-2.45
-2.75
-2.86
-2.62
-2.02
-1.23
-0.46
0.11
0.42
0.58
0.72
0.97
1.34
1.78
2.21
2.54
2.75
2.83
2.77
2.62
2.41
2.18
1.97
1.77
1.53
1.20
0.82
0.46
0.22
0.18
0.33
0.56
0.73
0.72
0.49
0.09
-0.39
-0.82
-1.16
-1.41
-1.61
-1.83
-2.06
-2.29
-2.49
-2.69
-2.95
-3.34
-3.90
-4.58
-5.23
-5.68
-5.77
-5.46
-4.80
-3.91
-2.93
-2.02
-1.27
-0.74
-0.42
-0.26
-0.18
-0.10
0.04
0.30
0.68
1.12
1.56
1.89
2.02
1.89
1.48
0.88
0.18
-0.47
-0.96
-1.22
-1.27
-1.15
-0.98
-0.84
-0.79
-0.83
-0.93
-1.04
-1.14
-1.28
-1.50
-1.87
-2.40
-3.05
-3.76
-4.47
-5.10
-5.65
-6.10
-6.49
-6.78
-6.92
-6.81
-6.36
-5.57
-4.52
-3.38
-2.31
-1.43
-0.77
-0.24
0.21
0.64
1.04
1.36
1.56
1.62
1.59
1.53
1.49
1.52
1.58
1.67
1.73
1.77
1.80
1.84
1.89
1.93
1.88
1.69
1.34
0.89
0.40
-0.00
-0.26
-0.37
-0.43
-0.52
-0.73
-1.08
-1.53
-2.00
-2.43
-2.80
-3.16
-3.62
-4.22
-4.93
-5.59
-6.01
-6.00
-5.54
-4.75
-3.87
-3.13
-2.61
-2.21
-1.75
-1.05
-0.06
1.06
2.04
2.69
2.97
3.00
3.01
3.15
3.43
3.73
3.86
3.70
3.30
2.83
2.46
2.32
2.36
2.47
2.53
2.50
2.38
2.22
2.07
1.89
1.67
1.34
0.91
0.40
-0.12
-0.58
-0.90
-1.07
-1.15
-1.28
-1.62
-2.30
-3.32
-4.53
-5.66
-6.47
-6.81
-6.67
-6.16
-5.44
-4.63
-3.79
-2.94
-2.08
-1.21
-0.34
0.52
1.35
2.12
2.79
3.34
3.75
4.02
4.18
4.23
4.19
4.06
3.85
3.61
3.40
3.25
3.16
3.07
2.94
2.73
2.48
2.28
2.20
2.24
2.32
2.30
2.06
1.56
0.89
0.19
-0.40
-0.82
-1.12
-1.43
-1.86
-2.44
-3.07
-3.63
-3.98
-4.10
-4.10
-4.16
-4.44
-4.99
-5.71
-6.38
-6.76
-6.69
-6.16
-5.27
-4.15
-2.92
-1.66
-0.40
0.84
2.00
3.00
3.76
4.22
4.44
4.52
4.57
4.68
4.85
5.02
5.08
5.02
4.86
4.71
4.65
4.72
4.84
4.90
4.81
4.51
4.05
3.49
2.91
2.29
1.62
0.86
0.03
-0.79
-1.50
-2.00
-2.28
-2.39
-2.45
-2.58
-2.90
-3.42
-4.12
-4.87
-5.56
-6.05
-6.28
-6.26
-6.05
-5.71
-5.30
-4.85
-4.33
-3.75
-3.12
-2.48
-1.88
-1.28
-0.62
0.18
1.16
2.24
3.25
4.02
4.45
4.58
4.59
4.64
4.81
5.04
5.18
5.06
4.62
3.92
3.11
2.39
1.90
1.67
1.66
1.75
1.83
1.84
1.76
1.59
1.35
1.07
0.77
0.48
0.23
0.06
-0.02
-0.06
-0.13
-0.35
-0.82
-1.62
-2.73
-4.09
-5.56
-6.91
-7.94
-8.51
-8.60
-8.28
-7.71
-7.03
-6.31
-5.53
-4.66
-3.64
-2.46
-1.16
0.21
1.54
2.76
3.79
4.58
5.09
5.34
5.39
5.32
5.22
5.15
5.16
5.22
5.30
5.33
5.27
5.11
4.88
4.64
4.42
4.24
4.05
3.77
3.32
2.69
1.94
1.20
0.61
0.27
0.14
0.09
-0.03
-0.36
-0.94
-1.69
-2.46
-3.12
-3.62
-4.02
-4.44
-4.99
-5.72
-6.60
-7.48
-8.21
-8.64
-8.70
-8.43
-7.98
-7.52
-7.16
-6.93
-6.75
-6.44
-5.83
-4.90
-3.80
-2.77
-2.06
-1.81
-2.01
-2.55
-3.20
-3.69
-3.88
-3.77
-3.51
-3.24
-3.13
-3.39
-4.23
-5.62
-7.31
-8.94
-10.25
-11.04
-11.20
-10.75
-9.82
-8.61
-6.85
-4.01
0.39
6.35
13.30
20.19
25.82
29.08
29.43
27.52
24.91
23.35
24.06
27.56
33.80
42.32
52.31
60.14
61.91
55.52
42.10
24.56
5.71
-12.24
-27.57
-39.08
-46.28
-49.01
-47.59
-42.89
-36.28
-29.22
-22.83
-17.71
-14.15
-12.21
-11.42
-11.11
-10.69
-9.84
-8.46
-6.53
-4.16
-1.78
0.08
1.20
1.69
2.01
2.65
4.01
6.20
9.29
12.98
17.02
21.26
25.44
28.96
30.83
30.03
25.64
18.35
9.52
0.93
-5.86
-9.99
-11.54
-11.26
-10.17
-9.05
-8.26
-7.95
-8.09
-8.61
-9.40
-10.36
-11.21
-11.66
-11.41
-10.30
-8.50
-6.38
-4.35
-2.74
-1.71
-1.21
-1.11
-1.21
-1.26
-1.07
-0.49
0.46
1.62
2.65
3.27
3.34
2.97
2.48
2.11
1.97
1.90
1.61
0.83
-0.51
-2.21
-3.92
-5.22
-5.79
-5.50
-4.41
-2.83
-1.11
0.38
1.36
1.73
1.57
1.06
0.38
-0.35
-1.03
-1.59
-2.00
-2.27
-2.49
-2.79
-3.23
-3.75
-4.16
-4.25
-3.88
-3.16
-2.29
-1.53
-1.01
-0.67
-0.41
-0.14
0.11
0.26
0.29
0.28
0.45
0.75
1.13
1.48
1.64
1.54
1.25
0.94
0.79
0.85
1.10
1.43
1.73
1.91
1.94
1.83
1.60
1.29
0.95
0.65
0.50
0.56
0.80
1.11
1.31
1.22
0.76
-0.02
-1.00
-2.00
-2.87
-3.56
-4.08
-4.45
-4.72
-4.97
-5.26
-5.67
-6.18
-6.73
-7.14
-7.24
-6.93
-6.19
-5.11
-3.80
-2.36
-0.81
0.86
2.63
4.42
6.08
7.46
8.48
9.18
9.69
10.15
10.62
11.10
11.50
11.75
11.84
11.82
11.79
11.79
11.80
11.73
11.52
11.12
10.59
10.00
9.43
8.91
8.43
7.94
7.37
6.70
5.93
5.10
4.26
3.44
2.62
1.77
0.83
-0.19
-1.26
-2.30
-3.24
-4.07
-4.83
-5.57
-6.33
-7.08
-7.72
-8.11
-8.14
-7.80
-7.11
-6.20
-5.20
-4.24
-3.39
-2.69
-2.15
-1.72
-1.38
-1.12
-0.93
-0.85
-0.89
-1.07
-1.35
-1.70
-2.06
-2.38
-2.63
-2.74
-2.69
-2.45
-2.04
-1.55
-1.11
-0.83
-0.75
-0.85
-1.04
-1.21
-1.32
-1.39
-1.48
-1.66
-1.94
-2.27
-2.55
-2.73
-2.80
-2.82
-2.91
-3.14
-3.55
-4.08
-4.69
-5.33
-5.96
-6.54
-7.01
-7.22
-7.04
-6.38
-5.28
-3.90
-2.46
-1.14
-0.02
0.95
1.89
2.86
3.89
4.90
5.79
6.48
6.95
7.25
7.43
7.54
7.58
7.53
7.38
7.14
6.83
6.50
6.20
5.94
5.69
5.41
5.07
4.66
4.21
3.76
3.30
2.82
2.29
1.68
1.02
0.39
-0.12
-0.46
-0.68
-0.89
-1.22
-1.76
-2.50
-3.38
-4.27
-5.10
-5.84
-6.44
-6.87
-7.02
-6.82
-6.24
-5.33
-4.21
-3.02
-1.85
-0.75
0.27
1.19
1.96
2.51
2.83
3.00
3.16
3.47
4.03
4.80
5.65
6.41
6.91
7.10
7.01
6.74
6.41
6.08
5.78
5.50
5.22
4.95
4.75
4.67
4.77
5.02
5.35
5.63
5.74
5.61
5.24
4.72
4.18
3.73
3.41
3.22
3.09
2.98
2.81
2.54
2.11
1.44
0.51
-0.64
-1.87
-2.95
-3.64
-3.87
-3.70
-3.39
-3.26
-3.57
-4.41
-5.75
-7.39
-9.16
-10.87
-12.38
-13.56
-14.34
-14.61
-14.39
-13.72
-12.74
-11.61
-10.45
-9.30
-8.16
-6.96
-5.65
-4.25
-2.88
-1.66
-0.77
-0.30
-0.19
-0.33
-0.54
-0.70
-0.80
-0.95
-1.31
-1.97
-2.91
-3.96
-4.84
-5.31
-5.20
-4.55
-3.52
-2.40
-1.51
-1.03
-1.01
-1.32
-1.74
-2.05
-2.08
-1.75
-1.09
-0.15
0.96
2.13
3.22
4.12
4.73
5.00
4.96
4.72
4.41
4.17
4.06
4.09
4.21
4.26
4.14
3.77
3.17
2.48
1.87
1.48
1.39
1.53
1.73
1.83
1.71
1.36
0.89
0.42
0.03
-0.26
-0.52
-0.78
-1.05
-1.31
-1.51
-1.66
-1.83
-2.10
-2.52
-3.06
-3.60
-4.03
-4.26
-4.25
-4.05
-3.70
-3.27
-2.81
-2.35
-1.95
-1.60
-1.30
-0.95
-0.50
0.07
0.70
1.27
1.65
1.78
1.72
1.62
1.59
1.68
1.85
1.97
1.96
1.78
1.51
1.23
1.03
0.92
0.86
0.81
0.74
0.64
0.50
0.30
0.04
-0.27
-0.57
-0.80
-0.93
-0.99
-1.05
-1.15
-1.34
-1.60
-1.90
-2.25
-2.72
-3.36
-4.19
-5.13
-6.04
-6.77
-7.23
-7.42
-7.35
-7.08
-6.63
-6.01
-5.22
-4.29
-3.25
-2.17
-1.10
-0.12
0.74
1.48
2.12
2.72
3.27
3.79
4.24
4.55
4.68
4.60
4.36
4.04
3.74
3.59
3.64
3.89
4.26
4.67
5.02
5.24
5.31
5.22
4.99
4.61
4.11
3.54
2.98
2.51
2.17
1.94
1.73
1.42
0.90
0.14
-0.81
-1.83
-2.85
-3.85
-4.86
-5.92
-6.97
-7.88
-8.48
-8.64
-8.34
-7.67
-6.81
-5.91
-5.03
-4.15
-3.20
-2.14
-0.98
0.22
1.40
2.50
3.48
4.29
4.92
5.33
5.53
5.58
5.57
5.58
5.66
5.77
5.85
5.84
5.76
5.67
5.67
5.81
6.04
6.25
6.31
6.13
5.75
5.24
4.68
4.06
3.34
2.46
1.45
0.45
-0.38
-0.91
-1.12
-1.13
-1.11
-1.25
-1.65
-2.30
-3.17
-4.15
-5.16
-6.13
-7.00
-7.75
-8.35
-8.73
-8.82
-8.48
-7.63
-6.28
-4.57
-2.78
-1.14
0.19
1.27
2.24
3.24
4.27
5.21
5.90
6.24
6.32
6.31
6.38
6.62
6.96
7.26
7.34
7.14
6.71
6.18
5.68
5.32
5.05
4.79
4.43
3.91
3.32
2.77
2.38
2.11
1.83
1.38
0.68
-0.18
-0.99
-1.59
-1.95
-2.23
-2.65
-3.37
-4.36
-5.44
-6.35
-6.97
-7.28
-7.42
-7.53
-7.72
-7.99
-8.26
-8.41
-8.32
-7.89
-7.07
-5.85
-4.34
-2.65
-0.98
0.56
1.86
2.91
3.75
4.44
5.01
5.47
5.82
6.01
6.03
5.94
5.80
5.71
5.72
5.83
5.94
5.98
5.87
5.60
5.21
4.77
4.34
3.97
3.69
3.53
3.46
3.41
3.28
3.00
2.55
1.98
1.36
0.80
0.33
-0.04
-0.34
-0.62
-0.92
-1.27
-1.69
-2.19
-2.76
-3.37
-4.04
-4.78
-5.58
-6.37
-7.02
-7.35
-7.21
-6.57
-5.53
-4.28
-3.03
-1.89
-0.91
-0.06
0.67
1.27
1.73
2.06
2.29
2.48
2.70
2.96
3.25
3.54
3.80
4.01
4.17
4.28
4.30
4.20
3.94
3.52
3.01
2.51
2.13
1.90
1.78
1.66
1.44
1.07
0.59
0.07
-0.44
-0.94
-1.46
-2.03
-2.58
-3.04
-3.35
-3.57
-3.86
-4.40
-5.27
-6.36
-7.46
-8.29
-8.66
-8.56
-8.07
-7.33
-6.44
-5.44
-4.33
-3.14
-1.95
-0.81
0.19
1.05
1.77
2.37
2.89
3.29
3.56
3.68
3.64
3.49
3.32
3.21
3.19
3.29
3.44
3.59
3.67
3.65
3.53
3.32
3.05
2.73
2.40
2.08
1.77
1.47
1.10
0.59
-0.09
-0.91
-1.75
-2.52
-3.16
-3.69
-4.19
-4.72
-5.30
-5.93
-6.58
-7.23
-7.89
-8.52
-9.04
-9.30
-9.17
-8.58
-7.56
-6.21
-4.70
-3.14
-1.58
-0.06
1.39
2.66
3.66
4.32
4.64
4.70
4.67
4.72
4.92
5.29
5.71
6.04
6.19
6.14
5.94
5.69
5.44
5.19
4.91
4.51
3.98
3.33
2.63
1.96
1.38
0.91
0.55
0.27
0.00
-0.31
-0.70
-1.17
-1.67
-2.11
-2.42
-2.56
-2.58
-2.59
-2.78
-3.28
-4.13
-5.22
-6.29
-7.05
-7.26
-6.86
-5.94
-4.72
-3.44
-2.26
-1.21
-0.20
0.89
2.13
3.51
4.92
6.22
7.28
8.01
8.41
8.49
8.27
7.77
7.03
6.14
5.26
4.56
4.20
4.18
4.39
4.60
4.58
4.24
3.62
2.87
2.17
1.57
1.05
0.49
-0.27
-1.27
-2.49
-3.81
-5.11
-6.26
-7.18
-7.85
-8.23
-8.35
-8.31
-8.27
-8.38
-8.78
-9.46
-10.27
-10.99
-11.38
-11.28
-10.66
-9.57
-8.15
-6.55
-4.92
-3.40
-2.10
-1.06
-0.26
0.42
1.13
1.97
2.96
4.00
4.97
5.73
6.26
6.61
6.88
7.09
7.24
7.29
7.22
7.09
6.96
6.93
6.94
6.91
6.68
6.21
5.55
4.84
4.28
3.94
3.83
3.81
3.75
3.55
3.19
2.71
2.19
1.70
1.22
0.71
0.10
-0.65
-1.51
-2.40
-3.26
-4.03
-4.74
-5.40
-6.05
-6.61
-6.93
-6.86
-6.29
-5.25
-3.94
-2.59
-1.40
-0.46
0.28
0.93
1.59
2.29
3.00
3.63
4.14
4.52
4.77
4.92
4.98
4.93
4.80
4.62
4.47
4.40
4.41
4.45
4.44
4.32
4.06
3.71
3.33
2.94
2.51
1.99
1.36
0.67
-0.02
-0.61
-1.08
-1.48
-1.87
-2.28
-2.69
-3.03
-3.24
-3.34
-3.40
-3.56
-3.91
-4.48
-5.16
-5.79
-6.19
-6.26
-6.00
-5.50
-4.85
-4.13
-3.31
-2.36
-1.21
0.09
1.46
2.76
3.87
4.76
5.44
5.95
6.31
6.55
6.69
6.77
6.86
6.95
7.03
7.03
6.91
6.68
6.38
6.05
5.73
5.35
4.89
4.34
3.76
3.20
2.72
2.29
1.89
1.46
1.00
0.53
0.06
-0.40
-0.88
-1.42
-2.03
-2.70
-3.38
-4.05
-4.67
-5.21
-5.69
-6.14
-6.61
-7.12
-7.64
-8.08
-8.29
-8.17
-7.69
-6.89
-5.88
-4.73
-3.50
-2.25
-1.03
0.01
0.76
1.14
1.18
1.04
0.88
0.84
0.96
1.18
1.45
1.69
1.88
2.03
2.13
2.19
2.17
2.01
1.70
1.21
0.62
0.01
-0.46
-0.70
-0.68
-0.49
-0.36
-0.51
-1.09
-2.12
-3.42
-4.76
-5.88
-6.68
-7.20
-7.57
-7.88
-8.12
-8.15
-7.82
-7.06
-5.96
-4.76
-3.69
-2.89
-2.32
-1.83
-1.24
-0.46
0.46
1.40
2.25
2.97
3.55
4.05
4.48
4.86
5.16
5.35
5.44
5.44
5.40
5.31
5.14
4.80
4.22
3.35
2.22
0.96
-0.26
-1.31
-2.08
-2.56
-2.82
-2.95
-3.02
-3.04
-3.03
-2.96
-2.86
-2.79
-2.86
-3.19
-3.84
-4.77
-5.82
-6.80
-7.47
-7.71
-7.48
-6.88
-6.02
-4.99
-3.82
-2.53
-1.14
0.27
1.59
2.69
3.51
4.07
4.44
4.70
4.91
5.06
5.13
5.08
4.91
4.68
4.47
4.36
4.37
4.47
4.56
4.54
4.27
3.74
2.97
2.09
1.24
0.53
-0.00
-0.41
-0.76
-1.07
-1.31
-1.42
-1.38
-1.24
-1.14
-1.22
-1.55
-2.11
-2.80
-3.51
-4.13
-4.63
-5.01
-5.26
-5.39
-5.39
-5.23
-4.88
-4.28
-3.39
-2.18
-0.76
0.73
2.09
3.18
3.99
4.58
5.08
5.55
5.97
6.26
6.36
6.30
6.16
6.02
5.92
5.83
5.68
5.42
5.06
4.67
4.31
4.01
3.72
3.36
2.88
2.29
1.67
1.08
0.54
0.05
-0.43
-0.95
-1.50
-2.09
-2.72
-3.39
-4.08
-4.75
-5.31
-5.68
-5.90
-6.06
-6.28
-6.63
-7.04
-7.38
-7.44
-7.14
-6.50
-5.63
-4.64
-3.62
-2.58
-1.55
-0.56
0.31
0.98
1.41
1.63
1.73
1.81
1.95
2.17
2.42
2.57
2.50
2.16
1.60
1.01
0.62
0.58
0.91
1.48
2.03
2.33
2.25
1.82
1.20
0.56
0.02
-0.43
-0.86
-1.34
-1.92
-2.53
-3.12
-3.62
-4.07
-4.55
-5.14
-5.84
-6.52
-6.98
-7.06
-6.71
-6.00
-5.10
-4.13
-3.19
-2.29
-1.38
-0.40
0.66
1.78
2.89
3.89
4.70
5.24
5.52
5.58
5.51
5.42
5.38
5.42
5.53
5.69
5.87
6.05
6.25
6.41
6.46
6.33
5.96
5.38
4.66
3.94
3.31
2.80
2.33
1.82
1.23
0.56
-0.10
-0.68
-1.13
-1.50
-1.87
-2.32
-2.87
-3.50
-4.11
-4.65
-5.06
-5.37
-5.61
-5.74
-5.71
-5.38
-4.67
-3.62
-2.41
-1.29
-0.48
0.02
0.40
0.95
1.92
3.28
4.77
6.02
6.72
6.77
6.30
5.51
4.58
3.55
2.41
1.10
-0.31
-1.70
-2.93
-3.89
-4.55
-4.93
-5.02
-4.83
-4.36
-3.65
-2.79
-1.92
-1.19
-0.68
-0.38
-0.23
-0.15
-0.10
-0.10
-0.19
-0.41
-0.75
-1.16
-1.59
-1.98
-2.33
-2.68
-3.06
-3.48
-3.94
-4.39
-4.77
-5.02
-5.06
-4.85
-4.36
-3.66
-2.79
-1.83
-0.82
0.19
1.17
1.99
2.52
2.68
2.44
1.97
1.46
1.14
1.16
1.52
2.11
2.82
3.53
4.18
4.71
5.10
5.31
5.35
5.25
5.09
4.91
4.75
4.62
4.48
4.31
4.09
3.80
3.41
2.89
2.25
1.52
0.72
-0.12
-1.02
-1.98
-3.00
-4.01
-4.92
-5.60
-5.95
-5.96
-5.67
-5.13
-4.37
-3.40
-2.27
-1.06
0.05
0.91
1.49
1.93
2.50
3.40
4.61
5.83
6.65
6.73
6.06
4.95
3.84
3.11
2.83
2.87
2.92
2.78
2.38
1.84
1.29
0.84
0.52
0.28
0.07
-0.15
-0.40
-0.69
-1.05
-1.52
-2.14
-2.93
-3.87
-4.89
-5.87
-6.66
-7.11
-7.12
-6.67
-5.86
-4.86
-3.88
-3.11
-2.68
-2.63
-2.91
-3.41
-3.99
-4.48
-4.74
-4.68
-4.28
-3.65
-2.98
-2.43
-2.10
-1.93
-1.75
-1.38
-0.72
0.20
1.23
2.26
3.17
3.92
4.50
4.89
5.07
5.08
5.13
5.46
6.30
7.58
8.93
9.88
10.09
9.64
8.96
8.55
8.68
9.23
9.75
9.81
9.28
8.38
7.49
6.85
6.43
5.95
5.15
3.98
2.63
1.40
0.51
-0.02
-0.35
-0.70
-1.28
-2.16
-3.28
-4.46
-5.48
-6.25
-6.73
-7.05
-7.37
-7.79
-8.26
-8.60
-8.56
-8.02
-7.01
-5.77
-4.57
-3.62
-2.95
-2.48
-2.09
-1.70
-1.30
-0.93
-0.63
-0.37
-0.11
0.17
0.46
0.71
0.88
0.96
1.02
1.09
1.21
1.36
1.46
1.42
1.19
0.74
0.15
-0.47
-0.94
-1.16
-1.07
-0.73
-0.26
0.16
0.38
0.33
0.01
-0.52
-1.19
-1.97
-2.80
-3.65
-4.47
-5.24
-5.97
-6.70
-7.50
-8.39
-9.34
-10.25
-10.92
-11.17
-10.86
-9.97
-8.57
-6.84
-4.97
-3.18
-1.63
-0.37
0.64
1.49
2.32
3.16
4.00
4.74
5.29
5.63
5.81
5.93
6.04
6.12
6.12
6.02
5.85
5.71
5.72
5.94
6.25
6.47
6.42
5.99
5.28
4.47
3.75
3.25
2.94
2.76
2.62
2.45
2.20
1.76
1.06
0.13
-0.90
-1.81
-2.41
-2.73
-3.00
-3.59
-4.75
-6.43
-8.34
-10.01
-11.10
-11.50
-11.38
-11.05
-10.82
-10.82
-11.01
-11.24
-11.30
-10.99
-10.22
-8.97
-7.32
-5.43
-3.44
-1.51
0.25
1.77
3.01
3.94
4.62
5.08
5.36
5.50
5.51
5.40
5.20
4.95
4.68
4.40
4.14
3.91
3.79
3.84
4.14
4.71
5.52
6.44
7.33
8.05
8.44
8.34
7.68
6.43
4.73
2.80
0.87
-0.92
-2.57
-4.20
-5.92
-7.73
-9.46
-10.75
-11.21
-10.66
-9.12
-6.87
-4.38
-2.06
-0.17
1.23
2.23
3.02
3.72
4.33
4.89
5.47
6.28
7.48
8.98
10.43
11.34
11.40
10.67
9.65
8.93
8.91
9.56
10.48
11.19
11.42
11.27
11.10
11.18
11.53
11.89
11.82
11.06
9.65
7.85
6.12
4.86
4.21
4.07
4.11
3.97
3.42
2.49
1.33
0.21
-0.69
-1.37
-1.91
-2.45
-3.05
-3.68
-4.26
-4.72
-5.07
-5.36
-5.70
-6.20
-6.87
-7.66
-8.42
-9.00
-9.27
-9.16
-8.70
-7.95
-7.06
-6.14
-5.28
-4.51
-3.77
-2.96
-2.02
-0.93
0.23
1.29
2.13
2.68
2.98
3.13
3.25
3.41
3.63
3.86
4.03
4.09
4.01
3.80
3.50
3.17
2.86
2.61
2.43
2.27
2.11
1.91
1.65
1.29
0.80
0.14
-0.69
-1.61
-2.49
-3.16
-3.53
-3.66
-3.71
-3.85
-4.24
-4.87
-5.65
-6.43
-7.06
-7.44
-7.53
-7.37
-6.98
-6.42
-5.75
-4.99
-4.18
-3.35
-2.55
-1.84
-1.27
-0.81
-0.34
0.24
1.02
1.92
2.78
3.41
3.66
3.54
3.18
2.79
2.52
2.44
2.50
2.60
2.65
2.57
2.35
1.98
1.51
0.94
0.33
-0.30
-0.89
-1.40
-1.79
-2.04
-2.22
-2.41
-2.73
-3.25
-3.94
-4.71
-5.40
-5.95
-6.34
-6.65
-6.94
-7.24
-7.49
-7.54
-7.28
-6.68
-5.77
-4.68
-3.54
-2.43
-1.37
-0.36
0.62
1.52
2.29
2.87
3.24
3.41
3.46
3.47
3.51
3.61
3.77
3.96
4.19
4.44
4.68
4.86
4.92
4.84
4.62
4.33
4.02
3.75
3.54
3.43
3.43
3.55
3.79
4.06
4.27
4.31
4.14
3.81
3.41
3.07
2.85
2.73
2.62
2.44
2.15
1.80
1.47
1.24
1.14
1.14
1.24
1.52
2.18
3.46
5.53
8.30
11.40
14.20
15.99
16.14
14.24
10.15
4.01
-3.69
-12.10
-20.07
-26.26
-29.44
-28.82
-24.29
-16.43
-6.42
4.32
14.41
22.85
29.04
32.80
34.28
33.88
32.12
29.60
26.84
24.19
21.72
19.17
16.10
12.04
6.74
0.35
-6.60
-13.41
-19.43
-24.31
-28.08
-31.06
-33.69
-36.27
-38.85
-41.18
-42.84
-43.36
-42.47
-40.23
-37.10
-33.76
-30.93
-29.06
-28.24
-28.23
-28.61
-29.02
-29.26
-29.29
-29.10
-28.56
-27.30
-24.79
-20.44
-13.85
-5.04
5.44
16.59
27.21
36.21
42.98
47.51
50.34
52.28
54.16
56.47
59.25
61.92
63.38
62.31
57.56
48.71
36.37
22.18
8.27
-3.36
-11.53
-15.99
-17.32
-16.39
-14.04
-10.92
-7.65
-4.93
-3.68
-4.82
-8.96
-16.12
-25.59
-36.06
-45.89
-53.60
-58.24
-59.70
-58.65
-56.28
-53.86
-52.30
-51.95
-52.59
-53.60
-54.14
-53.41
-50.74
-45.67
-38.09
-28.23
-16.67
-4.21
8.36
20.38
31.41
41.11
49.10
54.93
58.10
58.28
55.49
50.18
43.11
35.13
26.97
19.13
11.95
5.74
0.93
-1.99
-2.71
-1.27
1.80
5.59
9.08
11.51
12.52
12.21
10.93
9.12
7.15
5.25
3.57
2.21
1.25
0.70
0.52
0.59
0.76
0.88
0.83
0.58
0.17
-0.27
-0.55
-0.53
-0.17
0.45
1.15
1.73
2.10
2.28
2.39
2.58
2.90
3.32
3.74
4.06
4.24
4.31
4.32
4.32
4.29
4.18
3.97
3.69
3.43
3.27
3.29
3.46
3.67
3.78
3.65
3.26
2.67
2.06
1.58
1.35
1.36
1.50
1.57
1.44
1.07
0.53
0.00
-0.32
-0.31
0.05
0.70
1.50
2.33
3.17
4.08
5.20
6.60
8.26
9.97
11.43
12.34
12.58
12.32
11.91
11.76
12.15
13.14
14.51
15.89
17.00
17.68
18.00
18.21
18.64
19.46
20.65
21.92
22.82
23.02
22.49
21.63
20.97
20.83
20.93
20.21
17.20
10.56
-0.47
-15.85
-34.72
-55.57
-76.20
-93.75
-104.96
-106.93
-98.24
-79.93
-55.69
-30.87
-10.70
1.45
5.00
1.82
-5.05
-12.84
-19.87
-25.60
-30.07
-33.36
-35.37
-35.92
-34.97
-32.66
-29.29
-25.01
-19.75
-13.28
-5.34
4.15
14.96
26.61
38.37
49.35
58.69
65.67
69.98
71.73
71.44
69.72
67.01
63.53
59.28
54.31
48.76
42.92
37.06
31.24
25.23
18.74
11.64
4.20
-2.82
-8.51
-11.86
-12.19
-9.38
-4.14
2.12
7.68
11.06
11.59
9.53
6.10
2.82
0.75
-0.09
-0.56
-1.74
-4.08
-7.04
-9.60
-10.66
-9.85
-7.93
-6.66
-7.88
-12.58
-20.36
-29.65
-38.77
-46.23
-51.15
-53.29
-52.95
-50.65
-46.96
-42.63
-36.74
-30.34
-25.62
-23.82
-23.53
-21.59
-15.26
-3.90
10.50
24.41
34.32
38.99
38.91
35.77
31.47
27.21
23.37
19.78
16.24
12.67
9.40
7.00
5.79
5.52
5.44
4.75
3.07
0.65
-1.90
-3.80
-4.50
-3.87
-2.35
-0.67
0.51
0.90
0.63
0.07
-0.32
-0.22
0.40
1.34
2.22
2.70
2.65
2.20
1.63
1.24
1.17
1.42
1.81
2.09
2.11
1.84
1.35
0.76
0.17
-0.42
-1.07
-1.87
-2.96
-4.42
-6.35
-8.74
-11.48
-14.30
-16.72
-18.19
-18.17
-16.45
-13.30
-9.43
-5.79
-3.17
-1.85
-1.45
-1.18
-0.32
1.29
3.11
4.21
3.89
2.26
0.33
-0.46
1.00
4.97
10.74
17.02
22.65
26.73
28.52
27.16
21.65
11.41
-2.94
-19.15
-33.77
-43.39
-46.14
-42.34
-34.22
-24.60
-15.52
-7.65
-0.56
6.29
12.78
18.00
20.82
20.75
18.28
14.66
11.26
8.88
7.49
6.49
5.18
3.27
0.98
-1.19
-2.67
-3.28
-3.22
-2.98
-3.04
-3.66
-4.83
-6.31
-7.87
-9.24
-10.17
-10.29
-9.20
-6.60
-2.50
2.62
7.99
12.93
17.12
20.71
24.05
27.14
29.36
29.65
27.19
22.12
15.75
10.24
7.58
8.74
13.33
19.95
26.96
33.05
37.51
39.94
40.04
37.59
32.68
26.02
18.87
12.63
8.21
5.72
4.51
3.62
2.27
0.03
-3.25
-7.64
-13.20
-19.89
-27.35
-34.98
-42.15
-48.45
-53.76
-58.03
-60.88
-61.49
-58.83
-52.32
-42.38
-30.55
-18.99
-9.67
-3.54
-0.42
0.65
0.78
0.64
0.38
-0.13
-0.90
-1.67
-1.98
-1.47
-0.16
1.60
3.22
4.19
4.32
3.77
2.98
2.44
2.46
3.06
3.98
4.85
5.36
5.40
5.07
4.60
4.20
3.99
3.98
4.09
4.20
4.24
4.17
4.00
3.75
3.43
3.07
2.66
2.23
1.80
1.42
1.15
1.00
0.93
0.85
0.67
0.28
-0.31
-1.04
-1.78
-2.41
-2.84
-3.09
-3.21
-3.33
-3.52
-3.86
-4.35
-4.96
-5.61
-6.18
-6.58
-6.70
-6.52
-6.05
-5.36
-4.53
-3.63
-2.74
-1.92
-1.23
-0.72
-0.37
-0.15
0.02
0.19
0.40
0.61
0.79
0.90
0.96
1.00
1.09
1.27
1.52
1.79
1.97
1.99
1.80
1.44
1.01
0.65
0.44
0.39
0.42
0.41
0.30
0.11
-0.11
-0.30
-0.46
-0.63
-0.87
-1.22
-1.63
-2.01
-2.27
-2.37
-2.35
-2.34
-2.51
-3.03
-4.04
-5.57
-7.60
-10.03
-12.71
-15.45
-17.96
-19.89
-20.93
-20.81
-19.43
-16.84
-13.19
-8.65
-3.41
2.35
8.43
14.47
20.03
24.58
27.61
28.76
27.86
25.04
20.69
15.48
10.25
5.86
2.93
1.69
1.84
2.66
3.21
2.58
0.25
-3.85
-9.26
-15.18
-20.65
-24.78
-26.96
-26.97
-25.08
-21.95
-18.52
-15.67
-13.99
-13.62
-14.27
-15.41
-16.44
-16.96
-16.73
-15.76
-14.17
-12.13
-9.80
-7.33
-4.81
-2.33
0.09
2.41
4.63
6.72
8.73
10.70
12.69
14.71
16.61
18.16
19.05
19.14
18.51
17.53
16.76
16.75
17.88
20.20
23.37
26.76
29.65
31.35
31.49
30.01
27.17
23.35
18.88
13.90
8.37
2.17
-4.73
-12.17
-19.86
-27.49
-34.70
-41.03
-45.82
-48.21
-47.39
-42.97
-35.30
-25.49
-14.96
-4.97
3.91
11.82
19.22
26.39
33.12
38.76
42.58
44.28
44.08
42.57
40.36
37.69
34.44
30.26
24.91
18.49
11.44
4.40
-2.00
-7.29
-11.23
-13.82
-15.24
-15.76
-15.70
-15.24
-14.42
-13.13
-11.23
-8.70
-5.70
-2.59
0.23
2.51
4.14
5.20
5.76
5.86
5.44
4.45
2.94
1.13
-0.67
-2.15
-3.14
-3.70
-4.03
-4.34
-4.80
-5.38
-5.93
-6.24
-6.15
-5.57
-4.54
-3.19
-1.69
-0.25
0.95
1.77
2.16
2.16
1.85
1.38
0.88
0.46
0.20
0.19
0.48
1.07
1.91
2.89
3.87
4.72
5.36
5.75
5.91
5.90
5.76
5.51
5.16
4.73
4.27
3.89
3.68
3.73
3.98
4.31
4.52
4.44
4.00
3.25
2.27
1.12
-0.19
-1.67
-3.23
-4.72
-5.90
-6.57
-6.63
-6.12
-5.11
-3.67
-1.80
0.57
3.45
6.84
10.67
14.88
19.46
24.46
29.89
35.55
40.96
45.27
47.40
46.27
41.11
31.77
18.77
3.40
-12.54
-26.99
-38.01
-44.29
-45.41
-42.05
-35.69
-28.20
-21.10
-15.16
-10.27
-5.78
-1.10
3.86
8.47
11.61
12.16
9.40
3.35
-5.19
-14.79
-23.72
-30.27
-33.29
-32.41
-28.17
-21.80
-14.76
-8.28
-3.11
0.51
2.64
3.39
2.83
1.02
-1.79
-5.13
-8.36
-10.92
-12.59
-13.60
-14.47
-15.72
-17.55
-19.68
-21.47
-22.15
-21.22
-18.60
-14.71
-10.28
-6.07
-2.73
-0.62
0.14
-0.23
-1.25
-2.17
-2.22
-0.80
2.22
6.40
10.87
14.56
16.59
16.43
14.00
9.64
4.04
-1.88
-7.09
-10.63
-11.90
-10.84
-7.89
-3.85
0.48
4.46
7.77
10.22
11.64
11.89
10.96
9.21
7.34
6.19
6.34
7.82
10.13
12.52
14.39
15.58
16.34
17.05
17.95
18.97
19.85
20.26
19.93
18.77
16.80
14.17
11.19
8.29
5.97
4.63
4.38
5.03
6.20
7.43
8.40
8.88
8.75
7.93
6.43
4.40
2.16
0.08
-1.59
-2.86
-4.03
-5.51
-7.58
-10.14
-12.68
-14.51
-15.05
-14.08
-11.86
-9.02
-6.31
-4.35
-3.44
-3.59
-4.58
-6.13
-8.01
-10.04
-12.06
-13.89
-15.32
-16.15
-16.31
-15.87
-14.99
-13.91
-12.76
-11.56
-10.21
-8.57
-6.57
-4.28
-1.95
0.13
1.63
2.37
2.32
1.65
0.67
-0.19
-0.53
-0.08
1.15
2.84
4.41
5.27
5.07
3.96
2.49
1.43
1.35
2.37
4.07
5.77
6.79
6.72
5.54
3.47
0.90
-1.71
-3.77
-4.63
-3.72
-0.85
3.58
8.48
12.49
14.44
13.85
11.10
7.15
2.98
-0.79
-4.08
-7.02
-9.56
-11.25
-11.43
-9.63
-6.03
-1.43
3.01
6.42
8.55
9.96
11.62
14.40
18.62
23.83
29.06
33.24
35.71
36.49
36.16
35.59
35.53
36.38
38.12
40.46
42.85
44.47
44.24
40.91
33.46
21.63
6.49
-9.77
-24.38
-34.90
-39.98
-39.62
-34.94
-27.75
-19.98
-13.26
-8.92
-7.91
-10.57
-16.39
-24.04
-31.64
-37.41
-40.23
-39.66
-36.07
-30.40
-23.70
-16.77
-10.07
-3.86
1.66
6.19
9.66
12.29
14.40
16.37
18.36
20.27
21.79
22.51
20.80
16.30
10.34
4.62
-0.39
-5.62
-11.89
-18.37
-22.70
-22.17
-15.04
-1.85
14.36
29.43
38.87
38.05
25.25
3.08
-22.64
-45.54
-61.24
-68.03
-66.08
-56.88
-43.18
-28.09
-14.58
-4.70
0.83
3.07
3.44
3.48
3.89
3.81
1.43
-5.23
-17.23
-34.13
-53.65
-72.07
-84.59
-85.18
-70.87
-42.74
-5.72
33.26
67.47
92.36
103.24
98.73
82.47
61.32
41.85
27.81
20.16
17.81
18.55
19.78
19.93
18.53
15.60
11.89
7.50
2.91
-1.25
-4.38
-6.11
-5.96
-4.04
-1.31
0.90
1.58
0.67
-1.22
-3.18
-4.47
-4.57
-3.67
-2.49
-1.72
-1.61
-1.80
-1.77
-1.20
-0.15
1.08
1.60
0.51
-2.41
-6.53
-10.61
-13.44
-14.12
-12.24
-6.73
1.56
9.99
15.50
16.34
12.79
6.69
0.78
-2.63
-1.81
3.00
10.48
19.29
28.48
37.58
46.49
54.53
60.74
63.69
60.02
45.83
18.94
-19.35
-64.06
-107.94
-144.22
-169.04
-175.89
-163.65
-137.33
-104.93
-72.43
-42.01
-14.13
10.02
28.46
39.72
42.60
37.05
24.04
4.81
-19.92
-49.02
-79.89
-107.86
-126.53
-130.32
-116.31
-85.43
-42.80
3.31
44.46
75.23
92.22
96.11
90.50
79.40
65.78
51.34
37.94
28.90
28.94
42.13
67.22
97.84
123.50
135.13
130.28
113.62
93.59
78.00
69.96
67.20
64.23
55.69
39.50
17.34
-7.08
-29.92
-48.29
-60.31
-64.51
-59.89
-47.19
-29.68
-12.79
-2.25
-1.37
-9.18
-21.02
-31.41
-36.73
-36.82
-34.17
-31.09
-28.59
-26.26
-23.19
-19.08
-14.68
-11.32
-10.28
-11.74
-14.73
-17.65
-18.94
-17.83
-14.61
-10.58
-7.35
-6.16
-7.26
-9.91
-12.82
-14.74
-14.91
-13.36
-10.81
-8.33
-6.86
-6.87
-8.18
-10.18
-12.25
-13.76
-14.35
-13.93
-12.59
-10.44
-7.54
-3.93
0.23
4.58
8.55
11.51
12.92
12.59
10.66
7.50
3.54
-0.90
-5.50
-9.85
-13.41
-15.49
-15.59
-13.55
-9.70
-4.72
0.60
5.67
10.27
14.43
18.29
21.86
24.99
27.46
29.14
30.15
30.81
31.51
32.49
33.69
34.68
34.91
33.90
31.59
28.37
25.00
22.22
20.49
19.76
19.59
19.29
18.35
16.53
13.94
10.91
7.76
4.63
1.49
-1.84
-5.44
-9.30
-13.22
-16.93
-20.20
-22.92
-25.07
-26.65
-27.62
-27.88
-27.29
-25.87
-23.74
-21.24
-18.75
-16.58
-14.90
-13.71
-12.90
-12.35
-12.01
-11.85
-11.84
-11.86
-11.80
-11.57
-11.17
-10.72
-10.32
-10.00
-9.67
-9.12
-8.18
-6.82
-5.16
-3.41
-1.76
-0.33
0.87
1.85
2.58
3.02
3.10
2.85
2.40
1.98
1.78
1.90
2.30
2.84
3.39
3.86
4.32
4.87
5.59
6.45
7.31
7.96
8.25
8.15
7.79
7.32
6.85
6.38
5.79
5.01
4.04
3.02
2.14
1.58
1.37
1.43
1.58
1.72
1.78
1.82
1.92
2.12
2.41
2.72
2.97
3.10
3.12
3.09
3.06
3.08
3.17
3.28
3.38
3.38
3.28
3.09
2.89
2.72
2.63
2.62
2.67
2.78
2.94
3.15
3.40
3.62
3.75
3.74
3.57
3.27
2.90
2.50
2.13
1.77
1.42
1.04
0.59
0.04
-0.59
-1.27
-1.94
-2.57
-3.17
-3.77
-4.36
-4.89
-5.27
-5.34
-5.04
-4.38
-3.49
-2.55
-1.72
-1.07
-0.59
-0.19
0.18
0.57
0.98
1.38
1.78
2.15
2.48
2.76
2.95
3.04
3.01
2.86
2.55
2.05
1.39
0.65
-0.04
-0.50
-0.63
-0.48
-0.19
0.04
0.04
-0.21
-0.63
-1.08
-1.42
-1.62
-1.72
-1.81
-1.96
-2.20
-2.52
-2.90
-3.34
-3.86
-4.49
-5.21
-5.95
-6.52
-6.72
-6.40
-5.55
-4.29
-2.86
-1.46
-0.18
0.97
2.05
3.10
4.10
4.96
5.61
6.03
6.26
6.38
6.44
6.45
6.38
6.22
5.98
5.70
5.43
5.19
4.96
4.73
4.47
4.15
3.79
3.40
2.99
2.56
2.11
1.65
1.22
0.85
0.57
0.37
0.18
-0.05
-0.39
-0.81
-1.27
-1.70
-2.05
-2.35
-2.62
-2.92
-3.22
-3.50
-3.71
-3.85
-3.91
-3.93
-3.89
-3.72
-3.35
-2.73
-1.89
-0.96
-0.09
0.60
1.06
1.34
1.53
1.73
1.96
2.23
2.48
2.66
2.76
2.76
2.68
2.55
2.36
2.14
1.93
1.81
1.81
1.92
2.10
2.23
2.23
2.02
1.59
0.98
0.29
-0.35
-0.84
-1.08
-1.08
-0.94
-0.82
-0.90
-1.27
-1.91
-2.66
-3.34
-3.81
-4.01
-3.97
-3.73
-3.36
-2.88
-2.32
-1.72
-1.13
-0.59
-0.13
0.30
0.71
1.13
1.53
1.85
2.06
2.17
2.22
2.25
2.29
2.33
2.39
2.46
2.55
2.66
2.74
2.71
2.51
2.13
1.63
1.11
0.69
0.39
0.18
0.00
-0.19
-0.39
-0.56
-0.63
-0.62
-0.56
-0.55
-0.66
-0.89
-1.22
-1.56
-1.88
-2.15
-2.39
-2.62
-2.84
-3.06
-3.26
-3.41
-3.51
-3.55
-3.52
-3.41
-3.21
-2.88
-2.42
-1.82
-1.15
-0.49
0.04
0.35
0.41
0.27
0.06
-0.12
-0.19
-0.12
0.05
0.22
0.34
0.35
0.29
0.19
0.16
0.30
0.70
1.36
2.22
3.18
4.16
5.10
5.98
6.74
7.31
7.56
7.43
6.91
6.08
5.11
4.13
3.25
2.52
1.97
1.62
1.51
1.61
1.83
2.04
2.07
1.85
1.38
0.79
0.28
0.02
0.10
0.49
1.11
1.83
2.56
3.27
3.95
4.60
5.15
5.53
5.68
5.66
5.55
5.48
5.45
5.34
4.95
4.11
2.78
1.11
-0.60
-2.05
-2.96
-3.24
-2.87
-1.95
-0.60
1.03
2.78
4.47
5.97
7.21
8.19
8.99
9.66
10.15
10.33
9.94
8.82
6.93
4.44
1.68
-0.97
-3.28
-5.16
-6.71
-8.09
-9.41
-10.72
-11.99
-13.18
-14.27
-15.25
-16.09
-16.75
-17.12
-17.12
-16.69
-15.84
-14.71
-13.52
-12.55
-12.08
-12.27
-13.12
-14.42
-15.74
-16.56
-16.38
-14.84
-11.88
-7.76
-2.98
1.83
6.09
9.41
11.71
13.11
13.83
14.08
13.92
13.33
12.24
10.69
8.80
6.84
5.07
3.70
2.83
2.39
2.26
2.33
2.53
2.83
3.23
3.69
4.09
4.34
4.37
4.25
4.12
4.15
4.41
4.79
5.12
5.23
5.08
4.75
4.44
4.30
4.36
4.55
4.73
4.79
4.67
4.31
3.65
2.56
0.96
-1.20
-3.82
-6.74
-9.72
-12.56
-15.12
-17.32
-19.12
-20.47
-21.32
-21.64
-21.47
-20.93
-20.25
-19.68
-19.44
-19.58
-20.00
-20.45
-20.60
-20.21
-19.15
-17.45
-15.22
-12.62
-9.76
-6.72
-3.53
-0.23
3.10
6.30
9.16
11.52
13.26
14.44
15.24
15.92
16.71
17.67
18.71
19.67
20.41
20.99
21.61
22.52
23.81
25.32
26.67
27.45
27.40
26.53
24.97
22.82
19.96
16.10
11.04
4.92
-1.59
-7.47
-11.68
-13.63
-13.39
-11.65
-9.36
-7.31
-5.88
-5.02
-4.42
-3.82
-3.20
-2.70
-2.53
-2.74
-3.19
-3.62
-3.82
-3.75
-3.54
-3.44
-3.60
-4.09
-4.77
-5.47
-6.02
-6.33
-6.43
-6.44
-6.52
-6.79
-7.30
-7.95
-8.53
-8.79
-8.54
-7.74
-6.50
-5.01
-3.47
-1.98
-0.61
0.66
1.87
3.04
4.19
5.26
6.13
6.60
6.47
5.62
4.15
2.32
0.50
-0.93
-1.76
-1.96
-1.71
-1.29
-0.95
-0.88
-1.13
-1.68
-2.39
-3.12
-3.68
-4.00
-4.02
-3.81
-3.48
-3.17
-2.96
-2.88
-2.88
-2.90
-2.86
-2.73
-2.47
-2.07
-1.53
-0.85
-0.07
0.70
1.39
1.92
2.26
2.45
2.52
2.51
2.47
2.42
2.41
2.48
2.60
2.75
2.84
2.83
2.70
2.47
2.21
1.95
1.74
1.58
1.46
1.36
1.30
1.25
1.17
0.99
0.67
0.21
-0.34
-0.87
-1.28
-1.50
-1.53
-1.44
-1.34
-1.33
-1.42
-1.60
-1.84
-2.09
-2.36
-2.65
-2.98
-3.33
-3.68
-4.03
-4.38
-4.73
-5.11
-5.48
-5.80
-6.03
-6.14
-6.17
-6.21
-6.39
-6.78
-7.38
-8.09
-8.77
-9.28
-9.59
-9.75
-9.84
-9.92
-9.99
-9.89
-9.49
-8.66
-7.39
-5.76
-3.92
-2.03
-0.25
1.32
2.61
3.62
4.42
5.14
5.90
6.80
7.86
9.02
10.18
11.22
12.04
12.58
12.86
12.87
12.68
12.34
11.90
11.39
10.80
10.12
9.30
8.36
7.30
6.19
5.03
3.86
2.65
1.44
0.27
-0.77
-1.57
-2.09
-2.29
-2.23
-1.95
-1.56
-1.12
-0.70
-0.34
-0.08
0.07
0.14
0.14
0.13
0.13
0.16
0.21
0.25
0.28
0.31
0.38
0.52
0.72
0.92
1.01
0.92
0.62
0.18
-0.24
-0.47
-0.42
-0.10
0.36
0.78
1.05
1.12
1.06
0.96
0.86
0.73
0.49
0.09
-0.44
-0.99
-1.44
-1.72
-1.86
-1.94
-2.09
-2.34
-2.69
-3.04
-3.34
-3.54
-3.63
-3.63
-3.56
-3.41
-3.18
-2.85
-2.41
-1.86
-1.25
-0.62
-0.07
0.38
0.73
1.05
1.43
1.92
2.48
3.01
3.40
3.59
3.59
3.46
3.25
3.00
2.73
2.44
2.12
1.81
1.52
1.28
1.07
0.83
0.55
0.24
-0.07
-0.34
-0.55
-0.73
-0.92
-1.15
-1.45
-1.81
-2.24
-2.76
-3.39
-4.08
-4.77
-5.34
-5.72
-5.90
-5.99
-6.12
-6.33
-6.54
-6.56
-6.20
-5.39
-4.25
-3.02
-1.91
-1.00
-0.17
0.76
1.89
3.19
4.44
5.42
5.98
6.15
6.10
6.02
6.05
6.18
6.30
6.29
6.09
5.75
5.38
5.08
4.94
4.93
5.01
5.11
5.16
5.12
4.98
4.71
4.30
3.75
3.08
2.34
1.61
0.93
0.33
-0.20
-0.69
-1.13
-1.51
-1.82
-2.06
-2.27
-2.51
-2.79
-3.08
-3.30
-3.39
-3.33
-3.18
-3.01
-2.86
-2.68
-2.40
-1.94
-1.31
-0.61
0.07
0.67
1.26
1.91
2.71
3.62
4.55
5.34
5.92
6.27
6.49
6.69
6.99
7.41
7.89
8.33
8.63
8.72
8.62
8.37
8.03
7.64
7.19
6.61
5.83
4.78
3.50
2.05
0.52
-0.97
-2.33
-3.51
-4.47
-5.26
-5.93
-6.55
-7.20
-7.90
-8.69
-9.63
-10.79
-12.22
-13.89
-15.61
-17.13
-18.18
-18.63
-18.56
-18.16
-17.69
-17.24
-16.74
-15.94
-14.57
-12.44
-9.56
-6.13
-2.45
1.16
4.49
7.41
9.90
11.97
13.58
14.62
14.98
14.62
13.59
12.11
10.46
8.91
7.62
6.62
5.85
5.20
4.60
4.04
3.50
2.97
2.44
1.90
1.36
0.88
0.53
0.35
0.31
0.34
0.36
0.32
0.21
0.06
-0.13
-0.36
-0.65
-1.03
-1.46
-1.91
-2.30
-2.60
-2.82
-2.99
-3.19
-3.44
-3.72
-3.96
-4.07
-3.99
-3.70
-3.23
-2.63
-1.98
-1.34
-0.79
-0.37
-0.09
0.09
0.23
0.38
0.58
0.85
1.18
1.52
1.81
2.00
2.06
2.00
1.85
1.69
1.58
1.52
1.53
1.55
1.54
1.47
1.34
1.14
0.89
0.59
0.27
-0.01
-0.21
-0.34
-0.43
-0.55
-0.79
-1.16
-1.63
-2.09
-2.44
-2.61
-2.62
-2.56
-2.57
-2.77
-3.16
-3.68
-4.14
-4.40
-4.36
-4.05
-3.55
-3.01
-2.50
-2.05
-1.61
-1.12
-0.54
0.11
0.79
1.43
1.96
2.36
2.62
2.79
2.91
3.02
3.12
3.18
3.19
3.13
3.02
2.91
2.81
2.71
2.58
2.40
2.21
2.07
2.06
2.20
2.43
2.64
2.67
2.45
1.99
1.39
0.77
0.24
-0.18
-0.51
-0.82
-1.15
-1.53
-1.92
-2.24
-2.43
-2.44
-2.29
-2.07
-1.84
-1.69
-1.58
-1.43
-1.16
-0.73
-0.21
0.26
0.53
0.53
0.31
-0.02
-0.31
-0.47
-0.46
-0.25
0.11
0.59
1.13
1.64
2.00
2.14
2.01
1.66
1.23
0.82
0.53
0.37
0.31
0.24
0.08
-0.22
-0.63
-1.08
-1.46
-1.70
-1.78
-1.75
-1.71
-1.74
-1.90
-2.23
-2.68
-3.20
-3.65
-3.91
-3.92
-3.65
-3.19
-2.63
-2.06
-1.52
-1.03
-0.53
-0.02
0.51
1.03
1.48
1.84
2.07
2.20
2.26
2.26
2.24
2.23
2.24
2.27
2.32
2.38
2.44
2.47
2.44
2.31
2.06
1.69
1.27
0.86
0.51
0.26
0.08
-0.07
-0.26
-0.52
-0.92
-1.45
-2.10
-2.80
-3.47
-4.01
-4.38
-4.57
-4.62
-4.56
-4.42
-4.19
-3.84
-3.39
-2.88
-2.37
-1.92
-1.51
-1.09
-0.61
-0.07
0.48
0.91
1.16
1.22
1.19
1.19
1.31
1.55
1.84
2.06
2.16
2.15
2.08
2.03
2.00
1.94
1.81
1.59
1.34
1.16
1.07
1.05
1.00
0.82
0.46
-0.02
-0.53
-0.95
-1.22
-1.33
-1.33
-1.29
-1.29
-1.40
-1.66
-2.09
-2.66
-3.30
-3.87
-4.24
-4.29
-3.98
-3.35
-2.53
-1.67
-0.89
-0.25
0.26
0.73
1.21
1.72
2.23
2.66
2.96
3.09
3.05
2.88
2.62
2.33
2.08
1.93
1.89
1.95
2.07
2.22
2.34
2.41
2.44
2.39
2.21
1.90
1.44
0.90
0.34
-0.14
-0.49
-0.70
-0.81
-0.89
-1.02
-1.24
-1.58
-2.01
-2.47
-2.89
-3.18
-3.28
-3.22
-3.08
-2.92
-2.81
-2.72
-2.57
-2.28
-1.81
-1.16
-0.37
0.47
1.28
1.98
2.51
2.81
2.90
2.80
2.60
2.39
2.24
2.20
2.26
2.39
2.52
2.61
2.59
2.48
2.32
2.14
1.97
1.79
1.54
1.19
0.73
0.21
-0.31
-0.76
-1.12
-1.37
-1.49
-1.52
-1.51
-1.57
-1.78
-2.18
-2.72
-3.26
-3.65
-3.84
-3.84
-3.77
-3.68
-3.58
-3.38
-3.00
-2.41
-1.67
-0.89
-0.18
0.45
1.04
1.64
2.24
2.72
2.98
2.96
2.70
2.34
2.04
1.92
2.01
2.23
2.51
2.75
2.90
2.92
2.80
2.55
2.26
2.01
1.88
1.86
1.85
1.71
1.37
0.87
0.32
-0.09
-0.29
-0.32
-0.34
-0.50
-0.84
-1.32
-1.78
-2.12
-2.31
-2.42
-2.56
-2.82
-3.17
-3.50
-3.66
-3.55
-3.14
-2.53
-1.85
-1.26
-0.78
-0.40
-0.00
0.51
1.14
1.83
2.43
2.84
2.99
2.94
2.79
2.63
2.52
2.45
2.36
2.23
2.04
1.81
1.61
1.44
1.31
1.21
1.11
1.01
0.90
0.76
0.60
0.43
0.25
0.07
-0.12
-0.34
-0.57
-0.80
-1.00
-1.19
-1.40
-1.72
-2.19
-2.81
-3.48
-4.03
-4.32
-4.28
-3.99
-3.57
-3.20
-2.93
-2.76
-2.60
-2.34
-1.92
-1.31
-0.54
0.32
1.19
1.98
2.63
3.10
3.38
3.46
3.39
3.18
2.89
2.58
2.33
2.17
2.11
2.11
2.12
2.08
1.97
1.83
1.67
1.55
1.45
1.36
1.23
1.07
0.86
0.63
0.40
0.18
-0.07
-0.38
-0.78
-1.25
-1.74
-2.16
-2.46
-2.65
-2.78
-2.88
-3.01
-3.14
-3.24
-3.27
-3.18
-2.96
-2.59
-2.04
-1.32
-0.45
0.46
1.27
1.84
2.10
2.09
1.93
1.73
1.58
1.52
1.56
1.68
1.91
2.23
2.63
2.99
3.20
3.15
2.79
2.20
1.50
0.83
0.29
-0.10
-0.35
-0.49
-0.53
-0.49
-0.38
-0.27
-0.25
-0.38
-0.72
-1.23
-1.84
-2.46
-3.03
-3.52
-3.91
-4.20
-4.35
-4.31
-4.10
-3.72
-3.24
-2.72
-2.22
-1.76
-1.30
-0.78
-0.15
0.62
1.48
2.29
2.86
3.04
2.79
2.24
1.67
1.37
1.52
2.08
2.86
3.61
4.08
4.19
3.96
3.50
2.93
2.34
1.78
1.29
0.88
0.57
0.37
0.26
0.20
0.13
0.00
-0.21
-0.48
-0.76
-1.00
-1.20
-1.40
-1.65
-2.04
-2.60
-3.27
-3.95
-4.48
-4.75
-4.68
-4.30
-3.71
-3.01
-2.31
-1.67
-1.11
-0.64
-0.25
0.06
0.30
0.54
0.86
1.30
1.84
2.35
2.70
2.77
2.59
2.31
2.14
2.21
2.54
3.00
3.38
3.52
3.35
2.90
2.31
1.72
1.22
0.84
0.56
0.32
0.09
-0.14
-0.32
-0.44
-0.50
-0.57
-0.73
-1.02
-1.42
-1.86
-2.23
-2.50
-2.69
-2.91
-3.20
-3.55
-3.86
-4.00
-3.87
-3.50
-2.98
-2.44
-1.95
-1.50
-1.03
-0.49
0.13
0.75
1.28
1.66
1.88
2.01
2.14
2.31
2.52
2.71
2.84
2.87
2.79
2.65
2.45
2.20
1.91
1.58
1.27
1.02
0.89
0.88
0.96
1.05
1.11
1.11
1.04
0.90
0.72
0.49
0.20
-0.15
-0.55
-1.00
-1.44
-1.86
-2.24
-2.59
-2.92
-3.24
-3.51
-3.67
-3.67
-3.49
-3.16
-2.78
-2.41
-2.12
-1.87
-1.58
-1.17
-0.56
0.23
1.11
1.96
2.61
3.01
3.17
3.16
3.08
3.02
2.99
3.01
3.07
3.14
3.24
3.32
3.35
3.26
2.99
2.55
2.00
1.42
0.91
0.55
0.34
0.27
0.27
0.27
0.20
-0.00
-0.36
-0.84
-1.39
-1.90
-2.26
-2.42
-2.43
-2.39
-2.46
-2.69
-3.05
-3.41
-3.62
-3.61
-3.42
-3.15
-2.87
-2.56
-2.12
-1.46
-0.59
0.37
1.22
1.81
2.11
2.23
2.30
2.44
2.64
2.78
2.72
2.42
1.88
1.22
0.57
0.03
-0.36
-0.60
-0.73
-0.80
-0.82
-0.81
-0.76
-0.70
-0.64
-0.62
-0.69
-0.87
-1.15
-1.47
-1.77
-2.03
-2.29
-2.57
-2.95
-3.44
-3.98
-4.49
-4.88
-5.09
-5.15
-5.10
-5.02
-4.96
-4.90
-4.80
-4.53
-4.01
-3.20
-2.14
-0.96
0.18
1.13
1.82
2.25
2.48
2.64
2.84
3.14
3.56
4.08
4.64
5.24
5.89
6.59
7.33
8.00
8.45
8.53
8.17
7.44
6.46
5.37
4.23
2.97
1.51
-0.16
-1.91
-3.52
-4.75
-5.48
-5.74
-5.71
-5.57
-5.46
-5.40
-5.34
-5.22
-5.06
-4.94
-4.97
-5.20
-5.56
-5.86
-5.94
-5.67
-5.06
-4.23
-3.30
-2.37
-1.47
-0.58
0.34
1.27
2.15
2.90
3.47
3.87
4.13
4.35
4.56
4.80
5.02
5.17
5.16
4.95
4.58
4.14
3.78
3.61
3.68
3.89
4.10
4.16
3.94
3.45
2.77
2.06
1.48
1.12
0.97
0.96
0.98
0.96
0.84
0.62
0.29
-0.18
-0.81
-1.60
-2.46
-3.22
-3.71
-3.84
-3.64
-3.30
-3.02
-2.89
-2.87
-2.79
-2.46
-1.84
-1.05
-0.31
0.19
0.41
0.45
0.53
0.76
1.15
1.58
1.87
1.91
1.69
1.32
0.91
0.57
0.30
0.10
-0.06
-0.20
-0.30
-0.39
-0.53
-0.80
-1.29
-1.98
-2.78
-3.52
-4.07
-4.36
-4.45
-4.45
-4.46
-4.55
-4.73
-4.96
-5.27
-5.64
-6.10
-6.60
-7.09
-7.47
-7.68
-7.69
-7.48
-7.02
-6.20
-4.93
-3.12
-0.81
1.86
4.67
7.39
9.86
12.02
13.86
15.35
16.42
16.97
16.96
16.42
15.51
14.43
13.34
12.32
11.34
10.34
9.29
8.20
7.13
6.14
5.27
4.50
3.82
3.22
2.71
2.30
2.00
1.82
1.73
1.70
1.70
1.67
1.56
1.35
1.06
0.74
0.45
0.25
0.12
0.01
-0.15
-0.40
-0.73
-1.07
-1.36
-1.56
-1.69
-1.81
-2.01
-2.35
-2.82
-3.36
-3.88
-4.28
-4.50
-4.54
-4.42
-4.20
-3.89
-3.49
-3.00
-2.46
-1.94
-1.54
-1.33
-1.30
-1.37
-1.40
-1.30
-1.04
-0.68
-0.30
0.05
0.32
0.52
0.58
0.47
0.11
-0.48
-1.21
-1.94
-2.49
-2.73
-2.63
-2.25
-1.75
-1.29
-1.04
-1.07
-1.37
-1.83
-2.30
-2.66
-2.81
-2.80
-2.71
-2.66
-2.71
-2.87
-3.06
-3.21
-3.26
-3.24
-3.19
-3.15
-3.11
-3.03
-2.84
-2.48
-1.98
-1.39
-0.77
-0.17
0.43
1.03
1.63
2.22
2.72
3.11
3.40
3.60
3.73
3.80
3.81
3.76
3.68
3.60
3.52
3.40
3.17
2.82
2.37
1.93
1.60
1.44
1.42
1.47
1.49
1.41
1.20
0.87
0.46
0.02
-0.37
-0.64
-0.72
-0.64
-0.50
-0.45
-0.61
-1.03
-1.65
-2.33
-2.95
-3.40
-3.63
-3.65
-3.47
-3.15
-2.75
-2.29
-1.83
-1.38
-0.95
-0.58
-0.29
-0.07
0.12
0.36
0.68
1.09
1.46
1.68
1.64
1.36
0.93
0.52
0.28
0.27
0.48
0.82
1.17
1.41
1.46
1.28
0.89
0.40
-0.07
-0.39
-0.52
-0.43
-0.18
0.18
0.58
0.93
1.13
1.08
0.76
0.21
-0.43
-1.02
-1.43
-1.63
-1.68
-1.61
-1.49
-1.30
-1.03
-0.71
-0.35
0.03
0.47
1.04
1.79
2.73
3.75
4.68
5.37
5.74
5.85
5.79
5.66
5.46
5.11
4.53
3.71
2.73
1.72
0.82
0.10
-0.51
-1.09
-1.73
-2.46
-3.19
-3.78
-4.09
-4.04
-3.64
-2.99
-2.22
-1.41
-0.59
0.29
1.30
2.47
3.75
5.03
6.18
7.06
7.59
7.70
7.40
6.74
5.87
4.92
4.06
3.36
2.80
2.26
1.60
0.67
-0.60
-2.19
-4.04
-6.02
-7.99
-9.73
-11.04
-11.75
-11.82
-11.35
-10.58
-9.82
-9.33
-9.23
-9.48
-9.92
-10.32
-10.48
-10.34
-9.91
-9.28
-8.56
-7.79
-7.03
-6.30
-5.70
-5.33
-5.27
-5.44
-5.66
-5.64
-5.13
-4.07
-2.56
-0.89
0.65
1.85
2.62
2.96
2.90
2.42
1.53
0.27
-1.20
-2.66
-3.86
-4.65
-4.96
-4.87
-4.53
-4.12
-3.81
-3.69
-3.73
-3.82
-3.78
-3.47
-2.83
-1.95
-0.99
-0.11
0.62
1.19
1.67
2.04
2.24
2.18
1.82
1.23
0.57
0.02
-0.32
-0.49
-0.61
-0.81
-1.18
-1.72
-2.35
-3.01
-3.65
-4.25
-4.78
-5.22
-5.56
-5.78
-5.94
-6.11
-6.40
-6.86
-7.48
-8.19
-8.87
-9.44
-9.85
-10.12
-10.30
-10.40
-10.35
-9.99
-9.23
-7.99
-6.33
-4.35
-2.16
0.23
2.85
5.72
8.77
11.84
14.71
17.22
19.32
21.11
22.67
24.06
25.17
25.84
25.91
25.31
24.17
22.67
21.05
19.44
17.91
16.42
14.97
13.59
12.35
11.30
10.37
9.37
8.07
6.32
4.14
1.76
-0.47
-2.26
-3.44
-4.08
-4.39
-4.65
-5.05
-5.60
-6.09
-6.20
-5.61
-4.13
-1.88
0.80
3.34
5.18
5.85
5.12
2.99
-0.28
-4.26
-8.34
-11.79
-14.00
-14.60
-13.61
-11.58
-9.32
-7.70
-7.27
-8.07
-9.68
-11.42
-12.76
-13.44
-13.56
-13.38
-13.13
-12.88
-12.61
-12.32
-12.11
-12.20
-12.70
-13.55
-14.39
-14.84
-14.65
-13.87
-12.85
-12.01
-11.52
-11.20
-10.54
-9.01
-6.32
-2.62
1.52
5.35
8.24
9.89
10.39
10.19
9.77
9.48
9.37
9.24
8.81
7.94
6.78
5.77
5.41
6.06
7.71
10.00
12.31
14.13
15.17
15.52
15.50
15.45
15.54
15.67
15.58
15.07
14.07
12.74
11.36
10.17
9.27
8.60
8.05
7.58
7.22
7.10
7.35
8.06
9.19
10.61
12.07
13.30
14.02
14.05
13.28
11.77
9.66
7.19
4.68
2.45
0.78
-0.14
-0.30
0.17
1.02
1.99
2.88
3.60
4.08
4.27
4.08
3.47
2.44
1.13
-0.24
-1.40
-2.16
-2.46
-2.39
-2.14
-1.90
-1.80
-1.90
-2.19
-2.71
-3.59
-4.98
-6.98
-9.51
-12.24
-14.70
-16.46
-17.34
-17.46
-17.17
-16.80
-16.48
-16.07
-15.34
-14.10
-12.47
-10.83
-9.70
-9.36
-9.77
-10.47
-10.85
-10.44
-9.12
-7.24
-5.35
-4.05
-3.69
-4.41
-6.13
-8.77
-12.07
-15.49
-18.03
-18.48
-15.92
-10.33
-2.78
4.93
11.05
14.65
15.95
15.95
15.71
15.79
16.05
16.01
15.32
14.11
12.83
11.94
11.59
11.48
11.18
10.34
8.93
7.22
5.66
4.63
4.27
4.42
4.70
4.70
4.19
3.21
2.07
1.12
0.59
0.52
0.71
0.93
1.01
0.92
0.70
0.46
0.25
0.10
0.02
-0.00
0.03
0.12
0.24
0.35
0.42
0.43
0.39
0.30
0.18
0.05
-0.06
-0.11
-0.06
0.10
0.33
0.61
0.87
1.09
1.26
1.33
1.27
1.04
0.67
0.23
-0.14
-0.37
-0.44
-0.43
-0.48
-0.69
-1.05
-1.49
-1.86
-2.08
-2.13
-2.05
-1.91
-1.77
-1.65
-1.54
-1.46
-1.41
-1.40
-1.43
-1.49
-1.54
-1.57
-1.58
-1.57
-1.58
-1.61
-1.65
-1.69
-1.67
-1.53
-1.25
-0.85
-0.44
-0.13
-0.04
-0.18
-0.47
-0.80
-1.08
-1.29
-1.48
-1.70
-1.96
-2.22
-2.44
-2.60
-2.72
-2.81
-2.87
-2.84
-2.68
-2.40
-2.07
-1.79
-1.62
-1.51
-1.36
-1.04
-0.49
0.23
0.94
1.51
1.84
1.98
2.06
2.23
2.58
3.18
4.08
5.33
6.91
8.67
10.31
11.34
11.30
9.95
7.43
4.25
1.09
-1.47
-3.14
-3.99
-4.31
-4.49
-4.83
-5.50
-6.48
-7.64
-8.82
-9.84
-10.55
-10.89
-10.86
-10.51
-9.78
-8.49
-6.41
-3.35
0.77
5.80
11.32
16.69
21.33
24.93
27.60
29.73
31.73
33.89
36.19
38.15
39.00
38.05
35.24
31.24
27.12
23.85
21.80
20.59
18.97
15.48
9.19
0.50
-9.07
-17.59
-23.59
-26.27
-25.08
-19.79
-10.66
0.95
12.54
20.82
22.62
16.25
2.34
-14.94
-29.95
-38.89
-42.71
-45.47
-50.03
-55.76
-59.60
-58.77
-52.71
-43.58
-34.73
-28.67
-25.68
-24.20
-22.41
-19.26
-14.84
-9.85
-5.39
-2.29
-0.85
-0.61
-0.62
-0.02
1.55
3.88
6.55
8.92
10.55
11.24
11.26
11.16
11.41
12.21
13.42
14.86
16.22
17.29
17.98
18.42
18.83
19.40
20.22
21.19
22.29
23.34
24.17
24.61
24.53
23.84
22.52
20.61
17.86
14.70
11.28
7.61
3.62
-0.81
-5.69
-10.88
-15.43
-19.27
-21.94
-23.33
-23.72
-23.71
-24.00
-25.11
-27.09
-29.48
-31.59
-32.57
-32.20
-30.87
-29.56
-29.34
-30.95
-34.36
-38.69
-42.92
-45.78
-46.75
-46.29
-45.44
-45.34
-46.90
-50.69
-57.04
-65.72
-75.29
-82.82
-84.24
-75.83
-56.17
-27.48
4.71
33.60
53.88
63.80
65.20
61.93
57.53
53.70
50.28
46.33
41.52
36.56
32.74
30.93
30.94
31.58
31.42
29.35
25.32
20.19
15.30
11.78
10.08
9.82
10.05
9.67
8.00
5.01
1.29
-2.30
-5.01
-6.54
-7.06
-7.08
-7.18
-7.76
-8.82
-10.09
-11.14
-11.69
-11.73
-11.41
-11.02
-10.83
-10.92
-11.14
-11.16
-10.55
-8.92
-6.24
-2.54
1.99
7.02
12.26
17.38
22.05
26.05
29.05
30.77
31.11
30.14
28.02
25.19
22.16
19.42
17.54
16.68
16.80
17.78
19.41
21.38
23.60
26.02
27.63
28.92
29.77
29.92
29.09
27.97
26.09
23.63
21.06
18.91
17.84
17.84
18.65
19.93
21.36
22.57
23.66
24.80
26.26
28.63
32.01
36.22
40.64
44.21
45.36
42.78
35.68
22.94
6.72
-10.46
-26.10
-38.35
-46.13
-49.87
-50.19
-47.97
-44.06
-38.99
-33.54
-28.41
-24.23
-21.37
-19.97
-19.78
-20.32
-21.02
-21.15
-20.43
-18.99
-17.19
-15.52
-14.42
-14.01
-14.15
-14.50
-14.53
-14.00
-12.93
-11.53
-10.11
-8.94
-8.11
-7.53
-7.03
-6.41
-5.64
-4.84
-4.16
-3.73
-3.54
-3.47
-3.34
-2.91
-1.99
-0.58
1.15
2.86
4.27
5.16
5.42
4.97
3.81
2.08
0.03
-1.95
-3.52
-4.43
-4.83
-5.42
-7.15
-10.66
-15.82
-21.50
-25.97
-27.57
-25.32
-19.26
-10.49
-0.52
9.31
18.24
26.07
32.82
37.41
38.80
36.71
31.96
25.96
19.84
14.12
8.86
4.00
-0.38
-3.81
-5.72
-5.80
-4.21
-1.53
1.46
4.12
6.05
7.11
7.48
7.51
7.27
6.73
5.87
4.77
3.66
2.81
2.34
2.26
2.45
2.67
2.79
2.75
2.70
2.77
3.00
3.19
3.09
2.49
1.29
-0.12
-1.36
-2.11
-2.28
-2.15
-2.22
-2.97
-4.61
-6.96
-9.55
-11.70
-12.80
-12.61
-11.42
-9.95
-8.99
-9.10
-10.28
-12.04
-13.46
-13.52
-11.68
-8.28
-4.35
-1.20
0.22
-0.27
-2.20
-4.61
-6.50
-7.28
-7.03
-6.35
-6.33
-8.65
-14.42
-25.56
-43.31
-66.08
-88.67
-103.99
-106.02
-92.50
-65.89
-32.20
1.43
29.60
49.88
62.39
68.45
69.44
66.43
60.32
52.26
43.58
35.74
29.89
26.44
24.99
24.55
23.86
21.67
17.37
11.18
4.26
-1.72
-5.40
-6.45
-5.68
-4.12
-2.53
-0.89
1.27
4.31
7.90
10.88
11.60
8.77
2.23
-6.67
-15.39
-21.18
-22.07
-17.62
-9.08
1.02
9.89
15.48
16.81
14.77
11.49
9.15
8.92
10.52
12.69
14.09
14.01
12.41
9.72
6.35
2.59
-1.17
-4.37
-6.20
-5.68
-1.78
5.90
16.58
28.14
37.50
41.33
35.85
18.87
-8.80
-42.45
-74.50
-96.80
-103.27
-91.92
-65.46
-30.48
4.40
31.40
45.87
46.46
34.18
11.74
-16.72
-44.69
-61.99
-62.05
-47.28
-26.03
-6.22
7.91
16.29
21.24
25.13
28.61
30.21
28.31
22.79
15.62
9.44
6.65
8.16
12.89
18.24
21.03
19.33
13.58
6.27
0.34
-1.52
1.66
8.37
15.29
18.70
16.32
8.14
-4.01
-17.98
-31.24
-41.64
-47.69
-47.91
-41.06
-27.20
-8.81
10.09
20.63
17.70
5.73
-5.40
-7.95
-0.83
11.00
20.42
22.52
16.95
7.95
1.15
-1.67
-1.78
-1.86
-3.93
-8.21
-13.13
-16.46
-16.06
-11.28
-3.75
3.87
9.12
10.75
9.11
5.78
2.64
1.37
2.58
5.38
8.17
9.55
8.92
6.68
3.83
1.46
0.38
0.72
1.88
2.92
3.13
2.26
0.62
-1.19
-2.61
-3.26
-3.13
-2.52
-1.81
-1.25
-0.89
-0.62
-0.30
0.10
0.44
0.56
0.32
-0.30
-1.16
-2.09
-2.89
-3.44
-3.75
-3.89
-3.94
-3.98
-4.04
-4.15
-4.31
-4.45
-4.49
-4.35
-3.97
-3.38
-2.65
-1.93
-1.36
-1.00
-0.68
-0.25
0.36
1.08
1.81
2.45
2.96
3.38
3.90
4.96
6.89
9.74
13.35
17.50
21.93
26.27
30.05
32.73
34.25
34.61
33.89
32.47
31.07
30.54
31.37
33.51
36.48
40.11
44.07
47.84
50.85
52.65
52.93
51.41
47.82
39.10
24.45
5.53
-15.15
-35.77
-54.85
-70.57
-81.25
-86.28
-86.48
-83.39
-79.01
-75.05
-72.45
-71.41
-71.68
-72.73
-73.44
-71.94
-66.04
-54.92
-40.12
-25.04
-13.18
-6.44
-4.47
-5.38
-6.88
-7.23
-5.74
-2.45
2.49
8.88
16.34
24.21
31.56
37.97
44.09
51.24
60.31
70.61
79.01
82.46
78.34
66.16
48.02
27.69
9.01
-5.41
-14.75
-19.79
-21.96
-22.71
-22.95
-22.52
-21.10
-18.83
-16.26
-14.19
-13.15
-12.83
-12.32
-10.49
-6.60
-0.87
5.42
10.56
13.00
12.09
8.23
2.52
-3.76
-9.64
-14.62
-18.58
-21.48
-23.13
-23.24
-21.54
-18.12
-13.45
-8.23
-3.16
1.14
4.23
5.83
5.86
4.52
2.24
-0.27
-2.80
-4.82
-6.05
-6.43
-6.04
-4.96
-3.12
-0.49
2.84
6.55
10.19
13.29
15.46
16.54
16.53
15.44
13.33
10.33
6.76
3.14
0.07
-2.05
-3.09
-3.27
-3.04
-2.89
-3.16
-3.87
-4.81
-5.62
-5.97
-5.69
-4.79
-3.46
-2.05
-0.94
-0.49
-0.87
-2.03
-3.69
-5.39
-6.65
-7.17
-6.84
-5.81
-4.39
-2.95
-1.82
-1.26
-1.34
-1.91
-2.63
-3.02
-2.67
-1.35
0.82
3.46
6.04
8.13
9.55
10.35
10.74
10.92
10.98
10.93
10.72
10.34
9.84
9.31
8.79
8.32
7.86
7.35
6.73
5.99
5.17
4.35
3.62
3.08
2.77
2.68
2.71
2.70
2.45
1.79
0.61
-1.14
-3.45
-6.30
-9.57
-12.94
-15.83
-17.42
-16.98
-14.19
-9.47
-3.97
0.88
3.91
4.74
3.82
2.13
0.64
-0.10
-0.05
0.58
1.65
3.27
5.66
8.92
12.78
16.62
19.69
21.44
21.67
20.61
18.70
16.37
13.92
11.46
8.94
6.32
3.56
0.77
-1.88
-4.21
-6.09
-7.50
-8.51
-9.24
-9.79
-10.16
-10.25
-9.95
-9.15
-7.83
-6.11
-4.14
-2.08
-0.09
1.69
3.15
4.18
4.77
5.01
5.03
4.97
4.87
4.68
4.28
3.54
2.42
0.98
-0.64
-2.27
-3.75
-4.94
-5.75
-6.16
-6.18
-5.85
-5.28
-4.55
-3.76
-2.94
-2.13
-1.30
-0.45
0.47
1.46
2.49
3.44
4.14
4.45
4.27
3.67
2.81
1.88
1.05
0.36
-0.26
-0.92
-1.74
-2.71
-3.74
-4.69
-5.46
-6.02
-6.44
-6.80
-7.14
-7.43
-7.55
-7.41
-6.93
-6.17
-5.24
-4.26
-3.32
-2.40
-1.41
-0.27
1.10
2.65
4.30
5.89
7.30
8.40
9.12
9.42
9.33
8.89
8.16
7.16
5.95
4.60
3.23
1.99
1.05
0.46
0.17
0.01
-0.20
-0.60
-1.25
-2.12
-3.16
-4.32
-5.54
-6.77
-7.91
-8.85
-9.52
-9.85
-9.87
-9.59
-9.06
-8.34
-7.49
-6.55
-5.53
-4.40
-3.09
-1.58
0.10
1.79
3.32
4.56
5.50
6.19
6.71
7.09
7.27
7.20
6.86
6.31
5.71
5.19
4.80
4.49
4.16
3.71
3.12
2.40
1.61
0.79
-0.04
-0.84
-1.56
-2.07
-2.28
-2.18
-1.86
-1.49
-1.26
-1.26
-1.43
-1.63
-1.71
-1.62
-1.45
-1.37
-1.53
-1.97
-2.57
-3.13
-3.44
-3.40
-3.02
-2.41
-1.68
-0.95
-0.25
0.41
1.05
1.67
2.23
2.68
2.94
2.98
2.87
2.69
2.55
2.51
2.54
2.53
2.42
2.20
1.89
1.55
1.20
0.78
0.25
-0.37
-1.03
-1.62
-2.03
-2.24
-2.30
-2.30
-2.30
-2.35
-2.39
-2.37
-2.20
-1.84
-1.30
-0.63
0.07
0.72
1.23
1.55
1.65
1.52
1.16
0.63
0.03
-0.52
-0.87
-0.96
-0.82
-0.53
-0.20
0.05
0.18
0.18
0.03
-0.29
-0.77
-1.35
-1.86
-2.12
-1.98
-1.43
-0.57
0.41
1.31
2.03
2.54
2.92
3.24
3.54
3.84
4.14
4.41
4.64
4.79
4.81
4.70
4.43
4.02
3.47
2.78
1.95
1.00
-0.02
-1.02
-1.86
-2.47
-2.79
-2.88
-2.85
-2.90
-3.14
-3.62
-4.19
-4.67
-4.85
-4.63
-4.08
-3.38
-2.71
-2.18
-1.80
-1.49
-1.15
-0.70
-0.15
0.47
1.11
1.67
2.12
2.43
2.59
2.65
2.67
2.74
2.90
3.16
3.46
3.75
3.95
4.00
3.88
3.59
3.17
2.66
2.13
1.62
1.17
0.82
0.58
0.44
0.38
0.36
0.34
0.29
0.14
-0.11
-0.48
-0.93
-1.39
-1.80
-2.11
-2.36
-2.59
-2.92
-3.38
-3.94
-4.53
-5.04
-5.39
-5.55
-5.55
-5.43
-5.23
-4.98
-4.67
-4.29
-3.83
-3.28
-2.65
-1.97
-1.25
-0.56
0.04
0.51
0.83
1.00
1.04
0.97
0.83
0.65
0.47
0.33
0.21
0.09
-0.08
-0.40
-0.88
-1.47
-1.99
-2.20
-1.90
-0.97
0.51
2.28
4.01
5.35
6.11
6.29
6.01
5.46
4.75
3.87
2.77
1.43
-0.07
-1.53
-2.76
-3.67
-4.31
-4.85
-5.45
-6.15
-6.83
-7.28
-7.32
-6.88
-6.03
-4.90
-3.66
-2.41
-1.22
-0.13
0.84
1.71
2.49
3.21
3.85
4.35
4.63
4.67
4.49
4.24
4.05
4.03
4.17
4.37
4.44
4.25
3.78
3.13
2.49
2.00
1.74
1.63
1.58
1.48
1.27
0.99
0.67
0.37
0.06
-0.27
-0.67
-1.13
-1.62
-2.13
-2.66
-3.24
-3.86
-4.51
-5.10
-5.55
-5.81
-5.90
-5.85
-5.73
-5.54
-5.24
-4.76
-4.05
-3.15
-2.13
-1.14
-0.27
0.43
0.99
1.48
1.94
2.33
2.56
2.55
2.25
1.74
1.15
0.62
0.30
0.24
0.43
0.82
1.34
1.92
2.48
2.94
3.27
3.52
3.73
3.99
4.34
4.71
5.01
5.12
4.97
4.53
3.85
3.00
2.08
1.18
0.39
-0.27
-0.84
-1.41
-2.09
-2.96
-4.04
-5.22
-6.33
-7.15
-7.52
-7.38
-6.77
-5.80
-4.59
-3.28
-1.94
-0.63
0.61
1.74
2.68
3.37
3.73
3.73
3.41
2.84
2.16
1.48
0.92
0.57
0.49
0.71
1.22
1.97
2.82
3.57
4.02
4.03
3.60
2.85
2.00
1.27
0.84
0.75
0.99
1.52
2.29
3.24
4.23
5.09
5.57
5.48
4.74
3.45
1.87
0.31
-1.01
-2.05
-2.89
-3.69
-4.52
-5.32
-5.98
-6.37
-6.48
-6.37
-6.15
-5.87
-5.51
-4.99
-4.24
-3.26
-2.09
-0.81
0.51
1.77
2.86
3.66
4.08
4.15
3.95
3.67
3.47
3.43
3.48
3.47
3.22
2.66
1.84
0.88
-0.01
-0.70
-1.11
-1.28
-1.29
-1.26
-1.22
-1.16
-0.98
-0.57
0.11
1.00
1.91
2.61
2.89
2.67
2.01
1.03
-0.15
-1.49
-2.97
-4.54
-6.09
-7.45
-8.44
-8.98
-9.09
-8.90
-8.54
-8.10
-7.59
-6.95
-6.12
-5.09
-3.90
-2.65
-1.43
-0.34
0.59
1.41
2.16
2.91
3.68
4.44
5.17
5.84
6.45
7.00
7.48
7.84
7.95
7.72
7.08
6.05
4.77
3.40
2.12
1.05
0.22
-0.39
-0.86
-1.22
-1.51
-1.77
-2.03
-2.32
-2.65
-2.98
-3.21
-3.28
-3.15
-2.90
-2.64
-2.48
-2.46
-2.55
-2.65
-2.67
-2.56
-2.32
-2.01
-1.68
-1.38
-1.08
-0.74
-0.30
0.33
1.16
2.18
3.24
4.20
4.85
5.10
4.93
4.48
3.91
3.41
3.06
2.84
2.68
2.53
2.34
2.13
1.90
1.62
1.21
0.64
-0.12
-0.99
-1.87
-2.67
-3.40
-4.12
-4.90
-5.73
-6.51
-7.08
-7.30
-7.12
-6.60
-5.92
-5.23
-4.65
-4.21
-3.87
-3.57
-3.22
-2.75
-2.11
-1.29
-0.33
0.72
1.75
2.67
3.41
3.94
4.26
4.40
4.43
4.44
4.50
4.67
4.97
5.35
5.72
5.98
6.01
5.75
5.18
4.36
3.43
2.54
1.82
1.36
1.15
1.10
1.08
0.97
0.71
0.32
-0.09
-0.44
-0.69
-0.84
-0.96
-1.11
-1.29
-1.50
-1.67
-1.75
-1.71
-1.59
-1.45
-1.36
-1.40
-1.62
-2.00
-2.45
-2.78
-2.79
-2.31
-1.29
0.12
1.67
3.06
4.09
4.71
5.00
5.11
5.19
5.35
5.61
5.99
6.40
6.71
6.73
6.24
5.16
3.56
1.74
0.11
-0.98
-1.35
-1.10
-0.48
0.20
0.71
0.97
1.06
1.07
1.08
1.13
1.19
1.19
1.09
0.83
0.40
-0.21
-0.98
-1.89
-2.88
-3.87
-4.76
-5.47
-5.97
-6.27
-6.44
-6.55
-6.60
-6.54
-6.28
-5.72
-4.82
-3.66
-2.37
-1.12
-0.03
0.81
1.42
1.82
2.09
2.34
2.65
3.09
3.69
4.40
5.13
5.74
6.13
6.25
6.14
5.90
5.60
5.31
4.97
4.53
3.94
3.21
2.44
1.76
1.27
1.02
0.96
1.02
1.08
1.05
0.84
0.35
-0.49
-1.71
-3.26
-4.98
-6.65
-8.04
-9.01
-9.52
-9.65
-9.55
-9.36
-9.15
-8.89
-8.51
-7.93
-7.14
-6.16
-5.08
-4.00
-3.00
-2.12
-1.37
-0.72
-0.16
0.34
0.78
1.20
1.62
2.08
2.60
3.10
3.49
3.63
3.47
3.04
2.43
1.77
1.10
0.38
-0.51
-1.62
-2.89
-4.10
-4.95
-5.19
-4.67
-3.47
-1.79
0.05
1.78
3.25
4.37
5.12
5.49
5.44
4.92
3.90
2.46
0.74
-1.06
-2.75
-4.21
-5.34
-6.08
-6.38
-6.20
-5.53
-4.44
-3.06
-1.51
0.08
1.65
3.17
4.57
5.79
6.68
7.12
7.01
6.39
5.42
4.38
3.54
3.13
3.22
3.72
4.43
5.15
5.70
5.99
5.97
5.63
4.95
3.97
2.80
1.61
0.61
-0.04
-0.30
-0.29
-0.13
0.03
0.14
0.19
0.17
0.03
-0.32
-0.91
-1.71
-2.64
-3.57
-4.44
-5.26
-6.06
-6.79
-7.35
-7.54
-7.18
-6.20
-4.71
-2.95
-1.24
0.21
1.32
2.17
2.86
3.51
4.13
4.69
5.13
5.46
5.70
5.88
5.95
5.81
5.34
4.49
3.39
2.26
1.33
0.74
0.43
0.22
-0.11
-0.66
-1.39
-2.17
-2.83
-3.29
-3.54
-3.61
-3.51
-3.26
-2.89
-2.49
-2.21
-2.20
-2.54
-3.16
-3.94
-4.65
-5.11
-5.23
-5.06
-4.73
-4.40
-4.21
-4.21
-4.36
-4.53
-4.64
-4.57
-4.31
-3.82
-3.09
-2.12
-0.90
0.48
1.88
3.11
3.99
4.43
4.44
4.16
3.78
3.49
3.41
3.59
3.96
4.45
4.93
5.33
5.62
5.82
5.95
6.05
6.12
6.12
5.98
5.63
5.10
4.48
3.93
3.57
3.44
3.44
3.38
3.07
2.39
1.36
0.05
-1.48
-3.15
-4.95
-6.79
-8.52
-9.93
-10.82
-11.11
-10.85
-10.18
-9.30
-8.35
-7.45
-6.64
-5.97
-5.46
-5.09
-4.83
-4.65
-4.50
-4.41
-4.41
-4.53
-4.74
-4.94
-5.02
-4.89
-4.57
-4.17
-3.87
-3.82
-4.11
-4.67
-5.39
-6.16
-7.01
-8.00
-9.14
-10.27
-11.16
-11.75
-12.39
-13.68
-16.19
-19.96
-24.37
-28.44
-31.42
-33.32
-34.88
-37.11
-40.52
-44.68
-48.34
-49.96
-48.39
-43.11
-34.13
-21.84
-6.95
9.60
26.57
42.53
56.16
66.69
74.09
79.02
82.36
84.71
86.14
86.38
85.15
82.57
79.18
75.90
73.92
73.83
75.26
77.13
77.90
76.10
70.74
61.17
47.82
32.77
18.65
7.83
2.07
1.83
6.08
12.56
17.73
18.86
15.97
10.34
3.32
-3.85
-10.93
-18.53
-27.29
-38.13
-50.03
-58.47
-59.07
-50.25
-33.57
-13.83
3.01
12.25
10.56
-1.72
-19.64
-38.04
-54.38
-68.23
-80.95
-94.40
-99.77
-93.01
-93.33
-108.32
-130.79
-153.45
-168.31
-169.23
-153.72
-123.86
-87.28
-43.75
-1.48
29.83
47.91
58.23
65.76
70.87
71.02
63.20
48.10
30.70
17.70
13.17
17.45
26.92
36.06
40.55
36.75
23.63
3.16
-20.27
-42.13
-58.47
-67.09
-68.13
-63.67
-57.25
-52.08
-49.65
-47.18
-42.86
-37.23
-30.82
-25.40
-23.47
-26.32
-32.66
-39.09
-41.43
-37.06
-25.45
-7.75
14.14
38.91
65.96
94.39
121.85
144.67
158.66
161.17
152.35
134.92
113.25
91.70
73.39
59.72
50.70
45.52
43.26
43.04
43.69
43.85
42.24
38.08
31.36
22.82
13.68
5.25
-1.47
-6.25
-9.48
-11.90
-14.15
-16.53
-18.93
-21.02
-22.45
-23.07
-22.94
-22.32
-21.48
-20.64
-19.92
-19.41
-19.09
-18.89
-18.67
-18.22
-17.37
-16.05
-14.35
-12.44
-10.56
-8.88
-7.46
-6.28
-5.27
-4.39
-3.62
-2.97
-2.45
-2.05
-1.70
-1.32
-0.87
-0.36
0.13
0.51
0.71
0.74
0.67
0.58
0.53
0.50
0.43
0.27
0.03
-0.24
-0.45
-0.57
-0.63
-0.72
-0.94
-1.32
-1.80
-2.27
-2.63
-2.88
-3.08
-3.37
-3.86
-4.55
-5.35
-6.05
-6.46
-6.49
-6.22
-5.80
-5.42
-5.18
-5.04
-4.88
-4.53
-3.92
-3.11
-2.24
-1.48
-0.93
-0.60
-0.43
-0.29
-0.11
0.18
0.57
0.99
1.37
1.67
1.88
2.01
2.13
2.25
2.36
2.38
2.21
1.82
1.25
0.61
0.06
-0.30
-0.43
-0.42
-0.39
-0.48
-0.75
-1.19
-1.72
-2.30
-2.92
-3.63
-4.45
-5.30
-6.06
-6.57
-6.72
-6.55
-6.21
-5.87
-5.62
-5.41
-5.09
-4.51
-3.63
-2.55
-1.42
-0.39
0.45
1.14
1.73
2.24
2.66
2.95
3.09
3.11
3.12
3.23
3.51
3.92
4.38
4.77
5.01
5.08
5.00
4.81
4.54
4.23
3.91
3.57
3.23
2.85
2.47
2.07
1.71
1.42
1.21
1.06
0.95
0.86
0.79
0.75
0.70
0.58
0.31
-0.13
-0.71
-1.36
-1.99
-2.56
-3.10
-3.62
-4.11
-4.48
-4.60
-4.36
-3.77
-2.94
-2.03
-1.20
-0.51
0.06
0.60
1.18
1.82
2.45
2.97
3.32
3.50
3.58
3.65
3.81
4.08
4.42
4.76
5.03
5.18
5.21
5.13
4.95
4.67
4.26
3.73
3.06
2.31
1.53
0.77
0.03
-0.70
-1.46
-2.23
-2.93
-3.46
-3.77
-3.93
-4.08
-4.36
-4.81
-5.31
-5.65
-5.70
-5.43
-4.96
-4.41
-3.84
-3.22
-2.43
-1.43
-0.25
0.95
2.00
2.78
3.24
3.41
3.37
3.18
2.94
2.72
2.57
2.53
2.56
2.60
2.54
2.28
1.80
1.10
0.28
-0.56
-1.31
-1.87
-2.26
-2.55
-2.86
-3.33
-4.00
-4.81
-5.58
-6.13
-6.27
-5.99
-5.39
-4.71
-4.22
-4.14
-4.52
-5.30
-6.27
-7.18
-7.86
-8.20
-8.17
-7.83
-7.20
-6.28
-5.03
-3.46
-1.61
0.35
2.20
3.74
4.80
5.37
5.56
5.58
5.64
5.90
6.36
6.90
7.36
7.61
7.63
7.52
7.40
7.32
7.21
6.93
6.34
5.42
4.27
3.13
2.20
1.59
1.24
1.02
0.77
0.42
-0.01
-0.43
-0.76
-0.98
-1.16
-1.41
-1.81
-2.39
-3.06
-3.70
-4.20
-4.50
-4.58
-4.45
-4.12
-3.59
-2.86
-1.98
-1.00
0.00
0.99
1.94
2.84
3.71
4.51
5.19
5.69
5.99
6.09
6.00
5.73
5.25
4.57
3.73
2.83
2.02
1.38
0.92
0.55
0.09
-0.56
-1.40
-2.32
-3.14
-3.71
-3.99
-4.01
-3.86
-3.60
-3.25
-2.83
-2.36
-1.96
-1.76
-1.85
-2.22
-2.80
-3.41
-3.93
-4.27
-4.47
-4.57
-4.62
-4.61
-4.47
-4.10
-3.46
-2.57
-1.55
-0.56
0.27
0.88
1.29
1.61
1.90
2.25
2.64
3.06
3.47
3.84
4.13
4.29
4.30
4.17
3.98
3.80
3.68
3.65
3.65
3.65
3.63
3.60
3.54
3.40
3.11
2.63
1.99
1.29
0.63
0.09
-0.33
-0.68
-1.00
-1.31
-1.59
-1.89
-2.27
-2.85
-3.67
-4.70
-5.80
-6.78
-7.46
-7.75
-7.64
-7.19
-6.50
-5.67
-4.76
-3.80
-2.79
-1.70
-0.55
0.61
1.71
2.69
3.54
4.32
5.03
5.65
6.11
6.31
6.23
5.95
5.62
5.38
5.25
5.18
5.03
4.73
4.27
3.74
3.23
2.79
2.39
2.01
1.59
1.14
0.70
0.29
-0.03
-0.24
-0.35
-0.39
-0.42
-0.53
-0.80
-1.28
-1.98
-2.85
-3.86
-4.99
-6.21
-7.46
-8.60
-9.44
-9.76
-9.48
-8.62
-7.32
-5.79
-4.15
-2.47
-0.73
1.12
3.08
5.06
6.93
8.50
9.65
10.29
10.36
9.88
8.92
7.66
6.29
5.01
3.95
3.13
2.53
2.07
1.71
1.48
1.37
1.37
1.39
1.33
1.09
0.70
0.21
-0.25
-0.63
-0.93
-1.23
-1.59
-2.03
-2.54
-3.01
-3.40
-3.65
-3.77
-3.82
-3.86
-3.97
-4.20
-4.58
-5.07
-5.62
-6.08
-6.34
-6.27
-5.81
-4.95
-3.78
-2.42
-1.08
0.05
0.86
1.36
1.63
1.86
2.17
2.61
3.18
3.75
4.21
4.51
4.60
4.53
4.36
4.18
4.05
4.02
4.10
4.24
4.40
4.50
4.51
4.41
4.19
3.85
3.40
2.89
2.38
1.94
1.60
1.34
1.07
0.63
-0.07
-1.02
-2.08
-3.03
-3.70
-4.03
-4.16
-4.31
-4.70
-5.39
-6.21
-6.89
-7.15
-6.90
-6.22
-5.36
-4.60
-4.05
-3.71
-3.44
-3.14
-2.83
-2.65
-2.77
-3.26
-4.06
-4.94
-5.69
-6.17
-6.42
-6.57
-6.78
-7.16
-7.68
-8.26
-8.85
-9.45
-10.10
-10.83
-11.60
-12.22
-12.46
-12.09
-11.02
-9.33
-7.30
-5.24
-3.46
-2.10
-1.14
-0.43
0.25
1.07
2.14
3.44
4.90
6.39
7.73
8.77
9.45
9.81
10.01
10.22
10.54
10.89
11.16
11.17
10.93
10.56
10.27
10.22
10.46
10.96
11.61
12.41
13.36
14.40
15.34
15.82
15.49
14.13
11.78
8.73
5.34
1.96
-1.18
-3.98
-6.42
-8.50
-10.23
-11.71
-13.07
-14.50
-16.18
-18.20
-20.49
-22.82
-24.74
-25.71
-25.17
-22.76
-18.45
-12.59
-5.78
1.25
7.80
13.32
17.38
19.66
20.03
18.59
15.79
12.33
9.01
6.50
5.15
4.96
5.71
7.15
9.11
11.45
14.04
16.61
18.78
20.20
20.63
20.06
18.66
16.63
14.11
11.13
7.70
3.88
-0.06
-3.63
-6.24
-7.29
-6.44
-3.64
0.76
6.10
11.58
16.33
19.62
20.91
19.94
16.76
11.76
5.58
-0.95
-6.99
-11.85
-15.07
-16.54
-16.45
-15.16
-13.15
-10.89
-8.76
-7.05
-5.89
-5.29
-5.19
-5.46
-6.00
-6.72
-7.54
-8.36
-9.09
-9.60
-9.78
-9.58
-9.04
-8.25
-7.38
-6.61
-6.05
-5.75
-5.66
-5.67
-5.64
-5.50
-5.21
-4.81
-4.39
-4.03
-3.84
-3.90
-4.25
-4.87
-5.61
-6.22
-6.46
-6.09
-5.04
-3.40
-1.40
0.63
2.40
3.73
4.54
4.88
4.82
4.46
3.85
3.02
2.00
0.89
-0.18
-1.10
-1.81
-2.36
-2.90
-3.53
-4.29
-5.04
-5.64
-5.93
-5.92
-5.73
-5.53
-5.43
-5.40
-5.30
-4.94
-4.21
-3.09
-1.66
-0.07
1.50
2.88
3.91
4.51
4.71
4.65
4.55
4.61
4.92
5.39
5.85
6.08
5.96
5.51
4.89
4.27
3.79
3.45
3.22
2.99
2.75
2.50
2.32
2.24
2.26
2.31
2.32
2.24
2.04
1.77
1.48
1.28
1.25
1.44
1.80
2.21
2.45
2.33
1.74
0.70
-0.57
-1.84
-2.85
-3.44
-3.60
-3.47
-3.21
-3.05
-3.09
-3.40
-3.92
-4.56
-5.19
-5.75
-6.23
-6.67
-7.13
-7.60
-7.98
-8.13
-7.93
-7.31
-6.34
-5.13
-3.76
-2.30
-0.73
0.94
2.66
4.26
5.51
6.25
6.43
6.17
5.64
4.99
4.27
3.43
2.37
1.02
-0.59
-2.37
-4.16
-5.82
-7.25
-8.38
-9.18
-9.66
-9.82
-9.65
-9.14
-8.31
-7.15
-5.70
-4.01
-2.15
-0.21
1.69
3.44
4.90
5.96
6.62
6.93
7.03
7.08
7.18
7.36
7.52
7.60
7.56
7.43
7.32
7.28
7.34
7.42
7.46
7.37
7.12
6.70
6.14
5.45
4.67
3.82
2.99
2.21
1.50
0.82
0.06
-0.84
-1.93
-3.17
-4.44
-5.60
-6.54
-7.19
-7.58
-7.76
-7.81
-7.78
-7.66
-7.43
-7.08
-6.63
-6.11
-5.55
-4.98
-4.36
-3.65
-2.83
-1.91
-0.95
-0.00
0.85
1.57
2.18
2.72
3.26
3.86
4.52
5.20
5.81
6.24
6.42
6.29
5.89
5.29
4.55
3.76
2.99
2.27
1.57
0.87
0.15
-0.54
-1.12
-1.49
-1.59
-1.47
-1.28
-1.20
-1.38
-1.87
-2.62
-3.49
-4.37
-5.12
-5.66
-5.89
-5.76
-5.29
-4.53
-3.61
-2.66
-1.81
-1.11
-0.53
-0.01
0.49
1.01
1.53
2.01
2.42
2.75
3.01
3.23
3.44
3.65
3.81
3.86
3.72
3.37
2.84
2.22
1.62
1.14
0.81
0.62
0.50
0.42
0.35
0.33
0.38
0.54
0.74
0.88
0.85
0.61
0.20
-0.26
-0.62
-0.78
-0.78
-0.73
-0.78
-1.07
-1.62
-2.33
-3.03
-3.58
-3.89
-3.96
-3.83
-3.55
-3.12
-2.50
-1.66
-0.64
0.42
1.35
2.00
2.33
2.44
2.53
2.78
3.24
3.81
4.29
4.52
4.47
4.26
4.09
4.10
4.28
4.50
4.58
4.43
4.13
3.85
3.76
3.89
4.10
4.11
3.73
2.91
1.83
0.78
0.01
-0.40
-0.56
-0.67
-0.96
-1.53
-2.32
-3.18
-3.95
-4.55
-4.98
-5.31
-5.56
-5.75
-5.80
-5.66
-5.26
-4.61
-3.82
-3.00
-2.24
-1.58
-0.96
-0.30
0.48
1.37
2.29
3.10
3.64
3.84
3.73
3.47
3.27
3.29
3.58
4.05
4.50
4.75
4.70
4.38
3.89
3.35
2.82
2.28
1.68
1.02
0.33
-0.27
-0.68
-0.88
-0.92
-0.90
-0.93
-1.06
-1.27
-1.50
-1.73
-1.97
-2.27
-2.66
-3.08
-3.43
-3.60
-3.53
-3.26
-2.89
-2.51
-2.22
-2.01
-1.87
-1.78
-1.69
-1.57
-1.38
-1.11
-0.80
-0.57
-0.52
-0.68
-0.97
-1.19
-1.15
-0.74
-0.01
0.87
1.66
2.23
2.52
2.60
2.58
2.55
2.53
2.50
2.39
2.19
1.89
1.58
1.29
1.06
0.91
0.78
0.66
0.56
0.48
0.43
0.39
0.25
-0.09
-0.70
-1.54
-2.51
-3.46
-4.25
-4.82
-5.13
-5.19
-4.98
-4.53
-3.86
-3.01
-2.09
-1.16
-0.30
0.45
1.09
1.62
2.00
2.21
2.22
2.04
1.78
1.59
1.64
2.07
2.93
4.15
5.56
6.92
7.97
8.56
8.61
8.22
7.62
7.06
6.78
6.80
6.99
7.06
6.73
5.96
5.00
4.35
4.57
5.96
8.40
11.23
13.49
14.21
12.83
9.39
4.52
-0.98
-6.54
-12.15
-18.30
-25.62
-34.40
-44.23
-54.09
-62.63
-68.37
-69.77
-65.06
-52.35
-30.19
1.44
40.20
81.38
118.78
146.59
161.07
161.34
149.17
127.79
100.64
70.66
40.48
12.92
-9.04
-22.97
-28.23
-26.55
-21.56
-17.32
-16.51
-19.31
-23.62
-26.53
-26.19
-23.00
-19.20
-17.52
-19.73
-25.85
-34.21
-42.41
-48.48
-51.63
-52.63
-52.57
-51.97
-50.49
-47.41
-42.22
-35.17
-27.59
-21.48
-19.39
-22.04
-27.51
-32.27
-33.11
-28.55
-19.24
-7.72
2.63
7.64
5.45
-2.62
-13.43
-24.15
-33.15
-39.85
-44.55
-48.02
-52.61
-59.49
-67.83
-75.86
-82.15
-85.21
-82.88
-72.95
-45.89
-3.65
39.35
67.98
77.98
74.89
67.65
63.26
63.99
67.62
68.57
63.61
54.45
45.81
41.50
42.43
46.84
51.56
53.97
52.04
46.65
41.58
40.96
46.19
55.35
64.42
68.75
64.71
50.11
25.73
-4.72
-34.13
-56.57
-69.74
-74.70
-74.40
-71.76
-69.01
-66.86
-65.01
-62.97
-61.02
-59.35
-57.21
-52.99
-45.03
-32.98
-18.13
-2.89
10.39
20.03
25.78
28.68
30.10
30.86
31.06
30.47
29.07
27.21
24.96
22.15
18.54
14.19
9.69
6.09
4.35
4.85
6.97
9.39
10.39
9.15
5.93
1.81
-1.97
-4.60
-5.75
-5.62
-4.75
-3.52
-2.08
-0.48
1.22
2.95
4.56
5.81
6.46
6.30
5.43
4.26
3.35
3.02
3.50
4.89
7.00
9.51
12.02
14.39
16.94
20.39
25.29
31.65
39.23
47.58
56.28
62.46
63.30
57.00
43.32
23.10
-0.78
-24.07
-43.44
-55.95
-60.39
-58.18
-52.70
-44.65
-36.75
-31.16
-28.88
-29.79
-32.97
-34.43
-31.22
-23.07
-11.97
-0.84
8.58
15.04
19.21
21.48
21.73
19.67
15.33
9.70
3.73
-1.41
-4.79
-5.91
-4.89
-2.55
0.08
2.37
4.23
5.45
5.91
5.33
3.44
-0.05
-5.51
-12.67
-20.39
-27.01
-31.35
-32.98
-32.32
-30.53
-26.40
-20.83
-16.00
-13.43
-13.00
-13.92
-15.43
-17.00
-18.22
-18.75
-18.74
-18.22
-17.81
-17.09
-15.93
-14.25
-11.83
-8.51
-4.47
-0.58
2.38
4.27
5.77
8.05
12.06
18.45
26.98
36.21
43.81
47.65
46.61
40.82
31.27
19.53
7.52
-2.84
-9.86
-12.34
-9.65
-1.93
9.74
23.43
36.90
48.39
56.84
61.57
62.12
58.08
49.19
35.56
18.01
-1.58
-19.97
-33.64
-40.29
-39.86
-34.64
-28.45
-25.02
-26.26
-31.31
-36.16
-36.00
-28.10
-13.18
4.93
20.96
30.23
30.16
20.83
5.59
-10.79
-23.97
-30.70
-28.87
-17.77
1.79
26.72
49.35
63.18
67.62
66.62
63.93
60.71
55.93
48.03
37.79
25.41
13.32
3.86
-2.16
-5.69
-8.57
-12.48
-18.36
-25.93
-34.23
-40.77
-43.80
-42.79
-38.44
-32.69
-28.14
-26.46
-29.60
-38.50
-51.40
-66.33
-81.66
-96.15
-108.55
-116.55
-116.63
-105.39
-84.38
-54.12
-19.40
12.72
36.47
49.02
51.35
47.28
41.21
36.13
33.66
32.24
31.35
32.31
36.67
45.36
57.86
71.59
82.23
85.49
78.65
58.29
28.95
0.96
-15.88
-18.28
-9.84
2.40
12.01
14.73
9.18
-2.38
-18.97
-38.79
-57.63
-69.74
-70.30
-57.62
-33.87
-3.16
31.34
66.11
94.24
111.19
118.04
119.41
118.43
114.63
105.74
90.22
67.76
39.90
10.22
-17.33
-39.66
-55.28
-64.80
-69.03
-68.99
-66.81
-65.02
-65.06
-67.09
-69.92
-71.77
-71.05
-67.03
-60.36
-52.94
-46.63
-41.04
-36.35
-33.15
-32.68
-35.82
-41.74
-47.68
-49.99
-46.12
-36.36
-24.35
-15.10
-12.17
-15.44
-21.05
-23.77
-19.99
-9.51
4.86
19.05
30.20
37.64
42.51
46.37
49.99
52.96
54.31
53.31
49.93
45.11
40.07
35.80
32.41
29.28
25.48
20.40
14.27
8.09
3.27
0.87
1.06
3.04
5.42
6.86
6.60
4.78
2.19
-0.15
-1.55
-1.93
-1.86
-2.10
-3.23
-5.20
-7.33
-8.61
-8.11
-5.55
-1.52
2.50
4.53
2.60
-4.58
-17.02
-33.11
-49.70
-62.78
-68.55
-64.81
-51.88
-32.68
-11.79
6.20
18.21
23.47
23.25
19.67
14.57
8.79
2.32
-5.04
-13.00
-20.50
-26.03
-28.31
-26.83
-22.02
-15.03
-7.26
0.14
6.54
11.88
16.34
20.14
23.25
25.44
26.41
25.97
24.13
21.07
17.00
12.09
6.56
0.77
-4.71
-9.23
-12.25
-13.58
-13.40
-12.19
-10.40
-8.32
-6.06
-3.60
-0.89
2.21
5.96
10.67
16.49
23.11
29.68
35.06
38.40
39.62
39.58
39.72
41.33
44.88
49.71
54.30
56.85
56.02
51.41
43.63
34.00
24.11
15.28
8.31
3.32
-0.11
-2.62
-4.72
-6.55
-7.75
-7.66
-5.66
-1.56
4.17
10.45
15.80
18.72
18.03
13.11
4.04
-8.37
-22.62
-36.75
-48.69
-56.78
-60.18
-59.05
-54.43
-47.78
-40.55
-33.86
-28.58
-25.33
-24.44
-25.82
-28.65
-31.43
-32.38
-30.15
-24.49
-16.54
-8.45
-2.51
-0.20
-1.55
-5.21
-9.23
-12.04
-13.26
-13.72
-15.02
-18.56
-24.82
-33.03
-41.54
-48.35
-51.84
-51.11
-46.11
-37.50
-26.40
-14.20
-2.33
7.95
15.70
20.47
22.31
21.75
19.72
17.49
16.55
18.26
23.43
31.97
42.84
54.40
65.02
73.74
80.46
85.70
90.09
93.86
96.77
98.23
97.74
95.12
90.50
84.18
76.54
67.93
58.57
48.36
36.85
23.38
7.55
-10.14
-28.05
-43.80
-55.12
-60.98
-62.00
-60.13
-57.61
-55.92
-55.30
-55.01
-54.11
-52.10
-49.08
-45.59
-42.12
-38.99
-36.28
-34.11
-32.62
-32.00
-32.35
-33.45
-34.79
-35.65
-35.30
-33.29
-29.59
-24.66
-19.43
-15.04
-12.52
-12.48
-14.84
-18.78
-22.96
-25.84
-26.13
-23.12
-16.80
-7.80
2.83
13.94
24.58
34.09
42.21
48.87
54.03
57.37
58.37
56.44
51.37
43.71
34.71
25.99
18.86
13.74
10.08
6.74
2.71
-2.27
-7.67
-12.44
-15.68
-16.99
-16.61
-15.02
-12.57
-9.28
-4.90
0.74
7.48
14.64
21.25
26.33
29.33
30.25
29.62
28.20
26.60
25.05
23.38
21.14
18.00
13.96
9.48
5.37
2.50
1.45
2.26
4.43
7.05
9.15
10.01
9.33
7.31
4.49
1.54
-0.95
-2.61
-3.34
-3.26
-2.64
-1.82
-1.09
-0.68
-0.75
-1.35
-2.44
-3.93
-5.64
-7.34
-8.77
-9.72
-10.14
-10.16
-10.02
-10.04
-10.45
-11.43
-12.97
-14.93
-17.06
-19.10
-20.77
-21.80
-21.91
-20.89
-18.67
-15.32
-11.05
-6.24
-1.49
2.57
5.47
7.04
7.43
6.97
6.07
5.36
5.17
5.42
5.72
5.67
5.16
4.34
3.58
3.28
4.36
7.23
11.47
15.89
19.27
20.89
20.68
19.17
17.17
16.46
18.11
22.00
27.01
32.17
37.40
43.34
50.69
59.67
70.85
83.66
96.34
106.65
113.19
115.72
114.34
108.46
89.41
53.20
3.87
-48.11
-92.99
-126.13
-147.64
-159.99
-165.74
-166.04
-159.19
-143.38
-119.11
-90.26
-62.69
-41.68
-29.77
-25.87
-26.17
-25.42
-20.46
-11.63
-1.94
5.45
9.18
9.89
9.26
8.81
9.78
12.29
15.43
17.61
17.64
15.14
10.63
5.43
1.11
-0.78
0.17
2.93
5.59
6.56
5.31
2.55
-0.42
-2.61
-3.65
-3.89
-3.94
-4.19
-4.50
-4.45
-3.68
-2.15
-0.24
1.51
2.61
2.86
2.36
1.54
0.90
0.92
1.82
3.42
5.23
6.52
6.72
5.68
3.75
1.60
-0.13
-1.20
-1.81
-2.37
-3.05
-3.61
-3.44
-2.04
0.56
3.65
6.13
7.06
6.17
3.96
1.35
-0.81
-2.11
-2.68
-2.84
-2.85
-2.73
-2.38
-1.78
-1.13
-0.79
-0.99
-1.63
-2.27
-2.14
-0.92
1.14
3.18
4.08
2.93
-0.47
-5.45
-10.67
-14.64
-16.32
-15.56
-13.08
-10.17
-8.08
-7.54
-8.44
-10.05
-11.34
-11.41
-9.88
-6.91
-3.06
0.92
4.33
6.91
8.49
9.04
8.57
7.10
4.72
1.73
-1.31
-3.57
-4.24
-2.90
0.33
4.70
9.14
12.63
14.57
14.89
13.93
12.19
10.05
7.76
5.48
3.35
1.55
0.28
-0.36
-0.44
-0.20
0.03
-0.06
-0.64
-1.49
-2.43
-3.21
-3.63
-3.70
-3.73
-4.27
-5.95
-9.12
-13.55
-18.44
-22.57
-24.80
-24.54
-21.98
-18.07
-13.99
-10.71
-8.72
-8.04
-8.36
-9.36
-10.82
-12.58
-14.47
-16.16
-17.19
-17.10
-15.75
-13.32
-10.28
-7.18
-4.44
-2.28
-0.54
1.32
3.97
7.75
12.55
17.84
22.84
26.71
28.80
28.77
27.05
24.29
20.88
16.78
11.84
6.05
-0.40
-7.14
-13.76
-19.34
-23.08
-24.73
-24.49
-22.50
-18.62
-12.80
-5.44
2.51
10.77
19.37
28.27
37.35
46.68
56.39
66.21
75.31
77.80
69.90
52.77
31.74
12.07
-3.63
-14.92
-22.35
-26.57
-28.17
-26.63
-21.34
-12.82
-2.90
6.46
13.91
19.00
21.98
22.10
18.46
11.59
3.12
-4.73
-9.82
-11.07
-8.94
-5.27
-2.34
-1.29
-1.91
-3.13
-4.12
-4.13
-2.98
-1.27
-0.13
-0.48
-2.21
-4.23
-5.24
-4.31
-0.46
6.16
13.96
20.56
24.01
23.53
19.53
12.92
4.37
-5.03
-14.02
-21.11
-24.35
-21.69
-12.47
0.78
13.05
14.51
-1.22
-31.16
-65.91
-96.48
-118.60
-133.07
-142.83
-148.99
-148.74
-135.96
-105.95
-60.00
-6.33
43.29
78.65
95.30
95.71
87.11
78.35
75.44
79.46
87.22
93.74
94.74
88.06
74.04
54.54
32.27
9.68
-11.64
-30.07
-43.37
-48.97
-45.37
-33.71
-18.31
-5.13
0.99
-1.06
-8.34
-15.49
-17.84
-14.44
-8.65
-5.95
-10.11
-20.34
-31.47
-36.85
-32.36
-18.74
-1.28
13.25
20.46
20.59
17.44
16.30
20.13
27.55
34.24
35.90
31.11
22.16
13.57
9.53
11.25
17.02
23.40
26.93
25.42
18.44
6.87
-7.43
-22.15
-34.83
-43.33
-46.50
-44.51
-38.89
-31.99
-25.93
-21.87
-19.72
-18.46
-16.78
-13.83
-9.47
-4.29
0.48
3.34
3.13
-0.44
-6.45
-12.98
-17.96
-19.94
-18.30
-13.41
-6.44
1.47
9.73
18.33
27.29
35.91
42.62
45.49
43.16
35.64
24.46
12.00
0.50
-8.69
-15.20
-19.16
-20.70
-19.89
-16.88
-12.28
-7.27
-3.40
-1.95
-3.46
-7.63
-13.64
-20.62
-28.00
-35.49
-42.71
-48.98
-53.25
-54.31
-51.23
-43.72
-32.29
-18.14
-2.92
11.70
24.26
33.79
39.85
42.51
42.19
39.57
35.43
30.61
26.03
22.50
20.62
20.49
21.63
23.08
23.71
22.63
19.57
15.02
10.10
6.15
4.16
4.35
6.08
8.09
9.10
8.36
6.00
2.83
-0.05
-1.86
-2.44
-2.19
-1.77
-1.65
-1.89
-2.22
-2.25
-1.79
-0.92
0.05
0.67
0.58
-0.45
-2.42
-5.08
-7.99
-10.62
-12.53
-13.56
-13.86
-13.74
-13.47
-13.16
-12.75
-12.14
-11.32
-10.38
-9.48
-8.69
-7.99
-7.39
-6.94
-6.74
-6.91
-7.42
-8.05
-8.46
-8.29
-7.23
-5.07
-1.66
2.97
8.54
14.47
19.84
23.67
25.11
23.78
19.83
14.01
7.43
1.30
-3.32
-5.80
-6.02
-4.31
-1.35
2.11
5.42
8.13
9.95
10.73
10.37
8.87
6.39
3.33
0.24
-2.28
-3.77
-4.11
-3.50
-2.33
-0.93
0.57
2.29
4.41
7.07
10.18
13.41
16.27
18.26
19.10
18.74
17.32
15.15
12.61
10.11
8.03
6.56
5.74
5.49
5.61
5.83
5.90
5.72
5.59
5.97
7.34
10.08
14.45
20.46
27.82
35.99
44.40
52.75
60.56
67.07
71.48
73.52
73.59
72.48
70.82
68.54
64.99
58.40
46.72
29.11
7.23
-14.85
-32.14
-40.58
-38.38
-25.89
-6.09
16.39
36.66
50.91
56.65
52.26
36.80
7.37
-33.37
-77.29
-114.89
-140.79
-154.47
-157.98
-153.91
-144.71
-132.72
-119.63
-107.72
-99.26
-96.07
-98.46
-104.61
-110.74
-111.65
-101.98
-77.75
-39.65
6.61
51.60
85.68
102.68
101.89
87.89
68.31
51.95
42.50
40.94
45.67
54.02
63.67
73.17
81.75
87.23
89.09
85.53
74.79
56.58
33.27
9.69
-8.78
-18.74
-20.43
-17.21
-14.06
-14.38
-18.62
-24.35
-28.18
-27.90
-23.47
-16.77
-10.23
-5.90
-4.46
-5.53
-8.15
-11.39
-14.44
-16.76
-18.17
-19.40
-21.98
-27.38
-35.91
-45.79
-53.79
-55.92
-49.94
-36.82
-20.46
-5.28
6.09
14.23
22.24
32.84
45.52
56.01
58.46
49.49
31.13
9.85
-7.68
-18.91
-27.05
-38.03
-55.41
-76.66
-93.64
-96.31
-79.09
-44.17
-0.14
42.70
77.16
101.30
117.62
127.07
130.93
130.34
126.48
120.27
111.17
96.43
71.83
34.61
-13.18
-62.90
-102.75
-123.30
-122.13
-104.25
-78.55
-52.63
-29.46
-7.80
15.40
41.07
66.52
86.46
95.44
89.92
68.90
33.66
-12.37
-62.49
-107.60
-138.92
-151.16
-143.88
-121.39
-90.36
-57.30
-26.90
-0.61
22.00
40.90
54.93
62.18
60.40
47.66
22.96
-12.84
-54.44
-92.59
-117.63
-123.10
-108.11
-77.35
-38.63
4.04
42.90
72.34
92.99
108.10
118.15
120.24
111.25
91.52
65.48
40.16
20.20
7.69
0.96
-4.12
-11.25
-21.58
-31.35
-36.79
-35.86
-28.68
-17.13
-5.13
2.80
3.49
-3.54
-15.91
-29.84
-41.62
-49.05
-51.80
-51.74
-52.00
-55.33
-62.99
-73.97
-86.19
-94.81
-95.36
-84.73
-62.46
-31.43
3.15
35.75
60.49
75.83
84.39
90.50
97.54
105.78
111.77
111.29
99.54
75.60
43.19
9.11
-19.68
-38.58
-46.30
-45.29
-39.70
-33.51
-28.56
-24.30
-19.03
-11.36
-1.07
11.46
24.78
36.39
43.65
45.12
41.53
35.34
30.52
27.58
25.09
19.96
9.12
-8.16
-28.60
-45.68
-52.63
-45.87
-27.01
-1.73
22.72
41.06
51.27
54.70
55.10
56.02
58.98
63.04
66.37
67.69
67.17
66.14
66.14
67.73
69.87
70.14
66.10
56.86
43.55
28.81
15.48
5.42
-1.25
-5.84
-10.15
-15.17
-20.45
-24.41
-25.31
-22.30
-15.59
-6.18
4.67
15.89
26.84
37.24
47.04
56.22
64.39
71.47
77.58
82.35
84.21
80.39
67.77
44.56
11.87
-26.75
-65.60
-99.03
-123.87
-140.45
-151.46
-159.70
-166.69
-173.02
-181.09
-193.76
-212.60
-235.54
-255.97
-264.36
-252.38
-217.60
-165.80
-110.70
-66.29
-40.41
-32.27
-35.29
-42.42
-50.31
-60.40
-65.18
-61.40
-50.03
-34.81
-18.30
-1.09
16.46
33.22
48.05
60.22
67.89
70.10
67.23
60.65
51.60
41.29
31.74
26.30
29.33
43.62
69.69
104.66
141.99
172.96
190.27
191.89
183.24
171.65
163.55
162.01
165.72
169.86
168.69
158.97
142.06
122.68
106.91
97.61
95.01
97.52
102.52
107.02
108.81
107.48
103.28
97.51
88.25
74.63
58.43
42.17
26.74
10.83
-2.05
-11.92
-19.77
-32.21
-53.55
-82.28
-113.89
-144.57
-172.02
-194.72
-212.64
-226.35
-244.00
-271.26
-306.02
-342.31
-375.43
-403.04
-424.19
-439.29
-405.88
-312.78
-188.72
-72.84
15.12
75.06
114.47
141.20
160.63
176.15
182.65
174.37
156.05
134.97
115.90
100.12
87.07
75.38
63.58
54.09
43.51
32.43
23.66
19.06
18.67
21.59
26.75
33.28
37.30
35.54
29.64
23.04
18.18
15.82
15.72
17.23
19.67
20.89
18.74
14.00
8.65
4.30
1.70
0.87
1.31
2.26
2.37
0.25
-3.86
-8.74
-13.04
-15.84
-16.86
-16.59
-16.07
-16.42
-18.71
-22.93
-28.14
-32.98
-36.37
-37.82
-37.78
-37.33
-37.60
-39.56
-43.83
-50.68
-59.85
-69.95
-78.03
-80.02
-72.19
-53.19
-25.28
5.92
33.60
52.54
61.08
61.21
56.89
51.59
46.92
42.66
37.85
32.17
26.35
21.70
19.07
18.24
18.04
17.09
14.36
9.93
4.80
0.42
-1.97
-1.85
0.43
3.86
7.30
9.97
11.62
12.61
13.57
15.02
17.10
19.45
21.49
22.57
22.30
20.72
18.23
15.38
12.70
10.47
8.72
7.26
5.79
4.09
2.07
-0.13
-2.26
-4.06
-5.36
-6.12
-6.43
-6.47
-6.51
-6.81
-7.38
-8.15
-8.92
-9.42
-9.38
-8.70
-7.47
-6.03
-4.81
-3.89
-3.16
-2.37
-1.14
0.71
3.01
5.12
6.15
5.17
2.22
-2.15
-6.86
-10.63
-12.46
-12.09
-10.07
-7.51
-5.62
-4.45
-3.54
-1.77
2.14
9.47
21.30
38.64
62.68
89.96
117.92
142.94
160.71
167.33
160.71
141.57
113.03
79.08
42.28
3.06
-40.53
-90.39
-145.31
-199.66
-244.66
-271.78
-276.39
-259.46
-225.76
-181.65
-132.58
-82.63
-35.92
2.04
24.85
27.82
11.13
-18.32
-49.25
-70.59
-75.84
-65.15
-43.99
-19.79
1.36
16.07
23.53
24.39
20.09
12.95
6.08
2.63
4.61
11.82
21.96
31.85
38.90
42.31
43.21
43.67
45.35
48.76
53.18
57.10
58.95
57.58
52.68
44.97
36.25
28.89
25.12
26.13
31.71
40.61
51.19
62.37
73.99
86.54
100.36
115.04
129.45
142.11
151.81
157.81
159.79
157.48
150.90
140.20
126.38
111.75
99.63
93.45
95.01
103.69
116.92
131.73
145.48
156.84
165.85
172.63
176.73
176.32
169.08
153.86
132.43
107.93
83.66
61.77
42.07
22.79
1.37
-24.13
-53.98
-86.07
-118.44
-150.07
-180.69
-210.85
-237.27
-254.95
-261.42
-264.27
-268.92
-279.01
-296.72
-318.15
-338.51
-351.15
-349.09
-327.24
-284.33
-222.69
-148.53
-68.99
10.97
89.21
161.59
220.17
256.48
265.24
246.73
205.73
151.12
94.41
46.22
13.26
-3.41
-7.68
-5.53
-1.62
1.81
5.43
10.28
16.07
20.97
22.74
20.22
14.04
6.40
-0.21
-3.97
-4.49
-2.94
-1.28
-1.14
-3.13
-6.78
-10.75
-13.71
-14.83
-14.16
-12.45
-10.78
-9.97
-10.22
-11.11
-12.02
-12.40
-12.02
-11.08
-9.97
-9.13
-8.79
-8.88
-9.15
-9.33
-9.25
-8.87
-8.31
-7.74
-7.31
-7.12
-7.18
-7.44
-7.83
-8.31
-8.86
-9.41
-9.82
-9.90
-9.52
-8.63
-7.38
-5.99
-4.69
-3.62
-2.81
-2.19
-1.68
-1.19
-0.69
-0.16
0.37
0.88
1.36
1.83
2.28
2.74
3.14
3.39
3.37
2.99
2.33
1.59
1.05
0.91
1.20
1.73
2.26
2.59
2.71
2.74
2.84
3.00
3.08
2.82
2.01
0.67
-0.98
-2.56
-3.76
-4.45
-4.77
-4.97
-5.29
-5.84
-6.57
-7.33
-7.98
-8.47
-8.83
-9.06
-9.12
-8.89
-8.24
-7.11
-5.59
-3.87
-2.21
-0.83
0.21
0.96
1.58
2.21
2.89
3.57
4.09
4.33
4.22
3.89
3.50
3.26
3.26
3.43
3.57
3.48
3.03
2.32
1.55
0.98
0.76
0.89
1.20
1.45
1.47
1.19
0.67
0.03
-0.63
-1.34
-2.18
-3.21
-4.43
-5.67
-6.72
-7.45
-7.85
-8.08
-8.34
-8.69
-9.05
-9.19
-8.89
-8.10
-6.93
-5.63
-4.40
-3.34
-2.39
-1.42
-0.31
0.99
2.41
3.79
4.92
5.60
5.80
5.61
5.31
5.18
5.38
5.88
6.39
6.61
6.36
5.69
4.84
4.07
3.50
3.08
2.62
1.99
1.22
0.48
-0.02
-0.16
-0.03
0.14
0.07
-0.43
-1.39
-2.66
-3.99
-5.15
-5.98
-6.49
-6.84
-7.22
-7.77
-8.47
-9.12
-9.48
-9.33
-8.65
-7.56
-6.31
-5.05
-3.81
-2.51
-1.03
0.64
2.38
3.96
5.13
5.80
6.02
5.97
5.87
5.85
5.92
5.99
5.96
5.83
5.71
5.73
5.98
6.34
6.56
6.37
5.66
4.57
3.47
2.69
2.39
2.34
2.09
1.30
-0.04
-1.59
-2.84
-3.43
-3.32
-2.83
-2.61
-3.27
-5.01
-7.48
-9.85
-11.21
-10.93
-9.01
-6.08
-3.34
-1.96
-2.42
-4.14
-5.70
-5.58
-2.87
2.26
8.52
13.57
15.13
12.40
6.71
0.86
-2.20
-0.69
5.41
14.28
22.01
24.41
19.35
8.33
-4.46
-14.16
-17.10
-11.87
0.47
15.21
26.19
28.89
22.36
8.33
-10.35
-30.15
-46.72
-55.56
-55.81
-51.17
-48.69
-56.21
-80.28
-123.77
-183.28
-248.54
-293.53
-292.83
-239.84
-154.12
-65.44
5.32
52.15
79.84
96.98
110.16
119.60
121.43
112.79
95.76
76.58
61.77
55.32
57.59
65.88
74.39
77.09
71.21
58.80
44.82
33.98
28.86
29.55
34.28
39.48
41.58
38.88
32.46
25.03
19.03
15.73
15.19
16.71
18.83
20.09
19.75
18.13
16.14
14.54
13.72
14.29
16.17
19.13
22.96
27.66
33.51
40.82
49.27
57.58
62.60
62.12
54.73
40.82
22.87
4.64
-10.26
-19.83
-24.16
-24.83
-23.76
-22.29
-20.77
-18.95
-16.65
-14.08
-12.05
-11.25
-11.87
-13.40
-15.07
-16.14
-16.23
-15.50
-14.48
-13.80
-13.84
-14.55
-15.52
-16.23
-16.30
-15.62
-14.43
-13.08
-11.91
-11.07
-10.52
-10.10
-9.68
-9.10
-8.33
-7.38
-6.36
-5.43
-4.77
-4.46
-4.50
-4.72
-4.87
-4.68
-4.01
-2.91
-1.57
-0.29
0.68
1.20
1.31
1.17
0.94
0.75
0.64
0.55
0.44
0.27
0.08
-0.16
-0.40
-0.62
-0.79
-0.91
-0.94
-0.85
-0.58
-0.11
0.49
1.13
1.66
1.98
2.02
1.82
1.48
1.13
0.86
0.64
0.34
-0.25
-1.30
-2.84
-4.69
-6.49
-7.81
-8.29
-7.77
-6.33
-4.25
-1.95
0.21
1.98
3.31
4.25
4.89
5.23
5.18
4.58
3.41
1.80
0.08
-1.41
-2.42
-2.86
-2.86
-2.56
-2.10
-1.50
-0.73
0.20
1.22
2.19
2.99
3.57
3.96
4.24
4.48
4.66
4.70
4.52
4.06
3.36
2.50
1.60
0.77
0.08
-0.41
-0.71
-0.82
-0.81
-0.75
-0.72
-0.73
-0.75
-0.67
-0.43
-0.02
0.51
1.04
1.52
1.95
2.39
2.86
3.36
3.81
4.13
4.26
4.24
4.08
3.80
3.35
2.68
1.78
0.76
-0.22
-1.00
-1.52
-1.79
-1.91
-2.00
-2.15
-2.42
-2.84
-3.37
-3.88
-4.20
-4.16
-3.66
-2.79
-1.77
-0.85
-0.18
0.23
0.52
0.81
1.12
1.32
1.28
0.94
0.41
-0.08
-0.29
-0.11
0.40
1.07
1.76
2.36
2.88
3.30
3.63
3.83
3.86
3.71
3.42
3.07
2.75
2.50
2.33
2.23
2.16
2.10
1.99
1.82
1.61
1.40
1.24
1.20
1.25
1.32
1.31
1.13
0.78
0.33
-0.10
-0.42
-0.62
-0.78
-1.01
-1.39
-1.93
-2.57
-3.16
-3.62
-3.88
-3.97
-3.92
-3.75
-3.48
-3.13
-2.71
-2.27
-1.82
-1.36
-0.90
-0.45
-0.08
0.17
0.32
0.47
0.69
1.06
1.54
2.02
2.38
2.56
2.57
2.46
2.29
2.06
1.76
1.41
1.09
0.90
0.88
1.01
1.13
1.09
0.78
0.17
-0.66
-1.55
-2.31
-2.80
-2.97
-2.87
-2.66
-2.50
-2.54
-2.82
-3.27
-3.79
-4.29
-4.70
-5.04
-5.32
-5.56
-5.71
-5.70
-5.46
-4.99
-4.37
-3.74
-3.23
-2.92
-2.83
-2.89
-2.99
-3.05
-3.04
-2.98
-2.90
-2.80
-2.63
-2.35
-1.93
-1.39
-0.76
-0.11
0.56
1.27
2.01
2.79
3.56
4.27
4.87
5.33
5.67
5.88
5.98
6.01
6.01
6.04
6.11
6.15
6.05
5.67
4.95
3.94
2.80
1.72
0.88
0.33
0.01
-0.19
-0.37
-0.60
-0.85
-1.05
-1.12
-1.04
-0.84
-0.61
-0.46
-0.46
-0.62
-0.90
-1.22
-1.55
-1.86
-2.13
-2.28
-2.17
-1.70
-0.85
0.22
1.26
1.95
2.15
1.86
1.30
0.69
0.25
0.05
0.10
0.33
0.65
0.94
1.10
1.07
0.88
0.63
0.47
0.43
0.43
0.31
-0.12
-0.91
-1.92
-2.90
-3.58
-3.82
-3.66
-3.29
-2.90
-2.70
-2.76
-3.07
-3.53
-4.04
-4.50
-4.82
-4.92
-4.73
-4.24
-3.44
-2.43
-1.34
-0.35
0.37
0.77
0.89
0.84
0.77
0.76
0.81
0.89
0.94
0.95
0.95
1.00
1.15
1.40
1.73
2.12
2.52
2.87
3.08
3.04
2.64
1.89
0.90
-0.11
-0.88
-1.25
-1.15
-0.69
-0.10
0.42
0.69
0.67
0.38
-0.08
-0.64
-1.20
-1.71
-2.08
-2.27
-2.27
-2.11
-1.89
-1.70
-1.62
-1.72
-2.02
-2.48
-3.07
-3.67
-4.16
-4.40
-4.26
-3.66
-2.65
-1.34
0.04
1.25
2.06
2.33
2.08
1.47
0.76
0.19
-0.05
0.12
0.63
1.36
2.17
2.95
3.57
3.92
3.90
3.45
2.61
1.55
0.52
-0.20
-0.43
-0.17
0.43
1.17
1.82
2.25
2.42
2.31
1.91
1.23
0.36
-0.51
-1.14
-1.35
-1.09
-0.55
-0.06
0.08
-0.25
-0.95
-1.75
-2.38
-2.76
-2.96
-3.23
-3.71
-4.42
-5.16
-5.63
-5.62
-5.10
-4.24
-3.29
-2.44
-1.70
-0.95
-0.08
0.95
1.96
2.71
3.00
2.79
2.24
1.65
1.31
1.37
1.83
2.54
3.30
3.91
4.22
4.16
3.72
2.98
2.09
1.21
0.50
0.01
-0.30
-0.52
-0.75
-1.05
-1.40
-1.79
-2.19
-2.58
-2.95
-3.28
-3.49
-3.52
-3.30
-2.80
-2.05
-1.14
-0.19
0.65
1.26
1.58
1.62
1.46
1.19
0.90
0.65
0.45
0.33
0.30
0.35
0.49
0.71
1.00
1.39
1.87
2.38
2.82
3.07
3.04
2.74
2.23
1.64
1.07
0.58
0.19
-0.05
-0.09
0.12
0.56
1.13
1.64
1.94
1.92
1.65
1.26
0.88
0.60
0.39
0.22
0.04
-0.13
-0.26
-0.28
-0.17
0.02
0.25
0.45
0.58
0.61
0.50
0.21
-0.25
-0.83
-1.41
-1.87
-2.10
-2.09
-1.91
-1.65
-1.42
-1.25
-1.10
-0.93
-0.69
-0.38
-0.03
0.34
0.72
1.15
1.63
2.16
2.62
2.89
2.87
2.55
2.05
1.59
1.36
1.46
1.86
2.35
2.74
2.89
2.76
2.49
2.22
2.04
1.94
1.82
1.56
1.14
0.63
0.15
-0.14
-0.16
0.08
0.48
0.95
1.35
1.58
1.59
1.37
0.97
0.54
0.22
0.14
0.28
0.55
0.74
0.73
0.50
0.19
0.07
0.33
1.03
2.05
3.12
3.94
4.27
3.98
3.10
1.86
0.61
-0.19
-0.10
1.19
3.76
7.38
11.63
16.02
20.07
23.31
25.37
26.00
25.23
23.42
21.16
19.15
18.04
18.08
19.03
20.26
21.06
21.02
20.19
18.93
17.69
16.91
16.56
16.25
15.26
13.19
10.29
7.43
5.62
5.60
7.56
11.00
14.99
18.41
20.23
19.42
14.45
3.05
-17.24
-45.65
-77.81
-106.20
-124.08
-129.00
-122.98
-110.26
-95.03
-80.11
-66.61
-54.75
-44.62
-36.73
-31.64
-29.26
-28.77
-28.91
-28.50
-26.71
-23.59
-19.91
-17.07
-16.48
-18.77
-23.33
-28.20
-30.49
-27.36
-17.40
-1.56
16.93
33.68
45.03
49.33
47.22
40.94
33.19
26.01
20.32
16.28
13.68
12.53
13.06
15.35
19.16
23.81
28.44
32.11
34.26
34.67
33.68
31.91
30.01
28.34
27.00
25.83
24.76
24.22
24.69
26.90
31.20
37.06
42.94
46.81
46.93
42.35
34.13
24.06
14.09
5.50
-1.38
-6.79
-11.05
-14.16
-15.74
-15.31
-12.78
-8.56
-3.53
1.12
4.25
4.98
2.94
-1.55
-7.54
-13.83
-19.27
-23.13
-25.17
-25.57
-24.69
-22.89
-20.54
-18.00
-15.79
-14.37
-13.85
-14.00
-14.34
-14.29
-13.45
-11.77
-9.44
-6.87
-4.43
-2.39
-0.94
-0.21
-0.26
-1.07
-2.54
-4.37
-6.15
-7.42
-7.81
-7.15
-5.54
-3.30
-0.90
1.22
2.76
3.65
3.99
3.97
3.77
3.49
3.14
2.73
2.26
1.80
1.41
1.07
0.71
0.22
-0.56
-1.84
-3.69
-6.04
-8.62
-11.06
-13.02
-14.33
-15.00
-15.21
-15.25
-15.27
-15.21
-14.90
-14.16
-12.94
-11.32
-9.29
-6.93
-4.42
-2.04
-0.24
0.64
0.51
-0.23
-1.59
-2.88
-3.42
-2.87
-1.33
0.72
2.78
4.51
5.88
7.05
8.32
9.83
11.58
13.50
15.52
17.61
19.68
21.57
22.96
23.57
23.10
21.40
18.55
14.90
10.98
7.31
4.27
2.00
0.48
-0.49
-1.14
-1.63
-2.07
-2.48
-2.83
-3.17
-3.51
-3.86
-4.19
-4.45
-4.51
-4.27
-3.68
-2.75
-1.58
-0.35
0.78
1.65
2.19
2.46
2.57
2.66
2.79
2.95
3.05
3.01
2.80
2.48
2.18
2.03
2.04
2.15
2.23
2.17
1.90
1.45
0.90
0.30
-0.35
-1.08
-1.93
-2.91
-3.93
-4.87
-5.54
-5.78
-5.50
-4.65
-3.29
-1.54
0.42
2.40
4.25
5.86
7.20
8.31
9.24
10.09
10.91
11.79
12.82
14.07
15.57
17.21
18.74
19.80
20.05
19.28
17.53
15.04
12.19
9.36
6.79
4.57
2.65
0.87
-0.90
-2.71
-4.56
-6.36
-8.02
-9.54
-10.97
-12.39
-13.75
-14.82
-15.11
-14.06
-11.26
-6.67
-0.73
5.69
11.55
15.94
18.35
18.80
17.74
15.91
14.01
12.51
11.42
10.30
8.28
4.32
-2.37
-11.94
-23.47
-34.90
-43.37
-46.11
-41.41
-29.40
-12.16
6.87
23.99
36.44
42.92
43.63
39.78
33.04
25.14
17.74
12.40
10.38
12.33
17.97
25.97
34.28
40.79
43.90
43.06
38.71
31.98
24.09
15.91
7.69
-0.87
-10.24
-20.66
-31.84
-42.90
-52.67
-60.07
-64.62
-66.61
-67.07
-67.40
-68.78
-71.78
-76.23
-81.37
-86.21
-89.94
-92.04
-92.31
-90.72
-87.31
-82.15
-75.44
-67.56
-59.03
-50.46
-42.28
-34.69
-27.59
-20.66
-13.40
-5.26
4.27
15.49
28.37
42.39
56.60
69.90
81.34
90.32
96.58
99.86
99.73
95.48
86.50
72.81
55.51
36.72
19.12
5.11
-3.94
-7.97
-8.05
-5.77
-2.60
0.51
3.27
5.77
8.24
10.81
13.38
15.69
17.47
18.51
18.76
18.25
17.12
15.54
13.77
12.04
10.59
9.60
9.07
8.91
8.85
8.61
7.90
6.49
4.31
1.42
-1.94
-5.42
-8.65
-11.37
-13.51
-15.19
-16.63
-18.03
-19.40
-20.55
-21.21
-21.05
-19.92
-17.88
-15.17
-12.15
-9.13
-6.34
-3.82
-1.54
0.58
2.56
4.33
5.82
6.94
7.68
8.08
8.26
8.32
8.32
8.26
8.09
7.79
7.32
6.70
5.97
5.18
4.39
3.60
2.80
1.94
1.04
0.13
-0.66
-1.21
-1.44
-1.37
-1.15
-1.00
-1.08
-1.47
-2.15
-2.97
-3.78
-4.47
-4.98
-5.30
-5.48
-5.56
-5.57
-5.53
-5.39
-5.14
-4.75
-4.21
-3.56
-2.85
-2.14
-1.44
-0.74
-0.01
0.80
1.71
2.71
3.76
4.76
5.59
6.14
6.34
6.20
5.83
5.38
5.00
4.75
4.63
4.54
4.42
4.20
3.92
3.66
3.51
3.50
3.62
3.77
3.87
3.85
3.66
3.26
2.63
1.75
0.66
-0.58
-1.87
-3.13
-4.28
-5.28
-6.06
-6.50
-6.47
-5.92
-4.90
-3.61
-2.34
-1.27
-0.46
0.19
0.87
1.68
2.59
3.43
4.01
4.23
4.12
3.85
3.61
3.56
3.78
4.23
4.89
5.72
6.65
7.60
8.42
8.95
9.02
8.59
7.74
6.62
5.44
4.37
3.50
2.82
2.32
1.93
1.63
1.40
1.22
1.09
1.01
0.99
1.03
1.10
1.10
0.90
0.39
-0.49
-1.67
-3.00
-4.27
-5.29
-5.98
-6.29
-6.21
-5.75
-4.91
-3.75
-2.34
-0.87
0.51
1.65
2.52
3.14
3.56
3.86
4.08
4.28
4.46
4.63
4.78
4.88
4.88
4.79
4.65
4.55
4.55
4.67
4.87
5.08
5.21
5.22
5.11
4.87
4.47
3.90
3.15
2.30
1.44
0.68
0.10
-0.28
-0.54
-0.77
-1.03
-1.30
-1.53
-1.63
-1.57
-1.41
-1.25
-1.19
-1.28
-1.51
-1.78
-1.99
-2.07
-1.98
-1.76
-1.41
-0.93
-0.28
0.63
1.88
3.52
5.50
7.66
9.74
11.47
12.64
13.19
13.23
12.95
12.50
11.94
11.24
10.31
9.18
7.92
6.70
5.65
4.77
4.01
3.32
2.68
2.17
1.85
1.70
1.63
1.44
0.98
0.14
-1.09
-2.64
-4.42
-6.31
-8.18
-9.91
-11.36
-12.45
-13.15
-13.53
-13.67
-13.70
-13.67
-13.61
-13.45
-13.15
-12.69
-12.10
-11.47
-10.84
-10.20
-9.41
-8.28
-6.65
-4.48
-1.93
0.78
3.42
5.85
8.04
9.94
11.47
12.46
12.73
12.16
10.86
9.15
7.57
6.67
6.82
8.08
10.15
12.45
14.31
15.16
14.70
12.94
10.17
6.84
3.41
0.27
-2.37
-4.38
-5.78
-6.61
-6.95
-6.92
-6.62
-6.20
-5.83
-5.65
-5.71
-5.99
-6.34
-6.62
-6.67
-6.41
-5.87
-5.14
-4.38
-3.72
-3.31
-3.25
-3.65
-4.55
-5.90
-7.55
-9.20
-10.53
-11.25
-11.20
-10.42
-9.11
-7.58
-6.14
-4.99
-4.19
-3.68
-3.35
-3.10
-2.89
-2.69
-2.50
-2.30
-1.99
-1.52
-0.88
-0.15
0.53
0.98
1.12
0.97
0.63
0.27
0.01
-0.09
-0.06
0.01
0.00
-0.18
-0.58
-1.19
-1.96
-2.83
-3.72
-4.59
-5.38
-6.04
-6.53
-6.81
-6.87
-6.79
-6.66
-6.57
-6.53
-6.47
-6.25
-5.78
-5.03
-4.09
-3.14
-2.34
-1.76
-1.40
-1.15
-0.88
-0.51
-0.01
0.60
1.27
1.93
2.53
3.03
3.39
3.56
3.49
3.16
2.60
1.91
1.30
0.94
0.98
1.45
2.26
3.28
4.37
5.42
6.32
6.96
7.23
7.05
6.41
5.42
4.25
3.08
2.05
1.24
0.69
0.43
0.54
1.05
1.95
3.08
4.21
5.06
5.43
5.22
4.50
3.39
2.05
0.62
-0.74
-1.85
-2.48
-2.49
-1.84
-0.72
0.56
1.66
2.32
2.51
2.31
1.90
1.40
0.90
0.42
-0.03
-0.40
-0.63
-0.68
-0.55
-0.28
0.07
0.43
0.75
0.95
0.97
0.78
0.39
-0.14
-0.71
-1.27
-1.79
-2.22
-2.52
-2.62
-2.45
-2.05
-1.54
-1.11
-0.95
-1.17
-1.74
-2.52
-3.34
-4.07
-4.63
-5.01
-5.16
-5.05
-4.68
-4.09
-3.42
-2.83
-2.43
-2.23
-2.13
-1.97
-1.64
-1.15
-0.63
-0.24
-0.09
-0.18
-0.42
-0.66
-0.81
-0.82
-0.70
-0.47
-0.15
0.27
0.79
1.37
1.98
2.56
3.08
3.50
3.77
3.84
3.67
3.23
2.60
1.89
1.24
0.78
0.54
0.43
0.38
0.28
0.13
-0.01
-0.03
0.09
0.32
0.54
0.58
0.35
-0.19
-0.91
-1.68
-2.33
-2.75
-2.91
-2.84
-2.62
-2.28
-1.89
-1.48
-1.11
-0.83
-0.69
-0.69
-0.85
-1.12
-1.50
-1.94
-2.40
-2.75
-2.81
-2.41
-1.48
-0.12
1.40
2.74
3.65
4.02
3.94
3.55
2.99
2.28
1.42
0.37
-0.78
-1.87
-2.67
-3.00
-2.77
-1.98
-0.74
0.83
2.53
4.14
5.40
6.07
6.00
5.21
3.87
2.27
0.74
-0.52
-1.40
-1.92
-2.13
-2.11
-1.92
-1.59
-1.18
-0.77
-0.50
-0.46
-0.73
-1.30
-2.12
-3.06
-3.95
-4.60
-4.87
-4.68
-4.07
-3.16
-2.14
-1.19
-0.42
0.10
0.39
0.51
0.60
0.85
1.48
2.69
4.50
6.75
9.11
11.21
12.78
13.70
14.03
13.93
13.60
13.16
12.72
12.33
11.97
11.60
11.07
10.15
8.62
6.28
3.03
-1.11
-5.95
-11.12
-16.10
-20.30
-23.24
-24.72
-24.90
-24.21
-23.17
-22.17
-21.31
-20.45
-19.40
-18.08
-16.67
-15.48
-14.85
-14.93
-15.64
-16.63
-17.43
-17.49
-16.28
-13.33
-8.31
-1.16
7.83
17.95
28.25
37.71
45.52
51.23
54.81
56.47
56.50
55.06
52.18
47.81
42.01
35.01
27.22
19.11
10.97
2.82
-5.51
-14.06
-22.50
-30.07
-35.80
-38.90
-39.13
-36.95
-33.32
-29.29
-25.61
-22.55
-19.98
-17.66
-15.33
-12.82
-9.99
-6.83
-3.33
0.58
5.12
10.54
16.97
24.39
32.43
40.20
46.34
49.46
48.85
45.04
39.51
34.03
30.20
28.86
29.88
32.35
35.16
37.59
39.47
40.40
39.40
35.21
26.98
14.75
-0.47
-16.95
-32.97
-46.85
-57.02
-63.26
-66.88
-69.16
-70.10
-68.59
-63.46
-55.96
-45.89
-33.74
-20.62
-7.50
5.03
16.71
27.24
35.66
40.73
41.81
38.76
32.34
24.45
17.59
13.98
14.59
18.84
25.07
31.46
36.35
38.81
38.95
37.60
35.82
34.42
33.74
33.73
34.20
34.70
34.61
33.28
30.06
24.43
16.21
5.74
-5.94
-17.27
-26.82
-33.84
-38.61
-42.31
-46.58
-52.69
-60.97
-70.59
-79.90
-87.16
-91.15
-91.54
-88.89
-84.33
-79.20
-74.75
-71.95
-71.40
-73.31
-77.42
-83.12
-89.57
-96.08
-102.23
-107.95
-113.15
-117.41
-119.74
-118.79
-113.27
-102.53
-86.90
-67.66
-46.64
-25.55
-5.52
13.07
30.40
46.79
62.18
75.90
86.90
94.23
97.76
98.36
97.66
97.41
98.81
102.18
106.91
111.80
115.27
115.58
111.15
100.98
85.66
68.07
53.01
45.64
49.32
63.78
84.77
105.35
118.35
119.29
107.97
87.99
64.45
41.53
21.01
2.55
-14.87
-31.72
-46.93
-58.29
-64.11
-64.86
-63.20
-62.66
-65.73
-70.59
-74.26
-74.94
-73.32
-71.46
-70.49
-69.61
-66.44
-58.58
-45.27
-28.20
-10.39
5.62
18.68
29.18
37.60
44.16
48.72
50.72
49.33
44.32
36.69
27.68
18.27
8.76
-1.26
-12.57
-25.71
-41.02
-57.97
-72.22
-79.12
-76.09
-64.31
-47.65
-30.36
-15.36
-3.68
5.45
14.11
23.84
34.35
44.11
51.48
55.42
55.90
53.83
47.85
39.40
30.29
21.63
13.72
6.62
0.63
-3.78
-6.39
-7.52
-7.54
-7.41
-7.97
-9.36
-10.98
-12.05
-12.18
-11.50
-10.53
-9.45
-8.54
-8.10
-8.48
-9.54
-10.99
-12.36
-13.08
-12.71
-10.94
-7.97
-4.36
-0.83
1.97
3.30
2.45
-1.19
-7.72
-16.41
-25.73
-33.79
-39.04
-40.85
-39.70
-36.88
-33.83
-30.90
-28.57
-26.97
-25.91
-24.96
-23.45
-20.58
-15.61
-8.15
1.50
12.26
22.77
31.73
38.23
41.83
42.46
40.34
36.00
30.22
23.92
18.07
13.33
9.79
7.06
4.49
1.60
-1.65
-4.86
-7.52
-9.14
-9.50
-8.69
-7.01
-4.84
-2.59
-0.75
0.17
-0.30
-2.33
-5.65
-9.59
-13.15
-15.46
-15.97
-14.66
-12.00
-8.76
-5.79
-3.81
-3.27
-4.25
-6.33
-8.60
-9.93
-9.25
-6.08
-0.78
5.43
10.84
13.94
14.05
11.60
8.10
5.48
5.43
8.66
14.69
21.99
28.62
32.91
34.06
32.24
28.43
23.92
19.88
17.07
15.78
15.87
16.96
18.39
19.39
19.13
17.05
13.11
7.95
2.83
-0.86
-2.13
-0.96
1.58
3.73
3.76
0.79
-4.82
-11.60
-17.64
-21.46
-22.62
-21.84
-20.49
-20.02
-21.24
-24.15
-27.99
-31.76
-34.63
-36.27
-36.88
-36.93
-36.86
-36.76
-36.39
-35.34
-33.20
-29.76
-24.93
-18.72
-11.25
-2.85
5.71
13.26
18.51
20.59
19.49
16.24
12.57
10.25
10.42
13.18
17.66
22.46
26.21
28.06
27.81
25.86
22.90
19.60
16.41
13.47
10.71
8.06
5.49
3.09
0.98
-0.71
-1.89
-2.49
-2.37
-1.45
0.24
2.40
4.43
5.59
5.31
3.56
1.00
-1.21
-1.85
-0.17
3.78
9.13
14.58
18.91
21.37
21.86
20.69
18.39
15.41
12.04
8.44
4.76
1.19
-2.06
-4.79
-6.91
-8.45
-9.51
-10.20
-10.54
-10.50
-10.08
-9.42
-8.86
-8.88
-9.93
-12.30
-15.95
-20.52
-25.39
-29.81
-33.14
-35.07
-35.74
-35.71
-35.73
-36.35
-37.56
-38.77
-38.88
-36.73
-31.46
-22.75
-10.89
3.36
18.82
34.15
48.06
59.54
68.05
73.54
76.26
76.48
74.37
70.07
63.88
56.47
48.85
42.14
37.16
34.23
33.10
33.12
33.58
33.86
33.67
33.01
32.09
31.24
30.87
31.39
33.15
36.37
40.92
46.25
51.47
55.60
57.91
58.22
56.98
55.01
53.10
51.58
50.15
48.04
44.34
38.49
30.52
21.12
11.31
2.07
-5.99
-12.73
-18.24
-22.61
-25.81
-27.68
-28.17
-27.45
-26.03
-24.51
-23.36
-22.63
-22.12
-21.55
-20.86
-20.16
-19.57
-19.17
-18.97
-18.96
-19.07
-19.22
-19.34
-19.33
-19.09
-18.71
-18.75
-20.39
-25.52
-35.47
-49.99
-67.11
-83.92
-97.81
-107.36
-112.41
-113.82
-112.82
-110.26
-106.13
-99.91
-90.81
-78.45
-63.27
-46.58
-30.16
-15.69
-4.13
4.55
10.65
14.74
17.41
19.16
20.49
22.07
24.80
29.74
38.15
49.77
63.23
76.09
85.46
89.04
85.97
77.16
63.76
49.45
36.42
25.28
15.39
5.87
-3.57
-12.34
-19.40
-23.94
-25.73
-25.65
-24.91
-24.46
-24.71
-25.59
-26.42
-26.60
-25.83
-24.03
-21.71
-19.43
-17.62
-16.47
-15.89
-15.65
-15.46
-15.08
-14.14
-12.43
-9.79
-6.10
-1.47
3.67
8.56
12.27
14.05
13.58
10.99
6.87
1.99
-2.98
-7.63
-11.96
-16.09
-20.13
-24.01
-27.60
-30.67
-33.06
-34.67
-35.02
-33.88
-31.10
-26.80
-21.37
-15.58
-10.39
-6.65
-4.81
-4.72
-5.81
-7.36
-8.76
-9.77
-10.48
-11.10
-11.74
-12.29
-12.41
-11.75
-10.05
-7.28
-3.63
0.56
4.90
9.08
12.87
16.22
19.20
22.00
24.81
27.69
30.50
32.94
34.73
35.77
36.19
36.32
36.54
37.03
37.67
38.18
38.17
37.34
35.61
33.07
30.07
27.15
25.06
24.46
25.70
28.48
31.82
34.41
35.03
33.17
29.14
23.88
18.45
13.55
9.38
5.76
2.48
-0.39
-2.55
-3.67
-3.64
-2.76
-1.60
-0.76
-0.61
-1.24
-2.46
-3.95
-5.45
-6.74
-7.66
-8.07
-7.88
-7.06
-5.75
-4.19
-2.67
-1.35
-0.21
0.97
2.49
4.57
7.30
10.55
14.04
17.44
20.36
22.43
23.33
22.85
20.99
17.94
14.11
10.00
6.06
2.59
-0.37
-2.98
-5.57
-8.56
-12.32
-17.11
-22.96
-29.65
-36.72
-43.54
-49.38
-53.51
-55.40
-54.88
-52.30
-48.52
-44.71
-41.97
-40.83
-41.11
-42.00
-42.50
-41.88
-40.02
-37.29
-34.29
-31.39
-28.58
-25.54
-21.93
-17.69
-13.06
-8.49
-4.27
-0.36
3.64
8.31
14.00
20.64
27.66
34.22
39.60
43.44
45.85
47.25
48.09
48.67
49.14
49.55
49.96
50.40
50.76
50.73
49.82
47.54
43.69
38.41
32.22
25.76
19.60
14.02
9.03
4.42
-0.04
-4.49
-8.97
-13.34
-17.41
-21.01
-23.97
-26.14
-27.37
-27.50
-26.51
-24.58
-22.21
-20.06
-18.80
-18.74
-19.70
-21.06
-22.05
-22.14
-21.25
-19.77
-18.23
-16.99
-15.99
-14.86
-13.16
-10.70
-7.65
-4.36
-1.13
2.04
5.36
9.11
13.31
17.57
21.24
23.64
24.38
23.56
21.61
19.09
16.44
13.78
11.05
8.13
5.05
1.97
-0.84
-3.16
-4.97
-6.45
-7.85
-9.41
-11.26
-13.36
-15.56
-17.62
-19.32
-20.49
-21.04
-21.01
-20.56
-19.89
-19.19
-18.54
-17.91
-17.15
-16.06
-14.53
-12.50
-10.05
-7.38
-4.75
-2.52
-1.02
-0.47
-0.93
-2.23
-4.02
-5.83
-7.24
-7.98
-8.00
-7.50
-6.75
-6.04
-5.57
-5.41
-5.52
-5.83
-6.21
-6.54
-6.76
-6.84
-6.83
-6.81
-6.84
-6.93
-7.08
-7.23
-7.40
-7.62
-7.93
-8.27
-8.49
-8.41
-7.96
-7.28
-6.73
-6.70
-7.47
-8.97
-10.84
-12.51
-13.54
-13.72
-13.21
-12.47
-11.99
-12.15
-13.06
-14.55
-16.30
-17.94
-19.20
-19.97
-20.33
-20.41
-20.39
-20.36
-20.31
-20.16
-19.71
-18.67
-16.62
-13.06
-7.54
0.10
9.45
19.51
28.87
36.19
40.73
42.59
42.63
42.00
41.59
41.66
41.82
41.42
39.95
37.34
33.94
30.30
26.90
23.96
21.40
19.04
16.75
14.55
12.61
11.15
10.34
10.21
10.62
11.34
12.17
13.03
13.96
15.14
16.71
18.69
20.97
23.29
25.39
27.05
28.12
28.48
28.00
26.57
24.14
20.81
16.81
12.48
8.05
3.63
-0.83
-5.37
-9.90
-14.14
-17.72
-20.37
-22.09
-23.18
-24.10
-25.28
-26.94
-29.00
-31.17
-33.10
-34.38
-34.61
-33.37
-30.39
-25.68
-19.76
-13.58
-8.25
-4.59
-2.73
-2.08
-1.60
-0.40
1.84
4.71
7.41
9.14
9.57
8.87
7.58
6.24
5.19
4.49
4.06
3.81
3.73
3.93
4.47
5.36
6.46
7.61
8.64
9.49
10.29
11.33
12.89
15.02
17.40
19.38
20.18
19.30
16.82
13.41
10.06
7.65
6.42
5.95
5.42
4.10
1.77
-1.22
-4.22
-6.59
-8.13
-9.09
-9.96
-11.17
-12.84
-14.80
-16.77
-18.41
-19.16
-18.44
-15.71
-10.68
-3.50
5.21
14.40
22.90
29.89
35.39
39.83
43.63
46.91
49.60
51.68
53.20
54.28
55.00
55.77
56.66
57.32
57.20
56.00
53.90
51.22
48.21
44.99
42.21
40.35
39.49
39.21
39.01
38.40
36.56
32.24
20.24
-1.83
-32.09
-65.24
-95.90
-120.90
-138.82
-149.47
-152.99
-149.58
-139.03
-121.99
-100.49
-77.76
-57.26
-41.25
-30.89
-26.02
-25.45
-27.07
-28.97
-29.78
-28.46
-23.93
-14.78
-0.25
19.25
42.03
65.61
86.82
102.36
109.59
105.06
90.54
69.21
44.98
21.76
2.72
-10.41
-17.57
-20.01
-19.60
-17.73
-15.77
-14.57
-14.49
-15.51
-17.35
-19.60
-21.69
-23.18
-23.21
-21.64
-18.84
-15.58
-12.86
-11.63
-12.51
-15.53
-20.10
-24.95
-28.78
-30.35
-28.88
-24.20
-16.97
-8.50
-0.39
5.92
9.56
10.19
8.10
4.01
-1.11
-6.23
-10.42
-12.91
-13.33
-11.80
-8.98
-5.82
-3.23
-1.82
-1.70
-2.82
-4.61
-6.34
-7.30
-7.08
-5.55
-2.92
0.43
3.98
7.31
10.14
12.37
14.08
15.49
16.90
18.61
20.78
23.35
26.05
28.49
30.30
31.23
31.17
30.13
28.16
25.31
21.67
17.44
12.88
8.25
3.58
-1.36
-6.98
-13.61
-21.13
-28.92
-35.90
-40.91
-43.15
-42.41
-39.09
-33.95
-27.84
-21.46
-15.32
-9.74
-4.93
-1.07
1.78
3.65
4.73
5.29
5.65
6.03
6.53
7.05
7.35
7.20
6.46
5.20
3.65
2.07
0.63
-0.68
-1.99
-3.47
-5.19
-7.11
-9.05
-10.77
-12.06
-12.72
-12.64
-11.82
-10.32
-8.31
-5.97
-3.52
-1.16
0.90
2.49
3.48
3.79
3.45
2.60
1.51
0.46
-0.33
-0.77
-0.93
-1.01
-1.22
-1.67
-2.35
-3.09
-3.68
-3.94
-3.83
-3.47
-3.05
-2.80
-2.93
-3.52
-4.62
-6.21
-8.25
-10.68
-13.42
-16.38
-19.45
-22.55
-25.59
-28.51
-31.25
-33.76
-36.04
-38.14
-40.22
-42.48
-45.11
-48.11
-51.18
-53.79
-55.23
-54.93
-52.59
-48.28
-42.35
-35.29
-27.59
-19.64
-11.83
-4.52
1.99
7.57
12.32
16.59
20.79
25.27
30.13
35.26
40.48
45.68
50.89
56.23
61.72
67.06
71.71
74.98
76.37
75.77
73.47
69.95
65.62
60.60
54.74
47.83
39.90
31.39
23.08
15.75
9.84
5.32
1.73
-1.51
-4.79
-8.19
-11.54
-14.58
-17.09
-19.00
-20.35
-21.21
-21.53
-21.10
-19.46
-15.94
-9.93
-1.20
9.81
21.88
33.36
42.64
48.76
51.63
51.93
50.64
48.60
46.27
43.83
41.37
39.10
37.34
36.33
36.00
35.93
35.51
34.24
31.96
28.94
25.74
22.97
21.06
20.21
20.37
21.39
23.13
25.48
28.28
31.14
33.43
34.33
33.04
29.09
22.62
14.45
5.82
-2.01
-8.30
-12.99
-16.49
-19.35
-21.86
-24.02
-25.63
-26.64
-27.20
-27.69
-28.28
-28.75
-28.47
-26.76
-23.33
-18.40
-12.62
-6.66
-1.22
3.39
7.29
10.89
14.56
18.41
22.33
26.14
29.79
32.79
34.79
35.75
36.00
35.90
35.57
34.89
33.76
32.31
29.94
26.20
21.08
14.96
8.10
0.21
-9.36
-20.95
-34.22
-49.39
-66.23
-83.89
-101.13
-117.05
-131.60
-145.44
-159.26
-167.83
-167.21
-156.84
-140.14
-121.04
-100.90
-78.77
-53.45
-26.49
1.65
27.51
46.84
56.83
57.43
51.22
42.11
32.81
26.42
24.91
27.31
31.22
34.24
35.06
33.57
30.42
26.51
22.91
20.40
18.66
17.19
15.85
15.11
15.68
18.16
22.78
29.51
38.06
47.60
57.45
67.33
77.28
87.20
96.37
103.39
106.66
104.84
97.12
83.32
63.45
37.24
4.11
-36.10
-82.08
-130.21
-174.80
-209.37
-228.53
-229.65
-213.73
-184.96
-149.35
-112.91
-80.24
-53.86
-34.40
-21.34
-13.73
-10.71
-11.53
-15.28
-20.59
-25.74
-29.15
-30.07
-28.83
-26.58
-24.60
-23.50
-22.91
-21.64
-18.36
-12.29
-3.56
6.97
18.20
29.45
40.79
52.91
66.54
81.71
97.33
111.29
121.11
124.85
121.80
112.59
98.80
82.24
64.40
46.30
28.75
12.55
-1.36
-12.20
-19.74
-24.49
-27.58
-30.17
-32.91
-35.43
-36.59
-35.12
-30.37
-22.89
-14.35
-6.77
-1.56
1.11
2.35
3.76
6.50
10.60
15.08
18.54
20.04
19.55
17.82
15.89
14.46
13.67
13.32
13.18
13.30
13.96
15.53
18.08
21.33
24.62
27.17
28.27
27.57
25.16
21.65
17.99
15.18
13.86
13.97
14.74
14.95
13.54
10.11
5.13
-0.31
-5.08
-8.60
-10.97
-12.84
-14.87
-17.32
-19.94
-22.29
-24.17
-25.81
-27.84
-30.86
-35.09
-40.16
-45.34
-49.83
-53.02
-54.61
-54.46
-52.39
-48.08
-41.21
-31.69
-20.00
-7.31
4.71
14.19
19.56
19.93
15.27
6.41
-5.19
-17.67
-29.05
-37.49
-41.48
-40.21
-33.77
-23.31
-10.79
1.54
11.82
19.17
23.79
26.67
28.91
31.20
33.53
35.39
36.22
35.79
34.38
32.60
31.02
29.97
29.39
28.96
28.28
27.11
25.44
23.56
21.98
21.33
22.14
24.65
28.70
33.65
38.57
42.45
44.45
44.06
41.16
35.93
28.81
20.49
11.88
4.06
-1.87
-4.98
-4.65
-0.60
7.19
18.56
33.10
50.01
67.95
84.90
98.47
106.24
106.41
98.26
82.37
60.47
35.06
8.78
-15.99
-37.46
-54.45
-66.40
-73.21
-75.30
-73.53
-69.19
-63.74
-58.44
-53.98
-50.34
-46.93
-43.05
-38.38
-33.14
-27.98
-23.60
-20.29
-17.81
-15.57
-12.94
-9.63
-5.90
-2.44
-0.20
-0.07
-2.57
-7.72
-14.92
-23.10
-31.02
-37.56
-42.08
-44.46
-44.94
-43.93
-41.77
-38.67
-34.79
-30.36
-25.70
-21.22
-17.21
-13.75
-10.58
-7.15
-2.80
3.03
10.50
19.21
28.26
36.43
42.60
46.14
46.98
45.59
42.58
38.41
33.25
27.10
20.11
12.77
5.94
0.52
-2.83
-4.09
-3.84
-3.05
-2.65
-3.19
-4.69
-6.80
-8.97
-10.78
-12.02
-12.78
-13.32
-14.06
-15.39
-17.58
-20.64
-24.27
-27.94
-31.08
-33.33
-34.66
-35.34
-35.79
-36.34
-37.16
-38.22
-39.37
-40.32
-40.66
-39.96
-37.84
-34.27
-29.64
-24.64
-19.98
-16.00
-12.55
-9.10
-5.16
-0.69
3.95
8.13
11.42
13.86
15.82
17.78
19.88
21.84
23.04
22.90
21.23
18.31
14.88
11.82
9.91
9.56
10.72
12.90
15.24
16.80
16.79
14.87
11.32
6.94
2.81
-0.13
-1.40
-1.08
0.29
2.05
3.72
5.07
6.10
6.82
7.10
6.67
5.27
2.86
-0.32
-3.75
-6.85
-9.17
-10.48
-10.83
-10.36
-9.22
-7.51
-5.34
-2.83
-0.23
2.20
4.18
5.52
6.20
6.36
6.30
6.26
6.39
6.72
7.17
7.69
8.15
8.49
8.67
8.68
8.45
7.87
6.89
5.57
4.09
2.50
0.82
-0.87
-2.47
-3.90
-5.09
-5.91
-6.15
-5.59
-4.60
-3.69
-3.37
-3.88
-5.22
-7.16
-9.21
-10.75
-11.22
-11.15
-11.34
-12.38
-14.36
-16.97
-19.74
-22.19
-23.95
-24.98
-26.47
-29.55
-34.58
-41.00
-47.85
-54.58
-61.25
-68.39
-71.39
-67.31
-55.92
-39.71
-21.42
-2.94
14.22
28.44
38.24
44.12
46.08
44.67
41.07
36.95
33.62
31.60
30.47
29.88
29.71
29.45
28.81
27.73
26.58
25.72
25.34
25.63
27.10
30.27
34.91
40.17
42.92
40.75
33.31
22.67
11.93
3.79
-0.32
-0.29
2.93
7.76
12.67
16.26
17.25
14.68
8.99
0.35
-10.20
-20.92
-29.76
-34.68
-34.29
-28.59
-18.94
-7.54
3.37
12.46
19.52
25.38
30.37
35.05
39.38
42.71
44.20
43.32
40.34
36.25
32.39
30.08
30.34
33.47
39.04
46.03
52.85
57.54
57.92
52.16
39.77
22.55
4.68
-8.23
-11.18
-1.99
17.41
41.39
62.65
75.02
75.53
64.78
45.88
22.69
-1.65
-25.06
-46.18
-63.89
-77.10
-85.08
-87.89
-86.50
-82.33
-76.56
-69.63
-61.15
-50.35
-36.86
-21.19
-4.90
9.79
20.66
26.26
26.22
21.33
13.12
3.35
-6.31
-14.65
-21.06
-25.51
-28.65
-31.58
-35.50
-41.26
-49.07
-58.46
-68.57
-78.55
-87.88
-96.29
-103.52
-109.03
-112.02
-111.69
-107.57
-99.73
-88.70
-75.29
-60.44
-45.11
-30.41
-17.41
-7.00
0.37
4.87
7.13
8.01
8.26
8.50
9.15
10.57
13.10
16.96
22.10
28.13
34.39
40.14
44.73
47.78
49.22
49.30
48.37
46.85
45.08
43.38
41.98
41.12
41.00
41.64
42.92
44.47
45.87
46.77
47.04
46.79
46.25
45.67
45.21
44.98
45.00
45.32
45.97
46.93
48.05
49.04
49.55
49.31
48.25
46.58
44.71
43.09
41.93
41.13
40.25
38.70
35.98
31.93
26.77
21.00
15.19
9.70
4.59
-0.31
-5.20
-10.05
-14.51
-18.07
-20.28
-21.03
-20.61
-19.48
-18.07
-16.62
-15.23
-14.03
-13.28
-13.28
-14.09
-15.32
-16.21
-15.96
-14.21
-11.29
-8.10
-5.73
-4.92
-5.88
-8.26
-11.52
-15.14
-18.76
-22.17
-25.15
-27.48
-29.00
-29.69
-29.69
-29.32
-28.84
-28.36
-27.72
-26.51
-24.30
-20.90
-16.49
-11.70
-7.41
-4.50
-3.56
-4.79
-7.96
-12.48
-17.46
-21.84
-24.58
-24.90
-22.71
-18.77
-14.57
-11.67
-11.04
-12.43
-14.44
-15.15
-13.04
-7.78
-0.39
7.26
13.30
16.61
17.19
15.93
14.11
12.83
12.66
13.59
15.24
17.06
18.58
19.46
19.49
18.51
16.43
13.33
9.50
5.50
1.98
-0.46
-1.55
-1.42
-0.59
0.26
0.54
-0.11
-1.67
-3.89
-6.42
-8.99
-11.50
-13.99
-16.49
-18.95
-21.19
-23.00
-24.27
-25.08
-25.71
-26.44
-27.44
-28.62
-29.72
-30.48
-30.80
-30.84
-31.02
-31.81
-33.54
-36.20
-39.33
-42.18
-44.04
-44.52
-43.82
-42.66
-41.94
-42.32
-43.94
-46.39
-48.98
-51.10
-52.50
-53.31
-53.87
-54.52
-55.41
-56.48
-57.41
-57.55
-55.90
-51.09
-41.70
-26.76
-6.42
17.67
42.56
64.69
81.13
90.48
93.38
92.10
89.58
88.27
89.22
91.95
94.79
95.59
92.55
84.67
72.05
55.89
38.20
21.38
7.65
-1.50
-5.74
-5.84
-3.37
-0.05
2.77
4.39
4.77
4.18
2.97
1.40
-0.27
-1.78
-2.80
-3.12
-2.76
-2.02
-1.42
-1.39
-2.09
-3.33
-4.63
-5.54
-5.83
-5.55
-5.03
-4.68
-4.79
-5.47
-6.62
-7.99
-9.32
-10.40
-11.10
-11.44
-11.54
-11.59
-11.77
-12.20
-12.84
-13.56
-14.14
-14.36
-14.08
-13.31
-12.14
-10.70
-9.02
-6.97
-4.33
-0.85
3.62
9.08
15.40
22.41
29.91
37.74
45.63
53.27
60.26
66.32
71.31
75.32
78.47
80.68
81.45
79.87
74.93
66.01
53.38
38.25
22.59
8.39
-2.90
-10.69
-15.23
-17.13
-17.07
-15.55
-13.03
-10.11
-7.50
-5.85
-5.42
-5.96
-6.85
-7.46
-7.54
-7.35
-7.44
-8.36
-10.34
-13.20
-16.49
-19.69
-22.42
-24.45
-25.71
-26.20
-25.95
-25.05
-23.67
-22.07
-20.48
-19.11
-17.97
-16.93
-15.76
-14.29
-12.52
-10.62
-8.89
-7.60
-6.83
-6.49
-6.37
-6.28
-6.11
-5.93
-5.84
-5.93
-6.20
-6.60
-7.04
-7.44
-7.77
-8.00
-8.11
-8.05
-7.78
-7.28
-6.56
-5.69
-4.78
-3.92
-3.14
-2.44
-1.77
-1.06
-0.31
0.46
1.17
1.73
2.09
2.27
2.34
2.36
2.38
2.40
2.40
2.33
2.19
1.98
1.70
1.37
0.97
0.49
-0.04
-0.58
-1.07
-1.50
-1.91
-2.34
-2.81
-3.31
-3.77
-4.12
-4.32
-4.35
-4.22
-3.90
-3.36
-2.62
-1.78
-1.00
-0.42
-0.12
-0.03
-0.01
0.06
0.22
0.42
0.61
0.80
1.01
1.30
1.64
1.90
1.95
1.72
1.30
0.87
0.61
0.59
0.76
0.99
1.18
1.36
1.59
1.94
2.40
2.90
3.31
3.54
3.58
3.45
3.15
2.65
1.89
0.89
-0.22
-1.24
-1.90
-2.06
-1.70
-0.93
0.03
0.96
1.73
2.31
2.75
3.14
3.56
4.07
4.65
5.31
6.03
6.81
7.69
8.66
9.74
10.94
12.28
13.77
15.37
17.02
18.56
19.80
20.55
20.68
20.20
19.33
18.46
18.06
18.54
20.08
22.57
25.62
28.70
31.39
33.54
35.37
37.35
39.95
43.34
47.17
50.63
52.63
52.22
48.92
42.98
35.38
27.51
20.79
16.14
13.79
13.25
13.57
13.82
13.42
12.40
11.25
10.83
12.00
15.33
20.63
26.70
31.27
31.55
25.19
11.32
-8.85
-32.26
-55.02
-73.80
-86.74
-93.70
-95.69
-94.04
-89.90
-84.03
-77.17
-70.21
-64.34
-60.70
-59.96
-61.97
-65.65
-69.12
-70.40
-68.37
-63.49
-58.07
-55.55
-58.81
-68.47
-82.21
-95.79
-105.09
-107.85
-103.95
-94.23
-79.16
-58.64
-33.33
-5.99
18.45
34.81
40.71
38.21
32.78
29.94
31.85
36.38
39.19
37.08
29.97
20.41
11.29
3.96
-1.85
-6.53
-8.98
-6.45
3.70
21.71
44.64
67.70
86.65
99.18
104.96
104.76
99.50
90.12
77.83
64.77
54.00
48.62
50.07
57.19
66.67
74.80
78.84
77.71
72.09
64.16
56.92
52.76
52.40
54.35
55.43
51.60
38.74
14.05
-27.10
-82.58
-141.79
-190.15
-216.91
-218.86
-199.19
-165.20
-127.53
-91.24
-59.42
-34.07
-16.13
-5.48
-0.75
0.43
-1.53
-4.78
-7.01
-6.26
-1.44
7.11
17.64
27.96
36.28
41.63
44.48
46.29
48.66
52.61
57.99
63.54
67.54
68.68
66.41
61.34
54.84
48.25
42.59
38.21
34.84
31.94
29.07
25.98
22.83
19.88
17.23
14.75
12.13
8.98
5.07
0.44
-4.59
-9.49
-13.73
-17.00
-19.22
-20.45
-20.88
-20.74
-20.25
-19.64
-19.13
-18.94
-19.21
-20.02
-21.29
-22.90
-24.71
-26.59
-28.41
-29.97
-30.92
-30.88
-29.54
-26.83
-23.00
-18.61
-14.29
-10.54
-7.57
-5.30
-3.51
-2.02
-0.82
-0.09
-0.04
-0.74
-2.10
-3.79
-5.43
-6.75
-7.64
-8.22
-8.68
-9.19
-9.77
-10.32
-10.70
-10.81
-10.69
-10.46
-10.23
-10.10
-10.05
-10.01
-9.93
-9.75
-9.39
-8.76
-7.71
-6.10
-3.91
-1.25
1.62
4.30
6.48
7.95
8.71
8.85
8.53
7.81
6.67
5.02
2.82
0.14
-2.80
-5.72
-8.35
-10.47
-11.85
-12.19
-11.15
-8.40
-3.92
1.96
8.48
14.68
19.67
22.91
24.30
24.03
22.41
19.66
15.92
11.28
5.97
0.41
-4.84
-9.21
-12.28
-13.82
-13.86
-12.60
-10.35
-7.47
-4.34
-1.25
1.60
4.11
6.24
7.97
9.27
10.08
10.38
10.27
9.96
9.71
9.76
10.14
10.75
11.35
11.71
11.73
11.46
11.12
10.93
11.09
11.64
12.47
13.37
14.14
14.68
15.09
15.57
16.36
17.60
19.23
20.97
22.36
22.87
22.00
19.47
15.34
10.08
4.57
-0.10
-3.00
-3.61
-1.96
1.42
5.81
10.57
15.35
20.00
24.45
28.59
32.23
35.23
37.59
39.54
41.44
43.67
46.37
49.42
52.30
54.24
54.38
51.99
46.69
38.59
28.30
16.79
5.13
-5.75
-15.21
-23.00
-29.14
-33.80
-37.21
-39.60
-41.18
-42.23
-43.07
-44.03
-45.35
-47.03
-48.89
-50.64
-52.02
-52.91
-53.37
-53.51
-53.40
-53.09
-52.57
-51.93
-51.28
-50.68
-50.06
-49.11
-47.42
-44.57
-40.35
-34.82
-28.27
-21.11
-13.71
-6.41
0.54
6.88
12.32
16.64
19.67
21.40
21.96
21.60
20.61
19.22
17.57
15.76
13.83
11.89
10.05
8.43
7.11
6.07
5.25
4.56
3.93
3.32
2.76
2.28
1.93
1.77
1.83
2.08
2.46
2.86
3.20
3.45
3.62
3.73
3.75
3.63
3.29
2.75
2.12
1.59
1.31
1.31
1.48
1.64
1.64
1.44
1.10
0.76
0.51
0.33
0.18
-0.00
-0.23
-0.47
-0.64
-0.72
-0.71
-0.67
-0.68
-0.82
-1.09
-1.44
-1.77
-1.95
-1.91
-1.64
-1.21
-0.70
-0.20
0.24
0.62
0.97
1.29
1.54
1.66
1.62
1.41
1.08
0.76
0.52
0.43
0.45
0.51
0.52
0.44
0.31
0.20
0.20
0.30
0.47
0.59
0.57
0.37
0.02
-0.39
-0.76
-1.02
-1.19
-1.30
-1.40
-1.53
-1.71
-1.95
-2.26
-2.64
-3.03
-3.34
-3.46
-3.29
-2.81
-2.06
-1.17
-0.25
0.60
1.31
1.84
2.18
2.35
2.39
2.40
2.50
2.76
3.15
3.57
3.88
3.95
3.72
3.26
2.68
2.11
1.62
1.23
0.93
0.69
0.54
0.49
0.55
0.67
0.74
0.64
0.29
-0.29
-0.99
-1.64
-2.11
-2.35
-2.41
-2.38
-2.34
-2.31
-2.25
-2.10
-1.83
-1.44
-1.02
-0.64
-0.34
-0.11
0.13
0.44
0.83
1.23
1.54
1.70
1.74
1.72
1.73
1.80
1.93
2.03
2.03
1.92
1.74
1.59
1.56
1.66
1.87
2.10
2.22
2.14
1.84
1.39
0.89
0.45
0.12
-0.14
-0.41
-0.77
-1.24
-1.72
-2.11
-2.26
-2.15
-1.81
-1.34
-0.86
-0.44
-0.10
0.17
0.43
0.73
1.12
1.58
2.06
2.46
2.67
2.63
2.38
2.00
1.59
1.25
0.97
0.76
0.58
0.48
0.50
0.69
1.00
1.35
1.61
1.70
1.59
1.35
1.03
0.69
0.35
0.02
-0.25
-0.43
-0.46
-0.38
-0.25
-0.18
-0.23
-0.41
-0.64
-0.79
-0.77
-0.56
-0.23
0.15
0.51
0.88
1.29
1.76
2.20
2.49
2.47
2.09
1.42
0.64
-0.03
-0.40
-0.43
-0.15
0.34
0.89
1.37
1.68
1.80
1.68
1.36
0.89
0.35
-0.15
-0.51
-0.66
-0.61
-0.42
-0.21
-0.07
-0.06
-0.18
-0.41
-0.71
-1.02
-1.28
-1.47
-1.51
-1.36
-1.02
-0.52
0.07
0.66
1.17
1.56
1.84
2.04
2.17
2.27
2.30
2.26
2.09
1.78
1.35
0.86
0.42
0.10
-0.03
0.00
0.11
0.21
0.24
0.15
-0.04
-0.34
-0.75
-1.24
-1.75
-2.16
-2.34
-2.20
-1.78
-1.20
-0.67
-0.31
-0.17
-0.18
-0.23
-0.25
-0.22
-0.20
-0.22
-0.25
-0.24
-0.15
0.02
0.21
0.31
0.29
0.14
-0.05
-0.20
-0.26
-0.22
-0.14
-0.04
0.05
0.14
0.26
0.38
0.49
0.52
0.44
0.23
-0.04
-0.29
-0.44
-0.44
-0.30
-0.08
0.17
0.40
0.61
0.76
0.78
0.61
0.23
-0.31
-0.87
-1.34
