1594390055.00
64.000000
-0.00
-0.00
-0.00
-0.00
-0.00
-0.00
-0.00
-0.00
-0.00
-0.00
0.00
0.01
0.01
-0.00
-0.03
-0.05
-0.05
0.00
0.13
0.36
0.66
1.01
1.37
1.72
2.06
2.40
2.79
3.24
3.80
4.42
5.06
5.66
6.20
6.68
7.15
7.68
8.31
9.14
10.09
11.04
11.88
12.56
13.14
13.76
14.65
15.96
17.91
20.32
22.90
25.38
27.58
29.57
31.68
34.32
37.81
42.54
48.15
54.10
59.83
64.97
69.58
74.14
79.34
85.71
93.76
103.00
112.62
121.73
129.77
136.75
143.30
150.75
157.77
166.65
177.95
191.80
206.97
220.56
228.23
225.35
208.54
176.91
132.84
80.14
23.11
-35.05
-92.76
-149.72
-205.99
-261.23
-314.57
-364.58
-410.41
-451.43
-487.08
-516.50
-538.23
-550.41
-551.22
-539.54
-515.20
-479.52
-434.74
-383.57
-328.64
-272.04
-215.29
-159.46
-105.51
-54.44
-7.56
33.89
69.03
97.61
120.13
137.64
151.33
162.09
170.24
175.51
177.40
175.65
170.59
163.27
155.11
147.45
140.94
135.33
129.59
122.45
113.10
101.69
89.33
77.63
68.02
61.07
56.26
52.38
48.00
41.97
33.54
22.33
8.69
-5.69
-17.11
-20.45
-11.12
12.28
46.11
82.03
110.00
122.59
118.10
100.97
79.05
59.63
46.34
38.67
33.80
29.09
23.76
18.71
15.26
13.87
13.89
14.15
13.69
12.13
9.34
5.01
-1.45
-10.45
-21.41
-32.33
-40.07
-41.18
-33.20
-15.80
8.62
35.11
57.32
69.35
67.72
52.74
28.83
3.35
-16.01
-24.24
-21.11
-11.11
-0.94
3.97
2.25
-3.23
-7.58
-7.23
-2.25
4.00
7.24
5.18
-0.95
-7.40
-10.58
-9.49
-6.23
-4.41
-6.50
-12.16
-18.44
-21.70
-19.82
-13.26
-4.79
2.25
5.51
4.65
1.09
-2.88
-5.31
-5.42
-3.59
-0.91
1.57
3.31
4.40
5.28
6.34
7.69
9.10
10.21
10.82
11.01
11.03
11.09
11.14
10.91
10.06
8.46
6.42
4.30
2.48
1.06
-0.12
-1.39
-3.00
-4.90
-6.76
-8.21
-8.99
-9.07
-8.69
-8.21
-7.99
-8.18
-8.73
-9.42
-9.89
-9.82
-9.06
-7.73
-6.33
-5.47
-5.63
-6.90
-8.84
-10.64
-11.56
-11.22
-9.87
-8.18
-6.84
-6.20
-6.12
-6.16
-5.84
-5.10
-4.16
-3.48
-3.28
-3.44
-3.51
-2.96
-1.55
0.53
2.74
4.45
5.21
4.94
3.91
2.63
1.62
1.27
1.76
3.02
4.85
6.84
8.51
9.41
9.34
8.55
7.72
7.84
9.49
12.96
17.90
23.36
27.98
30.34
29.41
25.01
18.08
10.62
5.18
3.78
6.98
13.39
20.09
23.85
22.58
16.41
7.60
-0.34
-4.45
-3.69
0.50
4.86
5.94
1.66
-7.63
-19.34
-29.90
-36.47
-38.13
-36.10
-32.71
-30.05
-28.88
-28.55
-27.72
-25.41
-21.63
-17.25
-13.40
-10.88
-9.88
-10.04
-10.69
-11.04
-10.32
-7.94
-3.73
1.82
7.51
11.81
13.41
11.85
7.67
2.18
-3.18
-7.31
-9.77
-10.75
-10.76
-10.34
-9.79
-9.34
-9.30
-10.12
-11.89
-13.98
-15.13
-14.06
-10.10
-3.68
3.78
10.36
14.48
15.82
15.23
13.73
11.45
7.49
0.85
-8.62
-19.63
-29.78
-36.10
-36.16
-29.02
-15.41
3.16
25.26
49.64
74.69
95.98
107.38
105.01
90.40
69.26
47.76
30.05
17.87
11.32
9.37
11.19
16.13
22.87
28.69
30.99
28.71
23.03
16.40
11.54
10.24
12.57
16.87
19.78
18.54
12.02
0.94
-13.01
-28.09
-42.80
-56.05
-67.25
-77.26
-86.82
-96.13
-104.67
-111.75
-117.10
-120.95
-123.71
-119.78
-106.39
-84.60
-59.11
-35.16
-16.09
-2.85
5.37
10.33
13.96
15.91
16.54
16.25
15.79
15.94
17.03
18.86
20.87
22.48
22.75
21.96
20.86
20.54
21.57
23.67
25.91
27.30
27.25
25.20
21.12
15.24
8.15
0.89
-4.96
-7.51
-5.11
2.59
13.63
24.42
30.80
30.13
22.45
10.44
-2.11
-12.33
-19.56
-25.20
-31.10
-37.83
-43.79
-46.03
-41.90
-30.69
-14.17
4.43
21.92
36.50
47.81
56.21
61.70
63.57
60.96
53.95
44.22
34.74
28.45
26.76
28.84
32.08
33.45
31.05
24.94
16.91
9.52
4.90
4.00
6.41
10.57
14.17
14.92
11.31
3.38
-7.06
-17.07
-23.75
-25.55
-22.97
-18.34
-14.86
-15.47
-21.88
-34.29
-51.39
-70.64
-88.51
-101.06
-104.71
-97.51
-80.19
-56.52
-32.31
-13.56
-4.55
-6.67
-18.67
-37.82
-61.08
-85.52
-107.92
-124.49
-131.58
-127.51
-114.32
-97.96
-86.00
-83.83
-91.49
-103.15
-109.80
-103.84
-82.66
-49.49
-11.30
24.63
53.50
73.89
87.04
95.35
101.34
107.19
114.39
123.38
133.39
142.64
149.14
151.72
150.53
146.62
141.08
134.13
125.04
112.74
96.62
77.00
54.99
32.17
10.42
-7.83
-19.69
-22.53
-15.24
0.65
21.14
41.15
56.70
66.31
70.90
72.25
71.12
66.31
55.42
36.57
9.98
-21.69
-54.30
-83.88
-107.68
-124.14
-132.26
-131.09
-119.99
-99.66
-72.99
-45.05
-21.68
-7.43
-3.63
-7.78
-14.73
-19.07
-17.22
-8.59
4.92
20.37
35.19
47.87
57.74
64.36
67.21
65.90
60.72
52.85
44.13
36.44
30.90
27.58
25.63
23.76
20.64
15.38
7.78
-1.49
-11.04
-19.11
-24.28
-26.10
-25.24
-23.21
-21.58
-21.26
-22.32
-24.26
-26.59
-29.15
-32.04
-35.13
-37.70
-38.56
-36.52
-31.09
-22.81
-13.12
-3.80
3.67
8.53
10.86
11.28
10.56
9.39
8.27
7.70
8.27
10.49
14.53
19.86
25.22
29.05
30.10
27.98
23.33
17.55
12.22
8.39
6.31
5.37
4.55
2.77
-0.74
-6.23
-13.37
-21.35
-29.09
-35.65
-40.52
-43.84
-46.24
-48.39
-50.66
-53.02
-55.10
-56.58
-57.33
-57.34
-56.51
-54.45
-50.58
-44.44
-36.12
-26.41
-16.62
-8.03
-1.42
3.24
6.62
9.55
12.56
15.59
18.18
19.78
20.21
19.77
19.21
19.28
20.43
22.58
25.32
28.11
30.67
32.92
34.94
36.75
38.43
40.28
42.87
46.74
51.87
57.27
61.19
61.97
59.06
53.23
46.18
39.28
32.53
24.62
13.96
0.04
-15.79
-30.81
-42.32
-48.89
-50.73
-48.98
-44.62
-37.81
-28.23
-15.91
-2.01
11.17
21.07
26.00
25.95
22.50
18.08
14.79
13.67
14.55
16.42
18.26
19.57
20.56
21.87
24.06
27.22
31.13
35.58
40.75
47.03
54.29
61.19
65.27
64.06
56.72
45.07
33.25
25.83
25.56
32.07
42.25
52.19
59.01
61.75
60.70
56.14
47.54
33.91
15.06
-7.48
-30.66
-51.11
-66.62
-76.68
-82.09
-83.89
-82.51
-77.65
-68.93
-56.61
-41.95
-26.92
-13.69
-4.11
0.58
-0.21
-6.31
-16.76
-29.91
-43.77
-56.56
-67.36
-76.15
-83.43
-89.45
-93.66
-94.75
-91.35
-82.83
-69.82
-53.85
-36.61
-19.28
-2.35
13.93
28.82
40.90
48.38
49.82
44.88
34.47
20.53
5.67
-7.08
-14.53
-13.62
-2.25
20.00
51.08
86.76
121.40
149.36
166.48
170.82
162.85
144.89
120.50
93.62
67.97
46.36
30.16
19.23
12.19
6.97
1.55
-5.40
-14.11
-23.70
-32.60
-39.45
-43.56
-44.98
-44.43
-42.72
-40.34
-37.25
-32.99
-27.15
-20.31
-13.65
-8.23
-4.63
-2.65
-1.35
0.47
4.06
10.04
17.29
23.96
28.74
30.97
30.98
30.11
30.17
33.12
40.28
50.14
59.71
65.83
64.85
53.41
29.54
-5.96
-48.05
-87.84
-116.74
-127.67
-116.67
-85.56
-41.47
5.78
43.14
58.88
58.48
50.03
35.91
18.88
0.56
-18.20
-36.44
-52.60
-64.13
-68.50
-66.52
-60.90
-54.39
-49.55
-47.72
-48.44
-49.93
-49.66
-45.61
-38.66
-31.12
-24.83
-21.12
-20.28
-21.47
-23.16
-23.49
-20.94
-15.90
-9.80
-3.89
0.62
2.99
3.11
1.56
-0.59
-2.16
-2.88
-3.17
-3.50
-4.66
-7.62
-13.10
-20.96
-30.00
-38.25
-43.98
-46.34
-45.18
-41.42
-36.72
-32.59
-29.55
-27.24
-24.63
-21.16
-16.74
-10.82
-2.54
8.70
22.73
38.31
53.02
64.28
70.10
66.53
53.14
34.06
15.36
0.71
-8.87
-16.56
-24.04
-30.68
-34.35
-32.76
-24.50
-10.59
5.72
20.40
29.99
33.12
30.45
24.32
18.39
15.92
18.28
24.45
31.96
37.92
40.49
39.05
33.93
26.36
17.80
9.50
2.77
-0.77
0.38
7.01
18.13
30.80
41.29
46.31
44.01
34.42
19.55
2.83
-11.60
-20.00
-20.29
-12.18
2.86
21.86
40.89
56.13
64.63
64.92
57.15
42.62
24.09
5.80
-7.80
-13.83
-12.04
-5.06
2.51
5.71
0.41
-14.72
-37.01
-60.94
-80.54
-91.31
-91.72
-83.23
-65.86
-44.18
-26.85
-21.64
-31.14
-53.51
-82.62
-111.36
-132.91
-142.55
-135.29
-111.65
-76.33
-36.51
0.39
29.10
47.44
56.01
56.85
51.79
42.06
29.52
16.71
6.28
0.39
-0.15
3.95
10.81
17.82
22.45
23.62
21.72
17.91
13.68
10.29
8.62
9.00
10.99
13.50
15.49
16.33
15.89
14.57
13.06
11.89
11.19
10.64
9.64
7.96
5.84
3.83
2.38
1.59
1.18
0.58
-0.64
-2.61
-4.96
-6.92
-7.60
-6.48
-3.71
-0.17
2.82
4.13
3.36
1.01
-1.70
-3.54
-3.86
-2.79
-1.15
0.12
0.44
-0.20
-1.34
-2.37
-2.90
-2.90
-2.59
-2.32
-2.29
-2.52
-2.78
-2.77
-2.29
-1.34
-0.21
0.71
1.06
0.70
-0.22
-1.34
-2.33
-2.99
-3.37
-3.66
-4.02
-4.46
-4.84
-4.93
-4.60
-3.91
-3.15
-2.61
-2.50
-2.83
-3.44
-4.09
-4.67
-5.19
-5.74
-6.40
-7.14
-7.83
-8.28
-8.36
-8.06
-7.42
-6.55
-5.48
-4.17
-2.54
-0.51
1.93
4.64
7.35
9.75
11.59
12.87
13.85
14.91
16.41
18.41
20.65
22.59
23.78
24.03
23.56
22.86
22.45
22.57
23.09
23.61
23.68
23.07
21.90
20.44
18.99
17.63
16.18
14.37
12.05
9.39
6.86
5.00
4.15
4.27
4.87
5.31
5.01
3.76
1.76
-0.48
-2.31
-3.20
-2.89
-1.46
0.77
3.42
6.19
8.97
11.82
14.80
17.85
20.71
23.02
24.54
25.29
25.58
25.81
26.15
26.37
25.89
24.05
20.58
15.84
10.82
6.68
4.29
3.77
4.43
5.06
4.47
2.00
-2.19
-7.29
-12.24
-16.24
-19.12
-21.38
-23.89
-27.53
-32.90
-40.27
-49.70
-61.02
-73.60
-86.04
-96.08
-101.11
-99.32
-90.84
-78.20
-65.60
-57.14
-54.95
-58.13
-63.25
-66.04
-63.43
-54.73
-41.50
-26.32
-11.43
2.11
14.15
24.81
33.82
40.37
43.61
43.31
40.29
36.24
33.05
32.00
33.23
35.79
38.11
38.80
37.15
33.36
28.37
23.32
19.04
15.77
13.18
10.67
7.84
4.66
1.55
-0.94
-2.47
-3.08
-3.25
-3.62
-4.77
-6.84
-9.57
-12.23
-13.82
-13.39
-10.25
-4.38
3.53
12.12
19.76
25.10
27.48
27.01
24.24
19.85
14.38
8.35
2.51
-1.99
-3.89
-2.23
3.09
11.28
20.86
30.08
37.48
42.14
43.64
41.85
36.67
27.96
16.01
1.98
-11.81
-22.29
-26.66
-23.68
-14.66
-3.25
5.90
9.12
5.18
-4.69
-17.90
-32.02
-45.40
-57.42
-67.81
-75.78
-79.60
-77.06
-66.61
-48.43
-24.70
1.59
27.15
49.20
66.13
77.88
85.35
89.53
90.73
88.56
83.60
76.84
69.59
63.09
58.44
56.15
55.78
56.17
56.08
56.31
58.46
63.89
72.85
84.46
96.85
107.63
114.62
109.00
87.39
54.23
19.41
-9.04
-29.22
-43.79
-56.15
-67.80
-77.84
-83.05
-81.28
-73.37
-63.16
-54.62
-50.00
-49.11
-49.87
-49.53
-45.30
-36.48
-24.89
-13.96
-6.66
-4.16
-5.79
-10.21
-15.72
-20.65
-24.49
-27.82
-31.48
-35.44
-38.36
-38.15
-33.10
-22.95
-9.04
5.85
18.59
26.97
30.52
30.29
28.02
24.96
21.41
17.04
11.44
4.81
-1.95
-7.68
-11.65
-13.96
-15.52
-17.41
-20.27
-23.93
-27.53
-29.99
-30.56
-29.10
-26.05
-22.20
-18.32
-15.00
-12.61
-11.37
-11.36
-12.54
-14.70
-17.38
-20.01
-22.07
-23.29
-23.77
-23.84
-23.87
-24.12
-24.60
-25.16
-25.59
-25.75
-25.57
-25.01
-24.03
-22.58
-20.75
-18.81
-17.21
-16.30
-16.18
-16.64
-17.29
-17.84
-18.19
-18.40
-18.54
-18.62
-18.52
-18.02
-16.91
-15.14
-12.87
-10.47
-8.30
-6.61
-5.35
-4.18
-2.68
-0.58
2.05
4.74
6.89
8.08
8.48
8.94
10.66
14.55
20.72
28.25
35.58
41.27
44.85
47.21
50.20
55.50
63.44
72.37
79.18
80.74
75.42
64.01
49.43
35.42
25.34
21.44
24.80
35.48
52.28
72.07
89.39
97.24
89.40
63.57
23.61
-20.69
-57.01
-75.44
-72.71
-53.46
-27.74
-6.19
4.52
3.57
-5.31
-17.14
-28.61
-39.17
-49.83
-60.97
-70.97
-76.52
-74.50
-64.03
-47.36
-29.16
-14.47
-6.47
-5.22
-7.85
-10.08
-8.39
-1.67
8.22
17.41
21.90
19.60
11.36
0.42
-9.10
-14.30
-14.80
-12.75
-11.57
-13.99
-20.70
-30.00
-38.82
-44.32
-45.19
-41.84
-35.69
-28.09
-19.64
-10.42
-0.69
8.49
15.32
18.10
16.27
10.82
3.88
-2.36
-6.69
-9.24
-11.14
-13.79
-18.10
-24.21
-31.40
-38.43
-43.81
-46.26
-45.14
-40.75
-34.38
-27.95
-23.41
-22.22
-24.86
-30.68
-38.10
-45.12
-49.94
-51.50
-49.87
-46.01
-41.19
-36.48
-32.50
-29.37
-26.69
-23.41
-17.79
-7.85
7.77
28.72
52.36
74.39
90.45
98.10
97.84
92.61
86.07
80.80
77.39
74.87
72.07
68.67
65.31
62.81
61.16
59.22
55.20
47.69
36.69
23.88
11.91
3.25
-0.99
-1.38
0.13
1.22
0.29
-2.94
-7.30
-10.67
-10.87
-6.34
3.20
16.57
31.41
44.88
54.56
59.12
58.58
54.11
47.46
40.53
34.90
31.79
31.87
35.04
40.41
46.43
51.45
54.31
54.79
53.57
51.63
49.55
47.28
44.40
40.64
36.41
32.78
31.01
31.87
35.34
40.49
45.76
49.37
49.68
45.63
37.00
24.47
9.46
-6.36
-21.57
-35.32
-47.38
-57.78
-66.46
-73.14
-77.58
-79.93
-81.08
-82.43
-85.40
-90.60
-97.28
-103.30
-105.84
-102.40
-91.97
-75.71
-56.89
-39.92
-28.90
-26.24
-31.77
-42.87
-55.30
-64.42
-66.57
-60.05
-45.47
-25.54
-4.26
14.17
26.41
30.65
26.83
16.46
2.16
-12.94
-25.79
-34.03
-36.48
-33.43
-26.48
-18.09
-10.75
-6.24
-5.28
-7.48
-11.74
-16.70
-21.09
-24.03
-25.17
-24.73
-23.47
-22.44
-22.53
-24.04
-26.35
-28.07
-27.57
-23.68
-16.37
-6.83
3.01
11.34
17.25
20.96
23.44
25.74
28.41
31.48
34.86
38.67
43.22
48.56
53.88
57.51
57.60
53.40
46.05
38.37
33.61
33.60
37.84
43.75
48.15
48.78
45.10
37.84
27.95
15.80
1.30
-15.32
-32.74
-48.72
-60.99
-68.50
-71.97
-73.32
-74.50
-76.31
-78.28
-79.21
-78.36
-76.03
-73.63
-72.92
-75.09
-80.06
-86.29
-91.20
-92.06
-87.09
-76.23
-61.36
-45.81
-32.99
-24.92
-21.24
-19.33
-15.58
-7.13
6.67
23.78
40.31
52.12
56.65
53.96
46.47
37.79
31.12
28.06
28.50
31.20
34.89
39.19
44.64
52.12
62.06
73.94
86.47
98.07
107.23
113.16
116.02
116.73
116.37
115.49
113.84
110.40
103.86
92.55
75.63
54.00
30.35
8.11
-10.02
-22.99
-31.43
-37.02
-42.60
-50.41
-60.64
-71.03
-77.97
-78.33
-70.65
-55.59
-35.84
-16.47
-3.04
0.54
-6.78
-23.81
-48.63
-79.44
-114.67
-143.89
-156.33
-147.17
-120.86
-86.48
-51.52
-20.10
6.00
26.26
40.76
49.57
53.08
52.62
50.50
48.75
47.97
47.32
45.46
40.15
31.12
18.71
3.99
-11.24
-25.58
-38.81
-51.65
-61.85
-71.12
-81.43
-94.22
-108.94
-122.15
-128.35
-122.05
-100.49
-65.51
-23.91
15.58
45.23
61.46
65.67
62.39
56.46
50.87
46.13
41.15
35.46
29.47
24.51
21.69
21.11
21.86
22.81
22.85
21.62
20.34
19.88
21.06
24.00
28.12
32.61
37.11
41.43
45.83
50.85
56.54
62.52
67.85
71.61
72.00
70.38
68.18
66.74
67.95
70.33
71.77
70.21
64.60
55.63
45.67
37.26
32.59
31.07
32.72
36.37
39.88
40.65
36.33
26.68
11.28
-7.69
-25.83
-37.73
-39.36
-30.41
-15.18
-1.01
4.64
-2.97
-23.19
-50.42
-76.56
-94.62
-101.57
-98.60
-89.24
-77.34
-65.90
-56.23
-48.72
-44.02
-43.82
-51.09
-68.03
-92.49
-118.78
-138.88
-144.98
-132.40
-101.40
-56.99
-6.44
39.24
71.01
86.86
91.94
93.75
96.96
101.55
107.45
109.79
105.23
94.09
79.41
65.13
54.18
47.64
42.98
38.40
31.94
23.01
13.01
4.52
-0.14
-0.30
2.63
5.75
6.20
1.72
-7.56
-18.98
-28.61
-33.22
-31.82
-25.96
-18.68
-12.72
-9.81
-9.72
-10.71
-10.79
-8.75
-4.52
1.25
7.65
13.99
19.37
23.04
24.46
23.68
21.31
18.34
15.60
13.40
11.47
9.09
5.74
1.49
-3.06
-7.17
-10.46
-13.14
-15.77
-18.93
-22.70
-26.39
-28.70
-28.14
-23.81
-15.76
-5.09
6.48
17.25
26.00
32.19
35.76
36.76
35.22
31.21
25.05
17.46
9.41
1.81
-4.73
-10.02
-14.10
-16.88
-18.14
-17.69
-15.67
-12.79
-10.11
-8.62
-8.82
-10.42
-12.58
-14.50
-15.89
-17.08
-18.62
-20.76
-23.14
-24.93
-25.28
-23.83
-20.89
-17.19
-13.42
-9.84
-6.30
-2.43
2.03
7.00
12.16
17.03
21.04
23.68
24.57
23.72
21.84
20.14
19.83
21.48
24.66
28.10
30.35
30.44
28.38
25.06
21.71
19.35
18.51
19.33
21.72
25.55
30.34
35.18
38.71
39.46
36.48
29.93
21.32
13.06
7.62
6.17
8.55
13.45
19.05
23.78
26.78
28.00
27.78
26.07
21.46
12.16
-2.70
-22.37
-44.27
-64.89
-81.15
-91.60
-96.96
-100.38
-104.68
-110.21
-114.86
-115.39
-109.57
-97.62
-82.28
-67.46
-57.64
-54.80
-57.31
-61.70
-64.82
-65.41
-64.27
-63.13
-55.44
-37.77
-12.37
13.77
33.50
43.92
46.35
44.16
40.96
39.03
37.18
30.68
18.73
2.77
-13.22
-23.55
-22.89
-8.50
18.41
52.11
85.59
114.08
135.88
150.21
157.65
158.46
151.56
134.79
106.11
66.42
20.77
-23.59
-60.02
-84.65
-97.30
-100.25
-96.32
-87.72
-75.38
-59.56
-41.17
-21.95
-3.61
12.91
27.89
42.15
55.49
65.80
69.49
62.96
44.66
16.49
-16.47
-47.50
-70.17
-80.07
-75.66
-58.47
-32.73
-4.06
22.23
43.09
58.85
73.21
91.31
116.86
149.35
183.24
209.63
219.72
208.33
175.85
127.81
72.79
19.65
-24.69
-56.25
-74.05
-79.54
-75.82
-66.75
-56.14
-47.01
-41.18
-39.10
-40.07
-42.70
-45.42
-47.09
-47.16
-45.71
-43.10
-39.60
-35.30
-30.33
-25.12
-20.49
-17.31
-16.07
-16.46
-17.28
-17.18
-15.18
-11.28
-6.38
-1.85
0.83
0.01
-6.58
-21.67
-47.40
-83.46
-125.50
-165.16
-192.10
-197.26
-175.93
-128.96
-61.84
17.53
100.87
180.50
249.56
302.09
333.92
343.98
335.10
313.38
286.02
258.56
232.94
207.49
178.28
141.04
93.26
35.56
-27.61
-87.97
-134.57
-156.61
-147.38
-107.79
-47.41
17.95
71.72
102.41
106.91
89.99
60.02
23.89
-16.15
-61.96
-116.01
-177.33
-239.45
-291.74
-323.01
-325.74
-298.85
-247.96
-183.19
-115.91
-55.70
-8.33
24.54
44.39
54.03
55.95
51.26
40.07
22.75
1.27
-20.68
-38.60
-49.16
-51.81
-48.86
-44.62
-43.40
-47.70
-57.76
-72.21
-89.01
-106.35
-122.79
-137.32
-150.29
-163.14
-177.59
-194.85
-215.05
-236.39
-255.78
-269.10
-272.64
-265.97
-251.03
-230.30
-205.73
-179.35
-152.94
-129.36
-110.36
-95.66
-85.13
-77.73
-70.71
-60.71
-46.30
-27.06
-4.54
21.79
54.32
91.92
129.36
159.64
176.22
173.61
150.73
109.03
54.99
15.31
10.48
40.57
86.62
129.27
149.73
153.36
144.76
126.40
98.13
60.58
12.45
-42.52
-93.35
-128.31
-138.02
-121.24
-81.49
-25.42
36.45
95.10
148.16
200.40
253.01
306.05
352.58
384.38
395.74
382.81
346.59
283.05
204.66
131.92
79.85
48.53
30.89
20.79
13.31
3.85
-6.80
-15.94
-24.40
-35.57
-55.05
-86.37
-117.63
-138.29
-139.64
-116.51
-68.51
-3.14
69.06
135.76
188.17
223.61
240.86
238.78
218.74
185.40
143.70
102.26
65.83
35.73
8.75
-17.72
-48.17
-85.38
-128.53
-175.03
-213.11
-233.18
-227.82
-194.87
-140.22
-76.83
-20.01
17.88
28.50
18.48
-5.68
-38.15
-76.21
-121.08
-175.59
-239.93
-286.71
-332.98
-360.54
-360.38
-332.05
-282.39
-222.00
-160.77
-103.96
-51.77
-1.79
57.43
129.40
211.59
298.06
381.90
456.90
518.06
547.49
527.91
467.65
391.15
322.62
273.65
243.43
224.05
208.29
192.98
178.56
170.51
168.60
166.56
160.76
147.68
127.15
102.17
74.17
46.02
23.17
7.78
-2.20
-10.55
-20.52
-32.80
-45.97
-63.63
-87.00
-112.51
-135.89
-155.71
-172.82
-188.68
-203.51
-216.50
-235.88
-266.33
-305.02
-344.86
-380.73
-410.71
-434.80
-453.34
-466.72
-487.78
-525.03
-576.66
-634.14
-690.91
-745.15
-798.54
-853.11
-834.73
-710.56
-507.97
-286.59
-88.39
72.31
195.12
283.32
342.00
378.57
390.03
377.32
349.87
319.29
293.14
274.41
263.58
260.26
263.64
263.29
251.87
230.22
204.94
175.51
143.37
111.39
82.76
59.80
37.48
11.62
-17.70
-47.28
-72.87
-93.16
-107.41
-115.76
-118.87
-120.47
-123.26
-127.16
-129.86
-128.18
-123.87
-117.20
-108.63
-98.71
-89.04
-80.79
-74.22
-68.97
-64.71
-61.12
-57.20
-52.28
-45.84
-37.51
-27.20
-15.19
-2.17
10.94
23.34
35.15
46.67
58.45
71.04
84.78
99.55
114.79
129.83
144.16
158.08
172.16
187.11
203.47
221.61
241.93
264.81
290.34
317.57
344.16
366.20
379.36
380.51
369.16
347.79
320.74
292.42
265.64
241.18
218.41
196.68
176.26
158.32
143.79
132.22
121.39
108.16
90.30
67.96
43.90
22.30
6.58
-2.32
-6.10
-7.86
-10.08
-13.26
-16.04
-16.51
-13.90
-9.36
-5.41
-4.46
-7.44
-13.39
-19.98
-24.84
-26.67
-25.66
-23.02
-20.08
-17.24
-13.73
-8.17
0.52
12.42
26.56
41.47
55.58
67.09
73.51
71.56
58.27
32.51
-3.60
-44.80
-84.46
-116.87
-138.99
-150.59
-153.16
-148.85
-140.03
-129.60
-120.61
-115.26
-113.37
-111.83
-105.87
-91.90
-70.01
-44.30
-20.99
-5.15
1.62
1.28
-2.41
-6.07
-8.11
-8.51
-7.91
-6.65
-4.68
-1.97
1.08
3.64
4.89
4.46
2.65
0.34
-1.50
-2.19
-1.56
-0.02
1.67
2.62
2.26
0.59
-1.76
-3.88
-4.85
-4.25
-2.31
0.24
2.51
3.91
4.40
4.53
5.14
6.90
9.89
13.42
16.31
17.35
15.94
12.37
7.72
3.38
0.37
-1.05
-1.36
-1.34
-1.62
-2.31
-3.07
-3.39
-2.99
-2.08
-1.31
-1.53
-3.40
-7.15
-12.35
-18.10
-23.31
-27.13
-29.29
-30.17
-30.62
-31.53
-33.37
-35.97
-38.55
-40.03
-39.43
-36.14
-30.13
-21.98
-12.95
-5.07
-0.92
-2.84
-11.80
-26.28
-42.06
-53.11
-53.60
-40.27
-13.98
20.49
56.00
85.75
105.46
114.36
115.00
111.96
110.29
114.09
125.49
144.20
167.72
192.03
212.75
226.27
230.36
224.40
209.09
186.01
157.06
124.00
88.12
49.65
7.82
-38.60
-89.91
-143.74
-194.21
-232.54
-249.46
-238.60
-199.53
-138.75
-68.34
-2.46
46.73
72.02
71.80
48.67
6.88
-49.22
-115.14
-184.93
-250.02
-299.64
-323.26
-314.24
-272.69
-206.05
-127.08
-50.09
12.72
53.32
68.11
56.82
21.89
-31.67
-95.79
-159.61
-211.06
-239.83
-239.91
-210.97
-157.81
-88.43
-11.95
62.99
128.76
179.05
209.64
220.12
215.08
203.28
194.78
196.43
208.68
225.21
235.80
230.39
202.94
153.18
86.09
10.15
-64.26
-126.09
-164.82
-172.55
-147.17
-93.43
-22.40
51.22
113.14
153.36
168.54
161.62
139.45
108.41
73.77
39.51
8.36
-18.91
-43.56
-68.14
-94.92
-124.88
-158.85
-194.58
-226.25
-246.44
-249.88
-235.92
-208.44
-173.64
-138.03
-109.76
-94.39
-93.13
-103.37
-121.57
-145.07
-172.31
-201.41
-211.71
-189.78
-138.48
-75.29
-17.30
27.63
59.51
81.58
98.29
112.74
123.17
126.62
121.98
111.14
97.44
83.99
71.62
61.94
54.96
47.25
35.17
17.06
-6.36
-33.59
-59.52
-82.88
-100.70
-108.57
-103.30
-84.09
-53.37
-16.86
17.80
43.89
57.97
61.86
60.13
56.83
53.82
51.08
47.59
42.72
37.08
32.03
29.84
30.97
34.42
38.07
40.09
39.11
34.81
27.40
19.14
13.41
11.53
13.71
18.69
25.28
31.74
36.47
38.83
38.85
37.37
35.38
34.31
35.57
41.28
52.02
66.09
80.31
91.00
95.90
94.85
90.39
79.45
67.08
59.35
58.22
64.00
71.29
75.71
75.16
69.90
61.66
50.31
37.25
23.03
5.34
-17.55
-46.28
-79.06
-110.55
-133.59
-142.06
-135.03
-117.81
-98.62
-84.52
-78.01
-76.85
-76.64
-74.22
-68.99
-63.12
-61.11
-64.37
-71.69
-79.29
-82.50
-77.69
-63.59
-41.15
-13.48
14.57
37.67
51.37
53.78
46.08
31.96
16.20
3.66
-2.78
-1.96
4.60
13.24
20.04
22.40
19.61
12.70
4.44
-1.84
-3.47
1.10
12.29
29.90
53.05
79.82
103.37
116.00
114.20
101.13
83.49
66.45
51.77
38.64
25.77
12.97
2.26
-2.80
-1.62
3.64
9.03
10.49
5.87
-4.27
-17.20
-28.84
-35.73
-36.79
-33.41
-28.19
-24.01
-22.83
-25.29
-31.00
-38.96
-47.22
-53.84
-56.63
-52.32
-39.10
-18.11
5.89
25.35
32.81
24.35
2.60
-27.17
-56.89
-79.52
-91.30
-92.50
-86.21
-75.98
-63.83
-47.19
-28.23
-6.82
16.22
37.83
54.67
64.76
68.35
67.62
65.10
61.40
56.23
47.95
35.51
19.94
4.16
-8.32
-15.17
-16.27
-14.37
-12.62
-14.16
-20.06
-28.25
-34.76
-36.31
-31.98
-23.01
-12.36
-2.31
5.39
9.85
11.27
10.60
9.29
7.70
7.30
9.23
14.16
21.56
29.95
37.45
42.71
45.71
47.81
51.14
56.85
64.74
73.23
80.03
83.09
81.37
74.95
64.55
50.99
34.46
15.43
-4.76
-23.54
-37.69
-44.28
-41.84
-30.98
-13.22
6.44
21.82
29.58
31.07
29.64
27.48
24.26
17.77
5.83
-12.38
-35.74
-61.13
-84.23
-101.39
-110.60
-111.66
-106.04
-96.15
-85.03
-72.52
-59.85
-48.03
-37.78
-29.54
-23.39
-19.16
-16.28
-12.32
-5.71
3.56
14.01
22.92
27.49
26.09
19.15
9.46
1.10
-2.23
1.26
11.16
25.15
39.69
52.34
61.43
66.46
67.85
66.41
62.78
57.51
50.97
43.33
34.69
24.79
13.05
-1.49
-19.50
-40.66
-63.10
-83.73
-99.28
-107.61
-108.63
-104.06
-96.29
-87.23
-77.70
-67.62
-56.89
-46.00
-35.77
-26.76
-18.80
-11.36
-4.44
0.87
2.79
0.03
-7.02
-15.88
-22.67
-23.91
-18.22
-7.01
6.49
19.02
28.48
34.09
36.13
35.74
34.24
32.71
31.59
30.72
29.63
27.44
22.78
14.67
4.06
-6.17
-12.37
-12.15
-5.78
4.08
13.51
18.37
16.75
11.08
7.15
11.53
28.26
57.53
96.62
141.27
185.69
216.10
218.86
188.40
132.49
67.62
10.18
-28.64
-43.47
-38.74
-21.45
1.41
24.33
43.61
56.98
60.14
48.58
24.07
-8.10
-42.11
-74.64
-104.14
-129.69
-150.22
-164.49
-173.29
-175.14
-170.03
-159.93
-148.73
-139.32
-133.26
-130.76
-131.53
-132.77
-130.60
-121.84
-104.85
-80.93
-52.00
-20.61
10.53
38.52
57.92
65.16
60.46
54.14
50.68
52.50
58.06
66.89
78.10
90.53
103.80
117.32
129.85
138.80
142.82
142.05
138.03
132.52
126.98
123.06
121.38
121.35
120.98
119.29
116.52
113.58
110.80
107.58
103.58
98.19
90.78
80.52
67.60
53.25
39.06
26.12
11.81
-4.11
-20.30
-34.60
-45.44
-53.96
-61.13
-67.35
-71.61
-73.22
-71.55
-66.99
-60.68
-54.10
-48.27
-43.56
-40.47
-39.69
-42.02
-47.30
-54.73
-63.26
-72.48
-83.28
-97.86
-118.89
-147.19
-179.81
-209.49
-227.38
-226.97
-207.21
-172.57
-130.59
-88.72
-51.43
-19.98
5.99
26.13
39.59
44.39
41.48
35.45
31.49
32.12
36.22
40.82
43.81
45.50
47.94
52.96
60.28
67.25
70.99
70.45
66.95
63.07
60.76
59.97
59.03
56.33
50.60
42.63
34.86
29.92
29.42
32.94
38.13
41.33
39.79
32.16
19.15
3.13
-12.86
-26.03
-34.40
-37.17
-34.75
-28.91
-22.64
-19.31
-21.26
-29.00
-40.65
-52.61
-61.11
-63.66
-59.72
-50.48
-38.32
-24.70
-11.42
-0.48
6.17
7.31
3.10
-4.70
-12.87
-17.71
-16.17
-7.16
7.67
24.43
38.47
46.16
46.35
40.87
33.37
27.69
26.01
27.87
30.97
32.63
31.43
27.59
23.03
19.86
18.64
19.63
21.33
21.40
18.26
12.67
7.24
5.99
10.90
21.53
35.18
47.55
54.45
53.02
42.57
22.59
-3.42
-29.91
-50.90
-61.97
-61.90
-52.82
-40.55
-28.31
-18.03
-9.79
-2.96
3.13
8.64
12.87
15.01
14.74
12.69
9.69
7.01
5.18
4.12
3.34
2.22
0.39
-1.98
-4.09
-5.33
-5.34
-4.34
-2.96
-2.06
-2.46
-4.66
-8.95
-15.22
-23.19
-31.89
-39.63
-44.24
-43.86
-37.89
-27.34
-14.49
-1.82
8.86
16.86
22.17
24.72
24.00
19.37
10.84
-0.41
-12.20
-22.22
-28.88
-31.73
-31.19
-27.91
-22.53
-15.87
-9.38
-5.18
-5.27
-10.49
-19.61
-29.45
-35.99
-36.04
-29.07
-17.94
-8.19
-5.43
-12.17
-26.00
-40.33
-47.40
-42.05
-24.38
0.44
24.82
42.98
53.29
57.59
57.84
53.79
43.20
24.39
-0.75
-26.33
-43.97
-46.78
-33.12
-8.30
18.20
37.66
45.60
42.50
31.15
14.82
-3.87
-23.02
-41.25
-56.29
-63.99
-59.57
-37.80
-0.32
41.95
73.78
87.06
82.23
64.74
42.61
22.14
8.08
0.64
-2.95
-5.16
-5.85
-3.09
5.01
18.22
33.01
43.83
45.45
36.59
21.22
6.20
-2.92
-4.56
-1.01
3.59
5.84
4.33
0.26
-3.37
-3.83
-0.92
2.94
4.07
-0.28
-10.32
-23.79
-36.90
-46.19
-50.36
-50.82
-50.67
-52.60
-57.39
-63.66
-68.91
-70.99
-69.15
-64.25
-58.02
-52.15
-47.35
-43.36
-39.77
-36.80
-35.69
-38.07
-44.87
-54.70
-64.20
-68.41
-62.44
-43.38
-11.65
28.80
71.42
108.90
134.97
145.53
139.12
116.79
81.80
39.45
-3.42
-39.46
-62.89
-71.66
-68.66
-60.85
-56.12
-59.33
-69.45
-79.47
-79.64
-62.45
-26.93
20.14
66.79
101.02
115.69
111.04
93.43
71.65
52.78
39.89
32.19
27.15
22.89
19.27
17.44
18.38
21.51
24.69
25.21
21.34
13.31
3.32
-5.40
-10.06
-9.33
-3.93
3.79
10.89
15.03
15.34
12.64
8.91
6.32
6.27
8.88
13.09
17.28
20.01
20.61
19.40
17.40
15.79
15.36
16.22
17.78
19.12
19.46
18.60
16.98
15.52
15.06
15.93
17.64
19.05
18.81
16.13
11.16
5.09
-0.41
-3.98
-5.42
-5.94
-7.62
-12.36
-20.77
-31.62
-42.20
-49.52
-51.68
-48.94
-43.68
-39.27
-38.46
-42.20
-49.29
-57.03
-62.27
-62.24
-55.21
-40.63
-19.31
6.48
32.88
54.94
68.02
69.71
61.59
48.93
38.92
37.88
48.64
69.48
94.94
118.39
134.89
143.23
145.05
142.89
138.35
131.34
120.48
104.51
83.75
60.77
40.14
25.71
18.45
16.29
15.55
12.93
7.23
0.09
-4.56
-1.54
11.79
33.53
57.63
76.32
83.12
75.03
53.35
17.89
-25.20
-65.76
-95.26
-111.63
-118.44
-120.32
-119.73
-116.81
-110.66
-100.34
-86.89
-73.14
-62.07
-55.07
-51.46
-49.24
-46.46
-41.79
-34.53
-25.42
-16.25
-8.87
-4.01
-1.12
1.09
3.64
7.29
12.31
18.17
23.66
27.62
29.44
29.33
27.82
24.95
21.30
17.17
12.49
7.00
0.47
-7.00
-14.99
-21.75
-27.41
-31.79
-34.80
-36.53
-37.19
-37.09
-36.45
-35.42
-34.13
-32.84
-31.50
-30.19
-28.94
-27.79
-26.74
-25.80
-24.97
-24.23
-23.71
-23.30
-23.00
-22.79
-22.67
-22.67
-22.79
-23.01
-23.36
-23.91
-24.55
-25.28
-26.00
-26.69
-27.25
-27.55
-27.48
-26.83
-25.84
-24.05
-21.64
-18.31
-14.03
-8.93
-3.21
2.88
9.06
14.99
20.43
25.13
28.96
31.78
33.58
34.44
34.49
33.94
32.99
31.91
30.85
30.03
29.50
29.30
29.42
29.83
30.52
31.39
32.38
33.44
34.50
35.34
35.88
36.10
36.06
35.86
35.63
35.58
35.79
36.35
37.08
37.89
38.79
39.84
41.18
43.02
45.47
48.66
52.68
57.17
61.95
66.97
72.36
78.38
85.18
92.83
101.16
109.83
117.90
124.68
129.77
133.17
135.01
135.20
133.13
127.12
118.67
107.34
92.71
74.94
54.78
33.43
12.02
-8.90
-29.62
-51.21
-75.52
-103.79
-136.18
-171.71
-208.77
-245.71
-281.58
-316.42
-350.93
-386.58
-424.77
-466.78
-513.41
-564.12
-616.03
-663.31
-697.93
-711.71
-699.51
-660.92
-600.64
-526.71
-447.63
-370.04
-297.78
-232.35
-174.16
-123.54
-80.50
-44.31
-13.25
14.85
41.60
67.35
91.01
110.91
125.82
136.12
144.19
153.90
169.68
195.02
230.65
273.15
314.99
346.39
358.79
348.21
317.01
272.92
225.66
183.14
149.20
123.97
106.11
95.16
92.37
99.70
117.54
143.64
173.62
202.97
229.00
251.24
270.33
286.73
300.02
309.38
314.55
315.99
314.12
308.05
294.55
269.00
227.72
171.03
105.01
40.18
-12.39
-45.75
-60.27
-62.82
-62.83
-67.14
-76.74
-86.65
-88.80
-76.80
-49.50
-11.80
27.66
60.21
80.00
85.08
76.83
58.69
35.17
11.47
-7.30
-17.04
-15.82
-4.51
13.43
33.01
48.78
55.95
51.47
35.02
10.30
-14.72
-29.75
-25.80
-0.08
41.10
83.63
111.29
112.95
87.89
46.18
4.16
-22.83
-26.84
-9.67
19.01
46.46
61.53
58.14
36.32
0.72
-42.28
-87.57
-133.10
-179.13
-225.76
-270.23
-306.30
-326.39
-325.51
-304.46
-270.00
-231.70
-197.08
-167.99
-140.38
-107.55
-65.21
-14.62
37.37
81.69
111.62
126.20
131.09
136.03
150.53
179.24
219.19
260.73
291.45
301.43
287.65
254.08
208.79
159.22
108.98
58.34
7.73
-38.73
-72.54
-83.99
-67.73
-26.61
28.81
84.81
130.29
160.44
176.44
182.17
180.46
171.51
153.57
125.31
87.40
42.52
-5.72
-54.49
-102.44
-149.10
-193.54
-232.88
-262.16
-275.61
-268.96
-242.08
-200.34
-153.58
-112.84
-85.94
-74.19
-71.90
-68.98
-55.29
-24.55
23.74
84.74
150.21
210.91
258.49
286.99
293.74
279.03
245.44
196.51
135.71
67.04
-3.85
-68.06
-114.10
-131.29
-114.83
-69.52
-9.83
44.93
77.88
80.69
55.18
9.89
-45.31
-103.33
-160.11
-211.86
-252.26
-272.73
-266.87
-235.27
-187.31
-138.21
-101.95
-84.34
-80.83
-79.78
-69.59
-45.81
-13.43
15.77
29.44
20.62
-9.75
-54.18
-102.44
-145.22
-176.33
-192.32
-191.58
-173.87
-140.27
-93.47
-37.61
22.29
81.02
133.37
174.38
199.56
206.29
195.71
173.00
145.85
121.08
100.80
80.81
52.86
9.37
-51.25
-122.26
-190.56
-242.14
-267.68
-265.46
-240.91
-202.84
-158.94
-113.15
-65.67
-15.58
36.12
85.32
126.03
153.42
166.61
169.24
167.29
165.54
164.49
159.81
144.54
112.87
62.41
-4.87
-83.28
-164.62
-239.67
-299.95
-339.49
-355.95
-350.18
-327.13
-294.42
-259.82
-228.50
-201.85
-178.63
-157.46
-137.54
-116.77
-94.24
-69.99
-44.15
-16.18
15.53
52.39
94.07
139.96
193.08
254.48
320.71
383.12
430.68
454.96
453.78
431.82
401.22
381.21
385.29
415.40
462.09
510.94
550.48
575.63
585.87
548.48
447.02
287.38
97.45
-89.89
-252.20
-379.92
-465.86
-520.56
-552.97
-564.78
-557.74
-535.60
-503.83
-469.81
-437.19
-406.73
-379.15
-353.62
-325.84
-293.59
-257.75
-221.89
-189.87
-163.39
-142.20
-126.04
-113.33
-100.37
-84.99
-67.29
-49.30
-33.63
-21.64
-13.66
-9.94
-9.78
-11.43
-13.82
-16.90
-21.53
-28.68
-38.60
-50.87
-64.95
-79.65
-93.42
-105.09
-114.15
-120.65
-124.96
-127.31
-127.84
-126.66
-123.77
-119.35
-113.74
-107.37
-100.73
-94.26
-88.23
-82.75
-77.82
-73.38
-69.39
-65.85
-62.78
-60.13
-57.69
-55.05
-51.23
-45.39
-37.10
-26.61
-14.77
-2.62
8.94
19.44
28.99
38.54
49.16
61.45
75.12
88.94
101.39
111.27
118.37
123.71
130.13
140.50
156.26
176.53
198.46
218.60
234.37
245.30
253.18
263.79
282.05
309.40
342.65
375.87
404.04
425.77
443.22
459.71
482.13
513.06
549.52
584.54
611.43
627.04
631.26
623.90
602.94
574.36
545.31
523.54
515.25
524.07
550.49
591.01
638.02
683.00
732.02
795.14
880.44
987.32
1105.01
1216.65
1305.12
1358.78
1305.80
1112.57
795.03
418.62
61.70
-227.58
-444.82
-612.78
-757.13
-890.97
-1001.34
-1069.44
-1085.28
-1056.12
-1002.32
-945.85
-900.59
-869.42
-847.31
-818.51
-771.66
-705.77
-630.70
-560.66
-506.14
-469.72
-447.28
-431.82
-412.67
-382.64
-341.69
-296.13
-254.46
-222.66
-201.84
-189.05
-179.96
-168.56
-151.31
-128.42
-102.42
-76.02
-50.37
-24.97
0.86
26.57
51.18
73.20
91.02
104.26
113.79
121.09
127.36
132.84
136.74
137.59
137.40
136.85
136.50
136.54
136.67
136.36
135.21
133.12
130.50
128.07
125.96
124.10
122.10
119.24
114.85
108.57
100.45
91.09
81.41
71.94
63.13
55.14
47.94
41.34
35.27
29.78
25.12
21.65
19.35
18.20
18.02
18.49
19.29
20.13
20.87
21.47
21.95
22.28
22.43
22.37
22.09
21.58
20.93
20.22
19.61
19.22
19.16
19.46
20.15
21.18
22.53
24.11
25.84
27.63
29.42
31.17
32.85
34.45
35.99
37.47
38.91
40.28
41.55
42.67
43.52
43.07
40.60
36.20
30.54
24.31
17.84
11.11
4.02
-3.49
-12.31
-22.82
-34.61
-46.61
-57.72
-67.37
-75.41
-81.98
-87.34
-94.08
-103.84
-116.43
-130.02
-142.71
-153.55
-162.37
-169.39
-174.87
-185.22
-204.18
-230.44
-258.45
-282.82
-301.07
-313.21
-320.50
-324.45
-339.08
-372.69
-423.09
-479.12
-529.67
-569.26
-597.48
-616.37
-628.47
-656.18
-712.52
-794.08
-882.93
-961.24
-1020.33
-1059.85
-1083.74
-1097.11
-1131.07
-1204.28
-1314.34
-1439.45
-1557.41
-1657.44
-1739.25
-1807.66
-1702.14
-1355.05
-823.91
-255.15
231.52
592.96
839.47
1000.21
1103.77
1171.91
1183.27
1136.53
1043.37
930.29
822.45
734.01
670.06
631.52
617.43
604.46
584.23
555.19
526.78
507.91
500.55
501.99
508.86
518.78
517.47
497.27
458.55
411.53
366.92
330.02
300.89
277.03
255.66
228.81
193.15
149.77
105.00
64.91
32.12
6.19
-14.50
-31.00
-45.29
-56.75
-63.75
-63.53
-54.78
-38.55
-17.24
7.01
33.60
63.82
100.49
145.94
201.77
268.20
343.26
422.18
497.33
559.50
600.33
615.61
607.71
585.71
562.25
548.20
547.91
557.47
567.10
566.21
548.55
514.48
469.54
420.53
371.71
323.43
273.29
219.14
161.43
103.87
51.82
9.53
-22.22
-46.66
-69.78
-98.25
-137.13
-187.74
-246.51
-305.18
-352.33
-376.22
-368.54
-327.65
-259.93
-178.75
-100.75
-40.87
-7.75
-1.35
-13.81
-33.41
-49.25
-55.72
-53.84
-49.73
-50.63
-60.95
-80.58
-105.62
-130.71
-151.05
-163.30
-165.52
-157.25
-139.97
-117.53
-95.97
-81.49
-77.84
-84.22
-95.19
-103.35
-103.09
-93.70
-79.70
-68.09
-64.15
-68.23
-75.58
-79.27
-74.60
-62.55
-50.14
-46.35
-56.57
-78.07
-100.04
-108.10
-91.25
-47.17
16.64
86.95
150.55
198.99
230.40
247.38
253.41
250.06
236.25
210.65
174.42
132.50
92.55
61.77
43.49
35.52
31.35
23.68
7.79
-16.78
-46.69
-77.04
-103.72
-124.53
-138.99
-146.96
-147.92
-141.48
-128.82
-113.79
-102.43
-100.49
-110.95
-131.81
-156.93
-179.38
-195.07
-204.87
-213.38
-224.98
-240.24
-254.62
-260.56
-251.62
-226.15
-187.49
-141.32
-92.20
-41.58
11.69
68.82
128.65
186.72
236.13
269.92
283.23
274.37
245.16
200.09
145.10
86.46
29.71
-21.09
-63.56
-96.88
-120.85
-134.81
-137.43
-127.33
-104.91
-73.84
-40.99
-14.40
-0.42
-1.42
-15.19
-37.06
-62.79
-90.63
-120.88
-153.97
-188.42
-220.84
-247.39
-265.86
-276.69
-281.73
-282.18
-277.25
-264.49
-241.64
-208.84
-169.36
-128.22
-90.12
-57.49
-30.27
-6.90
14.15
33.41
50.53
65.04
77.24
88.28
99.80
113.32
130.24
152.39
182.21
221.72
271.23
328.34
387.37
440.04
477.20
491.56
479.60
442.60
385.05
314.38
240.61
175.41
129.74
110.64
118.69
147.24
183.79
211.91
217.42
194.01
145.79
84.47
23.83
-25.55
-58.97
-77.62
-88.91
-102.38
-125.60
-161.93
-211.13
-271.11
-338.10
-406.04
-453.15
-458.68
-416.99
-343.47
-263.19
-194.93
-146.12
-115.22
-96.59
-84.63
-78.01
-78.17
-85.66
-97.76
-108.80
-114.11
-111.78
-102.40
-88.99
-74.67
-62.21
-52.05
-41.83
-27.07
-4.98
24.48
59.12
95.74
130.62
160.67
185.03
197.98
200.58
196.23
188.12
178.33
167.72
156.49
144.19
130.62
116.28
102.65
90.91
81.12
72.57
64.11
55.50
46.40
36.50
28.56
21.48
14.55
6.97
-2.01
-13.12
-25.11
-36.83
-47.44
-56.46
-63.77
-69.21
-72.96
-75.41
-77.11
-76.41
-71.96
-63.04
-49.23
-30.55
-6.61
23.53
61.97
97.33
122.91
134.94
133.58
122.57
106.31
88.21
69.96
52.01
33.96
17.25
2.97
-8.83
-18.25
-25.80
-32.34
-38.77
-45.93
-54.67
-64.09
-70.72
-76.14
-81.39
-86.82
-92.92
-100.04
-108.38
-118.02
-127.87
-137.07
-145.56
-153.26
-159.67
-164.92
-169.34
-173.23
-176.75
-179.31
-179.94
-177.29
-175.29
-174.73
-175.88
-178.53
-182.15
-185.99
-189.13
-190.74
-190.53
-188.28
-183.26
-175.44
-165.21
-153.23
-140.34
-127.51
-115.66
-105.71
-98.24
-92.86
-89.20
-86.71
-84.76
-82.66
-79.79
-75.65
-70.02
-62.91
-54.16
-44.04
-33.13
-22.19
-12.09
-3.66
2.48
6.04
7.03
6.11
4.12
1.93
0.36
-0.04
0.98
3.49
7.42
12.74
19.55
27.96
38.01
49.50
61.98
74.77
87.25
99.07
110.35
121.60
133.60
147.04
162.20
178.83
196.34
213.97
231.16
247.75
263.95
280.24
297.25
315.74
336.37
359.28
383.60
407.15
426.54
437.97
438.45
426.85
404.39
374.25
340.45
306.60
274.94
246.23
220.13
196.09
173.94
153.97
136.58
121.65
108.25
94.92
80.34
64.19
47.48
32.03
19.31
9.57
1.67
-6.04
-14.50
-23.11
-30.04
-33.39
-32.53
-28.61
-23.94
-20.74
-19.97
-21.10
-22.68
-23.34
-22.45
-20.12
-16.76
-12.64
-7.82
-2.39
3.26
8.46
12.45
14.65
14.82
12.94
8.98
2.91
-5.27
-15.39
-26.91
-39.06
-51.06
-62.32
-72.63
-81.92
-90.06
-96.62
-100.97
-102.51
-100.97
-96.59
-89.97
-81.85
-72.87
-63.45
-53.89
-44.51
-35.64
-27.57
-20.46
-14.34
-9.19
-5.11
-2.13
-0.08
1.56
3.70
7.22
12.71
20.11
28.68
37.18
44.20
48.52
49.52
47.33
42.93
37.66
32.57
27.89
22.91
16.48
7.89
-2.54
-13.43
-23.14
-30.57
-35.68
-39.20
-41.93
-44.09
-45.23
-44.64
-41.97
-37.63
-32.46
-27.33
-22.69
-18.55
-14.80
-11.54
-9.10
-7.76
-7.52
-7.98
-8.58
-9.01
-9.47
-10.55
-12.82
-16.48
-21.13
-25.94
-30.04
-32.89
-34.41
-34.88
-34.64
-33.87
-32.51
-30.47
-27.80
-24.79
-21.92
-19.47
-17.34
-15.01
-11.81
-7.35
-1.83
4.01
9.25
13.24
15.93
17.75
19.31
20.93
22.52
23.60
23.69
22.54
20.24
17.22
13.91
10.55
6.93
2.47
-3.53
-11.43
-20.81
-30.37
-38.21
-42.61
-42.70
-38.82
-32.37
-25.08
-18.26
-12.43
-7.45
-2.97
1.05
4.17
5.69
5.11
2.47
-1.50
-5.66
-8.87
-10.41
-10.24
-8.98
-7.51
-6.56
-6.35
-6.51
-6.36
-5.37
-3.49
-1.15
1.10
2.96
4.62
6.54
9.08
12.09
14.92
16.85
17.50
17.11
16.32
15.66
15.20
14.51
13.02
10.41
6.94
3.27
0.12
-2.14
-3.57
-4.54
-5.49
-6.69
-8.23
-10.03
-11.93
-13.66
-14.90
-15.39
-15.07
-14.22
-13.35
-12.94
-13.09
-13.42
-13.22
-11.90
-9.33
-6.02
-2.89
-0.87
-0.50
-1.72
-3.93
-6.21
-7.65
-7.61
-5.98
-3.29
-0.57
1.04
0.81
-1.24
-4.37
-7.57
-10.04
-11.52
-12.31
-12.86
-13.48
-14.19
-14.86
-15.47
-16.10
-16.79
-17.30
-17.14
-15.70
-12.71
-8.44
-3.68
0.62
3.74
5.49
6.14
6.09
5.58
4.53
2.70
0.01
-3.24
-6.43
-8.88
-10.20
-10.45
-10.03
-9.43
-8.91
-8.43
-7.78
-6.73
-5.21
-3.32
-1.25
0.76
2.51
3.80
4.51
4.56
3.94
2.74
1.05
-0.99
-3.19
-5.35
-7.21
-8.55
-9.24
-9.34
-9.09
-8.78
-8.67
-8.78
-8.97
-8.95
-8.47
-7.45
-6.04
-4.59
-3.48
-2.85
-2.57
-2.25
-1.56
-0.38
1.05
2.21
2.63
2.05
0.71
-0.82
-1.84
-1.85
-0.81
0.82
2.36
3.19
3.08
2.22
1.07
0.05
-0.66
-1.19
-1.87
-2.95
-4.52
-6.44
-8.48
-10.40
-12.08
-13.48
-14.57
-15.27
-15.46
-14.92
-13.46
-10.98
-7.64
-3.84
-0.17
2.82
4.93
6.36
7.58
9.07
10.98
13.01
14.60
15.12
14.30
12.34
9.80
7.28
5.10
3.11
0.73
-2.58
-7.01
-12.06
-16.68
-19.71
-20.49
-19.12
-16.50
-13.80
-11.99
-11.44
-11.93
-12.95
-14.01
-14.86
-15.44
-15.85
-16.09
-16.09
-15.73
-14.93
-13.76
-12.45
-11.34
-10.62
-10.30
-10.03
-9.29
-7.61
-4.90
-1.53
1.70
3.96
4.66
3.70
1.41
-1.60
-4.63
-7.05
-8.46
-8.79
-8.37
-7.78
-7.56
-7.92
-8.55
-8.80
-8.06
-6.18
-3.55
-0.88
1.18
2.35
2.75
2.63
2.14
1.34
0.43
-0.01
0.88
3.79
8.76
14.90
20.67
24.63
26.03
24.99
22.14
17.99
12.66
5.99
-1.89
-10.15
-17.18
-21.18
-20.94
-16.37
-8.54
0.83
9.94
17.34
21.93
22.98
20.14
13.62
4.56
-5.11
-13.06
-17.41
-17.42
-13.74
-8.11
-2.53
1.47
3.34
3.43
2.54
1.56
1.01
1.03
1.41
1.75
1.61
0.68
-1.20
-3.93
-7.24
-10.76
-14.17
-17.21
-19.69
-21.48
-22.38
-22.16
-20.61
-17.66
-13.46
-8.40
-3.10
1.87
6.13
9.57
12.33
14.70
16.93
19.05
20.92
22.13
22.26
21.02
18.40
14.75
10.70
7.00
4.27
2.88
2.84
3.89
5.60
7.47
9.04
10.04
10.45
10.44
10.26
10.06
9.75
9.03
7.58
5.26
2.16
-1.46
-5.44
-9.70
-14.15
-18.47
-22.00
-23.93
-23.70
-21.35
-17.63
-13.66
-10.45
-8.44
-7.56
-7.32
-7.33
-7.37
-7.39
-7.28
-6.71
-5.27
-2.76
0.59
4.14
7.19
9.30
10.46
10.99
11.26
11.39
11.20
10.33
8.52
5.76
2.39
-1.01
-3.69
-5.00
-4.50
-2.22
1.39
5.46
9.01
11.21
11.62
10.21
7.24
3.12
-1.69
-6.75
-11.48
-15.26
-17.46
-17.64
-15.71
-12.07
-7.52
-2.98
0.76
3.35
4.88
5.75
6.39
7.08
7.75
8.08
7.71
6.40
4.25
1.59
-1.18
-3.67
-5.65
-7.05
-7.82
-7.92
-7.34
-6.17
-4.67
-3.32
-2.60
-2.86
-4.06
-5.74
-7.21
-7.80
-7.13
-5.21
-2.39
0.83
3.98
6.66
8.53
9.32
8.77
6.74
3.40
-0.74
-4.87
-8.09
-9.64
-9.15
-6.63
-2.47
2.64
7.83
12.12
14.68
15.00
13.06
9.35
4.68
-0.10
-4.31
-7.55
-9.56
-10.17
-9.29
-7.06
-3.97
-0.78
1.72
3.05
3.26
2.86
2.56
2.87
3.86
5.24
6.50
7.16
6.99
6.02
4.44
2.54
0.58
-1.31
-3.09
-4.90
-6.82
-8.86
-10.77
-12.13
-12.51
-11.70
-9.84
-7.33
-4.63
-2.02
0.45
2.87
5.19
7.10
8.14
7.94
6.53
4.43
2.53
1.65
2.26
4.22
6.94
9.63
11.71
13.02
13.85
14.71
16.13
18.29
21.08
24.02
26.57
28.27
28.91
28.51
27.28
25.41
23.00
20.07
16.55
12.46
7.90
3.18
-1.24
-4.86
-7.30
-8.46
-8.55
-7.91
-6.84
-5.35
-3.23
-0.24
3.61
7.80
11.52
13.92
14.50
13.26
10.68
7.35
3.74
0.07
-3.64
-7.35
-10.98
-14.37
-17.34
-19.67
-21.13
-21.40
-20.17
-17.37
-13.33
-8.81
-4.79
-2.10
-1.07
-1.49
-2.79
-4.40
-6.14
-8.17
-10.88
-14.56
-19.16
-24.20
-28.92
-32.47
-34.18
-33.75
-31.47
-28.13
-24.76
-22.26
-20.97
-20.52
-20.13
-19.12
-17.35
-15.36
-14.04
-14.10
-15.58
-17.80
-19.74
-20.55
-19.97
-18.32
-16.29
-14.50
-13.19
-12.19
-11.11
-9.63
-7.68
-5.44
-3.19
-1.09
0.92
3.08
5.59
8.48
11.56
14.58
17.32
19.66
21.52
22.76
23.12
22.31
20.22
17.03
13.09
8.75
4.23
-0.34
-4.70
-8.35
-10.55
-10.69
-8.68
-5.17
-1.33
1.65
3.09
3.12
2.46
1.96
2.17
3.10
4.34
5.41
6.07
6.37
6.55
6.80
7.09
7.19
6.84
5.92
4.55
3.02
1.63
0.52
-0.33
-1.16
-2.22
-3.70
-5.61
-7.77
-9.86
-11.48
-12.28
-12.15
-11.27
-10.02
-8.82
-7.90
-7.23
-6.59
-5.80
-4.82
-3.84
-3.08
-2.60
-2.20
-1.52
-0.21
1.82
4.33
6.86
8.90
10.11
10.38
9.81
8.61
7.06
5.38
3.75
2.35
1.33
0.80
0.80
1.30
2.08
2.85
3.25
3.04
2.12
0.68
-0.89
-2.11
-2.60
-2.27
-1.34
-0.32
0.28
0.09
-0.96
-2.63
-4.53
-6.17
-7.18
-7.26
-6.32
-4.45
-1.92
0.82
3.31
5.14
6.02
5.90
4.88
3.24
1.35
-0.35
-1.44
-1.63
-0.98
0.18
1.29
1.88
1.75
1.07
0.26
-0.32
-0.51
-0.43
-0.35
-0.49
-0.87
-1.39
-1.89
-2.33
-2.85
-3.62
-4.70
-5.88
-6.79
-7.06
-6.60
-5.73
-5.06
-5.19
-6.30
-8.09
-9.81
-10.73
-10.41
-8.90
-6.59
-3.94
-1.25
1.36
3.83
6.05
7.85
9.01
9.50
9.37
8.83
8.07
7.22
6.34
5.48
4.70
4.03
3.50
3.14
2.95
2.98
3.26
3.75
4.40
5.07
5.60
5.89
5.87
5.54
4.94
4.14
3.22
2.26
1.22
0.03
-1.43
-3.20
-5.12
-6.91
-8.25
-8.96
-9.01
-8.49
-7.51
-6.12
-4.35
-2.31
-0.25
1.49
2.59
2.95
2.78
2.47
2.42
2.84
3.68
4.71
5.65
6.34
6.79
7.08
7.31
7.46
7.43
7.09
6.37
5.32
4.09
2.89
1.89
1.12
0.46
-0.34
-1.52
-3.13
-5.00
-6.74
-7.87
-8.10
-7.43
-6.24
-5.05
-4.28
-4.08
-4.23
-4.31
-3.99
-3.11
-1.79
-0.28
1.16
2.43
3.51
4.47
5.33
6.06
6.52
6.57
6.09
5.08
3.65
1.99
0.37
-0.93
-1.64
-1.63
-0.91
0.22
1.32
1.89
1.68
0.84
-0.16
-0.74
-0.48
0.65
2.27
3.87
4.99
5.40
5.10
4.16
2.65
0.67
-1.58
-3.76
-5.48
-6.49
-6.84
-6.81
-6.73
-6.69
-6.47
-5.66
-3.94
-1.35
1.66
4.44
6.45
7.52
7.81
7.62
7.20
6.61
5.84
4.88
3.83
2.91
2.30
2.09
2.23
2.64
3.28
4.13
5.17
6.40
7.70
8.93
9.94
10.58
10.72
10.28
9.24
7.73
5.97
4.26
2.84
1.86
1.29
0.97
0.69
0.25
-0.40
-1.25
-2.15
-2.93
-3.42
-3.60
-3.54
-3.46
-3.61
-4.13
-4.91
-5.62
-5.83
-5.28
-4.06
-2.65
-1.67
-1.58
-2.45
-3.98
-5.58
-6.83
-7.64
-8.30
-9.24
-10.81
-13.08
-15.91
-19.26
-23.31
-28.52
-35.16
-42.90
-50.54
-56.23
-58.19
-55.50
-48.68
-39.49
-30.24
-22.84
-18.21
-16.12
-15.70
-16.00
-16.42
-16.69
-16.57
-15.68
-13.44
-9.38
-3.47
3.72
11.13
17.58
22.15
24.59
25.31
25.13
24.94
25.25
26.12
27.22
28.15
28.80
29.41
30.51
32.58
35.77
39.78
43.93
47.51
50.06
51.52
52.20
52.53
52.71
52.58
51.57
48.98
44.33
37.66
29.66
21.40
13.99
8.12
3.94
1.23
-0.22
-0.38
0.92
3.74
7.68
11.83
15.08
16.54
15.97
13.78
10.76
7.59
4.62
1.79
-1.14
-4.32
-7.64
-10.84
-13.72
-16.28
-18.80
-21.65
-25.02
-28.69
-32.10
-34.52
-35.44
-34.79
-32.97
-30.63
-28.37
-26.46
-24.89
-23.53
-22.33
-21.44
-21.19
-21.92
-23.75
-26.50
-29.64
-32.53
-34.52
-35.18
-34.33
-32.08
-28.82
-25.02
-21.18
-17.71
-14.81
-12.44
-10.44
-8.54
-6.60
-4.63
-2.80
-1.29
-0.10
1.03
2.56
4.94
8.37
12.72
17.58
22.36
26.48
29.45
30.91
30.66
28.72
25.34
20.96
16.18
11.57
7.53
4.19
1.47
-0.86
-2.93
-4.68
-5.77
-5.75
-4.25
-1.28
2.67
6.73
10.04
12.08
12.88
12.93
12.87
13.11
13.68
14.24
14.32
13.62
12.10
9.95
7.53
5.18
3.20
1.75
0.91
0.66
0.89
1.36
1.72
1.55
0.57
-1.29
-3.71
-6.06
-7.64
-8.01
-7.21
-5.75
-4.39
-3.81
-4.36
-5.92
-8.00
-9.96
-11.17
-11.23
-10.06
-7.89
-5.17
-2.42
-0.03
1.83
3.24
4.44
5.67
7.06
8.61
10.26
11.89
13.35
14.47
15.04
14.92
14.07
12.60
10.83
9.12
7.78
6.95
6.52
6.17
5.54
4.35
2.53
0.30
-1.94
-3.78
-4.94
-5.44
-5.53
-5.60
-5.98
-6.81
-8.05
-9.56
-11.20
-12.84
-14.36
-15.60
-16.34
-16.36
-15.54
-13.95
-11.80
-9.36
-6.89
-4.55
-2.37
-0.35
1.52
3.20
4.59
5.59
6.14
6.23
6.00
5.65
5.45
5.55
6.00
6.63
7.12
7.20
6.76
5.91
4.96
4.20
3.77
3.56
3.27
2.59
1.34
-0.45
-2.61
-4.85
-6.98
-8.87
-10.49
-11.87
-12.94
-13.62
-13.79
-13.32
-12.17
-10.42
-8.27
-5.99
-3.89
-2.18
-0.93
-0.09
0.52
1.11
1.81
2.62
3.44
4.14
4.60
4.81
4.77
4.54
4.09
3.38
2.39
1.20
-0.07
-1.26
-2.28
-3.13
-3.86
-4.50
-4.99
-5.23
-5.12
-4.68
-4.05
-3.44
-3.04
-2.95
-3.18
-3.62
-4.13
-4.52
-4.67
-4.46
-3.87
-2.97
-1.88
-0.71
0.47
1.74
3.18
4.84
6.68
8.50
10.09
11.29
12.15
12.79
13.38
13.97
14.41
14.41
13.76
12.34
10.32
8.02
5.82
4.05
2.84
2.14
1.68
1.17
0.35
-0.89
-2.44
-4.10
-5.62
-6.83
-7.73
-8.38
-8.85
-9.16
-9.29
-9.31
-9.42
-9.86
-10.80
-12.10
-13.32
-13.87
-13.24
-11.31
-8.35
-4.98
-1.84
0.58
2.14
2.94
3.26
3.37
3.48
3.65
3.82
3.86
3.65
3.16
2.51
1.91
1.51
1.35
1.34
1.32
1.25
1.18
1.24
1.49
1.89
2.20
2.15
1.63
0.66
-0.55
-1.73
-2.75
-3.56
-4.27
-4.98
-5.75
-6.57
-7.40
-8.20
-8.94
-9.61
-10.19
-10.60
-10.75
-10.54
-9.96
-9.06
-7.98
-6.86
-5.79
-4.80
-3.83
-2.78
-1.54
-0.09
1.50
3.03
4.20
4.80
4.71
4.07
3.14
2.28
1.74
1.56
1.57
1.45
0.95
-0.05
-1.47
-3.05
-4.50
-5.62
-6.33
-6.68
-6.77
-6.67
-6.44
-6.16
-5.95
-5.96
-6.34
-7.13
-8.21
-9.34
-10.22
-10.63
-10.51
-9.95
-9.17
-8.38
-7.69
-7.09
-6.47
-5.71
-4.75
-3.61
-2.40
-1.25
-0.21
0.76
1.74
2.84
4.04
5.25
6.29
6.97
7.13
6.76
5.94
4.83
3.67
2.77
2.40
2.74
3.83
5.50
7.41
9.14
10.28
10.54
9.84
8.29
6.19
3.93
1.95
0.55
-0.09
-0.06
0.43
1.05
1.53
1.74
1.73
1.69
1.79
2.18
2.82
3.53
4.07
4.28
4.12
3.74
3.37
3.22
3.37
3.78
4.29
4.82
5.39
6.10
7.07
8.26
9.47
10.42
10.93
10.97
10.69
10.33
10.02
9.79
9.50
8.97
8.10
6.94
5.66
4.52
3.67
3.18
2.98
2.92
2.81
2.56
2.07
1.33
0.29
-1.06
-2.68
-4.47
-6.24
-7.73
-8.72
-9.06
-8.73
-7.86
-6.64
-5.30
-4.01
-2.86
-1.87
-0.96
-0.08
0.80
1.62
2.31
2.75
2.91
2.87
2.81
2.97
3.56
4.63
6.03
7.43
8.35
8.42
7.47
5.69
3.52
1.52
0.14
-0.46
-0.46
-0.28
-0.35
-0.90
-1.85
-2.85
-3.54
-3.67
-3.25
-2.44
-1.45
-0.42
0.61
1.54
2.14
2.06
0.96
-1.18
-4.01
-6.78
-8.67
-9.14
-8.10
-5.98
-3.48
-1.26
0.29
1.11
1.41
1.43
1.34
1.19
1.01
0.85
0.81
1.04
1.62
2.51
3.61
4.72
5.70
6.47
7.05
7.49
7.84
8.05
8.02
7.60
6.70
5.35
3.67
1.84
-0.03
-1.90
-3.82
-5.80
-7.72
-9.30
-10.18
-10.10
-9.04
-7.22
-5.07
-3.06
-1.55
-0.74
-0.56
-0.76
-0.95
-0.78
-0.07
1.17
2.72
4.28
5.63
6.66
7.45
8.07
8.48
8.45
7.69
6.03
3.59
0.84
-1.57
-3.04
-3.29
-2.48
-1.03
0.57
2.00
3.21
4.33
5.52
6.77
7.83
8.43
8.38
7.77
6.90
6.15
5.70
5.44
5.05
4.20
2.71
0.76
-1.31
-3.16
-4.65
-5.90
-7.18
-8.63
-10.12
-11.21
-11.30
-9.93
-7.05
-3.07
1.08
4.30
5.70
4.92
2.30
-1.29
-4.80
-7.41
-8.81
-9.15
-8.76
-7.92
-6.72
-5.11
-3.08
-0.86
1.17
2.61
3.20
2.94
2.02
0.69
-0.86
-2.51
-4.22
-5.95
-7.62
-9.06
-10.06
-10.40
-9.93
-8.63
-6.60
-4.01
-1.01
2.41
6.50
11.77
18.85
28.31
40.44
54.97
70.97
86.78
100.32
109.51
112.83
109.63
100.25
85.82
67.99
48.64
29.65
12.74
-0.86
-10.66
-17.16
-21.70
-25.94
-31.02
-36.99
-42.64
-46.04
-45.53
-40.57
-32.08
-22.12
-13.02
-6.47
-2.94
-1.82
-1.95
-2.46
-3.14
-4.43
-6.87
-10.47
-14.66
-18.65
-22.25
-26.30
-32.47
-42.17
-55.51
-70.83
-85.27
-96.21
-102.50
-104.80
-104.79
-103.89
-102.28
-98.92
-92.39
-81.82
-67.48
-50.43
-31.86
-12.58
7.06
26.85
46.31
64.58
80.68
93.75
103.21
108.71
109.91
106.69
99.37
88.96
76.94
64.78
53.34
42.68
32.37
22.07
12.21
3.96
-1.32
-2.97
-1.55
1.28
3.64
4.35
3.34
1.59
0.33
0.32
1.57
3.44
5.21
6.54
7.59
8.73
10.24
11.98
13.51
14.33
14.12
12.80
10.55
7.63
4.11
0.02
-4.46
-8.76
-12.07
-13.55
-12.63
-9.22
-3.80
2.35
7.68
11.09
12.51
12.99
14.41
18.55
26.06
35.51
42.33
40.65
25.71
-3.70
-44.23
-88.80
-128.84
-156.96
-168.85
-165.22
-149.54
-125.74
-96.38
-63.04
-27.69
6.29
34.27
51.87
55.01
42.88
18.61
-11.97
-43.39
-73.38
-103.49
-137.39
-166.94
-183.00
-179.40
-157.29
-123.05
-83.84
-45.43
-11.74
15.44
36.55
51.78
61.68
66.90
68.39
67.16
64.18
60.38
56.99
55.52
55.82
57.16
58.52
59.31
59.38
58.95
58.56
59.11
61.66
65.64
70.14
73.33
73.28
68.48
58.24
42.97
24.30
5.15
-12.63
-27.91
-40.66
-51.45
-60.96
-69.79
-78.47
-87.46
-96.81
-105.78
-111.98
-111.65
-101.01
-78.42
-46.01
-9.53
23.65
47.69
60.28
63.20
60.47
56.01
51.89
48.12
43.89
38.91
33.99
30.50
29.36
30.28
31.92
32.69
31.32
27.76
23.05
18.67
15.79
14.74
14.74
14.34
12.15
7.36
0.15
-8.29
-16.42
-22.71
-26.16
-26.45
-23.68
-18.11
-9.96
0.62
13.40
27.79
42.94
57.89
71.55
82.88
90.70
93.69
90.67
81.18
65.92
47.03
27.51
10.21
-3.13
-12.25
-17.93
-21.08
-22.16
-21.21
-18.32
-14.36
-11.13
-10.67
-14.25
-21.50
-30.39
-38.19
-42.75
-43.28
-40.40
-35.52
-29.85
-23.86
-17.48
-10.53
-3.33
3.18
8.00
10.62
11.21
10.50
9.32
7.99
6.24
3.57
-0.30
-4.96
-9.58
-13.27
-15.55
-16.56
-16.89
-17.31
-18.28
-19.92
-22.02
-24.06
-25.53
-25.94
-24.87
-22.08
-17.60
-11.65
-4.94
1.60
7.08
10.89
12.89
13.36
12.71
11.54
10.49
10.15
10.97
13.12
16.26
19.51
21.66
21.79
19.69
15.99
11.91
8.77
7.49
8.48
11.60
16.33
21.95
27.57
32.10
34.40
33.58
29.38
22.36
13.74
4.72
-4.05
-12.72
-22.17
-33.46
-47.20
-63.22
-80.35
-97.26
-113.09
-127.46
-140.14
-150.68
-158.54
-163.34
-165.23
-164.18
-160.40
-153.68
-142.57
-124.36
-96.00
-55.78
-4.30
55.57
120.28
185.02
244.20
292.39
325.63
342.15
342.48
329.65
308.71
286.82
269.34
257.64
249.07
238.42
219.91
188.94
143.59
78.87
0.98
-75.08
-133.93
-168.75
-182.32
-181.82
-173.92
-162.56
-149.27
-133.50
-115.94
-99.16
-86.21
-78.53
-75.39
-74.58
-73.59
-70.67
-64.40
-55.27
-45.45
-37.47
-32.62
-30.59
-29.97
-29.16
-27.07
-22.86
-16.84
-10.36
-4.93
-1.29
0.80
2.35
4.47
8.00
13.51
20.91
29.46
38.13
46.04
52.48
57.29
60.23
61.00
59.39
55.24
48.47
39.22
28.30
16.46
4.64
-6.28
-15.61
-22.98
-28.24
-31.49
-33.04
-33.18
-32.38
-31.00
-29.35
-27.59
-25.89
-24.30
-22.82
-21.45
-20.11
-18.84
-17.61
-16.45
-15.31
-14.23
-13.23
-12.30
-11.41
-10.58
-9.85
-9.22
-9.00
-8.94
-9.03
-9.25
-9.60
-10.01
-10.51
-11.11
-11.79
-12.56
-13.35
-14.21
-15.14
-16.19
-17.36
-18.82
-20.74
-23.22
-26.38
-30.09
-34.16
-38.19
-41.95
-44.40
-44.68
-42.13
-36.28
-27.06
-14.83
-0.46
14.85
29.73
42.76
52.62
58.43
59.75
56.68
49.86
40.31
29.34
18.47
9.17
2.51
-0.67
-0.05
4.10
11.09
19.91
29.12
37.38
43.46
46.33
45.32
40.09
30.66
17.40
1.08
-17.53
-37.18
-56.27
-73.14
-86.16
-93.93
-95.51
-90.29
-78.40
-61.03
-39.48
-15.14
10.35
35.25
57.85
76.65
90.56
98.92
100.92
97.03
88.75
77.97
66.82
57.36
51.30
49.90
57.84
75.74
102.15
134.45
169.36
203.94
235.89
263.62
286.30
304.29
317.03
324.47
327.10
325.12
318.88
308.55
294.08
275.31
251.68
221.51
182.82
138.15
89.52
39.03
-11.62
-61.09
-108.50
-153.26
-195.02
-232.77
-264.83
-289.80
-306.47
-314.28
-313.77
-306.56
-295.02
-281.79
-268.52
-255.81
-243.87
-232.49
-221.65
-212.07
-205.02
-202.07
-204.31
-211.52
-222.26
-234.67
-246.95
-258.28
-269.13
-281.22
-296.86
-318.38
-347.33
-384.42
-429.17
-478.79
-527.62
-567.75
-591.36
-593.28
-573.02
-533.74
-481.59
-423.30
-363.60
-304.27
-244.92
-185.41
-126.61
-70.50
-16.70
36.15
90.12
147.91
212.45
285.27
363.81
441.18
506.43
550.78
567.20
552.33
508.90
446.78
380.97
326.52
295.98
295.75
329.71
394.59
479.46
568.41
645.32
698.40
721.37
715.99
660.74
553.30
415.27
280.17
171.69
95.28
49.77
20.54
-2.61
-26.00
-50.16
-73.92
-96.85
-118.96
-140.93
-163.23
-187.06
-212.93
-242.38
-276.31
-314.14
-353.48
-389.90
-417.70
-430.99
-426.80
-405.94
-359.05
-291.45
-220.36
-163.04
-125.83
-105.47
-95.43
-91.03
-89.82
-90.77
-93.79
-96.46
-96.38
-90.26
-78.37
-63.74
-49.95
-39.04
-31.02
-25.63
-20.82
-13.73
-2.14
14.74
34.46
56.14
79.65
103.81
123.78
133.93
130.66
114.88
91.74
68.79
52.63
45.03
42.43
38.33
28.51
13.78
-0.63
-9.02
-8.34
1.06
16.28
34.33
53.96
76.05
101.82
130.62
158.65
180.07
189.59
185.47
171.17
154.94
147.31
155.96
181.53
216.48
247.68
262.70
255.72
230.14
196.52
166.98
148.25
138.28
128.73
111.48
85.25
57.09
38.52
37.82
54.45
77.61
90.51
79.07
39.17
-20.97
-85.17
-136.93
-166.47
-172.46
-161.09
-144.24
-133.27
-135.29
-148.92
-166.14
-176.25
-177.97
-174.90
-171.07
-168.39
-165.74
-159.56
-146.35
-125.36
-99.68
-75.44
-61.70
-64.26
-83.64
-114.68
-149.34
-180.15
-202.93
-217.46
-226.22
-232.80
-238.89
-244.52
-248.20
-247.79
-241.26
-227.51
-207.85
-184.87
-161.12
-138.03
-116.07
-94.90
-73.49
-50.78
-26.29
-0.56
24.82
47.95
67.41
82.72
94.68
105.29
117.05
132.03
150.79
172.06
193.28
211.67
225.33
234.16
240.04
246.22
256.29
273.11
297.58
327.64
358.13
381.57
390.47
380.15
350.88
308.17
260.64
216.42
180.07
151.03
124.70
95.24
58.12
12.04
-40.66
-94.25
-140.72
-171.66
-181.35
-170.13
-145.50
-119.76
-104.55
-104.88
-116.60
-129.22
-132.00
-120.49
-99.04
-77.23
-63.49
-59.94
-61.76
-61.78
-56.31
-47.37
-40.52
-39.58
-42.70
-43.03
-33.10
-10.33
20.22
48.64
65.71
67.82
57.97
42.52
26.46
10.65
-6.79
-26.88
-46.40
-57.47
-51.53
-24.42
20.00
70.16
111.69
134.01
134.50
118.68
95.91
73.15
51.79
28.63
-0.18
-34.21
-67.29
-90.25
-95.85
-83.01
-57.35
-27.54
-0.31
22.95
45.61
71.96
102.89
133.40
154.34
156.72
137.01
100.19
58.22
24.89
9.45
12.03
23.79
31.89
26.58
6.99
-18.50
-36.64
-36.42
-14.85
21.76
60.72
88.52
96.18
81.89
50.42
10.26
-30.33
-66.16
-95.80
-120.17
-139.73
-153.18
-158.34
-154.44
-144.37
-134.32
-130.49
-134.93
-142.59
-142.95
-125.41
-85.37
-28.08
32.58
79.56
99.33
86.99
47.12
-8.40
-64.76
-108.99
-133.59
-138.58
-131.08
-121.99
-121.67
-135.81
-163.32
-197.37
-228.53
-248.57
-253.18
-242.24
-218.39
-185.37
-146.45
-104.30
-61.17
-19.34
18.55
50.55
75.40
93.29
106.22
117.78
132.44
153.44
180.60
209.43
232.52
242.26
234.85
212.06
180.06
146.20
115.24
88.47
65.18
45.04
28.78
16.70
6.38
-7.51
-30.49
-64.05
-102.73
-135.59
-151.23
-143.45
-113.52
-68.88
-19.74
25.24
60.28
82.76
92.62
92.35
87.23
84.41
90.01
105.89
128.22
148.82
159.79
158.02
146.60
132.99
123.61
119.74
116.29
104.97
79.76
41.11
-3.61
-43.95
-72.25
-87.92
-96.76
-106.55
-121.07
-137.02
-145.54
-137.20
-107.65
-59.55
-1.10
58.29
111.42
154.49
185.69
203.50
206.37
194.43
170.84
141.46
112.75
88.70
68.96
50.10
27.92
0.59
-30.29
-60.88
-87.08
-106.65
-119.90
-128.99
-136.41
-143.65
-150.05
-153.01
-149.32
-137.25
-118.82
-100.65
-92.18
-101.09
-128.72
-167.53
-203.05
-219.61
-207.27
-166.06
-105.95
-41.95
12.09
48.01
65.31
69.17
66.81
64.53
65.94
72.62
85.19
103.99
129.05
158.99
190.07
216.58
232.78
235.67
226.89
212.18
198.52
190.57
188.46
187.91
182.80
168.34
143.07
108.48
67.47
22.79
-23.65
-69.92
-113.32
-149.81
-174.27
-182.52
-173.21
-149.25
-118.37
-90.68
-74.93
-74.36
-84.93
-97.19
-101.20
-91.78
-71.26
-47.87
-30.82
-25.31
-30.44
-40.92
-50.98
-57.60
-61.00
-62.70
-63.19
-60.99
-53.82
-40.43
-21.66
-0.23
20.29
36.73
46.93
50.25
48.06
43.64
41.48
45.42
56.12
70.14
81.18
83.60
75.82
61.11
45.56
34.36
28.86
26.68
24.23
19.65
14.04
10.12
10.10
14.17
20.43
25.95
27.60
22.77
9.80
-11.42
-38.27
-65.03
-84.59
-91.70
-86.11
-73.56
-62.94
-61.66
-71.46
-87.27
-100.44
-103.74
-95.36
-79.29
-61.96
-47.80
-36.25
-22.69
-2.31
25.76
56.63
81.64
93.34
89.56
74.68
56.92
43.70
37.97
37.78
38.92
39.10
39.45
43.02
51.46
62.21
68.89
65.08
48.60
23.79
-0.59
-16.26
-19.94
-14.95
-8.61
-7.77
-15.45
-30.03
-47.52
-64.25
-78.33
-88.99
-95.38
-96.28
-91.44
-82.35
-72.20
-64.15
-59.35
-56.63
-54.16
-51.78
-52.02
-58.10
-70.40
-84.49
-91.81
-84.44
-60.26
-25.15
9.43
32.94
41.30
38.94
35.46
39.25
52.60
70.57
84.35
86.96
77.38
60.74
45.01
36.09
34.59
36.09
34.22
25.28
10.56
-4.38
-12.96
-11.75
-2.63
8.05
12.94
7.90
-5.82
-22.68
-36.16
-42.73
-43.65
-43.79
-48.00
-57.22
-67.75
-73.23
-68.65
-53.81
-33.92
-17.24
-11.32
-19.37
-39.09
-64.21
-86.83
-100.32
-101.10
-89.12
-67.69
-41.78
-16.47
4.50
19.70
29.78
36.17
39.91
41.14
39.87
37.04
35.07
37.10
45.03
57.80
70.86
78.02
74.70
60.46
39.73
19.92
7.68
5.39
10.19
15.84
17.02
12.67
6.50
4.37
9.76
20.47
29.16
27.42
11.05
-16.74
-46.52
-67.01
-70.55
-56.62
-31.40
-4.31
16.23
25.11
20.99
5.18
-19.11
-46.99
-72.27
-88.25
-89.56
-74.40
-45.78
-10.00
26.19
58.05
83.96
104.13
119.31
129.53
134.38
134.05
130.12
124.93
120.13
115.62
109.84
101.31
89.85
76.80
63.89
51.70
39.18
24.39
6.56
-12.53
-28.46
-36.06
-32.18
-17.94
0.88
15.57
18.35
6.30
-17.11
-43.32
-62.81
-69.70
-64.23
-52.29
-42.01
-39.84
-47.75
-63.20
-81.05
-96.14
-104.91
-105.91
-99.24
-85.80
-66.78
-43.66
-18.41
6.25
27.26
41.86
48.78
48.99
45.40
41.65
40.19
40.67
40.57
36.97
28.92
18.35
8.92
3.59
2.84
4.72
6.89
8.58
10.76
14.54
18.99
20.73
16.02
3.56
-13.88
-31.00
-43.49
-50.77
-56.01
-62.70
-71.06
-77.16
-75.75
-65.14
-49.70
-37.96
-37.49
-49.93
-69.55
-87.02
-95.16
-93.04
-85.84
-80.40
-79.79
-80.27
-72.95
-49.62
-8.59
42.95
91.71
125.04
137.20
131.88
119.51
110.40
109.12
112.68
113.93
108.02
96.23
85.22
81.74
87.34
96.82
101.70
95.98
80.36
61.57
47.57
42.09
41.66
37.78
22.09
-8.03
-47.20
-84.22
-107.33
-109.86
-93.29
-67.03
-44.08
-35.26
-43.78
-64.38
-86.73
-101.52
-105.88
-104.01
-103.27
-108.13
-116.19
-119.51
-109.75
-83.66
-45.36
-4.27
30.33
53.41
65.49
70.28
71.56
71.71
71.74
72.48
74.41
76.87
77.64
73.56
62.72
46.28
28.59
14.74
7.44
5.01
2.71
-4.10
-16.55
-31.00
-41.11
-41.70
-32.37
-18.24
-7.17
-5.93
-16.89
-36.68
-58.22
-73.97
-79.14
-73.51
-60.38
-44.52
-29.92
-18.17
-9.18
-2.60
0.77
-1.39
-10.74
-26.46
-43.96
-56.05
-56.49
-43.54
-21.66
0.24
13.11
11.99
-2.04
-23.00
-43.74
-59.50
-69.20
-74.69
-77.56
-76.80
-68.57
-47.66
-11.27
38.07
91.79
137.59
164.25
166.77
148.72
120.99
96.48
83.97
84.11
89.30
88.25
71.39
35.58
-14.87
-70.74
-121.80
-160.27
-182.49
-188.29
-179.56
-159.09
-129.46
-92.83
-51.09
-6.00
40.09
84.29
123.10
153.21
172.96
182.90
185.44
183.61
179.26
172.09
160.11
141.47
116.31
87.47
59.48
36.48
20.12
9.32
1.26
-6.44
-13.89
-18.94
-18.60
-11.08
2.57
18.83
33.44
43.26
47.92
49.03
48.53
47.00
43.03
34.76
21.54
4.65
-12.95
-28.09
-39.46
-48.09
-56.60
-67.41
-80.74
-93.69
-101.24
-98.14
-81.66
-53.10
-17.63
18.56
51.08
79.18
105.54
133.48
163.72
192.50
212.79
218.25
206.95
182.63
153.01
125.53
103.74
86.22
68.31
46.09
19.69
-6.66
-26.98
-37.05
-37.32
-32.93
-31.38
-39.38
-60.42
-93.92
-136.09
-181.02
-222.40
-254.68
-274.34
-280.23
-273.37
-256.24
-231.51
-201.53
-168.61
-135.77
-107.22
-87.00
-76.92
-75.13
-76.78
-76.58
-72.26
-65.97
-63.02
-68.13
-81.44
-97.45
-107.27
-102.96
-81.90
-48.46
-11.92
18.06
36.05
42.81
43.91
46.03
52.64
62.48
70.68
72.22
65.64
53.98
43.14
38.32
40.97
48.01
53.65
52.72
43.59
29.10
14.69
5.71
4.50
9.37
15.43
17.04
10.92
-2.22
-17.90
-30.13
-34.54
-30.43
-21.15
-11.83
-6.31
-5.25
-6.20
-5.44
-1.28
4.28
6.19
-0.96
-19.07
-44.42
-68.43
-81.08
-75.61
-52.13
-17.85
16.08
39.77
49.15
47.19
41.60
39.90
45.52
56.14
65.89
69.72
66.39
59.25
53.72
53.52
58.43
64.24
65.46
58.98
46.25
32.54
24.39
26.05
37.05
52.25
64.19
66.85
58.25
40.98
20.90
3.87
-6.97
-12.31
-15.60
-20.36
-27.91
-36.42
-42.03
-41.80
-35.95
-28.48
-25.45
-31.23
-45.63
-63.05
-74.59
-72.58
-54.56
-24.65
8.39
35.93
53.55
62.50
68.25
76.53
89.68
105.21
117.11
119.74
110.78
92.51
70.92
52.46
41.06
36.31
34.14
29.84
20.75
8.13
-3.47
-8.92
-5.82
3.74
13.82
18.15
13.69
2.29
-10.39
-18.75
-20.89
-20.09
-22.56
-32.93
-50.96
-71.05
-85.22
-87.91
-79.50
-66.36
-57.72
-60.42
-75.55
-97.98
-118.66
-128.90
-124.03
-104.71
-76.17
-45.20
-17.26
5.55
24.40
41.93
59.60
76.33
88.86
94.21
91.67
83.61
74.49
68.09
65.43
64.28
60.56
51.52
37.41
21.64
9.13
3.49
4.96
10.44
15.10
15.05
9.35
0.28
-8.00
-11.80
-10.31
-6.04
-3.54
-6.70
-16.57
-30.50
-43.26
-49.64
-47.33
-37.99
-26.72
-19.44
-19.97
-28.75
-42.94
-58.50
-72.54
-84.10
-93.49
-100.19
-101.45
-92.72
-69.82
-32.28
14.70
61.16
95.87
111.28
106.97
89.58
69.61
56.27
53.20
57.40
61.51
58.68
46.43
27.82
9.65
-1.73
-4.10
-0.30
3.74
3.08
-2.97
-10.41
-12.93
-5.72
10.98
31.46
47.25
51.40
42.06
23.41
3.65
-9.13
-10.90
-3.41
6.92
12.68
9.38
-2.20
-16.40
-25.63
-24.37
-12.17
5.92
21.73
28.14
21.56
2.92
-23.49
-52.08
-76.96
-92.45
-92.46
-71.73
-28.12
34.47
105.36
169.18
210.74
220.73
199.43
157.02
109.60
73.61
59.92
70.53
98.54
130.83
153.29
156.52
140.15
112.67
87.64
76.93
84.45
104.01
122.61
128.19
116.68
94.47
74.36
67.61
76.90
94.37
106.29
100.84
74.70
34.10
-9.66
-47.08
-75.29
-98.10
-122.56
-153.66
-191.57
-231.72
-267.59
-293.53
-306.15
-304.10
-287.51
-257.46
-216.31
-168.63
-121.28
-82.57
-60.29
-59.08
-79.31
-116.66
-163.33
-209.74
-246.67
-267.54
-270.07
-256.89
-235.25
-214.23
-201.45
-200.18
-208.24
-219.74
-228.42
-230.84
-227.93
-223.44
-220.97
-221.19
-221.21
-216.34
-203.31
-182.51
-158.01
-134.88
-115.93
-99.47
-79.95
-51.84
-14.39
26.19
58.00
69.26
54.67
19.18
-23.26
-56.11
-67.53
-54.90
-24.75
12.05
46.30
74.03
96.59
117.90
141.01
166.33
191.93
215.58
236.36
255.24
274.62
297.07
324.31
356.54
392.47
429.67
464.98
494.77
515.38
523.62
517.46
496.80
463.46
421.14
374.21
326.76
281.68
240.42
203.39
170.27
140.02
110.66
79.65
44.99
6.88
-31.01
-62.29
-80.09
-81.01
-67.07
-45.71
-27.08
-20.15
-29.87
-56.11
-94.72
-139.44
-183.50
-220.55
-245.36
-253.74
-242.92
-212.18
-163.50
-102.33
-37.97
17.25
50.88
54.57
27.98
-20.23
-75.32
-122.09
-150.33
-156.76
-143.81
-116.16
-78.55
-35.69
6.11
37.69
49.19
34.54
-3.77
-53.46
-97.00
-119.43
-115.39
-91.43
-61.51
-38.95
-30.17
-32.63
-38.42
-41.09
-40.71
-43.79
-58.63
-88.68
-129.54
-170.91
-201.89
-216.38
-214.62
-201.13
-180.90
-156.56
-128.25
-95.39
-58.89
-20.98
16.50
54.07
95.28
144.37
202.53
265.20
322.36
361.89
374.96
359.33
320.22
267.99
213.83
165.87
127.21
96.58
69.98
42.77
10.48
-30.13
-80.15
-137.08
-193.48
-238.15
-259.88
-253.49
-223.58
-184.02
-152.21
-140.57
-150.58
-172.25
-189.30
-186.82
-157.50
-103.02
-31.64
45.54
117.47
173.61
204.65
204.38
172.92
118.84
58.83
13.05
-2.14
19.67
72.29
139.66
202.24
244.62
260.22
251.76
227.59
196.64
164.79
133.60
102.19
69.85
37.27
5.98
-22.81
-49.14
-73.68
-96.17
-115.17
-128.91
-137.66
-145.31
-157.83
-179.87
-210.84
-243.89
-268.55
-276.25
-264.86
-239.51
-209.16
-181.62
-160.12
-143.70
-130.39
-119.85
-113.70
-113.02
-115.15
-112.99
-97.61
-63.42
-12.34
45.89
97.14
128.82
135.20
118.94
89.05
56.42
29.45
11.94
3.40
0.41
-1.62
-7.38
-20.87
-44.15
-76.22
-111.91
-142.66
-158.72
-152.83
-123.32
-75.00
-17.14
39.96
89.24
128.54
159.57
185.77
209.13
228.39
239.17
235.66
214.55
177.70
132.72
90.54
60.47
45.52
40.67
35.56
20.42
-8.29
-45.86
-82.10
-107.22
-116.87
-113.16
-101.90
-87.82
-72.39
-54.61
-34.29
-14.67
-1.50
0.75
-7.51
-19.47
-25.30
-18.23
1.01
23.66
37.48
33.46
10.17
-25.20
-60.80
-85.53
-93.31
-84.55
-64.48
-40.50
-19.87
-8.60
-10.57
-26.97
-55.20
-89.28
-122.01
-147.19
-162.51
-169.77
-174.02
-179.96
-189.09
-199.20
-206.25
-207.38
-201.61
-189.21
-169.89
-143.09
-107.84
-64.57
-16.78
28.64
62.49
78.81
77.76
66.55
54.92
51.34
59.46
77.15
103.27
131.59
155.35
166.74
168.90
168.25
171.70
183.63
206.31
240.01
281.89
327.16
369.53
403.05
422.30
424.92
412.18
388.12
357.50
323.40
287.69
251.70
217.66
187.28
161.20
138.29
115.27
87.65
51.44
5.70
-46.81
-100.10
-147.94
-185.53
-210.58
-223.64
-228.13
-229.71
-234.50
-246.56
-265.72
-287.54
-304.57
-309.45
-297.78
-269.70
-229.46
-183.62
-139.10
-101.48
-73.94
-56.29
-45.09
-35.18
-22.17
-5.24
11.01
18.86
12.31
-8.17
-33.97
-52.17
-53.21
-36.72
-12.35
5.96
8.79
-3.05
-19.27
-27.13
-20.28
-3.12
11.81
12.22
-5.71
-34.51
-59.43
-66.96
-52.28
-21.02
14.65
42.75
57.10
58.57
52.83
46.03
41.64
39.74
38.10
34.51
28.28
20.61
14.06
11.44
14.25
22.67
35.34
49.75
63.05
72.18
75.04
71.25
61.88
48.58
33.00
16.02
-2.12
-21.12
-39.59
-53.98
-60.46
-57.22
-46.58
-33.77
-24.07
-20.47
-22.38
-27.13
-32.34
-38.29
-47.97
-65.07
-89.78
-117.43
-140.33
-151.06
-146.39
-128.15
-102.19
-71.35
-41.15
-16.72
-0.15
8.72
13.75
17.86
22.76
30.00
41.50
59.45
86.91
126.83
179.52
241.05
302.77
353.53
383.39
386.98
364.95
324.15
274.53
225.12
181.30
144.14
112.87
86.78
66.06
50.71
39.71
30.31
18.86
2.76
-17.37
-37.31
-51.14
-54.45
-47.77
-36.80
-30.24
-35.93
-56.50
-88.01
-121.22
-145.59
-154.24
-147.15
-130.90
-115.77
-110.64
-119.29
-139.30
-163.69
-184.75
-197.10
-199.10
-192.31
-179.25
-161.83
-140.93
-116.70
-89.50
-60.58
-32.03
-6.36
14.85
31.71
46.02
60.92
79.01
100.44
122.14
138.23
143.17
134.56
114.68
90.08
68.56
55.06
49.56
47.16
41.67
29.47
11.58
-6.99
-20.59
-26.85
-28.24
-30.96
-41.12
-61.06
-87.98
-115.05
-135.04
-143.80
-142.35
-136.22
-132.17
-134.68
-143.73
-155.00
-162.54
-162.32
-154.06
-141.62
-130.32
-123.58
-121.11
-119.29
-113.53
-101.25
-83.55
-64.59
-49.19
-40.25
-37.68
-38.88
-40.31
-39.36
-35.20
-29.16
-23.52
-20.53
-20.93
-23.05
-23.40
-17.55
-1.28
28.40
72.57
129.94
196.43
265.35
328.41
377.71
408.34
419.84
415.82
402.03
383.71
363.69
342.37
319.25
294.61
269.95
247.25
227.29
208.60
187.85
161.26
126.14
81.75
29.05
-29.40
-89.44
-144.96
-188.41
-212.36
-212.26
-188.95
-149.22
-103.89
-63.45
-34.01
-15.79
-4.83
3.01
8.87
10.42
4.34
-9.69
-27.48
-41.89
-46.86
-41.26
-29.90
-21.12
-21.81
-33.57
-52.02
-69.27
-78.22
-76.13
-65.42
-51.91
-42.11
-40.38
-47.67
-61.53
-77.35
-90.22
-96.85
-96.37
-90.49
-82.09
-73.90
-67.84
-64.68
-65.04
-69.57
-78.69
-92.05
-107.02
-119.16
-123.47
-116.40
-97.47
-70.05
-40.25
-14.92
1.16
6.54
3.91
-0.70
-0.63
8.50
26.66
49.23
69.60
82.32
85.57
82.07
76.73
73.23
71.87
69.51
62.56
49.66
33.37
19.18
12.47
15.37
25.40
36.11
40.42
33.94
16.75
-6.76
-30.16
-47.64
-56.11
-55.96
-49.74
-40.44
-29.73
-17.64
-2.84
13.57
28.10
36.21
34.93
24.15
6.30
-14.40
-33.94
-49.76
-61.26
-69.26
-74.99
-79.75
-84.44
-89.42
-94.32
-98.87
-102.86
-106.41
-109.67
-112.55
-114.71
-115.50
-114.78
-111.02
-103.04
-90.11
-72.15
-49.49
-22.76
7.09
38.86
69.49
96.98
119.83
137.12
148.51
154.21
154.92
151.58
145.20
136.72
127.26
117.54
108.01
98.85
90.19
82.08
74.51
67.37
60.53
54.16
48.31
42.99
38.15
33.79
29.86
26.28
22.91
19.64
16.57
13.75
11.28
9.12
7.36
6.02
5.00
4.20
3.46
2.71
1.98
1.33
0.73
0.33
0.15
0.15
0.24
0.33
0.40
0.59
1.79
3.65
6.06
8.70
10.97
12.06
11.29
8.36
3.53
-2.29
-8.15
-13.00
-16.36
-18.36
-19.61
-20.81
-22.27
-23.70
-24.05
-22.34
-17.77
-10.46
-1.49
7.49
15.00
20.25
23.45
25.80
28.42
32.37
38.37
46.84
57.70
69.75
80.13
83.23
75.31
54.52
23.02
-13.13
-46.00
-69.11
-79.95
-80.42
-75.03
-68.01
-61.77
-56.43
-51.00
-44.93
-38.91
-34.34
-32.29
-32.60
-33.82
-34.30
-32.68
-28.77
-23.47
-18.25
-14.53
-12.96
-13.24
-14.20
-14.63
-13.65
-11.12
-7.63
-4.12
-1.48
-0.13
0.05
-0.23
-0.24
0.53
2.14
4.33
6.60
8.48
9.75
10.51
11.09
11.81
12.93
14.50
16.47
18.71
21.07
23.38
25.71
28.07
30.44
32.74
34.79
36.41
37.42
37.67
36.98
35.26
32.53
28.77
24.03
18.45
12.22
5.59
-0.87
-7.09
-12.82
-17.82
-21.92
-25.01
-27.09
-28.21
-28.45
-27.98
-26.99
-25.87
-24.55
-23.16
-21.75
-20.45
-19.26
-18.17
-17.15
-16.15
-15.14
-14.08
-13.06
-12.11
-11.33
-10.70
-10.16
-9.66
-9.13
-8.59
-8.05
-7.63
-7.44
-7.54
-7.91
-8.42
-8.92
-9.24
-9.36
-9.38
-9.52
-10.05
-11.13
-12.77
-14.67
-16.48
-17.78
-18.48
-18.81
-19.26
-20.44
-22.70
-25.99
-29.76
-33.26
-35.76
-37.18
-38.03
-39.25
-41.74
-45.85
-51.04
-55.89
-59.06
-58.92
-55.16
-48.70
-41.07
-33.92
-28.07
-23.61
-20.14
-17.34
-14.99
-12.74
-9.45
-3.41
6.81
21.10
36.94
50.05
56.17
53.40
43.34
30.17
18.27
9.62
2.93
-5.08
-16.61
-30.56
-42.27
-45.95
-38.09
-19.53
4.82
28.77
47.64
60.09
67.83
73.43
78.25
81.98
83.36
81.65
77.59
72.87
69.38
67.66
66.37
62.71
53.33
35.86
9.99
-21.98
-55.22
-83.81
-102.70
-109.24
-104.15
-91.34
-76.29
-64.15
-58.09
-58.64
-64.38
-73.07
-82.87
-92.18
-100.02
-106.19
-110.57
-112.46
-110.61
-103.41
-89.85
-70.67
-48.50
-27.40
-11.09
-1.27
3.00
4.82
7.85
15.09
27.93
46.44
69.92
97.83
129.88
166.02
206.28
250.39
297.84
347.35
396.50
441.44
477.30
499.18
503.68
489.97
460.06
417.91
368.17
314.98
261.26
208.93
159.32
113.54
72.40
35.89
2.93
-28.27
-59.25
-90.36
-120.41
-147.20
-168.83
-184.55
-195.08
-201.64
-205.22
-206.33
-205.44
-203.79
-203.48
-206.93
-215.44
-228.34
-243.02
-256.03
-264.18
-265.27
-257.67
-239.77
-209.95
-167.26
-112.74
-50.13
14.68
75.22
126.55
166.47
195.59
216.24
230.91
240.98
246.31
245.61
237.43
220.95
196.07
163.89
126.47
87.00
49.54
18.19
-4.09
-16.67
-21.53
-22.22
-22.23
-23.50
-25.97
-28.85
-32.27
-38.32
-50.56
-71.44
-99.98
-131.25
-157.99
-174.40
-179.14
-176.14
-172.58
-175.31
-187.85
-209.53
-236.76
-265.15
-290.88
-310.95
-322.15
-320.85
-303.68
-268.72
-216.65
-151.13
-77.85
-3.17
67.01
128.77
179.95
220.01
249.78
270.41
282.54
285.87
278.78
259.15
226.50
181.71
128.04
70.62
15.54
-31.19
-64.79
-82.49
-85.28
-74.99
-56.95
-37.37
-21.77
-13.77
-14.79
-24.49
-41.77
-67.20
-96.81
-128.55
-160.04
-188.92
-213.42
-232.67
-246.44
-254.86
-261.16
-262.34
-260.43
-258.76
-261.11
-269.42
-282.13
-294.09
-298.46
-293.78
-273.50
-240.22
-199.20
-155.39
-111.13
-65.74
-16.97
62.26
134.73
199.56
248.20
273.56
273.41
251.92
218.27
182.90
153.34
127.88
109.22
93.75
79.34
66.65
58.05
54.93
56.05
57.72
52.86
43.62
31.76
21.24
15.40
14.56
15.22
11.89
-0.07
-23.66
-53.23
-82.70
-106.18
-120.69
-127.41
-130.75
-136.02
-146.62
-163.43
-181.69
-195.87
-200.75
-193.33
-173.73
-144.87
-110.67
-74.63
-39.05
-3.55
32.93
71.54
112.53
154.68
195.35
231.15
258.56
274.94
279.26
272.30
256.42
234.58
209.58
183.47
157.76
133.90
113.83
99.88
94.21
97.82
109.97
128.28
149.32
169.55
185.92
196.20
199.04
194.09
182.25
165.79
147.98
132.25
120.78
113.32
107.13
98.07
82.47
59.25
30.41
0.67
-24.18
-39.07
-40.44
-26.52
3.06
47.38
103.73
167.17
230.58
285.71
325.27
344.81
343.93
325.97
296.44
261.07
224.28
188.62
154.94
123.08
92.38
62.28
32.56
3.69
-23.12
-46.41
-65.17
-79.69
-91.53
-102.70
-114.79
-128.13
-142.07
-156.17
-171.19
-189.19
-212.06
-239.48
-267.83
-290.99
-303.15
-302.07
-290.85
-277.17
-270.25
-276.96
-298.80
-331.25
-365.40
-391.04
-399.86
-387.70
-355.27
-306.92
-248.83
-186.89
-124.86
-64.29
-5.07
52.97
109.03
161.35
207.46
245.01
272.26
287.95
290.90
279.98
254.80
216.90
170.63
122.92
81.71
53.14
39.24
36.98
39.54
39.47
31.92
16.38
-3.65
-23.30
-39.20
-51.09
-61.43
-72.74
-85.59
-98.10
-107.20
-111.38
-112.16
-113.68
-120.40
-134.28
-153.75
-175.06
-194.31
-209.36
-220.05
-226.93
-229.66
-225.67
-211.39
-183.85
-142.39
-89.34
-28.85
34.33
95.86
152.37
201.35
240.59
268.88
286.05
294.33
298.43
303.72
313.95
329.06
345.18
355.84
355.28
339.45
308.92
268.63
225.36
184.69
149.06
118.98
93.00
70.32
47.88
23.60
-2.56
-29.46
-55.77
-80.63
-101.77
-118.05
-127.68
-134.40
-142.21
-152.49
-164.19
-174.69
-181.86
-182.11
-175.52
-162.95
-152.88
-153.34
-167.57
-194.62
-231.15
-275.17
-323.74
-378.75
-398.98
-357.85
-258.47
-131.08
-8.26
94.81
159.16
200.11
227.78
246.85
251.38
233.89
202.94
166.20
131.75
104.55
88.67
81.53
79.22
72.95
56.08
27.64
-9.26
-48.96
-86.94
-118.88
-145.66
-169.32
-195.26
-228.15
-269.91
-320.84
-378.84
-440.22
-497.71
-544.02
-571.54
-576.63
-560.03
-526.36
-483.23
-437.82
-394.97
-355.75
-319.79
-286.02
-254.49
-226.04
-201.36
-180.21
-161.09
-142.07
-121.57
-99.72
-77.62
-57.07
-39.59
-25.67
-14.68
-5.16
4.44
15.16
27.08
39.35
50.63
59.80
66.44
70.95
74.24
77.37
81.06
85.49
90.26
94.71
98.33
100.92
102.65
103.87
104.98
106.18
107.23
107.79
107.45
106.11
103.88
101.23
98.72
96.84
95.72
95.20
94.94
94.59
94.02
93.39
93.15
93.74
95.27
97.51
99.90
101.92
103.30
104.39
106.13
109.73
116.07
125.39
137.18
150.39
163.98
177.53
191.29
205.94
221.85
238.84
256.10
273.24
291.02
311.12
334.83
361.02
385.12
400.38
400.59
383.53
352.62
315.43
279.97
250.83
227.41
205.52
180.75
151.52
119.58
87.88
57.83
28.26
-3.41
-37.95
-71.89
-97.74
-107.04
-94.80
-62.94
-20.28
20.83
50.38
64.82
68.23
69.55
76.90
92.70
112.15
125.72
125.17
108.13
79.86
50.55
29.59
20.63
20.18
20.40
14.53
1.16
-14.92
-25.67
-24.99
-12.93
4.14
16.67
17.62
5.94
-12.81
-29.62
-37.21
-34.01
-24.57
-16.84
-17.26
-27.32
-43.12
-57.90
-66.48
-68.76
-69.95
-77.89
-97.98
-129.42
-164.34
-190.44
-196.28
-176.54
-134.53
-80.97
-28.81
12.09
38.55
54.33
66.57
81.04
99.05
117.05
129.86
134.33
131.59
126.78
125.48
129.98
137.28
140.47
133.06
113.26
85.85
60.31
46.04
46.91
59.03
72.50
76.98
67.06
44.93
18.94
-1.58
-11.55
-12.53
-11.13
-14.06
-23.89
-37.69
-49.13
-53.13
-49.96
-45.80
-49.88
-68.94
-102.79
-143.38
-177.58
-193.16
-184.35
-154.15
-112.61
-71.34
-38.17
-14.36
4.71
25.05
49.44
75.20
95.47
104.00
99.13
85.33
71.23
64.67
68.14
77.31
83.20
77.59
57.73
27.97
-2.14
-22.94
-29.79
-25.16
-17.04
-14.08
-21.00
-36.48
-54.17
-66.95
-71.21
-68.75
-65.59
-67.79
-77.57
-91.84
-103.52
-105.83
-96.57
-79.82
-64.36
-58.96
-67.71
-88.09
-111.93
-129.62
-134.85
-127.02
-110.73
-92.01
-74.55
-57.92
-38.16
-11.18
23.62
61.88
95.62
117.35
123.93
118.07
107.20
99.20
98.08
101.91
104.11
97.88
80.49
55.16
29.92
13.17
9.00
14.92
23.18
25.06
15.75
-3.33
-25.12
-40.95
-45.37
-38.88
-27.55
-19.29
-19.43
-28.20
-40.81
-50.80
-54.18
-51.82
-48.94
-51.64
-62.96
-81.06
-100.13
-113.88
-119.49
-119.17
-118.83
-123.94
-135.52
-148.73
-154.35
-143.41
-112.25
-65.11
-12.95
31.61
60.03
71.30
71.76
70.85
75.46
86.09
97.11
100.70
92.11
72.59
49.16
30.54
22.20
23.57
28.68
30.09
23.35
9.26
-6.58
-17.25
-18.65
-11.93
-2.73
1.95
-2.05
-13.97
-28.52
-39.12
-42.07
-38.86
-35.55
-38.87
-51.93
-71.89
-91.18
-101.88
-100.62
-91.25
-83.13
-86.04
-104.21
-133.63
-163.25
-180.00
-175.09
-147.87
-105.74
-60.13
-20.80
8.05
28.75
47.57
70.03
97.15
124.37
143.99
149.81
140.78
122.27
103.55
92.85
92.92
99.90
105.81
103.88
92.73
77.36
66.24
66.00
77.22
93.74
105.98
106.58
94.25
74.56
56.73
48.43
51.50
61.34
69.75
70.00
60.48
45.25
31.31
23.65
21.91
20.40
11.57
-8.51
-36.77
-63.56
-77.01
-69.33
-41.35
-2.40
34.11
57.70
65.75
64.19
63.62
72.73
93.08
118.21
137.15
140.90
127.19
101.59
74.30
54.41
45.11
42.82
40.05
30.71
13.90
-5.72
-20.82
-26.36
-23.06
-17.22
-17.34
-28.73
-50.37
-75.13
-93.42
-98.70
-91.15
-77.66
-68.21
-70.25
-84.81
-106.22
-125.28
-134.69
-133.07
-125.40
-119.89
-122.47
-132.95
-144.54
-147.08
-132.62
-100.03
-55.94
-11.82
21.97
40.84
47.55
49.91
55.48
67.06
81.13
90.12
87.55
72.12
48.95
27.17
14.91
14.60
21.86
27.90
24.91
10.54
-10.56
-29.06
-36.20
-28.75
-10.80
8.14
18.52
15.63
1.72
-15.40
-27.29
-29.70
-24.71
-19.40
-20.95
-32.28
-50.24
-67.30
-76.30
-75.09
-68.03
-63.73
-69.61
-87.08
-110.13
-127.79
-129.91
-112.55
-80.07
-43.00
-12.24
6.18
13.46
16.58
23.31
37.11
55.06
69.14
71.37
58.35
33.48
5.75
-14.97
-22.97
-19.20
-10.22
-4.03
-5.44
-13.68
-23.19
-27.45
-23.36
-13.06
-2.67
1.93
-1.17
-8.50
-13.07
-8.79
5.41
24.48
39.56
42.93
32.27
11.63
-10.57
-26.44
-33.02
-33.65
-35.81
-46.07
-65.69
-89.22
-106.41
-107.48
-88.25
-52.59
-10.69
26.12
50.72
62.90
68.55
75.01
86.20
100.10
110.13
109.81
97.12
76.21
55.65
43.65
43.46
51.71
60.54
62.36
54.26
39.26
24.50
16.82
18.65
26.69
33.72
32.97
21.95
3.66
-14.79
-26.31
-27.76
-21.51
-14.06
-12.02
-18.13
-29.83
-40.56
-43.88
-37.76
-26.39
-18.37
-21.66
-38.54
-63.58
-85.29
-91.73
-76.72
-43.07
-1.44
35.36
58.60
67.37
68.35
71.07
82.03
100.95
120.94
132.94
130.91
115.09
91.84
69.91
55.49
49.40
47.33
43.35
33.90
19.77
5.65
-3.19
-4.50
-0.74
2.04
-2.24
-16.21
-37.66
-60.45
-77.91
-86.67
-88.35
-88.93
-94.92
-109.57
-130.85
-152.02
-165.29
-166.42
-157.40
-146.00
-141.77
-150.89
-172.79
-200.08
-221.88
-229.30
-219.36
-195.92
-166.70
-138.75
-115.16
-94.18
-71.49
-44.45
-14.98
10.64
25.15
24.86
12.05
-5.61
-18.96
-22.16
-15.91
-6.90
-3.64
-10.91
-26.59
-42.16
-47.14
-35.22
-7.41
27.45
56.88
71.13
67.63
52.06
34.70
24.46
24.17
31.16
38.33
38.80
29.82
14.35
-0.84
-9.24
-8.15
0.55
15.86
36.63
62.31
92.49
126.56
163.10
199.33
231.50
256.07
277.01
299.33
326.52
358.73
393.65
428.63
461.50
490.74
515.52
543.04
579.39
626.46
680.62
735.32
784.72
825.15
855.03
828.59
721.08
536.54
308.49
79.45
-120.62
-280.10
-400.37
-488.45
-552.32
-591.66
-606.35
-599.58
-578.82
-553.22
-529.65
-511.67
-500.10
-494.14
-486.84
-472.61
-449.56
-420.20
-389.39
-360.06
-333.17
-308.12
-283.70
-255.35
-219.91
-177.07
-129.65
-83.75
-43.57
-11.38
12.25
27.83
38.05
45.46
51.49
56.19
58.88
59.41
57.93
54.87
50.74
46.54
43.07
40.58
38.71
36.89
34.91
32.70
30.30
27.82
25.23
22.64
20.05
17.43
14.76
12.22
9.95
8.02
6.50
5.28
4.42
3.87
3.59
3.49
3.58
3.90
4.31
5.47
6.39
6.60
5.64
3.31
-0.44
-5.34
-10.80
-16.24
-20.98
-24.82
-27.55
-29.29
-30.23
-30.42
-29.81
-28.10
-25.10
-20.74
-15.54
-10.16
-5.44
-2.01
0.03
1.26
2.77
5.58
10.35
16.84
24.13
31.02
36.40
39.81
41.57
42.74
44.50
47.97
53.97
62.82
74.03
85.63
94.31
96.20
88.33
70.04
43.89
15.21
-9.67
-25.89
-31.93
-29.71
-23.24
-16.55
-12.54
-12.00
-14.19
-17.28
-19.44
-19.64
-17.64
-13.69
-8.05
-1.72
4.20
8.71
11.33
12.06
11.17
9.31
7.48
6.85
7.12
7.00
4.95
0.24
-6.77
-14.88
-22.39
-27.57
-29.11
-28.45
-28.95
-34.68
-48.79
-72.73
-106.36
-148.02
-194.78
-233.48
-251.40
-242.19
-210.13
-166.13
-120.24
-78.04
-41.18
-9.48
17.69
39.11
53.36
60.14
61.32
60.22
60.07
62.67
68.01
75.19
81.72
85.47
85.81
84.15
83.06
84.74
89.78
96.19
102.02
104.48
101.82
94.29
84.19
74.71
68.25
65.34
63.91
61.30
55.12
44.92
32.73
22.25
17.10
19.04
27.09
37.11
44.45
45.42
38.45
24.01
3.90
-19.39
-43.62
-59.94
-62.32
-47.34
-16.84
21.48
56.02
75.86
76.23
60.69
39.08
20.73
10.41
6.47
3.60
-1.94
-8.25
-7.54
9.93
50.36
111.56
183.67
252.32
304.10
331.28
333.88
318.26
293.43
267.10
242.79
220.19
197.08
172.02
146.27
123.42
107.73
100.89
101.85
105.96
107.01
99.49
80.19
49.44
11.33
-27.02
-58.05
-75.56
-78.42
-70.99
-61.50
-58.93
-69.34
-94.00
-129.63
-171.01
-209.97
-238.94
-250.55
-239.15
-203.54
-149.11
-87.87
-35.03
-5.87
-3.76
-25.47
-61.06
-99.02
-131.40
-155.54
-172.57
-184.39
-196.81
-205.70
-212.23
-217.93
-225.39
-238.40
-260.33
-292.76
-335.21
-393.77
-460.22
-532.72
-604.66
-666.29
-708.71
-726.90
-720.83
-694.73
-665.26
-631.49
-598.09
-561.85
-516.85
-461.99
-404.01
-354.08
-255.80
-200.67
-179.72
-188.91
-216.52
-248.22
-272.80
-283.84
-277.51
-251.65
-168.69
-11.58
181.88
358.38
486.15
562.83
601.79
618.66
624.86
618.15
601.50
571.76
533.60
496.97
469.87
454.57
449.46
451.57
453.43
452.77
445.67
434.52
422.31
409.68
393.09
368.61
330.27
278.58
222.26
169.64
121.67
78.48
41.34
11.29
-9.60
-18.73
-17.52
-12.88
-15.41
-33.51
-69.36
-119.31
-175.71
-229.19
-260.48
-255.78
-217.04
-160.34
-103.55
-55.52
-16.70
15.49
42.92
66.16
83.63
93.37
95.45
92.68
89.33
88.37
90.16
92.87
94.28
91.53
82.53
67.46
48.42
28.44
9.42
-6.35
-20.21
-34.23
-50.51
-69.03
-86.12
-95.41
-90.09
-66.36
-25.88
24.49
75.20
116.16
139.75
143.89
129.97
102.67
68.56
33.94
4.19
-17.02
-28.52
-31.45
-28.41
-22.77
-17.86
-16.20
-19.92
-28.77
-40.31
-50.56
-55.33
-51.97
-41.00
-27.32
-13.57
-6.65
-12.50
-33.61
-67.54
-106.47
-138.58
-151.15
-136.05
-92.41
-28.02
44.10
109.20
155.39
177.45
177.78
164.35
144.75
123.49
100.84
74.98
43.41
4.38
-42.15
-94.75
-140.75
-169.14
-176.55
-169.57
-157.77
-147.46
-140.53
-136.03
-132.30
-126.90
-119.33
-108.55
-92.15
-66.80
-30.91
13.48
60.61
102.92
133.39
146.82
140.10
114.37
75.53
32.20
-7.00
-35.73
-51.04
-52.70
-46.71
-40.72
-41.25
-52.49
-76.66
-114.89
-167.90
-236.17
-305.68
-364.51
-401.20
-408.24
-385.42
-340.12
-284.55
-231.51
-194.07
-169.59
-154.19
-143.10
-132.16
-118.94
-102.32
-81.33
-55.91
-25.74
10.33
49.79
88.85
122.95
147.59
159.56
157.74
143.11
118.60
88.67
55.80
21.79
-12.12
-45.01
-75.78
-103.05
-125.27
-140.98
-148.84
-149.44
-144.22
-135.13
-124.18
-112.96
-102.51
-93.40
-85.80
-79.52
-74.86
-72.08
-71.32
-72.33
-74.43
-76.54
-77.42
-75.80
-70.57
-60.71
-45.66
-25.40
-0.24
29.29
62.54
98.61
136.23
173.56
208.63
239.05
262.55
277.38
282.74
278.94
267.09
248.84
225.74
200.04
173.40
147.02
121.83
98.96
79.78
65.32
56.17
51.74
53.05
60.25
72.69
89.36
109.72
134.16
163.01
197.59
239.13
293.51
364.26
449.84
542.76
631.51
704.62
752.62
773.18
768.37
750.41
728.93
707.37
683.84
656.47
628.58
606.65
600.88
616.46
659.86
726.68
802.47
868.43
909.63
921.13
905.16
873.21
775.41
592.29
340.70
68.77
-174.14
-361.71
-475.62
-539.47
-572.70
-588.76
-587.40
-569.11
-539.99
-508.31
-482.31
-465.94
-461.50
-464.93
-472.35
-474.14
-464.64
-444.15
-417.86
-392.03
-369.89
-352.83
-337.05
-319.03
-292.74
-255.87
-211.34
-165.93
-126.89
-98.81
-84.22
-81.57
-88.52
-100.35
-112.94
-123.69
-131.88
-138.28
-144.18
-151.27
-159.65
-168.17
-173.98
-174.40
-168.36
-157.39
-145.32
-137.07
-136.93
-146.40
-162.94
-179.71
-187.03
-175.70
-141.12
-86.28
-21.91
38.15
82.12
105.22
110.64
106.43
100.48
96.49
93.60
89.28
83.05
77.20
76.86
84.72
98.79
112.74
118.84
112.37
94.20
70.41
48.76
36.44
35.90
45.13
59.54
74.40
86.57
94.93
99.64
99.82
96.40
88.54
75.62
57.61
35.18
9.98
-15.83
-40.52
-66.52
-90.62
-113.89
-136.98
-160.04
-182.74
-204.25
-223.93
-242.14
-266.84
-292.57
-320.74
-350.76
-381.37
-411.70
-441.87
-473.10
-506.57
-552.58
-597.67
-638.24
-668.16
-684.66
-688.84
-683.09
-669.53
-649.39
-637.45
-622.94
-610.95
-600.97
-593.01
-586.11
-575.20
-554.17
-431.49
-324.76
-230.79
-163.73
-125.36
-115.03
-128.82
-155.99
-182.69
-196.75
-204.85
-196.63
-179.56
-151.44
-115.39
-78.17
-42.37
-6.84
31.50
103.65
232.13
348.05
425.49
471.67
485.99
470.39
430.19
373.70
304.23
233.21
165.99
117.13
92.12
86.52
93.93
107.49
121.65
130.02
131.18
124.62
120.34
124.01
135.61
154.16
177.23
201.20
220.38
229.22
224.34
210.94
194.72
180.57
174.11
179.20
195.85
219.42
240.90
252.27
252.09
243.21
232.07
227.40
236.50
261.67
299.04
338.98
369.61
381.06
366.54
323.91
256.77
173.99
87.83
11.45
-44.41
-74.18
-78.39
-62.53
-34.98
-4.09
24.31
47.32
64.97
79.46
94.28
113.39
140.01
174.91
215.57
256.42
290.41
311.38
316.26
305.48
282.49
251.91
217.64
181.79
144.20
103.07
56.31
3.12
-54.32
-110.04
-155.75
-183.49
-188.31
-169.92
-132.14
-81.38
-25.33
27.62
69.53
93.64
96.21
78.23
45.38
6.39
-30.26
-59.88
-83.20
-105.32
-132.40
-167.65
-209.15
-250.27
-282.51
-298.90
-296.95
-279.48
-252.95
-224.10
-196.25
-168.72
-138.64
-103.69
-64.37
-24.40
10.85
36.37
48.74
46.84
30.38
-0.43
-44.17
-96.93
-151.89
-200.49
-235.07
-251.66
-248.93
-229.80
-200.03
-166.25
-133.98
-106.39
-84.56
-67.56
-53.38
-34.78
-4.54
41.90
104.14
176.24
248.02
307.55
344.28
353.49
345.29
335.88
340.73
368.13
417.75
482.95
553.81
619.63
670.85
708.64
735.69
753.89
764.18
769.20
774.81
787.45
809.65
787.48
685.84
502.46
272.36
42.89
-153.38
-305.71
-418.24
-500.94
-563.15
-602.67
-616.66
-606.26
-579.05
-545.93
-516.20
-494.96
-483.32
-479.98
-474.77
-458.83
-428.13
-384.73
-334.05
-281.20
-229.42
-181.60
-139.96
-101.92
-65.06
-28.90
4.66
32.92
54.14
68.20
76.30
80.66
85.47
93.01
101.93
107.06
102.01
82.79
50.38
10.70
-27.57
-56.04
-70.55
-72.22
-65.83
-56.66
-47.93
-40.21
-32.68
-24.59
-16.40
-9.27
-4.10
-0.68
2.30
6.43
12.89
21.43
30.74
38.47
42.42
41.26
34.96
24.51
11.43
-2.80
-16.87
-30.27
-43.15
-55.72
-67.91
-79.13
-88.53
-95.33
-98.89
-99.99
-98.16
-93.64
-86.77
-77.93
-67.32
-55.17
-41.83
-27.93
-14.32
-1.95
8.20
15.48
19.76
21.37
21.11
20.07
19.24
19.45
21.29
24.93
29.90
35.34
40.34
44.08
45.94
45.73
43.61
40.08
35.87
31.85
28.76
27.73
29.91
36.27
47.71
64.59
86.35
111.61
138.37
164.11
186.65
204.19
215.74
220.72
218.74
208.92
190.11
162.78
127.99
88.02
45.82
4.42
-34.10
-68.64
-98.59
-122.69
-139.08
-146.48
-145.10
-137.73
-129.37
-125.57
-130.28
-144.52
-166.87
-194.95
-227.38
-263.00
-299.89
-333.53
-356.82
-362.38
-345.81
-307.92
-253.57
-189.34
-120.34
-49.68
20.61
87.00
143.42
182.55
198.52
190.52
162.58
122.86
81.00
46.22
26.05
25.45
46.23
85.42
137.24
191.32
236.65
264.80
272.52
261.76
237.27
203.73
161.55
111.59
52.33
-15.01
-84.60
-146.34
-189.10
-205.28
-194.52
-166.87
-132.91
-107.43
-101.97
-121.23
-161.66
-213.00
-261.84
-296.23
-312.38
-306.13
-282.05
-246.95
-206.20
-161.73
-112.29
-56.36
24.91
99.97
165.53
214.40
243.00
252.95
249.73
239.42
225.47
208.14
182.95
153.52
122.62
95.24
75.37
63.17
54.24
41.61
19.22
-17.91
-65.22
-118.12
-170.87
-217.99
-255.03
-278.82
-287.99
-283.66
-271.02
-252.70
-231.50
-207.18
-177.25
-140.25
-98.83
-61.35
-39.18
-42.26
-71.22
-117.33
-164.37
-195.29
-199.10
-174.70
-130.25
-77.55
-26.97
17.10
55.49
91.72
128.68
167.06
206.31
246.27
287.93
332.65
379.56
424.37
460.15
480.00
480.41
462.86
432.64
395.88
356.76
317.02
277.63
240.36
208.20
183.98
167.47
154.01
136.22
107.52
65.17
11.21
-49.49
-111.48
-170.22
-221.76
-261.17
-281.99
-277.94
-247.04
-194.43
-132.46
-76.88
-40.76
-30.15
-42.92
-71.43
-107.25
-144.37
-179.51
-210.22
-232.85
-242.10
-233.61
-206.53
-165.15
-117.74
-72.96
-35.63
-4.94
24.18
57.43
97.13
141.38
185.45
225.20
259.25
288.25
312.14
327.57
328.31
308.37
266.74
209.56
148.12
93.88
52.74
22.83
-3.42
-34.45
-75.26
-125.94
-183.59
-245.04
-307.07
-365.82
-415.45
-449.63
-464.17
-461.17
-450.33
-445.76
-459.51
-494.61
-543.20
-589.67
-618.54
-621.30
-599.06
-559.93
-513.16
-464.34
-414.15
-361.18
-305.28
-249.31
-198.35
-156.38
-123.89
-97.29
-70.94
-40.45
-5.26
31.33
63.90
87.17
98.42
98.19
90.19
79.20
69.37
63.01
60.38
60.53
62.32
65.38
70.35
78.14
88.61
100.00
108.87
111.29
104.15
86.29
59.34
27.03
-5.52
-32.59
-48.24
-47.07
-25.68
15.22
69.05
124.15
167.33
189.51
188.99
173.54
156.52
150.84
164.16
196.89
244.01
298.44
353.58
401.95
435.10
443.40
419.15
361.41
278.89
188.94
111.53
62.72
46.11
55.38
77.45
99.02
112.09
115.99
115.80
118.90
133.79
160.29
196.97
238.66
277.73
305.06
312.15
293.59
249.53
191.70
127.08
71.17
37.53
33.30
56.42
96.15
136.71
162.68
171.86
152.42
108.29
48.07
-17.73
-78.74
-126.28
-154.37
-160.62
-136.35
-99.04
-56.69
-17.08
15.16
39.99
61.46
85.34
48.36
34.23
25.21
14.15
-4.83
-33.26
-67.78
-101.91
-129.52
-148.24
-149.56
-150.12
-154.80
-165.81
-181.65
-198.50
-212.51
-221.67
-226.00
-218.47
-209.09
-198.36
-186.41
-173.38
-159.91
-147.50
-137.96
-132.95
-128.20
-128.90
-133.52
-139.46
-143.64
-143.05
-135.27
-119.19
-95.57
-64.03
-30.67
0.92
28.35
51.19
70.83
89.23
107.58
125.08
140.83
152.21
158.65
160.71
158.76
152.22
139.32
119.27
94.29
71.53
59.44
62.89
79.67
100.47
113.52
110.60
92.11
66.61
48.87
50.18
73.26
112.54
158.81
204.84
247.03
286.19
323.44
363.26
406.08
448.18
484.18
511.34
532.26
552.21
578.33
613.33
661.79
720.28
778.00
821.55
842.25
840.80
822.83
798.40
773.14
757.66
754.99
760.28
764.20
759.20
743.93
718.89
689.83
591.33
393.08
110.73
-199.01
-475.38
-684.79
-806.59
-868.05
-892.96
-899.24
-888.86
-863.16
-830.23
-801.08
-787.79
-793.32
-813.68
-834.57
-842.23
-820.11
-762.37
-676.26
-578.77
-488.37
-416.47
-367.60
-336.53
-316.58
-297.87
-275.28
-249.16
-223.28
-201.14
-183.01
-168.46
-155.10
-142.48
-129.56
-117.15
-107.10
-101.32
-100.49
-102.94
-106.36
-107.84
-105.50
-98.23
-86.45
-71.36
-54.26
-35.82
-15.62
6.88
31.72
58.56
86.57
114.49
139.93
158.97
166.54
158.00
131.15
88.04
35.52
-16.10
-56.05
-76.30
-73.62
-50.65
-14.35
26.66
64.91
95.61
116.41
126.40
125.14
112.39
88.72
56.37
19.57
-16.01
-45.03
-64.29
-73.77
-76.11
-75.17
-74.28
-75.27
-78.04
-81.41
-84.11
-85.41
-84.85
-81.78
-74.65
-61.73
-41.90
-15.86
13.18
40.94
63.59
79.85
90.63
97.66
101.05
98.35
85.81
61.23
26.52
-11.51
-42.74
-58.85
-56.15
-37.22
-9.81
16.57
34.91
43.14
43.18
38.43
30.87
20.39
6.03
-12.19
-31.84
-48.64
-57.80
-56.34
-44.16
-24.11
-0.64
21.48
37.65
45.57
44.92
37.46
26.41
15.16
5.84
-1.09
-6.62
-12.12
-17.55
-21.95
-24.25
-23.98
-21.72
-19.00
-17.48
-18.23
-21.47
-26.40
-31.94
-37.10
-41.17
-44.15
-46.22
-47.47
-47.74
-46.48
-43.04
-37.02
-28.51
-18.14
-7.04
3.45
12.17
18.35
21.82
22.81
21.92
19.79
17.01
14.06
11.36
9.21
7.86
7.62
8.56
10.63
13.47
16.53
19.10
20.72
21.14
20.46
19.18
17.83
16.82
16.23
15.78
15.08
13.80
11.94
9.95
8.64
8.85
11.14
15.48
21.18
27.44
33.30
38.21
42.14
45.42
48.59
52.30
57.16
63.42
70.72
77.54
81.34
79.27
69.18
50.89
26.62
0.43
-23.25
-41.16
-52.06
-56.72
-56.88
-54.41
-50.82
-47.01
-43.45
-40.44
-38.30
-37.28
-37.42
-38.42
-39.80
-40.90
-41.10
-40.07
-37.79
-34.59
-31.00
-27.55
-24.53
-21.90
-19.26
-16.08
-12.05
-7.26
-2.29
2.07
5.14
6.77
7.33
7.53
8.06
9.21
10.79
12.23
12.88
12.41
10.97
9.06
7.33
6.24
5.85
5.89
5.90
5.59
5.03
4.67
5.03
6.38
8.48
10.64
12.07
12.30
11.38
9.83
8.31
7.17
6.34
5.39
3.89
1.73
-0.78
-3.12
-4.80
-5.55
-5.41
-4.61
-3.43
-2.10
-0.68
0.89
2.74
5.03
7.79
10.92
14.13
17.13
19.59
21.35
22.30
22.33
21.14
18.32
13.54
6.94
-0.70
-8.07
-13.79
-17.07
-18.06
-17.79
-17.61
-18.49
-20.50
-22.90
-24.71
-25.22
-24.38
-22.66
-20.50
-17.91
-14.35
-9.06
-1.63
7.57
17.41
26.41
33.25
37.34
38.81
38.42
37.06
35.38
33.55
31.46
29.03
26.59
24.91
24.87
26.95
30.83
35.31
38.66
39.43
37.04
32.02
25.69
19.54
14.53
10.77
7.39
2.93
-4.19
-15.24
-30.75
-50.11
-71.49
-92.33
-110.00
-122.74
-129.89
-131.82
-129.26
-122.71
-112.19
-97.63
-79.44
-59.01
-38.40
-19.64
-4.04
8.14
17.35
24.16
28.78
31.21
31.85
31.68
31.97
33.63
36.65
40.05
42.32
42.19
39.20
33.75
26.74
19.27
12.45
7.20
4.17
3.53
4.83
7.20
9.64
11.52
12.62
13.06
12.94
12.27
11.16
10.02
9.37
9.54
10.29
10.73
9.76
6.66
1.66
-4.04
-8.86
-11.50
-11.43
-9.21
-6.21
-3.93
-3.18
-3.70
-4.32
-3.72
-1.28
2.32
5.43
6.43
4.79
1.32
-2.56
-5.76
-8.11
-10.19
-12.39
-14.37
-15.13
-13.85
-10.82
-7.56
-5.94
-7.00
-10.39
-14.73
-18.54
-21.02
-22.35
-22.94
-22.71
-20.81
-16.31
-9.18
-0.77
6.59
10.69
10.80
7.95
4.31
1.95
1.89
4.10
8.27
14.23
21.87
30.50
38.46
43.66
44.46
40.78
34.21
27.36
22.54
20.74
21.33
22.57
22.42
19.12
11.65
-0.06
-14.92
-30.82
-45.14
-55.81
-62.04
-64.21
-63.06
-58.82
-50.97
-38.91
-22.84
-4.25
14.42
30.61
42.55
49.63
52.30
51.47
48.23
43.83
39.73
37.49
38.53
43.54
51.93
61.76
69.79
71.84
64.02
43.98
11.83
-29.82
-76.55
-123.30
-165.18
-198.06
-219.15
-227.13
-222.28
-206.24
-181.34
-149.79
-113.44
-73.89
-33.20
5.69
39.26
64.40
79.63
85.57
84.39
78.69
70.83
62.40
54.25
46.50
38.38
28.62
16.19
1.12
-15.07
-29.62
-39.64
-43.47
-41.50
-36.09
-30.50
-27.45
-28.33
-33.06
-40.33
-47.86
-52.62
-50.93
-39.32
-15.42
20.75
65.99
113.48
154.19
179.11
181.51
158.85
113.71
53.81
-9.05
-60.90
-89.24
-85.79
-48.45
17.53
100.65
185.66
257.40
304.30
320.61
305.80
264.01
202.78
131.33
59.12
-5.83
-57.78
-95.15
-115.49
-119.31
-111.36
-98.31
-84.99
-72.50
-59.72
-44.47
-25.89
-4.56
16.94
35.32
47.78
50.36
41.23
20.35
-9.76
-43.83
-74.54
-95.34
-102.50
-95.93
-78.50
-54.22
-27.62
-2.19
20.23
39.58
56.08
69.50
79.19
84.61
85.95
82.83
74.80
62.03
46.15
29.85
16.09
7.41
5.49
10.68
19.72
26.60
24.48
8.35
-23.92
-71.86
-133.03
-203.44
-268.34
-310.40
-318.78
-296.14
-254.48
-206.28
-159.74
-118.74
-84.03
-54.78
-31.20
-14.57
-5.90
-4.27
-6.99
-10.90
-13.59
-13.44
-9.16
-0.63
11.93
28.31
48.52
71.80
97.02
121.61
142.91
159.39
170.13
174.48
171.96
162.69
147.72
129.05
109.38
91.80
78.98
71.85
69.11
67.81
64.78
57.81
46.63
32.77
19.18
8.94
4.34
5.52
9.92
13.24
11.39
2.18
-13.61
-32.36
-48.79
-57.99
-57.94
-50.57
-40.91
-34.69
-36.42
-48.32
-70.00
-98.35
-128.00
-152.92
-167.92
-169.75
-157.92
-135.93
-111.47
-94.02
-90.56
-101.96
-123.28
-145.99
-160.43
-158.54
-135.88
-92.36
-31.37
42.31
124.25
208.67
288.83
349.37
373.69
357.00
310.21
250.73
193.22
147.65
119.74
104.65
96.06
87.15
71.39
44.28
4.35
-44.92
-96.28
-144.71
-187.89
-215.97
-220.69
-201.29
-165.66
-125.81
-98.92
-83.57
-75.10
-67.86
-55.46
-30.15
8.35
53.81
95.12
120.49
122.09
96.31
46.43
-17.13
-75.13
-110.97
-120.57
-111.95
-94.88
-73.55
-48.68
-19.80
12.44
44.51
69.36
82.46
83.21
77.54
72.91
73.84
80.55
89.78
96.12
92.24
75.02
45.17
7.49
-30.60
-60.82
-75.51
-69.94
-45.24
-14.84
10.29
19.39
6.97
-24.92
-67.72
-110.08
-142.66
-152.83
-142.12
-118.57
-91.51
-65.99
-42.64
-20.17
1.72
21.43
36.50
43.61
43.15
37.81
31.72
28.43
29.59
34.62
41.59
48.32
52.38
53.94
54.54
56.38
61.00
68.58
77.70
86.32
92.17
92.95
88.19
78.58
65.62
50.91
36.08
21.94
8.90
-2.87
-13.49
-22.63
-29.89
-34.84
-37.42
-37.82
-36.68
-34.63
-32.26
-30.09
-28.27
-26.78
-25.47
-24.19
-22.85
-21.44
-20.01
-18.59
-17.22
-15.89
-14.62
-13.37
-12.14
-10.94
-9.79
-8.71
-7.70
-6.76
-5.91
-5.16
-4.45
-3.81
-3.23
-2.75
-2.34
-2.03
-1.78
-1.63
-1.87
-2.23
-2.68
-3.21
-3.83
-4.53
-5.30
-6.11
-6.98
-7.96
-8.97
-10.01
-11.10
-12.24
-13.49
-14.94
-16.58
-18.57
-21.08
-24.12
-27.67
-31.57
-35.56
-39.28
-42.63
-44.72
-45.07
-43.40
-39.51
-33.50
-25.72
-16.71
-7.13
2.37
11.37
19.26
25.79
30.92
34.76
37.56
39.67
41.42
43.05
44.69
46.20
47.45
48.25
48.25
47.24
45.22
42.18
38.13
33.38
28.10
22.64
17.52
13.16
10.10
8.98
10.18
13.95
20.60
29.81
41.06
53.59
66.37
78.30
88.23
95.19
98.69
98.72
95.28
88.92
80.62
71.60
63.00
55.97
51.49
50.51
53.78
61.05
71.91
85.68
100.97
116.17
129.74
140.09
145.68
148.61
148.89
146.22
139.75
128.20
110.49
86.21
56.05
21.87
-13.38
-46.92
-76.32
-100.28
-118.86
-133.27
-145.05
-155.52
-165.30
-174.37
-182.93
-191.43
-200.92
-213.12
-230.05
-253.71
-285.94
-327.84
-379.07
-436.81
-494.72
-543.79
-574.81
-581.48
-562.50
-521.61
-465.94
-402.85
-337.01
-269.80
-200.70
-129.64
-58.40
9.64
70.75
121.90
161.60
190.37
209.49
219.77
221.26
213.93
198.80
178.56
157.39
140.12
131.92
136.51
154.77
184.45
221.04
259.45
295.36
325.65
342.62
339.19
313.25
270.00
218.19
164.95
114.39
68.34
27.50
-7.97
-37.20
-59.58
-75.45
-86.30
-94.83
-103.38
-113.30
-124.98
-138.07
-150.79
-160.79
-167.53
-169.09
-164.58
-153.60
-135.98
-111.86
-81.82
-46.49
-7.51
32.02
69.21
101.28
126.36
143.63
153.29
156.18
153.77
147.67
139.43
130.42
121.29
112.35
103.75
95.53
87.67
80.14
72.94
66.10
59.82
54.09
48.84
43.99
39.46
35.16
31.02
26.98
23.04
19.34
15.93
12.85
10.08
7.62
5.36
3.31
1.42
-0.34
-1.92
-3.29
-4.46
-5.43
-6.22
-6.89
-7.43
-7.84
-8.15
-8.34
-8.43
-8.39
-8.23
-7.65
-6.93
-6.12
-5.20
-4.24
-3.24
-2.18
-1.04
0.21
1.64
3.34
5.49
8.25
11.63
15.66
20.31
25.47
31.17
36.87
42.12
46.50
49.61
50.91
50.03
46.75
41.07
33.22
23.63
12.98
1.41
-9.64
-19.46
-27.61
-33.88
-38.31
-41.16
-42.82
-43.79
-44.42
-44.82
-45.17
-45.35
-45.19
-44.40
-42.70
-39.99
-36.30
-31.84
-26.89
-21.98
-17.67
-14.36
-12.37
-11.80
-12.51
-14.15
-16.25
-18.20
-19.55
-19.91
-19.02
-16.92
-13.87
-10.36
-6.99
-4.39
-3.17
-3.75
-6.26
-10.52
-16.00
-21.88
-27.40
-31.77
-34.34
-34.70
-32.86
-29.04
-23.72
-17.48
-10.91
-4.61
1.02
5.74
9.44
12.12
13.99
15.34
16.57
18.08
20.04
22.55
25.42
28.29
30.72
32.33
32.98
32.77
31.95
30.70
29.12
27.01
24.03
19.89
14.53
8.39
2.30
-2.66
-5.54
-5.84
-3.72
0.16
4.97
9.98
14.89
19.79
25.03
30.90
37.74
45.78
55.08
65.26
74.94
81.88
83.40
77.52
64.00
44.75
23.31
3.37
-12.50
-23.60
-30.73
-35.31
-38.31
-40.16
-40.65
-39.68
-37.75
-35.93
-35.23
-35.97
-37.58
-38.79
-38.32
-35.48
-30.49
-24.41
-18.52
-13.86
-10.72
-8.69
-6.83
-4.22
-0.35
4.58
9.70
13.84
16.05
15.95
13.93
10.96
8.10
6.11
5.15
4.81
4.42
3.39
1.45
-1.31
-4.52
-7.78
-10.73
-13.15
-14.92
-15.86
-15.85
-14.84
-13.06
-10.98
-9.34
-8.81
-9.78
-12.14
-15.30
-18.37
-20.50
-21.21
-20.48
-18.81
-16.90
-15.39
-14.67
-14.73
-15.27
-15.76
-15.72
-14.77
-12.75
-9.73
-5.90
-1.58
2.91
7.22
11.09
14.31
16.78
18.54
19.67
20.28
20.38
19.94
18.88
17.18
14.98
12.63
10.60
9.27
8.76
8.84
9.00
8.70
7.58
5.69
3.40
1.19
-0.55
-1.71
-2.49
-3.26
-4.31
-5.70
-7.26
-8.72
-9.83
-10.51
-10.85
-11.11
-11.52
-12.10
-12.64
-12.80
-12.25
-10.84
-8.65
-5.93
-3.00
-0.14
2.50
4.89
7.01
8.79
10.11
10.78
10.70
9.87
8.53
6.99
5.61
4.61
3.95
3.43
2.76
1.76
0.51
-0.70
-1.55
-1.88
-1.79
-1.65
-1.84
-2.64
-3.98
-5.53
-6.92
-7.94
-8.64
-9.30
-10.26
-11.66
-13.43
-15.20
-16.47
-16.85
-16.20
-14.60
-12.35
-9.80
-7.17
-4.57
-1.98
0.72
3.56
6.43
9.15
11.44
13.08
13.97
14.06
13.31
11.77
9.50
6.74
3.96
1.67
0.35
0.17
0.85
1.78
2.29
1.89
0.57
-1.34
-3.36
-5.01
-6.03
-6.39
-6.21
-5.68
-5.04
-4.51
-4.28
-4.48
-5.10
-6.00
-7.00
-7.97
-8.79
-9.37
-9.54
-9.08
-7.83
-5.77
-3.14
-0.36
2.17
4.21
5.78
7.13
8.48
9.86
11.08
11.75
11.55
10.49
8.94
7.46
6.65
6.74
7.48
8.32
8.62
8.04
6.68
4.99
3.42
2.30
1.54
0.76
-0.33
-1.91
-3.77
-5.47
-6.69
-7.33
-7.64
-8.06
-8.95
-10.30
-11.81
-12.92
-13.20
-12.49
-11.02
-9.21
-7.43
-5.80
-4.14
-2.21
0.14
2.81
5.40
7.47
8.64
8.88
8.38
7.54
6.68
6.01
5.59
5.32
5.15
5.05
5.02
5.08
5.13
5.00
4.51
3.52
2.10
0.44
-1.16
-2.49
-3.50
-4.26
-4.93
-5.61
-6.24
-6.63
-6.62
-6.17
-5.49
-4.94
-4.93
-5.72
-7.25
-9.08
-10.56
-11.07
-10.17
-7.94
-4.85
-1.60
1.18
3.30
4.89
6.39
8.14
10.17
12.12
13.38
13.48
12.32
10.28
8.07
6.39
5.65
5.82
6.47
7.04
7.16
6.76
6.11
5.63
5.65
6.19
6.94
7.51
7.66
7.38
6.91
6.55
6.50
6.76
7.11
7.30
7.10
6.40
5.19
3.44
1.11
-1.82
-5.31
-9.11
-12.80
-15.83
-17.66
-17.96
-16.72
-14.31
-11.36
-8.49
-6.09
-4.28
-2.95
-1.91
-1.13
-0.77
-1.13
-2.43
-4.58
-7.17
-9.54
-11.06
-11.37
-10.51
-8.91
-7.13
-5.62
-4.55
-3.77
-3.01
-2.09
-1.11
-0.42
-0.43
-1.34
-2.99
-4.81
-6.16
-6.51
-5.67
-3.89
-1.63
0.51
2.15
3.04
3.19
2.74
1.86
0.76
-0.38
-1.43
-2.26
-2.69
-2.53
-1.57
0.26
2.88
6.01
9.26
12.20
14.53
16.12
16.93
16.96
16.18
14.56
12.20
9.38
6.58
4.32
2.94
2.49
2.66
2.99
3.01
2.51
1.57
0.44
-0.59
-1.42
-2.11
-2.85
-3.80
-5.01
-6.38
-7.78
-9.19
-10.70
-12.45
-14.38
-16.14
-17.09
-16.56
-14.18
-10.20
-5.48
-1.16
1.79
3.06
3.10
2.94
3.70
6.06
10.02
14.91
19.76
23.63
25.93
26.61
25.90
24.19
21.83
18.98
15.77
12.34
9.01
6.22
4.43
3.90
4.51
5.75
6.95
7.53
7.23
6.11
4.52
2.86
1.41
0.34
-0.40
-0.82
-0.99
-0.97
-0.84
-0.84
-1.21
-2.22
-3.98
-6.39
-9.22
-12.18
-15.03
-17.66
-20.10
-22.41
-24.54
-26.25
-27.20
-27.02
-25.46
-22.50
-18.35
-13.43
-8.26
-3.29
1.15
4.93
8.00
10.33
11.80
12.22
11.49
9.70
7.31
5.02
3.58
3.47
4.69
6.74
8.85
10.26
10.49
9.56
7.79
5.67
3.62
1.81
0.24
-1.24
-2.78
-4.40
-5.98
-7.40
-8.51
-9.34
-10.00
-10.65
-11.39
-12.14
-12.79
-13.12
-13.09
-12.76
-12.29
-11.76
-11.11
-10.09
-8.36
-5.73
-2.29
1.50
5.05
7.80
9.43
9.98
9.76
9.20
8.62
8.15
7.71
7.16
6.44
5.65
5.03
4.82
5.11
5.76
6.54
7.12
7.35
7.28
7.05
6.83
6.59
6.12
5.17
3.65
1.70
-0.27
-1.80
-2.68
-3.02
-3.32
-4.14
-5.79
-8.16
-10.73
-12.83
-13.96
-14.01
-13.20
-11.94
-10.52
-8.90
-6.84
-4.02
-0.36
3.93
8.33
12.26
15.28
17.23
18.24
18.61
18.61
18.38
17.94
17.25
16.34
15.38
14.60
14.21
14.22
14.43
14.41
13.66
11.95
9.31
6.21
3.27
1.06
-0.17
-0.53
-0.53
-0.76
-1.49
-2.67
-3.84
-4.47
-4.26
-3.36
-2.20
-1.35
-1.08
-1.14
-0.90
0.36
2.97
6.65
10.65
14.29
17.39
20.41
24.20
29.48
36.56
45.26
55.17
66.09
77.90
90.33
102.25
111.57
115.58
112.28
101.58
85.66
68.63
54.89
47.50
46.80
50.35
54.05
54.04
48.40
37.05
21.49
3.90
-14.07
-32.01
-50.99
-72.77
-99.18
-131.15
-169.14
-211.69
-254.61
-290.34
-308.91
-301.03
-261.45
-192.15
-103.07
-11.66
63.26
107.58
116.52
94.93
53.57
4.38
-42.86
-81.21
-108.07
-122.70
-125.72
-119.80
-110.81
-108.11
-122.02
-159.39
-205.56
-239.95
-244.32
-214.44
-160.37
-97.25
-37.29
13.24
53.43
85.88
112.09
132.51
147.17
156.97
163.71
169.15
174.09
179.10
183.99
186.60
184.44
175.59
159.58
137.20
109.87
80.01
50.07
22.51
-1.21
-20.10
-33.96
-43.11
-48.42
-51.38
-53.48
-55.88
-59.11
-63.77
-70.03
-76.88
-81.26
-78.48
-64.38
-38.54
-5.67
25.58
46.18
51.12
41.55
23.73
5.40
-8.03
-15.78
-19.52
-21.80
-24.63
-28.74
-34.35
-41.51
-49.94
-58.60
-65.91
-70.61
-72.25
-70.91
-65.93
-55.15
-35.87
-6.78
29.79
67.33
96.49
109.65
104.82
86.24
61.37
36.96
16.30
-1.22
-18.29
-37.19
-57.65
-77.42
-92.84
-101.39
-102.86
-98.99
-92.48
-85.22
-77.65
-68.69
-56.17
-37.45
-11.80
18.59
49.23
75.00
92.16
99.32
97.41
89.53
81.03
76.15
76.30
80.35
86.23
93.06
102.29
112.25
124.57
143.96
173.93
214.90
263.77
315.03
362.27
399.08
419.59
403.94
343.01
243.37
125.69
13.23
-78.71
-145.42
-189.36
-216.04
-230.11
-232.39
-223.29
-205.11
-182.62
-161.73
-147.09
-140.78
-142.05
-147.43
-150.73
-147.20
-135.36
-117.52
-98.01
-80.56
-67.20
-58.30
-52.90
-48.44
-42.22
-32.29
-17.44
2.94
28.46
57.02
83.57
103.13
112.87
112.80
105.41
94.08
81.40
68.24
54.07
38.16
21.17
5.43
-5.86
-10.42
-8.20
-2.22
2.73
1.46
-9.45
-29.77
-55.69
-80.94
-98.95
-104.93
-97.20
-77.44
-50.28
-22.10
0.76
13.74
15.44
7.61
-6.03
-21.64
-36.58
-49.73
-60.75
-68.84
-72.15
-68.80
-58.32
-42.86
-26.88
-15.07
-9.89
-10.56
-13.78
-15.88
-15.01
-12.12
-9.97
-11.56
-18.17
-28.25
-37.83
-42.12
-37.70
-23.85
-2.54
22.86
49.00
73.36
94.58
112.04
125.39
134.52
139.58
141.39
141.47
141.52
142.52
143.93
143.69
139.15
128.42
111.65
91.32
71.38
55.60
46.13
42.72
43.07
44.07
43.23
39.40
32.78
24.43
15.39
6.22
-3.13
-13.01
-23.59
-34.26
-43.65
-50.22
-52.90
-51.81
-48.26
-44.30
-41.94
-42.44
-45.92
-51.47
-57.70
-63.39
-67.96
-71.54
-74.55
-77.40
-80.07
-82.00
-82.34
-80.54
-76.71
-71.91
-67.84
-66.03
-67.18
-70.71
-74.89
-77.65
-77.51
-74.18
-68.42
-61.71
-55.57
-50.99
-48.16
-46.67
-46.07
-46.28
-47.27
-48.60
-49.84
-50.67
-51.11
-51.10
-50.48
-49.17
-47.08
-43.82
-38.82
-32.50
-26.20
-21.83
-20.71
-23.00
-27.93
-33.92
-38.54
-38.41
-31.12
-14.99
10.81
46.77
92.78
147.45
204.41
251.33
277.77
280.69
264.97
237.90
205.75
172.87
141.90
114.51
91.72
75.47
62.77
49.43
30.89
3.79
-33.25
-79.24
-130.76
-183.58
-223.66
-241.72
-236.08
-211.22
-174.00
-131.12
-87.99
-48.38
-15.51
8.75
23.53
29.61
32.45
39.25
55.96
85.23
125.63
170.63
210.46
234.61
234.02
206.14
155.96
92.26
22.28
-43.63
-98.80
-142.28
-177.45
-211.00
-246.89
-274.59
-282.76
-265.82
-228.13
-181.86
-146.57
-121.47
-101.42
-81.06
-57.68
-31.63
-8.31
6.93
10.90
5.13
-3.77
-9.62
-7.24
5.87
28.00
54.48
79.99
99.82
112.29
119.05
121.86
122.93
125.35
132.80
149.14
177.37
209.77
235.63
245.91
238.06
216.33
187.37
156.39
125.69
95.28
64.21
33.43
6.14
-13.44
-21.84
-20.35
-13.29
-7.65
-11.40
-30.60
-66.22
-113.37
-159.50
-190.97
-200.14
-187.30
-159.26
-125.13
-92.39
-64.81
-42.73
-24.89
-10.51
-1.61
1.49
1.44
3.66
13.34
30.96
51.00
64.41
63.37
42.82
4.17
-44.21
-90.76
-120.41
-125.75
-110.16
-87.94
-64.07
-41.54
-23.19
-10.96
-6.25
-8.55
-18.05
-33.08
-47.56
-47.95
-26.33
12.25
53.47
82.46
91.62
84.61
67.73
48.08
31.55
20.97
9.46
-10.54
-42.81
-85.15
-128.57
-161.20
-181.61
-188.37
-176.01
-144.22
-93.12
-22.67
65.35
164.84
257.93
319.77
337.03
314.55
266.82
209.38
153.52
104.93
65.32
34.20
13.32
4.72
9.45
23.25
38.23
45.47
39.07
19.05
-8.52
-33.02
-41.48
-25.88
11.17
59.25
105.59
140.79
160.96
166.13
157.70
136.70
103.04
57.07
3.23
-49.61
-91.24
-115.44
-123.10
-121.30
-118.70
-121.15
-128.77
-135.89
-133.96
-116.29
-82.22
-37.29
9.67
50.76
81.47
100.53
108.24
104.80
90.14
64.84
31.40
-5.35
-40.43
-70.62
-95.67
-117.58
-138.33
-157.17
-170.59
-174.19
-165.69
-147.02
-123.80
-103.36
-91.83
-92.24
-103.82
-123.27
-146.31
-168.77
-187.18
-198.56
-200.23
-189.92
-166.82
-132.90
-93.54
-56.78
-30.18
-17.77
-17.86
-23.98
-27.91
-23.71
-10.26
9.33
30.50
50.87
71.55
96.03
126.92
163.31
200.00
229.16
243.74
240.58
221.35
191.80
159.82
133.00
116.46
111.83
117.30
128.23
138.50
142.57
136.95
121.12
97.72
71.12
46.01
26.00
12.86
6.56
5.76
8.02
10.20
9.21
3.05
-8.15
-21.66
-33.10
-38.48
-36.38
-29.27
-22.82
-23.10
-33.58
-53.96
-81.03
-110.99
-141.20
-170.37
-197.53
-220.31
-234.93
-237.78
-227.54
-206.68
-181.08
-157.63
-141.24
-133.05
-130.15
-127.38
-120.04
-105.81
-85.23
-61.04
-36.96
-16.29
-1.12
8.18
12.94
15.48
18.64
25.19
37.05
55.05
78.94
107.65
140.56
177.80
219.68
265.60
313.11
357.96
394.98
419.55
428.35
420.96
399.24
365.55
321.42
267.61
205.42
137.78
69.31
4.03
-53.65
-100.27
-135.61
-162.91
-186.77
-210.47
-234.65
-257.70
-278.74
-294.66
-300.58
-292.77
-271.19
-240.02
-206.54
-179.63
-167.44
-176.75
-205.61
-242.81
-273.49
-285.24
-271.22
-230.62
-167.58
-73.93
37.42
139.27
209.88
244.84
251.84
241.36
222.32
201.41
182.08
163.57
143.41
121.14
95.57
63.94
24.15
-22.76
-66.61
-96.43
-107.64
-101.23
-81.37
-54.19
-25.81
-0.20
21.40
39.40
53.51
62.03
64.86
64.82
65.60
69.79
78.26
90.06
103.30
114.55
119.94
117.39
107.40
91.97
73.33
53.61
34.80
17.95
2.97
-10.81
-23.64
-34.92
-43.71
-49.28
-51.30
-50.12
-46.66
-42.23
-38.02
-34.76
-32.58
-31.19
-30.12
-28.79
-26.98
-24.75
-22.42
-20.29
-18.58
-17.29
-16.37
-15.61
-14.85
-14.01
-13.16
-12.32
-11.57
-10.94
-10.49
-10.23
-10.14
-10.23
-10.47
-10.84
-11.35
-12.02
-12.84
-13.86
-15.16
-16.68
-18.31
-19.91
-21.38
-22.63
-23.66
-24.53
-25.46
-27.23
-29.66
-33.04
-36.90
-40.75
-43.98
-45.97
-46.21
-44.35
-40.38
-34.06
-25.43
-14.46
-1.21
14.00
30.47
47.00
62.12
74.18
82.14
85.42
84.48
80.32
74.13
66.83
58.80
49.85
39.27
26.84
12.78
-1.89
-15.70
-27.67
-37.51
-45.87
-52.94
-60.80
-70.72
-83.38
-98.93
-116.78
-135.36
-151.25
-159.81
-156.84
-140.67
-113.55
-81.68
-53.03
-34.20
-27.81
-31.87
-41.58
-52.11
-59.93
-63.51
-62.62
-57.19
-46.50
-29.77
-7.01
20.23
48.70
74.91
96.09
110.96
119.66
123.67
124.74
124.22
122.75
120.21
116.18
110.46
103.43
95.71
88.54
82.90
79.22
77.34
76.51
75.63
73.73
71.06
66.49
59.92
51.54
41.70
30.88
19.62
8.74
-0.81
-7.89
-11.66
-11.29
-6.34
2.94
15.69
30.14
44.08
55.15
61.15
60.60
53.14
39.49
21.30
0.89
-19.62
-38.52
-54.50
-66.91
-75.21
-78.72
-76.77
-69.04
-55.58
-37.72
-17.85
1.00
15.98
25.47
29.21
28.45
25.44
22.87
23.17
28.22
39.11
54.05
71.08
85.64
91.97
85.46
65.34
35.44
3.05
-24.21
-41.49
-47.84
-46.27
-40.95
-34.91
-28.79
-21.90
-13.39
-3.51
6.48
15.41
22.54
28.31
33.82
40.26
47.73
55.06
60.34
61.61
57.71
48.55
35.21
19.49
3.64
-10.78
-23.21
-33.75
-42.83
-50.74
-57.53
-62.80
-66.16
-67.37
-66.42
-63.93
-60.70
-57.48
-54.78
-52.83
-51.42
-50.32
-49.37
-48.38
-47.62
-47.41
-48.00
-49.47
-51.77
-54.56
-57.36
-60.46
-62.52
-62.87
-61.00
-56.63
-49.68
-40.35
-29.01
-16.36
-3.24
9.66
21.50
31.60
39.54
45.22
48.73
50.48
50.87
50.36
49.44
48.27
46.91
45.18
42.98
40.18
36.74
32.73
28.45
24.32
20.66
18.01
16.69
16.89
18.62
21.75
25.81
30.19
34.24
37.12
38.42
37.85
35.70
32.75
30.19
29.28
31.04
36.08
44.40
55.49
68.21
81.64
95.16
108.34
120.98
132.71
142.91
150.46
156.01
159.23
160.28
159.89
158.89
157.79
156.39
153.45
146.81
134.20
113.77
84.99
48.96
7.64
-36.71
-82.45
-129.05
-176.95
-227.05
-280.66
-339.06
-403.11
-472.45
-544.38
-613.35
-671.54
-710.93
-726.14
-716.79
-687.56
-646.22
-600.49
-555.64
-513.52
-473.48
-434.22
-394.99
-355.77
-316.18
-274.46
-227.56
-172.33
-107.30
-34.26
41.88
114.47
177.95
230.37
274.00
314.22
357.02
406.48
463.26
524.54
584.95
637.75
676.09
694.32
689.47
662.17
616.91
560.89
501.97
446.44
397.52
355.73
320.12
289.69
263.68
241.22
220.72
199.47
173.89
140.36
96.91
44.22
-13.19
-67.33
-108.40
-127.58
-119.99
-86.08
-31.11
36.75
108.19
174.10
225.82
255.48
257.07
228.28
172.31
97.93
17.47
-56.79
-115.88
-156.13
-179.09
-189.43
-193.19
-196.50
-205.01
-223.00
-252.37
-291.08
-332.92
-368.59
-387.71
-383.53
-356.50
-315.16
-273.24
-244.33
-236.14
-248.38
-273.89
-301.84
-323.61
-335.53
-337.77
-330.54
-312.01
-277.54
-223.95
-153.12
-71.45
10.00
79.15
127.20
151.97
156.75
149.69
138.39
127.96
123.30
127.24
140.35
160.90
186.67
214.43
242.52
268.09
272.37
241.37
174.05
83.36
-14.32
-99.93
-173.99
-237.70
-291.20
-332.30
-354.72
-353.10
-326.15
-277.62
-211.54
-133.28
-46.81
43.13
133.57
222.38
305.60
377.00
428.25
456.36
461.54
448.21
422.43
393.82
371.44
360.36
360.60
366.71
376.13
386.42
395.61
378.08
319.99
224.70
110.72
15.11
-58.49
-112.26
-148.11
-170.23
-179.19
-172.40
-149.25
-112.97
-74.94
-49.17
-42.46
-55.28
-83.91
-122.39
-162.81
-199.26
-228.91
-251.81
-269.78
-282.33
-287.83
-285.24
-274.51
-255.62
-230.12
-201.33
-173.46
-150.13
-130.93
-113.12
-94.44
-72.77
-45.86
-12.25
28.43
71.31
110.76
142.84
166.12
181.46
190.92
196.41
198.61
197.08
190.42
178.25
161.54
142.40
123.64
108.33
99.06
97.19
101.36
106.73
106.50
93.74
64.62
20.32
-32.36
-82.77
-119.72
-134.97
-125.40
-93.27
-45.61
7.56
54.94
86.47
95.78
82.23
51.16
12.10
-24.48
-50.68
-63.02
-62.38
-52.21
-36.53
-18.61
-0.87
14.85
26.50
32.17
30.94
23.33
11.31
-2.46
-15.84
-27.69
-38.04
-47.79
-57.59
-67.18
-75.28
-79.92
-79.18
-72.17
-59.18
-41.81
-22.71
-4.51
11.00
22.99
31.63
37.87
42.71
47.18
51.96
56.92
62.00
67.46
73.74
81.37
90.72
101.74
113.82
125.77
135.30
140.46
140.27
134.88
125.53
114.38
103.28
92.82
87.73
89.26
97.49
112.01
132.18
157.14
185.57
215.07
241.94
261.33
266.93
253.72
219.42
165.46
96.67
20.15
-56.37
-126.20
-184.70
-230.43
-263.25
-283.91
-294.27
-297.57
-297.15
-294.98
-289.71
-276.68
-252.21
-214.57
-167.40
-120.48
-87.09
-78.06
-96.92
-137.88
-189.11
-241.74
-289.88
-330.85
-363.92
-388.20
-400.39
-396.70
-375.11
-338.14
-297.47
-263.96
-242.51
-232.39
-231.29
-236.87
-249.22
-269.22
-296.88
-336.08
-384.04
-430.14
-460.10
-463.26
-435.10
-379.55
-306.98
-195.61
-58.12
68.69
152.28
188.31
187.33
172.62
156.16
140.27
124.98
108.01
90.32
78.36
82.15
106.58
150.07
204.93
262.14
319.10
371.06
414.44
446.85
468.42
477.67
474.22
460.30
440.87
427.12
423.88
429.06
411.93
351.25
246.39
118.98
10.74
-75.46
-143.03
-196.99
-241.54
-273.78
-285.37
-270.21
-228.28
-166.55
-98.20
-32.11
25.55
71.67
106.53
134.75
160.32
184.39
205.03
216.77
218.15
210.24
195.95
179.98
169.14
169.23
182.99
209.21
240.34
267.48
282.60
281.56
266.08
243.02
220.68
205.01
198.09
195.48
189.43
173.42
145.19
107.17
63.98
20.47
-26.15
-68.38
-94.51
-98.81
-83.33
-55.28
-19.41
20.52
60.29
95.66
121.38
132.27
121.32
85.46
27.02
-47.41
-129.87
-212.25
-286.95
-346.34
-385.43
-406.75
-414.49
-412.63
-404.39
-393.42
-383.19
-376.47
-374.25
-353.66
-306.86
-241.92
-176.61
-125.00
-91.45
-72.56
-62.26
-54.24
-43.32
-29.26
-11.00
14.31
48.90
90.18
129.85
156.00
160.35
143.70
114.08
85.96
73.02
80.35
98.54
115.59
119.81
107.27
83.77
58.66
40.47
32.76
33.22
35.89
36.58
35.02
35.41
43.06
59.62
82.09
104.75
121.60
128.95
127.07
118.59
107.04
93.68
79.38
60.74
33.51
-4.82
-53.37
-107.17
-159.20
-202.24
-231.17
-244.27
-243.77
-234.28
-221.35
-210.51
-206.17
-210.73
-223.23
-239.24
-251.77
-254.16
-242.59
-217.90
-186.08
-155.91
-134.81
-125.41
-125.33
-128.78
-129.52
-122.76
-105.74
-78.59
-43.00
-0.32
48.70
102.03
155.41
202.90
238.70
259.65
265.08
256.80
239.20
216.83
191.36
161.78
126.84
84.64
42.19
11.81
2.20
12.09
35.87
65.87
95.02
119.63
139.90
158.16
174.48
177.80
158.51
114.55
53.33
-12.44
-71.04
-116.86
-150.49
-177.08
-202.44
-228.31
-253.56
-274.51
-288.29
-293.70
-290.89
-280.22
-262.51
-238.77
-209.08
-172.91
-130.07
-83.02
-35.68
8.16
46.02
77.20
102.21
123.07
142.03
160.49
178.30
194.21
206.26
212.60
212.67
206.45
194.69
178.47
159.12
137.99
116.94
97.74
82.29
73.31
72.10
77.80
87.22
95.84
98.97
93.51
78.07
54.09
27.15
3.25
-13.31
-20.93
-20.15
-12.53
0.76
18.74
42.29
76.04
123.57
185.49
258.50
336.74
413.60
483.04
539.92
559.62
525.71
435.23
302.01
148.82
-3.05
-140.36
-252.27
-343.09
-415.91
-467.76
-495.16
-496.67
-475.07
-432.85
-372.63
-300.04
-222.99
-149.17
-82.29
-24.04
25.29
64.50
92.68
109.04
113.33
106.84
92.45
75.17
59.46
52.83
53.21
57.20
61.24
57.55
46.71
32.09
18.49
10.04
9.00
14.25
23.49
33.31
40.52
43.91
43.63
41.22
38.77
38.08
39.63
43.89
50.53
57.75
62.68
60.89
48.08
22.71
-12.44
-51.06
-85.05
-108.13
-118.46
-118.42
-113.00
-106.73
-101.45
-96.29
-89.50
-80.03
-68.51
-56.81
-46.61
-38.31
-30.77
-21.94
-10.00
5.32
22.13
37.07
46.47
47.70
39.78
23.34
0.07
-27.96
-57.27
-83.67
-102.44
-109.41
-102.75
-84.40
-59.90
-36.46
-20.25
-14.28
-17.98
-28.50
-42.63
-58.24
-74.39
-90.59
-105.29
-115.87
-119.64
-115.03
-102.29
-83.22
-60.52
-36.80
-14.24
6.28
24.43
40.34
53.92
64.65
71.96
75.43
75.12
71.91
67.63
63.39
60.33
58.94
59.03
59.99
61.06
61.61
61.49
61.40
61.42
61.82
62.59
63.29
63.30
61.82
58.27
52.26
43.90
33.40
21.45
8.85
-3.59
-15.00
-24.65
-31.85
-36.32
-38.02
-37.44
-35.01
-31.48
-27.74
-24.58
-22.57
-22.11
-23.36
-26.21
-30.52
-35.60
-40.77
-45.48
-49.28
-51.88
-53.33
-53.91
-54.16
-54.82
-56.02
-57.83
-60.23
-63.00
-65.92
-68.83
-71.69
-74.67
-78.09
-81.57
-84.50
-86.30
-86.54
-85.21
-82.40
-78.48
-74.05
-69.88
-65.54
-60.28
-53.16
-43.09
-29.43
-11.51
11.39
40.67
71.01
100.22
127.19
151.38
172.76
191.14
207.20
221.83
235.48
247.16
255.42
258.39
253.86
240.12
215.68
182.13
142.76
101.23
59.84
20.19
-15.33
-45.07
-68.58
-88.94
-106.84
-121.53
-131.42
-135.52
-133.23
-121.81
-100.13
-69.90
-39.15
-11.64
12.68
37.16
65.06
98.70
142.33
197.25
260.58
320.81
372.02
413.39
448.20
478.75
480.34
438.29
356.25
276.46
201.29
123.08
28.64
-82.96
-207.53
-338.11
-462.35
-568.87
-633.80
-645.01
-603.20
-525.52
-433.75
-344.89
-267.50
-200.91
-142.34
-90.52
-51.85
-29.06
-20.71
-21.16
-24.60
-26.90
-24.29
-15.36
-1.21
11.41
18.19
18.20
14.03
8.98
5.46
5.47
9.57
16.79
23.23
26.30
25.38
22.02
18.46
16.50
17.61
22.49
31.01
41.67
53.16
64.71
76.20
87.53
98.18
107.14
113.13
115.05
111.91
103.28
89.49
71.47
51.29
30.74
11.40
-5.53
-19.29
-29.56
-36.46
-40.41
-41.90
-41.57
-40.14
-38.16
-35.99
-33.82
-31.77
-29.88
-28.16
-26.46
-24.73
-23.01
-21.33
-19.71
-18.12
-16.61
-15.17
-13.77
-12.43
-11.09
-9.79
-8.55
-7.63
-6.81
-6.07
-5.41
-4.82
-4.30
-3.80
-3.35
-2.96
-2.64
-2.40
-2.31
-2.37
-2.58
-2.92
-3.28
-3.62
-3.94
-4.30
-4.66
-5.20
-5.97
-6.98
-8.30
-9.98
-12.13
-14.95
-18.62
-23.28
-29.08
-35.83
-42.98
-50.24
-56.38
-60.37
-61.39
-59.07
-53.62
-45.63
-35.86
-25.28
-14.71
-4.67
4.53
12.56
18.80
22.66
23.66
21.77
17.50
11.89
6.57
3.17
2.52
4.53
8.42
12.76
16.34
18.51
19.26
19.36
19.23
18.82
17.20
13.04
5.08
-7.54
-24.34
-45.32
-69.83
-96.03
-120.27
-137.87
-144.37
-137.82
-120.30
-97.63
-77.37
-65.50
-64.30
-70.36
-78.20
-82.41
-79.89
-69.92
-53.59
-32.55
-7.85
19.25
47.54
74.99
99.00
117.12
127.89
131.47
129.47
124.15
118.20
113.51
110.77
109.63
108.96
107.81
105.62
103.61
100.94
97.58
93.50
88.00
80.49
70.18
56.87
40.97
23.57
5.68
-11.36
-26.37
-38.93
-48.82
-56.27
-61.47
-64.86
-66.60
-67.03
-66.55
-65.70
-65.17
-65.50
-66.84
-69.00
-71.85
-74.87
-77.50
-79.27
-80.06
-80.07
-79.30
-77.66
-75.19
-72.10
-68.46
-64.32
-60.33
-57.56
-57.44
-60.81
-67.66
-77.61
-89.80
-101.84
-111.35
-117.18
-118.87
-116.19
-112.47
-108.36
-103.84
-98.48
-89.20
-74.31
-54.73
-33.65
-14.77
-0.54
9.12
16.41
25.42
45.12
82.49
139.41
212.35
294.44
378.03
456.36
523.88
576.81
618.23
650.92
675.14
689.44
693.04
687.17
673.83
653.47
592.07
474.53
310.77
132.61
-25.90
-144.08
-216.91
-251.82
-261.14
-256.34
-239.48
-210.69
-171.61
-127.53
-84.93
-49.97
-29.35
-25.78
-36.83
-51.93
-61.42
-60.69
-50.70
-35.20
-18.06
-6.56
-5.60
-15.87
-29.44
-40.69
-49.34
-60.06
-79.32
-112.51
-168.52
-251.56
-358.17
-476.82
-594.65
-702.20
-793.98
-867.17
-881.43
-815.05
-677.09
-502.60
-327.54
-172.91
-45.89
54.64
132.91
194.13
237.03
261.32
270.77
273.14
275.68
281.06
289.64
299.24
307.40
307.40
294.34
268.32
234.84
200.33
168.15
140.30
117.65
101.16
88.88
78.26
68.54
61.12
62.06
71.18
86.14
102.70
117.44
127.13
128.52
120.43
104.30
88.20
76.73
71.31
67.64
61.89
53.59
43.56
26.12
5.52
-15.27
-36.87
-61.10
-94.63
-143.56
-197.68
-250.46
-296.61
-331.98
-355.69
-369.60
-375.92
-381.93
-392.04
-405.83
-421.42
-436.49
-449.17
-459.67
-469.02
-444.19
-371.24
-259.98
-135.91
-21.77
72.92
148.93
210.09
260.21
301.92
331.49
346.82
351.01
348.65
343.39
336.99
329.22
318.97
304.82
281.35
245.31
196.57
142.11
89.68
44.80
10.11
-13.96
-28.63
-38.65
-47.95
-58.02
-67.92
-76.15
-81.47
-83.34
-81.87
-77.90
-74.06
-72.33
-73.43
-76.90
-82.41
-89.74
-97.75
-103.67
-103.29
-92.86
-70.71
-38.74
-2.41
30.85
54.65
66.35
67.56
62.45
55.27
48.43
42.16
35.71
28.68
21.60
15.80
12.29
10.87
10.25
8.76
4.90
-1.72
-10.47
-20.36
-30.37
-39.99
-49.56
-59.71
-70.91
-82.97
-95.08
-104.91
-110.08
-108.65
-99.64
-83.34
-61.02
-34.68
-6.63
20.76
45.84
67.44
84.89
97.87
106.29
110.45
110.85
108.13
103.25
97.26
90.95
84.76
79.43
74.66
70.40
66.56
63.00
59.97
57.71
56.48
56.18
56.81
58.06
59.55
61.06
61.64
60.71
57.87
52.99
46.10
37.56
27.86
17.66
7.53
-2.22
-11.30
-19.64
-27.39
-34.81
-42.14
-49.51
-56.72
-63.30
-68.78
-72.46
-73.59
-71.70
-66.57
-58.36
-48.08
-36.22
-23.51
-10.90
0.75
10.92
19.23
25.53
29.77
32.11
32.82
32.07
30.01
26.84
22.85
18.27
13.34
8.36
3.73
-0.17
-3.04
-4.66
-4.77
-3.12
0.42
5.98
13.18
21.67
30.95
40.54
49.31
56.28
60.60
61.60
58.85
52.40
42.58
30.19
16.13
1.38
-13.01
-26.26
-37.95
-47.93
-56.37
-63.59
-69.91
-75.49
-80.28
-83.77
-85.18
-83.64
-78.27
-68.37
-53.88
-35.21
-13.47
9.72
32.54
53.06
69.54
80.39
84.61
81.55
71.22
54.15
31.37
4.91
-22.77
-48.96
-71.16
-87.36
-96.47
-98.25
-93.59
-84.11
-71.28
-56.58
-41.41
-26.79
-13.49
-2.28
6.27
11.52
12.91
10.88
6.09
-0.28
-6.45
-9.97
-8.13
1.67
21.52
47.33
75.16
99.78
116.40
122.86
120.51
113.58
107.17
104.99
107.79
114.22
121.08
124.74
122.19
111.28
90.90
61.90
27.78
-5.32
-29.82
-40.56
-37.53
-25.97
-14.48
-11.25
-20.40
-40.64
-66.24
-89.26
-102.80
-102.75
-87.32
-57.47
-16.79
28.63
70.91
101.56
113.63
103.63
73.04
30.19
-12.93
-45.39
-61.73
-63.89
-59.75
-58.89
-68.59
-91.34
-123.20
-158.12
-191.87
-222.00
-245.98
-259.60
-257.11
-234.42
-190.94
-127.50
-48.25
38.66
124.74
203.59
272.49
333.03
388.16
423.71
428.06
397.78
337.65
258.45
173.32
96.36
40.88
11.45
1.93
0.48
-6.45
-29.79
-71.49
-124.54
-177.36
-218.67
-246.54
-267.28
-289.04
-302.23
-301.06
-280.07
-236.87
-185.04
-129.69
-78.27
-36.99
-2.58
30.60
66.63
105.91
142.80
167.42
172.62
155.64
121.75
83.10
51.78
33.31
26.79
27.63
32.04
40.58
54.57
74.14
95.94
112.63
115.99
102.83
77.08
47.86
24.38
8.51
-6.16
-30.72
-73.85
-135.40
-204.46
-263.78
-297.63
-298.40
-269.35
-221.08
-165.33
-109.71
-56.46
-4.80
44.83
88.40
119.13
131.48
125.53
109.28
96.09
98.28
120.26
155.33
188.18
201.19
182.42
130.65
55.38
-27.52
-102.04
-156.92
-187.43
-194.61
-183.39
-160.17
-131.11
-100.49
-69.96
-39.17
-7.20
25.97
58.51
86.99
107.86
118.26
117.28
105.71
85.36
58.84
30.01
4.31
-12.46
-15.82
-5.52
15.55
42.73
71.18
96.96
117.40
130.70
134.96
128.78
110.71
82.21
47.12
9.45
-28.91
-67.93
-107.39
-146.19
-181.68
-212.46
-236.71
-252.73
-259.24
-256.21
-244.54
-225.86
-204.61
-175.45
-143.19
-117.40
-101.94
-89.98
-71.51
-44.45
-8.20
33.49
76.29
116.20
153.87
188.01
217.90
241.52
256.44
261.79
257.76
245.79
226.70
202.55
176.41
151.58
129.30
108.11
84.92
55.51
16.99
-31.32
-86.05
-141.01
-189.17
-225.28
-246.18
-249.75
-235.12
-202.97
-156.92
-103.23
-49.64
-2.89
32.97
57.19
71.64
78.56
79.43
75.13
67.16
58.21
51.63
49.49
51.21
53.88
54.18
50.57
44.44
38.92
36.67
38.17
41.40
43.41
42.44
39.30
37.10
39.22
47.07
58.91
70.60
77.33
75.86
65.82
49.41
30.10
11.07
-6.02
-21.07
-34.72
-47.85
-61.13
-75.19
-90.55
-107.45
-125.30
-142.56
-157.08
-166.84
-170.90
-169.86
-165.78
-161.54
-159.69
-161.46
-166.49
-172.80
-177.34
-176.91
-169.45
-154.73
-134.35
-110.62
-85.17
-58.49
-29.40
4.68
45.93
94.06
145.28
193.00
229.93
250.59
251.89
234.68
204.54
170.25
140.84
123.42
121.81
136.33
164.57
200.45
236.70
268.04
291.88
307.15
313.71
312.13
303.82
290.76
272.09
244.96
206.64
155.23
89.21
8.51
-84.19
-184.34
-269.88
-318.66
-326.49
-305.58
-271.35
-234.67
-200.77
-170.94
-144.54
-120.50
-100.66
-87.69
-81.80
-80.34
-79.90
-77.75
-72.52
-64.08
-52.98
-42.12
-34.66
-31.58
-31.38
-31.87
-31.16
-28.32
-23.22
-16.22
-9.03
-3.45
0.21
3.26
7.38
13.97
23.62
36.10
50.53
65.02
77.51
86.45
91.18
91.52
87.60
79.72
68.41
54.38
38.75
22.49
6.68
-7.54
-19.33
-28.20
-34.15
-37.50
-38.66
-38.24
-36.86
-34.99
-32.96
-30.96
-29.08
-27.34
-25.75
-24.16
-22.56
-20.97
-19.42
-17.93
-16.50
-15.13
-13.83
-12.54
-11.27
-10.01
-8.80
-7.63
-6.52
-5.48
-4.52
-3.85
-3.26
-2.72
-2.22
-1.78
-1.37
-1.02
-0.70
-0.42
-0.19
0.05
0.27
0.47
0.64
0.78
0.89
0.98
1.02
1.02
1.01
0.97
0.90
0.80
0.67
0.55
0.41
0.25
0.09
-0.09
-0.29
-0.52
-0.79
-1.10
-1.43
-1.80
-2.22
-2.70
-3.24
-3.85
-4.52
-5.26
-6.05
-6.85
-7.75
-8.73
-9.83
-11.10
-12.55
-14.13
-15.84
-17.79
-19.93
-22.52
-25.68
-29.47
-33.94
-38.93
-44.03
-48.90
-53.48
-56.94
-58.86
-58.99
-57.21
-53.53
-47.97
-40.73
-32.20
-22.76
-13.01
-3.76
4.24
10.40
14.52
16.71
17.48
17.47
17.37
17.52
17.77
17.77
17.18
15.67
13.21
10.18
6.95
3.76
0.39
-3.80
-9.50
-17.40
-27.72
-39.88
-52.69
-64.96
-75.65
-84.43
-91.09
-95.96
-100.07
-104.75
-111.72
-122.48
-137.07
-152.98
-165.07
-166.73
-153.29
-124.55
-85.70
-45.64
-13.75
4.01
6.83
-1.60
-14.81
-27.03
-34.73
-36.53
-32.25
-22.12
-6.69
12.92
29.68
38.56
37.18
27.15
13.89
4.26
3.40
12.44
27.96
44.23
56.74
63.53
65.65
66.22
68.73
75.38
85.63
96.03
100.98
95.09
74.90
40.53
-3.97
-52.20
-97.75
-135.50
-162.26
-176.10
-175.65
-160.67
-133.00
-97.17
-60.03
-28.84
-8.64
-0.82
-3.11
-11.00
-19.88
-26.75
-30.97
-33.56
-36.37
-40.67
-46.25
-51.41
-53.51
-50.22
-40.70
-26.16
-9.15
7.57
22.27
35.10
47.81
62.73
81.63
105.43
134.19
167.28
203.02
237.95
266.43
281.58
277.78
253.80
214.77
171.28
135.62
116.95
118.17
135.67
162.14
190.57
216.64
238.54
255.05
263.53
260.14
241.52
207.66
163.21
116.22
74.97
44.12
23.05
6.51
-11.96
-36.48
-65.96
-94.24
-112.60
-113.04
-91.85
-51.00
2.10
56.84
102.76
132.16
142.07
134.49
114.79
88.97
61.07
31.55
-1.20
-38.26
-77.17
-111.12
-131.57
-132.61
-114.84
-85.44
-54.41
-29.11
-10.49
6.11
26.79
53.58
81.86
102.17
106.02
90.82
61.25
26.42
-5.40
-30.71
-51.90
-75.05
-105.72
-146.16
-194.93
-248.19
-301.47
-350.55
-391.19
-418.84
-428.77
-417.69
-385.58
-336.50
-277.58
-216.57
-159.62
-109.83
-67.27
-30.41
2.93
34.80
67.00
100.98
136.85
172.63
204.56
228.83
243.28
248.67
248.64
247.56
247.86
248.34
244.73
231.87
206.77
170.03
125.32
77.35
29.76
-15.34
-56.33
-90.70
-115.15
-127.26
-127.94
-122.30
-118.34
-123.19
-138.82
-160.44
-178.19
-181.72
-165.05
-129.19
-81.73
-33.81
3.98
25.14
28.16
15.80
-6.72
-33.66
-60.11
-82.09
-95.89
-98.00
-85.47
-57.28
-15.41
34.96
86.85
133.63
171.49
200.62
224.75
249.03
276.77
307.39
335.24
351.35
347.10
317.88
265.50
197.63
124.91
56.62
-2.34
-52.24
-96.41
-138.06
-177.80
-213.02
-239.19
-251.81
-248.61
-230.19
-199.35
-159.70
-114.33
-65.24
-13.92
37.47
85.28
124.52
150.62
161.29
157.70
144.11
125.47
105.33
84.59
62.75
40.27
20.18
7.55
6.82
18.61
37.89
55.15
60.23
47.17
17.11
-22.21
-60.04
-87.79
-101.83
-104.20
-100.39
-95.52
-92.06
-89.58
-86.42
-81.66
-76.05
-71.20
-68.28
-66.51
-63.45
-56.01
-41.93
-20.75
6.27
36.40
66.60
94.32
118.16
137.92
153.88
165.91
173.13
173.83
166.81
152.96
135.50
119.15
108.25
104.25
105.34
107.77
108.25
105.99
102.77
101.14
102.27
104.92
105.85
101.47
89.85
71.63
49.33
25.92
3.18
-18.75
-40.66
-63.73
-88.69
-115.66
-144.59
-174.56
-203.18
-226.00
-236.91
-230.09
-202.61
-155.84
-95.68
-30.81
30.24
81.16
118.63
141.19
148.38
141.15
122.92
100.44
82.23
75.53
82.59
98.91
114.85
120.24
108.97
81.64
44.22
4.27
-32.44
-63.54
-88.45
-105.69
-112.00
-103.47
-78.56
-40.52
2.75
41.52
68.13
80.04
79.82
72.56
62.24
49.44
31.73
5.78
-29.64
-71.66
-113.92
-148.63
-169.72
-175.04
-166.46
-148.39
-124.89
-97.62
-66.08
-29.38
11.52
52.57
88.03
112.96
126.09
130.75
133.04
138.70
149.99
164.72
178.06
185.30
184.67
178.34
171.27
168.65
173.44
185.07
199.66
211.56
215.41
208.35
190.65
165.12
135.60
105.85
78.73
55.72
37.38
24.07
15.54
10.84
7.85
3.47
-5.41
-20.79
-42.50
-67.47
-90.50
-106.07
-110.50
-103.62
-88.88
-72.51
-61.05
-59.00
-67.45
-84.27
-105.72
-128.25
-149.41
-168.55
-186.29
-203.68
-221.85
-241.81
-264.15
-287.84
-309.34
-323.39
-325.10
-312.83
-290.36
-266.04
-250.00
-249.81
-267.54
-299.95
-340.83
-384.06
-425.28
-461.62
-489.93
-505.84
-503.86
-480.20
-435.01
-372.67
-300.70
-226.84
-156.37
-90.94
-29.52
28.77
82.12
125.47
152.98
162.14
156.72
146.45
143.14
154.47
179.95
210.96
235.10
243.03
233.07
211.34
187.56
169.39
158.77
152.74
146.82
138.64
129.32
121.62
117.50
115.62
111.67
100.71
79.67
48.36
8.81
-36.30
-84.96
-135.79
-186.67
-233.95
-272.87
-298.78
-308.90
-303.18
-283.49
-253.05
-214.94
-171.50
-124.82
-77.13
-30.70
12.58
51.72
86.95
119.45
151.09
183.92
219.87
259.97
303.72
348.32
388.36
417.30
430.14
425.96
408.81
386.41
366.26
352.14
341.91
329.08
306.63
270.80
223.04
168.44
112.62
59.02
8.05
-40.67
-85.54
-121.96
-143.99
-147.77
-135.03
-113.56
-94.69
-88.36
-99.17
-125.23
-160.03
-196.13
-227.98
-252.59
-268.66
-274.93
-269.53
-251.12
-220.09
-179.10
-132.31
-83.90
-37.08
6.66
47.02
84.22
118.62
150.26
178.63
202.75
220.97
232.02
235.76
233.73
228.45
222.08
214.98
204.98
188.16
161.01
122.55
75.09
23.28
-27.95
-75.49
-118.38
-157.40
-193.40
-226.07
-254.41
-277.33
-294.45
-305.63
-310.19
-306.34
-291.15
-261.86
-217.77
-160.96
-96.09
-28.61
37.18
98.80
155.44
206.91
252.28
289.46
315.40
327.11
322.56
300.88
263.02
212.09
153.38
93.88
41.04
0.57
-25.17
-38.34
-44.44
-49.67
-58.41
-71.45
-86.52
-100.20
-110.13
-116.28
-120.08
-122.62
-123.53
-121.26
-115.04
-106.55
-100.02
-100.67
-111.29
-130.07
