1589286789.00
64.000000
-0.00
-0.00
-0.00
-0.00
-0.00
-0.00
-0.00
-0.00
-0.00
-0.00
0.00
0.01
0.01
-0.00
-0.03
-0.05
-0.05
0.00
0.13
0.36
0.66
1.01
1.37
1.72
2.06
2.40
2.79
3.24
3.80
4.42
5.06
5.66
6.20
6.68
7.15
7.68
8.31
9.14
10.09
11.04
11.88
12.56
13.14
13.76
14.65
15.96
17.91
20.32
22.90
25.38
27.58
29.57
31.68
34.32
37.81
42.54
48.15
54.10
59.83
64.97
69.58
74.14
79.34
85.71
93.76
103.00
112.62
121.73
129.77
136.75
143.30
150.75
157.77
166.64
177.95
191.79
206.97
220.57
228.25
225.36
208.53
176.87
132.76
80.05
23.07
-34.94
-92.44
-149.16
-205.23
-260.37
-313.74
-363.87
-409.83
-450.91
-486.50
-515.74
-537.23
-549.22
-549.96
-538.37
-514.21
-478.67
-433.88
-382.45
-327.02
-269.84
-212.63
-156.66
-102.95
-52.37
-5.90
35.58
71.43
101.35
125.50
144.38
158.69
169.15
176.37
180.75
182.57
182.07
179.51
175.23
169.65
163.18
156.15
148.81
141.30
133.69
126.02
118.33
110.69
103.16
95.80
88.68
81.83
75.25
68.95
62.95
57.25
51.86
46.78
42.03
37.59
33.45
29.61
26.07
22.81
19.83
17.11
14.67
12.48
10.54
8.83
7.35
6.07
4.97
4.05
3.27
2.62
2.09
1.65
1.30
1.01
0.79
0.61
0.47
0.37
0.29
0.23
0.19
0.16
0.15
0.14
0.15
0.17
0.19
0.22
0.25
0.29
0.33
0.38
0.42
0.47
0.51
0.56
0.61
0.67
0.73
0.79
0.85
0.93
1.01
1.10
1.19
1.30
1.43
1.57
1.72
1.89
2.09
2.30
2.54
2.81
3.10
3.42
3.77
4.15
4.57
5.03
5.52
6.05
6.62
7.23
7.88
8.58
9.32
10.11
10.95
11.83
12.75
13.73
14.76
15.86
17.02
18.26
19.53
20.84
22.13
23.32
24.34
25.06
25.35
25.09
24.18
22.54
20.15
17.04
13.29
9.06
4.53
-0.09
-4.60
-8.80
-12.52
-15.64
-18.05
-19.70
-20.59
-20.77
-20.36
-19.51
-18.35
-17.04
-15.65
-14.23
-12.78
-11.25
-9.66
-8.05
-6.47
-4.98
-3.63
-2.40
-1.22
0.04
1.54
3.26
5.11
6.95
8.62
10.01
11.12
12.12
13.29
15.01
17.17
19.60
21.97
23.89
25.06
25.45
25.33
25.27
25.90
27.18
28.85
30.42
31.27
30.90
29.23
26.64
23.75
21.37
19.37
17.40
14.82
10.71
3.95
-6.80
-23.01
-46.33
-73.06
-100.33
-124.46
-141.66
-149.22
-146.53
-135.26
-118.65
-100.19
-82.30
-66.63
-53.39
-42.20
-32.81
-25.31
-19.86
-16.37
-14.40
-13.25
-12.95
-13.79
-16.25
-20.80
-27.27
-34.55
-40.68
-43.26
-40.25
-31.01
-16.28
2.05
21.50
39.81
55.48
67.89
77.07
83.27
86.52
86.78
84.08
78.73
71.45
63.26
55.16
47.83
41.59
36.27
31.57
27.24
23.15
19.28
15.63
12.07
8.36
4.10
-1.11
-7.66
-15.73
-25.25
-35.66
-45.87
-54.26
-59.03
-58.65
-52.34
-40.41
-24.29
-6.11
11.90
27.94
40.96
50.59
56.89
59.98
59.94
56.95
51.45
44.36
36.87
30.15
24.91
21.20
18.51
16.10
13.35
10.14
6.69
3.44
0.70
-1.57
-3.83
-6.79
-11.20
-17.52
-25.75
-35.36
-45.25
-54.00
-59.97
-61.77
-58.50
-50.07
-37.30
-21.69
-5.08
10.78
24.56
35.48
43.12
47.37
48.22
45.89
40.90
34.13
26.70
19.71
13.98
9.82
7.06
5.17
3.55
1.78
-0.35
-2.81
-5.50
-8.36
-11.45
-14.98
-19.23
-24.54
-31.21
-39.33
-48.61
-58.18
-66.53
-71.81
-72.24
-66.84
-55.81
-40.55
-23.25
-6.13
9.13
21.75
31.57
38.71
43.14
44.62
42.99
38.51
32.08
25.07
18.99
14.88
13.03
12.91
13.53
13.83
13.06
11.01
7.91
4.19
0.24
-3.80
-8.05
-12.90
-18.78
-26.07
-34.89
-45.03
-55.80
-66.06
-74.30
-78.84
-78.27
-71.86
-59.87
-43.56
-24.92
-6.17
10.82
24.97
35.94
44.02
49.66
53.21
54.79
54.37
52.04
48.18
43.51
38.91
35.16
32.64
31.26
30.52
29.85
28.76
27.05
24.75
21.96
18.72
14.93
10.43
5.12
-1.06
-8.05
-15.84
-24.45
-33.86
-43.76
-53.39
-61.41
-66.13
-65.98
-60.05
-48.51
-32.67
-14.61
3.47
19.80
33.43
44.12
52.08
57.54
60.60
61.22
59.43
55.56
50.34
44.70
39.53
35.48
32.77
31.21
30.42
29.97
29.54
29.02
28.38
27.51
26.12
23.75
19.94
14.49
7.66
0.14
-7.15
-13.51
-18.67
-22.98
-27.19
-32.15
-38.43
-46.22
-55.20
-64.60
-73.28
-79.86
-82.92
-81.30
-74.44
-62.69
-47.19
-29.73
-12.18
3.84
17.34
27.94
35.77
41.20
44.68
46.58
47.14
46.54
44.94
42.59
39.91
37.41
35.59
34.72
34.74
35.28
35.74
35.64
34.69
32.91
30.49
27.69
24.58
21.10
17.06
12.35
7.12
1.69
-3.39
-7.72
-11.15
-13.82
-16.15
-18.52
-21.22
-24.35
-27.88
-31.66
-35.51
-38.95
-41.12
-40.80
-36.71
-27.97
-14.45
2.94
22.58
42.51
60.97
76.83
89.60
99.30
106.28
110.88
113.43
114.17
113.36
111.30
108.32
104.70
100.57
95.91
90.54
84.25
76.88
68.45
59.03
48.68
37.28
24.57
10.32
-5.45
-22.17
-38.80
-53.99
-66.49
-75.54
-81.06
-83.71
-84.65
-85.24
-86.62
-89.40
-93.39
-97.57
-100.35
-100.03
-95.47
-86.55
-74.29
-60.57
-47.54
-37.06
-30.34
-27.92
-29.67
-34.95
-42.67
-51.39
-59.57
-65.78
-69.09
-69.20
-66.45
-61.60
-55.51
-48.92
-42.45
-36.61
-31.81
-28.42
-26.61
-26.31
-27.20
-28.81
-30.73
-32.69
-34.74
-37.12
-40.26
-44.61
-50.47
-57.80
-66.09
-74.19
-80.47
-83.20
-81.04
-73.59
-61.58
-46.67
-30.90
-16.04
-3.18
7.41
15.87
22.47
27.31
30.26
31.23
30.33
28.02
24.94
21.76
18.92
16.60
14.80
13.47
12.57
12.07
11.89
11.85
11.78
11.55
11.19
10.76
10.34
9.79
8.78
6.84
3.55
-1.18
-6.97
-12.93
-17.75
-20.01
-18.51
-12.65
-2.60
10.77
26.16
42.29
58.34
74.00
89.29
104.15
118.02
129.85
138.27
142.17
141.15
135.70
127.08
116.82
106.32
96.50
87.78
80.20
73.59
67.71
62.19
56.56
50.28
42.89
34.19
24.26
13.35
1.57
-11.36
-26.10
-43.51
-64.09
-87.51
-112.31
-136.05
-155.78
-168.72
-172.94
-167.81
-154.17
-134.15
-110.76
-87.17
-66.12
-49.41
-37.68
-30.55
-26.95
-25.51
-24.95
-24.32
-23.14
-21.49
-19.80
-18.65
-18.41
-19.13
-20.39
-21.60
-22.23
-22.07
-21.34
-20.46
-19.87
-19.79
-20.17
-20.81
-21.46
-22.07
-22.76
-23.84
-25.74
-28.84
-33.39
-39.32
-46.26
-53.40
-59.55
-63.24
-62.98
-57.72
-47.31
-32.73
-15.90
0.76
15.25
26.50
34.58
40.29
44.51
47.68
49.59
49.72
47.71
43.83
38.99
34.41
31.09
29.43
29.12
29.36
29.29
28.37
26.55
24.13
21.38
18.36
14.73
9.91
3.40
-4.97
-14.92
-25.90
-37.16
-47.98
-57.57
-65.14
-69.80
-70.80
-67.67
-60.55
-50.21
-37.98
-25.46
-14.26
-5.65
-0.30
1.69
0.82
-2.01
-5.89
-9.89
-13.19
-14.82
-13.75
-9.16
-0.90
10.07
21.78
31.81
38.16
40.00
37.87
33.22
27.76
22.73
18.66
15.51
12.91
10.45
7.68
4.19
-0.43
-6.30
-13.13
-20.04
-25.67
-28.55
-27.36
-21.49
-11.28
1.98
16.38
29.99
41.39
49.99
56.00
59.98
62.37
63.24
62.33
59.37
54.38
47.87
40.75
34.01
28.41
24.22
21.23
18.92
16.69
14.12
11.13
7.85
4.57
1.49
-1.42
-4.47
-8.21
-13.18
-19.78
-28.02
-37.40
-46.91
-55.11
-60.50
-61.82
-58.44
-50.54
-39.07
-25.43
-11.10
2.65
14.96
25.32
33.54
39.63
43.69
45.89
46.50
45.75
43.89
41.14
37.81
34.31
31.10
28.69
27.41
27.25
27.81
28.46
28.51
27.55
25.57
22.87
19.91
16.97
13.96
10.52
6.15
0.54
-6.30
-14.00
-21.95
-29.35
-35.31
-38.91
-39.31
-35.92
-28.60
-17.83
-4.61
9.69
23.68
36.26
46.71
54.75
60.37
63.65
64.70
63.61
60.49
55.55
49.16
41.89
34.52
27.83
22.49
18.72
16.34
14.71
13.06
10.73
7.40
3.09
-1.89
-7.18
-12.49
-17.70
-22.81
-27.87
-32.92
-38.03
-43.35
-49.05
-55.37
-62.36
-69.70
-76.61
-81.91
-84.27
-82.56
-76.18
-65.35
-50.98
-34.50
-17.39
-0.93
14.00
26.95
37.70
46.12
51.97
55.02
55.21
53.00
49.41
45.82
43.46
42.80
43.41
44.17
43.96
42.30
39.52
36.47
33.80
31.44
28.55
24.04
17.33
8.75
-0.56
-9.24
-16.45
-22.30
-27.68
-33.78
-41.41
-50.47
-59.94
-68.06
-72.98
-73.22
-68.13
-57.91
-43.46
-26.11
-7.34
11.49
29.22
44.93
57.97
67.92
74.67
78.29
79.05
77.36
73.71
68.63
62.60
56.04
49.30
42.67
36.51
31.23
27.23
24.72
23.52
22.99
22.28
20.55
17.37
12.86
7.58
2.15
-3.05
-8.14
-13.59
-19.96
-27.51
-36.16
-45.42
-54.61
-62.92
-69.43
-73.11
-72.91
-68.09
-58.47
-44.81
-28.68
-12.08
3.15
15.89
25.90
33.56
39.44
43.87
46.74
47.64
46.25
42.65
37.49
31.80
26.66
22.79
20.34
18.98
18.11
17.25
16.19
14.95
13.60
12.06
10.04
7.18
3.31
-1.41
-6.51
-11.44
-15.82
-19.67
-23.44
-27.81
-33.41
-40.39
-48.20
-55.57
-60.73
-61.98
-58.18
-49.23
-36.10
-20.51
-4.40
10.61
23.53
33.96
41.86
47.31
50.43
51.45
50.78
49.00
46.72
44.39
42.13
39.80
37.35
34.96
33.20
32.77
34.14
37.23
41.29
45.23
48.12
49.72
50.60
51.85
54.60
59.32
65.58
72.31
78.23
82.57
85.33
87.34
89.96
94.74
103.08
115.89
133.14
153.48
174.17
191.64
202.46
204.48
197.43
182.84
163.13
140.68
117.23
93.82
71.15
49.88
30.52
12.97
-3.92
-22.40
-45.46
-76.00
-115.61
-163.41
-215.29
-264.29
-302.39
-323.11
-323.97
-307.56
-280.54
-250.98
-225.43
-206.92
-194.88
-186.58
-179.04
-170.40
-160.03
-147.98
-134.12
-117.86
-98.32
-74.86
-47.49
-17.04
14.92
46.17
74.17
96.25
110.04
113.95
107.61
92.21
70.39
45.58
21.18
-0.28
-17.53
-30.46
-39.60
-45.76
-49.60
-51.77
-52.88
-53.44
-53.62
-53.08
-51.00
-46.60
-39.66
-31.11
-22.95
-17.75
-17.74
-24.03
-36.11
-51.84
-67.61
-78.95
-81.33
-71.07
-46.19
-6.87
44.69
104.96
169.96
235.72
297.80
351.40
391.62
414.26
417.00
400.58
369.15
329.15
287.28
247.89
212.40
179.72
147.79
115.26
82.52
51.60
25.03
4.41
-11.24
-24.24
-36.82
-50.07
-64.01
-78.17
-92.30
-106.41
-120.60
-136.83
-155.63
-175.25
-192.52
-205.39
-213.92
-219.66
-223.92
-226.80
-232.04
-241.53
-253.61
-264.08
-269.69
-270.17
-267.06
-261.47
-252.57
-245.09
-240.69
-235.81
-224.12
-202.91
-175.76
-150.18
-133.14
-128.51
-146.56
-192.69
-263.95
-351.02
-445.24
-542.50
-642.07
-744.21
-785.73
-729.65
-586.65
-405.67
-231.13
-80.91
45.45
152.41
241.73
311.65
350.84
354.13
328.57
290.63
255.91
232.68
219.72
216.18
221.20
227.28
229.05
226.03
221.37
217.33
213.88
209.93
205.68
202.11
195.45
182.23
162.07
137.94
110.45
81.37
52.36
25.64
2.92
-17.02
-35.72
-53.66
-70.22
-84.87
-97.56
-109.05
-120.05
-131.15
-143.32
-156.89
-171.18
-184.84
-196.54
-204.99
-209.58
-210.08
-206.81
-200.32
-191.23
-179.93
-166.68
-151.53
-134.42
-115.65
-95.86
-76.08
-57.19
-39.63
-23.19
-6.98
10.13
29.24
50.79
74.46
99.42
124.68
149.53
173.84
197.92
222.39
248.02
275.64
305.89
338.77
372.86
404.95
430.29
443.86
442.22
425.05
395.51
359.06
321.39
286.60
256.45
230.82
208.95
190.43
175.36
163.83
155.15
147.54
138.53
125.83
108.27
86.20
61.45
36.46
13.39
-6.49
-22.83
-35.79
-45.57
-52.29
-56.18
-58.05
-59.50
-62.60
-69.07
-79.34
-92.28
-105.60
-116.83
-124.31
-127.74
-128.07
-126.87
-125.66
-125.30
-125.72
-125.83
-123.89
-118.15
-107.47
-91.71
-71.53
-47.90
-21.66
6.61
36.23
65.83
93.25
115.92
131.67
139.45
139.53
132.95
120.91
104.36
84.14
61.38
37.82
15.51
-3.70
-18.76
-29.56
-36.43
-39.63
-39.01
-33.88
-23.26
-6.21
17.72
47.98
82.57
117.96
149.57
172.79
184.21
182.44
168.12
143.30
110.50
71.89
29.06
-16.80
-64.33
-111.53
-155.74
-193.74
-222.52
-239.91
-245.29
-239.84
-226.34
-208.37
-189.29
-171.52
-156.02
-142.28
-128.63
-112.47
-90.53
-59.19
-15.47
41.32
108.02
176.95
237.12
276.90
288.03
268.76
225.03
168.67
113.41
70.18
43.94
33.11
31.69
32.79
31.62
26.75
19.45
11.87
5.49
0.43
-3.96
-8.16
-11.65
-13.23
-11.89
-7.75
-2.47
1.32
0.91
-5.15
-16.32
-30.18
-43.39
-53.24
-58.85
-61.69
-64.73
-70.77
-80.68
-92.52
-102.11
-104.83
-97.54
-79.89
-54.36
-24.98
4.21
30.57
53.27
72.96
90.80
107.73
124.01
139.24
152.74
163.90
172.42
178.21
181.18
181.12
177.71
170.86
160.88
148.64
135.47
122.76
111.53
102.05
93.77
85.48
75.79
63.66
48.80
31.76
13.72
-3.87
-19.64
-32.39
-41.20
-45.47
-45.06
-40.48
-32.84
-23.67
-14.57
-6.82
-1.20
1.94
2.47
0.40
-4.10
-10.64
-18.47
-26.70
-34.49
-41.39
-47.39
-52.75
-57.67
-62.10
-65.75
-68.36
-69.96
-71.04
-72.35
-74.64
-78.26
-83.10
-88.58
-93.89
-98.16
-100.58
-100.30
-96.63
-89.12
-77.78
-63.27
-46.71
-29.55
-13.08
1.65
13.98
23.51
30.07
33.71
34.73
33.74
31.58
29.03
26.68
24.81
23.40
22.29
21.36
20.52
19.74
18.95
18.02
16.78
14.98
12.35
8.55
3.22
-3.95
-12.93
-23.20
-33.50
-42.10
-47.13
-47.18
-41.85
-31.96
-19.29
-6.00
6.11
16.06
23.70
29.38
33.35
35.47
35.18
31.96
25.83
17.65
8.93
1.30
-4.09
-7.08
-8.39
-9.28
-10.83
-13.58
-17.39
-21.73
-26.13
-30.49
-35.10
-40.43
-46.83
-54.37
-62.88
-72.14
-81.90
-91.73
-100.74
-107.39
-109.82
-106.44
-96.57
-80.82
-60.78
-38.51
-15.88
5.79
25.75
43.72
59.65
73.53
85.31
94.91
102.26
107.54
111.40
114.88
118.89
123.42
127.15
127.84
123.49
113.70
100.23
86.38
75.33
68.54
65.21
63.06
59.96
55.27
50.24
46.99
47.01
49.93
53.30
53.56
47.42
32.90
9.63
-21.47
-58.60
-99.29
-140.29
-177.56
-206.89
-225.12
-231.32
-227.28
-216.66
-203.45
-190.18
-177.24
-163.45
-147.55
-129.51
-111.04
-94.84
-83.58
-79.14
-82.51
-94.05
-113.45
-138.99
-166.69
-190.27
-202.39
-197.41
-174.04
-136.79
-94.84
-58.90
-37.41
-33.90
-46.35
-69.13
-95.47
-119.47
-137.14
-145.83
-143.38
-127.69
-97.56
-54.29
-3.07
47.28
86.90
108.74
112.05
103.13
92.72
90.90
102.50
125.24
151.68
173.52
185.60
187.63
182.85
175.37
167.93
161.44
156.12
152.94
154.15
162.42
179.56
204.89
234.86
263.75
285.18
293.89
287.15
265.43
231.99
191.73
149.46
108.85
71.97
39.67
12.45
-8.98
-23.74
-31.37
-32.50
-29.24
-24.55
-21.30
-21.40
-25.29
-32.27
-41.07
-50.45
-59.46
-67.40
-73.73
-78.00
-80.06
-80.19
-79.08
-77.58
-76.36
-75.68
-75.34
-74.99
-74.31
-73.26
-72.11
-71.41
-71.82
-74.04
-78.41
-84.74
-92.15
-99.07
-103.64
-104.19
-99.81
-90.59
-77.55
-62.33
-46.64
-31.99
-19.45
-9.64
-2.80
1.12
2.47
1.77
-0.33
-3.17
-6.32
-9.54
-12.83
-16.31
-20.04
-23.97
-27.84
-31.30
-34.02
-35.86
-36.94
-37.64
-38.48
-39.96
-42.42
-45.94
-50.34
-55.13
-59.48
-62.31
-62.42
-58.82
-51.07
-39.54
-25.42
-10.41
3.72
15.58
24.45
30.28
33.39
34.29
33.42
31.11
27.60
23.20
18.37
13.64
9.55
6.34
3.94
1.99
0.03
-2.31
-5.13
-8.24
-11.35
-14.28
-17.19
-20.40
-24.29
-28.94
-34.01
-38.68
-41.89
-42.67
-40.49
-35.64
-29.01
-21.84
-15.41
-10.70
-8.23
-8.09
-10.26
-14.69
-21.92
-32.27
-45.61
-61.37
-78.68
-96.73
-114.68
-131.96
-147.84
-162.27
-174.52
-183.20
-186.75
-183.99
-174.65
-159.31
-139.85
-118.66
-99.75
-85.92
-78.19
-75.79
-77.02
-79.99
-82.59
-83.11
-79.04
-69.02
-50.68
-21.88
17.44
64.06
111.79
154.00
185.24
216.94
255.95
303.96
356.40
405.62
445.14
468.41
477.61
475.45
464.62
445.05
416.00
378.54
333.79
283.29
228.67
172.44
116.85
64.63
16.90
-25.13
-60.23
-87.70
-107.48
-120.77
-128.57
-132.03
-131.63
-128.60
-124.16
-119.66
-116.89
-118.06
-126.59
-145.11
-175.66
-219.01
-274.84
-340.41
-409.54
-472.97
-520.63
-546.22
-547.40
-526.58
-489.68
-444.18
-396.43
-350.04
-305.67
-263.32
-225.47
-194.43
-171.40
-155.88
-146.21
-140.54
-137.76
-137.42
-126.80
-102.26
-68.45
-35.20
-10.44
3.64
9.32
7.85
4.44
1.86
-1.06
-5.24
-9.85
-12.13
-9.82
-1.63
12.51
32.14
55.55
79.23
100.66
118.84
134.09
147.08
158.30
167.92
176.34
183.54
188.55
190.93
190.83
188.78
185.06
179.78
173.03
165.44
157.84
150.83
145.24
141.79
140.84
142.30
145.76
150.90
157.81
166.79
178.14
192.38
210.32
232.82
260.15
291.09
322.22
348.23
363.14
362.52
345.22
313.94
274.00
231.25
190.06
152.71
119.91
92.08
70.04
54.70
46.12
42.82
41.95
40.39
36.05
28.57
18.96
8.72
-1.19
-10.72
-20.47
-30.97
-42.09
-52.97
-62.35
-69.09
-72.64
-73.22
-71.70
-69.40
-67.70
-67.78
-70.31
-75.34
-82.14
-89.37
-95.28
-98.13
-96.64
-90.40
-79.99
-66.89
-52.96
-39.95
-28.97
-20.39
-13.95
-9.19
-5.74
-3.51
-2.46
-2.38
-2.76
-2.85
-2.10
-0.42
1.68
3.27
3.56
2.27
-0.19
-3.06
-5.70
-8.16
-11.32
-16.40
-24.22
-34.44
-45.40
-54.56
-59.48
-58.85
-52.90
-43.25
-32.12
-21.58
-12.95
-6.74
-2.96
-1.44
-1.98
-4.30
-7.91
-12.09
-16.08
-19.25
-21.15
-21.54
-20.29
-17.35
-12.85
-7.27
-1.36
3.98
8.08
10.66
11.90
12.16
11.82
11.14
10.38
10.02
10.87
13.79
19.30
27.24
36.70
46.36
54.94
61.71
66.52
69.61
71.26
71.51
70.13
66.88
61.70
54.92
47.12
39.06
31.38
24.55
18.88
14.53
11.44
9.35
7.75
5.94
3.25
-0.73
-5.99
-11.96
-17.69
-22.05
-23.98
-22.87
-18.71
-12.13
-4.25
3.64
10.52
15.76
19.14
20.62
20.05
17.18
11.86
4.33
-4.57
-13.51
-21.11
-26.47
-29.39
-30.38
-30.19
-29.43
-28.43
-27.26
-26.06
-25.21
-25.39
-27.17
-30.72
-35.41
-39.91
-42.53
-41.81
-37.10
-28.80
-18.29
-7.36
2.30
9.59
14.16
16.15
15.91
13.76
9.93
4.72
-1.44
-7.98
-14.33
-20.08
-25.09
-29.38
-33.01
-35.99
-38.27
-39.91
-41.16
-42.48
-44.35
-46.98
-50.03
-52.51
-53.01
-50.15
-43.04
-31.69
-17.03
-0.72
15.41
29.79
41.44
50.04
55.73
58.90
59.86
58.83
55.97
51.51
45.88
39.66
33.46
27.72
22.58
17.92
13.48
9.06
4.59
0.16
-4.12
-8.15
-11.93
-15.49
-18.82
-21.76
-23.95
-24.80
-23.62
-19.78
-13.01
-3.60
7.56
19.06
29.41
37.40
42.38
44.30
43.50
40.50
35.82
29.95
23.37
16.52
9.82
3.56
-2.15
-7.43
-12.46
-17.30
-21.75
-25.40
-27.80
-28.91
-29.27
-29.98
-32.28
-36.83
-43.17
-49.65
-53.94
-53.98
-48.89
-39.34
-27.19
-14.66
-3.47
5.56
12.47
17.56
20.99
22.62
22.17
19.67
15.64
11.03
6.84
3.66
1.46
-0.27
-2.18
-4.66
-7.57
-10.40
-12.60
-13.94
-14.72
-15.60
-17.32
-20.25
-24.29
-28.81
-32.89
-35.70
-36.70
-35.79
-33.21
-29.44
-24.92
-19.97
-14.77
-9.47
-4.31
0.29
3.81
5.83
6.20
5.19
3.37
1.42
-0.19
-1.31
-2.04
-2.52
-2.72
-2.40
-1.17
1.17
4.45
8.05
11.01
12.40
11.60
8.56
3.84
-1.47
-6.07
-8.72
-8.51
-5.08
1.30
9.88
19.57
29.30
38.15
45.55
51.11
54.64
56.00
55.22
52.51
48.30
43.18
37.80
32.68
28.21
24.53
21.62
19.30
17.31
15.31
12.98
10.15
6.82
3.09
-0.94
-5.42
-10.86
-18.02
-27.62
-39.89
-54.22
-69.09
-82.37
-91.86
-96.06
-94.62
-88.45
-79.30
-69.17
-59.59
-51.31
-44.36
-38.55
-33.77
-30.32
-28.69
-29.21
-31.80
-35.86
-40.50
-44.96
-48.80
-51.97
-54.58
-56.71
-58.30
-59.17
-59.15
-58.22
-56.36
-53.56
-49.65
-44.45
-37.84
-30.01
-21.47
-13.02
-5.52
0.31
4.23
6.72
9.02
13.00
20.52
32.58
48.58
66.18
81.90
92.45
96.10
93.39
86.90
80.07
75.68
74.85
76.84
79.63
80.97
79.33
74.28
66.44
57.00
47.27
38.34
30.95
25.47
21.92
20.02
19.05
17.98
15.56
10.64
2.60
-8.45
-21.52
-35.09
-47.45
-57.21
-63.45
-65.78
-64.25
-59.28
-51.68
-42.52
-33.08
-24.46
-17.25
-11.25
-5.59
0.80
8.65
17.85
27.37
35.60
41.04
42.90
41.42
37.70
33.19
29.09
25.93
23.65
21.87
20.31
18.95
17.99
17.51
17.21
16.30
13.70
8.45
0.08
-11.10
-23.92
-36.60
-47.10
-53.59
-54.92
-50.90
-42.24
-30.35
-16.78
-2.83
10.82
24.02
36.98
49.88
62.54
74.20
83.61
89.32
90.10
85.41
75.60
61.93
46.26
30.49
16.19
4.28
-4.95
-11.77
-16.73
-20.53
-23.93
-27.65
-32.38
-38.58
-46.43
-55.63
-65.46
-74.75
-82.10
-86.10
-85.75
-80.67
-71.36
-59.10
-45.65
-32.69
-21.39
-12.06
-4.25
2.87
10.02
17.33
24.29
29.93
33.25
33.66
31.25
26.68
20.88
14.75
8.88
3.64
-0.72
-3.92
-5.69
-5.98
-5.34
-4.94
-6.37
-11.05
-19.61
-31.42
-44.59
-56.42
-64.18
-65.86
-60.67
-49.10
-32.66
-13.34
6.74
25.76
42.31
55.50
65.01
71.06
74.22
75.13
74.17
71.26
65.92
57.60
46.15
32.17
16.97
2.24
-10.54
-20.55
-27.85
-33.23
-37.77
-42.51
-48.18
-55.16
-63.56
-73.21
-83.58
-93.58
-101.54
-105.34
-103.07
-93.66
-77.51
-56.54
-33.75
-12.36
5.11
17.44
24.82
28.46
29.97
30.84
32.06
34.04
36.66
39.46
41.67
42.47
41.15
37.39
31.41
24.05
16.51
10.13
5.90
4.10
4.23
5.10
5.13
2.85
-2.71
-11.61
-22.90
-34.64
-44.31
-49.44
-48.32
-40.60
-27.36
-10.74
6.83
23.43
38.06
50.54
61.00
69.41
75.41
78.70
79.50
78.81
78.11
78.58
80.35
82.25
82.18
78.08
68.91
55.18
38.76
22.14
7.47
-4.19
-13.06
-20.30
-27.40
-35.53
-45.21
-56.24
-67.75
-78.48
-86.91
-91.52
-91.03
-84.74
-72.78
-56.23
-36.96
-17.30
0.47
14.54
23.91
28.40
28.68
26.01
22.02
18.47
16.85
18.10
22.31
28.68
35.63
41.28
44.10
43.39
39.58
33.93
28.07
23.26
19.97
17.77
15.67
12.61
7.86
1.38
-6.17
-13.60
-19.46
-22.38
-21.33
-15.94
-6.45
6.24
20.84
35.83
49.73
61.28
69.58
74.27
75.54
74.11
71.08
67.71
65.08
63.88
64.16
65.28
66.16
65.56
62.62
57.12
49.66
41.35
33.37
26.47
20.68
15.33
9.32
1.70
-8.00
-19.46
-31.56
-42.53
-50.42
-53.61
-51.22
-43.41
-31.28
-16.60
-1.26
13.02
24.96
33.68
38.66
39.73
37.08
31.44
23.98
16.08
9.04
3.76
0.68
-0.32
0.23
1.58
2.87
3.31
2.38
-0.09
-3.92
-8.66
-13.83
-19.09
-24.40
-29.89
-35.58
-41.14
-45.76
-48.41
-48.14
-44.65
-38.45
-30.76
-23.02
-16.33
-11.16
-7.37
-4.67
-2.98
-2.67
-4.25
-7.88
-13.08
-18.68
-23.22
-25.60
-25.45
-23.26
-19.96
-16.44
-13.12
-9.83
-5.99
-0.99
5.40
12.74
19.93
25.45
27.71
25.58
18.79
8.08
-4.82
-17.60
-27.84
-33.63
-33.94
-28.88
-19.62
-8.04
3.78
14.14
22.00
27.12
29.88
30.96
31.11
30.88
30.68
30.69
30.83
30.76
29.80
27.25
22.66
16.25
9.02
2.46
-1.99
-3.54
-2.41
0.40
3.49
5.68
6.33
5.37
3.06
-0.22
-4.10
-8.11
-11.62
-13.79
-13.79
-10.98
-5.15
3.42
14.02
25.68
37.35
47.98
56.64
62.59
65.45
65.25
62.50
58.09
53.10
48.54
45.14
43.19
42.48
42.49
42.52
41.94
40.30
37.35
32.96
26.91
18.94
8.85
-3.27
-16.86
-30.85
-43.81
-54.34
-61.41
-64.60
-64.19
-60.96
-56.00
-50.39
-45.02
-40.47
-37.07
-34.98
-34.33
-35.15
-37.35
-40.53
-44.03
-47.05
-48.93
-49.45
-48.89
-47.90
-47.18
-47.15
-47.80
-48.71
-49.25
-48.83
-47.02
-43.60
-38.68
-32.68
-26.26
-20.31
-15.56
-12.38
-10.51
-9.13
-7.15
-3.68
1.59
8.24
15.34
21.79
26.81
30.04
31.54
31.56
30.32
27.94
24.57
20.45
16.08
12.01
8.76
6.50
5.07
4.04
3.00
1.71
0.25
-1.14
-2.22
-2.95
-3.57
-4.54
-6.31
-9.13
-12.87
-16.99
-20.62
-22.77
-22.65
-19.87
-14.64
-7.74
-0.23
6.79
12.59
16.88
19.76
21.41
21.89
21.09
18.84
15.23
10.66
5.87
1.59
-1.71
-3.99
-5.55
-6.83
-8.09
-9.31
-10.27
-10.76
-10.80
-10.72
-11.07
-12.39
-15.00
-18.78
-23.18
-27.36
-30.40
-31.56
-30.42
-26.96
-21.47
-14.55
-6.90
0.68
7.44
12.72
16.10
17.39
16.77
14.72
11.91
9.06
6.66
4.92
3.67
2.54
1.15
-0.68
-2.87
-5.13
-7.18
-8.89
-10.43
-12.15
-14.48
-17.71
-21.83
-26.61
-31.62
-36.28
-40.02
-42.26
-42.51
-40.53
-36.43
-30.81
-24.56
-18.65
-13.79
-10.11
-7.26
-4.58
-1.49
2.26
6.54
10.98
15.27
19.41
23.69
28.56
34.35
40.96
47.81
53.95
58.33
60.21
59.34
55.92
50.38
43.15
34.48
24.58
13.90
3.44
-5.36
-10.91
-12.13
-8.86
-2.06
6.51
14.92
21.68
26.14
28.40
29.00
28.38
26.68
23.74
19.41
13.88
7.77
2.03
-2.52
-5.51
-7.20
-8.29
-9.61
-11.71
-14.61
-17.94
-21.13
-23.89
-26.30
-28.86
-32.11
-36.35
-41.38
-46.64
-51.42
-55.10
-57.29
-57.70
-56.07
-52.14
-45.81
-37.33
-27.42
-17.13
-7.46
1.01
8.39
15.40
22.98
31.78
41.79
52.24
61.93
69.66
74.80
77.45
78.31
78.29
77.99
77.51
76.50
74.60
71.64
67.65
62.55
55.79
46.40
33.44
16.66
-2.92
-23.12
-41.34
-55.57
-65.17
-71.04
-74.89
-78.29
-81.83
-85.03
-86.81
-86.26
-83.15
-77.96
-71.48
-64.43
-57.20
-50.03
-43.22
-37.26
-32.68
-29.78
-28.35
-27.72
-27.02
-25.66
-23.62
-21.44
-19.97
-19.89
-21.33
-23.75
-26.08
-27.06
-25.66
-21.43
-14.56
-5.85
3.56
12.44
19.76
24.89
27.66
28.31
27.28
25.10
22.25
19.13
16.16
13.73
12.19
11.73
12.24
13.33
14.47
15.21
15.31
14.85
14.08
13.40
13.20
13.91
15.85
19.18
23.81
29.36
35.28
41.03
46.32
51.10
55.57
60.00
64.50
68.89
72.58
74.62
73.92
69.63
61.57
50.53
38.26
26.95
18.31
12.91
9.79
6.92
2.09
-6.04
-17.37
-30.46
-43.26
-53.85
-61.11
-64.84
-65.54
-64.14
-61.74
-59.50
-58.53
-59.62
-62.88
-67.47
-71.83
-74.08
-72.81
-67.63
-59.29
-49.31
-39.39
-30.86
-24.34
-19.90
-17.22
-15.85
-15.41
-15.60
-16.23
-17.20
-18.47
-19.91
-21.27
-22.06
-21.70
-19.67
-15.75
-10.11
-3.30
3.86
10.54
15.99
19.74
21.59
21.66
20.41
18.50
16.71
15.80
16.27
18.30
21.64
25.69
29.66
32.73
34.30
34.07
32.14
28.94
25.03
20.94
16.97
13.12
9.21
5.08
0.79
-3.35
-6.89
-9.49
-11.11
-12.07
-12.99
-14.49
-17.01
-20.64
-25.12
-29.96
-34.47
-37.90
-39.54
-38.80
-35.49
-29.84
-22.57
-14.73
-7.47
-1.76
1.82
3.10
2.40
0.30
-2.45
-5.14
-7.27
-8.69
-9.61
-10.51
-11.95
-14.33
-17.74
-21.87
-26.11
-29.85
-32.64
-34.40
-35.44
-36.33
-37.70
-40.01
-43.41
-47.61
-51.89
-55.12
-55.93
-53.02
-45.62
-33.78
-18.61
-1.99
13.96
27.58
38.06
45.56
50.74
54.36
56.93
58.72
59.90
60.79
61.76
63.09
64.68
66.04
66.51
65.60
63.31
60.14
56.82
53.96
51.67
49.49
46.48
41.57
34.02
23.84
11.95
0.08
-9.78
-15.99
-17.83
-15.72
-10.92
-4.97
0.83
5.75
9.50
11.93
12.85
12.03
9.50
5.75
1.69
-1.68
-3.69
-4.26
-3.90
-3.37
-3.29
-3.89
-4.97
-6.16
-7.14
-7.89
-8.70
-10.04
-12.39
-15.96
-20.54
-25.52
-29.99
-32.98
-33.72
-31.87
-27.50
-21.09
-13.28
-4.78
3.71
11.49
17.85
22.18
24.10
23.63
21.23
17.79
14.30
11.58
10.06
9.71
10.15
10.89
11.57
11.98
12.12
11.95
11.38
10.22
8.21
5.23
1.31
-3.33
-8.45
-13.80
-19.18
-24.24
-28.43
-30.96
-30.99
-28.10
-22.46
-14.98
-7.05
-0.04
5.06
7.84
8.34
6.72
3.05
-2.83
-11.13
-21.94
-35.09
-50.08
-66.22
-82.74
-98.70
-112.87
-123.71
-129.41
-128.23
-118.94
-101.38
-76.67
-47.10
-15.62
14.78
41.70
63.53
79.49
89.46
93.79
93.24
88.95
82.40
75.23
68.96
64.67
62.69
62.72
64.09
66.12
68.37
70.65
72.77
74.29
74.47
72.46
67.77
60.63
52.10
43.71
36.87
32.36
30.06
29.15
28.51
27.27
25.01
21.89
18.50
15.54
13.58
12.81
13.01
13.75
14.60
15.35
15.99
16.52
16.67
16.03
14.16
11.15
7.75
5.24
4.89
7.25
11.86
17.47
22.65
26.35
28.17
28.05
25.89
21.35
14.11
4.37
-6.68
-17.13
-25.08
-29.58
-31.22
-31.91
-33.89
-38.57
-45.69
-53.48
-59.45
-61.65
-59.48
-53.82
-46.46
-39.07
-32.44
-26.34
-19.83
-12.04
-2.70
7.72
18.33
28.38
37.56
45.96
53.66
60.40
65.40
67.66
66.51
62.01
55.07
47.11
39.55
33.26
28.42
24.63
21.29
17.98
14.62
11.44
8.77
6.81
5.42
4.24
2.78
0.66
-2.19
-5.64
-9.35
-13.11
-16.90
-20.89
-25.37
-30.50
-36.21
-42.15
-47.77
-52.52
-55.81
-57.08
-55.82
-51.56
-44.12
-33.81
-21.40
-8.07
4.99
16.82
26.81
34.64
40.10
43.05
43.52
41.92
39.10
36.09
33.79
32.57
32.20
32.01
31.34
29.81
27.54
24.94
22.54
20.72
19.57
18.86
18.16
16.90
14.59
10.87
5.65
-0.86
-8.12
-15.43
-21.99
-27.20
-30.71
-32.55
-33.09
-32.76
-32.02
-31.19
-30.50
-30.16
-30.45
-31.57
-33.56
-36.10
-38.59
-40.36
-40.94
-40.27
-38.65
-36.56
-34.41
-32.38
-30.44
-28.56
-26.80
-25.35
-24.45
-24.25
-24.74
-25.76
-27.11
-28.69
-30.54
-32.74
-35.23
-37.69
-39.50
-39.89
-38.22
-34.24
-28.21
-20.82
-12.98
-5.46
1.18
6.70
10.97
13.88
15.30
15.20
13.80
11.63
9.40
7.79
7.18
7.54
8.46
9.36
9.79
9.55
8.80
7.86
7.03
6.37
5.60
4.23
1.83
-1.77
-6.35
-11.42
-16.37
-20.77
-24.32
-26.83
-28.06
-27.66
-25.33
-20.97
-14.87
-7.66
-0.18
6.72
12.35
16.29
18.36
18.64
17.47
15.33
12.80
10.41
8.53
7.34
6.84
6.96
7.58
8.61
9.91
11.19
12.11
12.22
11.15
8.63
4.56
-1.05
-8.01
-15.89
-23.87
-30.76
-35.19
-36.05
-33.00
-26.75
-19.00
-11.74
-6.51
-3.84
-3.20
-3.47
-3.65
-3.39
-3.00
-3.07
-3.94
-5.44
-7.01
-8.10
-8.55
-8.69
-9.08
-10.04
-11.34
-12.21
-11.80
-9.67
-6.21
-2.57
-0.24
-0.40
-3.37
-8.38
-13.79
-17.58
-18.00
-14.15
-6.25
4.33
15.49
24.90
30.66
31.73
28.20
21.10
12.00
2.52
-6.06
-12.99
-18.00
-21.19
-22.92
-23.73
-24.25
-25.14
-26.82
-29.35
-32.36
-35.14
-36.94
-37.28
-36.21
-34.37
-32.86
-32.89
-35.34
-40.37
-47.14
-53.91
-58.42
-58.53
-52.83
-41.10
-24.39
-4.89
14.58
31.15
42.55
47.70
46.94
41.87
34.79
27.85
22.44
18.90
16.79
15.35
13.97
12.45
10.80
9.05
7.00
4.33
0.66
-4.13
-9.83
-15.93
-21.69
-26.37
-29.28
-29.93
-28.06
-23.67
-16.98
-8.43
1.46
12.09
22.89
33.31
42.87
51.14
57.81
62.59
65.24
65.52
63.22
58.22
50.69
41.14
30.46
19.71
9.91
1.78
-4.40
-8.71
-11.60
-13.62
-15.44
-17.71
-20.94
-25.40
-30.89
-36.67
-41.55
-44.25
-43.75
-39.72
-32.65
-23.79
-14.75
-7.02
-1.54
1.58
3.01
3.97
5.80
9.50
15.42
23.08
31.28
38.38
42.84
43.66
40.79
35.09
28.03
21.20
15.77
12.22
10.33
9.45
8.74
7.40
4.68
-0.00
-6.81
-15.27
-24.09
-31.31
-34.92
-33.54
-27.09
-16.79
-4.73
6.90
16.49
23.38
27.74
30.19
31.46
32.18
32.75
33.40
34.11
34.54
34.10
32.09
27.98
21.69
13.71
4.91
-3.74
-11.49
-18.05
-23.54
-28.40
-33.22
-38.50
-44.57
-51.31
-58.02
-63.40
-65.87
-64.04
-57.31
-46.30
-32.68
-18.75
-6.59
2.47
8.16
11.06
12.36
13.43
15.60
19.84
26.43
34.75
43.29
50.03
53.16
51.84
46.56
38.92
31.02
24.58
20.37
18.10
16.75
15.21
12.72
9.13
4.80
0.40
-3.29
-5.52
-5.64
-3.17
2.15
10.20
20.47
31.99
43.56
53.87
61.87
66.99
69.29
69.40
68.34
67.26
67.12
68.34
70.68
73.25
74.85
74.38
71.20
65.38
57.60
48.92
40.40
32.84
26.62
21.73
17.89
14.62
11.39
7.72
3.29
-1.87
-7.32
-12.18
-15.41
-16.10
-13.85
-8.93
-2.35
4.49
10.16
13.55
14.05
11.60
6.58
-0.20
-7.63
-14.33
-18.94
-20.50
-18.86
-14.86
-10.21
-6.90
-6.38
-9.07
-14.12
-19.84
-24.36
-26.42
-25.72
-22.90
-19.16
-15.65
-13.11
-11.74
-11.35
-11.75
-12.87
-14.71
-17.19
-19.82
-21.64
-21.43
-18.08
-11.08
-0.67
12.20
26.23
40.14
52.92
63.85
72.33
77.66
79.07
75.85
67.66
54.80
38.33
19.94
1.75
-14.25
-26.42
-33.79
-36.18
-34.18
-28.95
-22.02
-14.93
-8.97
-5.00
-3.40
-4.17
-7.10
-11.90
-18.27
-25.84
-34.15
-42.61
-50.50
-57.11
-61.84
-64.33
-64.56
-62.81
-59.64
-55.71
-51.58
-47.63
-43.93
-40.29
-36.32
-31.60
-25.90
-19.37
-12.66
-6.77
-2.75
-1.21
-2.04
-4.34
-6.80
-8.31
-8.36
-7.27
-5.81
-4.78
-4.53
-4.98
-5.80
-6.86
-8.32
-10.61
-13.99
-18.25
-22.60
-25.80
-26.64
-24.38
-19.00
-11.21
-2.16
6.90
15.04
21.80
27.11
31.10
33.85
35.23
35.02
33.03
29.41
24.64
19.45
14.48
10.10
6.23
2.52
-1.40
-5.72
-10.28
-14.66
-18.39
-21.14
-22.87
-23.84
-24.43
-25.07
-26.05
-27.52
-29.44
-31.67
-33.90
-35.66
-36.38
-35.44
-32.39
-27.13
-20.04
-11.87
-3.55
4.13
10.71
16.09
20.37
23.64
25.84
26.85
26.60
25.26
23.23
21.03
19.12
17.64
16.43
15.08
13.22
10.67
7.57
4.28
1.21
-1.37
-3.43
-5.20
-7.03
-9.27
-12.15
-15.70
-19.64
-23.45
-26.40
-27.71
-26.80
-23.44
-17.88
-10.77
-2.96
4.67
11.41
16.72
20.34
22.22
22.55
21.66
19.99
17.91
15.70
13.49
11.35
9.32
7.48
5.87
4.50
3.25
1.94
0.44
-1.32
-3.22
-5.10
-6.83
-8.39
-9.91
-11.59
-13.61
-16.02
-18.65
-21.10
-22.89
-23.47
-22.45
-19.67
-15.27
-9.64
-3.34
3.06
9.06
14.28
18.48
21.49
23.23
23.67
22.90
21.16
18.79
16.20
13.73
11.55
9.62
7.69
5.51
2.89
-0.10
-3.16
-5.86
-7.84
-8.93
-9.23
-9.09
-8.91
-9.06
-9.79
-11.24
-13.46
-16.42
-19.94
-23.64
-26.92
-29.04
-29.33
-27.40
-23.35
-17.74
-11.47
-5.51
-0.61
2.82
4.77
5.49
5.33
4.64
3.69
2.73
1.98
1.62
1.73
2.20
2.67
2.74
2.05
0.50
-1.63
-3.81
-5.48
-6.28
-6.28
-5.92
-5.86
-6.62
-8.36
-10.69
-12.83
-13.90
-13.25
-10.68
-6.39
-0.88
5.34
11.82
18.15
23.90
28.57
31.70
33.07
32.81
31.39
29.42
27.35
25.34
23.18
20.51
17.00
12.60
7.56
2.33
-2.56
-6.67
-9.80
-12.01
-13.58
-14.95
-16.49
-18.45
-20.84
-23.49
-26.16
-28.67
-30.86
-32.51
-33.20
-32.37
-29.50
-24.39
-17.47
-9.71
-2.36
3.51
7.41
9.56
10.55
10.98
11.12
10.81
9.76
7.87
5.48
3.30
2.09
2.25
3.62
5.62
7.50
8.71
9.11
8.83
8.17
7.36
6.52
5.68
4.92
4.35
4.06
4.06
4.33
4.91
6.02
8.09
11.58
16.69
23.20
30.49
37.70
44.01
48.81
51.70
52.47
50.99
47.25
41.50
34.37
26.76
19.65
13.74
9.18
5.62
2.43
-0.92
-4.60
-8.41
-11.93
-14.87
-17.21
-19.23
-21.28
-23.57
-26.08
-28.54
-30.66
-32.23
-33.24
-33.74
-33.72
-33.00
-31.27
-28.28
-24.10
-19.18
-14.24
-10.03
-6.97
-5.04
-3.91
-3.18
-2.64
-2.35
-2.53
-3.31
-4.62
-6.20
-7.79
-9.27
-10.64
-12.03
-13.44
-14.75
-15.74
-16.19
-16.07
-15.52
-14.90
-14.69
-15.43
-17.52
-21.03
-25.60
-30.40
-34.38
-36.52
-36.24
-33.45
-28.52
-22.08
-14.75
-7.06
0.53
7.61
13.82
18.86
22.66
25.30
27.03
28.11
28.75
29.07
29.13
29.02
28.83
28.67
28.62
28.65
28.63
28.35
27.55
26.01
23.62
20.38
16.52
12.36
8.35
4.94
2.55
1.45
1.80
3.52
6.35
9.88
13.53
16.71
18.86
19.54
18.50
15.74
11.53
6.40
0.98
-4.10
-8.47
-12.05
-15.06
-17.91
-20.94
-24.33
-28.02
-31.77
-35.29
-38.40
-41.11
-43.60
-46.16
-49.06
-52.49
-56.50
-60.96
-65.59
-69.88
-73.11
-74.43
-73.10
-68.72
-61.42
-51.84
-40.85
-29.25
-17.49
-5.69
6.25
18.32
30.33
41.91
52.74
62.60
71.48
79.42
86.34
92.02
96.15
98.51
99.11
98.19
96.08
93.03
89.10
84.17
78.09
70.87
62.76
54.17
45.56
37.30
29.63
22.69
16.58
11.40
7.17
3.80
1.10
-1.20
-3.33
-5.44
-7.57
-9.73
-11.90
-14.11
-16.36
-18.67
-21.05
-23.42
-25.66
-27.54
-28.84
-29.33
-29.01
-28.08
-26.89
-25.85
-25.13
-24.72
-24.42
-24.05
-23.61
-23.34
-23.56
-24.50
-26.16
-28.13
-29.80
-30.50
-29.75
-27.40
-23.69
-19.15
-14.44
-10.19
-6.75
-4.26
-2.61
-1.65
-1.25
-1.35
-1.93
-2.86
-3.97
-4.99
-5.76
-6.24
-6.56
-6.92
-7.49
-8.23
-8.97
-9.46
-9.52
-9.21
-8.86
-8.94
-9.89
-11.87
-14.63
-17.52
-19.73
-20.51
-19.43
-16.47
-11.95
-6.42
-0.50
5.24
10.34
14.51
17.67
19.89
21.32
22.09
22.26
21.81
20.66
18.75
16.04
12.63
8.68
4.46
0.31
-3.43
-6.45
-8.58
-9.89
-10.59
-11.03
-11.51
-12.27
-13.42
-15.01
-17.02
-19.36
-21.81
-23.97
-25.29
-25.20
-23.35
-19.69
-14.59
-8.69
-2.78
2.50
6.70
9.64
11.33
11.88
11.46
10.30
8.69
6.96
5.43
4.31
3.67
3.38
3.19
2.85
2.17
1.15
-0.10
-1.36
-2.47
-3.43
-4.45
-5.83
-7.85
-10.60
-13.80
-16.94
-19.39
-20.60
-20.22
-18.19
-14.66
-9.93
-4.43
1.35
6.87
11.63
15.26
17.53
18.40
17.97
16.46
14.23
11.69
9.29
7.40
6.11
5.27
4.53
3.56
2.23
0.68
-0.78
-1.88
-2.54
-2.96
-3.52
-4.59
-6.37
-8.83
-11.70
-14.64
-17.28
-19.28
-20.36
-20.23
-18.68
-15.69
-11.48
-6.49
-1.32
3.47
7.51
10.65
12.88
14.26
14.86
14.66
13.72
12.18
10.29
8.38
6.73
5.49
4.57
3.79
2.86
1.66
0.19
-1.37
-2.81
-4.00
-4.97
-5.96
-7.33
-9.41
-12.32
-15.83
-19.37
-22.08
-23.13
-21.96
-18.56
-13.43
-7.43
-1.41
4.03
8.69
12.61
15.85
18.35
19.88
20.22
19.36
17.64
15.60
13.84
12.68
12.13
11.87
11.51
10.79
9.64
8.18
6.56
4.88
3.10
1.08
-1.30
-4.13
-7.42
-11.08
-14.97
-18.82
-22.26
-24.77
-25.78
-24.80
-21.63
-16.49
-9.96
-2.94
3.71
9.32
13.55
16.38
17.93
18.39
17.92
16.67
14.86
12.81
10.91
9.47
8.61
8.24
8.05
7.66
6.78
5.31
3.40
1.37
-0.42
-1.72
-2.53
-3.11
-3.90
-5.39
-7.83
-11.17
-14.94
-18.40
-20.71
-21.22
-19.66
-16.23
-11.48
-6.07
-0.56
4.71
9.59
13.98
17.71
20.49
22.08
22.38
21.54
19.92
17.94
15.95
14.09
12.39
10.80
9.25
7.71
6.25
4.92
3.78
2.82
1.97
1.06
-0.05
-1.44
-3.13
-5.07
-7.29
-9.89
-12.98
-16.50
-20.03
-22.80
-23.89
-22.55
-18.61
-12.54
-5.33
1.88
8.22
13.30
17.13
19.96
21.98
23.25
23.71
23.32
22.19
20.56
18.78
17.11
15.63
14.29
13.01
11.75
10.54
9.49
8.65
7.96
7.23
6.20
4.68
2.63
0.20
-2.37
-4.82
-7.07
-9.21
-11.48
-14.08
-17.00
-19.94
-22.27
-23.26
-22.32
-19.29
-14.44
-8.47
-2.19
3.70
8.77
12.85
16.00
18.27
19.69
20.29
20.13
19.42
18.42
17.41
16.52
15.76
15.00
14.11
13.07
11.97
11.04
10.41
10.07
9.84
9.36
8.32
6.57
4.22
1.59
-0.92
-2.99
-4.58
-5.90
-7.32
-9.21
-11.70
-14.59
-17.45
-19.65
-20.64
-20.02
-17.69
-13.77
-8.61
-2.69
3.40
9.09
13.81
17.18
19.02
19.43
18.77
17.52
16.16
15.02
14.23
13.72
13.36
12.99
12.50
11.87
11.11
10.27
9.39
8.48
7.50
6.42
5.24
4.00
2.79
1.69
0.75
-0.07
-0.85
-1.68
-2.63
-3.77
-5.14
-6.79
-8.77
-11.00
-13.22
-14.95
-15.62
-14.72
-12.10
-8.02
-3.11
1.80
5.97
8.96
10.69
11.41
11.44
11.05
10.34
9.32
7.96
6.36
4.77
3.48
2.70
2.45
2.56
2.71
2.59
2.02
1.02
-0.24
-1.52
-2.68
-3.64
-4.47
-5.26
-6.06
-6.85
-7.61
-8.34
-9.15
-10.21
-11.62
-13.27
-14.77
-15.54
-14.99
-12.82
-9.13
-4.47
0.35
4.59
7.73
9.64
10.49
10.59
10.14
9.24
7.90
6.16
4.26
2.55
1.37
0.96
1.24
1.92
2.62
2.99
2.84
2.21
1.25
0.13
-0.95
-1.94
-2.86
-3.84
-5.02
-6.56
-8.49
-10.74
-13.11
-15.32
-17.05
-17.95
-17.68
-16.03
-13.02
-8.91
-4.29
0.15
3.76
6.14
7.22
7.21
6.47
5.34
4.02
2.56
0.98
-0.66
-2.23
-3.56
-4.52
-5.10
-5.45
-5.72
-6.06
-6.46
-6.80
-6.93
-6.76
-6.37
-6.01
-6.02
-6.70
-8.21
-10.45
-13.08
-15.53
-17.16
-17.44
-16.09
-13.15
-8.98
-4.11
0.89
5.56
9.57
12.76
15.03
16.41
16.93
16.70
15.84
14.52
12.94
11.25
9.61
8.12
6.82
5.76
4.94
4.34
3.94
3.65
3.30
2.73
1.78
0.44
-1.19
-2.90
-4.56
-6.16
-7.86
-9.90
-12.35
-15.01
-17.36
-18.71
-18.45
-16.34
-12.55
-7.64
-2.35
2.67
7.00
10.47
13.06
14.77
15.55
15.34
14.15
12.21
9.94
7.82
6.24
5.32
4.86
4.43
3.63
2.25
0.41
-1.51
-3.13
-4.28
-5.07
-5.86
-7.05
-8.85
-11.26
-14.05
-16.91
-19.51
-21.59
-22.84
-22.93
-21.52
-18.42
-13.74
-7.93
-1.75
4.01
8.75
12.21
14.46
15.78
16.54
16.98
17.25
17.36
17.34
17.20
16.98
16.75
16.52
16.23
15.82
15.25
14.56
13.92
13.52
13.43
13.49
13.27
12.20
9.75
5.73
0.44
-5.38
-10.73
-14.66
-16.55
-16.29
-14.28
-11.19
-7.79
-4.65
-2.08
-0.08
1.42
2.52
3.17
3.30
2.91
2.16
1.28
0.55
0.07
-0.26
-0.69
-1.46
-2.64
-4.09
-5.49
-6.57
-7.18
-7.42
-7.55
-7.89
-8.68
-10.05
-12.00
-14.44
-17.22
-20.04
-22.48
-23.99
-24.03
-22.26
-18.72
-13.88
-8.49
-3.33
1.05
4.46
7.03
9.03
10.67
11.95
12.77
12.95
12.43
11.34
9.97
8.67
7.72
7.21
7.02
6.92
6.67
6.17
5.50
4.81
4.24
3.77
3.21
2.28
0.73
-1.52
-4.34
-7.34
-10.02
-11.82
-12.35
-11.43
-9.20
-6.05
-2.46
1.11
4.43
7.38
9.91
11.88
13.05
13.19
12.26
10.49
8.36
6.33
4.69
3.46
2.39
1.25
-0.09
-1.54
-2.92
-4.05
-4.92
-5.64
-6.41
-7.41
-8.76
-10.48
-12.59
-15.05
-17.77
-20.58
-23.17
-25.13
-25.97
-25.29
-22.83
-18.70
-13.32
-7.39
-1.67
3.23
7.00
9.68
11.49
12.69
13.39
13.55
13.10
12.05
10.64
9.21
8.13
7.57
7.40
7.27
6.79
5.75
4.22
2.52
1.01
-0.11
-0.95
-1.85
-3.21
-5.30
-8.12
-11.39
-14.63
-17.32
-18.98
-19.28
-18.06
-15.39
-11.48
-6.73
-1.62
3.37
7.79
11.33
13.85
15.36
16.04
16.14
15.90
15.49
14.97
14.31
13.49
12.56
11.63
10.81
10.16
9.60
8.97
8.12
6.98
5.68
4.40
3.33
2.52
1.81
0.88
-0.62
-2.90
-5.93
-9.38
-12.67
-15.14
-16.24
-15.70
-13.61
-10.34
-6.40
-2.29
1.66
5.31
8.59
11.44
13.72
15.26
15.94
15.77
15.00
13.98
13.10
12.69
12.93
13.92
15.64
18.07
21.11
24.60
28.27
31.81
34.83
37.04
38.25
38.39
37.47
35.55
32.60
28.53
23.22
16.69
9.20
1.38
-5.90
-11.69
-15.33
-16.69
-16.15
-14.44
-12.31
-10.26
-8.47
-6.90
-5.52
-4.45
-3.97
-4.30
-5.48
-7.28
-9.26
-11.01
-12.29
-13.12
-13.68
-14.21
-14.85
-15.62
-16.42
-17.13
-17.67
-18.00
-18.14
-18.13
-18.03
-17.89
-17.74
-17.65
-17.64
-17.76
-17.96
-18.08
-17.82
-16.80
-14.70
-11.41
-7.11
-2.32
2.33
6.26
9.16
11.07
12.25
13.00
13.51
13.78
13.66
13.01
11.82
10.26
8.62
7.17
6.00
4.96
3.82
2.34
0.47
-1.64
-3.70
-5.43
-6.79
-7.89
-9.02
-10.42
-12.23
-14.35
-16.56
-18.57
-20.07
-20.83
-20.64
-19.38
-17.00
-13.59
-9.41
-4.86
-0.40
3.59
6.85
9.36
11.18
12.43
13.20
13.45
13.12
12.18
10.71
8.92
7.15
5.69
4.74
4.30
4.20
4.24
4.22
4.06
3.74
3.26
2.58
1.61
0.29
-1.38
-3.34
-5.45
-7.55
-9.45
-10.90
-11.69
-11.59
-10.44
-8.27
-5.23
-1.60
2.34
6.37
10.29
13.90
16.94
19.08
20.06
19.81
18.49
16.43
14.01
11.51
9.03
6.61
4.26
2.11
0.38
-0.71
-1.14
-1.07
-0.88
-0.92
-1.40
-2.37
-3.70
-5.29
-7.10
-9.21
-11.63
-14.23
-16.64
-18.31
-18.75
-17.72
-15.43
-12.43
-9.41
-6.93
-5.23
-4.21
-3.56
-3.02
-2.56
-2.38
-2.74
-3.74
-5.17
-6.54
-7.30
-7.13
-6.06
-4.49
-2.94
-1.81
-1.18
-0.84
-0.48
0.16
1.03
1.85
2.18
1.65
0.15
-2.17
-4.88
-7.45
-9.39
-10.35
-10.17
-8.82
-6.42
-3.18
0.62
4.61
8.34
11.41
13.48
14.42
14.31
13.37
11.87
10.04
7.96
5.67
3.20
0.64
-1.75
-3.73
-5.08
-5.81
-6.10
-6.28
-6.63
-7.27
-8.14
-9.03
-9.81
-10.51
-11.39
-12.76
-14.86
-17.65
-20.77
-23.62
-25.53
-25.93
-24.59
-21.62
-17.47
-12.77
-8.13
-4.05
-0.75
1.73
3.52
4.76
5.55
6.03
6.32
6.62
7.19
8.15
9.50
11.00
12.30
13.11
13.31
13.02
12.52
12.03
11.66
11.31
10.84
10.15
9.25
8.20
7.09
5.93
4.71
3.53
2.66
2.54
3.60
6.04
9.72
14.06
18.29
21.66
23.68
24.23
23.51
21.85
19.53
16.70
13.41
9.74
5.83
1.94
-1.65
-4.74
-7.23
-9.16
-10.59
-11.58
-12.17
-12.37
-12.17
-11.59
-10.72
-9.72
-8.87
-8.50
-8.95
-10.38
-12.81
-16.07
-19.85
-23.78
-27.43
-30.31
-31.81
-31.43
-28.86
-24.26
-18.25
-11.76
-5.76
-0.96
2.36
4.29
5.12
5.14
4.61
3.68
2.54
1.45
0.65
0.35
0.60
1.31
2.25
3.20
3.98
4.50
4.80
5.01
5.29
5.72
6.27
6.72
6.65
5.66
3.48
0.20
-3.70
-7.48
-10.33
-11.66
-11.22
-9.11
-5.74
-1.60
2.80
7.02
10.74
13.72
15.87
17.21
17.92
18.28
18.57
19.01
19.62
20.19
20.33
19.69
18.11
15.79
13.18
10.85
9.18
8.25
7.82
7.51
6.99
6.10
4.89
3.50
2.05
0.55
-1.13
-3.11
-5.47
-8.10
-10.74
-12.99
-14.43
-14.80
-14.04
-12.33
-9.92
-7.07
-3.88
-0.36
3.50
7.53
11.39
14.56
16.59
17.26
16.68
15.19
13.22
11.10
8.99
6.97
5.14
3.59
2.34
1.23
-0.08
-2.03
-4.88
-8.50
-12.46
-16.10
-18.94
-20.78
-21.79
-22.32
-22.71
-23.08
-23.33
-23.23
-22.48
-20.82
-18.10
-14.33
-9.66
-4.34
1.39
7.35
13.43
19.53
25.37
30.45
34.20
36.12
36.07
34.34
31.54
28.43
25.55
23.20
21.36
19.88
18.64
17.59
16.73
16.00
15.25
14.25
12.77
10.79
8.45
6.09
4.03
2.46
1.29
0.20
-1.21
-3.24
-5.91
-8.93
-11.82
-14.02
-15.15
-15.10
-14.09
-12.58
-11.08
-10.02
-9.58
-9.69
-10.17
-10.79
-11.41
-12.00
-12.55
-12.97
-13.12
-12.86
-12.12
-11.03
-9.90
-9.09
-8.84
-9.14
-9.77
-10.37
-10.70
-10.79
-10.94
-11.55
-12.94
-15.12
-17.83
-20.59
-22.94
-24.52
-25.08
-24.50
-22.68
-19.56
-15.22
-9.95
-4.26
1.30
6.25
10.36
13.65
16.26
18.31
19.86
20.83
21.17
20.89
20.16
19.24
18.46
18.05
18.05
18.23
18.13
17.16
14.90
11.31
6.86
2.43
-1.10
-3.15
-3.73
-3.38
-2.86
-2.75
-3.19
-3.96
-4.61
-4.79
-4.41
-3.57
-2.46
-1.19
0.22
1.76
3.36
4.80
5.73
5.80
4.77
2.62
-0.46
-4.04
-7.64
-10.78
-13.16
-14.63
-15.19
-14.90
-13.83
-12.08
-9.84
-7.43
-5.32
-3.94
-3.53
-4.02
-5.06
-6.20
-7.12
-7.81
-8.48
-9.35
-10.43
-11.36
-11.56
-10.47
-7.91
-4.14
0.17
4.24
7.48
9.72
11.15
12.15
13.03
13.89
14.61
14.95
14.80
14.27
13.63
13.21
13.20
13.56
14.03
14.22
13.85
12.75
10.91
8.39
5.29
1.69
-2.26
-6.39
-10.45
-14.20
-17.49
-20.15
-22.02
-22.92
-22.65
-21.08
-18.30
-14.60
-10.42
-6.23
-2.39
0.87
3.50
5.44
6.68
7.19
7.02
6.29
5.22
3.99
2.73
1.44
-0.01
-1.76
-3.86
-6.21
-8.55
-10.60
-12.14
-13.14
-13.74
-14.22
-14.88
-15.91
-17.37
-19.10
-20.76
-21.91
-22.09
-20.99
-18.51
-14.85
-10.43
-5.78
-1.37
2.46
5.58
8.00
9.77
10.95
11.60
11.73
11.40
10.71
9.77
8.67
7.51
6.32
5.13
3.99
3.00
2.25
1.86
1.82
2.04
2.31
2.37
1.99
1.05
-0.42
-2.28
-4.33
-6.34
-8.07
-9.29
-9.81
-9.53
-8.51
-6.97
-5.23
-3.60
-2.26
-1.25
-0.50
0.07
0.51
0.78
0.92
0.99
1.17
1.64
2.49
3.63
4.88
5.96
6.66
6.93
6.83
6.57
6.35
6.27
6.33
6.40
6.24
5.65
4.53
2.96
1.19
-0.32
-1.06
-0.59
1.32
4.59
8.87
13.63
18.31
22.45
25.75
28.05
29.30
29.44
28.48
26.47
23.63
20.26
16.77
13.49
10.72
8.60
7.12
6.16
5.49
4.87
4.08
2.97
1.53
-0.17
-1.98
-3.81
-5.61
-7.43
-9.39
-11.61
-14.17
-17.03
-19.94
-22.51
-24.28
-24.85
-24.04
-22.02
-19.21
-16.15
-13.30
-10.91
-9.04
-7.62
-6.59
-5.96
-5.73
-5.86
-6.19
-6.48
-6.52
-6.18
-5.45
-4.45
-3.29
-2.10
-1.01
-0.12
0.50
0.83
0.89
0.78
0.56
0.27
-0.16
-0.88
-1.98
-3.50
-5.27
-7.00
-8.30
-8.81
-8.35
-6.95
-4.88
-2.50
-0.13
2.04
3.99
5.74
7.30
8.54
9.32
9.54
9.27
8.69
8.04
7.45
6.89
6.24
5.43
4.51
3.65
3.00
2.58
2.28
1.85
1.13
0.10
-1.17
-2.57
-4.05
-5.70
-7.61
-9.86
-12.40
-15.08
-17.61
-19.64
-20.75
-20.58
-18.90
-15.75
-11.45
-6.54
-1.58
3.02
7.06
10.49
13.26
15.21
16.19
16.14
15.24
13.96
12.94
12.84
14.13
17.00
21.29
26.64
32.52
38.44
44.08
49.36
54.36
59.14
63.52
66.87
68.25
66.55
61.02
51.53
38.88
24.61
10.70
-0.96
-9.01
-12.89
-12.76
-9.29
-3.33
4.34
13.01
21.97
30.45
37.59
42.63
45.16
45.19
43.12
39.42
34.47
28.40
21.31
13.43
5.18
-3.15
-11.84
-22.03
-35.25
-52.46
-73.10
-94.89
-114.55
-129.26
-137.85
-140.96
-140.10
-136.37
-129.69
-119.21
-104.55
-87.00
-69.65
-56.27
-49.52
-49.77
-55.12
-62.44
-68.68
-71.65
-70.17
-63.96
-53.53
-40.33
-26.65
-15.07
-7.43
-3.91
-2.86
-1.51
2.74
11.11
23.12
37.20
51.56
65.02
77.07
87.57
96.42
103.52
108.99
113.28
117.14
121.22
125.73
130.26
134.04
136.34
136.85
135.90
134.24
132.71
131.76
131.29
130.74
129.36
126.58
122.14
116.01
108.30
99.12
88.66
77.29
65.52
53.75
42.01
29.83
16.42
1.24
-15.44
-32.31
-47.27
-58.25
-63.84
-63.73
-58.52
-49.31
-37.23
-23.26
-8.29
6.72
20.73
32.75
42.09
48.54
52.26
53.65
53.18
51.33
48.68
45.93
43.84
42.95
43.19
43.69
42.89
39.04
31.05
19.05
4.49
-10.42
-23.66
-34.34
-43.07
-51.54
-61.70
-74.69
-90.18
-106.36
-120.63
-130.59
-135.03
-134.56
-131.37
-128.41
-128.13
-131.40
-137.07
-142.36
-143.92
-138.90
-125.77
-104.93
-78.94
-52.34
-30.80
-19.40
-20.13
-30.23
-42.29
-47.22
-38.72
-17.03
10.60
33.26
41.66
32.45
8.99
-21.36
-51.49
-77.57
-99.17
-117.12
-130.91
-137.93
-134.65
-119.11
-92.64
-59.84
-26.75
1.77
23.66
39.99
53.88
68.56
85.60
104.17
121.44
133.81
138.65
135.23
124.78
109.51
91.43
71.44
49.16
23.55
-6.20
-40.01
-76.87
-115.27
-153.51
-189.86
-222.35
-248.53
-265.59
-270.90
-262.59
-240.04
-203.83
-155.39
-96.87
-31.41
36.59
101.49
157.19
198.58
223.09
231.53
227.69
216.71
203.06
189.38
176.41
163.72
150.74
137.51
124.72
113.26
103.70
95.65
88.20
80.37
71.62
62.02
52.11
42.63
34.11
26.76
19.56
11.41
1.72
-9.24
-20.44
-30.62
-38.86
-44.87
-48.94
-53.56
-61.14
-73.17
-89.75
-109.74
-131.41
-153.16
-173.52
-191.17
-207.82
-225.04
-243.44
-262.25
-279.65
-293.90
-304.13
-310.28
-312.48
-314.42
-319.10
-327.94
-340.78
-356.57
-374.53
-394.58
-416.54
-415.75
-373.94
-283.85
-155.05
-9.91
128.17
244.05
332.52
395.70
439.33
466.00
476.01
471.82
456.12
432.15
403.53
373.42
344.26
317.69
291.34
261.95
226.26
184.81
138.77
89.82
38.98
-13.68
-68.48
-126.51
-186.26
-242.48
-287.45
-314.39
-320.63
-309.43
-288.40
-265.72
-247.08
-233.23
-221.06
-206.66
-188.32
-167.08
-145.59
-126.21
-109.89
-97.03
-88.26
-84.84
-87.83
-96.79
-108.90
-119.56
-124.21
-120.19
-107.60
-88.73
-66.68
-44.00
-22.28
-2.12
16.39
33.37
49.26
64.86
81.35
100.00
121.84
147.27
176.03
207.02
238.26
267.12
290.77
307.03
315.15
316.03
311.79
304.75
296.40
286.91
275.58
261.63
245.11
227.11
209.34
193.27
179.48
167.56
156.52
145.46
134.01
122.31
110.78
99.67
88.85
77.94
66.62
54.87
43.08
31.84
21.62
12.52
4.28
-3.54
-11.27
-18.91
-26.14
-32.48
-37.45
-40.87
-42.89
-44.00
-44.83
-45.85
-47.08
-48.01
-47.78
-45.65
-41.43
-35.71
-29.60
-24.31
-20.65
-18.76
-18.22
-18.39
-18.64
-18.57
-17.90
-16.48
-14.32
-11.75
-9.42
-8.29
-9.21
-12.57
-18.08
-24.84
-31.63
-37.37
-41.42
-43.63
-44.13
-43.20
-41.04
-37.83
-33.71
-28.88
-23.49
-17.63
-11.19
-4.07
3.71
11.83
19.62
26.22
30.78
32.75
31.99
28.79
23.76
17.74
11.54
5.90
1.41
-1.43
-2.10
-0.09
4.89
12.62
22.18
31.97
40.17
45.29
46.77
45.08
41.55
37.68
34.69
33.16
33.12
34.28
36.21
38.47
40.54
41.85
41.75
39.80
35.84
30.06
22.93
15.06
7.00
-0.79
-7.94
-14.22
-19.51
-23.87
-27.51
-30.70
-33.59
-36.08
-37.90
-38.67
-38.29
-37.03
-35.53
-34.65
-35.10
-37.24
-40.92
-45.59
-50.40
-54.50
-57.08
-57.57
-55.72
-51.68
-46.01
-39.54
-33.23
-27.90
-24.00
-21.59
-20.36
-19.78
-19.30
-18.50
-17.18
-15.33
-13.11
-10.72
-8.31
-5.92
-3.45
-0.74
2.38
5.92
9.76
13.65
17.30
20.41
22.70
23.91
23.86
22.50
20.13
17.35
15.06
14.08
14.92
17.60
21.63
26.26
30.80
34.82
38.24
41.16
43.74
46.02
47.97
49.50
50.60
51.40
52.07
52.81
53.76
54.95
56.36
57.90
59.42
60.80
61.95
62.87
63.68
64.59
65.80
67.30
68.74
69.52
68.94
66.64
62.89
58.61
55.12
53.59
54.69
58.48
64.65
72.89
83.08
94.96
107.74
119.71
128.50
131.65
127.51
115.73
97.25
73.80
47.31
19.60
-7.62
-32.72
-54.27
-71.49
-84.62
-95.05
-104.85
-115.99
-129.57
-145.46
-162.51
-179.11
-193.87
-206.02
-215.60
-223.20
-229.56
-235.06
-239.44
-241.79
-240.89
-235.88
-226.80
-214.78
-201.80
-189.93
-180.69
-174.57
-171.11
-169.30
-168.09
-166.63
-164.18
-159.98
-153.12
-142.77
-128.67
-111.34
-92.06
-72.32
-53.17
-34.77
-16.57
2.08
21.13
39.39
54.82
65.41
70.15
69.66
66.04
62.03
59.94
60.70
63.59
66.77
68.25
66.93
63.10
58.14
53.71
50.85
49.47
48.67
47.46
45.60
44.04
44.56
49.05
58.70
73.44
91.88
111.83
130.90
147.27
160.04
169.07
174.45
175.97
172.70
163.31
146.68
122.34
90.52
51.82
6.97
-42.58
-93.81
-141.45
-178.65
-199.05
-199.45
-181.40
-150.72
-114.98
-80.39
-50.01
-23.99
-1.20
18.93
35.77
48.22
55.93
59.82
61.51
62.12
61.32
57.50
48.77
34.30
15.27
-5.17
-22.84
-33.95
-36.34
-30.04
-17.11
-0.63
16.58
33.06
48.98
65.62
84.18
104.63
125.34
143.49
156.35
162.54
162.90
160.09
157.81
159.31
165.99
176.66
187.49
192.87
186.94
165.70
129.02
81.57
31.83
-10.88
-40.31
-56.26
-64.93
-76.16
-98.77
-136.12
-184.48
-234.83
-277.03
-303.74
-312.26
-303.45
-279.41
-241.71
-191.54
-131.43
-66.81
-5.91
42.25
70.62
76.32
60.98
29.59
-11.38
-55.30
-95.93
-127.68
-146.33
-149.96
-139.69
-119.26
-93.59
-67.05
-42.32
-20.55
-2.44
10.91
17.88
17.35
9.75
-2.49
-15.48
-25.23
-28.98
-25.97
-17.28
-5.07
8.34
21.14
32.24
41.31
48.49
54.15
58.60
61.96
64.21
65.34
65.57
65.29
64.97
64.92
65.12
65.31
65.12
64.33
62.91
61.00
58.82
56.45
53.61
49.57
43.14
33.00
18.24
-0.96
-22.93
-44.63
-62.39
-72.95
-74.50
-67.12
-52.71
-34.26
-15.13
1.70
13.91
20.20
20.34
15.22
6.65
-3.07
-11.77
-17.96
-21.08
-21.37
-19.52
-16.32
-12.49
-8.71
-5.58
-3.60
-2.89
-3.02
-3.13
-2.22
0.37
4.66
10.10
15.80
20.90
24.83
27.34
28.52
28.69
28.45
28.61
30.01
33.30
38.65
45.61
53.24
60.43
66.28
70.37
72.82
74.21
75.24
76.43
77.81
78.84
78.71
76.84
73.36
69.32
66.23
65.13
65.65
65.61
61.59
50.21
29.42
-0.61
-37.53
-77.49
-115.97
-148.57
-171.70
-183.17
-182.73
-172.29
-155.42
-136.29
-118.21
-102.53
-88.49
-74.00
-56.98
-36.52
-13.25
11.02
34.01
53.68
68.61
78.18
82.52
82.45
79.34
74.84
70.35
66.55
63.03
58.53
51.60
41.47
28.63
14.73
1.94
-7.91
-13.87
-15.85
-14.30
-9.72
-2.60
6.39
15.98
24.24
28.95
28.31
21.81
10.47
-3.49
-17.42
-29.29
-38.11
-43.98
-47.51
-49.24
-49.29
-47.48
-43.82
-38.90
-33.90
-30.25
-28.97
-30.32
-33.92
-39.10
-45.36
-52.58
-60.72
-69.41
-77.71
-84.12
-87.03
-85.17
-78.04
-66.11
-50.61
-33.20
-15.63
0.65
14.56
25.59
33.70
39.26
42.95
45.50
47.54
49.42
51.28
53.15
55.13
57.39
60.16
63.46
67.13
70.83
74.26
77.32
80.11
82.72
85.06
86.78
87.59
87.47
87.01
87.14
88.77
92.24
97.04
101.97
105.60
106.76
104.92
100.18
93.05
84.20
74.26
63.71
52.96
42.27
31.81
21.58
11.49
1.34
-8.96
-19.37
-29.61
-39.17
-47.45
-53.92
-58.31
-60.72
-61.62
-61.73
-61.67
-61.80
-62.04
-61.98
-61.06
-58.87
-55.21
-50.16
-43.99
-37.02
-29.59
-22.07
-14.84
-8.24
-2.48
2.41
6.51
9.93
12.71
14.80
16.10
16.61
16.35
15.48
14.11
12.32
10.18
7.78
5.25
2.77
0.48
-1.59
-3.50
-5.37
-7.37
-9.62
-12.20
-15.13
-18.38
-21.79
-25.02
-27.62
-29.04
-28.83
-26.79
-23.10
-18.25
-12.95
-7.88
-3.49
0.09
2.91
5.07
6.56
7.23
6.87
5.45
3.14
0.35
-2.47
-4.99
-7.09
-8.93
-10.75
-12.78
-15.07
-17.48
-19.77
-21.70
-23.09
-23.80
-23.70
-22.58
-20.17
-16.27
-10.90
-4.37
2.66
9.35
14.95
19.04
21.64
23.20
24.42
25.99
28.37
31.64
35.63
39.98
44.33
48.48
52.31
55.79
58.80
61.11
62.45
62.59
61.44
59.15
56.04
52.52
48.97
45.65
42.65
39.95
37.44
35.04
32.64
30.16
27.46
24.39
20.84
16.76
12.22
7.32
2.07
-3.68
-10.16
-17.56
-25.70
-33.87
-40.96
-45.66
-47.01
-44.74
-39.47
-32.49
-25.33
-19.26
-14.96
-12.42
-11.19
-10.72
-10.56
-10.46
-10.26
-9.79
-8.82
-7.17
-4.88
-2.33
-0.11
1.18
1.30
0.42
-0.90
-2.07
-2.66
-2.67
-2.33
-2.00
-1.92
-2.19
-2.84
-3.90
-5.52
-7.85
-10.94
-14.61
-18.40
-21.73
-24.08
-25.13
-24.87
-23.54
-21.47
-18.97
-16.26
-13.42
-10.51
-7.60
-4.85
-2.55
-0.99
-0.39
-0.78
-1.95
-3.57
-5.28
-6.83
-8.18
-9.42
-10.67
-11.96
-13.18
-14.11
-14.52
-14.40
-13.95
-13.57
-13.76
-14.93
-17.28
-20.79
-25.19
-30.09
-34.98
-39.31
-42.58
-44.36
-44.39
-42.74
-39.84
-36.41
-33.11
-30.32
-27.91
-25.42
-22.33
-18.44
-13.98
-9.62
-6.00
-3.48
-1.98
-1.06
-0.16
1.25
3.55
7.00
11.38
16.21
20.78
24.37
26.44
26.85
25.89
24.17
22.44
20.79
19.11
17.10
14.47
10.91
6.11
-0.22
-8.07
-16.94
-26.67
-36.73
-46.30
-54.45
-60.43
-63.98
-65.52
-66.06
-66.74
-69.51
-75.54
-84.77
-96.12
-107.89
-118.81
-128.49
-137.24
-138.12
-125.55
-96.38
-52.05
1.33
56.17
106.20
147.99
180.80
205.91
224.27
236.73
243.81
245.48
242.23
234.95
225.07
214.41
204.83
196.87
190.22
183.96
176.36
166.32
153.57
138.84
123.53
109.06
95.33
80.37
64.77
46.66
24.21
-3.25
-34.68
-67.45
-98.45
-125.51
-148.18
-167.83
-187.50
-210.15
-237.86
-271.64
-311.40
-355.57
-400.68
-440.90
-468.73
-477.70
-464.58
-431.57
-386.14
-338.30
-296.52
-264.47
-240.49
-219.68
-197.91
-174.13
-150.82
-132.07
-120.73
-116.40
-115.41
-112.58
-103.57
-86.79
-63.56
-36.77
-8.94
19.25
49.19
82.99
121.59
163.11
202.61
233.89
252.39
257.80
254.76
251.10
254.42
268.55
292.01
318.92
342.02
356.05
359.51
354.34
343.90
330.68
315.11
295.96
271.79
242.57
210.23
178.01
149.10
125.09
105.21
86.45
64.89
37.43
3.28
-35.46
-74.35
-108.26
-133.12
-147.16
-151.11
-147.49
-139.49
-130.07
-121.54
-115.64
-113.48
-115.47
-121.13
-128.90
-136.58
-141.91
-143.48
-141.10
-135.77
-129.06
-122.33
-116.26
-110.70
-105.04
-98.57
-91.00
-82.42
-73.36
-64.54
-56.66
-50.35
-46.01
-43.78
-43.59
-45.41
-49.43
-56.38
-67.40
-83.80
-106.30
-134.30
-165.36
-195.28
-218.96
-231.71
-230.54
-215.02
-187.18
-150.60
-109.20
-66.10
-23.11
19.31
61.84
106.11
154.54
209.62
272.30
340.26
406.85
461.92
494.78
497.88
469.63
414.63
341.42
259.26
175.62
95.38
21.63
-43.25
-97.14
-138.64
-167.60
-185.00
-192.10
-189.65
-177.96
-158.04
-132.76
-107.14
-87.09
-77.19
-78.69
-89.00
-103.05
-115.49
-122.73
-123.74
-119.61
-112.35
-103.73
-94.77
-85.52
-75.26
-62.57
-45.69
-23.31
4.55
35.80
66.55
92.21
109.12
115.81
113.28
104.12
91.31
77.18
63.10
49.86
37.97
27.96
20.13
14.33
9.96
6.28
2.92
0.26
-0.57
1.86
8.62
19.75
34.10
49.52
63.66
74.70
81.87
85.46
86.40
85.55
83.21
78.96
71.85
60.83
45.28
25.30
1.90
-23.18
-47.82
-69.91
-87.80
-100.61
-108.35
-111.90
-112.58
-111.84
-110.88
-110.27
-109.95
-109.25
-107.11
-102.40
-94.25
-82.29
-66.81
-48.78
-29.66
-11.24
4.72
16.75
23.99
26.43
25.04
21.71
18.85
18.68
22.51
30.23
40.59
51.94
63.16
74.24
86.01
99.19
113.39
126.82
136.97
141.88
141.05
135.41
126.37
114.59
99.46
79.86
55.50
28.11
1.43
-20.13
-33.41
-37.73
-35.00
-28.31
-20.36
-12.39
-4.34
4.11
12.61
19.89
24.40
25.24
22.91
19.11
15.96
14.97
16.42
19.25
21.72
22.10
19.46
14.03
7.28
1.58
-0.34
3.86
15.20
32.66
52.83
70.59
80.40
78.21
63.03
37.60
7.82
-18.95
-36.17
-39.95
-29.98
-9.15
17.63
44.96
68.16
84.01
90.86
88.46
77.75
60.61
39.68
18.04
-1.42
-16.73
-27.27
-33.63
-36.76
-36.96
-33.18
-23.49
-6.50
17.22
44.33
69.54
87.30
93.83
88.17
71.83
47.64
18.51
-13.02
-44.34
-72.11
-92.06
-99.93
-93.02
-71.76
-40.14
-4.88
26.55
48.15
56.77
52.41
37.59
16.38
-6.43
-25.94
-37.86
-39.48
-30.70
-14.55
3.44
17.04
21.52
15.56
1.64
-15.05
-28.60
-34.36
-30.24
-17.11
1.66
20.91
34.87
38.61
29.45
7.99
-21.76
-53.39
-79.89
-95.63
-97.85
-86.99
-66.15
-39.97
-13.43
9.15
24.68
31.82
31.07
24.68
15.84
7.69
2.15
-0.60
-1.93
-3.73
-7.29
-12.45
-17.58
-20.13
-17.64
-8.79
6.00
24.33
42.21
55.05
58.90
51.67
33.86
8.36
-20.43
-47.96
-70.69
-86.61
-95.10
-96.36
-90.97
-79.81
-64.20
-46.17
-28.24
-12.85
-1.46
6.15
11.95
19.02
30.11
46.19
65.55
84.10
96.73
99.20
89.69
69.24
41.04
8.95
-23.61
-54.17
-80.69
-100.82
-111.44
-109.02
-90.74
-55.99
-7.38
49.07
104.92
151.11
180.17
187.73
173.32
140.12
94.27
43.74
-3.01
-38.73
-59.07
-63.76
-56.48
-43.28
-29.93
-19.75
-12.77
-6.91
-0.19
7.43
13.83
16.18
12.94
5.10
-4.15
-11.06
-13.13
-10.06
-3.60
3.39
8.02
8.08
2.40
-9.12
-25.57
-45.10
-65.14
-82.75
-95.08
-99.87
-95.94
-83.56
-64.56
-42.22
-20.75
-4.35
3.90
2.97
-5.62
-18.25
-30.29
-37.57
-37.65
-30.31
-17.19
-0.82
16.46
33.02
47.85
59.90
67.57
68.66
61.10
44.17
19.48
-8.82
-34.93
-53.04
-59.10
-51.66
-32.00
-3.28
30.42
64.70
95.26
117.92
129.09
126.40
109.51
80.44
43.22
3.10
-34.62
-65.58
-87.08
-98.46
-101.25
-98.71
-94.91
-93.31
-95.53
-100.77
-106.15
-108.10
-103.81
-92.42
-75.21
-54.99
-35.07
-18.32
-6.61
-0.53
0.62
-1.39
-4.03
-4.57
-0.71
8.92
24.43
44.75
68.07
92.51
116.85
140.99
165.95
193.30
224.33
259.07
295.84
331.34
361.54
382.78
392.85
391.41
379.61
359.35
332.44
300.18
263.42
222.82
179.28
133.92
87.94
42.25
-2.69
-46.88
-90.63
-134.45
-178.97
-224.69
-271.61
-318.90
-364.66
-405.98
-439.40
-461.46
-469.33
-461.37
-437.31
-398.32
-346.94
-286.67
-221.40
-154.77
-89.74
-28.33
28.08
78.25
120.41
151.84
169.06
168.78
149.28
111.66
60.25
1.96
-55.42
-104.94
-141.83
-164.07
-172.21
-168.96
-158.69
-146.76
-138.42
-137.19
-143.51
-154.19
-163.49
-165.40
-155.84
-133.84
-101.19
-60.85
-15.13
35.08
89.62
147.25
203.85
251.88
281.92
285.88
260.82
211.30
148.93
88.88
44.78
24.12
26.20
43.57
65.78
83.63
91.90
89.80
79.43
63.86
45.58
26.05
6.07
-13.41
-30.87
-44.43
-52.42
-54.03
-49.70
-41.13
-30.57
-20.02
-10.63
-2.43
5.11
12.38
19.06
23.87
25.13
21.56
13.26
1.94
-9.36
-17.43
-20.03
-16.77
-9.20
-0.08
7.71
12.31
13.36
11.88
9.56
8.00
8.09
9.77
12.22
14.25
14.71
12.86
8.64
2.60
-4.21
-10.62
-15.70
-18.98
-20.52
-20.80
-20.44
-19.95
-19.61
-19.48
-19.48
-19.65
-20.32
-22.08
-25.63
-31.32
-38.80
-46.74
-52.94
-54.99
-51.20
-41.34
-26.83
-10.29
5.54
18.64
28.27
34.86
39.53
43.52
47.84
52.92
58.41
63.14
65.42
64.00
59.20
53.60
51.53
57.28
72.82
96.38
122.93
146.40
162.48
170.14
171.32
168.72
163.48
153.99
136.69
108.16
67.35
16.74
-37.96
-89.33
-130.25
-155.67
-163.99
-157.52
-141.84
-124.36
-112.02
-109.17
-116.38
-130.82
-148.07
-164.19
-177.31
-187.68
-196.49
-204.23
-209.69
-210.08
-201.96
-182.76
-151.89
-111.24
-65.04
-19.20
19.95
47.15
59.68
58.25
46.92
31.62
18.12
10.16
8.83
13.31
22.32
35.13
51.56
71.10
91.83
110.50
123.85
130.43
131.85
132.45
137.46
150.44
171.43
196.65
220.01
235.36
238.80
230.02
212.20
190.81
171.76
159.35
155.05
157.24
162.00
164.58
160.93
148.77
127.98
100.34
68.84
37.00
7.94
-16.18
-34.69
-48.48
-59.59
-70.48
-83.16
-98.47
-115.82
-133.38
-148.55
-158.76
-162.18
-158.32
-148.38
-135.07
-122.04
-112.95
-110.54
-115.79
-127.69
-143.31
-158.57
-169.18
-171.68
-164.10
-146.24
-119.35
-85.75
-48.44
-10.81
23.64
51.72
71.09
80.80
81.46
75.02
64.08
51.21
38.34
26.69
16.77
8.27
0.00
-9.91
-23.44
-41.58
-63.49
-86.44
-106.90
-122.24
-132.14
-138.96
-146.44
-157.74
-173.70
-192.23
-209.33
-220.81
-224.02
-218.57
-206.40
-190.53
-174.07
-159.46
-148.03
-140.27
-135.38
-131.68
-127.16
-120.39
-110.87
-98.73
-83.90
-65.30
-41.53
-10.87
27.66
73.11
122.05
169.17
208.68
236.08
249.14
246.25
226.86
191.12
140.07
76.71
6.90
-60.61
-115.61
-149.02
-158.06
-145.67
-119.07
-86.93
-56.45
-32.03
-15.20
-5.52
9.53
38.22
83.59
141.88
204.87
264.38
315.13
355.09
384.73
404.95
416.88
420.74
416.83
406.36
391.57
374.87
357.84
340.69
324.70
308.41
289.91
268.05
243.03
216.15
189.01
162.86
138.34
115.61
93.50
70.93
47.53
23.81
0.84
-20.41
-39.39
-56.03
-70.47
-83.46
-95.55
-106.89
-117.28
-126.58
-135.00
-143.14
-151.73
-161.31
-172.26
-184.53
-197.91
-212.14
-227.15
-243.14
-260.20
-278.36
-297.95
-320.08
-346.58
-379.02
-417.08
-457.14
-492.39
-514.37
-515.93
-493.91
-450.19
-390.45
-321.56
-249.45
-178.15
-110.44
-48.67
4.91
49.06
84.52
114.20
142.06
170.99
201.07
229.24
250.50
260.01
255.05
235.83
204.90
165.71
120.95
71.61
17.02
-43.85
-110.60
-179.91
-245.32
-299.08
-334.84
-350.30
-347.96
-333.99
-315.50
-297.86
-283.53
-272.57
-264.35
-258.92
-257.30
-260.47
-268.10
-277.96
-286.51
-290.44
-288.22
-280.72
-270.77
-261.49
-254.47
-248.73
-240.89
-226.51
-202.13
-166.90
-123.01
-75.04
-28.01
14.58
52.00
86.44
122.10
163.57
214.00
273.16
336.42
395.08
438.31
456.53
445.13
406.82
351.59
293.88
248.13
224.16
224.41
243.63
271.29
295.38
306.15
298.75
274.22
238.37
199.63
165.99
142.68
130.86
128.28
130.85
134.68
137.43
138.44
137.84
135.34
129.81
120.23
107.08
93.25
83.41
81.39
87.14
95.50
98.00
87.19
61.04
24.67
-11.82
-38.32
-49.43
-46.08
-33.84
-19.03
-5.41
6.87
19.98
36.10
55.84
78.17
101.49
124.72
147.42
168.85
186.93
198.36
199.92
190.65
173.07
152.74
135.79
125.66
121.09
116.86
106.83
87.69
61.05
32.23
6.65
-13.94
-32.74
-55.97
-88.87
-132.18
-181.30
-228.14
-264.77
-286.33
-292.07
-284.24
-266.10
-240.48
-209.54
-175.44
-140.95
-109.21
-82.60
-61.55
-44.20
-27.35
-8.29
13.54
36.05
55.41
67.82
71.21
66.08
55.22
42.77
32.83
28.36
30.60
38.97
51.62
66.18
80.69
93.98
105.60
115.25
122.15
124.97
122.34
113.77
100.29
84.25
68.29
53.94
40.91
27.49
11.82
-6.70
-26.75
-45.81
-61.52
-73.34
-82.89
-93.31
-107.50
-126.78
-150.35
-175.81
-200.10
-220.25
-233.57
-237.52
-229.81
-208.99
-175.36
-131.61
-82.60
-34.28
8.12
41.35
64.68
79.24
86.91
89.31
87.39
81.60
72.31
60.16
46.15
31.48
17.25
4.19
-7.44
-17.91
-27.80
-37.49
-46.68
-53.80
-56.05
-50.32
-34.82
-10.54
18.02
43.87
59.88
61.42
48.28
24.99
-0.59
-19.76
-25.73
-15.53
9.30
43.47
79.72
111.07
132.74
143.05
143.27
136.41
125.83
114.07
102.64
92.43
84.25
78.82
76.20
75.27
73.50
67.79
55.88
37.83
16.33
-4.12
-19.04
-25.94
-25.07
-19.10
-11.79
-6.65
-6.03
-11.04
-21.44
-35.74
-51.09
-63.57
-69.27
-65.74
-53.28
-35.35
-17.50
-5.43
-2.98
-11.00
-27.46
-48.45
-69.38
-86.04
-95.22
-95.25
-86.19
-69.92
-49.66
-28.91
-10.49
4.05
14.36
20.50
22.30
19.23
10.92
-2.03
-17.59
-32.95
-45.49
-53.91
-58.51
-60.55
-61.19
-60.70
-58.61
-54.42
-48.43
-41.72
-35.42
-29.69
-23.31
-14.23
-1.10
15.28
31.59
43.12
46.22
40.50
29.70
20.38
19.15
29.70
51.17
78.69
105.58
125.87
136.01
135.22
124.77
107.12
85.51
63.85
46.51
37.29
37.67
45.49
54.90
58.44
50.19
28.60
-2.69
-36.45
-64.83
-82.02
-85.27
-74.21
-49.66
-12.97
33.34
84.51
133.15
170.66
189.92
188.26
168.76
139.11
108.66
84.86
70.79
64.84
61.94
56.15
42.82
19.97
-11.63
-49.21
-89.15
-127.84
-162.02
-188.90
-206.16
-212.30
-207.13
-192.07
-170.03
-144.79
-119.93
-98.03
-80.21
-66.24
-55.13
-45.83
-37.75
-30.91
-25.73
-22.59
-21.40
-21.41
-21.24
-19.37
-14.66
-6.83
3.34
14.29
24.16
31.43
35.30
35.78
33.46
29.04
23.00
15.41
6.17
-4.48
-15.44
-24.68
-29.65
-28.22
-19.68
-5.23
12.26
29.26
42.83
51.51
55.43
55.64
53.10
47.87
39.09
25.68
7.48
-13.95
-35.37
-52.69
-62.57
-63.77
-57.61
-47.31
-36.52
-27.84
-22.21
-19.35
-18.70
-20.18
-23.94
-29.68
-36.03
-40.81
-42.20
-39.74
-34.60
-28.57
-22.53
-15.36
-4.09
14.61
42.55
78.96
120.58
162.63
200.00
228.04
242.76
241.00
220.82
182.29
128.16
63.96
-2.78
-64.18
-114.07
-149.37
-170.45
-180.00
-181.41
-177.20
-168.58
-156.01
-140.43
-123.91
-109.47
-99.88
-96.31
-97.83
-101.87
-105.57
-106.94
-105.41
-101.46
-95.61
-88.20
-79.14
-68.69
-57.78
-47.73
-39.24
-31.44
-22.00
-8.45
10.00
31.52
52.24
68.26
77.99
82.93
86.87
93.66
105.29
121.44
140.90
163.55
191.10
225.90
268.26
314.20
355.39
381.89
386.17
366.62
328.45
281.26
235.45
197.95
170.80
151.78
137.23
124.50
113.18
104.61
100.12
99.66
101.19
101.71
98.56
90.80
79.53
66.96
55.13
44.59
34.32
22.71
9.17
-4.71
-15.47
-19.60
-16.07
-7.52
0.16
0.39
-11.26
-35.36
-68.73
-106.50
-144.00
-178.22
-207.36
-230.10
-244.58
-248.79
-241.81
-225.08
-202.76
-180.43
-162.99
-152.30
-146.40
-140.03
-127.20
-103.80
-69.35
-27.09
17.52
59.07
93.72
119.63
136.16
143.05
139.92
126.76
104.54
75.48
42.43
7.79
-27.38
-62.96
-98.59
-132.18
-159.59
-175.84
-177.41
-164.20
-140.14
-111.86
-85.99
-66.56
-53.85
-45.11
-36.75
-26.75
-15.76
-6.77
-3.31
-7.57
-19.30
-36.09
-54.62
-72.20
-87.59
-100.66
-111.31
-118.30
-118.85
-109.47
-87.58
-53.48
-11.36
31.33
66.08
86.32
89.45
77.27
54.10
24.29
-9.32
-45.15
-81.17
-113.44
-136.49
-145.58
-139.47
-121.74
-99.41
-79.65
-66.32
-58.46
-51.50
-40.17
-21.38
4.45
34.00
62.99
88.10
107.94
122.92
134.22
142.65
147.94
148.90
144.32
134.14
120.13
105.45
93.47
86.25
83.80
84.24
85.00
84.03
80.76
76.06
71.49
68.34
66.85
66.18
64.84
61.54
55.75
47.82
38.57
28.81
19.19
10.59
4.73
4.18
11.44
27.19
49.08
71.75
88.82
95.52
90.38
75.11
52.86
26.58
-1.34
-27.94
-48.31
-55.73
-43.85
-10.12
41.88
102.76
160.61
205.43
232.47
242.88
241.65
234.52
225.25
214.76
201.74
184.27
161.31
133.54
103.16
72.56
43.26
15.32
-11.89
-38.49
-63.28
-84.58
-101.78
-116.66
-132.72
-152.38
-174.32
-192.51
-198.59
-186.79
-158.20
-121.31
-88.21
-68.39
-64.06
-69.63
-75.36
-72.92
-59.45
-38.10
-15.44
2.52
13.14
17.76
19.80
22.12
25.12
26.40
22.70
12.17
-4.12
-22.69
-39.51
-52.30
-61.48
-69.33
-78.08
-87.91
-96.92
-102.40
-102.42
-96.64
-86.00
-71.68
-54.57
-35.53
-16.09
1.17
13.08
17.21
13.21
3.31
-8.50
-18.13
-23.23
-24.10
-23.16
-22.98
-24.24
-24.87
-21.14
-10.33
6.63
24.68
36.60
36.71
24.11
3.61
-16.34
-27.63
-26.36
-14.84
-0.72
6.06
-2.48
-29.06
-69.83
-115.80
-156.26
-182.28
-189.10
-175.97
-144.97
-99.57
-44.45
13.82
66.84
106.16
126.53
128.75
119.61
108.53
102.75
104.15
109.34
113.18
112.47
107.65
101.37
95.37
88.28
75.97
54.49
23.43
-12.70
-46.28
-70.42
-82.85
-87.22
-91.49
-104.11
-129.79
-167.55
-211.21
-252.09
-282.43
-297.81
-297.92
-285.68
-265.43
-241.07
-214.92
-187.23
-156.41
-119.67
-74.21
-18.82
44.80
111.49
173.31
221.43
248.50
250.20
225.72
177.11
108.59
26.42
-60.91
-142.76
-207.80
-246.61
-254.80
-234.84
-195.07
-146.41
-98.05
-54.40
-14.75
24.90
69.29
121.96
184.18
254.68
329.42
401.83
463.52
506.41
525.17
518.84
490.88
447.28
394.18
336.16
276.28
217.23
162.30
115.09
77.92
50.12
27.36
3.02
-29.03
-71.66
-123.17
-177.96
-228.69
-268.95
-295.05
-306.22
-303.80
-289.80
-266.07
-234.20
-195.92
-153.51
-109.61
-66.58
-25.88
11.87
45.97
74.45
93.91
100.73
93.45
74.81
51.84
33.72
28.30
38.98
63.90
97.36
132.67
164.23
188.37
202.66
204.99
193.51
167.64
129.41
83.80
37.59
-2.99
-34.53
-57.32
-74.79
-91.46
-110.97
-134.96
-163.00
-193.81
-226.68
-262.43
-303.10
-350.30
-403.04
-456.47
-502.41
-531.87
-538.46
-520.84
-483.20
-433.11
-378.36
-324.14
-272.25
-222.42
-174.49
-130.17
-92.94
-66.42
-52.24
-48.54
-50.23
-50.71
-44.14
-27.35
-0.48
34.09
73.60
116.46
162.42
211.27
261.14
307.40
343.64
364.10
366.32
352.35
327.68
298.70
269.88
242.75
216.58
190.15
163.29
136.91
111.61
86.10
56.98
20.29
-25.41
-76.68
-125.02
-159.02
-168.35
-147.45
-97.14
-24.55
58.97
140.39
207.56
251.47
268.08
259.24
232.40
198.37
167.58
146.52
135.81
131.05
125.72
114.73
96.31
71.83
44.05
14.95
-15.33
-48.14
-84.99
-125.99
-168.79
-209.40
-243.89
-270.50
-290.60
-307.52
-324.05
-340.16
-352.27
-355.28
-345.85
-324.95
-297.90
-271.62
-250.81
-235.53
-221.49
-202.78
-175.09
-137.46
-91.54
-39.72
16.09
74.31
132.34
185.28
226.37
249.21
250.63
232.88
203.14
170.78
143.49
124.13
110.08
94.85
71.56
36.36
-9.46
-59.46
-103.88
-132.57
-137.78
-115.91
-68.20
-0.16
79.35
159.58
229.28
278.73
301.57
296.11
265.58
216.78
157.33
92.79
25.24
-45.71
-120.16
-195.20
-264.35
-319.34
-353.67
-365.49
-358.40
-339.35
-315.63
-292.00
-269.82
-248.04
-224.90
-199.07
-169.55
-135.31
-95.62
-51.54
-7.77
26.93
42.27
31.06
-6.54
-61.44
-118.42
-161.98
-182.37
-178.32
-155.79
-123.63
-89.07
-55.54
-23.34
8.30
39.45
69.42
97.85
125.56
154.20
184.72
215.33
241.07
255.29
252.64
232.18
198.73
161.50
130.57
112.69
108.65
113.45
119.02
117.79
105.39
81.53
49.36
14.28
-17.21
-38.62
-44.78
-33.60
-7.83
24.61
52.55
65.36
57.26
29.78
-8.75
-46.40
-72.05
-78.94
-66.38
-39.12
-5.19
26.87
50.56
62.92
64.32
57.35
45.31
30.91
16.25
2.93
-7.62
-14.43
-17.41
-17.58
-16.57
-15.42
-13.69
-9.86
-2.59
7.71
18.31
25.14
24.87
16.72
3.12
-11.35
-21.81
-24.89
-19.55
-6.82
10.82
30.27
48.39
62.33
69.91
70.00
62.61
49.11
32.12
15.16
2.31
-2.86
1.52
14.87
34.21
55.04
72.46
82.51
82.84
72.95
53.94
28.15
-1.44
-31.76
-59.99
-83.56
-99.78
-105.46
-96.94
-71.45
-29.39
23.87
77.76
118.99
136.12
124.13
86.70
34.81
-17.58
-58.57
-81.95
-87.93
-81.00
-66.70
-48.94
-29.12
-6.81
18.79
47.82
79.51
112.34
144.11
171.69
190.74
196.27
184.36
154.74
112.71
68.59
34.53
19.89
27.54
52.99
87.03
119.75
143.70
154.85
151.52
133.13
100.25
55.56
5.02
-42.54
-77.90
-95.02
-93.47
-78.36
-57.84
-39.16
-26.02
-17.83
-11.43
-3.79
5.90
15.83
22.97
25.20
22.86
18.98
18.06
24.24
39.45
62.74
90.48
117.36
137.69
147.04
143.61
129.32
109.95
93.65
88.03
96.91
118.22
144.53
166.22
175.54
169.74
151.57
127.06
102.23
80.50
61.97
44.72
26.89
8.09
-10.50
-27.19
-40.98
-52.14
-61.90
-71.67
-82.29
-93.72
-105.19
-115.61
-123.94
-129.26
-130.91
-128.44
-121.77
-111.36
-98.28
-84.20
-71.12
-61.02
-55.46
-55.38
-60.86
-71.11
-84.37
-98.10
-109.45
-116.04
-116.75
-112.24
-104.67
-96.85
-90.96
-87.64
-85.83
-83.37
-78.09
-68.73
-55.36
-39.01
-21.12
-2.91
14.89
31.86
47.61
61.40
72.17
78.75
80.39
77.14
69.90
60.22
49.64
39.30
29.67
20.76
12.60
5.66
0.88
-0.67
1.58
7.13
14.37
21.09
25.34
26.13
23.71
19.05
13.21
6.86
0.17
-6.66
-13.07
-17.91
-19.87
-18.00
-12.20
-3.25
7.52
18.69
29.02
37.53
43.46
46.30
45.96
42.83
37.77
31.76
25.51
19.34
13.29
7.46
2.25
-1.74
-4.03
-4.71
-4.50
-4.52
-5.86
-9.13
-14.39
-21.22
-29.03
-37.15
-44.81
-51.06
-54.92
-55.54
-52.52
-46.11
-37.16
-26.93
-16.67
-7.41
0.16
5.71
9.21
10.84
10.99
10.22
9.15
8.35
8.13
8.48
9.00
9.10
8.19
5.92
2.35
-2.08
-6.76
-11.20
-15.26
-19.25
-23.71
-29.15
-35.73
-43.16
-50.76
-57.73
-63.39
-67.22
-68.93
-68.26
-64.97
-58.87
-49.99
-38.72
-25.85
-12.51
0.13
11.03
19.57
25.58
29.26
31.04
31.35
30.49
28.61
25.87
22.60
19.39
17.05
16.37
17.66
20.48
23.61
25.36
24.18
19.30
10.99
0.44
-10.77
-21.27
-30.17
-37.08
-41.72
-43.73
-42.59
-37.97
-30.12
-19.96
-8.87
1.81
11.30
19.51
26.73
33.16
38.52
42.19
43.52
42.49
39.83
36.80
34.52
33.31
32.35
30.00
24.69
15.90
4.62
-6.88
-16.04
-21.18
-22.19
-20.45
-17.97
-16.45
-16.67
-18.40
-20.91
-23.44
-25.40
-26.19
-25.02
-20.93
-13.14
-1.65
12.50
27.36
40.73
50.90
57.25
60.38
61.74
62.82
64.34
65.72
65.14
60.13
48.53
29.34
3.00
-28.66
-62.77
-95.93
-124.55
-145.49
-156.65
-157.63
-149.80
-135.72
-118.13
-99.05
-79.88
-62.22
-48.74
-42.93
-47.47
-62.07
-82.10
-99.44
-105.40
-94.26
-65.60
-24.08
22.87
67.98
106.03
134.20
151.19
156.66
151.22
136.98
117.79
98.58
83.79
75.86
74.31
76.29
78.08
76.85
71.83
64.26
56.42
50.16
45.86
42.25
37.21
29.33
19.16
9.54
4.60
7.84
20.36
40.21
63.20
84.67
101.08
110.62
112.97
108.54
97.96
82.11
62.48
41.12
19.97
0.04
-18.91
-37.72
-56.61
-74.23
-87.89
-94.87
-94.16
-87.27
-77.69
-69.21
-64.27
-63.30
-65.17
-68.37
-71.91
-75.42
-78.53
-80.16
-78.49
-71.66
-58.94
-41.47
-22.21
-5.01
6.86
11.85
10.62
5.52
-0.61
-5.62
-8.84
-10.98
-13.36
-17.13
-22.73
-29.94
-38.23
-46.94
-55.25
-62.03
-65.93
-65.85
-61.82
-55.61
-50.48
-50.03
-56.51
-69.54
-85.99
-101.34
-111.79
-116.14
-116.04
-114.65
-114.35
-114.84
-112.87
-103.73
-83.72
-52.17
-11.88
32.08
74.41
111.11
139.86
159.43
168.78
166.91
153.61
130.41
101.13
71.28
46.39
30.39
24.66
28.31
39.49
57.08
81.60
114.78
157.67
208.42
261.00
306.09
333.83
337.41
315.83
273.99
220.32
163.09
107.21
53.58
1.15
-49.92
-95.90
-130.05
-145.74
-140.12
-115.80
-79.38
-37.76
4.99
48.33
93.28
139.05
181.28
213.17
228.81
226.48
209.82
185.88
161.67
141.18
124.44
108.68
90.54
67.88
40.78
11.57
-15.78
-36.94
-48.66
-50.00
-42.98
-31.59
-20.51
-13.57
-13.15
-20.52
-36.22
-60.16
-90.67
-123.62
-152.37
-169.41
-169.09
-150.12
-116.73
-77.29
-41.22
-15.68
-3.20
-1.71
-6.01
-10.44
-11.10
-7.07
-0.32
5.34
5.60
-3.21
-23.00
-53.38
-91.51
-132.25
-169.65
-198.93
-218.51
-230.82
-241.44
-256.94
-281.99
-317.40
-359.48
-401.13
-433.97
-450.82
-447.58
-423.90
-383.02
-330.60
-273.18
-216.57
-164.80
-119.54
-80.37
-45.70
-14.02
15.03
40.39
60.16
72.91
78.70
79.95
80.78
85.42
96.82
115.95
142.37
175.37
214.45
258.56
304.77
347.29
378.21
390.07
378.89
345.92
297.20
240.91
184.04
129.90
78.19
27.22
-23.08
-69.41
-106.00
-127.27
-130.94
-119.46
-98.89
-76.08
-55.71
-38.76
-23.47
-7.62
9.55
26.54
40.58
49.17
51.26
47.52
39.89
30.86
22.93
18.31
18.15
22.16
28.39
33.92
36.13
33.87
27.74
19.18
8.65
-5.61
-27.26
-59.66
-102.96
-152.34
-198.60
-231.18
-242.12
-228.94
-194.62
-145.19
-86.51
-22.71
43.09
106.34
159.38
192.31
196.66
169.96
118.46
55.98
-0.99
-39.48
-54.50
-49.75
-34.62
-19.07
-9.36
-6.28
-6.16
-3.65
5.58
23.34
48.91
79.97
113.64
146.77
175.76
196.52
204.89
197.67
173.95
135.72
87.67
35.93
-13.74
-57.51
-94.14
-124.37
-149.52
-169.78
-183.54
-187.94
-180.65
-161.76
-134.68
-105.34
-80.03
-63.03
-55.07
-53.66
-54.61
-54.12
-50.47
-45.08
-42.54
-49.25
-70.97
-109.78
-161.91
-217.78
-265.00
-292.99
-296.99
-279.44
-247.78
-210.29
-172.14
-134.05
-93.50
-47.46
5.21
63.14
123.00
180.87
233.09
276.49
308.40
326.87
331.23
322.45
303.44
278.41
251.66
226.39
203.78
183.14
162.80
141.32
118.37
94.87
72.31
51.97
34.36
19.32
6.42
-4.77
-14.76
-24.30
-34.25
-45.25
-57.16
-68.97
-79.09
-86.28
-90.31
-92.05
-92.87
-93.87
-95.38
-96.93
-97.76
-97.09
-94.23
-88.48
-78.87
-64.56
-45.39
-22.66
0.74
20.90
34.14
38.41
34.10
23.94
11.84
1.46
-5.02
-7.35
-6.82
-5.43
-5.02
-6.93
-11.85
-19.78
-29.83
-40.19
-48.38
-52.10
-50.09
-42.72
-31.37
-17.45
-1.32
17.87
41.01
67.46
94.18
116.41
129.74
132.20
125.15
112.24
97.23
82.13
66.71
49.71
30.54
10.42
-7.84
-21.00
-26.83
-24.91
-16.55
-4.28
8.85
19.91
26.68
28.16
24.88
18.58
11.57
5.65
1.45
-1.78
-6.12
-14.54
-30.49
-56.88
-94.79
-141.93
-192.06
-236.11
-264.95
-272.73
-259.26
-229.74
-192.30
-154.19
-119.24
-87.25
-55.66
-21.99
14.52
53.22
93.41
135.48
180.66
229.36
279.63
326.93
365.76
392.04
404.78
405.71
397.31
380.74
355.41
320.33
276.38
227.58
180.16
139.90
109.52
87.70
70.52
54.16
37.15
20.82
8.04
1.31
0.76
3.74
5.56
1.10
-13.15
-37.50
-69.06
-102.78
-133.40
-157.66
-175.23
-188.16
-199.03
-209.21
-217.97
-222.72
-220.36
-208.99
-189.26
-164.72
-141.05
-124.35
-118.95
-125.58
-140.87
-158.43
-171.18
-174.06
-165.70
-148.54
-127.14
-105.72
-86.40
-68.53
-49.56
-26.83
0.55
30.99
60.37
83.47
96.05
96.50
86.41
69.56
50.09
30.56
11.17
-9.80
-34.55
-64.42
-99.37
-138.05
-178.27
-217.23
-251.72
-278.17
-293.33
-295.26
-284.01
-261.69
-231.68
-197.24
-160.55
-122.18
-81.31
-36.31
14.45
71.51
133.17
194.83
249.53
289.78
310.20
309.66
291.88
263.90
233.55
207.06
187.75
176.25
171.36
170.84
171.83
171.06
165.33
152.48
132.41
107.42
81.45
58.67
41.91
31.73
26.32
22.45
16.76
7.21
-5.97
-19.99
-30.03
-30.53
-17.03
12.19
55.05
105.91
157.23
202.05
236.20
259.01
272.16
277.43
274.82
262.29
237.44
199.83
152.46
101.05
51.80
8.41
-29.26
-64.58
-101.99
-144.72
-193.55
-246.80
-300.72
-349.92
-388.19
-409.85
-411.84
-395.65
-367.67
-337.29
-313.29
-300.13
-296.36
-295.85
-291.21
-277.22
-252.54
-218.96
-179.17
-134.56
-84.49
-27.33
37.44
107.52
177.23
238.68
284.45
310.29
316.72
308.54
292.48
274.01
254.93
232.63
201.62
156.76
96.48
24.76
-49.33
-114.06
-158.62
-176.26
-165.66
-130.48
-77.44
-14.34
51.11
111.57
160.19
191.28
201.66
191.90
166.42
132.00
94.91
58.35
21.39
-19.55
-67.66
-122.52
-178.55
-226.18
-255.32
-259.57
-239.05
-200.58
-155.05
-113.28
-82.40
-64.18
-55.87
-52.62
-49.95
-45.15
-37.11
-25.42
-9.50
11.20
36.18
62.92
87.02
103.68
110.35
108.57
103.92
103.70
113.20
132.63
156.38
175.19
180.05
166.13
134.55
91.48
45.30
3.24
-30.59
-55.54
-73.14
-85.55
-94.49
-101.15
-106.71
-112.78
-121.28
-133.51
-149.23
-166.29
-181.35
-191.06
-193.40
-188.18
-176.58
-160.29
-140.53
-117.93
-92.55
-64.29
-33.23
-0.02
33.86
65.98
93.07
111.88
120.16
117.58
105.85
88.09
67.57
46.43
25.22
3.11
-21.20
-48.20
-76.64
-103.19
-123.24
-132.69
-129.98
-117.35
-100.36
-85.79
-78.64
-79.97
-86.78
-93.90
-96.68
-92.89
-83.02
-69.00
-52.56
-34.43
-14.65
6.51
27.81
47.20
62.57
72.67
77.56
78.49
77.28
75.71
74.90
75.01
75.29
74.42
71.09
64.69
55.73
45.83
37.24
32.01
31.13
34.20
39.54
44.81
47.86
47.32
42.88
35.14
25.33
14.81
4.87
-3.36
-8.96
-11.20
-9.70
-4.43
4.12
15.01
27.02
38.84
49.35
57.73
63.46
66.29
66.16
63.24
57.91
50.82
42.78
34.60
26.87
19.95
13.97
8.95
4.92
1.88
-0.24
-1.62
-2.57
-3.47
-4.61
-6.21
-8.36
-11.08
-14.26
-17.65
-20.71
-22.76
-23.02
-20.96
-16.46
-9.94
-2.21
5.79
13.29
19.82
25.21
29.44
32.44
34.14
34.46
33.44
31.28
28.32
24.86
21.13
17.29
13.57
10.28
7.84
6.61
6.62
7.46
8.31
8.21
6.39
2.58
-2.88
-9.14
-15.09
-19.62
-21.89
-21.40
-18.12
-12.35
-4.78
3.76
12.38
20.40
27.37
33.14
37.71
41.15
43.51
44.78
44.96
44.09
42.25
39.66
36.70
33.90
31.78
30.70
30.63
31.03
30.97
29.42
25.68
19.55
11.41
1.93
-8.12
-18.08
-27.31
-35.19
-41.07
-44.39
-44.88
-42.58
-37.96
-31.62
-24.17
-16.10
-7.77
0.51
8.31
15.19
20.73
24.71
27.17
28.35
28.57
28.09
26.97
25.15
22.48
18.89
14.47
9.47
4.30
-0.66
-5.16
-9.15
-12.79
-16.45
-20.56
-25.51
-31.49
-38.27
-45.14
-50.98
-54.46
-54.50
-50.57
-42.92
-32.45
-20.42
-8.15
3.31
13.19
21.02
26.63
30.06
31.70
32.16
32.05
31.75
31.19
29.88
27.16
22.61
16.35
9.05
1.74
-4.55
-9.19
-12.06
-13.53
-14.24
-14.96
-16.34
-18.75
-22.14
-26.03
-29.57
-31.79
-31.93
-29.67
-25.27
-19.32
-12.53
-5.38
1.90
9.24
16.51
23.40
29.53
34.55
38.34
40.87
42.15
42.05
40.33
36.86
31.79
25.72
19.46
13.74
8.96
4.96
1.31
-2.52
-6.82
-11.55
-16.45
-21.13
-25.29
-28.61
-30.78
-31.34
-29.83
-25.92
-19.58
-11.24
-1.71
8.05
17.20
25.16
31.71
36.74
40.17
41.77
41.32
38.70
34.21
28.57
22.79
17.84
14.30
12.14
10.76
9.34
7.28
4.47
1.33
-1.54
-3.78
-5.64
-7.97
-11.85
-18.04
-26.47
-36.08
-45.01
-51.16
-52.84
-49.23
-40.55
-27.87
-12.83
2.82
17.43
29.70
38.77
44.29
46.41
45.73
43.13
39.57
35.80
32.28
29.16
26.38
23.82
21.47
19.38
17.67
16.36
15.28
14.16
12.60
10.22
6.75
2.11
-3.65
-10.27
-17.37
-24.43
-30.87
-35.97
-39.06
-39.53
-37.00
-31.50
-23.50
-13.90
-3.87
5.50
13.38
19.37
23.45
25.82
26.67
26.11
24.26
21.35
17.78
14.13
10.96
8.63
7.18
6.37
5.78
5.05
4.01
2.76
1.53
0.53
-0.23
-1.05
-2.47
-5.01
-8.99
-14.30
-20.39
-26.39
-31.29
-34.12
-34.11
-30.78
-23.99
-14.12
-2.02
11.01
23.52
34.25
42.40
47.82
50.93
52.42
53.04
53.29
53.32
52.78
50.98
47.09
40.51
31.31
20.50
10.00
2.08
-1.34
0.49
6.79
15.43
23.58
28.50
28.37
22.60
11.90
-1.95
-16.52
-29.22
-37.90
-41.41
-39.80
-34.40
-27.20
-20.22
-14.68
-10.72
-7.58
-4.28
-0.29
4.13
8.05
10.49
10.99
9.98
8.54
7.83
8.41
9.88
10.98
10.22
6.57
-0.06
-8.94
-19.05
-29.80
-41.37
-54.50
-69.62
-85.94
-100.93
-110.81
-111.70
-101.07
-78.83
-47.40
-11.10
25.10
56.74
80.71
95.66
101.94
101.20
95.67
87.27
76.93
64.48
48.91
29.59
7.34
-14.89
-32.35
-39.52
-31.66
-6.47
34.80
86.87
141.19
187.85
218.32
228.18
218.80
196.99
172.65
155.31
150.99
160.54
180.21
203.68
224.61
238.42
242.83
237.48
223.19
201.31
173.66
142.67
111.38
83.13
60.26
42.78
27.59
9.27
-17.50
-54.76
-99.17
-142.28
-173.67
-185.47
-175.99
-150.41
-118.36
-89.66
-70.62
-62.79
-64.16
-71.67
-83.00
-97.05
-113.16
-129.99
-145.35
-156.80
-162.70
-162.70
-157.42
-147.82
-134.87
-119.79
-104.79
-93.50
-90.55
-100.01
-123.63
-159.59
-202.55
-245.12
-280.12
-302.68
-311.30
-307.56
-294.75
-276.14
-253.66
-227.48
-196.22
-157.77
-110.34
-53.58
10.60
77.52
140.12
190.20
220.40
226.35
208.18
170.52
121.09
68.25
18.41
-25.55
-64.07
-99.27
-132.72
-163.57
-188.26
-201.83
-199.96
-180.89
-146.18
-99.92
-47.15
7.43
59.79
106.16
142.86
166.88
177.48
177.22
171.51
166.28
164.78
165.87
164.53
154.84
133.44
101.42
63.73
26.91
-3.16
-22.60
-29.41
-23.34
-6.21
17.47
40.35
53.43
48.53
21.05
-28.09
-92.36
-161.25
-222.95
-267.28
-287.79
-282.94
-255.75
-212.30
-159.44
-102.85
-46.29
7.77
56.96
98.22
128.79
147.63
156.46
159.15
159.36
158.16
153.21
140.65
118.40
89.39
62.13
48.25
58.09
96.03
157.86
231.58
300.54
348.19
362.60
339.78
284.91
211.06
135.46
74.03
36.34
22.73
25.22
31.72
31.55
19.38
-3.84
-33.28
-63.83
-92.79
-120.51
-149.08
-180.41
-215.00
-252.09
-290.00
-326.33
-357.82
-380.59
-391.24
-388.15
-372.31
-347.08
-316.59
-284.07
-250.98
-217.44
-183.29
-148.86
-114.74
-81.04
-47.04
-11.77
24.77
60.73
92.87
118.00
134.77
144.49
150.65
157.48
168.39
185.02
206.95
231.99
256.88
277.93
292.03
297.40
294.22
284.48
271.27
257.59
245.42
235.36
226.89
219.01
210.92
202.31
193.32
184.22
175.08
165.66
155.37
143.54
129.71
113.83
96.37
78.28
60.78
45.13
32.32
22.78
16.09
10.93
5.32
-2.96
-15.68
-33.52
-55.81
-80.65
-105.48
-127.91
-146.35
-160.17
-169.48
-174.69
-176.29
-175.02
-172.12
-169.41
-168.77
-171.27
-176.43
-182.11
-185.40
-183.90
-176.77
-164.91
-150.23
-134.54
-118.82
-103.22
-87.71
-72.74
-59.36
-48.95
-42.49
-40.11
-40.96
-43.59
-46.40
-48.11
-48.04
-46.11
-42.68
-38.39
-33.87
-29.71
-26.48
-24.81
-25.33
-28.51
-34.27
-41.72
-49.03
-53.84
-53.96
-48.19
-36.67
-20.76
-2.34
16.89
35.85
53.95
70.69
85.24
96.48
103.32
105.30
102.95
97.56
90.71
83.45
75.94
67.44
56.86
43.38
26.98
8.60
-10.13
-27.43
-41.94
-53.05
-61.00
-66.62
-70.95
-74.76
-78.32
-81.34
-83.07
-82.70
-79.62
-73.74
-65.55
-55.97
-46.08
-36.85
-28.94
-22.71
-18.39
-16.08
-15.99
-18.29
-23.12
-30.55
-40.50
-52.59
-66.10
-79.92
-92.58
-102.50
-108.39
-109.55
-106.01
-98.36
-87.37
-73.74
-58.01
-40.65
-22.41
-4.45
11.83
25.20
35.13
42.02
47.07
51.71
56.98
63.01
69.03
73.72
75.71
73.96
67.99
57.87
44.19
28.10
11.26
-4.29
-16.66
-24.66
-28.22
-28.41
-27.17
-26.76
-29.20
-35.72
-46.33
-59.65
-72.85
-82.16
-83.90
-75.87
-58.34
-34.28
-8.28
15.09
32.95
44.75
51.81
56.00
58.61
59.89
59.50
57.11
52.97
47.79
42.25
36.45
29.75
21.20
10.33
-2.46
-15.89
-28.24
-38.02
-44.57
-48.14
-49.52
-49.30
-46.81
-40.15
-26.70
-4.30
27.56
66.86
109.50
150.19
183.91
207.69
220.76
224.38
221.32
215.07
208.59
203.97
201.34
198.63
193.03
180.93
158.78
124.45
78.48
24.64
-29.01
-71.67
-92.41
-82.54
-40.39
26.71
104.03
174.30
223.30
245.52
244.32
222.01
185.25
141.69
97.45
55.57
19.67
-12.88
-43.98
-74.34
-104.41
-133.75
-161.18
-185.05
-203.34
-214.29
-217.99
-215.86
-211.04
-206.98
-204.65
-202.48
-197.21
-185.46
-165.65
-139.47
-110.72
-84.31
-64.37
-52.17
-46.34
-43.95
-42.02
-38.84
-34.52
-29.84
-25.30
-20.19
-12.24
1.24
21.55
47.26
74.13
96.42
109.40
111.11
102.93
88.76
72.75
57.27
42.28
26.22
8.01
-11.29
-28.46
-39.53
-42.00
-36.58
-27.16
-19.26
-17.43
-23.21
-34.51
-46.57
-54.06
-53.35
-43.68
-27.16
-7.47
11.71
27.97
40.61
50.10
57.22
62.47
65.99
68.06
69.39
71.08
73.91
77.51
79.92
78.04
69.03
51.73
27.54
0.04
-26.27
-47.65
-62.41
-71.10
-75.79
-78.92
-82.20
-86.26
-90.79
-95.13
-98.80
-101.57
-103.14
-102.82
-99.48
-92.08
-80.31
-65.07
-48.33
-32.18
-17.85
-5.12
7.46
21.54
37.96
56.21
74.60
90.99
103.49
111.05
113.45
111.09
104.72
95.16
83.06
68.89
53.22
36.84
20.82
6.33
-5.79
-15.37
-23.00
-29.87
-37.46
-47.16
-59.77
-75.05
-91.42
-106.09
-115.90
-118.55
-113.62
-102.60
-87.99
-71.76
-54.42
-35.29
-13.79
9.16
30.78
47.46
56.60
57.93
53.65
47.19
41.55
38.14
36.62
35.61
33.71
30.32
25.89
21.59
18.75
18.20
19.95
23.16
26.65
29.36
30.85
31.31
31.44
31.98
33.43
35.99
39.53
43.79
48.43
53.04
57.17
60.36
62.40
63.34
63.66
64.06
65.15
67.07
69.25
70.39
68.89
63.42
53.48
39.62
23.23
6.00
-10.66
-25.87
-39.24
-50.48
-59.14
-64.60
-66.38
-64.63
-60.36
-55.31
-51.41
-49.97
-51.29
-54.52
-58.10
-60.39
-60.20
-57.04
-51.01
-42.52
-32.02
-19.91
-6.64
7.20
20.76
33.07
43.19
50.42
54.39
55.12
53.00
48.69
43.03
36.85
30.83
25.34
20.40
15.80
11.26
6.64
2.03
-2.30
-6.07
-9.17
-11.79
-14.40
-17.59
-21.91
-27.58
-34.37
-41.49
-47.73
-51.73
-52.41
-49.37
-43.08
-34.77
-25.89
-17.62
-10.47
-4.28
1.38
6.68
11.25
14.26
14.75
12.06
6.06
-3.00
-14.49
-27.51
-40.71
-52.24
-60.00
-62.23
-58.20
-48.73
-35.97
-22.83
-11.97
-5.06
-2.57
-4.00
-8.52
-15.46
-24.51
-35.42
-47.50
-59.12
-67.60
-69.75
-62.93
-46.16
-20.71
10.16
42.20
71.58
95.90
114.52
128.17
138.05
145.03
149.32
150.52
148.26
142.76
135.14
127.15
120.50
116.16
113.99
113.06
112.20
110.69
108.36
105.12
100.37
92.77
80.71
63.36
41.58
18.12
-3.13
-18.47
-25.69
-24.55
-16.52
-3.95
10.81
25.82
39.60
50.92
58.56
61.56
59.59
53.34
44.60
35.67
28.47
23.78
20.97
18.44
14.36
7.41
-2.95
-16.53
-32.53
-49.57
-65.79
-78.97
-87.31
-90.22
-88.85
-85.88
-84.39
-86.52
-92.47
-100.32
-106.71
-107.98
-101.31
-85.49
-61.47
-32.59
-4.25
17.35
27.16
23.46
8.91
-10.09
-26.00
-33.34
-30.92
-22.12
-12.88
-8.76
-12.44
-23.04
-37.04
-50.16
-59.18
-62.72
-61.04
-55.47
-47.75
-39.58
-32.39
-27.08
-23.99
-22.92
-23.41
-24.92
-27.01
-29.33
-31.52
-33.13
-33.66
-32.70
-29.92
-25.11
-18.19
-9.30
1.01
11.77
22.01
31.24
40.08
50.15
63.28
80.38
100.30
119.73
134.03
138.72
130.72
108.87
73.93
28.41
-23.38
-75.34
-120.53
-152.93
-169.72
-172.41
-166.10
-156.68
-147.66
-138.27
-123.95
-98.93
-59.60
-6.64
54.82
116.71
170.33
208.40
226.64
224.52
205.28
175.22
141.89
112.09
90.32
78.12
74.50
76.97
82.34
87.12
87.80
81.29
65.75
41.57
11.73
-18.72
-44.20
-60.52
-66.34
-63.35
-55.46
-47.20
-42.10
-41.81
-46.09
-53.52
-62.28
-70.66
-77.20
-80.51
-79.27
-72.41
-59.58
-41.44
-19.63
3.69
26.39
46.76
63.48
75.43
81.59
81.12
73.77
60.29
42.52
22.97
4.13
-12.31
-25.71
-36.34
-44.84
-51.60
-56.63
-59.64
-60.38
-59.00
-56.16
-52.97
-50.69
-50.46
-52.87
-57.73
-64.02
-70.06
-73.94
-74.17
-70.04
-61.85
-50.67
-37.92
-24.90
-12.50
-1.15
9.01
17.99
25.82
32.55
38.24
42.93
46.52
48.63
48.57
45.52
38.89
28.70
15.77
1.61
-12.09
-24.10
-34.11
-42.70
-50.90
-59.66
-69.36
-79.75
-90.11
-99.54
-107.21
-112.31
-114.11
-111.95
-105.49
-94.93
-81.19
-65.77
-50.31
-36.14
-23.90
-13.48
-4.36
4.03
11.91
19.05
24.91
28.86
30.53
29.94
27.47
23.83
19.75
15.81
12.06
7.93
2.25
-6.37
-19.02
-35.99
-56.59
-79.32
-102.12
-122.68
-138.54
-147.38
-147.34
-137.74
-119.47
-94.92
-67.13
-38.72
-11.11
15.40
40.84
64.50
84.49
98.16
103.21
98.80
86.13
68.08
48.38
30.77
18.54
14.14
18.86
32.21
51.54
72.21
88.60
95.84
91.58
76.96
56.41
36.07
21.64
16.22
19.31
27.28
34.98
38.13
35.16
27.99
21.19
20.00
27.99
45.45
69.20
93.81
113.70
124.89
126.02
118.23
104.10
86.32
66.75
46.11
24.24
1.07
-22.56
-44.23
-60.02
-65.13
-55.04
-26.94
18.89
78.30
143.64
205.28
254.04
283.70
292.25
281.91
257.60
225.22
190.33
157.61
130.92
112.78
103.74
101.47
100.62
93.87
74.69
40.73
-4.10
-50.35
-86.58
-104.28
-101.98
-86.12
-68.32
-60.60
-70.93
-101.15
-147.61
-203.47
-260.86
-312.11
-350.02
-368.48
-363.71
-335.86
-289.63
-233.09
-175.14
-122.82
-80.01
-47.56
-24.34
-8.37
2.50
10.54
17.88
25.96
35.02
43.82
50.25
52.25
48.84
40.55
29.15
16.77
5.00
-5.74
-16.01
-26.40
-36.73
-45.57
-50.72
-50.07
-42.23
-26.49
-2.15
31.62
75.05
126.29
180.20
228.66
262.88
276.93
270.47
249.12
221.67
196.05
175.81
159.43
142.24
119.72
89.83
53.25
11.76
-33.52
-82.42
-134.33
-186.06
-230.75
-259.25
-263.21
-238.63
-187.30
-116.02
-33.89
50.11
128.32
194.32
242.59
268.84
271.14
251.07
213.53
165.24
112.33
58.48
4.68
-49.47
-103.50
-154.42
-196.61
-223.49
-230.35
-216.71
-187.22
-150.34
-115.60
-90.26
-77.44
-76.42
-84.76
-100.67
-124.06
-155.52
-193.93
-234.54
-269.11
-288.40
-285.75
-259.81
-214.70
-157.67
-95.41
-31.50
33.78
101.20
169.62
234.28
287.48
321.36
331.05
316.48
282.12
235.07
182.82
131.57
85.76
48.23
20.46
2.60
-6.61
-9.67
-9.59
-8.83
-8.51
-8.14
-6.31
-1.65
6.27
16.70
28.10
38.87
47.79
53.98
56.42
53.73
44.40
27.63
4.11
-23.86
-53.12
-80.93
-105.81
-127.34
-145.23
-158.05
-163.12
-157.15
-137.91
-105.67
-63.62
-17.21
27.43
65.08
92.42
108.41
113.92
111.15
102.67
90.75
76.68
60.88
43.30
23.74
1.84
-23.27
-53.22
-89.83
-133.38
-181.14
-226.72
-261.37
-276.96
-269.06
-238.42
-190.00
-130.42
-65.36
1.01
65.18
122.61
167.39
193.82
199.02
184.92
158.16
127.74
101.45
83.25
72.33
64.20
53.21
34.66
6.02
-33.28
-82.40
-139.57
-201.61
-263.50
-318.35
-358.37
-376.94
-370.89
-341.60
-294.50
-237.20
-176.92
-118.53
-63.78
-12.01
38.25
87.62
134.88
177.32
211.67
235.38
247.20
246.79
233.93
207.65
167.04
113.12
50.82
-10.64
-59.97
-87.93
-91.60
-75.83
-51.02
-28.04
-12.91
-4.15
6.04
27.44
66.51
122.94
189.64
255.80
311.38
350.46
372.14
378.88
373.74
358.17
331.76
293.79
245.30
190.39
135.43
87.05
49.36
22.25
1.67
-18.62
-44.67
-80.49
-127.01
-181.77
-238.95
-290.18
-325.88
-337.97
-322.64
-282.39
-225.72
-164.55
-110.24
-70.19
-46.53
-37.28
-38.81
-47.98
-62.83
-81.83
-102.67
-121.65
-134.29
-136.76
-127.44
-107.80
-82.34
-57.27
-38.46
-29.59
-30.91
-39.36
-49.99
-58.05
-60.77
-58.29
-53.28
-49.70
-50.93
-58.32
-70.45
-83.58
-92.84
-94.10
-85.29
-67.13
-42.44
-14.86
12.22
36.53
57.33
75.35
92.30
109.96
129.21
149.44
168.81
185.11
197.11
205.10
210.47
214.15
215.33
211.20
198.20
173.98
138.77
95.29
47.32
-1.83
-50.21
-96.80
-140.70
-180.51
-214.35
-240.26
-256.45
-261.55
-254.57
-235.21
-204.46
-165.13
-121.69
-79.05
-40.82
-8.30
19.02
41.79
59.22
68.87
68.35
57.80
41.18
25.42
17.44
20.86
34.36
52.70
69.69
81.13
86.07
86.21
84.13
81.96
80.99
82.00
85.58
91.92
100.12
107.78
111.27
106.76
91.66
65.92
32.43
-3.50
-35.59
-58.37
-68.59
-66.02
-53.26
-34.69
-15.27
0.86
11.15
14.99
13.36
8.19
1.59
-4.74
-9.59
-12.21
-12.09
-9.02
-3.44
3.32
9.20
12.13
11.06
6.55
0.63
-4.25
-6.49
-6.14
-4.70
-4.14
-5.72
-9.36
-13.68
-16.90
-17.71
-16.00
-12.88
-10.19
-9.58
-11.73
-16.03
-20.98
-24.98
-27.18
-27.85
-28.11
-29.10
-31.19
-33.70
-35.13
-33.96
-29.44
-21.96
-12.93
-4.31
2.02
4.82
3.65
-1.09
-8.56
-17.82
-28.11
-38.84
-49.36
-58.59
-65.21
-68.09
-66.80
-61.80
-54.05
-44.44
-33.27
-20.51
-6.40
7.82
19.84
27.08
27.84
22.14
11.71
-0.85
-13.22
-24.09
-33.29
-41.30
-48.60
-55.23
-60.70
-64.46
-66.39
-67.30
-68.74
-72.29
-78.50
-86.22
-92.64
-94.23
-88.04
-72.83
-49.46
-20.45
10.90
41.42
68.71
91.39
109.21
122.89
133.73
142.99
151.22
157.89
161.61
160.87
154.81
143.74
129.11
113.03
97.60
84.34
73.75
65.20
57.06
47.27
34.13
17.12
-2.52
-21.85
-37.04
-44.45
-41.67
-28.18
-5.25
24.55
58.03
91.91
123.20
149.43
168.85
180.64
184.95
182.89
176.20
167.02
157.46
149.25
143.38
139.74
137.10
133.22
125.68
112.64
93.74
70.30
45.04
21.19
1.58
-12.08
-19.35
-20.99
-18.52
-13.87
-9.09
-6.29
-7.44
-14.21
-27.49
-47.03
-71.19
-97.09
-121.26
-140.51
-152.82
-157.71
-156.05
-149.38
-139.27
-126.76
-112.55
-97.09
-80.99
-64.99
-49.81
-36.03
-23.96
-13.85
-6.01
-1.04
0.34
-2.32
-8.79
-17.91
-27.66
-35.67
-40.02
-39.87
-35.88
-30.05
-25.17
-24.10
-28.96
-40.62
-58.50
-80.56
-103.70
-124.39
-139.37
-146.40
-144.69
-134.92
-118.69
-97.77
-73.52
-46.64
-17.60
12.61
41.88
66.90
83.95
90.04
84.05
67.03
41.84
11.84
-20.19
-52.65
-84.67
-115.17
-141.96
-161.75
-171.05
-167.72
-152.14
-127.29
-97.58
-66.96
-37.37
-8.21
22.76
57.84
97.99
142.35
188.77
234.62
277.27
314.00
341.81
357.55
358.55
343.63
313.75
271.84
222.21
169.46
117.83
70.69
30.37
-1.96
-26.19
-42.85
-52.72
-56.34
-54.27
-47.68
-38.98
-31.51
-28.21
-29.96
-34.69
-38.30
-37.16
-30.62
-21.90
-16.50
-19.12
-31.03
-49.58
-69.93
-87.90
-101.59
-111.24
-117.57
-120.19
-117.50
-108.28
-93.51
-77.02
-64.06
-58.62
-61.11
-68.13
-74.46
-76.00
-71.85
-64.17
-56.42
-50.96
-47.94
-45.71
-42.41
-37.32
-31.00
-24.13
-16.25
-5.34
11.13
34.40
63.03
92.96
119.22
138.10
148.70
152.92
154.11
155.29
157.96
162.15
167.12
172.06
176.35
179.07
178.68
173.12
160.72
141.14
115.95
88.16
60.92
36.15
14.02
-6.72
-27.48
-48.77
-69.90
-89.41
-105.98
-119.15
-129.32
-137.19
-143.15
-146.96
-148.11
-146.53
-143.12
-139.63
-138.00
-139.29
-143.10
-147.59
-150.28
-149.08
-142.91
-131.80
-116.47
-97.80
-76.75
-54.46
-32.64
-13.51
0.71
8.54
9.85
5.79
-1.68
-10.73
-20.22
-29.76
-39.34
-48.74
-57.10
-62.84
-64.07
-59.30
-48.25
-32.49
-15.53
-1.95
4.09
0.49
-11.87
-29.42
-47.31
-61.25
-68.90
-70.10
-66.15
-58.69
-48.97
-37.69
-25.23
-12.04
1.40
14.72
27.64
39.92
51.36
61.93
71.98
82.31
93.73
106.32
118.99
129.67
136.28
137.89
135.15
129.92
123.98
117.97
110.96
101.15
86.92
67.82
44.62
19.02
-6.87
-30.70
-49.81
-61.33
-62.75
-52.77
-31.97
-2.86
30.83
65.18
96.99
124.17
145.66
161.18
170.83
175.00
174.32
169.70
162.29
153.35
144.03
134.83
125.35
114.17
99.14
78.18
50.19
15.59
-23.69
-64.82
-105.00
-142.08
-174.78
-202.39
-224.13
-238.61
-243.70
-237.10
-217.61
-186.35
-147.25
-106.28
-69.66
-41.79
-24.16
-15.62
-13.73
-16.33
-22.26
-31.21
-42.85
-56.11
-69.07
-79.52
-85.60
-86.39
-82.21
-74.73
-66.83
-62.02
-63.42
-72.53
-88.58
-108.70
-128.85
-145.11
-154.60
-155.84
-148.58
-133.52
-112.18
-86.90
-60.54
-35.90
-14.89
2.22
16.74
30.75
45.72
61.39
75.73
85.98
90.34
88.97
84.04
78.36
73.91
70.77
67.62
63.05
56.94
50.88
47.25
47.81
52.47
59.42
66.22
71.12
73.93
75.73
77.70
80.08
81.72
80.71
75.49
66.03
54.15
42.88
35.17
32.58
34.69
39.44
44.29
47.46
48.65
48.86
49.58
51.69
54.86
57.61
57.96
54.28
46.00
33.61
18.45
2.08
-14.18
-29.60
-43.97
-57.44
-70.07
-81.37
-90.00
-93.92
-91.08
-80.39
-62.46
-39.71
-15.60
6.57
24.83
38.85
49.51
57.94
64.57
68.83
69.38
64.83
54.51
38.95
20.09
1.16
-14.13
-22.62
-22.86
-15.89
-5.00
5.38
11.29
10.68
3.98
-6.51
-17.81
-27.46
-34.19
-37.79
-38.64
-37.17
-33.82
-29.21
-24.28
-20.13
-17.62
-16.87
-17.24
-17.55
-16.62
-13.87
-9.67
-5.45
-3.37
-5.62
-13.48
-26.50
-42.32
-57.29
-67.81
-71.88
-69.87
-64.25
-58.31
-54.51
-53.51
-54.26
-55.02
-54.57
-52.96
-51.29
-50.90
-52.44
-55.43
-58.51
-59.94
-58.40
-53.40
-45.27
-34.95
-23.56
-12.06
-1.14
8.83
17.56
24.77
30.24
33.97
36.39
38.37
41.01
45.29
51.71
60.06
69.35
77.83
83.21
83.19
76.22
62.25
43.14
22.20
3.12
-11.20
-19.43
-21.71
-19.04
-12.42
-2.50
10.19
24.77
39.76
53.43
64.53
72.89
79.44
85.56
92.15
99.10
105.48
110.00
111.82
110.81
107.37
102.07
95.27
87.08
77.58
67.13
56.42
46.30
37.55
30.57
25.33
21.56
18.76
16.33
13.62
10.02
5.16
-0.86
-7.48
-13.89
-19.31
-23.22
-25.46
-26.05
-25.23
-23.22
-20.35
-17.10
-14.00
-11.61
-10.24
-9.84
-10.04
-10.28
-10.07
-9.18
-7.56
-5.21
-2.05
2.11
7.32
13.27
19.15
23.70
25.60
23.97
18.71
10.62
1.10
-8.27
-16.23
-22.09
-25.66
-27.02
-26.29
-23.56
-19.13
-13.60
-8.02
-3.55
-1.15
-1.14
-3.12
-6.22
-9.49
-12.26
-14.29
-15.71
-16.81
-17.96
-19.66
-22.47
-26.92
-33.27
-41.30
-50.24
-58.96
-66.38
-71.62
-74.20
-73.80
-70.07
-62.55
-50.84
-34.95
-15.56
5.80
27.08
46.02
60.64
69.43
71.65
67.31
57.34
43.43
27.75
12.36
-1.28
-12.59
-21.72
-29.14
-35.30
-40.44
-44.68
-48.24
-51.43
-54.53
-57.53
-59.99
-61.39
-61.34
-59.95
-57.68
-55.01
-52.03
-48.35
-43.36
-36.53
-27.73
-17.20
-5.48
6.72
18.65
29.49
38.58
45.55
50.44
53.65
55.72
57.02
57.54
57.09
55.46
52.68
49.04
44.86
40.30
35.24
29.42
22.73
15.35
7.67
0.17
-6.84
-13.21
-18.82
-23.32
-26.02
-26.06
-22.76
-16.04
-6.63
3.98
14.03
22.10
27.39
29.77
29.57
27.08
22.33
15.12
5.33
-6.79
-20.34
-33.95
-46.17
-55.98
-63.03
-67.70
-70.75
-72.97
-74.96
-76.98
-79.12
-81.29
-83.22
-84.41
-84.22
-81.95
-77.14
-69.75
-60.14
-48.96
-36.94
-24.92
-13.82
-4.55
2.17
6.23
8.26
9.53
11.33
14.28
17.94
20.99
21.95
19.99
15.37
9.25
3.05
-2.22
-6.33
-9.66
-12.78
-15.94
-18.95
-21.23
-22.09
-21.00
-17.74
-12.35
-5.07
3.63
13.02
22.14
30.03
35.99
39.95
42.40
44.14
45.61
46.54
46.03
43.05
37.27
29.43
21.29
14.94
12.02
13.04
17.27
22.87
27.37
28.24
23.58
12.81
-2.92
-20.87
-37.49
-49.69
-55.83
-56.11
-52.02
-45.38
-37.50
-28.85
-19.27
-8.52
3.40
16.11
28.87
40.70
50.38
56.63
58.44
55.60
49.14
41.06
33.62
28.24
25.05
22.97
20.67
17.44
13.62
10.24
8.29
8.13
9.34
11.05
12.42
12.99
12.80
12.24
11.76
11.55
11.17
9.37
4.36
-5.36
-19.91
-37.31
-53.97
-66.24
-72.26
-72.93
-71.48
-71.43
-74.55
-79.77
-83.86
-83.37
-76.61
-64.68
-50.74
-38.41
-29.87
-25.00
-21.71
-17.23
-9.45
2.51
18.71
39.48
65.95
99.22
138.28
178.36
211.42
229.34
228.63
213.50
195.08
186.33
195.20
220.24
251.05
273.56
276.98
258.23
221.63
174.76
123.52
70.17
14.59
-42.29
-96.42
-141.31
-171.21
-184.79
-186.41
-184.45
-187.23
-199.00
-218.12
-238.18
-251.41
-252.25
-239.55
-216.35
-187.92
-159.23
-133.34
-111.02
-91.44
-73.21
-55.30
-37.36
-19.57
-2.59
12.61
24.87
33.11
36.84
36.58
33.90
31.07
30.20
32.47
37.67
44.20
49.67
51.67
48.58
40.04
27.05
11.71
-3.50
-16.24
-24.94
-28.89
-28.18
-23.47
-15.76
-6.23
3.77
12.93
20.19
24.99
27.47
28.42
28.92
29.91
31.91
34.87
38.28
41.23
42.41
40.07
32.18
16.99
-6.14
-36.00
-69.35
-101.50
-127.67
-144.26
-149.70
-144.44
-130.36
-110.05
-86.32
-61.96
-39.62
-21.37
-8.18
0.57
6.91
13.62
23.01
36.00
51.67
67.73
81.46
90.65
94.23
92.28
85.72
75.97
64.63
53.28
43.39
36.10
31.90
30.41
30.49
30.71
30.02
28.13
25.48
22.68
19.98
17.02
13.24
8.55
3.80
0.75
1.24
6.24
15.25
26.37
37.16
45.68
51.10
53.67
54.15
53.19
51.01
47.58
42.98
37.61
32.06
26.65
21.12
14.56
5.89
-5.46
-19.05
-33.31
-46.12
-55.68
-61.34
-63.90
-65.28
-67.57
-71.98
-78.33
-85.07
-90.02
-91.32
-88.00
-80.08
-68.23
-53.29
-36.10
-17.66
0.61
16.82
29.02
35.90
37.33
34.37
28.82
22.47
16.54
11.50
7.39
4.08
1.40
-0.86
-2.93
-5.01
-7.06
-8.77
-9.77
-9.88
-9.33
-8.62
-8.08
-7.51
-6.18
-3.19
2.01
9.35
18.23
28.15
38.96
51.01
64.59
79.33
93.71
105.10
110.36
106.87
93.49
71.11
42.58
11.96
-16.54
-39.64
-55.59
-64.31
-67.15
-66.37
-64.64
-64.45
-67.54
-74.37
-83.83
-93.35
-99.79
-100.49
-94.34
-82.28
-66.79
-50.84
-36.62
-24.81
-14.61
-4.58
6.36
18.24
30.00
40.19
47.70
52.33
54.74
55.93
56.57
56.67
55.66
52.85
47.91
41.14
33.38
25.61
18.59
12.53
7.05
1.34
-5.55
-14.23
-24.72
-36.09
-46.67
-54.32
-57.13
-54.01
-45.19
-32.20
-17.32
-2.86
9.70
19.97
28.45
35.90
42.84
49.27
54.96
59.87
64.26
68.53
72.66
75.89
76.73
73.60
65.63
53.28
38.31
23.17
10.17
0.84
-4.32
-5.77
-4.71
-2.84
-1.91
-3.27
-7.29
-13.01
-18.41
-21.17
-19.64
-13.57
-4.19
6.42
16.18
23.76
28.82
31.74
33.25
34.02
34.65
35.75
37.90
41.48
46.38
51.79
56.24
58.08
55.95
49.33
38.72
25.39
10.89
-3.52
-17.20
-30.16
-42.76
-55.18
-67.18
-77.95
-86.47
-92.02
-94.44
-94.14
-91.61
-86.96
-79.60
-68.61
-53.51
-34.99
-15.12
3.30
17.87
27.66
33.45
37.10
40.34
43.90
47.30
49.53
49.94
48.74
46.76
44.74
42.70
39.93
35.49
28.95
20.77
12.12
4.36
-1.44
-4.77
-5.52
-3.93
-0.52
3.80
7.91
10.74
11.79
11.58
11.47
13.14
17.60
24.51
32.07
37.67
38.85
34.38
24.65
11.51
-2.64
-15.80
-27.07
-36.63
-45.20
-53.30
-60.84
-67.16
-71.58
-73.96
-74.91
-75.46
-76.57
-78.60
-81.27
-83.78
-85.07
-83.95
-78.95
-68.52
-51.64
-28.67
-1.86
25.06
48.24
65.34
76.55
84.29
91.64
100.52
110.70
120.16
126.52
128.36
125.73
119.66
111.18
100.71
88.14
73.51
57.42
41.12
26.07
13.49
3.93
-2.72
-7.20
-10.64
-14.21
-18.73
-24.21
-29.64
-33.41
-34.04
-31.12
-25.68
-19.82
-15.67
-14.51
-16.40
-20.55
-26.17
-32.91
-40.68
-48.89
-55.88
-59.11
-56.22
-46.40
-31.24
-14.32
0.14
9.13
12.03
10.60
7.89
6.66
8.26
12.51
18.28
24.48
30.68
37.26
45.06
54.88
67.15
81.76
97.91
114.01
127.47
134.92
132.84
118.70
92.13
55.50
13.57
-27.94
-64.05
-91.91
-111.20
-123.58
-131.36
-136.18
-138.28
-136.72
-130.28
-118.66
-103.18
-86.64
-72.21
-62.14
-56.84
-54.90
-54.09
-52.55
-49.56
-45.36
-40.42
-34.58
-26.81
-15.63
0.09
20.42
44.20
69.18
92.53
111.30
122.97
125.85
119.45
104.69
83.74
59.65
35.78
15.04
-0.54
-10.15
-14.22
-14.13
-11.76
-9.00
-7.38
-7.85
-10.80
-16.10
-23.19
-31.10
-38.51
-44.00
-46.35
-44.90
-39.75
-31.74
-22.15
-12.20
-2.76
5.82
13.55
20.50
26.46
30.89
33.02
32.32
28.79
23.11
16.43
9.97
4.68
0.96
-1.16
-1.96
-1.83
-1.30
-1.02
-1.67
-3.87
-7.91
-13.66
-20.55
-27.76
-34.43
-39.77
-43.10
-43.91
-41.86
-36.90
-29.39
-20.11
-10.09
-0.42
7.97
14.43
18.62
20.49
20.26
18.44
15.75
12.96
10.73
9.34
8.68
8.20
7.19
5.00
1.23
-4.14
-10.78
-18.12
-25.53
-32.40
-38.31
-43.08
-46.81
-49.89
-52.77
-55.82
-59.04
-61.90
-63.51
-62.88
-59.45
-53.29
-45.20
-36.35
-27.95
-20.84
-15.40
-11.65
-9.40
-8.43
-8.42
-9.03
-9.80
-10.29
-10.22
-9.60
-8.78
-8.35
-9.00
-11.31
-15.55
-21.61
-28.91
-36.47
-43.04
-47.41
-48.62
-46.29
-40.59
-32.18
-21.91
-10.54
1.33
13.20
24.58
34.75
42.90
48.24
50.28
49.09
45.21
39.59
33.25
27.06
21.58
17.03
13.41
10.59
8.40
6.57
4.68
2.23
-1.20
-5.66
-10.61
-14.98
-17.49
-17.05
-13.13
-5.74
4.63
17.26
31.24
45.50
58.66
69.21
75.77
77.58
74.85
68.76
61.13
53.80
47.99
43.88
40.69
37.11
32.00
25.01
16.77
8.66
2.17
-1.78
-3.29
-3.36
-3.50
-5.15
-9.30
-16.32
-26.08
-37.96
-50.81
-62.86
-71.84
-75.44
-72.01
-61.23
-44.37
-23.98
-3.07
15.69
30.64
41.14
47.36
49.84
49.26
46.35
41.89
36.64
31.17
25.86
20.82
16.07
11.72
7.98
5.16
3.56
3.30
4.15
5.42
6.13
5.33
2.58
-1.70
-6.11
-8.83
-8.26
-3.75
4.17
14.09
24.38
33.84
41.92
48.51
53.58
56.86
57.88
56.18
51.62
44.48
35.41
25.11
14.19
3.03
-8.14
-19.16
-29.79
-39.72
-48.66
-56.42
-63.01
-68.58
-73.38
-77.57
-81.03
-83.27
-83.45
-80.60
-73.89
-62.96
-48.11
-30.23
-10.73
8.75
26.52
41.11
51.42
56.87
57.52
53.96
47.18
38.30
28.41
18.32
8.63
-0.25
-8.03
-14.51
-19.54
-23.01
-24.88
-25.23
-24.33
-22.79
-21.51
-21.58
-23.96
-29.03
-36.41
-44.82
-52.46
-57.55
-58.82
-55.88
-49.23
-39.93
-29.29
-18.59
-8.99
-1.60
2.58
2.76
-1.44
-9.71
-20.98
-33.51
-45.22
-54.08
-58.63
-58.22
-53.24
-44.88
-34.75
-24.43
-14.94
-6.60
0.83
7.91
15.20
23.12
31.94
41.70
52.25
63.20
73.84
83.32
90.83
95.87
98.35
98.59
97.12
94.36
90.54
85.65
79.59
72.36
64.22
55.70
47.50
40.31
34.50
30.03
26.49
23.23
19.64
15.37
10.43
5.34
0.95
-1.78
-2.08
0.27
4.85
10.70
16.65
21.65
25.11
26.94
27.50
27.45
27.55
28.46
30.55
33.73
37.42
40.68
42.45
41.94
38.77
32.97
24.79
14.68
3.17
-9.14
-21.57
-33.53
-44.49
-54.06
-61.90
-67.53
-70.50
-70.48
-67.67
-62.95
-57.73
-53.56
-51.51
-51.79
-53.49
-54.68
-52.78
-45.31
-30.82
-9.82
14.90
38.65
56.12
62.97
57.18
39.48
12.96
-17.90
-48.45
-74.69
-93.92
-105.10
-108.88
-107.30
-102.98
-98.19
-94.12
-90.85
-87.89
-84.78
-81.41
-77.72
-73.26
-66.98
-57.64
-44.58
-28.32
-10.49
6.84
22.13
34.91
45.66
55.19
64.06
72.22
79.19
84.41
87.59
88.98
89.23
89.29
89.98
91.79
94.53
97.50
99.60
99.83
97.56
92.51
84.46
72.99
57.45
37.59
14.23
-10.29
-32.47
-48.81
-57.01
-56.75
-49.34
-36.78
-20.61
-1.52
20.30
44.12
68.11
89.45
105.15
113.06
112.45
103.77
87.97
65.90
38.31
6.46
-27.32
-59.50
-86.23
-104.64
-114.07
-116.33
-114.74
-112.55
-111.50
-111.34
-110.41
-107.03
-100.62
-92.01
-82.85
-74.60
-67.57
-60.74
-52.11
-39.53
-21.59
1.73
28.72
56.16
80.14
97.11
105.00
103.87
95.70
83.52
70.26
57.83
46.81
36.85
27.19
17.19
6.48
-5.09
-17.47
-30.42
-43.35
-55.35
-65.37
-72.46
-75.97
-75.55
-71.11
-62.80
-51.09
-36.97
-22.03
-8.20
2.78
10.00
13.86
16.03
18.92
24.79
34.68
47.90
61.94
73.28
78.51
75.65
64.82
48.25
29.35
11.60
-2.45
-11.45
-15.05
-13.37
-6.73
4.25
18.38
33.65
47.53
57.62
62.41
61.81
56.95
49.70
41.87
34.65
28.42
22.96
17.81
12.60
7.30
2.18
-2.40
-6.25
-9.60
-13.05
-17.36
-23.01
-29.94
-37.52
-44.78
-50.90
-55.46
-58.52
-60.40
-61.52
-62.13
-62.40
-62.47
-62.43
-62.25
-61.58
-59.77
-56.06
-49.94
-41.51
-31.49
-21.05
-11.47
-3.74
1.66
4.71
5.79
5.34
3.83
1.56
-1.24
-4.43
-7.81
-11.21
-14.41
-17.21
-19.43
-20.97
-21.83
-22.14
-22.28
-22.77
-24.10
-26.56
-29.86
-33.16
-35.19
-34.70
-30.92
-23.84
-14.24
-3.45
7.03
15.92
22.36
26.02
27.01
25.78
23.03
19.51
15.94
12.83
10.38
8.47
6.72
4.63
1.82
-1.91
-6.50
-11.72
-17.34
-23.17
-29.08
-34.83
-39.92
-43.61
-44.97
-43.22
-38.01
-29.60
-18.84
-7.00
4.56
14.66
22.52
27.81
30.57
31.04
29.55
26.44
22.04
16.70
10.86
4.97
-0.60
-5.62
-9.99
-13.76
-17.05
-20.06
-23.11
-26.56
-30.77
-35.85
-41.44
-46.61
-50.07
-50.45
-46.82
-38.98
-27.53
-13.71
1.01
15.22
27.83
38.14
45.79
50.75
53.24
53.69
52.63
50.64
48.20
45.66
43.19
40.79
38.31
35.52
32.21
28.22
23.53
18.18
12.22
5.61
-1.72
-9.77
-18.19
-26.30
-33.15
-37.87
-39.94
-39.40
-36.72
-32.71
-28.34
-24.70
-23.01
-24.43
-29.85
-39.50
-52.72
-68.10
-83.77
-97.91
-109.10
-116.44
-119.51
-118.34
-113.39
-105.67
-96.63
-87.98
-81.24
-77.30
-76.18
-77.07
-78.59
-79.18
-77.44
-72.42
-63.70
-51.49
-36.57
-20.12
-3.40
12.55
27.12
40.13
51.59
61.49
69.61
75.67
79.52
81.36
81.79
81.53
81.14
80.76
80.04
78.36
75.13
70.04
63.10
54.47
44.24
32.29
18.39
2.58
-14.45
-31.07
-45.02
-53.87
-55.87
-50.52
-38.68
-22.37
-4.18
13.18
27.26
35.99
37.92
32.51
20.39
3.50
-15.28
-32.84
-46.70
-55.60
-59.67
-60.09
-58.46
-56.21
-54.28
-53.11
-52.74
-53.10
-54.17
-55.91
-58.25
-60.82
-62.85
-63.20
-60.59
-53.94
-42.77
-27.20
-7.95
13.92
37.26
60.83
83.31
103.23
119.07
129.48
133.64
131.61
124.29
113.33
100.75
88.42
77.75
69.49
63.76
60.15
58.00
56.58
55.32
53.80
51.73
48.89
45.09
40.17
34.18
27.49
20.91
15.58
12.70
13.28
17.72
25.69
36.16
47.59
58.25
66.48
70.97
70.92
66.12
57.12
45.18
32.17
20.18
11.01
5.73
4.33
5.86
8.86
11.96
14.36
15.92
16.89
17.29
16.61
13.83
7.81
-2.01
-15.08
-29.57
-42.75
-51.76
-54.41
-49.81
-38.55
-22.39
-3.72
15.15
32.30
46.57
57.50
65.30
70.68
74.52
77.62
80.25
82.11
82.40
80.35
75.71
69.29
62.88
58.83
59.18
64.76
74.68
86.37
96.32
101.12
98.47
87.80
70.21
48.06
24.29
1.85
-16.67
-29.28
-34.74
-32.74
-23.96
-10.00
6.95
24.51
40.59
53.65
62.97
68.61
71.29
72.09
72.07
71.89
71.57
70.46
67.63
62.25
54.06
43.58
32.05
21.02
11.88
5.37
1.51
-0.04
0.43
2.98
7.68
14.09
20.62
24.53
22.72
12.86
-5.50
-30.85
-60.60
-92.63
-126.14
-161.11
-196.50
-228.68
-251.74
-259.85
-250.60
-226.95
-196.24
-166.73
-143.24
-124.84
-105.64
-78.53
-39.28
11.17
67.58
123.62
175.11
221.43
264.42
305.77
344.59
376.82
396.45
398.30
380.68
346.23
300.84
251.10
201.83
154.85
109.34
63.69
17.11
-28.77
-71.23
-107.96
-138.62
-165.51
-192.85
-225.11
-264.83
-311.01
-357.11
-393.93
-412.51
-407.41
-378.65
-331.40
-273.83
-214.28
-159.09
-109.51
-64.94
-24.41
12.53
46.35
79.07
114.47
156.77
207.90
268.26
333.04
393.43
439.92
466.06
471.14
460.02
440.56
403.22
343.35
261.17
164.10
64.19
-27.53
-104.73
-166.10
-213.72
-251.31
-279.63
-299.24
-311.16
-317.13
-321.05
-327.04
-338.82
-359.11
-389.05
-424.38
-457.96
-481.46
-488.21
-475.62
-445.85
-405.00
-358.97
-315.32
-278.00
-247.61
-222.29
-199.77
-178.87
-159.67
-142.79
-128.51
-116.59
-105.17
-92.44
-77.53
-60.90
-44.00
-28.35
-14.84
-3.47
6.27
15.70
26.06
37.98
51.35
65.46
79.50
92.95
105.69
117.79
129.62
141.56
153.93
167.10
181.69
198.52
218.12
239.97
261.93
280.44
291.50
291.94
280.67
259.13
230.77
199.88
170.34
144.76
124.30
108.83
97.25
87.90
78.87
68.50
55.78
40.62
23.73
6.20
-11.07
-27.62
-43.51
-58.92
-73.69
-86.88
-96.76
-101.10
-97.97
-86.63
-68.08
-45.12
-21.71
-1.64
12.59
20.45
23.14
22.63
20.58
17.68
13.80
8.72
2.74
-3.01
-7.03
-8.08
-5.85
-0.96
5.35
11.75
16.98
19.84
19.02
13.44
2.94
-11.03
-25.22
-35.27
-37.10
-28.25
-8.80
18.75
50.30
81.33
108.11
128.43
141.88
149.57
153.52
155.84
158.06
160.66
163.19
164.61
163.81
159.90
152.22
140.41
124.50
105.23
84.15
63.46
45.32
31.02
20.45
12.12
3.93
-5.73
-17.15
-29.00
-38.82
-44.09
-43.25
-36.33
-24.83
-11.11
2.46
14.23
23.43
30.11
34.64
37.42
38.61
38.24
36.39
33.40
29.89
26.77
24.97
25.26
27.87
32.23
36.76
39.01
36.08
25.38
5.44
-23.64
-60.00
-100.70
-142.52
-183.03
-220.96
-255.93
-287.58
-314.63
-334.56
-344.36
-341.79
-326.80
-301.95
-271.58
-240.19
-210.58
-183.04
-155.53
-124.97
-88.46
-44.19
7.86
65.50
123.92
175.75
212.01
224.42
208.53
166.33
106.74
43.26
-10.41
-45.08
-58.62
-55.37
-42.65
-26.68
-10.00
8.47
30.99
58.30
88.14
116.10
137.83
151.32
157.81
160.76
163.87
169.19
176.42
183.38
187.42
186.88
182.06
175.09
168.97
166.17
167.28
170.63
172.90
170.75
162.46
148.74
132.15
115.54
100.46
86.40
71.50
54.05
33.89
12.94
-5.59
-18.48
-23.69
-20.74
-10.44
5.65
25.58
47.06
67.49
84.36
95.83
101.50
102.39
100.49
97.57
94.12
89.06
80.21
65.03
41.46
8.52
-33.07
-80.26
-126.95
-164.27
-182.36
-173.61
-136.25
-76.25
-6.21
58.77
106.40
131.14
134.89
124.47
107.53
89.21
71.04
52.19
31.66
9.83
-11.47
-30.23
-45.72
-59.33
-73.85
-91.85
-114.00
-138.24
-160.21
-175.09
-179.65
-173.72
-160.24
-143.87
-129.04
-118.33
-111.91
-108.30
-105.67
-102.99
-100.45
-99.04
-99.78
-102.92
-107.66
-112.38
-115.17
-114.40
-109.13
-99.19
-85.15
-68.03
-49.09
-29.64
-10.84
6.29
20.91
32.35
40.07
43.85
43.83
40.54
34.87
27.84
20.37
13.14
6.54
0.72
-4.25
-8.38
-11.70
-14.34
-16.50
-18.44
-20.39
-22.58
-25.22
-28.61
-33.08
-38.79
-45.49
-52.30
-57.70
-60.06
-58.09
-51.45
-40.91
-28.14
-15.08
-3.38
5.98
12.67
16.84
18.77
18.81
17.40
15.13
12.81
11.21
10.85
11.79
13.62
15.66
17.35
18.52
19.49
20.91
23.25
26.40
29.50
30.99
29.25
23.13
12.64
-0.97
-15.49
-28.47
-37.99
-43.26
-44.68
-43.52
-41.19
-38.78
-36.70
-35.06
-34.15
-34.87
-38.64
-46.83
-59.92
-76.91
-95.37
-112.31
-125.27
-133.18
-136.34
-135.84
-133.11
-130.00
-129.43
-135.35
-151.68
-180.07
-217.84
-257.59
-289.12
-303.17
-294.93
-265.53
-220.78
-167.98
-112.79
-57.94
-4.13
47.89
95.92
136.40
166.13
184.18
192.75
196.04
197.67
198.29
194.91
182.74
158.85
125.29
89.97
64.38
59.22
80.11
125.35
186.87
253.48
314.76
364.08
399.43
422.33
435.90
442.87
444.46
440.41
429.74
411.80
387.04
356.98
323.61
288.59
252.88
216.88
181.02
146.23
113.88
85.20
60.76
39.93
21.03
1.98
-19.02
-42.91
-69.62
-98.34
-128.08
-158.24
-188.95
-221.21
-256.51
-296.10
-340.00
-386.27
-431.04
-469.37
-496.80
-510.84
-511.64
-501.53
-483.66
-460.61
-433.60
-402.78
-368.11
-330.32
-291.18
-253.06
-218.08
-187.35
-160.84
-137.79
-117.35
-99.09
-83.16
-70.07
-60.24
-53.63
-49.63
-47.23
-45.32
-43.06
-40.02
-36.25
-32.04
-27.74
-23.73
-20.33
-18.04
-17.53
-19.64
-25.02
-33.65
-44.58
-55.81
-64.81
-69.18
-67.28
-58.67
-44.06
-24.90
-2.98
19.94
42.27
62.46
79.15
91.25
98.28
100.58
99.29
95.94
91.91
87.99
84.18
79.85
74.28
67.11
58.61
49.54
40.71
32.59
25.08
17.66
9.62
0.58
-9.31
-19.27
-28.13
-34.64
-37.85
-37.28
-33.05
-25.73
-16.23
-5.58
5.13
14.89
22.77
28.10
30.50
30.01
27.14
22.71
17.62
12.53
7.79
3.37
-0.85
-4.88
-8.41
-10.92
-11.69
-10.10
-5.83
1.03
9.84
19.42
28.34
35.22
39.26
40.55
40.13
39.63
40.70
44.50
51.32
60.79
72.23
85.02
98.76
113.10
127.32
140.08
149.43
153.38
150.63
141.28
126.93
110.22
93.98
80.18
69.53
61.52
55.12
49.51
44.49
40.30
37.23
35.00
32.68
29.04
23.22
15.35
6.59
-1.30
-6.74
-8.92
-7.91
-4.34
1.15
8.20
16.66
26.17
35.85
44.23
49.71
51.14
48.43
42.65
35.63
29.35
25.18
23.56
23.93
25.15
25.93
25.27
22.72
18.34
12.51
5.77
-1.37
-8.54
-15.53
-22.26
-28.79
-35.13
-41.08
-45.99
-48.73
-47.92
-42.56
-32.48
-18.78
-3.60
10.50
21.43
28.18
31.03
31.15
29.87
28.07
25.91
23.05
19.09
14.00
8.24
2.60
-2.15
-5.56
-7.60
-8.63
-9.16
-9.70
-10.67
-12.47
-15.42
-19.80
-25.75
-33.12
-41.36
-49.54
-56.37
-60.43
-60.46
-55.72
-46.33
-33.27
-18.07
-2.33
12.85
27.03
40.24
52.42
63.09
71.29
75.98
76.59
73.44
67.60
60.44
52.99
45.59
37.94
29.56
20.34
10.70
1.49
-6.44
-12.64
-17.38
-21.44
-25.75
-30.75
-36.08
-40.58
-42.72
-41.21
-35.58
-26.42
-15.13
-3.38
7.42
16.49
23.63
28.92
32.45
34.19
34.14
32.52
29.87
26.94
24.39
22.59
21.46
20.64
19.76
18.72
17.72
17.21
17.67
19.31
21.94
24.96
27.57
28.97
28.66
26.54
23.00
18.80
14.98
12.59
12.49
15.10
20.22
27.01
34.16
40.23
44.04
44.94
42.93
38.55
32.65
26.13
19.75
14.01
9.07
4.83
1.02
-2.68
-6.45
-10.35
-14.27
-18.03
-21.52
-24.65
-27.40
-29.77
-31.84
-33.76
-35.83
-38.46
-42.01
-46.47
-51.26
-55.20
-56.81
-54.73
-48.32
-37.93
-24.88
-11.01
1.81
12.22
19.56
23.85
25.56
25.30
23.63
21.01
17.86
14.51
11.26
8.27
5.54
2.92
0.21
-2.76
-6.11
-9.95
-14.48
-20.08
-27.07
-35.61
-45.41
-55.79
-65.85
-74.85
-82.38
-88.38
-92.86
-95.72
-96.70
-95.60
-92.56
-88.27
-83.85
-80.54
-79.33
-80.71
-84.60
-90.53
-97.83
-105.92
-114.36
-122.73
-130.28
-135.70
-137.00
-131.78
-117.94
-94.27
-60.71
-18.13
32.11
88.11
146.89
203.70
252.16
285.35
298.13
289.14
261.47
221.43
175.86
129.43
83.14
34.94
-17.72
-75.10
-133.42
-185.41
-222.97
-240.50
-237.40
-218.23
-190.56
-161.63
-135.25
-111.15
-86.48
-58.76
-28.09
2.54
29.19
49.68
65.28
80.39
100.04
126.98
160.04
194.43
224.14
244.90
255.85
259.42
259.37
258.53
257.47
254.76
248.45
237.65
223.32
207.87
193.95
183.30
176.19
171.72
168.46
165.12
160.84
155.15
147.87
139.01
128.90
118.30
108.36
100.33
95.24
93.55
95.07
99.02
104.06
108.47
110.25
107.40
98.51
83.37
63.30
40.85
18.89
-0.59
-17.34
-32.77
-49.18
-68.55
-91.70
-118.18
-147.06
-177.66
-209.87
-243.58
-277.80
-310.21
-337.69
-357.39
-367.87
-369.22
-362.23
-347.10
-322.61
-286.69
-237.97
-177.48
-109.27
-39.69
24.66
78.99
121.29
152.18
173.85
188.77
198.63
204.10
204.91
200.53
190.57
175.28
155.94
134.79
114.38
96.72
82.26
69.55
55.82
38.09
14.01
-17.80
-57.88
-105.93
-160.10
-216.15
-267.18
-304.67
-321.01
-312.31
-279.85
-229.28
-168.09
-102.81
-37.98
23.05
76.64
118.27
143.62
150.62
140.83
118.83
89.96
57.56
22.31
-16.10
-56.19
-92.42
-115.46
-115.22
-85.15
-25.73
54.46
141.05
218.22
273.26
299.76
298.22
274.19
235.30
188.67
139.41
90.81
44.95
3.53
-32.11
-61.70
-86.57
-109.86
-135.74
-168.19
-209.57
-259.46
-314.12
-366.63
-408.38
-431.42
-430.84
-406.37
-362.23
-305.18
-241.87
-176.76
-111.79
-47.54
15.09
73.97
126.45
171.09
208.92
243.40
278.60
316.57
355.52
389.78
411.33
413.01
391.51
349.24
294.25
238.00
191.76
163.07
153.64
159.50
173.21
186.94
195.17
195.75
189.47
178.43
164.43
148.19
129.52
108.08
83.93
57.72
30.23
1.85
-27.79
-59.64
-94.87
-134.31
-177.72
-223.44
-268.26
-307.75
-337.28
-353.32
-354.66
-343.01
-322.46
-298.02
-273.74
-251.53
-231.19
-211.61
-192.23
-174.00
-158.91
-148.70
-143.47
-141.30
-139.16
-134.53
-126.76
-117.26
-108.71
-103.40
-101.93
-102.76
-102.92
-99.35
-90.25
-75.78
-57.91
-39.62
-23.78
-12.32
-5.87
-3.88
-5.00
-7.68
-10.60
-12.99
-14.77
-16.39
-18.73
-22.70
-28.87
-37.13
-46.48
-55.22
-61.36
-63.30
-60.39
-53.21
-43.42
-33.22
-24.62
-18.83
-15.93
-14.97
-14.44
-12.74
-8.84
-2.44
5.95
15.31
24.42
32.29
38.24
42.01
43.51
42.81
40.08
35.70
30.37
25.11
20.97
18.65
18.22
19.00
19.88
19.90
18.71
16.65
14.49
12.84
11.67
10.31
7.86
3.89
-1.00
-5.23
-6.68
-3.57
4.73
17.45
32.67
47.97
61.16
70.81
76.28
77.54
74.91
68.87
60.12
49.54
38.30
27.61
18.59
11.90
7.72
5.67
5.04
4.99
4.75
3.76
1.66
-1.67
-6.27
-12.01
-18.55
-25.28
-31.21
-35.20
-36.17
-33.47
-27.12
-17.80
-6.73
4.80
15.59
24.82
31.93
36.60
38.59
37.71
33.94
27.70
19.89
11.85
5.04
0.51
-1.47
-1.52
-0.90
-1.01
-2.83
-6.65
-12.07
-18.30
-24.46
-29.80
-33.64
-35.36
-34.42
-30.52
-23.87
-15.25
-5.97
2.61
9.44
14.16
17.05
18.72
19.67
20.02
19.50
17.70
14.43
9.98
5.06
0.55
-2.90
-5.13
-6.45
-7.52
-8.98
-11.24
-14.43
-18.39
-22.80
-27.22
-31.01
-33.40
-33.56
-30.82
-24.98
-16.47
-6.28
4.26
13.91
21.78
27.51
31.25
33.42
34.56
35.01
34.85
33.94
32.02
28.98
25.00
20.59
16.47
13.26
11.26
10.29
9.72
8.70
6.51
2.81
-2.19
-7.79
-12.99
-16.71
-18.07
-16.53
-11.98
-4.79
4.32
14.33
24.10
32.58
38.93
42.77
44.14
43.43
41.25
38.21
34.77
31.22
27.68
24.20
20.85
17.77
15.16
13.14
11.64
10.37
8.88
6.69
3.44
-0.95
-6.21
-11.75
-16.70
-20.04
-20.89
-18.68
-13.36
-5.39
4.26
14.51
24.27
32.68
39.08
43.04
44.35
43.11
39.81
35.21
30.25
25.66
21.81
18.68
16.00
13.51
11.15
9.09
7.53
6.45
5.53
4.20
1.94
-1.50
-5.94
-10.91
-15.74
-19.83
-22.66
-23.84
-23.02
-19.91
-14.48
-7.05
1.57
10.32
18.09
24.08
27.91
29.65
29.60
28.21
25.97
23.35
20.83
18.79
17.40
16.61
16.11
15.48
14.34
12.54
10.11
7.28
4.29
1.35
-1.41
-3.92
-6.19
-8.36
-10.69
-13.51
-16.98
-20.92
-24.65
-27.17
-27.46
-24.91
-19.55
-12.09
-3.58
4.96
12.83
19.71
25.46
29.95
32.95
34.23
33.74
31.74
28.78
25.56
22.67
20.45
18.88
17.65
16.33
14.58
12.24
9.46
6.55
3.86
1.63
-0.19
-1.85
-3.75
-6.22
-9.40
-13.18
-17.26
-21.25
-24.77
-27.36
-28.55
-27.85
-24.91
-19.73
-12.77
-4.91
2.78
9.44
14.63
18.37
20.95
22.64
23.49
23.35
22.08
19.75
16.73
13.64
11.10
9.48
8.80
8.71
8.73
8.43
7.64
6.42
5.03
3.71
2.57
1.53
0.37
-1.13
-3.11
-5.54
-8.30
-11.21
-14.12
-16.83
-19.11
-20.56
-20.69
-19.03
-15.36
-9.87
-3.20
3.74
10.04
15.09
18.68
20.97
22.27
22.82
22.69
21.79
20.03
17.50
14.48
11.43
8.84
6.99
5.92
5.36
4.92
4.24
3.16
1.72
0.05
-1.71
-3.59
-5.68
-8.01
-10.45
-12.70
-14.43
-15.47
-16.00
-16.51
-17.63
-19.79
-23.02
-26.79
-30.19
-32.14
-31.77
-28.73
-23.23
-16.02
-8.07
-0.30
6.67
12.55
17.26
20.74
22.83
23.32
22.19
19.77
16.75
14.03
12.30
11.78
12.13
12.66
12.77
12.20
11.15
10.02
9.12
8.45
7.69
6.42
4.41
1.80
-0.99
-3.47
-5.34
-6.64
-7.73
-9.10
-11.11
-13.84
-17.08
-20.44
-23.44
-25.62
-26.57
-25.93
-23.47
-19.17
-13.30
-6.41
0.82
7.65
13.56
18.21
21.53
23.53
24.33
24.06
22.88
21.00
18.65
16.07
13.50
11.15
9.17
7.62
6.46
5.56
4.74
3.82
2.69
1.36
-0.12
-1.66
-3.20
-4.75
-6.39
-8.21
-10.20
-12.22
-14.03
-15.43
-16.40
-17.21
-18.31
-20.08
-22.45
-24.82
-26.12
-25.26
-21.67
-15.55
-7.87
0.08
7.19
12.86
17.00
19.81
21.51
22.20
21.89
20.68
18.80
16.59
14.41
12.49
11.00
9.97
9.35
9.00
8.70
8.17
7.19
5.67
3.71
1.49
-0.80
-3.07
-5.28
-7.41
-9.43
-11.29
-13.06
-14.89
-17.03
-19.64
-22.58
-25.46
-27.60
-28.32
-27.11
-23.88
-18.96
-13.00
-6.77
-0.95
4.07
8.17
11.43
14.01
15.97
17.24
17.68
17.22
16.02
14.41
12.82
11.56
10.71
10.11
9.51
8.74
7.79
6.80
5.90
5.09
4.21
3.01
1.32
-0.84
-3.23
-5.57
-7.71
-9.71
-11.89
-14.61
-18.07
-22.09
-26.08
-29.15
-30.42
-29.28
-25.68
-20.11
-13.45
-6.64
-0.43
4.78
8.86
11.80
13.51
13.86
12.80
10.52
7.51
4.41
1.82
0.03
-1.04
-1.81
-2.76
-4.35
-6.72
-9.76
-13.17
-16.58
-19.74
-22.61
-25.37
-28.38
-31.97
-36.40
-41.64
-47.47
-53.51
-59.35
-64.56
-68.74
-71.61
-73.04
-73.22
-72.61
-71.78
-70.94
-69.65
-66.68
-60.36
-49.28
-32.96
-12.27
10.72
33.41
53.50
69.72
82.12
91.87
100.67
109.97
120.35
131.16
140.75
147.05
148.38
143.97
134.16
120.10
103.29
85.27
67.55
51.65
39.03
30.69
26.66
25.68
25.51
23.76
19.00
11.48
2.99
-3.87
-6.80
-4.66
2.31
12.82
25.11
37.56
49.00
58.66
65.99
70.43
71.40
68.38
61.15
49.86
35.11
17.70
-1.74
-22.79
-45.04
-67.77
-89.66
-109.09
-124.65
-135.67
-142.30
-145.05
-144.12
-139.00
-128.64
-112.18
-89.70
-62.44
-32.43
-1.80
27.67
54.71
78.29
97.40
111.15
119.09
121.52
119.50
114.53
108.09
101.27
94.46
87.53
80.10
71.84
62.81
53.59
45.21
38.76
34.93
33.52
33.42
33.00
30.84
26.43
20.41
14.14
9.15
6.14
4.65
3.33
0.69
-4.11
-10.80
-18.01
-23.88
-26.53
-25.05
-19.75
-12.17
-4.43
1.67
5.52
8.07
11.32
17.79
28.64
43.05
58.21
70.49
77.12
77.38
73.04
66.94
63.02
63.27
67.71
74.67
82.02
88.01
91.52
91.90
87.69
80.50
72.40
66.98
67.69
75.54
87.03
94.40
88.64
62.77
20.91
-26.13
-63.42
-78.94
-69.51
-42.52
-12.16
7.81
8.03
-7.87
-32.48
-58.26
-82.71
-109.73
-146.84
-199.33
-251.45
-308.35
-351.95
-367.44
-346.73
-291.28
-211.42
-122.38
-39.50
25.95
66.33
83.75
81.74
65.02
37.84
3.17
-37.13
-81.82
-129.67
-180.73
-230.75
-275.83
-311.20
-331.98
-334.51
-317.78
-284.17
-239.09
-190.47
-143.30
-101.36
-65.72
-35.71
-10.30
11.08
28.64
42.96
55.05
67.65
82.61
100.29
119.14
136.28
148.89
155.66
157.55
157.12
157.77
161.59
168.52
176.49
182.36
183.42
178.64
169.01
157.11
146.01
137.98
133.58
131.57
129.57
125.30
117.75
107.65
97.21
89.15
85.61
87.30
93.26
101.15
108.09
111.58
110.22
104.06
94.44
83.33
72.54
63.16
55.23
48.06
40.70
32.36
22.60
11.18
-1.93
-16.52
-31.87
-46.82
-59.95
-70.19
-77.19
-81.34
-83.45
-84.21
-83.83
-82.15
-78.94
-74.18
-68.17
-61.28
-53.72
-45.53
-36.79
-28.00
-20.29
-15.17
-13.96
-17.12
-23.85
-32.31
-40.22
-45.70
-47.81
-46.72
-43.46
-39.41
-35.99
-34.45
-36.01
-41.95
-53.38
-70.64
-92.61
-116.43
-137.89
-152.68
-157.74
-152.34
-138.09
-118.14
-95.84
-73.79
-53.32
-34.75
-17.95
-2.74
10.94
23.06
33.59
42.46
49.32
53.42
53.43
47.55
34.01
11.87
-18.03
-52.41
-85.80
-111.63
-124.18
-120.53
-101.75
-72.73
-40.64
-12.70
5.94
13.38
11.03
2.50
-7.95
-16.86
-22.36
-24.28
-23.58
-21.68
-19.89
-19.07
-19.73
-22.04
-25.72
-30.14
-34.19
-36.45
-35.67
-31.34
-24.41
-17.43
-13.85
-16.40
-25.25
-36.96
-45.24
-43.29
-27.08
2.47
39.53
75.78
103.81
119.96
124.96
122.48
116.74
110.61
105.06
99.94
95.08
90.85
87.98
86.90
87.18
87.53
86.35
82.45
75.50
66.27
56.25
47.04
39.75
34.58
30.78
26.94
21.65
14.05
4.10
-7.58
-20.05
-32.52
-44.50
-55.72
-65.89
-74.69
-81.98
-88.12
-94.06
-100.87
-108.93
-117.26
-123.49
-124.64
-118.50
-104.80
-85.44
-63.92
-43.91
-28.04
-17.39
-11.63
-9.87
-11.25
-15.23
-21.39
-28.93
-36.63
-42.96
-46.59
-46.88
-44.15
-39.55
-34.63
-30.92
-29.56
-31.19
-35.88
-43.16
-52.06
-61.23
-69.11
-74.23
-75.51
-72.45
-65.10
-54.05
-40.21
-24.78
-9.05
5.69
18.38
28.34
35.48
40.14
42.95
44.42
44.75
43.77
41.17
36.80
30.93
24.32
17.90
12.43
8.17
4.79
1.58
-2.25
-7.19
-13.40
-20.68
-28.56
-36.35
-43.05
-47.48
-48.36
-44.76
-36.32
-23.43
-7.10
11.36
30.66
49.70
67.56
83.40
96.31
105.35
109.67
108.80
103.03
93.48
81.88
70.14
59.81
51.66
45.67
41.28
37.83
34.82
31.92
28.87
25.29
20.69
14.74
7.59
-0.10
-7.39
-13.50
-18.16
-21.66
-24.56
-27.27
-29.70
-31.34
-31.57
-30.16
-27.37
-23.79
-19.87
-15.49
-10.03
-2.70
6.71
17.48
27.98
36.33
41.04
41.54
38.11
31.56
22.78
12.68
2.33
-6.82
-13.04
-14.93
-12.06
-5.52
2.27
8.19
9.50
4.62
-6.35
-21.68
-38.37
-52.72
-61.18
-61.16
-51.74
-33.95
-10.45
15.36
40.33
62.29
80.20
93.81
103.24
108.64
110.32
108.82
104.98
99.69
93.53
86.49
78.09
67.71
55.18
41.04
26.53
13.16
2.13
-6.15
-12.24
-17.44
-23.24
-30.66
-39.68
-49.16
-57.11
-61.51
-61.03
-55.60
-46.45
-35.58
-25.08
-16.40
-10.02
-5.57
-2.19
0.97
4.41
8.25
12.30
16.34
20.36
24.63
29.68
36.19
44.66
55.11
66.64
77.25
83.81
82.58
70.26
45.36
9.34
-33.15
-75.23
-109.85
-131.92
-139.70
-134.77
-120.77
-101.78
-81.11
-61.01
-42.98
-28.33
-18.18
-13.15
-12.87
-15.78
-19.50
-21.64
-20.64
-16.33
-9.92
-3.57
0.51
0.88
-2.63
-8.91
-16.07
-22.24
-26.22
-27.76
-27.43
-26.19
-24.96
-24.35
-24.61
-25.65
-27.06
-28.15
-28.09
-26.09
-21.72
-15.04
-6.52
3.35
14.40
26.97
41.52
58.00
75.29
91.17
102.92
108.40
106.90
99.47
88.53
76.94
67.06
60.30
56.94
56.45
57.67
59.08
58.76
54.72
45.45
30.71
12.01
-7.73
-25.13
-37.83
-45.47
-49.68
-53.09
-57.82
-64.37
-71.45
-76.83
-78.53
-75.72
-68.83
-59.03
-47.59
-35.47
-23.45
-12.42
-3.53
1.92
2.98
-0.56
-7.80
-16.80
-25.20
-30.95
-33.03
-31.79
-28.75
-25.90
-24.95
-26.57
-30.22
-34.41
-37.40
-37.94
-35.90
-32.36
-29.16
-28.08
-29.93
-34.08
-38.57
-40.88
-38.87
-31.49
-19.23
-4.01
11.25
23.39
29.97
30.00
24.31
15.29
6.05
-0.78
-3.86
-3.29
-0.11
4.58
10.25
17.01
25.05
34.14
43.31
51.16
56.46
58.71
58.29
56.10
52.82
48.37
41.86
32.23
19.04
3.25
-13.01
-27.21
-37.57
-43.81
-47.15
-49.43
-52.15
-55.72
-59.57
-62.93
-65.60
-68.53
-73.47
-82.20
-95.52
-112.86
-132.43
-152.05
-169.94
-185.20
-197.85
-208.55
-218.48
-229.16
-242.15
-258.27
-276.67
-294.23
-305.96
-306.79
-293.74
-267.55
-232.61
-195.00
-159.84
-129.25
-102.24
-76.21
-49.25
-21.56
4.78
27.01
43.69
55.69
65.97
78.61
97.58
125.72
164.07
211.25
262.83
311.34
347.53
362.92
353.01
319.60
270.81
218.58
174.58
146.38
135.86
140.05
153.83
172.85
195.02
220.38
249.77
283.28
319.59
356.08
389.78
418.33
440.70
457.00
467.87
473.80
474.53
469.20
456.82
436.83
409.51
376.08
338.18
297.40
254.79
210.73
165.15
118.07
69.97
21.96
-24.58
-68.66
-110.22
-150.10
-189.46
-228.65
-266.48
-300.03
-325.42
-338.94
-338.29
-323.30
-296.02
-260.21
-220.52
-181.47
-146.56
-117.44
-93.66
-73.19
-53.53
-33.26
-13.14
3.85
13.58
12.60
-0.28
-23.52
-53.61
-86.62
-119.82
-152.37
-185.14
-219.87
-258.41
-302.24
-351.99
-406.82
-463.86
-517.87
-562.03
-589.73
-596.65
-582.42
-550.54
-506.92
-457.58
-406.92
-357.23
-309.58
-264.94
-224.89
-191.23
-165.06
-145.99
-132.20
-121.32
-111.63
-102.61
-94.85
-89.01
-84.97
-81.56
-77.18
-70.83
-62.79
-54.61
-48.10
-44.24
-42.44
-40.80
-36.99
-29.36
-17.54
-2.30
15.09
33.58
52.54
71.56
90.02
106.77
120.37
129.63
134.12
134.45
132.01
128.33
124.44
120.54
116.12
110.44
103.10
94.39
85.24
76.76
69.62
63.77
58.69
54.10
50.59
49.53
52.09
57.93
64.49
67.66
63.75
51.50
33.20
13.96
-0.36
-5.31
1.02
18.14
43.99
75.43
108.33
137.47
157.29
163.52
155.17
135.50
111.25
90.40
79.30
80.67
93.20
112.45
132.58
148.21
155.86
154.76
146.95
136.22
126.25
118.49
111.06
99.54
79.59
49.95
14.10
-20.62
-46.13
-57.29
-54.03
-40.75
-23.63
-7.50
5.86
17.29
28.38
39.48
49.03
54.38
53.47
46.42
36.03
26.92
24.05
31.26
50.32
80.69
119.70
162.88
204.71
239.35
261.87
269.08
260.11
236.08
199.17
151.45
94.17
28.14
-44.82
-120.41
-191.38
-248.93
-285.51
-297.67
-287.47
-261.56
-228.36
-194.71
-163.61
-133.87
-102.00
-64.88
-22.04
23.44
65.85
99.02
118.77
124.56
119.68
109.77
100.54
95.46
94.99
97.15
99.30
99.84
98.86
97.58
97.04
97.06
96.19
92.63
85.36
74.81
62.70
51.09
41.42
33.94
27.94
22.52
17.39
13.18
11.21
12.80
18.72
28.90
42.68
59.09
77.13
95.63
113.04
127.39
136.61
139.16
134.59
123.77
108.61
91.40
74.20
58.47
44.82
33.04
22.01
9.71
-6.35
-28.25
-56.46
-88.80
-120.26
-144.08
-153.77
-145.38
-119.06
-79.19
-33.00
11.67
48.53
74.06
87.57
90.35
84.69
73.05
57.74
40.80
23.91
8.14
-6.17
-19.28
-31.58
-42.92
-52.10
-57.00
-55.27
-45.34
-27.15
-2.48
25.45
52.84
76.15
92.70
101.05
100.92
93.07
79.20
61.71
43.45
27.19
15.02
7.82
5.03
4.97
5.47
4.73
1.88
-2.84
-8.54
-14.20
-19.14
-23.19
-26.45
-29.19
-31.61
-33.84
-35.91
-37.80
-39.44
-40.91
-42.44
-44.35
-46.67
-48.72
-49.05
-45.78
-37.38
-23.54
-5.61
13.79
31.72
45.78
55.04
59.78
61.09
60.27
58.48
56.61
55.21
54.44
54.12
54.04
54.13
54.55
55.32
55.93
55.27
52.14
46.13
38.15
30.14
23.84
19.53
15.41
8.58
-3.20
-19.99
-39.43
-58.03
-73.25
-84.95
-95.04
-105.90
-118.88
-133.12
-146.00
-154.27
-155.35
-148.11
-133.00
-111.69
-86.73
-61.12
-38.02
-20.28
-9.79
-7.16
-11.48
-20.60
-31.64
-41.56
-47.75
-48.38
-42.83
-31.75
-17.09
-1.55
12.24
22.52
29.10
33.41
37.93
44.93
55.24
67.57
78.84
85.44
84.90
77.27
65.31
53.50
46.41
46.98
55.32
68.58
81.80
89.56
87.87
75.83
56.22
34.74
17.95
10.58
13.32
22.07
29.33
27.29
11.48
-16.82
-50.63
-79.95
-95.72
-93.32
-73.76
-42.38
-5.94
30.28
63.79
94.33
122.29
147.39
168.54
184.41
194.40
198.95
199.55
198.28
197.50
199.38
205.07
214.05
223.72
230.01
229.08
219.07
201.10
178.71
156.06
135.73
117.85
100.46
81.05
58.05
31.26
1.03
-33.02
-72.32
-118.36
-170.72
-225.50
-275.40
-311.81
-328.15
-322.48
-298.27
-262.74
-223.87
-187.70
-157.04
-131.98
-111.33
-94.00
-79.50
-67.70
-58.32
-50.72
-44.10
-37.97
-32.39
-27.95
-25.58
-25.83
-28.41
-32.10
-35.13
-35.81
-33.37
-28.24
-21.84
-15.97
-12.01
-10.50
-11.16
-13.23
-15.88
-18.50
-20.83
-22.87
-24.79
-26.74
-28.70
-30.52
-31.95
-32.85
-33.44
-34.21
-35.70
-37.98
-40.31
-41.20
-39.02
-32.77
-22.66
-10.23
2.29
12.76
19.86
23.41
