1607652757.00
64.000000
-0.00
-0.00
-0.00
-0.00
-0.00
-0.00
-0.00
-0.00
-0.00
-0.00
0.00
0.01
0.01
-0.00
-0.03
-0.05
-0.05
0.00
0.13
0.36
0.66
1.01
1.37
1.72
2.06
2.40
2.79
3.24
3.80
4.42
5.06
5.66
6.20
6.68
7.15
7.68
8.31
9.14
10.09
11.04
11.88
12.56
13.14
13.76
14.65
15.96
17.91
20.32
22.90
25.38
27.58
29.57
31.68
34.32
37.81
42.54
48.15
54.10
59.83
64.97
69.58
74.14
79.34
85.71
93.76
103.00
112.62
121.73
129.77
136.75
143.30
150.75
157.77
166.64
177.95
191.79
206.97
220.57
228.25
225.36
208.53
176.87
132.76
80.05
23.07
-34.94
-92.44
-149.16
-205.23
-260.37
-313.74
-363.87
-409.83
-450.91
-486.50
-515.74
-537.23
-549.22
-549.96
-538.37
-514.21
-478.67
-433.88
-382.45
-327.02
-269.84
-212.63
-156.66
-102.95
-52.37
-5.90
35.58
71.43
101.35
125.50
144.38
158.69
169.15
176.37
180.75
182.57
182.07
179.51
175.23
169.65
163.18
156.15
148.81
141.30
133.69
126.02
118.33
110.69
103.16
95.80
88.68
81.83
75.25
68.95
62.95
57.25
51.86
46.78
42.03
37.59
33.45
29.61
26.07
22.81
19.83
17.11
14.67
12.48
10.54
8.83
7.35
6.07
4.97
4.05
3.27
2.62
2.09
1.65
1.30
1.01
0.79
0.61
0.48
0.37
0.29
0.24
0.20
0.18
0.17
0.17
0.19
0.22
0.26
0.31
0.34
0.34
0.32
0.27
0.22
0.20
0.22
0.28
0.36
0.44
0.49
0.48
0.44
0.39
0.36
0.40
0.50
0.63
0.75
0.82
0.82
0.76
0.71
0.76
0.97
1.32
1.75
2.12
2.32
2.28
2.07
1.86
1.85
2.20
2.89
3.74
4.46
4.76
4.55
3.94
3.26
2.93
3.24
4.21
5.53
6.71
7.27
6.97
5.93
4.61
3.51
2.96
2.93
2.99
2.52
0.87
-2.43
-7.74
-15.10
-24.08
-33.40
-41.00
-44.59
-42.66
-35.32
-24.68
-14.08
-6.74
-4.39
-6.64
-11.42
-16.17
-18.96
-18.99
-16.43
-11.77
-5.49
1.98
10.00
17.52
23.29
26.37
26.53
24.30
20.74
16.80
12.98
9.21
5.09
0.29
-5.27
-11.34
-17.51
-23.30
-28.25
-31.96
-33.98
-33.89
-31.62
-27.53
-22.43
-17.34
-13.16
-10.32
-8.82
-8.30
-8.23
-8.28
-8.27
-8.10
-7.63
-6.71
-5.30
-3.63
-2.20
-1.49
-1.95
-3.68
-6.25
-8.79
-10.25
-9.65
-6.30
-1.13
5.21
12.01
18.72
25.11
31.21
37.17
42.99
48.29
52.33
54.28
53.43
49.56
43.14
35.46
28.28
23.43
22.25
25.23
31.86
40.46
48.59
53.68
53.94
49.13
41.02
33.15
29.81
34.78
49.93
74.47
105.04
136.54
163.38
180.97
186.78
180.91
165.88
145.79
125.16
107.80
96.19
91.40
93.44
101.83
115.98
135.15
158.27
183.52
208.38
230.05
246.10
255.23
257.60
254.57
247.98
239.32
229.24
217.63
204.14
188.77
172.22
155.62
140.08
126.18
113.77
102.26
91.08
80.05
69.51
60.13
52.43
46.44
41.62
36.97
31.47
24.49
16.09
6.92
-2.09
-10.15
-17.05
-23.20
-29.45
-36.67
-45.33
-55.26
-65.71
-75.77
-84.83
-92.93
-100.85
-109.76
-120.70
-134.11
-149.56
-165.96
-181.96
-196.61
-209.67
-221.86
-234.76
-250.54
-271.42
-298.80
-332.20
-368.50
-402.09
-426.02
-433.97
-422.35
-391.27
-344.37
-287.40
-226.42
-166.43
-110.80
-61.35
-18.91
16.17
43.43
62.00
70.68
68.50
55.62
34.03
7.73
-18.33
-39.57
-53.26
-58.98
-58.26
-53.47
-46.78
-39.65
-32.85
-26.87
-21.94
-18.00
-14.37
-9.67
-2.29
8.79
23.17
38.63
51.35
57.23
53.24
38.62
15.01
-14.44
-46.22
-77.30
-105.16
-127.42
-141.38
-144.46
-135.04
-113.56
-82.78
-47.08
-11.12
21.55
48.95
70.44
86.04
95.91
100.34
99.88
95.50
88.39
79.85
70.99
63.05
57.65
56.80
62.50
76.02
97.20
124.35
154.77
185.58
214.42
239.69
260.47
276.20
286.52
291.17
290.02
283.09
270.58
252.98
231.09
206.11
179.52
152.79
127.05
102.98
80.82
60.66
42.71
27.36
14.99
5.70
-0.89
-5.54
-9.21
-12.69
-16.48
-20.59
-24.76
-28.55
-31.70
-34.21
-36.50
-39.29
-43.36
-49.25
-57.06
-66.37
-76.36
-86.21
-95.44
-104.24
-113.45
-124.30
-137.85
-154.54
-173.91
-194.79
-215.80
-235.81
-254.49
-272.28
-290.26
-309.96
-333.07
-361.00
-394.19
-431.21
-468.34
-499.92
-519.83
-523.35
-508.94
-478.79
-438.19
-393.55
-350.27
-311.16
-276.04
-242.72
-208.51
-171.69
-132.16
-91.17
-50.39
-11.34
24.79
57.03
84.41
106.07
121.87
133.16
142.76
154.05
169.35
188.27
207.11
219.59
219.01
200.96
165.66
118.48
68.22
24.02
-7.70
-24.91
-29.53
-25.36
-16.10
-4.51
7.31
17.38
23.98
26.80
27.59
29.70
36.05
46.68
57.91
64.11
61.03
48.73
31.90
17.30
9.92
10.46
15.37
19.42
19.02
14.16
8.08
5.21
8.84
19.79
36.63
56.55
76.65
94.63
108.95
118.59
122.92
121.55
114.34
101.70
84.68
65.26
46.17
30.42
20.41
16.94
18.82
23.14
26.69
27.08
23.90
18.38
12.50
7.77
4.50
1.89
-1.46
-6.52
-13.64
-22.30
-31.52
-40.33
-48.08
-54.60
-60.22
-65.59
-71.39
-78.10
-85.74
-93.84
-101.51
-107.58
-110.96
-110.79
-106.83
-99.72
-91.25
-84.21
-81.67
-86.10
-98.52
-118.26
-143.12
-169.72
-194.07
-212.02
-219.71
-214.48
-195.70
-165.43
-128.20
-89.85
-55.61
-28.67
-9.53
3.37
12.21
18.49
22.41
23.51
21.35
16.50
10.53
5.30
1.85
-0.29
-2.84
-7.55
-14.98
-23.95
-31.94
-36.46
-36.15
-31.27
-23.14
-13.10
-1.80
10.77
24.83
40.15
56.04
71.68
86.82
101.85
117.61
134.66
152.65
170.00
184.14
192.12
191.45
181.18
162.08
136.80
109.21
83.35
62.44
48.22
40.69
38.76
40.89
45.72
52.28
59.95
67.93
74.96
79.38
79.55
74.40
63.93
49.16
31.76
13.37
-4.92
-22.72
-40.01
-56.70
-72.22
-85.39
-94.67
-98.93
-97.92
-92.49
-84.32
-75.07
-65.37
-54.44
-40.43
-21.68
1.89
28.28
53.97
75.49
90.94
100.60
106.39
110.51
114.34
117.92
120.47
121.25
120.11
117.46
113.84
109.45
103.99
97.17
88.96
79.88
70.78
62.38
55.07
48.67
42.55
35.95
28.42
19.92
10.96
2.26
-5.59
-12.33
-18.08
-23.19
-28.07
-32.91
-37.69
-42.15
-45.82
-48.08
-48.37
-46.42
-42.37
-36.82
-30.67
-24.66
-19.08
-13.50
-7.08
0.97
10.92
22.32
34.22
45.45
55.05
62.38
67.25
69.72
70.22
69.40
68.06
66.87
66.00
64.94
62.61
57.94
50.23
39.78
27.62
15.21
3.72
-6.29
-14.95
-22.80
-30.35
-37.91
-45.49
-53.02
-60.40
-67.50
-74.00
-79.34
-82.97
-84.71
-85.01
-84.89
-85.39
-86.86
-88.41
-87.99
-83.14
-72.11
-54.74
-32.49
-8.02
15.83
36.78
53.63
66.01
74.02
77.94
78.06
74.87
69.24
62.25
55.09
48.67
43.40
39.12
35.29
31.18
26.10
19.48
11.12
1.27
-9.28
-19.31
-27.46
-32.68
-34.49
-33.13
-29.49
-24.94
-20.90
-18.54
-18.18
-18.90
-18.74
-15.31
-6.94
6.43
22.94
39.48
52.78
60.61
62.43
59.07
52.12
43.21
33.76
25.03
18.29
14.71
15.14
19.78
28.04
38.76
50.54
62.02
72.14
80.04
85.08
86.73
84.68
78.88
69.77
58.21
45.31
32.19
19.57
7.63
-3.91
-15.49
-27.54
-40.12
-52.94
-65.58
-77.61
-88.89
-99.61
-110.16
-120.91
-132.01
-143.20
-153.89
-163.36
-170.99
-176.53
-180.27
-182.96
-185.64
-189.23
-194.19
-200.28
-206.67
-212.15
-215.45
-215.59
-212.06
-204.64
-193.50
-178.83
-160.85
-139.75
-115.59
-88.22
-57.07
-21.65
17.77
59.46
100.35
136.99
167.04
190.49
209.51
227.29
246.01
265.59
283.70
297.12
303.53
302.89
297.58
291.67
289.63
295.19
310.23
334.11
363.24
391.51
411.57
416.99
403.90
371.76
322.86
260.87
189.69
113.07
34.95
-40.13
-107.33
-162.88
-205.53
-237.23
-262.60
-286.78
-313.12
-341.55
-368.45
-387.95
-394.33
-383.99
-356.88
-316.44
-268.51
-219.46
-174.51
-136.55
-106.12
-82.19
-63.22
-47.91
-35.61
-25.84
-17.88
-10.71
-3.07
5.93
16.45
28.14
40.57
53.73
68.11
84.10
101.15
117.49
130.34
137.03
136.22
128.48
115.82
100.68
84.60
67.69
49.13
27.97
4.01
-21.84
-47.93
-72.49
-94.15
-112.06
-125.72
-134.59
-138.01
-135.48
-126.78
-112.56
-94.25
-73.87
-53.48
-34.58
-17.73
-2.48
12.17
27.25
43.29
60.09
76.88
92.52
105.90
116.26
123.25
127.01
127.97
126.66
123.58
119.04
113.17
105.95
97.31
87.27
76.13
64.51
53.13
42.66
33.33
24.94
16.95
8.84
0.49
-7.65
-14.69
-19.56
-21.43
-19.90
-15.12
-7.60
1.93
12.65
23.86
34.98
45.58
55.34
64.06
71.50
77.42
81.56
83.68
83.58
81.18
76.62
70.22
62.51
54.17
45.90
38.39
32.30
28.02
25.67
24.97
25.19
25.42
24.79
22.67
18.87
13.49
6.84
-0.86
-9.51
-19.20
-30.06
-42.11
-55.11
-68.57
-81.67
-93.32
-102.28
-107.56
-108.56
-105.39
-98.72
-89.61
-79.00
-67.58
-55.56
-42.89
-29.56
-15.81
-2.11
10.97
22.83
32.87
40.34
44.42
44.46
40.48
33.39
24.85
16.82
10.71
7.01
5.19
4.19
3.01
1.07
-1.78
-5.50
-10.05
-15.44
-21.53
-27.93
-34.13
-39.70
-44.55
-48.94
-53.45
-58.64
-64.71
-71.43
-78.04
-83.40
-86.26
-85.66
-81.14
-72.95
-61.86
-48.92
-35.13
-21.15
-7.34
6.22
19.42
32.08
43.86
54.34
63.03
69.59
73.89
76.02
76.29
75.15
73.05
70.35
67.30
64.02
60.66
57.36
54.13
50.85
47.30
43.18
38.21
32.31
25.55
18.19
10.53
2.86
-4.72
-12.21
-19.74
-27.43
-35.33
-43.46
-51.75
-60.05
-68.13
-75.45
-81.29
-84.87
-85.43
-82.60
-76.36
-66.87
-54.26
-38.53
-19.92
0.64
21.32
39.71
53.65
62.09
65.51
65.62
64.38
63.19
62.40
61.58
60.15
57.96
55.37
53.00
51.24
49.96
48.60
46.54
43.44
39.42
34.86
30.27
25.90
21.63
17.15
12.08
6.31
0.02
-6.41
-12.58
-18.29
-23.69
-29.17
-35.22
-42.19
-50.13
-58.69
-67.18
-74.58
-79.82
-81.99
-80.62
-75.77
-67.96
-58.09
-47.11
-35.87
-24.86
-14.23
-3.96
6.04
15.68
24.61
32.36
38.42
42.52
44.73
45.38
45.02
44.29
43.71
43.61
44.08
45.00
46.05
46.86
47.06
46.46
45.08
43.04
40.48
37.48
33.99
29.90
25.10
19.55
13.38
6.85
0.42
-5.59
-10.99
-15.97
-20.99
-26.57
-33.16
-40.84
-49.35
-58.06
-66.04
-72.03
-74.54
-72.23
-64.47
-51.94
-36.64
-21.38
-8.67
0.32
6.07
10.23
14.51
19.81
25.82
31.45
35.65
38.05
39.01
39.28
39.42
39.53
39.26
38.27
36.47
34.14
31.76
29.83
28.49
27.52
26.41
24.57
21.67
17.69
13.00
8.11
3.50
-0.71
-4.56
-8.32
-12.25
-16.47
-20.91
-25.33
-29.52
-33.39
-37.17
-41.22
-45.90
-51.29
-56.95
-61.93
-65.06
-65.29
-62.18
-56.12
-48.07
-39.26
-30.60
-22.41
-14.49
-6.36
2.30
11.41
20.46
28.70
35.50
40.58
44.11
46.48
48.15
49.38
50.18
50.36
49.83
48.58
46.84
44.91
42.92
40.84
38.63
36.32
34.14
32.21
30.29
27.65
23.38
16.92
8.56
-0.50
-8.65
-14.62
-18.11
-19.85
-21.15
-23.14
-26.36
-30.65
-35.54
-40.52
-45.28
-49.48
-52.69
-54.30
-53.67
-50.46
-44.70
-36.98
-28.12
-19.00
-10.23
-2.15
5.25
12.15
18.73
25.10
31.14
36.62
41.19
44.60
46.72
47.68
47.78
47.43
47.01
46.76
46.72
46.74
46.53
45.81
44.37
42.13
39.13
35.50
31.43
27.07
22.60
18.13
13.71
9.30
4.73
-0.28
-6.02
-12.75
-20.55
-29.28
-38.52
-47.67
-55.98
-62.66
-66.99
-68.58
-67.42
-63.96
-58.92
-53.03
-46.80
-40.38
-33.60
-26.28
-18.36
-10.09
-2.03
5.22
11.16
15.62
18.70
20.73
22.11
23.13
23.92
24.50
24.78
24.76
24.50
24.13
23.76
23.38
22.95
22.51
22.22
22.26
22.53
22.53
21.42
18.39
13.19
6.34
-1.07
-7.87
-13.44
-17.97
-22.18
-26.74
-31.74
-36.56
-40.13
-41.56
-40.55
-37.40
-32.90
-27.79
-22.52
-17.19
-11.70
-5.94
-0.01
5.73
10.82
14.76
17.26
18.30
18.11
17.13
15.84
14.56
13.40
12.32
11.11
9.63
7.83
5.75
3.54
1.28
-1.09
-3.74
-6.86
-10.49
-14.48
-18.45
-21.99
-24.79
-26.82
-28.34
-29.76
-31.56
-34.08
-37.53
-41.88
-46.93
-52.21
-56.98
-60.36
-61.50
-59.93
-55.65
-49.18
-41.36
-33.05
-24.85
-17.01
-9.57
-2.52
3.97
9.61
14.14
17.49
19.83
21.52
22.96
24.35
25.72
26.97
28.09
29.22
30.52
31.98
33.31
34.01
33.55
31.77
28.85
25.33
21.78
18.57
15.79
13.34
11.12
9.08
7.18
5.31
3.18
0.55
-2.68
-6.22
-9.45
-11.59
-11.96
-10.24
-6.49
-1.15
5.24
12.11
19.07
25.86
32.31
38.24
43.44
47.63
50.60
52.29
52.87
52.71
52.20
51.59
50.94
50.10
48.84
46.92
44.22
40.75
36.61
31.97
26.99
21.86
16.76
11.87
7.27
2.96
-1.11
-5.05
-9.01
-13.08
-17.37
-21.93
-26.77
-31.71
-36.44
-40.42
-42.98
-43.50
-41.56
-37.10
-30.49
-22.40
-13.63
-4.86
3.44
11.09
18.09
24.48
30.21
35.12
38.94
41.43
42.46
42.09
40.64
38.62
36.67
35.33
34.99
35.69
37.11
38.50
38.94
37.55
33.71
27.32
18.75
8.71
-1.95
-12.52
-22.53
-31.81
-40.35
-48.25
-55.59
-62.30
-68.13
-72.61
-75.10
-74.96
-71.80
-65.67
-57.17
-47.31
-37.21
-27.80
-19.60
-12.71
-6.89
-1.87
2.59
6.50
9.70
11.93
12.97
12.78
11.46
9.27
6.53
3.52
0.49
-2.43
-5.20
-7.84
-10.45
-13.12
-15.93
-18.92
-22.01
-25.07
-27.90
-30.37
-32.53
-34.53
-36.69
-39.34
-42.73
-46.87
-51.41
-55.71
-58.86
-59.92
-58.23
-53.61
-46.47
-37.66
-28.19
-18.93
-10.40
-2.68
4.43
11.15
17.52
23.40
28.50
32.52
35.32
36.96
37.61
37.47
36.73
35.39
33.48
31.13
28.52
25.95
23.70
21.96
20.64
19.51
18.26
16.70
14.85
12.88
11.02
9.33
7.71
5.89
3.59
0.61
-3.12
-7.49
-12.37
-17.49
-22.57
-27.14
-30.61
-32.30
-31.69
-28.57
-23.15
-16.02
-7.90
0.55
8.91
17.03
24.83
32.19
38.78
44.18
48.00
50.11
50.65
50.05
48.66
46.80
44.53
41.83
38.71
35.34
32.00
29.00
26.54
24.60
22.99
21.39
19.52
17.22
14.43
11.27
7.90
4.53
1.29
-1.74
-4.58
-7.36
-10.25
-13.44
-17.05
-21.17
-25.74
-30.62
-35.50
-39.99
-43.64
-46.06
-46.98
-46.29
-43.99
-40.18
-35.02
-28.65
-21.28
-13.17
-4.60
4.07
12.40
19.98
26.42
31.44
34.93
36.91
37.52
37.02
35.74
33.98
32.09
30.30
28.78
27.51
26.39
25.26
23.98
22.50
20.86
19.07
17.16
15.09
12.82
10.38
7.85
5.33
2.88
0.46
-2.07
-4.85
-7.95
-11.33
-14.78
-18.08
-21.06
-23.71
-26.16
-28.60
-31.20
-33.93
-36.55
-38.60
-39.55
-38.98
-36.57
-32.24
-26.08
-18.37
-9.53
-0.17
9.02
17.47
24.78
30.92
36.07
40.54
44.44
47.70
50.01
51.06
50.68
48.87
45.86
42.03
37.89
33.97
30.87
29.10
28.88
30.09
32.11
34.06
34.95
34.02
30.90
25.69
18.83
10.89
2.47
-5.94
-13.91
-21.04
-26.96
-31.37
-34.15
-35.53
-36.06
-36.46
-37.46
-39.44
-42.31
-45.51
-48.12
-49.14
-47.93
-44.36
-38.82
-32.15
-25.28
-18.98
-13.71
-9.55
-6.33
-3.75
-1.50
0.70
3.08
5.80
8.98
12.66
16.75
21.02
24.97
27.97
29.41
28.79
25.95
21.16
14.98
8.19
1.61
-4.06
-8.31
-10.89
-11.89
-11.66
-10.76
-9.86
-9.56
-10.28
-12.19
-15.10
-18.66
-22.36
-25.81
-28.87
-31.87
-35.44
-40.27
-46.72
-54.40
-62.18
-68.46
-71.62
-70.71
-65.70
-57.46
-47.34
-36.70
-26.50
-17.30
-9.28
-2.47
3.18
8.02
12.63
17.80
24.10
31.77
40.48
49.69
58.95
68.04
76.87
85.10
91.87
95.86
95.88
91.49
83.47
73.70
64.61
58.45
56.70
59.94
67.84
79.46
93.42
108.10
121.82
133.22
141.42
146.23
148.23
148.51
148.43
149.35
152.47
158.80
169.03
183.61
202.36
224.39
247.71
269.30
285.63
293.40
290.52
276.95
254.67
227.10
197.97
170.11
144.81
121.87
100.19
78.58
56.35
33.35
9.70
-14.48
-39.43
-65.61
-93.47
-123.38
-155.59
-190.47
-228.39
-269.25
-311.79
-353.02
-388.54
-413.59
-424.68
-420.91
-404.43
-379.72
-352.03
-325.82
-303.88
-287.23
-275.68
-268.38
-264.10
-261.26
-257.79
-251.37
-240.09
-223.19
-201.52
-177.49
-154.33
-134.92
-120.85
-111.95
-106.70
-103.08
-99.34
-94.57
-88.57
-81.74
-74.60
-67.66
-61.32
-55.84
-51.26
-47.31
-43.45
-39.00
-33.41
-26.45
-18.25
-9.26
-0.08
8.76
16.95
24.42
31.32
37.86
44.22
50.40
56.30
61.85
67.22
72.87
79.27
86.73
95.10
103.80
112.10
119.33
125.18
129.65
132.83
134.81
135.60
135.30
134.17
132.71
131.44
130.75
130.71
131.16
131.79
132.39
132.89
133.32
133.72
133.93
133.64
132.28
129.23
123.96
116.28
106.57
95.79
85.34
76.64
70.73
67.95
67.90
69.70
72.34
75.06
77.48
79.58
81.58
83.82
86.67
90.45
95.36
101.40
108.33
115.74
123.23
130.41
137.14
143.40
149.46
155.79
162.97
171.41
181.04
191.06
200.02
206.28
208.56
206.36
199.99
190.09
177.22
161.52
142.99
121.91
99.25
76.72
56.31
39.68
27.69
20.35
17.12
17.31
20.34
25.71
32.93
41.31
50.00
58.01
64.58
69.20
71.71
72.28
71.22
68.84
65.38
60.91
55.49
49.16
42.10
34.57
26.92
19.52
12.62
6.38
0.82
-4.10
-8.44
-12.21
-15.43
-18.06
-20.10
-21.58
-22.58
-23.20
-23.60
-23.86
-24.08
-24.33
-24.65
-25.09
-25.68
-26.47
-27.46
-28.68
-30.11
-31.74
-33.57
-35.61
-37.84
-40.25
-42.80
-45.45
-48.17
-50.97
-53.90
-57.04
-60.50
-64.35
-68.59
-73.13
-77.81
-82.43
-86.87
-91.11
-95.26
-99.53
-104.08
-109.04
-114.38
-119.95
-125.58
-131.20
-136.91
-142.96
-149.67
-157.20
-165.46
-174.02
-182.23
-189.47
-195.40
-200.19
-204.45
-209.07
-214.86
-222.26
-231.24
-241.43
-252.35
-263.74
-275.71
-288.67
-303.28
-320.23
-340.18
-363.65
-390.50
-419.57
-448.28
-473.03
-490.06
-496.64
-492.06
-477.68
-456.22
-430.58
-402.74
-373.51
-342.74
-310.09
-275.58
-239.73
-203.25
-166.73
-130.55
-94.98
-60.59
-28.29
0.69
25.04
43.88
57.07
65.37
70.30
73.62
76.83
80.52
84.27
86.80
86.52
82.34
74.14
63.11
51.33
41.17
34.41
31.75
32.79
36.50
41.74
47.73
54.15
60.87
67.76
74.39
80.26
84.81
87.85
89.41
89.78
89.33
88.33
86.96
85.31
83.51
81.59
79.51
77.12
74.27
70.76
66.50
61.52
55.99
50.22
44.57
39.49
35.26
32.06
29.73
27.94
26.32
24.72
23.20
22.14
21.85
22.36
23.23
23.73
23.25
21.54
18.52
14.25
8.61
1.60
-6.37
-14.07
-19.52
-20.56
-15.73
-4.91
10.68
29.10
48.40
67.46
85.97
104.08
121.98
139.52
156.29
172.00
186.67
200.60
214.34
228.39
242.84
257.41
271.53
284.70
296.76
307.26
316.20
323.80
330.07
334.06
334.14
328.70
316.90
299.06
275.71
248.05
217.70
186.36
155.27
125.18
96.40
68.91
42.27
13.97
-17.88
-53.20
-89.81
-124.61
-154.53
-177.18
-191.14
-196.12
-197.69
-200.19
-204.16
-206.93
-206.06
-201.10
-193.42
-184.96
-177.51
-182.11
-205.33
-244.67
-290.83
-334.92
-372.37
-402.47
-426.05
-444.19
-473.15
-522.63
-588.56
-656.69
-714.20
-755.86
-783.15
-800.04
-810.44
-837.37
-894.44
-977.09
-1067.34
-1149.06
-1215.86
-1270.00
-1316.80
-1233.90
-970.63
-575.38
-160.41
186.68
437.78
603.81
707.34
770.18
809.31
816.21
786.35
728.85
663.60
604.86
562.00
535.65
522.95
520.40
509.13
477.49
427.55
372.17
323.75
288.56
266.70
256.42
256.23
251.97
235.24
206.91
175.07
147.62
128.53
117.58
113.02
112.81
110.33
101.81
87.82
72.45
59.59
51.24
47.21
46.53
48.07
49.04
47.98
45.02
41.61
39.16
38.38
39.14
40.99
43.35
45.61
47.50
48.73
49.19
48.85
47.88
46.43
44.67
42.70
40.42
37.80
34.70
31.06
26.98
22.80
18.95
15.88
13.83
12.77
12.40
12.26
12.03
11.61
11.32
11.71
13.36
16.59
21.30
27.02
33.11
39.08
44.80
50.62
57.17
65.25
75.54
88.46
103.94
121.01
137.76
151.48
159.20
158.69
149.45
133.25
113.67
94.97
80.44
71.38
67.14
65.91
66.07
67.00
69.02
72.72
78.24
85.17
92.81
100.74
108.95
117.67
126.72
135.29
142.00
145.54
145.24
141.38
134.92
127.18
119.47
112.71
107.40
103.46
100.23
96.70
91.75
84.74
75.80
65.83
56.24
48.45
43.51
41.79
42.89
45.76
49.00
51.23
51.45
49.35
45.42
40.88
37.33
36.39
39.28
46.60
58.13
72.89
89.34
105.76
120.69
133.25
143.27
151.17
157.61
163.16
168.05
172.26
175.69
178.37
180.57
182.75
185.37
188.78
193.17
198.55
204.74
211.32
217.48
222.02
223.57
221.08
214.30
204.13
192.28
180.72
170.75
162.35
154.15
144.01
129.87
110.68
86.71
59.39
30.66
2.31
-24.41
-48.83
-70.67
-89.86
-106.57
-121.29
-134.87
-148.22
-161.85
-175.51
-188.17
-198.40
-205.13
-208.08
-207.85
-205.56
-202.18
-198.26
-193.84
-188.87
-183.43
-177.88
-172.58
-167.70
-163.01
-158.03
-152.35
-145.85
-138.88
-132.18
-126.74
-123.48
-123.04
-125.66
-131.11
-138.86
-148.25
-158.81
-170.44
-183.48
-198.50
-215.86
-235.46
-256.53
-277.79
-297.84
-315.62
-330.62
-342.92
-352.88
-360.87
-366.99
-371.03
-372.63
-371.39
-367.11
-359.74
-349.42
-336.40
-320.96
-303.43
-284.20
-263.78
-242.70
-221.44
-200.24
-178.96
-157.19
-134.42
-110.41
-85.50
-60.59
-36.97
-15.87
1.99
16.68
29.08
40.69
53.27
68.35
86.74
108.13
131.20
154.12
175.44
194.84
213.41
233.13
255.88
282.49
312.22
343.05
372.42
398.00
418.11
431.68
438.05
436.88
428.32
413.27
393.33
370.50
346.48
322.18
297.54
272.00
245.18
217.48
190.19
165.10
143.79
127.05
114.63
105.45
98.02
90.89
82.92
73.46
62.40
50.14
37.56
25.72
15.65
7.94
2.66
-0.70
-2.97
-5.04
-7.60
-11.11
-15.76
-21.48
-28.15
-35.51
-43.21
-50.78
-57.54
-62.70
-65.36
-64.81
-60.59
-52.65
-41.25
-26.88
-10.12
8.17
26.79
44.07
58.08
67.09
70.30
68.18
62.43
55.40
49.22
44.98
42.60
41.15
39.53
37.15
34.05
30.69
27.50
24.57
21.65
18.49
15.06
11.80
9.37
8.30
8.60
9.67
10.53
10.24
8.37
5.04
0.82
-3.76
-8.63
-14.43
-22.28
-33.39
-48.36
-66.89
-87.75
-109.07
-128.95
-145.84
-158.69
-166.95
-170.34
-168.73
-162.24
-151.35
-136.99
-120.52
-103.42
-87.01
-72.11
-59.00
-47.45
-36.96
-27.04
-17.29
-7.51
2.31
11.99
21.21
29.48
36.44
41.91
46.12
49.72
53.63
58.75
65.52
73.63
81.94
88.82
92.64
92.42
88.10
80.47
70.71
59.91
48.67
37.21
25.51
13.67
1.91
-9.59
-20.84
-32.20
-44.19
-57.19
-71.28
-86.05
-100.79
-114.67
-126.94
-137.03
-144.51
-149.00
-150.21
-147.89
-141.90
-132.34
-119.56
-104.28
-87.58
-70.83
-55.48
-42.77
-33.47
-27.72
-25.04
-24.58
-25.44
-26.97
-28.99
-31.58
-34.94
-39.24
-44.47
-50.50
-57.20
-64.42
-72.10
-80.22
-88.78
-97.77
-107.05
-116.18
-124.40
-130.62
-133.67
-132.59
-126.92
-116.86
-103.18
-87.04
-69.67
-52.24
-35.66
-20.58
-7.23
4.64
15.79
27.38
40.63
56.48
75.24
96.50
119.28
142.36
164.67
185.52
204.70
222.41
239.13
255.41
271.58
287.55
302.68
315.87
325.79
331.34
332.07
328.34
321.29
312.39
303.06
294.29
286.50
279.63
273.46
267.81
262.70
258.24
254.47
251.16
247.77
243.58
237.93
230.29
220.41
208.12
193.30
175.76
155.53
133.02
109.24
85.59
63.52
44.13
27.93
14.87
4.65
-3.09
-8.76
-12.95
-16.66
-21.33
-28.54
-39.43
-54.20
-71.92
-90.72
-108.40
-122.86
-132.61
-136.98
-136.15
-131.09
-123.43
-115.10
-107.98
-103.43
-101.98
-103.31
-106.38
-109.99
-113.17
-115.52
-117.06
-118.17
-119.28
-120.58
-122.11
-123.66
-124.99
-125.85
-126.14
-125.86
-125.21
-124.53
-124.25
-124.84
-126.62
-129.69
-133.83
-138.59
-143.39
-147.65
-150.97
-153.06
-153.87
-153.47
-152.12
-150.22
-148.15
-146.14
-144.04
-141.28
-137.03
-130.52
-121.35
-109.70
-96.27
-81.90
-67.33
-52.91
-38.75
-24.78
-11.10
2.05
14.22
24.90
33.69
40.37
44.90
47.44
48.26
47.73
46.18
43.92
41.08
37.83
34.23
30.43
26.52
22.60
18.63
14.53
10.16
5.40
0.18
-5.57
-11.88
-18.74
-26.04
-33.57
-41.02
-48.10
-54.60
-60.51
-66.05
-71.61
-77.63
-84.50
-92.52
-101.77
-111.98
-122.46
-132.12
-139.66
-143.96
-144.48
-141.51
-136.02
-129.38
-122.81
-117.09
-112.46
-108.83
-106.07
-104.20
-103.44
-103.95
-105.69
-108.33
-111.37
-114.23
-116.51
-118.01
-118.67
-118.56
-117.75
-116.20
-113.76
-110.17
-105.13
-98.48
-90.27
-80.84
-70.82
-60.91
-51.84
-44.11
-37.94
-33.28
-29.85
-27.25
-25.16
-23.45
-22.24
-21.86
-22.71
-25.03
-28.90
-34.18
-40.53
-47.45
-54.30
-60.10
-63.91
-64.81
-62.28
-56.38
-47.69
-36.94
-24.62
-10.89
4.06
19.62
34.33
46.23
53.60
55.85
53.91
49.87
46.07
44.06
44.09
45.39
46.84
47.74
48.14
48.56
49.47
50.91
52.41
53.29
53.01
51.43
48.73
45.40
41.84
38.23
34.51
30.59
26.58
22.88
19.97
18.09
16.92
15.64
13.32
9.39
4.11
-1.42
-5.62
-7.07
-4.88
1.06
10.29
22.06
35.59
50.17
65.09
79.69
93.36
105.65
116.44
125.95
134.63
142.94
151.02
158.44
164.39
168.01
168.81
167.08
163.81
160.47
158.32
158.09
159.64
162.26
165.02
167.24
168.75
169.79
170.89
172.54
174.97
178.01
181.20
183.86
185.32
185.10
183.03
179.40
174.94
170.92
168.96
170.57
176.43
185.56
195.15
200.98
198.76
185.55
160.73
126.26
85.93
44.26
5.35
-27.81
-53.65
-72.08
-84.50
-93.62
-102.95
-115.99
-135.09
-160.69
-191.14
-223.12
-252.64
-276.07
-290.96
-296.40
-293.02
-282.60
-267.60
-250.56
-233.73
-218.70
-206.28
-196.54
-188.96
-182.75
-177.15
-171.64
-166.05
-160.54
-155.43
-151.14
-148.04
-146.41
-146.29
-147.39
-148.98
-149.94
-148.99
-145.08
-137.75
-127.29
-114.62
-100.90
-87.11
-73.81
-61.10
-48.81
-36.77
-24.94
-13.46
-2.54
7.66
17.05
25.64
33.39
40.21
45.80
49.69
51.34
50.30
46.42
40.11
32.35
24.42
17.60
12.72
10.04
9.38
10.32
12.38
15.15
18.19
20.93
22.77
23.27
22.30
20.09
17.09
13.54
9.41
4.23
-2.54
-11.22
-21.58
-32.70
-43.14
-51.29
-55.76
-55.78
-51.42
-43.50
-33.28
-22.13
-11.09
-0.70
9.05
18.56
28.27
38.44
48.90
59.13
68.35
75.88
81.36
84.86
86.81
87.77
88.16
88.19
87.96
87.44
86.69
85.79
84.80
83.67
82.22
80.24
77.54
74.01
69.65
64.53
58.81
52.70
46.43
40.24
34.25
28.45
22.72
16.87
10.73
4.19
-2.82
-10.32
-18.20
-26.20
-33.76
-39.97
-43.73
-44.12
-40.75
-34.02
-25.00
-15.01
-5.24
3.62
11.48
18.58
25.24
31.56
37.43
42.56
46.72
49.79
51.84
53.03
53.56
53.57
53.12
52.24
50.92
49.24
47.22
44.95
42.44
39.66
36.56
33.13
29.41
25.52
21.64
17.91
14.42
11.17
8.06
4.96
1.72
-1.70
-5.37
-9.21
-13.25
-17.51
-22.14
-27.29
-32.98
-39.00
-44.77
-49.46
-52.13
-52.14
-49.27
-43.82
-36.48
-28.06
-19.23
-10.40
-1.71
6.78
14.91
22.45
29.03
34.29
38.05
40.32
41.29
41.31
40.74
39.87
38.94
38.12
37.49
37.11
36.86
36.56
35.88
34.63
32.72
30.27
27.58
24.94
22.52
20.28
18.07
15.63
12.87
9.78
6.54
3.30
0.17
-2.83
-5.76
-8.74
-11.90
-15.37
-19.28
-23.71
-28.57
-33.58
-38.15
-41.43
-42.48
-40.59
-35.52
-27.67
-18.02
-7.81
1.79
10.09
16.92
22.54
27.31
31.47
34.97
37.63
39.34
40.14
40.30
40.18
40.03
39.96
39.84
39.55
39.04
38.39
37.72
37.10
36.43
35.44
33.87
31.56
28.55
25.11
21.58
18.24
15.17
12.29
9.44
6.57
3.68
0.88
-1.72
-4.10
-6.33
-8.55
-11.00
-13.84
-17.15
-20.89
-24.78
-28.33
-30.86
-31.73
-30.49
-27.15
-22.10
-16.00
-9.61
-3.48
2.12
7.16
11.70
15.82
19.47
22.57
24.99
26.66
27.59
27.87
27.59
26.84
25.76
24.50
23.26
22.25
21.63
21.41
21.49
21.62
21.52
20.98
19.88
18.21
16.08
13.67
11.14
8.66
6.33
4.20
2.25
0.39
-1.51
-3.57
-5.89
-8.55
-11.51
-14.64
-17.68
-20.25
-21.93
-22.38
-21.38
-18.94
-15.25
-10.61
-5.36
0.23
5.91
11.46
16.63
21.19
24.93
27.78
29.78
31.07
31.79
32.00
31.74
31.00
29.81
28.28
26.58
24.91
23.41
22.12
21.01
19.99
18.92
17.71
16.30
14.66
12.82
10.81
8.63
6.28
3.75
1.05
-1.72
-4.48
-7.14
-9.68
-12.18
-14.79
-17.63
-20.71
-23.85
-26.76
-29.03
-30.29
-30.21
-28.60
-25.42
-20.79
-15.04
-8.57
-1.90
4.50
10.29
15.28
19.39
22.66
25.14
26.84
27.77
27.92
27.31
26.02
24.22
22.11
19.87
17.60
15.31
12.97
10.56
8.16
5.87
3.80
2.01
0.48
-0.89
-2.18
-3.44
-4.72
-6.03
-7.45
-9.07
-10.97
-13.18
-15.66
-18.27
-20.87
-23.31
-25.43
-27.16
-28.40
-29.11
-29.23
-28.69
-27.35
-25.12
-21.89
-17.67
-12.62
-6.97
-1.03
4.93
10.65
15.94
20.64
24.61
27.69
29.70
30.47
29.95
28.18
25.44
22.16
18.85
15.98
13.82
12.39
11.49
10.82
10.10
9.19
8.01
6.54
4.80
2.79
0.54
-1.88
-4.38
-6.89
-9.38
-11.82
-14.20
-16.51
-18.71
-20.80
-22.80
-24.76
-26.75
-28.77
-30.75
-32.51
-33.85
-34.50
-34.24
-32.81
-30.07
-26.02
-20.82
-14.75
-8.24
-1.74
4.33
9.62
13.94
17.22
19.54
21.05
21.95
22.39
22.40
21.97
21.11
19.90
18.54
17.26
16.24
15.52
14.96
14.36
13.51
12.29
10.67
8.74
6.64
4.55
2.57
0.75
-0.98
-2.77
-4.77
-7.06
-9.60
-12.27
-14.91
-17.35
-19.56
-21.48
-23.20
-24.79
-26.34
-27.90
-29.44
-30.88
-31.98
-32.44
-31.90
-30.07
-26.84
-22.39
-17.05
-11.33
-5.71
-0.53
4.02
7.94
11.23
13.88
15.86
17.10
17.64
17.58
17.05
16.17
15.01
13.54
11.76
9.65
7.25
4.66
2.02
-0.52
-2.84
-4.87
-6.61
-8.08
-9.35
-10.52
-11.61
-12.64
-13.58
-14.40
-15.07
-15.61
-16.08
-16.57
-17.18
-17.95
-18.90
-19.94
-21.02
-22.11
-23.25
-24.49
-25.83
-27.21
-28.48
-29.48
-30.03
-29.97
-29.12
-27.33
-24.45
-20.51
-15.64
-10.20
-4.63
0.59
5.17
8.94
11.90
14.18
15.91
17.20
18.11
18.70
19.01
19.13
19.10
18.96
18.70
18.28
17.65
16.82
15.84
14.79
13.73
12.67
11.57
10.39
9.13
7.79
6.44
5.10
3.78
2.44
1.08
-0.31
-1.74
-3.24
-4.85
-6.63
-8.55
-10.56
-12.52
-14.31
-15.81
-16.89
-17.37
-17.03
-15.67
-13.14
-9.49
-4.97
0.01
5.00
9.61
13.56
16.75
19.15
20.77
21.69
21.99
21.80
21.27
20.49
19.49
18.26
16.79
15.14
13.43
11.80
10.30
8.87
7.32
5.49
3.31
0.87
-1.63
-3.97
-6.05
-7.88
-9.50
-11.01
-12.43
-13.76
-15.03
-16.34
-17.83
-19.65
-21.84
-24.29
-26.77
-28.96
-30.56
-31.40
-31.38
-30.42
-28.50
-25.54
-21.50
-16.44
-10.55
-4.18
2.21
8.18
13.37
17.52
20.57
22.58
23.67
24.02
23.76
22.97
21.67
19.94
17.90
15.75
13.77
12.14
10.92
10.02
9.22
8.28
7.11
5.69
4.11
2.52
0.99
-0.43
-1.77
-3.06
-4.34
-5.68
-7.18
-8.91
-10.93
-13.20
-15.62
-18.08
-20.54
-23.03
-25.66
-28.40
-31.16
-33.68
-35.62
-36.68
-36.58
-35.16
-32.32
-28.06
-22.52
-16.08
-9.21
-2.44
3.81
9.36
14.18
18.35
21.94
24.89
26.99
28.04
27.92
26.61
24.26
21.14
17.59
14.01
10.77
8.16
6.36
5.34
4.92
4.84
4.86
4.78
4.53
4.07
3.37
2.41
1.19
-0.29
-1.97
-3.79
-5.75
-7.79
-9.88
-11.93
-13.86
-15.64
-17.36
-19.18
-21.27
-23.71
-26.41
-29.07
-31.35
-32.90
-33.40
-32.66
-30.53
-27.00
-22.23
-16.53
-10.38
-4.29
1.34
6.26
10.43
13.87
16.63
18.74
20.18
20.96
21.13
20.76
19.98
18.87
17.52
15.94
14.15
12.19
10.12
8.04
6.00
4.05
2.21
0.43
-1.29
-2.96
-4.65
-6.39
-8.22
-10.14
-12.13
-14.07
-15.85
-17.39
-18.69
-19.83
-20.89
-21.93
-22.94
-23.92
-24.93
-26.11
-27.60
-29.44
-31.49
-33.47
-35.05
-35.96
-36.07
-35.33
-33.71
-31.09
-27.34
-22.44
-16.58
-10.16
-3.71
2.31
7.62
12.16
16.00
19.19
21.69
23.39
24.20
24.14
23.38
22.21
20.88
19.60
18.49
17.55
16.70
15.87
14.97
13.95
12.82
11.63
10.43
9.33
8.36
7.49
6.63
5.65
4.48
3.15
1.75
0.36
-0.94
-2.20
-3.51
-4.98
-6.66
-8.55
-10.56
-12.53
-14.28
-15.52
-15.98
-15.41
-13.64
-10.65
-6.59
-1.68
3.78
9.48
15.11
20.32
24.78
28.27
30.72
32.22
32.95
33.09
32.71
31.86
30.54
28.87
27.05
25.29
23.73
22.34
21.01
19.57
17.95
16.17
14.32
12.45
10.56
8.62
6.62
4.57
2.50
0.47
-1.58
-3.71
-6.05
-8.64
-11.47
-14.45
-17.53
-20.69
-23.99
-27.44
-31.00
-34.47
-37.53
-39.77
-40.86
-40.52
-38.62
-35.17
-30.34
-24.45
-17.92
-11.29
-5.02
0.52
5.13
8.81
11.64
13.76
15.27
16.19
16.52
16.25
15.45
14.25
12.85
11.42
10.13
9.01
8.07
7.25
6.51
5.83
5.18
4.57
3.95
3.27
2.45
1.38
-0.05
-1.90
-4.20
-6.89
-9.79
-12.73
-15.51
-17.99
-20.13
-21.99
-23.69
-25.36
-27.05
-28.79
-30.46
-31.91
-32.96
-33.36
-32.89
-31.31
-28.46
-24.31
-19.02
-12.93
-6.49
-0.15
5.77
11.08
15.71
19.65
22.86
25.24
26.72
27.27
26.89
25.68
23.86
21.71
19.48
17.44
15.66
14.07
12.42
10.44
7.99
5.08
1.86
-1.45
-4.69
-7.74
-10.53
-12.99
-15.02
-16.50
-17.42
-17.91
-18.22
-18.64
-19.35
-20.34
-21.48
-22.62
-23.66
-24.62
-25.64
-26.81
-28.19
-29.73
-31.32
-32.72
-33.65
-33.74
-32.61
-29.93
-25.55
-19.61
-12.56
-5.01
2.38
9.10
14.89
19.72
23.72
27.05
29.87
32.23
34.09
35.38
36.00
35.95
35.34
34.33
33.07
31.69
30.18
28.47
26.51
24.27
21.82
19.29
16.78
14.32
11.91
9.50
7.09
4.75
2.64
0.89
-0.45
-1.53
-2.64
-4.14
-6.32
-9.30
-12.90
-16.80
-20.60
-23.97
-26.70
-28.65
-29.74
-29.79
-28.60
-26.01
-22.01
-16.76
-10.61
-4.00
2.71
9.21
15.30
20.85
25.65
29.51
32.21
33.67
33.94
33.28
32.05
30.56
29.06
27.57
26.02
24.32
22.44
20.43
18.40
16.49
14.80
13.29
11.88
10.47
8.95
7.21
5.18
2.84
0.24
-2.52
-5.27
-7.84
-10.17
-12.34
-14.51
-16.91
-19.66
-22.75
-26.05
-29.34
-32.40
-34.99
-36.91
-37.86
-37.52
-35.64
-32.15
-27.21
-21.19
-14.65
-8.13
-2.11
3.10
7.36
10.73
13.39
15.65
17.72
19.70
21.40
22.46
22.47
21.15
18.64
15.38
12.11
9.56
8.27
8.38
9.65
11.55
13.38
14.42
14.06
11.96
8.16
3.19
-2.14
-6.95
-10.60
-12.93
-14.28
-15.24
-16.38
-17.94
-19.84
-21.81
-23.63
-25.32
-27.07
-29.08
-31.39
-33.78
-35.82
-37.09
-37.25
-36.23
-34.16
-31.21
-27.59
-23.43
-18.88
-14.13
-9.41
-4.97
-1.03
2.28
4.92
6.86
8.10
8.66
8.62
8.11
7.33
6.47
5.67
4.99
4.49
4.17
4.03
4.03
4.05
3.95
3.61
3.02
2.23
1.38
0.54
-0.28
-1.13
-2.06
-3.13
-4.26
-5.42
-6.55
-7.63
-8.72
-9.86
-11.09
-12.46
-13.99
-15.67
-17.50
-19.41
-21.24
-22.82
-23.89
-24.17
-23.45
-21.57
-18.52
-14.42
-9.56
-4.28
1.06
6.22
11.07
15.55
19.66
23.30
26.31
28.53
29.87
30.33
30.06
29.22
27.99
26.53
24.99
23.56
22.40
21.66
21.32
21.27
21.25
20.99
20.29
19.06
17.42
15.60
13.88
12.52
11.64
11.18
10.93
10.56
9.75
8.29
6.16
3.45
0.35
-2.98
-6.43
-9.95
-13.53
-17.14
-20.77
-24.36
-27.79
-30.89
-33.34
-34.79
-34.84
-33.19
-29.76
-24.79
-18.73
-12.20
-5.73
0.39
6.05
11.32
16.27
20.85
24.91
28.25
30.72
32.27
32.94
32.75
31.76
29.99
27.54
24.63
21.58
18.66
16.09
13.93
12.06
10.32
8.58
6.79
4.96
3.16
1.34
-0.55
-2.63
-5.03
-7.72
-10.61
-13.47
-16.10
-18.39
-20.37
-22.25
-24.26
-26.61
-29.39
-32.53
-35.83
-38.99
-41.69
-43.65
-44.61
-44.33
-42.64
-39.42
-34.75
-28.85
-22.19
-15.33
-8.79
-2.95
2.03
6.13
9.41
11.87
13.51
14.37
14.61
14.47
14.22
14.04
14.00
14.03
14.01
13.85
13.51
13.01
12.37
11.59
10.66
9.58
8.39
7.18
6.05
5.07
4.24
3.53
2.83
2.08
1.22
0.27
-0.75
-1.83
-2.99
-4.25
-5.66
-7.28
-9.12
-11.16
-13.28
-15.24
-16.68
-17.18
-16.41
-14.22
-10.71
-6.21
-1.16
4.05
9.11
13.81
18.09
21.88
25.11
27.66
29.42
30.25
30.09
29.01
27.17
24.85
22.36
19.97
17.84
15.99
14.38
12.94
11.61
10.34
9.07
7.70
6.14
4.30
2.18
-0.16
-2.60
-5.02
-7.36
-9.50
-11.37
-12.92
-14.14
-15.12
-15.99
-16.92
-18.07
-19.55
-21.40
-23.62
-26.12
-28.67
-30.88
-32.24
-32.24
-30.46
-26.80
-21.42
-14.75
-7.35
0.21
7.46
14.04
19.75
24.56
28.52
31.71
34.23
36.12
37.34
37.85
37.53
36.27
34.02
30.81
26.80
22.28
17.60
13.06
8.88
5.11
1.66
-1.51
-4.41
-6.96
-9.04
-10.62
-11.82
-12.84
-13.86
-14.99
-16.15
-17.19
-17.93
-18.34
-18.55
-18.82
-19.40
-20.43
-21.90
-23.65
-25.47
-27.16
-28.59
-29.68
-30.27
-30.08
-28.71
-25.80
-21.17
-15.04
-7.94
-0.54
6.55
13.04
18.89
24.14
28.73
32.42
34.90
36.05
36.08
35.41
34.53
33.59
32.45
30.72
28.12
24.74
21.12
18.05
16.15
15.61
16.09
16.83
17.05
16.26
14.50
12.21
10.07
8.63
8.09
8.23
8.57
8.61
8.05
6.89
5.42
4.10
3.34
3.48
4.64
6.67
9.06
10.78
10.62
7.69
2.20
-4.10
-8.04
-5.82
5.69
27.85
59.62
97.97
138.87
178.39
213.54
242.51
264.45
279.01
286.08
285.69
278.12
263.99
244.34
220.48
193.83
165.77
137.39
109.56
82.98
58.18
35.63
15.54
-2.30
-18.78
-35.28
-53.28
-73.61
-95.83
-118.13
-137.78
-152.15
-159.60
-160.08
-154.90
-146.01
-135.39
-124.46
-114.31
-105.87
-100.16
-98.27
-100.98
-108.41
-119.83
-133.87
-148.81
-162.96
-174.83
-183.23
-187.18
-186.12
-180.00
-169.52
-156.22
-142.05
-128.93
-117.93
-108.97
-100.79
-91.62
-79.94
-65.14
-47.72
-28.94
-10.28
7.19
22.95
37.04
49.78
61.60
72.94
84.33
96.43
109.86
124.99
141.64
158.89
175.24
188.83
198.01
201.71
199.66
192.34
180.72
166.00
149.41
132.08
114.87
98.25
82.17
66.07
49.05
30.33
9.62
-12.62
-35.13
-56.26
-74.29
-87.84
-96.12
-98.95
-96.74
-90.39
-81.11
-70.22
-58.90
-48.05
-38.20
-29.75
-23.09
-18.79
-17.60
-20.14
-26.51
-35.87
-46.46
-55.78
-61.27
-61.01
-54.24
-41.71
-25.37
-7.89
8.00
20.27
27.97
31.31
31.42
29.83
27.79
25.90
23.89
20.90
16.01
8.64
-1.21
-13.04
-26.13
-39.88
-53.84
-67.58
-80.47
-91.54
-99.78
-104.48
-105.58
-103.63
-99.54
-94.19
-88.35
-82.69
-77.83
-74.24
-71.85
-69.74
-66.23
-59.28
-47.33
-29.83
-7.51
18.06
45.11
72.27
98.87
124.81
150.40
175.98
201.64
226.90
250.38
269.95
283.12
287.93
283.74
271.65
254.23
234.62
215.37
197.68
181.30
165.00
147.29
127.18
104.33
78.89
51.11
21.10
-11.15
-45.61
-82.00
-119.85
-158.84
-198.99
-240.40
-282.69
-324.28
-362.10
-392.28
-411.41
-417.82
-412.22
-397.17
-375.90
-350.98
-323.77
-294.75
-264.29
-233.36
-203.47
-176.16
-152.39
-132.16
-114.82
-99.55
-85.91
-73.98
-64.16
-56.75
-51.58
-47.95
-44.75
-40.98
-36.06
-30.05
-23.60
-17.53
-12.49
-8.75
-6.16
-4.33
-2.84
-1.38
0.24
2.07
4.08
6.10
7.77
8.61
8.16
6.19
2.76
-1.58
-6.04
-9.59
-11.39
-10.87
-7.97
-3.13
2.80
8.81
14.05
18.13
21.24
24.07
27.53
32.34
38.76
46.43
54.52
62.03
67.98
71.72
72.99
71.89
68.84
64.44
59.34
54.16
49.32
44.97
41.07
37.47
33.92
30.16
25.88
20.67
14.18
6.22
-3.04
-13.07
-23.01
-32.02
-39.39
-44.77
-48.14
-49.72
-49.92
-49.23
-48.20
-47.36
-47.18
-47.88
-49.45
-51.68
-54.16
-56.39
-57.79
-57.80
-55.90
-51.80
-45.47
-37.24
-27.66
-17.44
-7.17
2.72
11.97
20.49
28.18
35.02
40.98
46.10
50.47
54.27
57.62
60.64
63.36
65.76
67.80
69.49
70.95
72.40
74.13
76.39
79.19
82.24
84.92
86.44
86.05
83.43
78.76
72.71
66.16
59.79
53.88
48.22
42.32
35.66
28.06
19.72
11.12
2.82
-4.86
-11.88
-18.56
-25.30
-32.48
-40.17
-48.17
-55.99
-62.98
-68.54
-72.21
-73.74
-73.04
-70.21
-65.35
-58.69
-50.60
-41.54
-32.07
-22.74
-13.90
-5.71
1.80
8.67
14.80
19.95
23.87
26.37
27.51
27.60
27.08
26.29
25.45
24.58
23.59
22.48
21.31
20.16
19.08
17.98
16.67
14.98
12.82
10.28
7.56
4.84
2.20
-0.40
-3.02
-5.69
-8.36
-10.94
-13.41
-15.77
-18.22
-20.93
-24.10
-27.76
-31.68
-35.42
-38.33
-39.72
-38.99
-35.96
-30.79
-24.08
-16.52
-8.77
-1.25
5.93
12.80
19.40
25.65
31.32
36.16
39.97
42.71
44.43
45.31
45.49
45.13
44.31
43.15
41.77
40.28
38.81
37.40
36.03
34.61
33.02
31.16
29.02
26.67
24.21
21.80
19.54
17.49
15.57
13.66
11.59
9.27
6.67
3.87
0.98
-1.92
-4.81
-7.77
-10.95
-14.50
-18.48
-22.83
-27.26
-31.31
-34.37
-35.87
-35.41
-32.88
-28.52
-22.75
-16.14
-9.19
-2.32
4.25
10.38
16.04
21.21
25.87
29.92
33.24
35.71
37.29
38.10
38.30
38.13
37.72
37.13
36.34
35.34
34.16
32.87
31.54
30.14
28.59
26.77
24.63
22.18
19.52
16.81
14.17
11.67
9.32
7.04
4.77
2.45
0.07
-2.32
-4.72
-7.19
-9.86
-12.92
-16.45
-20.33
-24.21
-27.50
-29.56
-29.93
-28.44
-25.24
-20.75
-15.46
-9.83
-4.20
1.25
6.44
11.33
15.88
19.98
23.52
26.30
28.22
29.23
29.46
29.11
28.42
27.58
26.65
25.69
24.72
23.78
22.94
22.27
21.75
21.23
20.56
19.54
18.04
16.07
13.72
11.14
8.52
5.91
3.30
0.64
-2.16
-5.01
-7.77
-10.23
-12.22
-13.77
-15.10
-16.59
-18.62
-21.42
-24.87
-28.51
-31.65
-33.51
-33.49
-31.32
-27.10
-21.26
-14.50
-7.50
-0.85
5.10
10.27
14.72
18.57
21.91
24.78
27.11
28.92
30.22
31.05
31.49
31.61
31.43
31.01
30.37
29.56
28.64
27.64
26.56
25.38
24.04
22.48
20.70
18.73
16.71
14.81
13.18
11.86
10.75
9.62
8.25
6.50
4.36
2.02
-0.33
-2.49
-4.47
-6.38
-8.43
-10.84
-13.73
-17.03
-20.44
-23.51
-25.73
-26.65
-26.02
-23.83
-20.33
-15.94
-11.13
-6.28
-1.67
2.59
6.48
10.04
13.26
16.01
18.22
19.75
20.57
20.72
20.33
19.54
18.53
17.43
16.37
15.47
14.83
14.42
14.14
13.81
13.26
12.36
11.09
9.48
7.67
5.81
4.05
2.56
1.40
0.48
-0.40
-1.48
-2.96
-4.86
-7.05
-9.29
-11.35
-13.15
-14.74
-16.26
-17.92
-19.94
-22.42
-25.29
-28.25
-30.77
-32.28
-32.31
-30.65
-27.47
-23.23
-18.45
-13.62
-9.05
-4.85
-1.04
2.37
5.41
8.05
10.30
12.22
13.84
15.19
16.21
16.84
17.03
16.80
16.23
15.42
14.46
13.36
12.10
10.68
9.17
7.64
6.18
4.76
3.23
1.44
-0.72
-3.18
-5.75
-8.15
-10.21
-11.90
-13.35
-14.68
-15.92
-16.99
-17.72
-18.07
-18.15
-18.27
-18.74
-19.81
-21.57
-23.85
-26.33
-28.55
-30.00
-30.28
-29.09
-26.34
-22.17
-16.87
-10.82
-4.46
1.87
7.87
13.33
18.05
21.96
25.08
27.52
29.45
30.99
32.18
32.99
33.37
33.32
32.89
32.14
31.11
29.80
28.13
26.03
23.53
20.76
17.92
15.19
12.69
10.48
8.55
6.92
5.60
4.60
3.85
3.25
2.61
1.79
0.65
-0.76
-2.32
-3.83
-5.10
-6.04
-6.70
-7.30
-8.11
-9.42
-11.31
-13.60
-15.88
-17.64
-18.40
-17.93
-16.27
-13.68
-10.48
-6.95
-3.28
0.40
3.97
7.27
10.22
12.74
14.89
16.73
18.26
19.43
20.15
20.39
20.22
19.78
19.24
18.72
18.21
17.64
16.93
16.09
15.19
14.29
13.41
12.56
11.73
10.97
10.35
9.97
9.85
9.93
10.05
10.03
9.80
9.35
8.83
8.41
8.26
8.45
8.94
9.60
10.28
10.91
11.54
12.33
13.55
15.52
18.50
22.72
28.36
35.56
44.32
54.41
65.34
76.32
86.51
95.20
102.11
107.48
111.98
116.54
121.96
128.51
135.54
141.28
143.04
137.67
122.46
96.03
58.92
13.59
-36.16
-86.06
-132.19
-171.45
-201.77
-222.03
-232.14
-232.95
-226.24
-214.42
-200.05
-185.30
-171.54
-159.20
-148.03
-137.48
-127.04
-116.54
-106.14
-96.23
-87.28
-79.54
-72.91
-66.94
-60.93
-54.19
-46.37
-37.52
-28.07
-18.64
-9.73
-1.61
5.66
12.14
17.85
22.70
26.62
29.58
31.67
33.08
34.03
34.70
35.17
35.43
35.39
35.04
34.39
33.51
32.48
31.32
29.99
28.40
26.45
24.15
21.59
18.96
16.41
14.01
11.78
9.69
7.70
5.83
4.03
2.22
0.25
-2.05
-4.72
-7.70
-10.78
-13.71
-16.24
-18.10
-19.08
-19.00
-17.77
-15.47
-12.32
-8.65
-4.78
-0.93
2.78
6.31
9.60
12.55
15.06
17.00
18.39
19.24
19.68
19.83
19.77
19.59
19.31
18.93
18.39
17.70
16.86
15.96
15.06
14.23
13.41
12.50
11.31
9.70
7.64
5.25
2.76
0.48
-1.40
-2.87
-4.08
-5.33
-6.84
-8.71
-10.86
-13.07
-15.10
-16.88
-18.42
-19.75
-20.82
-21.44
-21.32
-20.18
-17.94
-14.74
-10.99
-7.10
-3.41
-0.05
3.01
5.94
8.81
11.62
14.23
16.44
18.16
19.40
20.26
20.88
21.41
21.80
21.98
21.80
21.18
20.14
18.85
17.48
16.24
15.21
14.35
13.51
12.55
11.36
9.99
8.54
7.17
5.99
4.97
4.03
2.98
1.67
-0.01
-2.07
-4.43
-6.98
-9.55
-11.96
-13.90
-15.02
-14.97
-13.57
-10.84
-6.99
-2.48
2.20
6.61
10.42
13.52
15.96
17.93
19.68
21.37
23.02
24.50
25.57
26.08
26.00
25.50
24.78
23.97
23.11
22.10
20.86
19.32
17.53
15.53
13.31
10.82
7.98
4.80
1.44
-1.79
-4.53
-6.52
-7.65
-8.04
-7.93
-7.58
-7.21
-6.94
-6.86
-7.05
-7.60
-8.60
-9.96
-11.45
-12.74
-13.42
-13.16
-11.84
-9.52
-6.37
-2.74
1.04
4.67
7.92
10.71
13.05
15.00
16.58
17.78
18.54
18.81
18.58
17.90
16.88
15.64
14.30
12.99
11.83
10.87
10.12
9.52
9.00
8.51
8.06
7.64
7.19
6.60
5.72
4.47
2.82
0.84
-1.33
-3.51
-5.62
-7.55
-9.32
-11.02
-12.76
-14.62
-16.62
-18.63
-20.34
-21.45
-21.65
-20.80
-18.95
-16.29
-13.10
-9.65
-6.16
-2.74
0.49
3.43
5.91
7.76
8.89
9.35
9.29
8.97
8.57
8.15
7.64
6.95
6.00
4.86
3.61
2.34
1.09
-0.11
-1.30
-2.41
-3.40
-4.24
-4.97
-5.70
-6.57
-7.69
-9.07
-10.68
-12.38
-13.99
-15.33
-16.25
-16.73
-16.84
-16.71
-16.58
-16.57
-16.78
-17.17
-17.61
-17.87
-17.60
-16.44
-14.01
-10.15
-4.86
1.53
8.47
15.35
21.69
27.17
31.69
35.29
37.99
39.81
40.69
40.65
39.74
38.14
36.15
33.99
31.83
29.69
27.43
24.91
22.06
18.95
15.78
12.79
10.12
7.80
5.71
3.66
1.51
-0.76
-3.04
-5.18
-6.99
-8.37
-9.27
-9.71
-9.75
-9.46
-8.98
-8.46
-8.09
-8.01
-8.35
-9.12
-10.33
-11.98
-14.05
-16.44
-18.96
-21.29
-23.09
-24.12
-24.24
-23.52
-22.08
-20.09
-17.68
-14.90
-11.82
-8.50
-5.09
-1.74
1.41
4.26
6.76
8.93
10.80
12.34
13.51
14.20
14.37
14.05
13.39
12.62
11.97
11.60
11.55
11.74
11.98
12.11
11.91
11.24
10.02
8.25
6.04
3.48
0.76
-2.00
-4.63
-7.04
-9.11
-10.75
-11.99
-12.86
-13.48
-14.02
-14.64
-15.50
-16.65
-18.09
-19.70
-21.34
-22.84
-24.04
-24.76
-24.82
-24.05
-22.35
-19.69
-16.22
-12.24
-8.18
-4.42
-1.22
1.33
3.33
4.99
6.52
8.16
9.97
11.87
13.65
15.02
15.72
15.61
14.79
13.52
12.15
10.95
10.09
9.57
9.27
9.09
8.90
8.60
8.07
7.19
5.88
4.14
2.08
-0.08
-2.13
-3.93
-5.45
-6.80
-8.10
-9.45
-10.88
-12.34
-13.77
-15.14
-16.49
-17.93
-19.55
-21.37
-23.30
-25.13
-26.56
-27.28
-27.06
-25.78
-23.44
-20.20
-16.32
-12.11
-7.93
-4.08
-0.76
1.97
4.19
6.04
7.72
9.32
10.86
12.33
13.65
14.78
15.73
16.49
17.15
17.86
18.73
19.87
21.30
22.90
24.39
25.43
25.72
25.09
23.58
21.42
18.92
16.39
14.07
12.14
10.72
9.85
9.48
9.40
9.30
8.75
7.46
5.25
2.25
-1.23
-4.83
-8.26
-11.45
-14.43
-17.26
-19.93
-22.29
-24.11
-25.13
-25.24
-24.44
-22.84
-20.58
-17.75
-14.50
-11.01
-7.55
-4.46
-2.03
-0.40
0.42
0.61
0.40
-0.04
-0.58
-1.17
-1.72
-2.12
-2.24
-1.93
-1.15
0.09
1.64
3.35
5.06
6.61
7.87
8.74
9.19
9.24
8.95
8.41
7.70
6.86
5.86
4.69
3.36
1.93
0.49
-0.85
-2.09
-3.27
-4.49
-5.86
-7.43
-9.18
-11.08
-13.02
-14.86
-16.46
-17.62
-18.20
-18.03
-17.00
-15.14
-12.59
-9.61
-6.51
-3.56
-1.00
1.04
2.44
3.13
2.99
1.89
-0.14
-2.94
-6.07
-8.96
-11.07
-12.04
-11.76
-10.45
-8.48
-6.31
-4.30
-2.73
-1.65
-1.03
-0.74
-0.60
-0.48
-0.33
-0.15
-0.01
0.01
-0.11
-0.39
-0.81
-1.35
-2.02
-2.86
-3.94
-5.35
-7.17
-9.38
-11.83
-14.17
-16.01
-16.95
-16.74
-15.36
-13.04
-10.13
-6.99
-3.90
-1.02
1.60
3.98
6.18
8.23
10.14
11.82
13.13
13.89
14.01
13.50
12.56
11.46
10.45
9.72
9.27
9.00
8.77
8.46
7.97
7.30
6.48
5.56
4.57
3.52
2.42
1.28
0.19
-0.81
-1.69
-2.50
-3.36
-4.39
-5.65
-7.12
-8.70
-10.30
-11.91
-13.63
-15.59
-17.83
-20.22
-22.40
-23.90
-24.30
-23.26
-20.66
-16.62
-11.41
-5.48
0.66
6.48
11.50
15.41
18.16
19.97
21.24
22.47
23.98
25.84
27.87
29.78
31.24
32.09
32.33
32.04
31.24
29.91
27.97
25.41
22.38
19.14
16.01
13.22
10.84
8.75
6.69
4.40
1.63
-1.71
-5.48
-9.32
-12.66
-14.81
-15.25
-13.82
-10.90
-7.33
-4.15
-2.23
-1.96
-3.19
-5.31
-7.47
-8.84
-8.77
-6.90
-3.07
2.64
9.98
18.52
27.67
36.67
44.66
50.76
54.22
54.57
51.72
45.97
38.01
28.74
19.22
10.40
3.13
-2.13
-5.28
-6.70
-6.96
-6.63
-6.01
-5.07
-3.63
-1.68
0.41
1.86
1.75
-0.68
-5.74
-13.16
-22.10
-31.39
-39.72
-45.90
-49.14
-49.16
-46.20
-41.02
-34.65
-28.36
-23.42
-20.91
-21.44
-24.90
-30.30
-36.00
-40.12
-41.09
-38.10
-31.26
-21.51
-10.24
1.05
11.05
18.85
23.96
26.45
26.78
25.72
24.15
22.75
21.95
21.89
22.45
23.38
24.42
25.28
25.76
25.70
24.99
23.59
21.57
19.10
16.37
13.62
10.99
8.52
6.19
3.89
1.54
-0.93
-3.57
-6.36
-9.30
-12.33
-15.46
-18.62
-21.81
-25.00
-28.17
-31.20
-33.96
-36.23
-37.77
-38.28
-37.45
-35.05
-30.96
-25.28
-18.38
-10.81
-3.25
3.70
9.63
14.37
17.92
20.39
21.91
22.55
22.42
21.65
20.41
18.97
17.56
16.32
15.26
14.22
12.94
11.19
8.89
6.16
3.30
0.66
-1.52
-3.19
-4.50
-5.72
-7.07
-8.68
-10.52
-12.52
-14.57
-16.62
-18.63
-20.59
-22.48
-24.31
-26.08
-27.87
-29.77
-31.85
-34.04
-36.07
-37.51
-37.82
-36.53
-33.47
-28.77
-22.87
-16.34
-9.71
-3.39
2.43
7.56
11.94
15.46
18.07
19.81
20.84
21.40
21.73
21.96
22.10
22.12
21.93
21.58
21.22
21.09
21.38
22.19
23.40
24.71
25.78
26.41
26.64
26.79
27.28
28.43
30.25
32.43
34.46
35.97
36.91
37.71
39.14
41.95
46.49
52.57
59.54
66.63
73.47
80.25
87.72
96.80
108.24
122.25
138.58
156.61
175.40
193.55
208.89
218.49
219.04
207.77
183.60
147.88
104.45
58.73
16.37
-17.94
-40.92
-50.53
-45.59
-25.78
7.65
50.99
97.65
139.37
168.50
180.81
176.87
161.38
140.52
118.74
96.86
72.44
41.79
2.35
-45.75
-99.79
-155.27
-206.97
-249.85
-279.56
-293.25
-290.45
-273.51
-247.18
-216.98
-187.32
-160.32
-135.85
-112.57
-89.38
-66.00
-42.97
-21.06
-0.86
17.14
32.32
43.74
50.49
52.17
49.24
43.08
35.53
28.36
22.83
19.47
18.14
18.19
18.78
19.09
18.59
17.07
14.63
11.51
7.92
3.96
-0.40
-5.23
-10.53
-16.19
-22.05
-27.96
-33.84
-39.72
-45.69
-51.92
-58.56
-65.65
-73.07
-80.55
-87.60
-93.70
-98.44
-101.53
-102.91
-102.75
-101.37
-99.13
-96.33
-93.08
-89.32
-84.90
-79.66
-73.59
-66.92
-60.13
-53.92
-49.06
-46.23
-45.85
-47.90
-51.88
-56.95
-62.16
-66.67
-69.94
-71.69
-71.80
-70.25
-67.05
-62.35
-56.50
-50.07
-43.68
-37.95
-33.31
-29.99
-28.06
-27.59
-28.60
-31.12
-35.11
-40.39
-46.67
-53.48
-60.32
-66.63
-71.94
-75.91
-78.43
-79.57
-79.49
-78.42
-76.47
-73.68
-70.08
-65.72
-60.69
-55.10
-49.01
-42.42
-35.37
-27.95
-20.42
-13.15
-6.50
-0.72
4.15
8.18
11.56
14.39
16.63
18.17
18.88
18.75
17.93
16.73
15.47
14.44
13.74
13.37
13.25
13.38
13.85
14.71
15.97
17.55
19.38
21.60
24.63
29.07
35.44
43.76
53.40
63.16
71.69
78.00
81.82
83.63
84.36
84.79
85.19
85.10
83.45
78.96
70.63
58.11
41.83
22.84
2.55
-17.53
-35.92
-51.20
-62.01
-67.13
-65.60
-56.91
-41.10
-18.83
8.72
39.98
72.94
105.10
133.46
154.66
165.58
164.17
150.28
126.04
95.60
63.95
35.62
13.49
-1.64
-10.66
-15.20
-16.78
-16.43
-14.89
-12.91
-11.51
-11.82
-14.60
-19.91
-27.00
-34.66
-41.72
-47.46
-51.80
-55.12
-57.88
-60.41
-62.74
-64.62
-65.79
-66.13
-65.79
-65.18
-64.81
-65.13
-66.36
-68.40
-70.79
-72.85
-73.85
-73.12
-70.34
-65.61
-59.39
-52.37
-45.20
-38.32
-31.82
-25.62
-19.49
-13.37
-7.32
-1.56
3.63
8.09
11.78
14.75
17.14
19.10
20.70
21.96
22.90
23.58
24.09
24.51
24.87
25.13
25.17
24.82
23.95
22.57
20.78
18.75
16.70
14.75
12.93
11.14
9.28
7.26
5.11
2.90
0.75
-1.21
-2.99
-4.69
-6.51
-8.69
-11.46
-14.96
-19.13
-23.77
-28.44
-32.60
-35.72
-37.35
-37.29
-35.59
-32.46
-28.22
-23.15
-17.43
-11.20
-4.55
2.41
9.46
16.32
22.66
28.15
32.52
35.66
37.60
38.48
38.54
37.99
37.01
35.78
34.47
33.24
32.21
31.39
30.66
29.82
28.69
27.16
25.25
23.05
20.62
17.97
15.08
11.98
8.76
5.53
2.46
-0.40
-3.07
-5.62
-8.14
-10.75
-13.50
-16.48
-19.73
-23.12
-26.31
-28.78
-29.97
-29.39
-26.93
-22.75
-17.32
-11.21
-4.96
0.98
6.37
11.11
15.23
18.77
21.78
24.24
26.05
27.13
27.46
27.16
26.47
25.60
24.70
23.77
22.73
21.48
20.05
18.50
16.96
15.51
14.16
12.89
11.70
10.60
9.56
8.55
7.44
6.11
4.52
2.66
0.64
-1.45
-3.58
-5.85
-8.37
-11.28
-14.60
-18.14
-21.60
-24.53
-26.47
-27.03
-25.96
-23.21
-18.94
-13.46
-7.18
-0.54
6.08
12.43
18.36
23.80
28.74
33.12
36.82
39.78
41.97
43.46
44.39
44.89
45.03
44.87
44.40
43.65
42.67
41.56
40.40
39.14
37.68
35.89
33.67
31.05
28.18
25.27
22.45
19.75
17.04
14.13
10.89
7.32
3.54
-0.19
-3.65
-6.73
-9.50
-12.18
-15.07
-18.46
-22.37
-26.48
-30.14
-32.56
-33.01
-31.14
-27.02
-21.19
-14.40
-7.35
-0.52
5.88
11.82
17.41
22.65
27.52
31.90
35.67
38.65
40.71
41.73
41.66
40.56
38.61
36.05
33.14
30.19
27.40
24.94
22.93
21.41
20.32
19.51
18.74
17.80
16.56
15.04
13.34
11.60
9.92
8.26
6.55
4.68
2.62
0.38
-1.99
-4.41
-6.89
-9.43
-12.09
-14.92
-17.97
-21.18
-24.45
-27.54
-30.06
-31.59
-31.68
-30.00
-26.44
-21.15
-14.55
-7.18
0.33
7.51
14.06
19.91
25.04
29.44
33.06
35.78
37.55
38.36
38.30
37.49
36.06
34.10
31.69
28.99
26.21
23.59
21.36
19.61
18.25
17.12
16.01
14.80
13.41
11.88
10.30
8.76
7.33
5.99
4.68
3.34
1.94
0.49
-0.96
-2.30
-3.54
-4.71
-5.97
-7.52
-9.53
-12.07
-15.05
-18.29
-21.53
-24.60
-27.32
-29.55
-31.09
-31.67
-31.01
-28.86
-25.15
-19.99
-13.79
-7.01
-0.15
6.38
12.38
17.77
22.54
26.63
29.91
32.20
33.33
33.28
32.17
30.35
28.16
25.94
23.83
21.88
20.06
18.32
16.71
15.30
14.15
13.24
12.42
11.50
10.33
8.81
7.02
5.13
3.31
1.66
0.13
-1.41
-3.12
-5.09
-7.28
-9.57
-11.84
-14.02
-16.13
-18.21
-20.30
-22.35
-24.31
-26.12
-27.84
-29.57
-31.44
-33.53
-35.73
-37.81
-39.39
-40.08
-39.49
-37.39
-33.67
-28.47
-22.12
-15.11
-8.03
-1.37
4.50
9.43
13.38
16.44
18.63
19.93
20.38
19.99
18.91
17.36
15.61
13.90
12.47
11.46
10.93
10.91
11.31
12.02
12.83
13.50
13.79
13.59
12.90
11.83
10.58
9.32
8.18
7.14
6.14
5.09
3.94
2.67
1.30
-0.12
-1.57
-3.03
-4.51
-6.05
-7.73
-9.63
-11.81
-14.19
-16.60
-18.83
-20.59
-21.60
-21.70
-20.76
-18.73
-15.65
-11.66
-7.01
-2.06
2.78
7.15
10.78
13.50
15.29
16.22
16.43
16.08
15.35
14.42
13.44
12.52
11.68
10.92
10.22
9.61
9.17
9.00
9.14
9.48
9.85
10.04
9.99
9.81
9.78
10.26
11.44
13.31
15.63
17.99
19.94
21.10
21.18
20.04
17.67
14.18
9.81
4.89
-0.20
-5.00
-9.16
-12.37
-14.50
-15.50
-15.43
-14.41
-12.59
-10.16
-7.34
-4.40
-1.61
0.79
2.61
3.78
4.32
4.33
4.05
3.93
4.43
6.07
9.12
13.46
18.63
23.88
28.50
31.95
34.04
34.77
34.30
32.75
30.16
26.58
22.07
16.80
11.02
5.05
-0.82
-6.28
-11.09
-15.06
-18.14
-20.49
-22.36
-24.13
-26.14
-28.67
-31.85
-35.64
-39.95
-44.44
-48.73
-52.31
-54.69
-55.43
-54.31
-51.32
-46.66
-40.72
-33.91
-26.68
-19.47
-12.65
-6.53
-1.28
3.04
6.53
9.34
11.67
13.62
15.20
16.38
17.07
17.27
17.02
16.47
15.80
15.14
14.59
14.14
13.70
13.12
12.23
10.87
8.97
6.61
4.06
1.68
-0.12
-1.10
-1.25
-0.80
-0.17
0.22
0.04
-0.83
-2.38
-4.47
-6.93
-9.61
-12.38
-15.12
-17.69
-19.95
-21.66
-22.53
-22.32
-20.86
-18.15
-14.43
-10.02
-5.30
-0.61
3.83
7.86
11.36
14.15
16.06
16.99
16.94
16.06
14.63
12.90
11.14
9.46
7.94
6.58
5.39
4.36
3.47
2.67
1.91
1.15
0.33
-0.53
-1.41
-2.27
-3.10
-3.97
-4.95
-6.14
-7.53
-9.06
-10.56
-11.90
-13.03
-13.97
-14.84
-15.76
-16.78
-17.91
-19.14
-20.52
-22.13
-24.04
-26.10
-27.99
-29.23
-29.32
-27.96
-25.07
-20.88
-15.73
-10.08
-4.29
1.27
6.36
10.77
14.39
17.19
19.27
20.74
21.66
22.02
21.74
20.77
19.13
16.99
14.63
12.41
10.58
9.31
8.60
8.28
8.14
7.94
7.48
6.68
5.58
4.35
3.26
2.62
2.69
3.55
5.03
6.72
8.15
8.85
8.69
7.80
6.57
5.44
4.67
4.27
4.03
3.71
3.13
2.33
1.50
0.89
0.65
0.90
1.66
2.95
4.80
7.18
9.97
12.91
15.63
17.77
19.13
19.70
19.66
19.22
18.50
17.45
15.93
13.77
11.01
7.86
4.64
1.63
-1.08
-3.64
-6.29
-9.21
-12.34
-15.38
-17.88
-19.41
-19.80
-19.12
-17.68
-15.88
-14.09
-12.54
-11.30
-10.37
-9.71
-9.27
-9.11
-9.31
-9.93
-10.98
-12.35
-13.79
-14.98
-15.58
-15.28
-13.97
-11.72
-8.75
-5.36
-1.90
1.32
4.12
6.38
8.11
9.44
10.47
11.35
12.17
12.91
13.49
13.79
13.74
13.39
12.85
12.24
11.66
11.15
10.62
10.02
9.25
8.30
7.21
6.07
4.91
3.80
2.72
1.68
0.69
-0.27
-1.25
-2.38
-3.78
-5.63
-7.98
-10.75
-13.76
-16.69
-19.34
-21.58
-23.48
-25.17
-26.82
-28.48
-30.12
-31.52
-32.34
-32.20
-30.77
-27.82
-23.44
-17.97
-12.04
-6.32
-1.35
2.70
5.98
8.88
11.77
14.83
17.94
20.78
22.97
24.22
24.39
23.53
21.77
19.36
16.63
13.87
11.36
9.32
7.76
6.63
5.72
4.78
3.51
1.68
-0.91
-4.21
-8.09
-12.20
-16.18
-19.69
-22.51
-24.58
-25.96
-26.78
-27.18
-27.32
-27.35
-27.40
-27.56
-27.97
-28.64
-29.56
-30.64
-31.72
-32.53
-32.82
-32.23
-30.47
-27.37
-22.96
-17.50
-11.47
-5.35
0.43
5.66
10.29
14.40
17.96
20.91
23.06
24.26
24.49
23.85
22.52
20.72
18.61
16.36
14.16
12.20
10.64
9.60
9.04
8.79
8.65
8.39
7.89
7.11
6.12
4.95
3.69
2.38
1.05
-0.25
-1.53
-2.79
-4.05
-5.38
-6.86
-8.54
-10.45
-12.61
-14.94
-17.26
-19.33
-20.80
-21.31
-20.60
-18.50
-15.08
-10.62
-5.54
-0.33
4.63
9.07
12.92
16.16
18.82
20.86
22.21
22.83
22.80
22.34
21.74
21.30
21.13
21.26
21.57
21.93
22.29
22.61
22.87
22.98
22.79
22.10
20.75
18.68
15.91
12.59
8.95
5.18
1.39
-2.35
-5.99
-9.39
-12.26
-14.24
-15.01
-14.57
-13.34
-12.04
-11.47
-12.13
-13.99
-16.53
-18.95
-20.52
-20.76
-19.59
-17.07
-13.36
-8.60
-2.94
3.32
9.69
15.56
20.36
23.77
25.80
26.71
26.82
26.36
25.34
23.64
21.10
17.70
13.61
9.15
4.70
0.60
-2.92
-5.72
-7.70
-8.92
-9.47
-9.50
-9.20
-8.69
-8.02
-7.10
-5.81
-4.08
-2.01
0.12
1.90
3.01
3.27
2.72
1.56
-0.01
-1.87
-4.07
-6.69
-9.72
-12.99
-16.14
-18.73
-20.38
-20.92
-20.34
-18.77
-16.40
-13.43
-10.05
-6.48
-2.97
0.22
2.85
4.81
6.13
6.97
7.55
8.00
8.37
8.52
8.29
7.54
6.28
4.64
2.84
1.02
-0.75
-2.45
-4.11
-5.67
-7.01
-7.98
-8.48
-8.56
-8.31
-7.87
-7.31
-6.66
-5.94
-5.20
-4.58
-4.23
-4.33
-4.93
-6.01
-7.46
-9.16
-11.05
-13.18
-15.55
-18.11
-20.65
-22.78
-24.06
-24.10
-22.70
-19.87
-15.83
-10.86
-5.33
0.45
6.18
11.47
15.98
19.44
21.78
23.16
23.95
24.46
24.82
24.91
24.38
22.93
20.37
16.88
12.80
8.62
4.79
1.55
-0.96
-2.78
-4.06
-5.05
-6.07
-7.37
-9.13
-11.36
-13.87
-16.34
-18.46
-19.94
-20.71
-20.94
-20.91
-20.98
-21.40
-22.24
-23.40
-24.72
-26.06
-27.40
-28.82
-30.38
-32.02
-33.46
-34.31
-34.13
-32.69
-29.92
-25.95
-21.02
-15.39
-9.35
-3.16
2.88
8.52
13.56
17.90
21.52
24.41
26.63
28.16
29.04
29.24
28.75
27.59
25.80
23.47
20.80
18.08
15.61
13.63
12.17
11.14
10.37
9.72
9.14
8.64
8.25
7.94
7.67
7.40
7.17
7.07
7.18
7.42
7.54
7.18
6.04
4.10
1.70
-0.55
-2.02
-2.31
-1.40
0.34
2.42
4.37
5.96
7.17
8.09
8.84
9.40
9.75
9.79
9.56
9.15
8.77
8.71
9.23
10.49
12.42
14.67
16.58
17.48
16.87
14.68
11.32
7.54
4.14
1.69
0.34
-0.16
-0.29
-0.53
-1.16
-2.11
-2.89
-2.75
-0.90
3.18
9.42
17.00
24.40
29.77
31.36
28.09
19.94
8.08
-5.41
-18.04
-27.61
-32.75
-33.27
-29.92
-24.02
-16.93
-9.50
-2.10
5.32
12.95
20.89
29.06
37.26
45.18
52.45
58.66
63.41
66.23
66.72
64.56
59.62
52.09
42.67
32.62
23.62
17.20
13.93
12.89
11.97
8.88
2.61
-5.58
-12.33
-13.54
-6.20
10.26
33.78
60.84
88.07
113.50
136.79
158.58
179.65
200.27
220.33
239.72
258.62
277.44
296.24
314.29
329.78
340.30
343.62
338.63
325.79
306.93
284.57
261.03
237.88
215.81
194.97
175.39
157.15
140.35
124.82
110.04
95.12
79.24
61.93
43.33
24.17
5.53
-11.41
-25.54
-36.11
-42.98
-46.86
-49.36
-52.57
-58.31
-67.38
-79.22
-92.06
-103.74
-112.64
-118.15
-120.81
-121.80
-122.37
-123.55
-126.18
-131.00
-138.78
-150.08
-164.88
-182.35
-201.06
-219.22
-235.21
-247.90
-256.64
-261.15
-261.31
-257.11
-248.88
-237.44
-224.12
-210.48
-197.93
-187.27
-178.64
-171.60
-165.39
-159.12
-151.75
-142.08
-128.86
-111.17
-88.81
-62.67
-34.50
-6.36
20.18
44.64
67.68
90.65
114.81
140.72
168.02
195.56
221.68
244.41
261.67
271.56
272.78
265.12
249.77
229.19
206.41
184.28
164.70
148.40
135.16
124.29
115.09
107.06
99.82
93.04
86.29
79.16
71.29
62.47
52.60
41.68
29.76
16.87
3.03
-11.71
-27.32
-43.68
-60.63
-77.97
-95.54
-113.38
-131.73
-150.88
-170.93
-191.36
-211.09
-228.51
-242.04
-250.54
-253.77
-252.28
-247.42
-240.88
-234.42
-229.57
-227.30
-227.78
-230.23
-233.04
-234.06
-231.19
-222.98
-209.01
-190.04
-167.74
-144.34
-121.92
-101.94
-84.76
-69.55
-54.59
-37.82
-17.67
6.23
32.69
59.17
82.46
99.55
108.32
107.78
97.88
79.11
52.29
18.64
-19.88
-60.30
-98.76
-131.12
-153.88
-165.10
-164.95
-155.62
-140.70
-124.38
-110.41
-101.46
-98.77
-102.26
-110.80
-122.72
-136.06
-148.81
-159.07
-165.17
-165.97
-161.18
-151.50
-138.51
-124.30
-110.96
-100.09
-92.58
-88.58
-87.60
-88.53
-89.85
-89.71
-86.41
-78.83
-66.83
-51.39
-34.21
-17.06
-1.10
13.44
27.04
40.37
53.68
66.61
78.34
87.99
95.03
99.34
101.15
100.74
98.32
94.02
88.05
80.81
72.80
64.59
56.56
48.88
41.57
34.65
28.27
22.72
18.46
15.96
15.76
18.37
24.22
33.33
45.13
58.39
71.45
82.84
91.72
98.16
102.76
106.16
108.49
109.30
107.86
103.70
96.95
88.25
78.43
68.11
57.55
46.84
36.11
25.79
16.39
8.37
1.84
-3.48
-8.23
-13.13
-18.69
-25.04
-31.75
-38.08
-43.16
-46.50
-48.25
-49.28
-50.99
-54.75
-61.38
-70.59
-81.04
-90.61
-97.07
-98.89
-95.73
-88.52
-79.13
-69.63
-61.61
-55.88
-52.41
-50.66
-50.09
-50.37
-51.53
-53.76
-57.23
-61.80
-67.06
-72.40
-77.13
-80.63
-82.34
-81.61
-77.83
-70.40
-59.10
-44.32
-27.15
-9.23
7.65
22.06
33.19
40.90
45.48
47.47
47.44
46.00
43.79
41.42
39.44
38.12
37.50
37.35
37.39
37.44
37.42
37.40
37.41
37.34
37.02
36.25
34.96
33.17
31.00
28.54
25.85
23.01
20.25
17.93
16.49
16.25
17.19
18.85
20.32
20.46
18.21
12.85
4.26
-7.07
-20.02
-33.13
-44.85
-53.81
-59.14
-60.61
-58.65
-54.24
-48.49
-42.42
-36.54
-30.94
-25.35
-19.55
-13.52
-7.50
-1.75
3.74
9.25
15.21
21.85
28.90
35.66
41.33
45.39
47.93
49.57
51.03
52.76
54.57
55.80
55.61
53.47
49.47
44.18
38.45
33.03
28.34
24.50
21.31
18.41
15.37
11.72
7.03
1.02
-6.42
-15.03
-24.18
-33.01
-40.46
-45.54
-47.48
-45.93
-41.05
-33.49
-24.18
-14.11
-3.98
5.84
15.31
24.50
33.40
41.80
49.34
55.59
60.20
63.03
64.12
63.69
62.12
59.77
56.98
53.93
50.71
47.29
43.55
39.36
34.57
28.99
22.52
15.20
7.32
-0.62
-8.00
-14.25
-19.13
-22.72
-25.46
-27.96
-30.85
-34.64
-39.76
-46.45
-54.72
-64.23
-74.18
-83.30
-90.19
-93.69
-93.32
-89.49
-83.27
-75.93
-68.38
-60.85
-52.98
-44.15
-34.06
-22.97
-11.69
-1.27
7.45
14.19
19.22
23.16
26.64
29.99
33.09
35.58
37.11
37.57
37.26
36.65
36.24
36.37
37.08
38.27
39.76
41.36
42.91
44.18
44.88
44.71
43.40
40.82
36.97
31.93
25.92
19.17
11.95
4.48
-3.10
-10.83
-18.93
-27.58
-36.78
-46.07
-54.58
-61.20
-65.06
-65.82
-63.78
-59.72
-54.34
-48.05
-40.82
-32.41
-22.67
-11.73
-0.05
11.80
23.29
34.03
43.74
52.16
59.07
64.31
67.88
69.91
70.67
70.51
69.82
69.01
68.40
68.12
67.93
67.31
65.52
61.92
56.33
49.19
41.44
34.21
28.36
24.14
21.10
18.35
14.98
10.43
4.70
-1.78
-8.41
-14.79
-20.91
-27.10
-33.87
-41.64
-50.61
-60.64
-71.18
-81.33
-89.97
-96.02
-98.62
-97.43
-92.62
-84.82
-74.83
-63.42
-51.19
-38.45
-25.39
-12.12
1.25
14.49
27.32
39.50
50.93
61.52
71.09
79.12
84.82
87.43
86.65
83.01
77.80
72.70
68.98
67.09
66.55
66.28
65.26
62.96
59.34
54.63
49.05
42.61
35.30
27.24
18.80
10.50
2.80
-4.06
-10.15
-15.79
-21.30
-26.93
-32.66
-38.33
-43.69
-48.64
-53.32
-58.16
-63.61
-69.85
-76.44
-82.35
-86.30
-87.20
-84.63
-79.00
-71.24
-62.32
-52.81
-42.75
-31.84
-19.85
-6.98
6.09
18.34
28.82
36.91
42.53
46.10
48.37
50.07
51.74
53.50
55.20
56.47
57.08
57.02
56.49
55.76
54.88
53.61
51.43
47.84
42.62
36.01
28.57
20.95
13.66
6.87
0.68
-4.80
-9.19
-11.99
-12.99
-12.59
-11.89
-12.32
-14.97
-20.09
-27.04
-34.69
-42.04
-48.63
-54.47
-59.55
-63.39
-64.93
-62.86
-56.43
-45.83
-32.15
-16.92
-1.39
13.99
29.50
45.67
62.86
80.73
98.36
114.60
128.50
139.73
148.56
155.71
161.91
167.68
173.22
178.40
182.98
186.69
189.36
190.83
190.98
189.72
187.01
182.91
177.59
171.29
164.29
156.88
149.28
141.63
133.86
125.74
116.80
106.45
94.06
79.10
61.31
40.76
17.80
-7.06
-33.27
-60.42
-88.15
-115.98
-143.09
-168.04
-188.79
-203.24
-209.85
-208.27
-199.67
-186.33
-170.89
-155.40
-140.83
-127.02
-113.26
-99.05
-84.46
-70.25
-57.45
-46.86
-38.75
-32.81
-28.44
-25.02
-22.13
-19.56
-17.18
-14.79
-12.01
-8.44
-3.75
2.02
8.36
14.45
19.38
22.46
23.46
22.58
20.26
17.00
13.21
9.17
5.06
0.98
-3.10
-7.37
-12.06
-17.44
-23.60
-30.48
-37.84
-45.23
-51.99
-57.30
-60.30
-60.27
-56.94
-50.67
-42.36
-33.18
-24.13
-15.70
-7.89
-0.33
7.27
14.97
22.54
29.56
35.68
40.69
44.46
46.95
48.14
48.07
46.87
44.82
42.32
39.79
37.50
35.53
33.72
31.73
29.14
25.60
20.94
15.22
8.74
2.00
-4.49
-10.27
-15.14
-19.24
-23.00
-27.11
-32.29
-39.05
-47.55
-57.54
-68.30
-78.78
-87.69
-93.77
-96.11
-94.34
-88.86
-80.56
-70.63
-59.98
-49.08
-37.87
-26.06
-13.52
-0.54
12.13
23.51
32.77
39.46
43.61
45.64
46.13
45.62
44.55
43.19
41.66
39.99
38.16
36.08
33.77
31.35
29.05
27.01
25.06
22.68
19.09
13.64
6.22
-2.55
-11.51
-19.49
-25.71
-30.23
-33.72
-37.13
-41.29
-46.63
-53.23
-60.93
-69.28
-77.53
-84.48
-88.73
-89.03
-84.81
-76.47
-65.28
-52.88
-40.67
-29.33
-18.74
-8.23
2.87
14.88
27.57
40.22
51.87
61.63
68.99
73.93
76.99
78.99
80.74
82.81
85.31
88.01
90.54
92.51
93.67
93.92
93.24
91.62
89.11
85.74
81.59
76.67
70.96
64.43
57.14
49.27
41.12
33.00
25.00
16.97
8.47
-1.08
-12.26
-25.35
-40.20
-56.09
-71.73
-85.54
-95.91
-101.70
-102.45
-98.51
-90.74
-80.16
-67.54
-53.17
-37.08
-19.32
-0.25
19.26
37.92
54.33
67.33
76.35
81.52
83.57
83.54
82.49
81.15
79.87
78.69
77.44
75.89
73.84
71.03
67.24
62.32
56.21
49.13
41.38
33.23
24.79
16.04
6.87
-2.65
-12.22
-21.41
-29.81
-37.26
-43.97
-50.40
-57.08
-64.43
-72.59
-81.38
-90.34
-98.66
-105.31
-109.25
-109.73
-106.54
-100.17
-91.60
-81.90
-71.79
-61.40
-50.36
-38.15
-24.59
-10.12
4.18
16.94
26.96
33.62
37.08
38.09
37.72
36.90
36.06
35.18
33.95
32.15
29.79
27.20
24.70
22.44
20.24
17.65
14.26
9.89
4.74
-0.70
-5.86
-10.35
-14.09
-17.35
-20.65
-24.58
-29.67
-36.20
-44.19
-53.25
-62.57
-71.02
-77.24
-80.08
-78.84
-73.60
-65.09
-54.46
-42.82
-30.84
-18.77
-6.51
6.01
18.58
30.64
41.45
50.39
57.16
61.83
64.73
66.17
66.43
65.59
63.71
60.89
57.35
53.45
49.58
46.03
42.93
40.19
37.49
34.42
30.53
25.53
19.44
12.60
5.59
-0.99
-6.81
-11.94
-16.78
-21.84
-27.56
-34.12
-41.54
-49.64
-58.08
-66.24
-73.21
-77.89
-79.40
-77.37
-72.14
-64.61
-55.74
-46.18
-36.10
-25.23
-13.27
-0.20
13.54
27.14
39.66
50.26
58.42
63.98
67.14
68.35
68.12
66.93
65.08
62.62
59.52
55.70
51.17
46.09
40.70
35.28
30.07
25.15
20.39
15.53
10.21
4.23
-2.44
-9.59
-16.87
-23.87
-30.25
-35.91
-40.93
-45.60
-50.46
-56.18
-63.45
-72.72
-83.99
-96.48
-108.78
-119.14
-125.92
-128.16
-125.81
-119.58
-110.67
-100.28
-89.34
-78.45
-68.01
-58.31
-49.58
-41.78
-34.44
-26.60
-17.05
-4.94
9.76
26.06
42.21
56.44
67.73
76.29
83.24
89.95
97.09
104.26
110.22
113.73
114.28
112.48
109.71
107.30
105.94
105.36
104.68
102.93
99.49
94.21
87.19
78.51
68.00
55.40
40.68
24.20
6.76
-10.70
-27.35
-42.61
-56.17
-67.67
-76.59
-82.23
-84.02
-81.73
-75.75
-66.90
-56.15
-44.21
-31.35
-17.54
-2.76
12.72
28.34
43.21
56.43
67.24
75.21
80.20
82.36
82.06
79.82
76.35
72.36
68.54
65.33
62.88
61.02
59.34
57.33
54.59
50.97
46.56
41.62
36.42
31.12
25.74
20.03
13.63
6.10
-2.80
-13.02
-23.97
-34.73
-44.23
-51.60
-56.50
-59.25
-60.74
-62.19
-64.81
-69.40
-76.09
-84.20
-92.35
-98.82
-102.04
-101.12
-96.13
-87.96
-77.96
-67.31
-56.62
-45.82
-34.43
-21.92
-8.08
6.71
21.69
35.80
48.05
57.75
64.57
68.66
70.48
70.69
69.97
68.92
67.89
67.03
66.39
65.83
65.21
64.35
63.10
61.42
59.48
57.53
55.82
54.51
53.48
52.35
50.69
48.05
44.27
39.50
34.12
28.56
23.20
18.03
12.72
6.62
-1.01
-10.74
-22.74
-36.54
-51.08
-64.82
-76.21
-84.06
-87.84
-87.79
-84.64
-79.23
-72.10
-63.33
-52.70
-40.06
-25.67
-10.36
4.60
17.84
28.32
35.57
39.83
41.88
42.78
43.60
45.07
47.38
50.23
52.96
54.84
55.32
54.20
51.58
47.72
42.86
37.17
30.83
24.11
17.40
11.14
5.69
1.17
-2.56
-5.87
-9.23
-13.02
-17.46
-22.68
-28.72
-35.59
-43.23
-51.29
-59.02
-65.34
-69.05
-69.27
-65.85
-59.33
-50.81
-41.42
-31.89
-22.39
-12.72
-2.60
7.96
18.57
28.58
37.31
44.29
49.40
52.83
55.00
56.40
57.54
58.75
60.30
62.24
64.50
66.89
69.13
70.87
71.77
71.51
69.84
66.60
61.66
54.94
46.34
35.80
23.32
9.07
-6.54
-22.93
-39.31
-54.98
-69.36
-82.20
-93.56
-103.70
-113.09
-122.10
-130.81
-138.82
-145.15
-148.59
-148.04
-143.19
-134.68
-123.97
-112.82
-102.51
-93.45
-85.09
-76.40
-66.41
-54.68
-41.37
-27.11
-12.70
1.13
13.82
25.00
34.52
42.35
48.61
53.51
57.36
60.51
63.34
66.13
68.94
71.52
73.28
73.51
71.68
67.67
61.86
54.98
47.74
40.57
33.44
26.00
17.88
8.86
-0.94
-11.14
-21.24
-30.76
-39.39
-47.10
-54.20
-61.27
-69.02
-77.90
-87.73
-97.50
-105.66
-110.68
-111.70
-108.83
-103.00
-95.44
-87.03
-78.14
-68.61
-58.24
-46.98
-35.13
-23.12
-11.38
-0.21
10.18
19.57
27.74
34.60
40.17
44.63
48.23
51.19
53.62
55.54
56.88
57.47
57.09
55.54
52.73
48.75
43.97
38.81
33.79
29.17
24.96
20.98
16.99
12.83
8.57
4.43
0.66
-2.63
-5.58
-8.64
-12.44
-17.60
-24.48
-33.11
-43.05
-53.47
-63.15
-70.81
-75.37
-76.19
-73.31
-67.42
-59.52
-50.67
-41.60
-32.51
-23.31
-13.70
-3.40
7.60
19.14
30.83
42.19
52.59
61.42
68.17
72.53
74.55
74.59
73.27
71.29
69.26
67.53
66.15
64.88
63.31
61.00
57.67
53.30
48.08
42.39
36.60
30.98
25.56
20.17
14.55
8.45
1.89
-4.91
-11.58
-17.78
-23.39
-28.60
-33.78
-39.35
-45.65
-52.77
-60.47
-68.16
-74.85
-79.32
-80.37
-77.26
-69.96
-59.38
-46.99
-34.36
-22.57
-11.88
-1.90
8.03
18.29
28.72
38.59
47.02
53.30
57.16
58.79
58.66
57.26
54.87
51.66
47.71
43.24
38.65
34.40
30.88
28.11
25.77
23.30
20.18
16.20
11.59
6.81
2.24
-1.98
-6.20
-10.96
-16.80
-23.96
-32.32
-41.46
-50.91
-60.33
-69.54
-78.50
-86.99
-94.51
-100.30
-103.47
-103.29
-99.42
-92.08
-81.86
-69.56
-55.88
-41.31
-26.17
-10.79
4.34
18.52
30.95
40.95
48.14
52.57
54.65
55.02
54.31
53.02
51.38
49.38
46.92
43.94
40.54
36.99
33.63
30.67
28.08
25.58
22.83
19.54
15.63
11.22
6.60
2.04
-2.21
-6.10
-9.72
-13.30
-17.16
-21.62
-26.99
-33.49
-41.21
-50.03
-59.55
-69.03
-77.43
-83.67
-86.90
-86.88
-84.03
-79.21
-73.31
-66.80
-59.54
-50.96
-40.50
-28.00
-13.88
0.93
15.30
28.30
39.33
48.16
54.81
59.46
62.35
63.81
64.22
63.87
62.98
61.54
59.45
56.64
53.17
49.26
45.24
41.36
37.71
34.21
30.63
26.71
22.30
17.36
11.96
6.23
0.35
-5.60
-11.63
-17.98
-25.04
-33.21
-42.71
-53.34
-64.30
-74.30
-81.79
-85.44
-84.49
-78.95
-69.51
-57.29
-43.41
-28.79
-14.04
0.44
14.33
27.35
39.25
49.79
58.78
66.07
71.51
75.04
76.71
76.73
75.48
73.38
70.73
67.64
64.22
60.51
56.73
53.05
49.55
46.04
42.04
37.01
30.59
22.84
14.22
5.54
-2.40
-9.05
-14.25
-18.21
-21.45
-24.62
-28.37
-33.29
-39.78
-47.94
-57.50
-67.80
-77.77
-86.19
-91.96
-94.30
-93.04
-88.50
-81.31
-72.16
-61.63
-50.11
-37.89
-25.21
-12.27
0.71
13.51
25.89
37.64
48.60
58.71
67.97
76.40
83.92
90.26
95.02
97.85
98.61
97.55
95.12
91.80
87.90
83.48
78.37
72.37
65.34
57.23
48.12
38.24
27.89
17.40
7.07
-2.95
-12.63
-22.06
-31.35
-40.58
-49.71
-58.73
-67.60
-76.25
-84.40
-91.50
-96.68
-99.03
-97.88
-93.00
-84.70
-73.58
-60.34
-45.56
-29.70
-13.16
3.57
19.88
35.05
48.39
59.35
67.63
73.26
76.52
77.89
77.82
76.58
74.21
70.67
66.02
60.63
55.05
49.87
45.42
41.57
37.87
33.78
28.95
23.36
17.30
11.08
4.93
-1.16
-7.40
-13.99
-21.05
-28.48
-36.07
-43.62
-51.02
-58.30
-65.53
-72.59
-79.00
-83.98
-86.59
-86.10
-82.21
-75.09
-65.27
-53.36
-39.94
-25.48
-10.44
4.64
19.06
32.10
43.13
51.72
57.75
61.38
63.08
63.48
63.21
62.74
62.25
61.58
60.35
58.20
54.93
50.62
45.51
39.90
33.94
27.65
20.99
13.89
6.46
-0.97
-8.02
-14.35
-19.90
-24.99
-30.13
-35.93
-42.80
-50.85
-59.86
-69.33
-78.60
-86.86
-93.24
-96.91
-97.20
-93.85
-86.98
-77.04
-64.57
-50.01
-33.64
-15.65
3.63
23.63
43.39
61.72
77.46
89.71
98.16
103.07
105.20
105.49
104.71
103.36
101.59
99.43
96.90
94.13
91.27
88.36
85.25
81.64
77.23
71.88
65.67
58.84
51.66
44.27
36.63
28.56
19.82
10.18
-0.42
-11.87
-23.86
-35.96
-47.72
-58.83
-69.19
-78.99
-88.57
-98.24
-107.96
-117.19
-124.90
-129.97
-131.50
-129.23
-123.51
-115.11
-104.82
-93.14
-80.24
-66.10
-50.74
-34.49
-18.05
-2.30
11.95
24.17
34.20
42.18
48.37
52.94
55.89
57.11
56.60
54.69
51.97
49.17
46.83
44.99
43.22
40.83
37.28
32.48
26.89
21.22
16.15
11.88
8.13
4.23
-0.47
-6.31
-13.11
-20.33
-27.25
-33.34
-38.40
-42.59
-46.32
-50.08
-54.37
-59.58
-65.84
-72.92
-80.05
-86.06
-89.60
-89.58
-85.51
-77.69
-67.04
-54.71
-41.69
-28.57
-15.57
-2.82
9.53
21.15
31.58
40.37
47.20
51.91
54.55
55.27
54.40
52.32
49.44
46.11
42.64
39.22
35.93
32.81
29.83
26.91
23.98
20.97
17.90
14.85
11.96
9.39
7.19
5.36
3.84
2.55
1.43
0.43
-0.59
-1.84
-3.58
-6.17
-9.94
-15.13
-21.80
-29.71
-38.19
-46.21
-52.52
-55.96
-55.88
-52.29
-45.83
-37.44
-28.01
-18.02
-7.59
3.25
14.34
25.12
34.73
42.35
47.42
49.90
50.32
49.45
48.11
46.86
45.94
45.26
44.54
43.55
42.15
40.39
38.27
35.77
32.76
29.06
24.53
19.22
13.33
7.14
0.93
-5.13
-11.01
-16.69
-22.21
-27.67
-33.15
-38.79
-44.74
-51.14
-58.06
-65.42
-72.89
-79.80
-85.18
-87.95
-87.28
-82.88
-75.04
-64.52
-52.23
-38.91
-25.05
-10.92
3.18
16.84
29.53
40.68
49.85
56.73
61.26
63.62
64.19
63.48
61.95
59.91
57.37
54.20
50.22
45.51
40.36
35.24
30.51
26.30
22.48
18.73
14.79
10.50
5.94
1.25
-3.45
-8.14
-12.96
-18.12
-23.74
-29.81
-36.19
-42.67
-49.16
-55.79
-62.90
-70.84
-79.72
-89.13
-98.02
-104.95
-108.43
-107.46
-101.76
-91.88
-78.93
-64.16
-48.71
-33.34
-18.47
-4.27
9.10
21.44
32.51
41.96
49.49
54.95
58.40
60.12
60.56
60.19
59.36
58.29
57.11
55.90
54.75
53.68
52.61
51.32
49.53
46.91
43.30
38.68
33.12
26.71
19.51
11.61
3.19
-5.43
-13.88
-21.83
-29.18
-36.13
-43.13
-50.68
-59.09
-68.36
-78.14
-87.85
-96.86
-104.52
-110.26
-113.42
-113.47
-109.97
-102.75
-92.06
-78.40
-62.34
-44.32
-24.60
-3.48
18.26
39.29
57.85
72.41
82.20
87.58
89.80
90.46
90.77
91.26
91.79
91.94
91.39
90.09
88.25
86.02
83.37
80.01
75.65
70.11
63.51
56.20
48.72
41.46
34.54
27.77
20.79
13.24
4.93
-4.01
-13.27
-22.46
-31.28
-39.65
-47.75
-55.95
-64.77
-74.69
-85.92
-98.22
-110.75
-122.06
-130.40
-134.11
-132.06
-124.03
-110.66
-93.24
-73.22
-51.85
-29.97
-8.08
13.49
34.35
54.10
72.29
88.56
102.74
114.74
124.61
132.51
138.66
143.37
147.01
149.88
152.29
154.46
156.58
158.85
161.32
163.91
166.30
168.04
168.72
168.18
166.52
164.11
161.39
158.64
155.90
152.98
149.52
145.04
139.01
130.87
120.09
106.40
89.85
70.80
49.74
26.98
2.59
-23.48
-51.02
-79.02
-105.58
-128.20
-144.57
-153.37
-154.89
-150.76
-143.42
-135.10
-127.31
-120.50
-114.46
-108.71
-102.94
-97.18
-91.61
-86.41
-81.53
-76.78
-71.86
-66.62
-61.19
-56.00
-51.72
-49.03
-48.39
-49.87
-53.06
-57.20
-61.46
-65.27
-68.45
-71.23
-74.08
-77.33
-81.00
-84.74
-87.98
-90.16
-91.07
-90.90
-90.16
-89.56
-89.74
-91.30
-94.75
-100.45
-108.42
-118.09
-128.06
-136.31
-140.75
-139.91
-133.50
-122.49
-108.63
-93.59
-78.40
-63.13
-47.31
-30.43
-12.49
5.87
23.55
39.37
52.60
63.00
70.81
76.50
80.52
83.14
84.61
85.13
84.97
84.46
83.88
83.31
82.65
81.65
80.14
78.10
75.62
72.83
69.71
66.03
61.43
55.53
48.12
39.24
29.31
18.92
8.75
-0.71
-9.35
-17.52
-25.98
-35.55
-46.67
-58.92
-70.94
-80.65
-85.93
-85.18
-77.82
-64.25
-45.85
-24.53
-2.43
18.51
36.97
52.43
65.20
76.01
85.49
93.72
100.14
104.00
104.82
102.89
99.22
95.03
91.31
88.36
86.00
83.75
81.23
78.21
74.55
70.21
65.10
59.20
52.52
45.18
37.29
28.92
20.09
10.84
1.32
-8.22
-17.50
-26.39
-35.04
-43.76
-52.92
-62.69
-73.06
-83.88
-94.91
-105.94
-116.51
-125.74
-132.30
-134.68
-131.71
-123.12
-109.70
-93.03
-74.84
-56.39
-38.17
-20.11
-1.95
16.27
34.00
50.29
64.11
74.73
82.03
86.41
88.67
89.73
90.27
90.57
90.58
90.01
88.59
86.19
82.90
78.95
74.66
70.35
66.23
62.40
58.73
54.95
50.62
45.46
39.34
32.42
25.01
17.49
10.03
2.60
-5.09
-13.42
-22.72
-33.15
-44.62
-56.65
-68.41
-78.77
-86.38
-90.08
-89.07
-83.29
-73.37
-60.47
-45.85
-30.55
-15.08
0.44
15.97
31.19
45.43
57.74
67.30
73.75
77.33
78.77
78.96
78.60
77.92
76.80
75.02
72.44
69.25
65.80
62.48
59.43
56.47
53.26
49.54
45.35
41.04
37.10
33.92
31.56
29.73
27.84
25.23
21.27
15.43
7.34
-3.06
-15.40
-28.65
-41.05
-50.46
-54.72
-52.37
-43.18
-28.32
-10.13
8.53
25.04
37.76
46.21
50.92
52.96
53.33
52.67
51.26
49.14
46.43
43.42
40.47
37.90
35.79
34.01
32.34
30.57
28.59
26.37
23.83
20.81
17.09
12.44
6.76
0.06
-7.56
-15.92
-24.81
-34.01
-43.28
-52.45
-61.42
-70.32
-79.38
-88.85
-98.82
-109.20
-119.76
-130.22
-140.28
-149.53
-157.30
-162.63
-164.42
-161.75
-154.31
-142.58
-127.74
-111.26
-94.47
-78.15
-62.49
-47.30
-32.38
-17.81
-4.09
8.03
17.69
24.36
28.02
29.17
28.71
27.57
26.37
25.34
24.37
23.20
21.63
19.66
17.37
14.87
12.10
8.86
4.90
0.06
-5.61
-11.83
-18.15
-24.07
-29.22
-33.52
-37.21
-40.84
-45.08
-50.50
-57.34
-65.45
-74.43
-83.81
-93.22
-102.33
-110.66
-117.42
-121.49
-121.75
-117.51
-108.78
-96.24
-80.86
-63.53
-44.75
-24.67
-3.47
18.39
40.03
60.24
77.88
92.13
102.66
109.62
113.45
114.73
113.98
111.63
108.04
103.67
99.03
94.66
90.96
87.97
85.30
82.22
77.96
72.06
64.59
56.06
47.25
38.70
30.62
22.74
14.60
5.84
-3.50
-12.93
-21.78
-29.53
-36.10
-41.99
-48.13
-55.54
-65.04
-77.02
-91.21
-106.60
-121.50
-133.66
-140.84
-141.39
-134.84
-122.07
-104.91
-85.50
-65.56
-46.07
-27.35
-9.44
7.51
23.18
37.19
49.28
59.44
67.76
74.32
79.07
81.91
82.95
82.51
81.18
79.58
78.16
77.05
76.05
74.75
72.65
69.38
64.69
58.51
50.92
42.06
32.14
21.43
10.14
-1.56
-13.48
-25.43
-37.16
-48.34
-58.60
-67.63
-75.35
-81.95
-87.95
-94.10
-101.20
-109.80
-119.78
-130.21
-139.28
-144.80
-144.82
-138.35
-125.71
-108.36
-88.31
-67.32
-46.44
-25.93
-5.66
14.31
33.41
50.58
64.69
75.08
81.81
85.67
87.75
89.03
90.06
90.92
91.37
91.18
90.28
88.75
86.72
84.26
81.21
77.30
72.26
65.95
58.50
50.25
41.65
33.10
24.90
17.08
9.49
1.86
-6.13
-14.77
-24.24
-34.64
-45.99
-58.14
-70.75
-83.11
-94.06
-102.10
-105.73
-103.96
-96.68
-84.76
-69.80
-53.51
-37.15
-21.12
-5.13
11.35
28.63
46.41
63.79
79.51
92.47
102.07
108.40
112.05
113.84
114.51
114.45
113.80
112.51
110.53
107.91
104.71
100.96
96.57
91.43
85.44
78.63
71.08
62.83
53.82
43.86
32.81
20.74
7.96
-4.99
-17.51
-29.25
-40.22
-50.83
-61.94
-74.48
-89.25
-106.52
-125.70
-145.14
-162.38
-174.63
-179.59
-176.19
-164.85
-147.21
-125.55
-101.99
-77.96
-54.28
-31.34
-9.42
10.98
29.32
45.14
58.15
68.40
76.04
81.21
84.05
84.67
83.27
80.32
76.44
72.33
68.59
65.43
62.59
59.50
55.50
50.18
43.63
36.39
29.23
22.82
17.50
13.17
9.51
6.12
2.73
-0.79
-4.39
-8.01
-11.58
-15.13
-18.74
-22.64
-27.29
-33.27
-41.22
-51.40
-63.33
-75.59
-86.08
-92.61
-93.70
-89.10
-79.74
-67.20
-52.98
-37.95
-22.32
-5.92
11.20
28.55
45.23
60.28
73.02
83.21
90.90
96.24
99.35
100.28
99.16
96.22
91.97
87.06
82.16
77.74
73.91
70.42
66.76
62.35
56.82
50.21
42.92
35.64
28.96
23.14
17.98
12.95
7.39
0.79
-6.96
-15.54
-24.31
-32.64
-40.07
-46.55
-52.42
-58.34
-65.09
-73.37
-83.51
-95.27
-107.58
-118.58
-125.94
-127.51
-122.15
-110.16
-93.32
-74.11
-54.89
-37.01
-20.70
-5.37
9.66
24.56
38.88
51.71
62.27
70.17
75.66
79.34
81.98
84.14
86.06
87.69
88.77
89.02
88.32
86.86
84.99
83.15
81.61
80.34
78.98
77.02
73.95
69.52
63.71
56.67
48.56
39.42
29.16
17.71
4.96
-9.10
-24.48
-41.39
-60.04
-80.44
-101.98
-122.99
-140.84
-152.50
-155.54
-149.04
-134.01
-113.06
-89.33
-65.41
-42.68
-21.27
-0.82
18.77
36.78
51.81
62.42
67.84
68.34
65.27
60.49
55.79
52.36
50.59
50.20
50.59
51.10
51.31
50.97
49.94
48.00
44.83
40.00
33.20
24.40
13.98
2.62
-8.89
-19.88
-29.99
-39.18
-47.71
-55.94
-64.26
-72.98
-82.41
-92.83
-104.40
-116.85
-129.22
-139.81
-146.42
-147.00
-140.42
-126.97
-108.28
-86.80
-64.90
-44.22
-25.42
-8.44
7.04
21.34
34.53
46.57
57.28
66.44
73.68
78.58
80.85
80.53
78.16
74.59
70.70
66.99
63.50
59.84
55.60
50.59
44.98
39.18
33.54
28.14
22.76
17.04
10.74
3.90
-3.25
-10.33
-17.20
-23.96
-31.03
-38.94
-48.19
-59.14
-71.95
-86.68
-103.07
-120.40
-137.29
-151.66
-161.18
-164.01
-159.42
-148.17
-132.21
-113.87
-95.07
-76.69
-58.68
-40.51
-21.75
-2.55
16.45
34.30
50.15
63.41
73.87
81.55
86.72
89.74
91.02
91.01
90.06
88.43
86.22
83.45
80.10
76.13
71.48
66.10
60.07
53.62
47.10
40.86
35.05
29.48
23.58
16.73
8.46
-1.14
-11.47
-21.68
-31.05
-39.38
-47.13
-55.23
-64.67
-76.06
-89.18
-102.86
-115.03
-123.35
-125.80
-121.38
-110.40
-94.32
-75.09
-54.51
-33.75
-13.23
6.95
26.63
45.31
62.21
76.58
87.94
96.29
102.02
105.72
107.98
109.18
109.51
108.93
107.28
104.41
100.30
95.11
89.19
82.93
76.60
70.27
63.82
57.09
50.02
42.61
35.00
27.35
19.68
11.90
3.91
-4.39
-12.94
-21.60
-30.16
-38.58
-47.05
-56.02
-66.07
-77.57
-90.10
-102.24
-111.52
-115.16
-111.05
-98.75
-79.87
-57.63
-35.68
-16.80
-2.03
9.39
19.26
29.22
39.93
50.78
60.33
67.13
70.48
70.61
68.53
65.44
62.31
59.64
57.61
56.28
55.71
55.96
56.79
57.59
57.30
54.62
48.42
38.20
24.37
8.27
-8.08
-22.68
-34.06
-41.86
-46.86
-50.58
-54.71
-60.59
-68.84
-79.39
-91.67
-104.61
-116.73
-126.21
-131.20
-130.32
-123.06
-110.09
-92.96
-73.59
-53.57
-33.75
-14.37
4.64
23.19
40.76
56.47
69.39
78.86
84.68
87.21
87.13
85.27
82.35
78.89
75.08
70.95
66.42
61.41
55.99
50.29
44.59
39.06
33.74
28.37
22.56
15.85
8.02
-0.75
-9.98
-18.99
-27.29
-34.78
-41.77
-48.84
-56.60
-65.54
-75.94
-87.95
-101.42
-115.71
-129.46
-140.64
-146.97
-146.66
-139.11
-125.17
-106.84
-86.43
-65.74
-45.64
-26.05
-6.63
12.75
31.66
49.18
64.22
76.02
84.38
89.61
92.37
93.32
93.00
91.70
89.61
86.92
83.90
80.88
78.04
75.37
72.56
69.23
65.04
59.97
54.23
48.17
42.06
35.88
29.40
22.24
14.13
5.08
-4.63
-14.48
-23.99
-32.87
-41.15
-49.13
-57.37
-66.41
-76.72
-88.46
-101.35
-114.56
-126.67
-135.93
-140.62
-139.56
-132.38
-119.67
-102.68
-82.84
-61.46
-39.43
-17.28
4.62
25.86
45.82
63.69
78.64
90.04
97.63
101.60
102.56
101.30
98.61
95.13
91.30
87.39
83.55
79.74
75.78
71.42
66.43
60.79
54.81
49.01
43.85
39.46
35.46
31.03
25.31
17.73
8.35
-2.24
-13.10
-23.37
-32.61
-40.89
-48.75
-56.98
-66.39
-77.55
-90.54
-104.73
-118.60
-129.94
-136.36
-135.98
-128.09
-113.48
-94.07
-72.20
-49.89
-28.22
-7.43
12.72
32.41
51.37
68.86
83.91
95.75
103.97
108.74
110.57
110.24
108.44
105.76
102.51
98.85
94.79
90.25
85.10
79.24
72.59
65.26
57.52
49.74
42.26
35.17
28.28
21.18
13.43
4.78
-4.70
-14.69
-24.82
-34.82
-44.72
-54.81
-65.45
-76.97
-89.50
-102.74
-115.87
-127.47
-135.72
-138.78
-135.39
-125.33
-109.66
-90.36
-69.69
-49.52
-30.80
-13.54
2.88
19.10
35.32
51.16
65.71
77.92
86.93
92.42
94.67
94.44
92.65
90.09
87.24
84.25
81.06
77.60
73.83
69.72
65.28
60.39
54.98
48.89
42.03
34.39
26.06
17.23
8.15
-0.91
-9.75
-18.34
-26.81
-35.47
-44.67
-54.71
-65.86
-78.15
-91.41
-105.04
-117.90
-128.39
-134.70
-135.28
-129.43
-117.47
-100.70
-80.90
-59.85
-38.84
-18.61
0.57
18.58
35.24
50.22
63.10
73.58
81.53
87.11
90.65
92.63
93.46
93.46
92.78
91.48
89.57
87.09
84.09
80.55
76.44
71.62
66.05
59.75
52.84
45.44
37.56
29.14
20.07
10.41
0.38
-9.62
-19.22
-28.21
-36.63
-44.72
-52.80
-61.10
-69.79
-79.00
-88.86
-99.35
-110.02
-119.78
-126.88
-129.46
-126.18
-116.84
-102.55
-85.32
-67.28
-49.93
-33.83
-18.72
-4.02
10.48
24.43
36.98
47.15
54.40
58.78
60.95
61.83
62.12
61.99
61.18
59.22
55.95
51.71
47.27
43.44
40.60
38.53
36.41
33.32
28.65
22.36
14.91
7.04
-0.62
-7.74
-14.33
-20.60
-26.91
-33.52
-40.74
-48.86
-58.19
-68.98
-81.03
-93.51
-104.74
-112.58
-115.05
-111.10
-101.01
-86.38
-69.52
-52.51
-36.59
-21.83
-7.57
7.06
22.45
38.28
53.65
67.45
78.83
87.43
93.40
97.19
99.28
100.06
99.63
98.05
95.36
91.64
87.07
81.75
75.75
69.09
61.82
54.06
46.05
38.00
29.98
21.79
13.09
3.61
-6.60
-17.09
-27.13
-36.05
-43.56
-49.99
-56.16
-63.11
-71.69
-82.24
-94.36
-106.86
-117.98
-125.71
-128.38
-125.05
-115.96
-102.32
-85.92
-68.49
-51.15
-34.20
-17.30
0.13
18.53
37.87
57.57
76.62
93.79
107.90
118.17
124.43
127.14
127.20
125.67
123.28
120.30
116.53
111.51
104.81
96.26
85.98
74.30
61.54
47.95
33.71
18.94
3.89
-11.30
-26.56
-42.06
-58.18
-75.29
-93.66
-113.21
-133.66
-154.63
-175.81
-197.31
-219.63
-243.52
-269.71
-298.25
-328.03
-356.51
-380.01
-394.52
-396.68
-384.67
-358.68
-320.81
-274.63
-224.42
-174.49
-128.53
-89.09
-57.21
-32.52
-13.48
1.87
15.17
27.49
39.45
51.58
64.57
78.98
94.81
111.22
126.85
140.61
152.32
162.93
173.81
185.72
198.02
208.94
216.77
221.27
224.13
228.16
235.66
246.99
260.52
273.68
284.68
293.37
300.77
307.59
312.91
313.70
305.92
286.35
254.07
210.88
160.50
107.15
54.27
4.04
-42.34
-84.20
-120.66
-150.27
-171.35
-182.51
-183.57
-176.04
-163.02
-148.30
-135.18
-125.26
-118.16
-112.08
-104.91
-95.31
-83.21
-69.45
-55.14
-41.04
-27.34
-14.01
-1.16
10.66
20.55
27.53
31.02
31.07
28.30
23.76
18.56
13.57
9.34
6.04
3.45
1.16
-1.40
-4.80
-9.47
-15.59
-22.93
-30.79
-38.01
-43.18
-44.95
-42.44
-35.51
-24.81
-11.48
3.23
18.30
33.15
47.42
60.74
72.61
82.47
89.95
95.09
98.33
100.38
101.86
103.06
103.89
104.03
103.06
100.64
96.60
90.89
83.60
74.91
65.16
54.79
44.40
34.55
25.68
18.00
11.55
6.30
2.29
-0.40
-1.78
-2.12
-2.13
-2.85
-5.28
-10.06
-17.21
-26.03
-35.38
-43.92
-50.46
-54.13
-54.57
-51.81
-45.94
-36.72
-23.47
-5.12
19.33
50.35
87.63
129.83
174.88
219.96
261.77
296.81
321.77
334.20
333.08
319.11
294.49
262.27
225.56
186.99
148.55
111.56
76.81
44.40
13.67
-16.81
-48.97
-84.93
-126.38
-173.79
-225.84
-279.26
-329.46
-371.80
-403.23
-423.32
-434.30
-439.93
-443.79
-447.87
-451.95
-454.22
-452.37
-444.87
-431.46
-413.14
-391.38
-367.46
-341.90
-314.54
-284.83
-252.41
-217.57
-181.12
-144.18
-107.66
-72.16
-38.10
-5.92
23.78
50.54
74.29
95.44
114.55
131.88
147.13
159.75
169.47
176.68
182.28
187.14
191.43
194.49
195.26
193.01
187.72
180.02
170.49
159.19
145.63
129.36
110.63
90.67
71.29
54.02
39.63
27.69
17.25
7.34
-2.31
-11.19
-18.32
-22.61
-23.09
-18.96
-9.65
4.93
23.92
45.37
66.40
84.07
96.35
102.70
104.11
102.30
98.82
94.42
89.00
82.11
73.53
63.70
53.48
43.94
35.82
29.45
24.68
21.09
18.10
15.01
11.27
6.43
0.31
-6.93
-14.82
-22.63
-29.69
-35.64
-40.60
-45.15
-50.07
-55.99
-63.17
-71.37
-79.91
-87.97
-94.66
-99.10
-100.59
-98.61
-92.96
-83.82
-71.68
-57.06
-40.30
-21.43
-0.50
21.96
44.62
65.53
82.75
95.10
102.78
107.20
110.33
113.77
118.01
122.23
124.79
123.91
118.51
108.68
95.72
81.74
69.10
59.65
54.31
52.90
54.47
57.84
62.04
66.57
71.27
76.10
80.84
84.99
87.90
88.86
87.31
82.94
75.81
66.41
55.59
44.51
34.37
26.24
20.79
18.06
17.48
18.06
18.74
18.77
17.88
16.27
14.30
12.17
9.71
6.48
2.14
-3.31
-9.29
-14.96
-19.50
-22.34
-23.18
-21.87
-18.23
-12.21
-4.16
4.91
13.40
19.63
22.34
21.22
16.82
10.25
2.57
-5.47
-13.45
-21.13
-28.13
-33.96
-38.21
-40.70
-41.78
-42.28
-43.33
-46.10
-51.46
-59.66
-70.21
-81.88
-92.93
-101.50
-106.04
-105.59
-99.98
-89.67
-75.58
-58.91
-40.92
-22.83
-5.77
9.32
21.73
31.03
37.17
40.45
41.40
40.68
38.88
36.37
33.25
29.53
25.21
20.49
15.70
11.23
7.30
3.88
0.67
-2.77
-6.81
-11.56
-16.93
-22.55
-27.98
-32.79
-36.67
-39.57
-41.89
-44.44
-48.35
-54.78
-64.30
-76.46
-89.62
-101.27
-108.81
-110.43
-105.57
-95.01
-80.34
-63.31
-45.44
-27.88
-11.62
2.39
13.37
20.94
25.34
27.41
28.24
28.74
29.38
30.20
31.08
31.95
32.85
33.77
34.58
34.90
34.28
32.40
29.24
25.03
20.12
14.89
9.66
4.76
0.52
-2.75
-4.88
-6.05
-6.76
-7.87
-10.22
-14.47
-20.70
-28.30
-36.06
-42.29
-45.44
-44.46
-39.27
-30.71
-20.46
-10.29
-1.65
4.79
9.24
12.45
15.37
18.70
22.66
27.03
31.31
35.00
37.77
39.58
40.60
41.14
41.40
41.50
41.43
41.19
40.83
40.45
40.19
40.00
39.60
38.56
36.36
32.67
27.44
20.96
13.71
6.24
-0.91
-7.32
-12.68
-16.88
-20.08
-22.74
-25.42
-28.64
-32.63
-37.16
-41.64
-45.28
-47.30
-47.07
-44.14
-38.22
-29.35
-18.09
-5.52
6.88
17.55
25.41
30.06
31.78
31.37
29.74
27.70
25.83
24.51
23.91
23.96
24.25
24.12
22.85
20.00
15.68
10.64
6.07
3.18
2.81
4.97
8.82
12.82
15.25
14.73
10.71
3.51
-5.88
-16.23
-26.59
-36.39
-45.39
-53.33
-59.77
-64.01
-65.35
-63.44
-58.52
-51.30
-42.73
-33.63
-24.40
-15.13
-5.76
3.60
12.49
20.09
25.45
27.89
27.28
24.16
19.64
15.08
11.75
10.45
11.41
14.22
18.08
21.98
24.95
26.26
25.51
22.71
18.24
12.81
7.26
2.37
-1.33
-3.72
-5.12
-6.15
-7.57
-9.94
-13.45
-17.79
-22.21
-25.73
-27.41
-26.70
-23.70
-19.15
-14.27
-10.32
-8.10
-7.62
-8.10
-8.33
-7.13
-3.93
1.12
7.22
13.32
18.42
21.83
23.21
22.51
19.97
16.09
11.58
7.16
3.49
0.86
-0.75
-1.67
-2.30
-2.96
-3.86
-5.07
-6.65
-8.65
-11.10
-13.99
-17.21
-20.58
-23.93
-27.11
-30.01
-32.57
-34.69
-36.29
-37.23
-37.29
-36.14
-33.36
-28.44
-20.97
-10.82
1.57
15.15
28.31
39.23
46.31
48.62
46.20
40.08
31.94
23.68
16.87
12.42
10.49
10.63
12.05
13.95
15.68
16.76
16.93
16.03
14.02
11.01
7.21
2.88
-1.72
-6.41
-11.19
-16.13
-21.34
-26.81
-32.24
-37.00
-40.23
-41.11
-39.15
-34.38
-27.31
-18.79
-9.60
-0.30
8.78
17.41
25.21
31.57
35.84
37.56
36.67
33.66
29.34
24.48
19.73
15.47
11.98
9.49
8.29
8.47
9.91
12.14
14.42
15.97
16.20
14.94
12.37
8.94
5.20
1.58
-1.73
-4.78
-7.83
-11.22
-15.21
-19.81
-24.72
-29.35
-32.81
-34.20
-32.78
-28.20
-20.72
-11.10
-0.49
9.93
19.17
26.67
32.28
36.09
38.32
39.11
38.60
36.88
34.12
30.59
26.64
22.67
19.00
15.81
13.16
10.94
8.99
7.12
5.21
3.19
1.05
-1.24
-3.70
-6.32
-9.05
-11.76
-14.27
-16.52
-18.64
-20.98
-24.01
-28.04
-33.01
-38.35
-43.07
-46.00
-46.22
-43.29
-37.44
-29.44
-20.36
-11.29
-3.15
3.54
8.58
11.99
13.99
14.86
14.96
14.66
14.38
14.44
15.07
16.24
17.63
18.76
19.08
18.21
16.09
13.00
9.45
5.97
2.92
0.34
-1.89
-4.01
-6.17
-8.37
-10.63
-13.03
-15.79
-19.16
-23.25
-27.84
-32.40
-36.20
-38.45
-38.56
-36.25
-31.57
-24.86
-16.72
-7.89
0.79
8.58
15.00
19.85
23.21
25.30
26.35
26.45
25.64
23.98
21.67
19.08
16.65
14.80
13.73
13.40
13.51
13.65
13.35
12.26
10.18
7.08
3.02
-1.84
-7.32
-13.25
-19.45
-25.73
-31.92
-37.80
-43.06
-47.31
-50.08
-51.02
-50.01
-47.21
-43.04
-38.06
-32.72
-27.36
-22.13
-17.08
-12.28
-7.86
-3.97
-0.73
1.80
3.66
4.92
5.69
6.10
6.32
6.53
6.89
7.48
8.28
9.21
10.12
10.93
11.56
11.98
12.18
12.13
11.84
11.39
10.97
10.76
10.92
11.46
12.21
12.85
13.02
12.48
11.23
9.64
8.23
7.64
8.31
10.46
14.01
18.68
24.14
30.00
35.89
41.45
46.32
50.22
53.04
54.75
55.50
55.43
54.64
53.17
51.08
48.52
45.74
42.95
40.34
37.95
35.73
33.56
31.34
28.93
26.20
22.93
18.96
14.20
8.76
2.96
-2.79
-8.10
-12.72
-16.57
-19.72
-22.27
-24.30
-25.80
-26.66
-26.74
-25.86
-24.02
-21.26
-17.79
-13.83
-9.63
-5.39
-1.25
2.65
6.22
9.30
11.76
13.48
14.42
14.61
14.14
13.20
11.98
10.67
9.46
8.49
7.83
7.55
7.61
7.89
8.17
8.27
8.07
7.60
7.01
6.47
6.11
5.87
5.53
4.81
3.46
1.36
-1.34
-4.28
-6.91
-8.62
-8.94
-7.74
-5.30
-2.22
0.76
3.07
4.54
5.36
5.96
6.79
8.06
9.74
11.60
13.34
14.68
15.38
15.24
14.12
12.02
9.03
5.40
1.49
-2.36
-5.90
-8.99
-11.60
-13.75
-15.46
-16.75
-17.64
-18.19
-18.53
-18.83
-19.26
-19.99
-21.17
-22.80
-24.82
-26.96
-28.82
-29.88
-29.66
-27.81
-24.32
-19.45
-13.73
-7.74
-2.05
2.98
7.12
10.27
12.44
13.65
13.99
13.62
12.76
11.61
10.39
9.18
8.04
7.00
6.08
5.29
4.64
4.06
3.44
2.65
1.56
0.15
-1.48
-3.19
-4.85
-6.33
-7.67
-8.96
-10.34
-11.97
-13.92
-16.17
-18.59
-20.91
-22.74
-23.65
-23.24
-21.28
-17.83
-13.19
-7.89
-2.52
2.43
6.62
9.91
12.29
13.86
14.68
14.82
14.34
13.31
11.85
10.17
8.49
7.07
6.07
5.50
5.22
4.99
4.56
3.79
2.71
1.43
0.15
-1.05
-2.15
-3.29
-4.62
-6.27
-8.29
-10.60
-13.07
-15.50
-17.69
-19.37
-20.33
-20.35
-19.30
-17.17
-14.10
-10.39
-6.31
-2.17
1.83
5.49
8.61
11.04
12.66
13.48
13.63
13.36
12.91
12.44
12.01
11.58
11.11
10.56
9.90
9.14
8.30
7.38
6.41
5.35
4.16
2.82
1.30
-0.38
-2.16
-3.97
-5.78
-7.58
-9.41
-11.34
-13.40
-15.60
-17.85
-19.94
-21.60
-22.52
-22.38
-20.98
-18.38
-14.80
-10.64
-6.32
-2.20
1.54
4.83
7.71
10.19
12.22
13.70
14.57
14.83
14.58
14.00
13.23
12.35
11.32
10.08
8.64
7.15
5.84
4.94
4.55
4.52
4.52
4.17
3.21
1.64
-0.31
-2.30
-4.02
-5.34
-6.33
-7.19
-8.18
-9.52
-11.29
-13.46
-15.83
-18.07
-19.80
-20.67
-20.46
-19.08
-16.67
-13.44
-9.69
-5.70
-1.67
2.19
5.72
8.76
11.17
12.83
13.70
13.79
13.26
12.28
11.07
9.81
8.65
7.69
6.95
6.44
6.12
5.95
5.81
5.65
5.40
4.97
4.34
3.45
2.32
0.99
-0.44
-1.84
-3.05
-3.99
-4.69
-5.29
-5.99
-6.95
-8.22
-9.80
-11.56
-13.38
-15.08
-16.52
-17.50
-17.80
-17.23
-15.65
-13.10
-9.78
-6.03
-2.27
1.14
3.98
6.18
7.81
8.97
9.74
10.13
10.15
9.80
9.18
8.46
7.77
7.17
6.65
6.12
5.52
4.81
4.04
3.27
2.53
1.81
1.05
0.16
-0.93
-2.24
-3.67
-5.07
-6.24
-7.09
-7.63
-7.99
-8.40
-9.04
-10.07
-11.53
-13.37
-15.47
-17.63
-19.62
-21.21
-22.17
-22.33
-21.61
-19.97
-17.47
-14.29
-10.67
-6.93
-3.41
-0.34
2.14
4.05
5.45
6.40
6.90
6.92
6.47
5.63
4.60
3.61
2.86
2.40
2.17
1.96
1.63
1.07
0.32
-0.51
-1.28
-1.89
-2.40
-2.94
-3.73
-4.84
-6.27
-7.88
-9.45
-10.86
-12.07
-13.15
-14.25
-15.49
-16.86
-18.32
-19.77
-21.00
-21.80
-21.94
-21.23
-19.58
-17.09
-13.93
-10.39
-6.70
-3.03
0.47
3.66
6.33
8.31
9.48
9.88
9.69
9.14
8.48
7.91
7.56
7.54
7.89
8.62
9.65
10.78
11.75
12.30
12.29
11.71
10.72
9.53
8.32
7.10
5.82
4.33
2.58
0.65
-1.23
-2.84
-4.04
-4.88
-5.54
-6.21
-7.05
-8.12
-9.37
-10.70
-11.93
-12.87
-13.30
-13.03
-11.98
-10.22
-8.01
-5.67
-3.45
-1.42
0.52
2.53
4.71
6.98
9.09
10.72
11.57
11.60
10.95
10.00
9.17
8.75
8.83
9.26
9.75
9.93
9.58
8.65
7.31
5.91
4.86
4.55
5.22
6.91
9.34
11.97
14.08
14.95
14.09
11.32
6.86
1.21
-4.99
-11.14
-16.72
-21.34
-24.68
-26.46
-26.57
-25.02
-22.12
-18.34
-14.28
-10.46
-7.20
-4.52
-2.16
0.23
3.01
6.28
9.82
13.10
15.41
16.13
15.00
12.28
8.76
5.57
3.77
4.01
6.30
9.98
13.99
17.23
18.91
18.73
16.92
14.00
10.64
7.48
4.95
3.37
2.91
3.59
5.33
7.91
10.97
13.96
16.23
17.09
16.00
12.75
7.56
1.06
-5.86
-12.25
-17.25
-20.31
-21.21
-20.08
-17.38
-13.72
-9.66
-5.54
-1.32
3.23
8.36
14.08
19.99
25.51
30.09
33.60
36.44
39.33
43.00
47.72
53.19
58.58
62.93
65.44
65.76
64.03
60.81
56.96
53.47
51.40
51.71
55.07
61.67
71.09
82.43
94.51
106.29
117.19
127.24
137.04
147.57
159.87
174.80
192.72
213.18
234.85
255.52
272.66
284.01
288.33
285.80
277.85
266.65
254.30
242.31
231.32
221.23
211.46
201.21
189.67
176.13
160.27
142.28
123.06
104.00
86.53
71.53
59.03
48.08
37.21
25.02
10.72
-5.62
-23.15
-40.75
-57.26
-72.03
-84.91
-96.28
-106.94
-117.96
-130.46
-145.25
-162.45
-181.03
-198.72
-212.53
-219.54
-218.05
-208.35
-192.69
-174.54
-157.32
-143.35
-133.44
-127.24
-124.13
-123.99
-127.44
-135.57
-149.29
-168.76
-193.04
-220.19
-247.52
-272.20
-291.81
-304.84
-310.86
-310.47
-304.86
-295.34
-282.97
-268.49
-252.39
-235.09
-217.05
-198.77
-180.75
-163.39
-147.06
-132.06
-118.54
-106.44
-95.33
-84.54
-73.33
-61.02
-47.05
-31.06
-12.82
7.67
29.94
52.92
75.09
94.87
111.17
123.76
133.13
139.89
143.91
144.01
138.60
127.03
111.12
95.51
86.58
89.89
107.70
137.65
173.57
207.66
233.24
246.62
247.72
239.38
226.20
213.26
205.09
204.69
212.92
228.07
246.38
263.19
274.46
278.07
274.09
264.31
250.99
235.87
219.65
202.19
183.06
162.04
139.46
116.00
92.34
68.73
44.81
19.82
-6.98
-35.82
-66.17
-96.78
-126.01
-152.37
-174.96
-193.76
-209.56
-223.64
-237.51
-252.61
-270.18
-290.83
-313.93
-337.05
-356.03
-366.06
-363.44
-347.44
-321.07
-290.37
-262.20
-241.52
-229.69
-224.11
-219.67
-211.08
-194.98
-170.96
-141.27
-109.47
-78.84
-51.52
-28.27
-9.28
5.12
13.99
16.32
11.90
2.00
-10.71
-23.19
-33.46
-41.48
-48.91
-57.86
-69.16
-81.49
-91.63
-95.76
-91.29
-78.04
-58.45
-36.72
-17.36
-3.74
2.72
2.77
-1.00
-4.95
-5.26
1.15
15.86
38.63
67.62
100.11
133.35
165.24
194.66
221.36
245.65
268.01
288.68
307.45
323.50
335.43
341.60
340.69
332.27
317.13
297.21
275.07
253.21
233.43
216.66
203.03
192.14
183.39
176.14
169.70
163.44
156.78
149.35
141.01
131.89
122.25
112.36
102.40
92.33
82.02
71.24
59.79
47.52
34.42
20.57
6.28
-8.09
-22.05
-35.21
-47.36
-58.70
-69.76
-81.26
-93.89
-107.84
-122.80
-137.98
-152.46
-165.68
-177.87
-190.00
-203.46
-219.47
-238.47
-259.85
-282.26
-304.33
-325.29
-345.46
-365.95
-388.04
-412.64
-440.19
-470.96
-505.40
-543.51
-583.86
-622.33
-652.25
-665.93
-657.42
-624.96
-571.78
-504.67
-431.07
-356.69
-284.91
-218.29
-160.32
-116.15
-90.84
-86.59
-100.55
-125.07
-150.64
-169.88
-180.22
-184.07
-186.59
-192.02
-201.20
-211.04
-216.26
-212.14
-196.95
-172.72
-144.31
-117.21
-95.19
-78.89
-65.94
-52.56
-35.66
-14.31
10.13
35.20
58.95
81.06
102.53
124.50
146.98
168.29
185.74
196.95
201.05
199.00
193.14
185.95
178.98
172.56
166.29
159.92
153.93
149.35
146.88
146.14
145.45
142.43
135.25
123.34
107.71
90.17
72.36
55.09
38.49
22.65
8.34
-2.91
-9.49
-10.53
-6.51
0.93
9.92
19.26
28.98
40.04
53.55
69.66
87.25
104.17
118.01
127.00
130.40
128.49
122.10
112.36
100.28
86.98
73.59
61.22
50.78
42.69
36.74
32.23
28.17
23.58
17.84
10.88
3.08
-4.73
-11.66
-17.15
-21.20
-24.46
-27.90
-32.50
-38.72
-46.30
-54.30
-61.19
-65.14
-64.30
-57.25
-43.57
-24.15
-1.18
22.53
44.53
63.59
80.03
95.08
109.86
124.40
137.50
147.24
152.11
151.74
147.05
139.76
131.64
123.92
117.22
111.83
107.91
105.58
104.71
104.86
105.18
104.63
102.31
97.72
90.96
82.58
73.46
64.49
56.43
49.64
44.09
39.29
34.31
28.11
19.87
9.50
-2.18
-13.69
-23.35
-29.94
-32.84
-32.07
-27.75
-19.86
-8.14
7.57
26.85
48.54
70.86
91.96
110.38
125.34
136.67
144.50
149.05
150.46
148.98
145.09
139.58
133.46
127.85
123.54
120.81
119.41
118.49
117.03
114.04
108.86
101.27
91.49
80.15
68.12
56.40
45.76
36.60
28.72
21.39
13.58
4.21
-7.44
-21.60
-37.80
-55.03
-71.78
-86.39
-97.26
-103.20
-103.68
-98.89
-89.68
-77.29
-63.13
-48.53
-34.66
-22.47
-12.68
-5.81
-2.05
-1.22
-2.76
-5.70
-8.89
-11.11
-11.42
-9.28
-4.67
1.94
9.64
17.43
24.34
29.68
33.19
35.04
35.72
35.90
36.24
37.20
38.90
41.04
42.95
43.80
42.85
39.82
34.99
29.07
22.81
16.69
10.84
5.30
0.60
-1.93
-0.24
7.81
23.54
46.64
74.91
104.72
131.82
152.63
165.03
168.75
165.18
156.62
145.44
133.38
121.17
108.47
94.08
76.37
53.81
25.63
-7.45
-42.90
-76.64
-104.19
-122.25
-130.06
-129.68
-125.05
-120.35
-118.25
-119.05
-120.83
-120.46
-115.09
-103.28
-85.63
-64.56
-43.46
-25.69
-13.69
-8.57
-10.24
-17.93
-30.45
-46.21
-63.03
-78.05
-88.33
-91.79
-88.18
-79.20
-67.65
-56.14
-45.87
-36.35
-26.07
-13.64
1.13
17.07
32.08
44.04
51.64
54.74
54.16
51.31
47.55
43.85
40.59
37.60
34.42
30.56
25.65
19.51
12.23
4.08
-4.53
-13.13
-21.32
-28.89
-35.78
-42.04
-47.72
-52.71
-56.80
-59.84
-61.93
-63.49
-65.14
-67.36
-70.22
-73.30
-76.01
-78.00
-79.47
-81.08
-83.30
-85.79
-86.94
-84.16
-74.95
-58.09
-34.45
-6.95
20.57
44.65
63.25
75.65
81.70
81.06
73.24
58.58
39.19
19.04
2.64
-6.84
-8.81
-4.97
2.34
11.86
24.05
40.09
60.19
82.51
103.79
120.98
132.83
140.10
144.26
145.86
143.63
135.33
119.38
96.56
70.59
47.23
32.46
30.02
40.05
58.73
79.76
96.70
105.48
105.79
100.65
94.64
91.39
92.03
94.99
97.31
96.19
90.39
80.23
67.03
52.09
36.12
19.06
0.53
-19.71
-41.38
-63.63
-85.38
-105.81
-124.85
-143.26
-162.16
-182.28
-203.41
-224.21
-242.81
-257.65
-268.15
-274.89
-279.17
-282.37
-285.28
-287.83
-289.12
-287.76
-282.29
-271.55
-254.94
-232.63
-205.46
-174.82
-142.36
-109.57
-77.65
-47.26
-18.44
9.48
37.53
66.65
96.85
126.93
154.57
177.28
193.40
202.81
206.97
208.16
208.45
209.02
210.20
211.88
213.96
216.45
219.01
220.80
220.34
216.12
207.21
193.86
177.49
160.11
143.36
127.40
110.67
90.29
63.34
28.31
-13.69
-58.91
-101.86
-137.17
-161.27
-173.48
-175.75
-171.46
-163.63
-153.74
-141.46
-125.27
-103.76
-76.83
-46.13
-14.90
12.87
33.31
43.21
40.39
24.17
-4.02
-40.15
-77.78
-109.43
-128.89
-133.53
-125.23
-109.26
-91.44
-75.19
-60.23
-43.60
-22.41
3.61
31.17
54.89
70.02
74.89
71.56
64.46
57.84
53.62
50.64
45.56
34.81
16.35
-9.17
-38.87
-68.77
-95.38
-116.77
-132.77
-144.28
-152.21
-156.78
-157.40
-153.34
-144.49
-131.78
-116.85
-101.39
-86.26
-71.28
-55.62
-38.56
-20.16
-1.44
15.99
30.56
41.33
48.11
51.45
52.15
51.04
48.81
46.01
43.02
40.01
36.89
33.31
28.79
22.97
15.80
7.54
-1.34
-10.40
-19.31
-27.78
-35.56
-42.08
-46.74
-48.84
-47.88
-43.76
-36.68
-26.98
-14.93
-0.76
15.18
32.02
48.26
62.00
71.57
76.21
76.35
73.48
69.32
65.26
61.87
59.02
56.30
53.47
50.64
48.03
45.79
43.78
41.59
38.75
35.01
30.39
25.12
19.62
14.20
9.06
4.18
-0.59
-5.54
-10.97
-17.08
-23.90
-31.22
-38.61
-45.35
-50.62
-53.63
-53.80
-50.93
-45.19
-37.09
-27.29
-16.45
-5.06
6.46
17.71
28.31
37.75
45.56
51.40
55.26
57.44
58.47
58.95
59.34
59.83
60.38
60.92
61.37
61.79
62.29
62.95
63.63
63.89
63.14
60.71
56.17
49.49
41.20
32.28
23.89
17.08
12.36
9.46
7.23
3.94
-2.34
-13.14
-29.00
-49.00
-70.69
-90.61
-105.18
-111.88
-110.16
-101.59
-89.18
-76.28
-65.32
-57.26
-51.73
-47.83
-44.76
-42.15
-39.81
-37.45
-34.54
-30.57
-25.38
-19.37
-13.32
-7.85
-3.10
1.29
5.83
10.79
15.92
20.63
24.24
26.32
26.76
25.66
23.24
19.88
16.07
12.44
9.56
7.76
6.93
6.50
5.64
3.56
-0.12
-5.14
-10.62
-15.27
-17.69
-16.83
-12.22
-4.25
6.01
17.19
27.98
37.49
45.43
51.91
57.12
61.13
63.72
64.49
63.16
59.76
54.77
48.97
43.13
37.68
32.75
28.13
23.61
19.14
14.81
10.84
7.42
4.57
2.09
-0.24
-2.62
-5.14
-7.77
-10.50
-13.39
-16.60
-20.29
-24.44
-28.66
-32.24
-34.23
-33.74
-30.26
-23.83
-14.98
-4.54
6.62
17.75
28.29
37.85
46.13
52.91
58.03
61.48
63.38
63.97
63.50
62.20
60.22
57.69
54.71
51.43
48.02
44.68
41.63
38.97
36.79
35.00
33.42
31.73
29.65
27.01
23.82
20.27
16.57
12.92
9.43
6.18
3.39
1.34
0.37
0.64
2.00
3.97
5.97
7.57
8.75
9.97
11.93
15.36
20.71
27.99
36.82
46.52
56.33
65.65
74.09
81.43
87.63
92.66
96.63
99.66
101.78
102.64
101.39
96.69
87.13
71.79
50.77
25.31
-2.59
-30.82
-57.93
-83.49
-107.86
-131.79
-155.74
-179.55
-202.38
-222.99
-240.05
-252.47
-259.66
-261.42
-258.00
-249.81
-237.34
-221.03
-201.33
-178.75
-153.96
-127.77
-101.08
-74.71
-49.38
-25.73
-4.33
14.21
29.31
40.54
47.75
51.35
52.04
50.84
48.78
46.64
44.85
43.55
42.64
41.97
41.47
41.23
41.44
42.29
43.91
46.19
48.88
51.63
54.10
56.05
57.31
57.81
57.43
55.98
53.26
49.04
43.25
36.03
27.77
19.11
10.81
3.69
-1.63
-4.67
-5.36
-3.94
-0.89
3.21
7.78
12.43
16.96
21.29
25.42
29.35
33.05
36.48
39.61
42.43
44.96
47.16
48.97
50.30
51.03
51.12
50.54
49.38
47.82
46.10
44.44
43.05
42.00
41.26
40.71
40.26
39.87
39.64
39.83
40.65
42.21
44.32
46.45
47.89
48.03
46.62
44.02
41.11
38.96
38.53
40.28
43.95
48.78
53.74
57.99
61.09
63.19
64.85
66.85
69.85
74.15
79.46
84.76
88.42
88.31
82.56
70.21
51.98
30.39
9.29
-7.22
-16.00
-15.71
-6.94
8.39
27.94
49.82
72.93
96.82
121.33
146.21
170.97
194.99
217.56
237.86
254.88
267.36
273.93
273.42
265.39
250.35
229.91
206.38
182.12
158.92
137.51
117.57
98.10
77.88
56.05
32.26
6.66
-20.40
-48.61
-77.70
-107.26
-136.44
-163.91
-187.94
-206.94
-219.91
-226.72
-228.04
-224.98
-218.67
-209.96
-199.35
-187.09
-173.36
-158.40
-142.62
-126.48
-110.59
-95.59
-82.23
-71.30
-63.60
-59.83
-60.40
-65.16
-73.24
-83.14
-92.85
-100.32
-103.87
-102.55
-96.31
-85.86
-72.39
-57.21
-41.35
-25.38
-9.45
6.53
22.64
38.66
54.03
67.86
79.13
86.82
90.17
88.90
83.23
74.02
62.60
50.49
39.09
29.44
21.96
16.43
11.98
7.25
0.70
-8.94
-22.28
-38.92
-57.59
-76.51
-93.90
-108.39
-119.23
-126.07
-128.90
-128.00
-123.96
-117.85
-111.19
-105.67
-102.81
-103.56
-107.98
-115.15
-123.30
-130.13
-133.42
-131.79
-125.12
-114.74
-103.18
-93.37
-87.73
-87.57
-92.80
-102.26
-114.28
-127.21
-139.77
-150.94
-159.70
-164.71
-164.48
-157.74
-144.14
-124.58
-101.05
-76.03
-51.53
-28.39
-6.16
16.47
40.86
67.57
96.04
124.88
152.53
177.95
201.07
222.63
243.73
265.16
286.75
307.19
324.25
335.48
338.88
333.45
319.36
297.78
270.54
239.76
207.79
177.26
151.03
131.72
121.10
119.62
126.31
139.32
156.47
175.79
195.21
212.09
223.07
224.55
213.90
190.68
157.09
117.21
75.50
35.15
-2.60
-38.12
-72.28
-105.54
-137.65
-167.94
-196.05
-222.39
-248.19
-275.07
-304.57
-337.60
-373.95
-411.82
-447.55
-476.04
-491.88
-490.90
-471.60
-435.68
-387.45
-332.28
-275.05
-219.35
-167.46
-121.06
-81.60
-50.27
-27.33
-11.60
-0.40
9.68
21.68
37.28
56.21
76.49
94.96
108.35
114.14
111.30
100.48
83.93
64.84
46.36
30.79
18.91
9.96
2.29
-5.95
-15.93
-27.75
-40.38
-52.10
-61.09
-66.04
-66.62
-63.60
-58.77
-54.31
-52.08
-52.86
-56.10
-60.22
-63.36
-64.28
-62.73
-59.38
-55.23
-51.01
-46.92
-42.82
-38.56
-34.28
-30.49
-27.82
-26.70
-27.04
-28.19
-28.94
-27.94
-24.05
-16.74
-6.32
6.17
19.23
31.29
41.19
48.33
52.66
54.62
54.92
54.47
54.10
54.33
55.21
56.32
56.95
56.40
54.36
50.94
46.62
41.99
37.61
33.95
31.45
30.57
31.67
34.90
40.08
46.74
54.31
62.21
69.79
75.98
79.09
76.94
67.53
49.83
24.55
-5.97
-38.33
-69.21
-96.13
-117.90
-134.42
-146.24
-154.33
-159.70
-163.28
-165.72
-167.18
-167.29
-165.34
-160.63
-152.76
-141.75
-127.88
-111.55
-93.14
-73.02
-51.54
-28.91
-5.21
19.54
45.20
71.28
96.89
120.66
141.03
156.50
165.96
168.98
166.05
158.73
149.49
141.09
135.82
134.80
137.95
144.31
152.89
163.07
174.42
186.12
196.67
204.12
207.11
205.92
202.87
201.72
206.31
218.99
239.52
265.07
290.88
311.57
322.42
320.49
305.26
278.61
244.19
206.24
168.39
132.81
99.85
68.45
36.82
3.35
-32.42
-69.08
-103.19
-130.00
-145.05
-146.17
-134.79
-115.93
-96.44
-82.34
-76.40
-77.36
-80.75
-81.13
-74.23
-58.32
-34.49
-6.23
21.43
42.83
52.70
47.40
25.70
-10.86
-58.50
-112.39
-168.12
-222.62
-274.64
-324.62
-373.84
-423.36
-472.69
-518.94
-556.88
-580.19
-583.59
-565.05
-526.90
-475.09
-417.23
-360.10
-307.98
-262.46
-223.17
-188.95
-158.47
-130.50
-103.82
-77.43
-50.94
-24.66
0.47
23.45
43.63
60.89
75.49
87.78
97.88
105.73
111.38
114.97
116.76
116.94
115.68
113.37
110.85
109.28
109.53
111.46
113.50
113.27
108.67
99.27
87.07
75.84
69.51
70.27
77.47
87.96
97.53
102.84
102.59
97.75
90.86
84.92
82.55
85.54
94.51
108.62
125.39
140.88
150.73
151.63
142.80
126.43
106.98
89.39
77.23
71.81
72.25
76.52
82.43
88.27
92.82
95.18
94.84
91.96
87.78
84.49
84.70
90.40
102.08
118.24
135.66
150.28
158.31
157.29
146.63
127.62
102.87
75.50
48.20
22.66
-0.57
-21.78
-41.52
-60.23
-78.08
-95.08
-111.22
-126.43
-140.50
-152.91
-162.99
-170.11
-174.18
-175.87
-176.47
-177.48
-179.98
-184.24
-189.69
-195.21
-199.54
-201.54
-200.40
-195.70
-187.49
-176.18
-162.56
-147.47
-131.57
-115.10
-97.92
-79.72
-60.42
-40.39
-20.49
-1.85
14.51
27.83
37.80
44.48
48.26
49.83
50.11
50.22
51.22
53.91
58.58
64.85
71.67
77.47
80.59
79.66
74.16
64.65
52.79
40.92
31.37
25.64
23.93
25.13
27.23
28.12
26.17
20.66
11.84
0.66
-11.60
-23.69
-34.64
-43.93
-51.39
-57.02
-60.77
-62.57
-62.37
-60.26
-56.60
-51.88
-46.62
-41.21
-35.72
-30.12
-24.38
-18.58
-12.88
-7.44
-2.27
2.74
7.77
12.99
18.39
23.83
29.08
33.87
37.91
41.01
43.10
44.37
45.22
46.16
47.56
49.55
51.89
54.10
55.71
56.53
56.78
57.02
58.00
60.40
64.60
70.66
78.39
87.41
97.28
107.54
117.66
127.10
135.41
142.30
147.87
152.63
157.35
162.74
169.10
176.12
183.01
188.85
193.05
195.60
197.13
198.64
200.97
204.44
208.78
213.28
217.05
219.25
219.13
215.87
208.60
196.49
179.22
157.28
132.10
105.60
79.51
54.74
31.39
9.41
-10.51
-26.56
-36.16
-37.20
-29.12
-13.32
7.42
30.30
53.59
76.92
100.67
124.88
148.67
170.49
189.16
204.72
218.60
232.82
248.64
265.57
281.24
292.39
296.31
291.97
280.35
263.79
244.96
225.78
207.09
188.77
170.34
151.46
132.14
112.63
93.19
73.88
54.57
35.11
15.50
-3.95
-22.59
-39.69
-54.67
-67.33
-77.87
-86.82
-94.83
-102.36
-109.60
-116.35
-122.25
-126.82
-129.68
-130.61
-129.46
-126.20
-120.83
-113.41
-104.02
-93.68
-83.27
-73.21
-63.38
-53.61
-43.95
-34.74
-26.38
-19.25
-14.39
-12.49
-13.48
-16.57
-20.79
-25.42
-30.13
-34.82
-39.51
-46.05
-55.68
-67.97
-80.93
-92.25
-100.43
-105.09
-106.64
-106.00
-109.25
-120.87
-140.92
-165.16
-188.44
-207.58
-221.90
-232.41
-240.80
-258.97
-295.21
-348.59
-409.45
-466.61
-513.49
-549.05
-575.93
-598.25
-636.18
-703.82
-799.88
-908.49
-1010.97
-1095.50
-1158.85
-1203.40
-1234.08
-1277.14
-1352.46
-1461.72
-1589.40
-1716.25
-1829.70
-1923.89
-1995.70
-1906.75
-1588.65
-1079.91
-506.44
8.07
402.17
672.17
843.24
946.82
1002.96
1013.33
974.60
895.06
797.53
706.79
638.06
595.39
575.98
573.71
566.12
536.08
482.51
419.25
363.44
325.55
307.94
307.78
320.15
330.50
327.61
310.47
287.43
268.79
260.63
263.93
276.49
294.89
311.26
319.35
318.15
311.51
304.44
300.15
299.55
302.09
306.57
310.00
309.69
304.75
296.13
285.53
274.47
264.14
255.45
249.01
244.97
242.74
241.34
239.79
237.65
235.35
234.19
235.90
241.95
252.90
268.11
286.18
305.41
324.60
343.48
362.66
383.40
407.34
436.32
471.84
514.03
560.34
604.85
638.91
653.64
642.99
606.22
548.24
477.66
403.47
332.09
266.35
206.37
151.63
102.36
59.88
25.65
0.20
-17.45
-29.34
-37.52
-43.36
-46.78
-46.96
-42.96
-34.54
-22.56
-9.04
3.41
12.42
16.30
15.53
11.46
6.12
1.34
-2.09
-4.95
-9.42
-18.30
-34.62
-58.36
-88.45
-122.22
-156.43
-188.32
-216.58
-241.52
-264.79
-289.29
-314.91
-342.47
-372.47
-404.80
-437.85
-467.81
-488.69
-494.30
-481.49
-447.44
-395.36
-331.18
-260.93
-188.06
-112.67
-33.41
57.69
142.81
216.24
269.95
299.19
304.84
293.34
274.07
255.55
240.44
226.46
213.31
199.50
184.85
170.00
155.68
141.77
127.02
105.57
72.77
30.67
-17.00
-66.08
-114.32
-161.38
-208.05
-255.19
-309.58
-374.61
-446.09
-517.07
-580.90
-634.47
-678.22
-715.07
-749.09
-791.79
-848.09
-911.43
-967.96
-1003.13
-1008.56
-984.34
-937.88
-828.48
-650.11
-430.84
-216.06
-39.87
87.48
171.14
221.05
246.98
257.57
252.09
230.59
200.47
170.73
148.00
133.91
126.89
124.72
126.12
124.67
117.96
109.37
102.63
100.93
104.45
111.32
119.36
127.10
129.95
125.87
116.31
104.46
93.40
84.40
77.40
71.92
67.68
62.66
55.91
48.04
40.30
33.92
29.23
25.90
23.43
21.41
18.94
15.54
11.41
7.02
2.95
-0.50
-3.26
-5.37
-6.87
-7.77
-8.09
-7.85
-7.14
-6.02
-4.56
-2.91
-1.23
0.27
1.40
1.95
1.72
0.55
-1.63
-4.83
-8.98
-13.89
-19.31
-24.86
-30.13
-34.65
-37.96
-39.67
-39.46
-37.18
-32.85
-26.61
-18.82
-9.90
-0.40
9.20
18.45
26.98
34.57
41.12
46.68
51.32
55.21
58.50
61.32
63.74
65.79
67.44
68.61
69.22
69.22
68.55
67.20
65.17
62.50
59.20
55.32
50.88
45.88
40.36
34.34
27.86
20.97
13.73
6.22
-1.45
-9.11
-16.61
-23.74
-30.30
-36.15
-41.15
-45.23
-48.37
-50.56
-51.82
-52.16
-51.54
-49.96
-47.44
-44.07
-40.03
-35.57
-30.93
-26.34
-21.95
-17.77
-13.75
-9.82
-5.95
-2.20
1.30
4.47
7.33
10.13
13.29
17.33
22.66
29.50
37.71
46.90
56.63
66.56
76.63
87.12
98.46
110.99
124.79
139.53
154.64
169.51
183.75
197.35
210.64
224.21
238.78
255.14
273.94
295.25
318.11
340.29
358.53
369.37
370.43
361.22
343.45
320.26
295.10
270.62
248.15
227.96
209.84
193.64
179.35
166.94
156.03
145.81
135.38
124.11
111.99
99.57
87.81
77.52
69.06
62.15
56.05
49.92
43.12
35.42
27.11
18.81
11.21
4.85
-0.02
-3.49
-5.80
-7.25
-7.94
-7.85
-6.85
-4.85
-1.92
1.77
5.99
10.50
15.04
19.21
22.59
24.71
25.26
24.23
21.94
18.89
15.61
12.46
9.53
6.75
4.00
1.29
-1.16
-2.87
-3.30
-2.09
0.67
4.39
8.15
11.03
12.36
11.81
9.32
5.03
-0.71
-7.19
-13.37
-17.99
-20.03
-19.11
-15.71
-10.92
-5.96
-1.59
2.09
5.43
8.87
12.56
16.17
19.14
20.92
21.25
20.24
18.29
15.87
13.36
10.98
8.78
6.68
4.54
2.20
-0.41
-3.28
-6.34
-9.43
-12.39
-15.04
-17.25
-18.99
-20.49
-22.32
-25.45
-31.01
-39.86
-52.21
-67.35
-83.77
-99.46
-112.36
-120.73
-123.31
-119.46
-109.30
-93.80
-74.75
-54.51
-35.47
-19.53
-7.63
0.25
4.79
6.95
7.62
7.50
7.01
6.29
5.18
3.23
-0.08
-5.14
-11.89
-19.73
-27.67
-34.63
-39.77
-42.79
-43.86
-43.47
-42.25
-40.75
-39.40
-38.49
-38.19
-38.50
-39.23
-40.06
-40.63
-40.56
-39.66
-37.83
-35.13
-31.62
-27.40
-22.51
-17.02
-11.00
-4.56
2.15
8.93
15.54
21.80
27.64
33.15
38.50
43.87
49.28
54.50
59.08
62.60
64.90
66.16
66.83
67.30
67.65
67.56
66.51
64.06
60.12
55.02
49.40
44.01
39.53
36.64
35.82
37.50
41.26
45.52
47.62
44.67
34.68
17.40
-5.46
-30.94
-55.44
-76.12
-91.57
-101.78
-107.55
-109.77
-109.00
-105.41
-99.06
-89.45
-76.56
-61.16
-44.75
-28.90
-14.67
-2.29
8.61
18.56
30.04
44.59
62.09
80.72
98.13
112.85
124.78
134.78
143.87
156.97
177.20
204.41
235.07
264.38
289.09
308.55
324.05
337.34
356.62
387.24
429.35
477.37
523.33
561.28
589.31
608.83
622.80
643.36
679.63
733.52
798.18
861.40
911.39
940.51
946.33
873.78
696.19
423.08
101.85
-207.87
-464.58
-655.19
-786.66
-873.25
-928.31
-952.36
-945.02
-909.93
-856.99
-798.99
-745.85
-701.83
-666.10
-635.81
-601.42
-557.14
-503.19
-445.64
-392.72
-350.07
-318.92
-297.37
-282.44
-267.19
-247.10
-221.14
-191.96
-163.81
-140.01
-121.69
-108.26
-98.24
-87.96
-74.83
-57.92
-38.27
-18.13
0.30
15.60
26.93
33.68
38.60
43.05
47.69
52.35
56.38
58.95
59.58
58.12
54.74
49.74
43.00
34.43
24.12
12.63
0.95
-9.53
-17.48
-22.11
-23.30
-21.79
-18.32
-13.42
-7.19
0.32
8.84
17.59
25.46
31.44
34.72
35.19
33.15
29.02
23.05
15.27
5.63
-5.75
-18.24
-31.19
-44.02
-56.50
-68.65
-80.45
-91.28
-99.83
-104.40
-103.46
-96.55
-84.51
-69.40
-53.78
-40.07
-29.90
-23.89
-21.72
-22.14
-23.29
-22.96
-19.05
-10.19
3.94
22.53
43.80
65.42
85.04
100.71
111.14
115.82
114.89
109.00
99.09
86.18
71.30
55.61
40.27
26.55
15.54
7.71
2.69
-0.72
-4.12
-8.96
-15.73
-23.90
-32.06
-38.78
-43.07
-44.96
-45.16
-44.67
-44.22
-44.20
-44.77
-45.91
-47.19
-47.49
-44.90
-37.21
-22.99
-2.62
21.41
45.17
64.69
77.51
83.40
84.12
82.33
80.34
79.33
79.37
79.75
79.45
77.40
72.52
63.73
50.13
31.26
7.19
-20.99
-51.24
-80.69
-106.06
-124.49
-134.45
-136.38
-132.73
-127.08
-122.88
-122.14
-124.91
-129.79
-135.30
-141.02
-148.00
-158.17
-172.96
-192.34
-214.56
-236.86
-256.49
-271.47
-280.64
-283.29
-278.93
-267.47
-249.71
-227.84
-205.02
-184.35
-167.25
-152.51
-136.42
-114.30
-82.46
-40.00
10.39
62.80
109.68
143.84
160.33
157.53
137.23
103.69
62.18
17.72
-25.79
-65.42
-98.84
-124.01
-139.23
-143.68
-138.14
-124.95
-107.39
-88.72
-71.07
-55.13
-40.50
-26.32
-11.77
3.60
19.86
36.91
54.55
72.49
90.41
108.01
125.17
142.05
159.09
176.80
195.66
215.94
237.61
260.14
282.20
301.50
314.95
319.39
312.82
295.33
269.33
238.71
207.27
177.23
148.81
121.03
93.25
66.47
43.26
26.43
17.26
14.49
14.86
14.86
12.68
9.00
6.45
8.00
15.39
28.46
45.58
64.66
84.01
102.72
120.56
137.70
154.50
171.37
188.49
205.33
220.33
230.87
233.94
227.15
209.71
182.70
148.72
110.98
72.30
34.56
-1.20
-34.37
-64.12
-89.23
-108.20
-120.02
-124.85
-124.29
-121.10
-118.29
-117.99
-120.74
-125.47
-130.04
-132.57
-132.22
-129.77
-127.13
-126.67
-130.45
-139.88
-155.87
-178.40
-205.85
-234.04
-256.36
-265.25
-254.79
-223.39
-174.58
-115.57
-54.07
4.83
59.86
112.41
163.68
212.37
254.12
283.30
295.66
290.52
271.02
242.78
211.65
181.86
155.33
132.11
111.47
92.86
76.50
62.98
52.65
45.12
39.22
33.28
25.78
15.78
3.06
-11.94
-28.43
-45.48
-62.25
-78.04
-92.40
-105.24
-116.83
-127.88
-139.43
-152.78
-169.19
-189.20
-212.10
-235.41
-255.07
-266.43
-265.72
-251.53
-225.68
-192.97
-159.66
-131.57
-112.15
-101.55
-96.92
-93.93
-88.67
-79.29
-66.50
-52.73
-40.78
-32.25
-26.85
-22.88
-18.66
-13.72
-9.33
-8.03
-12.37
-24.04
-43.38
-69.77
-102.25
-140.14
-183.14
-230.94
-282.55
-335.91
-387.97
-435.33
-475.34
-506.93
-530.79
-548.64
-561.83
-570.04
-570.89
-560.79
-536.64
-497.67
-446.12
-386.59
-324.43
-264.00
-207.83
-156.62
-110.21
-68.37
-31.15
1.26
29.08
53.35
75.91
98.82
123.73
151.10
179.85
207.40
230.48
246.15
252.91
251.42
244.28
235.21
227.55
223.06
221.38
220.35
217.17
209.47
196.13
177.14
153.38
126.26
97.82
70.75
47.96
31.77
22.73
18.96
16.34
10.00
-3.92
-26.59
-55.83
-86.70
-112.68
-127.43
-126.39
-107.97
-74.06
-29.68
18.31
63.00
99.13
124.30
139.15
146.66
151.01
156.33
165.38
178.99
195.92
213.37
227.90
236.23
235.97
226.20
207.74
183.18
156.51
132.16
113.83
103.09
98.84
97.78
96.03
90.87
81.88
70.82
60.13
51.43
44.76
38.71
31.43
21.64
9.01
-6.03
-22.64
-39.66
-55.44
-67.89
-74.99
-75.73
-71.09
-63.85
-57.48
-54.35
-54.51
-55.79
-55.13
-50.29
-40.78
-27.78
-12.96
2.37
17.77
33.10
47.80
60.45
69.22
72.90
71.59
66.96
61.51
57.54
56.09
56.65
57.76
57.80
56.04
52.72
48.74
44.96
41.80
39.37
37.79
37.41
38.69
41.69
45.75
49.41
50.77
47.87
39.20
24.06
2.77
-22.97
-49.97
-73.89
-90.02
-94.62
-86.19
-66.03
-38.06
-7.67
19.73
39.92
50.32
50.10
39.97
21.91
-0.69
-23.20
-40.13
-46.04
-36.80
-10.77
31.01
85.32
147.73
213.32
276.86
332.60
374.67
398.26
401.19
385.04
354.92
317.61
279.25
243.60
211.58
182.15
153.94
126.04
97.96
68.81
36.38
-2.99
-53.75
-119.47
-200.62
-292.65
-385.66
-466.21
-521.16
-542.11
-528.33
-486.69
-428.59
-365.29
-304.12
-247.35
-193.45
-139.64
-84.00
-26.12
33.02
91.42
145.99
192.34
225.28
240.46
236.17
214.11
179.09
137.16
93.71
52.51
15.85
-14.72
-37.75
-52.28
-58.68
-59.31
-58.30
-60.57
-70.52
-91.16
-123.39
-165.49
-212.97
-259.00
-295.65
-316.18
-317.20
-299.80
-269.01
-231.43
-192.61
-155.35
-119.63
-84.19
-48.42
-13.62
17.34
41.23
56.12
62.11
61.12
55.85
48.71
41.04
33.08
24.64
15.81
7.41
0.74
-3.03
-3.56
-1.75
0.62
1.61
-0.07
-4.58
-10.83
-17.02
-21.36
-22.77
-21.20
-17.50
-12.81
-7.96
-3.05
2.48
9.31
17.73
27.24
36.76
45.05
51.42
55.91
59.19
62.11
65.21
68.53
71.73
74.43
76.43
77.80
78.82
79.82
81.12
83.10
86.23
91.01
97.51
105.17
112.75
118.77
122.18
122.96
122.18
121.53
122.51
125.77
130.94
137.05
143.13
148.84
154.47
160.77
168.49
178.17
190.11
204.55
221.84
242.27
265.92
292.48
321.01
350.15
378.22
403.43
423.95
438.07
444.35
441.99
431.10
412.85
389.35
363.04
336.15
310.15
285.68
262.80
241.19
220.43
200.06
179.72
159.44
139.88
122.17
107.43
95.93
86.65
77.35
65.41
49.03
27.88
3.25
-22.75
-48.09
-71.57
-92.97
-112.69
-131.35
-149.51
-167.57
-185.72
-204.06
-222.36
-240.29
-257.66
-274.61
-291.82
-310.35
-331.23
-354.97
-381.34
-409.50
-438.29
-466.79
-494.64
-522.08
-549.97
-579.61
-612.80
-651.37
-695.99
-744.75
-792.19
-829.86
-848.64
-842.03
-808.85
-753.84
-685.71
-613.77
-544.71
-481.33
-423.15
-368.39
-315.65
-264.56
-215.25
-167.49
-120.24
-72.03
-21.66
31.09
85.46
139.87
192.56
242.15
287.80
329.30
366.73
400.29
430.11
456.57
480.52
503.41
527.00
552.56
580.01
607.22
630.17
643.93
644.36
629.55
600.81
562.49
520.74
481.75
450.10
427.74
413.80
405.33
398.50
389.89
377.45
360.69
340.38
317.97
295.02
272.78
252.21
233.88
218.07
204.84
193.77
184.16
175.26
166.53
157.93
149.95
143.40
139.03
137.25
137.76
139.74
141.99
143.32
142.88
140.34
135.83
129.81
122.79
115.24
107.48
99.78
92.46
85.95
80.91
78.02
77.86
80.74
86.44
94.18
102.65
110.09
114.55
114.12
107.25
92.90
70.83
41.54
6.25
-33.24
-74.81
-116.22
-155.32
-190.15
-219.13
-241.09
-255.45
-262.18
-261.91
-255.83
-245.64
-233.17
-220.08
-207.69
-196.83
-188.05
-181.73
-178.34
-178.60
-183.37
-193.25
-208.28
-227.63
-249.70
-272.53
-294.21
-313.48
-329.93
-343.81
-355.73
-366.35
-376.25
-385.85
-395.36
-404.42
-411.62
-414.62
-410.78
-398.14
-376.39
-347.24
-313.89
-280.18
-249.43
-223.85
-204.25
-190.38
-181.24
-175.13
-169.92
-163.07
-152.03
-134.72
-110.16
-79.11
-44.70
-12.41
11.07
20.06
12.31
-9.69
-39.33
-68.30
-89.86
-101.01
-102.79
-98.50
-91.28
-82.33
-70.87
-55.50
-35.62
-12.32
11.96
34.60
53.64
68.19
78.24
83.97
85.24
81.56
72.26
57.01
36.33
11.61
-15.05
-41.44
-65.65
-86.61
-104.08
-118.61
-131.10
-142.54
-153.74
-165.24
-177.24
-189.67
-202.26
-214.64
-226.52
-237.78
-248.54
-259.14
-270.16
-282.32
-296.47
-313.32
-332.91
-354.12
-374.29
-389.59
-396.17
-391.39
-374.91
-348.75
-316.44
-281.61
-246.80
-213.09
-180.51
-148.83
-118.19
-89.18
-62.43
-38.20
-16.29
3.75
22.16
38.64
52.40
62.40
67.85
68.68
65.66
60.31
54.40
49.50
46.55
45.56
45.86
46.46
46.58
46.02
45.26
45.20
46.65
49.92
54.58
59.62
63.94
67.02
69.28
72.10
77.22
86.07
99.01
115.08
132.32
148.77
163.26
175.89
187.85
200.58
214.99
231.50
250.34
272.06
297.17
324.62
350.55
368.02
368.90
347.40
302.90
240.36
167.77
92.34
18.12
-53.50
-120.83
-179.22
-221.03
-238.78
-229.42
-196.93
-151.07
-103.13
-61.15
-27.41
0.46
26.52
53.07
79.47
103.19
122.04
135.79
146.77
158.65
174.80
196.88
223.97
253.59
282.68
309.14
332.60
354.37
376.82
402.71
434.61
474.30
521.86
574.47
625.91
667.19
688.97
684.77
653.50
600.02
533.09
461.96
393.09
328.77
267.96
208.40
148.60
88.73
30.03
-26.45
-80.56
-133.18
-185.57
-238.61
-292.55
-347.27
-403.11
-461.12
-522.23
-585.72
-647.68
-700.95
-736.99
-749.08
-735.18
-699.06
-648.76
-593.51
-540.56
-493.56
-452.92
-417.48
-386.08
-358.16
-333.44
-311.22
-290.14
-268.62
-245.65
-221.28
-196.50
-172.92
-151.80
-133.62
-117.86
-103.32
-88.73
-73.33
-57.12
-40.80
-25.43
-11.79
-0.16
9.86
19.09
28.47
38.72
50.26
63.24
77.66
93.52
110.81
129.44
149.34
170.14
191.19
211.78
231.41
249.98
267.71
284.88
301.53
317.61
332.80
346.81
359.63
371.90
384.74
399.35
416.33
435.31
455.46
474.98
491.55
502.95
507.97
507.10
502.72
498.72
499.25
508.48
526.47
547.64
561.82
558.03
529.07
474.57
401.34
321.04
249.72
199.55
175.44
174.84
190.82
215.12
239.55
256.55
259.92
251.96
237.47
221.97
209.77
204.14
207.14
218.67
236.43
257.01
284.32
320.74
363.94
406.16
438.41
455.10
455.71
444.71
384.41
260.76
87.10
-100.14
-264.72
-388.08
-469.01
-515.23
-535.83
-538.54
-522.46
-488.28
-439.69
-386.99
-340.54
-306.71
-287.77
-282.55
-288.11
-295.90
-300.08
-300.20
-301.56
-311.74
-332.54
-363.50
-401.78
-443.54
-481.70
-511.33
-531.41
-544.83
-555.67
-567.08
-581.46
-600.09
-623.17
-647.40
-667.44
-676.61
-668.51
-638.42
-585.14
-512.54
-428.34
-341.57
-259.08
-184.56
-118.81
-61.39
-11.92
29.32
61.35
83.59
96.50
101.44
100.03
93.39
81.88
65.36
43.92
18.42
-9.09
-35.53
-57.63
-72.67
-79.26
-77.59
-69.23
-56.56
-42.08
-27.85
-15.11
-4.38
4.36
11.31
16.64
20.41
22.75
24.05
25.26
27.97
34.32
46.52
66.42
94.78
130.91
172.70
217.02
260.59
300.95
336.92
368.63
396.83
421.94
443.46
459.65
467.89
465.23
449.01
417.62
370.93
310.94
241.60
168.47
97.44
33.30
-21.66
-68.24
-109.52
-148.80
-186.98
-220.96
-243.99
-248.16
-227.97
-183.10
-119.07
-45.23
28.48
94.80
150.50
195.55
231.64
260.75
284.97
306.58
327.79
349.54
369.98
384.17
385.32
367.65
328.86
271.32
201.36
127.23
56.95
-3.00
-48.32
-77.09
-90.11
-91.33
-87.51
-86.84
-96.66
-121.01
-159.01
-204.90
-249.62
-283.46
-299.02
-293.29
-268.44
-231.03
-189.92
-153.73
-128.98
-119.35
-125.74
-146.63
-178.39
-215.35
-250.62
-277.31
-290.22
-287.34
-270.14
-242.52
-209.04
-173.11
-136.22
-98.09
-57.77
-15.00
28.90
70.90
106.97
133.27
147.39
149.26
141.35
127.72
112.64
99.33
89.33
82.74
78.88
76.84
75.76
74.75
72.77
68.89
62.66
54.46
45.52
37.57
32.31
30.91
33.50
39.24
46.38
52.74
56.16
55.04
48.99
38.93
26.91
15.41
6.51
1.28
-0.27
1.21
5.02
10.81
18.39
27.42
37.02
45.58
51.21
52.09
46.97
35.59
18.95
-0.67
-19.68
-33.99
-40.12
-36.51
-23.98
-5.43
15.48
35.78
54.04
70.14
84.37
96.45
105.39
110.07
110.31
107.32
103.32
100.54
99.99
101.07
101.89
100.29
94.82
85.25
72.54
58.12
43.39
29.40
17.33
9.16
7.93
17.27
40.22
78.02
129.14
189.37
252.67
312.45
362.89
399.63
420.46
425.31
415.73
393.96
362.23
322.36
276.10
225.79
174.45
125.53
82.10
45.83
16.38
-8.20
-30.36
-51.83
-72.84
-92.69
-110.21
-124.11
-133.44
-138.08
-139.01
-138.33
-138.78
-142.74
-152.15
-167.73
-188.78
-213.28
-238.87
-263.43
-285.41
-303.66
-313.90
-311.73
-295.49
-267.34
-231.68
-193.10
-155.06
-119.90
-88.41
-60.08
-34.39
-11.09
9.66
27.63
42.50
54.21
63.12
69.21
73.20
75.66
76.96
77.14
76.11
73.76
70.25
65.57
60.29
55.52
51.79
48.67
44.49
36.52
21.07
-1.09
-29.73
-63.46
-99.86
-136.18
-170.24
-200.92
-228.07
-252.43
-275.47
-299.81
-328.00
-361.43
-399.05
-436.57
-466.95
-482.54
-478.04
-452.87
-411.98
-363.43
-315.13
-272.20
-236.14
-205.95
-180.04
-157.64
-139.11
-125.54
-117.29
-113.46
-112.23
-111.72
-110.67
-108.60
-105.34
-100.45
-93.11
-81.92
-65.40
-42.62
-13.79
19.52
54.62
88.70
119.27
144.44
163.24
175.45
181.36
181.52
176.42
166.39
152.91
137.53
121.44
105.31
89.39
73.78
58.68
44.38
31.07
21.37
17.64
20.70
29.88
43.10
58.05
72.99
86.95
99.38
114.01
134.28
161.07
193.20
227.12
259.02
286.27
307.66
323.14
338.63
360.25
391.01
431.95
481.13
535.82
594.21
655.57
687.25
665.47
582.92
453.98
308.68
173.47
61.87
-24.29
-89.77
-141.38
-180.24
-198.91
-200.73
-189.08
-168.44
-143.62
-118.62
-96.10
-77.13
-56.86
-28.57
0.05
26.54
49.62
69.19
86.32
102.54
118.43
134.80
149.46
163.31
171.39
170.76
162.75
152.40
145.18
143.16
144.85
145.10
137.34
116.93
84.46
44.15
1.50
-39.28
-76.72
-110.56
-140.99
-167.43
-187.84
-201.29
-208.30
-210.46
-209.74
-208.04
-205.78
-203.29
-199.92
-194.18
-187.45
-181.78
-178.12
-176.20
-175.45
-173.92
-172.15
-170.60
-169.08
-171.83
-182.64
-201.52
-224.99
-248.62
-266.14
-276.32
-278.86
-273.46
-266.48
-264.36
-269.10
-278.77
-290.76
-300.81
-311.55
-326.38
-305.92
-229.65
-105.34
37.69
170.31
255.31
303.65
327.10
333.02
324.36
306.93
280.54
247.66
213.81
184.39
165.76
156.75
154.88
158.44
161.51
158.27
147.25
130.52
110.93
92.92
75.99
59.48
43.76
26.85
6.28
-18.22
-45.44
-74.26
-102.61
-131.25
-160.45
-189.47
-218.39
-247.91
-278.05
-308.51
-339.38
-370.74
-404.58
-442.95
-486.64
-534.46
-582.18
-622.16
-645.47
-645.23
-619.17
-571.18
-509.27
-442.38
-377.32
-317.54
-263.40
-213.87
-168.20
-126.55
-89.35
-56.51
-27.02
0.68
27.75
54.14
78.58
98.82
112.68
118.93
117.58
109.87
97.58
82.49
65.84
48.22
29.82
10.90
-7.88
-25.39
-40.24
-51.23
-57.73
-59.97
-58.89
-55.89
-52.39
-49.43
-47.56
-46.80
-46.82
-47.16
-47.45
-47.37
-46.69
-45.23
-42.78
-39.14
-34.17
-27.85
-20.34
-12.01
-3.33
5.14
12.91
19.58
24.91
28.86
31.58
33.32
34.44
35.28
36.14
37.20
38.52
40.11
41.86
43.71
45.57
47.44
49.27
51.06
52.76
54.30
55.68
56.90
58.08
59.41
61.04
63.03
65.26
67.39
68.99
69.68
69.31
68.05
66.42
65.10
64.68
65.52
67.60
70.62
74.23
78.31
83.06
89.06
96.99
107.34
120.12
134.91
151.00
167.71
184.69
202.01
220.12
239.70
261.59
286.69
315.70
348.49
383.40
416.92
444.17
460.20
461.80
448.69
423.69
391.62
357.69
325.98
298.85
277.17
260.91
249.70
242.90
239.37
237.34
234.70
229.56
220.95
209.07
195.03
180.27
165.81
151.79
137.50
121.85
103.92
83.52
61.24
38.33
16.27
-3.67
-20.65
-34.38
-45.11
-53.35
-59.69
-64.48
-67.73
-69.27
-68.96
-66.95
-63.67
-59.71
-55.45
-50.82
-45.47
-39.00
-31.44
-23.35
-15.78
-9.77
-6.00
-4.51
-4.83
-6.25
-8.21
-10.52
-13.36
-17.12
-22.10
-28.31
-35.40
-42.81
-50.05
-56.91
-63.58
-70.53
-78.21
-86.72
-95.57
-103.74
-110.02
-113.39
-113.38
-110.16
-104.37
-96.84
-88.21
-78.86
-69.01
-59.03
-49.75
-42.45
-38.54
-39.12
-44.45
-53.73
-65.34
-77.13
-86.91
-92.74
-93.21
-87.54
-75.78
-58.86
-38.44
-16.66
4.44
23.21
38.62
50.21
57.85
61.60
61.68
58.58
53.04
46.06
38.59
31.24
24.14
17.11
9.91
2.56
-4.51
-10.59
-14.93
-17.12
-17.23
-15.68
-13.07
-9.93
-6.57
-3.10
0.46
4.04
7.53
10.74
13.53
15.78
17.50
18.70
19.48
19.93
20.10
20.04
19.72
19.09
18.11
16.77
15.20
13.56
12.08
10.91
10.13
9.67
9.38
9.09
8.69
8.10
7.31
6.34
5.19
3.97
2.89
2.22
2.35
3.59
6.21
10.29
15.68
22.02
28.86
35.67
42.04
47.65
52.33
55.97
58.45
59.64
59.42
57.71
54.46
49.70
43.51
35.96
27.25
17.76
8.03
-1.34
-9.86
-17.40
-24.08
-30.24
-36.20
-42.09
-47.75
-52.80
-56.79
-59.33
-60.21
-59.53
-57.78
-55.74
-54.14
-53.36
-53.16
-52.63
-50.61
-46.17
-39.01
-29.46
-18.22
-5.90
7.22
21.12
35.74
50.69
65.22
78.45
89.77
99.12
106.88
113.58
119.52
124.52
127.98
129.17
127.56
122.92
115.27
104.72
91.40
75.52
57.58
38.35
18.76
-0.34
-18.34
-34.94
-50.00
-63.36
-75.03
-85.26
-94.72
-104.31
-114.74
-125.96
-136.95
-145.93
-150.92
-150.45
-144.01
-132.10
-115.98
-97.23
-77.40
-57.81
-39.44
-22.92
-8.59
3.48
13.39
21.26
27.26
31.56
34.38
35.92
36.33
35.66
33.91
31.18
27.80
24.32
21.40
19.49
18.56
18.05
16.94
14.09
8.62
0.18
-10.88
-23.54
-36.27
-47.34
-55.22
-58.89
-58.08
-53.28
-45.52
-36.08
-26.19
-16.86
-8.84
-2.62
1.60
3.95
4.86
5.07
5.40
6.63
9.19
13.01
17.47
21.45
23.67
23.13
19.52
13.43
6.22
-0.52
-5.51
-8.23
-8.95
-8.47
-7.64
-6.98
-6.53
-5.98
-5.06
-3.79
-2.71
-2.84
-5.36
-11.14
-20.30
-32.09
-44.90
-56.78
-65.98
-71.43
-72.91
-70.81
-65.87
-58.82
-50.38
-41.28
-32.37
-24.48
-18.27
-14.10
-11.95
-11.45
-12.01
-12.98
-13.80
-14.14
-13.87
-12.98
-11.31
-8.50
-4.13
2.00
9.47
17.18
23.62
27.50
28.20
26.02
21.89
16.77
11.29
5.61
-0.24
-6.11
-11.59
-16.24
-19.81
-22.37
-24.24
-25.68
-26.68
-26.95
-26.13
-24.06
-20.95
-17.32
-13.75
-10.69
-8.31
-6.54
-5.24
-4.24
-3.42
-2.69
-2.00
-1.42
-1.12
-1.24
-1.84
-2.79
-3.73
-4.36
-4.57
-4.52
-4.59
-5.08
-6.04
-7.27
-8.47
-9.49
-10.40
-11.37
-12.49
-13.53
-14.02
-13.52
-11.88
-9.39
-6.68
-4.35
-2.73
-1.66
-0.63
0.98
3.64
7.45
12.17
17.36
22.61
27.76
32.78
37.78
42.79
47.71
52.39
56.74
60.84
64.98
69.48
74.46
79.71
84.83
89.47
93.44
96.67
99.02
100.07
99.17
95.76
89.73
81.63
72.43
63.19
54.53
46.55
38.98
31.47
23.87
16.21
8.57
0.90
-6.92
-14.95
-23.05
-30.87
-37.92
-43.78
-48.20
-51.12
-52.61
-52.80
-51.78
-49.69
-46.66
-42.82
-38.21
-32.74
-26.23
-18.59
-9.92
-0.69
8.31
16.20
22.27
26.26
28.46
29.58
30.50
32.04
34.76
38.84
44.09
49.86
55.27
59.28
61.07
60.30
57.26
52.78
47.90
43.42
39.64
36.44
33.55
31.03
29.54
30.25
34.37
42.60
54.78
69.78
86.05
102.10
117.05
130.75
143.61
156.26
169.21
182.61
196.28
209.69
221.95
231.78
237.51
237.26
229.34
212.66
187.07
153.46
113.65
70.17
25.83
-16.73
-55.41
-89.02
-117.46
-141.62
-163.11
-183.96
-206.25
-231.50
-259.65
-288.18
-311.63
-322.63
-314.25
-283.02
-230.92
-165.24
-95.95
-31.93
22.07
66.13
103.60
138.28
172.21
205.09
235.13
260.38
279.43
291.24
294.62
288.10
270.50
241.68
203.33
159.00
113.40
71.29
36.53
11.25
-4.37
-11.88
-14.00
-13.80
-13.83
-15.58
-19.30
-24.44
-30.35
-37.00
-45.27
-56.73
-73.01
-94.97
-122.29
-153.54
-186.41
-218.69
-248.83
-276.42
-302.37
-328.94
-359.46
-397.41
-444.77
-499.93
-556.72
-605.15
-634.45
-637.10
-612.06
-565.31
-507.46
-449.53
-399.08
-358.53
-326.10
-297.97
-270.52
-241.09
-208.27
-172.13
-134.95
-101.75
-79.61
-75.27
-91.92
-127.29
-173.43
-219.26
-254.19
-271.25
-268.40
-247.81
-214.02
-172.16
-127.05
-82.79
-42.75
-9.18
17.34
38.05
55.69
73.60
94.70
120.66
151.88
187.66
226.57
266.65
305.15
338.43
362.51
373.90
370.75
353.54
324.76
287.93
246.46
203.24
161.03
123.21
93.85
76.73
73.59
82.81
99.46
117.08
130.35
137.21
139.31
140.69
145.57
156.23
172.28
191.19
209.61
224.66
234.77
239.91
241.03
239.45
235.92
229.94
219.80
203.24
178.81
147.07
110.87
74.40
41.36
13.58
-9.28
-28.66
-45.60
-59.98
-70.93
-77.94
-81.88
-84.85
-89.05
-95.34
-102.59
-108.29
-109.92
-106.29
-98.03
-87.02
-75.32
-64.36
-54.74
-46.48
-39.64
-34.47
-31.36
-30.57
-31.81
-34.10
-35.93
-35.69
-32.15
-25.07
-15.26
-4.30
6.01
14.35
20.22
23.86
25.85
26.66
26.45
25.21
23.12
20.68
18.76
