1594647650.00
64.000000
-0.00
-0.00
-0.00
-0.00
-0.00
-0.00
-0.00
-0.00
-0.00
-0.00
0.00
0.01
0.01
-0.00
-0.03
-0.05
-0.05
0.00
0.13
0.36
0.66
1.01
1.37
1.72
2.06
2.40
2.79
3.24
3.80
4.42
5.06
5.66
6.20
6.68
7.15
7.68
8.31
9.14
10.09
11.04
11.88
12.56
13.14
13.76
14.66
15.96
17.92
20.31
22.90
25.37
27.58
29.60
31.72
34.36
37.83
42.48
47.96
53.76
59.34
64.36
68.92
73.50
78.75
85.15
93.20
102.36
111.85
120.80
128.72
135.66
142.26
149.77
156.83
165.60
176.65
190.10
204.87
218.16
225.72
222.91
206.23
174.59
130.19
76.78
18.79
-40.29
-98.58
-155.62
-211.51
-266.25
-319.45
-370.06
-417.37
-460.47
-498.29
-529.27
-551.55
-563.30
-563.20
-550.99
-527.23
-493.58
-451.96
-404.24
-352.00
-296.59
-239.42
-182.12
-126.73
-75.44
-30.43
6.76
35.84
58.16
76.60
94.87
116.29
142.42
172.29
202.37
227.83
244.25
249.28
243.37
229.44
211.66
193.88
178.49
166.04
155.74
146.21
136.36
125.84
115.08
105.05
96.73
90.82
87.42
85.98
85.51
84.79
82.85
79.24
74.08
67.91
61.51
55.17
48.92
42.80
37.03
32.15
28.79
27.27
27.23
27.59
26.92
24.08
18.75
11.68
4.32
-1.77
-5.64
-7.26
-7.46
-7.39
-7.83
-8.91
-10.17
-10.92
-10.73
-9.72
-8.40
-7.42
-7.20
-7.76
-8.68
-9.36
-9.30
-8.31
-6.61
-4.73
-3.27
-2.67
-3.01
-4.02
-5.23
-6.20
-6.62
-6.46
-5.79
-4.76
-3.43
-1.90
-0.34
0.98
1.73
1.71
0.98
-0.10
-1.08
-1.60
-1.61
-1.37
-1.23
-1.44
-1.93
-2.39
-2.45
-1.95
-1.11
-0.32
0.02
-0.18
-0.70
-1.13
-1.14
-0.67
0.04
0.62
0.84
0.79
0.76
1.13
2.04
3.28
4.36
4.79
4.37
3.36
2.34
1.90
2.39
3.70
5.33
6.61
6.95
6.03
3.91
1.11
-1.65
-3.51
-3.85
-2.59
-0.29
2.02
3.30
2.94
1.05
-1.67
-4.35
-6.41
-7.79
-8.80
-9.83
-11.00
-12.08
-12.66
-12.51
-11.73
-10.73
-10.02
-9.89
-10.34
-11.04
-11.56
-11.61
-11.16
-10.42
-9.68
-9.20
-9.05
-9.17
-9.33
-9.32
-8.95
-8.09
-6.61
-4.47
-1.76
1.28
4.22
6.58
8.01
8.51
8.48
8.56
9.29
10.89
13.10
15.41
17.31
18.50
18.98
18.91
18.44
17.56
16.10
13.95
11.08
7.63
3.85
0.03
-3.70
-7.00
-9.54
-11.07
-11.62
-11.42
-10.86
-10.29
-9.90
-9.65
-9.40
-9.09
-8.86
-8.95
-9.55
-10.70
-12.16
-13.56
-14.48
-14.58
-13.73
-12.01
-9.61
-6.88
-4.19
-1.90
-0.22
0.82
1.47
2.12
3.14
4.65
6.41
7.94
8.68
8.31
6.93
5.06
3.48
2.89
3.68
5.79
8.70
11.60
13.68
14.33
13.39
11.19
8.46
6.04
4.59
4.32
4.93
5.75
6.12
5.66
4.38
2.63
0.82
-0.80
-2.22
-3.56
-4.85
-5.89
-6.28
-5.63
-3.78
-0.97
2.21
5.08
7.09
8.08
8.27
8.06
7.88
7.90
8.03
7.99
7.50
6.45
5.00
3.48
2.23
1.44
1.12
1.10
1.22
1.41
1.72
2.18
2.70
3.00
2.72
1.65
-0.14
-2.27
-4.24
-5.66
-6.50
-7.04
-7.69
-8.76
-10.23
-11.80
-13.04
-13.61
-13.42
-12.66
-11.61
-10.49
-9.28
-7.79
-5.80
-3.26
-0.44
2.13
3.89
4.51
4.08
3.06
2.13
1.80
2.24
3.16
4.06
4.45
4.15
3.31
2.31
1.51
1.02
0.70
0.30
-0.33
-1.10
-1.73
-1.99
-1.81
-1.48
-1.46
-2.22
-3.95
-6.53
-9.51
-12.30
-14.30
-15.15
-14.76
-13.36
-11.40
-9.35
-7.52
-5.97
-4.52
-2.96
-1.21
0.55
2.00
2.80
2.88
2.49
2.10
2.13
2.70
3.54
4.05
3.69
2.28
0.11
-2.21
-4.07
-5.22
-5.86
-6.37
-6.98
-7.62
-7.97
-7.87
-7.53
-7.50
-8.27
-9.76
-11.21
-11.49
-9.82
-6.32
-2.15
1.03
1.86
-0.06
-4.08
-8.96
-13.45
-16.80
-18.84
-19.74
-19.70
-18.77
-16.87
-14.00
-10.38
-6.60
-3.44
-1.76
-2.12
-4.62
-8.67
-13.14
-16.66
-18.06
-16.87
-13.45
-8.84
-4.27
-0.67
1.67
3.03
3.99
5.00
6.20
7.40
8.36
9.00
9.51
10.27
11.54
13.27
15.00
16.13
16.19
15.14
13.46
11.96
11.41
12.20
14.20
16.89
19.59
21.77
23.22
24.03
24.45
24.67
24.72
24.50
23.83
22.59
20.87
18.90
16.97
15.28
13.81
12.33
10.59
8.46
6.08
3.78
1.95
0.72
-0.07
-0.84
-2.02
-3.83
-6.15
-8.62
-10.84
-12.60
-13.93
-15.05
-16.25
-17.68
-19.38
-21.29
-23.30
-25.31
-27.20
-28.85
-30.02
-30.52
-30.26
-29.35
-28.14
-27.08
-26.62
-27.03
-28.26
-29.91
-31.33
-31.74
-30.51
-27.42
-22.75
-17.21
-11.64
-6.71
-2.62
0.81
3.99
7.24
10.61
13.91
16.89
19.39
21.40
22.97
24.07
24.49
23.95
22.26
19.40
15.63
11.29
6.69
2.00
-2.75
-7.57
-12.43
-17.07
-21.09
-24.00
-25.35
-24.94
-22.91
-19.73
-16.07
-12.59
-9.76
-7.75
-6.47
-5.74
-5.38
-5.28
-5.38
-5.47
-5.29
-4.51
-2.94
-0.64
2.06
4.73
7.04
8.98
10.81
13.01
15.94
19.74
24.17
28.75
32.95
36.41
39.05
41.02
42.58
43.91
45.05
45.88
46.21
45.92
44.97
43.36
41.12
38.25
34.77
30.79
26.55
22.40
18.73
15.83
13.81
12.56
11.81
11.17
10.26
8.83
6.82
4.40
1.92
-0.23
-1.77
-2.61
-2.85
-2.70
-2.38
-2.03
-1.70
-1.44
-1.30
-1.38
-1.76
-2.40
-3.15
-3.80
-4.16
-4.18
-4.01
-3.88
-3.98
-4.37
-4.90
-5.34
-5.49
-5.33
-5.01
-4.77
-4.78
-4.94
-4.93
-4.31
-2.77
-0.26
2.90
6.21
9.18
11.54
13.31
14.73
16.04
17.33
18.40
18.92
18.59
17.35
15.42
13.23
11.20
9.54
8.15
6.75
5.07
3.07
1.00
-0.78
-1.99
-2.63
-3.00
-3.57
-4.66
-6.29
-8.17
-9.90
-11.14
-11.84
-12.17
-12.42
-12.68
-12.83
-12.54
-11.48
-9.57
-7.07
-4.47
-2.29
-0.81
0.05
0.62
1.32
2.32
3.53
4.56
4.95
4.41
2.93
0.81
-1.56
-3.88
-6.04
-8.14
-10.35
-12.72
-15.10
-17.21
-18.73
-19.46
-19.48
-19.06
-18.61
-18.41
-18.62
-19.10
-19.59
-19.83
-19.68
-19.23
-18.70
-18.34
-18.29
-18.49
-18.77
-18.91
-18.85
-18.66
-18.56
-18.71
-19.17
-19.84
-20.52
-21.00
-21.18
-21.06
-20.72
-20.23
-19.52
-18.39
-16.49
-13.43
-8.92
-2.87
4.58
13.05
22.02
30.82
38.85
45.53
50.48
53.53
54.71
54.27
52.60
50.17
47.43
44.72
42.16
39.65
36.90
33.59
29.56
24.96
20.18
15.79
12.21
9.62
7.89
6.74
5.91
5.27
4.79
4.38
3.80
2.68
0.71
-2.20
-5.80
-9.65
-13.34
-16.71
-19.86
-23.03
-26.28
-29.40
-31.90
-33.23
-33.11
-31.65
-29.31
-26.68
-24.22
-22.15
-20.38
-18.75
-17.10
-15.40
-13.73
-12.18
-10.75
-9.39
-7.99
-6.51
-5.00
-3.61
-2.51
-1.80
-1.51
-1.55
-1.75
-1.94
-1.96
-1.69
-1.12
-0.32
0.58
1.46
2.32
3.25
4.36
5.72
7.24
8.72
9.91
10.68
11.09
11.28
11.42
11.57
11.68
11.66
11.44
11.10
10.78
10.59
10.56
10.57
10.46
10.08
9.33
8.26
6.95
5.48
3.96
2.43
0.88
-0.75
-2.65
-5.00
-7.99
-11.64
-15.70
-19.68
-23.00
-25.16
-25.98
-25.53
-24.12
-22.09
-19.66
-16.96
-14.04
-11.04
-8.16
-5.60
-3.46
-1.67
-0.01
1.75
3.72
5.79
7.68
9.08
9.84
10.00
9.82
9.58
9.50
9.60
9.72
9.72
9.51
9.13
8.73
8.47
8.42
8.49
8.57
8.52
8.30
7.93
7.48
7.02
6.56
6.12
5.74
5.50
5.50
5.86
6.57
7.51
8.45
9.13
9.39
9.23
8.83
8.45
8.27
8.39
8.76
9.27
9.82
10.41
11.05
11.81
12.67
13.61
14.53
15.31
15.85
16.02
15.76
15.07
14.02
12.71
11.26
9.75
8.23
6.72
5.26
3.89
2.68
1.70
1.00
0.63
0.58
0.84
1.38
2.13
2.98
3.79
4.41
4.65
4.39
3.61
2.43
1.08
-0.19
-1.20
-1.97
-2.69
-3.58
-4.83
-6.47
-8.38
-10.36
-12.24
-13.90
-15.30
-16.50
-17.55
-18.51
-19.39
-20.14
-20.69
-20.97
-20.96
-20.72
-20.33
-19.85
-19.27
-18.56
-17.66
-16.62
-15.56
-14.62
-13.83
-13.11
-12.22
-10.96
-9.26
-7.23
-5.13
-3.27
-1.79
-0.69
0.21
1.12
2.16
3.34
4.51
5.49
6.12
6.34
6.20
5.90
5.63
5.56
5.71
5.99
6.22
6.24
5.97
5.45
4.79
4.10
3.43
2.77
2.10
1.42
0.77
0.25
-0.13
-0.43
-0.78
-1.35
-2.26
-3.49
-4.84
-6.00
-6.65
-6.56
-5.74
-4.35
-2.69
-1.05
0.41
1.64
2.67
3.55
4.24
4.70
4.91
4.95
4.94
5.01
5.23
5.51
5.69
5.61
5.17
4.41
3.46
2.47
1.59
0.88
0.29
-0.26
-0.82
-1.40
-1.96
-2.39
-2.66
-2.84
-3.08
-3.52
-4.23
-5.12
-5.99
-6.63
-6.93
-6.89
-6.64
-6.27
-5.82
-5.23
-4.39
-3.20
-1.67
0.09
1.90
3.56
4.91
5.89
6.52
6.89
7.12
7.26
7.27
7.07
6.60
5.89
5.05
4.23
3.57
3.08
2.70
2.32
1.87
1.36
0.88
0.53
0.34
0.22
0.01
-0.49
-1.33
-2.40
-3.45
-4.24
-4.68
-4.87
-5.09
-5.54
-6.26
-7.05
-7.55
-7.50
-6.80
-5.62
-4.25
-2.96
-1.90
-1.00
-0.13
0.82
1.90
2.96
3.83
4.27
4.20
3.68
2.94
2.26
1.88
1.85
2.03
2.15
1.94
1.34
0.52
-0.18
-0.40
0.03
1.03
2.28
3.39
4.11
4.43
4.52
4.64
4.94
5.41
5.87
6.15
6.10
5.72
5.06
4.12
2.86
1.17
-1.01
-3.61
-6.45
-9.27
-11.86
-14.17
-16.19
-17.96
-19.46
-20.62
-21.33
-21.56
-21.32
-20.71
-19.83
-18.72
-17.36
-15.71
-13.79
-11.65
-9.37
-7.03
-4.70
-2.39
-0.07
2.34
4.91
7.77
10.98
14.48
18.08
21.41
24.03
25.57
25.79
24.66
22.33
19.01
14.97
10.44
5.69
1.05
-3.07
-6.24
-8.17
-8.86
-8.63
-8.11
-7.92
-8.48
-9.80
-11.52
-13.13
-14.24
-14.76
-14.88
-14.88
-14.92
-14.95
-14.74
-14.11
-13.03
-11.68
-10.37
-9.37
-8.73
-8.33
-7.94
-7.33
-6.44
-5.34
-4.18
-3.11
-2.18
-1.28
-0.27
0.99
2.49
4.10
5.53
6.52
6.92
6.78
6.32
5.86
5.65
5.79
6.24
6.85
7.51
8.17
8.86
9.62
10.43
11.22
11.85
12.21
12.30
12.20
12.03
11.90
11.82
11.75
11.57
11.18
10.51
9.57
8.46
7.32
6.28
5.40
4.68
4.03
3.38
2.76
2.24
1.94
1.89
2.02
2.15
2.14
1.93
1.61
1.31
1.09
0.90
0.62
0.16
-0.42
-0.88
-0.93
-0.31
1.00
2.78
4.67
6.27
7.32
7.75
7.67
7.27
6.77
6.26
5.79
5.33
4.87
4.41
4.01
3.73
3.63
3.70
3.89
4.10
4.25
4.28
4.14
3.82
3.21
2.17
0.51
-1.90
-5.02
-8.60
-12.24
-15.52
-18.17
-20.20
-21.84
-23.40
-25.10
-26.94
-28.70
-30.05
-30.75
-30.70
-29.96
-28.70
-27.07
-25.12
-22.89
-20.42
-17.86
-15.43
-13.39
-11.92
-11.02
-10.52
-10.20
-9.83
-9.30
-8.60
-7.81
-6.98
-6.14
-5.28
-4.38
-3.44
-2.46
-1.49
-0.51
0.49
1.56
2.72
3.99
5.36
6.78
8.19
9.51
10.64
11.48
11.96
12.03
11.77
11.28
10.70
10.17
9.71
9.31
8.91
8.48
8.04
7.70
7.54
7.60
7.77
7.89
7.80
7.45
6.91
6.36
5.97
5.78
5.75
5.74
5.63
5.36
4.96
4.47
3.89
3.17
2.25
1.12
-0.15
-1.38
-2.35
-2.94
-3.09
-2.92
-2.59
-2.28
-2.10
-2.04
-2.07
-2.10
-2.11
-2.12
-2.16
-2.25
-2.28
-2.09
-1.49
-0.37
1.21
3.01
4.68
5.87
6.43
6.37
5.94
5.43
5.09
5.04
5.20
5.41
5.50
5.39
5.08
4.65
4.20
3.82
3.58
3.57
3.87
4.50
5.42
6.44
7.26
7.64
7.40
6.63
5.52
4.37
3.36
2.53
1.82
1.11
0.32
-0.55
-1.45
-2.28
-2.91
-3.21
-3.05
-2.42
-1.38
-0.10
1.25
2.56
3.81
5.01
6.15
7.13
7.83
8.18
8.25
8.24
8.37
8.73
9.25
9.71
9.93
9.82
9.49
9.09
8.76
8.54
8.33
8.03
7.55
6.95
6.35
5.92
5.75
5.82
6.01
6.13
6.01
5.54
4.72
3.60
2.28
0.87
-0.49
-1.70
-2.63
-3.19
-3.32
-2.99
-2.23
-1.15
0.13
1.43
2.60
3.46
3.92
3.96
3.58
2.87
1.85
0.52
-1.14
-3.17
-5.51
-8.04
-10.59
-12.98
-15.07
-16.81
-18.23
-19.37
-20.32
-21.09
-21.65
-21.94
-21.84
-21.29
-20.29
-18.90
-17.28
-15.56
-13.89
-12.34
-10.97
-9.82
-8.88
-8.09
-7.31
-6.38
-5.14
-3.56
-1.78
-0.01
1.52
2.73
3.77
4.89
6.36
8.32
10.70
13.22
15.56
17.39
18.53
18.97
18.77
18.11
17.13
15.92
14.52
12.90
11.02
8.88
6.51
4.00
1.45
-1.06
-3.50
-5.86
-8.10
-10.17
-11.92
-13.24
-14.06
-14.41
-14.38
-14.11
-13.68
-13.05
-12.13
-10.76
-8.87
-6.45
-3.64
-0.64
2.29
4.97
7.30
9.29
11.06
12.71
14.29
15.71
16.81
17.40
17.40
16.88
16.02
15.03
14.05
13.12
12.20
11.28
10.36
9.46
8.57
7.54
6.13
4.06
1.22
-2.22
-5.78
-8.89
-11.12
-12.39
-13.07
-13.78
-15.14
-17.43
-20.50
-23.80
-26.66
-28.54
-29.22
-28.83
-27.67
-26.03
-24.04
-21.71
-19.02
-16.03
-12.95
-10.05
-7.59
-5.68
-4.21
-2.92
-1.57
-0.04
1.59
3.11
4.31
5.11
5.59
6.00
6.57
7.46
8.65
10.00
11.27
12.19
12.60
12.47
11.88
11.06
10.26
9.73
9.65
10.12
11.07
12.34
13.65
14.66
15.04
14.58
13.20
11.06
8.51
5.99
3.89
2.43
1.62
1.29
1.20
1.20
1.21
1.23
1.29
1.33
1.17
0.60
-0.52
-2.19
-4.17
-6.16
-7.82
-8.95
-9.46
-9.34
-8.62
-7.35
-5.62
-3.59
-1.51
0.35
1.80
2.81
3.52
4.09
4.62
5.03
5.09
4.62
3.64
2.47
1.60
1.59
2.73
5.01
8.10
11.54
14.89
17.86
20.31
22.19
23.46
24.09
24.06
23.40
22.19
20.55
18.60
16.44
14.10
11.58
8.79
5.67
2.24
-1.39
-5.00
-8.39
-11.43
-14.16
-16.76
-19.45
-22.33
-25.39
-28.44
-31.27
-33.66
-35.44
-36.49
-36.72
-36.12
-34.73
-32.74
-30.42
-28.02
-25.72
-23.55
-21.42
-19.21
-16.83
-14.28
-11.58
-8.74
-5.70
-2.42
1.08
4.64
7.96
10.77
12.90
14.37
15.39
16.16
16.80
17.32
17.62
17.66
17.46
17.18
16.95
16.90
17.02
17.22
17.38
17.37
17.07
16.39
15.31
13.83
11.98
9.78
7.26
4.47
1.57
-1.22
-3.61
-5.42
-6.66
-7.55
-8.37
-9.29
-10.21
-10.80
-10.71
-9.69
-7.86
-5.52
-3.10
-0.88
1.07
2.81
4.46
6.05
7.50
8.65
9.44
9.85
9.92
9.67
9.01
7.77
5.76
2.85
-0.92
-5.31
-9.89
-14.19
-17.73
-20.21
-21.57
-21.93
-21.54
-20.67
-19.44
-17.88
-15.95
-13.71
-11.35
-9.22
-7.65
-6.80
-6.57
-6.62
-6.49
-5.85
-4.56
-2.72
-0.61
1.46
3.24
4.61
5.64
6.48
7.37
8.51
10.03
11.90
13.94
15.86
17.36
18.20
18.25
17.55
16.25
14.61
12.92
11.46
10.40
9.76
9.41
9.06
8.40
7.22
5.48
3.28
0.84
-1.70
-4.31
-7.09
-10.15
-13.48
-16.83
-19.76
-21.77
-22.50
-21.85
-20.04
-17.51
-14.69
-11.91
-9.27
-6.78
-4.40
-2.20
-0.29
1.21
2.27
2.99
3.50
3.93
4.28
4.51
4.52
4.34
4.07
3.93
4.14
4.83
5.99
7.46
8.95
10.15
10.80
10.74
10.00
8.73
7.18
5.63
4.30
3.30
2.63
2.19
1.78
1.26
0.52
-0.45
-1.59
-2.86
-4.22
-5.63
-6.99
-8.10
-8.68
-8.54
-7.65
-6.20
-4.53
-2.94
-1.60
-0.44
0.69
1.90
3.15
4.27
5.06
5.44
5.49
5.40
5.35
5.40
5.46
5.41
5.20
4.91
4.70
4.77
5.13
5.66
6.10
6.26
6.06
5.62
5.15
4.79
4.56
4.31
3.83
2.99
1.79
0.39
-0.92
-1.88
-2.30
-2.11
-1.40
-0.36
0.78
1.81
2.60
3.18
3.64
4.14
4.77
5.54
6.38
7.17
7.76
8.02
7.80
6.96
5.40
3.12
0.26
-2.95
-6.22
-9.31
-12.05
-14.38
-16.24
-17.62
-18.47
-18.78
-18.57
-17.90
-16.87
-15.55
-14.08
-12.60
-11.27
-10.20
-9.40
-8.75
-8.08
-7.28
-6.32
-5.22
-4.05
-2.77
-1.33
0.33
2.15
3.94
5.47
6.55
7.17
7.45
7.61
7.80
8.07
8.37
8.61
8.73
8.73
8.67
8.60
8.54
8.52
8.53
8.53
8.49
8.35
8.03
7.48
6.65
5.57
4.27
2.84
1.41
0.08
-0.99
-1.73
-2.11
-2.25
-2.37
-2.76
-3.62
-4.98
-6.67
-8.30
-9.49
-9.93
-9.57
-8.61
-7.37
-6.16
-5.09
-4.09
-2.93
-1.42
0.52
2.74
5.02
7.13
9.01
10.72
12.39
14.06
15.51
16.37
16.23
14.87
12.36
9.05
5.36
1.65
-1.94
-5.42
-8.83
-12.10
-15.05
-17.41
-19.00
-19.80
-20.01
-19.87
-19.61
-19.32
-18.99
-18.53
-17.89
-17.05
-16.05
-14.96
-13.78
-12.51
-11.11
-9.54
-7.84
-6.06
-4.28
-2.51
-0.75
1.05
2.97
5.08
7.48
10.22
13.23
16.35
19.27
21.62
23.13
23.68
23.38
22.51
21.41
20.29
19.25
18.22
17.08
15.76
14.24
12.58
10.89
9.28
7.90
6.90
6.40
6.39
6.70
7.00
6.87
5.98
4.21
1.71
-1.15
-4.00
-6.51
-8.56
-10.16
-11.44
-12.52
-13.52
-14.50
-15.51
-16.51
-17.42
-18.10
-18.45
-18.38
-17.93
-17.16
-16.14
-14.90
-13.43
-11.73
-9.85
-7.90
-5.99
-4.21
-2.58
-1.09
0.31
1.58
2.64
3.39
3.80
3.90
3.80
3.64
3.49
3.33
3.08
2.65
2.04
1.37
0.86
0.74
1.13
2.01
3.19
4.41
5.48
6.35
7.13
7.98
8.96
10.01
10.90
11.39
11.31
10.66
9.56
8.24
6.95
5.85
5.00
4.30
3.56
2.58
1.27
-0.25
-1.75
-2.95
-3.67
-3.93
-3.88
-3.67
-3.39
-3.04
-2.58
-2.10
-1.78
-1.84
-2.43
-3.45
-4.61
-5.47
-5.62
-4.83
-3.17
-0.95
1.41
3.54
5.29
6.68
7.85
8.89
9.72
10.09
9.76
8.55
6.53
3.92
1.03
-1.83
-4.45
-6.71
-8.51
-9.78
-10.45
-10.52
-10.05
-9.19
-8.14
-7.10
-6.22
-5.57
-5.05
-4.48
-3.62
-2.34
-0.76
0.75
1.67
1.51
0.12
-2.27
-5.08
-7.60
-9.30
-9.96
-9.69
-8.81
-7.62
-6.35
-5.07
-3.84
-2.71
-1.76
-1.05
-0.54
-0.10
0.43
1.22
2.31
3.61
4.95
6.15
7.02
7.46
7.49
7.19
6.66
5.98
5.18
4.22
3.07
1.79
0.50
-0.61
-1.36
-1.70
-1.71
-1.60
-1.61
-1.89
-2.45
-3.22
-4.04
-4.77
-5.32
-5.62
-5.61
-5.24
-4.45
-3.16
-1.39
0.75
3.05
5.24
7.06
8.33
9.07
9.38
9.45
9.40
9.27
9.04
8.66
8.13
7.56
7.05
6.71
6.52
6.42
6.31
6.19
6.11
6.12
6.23
6.28
6.02
5.15
3.51
1.18
-1.57
-4.29
-6.62
-8.35
-9.54
-10.43
-11.31
-12.37
-13.57
-14.71
-15.51
-15.78
-15.46
-14.65
-13.52
-12.17
-10.58
-8.69
-6.49
-4.06
-1.62
0.55
2.23
3.40
4.18
4.83
5.55
6.42
7.32
8.00
8.23
7.90
7.09
6.04
5.05
4.33
3.95
3.76
3.55
3.12
2.40
1.43
0.35
-0.70
-1.64
-2.46
-3.19
-3.91
-4.69
-5.61
-6.69
-7.89
-9.09
-10.10
-10.74
-10.93
-10.62
-9.89
-8.80
-7.37
-5.66
-3.72
-1.71
0.18
1.76
2.87
3.49
3.63
3.33
2.65
1.66
0.49
-0.71
-1.73
-2.43
-2.69
-2.52
-1.96
-1.10
-0.02
1.19
2.38
3.42
4.15
4.43
4.20
3.50
2.46
1.34
0.38
-0.24
-0.52
-0.60
-0.72
-1.02
-1.52
-2.01
-2.15
-1.61
-0.25
1.88
4.49
7.18
9.56
11.36
12.47
12.92
12.82
12.31
11.50
10.45
9.17
7.65
5.93
4.09
2.30
0.75
-0.38
-1.01
-1.12
-0.82
-0.24
0.46
1.17
1.80
2.27
2.60
2.81
3.00
3.27
3.57
3.69
3.33
2.22
0.30
-2.13
-4.53
-6.34
-7.14
-6.88
-5.76
-4.13
-2.33
-0.55
1.10
2.51
3.60
4.24
4.43
4.26
3.95
3.75
3.87
4.36
5.15
6.04
6.83
7.36
7.58
7.53
7.24
6.74
5.96
4.87
3.44
1.70
-0.26
-2.33
-4.42
-6.41
-8.19
-9.61
-10.59
-11.18
-11.54
-11.91
-12.40
-12.95
-13.26
-12.95
-11.77
-9.68
-6.94
-3.90
-0.91
1.83
4.24
6.33
8.08
9.46
10.43
11.02
11.38
11.69
12.15
12.79
13.48
13.89
13.69
12.65
10.80
8.42
5.99
4.00
2.78
2.40
2.66
3.17
3.49
3.30
2.41
0.81
-1.35
-3.88
-6.56
-9.17
-11.58
-13.73
-15.59
-17.15
-18.36
-19.11
-19.25
-18.69
-17.42
-15.61
-13.53
-11.49
-9.69
-8.25
-7.16
-6.39
-5.89
-5.61
-5.47
-5.34
-5.09
-4.63
-3.98
-3.25
-2.56
-1.97
-1.45
-0.96
-0.48
-0.07
0.14
0.06
-0.34
-0.96
-1.65
-2.26
-2.72
-2.97
-2.98
-2.69
-2.06
-1.09
0.04
1.06
1.62
1.46
0.52
-1.04
-2.80
-4.28
-5.03
-4.78
-3.50
-1.36
1.28
4.00
6.38
8.03
8.74
8.48
7.43
5.93
4.41
3.23
2.62
2.65
3.30
4.49
6.18
8.30
10.70
13.18
15.50
17.47
18.98
20.06
20.80
21.29
21.55
21.53
21.25
20.76
20.19
19.63
19.04
18.10
16.38
13.44
9.08
3.43
-3.00
-9.56
-15.63
-20.78
-24.88
-27.89
-29.85
-30.73
-30.51
-29.26
-27.19
-24.68
-22.12
-19.75
-17.64
-15.67
-13.65
-11.51
-9.34
-7.34
-5.74
-4.68
-4.12
-3.88
-3.66
-3.18
-2.17
-0.51
1.76
4.48
7.35
10.04
12.26
13.79
14.50
14.34
13.37
11.76
9.83
7.92
6.29
5.02
4.02
3.11
2.20
1.43
1.07
1.31
2.17
3.36
4.47
5.16
5.25
4.81
4.01
3.02
2.01
1.16
0.69
0.80
1.58
2.90
4.35
5.46
5.81
5.28
4.01
2.29
0.48
-1.23
-2.75
-4.07
-5.17
-6.01
-6.50
-6.68
-6.70
-6.77
-7.06
-7.60
-8.29
-8.92
-9.35
-9.58
-9.69
-9.70
-9.51
-8.86
-7.44
-5.15
-2.21
0.91
3.66
5.66
6.82
7.32
7.45
7.43
7.37
7.18
6.77
6.09
5.25
4.46
3.96
3.89
4.27
4.98
5.77
6.40
6.72
6.70
6.51
6.36
6.44
6.81
7.38
7.95
8.41
8.71
8.96
9.30
9.81
10.41
10.87
10.87
10.15
8.60
6.30
3.52
0.61
-2.07
-4.28
-5.94
-7.13
-8.01
-8.78
-9.55
-10.32
-11.02
-11.55
-11.88
-12.03
-12.09
-12.10
-12.04
-11.84
-11.45
-10.83
-10.06
-9.23
-8.47
-7.82
-7.27
-6.78
-6.32
-5.87
-5.42
-4.95
-4.46
-3.98
-3.61
-3.50
-3.77
-4.43
-5.37
-6.40
-7.29
-7.86
-8.02
-7.73
-7.05
-6.05
-4.90
-3.73
-2.67
-1.78
-1.03
-0.33
0.43
1.28
2.23
3.26
4.34
5.49
6.76
8.20
9.83
11.62
13.52
15.39
17.11
18.52
19.49
19.93
19.79
19.15
18.12
16.88
15.58
14.28
12.87
11.10
8.70
5.46
1.35
-3.48
-8.72
-14.02
-18.97
-23.19
-26.32
-28.06
-28.25
-26.97
-24.53
-21.40
-18.04
-14.76
-11.67
-8.67
-5.65
-2.60
0.36
3.01
5.17
6.76
7.89
8.73
9.47
10.21
10.93
11.56
12.04
12.35
12.52
12.63
12.74
12.85
12.95
13.03
13.12
13.25
13.44
13.65
13.74
13.54
12.87
11.72
10.20
8.56
7.01
5.64
4.36
2.96
1.21
-1.10
-4.02
-7.50
-11.39
-15.42
-19.27
-22.61
-25.15
-26.68
-27.13
-26.54
-25.03
-22.76
-19.92
-16.74
-13.43
-10.20
-7.16
-4.41
-1.99
-0.04
1.30
1.89
1.73
0.99
0.02
-0.79
-1.15
-0.98
-0.43
0.21
0.67
0.75
0.46
-0.04
-0.56
-0.90
-0.96
-0.73
-0.19
0.67
1.86
3.34
4.95
6.46
7.58
8.17
8.32
8.26
8.29
8.57
9.04
9.45
9.51
9.08
8.28
7.43
6.85
6.74
7.05
7.52
7.85
7.78
7.21
6.20
4.86
3.39
1.90
0.53
-0.65
-1.57
-2.19
-2.48
-2.53
-2.45
-2.49
-2.87
-3.82
-5.43
-7.61
-10.12
-12.60
-14.66
-15.98
-16.30
-15.54
-13.73
-11.08
-7.81
-4.16
-0.32
3.57
7.35
10.80
13.64
15.67
16.86
17.38
17.54
17.65
17.85
18.10
18.21
17.96
17.17
15.78
13.83
11.39
8.59
5.56
2.41
-0.81
-4.04
-7.23
-10.24
-12.91
-15.05
-16.52
-17.31
-17.51
-17.24
-16.62
-15.74
-14.65
-13.42
-12.11
-10.78
-9.40
-7.95
-6.44
-4.92
-3.57
-2.57
-2.04
-1.94
-2.06
-2.11
-1.82
-1.06
0.17
1.78
3.66
5.72
7.91
10.11
12.14
13.78
14.83
15.20
15.02
14.54
14.01
13.57
13.12
12.36
10.90
8.42
4.83
0.36
-4.54
-9.30
-13.44
-16.66
-18.87
-20.15
-20.67
-20.59
-20.02
-19.07
-17.81
-16.31
-14.64
-12.86
-11.06
-9.31
-7.65
-6.06
-4.44
-2.64
-0.58
1.66
3.80
5.43
6.21
6.03
5.13
3.96
3.06
2.74
3.03
3.69
4.41
4.96
5.29
5.52
5.81
6.23
6.77
7.25
7.51
7.44
7.03
6.33
5.39
4.23
2.82
1.19
-0.60
-2.35
-3.85
-4.92
-5.48
-5.62
-5.45
-5.10
-4.56
-3.73
-2.50
-0.80
1.29
3.54
5.63
7.24
8.19
8.42
8.07
7.36
6.56
5.88
5.44
5.32
5.54
6.10
6.93
7.86
8.63
8.95
8.61
7.60
6.15
4.63
3.39
2.55
1.95
1.16
-0.27
-2.61
-5.74
-9.19
-12.31
-14.48
-15.36
-14.92
-13.42
-11.17
-8.47
-5.52
-2.44
0.66
3.68
6.54
9.17
11.58
13.78
15.74
17.34
18.30
18.29
17.04
14.46
10.74
6.32
1.73
-2.50
-6.01
-8.65
-10.43
-11.44
-11.75
-11.44
-10.60
-9.40
-8.04
-6.78
-5.78
-5.07
-4.49
-3.77
-2.62
-0.98
0.90
2.50
3.11
2.19
-0.43
-4.44
-9.16
-13.78
-17.61
-20.26
-21.62
-21.76
-20.81
-18.89
-16.14
-12.79
-9.12
-5.50
-2.25
0.40
2.38
3.72
4.51
4.84
4.77
4.40
3.83
3.15
2.48
1.91
1.51
1.36
1.51
2.04
2.94
4.15
5.52
6.88
8.03
8.83
9.15
8.89
8.01
6.56
4.70
2.69
0.77
-0.86
-2.10
-2.93
-3.36
-3.38
-3.00
-2.22
-1.12
0.20
1.67
3.24
4.93
6.75
8.64
10.46
12.00
13.04
13.46
13.27
12.59
11.62
10.56
9.53
8.58
7.68
6.76
5.74
4.60
3.42
2.33
1.46
0.92
0.67
0.57
0.44
0.08
-0.61
-1.63
-2.91
-4.35
-5.83
-7.18
-8.28
-9.00
-9.30
-9.17
-8.66
-7.85
-6.83
-5.69
-4.53
-3.51
-2.74
-2.32
-2.23
-2.37
-2.61
-2.85
-3.11
-3.46
-3.99
-4.72
-5.55
-6.29
-6.71
-6.69
-6.22
-5.45
-4.64
-3.99
-3.57
-3.30
-2.97
-2.40
-1.53
-0.51
0.39
0.84
0.65
-0.21
-1.53
-2.98
-4.23
-5.04
-5.33
-5.20
-4.78
-4.19
-3.48
-2.70
-1.88
-1.13
-0.59
-0.34
-0.37
-0.53
-0.62
-0.41
0.19
1.14
2.30
3.48
4.50
5.24
5.67
5.86
5.93
6.01
6.18
6.41
6.60
6.61
6.35
5.88
5.31
4.86
4.69
4.88
5.39
6.08
6.81
7.43
7.88
8.08
7.95
7.40
6.40
5.09
3.83
3.11
3.33
4.53
6.26
7.70
8.03
6.82
4.21
0.86
-2.40
-4.92
-6.44
-7.08
-7.03
-6.40
-5.14
-3.12
-0.38
2.80
5.93
8.51
10.18
10.92
10.98
10.72
10.43
10.21
9.93
9.38
8.39
6.95
5.22
3.44
1.83
0.47
-0.66
-1.65
-2.56
-3.42
-4.24
-5.11
-6.16
-7.52
-9.26
-11.35
-13.63
-15.87
-17.88
-19.54
-20.77
-21.56
-21.89
-21.74
-21.09
-19.95
-18.31
-16.21
-13.74
-11.05
-8.33
-5.79
-3.51
-1.45
0.54
2.66
5.02
7.49
9.69
11.10
11.28
9.99
7.39
3.96
0.30
-3.04
-5.74
-7.68
-8.93
-9.56
-9.63
-9.20
-8.40
-7.39
-6.37
-5.42
-4.50
-3.45
-2.17
-0.72
0.63
1.54
1.78
1.40
0.70
0.15
0.10
0.68
1.77
3.10
4.39
5.44
6.14
6.43
6.29
5.76
4.93
4.01
3.24
2.86
2.98
3.57
4.47
5.46
6.33
6.93
7.22
7.21
6.97
6.57
6.09
5.56
4.96
4.26
3.40
2.36
1.23
0.21
-0.44
-0.45
0.27
1.66
3.45
5.35
7.10
8.62
9.93
11.10
12.08
12.72
12.79
12.10
10.63
8.51
6.01
3.47
1.15
-0.73
-2.08
-2.91
-3.32
-3.50
-3.74
-4.33
-5.47
-7.24
-9.45
-11.79
-13.81
-15.16
-15.60
-15.10
-13.83
-12.05
-10.05
-8.02
-6.10
-4.34
-2.71
-1.13
0.50
2.32
4.41
6.76
9.29
11.81
14.15
16.18
17.85
19.23
20.40
21.45
22.36
22.98
23.03
22.11
19.85
15.98
10.49
3.70
-3.74
-11.05
-17.46
-22.40
-25.62
-27.16
-27.29
-26.35
-24.67
-22.55
-20.25
-18.03
-16.15
-14.81
-14.05
-13.77
-13.73
-13.66
-13.43
-13.08
-12.83
-12.89
-13.36
-14.10
-14.78
-14.98
-14.31
-12.60
-9.88
-6.35
-2.34
1.86
6.04
9.99
13.53
16.43
18.45
19.43
19.36
18.49
17.24
16.08
15.32
15.02
15.05
15.11
14.96
14.42
13.48
12.25
10.88
9.58
8.53
7.84
7.47
7.22
6.83
6.03
4.71
2.94
0.96
-0.93
-2.48
-3.56
-4.18
-4.42
-4.43
-4.39
-4.47
-4.84
-5.56
-6.60
-7.72
-8.54
-8.69
-7.88
-6.10
-3.68
-1.21
0.66
1.48
1.19
0.17
-0.88
-1.31
-0.74
0.69
2.52
4.18
5.30
5.79
5.80
5.51
4.97
4.12
2.95
1.63
0.54
0.10
0.57
1.83
3.47
4.91
5.66
5.47
4.40
2.72
0.80
-1.01
-2.39
-3.20
-3.40
-3.03
-2.22
-1.10
0.16
1.42
2.49
3.25
3.55
3.40
2.91
2.31
1.91
1.99
2.65
3.82
5.25
6.62
7.68
8.28
8.49
8.40
8.12
7.68
7.08
6.30
5.41
4.51
3.64
2.76
1.66
0.08
-2.14
-4.95
-8.09
-11.12
-13.65
-15.41
-16.31
-16.47
-16.10
-15.40
-14.55
-13.61
-12.61
-11.50
-10.24
-8.79
-7.21
-5.66
-4.31
-3.35
-2.86
-2.82
-3.10
-3.54
-3.96
-4.20
-4.15
-3.70
-2.88
-1.82
-0.83
-0.27
-0.44
-1.45
-3.19
-5.32
-7.42
-9.07
-9.96
-9.97
-9.15
-7.71
-5.96
-4.27
-2.98
-2.35
-2.46
-3.24
-4.44
-5.75
-6.86
-7.51
-7.63
-7.28
-6.65
-5.99
-5.47
-5.20
-5.15
-5.25
-5.42
-5.57
-5.63
-5.47
-4.95
-3.87
-2.12
0.30
3.26
6.51
9.78
12.82
15.47
17.60
19.12
19.99
20.19
19.79
18.95
17.88
16.75
15.64
14.51
13.25
11.75
9.95
7.90
5.69
3.46
1.38
-0.37
-1.62
-2.29
-2.43
-2.23
-1.91
-1.62
-1.31
-0.74
0.42
2.37
5.11
8.31
11.42
13.86
15.23
15.31
14.16
12.04
9.31
6.37
3.63
1.42
-0.09
-0.87
-1.08
-0.96
-0.75
-0.59
-0.53
-0.52
-0.55
-0.64
-0.89
-1.47
-2.53
-4.19
-6.48
-9.29
-12.36
-15.24
-17.38
-18.30
-17.69
-15.57
-12.30
-8.49
-4.84
-1.86
0.18
1.37
2.02
2.45
2.91
3.41
3.83
4.01
3.96
3.88
4.06
4.69
5.64
6.48
6.66
5.80
3.91
1.46
-0.87
-2.48
-3.13
-2.99
-2.43
-1.80
-1.26
-0.76
-0.14
0.63
1.47
2.15
2.47
2.37
1.95
1.46
1.21
1.41
2.18
3.48
5.10
6.74
8.03
8.68
8.53
7.67
6.36
4.95
3.66
2.51
1.33
-0.14
-1.96
-3.95
-5.71
-6.78
-6.90
-6.15
-4.89
-3.63
-2.77
-2.51
-2.79
-3.46
-4.30
-5.09
-5.63
-5.72
-5.25
-4.25
-2.97
-1.87
-1.46
-2.13
-3.91
-6.52
-9.40
-11.95
-13.72
-14.53
-14.44
-13.66
-12.42
-10.90
-9.19
-7.37
-5.54
-3.89
-2.63
-1.97
-1.97
-2.57
-3.55
-4.66
-5.68
-6.49
-7.06
-7.42
-7.53
-7.28
-6.53
-5.16
-3.19
-0.82
1.60
3.71
5.28
6.26
6.79
7.10
7.36
7.65
7.89
7.98
7.87
7.61
7.27
6.90
6.49
5.92
5.15
4.24
3.38
2.87
2.93
3.59
4.69
5.95
7.05
7.81
8.22
8.34
8.33
8.28
8.24
8.13
7.86
7.32
6.54
5.60
4.69
3.96
3.47
3.11
2.74
2.20
1.47
0.67
0.01
-0.39
-0.53
-0.56
-0.70
-1.08
-1.73
-2.52
-3.24
-3.68
-3.75
-3.47
-3.00
-2.52
-2.23
-2.19
-2.36
-2.52
-2.42
-1.84
-0.71
0.89
2.76
4.65
6.36
7.78
8.83
9.45
9.63
9.42
9.01
8.74
8.94
9.80
11.19
12.67
13.67
13.71
12.64
10.66
8.25
5.91
3.96
2.41
1.08
-0.34
-2.03
-3.96
-5.98
-7.84
-9.42
-10.70
-11.76
-12.72
-13.62
-14.42
-15.01
-15.28
-15.21
-14.80
-14.16
-13.36
-12.44
-11.39
-10.18
-8.77
-7.21
-5.61
-4.08
-2.76
-1.69
-0.81
-0.07
0.62
1.23
1.74
2.08
2.27
2.36
2.43
2.55
2.73
2.94
3.11
3.19
3.15
3.00
2.75
2.42
2.04
1.61
1.15
0.65
0.15
-0.35
-0.84
-1.33
-1.83
-2.36
-2.89
-3.39
-3.77
-3.95
-3.87
-3.53
-3.03
-2.52
-2.13
-1.93
-1.89
-1.88
-1.77
-1.46
-0.92
-0.21
0.57
1.30
1.88
2.19
2.21
1.97
1.62
1.35
1.35
1.69
2.29
3.01
3.69
4.25
4.68
5.04
5.29
5.36
5.10
4.40
3.28
1.86
0.36
-1.04
-2.25
-3.26
-4.11
-4.78
-5.16
-5.10
-4.44
-3.20
-1.55
0.19
1.70
2.74
3.25
3.34
3.18
2.92
2.61
2.21
1.69
1.06
0.44
-0.00
-0.08
0.29
1.07
2.12
3.22
4.18
4.88
5.29
5.49
5.59
5.71
5.91
6.23
6.63
7.15
7.78
8.55
9.43
10.33
11.09
11.57
11.73
11.67
11.55
11.51
11.54
11.43
10.88
9.61
7.47
4.56
1.13
-2.49
-6.02
-9.29
-12.25
-14.95
-17.39
-19.55
-21.29
-22.43
-22.75
-22.15
-20.66
-18.47
-15.90
-13.32
-11.05
-9.30
-8.16
-7.57
-7.40
-7.43
-7.45
-7.27
-6.84
-6.17
-5.41
-4.77
-4.45
-4.55
-5.04
-5.72
-6.31
-6.57
-6.36
-5.76
-5.04
-4.58
-4.70
-5.53
-6.92
-8.47
-9.68
-10.16
-9.75
-8.62
-7.10
-5.55
-4.11
-2.71
-1.08
1.07
3.83
7.11
10.58
13.93
16.87
19.29
21.16
22.45
23.11
23.07
22.35
21.13
19.71
18.45
17.59
17.16
16.95
16.64
15.97
14.86
13.43
11.84
10.24
8.60
6.80
4.68
2.17
-0.63
-3.44
-5.89
-7.60
-8.28
-7.85
-6.42
-4.27
-1.80
0.55
2.38
3.33
3.13
1.62
-1.17
-4.98
-9.33
-13.56
-16.99
-19.09
-19.68
-18.91
-17.26
-15.34
-13.70
-12.66
-12.26
-12.30
-12.48
-12.54
-12.29
-11.71
-10.77
-9.49
-7.85
-5.89
-3.74
-1.64
0.16
1.43
2.12
2.31
2.23
2.12
2.24
2.74
3.68
4.98
6.47
7.90
9.03
9.77
10.15
10.37
10.71
11.37
12.47
13.95
15.69
17.51
19.27
20.87
22.18
23.09
23.47
23.24
22.43
21.20
19.83
18.57
17.56
16.74
15.88
14.69
12.98
10.68
7.84
4.50
0.63
-3.90
-9.18
-15.06
-21.12
-26.76
-31.32
-34.41
-35.95
-36.14
-35.30
-33.67
-31.39
-28.56
-25.30
-21.86
-18.61
-15.82
-13.64
-11.98
-10.59
-9.14
-7.39
-5.24
-2.80
-0.35
1.75
3.15
3.64
3.17
1.90
0.12
-1.85
-3.72
-5.29
-6.42
-7.05
-7.15
-6.75
-5.93
-4.81
-3.54
-2.21
-0.91
0.30
1.37
2.27
2.98
3.55
4.08
4.71
5.56
6.70
8.10
9.64
11.15
12.48
13.55
14.42
15.18
15.95
16.68
17.18
17.12
16.23
14.41
11.81
8.83
5.95
3.53
1.74
0.55
-0.24
-0.87
-1.56
-2.40
-3.36
-4.30
-5.06
-5.52
-5.67
-5.60
-5.45
-5.35
-5.33
-5.32
-5.25
-5.03
-4.70
-4.32
-3.94
-3.56
-3.07
-2.35
-1.30
0.08
1.67
3.32
4.89
6.36
7.79
9.28
10.83
12.35
13.62
14.39
14.51
14.04
13.17
12.21
11.47
11.14
11.26
11.69
12.22
12.55
12.48
11.92
10.92
9.64
8.25
6.84
5.44
3.97
2.26
0.09
-2.79
-6.56
-11.28
-16.77
-22.61
-28.18
-32.81
-35.99
-37.48
-37.38
-36.02
-33.91
-31.49
-29.05
-26.69
-24.32
-21.77
-18.87
-15.62
-12.17
-8.81
-5.91
-3.73
-2.41
-1.88
-1.93
-2.25
-2.50
-2.41
-1.80
-0.61
1.10
3.13
5.27
7.30
9.11
10.68
12.08
13.39
14.63
15.73
16.52
16.78
16.36
15.25
13.59
11.67
9.85
8.43
7.59
7.31
7.42
7.61
7.65
7.39
6.87
6.27
5.86
5.85
6.40
7.55
9.26
11.40
13.79
16.15
18.14
19.41
19.75
19.13
17.74
15.94
14.08
12.46
11.22
10.36
9.70
8.97
7.79
5.84
2.86
-1.15
-5.99
-11.23
-16.36
-21.00
-24.91
-28.02
-30.37
-32.00
-32.92
-33.14
-32.67
-31.56
-29.88
-27.69
-25.05
-22.05
-18.82
-15.58
-12.56
-9.93
-7.71
-5.79
-3.99
-2.25
-0.65
0.56
1.11
0.90
0.13
-0.75
-1.21
-0.84
0.42
2.40
4.73
7.13
9.50
11.93
14.55
17.44
20.47
23.36
25.77
27.39
28.09
27.89
26.96
25.58
24.04
22.58
21.28
20.09
18.74
16.86
14.11
10.29
5.47
-0.07
-5.87
-11.44
-16.32
-20.12
-22.57
-23.50
-22.87
-20.84
-17.75
-14.07
-10.29
-6.83
-3.89
-1.49
0.42
1.98
3.30
4.49
5.66
6.84
7.98
8.90
9.24
8.68
7.00
4.27
0.85
-2.75
-6.02
-8.68
-10.64
-12.01
-12.92
-13.42
-13.46
-12.96
-11.85
-10.23
-8.34
-6.52
-5.18
-4.58
-4.81
-5.69
-6.89
-7.93
-8.39
-7.99
-6.70
-4.69
-2.31
0.09
2.21
3.91
5.14
5.95
6.43
6.62
6.56
6.32
6.05
5.88
5.93
6.19
6.48
6.56
6.25
5.50
4.49
3.54
2.91
2.73
2.90
3.15
3.22
2.89
2.14
1.08
-0.13
-1.32
-2.34
-3.11
-3.53
-3.51
-3.03
-2.09
-0.80
0.69
2.25
3.77
5.15
6.36
7.31
7.93
8.15
7.94
7.32
6.38
5.23
4.04
2.91
1.95
1.18
0.56
-0.01
-0.64
-1.44
-2.47
-3.67
-4.96
-6.20
-7.30
-8.23
-9.02
-9.69
-10.22
-10.53
-10.54
-10.20
-9.60
-8.94
-8.43
-8.21
-8.19
-8.12
-7.63
-6.41
-4.34
-1.55
1.60
4.71
7.42
9.56
11.11
12.21
12.99
13.55
13.90
13.98
13.73
13.15
12.24
11.04
9.58
7.91
6.13
4.41
2.97
1.95
1.40
1.14
0.86
0.23
-0.95
-2.68
-4.76
-6.85
-8.64
-9.89
-10.52
-10.56
-10.18
-9.60
-9.09
-8.77
-8.64
-8.50
-8.01
-6.91
-5.11
-2.77
-0.25
2.08
3.98
5.40
6.40
7.13
7.71
8.24
8.78
9.45
10.32
11.44
12.70
13.86
14.61
14.72
14.16
13.11
11.89
10.86
10.20
9.92
9.87
9.82
9.58
9.01
7.95
6.15
3.32
-0.82
-6.33
-12.90
-19.86
-26.32
-31.47
-34.78
-36.14
-35.78
-34.07
-31.39
-27.97
-23.96
-19.49
-14.75
-10.03
-5.65
-1.86
1.24
3.66
5.54
6.97
7.96
8.37
8.07
6.95
5.16
3.01
0.96
-0.64
-1.62
-2.09
-2.29
-2.47
-2.72
-2.94
-2.92
-2.48
-1.55
-0.19
1.47
3.28
5.13
6.96
8.70
10.29
11.63
12.65
13.28
13.49
13.31
12.81
12.14
11.51
11.15
11.17
11.56
12.06
12.35
12.14
11.33
10.06
8.68
7.52
6.83
6.62
6.75
6.91
6.76
5.95
4.20
1.35
-2.57
-7.24
-12.15
-16.71
-20.46
-23.13
-24.66
-25.19
-24.88
-23.91
-22.40
-20.50
-18.37
-16.18
-14.12
-12.36
-10.97
-9.98
-9.33
-8.93
-8.65
-8.37
-7.93
-7.24
-6.25
-5.04
-3.79
-2.68
-1.84
-1.20
-0.51
0.59
2.42
5.10
8.50
12.33
16.25
19.97
23.32
26.17
28.40
29.82
30.30
29.82
28.55
26.87
25.21
23.92
23.03
22.29
21.17
19.12
15.80
11.25
5.89
0.35
-4.73
-8.96
-12.23
-14.60
-16.16
-16.90
-16.73
-15.57
-13.53
-10.97
-8.39
-6.33
-5.14
-4.89
-5.40
-6.35
-7.43
-8.46
-9.41
-10.33
-11.31
-12.33
-13.26
-13.86
-13.87
-13.11
-11.59
-9.50
-7.16
-4.96
-3.16
-1.88
-1.11
-0.71
-0.56
-0.61
-0.88
-1.37
-2.05
-2.79
-3.45
-3.89
-4.04
-3.90
-3.49
-2.82
-1.93
-0.91
0.06
0.73
0.90
0.61
0.13
-0.06
0.47
1.94
4.23
7.00
9.81
12.28
14.22
15.51
16.09
15.90
14.91
13.23
11.09
8.84
6.81
5.19
4.09
3.50
3.42
3.85
4.74
5.99
7.39
8.72
9.80
10.53
10.88
10.77
10.08
8.69
6.57
3.91
1.06
-1.55
-3.63
-5.18
-6.46
-7.91
-9.86
-12.44
-15.41
-18.26
-20.43
-21.48
-21.28
-20.01
-18.05
-15.80
-13.51
-11.24
-8.96
-6.72
-4.61
-2.88
-1.65
-0.90
-0.45
-0.04
0.48
1.06
1.45
1.38
0.69
-0.57
-2.13
-3.63
-4.72
-5.21
-5.02
-4.25
-3.03
-1.52
0.18
1.97
3.72
5.18
6.02
5.92
4.74
2.62
0.01
-2.46
-4.21
-4.89
-4.40
-2.92
-0.72
1.84
4.40
6.52
7.84
8.18
7.58
6.42
5.22
4.46
4.45
5.18
6.41
7.82
9.11
10.13
10.80
11.16
11.28
11.23
11.10
10.90
10.56
9.92
8.76
6.87
4.16
0.74
-3.03
-6.60
-9.40
-11.01
-11.28
-10.37
-8.64
-6.55
-4.45
-2.60
-1.18
-0.30
-0.02
-0.31
-0.95
-1.51
-1.52
-0.62
1.23
3.66
6.07
7.87
8.76
8.91
8.80
9.02
10.04
11.97
14.52
17.06
18.87
19.39
18.44
16.27
13.44
10.63
8.33
6.71
5.55
4.59
3.60
2.61
1.55
0.36
-0.96
-2.24
-3.16
-3.44
-2.93
-1.81
-0.34
1.01
2.08
3.23
4.72
6.25
6.00
1.18
-10.46
-28.65
-50.65
-71.90
-87.73
-95.33
-94.90
-89.18
-81.87
-76.11
-73.25
-74.05
-78.37
-84.49
-89.16
-88.04
-77.01
-54.18
-22.20
15.32
51.92
81.28
100.28
109.47
112.07
112.03
112.21
111.10
108.72
105.29
98.18
86.41
70.54
52.08
32.71
13.88
-3.60
-19.05
-32.62
-44.36
-53.19
-57.66
-56.75
-50.03
-38.41
-24.01
-9.35
2.75
10.33
13.31
13.20
12.34
12.83
16.31
23.39
32.62
41.32
46.45
46.60
42.46
38.05
34.33
30.97
27.24
22.77
17.31
11.92
8.20
7.27
9.23
12.74
16.13
17.78
16.51
11.94
4.65
-4.04
-12.47
-19.20
-23.69
-25.94
-26.57
-26.64
-27.09
-28.34
-30.25
-32.29
-33.88
-34.83
-35.07
-34.70
-33.90
-32.85
-31.59
-30.03
-28.05
-25.43
-22.09
-17.97
-13.26
-8.50
-4.44
-1.73
-0.63
-0.81
-1.39
-1.37
-0.01
2.75
6.24
9.31
10.92
10.60
8.62
5.87
3.46
2.35
2.98
5.25
8.46
11.36
12.24
9.32
1.33
-11.72
-28.01
-44.09
-55.79
-59.71
-54.51
-41.48
-24.03
-6.36
7.98
16.99
20.40
19.06
14.25
7.23
-0.83
-8.62
-14.61
-17.29
-15.70
-9.91
-1.20
8.30
16.32
21.28
22.75
21.38
18.49
15.41
12.97
11.35
10.19
8.99
7.34
5.13
2.52
-0.25
-2.95
-5.52
-8.10
-10.97
-14.40
-18.49
-23.13
-27.84
-31.80
-33.98
-33.34
-29.17
-21.41
-10.77
1.43
13.58
24.30
32.74
38.75
42.69
45.22
46.99
48.47
49.93
51.48
53.09
54.68
56.06
57.00
57.24
56.58
54.82
51.86
47.71
42.55
36.74
30.73
24.95
19.56
14.41
9.12
3.19
-3.64
-11.31
-19.37
-27.11
-33.77
-38.77
-41.83
-42.96
-42.48
-40.89
-38.76
-36.62
-34.82
-33.49
-32.52
-31.66
-30.56
-28.96
-26.79
-24.16
-21.34
-18.66
-16.37
-14.61
-13.34
-12.44
-11.65
-10.67
-9.16
-6.86
-3.80
-0.40
2.60
4.36
4.37
2.75
0.27
-1.92
-2.85
-2.11
0.00
2.69
5.07
6.50
6.74
5.83
3.99
1.45
-1.42
-4.14
-6.11
-6.74
-5.73
-3.23
0.17
3.65
6.40
7.97
8.27
7.53
6.17
4.56
3.00
1.73
0.93
0.73
1.11
1.92
2.85
3.60
4.00
4.12
4.16
4.23
4.23
3.87
2.83
1.02
-1.26
-3.45
-4.96
-5.51
-5.22
-4.52
-3.94
-3.85
-4.40
-5.46
-6.76
-7.94
-8.66
-8.71
-8.10
-7.05
-5.91
-4.99
-4.29
-3.53
-2.26
-0.11
2.99
6.72
10.54
13.91
16.46
18.03
18.62
18.30
17.11
15.13
12.50
9.46
6.36
3.57
1.42
0.10
-0.35
-0.07
0.65
1.48
2.15
2.48
2.47
2.23
1.90
1.59
1.32
1.05
0.70
0.23
-0.35
-1.00
-1.67
-2.29
-2.81
-3.21
-3.41
-3.33
-2.88
-2.00
-0.71
0.84
2.44
3.86
4.94
5.65
6.03
6.16
6.08
5.75
5.08
3.95
2.37
0.47
-1.51
-3.30
-4.72
-5.67
-6.18
-6.28
-5.98
-5.29
-4.20
-2.83
-1.40
-0.18
0.64
1.04
1.19
1.35
1.72
2.29
2.83
2.94
2.18
0.26
-2.89
-7.06
-11.74
-16.25
-19.84
-21.86
-21.97
-20.22
-17.08
-13.25
-9.45
-6.24
-3.84
-2.18
-0.96
0.13
1.33
2.71
4.22
5.69
6.97
7.88
8.25
7.93
6.79
4.86
2.46
0.10
-1.58
-2.11
-1.38
0.25
2.16
3.71
4.45
4.31
3.48
2.27
0.96
-0.30
-1.45
-2.45
-3.33
-4.07
-4.73
-5.35
-5.91
-6.36
-6.56
-6.34
-5.63
-4.46
-3.02
-1.57
-0.37
0.44
0.86
1.01
1.04
1.01
0.87
0.51
-0.13
-0.95
-1.71
-2.08
-1.83
-0.96
0.36
1.81
3.13
4.14
4.76
4.98
4.74
3.97
2.61
0.72
-1.51
-3.74
-5.62
-6.88
-7.40
-7.23
-6.53
-5.46
-4.22
-3.01
-2.03
-1.54
-1.68
-2.44
-3.54
-4.54
-4.96
-4.51
-3.21
-1.38
0.54
2.16
3.30
3.96
4.15
3.90
3.18
1.99
0.52
-0.93
-1.99
-2.41
-2.19
-1.59
-0.99
-0.68
-0.77
-1.16
-1.65
-2.10
-2.55
-3.22
-4.34
-6.06
-8.28
-10.74
-13.10
-15.10
-16.72
-18.09
-19.41
-20.81
-22.27
-23.61
-24.56
-24.85
-24.24
-22.61
-19.88
-16.10
-11.38
-5.89
0.13
6.42
12.66
18.50
23.55
27.47
30.05
31.26
31.32
30.53
29.23
27.61
25.72
23.55
21.14
18.60
16.17
14.08
12.47
11.32
10.52
9.94
9.52
9.31
9.39
9.80
10.48
11.29
12.09
12.87
13.80
15.08
16.82
18.89
20.88
22.30
22.75
22.04
20.23
17.50
14.01
9.84
5.06
-0.23
-5.78
-11.20
-16.11
-20.16
-23.16
-24.97
-25.47
-24.58
-22.30
-18.78
-14.44
-9.90
-5.87
-2.97
-1.55
-1.54
-2.47
-3.59
-4.16
-3.66
-2.02
0.35
2.69
4.22
4.41
3.25
1.20
-1.00
-2.69
-3.54
-3.64
-3.36
-3.12
-3.16
-3.49
-3.95
-4.35
-4.58
-4.61
-4.48
-4.20
-3.73
-3.04
-2.06
-0.82
0.55
1.86
2.89
3.46
3.48
2.97
2.04
0.88
-0.33
-1.45
-2.37
-3.06
-3.55
-3.91
-4.24
-4.63
-5.15
-5.81
-6.59
-7.46
-8.39
-9.39
-10.47
-11.69
-13.07
-14.57
-16.08
-17.38
-18.16
-18.11
-17.01
-14.77
-11.50
-7.41
-2.73
2.28
7.34
12.09
16.16
19.27
21.38
22.66
23.44
23.95
24.19
24.00
23.21
21.80
20.04
18.29
16.76
15.34
13.72
11.60
9.04
6.54
4.87
4.73
6.37
9.52
13.45
17.26
20.24
21.94
22.32
21.54
19.87
17.53
14.61
11.11
7.01
2.42
-2.41
-7.16
-11.51
-15.32
-18.61
-21.48
-23.99
-26.08
-27.58
-28.29
-28.11
-27.06
-25.27
-22.97
-20.42
-17.85
-15.45
-13.29
-11.30
-9.33
-7.21
-4.88
-2.51
-0.43
1.06
1.75
1.73
1.26
0.66
0.14
-0.28
-0.67
-1.07
-1.46
-1.71
-1.72
-1.46
-1.04
-0.64
-0.49
-0.73
-1.46
-2.73
-4.57
-6.98
-9.83
-12.82
-15.51
-17.42
-18.21
-17.73
-16.03
-13.23
-9.38
-4.44
1.66
8.86
16.80
24.77
31.79
36.86
39.29
38.91
36.19
32.09
27.74
24.07
21.55
20.09
19.25
18.56
17.70
16.69
15.69
14.89
14.31
13.80
13.10
12.05
10.61
8.92
7.17
5.52
4.03
2.62
1.16
-0.50
-2.45
-4.64
-6.93
-9.14
-11.09
-12.68
-13.89
-14.70
-15.10
-15.06
-14.53
-13.47
-11.88
-9.83
-7.42
-4.82
-2.23
0.12
2.04
3.43
4.27
4.68
4.81
4.83
4.84
4.85
4.76
4.43
3.63
2.15
-0.16
-3.32
-7.18
-11.47
-15.80
-19.80
-23.17
-25.76
-27.55
-28.59
-28.93
-28.62
-27.68
-26.20
-24.33
-22.25
-20.17
-18.22
-16.38
-14.51
-12.41
-9.89
-6.88
-3.51
0.00
3.32
6.18
8.43
10.08
11.22
12.00
12.48
12.67
12.50
11.92
10.95
9.76
8.61
7.79
7.44
7.56
7.94
8.26
8.24
7.70
6.62
5.10
3.35
1.54
-0.14
-1.54
-2.56
-3.11
-3.23
-3.00
-2.62
-2.36
-2.47
-3.15
-4.48
-6.36
-8.46
-10.30
-11.33
-11.10
-9.48
-6.64
-3.11
0.46
3.47
5.58
6.72
7.03
6.77
6.16
5.39
4.61
3.96
3.60
3.61
3.98
4.58
5.19
5.61
5.76
5.67
5.49
5.31
5.14
4.87
4.35
3.52
2.41
1.24
0.25
-0.36
-0.60
-0.61
-0.64
-0.95
-1.66
-2.80
-4.26
-5.91
-7.60
-9.13
-10.28
-10.83
-10.56
-9.42
-7.53
-5.18
-2.70
-0.36
1.69
3.43
4.87
5.97
6.68
6.93
6.73
6.19
5.49
4.80
4.26
3.88
3.61
3.40
3.17
2.91
2.57
2.16
1.72
1.31
0.97
0.72
0.54
0.32
-0.00
-0.48
-1.05
-1.61
-2.05
-2.35
-2.54
-2.78
-3.18
-3.80
-4.59
-5.40
-6.07
-6.47
-6.57
-6.34
-5.78
-4.85
-3.51
-1.78
0.21
2.20
3.91
5.12
5.74
5.85
5.58
5.05
4.31
3.38
2.30
1.18
0.16
-0.67
-1.31
-1.89
-2.56
-3.43
-4.53
-5.81
-7.17
-8.55
-9.83
-10.92
-11.68
-12.02
-11.93
-11.54
-11.05
-10.70
-10.61
-10.77
-11.09
-11.45
-11.77
-12.05
-12.30
-12.46
-12.39
-11.88
-10.73
-8.85
-6.37
-3.61
-1.00
1.14
2.74
4.01
5.32
6.98
9.09
11.44
13.71
15.56
16.79
17.40
17.42
16.88
15.79
14.23
12.41
10.71
9.57
9.31
10.01
11.53
13.63
16.11
18.86
21.87
24.99
27.94
30.31
31.74
32.06
31.32
29.62
27.01
23.34
18.48
12.40
5.43
-1.80
-8.61
-14.46
-19.13
-22.67
-25.21
-26.78
-27.37
-26.99
-25.86
-24.42
-23.19
-22.54
-22.52
-22.89
-23.22
-23.13
-22.36
-20.81
-18.45
-15.22
-11.15
-6.39
-1.36
3.24
6.64
8.26
7.95
6.05
3.26
0.37
-2.01
-3.55
-4.07
-3.48
-1.67
1.35
5.27
9.43
12.93
14.91
14.86
12.78
9.15
4.72
0.36
-3.19
-5.36
-5.91
-4.91
-2.78
-0.16
2.35
4.34
5.73
6.70
7.47
8.15
8.68
8.87
8.61
7.92
7.00
6.11
5.45
5.10
4.97
4.90
4.74
4.46
4.13
3.88
3.76
3.71
3.56
3.13
2.35
1.33
0.30
-0.50
-0.94
-1.10
-1.17
-1.34
-1.68
-2.16
-2.75
-3.54
-4.84
-7.03
-10.36
-14.71
-19.53
-23.91
-26.98
-28.19
-27.50
-25.36
-22.41
-19.22
-16.16
-13.36
-10.86
-8.73
-7.03
-5.72
-4.54
-3.01
-0.64
2.74
6.78
10.63
13.31
14.14
13.15
11.06
8.90
7.55
7.36
8.06
9.09
10.04
10.81
11.61
12.61
13.74
14.46
14.05
11.90
7.92
2.73
-2.56
-6.80
-9.26
-9.79
-8.86
-7.24
-5.62
-4.36
-3.20
-1.67
0.61
3.69
7.15
10.40
12.88
14.31
14.74
14.73
14.90
15.63
16.95
18.53
19.98
21.07
21.68
21.78
21.76
22.06
22.89
24.32
26.03
27.55
28.42
28.07
23.96
14.61
0.45
-16.33
-32.78
-46.53
-56.27
-61.56
-63.34
-63.60
-64.23
-66.30
-70.23
-74.30
-76.22
-73.88
-65.50
-50.53
-29.61
-4.28
23.13
49.84
73.33
92.02
102.92
105.56
101.16
91.58
78.40
62.25
43.04
21.18
-1.90
-23.65
-40.54
-49.92
-51.00
-44.88
-33.94
-20.92
-8.04
3.13
11.52
16.72
18.37
16.33
11.01
3.48
-4.69
-11.88
-16.91
-19.26
-18.94
-16.46
-12.68
-8.46
-4.55
-1.36
1.01
2.71
4.01
5.19
6.31
7.24
7.75
7.74
7.37
7.01
7.09
7.95
9.67
12.03
14.61
16.92
18.55
19.28
19.09
18.08
16.40
14.19
11.52
8.45
5.08
1.58
-1.80
-4.81
-7.34
-9.48
-11.40
-13.31
-15.17
-16.69
-17.45
-17.02
-15.25
-12.34
-8.75
-5.10
-1.98
0.20
1.24
1.19
0.46
-0.32
-0.41
0.74
3.23
6.55
9.75
11.74
11.78
9.76
6.23
2.24
-1.15
-3.14
-3.46
-2.35
-0.43
1.59
3.00
3.35
2.39
0.16
-3.10
-6.92
-10.76
-14.05
-16.39
-17.60
-17.82
-17.39
-16.79
-16.36
-16.27
-16.37
-16.31
-15.70
-14.27
-12.09
-9.51
-7.13
-5.53
-5.11
-5.92
-7.65
-9.78
-11.79
-13.32
-14.21
-14.46
-14.17
-13.46
-12.47
-11.38
-10.41
-9.75
-9.53
-9.70
-10.12
-10.59
-11.00
-11.44
-12.12
-13.23
-14.89
-16.99
-19.28
-21.44
-23.15
-24.16
-24.23
-23.18
-20.79
-16.98
-11.77
-5.39
1.83
9.49
17.25
24.85
32.04
38.56
44.07
48.24
50.85
51.89
51.59
50.30
48.37
46.04
43.43
40.71
38.08
35.82
34.13
33.02
32.34
31.93
31.71
31.82
32.47
33.73
35.39
36.90
37.51
36.58
33.79
29.24
23.34
16.56
9.26
1.63
-6.24
-14.22
-22.00
-29.16
-35.24
-39.93
-43.19
-45.19
-46.27
-46.73
-46.74
-46.31
-45.37
-43.86
-41.83
-39.41
-36.80
-34.19
-31.69
-29.31
-26.92
-24.32
-21.35
-17.95
-14.26
-10.47
-6.90
-3.79
-1.33
0.44
1.58
2.32
2.98
3.98
5.65
8.08
11.00
13.81
15.70
16.00
14.44
11.30
7.33
3.55
0.83
-0.31
0.13
1.72
3.79
5.69
7.04
7.78
8.13
8.41
8.82
9.26
9.40
8.86
7.38
5.09
2.36
-0.25
-2.34
-3.78
-4.74
-5.48
-6.16
-6.71
-6.90
-6.51
-5.59
-4.50
-3.85
-4.17
-5.66
-8.07
-10.77
-13.02
-14.31
-14.50
-13.77
-12.48
-10.90
-9.20
-7.48
-5.87
-4.64
-4.08
-4.35
-5.25
-6.28
-6.81
-6.42
-5.13
-3.37
-1.82
-0.99
-0.90
-1.04
-0.56
1.33
4.99
10.10
15.74
20.67
23.75
24.30
22.33
18.47
13.73
9.11
5.31
2.65
1.08
0.44
0.52
1.17
2.21
3.42
4.56
5.46
6.11
6.60
7.04
7.46
7.75
7.75
7.36
6.62
5.69
4.65
3.52
2.26
0.92
-0.25
-0.82
-0.33
1.49
4.54
8.44
12.51
16.01
18.30
19.08
18.42
16.91
15.41
14.81
15.59
17.59
19.95
21.48
21.11
18.32
13.27
6.59
-0.95
-8.79
-16.67
-24.47
-32.00
-38.79
-44.12
-47.17
-47.34
-44.49
-39.07
-32.03
-24.53
-17.65
-12.11
-8.16
-5.64
-4.05
-2.85
-1.57
-0.03
1.65
3.03
3.52
2.56
-0.08
-4.20
-9.16
-14.10
-18.24
-21.11
-22.63
-23.07
-22.85
-22.33
-21.73
-21.03
-20.08
-18.64
-16.57
-13.94
-11.02
-8.31
-6.23
-4.95
-4.22
-3.41
-1.73
1.47
6.37
12.68
19.68
26.54
32.57
37.30
40.53
42.19
42.32
41.02
38.56
35.42
32.30
29.84
28.38
27.82
27.62
27.10
25.81
23.75
21.42
19.54
18.69
18.95
19.89
20.69
20.46
18.55
14.65
8.89
1.67
-6.37
-14.51
-22.02
-28.31
-33.00
-35.94
-37.20
-36.98
-35.51
-33.08
-29.92
-26.27
-22.37
-18.42
-14.61
-11.13
-8.18
-5.92
-4.41
-3.44
-2.57
-1.24
0.94
3.98
7.37
10.25
11.79
11.51
9.53
6.45
3.09
0.18
-1.93
-3.25
-4.03
-4.52
-4.83
-4.96
-4.85
-4.57
-4.33
-4.45
-5.19
-6.59
-8.41
-10.18
-11.44
-11.88
-11.52
-10.69
-9.83
-9.33
-9.38
-9.84
-10.40
-10.58
-10.00
-8.44
-5.95
-2.85
0.39
3.32
5.70
7.54
9.13
10.81
12.77
14.95
17.07
18.71
19.59
19.65
19.02
17.95
16.64
15.20
13.70
12.22
10.92
10.01
9.61
9.64
9.80
9.59
8.55
6.45
3.40
-0.15
-3.58
-6.24
-7.67
-7.60
-6.00
-3.02
1.06
5.80
10.72
15.33
19.28
22.36
24.60
26.13
27.15
27.86
28.31
28.40
27.83
26.15
22.86
17.60
10.32
1.38
-8.51
-18.42
-27.46
-34.94
-40.41
-43.69
-44.77
-43.81
-41.12
-37.21
-32.72
-28.35
-24.74
-22.19
-20.54
-19.16
-17.24
-14.14
-9.85
-5.11
-1.21
0.59
-0.33
-3.59
-7.91
-11.67
-13.55
-13.09
-10.70
-7.29
-3.73
-0.48
2.42
5.14
7.75
10.06
11.79
12.76
13.08
13.11
13.21
13.48
13.69
13.42
12.37
10.52
8.21
5.95
4.16
3.03
2.46
2.20
1.91
1.32
0.25
-1.38
-3.51
-5.95
-8.38
-10.49
-12.08
-13.09
-13.62
-13.78
-13.65
-13.22
-12.45
-11.30
-9.81
-8.11
-6.36
-4.72
-3.28
-2.04
-0.90
0.34
1.84
3.76
6.12
8.86
11.80
14.73
17.47
19.90
21.91
23.44
24.40
24.68
24.21
22.97
21.02
18.42
15.25
11.61
7.56
3.23
-1.15
-5.25
-8.75
-11.37
-13.04
-13.88
-14.18
-14.26
-14.34
-14.46
-14.52
-14.36
-13.88
-13.09
-12.05
-10.80
-9.30
-7.43
-5.07
-2.21
0.95
4.08
6.81
8.89
10.30
11.16
11.70
12.04
12.14
11.84
10.93
9.32
7.11
4.71
2.66
1.50
1.54
2.75
4.78
7.13
9.38
11.35
13.15
14.96
16.88
18.65
19.76
19.62
17.89
14.68
10.62
6.59
3.39
1.52
1.01
1.56
2.74
4.24
5.91
7.75
9.76
11.86
13.97
15.99
17.87
19.58
20.95
21.65
21.20
19.15
15.22
9.45
2.16
-6.12
-14.80
-23.34
-31.28
-38.15
-43.52
-47.06
-48.59
-48.22
-46.27
-43.20
-39.50
-35.53
-31.58
-27.84
-24.51
-21.87
-20.20
-19.67
-20.26
-21.65
-23.26
-24.40
-24.39
-22.83
-19.64
-15.10
-9.79
-4.42
0.31
3.92
6.29
7.61
8.37
9.08
10.05
11.26
12.38
12.99
12.84
12.08
11.22
10.93
11.68
13.50
15.98
18.42
20.16
20.79
20.24
18.63
16.14
13.02
9.57
6.26
3.71
2.47
2.80
4.46
6.78
8.92
10.24
10.57
10.21
9.74
9.72
10.39
11.71
13.38
15.03
16.32
17.09
17.36
17.38
17.53
18.13
19.28
20.62
21.43
20.83
18.14
13.19
6.39
-1.40
-9.21
-16.29
-22.21
-26.83
-30.17
-32.25
-33.08
-32.70
-31.31
-29.24
-26.91
-24.65
-22.65
-20.88
-19.17
-17.33
-15.29
-13.15
-11.20
-9.72
-8.89
-8.70
-8.89
-9.07
-8.85
-8.04
-6.61
-4.71
-2.58
-0.47
1.46
3.10
4.39
5.31
5.88
6.17
6.33
6.55
6.97
7.69
8.72
10.01
11.48
13.04
14.50
15.64
16.14
15.75
14.35
12.06
9.20
6.20
3.52
1.46
0.19
-0.30
-0.14
0.46
1.31
2.21
3.06
3.78
4.34
4.65
4.58
4.04
3.07
1.95
1.09
0.84
1.29
2.15
2.83
2.74
1.55
-0.61
-3.21
-5.55
-7.11
-7.68
-7.42
-6.71
-5.87
-5.05
-4.19
-3.09
-1.57
0.43
2.78
5.21
7.36
8.91
9.57
9.13
7.44
4.44
0.19
-5.10
-11.07
-17.22
-23.04
-28.13
-32.21
-35.25
-37.40
-38.88
-39.89
-40.55
-40.79
-40.39
-39.03
-36.38
-32.19
-26.41
-19.20
-10.92
-1.96
7.27
16.44
25.22
33.24
40.09
45.41
49.03
51.01
51.61
51.13
49.74
47.40
44.02
39.62
34.53
29.36
24.84
21.60
19.89
19.59
20.16
20.91
21.15
20.48
18.88
16.73
14.59
12.93
11.89
11.26
10.57
9.42
7.64
5.40
3.02
0.75
-1.37
-3.51
-5.87
-8.54
-11.40
-14.21
-16.67
-18.62
-20.04
-21.03
-21.77
-22.35
-22.79
-23.02
-22.92
-22.43
-21.52
-20.30
-18.89
-17.43
-16.03
-14.74
-13.58
-12.55
-11.65
-10.91
-10.34
-9.95
-9.76
-9.74
-9.90
-10.21
-10.68
-11.27
-11.93
-12.61
-13.26
-13.89
-14.56
-15.35
-16.33
-17.49
-18.71
-19.81
-20.64
-21.12
-21.34
-21.49
-21.73
-22.08
-22.30
-21.89
-20.34
-17.27
-12.67
-6.88
-0.37
6.40
13.24
20.11
26.95
33.44
38.90
42.49
43.64
42.29
39.12
35.22
31.74
29.40
28.32
28.09
28.03
27.48
26.01
23.43
19.82
15.48
10.91
6.76
3.69
2.21
2.50
4.27
6.90
9.64
11.81
12.96
12.83
11.28
8.18
3.48
-2.75
-10.06
-17.67
-24.62
-30.02
-33.39
-34.77
-34.59
-33.42
-31.68
-29.60
-27.23
-24.60
-21.68
-18.47
-14.93
-11.07
-7.10
-3.46
-0.76
0.51
0.33
-0.72
-1.62
-1.28
0.95
5.03
10.25
15.61
20.19
23.51
25.53
26.58
27.08
27.40
27.64
27.71
27.43
26.66
25.50
24.25
23.29
22.78
22.57
22.13
20.81
18.14
14.03
8.78
2.90
-3.15
-9.21
-15.30
-21.52
-27.74
-33.50
-38.14
-40.93
-41.42
-39.58
-35.78
-30.74
-25.35
-20.40
-16.46
-13.83
-12.52
-12.31
-12.81
-13.50
-13.80
-13.23
-11.55
-8.91
-5.86
-3.12
-1.30
-0.62
-0.77
-1.02
-0.52
1.34
4.78
9.51
14.98
20.53
25.63
29.99
33.55
36.32
38.29
39.28
38.97
37.01
33.19
27.55
20.42
12.33
3.85
-4.45
-12.11
-18.70
-23.84
-27.21
-28.66
-28.29
-26.54
-24.01
-21.34
-18.99
-17.10
-15.54
-14.07
-12.52
-10.92
-9.43
-8.25
-7.44
-6.86
-6.14
-4.84
-2.56
0.98
5.84
11.81
18.33
24.64
29.87
33.36
34.85
34.67
33.56
32.51
32.35
33.46
35.64
38.12
39.80
39.61
36.86
31.42
23.71
14.50
4.63
-5.18
-14.41
-22.75
-29.99
-36.01
-40.74
-44.22
-46.59
-48.06
-48.79
-48.89
-48.31
-46.93
-44.64
-41.41
-37.37
-32.87
-28.41
-24.56
-21.84
-20.54
-20.60
-21.52
-22.46
-22.46
-20.83
-17.52
-13.25
-9.29
-6.91
-6.84
-8.84
-11.89
-14.63
-15.96
-15.42
-13.17
-9.65
-5.23
-0.09
5.73
12.02
18.33
24.07
28.76
32.23
34.59
36.09
36.88
36.92
36.07
34.27
31.61
28.31
24.66
20.83
16.94
13.06
9.32
5.95
3.13
0.92
-0.80
-2.31
-3.86
-5.53
-7.18
-8.55
-9.37
-9.53
-9.12
-8.38
-7.52
-6.67
-5.81
-4.84
-3.69
-2.46
-1.37
-0.64
-0.43
-0.73
-1.41
-2.30
-3.30
-4.36
-5.51
-6.74
-8.01
-9.25
-10.39
-11.35
-12.02
-12.30
-12.05
-11.29
-10.22
-9.21
-8.72
-9.08
-10.47
-12.87
-16.09
-19.85
-23.81
-27.51
-30.38
-31.81
-31.29
-28.58
-23.74
-17.12
-9.25
-0.66
8.23
17.24
26.39
35.83
45.68
55.80
65.66
74.45
81.29
85.57
87.13
86.24
83.38
79.07
73.61
67.19
59.92
52.06
44.01
36.27
29.28
23.34
18.53
14.73
11.69
9.16
6.92
4.81
2.65
0.28
-2.52
-5.92
-9.93
-14.32
-18.66
-22.45
-25.33
-27.19
-28.17
-28.49
-28.34
-27.75
-26.60
-24.82
-22.49
-19.92
-17.49
-15.52
-14.10
-13.02
-11.98
-10.73
-9.24
-7.73
-6.50
-5.75
-5.45
-5.36
-5.15
-4.67
-3.98
-3.37
-3.14
-3.39
-3.96
-4.49
-4.66
-4.39
-3.89
-3.58
-3.81
-4.68
-5.99
-7.33
-8.35
-8.95
-9.31
-9.76
-10.59
-11.85
-13.29
-14.46
-14.92
-14.39
-12.89
-10.74
-8.38
-6.20
-4.43
-3.12
-2.18
-1.54
-1.17
-1.08
-1.25
-1.57
-1.90
-2.10
-2.17
-2.17
-2.26
-2.52
-2.95
-3.43
-3.85
-4.09
-4.14
-4.07
-3.96
-3.92
-3.98
-4.08
-4.12
-3.98
-3.66
-3.25
-3.03
-3.23
-3.98
-5.18
-6.56
-7.77
-8.61
-9.05
-9.24
-9.31
-9.29
-9.06
-8.47
-7.42
-5.94
-4.23
-2.53
-0.99
0.31
1.46
2.54
3.66
4.82
5.92
6.83
7.39
7.57
7.41
7.06
6.67
6.38
6.19
6.06
5.93
5.80
5.68
5.59
5.53
5.40
5.10
4.54
3.73
2.80
1.92
1.22
0.75
0.43
0.13
-0.25
-0.77
-1.37
-1.98
-2.55
-3.06
-3.53
-3.91
-4.12
-4.04
-3.57
-2.68
-1.45
0.02
1.57
3.05
4.32
5.24
5.72
5.77
5.49
5.07
4.74
4.65
4.80
5.07
5.27
5.27
5.03
4.63
4.21
3.86
3.55
3.20
2.65
1.88
0.96
0.08
-0.59
-0.99
-1.21
-1.45
-1.90
-2.63
-3.60
-4.65
-5.62
-6.41
-7.03
-7.57
-8.09
-8.61
-9.03
-9.20
-8.97
-8.25
-7.06
-5.52
-3.78
-1.97
-0.16
1.58
3.17
4.46
5.30
5.62
5.46
5.01
4.51
4.16
4.05
4.12
4.21
4.14
3.82
3.31
2.70
2.16
1.76
1.46
1.15
0.67
-0.05
-0.99
-1.98
-2.83
-3.42
-3.79
-4.13
-4.71
-5.73
-7.21
-8.97
-10.70
-12.01
-12.64
-12.52
-11.73
-10.48
-8.98
-7.39
-5.75
-4.05
-2.30
-0.54
1.09
2.44
3.41
3.96
4.20
4.31
4.46
4.71
4.99
5.15
5.03
4.60
3.94
3.28
2.83
2.69
2.78
2.88
2.78
2.33
1.56
0.66
-0.14
-0.70
-0.99
-1.14
-1.32
-1.65
-2.14
-2.74
-3.38
-4.07
-4.85
-5.75
-6.70
-7.51
-7.89
-7.61
-6.55
-4.86
-2.80
-0.67
1.32
3.13
4.75
6.23
7.50
8.46
8.97
9.00
8.66
8.16
7.68
7.37
7.20
7.04
6.75
6.21
5.47
4.66
3.93
3.44
3.21
3.16
3.13
2.96
2.56
1.97
1.35
0.89
0.76
0.98
1.33
1.50
1.14
0.10
-1.52
-3.40
-5.11
-6.35
-7.05
-7.35
-7.50
-7.64
-7.79
-7.83
-7.63
-7.19
-6.59
-6.02
-5.60
-5.37
-5.25
-5.13
-4.90
-4.53
-4.07
-3.61
-3.22
-2.93
-2.62
-2.12
-1.25
0.06
1.72
3.48
5.07
6.29
7.13
7.72
8.25
8.85
9.57
10.41
11.40
12.65
14.30
16.40
18.75
20.84
21.97
21.42
18.82
14.32
8.55
2.46
-3.09
-7.56
-10.80
-12.91
-14.04
-14.27
-13.60
-12.10
-10.07
-8.00
-6.39
-5.59
-5.59
-6.08
-6.59
-6.75
-6.37
-5.52
-4.43
-3.34
-2.41
-1.69
-1.14
-0.72
-0.44
-0.43
-0.84
-1.73
-3.02
-4.49
-5.85
-6.87
-7.48
-7.78
-7.92
-8.03
-8.15
-8.18
-8.01
-7.61
-7.02
-6.41
-5.96
-5.78
-5.83
-5.88
-5.64
-4.85
-3.38
-1.34
1.06
3.53
5.89
8.04
10.04
11.92
13.72
15.41
16.99
18.49
19.96
21.41
22.75
23.70
23.86
22.91
20.71
17.45
13.58
9.68
6.25
3.55
1.60
0.19
-0.97
-2.15
-3.48
-4.99
-6.55
-8.01
-9.19
-9.99
-10.45
-10.69
-10.86
-11.05
-11.19
-11.11
-10.59
-9.52
-7.92
-5.94
-3.77
-1.51
0.80
3.20
5.76
8.44
11.12
13.57
15.56
16.91
17.60
17.74
17.54
17.20
16.85
16.49
16.06
15.53
14.96
14.44
14.03
13.70
13.31
12.74
11.97
11.09
10.23
9.37
8.23
6.39
3.47
-0.63
-5.57
-10.75
-15.50
-19.44
-22.52
-24.99
-27.10
-28.98
-30.46
-31.29
-31.28
-30.47
-29.14
-27.65
-26.29
-25.11
-23.95
-22.53
-20.69
-18.44
-16.00
-13.65
-11.60
-9.90
-8.44
-7.05
-5.55
-3.87
-2.02
-0.06
1.89
3.72
5.31
6.56
7.45
8.04
8.47
8.88
9.36
9.84
10.14
10.05
9.44
8.31
6.80
5.12
3.42
1.76
0.19
-1.17
-2.19
-2.67
-2.55
-1.92
-1.07
-0.30
0.19
0.43
0.64
1.07
1.82
2.76
3.63
4.13
4.13
3.71
3.12
2.66
2.55
2.83
3.41
4.11
4.77
5.32
5.80
6.24
6.67
6.98
7.04
6.70
5.95
4.89
3.74
2.74
2.02
1.59
1.31
0.98
0.41
-0.45
-1.55
-2.72
-3.74
-4.41
-4.58
-4.21
-3.29
-1.85
0.06
2.40
5.06
7.85
10.47
12.57
13.83
14.08
13.35
11.89
10.03
8.12
6.36
4.80
3.36
1.95
0.52
-0.94
-2.37
-3.76
-5.13
-6.51
-7.93
-9.32
-10.56
-11.48
-11.98
-12.01
-11.69
-11.18
-10.65
-10.21
-9.83
-9.42
-8.89
-8.22
-7.51
-6.94
-6.63
-6.61
-6.73
-6.73
-6.35
-5.45
-4.07
-2.43
-0.82
0.52
1.49
2.14
2.64
3.11
3.57
3.90
3.93
3.56
2.88
2.10
1.52
1.31
1.47
1.82
2.15
2.27
2.17
1.90
1.55
1.13
0.64
0.04
-0.58
-1.04
-1.09
-0.58
0.47
1.84
3.10
3.88
3.94
3.29
2.17
0.89
-0.22
-0.99
-1.30
-1.14
-0.53
0.49
1.84
3.40
5.02
6.55
7.88
8.88
9.49
9.66
9.41
8.84
8.08
7.27
6.47
5.66
4.82
3.91
3.00
2.19
1.57
1.19
0.99
0.90
0.82
0.70
0.54
0.34
0.12
-0.11
-0.36
-0.66
-1.08
-1.67
-2.46
-3.44
-4.50
-5.51
-6.32
-6.78
-6.83
-6.45
-5.64
-4.42
-2.86
-1.02
0.98
2.95
4.73
6.19
7.25
7.99
8.55
9.12
9.83
10.72
11.74
12.80
13.90
15.12
16.68
18.80
21.56
24.88
28.44
31.83
34.65
36.59
37.45
37.14
35.62
32.89
29.03
24.25
18.94
13.59
8.67
4.50
1.12
-1.68
-4.27
-6.89
-9.56
-12.07
-14.04
-15.21
-15.56
-15.35
-15.00
-14.83
-14.94
-15.16
-15.24
-15.00
-14.45
-13.75
-13.15
-12.76
-12.54
-12.34
-11.97
-11.32
-10.43
-9.45
-8.58
-7.99
-7.79
-7.99
-8.57
-9.52
-10.85
-12.61
-14.80
-17.33
-19.96
-22.37
-24.20
-25.21
-25.29
-24.49
-22.93
-20.74
-18.00
-14.83
-11.38
-7.96
-5.05
-3.29
-3.39
-5.94
-11.21
-19.02
-28.65
-38.84
-48.03
-54.62
-57.39
-55.83
-50.31
-41.88
-31.94
-21.68
-11.78
-2.42
6.50
14.99
22.82
29.56
34.88
38.78
41.66
44.06
46.33
48.40
49.89
50.29
49.33
47.13
44.10
40.80
37.67
34.95
32.64
30.61
28.68
26.68
24.48
22.01
19.27
16.33
13.30
10.37
7.70
5.45
3.72
2.53
1.82
1.52
1.49
1.62
1.75
1.75
1.43
0.66
-0.61
-2.38
-4.51
-6.89
-9.45
-12.20
-15.20
-18.46
-21.90
-25.33
-28.51
-31.25
-33.46
-35.19
-36.54
-37.66
-38.62
-39.40
-39.87
-39.86
-39.12
-37.50
-34.95
-31.65
-27.97
-24.36
-21.17
-18.54
-16.42
-14.61
-12.90
-11.18
-9.51
-8.01
-6.80
-5.82
-4.94
-3.93
-2.62
-0.92
1.08
3.11
4.88
6.23
7.21
8.08
9.21
10.87
13.19
16.01
19.01
21.87
24.48
27.10
30.07
33.10
35.26
35.46
33.13
28.70
23.41
18.74
15.73
14.54
14.34
14.01
12.94
11.27
9.62
8.52
8.05
7.77
7.22
6.08
4.65
3.70
3.96
5.49
7.63
9.30
9.61
8.20
5.09
0.65
-4.72
-10.28
-15.57
-20.12
-23.36
-24.54
-21.88
-15.19
-6.40
1.11
4.56
3.10
-2.05
-8.55
-14.08
-17.32
-18.39
-18.13
-17.48
-16.90
-16.43
-15.88
-14.94
-13.35
-10.95
-8.23
-5.26
-2.23
0.64
3.06
4.80
5.74
6.00
5.91
5.79
5.98
6.65
7.82
9.29
10.75
11.89
12.47
12.42
11.72
10.38
8.51
6.27
3.74
1.02
-1.72
-4.06
-5.43
-5.27
-3.20
0.83
6.52
13.30
20.44
27.19
32.81
36.66
38.36
38.03
36.36
34.61
34.23
36.41
41.50
48.71
56.20
61.62
62.77
58.40
48.54
34.42
18.07
1.66
-13.02
-24.75
-32.95
-37.53
-38.84
-37.64
-35.10
-32.59
-31.35
-32.05
-34.52
-37.87
-40.87
-42.62
-42.96
-42.59
-42.57
-43.78
-46.42
-50.00
-53.57
-56.24
-57.57
-57.65
-56.91
-55.77
-54.40
-52.73
-50.65
-48.13
-45.18
-41.84
-38.07
-33.83
-29.01
-23.56
-17.74
-12.15
-7.49
-4.12
-1.86
-0.03
2.42
6.46
12.80
21.04
29.64
36.72
41.08
42.87
43.43
44.62
47.85
53.68
61.00
67.65
71.85
73.43
73.81
74.99
78.50
84.94
94.43
106.00
117.55
126.34
129.51
124.33
108.63
81.52
41.97
-4.65
-48.30
-80.08
-97.20
-102.51
-100.68
-95.38
-88.40
-80.26
-70.72
-60.46
-51.11
-44.29
-40.43
-38.72
-37.75
-36.20
-33.34
-28.82
-23.27
-18.02
-14.36
-12.65
-12.38
-12.56
-12.31
-11.12
-8.76
-5.62
-2.58
-0.46
0.46
0.47
0.13
-0.02
0.30
1.25
2.64
4.03
5.01
5.43
5.42
5.23
5.12
5.21
5.57
6.15
6.77
7.28
7.61
7.82
7.96
8.11
8.31
8.56
8.89
9.28
9.73
10.23
10.80
11.42
12.10
12.84
13.54
14.31
15.12
16.00
16.95
17.98
19.07
20.23
21.45
22.64
23.80
24.84
25.66
26.13
26.14
25.57
24.35
22.44
19.69
16.25
12.23
7.78
3.09
-1.64
-6.20
-10.42
-13.72
-16.37
-18.31
-19.55
-20.15
-20.19
-19.77
-18.99
-18.17
-17.19
-16.20
-15.18
-14.18
-13.22
-12.29
-11.40
-10.56
-9.74
-8.93
-8.18
-7.46
-6.78
-6.13
-5.52
-4.94
-4.39
-3.87
-3.36
-2.91
-2.50
-2.12
-1.78
-1.48
-1.21
-0.97
-0.76
-0.57
-0.40
-0.27
-0.16
-0.07
0.00
0.06
0.09
0.10
0.09
0.07
0.02
-0.04
-0.13
-0.23
-0.34
-0.46
-0.61
-0.78
-0.96
-1.18
-1.42
-1.70
-2.02
-2.37
-2.78
-3.23
-3.75
-4.33
-4.97
-5.68
-6.47
-7.29
-8.18
-9.15
-10.19
-11.31
-12.49
-13.76
-15.09
-16.50
-17.94
-19.45
-21.04
-22.71
-24.48
-26.33
-28.29
-30.38
-32.58
-34.79
-36.99
-38.99
-40.50
-41.26
-40.95
-39.38
-36.45
-32.53
-27.46
-21.36
-14.53
-7.28
0.10
7.31
14.07
20.11
25.21
29.36
32.53
34.90
36.71
38.19
39.43
40.23
40.14
38.61
35.16
29.52
21.88
12.81
3.13
-6.35
-15.18
-23.32
-30.98
-38.46
-45.73
-52.31
-57.38
-60.08
-60.00
-57.49
-53.66
-50.24
-48.95
-50.68
-55.42
-62.35
-70.47
-78.99
-87.89
-98.04
-110.66
-127.12
-148.14
-174.35
-205.61
-240.33
-274.77
-303.37
-320.02
-320.53
-304.73
-276.53
-243.33
-212.98
-190.89
-178.53
-173.86
-172.97
-171.71
-170.19
-167.97
-164.54
-158.68
-148.78
-133.42
-112.31
-86.47
-57.91
-29.10
-1.43
24.62
49.24
72.94
95.83
117.24
135.69
149.29
156.26
156.12
149.17
136.60
120.09
101.28
81.43
61.28
41.21
21.46
2.61
-14.69
-29.72
-41.88
-50.81
-56.55
-59.53
-60.23
-59.24
-56.91
-53.54
-49.22
-44.07
-38.23
-31.91
-25.30
-18.67
-12.22
-6.13
-0.48
4.61
9.02
12.64
15.36
17.10
17.84
17.54
16.29
14.17
11.34
7.90
4.10
0.06
-4.04
-8.07
-11.94
-15.58
-18.92
-22.04
-24.89
-27.47
-29.78
-31.87
-33.73
-35.37
-36.76
-37.96
-38.89
-39.53
-39.80
-39.67
-39.08
-37.96
-36.28
-34.09
-31.34
-28.06
-24.31
-20.17
-15.73
-11.10
-6.36
-1.68
2.92
7.35
11.59
15.61
19.39
22.92
26.19
29.16
31.88
34.34
36.57
38.60
40.42
42.07
43.59
44.93
46.14
47.24
48.21
49.05
49.74
50.26
50.58
50.66
50.50
50.11
49.55
48.82
47.98
47.06
46.12
45.15
44.19
43.29
42.42
41.58
40.74
39.85
38.89
37.75
36.45
34.93
33.19
31.22
29.02
26.63
24.11
21.45
18.73
16.02
13.36
10.77
8.22
5.67
3.08
0.32
-2.52
-5.29
-7.69
-9.35
-9.88
-8.97
-6.44
-2.34
3.12
9.74
17.27
25.56
34.45
43.80
53.40
62.85
71.70
79.57
86.18
92.27
98.61
105.65
113.30
120.95
127.86
133.28
136.61
137.62
137.31
137.11
138.31
141.50
146.57
152.80
159.04
164.13
167.48
171.47
179.01
192.37
212.31
237.97
267.29
297.54
325.84
350.26
375.81
407.64
448.88
499.32
556.37
616.62
676.37
731.74
778.33
822.60
868.22
913.56
952.56
980.08
996.46
1007.49
1019.84
1035.92
1069.40
1123.92
1191.79
1257.83
1308.91
1340.93
1357.57
1364.51
1365.07
1382.94
1434.13
1520.98
1630.50
1742.49
1839.24
1910.06
1951.22
1819.42
1446.90
855.89
153.91
-529.89
-1107.82
-1549.16
-1861.92
-2070.54
-2202.01
-2256.83
-2237.54
-2156.47
-2037.56
-1907.88
-1787.65
-1686.94
-1607.86
-1548.65
-1488.32
-1410.92
-1312.24
-1200.93
-1091.17
-994.10
-914.58
-852.68
-806.24
-761.66
-708.82
-644.83
-574.61
-506.40
-446.42
-397.25
-358.76
-329.38
-301.74
-269.64
-230.54
-186.59
-142.82
-104.25
-73.97
-52.37
-36.51
-21.71
-4.38
15.82
35.63
50.30
56.59
54.60
46.53
36.90
28.27
20.25
10.23
-4.24
-23.20
-43.60
-60.81
-70.91
-72.59
-68.14
-61.50
-56.12
-53.43
-52.57
-51.49
-48.50
-43.35
-37.30
-32.61
-31.05
-32.81
-36.39
-39.11
-38.38
-32.84
-23.07
-11.06
0.46
9.35
14.93
17.93
19.68
21.12
22.22
22.04
19.61
14.61
7.80
0.76
-4.79
-7.52
-6.88
-2.84
4.11
12.83
21.62
28.34
30.79
27.55
18.41
4.53
-11.95
-28.44
-42.68
-52.66
-56.95
-54.80
-46.18
-31.94
-13.50
7.43
29.00
49.27
66.12
77.13
79.78
73.11
57.65
35.85
11.65
-10.68
-27.59
-37.22
-39.89
-37.82
-33.96
-31.17
-30.67
-31.07
-29.62
-23.48
-10.99
7.11
27.64
45.84
56.40
54.92
39.32
10.86
-25.40
-61.41
-88.37
-99.55
-93.08
-73.16
-48.05
-26.99
-16.01
-15.63
-21.36
-26.26
-24.52
-14.04
3.09
21.94
37.19
44.86
43.49
33.83
18.49
1.81
-11.54
-18.07
-16.42
-8.38
1.98
10.27
14.04
13.93
13.74
18.40
31.15
51.63
75.21
94.77
103.44
97.34
76.98
46.74
13.00
-18.22
-42.74
-59.24
-68.78
-73.77
-76.71
-79.04
-80.93
-80.93
-78.18
-71.90
-62.66
-52.21
-42.75
-35.48
-29.76
-23.47
-14.32
-1.48
13.99
29.07
40.72
47.18
49.31
49.62
50.82
54.36
59.24
63.02
62.58
55.74
41.94
22.64
0.12
-23.07
-44.32
-61.50
-72.66
-76.85
-74.36
-66.87
-56.21
-44.37
-32.57
-20.82
-8.68
4.37
18.14
31.72
43.89
54.67
64.43
73.89
83.83
94.82
107.41
122.04
138.94
151.64
155.81
147.77
125.67
90.68
47.26
2.00
-38.55
-70.09
-91.57
-104.00
-110.08
-112.62
-113.44
-113.43
-112.89
-111.85
-109.98
-106.18
-98.10
-83.63
-61.81
-33.21
-0.16
34.03
66.06
93.22
113.44
125.65
129.10
123.44
109.45
88.75
63.63
36.66
10.03
-14.51
-35.34
-51.30
-62.36
-68.46
-70.58
-70.38
-69.43
-68.44
-67.01
-64.02
-57.89
-49.32
-39.63
-30.47
-23.09
-17.70
-13.78
-10.60
-7.78
-5.54
-4.35
-4.16
-4.66
-5.26
-5.39
-4.85
-3.92
-3.11
-2.94
-3.75
-5.51
-7.99
-10.82
-13.25
-14.26
-12.70
-7.81
0.58
11.62
23.76
35.19
44.31
50.29
53.13
53.48
52.41
50.89
49.46
48.11
46.41
43.67
39.46
33.70
26.71
19.20
11.95
5.67
1.02
-1.48
-1.49
1.11
6.05
12.65
19.76
26.06
30.74
33.49
34.50
34.09
32.55
29.86
25.54
18.99
10.25
0.12
-10.14
-19.49
-27.54
-34.81
-41.89
-49.28
-56.93
-64.01
-69.45
-72.43
-72.77
-70.73
-66.79
-61.56
-55.09
-48.63
-42.91
-38.32
-34.65
-31.02
-26.37
-19.81
-11.23
-1.33
8.64
17.58
24.87
30.61
35.42
39.73
43.64
46.33
46.85
44.50
39.41
32.51
25.28
19.24
15.43
14.12
14.95
17.22
20.04
22.45
23.13
20.48
13.24
1.22
-13.85
-28.50
-38.68
-41.20
-35.28
-22.72
-7.17
7.77
19.92
29.09
36.30
42.29
46.88
49.02
47.75
43.03
36.20
29.45
24.91
23.53
24.28
25.16
24.18
20.67
15.74
11.81
11.31
15.23
22.10
27.82
27.82
19.09
1.71
-21.37
-46.22
-70.17
-93.16
-113.80
-131.40
-144.04
-148.35
-140.98
-120.70
-89.65
-53.19
-17.58
12.82
36.47
54.44
68.58
79.78
87.51
90.50
87.50
78.32
64.32
47.54
30.09
13.35
-2.18
-16.67
-28.07
-34.28
-34.81
-31.17
-25.87
-20.91
-17.44
-16.00
-16.73
-19.20
-22.72
-26.30
-28.72
-29.09
-27.33
-24.34
-21.55
-20.22
-20.73
-22.56
-24.70
-26.01
-25.54
-23.37
-20.50
-18.27
-17.87
-20.30
-26.20
-35.82
-48.02
-59.64
-66.34
-64.24
-51.89
-31.58
-9.29
9.29
19.55
20.45
14.51
5.99
-1.20
-5.07
-5.52
-3.21
1.73
9.30
19.92
33.39
48.30
62.47
73.86
81.98
86.82
89.61
91.85
94.96
99.76
106.38
114.37
122.62
129.58
133.42
131.87
123.78
109.59
90.40
66.86
39.15
7.49
-26.24
-57.94
-83.05
-96.13
-92.92
-73.20
-41.77
-6.16
26.18
50.83
66.98
74.08
74.56
72.80
72.66
73.84
74.00
68.15
50.12
14.24
-45.48
-127.37
-221.10
-311.63
-385.35
-433.86
-456.07
-455.98
-418.40
-345.89
-255.84
-167.53
-90.92
-28.01
22.24
60.44
88.05
107.47
118.47
123.27
126.31
131.46
139.65
152.34
166.72
180.84
192.82
197.65
191.54
173.04
142.28
100.66
51.91
1.45
-43.78
-78.76
-103.39
-119.86
-128.73
-128.93
-121.44
-107.59
-90.25
-68.57
-42.36
-13.63
14.50
39.76
61.16
78.86
93.93
107.15
118.70
127.05
129.84
125.65
115.04
99.93
82.67
65.34
49.01
33.99
19.57
5.05
-9.45
-22.77
-33.20
-39.01
-38.79
-32.13
-19.59
-2.98
15.26
32.78
47.79
59.13
66.25
69.00
67.46
61.96
52.96
41.34
28.27
15.07
2.90
-7.55
-15.99
-22.52
-27.53
-31.55
-35.09
-38.52
-42.05
-45.71
-49.37
-52.80
-55.80
-58.15
-59.77
-60.64
-60.73
-59.96
-58.06
-54.63
-49.30
-41.92
-32.68
-22.15
-11.18
-0.67
8.67
16.38
22.22
26.08
27.94
27.99
26.60
24.34
21.79
19.65
18.53
19.16
22.21
28.20
37.22
48.65
61.11
72.59
80.77
83.54
79.50
68.29
50.70
28.43
3.64
-21.55
-45.40
-66.69
-84.55
-98.14
-106.48
-108.54
-103.58
-91.50
-73.10
-50.06
-24.85
-0.28
20.88
36.50
45.42
47.61
43.92
35.59
23.85
9.61
-6.34
-23.16
-39.55
-53.70
-63.44
-66.64
-61.68
-47.81
-25.55
3.27
35.53
67.24
94.29
113.26
122.18
120.97
111.40
96.50
79.70
63.96
51.11
41.60
34.73
29.35
24.45
19.51
14.42
9.13
3.36
-3.40
-11.84
-22.20
-34.06
-46.32
-57.51
-66.27
-71.73
-73.64
-72.29
-68.30
-62.29
-54.84
-46.33
-37.36
-29.07
-23.29
-22.34
-28.42
-42.72
-64.99
-93.26
-123.68
-151.31
-171.11
-178.79
-171.52
-148.39
-110.69
-62.32
-9.26
42.30
87.06
121.71
145.37
159.07
164.62
163.48
155.78
140.98
119.75
94.07
66.93
41.38
19.30
0.69
-12.97
-20.34
-22.41
-22.73
-25.95
-34.71
-48.02
-61.88
-70.67
-69.14
-55.20
-34.11
-9.50
13.02
27.35
29.68
19.48
-0.86
-27.31
-56.05
-84.10
-108.82
-124.66
-128.60
-120.55
-104.20
-86.62
-76.34
-80.64
-102.52
-138.50
-180.28
-217.69
-241.42
-245.72
-229.67
-196.69
-153.08
-105.68
-59.74
-18.31
17.40
47.76
73.82
96.63
117.17
136.56
156.46
178.69
204.14
231.71
258.59
281.32
297.21
305.18
305.27
297.17
278.80
246.54
197.47
132.32
57.32
-16.79
-78.19
-118.04
-133.05
-125.41
-100.65
-64.86
-23.48
18.61
56.16
83.56
96.19
92.29
74.12
47.39
19.09
-5.33
-23.42
-35.85
-45.00
-53.10
-60.95
-67.61
-71.07
-69.27
-61.12
-46.75
-27.38
-4.86
18.98
42.73
65.54
86.95
106.68
124.20
138.80
149.65
156.12
158.15
156.42
152.15
146.57
140.40
133.50
125.02
114.06
100.18
83.65
65.16
45.29
24.17
1.69
-21.87
-45.24
-66.03
-81.54
-89.97
-91.32
-87.39
-81.04
-74.99
-71.07
-70.06
-72.20
-77.78
-87.34
-101.40
-119.60
-140.13
-159.50
-173.26
-177.23
-168.83
-148.06
-117.49
-81.44
-44.71
-11.24
16.59
37.87
52.59
60.79
62.31
56.94
44.90
27.30
6.27
-15.26
-34.15
-47.75
-54.45
-53.84
-46.69
-34.58
-19.39
-2.73
14.30
30.88
46.00
58.15
65.43
66.19
60.02
48.40
34.58
22.40
14.85
12.68
14.17
15.81
13.71
5.08
-10.89
-33.15
-59.44
-86.83
-111.91
-130.85
-139.99
-136.87
-121.63
-97.59
-70.61
-47.03
-31.11
-23.54
-21.75
-21.84
-20.73
-17.28
-11.81
-4.93
3.29
13.20
24.67
36.43
46.29
52.19
53.26
50.28
44.80
38.00
29.99
20.24
8.63
-3.69
-14.20
-20.10
-19.32
-12.06
-1.34
7.97
11.22
5.49
-9.64
-32.31
-58.99
-84.33
-103.08
-111.86
-110.34
-101.14
-88.95
-79.17
-75.78
-79.87
-87.94
-94.89
-97.57
-96.09
-92.75
-89.60
-86.58
-80.57
-66.33
-36.71
12.34
78.17
152.05
222.48
279.60
317.66
335.92
326.74
289.08
232.49
171.83
117.63
72.38
34.86
3.88
-20.37
-37.67
-46.53
-46.23
-39.85
-32.22
-27.53
-27.59
-33.54
-46.17
-66.62
-91.94
-114.93
-131.33
-135.43
-123.25
-93.22
-48.48
4.83
57.50
103.50
140.69
164.60
170.87
158.12
128.64
85.54
32.49
-29.55
-96.83
-162.22
-221.95
-273.38
-313.64
-330.28
-317.06
-259.98
-164.57
-62.82
35.93
128.73
207.64
266.58
303.30
318.22
315.13
286.02
234.10
173.50
115.85
66.75
28.22
0.48
-18.19
-30.26
-40.07
-48.19
-52.06
-51.98
-49.64
-45.67
-40.34
-34.80
-30.32
-28.89
-29.60
-29.67
-28.48
-26.58
-24.09
-20.89
-17.43
-14.31
-12.60
-11.79
-10.53
-8.65
-6.57
-4.39
-2.07
0.26
2.38
3.92
5.14
6.58
8.29
10.06
11.85
13.70
15.62
17.53
19.44
21.44
23.55
25.87
28.26
30.68
33.07
35.31
37.14
38.36
38.55
37.27
34.19
28.94
21.44
11.81
0.45
-12.30
-25.27
-37.50
-48.01
-56.03
-60.98
-62.67
-61.20
-56.41
-49.61
-41.56
-33.19
-25.22
-18.17
-12.37
-7.90
-4.60
-2.39
-1.25
-0.57
-0.17
0.12
0.39
0.68
1.00
1.36
1.69
1.89
2.10
2.28
2.42
2.55
2.67
2.77
2.86
2.92
2.90
2.89
2.86
2.81
2.76
2.71
2.64
2.58
2.50
2.37
2.25
2.10
1.97
1.79
1.64
1.47
1.31
1.13
0.95
0.79
0.62
0.46
0.30
0.15
-0.01
-0.14
-0.29
-0.43
-0.57
-0.74
-0.91
-1.10
-1.32
-1.58
-1.88
-2.21
-2.59
-3.02
-3.47
-3.97
-4.52
-5.13
-5.80
-6.53
-7.34
-8.22
-9.17
-10.18
-11.26
-12.40
-13.61
-14.90
-16.26
-17.70
-19.23
-20.83
-22.48
-24.20
-25.99
-27.90
-29.97
-32.19
-34.57
-37.06
-39.50
-41.64
-43.27
-44.02
-43.48
-41.31
-37.25
-31.17
-23.18
-13.89
-3.50
7.36
18.09
28.03
36.62
43.43
48.20
50.83
51.36
50.08
47.35
43.67
39.53
35.37
31.53
28.15
25.21
22.62
20.27
18.09
16.09
14.27
12.67
11.29
9.84
7.89
5.18
1.59
-2.92
-7.87
-12.61
-16.45
-19.09
-20.83
-22.31
-24.38
-27.77
-33.14
-40.33
-48.74
-57.63
-66.74
-76.32
-86.99
-99.43
-113.79
-129.91
-146.42
-161.64
-173.89
-182.40
-187.48
-190.40
-193.07
-197.79
-207.47
-224.04
-247.65
-275.68
-302.97
-323.11
-330.66
-323.25
-298.33
-260.10
-215.75
-172.33
-134.12
-102.06
-74.67
-49.83
-26.33
-4.09
15.71
32.66
47.23
60.30
72.25
82.53
89.87
92.78
90.31
82.51
70.65
56.47
41.72
27.55
14.53
2.64
-8.35
-18.40
-26.96
-33.08
-35.89
-34.90
-30.22
-22.44
-12.62
-1.98
8.51
18.93
29.43
39.72
49.16
57.12
63.18
67.39
70.03
71.57
75.16
82.91
95.03
110.15
126.77
144.33
163.19
183.91
206.90
237.29
277.39
325.00
374.47
420.30
459.49
491.52
517.31
538.41
564.53
601.34
647.63
696.73
741.81
779.37
808.94
831.43
847.75
868.77
899.51
935.83
966.83
981.80
975.12
946.32
897.97
767.53
536.37
234.48
-76.26
-342.84
-542.86
-678.54
-762.81
-810.20
-832.96
-829.65
-800.95
-753.86
-700.50
-651.73
-613.03
-584.82
-564.99
-550.82
-531.83
-502.10
-462.93
-421.28
-384.23
-355.42
-334.99
-321.24
-312.12
-300.78
-283.29
-260.32
-236.11
-215.07
-199.42
-189.27
-183.41
-180.63
-177.39
-171.73
-163.95
-156.03
-150.02
-146.82
-146.13
-146.61
-146.94
-144.69
-137.85
-125.25
-106.54
-81.87
-51.71
-16.90
21.79
62.39
102.35
138.91
169.49
192.10
205.58
209.75
203.44
189.31
170.15
148.64
127.12
107.35
90.41
76.69
66.09
58.15
52.45
47.99
44.04
40.08
35.86
31.32
26.55
21.77
17.18
13.61
10.67
8.21
6.10
4.22
2.54
1.02
-0.32
-1.49
-2.33
-2.98
-3.47
-3.81
-4.05
-4.21
-4.30
-4.29
-4.21
-3.97
-3.65
-3.24
-2.73
-2.17
-1.54
-0.87
-0.13
0.66
1.54
2.48
3.49
4.56
5.65
6.71
7.74
8.72
9.64
10.53
11.40
12.30
13.32
14.45
15.65
16.82
17.82
18.39
18.21
16.82
13.77
8.62
1.13
-8.75
-20.68
-33.71
-46.92
-59.07
-68.91
-75.45
-78.07
-76.69
-71.69
-63.78
-53.69
-42.20
-30.03
-17.81
-6.19
4.21
12.85
19.41
23.82
26.41
27.77
28.66
29.70
31.14
32.81
34.25
35.15
35.32
34.96
34.50
34.54
35.57
37.99
42.12
48.13
55.63
63.23
68.67
69.28
63.17
50.31
32.65
13.55
-3.56
-16.44
-24.56
-28.63
-29.79
-29.05
-26.94
-23.95
-20.88
-18.78
-18.54
-20.36
-23.51
-26.63
-28.58
-28.71
-27.21
-24.89
-22.74
-21.55
-21.70
-23.17
-24.71
-25.59
-25.32
-23.85
-21.48
-18.81
-16.47
-14.90
-14.09
-13.57
-12.68
-10.66
-7.10
-2.12
3.47
8.60
12.23
13.94
13.94
12.84
11.39
9.90
8.24
5.89
2.39
-2.37
-7.92
-13.44
-18.12
-21.47
-23.50
-24.59
-25.21
-25.70
-25.97
-25.68
-24.42
-22.21
-19.48
-16.97
-15.35
-14.75
-14.66
-14.23
-12.70
-9.84
-6.25
-2.83
-0.40
0.83
1.28
1.65
2.47
3.68
4.77
5.10
4.37
2.84
1.29
0.73
2.03
5.45
10.47
16.00
20.62
23.04
22.55
19.12
13.49
6.78
0.28
-5.12
-9.05
-11.71
-13.70
-15.60
-17.81
-20.17
-22.26
-23.42
-23.15
-21.34
-18.26
-14.48
-10.43
-6.43
-2.51
1.35
5.15
8.86
12.26
15.07
17.03
17.98
17.87
16.91
15.40
13.59
11.62
9.43
6.95
4.33
2.09
1.05
2.11
5.81
11.96
19.80
28.13
35.74
41.75
45.68
47.46
47.24
45.27
41.69
36.62
30.22
22.84
15.25
8.45
3.46
0.87
0.53
1.49
2.39
1.91
-0.70
-5.40
-11.38
-17.40
-22.03
-24.27
-23.80
-21.27
-18.16
-16.22
-16.66
-19.72
-24.59
-29.85
-34.25
-37.18
-38.84
-39.87
-40.93
-42.27
-43.72
-44.73
-44.67
-43.04
-39.62
-34.58
-28.38
-21.65
-14.91
-8.52
-2.70
2.36
6.38
9.10
10.40
10.45
9.62
8.25
6.33
3.49
-0.68
-6.25
-12.68
-18.87
-23.61
-25.96
-25.68
-23.12
-19.08
-14.39
-9.82
-5.85
-2.63
-0.04
2.27
4.65
7.31
10.20
13.18
16.09
18.93
21.88
24.96
28.00
30.65
32.52
33.31
32.92
31.43
28.92
25.51
21.35
16.81
12.40
8.69
6.00
4.24
3.11
2.16
1.19
0.32
-0.16
-0.01
0.67
1.48
1.74
0.91
-1.16
-4.09
-7.13
-9.60
-11.17
-12.00
-12.44
-12.84
-13.30
-13.67
-13.73
-13.40
-12.78
-11.96
-10.69
-8.46
-4.72
0.76
7.43
14.11
19.40
22.15
22.03
19.55
15.63
11.29
7.20
3.42
-0.41
-4.87
-10.46
-17.21
-24.51
-31.21
-35.60
-36.08
-31.78
-22.98
-11.33
0.53
9.99
15.41
16.74
15.69
14.91
16.73
22.11
30.23
39.01
46.49
52.01
56.34
61.11
67.74
76.72
87.74
99.88
111.39
119.23
118.84
105.10
74.92
30.15
-21.09
-66.22
-93.04
-95.28
-75.49
-43.40
-11.05
12.91
26.04
31.24
33.28
34.81
34.48
27.78
9.69
-22.62
-68.09
-121.75
-175.99
-222.66
-255.52
-271.96
-273.64
-265.38
-253.13
-241.64
-233.22
-227.99
-224.76
-222.15
-218.95
-213.81
-204.94
-190.04
-166.60
-132.70
-87.82
-33.08
28.68
93.35
156.01
211.71
256.31
287.31
303.94
306.87
297.78
278.94
252.93
222.52
190.29
158.37
128.08
99.70
72.53
45.60
18.41
-8.64
-34.12
-56.13
-72.56
-81.68
-82.51
-75.44
-62.64
-47.92
-35.61
-29.00
-29.23
-34.70
-42.16
-48.28
-51.18
-50.77
-48.15
-43.94
-37.44
-26.85
-10.57
11.40
37.02
63.14
87.10
108.08
127.18
146.31
166.63
187.41
206.12
219.62
225.88
224.96
218.87
210.36
201.05
190.40
175.81
153.63
121.29
78.75
29.00
-22.76
-70.93
-111.32
-142.37
-164.85
-180.97
-192.79
-201.40
-206.78
-208.46
-206.14
-199.85
-189.78
-175.88
-157.88
-135.71
-110.21
-83.48
-58.66
-39.08
-27.28
-24.19
-28.71
-37.96
-47.66
-53.33
-51.59
-41.34
-24.16
-3.44
17.04
34.76
49.15
61.04
71.40
80.23
86.32
88.12
84.99
77.48
67.43
56.92
47.44
39.73
33.92
30.11
28.62
29.82
33.69
39.70
46.94
54.40
61.37
67.53
72.90
77.44
80.95
83.00
83.30
81.91
79.39
76.71
74.93
74.85
76.55
79.40
82.04
82.75
79.75
71.59
57.58
37.96
13.63
-14.22
-44.51
-76.41
-109.01
-141.14
-170.99
-196.06
-213.79
-222.09
-220.10
-208.48
-189.29
-165.41
-139.65
-113.96
-89.10
-64.93
-41.28
-18.65
1.62
17.76
28.73
35.16
39.21
43.76
50.88
60.83
72.02
81.75
87.41
87.37
81.30
69.93
54.45
36.15
16.27
-3.95
-23.33
-40.67
-54.78
-64.44
-68.64
-66.93
-59.71
-48.29
-34.59
-20.46
-7.04
5.40
17.37
29.40
41.66
53.75
64.77
73.71
79.87
83.04
83.50
81.65
77.78
71.90
63.89
53.69
41.68
28.90
16.88
7.23
0.99
-1.69
-1.58
0.00
1.77
2.85
2.99
2.27
0.91
-0.83
-2.81
-4.91
-7.06
-9.20
-11.29
-13.22
-14.89
-16.14
-16.78
-16.74
-16.22
-15.50
-14.99
-14.96
-15.52
-16.53
-17.81
-19.04
-20.02
-20.60
-20.78
-20.68
-20.64
-21.07
-22.23
-24.16
-26.55
-28.87
-30.55
-31.22
-30.72
-29.22
-27.08
-24.70
-22.43
-20.54
-19.05
-17.76
-16.25
-14.00
-10.68
-6.28
-1.13
4.21
9.21
13.56
17.17
20.12
22.54
24.48
25.97
27.10
27.99
28.78
29.54
30.13
30.21
29.31
27.07
23.48
18.93
14.04
9.47
5.67
2.68
0.16
-2.42
-5.56
-9.45
-13.98
-18.77
-23.22
-26.75
-28.97
-29.73
-29.19
-27.71
-25.59
-22.91
-19.49
-15.15
-10.02
-4.85
-0.69
1.60
1.85
0.87
-0.03
0.40
2.53
5.74
8.84
10.90
11.80
12.22
13.14
15.12
18.00
20.91
22.88
23.37
22.50
20.91
19.34
18.23
17.60
17.11
16.40
15.27
13.81
12.28
10.95
10.01
9.41
9.01
8.57
7.91
7.03
6.02
5.04
4.26
3.75
3.45
3.24
2.99
2.60
2.10
1.56
1.07
0.72
0.51
0.40
0.33
0.23
0.09
-0.11
-0.31
-0.47
-0.58
-0.63
-0.66
-0.67
-0.71
-0.76
-0.81
-0.86
-0.89
-0.91
-0.91
-0.90
-0.89
-0.89
-0.89
-0.89
-0.89
-0.89
-0.88
-0.88
-0.88
-0.87
-0.87
-0.87
-0.86
-0.86
-0.86
-0.86
-0.85
-0.85
-0.85
-0.85
-0.84
-0.84
-0.83
-0.83
-0.83
-0.83
-0.83
-0.82
-0.82
-0.82
-0.81
-0.81
-0.81
-0.80
-0.80
-0.80
-0.80
-0.79
-0.79
-0.79
-0.79
-0.78
-0.78
-0.78
-0.77
-0.77
-0.77
-0.77
-0.77
-0.76
-0.76
-0.76
-0.75
-0.75
-0.75
-0.75
-0.74
-0.74
-0.74
-0.73
-0.73
-0.73
-0.72
-0.72
-0.72
-0.72
-0.72
-0.71
-0.71
-0.71
-0.71
-0.70
-0.70
-0.70
-0.70
-0.70
-0.69
-0.69
-0.69
-0.69
-0.69
-0.68
-0.68
-0.68
-0.68
-0.67
-0.67
-0.67
-0.67
-0.66
-0.66
-0.66
-0.66
-0.66
-0.65
-0.65
-0.65
-0.65
-0.64
-0.64
-0.64
-0.64
-0.63
-0.63
-0.63
-0.63
-0.62
-0.62
-0.62
-0.62
-0.62
-0.62
-0.61
-0.61
-0.61
-0.60
-0.60
-0.60
-0.60
-0.60
-0.59
-0.59
-0.59
-0.59
-0.59
-0.58
-0.58
-0.58
-0.58
-0.57
-0.58
-0.57
-0.57
-0.56
-0.56
-0.56
-0.55
-0.55
-0.54
-0.55
-0.56
-0.58
-0.63
-0.70
-0.81
-0.97
-1.17
-1.41
-1.68
-1.96
-2.25
-2.52
-2.79
-2.96
-2.96
-2.77
-2.46
-2.12
-1.88
-1.75
-1.70
-1.71
-1.70
-1.59
-1.40
-1.18
-1.06
-1.14
-1.42
-1.86
-2.46
-3.09
-3.61
-3.99
-4.35
-4.86
-5.74
-6.95
-8.44
-10.19
-11.69
-12.51
-12.56
-12.19
-11.95
-12.52
-13.79
-15.57
-17.73
-19.19
-19.04
-17.06
-14.00
-11.03
-9.64
-9.73
-10.93
-12.99
-14.22
-13.06
-8.83
-2.12
6.05
14.42
24.44
38.26
57.87
86.27
125.24
174.08
229.18
285.38
336.80
381.08
417.02
428.06
400.81
333.38
238.69
135.88
46.44
-30.21
-97.44
-158.74
-217.79
-273.70
-323.80
-364.78
-394.64
-413.21
-423.12
-425.88
-423.82
-407.42
-372.16
-320.43
-259.56
-197.61
-138.95
-84.42
-30.60
25.40
83.59
141.25
195.43
243.12
281.21
307.59
321.51
325.27
322.07
314.29
301.70
277.34
237.07
178.24
100.69
7.76
-92.68
-190.42
-275.74
-342.43
-387.11
-408.98
-410.08
-394.37
-366.27
-328.56
-282.41
-228.27
-167.29
-99.98
-26.77
51.05
130.86
209.19
283.74
353.13
416.26
460.32
473.03
449.43
395.47
322.63
239.98
153.07
65.19
-19.62
-95.32
-153.29
-190.11
-205.85
-205.58
-198.77
-193.24
-192.41
-194.94
-196.93
-193.64
-182.69
-165.34
-141.85
-116.68
-93.18
-74.15
-62.27
-60.12
-67.61
-79.69
-86.50
-77.39
-46.40
6.49
73.20
140.82
197.46
238.01
266.08
289.89
315.71
334.07
332.54
301.84
244.29
173.95
108.38
59.81
29.66
10.28
-9.75
-36.39
-69.11
-102.50
-130.38
-152.22
-167.51
-177.31
-182.52
-183.47
-177.68
-162.78
-137.76
-104.14
-65.70
-26.82
7.89
36.59
54.21
58.76
51.04
33.83
9.82
-19.36
-52.87
-89.79
-126.98
-162.43
-188.55
-197.83
-186.20
-155.03
-110.81
-62.56
-18.60
16.52
41.92
59.75
72.61
80.43
81.86
75.59
61.61
40.63
17.73
-0.55
-8.94
-5.27
9.98
35.41
68.97
106.99
144.02
173.67
193.42
199.61
191.46
172.09
147.44
123.45
103.65
89.00
78.98
72.37
67.72
62.98
56.40
48.29
39.79
31.45
23.53
16.72
11.54
7.69
4.83
2.94
1.92
1.02
-1.02
-4.85
-10.39
-17.47
-27.47
-41.50
-59.11
-80.80
-103.84
-125.96
-144.18
-155.57
-158.04
-153.41
-144.15
-131.02
-113.16
-88.64
-56.94
-17.32
30.48
85.31
140.29
188.22
225.15
250.86
265.39
263.33
241.26
200.87
149.27
88.63
14.08
-77.48
-187.19
-305.84
-426.24
-542.20
-649.04
-711.69
-708.03
-637.57
-519.58
-379.82
-239.67
-115.13
-15.03
58.30
107.85
135.26
143.67
138.45
125.75
111.23
98.16
89.48
87.22
92.07
99.17
102.93
100.46
92.02
80.49
68.98
60.84
58.67
63.96
74.26
86.36
99.33
112.40
125.75
138.90
150.91
159.61
162.20
154.61
133.76
99.20
53.41
0.98
-52.65
-101.60
-141.43
-169.30
-184.43
-187.17
-178.13
-158.26
-129.23
-93.78
-55.14
-17.97
12.88
33.69
42.93
41.99
34.53
25.85
15.77
6.76
1.26
1.91
11.33
31.34
61.75
99.42
139.10
175.17
204.55
226.21
240.33
246.25
241.12
220.98
183.57
131.56
73.19
20.43
-17.10
-35.91
-39.34
-34.53
-27.52
-20.03
-9.49
7.94
33.80
64.24
90.97
104.32
97.32
68.77
23.96
-26.85
-71.61
-100.18
-107.69
-95.73
-71.32
-43.98
-22.49
-12.50
-16.45
-34.36
-65.12
-106.82
-156.05
-207.51
-254.91
-292.65
-317.78
-330.60
-333.10
-326.60
-309.87
-279.35
-231.50
-165.79
-86.10
-0.04
83.70
158.04
218.91
264.88
295.82
311.56
311.65
295.92
265.45
223.30
174.23
123.82
77.09
37.85
8.02
-12.15
-23.52
-27.86
-27.39
-24.21
-20.25
-17.29
-16.76
-19.70
-26.22
-34.85
-42.71
-46.26
-42.55
-30.79
-12.69
8.10
27.55
42.81
53.10
59.02
61.40
60.41
55.39
45.62
31.26
13.73
-4.48
-20.31
-31.02
-34.72
-30.72
-19.92
-4.66
11.65
25.40
33.95
36.31
33.16
26.16
17.20
7.41
-2.48
-11.89
-20.07
-25.97
-28.78
-28.52
-26.23
-23.52
-22.02
-22.28
-23.45
-23.73
-21.12
-14.53
-4.32
7.82
19.74
29.57
36.49
40.76
43.07
43.81
42.58
38.42
30.55
19.31
6.40
-5.53
-14.06
-18.16
-18.47
-16.97
-15.77
-16.12
-17.90
-20.09
-21.42
-21.08
-19.05
-15.83
-12.25
-9.02
-6.69
-5.58
-5.68
-6.54
-7.14
-6.00
-1.46
7.84
22.65
42.85
67.43
94.93
123.96
153.70
184.02
214.83
245.18
272.49
292.24
298.47
285.14
247.91
185.94
102.83
6.32
-93.38
-185.92
-262.90
-319.02
-352.14
-362.68
-352.79
-325.89
-286.41
-239.57
-190.66
-144.39
-104.31
-72.44
-50.01
-37.91
-36.64
-45.63
-62.39
-82.32
-99.75
-109.71
-109.31
-98.43
-78.92
-53.11
-22.83
10.95
47.37
84.81
120.50
150.76
171.98
181.70
179.25
165.72
143.54
115.70
85.10
54.15
24.80
-1.46
-23.25
-39.08
-47.78
-48.69
-42.16
-29.84
-14.40
1.09
13.72
21.32
22.90
18.19
7.47
-8.56
-28.90
-51.96
-75.53
-97.05
-114.17
-125.25
-129.84
-128.35
-121.32
-108.79
-90.07
-64.31
-31.48
6.82
47.17
85.12
116.56
139.00
151.97
156.67
154.93
148.26
137.45
122.92
105.26
85.76
66.49
49.52
36.40
27.75
23.09
21.38
21.58
22.90
24.91
27.41
30.12
32.72
34.98
36.73
37.94
38.63
38.72
37.95
35.92
32.17
26.43
18.72
9.40
-0.93
-11.42
-21.16
-29.35
-35.35
-38.95
-40.32
-39.90
-38.23
-35.78
-32.80
-29.35
-25.53
-21.52
-17.74
-14.64
-12.52
-11.43
-11.05
-10.87
-10.34
-9.17
-7.32
-5.06
-2.83
-1.01
0.19
0.82
1.09
1.28
1.50
1.76
2.01
2.15
2.15
2.00
1.64
0.92
-0.45
-2.72
-6.06
-10.39
-15.44
-20.64
-25.39
-29.20
-31.75
-33.03
-33.14
-32.25
-30.52
-28.24
-25.77
-23.71
-22.79
-23.56
-26.13
-30.03
-34.17
-37.27
-38.20
-36.36
-31.84
-25.22
-17.29
-8.76
-0.16
8.08
15.59
21.93
26.67
29.49
30.41
29.82
28.38
26.83
25.73
25.21
25.03
24.54
22.94
19.61
14.45
8.08
1.70
-3.37
-6.23
-6.62
-4.99
-2.07
1.48
5.32
9.45
13.92
18.58
22.91
26.16
27.55
26.60
23.33
18.31
12.48
6.93
2.55
-0.26
-1.61
-2.01
-2.09
-2.30
-2.84
-3.57
-4.19
-4.22
-3.18
-0.71
3.23
8.13
12.84
15.77
15.14
9.58
-1.46
-17.43
-36.70
-56.80
-74.91
-88.28
-94.70
-92.92
-82.97
-66.10
-44.47
-20.71
2.73
23.89
41.40
54.46
62.62
65.80
64.40
59.37
52.08
43.99
36.35
29.80
24.53
20.41
17.32
15.23
14.14
13.93
14.36
15.09
15.81
16.57
17.49
18.46
18.96
18.18
15.35
10.23
3.19
-4.92
-12.94
-19.91
-25.40
-29.56
-32.76
-35.33
-37.35
-38.75
-39.46
-38.93
-36.55
-31.73
-24.09
-13.57
-0.38
14.71
30.29
44.34
55.81
64.20
69.41
71.45
70.34
66.31
59.47
49.52
35.80
19.84
3.76
-10.76
-23.80
-37.27
-53.86
-76.17
-106.11
-144.29
-186.31
-226.09
-258.58
-281.68
-295.46
-299.84
-293.12
-271.90
-232.02
-165.86
-68.19
59.80
208.79
364.21
511.60
640.54
745.83
800.36
783.72
693.39
550.09
385.67
226.67
88.34
-23.01
-106.66
-165.51
-200.96
-215.47
-213.45
-201.51
-186.51
-173.19
-163.53
-157.90
-156.05
-154.47
-149.61
-139.91
-126.70
-113.01
-101.39
-92.79
-87.10
-83.89
-80.96
-76.24
-69.02
-60.29
-51.89
-45.12
-39.97
-35.86
-32.37
-28.68
-24.19
-19.23
-14.75
-11.59
-10.02
-9.28
-8.79
-8.64
-9.54
-12.63
-19.30
-30.75
-47.64
-70.07
-97.16
-125.64
-150.87
-167.23
-169.73
-156.08
-128.02
-90.02
-50.84
-16.93
8.82
26.93
39.82
49.74
57.38
62.10
63.20
60.80
56.96
54.15
53.82
55.74
58.24
59.28
57.44
52.83
46.71
41.25
38.23
38.34
41.15
45.45
49.65
52.10
51.27
45.88
35.60
21.37
5.23
-10.00
-21.84
-29.11
-32.28
-32.91
-32.63
-31.90
-29.83
-24.90
-16.14
-3.92
9.91
22.96
33.25
39.93
43.21
43.83
42.44
39.04
33.19
24.49
13.09
-0.02
-13.08
-24.04
-31.26
-33.95
-32.37
-27.44
-20.40
-12.46
-4.73
1.81
6.36
8.39
7.97
5.73
2.76
0.14
-1.41
-1.57
-0.53
1.28
3.30
5.00
6.10
6.78
7.59
9.15
11.95
15.55
18.72
19.80
17.65
12.62
6.70
2.85
3.77
10.98
23.92
40.37
56.96
69.77
75.33
71.66
59.20
41.05
22.43
8.27
1.40
1.12
3.41
2.88
-4.82
-21.14
-44.56
-70.24
-93.00
-108.38
-113.84
-109.28
-96.88
-80.26
-63.32
-48.89
-37.81
-29.00
-20.15
-9.12
4.42
18.75
30.83
37.88
39.12
36.27
32.41
30.51
31.77
34.98
37.72
37.80
34.56
29.30
24.24
20.89
19.00
16.34
9.90
-2.38
-20.40
-41.77
-62.73
-79.54
-90.01
-93.81
-92.09
-86.50
-78.26
-67.81
-55.19
-40.54
-24.65
-9.14
3.98
13.01
17.03
16.21
11.68
5.03
-1.90
-7.56
-10.70
-10.18
-4.94
5.80
22.04
42.42
64.02
82.92
95.37
99.32
95.21
85.67
74.12
63.00
52.64
41.52
27.68
10.49
-8.28
-24.90
-35.38
-37.52
-32.26
-23.38
-15.93
-13.97
-18.95
-29.53
-42.71
-55.57
-66.28
-74.22
-79.05
-79.75
-74.50
-61.49
-40.30
-12.48
18.83
50.34
80.00
107.56
133.77
159.09
182.39
200.67
210.14
207.88
193.29
168.52
137.79
105.62
75.18
47.40
20.94
-6.54
-36.87
-70.04
-103.98
-135.29
-160.93
-179.39
-191.31
-198.85
-204.41
-209.30
-213.04
-213.60
-208.35
-195.46
-174.55
-146.99
-115.12
-81.49
-47.99
-15.84
14.02
40.49
61.93
76.55
83.07
81.41
72.85
59.79
44.98
31.04
20.04
13.14
10.77
12.64
18.06
26.18
36.18
47.28
58.53
68.64
75.64
77.26
71.66
58.39
38.97
16.60
-4.75
-21.71
-32.45
-37.47
-39.08
-40.36
-43.40
-48.55
-54.76
-60.49
-64.54
-66.36
-66.22
-64.63
-61.91
-56.93
-48.28
-35.65
-20.79
-6.85
3.11
7.26
5.71
0.16
-5.81
-9.13
-8.81
-6.62
-5.09
-5.26
-5.99
-4.48
2.63
19.73
50.22
94.78
149.99
209.68
267.22
316.75
354.21
365.91
343.18
289.17
218.14
144.45
74.70
8.97
-54.20
-113.90
-166.35
-205.46
-229.44
-237.76
-233.58
-222.29
-208.54
-195.24
-183.47
-168.40
-149.03
-124.80
-95.73
-64.10
-33.54
-6.96
14.10
29.63
40.37
47.10
50.47
50.35
46.95
39.65
30.58
23.54
21.91
26.20
32.98
37.05
33.70
20.99
1.16
-19.33
-32.88
-33.72
-19.52
8.28
46.64
91.11
136.45
177.34
209.43
229.47
235.62
227.69
206.78
175.11
135.14
89.21
39.75
-10.16
-56.69
-95.70
-123.69
-139.27
-143.39
-139.12
-130.27
-119.82
-108.98
-97.36
-84.42
-70.80
-59.36
-54.15
-58.67
-73.95
-97.62
-124.56
-148.84
-165.98
-174.24
-174.57
-169.47
-161.39
-151.89
-141.12
-128.35
-112.46
-92.94
-70.65
-48.10
-29.05
-17.18
-14.50
-19.81
-28.74
-34.86
-31.98
-16.29
12.55
51.66
96.14
140.32
179.07
208.36
225.72
230.40
223.24
206.14
181.36
151.11
117.31
82.09
48.17
18.94
-1.70
-10.59
-6.21
10.45
36.12
65.82
93.97
115.36
126.06
124.42
111.09
88.72
60.92
31.50
3.38
-21.61
-42.99
-61.21
-76.93
-90.92
-103.78
-115.80
-126.58
-134.98
-139.43
-138.45
-131.54
-118.73
-101.53
-82.56
-64.58
-49.14
-36.12
-24.35
-12.62
-1.21
9.22
16.41
16.85
7.41
-12.56
-40.34
-70.16
-94.84
-107.93
-103.07
-78.63
-39.59
3.34
38.01
55.97
56.62
47.90
43.22
58.94
104.57
177.87
265.97
351.72
421.30
468.60
494.91
486.44
437.19
352.48
247.93
141.07
44.21
-36.00
-96.35
-136.49
-159.38
-167.56
-165.30
-157.93
-150.32
-145.03
-141.62
-138.08
-132.79
-125.85
-116.53
-105.31
-93.83
-84.08
-77.11
-72.38
-68.44
-64.03
-58.90
-52.30
-44.23
-35.57
-27.62
-21.29
-16.61
-12.96
-9.48
-5.79
-1.29
4.29
10.41
16.18
20.86
24.16
26.13
27.19
27.35
26.41
23.79
18.40
9.20
-4.32
-21.60
-41.83
-62.36
-80.81
-95.43
-105.45
-111.16
-113.54
-113.73
-111.20
-107.21
-101.50
-93.87
-84.47
-74.21
-64.72
-57.65
-54.63
-56.82
-64.83
-77.54
-91.99
-103.31
-105.62
-94.90
-71.42
-40.71
-11.32
8.83
17.11
17.34
17.22
24.37
42.61
70.74
103.78
136.03
161.97
177.56
179.71
166.53
139.09
102.56
65.98
38.40
26.54
29.55
40.65
51.00
53.90
48.30
36.78
23.84
12.90
4.83
-1.42
-6.59
-10.11
-10.17
-4.92
5.90
20.49
35.98
49.65
59.82
66.34
69.49
69.07
64.50
55.30
42.16
27.35
14.21
5.53
2.27
2.82
3.90
2.38
-3.66
-14.07
-27.09
-40.24
-51.31
-58.95
-62.92
-63.66
-61.77
-58.56
-55.82
-55.50
-59.21
-67.31
-78.32
-89.09
-95.15
-92.23
-79.33
-59.32
-37.64
-19.37
-6.22
4.18
16.41
34.93
61.91
94.65
126.62
149.77
157.24
145.08
113.14
63.96
1.04
-65.32
-123.62
-165.30
-187.77
-194.77
-193.79
-184.99
-169.37
-146.58
-114.64
-73.88
-28.08
17.04
56.97
90.50
119.72
148.92
178.79
207.17
229.09
239.62
236.79
222.65
201.13
176.85
152.77
126.99
100.04
73.33
49.88
33.88
28.75
33.05
41.77
47.82
45.42
33.66
16.33
0.97
-4.32
5.40
26.56
51.29
70.67
78.12
70.75
47.60
8.54
-46.39
-116.29
-201.60
-297.41
-393.02
-475.00
-532.39
-561.64
-566.65
-555.55
-513.38
-437.25
-336.87
-229.70
-129.86
-43.02
30.88
94.39
150.46
201.46
244.63
279.76
306.15
323.71
332.72
332.73
323.15
303.44
273.37
230.42
174.57
109.65
42.72
-14.04
-49.30
-56.06
-33.71
12.17
70.05
128.13
177.27
212.34
231.26
232.81
216.80
185.11
142.60
95.51
51.06
14.66
-11.87
-30.77
-46.63
-62.94
-79.66
-93.86
-102.88
-106.42
-107.05
-107.99
-110.40
-111.74
-107.10
-92.88
-70.34
-46.88
-32.64
-35.27
-55.53
-87.43
-120.65
-144.92
-153.74
-146.21
-127.31
-103.84
-81.13
-60.63
-42.82
-27.63
-15.21
-6.00
-0.68
-1.35
-6.99
-12.04
-6.26
15.76
53.45
100.41
147.59
186.37
207.76
208.57
192.22
169.04
143.20
113.60
75.58
24.24
-44.55
-138.08
-258.85
-400.98
-546.09
-678.13
-783.65
-853.81
-884.61
-847.88
-737.18
-572.81
-418.69
-289.33
-181.18
-81.54
12.81
101.61
182.80
249.56
298.59
332.59
362.20
390.39
414.41
428.26
428.69
416.55
392.60
359.93
322.74
287.16
251.59
212.20
167.69
123.74
88.95
67.19
56.82
52.24
49.35
43.89
35.58
28.01
28.79
42.59
66.37
91.56
108.20
109.72
92.24
55.87
4.51
-51.06
-99.02
-130.75
-141.63
-130.72
-99.22
-50.08
13.08
86.33
169.80
261.74
356.05
443.79
516.44
568.54
598.89
609.93
579.56
498.36
374.73
232.65
98.55
-12.17
-97.22
-161.65
-212.16
-254.53
-288.81
-314.85
-334.85
-353.00
-369.68
-382.16
-386.13
-378.08
-357.57
-324.59
-276.87
-223.52
-173.59
-131.77
-98.42
-71.58
-49.22
-30.95
-15.47
-1.91
9.58
21.07
35.98
58.16
86.84
117.63
143.75
160.16
164.73
158.56
146.42
133.00
119.77
104.34
82.86
51.02
12.64
-25.07
-55.69
-76.34
-89.32
-100.74
-116.00
-137.84
-162.41
-183.04
-194.17
-194.05
-184.34
-168.93
-151.80
-134.83
-113.24
-85.37
-51.54
-13.67
25.71
65.30
105.28
148.03
193.21
233.65
264.56
277.96
268.41
236.91
192.79
150.88
126.09
127.14
153.43
196.19
242.24
280.30
299.84
296.70
271.50
227.06
166.38
93.17
13.34
-65.00
-132.32
-181.34
-209.80
-222.54
-230.08
-244.83
-276.01
-326.39
-392.12
-464.15
-531.49
-583.78
-613.90
-619.10
-600.73
-563.02
-511.48
-451.86
-389.05
-326.70
-267.19
-211.80
-160.89
-113.82
-68.84
-23.48
24.76
77.62
135.26
195.67
254.43
305.34
342.77
364.15
371.83
372.39
373.30
378.57
385.78
385.96
367.15
319.87
241.87
139.98
28.07
-77.29
-161.71
-216.33
-238.89
-232.39
-202.60
-155.74
-97.59
-33.78
29.40
84.86
126.38
150.12
156.15
148.21
131.96
112.65
93.48
75.53
58.99
45.16
35.68
31.56
32.13
34.56
34.73
28.45
12.57
-13.58
-46.33
-80.20
-109.69
-130.70
-140.75
-138.68
-124.47
-99.71
-67.54
-29.81
10.66
50.64
87.86
122.62
157.67
195.95
237.98
281.17
324.33
365.58
402.60
432.78
453.83
464.34
463.77
452.33
410.79
332.33
225.53
111.34
9.67
-70.07
-128.17
-169.35
-198.62
-219.26
-229.88
-229.51
-219.42
-203.54
-186.51
-171.62
-160.34
-152.77
-147.87
-141.88
-132.06
-117.96
-101.60
-85.91
-72.99
-63.59
-57.72
-54.36
-51.12
-46.61
-41.11
-36.68
-35.78
-39.92
-49.05
-62.96
-78.93
-93.70
-104.91
-111.74
-114.98
-116.24
-116.91
-115.50
-113.25
-109.71
-104.15
-96.30
-86.89
-77.47
-69.98
-65.94
-66.45
-72.25
-82.45
-94.79
-105.22
-108.49
-100.00
-78.26
-46.11
-10.30
20.87
41.72
50.86
51.25
48.07
45.85
46.10
47.74
48.81
48.30
47.62
49.59
56.93
70.63
90.17
112.90
135.80
156.26
171.71
179.55
177.01
162.13
134.00
96.68
55.85
17.56
-13.74
-36.40
-51.09
-59.61
-63.54
-63.60
-60.40
-55.44
-50.94
-49.02
-51.03
-56.89
-65.29
-74.01
-80.12
-80.35
-72.01
-53.86
-27.18
3.69
32.62
53.79
64.49
66.48
64.12
61.57
59.94
56.76
48.01
31.87
10.01
-12.85
-31.88
-45.00
-53.34
-59.57
-64.94
-67.74
-63.99
-50.07
-25.68
5.41
36.90
62.93
80.19
88.81
91.25
90.73
90.61
93.01
98.63
105.82
110.79
108.09
92.34
60.78
14.23
-41.52
-97.73
-144.76
-175.00
-184.47
-173.71
-147.19
-110.51
-72.93
-40.75
-17.05
-1.71
7.09
11.82
14.37
15.83
16.82
17.72
19.66
23.33
28.31
33.16
36.08
35.92
32.87
28.97
27.21
30.79
40.81
55.13
69.05
77.35
76.94
68.33
55.82
44.22
37.31
35.81
37.04
36.68
31.25
19.35
1.72
-20.29
-45.60
-72.58
-98.42
-118.13
-126.09
-118.77
-97.38
-68.12
-40.33
-21.94
-16.88
-22.51
-32.38
-40.27
-43.29
-42.52
-40.86
-40.36
-40.32
-38.15
-31.20
-19.30
-5.06
7.59
15.56
18.57
18.99
20.36
25.20
33.85
44.10
52.59
56.40
54.32
47.19
37.04
26.11
16.08
7.87
1.81
-1.90
-3.20
-2.22
0.51
3.87
6.46
7.13
5.44
1.76
-2.95
-7.59
-11.53
-14.60
-17.31
-20.35
-23.94
-27.81
-31.30
-33.74
-34.38
-32.76
-28.54
-21.77
-13.03
-3.47
5.35
12.10
16.26
18.57
20.63
24.05
29.52
36.27
42.52
46.19
45.93
41.54
33.87
24.33
14.42
5.38
-2.07
-7.78
-12.27
-16.35
-20.62
-25.36
-30.47
-36.12
-42.93
-52.65
-67.00
-86.90
-111.60
-138.25
-162.76
-181.23
-191.40
-192.95
-186.96
-174.30
-154.80
-127.46
-91.31
-46.73
3.94
57.07
109.14
158.05
203.70
246.89
287.72
324.44
353.54
370.88
373.69
361.59
336.23
300.38
256.64
206.92
153.00
97.17
42.46
-7.68
-50.51
-85.16
-112.76
-135.62
-155.41
-172.11
-183.91
-188.16
-182.30
-165.27
-138.35
-105.25
-71.72
-44.02
-27.34
-24.47
-35.02
-54.73
-77.06
-95.78
-107.08
-110.48
-106.97
-97.27
-81.41
-59.51
-31.54
1.33
35.93
67.55
90.95
102.44
100.75
86.33
60.60
28.02
-5.02
-32.93
-53.22
-67.62
-78.84
-87.25
-90.36
-83.72
-60.61
-15.87
49.61
125.95
191.97
223.20
205.17
149.82
72.02
-13.30
-93.57
-160.80
-208.39
-234.39
-239.81
-221.44
-181.54
-127.74
-67.15
-5.43
49.93
91.44
112.06
110.00
91.66
68.75
53.86
54.99
76.49
115.53
162.74
204.91
229.77
229.72
202.76
153.06
90.93
29.74
-19.38
-50.52
-64.46
-66.30
-62.31
-58.10
-57.73
-63.58
-76.91
-98.17
-125.48
-153.89
-176.01
-184.51
-175.57
-150.27
-113.66
-73.08
-36.45
-10.64
0.18
-4.37
-20.64
-42.12
-61.54
-73.09
-73.71
-62.85
-41.08
-8.92
32.86
81.97
133.39
180.19
215.81
236.99
244.67
242.91
236.13
226.88
215.40
201.06
184.10
166.16
149.77
136.95
127.85
120.52
111.94
99.48
82.35
61.99
41.28
22.94
7.98
-4.91
-18.60
-35.54
-56.33
-78.81
-99.17
-113.69
-120.90
-122.45
-122.56
-126.03
-136.03
-152.58
-172.47
-190.96
-204.42
-212.29
-216.96
-221.71
-227.85
-233.69
-235.94
-233.30
-229.33
-232.05
-249.77
-285.59
-333.65
-380.44
-410.31
-412.54
-385.56
-336.34
-275.70
-212.66
-151.63
-92.92
-35.80
18.94
68.44
109.17
138.98
158.44
170.53
178.89
186.21
193.17
198.61
200.57
197.69
190.15
179.72
169.19
161.16
157.10
156.78
158.37
159.28
157.39
152.02
144.22
136.12
129.59
125.27
122.33
119.14
114.44
108.33
102.35
98.59
98.31
101.20
105.54
109.62
112.31
113.39
113.24
112.23
110.38
107.49
103.52
98.98
95.55
94.42
95.46
97.07
97.21
94.46
88.68
80.95
73.05
67.73
66.49
69.12
73.99
79.20
83.34
85.79
86.51
85.90
86.06
88.29
92.20
95.69
95.99
90.89
79.63
63.12
34.67
-6.06
-53.54
-99.10
-136.59
-164.83
-185.94
-202.14
-214.40
-222.46
-224.37
-219.24
-208.38
-195.04
-182.81
-174.55
-171.57
-173.96
-180.42
-186.86
-187.96
-178.28
-154.29
-116.13
-68.67
-20.06
20.87
47.98
60.79
63.41
61.66
59.96
61.06
63.07
63.56
60.08
50.28
32.96
8.46
-20.39
-48.34
-69.17
-78.50
-75.46
-63.06
-46.61
-30.53
-17.09
-5.50
6.53
19.92
33.88
44.75
49.88
49.31
45.86
43.31
44.75
51.34
62.03
74.24
85.04
91.94
93.00
87.10
74.05
55.09
32.78
10.14
-10.22
-26.78
-39.09
-47.64
-52.14
-52.17
-47.09
-36.50
-20.91
-1.94
17.89
35.87
49.71
58.01
60.24
57.04
49.98
41.02
32.15
24.72
19.14
14.84
10.70
5.67
-0.49
-7.05
-12.92
-17.20
-19.90
-21.72
-23.64
-26.19
-29.33
-32.65
-36.07
-40.32
-46.78
-56.78
-70.57
-86.83
-102.75
-114.97
-120.59
-118.00
-107.09
-89.12
-66.23
-41.11
-16.46
5.30
22.48
34.39
41.31
44.20
44.20
42.27
39.04
35.05
30.80
26.90
23.85
21.92
21.07
20.98
21.32
21.88
22.57
23.34
24.02
24.15
23.03
19.89
14.25
6.20
-3.47
-13.32
-21.70
-27.28
-29.40
-28.08
-23.58
-15.97
-4.89
10.01
28.45
48.88
68.65
84.78
95.06
98.69
96.22
88.82
77.55
62.98
45.35
24.83
1.94
-22.42
-47.06
-70.46
-90.89
-106.67
-116.53
-120.06
-117.75
-110.70
-100.20
-87.40
-73.43
-59.64
-47.61
-38.60
-32.97
-29.61
-26.32
-20.94
-12.60
-2.28
7.60
14.39
16.56
14.26
9.13
3.38
-1.21
-3.89
-4.89
-5.09
-5.44
-6.40
-7.80
-8.84
-8.55
-6.20
-1.69
4.47
11.41
18.25
24.49
29.92
34.49
38.01
40.15
40.61
39.34
36.72
33.48
30.44
28.15
26.78
26.03
25.41
24.48
22.98
20.92
18.55
16.23
14.29
12.86
11.85
10.96
9.85
8.26
6.13
3.57
0.74
-2.25
-5.39
-8.70
-12.18
-15.68
-18.90
-21.46
-23.04
-23.48
-22.82
-21.26
-19.05
-16.38
-13.35
-9.98
-6.28
-2.41
1.32
4.49
6.65
7.55
7.28
6.34
5.57
5.93
8.18
12.63
19.06
26.69
34.46
41.31
46.43
49.43
50.29
49.39
47.23
44.27
40.76
36.60
31.21
23.71
13.10
-1.23
-19.01
-38.75
-57.87
-73.48
-83.33
-86.65
-84.23
-77.82
-69.17
-59.26
-48.20
-35.71
-21.92
-7.61
5.90
17.48
26.72
34.03
40.23
45.85
50.74
54.09
54.95
52.94
48.51
42.78
37.04
32.18
28.37
25.38
22.93
21.22
21.04
23.49
29.41
38.87
50.90
63.61
74.68
81.79
83.18
77.97
66.35
49.52
29.31
7.56
-14.32
-35.44
-55.08
-72.31
-85.82
-94.24
-96.79
-93.94
-87.57
-80.56
-76.05
-76.59
-83.49
-96.49
-113.74
-132.19
-148.01
-157.52
-158.16
-149.17
-131.75
-108.58
-82.86
-57.22
-32.74
-8.65
16.99
45.88
77.99
110.52
138.31
155.46
157.67
144.21
118.51
86.94
56.51
32.60
17.57
10.94
10.60
14.09
19.39
25.03
29.79
32.49
32.27
28.75
22.50
15.08
8.47
4.34
3.35
4.85
7.22
8.55
7.42
3.53
-2.20
-8.02
-12.00
-12.85
-10.36
-5.46
0.18
4.90
7.58
7.95
6.44
3.88
1.11
-1.25
-2.88
-3.72
-3.84
-3.41
-2.65
-1.78
-0.98
-0.39
-0.02
0.13
0.16
0.12
0.10
0.13
0.21
0.29
0.27
0.11
-0.20
-0.57
-0.87
-1.08
-1.27
-1.63
-2.40
-3.67
-5.25
-6.76
-7.69
-7.74
-6.93
-5.63
-4.32
-3.39
-2.86
-2.51
-2.03
-1.24
-0.29
0.49
0.74
0.34
-0.55
-1.56
-2.30
-2.57
-2.47
-2.26
-2.25
-2.45
-2.62
-2.30
-1.03
1.32
4.43
7.59
10.01
11.12
10.88
9.79
8.64
8.21
8.88
10.46
12.31
13.61
13.72
12.50
10.34
7.95
6.05
4.99
4.50
3.77
1.70
-2.74
-10.12
-20.34
-32.64
-45.48
-56.60
-63.45
-63.90
-57.19
-44.66
-29.78
-17.25
-11.56
-15.41
-28.79
-49.02
-71.70
-92.09
-106.37
-112.37
-109.76
-99.54
-83.39
-63.15
-40.71
-18.13
2.07
17.38
26.25
29.08
28.63
29.21
34.86
47.50
66.06
87.02
106.13
120.40
129.05
133.05
133.98
133.08
130.78
127.21
122.41
116.71
110.66
104.75
99.27
94.32
90.09
86.96
85.37
85.01
85.25
85.58
85.95
86.59
87.74
89.36
91.07
92.26
91.28
86.86
78.90
68.55
57.29
45.94
34.38
21.88
7.95
-8.82
-28.70
-50.26
-70.91
-88.51
-102.63
-114.31
-124.99
-135.46
-147.88
-163.75
-183.32
-205.49
-228.76
-252.05
-274.63
-295.82
-301.16
-280.89
-235.48
-176.65
-118.85
-70.89
-34.78
-8.52
11.03
26.67
38.06
44.36
45.69
43.88
41.46
40.31
41.19
44.13
48.77
52.89
54.56
53.15
49.70
46.02
43.45
42.55
43.31
45.40
47.35
47.90
46.61
44.13
41.59
39.84
39.13
39.50
40.70
41.97
42.71
42.70
42.24
41.84
41.83
42.10
42.54
42.70
41.93
39.68
35.58
29.62
22.03
13.20
3.12
-7.29
-17.35
-26.40
-33.89
-39.40
-42.71
-43.82
-42.09
-38.70
-34.18
-29.12
-24.05
-19.37
-15.32
-12.02
-9.40
-7.46
-6.15
-5.17
-4.35
-3.60
-2.88
-2.15
-1.41
-0.66
0.07
0.66
0.97
1.25
1.50
1.73
1.95
2.16
2.35
2.52
2.59
2.64
2.70
2.75
2.78
2.80
2.79
2.77
2.71
2.60
2.46
2.31
2.15
1.96
1.76
1.56
1.34
1.13
0.89
0.66
0.43
0.20
-0.04
-0.29
-0.55
-0.83
-1.13
-1.45
-1.79
-2.15
-2.56
-3.01
-3.52
-4.11
-4.77
-5.51
-6.32
-7.23
-8.23
-9.35
-10.60
-11.97
-13.48
-15.15
-16.96
-18.89
-20.96
-23.18
-25.57
-28.15
-30.89
-33.81
-36.91
-40.19
-43.59
-47.12
-50.83
-54.73
-58.91
-63.37
-68.09
-73.03
-78.09
-82.97
-87.38
-90.89
-92.94
-92.89
-90.09
-84.00
-74.25
-61.17
-44.59
-25.02
-3.35
19.26
41.56
62.35
80.59
95.48
106.46
113.61
117.26
117.99
116.53
113.58
109.84
105.94
102.09
98.39
94.77
90.91
86.52
81.33
75.23
68.22
60.48
52.21
43.73
35.37
27.39
20.06
13.58
8.20
4.16
1.55
0.25
-0.15
-0.19
-0.52
-1.73
-4.01
-7.13
-10.60
-13.73
-15.99
-17.32
-18.06
-19.02
-21.00
-24.48
-29.37
-35.12
-41.15
-47.11
-53.32
-60.67
-70.24
-82.72
-97.90
-114.40
-130.12
-143.00
-151.46
-155.25
-155.19
-152.82
-149.87
-148.01
-148.57
-152.11
-157.89
-163.07
-163.13
-153.16
-130.30
-95.81
-55.24
-16.38
13.34
29.58
32.39
25.05
11.90
-3.84
-20.90
-39.18
-58.13
-76.58
-92.72
-104.87
-112.22
-115.10
-114.47
-110.99
-107.84
-105.36
-102.57
-97.96
-90.25
-78.83
-64.27
-47.98
-31.79
-17.36
-5.17
4.93
13.64
21.78
30.21
39.08
47.76
54.94
59.23
60.21
58.32
54.93
52.06
52.64
58.73
70.76
87.58
107.04
127.36
147.42
167.24
188.05
213.80
248.39
294.40
351.98
418.34
487.69
551.65
601.13
629.10
635.51
624.39
602.08
574.48
545.47
516.41
486.45
453.49
415.11
372.73
327.41
279.67
230.17
181.08
136.44
100.41
74.50
36.53
-25.28
-109.86
-203.83
-290.94
-360.48
-409.33
-439.78
-457.12
-466.57
-468.25
-461.50
-446.57
-425.74
-402.47
-380.03
-360.51
-345.12
-333.87
-323.00
-309.00
-289.66
-264.61
-234.67
-201.57
-165.81
-128.80
-92.23
-55.71
-18.87
18.43
55.83
92.64
124.99
152.55
175.73
195.13
211.33
222.86
226.03
216.42
191.63
153.52
108.91
66.35
33.10
12.63
3.70
1.97
2.95
4.03
4.85
6.28
7.95
7.81
3.08
-7.89
-24.73
-44.57
-63.58
-78.42
-87.41
-91.59
-93.46
-95.58
-99.25
-103.89
-107.66
-108.44
-104.60
-95.24
-80.15
-59.77
-35.33
-9.17
15.11
33.69
43.76
45.35
41.92
38.70
40.32
48.51
61.14
73.45
80.64
79.98
72.34
61.33
51.11
44.41
41.34
39.68
36.21
30.02
20.16
6.56
-10.49
-31.07
-56.09
-86.47
-121.54
-158.27
-190.89
-212.89
-218.62
-205.16
-173.71
-129.28
-79.02
-30.48
10.18
39.01
53.80
53.82
39.49
12.50
-23.20
-60.86
-91.30
-104.79
-94.14
-58.21
-3.75
55.93
105.31
132.14
132.25
110.17
76.57
43.35
18.81
5.57
1.49
2.12
4.02
6.30
9.98
16.68
26.65
37.52
45.15
44.98
34.07
12.30
-17.19
-48.91
-76.79
-96.29
-105.56
-105.14
-96.65
-81.54
-60.98
-36.61
-12.12
6.65
13.31
3.52
-21.76
-55.51
-86.26
-102.13
-95.82
-68.01
-27.14
13.59
42.16
52.54
46.56
32.57
20.78
18.15
25.32
37.26
47.12
50.64
48.67
46.08
48.06
55.84
65.08
67.64
56.65
31.12
-2.06
-30.46
-41.79
-29.67
3.39
47.11
88.86
119.42
136.66
145.24
152.33
162.33
174.06
181.18
177.03
159.13
131.34
102.29
80.30
68.94
65.10
61.45
51.00
31.05
3.96
-25.40
-52.88
-76.99
-97.76
-114.64
-124.72
-123.97
-110.03
-84.95
-55.71
-31.51
-19.53
-21.71
-34.13
-49.57
-61.48
-66.82
-67.16
-67.39
-72.88
-87.37
-110.59
-137.92
-161.31
-171.69
-162.22
-131.35
-84.02
-30.49
17.07
48.57
59.13
50.20
28.09
1.35
-21.89
-35.99
-38.22
-28.86
-10.65
11.97
33.26
47.29
49.48
37.92
14.69
-14.37
-41.19
-57.87
-59.40
-45.27
-18.98
13.44
45.91
73.77
94.19
105.71
107.45
99.07
81.36
56.89
30.23
7.02
-7.53
-10.49
-2.80
10.70
23.04
27.80
22.46
9.66
-4.11
-11.94
-11.14
-5.14
-1.80
-8.92
-28.95
-57.14
-83.84
-99.92
-102.20
-94.87
-86.27
-83.67
-88.73
-97.26
-102.34
-98.66
-85.66
-67.08
-48.11
-32.57
-21.26
-12.94
-5.65
1.83
9.57
17.14
24.53
32.20
40.95
50.99
61.66
71.39
77.92
78.93
73.10
60.99
45.60
31.87
25.31
29.69
44.74
65.69
84.84
94.97
93.13
82.15
69.74
64.56
71.50
88.76
108.64
121.07
119.08
101.99
75.76
49.73
31.54
23.50
21.90
19.42
9.47
-10.50
-37.41
-64.31
-83.71
-90.86
-85.59
-71.54
-53.72
-36.10
-20.29
-5.99
6.89
16.74
20.25
14.12
-2.10
-24.67
-46.19
-58.77
-58.11
-45.91
-28.82
-15.07
-9.92
-13.02
-18.87
-20.41
-13.68
-0.74
11.24
14.02
3.61
-16.85
-37.70
-48.00
-41.79
-21.69
2.21
17.65
17.16
1.99
-18.91
-34.05
-36.31
-26.64
-12.94
-4.97
-8.28
-21.45
-37.33
-47.76
-48.51
-41.52
-33.22
-30.28
-35.38
-45.80
-54.87
-55.94
-46.42
-29.25
-11.39
-0.25
0.25
-8.98
-22.70
-34.42
-39.95
-39.27
-35.76
-33.82
-35.92
-41.22
-46.43
-48.13
-45.47
-40.90
-38.75
-42.42
-51.69
-62.45
-68.42
-64.72
-50.82
-31.31
-13.88
-5.61
-9.26
-22.13
-37.23
-46.87
-47.06
-39.62
-31.55
-31.33
-44.09
-68.65
-97.42
-119.98
-128.20
-120.14
-100.46
-77.72
-59.48
-48.90
-43.87
-39.20
-30.60
-17.08
-1.48
11.84
19.89
22.71
23.48
26.53
34.93
48.55
64.11
76.50
81.32
76.84
65.23
51.77
42.29
40.70
46.93
57.37
67.09
72.77
74.57
75.95
80.84
90.82
104.07
116.23
123.54
124.88
122.01
117.81
113.29
106.63
94.23
73.97
47.85
22.57
7.27
9.78
32.73
72.22
119.23
163.17
195.95
214.09
219.38
216.81
211.40
205.86
199.38
188.81
171.38
147.05
119.66
95.78
81.40
78.76
84.96
93.26
96.67
91.23
77.64
60.07
42.84
27.67
12.80
-4.77
-26.32
-49.42
-68.38
-77.29
-73.74
-60.49
-44.63
-34.38
-35.40
-48.77
-70.84
-95.37
-116.81
-132.30
-141.88
-146.81
-147.55
-142.87
-130.25
-107.79
-76.66
-42.14
-12.32
5.49
8.64
0.51
-11.63
-20.40
-22.26
-18.79
-15.21
-16.46
-23.69
-33.31
-39.25
-38.18
-32.11
-27.77
-32.81
-51.50
-82.03
-116.53
-143.81
-154.09
-145.04
-122.59
-98.42
-84.47
-88.17
-109.96
-143.70
-179.77
-200.71
-195.06
-163.40
-119.09
-78.56
-50.93
-35.28
-25.32
-15.42
-3.99
5.49
8.16
1.57
-12.29
-28.29
-41.15
-47.99
-49.04
-46.81
-45.38
-48.22
-56.40
-67.76
-78.23
-83.96
-82.82
-74.71
-61.00
-44.38
-26.53
-8.23
11.02
32.39
56.55
83.09
110.61
135.07
154.31
167.18
173.51
174.18
170.67
164.49
156.71
148.00
138.70
129.22
119.75
110.33
101.17
92.40
84.26
76.74
69.76
63.18
57.20
51.85
47.08
42.78
38.81
35.14
31.76
28.65
25.80
23.32
21.27
19.56
18.13
16.71
15.28
13.73
11.92
9.71
7.11
4.07
0.55
-2.67
-6.27
-10.30
-14.66
-19.26
-23.96
-28.61
-33.04
-37.10
-40.69
-43.86
-46.49
-48.49
-49.90
-50.71
-50.97
-50.72
-50.07
-49.11
-48.00
-46.87
-45.75
-44.76
-44.04
-43.72
-43.75
-44.12
-44.80
-45.82
-47.10
-48.59
-50.28
-52.19
-54.39
-56.70
-59.02
-61.35
-63.73
-66.24
-69.01
-72.21
-76.03
-80.76
-86.12
-91.96
-98.21
-104.88
-111.94
-119.39
-127.26
-135.57
-144.40
-153.14
-161.36
-168.68
-174.74
-179.14
-181.35
-180.54
-175.24
-168.10
-159.71
-150.37
-140.28
-129.69
-118.92
-108.39
-98.53
-89.67
-82.05
-75.07
-68.26
-61.25
-53.93
-46.45
-39.09
-32.14
-25.63
-19.34
-12.28
-3.55
7.36
20.40
34.88
49.75
63.95
76.93
88.75
100.47
113.25
127.99
144.87
163.30
182.30
200.86
218.51
235.44
252.63
271.44
293.47
320.29
352.99
391.19
432.01
469.84
497.23
507.26
496.12
464.70
418.33
364.50
310.00
258.84
212.07
169.13
129.50
93.60
62.41
36.61
15.88
-0.73
-13.99
-23.77
-29.12
-29.16
-23.89
-14.83
-4.56
4.18
9.39
10.35
7.43
1.62
-5.99
-14.67
-24.11
-34.24
-45.05
-56.27
-67.27
-77.09
-84.71
-89.37
-90.92
-89.87
-87.28
-84.37
-82.16
-81.31
-82.07
-84.27
-87.37
-90.50
-92.57
-92.59
-90.10
-85.48
-79.96
-75.12
-72.18
-71.26
-71.31
-70.62
-67.75
-62.31
-55.08
-47.56
-41.04
-35.93
-31.70
-27.25
-21.65
-14.63
-6.76
0.71
6.34
9.02
8.34
4.88
0.07
-4.29
-6.67
-6.33
-3.57
0.56
4.90
8.69
11.83
14.43
16.35
16.99
15.64
12.04
6.76
1.23
-2.82
-3.92
-1.58
3.63
10.38
17.15
22.67
26.19
27.67
27.67
27.53
28.41
30.92
35.01
40.31
46.64
54.32
64.44
78.69
99.38
127.53
161.82
198.54
232.64
259.28
275.30
280.49
277.44
271.02
264.49
257.57
246.73
227.78
198.69
161.02
119.99
82.42
55.14
40.44
35.15
32.46
25.38
9.43
-16.71
-51.14
-96.05
-145.54
-189.19
-218.00
-231.05
-235.14
-237.27
-243.36
-255.31
-274.27
-298.67
-325.67
-350.79
-368.57
-373.96
-364.94
-345.24
-323.98
-312.69
-319.48
-346.62
-388.92
-435.44
-473.26
-491.99
-487.16
-460.61
-417.90
-364.86
-306.40
-245.28
-183.16
-121.64
-63.21
-11.67
28.44
54.46
66.72
68.40
66.78
69.84
83.01
107.10
138.39
170.01
197.54
219.91
239.47
262.77
295.20
336.80
381.23
418.53
437.52
432.85
404.16
355.74
299.29
248.79
215.32
203.92
213.70
237.80
270.86
308.11
324.28
302.31
240.94
154.71
62.35
-10.03
-65.29
-106.84
-134.64
-146.38
-141.62
-119.47
-83.62
-42.85
-7.78
10.86
9.83
-9.03
-40.28
-74.23
-101.68
-118.93
-128.89
-138.35
-154.87
-179.13
-206.41
-229.21
-239.25
-231.94
-209.17
-177.75
-145.10
-116.34
-90.60
-64.17
-33.80
1.86
41.57
81.89
118.86
149.73
173.05
189.51
200.29
205.89
205.77
198.05
179.99
149.58
107.56
58.24
9.16
-31.73
-59.09
-71.95
-73.37
-68.25
-60.70
-52.70
-44.23
-34.74
-24.52
-15.11
-8.57
-6.28
-8.14
-12.56
-17.26
-20.37
-21.22
-20.51
-19.95
-21.37
-25.74
-32.57
-39.99
-45.43
-46.75
-43.19
-35.70
-26.39
-17.51
-10.46
-5.39
-1.42
2.58
7.35
12.77
18.08
22.31
24.79
25.44
24.69
23.20
21.47
19.65
17.56
14.86
11.26
6.67
1.22
-4.78
-10.86
-16.43
-20.89
-23.75
-24.88
-24.61
-23.71
-22.99
-23.02
-23.79
-24.77
-25.33
-25.14
-24.44
-23.84
-23.92
-24.76
-25.88
-26.38
-25.48
-22.89
-18.90
-14.22
-9.57
-5.37
-1.67
1.71
4.89
7.74
9.85
10.70
9.94
7.60
4.13
0.30
-3.12
-5.65
-7.19
-8.02
-8.44
-8.59
-8.34
-7.40
-5.64
-3.27
-0.84
1.07
2.25
3.08
4.42
7.12
11.58
17.42
23.61
28.94
32.52
34.07
33.88
32.47
30.25
27.32
23.53
18.69
12.91
6.65
0.72
-4.00
-6.88
-7.76
-7.06
-5.63
-4.44
-4.14
-4.83
-6.01
-6.79
-6.38
-4.45
-1.21
2.65
6.37
9.43
11.69
13.35
14.67
15.77
16.51
16.71
16.44
16.28
17.25
20.32
25.82
33.05
40.48
46.53
50.48
52.92
55.52
60.13
67.67
77.67
88.56
98.49
106.25
111.64
115.25
117.93
120.15
121.89
122.75
122.16
119.58
114.45
106.15
93.94
77.07
54.78
26.47
-8.04
-48.24
-92.70
-139.28
-185.94
-231.75
-277.30
-323.95
-371.92
-418.28
-456.21
-476.62
-471.70
-438.85
-382.59
-313.28
-243.15
-181.79
-133.48
-97.35
-69.80
-47.23
-27.51
-9.78
6.60
22.68
39.64
57.70
75.44
90.02
98.50
99.44
93.75
84.32
74.68
67.55
64.00
63.43
64.39
65.43
65.77
65.40
64.57
63.42
61.67
58.88
54.86
50.03
45.27
41.39
38.61
36.30
33.32
28.78
22.63
15.83
9.87
6.02
4.67
5.43
7.59
10.68
14.61
19.43
24.91
30.34
34.81
37.71
39.05
39.39
39.38
39.31
39.07
38.37
37.16
35.80
34.83
34.55
34.82
35.14
35.10
34.65
34.29
34.72
36.38
39.05
41.75
43.04
41.58
36.69
28.55
18.19
7.02
-3.59
-12.63
-19.50
-23.85
-25.51
-24.50
-21.09
-16.03
-10.40
-5.38
-1.85
-0.02
0.57
0.66
0.83
1.14
1.07
-0.13
-2.89
-6.88
-11.03
-13.94
-14.59
-12.91
-9.80
-6.61
-4.36
-3.25
-2.67
-1.81
-0.35
1.37
2.61
2.88
2.43
2.15
3.08
5.60
9.17
12.56
14.51
14.39
12.57
10.10
8.21
7.59
8.23
9.42
10.19
9.75
7.78
4.52
0.48
-3.63
-7.01
-8.72
-7.88
-3.97
2.72
10.81
18.12
22.39
22.16
17.45
9.66
0.95
-6.70
-12.10
-15.02
-15.84
-15.04
-12.94
-9.73
-5.68
-1.16
3.39
7.60
11.23
14.07
15.81
16.10
14.68
11.66
7.74
3.96
1.32
0.32
0.71
1.69
2.35
2.07
0.83
-1.04
-3.14
-5.34
-7.72
-10.37
-13.09
-15.32
-16.28
-15.39
-12.67
-8.85
-5.04
-2.25
-0.94
-0.83
-1.10
-0.88
0.49
3.31
7.47
12.45
17.24
20.16
19.28
13.04
1.03
-15.47
-33.94
-51.54
-66.23
-77.09
-83.94
-86.59
-84.53
-77.37
-65.82
-52.14
-39.56
-30.76
-26.19
-23.68
-19.68
-11.51
0.75
14.01
23.80
26.94
23.44
16.44
10.40
8.51
11.00
15.36
18.33
18.23
16.31
16.16
21.57
34.22
52.43
71.84
87.29
95.18
94.74
87.79
77.39
66.21
55.53
45.33
35.02
24.46
14.35
6.03
0.73
-1.10
-0.09
2.43
5.01
6.74
7.37
7.22
6.64
5.70
4.17
1.73
-1.62
-5.39
-8.61
-10.28
-9.84
-7.37
-3.65
0.26
3.43
5.30
5.77
5.03
3.34
0.93
-2.01
-5.23
-8.38
-11.09
-13.05
-14.11
-14.32
-13.81
-12.72
-11.22
-9.53
-7.91
-6.56
-5.41
-3.95
-1.28
3.57
11.12
21.00
31.78
41.35
47.53
48.80
44.81
36.43
25.41
13.80
3.34
-4.84
-10.36
-13.43
-14.57
-14.36
-13.33
-11.93
-10.58
-9.71
-9.60
-10.36
-11.70
-13.03
-13.65
-13.02
-11.15
-8.60
-6.30
-5.20
-5.85
-8.20
-11.64
-15.34
-18.60
-21.09
-22.83
-24.03
-24.92
-25.59
-26.17
-26.83
-27.85
-29.38
-31.23
-32.77
-33.09
-31.48
-27.74
-22.36
-16.23
-10.19
-4.67
0.35
5.06
9.35
12.69
14.29
13.50
10.38
5.78
1.10
-2.33
-3.77
-3.31
-1.67
0.27
1.91
3.13
4.15
5.15
5.93
5.86
4.29
1.02
-3.30
-7.38
-9.83
-9.92
-7.88
-4.77
-1.78
0.34
1.67
2.81
4.44
6.75
9.38
11.66
13.03
13.35
12.96
12.48
12.52
13.36
14.78
16.08
16.28
14.62
10.98
6.00
0.91
-3.04
-5.10
-5.31
-4.28
-2.81
-1.44
-0.40
0.24
0.37
-0.17
-1.44
-3.27
-5.22
-6.80
-7.75
-8.19
-8.49
-9.13
-10.54
-13.00
-16.59
-21.15
-26.23
-31.00
-34.41
-35.42
-33.41
-28.43
-21.25
-13.10
-5.34
0.99
5.42
8.10
9.60
10.70
12.04
14.04
16.75
19.90
22.96
25.26
26.11
24.96
21.55
16.06
9.18
2.04
-4.06
-7.97
-9.13
-7.74
-4.71
-1.35
1.11
1.99
1.36
-0.07
-1.37
-1.89
-1.57
-0.86
-0.38
-0.60
-1.59
-3.08
-4.72
-6.26
-7.51
-8.33
-8.52
-7.85
-6.28
-4.01
-1.53
0.51
1.53
1.27
-0.10
-2.04
-3.80
-4.65
-4.10
-2.20
0.55
3.35
5.40
6.27
6.09
5.40
4.80
4.73
5.22
6.04
6.94
7.75
8.38
8.68
8.31
6.84
4.06
0.22
-3.85
-7.03
-8.38
-7.69
-5.68
-3.81
-3.56
-5.75
-10.03
-14.99
-18.68
-19.40
-16.32
-9.77
-1.01
8.24
16.31
22.03
24.94
25.33
23.88
21.44
18.68
15.97
13.44
11.04
8.68
6.35
4.07
1.85
-0.28
-2.15
-3.44
-3.72
-2.68
-0.34
2.78
5.78
7.68
7.92
6.57
4.20
1.66
-0.41
-1.84
-2.97
-4.41
-6.66
-9.72
-13.09
-15.90
-17.37
-17.10
-15.20
-12.20
-8.77
-5.54
-2.91
-1.18
-0.59
-1.35
-3.52
-6.81
-10.43
-13.23
-14.12
-12.53
-8.75
-3.84
0.90
4.43
6.48
7.48
8.25
9.43
11.16
13.09
14.66
15.44
15.35
14.60
13.39
11.80
9.68
6.83
3.16
-1.15
-5.61
-9.56
-12.35
-13.60
-13.30
-11.93
-10.31
-9.38
-9.80
-11.77
-14.83
-18.10
-20.58
-21.46
-20.38
-17.50
-13.33
-8.66
-4.35
-1.03
0.99
1.94
2.60
4.10
7.60
13.79
22.47
32.33
41.22
46.76
47.25
42.35
33.33
22.62
12.83
5.79
1.90
0.31
-0.40
-1.46
-3.29
-5.64
-7.96
-9.98
-11.83
-13.99
-16.86
-20.46
-24.30
-27.55
-29.47
-29.70
-28.48
-26.63
-25.16
-24.80
-25.48
-26.28
-25.73
-22.53
-16.13
-7.10
3.13
12.97
21.36
28.12
33.75
38.84
43.54
47.38
49.57
49.58
47.64
44.73
42.08
40.58
40.29
40.51
40.22
38.62
35.62
31.90
28.57
26.68
26.75
28.45
30.68
31.94
30.96
27.11
20.65
12.67
4.50
-2.84
-9.19
-15.17
-21.98
-31.08
-43.95
-61.66
-84.40
-110.90
-138.03
-161.29
-175.86
-178.33
-168.06
-147.64
-121.95
-96.35
-74.57
-57.58
-43.73
-30.04
-14.09
4.69
24.85
43.76
58.93
69.06
74.55
76.92
77.77
78.03
77.66
76.09
72.85
68.04
62.30
56.44
51.01
46.06
41.15
35.61
28.96
21.13
12.68
4.73
-1.34
-4.46
-4.39
-1.88
1.49
4.04
4.67
3.35
0.99
-1.04
-1.69
-0.69
1.43
3.70
5.37
6.17
6.35
6.37
6.48
6.58
6.28
5.24
3.44
1.23
-0.81
-2.21
-2.83
-3.00
-3.39
-4.68
-7.32
-11.28
-16.02
-20.65
-24.22
-26.02
-25.88
-24.18
-21.65
-19.02
-16.76
-14.88
-13.11
-11.17
-9.00
-6.87
-5.14
-3.95
-3.11
-2.11
-0.42
2.19
5.62
9.49
13.46
17.33
20.96
24.11
26.27
26.68
24.60
19.67
12.23
3.29
-5.78
-13.65
-19.46
-22.95
-24.38
-24.30
-23.29
-21.80
-20.14
-18.52
-17.03
-15.58
-13.80
-11.02
-6.64
-0.52
6.68
13.64
18.82
21.21
20.67
17.94
14.12
10.19
6.69
3.81
1.63
0.39
0.44
1.99
4.87
8.46
11.89
14.31
15.15
14.22
11.73
8.21
4.33
0.82
-1.74
-3.05
-3.06
-2.03
-0.37
1.40
2.90
3.92
4.52
4.95
5.53
6.51
8.03
9.99
12.11
13.96
15.03
14.86
13.22
10.21
6.40
2.62
-0.23
-1.58
-1.45
-0.39
0.79
1.34
0.86
-0.62
-2.80
-5.32
-7.88
-10.35
-12.66
-14.78
-16.63
-18.10
-19.09
-19.56
-19.47
-18.87
-17.89
-16.77
-15.95
-15.91
-16.97
-19.05
-21.59
-23.60
-24.03
-22.17
-17.91
-11.86
-4.99
1.63
7.19
11.21
13.54
14.14
13.10
10.61
7.15
3.51
0.81
0.25
2.70
8.28
16.11
24.43
31.15
34.51
33.69
29.12
22.15
14.50
7.60
2.11
-2.01
-5.15
-7.67
-9.47
-10.12
-9.05
-6.00
-1.32
4.02
8.76
11.88
12.94
12.33
10.89
9.54
8.80
8.65
8.67
8.33
7.35
5.80
4.05
2.53
1.60
1.43
2.01
3.11
4.40
5.45
5.89
5.45
4.11
2.08
-0.28
-2.56
-4.45
-5.81
-6.79
-7.66
-8.83
-10.62
-13.14
-16.21
-19.40
-22.19
-24.17
-25.21
-25.39
-24.94
-24.07
-23.00
-21.82
-20.61
-19.40
-18.14
-16.63
-14.54
-11.55
-7.47
-2.44
3.03
8.19
12.23
14.61
15.21
14.37
12.78
11.24
10.46
10.81
12.27
14.53
17.12
19.51
21.21
21.75
20.75
18.09
14.03
9.25
4.69
1.24
-0.77
-1.62
-2.08
-2.98
-4.73
-7.13
-9.51
-11.16
-11.71
-11.28
-10.27
-9.05
-7.79
-6.39
-4.81
-3.23
-2.06
-1.76
-2.45
-3.83
-5.25
-6.07
-5.98
-5.13
-3.99
-3.05
-2.59
-2.63
-3.02
-3.62
-4.37
-5.19
-6.00
-6.65
-6.99
-6.99
-6.76
-6.42
-5.94
-5.09
-3.50
-0.86
2.86
7.30
11.80
15.59
17.99
18.66
17.66
15.40
12.53
9.72
7.52
6.17
5.70
5.96
6.71
7.72
8.82
9.78
10.42
10.54
10.12
9.27
8.22
7.24
6.49
6.01
5.76
5.75
6.12
7.06
8.72
11.04
13.63
15.82
16.86
16.21
13.79
10.12
6.16
2.97
1.27
1.11
1.83
2.36
1.66
-0.77
-4.74
-9.51
-14.15
-17.98
-20.78
-22.66
-23.86
-24.42
-24.18
-22.94
-20.69
-17.81
-14.97
-12.86
-11.73
-11.28
-10.71
-9.16
-6.24
-2.26
1.85
5.07
6.80
7.18
6.95
6.99
7.81
9.18
10.39
10.70
9.90
8.42
7.07
6.73
7.87
10.35
13.53
16.55
18.68
19.58
19.15
17.44
14.81
11.76
8.89
6.71
5.46
5.17
5.69
6.51
6.95
6.55
5.32
3.80
2.90
3.42
5.84
9.85
13.98
15.83
13.12
4.75
-8.57
-24.31
-39.12
-49.77
-53.06
-47.95
-37.17
-26.55
-22.32
-28.14
-43.59
-65.00
-86.22
-100.38
-102.08
-89.30
-63.56
-29.86
4.06
33.24
54.45
66.98
72.47
73.37
71.29
67.40
62.18
55.57
47.80
39.49
31.94
26.91
25.55
29.24
40.64
61.51
90.49
121.11
143.64
149.94
137.43
113.19
81.86
47.71
13.83
-18.59
-49.98
-79.63
-105.91
-126.30
-138.09
-140.09
-132.44
-117.82
-100.90
-86.46
-77.28
-73.23
-71.89
-70.42
-67.61
-63.20
-57.91
-52.45
-46.95
-40.72
-33.24
-24.85
-17.00
-11.60
-8.97
-7.95
-6.40
-2.65
3.92
12.53
21.48
28.78
32.86
33.64
31.82
28.21
22.61
13.91
0.23
-19.50
-45.06
-76.47
-110.62
-141.80
-160.83
-160.48
-137.73
-95.12
-40.11
17.15
66.91
102.69
122.29
127.71
123.58
115.71
109.12
106.40
107.01
107.96
105.93
99.11
88.25
76.02
65.62
59.11
56.40
55.86
55.84
56.23
58.20
62.80
68.92
72.71
68.50
51.44
20.38
-20.46
-62.15
-94.16
-108.52
-103.02
-81.76
-52.95
-25.25
-4.37
8.16
14.17
16.70
18.05
19.21
20.44
22.17
25.36
30.83
38.31
45.91
50.89
51.07
46.09
37.75
29.02
22.48
18.93
17.17
14.77
9.49
0.40
-11.82
-25.39
-38.45
-49.75
-58.69
-64.83
-67.46
-65.62
-58.87
-48.13
-36.08
-26.55
-22.97
-26.66
-36.05
-47.34
-56.45
-61.07
-61.69
-60.92
-61.52
-64.32
-67.42
-67.20
-60.51
-46.75
-28.45
-10.19
3.60
10.71
11.73
9.24
6.14
4.29
4.12
5.09
6.65
8.57
10.99
14.02
17.45
20.94
24.28
27.57
31.01
34.49
37.38
38.67
37.41
33.25
26.67
18.72
10.56
3.07
-3.28
-8.35
-12.07
-14.35
-15.05
-13.98
-10.96
-5.93
0.94
9.08
17.45
24.78
29.95
32.24
31.54
28.14
22.55
15.35
7.15
-1.38
-9.44
-16.29
-21.26
-23.77
-23.25
-19.14
-11.12
0.44
14.17
27.78
38.70
44.97
45.99
42.64
36.72
30.07
23.86
18.34
13.18
7.94
2.50
-2.77
-7.30
-10.67
-12.75
-13.72
-13.80
-13.06
-11.38
-8.71
-5.48
-2.79
-2.20
-5.11
-11.96
-21.69
-31.92
-39.68
-42.57
-39.70
-31.98
-21.77
-11.89
-4.57
-0.80
-0.25
-1.94
-4.81
-8.45
-13.08
-19.27
-27.36
-36.92
-46.71
-54.99
-60.11
-60.96
-57.33
-49.72
-39.16
-26.85
-14.00
-1.67
9.26
18.16
24.70
28.91
31.16
32.01
32.02
31.60
30.97
30.21
29.35
28.46
27.63
26.91
26.21
25.26
23.72
21.29
17.94
14.01
10.17
7.33
6.36
7.74
11.55
17.45
24.92
33.62
43.37
54.00
64.92
74.89
81.98
84.09
79.61
68.05
50.44
29.22
7.59
-11.25
-25.00
-32.82
-35.64
-35.65
-35.47
-37.03
-40.80
-45.80
-50.23
-52.44
-51.63
-48.04
-42.43
-35.63
-28.03
-19.83
-11.29
-3.02
4.01
8.87
11.08
10.91
9.14
6.79
4.67
3.17
2.29
1.72
1.05
-0.13
-2.12
-5.09
-8.97
-13.38
-17.73
-21.25
-23.31
-23.55
-22.02
-19.13
-15.45
-11.56
-7.98
-5.15
-3.48
-3.25
-4.39
-6.41
-8.37
-9.30
-8.53
-6.08
-2.57
1.18
4.59
7.51
10.16
12.67
14.78
15.94
15.59
13.64
10.67
7.71
5.76
5.39
6.50
8.58
11.00
13.22
14.75
14.98
13.20
8.87
1.81
-7.68
-19.01
-31.57
-44.79
-57.77
-69.00
-76.39
-77.97
-73.11
-63.40
-52.64
-45.54
-45.84
-54.52
-69.35
-85.68
-98.10
-102.28
-96.06
-79.86
-56.33
-29.46
-3.63
17.54
32.04
39.78
42.40
42.26
41.52
41.26
41.44
41.29
40.02
37.40
33.88
30.30
27.42
25.56
24.39
23.04
20.56
16.33
10.55
4.30
-0.85
-3.55
-3.56
-2.20
-2.08
-6.12
-15.99
-30.96
-47.46
-59.75
-61.52
-47.95
-17.71
25.89
75.27
120.64
153.35
168.99
168.86
158.80
146.18
136.29
130.15
124.53
113.92
93.38
61.00
19.13
-26.12
-66.50
-94.58
-106.50
-103.88
-93.77
-86.55
-92.34
-117.18
-160.77
-216.26
-272.63
-317.97
-342.73
-341.84
-315.24
-266.80
-202.51
-128.68
-51.25
24.18
91.73
145.45
180.57
195.21
191.46
174.71
151.62
127.72
106.13
87.90
73.41
63.28
58.65
60.34
67.91
79.51
92.42
103.98
112.09
115.39
112.99
104.78
91.69
75.88
60.49
48.66
42.45
42.13
46.14
51.89
56.63
58.44
56.54
51.16
43.18
33.56
23.17
12.78
3.14
-4.94
-10.66
-13.51
-13.59
-11.70
-9.25
-7.65
-7.88
-10.11
-13.62
-17.24
-19.95
-21.25
-21.28
-20.58
-19.65
-18.77
-17.95
-17.10
-16.23
-15.56
-15.38
-15.83
-16.75
-17.76
-18.39
-18.46
-18.09
-17.70
-17.67
-18.11
-18.72
-18.91
-18.01
-15.64
-11.91
-7.41
-2.97
0.75
3.62
6.02
8.68
12.19
16.54
21.08
24.88
27.39
28.97
30.97
35.24
43.18
54.98
69.39
83.98
95.98
103.17
104.51
100.45
92.73
83.91
76.78
73.65
75.81
83.02
93.13
102.18
105.15
97.21
75.60
41.39
0.14
-39.57
-69.29
-84.61
-87.67
-86.66
-92.60
-114.80
-157.26
-217.66
-288.62
-360.19
-422.33
-466.39
-486.02
-477.92
-442.60
-384.42
-310.86
-230.45
-150.33
-74.76
-5.22
58.05
114.09
160.45
193.71
211.23
212.83
201.42
182.17
160.73
141.42
126.06
114.47
105.59
98.88
94.72
93.99
96.86
102.09
107.13
109.17
106.48
99.04
88.49
77.29
67.49
59.98
54.26
48.88
42.35
33.92
24.02
14.23
6.50
2.37
2.22
5.00
8.80
11.56
11.61
7.90
0.05
-11.39
-24.63
-36.60
-43.79
-43.69
-36.39
-24.90
-14.07
-8.06
-8.33
-13.16
-18.89
-22.33
-22.49
-20.72
-19.34
-19.69
-21.18
-21.82
-19.79
-14.61
-7.54
-0.48
4.95
8.27
10.18
11.85
14.11
17.01
19.86
21.72
22.09
21.05
19.03
16.67
14.68
13.66
13.77
14.72
15.68
16.25
16.39
16.45
17.20
19.89
25.53
34.11
44.51
54.45
62.67
68.64
72.27
73.85
74.66
76.14
79.00
82.62
83.88
79.52
65.64
38.55
-2.57
-52.79
-101.84
-136.99
-147.47
-129.38
-84.29
-19.33
52.64
114.34
151.39
159.15
142.97
119.59
92.25
60.79
25.88
-9.85
-44.19
-72.82
-92.82
-103.70
-106.83
-105.35
-100.29
-92.16
-82.09
-72.12
-63.89
-58.12
-53.46
-47.20
-36.51
-18.83
4.27
29.76
54.81
78.46
100.07
119.67
137.17
151.13
159.94
161.92
156.32
144.06
128.04
111.99
99.19
90.83
85.29
79.72
71.71
61.06
50.17
43.06
43.30
52.00
66.87
82.99
95.35
101.11
100.64
96.30
90.19
82.17
69.53
48.55
16.71
-25.37
-73.78
-123.01
-168.60
-209.12
-246.16
-282.18
-317.75
-349.97
-373.04
-380.95
-370.48
-342.69
-301.97
-253.25
-199.61
-141.86
-80.43
-18.05
39.11
82.97
107.40
111.43
100.35
83.26
68.77
61.34
60.70
64.37
71.10
82.94
103.55
134.67
172.72
208.20
229.37
227.88
203.52
164.95
125.47
96.00
80.70
76.73
78.01
80.03
82.34
87.41
96.64
107.44
112.23
103.17
77.16
37.77
-7.13
-50.22
-88.22
-121.73
-152.05
-180.44
-204.55
-220.12
-224.53
-220.18
-214.28
-214.96
-226.78
-249.12
-281.82
-323.93
-374.14
-429.13
-482.87
-526.78
-551.02
-547.26
-512.04
-453.44
-384.59
-318.50
-264.43
-228.06
-212.84
-220.34
-249.35
-264.24
-238.94
-167.28
-66.81
36.85
125.60
192.24
237.44
265.99
284.14
292.75
291.21
280.22
262.95
243.59
225.29
209.73
197.10
185.76
171.78
151.96
127.02
102.49
86.04
83.50
96.33
121.28
151.84
179.43
197.61
204.80
204.07
200.11
196.13
192.94
190.35
183.81
171.88
155.74
138.49
123.08
110.05
97.06
80.18
56.69
27.05
-4.28
-31.07
-47.41
-49.88
-38.42
-15.76
14.17
47.67
81.74
114.17
141.75
160.04
164.08
149.75
115.31
62.46
-3.46
-74.13
-139.08
-188.04
-212.90
-209.89
-181.41
-136.09
-86.71
-46.07
-22.36
-16.43
-22.18
-29.81
-30.27
-18.12
7.98
47.01
97.37
157.01
221.99
285.06
335.81
363.39
360.63
327.21
269.99
200.24
129.68
67.27
17.96
-16.72
-37.73
-47.89
-51.78
-55.32
-64.42
-83.09
-112.29
-149.90
-192.28
-235.84
-277.76
-315.95
-347.97
-370.46
-379.48
-371.68
-345.94
-304.41
-252.61
-198.15
-148.62
-108.75
-78.82
-55.06
-32.56
-8.64
14.95
32.97
39.82
33.20
15.60
-7.28
-30.01
-50.17
-68.75
-88.12
-109.06
-129.17
-143.56
-147.14
-137.24
-114.61
-82.65
-45.84
-7.78
29.86
67.67
107.52
150.76
196.09
238.42
269.29
279.32
261.88
216.80
151.70
80.55
19.51
-18.29
-26.41
-5.96
36.66
93.07
155.56
217.54
272.51
313.11
331.57
322.36
284.85
224.80
152.91
80.88
16.91
-36.79
-83.32
-127.80
-173.62
-220.05
-262.41
-294.41
-311.22
-311.40
-297.09
-272.48
-241.78
-207.42
-170.02
-129.21
-84.97
-38.21
9.81
58.47
108.11
159.07
210.08
256.84
292.34
309.14
302.27
271.56
221.81
160.97
97.44
38.08
-12.57
-51.60
-76.80
-86.27
-78.60
-53.50
-12.12
43.11
108.74
180.08
251.07
314.36
362.34
388.97
391.69
372.22
335.81
289.32
239.17
190.23
145.71
107.51
76.49
52.96
36.36
24.91
15.60
4.96
-10.00
-31.12
-59.00
-93.43
-132.40
-171.15
-202.44
-218.07
-211.54
-180.72
-128.96
-64.31
2.12
60.61
105.75
136.63
154.77
162.07
159.16
145.85
122.33
87.61
44.06
-1.92
-42.84
-74.12
-95.51
-111.44
-127.79
-149.49
-184.83
-235.98
-295.74
-350.81
-388.30
-399.50
-383.99
-347.19
-298.58
-258.48
-241.37
-248.66
-271.82
-301.22
-330.43
-360.27
-392.81
-428.62
-478.56
-546.77
-624.68
-696.56
-749.05
-774.53
-775.19
-755.36
-647.37
-436.09
-173.08
66.62
243.73
351.73
425.92
486.68
533.02
561.23
558.05
517.38
448.53
366.50
291.79
241.81
218.93
216.26
219.35
210.45
180.67
134.61
84.41
41.46
15.90
7.57
14.43
35.20
63.02
91.66
121.81
149.52
169.23
184.65
198.71
213.96
229.68
244.70
258.93
274.00
291.07
308.04
321.91
327.87
322.87
306.12
276.86
235.63
185.03
129.20
70.26
12.28
-40.62
-84.86
-119.27
-146.50
-169.99
-192.47
-215.59
-244.75
-282.13
-325.63
-369.41
-406.03
-429.55
-434.28
-416.72
-353.35
-247.05
-126.67
-26.10
36.24
74.51
103.22
133.04
165.18
202.45
234.77
252.67
251.25
230.66
194.68
147.34
94.46
41.36
-8.15
-56.34
-103.31
-144.39
-172.66
-183.71
-180.05
-168.43
-155.98
-145.82
-138.61
-129.56
-111.60
-80.44
-37.77
9.85
55.79
97.56
137.48
177.37
216.41
250.19
271.38
272.63
250.55
206.21
145.79
78.90
15.18
-36.84
-69.80
-78.97
-63.29
-23.03
30.73
79.11
107.18
112.35
101.73
85.50
74.50
71.20
77.28
91.58
111.52
132.27
149.26
155.75
147.85
124.20
84.09
37.61
-2.13
-26.33
-36.72
-39.48
-41.88
-44.12
-45.61
-45.44
-43.88
-45.71
-52.85
-69.72
-97.10
-130.17
-162.66
-190.86
-211.76
-224.95
-234.28
-227.79
-200.95
-181.77
-180.46
-187.50
-197.98
-206.80
-209.98
-205.45
-190.51
-165.46
-116.78
-45.12
31.99
94.83
138.86
174.00
205.87
235.22
253.90
254.73
234.11
193.68
135.30
73.28
25.54
1.62
-1.32
5.15
10.84
11.03
7.25
3.62
5.01
12.05
19.94
24.16
21.73
15.07
6.50
-0.32
-2.83
0.61
7.78
17.20
25.37
29.52
28.28
21.01
8.94
-6.63
-22.42
-33.46
-28.06
-3.98
34.63
79.73
122.83
158.39
182.77
193.10
188.52
171.68
143.54
106.65
64.74
22.14
-9.29
-22.05
-15.89
-6.51
2.20
6.78
8.99
7.13
-0.12
-13.39
-37.62
-73.85
-116.59
-156.05
-187.63
-211.22
-230.03
-247.21
-265.85
-294.47
-337.28
-390.57
-444.44
-490.47
-521.52
-532.54
-520.14
-448.52
-318.96
-171.52
-50.44
27.96
70.06
89.86
97.91
101.59
101.77
94.88
81.73
68.94
65.05
74.49
97.74
128.21
160.73
190.44
214.11
232.74
250.90
273.72
302.91
336.61
370.20
399.65
394.47
339.43
245.54
140.18
47.20
-22.41
-61.43
-76.95
-75.32
-64.91
-52.39
-43.33
-46.04
-63.93
-94.02
-126.54
-146.75
-142.56
-112.49
-62.18
-2.15
56.51
106.67
146.35
178.01
208.35
242.07
277.98
313.58
346.05
371.95
387.23
387.64
342.94
245.95
120.71
3.37
-83.27
-135.84
-161.75
-170.22
-169.46
-163.51
-153.07
-141.91
-137.49
-146.65
-171.14
-207.65
-245.56
-272.55
-270.44
-229.21
-157.75
-79.49
-17.34
18.08
28.98
24.91
20.57
24.26
38.74
60.19
81.36
94.85
96.96
87.44
60.87
21.99
-17.80
-46.94
-60.98
-62.49
-60.62
-59.59
-61.28
-68.91
-82.84
-103.06
-126.36
-149.47
-167.09
-172.66
-160.02
-119.31
-57.99
6.03
54.99
80.94
86.48
82.83
78.48
76.24
80.71
87.39
92.17
90.80
79.51
53.10
11.21
-41.08
-95.88
-144.96
-183.03
-202.59
-198.69
-171.33
-124.92
-68.00
-8.65
46.42
93.88
133.18
170.45
210.60
242.97
275.11
299.43
310.52
305.10
283.13
232.67
160.47
87.07
35.18
-1.65
-36.65
-74.86
-114.03
-147.25
-165.50
-158.15
-122.79
-66.14
-1.79
55.17
93.99
108.79
98.64
67.97
26.82
-17.48
-52.22
-68.17
-66.51
-54.38
-37.64
-19.45
-2.65
15.68
31.13
37.59
30.81
11.58
-16.30
-44.36
-68.49
-86.43
-97.32
-106.93
-121.20
-143.97
-175.70
-215.23
-258.89
-302.43
-337.81
-331.96
-270.14
-166.73
-53.69
43.53
110.22
153.46
177.51
185.21
178.07
151.41
105.37
47.16
-5.68
-36.81
-39.83
-22.41
3.52
23.42
32.06
29.32
19.17
7.39
-2.93
-4.97
5.13
33.68
75.96
118.34
151.46
178.14
204.24
227.41
245.06
253.18
248.61
228.69
194.14
150.12
104.40
63.14
24.91
-11.95
-47.98
-81.59
-112.00
-138.54
-160.69
-179.00
-196.19
-221.15
-258.48
-305.92
-355.97
-400.15
-429.85
-437.78
-420.42
-350.46
-233.56
-106.52
-6.97
52.82
81.18
92.56
98.27
103.56
108.66
107.35
97.89
84.96
75.35
72.58
75.52
80.81
84.95
85.78
79.30
66.51
51.65
40.15
35.14
36.16
41.02
47.73
55.05
60.22
62.77
65.10
70.90
83.16
101.41
122.04
139.37
146.95
138.72
113.19
74.25
23.23
-33.16
-89.46
-142.76
-191.54
-233.67
-265.32
-280.55
-274.05
-243.75
-193.17
-131.77
-70.44
-16.89
26.03
59.52
86.88
110.94
134.47
159.51
187.28
219.52
258.11
302.72
348.62
387.19
408.11
405.35
377.97
330.23
270.41
207.84
149.43
97.40
50.24
-1.37
-54.39
-98.94
