1587206108.00
64.000000
-0.00
-0.00
-0.00
-0.00
-0.00
-0.00
-0.00
-0.00
-0.00
-0.00
0.00
0.01
0.01
-0.00
-0.03
-0.05
-0.05
0.00
0.13
0.36
0.66
1.01
1.37
1.72
2.06
2.40
2.79
3.24
3.80
4.42
5.06
5.66
6.20
6.68
7.15
7.68
8.31
9.14
10.09
11.04
11.88
12.56
13.14
13.76
14.65
15.96
17.91
20.32
22.90
25.38
27.58
29.57
31.68
34.32
37.81
42.54
48.15
54.10
59.83
64.97
69.58
74.14
79.34
85.71
93.76
103.00
112.62
121.73
129.77
136.75
143.30
150.75
157.77
166.64
177.95
191.79
206.97
220.57
228.25
225.36
208.53
176.87
132.76
80.05
23.07
-34.94
-92.44
-149.16
-205.23
-260.37
-313.74
-363.87
-409.83
-450.91
-486.50
-515.74
-537.23
-549.22
-549.96
-538.37
-514.21
-478.67
-433.88
-382.45
-327.02
-269.84
-212.63
-156.66
-102.95
-52.37
-5.90
35.58
71.43
101.35
125.50
144.38
158.69
169.15
176.37
180.75
182.57
182.07
179.51
175.23
169.65
163.18
156.15
148.81
141.30
133.69
126.02
118.33
110.69
103.16
95.80
88.68
81.83
75.25
68.95
62.95
57.25
51.86
46.78
42.03
37.59
33.45
29.61
26.07
22.81
19.83
17.11
14.67
12.48
10.54
8.83
7.35
6.07
4.97
4.05
3.27
2.62
2.09
1.65
1.30
1.01
0.79
0.61
0.47
0.37
0.29
0.23
0.19
0.16
0.14
0.14
0.15
0.17
0.19
0.22
0.25
0.29
0.33
0.38
0.43
0.48
0.52
0.57
0.62
0.69
0.76
0.84
0.93
0.99
1.02
1.02
0.99
0.97
1.00
1.08
1.23
1.41
1.61
1.78
1.93
2.06
2.23
2.47
2.80
3.23
3.69
4.15
4.52
4.81
5.06
5.36
5.81
6.46
7.31
8.22
9.04
9.62
9.91
10.03
10.19
10.66
11.57
12.89
14.34
15.55
16.17
16.04
15.29
14.23
13.21
12.38
11.58
10.25
7.74
3.53
-2.48
-9.83
-17.63
-24.97
-31.21
-36.20
-40.25
-43.87
-47.57
-51.70
-56.47
-61.92
-67.59
-72.24
-73.86
-70.29
-60.21
-44.01
-24.14
-4.27
12.09
22.89
28.14
29.46
28.87
27.75
26.39
24.28
20.92
16.49
11.87
8.18
6.24
6.03
6.83
7.51
7.12
5.24
2.27
-1.06
-4.15
-6.78
-9.12
-11.58
-14.38
-17.21
-19.29
-19.55
-17.35
-12.82
-6.76
-0.29
5.67
10.71
14.91
18.66
22.44
26.26
29.77
32.48
34.08
34.66
34.68
34.79
34.15
32.65
30.35
27.44
24.21
20.92
17.66
14.37
10.84
6.89
2.76
-1.29
-5.06
-8.48
-11.55
-14.43
-17.20
-19.89
-22.45
-24.67
-26.42
-27.51
-27.74
-26.80
-24.51
-20.93
-16.47
-11.79
-7.56
-4.29
-2.06
-0.46
1.32
4.19
8.80
15.25
23.02
31.13
38.47
44.17
47.88
49.80
50.54
50.85
51.26
51.90
52.46
52.33
50.85
47.68
43.08
37.86
33.16
29.95
28.60
28.68
29.07
28.38
25.50
20.04
12.58
4.43
-2.88
-8.17
-11.11
-12.20
-12.51
-13.10
-14.61
-17.16
-20.43
-24.07
-27.83
-31.70
-35.81
-40.25
-45.00
-49.90
-54.65
-58.79
-61.77
-63.04
-62.20
-59.15
-54.08
-47.46
-39.77
-31.51
-23.05
-14.81
-7.24
-0.90
3.82
6.71
7.95
8.03
7.56
7.18
7.33
8.17
9.63
11.42
13.19
14.69
15.88
16.96
18.24
20.00
22.34
25.03
27.53
29.26
29.74
28.85
26.77
23.90
20.70
17.55
14.68
12.17
9.99
8.04
6.09
3.83
0.95
-2.80
-7.37
-12.27
-16.66
-19.52
-19.96
-17.58
-12.59
-5.82
1.68
8.93
15.38
20.92
25.72
29.90
33.40
35.96
37.32
37.35
36.14
33.96
31.23
28.36
25.72
23.59
22.06
21.07
20.38
19.67
18.67
17.20
15.24
12.86
10.10
6.95
3.44
-0.40
-4.41
-8.31
-11.81
-14.72
-17.06
-19.12
-21.52
-24.88
-29.65
-35.70
-42.26
-48.10
-51.91
-52.79
-50.52
-45.58
-38.86
-31.34
-23.71
-16.38
-9.50
-3.15
2.57
7.49
11.38
14.11
15.70
16.38
16.48
16.33
16.09
15.70
14.92
13.59
11.81
9.91
8.34
7.42
7.09
7.04
6.87
6.34
5.45
4.32
3.01
1.46
-0.46
-2.74
-5.15
-7.39
-9.25
-10.86
-12.69
-15.24
-18.89
-23.58
-28.86
-34.10
-38.61
-41.81
-43.25
-42.50
-39.34
-33.83
-26.52
-18.37
-10.49
-3.75
1.59
5.89
9.90
14.32
19.37
24.63
29.13
31.79
31.93
29.51
25.14
19.85
14.59
10.01
6.35
3.46
1.09
-1.03
-3.07
-5.03
-6.60
-7.24
-6.06
-1.86
6.40
19.20
35.73
53.64
69.47
79.78
82.53
77.80
67.65
54.93
41.78
28.83
15.62
1.80
-11.61
-21.95
-25.76
-20.49
-5.92
15.39
38.89
59.63
73.80
79.66
77.79
70.40
60.16
49.13
38.24
27.36
16.06
4.37
-7.03
-17.06
-24.87
-30.44
-34.45
-37.74
-40.68
-42.82
-43.18
-40.92
-36.03
-29.60
-23.54
-19.83
-19.72
-23.17
-28.85
-34.67
-38.67
-39.79
-38.27
-35.31
-32.33
-30.26
-29.21
-28.66
-28.07
-27.33
-26.86
-27.42
-29.50
-32.96
-36.93
-40.12
-41.20
-39.33
-34.27
-26.48
-16.81
-6.30
4.02
13.29
20.84
26.33
29.89
32.17
34.16
36.73
40.28
44.33
47.78
49.45
48.73
45.93
42.15
38.73
36.60
35.86
35.78
35.26
33.27
29.32
23.56
16.58
9.21
2.16
-4.01
-9.08
-12.97
-15.77
-17.58
-18.66
-19.41
-20.37
-22.14
-25.11
-29.38
-34.68
-40.64
-46.91
-53.28
-59.52
-65.12
-69.07
-69.94
-66.43
-57.86
-44.68
-28.37
-11.02
5.45
19.91
32.33
43.21
53.64
64.77
77.32
91.02
104.48
115.58
122.11
122.46
116.03
103.54
86.93
68.38
49.44
30.77
12.58
-4.68
-19.91
-32.39
-41.55
-47.39
-50.79
-53.39
-56.97
-62.59
-70.36
-79.75
-92.13
-108.12
-126.48
-144.43
-159.40
-170.55
-179.03
-187.08
-196.61
-211.96
-233.67
-257.40
-276.52
-286.69
-288.07
-283.99
-278.17
-272.70
-274.16
-284.76
-300.72
-314.71
-321.16
-319.03
-310.87
-300.65
-292.17
-297.10
-321.99
-364.88
-417.18
-469.90
-517.45
-557.06
-587.06
-551.31
-425.79
-231.36
-21.26
158.94
291.20
378.22
430.85
460.72
477.37
478.87
465.50
444.72
427.96
424.43
436.89
461.91
492.14
519.03
520.44
486.00
420.66
341.16
266.04
207.57
169.80
150.65
145.29
144.61
143.53
140.93
137.95
135.10
131.43
125.88
118.44
110.15
100.22
89.52
79.74
72.80
69.49
68.77
68.16
64.86
56.83
42.77
23.96
3.38
-15.40
-29.46
-37.34
-39.17
-36.21
-30.35
-23.66
-17.47
-12.61
-9.64
-8.89
-10.54
-14.43
-19.78
-25.00
-28.23
-27.85
-23.64
-17.12
-10.94
-7.57
-7.86
-10.56
-12.86
-11.62
-4.74
7.97
24.89
43.25
60.30
74.31
85.00
93.14
99.70
105.09
109.03
111.03
111.14
110.65
111.87
116.97
126.58
138.92
150.06
155.72
153.39
143.86
130.97
119.81
114.23
115.01
119.68
123.78
122.91
114.54
98.66
77.41
53.91
31.21
11.87
-2.14
-9.45
-9.67
-4.12
3.99
10.44
11.85
7.43
-0.56
-8.06
-11.85
-11.56
-9.95
-11.10
-17.66
-29.09
-42.00
-52.29
-57.48
-57.93
-56.09
-54.59
-54.67
-55.67
-55.92
-54.11
-50.21
-45.33
-41.08
-38.70
-38.53
-40.17
-42.79
-45.72
-48.71
-51.94
-55.71
-60.26
-65.62
-71.46
-77.42
-83.04
-87.92
-91.66
-93.84
-94.17
-92.69
-89.86
-86.48
-83.39
-81.13
-79.70
-78.75
-77.83
-76.65
-75.06
-73.03
-70.36
-66.70
-61.62
-54.82
-46.34
-36.58
-26.30
-16.46
-8.10
-2.05
1.16
1.55
-0.35
-3.64
-7.44
-11.22
-14.85
-18.47
-22.31
-26.83
-32.71
-40.99
-52.61
-67.66
-85.08
-102.87
-119.18
-133.44
-146.85
-161.75
-180.24
-203.19
-230.01
-258.99
-288.09
-315.30
-338.81
-357.16
-369.49
-376.17
-378.72
-378.90
-377.42
-372.92
-362.37
-342.61
-312.46
-273.61
-229.89
-185.51
-143.06
-103.07
-64.57
-26.51
11.47
48.80
84.56
117.99
148.68
176.35
200.72
221.36
237.80
249.82
257.35
260.69
260.04
255.65
247.84
237.28
224.87
211.42
197.21
181.65
163.57
142.06
117.20
90.63
65.15
43.65
27.79
17.27
9.97
3.10
-5.40
-16.00
-27.42
-37.18
-42.64
-41.84
-34.28
-21.23
-5.32
10.16
22.42
30.18
34.22
37.05
41.58
49.58
60.59
72.23
81.36
85.73
85.14
81.76
79.09
80.12
85.79
94.78
104.24
111.42
114.63
113.95
111.07
108.56
108.65
112.49
120.29
131.62
145.53
160.29
173.64
183.91
190.75
194.59
195.78
193.83
187.13
173.05
148.62
112.20
65.59
14.01
-36.18
-80.38
-117.19
-147.93
-172.86
-188.71
-194.28
-191.93
-184.36
-172.53
-156.69
-137.07
-114.66
-90.75
-69.39
-56.82
-58.49
-76.10
-106.31
-141.56
-173.37
-191.46
-189.43
-168.19
-135.11
-99.70
-68.93
-44.93
-25.72
-7.63
12.07
33.12
52.44
66.16
71.93
69.83
61.86
50.48
37.76
25.17
13.18
1.82
-8.61
-16.96
-21.40
-20.15
-12.32
1.80
20.92
42.81
64.84
84.72
101.08
113.70
123.18
130.40
135.86
139.45
140.35
137.72
131.41
122.24
111.73
101.48
92.43
84.60
77.14
68.58
57.12
40.71
17.48
-13.79
-53.12
-98.93
-148.22
-197.33
-242.97
-282.95
-316.27
-342.57
-361.34
-371.63
-372.32
-362.80
-343.34
-315.03
-279.25
-237.04
-188.94
-135.41
-77.38
-16.78
43.62
100.84
152.39
196.71
233.12
261.31
280.95
291.83
294.26
289.37
279.18
266.08
252.06
238.26
224.77
211.03
196.40
180.54
163.64
146.15
128.54
111.16
94.23
78.07
63.25
50.59
41.10
35.45
33.61
34.62
36.68
37.53
35.07
28.03
16.15
0.25
-18.19
-37.40
-55.66
-71.36
-83.04
-89.46
-89.79
-83.97
-72.76
-57.64
-40.39
-22.66
-5.62
10.22
24.84
38.51
51.42
63.61
74.83
84.74
93.09
99.73
104.83
108.66
111.47
113.17
113.38
111.38
106.47
98.34
87.24
73.96
59.68
45.51
32.34
20.75
11.12
3.71
-1.25
-3.81
-4.36
-3.59
-2.19
-0.49
1.71
5.21
11.03
20.08
32.80
49.13
68.70
91.16
116.36
144.33
174.69
206.02
235.54
259.38
273.69
276.04
266.40
247.27
222.63
196.35
170.88
146.60
122.35
96.57
68.48
38.56
8.59
-18.93
-41.53
-57.59
-66.63
-69.48
-67.97
-64.32
-60.63
-58.43
-58.75
-62.08
-68.50
-77.56
-88.32
-99.43
-109.55
-117.76
-123.90
-128.46
-132.16
-135.60
-139.00
-142.15
-144.79
-146.74
-148.06
-148.96
-149.80
-150.86
-152.30
-154.04
-155.78
-157.04
-157.30
-156.37
-154.47
-152.09
-149.63
-147.02
-143.56
-138.07
-129.37
-116.69
-100.04
-80.14
-58.26
-36.00
-14.97
3.59
18.90
30.88
40.05
47.21
52.97
57.49
60.45
61.34
59.90
56.48
51.92
47.33
43.50
40.69
38.54
36.29
33.26
29.16
24.17
18.80
13.54
8.66
4.25
0.30
-3.00
-5.30
-6.38
-6.33
-5.75
-5.58
-6.72
-9.79
-14.87
-21.70
-29.79
-38.66
-47.94
-57.25
-66.29
-74.79
-82.67
-90.05
-97.09
-103.69
-109.40
-113.39
-114.59
-112.13
-105.48
-94.60
-79.90
-62.18
-42.44
-21.92
-1.93
16.24
31.48
43.16
51.20
56.00
58.15
57.93
55.23
49.69
41.17
30.18
18.07
6.72
-2.05
-6.91
-7.46
-4.14
1.93
8.94
14.79
17.26
14.73
6.64
-6.10
-21.46
-37.17
-51.53
-63.99
-74.84
-84.44
-92.55
-98.31
-100.60
-98.96
-93.72
-85.57
-74.99
-61.97
-46.81
-31.19
-18.49
-12.82
-17.02
-30.97
-51.26
-72.81
-91.08
-103.92
-111.76
-116.32
-119.05
-120.20
-119.22
-115.67
-110.13
-104.03
-98.84
-95.26
-92.88
-90.57
-86.90
-80.49
-70.17
-55.28
-35.93
-13.32
10.46
32.96
52.19
67.21
78.28
86.44
92.82
98.17
102.71
106.26
108.70
110.11
110.74
110.87
110.46
109.21
106.70
102.66
97.28
91.12
85.04
79.69
75.24
71.23
66.83
61.26
54.18
45.87
37.00
28.26
20.10
12.59
5.56
-1.19
-7.65
-13.58
-18.38
-21.15
-20.92
-16.95
-9.05
2.15
15.36
28.98
41.66
52.67
62.11
70.50
78.58
86.75
94.88
102.22
107.79
110.58
110.18
106.92
101.84
96.28
91.36
87.66
85.21
83.59
82.36
81.01
78.94
75.34
69.36
60.41
48.51
34.56
20.00
6.33
-5.28
-14.20
-20.23
-23.46
-24.31
-23.62
-22.52
-22.30
-23.88
-27.49
-32.64
-38.34
-43.47
-47.34
-49.79
-51.18
-52.15
-53.30
-54.94
-56.96
-58.83
-59.82
-59.34
-57.05
-53.04
-47.56
-40.81
-32.74
-23.17
-12.01
0.51
13.77
27.07
39.70
51.08
60.66
67.81
71.64
71.36
66.69
58.34
48.14
38.64
32.30
30.53
33.10
38.35
44.01
48.27
50.49
51.15
51.17
51.14
50.88
49.65
46.83
42.53
37.63
33.24
30.02
27.73
25.78
23.89
22.60
23.13
26.19
30.79
33.64
30.06
15.79
-11.01
-48.72
-92.95
-138.50
-181.15
-218.56
-249.79
-273.98
-289.52
-294.23
-286.52
-266.57
-236.71
-200.77
-162.57
-125.07
-90.03
-58.66
-31.90
-10.28
6.69
20.98
35.67
53.85
77.08
104.30
131.81
154.33
166.90
166.58
153.36
130.21
102.04
74.14
50.84
34.43
24.94
20.55
18.33
15.34
9.51
0.36
-10.75
-21.28
-28.54
-31.25
-30.30
-28.47
-28.94
-33.55
-41.69
-50.71
-57.42
-59.84
-58.07
-53.82
-49.01
-44.46
-39.67
-33.75
-26.49
-19.11
-13.75
-12.35
-15.32
-21.33
-27.87
-32.63
-34.54
-34.01
-32.45
-31.10
-30.33
-29.53
-27.52
-23.27
-16.49
-7.78
1.60
10.15
16.59
20.38
21.81
21.80
21.60
22.32
24.40
27.74
31.74
35.53
38.42
40.20
41.30
42.52
44.38
46.57
48.33
49.02
48.64
48.22
49.37
53.22
59.52
66.21
70.13
69.14
63.49
55.53
48.17
43.26
40.53
38.00
33.00
23.02
7.95
-10.29
-29.53
-48.90
-68.60
-88.58
-107.39
-122.01
-130.86
-132.33
-126.29
-115.34
-104.18
-97.12
-95.76
-98.82
-103.86
-112.12
-124.06
-139.31
-157.09
-176.71
-196.97
-216.07
-232.49
-245.61
-258.89
-271.86
-279.88
-277.34
-260.83
-229.79
-185.07
-128.02
-40.77
70.22
179.43
261.58
307.60
321.88
313.44
291.67
264.22
240.33
215.12
186.93
157.97
132.10
112.55
99.95
93.12
90.31
87.84
81.65
72.50
64.54
62.17
68.52
82.73
101.01
118.89
133.19
140.85
142.60
141.58
141.27
145.25
153.56
163.06
169.45
169.51
161.27
146.21
128.18
100.41
65.20
30.91
3.29
-19.97
-44.84
-75.72
-111.88
-148.30
-177.60
-191.55
-186.69
-165.71
-135.72
-104.95
-80.24
-65.17
-59.55
-60.00
-60.37
-56.75
-48.09
-36.11
-23.27
-12.52
-6.28
-5.26
-7.72
-8.96
-4.50
7.86
26.87
48.71
67.77
79.17
80.94
74.24
62.90
50.76
40.24
30.95
23.67
18.76
16.93
19.89
30.16
49.69
77.85
110.13
138.91
156.35
156.89
139.63
108.23
68.54
26.06
-15.53
-54.03
-87.78
-114.74
-133.25
-141.72
-138.69
-123.33
-96.05
-59.12
-17.29
22.66
53.69
69.96
70.06
57.52
38.39
17.29
-4.80
-30.51
-63.03
-102.28
-144.01
-179.11
-197.12
-191.59
-163.85
-122.28
-78.80
-43.81
-22.52
-15.78
-20.21
-30.55
-42.52
-54.25
-64.84
-73.59
-79.24
-71.27
-46.47
-12.16
20.47
45.79
64.99
82.73
101.81
122.24
140.80
151.79
151.15
138.73
118.07
90.52
64.33
48.72
48.09
59.21
74.55
88.15
98.30
106.23
113.26
119.81
124.40
125.36
121.44
113.17
102.76
92.37
83.19
74.64
65.52
54.07
39.50
21.20
0.31
-21.23
-41.91
-61.81
-83.31
-110.80
-151.22
-201.35
-259.73
-321.47
-378.24
-419.92
-437.54
-425.99
-385.23
-320.12
-238.09
-148.53
-59.21
23.53
94.10
147.15
177.85
183.12
162.56
119.26
58.19
-13.20
-86.42
-153.11
-206.46
-242.43
-260.45
-263.20
-255.09
-240.94
-223.83
-204.54
-182.10
-155.27
-124.05
-89.72
-54.23
-18.98
16.01
51.67
89.43
130.74
176.10
224.58
273.97
320.98
361.71
393.30
413.47
421.84
420.62
413.65
404.75
396.20
387.72
376.09
357.19
326.04
279.85
220.37
153.95
89.59
36.11
-0.79
-27.42
-46.46
-62.15
-78.79
-96.82
-112.16
-119.74
-116.52
-103.29
-84.88
-67.41
-56.24
-54.57
-62.44
-76.98
-94.13
-109.44
-116.95
-113.10
-98.81
-79.59
-61.24
-46.56
-36.05
-28.94
-26.25
-30.24
-42.85
-62.61
-84.87
-103.03
-111.17
-101.51
-73.78
-33.78
9.97
48.75
76.60
90.17
88.21
71.19
41.19
1.54
-42.12
-81.85
-109.60
-119.22
-109.10
-82.56
-46.43
-8.84
22.33
41.85
48.43
44.04
35.98
32.08
36.52
47.53
60.36
71.20
76.95
78.12
74.66
65.67
48.92
21.25
-16.99
-63.39
-113.83
-163.15
-205.52
-235.41
-248.58
-243.72
-222.57
-188.60
-145.76
-98.50
-51.63
-9.69
23.14
43.17
47.34
34.47
6.97
-25.07
-47.68
-51.20
-37.23
-15.52
3.69
14.75
17.56
15.84
14.69
15.89
17.81
17.75
14.76
10.26
7.38
8.89
17.13
33.86
57.82
85.45
112.18
133.64
146.34
148.82
142.15
124.78
103.93
85.97
72.90
62.79
53.97
44.93
37.47
34.84
38.70
49.63
64.77
79.91
91.81
99.68
104.93
107.59
108.13
102.77
92.21
80.39
71.96
68.99
70.32
73.27
75.99
77.69
76.57
71.45
60.62
42.68
16.54
-18.58
-64.31
-117.51
-166.15
-199.92
-214.03
-211.75
-199.93
-184.35
-168.16
-152.43
-136.99
-121.81
-108.27
-97.40
-89.41
-83.63
-78.92
-74.37
-69.56
-64.23
-58.76
-54.74
-53.62
-55.87
-60.51
-65.22
-67.09
-63.52
-53.20
-37.19
-19.11
-3.38
6.77
10.51
9.26
5.53
1.48
-1.87
-4.88
-8.74
-14.39
-21.96
-30.61
-38.85
-45.02
-47.52
-45.36
-38.58
-28.66
-17.96
-8.98
-3.25
-0.72
-0.06
0.60
2.71
6.84
12.51
19.52
27.76
37.24
47.84
58.85
68.91
76.23
79.24
76.98
69.62
58.13
44.01
28.91
14.12
0.45
-11.70
-22.16
-30.74
-37.02
-40.49
-40.70
-37.43
-30.83
-21.45
-10.18
2.04
14.32
25.99
36.63
45.97
53.96
60.42
65.03
67.28
66.62
62.54
54.78
43.68
29.89
14.91
0.29
-12.58
-22.98
-30.76
-36.30
-40.30
-43.25
-45.71
-46.99
-46.46
-43.91
-39.85
-35.10
-30.31
-28.38
-29.78
-33.53
-35.90
-33.01
-22.19
-2.81
24.13
57.10
94.52
134.97
175.93
215.67
251.24
279.31
297.68
306.69
309.03
308.04
305.75
288.69
248.47
184.99
107.61
29.56
-38.85
-93.17
-134.01
-164.38
-187.66
-204.15
-213.52
-216.02
-213.28
-207.97
-202.92
-200.29
-200.94
-204.62
-208.72
-210.72
-209.17
-204.15
-196.93
-189.08
-181.96
-176.40
-171.96
-167.11
-160.80
-152.97
-144.72
-137.85
-134.11
-134.73
-139.50
-147.41
-156.65
-165.44
-172.47
-177.16
-179.53
-179.87
-178.47
-174.65
-167.61
-156.56
-140.91
-120.42
-95.08
-64.75
-28.56
9.54
47.72
84.92
120.57
154.80
188.32
222.09
256.29
289.58
318.60
339.55
348.82
344.64
328.20
303.26
274.58
246.18
220.50
198.47
181.15
169.43
163.56
162.24
162.28
159.47
150.54
134.88
114.91
94.97
78.72
67.49
60.25
54.95
50.02
45.00
39.94
34.38
27.14
16.65
2.19
-15.24
-33.00
-47.95
-57.74
-61.62
-60.59
-56.58
-51.85
-48.37
-47.54
-50.04
-55.67
-63.27
-70.96
-76.67
-78.73
-76.20
-69.10
-58.19
-44.73
-30.25
-16.29
-4.09
5.87
14.20
22.64
33.23
46.95
62.85
77.87
88.21
91.30
87.29
79.13
71.16
66.99
68.07
73.45
80.55
86.50
89.02
86.81
79.59
68.27
54.97
42.70
34.27
30.99
31.88
34.15
34.52
31.07
24.06
15.67
8.59
4.63
3.93
5.24
6.73
6.92
5.17
1.61
-3.33
-9.14
-15.43
-21.88
-27.84
-32.35
-34.34
-33.07
-28.88
-23.45
-19.51
-19.54
-24.77
-34.27
-45.21
-54.03
-57.98
-56.13
-49.63
-41.04
-33.29
-28.90
-29.70
-36.78
-50.39
-69.50
-91.54
-112.54
-128.30
-135.91
-135.07
-128.21
-119.14
-111.13
-105.36
-100.59
-94.34
-84.70
-71.56
-56.85
-43.43
-33.71
-28.80
-28.26
-30.79
-34.58
-37.74
-38.51
-35.66
-28.92
-19.16
-7.85
3.93
16.25
30.07
45.95
62.69
76.81
83.77
80.34
66.73
46.94
27.11
12.50
5.14
3.35
3.30
1.67
-2.60
-8.11
-12.28
-13.02
-9.96
-4.34
1.83
6.95
10.45
12.85
15.23
18.50
22.96
28.27
33.68
38.45
42.09
44.42
45.57
45.67
44.85
43.17
40.72
37.61
34.04
30.11
25.78
20.86
15.14
8.66
1.75
-4.91
-10.65
-15.05
-18.06
-19.80
-20.38
-19.73
-17.72
-14.41
-10.27
-6.25
-3.38
-2.44
-3.51
-5.99
-8.72
-10.37
-9.89
-6.79
-1.28
5.72
12.98
19.25
23.76
26.34
27.25
26.90
25.54
23.25
20.21
16.88
13.95
12.05
11.31
11.14
10.44
8.08
3.61
-2.52
-9.01
-14.27
-17.09
-17.04
-14.57
-10.55
-5.93
-1.37
2.72
6.03
8.17
8.72
7.49
4.69
0.94
-3.05
-6.78
-10.13
-13.22
-16.09
-18.47
-19.81
-19.77
-18.44
-16.51
-14.78
-13.83
-13.64
-13.66
-13.31
-12.33
-10.97
-9.79
-9.21
-9.21
-9.30
-8.83
-7.36
-5.01
-2.40
-0.38
0.43
-0.09
-1.57
-3.36
-4.92
-6.08
-6.95
-7.76
-8.68
-9.75
-10.92
-12.26
-13.98
-16.30
-19.19
-22.26
-24.74
-25.84
-24.98
-22.10
-17.55
-11.99
-6.08
-0.35
4.84
9.30
12.87
15.45
17.03
17.70
17.61
16.95
15.92
14.70
13.46
12.39
11.64
11.24
11.15
11.22
11.28
11.18
10.84
10.23
9.33
8.14
6.63
4.80
2.71
0.49
-1.74
-3.85
-5.89
-8.00
-10.42
-13.31
-16.63
-20.03
-22.92
-24.63
-24.62
-22.73
-19.16
-14.45
-9.27
-4.23
0.29
4.08
7.14
9.55
11.39
12.79
13.85
14.66
15.29
15.81
16.24
16.54
16.62
16.29
15.42
13.95
11.99
9.80
7.64
5.67
3.87
2.13
0.28
-1.71
-3.71
-5.56
-7.17
-8.58
-10.01
-11.72
-13.83
-16.34
-19.02
-21.54
-23.47
-24.35
-23.84
-21.73
-18.07
-13.15
-7.43
-1.45
4.33
9.56
14.08
17.84
20.87
23.17
24.75
25.58
25.63
24.92
23.57
21.83
19.97
18.17
16.49
14.80
12.93
10.77
8.34
5.81
3.38
1.17
-0.79
-2.65
-4.58
-6.68
-8.96
-11.28
-13.48
-15.42
-17.12
-18.67
-20.28
-22.14
-24.35
-26.84
-29.37
-31.56
-33.00
-33.40
-32.59
-30.66
-27.81
-24.32
-20.39
-16.16
-11.68
-7.00
-2.19
2.60
7.13
11.15
14.43
16.80
18.24
18.97
19.36
19.85
20.72
21.96
23.30
24.30
24.61
24.14
23.08
21.81
20.69
19.89
19.33
18.77
17.95
16.75
15.21
13.49
11.78
10.15
8.56
6.88
4.96
2.74
0.19
-2.72
-5.95
-9.46
-12.99
-16.10
-18.17
-18.71
-17.47
-14.65
-10.73
-6.30
-1.86
2.31
6.15
9.59
12.52
14.74
16.14
16.75
16.85
16.81
16.98
17.51
18.32
19.11
19.55
19.39
18.58
17.31
15.86
14.54
13.45
12.54
11.62
10.45
8.92
7.11
5.21
3.47
2.07
1.00
0.12
-0.73
-1.71
-2.88
-4.26
-5.84
-7.55
-9.24
-10.65
-11.41
-11.17
-9.76
-7.24
-3.93
-0.23
3.49
7.01
10.27
13.26
15.95
18.25
20.04
21.21
21.74
21.73
21.36
20.83
20.33
20.01
19.93
20.02
20.17
20.22
20.02
19.53
18.79
17.86
16.81
15.63
14.28
12.72
10.96
9.07
7.17
5.32
3.53
1.68
-0.34
-2.66
-5.30
-8.21
-11.20
-14.07
-16.57
-18.48
-19.62
-19.84
-19.03
-17.12
-14.12
-10.18
-5.59
-0.79
3.78
7.80
11.11
13.72
15.77
17.35
18.47
19.08
19.19
18.83
18.17
17.40
16.65
15.95
15.23
14.38
13.31
12.00
10.52
9.00
7.62
6.52
5.73
5.13
4.52
3.63
2.32
0.63
-1.25
-3.03
-4.49
-5.59
-6.44
-7.27
-8.30
-9.60
-11.17
-12.85
-14.43
-15.70
-16.48
-16.61
-16.00
-14.60
-12.48
-9.79
-6.80
-3.79
-1.01
1.34
3.19
4.51
5.33
5.69
5.65
5.35
4.99
4.75
4.75
4.98
5.30
5.46
5.23
4.52
3.44
2.29
1.44
1.23
1.78
3.05
4.78
6.59
8.06
8.80
8.53
7.12
4.64
1.34
-2.38
-6.16
-9.70
-12.88
-15.68
-18.12
-20.21
-22.00
-23.55
-25.00
-26.37
-27.55
-28.28
-28.15
-26.86
-24.32
-20.79
-16.70
-12.52
-8.60
-5.02
-1.75
1.28
4.03
6.37
8.14
9.28
9.86
10.24
10.81
11.83
13.20
14.46
14.93
13.91
11.09
6.75
2.08
-1.29
-1.83
1.22
7.43
15.26
22.49
27.02
27.77
25.82
23.70
24.65
31.34
44.79
63.78
84.82
102.88
112.58
110.67
96.09
70.40
37.34
2.25
-28.92
-51.02
-60.89
-57.83
-41.80
-13.80
24.70
71.30
122.18
172.27
216.08
249.39
263.13
253.63
222.69
176.75
123.54
69.56
19.95
-20.19
-45.83
-54.47
-46.53
-29.14
-11.51
-1.10
-0.46
-6.76
-14.60
-20.05
-23.06
-25.82
-30.49
-36.78
-41.40
-39.76
-28.94
-10.43
9.63
23.10
24.41
13.33
-4.68
-21.32
-29.71
-27.62
-18.31
-8.54
-5.03
-11.08
-25.98
-46.45
-68.98
-91.46
-112.80
-131.47
-144.64
-148.65
-140.95
-122.31
-97.44
-73.88
-59.40
-59.23
-74.51
-102.24
-136.54
-170.60
-198.34
-215.69
-221.10
-215.43
-201.17
-181.66
-159.85
-137.69
-116.14
-95.39
-75.30
-55.73
-36.48
-17.57
0.47
16.62
29.79
39.43
45.99
50.88
55.57
60.39
63.75
61.77
50.10
26.13
-9.45
-52.16
-94.98
-130.48
-152.86
-159.27
-150.92
-132.05
-108.85
-87.85
-74.29
-71.01
-77.75
-90.99
-104.78
-113.43
-112.81
-102.22
-84.73
-66.10
-52.69
-49.04
-55.87
-63.71
-61.96
-42.43
-3.94
46.85
99.67
145.66
179.59
199.57
205.52
197.88
179.39
156.33
137.87
133.95
151.33
189.26
238.04
281.53
303.07
293.86
257.56
209.04
168.36
151.47
163.52
198.55
241.60
275.43
288.12
276.47
243.70
196.73
142.97
89.01
41.16
5.45
-13.38
-14.06
-0.85
15.27
22.29
11.95
-17.33
-60.71
-109.81
-155.68
-191.28
-212.71
-222.52
-225.58
-227.21
-231.69
-241.37
-256.62
-276.19
-298.74
-323.90
-355.69
-396.50
-444.30
-492.29
-531.78
-556.20
-563.53
-556.46
-518.01
-443.50
-340.25
-224.97
-115.22
-22.47
49.27
101.77
140.14
171.18
198.18
223.29
246.19
265.79
278.52
279.71
266.83
241.79
210.99
180.42
155.38
138.38
128.92
124.61
123.19
123.72
126.69
132.87
140.85
148.06
151.15
147.18
134.38
112.52
83.24
50.15
18.66
-4.62
-13.07
-2.59
26.26
67.60
111.95
150.11
176.35
184.87
174.76
151.17
122.50
95.13
70.70
47.68
25.98
7.76
-4.11
-7.95
-5.37
-1.08
-1.00
-9.90
-30.19
-60.71
-97.29
-133.96
-163.56
-179.92
-180.05
-165.35
-137.17
-104.11
-74.96
-54.67
-42.93
-35.50
-27.67
-17.38
-5.87
3.96
9.76
12.53
15.51
21.92
33.13
47.83
62.77
74.56
82.04
86.56
91.32
98.98
109.50
119.78
124.99
120.71
104.57
74.85
33.56
-15.14
-65.83
-111.93
-146.06
-161.43
-153.86
-124.04
-77.87
-25.13
23.36
58.69
75.78
74.40
58.50
34.59
9.82
-10.23
-23.02
-29.57
-33.26
-37.81
-45.14
-54.71
-64.07
-69.96
-69.93
-63.01
-49.73
-31.35
-9.45
14.21
36.36
51.45
53.83
40.75
14.14
-19.69
-51.90
-74.29
-81.92
-75.66
-61.10
-45.13
-32.78
-25.35
-20.39
-13.36
0.15
22.83
53.40
86.96
116.51
134.83
136.96
122.32
95.44
61.67
30.99
10.64
1.82
0.73
1.53
-0.24
-5.82
-13.91
-22.71
-31.13
-39.66
-49.05
-58.18
-63.70
-61.10
-47.25
-22.41
9.20
41.10
66.44
80.32
81.00
67.99
41.46
2.44
-45.35
-94.06
-132.27
-148.56
-136.40
-94.58
-33.06
30.03
75.16
89.75
73.28
36.57
-3.25
-30.03
-32.67
-9.18
35.16
91.02
148.95
201.48
243.16
271.00
276.76
257.43
216.66
164.60
111.99
65.49
27.82
-6.08
-41.44
-81.21
-123.66
-165.35
-197.58
-211.55
-200.92
-164.80
-109.69
-47.34
7.59
42.04
45.23
12.28
-54.17
-143.65
-240.64
-329.12
-396.24
-435.77
-437.44
-401.57
-340.25
-272.14
-212.06
-165.60
-131.13
-104.51
-83.03
-66.59
-55.51
-49.55
-46.68
-43.33
-36.45
-25.00
-9.46
9.14
28.66
47.37
64.35
79.69
94.07
107.79
120.21
130.14
136.50
139.01
138.02
134.79
131.35
129.93
132.30
139.56
152.65
172.23
197.61
225.25
248.84
261.90
261.65
251.44
240.09
237.70
250.18
276.07
307.21
333.57
348.58
351.37
345.14
333.38
317.13
295.21
266.55
232.41
196.76
164.66
139.64
122.12
109.75
99.36
88.59
76.83
64.35
52.14
41.37
33.03
27.55
24.67
23.46
22.57
20.66
15.05
4.10
-11.70
-29.82
-46.99
-60.86
-70.69
-77.19
-81.98
-90.30
-106.20
-130.14
-158.52
-186.11
-208.78
-224.76
-234.34
-239.17
-246.72
-262.88
-288.27
-317.71
-344.14
-362.80
-372.89
-376.75
-378.38
-389.29
-419.14
-471.47
-542.68
-625.50
-712.50
-796.48
-869.76
-880.50
-796.76
-624.43
-407.46
-197.49
-26.54
97.34
181.17
237.09
275.81
296.99
298.48
282.28
256.88
233.11
218.90
216.99
225.82
241.59
254.35
257.33
250.24
239.30
232.97
236.78
250.76
269.95
286.60
289.83
273.21
238.76
196.75
160.73
141.18
141.47
157.53
180.37
198.73
202.16
187.21
156.90
117.76
76.57
39.01
9.77
-7.25
-10.46
-1.69
13.14
24.63
23.94
7.41
-20.29
-47.50
-61.67
-56.09
-33.92
-5.95
15.34
22.42
15.59
1.18
-13.11
-22.03
-23.87
-18.87
-7.17
11.35
35.78
62.49
84.75
94.43
85.05
54.55
6.92
-48.05
-96.68
-124.66
-120.76
-80.29
-7.33
85.49
180.43
259.89
311.77
332.36
326.03
302.33
271.64
241.76
216.41
195.95
179.29
165.59
155.18
149.07
147.63
149.73
152.64
152.92
147.69
135.57
117.06
94.10
68.98
43.38
17.74
-8.84
-37.98
-71.27
-109.73
-153.83
-203.75
-259.41
-319.80
-382.02
-441.13
-490.41
-523.19
-535.14
-525.87
-499.00
-460.53
-416.52
-371.40
-328.04
-287.97
-252.13
-220.96
-193.99
-169.42
-143.88
-112.85
-71.66
-17.70
49.06
125.19
203.90
276.09
332.81
368.11
381.23
376.56
359.31
334.72
306.47
276.71
246.55
216.94
189.44
166.10
148.25
131.17
108.75
76.78
35.45
-11.19
-57.52
-98.19
-129.40
-149.77
-167.12
-189.95
-222.94
-264.16
-307.33
-345.91
-375.87
-396.26
-409.10
-427.31
-463.03
-522.25
-602.30
-695.82
-796.19
-899.51
-1003.01
-1047.91
-992.05
-827.83
-590.75
-334.18
-100.36
89.26
229.89
327.08
391.04
424.15
428.66
409.25
375.71
340.34
313.18
299.62
300.51
312.88
324.98
328.56
320.86
306.81
295.42
294.73
309.08
338.81
379.74
416.94
436.21
426.59
384.73
316.30
234.40
156.18
99.35
70.49
66.35
77.40
91.26
98.06
93.34
77.63
52.15
21.99
-8.88
-38.96
-67.83
-95.04
-118.82
-136.36
-145.74
-146.90
-141.84
-134.51
-128.40
-125.54
-125.35
-125.92
-125.01
-121.22
-114.17
-104.69
-94.86
-86.44
-80.25
-76.05
-72.93
-69.77
-65.94
-60.83
-54.39
-47.19
-39.60
-31.50
-22.20
-10.63
4.72
21.71
39.60
58.08
77.22
97.58
119.80
144.04
169.27
193.12
212.13
223.18
223.82
213.18
192.43
164.57
133.70
103.85
77.99
57.42
42.18
31.07
22.41
14.90
7.92
1.46
-4.28
-9.43
-14.53
-19.89
-25.45
-30.43
-33.51
-33.53
-30.17
-24.53
-19.00
-16.44
-18.76
-26.14
-36.53
-46.35
-51.82
-50.53
-41.73
-26.16
-4.87
21.44
51.77
83.74
112.82
133.00
139.12
129.39
106.32
75.31
41.42
6.67
-30.14
-70.72
-113.93
-154.11
-182.50
-191.35
-177.97
-146.48
-106.22
-67.65
-37.99
-18.71
-6.12
5.12
18.21
32.34
43.80
48.75
45.98
37.31
26.42
16.80
10.01
5.23
0.32
-6.50
-15.05
-22.76
-25.44
-19.00
-1.81
23.51
49.63
66.80
67.11
49.05
19.09
-10.67
-27.72
-24.08
1.12
42.42
90.82
137.11
174.87
199.83
210.20
207.09
194.59
178.87
165.61
157.30
152.95
150.71
147.81
141.86
131.21
114.70
91.94
63.81
33.58
8.51
-0.06
16.47
59.15
119.63
182.92
233.48
261.22
264.24
234.37
173.26
89.57
-3.45
-91.87
-164.33
-212.68
-230.88
-224.57
-203.32
-175.79
-148.84
-125.33
-103.73
-83.29
-62.60
-42.75
-28.26
-23.87
-31.24
-49.62
-76.01
-106.17
-135.30
-157.83
-168.99
-166.71
-152.17
-129.81
-107.39
-92.86
-90.86
-100.44
-115.35
-127.62
-131.49
-125.26
-111.11
-93.60
-76.70
-61.84
-47.72
-31.81
-12.84
7.43
25.16
36.56
40.04
37.19
31.96
28.43
28.92
32.89
37.66
40.22
38.69
33.12
25.21
17.30
11.50
9.01
9.96
13.54
18.35
22.87
25.82
26.43
24.52
20.37
14.55
8.00
1.54
-4.29
-9.40
-13.94
-18.00
-21.45
-23.83
-24.46
-22.40
-17.22
-9.05
1.61
14.45
29.12
44.78
59.50
70.58
76.09
75.06
67.95
56.23
41.94
26.65
11.34
-2.81
-12.96
-13.87
-1.04
26.06
62.08
97.91
124.35
135.99
132.81
115.93
91.53
67.39
48.55
34.30
21.55
8.63
-3.28
-12.77
-21.02
-31.17
-47.87
-74.89
-113.33
-159.28
-205.36
-240.17
-256.74
-254.14
-236.50
-211.06
-179.16
-144.41
-110.11
-78.35
-49.41
-23.61
-1.50
16.21
28.18
32.60
26.84
10.40
-13.43
-36.70
-50.55
-47.18
-23.17
18.08
66.82
109.67
136.02
139.69
123.79
98.32
74.46
58.94
52.20
50.56
49.73
48.19
47.27
49.50
55.26
62.23
66.57
65.35
58.34
47.81
37.28
29.64
25.73
23.73
20.19
11.83
-2.80
-22.56
-44.35
-64.64
-81.12
-93.32
-102.83
-112.53
-125.41
-143.15
-165.10
-187.56
-204.65
-210.00
-199.02
-171.08
-130.22
-83.87
-40.10
-4.66
20.85
38.54
52.25
65.33
79.18
93.35
106.64
118.52
127.29
132.75
135.22
134.88
131.73
125.56
116.14
103.53
88.04
70.39
52.00
34.64
20.12
10.05
5.30
5.91
11.04
19.16
28.70
38.68
48.54
57.97
66.38
72.48
74.14
69.35
57.24
39.15
18.62
0.01
-13.52
-21.37
-25.65
-29.74
-36.10
-44.84
-53.48
-58.31
-56.75
-49.21
-39.43
-33.12
-35.23
-47.37
-66.60
-86.30
-99.03
-99.58
-87.23
-65.78
-41.45
-19.93
-4.32
5.11
9.37
8.93
2.93
-10.10
-30.56
-56.36
-82.86
-104.13
-115.01
-112.80
-98.05
-74.16
-45.82
-17.52
8.03
30.46
51.51
74.14
101.49
135.87
177.64
224.59
271.45
311.12
336.52
342.84
329.33
299.50
259.79
217.13
176.55
139.47
104.90
70.97
36.13
-0.42
-39.03
-79.96
-123.17
-167.66
-211.88
-252.62
-285.92
-308.60
-319.47
-319.68
-311.82
-298.59
-281.91
-263.80
-245.34
-226.93
-208.60
-190.24
-171.73
-153.03
-134.36
-109.78
-77.96
-41.65
-6.31
23.31
45.54
61.60
74.01
85.13
96.24
106.33
113.75
117.30
116.30
110.60
100.61
87.33
72.12
56.32
40.18
23.91
8.12
-5.23
-14.03
-16.83
-13.32
-4.56
7.19
18.24
24.65
22.96
10.94
-11.64
-42.12
-74.99
-103.06
-119.73
-121.71
-110.05
-89.42
-65.93
-44.65
-27.81
-14.74
-3.35
8.29
20.76
33.31
44.58
53.06
57.45
56.84
50.88
40.28
26.90
13.65
3.70
-0.50
1.99
10.25
21.99
34.16
43.86
48.93
48.44
42.85
33.86
23.92
15.46
10.04
7.98
8.38
9.63
10.05
8.33
3.84
-3.36
-12.43
-21.91
-29.98
-35.04
-36.33
-34.31
-30.50
-26.76
-24.44
-23.69
-23.43
-21.87
-17.34
-8.87
3.59
19.16
36.29
52.93
66.72
75.49
77.98
74.48
67.17
59.45
54.64
54.52
58.67
64.85
70.27
73.01
72.69
70.17
66.55
62.35
57.27
50.81
42.99
34.84
27.99
23.87
22.86
23.97
25.14
24.02
18.80
8.80
-5.27
-21.55
-37.45
-50.41
-58.57
-61.19
-58.71
-52.42
-43.90
-34.52
-25.09
-16.02
-7.41
0.70
8.22
15.12
21.48
27.46
33.11
38.21
42.26
44.58
44.64
42.43
38.58
34.25
30.68
28.78
28.74
29.92
30.98
30.35
26.63
19.22
8.50
-3.97
-15.55
-22.91
-23.14
-14.82
1.19
21.69
42.26
58.31
66.49
65.55
56.58
42.52
27.10
14.15
6.63
6.77
15.14
30.53
50.07
70.06
86.93
98.07
102.71
101.62
97.28
92.18
88.02
85.26
83.47
81.89
79.67
76.36
66.73
47.83
19.30
-16.20
-54.03
-89.16
-116.79
-136.48
-149.11
-156.37
-159.58
-160.24
-158.58
-154.81
-148.79
-139.98
-128.14
-113.48
-97.49
-82.12
-69.68
-61.65
-58.11
-57.25
-55.90
-50.98
-40.67
-25.62
-8.42
6.91
16.37
17.14
8.66
-6.91
-25.36
-41.61
-51.47
-52.75
-45.86
-33.44
-19.10
-7.29
-1.42
-2.55
-9.14
-18.34
-27.15
-33.40
-35.88
-34.44
-29.95
-23.73
-17.50
-13.17
-12.25
-15.05
-20.33
-25.53
-27.69
-24.67
-16.36
-4.77
6.37
13.11
13.01
6.25
-4.59
-15.82
-24.21
-27.90
-26.44
-20.08
-9.01
6.91
27.78
52.92
80.35
106.86
128.97
143.89
150.43
149.14
141.96
131.48
120.13
109.72
100.98
93.49
85.51
74.28
56.66
30.38
-4.66
-45.69
-87.44
-123.67
-149.33
-162.13
-163.05
-155.44
-143.33
-129.84
-116.35
-102.67
-87.69
-70.11
-48.91
-23.66
5.01
35.03
62.79
83.77
94.09
91.98
78.76
58.41
35.90
15.32
-1.39
-14.30
-24.61
-33.32
-40.72
-46.46
-50.08
-51.37
-50.20
-46.14
-38.20
-25.12
-6.17
17.98
44.68
69.54
87.46
94.03
87.05
67.47
39.31
8.56
-18.59
-37.84
-47.88
-50.88
-51.33
-53.95
-61.45
-73.30
-86.03
-94.99
-96.66
-89.78
-76.06
-59.08
-42.38
-27.72
-14.53
-0.41
17.56
41.26
71.49
106.63
142.70
174.07
195.08
201.88
193.96
174.58
149.77
127.54
114.19
112.19
119.56
131.23
141.41
145.93
143.37
129.65
104.81
71.90
35.86
1.72
-27.00
-48.87
-64.45
-74.70
-83.40
-93.48
-106.67
-122.74
-139.38
-153.05
-160.50
-159.91
-152.00
-139.82
-126.05
-112.29
-98.56
-83.87
-67.45
-49.56
-31.52
-15.06
-1.63
8.86
17.05
23.39
27.87
30.34
31.36
32.50
35.80
42.63
53.15
65.68
77.38
85.31
87.42
82.94
72.18
56.26
36.84
16.30
-2.81
-18.49
-30.11
-38.67
-46.22
-54.68
-64.61
-74.70
-82.31
-84.92
-81.53
-73.18
-62.58
-52.85
-46.36
-44.08
-45.72
-50.25
-56.42
-62.90
-68.17
-70.58
-68.70
-62.04
-51.65
-40.16
-30.93
-26.66
-28.01
-33.06
-37.97
-38.57
-32.25
-19.18
-2.19
14.60
27.54
34.97
37.66
38.15
39.48
44.01
52.78
65.46
80.64
96.00
108.58
115.13
113.03
101.31
81.40
56.81
31.95
10.57
-5.40
-15.87
-21.74
-23.80
-22.23
-16.94
-8.39
1.73
10.76
16.10
16.53
12.91
7.74
3.94
3.33
5.78
9.52
12.20
12.29
9.69
5.39
0.40
-4.95
-10.84
-17.04
-22.39
-25.13
-24.21
-20.60
-17.45
-18.77
-27.08
-41.75
-58.90
-73.13
-80.05
-78.09
-68.90
-56.22
-44.10
-35.42
-31.28
-31.06
-33.04
-35.05
-35.16
-32.34
-26.52
-18.32
-8.55
2.16
13.48
25.07
36.17
45.62
52.03
54.41
52.47
46.75
38.30
28.26
17.61
7.10
-2.59
-10.87
-17.30
-21.83
-24.74
-26.48
-27.10
-25.89
-21.39
-11.90
3.23
22.65
42.93
59.75
69.64
71.60
67.36
60.38
54.53
52.18
53.33
55.93
57.10
54.57
47.64
37.29
25.63
15.76
10.50
11.30
17.77
27.96
39.36
50.08
59.41
67.92
77.73
91.41
110.91
137.15
170.15
209.32
253.57
300.86
340.37
360.29
351.02
309.50
241.56
159.40
75.46
-2.42
-72.25
-132.90
-185.19
-226.39
-251.29
-255.74
-239.83
-208.84
-169.59
-131.30
-101.31
-82.33
-72.77
-69.94
-72.49
-80.76
-95.46
-116.02
-140.46
-165.26
-187.14
-201.51
-203.74
-190.35
-160.96
-119.31
-72.76
-30.13
2.01
21.62
31.29
35.33
36.86
36.33
32.02
22.35
8.19
-6.90
-18.32
-22.69
-19.87
-12.45
-4.01
2.93
7.62
10.64
12.98
15.11
16.85
17.48
16.29
13.29
9.53
6.89
7.45
12.53
21.82
33.23
43.52
49.81
50.79
47.40
42.10
37.84
36.47
37.96
40.85
42.49
40.88
35.35
26.67
16.34
6.27
-1.83
-7.04
-9.33
-9.59
-9.09
-8.83
-8.97
-9.00
-7.50
-3.17
4.13
12.80
19.81
22.01
17.42
6.26
-9.67
-27.10
-42.66
-53.97
-60.16
-61.92
-60.93
-59.53
-56.89
-54.37
-53.83
-56.36
-61.29
-66.19
-67.73
-63.17
-51.51
-33.92
-13.58
6.05
22.56
35.35
45.29
53.54
60.10
63.08
59.23
45.60
21.73
-9.15
-40.87
-66.71
-81.96
-85.42
-79.13
-67.88
-54.92
-42.61
-32.92
-27.88
-29.51
-38.49
-52.88
-67.84
-77.25
-76.30
-64.23
-44.70
-23.90
-7.58
1.55
4.52
4.69
5.49
8.93
14.97
22.60
31.12
40.67
51.81
65.04
80.49
97.15
114.90
134.18
155.36
177.87
199.32
215.84
223.32
218.89
201.57
172.34
133.41
87.94
40.24
-4.39
-40.67
-65.03
-77.41
-81.52
-83.23
-86.90
-93.92
-102.12
-107.67
-108.22
-104.51
-99.43
-95.69
-94.02
-94.38
-95.43
-96.64
-98.72
-102.84
-109.41
-117.51
-125.10
-129.93
-129.36
-122.34
-109.50
-92.91
-75.68
-60.98
-51.05
-46.27
-44.93
-43.80
-39.32
-28.65
-10.07
17.25
53.68
99.29
153.09
211.83
269.18
316.39
344.70
348.54
327.90
288.45
239.52
190.63
148.43
115.25
89.67
68.44
48.60
28.54
8.13
-12.05
-31.27
-48.91
-64.22
-76.10
-83.31
-84.93
-81.28
-74.23
-66.74
-61.82
-61.33
-65.16
-71.56
-78.00
-82.37
-83.75
-82.55
-79.99
-77.40
-75.68
-75.01
-74.84
-74.14
-71.75
-66.96
-59.88
-51.64
-44.12
-39.10
-37.49
-38.85
-41.60
-43.72
-43.62
-40.71
-35.32
-28.26
-20.38
-12.34
-4.73
1.75
6.30
8.28
7.65
5.20
2.41
0.94
1.94
5.61
11.11
16.96
21.74
24.58
25.39
24.56
22.61
19.81
16.25
12.19
8.31
5.72
5.37
7.46
11.11
14.51
15.59
12.76
5.35
-6.28
-21.11
-37.76
-54.92
-71.39
-85.97
-97.44
-104.59
-106.59
-103.31
-95.79
-86.22
-77.42
-71.81
-70.05
-70.70
-70.73
-67.09
-58.13
-44.52
-28.85
-14.39
-3.36
4.62
12.15
22.89
39.54
62.99
91.27
119.68
141.94
152.49
149.35
134.79
114.93
96.97
87.48
90.04
104.39
126.46
149.97
169.10
179.38
178.70
166.69
146.05
121.81
100.15
85.91
76.84
68.67
55.23
37.10
13.71
-13.83
-44.63
-74.80
-100.12
-117.59
-125.38
-123.61
-113.83
-99.54
-84.46
-71.95
-63.95
-60.94
-61.63
-63.16
-62.99
-59.91
-54.96
-49.44
-43.71
-36.37
-25.37
-9.46
11.10
34.19
56.90
76.45
91.64
102.59
109.72
112.54
109.70
99.84
82.58
59.12
31.95
4.61
-18.86
-34.82
-41.07
-37.55
-26.55
-12.27
0.18
6.26
3.44
-7.69
-23.81
-40.12
-52.05
-56.87
-54.39
-46.67
-36.86
-27.69
-19.82
-11.89
-1.65
12.44
29.86
48.01
63.28
72.67
72.89
63.42
46.78
27.66
10.69
-1.74
-9.93
-15.62
-20.22
-23.93
-25.62
-24.13
-19.42
-12.91
-6.79
-2.95
-2.09
-3.52
-5.71
-6.72
-5.25
-1.21
4.33
9.65
13.26
14.44
13.47
11.24
9.10
8.11
8.47
9.55
10.21
9.36
6.52
1.77
-4.24
-10.19
-14.87
-17.67
-18.83
-19.16
-19.79
-21.57
-24.81
-29.41
-34.38
-38.34
-40.24
-39.63
-36.72
-32.74
-29.90
-31.15
-39.37
-54.83
-74.43
-91.83
-99.33
-90.87
-65.15
-26.05
20.76
63.66
93.62
106.58
103.11
86.26
59.97
28.37
-2.99
-27.14
-37.93
-31.77
-10.38
19.65
49.25
73.47
90.61
102.27
111.12
118.08
122.37
122.30
117.42
110.09
105.33
108.15
120.89
141.74
165.01
184.45
195.79
198.39
194.82
188.96
183.67
179.43
175.92
171.56
165.21
156.65
146.65
136.20
125.74
114.69
101.84
86.02
66.51
43.58
18.27
-8.19
-35.05
-62.34
-90.76
-120.85
-151.99
-182.00
-207.42
-224.79
-232.19
-230.29
-222.20
-212.23
-204.17
-200.00
-199.68
-201.93
-205.32
-208.86
-211.60
-211.96
-207.85
-197.83
-182.54
-165.36
-151.08
-143.47
-143.22
-146.92
-148.67
-143.56
-130.53
-112.93
-96.42
-85.69
-82.06
-84.39
-89.70
-95.17
-99.66
-104.27
-111.25
-122.69
-139.16
-159.19
-180.98
-201.33
-216.04
-221.09
-214.47
-197.36
-174.38
-152.55
-139.14
-141.17
-160.77
-193.77
-231.11
-262.78
-281.77
-286.36
-279.75
-252.75
-204.11
-139.38
-68.59
-1.91
53.68
95.00
121.93
136.59
140.58
137.42
130.79
123.82
118.56
115.41
113.28
110.50
105.96
99.18
89.38
76.76
62.57
48.41
35.27
23.09
11.25
-0.61
-11.83
-21.37
-27.32
-27.21
-18.81
-0.86
26.75
63.35
107.73
157.86
210.25
260.08
302.21
332.68
349.94
355.18
351.49
342.13
328.91
311.80
290.03
263.96
235.87
209.30
187.26
170.49
157.13
143.88
128.00
108.81
88.01
69.02
55.28
48.73
48.98
53.38
58.00
59.22
55.01
45.46
32.21
17.19
1.63
-14.10
-29.90
-44.85
-56.86
-63.28
-62.33
-54.42
-42.29
-30.08
-21.73
-19.73
-24.69
-35.65
-50.49
-66.50
-80.77
-90.70
-94.67
-92.33
-84.51
-72.61
-58.02
-41.99
-25.65
-10.18
3.09
12.83
17.94
17.92
12.94
3.98
-7.43
-19.44
-30.34
-38.93
-44.98
-49.10
-52.17
-54.69
-56.33
-55.95
-52.25
-44.54
-33.36
-20.54
-8.59
-0.12
2.99
0.12
-7.72
-18.16
-28.06
-34.47
-35.46
-30.69
-21.48
-10.30
0.08
7.58
11.41
12.18
11.40
10.68
11.04
12.48
13.95
13.94
11.25
5.77
-1.33
-8.10
-12.60
-13.63
-11.05
-5.56
1.49
8.36
13.14
14.08
10.08
1.31
-10.17
-20.80
-26.77
-25.86
-18.83
-9.29
-1.88
0.27
-2.87
-8.59
-13.34
-14.90
-13.17
-9.46
-4.90
0.56
7.86
17.52
28.46
38.14
44.07
45.31
43.04
39.77
37.53
36.52
35.02
30.82
22.94
12.50
2.13
-5.57
-9.49
-10.52
-10.62
-11.52
-13.55
-15.62
-16.07
-13.70
-8.59
-2.04
4.10
8.28
9.79
8.93
6.65
3.87
1.39
-0.33
-1.13
-1.09
-0.37
0.76
1.98
2.91
3.16
2.46
0.64
-2.28
-6.06
-10.26
-14.33
-17.69
-19.83
-20.50
-19.55
-16.93
-12.61
-6.85
-0.36
5.47
8.80
8.14
3.22
-4.35
-11.38
-14.24
-10.39
0.41
15.97
32.64
46.70
55.59
58.51
56.12
49.88
41.34
31.69
21.84
12.64
5.08
0.28
-0.74
2.40
9.12
17.92
26.82
34.05
38.61
40.47
40.20
38.49
35.77
32.00
26.99
20.66
13.23
5.29
-2.47
-9.46
-15.32
-19.98
-23.55
-26.28
-28.46
-30.42
-32.34
-34.31
-36.21
-37.90
-39.27
-40.38
-41.33
-42.14
-42.59
-42.22
-40.52
-37.06
-31.70
-24.59
-16.18
-6.99
2.50
11.89
20.90
29.29
36.75
42.89
47.29
49.59
49.64
47.65
44.17
40.05
36.22
33.52
32.39
32.83
34.40
36.29
37.56
37.47
35.80
32.98
29.95
27.71
26.74
26.77
26.85
25.86
22.99
18.09
11.41
3.40
-5.62
-15.34
-25.26
-34.43
-41.60
-45.61
-45.76
-42.15
-35.44
-26.59
-16.43
-5.57
5.53
16.25
25.72
33.09
37.88
40.49
41.93
43.44
45.69
48.37
50.38
50.55
48.36
44.26
39.39
34.90
31.38
28.64
25.99
22.75
18.55
13.40
7.66
1.95
-3.04
-6.63
-8.62
-9.68
-11.28
-15.23
-22.69
-33.48
-45.92
-57.66
-66.77
-72.55
-75.57
-76.79
-76.60
-74.40
-68.96
-59.47
-46.51
-32.14
-19.19
-10.01
-5.40
-4.21
-3.85
-1.51
4.63
14.53
26.32
37.08
44.28
46.99
46.37
45.17
46.77
53.71
66.81
85.01
105.91
126.55
143.95
155.08
156.95
147.16
124.52
90.36
49.08
7.34
-27.69
-50.84
-60.49
-58.53
-48.61
-34.72
-19.87
-6.06
5.28
12.86
15.75
13.83
8.23
1.72
-2.91
-3.81
-0.88
4.57
11.00
17.51
24.02
31.01
39.56
49.93
61.55
72.70
81.01
84.92
84.23
80.56
71.72
58.00
41.13
23.78
7.47
-8.82
-27.73
-51.71
-81.05
-112.93
-139.92
-156.41
-158.34
-144.71
-118.47
-85.11
-51.21
-22.67
-2.75
6.29
6.16
1.55
-0.80
0.72
4.78
9.21
11.86
12.11
10.24
6.43
0.30
-8.87
-21.51
-35.80
-47.95
-53.42
-48.53
-32.05
-5.80
25.52
55.17
75.58
81.25
70.18
44.37
9.32
-27.65
-59.30
-80.15
-87.83
-83.99
-73.21
-61.98
-56.97
-62.67
-79.40
-102.81
-125.34
-139.39
-141.64
-134.20
-123.84
-118.84
-125.23
-144.59
-174.15
-208.69
-238.04
-253.15
-248.12
-222.22
-179.70
-127.32
-71.43
-16.97
32.36
73.62
103.93
121.58
126.87
122.40
112.52
102.20
95.17
93.16
95.60
100.21
103.94
104.89
103.03
100.02
98.12
98.64
101.51
105.56
108.99
110.48
109.84
107.76
105.29
103.35
102.31
102.00
101.51
98.83
91.14
76.93
57.16
35.77
18.56
10.57
13.41
23.98
34.88
37.93
27.94
4.94
-25.73
-55.87
-77.83
-87.52
-85.71
-78.08
-71.96
-73.13
-83.46
-100.48
-118.97
-133.84
-142.28
-144.54
-143.71
-143.31
-145.59
-151.27
-160.21
-172.58
-188.86
-209.18
-226.39
-232.11
-218.38
-181.20
-122.69
-50.61
24.36
91.40
142.29
174.33
189.38
191.00
183.15
169.01
150.47
128.63
105.15
83.18
66.56
58.97
62.34
76.00
96.70
119.41
138.76
150.51
152.47
144.19
126.41
100.47
68.28
32.12
-5.89
-43.70
-78.78
-105.15
-116.16
-107.82
-81.36
-43.43
-2.68
33.68
61.91
82.14
97.03
109.59
121.83
134.17
145.10
152.45
154.81
150.78
140.58
126.12
109.91
94.09
79.73
65.70
50.03
30.73
6.26
-23.90
-59.81
-101.67
-149.99
-198.69
-241.06
-268.78
-274.66
-256.62
-219.87
-175.66
-136.48
-109.86
-94.99
-85.02
-71.72
-51.40
-27.62
-8.64
-2.04
-10.11
-29.08
-52.28
-75.34
-97.69
-121.46
-147.99
-174.71
-195.05
-201.47
-189.68
-161.67
-126.13
-94.89
-77.99
-79.72
-96.87
-120.31
-138.69
-142.64
-127.44
-93.85
-46.99
5.14
52.89
86.59
98.61
86.09
53.33
12.06
-21.67
-33.42
-16.39
25.47
79.17
128.77
162.07
174.88
170.75
157.46
142.71
131.47
125.41
123.77
124.06
122.88
116.53
101.83
77.69
45.96
11.56
-19.45
-42.53
-56.70
-64.57
-70.34
-77.00
-84.56
-90.31
-90.70
-83.86
-70.74
-54.55
-39.00
-26.22
-16.02
-6.72
3.09
13.09
21.14
24.53
21.81
13.92
4.04
-3.73
-5.90
-1.27
8.81
21.11
31.75
37.97
38.95
36.05
32.01
29.73
30.94
35.80
42.87
50.05
55.65
59.19
61.53
64.45
69.71
78.15
89.40
101.92
113.29
120.93
122.93
118.38
107.74
92.71
75.90
60.80
50.85
48.18
52.79
62.76
74.57
84.37
89.18
87.44
80.20
70.44
62.07
58.92
64.41
80.18
105.53
136.81
167.28
190.18
199.94
192.97
168.24
127.96
76.83
22.05
-27.91
-65.47
-84.14
-81.52
-61.01
-35.84
-20.09
-24.06
-48.19
-77.03
-99.23
-107.33
-98.32
-75.25
-43.06
-7.57
24.96
49.64
59.10
49.09
23.16
-8.94
-37.32
-57.78
-71.58
-85.17
-101.88
-120.21
-135.72
-142.53
-136.01
-115.76
-85.98
-52.14
-21.16
2.48
19.73
34.24
48.00
57.08
54.72
35.09
-2.81
-54.06
-109.11
-158.54
-196.92
-223.02
-237.78
-241.63
-233.60
-212.85
-181.63
-146.24
-115.76
-98.09
-95.61
-103.99
-114.81
-120.30
-117.02
-105.92
-89.26
-67.68
-39.36
-2.25
41.79
84.79
115.00
123.08
108.00
78.71
50.34
37.48
49.19
85.82
139.63
198.11
248.19
279.73
286.82
268.28
227.87
174.98
122.48
83.06
65.25
70.99
95.52
129.12
159.96
172.00
154.88
109.75
49.82
-8.03
-52.53
-81.32
-98.08
-107.96
-114.50
-117.92
-117.60
-114.06
-109.93
-108.73
-111.91
-117.65
-121.50
-118.91
-107.27
-88.05
-67.58
-54.06
-54.48
-71.02
-99.36
-129.72
-150.05
-149.74
-123.89
-75.71
-16.29
38.99
75.79
85.29
66.65
26.63
-23.07
-70.00
-104.66
-122.49
-123.99
-112.06
-92.28
-71.19
-54.29
-44.31
-40.70
-40.55
-40.44
-38.03
-32.63
-24.62
-14.02
0.34
20.14
46.19
77.01
108.71
136.11
154.51
161.38
157.19
144.94
128.82
112.72
99.26
89.37
82.57
77.57
72.81
67.13
60.35
53.47
48.43
47.43
52.00
62.11
75.88
89.86
100.14
103.76
99.75
89.32
75.30
61.30
50.89
46.97
50.90
62.41
79.31
97.78
113.06
120.72
118.21
105.90
87.15
66.43
48.16
35.45
29.57
29.90
34.57
41.08
46.84
49.55
46.13
33.84
11.32
-20.42
-57.61
-94.45
-124.45
-142.65
-147.59
-143.89
-139.95
-144.19
-161.07
-189.45
-223.84
-257.07
-283.37
-291.00
-272.95
-229.59
-169.05
-102.31
-37.37
21.87
74.14
118.92
155.93
183.63
201.25
209.91
212.60
213.29
214.63
218.24
223.43
228.95
232.61
232.75
229.09
222.97
216.57
211.16
207.28
204.69
202.71
199.81
194.15
184.04
167.80
148.27
126.83
104.70
82.92
62.53
43.94
27.08
11.49
-3.36
-17.77
-32.33
-47.00
-61.25
-74.41
-86.29
-97.39
-109.08
-122.94
-140.27
-162.02
-187.88
-216.29
-244.40
-268.32
-283.47
-285.35
-270.93
-240.06
-196.69
-148.10
-102.96
-68.59
-48.60
-42.04
-44.37
-49.59
-52.45
-49.77
-40.49
-25.31
-5.79
15.78
36.02
50.72
55.64
48.13
28.67
1.45
-26.60
-47.15
-52.46
-37.81
-3.47
44.43
95.09
136.06
157.57
155.22
131.91
95.85
56.67
21.51
-6.59
-27.58
-42.32
-51.32
-56.80
-61.65
-69.65
-84.55
-108.57
-140.87
-176.82
-209.53
-232.76
-247.06
-255.61
-261.96
-268.31
-275.69
-284.36
-293.76
-302.51
-309.00
-318.20
-333.70
-355.59
-380.83
-405.91
-428.90
-449.22
-466.60
-480.49
-497.79
-522.17
-551.42
-578.43
-595.77
-599.69
-590.65
-572.21
-501.06
-362.71
-174.93
21.80
191.65
319.42
406.56
461.67
493.98
511.16
511.29
493.91
462.99
426.00
390.03
358.51
332.06
310.32
293.40
275.99
255.45
233.11
212.22
197.42
190.53
191.34
199.08
213.28
230.20
247.82
266.67
288.69
314.56
341.21
362.43
371.05
361.76
331.51
283.04
224.50
166.49
118.11
83.74
63.08
52.13
46.87
42.98
37.39
28.50
15.73
-0.75
-20.15
-40.69
-59.73
-74.51
-82.97
-84.48
-79.80
-70.69
-59.59
-49.24
-42.39
-41.23
-46.45
-56.64
-68.20
-76.44
-77.72
-71.07
-58.75
-45.09
-34.46
-29.26
-29.29
-32.46
-36.20
-39.02
-40.98
-43.40
-47.92
-55.58
-66.43
-79.56
-93.42
-106.10
-115.62
-120.32
-119.28
-112.49
-100.97
-86.28
-69.89
-52.72
-35.11
-17.33
0.01
15.64
28.09
36.57
41.44
44.17
46.51
49.59
53.15
55.88
56.27
53.66
48.79
43.50
39.94
39.69
43.42
50.72
60.38
70.93
81.20
90.49
98.21
103.44
104.72
100.94
91.53
76.85
58.30
38.19
19.40
4.33
-5.68
-10.54
-10.50
-6.29
0.81
9.12
16.95
23.09
26.83
27.99
27.04
26.17
28.29
35.96
50.32
70.68
94.73
119.04
139.96
148.82
139.99
113.82
76.93
37.69
1.74
-28.96
-54.59
-75.92
-93.41
-106.36
-114.11
-116.92
-116.31
-114.30
-112.55
-111.86
-112.32
-113.57
-114.48
-114.24
-112.69
-110.56
-108.83
-108.19
-108.69
-109.88
-110.96
-110.77
-108.43
-103.56
-97.14
-89.41
-80.66
-71.05
-60.76
-50.00
-39.08
-28.84
-20.09
-13.72
-10.49
-10.39
-12.91
-17.45
-23.41
-30.55
-39.55
-50.50
-63.25
-77.45
-91.56
-103.64
-112.20
-116.35
-116.40
-114.58
-111.79
-108.27
-103.92
-96.38
-82.29
-60.95
-32.18
2.64
39.46
76.38
112.39
146.65
181.00
218.42
261.72
313.23
373.71
440.10
510.63
582.38
634.23
646.84
608.08
518.53
391.99
266.50
156.30
67.94
4.85
-31.72
-44.37
-34.66
-7.27
29.80
60.57
69.09
49.27
4.51
-56.28
-121.27
-179.72
-224.89
-253.76
-266.41
-266.23
-255.64
-236.96
-214.21
-191.78
-173.45
-162.01
-158.04
-159.68
-163.67
-165.21
-160.06
-147.28
-128.72
-106.83
-83.75
-60.40
-36.80
-13.43
8.79
27.91
41.63
49.34
54.17
61.31
75.64
99.16
129.86
162.84
192.37
214.03
220.62
209.57
182.65
144.82
101.68
57.53
14.45
-26.62
-64.78
-98.51
-124.70
-140.41
-144.42
-138.50
-126.47
-113.17
-103.20
-99.69
-103.75
-113.76
-126.62
-139.04
-148.24
-152.34
-150.52
-143.27
-132.13
-120.36
-111.50
-108.03
-109.75
-112.93
-111.44
-99.21
-73.61
-36.95
4.50
43.75
76.20
101.11
121.20
139.51
157.41
173.06
182.94
184.56
178.63
168.99
160.29
156.22
157.55
162.90
169.36
174.36
176.67
176.64
175.52
174.18
173.59
169.04
157.01
135.06
102.31
60.21
13.08
-29.86
-64.13
-88.62
-106.16
-121.61
-139.99
-163.20
-188.21
-208.22
-215.78
-207.09
-182.92
-148.29
-109.20
-70.74
-36.34
-8.80
8.73
13.30
3.69
-16.90
-40.85
-58.22
-60.93
-46.11
-18.72
10.21
29.72
34.90
29.03
19.89
14.58
15.51
20.35
24.69
25.37
22.42
18.33
15.99
16.66
19.54
22.40
23.03
20.53
15.81
11.24
9.20
10.85
15.49
21.11
25.46
27.18
26.26
24.01
22.40
22.96
26.12
30.82
35.38
38.21
38.50
36.40
32.86
29.13
25.69
22.24
17.63
10.89
1.72
-9.20
-20.26
-29.62
-35.89
-39.00
-40.01
-41.08
-43.81
-48.73
-55.02
-60.82
-64.32
-64.42
-61.75
-58.16
-56.41
-58.35
-64.76
-75.47
-89.46
-104.93
-119.40
-130.41
-131.78
-122.15
-102.43
-75.72
-46.07
-16.87
9.40
34.23
58.96
84.11
108.36
129.62
145.38
154.19
156.83
157.19
160.91
172.16
191.34
213.35
229.46
230.77
212.58
174.27
123.23
71.30
29.29
2.92
-9.15
-13.19
-16.72
-24.54
-37.20
-51.46
-63.09
-69.84
-72.39
-73.85
-77.96
-87.99
-105.35
-129.98
-160.43
-194.21
-227.21
-253.35
-265.74
-259.19
-233.15
-192.10
-144.50
-99.87
-65.69
-45.49
-38.96
-43.60
-56.51
-75.11
-95.18
-110.48
-113.91
-100.21
-68.41
-22.90
27.70
76.35
113.17
131.46
131.42
119.24
102.73
87.25
74.90
65.66
58.78
53.33
49.74
48.88
50.92
54.82
58.69
60.58
59.28
54.65
47.18
38.53
30.57
24.46
20.27
17.09
13.79
9.59
4.43
-1.03
-4.84
-4.61
1.07
12.05
25.66
37.45
42.71
38.58
25.48
7.36
-9.96
-21.20
-23.84
-18.64
-8.76
2.08
10.90
16.31
18.50
18.54
17.76
17.36
18.27
21.07
25.66
30.77
34.04
32.79
25.36
12.50
-2.34
-13.92
-17.26
-9.38
8.44
30.49
48.93
57.52
54.53
43.38
30.44
21.37
18.06
18.12
16.87
10.69
-0.59
-13.53
-23.23
-26.17
-22.29
-15.06
-9.77
-10.67
-19.14
-33.18
-48.73
-61.72
-69.62
-72.02
-70.12
-65.70
-60.24
-54.56
-48.80
-42.90
-36.97
-31.49
-27.27
-25.22
-25.99
-29.58
-35.17
-41.34
-46.59
-49.95
-51.37
-51.60
-51.56
-51.64
-51.28
-49.26
-44.48
-36.79
-27.30
-18.01
-11.00
-7.45
-7.02
-7.94
-7.80
-4.72
1.60
9.53
16.28
19.17
17.00
10.54
2.07
-5.65
-10.51
-11.54
-8.85
-3.20
4.33
12.31
18.63
20.75
16.49
5.24
-11.26
-29.27
-44.56
-54.14
-57.36
-55.66
-51.39
-46.28
-40.95
-35.15
-28.88
-23.15
-19.79
-20.46
-25.35
-32.33
-37.67
-37.88
-31.53
-20.01
-6.68
5.13
13.79
19.95
25.50
31.83
38.52
43.47
44.14
39.05
28.87
15.75
2.15
-10.11
-20.13
-27.69
-32.61
-34.61
-33.42
-28.57
-20.60
-11.08
-2.40
3.01
3.50
-1.33
-10.49
-21.60
-29.99
-31.17
-22.20
-3.00
23.10
50.43
73.14
87.70
94.52
99.62
109.60
128.23
154.41
183.43
210.71
235.37
261.14
293.86
339.52
396.91
456.89
505.76
531.70
530.22
505.86
469.21
415.35
343.95
257.37
162.01
66.78
-19.42
-89.64
-140.02
-170.48
-184.65
-186.53
-181.61
-174.95
-169.86
-166.95
-164.49
-159.84
-151.30
-139.54
-125.01
-110.77
-100.50
-97.52
-103.22
-116.22
-132.52
-146.25
-151.42
-142.21
-116.18
-75.54
-27.25
18.88
53.49
70.86
70.90
58.51
41.48
27.02
19.62
19.60
24.17
29.73
33.64
35.30
35.26
33.91
30.00
21.22
5.62
-17.15
-45.33
-76.70
-108.58
-138.97
-166.67
-191.14
-212.20
-229.56
-242.72
-251.16
-255.64
-256.91
-255.52
-251.87
-246.50
-240.26
-234.12
-228.50
-222.95
-217.52
-211.05
-201.82
-188.19
-169.49
-146.41
-120.62
-94.07
-60.06
-17.79
28.76
72.61
107.72
131.49
144.44
148.59
146.45
140.43
131.21
119.77
107.41
95.43
84.72
75.53
67.59
60.65
54.63
48.53
41.91
34.74
27.26
19.68
12.11
4.62
-2.39
-8.25
-12.82
-15.80
-16.92
-16.08
-13.72
-9.77
-4.12
3.43
13.09
24.59
37.72
52.28
67.95
83.83
98.15
108.15
111.00
105.04
90.64
70.62
49.10
29.86
14.89
4.03
-4.43
-12.36
-20.86
-29.92
-38.49
-45.12
-48.42
-47.34
-41.53
-31.53
-18.76
-5.20
6.58
14.64
18.30
17.98
14.97
10.84
7.19
5.52
7.06
12.24
20.44
29.88
38.16
43.25
44.37
42.17
38.06
33.29
28.14
21.96
13.92
3.85
-7.22
-17.28
-24.40
-27.73
-28.03
-27.19
-27.10
-28.65
-31.15
-32.81
-31.69
-27.06
-19.96
-13.01
-9.21
-10.75
-18.26
-30.73
-45.81
-59.88
-68.56
-67.39
-53.26
-26.25
9.24
44.98
71.59
82.36
76.85
60.94
44.08
34.73
36.61
47.70
62.32
74.48
80.76
81.97
81.56
83.32
89.31
99.01
110.14
119.98
126.70
126.20
116.38
97.38
71.71
43.42
16.17
-8.01
-28.48
-45.01
-57.09
-63.63
-63.96
-58.77
-50.30
-41.72
-35.88
-34.41
-37.17
-42.55
-47.85
-50.04
-46.99
-38.25
-25.37
-11.37
0.34
7.19
8.97
6.53
1.95
-2.59
-5.52
-6.05
-3.82
1.39
9.56
19.99
30.24
37.82
40.36
36.60
26.94
13.31
-1.47
-14.76
-24.76
-30.95
-33.63
-33.85
-32.87
-31.80
-31.41
-31.86
-32.87
-33.85
-34.08
-32.66
-29.09
-23.90
-18.97
-17.27
-21.59
-33.12
-49.95
-67.77
-81.29
-86.70
-83.08
-72.45
-58.41
-44.29
-32.00
-21.76
-12.88
-4.47
3.93
12.31
20.25
27.00
31.62
33.12
31.14
26.12
19.29
12.21
6.12
1.50
-1.85
-4.41
-6.54
-8.23
-9.35
-9.77
-9.36
-8.09
-5.92
-2.96
0.43
3.65
6.15
7.63
8.32
8.84
10.02
12.10
15.08
18.51
21.77
24.29
26.00
27.25
28.69
30.92
34.38
39.26
45.45
52.43
59.09
63.77
64.60
60.15
50.26
36.27
20.92
7.14
-3.01
-9.33
-13.69
-19.13
-28.42
-42.73
-60.87
-79.66
-95.14
-104.02
-104.78
-97.91
-85.26
-69.14
-51.56
-33.88
-17.02
-2.03
9.73
16.75
18.11
14.06
6.08
-3.63
-12.76
-19.60
-23.24
-23.54
-20.79
-15.70
-9.40
-3.48
0.45
1.51
-0.03
-2.78
-4.82
-4.64
-1.98
2.23
6.53
9.83
11.94
13.28
14.37
15.39
16.10
16.25
15.89
15.49
15.57
16.17
16.63
15.91
13.32
9.24
5.30
3.70
6.06
12.23
20.01
26.00
27.08
21.87
11.28
-1.98
-14.61
-24.08
-29.32
-30.62
-29.09
-26.01
-22.43
-19.01
-15.97
-13.22
-10.47
-7.46
-3.98
0.09
5.07
11.31
19.01
27.78
36.50
43.64
47.86
48.76
47.03
44.13
41.43
39.53
37.99
35.80
32.08
26.70
20.33
14.10
9.02
5.54
3.52
2.45
1.65
0.52
-1.49
-4.79
-9.51
-15.47
-22.14
-28.78
-34.54
-38.76
-41.03
-41.28
-39.69
-36.69
-32.84
-28.73
-24.84
-21.39
-18.26
-15.09
-11.55
-7.51
-3.25
0.71
3.84
5.89
6.87
7.10
6.90
6.43
5.69
4.59
3.12
1.41
-0.23
-1.51
-2.19
-2.24
-1.76
-1.05
-0.42
-0.07
-0.17
-0.70
-1.63
-2.84
-4.25
-5.80
-7.42
-9.06
-10.66
-12.25
-13.88
-15.54
-17.09
-18.27
-18.74
-18.21
-16.61
-14.06
-10.82
-7.17
-3.30
0.66
4.58
8.21
11.26
13.44
14.64
14.97
14.67
14.00
13.12
12.13
11.11
10.24
9.68
9.47
9.42
9.14
8.25
6.57
4.33
1.99
0.05
-1.23
-1.89
-2.20
-2.44
-2.72
-3.04
-3.35
-3.67
-4.18
-5.11
-6.56
-8.40
-10.39
-12.23
-13.68
-14.62
-14.94
-14.44
-12.92
-10.21
-6.29
-1.45
3.87
9.09
13.77
17.67
20.83
23.41
25.62
27.60
29.39
30.92
32.09
32.78
32.92
32.52
31.62
30.23
28.36
26.01
23.26
20.30
17.40
14.79
12.61
10.75
9.03
7.24
5.22
2.93
0.46
-2.04
-4.36
-6.29
-7.65
-8.36
-8.55
-8.52
-8.60
-9.07
-9.89
-10.85
-11.49
-11.34
-10.08
-7.53
-3.77
1.02
6.47
12.19
17.71
22.67
26.85
30.18
32.71
34.55
35.85
36.68
37.07
36.92
36.14
34.63
32.41
29.61
26.46
23.14
19.75
16.26
12.61
8.87
5.21
1.84
-1.11
-3.73
-6.33
-9.29
-12.95
-17.42
-22.55
-27.99
-33.26
-37.98
-41.94
-45.19
-48.02
-50.86
-54.10
-57.94
-62.25
-66.51
-69.94
-71.70
-71.25
-68.50
-63.93
-58.33
-52.51
-46.99
-41.88
-36.87
-31.47
-25.16
-17.76
-9.60
-1.64
4.66
7.73
6.33
-0.05
-10.96
-25.10
-40.72
-55.89
-68.77
-77.71
-81.57
-79.99
-73.73
-64.54
-54.53
-45.49
-38.24
-32.55
-27.42
-21.88
-15.50
-8.69
-2.46
2.62
6.59
10.32
15.37
23.42
35.56
51.61
69.95
87.93
103.62
115.87
124.67
130.87
135.79
141.04
148.51
160.15
177.23
200.34
227.07
251.76
267.07
267.20
250.88
222.68
191.47
166.93
157.13
164.53
185.63
213.17
239.21
258.06
267.47
268.11
252.50
216.89
161.29
90.75
14.50
-57.31
-116.85
-160.27
-187.88
-202.99
-208.89
-208.95
-205.58
-200.00
-192.64
-183.61
-173.06
-161.60
-150.36
-139.49
-129.13
-119.24
-109.57
-99.82
-89.70
-79.04
-67.99
-57.08
-46.36
-36.31
-27.28
-19.52
-13.10
-7.90
-3.69
-0.65
0.76
0.35
-2.66
-8.46
-16.50
-25.56
-33.95
-40.09
-42.94
-42.36
-38.98
-34.97
-32.18
-31.66
-33.53
-37.29
-42.18
-47.55
-53.11
-58.90
-66.47
-76.97
-91.37
-110.49
-134.47
-161.90
-189.05
-210.17
-211.60
-188.12
-142.30
-83.95
-26.48
18.50
44.88
53.39
49.72
40.89
31.23
23.45
19.32
19.60
25.53
36.82
50.48
61.20
63.56
53.96
33.87
10.29
-7.72
-13.33
-5.11
13.32
35.91
57.30
74.13
85.89
93.47
97.72
99.05
97.48
93.52
88.33
83.32
79.35
76.43
74.08
70.67
64.99
56.23
44.87
32.35
20.52
10.78
3.56
-1.56
-5.76
-10.14
-15.79
-22.85
-30.67
-38.11
-44.25
-48.79
-52.03
-54.78
-58.09
-63.77
-72.96
-85.78
-100.91
-115.84
-127.68
-134.33
-135.43
-128.39
-114.75
-97.57
-80.06
-64.40
-51.43
-40.80
-31.49
-22.02
-10.89
2.41
18.07
35.74
54.47
72.73
88.75
99.88
104.17
101.47
92.77
79.92
64.77
48.84
33.27
18.83
6.11
-4.32
-12.18
-17.82
-21.84
-25.09
-28.29
-31.99
-36.28
-40.81
-44.72
-47.16
-47.90
-47.14
-45.53
-43.76
-42.17
-40.56
-38.69
-35.12
-28.63
-18.73
-5.65
9.67
25.73
40.47
51.54
56.76
55.01
46.63
33.68
19.32
6.75
-1.93
-6.49
-8.35
-9.63
-11.90
-15.64
-20.18
-24.34
-27.27
-28.63
-28.66
-27.87
-26.70
-25.72
-25.47
-26.35
-28.27
-30.71
-32.27
-31.39
-26.69
-17.37
-3.51
13.84
32.88
50.98
65.14
73.18
74.16
69.01
60.54
52.86
50.56
57.51
75.67
101.61
128.77
148.23
152.24
138.12
109.74
75.33
43.48
19.26
2.98
-8.25
-17.75
-26.86
-34.36
-38.12
-37.22
-32.98
-28.56
-27.31
-30.87
-38.44
-46.89
-52.52
-52.87
-47.60
-38.13
-26.74
-15.01
-4.96
1.38
1.95
-4.49
-17.34
-33.76
-49.47
-60.81
-66.53
-68.07
-68.35
-69.86
-73.08
-76.47
-77.82
-75.83
-70.80
-63.93
-56.10
-47.59
-38.28
-28.39
-18.74
-10.49
-4.48
-0.49
0.67
0.17
-0.09
1.86
7.37
16.94
29.94
44.76
59.21
70.93
78.30
80.37
77.04
69.01
57.50
43.96
29.89
16.67
5.53
-2.26
-5.96
-5.46
-1.24
5.83
14.86
25.07
35.80
46.24
55.48
62.55
66.78
68.41
68.52
68.80
70.66
74.73
80.66
87.52
94.08
99.11
101.64
100.92
96.66
89.23
79.73
69.83
61.16
54.73
50.44
47.35
44.08
39.49
32.98
24.48
14.19
2.28
-11.07
-25.54
-40.33
-54.17
-65.58
-73.57
-78.27
-80.93
-83.60
-87.99
-94.61
-102.38
-109.29
-113.27
-113.23
-109.45
-103.03
-95.02
-85.77
-74.97
-62.47
-49.00
-36.34
-26.51
-20.75
-18.59
-18.12
-16.92
-13.55
-8.30
-2.89
0.65
1.32
-0.25
-2.06
-1.96
1.40
7.75
15.63
23.15
28.86
32.27
33.65
33.73
32.99
31.50
29.14
25.83
21.69
17.03
12.17
7.36
2.88
-0.92
-3.56
-4.60
-3.93
-1.87
0.73
3.00
4.31
4.51
3.83
2.61
1.05
-0.75
-2.71
-4.71
-6.32
-7.21
-7.15
-6.17
-4.54
-2.63
-0.92
0.29
0.76
0.53
-0.13
-0.75
-0.79
0.02
1.62
3.66
5.69
7.37
8.69
9.69
10.37
10.50
9.67
7.62
4.51
0.95
-2.28
-4.57
-5.94
-6.86
-7.93
-9.43
-11.07
-12.10
-11.86
-10.09
-7.16
-3.90
-1.15
0.73
1.85
2.67
3.74
5.32
7.44
9.95
12.71
15.63
18.67
21.65
24.36
26.55
28.14
29.22
30.13
31.09
32.12
32.90
32.89
31.59
28.79
24.71
19.97
15.45
11.88
9.68
8.64
8.05
6.89
4.29
-0.14
-6.03
-12.47
-18.32
-22.70
-25.28
-26.48
-27.18
-28.25
-30.27
-33.29
-36.84
-40.26
-42.98
-44.81
-46.03
-47.17
-48.62
-50.37
-52.06
-53.19
-53.42
-52.86
-51.90
-50.97
-50.35
-50.12
-50.35
-51.27
-53.18
-56.41
-60.91
-66.11
-70.98
-74.44
-75.71
-74.72
-71.99
-68.46
-65.33
-63.89
-65.42
-70.78
-79.90
-91.13
-101.33
-106.52
-103.17
-89.40
-65.38
-32.88
6.07
49.95
97.98
149.10
201.43
251.88
296.58
331.89
355.11
364.99
361.80
347.44
325.19
299.21
273.47
250.29
229.54
208.76
184.66
154.99
119.77
81.20
42.36
5.87
-26.84
-55.26
-78.95
-97.30
-109.80
-116.80
-119.83
-121.63
-124.96
-131.60
-141.40
-152.23
-160.66
-163.11
-156.83
-140.32
-113.67
-78.57
-38.45
1.65
35.73
58.05
64.70
55.42
34.19
7.96
-15.78
-31.48
-36.56
-30.83
-15.07
9.01
38.68
69.08
93.17
103.79
97.15
75.52
46.78
20.78
3.27
-6.37
-14.60
-29.55
-56.18
-93.29
-134.19
-169.79
-192.48
-199.71
-192.68
-175.18
-152.33
-129.89
-113.70
-108.76
-117.83
-140.06
-172.48
-208.86
-241.39
-263.14
-270.19
-262.74
-244.72
-222.38
-190.61
-148.25
-97.01
-41.36
13.75
65.19
111.95
154.09
191.49
223.96
249.75
267.89
278.42
282.37
281.12
276.26
269.45
262.30
255.38
247.70
238.22
226.35
212.09
196.01
179.06
162.39
146.51
131.89
118.07
104.45
90.39
75.31
58.38
38.22
17.51
-3.03
-23.35
-44.12
-66.10
-89.41
-113.09
-134.93
-151.85
-160.65
-159.80
-149.49
-131.87
-110.61
-89.96
-73.88
-65.55
-66.65
-76.80
-94.07
-114.47
-132.90
-144.68
-147.28
-141.39
-130.88
-120.91
-116.17
-120.24
-134.68
-159.22
-191.57
-227.28
-259.86
-282.45
-289.11
-277.09
-248.42
-209.05
-166.60
-127.36
-94.38
-67.38
-44.89
-24.91
-5.97
12.54
30.85
48.98
66.90
84.36
104.69
127.03
147.76
162.51
168.65
166.25
157.42
145.05
131.93
120.15
110.31
102.47
96.57
92.37
89.38
87.03
84.81
82.47
79.78
76.85
74.34
73.44
75.69
82.06
92.12
103.56
112.76
116.39
112.96
104.07
93.57
85.14
80.15
76.85
71.79
62.20
47.58
30.03
12.84
-1.27
-11.11
-16.73
-18.72
-18.11
-16.66
-17.32
-23.70
-38.37
-60.36
-84.20
-101.29
-103.56
-87.73
-57.61
-23.43
1.94
8.13
-8.05
-41.09
-79.00
-108.21
-119.42
-110.64
-86.85
-56.37
-26.91
-3.39
11.82
17.37
12.41
-2.59
-24.14
-45.66
-59.60
-61.09
-51.13
-36.58
-26.12
-25.14
-32.75
-42.93
-48.86
-47.53
-40.92
-33.77
-29.52
-27.39
-22.85
-11.06
9.55
35.66
60.37
77.25
83.16
79.41
70.82
63.50
62.43
70.25
87.01
109.92
132.73
147.59
147.51
129.56
96.71
56.31
17.02
-12.96
-31.37
-38.46
-37.06
-31.77
-28.00
-30.36
-41.67
-61.63
-86.62
-109.98
-123.39
-122.05
-106.68
-82.63
-56.77
-34.53
-18.05
-6.16
4.30
19.36
42.31
73.71
111.34
150.87
187.10
215.70
234.31
235.63
219.71
190.25
151.98
108.36
61.43
12.93
-33.83
-73.98
-102.60
-116.11
-114.86
-102.70
-86.22
-72.63
-67.60
-73.17
-87.32
-105.15
-119.72
-125.56
-120.11
-104.10
-78.99
-48.28
-15.84
15.21
42.49
63.95
77.16
80.61
74.88
62.98
49.51
39.21
35.78
40.49
52.14
67.18
81.42
91.55
96.08
95.22
90.14
83.55
76.55
69.25
60.68
49.14
32.74
9.96
-19.79
-55.78
-94.80
-131.89
-161.39
-178.76
-182.29
-173.84
-158.37
-138.33
-118.11
-100.60
-86.53
-74.51
-62.04
-46.80
-27.71
-5.45
17.81
38.62
54.33
63.77
67.67
68.43
68.74
70.11
72.14
73.07
70.65
63.92
53.48
40.86
28.11
16.60
6.21
-4.70
-18.39
-36.89
-60.77
-88.78
-118.02
-143.26
-158.28
-157.83
-139.59
-104.88
-58.56
-7.45
43.03
84.56
110.42
118.93
113.60
100.07
82.98
64.97
47.58
31.96
19.06
10.17
6.14
6.55
9.65
13.06
14.53
12.48
5.85
-5.75
-20.76
-35.95
-47.89
-54.35
-55.07
-52.58
-48.96
-46.17
-45.59
-47.62
-52.31
-59.66
-69.00
-77.98
-82.67
-78.91
-64.76
-42.03
-15.79
7.57
22.97
28.50
25.99
19.19
11.77
5.68
1.48
-1.06
-2.45
-3.17
-4.13
-5.65
-7.45
-8.39
-6.71
-0.14
12.92
32.14
54.82
76.13
91.51
97.83
94.10
81.80
65.18
50.18
42.98
48.25
67.10
97.11
131.72
161.51
174.13
161.56
124.49
72.81
23.49
-14.58
-39.45
-53.80
-62.05
-67.75
-72.34
-75.98
-78.78
-81.93
-87.65
-96.63
-107.42
-116.87
-121.70
-119.51
-110.25
-96.48
-82.52
-72.85
-69.14
-69.80
-71.02
-68.43
-58.79
-41.44
-18.59
5.49
25.96
39.55
44.94
42.62
34.36
22.77
10.67
0.50
-6.38
-10.03
-11.54
-12.54
-14.38
-17.60
-21.59
-25.07
-26.66
-25.32
-20.65
-12.82
-2.54
8.86
19.72
28.44
34.04
36.66
37.39
37.63
38.33
39.59
40.96
41.98
42.74
43.90
46.32
50.55
56.65
64.32
73.10
82.26
90.53
95.92
96.16
89.55
75.99
57.35
36.91
18.03
2.93
-7.90
-15.33
-20.55
-24.13
-25.82
-25.19
-22.33
-18.30
-14.77
-13.05
-13.30
-14.40
-14.62
-12.73
-8.82
-4.28
-0.99
-0.21
-1.99
-5.21
-8.37
-10.31
-10.77
-10.26
-9.61
-9.47
-10.12
-11.47
-13.24
-15.14
-16.98
-18.79
-20.83
-23.30
-26.00
-28.37
-29.56
-29.00
-26.89
-24.23
-22.25
-21.56
-21.47
-19.73
-14.06
-3.77
9.28
21.56
30.24
35.12
38.70
44.16
53.21
64.08
72.27
73.52
66.94
56.05
47.17
46.04
55.11
73.39
97.59
123.98
149.82
173.31
192.86
206.70
213.28
207.12
185.95
151.66
109.84
67.90
32.02
4.94
-14.11
-28.14
-39.23
-50.57
-64.03
-79.92
-97.16
-114.02
-128.90
-141.00
-150.92
-159.77
-168.55
-176.44
-181.41
-180.52
-171.20
-152.74
-127.01
-97.80
-69.12
-43.63
-22.00
-3.92
11.12
23.01
31.18
35.34
35.77
33.84
31.45
30.50
31.81
35.11
39.07
41.96
42.44
40.04
35.36
29.47
23.79
18.34
12.53
5.42
-3.75
-15.13
-28.22
-42.07
-55.74
-68.24
-78.36
-84.44
-84.80
-78.68
-66.96
-52.05
-36.73
-22.89
-10.85
0.32
11.47
22.17
30.43
34.10
32.77
28.78
26.41
29.26
38.70
52.71
66.75
75.66
75.79
66.23
48.64
26.08
1.99
-20.22
-37.37
-45.59
-42.27
-28.66
-10.31
5.77
14.66
15.34
10.01
1.92
-6.43
-14.19
-21.67
-29.09
-35.74
-40.34
-41.83
-40.09
-36.13
-31.71
-28.74
-28.52
-31.15
-35.48
-39.79
-42.56
-43.05
-41.69
-39.61
-38.20
-38.36
-39.99
-41.90
-42.28
-39.83
-33.27
-22.23
-7.20
10.53
29.04
45.92
58.62
64.96
63.84
55.83
43.13
28.78
15.57
5.13
-2.37
-7.66
-11.57
-14.49
-16.24
-16.47
-15.33
-13.71
-12.89
-13.70
-15.88
-17.97
-17.86
-13.72
-5.03
6.98
19.53
29.47
34.07
32.74
27.07
20.10
15.22
15.35
21.90
34.20
49.42
63.13
70.45
67.50
52.84
27.08
-4.86
-35.26
-56.69
-65.20
-61.69
-50.25
-35.48
-20.48
-6.51
6.27
17.32
25.31
28.93
27.82
22.95
16.48
10.74
7.25
6.46
7.56
9.00
9.56
8.76
6.80
4.25
1.35
-1.91
-5.38
-8.00
-8.92
-6.89
-1.20
7.88
19.26
31.56
43.53
54.19
62.37
66.20
63.85
54.39
38.98
21.06
5.22
-4.71
-7.41
-4.42
0.83
4.96
6.17
4.71
2.32
0.76
1.04
3.13
6.23
9.45
11.92
13.11
12.76
10.84
7.59
3.61
-0.47
-4.37
-8.45
-13.57
-20.55
-29.70
-40.29
-50.94
-60.27
-67.77
-73.99
-79.93
-85.99
-91.31
-94.23
-93.35
-88.63
-81.67
-74.90
-70.41
-68.87
-69.50
-70.78
-71.38
-70.79
-69.27
-67.34
-65.22
-62.81
-59.99
-57.12
-55.15
-55.25
-58.14
-63.56
-70.15
-75.85
-78.76
-77.76
-72.81
-64.80
-54.99
-44.51
-34.11
-24.20
-14.98
-6.56
1.15
8.38
15.54
23.03
31.08
39.49
47.83
55.53
62.08
67.20
70.86
73.20
74.47
75.00
75.13
75.22
75.54
76.17
77.03
77.77
77.97
77.21
75.33
72.36
68.64
64.58
60.49
56.45
52.43
48.46
44.75
41.69
39.58
38.36
37.58
36.55
34.79
32.41
30.05
28.45
27.92
28.00
27.66
25.95
22.56
18.14
13.91
10.93
9.53
9.03
8.20
5.97
1.97
-3.27
-8.66
-13.13
-16.11
-17.70
-18.43
-18.92
-19.52
-20.19
-20.64
-20.60
-19.89
-18.62
-16.97
-15.16
-13.46
-12.15
-11.41
-11.36
-11.89
-12.63
-13.05
-12.58
-10.84
-7.84
-3.90
0.46
4.77
8.85
12.72
16.52
20.30
24.10
27.90
31.85
36.41
42.01
48.87
56.59
64.10
70.33
74.88
78.43
82.43
88.08
95.17
101.86
105.62
104.69
99.30
91.53
84.21
79.33
77.17
76.32
74.74
71.02
64.93
57.30
48.93
40.44
32.25
25.38
21.32
21.84
28.24
40.63
57.63
76.03
92.22
103.88
111.81
118.72
128.00
141.61
159.15
177.85
192.88
199.96
197.11
186.30
169.80
148.53
121.27
86.43
43.55
-6.83
-61.46
-114.65
-157.34
-183.01
-189.36
-179.51
-159.95
-139.48
-128.98
-137.35
-169.07
-220.12
-283.68
-351.86
-418.13
-476.67
-512.56
-514.14
-476.62
-423.00
-367.43
-317.72
-270.23
-223.76
-177.85
-133.43
-94.54
-64.97
-46.15
-33.13
-20.60
-5.24
12.09
28.23
41.80
50.05
52.66
52.38
55.77
66.74
84.85
105.98
125.88
141.85
152.09
156.47
155.73
152.38
148.17
144.05
140.26
137.43
136.23
136.18
136.37
135.49
132.76
127.82
119.79
108.79
96.67
86.58
81.38
82.83
90.71
103.32
118.05
132.07
143.74
152.63
158.81
162.21
162.47
159.46
153.58
145.46
134.36
119.46
99.91
75.01
45.51
12.23
-24.83
-67.00
-116.11
-174.06
-238.28
-301.07
-351.96
-382.47
-390.33
-380.38
-361.94
-344.12
-333.78
-331.69
-333.59
-333.30
-325.92
-309.47
-284.30
-252.16
-203.35
-136.32
-57.56
21.01
89.05
142.30
181.96
211.82
235.05
253.64
267.16
275.76
280.78
284.34
287.85
291.21
293.47
293.73
290.87
283.44
271.27
255.04
235.71
213.73
189.15
162.22
132.70
101.59
69.86
38.87
9.79
-17.03
-42.86
-70.85
-97.72
-122.98
-145.78
-164.72
-177.78
-183.05
-179.67
-168.51
-151.95
-132.84
-114.46
-98.35
-84.56
-72.27
-60.83
-50.39
-41.96
-36.67
-35.00
-37.54
-43.96
-53.33
-64.21
-74.25
-80.69
-81.23
-75.11
-63.78
-50.84
-39.83
-32.56
-28.64
-26.02
-22.72
-18.07
-12.90
-8.46
-5.64
-3.82
-1.41
2.99
9.60
17.59
25.51
31.96
35.71
35.57
31.07
22.80
12.67
3.62
-1.61
-1.73
2.46
8.23
12.14
11.73
6.51
-1.97
-11.05
-18.14
-21.92
-22.45
-21.03
-19.95
-21.47
-26.91
-36.18
-47.93
-59.89
-70.17
-77.41
-81.03
-81.91
-81.11
-79.30
-76.57
-72.95
-68.27
-63.06
-57.39
-50.74
-43.62
-36.58
-30.07
-24.30
-19.60
-15.73
-13.31
-12.73
-14.09
-19.23
-29.48
-44.46
-61.76
-78.06
-89.72
-95.84
-97.19
-84.31
-53.02
-5.92
48.57
101.32
141.71
171.46
192.20
204.03
206.35
197.77
178.29
150.89
120.75
92.71
69.96
51.59
35.37
20.23
6.08
-4.91
-9.59
-6.05
4.80
19.95
34.77
46.03
53.02
55.76
54.69
50.27
43.55
36.68
33.45
37.19
49.60
69.42
91.64
109.40
116.58
110.27
91.84
66.40
40.27
18.93
5.37
-0.50
-1.14
-0.19
-0.77
-4.45
-11.05
-19.53
-28.63
-37.24
-44.43
-49.44
-52.42
-53.66
-53.39
-51.64
-48.77
-45.74
-43.69
-43.39
-44.80
-48.68
-54.77
-61.14
-64.15
-60.41
-48.66
-30.50
-9.67
9.15
19.56
17.79
4.91
-13.26
-29.35
-37.98
-37.20
-28.40
-15.73
-8.71
-17.57
-49.21
-104.17
-176.99
-257.84
-334.49
-395.38
-412.39
-370.76
-279.76
-169.61
-70.94
1.18
47.25
75.00
91.88
101.86
102.88
92.80
73.42
51.11
32.99
22.98
20.74
23.06
25.74
23.21
12.32
-5.97
-26.88
-45.07
-57.38
-63.57
-65.16
-64.11
-64.18
-66.42
-69.35
-69.74
-64.59
-52.79
-35.32
-14.58
6.85
25.99
40.76
50.94
57.61
61.97
64.63
65.68
65.18
63.66
61.69
60.08
60.33
63.96
71.57
82.81
97.04
114.00
134.42
160.08
187.10
213.39
237.42
257.09
270.08
274.76
271.02
260.35
245.36
228.87
214.22
204.80
202.13
205.15
210.28
212.36
206.18
188.17
157.93
112.27
56.07
-0.96
-49.50
-85.46
-110.96
-131.16
-150.28
-169.66
-187.72
-201.14
-208.35
-210.41
-209.86
-208.74
-207.64
-205.55
-201.02
-192.72
-180.29
-163.74
-144.43
-124.10
-103.61
-82.76
-60.93
-38.24
-16.10
3.67
18.79
27.33
28.67
23.89
15.09
4.49
-6.15
-16.91
-26.91
-34.92
-39.61
-39.81
-34.53
-23.55
-7.62
11.44
31.25
50.06
67.01
82.24
95.78
106.71
112.59
110.24
97.57
75.30
47.39
19.62
-2.82
-17.24
-23.37
-22.53
-16.33
-5.97
7.37
22.17
36.18
47.75
54.32
54.64
49.00
39.14
27.84
17.99
11.83
10.04
11.38
13.10
12.33
7.52
-0.70
-9.80
-16.42
-18.07
-14.14
-6.31
2.12
7.66
7.76
1.74
-8.96
-21.30
-31.53
-36.30
-33.90
-24.34
-10.13
4.29
14.65
18.62
16.26
9.29
-0.12
-10.40
-20.80
-31.00
-40.43
-47.97
-52.41
-53.21
-50.99
-47.28
-43.95
-42.55
-43.64
-46.78
-50.54
-53.37
-54.31
-53.26
-50.87
-48.04
-45.49
-43.29
-40.97
-37.82
-32.67
-24.77
-14.02
-0.97
13.18
26.68
37.50
43.70
44.07
38.51
28.24
15.55
3.12
-6.79
-13.04
-15.68
-15.56
-13.69
-10.91
-7.81
-4.86
-2.74
-2.15
-3.53
-6.72
-10.68
-14.04
-15.62
-15.08
-13.04
-10.69
-9.07
-8.51
-9.17
-10.39
-11.51
-12.21
-12.64
-12.96
-13.20
-13.15
-12.74
-12.44
-13.25
-16.34
-22.33
-30.61
-39.26
-45.89
-48.59
-46.74
-41.10
-33.08
-23.99
-14.62
-5.28
3.72
11.68
17.70
21.26
22.88
24.13
26.88
32.11
39.21
46.12
50.40
50.52
46.51
39.87
32.81
27.12
23.64
22.18
21.91
21.73
20.63
17.75
12.43
4.49
-5.55
-16.47
-26.51
-34.00
-37.88
-38.19
-36.09
-33.52
-32.47
-34.09
-38.20
-43.23
-47.04
-47.90
-45.40
-40.54
-35.23
-31.32
-29.80
-30.45
-32.07
-33.11
-32.14
-28.26
-21.19
-11.37
0.03
11.23
20.11
24.83
24.57
19.97
13.04
6.47
2.62
2.65
6.19
11.71
17.18
20.88
21.84
19.98
15.82
10.23
4.08
-1.86
-7.03
-11.14
-14.11
-15.96
-16.65
-15.93
-13.26
-8.00
0.06
10.39
21.57
31.67
38.93
42.38
42.24
39.72
36.41
33.64
31.92
30.78
29.06
25.48
19.15
10.03
-1.05
-12.60
-22.94
-30.76
-35.41
-36.96
-35.93
-33.11
-29.59
-26.76
-26.11
-28.51
-33.41
-38.61
-41.05
-38.24
-29.69
-17.20
-3.95
7.27
15.38
21.22
26.62
33.01
40.50
48.18
55.02
60.76
66.00
71.56
77.62
83.27
86.60
85.61
79.01
66.88
50.85
33.51
17.54
4.82
-4.12
-10.00
-14.00
-17.02
-19.15
-19.83
-18.46
-15.01
-10.33
-5.87
-3.04
-2.61
-4.42
-7.53
-10.57
-12.35
-12.12
-9.81
-5.86
-1.14
3.41
6.98
9.14
9.94
9.72
8.98
8.11
7.31
6.67
6.28
6.32
6.98
8.42
10.53
13.05
15.54
17.59
18.86
19.12
18.28
16.33
13.46
10.01
6.55
3.71
2.06
1.90
3.20
5.65
8.75
12.00
14.99
17.54
19.82
22.24
25.58
30.65
38.15
48.20
60.28
73.16
85.21
94.83
100.76
102.45
99.98
94.02
85.65
76.17
66.99
59.42
54.33
51.91
51.46
51.54
50.31
46.19
38.37
27.09
13.51
-0.66
-13.69
-24.25
-31.74
-36.38
-38.99
-40.81
-43.05
-46.52
-51.34
-56.92
-62.09
-65.64
-66.82
-65.68
-63.04
-60.15
-58.20
-57.76
-58.58
-59.68
-59.76
-57.71
-53.04
-45.96
-37.38
-28.58
-20.90
-15.36
-12.32
-11.31
-11.09
-10.08
-6.93
-1.29
5.99
13.12
18.12
19.73
17.87
13.55
8.25
3.09
-1.54
-5.84
-10.06
-14.15
-17.65
-20.00
-20.99
-20.90
-20.36
-20.08
-20.45
-21.41
-22.69
-23.85
-24.24
-22.97
-18.89
-11.13
0.32
13.98
27.11
36.35
39.18
35.08
26.18
16.65
11.23
13.35
23.77
40.50
59.65
77.03
89.72
96.77
98.93
97.89
95.22
91.76
88.01
84.04
79.76
75.05
69.71
63.69
57.31
51.47
47.31
46.73
51.00
60.23
73.23
87.98
102.34
114.76
124.62
131.64
137.18
142.46
148.25
154.52
160.48
164.70
165.61
161.95
152.61
139.20
124.27
110.83
101.58
98.26
101.20
109.44
121.20
125.67
115.33
86.39
40.54
-15.32
-72.18
-122.74
-163.24
-189.77
-205.17
-211.12
-208.50
-198.17
-181.76
-162.10
-142.65
-127.58
-119.06
-117.88
-121.62
-127.15
-131.78
-133.98
-133.50
-130.99
-127.52
-124.03
-122.02
-122.02
-124.44
-129.19
-134.90
-138.41
-135.10
-120.44
-92.00
-51.67
-5.02
39.95
75.72
97.78
105.50
101.00
86.91
64.95
35.75
0.76
-36.48
-70.32
-94.82
-106.42
-105.90
-97.96
-88.87
-83.62
-83.86
-87.89
-92.33
-94.23
-92.55
-88.36
-83.95
-81.26
-80.65
-80.48
-77.67
-69.26
-54.01
-33.34
-11.07
8.16
21.03
26.88
27.80
27.26
28.20
31.85
37.77
44.82
52.25
59.97
68.06
76.00
82.55
86.25
86.21
82.61
76.34
68.36
59.24
49.03
37.70
25.56
13.32
1.91
-7.75
-14.92
-19.11
-20.21
-18.82
-16.25
-14.03
-13.17
-13.30
-12.71
-9.18
-1.38
10.02
22.24
31.25
33.10
25.35
8.10
-15.48
-39.54
-56.92
-61.58
-50.94
-27.24
3.05
31.89
52.92
63.67
65.70
62.89
58.86
55.51
52.94
50.68
48.84
48.30
49.87
53.25
56.78
58.01
55.00
47.29
36.08
23.56
11.70
1.46
-7.36
-15.53
-23.77
-32.15
-40.10
-46.68
-51.02
-52.74
-52.02
-49.58
-46.40
-43.43
-41.27
-39.99
-39.16
-38.05
-36.04
-32.75
-28.17
-22.55
-16.34
-10.15
-4.72
-0.88
0.75
-0.01
-2.71
-6.40
-9.91
-12.27
-13.00
-12.18
-10.41
-8.54
-7.43
-7.71
-9.73
-13.39
-18.24
-23.55
-28.44
-32.17
-34.23
-34.49
-33.25
-31.24
-29.45
-28.80
-29.80
-32.21
-35.20
-37.65
-38.72
-38.32
-37.16
-36.37
-36.94
-39.22
-42.70
-46.12
-47.85
-46.42
-41.07
-32.11
-20.96
-9.74
-0.51
5.53
8.42
9.17
9.20
9.51
10.47
11.91
13.41
14.45
14.45
12.60
8.12
0.72
-9.03
-19.59
-29.16
-36.31
-40.57
-42.27
-41.95
-39.72
-35.15
-27.80
-17.84
-6.46
4.56
13.56
19.83
23.87
27.11
31.13
36.94
44.48
52.48
58.98
62.02
60.53
54.92
46.90
38.86
32.76
29.19
27.17
24.60
19.35
10.24
-2.28
-16.27
-28.90
-37.41
-40.08
-37.03
-30.23
-22.91
-18.34
-18.55
-23.45
-30.96
-37.95
-41.40
-39.46
-31.90
-20.28
-7.58
2.46
6.44
2.76
-7.36
-19.96
-29.85
-33.03
-28.54
-18.69
-7.59
1.30
6.83
10.13
13.21
17.07
20.88
22.51
19.96
12.68
1.68
-11.04
-23.56
-34.71
-44.07
-51.45
-56.42
-58.44
-57.11
-52.84
-46.95
-41.38
-37.85
-36.90
-37.57
-37.74
-35.25
-28.85
-18.77
-6.41
6.32
17.83
27.18
33.93
37.88
38.84
36.87
32.69
27.79
24.26
23.95
27.58
34.18
41.38
46.42
47.36
44.02
38.05
32.27
29.32
30.61
35.83
43.27
50.79
56.57
59.75
60.40
59.18
56.77
53.41
48.93
42.81
34.66
24.53
13.01
1.00
-10.55
-21.01
-30.24
-38.41
-45.93
-53.19
-60.30
-66.94
-72.21
-74.82
-73.47
-67.49
-57.22
-44.04
-29.77
-15.93
-3.22
8.44
19.40
29.70
38.83
46.09
51.18
54.45
56.76
58.75
60.34
60.65
58.42
52.81
43.90
32.94
22.06
13.74
10.03
12.03
19.69
31.91
46.93
62.65
76.92
87.76
93.54
93.14
86.11
72.68
53.65
30.38
4.67
-21.30
-44.95
-63.57
-74.88
-77.61
-71.94
-59.65
-43.45
-26.27
-10.73
1.26
8.62
11.15
9.75
6.33
3.32
2.98
6.48
12.99
19.88
23.59
21.12
11.36
-4.37
-23.05
-40.97
-55.27
-64.90
-70.64
-74.53
-78.78
-85.04
-92.44
-99.37
-103.61
-103.06
-96.58
-84.37
-67.69
-48.20
-27.50
-6.89
12.28
28.81
41.63
50.03
53.98
54.24
52.24
49.66
47.87
47.38
47.87
48.51
48.31
46.77
44.05
40.94
38.47
37.46
38.06
39.85
42.00
43.63
44.28
43.92
42.83
41.22
39.19
36.11
31.22
23.88
13.74
0.94
-14.05
-30.29
-46.18
-59.40
-67.20
-67.21
-58.54
-42.59
-22.73
-3.16
12.90
24.34
32.19
38.53
45.07
52.20
59.05
64.46
68.03
70.46
73.06
76.66
81.16
85.65
89.27
91.73
93.67
96.27
100.58
106.84
114.77
123.20
130.85
136.98
141.62
145.33
148.60
151.29
152.66
151.73
147.95
141.79
134.69
128.48
124.68
123.88
125.58
128.41
130.55
130.09
125.45
115.57
100.08
79.56
55.66
30.94
8.41
-9.31
-20.76
-25.92
-26.07
-23.26
-19.59
-16.67
-15.28
-15.63
-17.84
-22.50
-30.93
-45.50
-69.36
-105.71
-156.22
-219.10
-288.09
-352.98
-402.15
-425.95
-419.94
-386.41
-333.77
-273.92
-218.80
-177.39
-154.07
-148.46
-156.45
-171.73
-187.58
-198.28
-200.24
-192.58
-176.90
-156.54
-135.35
-116.64
-102.06
-91.24
-82.11
-71.80
-57.68
-38.28
-13.59
15.22
46.08
76.67
104.75
128.57
147.06
160.07
168.01
171.96
173.46
173.90
174.38
175.45
177.12
179.18
181.63
184.67
189.24
196.53
207.09
219.82
231.74
239.06
238.96
231.13
217.45
201.94
188.84
180.70
177.12
175.15
170.63
159.83
140.36
109.27
65.89
12.81
-44.26
-98.01
-141.84
-171.92
-188.08
-193.70
-198.42
-209.92
-230.34
-255.91
-280.33
-298.90
-310.55
-317.53
-323.60
-338.99
-369.96
-416.18
-471.88
-530.08
-585.87
-636.43
-679.60
-713.38
-745.71
-783.14
-827.19
-873.19
-913.27
-940.08
-948.97
-938.91
-856.91
-683.60
-438.66
-172.05
68.16
258.62
399.11
499.52
570.17
618.39
640.16
634.18
605.80
566.38
527.56
496.08
472.53
453.79
436.05
409.90
371.03
322.09
271.46
227.70
196.62
179.73
175.69
181.63
189.46
192.45
186.59
171.87
151.44
130.12
113.21
105.09
107.76
117.81
130.76
142.65
151.95
159.34
166.18
173.20
180.27
187.15
189.22
185.44
176.74
164.99
151.66
137.18
120.94
102.21
80.87
57.63
34.69
14.62
0.38
-5.22
-0.22
15.20
38.15
63.50
85.48
100.17
106.40
105.70
100.90
94.39
86.54
75.67
59.32
35.99
6.58
-25.59
-56.06
-80.82
-95.40
-96.84
-85.30
-64.13
-38.72
-14.43
4.79
17.51
23.59
24.07
21.40
19.00
20.09
26.57
37.99
51.70
63.43
69.43
68.53
62.71
56.74
56.36
65.18
80.17
97.67
115.22
132.65
149.50
164.87
177.03
183.70
182.80
173.53
157.32
136.81
114.94
93.75
74.10
55.52
36.52
15.51
-8.24
-33.66
-58.66
-81.10
-99.74
-114.71
-127.51
-140.40
-155.57
-173.99
-194.83
-216.11
-235.74
-252.47
-266.29
-278.29
-290.10
-303.39
-319.57
-339.73
-364.53
-393.49
-424.12
-451.48
-468.98
-470.41
-452.24
-415.12
-363.65
-304.79
-245.61
-191.57
-146.16
-111.15
-87.16
-73.73
-68.62
-67.31
-63.46
-50.59
-24.99
12.04
53.69
89.36
108.20
103.29
74.51
29.09
-20.31
-59.68
-78.17
-71.23
-41.52
2.93
52.12
97.70
135.06
163.57
185.04
201.61
214.36
223.18
227.63
228.11
226.22
224.28
224.12
226.17
229.15
230.74
228.71
222.07
211.52
199.23
188.26
181.28
179.83
183.66
190.67
197.33
199.53
193.59
177.14
149.95
114.01
73.07
31.75
-5.57
-35.68
-56.88
-68.93
-72.65
-69.47
-61.19
-50.04
-38.79
-30.67
-28.97
-36.21
-53.17
-78.51
-108.72
-139.08
-164.79
-182.26
-189.98
-188.31
-179.07
-164.67
-147.40
-128.84
-109.84
-90.45
-70.57
-50.60
-31.52
-14.65
-1.09
8.85
15.84
21.13
26.15
31.72
37.65
43.02
46.82
48.59
48.57
47.59
46.40
45.45
44.75
43.96
42.96
42.05
41.79
42.60
44.26
45.80
45.98
43.79
39.15
33.04
27.66
25.37
27.70
34.54
44.12
53.71
60.61
63.03
60.83
56.11
52.19
52.03
57.11
67.20
81.05
97.15
114.08
130.48
145.97
159.96
171.07
177.23
176.89
170.00
157.75
141.27
120.94
98.51
76.91
60.48
53.96
61.11
83.07
116.91
155.85
180.78
176.73
139.86
80.75
17.03
-37.66
-78.85
-109.52
-135.10
-159.42
-181.19
-196.48
-201.91
-197.30
-185.96
-173.00
-163.35
-160.01
-163.56
-170.64
-176.14
-175.54
-166.77
-151.19
-130.56
-107.39
-84.42
-64.44
-48.98
-38.50
-32.15
-27.80
-22.34
-12.58
2.75
22.05
41.22
55.15
59.91
54.42
40.77
22.95
5.50
-8.10
-17.40
-23.05
-26.13
-28.23
-31.28
-36.26
-42.34
-46.10
-42.94
-30.43
-10.66
9.87
25.27
33.08
35.96
40.14
51.82
73.08
100.19
123.78
134.63
127.74
104.70
72.69
40.30
13.46
-6.63
-22.51
-37.60
-53.34
-68.47
-80.23
-86.16
-85.89
-81.25
-75.27
-70.06
-66.09
-60.57
-50.49
-35.22
-17.86
-4.76
-2.48
-14.68
-40.09
-73.08
-105.66
-130.64
-143.10
-140.43
-122.24
-90.12
-47.99
-2.35
38.73
67.84
80.72
76.26
58.82
36.50
17.75
7.63
6.42
11.19
18.59
26.67
35.43
45.56
56.65
66.88
73.69
75.13
70.82
61.91
50.67
40.36
35.42
38.16
49.40
67.88
90.18
111.41
126.66
130.17
121.00
101.36
74.70
44.04
11.07
-23.01
-56.36
-85.95
-107.70
-117.48
-114.13
-98.92
-76.03
-52.30
-35.49
-31.60
-42.03
-61.66
-79.76
-84.40
-67.37
-27.90
26.49
83.53
131.87
165.67
185.97
197.50
203.81
204.59
195.52
170.63
126.31
63.72
-11.12
-89.07
-160.51
-218.43
-259.44
-283.49
-293.35
-293.13
-287.33
-279.86
-272.90
-268.29
-267.14
-269.05
-267.73
-256.18
-228.56
-183.42
-128.58
-68.66
-7.74
50.37
101.64
142.98
172.89
191.28
198.48
195.21
183.96
168.41
154.05
146.96
151.13
165.38
183.35
196.27
197.66
187.27
169.94
152.39
138.55
126.88
110.97
84.30
44.77
-2.71
-47.74
-79.94
-93.61
-90.16
-76.44
-60.71
-47.91
-38.42
-29.03
-15.82
2.70
24.71
46.11
62.68
72.21
76.19
78.14
82.17
91.04
105.19
122.98
141.70
158.55
167.23
163.93
147.36
119.61
85.52
50.83
20.14
-4.70
-24.74
-45.25
-70.60
-102.56
-139.37
-176.92
-210.13
-234.78
-246.02
-241.65
-222.71
-193.37
-161.74
-137.65
-129.82
-142.00
-170.14
-203.10
-227.04
-230.64
-208.62
-162.82
-99.03
-24.65
53.00
126.53
187.98
228.95
243.40
230.30
191.01
134.71
75.61
28.06
1.26
-3.25
9.03
28.96
47.07
55.99
52.75
38.54
17.56
-4.61
-22.34
-33.24
-36.42
-32.37
-22.70
-9.47
4.22
14.61
18.44
13.98
1.63
-15.71
-33.71
-47.95
-55.37
-54.80
-48.14
-39.38
-33.35
-33.39
-38.89
-45.41
-46.68
-37.86
-18.49
6.77
31.10
47.96
54.01
50.74
43.39
38.23
39.81
50.08
68.96
96.40
131.01
169.06
204.07
227.90
233.03
215.28
176.26
117.68
50.71
-9.21
-49.69
-67.23
-66.34
-54.80
-39.44
-24.37
-11.57
-1.10
6.65
10.99
11.25
8.04
3.64
-1.01
-5.86
-11.91
-20.33
-33.12
-52.28
-78.56
-109.32
-138.78
-160.10
-167.66
-159.56
-137.81
-108.11
-75.21
-45.10
-21.26
-4.12
7.78
16.26
22.32
26.31
28.29
28.61
27.71
26.47
25.49
24.52
22.92
20.20
16.62
13.20
11.34
11.84
15.04
20.30
26.08
30.72
32.99
32.51
29.66
25.19
19.59
13.60
7.91
2.98
-0.74
-2.89
-3.36
-2.51
-1.27
-0.91
-2.33
-5.74
-10.65
-15.73
-19.43
-20.67
-19.24
-15.73
-11.58
-8.25
-6.94
-8.29
-11.76
-16.20
-20.35
-23.11
-23.47
-20.97
-16.26
-11.73
-11.73
-20.97
-41.65
-72.50
-108.23
-140.75
-162.00
-166.88
-152.91
-124.69
-89.13
-52.42
-18.48
11.09
35.83
55.33
68.92
76.25
77.53
74.49
69.59
65.10
62.24
61.02
60.61
59.89
58.22
55.26
51.67
48.36
45.93
44.46
43.54
42.66
41.47
40.18
39.11
38.76
39.31
40.29
41.09
41.08
40.17
38.74
37.62
37.35
38.06
39.20
39.21
36.55
29.84
18.12
0.97
-20.83
-44.92
-67.17
-82.16
-85.93
-77.42
-59.43
-37.75
-18.75
-6.68
-2.25
-3.09
-5.69
-7.76
-8.89
-10.13
-12.52
-15.92
-18.95
-19.84
-17.73
-13.21
-8.32
-5.44
-6.12
-10.27
-16.20
-21.42
-23.75
-22.43
-18.41
-14.03
-11.92
-13.66
-19.05
-26.39
-33.18
-37.47
-38.74
-37.76
-35.95
-34.75
-35.20
-38.21
-44.89
-56.22
-72.40
-91.79
-110.70
-124.20
-127.79
-118.78
-97.19
-65.51
-27.25
14.47
57.04
98.91
137.72
169.18
187.57
188.03
169.39
135.82
96.25
59.95
33.71
18.98
12.29
8.32
3.42
-2.37
-6.13
-4.75
2.24
12.23
20.46
22.54
16.53
3.50
-12.68
-25.97
-29.73
-18.81
7.84
45.41
83.53
110.13
116.60
101.77
72.19
38.27
9.44
-10.16
-20.71
-24.47
-23.09
-17.38
-8.51
0.63
6.18
5.77
0.63
-4.92
-6.79
-4.25
-0.79
-1.45
-9.01
-21.62
-33.95
-40.57
-39.82
-34.53
-30.04
-30.59
-37.35
-48.17
-59.21
-67.13
-70.68
-71.29
-72.12
-76.28
-84.45
-93.52
-97.07
-88.37
-64.06
-26.85
14.91
50.89
73.64
81.88
80.24
76.12
75.57
80.52
88.48
94.43
93.52
83.15
63.80
38.92
14.02
-4.67
-12.51
-8.43
4.04
18.04
26.62
25.84
16.43
3.68
-5.09
-3.65
10.86
37.10
70.47
104.80
133.99
151.98
154.05
137.65
103.52
56.47
4.41
-43.38
-79.26
-99.78
-107.59
-109.09
-111.39
-119.24
-133.47
-151.15
-166.53
-173.37
-162.14
-130.35
-85.03
-39.36
-4.57
15.33
22.93
23.65
21.71
18.71
13.49
5.01
-5.66
-15.50
-21.24
-21.42
-16.88
-10.14
-4.30
-2.23
-5.04
-11.53
-18.85
-23.96
-25.04
-21.99
-16.10
-9.33
-3.89
-1.19
-1.16
-2.75
-3.72
-2.17
3.11
12.48
25.24
39.51
52.54
61.38
63.79
58.97
47.76
32.44
16.07
1.49
-9.28
-15.23
-16.35
-13.62
-8.79
-4.13
-1.76
-2.60
-5.88
-9.52
-11.29
-10.20
-7.20
-4.43
-3.73
-5.18
-6.97
-6.20
-0.50
10.36
24.15
37.33
46.79
51.37
52.27
51.97
52.72
55.11
57.68
57.65
52.36
40.29
21.59
-2.27
-29.16
-57.12
-84.77
-111.39
-136.77
-160.93
-184.06
-206.05
-226.02
-241.79
-249.97
-246.86
-229.94
-199.43
-158.57
-112.88
-68.14
-28.38
4.92
32.40
55.36
74.22
88.40
97.49
102.50
106.53
113.37
125.11
140.51
155.03
163.02
160.75
148.58
130.76
113.29
100.93
95.18
94.15
94.07
91.18
83.15
69.45
50.76
28.74
5.70
-15.67
-32.79
-43.92
-48.84
-48.91
-46.39
-43.47
-41.21
-39.22
-36.11
-30.30
-20.82
-7.72
7.90
23.89
37.04
43.49
39.59
23.27
-4.72
-40.38
-77.46
-109.38
-131.33
-141.59
-141.41
-133.84
-122.26
-109.37
-97.00
-86.48
-78.96
-75.20
-75.25
-78.34
-83.13
-88.33
-92.99
-96.60
-98.85
-99.34
-97.40
-92.15
-82.86
-69.52
-53.01
-35.21
-18.56
-5.47
2.62
6.07
7.95
13.42
28.22
56.12
96.91
145.98
195.90
239.35
271.95
294.11
309.11
320.23
328.08
330.09
322.41
302.70
272.12
235.09
198.45
167.60
144.80
129.22
118.62
111.40
107.55
108.26
114.58
127.92
147.88
172.60
199.46
225.89
249.88
269.82
284.61
283.10
257.83
206.66
134.73
52.60
-28.48
-100.66
-160.48
-207.24
-241.50
-262.80
-271.63
-269.94
-260.95
-248.07
-233.79
-219.23
-204.45
-189.60
-174.62
-160.33
-148.09
-139.21
-134.17
-131.62
-128.54
-120.53
-103.70
-75.74
-38.10
3.79
41.90
68.06
77.91
69.43
45.10
11.51
-22.36
-48.32
-61.72
-62.62
-55.26
-45.66
-39.09
-37.67
-40.70
-46.29
-53.61
-63.52
-77.37
-94.70
-111.91
-123.19
-123.27
-111.09
-91.16
-71.45
-58.99
-55.44
-56.22
-52.82
-37.53
-7.27
34.94
81.72
124.87
156.85
173.74
175.83
166.78
151.64
135.39
121.66
111.87
105.22
99.31
91.78
81.32
67.95
52.41
35.62
18.30
1.12
-14.88
-28.32
-37.81
-42.67
-43.35
-41.13
-37.39
-32.94
-27.96
-22.27
-15.90
-9.41
-4.00
-1.30
-2.37
-6.93
-12.88
-16.58
-14.12
-3.04
16.23
40.25
63.81
82.13
92.59
95.25
91.94
84.72
74.89
63.12
50.28
38.03
28.62
23.99
24.81
30.47
39.56
50.39
61.34
70.83
77.33
79.82
78.18
73.53
67.73
62.23
56.99
50.43
40.29
24.94
4.25
-20.47
-47.27
-74.36
-100.57
-125.35
-148.48
-170.02
-190.20
-209.35
-227.61
-244.53
-258.82
-268.55
-271.63
-266.70
-253.98
-235.28
-213.49
-191.50
-171.31
-153.49
-137.47
-122.12
-106.62
-90.83
-74.96
-59.07
-42.94
-26.30
-9.44
6.36
19.20
27.52
31.09
31.29
30.57
31.13
33.99
38.79
44.45
50.15
55.82
62.01
68.95
76.05
81.82
84.68
83.78
79.54
73.35
66.74
60.73
55.50
50.74
46.10
41.36
36.41
30.95
24.69
17.66
10.62
4.94
1.82
1.41
2.36
2.51
0.06
-5.27
-12.09
-18.17
-21.81
-22.67
-21.67
-20.02
-18.26
-16.16
-13.22
-9.56
-6.13
-4.17
-4.12
-5.06
-5.06
-2.40
3.25
10.49
16.95
20.64
21.17
20.11
20.10
23.49
30.95
41.20
51.57
59.26
62.30
60.27
54.27
46.89
41.76
42.92
53.60
74.73
103.44
132.79
153.70
158.42
144.21
115.02
79.51
47.03
23.27
8.09
-3.17
-16.00
-33.12
-53.39
-73.71
-92.53
-110.74
-130.36
-151.80
-172.21
-186.79
-192.27
-189.80
-185.09
-185.75
-195.40
-210.00
-219.18
-211.56
-181.46
-132.98
-78.97
-35.54
-15.75
-23.57
-52.71
-90.95
-126.50
-153.04
-171.27
-186.11
-193.42
-188.05
-164.95
-122.04
-62.99
2.95
64.44
112.74
145.00
163.80
177.14
192.09
212.17
236.83
262.42
283.79
296.54
298.94
289.54
269.56
242.45
213.20
186.97
167.29
154.71
147.27
142.46
139.25
138.34
142.04
152.16
167.43
182.81
190.46
183.68
160.76
125.96
86.43
49.76
20.94
0.92
-11.99
-21.63
-31.12
-41.86
-54.30
-70.39
-91.52
-117.73
-147.65
-178.01
-206.87
-233.09
-256.71
-279.75
-307.55
-343.40
-385.96
-428.53
-459.72
-470.80
-457.62
-422.57
-359.46
-275.24
-184.81
-104.04
-49.71
-15.41
8.74
29.79
53.26
80.83
110.71
141.75
172.37
199.14
218.18
224.21
216.10
199.32
183.48
175.93
179.73
191.73
204.44
211.42
208.60
197.19
182.21
168.68
155.75
142.05
126.17
107.64
88.53
71.07
57.35
47.93
40.77
31.28
14.90
-10.86
-44.93
-81.34
-111.98
-129.41
-130.40
-117.60
-98.36
-82.37
-74.34
-74.57
-79.39
-83.85
-83.98
-78.33
-68.06
-55.80
-44.25
-35.23
-29.42
-25.71
-21.69
-14.43
-1.92
15.91
37.00
57.86
74.53
83.06
80.92
67.43
43.93
13.83
-17.51
-43.70
-58.95
-59.80
-46.66
-23.68
2.70
25.91
41.22
46.74
43.20
32.94
18.90
3.70
-10.68
-23.07
-33.03
-40.75
-46.66
-50.93
-53.07
-52.08
-46.99
-37.55
-24.60
-9.84
4.81
18.09
29.74
40.19
49.81
58.12
63.72
64.63
59.24
47.29
30.39
11.60
-5.56
-18.06
-23.88
-22.05
-12.88
2.12
19.85
36.14
47.25
51.51
49.92
45.40
41.09
38.66
37.86
37.03
34.50
29.93
24.61
20.71
19.90
22.48
27.11
31.74
34.65
34.85
32.17
27.17
19.24
8.08
-5.39
-18.54
-27.33
-28.18
-19.77
-4.10
13.23
25.70
29.12
22.93
9.81
-6.46
-23.01
-38.65
-53.14
-66.11
-75.89
-79.50
-74.43
-61.33
-43.71
-28.19
-22.22
-30.51
-52.27
-80.82
-105.11
-115.19
-106.53
-81.65
-48.22
-15.02
11.78
29.97
40.30
44.53
44.18
41.30
38.11
37.98
44.20
57.95
77.09
96.29
108.31
108.53
96.31
74.60
48.17
21.33
-3.23
-24.30
-41.28
-53.38
-59.54
-59.41
-53.97
-45.48
-36.81
-29.65
-24.17
-19.08
-12.27
-1.90
12.20
28.09
42.61
52.66
56.26
53.11
44.29
31.69
17.55
3.98
-7.38
-15.25
-18.70
-17.66
-13.50
-9.12
-8.16
-13.44
-25.72
-43.87
-65.48
-88.02
-109.73
-129.37
-145.04
-153.03
-147.51
-122.75
-77.29
-16.56
47.73
101.47
133.97
141.96
128.03
98.66
63.91
32.79
9.87
-5.33
-16.00
-24.58
-31.37
-35.37
-35.40
-30.91
-23.22
-14.45
-6.42
-0.40
3.25
4.50
3.99
3.93
8.38
20.74
42.51
70.90
99.12
119.74
128.29
125.30
115.74
105.66
98.31
92.96
86.65
75.39
59.68
43.78
32.06
25.41
20.23
10.79
-6.44
-30.64
-57.15
-79.47
-92.14
-92.70
-83.19
-68.12
-53.96
-47.42
-53.12
-71.48
-97.89
-123.32
-138.45
-137.72
-121.29
-94.46
-64.28
-36.20
-12.36
7.91
25.74
40.86
51.33
55.10
51.83
43.82
35.18
30.26
31.39
37.58
44.97
48.47
44.88
34.61
22.08
12.31
9.17
13.68
24.19
37.46
49.39
56.16
54.58
42.75
20.42
-9.80
-41.92
-67.62
-78.79
-71.52
-48.21
-16.92
12.42
31.71
37.83
32.87
20.62
7.22
-3.14
-10.39
-17.07
-23.68
-27.53
-23.77
-8.14
20.07
57.61
98.01
134.79
160.50
170.94
165.91
149.21
126.76
103.78
83.98
68.56
56.44
44.74
30.48
11.46
-11.39
-34.27
-52.35
-61.61
-61.54
-55.91
-50.91
-51.32
-58.32
-69.25
-77.53
-79.03
-73.29
-63.83
-55.76
-53.20
-57.02
-65.35
-75.35
-85.30
-95.62
-107.54
-122.16
-139.23
-158.01
-178.28
-200.76
-226.25
-254.00
-280.55
-299.56
-304.38
-290.17
-256.78
-208.51
-152.43
-95.99
-45.59
-6.15
19.40
30.48
31.14
28.61
31.45
46.09
74.20
112.51
154.68
194.57
228.35
256.83
282.28
306.22
328.12
346.04
358.33
364.74
366.38
355.51
328.08
284.54
230.59
174.15
121.25
74.39
33.55
-2.08
-33.16
-58.02
-74.94
-83.11
-83.34
-78.08
-71.07
-67.10
-69.87
-81.64
-101.13
-124.42
-146.10
-161.33
-167.56
-165.19
-156.64
-144.63
-130.78
-114.21
-93.32
-67.73
-39.84
-13.89
4.77
12.66
9.54
-2.07
-17.77
-33.61
-47.50
-59.50
-70.68
-81.85
-92.42
-100.85
-106.10
-107.54
-105.14
-99.21
-89.90
-76.45
-57.79
-33.36
-4.69
23.60
45.83
58.29
60.96
57.79
55.17
58.21
68.07
81.21
91.03
92.68
86.58
77.25
70.22
69.23
71.42
71.21
67.67
61.20
53.48
49.74
54.15
66.38
81.75
92.82
92.96
79.34
53.36
17.56
-21.92
-56.63
-84.05
-103.94
-114.14
-110.23
-87.55
-44.98
12.84
75.71
129.57
160.66
161.27
132.01
81.43
22.95
-29.79
-66.56
-82.23
-77.44
-57.52
-29.37
-0.61
21.36
31.26
27.71
13.76
-4.44
-20.61
-31.05
-34.84
-33.48
-30.06
-27.72
-28.61
-33.05
-38.18
-40.33
-36.14
-23.63
-3.46
21.05
45.29
65.11
78.30
81.55
75.48
62.41
44.67
24.25
3.01
-16.50
-31.09
-39.53
-42.09
-40.32
-36.54
-32.60
-28.88
-25.08
-21.29
-19.04
-20.12
-24.88
-31.16
-33.97
-26.96
-5.51
29.68
71.30
106.65
123.05
112.74
76.12
21.75
-36.33
-82.62
-105.44
-100.33
-71.07
-25.80
26.35
77.43
119.82
145.69
149.56
129.97
93.62
46.07
-6.12
-55.39
-94.86
-120.23
-131.86
-133.76
-131.60
-130.01
-131.32
-134.27
-135.77
-133.23
-125.98
-115.08
-101.51
-85.72
-67.46
-46.80
-24.04
-0.12
23.24
44.01
60.68
73.96
86.28
100.50
118.63
141.09
166.53
192.37
215.80
231.85
237.55
231.16
211.93
180.01
137.80
91.02
47.63
14.74
-5.23
-16.27
-27.46
-47.91
-81.32
-124.63
-168.57
-203.21
-222.46
-226.05
-217.93
-203.47
-186.30
-167.35
-146.30
-123.16
-99.39
-77.80
-60.57
-46.68
-34.10
-19.94
-3.08
14.43
27.30
28.52
12.26
-22.82
-72.29
-127.47
-177.16
-211.31
-223.16
-209.87
-171.84
-111.92
-34.13
55.93
149.65
234.67
295.24
318.49
301.48
254.14
194.53
141.26
108.30
95.32
95.77
102.24
110.43
119.99
132.88
146.42
156.89
159.60
150.44
129.39
100.57
70.13
42.01
15.00
-16.37
-58.04
-110.56
-167.49
-216.98
-247.78
-254.93
-242.04
-214.97
-184.41
-158.20
-137.35
-117.35
-92.87
-62.51
-30.18
-2.06
17.45
27.35
30.09
29.18
26.78
23.91
22.46
25.78
37.41
58.61
86.53
115.22
138.69
153.04
157.07
151.42
136.95
114.19
84.18
49.63
15.97
-10.51
-24.20
-24.35
-15.33
-3.55
6.67
14.32
20.11
24.36
26.13
23.61
16.60
7.63
0.32
-2.55
-0.57
4.49
10.70
17.27
23.44
27.64
26.47
15.29
-8.59
-43.06
-80.88
-112.13
-125.69
-116.10
-85.37
-41.18
6.84
51.97
91.36
124.19
148.48
159.19
149.22
113.83
54.67
-20.09
-97.56
-165.35
-216.07
-248.99
-268.46
-280.55
-289.05
-287.33
-269.46
-233.23
-182.69
-126.34
-72.84
-27.39
8.40
35.87
57.21
73.24
83.94
89.55
90.90
89.08
84.97
78.05
67.14
51.49
31.43
9.56
-8.97
-17.87
-11.77
13.19
55.86
111.11
171.65
229.12
274.72
300.92
303.15
281.11
239.24
185.28
128.49
76.89
34.35
-1.19
-35.38
-73.82
-118.97
-168.59
-216.98
-256.82
-281.77
-281.52
-252.73
-202.10
-144.10
-92.97
-55.50
-30.51
-13.04
0.98
12.26
17.92
15.07
3.93
-11.19
-23.73
-28.49
-23.64
-10.40
7.43
25.92
41.41
50.86
51.75
42.75
24.87
2.47
-16.88
-25.14
-18.19
1.74
28.11
50.31
60.37
57.88
47.45
34.93
23.94
14.23
3.20
-11.25
-27.43
-41.15
-47.53
-43.76
-30.77
-12.92
3.54
12.71
11.43
1.39
-11.91
-20.94
-19.38
-4.56
21.51
53.09
82.40
102.27
108.80
102.04
85.35
63.23
39.92
18.97
3.13
-5.74
-6.81
-0.74
10.03
22.03
31.82
36.96
36.66
31.41
22.80
13.05
4.38
-1.62
-4.46
-4.61
-2.80
1.23
9.07
23.08
44.12
69.61
92.99
106.02
102.51
81.59
49.01
14.69
-11.53
-23.79
-21.85
-10.03
5.38
18.45
24.97
22.79
11.04
-10.24
-40.10
-76.34
-115.43
-153.67
-188.20
-217.41
-240.31
-255.93
-262.67
-258.73
-242.61
-213.80
-173.43
-124.05
-68.69
-10.65
45.75
94.31
127.34
138.64
127.50
100.42
69.41
47.71
44.09
59.28
87.35
116.71
135.58
138.74
129.68
116.00
103.09
90.89
75.82
54.91
28.79
2.41
-17.29
-25.05
-20.08
-5.85
11.40
24.89
28.68
18.14
-8.60
-49.01
-95.22
-136.48
-160.97
-160.94
-136.77
-98.02
-59.68
-35.00
-28.73
-35.02
-41.77
-37.46
-18.10
10.98
38.47
53.91
53.11
39.36
20.83
5.55
-1.50
0.69
10.19
24.26
41.16
59.63
78.43
96.36
110.62
118.56
118.79
111.67
98.58
81.17
61.39
39.37
14.81
-13.09
-44.61
-79.66
-116.98
-154.19
-188.49
-217.01
-236.80
-244.29
-236.49
-211.51
-170.32
-117.43
-60.00
-6.00
37.93
67.63
82.23
84.10
79.00
74.35
76.57
88.30
106.97
126.13
138.75
140.98
131.21
112.80
91.65
72.94
58.50
46.95
36.11
25.37
16.31
11.15
11.39
16.27
22.94
27.82
28.20
23.50
15.29
6.46
-0.21
-2.99
-1.73
2.09
6.10
8.31
7.75
4.26
-2.03
-10.86
-20.75
-29.94
-35.80
-35.75
-28.38
-14.48
2.91
19.49
31.22
34.76
30.06
19.21
4.79
-10.98
-26.38
-39.99
-50.50
-56.96
-59.07
-57.14
-52.36
-45.81
-38.37
-30.74
-23.05
-14.88
-5.49
5.88
19.27
33.25
44.82
50.32
47.01
34.84
16.86
-1.90
-16.29
-23.07
-21.77
-14.45
-4.37
4.86
11.01
13.16
10.51
2.42
-12.87
-35.97
-64.95
-95.26
-121.17
-137.73
-142.99
-138.68
-128.77
-117.19
-105.72
-93.63
-78.86
-60.48
-39.28
-17.70
1.41
16.04
25.45
30.12
31.30
30.74
30.54
33.04
39.95
51.34
65.17
77.76
85.47
86.56
82.07
75.10
69.12
65.87
64.56
62.46
56.84
46.68
33.37
19.99
9.61
3.92
2.53
3.57
4.91
5.36
5.18
5.58
7.79
12.14
17.92
23.69
28.10
30.47
30.82
29.58
27.14
23.74
19.63
15.32
11.66
9.60
9.74
11.92
15.34
18.83
21.40
22.55
22.28
20.79
18.34
15.16
11.59
8.22
5.65
4.18
3.51
2.71
0.64
-3.55
-9.88
-17.64
-25.60
-32.51
-37.47
-39.99
-39.87
-37.03
-31.52
-23.70
-14.49
-5.32
2.26
7.29
9.79
10.74
11.50
13.03
15.47
18.16
20.17
20.87
20.33
19.14
18.03
17.46
17.38
17.38
17.00
16.18
15.29
15.02
15.94
18.14
21.09
23.89
25.61
25.59
23.62
19.86
14.84
9.33
4.26
0.52
-1.30
-1.24
-0.09
0.83
0.23
-2.55
-7.22
-12.57
-16.97
-19.18
-18.81
-16.48
-13.44
-10.87
-9.30
-8.39
-7.11
-4.30
0.81
8.41
18.28
29.87
42.19
53.39
60.60
60.84
52.58
37.29
19.52
5.14
-1.52
0.01
6.40
12.61
15.00
13.12
9.40
6.90
7.06
8.92
10.37
10.00
8.15
6.43
5.93
6.09
5.01
1.00
-6.03
-14.24
-21.18
-25.39
-27.24
-28.66
-31.66
-36.95
-43.40
-48.81
-51.12
-49.59
-45.11
-39.55
-34.79
-31.89
-30.69
-29.95
-28.04
-23.50
-15.95
-6.19
4.20
13.63
21.41
28.17
35.88
46.12
59.17
72.89
83.23
85.90
78.42
61.32
37.80
12.33
-11.84
-32.55
-48.74
-59.76
-65.36
-65.89
-62.53
-57.16
-51.92
-48.66
-46.70
-45.59
-44.84
-44.25
-44.02
-44.40
-45.53
-47.37
-49.89
-53.02
-56.92
-61.42
-65.86
-69.22
-70.43
-68.74
-63.94
-56.26
-46.20
-34.88
-23.92
-15.31
-10.91
-11.68
-17.16
-25.56
-34.44
-41.53
-45.81
-47.64
-48.53
-50.32
-54.36
-60.93
-69.12
-77.22
-82.84
-84.22
-80.72
-73.18
-63.48
-53.54
-44.48
-36.23
-27.87
-17.63
-4.18
12.90
33.01
54.80
76.81
97.58
115.71
129.88
140.35
148.78
158.02
171.12
189.87
213.81
239.96
263.72
275.45
268.13
240.06
196.47
147.26
102.00
66.01
39.88
21.36
7.87
-1.15
-5.12
-3.59
2.29
9.68
15.06
15.73
11.15
1.81
-10.02
-21.87
-32.04
-39.87
-45.25
-47.89
-47.19
-43.01
-36.11
-27.80
-19.78
-13.57
-10.02
-9.27
-11.11
-14.26
-18.18
-23.05
-29.00
-35.52
-40.96
-43.05
-40.00
-31.89
-21.12
-12.03
-8.99
-14.23
-26.73
-42.75
-57.86
-69.11
-76.14
-80.54
-84.30
-88.06
-90.70
-90.11
-84.73
-74.61
-61.45
-47.69
-35.40
-25.51
-17.74
-11.15
-4.92
1.10
6.33
9.89
11.20
10.38
8.36
6.45
5.84
7.02
9.65
12.68
14.99
16.02
16.00
15.93
16.92
19.62
23.65
27.80
30.43
30.30
27.00
21.11
13.83
6.46
-0.21
-6.13
-11.87
-18.18
-25.52
-33.76
-42.17
-49.79
-55.89
-60.43
-64.06
-67.90
-72.88
-79.31
-86.61
-93.43
-98.05
-98.87
-94.76
-85.31
-71.12
-53.74
-35.42
-18.47
-4.30
7.19
17.70
29.73
45.42
65.30
87.63
108.54
123.30
128.26
122.71
109.75
95.62
87.16
88.61
99.15
112.66
120.37
115.10
94.77
63.31
28.40
-2.22
-23.91
-35.88
-40.21
-39.99
-38.00
-36.13
-34.97
-33.67
-30.25
-22.70
-10.41
4.59
17.65
23.17
17.33
0.45
-22.66
-44.62
-58.60
-60.95
-52.15
-35.94
-17.52
-1.79
7.93
10.49
6.83
-0.57
-8.58
-14.38
-16.19
-13.33
-6.18
3.98
15.23
25.49
32.91
36.21
35.01
29.83
22.13
14.01
7.72
4.77
5.31
7.80
9.64
8.47
3.59
-3.27
-8.74
-9.64
-4.92
3.72
12.63
18.16
18.47
14.10
7.07
-0.67
-8.16
-15.38
-22.07
-27.17
-29.14
-27.12
-21.91
-15.77
-11.19
-9.43
-9.76
-10.20
-9.01
-5.84
-1.69
2.08
5.04
8.13
12.86
20.06
29.02
37.91
44.99
49.77
53.13
56.59
61.12
66.52
71.52
74.56
74.78
72.50
68.90
65.21
62.02
59.16
55.91
51.53
45.63
38.30
29.93
20.94
11.73
2.62
-6.03
-13.85
-20.54
-26.11
-30.90
-35.39
-40.07
-45.30
-51.40
-58.65
-67.23
-76.71
-85.73
-92.21
-94.27
-91.34
-84.67
-76.65
-69.32
-63.12
-56.75
-48.36
-37.10
-23.90
-11.00
-0.44
7.17
12.77
17.74
22.60
26.68
28.73
28.21
25.97
23.73
22.69
22.57
21.80
18.40
11.26
0.66
-11.98
-24.93
-36.95
-47.37
-55.71
-61.26
-63.37
-62.11
-58.96
-56.70
-58.67
-67.37
-83.33
-104.74
-128.13
-149.87
-167.59
-180.57
-188.91
-192.19
-188.41
-174.42
-147.78
-109.06
-63.04
-17.70
18.51
40.08
46.66
42.47
33.75
25.47
19.51
15.17
11.26
7.97
7.28
11.99
23.80
41.93
63.00
82.26
95.89
102.69
104.58
105.37
108.76
116.29
126.26
134.39
135.78
127.48
109.94
86.44
61.27
37.75
17.12
-0.89
-16.81
-30.27
-39.46
-41.88
-36.02
-22.22
-2.64
19.48
41.00
60.13
74.59
82.57
83.73
79.11
70.42
59.16
45.45
29.24
11.23
-6.96
-22.95
-33.71
-37.80
-35.85
-30.40
-24.65
-20.95
-19.98
-20.82
-21.51
-20.31
-16.75
-11.72
-6.78
-3.28
-1.63
-1.41
-1.95
-2.55
-2.74
-2.31
-1.18
0.70
3.11
5.56
7.26
7.36
5.50
1.95
-2.64
-7.54
-12.20
-16.25
-19.26
-20.74
-20.46
-18.79
-16.81
-15.75
-16.18
-17.56
-18.45
-17.52
-14.46
-10.23
-6.32
-3.76
-2.59
-2.05
-1.36
-0.26
1.27
3.60
7.72
14.75
24.72
35.95
45.44
50.61
50.86
48.01
45.00
43.84
44.42
44.64
42.18
36.15
27.77
19.35
12.76
8.34
4.95
0.92
-5.08
-13.71
-25.10
-39.00
-54.60
-70.37
-84.41
-95.33
-103.06
-108.98
-114.99
-122.07
-129.15
-133.29
-131.15
-120.89
-103.49
-82.66
-63.62
-50.91
-46.66
-49.62
-55.45
-58.21
-52.47
-35.36
-7.79
25.72
58.66
85.15
101.84
108.57
107.64
102.15
94.33
84.81
73.34
60.19
47.33
38.14
36.07
43.05
58.34
78.82
100.22
118.62
131.26
136.54
133.93
124.16
109.77
95.20
85.71
85.22
93.97
107.65
118.97
121.19
111.78
93.59
72.83
55.71
45.26
40.54
38.55
37.09
36.35
38.31
44.23
52.57
58.94
58.43
48.68
31.74
13.06
-1.61
-9.46
-11.95
-13.57
-18.92
-29.97
-45.12
-60.26
-71.25
-76.01
-75.22
-71.33
-66.84
-63.06
-59.97
-57.10
-54.58
-53.59
-55.86
-62.47
-72.89
-84.92
-95.46
-101.77
-102.45
-97.81
-89.43
-79.43
-69.73
-61.63
-55.48
-50.76
-46.23
-40.61
-33.21
-24.22
-14.59
-5.44
2.55
9.36
15.39
20.96
25.89
29.62
31.73
32.41
32.39
32.29
31.89
30.01
25.22
17.01
6.56
-3.65
-11.20
-15.33
-17.72
-21.70
-30.47
-45.49
-66.03
-89.94
-114.78
-138.38
-158.39
-171.80
-175.16
-165.90
-143.92
-112.15
-75.39
-38.24
-3.44
28.12
55.91
78.28
92.49
96.72
92.37
84.58
79.85
82.10
89.88
97.07
96.77
85.61
65.82
43.51
24.64
11.57
2.52
-6.17
-16.60
-27.37
-34.30
-33.20
-22.55
-4.53
16.14
34.53
47.41
53.96
55.28
53.18
49.25
44.47
39.23
33.67
28.01
22.78
18.67
16.21
15.37
15.37
14.96
13.00
9.00
3.26
-3.33
-9.67
-14.90
-18.68
-21.21
-23.03
-24.60
-26.03
-26.95
-26.94
-26.16
-25.68
-27.06
-31.53
-39.09
-48.24
-56.46
-61.25
-61.35
-57.16
-50.35
-42.72
-35.43
-28.64
-21.96
-15.07
-8.13
-1.69
3.67
7.75
10.89
13.65
16.45
19.35
22.03
24.04
25.11
25.25
24.80
24.16
23.67
23.46
23.55
23.93
24.59
25.49
26.41
26.86
26.31
24.48
21.71
18.89
16.97
16.41
16.96
17.79
18.00
17.13
15.30
13.13
11.34
10.50
10.96
12.78
15.70
19.09
22.04
23.69
23.77
22.70
21.36
20.54
20.56
21.11
21.60
21.59
21.04
20.19
19.19
18.02
16.49
14.44
11.78
8.29
3.41
-3.65
-13.40
-25.31
-37.65
-47.93
-54.12
-55.66
-53.68
-50.32
-47.53
-46.17
-45.87
-45.63
-44.59
-42.60
-40.04
-37.31
-34.34
-30.48
-24.92
-17.19
-7.66
2.44
11.34
17.45
19.97
19.33
17.16
15.62
16.43
19.93
24.79
28.62
29.10
25.28
18.05
9.72
2.81
-1.05
-1.81
-0.81
0.02
-1.04
-4.91
-11.80
-21.32
-32.82
-45.51
-58.49
-70.74
-81.20
-88.88
-93.01
-93.21
-89.48
-82.05
-71.13
-56.87
-39.83
-21.53
-4.66
7.66
13.32
12.83
9.84
9.82
17.47
33.98
55.92
76.60
89.41
91.26
84.22
74.38
68.49
70.64
80.49
94.12
106.74
115.42
120.13
123.01
126.11
129.35
130.26
125.55
113.66
96.26
77.92
63.74
56.43
54.82
54.46
50.22
38.92
20.94
-0.35
-20.43
-35.79
-45.09
-49.08
-49.63
-48.62
-47.22
-45.82
-44.17
-41.74
-38.12
-33.17
-27.09
-20.33
-13.41
-6.94
-1.59
1.94
3.09
1.69
-1.60
-5.29
-7.66
-7.71
-5.94
-4.38
-5.42
-10.40
-18.59
-27.54
-34.54
-38.20
-39.03
-38.81
-39.04
-39.98
-40.80
-40.73
-40.29
-41.40
-46.17
-55.12
-66.23
-75.78
-80.50
-79.63
-75.37
-71.42
-70.37
-71.89
-72.80
-69.33
-59.69
-45.71
-32.10
-23.82
-22.96
-27.05
-29.94
-25.00
-8.93
16.20
43.62
65.19
75.26
73.31
63.72
53.16
47.10
47.25
51.43
55.35
55.47
50.85
43.27
35.68
30.22
27.08
24.72
21.19
15.32
7.44
-0.98
-8.30
-13.58
-16.85
-18.76
-20.08
-21.21
-22.10
-22.35
-21.27
-18.02
-11.86
-2.69
8.44
19.46
28.02
32.70
33.80
33.17
32.92
34.15
36.18
37.23
35.77
31.55
25.69
19.66
14.21
8.83
2.39
-5.87
-15.46
-24.58
-31.00
-33.06
-30.50
-24.39
-16.71
-9.64
-4.97
-3.70
-6.03
-11.43
-18.85
-27.07
-34.83
-41.15
-45.24
-46.55
-44.78
-40.05
-33.06
-24.95
-17.08
-10.56
-5.92
-3.01
-1.15
0.52
2.69
5.70
9.36
13.10
16.09
17.64
17.47
15.90
13.66
11.46
9.56
7.61
4.89
0.92
-4.11
-9.26
-13.27
-15.25
-15.11
-13.66
-12.18
-11.87
-13.39
-16.65
-20.86
-24.96
-27.93
-29.09
-28.29
-25.94
-22.85
-20.09
-18.51
-18.50
-19.87
-21.87
-23.28
-22.57
-18.00
-8.13
7.43
27.26
48.00
64.99
73.94
72.77
62.69
47.87
33.56
23.79
20.03
21.39
26.01
32.50
40.46
49.85
59.92
68.73
73.74
73.05
66.41
55.35
42.30
29.26
17.08
5.30
-7.00
-20.26
-33.89
-46.38
-55.94
-61.37
-62.73
-61.42
-59.50
-58.74
-59.66
-61.33
-61.76
-59.27
-53.62
-46.31
-39.76
-35.96
-35.47
-37.30
-39.91
-42.00
-43.03
-42.90
-41.27
-37.30
-30.08
-19.40
-5.96
8.62
22.77
35.46
46.05
53.86
58.43
59.74
58.48
56.45
54.65
52.86
49.77
43.97
34.71
22.89
9.86
-4.10
-20.41
-40.84
-65.01
-88.95
-106.32
-111.68
-103.89
-87.12
-68.48
-53.60
-43.43
-34.06
-20.07
1.23
27.61
52.92
70.49
76.48
71.34
58.56
42.30
25.50
9.41
-5.57
-18.93
-29.78
-37.40
-41.86
-44.13
-45.34
-45.99
-45.67
-43.45
-38.84
-32.38
-25.57
-20.09
-17.11
-16.91
-19.12
-23.04
-27.83
-32.33
-35.04
-34.43
-29.53
-20.75
-10.15
-1.10
3.08
0.96
-5.86
-12.98
-15.26
-9.64
3.03
18.54
31.97
40.86
46.78
54.24
67.29
86.00
105.36
117.39
115.63
98.94
72.32
44.39
23.45
13.71
14.07
19.71
25.01
26.37
23.43
18.39
13.99
12.60
14.86
19.65
25.04
29.51
32.63
35.09
37.80
41.09
45.98
54.55
69.89
95.33
132.44
179.38
230.63
278.16
306.66
304.51
268.91
208.34
138.93
75.75
26.33
-9.37
-35.43
-56.19
-73.73
-87.40
-97.92
-106.29
-113.19
-117.83
-117.61
-110.08
-94.14
-72.01
-47.99
-26.02
-8.41
4.24
9.62
4.20
-15.31
-49.51
-94.28
-141.31
-178.46
-195.00
-186.74
-157.41
-115.80
-71.73
-32.07
0.53
26.64
48.05
65.78
79.47
88.12
91.90
90.73
84.89
74.68
60.49
42.61
20.80
-5.04
-33.45
-60.82
-82.52
-94.69
-96.37
-90.42
-82.65
-77.03
-76.85
-81.39
-86.04
-85.06
-74.70
-55.15
-30.34
-5.77
13.36
24.13
26.86
23.47
15.60
4.11
-10.53
-27.99
-48.02
-71.31
-98.01
-125.97
-150.20
-164.12
-161.73
-140.23
-101.80
-49.41
5.94
50.23
74.19
78.17
69.79
58.33
50.05
47.22
50.02
57.72
69.94
85.69
102.20
114.49
117.64
108.58
89.98
69.51
55.17
51.24
56.11
63.50
65.43
56.55
36.80
10.80
-14.28
-31.63
-37.20
-34.09
-25.00
-11.50
5.98
24.69
39.61
45.40
38.33
18.36
-10.62
-41.90
-69.05
-88.39
-95.84
-89.97
-72.33
-47.08
-19.16
7.72
32.33
54.70
73.68
88.38
96.05
93.09
77.48
50.82
18.79
-10.36
-27.67
-28.41
-13.92
8.52
28.24
35.44
24.84
-2.90
-41.88
-83.25
-117.61
-136.75
-136.04
-116.96
-87.05
-57.77
-40.75
-43.50
-66.83
-104.88
-147.59
-179.09
-187.01
-168.22
-130.56
-87.35
-49.37
-21.20
-2.24
10.57
20.00
26.93
30.82
33.50
38.38
49.09
66.82
88.52
108.07
118.86
116.93
103.76
86.16
72.06
67.55
73.09
83.60
92.10
93.67
87.95
77.87
68.90
64.94
65.79
68.17
68.82
67.15
64.25
61.68
60.01
58.71
57.23
54.78
51.02
45.83
39.00
28.73
12.44
-12.15
-45.77
-86.87
-131.85
-172.82
-201.79
-208.00
-188.00
-147.93
-101.05
-60.76
-34.44
-21.95
-18.41
-18.56
-19.27
-20.82
-24.34
-29.92
-36.07
-40.55
-42.00
-40.57
-37.68
-35.30
-35.50
-39.14
-45.46
-52.70
-58.84
-62.66
-63.89
-62.92
-60.22
-56.28
-51.58
-45.21
-36.31
-24.39
-9.85
6.29
22.79
38.62
52.87
64.79
73.78
79.04
80.17
77.19
70.97
63.36
56.71
53.08
53.63
58.60
67.29
78.86
92.09
105.45
117.04
124.82
127.26
124.10
116.74
105.08
90.29
72.97
52.86
29.59
4.01
-20.78
-39.69
-47.39
-41.36
-23.53
-0.62
18.53
26.44
19.95
1.11
-25.15
-51.04
-69.23
-75.51
-70.53
-58.13
-42.54
-26.42
-10.81
3.66
15.98
24.40
27.47
24.84
17.89
9.17
1.14
-5.16
-10.28
-15.62
-22.54
-31.18
-40.19
-47.27
-49.95
-46.99
-39.03
-28.10
-16.85
-7.78
-2.76
-2.38
-5.67
-9.65
-9.85
-2.64
13.64
37.21
63.16
84.93
97.52
99.60
94.10
86.15
79.57
74.47
66.90
51.41
24.49
-12.85
-54.99
-93.08
-118.92
-128.23
-121.55
-103.63
-80.68
-58.18
-38.33
-23.35
-13.19
-6.83
-3.94
-4.87
-10.17
-19.37
-30.81
-42.48
-53.23
-62.32
-70.17
-78.71
-89.31
-101.80
-113.27
-119.52
-117.45
-106.71
-89.00
-66.78
-42.86
-18.86
4.48
27.28
48.13
63.77
68.07
58.98
41.87
25.57
18.90
22.32
32.14
43.82
55.78
71.29
95.36
133.11
183.11
235.90
276.77
293.55
281.05
242.65
188.71
127.17
69.33
23.75
-4.52
-20.95
-31.98
-42.59
-55.53
-72.73
-95.63
-123.91
-156.50
-190.74
-222.26
-244.45
-251.30
-239.84
-211.30
-170.50
-123.09
-74.74
-29.30
11.59
48.60
82.13
110.84
131.25
139.40
133.12
112.66
80.60
41.07
-0.65
-39.74
-72.42
-97.29
-115.54
-130.01
-143.62
-157.01
-167.30
-168.99
-157.19
-130.85
-94.17
-54.58
-18.55
11.77
38.97
67.58
100.24
135.50
168.63
194.49
210.12
215.37
212.05
202.69
190.00
177.29
168.35
166.25
170.88
176.97
175.63
158.86
124.69
79.39
35.05
3.93
-7.43
-0.94
14.33
27.07
29.02
17.74
-4.36
-32.81
-63.62
-94.27
-120.13
-135.86
-137.94
-126.53
-104.74
-77.13
-48.58
-23.84
-6.54
1.83
1.63
-4.37
-11.61
-15.23
-11.99
-1.46
14.03
30.66
44.23
51.42
50.76
43.13
31.33
19.01
9.31
3.86
2.40
3.09
3.17
0.35
-6.12
-15.06
-23.90
-29.90
-31.34
-28.20
-22.01
-15.11
-9.56
-6.37
-5.29
-5.39
-5.76
-6.14
-6.86
-8.51
-11.55
-15.92
-21.09
-26.29
-30.82
-34.31
-36.82
-38.67
-40.25
-41.73
-42.93
-43.50
-43.06
-41.46
-38.91
-35.82
-32.65
-29.63
-26.60
-23.08
-18.47
-12.46
-5.27
2.26
8.87
13.33
15.07
14.47
12.74
11.35
11.23
12.42
14.14
15.32
15.29
14.05
12.13
10.06
8.04
5.78
2.84
-1.09
-5.99
-11.53
-17.30
-22.85
-27.76
-31.57
-33.84
-34.49
-34.03
-33.55
-34.32
-37.19
-42.14
-48.14
-53.58
-56.86
-57.25
-55.25
-52.66
-52.00
-55.62
-64.37
-76.78
-89.06
-96.09
-93.37
-78.67
-52.80
-18.75
19.70
59.12
96.68
129.69
155.64
172.60
180.09
179.31
172.29
160.09
141.57
114.09
76.37
31.78
-10.83
-39.63
-45.65
-27.61
6.61
42.80
66.72
69.54
50.50
15.20
-27.83
-70.65
-107.54
-134.73
-149.19
-148.20
-129.99
-95.44
-49.35
0.01
42.94
71.32
81.38
74.92
58.03
38.69
23.56
15.39
12.91
13.00
13.33
13.66
15.13
18.23
22.09
24.93
24.95
20.75
11.65
-2.46
-20.76
-41.26
-62.13
-80.31
-92.78
-98.39
-98.99
-98.59
-101.14
-108.77
-121.67
-140.62
-165.32
-193.51
-220.41
-239.45
-244.22
-231.33
-202.32
-153.58
-91.55
-28.29
24.89
63.06
87.89
103.82
114.51
122.01
127.32
129.60
128.74
125.39
120.50
114.55
107.29
98.64
89.11
79.60
69.84
59.86
50.03
40.82
32.41
24.64
17.37
10.99
6.42
4.18
5.18
9.97
17.39
25.13
29.52
27.18
17.17
1.88
-14.02
-25.09
-27.53
-20.75
-7.35
8.22
22.11
32.48
39.54
44.23
47.21
48.29
46.85
42.55
35.69
27.50
19.77
13.89
10.17
7.62
4.34
-1.49
-10.71
-22.74
-35.43
-45.32
-49.25
-45.55
-34.50
-18.00
1.25
20.14
35.28
43.21
41.14
27.87
4.77
-24.15
-53.28
-76.51
-88.85
-88.59
-77.62
-59.91
-39.17
-17.50
3.82
23.31
39.06
49.26
53.19
51.92
47.95
44.17
42.63
43.50
45.50
46.94
46.23
42.44
35.59
26.81
18.17
12.49
12.52
19.06
31.50
47.41
63.11
74.73
79.58
75.34
63.44
46.50
26.87
6.24
-14.44
-34.21
-51.57
-64.35
-70.36
-68.16
-58.58
-45.15
-32.41
-24.68
-24.53
-31.59
-42.53
-52.37
-56.38
-52.26
-40.78
-24.91
-8.45
5.46
15.17
20.39
21.59
19.51
14.76
7.87
-0.52
-9.79
-19.22
-27.77
-33.94
-36.21
-33.72
-27.04
-18.25
-10.15
-4.99
-3.60
-4.91
-6.39
-5.56
-1.50
4.45
9.45
10.68
6.95
-0.77
-9.96
-17.94
-23.18
-25.86
-27.26
-28.72
-30.73
-32.65
-33.22
-31.30
-26.52
-19.46
-11.38
-3.59
3.10
8.41
12.50
15.58
17.73
18.90
19.05
18.35
17.26
16.38
16.26
17.22
19.32
22.39
26.04
29.68
32.48
33.51
32.18
28.54
23.63
19.06
16.36
16.13
17.61
18.94
18.16
14.25
7.74
0.55
-4.99
-7.30
-6.38
-3.90
-2.34
-3.80
-9.01
-17.03
-25.76
-32.87
-36.70
-36.64
-32.88
-26.23
-17.93
-9.79
-4.18
-3.38
-8.15
-16.22
-22.12
-19.12
-2.87
25.32
57.73
82.76
90.08
75.57
43.29
3.43
-32.84
-58.23
-71.26
-74.49
-70.70
-59.84
-39.10
-5.82
38.99
89.23
135.24
167.40
179.66
171.43
147.09
113.43
77.13
43.19
14.94
-5.26
-15.69
-15.59
-5.74
10.70
28.07
39.51
39.30
25.59
1.96
-23.48
-41.46
-45.60
-35.62
-17.45
0.22
10.58
11.59
5.69
-3.17
-12.48
-21.59
-30.45
-37.98
-41.50
-38.13
-26.95
-10.33
6.38
15.64
12.81
-1.23
-20.42
-37.70
-49.59
-57.32
-64.25
-72.78
-81.78
-86.81
-82.32
-64.29
-32.49
8.61
50.90
85.97
108.18
114.47
107.79
95.14
83.76
77.60
76.02
73.50
65.69
51.39
33.42
16.84
5.50
-0.46
-4.36
-10.54
-21.54
-36.73
-53.21
-67.44
-76.63
-79.61
-76.78
-69.64
-60.24
-50.75
-43.10
-39.80
-42.28
-50.99
-64.97
-81.35
-95.78
-103.59
-101.63
-89.58
-70.54
-49.82
-32.94
-23.25
-20.64
-22.07
-23.67
-22.94
-19.99
-17.03
-16.50
-19.41
-24.60
-29.21
-30.04
-25.08
-14.24
0.88
17.82
34.20
48.13
58.30
64.15
65.87
64.34
60.93
56.84
52.71
48.49
43.81
38.52
32.95
27.63
22.73
17.87
12.25
5.32
-2.58
-10.19
-15.67
-17.63
-15.86
-11.51
-6.53
-2.74
-1.07
-1.35
-2.74
-4.35
-5.65
-6.59
-7.27
-7.69
-7.73
-7.26
-6.47
-5.78
-5.70
-6.39
-7.54
-8.45
-8.44
-7.26
-5.29
-3.22
-1.76
-1.19
-1.27
-1.39
-0.84
0.85
3.82
7.77
12.19
16.45
20.09
22.89
24.83
25.96
26.24
25.49
23.66
20.94
17.84
15.06
13.07
11.86
10.94
9.67
7.62
4.79
1.50
-1.98
-5.66
-9.99
-15.76
-23.58
-33.47
-44.47
-54.75
-62.15
-65.05
-63.06
-57.33
-50.20
-44.44
-42.29
-44.80
-51.62
-60.91
-69.71
-74.40
-71.86
-61.10
-44.51
-28.32
-20.52
-27.45
-50.12
-82.71
-114.02
-131.79
-127.65
-100.47
-56.31
-5.49
41.39
76.69
96.63
100.76
90.77
69.91
42.82
15.19
-7.13
-20.00
-22.28
-16.49
-7.50
0.04
3.88
4.85
5.20
6.25
7.10
6.06
2.66
-0.94
-0.27
8.85
27.44
51.99
75.70
91.64
97.37
95.20
90.32
87.43
88.25
91.88
96.75
102.50
110.16
122.58
140.83
162.66
182.91
195.74
197.84
189.78
174.89
156.67
140.21
130.18
131.46
148.32
182.51
231.39
287.47
339.94
367.16
354.65
299.77
214.81
120.35
33.41
-39.27
-98.96
-145.57
-180.70
-200.23
-200.08
-179.39
-142.76
-98.61
-58.37
-31.67
-25.60
-43.63
-78.70
-122.29
-164.71
-198.16
-219.74
-230.47
-234.81
-238.93
-247.74
-258.33
-264.38
-257.13
-230.49
-185.36
-129.58
-73.94
-27.52
5.15
25.22
35.94
41.21
43.54
43.55
41.29
37.30
33.20
30.82
31.79
35.49
39.93
41.33
35.83
21.34
-1.05
-26.97
-49.78
-62.26
-59.53
-40.57
-8.10
27.72
54.51
63.49
53.48
31.20
7.34
-9.88
-18.80
-23.29
-28.92
-37.84
-46.57
-48.09
-37.20
-15.36
8.02
21.01
16.25
-4.66
-31.36
-50.39
-52.53
-37.20
-9.59
19.00
38.77
46.34
44.44
38.53
32.73
28.21
24.21
20.11
15.09
8.80
0.53
-11.52
-29.29
-53.27
-81.22
-108.42
-126.50
-129.76
-117.01
-91.98
-61.37
-31.60
-6.30
14.29
31.77
47.81
62.27
73.88
80.90
82.22
77.69
67.88
54.34
38.16
21.30
6.59
-2.17
-1.58
9.29
27.33
45.76
56.76
55.03
40.83
19.76
0.43
-9.87
-8.19
3.39
19.60
34.92
46.15
52.96
56.77
59.61
62.69
65.79
67.54
66.55
62.83
58.20
55.96
58.89
67.12
77.14
82.69
77.48
57.40
23.13
-19.82
-62.75
-97.06
-117.06
-121.29
-111.89
-93.04
-70.28
-48.49
-30.94
-18.98
-12.81
-11.83
-15.21
-21.89
-30.36
-40.58
-53.55
-71.11
-95.08
-126.64
-165.04
-206.88
-246.23
-267.95
-260.16
-220.89
-161.06
-98.23
-46.70
-11.90
8.77
21.29
30.63
37.11
38.30
32.23
19.98
5.73
-5.45
-9.96
-6.86
2.19
12.97
21.08
23.70
21.88
19.18
20.01
28.08
45.52
72.01
103.68
133.69
154.09
158.35
143.64
112.06
70.26
27.57
-7.17
-28.54
-35.64
-31.36
-20.59
-8.57
-0.16
0.30
-10.05
-31.26
-59.50
-87.28
-105.50
-107.26
-91.10
-61.47
-26.41
6.67
33.88
55.10
71.89
84.75
92.03
91.21
81.40
65.02
47.49
34.60
29.84
33.01
40.98
49.79
56.46
59.92
60.72
60.28
59.75
59.26
57.37
51.56
39.49
20.59
-3.16
-27.94
-49.79
-66.38
-77.71
-85.33
-90.76
-94.30
-95.07
-92.18
-85.80
-77.31
-68.57
-60.93
-54.85
-50.11
-46.29
-42.92
-39.10
-33.16
-23.05
-7.56
12.56
34.34
53.72
67.36
74.43
77.03
79.16
84.82
96.17
112.76
131.97
150.10
163.42
169.35
167.00
157.08
141.39
122.10
100.91
78.61
55.46
31.97
9.78
-8.28
-18.95
-19.91
-11.16
4.60
22.94
39.46
51.74
59.78
64.78
67.43
66.81
60.63
46.93
25.72
-0.41
-27.20
-50.52
-68.41
-81.55
-92.12
-101.76
-109.88
-113.78
-110.51
-99.04
-81.29
-61.82
-46.19
-38.59
-40.15
-48.96
-61.60
-74.84
-86.63
-95.49
-99.75
-97.37
-86.89
-69.16
-48.41
-31.56
-24.95
-30.56
-43.86
-55.39
-55.29
-38.01
-4.63
38.08
80.98
116.63
139.42
148.07
145.83
137.80
127.67
116.73
104.77
91.26
75.38
56.96
36.73
15.70
-5.80
-28.33
-53.09
-78.86
-103.87
-125.80
-142.67
-153.82
-160.39
-164.45
-167.14
-166.86
-159.29
-139.93
-106.86
-62.23
-11.63
38.16
81.18
112.98
130.35
131.29
115.73
87.32
53.81
24.97
8.21
4.73
8.85
11.67
6.72
-6.46
-22.35
-33.45
-35.45
-29.89
-23.53
-24.55
-37.81
-62.19
-91.56
-117.52
-132.63
-132.31
-115.27
-83.48
-41.80
2.98
43.66
73.93
89.82
90.75
78.58
58.42
36.95
19.61
7.42
-1.69
-10.06
-19.04
-28.80
-39.09
-48.96
-57.09
-62.07
-62.66
-58.08
-48.51
-35.11
-19.83
-4.79
8.27
17.79
22.24
20.53
12.76
0.51
-13.35
-25.55
-33.53
-36.14
-34.14
-29.75
-25.44
-22.64
-21.36
-20.57
-19.16
-16.70
-13.41
-9.88
-6.31
-1.78
5.80
18.85
38.84
65.30
95.56
125.77
151.93
171.45
183.94
190.88
194.26
195.05
192.34
183.63
166.17
137.88
98.60
51.00
0.60
-44.82
-76.46
-86.69
-71.70
-33.06
20.88
76.81
120.68
142.04
137.32
110.51
70.60
25.14
-17.59
-50.99
-70.76
-74.10
-60.06
-30.68
7.62
45.23
71.30
78.26
64.52
35.52
1.57
-26.63
-42.96
-48.04
-47.97
-51.29
-63.51
-84.09
-106.42
-121.40
-122.55
-109.58
-88.29
-67.75
-55.61
-54.46
-61.66
-71.56
-78.94
-81.64
-81.13
-80.75
-84.04
-92.85
-106.11
-120.21
-130.27
-131.73
-122.02
-100.92
-69.68
-31.18
9.98
47.87
75.87
88.21
82.20
60.06
27.52
-4.54
-24.20
-25.09
-10.52
8.39
19.59
17.42
5.97
-5.59
-7.81
4.58
30.61
64.27
97.64
121.00
127.63
116.05
89.91
56.47
22.90
-6.43
-30.41
-50.18
-67.66
-84.50
-101.38
-117.74
-131.18
-137.90
-133.75
-115.25
-81.20
-33.67
22.31
79.75
129.73
164.76
181.44
181.49
170.81
156.98
146.50
143.09
147.12
156.34
167.56
177.49
182.99
181.56
171.48
152.42
125.79
94.05
59.85
25.26
-8.24
-39.70
-68.56
-94.51
-117.78
-139.08
-159.45
-179.43
-198.43
-214.70
-225.90
-229.88
-225.18
-211.16
-188.14
-157.66
-122.70
-87.43
-56.41
-33.39
-20.21
-16.59
-20.62
-29.59
-40.60
-50.53
-55.95
-53.43
-40.36
-16.44
15.66
50.57
81.69
103.17
111.24
104.82
85.32
56.27
22.68
-9.74
-35.73
-51.87
-57.51
-54.83
-47.78
-40.24
-34.57
-31.27
-29.62
-28.77
-28.40
-28.43
-28.13
-25.64
-18.46
-4.92
14.34
35.79
54.06
64.02
62.95
51.51
33.25
13.04
-4.85
-17.79
-25.05
-27.28
-26.00
-22.94
-19.71
-17.28
-15.55
-13.15
-7.92
2.48
19.57
43.49
72.80
104.63
135.13
160.27
176.72
182.97
180.18
172.21
164.56
162.15
167.06
177.31
187.51
191.16
183.47
163.24
132.84
96.91
60.31
26.58
-2.29
-25.76
-44.08
-57.89
-68.04
-75.58
-81.42
-86.27
-90.65
-94.78
-98.97
-103.23
-107.15
-109.54
-108.76
-103.36
-93.06
-79.07
-63.29
-47.55
-32.72
-18.63
-4.70
9.44
23.75
37.66
47.70
50.84
45.69
34.04
20.34
9.66
5.16
6.58
10.47
11.82
8.55
0.44
-9.96
-18.73
-22.27
-18.54
-7.35
9.91
30.66
50.91
67.21
77.53
80.90
76.51
62.96
38.82
3.80
-38.92
-84.15
-124.72
-154.28
-170.66
-176.89
-179.01
-182.62
-186.01
-186.01
-178.20
-160.14
-133.59
-103.41
-74.07
-47.93
-21.70
7.97
41.27
75.78
108.06
135.85
159.18
177.73
191.89
201.69
206.10
203.93
195.17
180.82
162.36
141.45
119.89
100.62
87.45
83.44
88.96
100.70
111.91
114.74
103.56
77.26
39.71
-2.69
-43.99
-81.08
-113.59
-142.80
-170.00
-195.59
-218.82
-237.57
-249.26
-251.50
-243.52
-227.00
-205.83
-184.28
-164.66
-145.88
-123.92
-95.16
-59.17
-20.14
15.16
41.88
60.45
76.56
96.83
123.69
152.87
175.63
183.21
171.49
142.11
100.50
53.02
5.03
-38.75
-73.22
-92.66
-93.42
-76.73
-49.81
-24.04
-10.39
-15.12
-37.87
-72.59
-107.16
-129.09
-129.66
-107.69
-69.34
-23.33
23.40
67.22
106.62
140.75
168.25
187.70
198.20
200.62
197.77
193.35
190.48
190.73
193.17
195.48
194.98
189.64
179.19
165.29
150.80
138.60
130.19
125.93
125.08
126.13
127.03
126.22
122.91
116.47
109.63
103.09
96.69
89.74
81.26
69.51
53.60
33.80
11.20
-12.81
-37.55
-62.53
-87.30
-111.53
-136.81
-164.03
-193.34
-224.71
-258.43
-295.20
-334.46
-373.11
-405.76
-429.30
-440.85
-439.49
-427.42
-409.90
-393.79
-384.95
-386.52
-398.69
-422.94
-456.70
-493.07
-522.32
-535.19
-526.26
-496.06
-450.66
-376.20
-275.28
-161.82
-54.47
33.04
95.82
135.44
155.70
161.31
157.66
146.46
131.04
115.51
103.12
93.59
86.68
81.64
78.86
80.34
85.94
97.41
117.75
149.03
190.27
236.79
281.02
315.84
338.11
342.10
330.59
313.61
302.18
302.64
313.81
328.10
336.37
332.61
315.20
288.41
261.32
242.29
236.19
243.73
262.09
286.69
311.83
331.17
329.06
297.00
236.56
160.19
84.50
21.20
-26.79
-63.61
-93.07
-119.95
-143.10
-158.89
-163.95
-157.04
-139.38
-113.68
-83.89
-55.30
-33.61
-21.83
-21.33
-31.29
-48.56
-69.35
-87.04
-95.66
-92.97
-82.80
-69.76
-58.85
-54.90
-61.55
-80.92
-111.99
-150.41
-189.12
-216.00
-220.01
-198.42
-158.88
-114.57
-76.67
-49.47
-31.22
-17.38
-4.90
7.29
17.44
23.23
23.96
21.18
17.86
16.71
18.94
24.42
31.51
37.46
39.34
35.70
27.43
17.29
7.94
0.23
-6.94
-16.32
-30.37
-49.12
-69.35
-86.06
-94.75
-93.24
-82.87
-65.22
-43.32
-21.24
-3.72
5.22
3.39
-8.12
-24.87
-40.07
-46.89
-43.04
-31.47
-19.93
-15.06
-18.20
-23.87
-22.56
-5.49
32.35
88.20
152.97
215.47
267.41
305.38
330.40
344.64
342.56
320.08
275.97
214.05
142.37
70.38
5.48
-47.09
-88.00
-118.55
-138.64
-148.59
-149.84
-145.23
-136.61
-126.73
-117.92
-111.85
-109.10
-109.10
-111.50
-115.76
-120.65
-124.09
-124.35
-120.39
-112.36
-100.80
-85.89
-68.01
-48.15
-28.60
-12.55
-3.00
-0.70
-3.51
-6.25
-3.00
9.52
30.47
55.66
79.79
97.82
106.34
103.87
91.21
71.45
49.27
29.57
15.88
9.54
9.16
12.14
16.19
19.94
22.78
23.45
21.05
16.42
13.21
15.98
28.00
48.64
72.22
89.85
93.33
79.55
50.41
16.42
-10.39
-22.60
-20.27
-9.47
2.03
9.02
11.00
10.75
11.96
15.64
20.02
21.92
18.62
9.11
-5.86
-24.38
-44.48
-64.11
-81.20
-92.67
-94.39
-82.86
-57.43
-21.68
17.26
51.36
75.21
86.98
88.33
83.44
76.02
67.53
57.52
45.25
31.10
17.02
5.49
-1.36
-2.43
2.35
12.00
24.76
38.08
48.33
51.81
46.07
30.61
6.26
-26.31
-66.89
-114.46
-165.08
-211.37
-243.70
-253.71
-238.33
-201.97
-155.13
-109.60
-72.94
-45.50
-22.81
0.71
28.03
57.71
84.94
104.72
114.34
114.69
109.61
101.73
92.12
80.69
69.20
61.14
60.43
68.00
78.60
90.20
100.74
108.24
111.91
110.55
102.98
89.06
68.55
42.10
12.11
-20.17
-52.79
-82.93
-107.68
-125.25
-134.81
-137.88
-135.94
-119.97
-85.91
-35.14
25.82
87.74
137.22
170.41
184.74
179.04
154.20
112.22
57.57
-2.95
-61.98
-113.74
-154.37
-183.63
-202.60
-212.40
-215.40
-213.62
-209.15
-204.81
-204.44
-211.48
-228.70
-255.37
-286.14
-312.78
-325.34
-316.07
-282.47
-228.93
-164.17
-98.40
-39.11
10.95
52.61
89.34
124.70
160.42
195.44
227.74
255.54
278.35
296.26
303.13
291.26
254.33
192.63
113.73
30.79
-42.23
-94.97
-123.55
-130.86
-122.95
-108.02
-87.37
-60.67
-28.25
6.56
37.62
57.87
62.65
53.57
38.70
30.37
38.26
67.83
116.75
175.01
227.50
259.83
264.59
243.76
207.32
167.45
133.81
110.07
93.71
78.20
56.85
26.57
-11.14
-51.45
-88.80
-118.22
-136.90
-142.90
-136.63
-123.09
-109.92
-102.65
-101.34
-101.25
-96.72
-84.19
-63.86
-38.93
-13.51
9.45
29.11
44.62
52.95
52.21
43.88
32.29
21.46
12.09
1.44
-13.00
-32.34
-54.17
-72.91
-81.88
-76.95
-58.93
-33.07
-7.98
8.05
10.53
0.81
-15.23
-30.40
-40.51
-45.91
-49.89
-55.18
-61.40
-65.31
-63.04
-52.69
-34.71
-11.65
13.41
38.52
63.84
91.31
122.94
158.72
195.73
229.63
255.83
271.53
276.88
274.73
269.26
263.67
258.86
247.41
225.02
193.29
159.77
133.17
117.94
112.90
113.55
115.19
116.22
116.10
114.67
111.25
104.38
92.49
74.56
50.39
20.00
-14.67
-51.26
-87.58
-122.01
-153.41
-180.95
-203.70
-220.92
-232.51
-239.25
-242.80
-245.73
-251.33
-263.14
-283.73
-313.26
-348.77
-384.50
-413.29
-428.78
-427.25
-408.59
-375.89
-333.83
-287.06
-239.31
-193.18
-150.75
-113.77
-83.23
-58.78
-38.33
-18.28
5.40
35.49
72.16
112.57
151.48
183.31
203.85
211.63
208.47
199.30
191.08
190.80
202.86
226.87
257.10
284.21
298.75
295.21
274.14
241.59
205.91
173.64
147.00
123.94
100.20
72.39
39.82
4.61
-29.17
-56.83
-73.88
-76.94
-64.36
-36.97
1.80
46.26
89.51
124.97
148.25
157.86
155.24
143.81
127.20
107.85
86.32
62.05
35.09
7.30
-17.83
-36.88
-48.44
-54.57
-60.07
-70.11
-87.91
-113.61
-145.49
-182.05
-222.93
-268.03
-315.35
-359.67
-393.06
-408.15
-401.71
-376.75
-341.35
-305.06
-274.95
-253.68
-239.39
-228.05
-215.87
-200.51
-181.30
-158.09
-130.56
-98.31
-61.58
-21.70
18.88
57.03
90.46
118.47
142.12
163.42
183.94
203.78
221.36
234.16
239.91
237.65
228.12
213.28
195.46
176.57
157.88
140.26
124.67
112.28
104.36
101.31
101.88
103.08
100.82
91.65
73.93
47.96
14.94
-24.34
-69.81
-120.78
-173.71
-221.03
-252.37
-258.48
-235.76
-188.79
-129.39
-72.25
-29.60
-7.45
-4.73
-15.27
-30.67
-42.82
-45.32
-34.59
-10.87
21.12
52.67
73.29
74.62
54.23
17.31
-25.07
-60.83
-82.01
-87.65
-82.68
-73.95
-65.66
-57.23
-44.28
-21.58
13.32
57.92
105.06
145.39
170.75
176.90
164.84
140.19
111.46
87.49
75.11
77.71
95.37
125.77
164.75
206.75
245.23
274.10
288.45
285.80
266.78
235.72
200.18
168.83
148.93
143.48
150.63
163.22
170.66
162.22
131.22
77.61
7.87
-67.05
-134.44
-180.89
-195.56
-173.81
-119.62
-44.90
33.83
100.58
145.09
157.71
138.40
98.10
53.89
19.18
-1.95
-12.80
-18.64
-23.01
-25.96
-27.50
-27.51
-26.31
-24.16
-20.43
-13.79
-3.35
10.07
22.99
30.93
29.83
16.99
-8.50
-45.06
-88.68
-133.55
-173.52
-203.64
-220.97
-225.68
-221.43
-214.32
-209.95
-210.48
-213.10
-210.51
-193.58
-155.15
-93.95
-16.56
63.46
129.91
169.45
176.18
153.01
109.53
57.59
6.68
-38.59
-78.05
-113.50
-145.68
-172.99
-191.54
-197.49
-189.07
-167.56
-137.24
-104.35
-75.63
-56.63
-50.55
-57.47
-74.29
-95.59
-114.90
-126.17
-125.35
-111.47
-87.22
-58.36
-32.22
-15.31
-10.96
-18.07
-31.53
-44.29
-50.00
-45.17
-29.47
-4.82
25.95
59.93
94.30
126.00
151.87
169.02
175.38
170.69
157.52
140.98
127.66
123.59
131.56
149.34
169.61
182.19
178.07
153.95
113.56
66.13
22.04
-11.25
-31.56
-41.39
-45.16
-46.23
-44.59
-37.70
-22.78
0.62
29.90
60.51
87.83
108.90
118.89
115.18
98.37
72.42
42.58
12.91
-14.58
-39.18
-60.44
-78.21
-91.93
-101.23
-106.52
-108.85
-109.44
-108.92
-107.56
-103.64
-95.03
-79.75
-57.68
-31.68
-7.49
8.34
11.50
2.21
-14.51
-31.26
-41.22
-41.03
-31.62
-16.77
-1.02
12.58
23.43
32.63
41.30
49.67
56.94
61.88
63.78
62.92
60.42
57.73
55.77
54.52
53.04
50.19
44.96
36.93
26.41
14.42
2.40
-8.25
-16.57
-22.26
-25.43
-26.83
-27.67
-29.16
-32.08
-36.44
-41.56
-46.26
-49.20
-48.84
-44.14
-35.22
-23.55
-12.01
-4.16
-3.00
-9.81
-25.15
-46.60
-69.64
-89.51
-102.77
-108.16
-105.93
-96.62
-80.49
-58.29
-31.46
-2.22
25.66
49.25
67.04
78.76
84.65
84.92
79.93
71.01
60.60
51.88
47.85
49.85
56.75
65.46
72.20
74.49
72.12
66.89
61.29
57.17
54.94
53.88
53.20
52.79
53.57
56.30
60.64
65.00
67.53
67.29
64.77
61.63
59.56
59.38
60.01
59.13
54.56
45.71
34.07
22.59
14.57
10.27
9.74
12.10
15.56
17.98
17.53
13.47
6.31
-2.44
-10.98
-17.63
-21.78
-23.85
-24.60
-25.23
-26.39
-28.25
-30.80
-34.05
-37.74
-41.38
-44.23
-45.46
-44.57
-41.59
-37.23
-31.44
-24.66
-17.50
-10.49
-3.95
1.95
7.35
12.56
17.77
22.78
26.83
28.13
24.96
16.52
3.54
-11.83
-26.65
-38.04
