1594907019.00
64.000000
-0.00
-0.00
-0.00
-0.00
-0.00
-0.00
-0.00
-0.00
-0.00
-0.00
0.00
0.01
0.01
-0.00
-0.03
-0.05
-0.05
0.00
0.13
0.36
0.66
1.01
1.37
1.72
2.06
2.40
2.79
3.24
3.80
4.42
5.06
5.66
6.20
6.68
7.15
7.68
8.31
9.14
10.09
11.04
11.88
12.56
13.14
13.76
14.65
15.96
17.91
20.32
22.90
25.38
27.58
29.57
31.68
34.32
37.81
42.54
48.15
54.11
59.84
64.97
69.58
74.14
79.34
85.71
93.78
103.03
112.67
121.76
129.74
136.62
143.04
150.33
157.22
166.00
177.26
191.09
206.25
219.81
227.39
224.38
207.41
175.65
131.50
78.80
21.85
-36.17
-93.77
-150.72
-207.11
-262.58
-316.20
-366.43
-412.36
-453.37
-489.04
-518.61
-540.76
-553.67
-555.39
-544.58
-520.84
-485.39
-440.52
-389.20
-334.38
-278.46
-223.02
-168.95
-116.82
-67.15
-20.91
20.69
56.43
85.50
107.79
124.00
135.40
143.35
148.98
152.79
154.74
154.49
151.62
145.87
137.17
125.88
113.01
100.41
90.63
86.29
89.10
98.97
113.77
129.99
143.92
152.95
156.21
154.45
149.22
141.99
133.60
124.23
113.87
102.74
91.50
81.22
72.51
65.45
59.46
53.53
46.74
38.72
29.91
21.41
14.51
10.09
8.45
9.25
11.81
15.34
19.08
22.26
24.07
23.76
20.96
15.99
9.92
4.12
-0.19
-2.62
-3.62
-4.22
-5.47
-8.03
-11.85
-16.33
-20.57
-23.70
-25.19
-25.03
-23.82
-22.51
-22.02
-22.84
-24.82
-27.29
-29.58
-31.29
-32.36
-32.77
-32.23
-30.34
-26.93
-22.36
-17.50
-13.28
-10.11
-7.68
-5.31
-2.62
0.19
2.38
3.47
3.75
4.30
6.36
10.38
15.59
20.33
22.95
22.71
20.08
16.34
12.89
10.62
9.63
9.42
9.34
8.89
7.94
6.64
5.33
4.37
3.92
3.92
4.10
4.17
4.07
4.00
4.36
5.42
7.06
8.72
9.69
9.47
8.09
6.04
4.02
2.52
1.58
0.90
0.10
-0.95
-2.08
-2.92
-3.11
-2.52
-1.26
0.31
1.73
2.51
2.21
0.55
-2.38
-6.02
-9.49
-11.74
-11.98
-10.02
-6.34
-2.04
1.62
3.61
3.45
1.34
-1.90
-5.31
-8.17
-10.39
-12.68
-16.26
-22.24
-31.03
-41.89
-52.75
-60.85
-63.52
-59.01
-47.04
-29.09
-8.14
12.07
27.73
36.81
39.39
37.68
34.97
34.17
36.65
42.08
49.10
55.76
60.37
61.38
57.28
46.88
30.08
8.14
-15.54
-37.27
-54.13
-64.85
-69.67
-69.40
-64.63
-54.81
-39.86
-21.02
-1.24
15.66
26.63
30.62
28.87
24.16
19.52
16.89
16.61
17.58
17.93
15.87
10.21
0.70
-11.64
-24.48
-34.44
-37.58
-30.46
-11.59
17.12
49.86
77.97
92.77
89.02
67.17
33.41
-3.07
-33.66
-53.63
-62.35
-63.38
-61.43
-59.79
-59.58
-60.38
-61.13
-60.27
-55.87
-46.34
-29.91
-6.72
20.69
48.47
73.06
92.40
106.07
113.74
114.04
104.53
83.42
52.14
16.45
-15.40
-36.31
-43.69
-40.71
-33.55
-27.88
-26.17
-27.14
-27.55
-25.08
-19.18
-10.34
1.28
16.42
35.47
56.89
74.75
82.36
75.79
56.79
32.17
10.15
-3.68
-8.48
-7.33
-4.28
-1.45
1.01
4.38
9.42
15.23
19.82
21.27
18.92
13.24
6.63
0.78
-3.19
-5.51
-7.37
-10.12
-14.37
-19.65
-24.66
-27.92
-29.48
-29.78
-30.16
-32.25
-37.03
-44.33
-52.82
-60.85
-62.86
-60.54
-56.56
-53.71
-53.88
-57.32
-62.39
-66.45
-66.95
-62.82
-55.70
-48.09
-43.03
-42.94
-48.74
-59.35
-71.61
-80.78
-81.56
-70.27
-45.17
-8.20
34.50
73.62
99.32
104.76
89.26
59.23
25.95
1.28
-7.52
-0.60
15.74
33.16
45.68
51.72
52.94
51.04
45.80
34.68
15.46
-11.24
-40.45
-65.09
-79.25
-81.13
-73.69
-62.75
-54.30
-52.30
-57.77
-68.98
-82.08
-91.79
-92.69
-80.94
-56.01
-21.28
16.87
51.18
76.58
91.74
99.11
102.83
106.29
110.32
113.51
113.64
109.64
102.53
95.20
91.01
92.15
98.36
106.49
111.44
108.05
93.16
66.87
32.35
-5.66
-42.79
-76.03
-103.68
-124.08
-135.56
-137.16
-129.83
-116.82
-102.36
-89.14
-74.79
-54.24
-21.21
27.20
86.85
146.69
192.98
215.68
212.97
191.53
162.42
136.14
118.91
112.35
115.50
126.88
144.87
166.70
187.60
201.35
203.12
191.69
170.11
143.86
117.11
90.04
58.52
16.95
-37.15
-99.27
-157.71
-197.35
-205.99
-180.13
-127.43
-64.46
-10.92
17.61
14.87
-14.81
-58.87
-101.38
-128.24
-130.83
-107.64
-63.83
-9.23
44.36
86.36
110.40
115.81
107.13
91.67
76.20
64.09
54.76
44.94
31.07
11.25
-14.36
-44.32
-77.22
-112.26
-148.64
-184.14
-214.12
-231.91
-231.15
-208.93
-167.59
-114.30
-58.41
-8.13
31.68
59.33
74.37
75.58
60.73
28.58
-18.13
-70.92
-116.64
-141.49
-136.32
-100.50
-42.14
24.68
84.57
124.79
137.42
120.22
76.64
15.43
-50.28
-105.13
-135.26
-132.06
-95.36
-33.78
37.82
102.50
145.49
157.27
134.90
82.09
8.67
-70.58
-138.33
-178.57
-181.58
-147.80
-88.77
-23.65
26.98
47.70
32.68
-13.98
-81.11
-154.84
-222.61
-274.93
-305.71
-311.79
-292.64
-250.89
-192.44
-125.21
-57.07
7.30
67.72
126.88
186.84
246.20
298.83
336.04
350.67
340.47
309.01
263.28
209.82
152.59
94.10
37.75
-10.67
-44.39
-59.52
-57.57
-44.88
-30.32
-21.15
-20.29
-27.09
-39.90
-58.28
-83.67
-115.66
-148.39
-172.26
-177.10
-156.16
-110.30
-49.06
12.01
54.39
64.55
40.14
-13.01
-82.59
-151.43
-202.12
-221.45
-203.75
-155.12
-88.41
-16.59
44.69
80.52
82.42
49.45
-11.95
-89.21
-169.38
-237.07
-273.97
-271.86
-235.74
-179.37
-121.09
-77.69
-36.80
8.23
32.26
33.95
26.95
14.59
-3.08
-25.57
-49.03
-66.09
-71.64
-60.96
-27.99
25.04
88.17
149.99
200.33
232.37
243.50
232.42
202.32
163.51
125.63
95.92
80.66
83.40
103.69
136.76
173.00
202.61
220.49
223.87
212.39
188.62
156.14
118.17
77.57
36.94
0.62
-24.47
-32.58
-21.74
5.19
40.52
73.50
93.36
92.13
67.16
22.15
-34.10
-89.57
-131.27
-148.62
-136.48
-96.55
-36.92
30.30
92.15
137.80
160.12
156.20
127.12
77.48
15.98
-45.33
-93.46
-117.95
-113.73
-82.91
-34.73
16.69
55.07
67.51
47.53
-4.16
-80.66
-169.39
-254.58
-321.10
-357.40
-359.18
-327.25
-267.02
-188.46
-106.52
-37.69
3.60
8.59
-22.08
-79.63
-145.89
-199.03
-221.89
-208.89
-164.17
-96.54
-14.63
83.49
187.05
277.07
335.97
363.10
361.67
335.37
290.20
229.57
162.22
96.28
41.11
5.86
-3.69
11.06
42.70
80.07
110.84
125.41
117.34
87.12
41.46
-9.41
-55.05
-85.42
-92.25
-71.90
-27.04
31.43
88.84
131.05
147.99
134.86
93.34
30.63
-42.05
-111.35
-164.93
-192.51
-187.56
-149.26
-83.74
-2.87
77.48
141.21
174.95
170.03
125.48
49.57
-41.54
-127.96
-190.79
-217.83
-204.93
-157.29
-88.28
-16.07
41.09
68.97
60.47
17.71
-49.03
-121.68
-180.07
-208.79
-201.83
-163.52
-106.42
-46.58
6.24
39.69
49.00
40.01
23.43
7.74
-2.67
-5.80
-2.38
8.07
22.94
38.35
49.08
50.68
42.68
29.92
21.49
26.86
52.01
96.01
153.30
212.55
259.25
279.81
265.48
215.89
138.88
49.42
-34.16
-92.42
-113.32
-94.83
-44.15
24.98
96.75
155.70
189.90
193.10
167.38
117.38
48.61
-33.40
-121.43
-199.42
-250.82
-267.29
-262.41
-242.18
-211.71
-177.02
-138.54
-100.44
-66.39
-40.08
-24.50
-20.88
-26.41
-38.06
-52.14
-64.00
-69.67
-65.81
-51.72
-29.20
-1.15
30.56
62.77
92.28
117.08
136.16
150.24
160.24
166.76
169.88
170.26
167.53
161.35
152.21
141.18
129.93
119.48
109.82
100.17
90.20
79.63
68.83
58.66
49.61
41.52
33.18
22.71
8.51
-9.75
-31.22
-53.90
-75.24
-92.97
-105.45
-112.01
-112.90
-109.27
-102.89
-95.91
-90.47
-88.17
-89.48
-93.34
-97.38
-98.65
-94.79
-84.99
-70.44
-53.84
-38.31
-26.32
-18.88
-15.62
-15.25
-16.26
-17.37
-17.60
-16.19
-12.35
-5.39
4.95
18.06
32.26
45.02
53.66
56.21
52.12
42.51
29.72
16.52
5.21
-2.90
-7.54
-9.35
-9.38
-8.82
-8.84
-10.44
-14.26
-20.44
-28.63
-38.12
-48.12
-58.18
-68.34
-79.09
-91.02
-104.59
-119.91
-136.73
-154.50
-172.41
-189.43
-204.41
-216.44
-225.16
-230.97
-234.91
-238.10
-241.02
-243.11
-242.99
-239.31
-231.79
-221.78
-211.91
-204.92
-202.20
-203.30
-206.27
-208.81
-209.51
-208.50
-207.21
-207.43
-210.28
-215.49
-221.29
-224.82
-223.03
-213.54
-195.34
-169.08
-136.76
-100.91
-63.77
-26.53
10.73
48.66
88.06
129.68
174.03
221.15
270.13
318.40
361.70
394.89
413.67
416.21
403.97
381.02
352.27
321.73
291.05
259.63
225.74
188.20
148.02
109.33
78.93
64.29
70.68
98.60
142.79
193.56
239.79
272.31
286.09
280.82
260.15
230.47
199.81
176.12
165.51
170.23
188.05
212.48
234.80
246.83
243.59
224.80
194.41
159.29
127.33
106.23
101.28
113.89
140.84
175.04
207.73
229.92
233.87
213.87
168.08
99.30
15.91
-68.31
-136.47
-171.80
-164.85
-117.59
-44.05
36.09
102.71
140.65
143.39
114.37
67.89
21.74
-8.21
-13.73
7.98
51.31
103.00
146.09
166.47
162.13
139.36
109.75
83.77
73.98
88.16
126.02
179.95
239.21
298.85
354.36
400.33
427.65
434.06
420.20
387.58
337.82
242.80
98.99
-72.04
-216.20
-325.74
-405.79
-462.85
-496.82
-507.50
-496.91
-465.38
-418.45
-366.09
-321.71
-288.73
-264.30
-243.58
-223.66
-204.04
-182.40
-159.19
-137.45
-123.51
-117.99
-119.09
-125.10
-135.70
-150.75
-166.64
-179.43
-186.05
-186.66
-180.58
-168.78
-154.50
-142.25
-135.38
-133.25
-133.05
-131.43
-126.80
-117.89
-104.84
-89.09
-72.67
-57.36
-43.99
-33.36
-26.54
-24.95
-28.74
-36.52
-45.70
-53.29
-56.97
-55.89
-50.63
-42.56
-32.87
-22.11
-10.37
2.09
14.31
24.78
32.11
35.74
36.26
35.08
33.66
32.96
33.12
33.73
34.28
34.39
33.95
33.08
32.05
31.19
30.82
31.16
32.23
33.82
35.54
36.94
37.63
37.42
36.31
34.41
31.92
29.08
26.18
23.54
21.46
20.18
19.67
19.63
19.54
18.80
16.98
14.00
10.21
6.20
2.52
-0.62
-3.37
-6.11
-9.25
-13.07
-17.73
-23.32
-29.83
-37.02
-44.24
-50.45
-54.48
-55.50
-53.30
-48.33
-41.45
-33.51
-25.10
-16.68
-8.88
-2.71
0.63
0.23
-3.88
-10.60
-17.98
-23.89
-26.75
-25.95
-21.84
-15.61
-8.95
-3.54
-0.68
-0.75
-3.20
-6.66
-9.66
-11.17
-11.10
-10.12
-9.07
-8.42
-8.01
-7.36
-6.24
-4.83
-3.70
-3.34
-3.73
-4.35
-4.55
-3.96
-2.62
-0.93
0.71
2.09
3.11
3.71
3.78
3.25
2.25
1.12
0.24
-0.31
-0.94
-2.29
-4.90
-8.70
-12.91
-16.31
-17.84
-16.96
-13.78
-8.83
-2.78
3.80
10.46
16.70
21.97
25.65
27.25
26.62
23.98
19.88
15.02
10.08
5.64
2.16
-0.08
-0.96
-0.60
0.72
2.63
4.82
7.14
9.47
11.64
13.36
14.24
14.06
12.91
11.37
10.26
10.21
11.41
13.46
15.65
17.33
18.20
18.25
17.67
16.60
15.15
13.44
11.67
10.00
8.44
6.70
4.31
0.98
-3.09
-7.14
-10.07
-11.02
-9.87
-7.30
-4.43
-2.30
-1.38
-1.54
-2.40
-3.69
-5.40
-7.64
-10.18
-12.36
-13.22
-12.04
-8.79
-4.24
0.48
4.51
7.62
10.23
12.93
16.00
19.25
22.18
24.32
25.55
25.99
25.78
24.88
23.13
20.54
17.50
14.82
13.33
13.47
15.03
17.28
19.30
20.40
20.28
18.94
16.53
13.25
9.41
5.60
2.65
1.35
1.98
4.07
6.51
8.08
8.19
7.10
5.77
5.14
5.52
6.37
6.73
5.89
3.85
1.29
-0.90
-2.23
-2.88
-3.37
-4.08
-4.92
-5.41
-5.04
-3.74
-1.97
-0.45
0.20
-0.26
-1.76
-4.08
-6.99
-10.25
-13.48
-16.10
-17.50
-17.35
-15.75
-13.26
-10.53
-7.93
-5.38
-2.56
0.71
4.23
7.37
9.48
10.31
10.19
9.89
10.09
11.02
12.33
13.41
13.80
13.45
12.77
12.28
12.30
12.86
13.76
14.84
16.01
17.26
18.53
19.60
20.21
20.19
19.53
18.35
16.69
14.51
11.76
8.60
5.47
2.97
1.52
1.07
1.11
0.98
0.32
-0.65
-1.36
-1.28
-0.40
0.70
1.28
0.78
-0.74
-2.76
-4.61
-5.89
-6.60
-7.05
-7.55
-8.25
-9.06
-9.86
-10.53
-11.10
-11.63
-12.17
-12.69
-13.13
-13.41
-13.37
-12.81
-11.50
-9.36
-6.57
-3.63
-1.19
0.23
0.51
-0.07
-0.91
-1.47
-1.55
-1.32
-1.18
-1.41
-1.95
-2.40
-2.26
-1.28
0.41
2.36
4.07
5.28
6.06
6.67
7.33
8.04
8.61
8.81
8.62
8.26
8.04
8.18
8.59
9.03
9.21
9.04
8.56
7.83
6.85
5.54
3.85
1.96
0.29
-0.65
-0.51
0.73
2.75
4.95
6.65
7.24
6.33
3.86
0.19
-3.96
-7.68
-10.27
-11.52
-11.82
-11.87
-12.23
-12.95
-13.48
-13.03
-11.04
-7.63
-3.52
0.27
3.04
4.71
5.75
6.76
8.05
9.35
10.03
9.59
8.07
6.15
4.83
4.82
6.22
8.45
10.70
12.36
13.39
14.12
14.96
15.99
16.91
17.21
16.56
14.96
12.79
10.55
8.58
6.93
5.35
3.43
0.77
-2.72
-6.78
-10.73
-13.68
-14.95
-14.37
-12.49
-10.29
-8.85
-8.78
-10.06
-12.00
-13.70
-14.42
-13.84
-12.09
-9.67
-7.16
-5.12
-3.99
-3.94
-4.86
-6.36
-7.86
-8.96
-9.50
-9.71
-9.96
-10.72
-12.34
-14.99
-18.77
-23.58
-29.04
-34.51
-39.37
-43.43
-47.38
-52.82
-61.68
-75.36
-93.74
-114.84
-135.69
-153.57
-167.03
-176.13
-181.63
-183.91
-182.31
-175.02
-159.71
-134.76
-100.34
-58.79
-14.17
28.84
66.04
94.67
113.86
124.65
128.73
127.57
121.90
112.30
100.03
87.29
76.60
69.77
68.46
72.85
81.81
93.56
106.59
119.82
131.82
140.26
142.21
138.20
130.41
121.63
113.48
106.15
98.96
90.92
81.31
70.17
62.58
63.91
77.23
102.01
135.33
173.45
212.03
246.06
270.71
288.92
307.04
332.07
368.06
415.18
470.27
527.91
582.16
594.47
540.52
420.99
263.84
104.63
-34.08
-146.50
-235.96
-307.19
-363.20
-399.95
-413.71
-405.03
-380.78
-349.71
-318.84
-292.07
-270.85
-255.11
-239.88
-220.59
-195.79
-168.36
-143.46
-125.48
-116.24
-114.94
-118.63
-120.91
-116.28
-102.57
-81.78
-58.35
-36.69
-19.68
-8.46
-2.93
-1.12
-1.21
-2.57
-5.98
-12.89
-24.34
-40.36
-59.93
-80.98
-100.11
-113.38
-117.21
-109.49
-90.32
-62.34
-30.33
0.12
24.11
38.87
44.19
41.86
34.50
24.38
13.00
1.35
-9.47
-17.96
-22.54
-22.31
-17.69
-10.45
-3.09
2.33
4.97
5.48
5.46
6.51
9.33
13.52
17.88
21.08
22.34
21.73
20.04
18.29
17.33
17.54
18.87
21.05
23.70
26.48
28.93
30.40
30.10
27.32
21.73
13.50
3.31
-7.91
-19.17
-29.57
-38.24
-44.35
-47.19
-46.36
-42.09
-35.27
-27.38
-20.03
-14.56
-11.71
-11.52
-13.53
-16.90
-20.68
-23.84
-25.41
-24.57
-20.88
-14.53
-6.35
2.23
9.62
14.65
16.88
16.81
15.50
14.28
14.22
15.95
19.59
24.92
31.39
38.44
45.48
52.06
57.88
62.75
66.46
68.62
68.66
66.11
61.02
54.31
47.95
44.55
46.59
55.35
69.92
87.01
101.58
108.40
103.85
87.10
60.13
26.50
-10.26
-48.04
-86.25
-125.03
-164.02
-201.52
-234.54
-259.59
-273.75
-275.31
-263.86
-240.10
-205.71
-163.46
-117.29
-72.16
-33.15
-4.12
13.56
21.48
23.65
24.92
29.37
39.30
55.25
76.71
102.80
132.21
162.62
190.27
210.07
217.10
208.51
185.07
151.38
114.58
82.05
59.18
48.02
47.31
53.42
61.77
68.06
68.99
62.27
46.40
20.70
-14.18
-55.35
-97.10
-131.46
-150.20
-147.59
-122.77
-80.51
-29.90
18.52
55.65
75.49
75.35
54.97
16.32
-35.90
-93.32
-144.36
-176.70
-181.52
-157.34
-111.25
-56.67
-8.75
20.44
24.99
5.88
-30.34
-73.63
-112.76
-137.38
-140.18
-118.81
-76.90
-23.56
28.82
67.95
85.26
78.49
52.53
17.85
-12.79
-28.60
-24.32
-1.63
32.09
66.72
92.65
102.97
94.33
67.32
26.59
-19.29
-59.32
-82.68
-82.52
-58.64
-18.18
26.67
62.43
78.10
67.82
32.28
-21.22
-80.13
-129.65
-156.89
-154.89
-124.89
-75.49
-18.99
32.84
71.61
92.94
95.73
81.16
52.30
14.06
-27.19
-64.56
-92.20
-106.39
-105.67
-90.45
-62.63
-25.97
13.57
47.88
68.06
66.83
41.63
-3.45
-57.74
-106.53
-135.63
-136.14
-107.77
-59.42
-6.51
34.22
50.24
37.08
-0.59
-50.86
-98.55
-129.79
-135.71
-114.49
-71.30
-16.55
37.08
78.14
99.36
99.51
83.86
62.54
47.48
48.54
69.99
108.93
156.32
200.33
230.42
240.68
230.61
203.87
165.78
121.03
72.46
20.87
-34.09
-92.53
-152.75
-210.40
-258.80
-290.60
-300.43
-287.17
-254.91
-211.73
-166.91
-127.90
-98.66
-79.84
-70.35
-68.92
-74.28
-84.34
-95.04
-100.17
-93.28
-70.60
-33.78
9.68
48.81
73.84
80.44
71.05
52.67
32.78
16.06
3.77
-4.26
-7.12
-2.01
13.99
40.81
73.46
103.24
121.38
122.96
108.70
83.79
54.92
27.91
6.96
-4.65
-4.08
10.51
38.24
74.29
110.44
137.19
146.73
135.34
104.10
58.43
6.95
-40.11
-72.74
-83.45
-69.82
-35.89
8.46
50.28
77.31
81.53
60.97
19.57
-34.20
-89.39
-134.74
-160.49
-160.50
-133.91
-85.75
-26.14
31.74
74.54
91.57
77.49
33.97
-30.14
-100.40
-160.34
-195.39
-196.65
-163.02
-101.17
-23.80
52.94
112.51
141.32
132.05
86.38
15.34
-62.94
-128.29
-164.42
-163.41
-127.59
-68.37
-2.61
51.55
79.64
74.81
39.92
-13.02
-66.50
-103.01
-110.33
-84.95
-32.43
35.04
102.37
154.83
180.45
172.24
129.80
60.25
-22.62
-101.61
-161.00
-190.45
-186.93
-154.08
-99.96
-35.10
28.72
79.06
104.36
96.76
55.77
-9.98
-84.08
-147.70
-185.54
-190.15
-162.57
-109.83
-41.88
30.40
95.74
142.52
160.37
143.78
95.85
29.16
-37.30
-84.22
-98.45
-76.04
-23.35
45.28
111.09
155.85
166.67
139.78
82.19
10.42
-52.69
-86.64
-80.90
-38.65
25.61
92.38
143.99
169.02
164.28
136.77
98.90
64.17
43.38
42.93
64.21
103.38
151.90
199.06
238.82
269.44
292.78
312.53
332.80
356.57
383.69
410.01
409.06
361.44
266.89
148.09
35.18
-52.16
-109.66
-143.76
-164.52
-180.51
-193.74
-202.79
-206.88
-207.42
-206.05
-201.97
-191.80
-171.90
-141.17
-99.89
-51.83
-6.99
22.74
28.97
10.75
-24.98
-66.11
-99.28
-112.14
-97.95
-57.99
-1.08
59.25
109.19
138.15
140.93
117.84
74.21
18.02
-42.00
-96.63
-136.75
-154.08
-143.50
-105.49
-47.35
18.36
77.27
117.40
132.52
122.88
93.72
52.40
6.33
-37.74
-73.37
-94.27
-95.07
-73.44
-32.09
20.56
71.63
107.11
115.82
92.44
39.06
-35.10
-115.70
-186.82
-234.34
-249.05
-228.40
-176.51
-103.45
-23.51
47.08
93.08
104.14
78.25
23.36
-44.09
-103.73
-137.54
-135.30
-97.54
-34.71
36.32
97.04
131.55
130.32
92.47
26.18
-52.98
-126.10
-175.76
-190.22
-166.21
-109.37
-32.63
46.80
110.90
144.78
140.58
100.02
34.93
-35.93
-92.62
-119.53
-109.49
-64.85
4.06
82.03
152.22
199.97
215.16
193.72
138.91
61.34
-23.12
-97.14
-146.29
-162.63
-144.84
-98.41
-34.73
30.49
80.33
100.53
83.58
31.30
-44.75
-124.90
-187.71
-217.39
-208.14
-163.54
-92.68
-5.69
89.00
175.44
235.22
255.82
236.77
188.27
126.32
67.90
26.60
9.18
12.82
31.64
57.96
83.47
100.91
105.81
97.23
77.05
46.80
10.57
-25.24
-53.33
-66.72
-60.93
-35.72
3.63
46.82
81.24
96.58
88.86
61.01
20.55
-24.02
-65.61
-98.86
-119.58
-124.38
-111.35
-81.74
-41.40
0.27
33.22
50.30
49.26
32.49
5.20
-26.40
-56.01
-77.70
-86.12
-77.84
-52.85
-15.66
25.39
60.50
81.14
82.08
61.94
23.23
-28.27
-83.85
-132.88
-164.79
-171.94
-152.71
-112.87
-64.47
-21.32
5.77
12.60
2.16
-17.56
-36.91
-48.04
-46.72
-33.37
-11.12
15.87
43.84
70.06
92.85
111.77
127.12
139.33
147.11
148.57
141.92
126.15
101.32
68.56
30.08
-11.27
-52.67
-93.00
-130.99
-164.36
-189.91
-204.68
-207.49
-199.42
-183.79
-156.86
-119.98
-79.13
-42.25
-14.43
3.79
14.55
20.73
25.07
30.08
37.02
47.02
60.72
77.52
96.39
114.74
129.48
137.72
136.74
123.77
98.36
63.58
25.97
-6.47
-27.36
-34.16
-26.59
-8.81
12.18
30.30
42.48
48.56
49.71
46.78
40.05
29.93
17.50
4.71
-5.84
-11.94
-12.73
-8.92
-2.20
5.73
13.72
20.94
26.98
31.72
35.27
37.74
39.17
39.67
39.85
41.11
45.24
53.77
66.88
82.65
97.16
105.59
103.82
89.91
64.65
31.37
-4.87
-38.27
-63.34
-75.93
-74.20
-59.34
-35.55
-9.07
13.63
27.94
32.39
28.75
20.81
12.67
7.28
5.62
6.79
8.62
8.70
5.54
-0.69
-7.83
-12.33
-10.40
0.42
20.11
45.75
72.05
92.44
100.53
91.55
63.84
20.11
-32.23
-82.07
-117.49
-129.69
-116.36
-82.88
-40.28
-0.73
27.31
41.84
46.71
48.11
50.35
53.20
52.06
40.67
14.60
-26.16
-76.86
-129.45
-174.92
-205.48
-215.83
-203.95
-171.88
-126.25
-77.87
-39.44
-21.32
-27.05
-51.13
-80.59
-100.35
-99.58
-76.05
-36.28
8.22
46.10
70.18
78.75
74.66
63.48
51.83
46.07
50.98
68.21
95.25
125.85
152.24
168.29
171.89
165.17
152.59
138.28
124.06
109.28
92.08
70.76
44.32
11.79
-28.18
-76.73
-133.12
-192.72
-246.65
-283.75
-294.64
-275.87
-231.97
-174.22
-116.52
-70.58
-42.53
-32.24
-35.19
-45.48
-58.18
-70.23
-79.95
-86.15
-87.79
-84.39
-76.81
-67.46
-59.73
-56.21
-57.30
-60.76
-62.60
-58.87
-47.27
-28.01
-3.72
21.32
42.32
55.25
58.16
52.11
41.09
30.82
26.79
32.09
46.23
65.66
85.50
101.36
110.67
112.63
107.63
96.51
80.37
60.65
39.33
18.90
1.88
-9.83
-15.58
-16.37
-14.73
-14.12
-17.65
-26.70
-40.24
-55.16
-67.50
-73.99
-73.17
-65.61
-53.32
-38.85
-24.68
-12.97
-5.48
-3.40
-6.91
-15.02
-25.48
-35.41
-41.79
-42.31
-35.72
-22.14
-3.34
17.24
35.17
46.32
48.31
41.27
27.61
11.13
-4.02
-14.12
-16.36
-9.07
7.95
32.95
62.02
89.65
110.96
123.28
126.34
120.98
107.96
87.80
61.88
33.83
9.46
-4.06
-1.28
18.04
47.27
74.45
86.09
71.85
27.98
-42.35
-128.34
-213.78
-281.62
-319.04
-321.56
-293.98
-247.95
-197.33
-154.37
-124.65
-106.55
-94.68
-83.84
-71.23
-55.39
-34.34
2.04
55.68
116.76
168.45
197.23
199.23
179.33
147.30
113.08
83.06
57.62
34.59
15.02
3.59
6.57
27.02
62.13
102.90
137.39
154.83
151.51
132.48
105.27
79.51
61.05
49.64
40.58
28.93
12.85
-4.41
-16.56
-19.01
-11.90
-0.80
6.53
4.92
-5.51
-20.02
-31.63
-34.49
-26.51
-9.34
12.45
33.63
50.00
59.11
60.02
53.06
39.60
21.87
2.86
-14.45
-27.38
-33.97
-33.38
-26.20
-14.70
-2.53
6.22
8.63
4.04
-5.79
-17.52
-27.80
-34.41
-36.68
-34.91
-29.60
-21.29
-11.03
-0.72
7.13
10.32
7.80
0.07
-11.27
-24.15
-36.46
-46.08
-50.81
-48.50
-37.88
-19.47
4.00
28.24
48.50
60.53
61.26
49.17
24.99
-7.39
-40.59
-65.13
-72.60
-59.02
-27.17
14.18
53.84
82.42
95.38
93.18
79.26
57.78
32.78
8.79
-8.54
-13.03
-0.47
28.61
67.78
106.33
133.21
141.57
131.27
107.96
79.30
50.97
24.77
-0.52
-26.53
-53.03
-77.44
-96.37
-108.02
-113.78
-117.51
-122.95
-131.21
-140.07
-145.17
-142.46
-129.97
-108.47
-80.78
-50.04
-18.31
13.81
46.55
78.37
104.73
120.62
123.73
115.29
98.26
75.61
49.94
23.74
-0.38
-20.08
-33.52
-39.71
-39.16
-32.24
-19.38
-1.50
19.51
40.72
58.55
70.29
74.97
73.36
67.45
59.40
50.79
41.15
30.86
20.54
11.30
4.38
0.62
0.13
2.38
6.51
11.51
16.47
20.19
21.63
20.38
16.80
12.04
7.43
3.82
1.11
-1.36
-4.57
-8.97
-14.12
-18.99
-22.57
-24.48
-25.09
-25.25
-25.43
-25.56
-24.84
-22.18
-16.87
-9.03
0.24
9.28
16.44
20.70
21.79
20.20
16.85
12.62
8.12
3.50
-1.35
-6.61
-12.21
-17.83
-23.01
-27.33
-30.76
-33.46
-35.75
-37.71
-39.15
-39.70
-39.07
-37.32
-34.86
-32.35
-30.31
-28.96
-28.17
-27.58
-26.83
-25.65
-23.97
-21.85
-19.50
-17.14
-15.04
-13.44
-12.44
-12.07
-12.14
-12.35
-12.42
-12.24
-11.87
-11.59
-11.75
-12.57
-14.10
-16.14
-18.35
-20.32
-21.75
-22.43
-22.27
-21.24
-19.29
-16.50
-13.00
-9.06
-4.99
-1.12
2.39
5.47
8.19
10.65
12.86
14.78
16.26
17.17
17.46
17.18
16.48
15.60
14.76
14.10
13.59
13.12
12.48
11.57
10.45
9.28
8.26
7.51
6.97
6.52
6.02
5.39
4.65
3.86
3.05
2.23
1.39
0.48
-0.45
-1.38
-2.30
-3.18
-3.98
-4.65
-5.16
-5.53
-5.87
-6.30
-6.94
-7.81
-8.84
-9.97
-11.23
-12.66
-14.30
-15.99
-17.39
-18.04
-17.62
-16.06
-13.64
-10.89
-8.33
-6.28
-4.75
-3.57
-2.54
-1.57
-0.68
0.02
0.52
0.91
1.32
1.87
2.56
3.31
4.02
4.69
5.36
6.08
6.82
7.40
7.65
7.45
6.85
6.03
5.18
4.36
3.48
2.36
0.91
-0.81
-2.56
-4.05
-5.16
-5.97
-6.73
-7.70
-8.99
-10.56
-12.28
-14.05
-15.88
-17.88
-20.15
-22.69
-25.40
-28.11
-30.69
-33.08
-35.28
-37.31
-39.20
-40.96
-42.65
-44.38
-46.29
-48.48
-50.87
-53.28
-55.40
-56.94
-57.69
-57.44
-56.01
-53.14
-48.55
-41.99
-33.40
-22.89
-10.77
2.57
16.77
31.50
46.42
61.06
74.81
87.01
97.21
105.35
111.75
116.94
121.27
124.66
126.52
126.07
122.67
116.17
107.01
96.01
84.03
71.68
59.15
46.33
33.10
19.53
6.05
-6.69
-18.09
-27.86
-36.19
-43.55
-50.29
-56.21
-60.34
-61.22
-57.51
-48.69
-35.45
-19.57
-3.42
10.70
20.82
25.42
23.38
14.18
-1.79
-22.82
-46.01
-67.93
-85.66
-97.82
-104.70
-107.52
-107.26
-103.85
-96.33
-83.76
-66.40
-46.08
-25.53
-7.05
8.52
22.02
34.96
48.24
61.31
72.27
79.10
80.86
78.45
74.39
71.89
73.67
80.97
93.20
108.16
122.75
133.99
139.87
139.80
134.52
125.55
114.48
102.52
90.59
79.60
70.78
65.67
65.52
70.56
79.37
88.97
95.54
95.61
87.27
70.81
48.64
24.56
2.55
-14.19
-23.87
-26.31
-22.88
-16.11
-9.19
-5.21
-6.38
-13.40
-25.22
-39.37
-52.93
-63.58
-70.29
-73.06
-71.96
-66.77
-57.11
-43.16
-26.65
-11.04
-0.64
0.83
-7.84
-24.55
-44.79
-63.63
-77.26
-83.67
-82.60
-75.03
-63.07
-49.25
-35.78
-24.15
-14.81
-6.79
1.75
12.06
24.19
35.27
40.00
33.97
17.75
-4.19
-25.34
-39.55
-43.05
-33.62
-13.60
10.43
29.66
36.33
26.88
3.90
-24.88
-50.20
-65.39
-69.17
-64.59
-56.06
-46.58
-37.03
-27.17
-17.47
-10.10
-8.09
-13.75
-26.52
-42.46
-55.68
-60.73
-54.54
-37.29
-12.30
14.87
37.83
51.37
53.33
45.32
31.96
18.92
10.65
8.96
13.09
20.77
29.78
38.65
46.36
51.69
53.11
49.32
40.15
27.08
12.80
0.40
-7.65
-10.15
-7.00
0.87
11.58
22.25
29.27
29.33
20.75
4.25
-17.16
-39.15
-57.70
-70.25
-76.21
-76.73
-73.98
-70.42
-68.71
-71.37
-79.97
-94.16
-111.28
-126.97
-136.95
-138.81
-132.82
-122.07
-110.62
-101.00
-92.39
-80.82
-61.40
-31.61
6.79
48.09
84.10
106.84
111.51
97.87
69.71
32.88
-6.66
-43.26
-70.84
-83.85
-78.79
-55.49
-17.95
25.99
66.58
94.49
101.67
88.57
64.20
38.49
15.93
-4.08
-23.73
-40.15
-47.27
-39.14
-13.47
25.22
66.38
97.65
108.30
94.76
62.16
21.53
-15.02
-38.52
-46.15
-40.88
-28.24
-12.89
3.10
19.23
34.36
45.79
49.99
43.50
24.71
-4.90
-40.44
-74.43
-98.71
-106.86
-95.91
-67.43
-27.87
12.95
44.81
60.71
59.58
46.29
28.96
15.29
9.49
11.43
18.10
26.31
34.51
43.02
52.63
62.84
71.20
74.29
69.38
55.91
35.94
13.57
-5.95
-17.70
-18.31
-7.10
13.49
38.18
60.25
73.69
75.35
66.11
50.47
34.66
24.17
21.80
27.19
37.84
50.74
63.63
75.16
84.35
89.89
90.14
83.85
71.05
53.26
32.88
12.08
-7.73
-25.49
-39.55
-47.28
-45.76
-33.56
-12.33
13.07
36.06
50.79
54.07
45.93
28.91
6.88
-16.01
-35.64
-48.22
-50.88
-42.45
-24.11
0.63
26.98
49.95
64.66
66.53
51.45
16.93
-35.80
-100.28
-165.13
-216.88
-243.79
-239.62
-205.23
-147.90
-79.26
-12.91
37.90
62.05
53.06
11.55
-53.62
-126.73
-188.81
-223.25
-220.48
-180.65
-113.36
-35.02
34.97
78.97
85.80
54.38
-5.46
-75.30
-133.67
-162.84
-154.39
-111.34
-46.39
22.78
78.84
109.14
108.55
80.26
34.72
-13.06
-47.52
-57.26
-37.86
6.98
67.33
130.57
184.95
221.26
233.25
217.58
173.98
106.67
25.10
-56.72
-123.27
-161.59
-165.05
-134.83
-79.12
-10.93
54.74
103.28
122.95
107.48
58.50
-13.68
-92.20
-158.48
-198.11
-204.99
-182.23
-139.53
-88.80
-40.49
-1.19
26.45
43.08
51.42
55.21
58.11
62.24
67.24
69.58
63.48
43.46
7.39
-41.67
-95.24
-141.76
-170.08
-172.57
-147.01
-96.64
-28.92
45.75
114.95
165.49
185.37
167.33
112.55
32.21
-54.41
-125.36
-162.74
-158.23
-114.96
-45.65
31.39
97.31
136.90
141.97
113.14
59.92
-1.61
-53.02
-79.02
-72.49
-36.87
14.81
64.80
96.95
102.29
82.11
46.98
12.51
-6.67
-1.78
27.38
73.46
124.90
169.69
198.08
203.43
182.04
133.62
62.53
-21.12
-102.12
-163.16
-189.92
-176.10
-126.28
-55.16
16.47
67.84
84.22
61.19
5.52
-67.06
-136.98
-186.99
-206.99
-195.89
-159.98
-108.89
-51.55
5.98
60.18
108.68
149.05
178.71
195.83
200.14
192.94
175.89
149.36
112.24
63.14
2.72
-64.45
-129.71
-182.14
-211.66
-211.85
-181.77
-126.20
-54.78
19.33
81.46
117.78
118.33
80.26
9.93
-77.59
-162.10
-223.97
-249.91
-236.40
-189.54
-122.07
-49.12
16.27
66.25
99.45
120.15
135.62
152.68
174.59
200.31
225.70
246.09
258.41
261.38
254.94
239.27
215.42
186.25
156.73
131.90
113.80
99.16
80.38
50.35
8.39
-36.64
-69.28
-75.47
-50.93
-4.89
43.82
76.17
82.44
66.03
41.06
23.23
21.28
33.23
49.41
59.41
58.21
48.16
36.19
30.47
34.69
45.94
56.28
57.16
43.76
16.50
-20.38
-62.12
-103.08
-139.72
-170.79
-196.15
-214.20
-220.70
-210.37
-180.30
-132.33
-69.42
4.08
84.10
167.31
251.75
336.40
419.42
496.49
540.40
527.97
452.42
331.16
195.46
72.79
-22.37
-87.36
-125.94
-144.00
-144.36
-129.26
-101.86
-68.50
-37.19
-13.91
-0.62
4.34
4.18
4.03
7.36
13.81
18.62
15.58
0.95
-24.33
-55.19
-84.80
-105.69
-113.07
-106.38
-89.28
-67.53
-46.65
-30.67
-22.28
-23.21
-33.57
-52.26
-77.19
-105.66
-134.54
-160.62
-181.38
-195.66
-203.76
-206.70
-205.48
-200.61
-192.23
-180.35
-165.39
-148.54
-131.56
-116.21
-103.52
-93.35
-84.57
-75.69
-65.49
-53.65
-40.83
-28.31
-17.48
-9.35
-4.23
-1.89
-1.84
-3.64
-7.06
-11.90
-17.70
-23.60
-28.47
-31.35
-31.81
-30.15
-27.28
-24.31
-22.11
-21.08
-21.11
-21.74
-22.43
-22.79
-22.68
-22.21
-21.58
-20.99
-20.47
-19.92
-19.12
-17.91
-16.24
-14.21
-11.98
-9.72
-7.49
-5.33
-3.42
-2.12
-1.98
-3.43
-6.53
-10.75
-15.06
-18.43
-20.11
-20.02
-18.57
-16.40
-13.96
-11.51
-9.10
-6.87
-5.09
-4.06
-3.96
-4.67
-5.87
-7.15
-8.12
-8.39
-7.52
-5.13
-1.00
4.61
10.98
16.93
21.29
23.36
23.12
21.31
19.06
17.54
17.43
18.81
21.21
23.92
26.33
28.19
29.58
30.71
31.79
32.84
33.76
34.40
34.55
33.90
31.97
28.41
23.16
16.82
10.51
5.54
2.79
2.40
3.75
5.91
8.14
10.22
12.38
14.92
17.91
21.04
23.60
24.80
23.91
20.46
14.34
6.03
-3.47
-12.64
-19.95
-24.24
-25.00
-22.43
-17.14
-9.92
-1.55
7.09
14.99
21.09
24.52
24.94
22.76
18.96
14.74
11.09
8.38
6.49
4.84
2.67
-0.78
-6.13
-13.61
-22.79
-32.61
-41.56
-48.28
-52.14
-53.60
-53.96
-54.73
-56.84
-60.39
-64.79
-69.42
-74.17
-79.48
-86.05
-94.19
-103.61
-113.60
-123.69
-134.07
-145.66
-159.40
-175.50
-193.04
-210.28
-225.61
-238.41
-249.36
-259.69
-269.94
-279.00
-283.97
-281.25
-267.99
-243.04
-206.93
-161.24
-108.17
-50.85
5.80
54.91
88.60
100.80
90.29
62.34
27.81
-0.28
-10.91
1.66
37.06
89.99
152.59
216.53
274.44
320.35
350.07
361.90
357.49
342.21
323.84
310.06
305.57
310.34
320.09
328.71
331.04
324.59
309.58
287.64
260.48
229.44
195.84
161.85
130.32
103.87
83.75
69.31
58.53
49.31
40.57
32.33
25.27
20.05
17.04
16.61
19.55
27.29
41.43
62.78
90.66
122.66
155.11
184.00
206.26
220.64
227.93
230.30
230.24
229.49
228.50
226.27
220.67
209.35
190.83
165.13
133.77
98.84
62.36
25.59
-11.16
-48.39
-86.43
-124.73
-161.91
-196.34
-227.47
-256.03
-283.80
-312.96
-345.73
-382.37
-419.73
-451.37
-469.05
-466.29
-440.14
-391.93
-326.92
-254.74
-186.74
-133.35
-101.95
-95.20
-111.47
-144.67
-184.58
-219.45
-240.94
-245.32
-232.93
-206.95
-166.41
-115.76
-64.38
-22.81
8.57
33.15
54.90
77.62
104.51
138.06
178.26
223.07
265.88
300.80
323.02
331.53
328.39
315.83
294.56
271.44
243.13
208.21
169.35
130.39
94.97
65.57
40.66
20.62
5.41
-6.48
-15.80
-23.19
-30.37
-39.05
-49.81
-61.69
-72.32
-80.01
-85.15
-88.16
-89.36
-89.14
-87.61
-84.81
-81.04
-76.58
-72.19
-69.08
-67.24
-65.66
-63.24
-59.15
-53.22
-45.95
-37.98
-30.10
-23.17
-17.28
-12.04
-6.72
-0.53
7.16
16.55
27.25
38.04
47.05
52.61
53.81
50.91
45.27
38.89
33.64
30.73
30.33
31.80
34.07
35.99
36.75
35.95
33.71
30.56
27.33
24.92
24.06
25.11
27.96
32.16
37.11
42.41
48.02
54.32
61.86
71.10
82.05
94.18
106.57
118.22
128.52
137.38
145.22
152.65
160.20
168.33
177.56
188.51
201.63
216.41
230.55
239.88
239.03
223.19
189.83
139.63
76.00
3.63
-72.88
-149.50
-222.05
-285.42
-333.63
-361.25
-365.80
-349.36
-318.43
-281.84
-247.46
-219.80
-199.26
-183.46
-169.45
-155.48
-141.56
-128.74
-117.96
-109.37
-102.31
-95.95
-89.87
-84.27
-79.76
-76.79
-75.24
-74.42
-73.31
-71.05
-67.30
-62.31
-56.77
-51.51
-47.17
-44.02
-41.96
-40.57
-39.31
-37.69
-35.46
-32.64
-29.51
-26.35
-23.41
-20.74
-18.28
-15.79
-13.02
-9.75
-5.87
-1.50
3.01
7.05
10.00
11.39
11.20
9.81
7.81
5.74
3.84
2.16
0.67
-0.45
-0.88
-0.28
1.42
4.00
6.98
9.89
12.50
14.80
16.89
18.74
20.17
20.90
20.68
19.52
17.64
15.36
13.06
11.02
9.43
8.38
7.85
7.68
7.65
7.55
7.27
6.91
6.66
6.66
6.90
7.19
7.28
7.01
6.35
5.42
4.45
3.71
3.43
3.81
4.94
6.75
9.02
11.48
13.86
16.06
18.06
19.79
20.98
21.25
20.32
18.28
15.73
13.61
12.65
12.99
14.02
14.80
14.51
13.07
11.08
9.40
8.67
8.82
9.30
9.48
9.10
8.40
7.85
7.74
7.90
7.88
7.34
6.37
5.51
5.37
6.19
7.68
9.16
9.95
9.78
8.74
7.15
5.25
3.09
0.70
-1.76
-3.93
-5.40
-6.03
-6.09
-6.08
-6.40
-6.98
-7.33
-6.82
-5.20
-2.79
-0.29
1.62
2.75
3.39
4.05
4.96
5.93
6.45
6.17
5.24
4.27
3.94
4.51
5.64
6.68
7.11
6.94
6.67
6.93
7.99
9.61
11.13
11.97
11.93
11.24
10.32
9.46
8.64
7.69
6.48
5.07
3.72
2.57
1.59
0.56
-0.70
-2.11
-3.38
-4.19
-4.51
-4.64
-5.10
-6.30
-8.30
-10.86
-13.70
-16.68
-19.78
-22.95
-25.74
-27.37
-27.04
-24.36
-19.77
-14.31
-9.24
-5.39
-2.97
-1.67
-1.07
-0.97
-1.39
-2.31
-3.44
-4.24
-4.19
-3.18
-1.59
-0.04
1.08
1.85
2.69
3.98
5.64
7.14
7.85
7.57
6.71
6.00
6.04
6.78
7.68
8.05
7.67
6.86
6.21
6.03
6.12
5.91
4.98
3.48
2.04
1.40
1.82
2.94
3.99
4.35
3.87
2.89
1.92
1.20
0.68
0.17
-0.44
-1.05
-1.45
-1.57
-1.51
-1.40
-1.15
-0.36
1.48
4.62
8.80
13.25
17.08
19.78
21.40
22.40
23.24
24.00
24.38
23.95
22.52
20.35
17.97
15.80
13.92
12.13
10.23
8.34
6.96
6.56
7.28
8.68
9.99
10.53
10.10
9.06
7.97
7.24
6.87
6.58
6.12
5.46
4.82
4.40
4.17
3.91
3.46
2.92
2.71
3.21
4.47
5.98
6.91
6.55
4.73
1.89
-1.21
-3.86
-5.73
-6.76
-6.91
-6.01
-3.80
-0.27
4.15
8.67
12.42
14.94
16.30
16.93
17.19
17.08
16.22
14.22
11.03
7.10
3.21
-0.04
-2.43
-4.18
-5.67
-7.07
-8.26
-8.98
-9.03
-8.51
-7.70
-6.93
-6.29
-5.76
-5.28
-4.98
-5.14
-5.90
-7.15
-8.40
-9.06
-8.79
-7.67
-6.16
-4.78
-3.81
-3.21
-2.75
-2.38
-2.33
-2.97
-4.54
-6.86
-9.37
-11.41
-12.55
-12.77
-12.40
-11.72
-10.78
-9.41
-7.47
-5.00
-2.36
0.02
1.91
3.33
4.61
5.97
7.36
8.47
8.98
8.85
8.38
8.03
8.10
8.48
8.77
8.57
7.91
7.25
7.23
8.17
9.80
11.34
11.95
11.28
9.65
7.85
6.60
6.12
6.03
5.66
4.51
2.57
0.27
-1.86
-3.46
-4.52
-5.17
-5.59
-5.80
-5.82
-5.73
-5.74
-6.02
-6.54
-7.11
-7.41
-7.34
-7.11
-7.17
-7.85
-9.07
-10.30
-10.79
-10.06
-8.10
-5.46
-2.85
-0.77
0.71
1.89
3.12
4.49
5.72
6.41
6.27
5.37
4.04
2.67
1.53
0.58
-0.27
-1.10
-1.80
-2.14
-1.92
-1.07
0.25
1.77
3.19
4.25
4.72
4.43
3.38
1.77
0.06
-1.22
-1.73
-1.54
-1.10
-1.06
-1.86
-3.43
-5.21
-6.50
-6.84
-6.24
-5.17
-4.20
-3.67
-3.55
-3.54
-3.35
-2.87
-2.28
-1.88
-1.90
-2.37
-3.11
-3.97
-4.81
-5.68
-6.61
-7.62
-8.53
-9.08
-8.91
-7.76
-5.48
-2.13
1.98
6.39
10.49
13.77
15.90
16.87
16.92
16.42
15.69
14.83
13.83
12.62
11.30
10.08
9.23
8.92
9.13
9.71
10.48
11.39
12.41
13.48
14.40
14.86
14.58
13.54
12.03
10.46
9.22
8.38
7.70
6.89
5.76
4.41
3.07
1.94
1.01
0.11
-0.90
-1.93
-2.71
-2.98
-2.69
-2.17
-1.92
-2.31
-3.41
-4.93
-6.45
-7.69
-8.65
-9.39
-9.89
-9.87
-8.97
-6.98
-4.10
-0.89
1.97
4.01
5.17
5.70
5.86
5.79
5.43
4.73
3.73
2.65
1.70
0.89
0.06
-1.01
-2.28
-3.39
-3.81
-3.21
-1.67
0.29
2.03
3.12
3.55
3.67
3.84
4.20
4.52
4.48
3.86
2.74
1.44
0.26
-0.62
-1.31
-1.92
-2.50
-2.97
-3.22
-3.22
-3.10
-3.09
-3.30
-3.66
-3.94
-3.92
-3.55
-3.03
-2.67
-2.72
-3.22
-3.96
-4.69
-5.22
-5.50
-5.58
-5.48
-5.07
-4.20
-2.81
-1.03
0.71
2.02
2.65
2.72
2.64
2.88
3.72
4.98
6.24
6.93
6.71
5.61
3.97
2.30
1.09
0.66
1.10
2.28
3.87
5.41
6.49
6.83
6.43
5.47
4.18
2.69
1.01
-0.96
-3.17
-5.38
-7.19
-8.34
-8.84
-9.01
-9.33
-10.07
-11.13
-12.10
-12.48
-12.07
-11.02
-9.84
-9.06
-8.97
-9.60
-10.75
-12.12
-13.47
-14.62
-15.40
-15.72
-15.59
-15.18
-14.76
-14.52
-14.39
-13.99
-12.81
-10.51
-7.20
-3.44
0.02
2.64
4.29
5.29
6.04
6.73
7.31
7.47
7.04
6.13
5.09
4.32
4.03
4.16
4.49
4.77
4.91
4.94
4.96
4.96
4.86
4.60
4.13
3.50
2.80
2.07
1.36
0.80
0.50
0.62
1.13
1.81
2.24
2.01
0.99
-0.52
-1.87
-2.34
-1.44
0.78
3.84
7.01
9.67
11.46
12.36
12.51
12.11
11.32
10.28
9.14
7.99
6.89
5.77
4.55
3.26
2.09
1.37
1.39
2.19
3.52
4.97
6.22
7.16
7.97
8.79
9.58
10.04
9.82
8.73
6.99
5.07
3.49
2.53
2.10
1.91
1.73
1.56
1.63
2.23
3.48
5.30
7.34
9.24
10.70
11.55
11.76
11.43
10.69
9.71
8.66
7.57
6.38
4.89
2.99
0.75
-1.50
-3.27
-4.17
-4.09
-3.29
-2.24
-1.36
-0.86
-0.68
-0.65
-0.69
-0.91
-1.53
-2.77
-4.63
-6.85
-9.02
-10.71
-11.63
-11.71
-11.07
-9.90
-8.39
-6.67
-4.84
-3.01
-1.26
0.30
1.57
2.43
2.84
2.88
2.72
2.59
2.64
2.94
3.40
3.75
3.68
3.20
2.81
3.40
5.96
11.11
18.85
28.38
38.18
46.50
52.26
55.64
57.84
60.46
64.63
70.53
77.23
83.10
86.37
86.57
84.91
83.57
84.43
88.05
93.29
97.55
97.48
89.46
71.53
44.09
9.56
-28.61
-67.06
-102.68
-130.69
-146.71
-150.33
-144.74
-134.18
-121.52
-107.43
-91.54
-73.89
-57.24
-43.89
-38.04
-43.38
-61.45
-90.63
-125.88
-159.34
-182.06
-186.74
-166.30
-122.32
-64.23
-6.96
33.66
46.19
27.41
-16.96
-74.93
-132.71
-179.83
-210.02
-220.65
-211.23
-182.13
-134.76
-72.48
-1.83
67.33
122.99
155.09
158.66
135.34
92.51
40.58
-10.33
-52.71
-82.48
-98.94
-103.32
-98.10
-86.75
-73.44
-62.22
-55.58
-53.23
-51.94
-47.14
-35.03
-14.69
11.26
37.83
59.95
74.52
81.33
82.62
81.65
81.20
82.64
85.80
89.53
92.50
93.57
92.01
87.41
79.55
68.12
52.57
32.13
6.42
-23.46
-54.35
-81.06
-97.39
-98.07
-80.91
-48.17
-6.15
36.78
73.61
100.12
115.48
121.38
120.71
116.26
109.96
102.97
96.14
91.46
90.28
92.55
96.86
101.33
104.75
107.07
109.36
113.25
121.92
136.45
154.82
172.19
183.16
184.26
175.61
161.17
147.64
144.21
156.01
181.42
212.23
237.54
248.39
240.59
215.11
161.66
81.60
-12.11
-99.10
-162.65
-196.47
-203.82
-193.24
-174.55
-156.04
-138.81
-122.95
-108.60
-96.75
-88.51
-84.36
-83.88
-85.99
-89.25
-90.36
-88.11
-82.16
-73.38
-62.74
-50.68
-37.21
-22.60
-7.88
6.28
18.08
25.34
26.39
21.52
13.50
6.81
5.79
12.91
28.17
48.26
67.52
79.57
79.47
65.34
38.99
5.52
-28.16
-55.00
-70.05
-71.78
-62.23
-45.93
-28.24
-13.75
-5.45
-4.49
-10.45
-21.64
-35.37
-48.40
-57.59
-60.67
-56.90
-47.40
-34.75
-22.10
-12.29
-7.16
-7.43
-12.93
-22.82
-35.74
-49.97
-63.52
-74.39
-81.00
-82.48
-78.83
-70.78
-59.55
-46.43
-32.55
-18.82
-5.87
5.77
15.73
23.78
30.05
34.93
39.04
42.99
47.20
51.72
56.17
59.83
61.82
61.31
57.74
50.95
41.20
29.17
15.82
2.25
-10.49
-21.56
-30.49
-37.14
-41.73
-44.72
-46.73
-48.33
-50.00
-51.98
-54.25
-56.49
-58.20
-58.75
-57.55
-54.28
-48.89
-41.75
-33.53
-24.98
-16.82
-9.45
-2.93
2.94
8.38
13.41
17.77
20.96
22.55
22.41
20.87
18.59
16.34
14.60
13.47
12.67
11.84
10.81
9.72
8.90
8.58
8.76
9.01
8.80
7.70
5.65
2.99
0.23
-2.21
-4.27
-6.18
-8.31
-10.98
-14.32
-18.23
-22.51
-26.94
-31.31
-35.41
-39.00
-41.87
-43.82
-44.74
-44.71
-43.85
-42.36
-40.43
-38.30
-36.17
-34.24
-32.62
-31.18
-29.61
-27.33
-23.79
-18.56
-11.65
-3.48
5.18
13.40
20.38
25.61
29.04
31.06
32.40
33.84
36.04
39.29
43.48
48.25
53.10
57.72
62.04
66.27
70.71
75.48
80.33
84.59
87.33
87.64
84.93
79.09
70.52
59.90
48.06
35.74
23.59
12.16
1.86
-7.10
-14.86
-21.81
-28.49
-35.33
-42.49
-49.78
-56.76
-62.99
-68.14
-72.04
-74.69
-76.14
-76.46
-75.71
-74.03
-71.62
-68.68
-65.41
-62.01
-58.61
-55.32
-52.17
-49.19
-46.33
-43.50
-40.60
-37.51
-34.20
-30.75
-27.42
-24.58
-22.64
-21.85
-22.26
-23.57
-25.24
-26.62
-27.18
-26.58
-24.85
-22.24
-19.13
-15.87
-12.62
-9.32
-5.84
-2.05
2.02
6.14
9.96
13.16
15.53
17.09
18.03
18.57
18.96
19.35
19.75
20.08
20.23
20.12
19.82
19.53
19.52
20.03
21.05
22.38
23.57
24.20
23.99
22.95
21.35
19.63
18.15
17.00
15.98
14.78
13.06
10.68
7.80
4.74
1.81
-0.85
-3.40
-6.18
-9.53
-13.53
-17.94
-22.17
-25.50
-27.27
-27.10
-24.94
-21.09
-16.08
-10.53
-4.98
0.20
4.78
8.65
11.77
14.06
15.47
15.98
15.61
14.48
12.80
10.83
8.87
7.23
6.15
5.73
5.92
6.46
7.03
7.30
7.08
6.37
5.24
3.76
1.93
-0.35
-3.13
-6.37
-9.82
-13.09
-15.74
-17.51
-18.36
-18.51
-18.40
-18.47
-19.00
-20.09
-21.70
-23.63
-25.57
-27.16
-27.88
-27.23
-24.85
-20.67
-14.94
-8.27
-1.36
5.07
10.51
14.63
17.38
18.92
19.60
19.85
20.04
20.30
20.52
20.40
19.65
18.24
16.37
14.43
12.77
11.53
10.65
9.95
9.26
8.51
7.74
6.99
6.30
5.61
4.77
3.68
2.26
0.49
-1.56
-3.77
-6.00
-8.17
-10.26
-12.31
-14.38
-16.49
-18.63
-20.74
-22.87
-25.15
-27.85
-31.15
-35.06
-39.11
-42.43
-43.97
-42.90
-39.01
-32.87
-25.65
-18.65
-12.91
-8.83
-6.28
-4.79
-3.93
-3.52
-3.66
-4.63
-6.71
-10.01
-14.43
-19.60
-25.00
-30.02
-34.03
-36.43
-36.67
-34.26
-29.04
-21.29
-11.92
-2.33
6.20
13.17
19.36
26.53
36.77
51.33
69.94
90.82
111.44
129.83
145.23
158.13
169.31
179.02
186.39
189.58
186.46
175.11
154.42
124.11
84.71
37.62
-14.48
-67.37
-115.66
-154.16
-180.03
-193.22
-196.27
-193.23
-188.12
-183.70
-180.73
-178.29
-174.86
-170.29
-164.88
-158.79
-151.99
-144.54
-136.65
-128.31
-119.22
-109.02
-99.52
-92.34
-87.92
-85.05
-81.46
-74.48
-61.98
-43.62
-21.90
-3.96
3.39
-2.79
-20.28
-43.12
-63.99
-76.47
-76.76
-50.95
2.95
73.49
142.00
193.74
222.18
227.02
211.96
183.87
151.93
123.57
104.63
97.97
102.61
113.72
125.18
132.79
135.84
136.36
135.61
134.47
133.49
132.67
130.57
124.22
110.31
87.11
55.15
17.62
-19.31
-47.70
-61.07
-57.45
-40.42
-17.25
4.25
18.75
24.21
20.89
11.07
-1.79
-13.91
-21.85
-23.09
-17.19
-5.94
6.41
12.96
7.11
-15.00
-53.12
-103.44
-156.83
-203.06
-232.81
-233.26
-200.77
-143.53
-78.49
-22.61
14.67
33.33
39.17
39.18
38.10
36.29
32.21
24.97
15.62
6.44
-0.26
-3.64
-4.11
-3.01
-2.70
-4.83
-9.57
-15.62
-21.02
-23.94
-23.37
-19.27
-12.22
-3.60
5.20
13.29
20.35
26.49
32.08
37.44
43.06
49.69
58.35
69.71
83.18
96.43
105.43
105.72
93.81
69.01
34.28
-3.54
-36.28
-57.27
-63.36
-56.63
-41.79
-25.37
-13.61
-10.47
-15.37
-25.17
-36.35
-46.40
-54.12
-58.69
-59.15
-54.13
-42.27
-21.00
11.13
53.39
103.09
156.31
209.20
258.45
301.51
324.93
318.85
281.62
221.83
153.87
90.18
37.64
-1.98
-29.97
-49.03
-60.56
-64.02
-61.79
-56.88
-52.33
-50.41
-52.11
-57.39
-65.49
-73.80
-79.61
-81.42
-79.92
-76.16
-71.30
-66.03
-60.52
-54.68
-47.37
-37.46
-24.64
-9.35
7.11
22.93
36.30
46.00
51.65
54.21
55.20
55.68
56.02
55.95
54.87
52.50
49.16
45.60
42.72
40.96
40.00
39.06
37.32
34.17
29.37
23.11
15.78
7.95
0.10
-7.35
-14.10
-19.90
-24.57
-28.00
-30.20
-31.38
-31.95
-32.55
-33.80
-36.18
-39.92
-44.94
-50.94
-57.31
-63.30
-67.94
-70.28
-69.68
-66.10
-60.11
-52.65
-44.67
-36.86
-29.62
-23.11
-17.44
-12.72
-8.91
-5.82
-3.06
-0.34
2.39
4.74
6.17
6.42
5.76
4.85
4.43
4.88
6.02
7.25
7.52
6.11
2.97
-1.29
-5.74
-9.73
-12.97
-15.62
-17.99
-21.00
-25.32
-30.96
-37.16
-42.87
-47.35
-50.23
-51.65
-51.77
-51.46
-51.21
-50.60
-48.37
-43.44
-35.82
-26.51
-17.10
-9.00
-4.23
-4.34
-9.78
-19.60
-31.80
-43.91
-52.53
-54.02
-39.66
-6.28
39.84
84.76
114.97
124.06
113.26
90.27
62.36
35.05
10.55
-10.88
-29.47
-45.17
-55.20
-58.65
-55.84
-48.20
-37.51
-26.41
-17.04
-10.07
-4.66
0.73
6.84
13.77
20.95
27.60
32.47
34.83
35.11
34.86
36.06
39.70
45.61
52.54
58.48
61.11
58.23
49.19
35.61
20.75
7.23
-4.47
-15.26
-26.30
-38.34
-51.44
-64.08
-74.91
-83.04
-88.59
-92.41
-95.13
-97.48
-99.96
-100.38
-97.69
-91.98
-83.89
-73.95
-63.94
-52.57
-38.70
-21.77
-1.61
20.85
43.83
65.38
83.64
97.09
105.11
107.42
104.38
96.98
86.40
74.06
61.58
50.40
41.34
34.62
29.39
24.25
17.88
9.42
-1.19
-13.24
-25.79
-38.05
-49.39
-59.58
-68.45
-75.81
-81.51
-85.37
-87.20
-86.99
-85.13
-82.57
-80.86
-81.62
-85.74
-92.79
-100.87
-107.31
-109.79
-107.29
-100.15
-89.46
-75.92
-59.35
-38.95
-14.20
14.23
44.15
72.51
96.55
114.67
126.76
133.89
137.50
138.86
138.74
137.65
136.14
134.98
134.98
136.68
140.03
144.18
147.66
148.87
146.72
141.09
132.83
123.42
114.49
107.28
102.30
99.35
97.71
96.53
95.20
93.48
91.60
90.03
89.15
89.06
89.63
90.65
92.07
94.05
96.78
100.26
104.02
107.19
108.83
108.41
106.08
102.65
99.13
96.05
92.94
88.31
80.19
66.95
48.09
24.39
-2.38
-30.23
-57.76
-84.44
-110.44
-136.20
-161.88
-187.29
-211.91
-235.05
-255.98
-273.94
-287.91
-296.45
-297.77
-290.18
-272.75
-246.26
-213.47
-178.58
-145.89
-118.25
-96.10
-77.82
-61.06
-44.33
-27.94
-13.75
-3.97
0.32
-0.18
-3.37
-6.83
-8.97
-9.41
-8.75
-7.74
-6.75
-5.49
-3.46
-0.50
2.89
5.57
6.21
4.01
-0.85
-7.14
-13.06
-16.92
-17.83
-15.84
-11.72
-6.39
-0.35
6.43
14.48
24.39
36.52
50.90
67.28
85.28
104.42
124.11
143.41
161.13
175.97
187.02
194.09
197.87
199.55
200.30
200.65
200.20
197.78
191.99
181.74
166.67
147.11
123.83
97.78
69.90
41.22
13.02
-13.12
-35.57
-52.97
-64.55
-70.24
-70.58
-66.55
-59.53
-51.30
-44.12
-40.31
-41.33
-47.07
-55.62
-63.95
-68.93
-68.63
-62.98
-53.70
-43.37
-34.45
-28.49
-25.95
-26.59
-29.36
-32.51
-33.86
-31.46
-24.29
-12.90
0.55
12.59
18.77
15.64
2.12
-20.28
-48.22
-77.72
-105.31
-128.88
-147.93
-164.40
-179.88
-194.13
-205.31
-211.54
-212.07
-207.52
-199.44
-189.54
-181.19
-175.97
-172.74
-168.62
-161.25
-149.89
-135.27
-119.01
-103.30
-93.63
-94.09
-105.06
-122.91
-141.77
-155.19
-157.67
-146.09
-103.87
-30.27
58.42
138.84
195.97
228.14
241.37
242.24
234.76
220.87
198.78
168.83
135.22
103.83
78.32
58.41
40.99
22.36
3.20
-12.94
-21.73
-20.01
-8.49
7.99
23.69
35.49
43.81
50.84
56.63
59.81
59.20
55.08
49.02
42.73
37.19
32.64
29.08
26.34
25.45
27.90
35.74
49.56
67.66
87.54
106.98
124.70
139.51
149.78
153.16
147.20
130.10
101.46
63.84
22.01
-18.45
-53.09
-79.87
-99.30
-114.11
-124.21
-131.08
-135.79
-138.51
-138.89
-136.58
-131.63
-124.13
-113.13
-96.50
-72.28
-39.31
1.18
44.90
85.98
119.22
142.36
156.64
165.54
171.90
176.43
177.13
170.54
153.96
127.17
93.15
56.99
24.11
-1.88
-19.85
-30.95
-37.71
-42.63
-46.93
-50.22
-50.96
-47.38
-38.48
-24.33
-6.13
14.64
36.82
59.65
82.44
103.56
119.64
125.79
117.14
91.12
49.26
-2.57
-55.98
-103.01
-138.56
-161.46
-173.53
-177.73
-176.44
-170.82
-161.06
-147.01
-128.61
-105.85
-78.88
-48.24
-15.34
17.08
45.12
64.65
72.91
69.70
57.96
42.96
30.80
26.34
31.91
46.81
67.94
90.98
111.36
125.05
128.98
121.34
101.97
72.70
37.16
-0.13
-34.72
-62.96
-82.37
-91.68
-91.22
-83.29
-72.05
-62.57
-59.26
-64.04
-75.58
-89.86
-101.84
-107.11
-102.83
-87.88
-62.66
-29.03
9.61
48.37
81.85
105.52
117.33
118.32
111.93
102.31
92.95
85.89
81.84
80.80
82.52
86.45
91.56
96.11
97.85
94.60
85.08
69.25
48.31
24.20
-1.22
-26.71
-51.88
-76.90
-102.02
-126.80
-149.74
-168.35
-180.05
-183.36
-178.76
-168.76
-156.84
-145.91
-137.10
-129.58
-121.59
-111.69
-99.78
-87.01
-74.89
-64.18
-54.42
-44.28
-32.42
-18.12
-1.46
16.98
36.60
56.91
77.41
97.40
115.88
131.58
143.33
150.19
151.76
148.25
140.44
129.55
116.98
103.94
91.20
79.06
67.48
56.33
45.73
36.04
27.80
21.48
17.28
15.02
14.16
14.01
13.96
13.57
12.68
11.38
10.00
8.92
8.56
9.06
10.29
11.66
12.35
11.53
8.84
4.53
-0.53
-5.20
-8.55
-10.24
-10.58
-10.29
-10.04
-10.09
-10.12
-9.44
-7.32
-3.45
1.89
7.81
13.13
16.91
18.69
18.63
17.35
15.55
13.60
11.47
8.89
5.62
1.75
-2.33
-6.01
-8.85
-10.74
-12.02
-13.15
-14.53
-16.36
-18.61
-21.24
-24.41
-28.47
-33.77
-40.46
-48.28
-56.68
-65.07
-73.10
-80.81
-88.53
-96.63
-105.28
-114.38
-123.62
-132.74
-141.51
-149.81
-157.64
-165.08
-172.35
-179.84
-188.01
-197.11
-206.91
-216.41
-223.86
-227.15
-224.43
-214.66
-197.85
-174.71
-146.02
-112.12
-72.87
-28.25
20.68
71.27
119.54
161.35
193.71
215.68
228.16
233.07
232.33
227.33
219.03
208.32
196.24
183.71
171.17
158.25
144.04
127.57
108.23
85.95
60.95
33.59
4.31
-26.21
-56.90
-86.29
-112.68
-134.27
-149.21
-155.86
-153.21
-141.47
-122.50
-99.76
-77.36
-58.51
-44.27
-33.15
-22.08
-8.03
10.44
32.61
56.26
78.80
98.63
115.31
129.33
141.22
150.96
157.97
161.58
161.69
158.88
154.49
149.62
144.66
139.13
131.86
121.78
108.45
92.67
75.80
59.94
46.13
34.19
22.78
10.20
-4.71
-22.04
-40.74
-59.68
-76.69
-90.63
-100.94
-107.50
-110.41
-110.05
-107.37
-103.90
-102.36
-103.45
-107.74
-114.55
-121.99
-127.51
-128.77
-124.85
-116.39
-106.39
-96.12
-87.38
-81.35
-78.34
-78.15
-80.09
-83.23
-79.45
-75.18
-67.07
-53.27
-32.87
-5.70
28.05
67.76
111.31
154.82
191.61
216.69
225.88
218.21
196.23
165.11
130.57
96.67
65.74
38.34
14.83
-1.30
-6.86
-2.37
8.41
22.53
36.50
47.13
51.40
48.49
37.63
21.16
2.63
-14.51
-27.83
-36.56
-41.02
-42.68
-43.41
-44.56
-47.93
-56.24
-71.99
-95.01
-121.29
-143.59
-154.75
-150.64
-129.61
-92.87
-43.75
13.91
77.29
144.75
214.36
282.17
329.30
336.48
296.12
219.35
128.69
44.94
-20.26
-65.03
-94.52
-116.47
-135.50
-150.67
-158.09
-155.23
-142.74
-124.21
-104.82
-89.43
-80.88
-77.38
-74.61
-68.40
-56.79
-40.60
-22.40
-5.22
8.61
18.24
25.41
32.93
42.65
54.05
64.59
71.48
73.23
70.39
65.03
60.08
57.79
58.66
61.39
63.78
63.89
60.57
53.47
42.71
28.89
12.87
-4.38
-21.91
-38.84
-54.33
-67.57
-77.79
-84.35
-86.93
-85.67
-81.21
-74.60
-66.90
-58.92
-50.99
-42.99
-34.57
-25.50
-15.93
-6.55
1.63
7.65
10.97
11.69
10.55
8.64
7.03
6.55
7.47
9.65
12.53
15.21
16.74
16.25
13.25
7.60
-0.43
-10.40
-22.00
-35.21
-50.19
-66.96
-84.99
-102.83
-118.09
-127.82
-129.16
-120.20
-100.74
-72.59
-39.16
-4.64
27.35
54.69
77.05
95.22
110.13
122.00
130.22
134.05
133.40
129.35
123.70
117.90
112.20
105.39
95.65
81.76
64.02
44.33
25.31
9.04
-3.64
-13.11
-20.26
-25.75
-29.62
-31.49
-31.06
-28.33
-23.66
-17.44
-9.83
-0.86
9.42
20.60
31.93
42.49
51.38
57.98
61.90
63.01
61.41
57.45
51.56
44.21
35.80
26.80
17.91
10.13
4.70
2.54
3.86
7.85
12.95
17.55
20.55
21.75
21.57
20.60
19.17
17.23
14.52
10.90
6.65
2.26
-1.67
-4.87
-7.44
-9.83
-12.56
-16.03
-20.38
-25.47
-30.98
-36.46
-41.36
-45.04
-46.93
-46.64
-44.15
-39.85
-34.31
-28.14
-21.78
-15.49
-9.45
-3.87
1.00
4.95
7.86
9.82
10.97
11.56
11.76
11.74
11.63
11.58
11.68
11.92
12.23
12.48
12.66
12.93
13.53
14.64
16.26
18.17
20.03
21.57
22.75
23.75
24.78
25.87
26.88
27.57
27.78
27.56
27.09
26.56
25.99
25.20
23.96
22.11
19.62
16.57
13.06
9.18
5.03
0.72
-3.61
-7.87
-12.05
-16.15
-20.16
-24.00
-27.56
-30.75
-33.58
-36.09
-38.30
-40.15
-41.51
-42.24
-42.26
-41.60
-40.29
-38.46
-36.28
-33.97
-31.76
-29.82
-28.22
-27.01
-26.25
-26.15
-27.00
-29.01
-32.11
-35.78
-39.16
-41.35
-41.80
-40.56
-38.24
-35.68
-33.58
-32.26
-31.75
-31.89
-32.54
-33.57
-34.78
-35.77
-36.01
-35.14
-33.22
-30.77
-28.46
-26.62
-24.95
-22.73
-19.21
-14.11
-7.78
-1.05
5.23
10.40
14.20
16.60
17.63
17.39
16.20
14.68
13.79
14.53
17.50
22.56
28.72
34.46
38.19
38.88
36.52
32.16
27.62
24.78
24.90
28.14
33.73
40.36
46.73
51.96
55.67
57.80
58.40
57.63
55.86
53.74
52.16
51.88
53.21
55.79
58.71
60.88
61.52
60.45
58.07
55.09
52.12
49.40
46.67
43.25
38.28
31.06
21.36
9.66
-2.83
-14.60
-24.40
-31.82
-37.50
-42.75
-48.84
-56.26
-64.54
-72.46
-78.87
-83.10
-85.11
-85.25
-83.77
-80.82
-76.81
-72.86
-70.58
-71.33
-74.98
-79.35
-80.72
-75.69
-63.11
-45.16
-26.72
-13.29
-8.54
-12.83
-23.33
-35.53
-45.23
-49.84
-48.66
-42.22
-31.35
-16.64
1.54
22.68
45.70
68.84
89.85
106.72
118.20
124.30
126.19
125.62
124.21
122.84
121.49
119.52
116.22
111.23
104.72
97.18
89.14
80.97
72.79
64.62
56.41
48.21
40.03
31.89
23.83
15.85
8.05
0.48
-6.87
-14.06
-21.17
-28.27
-35.29
-42.06
-48.38
-54.10
-59.22
-63.80
-68.01
-71.93
-75.63
-79.04
-81.98
-84.19
-85.50
-85.93
-85.74
-85.43
-85.43
-85.89
-86.52
-86.55
-85.04
-81.25
-75.01
-66.74
-57.35
-47.83
-38.87
-30.72
-23.20
-15.93
-8.56
-0.93
6.90
14.76
22.44
29.83
36.85
43.47
49.64
55.29
60.33
64.75
68.58
71.97
75.17
78.42
81.99
85.94
90.11
94.11
97.45
99.72
100.83
101.04
100.79
100.49
100.28
100.07
99.58
98.63
97.22
95.47
93.55
91.39
88.74
85.20
80.48
74.53
67.52
59.71
51.32
42.39
32.90
22.91
12.73
2.84
-6.19
-13.88
-19.96
-24.36
-27.09
-28.15
-27.45
-24.91
-20.59
-14.84
-8.35
-2.10
2.93
5.99
6.83
5.74
3.41
0.65
-1.88
-3.87
-5.29
-6.35
-7.27
-8.22
-9.31
-10.55
-11.90
-13.30
-14.62
-15.79
-16.81
-17.80
-18.97
-20.58
-22.77
-25.56
-28.73
-31.97
-34.87
-37.06
-38.31
-38.58
-38.06
-37.14
-36.22
-35.65
-35.58
-35.99
-36.71
-37.52
-38.30
-39.01
-39.71
-40.51
-41.54
-42.95
-44.89
-47.46
-50.65
-54.28
-57.98
-61.31
-63.92
-65.60
-66.23
-65.74
-63.99
-60.91
-56.80
-52.48
-49.17
-48.16
-50.15
-54.87
-61.12
-67.27
-71.90
-74.39
-75.00
-74.73
-74.84
-76.45
-80.33
-86.70
-95.07
-104.30
-112.69
-118.55
-120.82
-119.59
-116.11
-112.23
-109.40
-107.95
-106.80
-104.22
-98.71
-90.18
-80.16
-71.41
-66.82
-68.42
-76.65
-90.24
-106.51
-121.93
-132.79
-135.90
-129.34
-112.84
-87.64
-56.00
-20.13
18.73
60.63
106.17
155.17
205.37
252.04
289.04
310.74
314.15
299.80
271.46
234.54
194.25
154.18
115.88
79.48
44.75
11.99
-17.73
-42.84
-62.17
-75.63
-84.42
-90.49
-95.63
-100.38
-103.33
-101.68
-92.48
-74.41
-48.87
-19.91
7.46
29.55
45.57
57.74
69.72
84.23
101.26
117.90
129.97
134.43
131.12
122.82
113.68
106.92
103.36
101.39
98.37
92.28
82.73
70.88
58.56
47.20
37.21
28.06
18.84
8.98
-1.35
-11.23
-19.32
-24.40
-25.85
-23.98
-20.01
-15.79
-13.32
-14.25
-19.57
-29.47
-43.37
-60.14
-78.32
-96.30
-112.52
-125.71
-134.94
-139.79
-140.33
-137.33
-132.15
-126.50
-122.01
-119.59
-118.94
-118.64
-116.62
-111.08
-101.27
-87.91
-72.84
-58.39
-46.54
-38.29
-33.51
-31.06
-29.36
-26.92
-22.86
-17.15
-10.52
-4.07
1.36
5.56
9.15
13.43
19.97
30.15
44.88
64.40
88.35
115.90
145.76
176.42
206.22
233.42
256.34
273.40
283.13
284.24
275.72
257.03
228.40
190.81
145.91
95.88
43.55
-7.41
-52.54
-87.13
-107.65
-112.88
-104.48
-86.15
-62.03
-35.19
-7.44
19.63
43.35
59.56
63.73
53.36
29.75
-1.85
-34.14
-60.67
-78.09
-86.47
-88.11
-85.64
-80.73
-73.97
-65.53
-56.07
-46.93
-39.73
-35.52
-34.29
-34.74
-35.03
-33.57
-29.75
-24.15
-18.27
-13.75
-11.75
-12.60
-15.83
-20.52
-25.61
-30.06
-32.92
-33.49
-31.37
-26.69
-20.10
-12.53
-4.76
2.85
10.51
18.64
27.51
36.79
45.60
52.65
56.70
56.83
52.70
44.68
33.85
21.97
11.05
2.95
-1.21
-1.32
1.81
6.88
12.64
18.24
23.29
27.69
31.35
34.18
36.14
37.55
39.13
41.93
46.91
54.52
64.56
76.22
88.50
100.70
112.69
124.77
137.13
149.28
159.77
166.48
167.29
161.07
148.28
131.30
114.01
100.96
95.91
100.50
113.29
129.95
144.48
151.17
146.41
129.59
102.72
69.05
31.62
-7.70
-48.39
-90.84
-135.56
-182.47
-230.35
-276.56
-317.38
-348.77
-367.75
-373.61
-368.44
-356.68
-343.55
-333.44
-328.81
-330.00
-335.95
-344.93
-354.84
-363.01
-366.00
-359.88
-341.31
-308.92
-264.09
-210.79
-154.25
-99.21
-48.44
-2.54
39.39
78.40
114.85
148.12
177.14
201.03
219.54
233.08
242.25
247.64
249.63
248.51
244.67
238.77
231.61
224.05
216.78
210.16
204.18
198.51
192.63
185.98
178.09
168.67
157.64
145.10
131.29
116.51
101.06
85.11
68.68
51.52
33.18
13.16
-8.71
-31.83
-54.73
-75.30
-91.48
-101.92
-106.48
-106.16
-102.58
-97.34
-91.54
-85.62
-79.70
-73.84
-68.26
-63.28
-59.10
-55.72
-52.91
-50.41
-48.15
-46.24
-44.85
-44.04
-43.63
-43.24
-42.50
-41.24
-39.61
-38.01
-36.93
-36.73
-37.53
-39.22
-41.47
-43.81
-45.74
-46.80
-46.73
-45.50
-43.32
-40.66
-38.25
-36.88
-37.33
-40.10
-45.14
-51.68
-58.37
-63.72
-66.59
-66.76
-64.98
-62.59
-61.01
-61.01
-62.46
-64.23
-64.37
-60.57
-50.70
-33.47
-9.00
20.96
53.36
84.59
111.56
132.39
146.56
154.44
156.71
153.76
145.92
133.79
118.62
102.42
87.36
75.10
66.15
59.91
55.10
50.55
45.79
41.14
37.35
34.90
33.65
32.76
31.07
27.63
22.10
14.80
6.38
-2.39
-10.92
-18.64
-25.01
-29.40
-31.33
-30.73
-28.10
-24.43
-20.77
-17.79
-15.48
-13.24
-10.22
-5.85
-0.14
6.25
12.31
17.03
19.81
20.65
20.05
18.84
17.73
17.12
17.00
17.09
17.09
16.86
16.45
16.08
15.81
15.51
14.90
13.76
12.04
9.96
7.87
6.05
4.50
2.95
0.93
-1.90
-5.64
-10.08
-14.75
-19.22
-23.22
-26.73
-29.85
-32.62
-34.84
-36.04
-35.62
-33.10
-28.46
-22.22
-15.33
-8.82
-3.43
0.75
4.18
7.56
11.43
15.71
19.74
22.62
23.74
23.13
21.48
19.82
18.96
19.23
20.38
21.94
23.48
24.78
25.79
26.41
26.45
25.64
23.87
21.28
18.22
15.12
12.26
9.72
7.40
5.15
2.79
0.16
-2.88
-6.35
-10.16
-14.13
-18.10
-22.05
-26.06
-30.20
-34.17
-37.19
-38.11
-35.87
-30.07
-21.30
-11.01
-0.93
7.53
13.78
18.01
20.78
22.60
23.51
23.22
21.42
18.07
13.65
9.08
5.43
3.55
3.81
6.11
9.92
14.61
19.62
24.59
29.38
33.87
38.00
41.69
44.86
47.50
49.54
50.93
51.40
50.71
48.87
46.41
44.45
44.57
48.35
56.65
68.93
82.79
94.16
98.17
90.66
69.63
36.27
-5.19
-48.66
-87.95
-118.38
-137.57
-145.30
-142.84
-132.14
-115.54
-95.64
-75.15
-56.53
-41.40
-30.06
-21.52
-14.00
-5.74
4.14
15.28
26.18
34.96
40.04
40.79
37.62
31.76
24.69
17.62
11.16
5.49
0.86
-2.13
-2.31
1.55
10.13
22.95
38.37
53.97
67.31
76.49
80.39
78.50
70.86
58.06
41.36
22.47
3.30
-14.53
-29.86
-41.66
-48.76
-49.83
-44.26
-32.99
-19.00
-6.63
0.16
-0.34
-6.84
-15.96
-24.17
-29.74
-33.29
-36.92
-42.65
-51.06
-61.20
-71.25
-79.39
-84.22
-84.72
-79.96
-69.28
-52.95
-32.70
-11.96
4.86
13.72
12.47
1.87
-14.62
-32.06
-45.68
-52.13
-50.01
-39.44
-21.55
1.91
28.36
54.41
76.13
89.86
93.48
87.05
72.74
53.82
33.43
13.75
-3.94
-18.65
-29.36
-35.00
-35.08
-30.18
-21.95
-12.55
-3.92
2.77
7.13
9.18
9.09
7.08
3.52
-0.97
-5.61
-9.91
-13.81
-17.69
-22.04
-26.94
-31.83
-35.63
-37.24
-36.06
-32.26
-26.71
-20.53
-14.73
-9.99
-6.64
-4.88
-4.89
-6.77
-10.53
-15.89
-22.18
-28.43
-33.48
-36.29
-36.12
-32.83
-26.81
-18.94
-10.29
-1.74
6.16
13.29
19.68
25.30
29.84
32.76
33.57
32.04
28.43
23.39
17.71
12.08
6.94
2.53
-0.97
-3.34
-4.29
-3.67
-1.66
1.26
4.39
7.13
9.16
10.53
11.45
12.07
12.28
11.72
9.96
6.71
1.98
-3.96
-10.61
-17.44
-23.88
-29.37
-33.51
-36.01
-36.78
-35.86
-33.40
-29.53
-24.38
-18.17
-11.24
-4.21
2.15
7.00
9.69
9.99
8.14
4.80
0.80
-3.10
-6.44
-9.00
-10.75
-11.53
-11.04
-8.90
-4.86
0.97
8.22
16.36
25.08
34.19
43.53
52.70
61.06
67.99
73.30
77.46
81.40
85.98
91.33
96.59
100.06
99.69
93.86
81.86
64.14
42.19
18.30
-4.78
-24.23
-37.68
-43.68
-42.04
-33.98
-21.80
-8.22
4.37
14.52
21.98
27.42
31.75
35.59
38.82
40.79
40.80
38.64
34.91
30.82
27.91
27.44
30.05
35.50
42.83
50.70
57.68
62.62
64.82
64.00
60.25
53.89
45.41
35.44
24.81
14.40
5.01
-2.80
-9.02
-14.12
-18.87
-23.99
-29.76
-35.95
-41.96
-47.19
-51.53
-55.53
-60.21
-66.49
-74.64
-83.89
-92.60
-98.73
-100.73
-98.00
-91.12
-81.44
-70.58
-59.84
-49.93
-41.02
-33.00
-25.85
-19.67
-14.73
-11.23
-9.12
-8.21
-8.11
-8.54
-9.33
-10.46
-11.92
-13.63
-15.42
-17.04
-18.35
-19.36
-20.29
-21.51
-23.33
-25.86
-28.99
-32.43
-35.78
-38.86
-41.79
-44.95
-48.80
-53.58
-59.16
-65.01
-70.43
-74.89
-78.36
-81.21
-84.15
-87.81
-92.57
-98.28
-104.23
-109.29
-112.05
-111.25
-106.14
-96.74
-83.97
-69.27
-54.22
-39.95
-27.03
-15.32
-4.31
6.65
18.07
30.11
42.66
55.23
67.08
77.38
85.42
90.87
93.84
94.81
94.37
93.05
91.14
88.77
85.91
82.48
78.39
73.51
67.78
61.19
53.90
46.18
38.39
30.95
24.13
18.03
12.58
7.55
2.69
-2.17
-7.00
-11.52
-15.28
-17.90
-19.23
-19.62
-19.88
-21.06
-23.97
-28.69
-34.36
-39.35
-41.88
-40.72
-35.70
-27.79
-18.62
-9.91
-2.96
1.47
3.06
1.67
-2.70
-9.84
-19.23
-29.95
-40.76
-50.35
-57.55
-61.51
-61.81
-58.48
-51.95
-42.94
-32.24
-20.61
-8.44
4.43
18.96
36.87
60.12
90.08
126.53
167.12
207.62
243.03
269.15
283.80
287.30
281.84
270.56
256.66
243.28
233.47
230.35
236.43
252.58
277.08
305.54
331.95
350.36
356.71
349.70
330.49
301.50
265.06
222.66
174.76
121.65
64.13
3.72
-57.46
-117.71
-176.54
-235.22
-296.01
-360.37
-426.82
-490.05
-541.94
-574.41
-582.94
-568.56
-537.59
-498.78
-460.04
-425.88
-397.12
-372.40
-350.19
-330.02
-312.09
-296.31
-281.51
-265.97
-248.65
-230.35
-213.50
-200.57
-192.44
-187.34
-181.68
-172.13
-157.51
-139.34
-120.71
-104.34
-91.50
-82.21
-76.44
-75.01
-79.20
-89.28
-103.43
-118.08
-129.64
-136.67
-140.53
-144.38
-151.00
-161.22
-173.88
-187.22
-200.27
-213.15
-226.13
-238.30
-247.12
-249.28
-242.45
-226.54
-203.65
-176.87
-148.52
-119.09
-87.50
-52.10
-12.01
32.08
78.11
123.42
165.84
204.29
238.95
270.90
301.68
332.96
366.35
403.06
443.17
484.79
523.73
554.11
570.12
568.31
549.11
516.87
478.12
439.22
404.21
374.32
348.65
325.66
304.24
283.76
263.59
242.58
219.20
192.38
162.39
131.22
102.01
77.86
60.48
49.52
42.86
37.71
31.81
24.31
15.76
7.50
0.86
-3.38
-5.06
-4.31
-1.23
4.19
11.87
21.43
31.99
42.50
52.09
60.40
67.55
73.72
78.55
80.81
78.66
70.41
55.47
34.98
11.73
-10.80
-29.40
-41.99
-47.80
-47.17
-41.15
-31.29
-19.55
-8.17
0.69
5.55
6.00
2.82
-2.46
-8.32
-13.77
-18.54
-22.76
-26.58
-29.87
-32.32
-33.66
-33.97
-33.75
-33.75
-34.80
-37.57
-42.46
-49.50
-58.44
-68.77
-79.82
-90.90
-101.25
-110.08
-116.49
-119.47
-118.07
-111.63
-100.17
-84.56
-66.34
-47.46
-29.64
-14.11
-1.41
8.54
16.09
21.71
25.81
28.69
30.56
31.63
32.16
32.48
32.98
33.97
35.61
37.74
39.91
41.64
42.57
42.68
42.18
41.32
40.25
38.80
36.75
33.87
30.14
25.77
21.14
16.61
12.47
8.83
5.64
2.77
0.08
-2.48
-4.88
-7.01
-8.83
-10.52
-12.47
-15.23
-19.10
-23.92
-28.86
-32.57
-33.61
-30.92
-24.30
-14.38
-2.53
9.60
20.58
29.44
35.79
39.69
41.45
41.46
40.19
38.15
35.89
33.97
32.75
32.35
32.53
32.88
32.95
32.50
31.52
30.25
28.95
27.76
26.68
25.53
24.18
22.57
20.78
18.99
17.40
16.22
15.55
15.38
15.54
15.72
15.51
14.55
12.57
9.44
5.20
-0.04
-6.07
-12.53
-18.84
-24.16
-27.60
-28.49
-26.64
-22.50
-17.08
-11.51
-6.75
-3.25
-0.99
0.32
0.96
0.95
0.11
-1.86
-5.12
-9.56
-14.82
-20.35
-25.63
-30.31
-34.26
-37.54
-40.24
-42.42
-44.03
-44.98
-45.20
-44.76
-43.93
-43.11
-42.74
-43.10
-44.23
-45.94
-47.84
-49.57
-50.85
-51.55
-51.70
-51.41
-50.92
-50.61
-50.86
-51.92
-53.67
-55.49
-56.33
-55.05
-50.86
-43.70
-34.31
-23.94
-13.96
-5.33
1.59
7.03
11.48
15.37
18.83
21.69
23.69
24.65
24.64
23.95
22.97
21.92
20.86
19.63
18.13
16.44
14.87
13.82
13.51
13.77
13.98
13.38
11.34
7.74
3.03
-1.94
-6.31
-9.60
-11.84
-13.65
-15.86
-19.24
-24.10
-30.18
-36.60
-42.07
-45.34
-45.39
-41.86
-35.10
-26.06
-16.00
-6.10
2.69
9.85
15.14
18.56
20.19
20.24
19.08
17.26
15.38
13.94
13.16
12.87
12.75
12.43
11.77
10.92
10.13
9.59
9.19
8.61
7.44
5.50
2.89
-0.03
-2.88
-5.54
-8.15
-11.03
-14.50
-18.71
-23.57
-28.92
-34.55
-40.11
-45.03
-48.40
-49.12
-46.24
-39.41
-29.10
-16.58
-3.57
8.36
18.05
25.08
29.52
31.79
32.38
31.77
30.31
28.28
25.92
23.38
20.81
18.42
16.39
14.87
13.92
13.42
13.14
12.79
12.08
10.84
8.96
6.36
2.98
-1.21
-6.06
-11.23
-16.16
-20.32
-23.42
-25.68
-27.75
-30.49
-34.51
-39.77
-45.49
-50.29
-52.69
-51.52
-46.42
-37.83
-26.81
-14.76
-2.97
7.58
16.41
23.40
28.71
32.56
35.06
36.22
36.00
34.50
32.03
29.10
26.24
23.86
22.07
20.72
19.56
18.36
17.11
15.90
14.80
13.75
12.54
10.90
8.63
5.78
2.54
-0.78
-3.85
-6.50
-8.68
-10.45
-11.94
-13.34
-14.89
-16.93
-19.74
-23.48
-27.96
-32.51
-35.93
-36.77
-33.77
-26.31
-14.71
-0.15
15.66
30.99
44.50
55.51
63.92
70.04
74.43
77.62
80.04
81.91
83.28
84.18
84.67
84.99
85.44
86.31
87.81
89.97
92.72
95.85
98.93
101.23
101.79
99.79
94.97
87.95
80.24
73.85
70.44
70.58
73.33
76.32
76.49
71.14
58.85
40.07
16.87
-7.84
-31.23
-51.41
-67.61
-79.91
-88.58
-93.66
-94.97
-92.51
-86.86
-79.34
-71.59
-65.06
-60.50
-57.78
-56.27
-55.23
-54.29
-53.54
-53.37
-54.07
-55.62
-57.60
-59.38
-60.46
-60.73
-60.48
-60.22
-60.41
-61.14
-62.19
-63.18
-63.87
-64.31
-64.83
-65.78
-67.28
-69.18
-71.05
-72.51
-73.41
-73.97
-74.67
-76.02
-78.32
-81.46
-84.95
-88.10
-90.12
-90.42
-88.60
-84.60
-78.63
-71.24
-63.30
-55.90
-49.96
-45.80
-42.65
-38.75
-31.93
-20.60
-4.68
14.24
33.34
49.76
61.69
68.85
72.23
73.27
73.06
71.96
69.71
66.03
60.98
55.16
49.38
44.39
40.55
37.69
35.33
32.87
29.97
26.63
23.22
20.19
17.79
15.89
13.99
11.48
7.97
3.51
-1.34
-5.80
-9.20
-11.31
-12.43
-13.22
-14.35
-16.17
-18.64
-21.35
-23.80
-25.66
-27.03
-28.24
-29.80
-31.99
-34.83
-38.06
-41.24
-43.84
-45.27
-44.96
-42.32
-37.08
-29.32
-19.69
-9.23
0.84
9.55
16.42
21.44
24.94
27.30
28.77
29.42
29.22
28.10
26.10
23.46
20.55
17.77
15.41
13.52
11.90
10.21
8.17
5.67
2.94
0.33
-1.85
-3.56
-5.11
-7.01
-9.75
-13.50
-17.94
-22.40
-26.16
-28.81
-30.58
-32.33
-35.03
-39.43
-45.58
-52.83
-60.03
-65.85
-69.15
-69.15
-65.69
-59.07
-50.32
-40.91
-32.46
-26.31
-23.02
-22.20
-22.81
-23.73
-24.04
-23.56
-22.58
-21.23
-19.21
-15.39
-8.27
3.11
18.21
35.57
52.63
66.92
77.35
84.19
89.69
97.13
109.43
127.88
152.73
182.18
213.16
242.42
266.37
282.82
291.45
293.62
291.65
288.98
287.26
285.24
278.99
264.16
238.65
205.42
172.14
139.82
109.76
80.50
47.42
13.35
-20.93
-53.63
-82.16
-104.59
-121.20
-133.30
-143.79
-155.60
-170.14
-188.01
-207.82
-227.43
-245.34
-261.68
-277.25
-293.80
-313.21
-336.82
-366.40
-403.06
-446.74
-495.42
-544.45
-586.12
-612.14
-616.34
-596.96
-557.89
-506.41
-450.36
-395.62
-345.03
-298.70
-255.74
-215.58
-178.11
-143.42
-110.81
-78.75
-45.64
-10.71
25.63
61.99
96.56
128.23
157.05
184.21
211.52
240.42
271.24
302.76
332.32
356.28
370.98
373.90
364.64
345.40
320.32
294.04
269.92
248.95
229.95
210.87
190.38
168.70
147.10
126.69
107.41
88.10
67.71
46.54
26.53
10.35
-0.23
-5.32
-6.66
-6.35
-5.63
-4.44
-2.05
1.95
7.19
12.89
18.49
24.04
29.96
36.41
42.95
48.75
53.30
56.69
59.45
61.86
63.46
63.23
60.34
54.93
48.18
41.59
36.02
31.33
26.72
21.69
16.42
11.73
8.38
6.50
5.60
5.06
4.54
4.00
3.31
1.81
-1.41
-6.90
-14.15
-21.61
-27.49
-30.80
-31.93
-32.28
-33.29
-35.47
-38.27
-40.52
-41.16
-39.62
-35.79
-29.74
-21.70
-12.23
-2.34
6.68
13.75
18.50
21.23
22.51
22.66
21.52
18.78
14.51
9.34
4.29
0.05
-3.43
-6.87
-11.13
-16.54
-22.68
-28.77
-34.23
-39.12
-44.19
-50.43
-58.65
-69.17
-81.64
-95.15
-108.55
-120.97
-132.35
-143.61
-156.27
-171.46
-189.15
-207.94
-225.91
-242.04
-257.16
-273.79
-294.63
-320.66
-349.88
-377.68
-398.54
-408.33
-405.75
-392.47
-371.91
-347.48
-321.28
-293.53
-263.02
-227.95
-186.93
-139.65
-87.01
-30.81
26.82
84.03
139.57
192.88
243.94
293.08
340.82
387.55
433.11
476.29
514.57
544.29
561.38
562.65
547.38
518.53
482.54
447.57
420.57
404.78
398.64
397.10
394.22
385.95
371.42
352.44
331.78
311.61
292.82
275.60
260.25
247.81
239.55
236.33
237.94
243.20
250.55
258.57
266.08
272.14
276.13
277.86
277.88
277.48
278.13
280.75
285.05
289.56
292.18
291.05
285.15
274.63
260.64
245.08
230.03
217.22
207.36
199.74
192.29
182.35
167.60
146.91
120.70
90.68
59.05
27.69
-2.49
-31.92
-62.43
-96.75
-137.58
-186.35
-241.96
-300.19
-354.33
-397.20
-423.73
-433.22
-429.87
-421.47
-416.66
-422.03
-439.89
-467.72
-499.10
-525.86
-540.62
-538.91
-520.24
-487.82
-447.15
-403.95
-362.37
-324.17
-289.00
-255.47
-222.46
-189.85
-158.48
-129.52
-103.77
-81.39
-61.96
-44.99
-30.18
-17.64
-7.63
-0.17
5.30
10.01
15.42
22.52
31.12
39.65
45.93
48.41
47.22
44.26
42.04
42.19
44.46
47.01
47.68
45.45
40.92
35.81
31.83
29.75
29.20
29.28
29.19
28.51
27.12
24.88
21.59
17.11
11.61
5.51
-0.73
-6.71
-12.05
-16.13
-18.14
-17.43
-14.04
-8.99
-3.91
-0.17
1.88
3.11
4.93
8.32
13.17
18.44
22.91
25.91
27.59
28.48
29.05
29.39
29.44
29.33
29.45
30.29
31.93
33.96
35.60
36.19
35.48
33.61
30.87
27.46
23.52
19.31
15.38
12.31
10.37
9.25
8.26
6.83
4.94
3.15
2.13
2.08
2.43
2.20
0.59
-2.50
-6.45
-10.41
-13.85
-16.77
-19.35
-21.48
-22.56
-21.81
-18.84
-14.05
-8.63
-3.80
-0.27
2.11
4.05
6.19
8.69
11.10
12.85
13.78
14.14
14.24
14.16
13.78
13.01
12.10
11.52
11.64
12.66
14.16
15.25
15.07
13.38
10.62
7.56
4.69
1.90
-0.65
-2.93
-5.10
-7.65
-11.23
-16.42
-23.50
-32.28
-42.19
-50.71
-55.89
-57.67
-58.15
-60.26
-66.10
-76.13
-89.58
-105.30
-118.40
-125.10
-124.55
-119.48
-114.31
-112.97
-117.71
-129.00
-145.56
-157.55
-154.67
-130.45
-85.06
-23.76
46.36
118.73
188.33
251.75
316.47
390.15
475.85
569.94
665.64
757.91
845.54
929.54
964.32
917.40
782.07
585.01
366.69
158.89
-20.95
-165.28
-268.15
-340.74
-384.06
-398.35
-387.34
-359.76
-326.19
-295.20
-270.37
-253.87
-247.10
-242.71
-233.75
-217.14
-195.01
-172.31
-153.47
-140.98
-135.95
-138.99
-144.90
-148.70
-147.61
-141.90
-133.69
-125.20
-118.06
-113.72
-113.47
-115.31
-116.84
-116.13
-112.30
-105.20
-94.98
-82.04
-67.37
-52.52
-38.05
-24.41
-12.07
-1.49
7.02
13.41
17.90
20.81
22.41
23.17
23.41
23.20
22.52
21.27
19.48
17.35
15.17
13.30
12.03
11.43
11.36
11.54
11.67
11.51
11.01
10.26
9.39
8.47
7.50
6.36
5.01
3.48
1.95
0.69
-0.07
-0.32
-0.24
-0.13
-0.26
-0.67
-1.23
-1.65
-1.59
-0.92
0.22
1.46
2.32
2.45
1.74
0.31
-1.51
-3.27
-4.53
-4.83
-3.71
-0.75
4.32
11.51
20.37
29.98
39.12
46.56
51.40
53.22
52.06
48.21
42.05
33.98
24.62
15.06
6.87
1.90
1.57
6.24
14.76
24.73
33.22
37.78
37.28
32.08
23.70
13.98
4.39
-4.36
-12.22
-19.42
-26.01
-31.67
-35.85
-38.11
-38.48
-37.64
-36.81
-37.20
-39.63
-44.10
-49.88
-55.84
-61.00
-64.94
-67.87
-70.39
-73.02
-75.97
-79.12
-82.22
-85.18
-88.06
-90.98
-93.78
-96.02
-97.15
-96.77
-94.99
-92.26
-89.17
-85.97
-82.41
-77.82
-71.49
-63.01
-52.56
-40.85
-28.89
-17.74
-8.12
-0.45
5.18
8.84
10.71
11.03
10.10
8.36
6.29
4.35
2.92
2.11
1.85
1.84
1.69
0.99
-0.54
-2.88
-5.64
-8.10
-9.52
-9.51
-8.28
-6.69
-5.83
-6.48
-8.73
-11.94
-15.11
-17.39
-18.38
-18.21
-17.30
-16.05
-14.70
-13.39
-12.33
-11.76
-11.92
-12.87
-14.47
-16.43
-18.38
-20.01
-21.02
-21.13
-20.08
-17.61
-13.59
-7.95
-0.73
8.04
18.15
29.19
40.48
51.16
60.44
67.91
73.59
77.83
81.01
83.26
84.45
84.39
83.01
80.48
77.22
73.62
69.94
66.24
62.43
58.41
54.20
49.87
45.59
41.54
37.83
34.54
31.58
28.75
25.79
22.54
18.95
15.26
11.80
8.87
6.61
5.00
3.84
2.95
2.19
1.46
0.69
-0.17
-1.17
-2.37
-3.81
-5.59
-7.77
-10.38
-13.37
-16.65
-20.08
-23.52
-26.78
-29.55
-31.43
-31.98
-31.08
-29.10
-26.87
-25.41
-25.44
-27.06
-29.73
-32.69
-35.40
-37.91
-40.73
-44.50
-49.55
-55.71
-62.41
-68.94
-74.83
-79.94
-84.35
-88.23
-91.64
-94.45
-96.41
-97.18
-96.33
-93.16
-86.55
-74.90
-56.58
-30.48
3.38
43.62
87.58
131.80
172.77
207.49
234.03
251.69
260.94
263.23
260.56
254.97
248.06
240.66
232.78
223.94
213.62
201.54
187.63
171.83
154.03
134.10
112.25
89.11
65.74
43.21
22.25
2.93
-15.18
-32.53
-49.15
-64.34
-76.97
-86.00
-90.96
-92.30
-91.01
-88.15
-84.35
-79.73
-74.20
-67.93
-61.69
-56.70
-54.24
-54.98
-58.59
-63.79
-68.93
-72.71
-74.71
-75.46
-76.01
-77.29
-79.55
-82.27
-84.46
-85.23
-84.18
-81.60
-78.22
-74.82
-71.92
-69.67
-67.91
-66.40
-64.76
-62.39
-58.41
-51.85
-41.95
-28.74
-13.24
2.82
17.48
29.24
37.52
42.60
45.27
46.33
46.30
45.31
43.31
40.32
36.53
32.28
27.96
23.95
20.45
17.57
15.23
13.29
11.57
9.95
8.39
6.95
5.70
4.70
3.83
2.91
1.67
-0.06
-2.30
-4.80
-7.24
-9.30
-10.89
-12.15
-13.39
-14.92
-16.91
-19.26
-21.64
-23.71
-25.27
-26.38
-27.38
-28.69
-30.62
-33.29
-36.61
-40.37
-44.31
-48.05
-51.02
-52.45
-51.46
-47.45
-40.36
-30.91
-20.39
-10.26
-1.64
4.94
9.56
12.65
14.64
15.85
16.38
16.27
15.56
14.42
13.13
11.98
11.25
11.06
11.40
12.05
12.71
13.07
13.00
12.54
11.97
11.55
11.33
11.15
10.66
9.56
7.79
5.58
3.30
1.23
-0.60
-2.43
-4.54
-7.03
-9.75
-12.40
-14.75
-16.95
-19.43
-22.64
-26.80
-31.59
-36.28
-40.03
-42.30
-43.06
-42.89
-42.66
-43.24
-45.19
-48.59
-53.01
-57.55
-60.97
-61.98
-59.57
-53.32
-43.61
-31.50
-18.46
-5.87
5.31
14.64
22.18
28.23
33.20
37.36
40.83
43.61
45.62
46.73
46.87
46.11
44.64
42.79
40.90
39.27
38.07
37.35
37.02
36.95
37.02
37.09
37.08
36.94
36.64
36.10
35.30
34.20
32.88
31.50
30.16
28.90
27.64
26.21
24.54
22.74
21.11
20.08
19.93
20.63
21.80
22.65
22.27
19.86
14.96
7.71
-1.13
-10.32
-18.47
-24.45
-27.71
-28.35
-26.92
-24.09
-20.42
-16.26
-11.85
-7.48
-3.51
-0.29
2.08
3.76
5.18
6.68
8.36
9.99
11.18
11.65
11.49
11.07
10.84
11.15
11.99
13.11
14.08
14.55
14.36
13.59
12.47
11.27
10.09
8.90
7.46
5.52
2.94
-0.15
-3.36
-6.21
-8.39
-9.95
-11.36
-13.22
-15.96
-19.56
-23.55
-27.22
-30.00
-31.78
-32.91
-34.03
-35.70
-38.20
-41.44
-45.08
-48.75
-52.07
-54.65
-55.98
-55.45
-52.45
-46.62
-38.17
-27.86
-16.87
-6.47
2.43
9.50
15.01
19.53
23.61
27.47
30.96
33.63
35.13
35.38
34.70
33.60
32.61
32.00
31.71
31.51
31.18
30.61
29.94
29.30
28.79
28.36
27.74
26.68
25.06
22.93
20.54
18.17
16.02
14.13
12.39
10.64
8.79
6.77
4.64
2.45
0.23
-2.08
-4.56
-7.26
-10.16
-13.14
-16.01
-18.59
-20.76
-22.58
-24.37
-26.55
-29.57
-33.63
-38.48
-43.29
-46.91
-48.13
-46.14
-40.85
-32.89
-23.37
-13.49
-4.20
4.05
11.16
17.23
22.38
26.57
29.71
31.68
32.48
32.29
31.41
30.23
29.01
27.91
26.90
25.94
25.00
24.13
23.43
22.91
22.44
21.77
20.63
18.92
16.78
14.49
12.36
10.49
8.74
6.80
4.44
1.66
-1.30
-4.10
-6.54
-8.70
-10.88
-13.43
-16.50
-19.90
-23.19
-25.90
-27.82
-29.08
-30.11
-31.41
-33.35
-36.08
-39.57
-43.68
-48.24
-52.91
-57.12
-60.05
-60.75
-58.49
-53.01
-44.74
-34.72
-24.23
-14.41
-5.95
1.05
6.90
12.03
16.77
21.11
24.80
27.46
28.86
29.04
28.35
27.35
26.54
26.20
26.31
26.58
26.71
26.50
26.00
25.43
25.05
24.85
24.63
24.04
22.80
20.86
18.47
15.98
13.64
11.46
9.26
6.79
3.97
0.96
-1.92
-4.31
-6.09
-7.40
-8.62
-10.16
-12.30
-15.04
-18.11
-21.08
-23.61
-25.62
-27.37
-29.37
-32.13
-35.93
-40.60
-45.47
-49.50
-51.57
-50.83
-46.91
-40.03
-30.95
-20.73
-10.42
-0.80
7.71
14.99
21.14
26.29
30.55
33.96
36.56
38.42
39.58
40.13
40.18
39.82
39.16
38.34
37.47
36.62
35.78
34.89
33.85
32.60
31.09
29.29
27.19
24.80
22.21
19.60
17.22
15.25
13.78
12.69
11.68
10.36
8.39
5.70
2.46
-0.84
-3.70
-5.71
-6.85
-7.44
-8.06
-9.25
-11.27
-14.02
-17.13
-20.20
-23.02
-25.67
-28.46
-31.73
-35.70
-40.37
-45.53
-50.71
-55.18
-58.01
-58.27
-55.31
-49.07
-40.18
-29.77
-19.12
-9.18
-0.43
7.09
13.56
19.10
23.71
27.33
29.96
31.77
32.98
33.74
34.13
34.14
33.82
33.29
32.78
32.48
32.49
32.72
32.97
33.04
32.83
32.38
31.76
31.09
30.40
29.58
28.50
27.08
25.37
23.55
21.82
20.27
18.79
17.11
14.89
11.99
8.50
4.78
1.28
-1.65
-3.91
-5.69
-7.34
-9.20
-11.39
-13.81
-16.20
-18.28
-19.99
-21.50
-23.21
-25.53
-28.81
-33.07
-38.11
-43.36
-48.01
-51.11
-51.75
-49.32
-43.73
-35.51
-25.67
-15.41
-5.79
2.53
9.33
14.67
18.74
21.75
23.90
25.38
26.37
27.04
27.41
27.45
27.05
26.20
25.04
23.80
22.73
21.99
21.53
21.09
20.39
19.21
17.56
15.65
13.71
11.90
10.19
8.39
6.28
3.78
1.01
-1.74
-4.19
-6.24
-7.98
-9.65
-11.52
-13.71
-16.13
-18.62
-20.96
-23.03
-24.78
-26.29
-27.68
-29.10
-30.77
-32.88
-35.67
-39.23
-43.32
-47.34
-50.35
-51.26
-49.25
-44.03
-35.98
-26.05
-15.53
-5.53
3.22
10.42
16.23
20.88
24.59
27.43
29.38
30.40
30.60
30.15
29.37
28.53
27.78
27.11
26.45
25.67
24.71
23.65
22.59
21.71
21.08
20.63
20.17
19.49
18.41
16.92
15.15
13.28
11.47
9.77
8.07
6.20
4.01
1.45
-1.46
-4.57
-7.75
-10.90
-13.99
-16.97
-19.82
-22.47
-24.86
-27.03
-29.12
-31.42
-34.26
-37.87
-42.11
-46.36
-49.51
-50.37
-48.07
-42.47
-34.25
-24.60
-14.81
-5.76
2.21
9.16
15.31
20.72
25.29
28.81
31.20
32.50
32.95
32.79
32.22
31.35
30.23
28.95
27.61
26.35
25.34
24.72
24.50
24.54
24.57
24.25
23.34
21.82
19.90
17.95
16.23
14.80
13.43
11.79
9.60
6.85
3.80
0.82
-1.77
-3.88
-5.68
-7.52
-9.71
-12.41
-15.51
-18.69
-21.57
-23.91
-25.64
-26.95
-28.17
-29.65
-31.70
-34.48
-37.96
-41.85
-45.54
-48.18
-48.77
-46.51
-41.06
-32.79
-22.67
-12.06
-2.18
6.19
12.88
18.19
22.64
26.62
30.27
33.42
35.82
37.20
37.51
36.86
35.57
33.98
32.44
31.14
30.14
29.41
28.84
28.38
27.97
27.54
26.90
25.83
24.14
21.75
18.80
15.66
12.77
10.42
8.64
7.18
5.62
3.69
1.35
-1.19
-3.57
-5.56
-7.11
-8.48
-10.03
-12.09
-14.73
-17.76
-20.83
-23.54
-25.72
-27.39
-28.82
-30.34
-32.25
-34.79
-38.04
-41.90
-46.00
-49.68
-52.00
-51.99
-48.98
-42.88
-34.32
-24.40
-14.45
-5.53
1.78
7.44
11.76
15.19
18.07
20.56
22.64
24.16
24.97
25.01
24.39
23.38
22.32
21.48
20.95
20.65
20.39
20.02
19.48
18.85
18.18
17.48
16.67
15.59
14.12
12.22
9.98
7.61
5.26
3.05
1.00
-0.97
-2.89
-4.79
-6.63
-8.42
-10.19
-12.07
-14.21
-16.69
-19.49
-22.43
-25.26
-27.70
-29.62
-31.11
-32.49
-34.28
-36.91
-40.57
-44.98
-49.32
-52.41
-53.08
-50.55
-44.73
-36.27
-26.23
-15.78
-5.85
3.01
10.58
16.83
21.85
25.77
28.79
31.13
32.99
34.46
35.47
35.86
35.51
34.42
32.79
30.92
29.15
27.76
26.89
26.54
26.58
26.78
26.80
26.39
25.41
23.91
22.07
20.09
18.11
16.11
13.98
11.60
8.94
6.08
3.20
0.48
-2.05
-4.43
-6.83
-9.41
-12.26
-15.30
-18.42
-21.41
-24.08
-26.38
-28.35
-30.15
-32.04
-34.35
-37.33
-41.11
-45.55
-50.10
-53.83
-55.62
-54.46
-49.88
-42.18
-32.31
-21.64
-11.43
-2.46
5.06
11.37
16.91
21.96
26.55
30.51
33.65
35.89
37.30
38.05
38.29
38.05
37.32
36.07
34.41
32.59
30.98
29.96
29.61
29.78
30.02
29.85
28.95
27.31
25.16
22.91
20.91
19.26
17.87
16.52
14.92
12.93
10.54
7.89
5.18
2.60
0.19
-2.13
-4.48
-6.96
-9.58
-12.24
-14.77
-17.10
-19.29
-21.46
-23.71
-26.09
-28.62
-31.27
-34.22
-37.69
-41.85
-46.55
-51.11
-54.43
-55.27
-52.68
-46.47
-37.31
-26.53
-15.62
-5.72
2.64
9.51
15.30
20.39
24.92
28.79
31.73
33.53
34.20
33.89
32.88
31.50
30.05
28.76
27.77
27.13
26.84
26.81
26.92
26.95
26.67
25.86
24.41
22.31
19.81
17.17
14.67
12.43
10.33
8.14
5.58
2.58
-0.78
-4.16
-7.26
-9.85
-11.98
-13.90
-15.93
-18.33
-21.09
-23.99
-26.68
-28.90
-30.63
-32.13
-33.91
-36.41
-39.95
-44.49
-49.63
-54.66
-58.65
-60.63
-59.75
-55.63
-48.38
-38.77
-27.94
-17.15
-7.37
0.87
7.56
13.04
17.69
21.80
25.43
28.48
30.82
32.33
33.02
32.98
32.39
31.44
30.36
29.32
28.46
27.89
27.59
27.52
27.53
27.45
27.06
26.22
24.81
22.81
20.34
17.63
14.93
12.48
10.39
8.63
7.05
5.42
3.58
1.44
-1.01
-3.71
-6.58
-9.55
-12.58
-15.65
-18.75
-21.82
-24.78
-27.60
-30.31
-33.11
-36.31
-40.22
-44.94
-50.15
-55.02
-58.31
-58.80
-55.68
-48.95
-39.43
-28.44
-17.38
-7.22
1.64
9.28
15.94
21.74
26.62
30.43
33.04
34.60
35.35
35.58
35.51
35.18
34.57
33.71
32.72
31.85
31.35
31.36
31.80
32.39
32.76
32.58
31.68
30.15
28.29
26.46
24.85
23.46
22.04
20.29
18.04
15.34
12.45
9.63
7.02
4.50
1.86
-1.11
-4.46
-7.96
-11.32
-14.25
-16.63
-18.58
-20.40
-22.50
-25.23
-28.79
-33.11
-37.73
-41.90
-44.63
-44.95
-42.18
-36.15
-27.33
-16.65
-5.29
5.66
15.47
23.80
30.69
36.31
40.89
44.57
47.40
49.34
50.29
50.19
48.99
46.79
43.74
40.03
35.71
30.59
24.34
16.73
7.92
-1.39
-10.25
-17.94
-24.52
-30.97
-38.77
-49.32
-63.24
-80.23
-99.26
-118.95
-137.79
-153.99
-165.29
-169.02
-162.67
-144.81
-115.83
-78.14
-35.46
8.12
49.17
85.46
115.93
140.31
158.84
172.02
180.80
186.61
191.29
196.68
204.08
213.76
224.80
235.31
242.85
245.09
240.25
227.27
205.84
176.27
139.52
97.49
53.17
10.38
-27.04
-56.44
-77.42
-92.06
-104.06
-117.20
-133.56
-152.78
-172.41
-189.36
-201.41
-208.35
-212.04
-215.97
-224.08
-239.32
-262.33
-290.50
-317.96
-336.82
-339.64
-322.16
-285.14
-234.45
-178.96
-127.59
-86.44
-57.53
-39.44
-29.01
-23.12
-19.67
-17.52
-15.82
-13.61
-9.68
-2.98
6.86
19.28
32.92
46.32
58.34
68.61
77.39
85.46
93.60
102.33
111.67
121.12
129.82
136.79
141.29
143.09
142.56
140.42
137.44
134.12
130.56
126.59
121.92
116.48
110.40
103.88
96.94
89.30
80.51
70.21
58.48
45.94
33.65
22.76
14.01
7.64
3.35
0.65
-0.93
-1.65
-1.63
-1.04
-0.33
-0.15
-1.23
-4.00
-8.39
-13.68
-18.70
-22.14
-22.98
-20.75
-15.69
-8.54
-0.28
8.22
16.33
23.69
30.02
35.06
38.48
40.03
39.62
37.39
33.74
29.14
24.02
18.71
13.40
8.20
3.19
-1.54
-5.89
-9.75
-13.01
-15.61
-17.53
-18.83
-19.65
-20.24
-20.84
-21.68
-22.85
-24.31
-25.87
-27.29
-28.38
-29.07
-29.47
-29.90
-30.72
-32.30
-34.89
-38.47
-42.65
-46.64
-49.34
-49.55
-46.45
-39.78
-30.08
-18.53
-6.60
4.34
13.34
19.99
24.38
26.83
27.80
27.73
27.02
26.02
25.06
24.31
23.82
23.49
23.08
22.37
21.26
19.79
18.21
16.79
15.70
14.91
14.15
13.00
11.10
8.33
4.82
0.94
-2.92
-6.56
-10.00
-13.48
-17.21
-21.23
-25.24
-28.82
-31.59
-33.49
-34.85
-36.22
-38.23
-41.35
-45.72
-51.08
-56.78
-61.67
-64.29
-63.23
-57.51
-47.15
-33.27
-17.81
-2.94
9.62
19.18
25.96
30.74
34.31
37.12
39.15
40.19
40.09
38.93
37.09
35.07
33.27
31.93
31.01
30.32
29.63
28.78
27.73
26.50
25.19
23.81
22.31
20.53
18.27
15.42
11.97
8.11
4.16
0.52
-2.53
-4.87
-6.62
-8.05
-9.48
-11.21
-13.40
-16.06
-19.06
-22.23
-25.32
-28.13
-30.54
-32.60
-34.47
-36.49
-39.08
-42.64
-47.37
-53.05
-58.87
-63.47
-65.14
-62.37
-54.47
-41.92
-26.29
-9.83
5.34
17.87
27.37
34.25
39.18
42.65
44.83
45.66
45.10
43.39
40.96
38.36
35.99
33.92
32.02
30.09
28.07
26.13
24.64
23.87
23.84
24.15
24.15
23.16
20.84
17.30
13.05
8.83
5.24
2.51
0.50
-1.25
-3.23
-5.89
-9.32
-13.34
-17.50
-21.29
-24.35
-26.64
-28.49
-30.44
-33.10
-36.93
-42.11
-48.29
-54.63
-59.76
-62.02
-60.01
-52.97
-41.23
-26.18
-9.90
5.49
18.44
28.26
35.14
39.67
42.56
44.27
45.00
44.77
43.58
41.50
38.76
35.64
32.42
29.31
26.41
23.75
21.33
19.22
17.52
16.36
15.67
15.21
14.65
13.63
12.00
9.88
7.57
5.35
3.36
1.47
-0.59
-3.01
-5.78
-8.66
-11.23
-13.23
-14.69
-15.99
-17.69
-20.22
-23.66
-27.65
-31.54
-34.67
-36.76
-37.99
-38.98
-40.52
-43.31
-47.72
-53.65
-60.32
-66.32
-69.83
-69.04
-62.83
-51.23
-35.58
-18.11
-1.22
13.28
24.62
32.97
38.97
43.27
46.19
47.78
48.05
47.18
45.47
43.32
40.96
38.49
35.88
33.15
30.40
27.87
25.78
24.24
23.18
22.40
21.61
20.52
18.93
16.76
14.07
11.09
8.09
5.39
3.16
1.43
0.02
-1.33
-2.90
-4.79
-6.97
-9.27
-11.49
-13.49
-15.22
-16.77
-18.33
-20.14
-22.44
-25.32
-28.67
-32.15
-35.31
-37.73
-39.24
-40.09
-40.83
-42.20
-44.85
-49.13
-54.77
-60.86
-65.87
-67.98
-65.59
-57.81
-44.89
-28.24
-10.07
7.30
22.04
33.22
40.86
45.58
48.20
49.41
49.61
48.95
47.52
45.43
42.86
40.03
37.16
34.37
31.74
29.31
27.17
25.48
24.39
23.93
23.89
23.80
23.12
21.42
18.60
14.93
10.89
6.99
3.57
0.72
-1.69
-3.87
-6.05
-8.37
-10.85
-13.40
-15.82
-17.95
-19.70
-21.20
-22.71
-24.49
-26.65
-29.10
-31.55
-33.72
-35.45
-36.84
-38.20
-39.96
-42.51
-46.13
-50.76
-55.92
-60.52
-62.98
-61.67
-55.47
-44.27
-29.17
-12.18
4.50
19.06
30.57
38.94
44.63
48.20
50.04
50.40
49.49
47.64
45.25
42.71
40.24
37.83
35.32
32.60
29.72
26.98
24.78
23.44
23.00
23.16
23.40
23.21
22.25
20.44
17.96
15.07
11.99
8.87
5.76
2.63
-0.47
-3.48
-6.23
-8.53
-10.27
-11.52
-12.51
-13.65
-15.30
-17.67
-20.71
-24.11
-27.47
-30.45
-32.92
-34.97
-36.95
-39.26
-42.38
-46.58
-51.80
-57.48
-62.42
-65.04
-63.72
-57.39
-45.98
-30.57
-13.11
4.15
19.31
31.31
39.95
45.71
49.34
51.51
52.61
52.80
52.08
50.50
48.22
45.49
42.55
39.57
36.57
33.50
30.41
27.44
24.87
23.00
21.90
21.38
21.02
20.32
18.94
16.82
14.20
11.49
9.11
7.30
6.05
5.13
4.20
2.98
1.38
-0.53
-2.52
-4.36
-5.95
-7.36
-8.85
-10.75
-13.25
-16.37
-19.93
-23.61
-27.12
-30.23
-32.86
-35.10
-37.19
-39.45
-42.30
-46.14
-51.09
-56.73
-61.91
-64.85
-63.64
-57.02
-44.92
-28.75
-10.89
6.07
20.19
30.57
37.42
41.50
43.61
44.30
43.83
42.35
40.11
37.48
34.83
32.41
30.29
28.35
26.43
24.44
22.46
20.70
19.39
18.69
18.51
18.51
18.16
17.02
14.88
11.86
8.46
5.27
2.78
1.19
0.34
-0.23
-0.98
-2.26
-4.15
-6.46
-8.83
-11.00
-12.90
-14.70
-16.77
-19.40
-22.73
-26.55
-30.42
-33.83
-36.44
-38.26
-39.55
-40.81
-42.52
-45.09
-48.76
-53.45
-58.66
-63.35
-66.00
-65.01
-59.22
-48.40
-33.55
-16.58
0.29
15.16
26.98
35.58
41.41
45.17
47.42
48.52
48.65
47.92
46.47
44.50
42.19
39.71
37.16
34.59
32.07
29.69
27.64
26.12
25.28
25.11
25.38
25.72
25.68
24.90
23.29
20.99
18.41
15.98
13.98
12.41
10.94
9.11
6.47
2.93
-1.23
-5.44
-9.10
-11.87
-13.85
-15.51
-17.51
-20.30
-23.95
-28.14
-32.25
-35.71
-38.20
-39.77
-40.82
-41.96
-43.80
-46.80
-51.12
-56.46
-61.86
-65.86
-66.71
-62.96
-54.00
-40.39
-23.81
-6.52
9.31
22.25
31.79
38.28
42.42
44.91
46.25
46.65
46.24
45.08
43.29
41.03
38.48
35.85
33.31
30.94
28.80
26.86
25.10
23.56
22.31
21.37
20.71
20.09
19.19
17.71
15.50
12.64
9.34
5.94
2.67
-0.34
-3.10
-5.73
-8.36
-11.08
-13.88
-16.72
-19.50
-22.16
-24.67
-27.06
-29.38
-31.67
-34.02
-36.51
-39.36
-42.86
-47.32
-52.80
-58.81
-64.19
-67.24
-66.24
-60.06
-48.70
-33.39
-16.21
0.55
15.10
26.51
34.80
40.50
44.28
46.62
47.72
47.61
46.34
44.12
41.36
38.54
36.07
34.11
32.59
31.24
29.82
28.27
26.76
25.55
24.84
24.58
24.43
23.83
22.28
19.51
15.66
11.21
6.81
3.01
0.06
-2.17
-4.11
-6.22
-8.87
-12.14
-15.90
-19.87
-23.76
-27.38
-30.60
-33.45
-35.97
-38.36
-40.88
-43.96
-48.02
-53.25
-59.37
-65.36
-69.61
-70.25
-65.83
-55.92
-41.34
-24.06
-6.46
9.37
22.18
31.75
38.57
43.37
46.74
48.97
50.16
50.39
49.84
48.77
47.38
45.76
43.88
41.65
39.04
36.25
33.61
31.53
30.28
29.85
29.86
29.73
28.88
26.98
24.12
20.75
17.43
14.56
12.23
10.25
8.26
5.99
3.33
0.36
-2.72
-5.71
-8.43
-10.80
-12.80
-14.62
-16.51
-18.81
-21.74
-25.31
-29.31
-33.33
-37.04
-40.28
-43.17
-46.15
-49.75
-54.48
-60.49
-67.31
-73.77
-78.09
-78.36
-73.16
-62.17
-46.41
-27.99
-9.43
7.18
20.75
31.13
38.89
44.80
49.36
52.77
55.04
56.23
56.48
56.08
55.25
54.07
52.46
50.26
47.45
44.19
40.88
38.02
35.96
34.77
34.19
33.74
32.86
31.22
28.78
25.74
22.47
19.30
16.48
14.10
12.13
10.43
8.85
7.15
5.17
2.81
0.07
-2.90
-5.92
-8.77
-11.31
-13.53
-15.55
-17.59
-19.95
-22.86
-26.37
-30.30
-34.27
-37.80
-40.56
-42.55
-44.13
-45.95
-48.73
-52.95
-58.66
-65.29
-71.62
-76.06
-76.89
-72.85
-63.53
-49.61
-32.74
-15.06
1.36
15.12
25.59
32.93
37.71
40.60
42.20
42.89
42.94
42.53
41.77
40.71
39.39
37.79
35.96
33.98
32.05
30.38
29.18
28.53
28.33
28.30
28.00
27.01
25.10
22.34
19.07
15.80
12.93
10.58
8.58
6.57
4.28
1.66
-1.09
-3.63
-5.76
-7.47
-9.00
-10.66
-12.74
-15.34
-18.46
-21.96
-25.67
-29.36
-32.81
-35.85
-38.47
-41.01
-44.00
-48.03
-53.36
-59.62
-65.61
-69.59
-69.70
-64.74
-54.60
-40.43
-24.19
-8.07
6.20
17.75
26.63
33.37
38.57
42.63
45.60
47.45
48.17
47.91
46.94
45.55
43.88
41.98
39.86
37.55
35.25
33.24
31.82
31.11
31.01
31.14
30.98
30.12
28.38
25.91
23.12
20.47
18.26
16.53
15.03
13.39
11.35
8.86
6.09
3.26
0.56
-1.99
-4.45
-6.98
-9.70
-12.73
-16.15
-19.97
-24.10
-28.33
-32.32
-35.71
-38.32
-40.24
-41.92
-44.04
-47.31
-52.12
-58.33
-65.04
-70.67
-73.33
-71.29
-63.73
-51.10
-35.05
-17.90
-1.94
11.33
21.50
29.00
34.63
39.13
42.84
45.75
47.79
48.94
49.35
49.23
48.74
47.91
46.67
45.00
43.00
40.89
39.02
37.63
36.83
36.43
36.10
35.44
34.22
32.34
29.93
27.22
24.40
21.64
19.01
16.55
14.31
12.26
10.33
8.33
6.06
3.36
0.20
-3.26
-6.78
-10.10
-13.04
-15.55
-17.72
-19.70
-21.70
-23.89
-26.39
-29.21
-32.21
-35.14
-37.68
-39.68
-41.23
-42.75
-44.86
-48.16
-52.90
-58.65
-64.26
-68.00
-68.12
-63.35
-53.51
-39.53
-23.25
-6.83
7.85
19.64
28.21
33.89
37.36
39.30
40.22
40.42
40.02
39.08
37.65
35.86
33.87
31.85
29.91
28.09
26.34
24.63
23.02
21.59
20.46
19.63
18.92
18.04
16.69
14.67
12.03
9.02
6.03
3.41
1.36
-0.23
-1.72
-3.55
-6.05
-9.24
-12.73
-15.98
-18.50
-20.16
-21.28
-22.44
-24.20
-26.79
-29.92
-33.00
-35.41
-36.84
-37.49
-37.91
-38.83
-40.89
-44.47
-49.50
-55.44
-61.20
-65.29
-66.15
-62.53
-54.05
-41.34
-25.96
-9.87
5.09
17.76
27.63
34.82
39.71
42.81
44.62
45.61
46.13
46.40
46.44
46.17
45.44
44.18
42.47
40.49
38.45
36.49
34.69
33.10
31.76
30.65
29.66
28.52
26.96
24.75
21.90
18.62
15.30
12.33
9.88
7.90
6.09
4.09
1.66
-1.24
-4.41
-7.56
-10.39
-12.68
-14.44
-15.87
-17.32
-19.19
-21.78
-25.14
-29.02
-32.98
-36.52
-39.33
-41.40
-43.11
-45.10
-48.02
-52.31
-57.90
-64.07
-69.45
-72.33
-71.12
-64.83
-53.54
-38.42
-21.38
-4.53
10.42
22.48
31.47
37.75
41.95
44.65
46.27
47.10
47.27
46.91
46.08
44.87
43.38
41.67
39.86
38.03
36.33
34.92
33.90
33.37
33.22
33.23
33.07
32.35
30.81
28.36
25.10
21.33
17.47
13.91
10.97
8.75
7.13
5.79
4.37
2.58
0.32
-2.32
-5.10
-7.78
-10.23
-12.37
-14.29
-16.15
-18.18
-20.60
-23.57
-27.06
-30.86
-34.56
-37.75
-40.19
-41.92
-43.32
-44.93
-47.29
-50.80
-55.51
-61.03
-66.45
-70.37
-71.13
-67.27
-58.10
-44.11
-26.94
-8.95
7.54
20.88
30.52
36.85
40.78
43.24
44.84
45.83
46.22
45.93
45.01
43.56
41.76
39.76
37.65
35.44
33.20
31.07
29.26
28.02
27.45
27.44
27.61
27.43
26.43
24.39
21.47
18.08
14.78
11.97
9.84
8.20
6.65
4.75
2.20
-1.01
-4.62
-8.18
-11.29
-13.74
-15.62
-17.27
-19.13
-21.50
-24.45
-27.82
-31.26
-34.46
-37.18
-39.40
-41.29
-43.16
-45.41
-48.42
-52.48
-57.56
-63.10
-67.94
-70.52
-69.24
-63.02
-51.81
-36.70
-19.64
-2.84
11.86
23.47
31.88
37.63
41.47
44.02
45.63
46.39
46.31
45.40
43.79
41.66
39.28
36.87
34.61
32.60
30.90
29.58
28.66
28.16
27.97
27.86
27.47
26.45
24.61
22.04
19.07
16.17
13.75
11.96
10.63
9.39
7.81
5.58
2.67
-0.73
-4.27
-7.56
-10.43
-12.90
-15.25
-17.79
-20.81
-24.35
-28.23
-32.07
-35.44
-38.09
-39.99
-41.41
-42.85
-44.86
-47.92
-52.16
-57.23
-62.09
-65.19
-64.80
-59.56
-49.09
-34.24
-16.91
0.54
16.00
28.24
37.06
43.01
46.96
49.62
51.37
52.27
52.25
51.34
49.68
47.57
45.26
42.96
40.71
38.44
36.10
33.75
31.56
29.77
28.57
27.92
27.51
26.91
25.65
23.51
20.50
16.92
13.21
9.77
6.83
4.42
2.36
0.36
-1.78
-4.18
-6.72
-9.17
-11.31
-13.02
-14.35
-15.50
-16.75
-18.30
-20.28
-22.72
-25.56
-28.69
-31.97
-35.15
-38.03
-40.46
-42.51
-44.44
-46.73
-49.91
-54.33
-59.90
-65.89
-70.88
-73.06
-70.81
-63.23
-50.64
-34.50
-17.01
-0.40
13.69
24.60
32.50
37.99
41.77
44.35
45.98
46.80
46.93
46.52
45.74
44.74
43.58
42.26
40.77
39.07
37.26
35.49
33.93
32.74
31.91
31.23
30.33
28.82
26.46
23.34
19.79
16.26
13.08
10.33
7.84
5.29
2.45
-0.72
-4.08
-7.35
-10.33
-12.92
-15.17
-17.26
-19.40
-21.79
-24.59
-27.79
-31.26
-34.74
-37.96
-40.76
-43.15
-45.41
-47.98
-51.35
-55.79
-61.02
-66.19
-69.81
-70.19
-66.00
-56.72
-43.03
-26.58
-9.53
6.13
19.09
28.98
36.12
41.17
44.77
47.30
48.88
49.55
49.43
48.67
47.56
46.32
45.04
43.76
42.43
41.10
39.88
38.99
38.58
38.58
38.62
38.09
36.36
33.03
28.15
22.19
15.86
9.82
4.48
-0.12
-4.16
-7.86
-11.31
-14.38
-16.85
-18.52
-19.45
-19.98
-20.66
-22.10
-24.64
-28.25
-32.45
-36.56
-40.01
-42.57
-44.46
-46.24
-48.60
-52.06
-56.79
-62.48
-68.30
-72.96
-74.91
-72.70
-65.44
-53.22
-37.15
-19.21
-1.61
13.78
25.89
34.59
40.41
44.19
46.66
48.29
49.27
49.60
49.28
48.29
46.73
44.79
42.65
40.55
38.71
37.24
36.20
35.50
34.97
34.44
33.75
32.78
31.44
29.68
27.47
24.93
22.27
19.77
17.65
15.93
14.42
12.75
10.63
7.97
5.00
2.14
-0.16
-1.77
-2.92
-4.19
-6.17
-9.20
-13.22
-17.72
-22.05
-25.69
-28.45
-30.54
-32.43
-34.62
-37.56
-41.53
-46.52
-52.16
-57.53
-61.25
-61.74
-57.71
-48.74
-35.55
-19.88
-3.93
10.33
21.74
30.06
35.74
39.48
41.86
43.20
43.64
43.27
42.16
40.49
38.42
36.11
33.71
31.30
28.97
26.82
24.99
23.58
22.72
22.47
22.74
23.31
23.76
23.63
22.56
20.43
17.45
14.06
10.75
7.88
5.50
3.34
1.03
-1.74
-4.95
-8.26
-11.15
-13.14
-14.05
-14.15
-14.05
-14.48
-15.97
-18.67
-22.27
-26.22
-29.90
-32.96
-35.31
-37.15
-38.86
-40.87
-43.62
-47.46
-52.52
-58.44
-64.21
-68.24
-68.69
-64.18
-54.39
-40.30
-23.93
-7.66
6.63
17.97
26.35
32.29
36.45
39.25
40.91
41.57
41.40
40.69
39.68
38.51
37.20
35.72
34.11
32.51
31.09
30.02
29.33
28.90
28.48
27.77
26.57
24.79
22.44
19.67
16.60
13.40
10.16
6.98
3.92
1.05
-1.60
-4.03
-6.25
-8.28
-10.20
-12.10
-14.12
-16.40
-19.03
-21.98
-25.08
-28.10
-30.87
-33.34
-35.72
-38.42
-41.94
-46.65
-52.50
-58.78
-64.08
-66.60
-64.65
-57.34
-45.04
-29.31
-12.48
3.19
16.08
25.61
32.06
36.13
38.58
39.92
40.44
40.29
39.62
38.58
37.26
35.70
33.89
31.84
29.65
27.53
25.76
24.61
24.21
24.45
24.96
25.24
24.83
23.51
21.38
18.80
16.21
13.91
11.90
9.92
7.62
4.76
1.35
-2.29
-5.74
-8.63
-10.87
-12.69
-14.55
-16.86
-19.88
-23.49
-27.36
-31.03
-34.24
-36.91
-39.25
-41.62
-44.45
-48.13
-52.93
-58.77
-65.00
-70.25
-72.66
-70.35
-62.19
-48.38
-30.59
-11.47
6.27
20.70
31.16
38.10
42.53
45.44
47.35
48.39
48.46
47.52
45.72
43.32
40.58
37.68
34.71
31.72
28.82
26.16
23.90
22.21
21.16
20.67
20.52
20.29
19.52
17.87
15.26
11.98
8.64
5.87
4.05
3.09
2.49
1.51
-0.41
-3.37
-7.03
-10.70
-13.79
-16.02
-17.54
-18.87
-20.58
-23.03
-26.16
-29.61
-32.84
-35.39
-37.09
-38.06
-38.69
-39.51
-41.06
-43.80
-48.03
-53.67
-60.00
-65.63
-68.60
-67.03
-59.79
-47.06
-30.43
-12.43
4.38
18.17
28.24
34.98
39.25
42.00
43.82
44.92
45.31
44.97
43.94
42.40
40.52
38.49
36.40
34.31
32.27
30.36
28.76
27.66
27.20
27.31
27.65
27.68
26.88
24.92
21.82
17.96
13.93
10.32
7.51
5.57
4.24
3.02
1.44
-0.80
-3.65
-6.74
-9.53
-11.61
-12.87
-13.65
-14.54
-16.20
-18.99
-22.87
-27.39
-31.86
-35.63
-38.29
-39.87
-40.77
-41.74
-43.51
-46.72
-51.50
-57.39
-63.22
-67.27
-67.74
-63.26
-53.47
-39.22
-22.42
-5.45
9.57
21.42
29.89
35.51
39.13
41.41
42.78
43.39
43.40
42.99
42.29
41.35
40.07
38.29
35.91
33.06
30.02
27.19
24.92
23.36
22.44
21.86
21.20
20.06
18.19
15.61
12.62
9.66
7.13
5.23
3.83
2.61
1.15
-0.74
-3.03
-5.44
-7.57
-9.19
-10.35
-11.41
-12.89
-15.21
-18.44
-22.32
-26.29
-29.76
-32.42
-34.32
-35.86
-37.61
-40.20
-44.04
-49.23
-55.34
-61.30
-65.49
-66.02
-61.44
-51.33
-36.62
-19.41
-2.21
12.86
24.70
33.31
39.39
43.76
46.90
48.98
49.92
49.77
48.73
47.15
45.35
43.53
41.69
39.74
37.65
35.46
33.35
31.63
30.53
30.14
30.26
30.45
30.12
28.77
26.16
22.44
18.15
13.95
10.42
7.79
5.96
4.48
2.86
0.78
-1.76
-4.42
-6.70
-8.20
-8.84
-8.88
-8.86
-9.34
-10.65
-12.78
-15.41
-18.13
-20.55
-22.52
-24.16
-25.74
-27.63
-30.15
-33.49
-37.68
-42.43
-47.11
-50.65
-51.81
-49.45
-43.02
-32.86
-20.20
-6.75
5.85
16.50
24.81
30.92
35.20
37.94
39.25
39.17
37.77
35.29
32.06
28.45
24.78
21.28
18.15
15.51
13.44
11.98
11.14
10.92
11.23
11.82
12.28
12.15
11.05
8.92
6.03
2.90
0.11
-2.01
-3.44
-4.51
-5.69
-7.36
-9.60
-12.20
-14.72
-16.69
-17.84
-18.28
-18.42
-18.85
-20.12
-22.44
-25.63
-29.23
-32.67
-35.48
-37.50
-38.92
-40.20
-41.94
-44.68
-48.72
-53.92
-59.47
-63.97
-65.64
-62.83
-54.64
-41.39
-24.66
-6.78
9.85
23.46
33.34
39.71
43.34
45.07
45.51
45.03
43.83
42.11
40.13
38.14
36.34
34.87
33.74
32.87
32.18
31.55
30.89
30.14
29.27
28.22
26.91
25.21
23.04
20.39
17.38
14.24
11.23
8.53
6.15
3.98
1.81
-0.50
-2.95
-5.43
-7.80
-9.99
-12.04
-14.16
-16.54
-19.28
-22.32
-25.45
-28.42
-31.11
-33.55
-35.99
-38.79
-42.33
-46.90
-52.54
-58.78
-64.62
-68.51
-68.84
-64.38
-54.93
-41.40
-25.69
-9.95
4.01
15.20
23.52
29.44
33.55
36.32
38.00
38.73
38.69
38.10
37.20
36.10
34.78
33.12
31.03
28.58
26.06
23.86
22.29
21.45
21.10
20.76
19.90
18.17
15.52
12.25
8.73
5.29
2.04
-1.16
-4.54
-8.29
-12.44
-16.82
-21.13
-25.05
-28.39
-31.12
-33.41
-35.59
-38.10
-41.37
-45.63
-50.77
-56.15
-60.60
-62.67
-61.01
-54.88
-44.43
-30.80
-15.70
-0.89
12.25
23.02
31.35
37.55
42.07
45.27
47.39
48.58
48.92
48.49
47.39
45.79
43.90
41.96
40.13
38.45
36.91
35.44
33.98
32.53
30.99
29.18
26.83
23.66
19.58
14.76
9.63
4.75
0.54
-2.83
-5.60
-8.23
-11.22
-14.87
-19.19
-23.90
-28.57
-32.75
-36.14
-38.66
-40.53
-42.21
-44.33
-47.47
-51.99
-57.77
-64.01
-69.35
-72.07
-70.60
-64.10
-52.69
-37.60
-20.74
-4.20
10.32
21.93
30.54
36.66
41.05
44.33
46.86
48.71
49.82
50.19
49.89
49.17
48.33
47.58
46.98
46.48
45.95
45.30
44.49
43.54
42.44
41.10
39.34
37.00
34.01
30.45
26.59
22.71
19.03
15.57
12.24
8.90
5.49
2.14
-0.99
-3.79
-6.34
-8.90
-11.78
-15.20
-19.12
-23.32
-27.44
-31.25
-34.69
-37.84
-40.96
-44.36
-48.43
-53.48
-59.59
-66.28
-72.40
-76.23
-75.94
-70.29
-59.17
-43.70
-25.97
-8.26
7.61
20.67
30.81
38.47
44.16
48.31
51.11
52.67
53.15
52.77
51.84
50.63
49.37
48.12
46.89
45.70
44.62
43.80
43.38
43.38
43.62
43.74
43.28
41.84
39.24
35.52
31.00
26.08
21.23
16.78
12.91
9.57
6.57
3.56
0.28
-3.41
-7.40
-11.36
-14.94
-17.85
-20.06
-21.83
-23.64
-25.90
-28.87
-32.47
-36.31
-39.89
-42.85
-45.06
-46.74
-48.36
-50.49
-53.61
-58.00
-63.49
-69.32
-74.15
-76.29
-74.16
-66.92
-54.85
-39.33
-22.46
-6.36
7.47
18.37
26.45
32.23
36.25
38.93
40.57
41.38
41.63
41.55
41.31
40.94
40.38
39.57
38.50
37.24
35.96
34.83
33.96
33.31
32.73
31.91
30.56
28.43
25.51
21.97
18.18
14.56
11.35
8.61
6.17
3.75
1.11
-1.83
-4.94
-7.99
-10.80
-13.37
-15.92
-18.71
-21.92
-25.48
-29.08
-32.30
-34.85
-36.72
-38.20
-39.84
-42.22
-45.78
-50.70
-56.68
-62.91
-68.01
-70.29
-68.20
-60.86
-48.57
-32.81
-15.80
0.17
13.48
23.54
30.66
35.67
39.36
42.23
44.40
45.81
46.42
46.25
45.45
44.15
42.45
40.45
38.31
36.23
34.44
33.16
32.44
32.18
32.10
31.84
31.07
29.58
27.34
24.52
21.44
18.40
15.65
13.23
10.97
8.57
5.78
2.50
-1.12
-4.78
-8.20
-11.23
-13.95
-16.67
-19.65
-23.07
-26.84
-30.68
-34.24
-37.27
-39.75
-41.90
-44.15
-47.02
-50.95
-56.13
-62.30
-68.55
-73.46
-75.33
-72.75
-65.08
-52.77
-37.35
-20.87
-5.28
8.08
18.74
26.94
33.23
38.09
41.79
44.41
45.98
46.65
46.62
46.14
45.39
44.41
43.22
41.84
40.35
38.87
37.54
36.44
35.52
34.65
33.64
32.33
30.60
28.47
26.06
23.59
21.29
19.30
17.54
15.80
13.80
11.32
8.38
5.22
2.20
-0.40
-2.50
-4.30
-6.18
-8.49
-11.41
-14.84
-18.45
-21.90
-24.99
-27.75
-30.45
-33.48
-37.19
-41.84
-47.44
-53.78
-60.23
-65.71
-68.76
-67.88
-62.09
-51.36
-36.87
-20.62
-4.91
8.49
18.72
25.91
30.74
34.00
36.22
37.61
38.25
38.24
37.83
37.34
36.97
36.74
36.47
35.93
34.98
33.69
32.33
31.16
30.31
29.64
28.81
27.42
25.26
22.37
19.02
15.57
12.27
9.14
6.05
2.81
-0.62
-4.15
-7.51
-10.45
-12.83
-14.75
-16.46
-18.24
-20.33
-22.80
-25.56
-28.37
-30.98
-33.22
-35.10
-36.83
-38.82
-41.59
-45.51
-50.71
-56.81
-62.86
-67.43
-68.92
-66.03
-58.20
-46.01
-30.94
-15.08
-0.42
11.67
20.67
26.84
30.82
33.32
34.85
35.72
36.15
36.27
36.20
35.95
35.46
34.64
33.49
32.09
30.61
29.26
28.16
27.33
26.65
25.99
25.11
23.86
22.09
19.80
17.12
14.26
11.48
8.91
6.55
4.28
1.98
-0.42
-2.88
-5.36
-7.82
-10.33
-13.02
-16.00
-19.27
-22.73
-26.15
-29.35
-32.19
-34.71
-37.04
-39.51
-42.56
-46.63
-51.91
-58.09
-64.16
-68.45
-69.21
-65.10
-55.89
-42.59
-27.16
-11.81
1.72
12.57
20.79
26.90
31.51
35.01
37.51
39.07
39.81
39.95
39.76
39.42
38.91
38.10
36.84
35.14
33.22
31.43
30.12
29.44
29.27
29.19
28.71
27.45
25.30
22.50
19.47
16.71
14.53
12.98
11.80
10.60
9.00
6.81
4.16
1.37
-1.18
-3.32
-5.12
-6.92
-9.18
-12.21
-16.07
-20.45
-24.87
-28.82
-32.06
-34.59
-36.72
-38.88
-41.60
-45.27
-50.01
-55.49
-60.77
-64.39
-64.75
-60.62
-51.73
-38.94
-24.00
-8.88
4.85
16.43
25.85
33.47
39.59
44.31
47.54
49.25
49.61
49.02
47.93
46.65
45.27
43.70
41.76
39.40
36.77
34.21
32.19
31.07
30.90
31.36
31.83
31.65
30.39
28.01
24.84
21.34
17.92
14.71
11.64
8.49
5.10
1.47
-2.24
-5.74
-8.80
-11.33
-13.41
-15.31
-17.33
-19.76
-22.68
-26.02
-29.51
-32.91
-36.03
-38.84
-41.46
-44.10
-47.02
-50.47
-54.69
-59.73
-65.39
-70.95
-75.21
-76.63
-73.82
-66.08
-53.76
-38.34
-21.95
-6.70
5.95
15.51
22.29
27.07
30.60
33.36
35.58
37.31
38.58
39.47
40.00
40.16
39.89
39.17
38.05
36.74
35.48
34.49
33.81
33.36
32.90
32.14
30.80
28.72
25.92
22.62
19.13
15.76
12.68
9.87
7.14
4.33
1.41
-1.47
-4.06
-6.20
-7.96
-9.62
-11.64
-14.38
-17.93
-22.08
-26.37
-30.31
-33.57
-36.04
-37.94
-39.67
-41.79
-44.79
-48.95
-54.15
-59.64
-64.13
-66.03
-63.89
-57.04
-45.89
-31.88
-17.05
-3.35
7.97
16.55
22.75
27.29
30.81
33.66
35.94
37.63
38.77
39.44
39.78
39.86
39.70
39.24
38.43
37.30
36.03
34.88
34.10
33.80
33.86
33.98
33.72
32.71
30.78
28.01
24.68
21.15
17.77
14.75
12.17
9.98
8.05
6.25
4.46
2.54
0.45
-1.78
-4.05
-6.21
-8.14
-9.85
-11.46
-13.25
-15.47
-18.24
-21.54
-25.13
-28.71
-32.04
-35.03
-37.83
-40.78
-44.30
-48.76
-54.34
-60.77
-67.24
-72.40
-74.66
-72.61
-65.60
-54.07
-39.46
-23.78
-8.99
3.63
13.68
21.47
27.59
32.63
36.85
40.30
42.94
44.78
45.92
46.46
46.47
45.97
45.00
43.59
41.90
40.09
38.36
36.90
35.76
34.93
34.27
33.59
32.66
31.39
29.74
27.81
25.77
23.75
21.81
19.92
18.01
16.01
13.90
11.66
9.35
7.02
4.71
2.47
0.31
-1.79
-3.87
-6.00
-8.30
-10.89
-13.83
-17.14
-20.71
-24.38
-28.01
-31.44
-34.63
-37.61
-40.49
-43.48
-46.93
-51.23
-56.54
-62.55
-68.23
-71.92
-71.80
-66.65
-56.38
-42.24
-26.42
-11.26
1.51
11.22
18.15
23.15
27.03
30.25
32.90
34.87
36.10
36.68
36.83
36.77
36.60
36.28
35.65
34.61
33.17
31.51
29.91
28.66
27.84
27.32
26.75
25.72
23.91
21.29
18.12
14.79
11.73
9.16
7.09
5.28
3.47
1.46
-0.78
-3.12
-5.38
-7.42
-9.27
-11.06
-13.04
-15.45
-18.44
-21.98
-25.87
-29.76
-33.29
-36.22
-38.46
-40.24
-41.96
-44.20
-47.50
-52.18
-58.11
-64.53
-70.08
-73.04
-71.84
-65.58
-54.50
-39.96
-24.03
-8.83
4.14
14.30
21.88
27.56
32.00
35.55
38.31
40.25
41.38
41.81
41.71
41.15
40.15
38.67
36.69
34.31
31.77
29.38
27.46
26.19
25.55
25.26
24.91
24.03
22.38
19.99
17.22
14.61
12.59
11.25
10.32
9.25
7.53
4.98
1.73
-1.76
-5.08
-7.99
-10.62
-13.23
-16.10
-19.34
-22.83
-26.36
-29.73
-32.88
-35.88
-38.87
-42.01
-45.44
-49.33
-53.78
-58.77
-63.89
-68.23
-70.43
-69.11
-63.34
-53.14
-39.59
-24.49
-9.74
3.21
13.73
21.90
28.21
33.15
36.99
39.81
41.63
42.56
42.80
42.59
42.15
41.58
40.90
40.04
38.88
37.40
35.68
33.91
32.37
31.19
30.37
29.68
28.76
27.28
25.17
22.60
19.97
17.71
16.06
14.97
14.08
12.95
11.22
8.77
5.79
2.68
-0.13
-2.39
-4.16
-5.80
-7.79
-10.52
-14.13
-18.41
-22.97
-27.37
-31.35
-34.83
-37.97
-41.08
-44.43
-48.25
-52.71
-57.80
-63.20
-68.16
-71.49
-71.77
-67.84
-59.28
-46.69
-31.62
-16.09
-1.87
9.97
19.27
26.51
32.34
37.21
41.22
44.23
46.14
47.06
47.25
47.06
46.70
46.26
45.68
44.89
43.94
42.96
42.16
41.65
41.43
41.34
41.12
40.48
39.14
37.04
34.19
30.83
27.28
23.85
20.86
18.39
16.43
14.77
13.13
11.23
8.90
6.12
3.00
-0.22
-3.31
-6.13
-8.72
-11.25
-13.97
-17.08
-20.67
-24.61
-28.63
-32.43
-35.79
-38.68
-41.27
-43.89
-46.98
-50.93
-56.01
-62.06
-68.45
-73.97
-77.03
-76.10
-70.24
-59.58
-45.36
-29.57
-14.29
-1.07
9.48
17.56
23.81
28.86
33.01
36.27
38.53
39.79
40.23
40.13
39.69
39.00
37.98
36.54
34.73
32.72
30.82
29.28
28.17
27.29
26.28
24.74
22.46
19.47
16.10
12.79
9.93
7.71
6.01
4.53
2.92
0.93
-1.42
-3.93
-6.31
-8.36
-10.12
-11.85
-13.90
-16.59
-20.00
-23.92
-27.93
-31.59
-34.61
-37.03
-39.24
-41.76
-45.14
-49.70
-55.38
-61.61
-67.35
-71.23
-71.84
-68.11
-59.78
-47.53
-32.91
-17.81
-3.98
7.52
16.44
23.20
28.48
32.83
36.51
39.51
41.73
43.06
43.56
43.40
42.79
41.91
40.87
39.73
38.55
37.44
36.52
35.96
35.79
35.88
35.90
35.42
34.10
31.81
28.73
25.27
21.94
19.11
16.92
15.21
13.63
11.76
9.30
6.19
2.64
-0.96
-4.23
-6.99
-9.30
-11.49
-13.92
-16.88
-20.36
-24.16
-27.94
-31.37
-34.37
-37.04
-39.67
-42.60
-46.16
-50.53
-55.80
-61.81
-67.98
-73.25
-76.17
-75.25
-69.52
-58.97
-44.69
-28.56
-12.63
1.46
12.97
21.93
28.83
34.25
38.58
42.00
44.59
46.41
47.50
47.98
47.91
47.43
46.64
45.66
44.55
43.31
41.93
40.45
38.99
37.71
36.76
36.05
35.38
34.45
33.03
31.12
28.93
26.73
24.70
22.83
20.93
18.72
15.99
12.74
9.17
5.58
2.25
-0.66
-3.15
-5.34
-7.42
-9.61
-12.09
-14.99
-18.39
-22.21
-26.24
-30.18
-33.72
-36.69
-39.19
-41.55
-44.27
-47.84
-52.51
-58.15
-64.09
-69.15
-71.84
-70.72
-64.95
-54.66
-40.99
-25.84
-11.22
1.37
11.27
18.64
24.12
28.38
31.81
34.53
36.48
37.62
38.06
37.98
37.61
37.09
36.41
35.50
34.25
32.66
30.81
28.98
27.40
26.21
25.33
24.39
23.01
20.92
18.16
15.02
11.98
9.47
7.62
6.31
5.13
3.71
1.77
-0.67
-3.47
-6.28
-8.86
-11.14
-13.26
-15.59
-18.43
-21.93
-25.89
-29.90
-33.49
-36.36
-38.54
-40.37
-42.38
-45.09
-48.86
-53.77
-59.49
-65.16
-69.45
-70.77
-67.76
-59.91
-47.76
-32.88
-17.32
-2.91
9.23
18.83
26.23
32.01
36.62
40.35
43.28
45.47
46.99
47.87
48.09
47.57
46.30
44.32
41.87
39.22
36.66
34.42
32.61
31.18
29.98
28.81
27.43
25.66
23.38
20.68
17.81
15.14
13.02
11.62
10.76
9.97
8.70
6.54
3.44
-0.24
-3.97
-7.29
-10.09
-12.61
-15.30
-18.53
-22.42
-26.74
-31.04
-34.87
-37.95
-40.25
-41.99
-43.55
-45.41
-48.00
-51.66
-56.45
-62.04
-67.55
-71.59
-72.57
-69.16
-60.89
-48.33
-33.06
-17.14
-2.46
9.83
19.43
26.70
32.28
36.72
40.30
43.09
45.07
46.23
46.64
46.35
45.45
44.05
42.29
40.39
38.57
37.04
35.95
35.35
35.15
35.19
35.16
34.74
33.64
31.72
29.10
26.12
23.22
20.76
18.85
17.35
15.92
14.22
12.08
9.51
6.70
3.90
1.29
-1.03
-3.10
-4.99
-6.85
-8.90
-11.34
-14.28
-17.70
-21.41
-25.13
-28.65
-31.85
-34.80
-37.69
-40.88
-44.78
-49.70
-55.64
-61.97
-67.40
-70.13
-68.47
-61.52
-49.69
-34.63
-18.68
-4.04
7.93
16.93
23.49
28.42
32.32
35.41
37.64
38.92
39.33
39.11
38.61
38.03
37.39
36.51
35.22
33.44
31.32
29.17
27.35
26.04
25.18
24.46
23.46
21.86
19.59
16.87
14.08
11.60
9.63
8.09
6.64
4.87
2.51
-0.44
-3.68
-6.77
-9.33
-11.26
-12.77
-14.32
-16.38
-19.22
-22.79
-26.72
-30.53
-33.84
-36.51
-38.68
-40.72
-43.06
-46.08
-50.05
-54.99
-60.58
-66.07
-70.21
-71.55
-68.83
-61.48
-49.98
-35.77
-20.81
-6.92
4.72
13.82
20.79
26.31
30.94
34.92
38.20
40.62
42.11
42.70
42.53
41.77
40.54
38.91
36.99
34.89
32.79
30.93
29.53
28.69
28.30
27.99
27.30
25.83
23.37
20.11
16.47
12.96
9.94
7.48
5.34
3.22
0.91
-1.59
-4.07
-6.29
-8.16
-9.83
-11.63
-13.93
-16.91
-20.49
-24.37
-28.12
-31.40
-34.10
-36.39
-38.65
-41.34
-44.90
-49.54
-55.08
-60.85
-65.68
-68.15
-66.98
-61.46
-51.78
-38.97
-24.59
-10.25
2.87
14.13
23.41
30.82
36.57
40.80
43.67
45.45
46.42
46.88
46.98
46.78
46.23
45.26
43.90
42.28
40.67
39.37
38.57
38.32
38.47
38.66
38.50
37.66
36.04
33.75
31.08
28.35
25.73
23.21
20.66
17.85
14.60
10.92
6.96
3.01
-0.60
-3.63
-6.04
-8.06
-10.08
-12.55
-15.80
-19.80
-24.23
-28.58
-32.40
-35.49
-38.01
-40.43
-43.32
-47.17
-52.21
-58.25
-64.54
-69.85
-72.67
-71.60
-65.85
-55.56
-41.87
-26.61
-11.78
1.01
10.85
17.55
21.45
23.15
23.34
22.70
21.81
21.13
20.88
21.07
21.49
21.83
21.87
21.53
20.90
20.21
19.74
19.62
19.93
20.55
21.31
21.95
22.26
22.08
21.30
19.89
17.85
15.20
12.05
8.63
5.26
2.29
-0.02
-1.66
-2.82
-3.88
-5.17
-6.84
-8.72
-10.49
-11.91
-12.93
-13.83
-15.02
-16.94
-19.94
-24.23
-29.96
-37.01
-44.95
-52.76
-58.99
-61.99
-60.55
-54.39
-44.30
-31.94
-19.19
-7.55
2.22
10.09
16.45
21.71
26.05
29.49
31.94
33.42
34.05
34.05
33.56
32.67
31.40
29.76
27.87
25.91
24.11
22.71
21.89
21.66
21.86
22.14
22.04
21.15
19.22
16.38
13.03
9.71
6.76
4.21
1.74
-1.07
-4.49
-8.46
-12.61
-16.40
-19.43
-21.62
-23.24
-24.78
-26.76
-29.60
-33.51
-38.50
-44.30
-50.27
-55.45
-58.59
-58.54
-54.61
-46.86
-36.13
-23.79
-11.28
0.27
10.31
18.77
25.86
31.79
36.67
40.46
43.16
44.81
45.56
45.58
45.01
43.93
42.37
40.44
38.30
36.22
34.44
33.05
31.94
30.85
29.44
27.47
24.84
21.60
17.96
14.17
10.52
7.20
4.26
1.57
-1.17
-4.26
-7.87
-11.88
-15.97
-19.74
-22.90
-25.48
-27.76
-30.23
-33.44
-37.85
-43.59
-50.34
-57.18
-62.71
-65.33
-63.81
-57.69
-47.57
-34.90
-21.45
-8.77
2.25
11.46
19.12
25.62
31.14
35.67
39.08
41.37
42.69
43.30
43.47
43.39
43.10
42.53
41.70
40.68
39.66
38.82
38.28
38.00
37.76
37.29
36.23
34.40
31.80
28.68
25.42
22.39
19.81
17.64
15.65
13.53
11.10
8.37
5.54
2.87
0.47
-1.73
-4.05
-6.83
-10.29
-14.38
-18.82
-23.21
-27.22
-30.74
-33.91
-37.06
-40.52
-44.60
-49.50
-55.20
-61.47
-67.59
-72.39
-74.48
-72.57
-66.03
-55.20
-41.38
-26.41
-12.10
0.32
10.41
18.36
24.67
29.76
33.86
37.01
39.19
40.47
41.05
41.21
41.20
41.18
41.17
41.12
40.94
40.61
40.18
39.79
39.50
39.28
38.88
37.97
36.22
33.50
29.98
26.06
22.21
18.82
15.92
13.26
10.43
7.09
3.21
-0.93
-4.84
-8.11
-10.61
-12.54
-14.32
-16.39
-19.00
-22.10
-25.43
-28.67
-31.62
-34.26
-36.72
-39.22
-41.99
-45.33
-49.54
-54.80
-60.95
-67.27
-72.39
-74.64
-72.58
-65.61
-54.27
-40.11
-25.14
-11.11
0.93
10.78
18.75
25.30
30.73
35.11
38.37
40.46
41.44
41.42
40.60
39.16
37.31
35.27
33.26
31.47
30.02
28.93
28.17
27.61
27.09
26.36
25.20
23.43
21.01
18.03
14.73
11.40
8.25
5.44
2.94
0.64
-1.60
-3.86
-6.14
-8.53
-11.07
-13.92
-17.14
-20.72
-24.46
-28.12
-31.46
-34.42
-37.17
-40.07
-43.57
-48.00
-53.43
-59.39
-64.85
-68.30
-68.22
-63.60
-54.40
-41.66
-27.19
-12.91
-0.26
10.15
18.41
25.00
30.32
34.60
37.83
39.97
41.14
41.53
41.45
41.10
40.60
39.90
38.89
37.53
35.92
34.34
33.13
32.44
32.18
31.94
31.18
29.45
26.62
22.92
18.85
14.85
11.20
7.95
4.96
2.08
-0.72
-3.38
-5.79
-7.88
-9.65
-11.28
-12.98
-15.01
-17.51
-20.48
-23.71
-26.99
-30.12
-33.12
-36.26
-40.01
-44.79
-50.75
-57.57
-64.37
-69.83
-72.46
-71.02
-64.96
-54.60
-41.12
-26.20
-11.57
1.44
12.17
20.54
26.89
31.67
35.28
37.99
39.98
41.34
42.16
42.47
42.29
41.67
40.71
39.50
38.21
36.96
35.83
34.89
34.14
33.48
32.76
31.74
30.18
27.94
25.00
21.54
17.84
14.20
10.83
7.83
5.14
2.57
-0.05
-2.88
-5.91
-9.03
-12.03
-14.81
-17.40
-20.00
-22.82
-26.01
-29.46
-32.89
-35.91
-38.26
-39.92
-41.18
-42.60
-44.76
-48.14
-52.86
-58.53
-64.17
-68.35
-69.46
-66.38
-58.78
-47.38
-33.75
-19.77
-7.02
3.58
11.91
18.42
23.65
27.98
31.46
33.94
35.28
35.50
34.77
33.36
31.52
29.30
26.55
23.10
18.83
13.89
8.66
3.69
-0.55
-3.88
-6.52
-9.06
-12.23
-16.67
-22.63
-29.93
-38.06
-46.37
-54.38
-61.93
-69.20
-76.53
-84.28
-92.58
-101.22
-109.55
-116.43
-120.34
-119.71
-113.37
-101.20
-84.33
-64.97
-45.71
-28.72
-15.06
-4.68
3.16
9.22
13.78
16.64
17.46
16.16
13.13
9.29
5.74
3.54
3.50
6.09
11.33
18.89
28.11
38.18
48.25
57.60
65.68
72.15
76.85
79.84
81.39
81.87
81.70
81.15
80.36
79.35
78.16
76.90
75.77
74.99
74.64
74.67
74.84
74.93
74.75
74.24
73.39
72.15
70.46
68.19
65.23
61.55
57.33
52.85
48.55
44.84
42.02
40.14
38.98
38.04
36.61
34.00
29.66
23.39
15.33
5.90
-4.35
-14.90
-25.36
-35.45
-45.02
-53.95
-62.11
-69.34
-75.32
-79.60
-81.55
-80.57
-76.28
-68.86
-59.00
-47.86
-36.61
-26.17
-16.94
-8.89
-1.78
4.61
10.27
15.07
18.81
21.40
22.91
23.58
23.65
23.43
23.15
23.04
23.26
23.95
25.09
26.59
28.27
29.87
31.17
31.94
32.01
31.29
29.78
27.56
24.78
21.63
18.27
14.80
11.22
7.50
3.66
-0.27
-4.18
-8.00
-11.66
-15.18
-18.57
-21.78
-24.73
-27.31
-29.45
-31.21
-32.80
-34.62
-37.16
-40.87
-45.93
-52.01
-58.14
-62.91
-64.79
-62.73
-56.55
-47.04
-35.60
-23.74
-12.58
-2.60
6.16
13.86
20.56
26.20
30.71
34.12
36.66
38.60
40.19
41.45
42.29
42.57
42.19
41.27
40.00
38.61
37.28
36.07
34.85
33.48
31.82
29.81
27.51
25.04
22.57
20.19
17.91
15.63
13.24
10.65
7.89
5.11
2.51
0.27
-1.59
-3.22
-4.93
-7.09
-9.93
-13.46
-17.46
-21.53
-25.31
-28.59
-31.37
-33.88
-36.48
-39.53
-43.24
-47.60
-52.23
-56.30
-58.72
-58.33
-54.35
-46.73
-36.19
-24.05
-11.80
-0.65
8.79
16.38
22.37
27.03
30.61
33.25
35.11
36.34
37.07
37.43
37.39
36.92
35.98
34.63
33.02
31.37
29.88
28.67
27.77
27.03
26.26
25.20
23.62
21.46
18.78
15.86
13.02
10.55
8.54
6.87
5.24
3.34
1.02
-1.69
-4.50
-7.10
-9.31
-11.22
-13.08
-15.20
-17.77
-20.69
-23.74
-26.62
-29.18
-31.47
-33.76
-36.34
-39.45
-43.26
-47.74
-52.73
-57.82
-62.33
-65.31
-65.72
-62.74
-56.11
-46.25
-34.29
-21.65
-9.69
0.61
8.86
15.09
19.62
22.79
24.88
26.14
26.72
26.84
26.67
26.41
26.15
25.96
25.78
25.53
25.13
24.52
23.67
22.64
21.49
20.27
19.02
17.70
16.26
14.63
12.81
10.86
8.89
7.05
5.44
4.04
2.77
1.41
-0.25
-2.47
-5.36
-8.91
-12.88
-16.93
-20.65
-23.77
-26.22
-28.17
-29.97
-32.04
-34.72
-38.19
-42.32
-46.64
-50.31
-52.25
-51.48
-47.41
-40.12
-30.41
-19.49
-8.64
1.18
9.54
16.44
22.15
26.91
30.86
33.99
36.24
37.61
38.17
38.06
37.44
36.49
35.33
34.03
32.69
31.37
30.13
28.98
27.88
26.73
25.42
23.84
21.91
19.63
17.04
14.24
11.38
8.62
6.12
3.94
2.07
0.40
-1.25
-3.01
-4.96
-7.13
-9.50
-12.10
-14.94
-18.02
-21.28
-24.51
-27.53
-30.19
-32.57
-34.98
-37.90
-41.69
-46.44
-51.62
-56.17
-58.61
-57.64
-52.55
-43.62
-32.05
-19.56
-7.81
2.17
10.10
16.34
21.45
25.80
29.43
32.18
33.92
34.76
35.04
35.18
35.45
35.84
36.12
35.99
35.30
34.15
32.89
31.89
31.42
31.44
31.68
31.70
31.14
29.83
27.85
25.48
23.00
20.63
18.37
16.03
13.36
10.17
6.41
2.32
-1.69
-5.21
-7.93
-9.87
-11.34
-12.78
-14.61
-16.94
-19.59
-22.16
-24.31
-25.92
-27.18
-28.46
-30.19
-32.68
-36.14
-40.61
-45.97
-51.85
-57.47
-61.66
-63.07
-60.62
-54.02
-43.92
-31.76
-19.32
-8.07
1.19
8.39
13.95
18.38
21.99
24.87
26.95
28.23
28.83
28.91
28.68
28.24
27.56
26.64
25.53
24.37
23.37
22.71
22.42
22.34
22.14
21.45
20.02
17.83
15.06
11.99
8.93
6.05
3.43
1.03
-1.22
-3.34
-5.24
-6.84
-8.08
-8.98
-9.74
-10.68
-12.14
-14.34
-17.25
-20.60
-23.98
-27.08
-29.80
-32.36
-35.16
-38.58
-42.84
-47.76
-52.81
-57.09
-59.55
-59.16
-55.25
-47.78
-37.37
-25.25
-12.84
-1.40
8.25
15.88
21.68
26.04
29.35
31.89
33.79
35.12
35.94
36.30
36.24
35.83
35.14
34.26
33.29
32.36
31.54
30.88
30.34
29.83
29.20
28.31
27.02
25.29
23.20
20.92
18.71
16.82
15.43
14.58
14.18
14.03
13.89
13.47
12.56
11.03
8.90
6.39
3.85
1.68
0.17
-0.68
-1.23
-2.06
-3.70
-6.37
-9.80
-13.26
-15.87
-17.06
-16.88
-16.16
-16.24
-18.35
-22.94
-29.20
-34.99
-37.29
-33.34
-21.80
-3.92
16.19
32.11
36.73
24.22
-8.04
-58.26
-120.11
-183.72
-237.80
-272.39
-281.41
-264.40
-226.56
-177.09
-126.21
-82.18
-49.15
-26.88
-11.90
0.51
14.53
32.75
55.91
83.04
111.77
138.82
160.74
174.96
180.78
179.62
174.56
169.17
166.38
167.67
173.10
181.76
192.37
203.60
214.08
222.29
226.62
225.52
217.99
204.03
184.79
162.36
139.17
117.32
97.94
81.10
66.10
52.05
38.56
25.81
14.40
4.88
-2.43
-7.51
-10.36
-11.10
-9.96
-7.57
-4.88
-2.83
-1.89
-1.93
-2.42
-3.04
-4.17
-6.81
-12.01
-20.20
-30.84
-42.98
-55.96
-70.06
-86.20
-104.99
-125.53
-145.05
-159.68
-165.98
-162.52
-150.58
-133.48
-115.22
-99.31
-88.35
-84.19
-87.77
-98.40
-112.89
-125.69
-130.91
-125.37
-111.00
-94.80
-85.91
-90.95
-110.62
-139.14
-166.98
-185.05
-188.04
-175.23
-149.21
-113.64
-71.65
-25.54
22.85
71.71
119.19
163.16
201.23
230.68
248.54
252.23
240.20
212.60
171.77
122.25
70.50
24.12
-9.45
-24.53
-18.74
6.16
44.68
89.24
132.20
167.69
192.23
204.33
203.58
189.93
163.76
126.54
81.32
32.74
-13.67
-52.64
-79.93
-92.95
-91.10
-76.04
-51.56
-23.09
3.64
24.21
36.76
42.24
43.39
43.05
42.72
42.15
39.84
33.86
22.50
4.59
-20.21
-50.76
-83.91
-114.63
-137.50
-149.00
-149.66
-144.39
-140.80
-145.78
-162.23
-187.33
-213.22
-229.81
-228.59
-205.92
-164.66
-113.78
-66.03
-34.23
-27.45
-47.78
-89.14
-138.53
-179.82
-198.96
-188.82
-151.53
-97.50
-41.54
2.03
23.67
20.78
-2.43
-36.65
-69.89
-90.09
-88.07
-60.48
-11.43
47.67
101.36
135.21
140.82
117.79
72.60
14.68
-47.14
-106.39
-158.28
-198.04
-220.27
-219.83
-193.74
-142.95
-72.71
8.29
89.45
159.41
207.62
226.48
214.12
176.44
126.93
83.45
62.18
71.63
109.26
162.83
215.45
251.86
263.30
248.61
212.80
163.87
110.02
58.01
12.87
-21.68
-42.88
-49.25
-41.32
-22.05
3.19
27.69
44.96
50.06
40.21
15.16
-22.27
-66.28
-108.79
-141.62
-159.76
-164.29
-163.03
-167.54
-187.71
-226.10
-275.58
-322.04
-350.46
-351.01
-321.87
-268.10
-198.21
-121.46
-47.20
14.56
53.75
63.23
42.85
1.84
-42.71
-71.37
-69.70
-33.89
27.85
98.56
158.33
190.43
186.00
145.98
80.52
6.06
-58.95
-99.12
-106.19
-80.86
-32.13
25.62
76.46
106.79
108.47
80.74
30.46
-29.65
-84.44
-120.41
-128.84
-107.55
-60.74
2.34
69.18
125.74
158.73
158.54
122.43
56.60
-24.58
-102.10
-158.01
-180.81
-168.30
-127.03
-69.47
-10.16
37.73
65.02
68.28
50.49
20.27
-10.36
-29.37
-28.06
-3.57
40.64
95.63
149.22
188.51
202.76
186.63
142.70
82.08
21.88
-20.08
-31.69
-10.88
33.88
87.44
133.60
159.95
160.33
134.98
89.54
33.76
-19.89
-58.60
-72.22
-56.77
-16.29
37.86
90.46
127.01
137.72
120.09
79.11
25.77
-25.89
-62.56
-75.43
-62.89
-30.82
9.50
45.34
66.25
66.36
45.13
6.86
-40.18
-85.19
-116.82
-126.27
-110.30
-72.93
-24.76
20.44
50.03
56.33
38.34
1.54
-43.98
-86.18
-114.06
-120.41
-103.71
-68.56
-24.19
18.48
50.10
65.12
62.50
45.29
19.45
-7.41
-27.62
-35.12
-27.03
-4.65
26.79
59.62
85.85
98.97
95.23
74.47
40.64
1.68
-31.97
-50.22
-46.92
-22.49
15.89
56.98
89.91
107.66
108.53
95.06
72.01
44.77
18.65
-1.17
-10.18
-5.80
11.17
35.99
61.34
79.78
86.51
80.82
65.82
46.66
28.31
13.93
4.53
-0.36
-1.47
1.12
7.96
19.16
33.04
45.47
50.98
45.30
28.06
3.95
-18.70
-31.52
-29.69
-13.77
11.59
40.86
70.74
101.31
134.57
171.79
211.35
248.45
276.89
291.46
289.80
272.69
242.93
203.53
156.39
102.52
43.65
-15.94
-68.96
-106.85
-123.27
-117.45
-95.42
-67.79
-45.02
-32.63
-29.38
-29.14
-25.29
-14.99
-0.47
12.80
19.83
19.12
13.30
7.29
5.62
10.35
20.62
33.46
45.41
53.39
55.18
49.00
33.25
6.72
-30.14
-73.99
-118.35
-155.18
-178.19
-186.27
-185.03
-184.86
-196.05
-223.19
-262.01
-300.52
-323.73
-320.00
-285.48
-225.20
-150.64
-75.99
-14.55
23.84
34.35
18.39
-16.24
-56.72
-88.48
-99.56
-84.48
-45.87
6.77
60.52
103.05
125.56
124.56
102.29
66.04
26.43
-5.34
-20.56
-15.77
6.40
38.35
70.16
92.41
98.10
83.85
50.64
4.14
-45.74
-86.78
-107.98
-103.43
-74.81
-30.83
15.93
53.39
73.25
72.32
52.33
18.86
-19.72
-53.64
-73.86
-74.79
-56.46
-25.01
9.21
35.33
45.40
36.67
11.89
-21.91
-55.58
-80.34
-89.99
-82.68
-61.26
-32.28
-3.73
17.73
28.59
29.07
22.22
12.37
3.56
-1.53
-2.24
0.17
3.12
3.96
1.48
-3.20
-6.88
-5.82
2.10
15.77
30.89
41.83
44.33
37.97
26.54
16.44
13.52
20.23
34.45
50.57
62.30
65.26
58.17
42.45
20.77
-3.97
-28.64
-49.32
-61.39
-60.62
-45.27
-17.72
15.61
46.23
66.47
71.64
60.76
35.88
1.19
-37.40
-72.60
-96.68
-103.43
-90.62
-61.44
-23.58
13.74
43.37
62.27
71.20
72.48
67.77
57.38
41.26
20.79
-0.49
-17.89
-27.67
-28.92
-23.72
-15.76
-8.20
-2.11
3.46
10.26
19.15
29.13
37.66
41.97
40.32
32.65
20.29
4.95
-12.16
-30.71
-50.68
-71.71
-92.43
-110.37
-122.44
-125.66
-118.24
-100.39
-74.64
-45.27
-17.06
6.24
22.99
33.84
40.81
45.79
49.56
51.64
51.20
48.13
43.62
39.77
38.58
40.95
46.19
52.52
58.00
61.28
62.07
60.95
58.77
56.11
53.05
49.22
44.27
38.26
31.79
25.80
21.32
19.10
19.36
21.88
25.99
30.75
35.17
38.47
40.37
41.17
41.65
42.67
44.70
47.54
50.44
52.52
53.20
52.50
50.85
48.89
47.05
45.43
43.92
42.36
40.57
38.33
35.29
30.98
25.11
17.94
10.32
3.26
-2.62
-7.44
-11.95
-16.85
-22.30
-27.78
-32.53
-36.26
-39.40
-42.79
-46.89
-51.14
-53.92
-53.34
-48.35
-39.39
-28.38
-17.83
-9.87
-5.51
-4.59
-6.00
-8.21
-9.73
-9.53
-7.34
-3.68
0.31
3.36
4.65
4.23
2.94
1.97
2.25
3.98
6.70
9.71
12.51
15.03
17.53
20.20
22.89
25.10
26.25
26.00
24.39
21.72
18.31
14.36
9.91
4.90
-0.77
-7.16
-14.23
-21.71
-29.05
-35.47
-40.24
-42.95
-43.81
-43.62
-43.43
-44.13
-46.11
-49.08
-52.30
-54.82
-55.82
-54.78
-51.62
-46.69
-40.63
-34.23
-28.09
-22.55
-17.61
-13.10
-8.85
-4.81
-1.10
2.17
4.96
7.38
9.55
11.54
13.26
14.49
15.00
14.72
13.84
12.68
11.67
11.08
10.96
11.13
11.33
11.38
11.33
11.37
11.64
12.11
12.45
12.23
11.11
9.03
6.27
3.25
0.37
-2.18
-4.40
-6.38
-8.21
-9.92
-11.65
-13.60
-16.08
-19.35
-23.54
-28.44
-33.58
-38.32
-42.00
-44.11
-44.32
-42.57
-39.04
-34.13
-28.41
-22.35
-16.36
-10.58
-5.10
0.04
4.67
8.56
11.54
13.57
14.79
15.43
15.67
15.57
15.07
14.16
12.94
11.68
10.78
10.54
11.02
12.06
13.25
14.14
14.41
13.97
13.03
11.94
11.07
10.65
10.65
10.78
10.55
9.45
7.15
3.65
-0.78
-5.59
-10.15
-13.80
-15.96
-16.08
-13.89
-9.70
-4.69
-0.69
0.40
-2.41
-8.56
-16.05
-22.39
-25.87
-26.31
-24.76
-22.43
-19.63
-15.45
-8.44
2.13
15.49
29.53
41.87
51.16
57.63
62.77
68.28
75.17
83.27
91.52
98.53
103.23
105.12
104.39
101.68
97.86
93.72
89.62
85.22
79.44
70.66
57.38
38.87
15.77
-9.75
-34.58
-55.52
-70.26
-77.95
-79.21
-75.59
-68.86
-60.53
-51.61
-42.86
-35.05
-28.97
-25.29
-24.26
-25.47
-27.95
-30.63
-32.66
-33.80
-34.42
-35.17
-36.55
-38.64
-41.01
-42.87
-43.60
-43.00
-41.49
-39.99
-39.56
-40.92
-44.10
-48.30
-52.05
-53.62
-51.55
-45.17
-34.80
-21.69
-7.66
5.48
16.52
25.04
31.44
36.54
41.18
45.88
50.76
55.57
59.97
63.70
66.58
68.43
69.00
67.88
64.63
59.10
51.62
43.02
34.34
26.37
19.39
13.10
6.87
0.17
-7.18
-15.04
-23.00
-30.55
-37.23
-42.60
-46.37
-48.65
-49.98
-51.39
-54.07
-58.78
-65.34
-72.50
-78.27
-80.60
-78.30
-71.44
-61.42
-50.35
-40.23
-32.35
-26.97
-23.67
-21.84
-21.25
-22.26
-25.73
-32.73
-44.12
-60.15
-79.88
-100.75
-118.64
-128.73
-126.90
-111.56
-84.48
-50.46
-15.70
14.38
36.69
50.92
58.58
61.68
61.61
58.89
53.77
46.82
39.40
33.25
29.88
29.82
32.33
35.69
37.96
37.76
34.75
29.68
23.93
18.84
15.24
13.22
12.30
11.75
11.00
9.86
8.56
7.53
7.14
7.47
8.12
8.45
7.81
6.00
3.29
0.31
-2.43
-4.92
-7.54
-10.88
-15.11
-19.79
-24.05
-26.97
-28.14
-27.83
-26.83
-26.00
-26.05
-27.30
-29.72
-33.02
-36.58
-39.48
-40.62
-39.09
-34.50
-27.24
-18.28
-8.83
0.13
8.07
14.88
20.64
25.41
29.11
31.56
32.62
32.32
30.85
28.65
26.17
23.81
21.73
19.75
17.49
14.61
11.07
7.20
3.75
1.50
0.99
2.35
5.25
9.01
12.89
16.25
18.59
19.66
19.42
18.03
15.85
13.35
10.93
8.79
6.83
4.65
1.75
-2.31
-7.71
-14.28
-21.45
-28.40
-34.26
-38.32
-40.34
-40.68
-40.30
-40.47
-42.34
-46.32
-51.81
-57.16
-60.24
-59.19
-53.18
-42.71
-29.40
-15.42
-2.51
8.53
17.84
25.97
33.28
39.71
44.94
48.72
50.98
52.11
52.75
53.64
55.36
58.37
63.08
69.83
78.53
88.00
96.30
101.22
100.96
94.77
83.33
68.69
53.70
40.90
30.87
23.13
16.95
11.92
7.87
4.90
3.28
3.36
5.30
7.29
8.35
9.36
12.40
18.49
26.23
31.83
30.43
17.84
-10.53
-54.58
-108.59
-163.60
-211.77
-249.05
-275.20
-292.10
-302.39
-312.28
-326.11
-344.77
-366.19
-387.56
-405.88
-417.64
-418.83
-381.80
-296.56
-177.73
-56.13
42.89
110.37
150.32
171.72
185.02
196.20
204.29
208.44
210.91
217.02
229.01
246.95
268.12
288.39
303.65
308.63
301.91
286.82
269.48
254.54
243.10
232.61
218.95
198.70
169.12
131.12
89.39
50.64
20.05
-0.46
-12.62
-19.77
-24.54
-27.87
-28.43
-24.52
-16.74
-9.33
-8.24
-17.60
-36.67
-59.79
-79.73
-91.24
-93.51
-89.58
-83.64
-78.09
-72.55
-64.92
-53.65
-39.15
-23.36
-8.34
4.89
16.94
29.34
43.47
59.61
76.52
91.51
101.55
104.45
99.94
90.17
79.12
71.15
69.38
74.45
84.26
94.59
100.32
96.74
80.87
52.29
13.37
-31.07
-75.08
-113.09
-141.51
-159.65
-169.48
-174.60
-178.70
-184.37
-192.44
-202.09
-211.13
-216.54
-215.03
-203.61
-180.31
-144.96
-99.81
-49.46
-0.20
41.55
71.06
86.86
91.10
88.68
85.18
84.65
88.34
94.79
101.17
105.12
105.85
104.16
101.38
98.18
94.03
87.55
77.51
63.71
47.16
29.58
12.53
-3.19
-17.67
-31.52
-45.29
-58.98
-71.89
-82.83
-90.49
-93.93
-92.85
-87.74
-79.78
-70.62
-62.04
-55.65
-52.49
-52.92
-56.51
-62.16
-68.48
-74.03
-77.76
-79.25
-78.79
-77.07
-74.82
-72.43
-69.75
-66.25
-61.36
-54.95
-47.54
-40.30
-34.74
-32.06
-32.77
-36.22
-40.84
-44.46
-45.13
-41.70
-34.34
-24.33
-13.45
-3.25
5.67
13.84
22.59
33.41
47.32
64.36
83.50
102.86
120.17
133.14
140.05
140.10
133.96
123.83
113.06
105.16
102.50
105.22
110.92
115.52
114.91
106.73
91.21
70.84
49.14
29.40
13.85
3.53
-1.58
-2.39
-0.63
1.36
1.29
-2.36
-9.62
-19.12
-28.70
-36.53
-41.87
-45.27
-48.03
-51.25
-55.00
-57.83
-57.20
-50.26
-35.16
-12.20
15.94
44.92
70.42
89.64
102.19
109.61
114.26
118.01
121.61
124.99
127.84
130.12
132.11
134.00
135.63
136.36
135.42
132.26
126.82
119.57
111.48
103.52
96.43
90.29
84.38
77.25
67.07
52.28
32.09
6.92
-21.79
-52.04
-81.87
-109.89
-135.45
-158.50
-179.28
-198.05
-214.90
-229.66
-241.73
-250.20
-253.94
-251.88
-243.27
-227.73
-205.23
-176.00
-140.70
-100.62
-57.96
-15.81
22.37
53.67
76.60
91.45
99.96
104.55
107.40
109.89
112.55
115.31
117.76
119.39
119.74
118.47
115.48
110.93
105.19
98.72
91.94
85.15
78.57
72.43
66.97
62.41
58.78
55.84
53.12
50.01
45.91
40.41
33.33
24.78
15.14
5.00
-4.87
-13.65
-20.65
-25.59
-28.77
-31.19
-34.39
-39.92
-48.86
-61.23
-75.75
-90.03
-101.12
-106.34
-104.06
-94.25
-78.39
-58.98
-38.65
-19.47
-2.60
11.58
23.07
31.99
38.41
42.51
44.67
45.53
45.70
45.57
45.03
43.75
41.41
38.11
34.40
31.05
28.58
26.91
25.29
22.69
18.39
12.44
5.91
0.43
-2.49
-2.22
0.68
4.80
8.50
10.67
10.97
9.72
7.52
4.81
1.85
-1.14
-3.66
-5.08
-4.88
-3.21
-1.05
0.09
-1.23
-5.50
-11.92
-18.57
-23.21
-24.11
-20.75
-13.99
-5.65
2.19
7.99
11.47
13.84
17.25
23.81
34.46
48.43
63.61
77.42
87.82
93.69
94.72
91.09
83.35
72.62
60.86
50.47
43.41
39.87
37.72
33.29
23.28
6.95
-12.82
-30.42
-40.06
-38.78
-28.09
-13.54
-2.32
-0.03
-8.56
-25.95
-48.36
-72.63
-97.77
-124.49
-153.24
-182.06
-206.16
-219.26
-216.33
-195.67
-159.37
-112.00
-58.86
-4.85
45.55
87.48
115.46
123.98
109.33
71.41
14.89
-51.11
-114.84
-164.38
-190.25
-187.11
-154.70
-97.99
-26.30
48.33
113.39
158.44
177.16
168.29
135.13
84.07
22.74
-41.07
-99.75
-145.41
-170.01
-166.48
-131.42
-67.97
12.78
93.38
155.09
184.22
177.30
142.10
94.18
50.29
21.73
10.83
11.80
14.82
10.71
-5.76
-35.21
-74.67
-119.02
-161.63
-194.85
-211.49
-207.28
-183.43
-147.01
-108.56
-77.16
-56.06
-41.50
-25.62
-1.89
30.69
67.00
98.96
120.13
128.66
127.04
119.34
108.20
93.60
73.91
48.13
17.59
-14.02
-42.00
-62.41
-73.61
-76.54
-74.21
-70.31
-67.80
-67.78
-69.15
-69.47
-66.52
-59.65
-50.16
-40.44
-32.52
-26.96
-22.86
-18.77
-13.79
-8.15
-2.99
0.54
1.81
0.86
-2.00
-6.59
-12.89
-20.74
-29.48
-37.88
-44.50
-48.36
-49.28
-48.01
-45.78
-43.84
-43.16
-44.30
-47.45
-52.46
-58.68
-64.81
-68.80
-68.02
-59.81
-42.24
-15.09
19.61
57.71
93.88
123.05
141.96
149.93
148.85
142.24
133.96
127.10
123.28
122.55
123.68
124.52
122.56
115.59
102.33
82.93
59.02
33.35
8.94
-11.76
-27.48
-38.40
-46.02
-52.47
-59.70
-68.63
-78.48
-86.74
-89.74
-84.22
-69.21
-47.41
-25.26
-10.83
-10.90
-28.03
-59.45
-98.52
-137.83
-172.51
-201.79
-227.92
-253.38
-278.06
-298.47
-309.23
-305.96
-287.80
-257.43
-218.92
-174.98
-125.40
-68.48
-4.73
59.80
113.25
141.84
136.68
99.31
42.84
-12.61
-47.42
-49.70
-18.54
37.21
103.27
164.49
207.82
224.02
208.74
163.70
97.41
24.03
-40.03
-80.48
-88.78
-64.06
-12.38
55.14
124.11
179.17
206.64
197.98
153.31
82.75
4.05
-62.51
-100.41
-101.56
-67.66
-8.42
61.67
126.36
170.72
183.88
162.11
110.84
44.33
-18.07
-57.53
-61.71
-28.59
33.38
108.27
177.34
223.74
236.83
214.79
165.03
102.19
43.34
2.23
-15.30
-12.74
-1.09
6.04
-2.18
-30.12
-73.97
-123.00
-162.81
-180.16
-167.97
-128.98
-75.93
-27.53
-1.37
-6.51
-39.59
-86.08
-126.47
-143.89
-130.04
-87.20
-26.21
37.64
89.01
116.08
113.13
81.72
30.72
-25.50
-70.57
-90.87
-79.68
-39.10
20.58
83.85
133.99
156.94
144.96
98.86
28.50
-49.22
-114.45
-149.99
-146.50
-105.41
-38.54
35.38
96.02
126.80
119.53
76.66
10.47
-60.36
-116.12
-141.68
-130.46
-85.71
-18.93
53.58
115.13
152.52
159.62
138.98
101.46
63.28
40.94
45.85
80.19
135.97
197.87
248.80
275.88
274.09
246.82
203.30
154.25
107.96
68.08
33.73
1.35
-33.41
-73.93
-121.32
-174.06
-227.60
-274.54
-305.94
-313.98
-295.19
-252.87
-196.67
-139.32
-91.82
-59.16
-39.10
-24.10
-5.69
21.21
55.89
92.33
121.98
137.10
133.29
110.47
72.29
24.94
-23.55
-63.96
-86.92
-85.18
-56.66
-6.67
52.20
103.68
134.06
137.97
120.76
96.02
79.33
81.49
104.49
141.76
181.90
213.69
229.61
227.19
207.99
175.68
134.35
87.32
36.55
-17.59
-75.65
-137.87
-202.49
-264.59
-316.58
-349.99
-358.34
-339.67
-297.87
-242.18
-184.70
-136.69
-105.02
-90.21
-86.70
-85.37
-76.97
-55.53
-20.05
25.63
74.51
118.74
151.40
167.14
162.02
133.77
82.84
13.96
-63.01
-134.37
-185.94
-207.16
-194.27
-151.30
-88.36
-18.46
45.55
93.06
116.84
113.88
86.44
42.63
-4.46
-39.94
-51.75
-35.07
5.90
59.68
111.80
149.27
163.76
152.62
118.59
68.78
13.63
-34.67
-64.70
-68.79
-45.72
-1.37
52.73
102.75
136.26
145.17
127.45
87.62
35.97
-13.64
-47.58
-56.83
-40.26
-5.18
35.63
68.88
85.28
81.37
58.75
21.86
-23.52
-70.38
-110.13
-133.74
-134.50
-111.39
-70.63
-23.90
16.27
41.29
48.86
41.95
25.75
5.23
-15.69
-33.31
-43.49
-42.30
-27.92
-2.30
29.05
59.13
82.00
94.33
95.36
86.02
68.39
46.06
24.43
10.21
9.41
24.75
54.06
90.74
126.25
153.10
166.96
167.24
156.10
137.18
114.15
89.87
65.77
41.60
15.42
-15.54
-53.50
-98.48
-147.24
-193.50
-229.45
-247.65
-243.17
-214.99
-166.69
-106.26
-44.54
7.12
39.79
49.42
37.88
12.20
-17.84
-42.83
-56.40
-56.36
-44.40
-24.50
-1.26
21.31
39.92
52.06
55.79
50.03
35.28
14.29
-7.85
-24.44
-29.37
-19.61
3.22
33.17
62.12
83.05
92.31
89.86
77.65
57.43
30.09
-3.09
-38.29
-68.31
-84.29
-79.59
-53.42
-12.05
33.48
71.77
95.05
100.53
89.23
63.81
27.55
-14.89
-56.35
-87.56
-99.78
-88.69
-57.02
-14.03
27.88
57.64
68.71
59.87
34.32
-1.78
-40.48
-73.19
-92.21
-92.81
-75.07
-44.24
-9.03
21.44
40.38
44.58
34.40
12.88
-14.81
-41.98
-61.38
-67.06
-56.42
-31.65
0.84
32.85
57.50
71.12
73.36
65.80
50.60
30.05
7.10
-14.14
-28.95
-33.59
-27.18
-12.40
5.75
22.03
32.80
36.48
32.88
22.48
6.41
-12.68
-30.14
-40.18
-38.09
-22.86
1.75
28.63
50.17
61.04
59.44
46.48
24.99
-1.16
-27.16
-47.44
-56.74
-52.20
-35.17
-11.36
11.27
25.72
28.54
20.47
5.01
-13.68
-32.26
-48.18
-58.97
-61.84
-54.40
-36.22
-9.77
19.71
45.98
64.01
71.33
68.19
56.30
37.77
14.63
-10.56
-34.01
-50.94
-56.99
-50.29
-32.74
-9.79
11.63
25.82
30.52
27.32
20.48
14.70
13.28
17.21
25.28
35.02
43.60
48.79
49.66
46.86
42.24
37.93
35.36
34.52
34.24
32.89
29.30
23.17
15.03
5.67
-4.31
-14.45
-24.03
-31.58
-35.48
-34.84
-30.32
-24.20
-19.45
-18.39
-21.64
-27.78
-33.37
-34.87
-29.97
-18.44
-2.00
16.35
33.09
45.07
50.49
50.94
50.08
52.55
62.44
81.60
108.14
135.72
154.55
154.64
132.45
91.88
44.16
4.03
-15.66
-9.01
20.61
62.38
103.32
136.48
160.51
178.12
192.58
205.69
217.96
229.94
243.45
244.17
224.16
182.19
124.10
58.33
-7.99
-68.79
