1593709119.00
64.000000
-0.00
-0.00
-0.00
-0.00
-0.00
-0.00
-0.00
-0.00
-0.00
-0.00
0.00
0.01
0.01
-0.00
-0.03
-0.05
-0.05
0.00
0.13
0.36
0.66
1.01
1.37
1.72
2.06
2.40
2.79
3.24
3.80
4.42
5.06
5.66
6.20
6.68
7.15
7.68
8.31
9.14
10.09
11.04
11.88
12.56
13.14
13.76
14.65
15.96
17.91
20.32
22.90
25.38
27.58
29.57
31.68
34.32
37.81
42.54
48.15
54.10
59.83
64.97
69.58
74.14
79.34
85.71
93.76
103.00
112.62
121.73
129.77
136.75
143.30
150.75
157.77
166.64
177.95
191.79
206.97
220.57
228.25
225.36
208.53
176.87
132.76
80.04
23.07
-34.93
-92.40
-149.11
-205.20
-260.39
-313.85
-364.10
-410.18
-451.34
-486.98
-516.22
-537.69
-549.68
-550.45
-538.93
-514.88
-479.46
-434.74
-383.33
-327.87
-270.65
-213.44
-157.56
-104.06
-53.76
-7.57
33.72
69.53
99.55
123.81
142.67
156.71
166.58
173.00
176.59
177.85
177.15
174.74
170.73
165.17
158.18
150.03
141.13
132.03
123.24
115.10
107.59
100.38
92.95
84.89
76.06
66.80
57.72
49.50
42.56
36.89
32.08
27.49
22.52
16.70
9.73
1.63
-6.96
-14.61
-19.21
-18.60
-11.58
1.24
17.39
33.31
45.74
52.97
55.15
53.82
50.75
47.11
43.16
38.78
33.97
29.26
25.48
23.26
22.52
22.57
22.36
21.04
18.38
14.80
11.05
7.84
5.68
4.82
5.34
7.15
9.84
12.63
14.49
14.54
12.47
8.81
4.69
1.31
-0.68
-1.40
-1.50
-1.69
-2.20
-2.80
-3.03
-2.62
-1.69
-0.75
-0.29
-0.54
-1.43
-2.51
-3.34
-3.65
-3.48
-3.10
-2.87
-3.01
-3.53
-4.24
-4.83
-5.07
-4.86
-4.24
-3.36
-2.41
-1.54
-0.86
-0.38
-0.00
0.40
0.99
1.84
2.90
4.05
5.14
6.11
7.00
7.95
9.10
10.47
11.92
13.18
14.00
14.27
14.02
13.38
12.43
11.17
9.53
7.49
5.12
2.47
-0.32
-3.12
-5.79
-8.20
-10.21
-11.69
-12.55
-12.80
-12.60
-12.12
-11.53
-10.92
-10.27
-9.56
-8.78
-8.00
-7.32
-6.85
-6.57
-6.40
-6.23
-5.99
-5.67
-5.35
-5.09
-4.89
-4.73
-4.49
-4.13
-3.67
-3.20
-2.85
-2.66
-2.63
-2.66
-2.67
-2.65
-2.63
-2.67
-2.79
-2.95
-3.07
-3.10
-3.01
-2.85
-2.68
-2.58
-2.58
-2.66
-2.77
-2.86
-2.87
-2.81
-2.74
-2.75
-2.90
-3.21
-3.64
-4.10
-4.48
-4.68
-4.63
-4.21
-3.36
-2.09
-0.49
1.31
3.17
4.96
6.58
8.01
9.21
10.16
10.84
11.23
11.34
11.20
10.81
10.19
9.38
8.47
7.56
6.79
6.25
5.92
5.68
5.34
4.76
3.86
2.72
1.50
0.35
-0.61
-1.35
-1.91
-2.31
-2.56
-2.65
-2.56
-2.31
-2.01
-1.80
-1.81
-2.11
-2.66
-3.34
-4.02
-4.59
-5.00
-5.24
-5.29
-5.18
-4.91
-4.57
-4.26
-4.08
-4.05
-4.02
-3.77
-2.98
-1.47
0.80
3.62
6.64
9.43
11.70
13.29
14.26
14.76
15.04
15.28
15.63
16.18
16.94
17.84
18.71
19.30
19.39
18.88
17.88
16.77
16.00
15.97
16.86
18.55
20.63
22.55
23.86
24.34
24.07
23.31
22.35
21.31
20.01
18.11
15.35
11.70
7.51
3.31
-0.44
-3.49
-5.93
-8.01
-9.93
-11.72
-13.32
-14.63
-15.67
-16.58
-17.51
-18.54
-19.61
-20.56
-21.25
-21.65
-21.83
-21.92
-22.00
-22.10
-22.05
-21.64
-20.61
-18.78
-16.10
-12.71
-8.88
-5.00
-1.49
1.29
3.12
3.96
3.91
3.25
2.28
1.31
0.52
-0.01
-0.33
-0.50
-0.57
-0.57
-0.47
-0.30
-0.09
0.07
0.14
0.07
-0.17
-0.64
-1.46
-2.73
-4.52
-6.76
-9.24
-11.72
-13.97
-15.90
-17.50
-18.81
-19.79
-20.38
-20.49
-20.09
-19.27
-18.24
-17.28
-16.59
-16.25
-16.18
-16.16
-15.87
-15.05
-13.53
-11.38
-8.82
-6.22
-3.95
-2.26
-1.33
-1.24
-2.03
-3.65
-5.90
-8.36
-10.49
-11.76
-11.83
-10.74
-8.88
-6.76
-4.88
-3.47
-2.54
-1.93
-1.53
-1.31
-1.33
-1.65
-2.27
-3.04
-3.77
-4.28
-4.47
-4.39
-4.18
-4.04
-4.17
-4.66
-5.46
-6.46
-7.46
-8.28
-8.85
-9.23
-9.62
-10.25
-11.27
-12.63
-14.08
-15.28
-15.86
-15.63
-14.59
-12.88
-10.76
-8.47
-6.17
-3.94
-1.78
0.33
2.42
4.50
6.52
8.40
10.02
11.31
12.19
12.67
12.78
12.60
12.24
11.85
11.65
11.83
12.52
13.64
14.97
16.16
16.83
16.76
15.91
14.40
12.52
10.60
8.92
7.68
6.98
6.78
6.94
7.27
7.50
7.42
6.85
5.77
4.29
2.60
0.97
-0.43
-1.53
-2.42
-3.26
-4.24
-5.44
-6.86
-8.41
-9.95
-11.33
-12.41
-13.05
-13.15
-12.71
-11.82
-10.71
-9.58
-8.52
-7.42
-6.03
-4.09
-1.47
1.75
5.26
8.65
11.51
13.56
14.67
14.91
14.51
13.84
13.40
13.61
14.73
16.80
19.55
22.49
25.09
26.88
27.59
27.20
25.83
23.75
21.26
18.64
16.13
13.89
11.95
10.24
8.60
6.82
4.70
2.09
-1.04
-4.67
-8.67
-12.87
-17.06
-21.02
-24.60
-27.67
-30.20
-32.18
-33.56
-34.21
-33.88
-32.32
-29.44
-25.37
-20.51
-15.40
-10.53
-6.14
-2.24
1.38
4.96
8.63
12.34
15.93
19.25
22.18
24.73
26.91
28.74
30.17
31.13
31.59
31.58
31.19
30.49
29.47
27.93
25.65
22.44
18.29
13.50
8.56
4.04
0.41
-2.09
-3.51
-4.04
-4.00
-3.64
-3.18
-2.73
-2.33
-1.99
-1.71
-1.54
-1.57
-1.89
-2.62
-3.79
-5.37
-7.18
-8.99
-10.58
-11.80
-12.65
-13.26
-13.81
-14.41
-15.05
-15.56
-15.66
-15.15
-13.98
-12.37
-10.68
-9.33
-8.60
-8.57
-9.13
-10.04
-11.04
-11.90
-12.42
-12.43
-11.80
-10.41
-8.30
-5.60
-2.51
0.77
4.12
7.49
10.82
13.97
16.74
18.92
20.37
21.14
21.42
21.52
21.68
22.04
22.58
23.17
23.60
23.70
23.39
22.65
21.51
19.94
17.86
15.16
11.82
7.97
3.86
-0.23
-4.12
-7.84
-11.43
-14.87
-17.81
-19.74
-20.09
-18.66
-15.64
-11.60
-7.21
-2.93
1.06
4.78
8.24
11.33
13.86
15.73
17.08
18.31
19.88
22.09
24.93
28.18
31.50
34.69
37.70
40.46
42.65
43.62
42.53
38.74
32.22
23.70
14.45
5.76
-1.49
-7.09
-11.25
-14.33
-16.48
-17.64
-17.73
-16.93
-15.72
-14.79
-14.70
-15.64
-17.40
-19.63
-21.96
-24.26
-26.51
-28.77
-31.02
-33.05
-34.57
-35.25
-34.86
-33.33
-30.85
-27.79
-24.59
-21.60
-18.96
-16.52
-13.95
-10.97
-7.47
-3.68
-0.07
2.88
4.86
5.85
6.19
6.30
6.57
7.21
8.11
9.05
9.73
9.91
9.47
8.37
6.67
4.52
2.16
-0.08
-1.80
-2.75
-2.85
-2.35
-1.72
-1.48
-1.98
-3.26
-5.05
-6.96
-8.69
-10.11
-11.35
-12.66
-14.20
-15.99
-17.78
-19.19
-19.84
-19.52
-18.29
-16.43
-14.38
-12.62
-11.57
-11.49
-12.45
-14.31
-16.71
-19.13
-21.01
-21.88
-21.42
-19.57
-16.50
-12.51
-7.96
-3.24
1.30
5.32
8.59
10.98
12.52
13.36
13.67
13.60
13.18
12.39
11.27
9.97
8.78
7.98
7.78
8.19
9.04
10.07
11.02
11.68
11.97
11.88
11.48
10.84
10.08
9.23
8.34
7.40
6.37
5.25
3.99
2.59
1.04
-0.65
-2.36
-3.93
-5.11
-5.74
-5.75
-5.33
-4.77
-4.43
-4.54
-5.16
-6.14
-7.23
-8.13
-8.53
-8.22
-7.05
-5.03
-2.35
0.63
3.46
5.70
7.09
7.55
7.21
6.33
5.21
4.16
3.44
3.24
3.62
4.47
5.56
6.63
7.46
7.96
8.14
8.03
7.60
6.78
5.54
3.97
2.31
0.83
-0.33
-1.24
-2.17
-3.40
-5.04
-6.91
-8.62
-9.75
-10.08
-9.70
-8.95
-8.29
-8.05
-8.38
-9.19
-10.24
-11.25
-12.07
-12.66
-13.10
-13.52
-14.02
-14.66
-15.39
-16.13
-16.73
-17.04
-16.90
-16.14
-14.66
-12.47
-9.78
-6.92
-4.26
-2.06
-0.39
0.87
1.90
2.79
3.50
3.90
3.92
3.64
3.30
3.21
3.54
4.20
4.87
5.10
4.61
3.40
1.76
0.22
-0.80
-1.12
-0.93
-0.63
-0.66
-1.26
-2.31
-3.46
-4.28
-4.48
-4.03
-3.11
-2.03
-1.05
-0.34
0.08
0.24
0.22
0.10
-0.08
-0.29
-0.47
-0.58
-0.55
-0.30
0.21
1.00
2.09
3.53
5.41
7.80
10.66
13.83
16.96
19.66
21.59
22.54
22.50
21.63
20.15
18.36
16.57
15.04
13.92
13.23
12.79
12.33
11.58
10.44
8.98
7.44
6.04
4.94
4.11
3.47
2.89
2.31
1.75
1.23
0.76
0.26
-0.35
-1.13
-2.05
-2.98
-3.80
-4.41
-4.81
-5.05
-5.25
-5.52
-5.90
-6.41
-7.04
-7.79
-8.68
-9.75
-10.96
-12.23
-13.39
-14.23
-14.62
-14.56
-14.14
-13.53
-12.89
-12.28
-11.64
-10.84
-9.76
-8.34
-6.64
-4.82
-3.11
-1.73
-0.79
-0.30
-0.15
-0.18
-0.23
-0.21
-0.11
0.01
0.10
0.16
0.23
0.39
0.71
1.19
1.79
2.38
2.88
3.22
3.42
3.55
3.65
3.74
3.76
3.66
3.42
3.05
2.61
2.15
1.66
1.11
0.48
-0.18
-0.77
-1.14
-1.17
-0.87
-0.31
0.39
1.11
1.79
2.45
3.13
3.88
4.76
5.78
6.93
8.13
9.27
10.19
10.77
10.97
10.86
10.61
10.40
10.36
10.46
10.62
10.73
10.73
10.65
10.56
10.51
10.49
10.49
10.47
10.44
10.41
10.41
10.41
10.35
10.20
9.94
9.61
9.26
8.94
8.64
8.30
7.79
6.97
5.70
3.86
1.41
-1.64
-5.15
-8.92
-12.67
-16.08
-18.88
-20.84
-21.85
-21.88
-21.02
-19.43
-17.33
-14.98
-12.69
-10.72
-9.32
-8.63
-8.66
-9.37
-10.62
-12.28
-14.14
-15.96
-17.38
-18.05
-17.70
-16.28
-14.01
-11.34
-8.80
-6.85
-5.74
-5.47
-5.81
-6.45
-7.04
-7.39
-7.37
-6.97
-6.23
-5.18
-3.85
-2.30
-0.65
0.95
2.30
3.29
3.88
4.12
4.10
3.92
3.64
3.28
2.88
2.47
2.12
1.92
1.93
2.20
2.73
3.43
4.24
5.11
6.02
7.01
8.11
9.30
10.43
11.27
11.64
11.43
10.76
9.89
9.12
8.67
8.60
8.79
9.01
9.04
8.74
8.13
7.33
6.58
6.05
5.85
5.94
6.18
6.38
6.38
6.07
5.44
4.54
3.45
2.22
0.93
-0.35
-1.57
-2.66
-3.59
-4.38
-5.13
-5.96
-7.04
-8.48
-10.25
-12.15
-13.85
-15.02
-15.41
-14.95
-13.76
-12.08
-10.16
-8.20
-6.34
-4.58
-2.96
-1.42
0.03
1.43
2.78
4.06
5.22
6.23
7.04
7.59
7.78
7.54
6.88
5.91
4.85
3.93
3.29
2.96
2.78
2.54
2.08
1.41
0.63
-0.10
-0.66
-1.06
-1.38
-1.75
-2.27
-2.96
-3.80
-4.74
-5.71
-6.65
-7.52
-8.29
-8.96
-9.54
-10.04
-10.46
-10.77
-10.91
-10.82
-10.48
-9.88
-9.05
-8.01
-6.76
-5.31
-3.64
-1.77
0.25
2.37
4.47
6.42
8.13
9.51
10.52
11.12
11.35
11.28
11.03
10.77
10.60
10.58
10.67
10.72
10.62
10.30
9.83
9.34
8.99
8.81
8.70
8.48
7.96
7.06
5.82
4.37
2.89
1.52
0.34
-0.66
-1.53
-2.31
-3.06
-3.78
-4.49
-5.18
-5.88
-6.60
-7.40
-8.29
-9.25
-10.24
-11.13
-11.80
-12.09
-11.87
-11.02
-9.52
-7.48
-5.08
-2.58
-0.16
2.03
3.98
5.73
7.31
8.73
9.97
10.98
11.73
12.23
12.46
12.50
12.42
12.33
12.28
12.28
12.28
12.15
11.83
11.29
10.60
9.84
9.09
8.37
7.67
6.96
6.26
5.57
4.94
4.32
3.68
2.96
2.13
1.20
0.23
-0.77
-1.76
-2.79
-3.88
-5.01
-6.19
-7.36
-8.49
-9.54
-10.46
-11.17
-11.64
-11.81
-11.61
-11.01
-9.94
-8.42
-6.47
-4.21
-1.80
0.56
2.68
4.41
5.72
6.63
7.28
7.82
8.38
9.02
9.68
10.18
10.35
10.06
9.33
8.34
7.38
6.68
6.35
6.29
6.26
6.03
5.48
4.66
3.72
2.88
2.20
1.66
1.13
0.48
-0.35
-1.29
-2.23
-3.05
-3.67
-4.10
-4.39
-4.60
-4.81
-5.06
-5.40
-5.86
-6.49
-7.27
-8.18
-9.07
-9.77
-10.09
-9.93
-9.31
-8.42
-7.49
-6.75
-6.27
-5.99
-5.73
-5.34
-4.74
-3.97
-3.16
-2.46
-1.95
-1.60
-1.34
-1.05
-0.64
-0.10
0.49
1.04
1.43
1.61
1.63
1.64
1.78
2.16
2.77
3.49
4.13
4.54
4.63
4.42
3.99
3.43
2.82
2.16
1.44
0.57
-0.51
-1.87
-3.48
-5.21
-6.89
-8.35
-9.49
-10.34
-10.99
-11.56
-12.12
-12.61
-12.99
-13.17
-13.13
-12.87
-12.38
-11.59
-10.38
-8.66
-6.40
-3.71
-0.78
2.17
4.97
7.49
9.69
11.50
12.92
13.92
14.52
14.81
14.90
14.87
14.78
14.60
14.29
13.78
13.10
12.30
11.50
10.81
10.25
9.76
9.22
8.49
7.48
6.25
4.90
3.57
2.36
1.32
0.40
-0.45
-1.23
-1.91
-2.41
-2.71
-2.85
-2.97
-3.25
-3.83
-4.73
-5.85
-7.01
-8.00
-8.69
-9.08
-9.25
-9.34
-9.45
-9.60
-9.68
-9.54
-9.01
-8.00
-6.52
-4.70
-2.68
-0.60
1.44
3.37
5.16
6.72
7.94
8.76
9.13
9.14
8.95
8.73
8.62
8.65
8.78
8.89
8.88
8.72
8.42
8.06
7.74
7.50
7.32
7.07
6.64
5.93
5.02
4.07
3.28
2.80
2.62
2.59
2.52
2.25
1.74
1.05
0.27
-0.53
-1.34
-2.19
-3.09
-4.04
-4.98
-5.86
-6.70
-7.52
-8.37
-9.31
-10.34
-11.37
-12.27
-12.90
-13.12
-12.89
-12.25
-11.31
-10.13
-8.74
-7.09
-5.14
-2.94
-0.64
1.52
3.34
4.71
5.65
6.28
6.71
6.97
7.02
6.76
6.14
5.22
4.16
3.15
2.34
1.78
1.40
1.09
0.72
0.21
-0.42
-1.10
-1.74
-2.25
-2.62
-2.94
-3.31
-3.80
-4.41
-5.03
-5.52
-5.78
-5.80
-5.65
-5.46
-5.31
-5.21
-5.14
-5.09
-5.12
-5.34
-5.81
-6.50
-7.26
-7.87
-8.14
-7.98
-7.38
-6.41
-5.17
-3.75
-2.22
-0.67
0.88
2.44
4.05
5.77
7.56
9.24
10.52
11.16
11.07
10.41
9.51
8.65
8.03
7.62
7.30
6.96
6.59
6.25
5.97
5.75
5.50
5.12
4.58
3.99
3.49
3.18
3.06
3.03
2.91
2.58
2.04
1.35
0.65
0.04
-0.46
-0.92
-1.45
-2.12
-2.95
-3.88
-4.85
-5.80
-6.76
-7.76
-8.84
-10.00
-11.18
-12.25
-13.09
-13.60
-13.70
-13.36
-12.58
-11.41
-9.94
-8.24
-6.41
-4.47
-2.43
-0.31
1.81
3.82
5.57
6.95
7.95
8.66
9.21
9.68
10.09
10.38
10.42
10.18
9.69
9.07
8.48
8.01
7.66
7.39
7.08
6.63
5.97
5.07
3.94
2.65
1.33
0.12
-0.85
-1.55
-2.04
-2.43
-2.87
-3.44
-4.12
-4.82
-5.44
-5.90
-6.22
-6.49
-6.86
-7.44
-8.31
-9.43
-10.71
-12.01
-13.17
-14.04
-14.47
-14.39
-13.74
-12.57
-11.01
-9.22
-7.38
-5.60
-3.95
-2.43
-1.04
0.22
1.35
2.36
3.35
4.46
5.85
7.62
9.76
12.10
14.40
16.40
17.90
18.79
19.09
18.86
18.20
17.17
15.79
14.08
12.02
9.66
7.07
4.36
1.62
-1.11
-3.87
-6.81
-10.11
-13.89
-18.16
-22.79
-27.48
-31.85
-35.52
-38.17
-39.65
-40.02
-39.56
-38.66
-37.66
-36.73
-35.80
-34.53
-32.49
-29.29
-24.77
-19.01
-12.30
-5.02
2.40
9.64
16.45
22.67
28.20
33.02
37.16
40.63
43.43
45.54
46.90
47.52
47.37
46.44
44.67
42.00
38.39
33.90
28.74
23.22
17.66
12.32
7.36
2.89
-1.01
-4.26
-6.84
-8.77
-10.20
-11.29
-12.20
-12.97
-13.61
-14.07
-14.33
-14.45
-14.51
-14.63
-14.87
-15.23
-15.65
-16.00
-16.15
-15.98
-15.42
-14.51
-13.35
-12.04
-10.68
-9.32
-7.90
-6.38
-4.66
-2.65
-0.26
2.55
5.73
9.14
12.51
15.56
18.06
19.90
21.04
21.55
21.45
20.74
19.42
17.52
15.21
12.68
10.24
8.10
6.46
5.41
5.01
5.27
6.16
7.49
8.97
10.19
10.75
10.41
9.21
7.46
5.64
4.20
3.38
3.12
3.09
2.80
1.77
-0.37
-3.77
-8.33
-13.70
-19.35
-24.67
-29.13
-32.37
-34.26
-34.90
-34.54
-33.55
-32.29
-31.07
-30.07
-29.26
-28.47
-27.38
-25.73
-23.40
-20.44
-17.01
-13.29
-9.33
-5.02
-0.25
5.05
10.75
16.58
22.15
27.08
31.06
33.86
35.33
35.38
33.96
31.20
27.39
23.04
18.88
15.61
13.73
13.41
14.33
15.84
17.10
17.35
16.03
12.99
8.39
2.78
-3.15
-8.57
-12.85
-15.60
-16.85
-17.02
-16.76
-16.66
-17.11
-18.22
-19.86
-21.76
-23.68
-25.39
-26.70
-27.41
-27.35
-26.38
-24.41
-21.44
-17.49
-12.69
-7.26
-1.65
3.51
7.50
9.76
10.15
9.08
7.44
6.19
6.05
7.22
9.43
12.13
14.81
17.28
19.60
21.96
24.46
26.94
29.06
30.39
30.59
29.39
26.73
22.64
17.34
11.26
5.02
-0.63
-5.01
-7.62
-8.27
-7.11
-4.51
-1.01
2.72
5.96
8.03
8.42
6.85
3.44
-1.42
-7.12
-13.07
-18.74
-23.76
-27.86
-30.84
-32.55
-32.97
-32.18
-30.48
-28.24
-25.83
-23.46
-21.08
-18.46
-15.27
-11.32
-6.61
-1.40
3.92
8.94
13.38
17.02
19.74
21.44
22.05
21.58
20.19
18.19
15.96
13.86
12.11
10.75
9.73
8.88
8.06
7.18
6.19
5.15
4.18
3.46
3.15
3.31
3.81
4.44
4.91
5.04
4.80
4.24
3.50
2.69
1.91
1.24
0.74
0.40
0.07
-0.49
-1.55
-3.22
-5.44
-7.91
-10.29
-12.26
-13.70
-14.61
-15.08
-15.19
-15.06
-14.75
-14.32
-13.79
-13.09
-12.09
-10.61
-8.64
-6.28
-3.84
-1.64
0.10
1.36
2.28
3.12
4.06
5.20
6.52
7.92
9.30
10.59
11.70
12.57
13.10
13.27
13.09
12.69
12.21
11.79
11.49
11.33
11.28
11.26
11.14
10.78
10.00
8.69
6.84
4.64
2.35
0.27
-1.39
-2.61
-3.52
-4.30
-5.05
-5.78
-6.37
-6.67
-6.59
-6.13
-5.40
-4.64
-4.06
-3.78
-3.78
-3.91
-3.92
-3.64
-2.95
-1.87
-0.50
1.09
2.85
4.69
6.52
8.17
9.46
10.31
10.72
10.80
10.67
10.40
9.99
9.40
8.62
7.69
6.73
5.82
5.03
4.40
3.94
3.62
3.44
3.33
3.22
3.06
2.76
2.29
1.65
0.86
0.02
-0.76
-1.41
-1.99
-2.72
-3.92
-5.81
-8.36
-11.16
-13.59
-15.04
-15.25
-14.40
-13.02
-11.70
-10.83
-10.44
-10.30
-10.09
-9.59
-8.76
-7.67
-6.40
-5.01
-3.44
-1.65
0.37
2.52
4.60
6.38
7.71
8.55
9.02
9.30
9.59
10.01
10.55
11.16
11.71
12.13
12.34
12.28
11.93
11.24
10.25
9.00
7.62
6.23
4.95
3.83
2.88
2.06
1.28
0.46
-0.47
-1.54
-2.74
-4.04
-5.35
-6.63
-7.81
-8.84
-9.70
-10.39
-10.89
-11.23
-11.42
-11.47
-11.34
-10.98
-10.35
-9.43
-8.29
-7.00
-5.65
-4.30
-2.97
-1.65
-0.32
1.01
2.31
3.53
4.65
5.63
6.46
7.09
7.46
7.50
7.20
6.60
5.80
4.90
4.01
3.22
2.59
2.15
1.92
1.85
1.88
1.90
1.79
1.46
0.92
0.24
-0.46
-1.07
-1.50
-1.76
-1.87
-1.87
-1.79
-1.71
-1.69
-1.87
-2.36
-3.23
-4.42
-5.81
-7.20
-8.48
-9.61
-10.63
-11.63
-12.62
-13.52
-14.16
-14.37
-14.01
-13.03
-11.47
-9.46
-7.16
-4.74
-2.39
-0.27
1.53
2.94
3.98
4.70
5.21
5.63
6.05
6.55
7.13
7.73
8.27
8.68
8.94
9.09
9.16
9.18
9.14
9.01
8.77
8.40
7.90
7.27
6.48
5.48
4.24
2.77
1.15
-0.50
-2.05
-3.38
-4.38
-5.00
-5.16
-4.89
-4.26
-3.50
-2.90
-2.76
-3.28
-4.49
-6.20
-8.05
-9.67
-10.77
-11.21
-10.96
-10.04
-8.50
-6.36
-3.73
-0.78
2.20
4.87
6.97
8.36
9.10
9.38
9.40
9.32
9.23
9.12
8.97
8.76
8.51
8.22
7.89
7.51
7.00
6.33
5.47
4.49
3.45
2.48
1.59
0.76
-0.09
-1.00
-1.91
-2.68
-3.10
-3.05
-2.58
-1.91
-1.40
-1.38
-1.99
-3.16
-4.59
-5.86
-6.60
-6.57
-5.80
-4.52
-3.20
-2.34
-2.47
-3.91
-6.75
-10.71
-15.17
-19.28
-22.09
-22.92
-21.48
-18.00
-13.18
-7.86
-2.84
1.33
4.39
6.27
6.99
6.69
5.61
4.07
2.45
1.09
0.20
-0.17
-0.11
0.26
0.84
1.58
2.44
3.32
4.14
4.78
5.15
5.19
4.87
4.20
3.25
2.19
1.23
0.58
0.33
0.41
0.56
0.41
-0.35
-1.88
-4.06
-6.57
-8.97
-10.87
-12.02
-12.39
-12.14
-11.57
-11.04
-10.81
-11.01
-11.63
-12.43
-13.13
-13.41
-13.04
-11.98
-10.28
-8.10
-5.56
-2.74
0.34
3.58
6.77
9.57
11.68
12.88
13.20
12.88
12.22
11.43
10.59
9.62
8.46
7.11
5.72
4.54
3.72
3.33
3.30
3.48
3.76
4.02
4.21
4.25
4.07
3.59
2.85
1.98
1.15
0.54
0.23
0.13
0.10
-0.04
-0.38
-0.88
-1.47
-2.10
-2.80
-3.67
-4.81
-6.28
-8.02
-9.86
-11.55
-12.81
-13.44
-13.31
-12.47
-11.04
-9.26
-7.35
-5.50
-3.79
-2.18
-0.63
0.95
2.59
4.29
6.01
7.69
9.23
10.55
11.61
12.38
12.92
13.26
13.47
13.54
13.43
13.07
12.45
11.66
10.85
10.18
9.73
9.43
9.13
8.64
7.81
6.66
5.30
3.90
2.62
1.56
0.69
-0.07
-0.86
-1.76
-2.78
-3.87
-4.98
-6.07
-7.20
-8.45
-9.86
-11.36
-12.78
-13.93
-14.72
-15.19
-15.52
-15.90
-16.33
-16.63
-16.50
-15.63
-13.91
-11.50
-8.71
-5.88
-3.24
-0.85
1.33
3.36
5.20
6.78
8.00
8.88
9.52
10.07
10.60
11.11
11.47
11.55
11.30
10.77
10.09
9.42
8.88
8.50
8.29
8.20
8.15
8.06
7.81
7.31
6.56
5.60
4.56
3.56
2.65
1.82
0.98
0.09
-0.85
-1.73
-2.49
-3.12
-3.74
-4.54
-5.62
-6.94
-8.32
-9.57
-10.58
-11.40
-12.19
-13.12
-14.15
-15.10
-15.71
-15.73
-15.10
-13.88
-12.20
-10.21
-7.96
-5.53
-3.03
-0.62
1.52
3.25
4.59
5.67
6.63
7.56
8.43
9.13
9.53
9.58
9.35
8.99
8.63
8.34
8.11
7.89
7.61
7.25
6.81
6.30
5.68
4.93
4.04
3.09
2.16
1.36
0.75
0.29
-0.08
-0.45
-0.85
-1.26
-1.64
-1.98
-2.31
-2.70
-3.20
-3.81
-4.46
-5.10
-5.67
-6.21
-6.76
-7.35
-7.97
-8.50
-8.80
-8.75
-8.29
-7.41
-6.15
-4.55
-2.65
-0.47
1.88
4.30
6.60
8.57
10.09
11.06
11.55
11.68
11.66
11.62
11.64
11.67
11.60
11.35
10.97
10.64
10.54
10.75
11.13
11.38
11.15
10.29
8.86
7.21
5.71
4.61
3.89
3.35
2.67
1.65
0.28
-1.23
-2.61
-3.64
-4.31
-4.79
-5.39
-6.37
-7.81
-9.60
-11.50
-13.24
-14.65
-15.68
-16.34
-16.65
-16.58
-16.13
-15.30
-14.18
-12.83
-11.32
-9.66
-7.78
-5.68
-3.38
-1.01
1.33
3.54
5.59
7.51
9.30
10.94
12.36
13.47
14.20
14.55
14.56
14.30
13.84
13.25
12.58
11.90
11.29
10.77
10.33
9.89
9.36
8.63
7.64
6.43
5.12
3.84
2.68
1.69
0.82
-0.02
-0.87
-1.79
-2.76
-3.77
-4.80
-5.88
-7.01
-8.20
-9.45
-10.74
-12.02
-13.27
-14.50
-15.72
-16.90
-17.94
-18.66
-18.79
-18.10
-16.50
-14.12
-11.27
-8.36
-5.70
-3.38
-1.28
0.82
3.06
5.41
7.65
9.50
10.77
11.42
11.56
11.40
11.11
10.84
10.61
10.44
10.30
10.18
10.04
9.84
9.56
9.16
8.58
7.82
6.90
5.91
4.99
4.28
3.84
3.61
3.42
3.04
2.35
1.33
0.11
-1.15
-2.33
-3.43
-4.54
-5.74
-7.09
-8.53
-9.92
-11.16
-12.19
-13.03
-13.75
-14.38
-14.86
-15.05
-14.79
-13.98
-12.60
-10.72
-8.49
-6.05
-3.54
-1.09
1.16
3.09
4.63
5.75
6.53
7.05
7.42
7.69
7.92
8.11
8.30
8.45
8.55
8.52
8.32
7.94
7.43
6.88
6.39
6.05
5.90
5.89
5.96
5.99
5.86
5.48
4.84
3.95
2.91
1.83
0.81
-0.12
-0.99
-1.84
-2.68
-3.48
-4.17
-4.73
-5.20
-5.72
-6.43
-7.46
-8.80
-10.29
-11.69
-12.75
-13.31
-13.33
-12.84
-11.88
-10.47
-8.62
-6.40
-3.92
-1.41
0.94
2.98
4.66
6.05
7.25
8.33
9.33
10.24
10.99
11.55
11.89
12.01
11.97
11.83
11.64
11.42
11.14
10.78
10.34
9.88
9.49
9.21
8.99
8.75
8.35
7.72
6.85
5.86
4.86
3.95
3.14
2.42
1.74
1.09
0.48
-0.14
-0.82
-1.75
-3.11
-5.06
-7.63
-10.67
-13.91
-17.04
-19.83
-22.16
-24.02
-25.40
-26.27
-26.51
-25.99
-24.58
-22.31
-19.33
-15.89
-12.29
-8.72
-5.28
-1.98
1.21
4.27
7.08
9.45
11.22
12.33
12.85
12.95
12.83
12.63
12.39
12.11
11.79
11.47
11.24
11.11
11.09
11.08
10.98
10.70
10.22
9.56
8.79
7.97
7.15
6.33
5.51
4.70
3.95
3.28
2.70
2.15
1.54
0.83
-0.04
-0.98
-1.92
-2.75
-3.48
-4.14
-4.85
-5.73
-6.87
-8.28
-9.86
-11.41
-12.63
-13.23
-12.95
-11.73
-9.71
-7.24
-4.73
-2.47
-0.59
0.98
2.42
3.86
5.32
6.72
7.93
8.84
9.45
9.84
10.11
10.36
10.63
10.92
11.20
11.44
11.57
11.56
11.39
11.06
10.63
10.13
9.62
9.10
8.54
7.86
7.02
6.05
5.01
4.00
3.08
2.23
1.37
0.44
-0.57
-1.58
-2.50
-3.28
-3.99
-4.79
-5.82
-7.11
-8.57
-10.03
-11.34
-12.46
-13.41
-14.20
-14.78
-14.99
-14.70
-13.85
-12.52
-10.88
-9.09
-7.24
-5.29
-3.13
-0.68
1.96
4.60
6.90
8.64
9.74
10.28
10.48
10.55
10.61
10.65
10.57
10.30
9.84
9.31
8.86
8.56
8.43
8.37
8.22
7.82
7.06
5.90
4.38
2.63
0.80
-0.93
-2.43
-3.62
-4.48
-5.04
-5.39
-5.67
-6.05
-6.67
-7.61
-8.88
-10.36
-11.90
-13.36
-14.65
-15.77
-16.78
-17.80
-18.86
-19.97
-21.07
-22.05
-22.83
-23.32
-23.47
-23.23
-22.52
-21.25
-19.31
-16.66
-13.38
-9.65
-5.77
-2.04
1.31
4.16
6.53
8.49
10.15
11.56
12.75
13.71
14.46
15.02
15.43
15.73
15.97
16.18
16.38
16.57
16.71
16.73
16.56
16.11
15.35
14.26
12.85
11.16
9.23
7.13
4.94
2.74
0.59
-1.45
-3.36
-5.15
-6.83
-8.37
-9.73
-10.83
-11.60
-12.04
-12.27
-12.52
-12.96
-13.71
-14.65
-15.46
-15.75
-15.19
-13.69
-11.43
-8.70
-5.80
-2.90
-0.02
2.89
5.84
8.70
11.24
13.19
14.41
14.88
14.78
14.37
13.88
13.47
13.16
12.90
12.64
12.31
11.91
11.41
10.81
10.09
9.26
8.36
7.45
6.58
5.75
4.92
4.06
3.19
2.37
1.64
1.01
0.39
-0.33
-1.23
-2.29
-3.46
-4.64
-5.75
-6.80
-7.79
-8.77
-9.72
-10.66
-11.61
-12.59
-13.59
-14.51
-15.19
-15.44
-15.13
-14.24
-12.88
-11.23
-9.44
-7.60
-5.70
-3.70
-1.57
0.69
3.00
5.20
7.10
8.54
9.47
9.93
10.07
10.05
9.98
9.89
9.74
9.46
9.00
8.40
7.75
7.15
6.68
6.36
6.16
6.00
5.80
5.48
4.94
4.15
3.08
1.81
0.47
-0.77
-1.80
-2.57
-3.16
-3.74
-4.45
-5.36
-6.42
-7.51
-8.51
-9.38
-10.18
-11.01
-11.98
-13.11
-14.32
-15.46
-16.33
-16.73
-16.53
-15.66
-14.18
-12.23
-10.02
-7.72
-5.44
-3.21
-1.00
1.21
3.35
5.31
6.92
8.04
8.63
8.78
8.68
8.56
8.60
8.83
9.10
9.22
9.01
8.48
7.77
7.10
6.62
6.33
6.08
5.71
5.17
4.55
4.05
3.77
3.70
3.66
3.40
2.81
1.91
0.86
-0.15
-1.00
-1.69
-2.30
-2.88
-3.47
-4.07
-4.67
-5.35
-6.20
-7.31
-8.66
-10.06
-11.26
-11.93
-11.89
-11.06
-9.55
-7.56
-5.28
-2.90
-0.50
1.83
4.07
6.14
7.98
9.53
10.74
11.62
12.16
12.41
12.44
12.35
12.26
12.22
12.22
12.18
11.96
11.50
10.81
10.02
9.26
8.62
8.10
7.65
7.20
6.70
6.11
5.40
4.58
3.65
2.70
1.83
1.14
0.62
0.19
-0.31
-1.02
-1.97
-3.09
-4.26
-5.35
-6.31
-7.19
-8.09
-9.13
-10.37
-11.73
-13.01
-13.96
-14.34
-14.06
-13.19
-11.92
-10.47
-8.92
-7.28
-5.45
-3.39
-1.16
1.07
3.07
4.64
5.68
6.19
6.31
6.22
6.12
6.17
6.44
6.88
7.37
7.78
8.01
8.04
7.94
7.76
7.54
7.28
6.90
6.39
5.72
4.99
4.29
3.71
3.29
2.96
2.56
1.94
1.00
-0.24
-1.64
-3.03
-4.23
-5.19
-5.92
-6.53
-7.10
-7.74
-8.53
-9.51
-10.72
-12.08
-13.44
-14.58
-15.29
-15.47
-15.07
-14.19
-12.94
-11.47
-9.88
-8.24
-6.56
-4.79
-2.90
-0.85
1.30
3.38
5.15
6.40
7.02
7.05
6.68
6.14
5.64
5.32
5.23
5.34
5.55
5.78
5.89
5.84
5.62
5.33
5.02
4.68
4.23
3.59
2.77
1.87
1.12
0.70
0.64
0.79
0.89
0.69
0.09
-0.82
-1.83
-2.73
-3.44
-3.96
-4.39
-4.86
-5.46
-6.20
-7.06
-7.95
-8.78
-9.40
-9.69
-9.54
-8.87
-7.71
-6.17
-4.42
-2.61
-0.80
1.00
2.85
4.78
6.72
8.51
9.95
10.88
11.28
11.24
10.97
10.67
10.51
10.53
10.71
10.95
11.11
11.10
10.88
10.47
9.94
9.36
8.77
8.17
7.54
6.80
5.97
5.06
4.20
3.47
2.92
2.49
2.07
1.50
0.70
-0.31
-1.40
-2.40
-3.21
-3.86
-4.48
-5.26
-6.30
-7.58
-8.96
-10.23
-11.23
-11.89
-12.21
-12.24
-11.99
-11.42
-10.47
-9.08
-7.33
-5.30
-3.15
-1.00
1.08
3.04
4.81
6.34
7.58
8.51
9.17
9.60
9.84
9.87
9.67
9.25
8.68
8.09
7.61
7.31
7.16
7.04
6.85
6.55
6.19
5.85
5.55
5.25
4.86
4.32
3.63
2.89
2.16
1.48
0.76
-0.09
-1.15
-2.35
-3.53
-4.50
-5.16
-5.62
-6.05
-6.69
-7.62
-8.78
-10.01
-11.08
-11.87
-12.32
-12.43
-12.19
-11.60
-10.66
-9.37
-7.77
-5.90
-3.82
-1.56
0.80
3.17
5.39
7.28
8.70
9.62
10.10
10.28
10.28
10.20
10.02
9.71
9.24
8.69
8.16
7.77
7.54
7.37
7.09
6.53
5.68
4.62
3.53
2.56
1.78
1.13
0.47
-0.36
-1.44
-2.77
-4.23
-5.68
-7.01
-8.17
-9.20
-10.24
-11.39
-12.69
-14.05
-15.28
-16.19
-16.64
-16.65
-16.38
-16.04
-15.75
-15.52
-15.21
-14.59
-13.48
-11.81
-9.67
-7.24
-4.75
-2.37
-0.19
1.76
3.51
5.03
6.31
7.27
7.88
8.15
8.15
8.00
7.84
7.74
7.67
7.59
7.38
7.00
6.48
5.92
5.41
5.05
4.84
4.75
4.75
4.81
4.85
4.74
4.35
3.60
2.55
1.38
0.38
-0.12
-0.03
0.46
0.93
1.02
0.62
-0.10
-0.82
-1.20
-1.04
-0.34
0.64
1.56
2.17
2.45
2.63
2.95
3.84
5.75
8.80
12.70
16.80
20.59
23.88
26.87
29.55
32.38
36.04
40.86
46.35
51.44
55.24
57.40
58.27
57.76
56.85
57.36
60.80
67.39
75.98
84.82
91.62
93.70
86.84
68.89
40.43
3.65
-39.60
-88.81
-143.70
-203.90
-267.78
-333.15
-393.62
-439.67
-462.42
-457.23
-424.61
-367.85
-293.13
-195.54
-87.52
6.49
64.95
81.97
66.26
32.21
-5.29
-35.38
-54.17
-61.16
-54.86
-33.28
2.84
48.18
94.43
137.07
176.40
212.87
247.72
284.25
326.18
374.04
423.55
451.89
440.64
384.69
295.66
193.63
98.04
21.69
-31.49
-64.87
-85.55
-98.24
-105.65
-109.84
-113.45
-119.26
-126.81
-133.80
-136.51
-131.00
-113.24
-82.45
-41.37
-0.61
30.54
48.00
52.58
47.84
37.97
27.38
19.46
16.30
18.93
28.08
43.10
60.59
74.52
79.21
70.13
46.98
13.94
-21.77
-51.97
-71.05
-76.65
-72.16
-63.73
-56.15
-50.85
-46.47
-40.99
-33.40
-24.80
-17.80
-14.95
-17.00
-22.27
-27.66
-30.46
-29.54
-25.72
-21.36
-19.19
-21.44
-29.41
-42.22
-58.09
-74.46
-88.00
-94.84
-91.64
-77.06
-51.86
-21.98
6.01
27.07
39.31
44.12
44.64
43.56
41.87
39.02
34.24
28.27
23.22
21.55
24.59
31.68
40.27
47.25
50.28
49.19
45.60
42.51
42.97
48.89
60.15
74.34
87.12
93.60
89.68
73.79
47.65
15.91
-15.29
-40.46
-56.02
-62.35
-62.63
-61.15
-61.56
-65.74
-73.34
-82.23
-88.41
-87.84
-77.84
-58.06
-31.22
-2.41
22.79
39.84
47.98
49.45
47.63
45.11
43.19
42.12
41.92
42.89
45.23
48.37
50.61
49.93
44.28
33.52
19.37
4.77
-7.33
-14.80
-16.61
-12.90
-4.95
4.88
13.63
17.96
15.12
4.17
-13.53
-34.24
-53.33
-66.95
-73.36
-72.71
-66.35
-56.12
-44.08
-32.94
-25.96
-25.98
-33.53
-45.65
-55.95
-57.71
-47.80
-28.37
-5.65
13.54
25.57
31.26
34.32
38.83
46.57
56.19
65.52
73.58
81.16
89.37
97.89
100.52
91.41
68.55
35.32
0.02
-29.15
-48.00
-57.52
-62.23
-66.97
-75.53
-86.57
-97.96
-107.31
-113.00
-114.59
-112.91
-109.59
-105.73
-100.75
-89.62
-69.84
-40.63
-3.57
37.54
77.80
110.65
130.19
135.01
129.70
120.33
111.54
105.02
100.37
96.66
93.29
92.67
94.68
98.60
101.25
98.56
86.85
64.18
31.01
-10.54
-57.74
-108.04
-158.22
-206.09
-249.00
-282.97
-303.22
-306.21
-291.97
-264.47
-230.07
-193.99
-158.12
-119.93
-74.59
-19.09
44.58
108.71
162.93
198.89
214.36
213.80
206.46
202.33
207.92
224.16
245.72
263.08
265.87
246.61
203.29
140.47
68.52
0.86
-49.53
-75.20
-77.26
-65.29
-53.68
-55.98
-79.42
-122.01
-173.35
-217.71
-240.78
-234.44
-198.04
-137.16
-60.77
20.83
97.40
159.81
202.62
223.80
224.91
211.55
191.34
171.33
155.25
142.48
121.91
87.05
40.30
-8.64
-49.50
-77.54
-93.52
-100.90
-103.31
-103.41
-101.97
-100.20
-101.98
-108.48
-118.62
-128.25
-131.31
-122.27
-98.77
-61.95
-14.83
31.28
66.64
87.54
96.24
97.92
97.21
96.38
96.18
96.67
99.18
105.04
116.20
133.93
157.72
184.66
209.23
224.79
225.44
207.85
173.30
126.93
75.44
24.32
-22.71
-62.79
-95.51
-122.60
-147.07
-171.57
-197.70
-225.84
-255.10
-283.30
-307.26
-323.48
-328.73
-320.92
-299.87
-267.98
-230.02
-191.96
-158.89
-133.62
-116.06
-103.71
-92.97
-80.60
-64.54
-44.24
-20.27
6.10
33.06
58.29
79.55
95.23
104.80
108.96
109.14
106.91
103.35
98.86
93.17
85.96
77.29
67.79
58.53
50.67
45.05
41.91
40.95
41.44
42.58
43.73
44.54
44.90
44.73
44.04
42.76
40.94
38.72
36.37
34.22
32.46
31.12
29.97
28.63
26.74
24.03
20.45
16.15
11.38
6.45
1.64
-2.82
-6.79
-10.17
-12.88
-14.86
-16.04
-16.44
-16.09
-15.09
-13.54
-11.49
-8.97
-5.99
-2.64
0.89
4.27
7.10
8.97
9.58
8.81
6.81
3.96
0.82
-2.01
-4.04
-4.98
-4.79
-3.64
-1.76
0.57
3.15
5.88
8.66
11.40
13.97
16.16
17.71
18.32
17.76
15.96
13.06
9.35
5.24
1.12
-2.70
-5.99
-8.61
-10.49
-11.63
-12.10
-12.10
-11.88
-11.67
-11.66
-11.92
-12.50
-13.47
-14.90
-16.92
-19.62
-22.98
-26.83
-30.86
-34.60
-37.56
-39.29
-39.46
-37.87
-34.49
-29.37
-22.65
-14.59
-5.62
3.59
12.29
19.79
25.63
29.70
32.22
33.53
33.98
33.73
32.81
31.15
28.73
25.67
22.21
18.65
15.30
12.37
9.90
7.81
5.98
4.27
2.66
1.26
0.23
-0.29
-0.29
0.09
0.62
1.05
1.20
1.03
0.67
0.34
0.32
0.81
1.90
3.58
5.70
8.08
10.47
12.62
14.26
15.20
15.33
14.78
13.86
13.03
12.69
13.08
14.18
15.78
17.63
19.56
21.47
23.36
25.17
26.79
28.07
28.89
29.11
28.66
27.42
25.23
21.96
17.62
12.45
6.88
1.42
-3.50
-7.70
-11.25
-14.37
-17.31
-20.20
-23.06
-25.80
-28.31
-30.51
-32.31
-33.65
-34.42
-34.55
-34.03
-32.97
-31.53
-29.90
-28.18
-26.37
-24.39
-22.17
-19.68
-17.05
-14.44
-12.04
-10.01
-8.35
-7.03
-5.92
-4.93
-3.97
-3.02
-2.07
-1.17
-0.41
0.15
0.50
0.68
0.83
1.11
1.58
2.19
2.73
2.94
2.57
1.49
-0.22
-2.34
-4.52
-6.39
-7.75
-8.63
-9.36
-10.45
-12.34
-15.14
-18.53
-21.83
-24.37
-25.86
-26.63
-27.54
-29.57
-33.39
-38.93
-45.34
-51.33
-55.66
-57.63
-57.39
-55.92
-54.90
-56.33
-62.14
-73.63
-90.84
-111.98
-133.39
-150.22
-157.81
-153.21
-136.30
-109.71
-77.80
-45.04
-14.66
11.86
34.45
53.69
70.16
84.17
95.95
105.72
113.77
120.32
125.43
129.10
131.38
132.52
132.86
132.65
131.88
130.29
127.45
123.06
117.18
110.32
103.35
97.25
92.60
89.21
85.75
80.14
70.22
54.75
34.18
10.76
-12.19
-31.33
-44.40
-50.91
-52.05
-50.00
-46.93
-44.17
-41.78
-38.79
-33.44
-23.53
-7.05
17.07
48.01
82.65
115.92
142.22
157.13
159.36
151.39
138.21
124.87
114.24
106.27
99.02
90.70
80.70
70.24
61.77
57.19
56.95
59.74
63.02
63.84
59.55
47.56
26.67
-2.08
-35.88
-71.03
-104.88
-136.80
-167.48
-193.57
-210.34
-214.16
-204.42
-183.51
-154.32
-118.99
-78.11
-31.57
18.97
66.82
101.84
117.39
108.41
76.41
29.70
-19.82
-61.66
-86.50
-94.09
-90.56
-83.37
-77.52
-73.82
-70.01
-63.53
-53.54
-41.66
-31.61
-25.98
-24.82
-26.31
-27.80
-27.85
-26.68
-23.77
-17.50
-5.71
13.21
37.72
61.38
74.50
68.41
39.17
-7.61
-59.14
-101.27
-124.10
-125.49
-110.80
-89.92
-74.12
-67.96
-71.67
-80.53
-86.76
-82.70
-63.93
-30.70
11.40
53.47
85.60
99.83
93.13
68.44
34.03
1.84
-15.89
-11.58
14.81
55.14
96.69
127.80
142.02
139.37
120.17
89.03
48.12
4.53
-34.53
-66.24
-91.66
-111.86
-124.97
-125.37
-109.64
-76.00
-27.76
26.27
74.89
108.33
121.19
105.40
63.27
9.14
-38.12
-65.18
-69.74
-58.35
-40.51
-23.57
-10.52
0.44
12.04
24.74
35.99
42.12
41.09
33.82
23.36
12.96
5.45
1.42
-0.73
-2.95
-7.08
-13.03
-19.17
-23.78
-26.13
-26.19
-24.61
-22.50
-20.88
-20.56
-22.02
-26.03
-33.72
-45.93
-61.93
-78.90
-92.58
-98.77
-94.94
-80.91
-58.68
-31.03
0.16
32.89
65.66
96.70
123.30
142.09
150.40
147.66
135.98
119.12
100.68
82.77
65.52
48.12
30.33
13.49
0.11
-7.47
-8.45
-4.17
2.67
9.26
13.88
16.62
19.13
23.69
32.23
45.53
62.99
83.18
104.48
125.58
145.69
164.36
181.21
195.79
207.81
217.41
225.22
231.80
236.89
238.76
234.63
221.69
198.38
165.19
124.38
78.74
30.25
-20.42
-73.05
-126.36
-176.95
-219.64
-249.35
-263.49
-263.39
-254.04
-241.94
-232.51
-228.24
-228.57
-231.03
-233.00
-232.74
-229.54
-223.18
-213.48
-200.32
-184.16
-166.44
-149.42
-135.34
-125.38
-118.87
-113.22
-104.86
-90.55
-68.68
-39.85
-6.68
26.98
57.18
80.68
95.60
101.65
100.22
94.13
87.14
83.04
84.53
92.37
105.10
119.52
131.87
138.99
139.26
132.73
120.79
105.46
88.73
72.13
56.64
42.73
30.58
20.24
11.85
5.70
2.19
1.70
4.35
9.81
17.27
25.48
33.08
38.80
41.79
41.82
39.40
35.86
33.12
33.31
38.17
48.54
64.03
83.21
104.02
124.30
142.18
156.32
165.99
171.08
171.99
169.48
164.41
157.35
148.34
136.86
122.06
103.13
79.64
51.76
20.29
-13.42
-47.61
-80.11
-108.59
-130.91
-145.65
-152.58
-152.94
-149.14
-144.05
-140.15
-138.86
-140.40
-144.04
-148.72
-153.51
-157.77
-161.03
-162.73
-162.22
-158.91
-152.78
-144.48
-135.38
-126.97
-120.41
-115.90
-112.81
-109.88
-105.95
-100.42
-93.52
-86.14
-79.43
-74.31
-71.16
-69.82
-69.75
-70.26
-70.74
-70.76
-69.96
-68.09
-64.97
-60.65
-55.42
-49.88
-44.73
-40.61
-37.79
-36.16
-35.29
-34.64
-33.74
-32.39
-30.57
-28.36
-25.92
-23.36
-20.87
-18.61
-16.72
-15.12
-13.44
-11.08
-7.43
-2.16
4.50
11.75
18.51
23.78
27.06
28.43
28.42
27.76
27.12
26.92
27.45
28.91
31.51
35.37
40.37
46.07
51.63
56.05
58.43
58.29
55.79
51.73
47.17
43.08
39.92
37.52
35.24
32.25
27.87
21.74
13.91
4.77
-5.08
-14.99
-24.66
-34.40
-45.33
-59.05
-77.02
-99.76
-126.42
-154.95
-182.91
-208.41
-230.68
-249.88
-266.45
-280.26
-290.16
-294.25
-290.59
-277.87
-255.87
-225.58
-189.01
-149.04
-109.24
-73.36
-44.75
-25.57
-16.10
-14.58
-17.57
-20.83
-20.47
-13.84
-0.03
20.22
44.97
71.87
98.80
124.39
148.05
169.65
189.11
206.13
220.32
231.66
240.80
249.03
257.72
267.51
277.70
286.33
291.03
290.58
286.14
281.70
282.86
294.63
318.97
353.39
391.46
424.84
446.11
450.81
438.10
410.05
370.26
322.69
271.08
218.81
168.66
122.45
80.60
42.09
5.16
-31.83
-69.53
-107.40
-144.13
-178.14
-208.12
-233.14
-252.57
-265.94
-272.90
-273.40
-267.81
-257.04
-242.49
-225.87
-208.97
-193.24
-179.55
-167.99
-158.00
-148.74
-139.53
-130.17
-120.97
-112.38
-104.52
-96.76
-87.78
-76.08
-60.71
-41.86
-20.88
0.08
18.88
33.83
44.07
49.43
50.34
47.86
43.67
39.85
38.34
40.11
44.53
49.46
52.11
50.46
44.33
35.53
26.98
21.32
19.71
21.52
24.86
27.73
28.84
28.04
25.92
23.27
20.54
17.70
14.49
10.80
6.89
3.44
1.23
0.83
2.29
5.03
8.08
10.47
11.63
11.60
10.93
10.37
10.39
10.97
11.66
11.84
11.09
9.42
7.15
4.77
2.61
0.74
-0.95
-2.63
-4.35
-6.04
-7.57
-8.79
-9.63
-10.03
-9.99
-9.58
-8.99
-8.51
-8.38
-8.70
-9.34
-10.03
-10.58
-11.14
-12.23
-14.52
-18.52
-24.16
-30.70
-36.82
-41.02
-42.02
-39.15
-32.54
-23.21
-12.76
-3.12
4.06
7.90
8.51
6.95
4.75
3.28
3.21
4.44
6.21
7.55
7.59
5.90
2.69
-1.08
-3.91
-4.10
-0.46
6.90
16.22
24.40
28.08
25.06
15.23
0.54
-16.03
-31.80
-45.35
-56.83
-67.40
-78.22
-89.56
-100.47
-108.94
-112.33
-108.26
-95.39
-74.57
-49.34
-24.98
-6.43
3.73
6.40
5.29
4.79
7.84
13.90
18.99
17.89
7.21
-13.29
-41.03
-72.13
-103.22
-131.61
-155.82
-175.53
-190.37
-198.85
-198.89
-188.60
-166.68
-132.89
-86.71
-29.06
36.00
101.14
157.62
197.28
215.24
212.45
190.08
157.34
129.93
121.01
132.88
158.29
186.77
210.56
226.94
239.58
250.62
259.66
263.84
259.35
243.55
214.69
173.00
121.00
54.74
-18.69
-87.11
-139.76
-172.22
-186.34
-188.26
-190.38
-194.70
-203.17
-215.67
-232.05
-251.94
-274.29
-289.03
-288.41
-266.23
-220.39
-157.41
-85.87
-14.49
50.72
107.94
159.18
207.68
252.49
299.76
343.71
377.21
393.62
389.37
365.27
326.03
270.13
206.02
147.42
102.43
72.70
55.12
46.09
43.24
42.62
41.15
37.21
29.43
15.44
-4.97
-30.68
-60.60
-90.28
-118.91
-147.85
-178.80
-213.60
-253.34
-294.97
-330.90
-350.84
-345.37
-310.29
-247.72
-165.72
-77.20
2.91
61.91
91.79
89.79
57.84
1.04
-71.99
-149.78
-219.58
-269.92
-293.18
-287.63
-257.82
-213.12
-164.39
-119.73
-82.12
-49.69
-17.65
18.68
62.58
114.76
172.82
231.09
281.97
317.74
332.97
326.34
300.26
260.46
213.02
161.77
107.88
52.29
-1.40
-46.25
-74.51
-82.46
-71.19
-46.58
-17.24
8.49
24.90
28.99
19.24
-5.88
-48.34
-105.56
-168.91
-225.81
-264.42
-277.93
-266.73
-237.01
-189.19
-132.69
-80.40
-41.10
-15.74
-1.01
6.41
8.40
7.93
7.18
7.16
9.98
18.05
32.54
52.44
75.35
95.35
108.40
112.13
105.57
91.00
73.09
56.51
43.82
34.99
28.16
21.74
15.04
8.41
3.97
4.55
11.84
25.44
43.09
61.73
78.86
92.63
101.70
105.77
105.36
101.49
95.30
87.88
80.09
72.74
66.13
60.25
55.12
50.87
47.50
44.79
42.25
39.38
36.08
32.63
29.63
27.70
27.06
27.35
27.75
27.29
25.26
21.46
16.10
9.59
2.32
-5.35
-13.14
-20.74
-27.81
-34.15
-39.67
-44.47
-48.65
-52.13
-54.66
-55.90
-55.71
-54.27
-52.08
-49.73
-47.62
-45.71
-43.64
-40.96
-37.43
-33.27
-29.05
-25.46
-22.93
-21.54
-21.00
-20.91
-21.08
-21.50
-22.37
-23.78
-25.65
-27.72
-29.64
-31.24
-32.47
-33.42
-34.08
-34.28
-33.70
-31.97
-28.90
-24.63
-19.59
-14.44
-9.85
-6.31
-4.08
-3.16
-3.38
-4.52
-6.33
-8.58
-11.00
-13.22
-14.83
-15.42
-14.78
-12.85
-9.81
-5.92
-1.48
3.27
8.11
12.91
17.60
22.17
26.62
30.93
34.97
38.51
41.27
43.06
43.83
43.76
43.17
42.43
41.79
41.27
40.71
39.83
38.37
36.19
33.32
29.91
26.20
22.36
18.52
14.76
11.19
7.97
5.27
3.23
1.87
1.14
0.92
1.05
1.41
1.85
2.19
2.21
1.72
0.63
-1.06
-3.22
-5.70
-8.27
-10.73
-12.78
-14.14
-14.55
-13.90
-12.26
-9.84
-6.92
-3.73
-0.44
2.84
5.99
8.83
11.14
12.72
13.50
13.48
12.84
11.79
10.56
9.35
8.22
7.22
6.32
5.54
4.90
4.45
4.19
4.06
3.87
3.48
2.77
1.77
0.63
-0.45
-1.29
-1.81
-2.00
-1.86
-1.35
-0.43
0.88
2.41
3.75
4.43
4.01
2.35
-0.31
-3.40
-6.20
-8.11
-8.83
-8.50
-7.50
-6.33
-5.38
-4.86
-4.76
-4.94
-5.21
-5.39
-5.39
-5.19
-4.87
-4.50
-4.13
-3.78
-3.40
-2.97
-2.52
-2.15
-1.97
-2.04
-2.29
-2.56
-2.65
-2.47
-2.04
-1.54
-1.15
-1.00
-1.12
-1.47
-1.96
-2.52
-3.12
-3.71
-4.30
-4.91
-5.54
-6.22
-6.96
-7.70
-8.38
-8.91
-9.20
-9.16
-8.76
-8.06
-7.19
-6.40
-6.05
-6.35
-7.11
-7.53
-6.33
-2.17
5.77
17.30
31.10
45.10
57.10
65.56
70.01
71.06
70.06
68.64
68.17
69.43
72.41
76.36
80.10
82.53
82.88
80.99
77.24
72.31
66.89
61.45
56.30
51.67
47.77
44.67
42.33
41.14
42.39
48.28
61.23
82.69
111.92
145.33
176.64
198.52
205.11
193.93
166.35
126.49
79.77
31.69
-12.75
-49.84
-77.58
-95.87
-106.44
-112.75
-119.12
-129.25
-145.16
-163.87
-178.87
-184.69
-180.54
-169.58
-155.84
-142.00
-128.67
-115.29
-101.14
-86.69
-73.58
-63.62
-57.55
-54.63
-53.22
-51.24
-47.29
-40.96
-33.31
-26.29
-21.82
-20.83
-23.33
-29.46
-38.44
-49.25
-59.90
-67.31
-67.60
-57.64
-36.81
-8.47
20.11
40.82
47.83
40.25
22.13
0.22
-19.29
-33.00
-39.07
-39.07
-34.87
-27.36
-16.96
-5.10
5.24
10.35
8.16
-0.08
-10.28
-17.18
-17.45
-11.70
-4.90
-2.93
-10.48
-28.21
-51.60
-72.75
-83.59
-80.21
-64.87
-44.87
-28.74
-21.99
-24.66
-32.09
-38.39
-39.98
-37.81
-36.10
-39.32
-49.16
-63.79
-79.13
-91.31
-97.65
-96.72
-88.87
-75.08
-56.09
-32.01
-2.72
31.61
70.20
111.92
155.91
200.14
241.87
278.34
307.33
327.59
338.47
339.71
331.41
314.67
289.54
255.87
214.36
167.20
118.09
70.91
28.56
-12.24
-50.27
-83.24
-110.13
-132.53
-154.32
-176.59
-197.20
-212.89
-221.37
-218.20
-203.54
-180.72
-154.51
-129.11
-106.73
-87.96
-72.57
-60.20
-50.26
-43.57
-41.08
-42.87
-47.61
-52.79
-55.88
-54.81
-48.20
-35.52
-19.06
-3.74
4.24
0.31
-15.37
-36.95
-54.81
-60.02
-48.91
-25.79
-0.49
17.01
21.63
15.20
4.06
-5.43
-10.49
-12.51
-15.08
-20.77
-29.82
-41.00
-53.41
-67.30
-83.15
-99.88
-113.64
-118.71
-109.99
-85.73
-49.00
-6.67
33.11
63.76
82.06
88.21
84.75
74.98
62.14
49.09
38.50
32.69
33.19
40.28
52.61
67.49
81.52
91.50
94.93
90.29
77.20
56.69
31.48
5.79
-15.58
-28.86
-32.79
-29.29
-22.58
-17.26
-16.26
-19.73
-25.54
-30.72
-33.37
-33.45
-32.48
-32.16
-32.93
-33.29
-30.31
-21.07
-4.32
18.55
43.84
66.95
84.35
94.78
99.39
100.63
100.63
100.11
98.21
93.32
84.09
70.28
52.94
34.09
16.21
1.70
-7.57
-10.54
-7.23
1.28
13.07
25.97
38.08
48.19
55.74
60.69
63.13
63.25
61.24
57.19
50.84
41.49
28.44
11.94
-5.91
-21.18
-29.55
-28.53
-19.27
-6.59
3.13
5.17
-1.07
-11.98
-21.88
-26.27
-24.10
-17.78
-11.18
-7.14
-6.06
-6.23
-5.45
-2.56
1.89
6.15
8.40
7.70
4.44
-0.04
-4.17
-6.79
-7.58
-7.05
-6.26
-6.20
-7.35
-9.44
-11.65
-13.13
-13.54
-13.29
-13.44
-15.09
-18.77
-24.17
-30.21
-35.47
-38.66
-39.13
-36.94
-32.83
-27.84
-22.99
-18.90
-15.75
-13.30
-11.10
-8.80
-6.25
-3.54
-0.94
1.24
2.77
3.54
3.64
3.27
2.70
2.15
1.72
1.39
1.08
0.79
0.60
0.69
1.21
2.23
3.60
5.04
6.25
7.00
7.24
7.04
6.54
5.89
5.12
4.22
3.17
1.98
0.75
-0.37
-1.24
-1.78
-2.03
-2.12
-2.24
-2.57
-3.20
-4.12
-5.24
-6.42
-7.50
-8.38
-8.98
-9.29
-9.31
-9.07
-8.59
-7.89
-7.02
-6.03
-4.97
-3.80
-2.45
-0.82
1.14
3.40
5.83
8.30
10.74
13.13
15.47
17.74
19.81
21.52
22.75
23.52
24.01
24.53
25.30
26.45
27.88
29.38
30.71
31.72
32.41
32.89
33.34
33.90
34.70
35.78
37.15
38.69
40.14
41.01
40.73
38.74
34.77
28.97
21.86
14.20
6.65
-0.44
-7.00
-13.16
-19.00
-24.38
-28.99
-32.50
-34.72
-35.72
-35.80
-35.38
-34.78
-34.17
-33.52
-32.71
-31.62
-30.20
-28.59
-26.99
-25.59
-24.50
-23.63
-22.76
-21.66
-20.16
-18.32
-16.30
-14.34
-12.59
-11.08
-9.72
-8.36
-6.93
-5.43
-3.98
-2.75
-1.88
-1.43
-1.37
-1.57
-1.89
-2.22
-2.49
-2.71
-2.91
-3.10
-3.26
-3.37
-3.41
-3.37
-3.27
-3.11
-2.87
-2.56
-2.21
-1.92
-1.80
-1.93
-2.33
-2.98
-3.84
-4.87
-6.04
-7.25
-8.40
-9.32
-9.87
-10.01
-9.76
-9.18
-8.36
-7.32
-6.09
-4.71
-3.26
-1.87
-0.61
0.49
1.51
2.55
3.62
4.64
5.43
5.84
5.79
5.36
4.74
4.19
3.87
3.82
3.97
4.09
4.01
3.57
2.76
1.66
0.46
-0.66
-1.50
-1.95
-2.03
-1.80
-1.43
-1.03
-0.71
-0.45
-0.22
0.06
0.47
1.01
1.64
2.31
2.93
3.42
3.73
3.80
3.63
3.23
2.58
1.69
0.57
-0.73
-2.06
-3.19
-3.89
-3.97
-3.39
-2.32
-1.05
0.10
0.91
1.36
1.56
1.67
1.82
1.99
2.11
2.08
1.80
1.22
0.33
-0.86
-2.32
-3.90
-5.42
-6.72
-7.70
-8.42
-9.01
-9.59
-10.21
-10.73
-11.01
-10.90
-10.39
-9.55
-8.54
-7.51
-6.53
-5.67
-4.93
-4.34
-3.92
-3.64
-3.44
-3.21
-2.89
-2.46
-1.97
-1.51
-1.09
-0.70
-0.29
0.17
0.65
1.05
1.25
1.17
0.80
0.18
-0.58
-1.37
-2.05
-2.47
-2.46
-1.92
-0.81
0.75
2.53
4.23
5.58
6.45
6.82
6.83
6.64
6.42
6.22
5.98
5.54
4.76
3.58
2.10
0.59
-0.59
-1.13
-0.80
0.47
2.58
5.31
8.21
10.57
11.51
10.20
6.35
0.41
-6.32
-12.12
-15.47
-15.60
-12.81
-8.18
-3.17
1.03
3.81
5.25
5.80
5.96
6.02
5.98
5.69
5.02
4.00
2.87
1.91
1.35
1.16
1.09
0.83
0.19
-0.75
-1.66
-2.19
-2.11
-1.53
-0.80
-0.30
-0.27
-0.61
-0.94
-0.80
0.02
1.41
2.91
3.99
4.29
3.81
2.86
1.89
1.18
0.78
0.53
0.22
-0.28
-0.89
-1.44
-1.74
-1.68
-1.33
-0.84
-0.36
-0.00
0.20
0.27
0.20
0.01
-0.30
-0.70
-1.18
-1.73
-2.35
-3.02
-3.68
-4.19
-4.45
-4.43
-4.20
-3.97
-3.95
-4.31
-5.08
-6.19
-7.49
-8.81
-9.99
-10.81
-11.07
-10.65
-9.60
-8.13
-6.56
-5.18
-4.15
-3.44
-2.92
-2.43
-1.84
-1.14
-0.35
0.48
1.29
2.02
2.61
3.03
3.31
3.51
3.72
3.96
4.24
4.47
4.61
4.62
4.56
4.46
4.38
4.30
4.19
3.96
3.58
3.04
2.38
1.73
1.19
0.86
0.70
0.61
0.43
-0.00
-0.70
-1.57
-2.41
-3.01
-3.27
-3.25
-3.15
-3.23
-3.73
-4.72
-6.12
-7.71
-9.23
-10.47
-11.32
-11.82
-12.04
-12.04
-11.85
-11.42
-10.73
-9.79
-8.67
-7.46
-6.23
-5.00
-3.72
-2.35
-0.84
0.78
2.43
3.93
5.11
5.83
6.04
5.80
5.25
4.59
3.98
3.58
3.47
3.66
4.07
4.57
5.06
5.46
5.77
6.05
6.36
6.72
7.06
7.31
7.42
7.42
7.38
7.38
7.38
7.29
6.99
6.41
5.63
4.80
4.08
3.48
2.93
2.27
1.38
0.28
-0.94
-2.12
-3.16
-4.09
-5.04
-6.11
-7.32
-8.49
-9.34
-9.59
-9.13
-8.05
-6.64
-5.21
-3.99
-3.03
-2.23
-1.43
-0.56
0.34
1.10
1.52
1.48
1.02
0.31
-0.41
-0.95
-1.22
-1.20
-0.92
-0.43
0.25
1.10
2.05
2.99
3.74
4.17
4.26
4.09
3.82
3.58
3.43
3.34
3.25
3.12
2.95
2.78
2.59
2.32
1.83
0.98
-0.24
-1.75
-3.38
-4.96
-6.45
-7.92
-9.51
-11.30
-13.26
-15.17
-16.69
-17.51
-17.46
-16.58
-15.10
-13.33
-11.53
-9.85
-8.26
-6.67
-4.95
-3.06
-1.05
0.97
2.83
4.43
5.65
6.44
6.83
6.90
6.83
6.83
7.08
7.63
8.38
9.12
9.67
9.91
9.87
9.66
9.37
9.03
8.64
8.17
7.65
7.13
6.62
6.08
5.42
4.59
3.59
2.49
1.42
0.47
-0.31
-0.96
-1.55
-2.13
-2.74
-3.43
-4.28
-5.38
-6.77
-8.46
-10.31
-12.17
-13.87
-15.33
-16.49
-17.35
-17.88
-18.01
-17.68
-16.87
-15.68
-14.30
-12.92
-11.62
-10.33
-8.86
-7.01
-4.69
-1.99
0.80
3.38
5.47
6.99
8.02
8.69
9.13
9.36
9.38
9.15
8.74
8.26
7.86
7.60
7.43
7.20
6.73
5.89
4.69
3.24
1.76
0.56
-0.11
-0.03
0.88
2.57
4.78
7.20
9.48
11.41
12.96
14.29
15.64
17.30
19.39
21.86
24.44
26.76
28.43
29.21
29.04
28.02
26.36
24.30
22.14
20.17
18.73
18.01
18.05
18.62
19.36
19.87
19.91
19.52
18.93
18.40
18.14
18.15
18.30
18.44
18.38
18.04
17.38
16.46
15.33
14.07
12.71
11.27
9.80
8.40
7.24
6.47
6.14
6.11
6.08
5.72
4.86
3.56
2.06
0.63
-0.50
-1.26
-1.65
-1.69
-1.42
-0.95
-0.46
-0.24
-0.54
-1.49
-2.98
-4.66
-6.08
-6.91
-7.04
-6.63
-6.05
-5.67
-5.71
-6.24
-7.14
-8.22
-9.31
-10.28
-11.04
-11.50
-11.56
-11.14
-10.24
-8.97
-7.51
-6.01
-4.57
-3.21
-1.88
-0.55
0.81
2.22
3.62
4.90
5.91
6.47
6.46
5.89
4.96
3.96
3.16
2.75
2.75
3.04
3.44
3.78
3.97
3.98
3.80
3.46
2.95
2.25
1.33
0.22
-1.03
-2.32
-3.60
-4.82
-6.00
-7.19
-8.35
-9.43
-10.32
-10.98
-11.47
-11.93
-12.52
-13.34
-14.35
-15.42
-16.40
-17.18
-17.75
-18.13
-18.37
-18.45
-18.28
-17.75
-16.74
-15.22
-13.27
-11.06
-8.81
-6.67
-4.70
-2.82
-0.96
0.91
2.67
4.10
5.03
5.38
5.25
4.88
4.51
4.26
4.14
4.09
4.03
3.91
3.74
3.52
3.26
2.94
2.56
2.16
1.76
1.39
1.03
0.63
0.15
-0.41
-1.03
-1.67
-2.29
-2.88
-3.48
-4.14
-4.91
-5.82
-6.86
-7.99
-9.17
-10.36
-11.58
-12.84
-14.09
-15.30
-16.34
-17.18
-17.80
-18.26
-18.60
-18.79
-18.72
-18.23
-17.22
-15.72
-13.86
-11.86
-9.87
-7.97
-6.19
-4.51
-2.92
-1.47
-0.19
0.86
1.67
2.28
2.73
3.05
3.27
3.36
3.27
2.92
2.24
1.21
-0.08
-1.47
-2.79
-3.92
-4.84
-5.63
-6.40
-7.23
-8.09
-8.79
-9.09
-8.76
-7.72
-6.02
-3.86
-1.48
0.96
3.35
5.61
7.71
9.59
11.20
12.56
13.72
14.72
15.52
16.02
16.11
15.72
14.92
13.90
12.88
12.01
11.34
10.83
10.45
10.19
10.13
10.32
10.78
11.47
12.28
13.10
13.83
14.44
14.87
15.09
15.10
14.89
14.52
14.10
13.78
13.66
13.78
14.07
14.41
14.69
14.90
15.11
15.41
15.82
16.25
16.52
16.49
16.13
15.59
15.04
14.65
14.42
14.24
13.91
13.25
12.15
10.51
8.20
5.07
1.01
-3.94
-9.46
-15.00
-19.94
-23.85
-26.64
-28.56
-29.99
-31.21
-32.21
-32.77
-32.62
-31.69
-30.20
-28.49
-26.84
-25.27
-23.53
-21.31
-18.48
-15.21
-11.94
-9.13
-7.04
-5.62
-4.53
-3.40
-1.95
-0.17
1.72
3.44
4.75
5.54
5.87
5.94
5.95
6.10
6.51
7.24
8.23
9.36
10.44
11.23
11.57
11.38
10.74
9.81
8.76
7.71
6.70
5.70
4.65
3.49
2.20
0.82
-0.63
-2.14
-3.72
-5.41
-7.23
-9.18
-11.15
-12.96
-14.39
-15.23
-15.40
-14.95
-14.10
-13.06
-12.00
-10.95
-9.82
-8.46
-6.73
-4.59
-2.14
0.41
2.78
4.70
6.03
6.76
7.07
7.21
7.41
7.82
8.46
9.30
10.30
11.41
12.62
13.92
15.22
16.38
17.18
17.45
17.09
16.11
14.68
12.97
11.18
9.40
7.63
5.85
4.04
2.20
0.37
-1.42
-3.22
-5.08
-7.08
-9.28
-11.68
-14.31
-17.11
-20.01
-22.87
-25.52
-27.77
-29.45
-30.47
-30.84
-30.63
-29.96
-29.00
-27.89
-26.71
-25.46
-24.09
-22.52
-20.73
-18.70
-16.49
-14.13
-11.60
-8.87
-5.92
-2.82
0.25
3.04
5.33
6.99
8.05
8.70
9.20
9.76
10.52
11.51
12.62
13.72
14.53
14.70
13.76
11.26
7.06
1.58
-4.21
-9.07
-12.08
-13.03
-12.62
-12.05
-12.48
-14.50
-18.06
-22.74
-28.22
-34.55
-41.95
-50.42
-59.32
-67.36
-72.94
-74.87
-72.79
-67.45
-60.34
-53.19
-47.40
-43.69
-42.14
-42.51
-44.60
-48.59
-54.96
-64.25
-76.62
-91.71
-108.56
-126.01
-143.09
-159.36
-174.97
-190.54
-206.77
-224.21
-242.89
-262.62
-282.98
-303.23
-321.95
-336.92
-345.46
-345.06
-334.15
-312.38
-281.00
-242.43
-199.68
-155.45
-111.68
-69.43
-29.01
9.84
48.39
88.05
130.10
175.43
224.42
276.51
329.71
380.45
424.20
458.28
481.22
492.93
494.55
488.15
475.89
459.01
437.48
410.74
381.91
354.33
330.13
309.57
291.86
276.18
261.86
248.38
235.59
228.96
232.56
246.67
267.49
289.98
310.46
327.10
339.41
347.68
359.24
379.04
406.61
436.30
461.28
477.15
482.64
478.42
427.14
313.11
148.99
-29.21
-186.88
-307.50
-390.42
-442.21
-470.40
-484.36
-482.78
-464.56
-432.71
-394.55
-357.87
-327.53
-303.84
-286.16
-273.33
-258.89
-238.58
-212.42
-184.39
-159.32
-140.26
-128.12
-122.57
-122.50
-122.88
-119.81
-111.97
-100.66
-88.04
-75.62
-64.08
-53.74
-44.65
-34.96
-23.38
-9.97
3.85
16.20
25.53
30.92
31.81
28.11
20.85
11.16
0.08
-11.56
-22.92
-33.08
-41.20
-46.93
-50.41
-52.25
-53.43
-55.03
-57.93
-62.49
-68.35
-74.61
-80.26
-84.64
-87.75
-90.38
-93.74
-98.91
-106.31
-115.55
-125.59
-135.47
-144.28
-151.24
-155.70
-157.09
-154.83
-148.31
-136.92
-120.10
-97.94
-70.40
-37.14
2.36
48.28
99.78
154.34
207.54
253.40
284.63
295.62
283.92
250.93
201.03
140.19
74.78
10.96
-45.59
-91.10
-122.64
-138.96
-141.12
-132.88
-119.80
-107.48
-99.76
-90.63
-76.43
-56.81
-35.07
-15.13
0.59
11.28
17.32
20.11
21.69
22.37
23.81
27.22
32.84
39.61
45.51
48.40
47.01
41.44
32.20
20.88
10.02
2.50
0.45
4.27
12.50
22.06
29.21
30.33
24.27
13.17
2.14
-2.83
2.36
17.79
39.11
59.27
71.15
70.72
58.04
36.52
10.79
-15.18
-38.82
-58.65
-73.48
-82.20
-84.04
-79.33
-69.90
-58.75
-49.01
-42.74
-40.36
-40.76
-42.03
-42.57
-41.75
-40.28
-39.75
-41.76
-46.97
-54.70
-63.24
-70.79
-76.56
-81.38
-87.25
-95.93
-107.27
-118.27
-123.42
-116.53
-93.26
-53.30
-1.09
55.32
106.82
146.11
169.77
178.50
175.80
165.86
151.99
136.20
119.80
104.23
91.29
82.48
77.95
75.98
73.53
67.72
57.37
43.69
29.62
18.35
11.75
9.64
10.04
10.24
7.99
2.36
-6.03
-15.24
-22.85
-26.82
-26.23
-21.51
-14.21
-6.22
0.85
6.12
9.47
11.21
11.78
11.49
10.55
9.01
6.88
4.11
0.60
-3.64
-8.43
-13.26
-17.48
-20.42
-21.63
-20.90
-18.23
-13.72
-7.46
0.49
9.95
20.49
31.34
41.41
49.49
54.64
56.56
55.86
53.99
52.90
54.40
59.54
68.18
78.97
89.49
96.79
97.95
90.79
74.51
50.19
20.91
-8.82
-34.12
-51.15
-58.08
-55.58
-46.19
-33.29
-19.93
-8.10
1.34
8.25
12.60
14.23
12.91
8.64
2.02
-5.65
-12.69
-17.46
-18.88
-16.80
-11.90
-5.54
0.63
4.99
6.35
4.34
-0.22
-5.20
-7.55
-4.26
6.35
23.59
44.15
62.93
74.67
75.74
65.28
45.42
20.63
-3.57
-22.04
-31.38
-30.80
-22.47
-10.89
-1.33
1.85
-3.23
-15.65
-32.47
-50.25
-66.28
-78.84
-86.67
-88.34
-82.56
-69.24
-50.75
-31.99
-18.84
-15.47
-22.18
-35.10
-47.91
-54.84
-52.95
-42.74
-27.01
-9.12
8.29
23.30
34.18
39.05
36.34
25.80
9.22
-9.80
-26.80
-38.06
-41.72
-38.11
-29.24
-17.90
-6.68
2.70
9.74
14.97
19.45
24.20
29.63
35.37
40.48
43.86
44.74
42.84
38.37
31.85
24.02
15.76
8.10
1.98
-1.92
-3.52
-3.31
-2.19
-1.07
-0.53
-0.77
-1.75
-3.40
-5.81
-9.16
-13.55
-18.83
-24.48
-29.78
-34.04
-36.80
-37.98
-37.94
-37.36
-37.10
-37.83
-39.78
-42.52
-45.08
-46.25
-45.04
-41.14
-35.22
-28.82
-23.88
-22.07
-24.17
-29.75
-37.25
-44.60
-49.97
-52.47
-52.23
-50.06
-46.78
-42.85
-38.32
-33.12
-27.31
-21.38
-16.12
-12.11
-9.08
-5.90
-1.11
6.51
17.46
31.63
48.34
66.37
84.27
100.27
112.19
117.46
113.69
99.93
77.82
51.51
26.31
7.05
-3.58
-5.80
-2.33
3.54
8.41
11.08
13.28
16.94
21.45
23.81
20.90
12.38
-0.01
-12.69
-21.76
-24.99
-22.83
-17.63
-12.16
-8.01
-6.02
-6.17
-7.81
-10.18
-12.88
-15.98
-19.40
-22.67
-24.92
-25.42
-23.92
-20.65
-16.19
-11.36
-6.95
-3.07
0.60
4.52
8.87
13.43
17.72
21.25
23.58
24.47
24.46
24.33
24.79
25.99
27.58
29.00
29.72
29.31
25.73
17.65
5.09
-10.15
-25.84
-40.63
-54.30
-67.41
-80.74
-96.17
-111.92
-124.35
-129.16
-123.08
-105.16
-77.46
-44.38
-10.93
19.14
42.84
59.46
70.42
77.80
82.85
85.38
84.09
77.52
65.11
47.77
27.18
4.98
-17.48
-38.81
-57.00
-69.23
-72.46
-64.20
-43.70
-13.11
22.53
56.76
83.69
99.90
105.19
102.33
96.17
91.77
92.09
96.93
103.40
107.19
103.97
90.61
66.18
33.14
-3.15
-36.14
-59.87
-70.21
-65.86
-48.65
-22.85
2.31
17.29
18.70
9.83
-3.94
-18.65
-32.79
-46.34
-59.79
-72.93
-83.87
-89.94
-89.53
-83.22
-73.36
-63.86
-56.95
-53.96
-54.80
-57.64
-59.94
-59.92
-57.35
-52.97
-47.77
-42.39
-37.26
-32.63
-28.46
-24.61
-20.82
-17.13
-12.39
-4.45
9.02
29.09
54.81
83.46
111.28
134.48
150.30
157.75
157.47
151.34
141.64
130.52
119.68
110.09
101.89
94.62
87.61
80.28
72.30
63.45
53.74
43.34
32.54
21.71
11.10
0.81
-9.30
-19.36
-29.18
-37.99
-44.55
-47.67
-46.93
-43.07
-37.83
-33.32
-31.20
-32.18
-35.92
-41.40
-47.43
-52.96
-57.13
-59.05
-57.85
-52.88
-44.27
-33.03
-20.95
-10.12
-2.31
1.49
1.27
-2.27
-8.07
-15.20
-22.82
-30.08
-36.36
-41.45
-45.66
-49.50
-53.39
-57.25
-60.76
-63.08
-63.00
-59.52
-52.39
-42.15
-29.81
-16.39
-2.75
9.90
20.59
29.07
35.36
39.27
40.32
38.08
32.44
23.79
12.13
-2.12
-17.47
-31.88
-43.55
-51.53
-55.93
-58.21
-55.07
-47.33
-39.55
-35.66
-35.58
-36.05
-33.84
-27.87
-19.34
-12.62
-8.89
-8.13
-8.73
-9.31
-10.13
-13.03
-20.01
-31.76
-45.25
-57.05
-63.78
-61.99
-50.79
-33.06
-14.40
-0.23
6.63
6.72
2.40
-3.67
-8.17
-10.00
-10.96
-14.23
-21.47
-31.22
-39.25
-40.43
-30.26
-3.87
40.31
98.79
163.54
224.83
274.02
305.12
315.29
292.94
236.98
161.47
90.23
42.41
23.33
25.23
33.76
35.02
21.27
-4.79
-34.47
-58.95
-73.98
-80.10
-80.96
-80.37
-80.43
-81.21
-80.58
-77.98
-75.59
-76.51
-81.01
-85.93
-84.75
-72.05
-46.72
-12.05
24.59
54.64
70.75
72.07
63.11
50.60
40.11
34.39
33.82
36.50
39.06
37.65
29.72
14.79
-4.82
-24.74
-40.70
-49.11
-48.93
-41.85
-31.27
-20.42
-11.54
-5.41
-1.85
-0.15
0.62
1.35
2.79
5.30
8.73
12.14
14.11
13.34
9.34
2.86
-4.42
-10.31
-12.86
-10.93
-4.91
3.26
10.49
13.55
10.35
1.17
-11.30
-22.31
-26.71
-21.21
-6.01
15.05
35.88
50.46
54.86
48.17
32.31
10.78
-12.63
-34.71
-53.17
-66.60
-74.36
-76.45
-73.55
-66.96
-58.40
-49.69
-42.26
-36.78
-32.93
-29.69
-25.84
-20.66
-14.36
-8.09
-3.54
-2.13
-4.53
-10.39
-18.69
-28.15
-37.61
-46.22
-53.45
-59.11
-63.43
-67.11
-71.12
-76.30
-82.87
-90.20
-97.05
-102.06
-104.27
-103.20
-98.72
-90.85
-79.77
-66.12
-51.21
-36.84
-24.69
-15.36
-7.90
-0.12
10.35
25.03
43.97
66.17
90.33
115.39
140.66
165.38
188.40
208.10
222.92
231.93
235.33
234.16
229.68
222.80
213.85
202.86
189.84
174.96
158.49
140.98
122.59
102.77
80.12
52.97
20.17
-18.27
-60.75
-104.12
-143.46
-173.75
-191.65
-196.65
-190.82
-177.65
-160.83
-143.26
-126.69
-110.60
-93.88
-76.20
-58.62
-42.69
-29.15
-17.42
-6.08
6.22
21.72
41.84
66.51
94.20
123.18
152.41
181.17
208.07
220.70
208.29
168.43
110.53
49.42
-3.35
-42.71
-69.01
-85.34
-95.39
-100.02
-98.75
-91.63
-80.73
-69.51
-61.31
-57.93
-59.26
-64.18
-69.62
-72.67
-71.61
-66.16
-57.16
-46.42
-37.25
-32.70
-35.48
-44.95
-57.15
-66.07
-66.23
-55.12
-34.21
-8.31
16.80
35.09
44.91
48.10
47.77
46.17
44.00
41.01
37.11
33.04
30.07
29.98
33.26
38.38
42.01
40.18
30.45
13.32
-7.61
-27.09
-40.29
-44.55
-40.38
-30.84
-19.84
-10.40
-3.73
0.59
3.61
6.27
8.77
10.72
11.72
11.90
11.92
12.59
14.19
16.12
17.28
16.77
14.58
11.88
10.64
12.61
18.25
26.16
33.61
37.73
36.95
31.60
23.78
16.30
11.32
9.71
10.67
11.97
10.84
5.12
-5.86
-20.92
-37.45
-52.31
-63.09
-68.95
-70.87
-71.08
-72.00
-74.96
-79.36
-82.53
-80.47
-69.37
-47.44
-16.29
18.78
49.76
67.90
66.33
42.42
-0.90
-55.36
-109.23
-150.47
-170.05
-164.42
-136.16
-92.46
-42.34
6.35
48.70
82.80
108.59
126.54
137.06
140.65
138.43
132.25
124.05
114.99
104.85
92.43
76.46
56.77
35.00
14.20
-2.26
-12.01
-14.55
-11.44
-5.54
0.15
3.46
3.59
0.88
-3.64
-8.83
-13.66
-17.19
-18.61
-17.49
-14.22
-10.38
-8.45
-10.89
-18.97
-31.96
-47.34
-61.88
-73.04
-79.92
-83.10
-83.78
-82.65
-79.46
-73.35
-63.78
-51.22
-37.33
-24.26
-13.90
-7.22
-4.17
-4.02
-5.73
-8.35
-11.01
-13.00
-13.77
-13.09
-11.11
-8.41
-5.74
-3.68
-2.42
-1.69
-1.11
-0.44
0.16
0.26
-0.45
-1.80
-3.07
-3.32
-1.95
0.72
3.39
4.23
1.72
-4.69
-14.30
-25.33
-35.59
-43.03
-46.24
-44.56
-38.16
-27.89
-15.08
-1.20
12.65
25.97
38.99
52.26
66.09
80.05
92.80
102.40
107.00
105.50
97.94
85.54
70.24
54.19
39.19
26.39
16.26
8.81
3.87
1.24
0.75
2.14
4.92
8.31
11.48
13.67
14.46
13.81
11.93
9.19
5.87
2.10
-2.15
-7.00
-12.45
-18.29
-23.98
-28.71
-31.62
-32.05
-29.82
-25.30
-19.28
-12.69
-6.31
-0.61
4.21
8.04
10.76
12.12
11.88
9.96
6.55
2.19
-2.39
-6.49
-9.55
-11.35
-11.90
-11.42
-10.18
-8.44
-6.44
-4.41
-2.58
-1.15
-0.26
0.11
0.07
-0.18
-0.47
-0.68
-0.80
-0.91
-1.12
-1.51
-2.17
-3.10
-4.27
-5.50
-6.52
-6.97
-6.56
-5.14
-2.83
-0.02
2.73
4.86
5.96
5.86
4.69
2.81
0.70
-1.16
-2.32
-2.53
-1.74
-0.09
2.12
4.54
6.78
8.56
9.70
10.18
10.10
9.67
9.13
8.67
8.38
8.25
8.19
8.06
7.73
7.14
6.23
4.98
3.47
1.84
0.30
-0.87
-1.52
-1.60
-1.23
-0.58
0.19
1.02
1.92
2.91
3.96
4.98
5.86
6.54
7.03
7.43
7.77
8.07
8.29
8.46
8.67
9.05
9.67
10.47
11.23
11.70
11.73
11.39
10.90
10.58
10.58
10.83
11.13
11.24
11.09
10.77
10.47
10.34
10.39
10.52
10.59
10.55
10.48
10.54
10.86
11.47
12.23
12.92
13.32
13.28
12.77
11.87
10.70
9.30
7.66
5.70
3.41
0.90
-1.60
-3.81
-5.53
-6.72
-7.46
-7.91
-8.23
-8.54
-8.85
-9.09
-9.16
-8.89
-8.15
-6.94
-5.41
-3.94
-2.90
-2.58
-2.98
-3.78
-4.56
-4.94
-4.85
-4.44
-4.05
-3.99
-4.40
-5.28
-6.49
-7.87
-9.33
-10.82
-12.25
-13.51
-14.41
-14.84
-14.75
-14.22
-13.44
-12.61
-11.90
-11.41
-11.16
-11.12
-11.25
-11.49
-11.82
-12.22
-12.65
-13.07
-13.42
-13.66
-13.73
-13.58
-13.11
-12.27
-11.05
-9.54
-7.95
-6.53
-5.49
-4.94
-4.82
-4.91
-4.95
-4.69
-4.02
-2.99
-1.81
-0.75
-0.06
0.11
-0.20
-0.79
-1.38
-1.73
-1.78
-1.57
-1.28
-1.08
-1.07
-1.24
-1.55
-1.90
-2.20
-2.41
-2.49
-2.48
-2.46
-2.55
-2.87
-3.49
-4.39
-5.47
-6.57
-7.52
-8.21
-8.67
-9.06
-9.56
-10.36
-11.45
-12.68
-13.76
-14.45
-14.62
-14.35
-13.83
-13.23
-12.64
-12.00
-11.21
-10.20
-9.01
-7.74
-6.50
-5.35
-4.30
-3.33
-2.44
-1.65
-0.98
-0.42
0.08
0.55
1.03
1.54
2.06
2.64
3.31
4.09
4.96
5.80
6.50
6.95
7.12
7.02
6.67
6.08
5.28
4.34
3.32
2.33
1.43
0.58
-0.30
-1.27
-2.34
-3.43
-4.45
-5.34
-6.13
-6.92
-7.81
-8.77
-9.72
-10.50
-10.94
-10.94
-10.51
-9.75
-8.80
-7.87
-7.07
-6.47
-6.01
-5.50
-4.73
-3.55
-1.92
0.06
2.17
4.21
6.03
7.57
8.82
9.79
10.46
10.82
10.87
10.68
10.39
10.10
9.90
9.78
9.68
9.51
9.23
8.79
8.16
7.33
6.34
5.27
4.27
3.50
3.08
3.01
3.16
3.30
3.20
2.74
1.94
0.96
-0.03
-0.88
-1.54
-2.08
-2.57
-3.00
-3.31
-3.36
-3.05
-2.36
-1.39
-0.32
0.74
1.77
2.86
4.14
5.75
7.71
9.94
12.30
14.57
16.55
18.10
19.20
19.99
20.70
21.56
22.65
23.82
24.76
25.13
24.72
23.62
22.22
21.03
20.57
21.06
22.36
23.99
25.26
25.61
24.82
23.16
21.29
19.90
19.38
19.51
19.59
18.68
16.05
11.55
5.75
-0.15
-4.44
-5.20
-0.59
10.52
28.00
49.96
72.79
92.01
103.68
105.87
99.19
86.08
69.23
50.07
28.30
2.71
-27.15
-59.74
-91.33
-117.28
-133.71
-138.92
-133.69
-120.58
-102.74
-83.02
-63.54
-45.69
-30.29
-17.66
-7.63
0.29
6.71
12.05
16.53
20.13
22.74
24.17
24.21
22.62
19.18
13.95
7.40
0.45
-5.77
-10.29
-12.71
-13.26
-12.72
-11.99
-11.74
-12.14
-12.97
-13.75
-14.10
-13.88
-13.18
-12.23
-11.23
-10.27
-9.28
-8.16
-6.78
-5.10
-3.13
-0.97
1.27
3.43
5.39
7.05
8.37
9.37
10.08
10.53
10.73
10.69
10.46
10.16
9.98
10.10
10.59
11.39
12.31
13.08
13.40
13.05
11.86
9.74
6.71
2.93
-1.26
-5.45
-9.15
-12.00
-13.79
-14.52
-14.36
-13.53
-12.23
-10.64
-8.94
-7.32
-6.01
-5.22
-5.04
-5.42
-6.12
-6.85
-7.28
-7.25
-6.72
-5.76
-4.44
-2.85
-1.07
0.74
2.31
3.29
3.39
2.47
0.64
-1.78
-4.35
-6.68
-8.49
-9.60
-9.87
-9.21
-7.58
-5.12
-2.09
1.06
3.89
6.09
7.53
8.23
8.32
7.95
7.23
6.23
5.05
3.76
2.48
1.31
0.34
-0.33
-0.66
-0.62
-0.26
0.28
0.81
1.14
1.16
0.85
0.27
-0.52
-1.51
-2.67
-4.05
-5.60
-7.20
-8.66
-9.76
-10.36
-10.45
-10.12
-9.55
-8.85
-8.03
-7.02
-5.73
-4.13
-2.25
-0.22
1.80
3.66
5.18
6.25
6.84
6.99
6.91
6.87
7.12
7.83
8.94
10.26
11.58
12.74
13.74
14.67
15.61
16.58
17.45
18.11
18.47
18.55
18.53
18.62
18.99
19.69
20.59
21.54
22.37
23.05
23.66
24.34
25.17
26.08
26.84
27.16
26.74
25.36
22.93
19.48
15.15
10.23
5.15
0.36
-3.72
-6.85
-9.02
-10.39
-11.17
-11.49
-11.33
-10.57
-9.18
-7.42
-5.82
-5.05
-5.64
-7.65
-10.68
-13.90
-16.28
-17.10
-16.23
-14.21
-11.92
-10.17
-9.34
-9.28
-9.60
-9.86
-10.04
-10.62
-12.25
-15.28
-19.45
-23.84
-27.40
-29.41
-29.32
-27.23
-23.82
-20.05
-16.64
-13.81
-11.16
-8.18
-4.56
0.57
7.45
15.39
22.92
28.71
32.38
35.13
38.80
45.03
55.92
71.77
90.59
108.58
121.90
128.08
127.19
120.64
110.51
100.86
95.00
94.47
98.69
105.95
114.13
121.79
126.88
117.14
85.61
34.92
-23.09
-76.54
-119.11
-156.20
-192.47
-229.71
-266.78
-295.09
-306.19
-295.15
-262.89
-215.58
-162.16
-110.36
-65.61
-30.06
-1.88
21.05
39.29
51.42
55.68
51.76
42.17
30.55
20.26
14.26
13.40
16.46
20.97
24.53
25.78
24.94
22.83
20.27
18.17
16.75
15.57
13.82
10.92
6.87
2.42
-1.58
-4.57
-6.37
-7.37
-8.27
-9.74
-12.15
-15.39
-18.92
-22.16
-24.66
-26.27
-27.22
-27.99
-29.10
-30.92
-33.51
-36.56
-39.51
-41.75
-42.86
-42.68
-41.33
-39.02
-35.85
-31.69
-26.21
-19.11
-10.30
-0.13
10.74
21.51
31.55
40.60
48.74
56.25
63.30
69.82
75.48
79.77
82.20
82.39
80.13
75.41
68.52
60.09
51.06
42.65
36.09
32.25
31.41
33.10
36.40
40.28
43.90
46.56
47.82
47.48
45.64
42.84
39.96
38.16
38.55
41.70
47.25
54.09
60.82
66.16
69.45
70.46
69.57
67.67
65.78
64.24
63.07
62.14
61.20
60.15
58.25
54.93
50.22
44.61
37.86
29.75
20.06
8.29
-6.07
-25.01
-49.96
-80.64
-115.02
-151.25
-186.60
-217.65
-241.02
-253.57
-255.75
-249.48
-236.98
-220.54
-203.98
-190.09
-179.96
-173.27
-168.22
-165.86
-167.33
-172.76
-167.85
-143.72
-101.51
-51.07
-10.60
22.46
52.59
82.44
114.53
146.39
171.90
186.12
187.80
179.69
167.69
154.96
142.97
132.08
121.67
110.04
96.72
82.90
70.85
63.21
59.49
58.07
57.42
56.24
53.45
49.19
44.86
42.44
44.10
49.81
58.52
68.63
77.73
83.69
85.62
84.04
80.24
75.82
71.45
67.45
64.19
60.96
57.54
54.12
50.31
44.36
33.48
14.87
-12.69
-48.40
-92.20
-143.01
-198.89
-257.19
-314.45
-365.66
-404.24
-423.63
-419.92
-396.32
-359.34
-316.03
-272.04
-231.04
-194.83
-163.92
-138.71
-104.54
-58.50
-8.32
34.94
66.74
89.99
110.02
130.14
150.34
168.12
178.16
177.99
170.09
159.26
149.76
143.95
141.90
141.94
141.69
137.22
126.71
110.37
91.22
72.48
56.19
42.93
32.26
23.59
15.42
5.92
-3.43
-10.42
-13.33
-11.21
-3.99
7.23
20.36
31.81
38.03
36.71
26.87
9.36
-11.97
-30.78
-41.55
-42.29
-35.37
-25.48
-17.37
-14.73
-18.97
-28.24
-38.20
-45.01
-44.47
-34.81
-17.65
2.53
19.12
26.37
22.37
9.69
-6.09
-18.37
-21.99
-13.35
8.11
38.31
69.74
94.17
104.67
97.03
71.37
32.72
-11.48
-44.94
-53.69
-36.76
-4.54
29.52
55.41
68.97
70.64
63.48
47.85
23.42
-8.60
-43.50
-73.89
-92.69
-96.48
-80.35
-51.10
-21.84
-3.74
0.18
-4.49
-8.71
-5.38
7.70
28.16
50.21
69.82
84.59
93.49
96.69
94.16
86.71
76.41
66.13
57.46
51.38
48.28
48.22
51.11
54.75
57.47
59.44
62.34
66.78
72.27
77.95
82.00
83.05
76.97
61.28
37.47
10.62
-14.38
-34.61
-48.82
-58.89
-67.74
-83.22
-111.99
-155.93
-211.73
-274.39
-339.08
-400.17
-453.75
-467.97
-424.77
-334.09
-226.10
-126.06
-43.80
16.33
66.04
111.94
156.56
195.45
224.18
239.42
241.32
230.96
208.94
176.93
135.82
87.92
33.08
-27.36
-88.81
-143.74
-185.31
-209.70
-215.70
-206.46
-186.67
-163.54
-142.32
-124.79
-109.01
-91.94
-71.53
-47.35
-22.03
0.68
16.37
23.63
24.18
22.69
24.82
35.62
58.05
91.06
130.25
168.88
201.79
224.94
236.18
235.08
223.79
206.62
187.44
169.20
153.20
142.12
135.98
131.67
123.42
107.15
82.94
52.38
17.81
-26.30
-73.64
-113.18
-139.31
-156.80
-171.69
-183.74
-189.55
-184.66
-169.93
-142.78
-104.48
-60.70
-21.08
9.13
33.47
58.15
90.63
127.94
162.21
185.55
207.37
225.15
213.59
165.87
92.64
28.70
-15.69
-36.64
-36.64
-19.33
6.87
35.50
66.27
92.26
106.21
103.33
88.42
68.34
48.03
28.63
12.16
3.63
4.65
14.01
26.07
36.92
44.44
46.95
42.69
32.12
18.69
4.23
-10.01
-24.61
-38.89
-52.00
-63.61
-75.28
-89.81
-105.99
-126.60
-155.06
-194.04
-242.18
-294.00
-340.42
-371.72
-379.58
-359.90
-316.77
-259.25
-197.46
-138.40
-84.87
-35.82
10.74
57.42
106.33
155.50
201.45
240.83
271.00
288.98
292.20
277.84
246.52
202.44
148.33
85.98
16.84
-57.44
-135.54
-215.05
-293.74
-365.98
-407.08
-396.28
-333.69
-242.55
-150.95
-82.67
-33.75
3.06
35.69
71.47
110.21
149.59
188.01
225.76
262.81
297.71
324.67
338.16
335.29
314.78
279.47
236.60
195.85
165.06
147.71
140.18
135.90
128.20
111.11
82.22
43.52
0.64
-39.98
-72.99
-96.38
-109.51
-112.35
-105.98
-92.20
-73.70
-53.94
-36.98
-26.16
-23.37
-27.44
-34.54
-40.11
-40.74
-35.60
-26.69
-17.94
-13.41
-15.81
-25.27
-39.58
-55.30
-68.90
-77.56
-79.56
-74.56
-64.02
-51.39
-41.48
-38.75
-45.09
-58.36
-72.85
-81.83
-80.82
-69.84
-53.23
-37.05
-25.89
-20.86
-19.74
-18.96
-15.96
-10.34
-3.60
1.99
4.48
2.88
-2.68
-11.14
-20.64
-28.99
-34.27
-35.44
-32.52
-26.23
-17.31
-6.18
6.88
20.97
34.08
43.38
46.28
41.82
31.39
18.31
6.36
-1.67
-4.99
-4.58
-2.29
0.07
1.48
1.77
1.37
0.97
1.36
3.21
7.01
12.86
20.37
28.57
36.16
41.79
44.54
44.15
41.12
36.49
31.38
26.72
22.94
20.05
17.85
16.09
14.67
13.59
12.83
12.32
11.90
11.42
10.82
10.13
9.44
8.74
7.91
6.75
5.03
2.68
-0.21
-3.41
-6.62
-9.58
-12.15
-14.43
-16.79
-19.86
-24.27
-30.44
-38.27
-47.03
-55.57
-62.70
-67.63
-70.15
-70.62
-69.74
-68.12
-66.08
-63.57
-60.32
-56.05
-50.72
-44.61
-38.22
-32.10
-26.64
-21.94
-17.76
-13.68
-9.26
-4.24
1.33
7.09
12.50
16.99
20.13
21.82
22.27
22.11
22.28
23.96
28.28
35.90
46.62
59.10
71.17
80.44
85.27
85.43
82.22
77.89
74.65
73.71
74.93
77.01
78.27
77.28
73.26
66.01
55.66
42.52
27.24
11.12
-3.83
-15.13
-20.67
-19.49
-12.46
-2.22
7.52
13.22
12.60
5.30
-7.07
-21.57
-34.85
-43.95
-47.03
-43.82
-35.82
-26.09
-18.36
-15.77
-19.49
-28.23
-38.76
-47.40
-51.76
-51.59
-48.38
-44.09
-39.83
-35.38
-29.72
-22.20
-13.32
-4.86
0.87
1.97
-2.21
-10.86
-21.82
-32.07
-38.55
-39.00
-32.77
-21.08
-6.59
7.74
19.88
29.55
37.99
47.11
58.23
71.45
85.59
98.90
109.81
117.42
121.46
121.98
118.93
112.16
101.58
87.56
71.15
53.98
37.86
24.28
14.02
7.09
2.83
0.31
-1.40
-2.98
-4.88
-7.39
-10.73
-15.11
-20.65
-27.23
-34.50
-41.96
-49.13
-55.73
-61.66
-66.90
-71.39
-75.03
-77.84
-80.10
-82.45
-85.64
-90.17
-95.89
-101.97
-107.14
-110.17
-110.47
-108.19
-104.17
-99.45
-94.81
-90.39
-85.65
-79.57
-71.14
-59.79
-45.68
-29.79
-13.73
0.76
12.21
19.84
23.64
24.27
22.80
20.48
18.45
17.54
18.06
19.67
21.49
22.32
21.09
17.23
10.92
2.95
-5.51
-13.28
-19.31
-22.86
-23.50
-21.26
-16.71
-10.90
-5.19
-0.71
1.99
3.12
3.53
4.18
5.68
7.94
10.23
11.49
10.79
7.72
2.59
-3.69
-9.94
-15.17
-18.93
-21.38
-23.17
-25.01
-27.26
-29.71
-31.71
-32.49
-31.51
-28.76
-24.64
-19.75
-14.46
-8.68
-1.87
6.64
17.17
29.32
41.94
53.54
62.76
69.00
72.49
74.09
74.77
75.24
75.80
76.46
77.14
77.88
78.74
79.78
80.88
81.69
81.57
79.53
74.39
65.05
51.05
33.02
12.85
-6.69
-22.80
-33.47
-38.01
-37.07
-32.34
-26.11
-21.05
-19.80
-24.51
-36.15
-53.97
-75.34
-96.38
-113.01
-122.18
-122.57
-114.69
-100.35
-81.96
-61.94
-42.50
-25.47
-12.35
-4.13
-1.18
-3.01
-8.13
-14.22
-18.43
-18.22
-12.15
-0.52
14.66
30.37
43.67
52.71
57.11
57.72
55.91
52.96
49.79
46.99
45.06
44.38
45.06
46.78
48.82
50.30
50.60
49.54
47.31
44.23
40.50
36.04
30.62
23.94
15.83
6.36
-4.10
-14.86
-25.06
-33.85
-40.72
-45.74
-49.52
-53.08
-57.46
-63.41
-71.24
-80.80
-91.57
-102.81
-113.61
-123.02
-130.10
-134.15
-134.77
-131.95
-125.97
-117.44
-107.20
-96.40
-86.50
-79.01
-75.17
-75.44
-79.20
-84.75
-89.77
-91.95
-89.64
-82.33
-70.73
-56.51
-41.93
-29.21
-19.98
-14.81
-13.02
-12.97
-12.67
-10.57
-5.91
1.38
11.08
23.15
37.83
55.26
75.04
96.02
116.56
134.98
150.12
161.51
169.10
172.90
172.68
168.12
158.97
145.44
128.17
108.15
86.43
64.06
42.09
21.65
4.01
-9.60
-18.33
-22.02
-21.46
-18.08
-13.57
-9.15
-5.20
-1.25
3.54
9.77
17.29
25.17
32.04
36.73
38.71
38.30
36.41
34.17
32.42
31.49
31.26
31.32
31.33
31.13
30.78
30.43
30.24
30.32
30.79
31.85
33.69
36.42
39.93
43.80
47.43
50.17
51.50
51.15
49.08
45.51
40.82
35.52
30.19
25.33
21.22
17.76
14.62
11.34
7.61
3.41
-1.07
-5.56
-9.86
-13.93
-17.76
-21.26
-24.25
-26.50
-27.85
-28.28
-27.86
-26.66
-24.70
-21.93
-18.31
-13.91
-8.90
-3.40
2.45
8.64
15.05
21.40
27.15
31.60
34.09
34.26
32.19
28.46
23.93
19.60
16.28
14.47
14.26
15.41
17.48
19.93
22.20
23.70
23.81
21.95
17.82
11.54
3.79
-4.29
-11.40
-16.44
-18.81
-18.54
-16.17
-12.49
-8.31
-4.23
-0.61
2.39
4.68
6.23
7.08
7.39
7.47
7.74
8.63
10.45
13.24
16.87
21.01
25.30
29.39
33.03
36.10
38.69
41.16
44.09
48.23
54.23
62.30
71.99
82.02
90.39
94.77
93.22
84.80
70.15
51.45
31.77
14.07
0.23
-9.51
-16.24
-21.63
-27.06
-33.10
-39.59
-46.09
-52.37
-58.58
-64.99
-71.58
-77.69
-82.20
-83.92
-82.34
-77.85
-71.75
-65.67
-60.89
-57.81
-55.98
-54.38
-52.08
-48.67
-44.38
-39.82
-35.66
-32.21
-29.42
-26.98
-24.61
-22.15
-19.60
-17.01
-14.43
-11.78
-8.97
-5.83
-2.27
1.77
6.25
11.02
15.84
20.44
24.55
27.95
30.55
32.33
33.32
33.52
32.90
31.47
29.31
26.63
23.74
21.05
18.93
17.63
17.09
16.82
15.96
13.50
8.62
1.19
-8.05
-17.54
-25.32
-29.67
-29.68
-25.61
-18.70
-10.80
-3.62
1.80
5.23
7.21
8.48
9.65
10.91
12.11
13.03
13.64
14.18
14.99
16.25
17.75
18.87
18.84
17.10
13.57
8.71
3.37
-1.52
-5.25
-7.58
-8.67
-8.97
-8.97
-8.95
-9.00
-9.04
-8.97
-8.75
-8.43
-8.04
-7.55
-6.86
-5.83
-4.43
-2.74
-0.96
0.67
2.00
2.99
3.70
4.21
4.61
4.89
5.03
4.97
4.65
4.01
3.00
1.65
0.06
-1.62
-3.23
-4.63
-5.81
-6.76
-7.49
-7.97
-8.09
-7.75
-6.91
-5.68
-4.28
-3.05
-2.30
-2.21
-2.73
-3.63
-4.49
-4.94
-4.72
-3.78
-2.28
-0.53
1.11
2.31
2.82
2.55
1.54
-0.01
-1.78
-3.41
-4.55
-4.97
-4.53
-3.22
-1.18
1.39
4.17
6.87
9.21
11.00
12.14
12.63
12.62
12.39
12.43
13.24
15.22
18.36
22.26
26.15
29.25
31.08
31.66
31.45
31.14
31.30
32.23
33.87
35.93
37.96
39.43
39.79
38.61
35.72
31.35
26.27
21.56
18.30
17.25
18.48
21.43
25.13
28.61
31.33
33.30
35.11
37.62
41.63
47.49
54.78
62.24
67.78
68.98
63.76
51.25
32.28
9.49
-13.40
-32.70
-45.86
-52.18
-52.71
-49.59
-45.17
-41.40
-39.53
-40.26
-43.82
-49.98
-57.88
-66.01
-72.45
-75.39
-73.77
-67.62
-57.99
-46.51
-34.83
-24.15
-15.17
-8.26
-3.65
-1.63
-2.38
-5.78
-11.17
-17.40
-22.99
-26.57
-27.24
-24.89
-20.24
-14.59
-9.43
-5.97
-4.90
-6.27
-9.65
-14.30
-19.37
-24.06
-27.63
-29.60
-29.78
-28.32
-25.63
-22.10
-17.97
-13.19
-7.56
-1.01
6.13
13.03
18.60
21.77
21.90
19.00
13.70
7.04
0.17
-5.92
-10.61
-13.71
-15.45
-16.27
-16.58
-16.56
-16.01
-14.43
-11.28
-6.14
1.08
10.11
20.36
30.90
40.55
47.83
51.26
49.76
43.15
32.43
19.68
7.42
-2.21
-8.15
-10.67
-10.96
-10.51
-10.51
-11.56
-13.75
-16.88
-20.57
-24.39
-27.73
-29.95
-30.48
-29.07
-25.89
-21.52
-16.80
-12.58
-9.58
-8.29
-8.97
-11.58
-15.80
-21.04
-26.57
-31.72
-35.95
-39.01
-40.96
-41.99
-42.40
-42.49
-42.54
-42.77
-43.29
-44.00
-44.52
-44.12
-41.87
-36.97
-29.13
-18.92
-7.69
2.76
10.84
15.66
17.34
16.85
15.52
14.50
14.50
15.64
17.62
19.96
22.20
23.97
25.04
25.23
24.49
22.87
20.54
17.84
15.23
13.18
12.04
11.93
12.65
13.73
14.60
14.82
14.20
12.88
11.20
9.52
8.08
6.95
6.09
5.39
4.72
3.93
2.84
1.31
-0.66
-2.89
-5.04
-6.79
-7.95
-8.56
-8.86
-9.15
-9.62
-10.30
-11.09
-11.84
-12.44
-12.87
-13.14
-13.31
-13.36
-13.23
-12.77
-11.86
-10.40
-8.42
-6.06
-3.50
-0.91
1.63
4.10
6.50
8.74
10.68
12.15
13.02
13.28
13.07
12.64
12.26
12.16
12.47
13.15
14.08
15.06
15.92
16.59
17.06
17.38
17.67
18.00
18.42
18.92
19.38
19.56
19.09
17.61
14.95
11.18
6.69
2.03
-2.24
-5.67
-8.07
-9.41
-9.88
-9.73
-9.19
-8.41
-7.37
-5.93
-3.92
-1.35
1.48
3.93
5.14
4.30
0.93
-4.98
-12.81
-21.45
-29.49
-35.52
-38.46
-37.88
-34.06
-27.94
-20.81
-13.97
-8.37
-4.47
-2.18
-1.01
-0.25
0.78
2.53
5.13
8.30
11.54
14.23
15.88
16.36
15.81
14.63
13.25
11.97
10.88
9.86
8.66
7.08
5.07
2.81
0.81
-0.16
0.79
4.44
11.12
20.43
31.19
41.63
49.83
54.35
54.57
50.73
43.73
34.61
24.30
13.41
2.36
-8.46
-18.61
-27.63
-35.25
-41.50
-46.71
-51.45
-56.23
-61.30
-66.52
-71.36
-75.04
-76.74
-75.91
-72.38
-66.48
-58.90
-50.55
-42.37
-35.11
-29.25
-24.94
-21.99
-19.92
-18.04
-15.57
-11.83
-6.42
0.54
8.35
15.85
21.75
25.17
25.98
24.92
23.26
22.28
22.66
24.18
25.88
26.51
25.23
22.01
17.65
13.41
10.41
9.16
9.42
10.43
11.35
11.69
11.43
10.97
10.73
10.94
11.52
12.15
12.52
12.47
12.02
11.31
10.51
9.69
8.83
7.82
6.46
4.51
1.70
-2.13
-6.99
-12.66
-18.56
-23.88
-27.68
-29.20
-28.12
-24.77
-19.98
-14.94
-10.73
-8.02
-6.97
-7.19
-8.12
-9.13
-9.79
-9.91
-9.44
-8.47
-7.10
-5.51
-3.83
-2.21
-0.72
0.61
1.82
2.96
4.09
5.23
6.42
7.66
8.95
10.20
11.37
12.35
13.12
13.71
14.21
14.70
15.10
15.23
14.77
13.44
11.18
8.28
5.33
3.00
1.80
1.81
2.70
3.82
4.52
4.36
3.25
1.39
-0.87
-3.17
-5.29
-7.12
-8.66
-9.88
-10.72
-11.06
-10.69
-9.45
-7.32
-4.38
-0.89
2.75
6.02
8.40
9.56
9.48
8.56
7.64
7.92
10.63
16.55
25.66
37.10
49.45
61.21
71.29
79.24
85.37
90.38
94.75
98.35
100.42
99.89
95.77
87.59
75.31
59.79
42.47
24.78
7.84
-7.47
-20.08
-29.23
-34.33
-36.11
-35.55
-34.03
-33.45
-35.71
-41.94
-51.56
-63.24
-74.97
-85.84
-94.63
-100.58
-104.47
-108.53
-115.45
-126.20
-140.30
-154.60
-165.42
-167.53
-156.70
-132.65
-99.56
-64.82
-35.74
-19.10
-8.42
-2.34
-0.48
-0.03
3.73
14.37
25.75
35.84
40.55
35.88
18.45
-11.14
-44.97
-74.42
-91.53
-91.65
-73.92
-42.87
-5.52
30.10
59.25
80.91
95.75
104.86
108.87
108.80
105.24
99.76
94.31
92.19
96.67
108.65
125.88
143.40
156.04
160.01
155.11
144.35
133.57
129.21
135.27
152.16
176.86
204.63
230.15
248.80
255.99
249.07
227.69
193.05
147.08
92.08
31.25
-31.24
-90.16
-142.14
-183.60
-211.21
-223.76
-223.53
-215.23
-203.57
-191.37
-179.24
-170.15
-165.62
-164.99
-166.82
-170.47
-175.94
-182.71
-189.82
-196.32
-206.68
-223.62
-245.52
-267.53
-284.92
-294.55
-294.82
-285.90
-241.76
-158.06
-55.29
37.55
104.84
146.96
171.58
186.63
195.90
202.20
201.37
190.79
172.44
151.11
130.36
110.96
93.81
78.70
65.62
51.28
34.68
18.29
6.06
0.21
0.35
4.49
10.01
14.98
16.08
12.17
4.94
-2.52
-7.79
-9.88
-8.76
-5.00
0.83
7.05
12.65
17.69
22.83
28.38
34.11
39.52
43.92
46.84
47.54
45.76
41.82
36.42
30.26
23.92
17.84
12.31
7.43
3.17
-0.62
-4.00
-6.84
-8.80
-9.43
-8.39
-5.71
-1.79
2.70
7.11
10.98
14.08
16.32
17.62
17.83
16.81
14.56
11.25
7.22
2.84
-1.59
-5.84
-9.63
-12.70
-14.79
-15.78
-15.81
-15.30
-14.83
-14.98
-16.16
-18.48
-21.71
-25.37
-28.84
-31.47
-32.70
-32.10
-29.46
-24.74
-18.12
-9.93
-0.68
8.94
18.13
26.06
32.02
35.59
36.79
36.08
34.30
32.46
31.44
31.70
33.16
35.19
36.95
37.69
37.13
35.59
33.84
32.87
33.49
36.01
40.24
45.50
50.86
55.39
58.36
59.26
57.83
53.94
47.55
38.80
28.06
16.04
3.68
-8.03
-18.31
-26.73
-33.24
-38.05
-41.40
-43.48
-44.39
-44.19
-43.04
-41.16
-38.92
-36.71
-34.96
-33.97
-33.91
-34.66
-35.84
-36.84
-37.05
-35.98
-33.40
-29.43
-24.47
-19.16
-14.18
-10.22
-7.75
-6.97
-7.71
-9.59
-12.08
-14.77
-17.44
-20.08
-22.79
-25.60
-28.32
-30.57
-31.86
-31.80
-30.25
-27.45
-23.93
-20.35
-17.26
-14.94
-13.37
-12.28
-11.39
-10.47
-9.48
-8.45
-7.47
-6.68
-6.20
-6.21
-6.87
-8.31
-10.53
-13.44
-16.83
-20.48
-24.20
-27.77
-30.95
-33.47
-35.09
-35.69
-35.31
-34.09
-32.20
-29.65
-26.43
-22.50
-17.95
-13.04
-8.07
-3.35
0.95
4.75
7.97
10.43
11.94
12.36
11.77
10.57
9.29
8.49
8.53
9.46
11.13
13.25
15.57
17.87
20.03
21.89
23.32
24.15
24.30
23.80
22.78
21.47
20.05
18.65
17.25
15.79
14.27
12.71
11.29
10.21
9.63
9.57
9.87
10.33
10.69
10.77
10.44
9.61
8.15
5.92
2.93
-0.60
-4.20
-7.23
-9.10
-9.48
-8.38
-6.11
-3.12
0.20
3.52
6.64
9.36
11.49
12.87
13.44
13.29
12.61
11.70
10.86
10.41
10.65
11.82
13.96
16.87
20.06
22.90
24.79
25.38
24.66
22.95
20.76
18.54
16.64
15.16
14.05
13.13
12.24
11.24
10.06
8.70
7.18
5.54
3.86
2.27
0.97
0.18
-0.03
0.20
0.55
0.58
-0.11
-1.69
-4.15
-7.34
-11.11
-15.31
-19.79
-24.27
-28.33
-31.53
-33.46
-33.92
-32.96
-30.84
-27.94
-24.64
-21.25
-17.90
-14.63
-11.40
-8.15
-4.83
-1.46
1.82
4.74
7.06
8.53
9.04
8.61
7.41
5.84
4.29
3.02
2.04
1.16
0.15
-1.29
-3.49
-6.44
-9.81
-13.10
-15.94
-18.14
-19.74
-20.63
-20.91
-20.94
-20.75
-20.04
-18.63
-16.96
-16.06
-17.30
-21.09
-27.19
-34.75
-41.63
-45.04
-42.98
-35.46
-24.62
-13.99
-5.89
-1.57
-0.97
-1.82
-0.29
7.21
22.55
45.31
73.42
105.80
141.16
172.11
188.10
182.97
160.00
127.62
97.14
67.70
38.35
9.03
-19.94
-46.19
-66.40
-78.65
-83.42
-84.28
-85.93
-90.67
-99.38
-112.22
-128.55
-147.30
-167.16
-178.89
-174.79
-151.99
-113.29
-66.27
-20.18
17.14
41.24
52.75
56.72
59.03
64.21
74.35
88.03
102.88
114.33
119.06
116.34
107.84
95.80
82.69
70.82
61.62
51.98
42.31
32.47
22.80
14.62
8.91
5.64
3.70
1.44
-2.41
-7.66
-13.23
-17.41
-18.83
-17.47
-14.30
-10.94
-8.58
-7.84
-8.43
-9.99
-11.89
-13.52
-14.43
-14.30
-12.95
-10.23
-6.33
-1.72
2.61
5.69
7.05
7.09
7.53
10.16
16.73
27.59
41.38
54.87
63.88
64.33
53.46
30.83
-0.86
-35.59
-65.20
-80.92
-76.48
-51.01
-10.41
34.07
69.90
88.21
87.40
72.59
53.32
38.84
34.07
38.34
46.95
54.14
55.46
48.91
33.53
9.72
-20.90
-54.99
-87.23
-110.94
-120.37
-113.81
-90.58
-59.28
-32.70
-21.87
-30.77
-54.60
-82.48
-102.72
-107.92
-96.84
-73.80
-44.05
-11.24
22.89
56.96
88.22
112.52
126.02
127.58
119.14
105.43
91.08
77.67
62.76
41.69
10.92
-28.81
-71.83
-110.02
-136.17
-147.40
-146.24
-138.90
-131.81
-128.35
-127.63
-125.47
-117.08
-99.32
-72.28
-39.46
-6.89
18.46
30.94
28.25
12.56
-10.30
-33.41
-52.07
-65.79
-77.56
-90.79
-105.76
-118.22
-121.23
-109.41
-82.91
-48.45
-16.54
3.52
7.94
-0.05
-12.44
-20.58
-19.21
-8.36
7.18
20.46
25.62
20.50
7.27
-9.30
-24.73
-37.19
-48.04
-59.78
-72.91
-84.02
-87.02
-76.99
-54.21
-25.44
-0.84
11.66
11.24
4.96
3.74
16.03
42.95
77.88
110.39
131.91
139.74
137.55
132.42
130.71
135.11
144.13
153.82
160.16
160.79
155.49
145.61
133.00
119.15
105.06
91.23
77.72
63.91
48.64
30.68
9.71
-12.66
-32.88
-46.42
-49.83
-42.35
-26.48
-6.73
12.40
28.22
40.30
49.62
57.22
63.33
67.49
69.38
69.41
68.73
68.54
69.34
70.62
71.25
70.10
66.84
62.15
57.57
54.82
54.97
57.80
61.55
63.37
60.29
50.43
33.83
12.55
-10.12
-30.89
-47.53
-59.35
-66.99
-71.78
-75.01
-77.57
-79.86
-81.88
-83.50
-84.51
-84.71
-83.94
-82.06
-79.03
-75.00
-70.34
-65.56
-61.19
-57.54
-54.60
-52.02
-49.31
-46.06
-42.12
-37.63
-32.96
-28.53
-24.70
-21.75
-19.88
-19.22
-19.78
-21.41
-23.78
-26.50
-29.24
-31.79
-34.18
-36.53
-38.94
-41.40
-43.69
-45.45
-46.22
-45.62
-43.41
-39.60
-34.40
-28.20
-21.51
-14.80
-8.44
-2.67
2.42
6.85
10.67
13.96
16.79
19.26
21.50
23.52
25.29
26.66
27.46
27.61
27.22
26.60
26.15
26.17
26.84
28.03
29.42
30.56
31.00
30.45
28.84
26.38
23.47
20.61
18.16
16.30
14.98
14.00
13.18
12.40
11.68
11.02
10.43
9.87
9.29
8.71
8.26
8.09
8.31
8.89
9.63
10.20
10.24
9.48
7.91
5.79
3.62
1.99
1.38
2.01
3.86
6.65
9.96
13.18
15.58
16.38
15.02
11.43
6.19
0.43
-4.51
-7.64
-8.57
-7.60
-5.41
-2.67
0.20
3.02
5.74
8.23
10.27
11.69
12.54
13.07
13.65
14.57
15.87
17.30
18.44
18.85
18.23
16.58
14.16
11.42
8.88
6.94
5.80
5.44
5.68
6.26
6.97
7.66
8.25
8.72
9.04
9.22
9.27
9.21
9.13
9.08
9.08
9.03
8.67
7.69
5.80
2.94
-0.65
-4.40
-7.60
-9.62
-10.13
-9.21
-7.24
-4.68
-1.82
1.29
4.78
8.80
13.33
18.09
22.68
26.67
29.79
31.89
32.99
33.04
31.92
29.29
24.79
18.07
8.99
-2.33
-15.40
-29.46
-43.49
-56.27
-66.58
-73.26
-75.41
-72.56
-64.88
-53.25
-39.20
-24.65
-11.50
-1.27
5.22
7.86
7.15
3.87
-1.16
-7.20
-13.65
-19.93
-25.40
-29.34
-31.05
-30.12
-26.56
-20.96
-14.35
-7.95
-2.82
0.34
1.34
0.41
-1.92
-4.90
-7.60
-8.88
-7.65
-3.14
4.80
15.43
27.24
38.30
46.85
51.73
52.66
50.18
45.27
39.05
32.45
26.11
20.44
15.71
12.08
9.60
8.13
7.38
6.99
6.71
6.53
6.62
7.22
8.41
10.00
11.52
12.47
12.46
11.39
9.43
6.93
4.24
1.66
-0.63
-2.53
-4.03
-5.17
-6.04
-6.75
-7.41
-8.10
-8.88
-9.78
-10.82
-11.97
-13.13
-14.15
-14.82
-14.98
-14.51
-13.43
-11.83
-9.80
-7.47
-4.87
-2.06
0.93
3.99
6.97
9.66
11.92
13.62
14.79
15.48
15.80
15.88
15.79
15.60
15.33
15.03
14.70
14.31
13.81
13.16
12.35
11.50
10.75
10.27
10.15
10.34
10.69
11.02
11.21
11.20
10.99
10.59
9.97
9.12
8.00
6.72
5.45
4.41
3.73
3.39
3.16
2.72
1.73
-0.02
-2.47
-5.35
-8.23
-10.66
-12.30
-13.08
-13.16
-12.90
-12.66
-12.74
-13.28
-14.02
-14.49
-14.13
-12.52
-9.55
-5.45
-0.64
4.27
8.69
12.26
14.79
16.28
16.84
16.68
16.09
15.45
15.05
14.92
15.17
15.83
16.92
18.38
20.15
22.17
24.58
27.29
29.85
32.16
34.28
36.21
37.92
39.44
40.93
43.24
46.77
51.22
56.86
63.89
72.01
80.44
88.19
94.39
99.46
103.65
106.74
110.02
115.17
122.97
132.82
142.56
148.86
149.23
140.82
121.09
91.09
54.06
13.61
-27.30
-66.86
-111.25
-158.63
-198.77
-231.76
-258.94
-278.81
-288.75
-286.24
-270.27
-242.40
-205.83
-166.68
-132.50
-107.50
-92.36
-85.24
-82.70
-81.00
-77.15
-68.52
-54.70
-37.56
-18.79
-0.02
17.06
31.14
41.54
48.16
51.79
52.90
51.34
47.89
43.64
39.52
36.07
33.40
31.31
29.83
28.93
28.51
28.92
30.46
32.96
35.69
37.61
37.72
35.55
31.11
24.82
17.53
10.16
3.44
-2.20
-6.54
-9.55
-11.31
-11.95
-11.62
-10.50
-8.71
-6.35
-3.48
-0.17
3.56
7.68
12.18
17.05
22.24
27.60
32.92
37.92
42.39
46.09
48.82
50.37
50.55
49.29
46.66
42.94
38.55
33.97
29.57
25.52
21.81
18.26
14.68
10.98
7.29
3.85
1.06
-0.73
-1.30
-0.66
1.00
3.28
5.79
8.15
10.14
11.62
12.54
12.86
12.61
11.84
10.70
9.42
8.22
7.16
6.09
4.67
2.55
-0.49
-4.36
-8.71
-13.10
-17.13
-20.57
-23.38
-25.59
-27.23
-28.36
-29.09
-29.65
-30.33
-31.33
-32.68
-34.20
-35.67
-36.88
-37.84
-38.66
-39.54
-40.59
-41.86
-43.35
-45.07
-47.02
-49.14
-51.18
-52.73
-53.28
-52.47
-50.25
-46.95
-43.17
-39.59
-36.63
-34.43
-32.78
-31.35
-29.83
-28.13
-26.36
-24.68
-23.23
-22.00
-20.87
-19.66
-18.18
-16.33
-14.06
-11.42
-8.53
-5.63
-3.05
-1.10
-0.00
0.23
-0.20
-0.92
-1.54
-1.79
-1.59
-1.04
-0.40
0.05
0.13
-0.18
-0.76
-1.39
-1.86
-2.07
-2.01
-1.79
-1.48
-1.08
-0.53
0.27
1.31
2.41
3.31
3.71
3.49
2.69
1.52
0.19
-1.13
-2.37
-3.46
-4.28
-4.65
-4.31
-3.08
-0.95
1.90
5.08
8.17
10.80
12.76
13.95
14.37
14.03
12.95
11.18
8.84
6.17
3.46
1.01
-0.97
-2.38
-3.25
-3.68
-3.84
-3.89
-4.02
-4.35
-4.95
-5.78
-6.81
-8.10
-9.85
-12.39
-16.00
-20.78
-26.51
-32.62
-38.39
-43.13
-46.36
-47.97
-48.08
-47.00
-44.91
-41.85
-37.72
-32.50
-26.36
-19.74
-13.26
-7.57
-3.14
-0.11
1.69
2.62
2.97
2.92
2.49
1.67
0.54
-0.80
-2.02
-2.64
-2.24
-0.67
1.97
5.39
9.20
12.99
16.12
18.37
19.91
21.07
22.24
23.89
26.50
30.46
35.79
41.52
47.04
52.15
56.80
60.66
63.14
63.53
61.02
54.83
43.19
25.53
2.18
-26.27
-59.28
-95.88
-134.10
-170.88
-202.40
-226.26
-239.33
-238.84
-223.69
-195.32
-157.20
-113.71
-69.15
-19.88
29.35
70.42
97.85
112.27
118.24
120.71
123.01
125.97
129.91
129.93
122.34
106.15
83.14
57.04
32.50
13.68
2.95
0.57
4.17
11.46
20.77
31.05
41.41
50.89
58.52
63.46
65.22
63.02
57.37
49.62
41.22
33.06
25.53
18.84
13.26
9.07
6.01
3.89
2.45
1.24
-0.37
-2.83
-6.18
-9.96
-13.42
-16.02
-17.44
-17.76
-17.49
-17.27
-17.56
-18.30
-18.94
-18.75
-17.25
-14.41
-10.75
-6.95
-3.57
-0.76
1.69
4.09
6.54
8.76
10.24
10.55
9.53
7.43
4.67
1.62
-1.52
-4.74
-7.94
-10.82
-12.91
-13.69
-12.87
-10.49
-6.87
-2.43
2.47
7.58
12.66
17.41
21.45
24.41
26.07
26.43
25.73
24.31
22.54
20.63
18.61
16.35
13.58
10.14
6.08
1.81
-1.91
-4.34
-4.97
-3.87
-1.60
1.00
3.26
5.00
6.46
8.04
9.81
11.32
11.70
10.01
5.71
-1.13
-9.80
-19.14
-27.71
-33.98
-36.63
-34.86
-28.85
-19.86
-10.03
-1.69
3.50
5.01
3.52
0.36
-3.18
-6.27
-8.63
-10.21
-10.87
-10.31
-8.24
-4.67
-0.10
4.53
8.15
9.97
9.71
7.69
4.65
1.40
-1.40
-3.46
-4.85
-5.79
-6.43
-6.77
-6.73
-6.28
-5.53
-4.74
-4.20
-4.08
-4.30
-4.67
-4.97
-5.14
-5.26
-5.38
-5.36
-4.87
-3.52
-1.11
2.14
5.70
8.82
11.00
12.07
12.29
12.10
11.93
12.00
12.22
12.35
12.17
11.64
10.85
10.05
9.47
9.25
9.47
10.07
10.95
12.03
13.35
14.97
16.90
19.08
21.31
23.40
25.05
26.04
26.29
25.95
25.33
24.76
24.52
24.72
25.48
26.56
27.57
28.30
28.87
29.60
30.72
32.22
33.91
35.82
37.66
39.09
40.13
41.16
42.63
44.53
46.49
48.09
49.75
51.53
53.41
55.60
58.69
63.37
69.99
78.62
89.05
101.17
112.89
120.56
120.25
109.20
86.81
54.48
15.38
-30.30
-75.56
-111.38
-132.41
-139.58
-137.27
-129.68
-119.83
-109.71
-100.64
-92.61
-86.33
-82.18
-79.86
-79.65
-80.18
-80.89
-82.56
-87.00
-95.42
-108.85
-125.90
-142.28
-151.85
-149.02
-131.30
-101.16
-65.07
-27.17
6.03
30.64
47.00
58.35
68.66
80.66
94.24
107.01
116.34
119.85
116.40
106.14
89.46
63.97
32.13
0.65
-24.07
-39.53
-47.34
-50.33
-49.94
-46.89
-41.54
-34.25
-26.62
-21.33
-20.52
-25.50
-37.42
-54.31
-73.31
-90.62
-101.35
-101.27
-88.62
-64.27
-29.60
6.40
35.61
53.66
60.61
59.52
54.96
47.00
34.77
17.81
-3.12
-24.59
-42.46
-53.64
-57.10
-54.14
-47.65
-40.15
-32.89
-25.79
-17.97
-8.77
1.68
12.43
22.11
29.32
33.51
34.82
33.50
30.34
26.22
21.95
18.29
15.74
14.41
14.21
14.78
15.51
16.05
16.38
16.62
16.98
17.76
19.28
22.04
26.49
32.78
40.58
49.15
57.32
63.77
67.16
66.44
61.05
51.12
37.58
22.06
6.53
-7.22
-18.09
-25.94
-31.39
-35.40
-38.84
-42.22
-45.66
-48.97
-51.82
-53.75
-54.28
-53.04
-49.85
-44.81
-38.30
-30.85
-23.01
-15.30
-8.11
-1.81
3.32
7.07
9.36
10.29
10.16
9.37
8.37
7.55
7.12
7.13
7.46
7.92
8.28
8.45
8.44
8.40
8.47
8.79
9.40
10.21
11.00
11.52
11.51
10.86
9.66
8.18
6.75
5.66
5.05
4.85
4.91
5.02
5.02
4.80
4.31
3.53
2.47
1.22
-0.06
-1.19
-2.00
-2.45
-2.64
-2.71
-2.86
-3.14
-3.40
-3.34
-2.62
-1.09
1.05
3.25
4.76
5.00
3.86
1.88
0.12
-0.26
1.41
4.92
9.14
12.43
13.27
11.03
6.18
0.18
-5.11
-8.20
-8.56
-6.92
-5.11
-5.84
-11.90
-25.20
-45.53
-69.66
-91.31
-102.45
-95.71
-67.19
-18.43
43.57
108.31
165.05
205.97
227.91
232.23
223.25
206.12
185.23
163.60
142.81
123.41
105.09
86.86
67.25
44.80
18.68
-10.68
-41.45
-70.86
-95.95
-114.43
-125.19
-128.40
-125.30
-117.65
-107.28
-95.70
-83.87
-72.11
-60.24
-47.99
-35.27
-22.52
-10.59
-0.54
6.80
11.19
13.01
13.12
12.46
11.77
11.34
11.02
10.40
9.06
6.66
3.13
-1.35
-6.42
-11.57
-16.30
-20.17
-22.94
-24.55
-25.09
-24.78
-23.83
-22.51
-21.06
-19.74
-18.60
-17.41
-15.63
-12.56
-7.65
-0.80
7.45
16.06
23.76
29.57
33.02
34.20
33.66
32.06
30.04
28.17
26.93
26.76
27.88
30.05
32.44
33.75
32.54
27.80
19.32
7.76
-5.62
-19.39
-32.30
-43.45
-52.11
-57.59
-59.17
-56.27
-48.74
-37.04
-22.28
-6.01
10.15
24.81
36.86
45.52
50.10
50.00
44.86
34.80
20.78
4.52
-11.66
-25.51
-35.34
-40.42
-40.88
-37.47
-31.15
-22.84
-13.43
-3.79
5.20
12.72
18.24
21.66
23.30
23.71
23.39
22.59
21.28
19.31
16.64
13.49
10.36
7.88
6.58
6.75
8.35
11.11
14.61
18.40
22.16
25.69
28.98
32.14
35.26
38.32
41.03
42.86
43.18
41.44
37.43
31.32
23.53
14.62
4.93
-5.45
-16.71
-29.08
-42.62
-56.97
-71.37
-84.70
-95.76
-103.66
-107.96
-108.79
-106.73
-102.49
-96.77
-90.04
-82.68
-74.95
-67.10
-59.34
-51.79
-44.48
-37.45
-30.86
-25.08
-20.63
-18.15
-18.13
-20.79
-25.97
-33.15
-41.52
-50.16
-58.16
-64.82
-69.79
-73.16
-75.40
-77.30
-79.64
-82.92
-87.04
-91.28
-94.42
-95.05
-91.95
-84.31
-71.73
-54.14
-31.79
-5.17
24.72
56.35
87.58
115.99
139.33
156.05
165.70
169.00
167.56
163.36
158.07
152.48
146.40
138.80
128.51
114.78
97.65
77.94
56.90
35.80
15.66
-2.65
-18.39
-30.87
-39.55
-44.16
-44.81
-42.02
-36.52
-29.17
-20.90
-12.70
-5.57
-0.35
2.47
2.91
1.40
-1.43
-5.07
-9.29
-14.08
-19.46
-25.18
-30.66
-35.04
-37.42
-37.06
-33.53
-26.81
-17.19
-5.25
8.24
22.38
36.18
48.61
58.64
65.42
68.33
67.18
62.31
54.55
45.08
35.15
25.73
17.34
10.01
3.43
-2.79
-8.89
-14.83
-20.39
-25.25
-29.22
-32.30
-34.70
-36.77
-38.89
-41.34
-44.17
-47.10
-49.53
-50.65
-49.65
-45.97
-39.49
-30.61
-20.04
-8.62
2.92
14.08
24.55
34.11
42.56
49.64
55.10
58.89
61.11
62.17
62.61
63.05
63.94
65.42
67.17
68.50
68.47
66.22
61.24
53.59
43.84
33.00
22.12
12.04
3.08
-5.00
-12.90
-21.53
-31.57
-43.28
-56.35
-69.92
-82.83
-93.85
-101.90
-106.25
-106.68
-103.58
-97.94
-91.14
-84.59
-79.44
-76.23
-74.94
-75.13
-76.22
-77.70
-79.15
-80.19
-80.33
-79.04
-75.89
-70.77
-64.06
-56.46
-48.73
-41.19
-33.51
-24.75
-13.81
0.02
16.55
34.59
52.40
68.27
81.05
90.46
96.82
100.79
103.11
104.44
105.32
105.97
106.05
104.46
99.43
89.25
73.09
51.80
27.98
5.26
-12.85
-24.17
-28.37
-26.82
-21.75
-15.39
-9.22
-3.81
1.12
6.47
13.25
22.28
33.78
47.11
60.80
72.69
80.34
81.43
74.16
57.60
32.07
-0.60
-36.99
-72.53
-102.30
-122.16
-129.85
-125.47
-111.27
-90.71
-67.30
-43.58
-20.74
1.19
22.71
44.10
64.98
84.30
100.70
113.01
120.63
123.59
122.36
117.56
109.67
99.07
86.21
71.83
57.10
43.51
32.59
25.61
23.28
25.64
32.17
41.96
53.80
66.20
77.30
84.80
86.23
79.47
63.53
39.27
9.57
-21.18
-48.22
-67.60
-77.23
-77.13
-68.95
-55.31
-38.91
-22.21
-7.34
3.72
9.12
7.32
-2.38
-19.46
-42.03
-67.11
-91.30
-111.50
-125.46
-131.87
-130.20
-120.46
-102.95
-78.50
-48.71
-16.14
15.80
43.38
63.37
73.63
73.51
63.67
45.62
21.33
-7.06
-37.32
-67.06
-93.75
-114.98
-128.73
-133.68
-129.38
-116.32
-95.77
-69.68
-40.36
-10.17
18.82
45.27
68.56
88.67
105.87
120.38
132.20
141.06
146.53
148.09
145.30
137.87
126.07
110.99
94.56
79.24
67.36
60.39
58.51
60.79
65.60
71.27
76.41
79.91
80.79
77.96
70.36
57.08
37.71
12.48
-17.72
-51.39
-86.60
-121.23
-153.33
-181.48
-205.15
-224.61
-240.70
-254.17
-265.26
-273.48
-277.82
-277.16
-270.80
-258.75
-241.77
-221.18
-198.52
-175.23
-152.32
-130.19
-108.63
-87.00
-64.55
-40.73
-15.49
10.70
36.92
61.95
84.47
103.22
117.01
124.94
126.54
121.99
112.23
98.85
83.73
68.57
54.36
41.12
28.08
14.03
-1.94
-19.93
-39.04
-57.45
-73.10
-84.35
-89.72
-87.84
-77.76
-59.33
-33.82
-4.17
25.64
51.68
71.36
84.69
94.13
103.05
113.88
126.88
140.01
150.22
154.41
149.75
134.62
108.52
71.28
22.88
-36.03
-103.03
-172.09
-234.65
-282.60
-308.85
-309.42
-285.84
-244.53
-194.23
-142.58
-91.80
-40.60
10.39
60.18
106.55
144.59
169.22
178.26
174.04
165.58
162.41
166.18
175.51
188.76
203.14
216.71
228.75
239.22
251.63
268.47
284.65
296.35
305.57
316.17
332.39
356.05
362.86
335.22
303.73
278.01
243.13
193.42
129.22
56.24
-17.95
-86.51
-141.43
-178.55
-204.58
-230.17
-262.07
-303.73
-354.46
-411.66
-471.57
-526.02
-565.48
-562.25
-500.50
-388.80
-258.55
-140.89
-52.14
6.45
43.91
71.23
93.10
107.44
112.20
108.31
102.22
100.06
105.48
118.71
135.82
148.44
146.05
123.22
81.85
30.33
-21.48
-66.31
-101.25
-124.63
-137.88
-145.19
-150.02
-153.88
-156.85
-159.27
-162.17
-166.39
-171.37
-175.23
-176.00
-171.48
-159.84
-140.38
-114.10
-83.37
-51.04
-19.59
9.01
33.20
52.15
65.74
74.36
78.57
79.01
76.47
71.98
66.75
62.42
61.10
65.04
76.02
94.69
120.01
149.29
178.73
204.29
222.72
232.13
231.96
222.62
205.11
180.80
151.57
119.80
88.11
58.80
33.31
11.86
-6.20
-21.66
-34.74
-44.71
-50.40
-50.98
-46.82
-39.78
-32.75
-28.65
-29.27
-34.68
-43.15
-51.62
-56.65
-55.41
-46.74
-31.83
-14.27
0.88
8.67
6.12
-6.75
-26.99
-50.23
-72.56
-91.94
-108.45
-123.24
-137.01
-148.72
-155.47
-153.58
-140.50
-116.48
-85.14
-52.48
-24.58
-5.13
6.09
12.83
20.37
32.97
52.09
76.19
101.98
126.32
147.41
164.85
178.75
188.64
193.03
189.81
177.17
154.39
122.29
83.21
40.68
-0.94
-37.08
-63.79
-78.82
-82.44
-77.46
-68.23
-58.82
-51.41
-45.63
-39.45
-30.93
-19.80
-7.88
1.95
7.45
8.34
6.31
3.82
2.53
2.24
1.17
-2.82
-10.69
-21.41
-32.19
-39.73
-41.71
-37.94
-30.31
-21.96
-15.79
-13.34
-14.45
-17.53
-20.27
-20.17
-14.95
-2.88
16.70
42.90
73.06
103.32
129.68
149.23
160.85
165.00
162.67
154.23
138.99
115.41
82.25
39.99
-8.00
-55.31
-93.77
-115.96
-118.23
-102.56
-76.11
-48.37
-26.97
-14.68
-9.08
-4.98
1.83
12.02
22.63
29.40
29.57
23.52
14.15
4.80
-2.66
-8.50
-14.25
-21.15
-29.08
-36.44
-41.16
-41.95
-38.95
-33.68
-28.14
-23.75
-20.75
-18.26
-15.01
-10.17
-3.96
2.48
7.63
10.37
10.54
9.01
7.45
7.85
12.03
21.24
35.71
54.52
75.50
95.73
112.15
122.39
125.37
121.20
110.70
94.63
73.11
45.72
12.31
-25.72
-64.63
-98.56
-121.28
-128.72
-120.96
-102.50
-80.40
-61.18
-48.10
-40.48
-35.12
-28.98
-21.36
-14.08
-9.97
-10.67
-15.42
-21.47
-25.77
-26.75
-24.91
-22.14
-20.37
-20.38
-21.51
-22.24
-21.20
-17.84
-12.74
-7.14
-2.39
0.68
2.00
2.20
2.20
2.78
4.20
6.16
7.92
8.74
8.18
6.32
3.73
1.13
-0.88
-2.07
-2.59
-2.80
-3.04
-3.46
-4.01
-4.45
-4.52
-3.98
-2.72
-0.75
1.81
4.70
7.60
10.19
12.32
14.02
15.49
17.00
18.72
20.56
22.23
23.32
23.54
22.88
21.65
20.32
19.26
18.58
18.02
17.12
15.48
12.93
9.75
6.44
3.61
1.60
0.39
-0.39
-1.26
-2.60
-4.53
-6.83
-9.00
-10.56
-11.13
-10.54
-8.90
-6.49
-3.80
-1.53
-0.56
-1.83
-5.98
-12.89
-21.47
-29.81
-35.70
-37.49
-34.62
-27.69
-17.96
-6.65
5.60
18.64
32.34
45.92
57.72
65.55
67.46
62.55
51.25
35.07
15.95
-4.36
-24.62
-43.99
-61.75
-77.00
-88.72
-95.95
-98.19
-95.56
-88.81
-79.11
-67.76
-55.95
-44.60
-34.34
-25.50
-18.18
-12.30
-7.78
-4.55
-2.63
-1.96
-2.35
-3.36
-4.33
-4.59
-3.65
-1.39
1.90
5.65
9.23
12.24
14.61
16.57
18.46
20.56
22.90
25.26
27.23
28.39
28.47
27.32
25.02
21.72
17.59
12.87
7.82
2.73
-2.10
-6.45
-10.22
-13.44
-16.21
-18.60
-20.60
-22.06
-22.73
-22.46
-21.23
-19.23
-16.78
-14.19
-11.62
-9.04
-6.26
-3.11
0.51
4.49
8.56
12.38
15.53
17.62
18.32
17.47
15.15
11.74
7.86
4.23
1.38
-0.46
-1.40
-1.84
-2.22
-2.87
-3.89
-5.17
-6.50
-7.66
-8.54
-9.08
-9.25
-8.99
-8.20
-6.84
-4.97
-2.89
-1.03
0.20
0.61
0.31
-0.31
-0.79
-0.75
-0.06
1.19
2.80
4.56
6.34
8.05
9.63
10.99
12.04
12.76
13.23
13.58
13.94
14.37
14.86
15.32
15.74
16.11
16.53
17.01
17.54
17.98
18.17
17.99
17.44
16.63
15.74
14.91
14.18
13.50
12.76
11.87
10.80
9.67
8.64
7.88
7.51
7.50
7.72
7.97
8.03
7.81
7.32
6.70
6.11
5.70
5.52
5.50
5.51
5.42
5.15
4.75
4.32
4.00
3.89
4.01
4.30
4.63
4.84
4.84
4.60
4.20
3.82
3.71
4.01
4.78
5.89
7.08
8.04
8.59
8.66
8.35
7.79
7.04
6.07
4.75
3.03
0.95
-1.22
-3.15
-4.53
-5.21
-5.31
-5.14
-5.03
-5.29
-6.10
-7.51
-9.52
-12.02
-14.83
-17.61
-19.91
-21.32
-21.50
-20.41
-18.20
-15.25
-11.97
-8.71
-5.74
-3.23
-1.26
0.17
1.11
1.69
2.01
2.09
1.92
1.38
0.38
-1.14
-3.15
-5.53
-8.10
-10.66
-12.94
-14.71
-15.71
-15.77
-14.76
-12.73
-9.86
-6.54
-3.23
-0.32
1.97
3.69
5.09
6.50
8.12
9.91
11.69
13.20
14.30
15.01
15.51
15.89
16.12
16.06
15.50
14.42
12.95
11.40
10.04
8.99
8.14
7.23
6.03
4.43
2.53
0.59
-1.05
-2.16
-2.62
-2.50
-2.02
-1.45
-1.15
-1.42
-2.51
-4.60
-7.71
-11.66
-16.06
-20.31
-23.75
-25.82
-26.33
-25.54
-24.16
-23.09
-23.08
-24.46
-26.96
-29.84
-32.21
-33.37
-33.16
-32.04
-31.00
-31.27
-33.87
-39.19
-46.55
-54.08
-58.93
-58.02
-49.00
-31.33
-6.72
21.11
47.48
68.26
81.11
85.96
84.73
80.30
75.42
72.01
70.96
72.47
76.50
83.07
92.20
103.54
116.09
128.02
137.05
140.89
137.76
126.74
107.78
81.80
50.69
17.42
-14.22
-40.45
-58.62
-68.33
-71.58
-71.87
-72.55
-75.22
-79.30
-82.76
-83.64
-81.30
-76.64
-71.34
-66.63
-62.57
-58.22
-52.51
-45.16
-37.01
-29.61
-24.41
-22.00
-21.91
-22.92
-23.69
-23.37
-21.85
-19.61
-17.36
-15.59
-14.30
-13.10
-11.38
-8.74
-5.23
-1.35
2.11
4.41
5.20
4.62
3.22
1.72
0.72
0.46
0.87
1.63
2.40
2.99
3.38
3.68
4.08
4.69
5.57
6.66
7.84
8.98
9.98
10.76
11.31
11.65
11.82
11.84
11.67
11.26
10.55
9.56
8.42
7.36
6.67
6.52
6.93
7.72
8.58
9.28
9.69
9.86
9.91
9.96
10.01
10.04
10.03
10.04
10.18
10.49
10.91
11.27
11.36
11.09
10.50
9.77
9.07
8.48
7.97
7.49
6.99
6.46
5.90
5.29
4.56
3.64
2.54
1.28
-0.04
-1.33
-2.54
-3.60
-4.51
-5.27
-5.91
-6.58
-7.48
-8.80
-10.60
-12.74
-14.91
-16.72
-17.90
-18.34
-18.16
-17.54
-16.62
-15.43
-13.88
-11.87
-9.37
-6.46
-3.24
0.11
3.48
6.72
9.66
12.16
14.14
15.57
16.54
17.17
17.58
17.81
17.82
17.52
16.81
15.60
13.85
11.59
8.94
6.12
3.38
0.95
-1.08
-2.73
-4.12
-5.37
-6.56
-7.74
-9.00
-10.48
-12.29
-14.49
-16.96
-19.41
-21.50
-22.92
-23.53
-23.42
-22.82
-22.06
-21.40
-20.95
-20.64
-20.30
-19.79
-19.07
-18.24
-17.48
-16.88
-16.45
-16.01
-15.34
-14.27
-12.75
-10.85
-8.71
-6.41
-3.99
-1.47
1.11
3.67
6.08
8.19
9.92
11.26
12.25
12.89
13.11
12.73
11.58
9.51
6.56
2.97
-0.88
-4.53
-7.52
-9.52
-10.29
-9.73
-7.89
-5.02
-1.59
1.80
4.49
5.93
5.81
4.14
1.18
-2.61
-6.74
-10.74
-14.23
-16.93
-18.67
-19.38
-19.09
-17.96
-16.24
-14.21
-12.15
-10.21
-8.47
-6.87
-5.34
-3.87
-2.51
-1.37
-0.54
-0.04
0.24
0.45
0.75
1.18
1.67
2.05
2.14
1.85
1.18
0.28
-0.68
-1.50
-2.07
-2.33
-2.31
-2.07
-1.74
-1.43
-1.28
-1.38
-1.77
-2.43
-3.23
-4.06
-4.77
-5.30
-5.63
-5.79
-5.81
-5.74
-5.64
-5.59
-5.72
-6.13
-6.86
-7.87
-8.99
-10.04
-10.88
-11.39
-11.52
-11.25
-10.58
-9.53
-8.13
-6.47
-4.69
-2.94
-1.33
0.07
1.27
2.31
3.21
3.96
4.54
4.97
5.30
5.64
6.12
6.80
7.64
8.49
9.20
9.64
9.80
9.76
9.60
9.38
9.07
8.62
8.00
7.28
6.61
6.15
6.00
6.13
6.38
6.59
6.60
6.37
5.97
5.51
5.14
4.99
5.12
5.60
6.44
7.64
9.15
10.92
12.87
14.90
16.90
18.77
20.35
21.54
22.18
22.23
21.72
20.81
19.80
18.97
18.52
18.48
18.69
18.93
18.97
18.75
18.29
17.70
17.05
16.33
15.47
14.46
13.36
12.33
11.50
10.96
10.66
10.50
10.36
10.17
9.92
9.57
9.10
8.49
7.73
6.85
5.96
5.13
4.34
3.46
2.28
0.69
-1.33
-3.59
-5.86
-7.91
-9.61
-10.96
-12.05
-12.93
-13.57
-13.88
-13.73
-13.02
-11.76
-10.06
-8.09
-6.08
-4.22
-2.67
-1.54
-0.87
-0.65
-0.84
-1.39
-2.23
-3.26
-4.38
-5.44
-6.34
-7.03
-7.53
-7.93
-8.31
-8.71
-9.10
-9.44
-9.74
-10.01
-10.32
-10.68
-11.06
-11.38
-11.55
-11.57
-11.53
-11.54
-11.72
-12.10
-12.63
-13.22
-13.80
-14.31
-14.78
-15.20
-15.58
-15.88
-16.05
-16.04
-15.81
-15.35
-14.64
-13.70
-12.53
-11.12
-9.46
-7.58
-5.54
-3.49
-1.59
0.04
1.32
2.28
3.02
3.65
4.25
4.83
5.33
5.73
5.99
6.18
6.37
6.61
6.87
7.05
7.05
6.80
6.31
5.67
4.98
4.31
3.70
3.11
2.48
1.77
0.94
0.01
-0.98
-2.00
-3.01
-3.98
-4.88
-5.71
-6.49
-7.28
-8.21
-9.35
-10.71
-12.11
-13.28
-13.88
-13.68
-12.66
-11.03
-9.15
-7.33
-5.81
-4.59
-3.59
-2.67
-1.72
-0.69
0.44
1.70
3.07
4.46
5.76
6.81
7.54
7.96
8.21
8.49
8.92
9.53
10.20
10.74
11.01
10.93
10.50
9.82
9.02
8.23
7.55
7.03
6.62
6.23
5.74
5.07
4.21
3.21
2.13
1.00
-0.19
-1.42
-2.67
-3.83
-4.76
-5.35
-5.58
-5.53
-5.42
-5.45
-5.81
-6.54
-7.49
-8.36
-8.82
-8.61
-7.66
-6.14
-4.35
-2.59
-1.10
0.08
1.01
1.83
2.63
3.48
4.39
5.37
6.40
7.43
8.40
9.21
9.80
10.14
10.29
10.34
10.38
10.47
10.59
10.70
10.71
10.62
10.44
10.23
10.07
9.97
9.94
9.88
9.74
9.48
9.13
8.79
8.58
8.57
8.73
8.95
9.07
8.97
8.57
7.90
7.03
6.03
4.98
3.92
2.87
1.90
1.05
0.39
-0.03
-0.22
-0.22
-0.08
0.14
0.46
0.88
1.39
1.93
2.44
2.86
3.19
3.43
3.55
3.43
2.80
1.32
-1.30
-5.12
-9.85
-14.89
-19.46
-22.86
-24.63
-24.70
-23.28
-20.76
-17.54
-13.96
-10.26
-6.69
-3.48
-0.85
1.10
2.42
3.29
3.90
4.32
4.40
3.82
2.21
-0.62
-4.52
-8.95
-13.09
-16.16
-17.68
-17.68
-16.63
-15.27
-14.19
-13.69
-13.67
-13.88
-14.07
-14.21
-14.46
-15.05
-16.12
-17.56
-19.06
-20.15
-20.39
-19.50
-17.49
-14.77
-12.05
-10.09
-9.40
-9.94
-11.01
-11.51
-10.40
-7.16
-2.12
3.63
8.71
11.99
13.06
12.33
10.98
10.71
13.54
21.36
35.37
55.34
79.08
102.64
121.38
131.56
131.76
123.28
109.34
93.43
77.72
62.38
46.11
27.44
5.89
-17.51
-40.53
-60.62
-75.70
-84.71
-87.68
-85.47
-79.37
-70.71
-60.75
-50.71
-41.98
-36.06
-34.21
-36.82
-42.87
-50.01
-55.30
-56.56
-53.40
-47.38
-41.22
-37.35
-36.77
-38.75
-41.14
-40.93
-34.86
-20.13
4.67
38.36
76.58
112.50
138.88
150.80
147.57
132.63
111.38
88.33
65.13
40.69
12.95
-18.74
-52.13
-82.36
-103.83
-112.56
-107.96
-93.18
-73.93
-56.20
-43.88
-37.22
-33.15
-27.00
-14.99
3.80
26.92
49.70
67.25
76.39
76.45
68.85
55.73
38.81
18.76
-4.65
-31.37
-59.95
-86.87
-107.16
-116.17
-111.71
-95.65
-73.50
-52.14
-36.30
-26.03
-16.42
-0.35
27.31
66.15
109.56
147.33
170.08
173.23
158.10
130.18
95.90
60.22
26.56
-1.88
-20.86
-25.78
-14.38
10.37
39.60
61.21
65.06
47.65
13.64
-26.91
-63.63
-90.47
-107.02
-116.39
-121.45
-122.11
-115.42
-98.13
-69.83
-34.43
0.79
27.94
41.63
40.46
26.74
4.89
-20.39
-45.20
-66.70
-82.94
-92.53
-94.64
-89.19
-77.11
-60.40
-41.94
-24.69
-11.04
-2.09
2.58
4.71
6.79
11.23
19.49
31.52
46.03
60.87
74.01
84.25
91.76
97.90
104.36
112.12
120.23
126.41
127.72
121.83
108.29
89.06
68.05
49.46
36.07
27.41
21.14
13.98
3.04
-13.25
-34.67
-59.27
-84.18
-106.29
-124.04
-135.93
-141.50
-142.64
-144.25
-152.97
-173.95
-207.87
-248.92
-287.46
-311.18
-310.54
-282.94
-233.89
-174.06
-113.99
-60.50
-7.21
45.96
96.21
140.64
178.48
210.74
235.72
250.94
250.74
231.95
192.90
136.17
67.55
-5.20
-73.57
-128.91
-162.98
-170.12
-148.43
-102.11
-38.53
33.74
106.99
175.43
235.09
282.73
314.38
326.89
318.61
291.94
252.26
205.36
154.56
100.30
41.41
-22.52
-87.23
-143.37
-178.60
-183.04
-154.31
-99.86
-34.46
23.72
58.64
62.28
36.65
-8.43
-60.92
-111.70
-157.16
-197.65
-228.20
-243.87
-243.61
-230.96
-209.90
-182.37
-148.99
-115.42
-82.15
-51.23
-26.33
-10.30
-3.30
-2.68
-5.74
-9.46
-11.25
-8.49
-0.16
13.41
30.95
50.66
70.43
87.99
101.68
111.05
117.72
123.86
131.83
143.20
158.43
176.75
196.06
213.29
224.83
227.84
220.53
203.69
179.70
151.88
123.56
97.51
75.66
58.86
47.31
35.69
21.85
6.44
-8.25
-20.67
-30.86
-39.46
-46.49
-51.00
-51.81
-47.43
-38.20
-26.53
-16.08
-9.94
-9.87
-15.80
-25.76
-36.42
-43.09
-42.18
-32.71
-17.08
-0.46
10.75
10.72
-3.56
-32.38
-71.51
-113.45
-149.41
-171.81
-176.33
-162.95
-135.49
-99.92
-62.40
-27.47
1.89
23.71
36.58
39.79
33.97
21.67
6.95
-5.80
-13.34
-14.77
-11.41
-5.66
0.43
5.68
9.58
11.85
12.20
10.52
7.08
2.58
-2.17
-6.26
-9.02
-10.40
-10.74
-10.39
-9.53
-8.36
-7.06
-5.96
-4.72
-2.65
0.41
3.89
6.81
8.00
6.26
0.90
-8.26
-19.72
-30.90
-39.74
-45.00
-45.78
-41.71
-33.57
-23.38
-14.40
-8.65
-5.99
-4.63
-1.30
8.15
26.54
53.08
86.25
115.94
130.64
127.97
112.69
88.73
58.00
22.19
-17.02
-56.83
-93.09
-119.56
-130.38
-123.79
-103.17
-75.34
-48.15
-28.04
-18.01
-17.47
-22.15
-26.39
-26.08
-19.76
-8.04
7.01
22.55
35.95
45.42
50.97
53.95
55.69
56.82
57.39
57.06
55.18
51.39
45.74
39.02
32.29
26.09
20.20
13.94
6.68
-1.73
-10.64
-18.98
-25.70
-30.58
-34.31
-37.86
-41.27
-43.04
-40.67
-32.05
-17.19
1.12
18.05
28.68
30.03
22.13
7.62
-9.68
-26.37
-40.36
-50.99
-58.56
-63.82
-67.67
-70.85
-73.75
-76.04
-76.66
-74.27
-67.96
-57.89
-45.31
-31.99
-19.30
-7.54
3.76
15.04
25.98
35.67
43.28
48.70
52.53
55.67
58.96
63.32
70.08
81.18
98.17
120.61
144.50
161.98
163.56
142.01
95.94
31.15
-40.72
-105.68
-151.45
-170.94
-164.08
-137.05
-99.81
-62.77
-34.05
-17.27
-11.08
-10.21
-8.31
-1.01
12.71
30.78
49.57
64.80
73.03
71.58
59.90
42.42
25.45
12.78
4.43
-0.53
-3.20
-3.92
-2.67
0.56
5.22
8.30
8.27
4.02
-3.59
-13.55
-24.80
-36.89
-49.46
-61.98
-74.10
-85.54
-96.78
-102.83
-102.39
-97.16
-91.09
-88.00
-89.80
-95.98
-103.62
-108.35
-104.38
-87.92
-58.42
-18.83
26.08
71.39
113.09
148.97
171.53
175.79
163.91
143.52
120.95
99.12
79.23
62.15
48.70
39.03
33.55
31.62
31.52
31.09
29.21
26.06
22.50
19.40
17.03
15.96
16.39
17.94
19.98
22.13
24.04
24.76
22.61
16.04
5.18
-8.01
-20.44
-29.58
-33.81
-33.28
-29.81
-25.92
-23.41
-22.55
-22.30
-21.93
-21.44
-21.52
-22.88
-25.57
-28.79
-31.19
-31.78
-30.73
-29.55
-30.18
-33.42
-38.04
-40.85
-38.29
-27.59
-8.76
15.22
39.63
59.95
73.45
79.60
79.27
73.56
63.14
48.39
30.29
10.98
-6.50
-19.40
-26.46
-28.41
-27.14
-24.55
-21.85
-19.05
-15.69
-11.58
-7.23
-3.56
-1.99
-3.45
-8.26
-16.04
-25.49
-34.65
-40.36
-39.53
-30.61
-14.62
4.76
22.41
33.69
36.32
31.04
20.91
9.72
0.50
-5.38
-8.03
-8.47
-7.91
-7.31
-6.94
-7.27
-8.40
-9.84
-10.72
-10.34
-8.85
-7.40
-7.53
-10.10
-14.52
-18.67
-19.82
-16.09
-7.35
4.82
17.84
29.52
38.81
45.68
50.44
53.05
52.83
48.89
40.87
29.22
15.30
0.88
-12.59
-24.35
-34.34
-42.75
-49.51
-54.04
-55.70
-53.83
-48.00
-38.07
-24.37
-7.66
10.79
29.14
45.25
56.48
60.61
56.91
46.52
32.00
16.41
2.41
-8.66
-14.70
-15.60
-13.65
-11.45
-9.96
-8.67
-6.92
-4.01
0.15
5.58
11.82
18.46
25.63
33.46
41.45
48.41
52.77
51.79
45.87
38.65
34.78
36.70
43.37
50.68
54.83
52.14
40.58
20.32
-7.57
-41.91
-81.77
-123.21
-160.85
-188.86
-202.50
-199.28
-179.62
-147.20
-107.87
-67.71
-31.29
-1.56
20.08
33.27
38.63
38.01
33.95
29.14
25.61
24.37
24.71
24.88
23.11
18.78
12.78
6.89
2.89
1.83
4.23
9.40
15.57
20.33
21.44
17.40
7.85
-6.20
-22.57
-37.57
-48.11
-52.85
-52.16
-47.13
-38.86
-28.29
-16.31
-4.24
7.72
18.77
27.43
32.53
34.30
34.27
34.33
35.88
39.32
46.48
58.34
74.23
92.22
110.17
126.39
139.78
150.07
147.77
130.42
104.00
77.63
55.65
36.68
17.72
-2.47
-21.03
-37.06
-47.78
-52.26
-52.46
-52.04
-53.90
-58.90
-65.73
-72.28
-77.10
-78.35
-76.14
-72.31
-68.70
-65.69
-61.81
-54.93
-43.94
-29.89
-14.48
-0.36
10.05
15.74
17.36
16.94
16.87
19.12
24.53
33.56
45.79
59.95
74.01
85.06
90.16
87.36
76.65
59.81
39.60
18.22
-4.60
-26.75
-45.50
-58.91
-65.82
-64.74
-55.04
-38.62
-21.09
-6.97
0.72
0.84
-5.48
-15.69
-25.74
-31.76
-31.30
-24.57
-14.34
-4.63
-0.29
-5.75
-23.63
-51.81
-83.85
-111.64
-128.09
-129.08
-113.11
-82.25
-38.28
6.93
38.26
47.70
37.30
17.60
-5.74
-28.61
-47.92
-61.74
-68.80
-67.64
-57.57
-39.94
-18.57
1.03
14.58
19.85
17.26
9.37
0.98
-2.96
0.25
9.93
22.71
35.25
45.00
50.65
51.74
49.17
44.73
40.28
37.07
35.43
35.39
36.43
37.59
37.80
36.61
34.30
31.48
28.62
25.94
23.75
22.42
22.25
23.44
25.90
29.31
33.01
36.15
38.04
38.39
37.32
35.14
32.27
29.08
26.03
23.71
22.66
23.29
25.46
28.48
31.05
31.62
28.66
21.12
8.66
-8.06
-27.24
-46.08
-61.35
-70.28
-71.56
-65.88
-55.72
-44.43
-34.95
-28.77
-25.78
-24.73
-24.21
-23.26
-21.66
-19.62
-17.39
-14.93
-12.03
-8.49
-4.41
-0.24
3.28
5.45
5.88
4.69
2.50
0.21
-1.38
-1.93
-1.63
-1.10
-0.95
-1.45
-2.48
-3.63
-4.57
-5.14
-5.17
-4.28
-1.80
2.96
10.08
18.62
26.66
31.90
32.64
28.45
20.34
10.21
0.04
-8.75
-15.57
-20.39
-23.36
-24.56
-24.01
-21.86
-18.48
-14.43
-10.24
-6.19
-2.29
1.62
5.58
9.39
12.59
14.76
15.69
15.56
14.84
14.06
13.56
13.41
13.44
13.32
12.75
11.52
9.73
7.74
6.23
5.91
7.14
9.62
12.35
14.02
13.63
11.05
7.22
3.86
2.77
5.05
10.68
18.32
25.63
29.67
27.78
18.47
2.21
-18.30
-38.69
-54.30
-61.84
-60.46
-52.03
-40.11
-28.38
-19.29
-13.46
-10.02
-7.60
-5.26
-2.85
-0.85
0.30
0.58
0.59
1.16
2.83
5.45
8.17
9.93
10.04
8.64
6.66
5.36
5.64
7.56
10.39
12.96
14.33
14.19
12.98
11.56
10.81
11.15
12.46
14.18
15.61
16.24
15.87
14.68
13.06
11.45
10.26
9.69
9.82
10.55
11.67
12.95
14.12
14.99
15.45
15.54
15.42
15.35
15.54
16.11
16.92
17.66
17.88
17.22
15.58
13.15
10.41
7.76
5.42
3.34
1.28
-0.93
-3.16
-5.03
-6.08
-6.03
-4.95
-3.21
-1.29
0.43
1.79
2.68
2.84
1.78
-1.04
-5.90
-12.42
-19.49
-25.60
-29.40
-30.22
-28.35
-24.85
-21.05
-18.09
-16.65
-16.94
-18.82
-21.95
-25.83
-29.75
-32.78
-33.92
-32.39
-28.02
-21.41
-13.80
-6.71
-1.46
1.32
1.86
1.08
0.22
0.33
1.86
4.69
8.33
12.34
16.54
21.03
25.93
31.02
35.62
38.73
39.41
37.22
32.44
25.99
19.11
12.96
8.41
5.92
5.52
6.84
8.99
10.82
11.19
9.45
5.83
1.37
-2.50
-4.68
-4.94
-3.94
-2.86
-2.80
-4.34
-7.57
-12.29
-18.30
-25.47
-33.54
-41.98
-49.96
-56.58
-61.21
-63.64
-64.11
-63.19
-61.47
-59.43
-57.33
-55.19
-52.82
-49.76
-45.46
-39.36
-31.24
-21.40
-10.77
-0.70
7.42
12.68
15.00
15.21
14.80
15.33
17.94
22.96
29.80
37.27
43.98
48.75
51.01
50.84
48.84
45.88
42.79
40.05
37.85
36.14
34.86
34.07
33.91
34.46
35.59
36.98
38.17
38.75
38.49
37.40
35.79
34.21
33.34
33.80
35.88
39.27
43.04
45.77
46.10
43.10
36.62
27.29
16.21
4.64
-6.24
-15.46
-22.41
-26.96
-29.56
-31.21
-33.07
-35.95
-39.86
-43.89
-46.67
-47.09
-44.98
-41.26
-37.47
-34.92
-34.04
-34.32
-34.64
-34.05
-32.25
-29.63
-26.96
-24.86
-23.52
-22.69
-22.00
-21.01
-19.24
-16.05
-10.65
-2.28
9.46
24.30
41.13
58.24
73.78
86.25
94.69
98.68
98.18
93.53
85.51
75.05
63.25
51.41
40.88
32.62
26.78
22.63
18.99
15.00
10.19
4.88
0.58
-0.35
4.21
14.95
30.46
47.62
62.71
71.75
71.53
61.02
41.78
17.41
-7.65
-29.04
-42.99
-46.60
-39.64
-24.72
-6.38
10.12
19.79
18.78
5.46
-22.32
-59.30
-95.03
-120.81
-134.08
-136.21
-128.97
-113.48
-91.26
-64.98
-39.31
-20.19
-11.83
-13.55
-20.28
-25.19
-22.71
-10.61
10.33
35.91
60.06
77.09
83.65
79.18
65.19
44.01
14.40
-17.59
-44.10
-60.54
-67.48
-68.09
-65.02
-58.82
-49.14
-38.41
-27.59
-19.56
-17.05
-20.42
-26.81
-31.50
-29.58
-18.84
0.79
26.20
51.92
72.93
86.32
91.57
89.60
82.66
72.40
59.01
41.78
19.13
-10.41
-47.31
-90.02
-134.14
-171.22
-192.06
-190.54
-165.75
-122.19
-67.79
-11.09
44.23
89.05
118.18
133.89
140.96
141.41
134.71
120.78
103.54
85.53
69.41
57.90
51.49
47.83
43.40
35.95
26.68
18.07
12.43
10.85
13.39
18.26
22.10
21.64
15.36
4.05
-9.86
-23.40
-33.86
-39.28
-39.45
-36.24
-32.48
-30.33
-30.19
-30.68
-29.62
-25.35
-17.69
-8.50
-0.75
3.15
2.72
-0.66
-4.72
-7.90
-10.41
-13.95
-20.56
-30.91
-43.38
-54.42
-60.52
-59.22
-50.44
-36.91
-23.25
-14.17
-12.51
-18.36
-29.27
-42.41
-54.08
-61.35
-63.53
-62.32
-60.57
-60.50
-62.70
-66.22
-71.01
-75.51
-77.86
-77.50
-75.75
-75.31
-79.01
-89.05
-106.53
-132.63
-163.67
-192.17
-210.21
-212.57
-198.37
-170.42
-133.64
-80.92
-18.84
39.60
85.30
117.18
138.67
151.28
153.82
145.85
129.60
104.85
77.22
54.89
44.65
49.20
66.64
92.17
119.96
144.61
160.68
166.70
163.89
154.17
138.90
118.98
96.01
72.65
52.01
35.64
24.85
19.68
18.49
18.54
17.24
13.46
7.68
1.31
-4.73
-9.40
-12.18
-13.18
-13.02
-12.42
-11.76
-11.06
-10.20
-9.23
-7.91
-5.98
-3.22
0.32
4.38
8.57
12.43
15.52
17.35
17.59
16.05
12.98
9.07
5.33
2.69
1.59
1.65
1.82
0.85
-2.04
-6.68
-11.93
-16.05
-17.29
-14.41
-7.03
4.33
18.27
32.61
44.64
51.62
51.47
43.54
29.08
10.99
-7.00
-21.69
-31.39
-36.26
-37.82
-37.91
-37.85
-38.12
-38.65
-39.40
-40.61
-42.63
-45.38
-47.99
-48.81
-46.02
-38.37
-25.76
-9.30
9.12
27.46
44.03
57.79
68.21
75.11
78.46
78.33
74.91
68.62
60.11
50.26
40.09
30.72
23.25
18.60
17.21
18.74
21.90
24.76
25.42
22.80
17.16
9.95
3.12
-1.82
-4.51
-5.77
-7.03
-9.53
-13.73
-19.28
-25.42
-31.54
-37.46
-43.29
-49.03
-54.27
-58.14
-59.72
-58.48
-54.72
-49.53
-44.43
-40.89
-39.89
-41.79
-46.21
-52.12
-57.96
-62.05
-63.09
-60.69
-55.68
-49.79
-44.98
-42.65
-43.13
-45.69
-49.08
-52.16
-54.29
-55.37
-55.58
-55.15
-54.27
-53.19
-52.28
-51.92
-52.23
-52.77
-52.49
-50.00
-44.23
-35.04
-23.49
-11.60
-1.53
5.26
8.58
9.36
9.07
8.82
8.98
9.23
9.07
8.41
7.74
7.91
9.51
12.56
16.39
20.04
22.73
24.19
24.73
24.98
25.57
26.84
28.76
31.01
33.18
34.95
36.20
37.04
37.75
38.59
39.64
40.78
41.68
42.01
41.59
40.58
39.39
38.57
38.47
39.18
40.42
41.76
42.84
43.52
43.93
44.31
44.88
45.67
46.58
47.42
48.07
48.38
48.17
47.08
44.62
40.37
34.16
26.20
17.00
7.16
-2.85
-12.77
-22.38
-31.33
-39.04
-44.80
-48.01
-48.52
-46.78
-43.70
-40.38
-37.70
-36.15
-35.70
-35.97
-36.44
-36.64
-36.27
-35.16
-33.26
-30.54
-26.90
-22.30
-16.75
-10.48
-3.90
2.47
8.14
12.80
16.42
19.19
21.44
23.42
25.26
26.90
28.23
29.17
29.78
30.20
30.61
31.11
31.76
32.52
33.38
34.34
35.43
36.61
37.72
38.52
38.75
38.30
37.34
36.27
35.54
35.38
35.64
35.81
35.24
33.35
29.86
24.76
18.34
11.08
3.66
-3.05
-8.17
-11.05
-11.59
-10.36
-8.46
-7.22
-7.62
-9.99
-13.96
-18.61
-22.91
-26.05
-27.69
-28.00
-27.49
-26.78
-26.36
-26.38
-26.69
-26.98
-26.99
-26.68
-26.19
-25.73
-25.33
-24.87
-24.06
-22.72
-20.90
-18.90
-17.11
-15.78
-14.86
-14.02
-12.83
-10.97
-8.40
-5.32
-2.15
0.68
2.80
3.97
4.15
3.51
2.47
1.60
1.50
2.59
5.01
8.58
12.81
17.10
20.82
23.49
24.87
24.97
24.07
22.55
20.77
18.91
16.97
14.77
12.17
9.14
5.86
2.70
0.05
-1.81
-2.83
-3.15
-3.03
-2.72
-2.34
-1.91
-1.41
-0.88
-0.48
-0.35
-0.56
-0.90
-1.01
-0.48
0.88
2.99
5.47
7.92
10.00
11.56
12.60
13.12
13.10
12.52
11.43
10.03
8.67
7.63
7.01
6.63
6.14
5.25
3.95
2.54
1.56
1.52
2.65
4.80
7.50
10.16
12.28
13.55
13.85
13.10
11.22
8.13
3.84
-1.37
-6.89
-11.87
-15.48
-17.12
-16.71
-14.71
-11.94
-9.27
-7.41
-6.67
-6.99
-7.89
-8.55
-7.96
-5.08
0.74
9.37
19.82
30.34
38.83
43.51
43.27
37.92
28.05
14.81
-0.42
-16.08
-30.56
-42.34
-50.20
-53.50
-52.44
-48.01
-41.82
-35.54
-30.45
-27.10
-25.24
-24.03
-22.44
-19.67
-15.42
-9.86
-3.56
2.77
8.44
12.98
16.21
18.27
19.58
20.68
22.07
24.05
26.74
30.14
34.22
38.93
43.99
48.79
52.31
53.40
51.18
45.46
36.91
26.90
17.12
9.02
3.47
0.58
-0.24
0.01
0.15
-0.77
-3.26
-7.21
-11.95
-16.47
-19.97
-22.18
-23.49
-24.68
-26.39
-28.54
-30.31
-30.47
-28.00
-22.70
-15.30
-7.23
-0.08
4.78
6.32
3.93
-2.48
-11.91
-21.87
-28.61
-28.29
-18.82
-1.30
19.94
38.90
50.32
51.62
43.53
29.18
12.32
-4.25
-19.24
-32.41
-43.56
-52.18
-57.57
-59.38
-57.97
-54.46
-50.60
-48.09
-47.99
-49.88
-52.44
-53.93
-53.09
-49.44
-43.67
-37.59
-33.47
-33.03
-35.95
-40.64
-44.95
-47.15
-46.24
-42.58
-38.05
-35.56
-37.83
-44.99
-55.30
-65.55
-72.18
-71.74
-62.08
-43.44
-18.64
7.77
32.01
49.95
57.70
52.32
33.81
7.87
-15.28
-25.36
-25.72
-20.82
-15.11
-9.12
-4.32
-0.58
3.64
9.75
17.74
26.03
33.92
40.64
45.93
49.92
53.63
58.15
63.56
68.78
72.06
73.20
72.69
71.61
70.93
71.68
74.23
77.79
80.59
80.72
77.78
72.43
66.10
60.17
55.73
53.06
51.49
49.84
47.09
43.27
39.02
35.18
32.25
30.30
28.88
27.17
24.32
19.81
13.87
7.31
1.20
-3.62
-6.89
-9.07
-11.06
-13.65
-17.05
-20.71
-23.66
-25.02
-24.58
-22.91
-21.00
-19.69
-19.26
-19.53
-20.06
-20.70
-21.73
-23.83
-27.46
-32.35
-37.32
-40.70
-41.15
-38.41
-33.44
-27.96
-23.67
-21.50
-21.30
-22.11
-22.93
-23.32
-23.50
-23.97
-25.19
-27.48
-31.05
-35.93
-42.04
-49.21
-57.42
-66.54
-75.80
-83.72
-88.78
-90.14
-87.97
-83.31
-77.59
-71.94
-66.39
-59.53
-49.75
-37.39
-25.46
-18.15
-18.23
-25.15
-35.34
-43.57
-44.71
-35.62
-16.51
9.60
38.88
67.78
92.93
110.42
114.72
101.82
76.15
49.50
32.42
28.21
32.02
37.97
41.48
40.32
35.14
28.15
20.73
13.07
5.03
-2.90
-9.36
-12.84
-12.04
-5.92
5.79
22.05
38.88
51.70
58.00
58.09
53.77
47.25
40.54
35.11
31.16
27.61
23.06
16.60
8.15
-1.55
-11.11
-19.00
-23.85
-25.31
-24.26
-22.08
-19.84
-18.03
-16.55
-15.16
-13.67
-12.19
-11.13
-10.99
-11.91
-13.29
-14.28
-14.16
-12.67
-10.07
-6.87
-3.64
-0.78
1.56
3.45
5.00
6.27
7.25
7.97
8.64
9.59
11.04
12.86
14.62
15.71
15.60
14.02
11.13
7.72
4.95
3.78
4.46
6.60
9.40
12.00
13.66
13.87
12.70
10.69
8.15
4.86
0.37
-5.50
-12.49
-19.98
-27.20
-32.97
-35.67
-33.98
-27.25
-15.41
1.01
20.61
40.83
55.94
59.37
48.41
26.41
0.11
-24.44
-43.68
-56.32
-62.50
-63.02
-59.50
-51.89
-40.72
-27.84
-15.71
-6.35
-0.57
2.02
2.72
3.51
5.56
9.45
14.55
19.41
22.68
23.69
22.63
20.28
17.75
16.12
15.82
16.56
17.85
19.53
21.77
24.76
28.23
31.47
33.58
33.84
32.00
28.52
24.38
20.58
17.70
15.69
14.07
12.34
10.13
7.37
4.18
0.87
-2.22
-4.83
-6.83
-8.30
-9.38
-10.30
-11.19
-12.14
-13.15
-14.24
-15.46
-16.86
-18.38
-19.77
-20.70
-20.84
-20.09
-18.60
-16.72
-14.84
-13.19
-11.76
-10.38
-8.92
-7.33
-5.75
-4.39
-3.43
-2.95
-2.91
-3.21
-3.74
-4.45
-5.31
-6.32
-7.40
-8.41
-9.20
-9.58
-9.44
-8.69
-7.35
-5.46
-3.14
-0.56
2.06
4.46
6.45
7.84
8.58
8.75
8.54
8.22
8.13
8.59
9.78
11.68
14.03
16.40
18.28
19.26
19.16
18.08
16.37
14.49
12.94
12.02
11.82
12.18
12.73
13.05
12.79
11.78
10.05
7.79
5.21
2.51
-0.25
-3.02
-5.73
-8.28
-10.50
-12.22
-13.36
-13.90
-13.93
-13.64
-13.28
-13.18
-13.57
-14.53
-15.86
-17.08
-17.66
-17.23
-15.77
-13.73
-11.76
-10.52
-10.37
-11.27
-12.89
-14.70
-16.23
-17.10
-17.07
-16.11
-14.31
-11.93
-9.28
-6.73
-4.58
-3.06
-2.32
-2.34
-3.02
-4.14
-5.44
-6.64
-7.51
-7.89
-7.68
-6.84
-5.43
-3.63
-1.81
-0.53
-0.32
-1.49
-3.93
-7.00
-9.71
-11.07
-10.51
-8.06
-4.37
-0.42
2.92
5.26
6.77
7.81
8.63
9.15
9.08
8.10
6.16
3.55
0.88
-1.17
-2.19
-2.15
-1.29
0.10
1.79
3.61
5.38
7.03
8.58
9.92
10.90
11.42
11.83
12.52
13.73
15.18
16.82
18.65
20.58
22.42
23.92
25.48
27.35
29.37
30.48
30.49
29.71
28.72
27.89
27.36
27.93
29.97
32.96
34.98
35.58
35.22
34.79
34.96
36.04
39.20
45.10
53.27
61.42
69.04
76.44
84.08
91.52
89.77
73.14
42.79
12.40
-14.95
-38.55
-58.70
-73.42
-80.84
-79.96
-69.79
-51.02
-26.67
-2.83
15.56
25.05
24.56
15.02
-1.17
-20.15
-38.60
-54.72
-68.87
-80.44
-88.19
-90.34
-86.15
-76.97
-65.64
-55.69
-50.16
-50.69
-55.63
-61.13
-62.21
-55.10
-38.79
-14.99
12.87
40.58
63.85
79.53
82.39
69.01
42.25
10.94
-16.06
-34.35
-44.63
-50.43
-55.35
-61.06
-66.05
-66.64
-59.40
-44.49
-23.00
1.64
24.81
42.18
51.32
52.77
49.32
44.12
39.12
34.92
30.92
26.38
20.23
12.93
5.86
0.54
-2.44
-3.75
-4.59
-6.10
-8.58
-11.43
-13.38
-13.25
-10.65
-6.37
-2.00
1.12
2.46
2.64
2.88
4.39
7.52
11.62
15.30
17.16
16.49
13.56
9.51
5.78
3.70
3.97
6.54
10.78
15.65
20.09
23.19
24.42
23.64
21.13
17.37
12.96
8.49
4.45
1.20
-1.07
-2.35
-2.70
-2.35
-1.70
-1.33
-1.83
-3.63
-6.80
-10.98
-15.49
-19.60
-22.73
-24.65
-25.40
-25.22
-24.36
-23.02
-21.31
-19.33
-17.04
-14.38
-11.23
-7.58
-3.49
0.80
4.86
8.04
9.65
9.21
6.84
3.45
0.61
0.04
2.78
8.69
16.31
23.49
28.20
29.35
27.06
22.40
16.81
11.53
7.37
4.70
3.60
4.01
5.65
8.05
10.59
12.66
13.96
14.66
15.36
16.77
19.29
22.64
25.94
27.90
27.36
23.75
17.30
9.02
0.38
-7.08
-12.25
-14.79
-15.27
-14.90
-15.05
-16.68
-19.95
-24.30
-28.68
-32.17
-34.21
-34.75
-34.05
-32.42
-30.14
-27.44
-24.59
-21.95
-19.88
-18.60
-18.13
-18.22
-18.51
-18.55
-17.96
-16.50
-14.14
-11.04
-7.45
-3.70
-0.17
2.78
4.86
5.91
5.96
5.23
4.04
2.85
1.97
1.45
1.11
0.78
0.34
-0.05
-0.17
0.19
1.19
2.64
3.86
4.00
2.70
0.28
-2.27
-3.90
-4.04
-2.67
-0.66
0.27
-1.48
-6.30
-13.10
-19.67
-23.96
-24.81
-21.90
-16.23
-10.19
-6.63
-7.49
-13.15
-22.31
-32.66
-41.14
-43.56
-36.31
-18.27
8.46
39.38
68.72
91.41
104.31
102.70
86.85
64.11
43.98
30.97
24.45
19.69
14.28
8.22
2.88
-0.20
-0.05
2.58
5.68
7.68
7.98
7.15
5.94
4.85
4.50
4.99
5.47
4.60
1.75
-2.73
-7.51
-11.29
-13.28
-13.09
-11.08
-8.52
-7.02
-7.56
-10.14
-13.69
-16.78
-18.35
-17.91
-15.73
-12.80
-10.32
-8.98
-8.69
-8.67
-8.05
-6.58
-4.69
-3.19
-2.68
-3.26
-4.43
-5.35
-5.21
-3.68
-1.40
0.12
-0.68
-4.69
-11.89
-21.30
-31.27
-39.57
-43.57
-41.25
-32.00
-16.89
1.23
18.12
29.24
30.42
19.77
1.46
-16.19
-26.43
-27.52
-21.84
-13.32
-5.71
0.41
5.44
10.04
14.16
16.99
18.00
17.50
16.23
15.56
16.63
19.65
23.98
28.00
29.74
27.85
22.28
14.37
6.34
0.35
-2.29
-1.30
2.52
7.72
12.94
17.30
20.57
22.88
24.30
24.54
23.20
20.05
15.35
9.93
4.94
1.51
0.41
1.75
4.81
8.21
10.25
9.71
6.69
1.29
-6.23
-15.39
-25.18
-34.14
-40.92
-44.66
-45.27
-43.32
-39.95
-36.13
-32.52
-29.38
-26.78
-24.72
-23.13
-21.89
-20.77
-19.59
-18.08
-16.10
-13.70
-11.16
-8.88
-7.18
-6.14
-5.62
-5.46
-5.46
-5.49
-5.50
-5.51
-5.60
-5.78
-5.93
-5.88
-5.44
-4.43
-2.71
-0.25
2.84
6.29
9.80
13.13
16.10
18.66
20.80
22.68
24.48
26.38
28.37
30.31
31.92
32.89
32.98
32.21
31.05
30.19
30.15
31.02
32.55
34.39
36.20
37.65
38.34
37.97
36.26
32.64
26.53
17.85
7.42
-3.34
-12.98
-20.55
-25.43
-27.55
-27.79
-27.75
-28.84
-31.60
-35.73
-40.56
-45.22
-48.08
-46.91
-39.86
-26.29
-6.86
16.42
40.19
60.32
69.52
62.39
40.71
13.21
-11.37
-29.04
-40.40
-47.84
-53.18
-56.50
-56.57
-50.61
-37.43
-18.83
1.37
19.05
31.14
36.46
35.90
32.38
27.65
23.60
20.65
18.14
15.16
11.24
6.69
2.35
-0.61
-1.36
0.21
3.16
6.26
8.71
10.40
11.67
12.83
13.96
14.76
14.95
14.39
13.27
12.21
11.85
12.53
13.98
15.48
16.06
15.21
12.89
9.52
5.78
2.65
1.13
2.23
6.27
11.65
15.62
15.92
12.19
5.39
-2.92
-11.16
-18.52
-24.14
-28.18
-31.09
-33.18
-34.32
-34.09
-32.03
-28.02
-22.31
-15.40
-7.90
-0.15
7.77
15.63
22.82
28.55
32.20
33.66
33.28
31.51
28.71
24.99
20.18
14.11
6.91
-0.81
-8.22
-14.62
-19.77
-23.84
-27.25
-30.39
-33.48
-36.45
-38.98
-40.70
-41.40
-41.11
-40.07
-38.67
-37.32
-36.53
-36.85
-38.78
-42.64
-48.20
-54.61
-60.44
-64.11
-64.39
-60.83
-53.91
-44.89
-35.39
-26.79
-19.80
-14.34
-9.73
-5.03
0.54
7.31
15.07
23.19
30.90
37.68
43.21
47.28
49.68
50.26
49.02
46.29
42.78
39.36
36.93
35.72
34.97
33.44
30.23
25.29
19.67
14.82
12.02
12.10
14.50
17.27
18.15
16.01
11.24
5.71
1.29
-0.71
0.54
4.40
8.77
11.17
10.02
4.75
-4.02
-15.01
-25.48
-30.38
-24.87
-7.29
19.54
49.00
72.34
82.16
74.44
46.21
3.49
-40.06
-72.28
-89.84
-95.85
-97.29
-94.51
-85.39
-68.21
-42.80
-11.43
21.62
50.48
71.27
82.59
84.96
78.51
63.38
41.38
16.61
-5.84
-21.56
-27.90
-25.51
-17.70
-9.63
-5.45
-5.92
-8.07
-7.50
-1.13
12.19
30.82
51.48
69.75
81.54
80.29
62.47
32.04
-1.01
-26.87
-41.96
-48.23
-50.65
-54.04
-60.95
-70.16
-77.93
-81.47
-77.28
-64.22
-43.20
-16.92
10.71
35.56
55.15
68.79
72.48
66.50
54.34
40.44
27.64
16.10
4.40
-7.94
-19.55
-28.01
-31.08
-28.68
-23.17
-18.18
-17.84
-24.87
-38.64
-55.47
-70.58
-79.61
-80.03
-69.23
-46.09
-12.62
25.43
60.13
83.37
89.26
76.37
48.76
11.61
-22.01
-39.54
-38.54
-26.57
-13.66
-2.87
6.99
18.25
32.26
46.84
58.26
62.66
58.60
47.96
34.76
22.74
14.26
10.00
9.26
9.92
9.46
6.70
2.45
-1.30
-2.94
-1.68
2.25
7.92
13.58
17.38
18.50
17.57
16.08
15.23
15.54
16.84
18.62
20.25
21.36
22.17
23.38
25.67
29.16
33.56
38.44
43.51
48.55
53.09
56.38
57.39
55.20
49.32
40.15
28.91
17.08
5.92
-4.05
-12.90
-21.03
-28.64
-35.64
-41.72
-46.71
-50.74
-54.29
-57.82
-61.58
-65.35
-68.51
-70.33
-70.26
-68.27
-64.79
-60.67
-56.80
-53.79
-51.68
-49.95
-47.53
-43.25
-36.26
-26.32
-13.95
-0.29
13.11
24.53
32.55
36.58
37.39
37.09
38.36
43.16
51.55
61.35
68.98
71.11
66.18
54.90
39.62
22.99
6.78
-8.29
-22.03
-33.91
-42.79
-47.34
-46.94
-42.29
-35.26
-28.26
-23.26
-21.12
-21.49
-23.15
-24.77
-25.50
-25.20
-24.40
-23.79
-23.83
-24.44
-25.12
-25.25
-24.45
-22.83
-20.88
-19.22
-18.26
-18.07
-18.36
-18.65
-18.49
-17.73
-16.52
-15.25
-14.22
-13.44
-12.71
-11.64
-9.94
-7.48
-4.36
-0.99
2.19
4.88
7.02
8.60
9.72
10.51
11.19
11.90
12.46
12.45
11.59
9.92
7.68
5.10
2.19
-1.24
-5.80
-12.47
-22.01
-34.18
-47.58
-60.12
-69.46
-73.37
-69.80
-57.55
-37.26
-11.53
15.69
40.03
57.71
66.66
65.92
57.02
44.83
34.45
27.62
22.72
18.39
14.35
11.59
11.10
13.55
18.74
25.42
32.04
37.80
43.01
48.37
54.37
60.69
66.41
70.22
70.77
67.31
60.28
51.15
41.66
33.14
26.00
20.29
16.03
13.23
11.79
11.38
11.50
11.53
11.03
9.37
6.44
2.66
-1.42
-5.50
-9.50
-13.24
-16.39
-18.65
-20.99
-24.41
-29.02
-33.56
-36.28
-36.00
-32.86
-28.34
-24.61
-24.74
-30.49
-41.39
-55.25
-70.01
-84.82
-99.73
-114.63
-121.16
-113.12
-90.96
-61.94
-33.94
-11.12
5.97
18.77
29.07
37.98
44.50
47.51
47.01
45.09
43.87
44.07
45.08
45.77
45.19
42.14
36.22
28.14
19.26
10.36
1.64
-7.08
-15.64
-23.27
-29.68
-34.88
-38.90
-41.55
-39.55
-31.89
-20.31
-7.99
2.38
9.24
12.41
12.83
12.11
11.70
11.98
12.60
12.92
12.81
12.29
11.51
10.56
9.56
8.56
7.35
5.83
4.09
2.41
1.07
0.54
0.95
2.29
4.54
7.69
11.75
16.57
21.80
26.78
30.66
32.38
31.36
26.82
19.75
12.72
8.01
6.00
5.41
4.54
2.36
-0.81
-3.45
-3.89
-1.37
3.32
8.34
11.80
12.49
9.82
4.05
-3.68
-11.76
-18.57
-23.00
-24.32
-22.25
-17.19
-11.09
-6.71
-6.58
-11.95
-22.52
-36.44
-50.33
-60.14
-59.51
-45.28
-20.64
6.80
30.25
46.28
54.20
54.79
49.05
37.94
22.17
3.11
-16.60
-33.50
-44.88
-50.40
-50.53
-46.55
-40.07
-32.83
-26.17
-20.50
-15.48
-10.78
-6.29
-2.00
1.93
5.31
7.75
9.12
9.08
8.16
7.09
6.49
6.81
8.11
10.13
12.25
13.78
14.20
13.39
11.41
8.46
4.92
1.20
-2.46
-5.95
-9.42
-13.02
-16.79
-20.69
-24.51
-28.05
-31.19
-34.00
-36.74
-39.78
-43.42
-47.67
-52.27
-56.60
-59.53
-59.40
-54.32
-42.82
-24.74
-1.72
22.88
44.98
61.16
69.89
71.86
69.35
65.04
60.80
57.23
53.94
50.27
45.96
41.44
37.56
35.12
34.49
35.52
37.62
40.09
42.34
44.13
45.43
46.26
46.44
45.58
43.18
38.89
32.86
25.83
18.95
13.30
9.50
7.28
5.69
3.53
0.01
-4.87
-10.31
-15.13
-18.44
-20.07
-20.58
-20.90
-21.83
-23.58
-25.81
-27.77
-28.72
-28.24
-26.32
-23.38
-20.14
-17.47
-16.13
-16.50
-18.44
-21.30
-24.20
-26.37
-27.49
-27.67
-27.32
-26.90
-26.64
-26.55
-26.47
-26.26
-25.92
-25.53
-25.18
-24.91
-24.67
-24.32
-23.71
-22.69
-21.13
-18.93
-16.03
-12.48
-8.38
-3.98
0.38
4.31
7.48
9.72
11.20
12.42
14.20
17.29
22.00
27.89
33.76
38.11
39.79
38.51
34.99
30.59
26.66
23.96
22.54
21.91
21.48
20.82
19.81
18.41
16.53
13.95
10.53
6.39
1.99
-1.97
-4.85
-6.38
-6.76
-6.56
-6.43
-6.82
-7.84
-9.36
-11.17
-13.11
-15.14
-17.22
-19.16
-20.61
-21.23
-20.87
-19.59
-17.68
-15.47
-13.14
-10.77
-8.42
-6.16
-4.18
-2.63
-1.58
-0.91
-0.44
-0.05
0.23
0.20
-0.36
-1.53
-3.16
-4.77
-5.79
-5.57
-3.67
-0.00
5.06
10.66
15.61
18.73
19.30
17.43
14.19
11.26
10.35
12.43
17.39
24.11
30.96
36.50
39.83
40.74
39.43
36.22
31.46
25.61
19.40
13.76
9.58
7.25
6.45
6.24
5.48
3.39
-0.19
-4.78
-9.61
-13.92
-17.20
-19.14
-19.65
-18.73
-16.51
-13.34
-9.68
-6.02
-2.71
0.15
2.74
5.34
8.16
11.28
14.56
17.71
20.31
21.93
22.19
20.87
18.02
14.06
9.71
5.73
2.65
0.54
-1.03
-2.86
-5.67
-9.84
-15.21
-21.17
-26.93
-31.86
-35.65
-38.26
-39.82
-40.48
-40.39
-39.76
-38.93
-38.40
-38.64
-39.97
-42.34
-45.33
-48.24
-50.29
-50.87
-49.76
-47.25
-44.09
-41.22
-39.28
-38.17
-36.86
-33.62
-26.80
-15.47
-0.02
18.03
36.47
53.11
66.24
74.93
79.02
78.98
75.86
71.07
66.07
61.94
59.07
57.04
54.94
51.80
47.04
40.63
33.05
25.08
17.61
11.44
7.11
4.74
3.97
4.05
4.21
3.89
2.95
1.58
0.07
-1.44
-3.03
-4.91
-7.19
-9.76
-12.35
-14.63
-16.45
-17.88
-19.11
-20.31
-21.52
-22.61
-23.41
-23.78
-23.67
-23.14
-22.30
-21.28
-20.19
-19.14
-18.14
-17.12
-15.92
-14.30
-12.08
-9.18
-5.72
-2.00
1.61
4.75
7.19
8.92
10.09
11.00
12.04
13.60
16.11
19.80
24.67
30.25
35.65
39.77
41.60
40.60
36.91
31.26
24.77
18.55
13.46
9.90
7.89
7.15
7.32
7.99
8.74
9.15
8.82
7.40
4.76
1.05
-3.27
-7.53
-11.04
-13.38
-14.51
-14.80
-14.79
-14.99
-15.65
-16.74
-18.02
-19.22
-20.11
-20.59
-20.61
-20.18
-19.27
-17.86
-15.97
-13.67
-11.13
-8.62
-6.44
-4.91
-4.25
-4.60
-5.94
-8.10
-10.74
-13.47
-15.83
-17.37
-17.76
-16.80
-14.60
-11.59
-8.52
-6.27
-5.50
-6.37
-8.43
-10.64
-11.85
-11.10
-7.97
-2.74
3.78
10.42
16.02
19.66
20.85
19.71
16.98
13.85
11.57
11.05
12.57
15.78
19.89
23.96
27.10
28.67
28.31
26.01
22.11
17.23
12.19
7.70
4.09
1.26
-1.19
-3.55
-5.77
-7.44
-7.96
-6.65
-3.27
1.84
7.72
13.22
17.45
20.04
21.21
21.57
22.30
24.37
28.01
32.60
36.93
40.04
41.50
41.53
40.84
40.97
43.42
49.06
57.59
67.37
75.89
79.87
76.17
62.95
41.46
15.49
-9.99
-30.61
-43.69
-48.13
-44.38
-34.01
-24.39
-22.07
-29.78
-44.67
-61.27
-75.35
-84.64
-88.94
-89.57
-88.11
-85.03
-79.93
-72.25
-61.07
-48.27
-36.17
-26.73
-20.93
-17.99
-15.68
-11.74
-5.05
3.85
13.23
21.75
29.25
33.57
35.00
34.91
34.74
35.40
37.04
39.15
41.28
43.01
43.87
43.94
43.51
42.99
42.80
43.19
44.11
45.49
47.25
49.23
51.62
54.47
57.63
60.65
62.81
63.30
61.57
57.50
51.54
44.86
38.79
34.46
32.53
32.96
35.04
37.72
39.97
41.11
41.13
40.50
39.94
40.20
41.76
44.69
48.65
52.97
56.80
59.33
59.75
57.43
51.93
43.23
31.86
18.86
5.55
-7.03
-18.54
-29.65
-41.64
-55.69
-72.06
-89.65
-106.29
-119.48
-127.42
-129.59
-126.89
-121.00
-113.73
-106.29
-99.13
-92.09
-84.81
-77.08
-69.04
-61.08
-53.68
-47.16
-41.60
-36.80
-32.34
-27.72
-22.47
-16.31
-9.20
-1.47
6.35
13.60
19.80
24.73
28.57
31.78
35.05
39.14
44.70
51.98
60.30
67.78
71.46
68.35
56.74
37.38
13.58
-9.92
-28.87
-41.14
-47.24
-49.55
-50.63
-51.90
-53.19
-53.45
-51.81
-48.32
-44.00
-40.10
-37.35
-35.62
-34.15
-32.07
-28.94
-25.03
-21.24
-18.71
-18.34
-20.49
-24.77
-30.25
-35.76
-40.40
-43.88
-46.62
-49.51
-53.45
-58.87
-65.54
-72.71
-79.39
-84.62
-87.57
-87.49
-83.76
-76.14
-65.13
-52.25
-39.89
-30.67
-26.49
-27.76
-33.23
-40.61
-47.51
-52.37
-54.81
-55.29
-54.50
-52.90
-50.74
-48.38
-46.58
-46.27
-47.81
-50.22
-51.13
-47.67
-37.94
-22.20
-3.13
15.04
28.04
33.05
29.68
20.35
9.92
4.91
11.89
35.41
75.90
128.58
184.29
232.18
263.04
272.09
259.96
231.62
194.20
154.73
118.70
89.57
69.03
57.44
54.31
58.37
67.42
78.16
86.25
86.82
75.54
50.08
11.65
-34.71
-81.24
-120.04
-145.89
-157.86
-158.87
-153.36
-144.41
-132.18
-114.32
-88.21
-53.37
-12.71
28.03
62.37
85.02
93.01
85.53
63.21
27.74
-17.89
-68.98
-119.14
-160.93
-187.33
-193.49
-178.22
-144.67
-99.95
-53.26
-13.38
13.96
27.37
29.33
24.21
15.98
6.90
-2.44
-11.83
-20.29
-25.90
-26.64
-21.75
-12.32
-0.92
9.72
17.92
23.51
27.40
30.81
34.61
39.40
45.78
54.55
66.38
81.15
97.46
112.94
125.26
133.32
137.64
139.70
140.26
138.31
131.17
116.24
93.09
64.40
34.96
9.35
-10.19
-24.52
-36.34
-48.09
-60.19
-70.56
-75.51
-71.31
-55.60
-28.46
7.27
46.05
80.35
102.26
105.64
88.25
52.75
6.10
-42.66
-85.23
-116.04
-132.90
-136.34
-128.46
-111.85
-89.08
-62.59
-34.88
-8.31
15.16
34.38
49.13
59.74
66.37
68.21
63.33
49.33
24.68
-9.58
-48.70
-84.54
-107.70
-110.80
-91.66
-54.63
-9.32
