1606762920.00
64.000000
-0.00
-0.00
-0.00
-0.00
-0.00
-0.00
-0.00
-0.00
-0.00
-0.00
0.00
0.01
0.01
-0.00
-0.03
-0.05
-0.05
0.00
0.13
0.36
0.66
1.01
1.37
1.72
2.06
2.40
2.79
3.24
3.80
4.42
5.06
5.67
6.21
6.69
7.15
7.68
8.31
9.13
10.08
11.05
11.92
12.62
13.19
13.76
14.53
15.65
17.38
19.57
21.99
24.35
26.48
28.43
30.46
32.98
36.30
40.83
46.26
52.11
57.82
62.98
67.59
72.05
76.98
82.93
90.50
99.30
108.65
117.69
125.76
132.70
138.91
145.58
151.43
158.91
168.94
181.90
196.67
210.18
217.68
214.08
195.71
161.70
114.83
59.54
0.71
-58.23
-115.98
-172.96
-230.04
-287.44
-344.31
-398.60
-448.54
-492.63
-529.90
-559.68
-581.18
-593.47
-595.66
-587.41
-568.89
-540.95
-504.07
-457.90
-401.38
-333.59
-255.13
-168.95
-80.27
4.88
81.06
144.98
195.73
234.16
261.78
280.02
290.03
292.97
290.29
283.67
274.74
264.65
253.84
242.24
229.43
215.18
199.63
183.38
167.24
152.04
138.29
126.08
115.09
104.79
94.68
84.55
74.48
64.76
55.72
47.60
40.45
34.14
28.46
23.18
18.14
13.44
9.17
5.51
2.63
0.59
-0.81
-1.90
-3.08
-4.56
-6.30
-8.00
-9.28
-9.91
-9.89
-9.47
-8.95
-8.55
-8.30
-8.11
-7.88
-7.53
-7.08
-6.60
-6.13
-5.73
-5.40
-5.14
-4.94
-4.84
-4.82
-4.83
-4.77
-4.48
-3.82
-2.80
-1.59
-0.52
0.04
-0.12
-0.94
-2.05
-2.99
-3.38
-3.19
-2.64
-2.11
-1.90
-2.05
-2.36
-2.54
-2.40
-1.98
-1.48
-1.19
-1.28
-1.70
-2.21
-2.51
-2.40
-1.89
-1.22
-0.68
-0.45
-0.54
-0.76
-0.88
-0.75
-0.41
0.02
0.38
0.59
0.69
0.73
0.76
0.82
0.90
1.04
1.30
1.70
2.21
2.77
3.26
3.62
3.85
4.00
4.10
4.15
4.12
4.00
3.80
3.54
3.24
2.82
2.24
1.41
0.33
-0.91
-2.19
-3.35
-4.29
-4.94
-5.30
-5.44
-5.46
-5.44
-5.42
-5.42
-5.36
-5.23
-5.00
-4.68
-4.31
-3.94
-3.57
-3.22
-2.87
-2.53
-2.19
-1.86
-1.59
-1.42
-1.42
-1.57
-1.79
-1.94
-1.87
-1.59
-1.17
-0.80
-0.63
-0.70
-0.88
-1.03
-1.02
-0.88
-0.71
-0.64
-0.68
-0.76
-0.75
-0.61
-0.38
-0.21
-0.24
-0.49
-0.87
-1.21
-1.39
-1.38
-1.27
-1.18
-1.19
-1.32
-1.47
-1.56
-1.52
-1.36
-1.12
-0.88
-0.68
-0.53
-0.42
-0.29
-0.09
0.19
0.56
0.99
1.40
1.71
1.83
1.66
1.23
0.62
0.01
-0.43
-0.55
-0.35
0.03
0.44
0.72
0.81
0.76
0.65
0.56
0.51
0.47
0.40
0.27
0.07
-0.17
-0.42
-0.63
-0.78
-0.85
-0.82
-0.71
-0.60
-0.54
-0.62
-0.84
-1.16
-1.50
-1.77
-1.90
-1.85
-1.61
-1.24
-0.83
-0.46
-0.16
0.06
0.23
0.37
0.49
0.55
0.53
0.43
0.31
0.23
0.25
0.42
0.73
1.11
1.50
1.79
1.89
1.75
1.36
0.82
0.28
-0.10
-0.25
-0.16
0.09
0.39
0.67
0.87
0.98
1.00
0.95
0.80
0.57
0.24
-0.17
-0.60
-0.99
-1.29
-1.48
-1.61
-1.72
-1.87
-2.02
-2.13
-2.09
-1.84
-1.39
-0.83
-0.29
0.08
0.23
0.17
-0.00
-0.13
-0.12
0.09
0.46
0.87
1.23
1.43
1.45
1.29
1.00
0.63
0.29
0.07
0.06
0.28
0.61
0.89
0.94
0.67
0.15
-0.44
-0.87
-0.99
-0.78
-0.32
0.24
0.75
1.11
1.29
1.26
0.99
0.45
-0.38
-1.40
-2.45
-3.29
-3.73
-3.71
-3.33
-2.77
-2.29
-2.03
-2.03
-2.22
-2.50
-2.80
-3.08
-3.33
-3.53
-3.64
-3.62
-3.47
-3.22
-2.95
-2.71
-2.53
-2.46
-2.51
-2.65
-2.83
-2.98
-3.00
-2.83
-2.44
-1.87
-1.19
-0.45
0.34
1.21
2.18
3.24
4.29
5.19
5.83
6.15
6.20
6.09
5.91
5.73
5.53
5.27
4.90
4.44
3.94
3.48
3.06
2.66
2.26
1.85
1.51
1.35
1.43
1.72
2.10
2.43
2.60
2.58
2.43
2.21
1.99
1.76
1.53
1.31
1.18
1.18
1.35
1.66
2.00
2.27
2.37
2.24
1.88
1.31
0.64
-0.02
-0.53
-0.80
-0.77
-0.51
-0.12
0.27
0.53
0.60
0.47
0.16
-0.27
-0.72
-1.11
-1.37
-1.46
-1.42
-1.28
-1.11
-0.92
-0.77
-0.65
-0.59
-0.57
-0.53
-0.41
-0.13
0.30
0.81
1.27
1.58
1.70
1.69
1.62
1.54
1.44
1.28
1.01
0.65
0.30
0.04
-0.06
0.00
0.18
0.38
0.51
0.50
0.31
-0.05
-0.51
-0.99
-1.34
-1.45
-1.29
-0.89
-0.37
0.13
0.48
0.61
0.54
0.33
0.08
-0.12
-0.25
-0.33
-0.37
-0.36
-0.26
-0.01
0.42
0.93
1.37
1.58
1.50
1.20
0.88
0.72
0.76
0.95
1.10
1.11
0.97
0.78
0.63
0.58
0.56
0.46
0.23
-0.10
-0.43
-0.63
-0.66
-0.54
-0.35
-0.16
-0.05
-0.02
-0.05
-0.11
-0.13
-0.06
0.11
0.33
0.52
0.63
0.66
0.70
0.86
1.24
1.84
2.54
3.13
3.49
3.56
3.46
3.34
3.40
3.73
4.35
5.21
6.17
7.07
7.73
8.00
7.84
7.37
6.91
6.85
7.47
8.82
10.64
12.52
14.02
14.93
15.22
15.09
14.79
14.54
14.50
14.72
15.17
15.63
15.69
14.78
12.44
8.50
3.28
-2.41
-7.53
-11.19
-12.91
-12.76
-11.24
-8.99
-6.59
-4.49
-2.98
-2.32
-2.86
-4.94
-8.83
-14.55
-21.91
-30.50
-39.80
-49.21
-58.11
-65.85
-71.77
-75.27
-75.86
-73.26
-67.45
-58.79
-48.01
-36.25
-24.88
-15.16
-7.88
-3.00
0.36
3.46
7.35
12.34
17.92
23.08
26.84
28.62
28.43
26.71
24.10
21.32
19.08
18.04
18.66
20.85
24.00
27.09
29.07
29.28
27.70
24.96
22.04
19.81
18.63
18.35
18.49
18.56
18.31
17.83
17.22
16.66
16.08
14.99
13.10
10.62
8.30
6.96
6.97
7.96
9.18
9.87
9.09
6.57
2.72
-1.71
-6.24
-10.62
-14.50
-16.55
-14.74
-8.38
2.48
16.98
33.71
50.58
65.42
76.33
82.92
86.14
85.90
83.08
79.25
76.27
74.14
70.39
60.35
39.98
7.03
-41.26
-105.00
-180.72
-261.28
-337.57
-399.86
-440.45
-453.96
-425.23
-352.34
-250.57
-145.70
-57.65
6.83
57.24
101.31
141.99
178.55
202.92
210.06
200.66
180.94
158.91
140.77
128.28
120.30
114.39
106.37
94.43
79.82
65.96
55.73
49.83
46.24
42.68
37.82
30.45
21.21
12.02
5.26
2.30
2.89
5.19
7.41
8.49
7.67
5.21
2.09
-0.43
-1.58
-1.35
-0.56
-0.04
-0.25
-1.48
-3.48
-5.73
-7.63
-8.78
-9.11
-8.86
-8.34
-7.82
-7.49
-7.39
-7.45
-7.51
-7.36
-6.89
-6.16
-5.35
-4.70
-4.35
-4.27
-4.31
-4.29
-4.08
-3.68
-3.20
-2.74
-2.38
-2.13
-1.95
-1.79
-1.57
-1.20
-0.69
-0.15
0.27
0.47
0.42
0.24
0.13
0.37
1.11
2.26
3.47
4.39
4.77
4.59
4.05
3.52
3.57
4.64
6.75
9.43
11.94
13.67
14.33
14.03
13.26
12.99
14.01
16.51
19.95
23.44
26.21
27.83
28.25
27.85
27.71
29.16
33.21
40.09
49.00
57.99
63.92
62.83
49.70
22.80
-13.95
-52.00
-82.68
-101.31
-108.17
-106.76
-101.68
-96.51
-92.37
-88.82
-84.95
-80.47
-75.47
-69.69
-62.45
-53.47
-43.44
-33.94
-26.69
-22.49
-20.63
-18.81
-13.88
-3.27
13.93
36.28
60.27
80.86
92.78
92.22
78.63
55.36
28.60
4.89
-11.32
-18.91
-19.64
-15.76
-8.53
2.28
17.17
35.00
52.66
65.84
70.86
66.27
53.41
35.55
16.69
-0.08
-13.35
-23.21
-30.63
-36.27
-39.97
-40.92
-38.42
-32.70
-25.39
-19.07
-16.24
-18.36
-25.26
-34.81
-43.54
-47.44
-43.05
-29.09
-7.44
16.88
37.14
47.83
46.94
36.77
22.42
9.13
-0.46
-7.11
-13.54
-22.46
-34.60
-48.81
-62.80
-74.06
-80.31
-79.56
-70.41
-52.32
-27.70
-0.32
25.07
44.72
57.20
63.49
66.02
67.33
69.44
72.67
76.46
79.18
78.34
71.29
56.43
33.93
5.80
-24.78
-54.64
-80.29
-98.09
-104.15
-95.16
-70.37
-33.39
7.72
42.92
63.66
67.65
59.11
46.39
37.79
38.20
47.76
62.21
75.11
79.90
71.80
48.98
13.66
-27.44
-64.21
-86.32
-87.03
-66.39
-31.71
5.21
33.12
45.11
40.76
24.65
3.66
-16.66
-33.69
-47.31
-58.33
-67.19
-73.69
-76.68
-75.48
-68.89
-55.70
-35.50
-10.07
16.32
38.37
51.01
52.21
44.03
31.55
20.07
12.50
8.43
5.48
1.70
-2.89
-6.30
-6.31
-2.28
4.06
9.62
11.86
10.07
5.87
1.96
0.76
3.09
7.99
13.25
16.61
16.60
13.18
7.57
1.67
-2.61
-3.98
-2.22
1.74
6.21
9.45
10.48
9.53
8.00
7.73
9.98
14.71
20.32
24.50
25.33
22.17
15.88
8.56
2.78
0.56
2.66
8.18
15.06
21.00
24.35
24.71
23.21
21.98
23.33
28.77
38.20
50.42
63.64
75.73
84.00
85.42
77.73
61.15
39.48
18.72
6.22
7.40
22.44
45.58
67.92
82.19
86.32
83.74
78.47
74.10
71.53
67.90
57.79
36.86
4.76
-34.00
-72.03
-105.11
-129.61
-142.61
-143.45
-134.85
-121.63
-108.91
-100.56
-99.38
-111.03
-137.04
-172.90
-210.48
-242.35
-264.15
-275.56
-279.23
-253.49
-196.01
-124.25
-58.99
-8.72
27.79
53.80
71.05
81.74
88.56
90.54
88.46
85.13
82.81
81.10
77.93
69.79
57.92
44.74
29.79
13.51
-2.08
-15.33
-26.62
-33.03
-37.64
-42.19
-47.62
-56.09
-67.42
-77.93
-81.69
-73.39
-50.82
-16.80
22.77
59.90
86.85
100.16
101.72
96.78
90.60
86.29
83.81
82.32
80.76
78.41
75.63
73.13
71.43
70.46
69.72
68.42
67.03
66.91
69.45
74.71
80.39
82.07
75.00
56.57
28.16
-4.58
-34.41
-54.95
-63.44
-61.32
-52.77
-42.25
-32.61
-24.02
-16.43
-9.34
-2.98
1.78
4.32
4.93
4.80
5.25
7.41
11.15
15.42
18.72
19.67
17.73
13.37
7.88
2.37
-2.00
-5.29
-8.30
-12.21
-17.91
-25.46
-33.93
-41.21
-46.33
-48.58
-48.46
-47.28
-46.68
-47.89
-51.11
-55.49
-59.51
-62.04
-62.39
-61.07
-59.30
-58.39
-59.41
-62.96
-69.53
-78.49
-88.39
-96.17
-97.84
-89.82
-70.78
-43.04
-12.06
15.53
34.67
43.67
44.49
40.86
36.08
31.79
27.73
23.24
18.37
14.39
12.95
15.11
20.56
27.67
34.79
40.44
44.52
48.16
52.93
59.96
69.32
79.79
88.63
94.28
95.71
93.26
88.52
83.49
79.74
77.61
76.71
74.78
70.35
62.69
52.49
41.47
31.61
24.61
21.31
22.59
28.12
36.43
44.33
47.49
42.33
27.03
3.54
-22.88
-45.62
-59.64
-63.23
-58.05
-48.52
-38.58
-30.15
-22.97
-15.96
-8.53
-1.35
4.28
7.43
8.25
7.92
7.78
8.89
11.19
13.72
15.06
13.89
9.90
3.60
-3.75
-10.78
-16.44
-20.41
-23.02
-24.46
-25.79
-27.33
-28.98
-30.24
-30.62
-29.82
-27.94
-25.66
-23.29
-21.36
-20.02
-19.20
-18.66
-18.13
-17.41
-16.47
-15.44
-14.44
-13.69
-13.22
-13.03
-13.02
-13.14
-13.32
-13.56
-13.88
-14.25
-14.73
-15.35
-16.09
-16.96
-17.94
-19.06
-20.28
-21.64
-23.03
-24.51
-26.10
-27.79
-29.62
-31.59
-33.72
-35.98
-38.37
-40.72
-42.95
-44.89
-46.31
-46.88
-46.26
-44.07
-39.94
-33.99
-25.71
-15.11
-2.43
11.83
26.96
42.07
56.15
68.53
78.06
84.25
86.81
85.80
81.43
74.30
65.07
54.49
43.32
32.29
22.10
13.14
5.63
-0.38
-4.94
-8.22
-10.50
-11.92
-12.59
-12.53
-11.82
-10.61
-9.03
-7.24
-5.33
-3.52
-1.69
0.42
3.13
6.59
10.78
15.52
20.53
25.63
30.33
34.74
39.44
44.73
50.67
56.95
62.95
67.92
71.48
72.89
72.63
72.05
72.00
72.74
73.74
73.83
71.25
64.95
53.76
38.46
21.25
3.56
-14.32
-33.02
-54.21
-80.41
-105.36
-127.47
-145.66
-158.35
-164.87
-164.24
-155.27
-137.23
-112.21
-83.73
-57.22
-40.35
-31.51
-27.52
-24.52
-19.32
-10.85
-2.52
0.88
-6.08
-26.03
-57.46
-96.53
-137.56
-174.71
-192.77
-186.46
-159.15
-121.76
-86.07
-59.58
-44.25
-37.54
-35.18
-34.07
-35.25
-40.47
-50.69
-64.46
-78.28
-88.64
-94.00
-94.82
-92.68
-90.73
-90.37
-90.95
-89.89
-84.93
-72.60
-51.70
-23.18
10.67
46.26
80.80
112.83
142.13
166.35
185.60
199.93
209.21
213.27
211.76
205.03
194.07
180.42
165.62
151.44
138.60
127.16
116.79
106.95
97.26
87.61
78.06
68.80
60.40
52.97
46.41
40.51
35.12
30.08
25.32
20.80
16.49
12.63
9.24
6.29
3.66
1.33
-0.74
-2.60
-4.29
-5.84
-7.15
-8.21
-9.04
-9.73
-10.26
-10.65
-10.92
-11.09
-11.17
-11.12
-10.96
-10.30
-9.49
-8.60
-7.64
-6.63
-5.61
-4.56
-3.49
-2.39
-1.29
-0.22
0.85
1.92
3.02
4.10
5.18
6.29
7.41
8.58
9.76
10.98
12.25
13.55
14.82
16.02
17.10
17.91
18.35
18.21
17.35
15.66
13.33
10.12
6.06
1.34
-3.79
-8.99
-13.95
-18.32
-21.83
-24.30
-25.68
-26.01
-25.43
-24.24
-22.66
-21.10
-19.84
-19.14
-19.17
-20.02
-21.60
-23.71
-26.53
-29.37
-31.92
-33.87
-35.06
-35.40
-34.90
-33.66
-31.54
-28.95
-26.06
-23.22
-20.63
-18.57
-17.22
-16.71
-17.13
-18.35
-20.25
-22.53
-25.37
-28.16
-30.49
-32.12
-32.58
-32.18
-31.06
-29.45
-27.52
-25.51
-23.58
-21.79
-20.17
-18.79
-17.74
-17.06
-16.79
-16.95
-17.58
-18.72
-20.17
-21.88
-23.96
-26.65
-30.18
-34.73
-40.37
-47.01
-54.49
-62.08
-69.31
-76.01
-82.28
-88.36
-94.50
-100.81
-107.16
-113.29
-118.17
-121.20
-122.22
-121.47
-119.32
-115.79
-110.12
-100.24
-88.26
-73.90
-56.85
-37.39
-16.38
4.87
25.10
43.57
60.20
75.55
91.43
109.52
131.08
156.43
184.40
212.15
235.58
250.28
252.95
243.35
224.13
200.38
178.04
161.89
154.05
153.49
156.84
159.97
159.96
155.61
147.42
136.82
125.18
113.19
100.80
87.69
73.91
60.23
47.76
37.39
29.39
23.33
18.55
14.51
11.15
8.79
7.66
7.49
7.43
6.35
3.33
-1.93
-9.05
-17.24
-25.69
-33.84
-41.50
-48.71
-55.44
-61.53
-66.54
-69.95
-71.32
-70.37
-67.16
-61.96
-55.21
-47.32
-38.73
-29.82
-20.98
-12.57
-4.87
1.96
7.83
12.70
16.57
19.40
21.19
21.95
21.68
20.30
17.59
13.25
7.10
-0.69
-9.46
-18.16
-25.63
-31.05
-34.23
-35.60
-35.92
-35.88
-35.76
-35.35
-34.26
-32.24
-29.52
-26.69
-24.47
-23.29
-23.04
-23.15
-22.90
-21.78
-19.76
-17.25
-14.81
-12.78
-11.05
-9.04
-6.03
-1.61
4.00
9.96
15.05
18.24
18.96
17.31
13.81
9.14
3.81
-1.81
-7.39
-12.53
-16.77
-19.72
-21.26
-21.62
-21.29
-20.82
-20.52
-20.48
-20.48
-20.24
-19.53
-18.34
-16.83
-15.25
-13.82
-12.63
-11.65
-10.75
-9.82
-8.79
-7.70
-6.61
-5.60
-4.73
-4.00
-3.42
-2.96
-2.61
-2.36
-2.20
-2.09
-2.00
-1.86
-1.61
-1.22
-0.68
-0.04
0.62
1.24
1.78
2.22
2.50
2.61
2.55
2.38
2.21
2.17
2.33
2.65
2.96
3.10
2.95
2.55
2.00
1.44
0.98
0.63
0.34
0.07
-0.22
-0.52
-0.79
-1.02
-1.28
-1.62
-2.10
-2.72
-3.34
-3.79
-3.98
-3.89
-3.65
-3.42
-3.33
-3.34
-3.33
-3.13
-2.67
-1.97
-1.19
-0.53
-0.08
0.10
0.09
-0.01
-0.08
-0.07
0.07
0.26
0.44
0.54
0.58
0.66
0.90
1.36
1.93
2.39
2.50
2.15
1.45
0.66
0.07
-0.17
-0.12
0.04
0.13
0.09
0.04
0.15
0.49
0.99
1.38
1.36
0.76
-0.31
-1.52
-2.36
-2.40
-1.48
0.21
2.18
3.79
4.52
4.26
3.36
2.52
2.52
3.84
6.41
9.57
12.34
13.81
13.53
11.80
9.54
7.94
7.92
9.62
12.35
14.78
15.47
13.45
8.62
1.80
-5.40
-11.00
-13.18
-11.05
-5.32
1.26
4.29
-1.03
-17.93
-46.33
-82.14
-118.14
-146.10
-159.42
-155.20
-134.90
-103.53
-67.70
-33.33
-3.94
19.75
38.97
55.32
69.17
79.20
83.20
79.92
70.78
59.79
52.00
51.17
58.01
69.81
81.81
89.32
89.87
84.26
75.75
68.33
64.90
66.86
73.87
84.53
96.40
106.43
111.18
106.50
88.28
54.50
8.19
-41.92
-83.54
-106.22
-106.30
-88.81
-65.85
-51.60
-56.28
-79.98
-113.73
-142.13
-153.61
-147.84
-132.58
-116.11
-102.29
-90.46
-78.21
-64.44
-50.43
-39.06
-32.97
-32.26
-34.91
-37.98
-39.35
-38.28
-35.03
-30.90
-27.72
-27.69
-31.77
-38.68
-44.65
-44.26
-32.71
-8.83
23.20
56.19
81.80
95.26
97.91
95.78
95.27
98.52
101.60
97.08
79.29
48.78
13.87
-12.86
-21.13
-7.64
22.03
56.67
86.19
106.18
117.30
122.08
121.38
112.49
91.70
57.88
15.00
-28.55
-63.50
-84.00
-89.48
-84.14
-74.86
-68.10
-67.76
-74.16
-83.98
-91.39
-90.14
-76.28
-48.54
-10.42
31.07
67.47
91.45
99.33
91.81
73.09
48.82
24.18
2.12
-16.34
-31.20
-42.43
-49.46
-51.65
-48.98
-42.60
-34.50
-27.25
-22.66
-21.51
-23.14
-25.92
-27.72
-26.22
-19.16
-4.97
16.21
41.98
66.32
82.17
84.37
72.02
49.15
23.35
2.56
-8.26
-9.25
-4.19
1.94
5.30
4.88
2.66
1.98
5.08
11.15
16.87
18.87
16.69
13.73
16.19
30.01
57.25
95.45
136.46
169.19
184.00
176.30
147.36
102.41
47.99
-9.91
-64.70
-109.16
-137.00
-145.28
-136.11
-116.70
-97.30
-87.64
-93.89
-114.69
-141.94
-164.66
-173.14
-161.97
-131.97
-91.04
-52.26
-30.07
-31.99
-54.96
-87.09
-112.83
-119.13
-100.09
-58.64
2.85
68.50
118.50
143.73
147.76
137.77
118.26
91.16
59.15
23.41
-12.62
-42.45
-59.96
-63.38
-56.66
-47.32
-40.00
-37.49
-38.77
-40.25
-36.85
-25.31
-7.00
12.78
28.34
36.80
40.67
45.58
55.12
68.91
83.49
94.34
98.36
95.43
88.05
79.41
71.72
65.57
61.21
59.37
60.77
65.37
71.32
74.92
70.77
54.03
23.30
-17.28
-58.51
-90.17
-106.54
-107.85
-99.39
-88.68
-82.20
-82.28
-86.31
-88.55
-83.75
-68.62
-45.66
-20.02
3.65
24.05
41.93
59.20
76.97
94.17
107.64
113.60
107.97
92.85
73.04
53.51
37.64
26.21
17.83
10.53
3.29
-4.13
-10.87
-16.78
-22.96
-31.17
-42.56
-56.63
-70.85
-81.27
-83.93
-76.10
-57.98
-32.85
-5.47
19.61
39.25
52.02
58.07
58.50
54.36
47.13
38.02
28.16
18.69
10.53
4.08
-0.91
-5.37
-10.57
-16.22
-22.05
-27.38
-30.61
-29.85
-23.98
-13.53
-0.86
10.81
18.92
22.57
22.59
22.32
24.76
30.90
39.24
46.21
47.72
41.15
26.46
6.43
-14.68
-31.16
-39.42
-38.93
-32.01
-22.28
-12.73
-4.74
1.99
8.46
15.19
21.45
26.00
28.01
27.80
26.72
26.11
26.65
27.94
28.79
27.73
23.93
17.70
10.30
3.46
-1.50
-3.97
-4.14
-2.76
-0.86
0.70
1.45
1.35
0.69
-0.33
-1.54
-2.82
-4.20
-5.96
-8.54
-12.27
-17.11
-22.58
-28.32
-33.71
-38.10
-41.11
-42.94
-44.23
-45.53
-46.92
-47.89
-48.50
-48.49
-47.37
-44.89
-41.51
-38.35
-36.42
-36.00
-36.47
-38.25
-41.24
-44.80
-48.15
-50.78
-52.73
-54.04
-54.67
-54.93
-57.62
-64.77
-76.23
-89.61
-101.68
-110.50
-116.19
-121.14
-116.19
-98.98
-73.78
-47.51
-23.89
-2.89
15.61
30.64
41.27
48.22
52.67
57.79
67.06
80.52
97.22
113.05
123.56
126.49
122.62
113.57
102.10
90.88
81.47
74.01
67.39
60.66
54.44
49.37
44.78
39.80
33.95
27.50
21.46
16.83
14.57
15.15
18.12
21.73
23.94
23.14
18.65
10.95
1.43
-7.85
-14.73
-17.90
-17.50
-14.80
-11.62
-9.38
-8.68
-9.34
-10.86
-13.02
-16.32
-21.89
-30.95
-44.14
-61.05
-80.17
-99.23
-115.72
-127.28
-132.15
-129.28
-118.74
-102.11
-82.65
-65.04
-53.98
-52.52
-60.43
-73.75
-85.94
-90.22
-82.19
-61.15
-29.97
6.52
43.32
76.38
102.91
120.93
129.12
127.03
115.64
97.74
77.50
59.54
47.55
43.22
45.94
53.08
60.99
66.13
66.08
60.09
49.14
35.42
21.57
9.76
1.34
-3.04
-3.08
1.61
11.44
26.37
45.23
65.35
83.07
94.79
98.38
94.07
84.42
73.39
64.70
60.52
60.78
63.60
66.32
66.71
63.62
57.07
47.69
36.14
22.89
8.35
-6.71
-21.11
-33.51
-43.03
-49.68
-54.29
-57.97
-61.24
-63.60
-63.64
-59.73
-50.79
-36.95
-19.58
-0.78
17.37
33.43
46.76
57.06
63.95
66.61
63.86
54.83
39.67
19.97
-1.59
-22.19
-40.02
-54.80
-67.33
-78.44
-88.02
-94.76
-97.03
-94.08
-86.97
-78.28
-71.02
-67.03
-66.00
-65.65
-62.89
-55.40
-42.73
-26.37
-8.99
6.76
19.25
28.19
34.40
39.15
43.47
47.85
52.17
55.99
58.76
59.97
59.09
55.65
49.38
40.43
29.61
18.23
7.73
-0.88
-7.44
-12.62
-17.46
-22.72
-28.55
-34.37
-39.25
-42.37
-43.39
-42.45
-39.93
-36.13
-31.28
-25.69
-20.08
-15.55
-13.37
-14.35
-18.29
-23.89
-29.07
-31.73
-30.45
-24.87
-15.63
-4.10
8.05
19.08
27.46
32.08
32.51
29.25
23.67
17.64
12.89
10.37
10.03
10.87
11.46
10.62
7.83
3.35
-2.02
-7.30
-11.57
-13.95
-13.66
-10.00
-2.61
8.28
21.72
36.18
49.90
61.23
68.99
72.44
71.30
65.55
55.43
41.43
24.42
5.74
-12.88
-29.49
-42.24
-49.79
-51.76
-48.83
-42.56
-34.69
-26.56
-18.60
-10.55
-1.94
7.24
16.30
24.04
29.35
31.68
31.30
28.99
25.64
21.85
17.88
13.80
9.61
5.26
0.56
-4.97
-12.06
-21.35
-33.08
-46.70
-60.93
-73.95
-83.96
-89.63
-90.38
-86.35
-78.16
-66.61
-52.45
-36.39
-19.29
-2.36
12.92
25.14
33.51
38.25
40.52
41.83
43.25
44.91
45.84
44.54
39.83
31.46
20.39
8.50
-2.18
-10.28
-15.54
-18.80
-21.51
-25.31
-31.78
-42.14
-56.90
-75.32
-95.09
-112.48
-123.38
-124.78
-116.14
-99.96
-80.91
-64.04
-52.86
-48.34
-48.99
-52.21
-55.49
-57.17
-56.52
-53.41
-47.95
-40.62
-32.40
-24.59
-18.28
-13.50
-8.90
-2.26
8.41
23.72
42.27
61.13
76.89
87.02
90.60
88.34
81.88
73.15
63.75
54.98
47.82
42.91
40.34
39.51
39.20
38.02
35.21
30.88
26.09
22.35
21.01
22.41
25.82
29.81
32.88
34.09
33.17
30.42
26.42
21.85
17.46
14.25
13.33
15.73
22.06
32.22
45.32
59.82
73.85
85.52
93.26
96.03
93.59
86.57
76.45
65.07
54.07
44.26
35.27
25.81
14.35
0.01
-16.79
-34.32
-50.05
-61.70
-68.06
-69.32
-66.68
-61.61
-55.26
-48.12
-40.27
-31.66
-22.38
-12.68
-2.94
6.44
14.93
21.78
26.05
26.92
23.98
17.39
7.78
-4.13
-17.71
-32.36
-47.13
-60.45
-70.37
-75.08
-73.78
-66.86
-55.89
-42.90
-29.80
-18.03
-8.62
-2.34
0.24
-0.91
-5.01
-10.38
-14.88
-16.77
-15.27
-11.10
-6.23
-3.00
-3.18
-7.39
-14.97
-24.37
-33.70
-41.29
-46.42
-49.74
-53.04
-58.57
-67.99
-81.35
-96.59
-109.96
-117.21
-116.02
-107.41
-95.49
-85.51
-81.30
-83.51
-89.55
-95.12
-95.94
-91.08
-83.31
-77.08
-75.70
-79.88
-88.03
-97.77
-107.10
-112.95
-113.25
-106.99
-93.35
-70.99
-38.84
3.03
53.32
110.81
177.71
254.67
337.99
419.42
488.51
535.67
555.12
546.38
514.45
471.00
425.64
382.32
340.72
300.73
264.56
235.96
217.32
184.08
125.81
50.83
-23.81
-87.46
-137.47
-174.38
-199.29
-215.63
-226.47
-230.42
-226.76
-218.58
-211.79
-211.59
-220.48
-235.02
-251.63
-266.49
-273.78
-268.66
-251.26
-226.90
-202.56
-183.19
-170.02
-161.36
-152.81
-137.28
-106.70
-57.85
5.70
76.30
146.59
211.86
269.70
319.55
342.63
328.08
282.55
224.69
170.10
125.51
91.33
64.64
41.54
19.12
-1.08
-17.05
-29.22
-40.51
-53.75
-69.63
-86.22
-99.71
-106.27
-101.92
-86.80
-66.06
-47.06
-34.72
-29.35
-27.84
-26.69
-24.28
-19.82
-14.25
-9.27
-6.33
-5.63
-6.40
-7.96
-10.46
-14.54
-20.06
-26.54
-33.12
-39.17
-44.13
-47.44
-48.54
-47.02
-42.66
-35.48
-26.10
-15.15
-3.42
7.97
17.79
25.32
30.22
32.33
31.07
23.06
6.74
-16.66
-43.48
-69.29
-90.00
-104.17
-111.08
-110.38
-102.43
-87.87
-67.97
-43.98
-19.09
3.40
21.15
33.57
41.52
46.60
50.74
55.02
59.44
63.17
65.54
66.39
66.17
65.38
64.20
62.61
60.35
57.11
52.74
47.61
42.42
37.90
34.38
31.63
29.12
26.24
22.54
18.04
13.35
9.44
7.22
7.06
8.62
11.03
13.31
14.73
15.06
14.60
13.88
13.32
13.07
13.01
12.92
12.64
12.23
11.92
12.02
12.80
14.32
16.47
19.06
21.75
24.15
25.93
27.05
27.66
28.14
28.73
29.53
30.29
30.31
28.55
24.02
16.43
6.13
-5.71
-17.47
-27.32
-33.68
-35.92
-34.62
-31.51
-28.40
-27.24
-29.20
-34.73
-43.20
-53.27
-63.42
-72.44
-79.71
-85.00
-89.51
-93.30
-97.75
-104.41
-113.10
-120.91
-123.45
-120.42
-110.63
-94.93
-75.59
-55.30
-35.51
-16.18
2.52
20.46
37.14
52.27
65.08
75.08
82.01
86.14
87.95
87.73
85.46
80.91
74.42
66.44
57.88
49.77
43.09
38.40
35.56
33.92
32.50
30.75
28.40
25.61
22.76
20.21
18.12
16.31
14.51
12.50
10.37
8.33
6.62
5.38
4.58
4.06
3.54
2.85
1.89
0.77
-0.29
-1.07
-1.42
-1.39
-1.16
-1.02
-1.17
-1.66
-2.40
-3.25
-4.17
-5.21
-6.53
-8.22
-10.18
-12.08
-13.50
-14.05
-13.58
-12.24
-10.40
-8.48
-6.76
-5.35
-4.21
-3.23
-2.33
-1.46
-0.61
0.28
1.22
2.08
2.46
1.78
-0.51
-4.55
-9.81
-15.15
-19.20
-20.97
-20.23
-17.60
-14.17
-11.00
-8.71
-7.40
-6.94
-7.18
-8.19
-10.08
-12.80
-15.98
-18.96
-20.97
-21.48
-20.31
-17.73
-14.23
-10.37
-6.56
-3.00
0.31
3.47
6.56
9.56
12.37
14.75
16.53
17.58
17.95
17.82
17.45
17.13
17.00
17.10
17.26
17.31
17.11
16.73
16.44
16.63
17.68
19.79
22.92
26.83
31.05
35.01
38.05
39.56
39.12
36.64
32.48
27.37
22.20
17.77
14.58
12.79
12.23
12.61
13.55
14.79
16.15
17.60
19.25
21.26
23.74
26.62
29.64
32.37
34.36
35.16
34.36
31.60
26.62
19.34
10.04
-0.63
-11.75
-22.41
-31.99
-40.32
-47.62
-54.29
-60.63
-66.73
-72.41
-77.41
-81.50
-84.54
-86.47
-87.19
-86.54
-84.32
-80.39
-74.84
-68.07
-60.73
-53.55
-47.10
-41.66
-37.15
-33.34
-29.96
-26.83
-23.96
-21.38
-19.13
-17.12
-15.16
-13.00
-10.40
-7.26
-3.65
0.19
3.90
7.06
9.31
10.39
10.22
8.80
6.16
2.39
-2.18
-6.77
-10.02
-10.24
-6.08
2.78
15.31
29.29
42.21
52.10
58.12
60.42
59.66
56.40
50.87
43.20
33.82
23.65
13.97
5.94
0.19
-3.30
-5.08
-5.79
-5.89
-5.49
-4.40
-2.36
0.78
4.87
9.44
13.83
17.43
19.82
21.00
21.22
20.92
20.47
20.06
19.66
19.17
18.43
17.42
16.19
14.85
13.53
12.26
11.02
9.72
8.31
6.78
5.21
3.70
2.31
1.01
-0.28
-1.68
-3.28
-5.12
-7.15
-9.25
-11.23
-12.83
-13.71
-13.53
-12.05
-9.25
-5.40
-1.06
3.04
6.13
7.64
7.38
5.53
2.65
-0.50
-3.16
-4.83
-5.36
-4.95
-4.04
-3.05
-2.25
-1.71
-1.37
-1.18
-1.23
-1.78
-3.13
-5.46
-8.63
-12.08
-14.94
-16.18
-15.04
-11.30
-5.43
1.48
8.06
13.09
15.86
16.36
15.14
13.07
10.97
9.39
8.40
7.76
7.04
5.88
4.18
2.06
-0.15
-2.13
-3.69
-4.88
-5.97
-7.42
-9.66
-12.99
-17.37
-22.38
-27.25
-31.04
-32.86
-32.13
-28.69
-22.87
-15.42
-7.33
0.25
6.34
10.33
12.18
12.42
11.97
11.75
12.36
13.85
15.73
17.25
17.68
16.61
13.99
10.12
5.46
0.49
-4.38
-8.84
-12.70
-15.85
-18.22
-19.86
-20.84
-21.28
-21.21
-20.48
-18.77
-15.69
-11.08
-5.20
1.22
7.15
11.58
13.92
14.18
12.90
10.91
8.99
7.67
7.12
7.26
7.83
8.59
9.30
9.79
9.92
9.61
8.86
7.78
6.55
5.37
4.40
3.75
3.44
3.50
3.95
4.81
6.05
7.54
9.07
10.36
11.21
11.49
11.22
10.46
9.34
7.94
6.38
4.78
3.29
2.02
1.02
0.24
-0.43
-1.12
-1.87
-2.66
-3.38
-3.92
-4.17
-4.10
-3.69
-2.97
-1.99
-0.84
0.39
1.56
2.58
3.39
4.00
4.45
4.86
5.29
5.82
6.47
7.21
7.94
8.58
9.05
9.39
9.64
9.90
10.25
10.70
11.24
11.82
12.43
13.02
13.56
13.97
14.21
14.29
14.23
14.09
13.82
13.24
12.04
9.86
6.41
1.65
-4.14
-10.38
-16.34
-21.30
-24.82
-26.82
-27.63
-27.78
-27.81
-28.05
-28.47
-28.74
-28.37
-26.98
-24.44
-21.01
-17.19
-13.59
-10.71
-8.81
-7.89
-7.72
-8.04
-8.57
-9.06
-9.27
-8.94
-7.92
-6.21
-4.06
-1.97
-0.42
0.23
-0.05
-0.99
-2.16
-3.15
-3.68
-3.67
-3.20
-2.49
-1.78
-1.30
-1.12
-1.14
-1.11
-0.79
-0.11
0.79
1.62
2.15
2.34
2.38
2.49
2.78
3.12
3.21
2.84
1.99
0.86
-0.20
-0.92
-1.19
-1.05
-0.65
-0.16
0.28
0.53
0.40
-0.20
-1.27
-2.64
-3.97
-4.86
-5.05
-4.49
-3.38
-2.06
-0.86
0.06
0.70
1.14
1.47
1.68
1.75
1.73
1.72
1.91
2.39
3.12
3.91
4.57
5.00
5.26
5.51
5.82
6.13
6.23
5.98
5.39
4.68
4.15
3.95
4.04
4.13
3.94
3.31
2.32
1.21
0.21
-0.54
-1.10
-1.59
-2.09
-2.54
-2.84
-2.87
-2.57
-2.04
-1.54
-1.46
-2.16
-3.79
-6.12
-8.55
-10.26
-10.56
-9.09
-6.08
-2.14
1.96
5.58
8.35
10.15
11.01
10.98
10.09
8.52
6.56
4.63
3.11
2.18
1.72
1.41
0.84
-0.19
-1.62
-3.14
-4.40
-5.14
-5.32
-5.09
-4.68
-4.22
-3.70
-2.93
-1.68
0.23
2.74
5.51
7.99
9.55
9.77
8.57
6.33
3.66
1.19
-0.64
-1.73
-2.19
-2.23
-2.03
-1.73
-1.50
-1.59
-2.25
-3.61
-5.49
-7.43
-8.76
-8.94
-7.79
-5.56
-2.85
-0.38
1.30
1.98
1.79
1.15
0.55
0.43
1.03
2.31
3.97
5.59
6.78
7.31
7.23
6.76
6.21
5.82
5.67
5.72
5.79
5.69
5.18
4.11
2.47
0.53
-1.20
-2.13
-1.81
-0.30
1.83
3.64
4.23
3.07
0.25
-3.67
-7.94
-11.87
-15.09
-17.46
-19.00
-19.77
-19.81
-19.19
-17.99
-16.39
-14.55
-12.61
-10.63
-8.61
-6.48
-4.15
-1.63
1.01
3.54
5.68
7.19
7.93
7.98
7.56
6.99
6.55
6.45
6.72
7.23
7.75
8.00
7.82
7.17
6.22
5.20
4.34
3.78
3.50
3.39
3.40
3.51
3.78
4.27
4.94
5.70
6.42
7.06
7.64
8.22
8.81
9.32
9.61
9.57
9.17
8.56
7.90
7.32
6.84
6.34
5.70
4.90
4.05
3.36
3.02
3.14
3.63
4.36
5.12
5.76
6.19
6.36
6.31
6.10
5.76
5.33
4.74
3.92
2.81
1.43
-0.04
-1.39
-2.40
-3.02
-3.36
-3.66
-4.10
-4.78
-5.61
-6.43
-7.11
-7.56
-7.81
-7.92
-7.93
-7.85
-7.66
-7.34
-6.90
-6.39
-5.91
-5.58
-5.49
-5.66
-6.02
-6.45
-6.76
-6.81
-6.53
-5.96
-5.21
-4.40
-3.61
-2.86
-2.12
-1.31
-0.39
0.64
1.75
2.83
3.78
4.53
5.04
5.36
5.52
5.55
5.44
5.18
4.80
4.35
3.91
3.57
3.37
3.32
3.39
3.55
3.75
3.90
3.91
3.72
3.31
2.75
2.13
1.52
1.00
0.60
0.34
0.22
0.13
-0.07
-0.60
-1.56
-2.94
-4.50
-5.89
-6.74
-6.84
-6.19
-5.00
-3.56
-2.13
-0.85
0.26
1.24
2.13
2.90
3.49
3.86
3.99
3.96
3.86
3.76
3.64
3.40
2.98
2.36
1.62
0.89
0.27
-0.15
-0.40
-0.49
-0.47
-0.37
-0.22
-0.04
0.13
0.20
0.12
-0.22
-0.81
-1.61
-2.44
-3.10
-3.41
-3.27
-2.71
-1.87
-0.89
0.08
0.99
1.86
2.76
3.79
5.00
6.33
7.68
8.89
9.84
10.46
10.77
10.83
10.73
10.51
10.19
9.76
9.24
8.73
8.34
8.21
8.41
8.91
9.53
10.01
10.07
9.53
8.30
6.47
4.21
1.73
-0.75
-3.09
-5.22
-7.16
-8.98
-10.75
-12.57
-14.51
-16.60
-18.84
-21.07
-22.98
-24.11
-24.01
-22.42
-19.39
-15.26
-10.59
-5.92
-1.66
1.91
4.62
6.26
6.68
5.81
3.84
1.15
-1.80
-4.54
-6.78
-8.37
-9.34
-9.78
-9.85
-9.68
-9.39
-9.03
-8.61
-8.11
-7.54
-6.97
-6.51
-6.23
-6.14
-6.09
-5.88
-5.34
-4.47
-3.39
-2.31
-1.40
-0.70
-0.22
0.05
0.06
-0.26
-0.96
-1.94
-2.91
-3.51
-3.50
-2.91
-2.07
-1.47
-1.53
-2.38
-3.80
-5.31
-6.41
-6.77
-6.38
-5.50
-4.46
-3.52
-2.71
-1.83
-0.51
1.60
4.71
8.80
13.59
18.55
23.00
26.27
27.94
27.97
26.87
25.47
24.60
24.69
25.55
26.37
26.09
23.82
19.23
12.62
4.79
-3.30
-10.76
-16.97
-21.55
-24.34
-25.29
-24.47
-22.10
-18.50
-14.15
-9.57
-5.26
-1.64
1.06
2.76
3.59
3.77
3.54
3.16
2.78
2.47
2.19
1.86
1.36
0.69
-0.03
-0.58
-0.69
-0.19
0.87
2.26
3.63
4.64
5.08
4.98
4.48
3.79
3.08
2.39
1.70
0.93
-0.00
-1.16
-2.57
-4.27
-6.18
-8.21
-10.17
-11.86
-13.11
-13.85
-14.15
-14.22
-14.34
-14.68
-15.30
-16.06
-16.75
-17.19
-17.30
-17.09
-16.64
-15.99
-15.21
-14.44
-13.95
-14.16
-15.44
-17.89
-21.18
-24.53
-26.89
-27.36
-25.55
-21.77
-16.89
-12.09
-8.37
-6.30
-5.96
-6.96
-8.77
-10.74
-12.25
-12.64
-11.31
-7.74
-1.70
6.68
16.87
28.10
39.56
50.53
60.44
68.66
74.39
76.51
73.85
65.70
52.39
35.71
18.67
4.71
-3.40
-4.48
0.82
10.48
22.00
33.24
42.72
49.50
52.82
51.97
46.42
36.17
22.10
5.89
-10.36
-24.74
-36.11
-44.23
-49.63
-53.16
-55.43
-56.53
-56.06
-53.42
-48.23
-40.64
-31.39
-21.54
-12.23
-4.33
1.65
5.58
7.61
8.07
7.41
6.13
4.70
3.55
2.95
3.03
3.70
4.67
5.45
5.55
4.60
2.54
-0.32
-3.43
-6.20
-8.23
-9.46
-10.09
-10.50
-11.01
-11.82
-12.93
-14.29
-15.80
-17.37
-18.91
-20.28
-21.31
-21.90
-22.16
-22.45
-23.30
-25.02
-27.26
-28.86
-28.00
-22.89
-12.52
2.80
21.45
40.93
58.54
71.91
79.24
79.28
71.56
56.64
36.48
14.39
-5.44
-19.16
-24.34
-20.78
-10.41
3.34
16.67
26.34
30.28
27.83
19.60
7.25
-6.91
-20.28
-30.44
-35.52
-34.46
-27.17
-14.57
1.43
18.04
32.06
40.47
41.27
34.08
20.42
3.33
-13.47
-26.59
-33.78
-34.31
-28.90
-19.29
-7.63
3.92
13.54
19.84
21.94
19.45
12.52
1.82
-11.47
-25.93
-40.16
-52.95
-63.30
-70.25
-72.90
-70.53
-63.03
-51.22
-36.88
-22.30
-9.52
0.29
7.04
11.45
14.38
16.40
17.70
18.24
18.07
17.47
16.81
16.40
16.32
16.44
16.56
16.42
15.95
15.17
14.25
13.44
12.96
12.86
12.96
12.92
12.36
11.14
9.38
7.51
6.02
5.24
5.20
5.63
6.14
6.37
6.13
5.46
4.61
3.89
3.62
3.92
4.76
5.94
7.15
8.13
8.66
8.67
8.10
6.99
5.31
3.13
0.55
-2.18
-4.77
-6.92
-8.45
-9.38
-9.89
-10.23
-10.64
-11.23
-12.03
-12.98
-14.05
-15.23
-16.46
-17.51
-17.90
-16.91
-13.84
-8.18
0.13
10.65
22.57
34.82
46.16
55.33
61.07
62.41
58.92
51.08
40.29
28.63
18.31
11.08
7.84
8.56
12.49
18.43
25.08
31.11
35.37
36.94
35.27
30.28
22.35
12.27
1.01
-10.40
-21.00
-29.96
-36.67
-40.75
-42.16
-41.17
-38.32
-34.25
-29.68
-25.18
-21.14
-17.76
-15.02
-12.83
-11.07
-9.66
-8.57
-7.84
-7.45
-7.37
-7.43
-7.47
-7.33
-6.94
-6.36
-5.68
-5.02
-4.40
-3.79
-3.11
-2.27
-1.31
-0.35
0.46
1.00
1.28
1.47
1.74
2.21
2.79
3.29
3.48
3.25
2.70
2.10
1.68
1.57
1.69
1.86
1.90
1.72
1.35
0.89
0.43
0.02
-0.37
-0.78
-1.25
-1.78
-2.29
-2.74
-3.11
-3.46
-3.95
-4.73
-5.87
-7.30
-8.80
-10.10
-10.95
-11.25
-11.04
-10.50
-9.85
-9.24
-8.78
-8.48
-8.31
-8.22
-8.20
-8.32
-8.66
-9.29
-10.14
-11.01
-11.62
-11.71
-11.15
-10.02
-8.49
-6.77
-5.02
-3.26
-1.51
0.23
1.94
3.61
5.32
7.20
9.43
12.05
14.94
17.82
20.40
22.46
24.04
25.37
26.67
28.03
29.25
29.88
29.48
27.82
25.01
21.44
17.61
13.87
10.37
7.04
3.80
0.66
-2.16
-4.38
-5.74
-6.15
-5.70
-4.64
-3.28
-1.86
-0.56
0.57
1.58
2.59
3.76
5.25
7.13
9.35
11.70
13.79
15.17
15.38
14.12
11.28
7.00
1.66
-4.14
-9.72
-14.37
-17.50
-18.78
-18.20
-16.08
-13.03
-9.78
-7.00
-5.16
-4.45
-4.82
-6.02
-7.75
-9.70
-11.51
-12.83
-13.32
-12.78
-11.22
-8.96
-6.48
-4.40
-3.18
-3.07
-4.01
-5.71
-7.77
-9.82
-11.57
-12.86
-13.59
-13.68
-12.96
-11.32
-8.68
-5.18
-1.18
2.79
6.22
8.82
10.59
11.80
12.82
13.97
15.35
16.82
18.09
18.87
18.98
18.49
17.62
16.64
15.78
15.10
14.55
14.01
13.36
12.55
11.56
10.37
8.89
7.05
4.82
2.29
-0.29
-2.62
-4.49
-5.89
-6.97
-8.06
-9.42
-11.19
-13.24
-15.25
-16.84
-17.69
-17.74
-17.14
-16.19
-15.16
-14.15
-13.09
-11.82
-10.24
-8.45
-6.71
-5.31
-4.41
-3.94
-3.67
-3.29
-2.57
-1.50
-0.23
1.01
1.99
2.59
2.84
2.82
2.67
2.45
2.19
1.86
1.47
1.06
0.74
0.64
0.74
0.98
1.13
1.03
0.58
-0.17
-1.02
-1.77
-2.28
-2.54
-2.66
-2.83
-3.18
-3.75
-4.46
-5.16
-5.68
-5.88
-5.72
-5.23
-4.56
-3.86
-3.22
-2.65
-2.07
-1.38
-0.58
0.25
0.93
1.28
1.23
0.83
0.24
-0.38
-0.95
-1.48
-2.02
-2.60
-3.20
-3.72
-4.07
-4.18
-4.10
-3.96
-3.92
-4.12
-4.60
-5.30
-6.12
-6.96
-7.81
-8.72
-9.78
-11.00
-12.33
-13.62
-14.74
-15.60
-16.28
-16.91
-17.69
-18.73
-20.03
-21.38
-22.45
-22.76
-21.81
-19.25
-14.88
-8.83
-1.50
6.42
14.16
20.95
26.24
29.75
31.44
31.53
30.36
28.29
25.69
22.82
19.86
16.89
13.89
10.80
7.59
4.36
1.27
-1.32
-3.09
-3.69
-2.86
-0.51
3.27
8.05
13.13
17.63
20.76
22.03
21.46
19.53
16.97
14.44
12.32
10.64
9.20
7.83
6.53
5.52
5.10
5.53
6.77
8.45
9.95
10.66
10.19
8.61
6.40
4.34
3.13
3.23
4.61
6.91
9.55
12.04
14.04
15.37
15.87
15.34
13.46
9.89
4.47
-2.62
-10.84
-19.43
-27.62
-34.83
-40.64
-44.60
-45.97
-43.76
-37.11
-25.84
-10.97
5.33
20.36
31.76
38.44
40.77
40.23
38.64
37.38
36.98
36.99
36.24
33.16
26.25
14.68
-1.27
-19.87
-38.24
-53.10
-61.83
-63.29
-58.00
-47.74
-34.83
-21.40
-9.08
1.06
8.44
12.91
14.83
15.07
14.72
14.72
15.42
16.44
16.94
16.11
13.64
9.92
5.79
2.07
-0.95
-3.73
-7.24
-12.51
-20.07
-29.58
-39.94
-49.55
-56.77
-60.18
-58.77
-52.10
-40.41
-24.78
-7.20
9.79
23.65
32.52
35.78
34.09
29.11
22.80
16.91
12.45
9.58
7.68
5.62
2.22
-3.27
-10.80
-19.49
-27.86
-34.33
-37.56
-36.76
-31.68
-22.59
-10.30
3.83
18.00
30.33
39.40
44.71
46.80
46.87
46.09
45.04
43.54
41.01
37.00
31.61
25.45
19.23
13.14
6.61
-1.51
-12.30
-25.95
-41.29
-55.86
-66.57
-70.71
-66.91
-55.64
-39.11
-20.63
-3.57
9.49
17.36
20.38
20.02
18.35
17.24
17.78
19.87
22.26
22.99
20.24
13.19
2.59
-9.28
-19.40
-25.04
-24.81
-19.02
-9.47
1.41
11.36
18.96
23.79
26.19
26.99
27.17
27.49
28.29
29.30
29.71
28.35
24.23
17.04
7.41
-3.19
-12.94
-20.29
-24.38
-25.21
-23.38
-19.76
-15.25
-10.64
-6.68
-4.10
-3.42
-4.79
-7.80
-11.52
-14.80
-16.75
-17.05
-16.05
-14.52
-13.20
-12.54
-12.46
-12.53
-12.24
-11.27
-9.61
-7.48
-5.22
-3.12
-1.34
0.07
1.17
2.03
2.78
3.52
4.31
5.14
5.87
6.33
6.38
6.01
5.32
4.56
3.92
3.50
3.29
3.21
3.15
3.05
2.89
2.69
2.45
2.19
1.91
1.58
1.20
0.77
0.29
-0.20
-0.67
-1.10
-1.51
-1.95
-2.49
-3.14
-3.82
-4.37
-4.57
-4.28
-3.50
-2.34
-0.99
0.39
1.68
2.85
3.86
4.67
5.26
5.62
5.78
5.78
5.63
5.27
4.66
3.75
2.62
1.46
0.50
-0.08
-0.24
-0.13
0.01
-0.07
-0.52
-1.33
-2.36
-3.44
-4.43
-5.28
-6.01
-6.65
-7.18
-7.50
-7.46
-6.91
-5.87
-4.54
-3.29
-2.56
-2.64
-3.52
-4.90
-6.29
-7.21
-7.36
-6.70
-5.40
-3.71
-1.84
0.08
1.98
3.75
5.26
6.34
6.92
7.06
6.97
6.93
7.23
8.03
9.33
11.05
12.97
14.90
16.67
18.17
19.32
20.01
20.10
19.49
18.11
16.04
13.52
10.89
8.54
6.72
5.47
4.61
3.87
3.00
1.90
0.59
-0.82
-2.29
-3.84
-5.51
-7.26
-8.90
-10.12
-10.62
-10.23
-9.07
-7.45
-5.77
-4.43
-3.62
-3.40
-3.62
-4.09
-4.58
-4.93
-5.07
-4.94
-4.55
-3.86
-2.84
-1.50
0.10
1.84
3.51
4.87
5.75
6.12
6.10
5.96
5.95
6.18
6.56
6.81
6.63
5.84
4.52
2.93
1.42
0.25
-0.49
-0.90
-1.14
-1.35
-1.62
-1.95
-2.32
-2.71
-3.12
-3.53
-3.95
-4.33
-4.61
-4.67
-4.42
-3.85
-3.03
-2.12
-1.31
-0.70
-0.29
0.04
0.46
1.05
1.81
2.59
3.27
3.76
4.08
4.29
4.43
4.51
4.51
4.38
4.17
3.93
3.72
3.60
3.50
3.34
3.04
2.56
1.89
1.08
0.16
-0.78
-1.61
-2.18
-2.35
-2.11
-1.61
-1.11
-0.87
-1.10
-1.80
-2.83
-3.94
-4.84
-5.34
-5.33
-4.82
-3.93
-2.85
-1.78
-0.86
-0.18
0.24
0.39
0.35
0.22
0.15
0.30
0.79
1.59
2.53
3.41
4.05
4.36
4.36
4.11
3.65
2.97
2.08
1.08
0.13
-0.57
-0.84
-0.70
-0.31
0.02
-0.00
-0.50
-1.39
-2.40
-3.22
-3.69
-3.86
-3.96
-4.20
-4.69
-5.29
-5.72
-5.70
-5.11
-4.01
-2.64
-1.28
-0.15
0.68
1.23
1.57
1.81
2.03
2.26
2.45
2.60
2.64
2.58
2.48
2.41
2.42
2.50
2.57
2.49
2.14
1.47
0.58
-0.32
-0.99
-1.24
-1.09
-0.69
-0.27
-0.03
0.00
-0.07
-0.13
-0.16
-0.28
-0.64
-1.36
-2.36
-3.40
-4.21
-4.62
-4.61
-4.34
-3.94
-3.51
-3.04
-2.50
-1.92
-1.41
-1.03
-0.79
-0.54
-0.08
0.71
1.80
2.96
3.89
4.28
3.97
3.02
1.70
0.41
-0.46
-0.65
-0.18
0.70
1.61
2.19
2.29
2.01
1.58
1.24
1.10
1.05
0.89
0.46
-0.28
-1.19
-2.03
-2.60
-2.79
-2.60
-2.17
-1.64
-1.12
-0.72
-0.48
-0.47
-0.72
-1.22
-1.91
-2.63
-3.22
-3.55
-3.59
-3.39
-3.10
-2.86
-2.75
-2.72
-2.67
-2.46
-1.98
-1.25
-0.38
0.42
0.94
1.02
0.68
0.07
-0.56
-0.97
-1.08
-0.94
-0.69
-0.49
-0.36
-0.25
-0.02
0.39
0.91
1.38
1.61
1.53
1.22
0.85
0.62
0.61
0.76
0.89
0.80
0.34
-0.51
-1.63
-2.79
-3.76
-4.35
-4.49
-4.21
-3.63
-2.91
-2.17
-1.49
-0.89
-0.34
0.17
0.67
1.13
1.54
1.85
2.03
2.10
2.08
2.03
1.94
1.80
1.59
1.29
0.97
0.72
0.61
0.67
0.85
1.08
1.30
1.52
1.75
2.01
2.21
2.23
1.94
1.34
0.48
-0.42
-1.19
-1.67
-1.85
-1.80
-1.65
-1.55
-1.58
-1.78
-2.13
-2.59
-3.10
-3.61
-4.05
-4.37
-4.52
-4.44
-4.10
-3.48
-2.61
-1.61
-0.60
0.26
0.89
1.29
1.55
1.80
2.13
2.51
2.77
2.75
2.34
1.65
0.90
0.41
0.37
0.76
1.35
1.86
2.08
1.99
1.74
1.50
1.34
1.17
0.83
0.23
-0.55
-1.29
-1.75
-1.78
-1.46
-0.97
-0.56
-0.34
-0.32
-0.43
-0.63
-0.95
-1.45
-2.13
-2.84
-3.37
-3.52
-3.24
-2.67
-2.03
-1.51
-1.16
-0.91
-0.62
-0.22
0.24
0.68
1.00
1.19
1.30
1.35
1.36
1.30
1.16
1.02
1.02
1.25
1.67
2.16
2.53
2.70
2.70
2.68
2.80
3.09
3.40
3.54
3.38
2.89
2.21
1.50
0.85
0.27
-0.33
-1.02
-1.83
-2.68
-3.46
-4.09
-4.52
-4.82
-5.03
-5.20
-5.30
-5.25
-5.00
-4.54
-3.92
-3.24
-2.56
-1.95
-1.36
-0.75
-0.08
0.69
1.48
2.19
2.67
2.79
2.55
2.06
1.57
1.35
1.58
2.26
3.18
4.09
4.71
4.93
4.76
4.33
3.76
3.14
2.46
1.69
0.81
-0.11
-0.91
-1.41
-1.50
-1.14
-0.50
0.13
0.46
0.30
-0.41
-1.51
-2.74
-3.83
-4.57
-4.84
-4.65
-4.10
-3.31
-2.42
-1.51
-0.66
0.10
0.74
1.22
1.53
1.67
1.67
1.64
1.68
1.82
2.04
2.21
2.25
2.10
1.81
1.45
1.10
0.82
0.60
0.47
0.47
0.65
0.98
1.37
1.61
1.47
0.85
-0.18
-1.35
-2.35
-2.95
-3.14
-3.06
-2.90
-2.84
-2.93
-3.15
-3.42
-3.68
-3.86
-3.88
-3.67
-3.17
-2.37
-1.40
-0.43
0.35
0.84
1.05
1.13
1.21
1.44
1.85
2.38
2.90
3.31
3.52
3.50
3.27
2.85
2.30
1.67
1.07
0.62
0.46
0.64
1.10
1.66
2.05
2.04
1.53
0.57
-0.66
-1.94
-3.09
-4.03
-4.73
-5.19
-5.42
-5.42
-5.20
-4.82
-4.41
-4.16
-4.28
-4.86
-5.87
-7.09
-8.23
-9.04
-9.37
-9.24
-8.81
-8.24
-7.62
-6.99
-6.33
-5.66
-5.07
-4.67
-4.56
-4.72
-5.02
-5.23
-5.14
-4.69
-3.91
-2.99
-2.13
-1.40
-0.71
0.18
1.52
3.46
6.00
8.99
12.24
15.58
18.86
21.90
24.46
26.30
27.29
27.49
27.15
26.55
25.83
24.92
23.54
21.41
18.36
14.44
9.86
4.93
-0.07
-4.82
-9.04
-12.40
-14.65
-15.71
-15.66
-14.74
-13.28
-11.51
-9.57
-7.51
-5.38
-3.28
-1.39
0.15
1.26
1.99
2.46
2.79
3.00
3.04
2.84
2.41
1.86
1.34
0.96
0.72
0.48
0.05
-0.70
-1.75
-2.95
-4.10
-5.07
-5.82
-6.47
-7.15
-7.96
-8.93
-9.94
-10.85
-11.50
-11.76
-11.61
-11.10
-10.33
-9.37
-8.21
-6.82
-5.10
-3.05
-0.75
1.63
3.90
5.89
7.49
8.64
9.27
9.28
8.63
7.35
5.63
3.75
2.03
0.67
-0.28
-0.91
-1.37
-1.76
-2.08
-2.30
-2.38
-2.38
-2.39
-2.52
-2.82
-3.25
-3.71
-4.09
-4.31
-4.34
-4.12
-3.54
-2.47
-0.85
1.22
3.41
5.27
6.37
6.46
5.56
3.90
1.83
-0.34
-2.37
-4.09
-5.38
-6.15
-6.36
-6.08
-5.42
-4.54
-3.52
-2.43
-1.30
-0.12
1.05
2.16
3.14
3.99
4.75
5.55
6.51
7.74
9.26
11.00
12.76
14.35
15.53
16.14
16.01
15.04
13.18
10.50
7.21
3.66
0.33
-2.35
-4.04
-4.62
-4.21
-3.14
-1.89
-0.92
-0.55
-0.86
-1.60
-2.34
-2.60
-2.09
-0.84
0.80
2.35
3.43
3.94
4.02
3.94
3.88
3.84
3.65
3.18
2.39
1.47
0.69
0.24
0.15
0.25
0.34
0.31
0.23
0.30
0.66
1.32
2.08
2.57
2.41
1.34
-0.60
-3.15
-5.87
-8.29
-10.06
-11.02
-11.19
-10.72
-9.83
-8.74
-7.66
-6.77
-6.25
-6.23
-6.80
-7.97
-9.64
-11.63
-13.69
-15.59
-17.14
-18.30
-19.06
-19.45
-19.44
-18.92
-17.75
-15.89
-13.44
-10.67
-7.86
-5.23
-2.88
-0.80
1.07
2.75
4.25
5.57
6.75
7.84
8.91
9.93
10.86
11.60
12.05
12.16
11.87
11.22
10.30
9.28
8.35
7.67
7.32
7.22
7.22
7.17
6.97
6.66
6.33
6.07
5.91
5.80
5.61
5.21
4.50
3.50
2.31
1.10
0.06
-0.69
-1.11
-1.29
-1.32
-1.32
-1.32
-1.31
-1.28
-1.22
-1.19
-1.23
-1.31
-1.37
-1.34
-1.19
-1.02
-1.02
-1.38
-2.20
-3.43
-4.86
-6.19
-7.14
-7.53
-7.39
-6.83
-6.06
-5.19
-4.28
-3.30
-2.26
-1.23
-0.42
-0.05
-0.27
-1.09
-2.33
-3.69
-4.93
-5.88
-6.49
-6.76
-6.69
-6.23
-5.33
-4.01
-2.41
-0.79
0.58
1.51
1.94
1.98
1.77
1.44
1.04
0.55
-0.05
-0.72
-1.34
-1.77
-1.90
-1.71
-1.29
-0.77
-0.30
0.03
0.16
0.07
-0.23
-0.73
-1.39
-2.08
-2.68
-3.08
-3.19
-2.97
-2.45
-1.62
-0.44
1.16
3.22
5.73
8.59
11.55
14.31
16.54
18.00
18.55
18.17
16.98
15.20
13.10
10.93
8.92
7.19
5.70
4.35
2.99
1.49
-0.12
-1.71
-3.10
-4.11
-4.70
-4.91
-4.85
-4.62
-4.27
-3.82
-3.24
-2.55
-1.81
-1.13
-0.62
-0.38
-0.40
-0.64
-0.99
-1.33
-1.60
-1.80
-1.97
-2.18
-2.38
-2.54
-2.55
-2.41
-2.15
-1.91
-1.83
-2.01
-2.46
-3.08
-3.73
-4.27
-4.59
-4.64
-4.43
-4.04
-3.61
-3.31
-3.28
-3.58
-4.13
-4.81
-5.47
-5.99
-6.33
-6.51
-6.59
-6.64
-6.73
-6.89
-7.17
-7.52
-7.87
-8.04
-7.85
-7.13
-5.85
-4.11
-2.17
-0.35
1.10
2.10
2.82
3.65
5.03
7.26
10.29
13.66
16.60
18.34
18.39
16.72
13.75
10.19
6.78
4.12
2.52
2.03
2.41
3.25
4.06
4.35
3.81
2.45
0.52
-1.56
-3.40
-4.85
-6.06
-7.41
-9.25
-11.62
-14.00
-15.27
-13.96
-8.77
0.87
14.41
30.21
45.98
59.48
69.14
74.35
75.28
72.49
66.48
57.58
46.16
32.82
18.55
4.57
-7.97
-18.39
-26.57
-32.84
-37.72
-41.53
-44.29
-45.77
-45.73
-44.11
-41.22
-37.63
-34.01
-30.91
-28.52
-26.69
-25.04
-23.16
-20.86
-18.17
-15.32
-12.61
-10.23
-8.23
-6.51
-4.97
-3.49
-2.08
-0.78
0.35
1.27
1.97
2.47
2.81
3.04
3.23
3.44
3.76
4.24
4.90
5.66
6.33
6.70
6.62
6.06
5.13
4.08
3.09
2.26
1.54
0.76
-0.21
-1.39
-2.66
-3.81
-4.58
-4.83
-4.57
-3.96
-3.28
-2.82
-2.77
-3.18
-3.89
-4.65
-5.13
-5.07
-4.33
-2.93
-1.06
0.97
2.75
3.84
3.90
2.88
1.05
-1.03
-2.70
-3.50
-3.33
-2.47
-1.39
-0.49
0.10
0.51
1.03
1.83
2.84
3.83
4.46
4.61
4.29
3.71
3.10
2.60
2.30
2.20
2.31
2.64
3.14
3.75
4.44
5.20
6.09
7.16
8.42
9.76
10.98
11.89
12.44
12.75
13.05
13.48
13.99
14.29
13.97
12.74
10.53
7.59
4.39
1.43
-0.94
-2.66
-3.84
-4.73
-5.49
-6.20
-6.75
-7.05
-7.01
-6.65
-6.07
-5.39
-4.68
-3.92
-3.03
-1.96
-0.69
0.67
1.94
2.88
3.33
3.20
2.56
1.58
0.49
-0.48
-1.16
-1.49
-1.49
-1.24
-0.86
-0.44
-0.02
0.37
0.69
0.87
0.84
0.55
0.04
-0.56
-1.06
-1.30
-1.25
-0.99
-0.71
-0.58
-0.70
-1.01
-1.35
-1.61
-1.72
-1.79
-1.97
-2.39
-3.06
-3.84
-4.50
-4.83
-4.71
-4.21
-3.48
-2.72
-2.09
-1.64
-1.35
-1.17
-1.07
-1.04
-1.08
-1.18
-1.25
-1.18
-0.89
-0.40
0.16
0.59
0.73
0.53
0.07
-0.49
-0.99
-1.41
-1.78
-2.19
-2.69
-3.32
-4.11
-5.20
-6.89
-9.46
-13.03
-17.36
-21.78
-25.38
-27.34
-27.23
-25.13
-21.56
-17.21
-12.62
-8.07
-3.65
0.61
4.53
7.82
10.27
11.86
12.90
13.84
15.07
16.70
18.44
19.81
20.32
19.73
18.10
15.76
13.09
10.46
8.08
6.03
4.34
2.97
1.93
1.22
0.90
0.93
1.20
1.46
1.40
0.72
-0.75
-2.91
-5.42
-7.81
-9.65
-10.74
-11.19
-11.31
-11.51
-12.09
-13.07
-14.25
-15.30
-15.98
-16.23
-16.18
-16.03
-15.90
-15.66
-14.94
-13.24
-9.97
-4.67
2.84
12.34
23.09
33.86
43.19
49.77
52.86
52.61
49.95
46.29
43.01
41.07
40.91
42.40
45.03
48.00
50.30
50.98
49.42
45.55
39.96
33.51
26.95
20.52
13.92
6.70
-1.28
-9.51
-17.01
-22.80
-26.32
-27.75
-27.76
-27.21
-26.76
-26.70
-27.06
-27.77
-28.78
-30.15
-32.11
-34.97
-38.95
-44.13
-50.35
-57.13
-63.87
-69.95
-74.87
-78.28
-79.79
-79.03
-75.65
-69.56
-61.18
-51.40
-41.48
-32.60
-25.51
-20.29
-16.37
-12.81
-8.78
-3.84
1.87
7.72
12.89
16.69
18.78
19.20
18.30
16.56
14.41
12.20
10.19
8.61
7.68
7.60
8.55
10.83
14.75
20.64
28.55
38.07
48.32
58.15
66.47
72.66
76.68
78.99
80.31
81.32
82.60
84.54
87.34
91.00
95.20
99.28
102.22
102.92
100.37
93.96
83.68
70.03
53.89
36.12
17.34
-2.15
-22.11
-41.96
-60.53
-76.13
-87.01
-92.09
-91.43
-86.25
-78.47
-69.96
-61.97
-55.00
-48.98
-43.64
-38.74
-34.00
-29.04
-23.25
-16.01
-7.00
3.51
14.65
25.14
33.84
40.05
43.75
45.46
45.92
45.83
45.62
45.51
45.53
45.59
45.49
44.95
43.60
41.08
37.08
31.33
23.68
14.08
2.67
-10.14
-23.64
-36.96
-49.26
-59.95
-68.77
-75.72
-80.91
-84.44
-86.34
-86.58
-85.17
-82.18
-77.75
-72.10
-65.51
-58.37
-51.17
-44.45
-38.59
-33.75
-29.81
-26.47
-23.41
-20.38
-17.28
-14.10
-10.92
-7.89
-5.17
-2.88
-1.08
0.39
1.77
3.35
5.23
7.32
9.35
11.03
12.25
13.06
13.61
14.01
14.19
13.96
13.16
11.79
10.09
8.42
7.11
6.29
5.88
5.65
5.35
4.88
4.23
3.46
2.66
1.87
1.07
0.23
-0.63
-1.46
-2.21
-2.78
-3.14
-3.27
-3.16
-2.83
-2.33
-1.73
-1.14
-0.63
-0.25
0.02
0.26
0.57
1.01
1.56
2.17
2.72
3.16
3.46
3.66
3.81
3.97
4.17
4.43
4.73
5.09
5.49
5.95
6.38
6.73
6.89
6.83
6.59
6.28
6.02
5.88
5.86
5.91
5.97
6.03
6.14
6.36
6.71
7.12
7.49
7.78
8.01
8.33
8.89
9.74
10.83
12.00
13.09
13.99
14.68
15.22
15.63
15.96
16.21
16.41
16.60
16.80
16.98
17.04
16.90
16.50
15.85
14.98
13.96
12.77
11.39
9.80
7.99
6.01
3.89
1.64
-0.94
-4.15
-8.41
-14.07
-21.17
-29.31
-37.74
-45.56
-51.99
-56.68
-59.71
-61.51
-62.65
-63.59
-64.68
-66.20
-68.40
-71.41
-75.04
-78.55
-80.65
-79.87
-75.05
-65.78
-52.62
-36.82
-19.83
-2.85
13.37
28.34
41.46
51.86
58.49
60.67
58.49
53.05
46.15
39.61
34.55
31.11
28.66
26.34
23.69
20.82
18.15
15.88
13.67
10.70
6.24
0.25
-6.36
-12.07
-15.43
-15.78
-13.38
-9.01
-3.36
3.49
11.87
22.16
34.23
47.37
60.51
72.64
83.11
91.52
97.38
99.97
98.50
92.61
82.76
70.20
56.52
43.01
30.30
18.37
6.98
-3.93
-14.02
-22.62
-29.09
-33.07
-34.63
-34.19
-32.47
-30.31
-28.57
-28.04
-29.21
-32.12
-36.23
-40.56
-44.01
-45.69
-45.32
-43.32
-40.68
-38.56
-37.84
-38.81
-41.07
-43.73
-45.80
-46.50
-45.42
-42.54
-38.09
-32.41
-25.93
-19.13
-12.48
-6.43
-1.27
2.89
6.16
8.79
11.02
13.03
14.88
16.52
17.88
18.92
19.63
20.04
20.18
20.14
20.01
19.85
19.69
19.46
19.02
18.21
17.00
15.45
13.78
12.20
10.87
9.86
9.15
8.75
8.65
8.80
9.08
9.29
9.25
8.88
8.33
7.84
7.69
8.03
8.81
9.78
10.60
10.88
10.24
8.36
5.10
0.68
-4.33
-9.09
-12.80
-15.02
-15.80
-15.64
-15.15
-14.76
-14.59
-14.48
-14.27
-13.87
-13.35
-12.74
-11.89
-10.48
-8.16
-4.77
-0.54
3.98
8.15
11.38
13.41
14.27
14.22
13.61
12.73
11.77
10.82
9.89
8.96
7.97
6.84
5.55
4.08
2.52
0.99
-0.35
-1.43
-2.24
-2.91
-3.61
-4.50
-5.63
-6.89
-8.03
-8.68
-8.52
-7.36
-5.22
-2.41
0.56
3.17
5.07
6.19
6.74
7.05
7.36
7.68
7.86
7.69
7.09
6.18
5.23
4.46
3.98
3.73
3.63
3.61
3.67
3.83
3.99
3.98
3.56
2.56
1.00
-0.95
-2.97
-4.73
-5.99
-6.64
-6.70
-6.31
-5.65
-4.89
-4.19
-3.60
-3.14
-2.81
-2.57
-2.46
-2.47
-2.58
-2.67
-2.64
-2.33
-1.73
-0.91
-0.08
0.48
0.52
-0.12
-1.47
-3.52
-6.17
-9.34
-12.90
-16.59
-20.07
-22.90
-24.73
-25.41
-25.12
-24.25
-23.28
-22.60
-22.35
-22.49
-22.82
-23.16
-23.32
-23.17
-22.53
-21.25
-19.18
-16.32
-12.82
-9.01
-5.27
-1.93
0.81
2.94
4.58
5.93
7.20
8.55
10.01
11.53
13.03
14.40
15.58
16.59
17.49
18.40
19.41
20.53
21.71
22.77
23.52
23.78
23.46
22.61
21.36
19.88
18.32
16.73
15.08
13.32
11.43
9.45
7.49
5.64
3.94
2.40
0.98
-0.37
-1.60
-2.64
-3.46
-4.06
-4.54
-5.03
-5.63
-6.37
-7.17
-7.88
-8.33
-8.37
-7.93
-7.04
-5.82
-4.47
-3.18
-2.11
-1.31
-0.71
-0.20
0.27
0.72
1.05
1.18
1.11
0.92
0.78
0.84
1.15
1.63
2.15
2.57
2.83
2.94
2.93
2.83
2.59
2.18
1.58
0.80
-0.13
-1.21
-2.47
-3.90
-5.40
-6.75
-7.68
-7.97
-7.57
-6.62
-5.39
-4.21
-3.33
-2.86
-2.77
-2.92
-3.13
-3.24
-3.19
-3.00
-2.71
-2.36
-1.87
-1.12
-0.04
1.39
3.01
4.57
5.85
6.72
7.16
7.24
7.05
6.65
6.05
5.22
4.13
2.81
1.43
0.21
-0.60
-0.87
-0.66
-0.20
0.17
0.19
-0.20
-0.86
-1.56
-2.08
-2.34
-2.36
-2.22
-1.97
-1.63
-1.21
-0.75
-0.36
-0.16
-0.23
-0.61
-1.20
-1.83
-2.29
-2.36
-1.96
-1.11
0.03
1.22
2.23
2.96
3.40
3.67
3.87
4.03
4.08
3.90
3.38
2.55
1.55
0.61
-0.06
-0.36
-0.34
-0.15
0.00
-0.03
-0.24
-0.50
-0.61
-0.43
0.07
0.78
1.50
2.10
2.53
2.84
3.12
3.44
3.80
4.10
4.16
3.84
3.02
1.72
0.05
-1.77
-3.49
-4.85
-5.68
-5.90
-5.48
-4.46
-2.92
-1.00
1.15
3.35
5.46
7.41
9.16
10.71
11.96
12.72
12.68
11.57
9.26
5.88
1.86
-2.19
-5.66
-8.11
-9.38
-9.60
-9.06
-8.09
-6.93
-5.75
-4.62
-3.60
-2.73
-1.98
-1.32
-0.63
0.19
1.19
2.35
3.56
4.71
5.69
6.38
6.62
6.22
4.98
2.79
-0.25
-3.84
-7.54
-10.87
-13.45
-15.06
-15.65
-15.38
-14.49
-13.29
-12.10
-11.11
-10.38
-9.83
-9.35
-8.81
-8.24
-7.73
-7.38
-7.25
-7.28
-7.38
-7.50
-7.62
-7.81
-8.14
-8.65
-9.29
-9.99
-10.66
-11.21
-11.62
-11.90
-12.15
-12.54
-13.27
-14.42
-15.90
-17.32
-18.10
-17.68
-15.63
-11.85
-6.44
0.37
8.38
17.33
26.90
36.50
45.30
52.36
56.88
58.48
57.30
54.01
49.62
45.14
41.30
38.27
35.60
32.27
27.06
18.98
7.85
-5.40
-18.78
-29.80
-36.30
-37.29
-33.62
-27.90
-23.72
-24.36
-31.42
-44.00
-58.86
-71.58
-78.26
-77.04
-68.68
-56.19
-43.73
-35.03
-32.27
-35.14
-40.71
-43.98
-39.27
-22.26
8.04
48.27
91.38
128.84
153.59
162.30
155.88
138.27
114.37
88.28
62.66
39.16
19.14
3.94
-5.45
-9.10
-8.47
-6.02
-4.39
-5.28
-8.93
-14.22
-19.32
-22.60
-23.31
-21.78
-19.13
-16.76
-15.69
-16.28
-18.12
-20.36
-22.03
-22.47
-21.45
-19.18
-16.15
-12.98
-10.27
-8.58
-8.30
-9.46
-11.54
-13.51
-14.03
-11.97
-6.97
0.30
8.27
15.06
19.38
21.09
21.33
22.07
25.23
31.97
42.11
54.10
65.33
72.67
73.24
65.23
48.58
25.25
-1.17
-26.34
-46.30
-58.38
-61.72
-57.22
-47.22
-34.84
-23.45
-15.91
-13.82
-16.98
-23.56
-30.91
-36.90
-40.79
-43.28
-45.57
-48.06
-49.72
-48.71
-43.68
-35.04
-25.06
-16.72
-11.95
-10.59
-10.74
-10.28
-8.52
-6.81
-7.58
-12.53
-21.05
-30.02
-35.16
-33.11
-23.05
-7.01
11.17
27.70
40.34
48.89
54.72
59.59
64.62
69.71
73.77
75.35
73.42
67.83
59.26
48.90
37.93
27.17
17.09
7.98
0.28
-5.35
-8.14
-7.62
-3.94
1.93
8.41
13.72
16.40
15.66
11.40
4.05
-5.81
-17.56
-30.43
-43.16
-53.84
-60.12
-60.14
-53.48
-41.79
-28.48
-17.64
-12.48
-14.27
-22.04
-33.20
-44.53
-53.06
-56.64
-54.23
-46.05
-33.54
-19.21
-6.07
3.22
7.10
5.58
-0.10
-7.98
-16.19
-23.26
-28.35
-31.13
-31.65
-30.30
-27.77
-24.98
-22.92
-22.44
-23.99
-27.50
-32.30
-37.26
-41.15
-43.03
-42.57
-40.19
-36.70
-33.01
-29.67
-26.75
-24.00
-21.20
-18.32
-15.59
-13.28
-11.45
-9.88
-8.11
-5.68
-2.31
2.00
6.99
12.29
17.50
22.26
26.30
29.45
31.66
33.02
33.74
34.11
34.44
34.96
35.82
37.01
38.45
39.91
41.05
41.53
41.09
39.67
37.44
34.75
32.00
29.50
27.40
25.63
24.07
22.59
21.11
19.65
18.26
16.91
15.57
14.21
12.87
11.69
10.87
10.59
10.82
11.41
12.02
12.34
12.18
11.54
10.59
9.55
8.60
7.81
7.19
6.71
6.31
5.99
5.72
5.47
5.25
5.04
4.89
4.86
5.00
5.32
5.81
6.39
6.95
7.39
7.65
7.68
7.50
7.18
6.81
6.51
6.32
6.24
6.20
6.10
5.83
5.36
4.73
4.09
3.62
3.45
3.66
4.20
4.96
5.81
6.62
7.35
7.96
8.46
8.84
9.06
9.12
9.03
8.79
8.48
8.13
7.76
7.40
7.04
6.63
6.16
5.60
4.96
4.25
3.48
2.62
1.66
0.64
-0.34
-1.16
-1.72
-2.01
-2.14
-2.24
-2.47
-2.89
-3.46
-4.11
-4.72
-5.23
-5.60
-5.82
-5.88
-5.75
-5.40
-4.81
-3.99
-2.96
-1.85
-0.84
-0.11
0.23
0.25
0.19
0.32
0.84
1.74
2.85
3.90
4.70
5.19
5.43
5.53
5.53
5.37
4.99
4.39
3.66
2.99
2.58
2.52
2.75
3.13
3.47
3.60
3.45
3.08
2.56
2.00
1.46
0.95
0.45
-0.09
-0.76
-1.62
-2.73
-4.08
-5.60
-7.12
-8.40
-9.28
-9.67
-9.68
-9.51
-9.41
-9.50
-9.71
-9.80
-9.48
-8.57
-7.12
-5.36
-3.67
-2.45
-1.97
-2.35
-3.53
-5.31
-7.43
-9.64
-11.87
-14.32
-17.49
-22.07
-28.69
-37.54
-48.15
-59.34
-69.51
-77.02
-80.56
-79.27
-72.77
-61.02
-44.28
-23.18
1.12
26.93
52.13
74.54
92.41
104.74
111.50
113.45
111.82
107.88
102.57
96.38
89.42
81.75
73.74
66.25
60.56
57.97
59.23
64.13
71.35
78.68
83.59
83.86
78.12
66.28
49.72
31.11
13.96
1.71
-3.43
-1.56
4.49
9.89
9.51
0.10
-18.24
-42.06
-65.96
-84.91
-96.06
-99.29
-96.36
-89.28
-79.16
-66.09
-50.03
-31.90
-14.04
0.43
8.90
10.49
6.46
-0.49
-7.44
-12.38
-14.81
-15.48
-15.59
-15.97
-16.77
-17.43
-17.23
-15.71
-12.98
-9.65
-6.54
-4.32
-3.27
-3.16
-3.50
-3.76
-3.56
-2.84
-1.77
-0.59
0.54
1.66
2.90
4.42
6.17
7.82
8.77
8.34
6.03
1.70
-4.27
-11.18
-18.11
-24.24
-28.98
-32.02
-33.34
-33.12
-31.63
-29.20
-26.15
-22.78
-19.35
-16.06
-13.03
-10.30
-7.77
-5.27
-2.61
0.35
3.57
6.86
9.94
12.58
14.77
16.81
19.19
22.42
26.75
32.04
37.78
43.35
48.32
52.66
56.74
61.16
66.47
73.03
80.85
89.66
98.99
108.19
116.56
123.52
128.81
132.68
135.76
138.67
141.58
143.77
143.74
139.76
130.58
116.19
98.03
78.76
61.52
49.16
43.63
45.67
54.92
70.13
89.61
111.57
134.46
157.12
178.68
198.26
214.60
225.93
230.18
225.54
211.25
187.99
157.77
123.33
87.23
51.24
16.13
-17.98
-51.18
-83.57
-115.21
-146.16
-176.37
-205.34
-231.87
-254.24
-270.78
-280.62
-284.16
-283.01
-279.30
-275.02
-271.43
-269.11
-268.22
-268.74
-270.43
-272.50
-273.27
-270.26
-260.77
-242.95
-216.68
-184.04
-148.91
-115.80
-88.39
-68.44
-55.47
-47.35
-41.49
-35.95
-30.01
-24.01
-18.68
-14.42
-10.94
-7.45
-3.21
1.96
7.56
12.67
16.49
18.82
20.12
21.18
22.63
24.44
25.88
25.82
23.24
17.65
9.26
-1.19
-12.90
-25.55
-39.64
-56.55
-78.18
-106.19
-141.27
-182.54
-227.47
-272.04
-311.32
-340.12
-353.89
-349.66
-326.74
-287.09
-234.95
-175.66
-114.24
-54.07
3.77
60.36
117.98
178.69
242.88
308.34
370.26
422.26
458.20
473.99
468.90
445.68
409.62
366.98
323.57
283.76
250.15
223.55
203.20
187.13
172.73
157.61
140.25
120.39
98.74
76.26
53.57
30.67
7.20
-17.05
-41.76
-66.24
-89.85
-112.53
-135.00
-158.44
-183.70
-211.01
-239.67
-268.66
-297.16
-324.97
-352.07
-377.61
-399.40
-414.63
-421.86
-422.93
-423.02
-428.30
-442.08
-461.83
-479.21
-483.49
-466.66
-427.29
-370.95
-306.97
-243.96
-186.41
-134.35
-85.48
-37.85
8.70
53.20
95.10
135.16
174.85
215.11
254.87
290.96
319.06
335.64
339.46
332.06
317.05
298.72
280.66
264.88
251.79
240.61
230.08
218.99
206.57
192.71
177.86
162.83
148.44
135.20
123.25
112.42
102.42
93.00
84.02
75.44
67.29
59.66
52.72
46.65
41.60
37.61
34.57
32.18
30.10
28.06
25.92
23.70
21.53
19.55
17.87
16.55
15.62
15.08
14.90
15.06
15.47
16.07
16.79
17.61
18.45
19.19
19.65
19.68
19.21
18.31
17.15
15.92
14.72
13.55
12.40
11.32
10.47
10.04
10.20
10.97
12.26
13.92
15.87
18.14
20.81
23.91
27.45
31.30
35.38
39.61
43.95
48.39
52.89
57.45
62.04
66.72
71.53
76.54
81.75
87.17
92.83
98.74
104.98
111.51
118.22
124.90
131.37
137.46
143.04
147.80
151.17
152.17
149.52
141.97
128.49
108.55
82.13
49.69
12.01
-29.91
-75.02
-122.33
-171.01
-220.51
-270.55
-321.02
-371.68
-421.57
-468.49
-508.72
-537.53
-550.37
-544.36
-519.61
-479.42
-429.28
-375.21
-321.92
-271.87
-225.38
-181.45
-138.70
-95.89
-52.05
-6.51
40.71
88.41
133.99
173.84
204.39
223.47
231.06
229.34
221.68
211.40
200.73
190.47
180.32
169.58
157.70
144.64
130.86
117.19
104.55
93.79
85.42
79.47
75.53
72.87
70.71
68.46
65.79
62.72
59.58
57.03
55.97
57.34
61.65
68.44
76.10
82.13
83.92
79.72
69.23
53.71
35.34
16.43
-1.16
-16.19
-27.84
-35.53
-38.95
-38.31
-34.48
-28.94
-23.54
-20.04
-19.65
-22.65
-28.03
-33.52
-36.02
-32.60
-21.69
-3.85
18.12
40.20
58.40
70.18
74.92
73.60
67.92
59.46
49.19
37.64
25.18
12.43
0.34
-9.97
-17.52
-21.83
-23.14
-22.38
-20.64
-18.73
-16.70
-13.87
-9.26
-2.26
6.78
16.54
25.19
31.10
33.43
32.34
28.72
23.69
18.15
12.63
7.37
2.57
-1.51
-4.52
-6.23
-6.68
-6.22
-5.37
-4.65
-4.38
-4.60
-5.17
-5.95
-6.83
-7.82
-8.98
-10.30
-11.73
-13.23
-14.85
-16.67
-18.80
-21.25
-23.87
-26.41
-28.61
-30.32
-31.49
-32.25
-32.78
-33.34
-34.18
-35.55
-37.58
-40.18
-43.10
-45.90
-48.18
-49.64
-50.07
-49.41
-47.67
-44.95
-41.56
-38.03
-35.02
-33.22
-33.06
-34.58
-37.43
-41.03
-44.72
-47.93
-50.15
-50.87
-49.54
-45.63
-38.80
-29.11
-17.02
-3.32
10.99
25.02
38.10
49.86
60.17
68.99
76.16
81.48
84.79
86.22
86.32
85.98
86.03
86.75
87.59
87.34
84.66
78.78
70.03
59.72
49.65
41.39
35.76
32.71
31.61
31.65
32.26
33.12
34.19
35.53
37.08
38.69
40.07
40.95
41.17
40.80
40.12
39.58
39.66
40.70
42.86
46.11
50.11
54.14
57.16
58.12
56.35
52.00
46.12
40.44
36.70
36.08
38.69
43.39
48.12
50.42
48.32
41.09
29.79
17.16
6.93
2.43
5.28
14.77
28.12
41.59
51.91
57.31
57.72
54.29
48.66
42.30
36.32
31.39
27.75
25.15
22.95
20.36
16.80
12.20
6.77
0.90
-5.26
-11.92
-19.51
-28.24
-37.59
-46.34
-52.75
-55.57
-54.25
-49.38
-42.60
-36.21
-32.38
-32.15
-35.56
-41.49
-48.94
-56.63
-63.27
-67.66
-69.17
-67.93
-64.40
-60.21
-57.28
-58.29
-64.65
-75.99
-90.23
-104.99
-118.57
-129.43
-137.70
-143.84
-149.56
-155.72
-161.92
-166.59
-168.69
-168.75
-168.03
-170.46
-170.85
-167.40
-160.99
-152.66
-139.17
-114.49
-79.67
-30.61
31.83
102.73
174.07
239.40
290.12
320.44
328.11
314.35
284.59
245.40
204.12
166.10
134.56
110.04
91.46
76.43
62.40
48.49
34.54
21.71
11.00
2.89
-3.56
-10.70
-22.20
-41.46
-68.79
-100.99
-131.40
-152.70
-160.01
-153.30
-137.48
-120.49
-109.65
-108.07
-113.57
-119.41
-117.30
-100.58
-66.53
-16.97
42.08
101.87
152.71
185.55
193.42
172.72
124.53
55.59
-21.76
-91.76
-139.10
-153.73
-134.16
-88.10
-29.92
24.55
63.41
81.76
81.28
67.64
47.16
24.92
4.35
-12.67
-24.68
-30.21
-28.24
-19.20
-5.10
11.12
26.93
41.07
52.50
60.53
64.72
65.05
61.23
53.10
41.14
26.93
12.87
-0.01
-11.97
-23.84
-36.17
-50.11
-67.20
-89.16
-117.09
-143.31
-159.22
-160.90
-151.01
-134.11
-113.96
-92.79
-72.67
-55.63
-43.60
-38.82
-41.85
-49.42
-53.94
-49.31
-30.16
3.71
47.31
92.33
129.46
151.98
154.01
140.27
119.18
98.35
82.17
72.42
69.02
71.50
75.57
76.69
71.37
57.04
34.16
6.79
-17.88
-32.54
-33.13
-20.63
0.18
23.33
43.27
55.35
57.21
49.76
36.36
21.51
9.77
5.20
10.37
24.59
44.11
63.62
78.66
87.53
91.66
93.79
95.66
96.04
90.76
75.35
48.35
12.89
-24.56
-57.14
-80.71
-94.94
-102.16
-105.09
-104.90
-100.77
-91.30
-76.34
-57.95
-39.79
-25.68
-17.92
-16.26
-18.49
-21.48
-22.83
-21.91
-19.93
-19.04
-20.92
-25.96
-33.10
-40.51
-46.51
-50.04
-50.70
-48.26
-42.55
-33.66
-22.50
-10.96
-1.54
3.70
4.13
0.82
-4.11
-8.58
-11.46
-12.77
-13.03
-12.49
-10.82
-7.35
-1.73
5.55
13.22
19.60
23.23
23.27
19.67
13.04
4.60
-4.25
-12.19
-18.42
-22.72
-25.46
-27.18
-28.27
-28.84
-28.82
-28.18
-27.09
-25.89
-24.99
-24.75
-25.39
-26.98
-29.31
-31.84
-33.64
-33.68
-31.32
-26.57
-20.16
-13.08
-6.09
0.71
7.76
15.59
24.33
33.46
42.04
49.09
54.03
56.85
57.97
57.99
57.43
56.61
55.69
54.69
53.62
52.47
51.21
49.75
47.85
45.21
41.56
36.75
30.95
24.56
18.15
12.25
7.17
3.02
-0.26
-2.82
-4.86
-6.62
-8.41
-10.54
-13.21
-16.37
-19.71
-22.73
-24.94
-26.03
-25.99
-25.06
-23.62
-22.01
-20.38
-18.67
-16.68
-14.19
-11.13
-7.65
-4.12
-1.02
1.23
2.36
2.40
1.56
0.27
-1.05
-2.03
-2.40
-2.05
-0.99
0.67
2.72
4.83
6.64
7.74
7.85
6.90
5.09
2.85
0.73
-0.88
-1.80
-2.11
-2.09
-2.01
-2.04
-2.25
-2.56
-2.89
-3.14
-3.26
-3.18
-2.87
-2.32
-1.56
-0.73
-0.02
0.36
0.25
-0.39
-1.41
-2.52
-3.34
-3.63
-3.35
-2.68
-1.95
-1.43
-1.20
-1.11
-0.87
-0.26
0.74
1.93
2.95
3.50
3.45
2.88
2.03
1.17
0.47
-0.03
-0.44
-0.92
-1.56
-2.36
-3.18
-3.84
-4.22
-4.28
-4.07
-3.69
-3.23
-2.72
-2.13
-1.42
-0.55
0.48
1.67
3.02
4.43
5.81
6.94
7.58
7.53
6.76
5.39
3.69
1.97
0.42
-0.93
-2.19
-3.55
-5.08
-6.70
-8.09
-8.90
-8.81
-7.71
-5.76
-3.29
-0.74
1.52
3.27
4.49
5.29
5.86
6.39
6.92
7.41
7.66
7.46
6.65
5.18
3.21
1.00
-1.15
-3.01
-4.56
-5.93
-7.28
-8.75
-10.24
-11.52
-12.20
-11.98
-10.71
-8.46
-5.48
-2.07
1.43
4.75
7.61
9.80
11.15
11.55
11.06
9.80
8.02
5.96
3.91
2.10
0.68
-0.32
-1.02
-1.68
-2.61
-4.05
-6.05
-8.46
-10.94
-13.04
-14.36
-14.56
-13.48
-11.15
-7.79
-3.79
0.39
4.29
7.61
10.25
12.29
13.87
15.07
15.77
15.65
14.30
11.47
7.22
2.06
-3.21
-7.68
-10.61
-11.62
-10.75
-8.50
-5.53
-2.45
0.29
2.56
4.40
5.91
7.23
8.31
9.01
9.16
8.65
7.53
5.86
3.60
0.81
-2.22
-4.99
-6.99
-7.81
-7.26
-5.59
-3.41
-1.66
-0.91
-1.01
-1.43
-1.90
-2.59
-4.06
-7.07
-12.17
-19.59
-28.54
-36.98
-42.94
-45.56
-45.41
-43.99
-42.91
-43.29
-45.67
-49.53
-52.91
-53.82
-51.06
-43.99
-31.91
-13.81
12.52
44.38
74.46
96.58
109.02
113.92
115.01
115.47
116.46
116.43
114.14
105.73
90.97
72.84
55.67
43.18
37.32
37.93
42.87
48.64
51.28
48.72
39.69
23.02
-2.07
-35.16
-71.74
-103.05
-121.12
-124.07
-115.20
-99.89
-82.63
-65.86
-50.34
-36.06
-23.45
-13.55
-7.46
-4.80
-3.98
-3.20
-1.08
2.89
8.50
14.73
20.29
23.99
25.74
26.35
26.93
28.27
30.60
33.63
35.92
36.80
35.41
31.52
25.54
18.25
10.38
2.51
-3.73
-8.89
-13.27
-17.15
-20.54
-23.25
-25.02
-25.72
-25.37
-24.13
-22.50
-20.70
-19.01
-17.55
-16.31
-15.22
-14.18
-13.15
-12.06
-11.07
-10.12
-9.21
-8.32
-7.47
-6.64
-5.83
-5.04
-4.23
-3.53
-2.90
-2.32
-1.80
-1.34
-0.93
-0.57
-0.27
0.03
0.25
0.40
0.49
0.55
0.56
0.52
0.42
-0.02
-0.54
-1.14
-1.81
-2.54
-3.31
-4.14
-5.04
-6.01
-7.07
-8.16
-9.33
-10.59
-11.94
-13.32
-14.80
-16.37
-18.06
-19.86
-21.77
-23.82
-26.01
-28.32
-30.68
-33.11
-35.55
-37.91
-40.04
-41.75
-42.87
-43.10
-42.62
-40.92
-37.90
-33.60
-28.21
-22.07
-15.63
-9.48
-4.13
-0.06
2.44
3.12
1.96
-0.80
-4.69
-9.11
-13.40
-16.70
-18.29
-17.56
-14.23
-8.22
0.22
10.67
22.96
35.83
48.38
59.90
69.92
78.06
84.16
88.21
90.27
90.53
89.09
86.21
82.04
76.74
70.42
63.32
55.48
47.04
38.30
29.50
21.04
13.29
6.56
1.06
-3.07
-5.83
-7.33
-7.73
-7.31
-6.26
-4.77
-2.97
-0.98
1.19
3.54
5.97
8.45
10.95
13.54
16.28
19.30
22.63
26.34
30.48
34.71
38.78
42.53
45.89
48.90
51.74
54.61
57.76
61.44
65.30
69.14
72.83
76.35
79.85
83.61
87.93
93.02
98.94
104.85
109.93
113.52
115.14
114.63
111.89
106.54
97.29
86.64
74.43
59.94
42.55
22.09
-0.76
-24.79
-48.55
-71.00
-91.89
-112.46
-134.00
-157.58
-183.58
-211.40
-239.77
-267.10
-292.31
-315.21
-337.03
-359.28
-383.82
-412.81
-448.17
-490.44
-537.33
-583.10
-619.17
-636.93
-629.88
-596.99
-543.29
-477.85
-410.06
-346.51
-289.81
-239.59
-194.62
-152.73
-113.24
-76.90
-44.57
-16.03
10.17
35.71
61.43
87.00
114.39
144.36
175.86
206.85
235.93
263.17
289.38
315.16
340.38
369.32
404.13
443.26
482.65
518.51
549.29
575.30
597.35
615.98
637.64
665.62
697.76
727.88
749.62
759.22
755.82
739.94
672.06
537.61
352.99
156.03
-19.40
-158.08
-259.87
-330.79
-378.10
-407.91
-418.25
-408.61
-383.74
-350.20
-314.70
-281.62
-252.43
-227.37
-205.93
-182.50
-153.72
-120.35
-85.29
-51.71
-24.72
-6.11
3.85
6.08
4.97
3.43
-3.73
-19.91
-45.45
-77.25
-110.65
-142.13
-169.47
-190.24
-203.62
-210.37
-211.26
-207.59
-200.61
-190.84
-178.69
-164.26
-145.96
-122.84
-94.95
-62.46
-26.35
11.97
51.24
85.99
113.72
133.65
145.94
151.36
151.44
147.54
140.64
131.52
120.72
109.42
98.50
88.46
79.40
71.57
64.97
59.36
54.42
49.78
45.66
42.22
39.41
37.02
35.02
33.32
31.79
30.26
28.66
27.22
26.14
25.46
25.02
24.79
24.59
24.24
23.49
22.04
19.80
16.59
13.27
8.89
3.14
-4.04
-12.52
-22.04
-32.28
-42.76
-53.06
-63.30
-72.68
-80.73
-87.25
-92.15
-95.50
-97.34
-97.71
-96.66
-94.16
-90.26
-84.90
-78.08
-69.76
-60.11
-49.43
-38.13
-26.75
-15.89
-6.12
2.08
8.27
12.23
13.85
13.24
10.63
6.33
0.70
-5.72
-12.52
-19.34
-25.94
-32.21
-38.12
-43.75
-49.24
-54.83
-60.38
-65.87
-71.34
-76.84
-82.42
-88.15
-94.13
-100.50
-107.52
-114.81
-122.18
-129.53
-136.82
-144.04
-151.22
-158.46
-165.90
-173.38
-180.00
-185.39
-189.54
-192.53
-194.21
-193.98
-190.71
-182.40
-171.93
-159.75
-146.24
-131.97
-117.56
-103.48
-90.01
-77.29
-65.40
-53.47
-40.02
-24.67
-8.03
8.77
24.72
39.10
51.46
61.50
71.80
84.93
101.17
118.31
133.20
143.43
147.89
146.61
140.55
137.02
142.56
159.23
183.89
211.21
236.93
258.85
276.48
290.56
311.62
348.26
401.92
465.90
530.33
587.57
634.01
669.32
695.43
727.24
776.82
846.84
929.73
1014.65
1094.21
1165.42
1226.71
1201.26
1043.64
761.32
414.73
75.28
-210.49
-425.65
-573.05
-665.95
-721.12
-742.30
-731.76
-695.33
-644.50
-592.11
-547.43
-515.05
-496.01
-488.51
-480.12
-460.28
-425.58
-381.35
-336.63
-298.61
-270.82
-253.79
-245.75
-238.29
-224.29
-201.40
-172.91
-144.53
-120.87
-104.23
-95.58
-93.39
-93.00
-90.40
-83.95
-74.89
-65.72
-58.49
-53.05
-50.13
-49.26
-48.66
-46.73
-42.81
-37.42
-31.61
-26.34
-22.16
-19.40
-17.73
-16.82
-16.25
-15.72
-15.11
-14.46
-13.98
-13.87
-14.38
-15.30
-16.38
-17.24
-17.62
-17.51
-17.12
-16.94
-17.45
-19.00
-21.37
-24.05
-26.28
-27.44
-27.33
-26.26
-24.96
-24.24
-24.88
-26.46
-28.45
-29.64
-29.07
-26.53
-22.42
-17.79
-13.96
-12.23
-13.44
-17.64
-23.63
-29.01
-30.53
-25.02
-10.82
11.30
37.90
63.67
83.00
91.81
88.82
75.81
56.89
36.85
19.55
7.00
-0.59
-4.21
-5.06
-3.54
-0.27
4.51
10.35
16.18
20.73
23.13
23.37
22.34
21.28
21.27
22.71
25.25
28.06
30.15
30.84
30.02
28.09
25.81
24.08
23.56
24.36
25.92
27.15
26.74
23.65
17.47
8.43
-2.25
-13.18
-23.38
-32.39
-40.57
-48.68
-57.43
-66.68
-76.97
-88.33
-100.56
-112.40
-121.14
-122.95
-114.34
-94.11
-64.70
-32.11
-2.83
17.84
28.12
29.86
26.91
22.80
19.24
16.03
12.21
7.50
2.56
-1.34
-3.33
-3.62
-3.36
-3.92
-6.29
-10.43
-15.18
-19.03
-20.59
-19.22
-15.10
-9.15
-2.49
3.97
9.85
15.30
20.62
26.01
31.31
35.94
39.19
40.42
39.40
36.42
32.20
27.61
23.39
20.04
17.69
16.19
15.27
14.63
14.09
13.58
13.01
12.26
11.19
9.57
7.18
3.83
-0.58
-5.91
-11.96
-18.51
-25.34
-32.22
-38.97
-45.43
-51.55
-57.42
-62.80
-67.68
-72.13
-76.30
-80.37
-84.54
-89.05
-94.12
-100.06
-106.55
-113.42
-120.55
-127.83
-135.13
-142.37
-149.48
-156.47
-163.49
-170.00
-175.65
-180.18
-183.27
-184.52
-183.30
-178.65
-168.90
-157.23
-144.65
-131.90
-119.56
-108.07
-97.79
-89.01
-81.93
-76.80
-73.91
-72.76
-72.95
-74.07
-75.59
-76.92
-77.44
-76.65
-74.33
-70.65
-65.54
-59.30
-52.33
-44.92
-37.11
-28.73
-19.53
-9.42
1.37
12.71
24.19
35.52
46.70
58.12
70.43
84.21
99.68
116.48
134.02
151.55
168.59
185.38
202.56
220.82
240.57
262.01
285.26
310.57
337.79
366.01
393.32
416.45
431.57
435.59
427.56
409.09
383.57
354.47
324.01
293.36
262.62
231.93
202.24
175.23
152.40
133.91
118.14
102.77
87.74
74.15
63.71
57.82
57.03
60.74
67.07
73.23
77.07
80.86
86.96
96.12
106.92
117.07
125.00
130.13
132.28
132.82
138.74
154.78
180.86
212.11
242.27
267.22
285.57
297.23
304.46
316.36
338.67
370.85
406.45
437.53
458.91
468.65
466.38
411.03
286.39
107.87
-83.94
-250.29
-372.84
-451.71
-490.22
-505.26
-507.65
-496.83
-472.05
-436.15
-395.57
-359.11
-330.80
-311.14
-299.75
-294.00
-286.39
-272.12
-251.54
-229.99
-214.41
-209.44
-216.65
-235.41
-261.82
-288.11
-308.30
-320.06
-324.21
-322.31
-314.35
-299.25
-276.61
-246.49
-209.12
-166.46
-121.94
-79.47
-42.24
-11.71
12.17
30.37
44.93
58.51
72.85
87.94
102.14
112.91
118.19
117.23
110.85
101.55
92.50
86.75
86.19
90.68
97.55
101.84
97.17
77.38
38.65
-18.52
-88.27
-159.96
-220.34
-257.14
-262.65
-236.15
-184.11
-118.06
-51.01
6.30
47.72
71.94
80.97
78.17
66.84
49.82
30.16
11.29
-3.17
-10.60
-10.42
-4.55
3.19
8.61
8.86
3.53
-5.50
-14.97
-21.80
-24.19
-22.09
-16.72
-9.73
-2.43
4.66
11.60
18.53
25.23
30.97
34.78
35.93
34.29
30.44
25.37
20.08
15.31
11.30
8.00
5.22
2.75
0.53
-1.29
-2.37
-2.28
-0.62
2.84
8.08
14.73
22.17
29.72
36.69
42.66
47.52
51.44
54.74
57.81
60.97
64.41
68.26
72.56
77.30
82.29
87.18
91.41
94.36
95.43
94.25
90.59
84.24
74.82
61.86
45.07
24.64
1.51
-22.67
-45.91
-66.29
-82.40
-93.41
-99.03
-99.35
-94.80
-86.18
-74.70
-61.89
-49.32
-38.32
-29.66
-23.49
-19.37
-16.49
-13.92
-10.86
-6.80
-1.66
4.30
10.64
16.92
22.84
28.18
32.75
36.26
38.40
39.00
38.22
36.47
34.30
32.13
30.10
27.94
24.97
20.31
13.21
3.40
-8.58
-21.27
-32.54
-40.23
-42.96
-40.78
-35.20
-28.47
-22.54
-18.27
-15.21
-12.11
-7.94
-2.60
2.80
6.36
6.32
1.92
-6.84
-19.34
-34.15
-49.67
-63.95
-75.44
-83.66
-88.90
-91.33
-91.54
-90.25
-88.10
-84.85
-78.36
-65.21
-42.55
-10.28
28.54
66.95
98.88
118.97
124.55
117.07
100.42
78.51
53.47
26.73
-1.36
-29.77
-54.99
-73.15
-81.12
-79.17
-71.52
-67.33
-68.91
-74.68
-79.19
-75.59
-59.09
-27.82
15.58
66.24
112.14
143.62
157.25
156.53
151.78
145.69
137.34
123.74
101.84
70.10
30.58
-14.02
-58.67
-98.80
-131.93
-156.40
-171.85
-179.04
-179.72
-174.95
-165.83
-153.32
-138.69
-123.63
-108.56
-93.01
-76.14
-57.59
-37.36
-16.59
2.84
18.54
28.22
30.78
26.39
16.29
2.82
-10.53
-19.92
-22.29
-16.63
-4.58
10.57
25.21
36.81
44.79
50.33
55.44
61.91
70.55
81.22
93.06
104.64
113.98
118.75
116.77
106.65
88.21
62.56
31.97
-0.49
-31.15
-56.25
-72.51
-77.98
-72.76
-59.05
-40.38
-20.23
-1.02
16.26
31.63
45.45
57.88
68.68
77.38
83.22
85.01
80.80
68.11
45.02
11.61
-28.91
-70.91
-108.09
-135.59
-151.27
-155.75
-151.09
-139.23
-121.01
-95.83
-63.90
-27.23
10.27
43.64
68.00
79.30
75.13
55.36
23.78
-13.66
-49.33
-74.92
-82.94
-69.15
-34.47
14.58
67.58
115.02
148.74
164.69
165.01
157.90
154.74
165.58
195.11
240.79
295.96
348.71
385.82
397.38
379.87
336.21
273.26
199.19
107.62
5.27
-92.38
-169.44
-218.66
-242.36
-248.40
-246.11
-243.24
-243.84
-244.58
-239.68
-223.47
-192.62
-147.91
-94.67
-41.85
1.06
27.22
36.65
32.47
18.87
-0.49
-23.43
-48.77
-75.66
-102.29
-125.50
-139.06
-137.55
-118.94
-85.42
-43.90
-3.00
30.01
51.82
63.67
70.31
76.37
84.15
93.92
103.49
110.35
112.33
107.39
93.35
68.69
33.31
-12.47
-59.47
-98.89
-125.31
-137.61
-137.22
-126.22
-106.06
-78.14
-45.14
-11.20
17.51
36.08
43.11
41.12
34.98
29.42
27.68
29.64
34.09
38.60
41.21
41.00
38.12
33.42
28.10
23.10
19.29
17.58
17.96
19.99
22.76
25.13
26.07
24.88
21.32
16.28
11.39
7.56
4.58
1.33
-4.36
-15.25
-31.53
-51.76
-71.94
-87.07
-93.53
-90.28
-79.67
-66.09
-54.18
-47.55
-47.24
-50.52
-52.92
-52.89
-49.00
-42.92
-37.92
-37.49
-44.83
-60.81
-81.46
-99.46
-107.18
-98.84
-72.31
-28.89
30.99
99.95
157.65
183.38
168.76
120.58
55.35
-7.92
-53.10
-71.23
-63.15
-37.13
-3.59
28.56
53.73
70.44
79.98
84.47
85.30
82.32
75.76
68.05
62.42
60.26
60.01
57.78
50.02
35.51
15.86
-4.99
-22.15
-32.41
-35.79
-34.85
-32.75
-31.43
-31.27
-31.77
-32.32
-32.39
-31.78
-30.54
-28.88
-27.03
-24.79
-22.25
-19.74
-17.77
-16.41
-15.22
-13.57
-11.12
-8.19
-5.62
-4.51
-5.39
-8.03
-11.29
-13.55
-13.30
-9.87
-3.83
3.41
10.29
16.29
22.02
28.87
37.85
48.38
57.96
63.23
62.04
54.99
46.14
40.66
42.37
51.55
64.36
74.63
77.10
70.02
55.51
38.93
25.16
16.85
13.18
11.74
8.81
0.99
-13.72
-35.30
-60.30
-84.70
-104.30
-116.73
-120.81
-117.55
-109.49
-100.59
-95.29
-95.46
-102.54
-116.56
-132.31
-142.18
-141.83
-133.54
-123.86
-123.00
-123.65
-114.40
-86.05
-37.26
31.21
110.70
189.62
256.11
292.83
287.63
240.87
180.65
121.92
74.25
40.65
24.82
24.98
33.00
39.31
34.93
15.81
-17.24
-55.14
-85.54
-97.02
-84.19
-48.69
3.52
62.30
115.90
151.65
161.59
143.27
100.51
41.50
-23.06
-81.07
-122.99
-144.01
-145.50
-132.49
-112.39
-92.30
-77.83
-71.93
-73.41
-78.52
-82.77
-79.25
-66.22
-49.19
-36.73
-34.58
-44.62
-60.73
-74.29
-77.40
-63.79
-28.39
26.73
93.91
161.52
215.42
243.76
238.63
198.64
132.12
54.85
-15.33
-62.87
-78.66
-62.48
-19.09
43.72
107.99
155.15
176.05
170.72
143.66
104.90
56.93
6.01
-39.74
-74.48
-95.66
-102.95
-101.61
-99.89
-105.52
-122.59
-146.23
-166.13
-171.73
-153.96
-109.29
-41.46
40.13
123.73
188.23
217.80
210.45
175.82
128.83
81.52
40.82
9.42
-14.28
-34.25
-50.29
-60.52
-64.61
-62.61
-56.73
-50.08
-45.76
-43.81
-46.96
-56.22
-68.34
-88.88
-115.34
-143.62
-166.80
-176.50
-166.60
-137.19
-91.35
-34.60
26.16
85.57
137.29
172.08
184.44
180.85
164.71
139.51
108.04
76.32
51.51
38.01
37.02
46.98
63.77
80.92
93.96
101.18
103.04
101.22
96.40
88.29
76.35
59.83
37.56
10.28
-19.59
-48.82
-74.43
-94.84
-109.45
-118.36
-122.72
-125.48
-130.10
-139.76
-156.09
-178.07
-201.71
-220.93
-229.83
-225.19
-208.13
-182.76
-153.80
-124.20
-94.50
-63.77
-31.60
0.45
28.92
50.18
62.59
67.65
69.14
71.11
75.93
83.50
91.79
98.22
101.08
100.12
96.36
91.34
86.37
82.01
78.08
74.08
69.60
64.63
59.62
55.27
52.26
50.92
51.12
52.24
53.31
53.32
51.55
47.79
42.40
36.39
30.90
26.77
24.31
23.43
23.71
24.41
24.42
22.22
16.64
7.42
-4.53
-16.91
-26.65
-31.09
-28.95
-20.78
-9.06
3.63
15.36
24.53
30.26
32.30
31.04
27.67
23.87
20.48
17.82
14.59
6.82
-10.64
-41.61
-85.96
-138.31
-188.93
-227.54
-245.15
-237.41
-206.93
-161.36
-110.25
-61.35
-18.80
20.78
55.17
79.85
96.74
107.13
111.35
109.21
100.70
85.51
63.06
32.15
-5.48
-44.84
-76.05
-88.04
-78.01
-54.59
-31.59
-18.71
-18.93
-27.98
-38.88
-46.19
-46.44
-40.49
-26.84
-3.81
29.00
67.88
107.11
140.61
159.53
161.79
151.88
136.97
121.55
105.63
84.94
57.62
22.68
-17.48
-57.69
-93.87
-124.05
-147.94
-159.29
-158.88
-151.00
-140.37
-129.18
-115.67
-97.79
-75.09
-49.92
-28.56
-15.84
-14.49
-22.92
-34.78
-40.28
-32.24
-8.76
27.48
71.70
118.78
166.29
214.71
258.17
290.66
303.96
290.38
247.64
181.25
102.94
27.40
-33.04
-72.88
-90.92
-91.88
-87.53
-88.68
-97.38
-108.10
-113.66
-110.70
-101.28
-89.80
-81.38
-78.90
-81.25
-85.05
-87.32
-86.19
-80.75
-70.30
-54.40
-32.37
-5.35
24.17
52.66
76.05
91.43
97.98
94.01
84.40
73.64
63.62
54.30
46.10
37.10
26.56
14.50
1.25
-12.79
-27.64
-43.12
-57.58
-67.64
-69.28
-58.82
-35.05
1.26
41.90
76.35
96.95
102.21
96.36
86.00
77.68
75.12
78.60
85.25
91.15
91.95
83.74
64.09
32.83
-5.89
-45.17
-79.18
-104.04
-118.23
-123.62
-124.44
-125.25
-128.97
-134.37
-137.04
-127.80
-104.31
-67.87
-23.17
22.18
63.49
95.49
113.98
115.65
98.81
64.12
16.40
-36.15
-80.59
-107.54
-115.17
-107.32
-91.27
-74.19
-61.13
-54.24
-53.32
-56.67
-61.01
-61.43
-52.60
-30.02
5.99
49.78
92.55
126.03
145.25
150.06
140.73
125.43
110.98
99.99
91.60
84.29
79.67
78.50
81.70
89.06
98.82
106.27
105.46
91.88
64.67
27.49
-13.58
-52.36
-83.82
-104.47
-113.75
-113.35
-101.17
-76.78
-40.56
8.76
63.10
108.72
134.54
136.68
121.42
91.55
47.87
-8.70
-76.29
-148.03
-213.20
-260.06
-278.97
-265.26
-221.01
-154.61
-78.87
-8.06
45.22
73.04
74.16
53.87
22.34
-5.48
-17.35
-12.93
-1.96
5.24
4.60
-0.86
-5.08
-4.02
1.71
7.78
9.44
5.52
-0.74
-4.74
-3.34
3.22
11.86
18.58
20.50
16.35
7.38
-1.99
-8.30
-10.54
-10.48
-11.69
-18.04
-32.05
-52.59
-76.04
-94.66
-99.84
-86.19
-54.43
-11.31
32.07
67.97
90.34
99.38
100.66
101.72
108.02
120.69
136.93
151.73
159.56
153.73
131.76
95.62
51.08
4.82
-37.97
-74.57
-104.76
-131.09
-161.21
-195.58
-233.48
-271.54
-304.83
-327.87
-335.37
-323.45
-277.57
-202.62
-119.23
-49.80
-3.91
23.16
41.04
55.24
68.68
83.89
98.10
113.19
132.96
160.09
192.50
223.10
243.14
246.45
231.73
200.74
160.43
119.26
84.06
57.35
37.70
22.16
8.74
-3.08
-13.97
-22.83
-27.83
-27.09
-19.86
-6.91
9.82
27.92
44.66
56.86
62.85
62.52
57.15
48.58
38.60
28.73
20.20
13.74
9.25
6.37
4.43
2.54
-0.29
-4.92
-11.73
-20.50
-30.47
-40.51
-49.41
-56.07
-59.66
-59.84
-56.76
-51.00
-43.52
-35.40
-27.72
-21.36
-16.94
-14.65
-14.28
-15.13
-16.21
-16.53
-15.47
-13.02
-9.87
-7.15
-5.94
-6.85
-9.71
-13.54
-16.87
-18.24
-16.70
-12.16
-5.53
1.46
6.73
8.61
6.53
1.29
-5.23
-10.77
-13.70
-13.53
-10.89
-6.87
-2.27
2.94
9.48
18.20
29.31
42.03
54.77
65.85
74.24
80.02
84.18
87.89
91.77
95.46
97.77
97.34
93.41
86.34
77.26
67.68
58.62
50.27
41.91
32.02
18.31
-2.10
-32.16
-73.62
-125.25
-181.61
-233.43
-269.76
-281.54
-264.75
-221.96
-161.33
-93.93
-30.38
21.54
57.92
78.34
84.78
80.66
70.01
56.91
44.85
36.30
32.27
32.36
35.20
38.98
42.15
43.77
43.53
41.77
39.00
36.25
35.44
39.89
53.59
79.16
115.44
156.27
192.06
213.56
216.29
202.53
179.81
156.61
137.71
122.00
104.09
78.01
40.66
-7.09
-61.55
-118.00
-171.65
-216.96
-247.39
-256.72
-242.03
-206.79
-161.61
-121.80
-102.13
-111.06
-147.49
-201.07
-256.45
-298.91
-318.93
-314.10
-287.81
-245.92
-193.68
-134.47
-70.82
-6.67
50.91
92.76
110.79
101.93
70.47
27.09
-15.22
-45.94
-60.28
-59.23
-47.28
-28.97
-6.78
18.98
48.84
82.49
117.97
152.16
181.78
204.39
218.62
224.03
220.57
208.12
186.44
155.22
114.40
64.67
8.19
-50.94
-106.61
-151.52
-178.98
-184.91
-169.49
-137.40
-96.48
-55.33
-20.70
4.09
19.34
27.78
32.86
37.30
42.38
48.15
53.93
59.03
62.94
65.24
65.40
62.77
56.80
47.48
35.66
22.91
11.04
1.44
-5.38
-9.74
-12.26
-13.37
-12.93
-10.47
-5.67
1.05
8.47
14.92
19.10
20.66
20.27
19.06
17.73
15.99
12.71
6.57
-3.01
-15.37
-28.88
-41.56
-51.92
-59.32
-63.94
-66.44
-67.44
-67.38
-66.48
-65.07
-63.82
-63.63
-65.22
-68.74
-73.55
-78.21
-80.89
-79.72
-73.57
-62.57
-47.97
-31.92
-16.92
-5.23
1.77
4.03
3.45
2.40
2.96
6.50
13.83
25.40
41.28
61.22
84.25
109.43
133.99
153.75
165.18
167.48
163.37
158.13
157.79
166.49
186.79
216.32
248.87
277.65
298.36
310.08
314.05
312.30
305.70
295.56
280.39
256.79
222.15
176.84
123.93
67.44
11.33
-55.97
-132.62
-204.96
-257.18
-283.53
-289.81
-286.63
-283.46
-281.13
-274.72
-255.27
-217.86
-164.20
-100.58
-35.31
24.21
67.00
86.39
83.93
70.15
54.57
40.91
28.27
15.27
1.74
-12.13
-26.17
-41.06
-56.52
-72.55
-88.71
-103.90
-117.10
-127.21
-133.59
-135.74
-133.61
-127.47
-119.21
-112.14
-109.59
-112.13
-116.31
-115.88
-104.04
-76.54
-33.27
21.67
81.43
134.65
170.28
183.74
178.90
164.66
148.96
135.16
122.19
106.98
86.96
62.30
35.88
11.41
-8.63
-23.51
-34.22
-42.66
-49.85
-55.97
-60.05
-60.96
-58.50
-54.20
-50.45
-49.29
-51.50
-56.45
-62.71
-68.47
-72.34
-72.55
-69.13
-63.06
-55.62
-47.87
-40.52
-34.02
-28.59
-24.47
-21.60
-20.06
-19.78
-20.44
-21.57
-22.54
-22.72
-21.87
-20.46
-19.03
-18.36
-18.89
-20.26
-20.88
-18.20
-9.38
6.99
29.64
55.35
79.18
95.93
101.72
95.44
79.36
58.88
40.24
28.00
24.20
26.75
29.70
25.30
6.74
-31.30
-85.88
-145.18
-199.28
-238.07
-252.88
-238.91
-196.83
-133.05
-58.50
14.49
74.89
115.44
135.10
137.53
128.55
113.84
97.78
83.21
72.11
65.40
62.68
63.03
64.71
65.37
63.10
57.39
49.38
41.56
36.36
35.09
38.05
44.37
52.42
60.60
67.72
73.00
75.78
75.07
69.40
57.45
38.61
13.62
-14.99
-43.05
-65.88
-79.71
-83.04
-77.13
-65.24
-51.34
-38.62
-28.62
-21.16
-15.25
-9.92
-4.50
1.42
8.12
15.49
22.93
29.40
33.99
35.89
34.88
31.40
26.39
20.86
15.06
8.63
1.21
-6.66
-14.24
-20.72
-25.35
-27.19
-24.88
-17.33
-3.87
15.45
40.03
67.23
92.48
110.30
115.91
106.95
83.76
49.46
6.55
-36.61
-69.22
-83.68
-79.92
-65.68
-47.88
-31.15
-18.13
-10.03
-6.81
-7.89
-11.50
-14.74
-14.53
-9.02
0.36
8.68
9.23
-3.17
-30.63
-68.82
-108.26
-139.67
-158.04
-162.83
-154.79
-133.97
-100.24
-56.13
-8.10
34.48
62.93
73.58
69.02
56.17
42.34
32.02
25.50
20.47
14.60
6.58
-2.64
-10.77
-15.73
-16.65
-13.84
-8.54
-1.89
5.26
12.39
19.27
25.76
31.30
34.94
35.92
34.29
31.49
29.96
32.30
39.10
49.76
61.83
71.63
75.34
70.37
56.27
34.85
9.69
-14.71
-34.01
-45.34
-47.97
-43.52
-35.28
-27.02
-21.78
-21.23
-25.33
-32.67
-41.41
-49.73
-56.10
-59.42
-58.94
-54.55
-46.94
-37.45
-27.67
-19.13
-12.76
-8.58
-5.68
-2.43
2.64
10.10
19.37
28.89
36.33
39.56
37.62
31.27
23.42
17.48
15.92
19.83
28.77
40.63
52.42
61.39
65.50
64.76
59.72
50.48
37.70
23.07
7.96
-6.97
-21.76
-37.31
-53.69
-71.97
-92.55
-113.23
-129.04
-136.56
-134.94
-124.98
-112.24
-95.28
-72.26
-44.14
-11.78
26.11
70.12
118.47
168.42
211.06
237.20
252.46
257.32
242.46
204.13
142.91
64.13
-23.11
-108.59
-178.91
-220.61
-230.91
-217.70
-191.92
-163.18
-137.24
-116.97
-103.85
-97.01
-94.24
-92.84
-89.81
-78.10
-53.72
-17.39
25.94
69.24
107.09
132.35
142.18
139.61
130.87
120.12
108.28
94.84
80.00
66.14
56.68
54.27
59.30
70.09
82.63
91.45
91.59
79.67
55.22
21.54
-14.10
-42.31
-54.52
-47.24
-25.18
2.13
22.78
27.41
13.20
-14.93
-47.36
-74.53
-89.77
-92.94
-88.55
-82.07
-76.64
-72.26
-67.22
-60.28
-51.60
-42.27
-33.41
-25.32
-18.04
-12.11
-8.61
-8.58
-12.18
-18.27
-24.70
-29.85
-32.93
-34.29
-34.69
-34.51
-33.70
-32.48
-31.93
-33.84
-38.97
-45.97
-50.91
-48.83
-36.23
-13.36
15.29
42.09
60.60
67.95
65.47
57.31
47.91
39.98
34.08
29.40
25.27
21.95
20.33
21.08
24.01
28.05
31.76
33.85
33.86
32.25
30.13
28.69
28.60
29.79
31.62
32.89
32.68
30.73
27.53
24.14
21.69
20.88
21.80
24.00
26.83
29.80
32.50
34.30
34.18
30.80
23.16
11.26
-3.50
-18.63
-31.37
-39.80
-43.25
-42.33
-38.40
-32.94
-27.19
-22.06
-18.11
-15.58
-14.24
-13.41
-12.13
-9.69
-6.03
-1.90
1.51
3.08
2.42
0.14
-2.39
-3.76
-3.28
-1.12
1.67
3.67
3.84
1.78
-2.49
-8.69
-15.97
-22.66
-26.32
-24.45
-16.04
-2.95
10.24
18.21
18.00
11.04
2.93
0.71
8.91
27.03
49.49
68.28
76.64
71.89
55.99
34.20
12.67
-3.68
-12.27
-13.07
-8.03
0.25
9.48
18.36
26.56
34.28
41.18
45.79
45.71
38.42
22.38
-2.21
-33.42
-68.35
-104.02
-138.05
-168.42
-192.91
-208.65
-212.48
-202.34
-178.63
-144.87
-106.78
-70.13
-38.53
-12.37
10.27
31.66
52.48
71.31
85.53
93.07
93.79
89.59
83.34
77.47
73.00
69.55
65.99
61.24
54.78
46.67
37.41
27.68
18.18
9.55
2.17
-3.91
-8.89
-12.80
-15.20
-15.13
-11.64
-4.45
5.54
16.32
25.53
31.29
32.95
31.02
26.67
21.05
14.77
7.84
0.02
-8.71
-17.84
-26.40
-33.23
-37.41
-38.52
-36.77
-32.82
-27.52
-21.62
-15.61
-9.64
-3.64
2.62
9.32
16.58
24.38
32.59
40.91
48.85
55.80
61.19
64.57
65.74
64.77
61.82
57.03
50.39
41.86
31.44
19.37
6.19
-7.39
-20.59
-32.81
-43.63
-52.77
-60.02
-65.15
-67.99
-68.51
-66.91
-63.59
-59.04
-53.59
-47.37
-40.37
-32.58
-24.17
-15.64
-7.67
-1.01
3.76
6.41
7.05
6.06
4.08
1.82
0.05
-0.60
0.27
2.73
6.51
11.09
15.84
20.22
23.77
26.16
27.17
26.69
24.75
21.55
17.47
12.97
8.53
4.54
1.29
-1.07
-2.50
-3.09
-3.07
-2.77
-2.48
-2.37
-2.41
-2.44
-2.22
-1.58
-0.51
0.88
2.27
3.28
3.45
2.41
-0.01
-3.61
-7.78
-11.68
-14.46
-15.57
-14.93
-12.89
-10.08
-7.14
-4.49
-2.33
-0.62
0.79
2.11
3.55
5.28
7.38
9.81
12.34
14.60
16.12
16.44
15.19
12.17
7.40
1.12
-6.07
-13.31
-19.49
-23.54
-24.67
-22.65
-17.96
-11.69
-5.20
0.23
3.81
5.36
5.22
3.99
2.24
0.18
-2.31
-5.60
-10.11
-16.00
-23.09
-30.73
-37.98
-43.69
-46.82
-46.58
-42.65
-35.27
-25.33
-14.22
-3.50
5.38
11.57
14.96
16.11
15.93
15.29
14.73
14.50
14.77
15.85
18.20
22.17
27.60
33.69
39.09
42.41
42.71
39.88
34.55
27.80
20.73
14.10
8.18
2.93
-1.83
-6.28
-10.39
-13.99
-16.82
-18.59
-19.03
-17.95
-15.25
-11.08
-5.88
-0.42
4.34
7.62
9.10
9.06
8.29
7.63
7.69
8.57
10.00
11.54
12.87
13.85
14.47
14.68
14.36
13.39
11.81
9.90
8.05
6.64
5.84
5.46
5.03
3.97
1.87
-1.35
-5.30
-9.19
-12.10
-13.21
-12.15
-9.11
-4.85
-0.38
3.34
5.68
6.52
6.14
5.10
3.97
3.18
2.95
3.24
3.88
4.63
5.25
5.58
5.56
5.26
4.87
4.76
5.44
7.37
10.65
14.66
17.94
18.44
14.28
4.56
-9.93
-26.64
-41.82
-51.42
-52.40
-43.64
-26.21
-2.98
22.44
46.51
66.22
78.77
81.34
71.28
47.32
11.12
-31.77
-72.71
-102.55
-114.95
-108.71
-87.87
-59.59
-31.05
-7.00
10.82
22.62
29.03
30.24
26.16
17.29
5.36
-6.81
-16.13
-20.34
-18.61
-11.59
-0.96
11.28
23.21
33.22
40.05
42.92
41.59
36.52
28.84
20.01
11.36
3.78
-2.36
-7.03
-10.26
-11.96
-12.05
-10.61
-8.05
-5.09
-2.49
-0.69
0.27
0.73
1.07
1.42
1.63
1.40
0.49
-1.10
-3.04
-4.93
-6.34
-7.03
-6.96
-6.18
-4.84
-3.13
-1.23
0.60
2.09
3.00
3.14
2.54
1.49
0.47
0.08
0.59
1.92
3.53
4.68
4.78
3.67
1.72
-0.25
-1.29
-0.82
1.24
4.42
7.98
11.21
13.69
15.42
16.79
18.45
20.80
24.13
28.57
34.04
39.99
45.13
47.48
45.03
36.85
23.50
7.43
-8.00
-20.14
-28.28
-34.19
-41.18
-52.45
-66.63
-80.30
-88.82
-89.18
-81.67
-69.25
-55.73
-44.34
-36.77
-32.93
-31.75
-31.44
-30.36
-27.82
-24.37
-21.67
-21.66
-25.41
-32.39
-40.98
-48.54
-52.39
-50.63
-42.47
-28.33
-9.67
11.26
33.50
55.80
77.14
96.47
112.33
122.80
125.89
120.04
104.85
81.16
51.12
18.79
-10.20
-29.42
-33.30
-19.27
10.46
48.80
85.33
110.00
117.15
107.47
87.01
64.01
45.01
31.62
23.51
17.40
8.87
-5.38
-26.37
-52.69
-81.26
-108.52
-131.34
-147.24
-155.11
-154.91
-147.56
-134.82
-119.04
-102.80
-88.38
-77.36
-70.23
-66.71
-65.61
-65.01
-62.70
-56.82
-46.60
-32.78
-17.49
-3.48
6.79
12.25
13.81
13.88
15.26
19.83
27.68
37.33
46.58
53.59
57.73
59.55
59.99
59.46
57.42
52.66
44.25
32.40
18.65
5.43
-4.84
-10.55
-11.36
-8.06
-2.09
4.83
11.13
15.61
17.60
17.11
14.74
11.52
8.55
6.71
6.45
7.79
10.37
13.51
16.37
18.18
18.64
18.16
17.96
19.64
24.49
32.88
43.80
55.08
63.98
68.16
66.47
59.33
48.52
36.43
25.24
16.26
9.78
5.45
2.82
1.64
1.95
3.76
6.75
10.04
12.57
13.52
12.76
10.90
8.91
7.52
6.88
6.48
5.57
3.64
0.79
-2.36
-4.98
-6.45
-6.69
-6.12
-5.43
-5.22
-5.72
-6.76
-7.95
-8.87
-9.37
-9.55
-9.66
-9.93
-10.31
-10.53
-10.25
-9.35
-8.01
-6.75
-6.12
-6.41
-7.44
-8.61
-9.21
-8.80
-7.49
-5.93
-5.09
-5.78
-8.28
-12.11
-16.17
-19.18
-20.19
-18.93
-15.98
-12.43
-9.54
-8.25
-8.95
-11.39
-14.70
-17.52
-18.28
-15.60
-9.02
0.54
10.69
18.19
20.22
15.53
5.04
-8.55
-21.81
-31.78
-36.66
-35.87
-29.71
-18.98
-4.84
11.02
26.32
38.40
44.77
43.65
34.44
17.98
-3.18
-24.78
-41.41
-47.75
-40.36
-19.24
11.39
44.05
70.32
83.55
80.92
64.00
37.81
8.98
-16.06
-32.43
-37.43
-30.82
-14.92
5.79
25.45
38.34
40.46
30.87
12.12
-10.43
-30.16
-41.23
-40.37
-27.96
-7.95
13.31
29.04
34.28
27.41
10.75
-10.32
-29.25
-40.46
-41.04
-31.22
-13.99
6.02
23.82
35.51
39.09
34.72
24.55
11.97
0.90
-5.21
-4.39
3.18
15.64
30.11
43.36
52.76
56.57
54.59
48.09
38.89
28.52
18.31
9.62
3.63
1.40
3.17
8.57
16.42
24.33
28.52
25.72
14.48
-4.36
-27.85
-52.46
-74.68
-90.21
-95.37
-91.44
-84.69
-81.80
-87.51
-98.54
-109.45
-115.35
-113.63
-101.99
-82.40
-58.73
-35.05
-14.66
0.62
9.96
14.33
16.42
19.62
26.12
36.75
50.37
63.78
73.11
75.08
68.98
56.82
42.21
28.51
18.65
15.04
19.29
31.75
50.47
71.26
88.67
97.82
96.09
84.58
67.30
48.80
31.91
16.64
1.30
-15.68
-34.34
-53.23
-70.09
-83.33
-92.82
-99.35
-103.65
-105.47
-103.44
-95.68
-80.53
-56.97
-25.49
10.90
46.71
75.38
91.28
91.69
77.57
52.98
23.65
-5.36
-31.64
-55.34
-77.30
-97.07
-112.39
-119.96
-116.91
-101.75
-74.70
-38.39
2.62
43.49
80.60
112.30
138.82
155.47
157.91
147.04
129.05
111.05
97.51
89.67
85.80
81.89
75.10
61.16
38.76
9.52
-22.93
-54.04
-79.92
-98.55
-110.25
-114.02
-110.46
-100.48
-85.85
-69.17
-53.06
-39.58
-29.68
-23.37
-19.84
-18.14
-16.85
-15.01
-12.44
-9.51
-6.72
-4.45
-2.90
-1.85
-1.12
-0.04
1.87
4.57
7.53
9.96
11.23
11.09
9.81
7.84
5.96
4.77
4.49
4.99
5.93
6.94
7.72
8.15
8.06
7.50
6.62
5.67
4.85
4.31
4.04
3.92
3.83
3.63
3.31
2.97
2.74
2.73
2.88
3.08
3.13
2.87
2.30
1.53
0.79
0.28
0.12
0.22
0.36
0.26
-0.23
-1.03
-1.80
-2.09
-1.58
-0.25
1.57
3.34
4.49
4.62
3.65
1.79
-0.58
-2.99
-5.00
-6.21
-6.33
-5.33
-3.44
-1.23
0.56
1.29
0.66
-1.12
-3.39
-5.29
-6.10
-5.45
-3.46
-0.57
2.64
5.66
8.18
10.05
11.29
12.05
12.54
12.99
13.58
14.30
14.99
15.25
14.59
12.55
8.98
4.19
-0.99
-5.46
-8.13
-8.43
-6.56
-3.38
-0.13
2.13
2.89
2.23
0.65
-1.25
-3.01
-4.39
-5.25
-5.48
-5.02
-3.97
-2.66
-1.62
-1.34
-1.92
-2.98
-3.71
-3.26
-1.24
2.06
5.62
8.18
8.72
6.94
3.31
-1.18
-5.50
-8.95
-11.30
-12.70
-13.38
-13.55
-13.33
-12.79
-12.05
-11.29
-10.67
-10.32
-10.22
-10.35
-10.68
-11.27
-12.18
-13.46
-15.02
-16.63
-17.99
-18.81
-18.91
-18.24
-16.83
-14.70
-11.89
-8.46
-4.57
-0.45
3.52
6.96
9.49
10.91
11.16
10.36
8.80
6.89
5.08
3.75
3.12
3.16
3.65
4.27
4.73
4.86
4.61
4.06
3.36
2.71
2.31
2.39
3.08
4.34
5.93
7.44
8.39
8.45
7.50
5.74
3.51
1.27
-0.63
-1.98
-2.75
-3.04
-2.98
-2.66
-2.10
-1.33
-0.32
0.88
2.25
3.77
5.39
6.97
8.23
8.83
8.51
7.37
5.86
4.74
4.73
6.11
8.61
11.46
13.75
14.77
14.25
12.38
9.63
6.64
4.01
2.25
1.62
2.09
3.28
4.65
5.65
6.00
5.79
5.45
5.50
6.30
7.90
10.08
12.47
14.75
16.69
18.18
19.19
19.75
19.92
19.92
20.07
20.74
22.16
24.30
26.66
28.40
28.54
26.30
21.43
14.38
6.20
-1.77
-8.35
-12.97
-15.77
-17.30
-18.06
-18.09
-16.77
-13.23
-6.88
1.96
11.97
21.10
27.29
29.00
25.37
16.17
1.50
-18.12
-41.46
-66.23
-89.18
-106.80
-116.38
-116.95
-109.50
-96.38
-80.22
-63.05
-45.88
-29.02
-12.69
2.70
16.58
28.49
38.38
46.58
53.44
59.01
62.85
64.21
62.42
57.25
49.08
38.85
27.72
16.87
7.26
-0.54
-6.38
-10.49
-13.49
-16.19
-19.41
-23.80
-29.61
-36.65
-44.35
-51.83
-58.00
-61.63
-61.53
-56.72
-46.96
-32.98
-16.57
0.04
14.81
26.70
35.98
44.08
52.81
63.40
75.79
88.44
98.86
104.48
103.63
96.11
83.32
67.62
51.51
36.69
23.60
11.57
-0.43
-12.94
-25.51
-36.81
-45.28
-49.81
-50.32
-47.62
-43.08
-37.87
-32.56
-27.04
-20.96
-14.19
-7.17
-0.81
3.84
6.15
6.25
5.00
3.63
3.14
3.84
5.22
6.17
5.57
2.90
-1.39
-6.05
-9.46
-10.37
-8.53
-4.84
-0.99
1.24
0.81
-2.08
-6.19
-9.80
-11.35
-9.67
-3.70
7.62
24.87
47.15
71.04
90.71
99.73
93.91
73.65
44.41
14.40
-9.02
-22.58
-28.11
-30.78
-35.89
-46.18
-60.93
-77.20
-91.99
-103.92
-113.36
-121.64
-129.44
-135.92
-138.80
-135.54
-124.67
-106.74
-84.02
-59.08
-33.34
-6.40
23.01
54.83
86.08
110.94
123.03
118.49
98.01
66.62
31.56
-0.60
-26.17
-44.68
-57.62
-66.48
-71.96
-74.24
-73.87
-71.69
-68.29
-63.73
-57.54
-49.32
-38.94
-26.99
-14.89
-4.61
2.43
6.29
8.65
12.14
19.40
32.55
52.58
78.79
107.57
132.18
146.67
149.34
142.03
127.05
106.49
83.02
60.28
42.08
30.91
26.98
27.53
28.57
26.29
19.01
7.59
-5.63
-18.37
-29.13
-37.19
-42.52
-44.03
-41.79
-36.45
-29.13
-21.29
-14.38
-9.32
-6.13
-4.21
-2.78
-1.58
-0.53
0.32
0.83
0.80
0.13
-1.03
-2.38
-3.48
-4.20
-4.39
-3.95
-2.99
-1.80
-0.74
-0.12
-0.02
-0.27
-0.69
-0.99
-0.90
-0.37
0.52
1.53
2.39
2.95
3.19
3.16
2.96
2.74
2.55
2.41
2.27
2.02
1.56
0.84
-0.18
-1.46
-2.92
-4.42
-5.79
-6.86
-7.46
-7.51
-7.02
-6.14
-5.13
-4.28
-3.78
-3.66
-3.77
-3.82
-3.58
-2.91
-1.81
-0.38
1.17
2.59
3.63
4.07
3.94
3.49
3.24
3.90
6.10
10.00
15.05
20.05
23.57
24.54
22.76
19.09
15.29
13.48
15.39
21.72
31.95
44.44
56.84
66.33
70.29
66.78
54.96
35.16
8.96
-20.85
-50.62
-76.28
-94.63
-103.62
-102.83
-93.71
-79.36
-63.75
-50.69
-42.72
-40.43
-43.45
-50.27
-58.43
-64.80
-65.99
-59.17
-43.14
-19.41
7.66
30.72
42.89
40.71
25.57
2.47
-22.76
-46.24
-67.23
-82.98
-92.24
-95.06
-92.20
-83.95
-70.31
-52.30
-32.47
-15.46
-2.27
6.02
9.25
8.39
5.22
1.49
-1.55
-3.47
-3.72
-1.45
3.22
10.05
18.60
27.94
36.31
41.51
41.84
37.23
29.82
22.60
18.92
21.18
29.84
43.18
57.96
70.75
79.19
82.58
81.32
76.75
70.68
64.89
60.81
59.28
60.48
63.90
68.54
72.96
75.78
76.12
73.82
69.40
63.69
57.55
51.50
45.73
39.99
33.97
27.43
20.39
13.17
6.16
-0.34
-6.25
-11.71
-17.04
-22.61
-28.62
-34.97
-41.17
-46.50
-50.26
-52.02
-51.68
-49.51
-45.96
-41.51
-36.45
-30.80
-24.21
-16.17
-7.21
1.95
10.66
18.73
26.38
33.91
41.40
48.47
54.06
56.62
54.74
47.73
36.11
21.51
6.09
-8.29
-20.27
-29.58
-35.95
-39.01
-38.59
-35.28
-30.57
-26.59
-25.23
-26.85
-29.97
-31.82
-29.76
-22.76
-11.85
0.42
11.83
20.17
24.57
25.51
24.02
20.72
15.38
7.26
-3.93
-17.36
-31.05
-42.31
-48.91
-50.01
-46.34
-39.79
-32.57
-26.30
-21.75
-18.96
-17.61
-17.42
-18.42
-20.70
-23.93
-27.14
-28.67
-26.78
-20.41
-9.77
3.43
16.42
26.35
31.33
31.01
26.35
18.82
9.56
-0.96
-12.72
-25.59
-38.97
-51.93
-63.55
-73.30
-81.00
-86.45
-89.18
-88.56
-84.45
-77.71
-70.14
-63.60
-58.81
-54.78
-49.16
-39.63
-25.22
-6.95
12.59
30.49
44.62
54.25
59.78
62.15
62.25
60.70
57.96
54.53
50.98
47.86
45.57
44.22
43.69
43.54
43.13
41.79
39.05
34.91
29.91
24.97
20.89
18.04
16.09
14.25
11.69
8.02
3.50
-1.05
-4.67
-6.73
-7.23
-6.79
-6.30
-6.61
-8.20
-11.15
-15.26
-20.22
-25.72
-31.37
-36.56
-40.51
-42.46
-41.94
-39.16
-34.95
-30.50
-26.74
-23.91
-21.36
-17.90
-12.32
-3.98
6.88
19.20
31.53
42.46
51.05
56.98
60.58
62.59
63.84
64.94
66.14
67.36
68.40
69.10
69.45
69.49
69.03
67.52
64.20
58.40
49.98
39.39
27.41
14.59
0.84
-14.28
-30.90
-48.06
-63.48
-74.18
-77.72
-73.41
-62.76
-48.93
-35.46
-24.96
-18.52
-16.03
-16.87
-20.52
-26.59
-34.44
-42.64
-48.98
-50.99
-46.97
-36.91
-22.82
-8.48
1.66
3.95
-2.90
-16.86
-32.86
-44.36
-45.85
-35.24
-14.86
9.38
30.39
42.65
44.05
35.98
21.96
5.80
-9.72
-22.99
-33.02
-38.89
-39.65
-34.84
-24.97
-11.68
2.67
15.62
25.42
31.34
33.65
33.21
31.04
27.93
24.26
20.09
15.41
10.40
5.55
1.53
-0.97
-1.70
-0.95
0.38
1.25
0.81
-1.19
-4.32
-7.69
-10.31
-11.51
-11.16
-9.73
-8.03
-6.98
-7.16
-8.47
-10.11
-10.80
-9.34
-5.22
1.09
8.25
14.52
18.57
19.96
19.19
17.42
15.78
14.93
14.94
15.43
15.96
16.28
16.50
16.88
17.73
19.22
21.24
23.53
25.79
27.80
29.49
30.89
32.00
32.80
33.14
32.87
31.96
30.56
28.98
27.61
26.72
26.34
26.27
26.18
25.74
24.81
23.49
22.04
20.82
20.10
19.93
20.21
20.64
20.89
20.63
19.67
17.98
15.72
13.10
10.35
7.52
4.41
0.70
-3.89
-9.41
-15.61
-22.02
-28.19
-33.81
-38.79
-43.14
-46.71
-49.15
-49.95
-48.69
-45.32
-40.24
-34.22
-28.12
-22.55
-17.73
-13.50
-9.46
-5.17
-0.18
5.81
12.90
20.85
28.93
36.00
40.71
42.02
39.56
33.76
25.66
16.48
7.25
-1.33
-8.70
-14.33
-17.63
-18.15
-15.98
-11.84
-6.97
-2.65
0.23
1.47
1.40
0.58
-0.59
-1.97
-3.63
-5.67
-8.00
-10.31
-12.19
-13.24
-13.22
-12.11
-10.18
-7.86
-5.77
-4.50
-4.49
-5.87
-8.37
-11.34
-13.90
-15.25
-14.98
-13.29
-11.04
-9.47
-9.69
-12.16
-16.26
-20.47
-22.87
-21.86
-16.89
-8.61
1.25
10.47
17.02
19.58
17.96
13.04
6.59
0.70
-2.92
-3.52
-1.56
1.43
3.46
2.88
-1.02
-7.78
-16.06
-24.23
-31.07
-36.05
-39.31
-41.22
-41.99
-41.51
-39.49
-35.70
-30.05
-22.63
-13.62
-3.23
7.99
18.99
28.25
34.15
35.62
32.76
26.87
19.95
13.94
10.02
8.40
8.59
9.86
11.54
13.16
14.32
14.73
14.18
12.69
10.55
8.29
6.44
5.29
4.80
4.59
4.15
3.19
1.70
0.00
-1.41
-2.12
-1.96
-1.01
0.42
1.98
3.45
4.82
6.29
8.27
11.19
15.33
20.67
26.84
33.15
38.78
42.92
45.00
44.75
42.20
37.72
31.92
25.56
19.44
14.12
9.77
6.07
2.44
-1.56
-5.75
-9.19
-10.41
-8.22
-2.32
6.39
16.23
25.55
33.46
40.06
46.00
51.75
57.20
61.72
64.66
65.84
65.76
65.20
64.72
64.36
63.72
62.34
60.05
57.14
54.22
51.87
50.42
49.77
49.39
48.49
46.17
41.71
34.65
24.99
13.17
-0.12
-14.09
-28.04
-41.44
-53.93
-65.20
-74.96
-83.01
-89.21
-93.60
-96.34
-97.69
-97.87
-97.08
-95.38
-92.77
-89.23
-84.76
-79.33
-72.92
-65.55
-57.35
-48.79
-40.80
-34.73
-32.16
-34.37
-41.87
-53.94
-68.67
-83.29
-94.87
-100.97
-100.18
-92.33
-78.44
-60.36
-40.36
-20.62
-2.86
11.96
23.58
32.28
38.56
42.87
45.40
46.10
44.80
41.33
35.70
28.27
19.83
11.70
5.52
2.89
4.91
11.68
22.22
34.61
46.60
56.31
62.78
66.27
67.98
69.50
72.03
75.77
79.55
81.00
77.20
65.52
44.61
15.14
-19.93
-55.78
-86.79
-108.04
-116.76
-112.98
-99.27
-79.65
-58.17
-37.78
-19.98
-5.10
7.05
16.70
23.91
28.66
31.13
31.72
31.07
29.82
28.53
27.66
27.56
28.53
30.76
34.28
38.91
44.17
49.30
53.30
55.16
54.00
49.31
41.06
29.62
15.73
0.33
-15.63
-31.35
-46.40
-60.81
-74.97
-89.26
-103.48
-116.52
-126.38
-130.81
-128.05
-117.54
-100.26
-78.51
-55.31
-33.51
-15.11
-1.03
8.75
14.88
18.27
19.66
19.65
18.60
16.98
15.48
14.82
15.36
17.03
19.29
21.30
22.26
21.57
19.35
16.20
12.65
8.53
3.16
-4.17
-13.82
-25.58
-39.04
-53.02
-65.92
-76.58
-85.00
-91.70
-97.25
-102.10
-106.51
-111.30
-116.25
-120.30
-122.38
-122.65
-121.81
-120.66
-120.11
-120.93
-124.23
-128.85
-131.24
-126.76
-112.17
-85.90
-48.77
-4.50
46.68
96.21
132.82
149.62
152.18
148.48
144.32
143.04
145.43
149.68
151.40
146.86
134.38
113.82
86.06
54.86
26.86
9.90
9.43
25.14
52.03
82.97
110.32
127.87
133.47
128.94
118.42
104.91
88.33
67.18
40.90
9.81
-25.45
-63.68
-103.24
-139.77
-168.62
-187.72
-203.02
-215.40
-220.22
-211.48
-181.08
-127.14
-53.54
30.29
111.60
177.95
220.32
234.53
220.45
182.68
131.63
82.22
48.72
40.15
58.24
97.89
150.67
206.20
246.71
257.20
234.20
187.23
131.05
82.48
41.76
6.89
-23.16
-48.13
-66.68
-77.07
-80.22
-80.15
-81.99
-89.80
-102.99
-118.30
-131.57
-138.40
-135.63
-123.07
-103.53
-81.49
-61.85
-46.87
-37.11
-32.02
-29.72
-28.05
-25.89
-23.62
-22.44
-23.71
-27.04
-31.17
-34.60
-35.83
-33.87
-28.68
-21.14
-12.49
-3.95
4.09
11.60
18.57
25.08
31.15
36.55
40.79
43.31
43.64
41.93
38.82
35.19
31.90
29.43
27.77
26.57
25.30
23.57
21.26
18.52
15.59
12.73
10.16
8.15
6.97
6.86
7.89
9.92
12.62
15.50
18.00
19.56
19.76
18.33
15.29
10.95
5.96
1.09
-2.90
-5.56
-6.82
-7.07
-6.91
-6.93
-7.45
-8.48
-9.79
-11.06
-12.02
-12.56
-12.68
-12.47
-12.04
-11.54
-11.17
-11.12
-11.44
-11.95
-12.31
-12.13
-11.22
-9.67
-7.82
-6.01
-4.45
-3.12
-1.87
-0.58
0.66
1.66
2.24
2.39
2.33
2.37
2.82
3.75
5.05
6.43
7.60
8.31
8.47
8.05
7.14
5.87
4.43
3.05
1.91
1.12
0.63
0.29
-0.05
-0.46
-0.85
-1.01
-0.73
0.11
1.43
3.01
4.51
5.61
6.01
5.52
4.04
1.65
-1.42
-4.82
-8.19
-11.21
-13.71
-15.65
-17.07
-18.05
-18.63
-18.85
-18.70
-18.21
-17.30
-15.74
-13.20
-9.34
-4.12
2.19
9.06
15.96
22.39
28.11
32.97
36.86
39.71
41.58
42.96
44.67
47.52
51.40
55.29
57.39
55.84
49.38
37.92
22.71
6.02
-9.39
-21.58
-29.22
-31.73
-29.28
-22.74
-13.63
-3.44
6.94
17.56
28.10
38.30
47.45
54.00
55.39
48.69
32.09
6.17
-25.61
-59.06
-89.56
-113.54
-129.49
-138.39
-143.25
-147.69
-154.71
-157.84
-152.68
-138.87
-120.71
-103.27
-88.30
-73.66
-55.39
-30.71
-0.07
31.46
57.61
74.13
80.99
81.63
80.36
79.55
78.61
75.24
66.85
53.68
39.16
27.84
22.48
22.31
23.91
23.65
20.05
13.86
7.46
3.12
1.64
2.03
2.43
1.49
-0.80
-3.27
-4.69
-4.51
-3.19
-1.84
-1.68
-3.33
-6.50
-10.05
-12.58
-13.26
-12.16
-10.28
-9.06
-9.69
-12.41
-16.36
-19.98
-21.88
-21.27
-18.52
-14.87
-11.87
-10.99
-13.34
-19.34
-28.78
-40.24
-50.67
-55.96
-52.37
-38.11
-15.54
10.04
32.30
46.49
51.34
49.01
43.44
38.04
34.28
31.68
29.16
26.06
22.76
20.31
19.48
20.22
21.70
22.89
22.86
21.47
19.16
16.65
14.61
13.41
13.02
13.18
13.50
13.67
13.55
13.12
12.46
11.75
11.18
10.99
11.54
12.99
15.57
19.60
25.20
31.87
38.21
41.83
40.13
31.55
16.70
-1.40
-18.23
-29.69
-33.98
-32.19
-27.67
-24.09
-23.55
-25.69
-28.01
-27.41
-21.63
-10.19
5.86
24.21
41.46
54.05
58.74
53.38
37.87
15.24
-10.26
-32.95
-47.86
-52.24
-46.19
-32.20
-14.04
4.38
19.64
28.90
30.21
22.66
7.17
-13.07
-32.99
-47.19
-51.98
-47.06
-35.70
-23.16
-13.98
-9.80
-8.99
-8.29
-5.23
0.27
6.15
10.09
11.32
10.81
9.72
7.65
2.43
-8.06
-22.93
-37.20
-43.79
-37.40
-18.25
7.23
29.04
38.49
30.89
8.29
-20.89
-45.37
-55.52
-46.77
-20.78
15.59
53.14
83.19
100.48
103.87
95.29
77.79
53.94
25.59
-5.23
-34.87
-57.68
-67.35
-59.79
-35.84
-1.83
32.73
58.96
72.06
72.44
64.19
52.22
39.46
25.89
9.79
-9.76
-30.94
-49.02
-58.14
-53.71
-34.30
-2.50
35.77
72.98
101.94
117.61
117.84
103.36
77.41
45.23
13.08
-13.03
-28.65
-32.01
-24.84
-12.61
-3.42
-5.28
-22.53
-53.57
-90.93
-123.68
-141.35
-137.51
-112.39
-72.73
-29.23
7.61
30.31
35.20
21.93
-7.23
-45.80
-83.40
-109.44
-119.31
-115.45
-103.62
-89.03
-74.74
-61.68
-49.37
-37.55
-27.06
-19.75
-16.75
-17.74
-21.20
-25.51
-29.59
-33.03
-35.37
-34.99
-28.95
-14.26
9.05
36.07
58.54
69.14
66.44
56.31
48.98
51.63
65.87
87.12
107.65
120.91
124.27
118.29
104.19
81.63
49.69
9.97
-31.05
-63.38
-78.54
-74.36
-55.96
-32.50
-12.11
1.05
7.14
8.42
6.99
4.03
1.01
1.08
8.95
28.59
60.90
98.57
129.65
142.70
132.92
104.29
66.10
27.85
-4.02
-26.85
-40.78
-48.39
-50.93
-48.98
-42.67
-32.33
-19.06
-5.65
3.19
2.31
-10.77
-32.95
-57.44
-75.65
-80.29
-68.08
-41.50
-7.95
22.99
43.04
47.62
34.46
5.25
-33.04
-68.66
-89.57
-88.48
-66.64
-33.20
-0.96
16.47
11.21
-17.16
-58.78
-96.80
-118.33
-122.24
-119.84
-114.24
-104.18
-86.13
-56.44
-11.72
44.73
105.71
162.48
208.22
239.62
253.19
246.82
221.18
179.60
125.90
64.21
-1.65
-67.01
-117.57
-143.27
-145.06
-131.40
-110.91
-92.08
-75.65
-61.86
-50.71
-41.37
-34.83
-31.40
-30.47
-29.49
-25.31
-15.07
1.54
21.23
38.84
48.57
48.57
42.27
35.69
33.45
37.01
43.99
50.55
53.89
52.79
48.19
42.51
38.18
36.37
37.12
39.36
42.10
44.78
46.76
47.25
45.23
39.71
30.28
17.77
4.04
-8.31
-16.75
-20.06
-18.84
-15.29
-12.26
-11.89
-14.85
-20.45
-27.40
-34.58
-41.60
-48.23
-53.98
-57.83
-58.41
-54.69
-46.73
-35.90
-24.35
-14.19
-6.63
-1.97
0.28
0.84
0.50
-0.07
-0.21
0.59
2.54
5.49
8.90
12.08
14.52
16.00
16.59
16.57
16.21
15.81
15.69
16.10
17.25
19.13
21.55
24.18
26.76
29.20
31.58
34.12
36.73
39.19
41.20
42.40
42.26
39.74
33.09
20.36
0.33
-26.18
-55.78
-83.31
-103.68
-113.97
-114.48
-108.39
-100.07
-93.30
-90.11
-90.67
-93.80
-97.42
-98.85
-95.20
-84.15
-64.96
-39.19
-10.45
16.86
39.09
54.56
63.62
67.77
68.59
67.14
64.14
60.49
57.61
56.90
58.95
62.94
66.71
67.76
64.41
56.69
46.40
36.27
28.63
24.45
23.20
23.43
23.71
23.23
22.09
21.13
21.19
22.34
23.92
24.92
24.72
23.33
21.17
19.02
17.81
18.28
20.16
22.41
23.79
23.52
21.60
18.25
13.93
9.26
4.60
-0.68
-7.52
-16.61
-28.15
-42.04
-58.82
-79.08
-102.29
-122.35
-131.97
-126.70
-108.85
-86.07
-66.59
-56.23
-56.27
-62.91
-69.71
-70.47
-60.77
-39.29
-9.52
25.23
59.16
85.88
101.62
105.27
98.58
85.91
72.31
61.72
55.28
50.31
42.06
26.80
2.09
-32.68
-74.30
-114.66
-142.28
-146.73
-124.89
-88.84
-49.02
-16.87
-1.88
-7.27
-29.60
-59.88
-85.13
-94.32
-83.53
-56.35
-22.97
6.11
25.81
37.42
44.24
49.78
56.19
63.73
72.66
82.05
90.20
95.67
97.67
94.25
86.10
76.75
68.14
58.92
43.85
18.10
-16.28
-48.82
-67.92
-63.79
-33.04
17.52
74.80
125.58
154.65
152.29
138.81
129.95
124.33
118.45
106.76
84.53
49.26
1.99
-50.98
-99.39
-135.98
-156.56
-161.01
-154.68
-145.22
-138.32
-134.14
-125.90
-103.64
-63.14
-6.10
55.98
106.17
132.15
131.85
110.95
78.40
42.73
8.97
-18.94
-37.15
-43.20
-37.31
-23.35
-7.42
5.66
14.87
21.69
28.33
35.28
40.54
40.89
33.78
20.33
4.83
-6.66
-10.24
-6.81
-1.03
2.25
1.07
-3.75
-9.82
-15.21
-19.24
-22.51
-25.48
-26.55
-21.55
-6.15
21.59
56.87
91.44
117.90
134.33
140.11
134.48
116.71
86.73
44.67
-7.10
-63.45
-118.02
-165.69
-200.79
-220.33
-224.15
-207.87
-175.19
-137.22
-106.97
-91.86
-90.43
-95.41
-98.36
-94.86
-85.46
-75.53
-70.44
-72.05
-80.05
-89.93
-98.58
-103.87
-105.24
-102.66
-97.06
-87.97
-73.44
-51.28
-20.62
16.63
58.71
101.78
141.88
176.01
203.95
227.75
250.06
272.69
284.69
278.69
254.16
218.18
179.60
144.85
115.94
91.25
67.73
42.33
15.32
-11.33
-35.00
-54.02
-67.67
-75.69
-79.19
-79.12
-76.93
-73.32
-69.78
-68.63
-72.49
-82.48
-97.21
-112.96
-124.78
-128.53
-121.56
-104.36
-79.49
-52.07
-26.79
-5.84
11.36
26.79
41.68
55.64
66.58
72.28
71.99
67.38
61.66
57.58
55.92
55.19
52.97
47.41
38.22
26.58
14.59
4.13
-3.85
-9.33
-13.09
-16.09
-19.04
-22.14
-25.08
-27.19
-27.79
-26.51
-23.56
-19.54
-15.17
-11.00
-7.22
-3.80
-0.60
2.30
4.59
5.73
5.31
3.35
0.35
-2.86
-5.48
-7.14
-7.98
-8.55
-9.46
-10.99
-12.97
-14.79
-15.78
-15.50
-13.93
-11.41
-8.47
-5.54
-2.89
-0.59
1.41
3.22
4.87
6.31
7.34
7.70
7.19
5.83
3.87
1.77
-0.04
-1.26
-1.85
-1.95
-1.74
-1.26
-0.40
1.04
3.22
6.20
9.81
13.75
17.61
20.96
23.40
24.68
24.71
23.57
21.50
18.85
16.07
13.60
11.73
10.57
9.98
9.75
9.65
9.58
9.58
9.81
10.40
11.33
12.43
13.53
14.54
15.57
16.81
18.51
20.85
23.88
27.44
31.20
34.75
37.65
39.46
39.84
38.57
35.80
31.84
27.10
22.06
17.31
13.56
11.50
11.57
13.76
17.78
22.92
28.01
31.70
32.86
30.78
25.41
17.39
8.22
0.36
-3.95
-3.75
0.02
5.19
9.47
11.60
11.81
11.51
12.81
17.07
24.19
32.85
41.30
47.83
50.40
46.35
30.46
0.77
-38.79
-79.25
-111.49
-130.61
-136.72
-133.40
-125.56
-117.11
-109.76
-103.60
-98.11
-93.07
-88.22
-83.18
-77.62
-71.65
-65.84
-61.30
-59.81
-62.79
-69.81
-77.14
-78.28
-66.74
-39.61
0.73
46.99
89.46
119.93
134.39
133.65
121.69
104.57
85.66
68.27
55.32
48.11
45.19
41.97
32.88
14.16
-13.07
-42.42
-64.58
-71.93
-62.83
-42.24
-19.20
-0.89
10.09
16.00
21.07
28.43
38.22
47.78
53.47
52.24
44.35
31.68
16.35
-0.27
-17.02
-31.82
-41.66
-43.46
-35.54
-14.63
19.12
62.06
105.64
137.95
149.83
138.61
112.82
75.66
31.57
-13.77
-54.64
-84.32
-98.39
-96.17
-80.80
-58.19
-36.01
-19.59
-11.77
-12.95
-21.04
-32.24
-42.60
-49.66
-53.92
-59.10
-68.64
-80.45
-90.16
-93.42
-89.92
-84.03
-80.59
-80.80
-80.88
-72.94
-50.47
-13.80
27.95
65.35
89.71
97.60
91.73
78.64
65.37
56.05
50.51
46.08
40.40
32.13
22.65
14.42
9.17
7.13
7.06
6.91
5.17
1.68
-2.95
-7.33
-10.17
-10.94
-9.94
-8.16
-6.90
-7.14
-9.14
-12.61
-16.64
-20.13
-22.34
-23.21
-23.39
-23.87
-25.37
-27.86
-30.52
-31.95
-30.77
-26.28
-18.68
-9.00
1.52
11.84
21.42
30.08
37.67
43.90
48.38
50.95
51.96
52.26
52.89
54.45
56.74
58.89
59.80
58.83
56.06
52.09
47.44
42.24
36.21
29.13
21.32
13.68
7.26
2.46
-1.33
-5.51
-11.44
-19.61
-29.12
-37.97
-43.84
-45.00
-40.96
-32.60
-21.75
-10.56
-0.88
6.24
10.51
12.29
12.01
9.98
6.24
0.86
-5.70
-12.40
-17.86
-20.97
-21.46
-20.03
-18.00
-16.54
-16.11
-16.28
-16.14
-14.87
-12.21
-8.49
-4.35
-0.20
3.96
8.53
13.98
20.54
27.94
35.32
41.48
45.20
45.55
42.22
35.60
26.62
16.56
6.63
-2.25
-9.57
-15.27
-19.57
-22.86
-25.60
-28.11
-30.60
-32.98
-34.86
-35.58
-34.35
-30.50
-23.84
-14.95
-5.18
3.56
9.30
10.59
6.86
-1.46
-13.07
-26.15
-38.73
-48.96
-55.45
-57.46
-55.14
-49.44
-41.87
-33.98
-26.95
-21.28
-16.88
-13.31
-10.18
-7.27
-4.56
-2.07
0.18
2.20
3.92
5.17
5.74
5.49
4.46
2.87
1.00
-0.91
-2.75
-4.49
-6.06
-7.38
-8.23
-8.46
-8.03
-7.04
-5.81
-4.76
-4.28
-4.61
-5.69
-7.10
-8.17
-8.28
-7.10
-4.92
-2.58
-1.20
-1.71
-4.35
-8.41
-12.60
-15.56
-16.48
-15.42
-13.34
-11.61
-11.52
-13.66
-17.56
-21.81
-24.21
-22.16
-13.21
4.09
29.49
60.51
92.96
122.08
143.73
155.54
157.36
150.86
138.50
122.69
104.98
86.75
69.51
54.55
42.49
32.93
24.43
14.83
2.22
-14.90
-35.80
-57.80
-77.81
-93.56
-103.80
-107.79
-105.33
-96.57
-83.69
-69.25
-55.57
-44.87
-38.70
-37.04
-38.43
-41.79
-47.27
-57.93
-75.47
-97.69
-118.82
-131.33
-128.35
-106.11
-66.00
-7.50
56.49
106.28
129.67
128.22
111.28
88.51
68.50
51.78
37.64
24.16
11.20
0.52
-6.30
-8.56
-7.24
-3.92
-0.43
2.38
3.36
2.98
3.09
5.22
9.36
14.23
18.30
20.28
20.04
17.48
13.36
9.04
5.58
3.18
1.51
0.19
-1.23
-2.83
-4.91
-7.33
-9.55
-11.26
-12.75
-14.67
-17.35
-20.25
-21.80
-20.29
-14.83
-6.11
3.33
9.94
10.48
3.44
-10.56
-29.07
-48.79
-66.39
-79.16
-85.24
-83.84
-75.41
-61.71
-45.43
-29.42
-15.91
-5.91
0.76
5.07
8.26
11.43
15.38
20.50
26.78
33.82
40.77
46.66
50.65
52.51
52.56
51.49
49.81
47.52
44.19
39.37
33.28
26.99
22.16
20.38
22.46
28.05
35.77
43.76
50.36
54.60
56.33
55.99
54.29
51.96
49.56
47.44
45.68
44.03
41.98
38.97
34.56
28.77
22.19
15.72
10.29
6.53
4.66
4.53
5.75
7.73
9.83
11.51
12.39
12.52
12.21
11.83
11.58
11.15
9.42
4.87
-3.47
-15.56
-29.79
-43.67
-54.60
-60.49
-60.52
-55.61
-48.02
-40.20
-34.39
-31.58
-31.66
-33.62
-35.54
-35.13
-30.92
-22.49
-9.99
5.37
22.20
38.80
53.03
62.76
65.70
59.06
40.48
9.83
-31.13
-73.31
-104.56
-118.62
-118.09
-110.36
-102.06
-99.16
-98.12
-94.77
-86.97
-75.69
-64.53
-56.46
-49.78
-41.47
-26.62
-0.17
39.71
85.96
126.04
149.44
154.65
147.22
134.89
123.52
115.31
108.46
99.42
87.85
71.00
47.96
19.03
-13.79
-47.60
-79.87
-109.98
-138.61
-165.07
-188.94
-202.81
-200.65
-178.44
-136.17
-78.39
-12.57
54.14
118.37
177.26
227.35
262.71
277.08
265.98
229.25
172.20
98.37
23.57
-34.43
-67.09
-78.81
-79.20
-75.62
-71.07
-65.68
-58.83
-49.61
-39.54
-31.09
-26.17
-24.52
-24.27
-23.46
-21.07
-16.84
-10.55
-3.56
2.21
5.47
6.65
7.17
8.44
10.75
13.94
17.79
20.60
21.29
19.12
14.53
8.73
3.04
-2.15
-6.32
-8.96
-10.08
-9.93
-8.68
-6.21
-2.33
2.81
7.81
11.64
13.38
12.22
7.75
-0.01
-10.44
-22.79
-31.84
-37.93
-42.08
-45.29
-48.22
-51.00
-53.27
-54.34
-53.58
-50.80
-47.24
-44.02
-42.24
-42.63
-45.08
-48.66
-51.94
-53.70
-53.33
-51.71
-49.94
-49.09
-50.01
-53.26
-59.17
-67.54
-76.97
-84.40
-85.84
-77.23
-56.74
-26.48
7.85
38.98
61.09
72.05
73.68
69.87
64.49
59.52
54.92
49.80
43.76
37.57
32.58
29.79
28.94
28.83
27.90
24.91
19.77
13.37
7.15
2.44
-0.13
-0.84
-0.64
-0.61
-1.36
-2.86
-4.49
-5.24
-4.40
-1.73
2.35
6.88
10.93
13.82
15.43
15.97
15.93
15.83
15.96
16.29
16.50
16.34
15.73
15.01
14.56
14.96
16.69
19.88
24.27
29.07
33.62
36.52
38.19
39.14
40.00
41.29
43.09
45.71
47.53
47.33
44.41
39.03
32.15
25.21
19.58
15.96
14.11
12.89
11.20
8.66
5.83
3.92
4.20
7.58
14.14
23.54
35.19
48.39
61.49
71.20
73.12
63.80
43.17
15.65
-11.22
-30.57
-39.16
-38.74
-34.47
-31.79
-33.42
-38.52
-44.08
-47.42
-48.28
-48.03
-47.53
-45.49
-38.66
-23.60
0.97
33.44
69.60
102.66
125.61
134.08
127.33
107.64
78.81
44.45
7.45
-26.72
-52.49
-66.93
-70.64
-66.22
-56.47
-43.50
-29.07
-14.09
0.59
13.65
23.87
30.89
35.45
39.06
43.35
47.41
51.40
54.39
54.63
50.57
41.80
29.43
15.87
3.79
-5.93
-13.08
-18.85
-25.09
-33.65
-45.79
-61.82
-81.76
-99.58
-113.92
-125.38
-136.51
-150.19
-169.43
-197.00
-234.53
-280.80
-331.57
-380.62
-419.08
-438.69
-433.45
-402.77
-351.99
-289.81
-223.90
-159.08
-97.83
-40.11
13.95
64.19
109.29
144.71
163.25
162.67
148.06
127.90
114.75
110.58
114.14
123.30
136.13
148.16
159.40
172.07
188.39
209.65
235.12
264.18
295.76
327.54
356.30
379.08
392.70
393.26
377.47
343.72
294.64
235.89
172.92
109.25
46.05
-17.06
-80.74
-143.90
-202.43
-248.57
-269.54
-254.95
-206.95
-142.47
-82.24
-39.67
-16.91
-8.17
-4.76
-0.05
7.74
18.82
30.48
41.83
52.80
62.15
66.55
61.95
45.60
14.10
-26.85
-67.40
-97.91
-113.51
-115.00
-106.77
-93.65
-79.00
-64.89
-52.19
-42.27
-35.82
-32.82
-32.21
-32.30
-31.24
-27.68
-21.55
-13.55
-5.57
0.76
4.45
5.55
4.81
3.69
3.51
4.86
7.64
10.17
11.15
9.43
4.70
-2.49
-10.33
-16.65
-19.74
-18.87
-14.83
-9.45
-5.03
-3.31
-5.20
-9.95
-15.98
-22.02
-27.53
-33.19
-40.39
-50.56
-61.81
-74.43
-88.07
-101.91
-114.51
-123.39
-125.12
-116.20
-94.86
-62.73
-24.95
12.02
42.42
63.29
75.10
80.53
82.82
84.32
84.98
84.51
83.73
84.41
88.87
98.79
114.17
132.51
148.77
156.00
148.33
123.58
84.37
37.91
-6.58
-41.23
-62.27
-68.46
-64.46
-56.66
-49.28
-43.31
-37.09
-28.95
-18.75
-8.07
0.80
5.72
6.29
3.63
-1.06
-5.90
-10.21
-14.62
-20.31
-28.46
-39.89
-54.04
-67.68
-80.11
-91.36
-102.38
-113.55
-123.19
-127.18
-120.54
-99.80
-65.51
-23.39
18.08
50.55
69.46
75.20
72.09
65.43
59.26
55.46
54.39
56.69
63.28
74.18
87.31
98.03
100.43
90.31
67.55
36.58
6.34
-15.17
-24.03
-21.42
-12.10
-1.65
6.17
10.36
11.76
11.78
10.98
9.08
5.36
-0.21
-7.22
-14.94
-22.39
-28.84
-33.75
-36.80
-38.02
-37.68
-36.32
-34.65
-33.44
-33.28
-34.47
-36.79
-39.63
-42.83
-46.65
-51.65
-58.41
-67.07
-77.20
-88.18
-99.59
-110.96
-122.09
-131.99
-138.34
-137.80
-127.44
-106.30
-76.06
-40.20
-1.95
35.37
68.57
93.92
106.65
101.48
74.54
25.67
-43.69
-122.95
-197.26
-252.16
-278.17
-273.46
-243.49
-198.39
-148.64
-100.41
-55.15
-11.91
30.47
71.39
108.20
137.15
155.63
163.93
167.39
173.07
186.73
211.63
248.24
294.20
344.67
392.38
428.47
446.45
441.51
412.15
361.79
298.81
234.64
180.43
143.56
110.77
74.45
32.09
-12.86
-54.56
-89.09
-116.00
-137.50
-157.04
-176.73
-194.00
-204.89
-206.41
-198.42
-184.40
-170.19
-160.77
-159.18
-164.04
-169.90
-170.74
-162.40
-143.53
-115.85
-83.42
-51.27
-28.76
-23.28
-38.05
-70.68
-112.28
-149.38
-168.76
-167.01
-147.63
-120.58
-97.06
-84.33
-83.19
-89.29
-96.27
-100.64
-103.23
-105.96
-110.87
-117.43
-122.10
-118.91
-106.82
-85.23
-56.02
-22.94
12.86
49.80
85.34
115.85
138.02
150.03
153.11
150.53
146.44
148.19
159.23
178.13
200.29
222.03
242.15
262.13
283.68
307.33
336.58
371.24
406.68
436.24
455.15
461.88
458.84
450.50
412.62
338.11
236.51
126.86
25.30
-59.28
-123.91
-168.40
-195.22
-209.32
-212.45
-205.58
-193.80
-180.98
-166.96
-149.59
-126.54
-97.19
-63.20
-24.20
17.82
58.33
81.20
76.64
43.88
-7.55
-63.78
-113.03
-147.74
-167.31
-176.23
-179.81
-179.94
-176.75
-169.68
-160.58
-152.16
-145.45
-139.99
-134.87
-129.49
-122.94
-116.64
-111.17
-109.60
-114.67
-126.98
-143.70
-159.73
-168.55
-163.63
-141.98
-104.53
-58.84
-14.20
21.87
47.64
66.52
84.97
108.53
131.02
151.49
161.76
154.96
124.09
72.40
9.95
-49.89
-95.67
-121.22
-125.34
-113.10
-92.03
-70.93
-57.72
-59.12
-77.24
-109.69
-149.32
-185.17
-207.58
-209.99
-191.16
-154.44
-106.44
-52.25
3.58
57.65
108.13
153.46
193.26
227.60
257.03
281.97
305.35
328.15
349.00
364.55
370.87
366.19
351.88
332.51
297.33
245.56
184.26
124.62
73.96
33.14
-0.35
-29.11
-54.42
-76.71
-91.84
-99.79
-101.63
-99.83
-96.92
-94.78
-94.73
-97.52
-103.53
-110.56
-117.33
-122.38
-125.00
-125.21
-123.52
-121.01
-118.64
-117.16
-115.48
-114.57
-113.87
-112.68
-109.75
-103.24
-91.72
-74.53
-52.65
-26.94
-0.88
21.91
38.75
48.91
53.67
55.22
56.38
57.23
58.31
59.23
59.52
58.89
57.49
57.64
58.52
58.65
56.63
51.91
44.61
34.75
23.50
11.99
0.38
-12.13
-25.69
-39.57
-51.33
-58.73
-61.25
-60.85
-60.72
-63.68
-70.92
-81.52
-93.81
-106.46
-118.20
-126.54
-129.50
-122.19
-101.49
-67.86
-25.51
18.73
57.82
84.94
97.16
97.94
94.45
92.19
92.03
90.26
83.39
66.85
40.18
7.49
-25.01
-51.86
-70.88
-83.22
-91.44
-97.47
-101.65
-102.39
-96.73
-83.97
-66.13
-47.60
-33.14
-25.83
-25.97
-31.41
-38.02
-40.96
-36.47
-22.94
-1.33
25.59
53.97
79.89
100.04
112.62
117.38
115.13
107.28
95.38
81.28
66.34
51.26
36.32
22.26
10.62
3.30
1.84
6.72
17.84
33.57
50.94
66.51
77.68
83.28
83.54
79.78
73.94
69.18
68.09
71.76
79.42
89.02
97.73
102.49
100.78
85.04
53.71
12.90
-26.30
-54.91
-70.54
-76.93
-80.24
-85.46
-94.22
-103.43
-108.79
-107.50
-99.43
-86.44
-71.08
-55.18
-39.44
-24.26
-9.51
3.67
13.19
15.31
8.85
-4.04
-18.54
-29.54
-34.70
-34.60
-32.81
-33.71
-40.02
-50.92
-62.30
-68.33
-63.88
-46.12
-16.44
18.82
52.10
78.75
97.79
109.22
111.86
106.71
90.80
63.79
29.67
-3.99
-29.12
-40.55
-37.84
-24.62
-6.88
8.82
18.51
21.24
18.49
12.77
6.34
0.68
-3.65
-6.72
-9.29
-11.57
-13.65
-15.23
-15.74
-14.77
-12.31
-9.17
-6.31
-4.21
-1.94
1.43
5.23
6.83
2.88
-8.27
-26.03
-47.45
-68.91
-87.55
-102.76
-114.79
-122.47
-124.10
-113.67
-86.91
-44.39
7.69
59.71
101.79
127.86
137.53
135.34
128.22
121.29
116.68
111.69
104.73
95.13
83.64
72.13
62.54
56.23
52.56
49.45
44.95
38.48
30.80
23.85
19.78
19.94
24.56
31.71
38.21
41.03
38.10
28.09
10.79
-13.28
-42.90
-72.08
-93.09
-100.01
-92.39
-75.18
-55.06
-36.17
-19.64
-4.48
10.77
26.02
37.20
43.02
42.78
36.62
26.38
14.72
4.04
-4.46
-11.79
-21.01
-36.18
-56.17
-81.08
-110.49
-143.48
-178.44
-212.40
-241.03
-259.11
-261.67
-246.54
-216.18
-176.45
-134.69
-96.97
-65.99
-41.27
-20.80
-3.00
12.14
23.17
29.41
31.82
32.70
34.40
37.83
41.94
44.50
43.50
38.21
29.82
20.62
12.58
6.51
1.90
-2.32
-6.89
-11.64
-15.76
-18.00
-17.27
-12.96
-4.95
6.33
19.94
34.44
47.93
58.40
64.50
66.04
63.92
59.47
53.48
45.86
36.21
24.56
12.09
1.09
-5.92
-7.40
-3.40
4.47
13.68
21.67
26.57
27.57
24.96
19.90
13.95
8.45
3.82
-0.82
-7.34
-17.47
-31.35
-46.59
-58.61
-62.24
-53.70
-32.05
0.78
41.01
84.63
128.45
170.05
207.09
236.65
255.17
259.49
248.16
222.40
185.97
144.17
102.24
64.08
31.57
4.81
-17.29
-36.29
-54.01
-72.37
-93.44
-119.12
-150.47
-187.10
-226.66
-265.07
-297.28
-318.42
-324.89
-315.01
-289.19
-249.71
-200.29
-145.63
-90.58
-39.44
4.95
41.52
70.60
93.14
109.77
120.45
124.71
122.35
114.04
101.57
87.30
73.40
61.18
51.03
42.72
35.96
30.64
26.86
24.67
23.93
24.28
25.37
26.90
28.56
30.01
30.96
31.28
31.11
30.85
31.04
32.29
35.28
40.76
49.44
61.70
77.15
94.43
111.43
125.87
136.05
141.23
141.55
137.51
129.49
117.48
101.38
81.38
58.30
33.34
7.75
-17.56
-42.09
-65.55
-87.44
-106.85
-122.69
-134.07
-140.74
-143.32
-143.02
-141.19
-138.71
-135.78
-131.88
-126.20
-118.10
-107.39
-94.48
-80.12
-65.17
-50.30
-35.78
-21.51
-7.01
8.25
24.64
42.04
59.70
76.28
90.09
99.62
103.91
103.03
98.09
90.89
83.40
77.11
72.48
68.65
63.57
54.49
38.98
16.03
-13.01
-44.39
-72.95
-93.93
-105.15
-108.44
-109.43
-115.49
-132.13
-159.85
-192.77
-220.34
-231.16
-217.68
-179.00
-120.89
-53.35
12.76
68.10
106.47
125.37
126.82
117.01
104.93
99.22
104.11
116.58
126.83
122.60
95.41
45.69
-16.62
-75.68
-115.90
-127.61
-109.91
-70.07
-19.84
28.96
68.32
96.22
116.33
135.28
158.56
187.32
217.69
243.90
261.78
271.13
274.73
275.42
273.32
264.82
245.07
211.35
166.12
116.14
69.39
31.13
2.66
-17.43
-31.75
-43.29
-55.62
-71.53
-92.27
-115.39
-135.13
-143.73
-134.35
-104.55
-58.11
-9.65
24.17
32.51
18.66
-4.23
-23.52
-33.42
-34.98
-32.83
-31.88
-31.76
-33.15
-35.64
-39.41
-45.52
-55.05
-68.10
-83.81
-100.63
-115.68
-125.56
-126.77
-118.47
-103.17
-85.73
-71.50
-64.09
-63.69
-66.21
-65.56
-56.18
-36.50
-9.52
18.97
43.14
58.87
63.87
57.19
38.55
9.55
-25.27
-58.05
-79.54
-82.92
-67.58
-39.95
-10.64
10.63
19.49
17.91
11.65
6.27
4.05
3.67
2.32
-1.76
-7.93
-13.61
-16.04
-13.92
-7.98
-0.67
5.27
8.17
8.09
6.59
6.00
8.22
13.85
21.73
29.34
33.96
34.20
30.27
23.80
17.12
12.14
9.72
9.21
8.72
6.18
0.82
-6.80
-15.07
-21.90
-25.60
-25.30
-21.29
-14.96
-8.21
-2.47
0.71
-0.38
-7.19
-19.96
-36.08
-50.07
-56.36
-55.35
-48.94
-39.90
-30.95
-22.93
-16.50
-11.33
-6.73
-2.51
0.82
2.92
3.45
2.41
0.40
-1.73
-2.94
-2.68
-1.30
0.12
0.93
0.70
-0.59
-2.59
-4.82
-6.74
-8.07
-8.94
-9.50
-9.05
-6.29
0.19
11.35
26.91
45.31
63.95
79.91
90.70
95.39
94.10
86.99
73.56
52.79
24.29
-10.35
-46.82
-79.05
-100.66
-107.85
-101.12
-84.82
-64.82
-45.59
-28.58
-12.05
4.41
19.78
32.08
39.92
43.41
44.01
43.27
41.71
39.62
35.37
28.44
20.06
12.54
7.91
6.75
7.94
9.32
8.53
3.76
-4.91
-15.71
-25.94
-32.82
-34.24
-29.10
-17.59
-1.37
16.28
31.73
41.81
44.48
39.49
28.61
15.15
2.56
-7.14
-14.61
-21.89
-30.49
-40.50
-50.42
-58.11
-62.15
-62.78
-62.05
-63.15
-68.25
-76.68
-85.68
-91.61
-91.01
-81.33
-61.26
-28.79
13.21
57.21
95.06
121.10
133.08
131.07
116.66
92.80
63.87
36.21
12.96
-2.76
-9.43
-7.95
-1.11
7.84
16.38
22.98
26.69
26.62
23.55
18.92
14.25
10.82
9.48
10.44
13.00
15.54
16.31
14.85
11.66
7.95
5.14
4.50
6.59
10.95
16.10
20.17
21.87
20.46
15.56
7.04
-4.24
-16.01
-25.05
-28.83
-27.12
-22.11
-17.73
-17.83
-24.31
-36.09
-49.65
-61.00
-67.57
-69.19
-67.63
-65.17
-63.37
-62.63
-62.55
-62.60
-62.29
-60.82
-56.92
-49.10
-36.55
-19.97
-1.56
15.87
30.14
40.53
47.49
51.74
53.57
52.65
48.63
42.01
34.59
28.16
24.19
22.90
23.22
23.51
22.55
20.00
16.43
12.80
9.72
7.38
5.44
3.41
0.95
-2.00
-5.26
-8.51
-11.36
-13.49
-14.55
-14.43
-13.62
-13.07
-13.73
-15.85
-18.71
-21.01
-21.73
-20.45
-17.63
-14.03
-10.00
-5.26
0.95
9.26
19.74
30.75
40.55
47.95
52.66
54.92
54.69
51.69
45.87
37.98
29.90
24.54
24.59
31.19
43.11
56.73
68.23
75.01
76.04
71.34
61.76
48.53
33.30
18.40
6.01
-1.60
-3.39
-1.34
-0.70
-7.60
-26.06
-55.56
-91.14
-126.42
-154.71
-171.16
-173.83
-163.47
-141.98
-111.77
-75.66
-33.54
6.79
35.20
47.91
50.47
52.18
60.37
74.71
90.23
100.10
97.96
82.22
54.63
21.78
-7.81
-26.46
-30.60
-21.64
-5.63
9.02
16.81
17.25
14.03
11.76
13.38
18.50
24.70
29.00
29.43
26.37
21.57
16.63
11.83
6.79
1.01
-4.79
-9.20
-11.19
-10.63
-8.92
-9.07
-14.92
-27.16
-44.15
-61.29
-73.78
-79.26
-77.97
-71.87
-63.42
-54.52
-45.89
-37.63
-29.58
-22.23
-16.61
-13.59
-13.46
-15.64
-18.87
-21.44
-22.12
-20.31
-16.24
-10.80
-5.17
-0.60
1.81
1.52
-1.20
-5.40
-9.90
-13.67
-16.35
-18.26
-19.99
-22.31
-25.81
-30.97
-37.80
-45.28
-50.98
-51.37
-43.47
-25.41
1.26
31.97
60.40
81.24
92.03
93.66
89.13
81.86
74.27
66.59
59.72
53.97
49.81
47.57
47.01
47.09
46.56
44.73
41.65
38.48
36.76
37.90
42.32
48.93
54.97
56.85
51.58
38.28
19.35
-0.08
-13.85
-17.41
-9.93
5.33
22.29
34.44
37.33
30.09
15.17
-3.12
-20.57
-34.40
-43.62
-48.60
-50.17
-48.61
-44.67
-38.82
-31.74
-24.50
-18.32
-14.05
-11.77
-10.71
-9.66
-7.44
-3.51
1.77
7.33
11.93
14.61
15.16
14.03
11.77
9.34
7.15
5.07
2.63
-0.63
-4.89
-9.84
-14.38
-18.16
-20.71
-22.01
-22.41
-22.49
-22.64
-23.02
-23.42
-23.42
-22.83
-21.68
-20.45
-19.79
-20.44
-22.28
-24.82
-27.24
-28.69
-28.85
-27.99
-27.08
-27.26
-29.38
-33.43
-38.59
-43.45
-46.83
-48.09
-47.59
-46.49
-46.13
-47.68
-51.91
-59.11
-68.83
-79.29
-87.21
-88.42
-79.39
-59.17
-30.49
0.79
27.92
46.06
54.13
54.61
51.52
48.07
45.16
41.76
36.51
29.40
21.82
16.22
14.41
16.57
21.49
27.52
33.19
37.65
40.22
40.08
36.52
29.72
21.05
12.94
7.65
6.15
7.41
9.10
8.89
5.60
0.55
-4.06
-6.08
-5.38
-2.93
-0.03
2.76
5.77
9.96
16.05
23.76
32.10
39.24
43.75
44.82
42.76
38.35
32.65
26.54
20.44
14.25
7.60
0.37
-8.10
-16.31
-23.04
-27.43
-28.56
-26.91
-23.43
-19.26
-15.23
-11.94
-9.01
-6.04
-2.64
1.30
5.79
10.37
14.62
18.45
22.00
26.15
31.58
38.55
44.70
49.81
53.32
54.64
55.43
55.16
54.39
53.91
54.59
57.14
62.15
69.13
76.36
81.09
80.00
71.20
54.73
32.89
9.50
-11.26
-26.89
-37.19
-43.61
-47.93
-50.48
-50.47
-46.65
-38.64
-27.44
-15.56
-6.16
-1.45
-1.56
-4.23
-6.30
-5.33
-0.38
8.18
19.05
30.13
38.99
43.25
40.80
29.74
8.80
-21.88
-59.24
-95.57
-122.51
-136.42
-139.34
-135.40
-127.24
-115.00
-97.60
-74.71
-48.05
-21.74
-0.82
11.09
13.18
7.49
-2.04
-10.94
-16.06
-16.42
-13.85
-11.76
-12.93
-18.16
-26.49
-36.33
-46.18
-54.58
-59.66
-58.53
-48.10
-26.34
5.70
43.39
80.05
109.86
129.30
137.30
133.57
118.11
92.35
60.20
28.38
2.77
-12.90
-19.40
-20.91
-21.83
-23.50
-22.85
-15.40
1.18
24.67
49.57
69.81
82.55
89.17
91.02
88.12
78.18
58.47
28.70
-7.09
-41.68
-67.15
-79.15
-78.80
-70.78
-60.82
-53.05
-49.04
-48.20
-49.11
-50.42
-51.38
-51.72
-51.10
-49.55
-47.29
-44.69
-42.44
-41.63
-43.57
-49.20
-58.26
-67.64
-72.64
-68.38
-52.18
-25.37
6.66
36.50
57.25
66.20
65.17
58.77
51.90
47.57
46.19
46.47
46.77
46.15
44.73
43.16
41.97
41.47
41.65
42.13
42.62
43.11
43.82
44.99
46.23
46.15
42.80
34.50
21.02
4.20
-12.60
-25.99
-33.94
-36.79
-36.90
-37.12
-38.94
-41.59
-42.53
-39.01
-29.93
-16.69
-2.78
7.99
13.36
13.78
11.88
10.87
12.47
15.81
18.00
15.90
8.14
-3.76
-15.96
-24.17
-25.76
-20.96
-12.47
-4.10
1.13
2.07
-0.52
-4.75
-8.77
-11.59
-13.17
-14.06
-14.76
-15.31
-15.29
-14.12
-11.51
-7.73
-3.51
0.32
3.24
5.27
6.86
8.45
10.22
11.83
12.74
12.48
11.06
8.93
6.83
5.32
4.62
4.49
4.53
4.40
4.06
3.69
3.51
3.63
3.95
4.25
4.33
4.12
3.66
3.01
2.17
1.08
-0.20
-1.49
-2.48
-2.86
-2.47
-1.37
0.22
2.10
4.18
6.46
8.87
11.13
12.76
13.33
12.65
10.87
8.40
5.87
3.92
3.20
4.23
7.34
12.51
19.21
26.80
34.12
40.20
44.64
47.57
49.17
49.06
46.11
38.87
26.61
10.00
-8.87
-27.25
-42.69
-53.76
-59.95
-61.23
-58.08
-51.42
-43.07
-35.69
-31.98
-33.42
-39.57
-48.37
-57.20
-64.47
-69.54
-72.25
-72.14
-67.84
-57.47
-39.75
-15.23
13.64
42.76
68.90
90.10
105.07
112.06
108.56
91.87
60.89
17.61
-32.90
-82.02
-120.37
-141.19
-142.49
-127.03
-100.87
-70.84
-38.45
-8.22
15.97
33.12
44.28
50.38
52.03
49.44
43.60
36.52
29.88
25.44
23.78
24.18
24.90
24.34
22.03
18.93
16.78
16.60
18.87
22.97
27.23
29.65
28.94
25.07
19.11
12.58
6.44
1.39
-2.13
-4.04
-4.45
-3.58
-1.77
0.49
2.72
4.33
5.14
5.24
4.71
3.49
1.39
-1.74
-5.78
-10.32
-14.83
-18.74
-21.72
-23.80
-25.31
-26.66
-28.03
-29.32
-30.16
-30.14
-29.03
-26.97
-24.46
-22.20
-20.67
-19.88
-19.24
-17.78
-14.52
-8.93
-1.20
7.62
15.88
21.71
23.59
20.79
13.80
4.31
-5.19
-12.27
-15.39
-14.50
-11.07
-7.46
-5.90
-7.64
-12.47
-19.04
-25.49
-30.23
-32.37
-31.61
-27.91
-21.16
-11.35
1.14
15.20
29.00
40.59
48.53
52.30
52.01
47.78
39.26
25.85
7.69
-13.30
-33.13
-46.77
-50.02
-41.41
-23.04
0.28
22.89
40.27
50.16
52.56
48.89
41.01
30.73
19.71
9.52
1.62
-2.91
-3.65
-1.04
3.66
8.73
12.55
14.04
12.96
9.91
6.06
2.71
0.80
0.64
1.91
3.83
5.52
6.40
6.29
5.49
4.56
4.04
4.23
5.06
6.15
6.96
7.06
6.28
4.77
2.87
1.00
-0.52
-1.51
-1.98
-2.04
-1.87
-1.64
-1.46
-1.37
-1.35
-1.33
-1.24
-1.07
-0.84
-0.60
-0.34
-0.01
0.43
1.01
1.65
2.23
2.60
2.66
2.40
1.94
1.50
1.31
1.58
2.39
3.66
5.13
6.48
7.40
7.70
7.38
6.61
5.61
4.61
3.80
3.27
3.08
3.23
3.64
4.14
4.51
4.52
4.04
3.08
1.80
0.42
-0.83
-1.83
-2.57
-3.13
-3.58
-3.98
-4.32
-4.57
-4.70
-4.73
-4.75
-4.84
-5.06
-5.40
-5.75
-5.99
-6.02
-5.80
-5.34
-4.71
-3.95
-3.12
-2.29
-1.55
-1.01
-0.73
-0.73
-0.91
-1.14
-1.30
-1.31
-1.22
-1.11
-1.05
-1.11
-1.27
-1.52
-1.79
-2.04
-2.24
-2.34
-2.31
-2.12
-1.74
-1.16
-0.36
0.57
1.54
2.35
2.83
2.83
2.32
1.37
0.15
-1.12
-2.20
-2.92
-3.17
-2.91
-2.20
-1.18
0.01
1.20
2.23
2.95
3.25
3.08
2.52
1.75
1.02
0.53
0.40
0.55
0.83
1.06
1.12
0.99
0.71
0.32
-0.11
-0.56
-0.99
-1.35
-1.62
-1.82
-1.99
-2.19
-2.43
-2.62
-2.68
-2.52
-2.15
-1.69
-1.34
-1.30
-1.63
-2.29
-3.08
-3.76
-4.13
-4.11
-3.71
-3.01
-2.15
-1.23
-0.34
0.46
1.13
1.67
2.06
2.28
2.34
2.23
1.96
1.57
1.13
0.69
0.29
-0.04
-0.32
-0.56
-0.75
-0.83
-0.74
-0.48
-0.11
0.21
0.33
0.14
-0.33
-0.99
-1.68
-2.24
-2.59
-2.69
-2.57
-2.29
-1.93
-1.60
-1.37
-1.26
-1.24
-1.22
-1.13
-0.90
-0.56
-0.15
0.25
0.57
0.79
0.92
1.00
1.09
1.25
1.49
1.78
2.09
2.33
2.47
2.43
2.17
1.66
0.94
0.15
-0.49
-0.79
-0.66
-0.20
0.39
0.91
1.23
1.40
1.48
1.52
1.51
1.35
1.01
0.52
0.02
-0.37
-0.60
-0.71
-0.78
-0.83
-0.88
-0.91
-0.94
-1.02
-1.16
-1.34
-1.42
-1.27
-0.82
-0.16
0.54
1.10
1.42
1.54
1.54
1.53
1.51
1.47
1.36
1.19
0.98
0.81
0.73
0.70
0.67
0.57
0.38
0.13
-0.04
-0.05
0.13
0.42
0.65
0.65
0.34
-0.18
-0.73
-1.10
-1.17
-0.99
-0.73
-0.56
-0.61
-0.84
-1.13
-1.35
-1.39
-1.22
-0.87
-0.45
-0.05
0.27
0.50
0.64
0.71
0.73
0.70
0.63
0.56
0.51
0.51
0.57
0.65
0.71
0.73
0.72
0.73
0.78
0.85
0.86
0.75
0.48
0.09
-0.33
-0.66
-0.82
-0.80
-0.66
-0.43
-0.19
0.03
0.20
0.29
0.26
0.11
-0.16
-0.51
-0.86
-1.20
-1.49
-1.75
-1.96
-2.07
-2.02
-1.75
-1.30
-0.74
-0.22
0.18
0.41
0.51
0.55
0.62
0.77
1.01
1.28
1.52
1.64
1.57
1.29
0.87
0.42
0.06
-0.16
-0.24
-0.23
-0.18
-0.10
0.03
0.20
0.36
0.36
0.09
-0.45
-1.08
-1.56
-1.64
-1.26
-0.57
0.15
0.61
0.69
0.41
-0.09
-0.67
-1.22
-1.69
-2.03
-2.15
-1.94
-1.39
-0.60
0.22
0.83
1.06
0.89
0.48
0.05
-0.20
-0.17
0.10
0.45
0.73
0.81
0.68
0.38
0.02
-0.30
-0.51
-0.58
-0.51
-0.34
-0.14
0.01
0.02
-0.14
-0.40
-0.66
-0.78
-0.71
-0.47
-0.14
0.19
0.44
0.60
0.64
0.56
0.37
0.09
-0.23
-0.50
-0.66
-0.68
-0.60
-0.43
-0.27
-0.15
-0.09
-0.10
-0.18
-0.26
-0.30
-0.26
-0.18
-0.10
-0.08
-0.16
-0.33
-0.51
-0.64
-0.69
-0.68
-0.64
-0.60
-0.56
-0.48
-0.33
-0.12
0.12
0.35
0.52
0.60
0.60
0.52
0.33
0.06
-0.28
-0.68
-1.09
-1.44
-1.66
-1.69
-1.50
-1.10
-0.60
-0.11
0.23
0.39
0.39
0.33
0.31
0.40
0.56
0.71
0.76
0.71
0.61
0.58
0.70
0.96
1.23
1.29
0.99
0.33
-0.48
-1.13
-1.35
-1.06
-0.42
0.25
0.65
0.65
0.34
-0.04
-0.25
-0.20
0.05
0.32
0.42
0.25
-0.15
-0.65
-1.11
-1.45
-1.65
-1.75
-1.78
-1.72
-1.53
-1.18
-0.69
-0.15
0.30
0.55
0.60
0.54
0.52
0.59
0.76
0.93
0.96
0.80
0.50
0.18
-0.01
0.02
0.26
0.57
0.77
0.69
0.26
-0.46
-1.27
-1.97
-2.37
-2.37
-2.02
-1.49
-1.00
-0.74
-0.76
-1.01
-1.33
-1.58
-1.67
-1.63
-1.53
-1.43
-1.34
-1.23
-1.04
-0.76
-0.46
-0.20
-0.05
-0.03
-0.08
-0.15
-0.19
-0.24
-0.32
-0.45
-0.60
-0.69
-0.67
-0.53
-0.32
-0.10
0.10
0.28
0.44
0.58
0.64
0.55
0.29
-0.12
-0.57
-1.01
-1.39
-1.71
-1.96
-2.13
-2.17
-2.07
-1.86
-1.62
-1.44
-1.32
-1.23
-1.07
-0.81
-0.47
-0.10
0.23
0.51
0.74
0.94
1.08
1.15
1.11
1.00
0.88
0.76
0.65
0.51
0.34
0.16
0.07
0.13
0.35
0.68
0.98
1.16
1.21
1.12
0.93
0.67
0.34
-0.05
-0.49
-0.92
-1.29
-1.57
-1.75
-1.86
-1.95
-2.06
-2.22
-2.39
-2.51
-2.50
-2.26
-1.78
-1.07
-0.22
0.64
1.37
1.89
2.15
2.16
1.99
1.71
1.41
1.13
0.90
0.72
0.57
0.48
0.45
0.49
0.59
0.72
0.84
0.91
0.88
0.72
0.44
0.07
-0.28
-0.56
-0.73
-0.83
-0.92
-1.06
-1.27
-1.50
-1.68
-1.79
-1.80
-1.72
-1.55
-1.27
-0.85
-0.37
0.04
0.24
0.17
-0.08
-0.31
-0.31
-0.01
0.49
1.00
1.36
1.53
1.56
1.56
1.58
1.61
1.60
1.55
1.51
1.55
1.71
1.92
2.05
1.98
1.66
1.15
0.57
0.03
-0.40
-0.70
-0.94
-1.18
-1.45
-1.71
-1.90
-1.92
-1.75
-1.46
-1.17
-0.99
-0.94
-0.92
-0.79
-0.42
0.18
0.88
1.45
1.76
1.76
1.53
1.21
0.90
0.67
0.54
0.52
0.65
0.93
1.30
1.69
2.01
2.21
2.27
2.23
2.09
1.88
1.55
1.14
0.69
0.31
0.10
0.10
0.25
0.41
0.43
0.18
-0.34
-1.01
-1.61
-1.94
-1.88
-1.47
-0.89
-0.37
-0.05
0.07
0.14
0.32
0.74
1.33
1.93
2.36
2.52
2.42
2.19
1.97
1.84
1.82
1.84
1.83
1.74
1.58
1.38
1.19
1.04
0.92
0.82
0.72
0.62
0.54
0.49
0.49
0.54
0.59
0.55
0.37
-0.01
-0.52
-1.07
-1.53
-1.79
-1.88
-1.88
-1.94
-2.15
-2.47
-2.78
-2.89
-2.68
-2.12
-1.35
-0.58
0.01
0.36
0.49
0.51
0.57
0.73
0.99
1.26
1.44
1.47
1.37
1.20
1.06
0.98
0.92
0.81
0.61
0.36
0.17
0.17
0.38
0.71
0.96
0.95
0.61
0.05
-0.53
-0.94
-1.12
-1.14
-1.16
-1.29
-1.54
-1.78
-1.85
-1.65
-1.17
-0.55
0.04
0.50
0.80
1.07
1.43
1.95
2.56
3.10
3.43
3.45
3.22
2.86
2.50
2.24
2.05
1.87
1.64
1.34
1.03
0.79
0.68
0.73
0.88
1.03
1.08
0.93
0.57
0.04
-0.52
-0.96
-1.17
-1.11
-0.86
-0.59
-0.48
-0.63
-1.05
-1.60
-2.08
-2.31
-2.24
-1.93
-1.52
-1.12
-0.73
-0.28
0.35
1.15
2.01
2.73
3.09
3.04
2.67
2.21
1.87
1.75
1.83
1.95
1.98
1.87
1.67
1.51
1.46
1.50
1.51
1.31
0.82
0.09
-0.68
-1.25
-1.47
-1.31
-0.91
-0.46
-0.15
-0.03
-0.11
-0.32
-0.60
-0.92
-1.21
-1.45
-1.56
-1.53
-1.40
-1.21
-0.99
-0.74
-0.39
0.08
0.64
1.18
1.60
1.82
1.88
1.85
1.80
1.73
1.62
1.46
1.34
1.34
1.53
1.82
2.04
2.02
1.72
1.27
0.86
0.69
0.77
1.00
1.21
1.29
1.19
0.97
0.67
0.34
-0.04
-0.43
-0.81
-1.12
-1.32
-1.42
-1.46
-1.47
-1.47
-1.43
-1.34
-1.21
-1.05
-0.92
-0.80
-0.67
-0.45
-0.14
0.24
0.60
0.83
0.87
0.74
0.56
0.44
0.48
0.71
1.06
1.42
1.69
1.76
1.64
1.35
0.96
0.56
0.20
-0.07
-0.24
-0.30
-0.30
-0.31
-0.41
-0.65
-1.03
