1606959940.00
64.000000
-0.00
-0.00
-0.00
-0.00
-0.00
-0.00
-0.00
-0.00
-0.00
-0.00
0.00
0.01
0.01
-0.00
-0.03
-0.05
-0.05
0.00
0.13
0.36
0.66
1.01
1.37
1.72
2.06
2.40
2.79
3.24
3.80
4.42
5.06
5.66
6.20
6.68
7.15
7.68
8.31
9.14
10.09
11.04
11.88
12.56
13.14
13.76
14.65
15.96
17.91
20.32
22.90
25.38
27.58
29.57
31.68
34.32
37.81
42.54
48.15
54.10
59.83
64.97
69.58
74.14
79.34
85.71
93.76
103.00
112.62
121.73
129.77
136.75
143.30
150.75
157.77
166.64
177.95
191.79
206.97
220.57
228.25
225.36
208.53
176.87
132.76
80.05
23.07
-34.94
-92.44
-149.16
-205.23
-260.37
-313.74
-363.87
-409.83
-450.91
-486.50
-515.74
-537.23
-549.22
-549.96
-538.37
-514.21
-478.67
-433.88
-382.45
-327.02
-269.84
-212.63
-156.66
-102.95
-52.37
-5.90
35.58
71.43
101.35
125.50
144.38
158.69
169.15
176.37
180.75
182.57
182.07
179.51
175.23
169.65
163.18
156.15
148.81
141.30
133.69
126.02
118.33
110.69
103.16
95.80
88.68
81.83
75.25
68.95
62.95
57.25
51.86
46.78
42.03
37.59
33.45
29.61
26.07
22.81
19.83
17.11
14.67
12.48
10.54
8.83
7.35
6.07
4.97
4.05
3.27
2.62
2.09
1.65
1.30
1.01
0.79
0.61
0.48
0.37
0.29
0.24
0.20
0.18
0.17
0.17
0.18
0.20
0.22
0.25
0.29
0.33
0.37
0.41
0.45
0.50
0.54
0.59
0.64
0.70
0.76
0.83
0.90
0.98
1.06
1.16
1.26
1.39
1.52
1.67
1.84
2.03
2.24
2.47
2.73
3.01
3.32
3.66
4.04
4.44
4.88
5.36
5.87
6.42
7.01
7.64
8.32
9.03
9.79
10.60
11.45
12.35
13.29
14.29
15.36
16.48
17.66
18.90
20.13
21.35
22.45
23.36
23.96
24.13
23.78
22.79
21.14
18.81
15.85
12.34
8.44
4.31
0.13
-3.92
-7.71
-11.06
-13.88
-16.07
-17.59
-18.44
-18.69
-18.44
-17.81
-16.92
-15.87
-14.71
-13.46
-12.10
-10.64
-9.12
-7.62
-6.25
-5.06
-4.08
-3.25
-2.46
-1.56
-0.38
0.97
2.39
3.72
4.79
5.58
6.18
6.83
7.85
9.48
11.51
13.60
15.33
16.35
16.52
16.00
15.25
14.87
15.41
16.61
18.04
19.04
19.03
17.73
15.30
12.24
9.27
7.12
5.44
3.71
1.01
-3.90
-12.47
-26.09
-45.81
-72.18
-100.05
-125.13
-143.12
-150.99
-147.91
-135.45
-116.92
-95.99
-75.44
-56.52
-39.90
-25.47
-13.03
-2.51
6.11
13.07
18.80
23.82
28.48
32.34
34.95
36.03
35.65
34.19
32.29
30.55
29.41
29.14
29.48
30.12
30.77
31.10
30.87
29.92
28.31
26.28
24.25
22.42
20.84
19.29
17.32
14.53
10.82
6.47
2.13
-1.44
-3.82
-5.02
-5.54
-6.22
-7.90
-11.19
-16.30
-22.98
-30.53
-37.93
-43.97
-47.56
-48.03
-45.30
-39.95
-32.95
-25.24
-17.50
-10.04
-2.91
3.75
9.61
14.16
17.01
18.07
17.74
16.74
15.85
15.57
15.99
16.80
17.57
17.97
17.91
17.62
17.48
17.82
18.75
20.08
21.36
21.96
21.38
19.42
16.29
12.56
8.94
5.95
3.78
2.27
1.02
-0.36
-2.10
-4.24
-6.69
-9.30
-11.88
-14.16
-15.79
-16.40
-15.75
-13.78
-10.67
-6.74
-2.29
2.43
7.31
12.22
16.96
21.29
24.89
27.54
29.19
29.95
30.05
29.80
29.44
29.07
28.69
28.17
27.45
26.55
25.69
25.12
25.04
25.39
25.85
25.86
24.85
22.45
18.60
13.58
7.94
2.28
-2.92
-7.45
-11.40
-15.08
-18.79
-22.67
-26.61
-30.30
-33.49
-36.10
-38.21
-39.90
-41.09
-41.46
-40.58
-38.11
-34.04
-28.71
-22.59
-16.08
-9.39
-2.59
4.19
10.55
15.88
19.45
20.75
19.67
16.60
12.26
7.47
2.86
-1.27
-4.87
-8.01
-10.63
-12.48
-13.23
-12.60
-10.52
-7.26
-3.24
1.02
5.08
8.57
11.24
12.87
13.40
12.94
11.79
10.43
9.24
8.43
7.86
7.16
5.86
3.54
0.01
-4.68
-10.29
-16.32
-22.15
-26.98
-29.95
-30.42
-28.07
-23.15
-16.38
-8.75
-1.27
5.43
11.14
16.04
20.45
24.72
28.91
32.91
36.40
39.07
40.69
41.16
40.59
39.23
37.39
35.40
33.52
31.94
30.78
30.07
29.75
29.59
29.21
28.19
26.10
22.77
18.31
13.12
7.77
2.81
-1.33
-4.57
-7.09
-9.36
-11.99
-15.42
-19.73
-24.54
-29.10
-32.64
-34.73
-35.62
-36.18
-37.54
-40.66
-45.85
-52.70
-60.08
-66.63
-71.09
-72.68
-71.20
-67.02
-60.88
-53.58
-45.71
-37.55
-29.09
-20.25
-11.12
-2.06
6.33
13.49
19.12
23.26
26.25
28.46
30.09
31.14
31.55
31.32
30.77
30.34
30.47
31.30
32.58
33.79
34.32
33.75
31.96
29.08
25.38
21.14
16.55
11.73
6.81
1.88
-2.95
-7.55
-11.80
-15.57
-18.76
-21.33
-23.40
-25.17
-26.89
-28.71
-30.63
-32.42
-33.74
-34.27
-33.75
-32.12
-29.47
-26.01
-22.04
-17.91
-13.95
-10.40
-7.40
-4.89
-2.71
-0.70
1.20
2.89
4.18
4.85
4.87
4.33
3.50
2.65
1.91
1.28
0.68
0.07
-0.51
-0.84
-0.78
-0.27
0.48
1.13
1.29
0.79
-0.27
-1.62
-2.90
-3.99
-4.99
-6.17
-7.77
-9.72
-11.65
-12.96
-13.18
-12.20
-10.35
-8.18
-6.13
-4.25
-2.12
0.98
5.87
13.11
22.96
35.28
49.58
64.99
80.38
94.38
105.73
113.49
117.26
117.19
113.91
108.27
101.15
93.34
85.45
77.89
70.88
64.39
58.26
52.20
45.97
39.41
32.52
25.43
18.41
11.77
5.83
0.83
-3.20
-6.38
-9.01
-11.40
-13.79
-16.21
-18.51
-20.48
-21.92
-22.80
-23.28
-23.64
-24.23
-25.28
-26.88
-28.95
-31.32
-33.75
-36.06
-38.15
-39.97
-41.44
-42.48
-42.93
-42.56
-41.20
-38.76
-35.19
-30.59
-25.10
-18.95
-12.41
-5.89
0.17
5.32
9.30
12.13
14.16
15.98
18.16
21.03
24.57
28.46
32.32
35.85
39.01
41.90
44.65
47.31
49.82
52.06
54.05
55.87
57.73
59.82
62.28
65.13
68.37
71.93
75.77
79.83
84.04
88.27
92.38
96.32
100.07
103.71
107.25
110.60
113.63
116.31
118.92
122.12
126.80
133.75
143.38
155.57
169.81
185.55
202.41
219.87
236.78
250.69
257.89
254.19
236.28
203.12
156.58
101.07
42.18
-14.95
-67.02
-113.05
-154.00
-191.89
-228.88
-266.61
-305.88
-346.64
-387.95
-428.05
-464.37
-493.86
-513.84
-523.15
-523.14
-517.66
-511.62
-508.67
-509.10
-509.43
-503.86
-487.13
-456.96
-414.83
-364.71
-310.70
-255.14
-198.30
-139.56
-78.84
-17.56
42.02
98.25
151.08
202.47
255.62
314.00
379.84
453.10
530.43
605.13
668.27
711.00
727.56
717.32
685.06
638.98
587.56
536.72
488.85
443.68
400.25
358.59
319.92
285.78
256.65
231.26
207.16
181.88
154.22
124.77
95.64
69.41
47.94
31.51
18.73
7.16
-5.69
-21.34
-39.80
-59.62
-78.70
-95.16
-108.33
-119.06
-129.47
-142.11
-158.97
-180.67
-206.21
-233.64
-260.71
-285.96
-309.28
-331.84
-355.79
-383.74
-418.35
-461.59
-513.52
-571.12
-627.74
-674.10
-700.91
-702.21
-677.68
-632.71
-575.96
-515.70
-456.93
-400.58
-345.03
-288.60
-231.40
-175.21
-122.30
-73.53
-27.60
18.36
67.49
122.23
183.92
252.60
327.04
404.07
478.18
541.97
587.85
610.55
609.14
587.40
552.20
510.77
468.32
427.21
387.81
350.08
314.68
282.87
255.37
231.39
208.44
183.31
153.53
118.44
79.36
39.08
0.43
-35.02
-67.46
-98.73
-131.53
-168.43
-210.92
-259.00
-311.03
-363.94
-413.65
-455.80
-486.80
-504.78
-510.14
-504.99
-492.28
-474.16
-451.37
-423.34
-389.19
-348.66
-302.75
-253.66
-204.28
-157.80
-117.29
-85.57
-64.85
-55.97
-57.88
-67.26
-79.32
-88.98
-92.34
-87.59
-75.04
-56.47
-34.29
-11.00
10.85
28.55
39.40
41.47
34.85
22.53
10.19
4.48
10.21
27.92
53.48
79.72
99.84
110.23
111.85
109.11
107.11
108.75
113.58
118.63
120.71
118.94
116.03
117.52
129.43
155.37
194.53
241.42
287.56
324.37
345.89
350.32
339.96
319.72
295.28
271.46
251.30
235.84
224.22
214.14
202.42
185.64
160.97
126.91
84.04
35.06
-15.66
-63.08
-102.72
-131.80
-149.95
-159.29
-164.09
-169.78
-181.80
-204.05
-237.46
-279.17
-322.77
-359.92
-382.94
-387.56
-374.45
-348.69
-317.40
-286.56
-258.77
-232.98
-206.16
-175.81
-141.85
-107.02
-75.72
-52.23
-39.03
-36.16
-41.20
-50.01
-57.70
-59.67
-52.85
-36.55
-12.84
14.02
39.05
58.42
70.70
77.25
81.21
86.17
94.83
108.23
125.67
145.01
163.19
177.07
184.38
184.53
179.10
171.42
165.54
164.88
171.15
184.02
201.46
220.62
238.43
251.93
258.25
255.08
241.67
220.20
195.96
175.91
166.11
168.61
180.28
193.79
200.61
194.12
171.59
134.22
86.28
33.67
-17.04
-59.52
-88.94
-103.48
-105.46
-101.08
-98.62
-105.46
-125.96
-161.16
-209.91
-270.17
-339.33
-413.13
-484.60
-544.50
-583.65
-596.45
-583.35
-550.75
-508.33
-465.28
-427.16
-395.13
-367.37
-341.48
-316.23
-291.94
-269.55
-249.45
-230.93
-212.49
-192.84
-171.50
-149.14
-127.12
-106.65
-88.13
-70.93
-53.73
-35.23
-14.84
7.00
29.04
49.86
68.67
85.72
102.25
119.89
139.86
162.46
186.89
211.65
235.25
256.92
276.94
296.77
318.69
345.25
378.20
417.44
460.15
500.76
531.99
546.90
541.22
515.03
472.86
422.23
371.21
326.11
290.19
263.82
245.45
232.81
223.62
215.79
207.30
196.31
181.66
163.44
143.32
124.17
109.08
99.92
96.54
96.74
97.31
95.41
89.77
80.96
70.70
60.43
50.24
38.44
22.24
-1.16
-33.41
-74.78
-124.49
-181.18
-242.46
-304.34
-360.83
-404.97
-431.16
-437.72
-428.25
-410.30
-392.08
-378.66
-370.05
-361.92
-348.36
-325.46
-292.87
-253.63
-212.24
-172.64
-136.78
-104.73
-75.58
-48.57
-23.88
-2.68
13.63
24.66
31.82
38.15
46.90
59.68
75.20
89.55
98.08
97.93
89.63
76.95
65.06
58.17
57.71
62.23
68.31
72.43
72.23
67.07
58.08
47.48
37.78
30.90
27.31
25.48
22.35
14.52
-0.21
-21.85
-48.21
-76.14
-103.19
-128.70
-153.94
-180.84
-210.37
-241.39
-270.70
-294.18
-308.48
-312.28
-306.55
-293.92
-277.52
-259.87
-242.39
-225.43
-208.89
-192.72
-177.15
-162.53
-148.97
-136.12
-123.23
-109.56
-94.75
-78.93
-62.49
-45.72
-28.50
-10.28
9.71
32.02
56.85
83.90
112.72
142.95
174.70
208.68
246.39
289.91
341.33
401.60
469.26
539.65
605.39
658.19
691.50
702.71
693.90
670.64
639.74
606.78
574.85
544.74
516.06
488.44
461.95
436.88
413.08
389.66
365.24
338.55
309.11
277.38
244.63
212.09
180.45
149.61
118.99
88.17
57.45
27.95
1.26
-21.24
-38.93
-52.09
-61.71
-68.99
-75.00
-80.41
-85.56
-90.57
-95.39
-99.94
-104.14
-107.99
-111.57
-115.07
-118.75
-122.82
-127.34
-132.12
-136.63
-140.08
-141.60
-140.60
-137.02
-131.43
-124.72
-117.71
-110.68
-103.26
-94.65
-84.08
-71.36
-57.06
-42.33
-28.40
-16.13
-5.68
3.41
11.91
20.45
29.24
37.94
45.80
52.03
56.06
57.72
57.33
55.47
52.85
50.00
47.14
44.22
40.95
36.96
31.93
25.66
18.05
9.12
-1.00
-11.99
-23.38
-34.56
-44.89
-53.74
-60.70
-65.65
-68.77
-70.63
-71.93
-73.28
-74.89
-76.44
-77.09
-75.99
-72.75
-67.73
-62.01
-56.90
-53.31
-51.35
-50.30
-49.04
-46.55
-42.42
-36.81
-30.43
-24.06
-18.34
-13.64
-10.09
-7.73
-6.46
-6.10
-6.31
-6.68
-6.77
-6.35
-5.36
-3.92
-2.29
-0.68
0.79
2.08
3.12
3.78
3.88
3.29
2.17
0.79
-0.50
-1.49
-2.16
-2.72
-3.45
-4.45
-5.66
-6.67
-7.20
-7.11
-6.42
-5.37
-4.26
-3.35
-2.83
-2.92
-3.32
-3.73
-3.69
-2.61
-0.13
3.74
8.52
13.54
17.87
21.71
25.27
29.25
34.51
41.54
50.04
58.93
66.66
70.87
71.04
67.00
59.74
51.30
44.03
39.86
39.75
43.36
46.58
46.99
41.20
26.67
3.40
-25.03
-52.43
-71.95
-78.25
-79.87
-78.92
-77.01
-74.58
-71.25
-66.92
-62.76
-61.72
-59.33
-59.16
-63.10
-71.50
-81.84
-90.49
-94.90
-94.68
-91.25
-86.93
-90.10
-106.47
-138.57
-184.58
-240.42
-302.39
-368.37
-437.52
-480.32
-478.39
-430.82
-355.82
-275.64
-204.13
-145.16
-97.25
-57.15
-22.03
4.59
19.48
21.92
15.03
3.93
-6.46
-13.23
-15.07
-12.04
-9.08
-10.76
-19.24
-33.53
-51.18
-69.68
-87.34
-101.65
-108.69
-106.14
-92.36
-67.52
-34.33
0.18
31.75
56.16
71.92
80.54
83.97
84.08
81.82
77.45
71.28
64.24
57.28
51.40
46.92
42.70
37.24
29.07
17.57
3.35
-12.03
-27.22
-41.27
-54.02
-66.16
-78.30
-91.08
-104.61
-118.17
-130.28
-139.43
-144.12
-142.94
-138.30
-131.39
-123.13
-114.05
-104.27
-93.65
-82.23
-70.31
-58.53
-47.76
-38.27
-30.17
-23.23
-16.97
-10.93
-4.99
0.55
5.06
7.86
9.07
9.31
9.72
11.62
16.03
23.23
32.56
42.74
52.40
61.22
69.76
79.42
91.83
108.06
128.01
150.37
172.81
192.90
209.24
221.67
231.48
241.32
254.56
274.49
302.56
336.81
371.15
396.60
403.19
383.09
333.51
258.30
167.37
74.19
-7.74
-68.18
-100.89
-105.23
-85.21
-47.77
-0.78
48.71
95.24
134.77
164.50
185.28
198.62
206.73
212.17
217.74
226.10
238.56
254.16
269.52
284.20
297.77
309.93
320.23
328.22
333.67
336.58
336.99
334.55
334.63
341.39
355.74
374.70
393.37
407.95
417.61
424.28
403.14
342.19
242.48
119.27
-6.32
-117.90
-208.02
-276.58
-322.46
-355.37
-378.18
-392.02
-398.45
-400.95
-404.22
-413.11
-430.12
-456.49
-493.37
-536.21
-580.13
-620.84
-654.90
-679.49
-692.18
-691.51
-677.91
-654.65
-623.38
-586.55
-546.90
-506.63
-466.89
-427.46
-387.26
-345.05
-300.47
-252.27
-200.20
-145.37
-89.53
-34.56
18.23
68.46
117.21
166.26
217.79
271.98
325.94
374.54
411.53
432.02
434.14
421.31
400.63
380.19
365.08
355.84
349.83
341.79
325.88
296.26
251.96
196.94
139.85
91.20
61.02
57.50
82.19
128.27
180.10
222.61
245.18
245.32
227.10
199.84
177.19
170.87
186.77
220.81
266.40
315.05
360.20
396.04
404.88
377.66
317.76
257.12
207.41
170.90
140.11
113.05
86.39
56.28
20.90
-21.17
-71.08
-132.11
-202.99
-281.36
-360.67
-438.63
-514.81
-587.31
-652.95
-707.02
-745.82
-763.41
-756.95
-722.75
-665.48
-593.67
-514.84
-433.68
-351.39
-268.69
-173.66
-87.75
-15.63
32.89
50.80
38.43
3.68
-41.38
-86.03
-123.29
-152.82
-172.26
-181.34
-178.06
-160.03
-127.84
-86.86
-46.08
-13.53
6.53
19.69
34.14
58.21
96.15
146.10
201.04
251.63
289.30
308.15
308.12
292.19
266.14
236.73
209.90
189.40
176.44
170.12
168.63
169.25
168.98
164.45
152.22
129.67
96.17
53.84
6.87
-39.25
-82.91
-124.99
-168.67
-216.62
-268.03
-317.34
-355.53
-373.86
-366.25
-335.43
-287.59
-230.17
-167.96
-101.37
-27.54
56.62
141.02
229.13
307.97
364.62
389.92
383.14
352.69
313.09
279.95
263.77
267.84
284.56
303.88
316.92
320.42
315.62
305.33
292.09
276.22
256.83
229.68
192.22
143.07
84.54
20.17
-46.62
-110.82
-166.91
-209.69
-237.89
-252.29
-256.44
-251.54
-238.00
-215.88
-182.18
-132.19
-61.79
29.33
138.04
256.48
377.98
494.59
581.99
616.41
587.97
509.35
408.06
322.72
258.16
209.84
171.27
136.90
104.05
74.58
50.04
29.06
7.53
-20.74
-56.62
-98.20
-142.37
-183.95
-217.61
-240.54
-253.55
-260.27
-266.30
-273.56
-282.10
-291.31
-299.45
-304.84
-307.47
-309.25
-312.80
-320.27
-329.68
-336.81
-337.41
-328.41
-309.26
-282.30
-251.80
-222.08
-196.28
-174.71
-156.20
-139.46
-123.61
-108.22
-93.25
-78.74
-64.70
-51.28
-38.57
-26.81
-16.54
-8.25
-2.12
2.10
5.03
7.53
10.39
14.08
18.60
23.48
28.05
31.66
34.09
35.58
36.72
38.19
40.38
43.25
46.40
49.30
51.63
53.38
54.81
56.27
58.02
60.03
62.01
63.50
63.96
62.88
59.88
54.72
47.42
38.31
27.94
17.12
6.61
-2.97
-11.29
-18.27
-24.00
-28.64
-32.29
-35.01
-36.79
-37.60
-37.42
-36.28
-34.32
-31.87
-29.38
-27.41
-26.39
-26.42
-27.19
-28.04
-28.21
-27.05
-24.23
-19.74
-13.81
-6.82
0.85
8.79
16.61
23.90
30.34
35.74
40.10
43.58
46.45
48.89
50.93
52.47
53.30
53.33
52.62
51.44
50.10
48.83
47.67
46.46
44.97
43.04
40.68
38.05
35.42
33.03
30.99
29.31
27.76
25.93
23.18
18.83
12.33
3.52
-7.25
-19.29
-31.74
-43.88
-55.29
-65.82
-75.35
-83.67
-90.35
-94.90
-96.96
-96.44
-93.63
-88.95
-82.94
-76.08
-68.76
-61.32
-54.09
-47.27
-40.96
-35.07
-29.28
-23.22
-16.56
-9.21
-1.34
6.60
14.07
20.53
25.62
29.23
31.42
32.35
32.23
31.30
29.86
28.23
26.72
25.63
25.18
25.46
26.48
28.15
30.21
32.35
34.20
35.47
36.04
36.00
35.67
35.47
35.74
36.60
37.83
38.96
39.40
38.70
36.72
33.81
30.69
28.28
27.35
28.30
31.02
34.96
39.33
43.40
46.78
49.40
51.52
53.40
55.16
56.64
57.48
57.19
55.27
51.28
44.97
36.52
26.81
17.47
10.49
7.56
9.25
14.69
21.92
28.87
34.42
38.87
43.62
49.96
58.09
66.57
72.89
74.70
70.96
62.48
51.50
40.59
31.56
25.02
20.60
17.70
16.12
16.06
17.70
20.51
23.11
23.70
21.06
15.31
8.27
2.76
1.46
5.82
15.47
28.50
42.25
54.22
62.70
66.97
67.17
63.99
58.50
51.85
45.10
38.80
32.81
26.21
17.90
7.32
-4.82
-16.41
-24.61
-27.04
-23.16
-14.69
-5.22
1.08
0.96
-6.85
-21.52
-40.68
-61.45
-81.23
-98.12
-110.85
-118.63
-120.95
-117.72
-109.52
-97.67
-84.11
-70.96
-59.93
-51.88
-46.69
-43.50
-41.13
-38.62
-35.42
-31.58
-27.53
-23.87
-21.08
-19.24
-17.91
-16.30
-13.52
-8.95
-2.70
4.31
10.48
13.87
12.86
6.73
-3.89
-17.16
-30.55
-41.79
-49.75
-54.71
-58.06
-61.44
-65.81
-71.27
-77.35
-83.60
-90.13
-97.55
-106.28
-115.96
-125.33
-132.79
-137.27
-138.64
-137.56
-134.75
-130.47
-124.42
-116.06
-105.21
-92.35
-78.61
-65.03
-51.99
-39.10
-25.70
-11.40
3.62
18.77
33.40
46.49
57.53
66.65
74.49
81.68
88.58
95.26
101.59
107.37
110.78
110.17
104.90
95.77
84.67
73.68
64.57
58.25
54.59
50.18
41.44
26.33
5.03
-20.82
-49.47
-79.58
-110.17
-140.30
-171.76
-205.40
-240.04
-272.49
-299.15
-317.89
-328.25
-330.93
-309.01
-253.51
-167.66
-66.83
30.89
114.02
179.15
227.92
263.76
290.06
306.83
313.74
312.07
305.06
296.44
288.74
283.12
279.59
277.61
274.44
267.17
254.77
238.28
220.28
201.68
183.12
165.22
148.65
133.17
117.35
100.95
85.06
71.30
60.79
54.04
51.47
52.81
57.14
60.73
60.69
55.41
44.48
27.83
5.00
-24.62
-64.05
-109.07
-160.14
-215.76
-271.44
-320.76
-357.84
-379.72
-385.92
-380.64
-368.81
-359.20
-357.80
-366.86
-385.65
-412.30
-445.53
-483.21
-525.33
-546.47
-530.20
-473.08
-386.88
-290.07
-197.83
-129.22
-79.74
-44.21
-17.82
-0.48
8.18
11.02
10.59
9.86
11.03
16.80
26.54
39.32
51.28
59.31
62.13
60.22
56.24
52.68
52.14
54.01
57.13
58.85
57.43
52.58
45.14
38.88
36.67
39.83
46.00
52.22
55.82
55.96
53.38
49.55
50.43
60.22
79.09
102.36
124.36
141.59
153.87
163.35
172.82
191.53
225.89
275.72
333.92
391.64
443.62
489.34
531.62
574.65
631.84
713.93
822.10
946.20
1069.54
1176.03
1254.18
1298.81
1250.99
1083.15
814.08
502.69
211.00
-27.24
-207.36
-339.37
-435.34
-500.51
-535.85
-540.89
-521.38
-489.79
-461.37
-446.24
-448.71
-469.06
-504.97
-545.47
-578.26
-595.13
-592.58
-573.80
-542.81
-505.06
-467.10
-435.10
-408.83
-385.10
-361.73
-337.08
-314.62
-295.45
-279.39
-265.05
-250.42
-231.58
-205.09
-170.08
-124.95
-72.59
-11.81
59.78
143.82
238.89
339.59
436.64
500.74
542.11
553.98
537.32
497.31
441.18
377.07
312.89
255.94
211.42
173.11
132.86
87.20
36.08
-18.24
-72.07
-121.52
-163.16
-195.17
-214.91
-223.21
-219.48
-203.28
-177.00
-142.97
-105.32
-69.91
-43.77
-30.83
-32.60
-47.21
-66.92
-83.29
-91.76
-93.76
-95.72
-104.55
-122.84
-148.01
-172.55
-187.91
-189.09
-175.91
-150.90
-115.39
-72.00
-23.00
29.21
81.04
127.18
161.17
172.29
156.61
120.70
78.63
44.13
23.67
15.19
12.28
8.20
-0.79
-13.67
-27.23
-39.31
-49.55
-59.24
-70.17
-83.60
-100.47
-120.78
-144.58
-171.43
-200.29
-228.71
-252.37
-265.84
-264.36
-247.09
-218.19
-184.25
-152.69
-129.19
-115.95
-111.52
-112.15
-112.56
-108.64
-103.49
-97.91
-91.74
-84.23
-74.63
-62.66
-48.41
-29.97
-7.01
19.68
50.32
85.91
128.03
177.67
234.57
297.09
365.78
438.18
510.22
579.45
645.89
710.47
772.13
825.67
862.22
876.24
861.48
813.93
734.79
630.52
510.36
383.53
258.33
116.78
-31.98
-163.85
-257.98
-311.09
-334.95
-344.96
-351.78
-358.99
-365.24
-363.78
-352.87
-336.09
-318.84
-304.33
-292.74
-282.64
-272.72
-262.47
-249.00
-232.67
-216.18
-202.37
-192.20
-184.74
-178.48
-172.36
-166.11
-158.04
-148.48
-139.07
-131.47
-125.99
-121.70
-117.34
-111.97
-105.30
-96.52
-86.22
-75.23
-64.50
-54.40
-44.75
-35.31
-26.06
-17.26
-9.00
-1.72
4.04
7.77
9.52
9.59
8.30
5.93
2.56
-1.79
-7.17
-13.56
-21.05
-29.28
-37.96
-46.84
-55.70
-64.35
-72.60
-80.34
-87.51
-94.23
-100.21
-105.38
-109.75
-113.40
-116.40
-118.68
-120.02
-119.79
-120.23
-122.04
-125.48
-130.48
-136.71
-143.68
-150.81
-157.54
-163.39
-167.99
-170.68
-171.06
-169.00
-164.59
-158.20
-150.35
-141.68
-132.88
-124.59
-116.69
-109.08
-101.63
-94.27
-86.99
-79.82
-72.78
-65.83
-58.93
-51.48
-42.96
-33.00
-21.63
-9.21
3.52
15.71
26.53
35.44
43.05
50.23
57.82
66.24
75.35
84.54
93.04
100.27
106.19
112.96
122.92
137.71
157.66
181.74
208.04
234.57
259.86
283.21
308.00
337.41
373.15
414.81
460.53
508.37
556.87
604.42
648.08
688.29
723.76
752.23
771.91
783.18
788.91
793.12
798.53
805.13
817.14
836.39
861.69
888.24
908.78
916.00
905.48
877.24
794.88
642.94
427.06
174.42
-78.74
-303.55
-486.52
-626.58
-728.66
-799.13
-837.55
-844.43
-823.61
-783.20
-733.83
-686.04
-647.26
-621.39
-609.51
-605.18
-600.74
-589.17
-565.92
-527.69
-476.29
-417.96
-361.37
-314.72
-279.58
-253.58
-232.47
-213.04
-194.57
-178.77
-167.35
-160.13
-154.95
-147.20
-133.52
-113.40
-89.56
-66.15
-47.16
-34.11
-25.37
-17.81
-7.96
5.68
21.89
37.55
49.13
54.20
52.72
47.51
42.72
42.61
50.50
67.89
94.00
125.53
156.98
177.62
178.67
156.07
113.17
59.96
8.86
-30.53
-54.72
-66.10
-70.04
-70.65
-69.54
-66.25
-60.15
-51.95
-43.82
-38.19
-36.40
-38.07
-41.00
-42.54
-40.94
-36.03
-29.20
-22.62
-18.17
-16.66
-17.67
-19.60
-20.65
-19.64
-16.45
-11.95
-7.48
-4.22
-2.69
-2.66
-3.26
-3.49
-2.70
-0.80
1.79
4.39
6.45
7.70
8.28
8.55
8.93
9.71
10.93
12.48
14.15
15.78
17.34
18.95
20.76
22.89
25.38
28.13
30.93
33.41
35.18
35.75
34.71
31.70
26.54
19.25
10.19
-0.09
-10.83
-21.01
-29.66
-35.96
-39.31
-39.53
-36.84
-31.80
-25.33
-18.47
-12.11
-6.90
-3.29
-1.37
-0.97
-1.66
-2.91
-4.27
-5.55
-6.44
-6.89
-7.17
-7.78
-9.27
-12.10
-16.51
-22.55
-30.03
-38.05
-45.50
-51.25
-54.28
-53.81
-49.33
-40.65
-26.34
-8.31
11.91
32.91
53.38
72.05
87.87
100.06
108.20
112.11
111.69
107.38
99.51
88.38
74.20
57.23
37.97
18.30
-0.65
-17.84
-32.07
-42.66
-49.71
-54.04
-56.80
-58.96
-60.94
-62.60
-63.36
-62.40
-59.47
-55.31
-51.39
-49.33
-50.09
-53.44
-58.00
-61.79
-63.10
-61.28
-57.29
-53.12
-50.86
-51.87
-56.44
-64.01
-73.24
-81.85
-86.75
-84.62
-72.91
-51.15
-22.06
9.08
36.24
54.95
64.22
66.49
65.98
66.07
67.40
67.22
61.04
45.36
19.89
-11.08
-40.57
-61.59
-69.85
-64.98
-50.25
-30.08
-7.21
16.23
40.43
65.47
89.84
110.24
123.19
126.79
122.06
112.15
100.64
90.26
81.33
71.93
59.20
40.69
15.27
-16.39
-51.58
-86.60
-116.27
-135.29
-139.75
-128.92
-106.06
-77.80
-52.00
-33.99
-25.77
-25.47
-29.36
-34.11
-38.34
-42.52
-47.71
-54.13
-60.51
-64.98
-65.87
-62.70
-56.18
-47.63
-37.98
-27.35
-15.16
-0.55
16.78
36.24
56.28
74.67
89.18
98.17
101.07
98.33
91.14
80.85
68.68
55.45
41.61
27.44
13.23
-0.53
-13.18
-24.04
-32.56
-38.46
-41.78
-42.78
-41.94
-39.83
-36.98
-33.86
-30.98
-28.69
-27.26
-26.80
-27.37
-29.05
-31.98
-36.18
-41.73
-48.59
-56.37
-64.37
-71.64
-77.27
-80.73
-82.18
-82.04
-81.22
-80.68
-80.94
-81.86
-82.83
-83.06
-82.18
-80.52
-78.54
-76.91
-76.05
-75.52
-73.95
-69.38
-59.53
-41.98
-17.66
13.63
51.63
94.79
139.64
180.95
212.99
231.50
235.52
228.17
216.24
207.19
206.41
215.25
230.81
247.32
258.42
259.00
246.12
219.14
178.67
126.30
65.09
0.05
-61.76
-112.43
-145.71
-159.14
-154.76
-138.39
-117.16
-96.48
-78.36
-61.49
-43.69
-24.58
-6.82
4.78
6.07
-3.55
-19.60
-33.36
-35.14
-19.82
9.55
42.34
64.81
66.21
43.51
2.19
-46.27
-87.93
-112.06
-113.56
-92.51
-52.06
3.39
68.95
138.65
205.82
265.45
313.83
348.58
368.95
375.73
371.03
357.93
339.36
306.36
254.83
187.22
111.91
38.86
-24.66
-75.59
-113.12
-138.22
-150.94
-153.60
-150.35
-147.41
-151.92
-169.71
-202.99
-248.83
-301.11
-347.39
-373.02
-368.29
-333.90
-280.82
-224.38
-179.83
-149.72
-130.09
-114.10
-95.13
-69.00
-34.17
9.27
60.58
118.00
177.85
232.73
273.75
293.85
290.16
264.95
224.95
178.71
133.67
94.45
61.86
34.83
12.10
-7.36
-24.92
-41.95
-59.67
-78.57
-97.94
-116.49
-132.47
-143.97
-146.34
-136.95
-116.00
-87.50
-57.00
-29.20
-6.39
9.90
22.17
32.66
41.98
49.88
54.82
57.20
58.03
59.09
62.13
67.46
75.20
84.36
93.29
98.43
97.35
88.77
73.16
52.03
27.24
0.07
-29.04
-59.82
-94.16
-133.12
-176.31
-221.47
-265.30
-304.09
-335.05
-356.28
-352.65
-315.82
-247.54
-160.36
-70.72
8.91
73.36
122.09
157.30
181.98
196.89
202.26
197.57
182.65
158.29
126.98
90.56
50.58
7.71
-41.00
-96.87
-155.53
-210.70
-256.76
-290.53
-313.99
-330.13
-339.64
-340.71
-329.19
-301.44
-257.65
-209.07
-159.06
-111.85
-69.93
-33.03
1.51
37.33
77.17
121.89
166.97
207.96
240.47
263.06
276.56
283.04
284.09
280.19
270.84
255.84
237.19
217.01
198.05
182.36
171.57
165.75
163.44
162.14
159.61
155.23
149.00
144.98
142.89
143.29
146.18
150.59
154.75
157.14
157.07
154.60
150.93
147.48
146.47
149.84
159.05
174.91
196.72
221.65
244.82
260.46
263.32
251.41
226.34
192.53
153.99
116.57
84.42
59.07
40.07
25.97
16.04
10.08
7.90
8.51
9.24
7.09
0.55
-9.47
-20.37
-28.92
-32.84
-31.61
-26.86
-24.03
-28.00
-40.33
-58.57
-78.03
-94.22
-104.39
-107.69
-105.99
-107.60
-119.35
-142.94
-174.90
-210.06
-244.33
-274.59
-296.79
-307.74
-313.79
-321.64
-335.49
-356.51
-385.44
-423.86
-472.11
-526.62
-583.80
-651.11
-734.10
-831.00
-931.62
-1023.01
-1095.36
-1143.58
-1165.23
-1090.45
-887.78
-581.79
-242.49
63.03
302.32
473.82
582.14
653.64
703.51
727.76
720.75
683.49
625.08
557.18
487.72
419.99
355.85
293.16
229.57
166.69
109.51
63.54
31.57
12.84
4.47
3.85
6.71
5.48
-3.60
-17.45
-27.21
-23.98
-4.66
26.69
62.09
92.01
108.28
108.12
94.47
73.74
52.08
32.82
16.79
4.28
-4.57
-10.62
-13.66
-14.34
-13.75
-13.12
-13.63
-15.78
-19.15
-23.00
-26.44
-28.94
-31.11
-34.20
-39.40
-47.37
-57.93
-70.17
-82.81
-94.67
-104.66
-112.62
-118.94
-124.20
-128.74
-132.36
-134.23
-132.85
-129.66
-124.94
-119.06
-112.51
-105.75
-99.12
-92.80
-86.80
-81.07
-75.56
-69.76
-63.35
-56.09
-47.93
-38.94
-29.39
-19.70
-10.35
-1.77
6.20
13.83
21.54
29.70
38.43
47.60
56.78
65.46
73.28
80.49
87.59
95.30
104.25
114.66
126.28
138.49
150.55
161.90
172.53
182.76
193.29
205.05
219.01
235.99
256.12
278.26
299.74
316.66
324.88
321.46
305.78
279.85
247.60
213.42
180.76
151.51
126.15
104.39
85.95
70.74
58.76
49.69
42.75
36.90
31.19
25.08
18.46
11.53
4.36
-3.26
-11.85
-21.90
-33.61
-46.50
-59.52
-71.28
-80.42
-86.00
-87.54
-85.00
-78.58
-68.68
-55.83
-40.75
-24.33
-7.46
8.90
23.89
36.72
46.81
53.88
58.12
60.15
60.89
61.20
61.59
62.01
61.97
60.72
57.61
52.32
44.90
35.80
25.72
15.46
5.71
-3.12
-10.93
-17.87
-24.10
-29.68
-34.46
-38.26
-41.03
-42.93
-44.17
-44.86
-44.82
-43.65
-40.98
-36.75
-31.32
-25.32
-19.29
-13.43
-7.55
-1.27
5.62
12.86
19.68
25.01
27.90
27.84
25.03
20.31
14.83
9.72
5.72
3.03
1.37
0.28
-0.61
-1.39
-1.94
-2.02
-1.59
-0.81
0.04
0.68
1.07
1.27
1.45
1.57
1.43
0.71
-0.83
-3.21
-6.18
-9.35
-12.38
-15.10
-17.60
-20.01
-22.33
-24.41
-25.89
-26.46
-26.02
-24.68
-22.78
-20.70
-18.74
-16.95
-15.34
-13.77
-12.21
-10.71
-9.39
-8.34
-7.57
-6.99
-6.40
-5.56
-4.27
-2.46
-0.29
1.87
3.57
4.49
4.54
3.94
3.09
2.37
2.02
1.97
2.02
1.94
1.60
1.01
0.27
-0.57
-1.48
-2.45
-3.48
-4.47
-5.41
-6.28
-7.11
-7.88
-8.44
-8.50
-7.71
-5.88
-3.12
0.17
3.44
6.28
8.52
10.25
11.67
12.91
13.86
14.30
14.01
12.96
11.38
9.65
8.14
7.01
6.17
5.36
4.34
3.00
1.42
-0.13
-1.40
-2.18
-2.49
-2.51
-2.52
-2.79
-3.45
-4.48
-5.69
-6.87
-7.90
-8.78
-9.66
-10.75
-12.14
-13.82
-15.65
-17.40
-18.85
-19.80
-20.03
-19.42
-17.85
-15.40
-12.27
-8.76
-5.19
-1.82
1.22
3.86
6.05
7.73
8.83
9.35
9.34
8.94
8.38
7.91
7.75
7.98
8.55
9.24
9.74
9.72
9.03
7.68
5.91
4.06
2.38
0.93
-0.38
-1.77
-3.43
-5.37
-7.44
-9.34
-10.86
-11.94
-12.68
-13.31
-14.07
-15.06
-16.28
-17.60
-18.84
-19.78
-20.18
-19.81
-18.53
-16.36
-13.45
-10.08
-6.58
-3.17
-0.04
2.72
5.03
6.81
8.01
8.67
8.93
8.93
8.84
8.70
8.50
8.17
7.72
7.17
6.64
6.20
5.89
5.61
5.22
4.57
3.61
2.42
1.21
0.17
-0.53
-0.90
-1.03
-1.05
-1.09
-1.20
-1.47
-1.95
-2.79
-4.06
-5.76
-7.78
-9.91
-11.85
-13.36
-14.16
-14.06
-13.02
-11.18
-8.85
-6.48
-4.46
-2.96
-1.86
-0.91
0.17
1.44
2.75
3.81
4.38
4.37
3.90
3.23
2.58
2.10
1.82
1.68
1.58
1.38
0.98
0.37
-0.36
-0.99
-1.26
-1.05
-0.43
0.21
0.43
-0.14
-1.52
-3.32
-4.95
-5.90
-6.07
-5.86
-6.02
-7.26
-9.87
-13.50
-17.29
-20.18
-21.37
-20.58
-18.23
-15.26
-12.83
-11.91
-12.84
-15.06
-17.05
-16.82
-12.53
-3.26
10.50
27.00
43.79
58.69
70.46
78.94
84.80
89.11
92.94
97.15
102.10
107.42
111.92
113.85
111.48
103.93
91.68
76.43
60.38
45.15
30.90
16.40
-0.12
-19.46
-40.41
-59.77
-73.51
-78.65
-74.76
-64.28
-51.43
-40.34
-33.23
-29.82
-28.26
-26.69
-24.68
-23.46
-24.88
-30.00
-38.02
-46.48
-52.39
-53.70
-50.23
-43.70
-37.03
-33.03
-33.56
-39.24
-49.77
-64.65
-83.66
-106.87
-134.22
-164.75
-196.06
-224.44
-245.87
-257.46
-258.69
-251.78
-240.78
-229.99
-222.30
-218.51
-217.57
-217.56
-216.37
-212.04
-202.45
-185.25
-158.15
-119.69
-70.06
-11.19
53.95
122.53
192.56
262.83
332.03
397.91
457.14
506.10
542.13
564.49
574.45
574.43
567.07
554.53
538.38
519.96
500.56
481.09
461.52
440.59
416.04
385.62
348.29
304.85
257.74
210.07
164.55
122.68
84.72
50.00
17.48
-14.05
-45.96
-79.75
-116.31
-154.81
-192.36
-224.25
-245.19
-251.14
-241.17
-217.89
-186.51
-152.61
-119.92
-89.66
-61.00
-32.34
-2.67
27.67
57.20
83.66
105.00
120.14
128.03
127.64
118.50
101.11
77.10
49.08
19.34
-9.54
-33.57
-50.00
-57.81
-56.85
-48.07
-33.64
-16.75
-2.74
4.42
5.88
3.34
-2.35
-10.24
-20.23
-33.54
-52.44
-82.26
-126.79
-183.02
-248.61
-322.40
-400.77
-477.36
-543.80
-591.63
-618.78
-626.29
-612.56
-581.70
-542.08
-499.53
-455.95
-410.00
-336.08
-224.41
-115.73
-31.05
29.62
63.68
72.23
59.81
32.58
-3.40
-46.87
-95.19
-137.08
-162.48
-165.93
-145.81
-106.77
-59.56
-17.63
4.66
0.24
-24.67
-59.97
-96.02
-124.23
-139.10
-138.70
-124.02
-100.46
-74.39
-49.11
-28.11
-14.41
-7.97
-6.37
-6.82
-7.77
-11.84
-23.82
-46.41
-79.29
-117.86
-153.65
-177.55
-183.43
-168.20
-133.57
-83.78
-22.87
46.15
121.20
200.48
281.40
360.33
436.29
508.96
578.70
645.79
709.61
767.54
813.88
840.45
839.03
808.70
754.16
684.81
611.49
543.05
484.17
435.05
393.15
337.89
262.53
174.00
89.28
23.69
-17.78
-39.63
-49.93
-53.37
-54.56
-51.82
-43.70
-31.50
-19.91
-15.13
-22.34
-43.44
-76.62
-118.09
-160.72
-199.24
-231.81
-260.17
-287.72
-317.32
-350.32
-386.81
-426.36
-465.82
-501.22
-527.77
-541.11
-538.22
-518.56
-484.80
-442.35
-397.92
-355.69
-316.88
-279.90
-243.08
-206.14
-170.61
-138.73
-112.16
-91.52
-75.33
-60.94
-45.01
-26.59
-6.57
13.17
31.38
47.84
62.02
73.58
82.45
90.09
96.51
101.60
105.80
110.67
117.26
123.38
124.51
115.79
95.95
64.65
24.29
-20.19
-62.20
-88.28
-89.48
-65.88
-36.81
-11.25
6.13
15.79
16.16
6.55
-11.79
-36.28
-61.92
-82.07
-85.14
-67.96
-38.16
-10.30
3.88
0.90
-15.84
-39.39
-62.96
-81.89
-95.87
-105.69
-111.45
-111.35
-103.06
-85.81
-60.34
-27.85
10.27
51.31
92.84
133.38
172.93
212.07
250.61
287.71
322.30
354.11
382.82
408.35
430.52
448.78
461.71
467.10
462.62
446.68
418.79
379.26
329.07
270.01
204.97
138.06
74.14
17.93
-27.33
-60.79
-84.12
-100.87
-115.38
-131.67
-152.65
-179.98
-213.60
-252.10
-293.19
-334.20
-372.96
-408.55
-441.72
-474.19
-507.35
-540.34
-569.20
-587.61
-589.28
-570.74
-533.22
-482.44
-426.26
-371.38
-320.87
-273.76
-226.69
-176.37
-121.01
-60.20
5.79
76.88
153.22
234.47
319.21
404.67
487.71
566.08
638.85
704.91
761.06
801.22
817.75
804.61
759.62
685.39
588.72
478.70
364.77
255.69
159.90
85.11
36.51
13.05
5.83
0.85
-15.26
-49.85
-101.82
-162.90
-221.87
-265.20
-280.97
-265.40
-225.01
-171.54
-115.10
-61.60
-14.18
25.19
55.56
76.76
88.42
91.23
87.32
79.06
67.54
52.04
30.41
1.90
-33.63
-75.64
-122.40
-171.19
-219.35
-265.40
-309.60
-353.69
-399.81
-449.74
-503.24
-556.32
-601.19
-628.51
-630.94
-606.17
-557.97
-494.54
-425.74
-359.74
-300.90
-249.89
-205.53
-166.89
-134.08
-107.72
-87.74
-72.76
-60.39
-48.06
-34.16
-18.57
-2.63
11.80
23.48
32.60
40.80
50.57
64.26
83.02
106.32
132.29
158.30
182.01
202.16
218.98
234.10
250.12
269.87
295.41
326.97
362.07
395.54
420.53
430.61
422.02
395.01
353.76
304.71
254.46
207.71
166.42
130.20
97.64
67.85
41.24
19.88
6.83
5.56
18.27
44.45
79.99
117.88
150.08
169.64
173.26
161.96
141.62
120.23
104.69
98.11
98.94
102.31
102.13
94.73
79.69
61.32
45.42
36.02
33.23
33.53
32.26
25.17
11.36
-7.89
-27.54
-41.41
-43.95
-31.88
-4.55
36.32
85.93
139.00
175.46
178.51
142.77
78.71
5.29
-61.64
-109.06
-141.00
-161.85
-173.71
-174.36
-160.53
-130.84
-86.56
-31.04
32.19
99.15
166.74
229.96
283.32
320.99
338.55
334.60
311.66
275.64
232.69
188.32
144.91
103.39
64.21
28.32
-3.05
-29.09
-50.07
-68.00
-85.15
-103.75
-124.50
-146.36
-166.82
-183.29
-194.08
-199.12
-200.39
-200.89
-204.31
-214.10
-232.93
-262.22
-301.37
-347.06
-393.03
-431.21
-453.95
-456.83
-440.35
-409.42
-370.88
-330.36
-290.22
-249.52
-205.72
-156.64
-101.98
-43.51
15.42
70.60
117.41
151.46
169.33
169.51
153.15
123.56
84.86
40.34
-8.04
-58.79
-109.24
-154.44
-187.98
-204.08
-200.21
-178.98
-147.23
-113.05
-82.49
-57.68
-36.75
-15.79
9.54
42.48
83.33
129.18
174.73
213.27
238.33
245.44
232.93
202.60
158.83
105.87
47.57
-11.45
-64.80
-104.53
-123.21
-117.73
-90.56
-48.78
-2.88
37.90
69.72
95.01
120.24
155.40
202.31
249.98
288.03
308.07
304.86
279.56
239.22
193.83
152.15
117.99
90.64
67.27
43.90
17.71
-11.83
-43.80
-77.23
-112.05
-149.44
-190.31
-234.04
-279.59
-325.74
-371.73
-417.84
-464.91
-512.87
-559.40
-598.66
-622.24
-622.83
-597.33
-548.42
-483.78
-413.20
-345.08
-284.27
-231.59
-185.28
-143.40
-105.15
-70.72
-40.33
-13.32
12.01
37.74
65.52
96.01
128.46
161.08
191.70
218.38
239.88
255.89
267.08
274.88
281.24
288.04
296.54
306.97
318.39
329.20
337.79
343.22
345.37
344.70
341.82
337.37
331.96
326.10
319.77
311.78
299.54
279.49
248.35
204.63
149.35
85.47
16.28
-55.77
-129.04
-201.21
-267.53
-320.50
-351.69
-355.19
-330.44
-282.99
-222.48
-158.83
-99.15
-46.19
0.68
43.50
83.97
123.05
161.73
201.69
244.87
291.97
340.90
386.42
421.73
440.93
441.44
424.88
396.13
361.49
326.55
295.01
268.30
245.77
225.28
203.92
178.89
148.36
112.17
71.72
29.18
-13.84
-57.09
-101.33
-147.14
-193.45
-237.13
-273.68
-299.01
-311.02
-310.24
-299.36
-281.85
-260.62
-237.39
-213.08
-188.61
-165.55
-146.19
-132.80
-126.83
-128.42
-136.43
-148.96
-163.77
-178.44
-190.42
-197.24
-196.77
-187.75
-170.17
-145.29
-115.34
-82.91
-50.43
-19.97
6.74
28.13
42.85
50.03
49.67
43.03
32.45
21.03
11.90
7.46
8.89
15.87
26.85
39.64
52.10
62.57
70.13
74.38
75.12
72.17
65.36
54.92
41.71
27.27
13.49
2.11
-5.65
-9.16
-8.26
-3.02
6.23
18.81
33.51
48.59
62.18
72.75
79.53
82.68
83.02
81.74
79.82
77.87
76.08
74.31
72.30
69.91
67.12
64.07
60.84
57.35
53.28
48.09
41.31
32.80
22.85
12.05
1.02
-9.81
-20.23
-30.02
-38.71
-45.54
-49.62
-50.38
-47.99
-43.42
-38.17
-33.87
-31.68
-31.97
-34.41
-38.05
-41.62
-43.92
-44.11
-42.04
-38.40
-34.55
-32.07
-32.00
-34.01
-35.99
-34.35
-25.18
-6.18
21.88
54.67
85.36
106.83
114.17
106.17
85.35
56.64
25.48
-3.52
-27.08
-43.14
-50.62
-49.44
-40.97
-28.23
-15.52
-7.35
-7.02
-15.47
-31.02
-50.14
-68.67
-83.27
-92.13
-95.05
-93.11
-87.93
-81.31
-74.87
-69.86
-66.99
-66.27
-66.95
-67.74
-67.27
-64.55
-59.23
-51.49
-41.61
-29.77
-15.94
-0.17
17.24
35.70
54.64
73.71
92.74
111.20
127.71
139.80
144.60
140.11
126.38
106.06
83.63
63.88
50.24
43.71
42.94
45.17
47.55
48.16
46.46
43.14
39.54
36.97
36.22
37.31
39.62
42.17
44.03
44.50
43.09
39.47
33.42
24.94
14.49
3.00
-8.34
-18.53
-27.30
-35.29
-43.89
-54.58
-68.23
-84.32
-100.76
-114.12
-120.63
-117.36
-103.55
-81.15
-54.58
-29.27
-9.81
1.64
5.94
6.32
6.66
9.91
17.02
26.96
37.58
46.70
52.89
55.77
55.82
53.88
50.76
47.08
43.27
39.73
36.97
35.52
35.81
37.89
41.24
44.72
46.81
46.01
41.32
32.56
20.57
6.98
-6.27
-17.50
-25.73
-30.90
-33.55
-34.34
-33.60
-31.21
-26.79
-20.21
-11.81
-2.43
6.90
15.20
21.66
25.70
27.08
26.12
23.84
21.81
21.47
23.43
27.07
30.78
32.85
32.42
29.82
26.12
22.34
18.63
14.45
8.99
2.08
-5.35
-11.47
-14.10
-11.57
-3.40
9.29
23.74
36.13
42.51
40.14
28.46
9.42
-13.25
-35.47
-54.31
-68.76
-79.52
-88.09
-95.78
-103.18
-110.01
-115.40
-118.17
-117.14
-111.63
-102.07
-90.64
-81.01
-77.21
-81.64
-93.32
-107.43
-116.58
-113.59
-94.50
-60.39
-17.20
26.15
60.69
79.85
80.98
65.56
38.40
6.39
-23.00
-43.21
-50.05
-42.67
-23.82
1.02
25.21
42.96
50.75
48.06
36.99
21.34
5.62
-5.87
-9.74
-4.25
10.21
31.09
54.27
75.37
91.23
100.76
104.73
104.63
101.37
94.77
84.15
69.64
53.18
38.27
28.45
25.48
28.51
34.61
40.64
45.01
48.39
52.88
60.38
71.17
83.75
95.77
105.42
112.22
116.87
120.30
122.65
122.88
119.12
109.72
94.21
73.98
52.15
32.73
19.20
13.34
14.81
21.73
31.94
43.93
56.96
70.08
81.32
87.82
87.28
79.76
68.52
58.80
54.96
57.73
63.38
65.36
57.75
37.99
7.52
-29.79
-70.00
-110.48
-149.41
-184.29
-211.12
-225.34
-224.27
-209.43
-186.98
-165.71
-153.50
-154.03
-165.57
-182.31
-197.29
-205.34
-204.40
-195.04
-178.91
-157.49
-132.15
-105.27
-80.95
-64.29
-59.39
-66.89
-82.97
-100.83
-113.79
-118.54
-116.14
-110.47
-105.07
-100.59
-94.37
-82.50
-62.57
-35.34
-4.46
25.46
50.94
70.58
84.63
93.83
98.34
97.67
91.39
80.02
65.38
50.16
36.78
26.42
18.71
12.10
4.82
-4.09
-14.25
-23.93
-30.61
-31.73
-25.62
-12.24
6.48
26.96
45.03
57.57
63.87
65.96
67.49
71.79
79.81
89.60
97.14
98.41
91.20
75.92
55.10
31.95
9.20
-11.44
-29.03
-42.95
-52.63
-57.50
-57.29
-52.23
-43.16
-31.69
-20.09
-11.01
-6.92
-9.22
-17.64
-30.14
-43.62
-54.94
-61.93
-63.76
-60.73
-53.75
-43.91
-32.33
-20.23
-8.98
0.13
6.24
9.33
10.20
10.08
10.15
10.92
12.19
13.22
13.24
11.92
9.63
7.41
6.81
9.56
17.16
30.25
47.91
67.52
85.05
96.34
98.58
91.56
77.80
61.59
47.13
37.11
32.06
30.94
32.14
34.41
37.08
39.81
42.13
43.40
42.94
40.44
36.06
30.43
24.50
19.36
16.11
15.59
18.08
22.93
28.62
33.23
35.49
35.61
35.50
38.01
45.49
58.30
74.26
89.29
98.96
100.39
93.42
80.80
67.08
56.86
52.85
54.64
58.73
59.73
52.60
34.78
7.21
-26.04
-59.46
-88.09
-108.87
-120.87
-124.70
-121.68
-113.59
-102.92
-93.00
-87.50
-89.20
-98.63
-113.59
-129.74
-142.23
-147.53
-144.42
-134.01
-118.90
-102.19
-86.63
-74.18
-65.75
-60.87
-57.72
-53.40
-44.97
-30.90
-12.26
7.08
21.61
26.23
18.20
-1.79
-29.86
-60.36
-87.57
-107.15
-116.63
-115.24
-103.30
-81.80
-52.18
-16.48
22.35
60.53
93.87
118.65
132.58
135.42
129.03
116.55
101.23
85.48
70.40
56.19
42.81
30.50
19.98
11.95
6.62
3.38
0.96
-1.88
-5.79
-10.32
-14.08
-15.12
-11.85
-3.73
8.19
21.46
32.89
39.68
40.41
35.49
26.87
17.12
8.30
1.31
-4.15
-8.93
-13.59
-17.87
-20.74
-20.91
-17.58
-10.86
-1.95
7.15
14.04
16.40
12.45
1.47
-15.67
-36.22
-55.67
-68.77
-71.10
-60.72
-39.17
-11.27
16.49
38.10
50.04
51.97
46.26
36.51
26.13
17.60
12.28
10.86
13.53
19.87
28.65
37.77
44.77
47.64
45.67
39.82
32.32
25.84
22.46
22.94
26.45
30.93
33.89
33.29
28.39
20.07
10.50
2.40
-2.06
-2.03
1.69
7.15
12.07
14.80
14.91
13.23
11.45
11.51
14.89
22.26
33.37
47.10
61.80
75.55
86.50
93.15
94.67
91.17
83.74
74.36
65.31
58.54
55.05
54.61
55.89
57.02
56.33
52.78
46.18
36.96
25.86
13.72
1.33
-10.56
-21.19
-29.80
-35.65
-38.14
-36.82
-31.49
-22.39
-10.24
3.68
17.50
28.87
35.20
34.30
25.50
10.65
-5.58
-16.87
-17.83
-6.68
13.13
33.61
45.18
40.46
17.02
-22.06
-70.00
-118.95
-161.96
-193.51
-208.96
-204.23
-176.61
-126.63
-59.92
12.60
76.76
119.24
131.84
114.14
73.53
22.47
-25.67
-60.51
-77.04
-75.84
-61.61
-41.12
-21.17
-7.22
-2.53
-7.74
-20.80
-37.56
-52.94
-62.73
-65.39
-63.01
-60.48
-63.05
-73.27
-88.75
-102.63
-106.91
-96.99
-74.98
-49.91
-34.35
-39.01
-67.83
-116.04
-172.03
-221.97
-254.84
-265.76
-256.12
-231.33
-197.44
-158.64
-116.48
-70.85
-21.93
28.07
74.53
111.61
134.54
141.99
137.19
126.97
119.07
118.87
127.04
139.13
147.91
146.92
133.58
110.31
83.21
58.94
41.73
31.96
26.68
21.50
12.69
-1.40
-19.76
-39.03
-54.06
-59.23
-50.32
-26.61
7.78
44.11
71.53
80.99
68.90
38.83
-0.05
-36.62
-62.22
-73.30
-71.37
-60.82
-46.07
-29.66
-11.97
7.77
30.02
53.88
76.83
95.19
104.94
103.03
88.43
62.92
30.97
-1.36
-28.20
-45.51
-51.96
-48.77
-38.54
-24.29
-8.72
5.81
17.15
23.46
23.69
18.27
9.27
-0.13
-7.11
-10.77
-12.93
-17.66
-29.60
-51.73
-83.64
-121.37
-158.94
-190.82
-214.24
-229.86
-240.65
-249.50
-257.21
-261.83
-259.89
-248.68
-228.07
-200.92
-171.68
-144.24
-120.08
-98.00
-75.29
-49.52
-20.01
11.72
42.33
67.69
84.08
89.38
83.71
69.73
51.94
35.30
23.11
15.51
9.22
-0.71
-18.10
-42.99
-70.99
-94.69
-106.85
-103.43
-85.15
-56.85
-25.18
3.94
27.14
44.09
56.66
67.36
77.80
87.76
95.39
98.13
94.10
83.20
67.29
49.22
31.62
16.11
3.52
-5.26
-8.52
-3.92
10.35
34.08
64.41
96.44
125.06
146.83
160.96
169.08
174.15
179.25
186.55
196.85
209.62
223.37
236.16
246.14
252.14
253.86
251.83
247.07
240.76
233.87
227.02
220.31
213.10
203.97
190.90
171.96
146.35
115.19
81.69
50.28
25.19
9.00
1.89
2.08
6.93
14.19
22.64
32.04
42.44
53.53
64.44
74.02
81.40
86.29
89.03
90.16
90.06
88.76
86.24
82.97
80.22
79.92
83.80
92.59
105.49
120.41
135.05
148.03
159.71
171.89
186.86
206.01
228.77
252.53
273.40
287.42
291.62
284.62
266.72
239.75
206.67
171.08
136.47
105.38
78.75
55.71
34.07
11.49
-13.23
-39.57
-65.48
-88.55
-107.46
-122.74
-136.69
-152.44
-172.61
-198.13
-227.78
-258.47
-286.20
-307.33
-319.83
-324.12
-323.23
-321.88
-324.49
-332.86
-344.81
-354.23
-353.10
-334.43
-295.18
-238.23
-172.46
-110.81
-66.66
-49.42
-61.01
-94.72
-137.21
-173.13
-190.44
-184.05
-156.71
-116.60
-73.58
-35.84
-8.80
4.56
2.79
-14.17
-44.22
-82.33
-120.83
-151.22
-166.66
-164.37
-146.24
-117.95
-86.78
-59.00
-37.95
-23.36
-12.08
0.04
16.32
38.04
64.30
92.70
120.05
142.85
157.39
160.04
148.03
120.80
81.13
35.40
-7.89
-40.68
-58.16
-60.19
-50.80
-36.04
-21.50
-10.86
-5.70
-6.26
-12.44
-24.06
-40.46
-59.97
-79.81
-96.69
-107.94
-112.47
-110.90
-104.93
-96.21
-85.57
-72.79
-57.18
-38.33
-16.80
5.76
27.04
44.79
57.57
65.10
68.14
68.10
66.49
64.58
63.13
62.50
62.72
63.71
65.28
67.00
68.15
67.79
64.78
58.11
47.25
32.19
13.36
-8.69
-33.51
-60.75
-89.67
-118.71
-145.32
-166.39
-179.21
-182.34
-176.09
-162.35
-143.99
-124.18
-106.10
-92.77
-86.93
-90.69
-104.92
-128.86
-160.20
-195.77
-232.35
-267.26
-298.33
-323.32
-339.62
-344.39
-335.40
-312.32
-277.31
-234.74
-189.78
-146.73
-107.80
-72.85
-40.05
-6.79
29.16
68.68
110.70
152.00
187.63
211.94
220.26
210.70
185.57
150.89
114.93
85.86
69.71
69.21
83.95
111.39
148.13
191.57
238.99
287.18
332.18
369.62
395.46
406.74
402.16
382.21
350.38
310.19
264.63
216.48
169.43
129.43
104.53
103.20
131.56
193.00
283.11
390.13
498.00
591.19
659.04
696.83
704.69
685.37
645.62
590.72
524.23
448.71
367.27
284.53
205.89
136.13
58.54
-31.83
-129.68
-221.91
-296.08
-346.81
-375.06
-385.03
-381.56
-369.04
-348.35
-321.50
-292.12
-264.04
-241.53
-226.61
-219.07
-217.71
-221.34
-227.33
-235.03
-244.44
-255.89
-270.08
-287.13
-306.24
-325.03
-339.07
-340.76
-323.45
-284.43
-227.39
-161.82
-99.50
-50.25
-18.49
-2.39
4.89
10.46
18.39
28.27
36.90
41.33
40.73
36.82
32.67
31.20
33.78
40.11
48.61
57.40
64.41
66.94
61.72
45.66
17.58
-20.52
-63.29
-103.78
-135.90
-156.58
-166.64
-169.77
-170.50
-171.96
-174.35
-175.24
-170.60
-156.84
-132.72
-100.55
-65.49
-33.81
-10.66
3.43
10.76
15.50
21.57
30.88
43.18
56.98
70.85
84.16
96.98
108.72
118.04
122.97
121.81
113.92
100.70
85.08
70.37
58.80
50.40
43.50
36.04
27.21
18.31
12.24
11.75
17.72
28.44
40.35
49.63
53.92
53.07
48.70
43.24
39.30
39.37
45.50
58.57
77.33
97.76
113.75
119.26
110.56
87.98
55.84
20.80
-10.63
-33.90
-47.31
-51.45
-48.28
-40.43
-30.66
-21.52
-14.77
-10.64
-6.83
0.41
15.09
39.59
73.20
111.49
147.49
174.00
186.13
182.96
167.65
146.22
125.24
109.49
100.41
95.87
91.23
81.30
62.38
33.59
-3.05
-43.35
-82.67
-117.37
-145.68
-167.92
-186.24
-204.14
-225.78
-254.69
-292.06
-335.55
-379.29
-415.65
-438.23
-444.64
-437.41
-422.56
-406.67
-393.92
-384.94
-377.43
-368.25
-355.08
-337.29
-315.30
-289.68
-260.36
-226.71
-188.20
-144.71
-96.66
-44.70
10.60
68.79
128.98
189.23
246.52
297.13
337.93
367.41
386.21
396.69
401.80
403.85
403.55
399.98
391.14
374.97
350.29
317.41
278.29
236.11
194.48
156.43
123.76
96.78
74.76
56.60
41.45
29.05
19.43
12.67
8.54
6.59
6.38
7.76
10.95
16.37
24.28
34.47
46.10
57.85
68.22
75.94
80.33
81.56
80.65
79.15
78.69
80.31
83.94
88.30
91.10
89.74
82.03
66.92
44.67
16.75
-14.57
-46.77
-77.39
-104.32
-125.73
-140.06
-145.82
-141.84
-127.55
-103.69
-72.76
-38.99
-7.65
16.23
29.27
30.73
22.68
9.18
-5.02
-16.04
-21.83
-22.41
-19.23
-14.29
-9.22
-4.79
-0.77
3.76
10.01
19.16
32.18
49.76
72.24
99.34
129.89
161.70
191.77
216.84
234.29
242.71
242.20
234.04
220.07
202.10
181.46
159.09
135.75
112.24
89.40
67.88
47.88
29.15
11.20
-6.21
-22.49
-36.20
-45.45
-48.85
-46.56
-40.56
-34.17
-30.74
-32.40
-39.35
-50.29
-63.55
-78.19
-94.28
-112.08
-131.08
-149.22
-163.27
-170.27
-169.08
-161.10
-149.91
-139.88
-134.20
-133.92
-137.77
-143.22
-148.33
-152.98
-159.03
-169.42
-186.88
-212.18
-244.02
-278.76
-310.78
-333.88
-341.84
-329.64
-295.14
-240.59
-172.19
-99.45
-31.65
25.70
71.13
107.09
137.79
166.00
191.05
210.35
219.12
214.00
195.37
165.45
128.03
88.14
50.78
19.58
-1.67
-12.73
-15.51
-12.93
-11.29
-18.59
-40.09
-76.63
-124.45
-174.27
-219.12
-255.63
-268.43
-251.25
-209.48
-155.05
-101.16
-72.66
-70.41
-88.23
-119.54
-160.08
-201.99
-244.90
-288.92
-333.35
-376.25
-412.47
-439.43
-455.87
-460.86
-442.23
-394.88
-318.39
-218.59
-106.21
8.33
114.71
205.97
279.40
334.65
370.65
388.55
391.02
381.57
365.18
345.28
324.38
304.48
286.85
270.26
253.62
236.08
217.13
197.29
176.98
156.95
138.37
122.64
109.45
98.33
88.29
78.25
67.62
56.07
43.42
29.54
14.90
0.53
-10.78
-15.05
-8.47
10.28
38.57
70.67
98.47
115.61
119.34
110.99
94.38
73.41
50.54
26.98
3.54
-18.07
-34.68
-42.90
-40.81
-29.14
-11.15
7.48
23.24
34.43
41.50
46.48
51.59
57.91
65.34
72.86
79.30
83.68
84.26
78.38
63.41
38.68
7.26
-24.24
-48.64
-62.17
-66.58
-68.13
-72.68
-81.16
-88.14
-84.97
-65.70
-31.37
9.82
47.18
72.61
83.57
81.92
70.41
50.99
25.26
-3.17
-27.65
-39.72
-34.09
-10.99
23.11
58.03
84.96
99.57
102.44
96.85
85.99
71.38
52.76
31.59
9.93
-9.16
-23.00
-30.49
-32.85
-32.74
-33.07
-35.58
-39.82
-44.02
-45.79
-43.48
-37.09
-28.45
-20.37
-15.50
-15.28
-19.12
-25.09
-30.79
-34.13
-33.65
-28.79
-19.73
-7.83
4.16
12.55
13.90
6.75
-7.22
-23.43
-36.54
-42.82
-41.93
-36.86
-31.82
-30.09
-32.40
-37.05
-41.36
-43.35
-42.35
-38.35
-32.45
-25.08
-16.10
-5.22
7.55
21.38
34.70
46.02
54.41
59.80
63.07
65.68
68.93
73.40
78.78
83.95
87.30
87.46
83.56
75.49
63.77
49.20
32.56
14.75
-3.47
-21.24
-37.54
-51.44
-62.29
-70.00
-75.10
-78.62
-81.64
-85.01
-88.89
-93.14
-96.63
-98.50
-98.69
-97.03
-93.81
-89.20
-82.95
-74.58
-63.39
-49.19
-32.68
-15.62
-0.39
10.60
15.35
12.59
1.97
-15.72
-37.54
-59.33
-75.64
-81.42
-74.35
-56.40
-33.24
-11.68
3.25
10.25
12.38
14.30
19.82
30.08
43.34
56.56
67.39
74.78
78.79
79.39
76.15
68.40
56.58
42.34
28.68
18.25
11.79
7.47
1.89
-7.66
-21.60
-36.92
-49.65
-56.82
-57.21
-51.03
-38.31
-18.36
9.78
44.81
82.63
116.26
138.92
147.01
141.37
126.43
107.54
88.55
69.51
50.76
31.40
11.19
-8.87
-27.17
-42.49
-54.35
-63.06
-69.61
-74.77
-79.34
-83.77
-88.06
-92.05
-95.85
-99.55
-103.19
-106.66
-109.49
-110.65
-108.93
-103.20
-92.71
-77.36
-57.69
-34.80
-10.24
13.98
36.13
55.03
69.98
80.89
88.10
92.28
94.29
94.64
93.78
91.71
88.48
84.19
79.42
75.03
71.95
70.92
71.69
74.09
75.84
75.10
70.95
63.69
54.85
46.61
40.93
38.37
38.03
37.67
35.26
29.57
21.05
11.62
3.77
-0.19
0.56
5.76
14.16
23.51
30.65
31.86
23.70
3.73
-25.31
-56.92
-82.04
-92.64
-85.43
-63.97
-37.29
-15.65
-5.81
-8.31
-18.42
-29.27
-35.78
-36.60
-33.60
-29.71
-26.53
-23.43
-18.32
-9.86
1.51
13.17
21.28
22.16
13.68
-3.40
-24.56
-43.00
-51.66
-46.38
-27.93
-1.62
25.05
45.54
56.21
56.48
47.29
30.38
8.15
-15.39
-34.47
-42.71
-36.02
-15.45
12.33
36.58
46.69
36.35
6.20
-35.85
-77.56
-106.72
-115.33
-102.32
-73.24
-37.83
-5.89
16.23
27.41
30.30
28.95
26.76
25.01
23.04
18.98
10.96
-2.01
-19.18
-38.16
-55.33
-66.47
-69.24
-63.83
-52.54
-38.48
-24.04
-10.22
3.16
15.89
26.77
33.76
35.31
31.55
24.53
17.42
13.05
12.88
16.33
21.38
25.42
26.67
24.80
20.89
16.76
14.19
14.13
16.34
19.72
22.80
24.43
24.28
22.86
21.21
20.37
20.99
23.10
26.21
29.62
32.80
35.63
38.56
42.19
46.88
52.40
57.89
61.86
62.67
58.97
50.34
37.32
21.29
3.91
-13.42
-29.70
-44.50
-57.67
-69.14
-78.36
-84.43
-86.57
-84.67
-79.34
-72.25
-65.52
-60.30
-58.62
-61.23
-68.15
-78.67
-90.84
-100.96
-104.41
-97.09
-77.38
-47.71
-13.90
16.79
38.65
49.67
51.76
48.96
44.99
41.68
38.90
35.72
31.76
27.70
24.84
24.13
25.41
27.54
29.09
28.74
26.29
22.46
18.50
15.65
14.63
15.34
17.07
18.77
19.49
18.79
16.81
14.14
11.62
9.99
9.69
10.71
12.64
14.73
16.19
16.44
15.30
13.21
11.04
9.80
10.25
12.51
15.94
19.35
21.52
21.60
19.56
16.17
12.63
10.29
10.18
12.87
18.03
23.86
27.08
23.68
10.41
-13.60
-45.74
-79.93
-108.42
-124.34
-124.21
-108.99
-83.38
-53.85
-26.43
-4.94
9.11
16.14
17.38
14.13
7.23
-2.87
-15.69
-29.99
-43.29
-52.19
-53.52
-45.92
-30.78
-12.06
5.15
16.89
21.86
21.40
18.04
13.94
10.40
8.40
9.37
15.13
26.64
42.34
57.53
65.64
61.16
42.74
14.18
-16.80
-41.88
-55.56
-56.98
-49.49
-38.53
-29.13
-24.01
-23.60
-26.96
-33.00
-41.22
-51.70
-64.23
-77.71
-90.28
-99.97
-105.75
-108.10
-108.47
-108.25
-107.93
-107.00
-104.29
-99.93
-95.66
-94.39
-98.61
-108.58
-121.24
-130.49
-128.96
-110.53
-72.78
-18.05
46.87
112.56
169.57
210.85
233.54
239.99
237.31
235.77
245.64
273.64
319.84
377.01
432.98
474.97
494.17
488.29
460.90
418.84
369.22
317.61
267.91
223.01
185.47
156.95
137.41
124.68
115.40
106.72
97.57
88.64
81.03
75.10
69.80
62.91
52.11
35.88
14.13
-11.75
-39.15
-64.91
-85.48
-97.53
-99.13
-90.64
-74.84
-56.12
-39.05
-26.95
-22.53
-27.14
-41.05
-63.50
-92.46
-124.59
-155.77
-182.69
-204.49
-224.99
-248.78
-278.38
-312.58
-346.95
-376.56
-398.57
-413.64
-424.48
-435.42
-445.19
-445.87
-427.10
-383.15
-318.84
-249.34
-194.84
-172.70
-194.20
-256.23
-342.68
-430.87
-500.01
-537.79
-541.60
-516.38
-447.79
-337.99
-204.02
-70.73
41.43
123.06
173.44
196.56
198.81
188.31
170.24
150.66
135.32
125.74
122.14
121.27
118.78
112.37
103.14
92.21
82.41
76.81
77.19
83.12
91.61
99.67
105.49
110.00
114.65
121.84
134.19
153.59
179.65
208.16
231.60
240.65
226.84
184.86
115.66
27.97
-62.24
-136.09
-177.47
-177.34
-136.40
-64.33
28.47
135.46
248.79
361.57
465.51
550.32
605.83
625.79
611.11
570.64
517.24
462.87
415.38
376.78
344.87
316.12
288.56
262.73
240.85
224.44
212.67
203.07
192.07
176.47
154.64
127.06
95.92
64.31
34.81
8.54
-14.57
-35.60
-55.68
-75.18
-93.22
-107.93
-117.44
-121.29
-121.13
-119.90
-120.66
-124.54
-129.87
-132.56
-127.63
-111.17
-81.60
-39.96
10.66
65.21
116.68
156.21
174.06
161.96
115.81
37.54
-65.12
-181.01
-298.92
-410.60
-511.91
-602.26
-682.60
-753.25
-812.25
-855.27
-876.83
-872.41
-840.70
-784.75
-711.45
-629.53
-547.05
-469.67
-400.23
-339.48
-287.27
-243.09
-206.05
-174.48
-145.95
-118.03
-89.09
-59.17
-29.21
-0.29
27.44
55.33
85.86
121.82
165.22
216.00
271.25
325.03
369.14
394.85
395.31
367.85
314.99
243.67
162.84
80.31
0.42
-76.29
-151.21
-224.49
-292.72
-348.61
-383.42
-390.67
-369.44
-325.24
-268.29
-209.76
-157.96
-116.73
-85.99
-63.86
-48.79
-40.33
-38.43
-42.31
-49.44
-56.04
-58.43
-54.57
-44.66
-30.94
-16.49
-3.68
6.75
15.93
26.01
38.95
55.47
74.64
94.31
112.06
126.42
137.47
146.80
156.77
169.37
185.50
204.77
225.82
247.08
267.57
287.29
307.11
328.29
352.12
379.68
411.74
448.30
488.09
528.08
563.31
588.02
597.23
588.85
564.89
531.23
495.11
462.13
434.27
410.02
386.84
364.00
343.96
331.09
328.93
336.68
348.49
356.04
352.25
334.28
303.34
262.35
213.65
159.45
102.78
49.84
10.52
-4.24
12.83
61.03
130.52
205.15
268.87
309.52
321.69
306.54
269.65
218.17
158.53
95.37
31.66
-29.34
-85.39
-135.22
-178.65
-216.61
-250.51
-281.60
-310.25
-343.76
-382.19
-420.36
-450.25
-465.34
-463.75
-448.13
-423.49
-394.87
-365.87
-337.06
-308.12
-278.91
-250.03
-222.67
-197.86
-176.17
-157.48
-141.02
-124.72
-106.60
-85.62
-61.96
-36.58
-10.78
14.05
36.47
56.16
71.85
82.49
87.08
84.58
74.51
57.16
33.59
5.37
-25.52
-57.00
-86.55
-111.71
-130.72
-142.05
-144.73
-138.53
-124.44
-104.35
-80.97
-56.42
-32.25
-10.25
8.75
24.31
35.45
39.93
37.60
26.71
6.61
-21.72
-57.41
-97.51
-138.01
-175.38
-207.62
-234.34
-256.72
-276.24
-294.71
-315.18
-337.35
-356.77
-366.23
-358.82
-330.52
-282.64
-221.26
-144.47
-62.52
9.68
60.82
88.51
97.04
92.46
78.86
58.85
34.20
5.30
-25.57
-55.16
-80.70
-101.64
-118.33
-133.59
-146.82
-156.35
-161.40
-160.46
-152.06
-135.94
-114.29
-90.17
-67.12
-47.61
-33.17
-24.82
-21.75
-21.77
-21.55
-22.95
-26.27
-31.52
-38.02
-44.95
-51.81
-57.80
-62.05
-62.74
-61.14
-57.12
-50.79
-42.06
-30.92
-17.55
-2.13
15.00
35.66
56.01
74.90
90.81
102.20
107.62
106.07
97.29
81.77
64.87
44.59
24.11
6.86
-3.81
-5.13
4.86
26.98
60.75
109.41
164.40
221.91
277.54
326.71
365.23
389.89
398.82
359.86
314.59
259.17
196.57
130.08
62.92
-1.94
-61.71
-113.86
-156.17
-181.93
-195.88
-198.36
-190.87
-175.86
-156.36
-135.14
-114.25
-94.72
-72.75
-52.18
-32.68
-14.33
2.28
16.45
27.77
36.38
42.90
50.67
57.86
65.34
74.22
85.68
100.14
116.03
128.94
132.69
123.21
97.75
60.35
19.39
-15.87
-39.14
-49.04
-48.26
-40.78
-28.54
-12.13
9.37
35.94
65.72
95.87
124.56
152.37
181.95
216.20
256.12
299.97
343.86
383.50
415.73
439.22
454.23
461.60
462.22
456.30
444.03
426.32
405.40
384.78
368.38
359.17
358.08
364.03
373.92
384.04
391.65
395.66
396.44
394.57
389.74
380.14
363.67
338.15
302.43
257.18
204.74
148.30
90.85
34.38
-20.68
-74.36
-128.09
-183.79
-242.84
-305.22
-369.21
-431.94
-490.12
-545.11
-593.05
-627.80
-643.77
-638.54
-613.68
-573.49
-523.42
-468.80
-414.82
-364.59
-320.07
-281.82
-248.60
-218.06
-187.91
-156.88
-124.03
-91.91
-63.71
-43.13
-33.60
-37.44
-55.29
-85.32
-124.21
-163.00
-192.27
-205.24
-201.05
-184.85
-165.19
-150.31
-144.73
-148.01
-156.29
-165.18
-171.90
-176.29
-180.41
-185.35
-191.15
-196.91
-201.41
-203.97
-204.28
-202.42
-198.45
-191.70
-180.86
-164.63
-142.12
-113.32
-79.23
-40.89
-0.01
41.61
82.70
122.81
162.36
202.86
247.20
291.89
336.22
379.97
423.13
465.77
507.69
547.60
582.64
608.01
617.53
606.30
571.51
514.27
440.17
358.03
277.09
204.21
142.13
89.64
44.20
3.08
-34.97
-69.66
-100.35
-127.86
-154.93
-185.42
-222.60
-266.92
-315.89
-364.89
-408.83
-443.48
-466.50
-476.75
-473.43
-456.13
-425.69
-385.50
-341.78
-301.88
-271.11
-250.79
-236.71
-220.10
-191.42
-145.04
-81.36
-6.31
71.61
145.68
210.86
264.72
307.56
341.01
366.30
384.88
398.49
408.31
415.39
416.62
406.30
379.51
333.56
267.00
180.83
78.09
-36.90
-156.72
-275.34
-387.00
-484.99
-555.84
-587.99
-576.05
-524.28
-458.02
-386.45
-309.64
-224.54
-125.54
-15.35
94.49
190.92
265.83
318.62
358.18
395.36
430.93
461.37
492.36
518.58
524.23
500.40
446.53
370.94
284.79
198.28
118.84
48.80
-15.68
-78.75
-141.36
-202.30
-258.84
-309.15
-352.56
-388.56
-417.40
-440.84
-458.97
-469.72
-471.48
-464.35
-449.11
-426.04
-393.38
-348.38
-290.12
-219.62
-141.14
-58.40
15.88
67.46
88.95
84.41
66.99
47.43
31.05
18.80
9.32
1.13
-4.33
-3.56
7.21
29.92
63.28
104.04
147.87
189.94
224.60
247.51
256.26
250.63
232.65
206.04
176.19
148.49
126.50
110.13
96.50
81.78
62.73
38.61
11.52
-13.92
-33.32
-44.87
-50.97
-56.86
-67.78
-85.97
-109.21
-131.67
-146.20
-148.09
-137.24
-118.24
-97.96
-82.15
-73.09
-69.09
-66.15
-60.34
-49.88
-35.80
-20.70
-7.10
4.05
13.48
22.89
33.71
46.38
60.64
75.85
91.37
106.31
119.43
128.81
132.44
128.86
117.59
99.31
75.76
49.38
23.24
0.88
-14.20
-19.13
-12.58
4.39
28.42
54.73
78.83
98.03
112.27
123.76
135.74
150.83
169.62
190.48
210.33
226.13
236.18
240.71
241.45
240.40
238.72
236.09
231.19
222.70
210.37
195.52
180.69
168.51
160.41
156.05
153.48
150.24
144.52
135.75
124.51
111.72
97.85
82.59
65.14
44.80
21.58
-3.85
-30.37
-56.97
-83.06
-108.51
-133.31
-157.16
-179.16
-198.08
-212.81
-222.95
-229.25
-233.70
-239.37
-249.85
-268.66
-297.86
-336.69
-380.53
-421.02
-447.78
-451.43
-427.07
-376.15
-306.31
-228.82
-154.80
-92.30
-44.84
-12.02
8.74
20.48
25.89
27.28
26.93
27.46
31.45
40.90
56.42
76.80
99.09
119.37
133.88
140.13
137.54
127.27
111.60
92.85
72.73
52.25
31.89
12.18
-6.14
-21.94
-34.01
-41.22
-42.88
-39.08
-30.85
-20.22
-9.76
-1.84
2.16
2.33
0.04
-2.83
-4.82
-5.61
-6.02
-7.43
-11.03
-17.28
-25.88
-36.26
-47.91
-60.62
-74.12
-87.75
-100.45
-111.03
-118.75
-123.58
-125.96
-126.26
-124.15
-118.49
-107.87
-91.49
-69.92
-45.25
-20.40
1.93
19.97
33.28
42.27
47.71
50.19
50.07
47.54
43.02
37.36
31.66
27.03
24.18
23.30
23.93
25.31
26.69
27.64
28.07
28.15
28.14
28.17
28.18
27.97
27.22
25.78
23.61
20.94
18.12
15.53
13.47
12.09
11.40
11.33
11.78
12.57
13.48
14.24
14.51
13.95
12.39
9.97
7.21
4.85
3.67
4.09
6.03
8.93
11.93
14.30
15.72
16.35
16.65
17.05
17.61
17.93
17.38
15.25
11.01
4.46
-4.17
-14.10
-23.84
-31.31
-34.47
-31.86
-23.26
-9.97
5.67
21.08
34.37
44.81
52.75
58.91
63.76
67.12
68.19
66.24
61.19
54.00
46.55
41.00
39.15
42.07
50.18
63.62
82.73
108.06
139.86
177.45
218.77
260.64
299.31
331.29
353.75
364.66
362.70
347.15
318.30
277.54
227.45
171.39
112.62
53.60
-4.36
-61.02
-116.83
-172.37
-228.11
-284.42
-341.05
-396.55
-447.88
-490.61
-520.13
-533.18
-528.97
-509.61
-479.37
-443.48
-406.95
-373.86
-346.94
-327.21
-313.73
-303.46
-291.75
-273.67
-245.68
-206.87
-159.28
-106.99
-54.36
-4.86
39.77
79.33
114.71
147.33
178.94
211.66
247.71
288.86
335.25
384.43
431.36
469.79
494.27
502.22
494.87
476.82
454.25
432.61
414.75
400.19
385.52
365.87
336.59
294.56
238.81
170.34
91.86
7.63
-76.45
-153.17
-214.74
-254.44
-268.44
-257.29
-226.01
-183.01
-137.82
-98.81
-71.78
-59.33
-61.13
-74.78
-97.09
-125.20
-157.29
-192.29
-228.95
-264.76
-295.77
-317.91
-329.20
-331.68
-331.25
-335.30
-349.18
-373.51
-403.92
-433.81
-458.09
-475.86
-489.99
-504.02
-518.48
-529.16
-528.62
-510.07
-471.22
-415.74
-351.65
-287.71
-229.89
-179.99
-136.53
-97.02
-59.81
-24.79
7.38
36.43
63.16
89.51
117.55
148.58
182.47
217.72
251.90
282.83
309.15
330.80
348.91
365.31
381.85
399.85
419.57
440.08
459.45
475.18
484.98
487.46
482.59
471.52
455.95
437.19
415.68
391.18
363.32
332.30
299.21
265.78
233.73
204.16
177.21
152.39
129.13
106.73
84.24
60.53
34.56
6.15
-23.75
-53.25
-80.25
-103.02
-121.41
-137.15
-152.96
-171.07
-191.78
-213.41
-232.98
-247.59
-254.61
-252.86
-242.55
-224.73
-200.33
-169.86
-134.06
-94.64
-54.05
-13.50
26.91
67.51
107.60
144.31
172.59
186.37
180.89
150.05
96.41
31.83
-27.08
-67.39
-85.56
-86.20
-77.00
-64.73
-53.69
-45.99
-43.79
-50.06
-67.51
-97.35
-135.79
-174.41
-202.76
-211.84
-196.63
-158.28
-103.58
-41.80
19.16
75.55
127.39
175.85
220.52
258.54
284.81
294.04
283.35
253.79
210.31
159.65
107.61
57.19
8.64
-39.32
-87.33
-133.74
-174.14
-202.50
-213.73
-205.99
-181.68
-146.59
-107.97
-72.24
-43.34
-22.46
-8.55
0.42
6.25
10.02
12.13
12.58
11.47
9.12
6.11
3.23
1.32
1.07
3.00
7.45
14.66
25.11
39.64
59.21
84.13
113.13
142.99
169.10
187.00
193.92
189.50
175.22
152.67
122.45
84.20
38.26
-12.24
-60.70
-98.62
-118.67
-117.82
-98.45
-67.02
-31.16
3.23
33.14
57.91
77.75
92.68
102.33
106.76
107.12
105.68
105.09
107.25
112.49
119.61
126.57
131.33
132.76
130.96
127.28
123.75
122.35
124.29
129.37
135.83
140.71
140.66
132.99
116.50
91.87
61.42
28.38
-3.89
-32.66
-56.20
-73.82
-85.52
-91.58
-92.12
-87.30
-77.71
-64.66
-50.27
-37.20
-28.03
-24.68
-27.81
-36.53
-48.53
-60.93
-70.92
-76.67
-77.92
-76.34
-75.03
-77.57
-86.70
-103.34
-127.24
-157.10
-191.41
-228.94
-268.81
-309.67
-348.74
-381.04
-399.92
-400.46
-380.58
-342.06
-290.03
-231.51
-173.36
-120.56
-74.98
-35.80
-3.12
23.01
43.18
60.22
78.89
103.53
135.00
168.89
196.06
202.57
176.90
114.83
22.03
-88.61
-202.74
-309.59
-403.75
-465.10
-476.89
-431.80
-338.73
-217.88
-90.61
27.54
127.78
206.67
265.13
304.29
327.59
339.49
343.76
342.52
335.61
321.05
296.29
260.12
209.33
146.15
76.38
9.00
-45.85
-79.60
-88.07
-73.60
-43.62
-9.26
19.40
34.91
39.92
41.18
45.87
59.58
80.54
100.96
113.10
111.76
96.41
71.73
45.22
23.97
11.56
6.48
4.29
0.03
-9.65
-23.74
-40.11
-56.85
-72.95
-88.95
-106.42
-126.29
-148.15
-171.00
-194.13
-218.09
-244.20
-272.87
-302.00
-326.77
-340.70
-338.45
-318.79
-285.54
-246.26
-209.22
-180.24
-161.40
-151.56
-147.91
-147.60
-148.68
-149.81
-149.83
-147.48
-141.72
-132.45
-120.77
-108.53
-97.89
-90.36
-86.20
-84.54
-83.60
-81.51
-76.94
-69.53
-59.82
-48.98
-38.20
-28.32
-19.65
-12.15
-5.49
0.53
5.96
10.64
14.30
16.72
17.77
17.48
15.95
13.51
10.60
7.86
5.98
5.50
6.63
9.08
12.17
15.10
17.43
19.37
21.85
26.20
33.49
43.88
56.31
68.63
78.39
83.76
84.23
80.93
76.14
72.50
72.59
78.51
91.85
113.34
142.57
177.48
214.87
251.33
284.70
314.95
343.84
373.22
403.26
431.69
454.39
467.38
468.57
458.25
438.22
410.11
374.01
328.46
271.76
203.76
127.53
49.84
-19.95
-72.25
-99.98
-100.66
-77.07
-36.30
12.35
59.82
99.21
126.46
140.29
141.21
130.77
110.75
83.10
50.08
15.04
-17.22
-40.65
-49.07
-38.20
-7.49
39.25
94.85
151.02
200.90
240.41
268.21
284.70
290.72
286.86
273.86
253.30
228.15
202.64
181.37
168.05
164.35
169.63
181.20
195.45
209.04
219.56
225.85
227.54
224.48
216.29
202.33
182.14
155.97
125.04
91.46
57.77
26.22
-1.64
-25.29
-44.99
-61.30
-74.72
-85.39
-93.20
-97.86
-99.21
-97.15
-91.85
-83.55
-72.55
-59.17
-43.69
-26.58
-8.33
10.35
28.74
46.15
62.05
76.01
87.78
97.23
104.12
108.28
109.52
107.81
103.38
96.72
88.38
78.84
68.31
56.59
43.27
27.89
10.41
-8.67
-28.20
-46.72
-62.88
-75.79
-85.44
-92.53
-98.26
-103.85
-110.23
-117.91
-127.25
-138.77
-153.18
-171.33
-193.71
-220.12
-249.74
-281.54
-314.85
-349.21
-383.57
-415.10
-438.91
-449.09
-440.94
-413.14
-368.62
-313.48
-254.73
-198.26
-147.92
-106.27
-75.62
-58.25
-55.15
-64.11
-78.91
-90.69
-91.18
-75.97
-46.20
-7.74
31.19
62.76
81.63
85.94
77.36
60.34
40.76
24.33
15.10
14.42
20.79
30.82
40.85
48.03
50.85
48.35
39.31
22.30
-3.74
-38.42
-79.35
-122.82
-165.55
-206.19
-246.00
-287.25
-330.74
-373.42
-407.91
-424.76
-416.31
-380.53
-322.42
-252.16
-181.12
-117.91
-66.03
-24.11
11.94
46.73
84.11
126.81
176.43
232.71
292.50
349.21
394.02
418.59
418.18
393.71
351.46
300.47
248.93
201.58
159.01
118.88
77.79
33.49
-13.68
-60.29
-100.62
-128.86
-141.83
-141.20
-133.61
-128.32
-132.86
-149.37
-173.41
-196.07
-208.20
-204.05
-182.60
-146.25
-98.41
-41.92
20.57
85.11
145.50
194.28
225.54
237.51
233.54
220.60
205.85
193.15
181.78
167.56
145.62
113.44
72.03
25.05
-23.19
-69.47
-111.81
-148.41
-176.68
-193.66
-198.04
-192.17
-182.15
-175.24
-175.72
-181.95
-186.74
-181.54
-162.22
-132.51
-102.96
-85.56
-87.30
-106.20
-132.21
-152.03
-155.21
-137.91
-103.16
-58.72
-13.77
23.43
46.83
53.40
43.82
22.55
-3.07
-24.91
-36.91
-37.23
-28.14
-14.41
-0.48
11.46
21.75
32.06
44.01
58.06
73.74
90.17
106.29
120.66
131.19
135.47
131.54
119.41
101.32
81.41
64.28
53.27
49.34
50.72
53.64
53.79
47.86
34.78
16.04
-4.89
-24.22
-39.42
-49.83
-56.68
-61.74
-66.26
-70.50
-74.05
-76.66
-78.58
-80.18
-81.00
-79.40
-73.08
-60.32
-41.27
-18.29
5.08
25.54
41.19
51.87
58.33
61.29
60.87
56.97
49.88
40.88
32.17
25.83
22.93
22.93
23.70
22.33
16.30
4.31
-13.01
-33.18
-52.56
-67.66
-76.37
-78.74
-76.48
-71.64
-65.29
-56.99
-45.29
-29.04
-8.46
14.81
38.64
61.85
84.85
109.12
135.50
162.71
186.90
202.78
205.84
194.16
169.49
136.79
102.81
74.19
55.57
48.05
48.76
51.76
49.48
34.93
3.68
-44.73
-106.16
-171.87
-230.06
-268.38
-277.26
-253.78
-203.65
-140.54
-82.12
-44.09
-34.60
-51.81
-85.72
-122.99
-152.89
-170.63
-177.42
-177.99
-176.95
-176.62
-176.87
-176.43
-174.23
-170.13
-164.47
-157.49
-149.36
-140.52
-132.05
-125.64
-122.85
-124.14
-128.59
-134.19
-138.73
-140.64
-139.04
-133.78
-125.15
-114.01
-101.58
-89.33
-78.14
-67.45
-55.34
-38.98
-16.02
14.42
51.17
91.00
129.13
159.97
178.21
180.15
165.27
137.05
102.33
69.07
43.43
27.47
19.24
15.07
12.38
11.65
15.93
28.52
50.24
78.20
106.87
130.48
145.51
151.48
150.60
145.96
140.20
134.70
129.47
123.65
115.95
105.41
92.03
77.47
64.99
58.89
62.84
78.29
103.67
134.53
165.13
190.23
206.52
212.67
208.70
194.95
171.55
138.93
98.58
53.90
9.80
-29.02
-59.95
-83.80
-104.11
-125.07
-148.87
-174.15
-196.19
-208.73
-206.74
-188.67
-157.33
-118.84
-80.56
-48.53
-26.11
-13.66
-9.56
-11.71
-18.62
-29.85
-45.53
-65.54
-88.77
-112.84
-134.29
-148.98
-152.99
-143.43
-119.65
-84.23
-43.06
-4.32
23.54
34.26
25.75
0.50
-35.48
-74.59
-109.70
-135.33
-148.30
-147.94
-136.13
-117.07
-96.40
-79.54
-69.63
-66.09
-64.56
-58.64
-42.31
-12.65
28.77
76.21
121.71
157.82
180.09
188.58
187.43
183.26
182.75
190.48
208.02
233.77
263.66
291.93
312.04
317.87
305.44
274.62
229.69
178.41
129.08
87.63
55.88
31.98
12.29
-6.17
-24.32
-40.77
-52.52
-56.31
-49.67
-31.98
-5.17
26.23
56.18
78.78
90.41
91.35
85.78
80.41
81.90
94.21
116.80
144.49
169.05
182.37
179.74
161.87
134.65
106.69
85.87
76.67
79.32
90.64
106.03
121.31
133.66
141.90
146.04
146.94
145.62
142.68
137.71
129.23
115.02
93.11
62.74
24.63
-19.48
-67.57
-117.65
-168.01
-216.79
-262.08
-302.45
-337.88
-370.35
-403.18
-439.56
-480.49
-523.46
-562.73
-590.86
-601.27
-590.46
-559.06
-511.41
-453.95
-393.26
-334.39
-280.17
-231.33
-187.33
-147.23
-110.40
-76.49
-45.46
-17.23
8.52
32.18
54.04
74.30
93.37
111.70
129.84
147.65
164.02
176.93
183.94
182.85
172.20
151.46
120.95
81.92
36.60
-11.69
-58.73
-100.04
-131.81
-151.67
-159.03
-154.86
-141.09
-120.03
-94.05
-65.41
-36.13
-7.68
19.02
43.66
66.12
86.38
104.54
121.07
137.15
154.42
174.36
197.07
220.57
241.12
254.50
257.98
251.33
236.89
218.14
198.31
179.67
164.07
153.89
152.16
161.64
182.67
212.00
243.27
269.40
285.38
289.72
283.79
269.82
249.17
221.75
186.89
144.57
96.38
45.09
-6.43
-56.43
-104.84
-152.87
-201.66
-251.07
-298.95
-341.62
-375.05
-396.61
-406.10
-405.78
-399.37
-390.25
-380.14
-368.73
-354.62
-336.50
-314.07
-288.23
-260.44
-232.14
-204.27
-177.04
-150.26
-123.82
-98.33
-75.10
-55.76
-41.34
-31.12
-22.61
-12.38
2.36
22.25
45.29
67.77
85.76
96.72
100.14
97.17
89.58
78.95
66.20
51.93
36.89
22.29
9.54
-0.16
-6.49
-10.21
-12.95
-16.56
-22.14
-29.54
-37.16
-42.33
-42.19
-34.60
-18.80
4.71
34.53
69.06
107.03
147.59
190.06
233.75
277.71
320.92
362.36
400.72
433.95
458.98
472.14
470.30
452.41
420.37
378.84
333.67
289.95
250.61
216.38
186.86
161.98
142.59
129.93
124.36
124.29
126.39
126.82
123.26
115.79
107.07
100.82
99.93
105.06
114.33
124.33
131.73
134.92
134.75
134.25
137.45
147.59
165.67
189.80
215.84
238.77
254.30
259.91
255.13
241.13
220.22
195.77
171.95
153.42
144.24
146.35
158.70
177.30
196.73
211.99
220.08
220.15
212.82
199.13
180.00
156.37
129.73
102.35
76.79
55.11
38.12
25.27
15.37
7.33
0.79
-3.84
-5.73
-4.14
1.16
9.82
21.12
34.18
48.16
62.45
76.57
90.06
102.37
112.71
120.16
123.84
123.09
117.66
107.78
94.13
77.73
59.68
40.98
22.37
4.26
-13.24
-30.28
-47.08
-63.77
-80.35
-96.70
-112.61
-127.97
-142.94
-157.91
-173.49
-190.19
-208.31
-227.61
-247.41
-266.78
-285.14
-302.50
-319.51
-337.02
-355.46
-374.44
-392.60
-407.95
-418.04
-420.25
-412.03
-391.64
-359.24
-317.99
-274.15
-235.55
-208.94
-197.13
-197.64
-203.88
-207.95
-203.87
-189.53
-166.40
-138.05
-108.27
-80.20
-55.81
-36.05
-20.66
-7.86
5.44
22.67
46.20
76.27
110.59
145.38
176.83
202.81
223.62
241.51
259.39
278.96
299.33
317.01
327.10
325.19
309.59
281.87
246.24
207.78
170.57
136.92
107.70
83.45
64.89
52.97
47.89
48.34
51.49
53.94
52.93
47.26
37.47
25.04
11.28
-3.67
-21.14
-43.36
-72.48
-109.41
-153.21
-201.17
-249.62
-295.14
-335.71
-371.61
-405.52
-441.77
-484.39
-534.79
-590.14
-643.03
-683.48
-702.17
-693.70
-657.98
-600.36
-529.99
-457.77
-394.36
-347.87
-322.03
-314.98
-319.57
-325.38
-322.57
-305.27
-273.24
-231.05
-185.11
-140.63
-99.98
-63.10
-28.58
5.13
39.67
76.81
117.66
161.39
204.50
241.54
267.44
280.28
282.71
281.15
283.11
294.13
316.16
347.78
385.29
423.92
458.28
482.61
491.55
481.58
452.42
407.72
353.87
297.45
242.99
191.96
143.26
94.65
44.12
-9.53
-66.71
-127.67
-192.94
-262.98
-337.34
-413.59
-486.55
-548.59
-591.51
-609.04
-599.38
-566.05
-516.67
-460.18
-403.92
-351.97
-305.32
-263.39
-225.71
-192.65
-165.01
-143.08
-125.90
-111.48
-97.58
-82.76
-66.89
-51.17
-37.36
-27.02
-20.77
-18.32
-18.74
-21.14
-25.10
-30.94
-39.39
-51.16
-66.38
-84.24
-103.13
-120.99
-135.83
-146.24
-151.60
-152.02
-148.17
-140.92
-131.12
-119.50
-106.77
-93.57
-80.60
-68.58
-58.16
-49.80
-43.71
-39.78
-37.69
-36.99
-37.20
-37.95
-38.87
-39.64
-39.93
-39.29
-37.11
-32.72
-25.48
-14.80
-0.38
17.74
39.09
62.76
87.52
112.00
134.81
154.73
170.82
182.38
189.02
190.67
187.51
180.07
169.22
156.18
142.30
128.99
117.27
107.78
100.62
95.51
92.04
89.97
89.43
90.82
94.70
101.41
110.90
122.68
135.97
149.98
164.22
178.59
193.32
208.87
225.91
245.26
267.62
293.03
320.24
346.29
367.02
378.23
377.32
364.39
342.18
315.06
287.44
262.44
241.59
225.24
213.23
205.31
200.95
199.01
197.73
195.00
189.17
179.64
167.11
153.07
139.30
126.99
116.44
107.22
98.53
89.57
79.93
69.77
59.50
49.75
41.02
33.74
28.21
24.60
22.85
22.59
23.31
24.36
25.31
25.96
26.36
26.66
26.84
26.78
26.25
25.20
23.77
22.17
20.52
18.60
15.92
11.99
6.73
0.61
-5.44
-10.35
-13.45
-14.58
-14.20
-13.00
-11.67
-10.59
-9.98
-9.83
-10.12
-10.77
-11.54
-12.17
-12.32
-11.72
-10.27
-8.12
-5.63
-3.23
-1.44
-0.60
-0.82
-1.92
-3.39
-4.62
-5.12
-4.82
-4.03
-3.43
-3.66
-4.97
-7.20
-9.77
-12.04
-13.57
-14.31
-14.48
-14.46
-14.56
-14.84
-15.27
-15.68
-15.95
-16.02
-15.83
-15.39
-14.54
-13.06
-10.62
-7.05
-2.37
3.06
8.72
14.26
19.63
25.30
32.00
40.27
49.95
60.02
68.88
74.98
77.59
76.99
74.38
71.20
68.56
66.94
66.34
66.88
68.89
72.80
78.48
84.74
89.44
90.38
86.54
78.90
70.47
65.07
65.91
74.44
90.07
110.94
134.92
160.35
185.81
209.54
228.92
240.80
242.64
233.89
216.50
194.58
172.84
154.66
140.89
129.69
117.78
102.09
81.06
55.15
26.63
-1.38
-25.91
-44.73
-56.76
-61.91
-60.86
-54.69
-44.58
-31.63
-16.81
-1.05
14.82
30.00
43.89
56.19
66.91
76.27
84.43
91.25
96.37
99.31
99.78
97.84
93.97
88.92
83.51
78.32
73.43
68.58
63.36
57.41
50.59
43.05
35.08
27.07
19.31
11.95
5.03
-1.43
-7.31
-12.41
-16.54
-19.54
-21.46
-22.51
-23.02
-23.29
-23.51
-23.67
-23.69
-23.56
-23.45
-23.80
-25.32
-28.74
-34.67
-43.37
-54.78
-68.63
-84.65
-102.66
-122.56
-144.25
-167.51
-192.05
-217.82
-244.95
-273.51
-302.94
-331.41
-356.06
-374.02
-383.93
-386.96
-386.39
-385.86
-387.68
-392.07
-397.65
-402.86
-407.12
-410.94
-414.89
-418.42
-419.48
-415.69
-405.87
-391.02
-373.91
-357.78
-344.92
-335.97
-330.06
-325.53
-320.76
-314.39
-305.37
-292.90
-276.24
-254.54
-226.94
-192.67
-151.61
-104.95
-55.67
-8.17
32.88
64.12
84.39
94.21
94.18
83.89
62.33
29.90
-9.53
-48.20
-76.41
-86.06
-74.07
-43.23
-0.20
47.90
96.54
144.57
192.84
242.14
292.14
341.77
390.64
439.99
491.86
547.18
603.51
654.30
690.50
703.80
690.00
650.94
593.97
528.95
464.84
407.10
357.22
314.19
276.57
243.85
216.55
195.46
180.31
169.58
160.76
151.18
138.80
122.64
102.75
80.17
56.77
34.88
16.90
4.55
-1.74
-3.01
-1.54
0.05
-0.36
-3.78
-10.18
-18.88
-29.22
-40.84
-53.63
-67.38
-81.49
-94.89
-106.46
-115.61
-122.67
-129.11
-137.33
-149.67
-167.76
-191.76
-220.36
-251.54
-283.36
-314.79
-346.00
-378.04
-412.19
-449.67
-491.49
-538.25
-589.49
-642.76
-692.83
-732.21
-753.01
-749.82
-722.00
-674.20
-614.67
-552.31
-493.85
-442.56
-398.81
-361.45
-329.04
-300.34
-273.93
-247.95
-220.47
-190.24
-157.46
-123.76
-91.34
-61.81
-35.23
-9.98
16.52
46.41
80.44
117.53
155.31
191.24
223.84
253.25
281.34
311.22
346.13
388.08
436.29
486.03
528.79
553.98
552.52
520.51
461.57
386.69
311.23
249.91
212.27
200.10
207.81
225.42
242.38
250.85
247.30
232.04
207.57
176.30
139.42
96.62
47.24
-8.45
-68.67
-130.84
-193.13
-255.49
-319.18
-384.67
-449.25
-506.02
-545.55
-559.34
-543.74
-502.09
-443.67
-380.22
-322.06
-275.29
-240.99
-216.73
-198.51
-182.52
-166.17
-148.12
-127.69
-104.33
-77.92
-49.58
-22.54
-2.22
5.76
-1.48
-21.37
-45.87
-64.67
-70.26
-62.01
-46.71
-34.61
-33.69
-45.26
-63.51
-79.16
-84.68
-77.88
-62.30
-44.48
-30.19
-21.94
-18.76
-17.41
-14.80
-9.52
-2.03
6.12
13.38
19.27
24.69
31.28
40.43
52.25
65.33
77.26
85.86
90.14
90.89
90.31
90.93
94.68
102.04
112.10
123.07
133.08
141.02
146.88
151.76
157.29
164.95
175.41
188.09
201.29
212.52
219.41
220.46
215.68
206.64
196.08
186.92
181.24
179.75
181.75
185.73
190.34
195.27
201.48
211.04
226.41
249.88
283.02
325.85
376.08
428.40
474.89
506.57
516.18
500.92
463.95
413.57
360.23
312.58
274.72
245.52
220.52
195.05
166.56
135.40
103.66
73.19
44.11
14.64
-17.56
-53.40
-90.97
-125.64
-151.85
-165.34
-164.70
-151.73
-130.32
-104.62
-77.63
-50.39
-22.09
9.08
44.91
86.25
132.59
181.91
230.91
275.42
311.12
334.27
342.61
335.86
315.63
285.33
249.27
211.80
176.35
145.01
118.59
97.02
79.79
66.02
54.47
43.26
30.42
14.42
-5.35
-28.54
-54.24
-81.46
-108.97
-134.81
-155.93
-168.47
-169.45
-158.37
-138.35
-115.08
-94.64
-80.84
-73.87
-70.92
-68.05
-62.34
-53.02
-41.62
-30.86
-23.63
-22.05
-26.89
-37.46
-51.90
-67.91
-83.65
-98.50
-113.39
-130.07
-150.22
-174.82
-204.18
-238.04
-275.38
-313.34
-346.79
-369.03
-374.25
-361.05
-334.67
-306.69
-291.09
-298.42
-330.75
-379.93
-430.34
-465.12
-472.72
-450.97
-407.28
-354.84
-306.99
-272.68
-254.11
-247.48
-245.99
-243.02
-233.96
-216.49
-190.23
-156.21
-117.56
-79.98
-51.21
-38.67
-46.26
-71.54
-105.87
-137.48
-156.30
-157.78
-143.91
-120.98
-95.84
-72.89
-53.49
-37.38
-24.72
-16.78
-15.32
-20.63
-30.52
-40.61
-45.76
-41.82
-26.75
-0.61
34.30
73.46
110.09
135.85
143.11
128.32
94.77
52.69
15.96
-3.61
-1.23
19.55
49.71
80.18
106.28
128.81
151.66
177.89
207.15
236.14
261.21
281.09
297.96
316.33
340.27
371.29
407.73
445.61
480.64
509.75
531.80
547.34
557.61
563.27
563.72
557.21
541.58
515.72
480.56
439.26
396.45
356.70
322.85
295.35
272.35
250.91
228.28
202.81
174.12
142.60
108.81
73.12
35.91
-2.31
-40.54
-77.14
-110.05
-137.44
-158.15
-171.91
-179.29
-181.36
-179.29
-173.77
-164.61
-150.44
-129.19
-99.24
-61.01
-18.03
22.97
53.91
68.09
62.71
39.92
5.71
-32.80
-70.15
-104.04
-135.21
-165.74
-197.19
-229.60
-261.58
-290.74
-314.83
-332.39
-343.15
-348.05
-348.56
-346.09
-341.33
-333.84
-322.31
-305.15
-281.17
-250.15
-213.17
-172.41
-131.41
-94.91
-68.21
-56.31
-62.30
-86.12
-124.18
-170.02
-215.54
-252.76
-275.26
-279.04
-263.21
-229.88
-183.85
-131.75
-80.79
-37.13
-4.39
17.48
32.17
45.33
62.14
84.54
110.02
132.40
144.72
142.50
126.30
101.45
75.56
55.10
43.03
38.36
38.10
39.39
40.71
41.81
42.40
40.89
34.49
20.40
-2.59
-32.54
-64.31
-90.65
-104.31
-100.29
-77.21
-37.62
12.89
67.11
118.29
161.50
194.25
216.11
227.78
230.02
223.08
207.03
182.50
151.69
118.64
88.61
66.79
56.81
59.89
74.94
99.21
128.98
160.18
188.68
210.49
222.16
221.39
207.33
180.65
143.33
97.87
46.57
-8.89
-67.35
-127.23
-185.60
-237.89
-278.89
-304.29
-312.83
-307.05
-292.75
-276.98
-265.59
-261.74
-265.56
-275.23
-288.08
-301.33
-312.17
-317.70
-315.07
-302.26
-279.04
-247.27
-210.44
-172.25
-135.55
-101.71
-70.86
-42.74
-17.28
5.19
24.62
41.66
57.79
74.43
91.85
108.43
121.07
126.90
125.02
117.60
109.31
105.41
109.51
122.07
140.27
159.28
174.07
181.02
178.73
167.90
150.86
130.90
111.75
97.14
90.23
92.97
105.41
125.51
149.38
172.37
190.37
200.81
203.22
198.73
189.11
176.09
160.96
144.67
128.00
111.63
95.87
80.28
63.74
44.77
22.42
-2.83
-28.76
-51.81
-68.29
-75.74
-74.10
-65.76
-54.73
-45.11
-39.69
-39.33
-43.18
-49.68
-57.49
-66.01
-75.39
-86.05
-98.26
-112.02
-127.27
-143.82
-161.09
-177.62
-190.80
-197.36
-194.44
-180.77
-157.30
-127.40
-95.80
-67.01
-43.91
-26.74
-13.21
0.76
19.56
46.18
80.29
117.36
149.66
168.85
169.09
149.06
111.90
63.80
12.84
-33.63
-69.52
-89.91
-91.16
-71.93
-34.57
14.27
65.55
112.63
151.60
182.27
207.27
230.11
253.73
279.58
307.21
336.44
370.34
410.96
458.61
511.36
565.66
617.42
662.92
698.08
721.13
735.42
743.59
746.41
742.17
727.68
700.55
661.00
611.09
529.00
406.07
245.48
63.32
-117.53
-277.47
-405.91
-492.48
-546.36
-576.85
-587.07
-580.31
-561.47
-537.52
-517.94
-510.01
-518.12
-544.39
-585.02
-629.19
-665.04
-682.55
-676.64
-648.07
-601.85
-544.90
-484.35
-423.85
-363.37
-303.84
-248.75
-204.36
-177.22
-170.53
-181.88
-203.93
-225.25
-233.88
-222.10
-188.31
-137.21
-77.56
-19.10
30.09
65.06
85.03
92.51
91.14
84.25
74.14
62.21
49.65
37.87
28.60
23.83
25.25
33.81
49.47
71.24
97.46
126.16
155.35
183.06
207.53
227.15
240.67
247.21
246.45
238.87
225.73
209.08
191.19
173.88
158.10
143.81
130.30
116.74
102.84
89.29
77.86
70.50
68.48
71.71
78.56
86.41
92.33
94.41
92.60
89.21
87.25
88.99
94.96
103.89
113.14
118.74
116.77
104.52
82.78
54.70
25.79
2.69
-8.08
-2.52
18.05
47.53
77.21
100.77
114.01
115.83
107.23
90.74
68.74
41.34
7.55
-33.17
-77.46
-121.71
-162.71
-198.95
-229.52
-246.15
-240.97
-209.08
-165.59
-119.11
-74.59
-29.28
16.23
60.13
100.18
133.23
156.79
169.76
175.19
175.87
173.59
168.17
159.00
145.29
125.42
98.24
63.97
26.59
-9.40
-39.98
-63.19
-78.61
-87.49
-92.77
-97.42
-103.16
-108.72
-111.91
-110.74
-104.55
-93.88
-80.45
-67.08
-56.83
-52.36
-54.89
-64.89
-82.15
-106.03
-135.37
-168.50
-203.69
-239.28
-274.09
-307.68
-340.63
-374.01
-408.15
-441.28
-469.02
-485.52
-485.50
-466.48
-429.92
-380.63
-325.00
-269.02
-216.98
-171.42
-133.43
-102.96
-78.63
-57.34
-34.50
-5.29
33.57
82.24
137.48
193.88
245.97
289.87
323.92
347.67
360.53
360.83
346.18
314.73
266.74
205.03
134.27
59.56
-14.50
-83.97
-144.79
-192.51
-223.00
-234.10
-227.23
-207.72
-183.29
-161.36
-146.65
-139.93
-138.74
-139.14
-137.73
-132.72
-124.13
-112.89
-100.04
-86.34
-72.35
-58.76
-46.61
-37.06
-30.84
-27.47
-24.78
-19.48
-8.57
8.89
30.87
52.58
68.46
74.50
70.06
58.19
44.09
32.79
26.91
25.76
26.19
24.54
18.39
7.39
-7.45
-24.82
-44.10
-65.23
-88.07
-111.66
-134.09
-153.13
-167.23
-176.31
-181.72
-185.49
-189.57
-195.06
-201.98
-209.34
-215.25
-217.28
-212.84
-200.02
-178.26
-148.63
-113.65
-76.60
-40.53
-7.58
21.27
45.85
66.54
83.80
98.25
110.53
121.27
131.13
140.62
150.01
159.50
169.45
180.56
194.14
212.07
236.26
267.55
304.68
343.68
378.53
402.99
412.64
406.45
386.85
358.53
326.54
294.65
264.79
237.13
210.92
184.93
157.93
128.82
97.06
63.17
28.96
-2.68
-28.78
-47.34
-58.03
-62.10
-61.63
-58.55
-54.10
-48.74
-42.58
-35.86
-28.91
-22.01
-14.93
-6.76
3.72
17.33
33.64
50.79
65.73
75.37
77.82
73.25
64.20
54.56
48.07
46.85
50.51
56.71
62.38
65.12
63.92
58.95
50.62
39.02
24.06
6.04
-13.64
-32.62
-48.44
-59.50
-65.48
-67.07
-65.31
-60.87
-54.13
-45.65
-36.54
-28.54
-23.46
-22.35
-25.01
-29.82
-34.27
-35.80
-32.63
-24.50
-12.95
-0.89
8.33
12.18
9.87
2.51
-7.59
-17.93
-26.38
-31.69
-33.19
-30.73
-24.64
-15.87
-5.89
3.57
11.17
16.45
19.84
22.36
24.94
27.91
30.74
32.53
32.38
29.83
25.05
18.68
11.47
4.05
-3.27
-10.29
-16.63
-21.52
-23.86
-22.67
-17.72
-9.81
-0.50
8.34
15.32
19.80
21.90
22.20
21.42
20.11
18.50
16.45
13.59
9.58
4.47
-1.07
-5.89
-8.67
-8.59
-5.70
-1.04
3.78
7.14
8.04
6.24
2.31
-2.61
-7.11
-9.76
-9.47
-5.77
0.95
9.55
18.39
25.85
30.69
32.33
30.78
26.55
20.40
13.14
5.56
-1.59
-7.49
-11.53
-13.23
-12.60
-10.17
-6.87
-3.74
-1.57
-0.66
-0.74
-1.23
-1.60
-1.64
-1.52
-1.62
-2.01
-2.26
-1.48
1.16
5.94
12.10
17.95
21.56
21.49
17.52
10.78
3.29
-3.01
-6.95
-8.47
-8.30
-7.36
-6.22
-4.88
-2.95
-0.07
3.70
7.71
10.98
12.58
12.10
9.81
6.56
3.42
1.16
0.13
0.12
0.63
1.13
1.33
1.03
0.17
-1.44
-4.00
-7.51
-11.54
-15.26
-17.88
-19.02
-19.02
-18.81
-19.31
-20.91
-23.22
-25.28
-26.07
-25.18
-22.89
-19.99
-17.38
-15.57
-14.57
-13.85
-12.49
-9.46
-3.98
4.24
14.64
25.90
36.28
44.11
48.36
48.76
45.79
40.20
32.82
24.36
15.38
6.50
-1.66
-8.45
-13.41
-16.25
-17.06
-16.20
-14.33
-12.26
-10.76
-10.37
-11.18
-13.01
-15.44
-18.20
-21.12
-24.22
-27.38
-30.11
-31.59
-30.92
-27.47
-21.33
-13.28
-4.63
3.28
9.44
13.40
15.31
15.67
15.21
14.49
13.80
13.01
11.76
9.62
6.51
2.77
-0.74
-3.06
-3.55
-2.16
0.44
3.23
5.30
6.30
6.51
6.73
7.73
9.96
13.27
17.05
20.55
23.24
25.09
26.56
28.38
31.05
34.74
39.10
43.42
46.92
49.03
49.55
48.69
47.05
45.46
44.83
45.96
49.32
55.00
62.61
71.27
79.59
85.83
88.17
85.26
76.58
62.65
44.85
24.61
2.77
-20.82
-46.93
-75.98
-106.82
-136.39
-160.25
-173.97
-174.95
-163.29
-141.62
-113.90
-83.90
-54.09
-25.70
0.60
23.80
42.22
54.13
58.64
56.53
50.17
42.72
36.75
33.40
32.10
30.99
27.86
21.06
9.94
-4.95
-22.00
-38.97
-53.41
-63.14
-66.68
-63.52
-54.17
-40.04
-23.11
-5.60
10.25
22.66
30.50
33.42
32.00
27.54
21.70
16.14
12.13
10.31
10.68
12.63
15.23
17.69
19.57
20.84
21.92
23.56
26.40
30.82
36.62
43.01
48.90
53.18
55.10
54.45
51.60
47.20
42.09
37.17
33.23
30.98
30.81
32.75
36.39
41.03
45.63
49.04
50.11
47.93
42.18
33.44
23.35
14.19
8.23
6.93
10.31
16.75
23.29
26.40
22.82
10.42
-11.17
-40.18
-72.86
-104.28
-129.60
-145.44
-150.58
-145.89
-133.48
-115.82
-95.17
-73.64
-53.52
-37.24
-26.92
-23.47
-26.00
-31.88
-37.93
-41.84
-43.26
-43.70
-45.38
-49.88
-57.08
-65.28
-72.04
-75.38
-74.64
-70.63
-65.10
-59.89
-56.25
-54.61
-54.79
-56.35
-58.95
-62.30
-65.96
-68.99
-69.90
-67.07
-59.46
-47.28
-32.09
-16.30
-2.11
9.39
18.45
26.13
33.40
40.36
46.04
48.88
47.55
41.61
31.78
19.72
7.44
-3.18
-10.90
-15.13
-15.91
-13.76
-9.50
-4.12
1.24
5.57
8.19
9.03
8.72
8.42
9.24
11.64
15.08
18.12
19.08
16.94
12.06
6.34
2.60
3.37
9.75
20.86
34.19
46.70
56.21
62.06
64.98
66.29
66.77
66.29
64.15
59.74
53.40
46.49
40.80
37.66
37.25
38.63
40.34
41.27
40.98
39.72
37.89
35.37
31.59
25.80
17.66
7.83
-2.23
-10.76
-16.53
-19.44
-20.51
-21.18
-22.56
-25.01
-28.21
-31.56
-34.78
-38.12
-42.17
-47.45
-53.80
-60.23
-65.12
-66.80
-64.19
-57.19
-46.63
-34.10
-21.48
-10.47
-2.36
2.09
2.71
-0.18
-5.60
-11.86
-16.67
-17.58
-12.75
-1.73
14.27
32.62
49.94
63.01
69.59
68.91
61.72
49.99
36.46
23.92
14.63
9.82
9.33
11.91
15.61
18.37
18.51
14.82
6.64
-6.16
-22.99
-42.29
-61.51
-77.49
-87.34
-89.42
-83.90
-72.68
-58.71
-44.86
-33.12
-24.35
-18.65
-15.72
-15.27
-16.70
-18.97
-20.49
-19.54
-15.00
-7.00
2.96
12.67
20.17
24.62
26.60
27.69
29.71
33.77
39.96
47.48
55.02
61.32
65.42
66.86
65.54
61.70
55.79
48.40
40.19
31.88
24.06
17.24
11.68
7.33
3.97
1.03
-2.12
-6.11
-11.33
-17.82
-25.19
-32.77
-39.96
-46.34
-52.00
-57.23
-62.31
-67.17
-71.32
-73.92
-74.29
-72.15
-67.71
-61.56
-54.28
-46.20
-37.59
-28.87
-20.79
-14.38
-10.62
-9.83
-11.56
-14.56
-17.29
-18.57
-17.98
-15.90
-13.27
-10.95
-9.20
-7.57
-5.07
-0.66
6.13
15.06
25.41
36.51
48.17
60.63
73.96
87.53
99.69
108.19
111.10
107.67
98.64
85.82
71.09
55.59
39.50
22.37
3.92
-15.10
-32.75
-46.22
-52.71
-50.50
-39.90
-23.36
-4.89
11.09
21.28
24.38
21.21
14.06
5.45
-2.81
-10.01
-16.25
-21.90
-27.00
-31.20
-33.88
-34.35
-32.21
-27.37
-20.05
-10.80
-0.36
10.33
20.22
28.27
33.64
35.87
35.03
31.76
27.20
22.68
19.36
17.84
17.94
18.88
19.65
19.47
18.07
15.65
12.73
9.89
7.63
6.25
5.90
6.50
7.72
9.02
9.67
9.11
7.13
3.92
0.03
-3.95
-7.63
-10.91
-13.79
-16.28
-18.24
-19.44
-19.77
-19.30
-18.29
-17.03
-15.60
-13.88
-11.73
-9.17
-6.47
-4.14
-2.57
-1.75
-1.23
-0.28
1.77
5.14
9.49
14.03
17.86
20.33
21.19
20.63
19.10
17.13
15.25
13.87
13.24
13.54
14.79
16.82
19.32
21.82
23.82
24.89
24.80
23.58
21.35
18.33
14.73
10.68
6.32
1.79
-2.73
-6.92
-10.44
-12.94
-14.14
-13.89
-12.19
-9.30
-5.83
-2.56
-0.22
0.74
0.49
-0.32
-0.79
-0.08
2.18
5.72
9.87
13.83
17.00
19.25
20.82
22.14
23.60
25.43
27.58
29.80
31.80
33.35
34.52
35.64
37.34
40.33
45.16
51.84
59.77
67.91
75.19
80.98
85.24
88.55
91.80
95.98
101.92
110.27
121.38
135.04
150.28
165.28
177.87
186.27
189.84
189.19
185.96
181.86
177.98
174.55
171.04
166.69
160.70
152.25
140.32
123.68
101.33
73.07
40.14
5.25
-28.02
-56.11
-76.46
-87.96
-91.20
-88.04
-81.51
-75.31
-73.18
-77.93
-90.07
-106.99
-123.29
-132.56
-129.63
-112.61
-83.52
-47.51
-11.20
19.02
38.19
43.41
33.86
10.92
-22.19
-61.14
-101.65
-140.40
-175.37
-205.31
-228.80
-243.52
-246.62
-235.70
-210.13
-171.34
-122.46
-67.15
-8.63
50.55
108.41
162.95
211.82
252.40
282.12
298.79
301.16
289.11
263.88
227.78
183.80
135.01
83.85
31.85
-20.49
-73.21
-126.25
-178.75
-228.76
-273.11
-308.09
-330.47
-338.69
-333.66
-318.71
-298.59
-277.88
-259.45
-243.90
-230.08
-216.39
-202.01
-187.53
-174.54
-164.60
-158.36
-155.26
-154.16
-154.20
-155.48
-158.66
-164.01
-170.16
-173.77
-170.23
-155.45
-127.94
-89.88
-46.56
-4.51
30.74
56.17
71.37
77.41
75.39
65.71
48.29
23.29
-7.99
-42.79
-77.32
-107.58
-130.08
-142.13
-141.98
-128.84
-103.48
-68.89
-30.60
3.93
27.18
34.05
24.09
2.09
-23.12
-42.29
-49.55
-44.99
-34.65
-27.26
-29.75
-44.04
-66.39
-90.00
-108.96
-121.27
-129.45
-138.28
-151.22
-168.00
-184.83
-196.60
-199.86
-194.31
-182.09
-165.50
-145.35
-120.72
-90.62
-55.97
-20.14
12.34
38.45
58.78
77.57
100.17
129.74
164.95
200.25
228.73
245.44
249.67
244.67
235.68
227.24
221.48
217.95
214.57
209.17
200.39
187.97
172.39
154.53
135.56
116.97
100.57
88.06
80.45
77.42
77.23
77.54
76.53
74.28
72.85
75.47
84.81
101.64
124.37
149.78
174.20
194.36
207.46
211.05
203.01
181.93
148.15
104.37
55.78
9.11
-29.21
-54.79
-66.41
-66.19
-58.93
-50.77
-47.73
-54.40
-73.06
-103.36
-142.33
-185.05
-225.32
-256.80
-274.41
-275.55
-260.97
-234.57
-202.29
-170.21
-142.94
-122.75
-109.64
-102.08
-97.90
-94.63
-89.48
-79.38
-61.46
-34.21
1.35
41.37
80.05
111.64
132.55
142.62
144.85
143.72
143.19
145.19
149.48
154.42
158.37
160.55
160.97
159.78
156.62
150.28
139.32
123.02
102.29
79.82
59.43
44.39
36.03
33.01
31.88
28.77
21.13
8.92
-5.57
-18.87
-28.06
-32.00
-31.59
-29.12
-26.97
-26.52
-27.71
-29.43
-30.47
-30.38
-29.57
-28.63
-27.55
-25.10
-19.38
-9.01
5.70
22.34
37.40
47.88
52.78
53.41
52.32
51.59
51.54
50.87
47.82
41.75
33.73
26.18
21.56
21.16
24.58
30.14
35.92
40.53
43.52
44.98
44.78
42.05
35.14
22.32
2.84
-22.31
-50.42
-77.93
-101.49
-118.90
-129.30
-132.80
-129.89
-121.23
-107.98
-92.28
-77.21
-66.21
-61.74
-64.39
-72.64
-83.55
-94.32
-103.38
-111.00
-118.63
-127.83
-139.43
-153.09
-167.57
-181.21
-192.43
-199.96
-202.98
-201.16
-194.74
-184.46
-171.05
-154.61
-134.02
-107.28
-72.30
-28.16
24.20
82.06
141.71
199.62
253.33
301.90
345.53
385.26
422.47
458.45
493.66
526.81
554.56
571.94
573.98
557.25
521.22
468.72
405.17
336.80
268.69
203.82
143.35
87.83
37.59
-6.74
-44.35
-74.51
-97.28
-113.99
-127.28
-140.64
-157.37
-179.91
-208.36
-239.51
-266.99
-282.89
-280.92
-260.96
-233.13
-209.44
-198.44
-202.12
-216.79
-234.66
-247.31
-248.55
-235.37
-204.55
-154.54
-87.26
-9.99
64.85
123.13
153.77
152.56
123.90
78.97
31.50
-7.43
-32.59
-44.50
-46.85
-43.64
-37.58
-30.07
-22.13
-14.99
-10.19
-8.80
-10.63
-14.05
-16.84
-17.15
-14.47
-9.69
-4.54
-0.88
0.18
-1.33
-4.21
-6.77
-7.60
-6.18
-2.97
0.84
3.95
5.52
5.44
4.38
3.41
3.56
5.47
9.25
14.54
20.80
27.56
34.46
41.26
47.70
53.41
58.04
60.88
61.32
58.93
53.49
45.12
34.15
21.21
7.16
-6.95
-20.00
-30.95
-39.07
-44.12
-46.41
-46.62
-45.62
-44.21
-42.81
-41.51
-40.08
-38.35
-36.25
-34.02
-31.95
-30.34
-29.40
-29.43
-30.53
-32.45
-34.33
-34.44
-30.47
-20.41
-3.56
18.92
43.88
67.59
87.06
101.00
109.78
114.78
117.18
117.58
116.14
112.93
108.98
105.99
105.72
108.94
115.12
122.57
129.14
134.84
139.89
145.47
153.02
163.39
176.16
189.70
201.89
211.15
217.37
221.76
226.64
234.48
247.22
266.29
292.62
326.58
367.29
411.72
453.99
486.36
501.18
493.26
461.64
409.40
342.22
266.24
186.46
106.33
28.42
-44.73
-110.34
-165.68
-208.94
-239.66
-258.72
-267.80
-268.97
-264.02
-254.44
-241.57
-226.78
-211.65
-197.84
-186.78
-179.25
-175.18
-173.57
-172.72
-170.69
-165.78
-156.85
-143.40
-125.41
-103.06
-76.50
-45.87
-11.28
27.03
68.45
111.92
155.92
198.60
237.96
272.00
298.73
316.22
322.70
316.73
297.55
265.37
221.67
169.14
111.36
52.25
-4.75
-57.35
-104.61
-146.71
-184.59
-219.35
-251.76
-282.12
-310.43
-336.81
-361.93
-387.02
-413.33
-441.66
-471.93
-502.84
-532.52
-559.00
-581.05
-598.55
-612.54
-624.78
-637.52
-653.23
-674.11
-701.10
-732.52
-763.31
-785.67
-791.30
-774.54
-734.89
-677.40
-610.81
-544.15
-483.75
-432.11
-388.61
-351.46
-319.24
-291.37
-267.40
-246.17
-225.62
-203.31
-177.58
-148.22
-116.62
-85.18
-56.35
-31.70
-11.59
4.62
18.11
29.87
40.24
48.78
54.66
57.13
56.09
52.18
46.79
41.60
38.16
37.41
39.52
43.85
49.37
54.97
59.90
64.01
67.76
72.00
77.60
85.00
93.97
103.62
112.72
120.35
126.29
131.45
137.54
146.51
159.67
177.09
197.34
217.97
236.43
251.03
261.69
270.06
279.07
292.07
311.74
338.76
370.96
403.26
428.60
440.38
435.04
414.00
383.68
353.64
333.02
327.35
336.62
355.17
373.34
380.52
368.33
333.50
279.16
213.75
148.18
91.85
49.59
20.80
1.05
-15.03
-31.13
-48.02
-64.19
-76.95
-83.71
-82.53
-72.04
-51.35
-19.99
21.77
72.35
128.27
183.99
232.10
264.43
274.24
258.07
217.15
157.01
85.78
12.11
-55.93
-111.41
-148.47
-162.87
-153.91
-126.11
-89.47
-56.70
-38.30
-37.77
-49.82
-62.69
-63.48
-43.80
-2.60
54.82
120.24
186.32
248.30
303.73
351.17
389.41
417.74
436.55
447.39
452.03
451.24
444.22
429.38
405.58
373.10
333.72
289.92
243.96
197.42
151.56
107.60
66.87
30.20
-2.84
-34.13
-66.44
-102.40
-143.10
-187.48
-232.68
-275.28
-312.65
-344.07
-370.76
-395.03
-419.26
-445.16
-473.75
-505.50
-540.24
-576.39
-610.18
-635.58
-645.61
-634.70
-600.94
-547.05
-479.42
-405.90
-333.29
-266.19
-206.85
-156.06
-113.83
-79.12
-49.39
-20.27
13.23
54.24
101.48
147.96
182.29
191.98
168.50
111.10
28.33
-63.96
-147.48
-206.97
-234.28
-229.74
-200.94
-159.71
-118.66
-87.86
-72.82
-73.72
-86.46
-104.74
-122.45
-135.35
-141.22
-139.32
-129.37
-111.27
-85.40
-53.43
-18.72
14.77
43.80
67.00
85.18
100.25
113.65
125.68
135.69
142.65
145.79
144.99
140.52
132.72
121.45
106.16
85.61
58.30
23.29
-18.42
-63.32
-105.56
-138.46
-156.56
-157.10
-141.23
-113.50
-80.05
-46.35
-15.80
10.61
33.42
53.42
71.82
89.06
104.87
119.02
132.15
145.70
161.19
179.20
199.07
221.39
245.86
271.37
296.17
318.59
337.49
352.17
362.29
367.97
374.75
386.98
405.82
429.03
453.43
477.78
503.82
535.47
576.89
637.64
720.34
817.25
911.61
984.66
1023.42
1024.21
991.78
935.87
876.64
827.99
792.73
763.84
731.69
691.25
643.25
591.95
481.85
289.54
30.68
-245.11
-486.75
-667.29
-783.86
-846.68
-869.79
-866.81
-839.34
-789.81
-724.90
-654.45
-589.83
-538.42
-503.00
-483.30
-477.88
-476.83
-472.04
-460.40
-444.28
-429.00
-419.56
-420.60
-433.66
-459.39
-490.90
-518.78
-533.45
-527.49
-497.18
-442.74
-369.28
-286.44
-206.72
-139.69
-92.09
-67.06
-63.34
-74.95
-91.74
-102.46
-98.84
-79.16
-47.84
-14.21
11.48
22.94
20.60
11.66
6.51
13.98
37.51
74.74
119.40
164.02
202.55
231.29
248.82
254.68
249.00
232.53
208.15
181.77
161.27
153.84
162.30
183.33
207.14
220.63
211.95
175.67
115.19
40.81
-34.64
-101.46
-155.49
-195.80
-220.18
-227.55
-219.60
-198.93
-167.56
-126.88
-81.65
-34.45
10.17
46.92
71.17
81.00
78.33
64.27
43.25
20.25
-0.26
-16.40
-29.22
-42.69
-62.01
-91.46
-132.78
-183.38
-237.08
-285.26
-319.94
-335.97
-332.21
-310.44
-273.38
-223.35
-161.86
-91.90
-19.40
46.46
95.65
121.12
122.35
105.81
82.33
62.77
53.29
54.18
61.49
70.81
80.53
92.63
110.91
137.84
172.27
208.69
239.66
259.07
264.62
258.33
244.59
227.21
207.16
182.63
150.74
110.09
62.53
12.64
-34.36
-75.69
-112.40
-148.07
-185.39
-222.89
-253.86
-268.86
-260.12
-225.43
-169.25
-100.12
-26.56
46.17
116.21
182.70
242.53
289.26
314.99
314.30
287.91
243.93
195.50
155.96
134.02
130.59
138.70
146.92
143.93
122.72
82.78
29.51
-28.46
-82.15
-124.91
-153.39
-166.98
-166.98
-156.13
-138.72
-120.55
-107.77
-104.39
-110.13
-119.72
-124.58
-116.82
-92.96
-55.74
-12.94
26.05
54.12
68.50
70.63
64.67
55.53
47.74
44.69
47.97
56.84
67.95
76.25
77.16
68.99
53.86
37.22
25.36
22.73
30.29
45.53
63.86
80.63
92.84
99.52
101.70
101.48
101.10
102.13
105.02
109.20
113.44
116.59
117.64
115.82
110.28
100.04
84.36
63.32
38.49
12.75
-10.42
-28.10
-38.73
-42.51
-41.13
-37.11
-32.89
-30.19
-29.79
-31.68
-35.50
-40.82
-47.43
-55.28
-64.23
-73.86
-83.46
-92.30
-100.06
-106.96
-113.87
-121.74
-131.37
-143.01
-156.33
-170.63
-185.10
-198.95
-211.51
-222.20
-230.49
-235.98
-238.46
-237.94
-234.58
-228.61
-220.24
-209.71
-197.40
-183.76
-169.87
-156.64
-144.45
-132.90
-120.93
-107.06
-90.10
-69.26
-44.42
-16.72
12.27
41.40
70.45
100.07
131.25
164.21
198.31
231.91
261.80
284.91
299.18
303.65
297.89
282.03
256.52
223.79
188.59
154.48
125.31
105.08
96.75
100.79
115.61
136.17
157.42
175.08
179.74
163.54
124.11
65.82
-2.76
-70.45
-130.86
-179.04
-211.89
-237.76
-265.31
-297.47
-330.00
-356.45
-370.91
-377.98
-384.44
-396.43
-429.79
-495.32
-591.80
-706.11
-821.21
-920.75
-1002.42
-1066.98
-1043.49
-890.64
-622.99
-306.06
-6.98
214.93
381.74
512.58
617.39
700.63
752.30
761.83
729.19
661.76
574.69
488.19
411.69
349.75
302.93
260.41
213.00
159.90
108.98
70.91
54.09
54.46
64.30
76.07
78.70
65.58
37.98
4.45
-24.13
-39.55
-43.13
-40.38
-37.44
-42.23
-59.70
-89.78
-130.32
-171.08
-201.53
-214.10
-203.85
-170.21
-119.94
-65.65
-22.14
-1.12
-5.62
-30.02
-62.10
-87.22
-94.06
-78.60
-44.61
-0.90
42.75
80.02
107.43
124.25
130.86
127.63
114.44
91.79
61.84
24.11
-17.43
-58.68
-96.60
-130.05
-159.49
-185.76
-209.14
-228.53
-241.82
-246.12
-240.26
-225.07
-203.25
-178.43
-154.00
-132.09
-113.17
-96.29
-79.37
-60.93
-40.44
-18.51
3.56
24.12
41.83
55.81
65.79
72.29
75.88
77.25
76.92
75.34
72.63
68.81
63.72
57.27
49.88
42.38
36.28
33.29
35.18
42.98
56.82
75.82
98.52
123.64
150.32
178.24
207.27
237.24
267.67
298.23
329.17
361.13
394.17
426.06
451.83
464.71
458.60
430.74
382.89
320.40
249.69
175.95
102.40
31.57
-33.34
-88.40
-130.50
-159.49
-178.95
-194.65
-211.29
-229.63
-245.66
-252.58
-244.34
-218.42
-177.08
-126.36
-73.72
-25.75
13.39
42.61
63.71
80.45
96.90
114.89
132.27
142.66
137.42
109.63
57.57
-13.06
-90.39
-159.88
-209.12
-231.16
-225.88
-199.15
-160.53
-120.92
-90.15
-75.13
-78.39
-97.60
-126.18
-155.31
-176.75
-185.19
-179.49
-162.18
-138.00
-112.18
-89.17
-72.02
-62.14
-59.28
-61.74
-66.96
-72.16
-75.10
-74.89
-72.10
-68.58
-66.74
-68.73
-75.43
-86.53
-100.34
-114.52
-126.81
-135.54
-139.94
-140.11
-136.76
-130.60
-122.30
-112.12
-100.15
-86.38
-70.81
-53.64
-35.27
-16.21
3.15
22.75
42.95
64.32
87.46
112.73
140.02
168.80
198.43
228.52
258.86
289.23
318.64
344.95
364.99
375.36
373.66
359.36
334.26
301.92
266.84
233.37
204.96
183.80
170.48
164.11
162.16
161.23
157.82
149.70
136.67
120.77
105.47
94.36
89.69
91.23
96.08
99.26
95.40
80.67
54.52
20.46
-14.89
-43.92
-60.73
-63.12
-53.09
-35.54
-15.96
1.50
15.07
24.78
31.47
35.61
37.02
35.15
29.75
21.60
12.27
3.68
-2.79
-6.93
-9.88
-13.59
-20.03
-30.33
-44.37
-60.90
-78.11
-94.55
-109.72
-124.16
-138.83
-154.13
-168.96
-180.49
-185.07
-179.61
-162.90
-136.24
-102.98
-67.43
-34.08
-7.24
9.14
12.07
1.02
-20.71
-45.09
-60.92
-57.12
-27.29
27.28
97.63
170.41
233.09
278.46
306.58
322.97
334.83
347.08
360.33
371.58
376.54
372.62
360.05
341.66
320.91
299.94
278.54
254.74
226.64
193.76
157.97
122.47
90.09
61.60
35.27
8.00
-22.52
-55.98
-89.20
-117.47
-136.91
-146.41
-147.98
-145.71
-143.77
-144.92
-149.83
-157.45
-166.05
-174.31
-181.87
-189.56
-199.10
-212.18
-229.79
-251.41
-275.11
-297.97
-317.11
-330.50
-337.17
-336.94
-329.46
-313.86
-288.89
-253.92
-209.87
-159.70
-107.69
-57.84
-12.26
29.60
70.09
111.27
152.55
189.63
215.75
224.69
214.09
186.78
149.60
110.04
73.04
39.77
8.89
-20.76
-48.19
-70.24
-83.69
-87.56
-84.06
-77.40
-70.95
-65.24
-57.53
-43.53
-19.90
13.81
55.06
99.52
143.13
183.46
219.67
251.64
278.67
298.83
309.59
309.12
297.68
277.90
254.01
229.91
207.67
187.14
167.02
146.62
127.32
112.38
105.52
108.63
120.45
136.89
152.78
163.65
167.01
162.08
148.66
126.66
95.31
53.94
3.24
-53.92
-113.02
-168.49
-215.11
-248.71
-265.39
-263.20
-242.52
-206.07
-158.40
-105.08
-50.85
1.36
51.11
101.94
157.75
220.91
291.68
367.94
445.01
516.23
572.62
603.60
601.16
559.41
476.68
357.92
214.59
62.34
-82.15
-205.23
-310.81
-396.29
-456.78
-488.69
-492.05
-467.46
-423.43
-369.20
-312.95
-260.98
-219.53
-191.40
-176.32
-170.02
-171.56
-177.63
-185.63
-196.35
-213.40
-238.38
-268.01
-301.51
-336.67
-369.99
-396.97
-412.90
-411.63
-388.74
-341.73
-272.48
-188.65
-101.36
-22.77
37.83
77.13
98.26
109.73
122.69
145.52
179.57
219.30
255.09
278.59
286.33
279.97
264.78
246.89
229.89
212.84
191.53
160.61
116.93
60.15
-8.17
-84.73
-164.57
-242.35
-314.21
-378.88
-437.96
-493.39
-536.65
-557.47
-546.78
-500.57
-422.76
-323.82
-216.75
-112.97
-18.90
61.62
130.38
187.42
231.50
261.93
280.52
291.96
295.44
294.10
289.62
279.70
259.40
225.80
180.40
128.99
79.14
37.18
7.15
-10.78
-17.38
-13.70
-0.02
23.60
56.47
96.88
141.93
188.87
234.13
274.00
303.22
317.46
314.29
293.61
257.54
209.46
153.93
95.21
37.24
-16.85
-64.37
-103.84
-135.53
-161.56
-185.40
-210.23
-238.08
-268.90
-301.13
-332.07
-359.21
-381.21
-398.10
-411.23
-422.69
-435.20
-451.34
-472.53
-497.70
-522.42
-539.68
-541.99
-524.45
-486.95
-434.58
-375.56
-318.06
-267.22
-224.06
-186.46
-151.24
-116.03
-79.90
-42.95
-5.49
32.51
71.28
110.77
150.36
189.02
225.60
259.66
291.77
323.38
355.99
389.81
423.04
451.74
470.91
476.10
465.01
438.11
398.32
349.99
297.49
244.46
193.44
146.04
103.24
65.63
33.36
6.07
-17.40
-39.12
-61.91
-88.85
-122.23
-162.31
-206.39
-249.04
-283.26
-302.89
-304.49
-288.44
-258.45
-219.83
-177.63
-135.28
-94.54
-56.21
-21.22
8.95
32.78
49.67
60.58
67.91
74.48
82.24
91.62
101.53
110.11
115.89
118.50
118.85
118.51
118.90
120.62
123.17
125.33
125.62
123.09
117.67
110.24
102.10
94.41
87.71
81.93
76.77
71.98
67.91
65.48
65.94
70.15
78.16
89.19
102.10
115.99
130.12
144.09
157.78
171.18
184.18
196.44
207.58
217.28
225.34
230.95
233.00
230.67
224.03
214.24
203.05
192.10
181.80
170.47
153.70
125.67
81.49
19.46
-58.07
-145.18
-233.78
-317.49
-386.21
-429.93
-443.00
-426.63
-387.51
-334.34
-275.06
-216.47
-161.15
-111.82
-72.60
-48.10
-42.05
-56.34
-90.92
-146.13
-217.99
-298.67
-377.41
-442.75
-485.17
-499.53
-486.39
-451.38
-402.62
-347.86
-292.63
-240.05
-191.81
-149.30
-114.07
-87.51
-70.18
-61.18
-58.37
-59.40
-62.63
-67.30
-73.30
-80.74
-89.44
-98.75
-107.55
-114.54
-118.44
-118.24
-112.80
-100.74
-80.65
-51.24
-11.66
38.90
100.12
170.84
248.94
331.51
415.15
496.44
572.40
640.80
700.79
749.98
784.02
796.89
782.93
739.45
668.78
579.15
483.10
396.32
331.66
296.75
293.32
318.29
364.95
424.33
486.18
539.20
573.70
579.52
548.59
477.81
371.64
241.29
101.85
-31.76
-161.33
-282.37
-388.46
-472.61
-529.99
-558.85
-561.15
-541.46
-505.72
-460.65
-410.33
-358.67
-308.71
-262.08
-216.97
-173.01
-131.07
-93.63
-64.28
-45.09
-38.23
-45.24
-70.34
-110.66
-160.30
-210.79
-252.43
-276.31
-276.04
-251.66
-209.89
-161.38
-116.29
-81.90
-60.16
-48.63
-43.23
-40.45
-39.37
-40.94
-45.97
-53.74
-63.07
-72.65
-81.83
-91.00
-100.72
-111.46
-123.36
-134.22
-140.54
-139.01
-127.37
-105.14
-73.92
-36.96
1.65
38.13
70.00
96.10
116.36
131.29
141.56
147.62
150.10
149.88
148.02
145.39
141.71
135.40
124.14
106.08
80.99
50.95
19.73
-8.64
-31.13
-46.67
-55.56
-58.61
-56.25
-48.70
-36.64
-21.74
-6.94
4.51
10.09
9.19
3.31
-4.60
-11.39
-15.01
-14.99
-12.55
-9.68
-8.38
-9.86
-14.20
-20.65
-27.96
-34.94
-40.78
-44.97
-47.13
-46.66
-42.67
-34.15
-20.44
-1.54
21.69
47.92
75.73
104.02
132.00
158.65
182.37
200.85
211.40
211.77
201.09
180.35
152.22
120.38
88.23
58.25
31.51
7.95
-13.00
-31.81
-48.48
-62.78
-74.28
-83.01
-89.00
-92.17
-92.22
-88.91
-82.66
-74.89
-67.87
-63.66
-63.83
-67.95
-73.47
-76.51
-73.14
-60.48
-37.52
-4.99
35.25
79.16
122.62
162.69
198.57
231.92
265.62
301.67
339.19
373.73
395.65
394.96
365.10
305.48
221.67
122.69
17.56
-87.16
-187.81
-286.01
-384.17
-483.56
-583.32
-680.78
-772.89
-857.53
-933.64
-980.12
-978.87
-918.65
-801.83
-644.68
-470.04
-298.49
-143.66
-12.04
95.23
177.02
233.83
267.80
283.00
285.11
280.12
272.88
266.44
262.32
258.65
253.01
243.66
230.42
214.72
198.92
185.06
174.37
167.32
162.36
157.82
152.55
146.48
140.43
135.68
133.00
132.18
132.33
131.44
127.46
119.07
106.45
90.09
71.68
53.31
36.89
24.37
17.27
16.53
22.50
34.58
50.91
68.76
84.69
94.94
96.84
89.32
73.21
50.68
24.44
-3.17
-30.38
-56.38
-81.56
-105.78
-128.07
-146.36
-158.39
-162.55
-158.65
-147.71
-131.75
-114.39
-98.83
-87.68
-82.53
-83.42
-88.72
-95.07
-97.92
-86.97
-58.63
-16.25
30.45
70.00
94.29
101.39
95.11
81.74
66.97
52.48
37.92
22.50
6.72
-7.64
-18.69
-25.60
-29.42
-32.24
-37.73
-48.32
-64.48
-84.53
-105.42
-123.98
-137.89
-147.26
-151.73
-152.32
-149.81
-144.16
-134.54
-119.93
-99.87
-75.06
-47.31
-18.39
9.41
34.20
54.57
69.06
76.29
75.21
66.15
51.35
35.25
22.04
14.42
13.22
16.96
23.30
30.20
37.33
42.39
45.92
48.86
51.89
55.94
61.18
67.06
72.39
75.86
76.82
76.16
75.49
76.92
83.59
97.35
117.98
143.16
169.35
193.43
213.45
228.62
239.14
247.56
256.62
268.06
281.58
294.21
300.91
295.09
271.02
217.11
132.73
29.34
-73.05
-155.42
-208.30
-233.05
-238.34
-233.02
-221.93
-204.36
-178.18
-143.24
-102.89
-62.73
-25.94
4.22
25.98
38.73
43.15
40.01
30.21
15.69
-3.00
-19.43
-28.75
-30.12
-27.14
-24.91
-27.71
-37.46
-53.46
-73.02
-92.83
-111.14
-126.78
-138.31
-144.72
-144.44
-137.12
-123.90
-106.08
-84.39
-59.42
-30.92
1.71
38.07
76.32
113.04
144.18
166.72
179.29
181.94
176.09
164.43
149.19
131.35
109.85
80.26
38.77
-17.18
-87.42
-167.87
-250.20
-321.64
-368.76
-382.70
-363.36
-318.78
-261.08
-201.00
-147.78
-100.50
-57.10
-17.15
18.07
46.79
68.05
80.57
83.82
78.42
66.95
52.48
38.20
26.39
17.24
9.11
-0.07
-11.21
-23.62
-35.44
-46.11
-56.97
-70.74
-90.09
-115.58
-144.34
-170.50
-187.55
-190.67
-179.09
-155.38
-124.05
-89.00
-51.66
-10.59
37.05
93.03
155.73
219.02
273.94
311.63
326.63
318.64
292.04
253.87
211.34
169.94
132.72
100.85
74.38
53.10
37.01
26.38
21.66
23.13
30.46
42.42
56.99
71.74
84.67
94.97
102.88
109.08
113.87
116.79
116.94
113.73
107.23
98.14
87.30
74.89
60.48
43.50
24.12
3.62
-16.18
-34.01
-50.01
-65.77
-83.57
-104.72
-128.66
-152.83
-173.85
-188.76
-195.81
-194.08
-182.68
-160.53
-126.59
-81.34
-27.99
27.49
77.74
116.33
139.80
148.38
144.92
133.44
117.37
98.90
79.35
59.70
41.14
24.93
11.98
2.68
-3.18
-6.19
-7.02
-6.20
-4.08
-0.74
3.98
10.46
18.85
28.89
39.49
48.98
55.74
58.73
57.90
54.12
48.68
42.53
36.07
29.11
21.22
12.21
2.29
-8.05
-18.22
-27.71
-36.23
-43.57
-49.45
-53.53
-55.29
-54.22
-49.96
-42.37
-31.77
-18.92
-4.88
9.04
21.71
32.49
41.33
48.78
55.69
62.65
69.69
76.19
80.91
82.20
78.53
69.04
54.15
36.18
19.31
8.79
9.39
23.59
50.26
84.94
120.93
151.44
171.55
179.40
176.18
165.22
150.59
135.65
122.33
110.57
98.63
83.97
64.33
38.70
7.99
-25.41
-58.66
-89.55
-117.35
-143.16
-169.13
-197.25
-227.77
-258.10
-283.25
-297.03
-294.64
-274.42
-239.08
-195.34
-152.43
-119.29
-101.40
-98.83
-106.20
-115.40
-119.56
-116.64
-110.44
-108.72
-119.21
-146.04
-188.82
-243.71
-305.68
-370.10
-432.04
-485.03
-521.15
-533.23
-518.09
-479.17
-425.58
-368.45
-316.24
-271.75
-232.61
-193.72
-150.96
-102.87
-50.58
3.70
58.28
112.47
166.12
218.48
267.81
311.30
346.34
371.33
386.33
393.01
394.04
392.78
392.68
396.84
407.26
423.91
443.96
461.90
471.03
465.43
442.31
402.94
352.19
296.42
241.20
189.57
141.73
96.06
50.54
4.19
-42.47
-87.80
-129.73
-166.29
-196.04
-218.26
-232.97
-241.13
-244.77
-246.96
-251.30
-260.45
-274.72
-291.19
-304.57
-309.31
-302.22
-284.00
-258.76
-232.01
-207.97
-188.16
-171.61
-156.62
-142.34
-129.58
-119.91
-114.11
-111.10
-107.87
-100.46
-85.21
-59.91
-24.91
16.14
56.56
87.90
102.43
96.00
70.09
31.71
-8.47
-39.79
-55.03
-52.14
-33.97
-6.26
24.79
54.39
79.75
99.74
114.25
123.66
128.78
130.89
131.74
133.40
137.62
145.20
155.63
167.13
177.22
183.66
185.33
182.60
177.05
170.76
165.53
162.24
160.80
160.30
159.72
158.30
156.01
153.51
151.72
151.54
153.50
157.64
163.47
170.17
176.76
182.29
186.08
187.51
186.29
182.37
176.13
168.31
159.77
151.19
142.63
133.32
121.29
104.28
80.93
51.86
19.73
-11.86
-39.79
-62.41
-79.71
-93.38
-105.25
-116.58
-127.94
-139.74
-152.56
-166.54
-180.00
-188.75
-188.49
-176.18
-152.02
-119.66
-84.83
-53.26
-29.20
-14.54
-9.52
-16.06
-37.61
-78.10
-139.49
-219.95
-313.67
-413.25
-511.24
-589.52
-630.86
-623.77
-568.54
-477.39
-368.18
-256.44
-152.75
-61.96
15.45
79.61
131.17
171.29
201.95
225.71
246.71
265.97
282.02
292.02
291.55
277.37
249.54
212.76
172.44
138.76
117.76
108.68
105.24
98.60
82.33
55.24
21.34
-12.72
-41.03
-61.72
-76.55
-87.12
-94.11
-96.93
-94.48
-85.94
-71.02
-49.90
-23.95
5.19
35.72
64.88
88.74
103.27
105.99
97.52
82.00
65.24
52.89
47.61
50.04
58.26
69.10
79.75
88.74
95.79
100.91
103.86
104.21
101.83
97.05
90.55
83.17
75.27
66.35
55.30
40.91
22.67
1.04
-23.28
-49.79
-78.55
-109.54
-141.77
-172.28
-196.35
-208.87
-206.27
-188.31
-158.12
-120.73
-80.99
-42.07
-5.22
29.07
59.89
85.51
103.77
112.94
112.23
101.56
81.02
50.61
10.46
-38.45
-93.54
-150.71
-204.73
-250.17
-282.17
-296.90
-291.79
-265.96
-220.84
-160.72
-92.81
-26.19
30.36
70.75
93.13
100.23
97.63
91.45
85.94
82.55
80.48
78.25
75.05
71.26
68.13
66.70
67.13
68.56
69.69
69.53
67.82
64.94
61.56
58.27
55.36
52.85
50.63
48.58
46.83
45.81
46.14
48.54
53.72
62.06
73.21
85.81
97.45
105.26
106.87
101.31
89.43
73.49
56.31
40.38
27.49
18.82
15.38
17.97
26.81
40.64
56.51
70.12
77.27
75.45
64.80
48.22
30.24
15.52
7.24
6.22
10.89
18.31
25.49
30.60
33.40
34.88
36.37
38.61
41.32
43.40
43.68
41.44
36.58
29.07
18.42
3.39
-17.75
-46.53
-83.52
-127.74
-176.57
-225.94
-270.90
-306.55
-328.95
-336.00
-327.87
-306.83
-276.46
-240.65
-202.63
-164.36
-126.60
-89.13
-51.21
-12.21
27.82
67.70
104.99
136.37
158.54
169.20
167.73
155.10
133.39
105.08
72.65
38.66
5.94
-22.31
-43.03
-54.27
-55.88
-49.78
-39.07
-26.79
-14.78
-3.38
8.14
20.56
33.94
47.50
60.15
71.21
80.91
90.33
100.73
112.93
126.76
141.03
153.89
163.27
167.36
165.03
156.10
141.37
122.52
101.80
81.44
63.44
48.98
38.30
30.65
24.51
18.20
10.61
1.50
-8.35
-17.62
-25.21
-30.81
-35.13
-39.62
-45.98
-55.77
-70.37
-90.52
-115.83
-144.13
-171.40
-192.54
-203.10
-201.31
-188.98
-170.79
-151.85
-135.20
-120.59
-105.42
-86.77
-63.82
-38.44
-14.04
6.51
22.62
35.95
48.72
61.81
73.63
80.38
77.66
62.13
32.34
-11.00
-65.29
-126.11
-186.94
-239.75
-276.57
-291.65
-283.36
-254.75
-212.26
-163.07
-112.91
-65.00
-20.61
19.88
56.37
89.35
119.97
149.82
179.98
209.71
236.26
255.80
265.33
264.44
255.90
244.60
235.77
233.27
238.69
251.65
270.65
293.78
319.47
346.50
373.89
400.96
427.43
453.35
478.85
503.28
524.20
536.89
534.83
511.42
462.25
387.09
290.21
179.26
62.85
-51.52
-158.75
-256.12
-342.35
-416.96
-480.24
-533.83
-580.68
-624.11
-665.59
-703.04
-730.53
-739.98
-724.35
-680.71
-611.76
-524.76
-429.36
-335.25
-250.69
-182.58
-136.88
-118.06
-127.62
-162.38
-213.88
-270.23
-319.53
-353.40
-368.86
-368.02
-356.12
-338.67
-319.40
-299.61
-278.51
-254.49
-226.31
-193.69
-157.36
-118.83
-79.57
-40.47
-1.77
36.78
75.29
113.15
149.16
182.39
213.16
243.18
274.78
309.27
345.49
379.78
407.02
422.65
424.43
412.82
390.26
359.56
322.68
280.50
233.77
183.93
133.50
85.05
39.83
-2.68
-44.09
-85.17
-124.10
-156.32
-176.31
-180.59
-170.14
-150.36
-128.60
-110.50
-97.31
-85.32
-68.21
-40.49
-0.18
50.48
106.21
161.19
211.12
253.65
288.33
315.47
335.25
347.48
352.10
349.95
343.23
334.79
326.47
317.29
302.47
274.57
226.25
153.48
58.13
-51.53
-162.50
-260.51
-333.80
-376.07
-387.44
-373.36
-342.16
-301.88
-258.11
-213.58
-169.34
-126.71
-89.24
-62.40
-51.42
-58.79
-82.31
-115.43
-149.30
-175.78
-189.38
-188.09
-172.61
-144.94
-107.43
-62.51
-12.96
37.68
85.24
125.65
156.07
175.79
186.62
192.13
196.34
202.09
210.05
218.54
224.35
224.12
215.74
198.99
175.44
147.83
119.11
91.77
67.48
46.96
30.17
16.61
5.53
-3.81
-11.99
-19.24
-25.19
-28.76
-28.29
-21.96
-8.56
11.79
37.26
64.51
89.48
108.43
118.86
120.00
112.74
99.05
81.49
62.57
44.55
29.22
17.87
11.07
8.69
10.02
13.86
18.85
23.90
28.52
32.81
37.39
42.75
49.03
55.58
61.23
64.66
65.01
62.29
57.29
51.32
45.60
40.76
36.74
32.98
28.90
24.26
19.39
15.05
12.09
11.13
12.09
14.19
16.04
16.00
12.36
3.69
-10.79
-30.90
-55.03
-80.10
-102.15
-117.80
-125.82
-128.10
-128.77
-132.09
-139.90
-150.54
-159.90
-163.85
-161.10
-153.77
-146.49
-144.01
-149.43
-163.88
-187.33
-219.41
-258.92
-302.99
-345.95
-380.03
-397.50
-393.12
-365.76
-318.08
-255.03
-182.13
-104.42
-26.23
48.53
116.53
175.85
226.42
269.90
308.24
342.03
369.36
386.30
388.26
371.84
336.29
283.79
219.40
150.11
83.82
28.05
-11.25
-31.13
-32.26
-18.50
4.09
28.96
50.49
64.83
70.06
66.12
54.47
37.88
19.90
3.99
-7.26
-12.80
-13.24
-10.40
-6.65
-4.27
-4.82
-8.72
-15.38
-23.20
-30.11
-34.02
-33.38
-27.58
-17.00
-2.86
13.21
29.67
45.55
60.56
74.77
87.87
98.68
105.11
104.78
96.16
79.56
57.35
33.11
10.18
-9.78
-27.13
-43.39
-59.85
-76.39
-91.43
-102.89
-109.73
-112.62
-113.68
-115.43
-119.43
-125.91
-133.94
-142.47
-151.11
-160.22
-170.03
-179.56
-185.86
-184.19
-169.36
-137.42
-87.32
-21.49
54.81
135.15
213.46
285.17
347.29
397.71
434.77
456.94
463.30
454.19
431.53
398.48
358.70
315.23
269.41
220.94
168.27
109.98
45.96
-22.05
-90.77
-156.25
-215.59
-268.33
-316.46
-363.02
-409.51
-453.68
-489.11
-507.35
-501.29
-468.18
-410.80
-336.08
-252.90
-170.12
-96.11
-39.04
-6.64
-4.44
-32.99
-85.95
-150.57
-211.19
-254.10
-271.55
-262.98
-233.22
-189.35
-137.86
-83.45
-29.25
22.31
68.85
108.27
139.07
160.94
174.79
182.05
184.03
181.44
174.59
163.72
149.70
133.91
118.23
104.23
92.84
84.22
78.20
74.63
73.50
74.80
78.08
82.34
86.19
88.49
88.82
87.62
85.80
84.20
83.12
82.22
80.79
78.33
74.84
70.90
67.33
64.86
63.73
63.94
65.52
69.15
75.96
87.08
102.87
122.22
142.39
159.39
169.14
168.41
156.01
132.60
100.48
62.88
23.50
-14.04
-46.68
-71.94
-88.17
-94.18
-90.17
-77.46
-58.16
-34.47
-8.35
17.99
42.27
62.26
77.11
86.24
89.63
87.79
82.07
74.12
64.27
52.25
38.16
25.34
17.28
16.87
25.18
41.98
65.65
91.71
114.47
128.40
132.46
125.95
109.04
82.75
50.09
14.39
-25.27
-73.33
-135.87
-213.07
-302.91
-400.29
-498.37
-588.45
-648.43
-658.77
-608.64
-525.22
-426.59
-324.72
-219.58
-117.23
-26.07
44.91
85.91
90.29
57.46
-1.81
-73.06
-141.27
-195.28
-228.39
-238.95
-230.95
-210.59
-183.55
-150.56
-112.49
-71.42
-30.82
6.45
39.51
68.64
95.66
122.81
153.63
188.64
224.76
256.04
272.74
266.18
232.90
179.04
119.05
70.51
44.81
43.11
58.26
80.30
101.47
118.75
133.47
149.25
169.98
197.14
222.70
239.17
239.01
217.51
175.09
117.28
52.54
-10.94
-68.07
-117.37
-158.24
-191.10
-215.15
-227.81
-226.77
-212.05
-186.46
-155.07
-123.69
-95.69
-72.44
-52.88
-34.38
-14.14
7.92
31.02
53.86
75.32
95.20
113.41
129.56
142.64
151.14
153.76
150.37
142.05
130.64
118.07
105.33
92.46
78.81
63.69
46.82
28.65
9.99
-8.29
-25.28
-40.26
-52.53
-61.45
-66.60
-67.73
-64.66
-57.42
-46.30
-31.98
-15.54
1.51
17.47
30.70
39.94
44.60
44.83
41.51
35.86
29.24
22.88
17.60
14.03
12.53
13.24
15.97
20.13
24.79
28.97
32.03
33.71
34.16
33.63
32.09
29.04
23.68
15.33
3.82
-10.40
-26.42
-43.24
-59.98
-76.14
-91.22
-104.59
-115.36
-122.54
-125.38
-123.74
-118.15
-109.60
-99.24
-88.01
-76.69
-65.89
-55.99
-46.73
-37.07
-25.19
-9.23
11.69
36.75
63.21
87.24
105.10
114.29
114.01
105.21
90.20
72.40
56.13
46.09
46.48
59.94
86.69
124.08
167.30
210.37
247.62
274.71
289.50
292.13
284.65
270.26
251.95
231.75
210.13
186.13
158.01
123.86
82.50
33.74
-21.28
-80.38
-140.58
-198.77
-252.60
-300.93
-344.07
-382.93
-417.73
-446.94
-467.27
-474.91
-467.29
-444.53
-409.37
-365.95
-317.86
-266.57
-211.37
-151.01
-85.89
-19.24
43.39
96.43
136.59
164.08
181.90
193.69
201.64
205.36
202.59
190.84
169.29
139.57
105.43
71.22
40.49
15.04
-4.96
-20.39
-32.37
-41.50
-47.67
-50.43
-49.71
-46.19
-41.35
-36.63
-32.73
-29.14
-24.24
-15.99
-3.06
14.53
35.30
56.69
75.96
90.93
100.48
104.64
104.33
100.91
95.82
90.30
85.15
80.83
77.38
74.68
72.56
70.86
69.33
67.71
65.57
62.38
57.60
50.71
41.37
29.57
15.64
0.25
-15.58
-30.67
-43.87
-54.18
-61.05
-64.27
-63.98
-60.56
-54.80
-47.92
-41.53
-37.33
-36.41
-38.55
-42.01
-43.74
-40.27
-28.80
-8.21
20.49
54.48
89.81
122.62
150.04
170.76
185.06
194.22
199.62
201.80
199.57
189.95
168.82
132.56
79.75
12.43
-63.71
-140.48
-208.93
-261.41
-292.93
-302.11
-291.13
-265.16
-230.96
-195.28
-163.03
-135.95
-112.68
-89.85
-64.22
-34.57
-2.52
28.36
54.11
72.22
82.49
86.81
88.21
89.51
92.15
95.89
98.99
99.11
94.12
82.97
65.84
44.27
20.67
-1.93
-20.45
-32.44
-37.00
-35.57
-31.89
-30.71
-35.78
-47.81
-63.71
-77.56
-82.85
-75.04
-53.39
-21.24
15.34
49.35
74.94
88.43
88.45
75.34
50.28
14.66
-30.01
-81.61
-136.99
-191.81
-241.31
-281.52
-310.23
-327.19
-333.13
-328.51
-312.99
-285.74
-246.39
-196.14
-138.07
-76.76
-17.36
35.34
77.87
108.48
127.35
136.65
139.98
141.22
143.48
148.00
154.14
160.14
164.29
165.81
165.00
162.69
159.37
154.93
148.44
138.67
124.61
105.80
82.59
56.03
27.61
-1.08
-28.41
-52.81
-72.81
-87.07
-94.73
-95.69
-90.81
-81.86
-71.01
-60.09
-50.11
-41.09
-32.27
-22.77
-12.04
-0.17
12.32
24.53
35.57
44.74
51.54
55.75
57.41
56.86
54.78
52.20
50.21
49.69
50.99
53.75
57.20
60.46
62.95
64.69
66.17
67.93
70.14
72.28
73.23
71.85
67.27
59.47
49.23
37.95
27.12
17.70
9.77
2.37
-5.76
-15.67
-27.37
-39.59
-50.17
-56.88
-58.28
-54.18
-45.73
-34.72
-23.03
-12.29
-3.53
2.72
6.42
8.18
9.24
11.16
15.35
22.25
30.87
38.93
43.49
42.05
33.59
18.91
0.28
-19.23
-36.80
-50.46
-59.30
-63.32
-63.08
-59.39
-53.15
-45.35
-36.98
-28.92
-21.93
-16.47
-12.70
-10.45
-9.27
-8.61
-8.01
-7.24
-6.35
-5.69
-5.53
-6.03
-6.92
-7.67
-7.69
-6.57
-4.27
-1.04
2.64
6.33
9.68
12.60
15.26
17.92
20.91
24.43
28.74
33.87
39.67
46.00
52.86
60.37
68.66
77.56
86.59
95.36
103.34
110.09
115.43
119.64
123.41
127.66
133.31
140.92
151.06
163.40
176.69
189.07
198.73
204.56
206.34
204.60
200.17
194.48
188.18
180.47
168.97
150.02
119.79
75.74
17.77
-54.61
-135.17
-212.88
-275.50
-314.51
-328.27
-321.27
-300.53
-272.46
-241.50
-209.72
-178.86
-151.10
-128.51
-112.30
-102.10
-96.06
-91.62
-86.66
-79.68
-70.70
-61.13
-52.81
-47.02
-43.88
-42.35
-40.93
-38.43
-34.25
-28.90
-23.68
-19.87
-18.16
-18.15
-18.68
-18.47
-16.81
-13.80
-10.46
-8.12
-7.71
-9.24
-11.69
-13.54
-13.55
-11.54
-8.22
-5.06
-3.34
-3.67
-5.81
-8.99
-12.36
-14.93
-15.13
-11.00
-0.61
16.52
38.37
60.84
79.48
91.51
97.35
100.16
104.19
110.98
118.97
124.04
121.54
108.92
87.12
59.96
32.17
7.52
-12.48
-28.06
-40.15
-49.53
-56.17
-59.62
-59.89
-58.11
-56.26
-56.22
-58.59
-62.18
-64.42
-62.83
-56.12
-44.98
-32.06
-20.77
-13.67
-11.55
-12.92
-14.83
-14.17
-8.95
0.90
13.68
26.69
37.04
42.24
41.41
35.74
28.95
26.78
35.43
59.09
97.68
145.49
191.92
225.60
238.28
227.94
199.36
161.71
124.87
96.10
78.58
71.09
70.95
75.48
82.74
91.44
100.13
106.71
108.09
105.58
99.15
89.67
78.56
67.56
57.91
50.05
43.53
37.15
29.79
20.03
7.46
-7.44
-23.68
-40.51
-57.74
-75.47
-93.04
-108.33
-118.26
-119.43
-110.22
-92.15
-69.76
-48.88
-34.08
-26.87
-25.58
-27.24
-29.13
-30.13
-30.77
-32.05
-34.36
-36.95
-38.37
-37.12
-32.51
-24.28
-12.45
2.95
22.19
45.65
73.53
105.24
139.17
172.31
200.82
220.70
229.05
224.87
209.39
185.78
157.66
128.17
98.76
69.20
38.04
3.60
-35.23
-78.70
-126.15
-176.36
-227.39
-276.86
-321.94
-359.92
-388.64
-406.92
-414.69
-412.49
-401.06
-381.04
-353.12
-318.55
-279.39
-238.44
-198.69
-162.56
-131.32
-105.07
-83.01
-63.84
-46.39
-29.76
-13.56
2.10
16.71
29.60
40.11
47.72
52.32
54.15
53.87
52.23
49.97
47.49
44.84
41.67
37.65
32.63
27.00
21.55
17.28
14.89
14.65
16.26
19.08
22.34
25.33
27.44
28.24
27.43
24.75
20.34
14.70
8.50
2.58
-2.41
-6.16
-8.65
-10.10
-10.91
-11.39
-11.95
-12.85
-14.33
-16.46
-19.18
-22.26
-25.30
-27.85
-29.38
-29.41
-27.42
-22.93
-15.79
-6.28
4.77
16.08
26.35
34.51
40.00
42.72
42.93
40.95
37.14
32.00
26.17
20.40
15.40
11.58
9.01
7.40
6.24
5.04
3.36
0.87
-2.66
-7.18
-13.01
-20.09
-27.93
-35.81
-43.21
-50.10
-56.80
-63.53
-70.11
-76.38
-81.71
-85.14
-85.75
-83.25
-77.95
-70.55
-61.50
-50.60
-38.18
-23.69
-5.83
16.61
43.52
72.89
101.72
127.28
148.40
162.75
170.98
177.30
187.86
207.86
239.24
280.24
326.18
369.97
396.40
393.43
357.71
295.69
219.51
141.55
71.20
13.49
-31.12
-77.24
-137.69
-216.62
-309.02
-406.83
-504.47
-599.14
-688.77
-770.80
-856.58
-953.04
-1057.31
-1158.10
-1244.50
-1312.68
-1365.80
-1410.39
-1360.77
-1174.65
-870.50
-516.73
-179.96
105.79
332.65
503.46
624.02
702.08
733.20
719.26
671.94
609.62
548.47
496.06
453.57
419.92
394.62
366.55
328.27
280.27
228.56
183.05
149.74
130.77
125.81
133.56
144.67
150.99
149.06
140.44
128.65
115.63
102.10
88.28
74.87
59.17
39.40
16.34
-6.57
-24.70
-34.22
-31.82
-17.56
8.48
44.01
85.94
131.24
177.41
222.27
263.75
300.54
332.26
359.97
384.77
406.51
422.79
428.95
419.42
390.26
341.54
278.17
209.07
144.19
91.50
55.20
35.34
28.83
31.29
38.15
45.21
49.10
47.61
40.30
29.16
17.39
8.28
4.03
4.58
7.09
7.10
0.24
-15.91
-40.71
-72.03
-106.80
-141.31
-171.48
-193.92
-206.38
-207.68
-197.22
-174.05
-138.49
-92.21
-37.57
22.49
84.26
144.02
199.53
250.51
297.65
337.44
360.68
355.56
312.96
231.22
118.37
-9.31
-137.62
-242.76
-304.21
-317.06
-293.21
-250.31
-201.88
-154.61
-110.34
-69.44
-32.39
-1.13
21.91
36.54
46.11
55.57
68.46
86.00
108.94
133.11
153.00
163.26
161.13
147.25
124.79
97.75
69.88
44.35
22.77
5.65
-7.80
-18.74
-28.48
-38.88
-52.57
-72.96
-96.91
-122.25
-146.30
-167.57
-185.41
-199.92
-211.51
-219.96
-224.92
-226.06
-224.88
-222.77
-220.50
-216.43
-206.56
-186.51
-154.55
-113.77
-71.51
-37.17
-16.80
-10.76
-14.06
-20.66
-27.03
-33.93
-44.94
-62.91
-87.67
-114.79
-139.49
-155.80
-160.89
-154.83
-139.18
-115.77
-85.93
-51.31
-14.21
22.00
52.95
73.76
80.40
70.94
46.11
9.00
-35.86
-83.60
-130.17
-172.77
-210.31
-242.64
-270.15
-292.87
-310.28
-321.61
-325.85
-322.26
-310.11
-288.62
-258.29
-220.19
-175.66
-126.44
-74.83
-23.49
24.73
67.22
102.10
128.91
147.73
160.06
167.89
173.12
177.10
180.47
183.39
185.87
189.29
193.07
198.16
205.39
215.01
226.48
238.68
250.24
260.19
270.65
279.44
287.65
296.63
307.71
321.74
338.62
356.75
372.85
386.34
388.54
377.06
352.78
320.08
285.73
256.96
239.69
237.30
255.53
287.38
330.27
380.96
435.62
489.48
536.81
571.22
554.32
522.58
467.97
392.30
300.89
201.38
101.96
9.58
-71.11
-137.88
-185.19
-219.17
-240.71
-250.98
-251.57
-244.67
-232.83
-218.50
-203.43
-184.36
-165.36
-145.83
-125.42
-104.53
-84.15
-65.42
-49.00
-34.83
-19.65
-5.17
9.29
23.72
37.21
48.07
53.99
52.64
42.18
23.29
-3.91
-35.93
-67.74
-94.11
-110.92
-116.34
-110.81
-96.61
-76.30
-53.42
-30.77
-11.13
2.43
6.72
-1.14
-22.72
-57.53
-102.95
-154.75
-208.20
-259.30
-305.70
-346.91
-383.88
-418.57
-453.43
-490.92
-532.68
-578.45
-625.05
-666.30
-694.35
-702.22
-686.55
-648.87
-595.07
-532.99
-469.77
-410.03
-355.79
-307.23
-264.12
-226.24
-193.21
-164.04
-136.93
-109.94
-82.11
-53.95
-27.08
-3.27
16.72
33.92
50.74
70.12
94.14
123.05
154.82
186.08
213.45
234.56
249.07
258.57
266.24
275.43
287.67
300.88
308.93
303.34
275.39
219.71
137.18
36.37
-67.92
-158.36
-219.83
-243.19
-225.89
-172.78
-93.69
-0.34
96.84
189.95
273.54
343.84
398.31
437.62
463.51
479.25
488.47
495.15
502.89
514.27
530.41
550.43
573.44
594.75
606.74
599.73
566.71
506.51
424.54
331.12
221.86
101.76
-18.71
-125.66
-208.85
-263.64
-290.76
-294.33
-279.98
-253.77
-219.04
-179.39
-134.79
-89.56
-48.48
-16.01
4.20
9.04
-3.94
-33.62
-83.03
-143.96
-204.73
-253.84
-284.62
-297.30
-298.08
-295.58
-295.38
-300.63
-308.42
-316.00
-321.26
-323.24
-321.24
-313.95
-298.96
-272.76
-232.76
-178.20
-112.89
-43.16
23.18
78.93
120.20
147.52
165.07
178.23
191.86
207.38
223.63
238.12
249.12
256.44
261.20
264.48
266.40
266.07
261.44
250.67
232.91
208.94
180.79
150.86
120.98
91.95
63.89
36.51
9.98
-14.99
-36.93
-54.30
-65.98
-71.73
-72.12
-68.15
-60.97
-51.48
-40.46
-28.52
-16.42
-5.10
4.42
11.30
15.20
16.36
15.53
13.73
11.97
10.92
10.81
11.58
12.99
14.91
17.33
20.46
24.45
29.29
34.71
40.18
45.30
49.74
53.52
56.88
60.21
63.73
67.42
71.01
73.89
75.29
74.25
69.76
61.04
47.78
30.33
9.61
-13.07
-36.51
-59.81
-82.54
-104.64
-126.07
-146.63
-165.72
-182.33
-195.08
-202.46
-203.04
-196.00
-181.45
-160.62
-135.88
-110.27
-86.96
-68.57
-56.84
-52.26
-54.11
-60.57
-68.96
-76.40
-80.63
-80.75
-77.52
-73.27
-70.83
-72.15
-76.92
-82.05
-82.17
-71.25
-44.83
-2.11
52.97
112.90
168.89
214.34
246.91
268.57
283.85
296.94
309.72
321.23
328.22
326.45
311.56
279.72
228.21
156.39
66.77
-34.13
-136.51
-229.40
-303.28
-352.59
-375.84
-374.56
-351.74
-310.95
-256.23
-192.73
-127.36
-68.02
-22.30
4.06
8.25
-9.01
-44.27
-92.28
-146.95
-203.13
-256.77
-305.28
-347.50
-382.91
-410.47
-427.74
-431.04
-416.86
-385.67
-341.76
-291.98
-243.12
-199.29
-160.88
-124.94
-87.05
-43.47
4.36
52.38
96.64
135.74
171.55
207.32
244.61
281.39
311.18
319.94
293.35
223.27
111.85
-28.65
-180.31
-325.76
-451.94
-533.06
-551.40
-501.28
-393.24
-250.19
-96.77
48.73
175.78
277.08
358.19
420.71
464.11
488.09
493.82
483.79
460.35
420.95
365.15
295.99
216.78
133.87
55.36
-11.51
-63.09
-100.45
-128.45
-151.90
-172.93
-192.98
-211.51
-227.37
-239.82
-248.88
-254.70
-257.06
-254.38
-244.29
-225.98
-199.37
-164.74
-122.46
-72.91
-17.31
41.57
99.43
151.01
191.09
216.74
228.41
229.63
225.39
220.13
216.55
215.45
216.41
218.41
220.56
222.05
222.14
220.01
214.99
207.07
196.81
185.14
172.86
160.36
147.41
133.80
119.38
104.28
89.45
76.10
65.30
57.26
51.35
46.01
40.17
33.11
24.46
15.50
7.91
3.02
0.90
0.37
-0.98
-3.88
-8.22
-13.41
-16.98
-16.61
-11.14
-1.57
9.83
19.67
27.91
36.19
46.92
65.18
96.21
144.09
209.53
289.92
378.45
468.87
553.75
610.89
620.64
573.52
477.13
351.05
226.79
113.06
12.37
-74.01
-145.34
-197.25
-226.67
-234.89
-230.85
-226.91
-235.71
-261.77
-302.37
-350.47
-396.30
-432.29
-455.19
-469.26
-481.64
-499.90
-526.11
-558.12
-592.23
-623.61
-648.55
-647.73
-608.79
-528.33
-414.82
-282.67
-146.00
-14.89
106.42
216.82
315.91
399.80
465.90
512.04
537.29
542.70
530.02
501.69
460.14
407.49
343.36
267.20
178.42
78.04
-29.28
-138.07
-242.54
-336.34
-412.09
-463.23
-484.79
-475.60
-439.49
-384.73
-322.32
-262.29
-210.94
-169.82
-137.33
-110.90
-88.85
-70.60
-55.79
-43.78
-33.14
-22.36
-10.83
0.82
11.25
19.55
26.45
33.84
42.91
52.42
58.17
54.16
35.85
2.19
-43.64
-95.72
-147.77
-195.05
-234.23
-261.98
-274.38
-267.41
-239.27
-192.47
-134.17
-74.05
-20.64
21.79
54.02
80.35
106.14
135.16
168.86
206.82
247.91
290.92
334.30
375.28
409.76
432.95
441.02
432.92
411.26
381.29
349.18
319.45
293.84
271.76
251.85
233.53
217.55
205.69
199.57
199.92
205.93
215.35
225.35
233.51
238.44
240.15
239.70
238.71
238.76
240.42
242.69
243.40
240.12
230.87
214.29
189.47
155.93
113.70
62.94
3.76
-63.39
-137.02
-214.27
-291.26
-364.09
-429.41
-482.19
-515.06
-522.03
-502.35
-461.30
-406.85
-346.18
-284.44
-225.18
-171.00
-124.40
-87.62
-61.71
-45.73
-36.70
-30.55
-23.56
-13.55
0.25
17.02
35.13
53.36
71.43
90.05
111.37
134.46
156.30
172.98
180.41
175.66
157.56
126.65
84.96
33.74
-20.65
-71.04
-110.09
-132.25
-135.00
-120.20
-93.95
-64.10
-37.98
-20.38
-13.37
-16.30
-27.60
-44.92
-65.56
-87.45
-108.19
-125.59
-137.48
-144.21
-145.69
-143.99
-142.55
-144.47
-150.39
-156.17
-153.59
-133.93
-93.71
-36.65
22.02
65.29
82.42
73.85
50.30
26.25
12.50
11.84
19.91
29.50
36.33
40.48
45.10
53.15
64.63
76.40
84.45
85.86
80.39
71.12
62.85
60.26
65.83
79.06
96.51
113.80
126.94
133.50
134.47
131.12
125.57
119.05
111.33
100.68
85.25
64.02
37.68
9.60
-16.03
-35.03
-45.24
-47.04
-43.73
-39.83
-39.44
-45.50
-57.86
-76.85
-101.66
-130.34
-159.07
-182.59
-195.39
-194.83
-185.28
-172.90
-167.09
-174.63
-195.71
-223.05
-245.05
-250.88
-233.17
-196.00
-147.37
-96.43
-49.18
-7.83
27.51
56.36
77.18
88.05
88.49
82.79
78.06
81.75
98.21
126.70
159.77
187.80
202.53
200.01
182.81
157.17
130.20
106.75
88.51
74.59
63.61
54.36
46.13
38.71
31.26
22.35
10.22
-6.68
-28.91
-55.59
-84.94
-114.69
-141.92
-164.10
-179.10
-185.29
-181.56
-167.24
-142.40
-108.68
-69.97
-30.92
3.19
27.93
40.71
40.69
29.17
9.68
-14.26
-41.18
-69.92
-100.53
-132.04
-162.28
-188.82
-208.33
-216.00
-208.99
-188.18
-154.63
-111.91
-65.68
-20.74
18.63
65.98
134.17
232.15
349.37
473.73
592.08
693.42
770.36
818.20
798.25
695.93
526.75
325.67
127.55
-47.13
-190.80
-297.86
-378.59
-438.52
-476.45
-492.55
-491.56
-480.18
-463.66
-445.74
-427.82
-410.57
-392.13
-367.86
-335.84
-298.52
-260.36
-226.03
-198.42
-178.11
-164.66
-155.57
-146.42
-134.71
-120.89
-106.83
-94.48
-84.67
-76.82
-69.89
-61.87
-50.28
-34.18
-14.39
7.31
29.22
50.50
71.27
91.96
113.29
135.89
159.44
182.83
204.73
224.27
241.41
256.96
272.25
288.94
308.34
330.92
355.66
379.81
399.20
409.16
406.04
388.56
358.35
319.49
277.34
236.84
201.32
171.96
148.22
128.51
111.05
94.36
77.34
59.34
40.09
19.88
-0.64
-20.15
-37.03
-49.66
-56.95
-58.81
-56.28
-51.31
-46.09
-42.57
-41.66
-43.15
-45.83
-48.01
-48.15
-45.55
-40.79
-35.39
-31.27
-29.72
-30.68
-32.69
-33.34
-30.41
-22.75
-10.84
3.50
17.94
30.36
39.26
43.51
42.16
34.03
18.27
-5.02
-33.96
-64.68
-92.03
-110.75
-117.20
-110.27
-92.05
-67.00
-40.75
-18.43
-3.29
3.95
4.85
2.25
-0.96
-2.81
-2.62
-0.52
2.80
6.74
10.64
13.66
14.87
13.48
9.28
3.03
-3.80
-9.59
-13.22
-14.48
-14.01
-12.84
-11.93
-11.84
-12.73
-14.60
-17.33
-20.69
-24.32
-27.65
-30.08
-31.38
-31.72
-31.85
-32.65
-34.87
-38.57
-43.18
-47.70
-51.01
-52.40
-51.78
-49.70
-47.13
-45.22
-44.94
-46.69
-50.13
-54.01
-56.56
-55.85
-50.64
-40.85
-27.71
-13.37
-0.25
9.93
16.61
20.48
23.06
25.96
30.21
35.95
42.60
49.14
54.69
58.82
61.44
62.79
63.12
62.55
60.97
58.24
54.28
