1607959367.00
64.000000
-0.00
-0.00
-0.00
-0.00
-0.00
-0.00
-0.00
-0.00
-0.00
-0.00
0.00
0.01
0.01
-0.00
-0.03
-0.05
-0.05
0.00
0.13
0.36
0.66
1.01
1.37
1.72
2.06
2.40
2.79
3.24
3.80
4.42
5.06
5.66
6.20
6.68
7.15
7.68
8.31
9.14
10.08
11.03
11.89
12.59
13.19
13.82
14.68
15.89
17.68
19.87
22.25
24.54
26.61
28.54
30.60
33.19
36.58
41.16
46.58
52.36
57.96
63.05
67.67
72.25
77.39
83.55
91.25
100.03
109.20
118.00
125.90
132.90
139.46
146.69
153.12
160.98
171.00
183.56
197.76
210.84
218.37
215.41
198.12
165.26
119.14
63.87
4.31
-55.75
-114.41
-171.55
-227.79
-283.58
-338.68
-391.78
-441.55
-486.56
-525.40
-556.71
-579.09
-591.23
-592.09
-581.37
-559.63
-528.67
-490.63
-447.05
-398.10
-342.48
-278.42
-205.23
-124.60
-40.82
40.11
112.45
172.33
218.49
251.86
274.45
288.27
294.84
295.38
291.06
283.23
273.23
262.08
250.26
237.73
224.20
209.52
193.92
178.00
162.54
148.23
135.36
123.75
112.80
101.84
90.35
78.28
66.01
54.22
43.56
34.38
26.63
19.92
13.80
8.05
2.77
-1.79
-5.34
-7.76
-9.15
-9.79
-10.01
-10.08
-10.11
-10.11
-10.03
-9.74
-9.11
-8.04
-6.52
-4.67
-2.68
-0.73
1.13
2.95
4.82
6.78
8.62
9.96
10.35
9.48
7.36
4.29
0.81
-2.53
-5.23
-6.96
-7.52
-6.86
-5.13
-2.70
-0.16
1.90
3.00
2.99
2.04
0.54
-1.05
-2.44
-3.48
-4.16
-4.52
-4.63
-4.52
-4.29
-4.08
-4.02
-4.18
-4.50
-4.81
-4.90
-4.65
-4.09
-3.38
-2.69
-2.15
-1.76
-1.43
-1.05
-0.58
-0.08
0.30
0.42
0.28
-0.05
-0.40
-0.62
-0.65
-0.52
-0.31
-0.11
0.09
0.34
0.74
1.33
2.03
2.72
3.26
3.58
3.73
3.76
3.73
3.62
3.37
2.97
2.43
1.81
1.19
0.62
0.02
-0.65
-1.45
-2.37
-3.33
-4.25
-5.01
-5.53
-5.76
-5.74
-5.55
-5.29
-5.09
-4.99
-4.92
-4.82
-4.58
-4.19
-3.70
-3.17
-2.68
-2.25
-1.89
-1.56
-1.25
-0.93
-0.56
-0.11
0.41
0.95
1.42
1.73
1.82
1.71
1.46
1.21
1.02
0.92
0.84
0.67
0.36
-0.07
-0.47
-0.69
-0.61
-0.27
0.19
0.51
0.51
0.15
-0.46
-1.08
-1.52
-1.67
-1.56
-1.32
-1.08
-0.96
-1.00
-1.16
-1.39
-1.62
-1.78
-1.78
-1.57
-1.19
-0.70
-0.22
0.17
0.40
0.43
0.27
-0.03
-0.41
-0.77
-1.03
-1.12
-1.06
-0.92
-0.83
-0.92
-1.27
-1.91
-2.74
-3.58
-4.19
-4.45
-4.33
-3.98
-3.60
-3.32
-3.17
-3.03
-2.75
-2.22
-1.47
-0.62
0.17
0.80
1.25
1.55
1.75
1.89
1.99
2.04
2.00
1.82
1.47
1.00
0.52
0.13
-0.12
-0.32
-0.64
-1.21
-2.02
-2.85
-3.39
-3.41
-2.86
-1.94
-0.94
-0.11
0.42
0.70
0.89
1.09
1.36
1.63
1.81
1.83
1.68
1.45
1.25
1.14
1.12
1.15
1.16
1.14
1.19
1.40
1.82
2.38
2.87
3.09
2.93
2.45
1.85
1.33
1.00
0.84
0.76
0.66
0.51
0.34
0.18
-0.00
-0.26
-0.66
-1.25
-2.01
-2.85
-3.64
-4.23
-4.48
-4.32
-3.77
-2.93
-1.96
-1.03
-0.23
0.44
1.01
1.53
1.95
2.19
2.18
1.95
1.60
1.27
1.05
0.94
0.85
0.71
0.51
0.32
0.29
0.46
0.80
1.19
1.48
1.59
1.53
1.37
1.21
1.07
0.94
0.76
0.47
0.08
-0.36
-0.75
-0.99
-1.03
-0.89
-0.65
-0.45
-0.42
-0.65
-1.09
-1.65
-2.18
-2.51
-2.53
-2.26
-1.74
-1.11
-0.50
-0.02
0.29
0.46
0.53
0.58
0.65
0.75
0.86
1.01
1.18
1.35
1.46
1.45
1.27
0.93
0.52
0.21
0.10
0.27
0.65
1.14
1.61
1.99
2.27
2.43
2.48
2.38
2.11
1.69
1.24
0.85
0.61
0.54
0.57
0.64
0.66
0.60
0.44
0.14
-0.34
-0.99
-1.74
-2.45
-2.94
-3.12
-3.00
-2.66
-2.23
-1.80
-1.41
-1.07
-0.79
-0.59
-0.50
-0.48
-0.45
-0.35
-0.12
0.23
0.60
0.93
1.15
1.27
1.33
1.39
1.46
1.53
1.56
1.50
1.33
1.08
0.78
0.48
0.24
0.11
0.11
0.26
0.50
0.75
0.89
0.81
0.47
-0.07
-0.64
-1.06
-1.21
-1.08
-0.77
-0.46
-0.27
-0.28
-0.43
-0.69
-0.97
-1.29
-1.62
-1.94
-2.17
-2.20
-1.98
-1.52
-0.96
-0.48
-0.22
-0.23
-0.36
-0.46
-0.36
-0.05
0.38
0.76
0.97
1.00
0.98
1.03
1.21
1.47
1.70
1.82
1.81
1.78
1.82
1.97
2.15
2.21
2.01
1.51
0.85
0.23
-0.16
-0.25
-0.11
0.12
0.27
0.25
0.04
-0.27
-0.57
-0.78
-0.89
-0.91
-0.91
-0.91
-0.91
-0.89
-0.88
-0.92
-1.05
-1.29
-1.58
-1.80
-1.85
-1.69
-1.38
-1.05
-0.83
-0.75
-0.76
-0.74
-0.64
-0.41
-0.11
0.22
0.57
0.94
1.32
1.69
1.97
2.13
2.14
2.01
1.82
1.64
1.55
1.60
1.77
2.03
2.27
2.41
2.39
2.22
1.95
1.64
1.33
1.02
0.68
0.31
-0.05
-0.34
-0.55
-0.71
-0.91
-1.20
-1.60
-2.00
-2.29
-2.35
-2.16
-1.79
-1.37
-1.05
-0.90
-0.93
-1.05
-1.17
-1.19
-1.07
-0.84
-0.57
-0.30
-0.07
0.15
0.39
0.64
0.86
0.99
0.96
0.76
0.41
-0.04
-0.49
-0.85
-1.08
-1.15
-1.10
-0.98
-0.81
-0.62
-0.38
-0.04
0.34
0.68
0.85
0.76
0.46
0.12
-0.05
0.06
0.41
0.81
1.05
1.03
0.84
0.66
0.64
0.79
0.97
0.98
0.68
0.07
-0.74
-1.57
-2.24
-2.64
-2.74
-2.57
-2.20
-1.70
-1.17
-0.70
-0.37
-0.18
-0.13
-0.16
-0.23
-0.26
-0.21
-0.01
0.35
0.85
1.38
1.81
2.02
1.98
1.76
1.45
1.16
0.91
0.66
0.39
0.08
-0.17
-0.26
-0.17
0.06
0.30
0.47
0.53
0.52
0.53
0.60
0.69
0.74
0.67
0.48
0.23
-0.01
-0.19
-0.34
-0.54
-0.87
-1.32
-1.84
-2.28
-2.52
-2.49
-2.24
-1.88
-1.53
-1.24
-0.98
-0.69
-0.30
0.20
0.73
1.23
1.62
1.91
2.10
2.24
2.33
2.35
2.30
2.18
2.02
1.84
1.66
1.54
1.57
1.87
2.53
3.52
4.65
5.61
6.14
6.10
5.62
5.02
4.67
4.84
5.54
6.52
7.42
7.94
8.00
7.77
7.66
8.07
9.31
11.38
14.02
16.73
18.99
20.36
20.64
19.88
18.36
16.43
14.35
12.14
9.47
5.82
0.61
-6.44
-14.94
-23.64
-30.52
-33.31
-30.33
-21.25
-7.54
7.77
21.05
29.09
30.09
24.03
12.30
-2.91
-19.30
-34.87
-48.14
-58.20
-64.80
-68.34
-69.74
-70.22
-70.80
-71.99
-73.58
-74.84
-74.96
-73.52
-70.81
-67.50
-64.62
-63.08
-63.39
-65.52
-68.90
-72.57
-75.41
-76.37
-74.31
-68.84
-60.53
-50.81
-41.22
-32.70
-25.11
-17.43
-8.23
4.35
21.05
41.13
62.71
83.66
102.58
118.81
132.21
142.81
151.67
159.33
165.36
168.85
169.18
166.77
162.95
159.18
156.46
156.68
160.51
167.03
174.01
178.57
178.13
170.53
153.87
118.43
62.06
-7.60
-75.92
-129.99
-164.90
-182.61
-187.68
-184.09
-173.78
-155.26
-127.65
-93.73
-56.94
-22.41
4.93
22.39
29.73
28.80
24.36
20.44
18.88
19.45
20.57
19.37
15.09
8.50
0.89
-4.50
-5.71
-2.59
3.65
11.18
17.74
21.90
22.59
18.06
8.37
-6.65
-27.20
-52.14
-77.19
-97.53
-110.31
-117.35
-129.22
-148.16
-171.69
-194.52
-211.05
-210.83
-189.36
-147.21
-84.25
-12.29
53.04
100.13
127.35
140.33
146.54
149.56
150.49
149.46
146.51
144.41
145.36
148.62
149.31
143.34
124.42
91.05
47.02
-0.86
-43.91
-75.66
-91.09
-91.96
-83.81
-72.98
-63.18
-55.64
-50.74
-47.74
-45.68
-43.55
-40.98
-37.54
-33.39
-28.76
-24.40
-21.50
-20.48
-20.81
-21.22
-20.69
-18.44
-14.67
-10.26
-6.70
-5.44
-6.85
-10.00
-12.98
-14.29
-12.95
-9.32
-4.87
-1.53
-1.19
-5.05
-13.93
-26.86
-41.50
-53.20
-56.02
-45.18
-20.16
13.28
44.49
61.61
57.07
31.00
-8.21
-48.32
-79.22
-96.72
-103.31
-104.63
-106.15
-110.44
-117.55
-125.79
-134.50
-144.25
-155.02
-164.66
-167.90
-159.63
-137.67
-104.69
-65.51
-27.09
3.89
23.46
31.32
30.95
26.25
20.46
15.24
14.81
22.26
38.64
63.67
90.49
115.60
136.78
153.72
166.82
181.77
203.10
231.57
264.30
296.79
325.58
347.79
362.96
349.10
299.86
226.22
148.62
82.96
34.60
1.99
-19.86
-30.72
-36.61
-37.46
-32.57
-22.80
-9.19
8.74
33.46
56.49
71.07
68.52
45.99
5.28
-48.15
-105.37
-155.65
-189.42
-201.97
-193.00
-168.13
-134.81
-97.52
-62.21
-34.60
-18.22
-14.11
-21.12
-35.16
-51.52
-64.20
-66.71
-57.51
-39.69
-19.34
-2.20
7.60
9.35
4.81
-2.08
-7.07
-7.90
-3.80
3.94
13.31
21.82
27.80
30.31
29.39
26.03
21.38
17.48
16.26
18.86
25.05
33.37
41.45
47.02
48.81
45.40
37.75
28.15
18.31
8.17
-2.70
-13.28
-20.96
-22.88
-19.60
-11.68
-1.47
7.70
13.13
13.79
10.39
4.59
-2.10
-6.88
-8.31
-6.67
-3.63
-1.54
-2.42
-7.18
-15.23
-24.71
-33.03
-37.62
-37.03
-31.40
-22.67
-14.37
-10.99
-16.61
-33.30
-59.84
-91.78
-122.96
-147.61
-162.25
-166.34
-161.60
-150.48
-134.90
-115.87
-94.12
-70.98
-48.69
-29.82
-16.18
-7.85
-3.13
0.68
6.00
13.90
23.77
33.81
42.02
47.07
48.80
48.03
45.97
43.61
41.31
38.77
35.49
31.13
25.85
20.36
15.67
12.70
11.98
13.52
16.83
21.17
25.73
29.72
32.56
33.91
33.74
32.33
30.07
27.25
23.83
19.51
13.95
7.13
-0.35
-7.35
-12.60
-15.19
-14.90
-12.16
-7.79
-2.61
2.71
7.67
11.82
14.76
16.21
16.22
15.25
14.04
13.26
13.30
14.08
15.23
16.37
17.41
18.62
20.47
23.30
27.09
31.43
35.68
39.24
41.77
43.34
44.23
44.78
45.17
45.41
45.36
44.79
43.54
41.57
39.05
36.35
33.93
32.11
30.84
29.51
27.02
22.05
13.50
0.89
-15.50
-34.64
-55.06
-75.18
-93.52
-108.92
-120.64
-128.39
-132.42
-133.30
-131.88
-128.98
-125.28
-121.14
-116.57
-111.20
-104.39
-95.38
-83.62
-69.13
-52.68
-35.76
-20.19
-7.55
1.37
6.80
9.82
11.98
14.73
19.07
25.38
33.39
42.40
51.43
59.48
65.74
69.75
71.45
71.14
69.27
66.35
62.87
59.22
55.77
52.75
50.26
48.21
46.40
44.59
42.63
40.47
38.17
35.80
33.45
31.12
28.82
26.51
24.20
21.87
19.53
17.18
14.83
12.57
10.47
8.63
7.12
5.94
5.03
4.27
3.55
2.83
2.16
1.64
1.37
1.44
1.88
2.58
3.33
3.87
4.05
3.81
3.18
2.28
1.25
0.22
-0.68
-1.38
-1.84
-1.96
-1.69
-1.15
-0.52
-0.05
0.12
-0.07
-0.57
-1.20
-1.51
-1.23
-0.40
0.52
1.04
0.89
0.13
-0.90
-1.65
-1.18
0.92
4.16
7.26
8.93
8.51
6.18
2.78
-0.45
-1.70
0.07
4.54
10.49
16.78
23.11
29.83
37.32
45.63
55.34
66.64
79.00
91.20
101.73
108.76
109.86
102.29
78.96
38.73
-11.13
-58.35
-93.55
-114.44
-124.00
-126.80
-126.53
-124.99
-121.61
-115.45
-106.56
-95.94
-84.61
-73.05
-61.31
-49.37
-37.11
-23.83
-9.30
5.39
17.83
25.17
25.48
18.60
6.50
-7.08
-17.47
-21.21
-17.59
-8.72
1.84
10.77
16.16
17.93
17.50
16.92
17.66
19.92
22.75
24.83
25.21
23.79
21.11
18.26
16.43
16.42
18.22
20.96
23.25
23.74
21.81
17.73
12.54
7.60
3.96
1.90
1.05
0.75
0.59
0.50
0.55
0.61
0.19
-1.35
-4.29
-8.17
-11.88
-14.22
-14.48
-12.74
-9.82
-6.74
-4.26
-2.56
-1.31
0.05
1.78
3.96
6.43
8.97
11.30
13.23
14.58
15.39
15.79
15.78
15.57
15.39
15.49
15.99
16.89
18.00
19.04
19.70
19.42
17.86
14.90
10.58
5.05
-1.57
-9.37
-18.87
-28.59
-37.91
-46.29
-53.28
-58.56
-62.03
-63.82
-64.15
-63.16
-60.76
-56.99
-51.88
-45.67
-38.94
-32.44
-26.86
-22.47
-19.17
-16.52
-14.34
-12.63
-11.61
-11.58
-12.74
-14.97
-17.87
-20.87
-23.39
-25.13
-25.93
-25.83
-24.93
-23.41
-21.39
-18.97
-16.18
-13.03
-9.66
-6.25
-2.95
0.12
2.89
5.38
7.60
9.55
11.20
12.54
13.58
14.41
15.13
15.78
16.34
16.74
16.93
16.93
16.88
17.00
17.56
18.76
20.68
23.16
25.85
28.33
30.22
31.31
31.59
31.18
30.32
29.20
28.01
26.89
25.96
25.27
24.84
24.59
24.39
24.12
23.73
23.20
22.55
21.79
20.94
20.04
19.17
18.43
17.83
17.27
16.53
15.34
13.57
11.25
8.61
5.99
3.66
1.75
0.19
-1.20
-2.57
-4.00
-5.44
-6.78
-7.92
-8.86
-9.61
-10.22
-10.65
-10.77
-10.47
-9.68
-8.47
-7.04
-5.62
-4.33
-3.21
-2.15
-1.08
-0.03
0.88
1.50
1.74
1.70
1.58
1.57
1.80
2.21
2.68
3.02
3.10
2.90
2.51
2.05
1.67
1.45
1.37
1.34
1.24
1.01
0.66
0.31
0.04
-0.11
-0.20
-0.34
-0.61
-1.03
-1.55
-2.12
-2.72
-3.38
-4.12
-4.93
-5.73
-6.41
-6.90
-7.25
-7.55
-7.97
-8.62
-9.50
-10.46
-11.27
-11.68
-11.61
-11.10
-10.30
-9.38
-8.39
-7.24
-5.85
-4.17
-2.29
-0.42
1.28
2.72
3.92
4.91
5.72
6.29
6.56
6.57
6.45
6.39
6.56
7.01
7.68
8.43
9.10
9.58
9.83
9.84
9.66
9.34
8.92
8.43
7.88
7.26
6.60
5.92
5.31
4.87
4.66
4.74
5.08
5.60
6.20
6.70
6.93
6.75
6.05
4.85
3.22
1.29
-0.81
-2.94
-4.97
-6.81
-8.38
-9.70
-10.82
-11.81
-12.64
-13.20
-13.34
-12.95
-12.07
-10.90
-9.68
-8.54
-7.46
-6.31
-4.96
-3.42
-1.80
-0.35
0.79
1.55
2.00
2.22
2.26
2.10
1.73
1.19
0.60
0.14
-0.07
0.03
0.36
0.82
1.26
1.65
2.04
2.55
3.25
4.12
5.05
5.90
6.57
7.05
7.40
7.72
8.10
8.55
9.08
9.67
10.35
11.16
12.14
13.28
14.54
15.86
17.13
18.23
19.07
19.64
20.01
20.34
20.75
21.34
22.02
22.70
23.20
23.46
23.53
23.61
23.88
24.54
25.64
27.18
29.02
30.99
32.84
34.27
34.98
34.77
33.61
31.65
29.10
26.17
22.88
19.10
14.61
9.28
3.20
-3.32
-9.82
-15.87
-21.25
-26.01
-30.40
-34.70
-39.06
-43.38
-47.37
-50.60
-52.79
-53.79
-53.72
-52.86
-51.62
-50.43
-49.67
-49.60
-50.29
-51.60
-53.21
-54.74
-55.88
-56.45
-56.42
-55.87
-54.85
-53.34
-51.31
-48.79
-45.93
-42.99
-40.24
-37.85
-35.81
-33.87
-31.67
-28.86
-25.22
-20.79
-15.79
-10.56
-5.43
-0.65
3.72
7.68
11.30
14.62
17.64
20.32
22.59
24.36
25.55
26.14
26.15
25.71
25.00
24.22
23.44
22.68
21.88
21.00
20.05
19.05
18.04
17.00
15.90
14.76
13.65
12.67
11.84
11.14
10.42
9.54
8.39
6.98
5.44
3.87
2.37
0.98
-0.33
-1.61
-2.87
-4.14
-5.44
-6.78
-8.17
-9.70
-11.44
-13.43
-15.67
-18.07
-20.49
-22.81
-24.94
-26.89
-28.67
-30.30
-31.68
-32.58
-32.71
-31.79
-29.69
-26.48
-22.49
-18.15
-13.88
-9.87
-6.05
-2.17
2.00
6.58
11.42
16.22
20.71
24.67
28.07
30.99
33.51
35.69
37.54
39.03
40.17
40.95
41.40
41.57
41.47
41.17
40.68
40.00
39.06
37.76
36.01
33.75
31.09
28.17
25.18
22.25
19.48
16.87
14.43
12.21
10.22
8.48
6.91
5.35
3.60
1.52
-0.92
-3.56
-6.14
-8.38
-10.10
-11.29
-12.16
-12.97
-13.97
-15.24
-16.73
-18.18
-19.33
-19.93
-19.84
-19.00
-17.48
-15.40
-12.99
-10.47
-8.06
-5.88
-3.93
-2.15
-0.45
1.19
2.71
4.01
5.00
5.67
6.11
6.44
6.79
7.23
7.75
8.26
8.62
8.70
8.45
7.94
7.34
6.87
6.69
6.80
7.04
7.16
6.95
6.32
5.37
4.28
3.28
2.47
1.86
1.37
0.94
0.55
0.22
-0.09
-0.49
-1.11
-2.05
-3.29
-4.65
-5.87
-6.75
-7.24
-7.50
-7.74
-8.21
-9.02
-10.14
-11.44
-12.73
-13.80
-14.48
-14.60
-14.09
-12.97
-11.35
-9.41
-7.34
-5.26
-3.21
-1.19
0.80
2.73
4.50
6.02
7.22
8.10
8.74
9.21
9.58
9.85
9.99
9.96
9.77
9.51
9.28
9.18
9.18
9.21
9.10
8.76
8.17
7.45
6.72
6.11
5.62
5.17
4.68
4.11
3.49
2.88
2.33
1.83
1.31
0.71
0.01
-0.78
-1.58
-2.33
-3.01
-3.64
-4.30
-5.11
-6.13
-7.39
-8.83
-10.26
-11.46
-12.22
-12.50
-12.30
-11.72
-10.78
-9.46
-7.73
-5.64
-3.36
-1.18
0.66
2.07
3.09
3.92
4.72
5.56
6.38
7.07
7.53
7.75
7.75
7.60
7.37
7.07
6.72
6.32
5.88
5.47
5.16
5.03
5.05
5.09
4.97
4.51
3.69
2.58
1.43
0.42
-0.38
-1.07
-1.85
-2.90
-4.29
-5.90
-7.52
-8.88
-9.82
-10.35
-10.68
-11.11
-11.92
-13.21
-14.87
-16.60
-18.06
-18.95
-19.07
-18.32
-16.77
-14.82
-13.16
-12.62
-13.82
-16.79
-20.89
-24.99
-27.93
-28.91
-27.72
-24.56
-19.81
-13.83
-7.02
0.07
6.65
11.92
15.33
16.87
17.02
16.47
15.78
15.24
14.85
14.51
14.12
13.66
13.14
12.59
12.06
11.61
11.36
11.36
11.62
12.01
12.31
12.36
12.06
11.46
10.66
9.74
8.74
7.68
6.57
5.44
4.33
3.28
2.32
1.44
0.66
-0.03
-0.63
-1.20
-1.84
-2.66
-3.77
-5.21
-6.84
-8.43
-9.75
-10.57
-10.80
-10.37
-9.34
-7.82
-5.86
-3.57
-0.98
1.81
4.67
7.39
9.86
11.95
13.56
14.73
15.59
16.30
16.99
17.71
18.38
19.11
19.82
20.33
20.68
21.16
22.08
23.61
25.61
27.55
29.33
30.62
31.08
30.97
31.05
32.07
34.56
38.32
42.49
46.82
50.56
52.91
54.09
55.04
56.67
59.68
63.88
68.00
71.81
74.24
74.26
72.25
69.25
65.90
63.71
64.95
64.55
63.24
63.34
63.70
58.43
40.34
5.52
-41.61
-90.73
-130.90
-153.41
-158.05
-154.55
-149.02
-144.94
-144.53
-146.38
-148.38
-149.61
-148.66
-147.14
-148.05
-153.47
-154.87
-151.93
-147.16
-143.62
-147.99
-154.19
-155.43
-146.89
-126.24
-88.93
-39.39
15.28
67.01
103.62
120.20
119.94
110.42
98.42
87.59
77.44
67.92
59.52
52.48
47.99
45.45
43.49
41.22
39.07
36.95
35.53
36.48
38.71
41.46
43.32
43.22
41.31
39.31
39.00
42.74
52.16
66.33
81.68
91.94
90.17
71.13
33.44
-20.06
-82.63
-145.50
-196.00
-222.84
-219.78
-187.55
-133.44
-68.77
-4.90
50.15
93.80
125.38
143.52
146.50
134.22
110.61
84.29
66.74
67.91
92.74
135.85
183.10
218.48
231.27
219.31
187.16
142.47
83.27
16.73
-45.34
-94.45
-128.71
-149.61
-158.52
-157.27
-148.70
-136.95
-125.59
-119.27
-121.86
-132.78
-147.80
-156.83
-150.73
-124.47
-79.77
-23.78
31.13
71.62
89.66
84.17
59.55
21.83
-23.48
-72.65
-121.27
-162.42
-188.91
-193.41
-172.38
-127.92
-67.61
-0.44
66.36
128.77
183.90
227.99
258.49
273.52
273.30
261.02
242.99
225.46
211.22
197.79
169.01
118.18
53.09
-8.89
-53.86
-78.01
-86.10
-86.33
-85.47
-86.40
-86.65
-82.85
-74.07
-62.48
-51.27
-43.10
-39.12
-38.71
-40.22
-40.45
-36.92
-29.69
-20.94
-13.36
-8.86
-8.05
-10.27
-14.11
-18.03
-19.92
-19.87
-19.52
-20.77
-24.77
-31.52
-39.96
-46.86
-51.27
-52.34
-50.69
-48.00
-46.19
-46.51
-49.07
-52.90
-56.43
-58.51
-58.30
-56.30
-53.86
-52.36
-52.79
-55.71
-61.32
-69.31
-78.42
-85.50
-86.41
-77.32
-56.78
-27.06
6.16
35.92
56.79
66.90
68.28
64.95
60.56
56.83
53.54
49.73
44.99
40.01
36.06
34.10
33.97
34.53
34.38
32.38
28.44
23.48
18.67
15.12
13.33
13.03
13.36
13.32
12.20
9.89
6.82
3.59
0.88
-0.93
-1.77
-1.91
-1.71
-1.52
-1.59
-1.95
-2.64
-3.36
-3.65
-2.94
-0.73
3.22
8.88
15.59
22.45
28.42
33.09
36.66
39.86
43.63
48.56
54.51
60.02
64.58
66.66
65.73
62.38
57.98
54.11
52.13
53.03
57.43
65.24
74.87
83.26
85.99
78.73
59.35
29.54
-5.63
-37.94
-60.96
-72.37
-73.93
-69.88
-64.32
-59.33
-54.81
-49.73
-43.54
-37.01
-31.74
-28.71
-27.80
-27.78
-27.05
-24.30
-19.41
-13.16
-7.00
-2.36
0.25
1.11
1.17
1.38
2.52
4.56
6.91
8.61
8.67
6.95
3.75
-0.25
-4.32
-7.92
-10.90
-13.39
-15.19
-16.85
-18.36
-19.57
-20.37
-20.73
-20.81
-20.89
-21.36
-22.02
-22.70
-23.05
-22.89
-22.37
-21.98
-22.31
-23.82
-26.50
-29.82
-33.00
-35.20
-36.08
-36.00
-35.91
-36.96
-39.93
-44.81
-50.75
-56.43
-60.74
-63.15
-64.08
-64.60
-65.93
-68.99
-74.40
-82.47
-92.92
-104.17
-113.11
-115.32
-106.63
-85.27
-53.13
-15.71
19.79
47.86
66.22
76.20
81.36
85.10
88.98
92.71
95.12
95.51
93.69
91.20
89.11
87.45
85.95
82.91
77.23
68.88
58.72
48.17
38.65
31.01
25.40
21.47
18.61
16.28
14.13
12.10
10.35
9.15
8.74
9.27
10.73
13.14
16.12
18.98
20.95
21.40
20.18
17.86
15.53
14.49
16.07
20.50
26.96
33.96
40.07
44.34
47.05
49.25
52.25
57.75
66.56
79.02
94.86
112.46
128.35
137.78
135.50
114.93
78.26
32.66
-12.11
-47.39
-68.99
-79.02
-81.61
-80.92
-79.48
-77.17
-73.26
-67.38
-60.22
-51.64
-43.72
-37.54
-32.96
-29.09
-24.34
-18.26
-11.39
-4.95
-1.82
-2.78
-7.69
-15.82
-26.00
-36.64
-46.63
-55.39
-60.13
-62.15
-63.04
-64.03
-65.90
-68.85
-72.30
-75.28
-76.75
-76.15
-73.98
-71.04
-68.40
-66.98
-67.37
-69.82
-74.58
-81.56
-89.68
-96.50
-97.72
-88.88
-67.63
-35.48
2.19
37.95
65.40
81.52
87.10
85.74
81.37
76.50
71.84
67.27
62.91
59.54
58.07
58.60
60.17
61.21
60.39
57.31
52.94
49.00
47.05
47.66
50.07
52.76
54.10
53.17
50.15
46.12
42.77
41.77
44.41
50.97
59.85
67.46
68.65
58.58
35.10
0.36
-39.39
-75.98
-102.50
-116.20
-118.16
-112.24
-102.64
-91.92
-80.57
-68.14
-54.49
-40.23
-27.52
-17.90
-11.70
-7.97
-5.13
-1.73
2.68
7.48
11.52
13.66
13.55
11.66
9.13
7.20
6.69
7.64
9.40
11.01
11.58
10.90
9.35
7.67
6.59
6.42
6.95
7.60
7.71
6.91
5.40
3.79
2.79
2.80
3.66
4.68
4.98
3.97
1.67
-1.18
-3.41
-4.01
-2.71
-0.21
2.07
2.69
0.84
-3.13
-7.77
-11.14
-11.79
-9.47
-5.38
-1.63
-0.36
-2.96
-9.84
-20.52
-33.52
-46.41
-55.96
-58.77
-52.45
-36.66
-14.01
10.78
32.66
48.45
58.17
64.57
71.65
82.25
95.80
108.81
116.14
112.67
96.27
70.49
41.81
17.17
1.12
-5.65
-5.95
-3.76
-1.93
-0.83
1.04
5.10
11.41
18.28
23.43
25.31
23.94
20.67
17.42
15.77
15.85
16.63
16.36
13.69
8.03
-0.28
-10.26
-20.64
-30.33
-38.83
-45.51
-50.84
-54.98
-58.09
-60.41
-62.30
-64.17
-66.29
-68.97
-71.62
-73.66
-74.63
-74.37
-73.32
-72.27
-72.08
-73.42
-76.87
-82.78
-91.10
-100.47
-107.87
-109.21
-100.80
-81.37
-53.27
-22.08
5.46
24.14
32.36
32.11
27.22
21.11
15.48
10.16
4.45
-1.84
-7.85
-12.09
-13.50
-12.05
-8.75
-4.71
-0.82
3.09
7.80
14.31
23.35
34.77
47.57
60.05
70.65
77.63
81.04
81.38
79.50
76.25
72.15
67.99
63.08
57.20
50.39
43.09
35.76
28.93
22.95
17.93
13.76
10.14
6.97
4.16
1.82
-0.04
-1.42
-2.40
-3.11
-3.67
-4.12
-4.29
-4.06
-3.29
-2.13
-0.87
0.10
0.36
-0.22
-1.32
-2.32
-2.59
-1.80
-0.12
1.79
3.01
2.55
0.11
-3.55
-7.18
-9.47
-9.73
-8.20
-6.10
-4.99
-6.49
-10.89
-16.69
-21.49
-22.84
-19.28
-11.01
0.15
11.73
21.23
27.80
33.04
39.80
51.23
69.80
97.00
133.36
179.56
229.91
271.07
290.17
277.92
233.53
165.75
89.20
18.44
-36.17
-71.83
-91.77
-101.68
-106.69
-109.03
-108.33
-103.76
-97.32
-91.31
-89.46
-94.50
-106.60
-124.03
-144.25
-165.09
-181.30
-191.05
-191.84
-181.15
-157.49
-122.03
-79.50
-36.70
0.03
27.22
44.51
54.48
59.78
61.72
60.34
55.54
48.53
42.12
39.59
42.57
50.50
60.30
67.91
70.11
66.06
57.77
49.04
43.74
44.15
50.43
60.78
72.14
80.85
83.16
76.00
57.89
29.74
-4.65
-39.88
-70.73
-94.25
-110.58
-121.97
-130.57
-136.56
-138.98
-134.48
-122.06
-104.03
-85.37
-71.45
-65.71
-68.18
-74.71
-80.05
-77.54
-61.75
-30.12
15.12
66.54
112.89
142.91
149.63
133.34
102.29
69.16
46.47
41.63
54.14
76.29
96.93
106.38
100.30
81.43
56.37
32.49
14.71
3.30
-4.48
-11.68
-19.56
-26.83
-30.57
-28.74
-21.30
-10.22
1.44
10.47
14.87
13.79
7.80
-1.12
-10.61
-18.63
-24.49
-29.21
-34.71
-42.28
-51.58
-60.16
-64.93
-63.90
-57.31
-47.52
-37.76
-30.46
-25.65
-22.77
-19.64
-14.35
-6.30
3.71
13.71
21.47
25.44
25.39
22.34
18.35
15.52
15.05
17.01
20.29
23.06
23.61
21.03
15.43
8.10
0.62
-6.09
-11.68
-16.90
-23.00
-31.15
-41.98
-55.67
-71.97
-89.69
-107.42
-122.00
-129.30
-125.60
-109.54
-83.45
-52.97
-25.03
-4.62
6.48
10.24
10.51
10.88
12.98
16.44
20.13
23.39
26.62
30.59
35.84
41.82
47.06
50.19
50.10
46.91
41.79
36.42
32.22
29.97
29.50
29.89
30.31
30.04
29.03
27.87
27.43
28.35
30.87
34.59
37.60
39.81
40.77
40.40
39.06
37.33
35.68
34.28
33.67
32.66
30.80
27.71
23.60
19.07
14.93
11.87
10.20
9.73
9.78
9.90
9.67
9.15
8.91
9.71
12.20
16.50
22.14
28.03
33.34
37.42
40.25
42.38
44.66
48.00
53.22
60.90
70.85
82.02
91.97
97.26
94.55
82.12
60.97
34.88
9.17
-11.57
-24.75
-30.52
-31.02
-28.95
-26.44
-24.64
-24.16
-24.23
-25.24
-27.81
-32.37
-38.64
-45.67
-52.18
-56.98
-59.43
-59.62
-58.54
-57.51
-57.69
-59.61
-62.90
-66.49
-69.14
-69.92
-68.70
-66.55
-65.09
-65.83
-69.43
-75.60
-83.33
-91.70
-99.63
-106.25
-111.45
-115.56
-118.75
-120.61
-119.91
-114.77
-103.70
-84.94
-57.57
-22.94
15.29
52.42
84.23
108.15
123.69
131.35
134.11
135.94
139.09
143.11
145.44
142.31
129.59
103.95
63.42
11.39
-43.40
-90.24
-119.72
-125.87
-107.69
-69.48
-12.74
48.26
97.12
128.39
146.66
156.87
159.10
150.00
127.21
92.93
54.24
18.72
-6.36
-18.24
-19.70
-16.54
-13.91
-14.29
-17.39
-22.50
-25.32
-23.52
-17.48
-9.87
-3.42
0.62
2.83
5.13
9.16
16.72
28.81
44.79
62.20
77.90
89.31
94.95
94.75
89.46
80.78
70.48
59.79
48.93
37.69
25.96
14.07
2.73
-7.40
-15.82
-22.60
-28.16
-33.20
-38.18
-43.03
-47.31
-50.53
-52.45
-53.32
-53.76
-54.31
-55.29
-56.67
-58.21
-59.65
-60.81
-61.55
-61.72
-61.09
-59.44
-56.71
-53.11
-49.01
-44.83
-40.85
-37.17
-33.79
-30.78
-28.35
-26.70
-25.83
-25.50
-25.28
-24.74
-23.75
-22.42
-21.10
-20.04
-19.29
-18.69
-18.06
-17.36
-16.70
-16.22
-15.92
-15.54
-14.72
-13.14
-10.83
-8.13
-5.58
-3.67
-2.58
-2.20
-2.21
-2.30
-2.34
-2.34
-2.43
-2.62
-2.87
-3.08
-3.19
-3.21
-3.19
-3.35
-3.91
-5.02
-6.66
-8.53
-10.22
-11.24
-11.33
-10.49
-9.21
-8.13
-7.82
-8.50
-9.97
-11.87
-13.90
-15.93
-18.04
-20.50
-23.53
-27.12
-30.85
-34.16
-36.55
-37.88
-38.06
-37.27
-36.01
-34.97
-34.82
-35.79
-37.93
-41.24
-45.75
-50.82
-55.72
-60.27
-64.90
-70.54
-77.63
-86.14
-95.71
-105.73
-114.21
-119.22
-119.95
-116.69
-110.78
-103.03
-94.16
-84.97
-76.14
-66.19
-52.99
-34.90
-11.04
18.03
51.70
88.54
127.38
159.96
179.45
185.72
183.17
179.98
174.84
164.93
148.68
126.95
99.19
69.69
43.00
21.21
3.74
-11.98
-27.43
-43.01
-58.36
-72.34
-83.01
-89.82
-93.57
-95.13
-94.93
-91.95
-85.23
-74.89
-60.85
-43.53
-24.96
-7.83
6.36
17.62
27.79
39.24
54.22
76.75
109.10
149.45
192.48
231.98
262.66
281.52
288.10
284.51
277.96
274.88
277.53
284.15
291.33
295.53
293.53
282.68
241.80
165.94
70.64
-19.02
-86.75
-129.93
-153.79
-165.24
-169.78
-170.47
-165.40
-153.58
-137.42
-121.68
-110.11
-103.86
-101.90
-102.15
-102.45
-98.90
-89.90
-77.21
-64.61
-55.05
-49.45
-47.06
-46.45
-46.03
-43.19
-36.81
-27.94
-18.97
-11.90
-7.47
-5.37
-4.78
-4.58
-3.09
0.54
5.85
11.45
15.89
18.18
17.97
15.22
10.80
5.87
1.26
-2.85
-6.97
-11.88
-18.18
-25.46
-33.68
-41.91
-49.03
-54.27
-57.28
-58.32
-58.03
-57.09
-56.17
-56.19
-58.08
-62.48
-68.74
-74.14
-74.24
-64.50
-42.79
-10.96
25.10
57.83
81.01
92.45
94.11
90.57
86.34
83.81
83.10
83.40
84.49
87.00
91.29
95.86
96.93
89.84
71.59
42.78
8.24
-24.89
-50.18
-64.37
-68.44
-65.85
-60.64
-55.48
-51.09
-47.37
-44.70
-44.47
-48.06
-55.22
-62.75
-65.06
-56.59
-34.35
0.09
41.01
80.68
111.92
129.92
132.92
121.61
98.56
67.70
34.02
2.89
-21.11
-35.53
-40.78
-39.56
-35.39
-31.03
-27.65
-25.41
-23.96
-23.18
-23.19
-24.01
-25.32
-26.57
-27.32
-27.31
-26.77
-26.14
-25.86
-26.18
-27.13
-28.60
-30.32
-32.07
-33.61
-34.86
-35.85
-36.87
-38.28
-40.36
-43.04
-45.81
-47.91
-48.91
-49.43
-51.10
-55.60
-63.02
-70.81
-73.90
-66.71
-45.99
-12.93
26.47
63.50
90.15
102.03
99.58
87.40
71.95
59.10
52.95
55.08
64.59
78.10
89.85
92.63
79.92
48.84
2.60
-49.23
-93.26
-117.17
-114.53
-87.36
-45.86
-4.76
21.76
24.84
4.17
-32.09
-70.27
-96.45
-102.19
-88.15
-63.56
-41.62
-33.05
-40.05
-56.82
-73.09
-79.91
-74.23
-59.18
-40.70
-22.60
-5.76
12.56
35.22
61.99
88.62
108.84
117.50
113.79
101.25
86.40
76.17
74.49
81.09
91.91
101.13
103.83
98.12
85.74
70.93
58.62
51.71
50.06
50.53
48.58
40.20
23.44
-1.23
-31.68
-64.76
-96.64
-122.43
-136.17
-132.46
-109.23
-70.19
-24.94
14.01
36.52
39.47
27.96
12.53
4.00
7.70
21.97
40.36
56.23
65.99
69.60
68.29
62.73
51.50
33.35
9.41
-15.45
-34.13
-40.60
-32.44
-13.70
7.71
23.60
29.04
24.02
12.49
-0.18
-9.94
-15.31
-17.06
-16.66
-15.34
-13.56
-11.48
-9.43
-7.66
-6.56
-6.47
-7.34
-8.61
-9.61
-9.76
-8.86
-7.19
-5.37
-4.10
-3.87
-4.74
-6.25
-7.73
-8.53
-8.41
-7.56
-6.52
-5.93
-6.30
-7.70
-9.86
-12.28
-14.50
-16.32
-17.84
-19.40
-21.43
-24.20
-27.75
-31.89
-36.33
-40.80
-45.19
-49.61
-54.34
-59.69
-65.85
-72.75
-80.16
-87.70
-95.02
-102.06
-109.05
-116.50
-124.89
-134.43
-144.63
-154.52
-162.73
-167.83
-168.79
-165.21
-157.27
-145.61
-130.22
-110.42
-85.25
-53.71
-15.56
28.18
75.04
121.56
164.31
199.89
227.04
246.09
258.53
266.25
271.05
274.51
277.41
279.17
277.16
267.86
246.45
210.43
161.60
106.21
52.89
9.31
-20.82
-38.50
-47.73
-52.99
-56.66
-58.76
-58.32
-55.26
-51.26
-49.16
-51.28
-57.91
-67.16
-75.70
-80.51
-80.24
-75.89
-70.10
-65.89
-65.44
-69.50
-77.67
-88.45
-99.34
-106.73
-106.39
-94.68
-70.37
-35.96
2.57
37.72
63.49
77.50
81.41
79.24
74.89
70.41
65.79
60.21
53.44
46.51
41.11
38.48
38.49
39.75
40.36
38.77
34.64
28.88
23.05
18.66
16.46
16.23
16.92
17.23
16.23
13.69
10.19
6.67
4.07
2.83
2.83
3.45
3.91
3.64
2.52
0.84
-0.88
-2.13
-2.65
-2.51
-2.04
-1.63
-1.56
-1.91
-2.53
-3.13
-3.48
-3.44
-3.07
-2.53
-2.06
-1.83
-1.87
-2.04
-2.13
-1.90
-1.25
-0.25
0.84
1.68
1.99
1.76
1.24
0.90
1.23
2.47
4.47
6.67
8.38
9.03
8.57
7.48
6.64
6.96
8.87
12.12
15.76
18.68
19.95
19.42
17.75
16.09
15.64
17.19
20.90
26.22
32.01
36.62
38.07
34.47
24.66
9.07
-9.86
-27.91
-40.56
-44.77
-40.59
-31.22
-21.51
-15.70
-15.39
-19.13
-23.71
-26.27
-25.96
-24.06
-22.77
-23.53
-26.12
-28.78
-29.69
-28.03
-24.39
-20.23
-16.80
-14.44
-12.56
-10.27
-7.09
-3.33
0.08
2.14
2.29
0.71
-1.81
-4.16
-5.41
-5.04
-3.15
-0.29
2.79
5.32
6.68
6.57
4.98
2.22
-1.14
-4.38
-6.72
-7.58
-6.74
-4.45
-1.31
1.84
4.32
5.67
5.82
4.94
3.44
1.72
0.11
-1.16
-2.11
-2.83
-3.43
-3.87
-3.92
-3.26
-1.70
0.66
3.35
5.66
6.99
7.04
5.98
4.24
2.15
-0.19
-2.95
-6.28
-9.95
-13.30
-15.41
-15.51
-13.37
-9.48
-4.85
-0.64
2.34
3.80
3.95
3.36
2.63
2.28
2.64
3.82
5.67
7.93
10.31
12.69
15.07
17.45
19.73
21.56
22.51
22.08
20.03
16.54
12.10
7.30
2.54
-1.99
-6.15
-9.55
-11.45
-11.00
-7.67
-1.74
5.56
12.43
17.07
18.28
15.75
10.17
2.98
-3.98
-8.87
-10.25
-7.47
-0.88
8.25
18.02
26.53
32.34
34.79
33.96
30.37
24.64
17.33
8.92
0.03
-8.54
-15.89
-21.26
-24.29
-25.15
-24.36
-22.54
-20.05
-16.85
-12.65
-7.25
-0.83
5.88
11.75
15.58
16.52
14.29
9.21
2.01
-6.47
-15.58
-24.90
-34.19
-43.22
-51.69
-59.18
-65.36
-70.11
-73.59
-76.08
-77.78
-78.72
-78.70
-77.60
-75.46
-72.56
-69.28
-65.90
-62.63
-59.55
-56.80
-54.54
-52.87
-51.60
-50.10
-47.40
-42.54
-34.89
-24.44
-11.77
2.13
16.09
28.99
39.90
48.27
54.17
58.34
62.19
67.26
74.58
84.02
94.17
102.97
108.64
110.66
109.89
108.00
106.20
104.46
101.44
95.41
85.60
72.88
59.55
48.29
40.86
37.35
36.44
36.33
35.82
34.86
34.28
35.04
37.60
41.59
45.89
49.09
49.94
47.66
42.11
33.49
22.03
7.98
-8.29
-26.19
-44.91
-63.64
-82.05
-100.52
-120.74
-144.96
-174.37
-207.51
-239.77
-264.61
-275.73
-269.49
-245.77
-208.43
-163.69
-117.65
-74.39
-35.66
-1.79
27.29
51.40
70.78
85.41
95.26
100.73
102.77
102.37
100.04
95.90
86.65
73.21
60.71
54.76
57.82
68.76
83.85
97.96
106.05
104.72
93.80
75.35
52.68
29.66
9.69
-5.11
-14.36
-19.01
-21.05
-21.27
-20.41
-19.33
-18.58
-18.25
-18.02
-17.42
-16.02
-13.54
-9.63
-4.51
0.93
5.59
8.47
8.93
6.80
2.40
-3.72
-10.24
-15.89
-19.85
-21.85
-22.07
-20.96
-19.06
-16.86
-14.62
-12.24
-9.60
-6.66
-3.57
-0.66
1.62
3.03
3.62
3.91
4.63
6.29
8.84
11.65
13.77
14.50
13.71
11.87
9.69
7.71
6.02
4.37
2.47
0.23
-2.21
-4.68
-7.16
-9.75
-12.52
-15.33
-17.76
-19.31
-19.65
-18.82
-17.21
-15.35
-13.63
-12.14
-10.75
-9.20
-7.38
-5.39
-3.50
-1.96
-0.87
-0.06
0.72
1.66
2.72
3.58
3.80
3.02
1.16
-1.54
-4.65
-7.67
-10.14
-11.69
-12.00
-10.81
-8.00
-3.79
1.32
6.54
10.98
13.89
14.81
13.71
10.94
7.14
2.95
-1.15
-4.98
-8.64
-12.40
-16.47
-20.74
-24.63
-27.29
-28.07
-26.75
-23.66
-19.60
-15.29
-11.16
-6.84
-1.18
7.02
18.20
31.78
46.39
60.27
72.13
80.92
86.52
89.68
91.34
91.96
91.58
90.10
87.17
82.87
76.70
68.67
59.63
50.66
42.40
34.86
27.59
19.19
8.21
-7.78
-30.11
-57.68
-87.09
-113.78
-132.86
-140.13
-133.67
-108.49
-67.08
-19.87
22.12
53.35
72.54
79.41
77.57
66.41
47.31
23.34
-0.40
-18.23
-26.63
-25.72
-18.44
-9.50
-3.86
-3.96
-10.26
-20.86
-32.14
-40.58
-44.24
-42.99
-37.94
-31.04
-23.69
-17.28
-12.54
-9.26
-6.60
-3.65
0.29
5.47
11.28
16.96
21.44
24.14
25.37
26.15
27.37
29.32
31.42
32.49
31.68
28.87
24.88
21.21
19.30
19.83
22.44
25.86
28.51
29.18
27.51
24.00
19.82
16.26
14.20
13.83
14.71
15.97
16.74
16.26
13.88
9.16
1.96
-7.27
-17.34
-26.43
-32.74
-35.20
-34.01
-30.55
-26.57
-23.15
-19.90
-15.03
-6.36
7.31
25.15
44.31
60.82
71.15
73.44
67.85
56.13
40.64
23.55
6.45
-9.53
-23.49
-34.64
-42.41
-46.74
-48.20
-47.88
-46.99
-46.44
-46.60
-47.26
-47.72
-47.21
-45.20
-41.64
-37.06
-32.36
-28.44
-25.87
-24.62
-24.16
-23.71
-22.54
-20.13
-16.41
-11.67
-6.54
-1.79
1.88
4.11
4.97
4.93
4.65
4.56
4.77
4.96
4.73
3.84
2.51
1.27
0.67
0.99
2.04
3.31
4.20
4.30
3.41
1.45
-1.54
-5.53
-10.37
-15.88
-21.88
-28.39
-35.61
-43.78
-52.77
-61.85
-69.71
-74.86
-76.30
-73.96
-68.85
-62.72
-57.35
-54.03
-53.24
-54.70
-57.56
-60.74
-63.17
-64.00
-62.70
-59.06
-53.14
-45.18
-35.47
-24.45
-12.75
-1.11
9.76
19.47
28.04
35.91
43.62
51.52
59.57
67.37
74.40
80.28
84.86
88.23
90.48
91.57
91.31
89.46
85.81
80.38
73.43
65.44
56.94
48.39
39.93
31.42
22.56
13.21
3.65
-5.35
-12.65
-16.99
-17.34
-13.08
-4.29
8.07
21.91
34.34
42.27
43.48
37.63
26.55
13.68
2.66
-4.07
-6.13
-4.87
-2.37
-0.17
1.38
2.91
5.23
8.56
12.23
15.05
15.91
14.36
10.80
6.04
0.90
-4.28
-9.59
-15.37
-21.86
-28.84
-35.63
-41.23
-44.68
-45.39
-43.28
-38.76
-32.51
-25.28
-17.71
-10.31
-3.52
2.21
6.51
9.16
10.24
10.12
9.27
8.09
6.67
4.91
2.78
0.62
-0.91
-1.00
0.83
4.36
8.71
12.69
15.27
16.08
15.38
13.87
12.28
11.08
10.44
10.21
10.19
10.14
9.85
9.15
7.95
6.25
4.12
1.64
-1.09
-4.01
-7.01
-9.86
-12.19
-13.56
-13.63
-12.23
-9.46
-5.55
-0.86
4.21
9.11
13.05
15.14
14.63
11.37
6.10
0.34
-4.12
-5.90
-4.71
-1.34
2.68
5.89
7.45
7.45
6.62
5.81
5.51
5.65
5.72
5.19
3.86
2.01
0.24
-0.83
-0.94
-0.34
0.41
0.71
0.27
-0.73
-1.78
-2.30
-1.99
-1.01
0.09
0.55
-0.30
-2.92
-7.33
-13.25
-20.19
-27.67
-35.33
-42.88
-49.98
-56.01
-60.15
-61.54
-59.66
-54.67
-47.40
-39.14
-31.19
-24.45
-19.33
-15.79
-13.67
-12.77
-12.92
-13.85
-15.09
-15.92
-15.65
-13.79
-10.32
-5.71
-0.79
3.56
6.67
8.31
8.71
8.40
7.97
7.90
8.40
9.43
10.82
12.34
13.74
14.83
15.45
15.52
15.10
14.38
13.62
13.11
12.99
13.28
13.80
14.25
14.30
13.68
12.32
10.37
8.22
6.43
5.48
5.65
6.85
8.64
10.40
11.48
11.47
10.31
8.24
5.65
2.92
0.27
-2.26
-4.73
-7.23
-9.74
-12.15
-14.31
-16.15
-17.67
-18.95
-20.07
-21.02
-21.71
-22.01
-21.81
-21.07
-19.87
-18.36
-16.72
-15.15
-13.80
-12.77
-12.07
-11.63
-11.32
-11.00
-10.61
-10.18
-9.87
-9.86
-10.24
-11.02
-12.02
-12.97
-13.59
-13.69
-13.24
-12.38
-11.34
-10.33
-9.48
-8.78
-8.10
-7.30
-6.31
-5.21
-4.16
-3.42
-3.27
-3.94
-5.62
-8.34
-11.96
-16.09
-20.12
-23.36
-25.24
-25.58
-24.66
-23.12
-21.69
-20.80
-20.38
-19.90
-18.56
-15.65
-10.94
-4.80
1.87
7.99
12.66
15.29
15.68
13.87
10.10
4.82
-1.22
-6.98
-11.26
-12.92
-11.44
-7.15
-1.00
5.79
12.17
17.52
21.51
23.94
24.83
23.93
20.96
16.01
9.77
3.36
-2.12
-5.97
-8.20
-8.86
-8.71
-8.92
-10.31
-12.96
-16.24
-19.21
-20.97
-20.83
-17.46
-10.29
0.37
13.80
29.19
45.42
61.09
74.72
85.24
93.42
99.74
103.91
105.02
102.35
95.89
87.02
78.73
67.82
56.53
49.52
48.84
51.82
54.23
53.75
50.70
46.42
41.50
35.86
27.80
15.60
-0.35
-16.89
-29.74
-35.87
-35.00
-29.14
-20.48
-11.18
-2.91
3.20
6.08
4.41
-2.22
-13.49
-26.75
-37.39
-42.04
-40.66
-36.81
-35.85
-41.91
-55.79
-74.22
-91.85
-103.87
-108.35
-105.97
-98.20
-85.72
-68.45
-46.60
-21.84
2.92
24.80
42.66
56.80
68.47
78.70
86.99
91.21
88.65
77.80
59.58
37.52
16.32
-0.03
-9.91
-14.53
-16.97
-20.29
-25.66
-31.94
-36.56
-37.39
-34.12
-28.75
-24.48
-23.95
-27.91
-34.80
-41.75
-45.94
-45.86
-41.43
-33.13
-21.16
-5.44
13.21
31.77
45.13
48.37
39.91
23.55
7.73
1.99
12.33
38.31
73.63
109.60
139.22
159.09
168.39
166.47
151.46
120.45
71.70
7.21
-66.05
-137.11
-194.01
-227.29
-232.74
-211.74
-170.68
-119.04
-66.84
-21.89
11.83
34.19
47.46
54.07
56.17
54.78
50.44
44.20
38.43
36.67
42.25
56.55
74.21
87.82
91.30
83.75
68.70
51.01
34.30
20.20
9.76
0.97
-6.86
-13.27
-17.19
-17.93
-15.96
-13.15
-12.33
-16.66
-28.08
-44.71
-61.20
-70.78
-68.54
-54.00
-31.59
-8.72
7.58
13.66
11.00
4.36
-1.25
-3.27
-2.39
-1.36
-2.86
-7.79
-14.92
-21.34
-24.52
-23.72
-20.53
-17.85
-18.35
-23.10
-31.17
-40.36
-48.27
-53.63
-56.67
-58.52
-60.31
-62.56
-65.10
-67.59
-70.01
-72.53
-74.92
-75.70
-71.71
-59.10
-35.44
-1.54
38.09
76.53
106.82
124.28
127.86
120.18
105.86
89.24
73.24
59.33
48.38
41.04
37.37
36.65
37.89
40.43
44.16
50.09
59.95
74.82
93.06
108.81
113.59
100.53
68.12
21.25
-29.98
-74.18
-103.07
-111.45
-99.62
-75.55
-49.58
-26.87
-6.28
15.22
37.66
57.08
67.83
65.89
51.64
30.48
11.07
-1.21
-4.65
-1.02
5.92
12.10
14.09
9.71
-1.40
-18.09
-38.40
-59.79
-79.67
-94.25
-100.71
-98.67
-90.35
-79.09
-67.72
-57.65
-48.65
-39.87
-30.90
-22.50
-16.17
-12.97
-12.43
-12.72
-11.89
-8.98
-4.47
0.23
3.45
4.26
2.81
0.22
-2.05
-3.00
-2.48
-1.13
0.08
0.23
-1.09
-3.70
-6.98
-10.13
-12.62
-14.44
-16.00
-17.79
-20.08
-22.66
-25.00
-26.52
-26.59
-25.17
-22.89
-20.72
-19.38
-19.06
-19.41
-19.94
-20.32
-19.91
-18.56
-16.85
-15.93
-16.82
-19.73
-23.61
-26.03
-23.57
-11.78
11.94
46.50
86.90
126.14
157.89
178.63
188.34
189.74
188.04
187.41
189.40
192.98
196.03
196.57
192.83
182.80
156.26
108.71
44.66
-23.57
-83.34
-127.61
-155.42
-169.47
-173.74
-171.99
-165.62
-155.73
-144.29
-134.14
-127.64
-125.22
-125.08
-123.90
-118.27
-104.75
-82.35
-53.26
-22.15
5.84
26.96
39.79
45.88
46.92
45.39
42.92
39.78
35.19
28.54
20.13
11.21
3.51
-1.92
-4.59
-4.95
-3.87
-2.08
0.16
3.06
6.57
10.54
14.23
17.09
18.83
19.70
20.29
21.20
22.85
23.84
23.66
21.71
17.29
9.48
-2.19
-17.02
-32.85
-46.55
-55.14
-56.31
-49.98
-38.45
-25.52
-14.64
-7.56
-4.23
-3.69
-5.04
-6.85
-7.49
-5.26
1.54
14.31
33.54
57.94
84.35
104.14
109.47
98.60
77.41
54.62
36.48
25.08
19.20
16.24
13.70
10.63
7.05
2.80
-2.94
-10.85
-20.42
-30.49
-38.99
-43.76
-43.28
-37.39
-27.59
-16.50
-6.60
0.66
4.76
5.75
3.86
-1.11
-8.60
-17.72
-27.33
-35.99
-42.02
-44.00
-42.33
-37.21
-29.53
-20.78
-12.79
-7.12
-4.59
-5.11
-7.98
-12.40
-17.09
-20.62
-21.87
-20.74
-18.18
-15.63
-14.53
-14.98
-16.46
-18.04
-18.90
-18.60
-16.89
-14.07
-10.77
-7.60
-5.00
-3.20
-2.08
-1.49
-1.35
-1.64
-2.29
-3.04
-3.44
-2.97
-1.35
1.38
4.82
8.29
11.12
12.87
13.49
13.33
12.97
12.93
13.57
14.94
16.73
18.43
19.44
19.29
17.84
15.26
11.97
8.44
5.07
2.05
-0.63
-2.99
-5.03
-6.66
-7.82
-8.56
-9.04
-9.45
-9.89
-10.22
-10.13
-9.27
-7.47
-4.78
-1.53
1.87
5.04
7.72
9.76
11.16
11.96
12.31
12.44
12.56
12.87
13.45
14.28
15.24
16.13
16.81
17.21
17.36
17.38
17.42
17.60
18.00
18.63
19.48
20.48
21.57
22.66
23.67
24.53
25.20
25.65
25.84
25.70
25.15
24.11
22.55
20.58
18.37
16.18
14.22
12.63
11.40
10.40
9.40
8.17
6.52
4.39
1.89
-0.74
-3.19
-5.21
-6.69
-7.72
-8.54
-9.55
-11.16
-13.70
-17.24
-21.60
-26.31
-30.73
-34.21
-36.24
-36.51
-34.97
-31.82
-27.45
-22.42
-17.33
-12.73
-8.97
-6.18
-4.24
-2.91
-1.97
-1.28
-0.82
-0.60
-0.56
-0.60
-0.60
-0.52
-0.45
-0.61
-1.15
-2.10
-3.27
-4.36
-5.06
-5.28
-5.14
-4.95
-5.02
-5.53
-6.41
-7.35
-7.95
-7.81
-6.71
-4.63
-1.82
1.35
4.42
7.02
8.87
9.83
9.89
9.11
7.63
5.70
3.60
1.64
-0.01
-1.28
-2.21
-2.84
-3.11
-2.79
-1.61
0.62
3.87
7.80
11.84
15.35
17.80
18.82
18.32
16.34
13.12
8.96
4.35
-0.15
-3.94
-6.49
-7.51
-7.02
-5.37
-3.16
-1.07
0.37
0.83
0.30
-0.99
-2.64
-4.18
-5.23
-5.56
-5.15
-4.19
-3.00
-1.86
-0.98
-0.41
-0.03
0.28
0.69
1.19
1.71
2.05
1.99
1.35
0.04
-1.87
-4.19
-6.63
-8.91
-10.81
-12.21
-13.11
-13.59
-13.74
-13.62
-13.21
-12.41
-11.10
-9.18
-6.65
-3.62
-0.32
2.94
5.82
8.04
9.41
9.87
9.50
8.52
7.23
5.96
4.95
4.35
4.14
4.22
4.43
4.60
4.60
4.31
3.67
2.70
1.45
0.06
-1.37
-2.81
-4.35
-6.15
-8.31
-10.83
-13.50
-15.95
-17.78
-18.64
-18.36
-16.96
-14.59
-11.44
-7.79
-3.89
0.02
3.71
6.99
9.68
11.66
12.87
13.30
13.06
12.28
11.13
9.75
8.24
6.66
5.08
3.59
2.31
1.31
0.61
0.14
-0.21
-0.56
-0.95
-1.39
-1.84
-2.26
-2.63
-2.96
-3.23
-3.40
-3.37
-3.02
-2.39
-1.63
-1.02
-0.82
-1.18
-2.06
-3.20
-4.24
-4.90
-5.17
-5.27
-5.56
-6.33
-7.69
-9.58
-11.82
-14.09
-16.18
-17.98
-19.47
-20.63
-21.39
-21.67
-21.45
-20.86
-19.86
-18.56
-17.22
-16.16
-15.57
-15.34
-15.17
-14.88
-14.48
-13.70
-12.47
-11.12
-10.26
-10.36
-11.45
-13.11
-14.77
-15.92
-15.38
-12.41
-7.26
-1.10
4.75
9.64
13.89
18.56
25.18
36.28
53.64
77.07
104.26
131.63
155.67
173.66
183.88
178.58
153.81
112.28
63.09
16.29
-21.96
-49.99
-68.69
-79.87
-85.02
-84.18
-77.41
-65.82
-51.79
-38.07
-26.65
-18.12
-12.07
-7.43
-2.40
4.05
11.48
18.09
21.84
21.50
17.77
11.46
4.06
-2.38
-6.35
-7.52
-6.73
-5.36
-4.71
-5.37
-7.37
-10.15
-12.89
-15.15
-17.25
-20.10
-24.47
-30.48
-37.22
-43.25
-47.33
-49.07
-49.08
-48.45
-47.93
-46.06
-41.27
-32.08
-18.29
-1.52
15.19
28.64
36.89
40.07
39.89
38.33
36.65
34.73
31.46
25.63
16.93
6.32
-4.20
-12.31
-16.30
-15.35
-9.72
-0.55
10.60
22.11
32.63
41.25
47.46
50.92
51.46
49.04
43.91
36.78
28.84
21.45
15.55
11.12
7.06
1.84
-5.54
-14.66
-23.62
-29.78
-31.14
-27.37
-20.03
-11.77
-4.98
-0.79
1.14
2.02
2.93
4.10
4.87
4.26
1.74
-2.38
-6.93
-10.57
-12.29
-11.90
-10.00
-7.62
-5.81
-5.28
-6.32
-8.84
-12.61
-17.24
-22.31
-27.32
-31.87
-35.69
-38.82
-41.52
-44.09
-46.72
-49.33
-51.68
-53.49
-54.60
-55.09
-55.20
-55.17
-55.18
-55.31
-55.61
-56.22
-57.41
-59.40
-62.20
-65.49
-68.67
-71.07
-72.15
-71.55
-69.01
-64.20
-56.77
-46.43
-33.28
-17.96
-1.59
14.55
29.42
42.41
53.29
61.98
68.31
72.03
72.93
71.09
66.91
61.01
54.08
46.68
39.24
32.13
25.74
20.52
16.81
14.79
14.35
15.11
16.53
18.12
19.59
20.90
22.19
23.72
25.65
27.97
30.54
33.11
35.40
37.18
38.26
38.61
38.30
37.52
36.55
35.61
34.84
34.17
33.42
32.34
30.72
28.49
25.69
22.52
19.24
16.15
13.45
11.29
9.68
8.57
7.88
7.55
7.60
8.06
8.89
9.98
11.11
12.10
12.86
13.47
14.09
14.80
15.56
16.20
16.52
16.45
16.08
15.63
15.29
15.15
15.18
15.28
15.34
15.16
14.40
12.54
8.99
3.40
-4.12
-12.89
-21.82
-29.85
-36.24
-40.84
-43.95
-46.08
-47.68
-48.92
-49.74
-49.98
-49.52
-48.34
-46.55
-44.31
-41.75
-38.95
-35.98
-32.95
-30.05
-27.52
-25.57
-24.37
-23.92
-24.07
-24.51
-24.83
-24.66
-23.74
-21.97
-19.43
-16.34
-12.94
-9.40
-5.82
-2.20
1.46
5.07
8.47
11.48
14.01
16.09
17.86
19.54
21.31
23.28
25.41
27.55
29.50
31.05
32.06
32.53
32.56
32.32
31.97
31.57
31.07
30.38
29.44
28.22
26.79
25.21
23.49
21.61
19.56
17.37
15.19
13.20
11.62
10.56
10.05
10.04
10.46
11.31
12.58
14.30
16.38
18.63
20.74
22.36
23.24
23.30
22.59
21.29
19.65
17.90
16.30
15.14
14.68
15.14
16.55
18.72
21.19
23.32
24.49
24.26
22.51
19.43
15.51
11.33
7.46
4.26
1.82
-0.10
-2.04
-4.66
-8.58
-14.06
-20.85
-28.15
-34.82
-39.83
-42.57
-43.12
-42.17
-40.89
-40.55
-42.18
-46.29
-52.70
-60.41
-67.90
-73.45
-75.69
-73.93
-68.26
-59.36
-48.23
-36.01
-23.96
-13.43
-5.58
-1.13
0.04
-1.15
-3.28
-5.06
-5.94
-6.20
-6.61
-7.81
-9.98
-12.84
-15.81
-18.30
-19.71
-19.77
-18.53
-16.26
-13.28
-9.99
-6.67
-3.14
1.20
7.47
16.37
27.81
41.01
54.93
68.50
80.84
91.34
99.43
104.74
106.50
103.83
96.29
84.47
69.63
53.27
36.76
19.85
4.18
-7.91
-14.97
-18.23
-19.48
-19.97
-20.53
-20.97
-21.40
-21.74
-22.27
-23.53
-25.90
-29.22
-33.04
-36.86
-40.31
-43.37
-45.95
-48.27
-50.60
-52.95
-54.95
-56.14
-56.33
-55.56
-54.02
-51.59
-48.07
-43.20
-36.80
-28.90
-19.95
-10.85
-2.61
3.91
8.35
10.79
11.70
11.81
11.98
12.95
15.13
18.52
22.69
26.94
30.42
32.36
32.24
29.98
25.92
20.72
15.23
10.29
6.49
4.09
2.94
2.65
2.69
2.63
2.24
1.49
0.59
-0.20
-0.62
-0.50
0.12
1.05
2.03
2.73
2.99
2.77
2.24
1.63
1.17
0.99
1.03
1.15
1.11
0.73
-0.08
-1.27
-2.58
-3.61
-3.89
-3.03
-0.96
2.04
5.42
8.56
11.01
12.65
13.65
14.24
14.54
14.51
13.95
12.75
10.99
8.93
6.90
5.18
3.83
2.80
1.99
1.33
0.84
0.54
0.49
0.71
1.15
1.74
2.37
2.87
3.06
2.85
2.25
1.38
0.44
-0.44
-1.39
-2.68
-4.65
-7.44
-10.76
-13.93
-16.13
-16.76
-15.74
-13.65
-11.38
-9.86
-9.60
-10.66
-12.66
-15.11
-17.47
-19.31
-20.22
-19.87
-18.07
-14.92
-10.89
-6.73
-3.18
-0.78
0.44
0.80
0.90
1.25
2.16
3.64
5.47
7.28
8.69
9.45
9.51
8.99
8.16
7.33
6.69
6.31
6.16
6.14
6.21
6.32
6.48
6.60
6.61
6.38
5.86
5.11
4.25
3.45
2.77
2.18
1.49
0.54
-0.82
-2.52
-4.35
-5.95
-7.01
-7.38
-7.24
-7.01
-7.18
-8.14
-9.99
-12.49
-15.22
-17.70
-19.47
-20.16
-19.48
-17.27
-13.54
-8.59
-3.00
2.49
7.18
10.67
12.94
14.29
15.13
15.73
16.15
16.19
15.69
14.57
13.00
11.28
9.69
8.40
7.39
6.51
5.65
4.79
4.03
3.53
3.34
3.41
3.53
3.41
2.84
1.77
0.39
-0.89
-1.65
-1.62
-0.84
0.32
1.27
1.50
0.75
-0.86
-2.87
-4.73
-5.99
-6.45
-6.25
-5.69
-5.15
-4.93
-5.14
-5.74
-6.58
-7.42
-7.97
-7.94
-7.07
-5.25
-2.65
0.30
3.01
4.94
5.84
5.80
5.24
4.63
4.27
4.15
4.01
3.56
2.68
1.57
0.66
0.37
0.91
2.20
3.84
5.40
6.58
7.34
7.86
8.38
9.07
9.87
10.56
10.83
10.45
9.38
7.81
6.07
4.48
3.22
2.23
1.24
-0.06
-1.87
-4.12
-6.48
-8.45
-9.60
-9.75
-9.02
-7.78
-6.44
-5.33
-4.68
-4.60
-5.06
-5.96
-7.01
-7.76
-7.74
-6.61
-4.35
-1.32
1.95
4.90
7.22
8.90
10.12
11.11
11.96
12.64
13.02
12.95
12.38
11.30
9.84
8.18
6.54
5.14
4.11
3.47
3.10
2.83
2.54
2.18
1.79
1.46
1.23
1.02
0.65
-0.07
-1.19
-2.60
-3.97
-4.96
-5.39
-5.38
-5.28
-5.46
-6.09
-7.03
-7.83
-8.09
-7.59
-6.47
-5.13
-3.99
-3.39
-3.44
-4.12
-5.30
-6.80
-8.31
-9.42
-9.68
-8.76
-6.62
-3.55
-0.09
3.16
5.79
7.62
8.72
9.30
9.50
9.38
8.88
7.94
6.56
4.93
3.34
2.14
1.53
1.51
1.82
2.08
1.93
1.20
0.03
-1.29
-2.41
-3.13
-3.52
-3.85
-4.47
-5.61
-7.27
-9.20
-11.04
-12.51
-13.56
-14.43
-15.54
-17.29
-19.92
-23.37
-27.22
-30.81
-33.25
-33.64
-31.26
-25.86
-17.89
-8.55
0.41
7.24
10.77
10.94
8.89
6.62
6.25
9.36
16.45
26.91
39.40
52.33
64.45
75.04
84.00
91.54
97.89
103.10
106.93
109.00
108.92
106.44
101.51
94.28
85.07
74.29
62.40
49.77
36.49
22.33
6.77
-10.73
-30.31
-51.26
-71.93
-90.02
-103.28
-110.33
-111.30
-107.95
-103.07
-99.63
-99.68
-103.62
-109.94
-115.58
-116.76
-110.04
-93.38
-66.79
-32.44
5.87
43.60
76.55
101.58
116.96
122.21
117.55
103.49
80.48
48.84
8.94
-38.51
-92.03
-148.80
-204.50
-254.02
-292.79
-318.23
-330.45
-331.67
-324.66
-311.10
-290.88
-262.71
-225.83
-181.29
-131.83
-80.49
-29.02
22.51
74.72
126.99
176.46
217.94
245.98
257.62
254.18
240.85
224.35
210.18
200.95
196.63
194.98
193.07
188.88
182.21
174.38
167.10
161.66
158.48
158.07
159.69
161.47
161.28
157.86
151.35
142.92
134.32
127.40
124.77
127.17
132.58
136.78
134.98
123.20
99.12
62.60
8.69
-58.21
-125.93
-180.99
-216.60
-234.21
-239.63
-238.65
-234.82
-228.89
-218.53
-201.90
-179.28
-153.10
-126.32
-101.07
-78.15
-57.28
-37.98
-19.46
-2.37
11.51
20.75
25.77
28.56
31.16
34.10
36.15
35.91
32.46
26.14
18.62
12.21
8.54
7.65
8.21
8.44
7.57
5.75
3.61
1.71
0.19
-1.28
-3.20
-5.71
-8.37
-10.21
-10.33
-8.57
-5.56
-2.44
-0.32
0.17
-0.85
-2.62
-4.16
-4.78
-4.34
-3.33
-2.54
-2.62
-3.78
-5.66
-7.57
-8.83
-9.09
-8.43
-7.28
-6.15
-5.42
-5.23
-5.45
-5.88
-6.30
-6.61
-6.74
-6.69
-6.41
-5.90
-5.17
-4.28
-3.39
-2.72
-2.49
-2.81
-3.63
-4.68
-5.56
-5.85
-5.31
-3.93
-1.95
0.20
2.13
3.49
4.14
4.02
3.26
2.07
0.76
-0.25
-0.57
0.15
2.11
5.16
8.80
12.26
14.69
15.34
13.88
10.48
5.75
0.63
-3.95
-7.34
-9.26
-9.82
-9.35
-8.18
-6.56
-4.63
-2.53
-0.43
1.45
2.95
4.03
4.79
5.44
6.22
7.28
8.63
10.13
11.53
12.52
12.82
12.30
10.97
9.00
6.65
4.21
1.93
0.03
-1.37
-2.23
-2.60
-2.63
-2.56
-2.66
-3.07
-3.80
-4.64
-5.30
-5.51
-5.19
-4.42
-3.45
-2.53
-1.85
-1.49
-1.42
-1.55
-1.74
-1.83
-1.53
-0.55
1.36
4.28
7.98
11.92
15.40
17.80
18.77
18.32
16.76
14.59
12.34
10.43
9.18
8.66
8.75
9.09
9.18
8.58
7.05
4.70
1.89
-0.86
-3.15
-4.75
-5.71
-6.24
-6.56
-6.87
-7.26
-7.77
-8.39
-9.05
-9.66
-10.12
-10.37
-10.41
-10.32
-10.20
-10.16
-10.24
-10.43
-10.65
-10.80
-10.78
-10.51
-9.94
-9.08
-7.97
-6.72
-5.47
-4.29
-3.17
-1.99
-0.50
1.51
4.16
7.37
10.90
14.35
17.31
19.45
20.59
20.76
20.13
18.98
17.64
16.30
15.05
13.83
12.46
10.80
8.80
6.53
4.15
1.84
-0.26
-2.09
-3.66
-4.96
-5.98
-6.70
-7.16
-7.45
-7.73
-8.14
-8.71
-9.35
-9.86
-10.07
-9.90
-9.44
-8.92
-8.55
-8.47
-8.69
-9.11
-9.60
-10.02
-10.30
-10.45
-10.50
-10.51
-10.53
-10.56
-10.59
-10.56
-10.50
-10.44
-10.44
-10.50
-10.58
-10.56
-10.35
-9.93
-9.38
-8.83
-8.40
-8.10
-7.86
-7.56
-7.12
-6.54
-5.90
-5.30
-4.83
-4.53
-4.39
-4.34
-4.22
-3.92
-3.34
-2.52
-1.59
-0.76
-0.18
0.10
0.12
0.01
-0.15
-0.33
-0.54
-0.77
-0.99
-1.13
-1.20
-1.28
-1.46
-1.80
-2.21
-2.48
-2.42
-1.92
-1.06
-0.03
0.96
1.76
2.33
2.69
2.88
2.92
2.84
2.69
2.56
2.52
2.60
2.76
2.91
2.94
2.81
2.55
2.24
1.97
1.78
1.68
1.60
1.45
1.17
0.74
0.22
-0.31
-0.77
-1.15
-1.52
-1.95
-2.46
-3.05
-3.59
-4.00
-4.18
-4.06
-3.63
-2.89
-1.89
-0.73
0.45
1.49
2.30
2.83
3.18
3.43
3.69
3.97
4.24
4.44
4.55
4.56
4.52
4.43
4.29
4.09
3.78
3.37
2.89
2.43
2.06
1.84
1.74
1.71
1.64
1.45
1.11
0.65
0.14
-0.38
-0.85
-1.23
-1.49
-1.57
-1.42
-1.06
-0.58
-0.11
0.15
0.10
-0.29
-0.90
-1.55
-2.02
-2.20
-2.03
-1.56
-0.84
0.12
1.29
2.66
4.14
5.59
6.85
7.74
8.19
8.22
7.91
7.38
6.74
6.06
5.41
4.86
4.47
4.29
4.32
4.45
4.52
4.31
3.65
2.51
1.02
-0.56
-1.92
-2.86
-3.32
-3.41
-3.30
-3.14
-2.99
-2.88
-2.83
-2.90
-3.18
-3.71
-4.46
-5.27
-5.96
-6.35
-6.35
-5.99
-5.38
-4.66
-3.91
-3.16
-2.38
-1.54
-0.61
0.34
1.19
1.70
1.64
0.84
-0.65
-2.53
-4.33
-5.54
-5.87
-5.38
-4.51
-3.89
-4.08
-5.33
-7.45
-9.95
-12.21
-13.75
-14.33
-13.95
-12.70
-10.80
-8.57
-6.38
-4.51
-2.92
-1.01
2.37
8.43
17.81
29.90
42.71
53.41
59.38
59.27
53.55
44.15
33.62
24.01
16.30
10.35
5.46
1.01
-3.20
-7.00
-10.16
-12.70
-14.92
-17.28
-20.04
-23.06
-25.79
-27.51
-27.76
-26.53
-24.24
-21.59
-19.24
-17.70
-17.03
-16.93
-16.96
-16.79
-16.24
-15.27
-13.88
-12.18
-10.61
-9.50
-8.96
-8.80
-8.61
-7.86
-6.10
-3.10
0.96
5.22
8.96
11.79
13.58
14.11
13.06
10.10
5.17
-1.39
-9.35
-17.84
-25.63
-31.49
-34.64
-34.80
-31.98
-26.38
-15.26
1.21
20.03
36.72
47.49
49.71
41.98
24.91
1.58
-22.84
-43.18
-55.20
-57.34
-50.62
-37.85
-22.07
-5.25
11.71
28.26
43.37
56.18
65.50
70.96
73.09
72.88
71.29
68.64
64.57
56.86
46.42
34.72
23.31
13.28
4.37
-3.55
-10.36
-15.40
-17.70
-16.04
-10.30
-1.50
8.32
16.87
22.47
24.49
23.27
19.64
14.80
9.68
4.85
0.48
-3.46
-7.03
-10.26
-13.14
-15.64
-17.69
-19.45
-21.20
-23.21
-25.67
-28.56
-31.73
-34.90
-37.73
-39.85
-41.13
-41.72
-41.87
-41.81
-41.57
-40.95
-39.59
-37.10
-33.24
-28.06
-21.91
-15.32
-8.84
-2.90
2.16
6.16
8.99
10.65
11.22
10.86
9.73
7.99
5.73
3.05
0.08
-2.93
-5.66
-7.77
-9.04
-9.40
-8.92
-7.67
-5.68
-2.84
0.95
5.67
10.97
16.12
20.28
22.80
23.60
23.24
22.51
21.96
21.47
20.44
18.24
14.90
11.22
8.42
7.34
7.89
9.02
9.35
7.95
4.73
0.27
-4.78
-10.19
-16.12
-22.64
-29.19
-34.49
-36.89
-35.19
-29.22
-20.07
-9.74
-0.32
6.71
11.08
13.61
15.84
19.24
24.58
31.60
39.09
45.41
49.17
49.79
47.73
44.39
41.55
40.74
42.70
47.14
52.80
57.82
60.32
58.79
52.54
41.82
27.73
11.98
-3.55
-17.19
-27.88
-35.31
-39.87
-42.38
-43.73
-44.61
-45.25
-45.51
-44.96
-43.19
-39.97
-35.43
-30.01
-24.36
-19.17
-14.93
-11.88
-9.99
-8.99
-8.58
-8.39
-8.14
-7.63
-6.79
-5.65
-4.39
-3.21
-2.31
-1.81
-1.72
-1.92
-2.30
-2.79
-3.36
-3.98
-4.55
-4.87
-4.71
-4.00
-2.90
-1.79
-1.06
-0.86
-1.01
-1.11
-0.79
0.07
1.31
2.60
3.58
4.08
4.10
3.79
3.22
2.42
1.46
0.46
-0.31
-0.73
-0.65
0.15
1.91
4.72
8.25
11.75
14.24
14.81
12.82
8.44
2.77
-2.47
-5.70
-6.11
-3.89
0.06
4.36
7.24
7.42
4.77
0.39
-3.91
-6.40
-6.35
-4.16
-1.55
-1.28
-5.62
-14.83
-26.92
-38.84
-48.21
-53.94
-56.08
-51.50
-38.47
-19.38
-1.68
5.71
-3.41
-29.28
-64.74
-96.89
-111.98
-102.21
-69.16
-22.79
23.67
59.51
80.51
89.15
91.39
92.49
94.17
95.46
94.63
91.33
86.41
80.92
74.80
66.80
55.42
39.96
21.32
2.12
-14.35
-25.58
-30.66
-30.25
-26.05
-20.08
-14.42
-10.65
-9.64
-11.34
-14.84
-18.76
-21.69
-22.77
-21.58
-18.58
-14.79
-11.40
-9.27
-8.59
-8.78
-8.78
-7.46
-4.17
0.97
7.17
13.15
17.71
20.19
20.62
19.57
17.89
16.55
16.38
17.98
21.31
25.81
30.49
34.33
36.65
37.42
37.40
37.90
40.25
44.79
50.39
54.55
54.09
46.18
29.65
5.53
-23.09
-50.31
-70.49
-80.79
-81.88
-76.74
-68.77
-60.10
-51.38
-42.32
-32.79
-23.58
-15.95
-10.83
-8.19
-7.18
-6.31
-4.23
-0.24
5.35
11.44
16.76
20.44
22.37
22.83
22.72
22.18
22.01
22.19
22.19
21.41
19.53
16.70
13.05
9.26
5.84
3.04
0.64
-1.86
-4.94
-8.96
-11.81
-14.25
-16.46
-18.31
-19.59
-20.23
-20.28
-19.85
-19.04
-17.93
-16.92
-15.94
-14.94
-13.87
-12.77
-11.69
-10.65
-9.64
-8.64
-7.90
-7.34
-6.89
-6.49
-6.11
-5.77
-5.47
-5.22
-5.02
-5.03
-5.20
-5.49
-5.87
-6.30
-6.79
-7.34
-7.98
-8.71
-9.61
-10.68
-11.88
-13.20
-14.62
-16.10
-17.66
-19.31
-21.08
-22.98
-25.03
-27.22
-29.89
-32.83
-35.87
-38.99
-42.16
-45.31
-48.30
-50.90
-52.86
-53.84
-53.87
-52.30
-48.81
-43.23
-35.57
-26.01
-14.90
-2.70
10.50
23.57
35.79
46.55
55.40
62.17
66.81
69.60
70.94
71.28
70.99
70.48
69.89
69.23
68.49
67.62
66.75
66.08
65.79
65.83
66.05
66.03
65.20
63.09
59.43
54.44
48.61
42.58
36.75
31.21
25.65
19.45
12.13
3.53
-5.72
-14.60
-22.09
-27.71
-31.82
-35.58
-40.55
-47.20
-56.22
-66.61
-76.40
-83.63
-86.98
-86.59
-83.79
-80.71
-79.45
-81.55
-87.47
-96.41
-105.95
-112.19
-110.92
-98.28
-73.62
-40.15
-4.23
27.19
49.42
61.67
67.04
70.66
77.36
89.49
106.31
124.31
138.99
146.23
143.82
132.27
114.76
95.89
79.77
68.02
59.83
52.72
44.17
33.18
20.09
6.01
-8.40
-22.87
-38.48
-55.72
-73.78
-90.72
-104.14
-112.51
-115.70
-115.02
-112.50
-110.16
-108.89
-108.29
-108.07
-105.89
-100.50
-91.58
-79.74
-66.03
-51.65
-37.26
-22.96
-8.58
6.11
20.76
34.63
46.78
56.40
63.02
66.62
67.53
66.05
62.44
56.54
48.37
38.24
27.03
15.99
6.47
-0.54
-5.07
-8.14
-11.69
-17.71
-27.47
-40.96
-57.03
-74.11
-90.47
-105.27
-118.67
-131.60
-145.18
-160.42
-178.03
-197.99
-218.91
-237.01
-246.98
-243.53
-223.44
-187.54
-141.06
-92.05
-48.43
-15.33
6.86
20.79
30.07
37.40
43.87
49.82
56.30
66.15
79.04
96.62
119.83
148.14
179.47
210.29
236.61
254.87
262.70
259.42
246.87
228.02
206.11
183.72
162.26
142.03
122.80
104.43
87.17
72.02
59.57
49.57
41.08
32.85
24.13
15.00
6.36
-0.56
-4.60
-5.69
-5.07
-4.74
-6.79
-12.47
-21.79
-33.55
-45.66
-55.55
-60.84
-59.80
-51.88
-38.15
-21.31
-5.12
6.72
11.89
10.36
4.18
-3.58
-10.25
-14.70
-17.26
-18.79
-19.94
-20.50
-19.82
-17.58
-14.25
-10.93
-8.88
-8.44
-8.73
-7.95
-4.26
3.31
14.14
26.04
36.04
41.19
39.99
33.09
23.25
14.62
11.24
15.54
27.61
45.13
62.96
75.26
76.88
65.12
41.10
9.61
-22.33
-47.62
-61.10
-62.53
-54.74
-42.65
-31.26
-24.07
-22.52
-26.24
-33.66
-41.77
-49.09
-52.87
-50.29
-39.50
-20.68
3.45
28.10
47.96
60.40
63.62
60.42
55.61
53.61
56.35
62.39
68.31
63.64
56.29
47.25
42.00
47.27
68.20
105.46
153.97
203.75
242.97
262.97
257.53
227.67
179.81
123.19
67.40
20.45
-12.41
-29.14
-30.07
-20.47
-9.08
-3.94
-9.79
-25.72
-46.34
-65.66
-80.38
-89.85
-96.93
-104.57
-113.83
-124.18
-133.98
-141.25
-144.44
-143.24
-137.07
-127.83
-118.35
-111.23
-107.99
-108.55
-110.68
-112.29
-112.53
-112.05
-113.27
-118.08
-126.21
-135.23
-141.89
-143.82
-141.37
-137.65
-136.22
-139.49
-146.83
-154.45
-157.17
-150.44
-132.58
-103.17
-64.07
-18.60
28.19
70.49
102.82
121.15
122.30
107.98
84.14
57.80
34.38
14.67
-4.46
-27.16
-55.08
-84.37
-108.19
-119.00
-112.25
-87.63
-50.13
-7.40
33.62
69.15
99.40
127.04
154.93
178.70
195.73
203.90
202.81
194.55
182.89
171.58
162.47
154.93
146.45
134.94
119.41
100.95
82.44
67.24
57.53
53.13
51.61
49.40
44.06
34.86
23.36
12.76
6.33
5.68
9.86
15.66
19.21
18.01
11.79
2.76
-5.45
-9.39
-6.91
2.03
15.38
29.22
38.37
37.12
21.04
-10.67
-53.19
-96.41
-127.97
-138.03
-123.66
-89.96
-47.82
-8.77
19.79
36.74
45.80
52.31
59.95
69.11
77.28
80.56
75.89
61.46
38.48
10.42
-17.91
-41.97
-59.02
-69.00
-73.66
-75.18
-74.76
-72.11
-66.38
-57.54
-47.20
-38.19
-33.10
-32.79
-35.88
-39.51
-40.78
-38.01
-31.59
-23.52
-16.34
-11.99
-10.98
-12.35
-14.30
-14.96
-13.25
-9.28
-4.08
0.92
4.58
6.46
6.92
6.85
7.20
8.61
11.18
14.52
18.00
21.00
23.22
24.72
25.87
27.10
28.85
31.21
33.94
36.45
38.02
38.05
36.25
32.81
28.12
22.91
17.72
12.70
7.44
1.32
-6.24
-15.27
-24.63
-33.31
-39.80
-43.04
-42.99
-40.71
-38.02
-36.71
-37.98
-41.23
-44.95
-47.15
-46.28
-42.07
-35.66
-29.15
-24.88
-24.52
-28.85
-37.16
-46.80
-53.53
-52.30
-38.93
-11.93
25.93
67.54
103.23
123.89
124.50
105.93
74.43
38.85
7.16
-16.20
-30.80
-38.86
-43.01
-44.71
-44.00
-40.55
-34.98
-29.31
-26.48
-28.63
-35.76
-45.54
-54.31
-59.08
-58.58
-54.07
-48.59
-45.34
-46.48
-52.58
-62.81
-75.28
-87.28
-95.31
-95.67
-85.56
-64.56
-35.46
-3.79
24.03
43.26
52.52
53.79
50.71
46.47
42.41
38.11
32.65
25.90
18.91
13.27
10.07
9.10
9.00
8.07
4.95
-0.58
-7.64
-14.78
-20.73
-24.88
-27.51
-29.46
-31.66
-34.64
-38.11
-41.11
-42.28
-40.50
-35.16
-26.45
-14.97
-1.84
11.70
24.49
35.62
44.34
49.91
51.65
49.04
41.97
30.61
15.70
-1.53
-19.82
-37.06
-51.55
-61.94
-67.31
-67.23
-61.83
-51.58
-37.28
-19.99
-0.91
18.63
37.43
53.58
66.60
76.24
82.54
85.74
86.23
84.58
81.30
76.90
71.83
66.58
61.33
56.24
51.40
46.83
42.52
38.47
34.61
30.94
27.96
25.32
22.95
20.77
18.78
16.98
15.33
13.81
12.42
11.17
10.05
9.09
8.34
7.82
7.52
7.39
7.33
7.29
7.20
7.07
6.95
6.96
7.14
7.52
8.06
8.65
9.22
9.66
9.98
10.24
10.52
10.82
11.00
10.80
9.89
8.20
5.31
1.23
-3.76
-9.14
-14.35
-19.08
-23.29
-27.13
-30.74
-34.17
-37.02
-38.60
-38.15
-35.10
-29.61
-22.53
-15.16
-8.74
-4.03
-0.85
1.72
4.98
10.18
17.44
25.94
34.17
40.80
45.05
47.20
48.32
49.77
52.98
58.65
67.16
78.32
90.77
101.42
105.71
98.97
76.95
42.43
2.07
-35.57
-63.27
-77.90
-81.05
-77.29
-71.31
-65.81
-60.72
-55.15
-48.51
-41.43
-35.38
-31.62
-30.35
-30.61
-30.87
-29.38
-25.66
-20.18
-14.13
-8.86
-5.35
-3.94
-4.31
-5.66
-6.97
-7.65
-7.53
-7.17
-7.15
-8.32
-11.43
-16.94
-24.69
-33.87
-43.32
-51.79
-57.96
-61.98
-64.51
-66.44
-68.66
-71.76
-76.15
-82.21
-89.96
-98.35
-104.77
-105.22
-95.94
-75.40
-45.79
-12.68
17.00
37.86
48.14
49.72
46.53
42.20
38.50
35.32
31.75
27.48
23.22
20.26
19.44
20.55
22.40
23.53
22.73
19.87
15.82
11.83
8.99
7.77
7.84
8.38
8.43
7.56
5.75
3.75
2.43
2.54
4.41
7.83
12.25
16.93
21.28
24.95
28.03
30.55
32.65
34.48
36.11
37.61
39.03
40.42
41.00
41.29
41.31
41.03
40.45
39.72
39.09
38.88
39.28
40.28
41.71
43.07
43.87
43.74
42.64
40.95
39.48
39.38
41.61
46.55
52.62
57.08
56.83
49.64
35.38
16.17
-4.40
-22.49
-35.53
-42.51
-43.85
-41.13
-36.71
-33.12
-32.54
-35.98
-42.69
-50.14
-55.06
-54.74
-48.42
-37.59
-25.10
-13.85
-5.72
-1.18
0.52
0.75
1.02
2.50
5.56
9.58
12.95
13.59
9.94
1.81
-9.35
-21.00
-30.20
-35.66
-37.54
-36.99
-35.19
-32.74
-29.58
-25.55
-20.85
-16.21
-12.68
-10.82
-10.50
-10.90
-10.93
-9.78
-7.26
-3.84
-0.38
2.25
3.60
3.78
3.33
2.94
3.11
4.05
5.61
7.46
9.17
10.52
11.42
11.82
11.88
11.69
11.29
10.80
10.34
9.88
9.38
8.41
6.57
3.39
-1.39
-7.53
-14.30
-20.66
-25.70
-28.81
-30.12
-30.35
-30.45
-31.17
-32.64
-34.27
-35.17
-34.85
-33.19
-31.02
-29.61
-30.21
-33.64
-40.30
-50.21
-62.24
-75.15
-85.74
-89.68
-83.10
-64.58
-36.47
-4.49
24.40
44.81
54.86
56.54
53.71
49.90
46.73
43.93
40.55
36.27
31.86
28.59
27.38
27.99
29.23
29.64
28.17
24.74
20.24
16.00
13.13
12.12
12.60
13.58
13.97
13.04
10.74
7.66
4.67
2.52
1.54
1.53
1.92
2.05
1.47
0.11
-1.73
-3.58
-5.00
-5.78
-5.98
-5.89
-5.85
-6.18
-6.99
-8.16
-9.45
-10.46
-10.92
-10.64
-9.65
-8.11
-6.29
-4.38
-2.24
0.25
3.54
7.93
13.52
20.03
26.79
32.86
37.50
40.32
41.45
41.60
41.42
41.42
41.61
41.54
40.45
37.97
34.22
29.27
24.71
21.55
20.38
21.32
24.67
29.79
35.84
41.20
43.45
40.23
30.35
15.10
-1.80
-15.67
-23.10
-23.60
-19.71
-15.52
-14.13
-16.36
-20.45
-23.53
-23.51
-20.25
-15.24
-10.55
-7.52
-6.12
-5.49
-4.34
-1.67
2.81
8.76
15.54
22.39
28.55
33.29
35.74
35.30
32.17
27.54
23.44
22.03
24.63
31.04
39.49
47.04
50.88
49.38
42.48
31.59
18.94
6.59
-4.51
-13.36
-20.92
-30.29
-45.77
-71.12
-107.14
-150.23
-192.95
-226.46
-243.90
-243.14
-226.93
-200.81
-170.38
-139.08
-108.01
-77.24
-47.63
-21.42
-1.64
9.84
13.87
14.09
15.53
22.25
35.43
52.84
69.84
81.41
84.61
79.92
70.88
62.32
58.03
58.71
61.87
63.13
58.40
46.01
27.47
6.57
-12.27
-25.86
-32.92
-33.74
-29.34
-20.94
-10.03
1.34
10.62
15.42
14.58
8.97
1.32
-4.86
-6.86
-3.85
2.87
10.79
17.42
21.21
21.72
19.23
13.98
5.79
-5.88
-21.24
-39.50
-58.35
-74.29
-83.86
-84.72
-76.15
-58.80
-34.57
-6.15
23.28
50.43
72.42
86.71
91.87
88.41
79.14
67.95
58.31
52.09
49.45
49.68
51.00
51.53
50.23
47.10
41.89
34.14
23.72
12.64
5.65
7.00
17.68
33.69
47.15
49.15
34.56
4.19
-38.53
-83.22
-119.44
-143.47
-160.32
-173.05
-178.10
-167.85
-137.03
-84.92
-17.20
54.92
119.45
168.11
198.91
214.46
219.43
215.87
205.23
188.17
164.35
134.01
98.68
61.89
23.29
-6.65
-28.21
-42.30
-50.19
-53.11
-51.17
-44.22
-32.20
-16.00
2.31
17.72
26.60
27.02
18.59
2.63
-19.85
-49.74
-85.29
-121.77
-154.21
-176.88
-185.07
-180.35
-162.63
-133.11
-94.56
-50.31
-3.19
43.29
85.23
119.30
142.88
154.76
154.19
141.64
119.56
91.90
62.69
35.84
14.48
0.57
-4.79
-2.07
7.12
20.59
35.59
49.18
59.23
65.19
68.18
70.76
75.30
83.13
94.23
107.21
119.72
129.10
132.89
128.97
115.58
91.68
57.33
14.22
-34.38
-84.62
-133.48
-180.21
-226.65
-275.77
-328.77
-382.69
-429.69
-459.11
-461.63
-433.23
-376.87
-300.99
-216.42
-133.09
-58.61
1.69
44.77
70.55
83.09
90.76
104.05
131.14
173.64
224.72
271.60
301.26
306.08
287.10
252.83
214.55
180.84
154.19
131.00
104.18
67.26
17.58
-42.25
-105.04
-161.22
-201.43
-219.06
-211.97
-183.11
-139.27
-89.54
-43.11
-6.96
15.83
26.28
28.30
26.71
25.59
28.17
36.36
50.20
67.85
85.86
99.76
104.82
97.00
74.67
40.93
2.91
-30.95
-54.07
-64.53
-65.86
-65.67
-72.36
-90.67
-117.75
-144.20
-158.62
-152.56
-123.36
-74.19
-12.09
56.86
119.56
162.67
180.63
176.68
157.55
129.53
97.92
69.08
45.40
29.25
23.11
27.70
40.59
56.74
70.66
78.28
78.13
71.26
60.79
51.04
45.48
45.14
48.34
51.68
51.50
45.10
31.41
11.68
-10.62
-31.37
-47.28
-57.05
-61.29
-61.86
-60.70
-59.14
-57.36
-54.75
-51.34
-47.64
-44.50
-42.75
-42.94
-45.34
-49.88
-56.08
-63.06
-70.62
-78.13
-84.51
-88.64
-90.04
-89.00
-86.19
-82.14
-77.13
-72.62
-69.71
-68.79
-69.53
-71.28
-73.08
-73.84
-72.83
-62.96
-43.31
-19.20
1.35
13.55
17.62
16.49
13.22
10.03
8.48
8.90
11.95
18.35
27.71
37.88
45.88
49.98
51.14
52.47
56.12
62.56
70.22
76.53
79.18
77.23
71.61
64.84
59.61
56.91
56.25
56.26
55.33
52.14
45.72
36.38
26.13
17.87
13.95
15.12
20.01
25.43
27.91
24.72
14.86
0.70
-12.32
-17.94
-11.89
6.08
31.13
54.98
66.76
57.62
25.35
-24.40
-79.49
-125.00
-147.27
-138.13
-96.81
-32.49
38.92
100.66
139.32
148.44
129.06
88.37
33.17
-19.93
-55.67
-71.12
-73.36
-71.09
-67.48
-60.95
-48.65
-31.76
-13.37
0.95
6.75
3.22
-10.19
-28.41
-44.43
-52.52
-53.14
-49.76
-48.25
-53.54
-67.65
-92.31
-125.84
-162.67
-197.01
-229.58
-254.23
-266.05
-259.32
-215.57
-137.12
-48.00
21.16
70.57
107.04
134.82
158.54
183.24
211.23
238.69
249.04
234.14
200.45
160.98
127.20
103.29
87.42
74.67
59.06
38.92
19.37
7.33
4.35
7.98
14.20
19.42
21.14
17.25
8.25
-1.36
-6.52
-6.21
-2.24
2.78
6.78
8.59
7.46
3.88
0.37
-0.57
1.27
4.62
7.99
10.49
11.82
11.99
11.41
11.38
13.08
16.57
20.82
24.18
24.90
21.65
14.02
2.94
-9.25
-19.67
-25.91
-26.96
-23.49
-17.57
-11.63
-7.62
-6.40
-7.68
-10.62
-14.49
-18.84
-23.20
-26.53
-27.09
-23.06
-13.63
-0.09
14.20
24.95
28.79
24.82
15.04
3.29
-6.50
-11.96
-12.93
-10.86
-7.80
-5.33
-3.89
-2.96
-1.64
0.67
3.97
7.57
10.25
10.76
7.96
1.20
-9.42
-22.89
-37.34
-50.37
-60.04
-65.46
-66.93
-65.71
-63.47
-61.79
-61.66
-63.01
-64.50
-63.71
-57.99
-45.61
-26.92
-4.53
17.59
35.95
48.86
56.58
60.40
60.98
58.07
51.11
40.52
28.56
18.84
14.61
17.13
24.92
34.61
42.69
46.93
46.85
43.48
38.40
32.88
27.66
22.81
18.20
13.94
10.32
7.60
5.26
1.97
-3.61
-11.47
-19.39
-23.40
-19.79
-7.47
11.12
30.87
46.59
55.61
58.97
59.40
58.66
55.73
47.60
31.49
7.84
-19.15
-43.27
-59.27
-65.39
-63.45
-56.70
-49.56
-44.15
-40.34
-36.76
-32.20
-26.46
-20.46
-15.55
-12.73
-12.17
-12.90
-13.52
-12.78
-10.35
-6.74
-3.15
-0.82
-0.46
-2.02
-4.54
-7.05
-8.50
-8.92
-9.13
-10.30
-13.38
-18.52
-24.97
-31.25
-35.98
-38.38
-38.71
-37.74
-36.36
-35.22
-34.45
-33.89
-33.21
-32.26
-30.58
-28.66
-26.72
-24.98
-23.88
-24.29
-27.25
-33.28
-41.29
-48.46
-50.40
-43.20
-25.55
0.14
28.29
52.29
66.93
70.96
66.95
59.21
51.51
45.48
40.69
35.94
30.69
25.55
21.83
20.42
21.09
22.66
23.67
22.96
20.44
16.85
13.44
11.18
10.46
11.00
12.06
12.84
12.89
12.23
11.17
10.13
9.40
9.03
8.93
9.00
9.24
9.80
10.79
12.18
13.68
15.01
15.95
16.60
17.40
18.69
20.89
24.22
28.83
34.65
41.13
46.92
49.93
47.91
39.40
24.81
6.60
-11.51
-26.02
-35.08
-38.94
-39.39
-38.44
-37.28
-35.84
-33.52
-29.99
-25.74
-21.90
-19.57
-19.18
-20.30
-21.89
-22.81
-22.42
-20.75
-18.49
-16.48
-15.39
-15.43
-16.24
-16.99
-16.73
-15.04
-12.20
-9.19
-6.94
-6.08
-6.43
-7.06
-6.69
-3.80
2.48
12.11
24.15
37.48
50.78
62.58
71.08
74.30
70.56
59.24
42.21
21.61
1.03
-15.87
-26.70
-30.97
-29.84
-25.26
-19.19
-13.27
-9.21
-8.48
-12.14
-19.90
-29.65
-37.84
-40.99
-37.53
-28.54
-17.48
-8.08
-2.67
-1.18
-1.68
-1.84
-0.38
2.43
5.23
6.56
5.89
3.29
-0.30
-3.71
-5.93
-6.39
-5.01
-2.10
1.79
6.19
10.75
15.35
19.88
24.05
27.39
29.37
29.70
28.51
26.35
23.92
21.76
20.13
18.86
17.65
16.08
13.94
11.15
7.82
4.21
0.59
-2.80
-6.15
-9.53
-12.92
-16.35
-19.64
-21.94
-21.66
-17.82
-9.53
2.67
16.68
29.58
38.80
43.17
42.60
38.54
33.28
29.05
27.06
27.32
29.05
31.14
32.39
31.43
26.78
17.41
3.93
-11.42
-25.74
-36.83
-43.97
-47.79
-49.66
-50.69
-51.20
-50.68
-48.64
-45.07
-40.63
-36.29
-32.76
-30.14
-27.99
-25.67
-22.72
-19.23
-15.67
-12.53
-10.12
-8.44
-7.29
-6.42
-5.67
-4.80
-3.74
-2.50
-1.07
0.49
2.02
3.23
3.79
3.47
2.48
1.26
0.42
0.47
1.54
3.14
4.32
3.98
0.95
-4.45
-11.43
-18.74
-25.37
-30.78
-35.24
-39.56
-44.00
-49.64
-56.88
-65.94
-76.59
-87.44
-95.60
-97.03
-88.01
-67.22
-37.12
-3.41
26.87
48.26
58.94
60.84
57.96
53.95
50.58
47.59
44.14
39.84
35.37
32.01
30.64
31.08
32.31
32.87
31.63
28.59
24.53
20.64
17.93
16.85
17.12
17.98
18.59
18.38
17.33
15.75
14.11
12.81
12.05
11.84
12.11
12.78
13.77
15.01
16.27
17.24
17.63
17.39
16.85
16.66
17.56
20.03
24.03
29.08
34.16
38.34
41.26
43.16
44.81
47.09
50.80
56.49
64.27
73.52
82.37
87.77
86.04
74.21
51.57
20.64
-13.29
-43.92
-65.82
-77.14
-79.38
-76.02
-70.48
-64.75
-59.26
-53.62
-47.71
-42.04
-37.64
-35.12
-34.33
-34.30
-33.76
-31.81
-28.25
-23.77
-19.24
-15.66
-13.53
-12.81
-12.90
-13.06
-12.64
-11.34
-9.19
-6.52
-3.85
-1.67
-0.38
-0.09
-0.65
-1.69
-2.67
-3.05
-2.51
-1.22
0.17
0.48
-1.17
-5.32
-11.81
-19.72
-27.73
-34.78
-40.32
-44.20
-47.55
-51.25
-55.98
-62.20
-70.20
-79.77
-89.62
-97.16
-98.25
-89.34
-69.05
-39.66
-6.74
22.85
43.80
54.30
56.15
53.28
49.15
45.57
42.40
38.76
34.31
29.74
26.30
24.83
25.11
25.92
25.92
24.04
20.31
15.63
11.31
8.43
7.41
7.90
8.98
9.81
9.90
9.55
9.24
9.62
11.04
13.37
16.12
18.62
20.49
21.68
22.52
23.35
24.42
25.58
26.42
26.54
25.78
24.44
23.13
22.56
23.10
24.62
26.52
28.08
28.83
28.86
28.84
29.67
32.13
36.61
43.10
51.04
59.28
65.90
68.52
64.96
54.22
37.26
16.97
-2.75
-18.51
-28.72
-33.94
-36.16
-37.33
-38.26
-38.46
-36.89
-32.97
-27.17
-20.88
-15.82
-13.14
-13.09
-15.15
-18.49
-22.48
-26.91
-31.82
-37.32
-43.93
-52.32
-62.64
-73.88
-83.65
-88.78
-86.34
-75.07
-56.08
-32.64
-8.85
11.86
27.69
39.04
47.08
52.81
56.54
58.07
57.00
53.25
47.29
39.91
31.96
23.84
15.68
7.35
-1.08
-9.29
-16.72
-22.65
-26.64
-28.60
-28.92
-27.29
-24.14
-19.92
-15.17
-10.61
-6.94
-4.83
-4.46
-5.35
-6.48
-6.86
-5.88
-3.66
-0.95
1.69
3.93
5.95
8.27
11.37
15.29
19.65
23.73
25.95
25.88
23.76
20.27
16.26
12.43
9.02
5.98
3.04
0.00
-2.94
-5.46
-7.15
-7.68
-7.03
-5.49
-3.58
-1.82
-0.58
0.12
0.28
-0.06
-0.87
-2.07
-3.55
-5.12
-6.55
-7.61
-8.03
-7.66
-6.44
-4.49
-2.09
0.33
2.28
3.35
3.40
2.60
1.34
0.05
-0.93
-1.46
-1.63
-1.61
-1.54
-1.52
-1.53
-1.56
-1.58
-1.65
-1.82
-2.13
-2.57
-3.05
-3.50
-3.83
-4.03
-4.13
-4.15
-4.11
-4.02
-3.89
-3.72
-3.50
-3.21
-2.84
-2.40
-1.96
-1.58
-1.27
-1.01
-0.71
-0.31
0.16
0.58
0.84
0.91
0.95
1.20
1.88
3.03
4.45
5.78
6.63
6.78
6.26
5.27
4.14
3.10
2.29
1.67
1.18
0.75
0.39
0.19
0.20
0.40
0.69
0.89
0.84
0.50
-0.07
-0.73
-1.34
-1.79
-2.05
-2.13
-2.06
-1.89
-1.68
-1.48
-1.37
-1.36
-1.43
-1.48
-1.40
-1.14
-0.72
-0.28
0.04
0.11
-0.08
-0.45
-0.84
-1.07
-1.06
-0.80
-0.43
-0.09
0.08
0.06
-0.12
-0.37
-0.60
-0.82
-1.05
-1.37
-1.80
-2.32
-2.85
-3.33
-3.71
-4.04
-4.36
-4.77
-5.26
-5.81
-6.34
-6.74
-6.91
-6.78
-6.33
-5.61
-4.75
-3.88
-3.17
-2.73
-2.55
-2.53
-2.46
-2.22
-1.79
-1.28
-0.91
-0.81
-0.99
-1.23
-1.26
-0.82
0.19
1.71
3.55
5.52
7.45
9.17
10.47
11.17
11.13
10.39
9.20
7.90
6.76
5.91
5.22
4.51
3.70
2.86
2.25
2.07
2.37
2.97
3.56
3.87
3.76
3.26
2.45
1.44
0.29
-0.92
-2.08
-3.03
-3.63
-3.78
-3.54
-3.08
-2.58
-2.20
-1.98
-1.88
-1.80
-1.63
-1.31
-0.80
-0.07
0.88
2.07
3.43
4.83
6.08
6.95
7.29
7.06
6.31
5.17
3.76
2.17
0.50
-1.17
-2.75
-4.15
-5.30
-6.18
-6.78
-7.09
-7.05
-6.62
-5.82
-4.75
-3.58
-2.46
-1.52
-0.76
-0.13
0.44
0.99
1.52
1.96
2.27
2.46
2.60
2.81
3.17
3.68
4.24
4.68
4.82
4.59
3.99
3.13
2.16
1.20
0.37
-0.25
-0.54
-0.42
0.14
1.06
2.13
3.12
3.82
4.17
4.22
4.08
3.86
3.64
3.41
3.16
2.89
2.62
2.37
2.14
1.94
1.74
1.53
1.29
1.05
0.80
0.58
0.42
0.35
0.37
0.45
0.51
0.46
0.25
-0.13
-0.64
-1.20
-1.73
-2.20
-2.59
-2.93
-3.23
-3.48
-3.67
-3.78
-3.86
-3.91
-3.95
-3.94
-3.80
-3.48
-2.97
-2.35
-1.73
-1.21
-0.83
-0.57
-0.36
-0.18
-0.05
0.00
0.00
0.01
0.10
0.29
0.52
0.66
0.65
0.47
0.22
0.02
-0.05
-0.02
0.03
-0.03
-0.26
-0.65
-1.11
-1.54
-1.86
-2.02
-2.03
-1.91
-1.69
-1.46
-1.27
-1.19
-1.25
-1.42
-1.65
-1.85
-1.96
-2.01
-2.04
-2.15
-2.37
-2.64
-2.79
-2.63
-2.01
-0.88
0.69
2.51
4.37
6.08
7.55
8.78
9.83
10.78
11.76
12.89
14.13
15.38
16.44
17.18
17.54
17.59
17.53
17.72
18.51
20.03
22.14
24.45
26.48
27.79
28.15
27.55
26.26
24.70
23.20
22.01
21.22
20.69
19.83
17.47
12.00
2.61
-9.69
-22.25
-32.01
-37.03
-36.94
-32.82
-26.50
-20.05
-15.20
-13.32
-15.32
-21.43
-30.93
-42.05
-52.36
-59.81
-63.52
-64.07
-63.01
-61.99
-61.80
-62.18
-62.28
-61.29
-59.05
-56.22
-53.71
-52.32
-52.56
-54.71
-59.00
-64.94
-70.54
-72.23
-65.77
-48.24
-19.91
15.04
50.03
78.68
96.77
103.82
102.54
96.92
90.25
84.06
77.58
71.16
64.95
59.53
55.63
53.48
52.56
51.91
50.61
48.42
46.12
44.82
45.38
47.64
50.02
49.94
44.86
33.71
17.63
-0.23
-16.20
-27.50
-33.23
-34.39
-33.08
-31.26
-29.99
-29.31
-28.66
-27.64
-26.24
-24.79
-23.51
-22.45
-21.41
-20.03
-18.04
-15.41
-12.44
-9.63
-7.45
-6.11
-5.55
-5.35
-5.00
-4.13
-2.64
-0.76
1.11
2.60
3.50
3.85
3.85
3.79
3.97
4.61
5.79
7.44
9.30
11.00
12.16
12.56
12.29
11.76
11.53
12.12
13.73
16.13
18.73
20.83
21.86
21.60
20.29
18.54
17.19
17.01
18.52
21.72
26.03
30.15
32.33
30.70
23.87
11.73
-4.24
-21.44
-37.05
-48.90
-56.14
-59.07
-58.66
-55.99
-51.84
-46.89
-41.89
-37.72
-35.19
-34.67
-35.76
-37.34
-38.06
-36.90
-33.92
-30.15
-27.17
-26.29
-27.94
-31.41
-35.13
-37.51
-37.54
-35.39
-32.20
-29.45
-28.45
-30.18
-35.17
-43.18
-52.93
-61.02
-63.30
-56.02
-37.77
-10.71
19.74
46.85
64.98
72.50
71.56
66.20
60.07
54.88
50.43
45.88
40.98
36.58
34.05
34.11
36.15
38.56
39.61
38.22
34.71
30.41
27.07
25.98
27.38
30.29
33.38
35.10
34.82
32.88
30.34
28.49
28.39
30.58
34.84
40.12
44.52
45.77
41.88
32.06
17.25
0.11
-16.00
-28.27
-35.45
-38.06
-37.77
-36.20
-34.27
-32.04
-29.17
-25.57
-21.65
-18.09
-15.47
-13.78
-12.55
-11.19
-9.32
-7.04
-4.83
-3.19
-2.36
-2.22
-2.37
-2.36
-2.00
-1.37
-0.73
-0.29
-0.03
0.21
0.58
1.15
1.84
2.61
3.56
4.98
7.10
9.74
11.95
12.39
10.17
5.52
-0.12
-4.77
-7.08
-7.02
-5.69
-4.68
-4.73
-5.04
-3.71
1.04
9.74
21.24
33.52
44.93
54.64
62.69
69.20
73.36
73.16
66.06
50.22
25.32
-4.62
-33.56
-55.95
-68.89
-72.72
-70.21
-64.79
-59.00
-53.79
-48.76
-43.43
-37.85
-32.61
-28.47
-25.84
-24.51
-23.77
-22.73
-20.64
-17.51
-13.89
-10.59
-8.26
-7.09
-6.82
-6.86
-6.59
-5.55
-3.80
-1.74
0.08
1.27
1.74
1.67
1.43
1.39
1.77
2.56
3.50
4.34
4.87
5.08
5.07
5.01
5.05
5.29
5.70
6.20
6.68
7.06
7.35
7.57
7.78
8.03
8.32
8.68
9.10
9.57
10.00
10.47
10.98
11.55
12.17
12.83
13.54
14.31
15.14
16.05
17.02
18.06
19.16
20.30
21.41
22.42
23.23
23.71
23.74
23.08
21.72
19.60
16.74
13.21
9.14
4.71
0.15
-3.98
-7.73
-10.93
-13.48
-15.30
-16.42
-16.89
-16.82
-16.50
-15.88
-15.11
-14.26
-13.37
-12.51
-11.67
-10.88
-10.12
-9.41
-8.69
-8.01
-7.36
-6.74
-6.14
-5.58
-5.04
-4.54
-4.05
-3.58
-3.15
-2.76
-2.40
-2.06
-1.77
-1.50
-1.26
-1.04
-0.82
-0.64
-0.48
-0.33
-0.19
-0.07
0.04
0.13
0.21
0.28
0.34
0.39
0.41
0.43
0.42
0.38
0.33
0.25
0.18
0.11
0.02
-0.11
-0.31
-0.62
-1.04
-1.53
-2.04
-2.52
-2.96
-3.38
-3.81
-4.30
-4.89
-5.57
-6.25
-6.91
-7.49
-8.01
-8.55
-9.16
-9.94
-10.98
-12.21
-13.50
-14.70
-15.69
-16.46
-17.13
-17.87
-18.88
-20.26
-21.74
-22.85
-23.00
-21.73
-18.86
-14.99
-10.37
-5.56
-1.10
2.98
6.97
11.14
15.53
19.69
22.71
23.57
21.52
16.31
8.79
0.28
-7.94
-15.28
-21.92
-28.70
-36.54
-44.78
-53.83
-63.45
-73.61
-84.61
-96.29
-106.89
-112.85
-109.83
-94.83
-68.33
-34.29
1.30
33.20
59.02
79.04
94.62
105.53
109.51
103.83
88.13
65.92
43.72
28.10
22.45
25.39
32.31
38.26
40.31
38.92
36.54
35.46
36.23
37.48
36.93
33.45
27.80
22.21
19.27
20.46
25.06
30.42
33.02
29.47
17.97
-1.56
-27.54
-56.84
-85.00
-106.97
-118.36
-115.14
-99.42
-76.54
-53.08
-34.22
-21.74
-14.15
-8.29
-1.67
6.12
13.97
21.05
27.71
35.65
47.05
63.44
85.02
110.41
136.75
159.48
173.52
174.40
159.92
131.62
94.64
56.20
22.80
-2.15
-19.04
-30.36
-38.29
-42.93
-42.50
-35.41
-22.35
-6.97
5.30
9.64
4.08
-10.23
-30.67
-53.59
-76.97
-100.20
-122.83
-143.39
-159.05
-166.44
-163.24
-149.42
-127.55
-102.39
-79.55
-64.18
-59.82
-67.60
-85.77
-110.06
-134.63
-153.67
-163.39
-162.92
-154.22
-140.93
-126.82
-114.51
-105.17
-98.77
-94.56
-91.71
-89.34
-86.49
-82.10
-75.29
-65.57
-53.32
-39.84
-27.05
-17.32
-12.36
-12.82
-18.13
-26.91
-37.53
-48.88
-60.54
-72.68
-85.86
-99.99
-113.98
-125.88
-133.53
-135.40
-131.32
-122.56
-111.04
-99.30
-88.36
-77.58
-64.86
-47.67
-24.35
5.08
38.87
75.11
110.20
142.30
170.97
196.74
220.69
244.35
269.50
297.87
332.01
368.82
404.64
434.36
452.57
455.51
442.46
415.76
379.26
338.95
292.84
240.35
182.58
123.27
69.29
28.81
8.05
8.21
28.26
55.49
80.94
101.32
118.40
137.65
165.01
203.91
230.69
269.31
307.41
335.01
345.06
333.15
299.36
249.13
192.24
139.64
103.10
80.83
53.43
6.51
-65.91
-157.55
-253.53
-339.01
-405.76
-450.25
-479.25
-496.29
-501.89
-493.80
-469.80
-430.37
-379.36
-322.51
-263.17
-205.49
-150.64
-94.96
-34.56
31.29
98.23
157.87
201.18
223.44
223.90
207.92
184.70
162.31
144.96
132.94
124.38
117.30
110.89
104.18
96.54
88.53
82.08
80.61
88.33
107.98
138.46
174.17
205.98
224.73
225.13
207.41
176.51
139.64
103.66
72.96
49.09
30.77
15.37
0.56
-15.20
-32.99
-53.20
-75.49
-98.88
-121.59
-142.85
-162.99
-183.38
-206.38
-234.93
-270.31
-310.32
-348.61
-375.15
-380.89
-360.18
-312.69
-244.44
-167.42
-95.76
-41.45
-10.79
-2.19
-10.08
-26.52
-43.69
-49.79
-37.07
-4.53
41.62
85.63
123.34
154.29
178.07
195.56
206.16
208.96
204.36
194.35
182.18
171.93
164.84
160.04
155.86
150.58
142.90
132.72
121.30
110.87
104.33
102.43
104.23
108.07
112.09
114.70
115.23
114.06
112.34
111.83
112.92
114.88
116.43
116.13
112.89
106.43
97.35
86.85
76.35
66.41
56.56
45.81
33.02
17.47
-0.70
-20.53
-40.59
-59.52
-76.66
-92.21
-106.83
-121.31
-136.41
-152.73
-170.76
-190.40
-210.29
-227.36
-237.37
-236.44
-223.17
-199.95
-172.60
-148.38
-133.08
-128.90
-134.24
-145.18
-157.65
-169.17
-179.16
-188.13
-196.65
-205.04
-213.64
-223.43
-236.10
-253.04
-274.32
-297.52
-317.60
-328.11
-323.36
-300.49
-260.76
-209.31
-153.35
-99.98
-54.23
-18.21
8.38
27.26
40.45
49.77
56.98
63.86
71.97
81.93
92.93
102.58
108.05
107.39
100.63
89.98
78.80
70.26
66.20
66.85
70.93
76.35
80.51
80.69
74.60
61.03
40.82
17.10
-5.16
-20.72
-26.01
-20.53
-7.42
7.61
17.97
18.63
7.63
-13.23
-38.98
-63.34
-80.72
-88.26
-86.53
-78.88
-69.69
-62.38
-58.13
-55.66
-52.10
-44.33
-30.12
-8.68
19.28
51.69
85.24
115.89
139.64
153.57
156.93
151.61
141.62
131.89
126.52
127.86
135.95
149.17
164.91
180.16
192.09
198.06
195.94
184.34
163.27
134.41
100.98
67.25
37.58
15.50
2.94
-0.11
4.31
12.72
21.31
27.08
28.79
27.29
24.75
23.15
22.82
21.94
17.54
7.26
-9.09
-29.41
-50.74
-71.17
-91.12
-112.71
-138.09
-166.94
-195.71
-219.04
-232.27
-233.83
-225.42
-210.97
-194.52
-179.38
-166.82
-156.50
-147.92
-141.34
-137.65
-137.26
-139.57
-142.77
-146.51
-150.37
-154.46
-159.34
-166.33
-177.01
-191.81
-210.80
-233.20
-261.16
-295.78
-335.93
-377.64
-414.84
-440.91
-449.42
-437.74
-406.97
-365.66
-322.79
-284.33
-252.22
-225.79
-204.05
-186.05
-173.40
-143.28
-88.00
-15.18
57.38
115.04
153.24
168.98
172.26
169.63
164.73
155.70
141.86
126.38
113.29
106.01
105.78
112.61
123.88
136.90
146.68
150.41
148.37
143.08
137.58
133.90
133.53
135.93
140.34
144.19
145.93
145.70
144.92
145.47
148.69
155.68
166.24
179.84
194.90
210.10
224.85
239.07
253.13
267.50
283.31
301.91
325.01
353.41
386.09
419.69
448.49
465.91
466.35
447.20
409.49
357.71
298.34
238.22
183.26
137.59
103.42
80.93
68.45
62.79
60.12
56.89
50.78
41.22
28.94
15.34
1.63
-11.78
-25.14
-38.94
-53.06
-66.59
-78.00
-85.82
-89.33
-88.64
-84.61
-78.19
-70.16
-61.07
-51.44
-41.85
-32.89
-25.04
-18.63
-14.03
-11.80
-12.59
-16.63
-23.32
-31.02
-37.64
-41.30
-41.13
-37.42
-31.23
-23.93
-16.49
-9.54
-3.30
2.14
6.58
9.74
11.31
11.09
9.25
6.38
3.38
1.10
-0.06
-0.37
-0.57
-1.42
-3.18
-5.50
-7.61
-8.90
-9.19
-8.78
-8.46
-9.51
-13.42
-21.59
-34.64
-51.77
-70.71
-88.19
-101.13
-107.54
-106.84
-99.75
-87.81
-72.87
-56.98
-42.06
-29.69
-20.38
-13.45
-7.46
-1.13
5.37
10.37
11.42
6.94
-2.64
-14.82
-26.11
-33.55
-35.69
-32.68
-25.75
-16.30
-5.70
4.64
13.25
18.51
19.26
15.46
8.17
-0.65
-9.03
-15.51
-19.54
-21.23
-21.06
-19.58
-17.16
-14.35
-11.75
-10.11
-10.13
-12.15
-15.96
-20.70
-25.24
-28.67
-31.02
-33.10
-35.96
-40.18
-44.99
-48.40
-48.31
-43.58
-34.75
-24.05
-13.99
-6.26
-1.03
3.04
7.61
13.61
20.70
27.48
32.34
34.46
34.29
33.13
32.56
33.39
35.33
37.40
38.55
38.49
37.67
36.84
36.24
35.35
32.98
28.12
20.51
10.72
-0.20
-11.45
-22.45
-32.68
-41.18
-46.55
-47.82
-45.15
-40.32
-36.23
-35.70
-40.37
-49.94
-62.43
-75.34
-86.77
-96.09
-103.98
-111.67
-120.09
-129.31
-138.03
-143.92
-144.31
-137.35
-123.03
-103.54
-82.89
-65.56
-55.15
-53.05
-57.72
-65.51
-72.20
-74.71
-72.14
-65.95
-58.88
-53.79
-52.29
-53.58
-55.55
-56.01
-53.65
-48.13
-39.65
-28.61
-15.27
0.13
18.87
41.67
67.92
95.81
123.28
149.11
173.04
195.26
215.69
236.33
258.10
280.25
300.65
316.94
327.67
332.28
330.56
322.63
312.91
306.57
307.76
318.02
336.20
359.41
383.77
405.24
399.61
352.84
266.47
157.91
49.16
-44.88
-119.12
-174.87
-215.70
-245.11
-262.40
-266.89
-259.99
-245.99
-230.49
-217.95
-210.70
-209.02
-211.76
-214.60
-213.80
-207.88
-198.24
-187.76
-178.99
-173.28
-170.80
-170.96
-171.28
-169.63
-165.15
-158.67
-151.78
-145.63
-140.49
-135.80
-130.59
-123.54
-112.84
-97.52
-78.04
-55.74
-32.16
-8.69
13.55
33.69
51.37
66.59
79.72
90.78
99.78
106.93
112.61
117.32
121.46
125.25
128.85
132.62
136.19
138.84
139.57
137.42
131.55
121.30
106.32
83.86
55.49
23.78
-8.64
-40.00
-69.08
-95.28
-118.67
-139.52
-157.31
-170.89
-179.37
-181.99
-179.03
-171.50
-160.08
-145.77
-129.76
-111.75
-91.03
-67.08
-39.67
-10.28
19.38
47.23
71.21
89.68
103.76
115.41
127.16
141.85
160.88
186.30
219.84
261.81
302.74
333.44
343.49
325.08
284.87
228.74
165.17
103.07
49.12
2.59
-35.02
-63.90
-84.81
-97.85
-104.00
-103.67
-98.82
-92.60
-88.68
-88.90
-94.58
-106.05
-122.65
-144.40
-169.29
-194.25
-215.31
-228.26
-228.83
-215.11
-187.69
-149.47
-105.54
-60.92
-19.65
15.75
44.34
65.79
79.64
85.80
84.85
77.73
65.94
51.19
34.65
17.11
-0.72
-17.94
-33.21
-45.00
-52.16
-54.29
-51.51
-45.26
-36.62
-26.12
-13.54
2.15
22.63
49.80
85.09
128.74
177.88
226.40
266.05
288.95
290.55
271.41
237.05
193.35
148.36
108.24
75.64
50.09
29.51
12.07
-3.27
-16.78
-28.38
-37.23
-41.99
-40.59
-30.84
-12.45
12.07
36.55
52.98
54.44
38.33
7.45
-31.18
-68.71
-98.69
-118.40
-129.38
-135.83
-142.83
-154.90
-175.13
-204.47
-240.10
-276.04
-302.85
-311.24
-295.98
-259.47
-212.12
-168.65
-142.50
-139.87
-159.22
-186.53
-205.41
-202.79
-175.14
-129.27
-76.62
-31.69
2.71
26.27
38.02
35.34
16.45
-16.03
-54.64
-88.10
-105.49
-100.21
-74.03
-34.89
6.39
40.89
64.08
76.54
82.83
88.15
96.58
108.63
122.18
133.42
138.39
133.95
119.48
98.12
75.20
57.58
51.11
59.56
83.59
120.63
164.64
207.80
242.62
262.69
264.99
250.87
226.19
199.70
180.39
173.81
175.66
178.49
173.05
152.64
116.23
68.40
16.71
-28.09
-61.95
-82.84
-89.00
-80.14
-58.11
-27.39
4.11
26.17
30.84
15.57
-14.33
-48.03
-75.16
-89.98
-92.68
-87.48
-79.27
-70.99
-63.76
-57.19
-50.83
-45.23
-41.24
-39.20
-38.59
-38.27
-36.75
-33.42
-28.33
-22.24
-16.53
-12.36
-10.10
-9.32
-8.98
-7.87
-5.35
-1.35
3.57
8.36
12.19
14.72
16.20
17.34
18.96
21.46
24.93
28.99
32.86
35.88
37.66
37.98
36.97
34.72
31.14
26.07
19.30
10.51
-0.26
-12.67
-26.27
-40.39
-54.31
-67.48
-79.21
-88.62
-95.18
-98.12
-97.01
-91.60
-81.92
-68.36
-51.90
-33.59
-13.15
7.18
26.00
42.39
55.90
66.19
73.58
77.91
79.42
79.00
77.32
75.58
74.85
76.19
80.40
87.30
95.52
103.93
112.64
120.89
128.27
134.21
138.77
142.25
143.41
140.20
131.56
119.38
104.64
88.68
72.29
56.60
41.75
28.43
14.33
-2.47
-20.22
-38.76
-57.20
-75.01
-90.22
-101.29
-111.05
-124.62
-145.81
-173.34
-207.82
-249.46
-299.72
-358.18
-401.40
-410.31
-377.51
-338.98
-308.14
-293.53
-288.33
-294.17
-311.42
-336.77
-365.36
-391.69
-390.03
-342.56
-253.73
-144.30
-38.93
47.82
106.75
141.86
154.47
145.10
117.06
74.30
25.59
-18.48
-47.38
-55.70
-45.84
-26.73
-7.58
5.84
11.20
11.13
10.37
14.38
26.71
47.83
75.21
106.15
138.65
171.39
204.74
239.18
274.10
306.59
331.88
344.37
340.86
321.27
288.25
246.40
200.39
154.70
113.71
82.40
65.40
65.74
82.02
107.50
131.67
142.96
133.25
101.52
55.15
7.48
-27.36
-39.93
-28.83
0.66
38.80
75.48
103.02
117.26
116.81
101.89
73.52
33.86
-11.63
-56.48
-94.72
-122.11
-136.12
-135.38
-119.71
-90.77
-52.36
-7.87
38.51
82.96
122.91
157.83
188.71
216.32
240.14
245.28
223.00
175.11
113.62
52.78
1.78
-36.81
-64.85
-85.92
-103.37
-117.08
-125.98
-129.46
-128.25
-123.94
-118.27
-112.69
-108.35
-105.92
-103.92
-100.76
-95.66
-89.12
-82.23
-76.03
-71.19
-68.02
-66.57
-65.63
-64.08
-61.49
-58.19
-54.95
-52.40
-50.90
-50.56
-51.41
-52.73
-53.95
-54.84
-55.50
-56.21
-57.21
-58.66
-60.71
-63.47
-66.79
-70.50
-74.49
-78.55
-82.27
-85.23
-86.99
-87.23
-86.05
-82.90
-77.27
-68.50
-55.80
-38.60
-16.90
8.57
36.20
63.30
87.67
107.65
122.68
133.26
140.51
145.57
149.14
151.12
150.84
147.93
142.24
134.55
126.20
118.59
112.76
109.45
109.05
111.37
115.78
119.13
117.13
105.50
81.95
47.95
8.83
-28.04
-56.19
-72.44
-77.85
-76.14
-71.48
-66.55
-62.04
-57.49
-52.68
-48.14
-44.88
-43.59
-43.84
-44.34
-43.74
-41.19
-37.00
-32.35
-28.64
-26.66
-26.30
-26.58
-26.20
-24.41
-21.24
-17.59
-14.70
-13.43
-13.74
-14.64
-14.89
-13.34
-9.77
-4.79
0.32
4.06
4.84
1.39
-6.89
-19.09
-32.34
-42.34
-44.84
-37.82
-22.69
-4.57
10.16
16.68
13.78
3.87
-8.73
-20.19
-28.96
-35.57
-41.41
-47.40
-53.30
-58.07
-60.96
-62.08
-62.34
-62.72
-63.88
-65.18
-65.18
-62.13
-54.73
-42.66
-26.76
-8.75
9.32
25.35
38.43
48.46
55.85
61.19
64.88
67.04
67.55
66.26
63.63
59.81
55.36
50.93
46.99
43.76
41.14
38.87
36.59
34.10
31.38
28.59
25.89
23.45
21.32
19.46
17.79
16.22
14.69
13.20
11.79
10.48
9.31
8.28
7.38
6.59
5.91
5.33
4.84
4.45
4.15
3.96
3.85
3.80
3.80
3.87
4.02
4.32
4.83
5.67
7.00
8.94
11.55
14.84
18.69
23.12
27.61
31.61
34.60
36.11
35.79
33.44
29.08
22.94
14.88
6.02
-2.93
-11.36
-18.79
-24.86
-29.40
-32.39
-33.95
-34.21
-33.43
-32.01
-30.24
-28.36
-26.53
-24.84
-23.28
-21.83
-20.42
-18.92
-17.37
-15.82
-14.38
-13.13
-12.09
-11.22
-10.38
-9.42
-8.21
-6.77
-5.20
-3.72
-2.58
-1.87
-1.52
-1.32
-1.09
-0.78
-0.62
-1.01
-2.48
-5.42
-9.79
-14.98
-19.83
-23.17
-23.96
-21.60
-16.16
-8.17
1.60
12.31
23.35
34.30
44.73
54.20
62.26
68.68
73.30
75.77
75.18
70.19
59.68
43.60
23.61
2.88
-14.93
-27.21
-33.34
-34.84
-34.22
-33.49
-33.33
-33.10
-31.88
-29.37
-26.20
-23.45
-21.85
-21.22
-20.75
-19.66
-17.57
-14.93
-12.59
-11.30
-11.30
-12.34
-13.92
-15.64
-17.27
-18.63
-19.66
-20.39
-20.93
-21.53
-22.28
-23.09
-23.54
-23.25
-21.99
-19.99
-17.79
-15.93
-14.83
-14.72
-15.70
-17.82
-21.21
-25.53
-29.91
-33.11
-34.02
-32.23
-28.11
-22.34
-15.23
-6.29
5.49
20.71
38.68
57.12
72.90
83.36
87.36
85.63
80.17
73.12
65.80
58.34
50.11
40.44
29.35
17.77
7.17
-1.07
-6.31
-8.96
-10.22
-11.47
-13.85
-18.08
-24.57
-33.54
-44.90
-57.70
-69.96
-78.77
-81.35
-76.20
-63.92
-47.04
-28.86
-11.99
2.48
14.73
25.29
33.94
39.53
40.71
36.89
29.05
19.58
11.21
5.81
3.75
4.08
5.32
6.48
7.48
8.96
11.73
16.15
21.60
26.85
30.49
31.60
30.16
26.86
22.85
19.14
16.21
13.99
12.06
9.86
6.86
2.70
-2.88
-9.85
-17.77
-25.70
-32.39
-36.69
-38.07
-36.94
-34.49
-32.26
-31.47
-32.59
-35.31
-38.84
-42.50
-46.03
-49.69
-53.77
-58.04
-61.32
-61.54
-56.45
-44.56
-25.90
-2.26
23.23
47.15
66.79
80.74
88.85
91.78
90.37
85.40
77.54
67.62
56.73
46.17
37.12
30.26
25.61
22.51
19.98
17.05
13.22
8.51
3.42
-1.51
-5.91
-9.78
-13.40
-17.10
-21.15
-25.51
-29.93
-33.86
-36.58
-37.44
-36.03
-32.40
-27.14
-21.22
-15.67
-11.26
-8.25
-6.34
-4.93
-3.39
-1.15
2.24
7.12
13.70
21.86
31.09
40.55
49.22
56.16
60.77
62.92
62.93
61.40
58.99
56.34
54.00
52.31
51.21
50.27
48.79
46.21
42.28
37.13
31.25
25.49
20.60
16.94
14.25
11.94
9.40
6.26
2.36
-2.09
-6.43
-9.89
-11.82
-12.12
-11.47
-11.53
-15.15
-26.11
-48.05
-80.90
-119.71
-155.36
-179.08
-186.82
-179.98
-163.49
-143.32
-124.45
-109.76
-100.20
-95.16
-92.83
-89.99
-82.10
-64.64
-35.25
4.43
48.46
88.15
115.27
125.19
118.68
101.13
79.76
60.40
45.74
35.62
28.44
22.97
18.93
16.75
16.61
17.70
18.20
16.30
11.37
4.15
-3.35
-8.82
-10.25
-6.48
2.54
15.93
31.86
47.96
61.31
69.06
68.98
60.18
43.87
23.43
3.75
-10.47
-15.51
-11.31
-1.03
10.34
18.03
19.40
14.55
5.77
-4.09
-12.85
-19.97
-25.42
-29.09
-30.48
-28.66
-23.04
-14.08
-3.50
6.17
12.35
13.61
10.12
3.54
-3.73
-9.63
-13.25
-14.86
-15.33
-15.47
-15.36
-14.45
-12.12
-8.28
-3.74
0.11
2.03
1.51
-1.07
-4.66
-8.03
-10.34
-11.33
-11.24
-10.24
-8.23
-4.98
-0.53
4.79
10.54
16.36
21.93
26.82
30.20
31.48
30.51
27.58
23.40
18.77
14.30
9.94
4.99
-0.58
-5.22
-6.47
-2.38
6.92
18.75
28.89
33.15
28.52
15.04
-4.61
-27.22
-51.54
-79.28
-113.90
-153.33
-190.18
-215.87
-224.15
-213.06
-183.97
-140.61
-87.90
-30.99
24.44
77.04
122.34
154.78
170.15
167.51
149.92
123.90
97.64
74.88
60.02
53.10
50.93
49.20
44.60
35.83
23.85
11.24
1.06
-3.73
-2.48
4.23
14.98
27.63
39.49
47.87
51.14
49.45
45.11
40.34
37.01
36.10
37.38
39.75
41.92
43.00
42.72
41.46
38.90
34.74
28.75
20.85
11.07
-0.59
-14.34
-30.67
-50.49
-74.62
-101.69
-126.80
-142.19
-140.18
-116.84
-74.63
-22.30
27.75
63.85
79.74
76.21
58.75
33.56
4.35
-28.04
-60.76
-87.43
-102.03
-102.84
-92.42
-75.59
-57.65
-43.43
-35.75
-34.74
-38.74
-45.49
-52.56
-57.63
-58.96
-55.63
-47.52
-35.09
-18.89
-0.03
19.67
38.24
53.92
65.26
71.28
72.45
69.15
63.01
55.95
49.44
44.48
41.39
39.80
38.97
37.76
34.92
29.61
21.29
9.83
-3.81
-18.03
-31.07
-40.54
-44.86
-44.02
-39.03
-31.62
-23.68
-16.48
-9.70
-2.71
5.62
16.33
29.65
44.44
58.16
65.03
62.66
52.19
37.55
23.65
13.67
7.88
4.30
0.81
-2.85
-4.28
-0.82
7.97
19.35
28.40
30.64
24.66
12.72
-0.81
-11.64
-18.11
-21.19
-22.66
-23.45
-23.09
-20.59
-16.05
-11.43
-9.39
-11.75
-17.97
-24.63
-27.14
-22.00
-8.37
11.86
35.05
57.47
76.18
88.96
94.16
90.51
77.77
57.62
34.06
12.32
-2.84
-9.47
-9.59
-7.57
-8.56
-15.89
-29.63
-46.63
-62.31
-72.70
-75.39
-71.67
-64.03
-55.00
-46.06
-37.52
-29.22
-21.27
-14.29
-9.25
-6.93
-7.05
-8.52
-9.88
-9.95
-8.27
-5.28
-2.00
0.38
1.18
0.53
-0.91
-2.19
-2.59
-1.82
-0.19
1.65
3.03
3.49
3.07
2.17
1.31
0.91
1.14
1.86
2.73
3.41
3.71
3.62
3.29
2.94
2.75
2.77
3.00
3.30
3.62
3.87
4.05
4.20
4.36
4.57
4.86
5.22
5.63
6.11
6.63
7.20
7.78
8.39
9.03
9.74
10.56
11.53
12.78
14.41
16.49
19.07
22.13
25.54
29.10
32.51
35.29
37.13
37.66
36.64
33.93
29.59
23.82
16.99
9.79
2.55
-4.22
-10.13
-14.91
-18.42
-20.67
-21.79
-22.16
-21.81
-21.03
-20.01
-18.87
-17.73
-16.63
-15.60
-14.64
-13.74
-12.83
-11.95
-11.10
-10.28
-9.49
-8.74
-8.02
-7.34
-6.68
-6.03
-5.42
-4.84
-4.29
-3.77
-3.29
-2.85
-2.44
-2.06
-1.69
-1.35
-1.04
-0.75
-0.49
-0.25
-0.05
0.12
0.25
0.36
0.43
0.47
0.47
0.46
0.41
0.36
0.29
0.22
0.16
0.10
0.04
-0.01
-0.06
-0.11
-0.16
-0.22
-0.30
-0.40
-0.53
-0.68
-0.88
-1.11
-1.37
-1.68
-2.02
-2.41
-2.85
-3.35
-3.91
-4.53
-5.21
-5.95
-6.72
-7.56
-8.43
-9.36
-10.37
-11.51
-12.79
-14.22
-15.78
-17.40
-19.03
-20.62
-22.18
-23.75
-25.41
-27.21
-29.22
-31.42
-33.77
-36.23
-38.73
-41.18
-43.46
-45.43
-46.75
-47.34
-46.28
-42.69
-35.94
-25.55
-11.54
5.53
24.62
44.38
63.82
81.18
95.34
105.41
111.25
112.58
109.12
100.76
87.74
70.95
51.86
32.50
14.72
0.17
-10.47
-17.55
-22.20
-25.74
-29.19
-32.91
-36.42
-39.31
-41.05
-41.80
-42.45
-44.23
-48.35
-55.73
-67.09
-81.06
-97.74
-114.88
-128.28
-132.90
-124.98
-104.18
-74.29
-42.44
-16.01
-0.14
4.71
1.69
-4.43
-9.88
-13.27
-15.08
-16.87
-19.67
-23.53
-27.33
-29.76
-29.78
-26.77
-21.00
-12.20
-0.51
13.62
29.50
46.68
64.85
84.17
105.42
128.54
154.07
180.32
203.02
215.96
213.46
192.65
155.22
108.35
59.73
18.14
-9.52
-19.49
-11.70
10.19
39.22
66.55
83.30
83.44
66.43
36.94
3.07
-27.20
-49.42
-63.92
-73.81
-82.10
-89.16
-91.96
-86.53
-71.02
-47.87
-22.85
-4.13
3.10
-1.32
-13.07
-25.97
-35.54
-41.02
-44.86
-50.29
-58.89
-69.25
-78.03
-82.19
-80.71
-75.24
-69.22
-66.47
-69.00
-76.18
-84.94
-91.33
-92.10
-86.01
-74.36
-59.32
-43.23
-27.43
-11.57
5.96
26.86
51.95
80.25
110.37
140.27
167.03
186.80
195.25
188.88
166.88
132.40
92.06
54.10
25.03
7.44
-0.22
-1.80
-0.99
0.35
2.34
5.33
9.17
12.56
13.78
12.04
8.13
4.13
2.20
3.66
7.97
13.24
17.12
17.82
15.06
9.98
4.57
0.50
-1.54
-2.20
-2.78
-4.80
-9.31
-16.85
-27.55
-40.89
-55.33
-68.04
-75.39
-74.06
-62.93
-44.12
-22.43
-4.38
5.29
5.04
-3.21
-15.76
-28.74
-39.69
-47.64
-52.18
-52.46
-47.02
-34.39
-15.16
7.16
26.82
37.79
36.68
24.75
7.47
-7.15
-12.87
-7.90
4.85
19.96
32.54
40.41
44.35
46.70
49.27
52.33
54.88
55.68
54.37
51.63
48.72
46.86
46.23
46.08
44.93
41.35
34.47
24.58
12.98
1.46
-8.46
-16.09
-21.67
-26.20
-30.75
-35.94
-41.53
-46.60
-49.97
-50.82
-49.20
-46.03
-42.82
-40.96
-41.18
-43.18
-45.83
-47.68
-47.66
-45.55
-42.09
-38.62
-36.45
-36.41
-38.84
-43.49
-49.50
-55.19
-58.13
-55.67
-45.94
-28.90
-6.84
16.05
35.33
47.96
53.28
52.84
49.43
45.62
42.65
40.15
36.72
31.11
23.31
14.69
7.42
3.42
3.44
6.83
11.72
15.87
17.65
16.63
13.55
9.68
6.12
3.70
2.91
4.34
8.00
13.24
19.07
24.56
28.94
31.38
31.23
28.35
23.57
18.65
16.30
19.37
29.67
46.55
65.81
80.27
83.59
74.17
55.46
33.00
11.43
-6.80
-21.22
-32.54
-41.30
-47.38
-50.33
-50.10
-47.48
-43.75
-40.24
-37.90
-37.11
-37.57
-38.35
-38.47
-37.47
-35.60
-33.57
-32.14
-31.81
-32.76
-34.64
-36.84
-38.68
-39.90
-40.63
-41.31
-42.41
-44.25
-46.96
-50.36
-54.13
-57.94
-61.62
-65.11
-68.51
-71.82
-75.02
-77.97
-80.32
-81.65
-81.67
-80.17
-76.98
-72.59
-66.96
-60.20
-52.47
-43.86
-34.43
-24.17
-13.06
-0.84
12.43
26.58
41.30
56.16
70.66
84.23
96.37
105.11
110.69
113.33
113.35
111.13
107.12
101.83
95.65
88.99
82.21
75.79
69.77
64.17
58.94
54.05
49.41
44.96
40.71
36.61
32.85
29.41
26.19
23.18
20.39
17.80
15.34
13.05
10.89
8.98
7.67
6.60
5.67
4.84
4.09
3.39
2.78
2.29
1.98
1.88
1.89
2.07
2.43
2.96
3.61
4.42
5.41
6.60
7.93
9.29
10.59
11.71
12.80
13.36
13.14
12.01
9.84
6.63
2.45
-2.51
-7.96
-13.61
-19.17
-24.29
-28.70
-32.23
-34.80
-36.46
-37.30
-37.51
-37.27
-36.86
-36.38
-35.95
-35.65
-35.53
-35.64
-35.96
-36.53
-37.34
-38.44
-39.72
-41.12
-42.61
-44.19
-45.89
-47.74
-49.80
-52.20
-55.10
-58.35
-61.89
-65.70
-69.78
-74.15
-78.84
-83.88
-89.41
-95.61
-102.18
-108.98
-115.95
-123.06
-130.34
-137.80
-145.45
-153.40
-161.80
-170.08
-177.86
-184.76
-190.38
-194.25
-195.71
-193.83
-187.07
-178.29
-168.34
-157.80
-147.06
-136.41
-126.10
-116.29
-107.15
-98.87
-91.70
-85.21
-79.15
-73.31
-67.57
-61.86
-56.20
-50.70
-45.57
-41.12
-37.11
-33.48
-30.10
-26.88
-23.73
-20.61
-17.58
-14.79
-12.41
-10.26
-8.15
-5.81
-2.96
0.59
4.89
9.76
14.84
19.73
24.33
28.78
33.42
38.77
45.23
52.94
61.66
70.88
80.02
88.83
97.45
106.52
116.82
129.04
143.39
159.53
176.73
194.19
211.35
228.40
245.83
264.18
284.01
305.88
330.31
357.31
385.67
412.56
434.09
446.12
445.69
432.29
408.16
377.47
344.71
313.19
284.39
258.98
236.90
217.82
201.39
187.23
174.84
163.47
152.29
140.79
130.61
123.24
119.22
117.76
117.48
117.19
116.20
114.28
111.67
112.20
118.55
130.58
145.52
159.96
171.81
180.69
187.42
193.33
204.87
225.87
255.27
287.77
317.32
340.35
356.22
366.12
371.74
381.32
399.69
425.52
451.91
470.67
475.97
465.08
437.44
350.96
190.76
-24.99
-252.51
-449.68
-595.45
-689.14
-740.47
-761.54
-762.95
-745.97
-712.25
-667.41
-620.39
-579.01
-546.51
-522.02
-502.45
-485.00
-462.88
-432.52
-395.91
-359.26
-328.72
-306.92
-291.95
-278.18
-258.49
-223.74
-169.99
-100.88
-27.16
38.69
87.65
116.92
129.39
130.93
125.59
119.64
114.15
106.89
96.14
82.54
68.69
57.22
49.35
45.19
44.23
44.17
41.93
34.92
20.26
-3.64
-36.16
-73.92
-111.13
-140.82
-156.48
-157.34
-146.27
-128.28
-108.07
-88.58
-70.86
-55.07
-41.26
-30.41
-23.85
-21.61
-22.44
-24.27
-25.11
-23.74
-20.23
-15.49
-10.94
-7.99
-6.94
-7.30
-8.15
-8.64
-8.32
-7.22
-5.62
-3.85
-2.23
-0.79
0.50
1.53
2.00
1.67
0.60
-0.57
-0.63
1.56
6.86
15.15
25.26
35.29
43.46
48.72
51.25
52.26
52.89
53.78
54.32
52.95
47.80
37.89
23.08
4.30
-16.40
-36.21
-51.37
-57.65
-51.53
-32.59
-4.38
24.76
44.23
46.00
27.65
-5.99
-44.84
-77.91
-97.83
-102.88
-95.58
-81.96
-66.27
-50.26
-33.87
-17.07
-1.10
11.77
19.17
20.56
17.24
12.31
8.79
8.67
11.87
16.73
20.96
22.74
21.47
17.90
13.89
11.30
11.24
13.68
17.73
22.24
26.36
29.92
33.43
37.85
43.83
51.42
59.77
67.52
73.15
75.40
73.63
67.87
58.74
47.18
34.34
21.15
8.46
-3.07
-12.97
-20.92
-26.79
-30.64
-32.89
-33.62
-33.26
-32.16
-30.66
-29.01
-27.36
-25.84
-24.52
-23.39
-22.29
-21.19
-20.03
-18.79
-17.51
-16.30
-15.27
-14.50
-13.99
-13.59
-13.16
-12.56
-11.69
-10.69
-9.80
-9.31
-9.44
-10.16
-11.17
-12.08
-12.47
-12.17
-11.41
-10.74
-10.78
-12.00
-14.36
-17.31
-20.02
-21.71
-22.04
-21.43
-20.79
-21.24
-23.54
-27.66
-32.74
-37.45
-40.75
-42.10
-41.90
-41.18
-41.06
-42.44
-45.92
-51.82
-59.96
-68.98
-75.99
-76.97
-68.21
-48.28
-19.44
12.77
41.45
61.23
70.30
70.56
65.95
60.20
55.18
50.79
46.16
40.91
35.71
31.82
30.08
30.27
31.18
31.31
29.53
25.73
20.76
15.95
12.48
10.82
10.62
10.91
10.60
8.96
5.92
2.04
-1.82
-4.95
-7.02
-8.23
-9.12
-10.33
-12.29
-15.00
-18.20
-21.45
-24.44
-27.09
-29.61
-32.37
-35.90
-40.66
-46.75
-54.04
-62.14
-70.44
-78.14
-84.42
-88.19
-88.59
-84.97
-76.99
-64.69
-48.59
-29.66
-9.15
11.51
31.11
48.38
62.44
72.86
79.60
83.00
83.69
82.33
78.53
73.63
68.40
63.27
58.46
54.06
50.08
46.55
43.42
40.65
38.36
36.51
34.96
33.58
32.22
30.68
28.81
26.49
23.97
21.15
18.02
14.61
11.16
7.90
5.02
2.74
1.26
0.61
0.98
2.45
4.86
8.11
11.99
16.12
20.07
23.76
26.39
27.55
27.01
24.65
20.57
15.06
8.50
1.38
-5.79
-12.64
-18.73
-23.74
-27.51
-29.93
-31.10
-31.21
-30.47
-29.25
-27.95
-26.74
-25.76
-25.14
-24.76
-24.64
-24.71
-24.92
-25.22
-25.63
-25.82
-25.51
-24.50
-22.59
-19.96
-17.05
-14.50
-13.22
-13.96
-16.75
-21.18
-26.41
-31.37
-35.23
-37.61
-38.70
-39.26
-40.25
-41.85
-43.85
-45.54
-45.98
-44.55
-41.26
-36.79
-32.49
-29.77
-29.11
-30.20
-32.04
-32.96
-31.01
-24.24
-11.05
9.20
32.28
54.41
71.78
81.69
83.59
79.72
74.52
73.42
80.44
96.84
121.40
150.16
178.03
200.03
212.72
214.51
205.80
187.76
162.29
132.86
103.77
79.80
64.63
59.80
63.49
71.23
76.14
71.28
52.32
18.43
-27.61
-80.94
-135.60
-186.83
-225.63
-244.16
-240.71
-220.05
-189.75
-156.10
-123.76
-92.87
-63.43
-35.75
-10.88
10.38
28.96
44.84
59.69
74.94
90.99
106.21
117.59
120.93
112.31
89.96
55.43
13.81
-28.05
-63.16
-86.71
-96.79
-94.79
-84.54
-70.62
-57.01
-46.01
-38.56
-34.29
-32.02
-29.99
-26.43
-20.27
-11.53
-1.53
7.25
11.50
7.93
-5.75
-29.68
-61.24
-95.28
-125.12
-144.38
-148.94
-138.37
-115.90
-87.22
-58.37
-33.87
-15.85
-4.19
2.58
6.16
7.92
8.84
9.78
11.74
15.75
22.49
31.99
43.51
55.96
68.34
80.18
91.52
102.55
113.03
121.96
127.67
128.26
122.30
109.32
90.05
66.15
39.85
13.40
-11.21
-32.52
-49.42
-61.15
-67.20
-67.29
-61.48
-50.27
-34.68
-16.23
3.24
21.75
37.35
48.33
53.36
51.64
43.06
28.25
8.60
-13.92
-37.02
-58.37
-75.96
-88.33
-94.63
-94.67
-88.78
-77.68
-62.45
-44.37
-24.74
-4.79
14.49
32.29
47.90
60.59
69.58
74.09
73.47
67.46
56.27
40.66
21.84
1.38
-18.93
-37.19
-51.56
-60.50
-63.10
-59.37
-50.33
-37.85
-24.27
-11.86
-2.40
3.09
4.41
1.95
-3.46
-10.74
-18.69
-25.96
-31.15
-32.93
-30.33
-22.88
-10.72
5.28
23.71
42.79
60.58
75.27
85.43
90.16
89.22
83.15
73.06
60.45
46.90
33.79
22.17
12.65
5.40
0.31
-2.81
-4.09
-3.63
-1.66
1.38
5.01
8.75
12.34
15.82
19.48
23.68
28.31
32.56
35.18
35.09
31.71
25.11
15.77
4.80
-6.04
-14.56
-18.57
-16.29
-6.86
9.08
29.17
49.87
67.87
81.24
89.42
92.62
91.07
84.42
71.33
49.67
17.41
-26.05
-75.66
-121.56
-153.81
-167.75
-165.18
-151.78
-133.78
-115.55
-98.76
-83.02
-67.73
-53.30
-41.09
-32.44
-27.78
-26.32
-26.40
-26.00
-23.50
-18.61
-12.41
-6.65
-2.79
-1.30
-1.69
-2.88
-3.60
-2.91
-0.66
2.45
5.32
7.09
7.50
6.84
5.74
4.87
4.73
5.39
6.49
7.51
8.05
8.00
7.50
6.83
6.27
5.99
6.02
6.21
6.37
6.37
6.15
5.79
5.35
4.93
4.57
4.29
4.11
3.98
3.90
3.86
3.85
3.89
3.96
4.00
4.06
4.18
4.33
4.53
4.78
5.07
5.41
5.81
6.25
6.69
7.13
7.60
8.13
8.80
9.70
10.96
12.73
15.19
18.37
22.35
27.05
32.28
37.68
42.69
46.74
49.23
49.62
47.61
43.14
36.43
27.98
18.62
8.97
-0.29
-8.66
-15.77
-21.46
-25.65
-28.38
-29.90
-30.14
-29.42
-28.11
-26.68
-25.57
-25.06
-25.13
-25.54
-25.87
-25.63
-24.74
-23.40
-22.16
-21.67
-22.31
-24.07
-26.39
-28.44
-29.45
-29.16
-27.98
-26.84
-26.81
-28.62
-32.21
-36.76
-40.94
-43.72
-44.62
-44.06
-43.00
-42.56
-43.62
-46.77
-52.38
-60.21
-68.91
-75.53
-76.10
-66.96
-46.89
-18.24
13.40
41.26
60.21
68.68
68.79
64.55
59.63
55.67
52.39
48.68
44.01
38.99
34.97
33.03
33.26
34.70
35.95
35.59
33.15
29.00
24.25
20.21
17.93
17.74
19.23
21.36
22.87
22.82
20.93
17.60
13.89
11.07
10.15
11.44
14.27
17.18
18.46
17.01
12.49
5.75
-1.56
-7.53
-10.48
-9.20
-2.94
8.22
22.84
37.67
48.19
50.10
41.15
23.35
2.02
-16.24
-26.71
-28.45
-24.15
-17.97
-13.03
-9.56
-5.71
0.52
9.42
19.31
27.19
30.51
28.55
22.33
13.62
4.17
-5.12
-13.80
-21.66
-28.52
-34.50
-40.16
-46.18
-52.56
-58.20
-60.95
-58.23
-49.73
-37.13
-23.66
-12.45
-4.62
1.43
8.67
19.31
32.98
46.51
55.83
57.92
52.26
40.50
25.62
10.12
-4.31
-16.22
-24.10
-26.50
-23.41
-17.22
-12.28
-13.09
-21.82
-37.03
-54.27
-68.50
-76.82
-80.02
-81.46
-84.02
-87.44
-88.03
-80.66
-62.19
-33.86
-1.36
27.36
45.47
49.81
42.90
31.00
21.32
17.94
21.58
29.20
35.64
35.65
26.78
10.99
-5.92
-16.64
-15.75
-2.45
18.25
37.55
47.08
43.24
28.51
9.13
-8.96
-23.09
-34.21
-44.98
-57.06
-69.53
-79.29
-82.94
-78.94
-68.63
-55.49
-43.46
-35.41
-32.24
-32.95
-35.48
-37.61
-38.39
-38.39
-39.22
-42.58
-49.53
-59.98
-72.90
-86.97
-100.54
-112.83
-123.78
-133.86
-143.51
-152.96
-161.93
-169.90
-176.66
-181.49
-184.31
-185.26
-184.54
-181.89
-176.49
-166.63
-149.45
-127.63
-102.02
-73.94
-45.26
-18.35
4.22
20.10
27.54
25.79
15.02
-2.74
-25.12
-49.60
-73.87
-95.96
-114.40
-128.19
-136.82
-140.32
-138.46
-131.55
-120.30
-105.69
-88.95
-71.45
-54.67
-40.03
-28.86
-21.62
-18.41
-18.82
-21.99
-26.77
-31.85
-35.97
-38.05
-37.32
-33.12
-25.21
-13.92
-0.07
14.98
29.62
42.15
51.11
55.64
55.66
51.81
45.23
37.32
29.31
22.17
16.50
12.63
10.78
11.13
13.89
19.24
27.13
37.10
48.33
59.74
70.28
79.23
86.48
92.54
98.42
105.14
113.39
123.32
134.56
146.49
158.68
171.09
184.26
199.23
217.36
240.13
268.65
303.07
341.95
381.95
418.24
445.60
460.08
460.26
447.72
426.17
399.83
371.95
344.13
316.58
288.88
261.03
233.56
207.32
182.81
160.05
138.64
118.31
99.23
82.03
67.66
56.86
49.79
45.85
43.74
41.76
38.25
32.18
23.40
12.80
1.92
-7.67
-15.00
-20.10
-24.06
-28.63
-35.66
-46.46
-61.28
-79.04
-97.34
-112.66
-121.33
-120.65
-109.81
-90.60
-66.98
-43.96
-26.08
-16.02
-13.76
-17.00
-22.25
-26.21
-27.03
-24.63
-20.23
-15.59
-12.15
-10.61
-10.96
-12.85
-15.90
-19.81
-24.12
-27.96
-30.14
-29.62
-26.14
-20.78
-15.84
-14.08
-17.60
-26.72
-39.58
-52.54
-61.54
-63.61
-57.95
-45.96
-30.31
-13.61
2.48
17.36
30.94
42.83
51.92
56.62
55.72
49.19
38.39
25.68
13.45
3.29
-4.49
-10.62
-16.27
-22.11
-27.91
-32.53
-34.56
-33.15
-28.60
-22.39
-16.57
-12.92
-12.22
-14.06
-17.26
-20.60
-23.36
-25.50
-27.41
-29.45
-31.64
-33.57
-34.59
-34.20
-32.19
-28.80
-24.61
-20.33
-16.57
-13.71
-11.81
-10.75
-10.39
-10.67
-11.58
-12.98
-14.46
-15.23
-14.32
-10.90
-4.76
3.43
12.15
19.52
23.86
24.32
21.03
14.97
7.55
0.12
-6.30
-11.10
-13.99
-14.94
-14.09
-11.82
-8.76
-5.67
-3.29
-2.14
-2.40
-3.98
-6.59
-9.90
-13.54
-17.22
-20.57
-23.07
-24.16
-23.50
-21.06
-17.27
-12.87
-8.64
-5.26
-3.13
-2.32
-2.68
-3.90
-5.69
-7.75
-9.87
-11.95
-14.04
-16.24
-18.64
-21.15
-23.43
-24.98
-25.32
-24.14
-21.45
-17.57
-13.02
-8.38
-4.22
-0.94
1.26
2.31
2.39
1.85
1.11
0.59
0.45
0.53
0.47
-0.05
-1.17
-2.63
-3.97
-4.73
-4.69
-3.99
-2.98
-1.96
-1.00
0.03
1.35
2.94
4.53
5.68
6.02
5.56
4.70
4.04
3.95
4.38
4.86
4.76
3.71
1.75
-0.61
-2.74
-4.20
-4.96
-5.29
-5.64
-6.34
-7.56
-9.22
-11.12
-12.92
-14.22
-14.59
-13.69
-11.38
-7.81
-3.40
1.27
5.62
9.19
11.76
13.28
13.83
13.59
12.72
11.32
9.48
7.22
4.59
1.65
-1.51
-4.85
-8.31
-11.82
-15.23
-18.34
-20.89
-22.72
-23.82
-24.38
-24.68
-24.88
-24.91
-24.53
-23.42
-21.44
-18.65
-15.37
-11.94
-8.63
-5.48
-2.40
0.67
3.71
6.56
8.90
10.42
10.89
10.19
8.44
5.96
3.22
0.73
-1.12
-2.19
-2.57
-2.51
-2.31
-2.15
-2.12
-2.18
-2.31
-2.46
-2.66
-2.91
-3.23
-3.63
-4.09
-4.57
-4.96
-5.12
-4.89
-4.21
-3.12
-1.80
-0.51
0.49
1.08
1.23
0.98
0.45
-0.29
-1.24
-2.36
-3.62
-4.89
-5.97
-6.65
-6.76
-6.28
-5.34
-4.24
-3.27
-2.71
-2.69
-3.21
-4.14
-5.24
-6.25
-6.90
-6.98
-6.38
-5.10
-3.32
-1.27
0.73
2.41
3.52
3.92
3.55
2.45
0.70
-1.53
-3.99
-6.44
-8.58
-10.14
-10.92
-10.81
-9.84
-8.14
-5.94
-3.47
-1.01
1.24
3.09
4.38
5.02
4.97
4.31
3.21
1.90
0.60
-0.55
-1.47
-2.16
-2.69
-3.10
-3.37
-3.44
-3.23
-2.72
-1.88
-0.63
1.26
4.02
7.82
12.56
17.84
22.93
26.97
29.27
29.63
28.40
26.20
23.56
20.65
17.35
13.48
9.09
4.62
0.81
-1.54
-2.12
-1.30
0.06
1.14
1.51
1.37
1.37
2.29
5.11
10.06
16.44
23.05
28.79
33.23
36.75
40.31
45.05
52.45
62.92
75.30
87.28
96.30
100.42
98.64
91.18
79.74
68.74
62.80
65.24
77.19
97.61
123.68
151.31
176.13
194.65
206.45
211.65
209.84
199.99
181.16
153.10
116.34
71.85
11.81
-62.26
-140.07
-207.42
-254.37
-279.16
-286.01
-280.99
-269.44
-254.78
-237.27
-217.09
-195.59
-175.23
-158.33
-145.89
-137.41
-131.40
-126.01
-118.63
-108.16
-95.48
-82.78
-72.10
-64.39
-59.39
-56.11
-53.38
-49.51
-43.79
-36.71
-29.62
-23.74
-19.64
-17.18
-15.80
-14.84
-13.44
-11.18
-8.26
-5.31
-2.89
-1.26
-0.37
0.03
0.21
0.50
1.09
1.89
2.69
3.29
3.60
3.65
3.54
3.34
3.14
3.01
2.94
2.93
2.98
3.09
3.26
3.49
3.77
3.96
4.12
4.28
4.49
4.83
5.46
6.57
8.47
11.43
15.66
21.30
28.28
36.33
44.95
53.37
60.83
66.43
69.43
69.28
65.77
59.00
49.41
37.76
25.04
12.28
0.39
-9.93
-18.20
-24.23
-28.12
-30.14
-30.63
-30.21
-29.11
-27.68
-26.13
-24.60
-23.15
-21.80
-20.56
-19.36
-18.18
-17.01
-15.85
-14.75
-13.69
-12.69
-11.76
-10.86
-10.01
-9.18
-8.37
-7.60
-6.86
-6.18
-5.54
-4.96
-4.42
-3.92
-3.46
-3.03
-2.62
-2.25
-1.92
-1.61
-1.36
-1.14
-0.95
-0.79
-0.67
-0.59
-0.55
-0.57
-0.64
-0.78
-0.97
-1.22
-1.50
-1.82
-2.21
-2.65
-3.15
-3.70
-4.31
-4.98
-5.70
-6.45
-7.25
-8.13
-9.05
-9.98
-10.96
-11.98
-13.10
-14.41
-16.01
-18.09
-20.83
-24.25
-28.23
-32.58
-36.96
-40.99
-44.59
-47.01
-47.82
-46.72
-43.52
-38.21
-30.97
-22.20
-12.55
-2.77
6.44
14.37
20.56
24.93
27.77
29.53
30.69
31.48
31.91
31.89
31.12
29.31
26.62
23.57
20.88
18.97
17.86
17.05
15.90
13.59
9.51
4.09
-1.54
-5.88
-8.12
-8.27
-7.26
-6.55
-7.74
-12.10
-19.16
-27.13
-33.64
-37.16
-37.24
-34.63
-30.97
-28.40
-29.75
-36.73
-49.88
-67.87
-87.92
-105.23
-114.53
-112.22
-94.26
-66.13
-36.88
-16.19
-5.70
-3.27
-3.71
-1.53
6.60
20.64
37.08
52.02
62.62
68.59
69.25
65.59
59.29
51.87
43.98
35.14
25.29
14.85
4.86
-4.05
-11.22
-16.32
-19.34
-20.44
-20.13
-18.55
-15.99
-12.81
-9.64
-6.37
-2.35
3.16
10.35
18.45
26.24
32.42
36.17
37.16
35.80
32.88
29.26
25.70
22.75
20.95
20.69
22.05
24.68
27.97
31.34
34.29
36.41
37.27
36.55
34.22
30.66
26.72
23.45
21.80
21.98
23.07
23.22
20.52
13.87
3.66
-8.41
-20.06
-28.91
-33.93
-35.97
-37.33
-40.59
-47.24
-57.02
-68.08
-78.01
-83.81
-83.80
-78.05
-67.96
-55.10
-40.37
-24.36
-8.10
6.68
19.83
32.09
44.80
58.94
74.43
89.72
102.06
108.73
109.08
107.63
111.45
126.69
155.44
194.94
239.26
281.67
316.97
329.48
310.16
260.60
192.78
121.48
56.90
3.13
-39.46
-71.76
-94.93
-108.34
-112.13
-108.42
-101.31
-95.29
-93.36
-96.33
-103.15
-111.85
-119.03
-122.14
-120.63
-116.12
-110.99
-107.19
-105.51
-105.75
-107.09
-107.89
-106.89
-103.83
-99.79
-96.16
-94.04
-93.93
-95.70
-98.98
-103.05
-107.51
-112.12
-117.03
-122.39
-127.92
-132.79
-136.18
-136.33
-131.55
-120.83
-103.64
-80.18
-51.54
-19.34
14.17
46.64
76.19
101.32
120.86
134.60
143.00
146.62
146.20
142.47
136.19
128.05
119.86
110.81
100.65
89.55
77.66
65.33
53.02
41.55
31.78
24.35
19.41
15.95
14.54
15.05
16.90
19.28
21.56
23.28
24.09
23.67
22.26
20.32
18.15
16.03
14.13
12.82
12.26
12.46
13.09
14.04
15.10
15.78
16.54
16.28
14.64
11.42
6.62
0.35
-6.82
-14.31
-21.52
-27.80
-32.74
-35.66
-36.28
-34.53
-31.33
-26.43
-20.18
-13.17
-6.14
0.05
4.96
8.08
9.81
9.75
8.08
5.21
1.76
-1.59
-5.06
-7.40
-8.14
-7.44
-5.50
-2.69
0.29
2.82
4.34
4.49
3.37
1.69
-1.51
-5.37
-9.13
-12.28
-14.39
-15.31
-15.07
-13.78
-11.62
-9.32
-7.16
-5.33
-3.88
-2.64
-1.45
-0.14
1.44
3.35
5.45
7.96
10.98
14.63
19.02
24.30
29.84
34.86
38.53
39.93
38.79
35.41
30.61
25.56
21.56
19.46
19.60
21.79
25.31
29.42
33.55
37.26
40.15
41.99
42.71
41.68
39.66
36.61
31.87
24.33
13.43
-1.44
-19.01
-36.58
-50.99
-59.89
-62.88
-61.21
-57.04
-52.29
-47.95
-43.77
-39.16
-33.72
-27.80
-22.38
-18.34
-15.98
-14.81
-13.82
-11.69
-7.67
-1.83
4.75
10.47
14.00
14.69
12.94
10.22
8.56
9.58
13.72
19.83
25.78
29.48
29.35
24.91
17.17
8.30
0.62
-4.17
-5.72
-4.70
-2.70
-2.83
-8.97
-23.83
-47.18
-75.35
-99.54
-110.37
-100.75
-68.96
-20.80
32.26
77.63
105.94
113.04
99.08
66.38
17.38
-39.65
-93.05
-133.05
-155.13
-159.46
-149.07
-129.05
-105.53
-83.96
-67.65
-58.11
-55.03
-56.50
-59.57
-61.18
-59.83
-55.55
-49.39
-42.64
-37.17
-34.57
-34.79
-35.23
-30.68
-16.63
10.20
49.02
94.72
138.88
172.90
191.28
190.35
175.66
154.54
133.06
114.40
99.16
86.45
75.41
66.06
58.96
54.92
53.46
53.22
52.40
49.67
44.66
38.00
30.74
23.79
16.43
6.87
-6.81
-25.28
-46.88
-67.82
-83.54
-90.75
-87.96
-78.06
-65.45
-53.73
-44.26
-36.25
-28.42
-20.69
-14.91
-13.79
-19.00
-29.47
-41.55
-50.69
-53.83
-50.97
-44.70
-38.49
-34.42
-32.29
-30.13
-26.06
-19.94
-13.42
-8.76
-7.12
-7.76
-8.45
-6.99
-2.40
4.72
12.62
19.46
24.24
26.84
27.66
27.15
25.65
23.37
20.76
18.51
17.15
16.87
17.48
18.58
19.82
21.01
22.07
22.89
23.22
22.72
21.22
18.84
15.99
13.18
10.83
9.09
7.94
7.22
6.62
5.87
4.37
1.79
-2.09
-7.08
-12.50
-17.17
-19.93
-19.98
-17.17
-12.35
-7.01
-2.76
-0.68
-0.86
-2.35
-3.17
-1.48
3.49
10.83
18.16
22.62
22.34
17.31
9.52
1.89
-3.12
-4.65
-3.70
-2.31
-2.32
-4.48
-8.10
-11.67
-13.56
-12.67
-8.65
-1.91
6.72
15.97
24.46
30.92
34.40
34.38
30.84
24.23
15.21
4.73
-6.07
-15.96
-23.88
-29.18
-31.78
-32.30
-31.65
-30.71
-30.01
-29.48
-28.59
-26.55
-22.90
-17.63
-11.45
-5.38
-0.37
3.04
4.91
5.71
6.07
6.33
6.62
6.88
7.04
7.09
7.16
7.39
7.81
8.37
8.92
9.32
9.55
9.57
9.35
8.79
7.74
6.11
3.94
1.45
-1.02
-3.10
-4.58
-5.41
-5.74
-5.78
-5.63
-5.24
-4.40
-2.91
-0.68
2.10
4.98
7.47
9.13
9.86
9.84
9.46
9.13
9.11
9.45
9.94
10.24
9.96
8.93
7.14
4.88
2.42
0.01
-2.26
-4.43
-6.69
-9.23
-12.21
-15.80
-20.24
-25.70
-32.14
-39.11
-45.71
-50.80
-53.45
-53.29
-50.67
-46.29
-40.57
-33.07
-22.39
-6.59
15.88
45.32
80.03
116.26
149.04
173.38
185.53
183.77
168.58
142.23
108.08
69.85
30.95
-5.51
-36.65
-60.22
-75.54
-84.11
-89.54
-96.03
-106.29
-119.99
-133.21
-139.61
-133.33
-111.87
-77.57
-36.68
3.25
36.09
58.19
68.86
69.69
63.38
52.59
39.48
25.97
14.13
5.73
0.73
-2.57
-6.89
-14.74
-27.54
-44.82
-63.70
-79.40
-82.35
-66.24
-32.93
7.45
43.07
66.31
75.42
73.04
63.67
51.35
37.74
22.15
3.94
-15.99
-35.59
-52.70
-65.99
-75.41
-82.27
-89.31
-96.32
-102.77
-106.72
-105.64
-97.79
-83.03
-63.04
-40.73
-19.84
-3.32
7.18
12.07
13.06
12.30
11.61
12.26
15.09
20.20
27.46
36.27
46.00
55.56
63.55
68.48
69.33
65.94
58.85
49.23
38.36
27.62
18.21
11.07
6.81
5.62
7.23
10.83
15.34
19.59
22.81
24.80
25.83
26.37
26.77
27.04
26.83
25.69
23.38
20.03
16.37
13.40
12.01
12.51
14.57
17.20
19.17
19.49
17.79
14.40
10.14
5.95
2.45
-0.14
-2.04
-3.72
-5.68
-8.31
-11.73
-15.77
-20.01
-23.84
-26.61
-27.84
-27.44
-25.66
-23.12
-20.59
-18.72
-17.85
-17.89
-18.41
-18.73
-18.17
-16.12
-12.31
-6.86
-0.41
6.12
11.68
15.49
17.20
16.88
14.76
11.02
5.63
-1.45
-10.04
-19.49
-28.82
-37.07
-43.70
-48.88
-53.29
-57.83
-63.13
-69.36
-76.04
-82.24
-86.65
-87.88
-84.96
-77.67
-67.09
-55.33
-45.17
-39.06
-38.25
-42.26
-48.92
-55.23
-58.35
-56.60
-49.69
-38.78
-25.71
-12.35
0.13
11.48
22.30
33.74
47.01
63.12
81.96
102.06
120.79
135.11
142.61
142.30
135.12
123.48
110.96
100.68
94.54
93.19
96.21
102.71
111.30
120.51
128.91
136.06
141.71
145.71
148.02
148.75
148.24
146.82
144.65
141.61
137.98
133.24
126.19
115.63
101.13
83.42
63.96
44.13
19.36
-11.64
-47.28
-83.88
-117.76
-146.15
-167.04
-179.13
-182.38
-178.22
-168.44
-155.53
-141.90
-129.15
-117.85
-107.85
-98.93
-91.16
-84.73
-79.12
-73.80
-68.38
-62.64
-56.57
-50.32
-44.31
-39.15
-35.35
-32.77
-30.97
-29.46
-27.66
-25.21
-21.98
-18.31
-14.85
-12.14
-10.23
-8.55
-6.16
-1.88
5.02
14.44
25.32
35.56
43.21
46.54
44.93
38.91
29.88
19.23
8.00
-3.53
-15.65
-28.06
-40.70
-53.03
-64.40
-74.15
-81.35
-84.26
-80.32
-67.23
-44.26
-13.54
20.22
51.21
74.72
88.84
94.73
95.42
93.64
90.89
87.28
82.55
77.16
72.34
69.70
70.38
74.25
79.25
81.80
77.31
62.00
35.00
-1.15
-40.47
-75.31
-99.26
-109.46
-107.09
-96.05
-80.78
-63.99
-46.42
-27.82
-8.15
11.04
27.00
36.94
39.25
33.98
22.70
7.63
-9.35
-26.66
-43.55
-59.44
-73.46
-84.39
-90.77
-91.28
-84.21
-71.27
-54.29
-35.77
-18.10
-2.89
9.08
17.86
24.11
28.59
31.56
33.53
34.47
34.24
32.82
30.29
26.90
22.98
18.87
14.60
10.50
6.63
3.15
0.29
-1.75
-2.75
-2.46
-0.76
2.32
7.02
13.15
20.60
29.03
37.92
46.60
54.47
60.63
64.34
65.06
62.23
55.81
45.83
32.50
16.26
-1.91
-21.18
-40.59
-59.02
-76.00
-90.14
-100.51
-106.48
-107.68
-104.07
-96.04
-84.28
-68.99
-52.11
-34.79
-18.17
-3.19
9.55
19.78
27.42
32.72
36.10
37.85
38.56
38.67
38.55
38.46
38.60
39.12
40.18
42.04
44.70
48.31
52.90
58.24
64.00
69.66
74.52
77.85
78.97
77.23
72.36
64.33
53.46
40.37
26.13
11.71
-1.87
-13.82
-23.63
-31.11
-36.31
-39.54
-41.39
-41.89
-41.37
-40.07
-38.25
-36.22
-34.32
-32.88
-32.08
-31.87
-31.85
-31.66
-30.92
-29.53
-27.75
-26.10
-25.20
-25.40
-26.62
-28.33
-29.77
-30.28
-29.65
-28.29
-27.13
-27.13
-28.92
-32.37
-36.57
-40.35
-42.78
-43.47
-42.87
-41.89
-41.55
-42.58
-45.54
-50.80
-58.23
-66.54
-72.85
-73.10
-63.62
-43.06
-13.77
18.64
47.25
66.68
75.13
74.52
68.97
62.51
57.39
53.92
51.26
48.63
45.85
43.30
41.32
39.92
38.84
37.74
36.52
35.23
33.98
32.71
31.37
29.71
27.61
25.10
22.14
19.08
16.50
15.20
15.71
17.37
17.61
12.37
-2.31
-28.11
-62.29
-98.27
-127.70
-143.72
-143.49
-128.80
-104.54
-75.43
-46.36
-19.19
5.54
27.55
45.94
59.53
67.80
71.54
72.56
72.76
74.10
77.01
80.83
84.17
85.51
84.10
79.90
73.52
65.53
56.64
47.17
37.18
26.76
16.16
6.23
-2.11
-8.22
-12.02
-13.96
-14.85
-15.54
-16.47
-17.74
-18.76
-19.05
-18.53
-17.54
-16.70
-16.47
-16.87
-17.27
-17.00
-15.42
-12.63
-9.80
-8.61
-10.83
-17.71
-29.82
-46.21
-66.50
-88.60
-108.68
-121.57
-122.33
-108.76
-82.83
-50.45
-19.46
3.44
15.45
17.86
14.56
9.51
4.82
0.60
-3.93
-9.27
-14.81
-19.19
-21.51
-21.97
-21.88
-23.01
-26.75
-33.19
-41.30
-49.29
-55.16
-57.60
-56.40
-51.47
-43.34
-32.41
-18.87
-2.57
16.70
38.91
63.33
88.61
113.07
134.85
152.52
165.06
171.91
173.06
168.75
159.21
144.83
126.14
102.84
76.92
50.03
23.66
-0.80
-22.12
-39.73
-53.46
-63.56
-70.64
-75.29
-78.36
-80.78
-83.20
-85.81
-88.56
-91.06
-92.58
-92.15
-89.02
-82.07
-70.84
-55.38
-36.32
-15.03
6.57
26.31
42.09
52.23
55.67
52.05
41.98
26.77
8.92
-8.67
-23.77
-34.38
-39.05
-37.18
-29.21
-16.37
-0.18
17.26
33.76
47.34
56.49
60.27
58.32
50.73
37.29
19.40
-1.56
-24.46
-48.26
-71.97
-94.59
-115.11
-132.52
-145.76
-153.97
-156.16
-151.57
-139.97
-121.58
-97.17
-68.01
-35.76
-2.83
28.65
56.84
80.38
98.44
110.79
117.74
120.00
118.47
114.09
107.99
101.06
93.91
86.88
80.14
73.75
67.71
61.94
56.28
50.81
45.62
40.73
36.13
31.82
27.79
24.03
20.92
18.11
15.54
13.20
11.06
9.12
7.34
5.72
4.24
2.87
1.53
0.27
-0.86
-1.88
-2.78
-3.57
-4.24
-4.79
-5.27
-5.71
-6.07
-6.33
-6.51
-6.62
-6.69
-6.74
-6.69
-6.55
-6.32
-5.89
-5.13
-4.03
-2.55
-0.73
1.33
3.53
5.74
7.79
9.60
11.46
13.13
14.45
15.41
15.88
15.74
14.73
12.62
9.31
4.79
-0.74
-6.92
-13.23
-19.11
-23.92
-27.21
-28.58
-27.97
-25.70
-22.38
-18.75
-15.67
-14.02
-14.27
-16.47
-20.09
-24.25
-27.91
-30.05
-29.90
-27.00
-21.42
-13.50
-3.70
7.44
19.30
31.16
42.47
52.56
60.92
67.27
71.50
73.92
75.25
76.17
77.18
78.82
81.35
84.59
87.77
89.50
88.14
82.41
71.62
56.08
37.24
17.25
-1.48
-16.86
-27.52
-32.93
-33.49
-30.75
-27.08
-24.83
-26.38
-33.30
-46.10
-64.31
-86.58
-108.90
-126.94
-137.13
-137.86
-129.89
-115.22
-96.50
-76.78
-59.06
-45.67
-38.23
-37.02
-40.85
-47.98
-56.30
-64.11
-70.32
-74.33
-75.75
-74.57
-71.20
-66.22
-60.86
-56.25
-53.40
-52.98
-54.88
-57.52
-57.71
-51.10
-33.29
-3.28
37.08
81.85
122.98
153.34
169.33
171.61
161.75
146.32
129.70
113.81
98.64
83.95
70.41
59.51
52.55
49.60
49.83
50.77
50.09
46.19
38.64
27.97
15.21
1.43
-12.55
-25.61
-37.68
-48.24
-56.34
-60.57
-59.52
-52.60
-40.64
-26.12
-12.44
-3.25
-0.88
-5.74
-16.37
-30.04
-43.59
-53.96
-58.47
-55.32
-44.42
-27.63
-8.67
8.14
19.60
24.84
25.27
23.47
21.70
20.75
20.19
19.10
16.97
13.83
9.86
4.96
-0.82
-6.75
-11.04
-11.38
-6.11
4.66
18.93
33.61
45.43
52.06
53.05
49.41
42.62
33.39
21.58
7.02
-9.77
-27.00
-41.93
-52.07
-56.39
-55.88
-53.28
-51.53
-51.99
-54.16
-55.97
-54.60
-47.85
-34.96
-16.69
4.59
26.09
46.14
63.45
77.05
86.57
91.79
92.73
89.95
84.11
76.51
70.03
66.82
67.32
70.60
73.97
74.31
69.40
57.77
39.42
17.20
-5.94
-27.62
-45.87
-60.41
-72.34
-78.48
-76.78
-76.84
-83.73
-94.34
-103.66
-104.79
-91.74
-61.38
-14.24
44.26
105.16
161.30
201.97
219.75
219.07
207.81
190.61
167.58
137.21
97.80
50.23
-3.08
-58.00
-109.46
-153.59
-188.98
-213.81
-225.25
-220.00
-195.66
-154.57
-104.21
-55.27
-18.70
-3.53
-12.05
-40.19
-80.43
-125.47
-171.48
-217.82
-264.83
-298.00
-304.84
-279.75
-228.48
-164.38
-101.23
-48.59
-10.11
15.97
34.86
50.41
65.08
79.14
91.26
99.10
100.58
95.39
85.69
75.35
65.93
59.30
56.03
55.78
57.39
58.80
57.40
50.87
38.64
21.94
5.14
-5.41
-4.65
7.52
25.07
38.05
37.17
17.94
-18.29
-65.20
-112.86
-151.53
-175.20
-182.92
-178.13
-166.42
-153.00
-141.07
-130.52
-116.76
-94.34
-60.34
-16.70
29.76
69.42
93.30
96.93
82.84
62.28
48.18
48.85
64.46
87.99
109.45
121.40
122.80
119.49
123.54
143.58
179.39
222.35
261.17
288.30
303.12
311.00
300.70
268.77
221.36
169.92
121.94
78.57
38.72
2.71
-27.64
-50.31
-61.95
-62.49
-55.96
-48.50
-44.96
-46.83
-52.66
-59.88
-66.13
-68.03
-64.51
-57.39
-50.00
-45.01
-43.17
-42.92
-43.19
-42.66
-39.06
-31.21
-19.66
-5.90
8.66
22.69
34.50
41.58
41.41
33.07
17.39
-3.28
-25.44
-45.50
-61.18
-72.00
-78.94
-83.22
-85.20
-83.47
-78.19
-70.79
-63.25
-57.32
-53.55
-51.28
-49.22
-46.21
-41.47
-34.47
-24.31
-9.64
9.91
33.00
56.32
75.37
86.07
86.23
76.35
59.51
40.05
21.81
7.08
-3.51
-10.76
-15.27
-17.56
-17.90
-16.11
-12.16
-6.85
-1.92
0.52
-1.11
-6.75
-14.55
-21.57
-24.99
-23.49
-17.86
-10.42
-3.71
0.73
3.02
4.47
6.69
10.56
15.73
20.78
23.97
24.10
20.92
15.07
7.59
-0.62
-9.02
-17.47
-25.82
-33.56
-39.54
-42.26
-40.30
-33.06
-21.18
-6.49
8.41
20.81
28.72
31.41
29.44
24.17
17.17
9.69
2.67
-3.24
-7.68
-10.25
-10.50
-8.11
-3.07
4.23
12.89
21.93
30.27
36.62
39.97
39.89
36.71
31.27
24.55
17.03
8.95
-0.04
-10.65
-23.24
-37.48
-52.53
-67.68
-82.72
-98.46
-115.60
-131.26
-141.26
-142.58
-135.72
-123.72
-108.96
-90.98
-69.76
-42.25
-7.92
30.04
66.17
95.23
114.83
123.21
122.59
117.37
112.42
110.22
110.04
108.80
102.94
90.53
72.21
51.26
31.59
16.45
6.74
1.26
-2.01
-4.81
-7.76
-10.60
-12.54
-13.42
-13.60
-13.85
-14.56
-15.35
-15.29
-13.56
-10.10
-5.67
-1.72
0.35
-0.23
-3.25
-7.62
-11.88
-14.84
-15.95
-15.25
-13.27
-10.62
-7.77
-5.03
-2.58
-0.70
0.23
-0.18
-1.98
-4.85
-8.12
-11.11
-13.40
-15.03
-16.31
-17.65
-19.24
-20.95
-22.41
-23.19
-22.95
-21.58
-19.18
-16.00
-12.32
-8.34
-4.21
-0.03
4.05
7.80
10.84
12.75
13.19
11.99
9.29
5.52
1.37
-2.30
-4.60
-4.82
-2.59
1.93
8.05
14.67
20.51
24.50
26.09
25.30
22.70
19.04
15.07
11.29
8.01
5.41
3.70
3.06
3.53
4.93
6.83
8.63
9.79
10.01
9.26
7.72
5.63
3.13
0.34
-2.66
-5.66
-8.41
-10.63
-12.15
-12.89
-12.93
-12.39
-11.37
-9.93
-8.09
-5.93
-3.53
-1.04
1.37
3.51
5.18
6.22
6.48
5.90
4.50
2.42
-0.09
-2.63
-4.70
-5.89
-5.89
-4.68
-2.56
-0.06
2.17
3.68
4.29
4.14
3.51
2.75
2.13
1.79
1.74
1.94
2.39
3.14
4.34
6.03
8.23
10.88
13.76
16.47
18.74
20.58
22.39
24.91
28.62
34.00
41.19
49.69
58.36
65.79
70.94
73.38
73.50
71.71
69.07
66.69
64.96
63.06
59.37
52.52
41.88
28.23
12.43
-3.63
-17.82
-28.99
-37.66
-45.78
-55.63
-69.68
-89.41
-116.00
-147.40
-177.95
-199.96
-206.29
-192.91
-159.78
-111.65
-49.12
18.14
76.49
116.29
136.21
140.40
133.13
118.21
96.00
67.86
36.03
4.91
-20.81
-39.17
-49.73
-56.57
-61.85
-68.86
-78.56
-89.48
-97.08
-96.67
-86.66
-69.63
-50.84
-34.66
-23.29
-15.94
-10.97
-6.69
-2.21
2.29
6.10
8.45
9.40
9.37
9.29
9.68
10.72
12.16
13.50
14.27
14.15
13.41
12.40
11.67
11.46
11.74
12.18
12.42
12.21
11.51
10.58
9.69
9.13
8.98
9.15
9.38
9.40
9.11
8.50
7.76
7.06
6.51
6.15
5.94
5.77
5.57
5.29
4.94
4.58
4.25
3.98
3.79
3.63
3.51
3.40
3.30
3.22
3.15
3.00
2.87
2.75
2.64
2.54
2.45
2.38
2.32
2.29
2.27
2.28
2.32
2.38
2.46
2.57
2.70
2.85
3.05
3.28
3.55
3.87
4.22
4.61
5.05
5.52
6.04
6.60
7.21
7.81
8.43
9.09
9.81
10.66
11.71
13.08
14.94
17.38
20.47
24.17
28.35
32.72
36.93
40.45
42.84
43.69
42.66
39.58
34.49
27.64
19.46
10.75
2.04
-6.04
-13.00
-18.54
-22.58
-25.18
-26.56
-27.14
-26.93
-26.20
-25.11
-23.81
-22.46
-21.16
-20.01
-19.07
-18.32
-17.61
-16.86
-15.99
-14.97
-13.94
-13.09
-12.66
-12.75
-13.28
-13.96
-14.46
-14.47
-13.90
-12.97
-12.18
-12.01
-12.80
-14.47
-16.54
-18.41
-19.48
-19.60
-19.10
-18.74
-19.24
-21.05
-24.01
-27.43
-30.42
-32.44
-33.35
-33.54
-33.61
-34.01
-34.98
-36.87
-40.24
-45.63
-52.54
-58.71
-60.18
-52.72
-34.02
-5.43
27.89
58.85
81.28
92.49
93.67
88.68
81.72
75.51
71.01
68.33
67.69
69.73
74.26
79.11
80.02
72.06
51.89
19.64
-20.23
-59.83
-90.34
-104.61
-99.49
-76.82
-42.48
-4.22
31.09
58.83
76.74
83.86
79.47
62.99
34.94
-1.58
-40.73
-74.62
-96.47
-103.14
-96.13
-80.36
-61.21
-42.21
-23.87
-5.99
12.28
30.84
48.54
63.85
75.75
84.19
89.81
93.61
96.09
97.30
96.64
93.24
86.41
75.97
62.46
46.93
30.69
15.15
1.05
-11.24
-21.71
-30.50
-37.68
-43.28
-47.20
-49.71
-50.61
-50.18
-48.85
-47.28
-46.05
-45.55
-45.90
-46.93
-48.27
-49.40
-50.09
-50.21
-49.98
-49.78
-49.93
-50.63
-51.78
-53.05
-54.03
-54.64
-54.89
-55.03
-55.33
-55.90
-57.01
-59.37
-64.19
-72.64
-84.41
-97.00
-105.70
-105.25
-92.41
-67.86
-36.02
-3.01
25.83
47.46
61.29
67.41
65.72
56.31
40.66
22.77
8.63
3.67
10.19
26.21
46.46
65.24
78.87
86.60
89.84
90.53
89.90
88.42
86.11
83.08
79.77
76.72
74.54
73.34
72.75
71.85
69.76
65.71
59.31
50.70
40.20
28.42
15.96
3.21
-9.61
-22.39
-35.01
-47.19
-58.47
-68.34
-76.24
-81.70
-84.56
-85.12
-83.87
-81.50
-78.77
-76.38
-74.73
-73.63
-72.26
-69.29
-63.14
-52.37
-36.16
-14.66
10.59
36.67
59.95
77.05
85.99
86.71
81.03
71.75
61.69
52.55
44.56
36.96
28.65
18.49
6.90
-5.43
-17.76
-29.41
-40.00
-49.66
-58.64
-67.09
-74.81
-80.87
-83.99
-83.36
-77.86
-67.63
-54.19
-40.08
-27.97
-19.53
-14.75
-12.12
-9.06
-3.19
6.97
21.32
38.40
55.85
71.03
81.36
84.90
81.18
71.89
61.06
53.75
53.99
62.47
75.29
84.65
82.02
61.98
25.65
-18.73
-59.53
-86.72
-95.98
-89.54
-73.97
-56.03
-40.61
-29.49
-20.97
-12.66
-3.64
4.96
11.03
13.25
12.04
8.80
0.89
-13.47
-34.94
-62.48
-93.83
-126.18
-156.51
-181.37
-199.39
-209.76
-212.16
-207.42
-197.22
-183.22
-166.58
-147.58
-125.87
-101.40
-74.42
-45.27
-14.04
19.15
54.18
90.67
128.23
166.50
205.12
244.82
286.38
330.36
374.42
412.62
436.70
439.67
419.19
378.19
324.65
267.18
213.53
168.06
132.79
109.23
99.60
105.93
126.70
156.96
177.46
171.51
131.55
63.85
-15.49
-88.85
-139.97
-168.38
-178.20
-175.58
-165.74
-153.58
-143.85
-141.09
-146.61
-156.75
-165.29
-165.84
-156.62
-139.57
-118.84
-98.01
-78.75
-61.09
-44.74
-30.88
-20.88
-16.03
-15.70
-17.63
-18.93
-17.17
-11.54
-2.85
6.57
14.60
19.75
22.07
22.91
24.14
27.40
33.32
41.40
50.16
57.96
63.45
65.86
65.62
63.01
58.70
53.33
47.20
40.88
34.82
29.75
26.24
25.09
27.12
32.97
42.72
55.70
71.19
87.89
104.56
119.46
131.36
139.62
144.23
145.65
144.25
141.55
138.52
136.18
134.39
132.94
131.50
129.77
127.41
122.62
115.87
104.78
92.54
79.10
63.83
46.21
26.24
4.51
-20.67
-45.32
-69.25
-92.62
-116.91
-143.39
-172.65
-204.15
-236.22
-270.88
-301.32
-326.40
-345.10
-357.45
-364.00
-366.16
-366.33
-367.54
-378.09
-393.39
-411.60
-426.29
-429.51
-415.60
-384.60
-342.46
-262.72
-201.73
-155.78
-122.52
-95.79
-70.38
-46.02
-27.06
-18.29
-20.97
-37.13
-57.06
-77.33
-95.25
-109.50
-119.97
-125.77
-124.18
-112.06
-73.87
-4.17
77.81
146.36
186.67
199.40
193.82
180.15
164.88
147.42
127.62
103.50
76.96
52.10
32.11
17.60
7.29
-1.04
-10.47
-23.48
-39.47
-54.07
-61.86
-59.23
-45.86
-24.48
0.43
23.67
40.90
50.32
54.56
58.11
64.91
76.73
92.99
111.70
131.11
150.72
165.92
177.59
188.60
202.01
220.05
243.63
271.72
300.48
322.47
328.19
310.15
265.61
199.64
125.23
59.78
18.83
10.21
30.82
68.18
106.28
130.64
132.61
110.54
68.26
12.64
-48.07
-105.18
-150.15
-175.19
-175.38
-150.21
-104.33
-46.72
11.51
60.31
93.23
108.80
110.04
102.02
89.63
75.65
60.43
43.04
23.20
2.30
-16.53
-29.77
-35.61
-34.76
-30.17
-25.49
-23.33
-24.35
-27.48
-31.07
-33.75
-35.09
-35.14
-33.94
-30.92
-25.16
-16.10
-4.48
7.46
16.50
20.02
17.28
9.80
0.51
-7.95
-14.47
-19.69
-24.67
-29.61
-33.27
-33.67
-29.56
-21.54
-11.95
-3.92
0.01
-1.27
-7.21
-16.15
-25.82
-33.86
-38.34
-38.19
-33.78
-26.97
-20.70
-17.73
-19.62
-25.83
-34.05
-41.37
-45.55
-45.78
-42.30
-35.61
-26.00
-14.11
-1.57
8.65
12.94
8.74
-4.11
-22.46
-40.23
-50.44
-47.84
-30.81
-1.67
34.37
70.99
102.17
123.46
133.08
131.41
119.95
100.54
75.20
46.45
17.23
-9.76
-32.52
-49.01
-57.30
-55.66
-43.15
-19.97
12.02
49.17
86.21
113.28
121.57
108.17
78.56
42.19
6.50
-25.44
-53.43
-78.07
-99.37
-115.86
-125.96
-129.09
-126.35
-120.17
-112.80
-105.47
-98.42
-91.96
-84.24
-73.72
-59.96
-43.93
-27.70
-13.04
-1.06
7.92
14.11
18.54
22.10
25.23
27.69
28.84
28.63
27.37
25.91
24.31
23.42
23.99
26.39
30.50
35.86
42.37
49.82
58.03
66.72
75.77
84.87
93.61
101.53
105.88
104.64
96.84
82.89
64.27
42.95
20.53
-1.89
-23.57
-44.00
-62.44
-78.32
-91.18
-101.03
-108.28
-113.43
-117.15
-120.12
-122.87
-125.62
-128.46
-131.33
-134.33
-137.82
-141.90
-146.51
-151.40
-155.97
-159.22
-160.61
-158.58
-151.70
-139.07
-120.14
-94.88
-63.94
-28.49
9.96
48.71
85.21
117.29
143.15
162.01
173.90
179.26
178.92
174.02
165.83
155.74
144.84
133.68
122.86
112.92
103.89
95.54
87.52
79.42
70.97
63.54
55.99
47.74
38.84
29.38
19.68
10.29
1.88
-4.79
-9.08
-10.89
-11.59
-10.67
-8.19
-4.61
-0.58
3.25
6.40
8.62
9.59
9.37
8.44
7.05
5.40
3.67
2.00
0.47
-0.83
-2.05
-3.25
-4.22
-5.00
-5.62
-6.10
-6.44
-6.63
-6.72
-6.84
-7.07
-7.29
-7.53
-7.76
-7.91
-7.92
-7.74
-7.38
-6.67
-5.97
-5.36
-4.89
-4.47
-3.95
-3.20
-2.13
-0.83
0.47
1.51
2.28
2.83
3.38
4.29
5.89
8.32
11.42
14.79
18.03
21.02
23.81
26.49
29.41
32.25
34.66
36.37
37.52
38.60
40.15
42.11
43.41
42.36
37.38
28.02
15.26
1.11
-12.34
-23.84
-33.10
-40.35
-45.57
-48.15
-47.21
-42.52
-35.34
-28.31
-24.34
-25.20
-30.59
-38.32
-45.46
-49.65
-50.07
-47.62
-44.09
-40.98
-38.77
-36.90
-34.45
-30.87
-26.37
-22.48
-20.84
-22.26
-26.16
-30.69
-33.51
-32.75
-27.70
-18.96
-7.95
3.83
15.30
25.90
35.59
44.05
50.60
54.37
54.61
51.02
43.93
34.18
23.07
11.95
2.02
-5.84
-11.20
-14.11
-14.87
-13.94
-11.77
-8.49
-4.11
1.12
6.85
12.77
18.58
24.30
29.92
35.45
40.87
46.05
50.07
52.55
54.22
56.90
63.02
74.13
90.20
109.50
129.10
144.33
152.08
152.37
146.27
137.16
128.29
121.54
116.81
111.90
100.92
78.63
42.77
-5.18
-60.77
-118.27
-171.71
-216.04
-248.61
-272.47
-291.57
-308.19
-322.50
-334.17
-344.52
-356.34
-371.86
-370.89
-339.53
-275.42
-188.39
-92.17
1.87
85.43
153.18
202.79
233.01
241.58
226.09
186.56
127.86
59.02
-9.05
-66.51
-100.47
-106.45
-92.37
-70.71
-51.33
-37.41
-26.74
-15.48
-0.95
17.03
35.39
47.62
50.83
44.56
30.59
11.38
-10.48
-31.74
-48.08
-52.77
-42.97
-19.78
11.47
43.22
68.40
83.18
88.04
86.68
82.89
78.26
72.70
65.43
56.51
47.34
40.03
36.17
35.94
37.63
38.53
36.35
30.20
20.96
10.75
2.11
-2.99
-3.31
0.19
5.65
11.23
15.80
19.20
22.22
25.98
31.34
38.52
47.10
56.42
65.79
74.41
81.02
83.75
80.58
70.21
53.00
31.27
8.72
-10.92
-25.24
-33.80
-37.72
-38.67
-37.93
-35.98
-32.85
-28.69
-24.16
-20.34
-18.55
-19.29
-22.14
-25.95
-29.24
-30.89
-30.48
-28.37
-25.42
-22.65
-20.77
-20.02
-20.14
-20.42
-20.04
-18.25
-14.51
-8.61
-0.79
8.39
18.09
27.41
35.64
42.30
47.38
51.38
55.15
59.24
63.49
66.75
67.17
62.97
53.09
37.82
18.90
-0.98
-19.22
-34.10
-44.99
-52.03
-55.74
-56.75
-55.73
-53.00
-48.60
-42.54
-35.09
-26.83
-18.48
-10.93
-5.25
-2.92
-4.95
-11.63
-22.54
-36.62
-52.39
-68.29
-81.09
-88.50
-90.93
-89.94
-85.35
-74.53
-54.69
-25.82
8.36
40.92
67.68
86.56
98.15
105.10
110.36
115.55
120.72
125.92
128.57
127.73
123.33
115.44
104.05
89.43
72.06
52.80
34.05
17.08
2.52
-10.28
-23.58
-40.09
-61.29
-87.02
-115.83
-144.35
-171.54
-197.93
-218.42
-228.24
-225.52
-212.81
-195.73
-185.95
-180.28
-171.67
-152.79
-118.61
-65.02
4.45
81.89
156.12
212.34
242.21
246.58
234.51
216.73
199.53
183.67
167.52
148.87
126.47
101.65
75.55
49.37
24.59
2.79
-16.71
-33.81
-48.16
-59.15
-65.04
-64.98
-59.37
-49.85
-39.05
-29.99
-24.44
-22.81
-24.19
-26.29
-26.87
-25.22
-22.00
-18.76
-17.12
-17.66
-19.85
-22.26
-22.96
-20.59
-15.10
-7.64
0.00
6.05
9.64
10.79
10.23
8.96
7.84
7.16
6.75
6.19
5.16
3.60
1.73
-0.16
-1.76
-2.86
-3.36
-3.26
-2.59
-1.41
0.23
2.22
4.37
6.41
8.00
8.86
8.87
8.11
6.87
5.48
4.24
3.29
2.65
2.28
2.19
2.43
3.04
4.01
5.23
6.50
7.60
8.39
8.87
9.13
9.30
9.50
9.80
10.22
10.72
11.27
11.77
12.11
12.19
11.99
11.58
11.15
10.88
10.84
10.99
11.14
11.13
10.91
10.62
10.51
10.81
11.59
12.70
13.83
14.66
14.97
14.74
14.07
13.16
12.18
11.22
10.27
9.23
7.96
6.34
4.27
1.75
-1.11
-4.14
-7.15
-10.02
-12.82
-15.74
-19.08
-23.05
-27.65
-32.63
-37.52
-41.76
-44.91
-46.74
-47.33
-46.93
-45.84
-44.29
-42.39
-40.10
-37.37
-34.15
-30.49
-26.48
-22.21
-17.76
-13.20
-8.65
-4.39
-0.80
1.68
2.74
2.32
0.62
-1.93
-4.82
-7.51
-9.51
-10.45
