1594059133.00
64.000000
-0.00
-0.00
-0.00
-0.00
-0.00
-0.00
-0.00
-0.00
-0.00
-0.00
0.00
0.01
0.01
-0.00
-0.03
-0.05
-0.05
0.00
0.13
0.36
0.66
1.01
1.37
1.72
2.06
2.40
2.79
3.24
3.80
4.42
5.06
5.66
6.20
6.68
7.15
7.68
8.31
9.14
10.09
11.04
11.88
12.56
13.14
13.76
14.65
15.96
17.91
20.32
22.90
25.38
27.58
29.57
31.68
34.32
37.81
42.54
48.15
54.10
59.83
64.97
69.58
74.14
79.34
85.71
93.76
103.00
112.62
121.73
129.77
136.75
143.30
150.75
157.77
166.64
177.95
191.79
206.97
220.57
228.25
225.36
208.53
176.87
132.76
80.05
23.07
-34.94
-92.44
-149.16
-205.23
-260.37
-313.74
-363.87
-409.83
-450.91
-486.50
-515.74
-537.23
-549.22
-549.96
-538.37
-514.21
-478.67
-433.88
-382.45
-327.02
-269.84
-212.63
-156.66
-102.95
-52.37
-5.90
35.58
71.43
101.35
125.50
144.38
158.70
169.15
176.37
180.75
182.57
182.06
179.51
175.25
169.68
163.21
156.16
148.78
141.19
133.49
125.74
118.00
110.34
102.81
95.48
88.36
81.47
74.81
68.42
62.33
56.57
51.17
46.12
41.38
36.91
32.68
28.66
24.90
21.45
18.35
15.64
13.27
11.14
9.13
7.15
5.17
3.29
1.65
0.38
-0.47
-0.99
-1.39
-1.95
-2.85
-4.12
-5.57
-6.90
-7.80
-8.16
-8.08
-7.92
-8.09
-8.91
-10.41
-12.30
-14.12
-15.46
-16.08
-16.07
-15.78
-15.61
-15.98
-17.22
-19.57
-23.02
-26.99
-30.21
-30.86
-27.30
-18.87
-6.54
7.29
19.66
28.21
32.13
32.18
30.08
27.50
25.39
23.95
22.98
22.39
22.31
22.94
24.11
25.27
25.65
24.70
22.36
19.18
16.02
13.60
12.23
11.65
11.35
10.81
9.83
8.53
7.26
6.31
5.84
5.86
6.27
7.06
8.22
9.73
11.45
13.21
14.76
15.93
16.64
16.92
16.94
16.82
16.65
16.36
15.77
14.58
12.54
9.70
6.17
2.37
-1.24
-4.34
-6.93
-9.25
-11.59
-14.08
-16.51
-18.48
-19.50
-19.30
-18.00
-16.03
-14.03
-12.51
-11.70
-11.44
-11.41
-11.21
-10.56
-9.38
-7.70
-5.59
-3.03
0.00
3.53
7.39
11.17
14.39
16.69
18.02
18.72
19.43
20.75
22.95
25.72
28.17
29.45
29.10
27.46
25.44
24.11
24.11
25.43
27.58
29.88
32.28
35.12
38.73
42.75
45.90
46.36
42.72
34.78
23.55
11.26
0.39
-7.24
-10.98
-11.31
-9.50
-7.34
-4.82
-3.37
-4.64
-10.16
-20.73
-36.03
-54.49
-73.59
-90.51
-103.00
-110.38
-113.31
-113.59
-113.53
-115.00
-118.78
-124.22
-129.45
-132.10
-130.34
-123.37
-111.71
-97.07
-81.52
-66.63
-52.93
-39.90
-26.65
-12.92
0.51
11.96
19.46
21.98
20.13
16.23
13.45
14.35
19.62
27.61
35.22
39.23
38.17
33.43
28.82
29.47
40.03
63.38
99.73
146.41
197.63
244.94
278.61
290.47
277.29
243.31
200.13
162.98
144.78
150.43
174.67
204.63
225.63
227.36
207.08
168.88
120.02
67.09
13.68
-39.44
-92.73
-146.33
-199.01
-248.35
-291.45
-325.87
-350.04
-363.55
-366.75
-360.88
-348.47
-333.01
-317.93
-305.46
-295.80
-286.53
-273.52
-251.43
-215.17
-161.68
-90.95
-6.64
83.49
167.48
231.66
264.27
260.73
226.56
175.79
126.34
93.78
86.17
101.84
132.60
164.71
186.10
193.80
192.60
187.71
179.94
169.34
152.17
127.74
98.78
70.02
45.18
24.23
4.20
-18.70
-46.56
-78.68
-110.77
-137.20
-152.87
-155.17
-145.17
-126.84
-105.06
-83.70
-65.06
-49.52
-36.65
-25.70
-16.12
-7.98
-1.62
2.82
5.87
8.34
11.28
15.13
19.56
23.61
26.01
25.87
23.13
18.62
13.58
9.19
6.13
4.56
4.37
5.36
7.34
10.01
12.86
15.14
16.11
15.33
12.89
9.43
5.90
3.11
1.37
0.42
-0.44
-1.95
-4.47
-7.94
-11.90
-15.83
-19.45
-22.84
-26.45
-30.82
-36.27
-42.72
-49.57
-55.81
-60.32
-62.19
-60.98
-56.87
-50.49
-42.65
-34.04
-25.10
-16.07
-7.20
1.17
8.54
14.49
18.88
21.94
24.13
25.93
27.48
28.62
28.99
28.37
26.83
24.79
22.83
21.39
20.60
20.27
19.97
19.33
18.09
16.23
13.88
11.24
8.52
5.80
3.05
0.08
-3.35
-7.46
-12.33
-17.94
-24.25
-31.26
-38.88
-46.70
-53.79
-58.73
-60.08
-56.95
-49.54
-39.12
-27.48
-16.24
-6.20
2.68
10.89
18.71
25.87
31.65
35.38
37.00
37.20
37.26
38.40
41.10
44.74
47.76
48.22
44.75
37.26
27.13
16.83
8.90
5.06
5.60
9.62
15.60
22.14
28.30
33.66
37.86
40.49
41.09
39.48
36.10
32.01
28.51
26.56
26.41
27.47
28.69
29.04
27.93
25.36
21.79
17.90
14.30
11.45
9.51
8.46
8.06
7.96
7.65
6.55
3.99
-0.66
-7.77
-17.18
-28.01
-38.69
-47.35
-52.35
-52.91
-49.35
-42.87
-35.03
-27.19
-20.05
-13.73
-8.07
-3.11
0.68
2.47
1.45
-2.70
-9.49
-17.69
-25.70
-32.00
-35.62
-36.27
-34.13
-29.63
-23.21
-15.29
-6.41
2.55
10.49
16.27
19.16
19.10
16.72
13.12
9.39
6.23
3.85
2.03
0.36
-1.48
-3.57
-5.87
-8.22
-10.53
-12.78
-15.00
-17.24
-19.48
-21.73
-24.00
-26.38
-29.08
-32.30
-36.16
-40.44
-44.53
-47.37
-47.70
-44.49
-37.38
-26.98
-14.70
-2.37
8.42
16.82
22.80
26.93
29.91
32.16
33.71
34.39
34.08
32.94
31.35
29.74
28.38
27.24
26.19
25.08
23.96
23.06
22.65
22.87
23.59
24.40
24.75
24.19
22.52
19.86
16.68
13.57
10.99
9.10
7.73
6.46
4.88
2.81
0.37
-2.11
-4.32
-6.18
-7.93
-9.97
-12.66
-16.12
-20.15
-24.35
-28.09
-30.72
-31.54
-30.00
-25.87
-19.31
-10.95
-1.72
7.39
15.60
22.56
28.27
32.98
36.96
40.40
43.38
45.91
48.07
49.94
51.65
53.24
54.69
55.90
56.78
57.31
57.56
57.63
57.57
57.28
56.58
55.25
53.13
50.17
46.39
41.92
36.96
31.88
27.12
23.16
20.29
18.46
17.31
16.40
15.44
14.43
13.51
12.57
10.87
7.01
-0.61
-12.91
-29.47
-48.19
-65.78
-78.87
-85.15
-84.10
-76.92
-65.81
-52.99
-39.94
-27.18
-14.65
-2.21
9.84
20.73
29.56
35.73
39.22
40.57
40.45
39.31
37.16
33.72
28.74
22.33
15.02
7.62
0.96
-4.36
-8.01
-9.94
-10.32
-9.56
-8.31
-7.29
-7.09
-7.94
-9.68
-11.85
-14.05
-16.10
-18.12
-20.38
-23.12
-26.43
-30.30
-34.74
-39.80
-45.55
-51.84
-58.17
-63.78
-67.80
-69.48
-68.42
-64.62
-58.38
-50.18
-40.64
-30.51
-20.64
-11.95
-5.26
-0.97
1.03
1.39
1.00
0.62
0.45
0.01
-1.63
-5.43
-11.71
-19.76
-27.86
-33.92
-36.38
-35.07
-31.50
-28.36
-28.44
-33.25
-42.26
-52.96
-61.91
-66.20
-64.77
-59.00
-52.32
-49.19
-53.67
-68.00
-91.63
-120.62
-147.92
-164.78
-163.49
-140.68
-99.97
-52.25
-12.78
4.34
-7.82
-45.62
-95.79
-140.62
-164.84
-160.95
-130.73
-82.71
-27.67
25.17
69.66
102.50
122.26
129.19
125.58
116.02
106.39
101.65
103.86
111.48
120.41
126.33
126.53
120.77
110.91
99.52
88.84
80.29
74.70
72.44
73.35
76.56
80.39
83.12
83.32
80.07
73.10
62.84
50.22
36.33
22.03
7.75
-5.45
-16.64
-25.43
-32.12
-37.37
-41.61
-45.05
-47.93
-50.61
-51.22
-47.52
-38.23
-24.31
-8.66
4.86
12.33
10.70
-1.46
-19.73
-37.55
-49.78
-55.80
-58.95
-63.79
-73.04
-85.61
-97.11
-96.66
-74.07
-24.74
48.07
136.44
232.52
330.81
427.70
492.12
493.70
418.74
282.82
120.23
-34.00
-153.71
-224.78
-245.31
-229.60
-191.27
-143.55
-97.27
-59.39
-30.83
-6.58
16.67
45.67
84.24
134.98
194.96
255.96
305.74
332.64
328.91
294.35
236.07
164.34
92.81
34.36
-1.38
-10.64
3.68
30.68
56.48
68.22
56.35
18.95
-38.84
-107.54
-178.10
-244.87
-307.48
-364.16
-409.15
-434.76
-434.67
-408.18
-361.62
-306.72
-242.42
-176.64
-117.43
-65.90
-17.49
30.57
74.63
107.20
122.81
124.07
114.89
102.38
93.51
91.62
95.70
102.60
109.73
116.11
120.43
119.86
112.74
98.79
79.03
55.54
31.25
9.09
-9.09
-22.97
-34.46
-44.43
-52.50
-57.52
-58.55
-55.08
-46.83
-33.78
-16.73
1.74
18.43
30.57
36.95
38.68
38.85
40.98
47.01
56.45
66.76
75.16
79.90
80.19
75.44
64.83
47.66
24.35
-2.71
-29.43
-51.38
-65.54
-71.34
-70.49
-65.88
-60.05
-54.85
-51.20
-49.34
-49.26
-50.73
-53.27
-56.15
-58.63
-60.05
-59.99
-58.22
-54.77
-49.85
-43.86
-37.35
-30.82
-24.66
-19.02
-13.88
-9.13
-4.78
-0.89
2.33
4.73
6.31
7.19
7.62
7.82
7.88
7.78
7.34
6.39
4.89
2.95
0.78
-1.35
-3.21
-4.64
-5.62
-6.23
-6.63
-7.07
-7.78
-8.91
-10.50
-12.39
-14.31
-15.90
-16.85
-16.96
-16.29
-15.12
-13.97
-13.37
-13.73
-15.16
-17.40
-19.90
-22.03
-23.24
-23.18
-21.81
-19.27
-15.88
-12.04
-8.11
-4.44
-1.24
1.48
3.78
5.74
7.33
8.41
8.82
8.54
7.77
6.90
6.31
6.20
6.51
6.95
7.20
7.08
6.61
5.98
5.40
4.91
4.38
3.57
2.28
0.49
-1.63
-3.74
-5.60
-7.06
-8.22
-9.27
-10.40
-11.72
-13.22
-14.81
-16.43
-18.09
-19.82
-21.58
-23.18
-24.23
-24.26
-22.92
-20.07
-15.96
-11.08
-6.07
-1.43
2.53
5.78
8.47
10.74
12.62
14.04
14.88
15.17
15.06
14.82
14.66
14.62
14.51
14.08
13.10
11.54
9.63
7.70
6.07
4.89
4.15
3.65
3.17
2.55
1.76
0.87
0.06
-0.56
-0.97
-1.25
-1.64
-2.37
-3.63
-5.50
-7.93
-10.81
-13.96
-17.18
-20.16
-22.51
-23.78
-23.56
-21.71
-18.36
-13.99
-9.26
-4.79
-1.00
2.05
4.56
6.81
8.94
10.92
12.54
13.62
14.13
14.17
13.93
13.58
13.18
12.68
12.07
11.40
10.85
10.58
10.63
10.90
11.13
11.05
10.52
9.58
8.44
7.41
6.70
6.34
6.19
5.97
5.46
4.53
3.30
1.98
0.79
-0.18
-1.09
-2.19
-3.77
-5.97
-8.77
-11.94
-15.20
-18.22
-20.72
-22.36
-22.83
-21.90
-19.48
-15.77
-11.21
-6.34
-1.68
2.43
5.86
8.64
10.87
12.68
14.14
15.31
16.22
16.85
17.22
17.39
17.44
17.51
17.74
18.19
18.80
19.45
19.95
20.11
19.85
19.08
17.77
15.93
13.60
10.94
8.21
5.72
3.72
2.34
1.53
1.03
0.54
-0.20
-1.29
-2.68
-4.16
-5.55
-6.74
-7.76
-8.72
-9.78
-11.05
-12.62
-14.54
-16.88
-19.62
-22.65
-25.59
-27.89
-28.86
-27.93
-24.89
-19.97
-13.82
-7.26
-1.05
4.29
8.63
12.09
14.91
17.28
19.25
20.78
21.76
22.12
21.88
21.15
20.12
18.95
17.75
16.53
15.28
13.99
12.70
11.54
10.64
10.04
9.72
9.54
9.35
9.04
8.63
8.17
7.71
7.21
6.55
5.69
4.64
3.56
2.61
1.86
1.25
0.61
-0.25
-1.41
-2.82
-4.42
-6.16
-8.09
-10.25
-12.67
-15.26
-17.92
-20.52
-23.00
-25.33
-27.35
-28.74
-29.01
-27.70
-24.61
-19.93
-14.26
-8.36
-2.94
1.59
5.15
7.86
9.92
11.50
12.66
13.43
13.87
14.12
14.33
14.61
15.01
15.49
15.92
16.16
16.12
15.85
15.42
15.01
14.69
14.42
14.05
13.36
12.21
10.64
8.86
7.18
5.80
4.79
3.93
2.89
1.36
-0.77
-3.34
-6.00
-8.35
-10.17
-11.50
-12.64
-13.98
-15.80
-18.14
-20.76
-23.18
-24.89
-25.44
-24.62
-22.45
-19.18
-15.11
-10.58
-5.88
-1.27
3.00
6.69
9.57
11.53
12.59
12.93
12.78
12.37
11.88
11.39
10.93
10.53
10.23
10.04
9.93
9.77
9.45
8.84
7.94
6.84
5.69
4.57
3.49
2.40
1.16
-0.40
-2.39
-4.73
-7.15
-9.31
-10.97
-12.12
-12.87
-13.50
-14.26
-15.38
-16.94
-18.99
-21.44
-24.26
-27.13
-29.39
-30.21
-29.03
-25.77
-20.96
-15.50
-10.31
-6.39
-4.06
-2.76
-1.53
0.35
2.91
5.62
7.65
8.36
6.72
2.72
-2.28
-6.39
-8.38
-8.28
-7.18
-6.46
-7.11
-10.57
-16.75
-23.65
-28.58
-29.94
-28.05
-24.78
-22.49
-22.92
-28.72
-40.62
-56.52
-72.42
-84.23
-88.92
-85.05
-72.14
-39.84
11.96
71.04
121.01
152.58
165.86
165.83
158.57
146.95
132.15
112.63
87.23
56.69
23.18
-8.70
-35.11
-54.63
-67.33
-74.13
-77.84
-80.80
-83.45
-84.83
-84.01
-73.70
-52.75
-25.63
0.90
21.75
36.13
46.43
55.43
64.61
73.50
79.52
80.69
75.92
67.02
56.75
48.32
44.27
45.98
52.93
62.21
70.56
75.72
76.75
73.32
67.78
61.36
54.91
48.80
42.53
35.92
29.45
24.13
20.65
19.22
19.21
19.89
20.59
20.67
19.84
18.23
16.41
14.97
14.67
16.05
19.56
25.20
32.22
39.31
45.06
48.28
47.96
43.35
33.72
18.98
0.15
-20.27
-38.71
-51.61
-56.95
-55.28
-49.57
-44.06
-42.23
-45.43
-52.56
-60.95
-67.90
-71.89
-72.95
-72.13
-70.63
-69.08
-67.34
-64.93
-61.60
-57.69
-54.04
-51.48
-50.30
-50.08
-49.92
-48.98
-46.96
-44.26
-41.66
-39.86
-39.04
-38.84
-38.47
-37.26
-34.87
-31.58
-28.04
-25.00
-22.90
-21.65
-20.66
-19.10
-16.41
-12.52
-7.97
-3.59
-0.17
1.94
2.94
3.36
3.74
4.38
5.34
6.61
8.39
11.08
15.05
20.13
25.31
28.93
29.08
24.23
13.31
-4.57
-30.47
-65.54
-110.00
-161.88
-216.16
-265.21
-300.88
-317.14
-312.00
-287.79
-249.72
-203.68
-154.44
-105.11
-57.73
-14.23
23.26
52.77
73.46
86.16
93.14
97.15
100.34
103.61
106.82
109.46
111.16
111.89
111.65
110.35
107.81
104.17
100.12
96.74
94.95
94.69
94.73
92.96
87.56
77.74
64.17
48.71
33.64
21.03
12.28
7.97
7.77
10.54
14.56
18.01
19.71
19.62
18.99
19.78
23.84
31.96
43.56
56.92
69.98
81.14
89.59
95.25
98.18
98.30
95.29
89.00
79.90
69.33
59.40
52.37
50.20
54.18
64.80
81.76
103.83
128.54
152.18
170.14
177.99
172.86
154.49
125.57
90.91
55.89
24.77
-0.24
-18.81
-31.63
-39.31
-42.30
-41.45
-38.94
-38.29
-43.20
-55.49
-73.58
-92.56
-106.19
-109.81
-102.49
-87.16
-68.88
-52.19
-39.41
-30.43
-23.89
-18.71
-14.74
-12.51
-12.38
-14.05
-16.55
-18.78
-20.04
-20.32
-20.07
-19.89
-20.16
-20.83
-21.51
-21.65
-20.64
-17.98
-13.24
-6.24
2.99
13.98
25.84
37.33
47.09
53.97
57.10
55.77
49.23
36.52
16.70
-10.37
-43.04
-77.54
-108.63
-131.46
-143.45
-145.47
-141.24
-135.53
-132.04
-132.08
-134.71
-137.79
-139.20
-137.55
-132.25
-123.35
-111.57
-98.64
-87.28
-80.51
-80.32
-86.59
-96.77
-106.86
-113.04
-113.10
-107.07
-96.95
-85.90
-77.56
-75.53
-83.00
-102.00
-132.34
-170.71
-210.64
-243.61
-261.50
-258.99
-235.28
-194.22
-142.82
-89.18
-40.36
-0.95
27.35
45.43
56.01
62.70
68.62
75.32
82.27
87.32
88.22
84.33
77.55
72.03
72.50
81.92
100.05
122.94
144.34
157.85
159.47
148.99
129.60
106.20
83.34
64.09
49.82
40.83
36.90
37.30
40.53
44.16
45.56
43.04
37.06
30.17
25.80
26.56
32.83
42.75
53.28
61.79
66.89
68.53
67.34
64.19
60.11
55.93
52.41
50.03
48.87
48.55
48.40
47.75
46.19
43.75
40.80
37.91
35.62
34.15
33.44
33.13
32.77
31.99
30.61
28.60
26.06
23.17
20.12
17.06
14.12
11.36
8.75
6.22
3.66
0.97
-1.85
-4.79
-7.72
-10.52
-13.07
-15.28
-17.10
-18.62
-20.07
-21.77
-24.09
-27.33
-31.63
-36.83
-42.52
-48.03
-52.45
-54.91
-54.64
-51.30
-45.01
-36.41
-26.47
-16.31
-6.89
1.14
7.52
12.35
15.96
18.76
21.08
23.07
24.65
25.66
25.96
25.63
24.96
24.35
24.01
23.87
23.57
22.79
21.49
20.15
19.54
20.33
22.71
26.14
29.65
32.23
33.29
32.80
31.20
29.01
26.53
23.81
20.70
17.13
13.17
9.03
4.97
1.12
-2.51
-6.04
-9.59
-13.23
-16.97
-20.77
-24.67
-28.76
-33.13
-37.78
-42.46
-46.55
-49.16
-49.32
-46.33
-40.09
-31.11
-20.39
-8.98
2.41
13.63
24.98
37.02
50.38
65.62
83.23
103.57
126.66
151.93
178.20
203.91
227.54
247.91
264.35
276.46
283.79
285.81
282.08
272.46
257.31
237.16
212.32
182.64
147.89
108.46
66.06
23.93
-13.99
-44.27
-65.46
-78.60
-86.87
-94.19
-103.68
-116.57
-131.87
-147.02
-158.98
-165.37
-165.15
-158.86
-148.27
-135.67
-123.28
-112.68
-104.66
-99.18
-95.60
-92.93
-90.01
-85.88
-79.90
-71.96
-62.55
-52.62
-43.33
-35.65
-30.04
-26.35
-23.99
-22.24
-20.59
-18.95
-17.56
-16.77
-16.83
-17.65
-18.86
-19.95
-20.43
-20.02
-18.68
-16.66
-14.49
-12.67
-11.52
-10.75
-9.43
-6.25
-0.23
8.46
18.04
25.37
26.94
20.22
4.86
-17.02
-41.54
-64.61
-83.49
-98.04
-110.82
-126.00
-147.44
-176.57
-211.06
-244.94
-270.04
-278.36
-264.41
-226.76
-168.61
-97.51
-24.25
39.39
83.71
104.43
104.58
93.66
83.94
85.34
101.40
128.48
158.49
183.37
198.79
205.15
205.93
204.81
203.64
202.33
200.27
197.87
196.92
199.42
205.89
214.20
220.09
218.85
207.54
186.45
158.89
129.51
102.08
77.78
54.95
30.23
0.34
-36.42
-79.48
-125.98
-171.25
-209.31
-233.85
-239.56
-223.71
-187.74
-137.66
-82.96
-33.87
2.30
23.78
34.62
42.41
54.37
74.07
100.13
127.72
151.23
166.98
173.99
173.13
165.42
151.04
129.72
102.12
71.17
42.13
21.13
12.79
18.04
33.26
51.35
64.46
67.30
59.33
44.37
27.99
14.18
3.37
-6.93
-19.47
-34.48
-48.78
-57.67
-58.18
-51.57
-43.15
-39.57
-45.19
-59.97
-79.86
-99.44
-114.75
-124.85
-131.47
-137.47
-144.94
-153.99
-162.55
-167.02
-163.30
-147.69
-117.94
-73.97
-18.48
42.88
102.46
152.02
184.27
194.25
180.26
144.11
90.77
27.33
-38.47
-99.17
-148.99
-185.15
-208.28
-221.67
-229.77
-236.51
-244.07
-253.25
-262.78
-270.26
-273.47
-271.41
-264.30
-253.35
-240.47
-227.90
-218.92
-214.73
-213.64
-211.89
-205.31
-190.73
-167.17
-136.16
-101.15
-68.07
-40.27
-17.19
4.32
27.33
53.32
81.00
106.99
135.13
160.06
173.71
173.07
162.73
149.94
140.06
133.94
129.75
123.54
111.22
91.37
65.63
36.70
6.75
-21.67
-46.83
-67.26
-71.21
-55.58
-25.15
11.43
46.35
75.89
103.08
129.09
153.36
175.30
188.75
191.65
187.99
184.76
180.26
173.76
163.34
146.77
122.79
96.22
67.75
42.02
25.54
23.85
40.81
77.02
128.95
189.39
248.03
294.53
322.33
328.77
314.75
284.61
244.00
199.52
158.70
128.62
114.32
117.70
135.12
157.78
175.30
179.04
165.46
136.90
99.29
58.64
18.93
-19.21
-57.16
-95.75
-134.09
-169.59
-199.15
-220.69
-234.31
-241.67
-245.29
-247.33
-248.71
-249.23
-248.20
-245.24
-240.69
-235.72
-231.63
-229.38
-229.25
-230.73
-232.87
-234.65
-235.23
-234.16
-231.46
-227.69
-223.93
-221.71
-222.66
-228.00
-237.85
-250.64
-263.03
-270.62
-269.41
-257.31
-235.18
-206.53
-176.30
-149.23
-128.44
-114.75
-106.79
-101.78
-96.47
-88.19
-75.50
-58.56
-38.93
-18.74
0.33
18.01
35.64
55.43
78.89
105.38
131.76
153.25
165.50
166.56
157.86
143.61
128.96
117.92
112.12
111.03
113.11
117.15
122.72
129.81
137.98
146.24
153.64
160.31
167.90
178.69
193.97
212.52
230.38
242.43
244.75
236.38
219.60
198.47
176.88
157.22
140.42
126.78
116.98
111.89
111.62
114.36
116.23
112.41
99.24
75.93
45.05
11.52
-19.34
-43.60
-59.51
-67.37
-68.91
-66.83
-64.00
-62.85
-64.31
-67.09
-68.32
-65.41
-58.20
-50.12
-46.89
-53.56
-71.38
-96.62
-122.18
-141.19
-150.21
-150.42
-146.00
-141.22
-137.91
-134.98
-129.73
-119.90
-105.08
-86.79
-67.61
-49.88
-34.84
-22.52
-11.98
-2.11
7.64
16.81
24.34
29.00
30.28
28.79
26.16
24.45
25.07
28.28
33.04
37.56
40.16
40.05
37.64
34.22
31.45
30.56
32.02
35.46
39.92
44.25
47.45
49.03
49.33
49.79
52.73
60.76
75.86
98.38
126.72
157.71
187.75
213.91
234.57
249.13
257.29
258.32
250.85
233.20
203.94
162.35
108.90
45.94
-21.73
-86.37
-137.99
-166.33
-164.04
-129.86
-70.45
0.64
66.63
112.36
128.43
113.03
71.16
12.25
-52.53
-112.60
-159.69
-189.21
-201.11
-199.94
-193.38
-189.60
-194.07
-207.69
-226.85
-245.62
-258.46
-262.21
-256.30
-241.97
-221.32
-197.02
-172.33
-150.85
-135.49
-127.17
-124.05
-122.04
-116.66
-105.07
-87.22
-65.63
-43.95
-25.33
-11.59
-3.42
-0.83
-3.27
-9.35
-16.47
-21.29
-21.09
-15.27
-5.95
3.05
8.21
8.40
5.55
3.60
6.37
15.45
29.48
45.06
58.43
67.22
70.92
70.36
66.76
60.93
53.25
43.95
33.71
24.01
16.96
14.57
17.95
26.74
39.08
52.19
63.33
70.68
73.69
72.98
69.77
65.28
60.25
54.92
49.15
42.75
35.69
28.10
20.29
12.51
4.86
-2.69
-10.23
-17.72
-24.70
-30.35
-33.60
-33.52
-29.78
-22.90
-14.21
-5.39
2.21
8.07
12.55
16.58
20.94
25.86
30.84
35.04
37.71
38.61
38.05
36.73
35.29
34.15
33.33
32.62
31.83
30.91
30.01
29.33
28.96
28.76
28.37
27.35
25.36
22.33
18.49
14.26
10.07
6.14
2.48
-1.16
-5.18
-9.96
-15.62
-21.94
-28.26
-33.56
-36.79
-37.13
-34.37
-28.87
-21.47
-13.12
-4.61
3.53
11.14
18.12
24.39
29.80
34.17
37.32
39.28
40.22
40.46
40.40
40.34
40.41
40.59
40.73
40.64
40.19
39.27
37.81
35.76
33.07
29.81
26.15
22.36
18.73
15.40
12.39
9.56
6.75
3.86
0.85
-2.28
-5.62
-9.31
-13.59
-18.57
-24.19
-30.04
-35.39
-39.38
-41.16
-40.30
-36.78
-31.11
-24.07
-16.45
-8.84
-1.54
5.30
11.62
17.29
22.13
26.00
28.92
31.09
32.83
34.42
36.02
37.62
39.06
40.17
40.85
41.09
40.96
40.51
39.71
38.41
36.45
33.79
30.55
27.05
23.64
20.59
17.96
15.66
13.46
11.17
8.69
6.05
3.35
0.66
-1.99
-4.64
-7.39
-10.33
-13.54
-17.16
-21.28
-25.98
-31.20
-36.58
-41.44
-44.76
-45.52
-43.00
-37.17
-28.68
-18.72
-8.54
0.92
9.21
16.28
22.22
27.01
30.49
32.55
33.25
33.00
32.38
31.94
32.01
32.56
33.35
34.03
34.36
34.26
33.87
33.42
33.15
33.19
33.41
33.51
33.04
31.64
29.20
25.91
22.21
18.60
15.45
12.86
10.73
8.86
7.08
5.31
3.56
1.83
0.09
-1.71
-3.60
-5.57
-7.61
-9.76
-12.17
-15.14
-18.99
-23.88
-29.60
-35.50
-40.52
-43.51
-43.67
-40.80
-35.35
-28.23
-20.46
-12.78
-5.56
1.11
7.26
12.82
17.60
21.38
24.00
25.53
26.21
26.39
26.47
26.66
27.04
27.53
27.97
28.20
28.14
27.81
27.24
26.44
25.42
24.16
22.70
21.09
19.41
17.66
15.78
13.65
11.21
8.57
5.92
3.51
1.50
-0.16
-1.65
-3.25
-5.13
-7.30
-9.58
-11.75
-13.60
-15.09
-16.36
-17.69
-19.46
-21.97
-25.46
-29.87
-34.78
-39.41
-42.70
-43.62
-41.52
-36.40
-28.96
-20.33
-11.61
-3.50
3.94
11.10
18.48
26.20
33.89
40.74
45.96
49.21
50.90
52.07
53.95
57.53
63.10
70.21
78.00
85.57
92.35
98.32
104.06
110.92
120.96
136.88
161.25
195.31
237.67
283.75
326.52
358.60
374.70
373.46
357.59
332.37
303.24
273.96
245.77
218.15
189.99
160.62
129.93
97.87
64.09
28.21
-9.41
-46.86
-80.80
-107.54
-124.64
-132.19
-132.69
-129.83
-126.58
-123.92
-120.91
-115.73
-107.36
-96.50
-85.33
-76.44
-71.47
-70.42
-71.84
-73.76
-74.65
-74.01
-72.36
-70.63
-69.49
-68.95
-68.47
-67.38
-65.39
-62.90
-60.72
-59.70
-60.29
-62.41
-65.65
-69.66
-74.43
-80.29
-87.62
-96.33
-105.66
-114.15
-120.13
-122.40
-120.77
-116.31
-110.95
-106.89
-105.83
-108.48
-114.56
-123.12
-132.90
-142.54
-150.51
-155.00
-154.09
-146.36
-131.63
-111.47
-88.92
-67.56
-50.08
-37.33
-28.13
-20.13
-11.15
-0.30
11.63
22.72
30.95
35.23
35.79
33.87
30.99
28.27
26.03
24.00
21.70
18.85
15.53
11.99
8.42
4.71
0.49
-4.65
-10.82
-17.77
-24.88
-31.47
-37.06
-41.60
-45.40
-48.91
-52.48
-56.13
-59.59
-62.41
-64.34
-65.50
-66.38
-67.58
-69.56
-72.29
-75.36
-78.11
-80.01
-80.96
-81.35
-81.99
-83.75
-87.29
-92.64
-99.02
-104.71
-107.36
-104.56
-94.59
-77.10
-53.45
-26.30
1.14
26.11
46.98
63.36
75.74
84.83
91.11
94.62
95.21
92.90
88.14
81.47
73.76
66.06
59.15
53.31
48.44
44.14
40.17
36.54
33.02
29.48
25.75
21.58
16.67
10.94
4.51
-2.03
-7.87
-13.09
-17.90
-22.43
-26.80
-31.33
-36.12
-41.28
-46.35
-50.55
-55.33
-61.60
-69.12
-77.05
-85.10
-92.85
-100.71
-108.15
-113.83
-120.65
-130.19
-141.66
-153.37
-165.16
-176.93
-189.97
-203.16
-212.80
-221.22
-228.55
-231.56
-226.43
-213.30
-194.95
-179.82
-175.61
-186.51
-220.75
-277.04
-342.93
-401.44
-441.73
-460.89
-468.42
-475.94
-434.42
-325.50
-169.61
-6.75
136.60
237.46
311.79
367.38
406.69
431.21
434.06
411.37
367.77
313.88
258.90
211.04
173.70
146.99
126.67
101.19
67.14
29.66
2.47
-4.73
11.88
46.33
90.29
136.39
173.07
193.51
197.68
190.40
176.74
161.66
146.63
131.86
116.84
98.68
76.13
50.69
26.31
6.95
-3.93
-5.41
1.87
16.22
34.93
56.05
78.45
101.70
125.01
147.06
164.93
174.67
172.47
156.93
131.03
101.96
78.58
67.25
68.68
77.53
85.39
85.48
76.43
62.79
51.88
49.52
56.73
69.67
82.01
88.14
85.26
73.97
57.37
39.91
26.34
20.98
27.10
46.12
76.73
114.20
150.83
177.88
188.55
180.95
159.13
131.40
106.48
89.63
81.07
77.23
74.15
70.52
68.64
72.72
85.94
108.36
136.94
167.30
195.86
220.82
241.44
256.83
265.02
263.57
250.77
226.73
193.47
154.22
112.25
70.02
28.88
-10.69
-48.80
-85.78
-122.20
-158.64
-195.58
-233.41
-272.62
-313.90
-357.91
-404.53
-452.04
-496.63
-533.09
-556.40
-563.74
-555.63
-535.83
-509.78
-482.78
-458.56
-438.77
-423.29
-410.85
-399.63
-387.55
-372.64
-353.49
-329.76
-302.38
-273.18
-244.13
-216.61
-191.11
-167.43
-145.14
-123.96
-103.98
-85.44
-68.60
-53.54
-40.09
-27.88
-16.45
-5.43
5.35
15.81
25.74
34.96
43.57
52.12
61.58
73.28
88.82
109.95
138.26
174.34
216.78
261.47
301.92
330.89
342.84
335.93
312.89
279.73
243.36
209.12
179.52
154.48
132.78
113.37
96.06
81.24
69.12
59.22
50.41
41.47
31.69
21.30
11.49
3.97
0.33
1.48
7.32
16.84
28.50
40.86
52.96
64.55
75.86
87.31
99.06
110.96
122.61
133.51
143.40
152.42
161.11
170.43
181.50
195.35
212.51
232.75
255.26
279.19
304.16
330.42
358.26
387.03
414.32
436.03
447.50
445.23
428.24
398.27
358.77
313.46
265.36
216.94
171.14
132.05
104.41
91.82
94.49
108.17
125.29
137.64
139.59
129.98
111.66
89.32
66.79
45.50
24.53
2.01
-23.35
-51.26
-79.84
-106.25
-127.56
-141.62
-147.76
-147.20
-142.86
-138.68
-138.26
-143.67
-154.96
-170.37
-187.32
-203.41
-216.99
-227.11
-233.22
-234.92
-232.11
-225.43
-216.48
-207.46
-200.54
-196.93
-196.37
-197.22
-197.28
-194.78
-189.33
-182.05
-175.14
-170.80
-170.30
-173.56
-179.39
-186.37
-193.58
-200.90
-208.81
-217.73
-227.49
-237.09
-245.13
-250.43
-252.66
-252.52
-251.59
-251.82
-255.06
-262.73
-275.36
-292.18
-310.66
-326.66
-335.17
-331.79
-313.96
-282.22
-240.01
-192.19
-143.03
-94.87
-47.68
-0.12
49.06
99.94
150.62
197.50
236.35
263.56
276.88
275.59
260.24
232.30
194.60
150.14
101.41
50.39
-0.98
-50.53
-95.42
-132.64
-159.58
-173.00
-172.31
-160.57
-143.16
-124.72
-107.66
-91.14
-73.20
-51.92
-22.72
16.06
61.56
108.18
151.31
188.18
219.13
244.70
265.40
287.87
316.31
349.40
381.91
409.61
430.28
445.79
457.79
467.56
484.37
514.34
555.94
601.40
642.50
671.89
686.93
685.58
620.30
476.45
284.92
99.83
-43.67
-132.65
-190.75
-234.49
-273.80
-314.76
-351.55
-380.51
-404.56
-430.09
-459.84
-492.05
-519.56
-538.03
-547.82
-547.00
-537.35
-524.16
-512.30
-501.41
-487.06
-461.66
-421.17
-366.06
-296.32
-215.38
-130.59
-51.07
16.11
67.34
104.11
129.55
147.10
161.23
173.95
184.27
189.85
189.68
184.82
178.45
173.45
171.59
174.40
182.63
196.30
214.47
235.05
254.57
268.96
274.66
270.26
257.30
239.52
221.13
204.90
191.32
179.11
166.48
152.45
137.32
122.49
109.51
99.23
91.09
82.81
70.76
50.95
20.38
-21.61
-72.73
-128.30
-182.80
-231.73
-272.75
-305.57
-330.93
-349.25
-359.91
-361.40
-352.42
-333.01
-304.84
-270.96
-235.20
-201.57
-173.67
-154.12
-143.70
-141.18
-143.58
-146.95
-147.47
-142.46
-130.99
-113.57
-91.44
-65.51
-36.74
-6.54
23.09
50.00
72.46
89.51
100.96
107.20
109.94
110.61
109.72
107.16
103.08
98.15
93.26
89.18
86.67
89.00
98.51
114.81
134.75
154.23
169.97
180.45
186.15
189.21
196.13
210.99
232.33
254.11
269.89
276.54
275.02
268.93
262.39
263.01
274.23
293.36
314.13
331.20
342.88
349.63
351.81
318.23
235.68
119.12
2.51
-87.70
-145.21
-177.56
-196.74
-212.55
-229.43
-241.68
-242.97
-233.05
-217.28
-203.61
-198.08
-203.35
-218.61
-240.28
-259.86
-271.25
-274.42
-269.46
-259.49
-246.74
-232.00
-215.10
-195.70
-171.67
-142.81
-111.81
-82.80
-59.58
-43.11
-32.07
-23.92
-16.20
-6.11
7.52
23.81
40.64
55.39
66.58
73.78
77.56
78.99
79.75
81.03
83.30
86.48
90.03
93.75
97.52
101.69
106.92
113.82
122.69
133.29
145.06
156.86
167.27
173.92
174.65
167.89
152.83
129.70
99.97
66.30
31.89
-0.40
-30.16
-57.95
-84.93
-112.37
-141.17
-171.54
-202.58
-232.28
-257.54
-276.12
-285.17
-282.39
-267.70
-244.02
-216.78
-191.58
-171.93
-148.79
-117.97
-80.58
-41.78
-6.97
20.56
39.66
51.08
56.48
57.39
53.32
44.55
33.96
23.91
17.01
14.61
16.17
19.60
22.69
23.27
21.58
19.74
20.01
23.91
30.08
37.08
43.62
49.26
53.54
56.49
58.23
58.56
57.30
54.40
50.31
45.58
40.80
36.12
31.77
28.12
25.38
23.45
21.89
20.25
18.31
16.40
15.17
15.27
16.85
19.33
21.69
23.23
23.83
23.94
24.24
25.21
26.88
28.79
30.40
31.43
32.42
33.92
35.92
37.91
39.10
38.96
37.44
34.85
31.60
28.49
25.68
22.62
18.88
14.47
10.28
7.69
8.05
12.30
21.45
35.27
51.78
68.37
82.22
91.75
96.89
99.02
95.22
86.20
76.48
71.63
74.84
84.61
96.86
106.66
109.76
104.01
90.88
74.91
58.58
44.33
32.96
24.29
17.29
10.58
3.38
-3.70
-9.89
-15.98
-18.43
-17.52
-15.06
-13.52
-14.92
-19.87
-26.97
-33.78
-38.10
-38.27
-34.71
-28.84
-23.00
-19.99
-22.57
-32.52
-50.49
-75.91
-106.73
-140.84
-175.96
-210.46
-243.75
-276.16
-308.36
-340.43
-370.92
-396.13
-410.93
-409.81
-388.82
-347.30
-288.31
-217.53
-141.13
-63.59
13.47
90.93
170.97
255.07
342.21
428.00
505.24
565.71
602.66
613.03
598.30
563.74
516.34
462.28
405.65
348.41
291.47
235.78
182.66
133.22
87.51
44.21
1.16
-43.72
-91.57
-142.21
-194.09
-244.51
-290.30
-328.51
-357.26
-375.99
-385.14
-385.33
-376.54
-358.05
-329.35
-291.32
-246.94
-200.47
-155.54
-113.17
-71.02
-24.78
28.96
89.94
153.18
210.29
252.55
273.89
272.58
251.11
215.06
171.70
129.01
94.58
74.13
69.62
77.99
91.50
100.30
96.14
75.68
41.61
1.04
-37.79
-68.73
-89.26
-100.00
-103.10
-100.92
-95.55
-89.12
-84.27
-83.76
-89.62
-102.09
-119.25
-137.37
-152.48
-161.91
-165.37
-165.05
-164.58
-167.44
-175.63
-188.93
-204.99
-220.30
-231.17
-234.87
-230.20
-217.59
-198.66
-175.70
-151.05
-126.79
-104.70
-86.13
-71.85
-61.73
-54.58
-48.43
-41.25
-31.87
-20.62
-9.20
0.17
5.97
8.17
8.29
8.65
11.35
17.53
27.23
39.85
54.64
70.95
88.01
104.61
118.92
128.88
132.93
130.66
123.02
111.80
98.74
84.83
70.09
54.07
36.45
17.62
-1.23
-18.48
-32.60
-42.65
-48.45
-50.67
-50.68
-50.06
-50.04
-50.90
-51.71
-50.68
-45.90
-36.26
-21.90
-4.05
15.58
35.45
54.49
72.06
87.65
100.63
110.14
115.13
114.58
107.82
95.19
78.49
61.06
46.91
39.33
39.29
45.01
52.67
58.40
60.08
58.17
54.97
52.91
53.03
54.52
55.53
54.54
51.40
47.47
44.68
44.40
46.62
50.03
52.69
53.18
51.32
48.31
46.05
46.11
48.87
53.28
57.26
58.67
55.98
48.55
36.28
19.08
-3.47
-32.03
-67.15
-108.85
-156.42
-208.53
-263.41
-318.77
-371.62
-418.00
-453.21
-472.69
-473.29
-454.52
-418.90
-371.29
-317.42
-262.19
-208.65
-157.82
-109.45
-63.01
-18.32
24.43
65.14
104.51
144.30
187.05
235.21
290.10
350.95
414.70
476.51
530.89
572.99
599.52
609.18
602.38
580.80
546.81
503.20
452.86
398.59
342.65
286.43
230.49
175.02
120.59
68.68
21.51
-18.66
-50.60
-74.64
-92.61
-106.99
-119.81
-131.98
-143.21
-152.64
-159.50
-163.62
-165.45
-165.81
-165.58
-165.51
-166.03
-167.13
-168.21
-168.11
-165.52
-159.52
-150.14
-138.48
-126.39
-115.68
-107.52
-102.12
-98.88
-97.00
-96.01
-96.24
-98.84
-105.47
-117.82
-137.09
-163.60
-196.33
-232.73
-268.80
-299.55
-320.04
-326.29
-316.44
-290.92
-252.27
-204.26
-150.65
-94.07
-35.22
26.80
93.23
163.58
234.24
298.39
347.61
374.74
376.35
353.45
310.29
252.15
183.94
110.65
38.89
-22.26
-62.58
-74.50
-57.20
-18.40
27.65
65.35
83.53
78.88
55.72
22.80
-11.03
-40.03
-62.57
-80.12
-95.31
-110.06
-124.32
-136.05
-141.93
-138.73
-124.57
-99.32
-64.05
-19.83
33.20
95.21
165.01
238.12
306.30
359.41
389.01
391.84
371.16
335.12
292.68
249.84
207.72
163.59
113.70
57.48
-0.57
-52.07
-88.73
-106.96
-109.63
-104.48
-99.94
-101.33
-108.29
-116.10
-119.35
-115.55
-107.15
-99.08
-95.42
-97.08
-103.53
-114.54
-131.80
-158.19
-195.10
-240.93
-288.04
-324.16
-336.56
-320.20
-278.13
-219.22
-153.37
-87.86
-29.08
21.04
64.46
106.64
148.27
188.31
225.25
258.19
285.51
299.25
292.75
264.70
222.63
170.68
112.61
51.24
-10.86
-72.69
-140.53
-217.53
-299.52
-372.68
-431.70
-475.81
-507.88
-530.42
-505.30
-417.63
-286.41
-177.86
-97.29
-40.42
3.17
33.58
51.38
59.28
55.51
41.31
22.34
10.38
6.86
9.52
15.28
24.14
37.68
52.72
66.99
81.02
100.44
123.99
148.68
171.59
192.24
211.16
225.78
234.03
235.83
234.73
230.45
222.09
209.13
192.77
174.94
156.00
136.42
117.35
101.39
88.78
78.86
70.62
63.57
57.51
51.83
46.16
40.49
35.31
30.26
24.69
18.06
10.21
1.37
-8.03
-17.41
-26.19
-33.89
-40.22
-45.10
-48.75
-51.72
-54.74
-58.71
-64.23
-71.41
-79.45
-86.63
-90.69
-89.49
-81.86
-68.21
-50.45
-31.41
-13.82
0.61
11.49
19.54
25.87
31.28
35.87
39.15
40.47
39.50
36.53
32.44
28.40
25.58
24.83
26.50
30.32
35.51
40.92
45.36
47.93
48.33
46.96
44.78
42.86
41.96
42.20
42.89
42.73
40.19
34.20
24.84
13.83
4.43
0.48
4.70
17.09
34.13
49.59
56.83
51.53
33.96
9.24
-14.52
-29.32
-30.27
-17.36
4.89
29.19
48.06
56.20
52.04
38.05
20.17
6.15
3.35
16.24
44.62
83.15
122.61
152.76
165.79
158.90
135.11
101.69
67.40
39.61
22.43
16.23
18.48
24.97
31.05
32.38
25.68
9.50
-15.16
-44.70
-73.52
-95.63
-106.78
-106.12
-96.68
-84.16
-74.61
-72.14
-77.47
-88.13
-99.89
-108.78
-112.63
-111.59
-107.56
-103.09
-100.28
-100.12
-102.41
-105.97
-109.04
-109.87
-107.28
-101.13
-92.43
-82.96
-74.54
-68.31
-64.33
-61.60
-58.68
-54.37
-48.30
-41.03
-33.75
-27.63
-23.35
-20.72
-18.89
-16.71
-13.34
-8.59
-2.99
2.44
6.69
9.11
9.60
8.53
6.41
3.66
0.49
-3.05
-6.86
-10.68
-14.10
-16.78
-18.64
-19.99
-21.39
-23.42
-26.41
-30.44
-35.28
-40.51
-45.52
-49.41
-51.04
-49.23
-43.00
-32.06
-16.91
1.27
20.92
40.55
58.96
75.20
88.57
98.48
104.59
106.87
105.77
102.16
97.19
92.03
87.58
84.34
82.26
80.81
79.16
76.51
72.35
66.58
59.55
51.81
43.86
36.10
28.74
21.93
15.80
10.45
5.86
1.92
-1.59
-4.84
-7.97
-11.01
-14.00
-17.15
-20.77
-25.33
-31.22
-38.62
-47.28
-56.40
-64.68
-70.53
-72.47
-69.59
-61.92
-50.46
-36.84
-22.81
-9.72
1.73
11.39
19.43
26.03
31.21
34.87
36.92
37.42
36.61
34.91
32.78
30.69
28.96
27.75
27.09
26.88
26.99
27.30
27.74
28.23
28.71
29.06
29.10
28.60
27.41
25.46
22.87
19.88
16.73
13.58
10.41
7.07
3.47
-0.41
-4.36
-8.03
-11.12
-13.45
-15.10
-16.33
-17.52
-18.99
-20.87
-23.03
-25.18
-26.95
-28.17
-28.89
-29.54
-30.65
-32.75
-36.16
-40.93
-46.84
-53.43
-60.01
-65.62
-69.13
-69.44
-65.78
-57.94
-46.46
-32.51
-17.61
-3.27
9.39
19.83
28.08
34.57
39.81
44.11
47.40
49.37
49.70
48.43
46.02
43.25
40.87
39.20
38.14
37.28
36.31
35.18
34.15
33.49
33.14
32.70
31.54
29.13
25.39
20.77
16.02
11.89
8.82
6.75
5.20
3.43
0.82
-2.95
-7.72
-12.88
-17.64
-21.34
-23.79
-25.33
-26.75
-28.95
-32.61
-37.92
-44.52
-51.50
-57.63
-61.58
-62.29
-59.19
-52.46
-42.90
-31.74
-20.26
-9.47
0.08
8.26
15.21
21.15
26.26
30.59
34.07
36.59
38.04
38.42
37.82
36.48
34.75
32.94
31.33
30.12
29.46
29.46
30.14
31.37
32.81
34.00
34.44
33.84
32.19
29.77
27.00
24.25
21.68
19.19
16.53
13.45
9.89
6.06
2.32
-1.00
-3.72
-5.93
-7.92
-10.01
-12.35
-14.91
-17.41
-19.58
-21.27
-22.62
-24.05
-26.15
-29.51
-34.50
-41.11
-48.77
-56.43
-62.61
-65.81
-64.83
-59.28
-49.65
-37.24
-23.71
-10.61
1.03
10.80
18.78
25.31
30.66
34.97
38.22
40.35
41.37
41.40
40.63
39.27
37.52
35.50
33.32
31.12
29.08
27.46
26.43
26.03
26.09
26.28
26.20
25.57
24.29
22.49
20.43
18.31
16.24
14.15
11.90
9.35
6.49
3.46
0.54
-1.98
-3.96
-5.45
-6.74
-8.27
-10.42
-13.33
-16.84
-20.52
-23.89
-26.62
-28.73
-30.53
-32.60
-35.48
-39.57
-44.98
-51.40
-58.07
-63.74
-66.93
-66.22
-60.83
-50.91
-37.68
-23.02
-8.94
3.14
12.61
19.69
25.03
29.21
32.55
35.05
36.58
37.11
36.73
35.77
34.51
33.23
32.02
30.86
29.71
28.55
27.48
26.62
26.07
25.83
25.70
25.36
24.55
23.15
21.27
19.20
17.17
15.28
13.40
11.28
8.73
5.71
2.40
-0.90
-3.91
-6.49
-8.72
-10.82
-13.07
-15.66
-18.63
-21.80
-24.85
-27.43
-29.25
-30.28
-30.70
-30.92
-31.41
-32.65
-34.91
-38.12
-41.80
-44.99
-46.46
-45.10
-40.35
-32.50
-22.65
-12.36
-3.03
4.47
10.07
14.18
17.46
20.42
23.29
26.06
28.61
30.82
32.61
33.88
34.48
34.35
33.52
32.22
30.81
29.72
29.27
29.57
30.53
31.81
32.99
33.66
33.52
32.43
30.40
27.59
24.19
20.47
16.68
13.01
9.54
6.26
3.08
-0.11
-3.37
-6.72
-10.10
-13.49
-16.86
-20.20
-23.49
-26.63
-29.50
-31.98
-34.09
-36.05
-38.26
-41.19
-45.19
-50.20
-55.62
-60.37
-63.03
-62.34
-57.58
-48.90
-37.33
-24.45
-11.92
-0.99
7.83
14.67
20.05
24.51
28.29
31.39
33.65
34.98
35.53
35.63
35.63
35.75
35.93
35.92
35.44
34.34
32.72
30.88
29.10
27.54
26.12
24.58
22.71
20.47
18.03
15.69
13.65
11.97
10.50
9.02
7.41
5.71
4.08
2.62
1.31
-0.04
-1.71
-3.91
-6.60
-9.60
-12.63
-15.45
-17.98
-20.31
-22.65
-25.18
-28.01
-31.12
-34.39
-37.62
-40.47
-42.38
-42.47
-39.75
-33.32
-22.85
-8.82
7.41
23.96
38.99
51.23
60.35
66.90
71.91
76.52
81.45
86.93
92.77
98.57
104.12
109.67
115.95
123.98
134.61
147.93
163.02
178.09
191.01
199.97
203.74
201.64
193.35
179.01
159.55
137.02
114.64
95.88
83.22
76.86
74.29
70.92
61.75
43.20
14.54
-21.88
-61.72
-100.28
-133.89
-160.15
-177.18
-182.98
-175.56
-154.22
-121.32
-83.20
-48.97
-27.81
-25.67
-43.59
-78.46
-125.32
-179.69
-238.24
-297.84
-353.94
-400.29
-430.38
-439.70
-427.56
-396.87
-352.15
-297.26
-234.23
-163.91
-88.20
-11.70
58.47
114.88
152.90
172.70
178.96
178.39
176.59
175.61
173.62
166.62
150.81
124.47
88.41
45.45
-0.40
-44.18
-79.97
-101.57
-104.46
-88.54
-59.64
-28.78
-8.29
-6.79
-25.26
-56.65
-88.99
-110.60
-114.66
-101.10
-75.78
-47.85
-26.87
-20.52
-32.88
-63.13
-105.21
-149.00
-183.06
-198.09
-189.71
-159.08
-111.80
-55.65
1.37
52.29
91.75
116.71
127.10
126.06
119.13
112.18
109.11
110.41
113.40
114.25
110.21
101.05
88.91
76.88
67.41
61.34
57.99
55.99
54.09
51.65
48.44
44.33
39.03
32.12
23.34
12.93
1.58
-9.65
-19.78
-28.03
-33.99
-37.62
-39.22
-39.39
-38.93
-38.67
-39.24
-40.95
-43.83
-47.62
-51.97
-56.34
-59.95
-61.73
-60.49
-55.32
-45.98
-33.25
-18.72
-4.35
8.21
18.06
25.15
29.95
33.18
35.37
36.77
37.47
37.57
37.18
36.46
35.49
34.26
32.62
30.52
28.09
25.71
23.75
22.40
21.41
20.20
18.10
14.70
10.14
5.00
0.02
-4.29
-7.73
-10.51
-12.98
-15.48
-18.28
-21.58
-25.47
-29.79
-34.04
-37.29
-38.48
-36.82
-32.14
-25.07
-16.76
-8.48
-1.17
4.73
9.25
12.66
15.30
17.55
19.76
22.18
24.83
27.48
29.70
31.05
31.35
30.72
29.57
28.31
27.17
26.19
25.27
24.32
23.28
22.08
20.53
18.39
15.44
11.68
7.33
2.78
-1.60
-5.62
-9.33
-12.97
-16.84
-21.20
-26.13
-31.40
-36.44
-40.35
-42.14
-40.99
-36.72
-29.82
-21.35
-12.53
-4.27
3.05
9.58
15.70
21.67
27.46
32.79
37.22
40.42
42.20
42.60
41.86
40.33
38.45
36.62
35.12
34.05
33.33
32.83
32.45
32.12
31.81
31.36
30.55
29.12
26.97
24.21
21.15
18.13
15.43
13.09
11.05
9.24
7.65
6.32
5.22
4.19
2.98
1.35
-0.80
-3.36
-6.12
-8.93
-11.75
-14.66
-17.78
-21.12
-24.56
-27.88
-30.92
-33.59
-35.94
-38.10
-40.29
-42.75
-45.78
-49.69
-54.71
-60.78
-67.35
-73.37
-77.49
-78.37
-75.22
-67.99
-57.44
-44.75
-31.18
-17.65
-4.64
7.74
19.44
30.32
40.03
48.14
54.32
58.53
61.10
62.58
63.61
64.65
65.88
67.17
68.25
68.90
69.16
69.30
69.77
70.98
73.08
75.83
78.53
80.14
79.53
75.79
68.60
58.48
46.74
35.15
25.54
19.15
16.36
16.60
18.66
21.02
22.40
21.94
19.35
14.83
8.79
1.64
-6.40
-15.35
-25.43
-36.78
-49.29
-62.36
-74.77
-84.85
-90.83
-91.32
-85.71
-74.46
-58.96
-41.16
-23.04
-6.05
9.08
22.28
33.82
43.91
52.43
58.98
63.08
64.50
63.46
60.68
57.06
53.41
50.10
47.02
43.73
39.74
34.84
29.17
23.16
17.31
12.11
7.87
4.77
2.90
2.27
2.76
4.08
5.74
7.06
7.39
6.25
3.57
-0.27
-4.57
-8.56
-11.66
-13.61
-14.56
-14.85
-14.88
-14.90
-15.05
-15.38
-15.95
-16.83
-18.12
-19.98
-22.60
-26.14
-30.53
-35.32
-39.60
-42.14
-41.86
-38.16
-31.23
-21.87
-11.16
0.04
11.14
21.84
31.80
40.54
47.44
52.02
54.18
54.26
52.86
50.60
47.87
44.81
41.42
37.78
34.15
30.95
28.64
27.54
27.65
28.62
29.92
30.96
31.37
31.04
30.17
29.05
27.89
26.76
25.60
24.31
22.90
21.55
20.61
20.46
21.37
23.23
25.41
26.74
25.74
21.06
12.05
-0.88
-16.25
-32.08
-46.52
-58.53
-68.16
-76.34
-84.47
-93.84
-105.28
-118.91
-133.90
-148.39
-159.63
-164.57
-160.71
-147.06
-124.80
-97.01
-67.83
-41.11
-19.34
-3.13
8.50
17.31
24.97
32.51
40.06
47.14
52.92
56.57
57.50
55.49
50.78
44.01
36.11
28.14
21.01
15.28
11.07
8.12
5.85
3.57
0.67
-3.26
-8.27
-13.96
-19.60
-24.28
-27.36
-28.73
-28.98
-29.11
-30.24
-33.07
-37.79
-44.10
-51.44
-59.00
-65.93
-71.32
-74.52
-75.36
-74.49
-73.23
-73.16
-75.54
-80.83
-88.61
-97.63
-106.07
-111.69
-112.24
-105.93
-92.13
-71.93
-48.05
-24.03
-2.99
13.37
25.11
33.41
39.65
44.52
47.85
49.11
48.09
45.25
41.67
38.49
36.41
35.48
35.21
34.99
34.40
33.41
32.30
31.34
30.62
29.82
28.32
25.49
20.98
14.99
8.19
1.53
-4.13
-8.31
-10.99
-12.55
-13.49
-14.24
-14.96
-15.66
-16.16
-16.34
-16.24
-16.05
-16.20
-17.20
-19.54
-23.46
-28.80
-34.85
-40.44
-44.19
-44.91
-41.93
-35.40
-26.17
-15.59
-5.00
4.55
12.56
19.03
24.24
28.49
31.93
34.48
35.97
36.27
35.49
34.00
32.32
30.98
30.26
30.15
30.38
30.56
30.44
29.96
29.31
28.68
28.17
27.65
26.87
25.57
23.65
21.28
18.81
16.63
14.99
13.85
12.85
11.54
9.48
6.49
2.73
-1.34
-5.14
-8.18
-10.28
-11.78
-13.37
-15.91
-20.11
-26.22
-33.86
-42.05
-49.39
-54.35
-55.67
-52.60
-45.17
-34.16
-20.92
-6.98
6.34
18.30
28.75
37.96
46.25
53.66
59.93
64.67
67.64
68.99
69.24
69.16
69.34
70.10
71.33
72.71
73.85
74.52
74.71
74.61
74.46
74.40
74.37
74.08
73.05
70.79
66.95
61.43
54.49
46.71
38.90
31.87
26.19
21.89
18.44
14.84
10.03
3.32
-5.36
-15.47
-26.18
-36.76
-46.89
-56.66
-66.39
-76.53
-87.32
-98.75
-110.25
-120.46
-127.20
-127.91
-120.52
-104.45
-81.13
-53.83
-26.50
-2.50
16.40
30.12
39.66
46.28
50.89
53.95
55.78
56.74
57.33
57.89
58.42
58.55
57.66
55.31
51.38
46.28
40.74
35.52
31.17
27.71
24.73
21.52
17.54
12.70
7.44
2.60
-1.12
-3.46
-4.72
-5.56
-6.68
-8.46
-10.95
-13.90
-17.04
-20.19
-23.36
-26.70
-30.50
-34.98
-40.17
-45.80
-51.37
-56.35
-60.43
-63.80
-67.12
-71.34
-77.36
-85.65
-95.98
-107.19
-117.21
-123.39
-123.18
-114.98
-99.00
-77.39
-53.72
-31.79
-14.43
-2.71
3.87
6.63
6.84
5.11
1.42
-4.35
-12.04
-20.85
-29.57
-36.92
-41.87
-43.85
-42.76
-38.77
-32.15
-23.15
-12.10
0.52
13.87
26.86
38.35
47.55
54.25
58.91
62.33
65.28
68.13
70.74
72.65
73.35
72.47
69.89
65.68
60.05
53.36
46.21
39.30
33.32
28.67
25.30
22.73
20.31
17.56
14.43
11.16
8.05
4.96
1.26
-3.90
-11.01
-19.55
-28.01
-34.34
-36.90
-35.16
-29.97
-23.13
-16.49
-11.24
-7.56
-4.86
-2.33
0.60
3.99
7.42
10.28
12.09
12.77
12.69
12.57
13.30
15.35
18.64
22.44
25.75
27.71
27.97
26.58
23.75
19.51
13.77
6.71
-0.80
-7.22
-10.78
-10.43
-6.50
-0.68
4.74
8.02
8.75
7.86
6.77
6.28
5.94
4.25
-0.53
-9.30
-21.50
-35.15
-47.52
-56.18
-59.80
-58.53
-53.67
-46.91
-39.57
-32.36
-25.52
-19.35
-14.44
-11.42
-10.43
-10.60
-10.26
-7.66
-1.91
6.45
15.62
23.46
28.37
29.87
28.44
25.12
20.91
16.57
12.63
9.52
7.53
6.77
7.06
7.91
8.79
9.24
9.00
8.04
6.40
4.12
1.27
-2.15
-6.05
-10.23
-14.51
-18.67
-22.52
-25.87
-28.50
-30.27
-31.18
-31.54
-31.90
-32.97
-35.27
-38.87
-43.31
-47.59
-50.52
-50.95
-48.16
-42.01
-33.01
-22.20
-10.87
-0.21
9.02
16.63
22.89
28.27
33.09
37.38
40.90
43.40
44.75
45.09
44.74
44.04
43.26
42.46
41.67
40.92
40.24
39.67
39.12
38.40
37.19
35.22
32.36
28.73
24.58
20.22
15.85
11.53
7.20
2.78
-1.69
-6.07
-10.07
-13.40
-15.89
-17.58
-18.82
-20.21
-22.45
-26.08
-31.33
-37.81
-44.60
-50.27
-53.36
-52.76
-48.05
-39.72
-28.98
-17.39
-6.37
3.18
10.95
17.13
22.09
26.15
29.43
31.95
33.68
34.69
35.21
35.47
35.62
35.64
35.38
34.72
33.64
32.26
30.77
29.28
27.75
25.94
23.55
20.35
16.35
11.82
7.30
3.30
0.15
-2.10
-3.72
-5.13
-6.75
-8.85
-11.53
-14.73
-18.33
-22.10
-25.86
-29.41
-32.67
-35.72
-38.88
-42.58
-47.13
-52.46
-57.93
-62.43
-64.75
-63.98
-59.85
-52.74
-43.45
-32.82
-21.57
-10.22
0.79
10.99
19.83
26.94
32.14
35.62
37.75
38.93
39.44
39.42
38.98
38.31
37.77
37.81
38.87
41.14
44.49
48.44
52.23
55.08
56.41
56.06
54.28
51.58
48.52
45.42
42.32
39.08
35.52
31.59
27.42
23.30
19.58
16.52
14.25
12.63
11.22
9.25
5.80
-0.02
-8.73
-20.32
-34.25
-49.53
-64.94
-79.10
-90.55
-97.93
-100.18
-96.91
-88.58
-76.51
-62.55
-48.56
-35.95
-25.47
-17.17
-10.80
-5.92
-2.16
0.81
3.31
5.65
8.02
10.47
12.80
14.67
15.77
15.99
15.56
14.97
14.81
15.56
17.37
20.02
22.99
25.65
27.40
27.85
26.95
24.90
22.17
19.25
16.57
14.38
12.76
11.72
11.18
11.03
11.02
10.74
9.69
7.45
3.88
-0.83
-6.34
-12.42
-19.19
-26.92
-35.66
-44.77
-52.75
-57.63
-57.69
-52.31
-42.34
-29.80
-17.00
-5.64
3.78
11.81
19.41
27.15
34.77
41.32
45.67
47.12
45.80
42.61
38.87
35.71
33.76
33.02
33.04
33.25
33.24
32.84
32.09
31.07
29.81
28.33
26.69
25.05
23.68
22.73
22.02
20.99
18.83
14.75
8.45
0.45
-7.84
-14.53
-18.05
-17.99
-15.66
-13.71
-15.20
-22.25
-34.97
-51.31
-67.82
-81.02
-88.60
-89.97
-85.91
-77.85
-67.08
-54.53
-40.89
-26.89
-13.44
-1.48
8.32
15.72
20.95
24.44
26.64
27.79
28.07
27.70
27.11
26.82
27.31
28.76
30.93
33.28
35.17
36.17
36.16
35.31
33.89
32.10
29.98
27.47
24.57
21.40
18.13
14.82
11.30
7.23
2.24
-3.81
-10.72
-17.97
-25.03
-31.47
-37.05
-41.63
-44.95
-46.62
-46.11
-43.05
-37.48
-29.91
-21.19
-12.23
-3.71
4.04
10.98
17.15
22.53
27.01
30.42
32.70
33.92
34.32
34.19
33.81
33.42
33.17
33.15
33.34
33.62
33.79
33.62
32.99
31.86
30.30
28.35
25.98
23.02
19.27
14.61
9.09
3.01
-3.19
-8.99
-13.97
-17.86
-20.71
-22.90
-25.09
-28.05
-32.37
-38.15
-44.84
-51.22
-55.83
-57.39
-55.25
-49.58
-41.27
-31.59
-21.84
-13.03
-5.61
0.58
6.23
12.22
19.02
26.23
32.58
36.32
36.18
32.08
25.36
18.27
13.05
10.94
11.90
14.87
18.48
21.69
24.03
25.51
26.19
26.03
24.84
22.48
19.01
14.82
10.58
6.98
4.54
3.36
3.09
2.97
2.19
0.10
-3.42
-7.97
-12.82
-17.22
-20.77
-23.53
-26.02
-28.85
-32.52
-37.17
-42.57
-48.20
-53.34
-57.13
-58.68
-57.22
-52.35
-44.27
-33.82
-22.22
-10.75
-0.34
8.62
16.19
22.60
28.03
32.48
35.85
38.10
39.35
39.85
39.90
39.71
39.38
38.90
38.23
37.35
36.34
35.28
34.30
33.46
32.74
32.01
31.02
29.41
26.89
23.37
18.98
14.10
9.16
4.43
-0.06
-4.47
-8.99
-13.63
-18.18
-22.26
-25.55
-27.90
-29.50
-30.72
-32.12
-34.16
-37.19
-41.30
-46.18
-51.13
-55.08
-56.89
-55.65
-51.04
-43.35
-33.45
-22.50
-11.55
-1.38
7.61
15.32
21.80
27.13
31.37
34.52
36.63
37.79
38.13
37.82
37.03
35.96
34.82
33.80
33.05
32.64
32.52
32.52
32.40
31.91
30.92
29.44
27.62
25.66
23.70
21.73
19.64
17.23
14.39
11.17
7.80
4.60
1.85
-0.34
-2.04
-3.51
-5.03
-6.83
-8.97
-11.36
-13.79
-16.10
-18.20
-20.18
-22.24
-24.62
-27.51
-31.06
-35.25
-39.86
-44.36
-47.91
-49.43
-47.92
-42.89
-34.63
-24.38
-13.79
-4.33
3.28
9.12
13.82
18.07
22.21
26.14
29.29
31.17
31.74
31.50
31.17
31.32
32.03
32.92
33.37
32.63
30.53
27.72
25.58
25.36
27.65
31.85
36.57
40.20
40.93
38.06
32.76
27.51
24.68
25.72
30.44
37.90
46.87
54.88
59.98
62.37
64.11
67.64
75.07
86.86
102.64
120.98
137.02
145.57
144.45
134.93
119.82
102.22
83.07
62.42
39.29
8.64
-34.78
-92.16
-159.65
-230.52
-296.25
-350.12
-386.99
-387.12
-342.32
-267.44
-190.80
-131.76
-98.03
-76.25
-56.22
-33.59
-9.24
12.96
27.97
35.45
40.03
47.30
61.51
82.47
108.29
136.21
161.41
179.71
190.36
195.18
195.64
191.97
181.92
163.82
137.29
101.76
57.15
5.00
-51.90
-110.41
-166.60
-216.21
-253.90
-274.58
-276.23
-260.65
-232.43
-197.55
-161.91
-129.60
-102.80
-81.73
-65.83
-55.05
-49.67
-49.13
-51.23
-52.21
-47.77
-34.71
-12.10
18.21
52.13
84.65
111.39
129.71
139.15
141.05
137.79
131.78
124.70
117.15
108.81
99.13
88.12
76.87
67.37
61.88
61.93
67.82
78.45
91.67
104.71
114.56
118.36
113.81
99.86
77.29
48.95
19.28
-7.05
-26.92
-40.04
-49.03
-57.91
-69.95
-86.05
-104.41
-121.92
-136.25
-147.37
-157.44
-169.38
-184.82
-203.06
-221.45
-237.08
-248.29
-255.04
-257.79
-256.04
-247.55
-229.09
-198.40
-156.06
-106.06
-54.72
-8.45
28.38
54.50
71.32
81.57
87.88
92.03
94.84
96.73
98.15
99.79
102.25
105.78
110.04
114.18
117.30
118.94
119.36
119.50
120.47
122.86
126.38
129.81
131.58
130.39
125.86
118.62
110.16
102.43
97.41
96.60
100.35
107.23
113.96
116.03
109.31
91.68
64.00
29.73
-6.68
-41.75
-74.19
-104.60
-134.10
-162.64
-188.17
-206.93
-214.95
-209.63
-190.66
-160.08
-121.51
-79.25
-37.55
-0.20
29.72
50.26
61.09
63.94
62.34
60.61
62.20
68.27
77.23
85.62
89.97
88.53
82.05
73.17
64.99
59.63
57.55
57.83
58.82
58.84
56.35
50.09
39.27
24.08
6.14
-11.59
-25.71
-33.72
-35.08
-31.40
-25.40
-19.22
-13.30
-6.34
3.42
16.39
30.55
41.77
45.23
37.39
17.31
-13.21
-50.25
-88.81
-124.00
-151.85
-169.89
-177.51
-176.09
-168.58
-158.38
-148.12
-138.69
-129.20
-117.82
-102.96
-84.21
-62.49
-39.44
-16.80
4.23
23.09
39.64
53.90
65.90
75.92
84.79
94.16
106.23
123.00
145.22
171.54
198.35
220.37
232.08
229.34
210.51
176.85
132.26
82.37
33.46
-8.67
-39.67
-57.50
-62.87
-59.21
-52.01
-47.63
-51.94
-69.00
-100.05
-143.23
-193.89
-245.65
-291.98
-327.71
-350.07
-358.81
-355.46
-342.19
-320.94
-293.07
-259.47
-220.87
-178.16
-132.47
-85.32
-38.53
5.82
45.56
78.88
104.56
122.31
132.70
137.03
137.09
134.77
131.89
129.74
128.85
128.84
128.69
127.25
123.84
118.64
112.64
107.15
103.11
100.65
98.93
96.53
91.97
84.34
73.69
61.09
48.59
38.74
33.89
35.25
42.09
51.51
59.02
60.12
51.98
34.59
10.68
-15.54
-40.12
-60.74
-76.94
-89.50
-99.44
-107.41
-113.82
-119.04
-123.56
-127.63
-130.71
-131.29
-127.40
-117.49
-101.20
-79.64
-54.90
-29.42
-5.38
15.55
32.37
44.80
53.41
59.82
66.38
75.45
88.18
103.44
117.42
124.50
119.29
99.26
66.53
27.73
-8.14
-32.92
-42.05
-35.60
-17.24
7.80
34.67
59.66
80.19
94.35
101.13
101.14
97.09
93.53
94.90
103.59
118.42
134.69
146.06
146.83
133.44
104.84
62.00
7.41
-54.67
-117.48
-171.84
-207.89
-218.56
-203.15
-168.34
-125.94
-87.89
-61.33
-46.55
-38.72
-31.88
-22.60
-10.98
0.95
11.86
22.51
34.93
50.39
67.83
84.15
96.05
102.35
105.07
108.57
117.21
133.15
154.87
177.40
193.73
197.16
183.49
152.84
110.19
64.36
25.52
1.91
-3.05
7.98
27.31
45.26
53.73
48.91
31.84
6.99
-20.25
-45.84
-67.86
-86.05
-100.50
-110.74
-115.81
-115.28
-110.36
-104.26
-101.48
-106.02
-119.62
-141.06
-166.78
-192.59
-215.36
-233.72
-247.43
-255.98
-257.53
-249.05
-227.77
-193.08
-147.63
-96.93
-47.52
-4.80
28.66
53.09
70.53
83.22
92.52
98.64
101.08
99.39
93.47
83.74
71.04
56.56
41.75
28.21
17.42
10.23
6.68
6.10
7.58
10.38
14.25
19.14
24.91
31.14
37.15
42.32
46.36
49.35
51.56
53.24
54.44
54.98
54.66
53.37
51.12
47.99
44.06
39.45
34.26
28.69
22.89
16.98
11.02
5.08
-0.71
-6.19
-11.33
-16.36
-21.76
-28.00
-35.13
-42.34
-47.86
-49.49
-45.40
-34.91
-18.99
0.15
19.79
37.72
52.89
65.44
76.40
86.99
98.17
110.35
123.37
136.62
149.22
160.23
168.84
174.55
177.24
177.25
175.16
171.71
167.50
162.77
157.25
150.21
140.79
128.44
113.35
96.43
79.05
62.38
46.99
32.79
19.28
6.11
-6.47
-17.53
-25.54
-28.72
-25.67
-16.00
-0.94
16.21
30.52
36.43
29.60
8.35
-25.43
-66.66
-108.36
-143.48
-166.74
-176.02
-172.95
-162.45
-151.36
-146.36
-152.05
-169.56
-196.41
-227.41
-256.35
-277.60
-287.32
-283.82
-267.39
-239.85
-204.07
-163.63
-122.45
-84.18
-51.64
-26.05
-6.71
8.99
24.88
44.79
71.41
105.59
146.27
190.98
236.37
278.82
314.73
340.93
355.16
356.62
346.11
325.87
298.70
267.10
232.61
195.76
156.72
116.09
75.15
35.64
-1.04
-34.41
-64.86
-92.98
-118.73
-141.07
-158.25
-168.94
-173.12
-172.34
-169.36
-167.03
-167.67
-172.68
-182.73
-197.92
-217.81
-241.09
-265.34
-287.21
-302.80
-308.34
-300.83
-278.55
-241.68
-192.85
-137.75
-84.73
-43.11
-20.10
-17.71
-31.06
-49.45
-60.01
-52.63
-23.95
21.60
73.96
121.82
156.68
175.11
178.22
169.52
152.72
130.54
104.97
78.24
53.45
34.34
24.22
24.46
33.45
46.87
59.32
66.68
67.83
64.68
60.45
57.11
53.53
45.76
29.29
2.08
-33.64
-71.98
-106.18
-131.94
-149.38
-162.57
-177.09
-196.95
-222.69
-251.07
-276.38
-292.53
-294.95
-281.84
-254.37
-216.07
-171.57
-125.29
-80.56
-39.47
-3.13
27.78
52.83
71.99
85.95
96.25
104.86
113.59
123.40
134.27
145.33
155.42
163.49
168.81
171.00
169.94
165.77
158.91
150.14
140.53
131.27
123.32
117.01
111.90
106.86
100.53
91.92
80.84
68.01
54.69
42.15
31.07
21.44
12.66
4.02
-5.09
-15.04
-26.10
-38.57
-52.77
-68.67
-85.51
-101.55
-114.27
-120.99
-119.73
-110.06
-93.30
-72.27
-50.37
-30.63
-14.88
-3.54
4.16
9.63
14.19
18.73
23.47
28.20
32.50
36.01
38.59
40.28
41.15
41.32
40.79
39.67
38.19
36.76
35.91
36.02
37.25
39.30
41.55
43.25
43.69
42.50
39.75
35.96
31.84
28.04
24.86
22.14
19.41
16.19
12.22
7.62
2.74
-2.02
-6.40
-10.40
-14.16
-17.81
-21.44
-25.10
-28.98
-33.42
-38.79
-45.16
-52.03
-58.29
-62.52
-63.47
-60.66
-54.40
-45.69
-35.60
-24.93
-13.99
-2.81
8.53
19.60
29.70
38.05
44.13
47.87
49.65
50.12
49.93
49.54
49.15
48.76
48.30
47.72
47.12
46.60
46.25
45.94
45.42
44.34
42.42
39.52
35.63
30.90
25.57
19.92
14.31
9.11
4.65
1.07
-1.70
-3.92
-5.92
-8.05
-10.52
-13.45
-16.88
-20.68
-24.59
-28.24
-31.29
-33.61
-35.42
-37.27
-39.85
-43.73
-49.01
-55.23
-61.40
-66.30
-68.83
-68.24
-64.36
-57.47
-48.16
-37.13
-25.01
-12.38
0.21
12.23
23.10
32.36
39.76
45.30
49.21
51.82
53.43
54.26
54.47
54.22
53.67
52.99
52.32
51.76
51.31
50.98
50.73
50.42
49.86
48.76
46.88
44.10
40.58
36.58
32.50
28.58
24.96
21.61
18.42
15.29
12.16
8.98
5.72
2.39
-0.98
-4.34
-7.69
-11.13
-14.86
-19.05
-23.75
-28.74
-33.63
-38.06
-41.84
-45.11
-48.27
-51.81
-56.14
-61.38
-67.33
-73.39
-78.66
-82.01
-82.34
-78.90
-71.58
-60.96
-48.20
-34.62
-21.33
-8.95
2.30
12.38
21.24
28.71
34.59
38.85
41.76
43.75
45.27
46.62
47.79
48.62
48.95
48.71
48.05
47.22
46.45
45.86
45.44
44.97
44.18
42.61
39.89
35.83
30.51
24.27
17.64
11.17
5.24
0.03
-4.66
-9.12
-13.64
-18.57
-24.14
-30.56
-37.90
-46.10
-54.74
-63.53
-71.94
-79.40
-85.31
-88.89
-89.22
-85.36
-76.75
-63.30
-46.67
-28.98
-12.54
0.92
10.82
17.76
22.98
27.76
33.52
39.77
46.62
54.36
63.39
74.03
86.08
98.69
110.59
121.63
130.03
135.99
140.16
143.24
145.68
147.74
149.67
151.85
155.82
159.81
162.87
163.43
159.78
150.82
136.50
117.85
88.36
61.27
36.00
13.24
-6.76
-24.19
-39.56
-53.70
-67.44
-81.16
-93.11
-103.53
-110.57
-112.80
-110.14
-104.19
-98.12
-95.68
-100.00
-111.61
-131.12
-156.06
-182.80
-207.63
-227.43
-240.11
-244.76
-241.51
-230.70
-214.57
-194.49
-171.31
-144.75
-113.58
-76.07
-31.22
20.05
74.50
126.19
169.14
199.23
215.94
222.61
224.88
228.14
234.95
243.92
250.13
247.68
232.42
203.91
165.75
124.22
85.72
54.41
30.87
12.53
-4.66
-24.16
-47.42
-74.03
-102.93
-133.93
-168.28
-207.73
-252.95
-302.14
-351.09
-394.91
-430.28
-456.83
-476.73
-492.60
-505.21
-512.37
-509.71
-493.01
-460.54
-414.24
-358.99
-300.65
-243.89
-190.96
-141.71
-94.66
-48.11
-0.75
48.31
99.65
153.29
208.21
261.82
310.12
348.77
374.51
386.51
386.67
378.82
367.20
355.06
343.95
333.98
324.57
315.15
305.64
296.25
287.22
278.62
270.40
262.48
254.91
247.85
241.43
235.55
229.82
223.72
216.93
209.68
202.93
198.09
196.50
198.67
203.86
210.13
214.67
214.46
207.07
191.20
166.77
134.37
94.73
48.60
-2.67
-56.70
-109.67
-156.81
-193.50
-216.98
-227.55
-228.87
-226.91
-227.76
-236.48
-256.06
-286.78
-325.94
-368.03
-405.65
-431.13
-438.86
-426.59
-398.33
-364.27
-337.66
-329.28
-342.96
-373.77
-409.73
-436.37
-439.86
-413.92
-361.87
-293.77
-220.45
-149.17
-82.55
-19.95
39.94
100.62
162.68
222.83
276.05
319.22
351.93
374.80
388.02
391.46
390.33
390.17
394.08
402.30
414.21
428.93
444.72
459.34
442.50
380.46
285.51
185.29
99.03
31.12
-21.54
-62.51
-93.51
-115.15
-123.94
-119.38
-106.25
-92.73
-85.00
-84.70
-89.84
-96.85
-101.98
-98.87
-83.80
-57.63
-26.62
1.63
20.28
24.45
12.48
-13.17
-43.96
-71.08
-86.50
-88.71
-81.38
-70.40
-61.06
-56.15
-55.69
-57.12
-57.92
-56.68
-53.63
-48.21
-39.57
-27.79
-14.64
-2.89
5.47
10.18
12.99
16.29
22.08
30.71
40.75
49.86
56.18
59.01
58.73
56.28
52.28
47.15
41.27
35.18
29.66
25.55
24.15
25.82
30.10
35.74
41.18
44.74
44.94
40.99
33.09
22.58
11.67
2.89
-1.78
-1.66
2.26
7.72
11.92
12.39
7.53
-3.46
-20.56
-43.12
-69.54
-97.14
-122.08
-140.12
-147.73
-143.42
-128.35
-105.78
-79.83
-54.18
-31.21
-12.12
2.54
12.25
16.47
15.03
8.65
-0.95
-11.50
-20.96
-28.26
-33.45
-37.29
-40.49
-43.20
-44.93
-45.04
-43.37
-40.56
-38.07
-37.56
-40.06
-45.41
-52.20
-58.37
-62.11
-62.56
-60.14
-56.35
-52.91
-51.09
-51.12
-52.18
-52.98
-52.43
-50.06
-46.21
-41.91
-38.41
-36.56
-36.36
-36.50
-34.73
-28.28
-14.38
8.76
40.79
78.64
116.98
149.55
171.22
179.00
172.96
156.33
134.32
112.06
93.01
78.70
69.05
63.32
59.65
55.59
49.52
41.38
32.53
25.40
23.25
28.88
43.79
65.95
90.13
110.41
122.17
122.99
112.57
92.84
63.83
30.93
1.19
-24.21
-49.90
-79.53
-111.01
-139.93
-160.25
-166.77
-156.90
-133.14
-102.01
-70.53
-43.44
-22.63
-8.19
0.52
3.68
1.35
-6.54
-18.77
-31.73
-40.37
-40.70
-31.87
-15.94
3.21
21.83
37.24
48.21
55.17
59.27
61.29
61.00
57.78
51.17
41.53
29.86
17.56
6.15
-3.19
-10.12
-15.08
-18.69
-21.33
-22.86
-22.99
-21.80
-20.07
-19.32
-21.36
-27.47
-37.52
-49.60
-60.48
-66.57
-65.31
-56.13
-40.77
-22.54
-5.15
8.37
16.22
17.70
12.82
2.11
-13.21
-31.09
-48.83
-63.86
-74.69
-81.50
-85.82
-89.20
-91.91
-92.32
-87.62
-75.46
-55.57
-30.16
-3.13
21.72
42.12
57.88
70.18
80.33
88.78
94.85
97.38
95.71
90.34
82.94
75.62
70.09
66.97
65.73
65.25
64.42
62.69
60.10
56.99
53.62
49.90
45.47
39.97
33.28
25.70
17.82
10.25
3.39
-2.60
-7.77
-12.07
-15.30
-17.18
-17.51
-16.41
-14.47
-12.59
-11.64
-12.09
-13.91
-16.64
-19.81
-23.25
-27.19
-32.22
-38.98
-47.85
-58.71
-70.72
-82.22
-90.79
-93.65
-88.47
-74.15
-51.50
-23.26
6.65
34.31
57.00
73.72
85.11
92.71
98.19
102.69
106.64
109.80
111.62
111.42
108.70
103.20
94.92
84.16
71.48
57.73
44.01
31.51
21.30
13.93
9.32
6.67
5.00
3.53
2.09
1.08
1.01
1.99
3.34
3.74
1.47
-4.90
-16.17
-32.11
-51.34
-71.57
-89.95
-103.74
-110.95
-111.03
-105.04
-95.49
-85.55
-78.27
-75.67
-78.38
-85.66
-95.90
-107.22
-117.82
-125.94
-129.73
-127.14
-116.42
-96.83
-69.50
-37.54
-5.16
23.83
47.38
65.63
80.13
92.40
102.66
109.65
111.45
106.98
97.06
84.39
72.57
64.49
61.09
61.06
61.62
59.90
54.29
44.94
33.49
22.07
12.36
4.97
-0.62
-5.63
-11.68
-20.31
-32.77
-49.48
-69.63
-91.01
-110.26
-123.81
-128.98
-124.85
-112.45
-94.39
-73.97
-54.36
-38.12
-26.94
-21.65
-22.26
-27.98
-37.25
-47.86
-57.16
-62.52
-61.89
-54.25
-40.03
-20.98
0.23
20.89
38.95
53.51
64.82
73.69
80.88
86.55
90.21
91.07
88.63
83.09
75.39
66.96
59.10
52.64
47.72
43.91
40.61
37.32
33.78
29.89
25.61
20.82
15.31
8.89
1.46
-6.92
-16.05
-25.65
-35.43
-45.18
-54.95
-64.94
-75.46
-86.67
-98.52
-110.66
-122.61
-134.09
-145.15
-156.00
-166.65
-176.30
-183.07
-184.21
-176.91
-159.15
-130.28
-91.14
-43.65
9.49
65.00
119.07
167.64
207.01
234.75
250.41
255.45
252.41
243.66
230.55
213.50
192.78
169.49
145.82
124.47
107.67
96.29
89.67
86.09
83.51
80.11
74.61
66.30
55.18
41.96
27.99
14.87
3.83
-4.79
-11.54
-17.49
-23.59
-30.22
-37.24
-44.34
-51.48
-58.99
-67.44
-77.29
-88.72
-101.63
-115.70
-130.39
-144.67
-156.98
-165.22
-167.42
-162.43
-150.42
-132.86
-112.11
-90.65
-70.69
-53.97
-41.75
-34.72
-32.66
-34.04
-35.99
-34.76
-26.90
-10.49
14.04
43.79
74.20
100.30
118.22
126.14
124.65
116.27
104.37
91.93
80.73
71.24
63.19
56.10
49.53
42.85
34.92
24.22
9.65
-8.31
-27.07
-42.37
-49.89
-47.16
-34.75
-16.06
4.18
21.79
34.49
42.17
46.01
47.33
46.62
43.39
36.69
25.96
11.79
-3.82
-17.87
-27.38
-30.39
-26.65
-17.65
-5.85
6.26
17.03
25.97
33.48
40.26
46.75
52.76
57.63
60.69
61.60
60.75
59.13
57.98
57.99
58.84
58.79
55.20
45.32
27.35
1.15
-31.52
-67.32
-101.84
-130.29
-148.15
-152.11
-140.81
-115.57
-80.20
-40.25
-1.56
31.17
55.31
70.49
77.96
79.69
77.52
72.70
65.71
56.50
44.98
31.40
16.72
2.38
-10.26
-20.64
-29.40
-38.11
-48.45
-61.25
-75.80
-89.92
-100.69
-105.42
-102.59
-92.25
-75.87
-55.64
-33.72
-11.74
9.30
28.69
45.52
58.43
65.71
65.84
58.10
43.08
22.81
0.49
-20.07
-35.24
-42.25
-39.92
-28.99
-12.01
7.47
25.84
40.45
50.05
54.65
54.95
51.89
46.37
39.27
31.61
24.48
18.79
14.92
12.49
10.51
7.71
3.12
-3.67
-12.33
-22.04
-31.85
-41.03
-49.32
-56.90
-64.21
-71.67
-79.38
-87.13
-94.45
-101.04
-106.89
-112.45
-118.34
-124.99
-132.21
-138.95
-143.40
-143.35
-136.80
-122.36
-99.60
-69.07
-32.27
8.56
50.65
90.99
126.90
156.44
178.81
194.39
204.41
210.42
213.80
215.40
215.55
214.22
211.29
206.85
201.32
195.41
190.13
186.58
185.76
188.17
193.51
200.39
206.46
208.87
205.03
193.41
174.07
148.56
119.45
89.64
61.62
37.19
17.17
1.36
-11.31
-22.48
-34.10
-47.95
-65.15
-85.80
-108.93
-133.05
-156.73
-178.73
-198.09
-214.15
-226.74
-236.31
-243.95
-251.20
-260.22
-273.44
-292.36
-316.51
-343.18
-368.00
-386.29
-394.27
-389.98
-374.33
-350.70
-322.91
-293.48
-262.80
-229.57
-191.66
-146.82
-93.39
-31.87
34.48
100.67
161.36
211.83
248.70
269.72
271.74
257.35
235.06
213.18
195.11
179.82
164.48
147.18
127.56
109.52
98.94
100.44
114.97
139.65
169.29
198.46
223.28
240.11
246.21
240.34
221.72
189.74
145.16
91.41
34.70
-17.43
-58.29
-83.66
-92.74
-88.47
-76.49
-63.16
-53.63
-50.67
-54.29
-61.80
-68.14
-67.21
-53.84
-25.54
16.73
68.85
124.58
177.11
220.61
251.40
268.36
272.33
265.52
250.91
231.75
211.14
191.58
174.53
160.25
147.84
135.62
121.78
104.95
84.56
60.89
34.72
6.99
-21.61
-50.81
-80.92
-112.57
-146.31
-182.00
-218.39
-253.06
-282.93
-305.11
-317.77
-320.64
-315.03
-303.32
-288.18
-271.98
-256.34
-241.99
-228.91
-216.53
-204.32
-192.23
-181.20
-173.05
-170.01
-173.62
-183.63
-197.62
-211.27
-219.49
-217.88
-203.83
-176.70
-137.49
-88.48
-33.12
23.93
77.17
121.65
154.72
177.49
194.25
210.17
227.94
245.66
257.36
256.25
238.78
207.01
168.00
130.49
101.21
82.64
73.59
71.30
73.63
79.77
89.31
101.13
112.63
120.33
121.44
114.95
101.96
84.82
65.94
46.82
27.91
9.06
-9.79
-28.24
-45.52
-60.84
-73.70
-84.00
-91.76
-97.04
-99.89
-100.55
-99.71
-98.60
-98.82
-102.04
-109.68
-122.58
-140.76
-163.10
-187.11
-208.84
-223.46
-226.42
-215.25
-191.05
-158.85
-126.60
-102.69
-93.25
-100.02
-120.00
-146.56
-171.79
-188.94
-193.94
-185.85
-166.02
-136.78
-100.19
-57.60
-10.14
40.31
90.44
135.93
172.68
198.62
214.62
223.96
230.61
237.12
243.59
248.12
248.38
243.26
233.42
220.77
207.13
193.31
179.01
163.47
146.30
127.83
108.92
90.50
73.02
56.34
39.95
23.23
5.89
-11.79
-28.69
-42.87
-51.97
-54.05
-48.41
-36.10
-19.79
-2.82
11.88
22.68
29.52
33.44
35.86
37.97
40.47
43.53
46.81
49.30
49.44
45.36
35.72
20.35
0.59
-21.12
-42.19
-60.87
-76.95
-91.58
-106.57
-123.41
-142.60
-163.47
-184.48
-203.83
-220.05
-232.47
-241.17
-246.86
-250.32
-251.86
-250.98
-246.55
-237.14
-221.61
-199.59
-171.83
-140.34
-108.15
-78.80
-55.53
-40.44
-33.79
-33.88
-37.49
-40.71
-39.96
-32.84
-18.55
2.03
26.66
52.20
75.35
93.11
103.46
105.53
99.66
87.30
70.83
53.37
38.27
28.41
25.32
28.73
36.63
45.98
53.87
58.52
59.65
58.27
55.88
53.80
52.69
52.58
53.12
53.89
54.61
55.08
55.22
54.96
54.21
52.88
50.88
48.17
44.82
40.96
36.78
32.38
27.80
22.86
17.29
10.78
3.05
-5.95
-16.09
-27.04
-38.24
-48.99
-58.43
-65.72
-70.16
-71.40
-69.49
-64.85
-58.02
-49.38
-39.12
-27.27
-13.90
0.62
15.65
30.35
43.91
55.73
65.40
72.77
77.74
80.41
81.02
80.00
77.99
75.62
73.44
71.74
70.55
69.64
68.65
67.14
64.77
61.41
57.20
52.57
47.96
43.72
39.86
36.11
32.05
27.38
21.99
16.04
9.83
3.66
-2.24
-7.75
-12.87
-17.66
-22.37
-27.34
-32.94
-39.36
-46.51
-53.88
-60.66
-65.81
-68.27
-67.29
-62.61
-54.54
-43.86
-31.54
-18.33
-4.61
9.60
24.29
39.16
53.46
66.19
76.43
83.74
88.36
91.04
92.70
94.12
95.68
97.41
99.03
100.18
100.63
100.35
99.61
98.87
98.58
98.92
99.76
100.66
101.12
100.89
100.06
99.20
99.10
100.73
105.05
112.93
124.83
140.42
158.31
176.02
190.53
199.23
200.94
196.43
188.10
178.97
171.35
165.98
161.88
157.11
149.75
138.65
123.68
105.47
84.89
62.81
39.97
16.97
-5.57
-27.22
-47.65
-66.87
-85.25
-103.40
-122.00
-141.39
-161.23
-180.43
-197.41
-210.75
-219.83
-225.36
-229.22
-233.81
-241.14
-252.12
-266.34
-282.42
-298.50
-312.61
-322.78
-327.06
-323.70
-311.38
-289.79
-259.78
-223.57
-184.37
-145.80
-111.24
-83.30
-63.60
-52.80
-50.69
-56.20
-67.41
-81.55
-95.26
-105.28
-109.31
-106.82
-99.31
-89.77
-81.49
-76.82
-76.23
-78.34
-80.57
-80.12
-74.93
-64.15
-48.23
-28.76
-7.87
12.34
30.37
45.63
58.49
69.84
80.59
91.10
101.11
109.90
116.76
121.33
123.78
124.60
124.27
123.13
121.26
118.62
115.26
111.32
107.03
102.60
98.13
93.61
89.05
84.48
79.95
75.45
70.93
66.23
61.36
56.43
51.66
47.22
43.06
38.76
33.81
27.77
20.64
12.85
5.13
-1.86
-7.75
-12.71
-17.22
-21.90
-27.24
-33.41
-40.21
-47.06
-53.09
-57.35
-58.92
-57.18
-51.98
-43.68
-33.05
-21.04
-8.55
3.77
15.55
26.58
36.71
45.72
53.33
59.26
63.36
65.71
66.60
66.47
65.78
64.90
63.96
62.90
61.55
59.78
57.62
55.24
52.95
50.92
49.12
47.23
44.86
41.69
37.73
33.33
29.03
25.29
22.19
19.43
16.37
12.49
7.60
2.00
-3.69
-8.86
-13.19
-16.83
-20.34
-24.42
-29.73
-36.58
-44.84
-53.88
-62.59
-69.54
-73.34
-72.91
-67.89
-58.75
-46.66
-33.10
-19.49
-6.81
4.52
14.55
23.53
31.70
39.09
45.57
50.90
54.87
57.41
58.68
58.96
58.64
57.99
57.14
56.10
54.85
53.50
52.22
51.26
50.69
50.42
50.12
49.34
47.77
45.26
41.92
38.07
34.05
30.13
26.41
22.78
19.01
14.85
10.16
4.98
-0.45
-5.79
-10.71
-15.07
-18.95
-22.67
-26.71
-31.59
-37.69
-45.07
-53.26
-61.27
-67.75
-71.28
-70.87
-66.21
-57.90
-47.10
-35.24
-23.58
-12.94
-3.65
4.33
11.19
17.16
22.41
26.99
30.90
34.09
36.49
38.11
39.02
39.35
39.26
38.86
38.24
37.49
36.78
36.31
36.26
36.57
36.97
36.99
36.16
34.17
31.07
27.19
23.04
19.09
15.58
12.47
9.48
6.29
2.65
-1.47
-5.88
-10.28
-14.35
-17.92
-21.01
-23.86
-26.84
-30.41
-34.93
-40.55
-46.94
-53.27
-58.28
-60.56
-59.07
-53.48
-44.43
-33.24
-21.50
-10.58
-1.23
6.42
12.72
18.10
22.92
27.31
31.24
34.63
37.45
39.68
41.38
42.51
43.01
42.75
41.70
39.95
37.79
35.59
33.73
32.35
31.37
30.51
29.45
27.95
25.93
23.42
20.53
17.34
13.88
10.18
6.29
2.26
-1.81
-5.90
-9.97
-14.11
-18.35
-22.71
-27.07
-31.27
-35.14
-38.62
-41.85
-45.14
-48.90
-53.39
-58.58
-63.98
-68.73
-71.77
-72.19
-69.44
-63.54
-55.01
-44.72
-33.67
-22.81
-12.80
-3.98
3.62
10.18
15.93
20.96
25.15
28.33
30.38
31.42
31.71
31.63
31.41
31.13
30.81
30.50
30.34
30.45
30.82
31.19
31.25
30.73
29.59
28.02
26.25
24.41
22.42
20.13
17.43
14.38
11.18
8.01
4.94
1.90
-1.25
-4.65
-8.42
-12.65
-17.42
-22.60
-27.78
-32.13
-34.63
-34.29
-30.62
-23.74
-14.40
-3.68
7.40
18.06
27.93
36.93
45.18
52.83
59.98
66.59
72.51
77.51
81.36
84.04
85.74
86.86
87.84
89.03
90.50
92.03
93.24
93.80
93.60
92.84
91.92
91.22
90.90
90.81
90.48
89.37
86.95
82.83
76.81
68.82
59.03
47.83
35.73
23.23
10.63
-2.11
-15.24
-29.02
-43.38
-57.81
-71.45
-83.27
-92.45
-98.47
-101.21
-100.84
-97.73
-92.42
-85.49
-77.55
-69.11
-60.51
-51.91
-43.42
-35.16
-27.34
-20.25
-14.11
-8.95
-4.64
-0.86
2.60
5.77
8.45
10.39
11.42
11.60
11.09
10.10
8.68
6.72
4.02
0.42
-4.16
-9.73
-16.33
-23.94
-32.41
-41.20
-49.37
-55.74
-59.40
-60.05
-58.29
-55.39
-52.80
-51.60
-52.17
-54.30
-57.44
-61.17
-65.29
-69.77
-74.57
-79.50
-84.34
-88.99
-93.65
-98.57
-103.77
-108.67
-111.95
-111.92
-107.10
-96.89
-81.92
-63.91
-45.10
-27.55
-12.57
-0.53
8.92
16.52
22.86
28.24
32.57
35.67
37.45
38.10
38.03
37.71
37.48
37.39
37.32
37.10
36.66
36.11
35.59
35.19
34.82
34.24
33.21
31.52
29.15
26.16
22.72
19.06
15.39
11.93
8.78
5.88
3.06
0.04
-3.38
-7.22
-11.33
-15.44
-19.33
-22.83
-25.96
-28.84
-31.66
-34.68
-38.21
-42.56
-47.92
-54.20
-60.86
-66.86
-70.77
-71.22
-67.36
-59.23
-47.81
-34.73
-21.67
-9.88
0.11
8.46
15.67
22.18
28.19
33.57
38.06
41.43
43.59
44.69
44.89
44.38
43.26
41.58
39.39
36.90
34.46
32.49
31.27
30.70
30.40
29.77
28.41
26.29
23.79
21.46
19.64
18.27
16.89
14.91
11.86
7.69
2.68
-2.68
-7.91
-12.64
-16.62
-19.77
-22.15
-24.02
-25.74
-27.70
-30.18
-33.23
-36.70
-40.38
-44.13
-47.99
-52.17
-56.99
-62.70
-69.40
-76.86
-84.34
-90.57
-93.90
-92.75
-86.23
-74.60
-59.34
-42.74
-27.05
-13.82
-3.40
4.80
11.82
18.47
25.03
31.25
36.66
40.93
44.02
46.18
47.75
48.99
49.94
50.51
50.58
50.10
49.20
48.13
47.14
46.38
45.75
44.95
43.59
41.39
38.38
34.90
31.46
28.57
26.42
24.84
23.39
21.57
19.05
15.82
12.14
8.38
4.84
1.65
-1.23
-4.02
-7.05
-10.63
-14.92
-19.88
-25.18
-30.36
-34.99
-38.82
-41.98
-44.94
-48.36
-52.91
-58.96
-66.42
-74.57
-81.97
-86.69
-86.79
-81.07
-69.58
-53.74
-35.98
-19.06
-5.18
4.81
11.48
16.31
20.72
25.62
30.91
35.91
39.43
40.35
38.44
34.58
30.38
27.43
26.89
28.63
31.84
34.77
35.52
33.27
28.67
23.44
19.34
18.05
20.26
26.30
35.15
44.44
51.10
52.04
45.21
29.70
6.78
-21.69
-47.71
-62.31
-61.75
-50.88
-38.28
-29.04
-27.25
-29.02
-32.32
-37.86
-49.45
-72.79
-109.12
-158.56
-218.19
-282.28
-342.20
-389.19
-415.72
-418.66
-400.41
-367.50
-328.09
-288.44
-251.62
-217.18
-183.66
-149.89
-116.43
-85.06
-57.12
-32.40
-8.62
17.16
47.43
82.85
122.86
165.97
210.51
254.78
296.74
333.83
363.02
381.60
387.93
382.30
366.81
344.62
319.16
293.40
269.76
249.98
235.06
224.89
218.16
212.50
205.24
194.31
179.11
160.79
141.81
125.11
112.94
106.01
103.19
101.76
98.18
89.33
73.45
50.79
23.33
-6.17
-35.32
-63.04
-89.61
-116.18
-143.73
-172.21
-200.16
-225.03
-243.81
-253.85
-253.47
-242.34
-221.66
-194.14
-163.83
-135.54
-113.85
-101.68
-99.10
-102.91
-107.47
-106.59
-95.73
-73.50
-41.80
-4.61
33.60
69.09
99.24
122.33
137.28
143.97
143.80
140.01
137.02
139.09
148.77
165.98
188.24
211.68
232.34
247.08
253.99
252.43
242.95
227.10
207.02
184.82
161.88
138.46
113.69
86.20
54.76
18.95
-20.56
-62.04
-103.06
-140.82
-172.70
-196.62
-211.32
-216.44
-212.35
-200.08
-181.11
-157.33
-130.87
-103.80
-77.59
-52.66
-28.35
-3.44
23.03
50.92
78.72
103.83
123.36
135.01
137.60
131.30
117.44
98.31
76.82
55.99
38.33
25.16
16.17
9.64
3.05
-5.75
-17.76
-32.54
-48.48
-63.61
-76.30
-85.72
-91.81
-95.05
-96.09
-95.56
-93.99
-91.93
-89.91
-88.45
-87.94
-88.71
-90.98
-94.89
-100.43
-107.14
-113.72
-117.83
-116.41
-106.44
-86.15
-55.92
-18.50
21.68
59.91
92.38
116.96
133.09
141.38
143.02
139.52
132.56
123.91
115.17
107.46
101.12
95.82
90.90
85.76
80.13
74.15
68.20
62.63
57.58
52.83
47.65
40.98
31.69
19.04
3.13
-15.01
-33.64
-50.91
-65.46
-76.79
-85.19
-91.39
-96.08
-99.70
-102.32
-103.92
-104.50
-104.22
-103.41
-102.36
-101.35
-100.63
-100.48
-101.29
-103.31
-106.51
-110.20
-113.01
-113.20
-109.27
-100.54
-87.50
-71.65
-54.85
-38.75
-24.36
-12.14
-2.36
4.47
7.49
5.75
-1.16
-12.43
-25.91
-38.49
-47.14
-49.96
-46.71
-38.69
-27.82
-15.72
-3.15
9.81
23.08
35.88
46.62
53.35
54.54
49.64
38.99
23.43
3.82
-18.99
-43.89
-69.23
-93.09
-113.83
-130.79
-144.60
-156.54
-167.41
-176.37
-180.67
-176.53
-160.93
-133.36
-96.69
-56.84
-21.19
3.68
14.07
10.25
-3.74
-21.80
-37.65
-46.82
-47.63
-41.12
-29.84
-16.27
-1.82
13.28
28.79
44.37
59.54
73.91
87.23
99.59
111.29
122.46
132.70
140.38
144.39
145.31
145.05
145.52
147.43
150.14
152.23
152.31
148.22
139.04
125.42
108.64
89.14
66.66
41.27
14.10
-13.06
-40.53
-68.99
-98.36
-127.68
-155.77
-181.15
-201.82
-215.29
-208.05
-175.34
-125.94
-76.23
-38.08
-14.75
-4.00
-1.74
-3.78
-7.35
-12.88
-21.00
-30.78
-39.98
-46.71
-50.52
-52.18
-51.79
-50.12
-49.02
-49.37
-50.40
-50.56
-48.84
-45.74
-42.79
-40.61
-39.32
-38.95
-38.59
-36.41
-30.46
-18.79
-0.43
19.43
38.40
55.83
72.48
90.38
111.95
138.82
171.97
208.91
243.90
271.01
285.83
287.31
277.97
262.74
246.84
235.90
231.12
228.87
223.67
211.17
190.70
165.56
142.01
126.96
128.43
148.36
181.04
215.79
241.40
250.19
239.59
212.12
156.46
78.31
-1.72
-60.95
-90.47
-97.24
-95.18
-96.41
-106.48
-123.69
-138.00
-143.43
-138.73
-126.81
-112.15
-98.72
-89.46
-86.59
-91.92
-105.00
-125.78
-153.61
-186.06
-218.05
-242.75
-254.19
-249.50
-229.71
-197.92
-160.13
-123.69
-95.27
-78.94
-75.46
-83.04
-98.56
-118.51
-139.01
-157.32
-171.95
-182.52
-189.18
-192.24
-191.93
-188.20
-180.78
-169.13
-153.19
-133.80
-112.77
-92.14
-73.34
-56.75
-41.90
-28.10
-15.04
-2.89
7.99
17.57
26.38
35.25
44.82
54.96
64.89
73.54
80.19
84.75
87.74
89.83
91.61
93.31
94.90
96.16
96.73
96.23
94.28
90.84
86.10
80.45
74.24
67.71
60.87
53.66
46.21
38.82
31.97
26.10
21.29
17.27
13.46
9.23
4.11
-2.06
-9.09
-16.41
-23.21
-28.58
-31.69
-31.99
-29.38
-24.20
-17.05
-8.61
0.57
10.09
19.59
28.67
36.83
43.54
48.46
51.58
53.16
53.67
53.59
53.28
53.01
52.95
53.20
53.86
54.94
56.37
57.91
59.26
60.06
59.99
58.88
56.71
53.70
50.18
46.57
43.19
40.16
37.39
34.61
31.49
27.72
23.14
17.74
11.76
5.62
-0.23
-5.38
-9.69
-13.35
-16.83
-20.70
-25.36
-30.83
-36.64
-41.90
-45.57
-46.75
-45.01
-40.44
-33.64
-25.45
-16.73
-8.09
0.12
7.75
14.72
20.87
25.97
29.85
32.51
34.17
35.23
36.09
37.03
38.08
39.10
39.86
40.17
40.01
39.52
38.95
38.54
38.43
38.53
38.60
38.25
37.15
35.13
32.32
29.06
25.79
22.86
20.35
18.12
15.85
13.31
10.39
7.15
3.76
0.38
-2.93
-6.16
-9.31
-12.41
-15.47
-18.56
-21.88
-25.69
-30.15
-35.15
-40.11
-44.11
-46.07
-45.17
-41.16
-34.45
-26.02
-17.01
-8.39
-0.76
5.69
10.99
15.22
18.39
20.46
21.43
21.52
21.11
20.69
20.71
21.38
22.62
24.13
25.54
26.61
27.25
27.61
27.84
28.06
28.19
28.08
27.53
26.43
24.77
22.68
20.29
17.76
15.20
12.69
10.29
8.04
5.96
4.03
2.16
0.26
-1.78
-4.01
-6.42
-8.97
-11.58
-14.20
-16.88
-19.75
-23.01
-26.84
-31.24
-35.95
-40.37
-43.71
-45.13
-44.03
-40.23
-34.08
-26.34
-17.96
-9.79
-2.40
3.97
9.28
13.61
16.98
19.40
20.90
21.59
21.70
21.50
21.24
21.08
21.02
21.01
20.98
20.90
20.86
20.97
21.28
21.74
22.14
22.19
21.66
20.48
18.80
16.88
14.96
13.17
11.48
9.82
8.16
6.53
5.03
3.65
2.26
0.68
-1.26
-3.56
-6.05
-8.52
-10.84
-13.06
-15.47
-18.41
-22.14
-26.76
-32.03
-37.45
-42.28
-45.76
-47.29
-46.57
-43.65
-38.89
-32.77
-25.80
-18.42
-11.03
-4.00
2.32
7.67
11.92
15.12
17.45
19.09
20.17
20.79
21.00
20.92
20.68
20.46
20.37
20.51
20.92
21.63
22.62
23.75
24.81
25.50
25.52
24.70
23.01
20.57
17.57
14.23
10.74
7.23
3.80
0.47
-2.78
-5.98
-9.13
-12.13
-14.80
-16.89
-18.27
-18.98
-19.34
-19.80
-20.85
-22.84
-25.84
-29.61
-33.64
-37.22
-39.59
-40.05
-38.16
-33.90
-27.69
-20.30
-12.68
-5.62
0.34
5.05
8.67
11.49
13.79
15.72
17.29
18.37
18.87
18.71
17.97
16.86
15.58
14.32
13.15
12.02
10.89
9.76
8.68
7.76
7.05
6.47
5.86
5.01
3.80
2.23
0.46
-1.36
-3.06
-4.60
-6.05
-7.51
-9.08
-10.76
-12.46
-14.05
-15.44
-16.62
-17.75
-19.12
-21.05
-23.79
-27.36
-31.45
-35.41
-38.38
-39.50
-38.11
-34.05
-27.64
-19.66
-11.08
-2.80
4.53
10.59
15.32
18.77
21.00
22.08
22.06
21.13
19.63
17.97
16.57
15.64
15.19
14.93
14.49
13.56
11.99
9.87
7.43
4.94
2.57
0.39
-1.62
-3.54
-5.38
-7.16
-8.89
-10.55
-12.15
-13.69
-15.18
-16.66
-18.20
-19.92
-21.94
-24.35
-27.17
-30.33
-33.67
-36.97
-39.92
-42.13
-43.11
-42.42
-39.75
-35.08
-28.74
-21.30
-13.48
-5.95
0.81
6.47
10.93
14.16
16.23
17.26
17.46
17.09
16.48
15.95
15.74
15.98
16.62
17.51
18.40
19.05
19.24
18.90
18.03
16.71
15.05
13.21
11.33
9.53
7.83
6.15
4.35
2.26
-0.15
-2.77
-5.39
-7.84
-10.08
-12.24
-14.61
-17.46
-20.99
-25.21
-29.94
-34.82
-39.33
-42.86
-44.78
-44.60
-42.09
-37.39
-30.97
-23.48
-15.65
-8.06
-1.15
4.86
9.86
13.82
16.73
18.61
19.54
19.67
19.34
18.90
18.66
18.79
19.24
19.86
20.48
21.10
21.80
22.67
23.71
24.70
25.31
25.20
24.23
22.45
20.07
17.34
14.43
11.39
8.22
4.94
1.63
-1.57
-4.51
-7.10
-9.41
-11.65
-14.12
-17.11
-20.84
-25.42
-30.77
-36.69
-42.76
-48.36
-52.68
-54.86
-54.27
-50.69
-44.48
-36.40
-27.46
-18.59
-10.46
-3.41
2.51
7.40
11.47
14.92
17.91
20.46
22.42
23.57
23.75
23.10
22.10
21.56
22.28
24.65
28.37
32.48
35.73
37.12
36.42
34.15
31.60
30.27
31.22
34.39
38.53
41.82
42.78
41.13
37.82
34.77
34.13
37.24
44.06
53.23
62.73
70.54
75.04
74.77
69.53
61.45
55.47
58.24
75.51
109.31
155.99
206.75
249.40
273.97
276.81
261.19
233.97
201.35
166.49
129.51
89.54
44.14
-6.53
-58.60
-106.15
-145.12
-175.73
-202.03
-229.87
-264.47
-312.00
-373.29
-440.14
-496.43
-524.82
-513.65
-461.03
-375.73
-274.95
-184.49
-127.28
-114.60
-144.20
-205.43
-284.78
-368.36
-442.95
-464.13
-403.38
-270.13
-108.42
35.80
137.73
194.03
214.52
214.14
205.40
193.39
180.10
169.41
166.83
174.90
190.44
206.20
214.36
209.46
186.62
147.68
103.51
68.03
49.15
46.03
53.33
66.36
82.80
99.24
112.20
119.25
119.62
113.98
104.30
93.78
85.61
81.76
81.10
81.46
81.60
81.89
83.66
88.29
96.55
108.05
121.05
132.20
137.65
133.90
118.14
89.00
48.27
1.35
-43.32
-76.24
-90.26
-82.49
-55.31
-15.43
28.35
67.90
97.78
115.74
121.78
115.60
97.62
69.93
36.66
3.06
-25.76
-45.97
-55.60
-55.39
-51.27
-49.82
-55.05
-66.95
-82.99
-99.78
-114.15
-123.40
-126.38
-127.40
-129.90
-133.25
-133.28
-126.86
-115.23
-103.73
-98.93
-106.96
-136.72
-192.12
-269.79
-361.13
-457.99
-554.95
-647.89
-730.70
-755.89
-692.40
-547.50
-364.64
-191.08
-54.83
37.72
91.74
127.46
159.28
188.77
213.07
231.00
246.20
259.98
273.25
285.55
296.45
304.39
303.62
289.48
261.57
223.98
182.01
140.73
103.93
74.98
55.44
43.33
36.14
32.00
29.28
24.99
15.38
-1.88
-24.87
-47.96
-64.65
-69.62
-61.03
-41.25
-15.88
9.18
30.21
46.65
59.40
68.71
73.56
72.29
63.80
48.36
27.88
5.20
-16.46
-34.60
-47.99
-56.85
-62.55
-66.70
-70.17
-72.22
-70.76
-63.56
-49.78
-30.84
-10.09
8.78
23.53
34.27
42.90
51.35
59.86
66.41
67.94
62.34
50.12
34.49
19.97
10.38
7.57
11.41
20.63
33.89
50.07
67.85
85.29
99.86
109.24
112.46
110.50
105.95
101.58
98.94
97.70
96.17
92.43
85.62
76.39
66.51
57.82
51.39
47.19
44.38
42.05
39.66
37.27
35.18
33.54
32.00
29.83
26.25
20.93
14.17
6.82
-0.22
-6.39
-11.69
-16.56
-21.48
-26.66
-31.89
-36.69
-40.62
-43.47
-45.45
-46.98
-48.52
-50.40
-52.62
-54.92
-56.75
-57.46
-56.44
-53.33
-48.12
-41.14
-32.93
-24.06
-15.00
-6.04
2.63
10.88
18.65
25.91
32.65
38.92
44.67
49.80
54.13
57.38
59.11
58.70
55.51
49.12
39.71
28.14
15.75
3.94
-6.39
-14.99
-22.07
-27.91
-32.51
-35.58
-36.78
-36.08
-33.87
-30.80
-27.60
-24.92
-23.40
-23.67
-26.30
-31.39
-38.12
-44.66
-48.50
-47.19
-39.22
-24.50
-4.15
20.16
46.94
75.29
104.75
134.90
164.87
193.29
218.52
239.31
255.20
266.73
275.05
281.35
286.55
291.29
296.30
302.49
310.62
320.48
330.23
336.46
335.21
323.56
300.85
268.97
231.34
191.29
150.70
109.58
66.94
22.01
-24.54
-70.42
-112.33
-147.10
-172.96
-190.09
-200.58
-207.48
-213.59
-220.26
-227.14
-232.71
-235.48
-234.91
-231.59
-226.49
-219.93
-211.01
-197.95
-179.39
-155.50
-128.50
-101.93
-79.16
-62.02
-50.12
-41.46
-33.57
-24.76
-14.74
-4.45
4.56
10.93
13.97
13.88
11.49
7.98
4.35
1.18
-1.50
-4.11
-7.14
-10.91
-15.45
-20.57
-26.09
-32.04
-38.65
-46.12
-54.44
-63.26
-71.99
-80.00
-86.96
-92.83
-97.95
-102.72
-107.44
-112.16
-116.56
-119.99
-121.48
-119.91
-114.31
-104.23
-90.06
-73.14
-55.51
-39.31
-26.12
-16.42
-9.64
-4.58
0.03
4.91
10.06
14.93
18.69
20.64
20.45
18.37
15.36
12.94
12.80
16.24
23.50
33.39
43.56
51.26
54.43
52.46
46.32
37.99
29.58
22.42
16.84
12.37
8.39
4.59
1.12
-1.62
-3.36
-4.21
-4.64
-5.26
-6.61
-9.12
-13.20
-19.36
-28.07
-39.49
-53.06
-67.39
-80.50
-90.32
-95.36
-95.08
-89.93
-81.03
-69.82
-57.60
-45.43
-34.01
-23.70
-14.60
-6.64
0.38
6.59
12.09
16.84
20.88
24.24
27.00
29.20
30.81
31.82
32.43
33.09
34.39
36.74
40.04
43.64
46.59
48.15
48.12
46.93
45.26
43.63
42.11
40.25
37.52
33.52
28.29
22.16
15.64
9.18
3.00
-2.89
-8.60
-14.27
-20.02
-25.91
-32.01
-38.46
-45.41
-52.87
-60.52
-67.54
-72.74
-74.92
-73.30
-67.87
-59.43
-49.22
-38.53
-28.24
-18.76
-10.10
-2.16
5.09
11.54
16.99
21.26
24.21
25.82
26.09
25.14
23.19
20.62
17.92
15.62
14.12
13.60
13.93
14.73
15.50
15.74
15.05
13.24
10.37
6.77
2.93
-0.60
-3.38
-5.23
-6.35
-7.18
-8.29
-10.13
-12.86
-16.36
-20.31
-24.29
-28.05
-31.42
-34.43
-37.20
-39.82
-42.26
-44.22
-45.24
-44.75
-42.38
-38.04
-32.06
-25.08
-17.74
-10.48
-3.44
3.49
10.50
17.60
24.55
30.95
36.35
40.48
43.26
44.75
45.01
44.09
41.97
38.69
34.54
29.98
25.68
22.24
20.05
19.06
18.82
18.60
17.63
15.42
11.86
7.22
2.00
-3.27
-8.24
-12.76
-16.82
-20.48
-23.74
-26.62
-29.08
-31.18
-33.03
-34.87
-37.03
-39.89
-43.78
-48.78
-54.59
-60.36
-64.80
-66.36
-63.61
-55.68
-42.58
-25.40
-6.10
12.89
29.34
41.73
49.73
54.04
56.05
57.21
58.40
59.70
60.51
59.96
57.50
53.18
47.75
42.30
37.89
35.13
34.05
34.23
35.02
35.80
36.14
35.81
34.73
32.96
30.56
27.68
24.47
21.03
17.44
13.69
9.78
5.65
1.29
-3.24
-7.79
-12.17
-16.21
-19.82
-23.08
-26.15
-29.23
-32.44
-35.78
-39.04
-41.95
-44.24
-45.73
-46.50
-46.74
-46.74
-46.75
-46.84
-46.75
-45.95
-43.74
-39.48
-32.98
-24.58
-15.14
-5.72
2.74
9.75
15.23
19.33
22.10
23.46
23.24
21.50
18.70
15.68
13.39
12.42
12.79
13.97
15.21
15.82
15.51
14.34
12.68
10.90
9.25
7.71
6.06
3.98
1.23
-2.19
-6.01
-9.84
-13.29
-16.21
-18.66
-20.89
-23.19
-25.77
-28.76
-32.25
-36.36
-41.33
-47.35
-54.45
-62.29
-70.06
-76.57
-80.48
-80.81
-77.12
-69.77
-59.68
-47.99
-35.76
-23.69
-12.26
-1.82
7.28
14.75
20.45
24.44
27.02
28.52
29.17
29.04
28.08
26.26
23.68
20.56
17.19
13.92
10.97
8.51
6.51
4.86
3.25
1.42
-0.88
-3.74
-7.09
-10.78
-14.61
-18.32
-21.61
-24.10
-25.36
-25.09
-23.29
-20.37
-17.06
-14.31
-12.90
-13.31
-15.65
-19.67
-24.95
-30.85
-36.45
-40.64
-42.24
-40.29
-34.52
-25.39
-14.00
-1.68
10.53
22.16
33.30
44.28
55.27
66.07
76.14
84.84
91.73
96.73
100.09
102.21
103.47
104.09
104.24
104.13
104.15
104.85
106.81
110.33
115.31
121.23
127.37
133.09
138.12
142.60
147.01
152.02
158.30
166.53
177.21
190.38
205.18
219.55
230.36
234.07
227.74
210.06
181.84
145.81
105.77
65.44
27.54
-6.81
-38.00
-67.48
-97.01
-127.75
-159.65
-191.01
-218.91
-239.87
-250.85
-250.49
-239.89
-222.84
-205.56
-195.51
-199.41
-220.76
-257.68
-302.14
-341.71
-363.51
-359.22
-328.55
-279.51
-224.72
-175.75
-138.22
-110.26
-84.68
-53.56
-12.31
38.57
94.64
150.01
199.46
239.21
266.59
279.65
277.32
259.76
228.69
187.05
138.31
85.80
32.67
-17.70
-61.50
-94.79
-114.62
-120.22
-113.51
-98.71
-80.93
-64.64
-52.31
-44.23
-38.96
-34.36
-28.47
-20.25
-9.90
1.37
11.83
19.88
24.46
25.29
22.63
17.20
10.16
2.84
-3.28
-6.77
-6.66
-2.99
2.95
8.44
10.37
6.59
-3.16
-16.93
-31.19
-42.08
-47.08
-46.15
-42.72
-41.89
-48.42
-64.69
-89.79
-119.54
-147.99
-169.63
-181.03
-182.61
-176.60
-165.43
-150.83
-134.35
-117.46
-101.95
-89.49
-80.61
-75.62
-73.35
-71.77
-69.34
-66.22
-63.20
-60.87
-58.71
-47.23
-22.58
11.02
43.51
66.43
77.03
78.33
77.26
79.49
88.46
104.12
124.86
148.45
172.95
191.32
198.62
192.97
176.43
154.48
132.41
114.07
100.94
92.67
87.89
86.05
86.74
88.84
90.06
86.80
76.53
59.72
40.30
23.78
15.36
17.38
28.38
44.07
58.78
67.71
68.30
60.52
46.19
28.42
10.33
-5.73
-18.53
-28.03
-34.99
-40.39
-44.98
-49.16
-52.85
-55.91
-58.47
-60.95
-63.92
-67.66
-71.81
-75.22
-76.24
-73.20
-65.11
-52.10
-35.44
-17.14
0.70
16.52
29.74
40.73
50.45
60.06
70.38
81.66
93.48
105.03
115.34
123.74
130.22
135.60
141.68
151.09
166.83
191.25
224.73
264.38
303.86
334.50
347.95
339.20
308.71
262.32
209.06
157.65
113.70
78.50
50.06
25.23
1.66
-21.39
-43.38
-63.42
-80.98
-95.87
-107.90
-116.46
-120.68
-119.94
-114.57
-106.22
-97.60
-91.57
-90.09
-93.33
-99.47
-105.18
-106.73
-101.29
-87.79
-67.15
-41.75
-14.45
12.27
36.67
57.55
73.74
83.74
85.81
78.63
61.95
37.07
6.73
-25.34
-55.15
-78.87
-93.13
-95.22
-83.44
-57.53
-19.11
28.19
79.42
129.38
173.90
210.80
240.08
263.25
282.23
298.14
310.53
317.59
317.01
307.24
288.43
262.62
232.97
202.54
173.19
145.10
117.30
88.60
58.64
28.33
-0.59
-26.50
-48.87
-68.77
-88.48
-110.56
-136.71
-167.20
-200.86
-235.67
-269.50
-300.55
-327.64
-350.40
-369.60
-387.34
-406.74
-430.69
-459.94
-491.47
-518.40
-531.80
-524.01
-491.80
-437.96
-370.49
-299.91
-235.94
-185.00
-149.32
-127.62
-116.76
-113.38
-114.82
-119.34
-125.55
-132.04
-137.27
-139.76
-138.61
-133.90
-126.61
-118.04
-109.03
-99.41
-87.91
-72.70
-52.13
-25.54
6.20
40.69
74.55
104.29
127.35
142.83
151.51
155.39
156.79
157.68
159.37
162.63
167.91
175.53
185.49
197.19
209.18
219.02
223.81
220.92
209.01
188.63
162.17
133.16
105.04
80.16
59.42
42.54
28.89
18.05
10.10
5.32
3.92
5.76
10.40
17.24
25.63
34.67
43.22
49.98
53.75
53.91
50.74
45.39
39.45
34.37
30.88
28.82
27.28
25.05
21.24
15.53
8.28
0.17
-8.21
-16.70
-25.64
-35.62
-47.26
-60.70
-75.32
-89.53
-100.86
-106.46
-103.93
-92.17
-71.96
-45.94
-17.86
8.40
29.79
44.57
52.26
53.44
49.46
42.36
34.69
29.04
27.31
29.93
35.56
41.35
43.90
40.42
29.61
12.05
-10.03
-33.45
-55.06
-72.50
-84.86
-92.84
-98.29
-103.51
-110.34
-119.50
-130.53
-142.25
-153.36
-162.96
-170.71
-176.57
-180.64
-183.17
-184.91
-187.19
-191.78
-199.93
-211.52
-224.45
-234.90
-238.54
-232.08
-214.49
-187.30
-153.76
-117.52
-81.42
-46.94
-14.55
15.62
43.21
67.60
88.19
104.79
117.77
127.77
135.42
141.04
144.77
146.85
147.87
148.61
149.72
151.17
152.15
151.35
147.75
141.29
133.13
125.27
119.71
117.59
118.57
121.01
122.67
121.79
117.89
112.04
106.36
103.09
103.69
108.29
115.69
123.56
128.88
128.33
118.76
98.08
66.27
26.07
-17.25
-57.34
-89.07
-110.40
-122.79
-129.86
-134.78
-138.21
-137.85
-129.97
-111.81
-83.50
-48.14
-10.49
25.07
55.84
80.79
99.69
112.13
117.21
114.03
102.66
84.77
63.72
44.03
30.20
25.58
31.43
46.38
66.83
87.88
104.72
113.80
113.36
103.20
84.40
59.30
31.71
6.72
-10.44
-16.62
-12.81
-4.77
-1.16
-9.79
-33.98
-71.09
-114.34
-156.57
-193.74
-225.70
-254.07
-278.84
-296.30
-300.05
-284.53
-248.75
-197.84
-141.25
-88.66
-46.14
-14.38
9.91
30.87
50.48
67.65
79.48
83.80
81.21
75.30
71.08
72.59
81.00
94.33
108.66
120.12
126.53
127.87
125.67
121.91
117.89
113.94
109.68
104.61
98.57
91.92
85.29
79.19
73.69
68.24
61.95
53.97
43.87
31.84
18.59
5.00
-8.10
-19.98
-29.85
-36.85
-40.31
-40.27
-37.86
-35.18
-34.53
-37.32
-43.44
-51.28
-58.60
-63.64
-65.70
-65.09
-62.47
-58.28
-52.54
-45.21
-36.74
-28.18
-20.81
-15.47
-12.11
-9.88
-7.64
-4.66
-0.95
2.88
6.16
8.66
10.76
13.23
16.78
21.58
27.04
31.98
35.07
35.16
31.83
25.44
17.14
8.50
1.05
-4.24
-7.25
-8.75
-10.05
-12.51
-17.07
-23.85
-32.02
-39.83
-44.98
-45.16
-38.85
-26.01
-8.26
11.45
29.84
44.51
54.66
61.19
65.91
70.50
75.69
81.13
85.78
88.68
89.53
88.64
86.74
84.44
81.95
79.10
75.60
71.31
66.37
61.16
56.08
51.37
46.94
42.37
37.03
30.28
21.74
11.50
0.18
-11.18
-21.53
-30.09
-36.77
-42.19
-47.52
-54.15
-63.19
-75.05
-89.11
-103.76
-116.61
-125.14
-127.43
-122.82
-112.19
-97.83
-82.75
-69.78
-60.66
-55.39
-52.12
-47.73
-38.85
-23.16
-0.35
27.59
57.01
83.80
104.79
118.50
125.07
125.58
121.10
112.31
99.54
83.35
64.99
46.42
29.89
17.31
9.68
6.92
8.11
11.81
16.52
20.88
23.90
24.93
23.66
20.04
14.13
6.19
-3.24
-13.22
-22.40
-29.20
-32.33
-31.16
-25.88
-17.32
-6.60
5.13
16.60
26.23
32.23
33.09
28.70
21.04
14.23
13.24
21.78
40.45
66.14
93.14
115.36
128.81
132.75
129.51
122.95
116.72
113.05
112.46
114.17
116.66
118.01
116.03
108.26
92.02
64.81
25.07
-26.91
-88.14
-152.84
-213.20
-261.17
-290.60
-298.90
-287.55
-261.17
-225.75
-186.93
-148.85
-114.11
-84.21
-60.03
-42.05
-30.13
-23.32
-20.02
-18.33
-16.69
-14.18
-10.67
-6.68
-3.08
-0.64
0.07
-1.03
-3.63
-7.01
-10.36
-12.96
-14.54
-15.40
-16.54
-19.31
-24.84
-33.27
-43.27
-52.02
-56.12
-52.89
-41.60
-23.93
-3.45
15.74
30.53
39.66
43.75
44.64
44.62
46.02
50.91
60.66
75.21
92.33
107.69
116.24
114.27
101.41
81.08
59.20
41.58
31.61
29.29
32.16
37.13
42.08
46.32
49.82
52.20
52.26
48.48
40.16
28.07
14.55
2.49
-5.99
-10.65
-13.19
-16.55
-23.36
-34.68
-49.36
-64.39
-76.08
-81.62
-80.12
-73.12
-64.12
-57.43
-56.79
-64.08
-78.49
-96.42
-112.32
-120.37
-116.35
-99.25
-71.54
-38.30
-5.28
23.16
45.22
61.56
74.15
84.71
93.81
100.79
104.61
104.88
102.22
98.10
93.86
89.97
85.71
79.74
71.02
59.70
47.29
35.98
27.47
21.84
17.42
11.48
1.48
-13.95
-34.55
-58.62
-83.32
-104.74
-118.16
-118.82
-103.82
-74.28
-36.70
-1.80
19.19
19.47
0.18
-29.83
-58.01
-74.11
-74.77
-64.22
-51.00
-42.76
-42.26
-46.77
-50.60
-49.08
-41.28
-30.10
-19.89
-13.47
-10.33
-6.99
0.64
14.57
33.25
52.10
65.67
70.41
66.22
56.45
46.04
39.27
37.95
41.09
45.80
49.02
48.99
45.83
41.08
36.70
33.99
33.03
32.81
31.91
29.28
24.74
19.01
13.31
8.75
5.77
4.04
2.61
0.43
-3.16
-8.12
-13.75
-19.06
-23.29
-26.22
-28.32
-30.49
-33.71
-38.67
-45.62
-54.33
-64.09
-73.62
-81.17
-84.69
-82.41
-73.45
-58.30
-38.89
-17.87
2.15
19.50
33.67
45.11
54.54
62.48
69.03
74.07
77.59
79.79
81.03
81.62
81.73
81.40
80.80
80.31
80.50
81.85
84.48
87.98
91.59
94.54
96.36
97.08
97.07
96.81
96.66
96.70
96.80
96.65
95.78
93.59
89.51
83.26
75.35
67.30
61.20
58.90
60.81
65.29
68.73
66.73
55.76
34.53
4.68
-29.66
-63.03
-90.03
-106.66
-111.06
-103.67
-87.06
-65.26
-42.88
-24.13
-11.73
-6.37
-6.54
-9.09
-10.20
-6.50
3.90
20.84
42.05
63.58
80.65
88.73
84.73
67.97
40.56
6.94
-27.26
-56.88
-78.62
-91.61
-97.22
-97.96
-96.42
-94.49
-93.10
-92.43
-92.22
-92.01
-91.26
-89.43
-86.07
-81.04
-74.57
-67.39
-60.46
-54.87
-51.52
-50.91
-53.06
-57.45
-63.22
-69.46
-75.58
-81.39
-86.98
-92.51
-97.89
-102.75
-106.68
-109.54
-111.58
-113.37
-115.47
-118.06
-120.62
-122.01
-120.71
-115.45
-105.75
-92.39
-77.43
-63.56
-53.16
-47.39
-45.75
-46.28
-46.24
-42.74
-33.39
-16.82
6.77
35.20
64.20
88.32
102.53
103.99
93.32
74.24
52.21
32.43
18.34
11.14
10.18
13.89
20.41
28.05
35.43
41.51
45.61
47.38
46.66
43.48
37.99
30.55
21.76
12.39
3.12
-5.65
-13.95
-22.11
-30.51
-39.25
-47.96
-55.75
-61.20
-62.56
-57.86
-45.41
-24.45
4.07
37.17
70.15
97.75
115.77
122.40
118.75
108.09
94.39
80.87
69.24
59.82
52.31
46.45
42.26
39.80
38.74
38.24
37.13
34.50
29.77
23.32
16.31
10.21
5.99
3.79
2.81
1.92
0.18
-2.99
-7.39
-12.11
-16.04
-18.60
-19.82
-20.43
-21.21
-22.70
-25.69
-30.38
-36.20
-42.20
-47.68
-52.36
-56.61
-60.87
-65.41
-72.13
-82.04
-94.19
-106.17
-115.67
-121.16
-123.11
-122.46
-120.20
-120.69
-126.08
-134.05
-139.24
-137.41
-127.20
-112.63
-99.00
-90.81
-96.24
-118.15
-151.30
-185.27
-211.21
-224.16
-226.59
-222.44
-215.47
-216.96
-235.03
-270.18
-316.40
-366.64
-413.59
-454.24
-484.63
-452.02
-333.97
-154.29
33.82
189.74
291.01
360.35
415.26
465.00
511.90
544.06
549.13
523.51
473.45
409.26
342.06
276.71
216.60
164.26
115.54
68.65
27.43
-1.08
-12.83
-8.46
4.11
16.86
24.71
22.74
11.14
-4.06
-14.25
-13.57
-0.79
18.79
38.33
51.94
54.22
43.13
20.37
-9.82
-42.71
-73.67
-99.47
-117.56
-126.86
-129.26
-128.21
-126.80
-126.17
-125.12
-120.80
-110.57
-93.12
-69.05
-40.63
-10.80
17.69
42.79
63.19
78.11
87.20
90.72
89.47
84.73
77.96
70.47
63.12
56.35
50.39
45.42
41.72
39.55
38.91
39.43
40.40
41.06
40.86
39.66
37.55
34.57
30.51
24.95
17.52
8.34
-1.82
-11.68
-19.79
-24.93
-26.43
-24.25
-18.84
-10.97
-1.52
8.73
19.19
29.45
39.22
48.18
55.93
62.07
66.23
68.25
68.31
66.84
64.51
61.94
59.53
57.31
54.97
52.16
48.79
45.24
42.26
40.64
40.71
42.09
43.77
44.58
43.69
40.96
36.93
32.46
28.25
24.58
21.27
17.88
14.03
9.57
4.63
-0.51
-5.61
-10.60
-15.57
-20.79
-26.43
-32.55
-39.09
-45.98
-53.23
-60.96
-69.11
-77.27
-84.51
-89.60
-91.40
-89.37
-83.77
-75.59
-66.04
-56.07
-46.03
-35.75
-24.76
-12.73
0.25
13.66
26.62
38.18
47.52
54.25
58.44
60.65
61.61
62.01
62.20
62.19
61.74
60.61
58.78
56.43
53.87
51.41
49.18
47.19
45.32
43.44
41.42
39.20
36.75
34.04
31.07
27.82
24.20
20.11
15.45
10.17
4.36
-1.81
-8.05
-14.06
-19.62
-24.62
-29.16
-33.51
-38.15
-43.62
-50.32
-58.27
-66.96
-75.36
-82.09
-85.88
-85.81
-81.59
-73.53
-62.38
-49.08
-34.62
-19.85
-5.43
8.13
20.51
31.49
40.86
48.57
54.57
58.99
62.11
64.28
65.85
67.04
67.93
68.49
68.73
68.76
68.80
69.02
69.46
69.92
70.03
69.49
68.18
66.24
63.99
61.78
59.75
57.91
56.12
54.30
52.46
50.72
49.24
48.08
47.16
46.28
45.16
43.59
41.49
39.01
36.46
34.20
32.45
31.12
29.91
28.35
26.12
23.17
19.77
16.38
13.52
11.68
11.15
11.91
13.35
14.09
12.23
5.92
-5.70
-21.85
-40.03
-56.75
-68.76
-74.10
-72.62
-65.62
-55.11
-43.15
-31.50
-21.61
-14.67
-11.47
-12.09
-15.71
-20.75
-25.31
-27.89
-27.86
-25.58
-22.03
-18.29
-15.08
-12.58
-10.47
-8.35
-5.90
-3.15
-0.34
2.26
4.43
6.15
7.39
8.05
7.81
6.33
3.52
-0.29
-4.34
-7.72
-9.78
-10.47
-10.41
-10.64
-12.27
-16.06
-22.20
-30.21
-39.17
-47.80
-54.82
-59.05
-59.69
-56.39
-49.39
-39.41
-27.53
-14.86
-2.32
9.54
20.50
30.51
39.46
47.15
53.38
58.07
61.41
63.75
65.50
66.89
67.92
68.52
68.64
68.33
67.76
67.06
66.24
65.18
63.74
61.83
59.49
56.88
54.12
51.39
48.83
46.67
45.16
44.40
44.29
44.43
44.29
43.41
41.57
38.87
35.56
31.86
27.85
23.47
18.69
13.60
8.39
3.26
-1.70
-6.54
-11.31
-16.04
-20.62
-24.98
-29.24
-33.77
-39.02
-45.30
-52.45
-59.71
-65.83
-69.37
-69.17
-64.68
-56.28
-45.15
-32.97
-21.43
-11.73
-4.35
0.98
4.90
8.14
11.23
14.44
17.81
21.32
24.86
28.29
31.41
33.95
35.67
36.44
36.36
35.67
34.74
33.91
33.32
32.80
31.91
30.11
27.04
22.74
17.76
12.92
8.96
6.20
4.42
3.04
1.40
-0.95
-4.08
-7.83
-12.05
-16.67
-21.81
-27.65
-34.23
-41.37
-48.65
-55.55
-61.61
-66.62
-70.73
-74.44
-78.42
-83.26
-89.23
-96.11
-103.26
-109.59
-113.80
-114.53
-110.68
-101.76
-88.21
-71.43
-53.48
-36.50
-22.04
-10.68
-2.05
4.77
10.74
16.39
21.75
26.52
30.31
32.85
34.10
34.20
33.44
32.17
30.70
29.22
27.80
26.39
25.01
23.70
22.55
21.60
20.70
19.64
18.23
16.49
14.69
13.11
11.92
10.92
9.63
7.53
4.42
0.51
-3.57
-7.21
-10.10
-12.37
-14.52
-17.05
-20.21
-23.91
-27.78
-31.42
-34.52
-37.05
-39.18
-41.31
-43.97
-47.77
-53.12
-59.97
-67.53
-74.29
-78.40
-78.27
-73.25
-63.88
-51.67
-38.50
-25.98
-15.11
-6.25
0.60
5.57
8.85
10.76
11.79
12.54
13.48
14.75
16.10
17.09
17.42
17.05
16.22
15.30
14.54
14.00
13.54
13.01
12.30
11.41
10.46
9.54
8.77
8.13
7.62
7.14
6.56
5.81
4.82
3.62
2.30
0.97
-0.33
-1.65
-3.06
-4.68
-6.60
-8.82
-11.35
-14.29
-17.72
-21.76
-26.34
-31.24
-36.10
-40.61
-44.70
-48.63
-52.86
-57.75
-63.26
-68.80
-73.29
-75.54
-74.62
-70.20
-62.52
-52.37
-40.71
-28.45
-16.29
-4.63
6.33
16.46
25.61
33.56
40.04
44.85
47.92
49.41
49.65
49.04
47.99
46.78
45.59
44.49
43.43
42.35
41.14
39.70
37.95
35.83
33.32
30.44
27.30
24.04
20.91
18.11
15.77
13.79
11.90
9.67
6.76
3.06
-1.29
-5.95
-10.57
-14.85
-18.69
-22.07
-25.11
-27.97
-30.95
-34.40
-38.76
-44.34
-51.17
-58.75
-66.02
-71.49
-73.65
-71.38
-64.41
-53.38
-39.72
-25.13
-11.14
1.25
11.69
20.26
27.24
32.86
37.28
40.60
43.04
44.88
46.43
47.89
49.22
50.13
50.24
49.30
47.33
44.66
41.82
39.30
37.36
35.93
34.69
33.18
31.05
28.08
24.31
20.00
15.46
11.04
6.95
3.23
-0.27
-3.83
-7.70
-12.00
-16.59
-21.17
-25.41
-29.14
-32.46
-35.76
-39.60
-44.50
-50.74
-58.19
-66.32
-74.13
-80.38
-83.76
-83.19
-78.13
-68.75
-56.01
-41.36
-26.42
-12.52
-0.40
9.84
18.52
26.12
32.96
39.08
44.28
48.32
51.05
52.59
53.19
53.19
52.78
52.07
51.07
49.82
48.45
47.06
45.78
44.59
43.35
41.83
39.83
37.26
34.19
30.83
27.47
24.37
21.61
19.11
16.53
13.56
10.01
5.94
1.72
-2.25
-5.74
-8.84
-11.94
-15.53
-19.89
-24.94
-30.28
-35.38
-39.90
-43.82
-47.47
-51.38
-56.03
-61.68
-68.29
-75.41
-82.19
-87.46
-89.94
-88.51
-82.60
-72.40
-58.87
-43.47
-27.72
-12.82
0.57
12.24
22.33
31.03
38.44
44.56
49.43
53.08
55.66
57.28
58.10
58.20
57.69
56.74
55.53
54.27
53.11
52.05
50.98
49.69
48.06
46.03
43.73
41.31
38.95
36.64
34.32
31.82
29.07
26.08
23.02
20.10
17.48
15.18
13.07
10.92
8.53
5.78
2.73
-0.41
-3.37
-5.91
-8.00
-9.83
-11.85
-14.59
-18.40
-23.39
-29.29
-35.48
-41.10
-45.18
-46.72
-44.85
-39.01
-29.20
-16.05
-0.80
14.96
29.73
42.56
53.25
62.28
70.38
77.99
84.91
90.30
93.09
92.60
88.83
82.41
74.21
64.83
54.47
43.11
31.02
19.09
8.72
1.37
-2.15
-2.07
0.44
3.86
6.96
9.20
10.65
11.61
12.19
12.16
11.06
8.59
4.92
0.67
-3.39
-6.78
-9.56
-12.36
-15.97
-21.00
-27.47
-34.96
-42.76
-50.21
-56.97
-63.05
-68.74
-74.54
-80.90
-87.95
-95.30
-101.85
-106.01
-106.21
-101.41
-91.63
-77.88
-61.85
-45.18
-29.08
-14.09
-0.41
11.85
22.46
31.22
38.07
43.26
47.25
50.40
52.84
54.41
54.90
54.35
53.16
52.02
51.64
52.40
54.07
55.97
57.23
57.20
55.88
53.89
52.19
51.63
52.24
53.18
52.92
49.99
43.77
35.02
25.70
18.09
13.97
13.63
15.80
18.30
18.77
15.61
8.55
-1.62
-13.50
-25.45
-36.42
-46.25
-55.74
-67.07
-83.16
-106.28
-136.77
-171.52
-203.47
-223.67
-224.14
-200.81
-156.09
-98.25
-38.49
12.23
46.59
62.56
64.01
56.96
49.26
45.92
46.96
50.05
53.24
54.24
55.15
56.85
58.02
56.06
48.02
31.95
10.93
-11.80
-33.29
-51.58
-66.82
-80.62
-94.91
-111.02
-128.72
-145.48
-157.61
-161.15
-153.19
-133.86
-106.54
-77.07
-52.48
-38.62
-38.21
-50.24
-70.22
-91.67
-108.67
-117.40
-116.81
-108.40
-94.83
-78.58
-61.30
-43.63
-25.86
-8.97
5.21
14.36
16.36
10.07
-4.30
-25.18
-49.80
-74.12
-93.48
-103.30
-100.24
-83.31
-54.36
-17.66
21.38
57.69
87.69
109.71
123.75
131.15
133.94
134.45
134.87
136.94
141.71
149.63
160.59
174.08
189.19
204.55
218.50
229.13
234.63
233.40
224.41
207.66
184.62
158.46
133.35
113.06
99.19
90.33
82.63
72.15
57.01
38.47
20.09
5.51
-3.55
-8.11
-10.73
-13.84
-18.16
-23.44
-29.80
-38.94
-53.71
-76.66
-108.34
-145.96
-184.01
-215.00
-232.45
-233.10
-217.84
-191.10
-159.06
-127.95
-101.55
-80.82
-62.55
-41.79
-14.40
21.17
63.01
106.41
144.33
170.10
178.42
168.92
145.65
115.84
88.08
69.67
64.87
73.20
91.58
104.48
99.82
74.97
38.92
4.97
-18.24
-24.27
-18.51
-6.19
8.36
23.53
38.96
50.38
56.11
57.60
60.01
69.22
89.98
121.96
160.87
199.49
230.29
248.36
251.61
240.28
214.73
175.90
124.93
65.53
3.94
-52.30
-96.54
-126.06
-142.82
-152.68
-161.71
-173.79
-188.53
-202.40
-211.23
-212.54
-207.04
-197.80
-188.57
-181.47
-176.60
-172.34
-166.84
-159.05
-148.88
-137.01
-124.24
-111.22
-98.37
-86.03
-74.45
-63.65
-53.31
-43.08
-32.92
-23.34
-15.07
-8.57
-3.56
0.85
5.68
11.30
17.13
21.92
24.55
24.67
22.89
20.39
18.13
16.37
14.60
12.01
8.02
2.76
-3.04
-8.31
-12.28
-14.78
-16.32
-17.90
-20.63
-25.33
-32.27
-40.91
-49.78
-56.68
-59.26
-55.68
-45.41
-29.52
-10.37
9.24
26.99
41.78
53.67
63.43
71.84
79.30
85.67
90.59
93.70
94.93
94.35
92.20
88.75
84.35
79.46
74.65
70.49
67.32
65.16
63.57
61.80
59.02
54.57
48.23
40.27
31.45
22.79
15.35
9.95
7.02
6.49
7.90
10.49
13.34
15.52
16.22
14.85
11.22
5.66
-0.91
-7.24
-12.10
-14.79
-15.48
-15.20
-15.45
-17.52
-21.92
-28.17
-34.85
-40.09
-42.15
-39.91
-33.29
-23.19
-11.24
0.78
11.49
20.30
27.41
33.54
39.39
45.23
50.74
55.12
57.50
57.29
54.46
49.56
43.55
37.43
32.01
27.67
24.36
21.73
19.41
17.13
14.92
12.88
11.16
9.76
8.50
7.16
5.49
3.47
1.22
-0.97
-2.79
-4.01
-4.63
-4.84
-5.09
-5.96
-8.07
-11.84
-17.39
-24.39
-32.18
-39.99
-47.20
-53.61
-59.45
-65.25
-71.65
-79.16
-87.85
-97.26
-106.19
-112.82
-115.13
-111.52
-101.50
-85.99
-67.22
-48.03
-30.96
-17.65
-8.56
-3.35
-1.29
-1.71
-4.16
-8.21
-13.24
-18.34
-22.36
-24.23
-23.29
-19.61
-13.98
-7.67
-1.96
2.35
5.11
6.75
7.93
9.03
9.95
10.16
8.98
6.06
1.55
-3.80
-9.03
-13.28
-16.18
-17.93
-19.20
-20.79
-23.24
-26.61
-30.50
-34.25
-37.24
-39.15
-40.11
-40.63
-41.40
-43.13
-46.33
-51.23
-57.59
-64.64
-70.99
-74.81
-74.24
-67.91
-55.51
-38.01
-17.45
3.63
23.00
39.27
52.09
61.95
69.66
75.93
81.06
84.97
87.40
88.15
87.22
84.83
81.33
77.08
72.41
67.58
62.83
58.37
54.41
51.11
48.49
46.41
44.54
42.45
39.70
35.96
31.12
25.27
18.62
11.34
3.45
-5.20
-14.75
-25.12
-35.90
-46.39
-55.80
-63.65
-69.90
-75.02
-79.72
-84.75
-90.66
-97.76
-105.94
-114.55
-122.27
-127.13
-126.91
-119.87
-105.49
-84.89
-60.57
-35.66
-12.80
6.56
22.35
35.44
46.78
56.79
65.20
71.31
74.58
75.06
73.40
70.63
67.68
65.02
62.67
60.36
57.89
55.21
52.49
49.86
47.27
44.46
41.12
37.14
32.80
28.67
25.38
23.21
21.84
20.35
17.52
12.31
4.38
-5.76
-16.85
-27.38
-36.13
-42.63
-47.23
-50.96
-55.13
-60.98
-69.35
-80.38
-93.29
-106.33
-116.93
-122.32
-120.32
-110.24
-93.20
-71.88
-49.68
-29.60
-13.45
-1.50
7.06
13.54
19.04
24.08
28.67
32.50
35.38
37.33
38.69
39.85
41.11
42.48
43.74
44.59
44.75
44.16
42.92
41.19
39.12
36.68
33.71
30.03
25.51
20.25
14.64
9.23
4.62
1.19
-1.07
-2.65
-4.32
-6.85
-10.71
-15.90
-21.96
-28.17
-33.82
-38.50
-42.21
-45.40
-48.73
-52.94
-58.54
-65.69
-74.05
-82.78
-90.71
-96.57
-99.30
-98.37
-93.81
-86.25
-76.53
-65.33
-52.73
-38.05
-20.19
1.69
27.23
54.34
79.25
97.53
105.49
101.68
87.53
67.04
45.39
27.44
16.49
13.91
19.53
32.14
49.92
70.50
91.02
108.37
119.90
124.26
121.81
114.45
104.89
95.56
87.90
82.30
78.50
76.03
74.58
73.91
73.61
73.05
71.54
68.66
64.59
60.13
56.37
54.22
53.85
54.36
53.82
49.70
39.70
22.78
-0.17
-26.22
-51.03
-70.25
-80.84
-81.87
-74.56
-61.49
-45.54
-29.06
-13.65
-0.24
10.63
18.70
24.02
27.11
28.76
29.64
29.84
28.64
24.92
17.71
6.89
-6.46
-20.30
-32.22
-40.20
-43.17
-41.21
-35.38
-27.30
-18.80
-11.57
-7.00
-6.08
-9.38
-16.93
-28.20
-41.96
-56.28
-68.82
-77.34
-80.49
-78.36
-72.61
-65.94
-61.18
-60.28
-63.82
-71.16
-80.99
-91.93
-102.75
-112.09
-118.15
-118.67
-111.61
-96.14
-73.39
-46.46
-19.52
3.68
20.98
32.33
39.18
43.56
47.02
50.16
52.84
54.62
55.28
54.99
54.13
53.09
52.06
50.99
49.74
48.27
46.73
45.43
44.68
44.58
44.90
45.15
44.76
43.31
40.74
37.28
33.32
29.23
25.11
20.82
16.08
10.65
4.51
-2.08
-8.68
-14.83
-20.21
-24.79
-28.90
-33.12
-38.14
-44.44
-51.95
-59.80
-66.40
-69.79
-68.36
-61.42
-49.63
-34.71
-18.93
-4.23
8.22
18.21
26.15
32.59
37.86
41.92
44.55
45.60
45.22
43.88
42.23
40.88
40.12
39.90
39.92
39.83
39.44
38.78
38.04
37.31
36.48
35.20
33.05
29.84
25.69
21.10
16.71
13.05
10.33
8.41
6.84
5.10
2.72
-0.52
-4.54
-8.99
-13.34
-17.15
-20.15
-22.50
-24.69
-27.40
-31.27
-36.70
-43.63
-51.49
-59.12
-64.97
-67.44
-65.31
-58.21
-46.85
-32.79
-17.97
-4.07
7.89
17.59
25.17
30.87
34.85
37.12
37.80
37.16
35.73
34.07
32.66
31.74
31.24
30.92
30.44
29.56
28.25
26.73
25.45
24.75
24.75
25.13
25.29
24.54
22.48
19.18
15.15
11.13
7.74
5.21
3.31
1.51
-0.78
-3.87
-7.70
-11.86
-15.80
-19.09
-21.57
-23.48
-25.33
-27.73
-31.27
-36.26
-42.69
-49.97
-56.98
-62.10
-63.64
-60.38
-52.01
-39.36
-24.08
-8.19
6.64
19.38
29.74
37.88
44.06
48.45
51.12
52.20
52.02
51.12
50.08
49.34
48.97
48.67
47.94
46.36
43.90
40.99
38.33
36.57
35.88
35.81
35.47
33.82
30.12
24.22
16.48
7.73
-1.08
-9.06
-15.67
-20.80
-24.85
-28.56
-32.78
-38.10
-44.59
-51.74
-58.62
-64.33
-68.35
-70.71
-72.07
-73.33
-75.41
-78.90
-83.74
-89.09
-93.35
-94.55
-90.96
-81.82
-67.72
-50.51
-32.73
-16.61
-3.51
6.34
13.43
18.40
21.62
23.17
23.09
21.70
19.69
17.83
16.65
16.21
16.13
15.87
15.09
13.84
12.49
11.52
11.15
11.23
11.24
10.49
8.52
5.30
1.30
-2.73
-6.05
-8.35
-9.73
-10.70
-11.83
-13.47
-15.67
-18.22
-20.90
-23.63
-26.59
-30.10
-34.51
-39.96
-46.31
-53.08
-59.50
-64.58
-67.24
-66.53
-61.77
-52.74
-39.85
-24.08
-6.85
10.28
25.93
39.22
49.83
57.89
63.76
67.77
70.10
70.79
69.94
67.78
64.75
61.40
58.22
55.51
53.31
51.48
49.76
47.95
45.92
43.64
41.13
38.37
35.34
32.00
28.34
24.46
20.45
16.39
12.18
7.63
2.47
-3.42
-9.92
-16.66
-23.16
-29.01
-34.13
-38.83
-43.72
-49.52
-56.64
-64.83
-73.06
-79.63
-82.58
-80.37
-72.51
-59.71
-43.75
-26.84
-11.00
2.50
13.22
21.40
27.51
31.91
34.83
36.36
36.64
36.01
34.95
33.94
33.31
33.15
33.27
33.37
33.22
32.76
32.16
31.68
31.53
31.71
31.98
31.91
31.08
29.18
26.23
22.48
18.47
14.72
11.64
9.34
7.58
5.88
3.68
0.55
-3.62
-8.61
-13.99
-19.27
-24.15
-28.61
-32.85
-37.24
-42.15
-47.87
-54.51
-61.89
-69.40
-75.95
-80.05
-80.15
-75.18
-65.00
-50.55
-33.67
-16.47
-0.75
12.48
23.02
31.22
37.54
42.32
45.65
47.57
48.23
47.95
47.16
46.27
45.53
44.98
44.55
44.14
43.63
43.02
42.29
41.43
40.41
39.16
37.63
35.82
33.74
31.40
28.82
26.03
23.04
19.92
16.67
13.29
9.73
5.95
1.87
-2.58
-7.45
-12.76
-18.40
-24.12
-29.52
-34.17
-37.78
-40.36
-42.29
-44.26
-47.05
-51.33
-57.34
-64.74
-72.56
-79.22
-82.91
-81.99
-75.53
-63.70
-47.74
-29.68
-11.71
4.45
17.84
28.30
36.14
41.77
45.49
47.46
47.90
47.20
45.97
44.84
44.25
44.28
44.64
44.86
44.57
43.68
42.44
41.30
40.56
40.24
39.99
39.26
37.55
34.71
30.95
26.77
22.74
19.18
16.17
13.49
10.79
7.75
4.17
0.02
-4.57
-9.38
-14.15
-18.66
-22.85
-26.81
-30.85
-35.44
-41.05
-48.09
-56.62
-66.21
-75.78
-83.66
-87.94
-86.89
-79.65
-66.57
-49.24
-29.99
-11.24
5.20
18.53
28.82
36.67
42.66
47.12
50.10
51.56
51.65
50.82
49.64
48.61
47.92
47.39
46.67
45.45
43.68
41.61
39.64
38.11
37.04
36.16
34.93
32.83
29.60
25.35
20.58
15.88
11.75
8.25
5.05
1.56
-2.77
-8.16
-14.27
-20.45
-25.94
-30.29
-33.56
-36.32
-39.40
-43.59
-49.34
-56.59
-64.74
-72.74
-79.19
-82.57
-81.57
-75.46
-64.36
-49.37
-32.37
-15.49
-0.47
11.80
21.47
29.35
36.40
43.20
49.70
55.45
59.89
62.76
64.21
64.63
64.38
63.60
62.33
60.60
58.76
57.33
56.92
57.87
60.02
62.58
64.45
64.73
63.07
60.06
56.75
54.39
53.90
55.45
58.35
61.31
63.11
62.86
60.65
57.20
54.07
53.43
57.27
66.15
78.43
90.28
96.28
91.69
73.99
44.29
7.22
-31.09
-65.59
-93.94
-116.51
-136.20
-152.88
-165.10
-171.82
-173.34
-170.74
-164.91
-157.88
-148.28
-134.51
-115.65
-92.64
-67.59
-42.21
-16.82
9.09
37.12
68.90
103.87
139.03
169.50
190.68
200.13
198.21
187.40
171.20
153.26
136.35
122.48
112.51
106.23
102.52
99.59
95.49
88.65
78.13
63.33
44.11
20.68
-6.17
-34.87
-63.30
-89.24
-110.87
-127.36
-139.14
-147.51
-153.96
-159.35
-163.30
-164.36
-160.79
-151.68
-137.77
-121.48
-106.00
-93.96
-86.62
-83.69
-84.10
-86.83
-91.32
-97.20
-103.64
-108.99
-111.10
-108.43
-101.01
-90.77
-80.70
-73.33
-69.09
-65.60
-58.61
-44.02
-20.32
10.18
41.93
68.39
84.90
90.60
88.42
83.30
79.58
79.04
80.54
81.14
78.02
69.90
57.37
42.13
25.79
8.94
-9.03
-29.30
-52.67
-78.54
-104.38
-126.00
-138.54
-137.81
-121.43
-89.59
-44.92
8.16
64.54
119.35
168.50
208.95
238.71
256.87
263.56
259.71
246.64
225.60
197.24
161.59
118.43
67.89
11.06
-49.87
-111.78
-171.23
-224.90
-269.83
-303.42
-323.56
-328.85
-319.25
-296.39
-263.42
-224.22
-182.17
-139.18
-95.60
-50.83
-4.50
42.61
88.33
129.56
163.08
186.35
198.06
198.24
188.30
170.89
149.51
127.91
109.37
95.97
88.34
85.73
86.43
88.29
89.13
87.11
81.10
70.83
56.98
40.90
24.26
8.46
-5.66
-17.87
-28.53
-38.19
-47.48
-56.84
-66.43
-75.97
-84.74
-91.82
-96.42
-98.37
-98.31
-97.61
-97.94
-100.71
-106.54
-114.93
-124.14
-131.42
-133.71
-128.46
-114.60
-93.03
-66.42
-38.34
-12.01
10.62
29.16
44.26
56.83
67.25
75.26
80.26
81.90
80.50
77.04
72.78
68.72
65.27
62.21
59.04
55.32
50.98
46.39
42.05
38.39
35.44
32.81
29.82
25.80
20.26
13.13
4.78
-4.03
-12.37
-19.45
-24.91
-28.91
-32.10
-35.24
-38.94
-43.40
-48.49
-53.94
-59.53
-65.23
-71.20
-77.59
-84.46
-91.58
-98.23
-103.24
-105.00
-101.90
-92.85
-77.87
-58.29
-36.48
-15.18
3.41
18.16
29.13
37.17
43.35
48.49
52.86
56.38
58.86
60.26
60.77
60.75
60.50
60.10
59.36
57.90
55.44
51.95
47.71
43.25
39.13
35.68
32.87
30.38
27.69
24.28
19.81
14.15
7.49
0.25
-7.01
-13.78
-19.78
-25.04
-29.85
-34.70
-40.13
-46.51
-54.01
-62.41
-70.90
-78.07
-82.06
-81.01
-73.79
-60.47
-42.56
-22.56
-3.18
13.49
26.47
35.91
42.62
47.52
51.21
53.83
55.20
55.12
53.59
50.92
47.63
44.34
41.49
39.29
37.65
36.28
34.88
33.20
31.12
28.59
25.54
21.90
17.63
12.81
7.63
2.35
-2.86
-7.94
-12.98
-18.13
-23.45
-28.82
-33.94
-38.51
-42.35
-45.56
-48.55
-51.96
-56.49
-62.63
-70.28
-78.48
-85.39
-88.72
-86.49
-77.90
-63.65
-45.79
-26.85
-8.94
6.81
20.20
31.55
41.12
48.88
54.62
58.23
59.90
60.06
59.17
57.63
55.67
53.46
51.14
48.85
46.63
44.46
42.31
40.16
38.01
35.81
33.46
30.77
27.69
24.29
20.78
17.30
13.73
9.78
5.06
-0.52
-6.63
-12.61
-17.77
-21.78
-24.90
-27.88
-31.69
-37.19
-44.68
-53.75
-63.13
-70.82
-74.61
-72.66
-64.31
-50.37
-32.95
-14.72
2.08
16.21
27.57
36.66
44.08
50.02
54.33
56.79
57.39
56.43
54.37
51.67
48.65
45.47
42.23
39.07
36.19
33.84
32.26
31.52
31.48
31.64
31.36
29.97
27.12
22.92
17.96
12.99
8.60
4.98
1.90
-1.21
-4.86
-9.34
-14.62
-20.39
-26.17
-31.55
-36.24
-40.26
-43.90
-47.68
-52.31
-58.41
-66.34
-75.86
-85.91
-94.57
-99.36
-97.98
-89.12
-73.16
-52.16
-29.31
-7.80
10.21
24.08
34.51
42.69
49.61
55.53
60.15
63.06
64.20
64.00
63.18
62.31
61.58
60.74
59.31
57.12
54.39
51.74
49.79
48.72
48.16
47.25
45.16
41.54
36.69
31.36
26.32
21.95
18.14
14.42
10.25
5.38
-0.11
-5.84
-11.33
-16.17
-20.16
-23.42
-26.29
-29.27
-32.74
-36.81
-41.22
-45.46
-49.06
-51.77
-53.71
-55.34
-57.38
-60.57
-65.53
-72.56
-81.19
-90.07
-96.94
-99.17
-94.63
-82.53
-63.88
-41.26
-17.92
3.27
20.61
33.74
43.31
50.33
55.63
59.63
62.38
63.81
63.91
62.81
60.77
58.14
55.27
52.42
49.73
47.27
45.07
43.21
41.80
40.83
40.13
39.29
37.84
35.46
32.14
28.16
23.94
19.78
15.72
11.62
7.29
2.75
-1.77
-5.92
-9.51
-12.63
-15.61
-18.89
-22.73
-27.17
-31.87
-36.42
-40.37
-43.53
-45.99
-48.15
-50.65
-54.18
-59.33
-66.24
-74.37
-82.33
-87.98
-88.95
-83.42
-70.84
-52.27
-30.15
-7.56
12.76
29.10
41.05
49.22
54.72
58.54
61.31
63.19
64.07
63.84
62.57
60.55
58.23
56.06
54.27
52.82
51.48
49.95
48.07
45.82
43.26
40.46
37.45
34.14
30.46
26.32
21.72
16.76
11.62
6.58
1.87
-2.34
-6.06
-9.47
-12.90
-16.65
-20.92
-25.72
-30.85
-36.06
-41.04
-45.59
-49.68
-53.46
-57.30
-61.64
-66.99
-73.71
-81.94
-91.39
-101.05
-109.18
-113.42
-111.51
-102.01
-85.09
-62.65
-37.89
-14.20
5.92
21.40
32.58
40.52
46.24
50.27
52.66
53.38
52.69
51.25
49.92
49.38
49.81
50.87
51.91
52.31
51.78
50.49
48.86
47.33
46.09
44.83
42.97
39.81
35.01
28.74
21.74
15.02
9.49
5.55
2.91
0.76
-1.92
-5.89
-11.34
-17.84
-24.55
-30.59
-35.38
-38.88
-41.56
-44.21
-47.69
-52.67
-59.46
-67.83
-76.82
-84.79
-89.56
-89.00
-81.72
-67.74
-48.58
-26.98
-5.93
12.23
26.43
36.85
44.47
50.41
55.42
59.77
63.33
65.88
67.25
67.48
66.76
65.30
63.33
60.94
58.19
55.08
51.69
48.18
44.77
41.63
38.78
36.06
33.16
29.77
25.67
20.81
15.27
9.29
3.20
-2.63
-7.85
-12.23
-15.78
-18.69
-21.33
-24.07
-27.20
-30.87
-35.02
-39.45
-43.92
-48.12
-51.86
-55.10
-58.08
-61.36
-65.72
-71.90
-80.06
-89.31
-97.59
-101.92
-99.51
-88.82
-70.40
-46.86
-21.99
0.63
18.76
31.97
41.18
47.76
52.74
56.46
58.80
59.63
59.14
57.87
56.40
55.12
54.00
52.74
50.94
48.46
45.56
42.80
40.82
40.02
40.30
41.06
41.40
40.53
38.09
34.33
29.97
25.88
22.70
20.55
19.03
17.36
14.75
10.79
5.60
-0.19
-5.73
-10.33
-13.74
-16.21
-18.38
-20.90
-24.22
-28.43
-33.33
-38.57
-43.87
-49.06
-54.12
-59.08
-64.15
-69.63
-75.89
-83.21
-91.33
-99.27
-105.17
-106.70
-101.78
-89.51
-70.63
-47.42
-23.09
-0.63
17.98
32.18
42.49
49.89
55.14
58.41
59.53
58.35
55.20
50.97
46.94
44.19
43.25
43.93
45.44
46.90
47.74
47.93
47.82
47.73
47.61
46.89
44.69
40.26
33.44
24.83
15.63
7.27
0.75
-3.72
-6.75
-9.53
-13.21
-18.38
-24.81
-31.55
-37.41
-41.52
-43.73
-44.71
-45.66
-47.86
-52.24
-59.09
-67.83
-77.11
-84.94
-89.14
-87.90
-80.40
-67.12
-49.71
-30.50
-11.77
4.83
18.54
29.33
37.58
43.78
48.35
51.66
54.02
55.66
56.74
57.33
57.40
56.91
55.87
54.33
52.42
50.30
48.14
46.06
44.02
41.71
38.73
34.67
29.43
23.41
17.37
12.20
8.42
5.95
4.14
2.04
-1.11
-5.59
-11.09
-16.96
-22.50
-27.24
-31.18
-34.74
-38.62
-43.66
-50.49
-59.28
-69.37
-79.25
-86.67
-89.30
-85.45
-74.72
-58.25
-38.45
-18.14
0.24
15.29
26.77
35.23
41.48
46.07
49.15
50.66
50.52
49.00
46.63
44.13
42.06
40.70
39.96
39.48
38.86
37.79
36.22
34.26
32.20
30.27
28.58
27.06
25.48
23.50
20.88
17.59
13.88
10.26
7.12
4.59
2.30
-0.47
-4.46
-10.04
-16.98
-24.51
-31.63
-37.53
-41.83
-44.67
-46.55
-48.07
-49.85
-52.47
-56.35
-61.64
-67.84
-73.68
-77.16
-76.19
-69.32
-56.45
-38.97
-19.35
-0.26
16.27
29.33
39.09
46.32
51.86
56.24
59.60
61.94
63.22
63.57
63.18
62.22
60.75
58.67
55.90
52.39
48.35
44.19
40.42
37.52
35.67
34.75
34.30
33.70
32.36
29.88
26.21
21.60
16.45
11.20
6.21
1.64
-2.46
-6.20
-9.76
-13.39
-17.31
-21.61
-26.27
-31.10
-35.89
-40.46
-44.78
-48.96
-53.33
-58.35
-64.52
-72.14
-80.96
-89.90
-96.97
-99.73
-96.06
-85.04
-67.47
-45.72
-22.99
-2.27
14.54
26.89
35.30
40.80
44.31
46.39
47.27
47.02
45.90
44.29
42.75
41.72
41.42
41.73
42.25
42.53
42.23
41.32
40.03
38.67
37.47
36.42
35.33
33.87
31.78
28.91
25.31
21.15
16.69
12.25
8.08
4.34
0.91
-2.49
-6.28
-10.84
-16.26
-22.27
-28.22
-33.36
-37.00
-38.83
-39.01
-38.22
-37.52
-38.11
-41.15
-47.37
-56.81
-68.48
-80.35
-89.59
-93.34
-89.63
-78.17
-60.60
-39.99
-19.76
-2.65
10.04
18.46
23.68
26.94
29.17
30.72
31.65
31.88
31.53
30.83
30.11
29.55
29.09
28.51
27.56
26.22
24.76
23.79
23.98
25.73
28.95
32.90
36.49
38.55
38.32
35.68
31.10
25.47
19.70
14.49
10.05
6.19
2.41
-1.78
-6.61
-11.98
-17.51
-22.75
-27.40
-31.43
-35.04
-38.60
-42.50
-47.17
-53.07
-60.56
-69.62
-79.50
-88.57
-94.53
-95.19
-89.28
-77.05
-60.29
-41.65
-23.71
-8.25
4.09
13.55
20.75
26.21
30.26
33.09
35.01
36.47
38.02
40.00
42.47
45.11
47.43
49.02
49.76
49.86
49.69
49.57
49.50
49.22
48.27
46.29
43.23
39.31
34.99
30.73
26.82
23.27
19.85
16.19
11.97
7.03
1.47
-4.38
-10.09
-15.31
-19.93
-24.18
-28.54
-33.67
-40.06
-47.92
-56.88
-65.90
-73.39
-77.47
-76.52
-69.72
-57.45
-41.25
-23.34
-6.07
8.86
20.57
29.13
35.08
39.12
41.75
43.22
43.64
43.24
42.36
41.42
40.75
40.34
39.97
39.29
38.13
36.63
35.16
34.14
33.74
33.83
34.00
33.80
32.87
30.99
28.14
24.39
19.95
15.08
10.03
4.93
-0.30
-5.89
-11.99
-18.50
-24.95
-30.66
-35.07
-38.06
-40.10
-42.14
-45.31
-50.48
-57.96
-67.28
-77.19
-85.73
-90.72
-90.22
-83.28
-70.26
-52.86
-33.56
-14.92
1.25
14.13
23.79
30.72
35.35
37.93
38.58
37.56
35.40
32.88
30.80
29.65
29.51
29.99
30.54
30.71
30.45
30.10
30.16
30.96
32.33
33.60
33.88
32.47
29.26
24.66
19.46
14.36
9.68
5.35
1.09
-3.35
-7.90
-12.29
-16.12
-19.17
-21.54
-23.66
-26.18
-29.79
-35.03
-42.12
-50.87
-60.47
-69.49
-76.01
-78.05
-74.22
-64.31
-49.58
-32.42
-15.57
-1.19
9.75
17.55
23.32
28.20
32.87
37.33
41.19
44.01
45.57
45.99
45.59
44.73
43.65
42.48
41.20
39.79
38.29
36.76
35.38
34.21
33.21
32.14
30.63
28.34
25.10
21.05
16.59
12.21
8.28
4.87
1.72
-1.62
-5.52
-10.12
-15.18
-20.24
-24.74
-28.28
-30.78
-32.46
-33.82
-35.48
-38.12
-42.28
-48.25
-55.77
-63.92
-71.03
-75.01
-74.04
-67.16
-54.86
-38.97
-22.05
-6.55
5.98
15.29
22.09
27.49
32.40
37.12
41.50
45.12
47.71
49.26
49.97
50.13
49.92
49.42
48.62
47.56
46.44
45.62
45.61
46.84
49.48
53.21
57.26
60.53
62.07
61.43
58.89
55.43
52.38
50.87
51.34
53.39
55.93
57.78
58.19
57.31
56.17
56.28
58.88
64.23
71.26
77.77
81.28
80.08
74.05
64.94
55.74
49.79
49.45
55.16
64.92
74.51
78.16
69.99
46.03
6.18
-44.65
-97.05
-139.48
-161.77
-158.45
-130.38
-84.27
-30.37
20.65
60.44
84.63
93.06
88.92
76.94
61.46
44.82
26.94
6.10
-19.21
-48.52
-78.89
-105.91
-125.85
-137.38
-141.74
-141.40
-138.07
-131.77
-121.63
-107.78
-92.92
-81.94
-79.63
-87.76
-103.30
-119.38
-128.53
-126.22
-113.00
-93.72
-74.80
-60.81
-52.62
-47.50
-41.13
-29.93
-12.70
9.09
32.30
53.58
70.68
83.04
91.52
97.55
101.86
103.78
101.13
90.89
70.17
37.22
-7.82
-62.62
-122.58
-181.21
-231.00
-264.88
-277.82
-268.08
-237.84
-192.55
-139.62
-86.64
-39.95
-3.69
20.42
33.15
37.27
36.94
36.72
40.28
49.49
63.98
81.54
98.98
113.30
122.58
126.36
125.45
121.29
115.35
108.62
101.60
94.47
87.44
80.88
75.16
70.44
66.51
62.95
59.34
55.60
51.77
47.70
42.51
34.69
22.70
6.02
-13.99
-34.15
-50.37
-59.28
-59.56
-52.42
-41.11
-29.62
-21.39
-18.48
-21.35
-29.24
-40.66
-53.91
-67.40
-79.86
-90.33
-98.30
-103.53
-106.02
-105.90
-103.25
-98.12
-90.44
-80.10
-67.20
-52.29
-36.68
-22.34
-11.36
-5.10
-3.49
-4.79
-6.23
-5.13
-0.03
8.78
19.55
30.04
38.37
43.62
45.82
45.49
43.34
40.04
36.36
33.14
31.21
31.06
32.62
35.16
37.62
39.07
39.05
37.62
35.28
32.71
30.39
28.55
27.14
25.93
24.76
23.53
22.07
20.21
17.74
14.60
10.92
7.09
3.68
1.28
0.15
-0.10
-0.31
-1.37
-3.74
-7.24
-11.10
-14.44
-16.70
-17.94
-19.35
-22.04
-26.11
-30.06
-31.06
-25.91
-11.89
12.30
45.91
84.64
122.23
151.98
168.67
169.40
153.77
123.69
82.78
35.68
-14.44
-64.37
-110.43
-148.52
-175.46
-190.11
-193.09
-185.81
-169.84
-149.36
-129.36
-114.92
-110.07
-117.28
-137.13
-167.65
-204.17
-225.35
-212.71
-159.40
-76.05
16.88
99.39
156.56
180.92
173.82
147.11
111.90
78.36
54.24
43.98
47.84
61.99
80.09
94.68
95.76
76.33
37.83
-11.47
-60.33
-99.08
-122.04
-127.58
-116.95
-93.32
-62.15
-29.57
-1.92
16.26
24.47
24.74
21.30
19.08
21.72
29.80
41.26
51.72
56.52
52.78
40.21
21.50
1.19
-15.88
-28.49
-35.56
-37.94
-37.67
-36.76
-36.40
-36.65
-36.94
-36.62
-35.26
-32.37
-27.86
-21.65
-13.57
-3.73
7.19
17.81
26.28
30.91
31.00
26.71
19.14
10.02
1.05
-6.55
-12.36
-16.77
-20.66
-24.88
-30.11
-36.71
-44.57
-53.26
-62.23
-70.90
-78.65
-84.61
-87.54
-86.06
-79.19
-66.76
-49.79
-30.15
-10.05
8.81
25.61
40.42
53.67
65.61
76.18
85.07
92.18
97.78
102.59
107.31
112.35
117.55
122.33
125.96
127.97
128.41
128.02
127.98
129.70
134.54
143.48
156.73
173.38
191.21
206.94
216.90
217.87
207.92
186.78
155.84
117.82
76.37
35.65
-0.07
-27.02
-42.60
-46.03
-38.66
-23.80
-6.00
10.19
21.52
27.18
29.20
31.73
39.48
55.58
80.06
109.62
138.86
162.41
176.77
180.99
176.20
164.26
146.70
124.33
97.52
66.66
32.35
-4.52
-42.66
-80.12
-114.17
-141.70
-160.09
-168.23
-167.09
-159.45
-148.78
-137.94
-128.35
-120.05
-112.37
-104.78
-97.42
-90.86
-85.61
-81.62
-78.24
-74.60
-70.17
-65.15
-60.51
-57.54
-57.21
-59.73
-64.47
-70.31
-76.23
-81.57
-86.10
-89.68
-92.03
-92.58
-90.64
-85.91
-78.66
-69.75
-60.15
-50.58
-41.28
-32.11
-22.67
-12.78
-2.67
7.01
15.52
22.56
28.35
33.58
38.99
45.11
51.93
58.94
65.19
69.50
71.19
69.57
63.83
53.20
37.71
18.69
-1.55
-20.46
-36.31
-47.83
-55.23
-60.24
-65.10
-71.35
-79.05
-87.26
-94.87
-101.36
-105.43
-106.34
-104.52
-101.19
-97.12
-91.63
-82.84
-68.75
-48.44
-20.88
13.18
50.68
87.49
120.77
150.37
178.08
205.63
220.70
212.91
181.59
136.09
87.89
44.23
8.38
-18.50
-36.63
-47.14
-50.54
-47.08
-38.51
-27.65
-17.08
-7.87
1.17
12.41
28.32
50.68
80.67
116.42
153.05
182.56
197.81
195.49
177.13
148.81
111.68
71.68
33.85
0.00
-33.67
-72.44
-119.15
-172.36
-226.05
-274.28
-310.58
-330.71
-320.92
-277.09
-208.54
-132.19
-66.37
-8.49
44.33
92.27
130.53
153.11
154.51
134.38
98.77
54.94
15.33
-11.24
-21.99
-21.18
-15.96
-13.87
-18.53
-28.61
-39.32
-45.57
-45.03
-37.98
-26.53
-13.21
-1.15
7.77
13.68
18.23
23.76
29.38
32.48
30.20
20.96
4.45
-17.81
-43.12
-68.67
-92.33
-113.94
-133.89
-151.53
-164.32
-169.01
-163.54
-148.84
-128.96
-109.14
-93.43
-82.43
-73.29
-62.02
-46.38
-27.43
-8.53
7.31
19.70
31.05
44.62
62.00
81.88
100.74
115.15
123.72
127.66
129.51
131.36
133.52
134.34
131.21
122.01
106.28
85.61
63.06
42.12
25.43
14.08
7.50
4.10
2.22
0.86
-0.07
-0.10
1.10
3.20
5.18
5.79
4.22
0.51
-4.43
-9.51
-13.98
-17.80
-21.62
-26.23
-32.09
-39.04
-46.40
-53.36
-59.49
-64.91
-70.31
-76.46
-83.83
-92.22
-100.73
-107.94
-112.29
-112.48
-107.79
-98.18
-84.24
-67.06
-47.99
-28.39
-9.44
8.01
23.40
36.49
47.15
55.32
61.03
64.45
66.00
66.35
66.30
66.48
67.17
68.23
69.26
69.82
69.62
68.64
67.05
64.96
62.38
59.24
55.50
51.23
46.70
42.27
38.21
34.64
31.41
28.20
24.61
20.37
15.37
9.79
3.99
-1.71
-7.09
-12.19
-17.22
-22.45
-28.01
-33.78
-39.41
-44.54
-48.93
-52.59
-55.80
-58.97
-62.59
-67.03
-72.48
-78.59
-84.46
-88.59
-89.26
-85.14
-75.79
-61.95
-45.33
-28.02
-11.75
2.56
14.83
25.43
34.77
42.98
49.93
55.39
59.32
61.92
63.59
64.71
65.50
66.04
66.34
66.41
66.39
66.43
66.62
66.86
66.85
66.17
64.47
61.60
57.71
53.20
48.57
44.30
40.66
37.64
35.02
32.44
29.57
26.26
22.55
18.64
14.69
10.77
6.80
2.63
-1.87
-6.60
-11.39
-15.99
-20.26
-24.25
-28.17
-32.36
-37.09
-42.64
-49.08
-56.19
-63.32
-69.34
-72.80
-72.33
-67.13
-57.35
-44.13
-29.21
-14.43
-1.12
10.11
19.29
26.78
32.85
37.59
40.90
42.75
43.27
42.87
42.11
41.48
41.25
41.43
41.82
42.20
42.43
42.55
42.61
42.64
42.49
41.88
40.55
38.44
35.73
32.82
30.07
27.72
25.71
23.84
21.91
19.89
17.92
16.23
15.00
14.28
13.90
13.62
13.11
12.08
10.31
7.79
4.71
1.49
-1.40
-3.66
-5.40
-7.28
-10.23
-14.92
-21.18
-27.70
-32.26
-32.54
-27.13
-16.22
-1.65
13.82
27.62
38.26
45.84
51.64
57.57
65.44
76.65
91.92
111.04
132.48
153.18
169.01
175.90
171.34
155.59
131.77
104.88
80.05
61.07
49.71
46.00
49.10
58.03
71.79
89.12
108.10
125.88
139.00
143.95
138.17
121.05
94.51
62.82
31.23
3.89
-18.03
-36.96
-57.85
-85.71
-123.18
-169.32
-220.06
-269.90
-313.68
-347.49
-368.63
-375.07
-365.24
-338.53
-296.19
-241.86
-181.22
-120.63
-65.32
-17.89
22.16
57.63
91.96
127.57
164.83
202.20
237.23
267.83
292.92
312.27
325.68
332.31
330.60
319.11
297.50
267.24
231.40
193.50
155.98
119.02
80.35
36.39
-15.64
-75.65
-139.47
-199.33
-245.86
-271.05
-270.97
-247.26
-207.01
-160.91
-120.49
-95.12
-89.63
-103.14
-129.39
-158.76
-181.34
-190.22
-183.68
-165.51
-143.03
-123.91
-112.88
-109.82
-109.96
-105.90
-90.64
-60.25
-15.43
38.77
94.38
142.84
177.18
193.46
191.08
172.22
140.76
101.12
57.38
12.74
-30.81
-72.54
-112.74
-151.92
-189.79
-224.62
-253.08
-271.11
-275.30
-264.10
-237.87
-198.21
-147.18
-87.40
-23.11
38.84
89.35
119.25
122.72
100.24
59.05
10.89
-32.27
-62.23
-76.38
-76.83
-67.65
-52.15
-31.62
-6.03
24.34
57.20
87.99
111.05
121.79
118.60
103.98
83.73
65.18
54.93
56.95
71.91
97.44
129.12
161.75
190.69
212.57
225.75
230.10
226.34
215.10
196.46
169.40
132.22
83.34
22.64
-47.10
-119.46
-184.89
-233.20
-257.21
-255.70
-234.21
-203.09
-173.61
-154.23
-148.58
-155.78
-172.48
-195.11
-220.91
-248.00
-274.57
-298.44
-316.99
-327.69
-328.64
-318.95
-299.15
-271.08
-237.35
-200.38
-161.53
-120.65
-77.00
-30.82
15.58
57.89
91.34
112.59
121.02
118.54
108.31
93.23
75.22
55.57
35.68
17.57
3.60
-4.26
-5.34
-0.55
8.12
18.21
27.53
34.42
37.78
36.84
30.99
19.87
3.55
-17.01
-39.68
-61.13
-77.30
-84.43
-80.11
-64.01
-38.02
-5.48
29.86
64.69
96.46
123.24
143.66
156.95
163.20
163.43
159.13
151.68
142.00
130.88
119.85
111.68
110.05
118.08
136.31
161.44
186.83
204.59
208.59
196.58
170.55
135.44
96.87
59.40
25.86
-2.47
-25.28
-42.70
-55.18
-63.38
-67.75
-67.85
-62.13
-48.33
-24.75
8.15
46.62
83.86
111.84
124.12
118.25
96.53
64.96
30.68
-0.42
-25.12
-42.63
-53.46
-58.11
-56.42
-47.88
-32.33
-10.65
14.92
41.05
63.97
80.36
88.38
88.40
83.12
76.44
71.57
69.19
66.85
60.18
45.09
20.09
-12.84
-48.85
-81.96
-107.00
-120.57
-121.27
-109.38
-86.56
-55.65
-20.57
14.06
43.87
65.72
78.30
82.06
78.43
69.01
55.02
37.20
16.10
-7.43
-31.86
-54.81
-73.08
-83.09
-81.69
-67.28
-41.04
-7.32
27.04
54.63
69.80
70.36
57.84
36.27
10.34
-16.08
-40.27
-60.28
-74.36
-80.81
-78.36
-66.70
-46.65
-19.92
11.39
45.10
79.00
110.69
137.54
156.99
166.94
166.04
153.98
131.74
101.69
67.50
33.63
4.25
-17.93
-32.56
-41.69
-48.87
-57.65
-70.18
-86.38
-103.85
-118.47
-125.76
-122.42
-107.68
-84.00
-56.50
-31.55
-14.82
-10.04
-18.73
-40.63
-74.03
-115.54
-159.56
-198.31
-223.30
-228.14
-211.08
-176.04
-130.92
-84.29
-41.95
-5.43
27.01
57.84
87.55
113.82
132.58
140.42
136.82
124.81
109.99
98.32
93.92
97.64
107.18
118.42
127.23
130.85
128.33
120.12
107.14
90.16
69.75
46.80
22.88
0.15
-19.30
-34.56
-46.43
-57.33
-70.15
-86.42
-104.88
-122.06
-133.58
-135.80
-127.31
-109.57
-86.51
-63.65
-46.63
-40.02
-46.85
-67.86
-100.71
-140.08
-178.69
-208.98
-225.52
-225.69
-209.36
-179.44
-140.62
-97.46
-53.55
-11.22
28.18
62.61
90.94
114.71
134.48
149.95
161.46
170.07
177.19
184.22
189.32
191.22
193.16
195.39
195.47
191.67
183.34
170.88
155.45
134.15
105.80
77.00
49.78
21.72
-9.14
-44.40
-85.76
-135.08
-199.31
-280.63
-366.76
-446.51
-511.64
-554.03
-569.24
-558.79
-495.41
-379.36
-277.36
-210.12
-165.97
-139.02
-123.16
-112.96
-104.32
-94.44
-86.88
-82.94
-73.03
-52.47
-21.89
18.24
66.54
120.11
174.59
220.83
252.95
275.70
292.41
303.72
310.68
313.58
311.77
304.52
289.36
266.58
242.69
221.57
203.38
187.17
171.12
153.51
133.43
109.81
83.38
58.12
36.74
19.76
6.29
-5.89
-19.35
-35.54
-54.11
-72.12
-84.69
-88.53
-83.68
-73.38
-62.67
-55.99
-55.11
-58.66
-63.45
-66.74
-68.04
-69.35
-73.67
-82.71
-95.28
-107.25
-113.16
-108.67
-92.32
-65.90
-33.18
1.91
36.64
69.87
101.24
130.39
156.32
177.85
194.26
205.74
213.18
217.75
220.39
221.62
221.65
220.67
219.27
218.30
218.51
219.92
221.76
222.89
222.31
219.75
215.63
211.25
208.27
207.97
210.17
213.13
213.93
209.16
195.88
171.84
136.85
92.79
42.93
-10.25
-64.99
-119.99
-174.03
-225.69
-274.43
-318.81
-356.32
-383.64
-399.29
-402.48
-392.84
-370.93
-338.90
-302.35
-266.12
-231.82
-197.06
-160.55
-122.22
-84.50
-52.98
-35.16
-39.85
-69.64
-118.07
-171.06
-216.30
-244.90
-253.00
-241.82
-201.20
-134.88
-60.43
-4.99
31.57
54.48
68.05
73.30
70.62
60.94
44.05
22.70
2.74
-8.59
-9.69
-2.68
8.38
19.56
28.24
32.05
31.49
29.65
30.56
34.16
38.06
39.44
36.53
29.10
17.32
3.29
-9.26
-15.93
-15.09
-7.10
6.37
23.04
40.38
55.69
67.36
75.26
80.46
83.46
84.44
83.36
80.27
75.37
69.00
61.90
55.08
49.49
45.30
42.15
39.49
36.89
34.30
31.99
30.34
29.50
29.21
28.74
27.15
23.76
18.45
11.80
4.86
-1.31
-6.09
-9.54
-12.29
-15.24
-19.14
-24.40
-30.97
-38.36
-45.72
-51.86
-55.42
-55.23
-50.79
-42.56
-31.93
-20.63
-10.10
-0.86
7.47
15.70
24.42
33.53
42.20
49.25
53.77
55.41
54.52
51.88
48.41
44.91
41.87
39.50
37.73
36.42
35.36
34.49
33.78
33.27
32.88
32.34
31.30
29.35
26.19
21.74
16.16
9.77
3.00
-3.72
-10.06
-15.85
-21.18
-26.29
-31.63
-37.64
-44.63
-52.47
-60.52
-67.61
-72.20
-72.90
-68.91
-60.40
-48.54
-35.08
-21.78
-9.83
0.35
8.98
16.55
23.40
29.54
34.79
38.88
41.71
43.42
44.26
44.58
44.61
44.47
44.08
43.24
41.80
39.67
36.98
34.01
31.04
28.15
25.14
21.54
16.90
11.03
4.17
-2.97
-9.60
-15.11
-19.44
-23.04
-26.74
-31.45
-37.79
-45.97
-55.64
-65.91
-75.41
-82.47
-85.49
-83.38
-75.96
-64.08
-49.47
-34.13
-19.68
-6.91
4.24
14.32
23.76
32.58
40.26
46.10
49.65
50.97
50.66
49.57
48.39
47.43
46.56
45.48
43.95
42.00
39.89
37.92
36.25
34.80
33.27
31.25
28.31
24.25
19.06
12.98
6.39
-0.24
-6.57
-12.46
-17.99
-23.50
-29.44
-36.24
-44.24
-53.55
-63.91
-74.57
-84.25
-91.28
-94.10
-91.64
-83.77
-71.32
-55.73
-38.53
-20.95
-3.73
12.74
28.10
41.88
53.51
62.52
68.74
72.44
74.19
74.69
74.61
74.35
74.13
73.92
73.62
73.17
72.56
71.80
70.86
69.41
66.92
62.70
56.28
47.61
37.35
26.60
16.70
8.69
2.99
-0.68
-3.17
-5.53
-8.63
-12.91
-18.32
-24.50
-30.96
-37.32
-43.48
-49.52
-55.71
-62.39
-69.86
-78.34
-87.75
-97.43
-106.09
-111.85
-112.76
-107.38
-95.45
-78.05
-57.27
-35.57
-14.99
3.26
18.91
32.28
43.92
54.22
63.37
71.38
78.20
83.89
88.62
92.68
96.30
99.48
101.84
102.70
101.30
97.14
90.31
81.48
71.71
62.02
53.10
45.11
37.84
30.94
24.13
17.31
10.46
3.61
-3.26
-10.22
-17.32
-24.58
-31.99
-39.52
-47.12
-54.69
-62.03
-68.85
-74.80
-79.63
-83.27
-85.94
-88.14
-90.57
-94.00
-98.96
-105.39
-112.43
-118.35
-121.01
-118.51
-109.96
-95.86
-77.98
-58.76
-40.44
-24.41
-10.97
0.30
10.12
19.01
27.09
34.20
40.07
44.62
47.93
50.30
51.98
53.16
53.84
53.93
53.35
52.20
50.74
49.35
48.24
47.36
46.31
44.59
41.81
37.97
33.44
28.78
24.44
20.57
16.98
13.22
8.85
3.56
-2.63
-9.43
-16.31
-22.65
-27.93
-31.91
-34.73
-37.02
-39.71
-43.85
-50.24
-59.16
-70.01
-81.27
-90.70
-95.89
-94.92
-87.15
-73.39
-55.77
-36.89
-19.01
-3.40
9.79
21.06
31.02
39.83
47.19
52.59
55.74
56.81
56.38
55.15
53.69
52.18
50.56
48.68
46.56
44.42
42.67
41.59
41.18
41.04
40.49
38.84
35.68
31.09
25.60
19.89
14.44
9.30
4.14
-1.52
-7.94
-14.93
-21.90
-28.18
-33.31
-37.35
-40.86
-44.67
-49.59
-56.11
-64.29
-73.71
-83.49
-92.30
-98.46
-100.31
-96.55
-86.80
-71.83
-53.43
-33.94
-15.57
0.23
13.00
23.14
31.45
38.65
45.00
50.33
54.23
56.37
56.82
56.03
54.74
53.63
53.07
53.02
53.07
52.80
51.98
50.72
49.34
48.09
46.96
45.57
43.43
40.11
35.57
30.14
24.42
18.90
13.79
8.93
3.95
-1.51
-7.57
-14.06
-20.58
-26.65
-31.91
-36.22
-39.68
-42.63
-45.54
-48.94
-53.32
-59.11
-66.53
-75.48
-85.34
-94.89
-102.44
-106.18
-104.69
-97.44
-84.94
-68.60
-50.19
-31.35
-13.22
3.58
18.86
32.56
44.57
54.64
62.42
67.57
69.89
69.54
67.07
63.34
59.28
55.54
52.38
49.74
47.46
45.46
43.88
42.81
42.16
41.49
40.19
37.78
34.15
29.64
24.85
20.35
16.48
13.23
10.38
7.65
4.86
1.96
-1.09
-4.31
-7.87
-12.05
-17.12
-23.13
-29.79
-36.47
-42.34
-46.86
-50.05
-52.63
-55.77
-60.68
-67.99
-77.39
-87.47
-95.99
-100.56
-99.24
-91.28
-77.29
-59.11
-39.18
-19.84
-2.65
11.78
23.63
33.42
41.57
48.20
53.21
56.47
58.06
58.24
57.47
56.15
54.59
52.96
51.34
49.77
48.34
47.13
46.10
45.16
44.03
42.42
40.12
37.06
33.39
29.36
25.22
21.14
17.12
13.05
8.87
4.65
0.62
-2.99
-6.10
-8.87
-11.75
-15.21
