1593514692.00
64.000000
-0.00
-0.00
-0.00
-0.00
-0.00
-0.00
-0.00
-0.00
-0.00
-0.00
0.00
0.01
0.01
-0.00
-0.03
-0.05
-0.05
0.00
0.13
0.36
0.66
1.01
1.37
1.72
2.06
2.40
2.79
3.24
3.80
4.42
5.06
5.66
6.20
6.68
7.15
7.68
8.31
9.14
10.09
11.04
11.88
12.56
13.14
13.76
14.65
15.96
17.91
20.32
22.90
25.38
27.58
29.57
31.68
34.32
37.81
42.54
48.15
54.10
59.83
64.97
69.58
74.14
79.34
85.71
93.76
103.00
112.62
121.73
129.77
136.75
143.30
150.75
157.77
166.64
177.95
191.79
206.97
220.57
228.25
225.36
208.53
176.87
132.76
80.05
23.07
-34.94
-92.44
-149.16
-205.23
-260.37
-313.74
-363.87
-409.83
-450.91
-486.50
-515.74
-537.23
-549.22
-549.96
-538.37
-514.21
-478.67
-433.88
-382.45
-327.02
-269.84
-212.63
-156.66
-102.95
-52.37
-5.90
35.58
71.43
101.35
125.50
144.38
158.69
169.15
176.37
180.75
182.57
182.07
179.51
175.23
169.65
163.18
156.15
148.81
141.30
133.69
126.02
118.33
110.69
103.16
95.80
88.68
81.83
75.25
68.95
62.95
57.25
51.86
46.78
42.03
37.59
33.45
29.61
26.07
22.81
19.83
17.11
14.67
12.48
10.54
8.83
7.35
6.07
4.97
4.05
3.27
2.62
2.09
1.65
1.30
1.01
0.79
0.61
0.48
0.37
0.29
0.22
0.18
0.14
0.11
0.09
0.08
0.07
0.06
0.05
0.04
0.03
0.03
0.04
0.06
0.10
0.12
0.08
-0.03
-0.23
-0.47
-0.70
-0.85
-0.86
-0.73
-0.51
-0.27
-0.12
-0.10
-0.22
-0.41
-0.58
-0.62
-0.53
-0.36
-0.25
-0.33
-0.66
-1.18
-1.70
-1.96
-1.81
-1.28
-0.61
-0.18
-0.34
-1.24
-2.69
-4.17
-5.09
-5.02
-3.94
-2.37
-1.10
-0.97
-2.33
-4.91
-7.78
-9.74
-9.84
-7.98
-4.96
-2.26
-1.31
-2.89
-6.62
-11.02
-14.29
-14.88
-12.42
-7.79
-2.75
0.63
0.68
-3.53
-11.56
-21.10
-28.04
-27.35
-14.70
11.61
48.98
90.66
127.40
150.34
153.94
137.82
106.06
65.62
24.15
-11.37
-35.94
-47.09
-45.18
-32.91
-14.14
7.44
29.02
48.22
62.29
68.12
63.17
47.57
25.03
2.11
-14.19
-19.59
-14.64
-3.84
7.02
13.85
16.21
16.22
16.30
17.42
18.91
19.06
16.41
10.77
2.90
-5.30
-12.30
-17.34
-20.71
-23.34
-26.37
-30.53
-34.23
-37.80
-40.58
-42.04
-42.09
-41.06
-39.58
-38.22
-37.20
-36.28
-35.32
-33.80
-31.63
-29.12
-26.80
-25.16
-24.36
-24.19
-24.09
-23.68
-22.51
-20.78
-19.11
-18.23
-18.60
-20.17
-22.33
-24.18
-25.07
-24.69
-23.56
-22.72
-23.22
-25.67
-29.83
-34.73
-39.09
-42.41
-44.05
-44.50
-44.84
-46.18
-49.45
-55.28
-63.97
-75.06
-86.75
-95.56
-97.28
-88.47
-68.38
-40.00
-9.35
16.78
33.56
39.74
37.56
30.84
22.97
15.56
8.60
1.43
-6.12
-13.39
-19.34
-23.26
-25.23
-25.83
-25.65
-24.95
-23.34
-20.24
-15.29
-8.34
0.18
9.57
19.24
28.89
38.46
47.85
56.54
63.58
67.88
68.65
65.99
61.21
56.41
53.65
54.03
57.04
60.96
63.55
63.00
59.08
53.48
49.37
50.21
58.73
75.34
97.18
118.23
130.05
124.56
97.25
49.67
-9.98
-68.53
-111.66
-128.32
-114.15
-73.78
-18.99
35.19
75.15
92.70
87.10
64.14
31.66
0.79
-21.17
-32.25
-34.37
-30.47
-22.81
-12.50
-0.39
11.89
22.18
27.74
27.42
22.46
16.08
11.82
12.16
17.32
25.37
33.54
39.03
40.51
38.57
35.23
32.78
32.76
35.22
38.80
41.63
41.67
37.70
29.73
18.76
5.90
-7.77
-21.71
-35.94
-50.49
-65.43
-80.45
-94.74
-107.12
-116.34
-121.34
-121.45
-116.61
-106.96
-93.05
-75.59
-55.36
-33.17
-9.90
13.52
36.66
57.90
76.27
91.22
102.48
110.07
114.19
115.23
113.66
110.22
105.23
99.15
92.46
85.43
78.42
71.76
65.60
59.94
54.80
50.10
45.42
40.56
35.16
29.46
23.97
19.26
15.81
14.22
15.27
18.42
23.47
29.74
37.13
45.51
54.14
61.92
67.94
71.98
72.15
67.87
58.68
45.60
29.85
11.99
-8.21
-31.41
-58.49
-94.28
-135.33
-180.88
-229.98
-282.07
-337.40
-396.75
-460.99
-509.52
-529.28
-516.54
-478.10
-422.65
-355.10
-276.81
-189.51
-98.27
-11.27
59.95
108.25
132.59
138.74
135.18
128.88
123.38
119.44
116.70
112.75
106.58
98.17
88.85
80.01
72.35
65.78
60.16
55.25
49.47
41.77
31.68
20.12
8.60
-1.39
-8.84
-13.47
-15.91
-18.02
-21.01
-25.32
-29.40
-30.59
-25.97
-13.87
7.63
38.88
78.37
122.91
167.20
205.03
230.44
238.33
228.82
206.70
178.94
151.69
128.29
106.26
81.30
49.53
10.23
-33.21
-74.33
-106.29
-124.53
-127.11
-118.23
-104.50
-92.32
-85.34
-83.39
-83.90
-84.07
-82.64
-80.45
-79.63
-81.21
-85.06
-88.61
-89.29
-85.92
-79.38
-71.81
-65.45
-61.64
-59.77
-57.77
-53.06
-43.77
-29.49
-11.36
8.53
27.86
44.72
58.32
68.76
76.61
82.12
85.06
84.68
79.93
70.04
54.71
34.44
10.26
-16.59
-45.01
-74.15
-103.55
-132.94
-162.13
-190.88
-218.76
-245.16
-269.44
-290.99
-309.36
-324.21
-335.36
-342.70
-346.41
-346.76
-344.15
-338.96
-331.41
-321.52
-309.05
-293.54
-274.41
-251.06
-223.06
-190.13
-152.32
-110.05
-64.15
-15.76
33.75
82.82
129.71
172.66
209.91
239.87
261.23
273.15
275.36
268.20
252.56
229.75
201.34
169.01
134.45
99.23
64.76
32.23
2.51
-23.74
-46.15
-64.49
-78.71
-88.79
-94.81
-96.81
-94.87
-89.09
-79.65
-66.79
-50.84
-32.25
-11.52
10.79
34.04
57.54
80.54
102.26
121.89
138.65
151.85
160.98
165.75
166.14
162.41
155.04
144.70
132.07
117.73
102.07
85.30
67.46
48.61
28.91
8.83
-10.90
-29.41
-45.80
-59.42
-69.97
-77.50
-82.25
-84.42
-84.02
-80.76
-74.23
-64.08
-50.38
-33.75
-15.24
3.89
22.70
40.84
58.79
77.65
98.61
122.33
148.58
176.15
203.24
228.05
249.59
268.22
286.21
307.31
335.51
373.06
418.72
467.03
509.07
535.11
537.58
513.83
466.84
404.40
337.26
276.70
232.11
209.02
207.86
223.85
249.43
275.77
295.50
304.57
302.64
291.92
275.40
255.50
233.31
211.72
193.85
182.89
181.47
190.72
209.94
236.85
268.22
299.32
328.98
356.17
379.59
397.88
409.55
413.51
409.83
399.90
384.28
368.70
358.32
356.44
364.29
380.66
402.70
427.27
452.36
452.79
413.37
326.83
196.56
37.05
-131.80
-291.70
-430.80
-533.62
-606.26
-654.55
-684.20
-700.69
-709.44
-717.62
-733.34
-764.93
-812.25
-869.11
-917.91
-940.11
-928.84
-885.16
-817.81
-739.51
-662.13
-590.46
-527.15
-467.73
-406.30
-338.34
-260.90
-173.55
-77.99
22.15
121.23
206.59
265.79
289.55
276.28
234.73
179.95
126.88
84.96
56.73
38.90
27.74
21.02
18.21
19.61
24.43
30.55
35.49
37.77
37.31
35.56
35.04
37.72
43.92
52.02
59.17
62.96
61.09
52.98
39.54
23.24
6.72
-8.23
-21.31
-33.35
-45.49
-58.33
-71.40
-84.05
-94.84
-103.02
-108.98
-114.47
-122.12
-134.38
-152.81
-173.93
-197.25
-222.84
-250.26
-277.20
-298.40
-306.91
-296.75
-265.73
-217.77
-163.30
-113.97
-78.61
-60.80
-58.43
-65.88
-77.45
-87.12
-90.09
-83.48
-64.88
-33.53
7.85
52.13
88.23
104.71
95.69
65.90
25.45
-11.88
-33.78
-34.38
-16.15
11.69
37.75
53.54
55.98
46.84
31.74
17.25
8.78
10.02
23.54
49.67
86.76
132.01
180.15
224.67
259.27
279.50
283.74
273.39
252.13
224.97
196.83
170.82
148.26
128.86
111.45
94.83
78.47
62.62
48.33
36.80
28.47
23.01
19.41
16.39
12.95
8.72
4.03
-0.14
-2.70
-3.09
-1.54
0.99
3.11
3.77
2.70
0.55
-1.31
-1.56
0.52
4.92
11.23
18.76
26.40
32.34
34.11
29.51
17.80
0.54
-18.65
-35.59
-47.41
-53.72
-56.27
-57.51
-58.92
-60.24
-60.03
-57.07
-51.37
-44.08
-36.71
-30.20
-24.62
-19.81
-15.95
-13.74
-14.14
-17.73
-24.22
-32.28
-39.98
-45.35
-46.99
-44.38
-38.02
-29.33
-20.23
-12.66
-7.97
-6.55
-7.78
-10.35
-12.78
-13.94
-13.27
-10.96
-7.79
-4.81
-3.01
-3.06
-4.84
-7.24
-8.45
-6.72
-1.30
7.03
16.41
24.77
30.58
33.57
34.64
34.99
35.24
34.82
32.55
27.74
21.02
13.94
8.31
5.63
6.55
10.51
15.96
21.06
24.65
26.32
25.42
20.24
9.95
-3.91
-16.97
-23.34
-18.02
0.71
33.90
75.16
111.69
131.11
126.66
99.56
57.27
9.53
-35.39
-73.06
-103.79
-133.23
-166.38
-204.43
-244.48
-282.10
-313.99
-339.10
-358.09
-353.46
-316.07
-249.66
-169.08
-89.30
-18.61
40.48
88.17
125.54
153.86
172.21
181.23
183.69
184.11
186.45
192.15
200.51
209.92
218.78
224.18
224.33
219.07
210.42
200.77
191.35
182.36
173.72
165.48
156.59
146.70
135.85
125.46
117.14
111.20
107.01
103.36
98.50
88.95
77.31
63.75
48.97
33.98
18.52
2.36
-13.86
-28.88
-41.84
-52.42
-61.47
-69.34
-76.04
-84.52
-97.32
-114.97
-135.93
-158.27
-180.80
-204.31
-230.32
-260.73
-301.00
-352.93
-411.10
-463.32
-496.19
-501.04
-477.25
-430.79
-371.46
-314.83
-272.80
-249.89
-244.53
-254.11
-277.66
-314.60
-361.11
-373.97
-324.15
-213.56
-73.39
62.24
173.89
256.52
313.22
350.86
376.59
389.98
389.86
378.24
360.98
344.17
332.11
324.63
320.03
315.87
305.43
283.60
249.69
207.53
162.18
119.55
83.20
54.59
33.74
17.13
1.57
-13.79
-27.40
-37.11
-41.85
-42.18
-39.25
-34.35
-29.92
-27.75
-28.15
-29.99
-31.64
-32.01
-31.00
-28.96
-26.34
-24.04
-22.72
-22.43
-22.71
-22.94
-22.81
-22.36
-21.90
-21.70
-21.83
-22.21
-22.65
-23.00
-23.17
-23.26
-23.50
-24.28
-25.81
-28.00
-30.53
-32.93
-34.95
-36.50
-37.88
-39.48
-41.96
-45.60
-50.26
-55.34
-59.96
-63.42
-65.19
-66.02
-64.84
-61.09
-54.31
-44.16
-30.69
-14.49
3.85
24.24
47.08
72.96
101.18
129.33
153.35
169.03
173.67
167.30
152.48
132.90
111.76
90.43
69.00
47.03
24.77
3.55
-15.00
-29.78
-41.06
-49.93
-57.42
-63.61
-67.31
-66.75
-60.83
-49.92
-36.26
-23.08
-13.24
-8.40
-8.41
-11.66
-16.15
-20.41
-23.93
-27.20
-30.55
-34.15
-37.93
-41.67
-45.19
-48.61
-52.14
-55.97
-60.15
-64.35
-68.03
-70.44
-70.96
-69.20
-65.10
-59.15
-51.50
-42.45
-32.31
-21.42
-10.15
1.02
11.54
20.84
28.41
34.03
37.71
39.68
40.35
40.13
39.37
38.27
36.92
35.27
33.31
31.06
28.56
25.88
23.06
20.19
17.32
14.50
11.69
8.90
6.16
3.44
0.75
-1.98
-4.77
-7.70
-10.82
-14.24
-18.00
-22.07
-26.38
-30.92
-35.67
-40.63
-45.82
-51.26
-57.03
-63.16
-69.50
-75.97
-82.44
-88.88
-95.24
-101.50
-107.68
-113.79
-119.91
-125.81
-131.31
-136.25
-140.48
-143.76
-145.75
-145.99
-143.70
-140.09
-135.38
-129.65
-122.96
-115.51
-107.57
-99.48
-91.61
-84.29
-77.70
-71.60
-65.81
-60.25
-54.97
-50.13
-45.89
-42.40
-39.73
-37.53
-35.03
-31.67
-27.10
-21.39
-14.95
-8.36
-2.24
2.92
7.96
14.09
22.38
33.33
46.54
60.84
74.71
86.70
95.83
104.03
113.86
127.73
146.80
170.46
196.52
222.05
244.27
261.39
276.46
293.74
317.28
349.25
388.96
433.20
477.59
518.29
552.92
585.61
621.98
667.17
723.76
791.12
866.49
946.57
1028.28
1079.37
1073.19
991.15
831.29
610.93
360.52
112.89
-106.24
-282.91
-415.13
-505.04
-558.76
-583.13
-584.48
-569.14
-543.69
-514.96
-489.06
-470.36
-457.12
-445.19
-429.85
-407.75
-378.84
-345.81
-312.99
-284.64
-263.61
-248.60
-236.43
-223.27
-205.92
-183.38
-156.50
-127.54
-99.31
-74.17
-52.54
-33.84
-16.93
-0.05
16.31
30.65
40.65
43.69
37.65
21.96
-2.19
-31.82
-62.80
-91.15
-113.63
-129.03
-138.04
-142.73
-145.80
-149.92
-156.98
-167.19
-179.30
-189.33
-191.74
-181.62
-157.17
-121.30
-80.99
-45.40
-19.55
-4.98
1.24
4.56
10.15
21.08
37.51
56.67
74.56
86.64
88.73
78.93
58.39
31.13
2.91
-21.21
-38.79
-50.00
-57.09
-62.44
-66.71
-68.97
-68.23
-64.35
-58.91
-54.21
-51.64
-51.50
-52.60
-52.72
-50.33
-45.62
-40.08
-35.94
-35.44
-38.45
-44.14
-50.81
-55.85
-56.55
-49.85
-31.71
0.76
47.44
105.86
168.16
224.12
264.79
284.80
283.26
263.32
229.15
179.17
119.12
53.38
-14.09
-78.81
-135.43
-181.29
-213.94
-232.46
-237.38
-229.07
-209.31
-179.71
-141.62
-96.33
-48.17
-1.36
40.16
73.19
96.91
111.07
116.72
115.86
110.92
103.81
96.23
88.98
81.97
75.52
69.31
63.23
57.20
51.37
45.79
40.79
36.46
32.53
29.38
27.17
26.12
26.43
28.29
31.68
36.46
43.65
51.23
57.98
62.58
63.77
60.48
52.17
38.72
20.63
-1.14
-25.56
-50.89
-75.38
-97.52
-116.12
-130.02
-138.62
-141.73
-139.66
-133.36
-124.07
-113.33
-103.03
-95.19
-91.11
-91.75
-97.48
-107.97
-122.27
-138.94
-156.30
-172.82
-187.33
-198.50
-205.29
-206.91
-202.91
-193.14
-177.68
-156.72
-130.25
-102.46
-76.49
-54.80
-38.68
-28.25
-22.54
-19.90
-18.42
-16.56
-13.32
-7.35
2.63
18.15
40.76
71.55
110.43
155.67
203.61
249.28
287.99
316.08
332.07
336.90
333.74
327.21
322.53
324.45
335.62
355.43
378.97
398.05
403.94
390.96
358.85
313.10
262.80
216.98
181.38
156.89
140.37
126.95
112.53
95.38
76.52
58.91
46.13
40.82
43.57
52.54
63.76
72.20
73.03
62.85
40.56
7.64
-32.26
-74.06
-112.39
-142.54
-161.07
-166.36
-158.64
-139.92
-113.52
-83.72
-54.66
-29.83
-11.20
0.94
7.31
8.86
6.18
-0.26
-9.39
-18.87
-25.44
-26.04
-19.29
-6.36
9.51
24.41
35.44
41.60
43.61
42.74
39.71
34.31
25.74
13.69
-0.96
-16.07
-29.05
-37.89
-41.93
-42.05
-40.04
-37.87
-36.53
-35.86
-34.95
-32.80
-29.30
-25.52
-23.52
-25.36
-32.09
-43.19
-56.84
-70.88
-83.59
-94.03
-102.13
-108.52
-113.99
-119.44
-125.65
-133.17
-142.66
-154.25
-167.25
-180.24
-191.71
-200.20
-204.72
-204.69
-199.93
-191.61
-180.98
-168.80
-155.43
-141.12
-126.26
-111.54
-97.74
-85.52
-77.39
-75.03
-78.41
-85.78
-95.06
-104.62
-113.80
-122.54
-130.80
-141.40
-155.07
-169.23
-179.17
-181.11
-174.59
-162.85
-150.89
-142.57
-142.79
-151.61
-164.33
-175.56
-183.27
-190.36
-202.97
-226.86
-237.22
-216.31
-159.76
-78.75
9.14
91.08
161.31
219.35
267.14
307.55
338.41
358.03
367.83
371.75
375.04
383.53
401.82
429.68
459.86
476.46
464.50
417.35
334.68
223.73
96.31
-36.93
-165.49
-281.09
-381.84
-467.66
-514.86
-508.46
-450.24
-357.70
-252.63
-150.45
-58.37
20.98
87.92
145.26
192.98
227.23
244.80
245.98
235.24
220.12
209.46
203.06
205.44
213.18
217.50
209.58
185.32
147.25
102.24
57.77
19.48
-8.90
-30.91
-50.32
-68.19
-83.91
-97.47
-110.80
-127.00
-147.61
-163.64
-169.88
-162.27
-139.70
-105.15
-65.30
-27.77
1.50
19.91
28.58
28.74
22.41
12.45
2.55
-3.42
-2.03
8.38
27.29
52.15
78.48
102.05
119.47
129.06
130.39
124.09
110.89
91.46
65.59
35.44
2.85
-30.91
-64.40
-95.35
-119.94
-133.23
-130.84
-110.84
-75.98
-33.59
6.98
37.85
55.28
60.30
57.24
51.07
45.59
42.29
40.87
40.64
41.33
42.90
45.26
47.89
49.88
50.69
50.09
48.56
47.25
47.55
50.12
53.62
54.41
46.80
25.79
-10.48
-59.23
-112.57
-160.27
-193.14
-206.17
-199.21
-175.99
-141.14
-98.61
-50.96
-0.30
50.43
97.35
135.83
162.07
174.27
173.03
160.39
139.26
111.94
81.10
48.91
16.54
-15.16
-45.31
-72.82
-96.98
-117.66
-134.97
-151.19
-165.41
-177.04
-184.81
-187.01
-181.77
-167.77
-144.52
-110.50
-69.23
-23.48
23.61
69.54
112.20
150.02
181.77
206.97
224.78
233.91
234.24
225.72
208.85
184.60
154.47
120.04
84.13
49.20
16.73
-11.56
-34.71
-52.41
-64.91
-72.89
-77.20
-78.98
-79.10
-78.64
-77.97
-77.40
-76.94
-76.69
-76.67
-76.83
-77.38
-78.28
-80.03
-82.95
-87.54
-93.99
-102.47
-112.76
-124.21
-136.97
-148.49
-156.56
-159.04
-154.28
-141.07
-119.10
-88.94
-50.76
-7.80
37.46
82.44
124.97
163.00
194.97
219.64
236.44
244.79
244.28
235.66
220.00
198.39
171.88
141.44
107.78
71.31
33.15
-5.85
-44.20
-79.95
-111.52
-137.78
-159.18
-175.23
-186.05
-191.18
-189.86
-180.59
-161.68
-132.22
-92.91
-45.90
6.03
57.24
103.59
141.80
170.34
188.12
195.15
193.26
186.26
178.41
172.06
166.26
156.15
135.17
99.67
50.86
-4.90
-58.43
-102.19
-132.45
-149.00
-153.89
-149.52
-138.12
-122.25
-105.39
-91.27
-83.00
-81.74
-86.11
-93.66
-101.51
-107.72
-109.91
-106.56
-97.20
-83.27
-68.32
-57.01
-53.34
-58.91
-72.35
-89.68
-106.86
-121.28
-132.50
-141.29
-148.77
-153.93
-154.45
-147.29
-129.80
-100.82
-60.96
-12.29
42.31
98.47
151.25
194.66
222.67
231.08
219.39
191.88
157.05
123.15
96.63
80.12
72.16
69.13
67.53
65.44
62.50
59.10
55.11
50.22
44.11
36.93
29.43
22.70
17.62
14.43
12.43
10.15
6.28
0.36
-6.67
-12.43
-13.92
-8.99
2.52
18.33
34.53
47.40
54.57
55.84
52.61
46.93
40.54
34.54
29.64
26.32
25.28
26.75
30.31
34.86
38.98
41.70
43.09
44.21
46.33
50.88
58.25
67.88
78.75
89.81
98.99
103.83
102.01
91.75
73.54
50.47
27.58
9.85
-0.18
-3.73
-5.17
-8.94
-17.90
-31.70
-47.43
-61.81
-73.00
-81.35
-88.54
-96.10
-104.34
-112.77
-120.43
-126.79
-132.25
-137.41
-142.77
-147.73
-150.83
-149.40
-141.05
-124.40
-99.59
-68.71
-35.12
-2.99
23.52
41.27
48.23
43.69
28.41
4.43
-25.20
-56.49
-84.87
-105.96
-115.91
-112.37
-94.76
-64.61
-25.24
18.50
61.06
97.30
122.59
133.93
130.19
112.15
82.25
44.59
3.98
-34.52
-66.22
-87.55
-96.33
-92.18
-76.34
-51.84
-22.48
7.96
36.22
60.05
78.19
90.36
96.88
98.39
95.79
90.17
82.86
75.08
67.88
61.94
57.51
54.29
51.43
48.12
43.93
38.95
33.83
29.48
26.72
25.76
26.07
26.55
26.00
23.74
20.10
15.98
12.71
11.34
12.04
14.21
17.03
19.77
21.68
21.89
19.89
15.09
8.66
3.47
3.23
10.92
27.00
48.99
71.79
90.59
102.38
106.75
104.79
97.51
84.81
66.22
41.50
12.22
-17.94
-44.53
-63.40
-72.05
-69.90
-58.62
-41.53
-23.53
-9.87
-4.46
-8.26
-18.26
-27.80
-29.99
-21.16
-2.01
22.43
45.52
61.78
68.98
68.13
61.77
51.73
37.88
20.01
-2.53
-29.02
-56.84
-82.16
-100.84
-110.43
-110.89
-104.56
-95.26
-87.07
-82.76
-83.19
-87.56
-93.92
-99.46
-100.83
-94.44
-77.46
-49.66
-14.70
19.84
44.59
51.44
37.13
4.85
-37.42
-79.34
-112.32
-131.81
-137.36
-131.02
-115.44
-92.85
-65.23
-35.37
-7.20
14.48
25.15
22.21
6.02
-20.05
-50.11
-76.86
-93.55
-95.81
-83.38
-60.43
-34.03
-11.51
2.25
6.50
4.48
0.59
-1.76
-1.73
-0.69
-0.42
-1.56
-3.06
-2.67
2.36
13.05
28.41
45.55
60.91
71.51
75.75
73.82
67.44
60.31
55.67
55.38
59.26
65.62
72.12
77.06
79.91
81.56
85.34
93.92
108.78
129.65
155.56
185.08
217.19
251.54
274.62
277.00
254.23
210.69
158.31
111.82
81.58
70.61
75.08
89.98
110.34
133.13
157.01
180.04
199.29
209.32
204.57
182.37
142.12
89.03
28.97
-28.87
-76.88
-111.83
-137.62
-161.66
-198.15
-247.66
-303.81
-359.24
-408.46
-451.36
-478.30
-488.14
-484.76
-472.01
-451.69
-425.33
-394.97
-362.20
-328.02
-291.23
-236.85
-161.23
-73.13
10.96
75.68
114.30
129.75
130.24
124.95
118.94
111.41
100.43
85.89
69.71
54.84
43.78
36.86
32.53
27.45
16.55
-2.56
-28.74
-58.13
-87.16
-110.91
-125.70
-129.00
-120.24
-100.87
-72.12
-34.98
9.39
58.90
110.37
159.25
200.72
229.89
242.40
236.23
211.72
171.52
120.07
63.07
6.50
-43.84
-83.02
-108.38
-116.65
-105.84
-76.49
-32.30
19.81
71.46
115.65
148.13
167.90
176.16
174.81
166.22
152.69
136.39
119.19
102.70
87.74
74.99
64.71
56.47
49.76
43.92
38.43
33.11
28.11
23.50
20.05
18.58
19.65
23.68
30.33
38.58
47.00
56.30
64.07
69.42
72.34
73.28
72.88
71.17
67.44
60.63
50.04
35.35
17.79
-0.94
-18.99
-34.49
-46.18
-52.98
-54.21
-50.20
-43.22
-37.08
-37.01
-48.45
-71.37
-100.75
-128.16
-145.53
-148.70
-138.75
-120.16
-98.76
-78.49
-60.11
-42.83
-25.35
-7.18
11.10
28.34
44.58
59.20
71.63
81.37
86.91
85.98
75.99
55.34
24.12
-11.33
-42.47
-60.62
-60.34
-42.13
-12.42
19.10
43.63
56.60
58.56
53.16
44.85
36.68
29.65
23.71
18.74
14.63
10.73
4.83
-6.85
-27.16
-56.09
-89.95
-121.85
-144.29
-152.17
-144.74
-125.30
-99.52
-72.79
-48.42
-27.23
-8.38
8.98
24.47
36.46
43.03
43.14
37.00
25.69
10.35
-7.89
-27.73
-48.01
-67.05
-82.19
-90.27
-89.04
-78.14
-58.96
-33.47
-2.83
30.91
64.25
92.36
110.07
112.23
95.62
60.99
13.03
-36.16
-72.70
-87.75
-81.41
-60.34
-32.24
-1.59
30.95
66.99
108.34
153.19
194.76
224.74
237.18
230.04
205.26
167.84
120.06
72.74
38.10
24.53
33.10
57.08
84.35
101.44
98.74
75.01
36.62
-7.06
-47.66
-80.82
-106.20
-125.62
-141.34
-158.11
-172.03
-178.86
-176.85
-166.66
-151.13
-132.01
-108.37
-77.91
-38.29
12.35
72.42
136.38
196.41
243.45
271.39
278.63
266.43
235.92
191.88
140.17
86.08
33.50
-16.83
-70.97
-128.58
-185.83
-238.48
-282.20
-316.21
-343.44
-356.14
-353.31
-334.95
-301.15
-252.84
-193.40
-126.96
-60.21
-1.03
43.02
64.35
64.99
47.61
17.22
-19.76
-52.54
-70.11
-64.53
-34.49
11.57
58.89
90.72
94.93
63.96
4.76
-69.80
-145.08
-208.80
-254.40
-279.54
-285.43
-261.13
-210.43
-141.40
-64.14
11.99
79.28
132.13
168.84
190.95
202.52
206.22
206.00
204.31
202.12
199.36
195.33
190.54
186.31
184.58
185.36
189.31
195.97
203.87
211.98
217.15
217.13
210.67
197.48
176.93
149.83
117.25
80.23
41.66
3.70
-31.56
-62.42
-87.65
-107.17
-120.82
-129.19
-132.98
-133.21
-131.25
-127.99
-124.16
-120.14
-116.36
-112.61
-109.03
-105.63
-102.78
-101.34
-101.96
-105.39
-111.61
-121.74
-133.02
-142.75
-148.05
-146.31
-135.65
-115.18
-85.42
-47.49
-3.51
44.25
92.89
139.12
179.45
210.45
228.98
232.81
221.59
196.00
158.18
110.83
58.65
6.77
-39.69
-76.61
-101.69
-114.46
-117.52
-115.09
-110.92
-107.43
-104.72
-101.11
-95.05
-88.12
-80.97
-76.63
-78.44
-86.56
-101.31
-121.73
-143.66
-163.75
-180.08
-191.38
-197.40
-197.73
-191.03
-175.79
-150.64
-115.39
-70.60
-21.22
28.09
73.32
111.68
141.80
162.40
172.99
174.05
167.35
156.53
147.04
143.46
147.56
158.12
170.91
181.36
186.57
186.15
181.98
176.69
173.43
170.00
164.16
153.87
138.24
117.38
91.76
61.58
27.08
-11.45
-53.14
-95.82
-136.57
-172.04
-199.19
-216.10
-222.37
-219.07
-208.32
-192.24
-172.80
-151.83
-130.62
-110.10
-91.09
-74.46
-61.18
-51.99
-46.36
-43.45
-42.64
-42.77
-42.57
-40.58
-35.74
-27.47
-15.60
0.70
21.23
44.25
68.42
92.46
115.89
138.68
161.84
177.04
180.36
169.21
141.20
96.99
39.17
-27.49
-97.26
-164.27
-221.93
-263.77
-285.55
-286.82
-267.14
-232.74
-192.15
-155.19
-129.43
-116.49
-114.61
-109.35
-100.20
-88.21
-73.84
-55.28
-28.66
-1.75
23.42
45.95
65.04
78.07
84.52
84.69
79.72
70.73
58.42
44.85
31.02
17.08
1.46
-15.89
-34.37
-52.68
-69.54
-83.93
-93.94
-98.53
-97.76
-93.81
-88.14
-81.78
-75.40
-69.68
-65.26
-61.93
-59.50
-57.75
-56.99
-56.30
-53.71
-46.99
-34.33
-14.98
10.88
42.31
77.41
112.99
147.22
180.28
213.04
246.02
278.49
308.24
333.84
353.93
365.75
370.64
373.76
379.72
389.78
400.87
406.89
405.15
394.23
368.59
327.39
274.89
216.01
156.81
105.42
71.01
66.30
95.60
142.31
186.41
213.62
216.43
198.28
172.30
154.86
165.43
211.58
275.71
339.74
394.67
436.22
465.68
488.01
460.54
362.09
265.41
197.11
137.03
78.31
17.97
-43.74
-104.78
-163.21
-211.17
-245.09
-277.87
-316.78
-357.97
-395.32
-422.35
-434.98
-433.47
-415.93
-383.15
-345.65
-306.60
-260.35
-203.11
-136.97
-71.35
-20.13
7.87
9.90
-14.72
-56.82
-100.93
-135.18
-154.54
-160.58
-158.75
-153.25
-147.24
-145.45
-150.37
-162.27
-181.56
-208.29
-241.16
-276.85
-309.62
-333.74
-346.49
-347.68
-339.33
-324.99
-307.66
-288.60
-267.24
-242.31
-213.19
-180.65
-146.54
-113.39
-83.83
-60.03
-43.65
-35.04
-32.72
-33.46
-33.79
-31.50
-27.10
-23.09
-21.30
-20.77
-17.11
-4.54
20.72
57.68
100.50
140.89
172.03
191.95
203.36
211.75
222.59
239.21
261.30
285.39
305.17
313.05
303.71
274.65
227.26
166.96
102.01
40.51
-10.84
-49.92
-79.79
-103.89
-126.41
-150.61
-177.19
-202.98
-223.09
-230.16
-219.97
-193.80
-152.73
-99.65
-38.71
25.48
88.86
146.06
195.34
235.02
263.85
288.89
319.67
363.23
420.91
488.66
556.53
618.30
668.63
667.01
590.18
442.47
254.80
65.15
-81.52
-188.10
-263.23
-313.69
-343.73
-353.71
-342.20
-314.12
-281.13
-256.26
-249.78
-258.31
-271.21
-277.12
-265.21
-231.20
-180.83
-126.17
-78.89
-47.05
-28.67
-18.12
-10.78
-1.78
13.97
39.04
73.64
116.26
163.28
212.76
262.36
308.46
334.90
330.90
293.98
231.98
158.70
86.34
22.94
-29.05
-71.64
-108.35
-140.39
-168.00
-190.69
-207.76
-218.92
-224.01
-222.93
-216.20
-205.01
-188.77
-166.59
-137.45
-100.86
-58.21
-12.71
32.21
73.83
110.27
140.72
163.28
174.20
168.75
143.93
101.45
48.50
-4.49
-47.77
-75.43
-87.19
-87.26
-81.39
-74.01
-66.71
-59.15
-50.88
-42.46
-35.28
-30.62
-28.62
-28.04
-27.05
-23.41
-16.09
-5.42
7.26
19.94
30.94
39.31
45.05
48.28
49.48
48.37
44.10
35.64
22.07
3.32
-19.78
-45.18
-70.50
-92.73
-109.46
-119.22
-121.32
-116.10
-104.39
-87.40
-64.08
-37.13
-8.38
20.29
46.21
68.08
83.86
91.63
90.01
79.19
60.42
37.04
12.51
-10.11
-28.72
-42.81
-52.67
-59.90
-65.61
-70.56
-74.18
-76.66
-78.75
-81.89
-88.39
-95.75
-105.25
-118.22
-135.68
-156.84
-180.20
-202.20
-217.14
-219.36
-205.61
-177.52
-141.01
-107.03
-79.81
-61.24
-49.67
-40.66
-29.50
-13.33
7.90
32.76
58.65
83.80
106.98
127.80
145.73
159.64
168.26
170.34
165.31
154.60
141.16
127.80
116.59
108.10
104.24
102.24
99.41
93.44
84.78
75.65
69.01
67.55
72.36
82.46
95.86
109.23
118.44
121.92
119.96
114.44
107.76
101.37
87.11
64.49
40.99
16.19
-9.30
-33.29
-52.23
-62.41
-62.69
-52.17
-30.20
1.85
39.78
78.19
105.33
109.16
84.00
35.40
-22.08
-72.19
-105.00
-119.19
-118.62
-109.52
-96.35
-80.96
-63.74
-45.17
-26.54
-10.31
1.44
8.34
11.10
11.07
9.32
5.55
-1.78
-14.87
-35.67
-63.93
-96.83
-128.82
-152.06
-158.92
-145.34
-113.01
-69.23
-24.24
12.77
36.87
48.30
51.01
49.73
47.38
44.84
41.85
38.66
36.50
36.93
40.53
46.26
52.01
55.15
54.19
49.38
42.31
35.21
30.21
28.53
30.00
32.66
32.42
24.67
5.96
-24.11
-61.71
-99.42
-128.70
-143.10
-139.16
-120.76
-94.55
-66.92
-41.59
-19.33
0.78
19.43
36.03
49.10
57.09
60.22
60.15
59.13
59.06
60.46
62.21
62.26
58.62
50.02
37.19
22.43
8.76
-1.34
-6.92
-8.73
-9.04
-10.40
-15.20
-24.22
-36.69
-50.72
-63.74
-74.99
-84.58
-93.42
-102.38
-112.54
-124.63
-139.02
-155.46
-172.67
-187.79
-196.27
-194.93
-180.06
-152.17
-115.76
-77.39
-42.94
-15.31
6.12
24.37
42.33
60.99
79.28
95.08
106.82
114.42
118.96
121.73
123.46
123.79
122.54
119.34
114.48
108.85
103.60
99.54
96.84
96.07
95.45
94.11
91.49
87.49
82.33
76.39
69.89
63.02
56.01
49.17
43.29
39.08
36.86
36.46
37.23
38.31
39.06
39.30
39.41
40.33
42.99
48.08
56.06
66.91
79.55
91.49
98.86
97.58
85.25
62.62
33.87
5.35
-16.92
-29.88
-34.04
-32.73
-29.58
-26.54
-23.34
-18.45
-10.65
0.04
11.96
23.14
31.93
38.12
42.40
45.17
45.65
41.98
34.30
22.90
9.30
-5.03
-17.96
-28.11
-35.96
-43.77
-53.97
-67.54
-84.01
-101.55
-119.72
-137.65
-155.00
-172.61
-191.88
-213.03
-234.31
-253.33
-267.89
-278.25
-282.69
-276.98
-255.92
-215.40
-154.02
-74.49
15.50
115.00
209.54
283.65
331.39
358.62
372.96
375.81
364.88
336.16
290.65
233.36
175.24
128.85
102.29
96.54
106.28
123.43
139.51
148.19
144.80
128.97
103.01
68.40
26.54
-19.45
-63.56
-98.35
-117.52
-119.61
-107.34
-87.24
-70.38
-66.02
-77.19
-99.85
-126.17
-148.84
-164.18
-171.71
-173.18
-175.55
-184.33
-200.64
-221.02
-240.71
-256.58
-267.99
-275.72
-280.91
-290.26
-309.03
-338.40
-375.24
-415.25
-455.47
-494.26
-529.97
-525.55
-459.43
-336.41
-186.21
-41.35
79.65
172.52
240.63
289.77
325.31
345.97
351.08
343.22
328.78
314.65
304.96
300.71
300.76
303.15
301.32
290.44
269.29
240.86
209.54
178.43
148.89
122.78
100.57
79.56
57.98
35.57
14.52
-2.47
-14.03
-20.05
-21.48
-19.83
-17.78
-17.01
-18.59
-21.77
-25.09
-27.57
-28.56
-27.79
-25.35
-23.72
-21.83
-19.84
-17.40
-14.26
-10.62
-6.99
-4.13
-2.85
-3.79
-4.33
-6.07
-9.53
-14.47
-20.35
-26.52
-32.39
-37.60
-41.87
-44.71
-46.90
-48.76
-50.50
-52.36
-54.28
-56.00
-57.00
-58.24
-57.70
-54.74
-48.96
-40.27
-29.06
-15.88
-1.35
14.02
29.67
45.45
60.66
74.97
88.46
101.24
113.74
127.13
141.35
155.39
168.99
180.97
189.64
193.69
191.91
184.13
170.82
153.41
132.86
110.13
85.84
59.22
33.63
10.68
-7.91
-24.75
-37.56
-44.40
-43.92
-35.31
-20.70
-1.57
21.22
48.08
79.39
114.95
152.06
186.42
216.64
235.66
237.99
221.31
187.37
140.22
84.46
23.00
-42.39
-110.12
-183.03
-262.02
-345.13
-427.85
-505.39
-575.28
-638.80
-699.40
-731.46
-719.49
-662.59
-575.99
-480.40
-389.39
-305.38
-223.80
-139.11
-49.50
36.81
108.54
157.33
182.15
190.26
192.62
198.26
210.26
223.07
227.24
214.99
184.99
142.73
98.81
63.45
43.07
39.58
51.54
73.85
100.61
130.13
155.48
169.98
169.38
153.12
124.44
89.00
51.90
16.66
-14.35
-40.40
-60.52
-74.37
-82.79
-88.00
-92.64
-99.05
-108.69
-121.17
-135.47
-149.34
-160.82
-168.96
-173.81
-176.05
-176.16
-175.82
-173.73
-168.55
-158.38
-141.70
-117.85
-87.21
-50.96
-10.78
31.55
74.62
115.53
152.37
184.09
210.02
229.71
242.88
249.43
249.62
244.23
234.27
221.24
206.78
192.28
178.62
166.06
154.39
143.10
131.74
120.13
108.59
97.83
88.59
81.31
75.86
71.52
67.23
62.10
55.82
48.99
42.83
38.60
37.02
37.83
39.82
41.29
41.00
38.63
35.06
31.83
30.35
31.37
34.99
40.88
48.80
57.01
62.90
63.00
54.13
34.99
7.50
-23.37
-51.20
-70.90
-80.27
-80.24
-73.80
-64.02
-52.83
-41.13
-29.75
-20.02
-14.61
-16.17
-26.35
-44.74
-68.38
-92.13
-109.64
-115.82
-108.50
-90.43
-68.05
-48.80
-38.00
-36.86
-42.65
-50.84
-57.77
-62.44
-66.23
-71.05
-77.77
-85.46
-91.87
-95.00
-94.12
-89.87
-83.96
-77.93
-72.36
-66.67
-59.59
-49.60
-35.98
-19.12
-0.51
17.80
33.76
46.17
54.87
60.66
64.83
68.52
72.23
75.61
77.68
77.16
73.17
65.87
56.56
47.42
40.76
38.33
40.67
47.14
55.76
64.39
71.36
76.06
78.80
80.27
81.30
82.67
85.38
89.69
94.93
98.84
97.65
87.18
64.97
32.22
-6.96
-43.06
-67.90
-77.63
-73.51
-60.35
-43.67
-27.10
-11.58
3.46
18.69
33.24
45.29
53.24
56.67
56.52
53.90
50.09
45.57
40.18
33.12
23.91
13.00
1.75
-8.35
-15.79
-19.71
-20.29
-18.41
-15.48
-12.54
-9.94
-7.57
-5.73
-4.67
-4.79
-6.65
-10.55
-16.32
-23.12
-29.57
-34.53
-38.54
-42.77
-49.12
-59.62
-75.61
-97.35
-124.07
-155.04
-184.52
-210.39
-231.69
-249.17
-265.01
-282.01
-302.76
-327.54
-353.77
-375.74
-386.63
-378.74
-348.47
-298.31
-236.03
-171.84
-112.98
-62.30
-18.38
21.92
63.07
106.34
149.22
187.87
218.92
243.24
263.97
284.90
309.29
341.30
381.26
424.57
463.00
485.87
486.72
464.09
422.40
355.96
272.26
187.86
119.13
79.47
58.80
45.91
33.67
15.72
-10.42
-43.14
-79.86
-117.82
-149.29
-167.83
-170.48
-161.46
-149.30
-140.77
-137.07
-136.56
-137.22
-138.14
-141.52
-147.70
-155.46
-163.50
-167.27
-161.97
-145.81
-120.23
-88.50
-55.67
-23.22
10.63
48.27
91.41
139.11
185.74
221.68
242.40
240.42
213.63
166.09
106.08
43.31
-13.88
-59.69
-90.49
-104.74
-103.27
-89.55
-70.63
-55.54
-51.07
-58.60
-73.10
-85.41
-87.32
-76.51
-56.46
-33.69
-13.71
1.74
13.68
23.07
28.43
25.18
7.70
-26.95
-76.17
-132.61
-187.37
-233.44
-267.07
-286.05
-288.89
-274.77
-245.40
-204.23
-157.43
-112.62
-76.94
-54.12
-41.45
-32.91
-22.75
-10.46
3.54
18.40
34.23
51.25
70.12
94.19
125.82
164.46
202.14
233.34
255.48
269.83
278.84
285.82
297.99
322.05
362.02
413.10
472.35
537.11
604.50
668.19
698.02
671.82
586.38
491.82
411.82
355.43
313.01
278.95
247.30
213.57
179.58
149.44
126.15
104.23
80.10
51.77
19.89
-15.06
-52.07
-86.67
-114.75
-134.71
-152.52
-173.02
-199.55
-232.76
-272.15
-315.10
-354.92
-383.77
-395.00
-387.82
-362.82
-322.75
-271.99
-217.21
-166.27
-125.71
-99.97
-90.03
-93.91
-104.07
-109.99
-101.78
-74.92
-32.46
16.13
58.10
82.46
83.33
63.02
29.77
-6.10
-36.49
-57.89
-71.25
-79.98
-87.57
-96.54
-106.98
-119.04
-133.60
-152.53
-177.92
-210.90
-251.08
-296.96
-347.76
-401.84
-459.20
-519.14
-578.54
-631.27
-669.49
-686.41
-679.18
-651.40
-608.01
-556.88
-504.30
-453.20
-403.43
-353.46
-302.14
-249.58
-198.57
-148.38
-99.95
-54.00
-11.58
25.20
53.20
68.73
79.77
71.25
48.06
14.86
-22.80
-59.55
-91.14
-114.89
-129.47
-134.56
-132.06
-120.86
-102.74
-80.06
-55.31
-30.37
-6.19
17.31
40.99
65.20
92.60
123.20
155.95
189.56
223.31
257.35
292.42
329.00
367.29
407.60
447.14
481.83
508.16
524.70
532.33
533.47
531.01
530.13
535.40
547.49
562.90
575.16
576.85
561.63
526.35
472.40
410.43
353.12
309.32
280.67
262.62
248.16
231.84
212.65
194.70
191.90
216.48
272.31
352.46
443.18
530.47
604.72
662.45
664.40
590.42
446.61
263.85
77.88
-87.97
-224.89
-332.45
-413.19
-470.69
-502.97
-510.40
-498.46
-476.97
-455.83
-440.94
-433.47
-431.51
-432.02
-427.87
-414.47
-392.07
-365.30
-340.21
-319.66
-303.26
-288.63
-272.66
-250.51
-219.95
-182.97
-145.00
-111.89
-87.20
-71.27
-61.98
-55.24
-46.01
-31.15
-10.89
11.87
33.68
52.53
68.45
83.15
100.49
121.68
148.14
179.88
215.08
250.20
280.09
298.59
292.89
256.18
191.04
110.82
33.46
-26.72
-64.27
-82.22
-88.02
-88.64
-86.91
-82.61
-74.53
-63.18
-51.07
-41.25
-35.58
-33.84
-33.94
-32.11
-25.15
-11.69
6.95
27.28
45.63
58.53
63.94
61.66
53.37
41.22
26.82
10.34
-9.17
-32.30
-58.31
-85.47
-111.26
-133.05
-149.62
-161.29
-169.10
-173.08
-171.25
-160.41
-138.32
-105.92
-67.85
-31.02
-1.54
17.73
27.21
28.56
22.67
8.42
-15.59
-48.14
-83.55
-112.89
-125.52
-117.07
-89.93
-51.93
-12.37
21.64
47.52
66.79
82.26
95.92
107.55
116.07
119.43
116.29
106.22
89.56
66.65
37.37
2.55
-34.87
-68.71
-91.74
-98.15
-86.47
-61.47
-29.77
0.77
24.49
39.58
47.96
53.10
58.15
64.61
72.99
83.65
96.41
110.05
121.17
124.47
114.53
88.82
49.10
1.89
-43.42
-78.48
-98.44
-103.20
-96.40
-83.70
-70.95
-63.40
-64.02
-72.76
-86.33
-98.99
-104.78
-99.83
-83.88
-57.86
-26.51
4.35
29.67
45.47
48.66
36.97
10.14
-28.68
-70.56
-103.25
-116.47
-107.21
-80.87
-47.32
-15.91
7.82
22.81
30.93
34.50
35.11
33.59
30.49
26.50
22.14
17.92
13.73
8.97
3.01
-4.74
-14.55
-25.54
-37.44
-50.04
-62.60
-75.11
-88.77
-105.29
-126.43
-152.31
-180.09
-204.16
-217.71
-214.06
-191.18
-153.41
-108.93
-67.04
-34.11
-11.73
2.69
13.78
28.56
52.32
81.97
114.61
147.57
179.51
210.30
239.99
268.15
297.19
328.19
360.29
391.94
421.30
447.29
469.54
487.60
479.45
433.80
353.17
252.41
149.75
57.73
-18.03
-76.80
-120.31
-151.39
-169.76
-176.03
-172.75
-163.74
-153.09
-143.70
-137.05
-133.68
-133.63
-134.17
-133.17
-130.15
-125.99
-122.04
-119.16
-117.56
-117.27
-118.22
-119.07
-118.90
-117.91
-117.00
-117.06
-118.23
-120.18
-122.33
-124.01
-124.38
-122.23
-116.79
-107.63
-94.45
-76.77
-54.98
-30.45
-5.50
17.41
36.23
49.71
57.87
61.92
64.47
67.37
71.35
75.93
80.20
83.77
87.08
91.33
97.99
108.95
124.33
142.95
162.81
181.45
196.08
203.41
199.66
175.60
130.80
70.94
6.25
-51.95
-95.13
-119.69
-127.02
-121.73
-108.97
-91.83
-72.89
-54.50
-39.27
-30.69
-31.62
-42.88
-62.41
-85.25
-103.65
-110.42
-101.14
-74.90
-37.50
1.07
30.99
46.51
47.56
38.95
26.40
13.74
1.63
-11.33
-26.32
-42.80
-58.62
-71.28
-79.25
-82.62
-82.46
-79.97
-75.26
-67.04
-53.25
-32.29
-4.10
29.18
64.16
97.69
127.16
150.02
163.81
166.93
159.77
145.17
127.58
110.87
96.08
80.91
61.72
36.58
7.44
-20.18
-40.31
-49.61
-49.05
-42.88
-35.72
-29.96
-24.97
-18.59
-9.09
3.41
17.23
30.06
39.87
45.56
46.96
44.12
37.02
25.34
8.68
-12.84
-37.96
-64.31
-88.54
-106.92
-116.78
-116.79
-107.39
-90.50
-68.74
-44.68
-20.69
1.43
20.47
35.03
43.58
44.74
37.69
22.54
1.36
-23.13
-48.10
-70.83
-90.07
-105.86
-119.07
-130.97
-143.08
-156.83
-173.07
-193.05
-212.09
-223.62
-220.60
-198.11
-155.70
-98.11
-34.04
26.94
78.06
115.65
141.19
158.61
171.13
179.98
185.34
187.82
188.90
189.58
189.51
185.70
173.80
150.97
118.10
80.20
44.27
16.13
-1.57
-8.44
-5.39
6.88
27.29
53.51
81.04
104.05
117.20
116.79
102.37
75.75
39.72
-2.59
-46.83
-87.52
-118.21
-132.11
-127.78
-108.57
-81.18
-52.74
-28.92
-10.85
1.44
8.22
8.99
2.14
-12.67
-33.86
-58.16
-81.27
-98.89
-108.54
-109.70
-101.33
-87.36
-71.46
-55.57
-39.90
-23.24
-4.18
17.66
41.10
63.57
81.27
90.97
90.52
79.29
58.42
31.22
2.80
-20.04
-30.56
-26.12
-8.89
14.68
36.16
48.92
50.69
43.61
32.73
23.00
17.24
15.50
16.49
17.98
17.35
12.38
2.09
-12.13
-25.91
-33.90
-31.99
-18.79
3.49
30.32
57.08
80.60
100.13
114.91
123.71
124.64
116.31
98.87
74.38
46.55
19.71
-2.98
-20.53
-33.43
-43.53
-52.53
-61.25
-69.66
-76.77
-81.32
-82.57
-82.56
-80.58
-77.01
-72.09
-65.48
-56.73
-44.86
-29.13
-9.62
12.48
35.63
57.45
75.92
90.00
98.97
103.28
104.08
102.55
99.36
95.00
89.26
82.07
74.18
65.77
57.88
51.77
48.07
46.10
44.06
39.01
27.69
13.22
-3.45
-20.37
-34.92
-45.20
-50.98
-53.82
-56.91
-64.28
-79.99
-109.67
-155.74
-215.93
-283.35
-348.07
-399.78
-431.04
-439.51
-427.88
-404.48
-376.40
-346.80
-315.44
-280.74
-242.00
-200.65
-159.95
-111.97
-57.94
-4.62
39.75
69.87
84.90
86.67
77.73
59.71
35.79
8.10
-18.61
-38.29
-45.56
-37.40
-13.44
26.15
78.76
137.97
193.54
237.88
267.78
284.00
289.38
286.77
278.16
264.56
246.82
224.70
200.05
175.89
155.32
140.80
133.29
132.00
134.68
142.21
149.50
153.61
153.66
149.74
142.60
132.70
119.66
102.31
79.28
49.32
13.58
-24.64
-60.83
-89.93
-107.63
-111.13
-98.83
-70.26
-28.02
22.01
69.46
101.85
110.73
95.60
64.07
28.82
1.79
-10.74
-9.22
1.77
14.92
25.52
31.81
33.82
31.67
24.27
8.98
-17.59
-53.18
-92.95
-131.47
-164.85
-191.49
-211.07
-223.03
-225.27
-214.35
-187.58
-146.14
-95.53
-44.50
-1.81
27.01
41.23
44.22
41.39
37.47
34.75
33.63
33.38
33.36
33.27
32.61
30.68
26.76
20.34
11.28
0.83
-8.69
-14.90
-16.15
-13.41
-10.24
-11.28
-19.95
-35.88
-53.58
-65.74
-65.62
-50.87
-24.42
7.24
37.49
61.95
79.69
91.93
100.19
105.98
108.69
107.26
101.14
90.85
77.62
63.12
48.42
33.65
18.75
2.28
-16.69
-39.02
-64.49
-91.77
-118.49
-142.26
-163.05
-178.53
-188.28
-192.52
-191.68
-185.90
-175.38
-160.42
-141.78
-120.12
-94.12
-62.12
-22.15
26.13
79.96
133.11
177.49
205.84
211.78
197.21
168.45
133.26
97.62
64.77
35.68
10.55
-10.11
-25.57
-34.84
-38.72
-39.33
-39.45
-41.64
-47.23
-56.29
-67.74
-80.18
-91.91
-102.23
-111.13
-119.29
-126.18
-130.56
-130.71
-124.84
-111.68
-90.78
-63.11
-30.86
2.83
34.72
62.40
84.52
100.67
111.18
116.90
118.70
117.26
113.23
107.40
100.48
93.14
85.91
79.15
73.09
67.73
62.78
58.00
53.32
48.72
44.25
40.06
36.23
32.82
29.80
27.02
24.30
21.59
18.85
16.23
13.88
12.09
10.95
10.45
10.68
11.06
11.39
11.61
12.14
13.52
16.45
21.28
27.94
35.78
43.72
51.13
56.95
60.88
63.15
64.24
64.53
63.93
61.98
57.93
51.38
42.47
32.09
21.62
12.54
6.06
3.00
3.82
8.20
14.89
21.32
24.09
20.03
7.66
-11.68
-34.05
-54.26
-68.11
-73.80
-72.30
-66.27
-58.45
-50.59
-43.16
-36.00
-28.98
-22.35
-16.40
-11.13
-6.17
-0.89
5.25
12.36
20.10
27.81
34.68
40.09
43.82
46.11
48.23
52.14
59.69
71.62
86.99
103.30
117.67
128.12
134.06
136.84
138.76
141.91
147.18
153.98
160.60
164.75
166.37
164.60
158.67
147.97
132.08
111.00
85.36
56.53
26.50
-2.53
-28.90
-51.43
-69.68
-83.76
-94.06
-100.97
-104.66
-105.26
-102.99
-98.37
-91.81
-83.48
-73.23
-60.93
-46.74
-31.50
-16.87
-4.98
1.92
2.35
-3.99
-16.01
-31.67
-48.74
-65.61
-81.62
-97.02
-112.52
-128.64
-145.62
-163.23
-181.23
-199.58
-218.14
-236.66
-255.22
-274.91
-298.18
-327.78
-364.23
-403.52
-436.63
-451.81
-439.40
-396.70
-329.77
-251.46
-176.28
-114.62
-69.81
-38.63
-14.40
9.21
36.30
68.28
104.38
141.71
175.44
199.08
206.24
193.53
162.83
122.48
85.07
62.83
62.75
83.88
118.03
153.97
182.51
199.70
207.24
209.72
210.88
211.22
208.08
197.64
177.65
149.06
115.46
81.56
51.28
26.75
8.45
-4.03
-11.36
-14.16
-13.32
-10.75
-9.78
-14.91
-30.40
-58.28
-96.71
-139.71
-178.75
-205.92
-216.95
-212.63
-197.79
-178.37
-158.49
-139.15
-119.21
-98.18
-78.36
-65.05
-64.36
-79.86
-110.09
-148.13
-183.68
-206.22
-208.15
-186.61
-143.58
-84.42
-15.89
55.53
124.62
187.50
241.52
285.37
319.34
345.21
365.59
382.24
394.72
399.83
392.61
368.81
327.26
271.04
206.15
139.20
75.22
17.48
-31.13
-66.51
-83.69
-79.22
-54.67
-18.31
16.39
35.23
28.65
-5.23
-60.87
-128.66
-198.70
-262.95
-315.12
-349.35
-359.72
-341.53
-294.11
-222.95
-139.60
-58.86
5.89
46.78
63.47
62.11
51.84
40.79
33.26
29.31
26.22
21.18
13.16
3.60
-4.59
-8.73
-8.08
-4.12
0.30
2.23
-0.04
-6.88
-17.65
-31.29
-46.70
-62.26
-75.50
-83.05
-81.71
-69.66
-47.82
-19.83
9.43
35.54
56.22
71.22
81.30
86.69
86.64
79.81
65.88
46.96
27.59
13.50
9.34
16.65
33.13
53.34
70.02
76.58
69.40
48.76
19.11
-12.43
-38.26
-52.64
-53.65
-44.84
-33.59
-27.98
-33.49
-50.38
-73.33
-93.06
-99.35
-84.97
-49.94
-0.38
55.46
111.27
164.31
214.08
259.89
299.26
327.91
338.66
325.90
289.55
235.89
174.47
113.66
58.59
11.61
-26.32
-59.07
-92.60
-131.84
-178.93
-233.51
-294.44
-359.85
-426.87
-470.41
-468.37
-414.64
-324.17
-220.21
-118.98
-26.77
55.86
129.72
195.36
251.46
293.12
316.95
324.02
318.80
305.54
286.85
256.89
217.02
169.66
117.74
65.03
16.46
-22.92
-50.46
-65.89
-70.42
-65.33
-54.69
-43.55
-35.44
-31.13
-29.06
-27.97
-27.13
-26.28
-24.69
-23.04
-22.69
-24.28
-30.11
-37.19
-43.47
-47.49
-48.45
-45.27
-37.51
-25.35
-8.91
11.85
37.39
67.18
100.28
134.99
169.78
203.41
234.61
262.26
285.32
303.26
314.83
318.97
313.23
295.64
267.66
231.95
191.83
150.33
110.35
72.83
38.24
3.59
-33.28
-71.87
-109.33
-142.09
-167.66
-184.65
-194.95
-200.93
-209.85
-226.82
-252.06
-281.25
-308.76
-330.74
-345.42
-356.42
-368.50
-392.56
-436.08
-498.88
-573.44
-649.20
-716.49
-767.27
-799.86
-769.49
-651.13
-451.73
-208.94
32.99
245.21
407.15
533.97
636.06
716.91
770.40
791.63
779.00
737.31
671.16
589.77
506.89
432.78
373.04
324.58
273.78
216.52
155.77
96.86
43.69
-3.19
-37.07
-58.77
-74.08
-88.64
-104.33
-120.30
-134.33
-144.07
-147.87
-147.22
-146.47
-151.01
-165.22
-190.31
-225.84
-270.80
-323.87
-382.97
-445.07
-505.73
-557.73
-592.98
-604.54
-590.41
-554.31
-503.84
-447.38
-391.45
-340.11
-294.19
-253.34
-217.05
-185.72
-159.79
-138.68
-120.57
-102.96
-84.34
-64.25
-43.41
-23.34
-5.62
8.78
19.85
28.29
34.89
40.18
43.81
44.46
40.31
29.92
12.73
-10.23
-37.05
-65.64
-93.83
-120.14
-144.11
-165.98
-186.04
-204.32
-219.70
-230.52
-235.01
-230.57
-215.44
-189.35
-153.65
-110.55
-63.01
-13.11
37.06
85.06
131.06
174.29
212.04
240.06
254.46
252.41
236.02
209.61
178.17
152.10
139.29
141.79
156.03
176.41
196.84
219.07
247.48
286.50
348.42
441.08
562.36
700.44
839.34
961.40
1060.75
1135.86
1186.54
1225.94
1266.15
1311.30
1356.38
1392.14
1405.51
1396.00
1366.82
1246.85
1003.64
658.32
279.39
-59.50
-283.89
-417.91
-496.16
-545.62
-582.40
-611.28
-625.83
-621.85
-602.10
-573.66
-549.49
-532.32
-523.60
-524.94
-527.74
-522.55
-505.32
-478.84
-448.77
-423.55
-401.68
-380.56
-360.42
-339.11
-316.00
-292.63
-273.48
-258.15
-239.65
-209.03
-163.51
-106.33
-42.93
19.75
73.83
111.27
126.15
107.26
56.38
-11.57
-75.82
-119.70
-137.70
-134.31
-119.58
-102.84
-89.92
-81.32
-75.52
-71.92
-71.59
-75.62
-83.02
-91.52
-98.60
-103.08
-105.67
-108.71
-115.18
-127.05
-144.95
-164.13
-178.23
-181.19
-168.86
-139.64
-95.53
-42.55
11.08
53.97
78.62
83.49
73.37
56.98
43.20
37.26
39.10
44.70
49.19
50.69
50.04
49.43
50.55
53.58
57.32
60.16
61.21
60.64
60.17
61.49
64.87
68.92
71.01
68.80
60.87
47.65
30.27
11.52
-5.35
-17.60
-23.50
-22.97
-16.75
-5.94
7.86
23.08
38.41
52.61
64.87
74.28
80.01
81.51
79.15
73.56
66.04
58.11
51.04
45.54
41.64
38.49
34.46
27.78
16.48
0.00
-21.23
-45.62
-70.46
-92.79
-110.05
-120.78
-124.95
-123.99
-119.11
-111.59
-102.63
-92.94
-83.44
-75.22
-69.84
-66.47
-67.72
-74.59
-86.89
-103.84
-123.86
-144.57
-162.15
-171.63
-168.42
-150.99
-121.62
-87.03
-56.37
-37.25
-33.30
-43.13
-61.70
-83.11
-104.06
-121.55
-133.73
-138.97
-135.18
-120.46
-94.09
-57.42
-13.88
31.88
74.30
109.75
136.63
155.26
167.06
173.79
176.76
176.38
172.56
165.27
155.00
142.72
129.86
117.94
108.25
101.32
96.56
92.78
88.55
83.03
76.01
68.19
60.41
53.87
49.26
46.52
45.29
45.10
46.13
48.43
51.40
53.71
54.41
53.64
53.09
56.17
63.48
74.05
84.31
89.20
84.56
69.23
45.73
19.03
-5.66
-25.15
-38.29
-45.79
-49.05
-49.12
-46.63
-42.25
-37.24
-33.31
-33.17
-38.78
-50.87
-68.26
-87.78
-105.08
-115.84
-116.96
-107.01
-86.56
-57.21
-21.56
15.92
49.92
74.61
84.93
79.06
59.64
33.14
7.77
-9.86
-16.94
-14.26
-4.85
8.13
23.20
40.36
59.69
80.16
99.68
114.91
123.42
124.30
118.14
106.39
90.70
72.05
50.56
26.92
1.64
-24.12
-48.47
-69.20
-84.40
-93.14
-95.89
-94.17
-90.37
-86.95
-85.33
-85.74
-87.27
-88.54
-88.31
-86.22
-82.75
-79.31
-77.55
-78.43
-82.17
-87.36
-92.33
-95.79
-97.28
-97.43
-97.85
-100.44
-106.73
-117.58
-133.33
-153.40
-175.45
-195.71
-208.01
-206.50
-187.73
-152.44
-105.54
-54.27
-5.48
36.94
72.42
102.40
128.30
150.19
166.62
176.03
178.09
174.07
166.53
157.55
148.25
138.54
127.71
115.02
100.64
85.49
71.09
59.18
50.53
45.23
42.88
42.64
43.94
46.64
50.82
56.57
64.18
73.05
82.13
90.23
96.05
98.59
97.40
92.32
81.34
66.32
48.70
29.69
10.62
-7.45
-23.73
-37.78
-49.87
-60.64
-70.54
-80.37
-90.53
-100.76
-110.75
-120.22
-129.28
-138.53
-149.02
-160.06
-170.12
-176.39
-175.34
-164.13
-141.35
-108.12
-68.04
-25.81
13.12
45.14
69.16
86.57
99.97
112.98
128.50
147.45
168.15
185.99
194.44
187.02
162.16
121.64
74.22
32.61
8.48
7.67
27.43
57.24
82.96
91.73
76.73
39.38
-12.41
-68.10
-118.10
-156.82
-183.41
-199.95
-210.02
-216.72
-222.02
-226.84
-231.17
-233.63
-231.37
-220.67
-197.73
-161.30
-114.09
-62.51
-14.39
23.53
47.70
58.17
57.37
49.42
38.00
26.34
17.31
13.34
16.30
27.15
45.41
65.04
81.48
90.86
91.08
82.38
66.78
47.39
28.26
12.66
2.41
-1.21
2.22
12.82
31.10
57.24
90.49
129.90
172.63
213.79
248.09
270.78
279.35
274.30
258.21
235.06
210.79
190.62
177.97
174.29
178.36
186.90
194.87
195.94
175.38
126.70
54.68
-25.82
-97.53
-149.32
-178.33
-187.71
-183.74
-172.00
-154.69
-132.82
-107.60
-80.92
-55.18
-32.24
-11.81
5.10
18.10
28.39
36.71
43.03
45.93
43.26
33.42
16.39
-7.51
-36.32
-64.32
-86.90
-102.18
-110.72
-113.74
-113.87
-110.18
-102.72
-92.58
-82.93
-79.28
-87.13
-109.62
-145.61
-190.13
-227.93
-245.57
-234.41
-194.74
-135.97
-70.76
-9.80
39.62
79.12
110.51
132.33
141.63
135.80
114.47
81.98
46.15
17.75
4.73
7.82
19.59
29.12
27.25
10.22
-18.40
-50.56
-78.30
-97.41
-108.36
-113.11
-111.41
-95.66
-61.27
-11.43
42.14
85.49
109.79
113.33
100.95
80.79
60.05
41.71
25.70
10.59
-4.59
-20.05
-36.18
-53.63
-72.86
-93.67
-116.98
-141.29
-163.22
-178.50
-183.50
-176.33
-156.96
-126.72
-87.74
-41.50
7.50
55.24
98.81
136.00
164.98
184.77
195.32
197.57
193.34
184.84
174.69
165.40
158.95
156.24
156.38
156.20
150.49
134.09
104.37
63.50
18.14
-23.03
-52.94
-68.74
-72.25
-68.26
-61.60
-54.97
-48.34
-40.32
-29.73
-16.68
-2.17
12.94
28.30
44.18
61.01
78.28
94.16
106.09
111.42
108.37
96.63
77.33
52.63
24.88
-3.01
-29.22
-52.70
-72.95
-89.63
-102.60
-112.11
-118.75
-123.59
-128.09
-133.69
-140.89
-148.98
-157.29
-163.03
-163.98
-158.89
-147.52
-131.00
-111.52
-91.90
-75.24
-63.92
-58.32
-56.07
-52.19
-40.59
-17.41
17.08
57.93
97.29
127.94
146.01
152.03
148.77
141.47
133.33
124.63
113.25
96.58
73.59
45.00
12.94
-19.90
-50.72
-77.68
-98.77
-111.98
-115.81
-110.24
-97.42
-81.83
-68.87
-61.71
-61.41
-64.34
-64.53
-56.81
-39.37
-14.45
12.88
37.20
54.91
65.90
72.69
78.89
88.12
102.40
121.18
141.21
157.73
166.05
162.08
147.61
126.48
102.90
79.96
58.75
38.94
20.02
1.97
-15.00
-30.30
-44.39
-58.68
-74.64
-93.19
-114.16
-134.84
-150.60
-156.66
-150.08
-131.94
-107.71
-85.03
-69.74
-63.87
-63.57
-61.56
-51.51
-31.20
-2.73
29.33
61.50
92.58
123.01
152.68
178.97
196.97
199.94
186.25
157.46
117.94
72.69
25.90
-19.66
-62.16
-99.70
-130.23
-150.65
-159.35
-156.95
-146.79
-134.34
-125.85
-125.78
-134.29
-147.37
-156.15
-151.51
-127.84
-85.79
-32.34
22.06
67.73
99.06
115.71
121.31
120.07
114.72
106.35
95.42
83.06
71.78
64.55
63.19
67.26
73.96
78.89
78.79
72.98
63.49
53.81
47.47
46.82
52.86
64.82
80.08
94.13
101.44
97.16
79.93
54.11
27.73
10.47
8.44
20.86
40.39
56.90
62.55
55.12
37.54
14.46
-10.91
-38.33
-68.72
-100.82
-129.87
-149.25
-153.64
-141.86
-118.36
-90.62
-65.92
-48.59
-38.99
-34.69
-32.63
-30.54
-27.44
-23.91
-20.51
-17.84
-16.06
-14.68
-13.00
-10.19
-5.44
1.83
11.68
24.10
38.70
54.81
71.59
87.91
102.45
113.88
120.96
122.61
118.21
107.50
90.88
69.36
45.08
20.47
-2.04
-20.51
-33.99
-42.60
-47.53
-50.61
-52.80
-54.74
-56.15
-56.14
-53.96
-49.69
-44.19
-38.89
-35.22
-33.39
-33.48
-34.96
-37.36
-40.10
-41.71
-39.73
-31.62
-16.58
3.15
21.64
32.27
30.83
17.93
-0.91
-18.13
-27.78
-28.07
-21.43
-12.31
-4.18
1.76
6.25
10.37
14.00
15.86
14.52
9.63
2.05
-6.18
-12.90
-17.04
-18.50
-18.47
-18.50
-19.72
-22.42
-26.07
-29.62
-32.32
-34.15
-35.51
-37.23
-39.91
-43.44
-47.40
-51.33
-54.79
-57.86
-60.97
-64.68
-69.79
-77.30
-88.29
-103.82
-123.56
-144.57
-162.17
-169.75
-162.45
-139.39
-103.94
-61.98
-19.03
21.93
60.19
95.24
124.18
142.30
145.35
132.73
109.19
83.45
64.42
57.34
61.85
73.43
86.33
96.04
101.04
101.89
99.63
94.77
86.48
73.73
56.28
35.21
12.56
-8.67
-25.93
-38.23
-45.76
-48.95
-47.11
-38.31
-20.58
6.16
38.04
67.79
86.64
87.30
68.57
35.47
-3.02
-37.16
-60.73
-71.79
-72.27
-66.31
-58.12
-50.64
-45.62
-43.74
-45.13
-49.31
-55.47
-61.88
-65.69
-63.61
-53.40
-36.31
-16.81
-0.88
8.41
13.56
22.10
42.97
79.52
128.29
178.56
216.95
232.98
223.08
190.45
142.23
86.07
27.46
-29.24
-80.17
-120.92
-146.66
-153.78
-142.15
-116.35
-84.27
-57.26
-43.18
-43.51
-53.05
-62.73
-64.64
-56.15
-40.14
-21.84
-4.89
11.90
33.78
64.54
103.80
145.30
178.96
195.18
189.00
161.60
119.49
71.15
23.66
-18.07
-51.40
-74.26
-84.61
-81.63
-67.38
-47.50
-30.52
-25.03
-34.11
-53.95
-75.08
-87.00
-83.07
-63.01
-31.77
3.17
34.95
60.57
78.24
87.24
87.91
82.08
73.29
66.29
64.93
68.49
75.18
79.92
77.86
67.25
50.12
30.72
13.09
-1.41
-13.90
-26.65
-41.60
-58.82
-76.56
-92.45
-105.02
-112.34
-113.12
-107.42
-97.00
-85.55
-77.18
-74.32
-75.14
-75.44
-68.89
-50.56
-20.01
18.05
55.95
86.61
106.55
114.91
113.01
102.52
84.24
57.89
23.38
-17.52
-61.15
-102.30
-136.19
-159.67
-170.73
-168.22
-151.42
-120.02
-74.89
-19.80
38.74
92.46
130.77
145.43
135.08
104.28
60.37
10.89
-38.25
-84.39
-124.10
-153.84
-169.99
-169.97
-152.68
-119.64
-72.67
-20.71
24.44
53.32
61.20
50.00
26.61
-0.09
-23.27
-39.77
-48.13
-47.14
-33.66
-4.80
39.51
94.22
149.94
198.75
233.43
252.64
259.31
259.38
257.81
256.32
253.21
245.30
229.46
199.27
159.05
113.64
68.52
28.94
-0.86
-18.36
-24.33
-23.08
-22.10
-28.23
-47.74
-81.52
-124.73
-168.86
-205.18
-228.64
-238.29
-236.78
-227.22
-213.90
-199.08
-184.11
-169.29
-154.39
-138.67
-119.33
-93.35
-53.40
-2.39
50.58
93.08
116.21
117.45
99.56
69.34
32.73
-6.32
-46.62
-85.72
-121.38
-149.22
-165.76
-171.51
-169.86
-167.51
-171.00
-184.05
-200.56
-212.87
-211.52
-188.89
-145.74
-81.81
-1.20
88.70
178.93
261.60
330.84
384.76
425.51
447.80
452.05
440.11
415.18
380.94
340.77
296.03
246.32
190.43
127.53
60.23
-8.01
-73.12
-131.23
-178.74
-212.85
-230.82
-229.87
-208.94
-168.97
-115.40
-57.16
-3.67
37.84
62.73
66.83
49.53
16.92
-18.32
-43.50
-51.98
-44.20
-25.08
-0.88
23.50
46.53
68.61
90.10
109.83
125.82
134.97
136.41
130.83
119.78
106.97
96.54
91.58
92.59
95.94
95.76
88.09
69.54
38.28
-1.74
-43.75
-80.68
-107.56
-124.97
-136.08
-140.54
-138.87
-132.26
-120.45
-103.36
-82.37
-59.64
-39.70
-23.91
-3.90
25.56
62.05
98.08
122.25
123.11
94.69
34.77
-50.53
-142.28
-226.59
-298.90
-358.33
-405.08
-438.92
-431.31
-365.95
-286.63
-212.33
-136.59
-61.31
10.79
77.95
137.88
187.65
219.48
227.35
220.94
205.40
182.25
154.35
126.48
102.60
84.99
71.34
59.60
55.51
58.68
64.35
63.28
57.66
51.10
45.02
37.30
26.45
17.91
11.45
3.39
-10.01
-30.23
-59.92
-95.99
-138.70
-185.85
-227.85
-259.72
-279.42
-286.44
-279.54
-239.76
-161.83
-56.26
37.89
112.69
168.72
214.70
254.19
290.51
325.43
356.43
380.08
394.56
402.77
404.15
397.20
379.88
351.75
312.47
259.39
190.30
105.23
8.60
-97.49
-211.84
-333.17
-457.45
-577.68
-685.68
-772.33
-829.59
-851.93
-841.51
-806.10
-756.09
-700.02
-642.96
-587.17
-532.80
-479.18
-425.14
-370.89
-316.90
-263.55
-210.68
-158.39
-107.89
-61.01
-19.70
14.96
42.56
63.67
79.48
91.56
101.33
109.79
117.64
125.53
134.22
144.43
156.64
170.78
186.22
201.95
216.92
230.58
243.02
254.96
267.62
282.45
300.73
322.97
348.08
372.89
392.57
402.04
397.92
380.28
352.81
321.35
291.37
265.75
243.99
223.59
201.97
178.57
155.17
134.76
119.68
110.39
105.46
102.17
97.76
90.06
77.84
60.88
39.94
16.86
-5.56
-23.97
-35.57
-39.00
-34.81
-25.23
-13.50
-3.08
3.17
3.65
-1.18
-8.88
-15.63
-17.21
-10.66
4.32
24.83
45.46
59.80
63.17
53.14
30.10
-2.52
-38.88
-72.04
-96.05
-107.78
-107.75
-98.19
-83.32
-67.31
-52.18
-36.98
-18.58
6.18
38.85
78.51
124.11
171.88
216.19
251.87
276.66
292.62
305.10
319.95
340.16
366.15
391.49
405.23
397.50
364.43
309.84
242.91
173.80
92.41
0.05
-92.84
-171.96
-226.79
-254.29
-257.31
-242.17
-216.94
-189.26
-162.26
-137.66
-116.81
-97.74
-79.65
-62.12
-45.94
-33.68
-29.05
-33.47
-47.71
-72.72
-109.14
-151.73
-193.95
-230.60
-259.40
-280.59
-294.57
-302.37
-306.76
-310.59
-315.51
-321.76
-327.41
-328.52
-320.53
-304.37
-278.01
-244.29
-208.20
-173.93
-143.26
-114.67
-84.70
-50.18
-9.85
35.71
81.00
121.63
155.67
183.42
206.04
224.17
237.22
243.83
243.59
236.39
224.75
212.21
201.94
195.80
194.13
196.17
200.17
206.57
209.73
204.72
187.27
155.34
110.46
58.14
6.21
-37.69
-68.55
-86.25
-93.11
-93.08
-89.76
-85.61
-81.88
-79.27
-78.32
-79.37
-82.89
-88.02
-93.78
-99.67
-106.22
-115.54
-131.03
-156.69
-193.12
-238.76
-287.82
-331.67
-361.44
-371.40
-361.26
-336.11
-304.00
-272.38
-245.80
-224.60
-206.52
-188.97
-170.65
-151.79
-133.13
-114.75
-95.44
-73.75
-48.53
-19.94
10.67
41.17
69.75
95.63
119.21
141.80
164.75
189.34
216.35
246.04
277.68
309.02
335.95
352.95
354.45
336.92
300.50
249.54
191.34
133.97
83.87
44.62
16.80
-1.19
-12.37
-20.51
-29.54
-42.82
-61.86
-85.02
-107.40
-121.99
-122.11
-104.24
-69.85
-25.11
21.10
60.43
87.95
103.46
110.84
115.87
123.44
135.60
151.00
165.94
176.17
178.93
173.84
162.69
148.50
134.13
121.45
110.97
102.13
93.91
85.18
75.41
64.96
54.85
46.34
40.28
36.49
33.69
29.98
23.42
12.85
-1.67
-19.32
-38.97
-59.62
-80.47
-100.48
-117.67
-129.98
-135.23
-132.24
-121.70
-105.93
-88.00
-70.28
-53.54
-36.07
-16.72
5.82
31.18
56.74
78.31
91.73
94.55
87.22
74.50
60.00
48.77
44.21
47.39
57.05
70.34
83.41
91.98
94.24
84.64
62.06
28.16
-12.91
-55.96
-96.62
-131.91
-159.86
-174.45
-173.86
-152.26
-105.92
-36.20
49.31
137.81
215.61
252.97
266.34
253.39
219.21
170.46
114.19
57.93
9.22
-23.56
-34.17
-17.30
15.13
49.62
71.26
72.28
56.58
35.23
26.48
34.21
56.27
82.71
106.16
121.83
123.53
109.82
75.44
22.17
-42.85
-109.95
-172.85
-226.28
-267.27
-293.54
-303.38
-297.22
-283.60
-258.66
-228.12
-199.57
-177.96
-165.79
-162.63
-166.08
-172.58
-176.76
-172.54
-156.91
-129.25
-92.68
-54.31
-22.18
-2.75
1.40
-6.88
-20.65
-34.85
-44.29
-45.64
-42.49
-38.44
-37.17
-40.62
-47.01
-49.58
-43.10
-23.21
10.05
51.78
94.75
131.99
159.63
176.62
183.01
178.09
162.15
136.59
105.23
73.82
49.81
36.85
33.70
35.07
34.30
27.30
13.02
-6.89
-29.40
-52.05
-74.12
-95.45
-115.42
-133.48
-146.61
-152.07
-147.77
-132.59
-107.27
-75.55
-43.46
-17.57
-3.98
-3.64
-12.63
-23.86
-30.52
-29.44
-21.80
-11.79
-3.77
0.18
0.83
-0.31
-2.61
-6.74
-13.46
-21.32
-26.14
-22.48
-6.74
21.04
55.53
88.42
112.14
122.86
121.97
114.38
105.60
99.12
96.09
95.54
95.87
96.97
97.38
96.40
93.22
86.79
76.30
61.80
44.23
25.51
7.83
-7.21
-18.42
-25.62
-29.41
-30.90
-30.88
-29.92
-27.93
-24.49
-19.73
-13.77
-7.14
-0.62
4.80
8.60
10.29
9.84
7.70
4.00
-1.08
-7.08
-13.43
-19.27
-22.81
-22.68
-17.87
-8.12
5.52
20.81
35.43
47.29
55.15
59.60
61.62
62.65
64.08
66.53
69.31
71.53
72.51
68.49
59.60
45.89
27.00
2.73
-25.04
-55.98
-87.20
-114.44
-134.87
-148.72
-159.77
-173.16
-192.35
-212.95
-229.02
-233.14
-220.57
-192.60
-155.13
-114.49
-73.30
-30.32
16.13
63.28
103.85
129.75
139.14
134.91
126.56
125.45
138.44
163.58
190.92
203.70
194.98
166.24
125.69
83.50
46.53
16.24
-9.67
-34.34
-58.82
-80.31
-95.65
-102.79
-101.43
-93.32
-81.96
-69.93
-59.06
-49.84
-40.92
-31.70
-22.92
-16.39
-14.61
-19.15
-29.53
-43.04
-54.86
-58.87
-50.22
-27.19
8.24
50.55
93.01
129.12
153.71
163.93
159.60
142.81
116.97
86.39
55.17
24.79
-2.22
-25.64
-48.46
-75.80
-109.85
-147.56
-180.85
-200.70
-200.29
-178.32
-139.48
-92.49
-47.02
-10.51
14.75
30.04
38.10
44.28
54.87
74.47
103.40
136.82
166.84
184.87
184.11
154.67
95.65
15.41
-70.63
-144.12
-188.56
-193.02
-155.45
-83.49
7.13
92.30
148.63
164.82
144.83
100.92
45.88
-11.54
-67.00
-119.74
-168.51
-208.67
-234.49
-242.36
-232.66
-208.63
-174.75
-131.52
-84.33
-36.48
10.51
56.68
102.38
146.94
188.46
224.26
257.30
283.67
303.07
317.72
330.96
345.43
362.60
383.19
408.13
436.99
458.62
468.25
463.08
441.13
401.60
346.31
280.34
211.36
143.28
76.94
14.86
-40.08
-84.78
-117.29
-136.62
-143.20
-138.53
-131.67
-132.05
-142.89
-161.86
-183.87
-205.21
-225.05
-245.72
-270.54
-311.67
-379.05
-473.75
-587.96
-708.85
-824.08
-924.31
-1004.14
-1016.74
-935.59
-766.52
-547.76
-325.48
-130.38
26.45
146.11
228.99
287.34
320.36
325.04
302.87
261.48
210.97
158.92
111.50
71.26
45.92
34.48
33.39
38.65
47.85
60.71
77.41
97.46
119.51
142.70
160.96
169.56
167.89
159.30
149.30
142.71
142.24
148.49
161.11
175.73
188.07
196.29
199.63
198.59
193.65
184.86
171.79
154.44
131.79
103.06
70.74
37.74
7.01
-19.20
-39.68
-54.23
-63.23
-67.78
-68.95
-67.69
-65.02
-61.64
-58.02
-54.60
-51.70
-49.44
-47.73
-46.17
-44.25
-41.79
-38.86
-35.79
-33.21
-31.67
-31.30
-31.79
-32.34
-31.99
-30.28
-27.38
-24.09
-21.61
-20.92
-22.21
-24.85
-27.47
-28.64
-27.77
-25.13
-21.92
-19.56
-18.85
-19.73
-21.69
-24.28
-27.27
-30.20
-31.54
-28.29
-17.22
3.15
32.08
65.18
96.31
120.44
135.79
143.94
147.63
147.88
142.62
127.99
101.31
64.11
22.67
-14.50
-40.48
-53.00
-54.78
-51.41
-48.16
-47.59
-49.21
-50.84
-50.89
-49.34
-47.72
-47.83
-50.68
-55.92
-62.30
-68.28
-72.91
-76.45
-79.97
-84.85
-91.92
-101.24
-111.94
-122.61
-132.40
-139.77
-143.91
-144.62
-141.87
-135.57
-125.71
-112.44
-96.25
-78.07
-59.04
-40.38
-23.08
-7.71
5.48
16.24
24.11
28.59
29.21
26.08
20.12
13.15
7.79
5.98
8.77
15.88
26.05
37.29
47.60
55.30
59.10
58.61
54.89
50.97
51.66
62.04
84.67
117.70
155.43
189.89
214.35
226.99
227.72
218.79
202.79
180.59
151.40
114.41
70.02
20.66
-30.47
-77.89
-118.98
-151.99
-176.04
-190.68
-195.22
-188.76
-170.66
-141.25
-102.64
-58.87
-15.05
24.01
54.86
76.10
88.68
95.12
98.56
101.21
103.90
106.31
107.24
105.78
101.69
95.97
90.27
86.09
84.11
84.48
87.15
91.69
97.33
101.11
99.28
88.39
66.92
36.60
2.73
-27.70
-49.01
-58.53
-57.43
-49.06
-36.96
-23.55
-10.12
2.73
14.17
22.79
27.62
28.24
25.42
20.55
14.53
7.54
-1.16
-12.89
-28.95
-50.04
-75.53
-102.76
-126.99
-142.42
-144.09
-130.15
-103.56
-71.19
-41.10
-19.68
-9.29
-7.61
-10.31
-13.39
-14.95
-15.45
-16.37
-18.36
-20.98
-22.97
-23.12
-21.39
-18.72
-16.65
-16.52
-18.67
-22.40
-26.55
-30.03
-32.38
-34.11
-36.16
-39.69
-45.41
-53.10
-61.70
-69.73
-75.67
-78.44
-77.85
-73.86
-66.97
-57.81
-46.93
-34.81
-21.93
-8.87
3.64
14.81
24.00
30.79
35.06
37.11
37.40
36.55
35.07
33.31
31.43
29.48
27.43
25.27
23.06
20.78
18.57
16.51
14.65
12.99
11.46
9.98
8.40
6.57
4.19
1.05
-2.95
-7.96
-14.02
-21.10
-28.89
-37.07
-45.33
-53.40
-61.08
-68.18
-74.66
-80.51
-85.84
-90.43
-94.21
-97.29
-99.84
-102.16
-104.67
-107.89
-112.31
-118.40
-125.99
-134.78
-144.34
-154.03
-163.09
-170.74
-176.11
-178.10
-178.09
-176.08
-171.67
-164.40
-153.94
-140.26
-123.81
-105.49
-86.32
-67.08
-47.63
-27.38
-5.60
18.23
44.02
70.79
96.83
120.16
139.33
154.36
166.45
177.69
190.47
206.66
226.98
250.88
276.80
303.08
328.79
353.79
378.88
405.52
435.88
471.12
509.99
547.60
575.80
585.23
568.26
522.26
451.23
365.53
277.44
196.80
128.50
72.90
28.01
-8.56
-38.61
-63.75
-84.26
-100.84
-113.68
-121.46
-120.68
-107.15
-78.84
-37.49
11.63
64.07
115.94
164.19
205.27
234.60
246.63
235.67
199.18
128.30
28.24
-83.31
-183.19
-254.38
-291.95
-301.15
-291.86
-272.13
-246.40
-214.41
-175.82
-132.02
-86.63
-43.19
-2.34
33.99
64.12
85.58
96.99
96.13
79.93
44.92
-9.55
-79.17
-156.83
-233.11
-300.29
-355.00
-401.12
-441.38
-482.16
-526.87
-561.95
-572.10
-545.14
-479.37
-385.27
-280.67
-182.80
-103.03
-44.09
-2.65
25.06
42.83
55.00
67.04
84.32
109.27
138.29
162.92
173.98
165.39
138.21
100.43
62.55
32.54
13.08
1.46
-6.88
-14.96
-23.42
-30.39
-32.78
-27.70
-13.54
9.83
40.14
73.53
105.67
133.31
155.09
173.45
188.80
200.52
206.99
206.23
197.27
180.77
159.11
134.67
106.52
76.36
43.89
8.58
-28.93
-65.98
-98.67
-122.76
-136.13
-138.35
-130.96
-117.21
-100.38
-82.81
-65.35
-47.52
-27.83
-5.60
18.68
43.50
66.16
84.01
95.28
99.24
93.68
81.02
63.18
41.52
17.02
-9.69
-37.07
-62.28
-81.61
-92.00
-90.60
-77.23
-54.39
-26.50
0.83
23.19
38.30
46.37
48.79
47.91
45.31
42.26
40.90
43.51
51.77
65.34
80.79
92.23
94.88
87.15
72.44
57.86
50.10
50.56
56.00
60.04
55.79
40.67
16.58
-12.31
-41.89
-71.89
-105.35
-145.99
-190.68
-229.03
-245.57
-226.86
-169.94
-85.00
8.29
90.65
150.91
188.37
209.72
222.43
229.95
231.10
225.06
210.33
189.96
170.37
158.20
156.95
165.29
178.86
192.93
204.53
212.83
218.91
223.81
227.42
229.16
225.68
213.87
193.04
164.94
132.47
98.59
65.14
32.75
1.17
-33.62
-74.63
-121.93
-172.62
-222.77
-268.89
-308.64
-340.22
-362.28
-379.21
-394.61
-409.06
-420.32
-425.95
-425.40
-420.46
-413.68
-407.75
-411.89
-432.76
-470.97
-521.15
-575.54
-627.74
-674.21
-713.12
-700.50
-612.34
-455.46
-264.97
-79.82
77.66
202.62
299.24
374.79
434.99
477.42
500.90
509.18
509.30
508.61
512.35
520.26
529.52
534.12
523.97
493.52
444.88
384.53
320.64
259.81
204.39
155.21
108.06
55.70
-6.55
-68.96
-122.94
-162.31
-185.04
-195.65
-200.63
-211.92
-240.18
-289.19
-354.27
-427.64
-500.14
-563.04
-612.31
-611.51
-542.00
-413.36
-257.57
-105.86
23.82
120.04
195.45
256.97
306.90
339.80
351.36
339.03
306.67
256.65
194.94
130.73
70.86
21.61
-15.32
-37.81
-42.76
-27.84
4.27
45.86
87.86
120.96
140.90
146.46
139.99
125.94
109.58
94.63
82.91
75.90
73.37
74.73
77.34
77.08
69.07
49.84
18.69
-21.12
-62.98
-99.01
-123.28
-134.63
-136.43
-133.71
-129.54
-120.67
-104.56
-78.08
-41.83
-1.51
34.08
57.19
64.84
59.64
47.74
35.31
26.20
20.54
16.12
10.70
3.67
-3.77
-9.89
-13.76
-15.89
-17.32
-19.49
-23.02
-27.27
-30.86
-31.43
-27.47
-18.82
-6.87
6.29
18.66
29.17
38.04
46.52
56.07
67.37
79.88
92.04
102.06
108.54
111.04
110.24
107.39
104.00
101.25
100.24
101.77
105.81
110.79
113.28
108.75
93.24
65.39
27.23
-15.76
-56.60
-89.27
-110.56
-120.45
-121.26
-116.01
-107.40
-97.93
-89.80
-85.09
-85.39
-90.75
-99.03
-106.19
-107.81
-98.54
-77.43
-47.89
-16.48
9.44
24.54
27.36
20.46
8.90
-1.93
-8.51
-9.63
-5.97
0.78
8.90
17.18
25.01
32.14
38.38
43.14
45.89
46.33
44.67
41.64
38.29
35.59
34.19
34.15
34.81
35.36
35.15
34.05
32.49
31.14
30.43
30.22
29.61
27.14
21.47
11.86
-1.46
-17.55
-35.30
-54.08
-73.99
-95.93
-120.97
-149.58
-181.01
-212.70
-240.38
-258.61
-261.97
-246.35
-210.52
-156.82
-91.06
-21.53
43.13
96.01
133.67
156.24
166.60
168.38
164.54
156.84
146.43
135.12
125.65
121.02
123.01
131.26
143.53
157.16
170.51
183.02
194.27
202.08
202.11
189.24
160.24
115.95
61.50
3.98
-50.84
-100.29
-144.38
-183.22
-214.57
-233.38
-233.97
-213.06
-171.65
-115.17
-51.25
12.11
68.11
111.30
137.32
143.05
127.32
91.76
41.26
-16.16
-70.90
-113.39
-135.74
-133.39
-106.09
-58.34
1.65
63.87
119.24
161.02
185.37
190.55
175.99
142.42
92.62
32.48
-29.50
-83.60
-122.07
-141.23
-142.31
-130.66
-114.08
-100.97
-98.15
-109.07
-132.56
-163.04
-191.88
-209.96
-211.01
-193.75
-162.25
-123.56
-84.26
-47.98
-15.24
15.07
44.27
72.21
97.04
115.25
123.10
117.44
96.43
59.45
7.37
-56.30
-122.97
-178.58
-208.68
-205.57
-171.81
-116.92
-51.88
14.15
74.92
125.62
163.43
184.92
188.42
176.34
155.58
135.31
119.82
113.00
113.29
113.66
105.03
81.99
46.01
4.95
-30.85
-53.89
-61.56
-56.07
-42.78
-27.99
-16.11
-8.36
-2.70
4.88
18.43
40.95
72.14
108.49
143.75
170.91
184.12
179.74
156.67
116.20
62.47
1.73
-58.26
-110.23
-148.80
-171.69
-179.46
-174.46
-159.27
-134.90
-100.96
-56.80
-3.83
54.14
111.45
161.97
200.30
222.21
225.05
207.72
170.91
116.72
49.71
-23.37
-94.90
-158.23
-209.34
-247.29
-273.43
-283.37
-274.18
-246.15
-204.27
-156.16
-108.62
-65.27
-26.74
8.14
40.55
70.42
97.22
120.46
140.35
157.71
173.51
188.24
203.18
217.16
227.41
230.98
225.52
209.89
184.32
150.22
109.00
65.19
22.92
-15.08
-47.44
-73.84
-94.57
-110.15
-121.05
-127.41
-129.24
-127.05
-121.85
-115.13
-108.60
-103.83
-101.75
-102.31
-104.25
-105.79
-105.60
-103.32
-99.65
-96.07
-93.97
-94.13
-96.39
-99.98
-104.36
-109.34
-114.35
-117.69
-116.16
-106.39
-86.84
-59.34
-28.99
-2.61
14.59
21.39
20.69
16.70
13.07
9.94
4.76
-4.86
-18.42
-31.08
-34.80
-23.80
3.42
43.16
88.03
130.19
164.15
187.55
201.07
205.22
199.44
182.48
153.35
112.09
61.27
6.20
-46.29
-89.48
-119.48
-136.64
-144.29
-146.67
-146.33
-142.63
-131.16
-109.53
-77.39
-37.65
4.43
43.62
76.57
102.13
120.28
131.73
134.61
126.64
105.82
71.90
27.27
-22.52
-70.11
-108.52
-133.34
-145.64
-150.03
-152.96
-157.68
-163.59
-166.80
-162.28
-146.49
-119.20
-83.50
-43.58
-3.50
33.87
67.42
96.69
120.92
139.12
150.18
153.55
149.99
141.66
131.21
121.19
113.19
107.40
102.99
98.71
93.61
87.39
80.71
74.47
69.66
66.78
65.41
64.57
63.05
60.06
55.41
50.75
46.08
42.00
39.04
37.05
35.53
33.82
31.50
28.54
25.34
22.22
19.47
16.93
13.61
8.28
-0.02
-11.56
-25.54
-40.22
-53.60
-63.81
-69.64
-71.14
-69.03
-63.94
-56.26
-45.72
-31.69
-13.72
7.06
30.18
54.81
79.79
103.25
122.14
132.55
130.91
116.32
91.57
63.15
38.71
23.85
20.00
24.69
32.63
38.90
40.89
37.90
30.37
18.75
2.82
-17.63
-41.59
-66.87
-90.36
-109.37
-121.76
-128.96
-133.80
-139.46
-149.36
-162.59
-176.67
-188.19
-194.16
-193.42
-187.15
-177.59
-167.90
-160.92
-158.46
-160.83
-165.95
-169.54
-166.04
-150.72
-120.71
-77.85
-28.18
19.92
58.77
84.41
96.75
98.41
92.55
82.05
68.33
52.76
37.66
26.77
24.94
35.48
59.47
91.40
126.22
159.21
186.71
205.16
210.78
200.79
173.65
131.45
80.41
29.45
-13.75
-44.93
-63.14
-68.48
-59.49
-34.39
5.75
55.85
107.01
148.18
170.11
169.09
141.49
97.61
48.94
3.05
-37.78
-74.66
-109.30
-141.56
-169.08
-187.86
-193.21
-184.20
-163.65
-136.91
-109.63
-85.50
-65.63
-48.63
-31.30
-10.61
13.44
38.26
60.30
76.70
87.02
92.57
90.61
81.13
66.21
49.26
34.68
26.24
24.87
28.37
30.55
23.73
3.49
-28.07
-62.48
-87.61
-92.90
-74.33
-34.34
18.08
71.77
118.68
156.67
188.92
220.45
254.36
277.86
279.29
253.13
204.58
146.63
92.69
50.36
19.85
-3.86
-27.32
-52.52
-77.62
-98.30
-111.02
-114.01
-109.84
-103.97
-102.18
-108.99
-122.51
-136.68
-143.13
-135.06
-106.98
-60.22
-2.27
55.40
100.84
126.81
131.92
120.69
100.78
84.82
81.40
94.01
120.35
151.70
176.73
183.10
161.36
107.01
27.34
-68.03
-168.47
-265.43
-353.94
-431.55
-496.10
-530.24
-544.22
-527.35
-475.39
-391.23
-284.41
-168.58
-57.52
40.87
114.86
154.61
163.28
148.17
116.63
73.60
23.22
-28.62
-76.20
-112.62
-132.86
-131.67
-109.42
-71.12
-22.82
31.64
89.71
149.98
211.21
270.86
327.63
378.85
419.22
442.11
441.27
412.94
357.53
280.38
190.80
95.02
7.34
-57.71
-92.62
-100.13
-89.62
-71.03
-49.86
-29.20
-11.80
-0.25
1.68
-10.20
-35.68
-69.07
-99.87
-116.36
-109.87
-80.66
-38.01
3.00
29.53
36.64
27.43
10.21
-7.01
-20.35
-30.45
-39.69
-50.74
-64.51
-80.04
-96.02
-109.64
-118.19
-119.98
-114.07
-99.14
-74.07
-38.84
4.65
48.70
83.34
100.25
96.35
75.20
45.76
18.40
0.40
-6.62
-5.76
-1.81
1.97
4.98
8.32
13.37
20.63
29.33
37.83
44.92
50.05
54.12
58.73
64.94
72.18
78.91
82.96
82.12
74.79
60.06
39.33
15.53
-8.64
-31.31
-51.60
-69.75
-86.76
-101.97
-116.98
-134.58
-153.95
-173.98
-192.59
-206.00
-209.19
-197.05
-162.85
-111.10
-51.73
3.36
43.59
63.93
65.75
54.77
37.72
19.02
-0.75
-21.52
-42.60
-61.72
-75.68
-82.24
-81.15
-73.70
-61.30
-45.01
-23.86
4.21
38.40
75.69
111.94
143.84
170.16
191.35
207.21
216.19
214.35
197.25
163.28
116.00
63.93
17.44
-15.60
-33.04
-38.58
-39.50
-42.23
-49.03
-57.38
-62.16
-59.49
-49.02
-34.35
-20.90
-12.92
-11.55
-14.79
-18.88
-20.58
-17.67
-9.24
5.27
25.88
50.67
74.19
87.60
80.73
49.11
-3.23
-63.77
-116.55
-149.34
-159.05
-151.88
-139.37
-129.68
-125.08
-122.36
-115.83
-101.67
-80.20
-55.03
-30.39
-8.16
12.60
34.24
57.99
82.50
103.97
117.50
119.27
108.32
87.19
60.97
35.26
14.29
0.12
-7.81
-11.76
-14.19
-16.59
-18.79
-19.39
-16.77
-10.27
-0.16
11.74
22.80
30.85
34.85
35.35
34.11
33.32
34.51
38.81
45.90
54.67
64.08
73.80
84.66
98.65
118.76
143.74
174.32
211.03
253.22
298.12
340.55
373.66
390.85
388.08
365.45
327.85
282.37
235.86
192.86
154.98
121.73
91.95
64.97
40.78
20.15
3.28
-10.20
-20.85
-28.93
-34.20
-36.33
-35.26
-31.66
-26.56
-21.37
-17.32
-15.16
-14.95
-16.15
-17.96
-19.53
-20.12
-19.21
-16.76
-13.25
-9.51
-6.39
-4.34
-3.29
-2.80
-2.34
-1.60
-0.59
0.44
1.32
1.97
2.35
2.34
1.70
0.14
-2.37
-5.37
-8.08
-9.61
-9.38
-7.34
-4.00
-0.11
3.53
6.28
7.80
8.09
7.53
6.92
7.28
9.44
13.62
19.16
24.56
27.96
27.74
23.21
14.73
3.66
-8.12
-18.89
-27.57
-34.13
-39.53
-45.51
-53.93
-66.12
-82.27
-101.09
-120.04
-136.07
-146.50
-149.81
-146.19
-137.10
-124.80
-111.64
-99.43
-89.34
-82.11
-78.12
-77.07
-77.43
-76.35
-70.37
-57.21
-37.31
-14.28
6.58
20.63
26.45
26.38
25.25
27.76
36.21
50.05
66.87
84.18
100.64
115.94
129.80
141.03
147.47
146.70
137.34
119.48
94.83
66.04
35.85
6.32
-21.48
-47.53
-72.63
-97.64
-122.88
-147.53
-169.45
-185.81
-193.90
-192.47
-182.21
-166.18
-148.73
-134.10
-125.04
-121.81
-122.82
-125.49
-128.13
-130.79
-135.51
-145.34
-163.37
-191.80
-231.07
-279.37
-331.92
-380.91
-416.36
-428.78
-412.95
-371.42
-315.11
-260.07
-221.36
-206.66
-213.36
-230.34
-243.54
-242.54
-224.08
-192.04
-153.68
-115.85
-82.86
-56.58
-37.90
-27.58
-26.16
-32.42
-42.96
-52.53
-55.74
-48.80
-30.57
-2.87
29.93
61.88
86.83
99.94
99.27
86.33
65.70
43.20
23.81
10.51
4.09
4.39
11.05
23.95
42.58
65.21
88.85
109.85
125.04
132.63
132.53
125.80
113.99
98.90
82.48
66.52
52.21
39.81
28.94
19.19
10.81
4.80
2.65
5.52
13.38
24.47
35.55
42.82
43.10
34.95
18.47
-4.34
-30.12
-55.01
-75.75
-90.20
-97.12
-96.24
-87.97
-75.50
-62.83
-53.33
-48.80
-49.19
-52.77
-55.93
-55.49
-48.96
-39.71
-32.52
-30.39
-32.48
-35.24
-35.05
-29.10
-18.98
-8.08
-6.37
-20.20
-47.62
-78.89
-103.06
-115.69
-118.44
-119.79
-126.04
-146.31
-183.33
-233.24
-288.97
-345.38
-403.13
-462.79
-525.57
-534.07
-448.30
-268.01
-37.18
189.11
377.87
507.21
597.39
663.42
712.87
740.26
739.49
709.24
654.40
585.54
513.09
448.49
396.44
357.38
323.17
286.62
246.12
197.45
149.35
108.89
80.98
64.12
53.06
38.40
12.05
-18.94
-48.70
-70.00
-79.78
-77.59
-67.24
-55.98
-51.62
-58.79
-77.50
-105.91
-139.90
-177.40
-217.55
-242.37
-241.35
-214.50
-172.10
-126.53
-86.60
-54.11
-28.01
-6.03
13.46
28.40
37.62
41.15
41.04
39.16
37.68
37.42
38.68
41.28
42.43
40.63
35.35
27.79
19.43
11.81
5.56
0.75
-2.83
-7.23
-13.32
-21.73
-32.05
-43.63
-55.77
-68.00
-79.96
-91.05
-103.72
-115.72
-125.05
-129.62
-127.56
-117.61
-99.42
-73.56
-39.28
-0.64
39.25
77.42
111.60
140.13
162.23
177.69
186.84
190.65
189.98
186.67
182.08
177.19
172.58
168.67
165.68
163.62
162.59
162.05
161.79
160.96
158.87
153.35
142.61
125.32
100.96
70.26
34.59
-3.62
-41.70
-77.05
-107.41
-130.58
-144.68
-148.19
-140.12
-120.58
-91.06
-54.49
-15.31
20.97
49.30
65.74
68.29
56.95
33.66
1.83
-33.44
-66.65
-93.29
-110.32
-117.03
-114.36
-104.38
-89.57
-72.33
-53.76
-34.57
-16.20
-0.20
10.93
14.98
10.13
-4.84
-30.84
-66.61
-108.96
-154.20
-197.16
-234.19
-262.35
-280.77
-284.22
-271.41
-242.03
-190.27
-117.28
-29.74
59.29
137.94
199.33
243.20
272.85
293.06
306.95
313.79
318.83
319.24
314.22
305.45
296.19
288.50
282.62
276.58
257.26
221.86
171.64
112.87
53.52
0.63
-41.94
-73.35
-95.01
-109.76
-118.44
-122.73
-123.14
-120.02
-114.10
-106.80
-99.73
-94.10
-90.74
-88.30
-86.23
-83.70
-80.26
-76.01
-71.57
-67.80
-65.30
-64.35
-64.02
-63.88
-63.51
-62.75
-61.75
-60.81
-60.41
-60.87
-62.30
-64.22
-66.47
-68.95
-71.78
-75.12
-79.02
-83.61
-88.77
-94.17
-99.09
-102.76
-104.43
-103.45
-100.20
-93.84
-84.19
-71.43
-56.14
-39.13
-21.43
-4.08
11.87
25.62
36.70
44.72
49.60
51.46
50.65
47.60
42.80
36.74
29.96
22.98
16.03
9.31
2.86
-3.29
-9.28
-15.22
-21.28
-27.32
-33.19
-38.80
-44.00
-48.59
-52.42
-55.39
-57.48
-58.89
-59.62
-59.81
-59.86
-60.17
-61.17
-63.22
-66.54
-71.26
-77.36
-84.25
-91.35
-98.09
-103.88
-108.21
-110.46
-109.96
-105.83
-100.20
-93.93
-87.60
-81.63
-76.32
-71.92
-68.57
-66.39
-65.45
-65.88
-67.27
-69.36
-71.88
-74.63
-77.35
-79.85
-81.96
-83.51
-84.42
-84.27
-82.78
-79.76
-75.11
-68.79
-60.86
-51.50
-40.99
-29.76
-18.10
-6.41
4.82
15.11
24.03
31.30
36.71
40.28
42.12
42.58
42.04
40.83
39.23
37.35
35.23
32.71
29.57
25.53
20.40
14.08
6.61
-1.78
-10.69
-19.57
-27.77
-34.64
-39.59
-42.15
-42.05
-39.25
-33.94
-26.54
-17.62
-7.88
1.94
11.17
19.21
25.65
30.27
33.00
33.94
33.29
31.37
28.53
25.17
21.70
18.48
15.78
13.75
12.29
11.16
9.95
8.09
5.07
0.45
-5.95
-14.07
-23.59
-33.98
-44.57
-54.61
-63.43
-70.28
-74.43
-75.15
-71.72
-63.64
-50.68
-32.98
-11.10
13.99
41.12
69.11
96.79
123.06
146.86
167.18
183.11
194.03
199.67
200.56
197.81
192.94
187.56
182.83
179.20
176.32
173.42
169.61
164.69
159.03
153.76
150.56
151.38
158.43
173.82
198.92
233.37
274.74
318.04
356.85
385.50
400.98
403.94
397.80
386.77
373.96
361.96
352.11
345.43
343.15
346.14
354.02
364.72
374.97
381.70
385.93
389.93
395.68
403.52
411.51
417.02
418.50
416.77
414.77
420.29
439.44
474.73
524.31
582.52
642.22
696.51
739.82
768.30
785.08
793.91
798.05
799.23
796.96
790.20
778.53
762.52
710.27
602.56
432.14
208.40
-44.29
-296.15
-521.62
-705.50
-844.02
-941.43
-1000.68
-1026.67
-1025.57
-1001.66
-964.67
-923.78
-885.80
-855.45
-834.97
-820.57
-807.88
-793.50
-776.02
-756.77
-737.90
-718.06
-695.49
-668.12
-631.91
-584.79
-527.23
-462.01
-393.85
-327.50
-266.66
-214.21
-171.39
-136.86
-108.57
-84.88
-64.59
-47.23
-32.44
-19.38
-7.26
5.09
19.05
35.54
54.18
73.77
92.54
108.76
122.44
132.94
140.15
143.64
142.31
133.93
116.47
88.81
51.27
6.16
-41.81
-88.00
-129.00
-162.66
-187.66
-205.68
-215.86
-219.07
-217.33
-213.43
-209.11
-203.28
-191.96
-170.18
-135.43
-90.01
-42.51
-4.59
13.23
6.20
-22.64
-63.20
-101.47
-125.42
-129.06
-113.67
-85.51
-52.45
-20.28
7.96
30.81
46.99
54.66
53.49
46.26
38.93
39.11
52.81
82.24
122.27
163.33
195.33
211.82
213.05
204.05
192.25
183.92
181.49
183.08
184.20
180.16
163.62
135.92
100.60
61.36
20.92
-19.30
-58.63
-96.48
-131.86
-163.40
-188.95
-208.60
-222.30
-230.12
-231.78
-226.68
-213.91
-192.71
-163.00
-125.09
-80.99
-35.37
7.28
43.71
72.14
92.25
104.82
111.21
113.06
111.50
107.48
101.93
95.95
90.44
85.97
82.69
80.18
77.77
74.69
70.64
65.96
61.70
58.95
58.26
59.36
61.16
62.44
62.37
60.96
59.09
58.14
59.36
63.33
70.02
78.93
88.87
97.62
102.71
99.50
84.82
58.24
22.90
-15.15
-49.13
-74.07
-88.35
-93.77
-93.83
-91.69
-88.92
-85.69
-81.39
-75.81
-69.77
-64.79
-62.87
-65.47
-72.60
-81.64
-87.86
-86.16
-73.59
-51.93
-27.61
-9.45
-4.02
-12.70
-30.90
-50.95
-66.11
-72.81
-70.47
-59.03
-37.61
-5.37
35.59
78.18
111.19
124.05
112.87
83.59
50.86
31.29
36.24
67.27
116.90
173.24
225.65
268.95
299.76
318.23
326.84
328.99
327.77
325.44
322.89
319.17
312.31
299.64
279.45
251.43
216.68
177.26
135.70
94.42
55.43
20.43
-9.69
-35.11
-57.10
-77.69
-98.66
-120.67
-143.02
-163.95
-181.54
-194.73
-205.05
-215.18
-227.49
-242.62
-259.39
-275.62
-289.06
-297.80
-301.06
-301.96
-304.20
-309.96
-318.86
-329.21
-339.40
-348.12
-353.72
-354.06
-351.33
-348.02
-344.65
-338.75
-326.95
-307.35
-279.84
-245.48
-206.14
-170.92
-150.05
-151.24
-176.93
-225.74
-294.08
-376.13
-463.57
-509.97
-481.16
-373.22
-217.48
-55.73
84.05
192.84
273.63
333.35
378.19
406.02
413.59
401.62
377.08
349.72
327.85
316.04
315.06
323.26
333.01
337.00
331.80
320.01
305.68
292.05
280.12
268.89
256.46
238.12
210.20
171.98
128.20
84.68
46.27
15.80
-6.08
-20.00
-28.78
-35.28
-41.09
-46.21
-50.08
-52.16
-52.21
-50.67
-48.11
-45.57
-43.76
-42.81
-42.39
-42.12
-41.81
-41.33
-41.17
-41.88
-43.94
-47.42
-52.15
-57.57
-62.78
-68.07
-70.95
-69.74
-63.26
-50.88
-32.58
-9.20
17.65
45.63
71.86
93.53
108.15
113.81
109.69
96.29
75.82
50.79
24.22
-1.17
-24.55
-43.69
-57.05
-63.56
-62.57
-54.26
-39.52
-20.21
0.56
19.23
32.50
37.79
34.20
24.35
9.71
-7.41
-24.67
-40.60
-54.63
-66.72
-77.35
-87.14
-96.67
-106.48
-115.59
-121.29
-119.56
-106.73
-81.55
-46.76
-8.61
25.47
49.41
61.20
62.79
58.31
51.62
44.79
37.91
30.41
22.31
14.59
8.84
5.97
5.42
5.39
3.75
-1.02
-8.82
-18.14
-26.91
-33.34
-36.83
-38.45
-40.36
-44.93
-53.73
-66.90
-82.58
-98.12
-110.93
-119.28
-123.01
-122.36
-117.53
-108.37
-93.88
-72.70
-43.92
-7.66
34.80
81.10
128.00
171.65
207.20
229.22
233.25
217.81
186.02
145.21
105.16
73.35
53.44
44.49
42.52
43.21
43.96
44.37
45.12
46.65
48.28
48.72
46.95
42.95
38.04
34.01
32.41
33.69
37.18
41.51
45.35
48.06
49.61
50.77
52.47
55.20
58.68
61.84
63.45
62.12
57.06
48.19
36.23
22.12
6.82
-9.18
-25.97
-44.07
-63.97
-85.99
-109.89
-134.59
-158.46
-179.13
-194.12
-201.48
-200.22
-190.13
-171.84
-146.51
-114.42
-78.25
-40.03
-1.73
34.41
65.49
88.50
101.11
101.44
89.09
65.23
33.09
-3.61
-40.84
-75.25
-104.17
-125.51
-137.97
-140.85
-134.89
-120.37
-99.69
-73.90
-43.00
-6.16
35.54
77.89
114.37
137.82
143.81
132.02
107.15
76.65
47.58
24.14
7.15
-4.62
-13.31
-20.45
-27.13
-33.85
-41.01
-49.24
-58.66
-68.58
-76.85
-80.55
-76.77
-63.62
-42.13
-14.35
16.17
45.52
70.31
88.60
100.01
105.36
106.10
103.70
99.53
94.16
88.06
81.41
74.48
67.63
61.27
55.70
50.93
46.96
43.43
40.18
37.05
34.05
31.17
28.57
26.28
24.32
22.79
21.55
20.88
20.98
22.12
24.39
27.90
32.48
37.68
44.12
50.06
54.46
56.58
55.76
51.41
43.28
31.47
16.57
-0.28
-17.86
-34.54
-48.99
-60.31
-68.06
-72.53
-74.54
-75.26
-75.92
-77.73
-81.26
-86.84
-94.54
-103.84
-113.89
-123.52
-131.16
-135.25
-134.22
-126.82
-112.42
-92.06
-68.05
-43.84
-23.12
-8.78
-2.69
-5.07
-14.82
-29.11
-45.87
-63.95
-83.59
-105.12
-127.99
-150.94
-171.46
-186.75
-192.16
-185.15
-165.83
-136.74
-100.41
-57.70
-12.88
29.06
77.29
144.67
230.80
331.53
438.25
541.28
632.48
705.98
758.67
755.33
681.66
551.22
396.88
248.22
120.83
18.58
-60.55
-120.01
-163.08
-188.57
-197.22
-192.78
-181.87
-170.79
-163.39
-160.83
-162.41
-166.40
-167.56
-162.73
-152.22
-139.34
-128.24
-121.96
-121.87
-127.91
-138.64
-149.48
-156.43
-157.95
-154.04
-145.87
-134.85
-122.09
-108.05
-92.23
-72.21
-45.76
-13.12
24.01
62.29
97.51
125.69
144.37
153.42
155.47
156.30
158.50
163.90
172.71
183.29
192.28
195.59
189.33
170.90
139.97
99.37
56.31
20.64
1.88
5.18
28.90
64.38
98.90
120.75
123.60
109.12
85.01
60.49
41.69
30.27
24.45
22.10
23.29
30.35
46.00
69.84
100.19
129.29
148.01
149.85
134.10
105.91
73.72
45.56
25.82
14.36
7.46
1.14
-6.73
-15.84
-24.46
-31.12
-35.62
-39.15
-43.61
-50.68
-60.40
-71.24
-80.70
-86.40
-87.00
-83.08
-76.11
-67.58
-58.69
-49.73
-40.38
-29.99
-17.96
-4.17
10.50
25.06
38.91
51.90
64.14
75.73
86.64
96.61
105.03
110.00
110.27
105.95
98.28
88.43
77.08
64.32
50.00
33.85
12.55
-15.10
-46.81
-77.82
-104.16
-124.22
-138.47
-148.57
-156.58
-171.15
-196.76
-230.81
-265.78
-295.24
-317.05
-332.58
-344.84
-356.86
-381.55
-425.02
-482.07
-540.26
-589.17
-625.35
-650.82
-670.06
-687.47
-720.48
-778.36
-856.24
-938.95
-1011.54
-1064.05
-1089.78
-1084.40
-958.28
-686.07
-322.01
37.04
321.17
511.47
621.85
676.95
698.55
701.49
680.33
633.14
569.41
506.80
459.35
430.31
417.78
416.95
422.71
420.70
403.94
376.57
349.83
332.08
324.99
326.04
331.55
338.57
339.29
332.07
321.44
317.49
327.16
350.59
381.72
410.91
427.91
422.57
393.23
348.15
301.48
264.77
244.03
239.67
248.40
264.99
283.22
299.51
312.30
320.04
317.03
296.79
253.12
188.61
114.07
36.89
-40.90
-120.78
-197.88
-272.27
-344.00
-409.81
-465.44
-508.25
-537.62
-555.18
-564.11
-567.63
-570.40
-572.57
-567.97
-552.52
-528.50
-502.76
-482.54
-471.04
-465.49
-462.91
-458.74
-446.17
-424.14
-396.91
-368.42
-339.05
-305.18
-242.38
-143.36
-44.58
36.08
100.41
151.20
196.39
247.21
313.54
399.43
496.61
590.52
655.28
665.16
610.32
506.01
380.82
259.32
153.71
63.15
-16.74
-85.30
-141.23
-181.15
-202.58
-207.37
-201.46
-192.13
-186.65
-188.37
-194.37
-199.38
-198.19
-187.77
-169.03
-146.22
-124.33
-107.93
-99.14
-96.59
-97.04
-97.00
-94.38
-89.48
-84.54
-82.00
-83.51
-89.16
-97.43
-105.72
-111.25
-112.11
-107.77
-98.91
-86.61
-71.89
-55.42
-37.82
-19.58
-1.14
16.64
32.48
45.11
53.70
58.19
59.58
59.30
58.78
59.05
60.46
62.88
65.89
69.14
72.52
76.41
81.24
86.84
92.21
95.45
94.27
86.79
72.42
52.44
30.82
12.97
4.29
8.97
29.34
66.12
118.70
185.49
264.36
354.29
453.15
556.70
658.72
752.07
829.81
885.54
913.23
907.65
869.57
803.39
716.26
616.34
511.73
409.65
315.11
230.02
154.00
91.95
48.43
25.02
17.98
20.16
24.89
28.40
29.46
28.64
35.91
61.73
113.76
193.58
297.66
419.66
551.17
681.58
750.76
716.89
573.80
358.62
125.85
-83.44
-252.25
-381.20
-478.36
-552.45
-599.51
-618.65
-609.62
-577.09
-529.49
-475.26
-420.78
-371.11
-331.93
-302.87
-283.30
-272.56
-270.48
-275.69
-284.07
-289.95
-288.97
-281.30
-266.38
-245.14
-219.07
-191.33
-166.48
-148.85
-141.14
-143.81
-157.10
-178.52
-205.41
-235.78
-269.68
-308.96
-355.46
-409.01
-453.73
-472.60
-453.93
-398.78
-319.29
-230.65
-144.29
-66.28
1.60
59.18
105.15
137.73
156.12
161.62
158.05
150.69
143.95
141.18
144.01
151.56
161.42
171.43
180.40
188.45
196.36
203.91
210.02
212.90
210.00
198.85
178.53
149.74
115.12
78.68
44.10
14.09
-10.18
-29.18
-44.59
-53.69
-57.56
-58.57
-58.72
-59.46
-61.49
-65.01
-69.81
-75.11
-80.39
-85.39
-89.51
-91.62
-90.89
-86.85
-79.76
-69.86
-57.81
-44.66
-32.03
-21.27
-13.13
-8.08
-6.31
-8.11
-12.67
-19.69
-29.00
-40.95
-55.59
-73.08
-92.93
-114.37
-138.59
-162.38
-182.93
-197.70
-204.55
-202.08
-189.98
-168.34
-135.35
-94.87
-49.80
-3.26
41.93
83.36
118.95
146.99
166.54
177.46
179.93
176.67
168.84
157.19
142.20
123.86
101.82
76.03
47.04
15.95
-14.83
-43.46
-68.77
-90.21
-108.05
-122.96
-135.32
-145.30
-152.72
-156.90
-154.81
-144.34
-121.56
-82.71
-27.21
40.85
112.71
178.87
230.80
263.57
277.08
275.37
263.97
246.85
226.15
202.83
177.47
150.97
125.27
102.10
79.98
60.90
45.05
31.38
18.65
5.95
-7.85
-23.12
-40.04
-58.53
-77.59
-96.79
-116.06
-135.48
-155.01
-175.35
-195.20
-212.29
-223.52
-225.34
-215.23
-192.05
-156.04
-108.34
-54.87
-3.09
38.20
61.19
61.56
40.46
5.47
-30.92
-55.74
-60.04
-41.73
-6.54
35.05
72.33
98.26
111.10
113.54
109.78
103.17
95.51
86.86
77.04
66.58
57.26
50.93
48.68
50.03
52.94
55.27
55.04
51.49
45.14
37.95
32.42
31.27
36.29
47.62
64.18
83.19
102.24
117.98
129.12
135.56
138.54
138.88
135.69
126.95
109.81
82.61
46.07
2.98
-43.73
-91.84
-140.39
-187.96
-230.06
-258.54
-264.33
-242.37
-194.77
-135.25
-79.87
-39.65
-15.54
0.49
18.36
42.03
66.38
79.97
73.25
46.00
7.60
-27.93
-49.42
-53.88
-46.47
-35.67
-28.06
-24.69
-21.44
-13.15
3.01
25.74
50.61
72.03
85.55
88.69
81.40
66.46
48.33
32.17
22.06
18.90
20.18
20.49
14.28
-0.82
-22.55
-45.97
-66.08
-80.81
-91.55
-101.02
-110.08
-116.29
-115.10
-102.81
-79.96
-51.54
-24.54
-4.28
8.18
16.24
24.72
36.19
49.27
58.37
57.52
42.82
15.05
-20.17
-54.34
-80.01
-93.56
-95.64
-89.70
-78.62
-63.65
-44.25
-19.86
7.99
34.87
54.70
62.97
59.47
49.26
39.78
37.56
45.52
62.11
82.68
102.04
116.67
122.31
120.41
112.85
101.26
86.63
69.19
49.26
27.72
6.07
-13.84
-30.01
-41.62
-48.46
-50.85
-49.30
-43.99
-34.85
-21.83
-4.88
15.41
36.88
57.00
73.34
83.94
87.82
84.62
74.29
57.14
34.21
7.67
-18.59
-39.66
-52.27
-55.13
-50.61
-43.81
-39.79
-41.00
-46.79
-54.36
-60.97
-65.59
-68.29
-69.12
-66.96
-59.81
-47.34
-33.04
-24.20
-28.94
-51.46
-88.71
-129.25
-159.83
-170.31
-158.55
-130.39
-95.80
-63.84
-39.09
-21.36
-7.44
5.57
19.55
34.28
48.59
61.65
73.30
84.36
94.44
101.98
104.23
99.28
87.35
71.66
57.57
49.54
50.36
58.03
67.40
72.80
70.92
61.80
48.15
33.52
20.61
10.54
3.43
-0.74
-2.01
-0.86
1.11
1.23
-3.23
-13.93
-30.62
-51.01
-71.76
-89.75
-103.64
-113.34
-119.69
-123.00
-122.44
-115.58
-99.66
-72.73
-35.01
10.62
59.60
106.45
144.89
168.58
172.43
154.37
117.61
71.01
27.00
-2.67
-11.52
-1.16
20.29
43.15
60.51
71.21
78.55
86.89
96.16
103.53
103.12
87.79
55.38
10.50
-36.73
-72.30
-85.54
-73.56
-41.11
1.62
43.31
77.91
103.38
120.37
129.56
130.25
120.76
101.15
74.10
44.49
17.00
-6.18
-25.78
-43.87
-61.70
-78.38
-90.77
-95.08
-89.30
-74.71
-55.30
-35.33
-16.97
0.99
20.95
44.30
69.49
94.71
113.73
118.12
100.66
58.75
-4.27
-81.50
-165.32
-248.59
-323.78
-382.47
-415.52
-414.74
-375.35
-298.99
-196.56
-87.68
4.55
61.03
71.21
35.07
-38.21
-133.01
-222.26
-276.90
-280.40
-237.59
-167.94
-91.34
-19.63
43.64
99.51
149.98
195.38
233.97
261.78
276.15
277.43
267.89
249.95
225.27
188.97
142.24
89.77
39.24
0.24
-18.94
-15.16
7.74
40.86
74.24
100.65
116.43
122.11
121.51
118.66
114.76
107.68
94.00
72.46
45.85
19.10
-3.14
-18.78
-29.90
-42.02
-60.87
-88.81
-122.69
-155.70
-183.45
-202.55
-213.20
-217.94
-218.84
-215.95
-206.70
-187.45
-155.88
-109.82
-55.63
-1.11
45.38
80.05
100.90
108.70
106.45
98.40
88.26
78.47
70.22
63.37
57.28
50.74
42.63
31.69
16.68
-3.13
-25.35
-45.41
-57.20
-55.81
-40.57
-15.59
11.68
33.72
46.07
48.54
44.35
37.64
31.16
25.32
19.34
12.79
6.40
1.76
-0.48
-0.83
-1.54
-5.44
-14.86
-30.08
-49.05
-67.96
-82.55
-90.25
-89.33
-79.95
-63.64
-42.36
-17.68
9.37
37.85
66.14
91.62
110.90
120.57
118.46
104.67
81.91
55.04
29.60
10.54
1.32
3.67
17.00
38.18
61.85
80.02
85.44
74.42
48.95
16.06
-14.83
-35.68
-42.79
-37.37
-23.84
-6.66
11.51
30.12
49.10
67.47
83.03
93.00
95.80
90.35
77.37
59.04
38.00
16.81
-2.63
-18.76
-30.54
-36.88
-37.26
-31.89
-21.97
-9.92
1.32
8.76
10.03
3.48
-10.33
-29.69
-51.91
-73.81
-92.15
-103.83
-106.46
-99.04
-82.71
-58.97
-30.96
-2.62
23.90
45.18
58.57
62.12
54.42
33.69
0.44
-43.62
-94.82
-149.09
-203.73
-256.84
-306.03
-346.85
-381.23
-402.01
-402.64
-380.60
-339.14
-285.92
-229.87
-178.22
-132.40
-94.45
-63.76
-40.45
-25.48
-20.24
-25.36
-39.53
-59.67
-81.82
-102.81
-119.13
-129.15
-132.44
-128.89
-118.19
-99.76
-73.48
-39.98
-1.42
39.94
80.69
117.09
145.92
165.20
175.15
178.42
180.09
185.77
200.27
224.47
254.40
282.42
300.02
301.11
283.80
250.54
206.75
159.53
116.26
83.76
67.30
69.11
87.50
116.57
148.24
175.17
193.24
202.28
205.11
205.41
205.74
206.74
206.75
202.44
189.75
164.85
125.57
72.91
11.68
-51.11
-108.68
-157.33
-197.38
-230.89
-259.66
-282.72
-295.84
-293.46
-272.23
-233.64
-184.11
-132.44
-84.54
-43.05
-6.79
27.39
62.37
99.22
136.99
173.72
207.91
241.97
278.18
317.63
359.48
401.52
441.33
477.35
509.14
536.85
563.04
586.74
602.60
602.23
577.92
526.23
449.77
356.47
237.90
99.10
-45.72
-178.02
-283.18
-355.35
-396.58
-413.02
-411.93
-400.02
-380.28
-355.78
-329.86
-305.81
-285.60
-269.31
-255.70
-243.12
-229.99
-213.56
-192.70
-167.95
-141.14
-113.80
-86.49
-58.99
-31.00
-1.83
27.86
55.66
77.70
89.92
89.53
76.08
51.65
18.74
-16.79
-49.87
-77.44
-98.72
-114.64
-127.16
-138.43
-149.66
-160.07
-166.58
-164.61
-149.59
-119.51
-76.65
-28.13
15.44
43.32
48.01
27.49
-14.30
-68.53
-125.42
-175.70
-213.12
-235.51
-243.58
-239.64
-226.36
-205.95
-179.93
-149.85
-117.85
-84.92
-55.20
-31.06
-12.80
0.70
11.02
19.55
26.53
31.60
33.89
32.62
28.32
22.32
15.76
9.04
2.07
-4.85
-9.68
-8.71
1.83
24.03
56.02
91.36
121.94
141.08
146.25
140.02
128.18
116.48
108.53
104.64
102.44
99.46
94.56
88.26
81.39
74.87
69.10
63.97
59.49
56.12
54.78
55.88
58.09
58.20
52.88
40.18
22.35
5.78
-1.94
4.48
24.94
53.49
81.12
99.28
103.67
93.85
74.83
51.61
27.70
4.70
-16.55
-35.04
-49.50
-58.72
-62.25
-61.26
-58.54
-57.34
-60.04
-67.41
-78.84
-92.58
-106.82
-120.15
-131.86
-141.58
-148.56
-151.30
-147.88
-136.55
-116.51
-88.52
-54.99
-18.92
15.63
45.92
70.57
89.38
102.87
112.71
120.62
127.69
134.28
137.88
134.98
122.25
98.86
67.24
33.57
5.20
-12.51
-17.94
-13.86
-5.16
3.47
9.42
12.04
11.55
8.05
0.77
-10.90
-27.01
-45.96
-64.98
-80.81
-90.09
-91.19
-83.61
-68.24
-46.27
-19.96
8.69
37.56
64.67
88.22
106.35
117.53
120.54
115.37
102.07
81.66
55.32
25.50
-5.23
-34.34
-59.46
-79.28
-93.18
-101.78
-106.24
-108.06
-108.55
-109.03
-110.84
-114.82
-120.83
-127.05
-130.36
-127.27
-115.75
-97.36
-76.85
-60.59
-53.44
-56.69
-67.15
-78.99
-86.09
-84.20
-72.30
-51.59
-24.56
6.30
38.78
70.60
99.74
124.42
144.23
158.09
165.97
168.36
165.95
159.69
150.47
139.11
126.23
112.40
97.91
83.69
71.14
61.56
55.32
50.85
44.63
32.22
11.94
-14.64
-42.17
-63.69
-73.72
-70.43
-56.01
-34.97
-11.59
11.94
35.12
58.12
80.71
100.79
115.59
122.86
121.80
113.10
98.63
80.38
59.80
37.59
14.70
-8.20
-30.16
-49.73
-65.35
-75.73
-80.50
-80.21
-76.45
-71.23
-66.42
-63.12
-61.42
-60.63
-59.67
-57.71
-54.37
-50.42
-46.56
-43.86
-42.98
-43.83
-45.66
-47.29
-47.65
-46.38
-43.89
-41.30
-39.96
-40.79
-43.79
-48.05
-52.11
-54.74
-55.31
-54.19
-52.43
-51.27
-51.70
-54.34
-59.56
-67.11
-75.68
-82.37
-83.12
-74.17
-53.99
-24.78
7.86
36.89
56.64
65.11
64.03
57.56
49.44
41.64
34.13
26.07
17.02
7.46
-1.63
-10.02
-18.51
-29.10
-43.60
-62.77
-85.25
-108.08
-127.04
-138.10
-138.81
-128.76
-109.50
-83.55
-53.52
-21.27
12.33
46.13
79.29
110.28
136.91
156.80
168.49
171.89
168.46
161.57
153.77
147.38
143.75
143.27
145.32
148.11
148.52
142.23
125.93
98.62
63.20
25.73
-6.60
-28.32
-37.44
-35.50
-26.17
-12.49
3.88
22.70
43.44
64.17
81.11
90.27
89.17
77.82
58.60
34.54
8.67
-17.53
-43.52
-69.65
-96.26
-123.17
-149.82
-175.18
-197.63
-215.17
-224.39
-223.14
-211.47
-192.31
-170.95
-153.38
-142.79
-138.81
-137.67
-133.85
-123.16
-104.21
-78.38
-48.53
-17.32
13.06
41.62
67.61
89.95
107.11
117.96
122.26
120.89
116.30
110.37
104.75
100.27
96.87
93.84
90.56
86.91
83.09
79.66
77.00
75.24
74.28
74.03
74.53
76.24
79.83
85.82
93.96
103.45
112.06
117.83
119.20
115.43
106.78
93.98
78.24
60.98
43.77
27.89
13.83
0.42
-14.97
-35.13
-61.06
-90.62
-118.40
-137.77
-144.52
-138.12
-122.05
-101.82
-82.16
-65.24
-50.66
-36.62
-21.56
-5.43
11.20
27.77
44.24
60.99
78.46
95.91
111.58
122.90
127.22
122.78
109.41
88.61
62.88
35.83
10.29
-11.89
-29.95
-44.08
-54.86
-62.79
-68.13
-70.98
-71.19
-69.12
-65.50
-61.14
-57.18
-54.41
-53.11
-52.94
-53.20
-53.52
-54.14
-56.08
-60.28
-67.84
-79.16
-93.41
-108.94
-122.49
-130.87
-131.52
-123.28
-106.10
-81.18
-50.29
-15.21
22.16
59.91
95.69
126.61
149.31
161.04
160.04
146.52
122.50
90.83
54.46
16.14
-20.73
-52.41
-75.07
-86.79
-90.19
-88.91
-88.73
-93.29
-101.66
-108.01
-104.76
-86.06
-51.02
-3.93
48.35
98.61
141.69
174.68
196.05
204.44
198.91
179.65
148.83
110.43
70.00
32.31
-0.01
-26.33
-47.57
-65.00
-79.22
-90.05
-96.75
-99.01
-97.62
-94.35
-91.28
-90.17
-91.95
-96.48
-102.84
-109.20
-112.98
-111.22
-101.34
-82.26
-55.63
-26.05
0.73
19.39
27.18
24.58
14.58
0.29
-16.90
-37.82
-64.77
-97.97
-134.58
-168.38
-191.55
-197.37
-183.34
-152.14
-109.55
-64.40
-21.94
17.11
56.17
97.77
140.77
178.90
203.11
205.47
183.46
141.88
90.75
41.57
2.90
-21.62
-32.97
-34.27
-28.36
-16.07
3.21
29.45
60.94
93.66
122.92
144.98
158.69
164.80
164.77
159.35
148.07
130.67
108.08
83.44
60.82
43.72
30.93
18.90
3.74
-16.28
-39.14
-60.58
-76.93
-87.87
-96.97
-109.57
-128.64
-152.61
-175.45
-189.10
-187.23
-168.18
-135.22
-94.67
-54.12
-18.34
11.14
35.09
55.48
73.49
89.45
102.19
109.93
111.24
106.70
98.36
89.25
82.81
80.84
84.11
91.80
102.46
114.52
126.23
135.68
137.81
128.53
106.45
75.08
42.47
18.21
8.94
14.87
29.51
42.26
45.22
35.55
16.32
-6.41
-27.28
-43.84
-56.87
-68.10
-78.42
-86.39
-90.34
-89.26
-84.29
-78.23
-74.16
-74.50
-79.53
-87.74
-95.77
-100.54
-100.11
-94.37
-84.62
-73.17
-62.34
-53.39
-46.75
-41.85
-38.45
-36.20
-35.33
-36.16
-38.76
-42.47
-46.00
-47.65
-45.29
-37.87
-24.73
-6.30
15.91
39.76
63.10
83.61
99.08
108.42
110.85
106.71
97.13
83.78
68.56
53.41
39.52
27.22
16.67
7.57
-0.02
-5.80
-9.06
-9.05
-5.69
0.25
7.23
13.32
16.55
16.19
12.42
6.49
0.11
-5.66
-10.58
-15.10
-19.69
-24.82
-29.59
-32.33
-30.95
-23.82
-10.35
9.26
34.13
62.48
90.79
114.15
123.17
111.62
79.04
31.77
-18.90
-61.26
-87.55
-96.46
-92.18
-81.45
-69.42
-58.65
-49.77
-42.35
-36.41
-32.41
-30.71
-31.01
-32.38
-33.14
-31.99
-28.83
-24.22
-19.06
-14.12
-10.00
-6.98
-5.55
-5.83
-8.88
-16.12
-28.56
-46.80
-70.19
-96.34
-120.32
-135.10
-133.30
-110.45
-67.03
-8.02
58.09
122.24
176.93
217.96
244.29
256.37
254.11
236.83
206.01
164.39
115.86
63.64
10.44
-41.16
-88.54
-129.88
-165.05
-192.86
-214.47
-230.99
-243.04
-250.78
-252.06
-243.64
-224.19
-195.59
-157.60
-111.14
-51.71
23.14
112.11
210.13
309.70
403.96
465.54
478.93
443.75
374.68
291.31
209.42
137.51
77.84
29.28
-10.57
-40.28
-58.83
-66.53
-66.54
-63.43
-61.02
-62.01
-68.05
-80.32
-96.52
-114.21
-131.21
-147.08
-161.32
-172.36
-178.22
-177.40
-169.61
-153.92
-130.22
-99.35
-62.40
-23.03
15.51
50.73
80.77
104.67
123.05
136.11
142.71
140.10
125.10
96.76
57.86
14.69
-24.62
-52.68
-65.82
-64.69
-52.85
-34.78
-13.66
8.85
30.91
49.93
62.51
65.28
56.04
34.98
5.22
-27.78
-55.30
-70.20
-69.08
-53.69
-30.22
-6.82
9.80
16.97
16.59
12.80
9.09
6.69
4.51
0.73
-5.59
-13.81
-21.94
-27.72
-29.89
-28.61
-24.57
-18.69
-11.07
-1.52
10.14
23.52
37.46
50.16
59.49
64.00
63.37
58.68
52.15
46.66
44.69
47.12
52.58
57.53
58.20
52.35
40.68
26.47
14.05
6.48
3.96
3.83
1.70
-5.90
-20.49
-41.40
-66.73
-94.05
-120.79
-144.29
-159.04
-162.69
-154.77
-136.89
-112.26
-84.94
-58.61
-35.73
-17.48
-4.00
4.81
9.77
12.00
12.75
13.00
13.36
13.99
14.80
15.53
15.72
15.35
14.58
13.55
12.35
11.10
9.88
9.07
9.00
9.96
12.28
16.22
21.68
28.18
35.04
41.51
47.29
52.08
55.85
58.23
58.69
56.64
51.64
43.71
33.58
22.80
13.06
5.51
0.50
-2.79
-6.04
-11.05
-19.05
-31.01
-47.10
-66.59
-87.21
-104.89
-114.48
-111.27
-93.39
-63.36
-27.88
4.95
28.49
40.30
42.47
39.43
35.38
32.01
28.39
22.14
11.74
-2.71
-19.30
-35.47
-49.19
-59.88
-67.75
-73.61
-77.68
-79.09
-75.96
-66.05
-47.79
-21.58
9.83
41.71
69.92
92.61
110.80
126.35
139.74
148.66
148.21
134.57
108.35
75.30
43.88
21.35
9.76
6.15
5.71
6.15
9.47
19.07
35.59
54.58
67.34
65.94
48.98
23.46
1.85
-4.25
9.36
36.82
65.70
82.55
79.19
55.56
18.82
-21.07
-55.08
-78.39
-91.60
-97.80
-100.98
-102.49
-101.23
-94.79
-82.49
-65.82
-47.80
-31.78
-19.30
-11.30
-5.78
0.73
11.57
28.17
49.74
74.04
97.89
119.64
136.24
146.68
151.49
152.13
150.10
146.50
142.23
135.68
124.79
102.96
65.48
11.44
-55.30
-127.84
-198.81
-261.96
-317.12
-341.12
-323.15
-263.55
-173.23
-67.43
39.50
130.63
206.20
266.01
310.47
336.83
345.40
337.04
314.51
280.30
235.68
181.94
118.90
48.33
-29.54
-110.10
-185.23
-245.92
-286.29
-305.63
-307.42
-299.93
-291.85
-293.05
-306.68
-328.81
-351.65
-368.29
-375.36
-372.74
-363.95
-353.10
-345.96
-342.37
-336.34
-319.27
-284.44
-228.75
-153.22
-63.58
45.48
157.94
248.81
302.12
319.80
313.46
294.48
269.10
239.24
205.43
167.36
129.35
97.37
76.95
69.16
71.77
81.02
92.98
104.19
109.94
107.89
98.20
83.14
65.10
49.02
40.48
42.57
54.22
69.96
84.77
95.93
104.18
109.01
108.89
101.87
86.94
65.69
41.29
18.73
2.81
-1.98
4.02
16.18
26.89
28.67
17.92
-3.98
-30.88
-53.75
-64.00
-57.47
-35.38
-4.17
26.31
45.72
45.24
20.36
-26.63
-85.65
-141.82
-180.43
-192.24
-176.17
-138.18
-88.90
-39.67
0.37
25.14
30.58
13.57
-26.98
-88.16
-155.13
-205.60
-221.03
-198.76
-151.13
-95.23
-44.43
-4.96
22.84
42.80
58.33
70.83
80.19
86.93
92.71
99.07
107.72
116.76
123.39
124.33
117.87
105.38
91.85
83.58
82.43
87.84
94.55
96.89
91.13
75.85
51.01
17.25
-23.91
-68.94
-110.88
-142.45
-155.57
-145.80
-115.99
-75.64
-36.23
-5.92
13.03
24.01
32.06
41.46
53.95
67.88
79.83
87.23
90.25
91.47
94.45
101.91
112.42
124.91
137.24
145.69
145.62
132.98
105.11
61.25
2.93
-65.37
-134.15
-187.58
-212.38
-206.55
-178.46
-139.53
-98.63
-60.55
-26.98
2.50
27.84
48.38
63.32
73.34
80.55
87.05
93.95
100.95
108.10
113.10
113.65
107.86
95.42
77.48
55.97
33.12
11.25
-7.07
-20.45
-28.24
-31.07
-30.53
-28.99
-29.13
-33.63
-45.33
-62.77
-86.67
-117.12
-152.58
-189.14
-221.03
-242.01
-247.18
-235.04
-207.43
-168.93
-123.41
-74.03
-24.37
19.87
50.95
61.71
48.55
14.44
-31.78
-76.04
-105.22
-112.74
-100.50
-76.23
-49.44
-28.44
-18.72
-22.55
-35.97
-50.99
-59.30
-55.69
-39.73
-15.99
6.92
20.18
19.20
9.73
4.86
17.56
54.17
112.83
185.84
262.89
334.92
380.22
381.79
341.49
278.96
214.09
155.75
104.67
59.38
19.79
-12.76
-34.63
-43.55
-41.85
-36.14
-33.39
-37.07
-46.97
-60.75
-75.60
-87.86
-94.64
-95.94
-94.07
-91.43
-88.92
-84.88
-77.85
-67.48
-53.44
-35.79
-16.04
3.85
22.27
39.32
56.44
74.96
95.89
119.65
145.05
167.28
179.84
177.58
160.33
134.38
110.15
98.76
107.57
136.61
177.05
216.19
242.50
250.42
241.21
218.42
184.85
141.73
87.56
21.34
-52.73
-125.21
-185.12
-224.52
-243.21
-245.60
-234.36
-212.10
-182.21
-147.72
-113.05
-84.10
-65.69
-61.93
-71.85
-85.33
-93.40
-93.73
-88.19
-81.95
-80.35
-86.01
-101.60
-126.83
-154.03
-179.54
-206.83
-240.17
-281.76
-328.90
-350.92
-323.39
-275.85
-223.52
-161.41
-95.32
-32.74
20.11
59.60
83.99
88.10
72.49
44.27
11.79
-17.52
-34.30
-31.20
-6.28
35.71
81.86
118.86
142.24
152.27
151.19
144.02
135.40
128.01
122.42
116.37
108.24
100.34
94.60
90.68
88.08
86.04
84.16
82.32
79.70
75.74
71.72
68.50
65.85
63.52
60.89
57.92
54.97
52.47
50.80
49.78
47.00
37.71
17.03
-17.63
-64.21
-115.53
-161.86
-194.08
-206.96
-200.26
-177.92
-143.23
-102.63
-59.85
-16.92
24.34
61.40
91.36
111.92
121.99
122.13
113.51
98.51
79.23
57.06
32.90
7.40
-18.68
-44.64
-69.04
-90.49
-107.16
-117.50
-120.56
-116.20
-104.96
-86.38
-63.59
-39.38
-15.94
5.97
26.43
46.08
65.30
83.80
100.79
113.79
120.40
118.61
107.61
87.49
59.55
26.66
-6.67
-34.62
-51.65
-55.20
-47.30
-33.78
-22.19
-18.32
-23.68
-35.72
-49.82
-62.41
-72.11
-80.50
-88.40
-94.88
-96.82
-89.56
-69.03
-33.68
14.16
68.42
120.12
159.85
180.10
177.69
155.19
120.47
84.29
56.88
44.86
49.56
67.25
90.72
111.96
124.84
126.26
116.06
96.55
71.15
43.83
17.44
-5.10
-24.62
-42.55
-59.69
-73.82
-81.12
-77.55
-60.23
-29.68
9.83
51.39
88.46
118.59
140.23
152.01
151.73
137.83
110.33
71.83
26.99
-18.19
-58.39
-90.92
-112.37
-122.65
-123.20
-116.23
-104.35
-90.50
-78.14
-71.33
-74.44
-85.51
-103.41
-126.66
-153.66
-181.89
-206.65
-221.02
-217.80
-192.84
-147.10
-88.53
-28.53
22.44
58.38
79.09
88.48
91.74
92.17
90.89
86.72
78.90
68.77
59.69
55.73
59.24
69.27
80.69
85.54
75.83
47.38
2.11
-52.53
-106.22
-149.30
-175.30
-182.06
-170.90
-145.46
-110.75
-72.31
-35.78
-6.07
13.61
22.47
21.45
12.48
-2.20
-20.93
-41.66
-61.91
-78.73
-89.95
-93.01
-86.59
-70.61
-46.39
-17.23
12.08
36.20
51.21
56.17
54.45
51.68
52.89
60.07
71.38
82.89
91.07
94.64
95.04
94.92
95.87
97.60
98.35
96.22
90.59
82.53
74.11
67.85
65.50
67.50
72.64
79.04
84.80
88.77
90.91
92.08
93.48
96.09
99.23
101.07
99.07
90.84
74.94
51.25
20.79
-14.84
-53.50
-92.08
-126.45
-151.47
-162.34
-156.80
-136.63
-107.65
-77.70
-53.93
-39.65
-34.45
-35.24
-38.52
-42.23
-46.05
-50.44
-55.39
-60.02
-63.22
-64.55
-64.80
-65.64
-68.86
-75.37
-84.30
-93.32
-99.58
-100.94
-96.76
-88.30
-77.42
-66.38
-56.68
-48.64
-41.56
-34.42
-26.71
-18.84
-11.72
-5.99
-1.59
2.79
9.48
20.77
38.25
62.33
91.69
124.35
157.07
185.01
202.29
203.78
187.14
154.72
113.37
72.11
38.73
17.22
6.95
4.27
5.23
7.34
10.00
13.62
17.75
20.94
21.40
18.16
11.69
3.82
-3.63
-9.55
-14.29
-19.52
-26.87
-37.03
-48.95
-60.06
-67.33
-68.52
-62.99
-51.90
-37.90
-24.11
-13.56
-8.49
-9.75
-16.15
-24.61
-30.43
-29.03
-18.30
0.13
21.13
38.23
46.39
44.46
35.01
22.78
12.28
5.57
2.40
1.37
1.02
1.05
1.99
4.23
7.32
10.09
11.04
9.42
5.86
1.73
-1.07
-0.86
3.31
11.13
21.42
32.33
42.50
51.33
58.55
64.26
68.62
71.66
72.91
71.61
66.91
56.74
42.06
24.08
4.05
-16.94
-38.03
-58.84
-79.30
-99.51
-119.26
-138.06
-155.22
-169.64
-180.75
-187.03
-187.31
-180.71
-166.83
-145.75
-118.22
-85.46
-48.89
-10.84
26.93
62.65
95.02
123.08
147.91
168.27
182.74
190.01
188.83
178.68
159.23
130.94
95.08
53.71
9.31
-35.00
-75.80
-109.90
-134.40
-147.29
-147.47
-135.01
-111.13
-78.71
-42.02
-5.60
26.60
51.93
69.36
79.64
84.64
86.46
86.84
86.50
85.17
81.94
76.13
67.98
59.02
51.59
47.63
47.95
51.63
56.23
58.88
57.49
51.78
43.61
36.02
31.75
32.50
38.32
47.82
58.39
66.26
66.81
55.82
31.44
-3.71
-41.46
-70.10
-78.63
-61.96
-24.14
22.70
63.11
85.47
84.78
64.03
31.37
-4.29
-36.80
-63.70
-85.01
-101.41
-112.68
-118.08
-117.32
-111.57
-103.30
-95.38
-89.74
-85.78
-82.09
-76.01
-65.16
-48.54
-27.70
-5.58
13.57
26.24
31.30
30.81
29.61
33.03
44.31
62.80
84.24
102.29
112.38
112.94
105.31
92.21
75.96
57.60
37.66
17.01
-2.74
-19.17
-30.71
-37.54
-41.37
-44.72
-49.23
-55.20
-61.24
-65.30
-65.43
-60.74
-51.54
-39.39
-26.85
-16.26
-9.20
-5.43
-2.93
1.26
9.67
23.38
41.41
60.71
78.09
91.02
99.00
103.39
106.54
110.59
116.84
125.05
132.36
135.87
133.56
125.85
115.14
104.49
96.33
91.57
89.18
83.67
73.43
57.29
36.19
11.92
-13.77
-38.85
-60.18
-73.78
-80.53
-82.80
-83.79
-86.02
-91.78
-103.07
-120.92
-145.11
-175.13
-216.53
-274.04
-347.33
-429.39
-509.77
-579.17
-632.20
-667.94
-655.70
-582.60
-459.97
-316.71
-179.07
-58.62
44.66
134.35
212.31
276.62
321.54
340.92
334.04
307.21
270.04
231.50
198.08
173.19
163.48
168.97
183.30
195.85
195.79
176.10
137.04
87.35
41.93
15.26
11.76
26.17
48.22
68.45
82.18
90.54
97.68
107.06
117.73
122.13
111.18
80.62
34.21
-17.63
-62.48
-91.42
-102.20
-99.13
-91.15
-86.52
-88.76
-95.77
-103.59
-106.14
-101.03
-89.79
-76.27
-64.52
-56.69
-52.23
-48.37
-41.90
-30.55
-14.54
3.64
20.47
32.93
40.04
43.26
45.63
50.18
58.42
69.37
79.95
86.85
88.48
85.77
81.40
78.13
77.10
77.54
77.30
73.65
65.03
51.84
36.23
21.12
9.17
1.70
-1.37
-1.32
-0.96
-3.71
-12.35
-28.27
-51.22
-79.59
-110.88
-142.18
-165.58
-173.89
-163.84
-137.50
-100.83
-60.25
-20.53
15.51
46.34
71.56
90.83
104.05
112.20
117.14
121.05
125.76
132.29
140.52
149.61
158.66
164.85
165.96
160.75
149.00
131.08
107.67
79.56
47.93
15.14
-17.05
-47.02
-73.40
-95.05
-111.39
-122.42
-128.77
-131.27
-131.33
-130.63
-130.41
-131.38
-133.46
-139.02
-145.90
-151.86
-154.48
-151.93
-142.96
-126.79
-103.23
-72.62
-32.77
12.51
59.29
104.43
145.09
178.75
204.35
220.54
226.25
220.81
204.25
177.77
143.85
105.24
65.91
29.14
-3.15
-30.04
-51.91
-69.69
-84.09
-94.96
-102.34
-106.36
-107.18
-105.85
-103.78
-102.92
-104.60
-111.38
-119.87
-126.43
-127.45
-120.00
-103.15
-78.18
-48.97
-20.17
3.63
19.61
26.47
24.59
17.17
8.31
4.53
8.20
18.46
30.32
36.10
27.84
-0.39
-45.21
-97.83
-146.05
-179.23
-191.19
-181.43
-153.71
-109.04
-55.03
3.13
61.80
118.55
169.63
211.01
239.35
254.02
257.05
251.58
244.20
236.78
228.71
216.78
196.95
166.17
124.13
73.14
17.00
-38.18
-88.24
-130.32
-162.58
-183.16
-190.50
-183.98
-165.57
-139.93
-112.28
-87.49
-67.51
-51.70
-38.44
-28.54
-22.65
-22.89
-30.15
-41.61
-51.66
-53.55
-43.01
-20.82
7.19
32.63
47.90
49.54
40.03
25.97
15.39
14.22
23.89
41.28
60.31
74.62
78.20
69.50
50.78
26.57
0.86
-24.31
-48.39
-70.92
-90.80
-106.04
-114.21
-114.45
-108.07
-98.34
-89.30
-84.15
-84.24
-89.34
-98.07
-108.30
-118.63
-128.62
-138.59
-148.81
-159.60
-168.80
-173.48
-170.66
-157.90
-134.19
-100.18
-58.01
-10.87
37.28
82.75
122.74
155.51
180.34
197.11
206.26
208.63
205.25
197.40
186.67
174.39
161.66
149.27
137.55
126.65
116.47
106.80
97.46
88.50
79.93
71.85
64.31
57.28
50.76
44.64
38.86
33.39
28.27
23.47
19.04
15.02
11.40
8.15
5.21
2.51
0.04
-1.71
-3.14
-4.36
-5.37
-6.21
-6.87
-7.37
-7.75
-8.01
-8.19
-8.34
-8.40
-8.33
-8.11
-7.72
-7.16
-6.46
-5.65
-4.83
-4.07
-3.36
-2.65
-1.94
-1.17
-0.30
0.66
1.72
2.75
3.73
4.69
5.66
6.63
7.69
8.89
10.26
11.81
13.47
15.35
17.70
20.85
25.09
30.62
37.43
45.08
53.22
60.40
65.35
67.06
64.88
58.68
48.79
35.82
20.53
3.72
-13.76
-30.89
-46.46
-59.04
-67.20
-69.80
-66.42
-57.53
-44.41
-28.93
-13.14
1.52
14.36
25.29
34.81
43.48
51.85
60.23
68.13
74.04
75.67
70.52
56.83
34.82
7.13
-21.62
-46.10
-62.19
-68.21
-64.87
-54.70
-40.92
-26.44
-13.28
-2.72
4.41
7.06
4.43
-3.05
-13.55
-24.35
-32.45
-35.65
-33.10
-25.37
-15.24
-5.98
0.53
4.30
6.49
8.52
10.99
13.10
12.54
7.23
-5.66
-26.48
-52.50
-79.13
-101.73
-116.80
-122.94
-120.79
-114.48
-108.84
-107.29
-111.43
-122.19
-140.03
-163.70
-189.29
-198.27
-177.20
-125.79
-57.64
9.33
61.43
92.94
105.88
106.82
103.11
97.60
90.12
79.87
68.05
57.39
50.52
50.62
58.91
74.58
93.78
112.75
129.96
146.83
165.20
185.66
206.91
225.49
237.33
238.40
227.01
202.30
168.31
130.30
92.99
59.23
29.22
1.28
-27.32
-58.34
-91.56
-124.45
-154.49
-179.12
-196.55
-206.88
-211.71
-213.60
-214.70
-216.41
-219.05
-223.30
-227.41
-227.48
-219.53
-201.57
-175.21
-145.66
-120.78
-108.27
-113.63
-134.62
-161.56
-181.70
-184.54
-165.45
-126.59
-75.58
-13.94
46.06
90.70
114.47
121.40
118.80
110.70
98.38
83.80
71.06
65.43
72.93
97.18
136.55
183.72
228.01
259.24
270.69
260.87
232.87
194.58
155.24
121.91
97.59
81.76
71.99
65.42
59.93
54.34
48.91
43.75
38.39
31.86
23.63
13.89
3.30
-7.51
-18.00
-28.16
-39.59
-54.64
-75.36
-102.62
-136.25
-175.14
-217.53
-260.04
-288.03
-287.86
-254.63
-195.89
-125.65
-56.32
4.50
51.11
85.39
108.14
118.89
118.63
111.57
104.77
104.64
115.68
138.03
168.71
202.45
233.25
255.89
266.18
261.18
239.27
201.03
149.60
90.99
31.83
-22.81
-69.91
-107.81
-134.68
-148.24
-146.45
-129.56
-100.93
-67.39
-37.51
-18.54
-14.36
-24.58
-45.66
-72.30
-99.63
-124.07
-144.15
-160.31
-174.27
-188.38
-204.53
-223.48
-244.14
-263.89
-279.40
-288.12
-289.35
-284.26
-274.82
-262.14
-245.31
-221.65
-188.51
-145.27
-94.42
-40.79
10.44
56.18
96.43
133.27
168.76
203.02
233.74
257.40
271.00
273.78
267.30
254.47
237.99
219.25
198.30
174.68
148.75
122.01
96.94
75.82
59.78
48.58
41.30
37.49
37.84
43.94
56.73
75.13
95.32
111.73
119.38
116.58
105.70
92.03
81.05
75.58
74.75
75.10
72.97
66.86
58.08
49.63
44.16
42.46
43.03
43.05
39.70
30.98
15.97
-5.77
-34.58
-70.52
-112.44
-157.20
-199.55
-233.17
-252.64
-255.24
-241.98
-217.14
-186.73
-156.39
-130.18
-109.96
-95.91
-86.98
-81.20
-75.50
-65.82
-47.97
-19.24
19.91
65.29
110.02
146.94
171.32
182.18
181.87
174.12
162.02
146.97
129.22
109.08
87.84
67.90
51.68
40.38
33.38
28.68
23.93
17.59
9.58
1.07
-6.19
-10.80
-12.17
-10.65
-7.07
-2.43
2.42
7.09
11.33
14.88
17.14
17.19
14.18
7.75
-1.68
-12.93
-24.26
-33.81
-40.10
-42.43
-41.18
-37.66
-33.65
-30.75
-29.77
-30.59
-32.44
-34.25
-34.92
-33.70
-30.24
-24.43
-16.67
-7.88
0.47
6.52
8.93
7.79
4.81
2.73
3.76
8.34
14.86
20.71
23.70
23.01
19.15
12.97
4.67
-6.44
-21.13
-38.99
-57.59
-73.00
-81.49
-81.12
-72.39
-57.76
-40.22
-22.26
-5.35
9.60
21.75
30.19
33.98
32.70
26.56
16.51
3.99
-9.33
-21.83
-31.86
-37.72
-37.91
-31.73
-19.70
-3.65
13.49
28.53
38.72
42.52
40.05
33.17
25.02
19.20
18.67
24.42
34.76
45.53
51.42
48.20
34.57
13.03
-10.98
-31.20
-43.02
-45.17
-39.56
-29.87
-19.69
-11.23
-5.21
-1.53
-0.09
-0.90
-3.68
-7.54
-11.12
-13.26
-13.92
-14.33
-16.42
-21.89
-31.04
-42.70
-54.82
-65.40
-73.03
-76.75
-75.86
-69.79
-58.74
-43.95
-27.79
-12.91
-1.21
6.82
12.21
16.59
21.01
25.34
28.31
28.46
25.05
18.72
11.21
4.61
0.65
0.19
3.01
8.02
13.59
17.97
19.61
17.36
10.93
0.99
-10.76
-22.03
-30.71
-35.61
-36.69
-34.71
-30.68
-25.22
-18.69
-11.44
-4.06
2.77
8.61
13.73
19.04
25.38
32.76
39.85
44.55
45.09
41.15
33.89
25.31
17.14
10.14
4.37
-0.25
-3.21
-3.65
-1.06
3.98
9.49
12.81
11.58
4.85
-6.66
-21.02
-35.91
-49.45
-60.18
-66.97
-68.71
-64.39
-53.64
-37.39
-18.17
0.53
15.14
23.40
24.87
21.03
14.27
7.05
1.34
-1.45
-0.25
5.50
15.69
29.02
42.99
54.29
59.95
58.43
50.32
38.13
25.01
13.59
5.24
0.15
-1.93
-1.20
2.36
8.51
16.30
24.05
30.01
33.15
33.82
33.57
34.26
36.99
41.33
45.51
47.13
44.48
37.24
26.82
15.89
7.30
3.12
3.76
8.06
13.87
18.97
21.75
21.49
18.09
11.86
3.38
-6.49
-16.43
-24.90
-30.41
-32.17
-30.11
-24.79
-17.11
-7.84
2.30
12.71
22.81
32.13
40.42
47.56
53.36
57.24
58.60
56.95
52.50
45.92
37.82
28.04
15.46
-1.56
-24.17
-52.18
-84.21
-118.62
-154.76
-192.88
-233.04
-272.87
-306.44
-325.35
-321.57
-291.03
-235.56
-162.46
-81.99
-4.26
62.89
114.63
148.47
163.75
161.38
144.24
117.23
86.50
58.04
35.95
21.80
14.86
13.23
14.89
18.47
23.38
29.41
36.48
44.21
51.99
58.94
64.46
68.15
69.89
69.81
67.98
64.47
59.26
52.60
44.95
37.11
30.06
24.38
19.97
15.73
9.94
0.88
-12.38
-29.70
-49.66
-70.14
-88.86
-103.93
-114.31
-119.64
-120.02
-115.55
-106.22
-92.29
-74.76
-55.62
-37.49
-22.83
-13.02
-7.76
-5.07
-2.19
3.17
11.99
23.72
37.31
51.95
67.35
83.42
99.18
112.54
120.66
121.15
113.53
99.89
84.20
70.58
61.18
55.45
50.98
45.51
38.45
31.10
25.49
22.65
21.76
20.41
16.20
8.19
-2.33
-12.58
-19.81
-22.56
-21.18
-17.20
-12.31
-7.73
-3.98
-1.18
0.54
1.00
-0.31
-3.87
-9.76
-17.31
-24.94
-30.95
-34.20
-34.74
-33.76
-33.09
-34.35
-38.41
-45.21
-54.17
-64.48
-75.16
-84.82
-91.75
-93.85
-89.36
-77.34
-58.25
-33.80
-6.71
19.82
42.64
59.30
68.59
70.76
67.32
60.03
50.44
39.48
28.10
17.79
10.78
9.35
14.73
26.14
40.54
53.85
62.26
63.98
59.26
50.21
39.51
29.54
21.94
17.35
15.50
15.34
15.48
14.76
12.58
9.01
4.32
-1.28
-8.08
-16.29
-25.75
-35.35
-43.03
-46.34
-43.32
-33.34
-17.45
1.70
20.85
37.11
48.73
55.73
59.47
62.00
64.70
67.53
68.55
64.86
53.76
33.81
5.43
-29.40
-67.65
-105.80
-140.13
-167.34
-185.12
-192.56
-190.21
-179.26
-161.28
-137.72
-110.34
-81.21
-52.90
-27.78
-7.49
7.60
18.32
25.84
30.95
33.80
34.48
33.64
32.87
34.20
38.79
46.32
54.89
62.07
66.03
66.09
62.55
56.06
47.09
35.64
21.90
6.73
-8.03
-20.12
-27.77
-30.34
-28.45
-23.28
-16.21
-8.27
-0.40
6.35
11.00
12.83
11.88
9.02
5.73
3.49
3.36
5.52
9.36
14.09
18.94
23.45
27.37
30.70
33.67
36.69
40.12
43.84
47.16
48.87
47.61
42.20
32.12
17.75
0.54
-17.05
-32.18
-41.99
-44.38
-38.20
-23.74
-2.81
21.60
45.74
65.99
79.53
84.71
81.24
70.18
53.74
34.99
17.30
3.64
-4.14
-5.77
-2.39
4.07
11.67
19.04
25.45
30.41
33.18
32.63
27.60
17.58
3.33
-12.98
-28.28
-39.75
-45.66
-45.91
-41.69
-34.68
-26.51
-18.38
-11.42
-6.97
-6.82
-12.62
-25.26
-43.73
-65.13
-85.47
-100.99
-109.46
-110.60
-105.79
-97.08
-86.13
-73.69
-59.70
-44.17
-27.87
-12.34
0.62
9.90
15.50
18.37
19.70
20.29
20.12
18.67
15.50
10.80
5.85
2.55
2.59
6.51
13.24
20.47
25.60
26.75
23.48
17.07
10.16
5.92
6.73
13.32
24.56
38.05
50.99
60.72
65.21
63.19
54.39
39.88
22.05
4.30
-9.90
-18.27
-20.69
-19.32
-17.73
-19.22
-25.21
-34.68
-44.91
-52.99
-57.28
-57.59
-54.72
-49.41
-42.16
-33.36
-24.10
-16.59
-13.45
-16.34
-24.38
-34.17
-41.01
-41.19
-33.58
-19.90
-3.47
12.69
27.06
39.89
52.04
64.00
75.46
85.65
94.13
101.20
107.58
113.67
119.04
122.28
121.47
114.94
101.90
82.97
60.15
36.40
14.65
-2.87
-15.21
-22.61
-26.01
-26.63
-25.44
-23.22
-20.86
-19.34
-19.50
-21.68
-25.48
-29.74
-33.06
-34.00
-31.44
-24.73
-13.69
1.14
18.31
35.44
49.79
59.12
62.49
60.50
54.84
47.66
40.95
36.20
34.16
34.71
36.34
36.24
31.13
18.34
-2.81
-30.75
-62.58
-95.64
-128.56
-160.82
-191.69
-218.71
-237.81
-244.57
-236.50
-214.29
-181.53
-142.82
-101.75
-60.13
-18.64
21.67
58.39
88.15
108.42
118.74
121.18
119.10
115.52
111.86
108.06
103.34
97.20
89.98
82.55
75.58
68.97
62.22
54.99
47.70
41.37
37.19
35.90
37.21
39.91
42.25
42.55
39.72
33.41
24.04
12.46
0.02
-12.06
-22.48
-30.25
-34.80
-36.20
-35.43
-34.15
-34.42
-37.87
-45.27
-55.92
-67.88
-78.93
-87.41
-92.71
-95.03
-94.71
-91.14
-83.00
-68.87
-48.54
-23.89
1.49
23.73
40.21
50.55
56.20
59.01
60.05
59.35
56.84
53.62
52.21
55.28
63.76
75.52
85.83
89.58
83.76
68.83
48.07
25.57
4.37
-13.97
-28.60
-38.46
-42.07
-38.59
-29.31
-17.89
-9.37
-7.88
-14.80
-28.36
-44.81
-60.35
-72.44
-79.99
-82.36
-78.89
-68.88
-52.63
-32.40
-12.06
4.16
13.70
16.81
16.35
16.06
18.74
25.03
33.73
42.89
50.87
56.82
60.42
61.47
59.54
54.42
46.59
37.18
27.42
17.81
8.03
-2.53
-13.93
-25.21
-34.80
-41.37
-44.63
-45.17
-44.01
-41.76
-38.12
-32.64
-25.23
-16.78
-8.86
-2.83
0.67
1.67
0.51
-2.56
-7.37
-13.32
-19.37
-24.31
-27.30
-28.47
-28.91
-29.85
-31.83
-34.29
-36.01
-36.25
-35.18
-33.61
-31.95
-29.53
-24.76
-16.44
-4.91
7.74
18.71
26.10
30.08
32.59
35.83
40.73
46.02
49.18
48.24
42.96
34.75
25.32
15.26
3.94
-9.39
-24.07
-37.45
-45.57
-45.06
-34.79
-16.85
4.16
22.69
33.99
35.34
26.34
8.78
-13.96
-37.45
-57.20
-69.68
-73.35
-69.06
-59.44
-47.83
-36.89
-27.74
-20.10
-13.01
-6.01
0.24
4.12
4.19
0.52
-5.02
-9.41
-10.14
-6.49
0.16
7.35
13.06
17.01
20.72
26.24
34.36
43.72
51.35
54.40
51.92
45.54
38.51
33.93
33.13
35.06
37.37
37.98
36.26
33.22
30.54
29.27
29.15
28.80
26.77
22.54
16.81
10.73
4.88
-1.22
-8.56
-17.62
-27.35
-35.20
-37.97
-33.38
-21.36
-3.90
16.14
36.55
56.23
74.87
91.85
105.81
114.87
117.22
112.20
100.89
85.73
69.36
53.66
39.61
27.89
19.66
16.18
18.17
25.59
37.02
50.05
61.84
69.98
73.10
71.36
65.16
54.94
41.25
24.84
6.59
-12.86
-33.24
-56.68
-81.05
-100.97
-110.89
-108.41
-95.27
-75.91
-55.62
-38.70
-27.19
-20.39
-16.57
-14.24
-12.45
-10.38
-7.02
-1.21
7.94
20.94
37.58
56.56
75.03
89.61
97.52
97.24
88.46
71.97
49.32
23.12
-3.38
-28.12
-49.98
-68.34
-82.71
-92.89
-98.87
-100.99
-99.67
-95.75
-90.46
-84.97
-80.04
-75.95
-72.69
-69.90
-67.35
-64.76
-62.10
-59.56
-57.39
-55.79
-54.75
-54.23
-53.95
-54.08
-54.82
-56.49
-59.24
-63.08
-67.77
-72.74
-78.76
-83.77
-86.53
-86.06
-81.72
-73.04
-59.87
-42.53
-21.45
2.32
27.64
52.90
76.64
97.56
115.02
129.04
139.89
148.64
155.89
162.07
166.90
169.83
169.76
165.82
157.68
145.06
128.64
108.32
83.73
54.26
21.47
-13.39
-48.38
-80.48
-110.38
-134.63
-151.46
-160.55
-162.79
-159.37
-151.43
-139.54
-123.88
-106.46
-90.33
-80.35
-80.62
-92.06
-111.86
-135.30
-158.51
-173.08
-176.52
-169.24
-153.61
-131.89
-105.60
-77.04
-50.66
-31.74
-21.77
-16.80
-6.61
20.01
69.61
140.60
222.78
300.90
354.09
365.13
330.40
263.41
184.29
107.89
40.55
-16.86
-64.62
-101.96
-125.97
-134.43
-129.89
-115.67
-97.60
-81.67
-72.01
-70.17
-75.39
-83.70
-92.41
-99.86
-107.02
-115.55
-126.62
-140.00
-153.92
-165.67
-172.20
-171.32
-161.54
-144.25
-122.89
-101.32
-82.58
-68.47
-59.50
-55.17
-54.62
-56.95
-61.68
-68.76
-78.08
-89.17
-101.27
-113.62
-125.51
-136.55
-146.53
-155.69
-164.45
-173.09
-181.61
-189.64
-196.61
-201.97
-205.11
-205.39
-202.38
-195.96
-186.25
-173.56
-158.59
-142.16
-125.30
-109.02
-94.12
-81.27
-70.88
-63.02
-57.39
-53.61
-51.14
-49.46
-48.21
-47.07
-45.83
-44.21
-41.99
-38.97
-35.18
-30.73
-25.97
-21.43
-17.47
-14.21
-11.31
-8.09
-3.82
2.13
10.08
19.96
31.40
44.28
58.74
75.27
94.72
117.84
144.96
175.67
208.80
242.62
275.59
306.59
334.92
360.29
382.41
400.97
416.11
428.74
440.41
452.15
463.00
469.49
466.97
452.13
426.05
393.81
361.81
333.72
308.80
283.09
253.05
218.79
183.78
152.03
123.94
95.11
58.92
11.21
-46.70
-108.84
-167.86
-218.87
-260.18
-291.30
-310.68
-315.16
-301.98
-271.81
-230.08
-185.08
-144.70
-113.41
-91.45
-76.21
-64.45
-54.68
-46.90
-42.00
-40.13
-40.48
-40.87
-38.62
-31.38
-17.93
1.08
23.77
47.58
70.28
90.44
108.06
124.34
140.90
159.48
181.20
206.38
233.60
259.54
279.56
288.73
284.14
265.75
236.62
201.71
165.96
132.60
102.61
75.50
50.66
28.08
8.56
-6.86
-17.20
-21.57
-18.81
-8.11
9.67
30.71
48.74
58.05
56.06
45.05
31.06
20.99
19.28
26.36
39.51
55.63
73.32
92.79
114.45
136.43
154.38
163.07
159.33
144.24
122.92
102.52
88.45
81.87
79.24
73.73
58.19
27.84
-17.58
-73.60
-131.31
-179.72
-208.70
-212.61
-193.44
-161.23
-130.86
-115.67
-121.98
-146.16
-176.87
-201.20
-210.66
-203.73
-184.38
-157.68
-126.91
-93.36
-59.03
-28.75
-9.51
-7.18
-22.38
-48.37
-72.86
-83.40
-73.05
-43.84
-5.66
28.10
46.27
43.86
22.59
-11.66
-52.22
-93.42
-130.28
-157.72
-170.54
-164.56
-138.62
-96.58
-45.71
6.03
53.43
95.62
134.31
170.81
203.08
226.34
235.69
229.26
209.64
181.86
149.87
114.84
76.90
37.93
4.36
-14.84
-13.17
7.79
36.71
57.62
58.31
37.81
5.72
-23.94
-41.45
-45.91
-43.26
-40.46
-39.32
-36.70
-27.74
-11.01
10.42
31.26
47.48
58.36
64.73
66.27
59.88
41.58
10.76
-27.53
-64.41
-92.64
-110.16
-120.42
-128.44
-136.44
-142.00
-139.21
-123.07
-92.74
-52.83
-10.34
27.81
56.81
73.94
77.59
67.36
44.17
11.55
-25.23
-59.87
-86.83
-101.93
-102.08
-85.54
-52.54
-6.85
43.77
88.97
119.41
130.87
126.32
114.50
104.85
102.79
107.77
115.31
121.76
126.91
133.51
143.86
156.09
163.04
156.57
132.96
96.06
55.95
22.99
2.42
-7.42
-11.63
-14.01
-13.57
-6.07
11.19
35.29
57.29
66.86
58.52
35.37
6.87
-16.45
-29.58
-35.23
-40.34
-50.94
-67.91
-87.08
-103.24
-113.87
-120.05
-123.77
-124.67
-117.83
-98.10
-64.59
-24.54
8.40
21.45
9.68
-20.84
-56.48
-83.12
-93.66
-89.42
-76.91
-62.06
-47.21
-31.66
-14.26
3.82
19.58
29.39
31.19
24.91
10.97
-10.80
-41.11
-78.79
-119.37
-155.91
-182.61
-197.65
-203.57
-206.03
-209.23
-214.03
-217.26
-215.22
-206.79
-195.23
-186.57
-185.78
-193.77
-205.43
-211.85
-204.63
-180.50
-142.81
-100.02
-61.34
-31.99
-11.37
6.37
28.38
58.04
92.16
122.80
141.87
145.61
136.35
120.30
104.80
94.16
88.16
83.69
77.81
70.10
62.56
57.40
54.08
49.67
40.41
25.44
8.91
-1.33
2.45
23.97
61.70
108.95
156.90
196.30
219.15
219.79
196.50
152.67
97.08
42.31
0.33
-21.71
-24.40
-13.85
2.52
19.92
37.62
56.56
75.69
89.20
88.41
66.00
21.61
-35.84
-90.72
-126.93
-134.71
-113.87
-73.61
-27.46
11.94
36.80
44.91
37.85
18.66
-9.27
-41.50
-72.64
-96.90
-110.03
-111.25
-103.98
-93.97
-85.91
-80.89
-75.71
-65.77
-48.44
-25.41
-1.12
20.25
37.10
50.82
62.87
72.34
75.61
69.28
53.52
34.19
20.88
21.62
38.56
67.11
99.73
129.96
155.32
175.74
189.87
193.00
178.42
142.53
88.97
29.66
-21.00
-53.12
-66.38
-69.37
-73.21
-84.70
-102.91
-121.24
-132.01
-131.84
-122.25
-107.57
-92.06
-78.56
-69.51
-68.53
-79.84
-105.46
-142.64
-183.48
-218.20
-239.61
-245.36
-237.25
-217.90
-188.19
-147.73
-97.10
-39.91
17.00
65.99
102.61
127.46
145.74
164.65
189.44
221.26
257.21
291.47
317.06
328.29
322.50
301.51
271.71
242.35
222.01
214.95
218.57
223.98
219.81
197.18
153.60
94.05
28.65
-31.33
-77.17
-104.82
-114.68
-109.81
-94.30
-72.05
-46.37
-20.27
3.53
22.58
34.99
39.61
36.48
26.87
13.23
-1.41
-14.07
-22.62
-26.64
-27.82
-29.81
-36.96
-52.32
-75.46
-101.26
-120.93
-124.58
-104.87
-59.72
6.91
85.88
165.24
233.21
280.25
300.38
292.25
259.48
210.51
156.99
110.60
78.99
63.00
56.66
50.40
35.91
10.15
-23.29
-56.55
-81.75
-94.89
-97.41
-95.05
-94.37
-99.36
-110.14
-123.67
-136.10
-145.21
-151.06
-155.20
-158.67
-160.33
-156.94
-145.05
-123.40
-94.36
-63.54
-37.05
-18.85
-9.26
-5.51
-4.12
-2.97
-2.27
-3.81
-9.19
-18.42
-29.74
-40.34
-47.92
-51.55
-51.81
-50.14
-47.74
-45.15
-42.34
-39.48
-37.33
-36.76
-38.22
-40.90
-43.23
-43.88
-42.85
-41.64
-42.14
-45.20
-49.46
-52.25
-51.55
-47.55
-43.18
-42.02
-46.07
-53.83
-60.76
-61.88
-54.66
-40.71
-25.04
-13.56
-10.35
-16.11
-28.32
-43.09
-56.82
-67.41
-73.97
-76.27
-74.55
-69.45
-62.64
-56.77
-54.81
-58.70
-67.95
-79.35
-88.20
-90.89
-86.71
-78.53
-71.45
-69.73
-74.49
-82.59
-87.89
-84.02
-67.13
-37.06
2.95
48.06
94.12
138.96
182.49
225.28
266.87
304.43
332.71
345.21
337.09
307.88
262.78
211.84
166.51
135.68
122.80
125.25
136.20
147.87
154.30
152.29
140.74
119.41
88.37
48.63
2.93
-44.08
-86.84
-120.73
-143.69
-156.31
-160.97
-160.14
-155.42
-147.55
-136.70
-123.23
-107.85
-91.48
-75.09
-59.87
-47.17
-38.21
-33.39
-31.76
-31.33
-30.09
-27.28
-23.55
-20.57
-19.75
-21.20
-23.55
-25.01
-24.46
-22.12
-19.40
-17.75
-17.97
-19.63
-21.48
-22.24
-21.29
-18.96
-16.31
-14.50
-13.99
-14.38
-14.52
-13.33
-10.30
-5.81
-0.60
4.56
9.15
12.93
15.68
17.06
16.83
15.07
12.44
10.03
8.67
8.35
8.19
6.69
2.52
-4.84
-14.85
-25.85
-35.51
-41.34
-41.69
-36.10
-25.73
-12.57
0.96
12.80
21.77
27.25
28.92
26.71
20.94
12.49
2.99
-5.65
-11.86
-14.94
-15.44
-14.65
-13.66
-12.88
-11.91
-9.83
-6.08
-1.06
4.05
7.81
9.67
10.18
10.82
12.92
16.94
22.28
27.55
31.68
34.39
36.18
37.52
38.28
37.98
36.59
34.89
34.40
36.58
41.51
47.66
52.56
53.95
51.22
45.34
38.31
31.97
27.11
23.14
18.75
12.92
5.37
-3.13
-11.30
-17.80
-21.76
-23.19
-22.89
-21.94
-21.41
-22.14
-24.56
-28.66
-33.91
-39.57
-44.65
-48.16
-48.98
-46.74
-42.01
-36.41
-32.03
-30.63
-32.67
-36.68
-39.74
-38.63
-31.68
-19.60
-5.65
6.22
13.07
14.59
12.91
11.05
10.79
11.21
9.72
3.61
-7.89
-22.51
-36.10
-44.68
-46.91
-44.59
-41.46
-40.28
-40.90
-40.17
-33.90
-20.37
-1.91
15.23
23.94
19.82
3.77
-18.25
-38.38
-50.34
-52.40
-46.74
-37.71
-28.59
-20.38
-12.13
-2.85
6.78
14.43
16.95
13.27
5.14
-3.36
-8.50
-9.11
-7.33
-7.06
-11.14
-19.88
-30.37
-38.51
-41.11
-37.58
-30.41
-23.44
-20.07
-21.80
-28.26
-37.36
-46.33
-52.22
-52.77
-47.16
-36.33
-22.94
-10.61
-2.77
-1.46
-6.70
-16.39
-27.03
-35.46
-39.64
-39.62
-36.60
-32.43
-28.49
-25.25
-22.26
-18.23
-12.04
-2.97
8.73
22.06
35.10
45.49
51.15
51.09
46.49
40.01
34.88
33.09
34.74
37.90
39.97
39.27
36.03
32.27
30.54
32.45
37.46
43.80
49.51
53.57
56.29
58.40
60.42
62.07
62.58
61.33
58.37
54.64
51.26
48.79
46.66
43.74
38.68
31.18
22.01
12.67
4.65
-1.30
-5.25
-8.05
-10.36
-12.26
-12.87
-10.88
-5.53
2.54
11.23
18.26
21.91
21.96
19.22
15.07
10.42
5.73
1.29
-2.63
-5.24
-5.70
-3.55
0.58
5.14
8.01
7.67
4.10
-1.23
-5.88
-7.95
-6.69
-3.17
0.48
1.97
-0.41
-7.31
-18.48
-33.10
-50.12
-68.05
-84.97
-98.47
-106.34
-107.18
-101.18
-89.98
-75.85
-61.11
-47.28
-34.71
-23.13
-11.99
-0.95
9.77
19.40
27.03
32.02
34.28
34.29
32.86
30.95
29.43
29.07
30.51
34.00
39.22
45.24
50.81
54.91
57.25
58.42
59.12
59.60
59.18
56.26
49.54
38.85
25.75
13.15
4.19
0.85
2.93
8.16
12.23
10.15
-2.56
-28.12
-65.12
-108.14
-148.77
-178.19
-190.06
-183.23
-161.73
-134.16
-110.58
-99.55
-105.12
-125.22
-152.10
-174.83
-183.62
-173.32
-145.69
-108.39
-71.67
-44.77
-32.82
-36.49
-52.96
-77.79
-105.55
-130.47
-146.57
-148.42
-132.80
-100.29
-56.17
-9.45
29.47
52.14
55.20
41.63
20.25
2.42
-1.76
12.31
42.28
79.87
114.36
136.75
142.27
130.84
106.12
74.16
41.95
16.22
2.08
0.84
9.13
19.21
21.93
10.78
-14.31
-46.34
-73.95
-86.38
-77.97
-49.81
-8.04
39.97
88.81
136.01
180.80
221.80
255.25
275.17
275.61
253.85
213.27
163.50
117.52
87.27
78.96
90.32
111.79
131.27
139.53
134.49
120.77
106.05
96.01
90.73
84.85
71.38
46.50
12.65
-22.33
-49.46
-63.40
-65.05
-60.06
-55.40
-54.65
-56.61
-56.84
-51.25
-39.23
-24.03
-10.51
-1.90
2.34
6.22
14.30
28.80
48.31
68.56
84.42
92.14
89.50
75.69
50.67
15.30
-27.54
-72.16
-110.88
-136.39
-144.82
-137.31
-119.50
-98.80
-81.26
-69.87
-64.50
-64.28
-68.68
-77.96
-92.09
-109.64
-127.87
-144.26
-158.37
-171.92
-187.31
-204.86
-221.05
-229.51
-224.37
-204.20
-173.77
-142.61
-120.58
-113.66
-121.58
-138.65
-156.81
-168.74
-169.55
-157.13
-131.42
-93.66
-46.25
7.44
63.30
117.18
165.80
207.05
239.70
262.97
276.28
279.50
273.66
261.10
244.97
228.66
214.69
204.39
197.99
195.09
194.74
195.47
195.34
191.92
182.75
165.65
138.99
102.00
55.22
1.35
-53.93
-101.95
-132.52
-136.99
-111.54
-59.53
8.89
79.51
138.22
174.95
185.61
171.56
137.68
90.19
35.01
-22.50
-77.76
-126.80
-167.38
-199.15
-223.39
-241.32
-252.04
-251.61
-234.31
-195.95
-137.54
-66.92
2.58
56.47
83.91
81.15
51.83
5.02
-47.96
-96.55
-132.09
-148.88
-144.30
-119.49
-79.70
-34.00
6.46
30.97
31.87
7.15
-39.59
-100.13
-164.66
-224.20
-272.25
-304.38
-317.25
-308.11
-275.15
-219.08
-144.27
-58.27
29.79
112.16
184.19
244.57
293.86
332.54
359.86
374.39
375.59
365.18
347.83
330.03
318.27
316.69
325.30
339.29
350.51
350.36
332.76
296.80
247.17
193.29
146.20
114.92
103.20
108.10
121.01
130.86
128.16
108.27
72.42
26.16
-23.70
-71.77
-114.88
-151.24
-178.57
-193.71
-194.11
-180.15
-156.70
-131.82
-113.69
-107.08
-111.72
-123.30
-136.42
-147.93
-157.57
-166.85
-176.54
-185.29
-190.23
-188.73
-179.95
-164.72
-144.58
-119.89
-89.32
-50.66
-3.15
50.90
106.22
156.34
195.94
222.05
234.45
234.85
225.70
209.38
187.88
162.94
136.03
108.30
79.57
48.53
13.15
-28.30
-76.33
-129.92
-186.39
-240.48
-283.97
-308.86
-311.06
-292.32
-258.82
-217.66
-174.49
-132.94
-94.99
-61.91
-34.78
-14.27
-0.33
8.03
12.51
14.98
16.93
19.26
22.00
24.67
26.46
26.81
25.93
24.34
23.04
22.90
24.48
27.88
32.92
39.52
47.46
56.66
66.64
76.77
85.83
92.69
94.77
89.80
76.56
54.67
25.23
-10.09
-48.70
-87.36
-123.09
-153.28
-175.34
-187.05
-187.18
-172.99
-147.20
-113.91
-77.47
-42.63
-13.49
7.69
20.37
25.78
25.56
21.21
14.05
5.10
-5.06
-16.13
-27.25
-38.44
-49.90
-60.91
-69.12
-70.44
-60.26
-36.12
0.70
46.01
91.79
130.16
156.29
169.66
173.21
171.26
167.04
155.63
138.19
116.23
91.76
67.10
44.33
24.56
7.37
-8.40
-24.13
-39.40
-54.02
-67.51
-79.42
-89.80
-99.41
-109.61
-121.79
-136.78
-153.37
-171.01
-187.18
-198.83
-203.25
-198.69
-184.51
-161.18
-130.16
-92.76
-50.93
-8.57
30.95
65.21
92.71
112.88
126.00
132.72
134.43
132.35
127.42
120.60
112.83
104.94
97.76
92.08
88.25
86.59
86.84
88.26
90.28
92.69
95.62
99.28
105.40
112.34
118.62
122.13
120.66
112.85
98.37
78.27
54.38
28.89
3.80
-18.47
-35.60
-45.71
-48.16
-44.57
-39.40
-38.64
-47.34
-68.03
-96.83
-126.22
-148.53
-158.95
-157.00
-145.93
-130.19
-112.98
-95.45
-77.28
-58.23
-39.22
-21.82
-6.28
9.23
27.87
52.84
85.16
121.97
156.91
182.33
190.40
181.21
159.26
131.13
102.88
78.14
57.55
40.29
25.42
12.77
3.28
-2.37
-4.37
-3.93
-3.57
-7.03
-18.30
-39.94
-71.69
-109.25
-145.44
-172.48
-184.87
-181.50
-165.54
-142.30
-116.73
-90.07
-63.82
-37.41
-10.29
16.92
42.62
65.08
84.22
100.47
114.28
125.23
132.34
133.86
128.05
114.03
92.17
64.27
33.59
3.48
-23.96
-47.12
-65.31
-78.34
-86.18
-88.84
-86.62
-80.52
-72.13
-63.52
-56.36
-51.71
-49.75
-49.84
-51.03
-52.42
-53.82
-55.52
-58.05
-61.72
-66.73
-73.41
-81.40
-89.52
-95.09
-94.28
-83.44
-61.16
-29.58
5.77
37.69
60.75
72.77
75.41
72.26
66.81
60.95
54.98
48.66
42.33
37.26
34.83
35.45
37.96
40.19
39.99
36.33
29.93
22.68
16.76
13.34
12.03
10.86
7.54
0.19
-11.48
-26.00
-40.94
-53.65
-61.67
-63.22
-57.72
-46.29
-32.10
-19.87
-14.29
-17.98
-29.47
-43.81
-54.17
-55.12
-45.16
-27.19
-6.52
11.93
25.67
35.02
41.63
46.74
50.41
51.84
50.31
46.16
40.85
36.14
33.59
33.60
35.23
37.13
38.02
37.14
34.75
31.98
30.24
30.72
33.96
39.58
46.65
54.12
60.79
65.61
67.95
67.50
63.82
56.85
46.82
34.24
19.99
4.99
-9.76
-23.17
-34.16
-41.79
-45.14
-43.68
-37.39
-26.92
-14.07
-1.11
9.26
14.78
14.38
8.41
-1.85
-14.67
-28.38
-42.23
-55.81
-69.20
-82.66
-96.30
-110.12
-124.00
-136.78
-145.59
-146.55
-135.72
-111.32
-75.39
-33.72
5.94
36.73
55.40
63.15
64.07
62.90
62.86
64.66
67.60
70.61
72.62
73.80
74.35
73.74
70.79
64.07
52.55
36.58
17.59
-2.23
-20.63
-36.37
-49.27
-60.08
-70.09
-80.42
