1596204744.00
64.000000
-0.00
-0.00
-0.00
-0.00
-0.00
-0.00
-0.00
-0.00
-0.00
-0.00
0.00
0.01
0.01
-0.00
-0.03
-0.05
-0.05
0.00
0.13
0.36
0.66
1.01
1.37
1.72
2.06
2.40
2.79
3.24
3.80
4.42
5.06
5.66
6.20
6.68
7.15
7.68
8.31
9.14
10.09
11.04
11.88
12.56
13.14
13.76
14.65
15.96
17.91
20.32
22.90
25.38
27.58
29.57
31.68
34.32
37.81
42.54
48.15
54.10
59.83
64.97
69.58
74.14
79.34
85.71
93.76
103.00
112.62
121.73
129.77
136.75
143.30
150.75
157.77
166.64
177.95
191.79
206.97
220.57
228.25
225.36
208.53
176.87
132.76
80.05
23.07
-34.94
-92.44
-149.16
-205.23
-260.37
-313.74
-363.87
-409.83
-450.91
-486.52
-515.76
-537.23
-549.19
-549.88
-538.25
-514.11
-478.68
-434.08
-382.89
-327.70
-270.68
-213.52
-157.49
-103.67
-53.01
-6.55
34.82
70.48
100.24
124.30
143.22
157.68
168.28
175.54
179.79
181.31
180.42
177.58
173.26
167.95
161.93
155.30
148.00
139.94
131.20
122.09
113.13
104.81
97.44
90.89
84.66
78.09
70.69
62.43
53.84
45.83
39.23
34.42
31.06
28.21
24.76
19.96
13.83
7.20
1.40
-2.68
-4.67
-5.11
-5.00
-5.22
-6.28
-8.51
-12.39
-18.36
-26.22
-33.91
-37.30
-31.36
-12.52
18.90
57.87
96.34
126.29
142.49
144.37
135.05
119.39
101.62
84.23
68.32
54.50
44.80
41.14
43.71
49.57
52.70
46.19
25.30
-9.42
-52.09
-93.14
-123.34
-137.27
-135.10
-121.56
-103.03
-84.20
-67.76
-53.86
-41.53
-30.33
-20.76
-13.68
-9.49
-7.77
-7.54
-7.58
-7.11
-5.99
-4.65
-3.70
-3.54
-4.14
-5.13
-6.10
-6.90
-7.54
-8.26
-9.26
-10.54
-11.87
-13.05
-13.92
-14.38
-14.67
-14.96
-15.74
-17.75
-21.98
-28.58
-35.77
-39.74
-36.23
-23.22
-2.64
19.60
36.22
42.10
36.45
22.41
4.44
-14.16
-31.86
-47.17
-57.12
-56.96
-42.47
-13.23
26.01
66.90
101.32
124.46
135.34
134.60
122.86
101.02
71.61
40.64
16.51
6.96
15.02
37.45
66.58
94.15
114.49
124.96
124.89
113.71
90.95
57.72
18.34
-19.88
-49.00
-64.03
-65.03
-56.48
-44.96
-36.09
-32.56
-33.85
-37.52
-40.76
-41.79
-40.23
-37.13
-34.52
-34.49
-38.27
-46.25
-57.97
-72.10
-86.03
-95.46
-94.85
-79.45
-48.36
-6.39
36.34
67.97
80.03
71.47
48.98
23.43
5.09
-1.74
0.84
7.24
12.62
15.48
17.53
21.24
27.59
35.18
41.01
42.32
38.32
30.40
21.22
13.54
8.68
6.38
4.87
1.60
-5.38
-16.62
-30.98
-46.12
-58.84
-67.56
-71.90
-72.77
-72.13
-71.96
-73.44
-76.81
-82.04
-88.55
-96.05
-103.58
-108.91
-108.68
-99.44
-79.60
-50.93
-18.49
11.22
32.74
44.01
46.59
44.09
40.03
36.23
32.67
28.58
23.67
18.63
14.74
12.84
12.73
13.21
12.81
10.42
6.02
0.58
-4.47
-7.74
-8.56
-7.07
-4.12
-0.70
2.41
5.05
7.61
10.62
14.51
19.19
24.12
28.49
31.57
32.97
32.86
31.83
30.67
30.11
30.47
31.70
33.51
35.49
37.29
38.74
39.79
40.42
40.71
40.44
39.40
37.40
34.32
30.16
25.10
19.43
13.00
6.68
1.04
-3.44
-6.38
-7.59
-7.11
-5.16
-2.11
1.72
6.75
13.21
21.48
31.40
41.77
50.26
54.04
50.83
39.81
22.11
0.23
-22.56
-43.05
-58.59
-67.23
-67.88
-60.68
-47.44
-31.57
-17.36
-8.41
-6.20
-9.53
-15.17
-19.44
-19.85
-15.94
-9.16
-1.91
3.61
5.96
4.74
0.59
-4.95
-9.71
-11.37
-8.07
0.87
14.76
31.43
47.97
61.59
70.30
73.21
70.50
63.09
51.82
38.45
25.09
13.74
5.76
1.52
0.36
0.94
1.81
2.01
1.43
0.47
-0.29
-0.55
-0.41
-0.26
-0.43
-0.96
-1.55
-1.70
-1.21
-0.26
0.68
1.10
0.80
-0.03
-0.84
-1.01
-0.07
1.83
3.93
4.95
3.57
-1.05
-8.87
-18.94
-29.63
-39.08
-45.67
-48.30
-46.52
-40.50
-31.13
-19.97
-9.15
-0.94
2.79
1.22
-5.18
-14.81
-25.67
-36.09
-45.19
-52.97
-59.76
-65.68
-70.30
-72.62
-71.59
-66.57
-57.69
-45.87
-32.49
-18.99
-6.54
4.07
12.37
18.19
21.58
22.83
22.49
21.20
19.52
17.69
15.61
13.03
9.89
6.56
3.82
2.65
3.78
7.52
13.63
21.52
30.44
39.57
48.07
55.03
59.53
60.81
58.44
52.43
43.17
31.41
18.19
4.82
-7.23
-16.69
-22.85
-25.87
-26.68
-26.58
-26.61
-27.19
-28.05
-28.60
-28.45
-27.68
-26.80
-26.42
-26.72
-27.34
-27.47
-26.43
-24.13
-21.47
-20.20
-22.25
-28.90
-39.97
-53.56
-66.47
-75.48
-78.48
-75.42
-68.32
-60.25
-53.99
-51.00
-51.17
-53.27
-55.46
-55.70
-52.00
-42.82
-27.71
-8.07
12.67
29.98
39.94
41.11
35.34
27.00
20.88
19.85
23.73
29.82
34.65
36.13
34.42
31.63
30.36
32.26
37.17
43.08
47.04
46.16
38.50
23.79
3.94
-16.92
-33.12
-39.18
-32.09
-13.05
12.41
36.39
52.01
56.28
51.05
41.45
32.82
28.07
26.79
26.57
25.11
21.77
17.72
14.63
13.38
13.41
13.37
12.20
10.12
8.54
9.19
12.97
19.22
26.01
30.99
32.47
29.98
24.25
16.69
8.71
1.30
-5.04
-10.14
-13.95
-16.46
-17.77
-18.07
-17.75
-17.20
-16.71
-16.22
-15.28
-13.17
-9.24
-3.32
4.11
12.14
20.00
27.59
35.62
45.16
57.03
71.31
87.46
104.68
122.42
140.34
157.91
174.08
187.45
196.86
202.09
203.99
203.84
202.28
198.67
191.07
177.10
155.01
124.35
86.19
42.96
-1.70
-43.10
-75.99
-95.67
-99.55
-88.46
-66.65
-40.46
-15.99
2.88
15.11
21.78
24.70
25.40
25.12
25.58
29.43
39.76
58.69
85.76
117.43
147.97
171.49
183.93
184.05
173.23
154.29
130.23
103.32
74.81
44.97
13.43
-20.18
-55.70
-92.10
-127.28
-158.21
-181.18
-192.30
-188.33
-167.83
-132.52
-88.08
-43.68
-9.95
4.23
-5.13
-35.55
-78.80
-123.75
-160.01
-180.96
-185.07
-175.34
-157.51
-138.10
-122.50
-113.95
-113.09
-118.23
-126.14
-133.11
-136.15
-133.77
-126.27
-115.37
-103.25
-91.53
-80.60
-69.64
-57.23
-42.37
-25.24
-7.36
8.86
20.95
27.20
27.04
21.06
10.73
-2.01
-15.08
-26.62
-35.32
-40.80
-43.72
-45.56
-48.01
-52.02
-57.32
-62.35
-64.87
-62.87
-55.24
-41.88
-23.40
-0.76
24.22
48.55
67.91
77.82
75.79
63.25
45.86
31.56
27.14
35.06
52.45
72.71
88.95
96.96
96.47
90.08
81.06
71.50
61.82
51.60
40.70
30.00
21.00
15.13
12.76
12.94
13.68
12.96
9.62
3.97
-2.45
-7.59
-9.97
-9.42
-7.13
-5.13
-5.37
-8.87
-15.52
-24.23
-33.63
-42.63
-50.79
-58.23
-65.37
-72.46
-79.39
-85.72
-90.85
-94.27
-95.71
-95.14
-92.64
-88.33
-82.33
-74.61
-64.98
-53.02
-38.40
-21.18
-2.11
17.29
35.04
49.20
58.25
61.40
58.45
49.65
35.58
17.15
-4.49
-28.29
-53.73
-80.92
-110.50
-142.74
-176.78
-210.71
-242.31
-270.16
-294.05
-314.27
-330.15
-339.20
-337.29
-320.53
-287.58
-240.80
-185.68
-128.60
-74.51
-25.74
17.16
54.45
86.32
112.79
134.14
151.04
164.15
173.26
176.87
171.88
156.17
130.62
99.84
70.84
49.92
39.74
38.47
40.94
39.75
30.34
13.52
-4.87
-16.77
-16.15
-1.78
22.55
49.75
68.83
69.94
47.14
0.02
-65.73
-139.78
-209.44
-262.61
-291.49
-299.25
-296.30
-295.73
-307.85
-336.27
-378.51
-428.55
-479.62
-502.47
-476.94
-397.77
-278.73
-144.60
-17.05
91.15
174.52
231.44
262.64
268.14
250.91
221.15
191.89
175.80
179.71
202.40
236.70
273.80
304.43
324.42
336.22
343.19
351.73
366.50
388.04
412.84
435.04
446.86
442.33
419.16
378.76
325.85
265.40
201.44
137.44
77.36
25.33
-13.93
-36.51
-41.21
-30.12
-8.75
16.07
39.12
58.92
77.64
99.93
130.15
169.77
216.40
263.90
304.45
331.33
341.08
334.01
313.46
283.92
249.37
212.50
174.72
136.80
99.56
64.07
31.35
1.87
-24.84
-49.96
-74.80
-100.26
-126.51
-153.13
-179.45
-205.09
-229.99
-254.16
-277.32
-298.63
-316.97
-331.43
-341.97
-349.70
-356.72
-365.36
-377.10
-391.54
-405.87
-415.10
-413.10
-394.42
-356.20
-299.62
-230.13
-156.17
-87.02
-30.31
9.55
31.73
38.31
33.01
20.27
4.60
-9.83
-19.47
-21.65
-14.78
1.74
27.74
62.38
104.10
150.11
195.92
235.53
262.44
271.13
258.44
224.46
172.57
109.05
41.97
-20.26
-70.55
-104.81
-122.95
-128.64
-127.86
-126.72
-129.49
-137.54
-149.61
-162.82
-174.14
-181.39
-183.45
-179.90
-170.38
-154.38
-131.49
-101.97
-67.24
-29.99
6.39
38.83
65.26
84.87
97.63
103.74
103.46
97.62
88.23
78.77
73.33
75.14
84.97
100.67
117.99
132.47
141.40
144.81
144.96
144.80
146.24
149.21
151.87
151.78
147.11
137.54
124.21
109.21
94.81
82.75
74.08
69.04
67.19
67.60
69.12
70.57
70.98
69.60
65.77
58.99
49.04
36.38
22.24
8.51
-2.86
-10.65
-14.82
-16.49
-17.36
-18.86
-21.45
-24.47
-26.48
-25.91
-21.74
-13.91
-3.49
7.66
17.41
24.11
27.22
27.79
28.42
32.64
43.96
64.71
95.34
134.13
177.59
221.26
260.55
291.59
311.90
320.93
320.32
313.69
305.90
301.58
303.56
311.74
322.97
332.12
333.93
324.67
303.03
270.01
228.40
182.24
136.68
97.53
70.32
58.57
61.98
75.78
92.00
102.31
101.14
87.58
65.02
38.89
13.82
-8.13
-27.77
-47.54
-69.78
-95.46
-123.60
-151.70
-176.68
-196.02
-208.74
-215.70
-219.26
-222.48
-228.05
-237.49
-250.87
-266.90
-283.16
-296.42
-303.04
-299.69
-284.48
-258.11
-224.29
-189.15
-159.52
-140.85
-135.69
-143.31
-160.42
-182.58
-205.67
-226.77
-244.52
-259.11
-272.07
-285.91
-303.38
-326.72
-356.80
-392.60
-431.00
-467.14
-495.24
-509.88
-507.35
-486.89
-450.89
-404.27
-352.85
-301.33
-251.76
-203.39
-153.88
-101.59
-47.56
3.89
46.37
73.87
83.15
74.97
53.95
27.11
1.80
-15.88
-21.91
-14.50
6.16
38.14
77.91
120.53
160.45
192.58
213.71
223.42
224.01
219.68
215.05
213.46
216.10
221.85
228.14
232.30
232.78
229.65
224.59
220.07
218.46
221.29
228.83
240.23
253.92
268.07
281.06
291.63
298.79
301.69
299.49
291.30
276.40
254.56
226.16
192.56
156.15
120.03
87.60
62.07
46.25
42.13
50.39
69.64
96.11
123.92
146.41
158.09
156.36
142.16
119.23
92.33
65.30
39.92
15.98
-7.87
-32.98
-60.01
-88.77
-118.46
-147.99
-176.09
-201.43
-222.51
-237.43
-243.70
-238.64
-220.48
-189.77
-150.34
-109.09
-74.20
-52.36
-46.45
-54.85
-72.60
-93.80
-113.73
-129.76
-140.96
-147.16
-148.44
-145.36
-139.62
-134.39
-133.60
-140.64
-157.02
-181.76
-211.71
-242.49
-269.56
-289.07
-298.38
-296.36
-283.39
-261.08
-231.61
-196.97
-158.47
-116.74
-72.51
-27.19
16.83
56.67
89.83
114.79
130.79
136.99
131.76
112.88
78.79
30.39
-27.99
-89.11
-144.78
-188.32
-216.21
-228.26
-226.57
-214.12
-194.05
-169.67
-144.90
-124.00
-110.70
-106.75
-111.08
-119.99
-128.38
-131.61
-126.83
-113.44
-92.55
-65.91
-34.91
-0.23
37.87
78.77
120.84
161.29
196.43
222.43
236.20
236.02
222.00
196.11
161.88
123.96
87.41
56.93
36.03
26.60
28.58
40.11
57.73
76.78
92.12
99.12
95.03
80.04
57.53
33.13
12.72
0.36
-3.02
0.61
7.63
14.69
19.91
23.11
25.12
26.72
27.99
28.35
27.10
24.09
20.02
16.15
13.70
13.28
14.45
16.02
16.50
14.74
10.30
3.40
-5.33
-15.19
-25.35
-34.64
-41.23
-42.74
-36.89
-22.67
-1.22
24.02
48.21
66.79
77.11
79.25
75.55
69.23
62.96
58.01
54.57
52.53
52.36
55.12
61.81
72.46
85.66
99.02
110.19
117.95
122.32
123.99
123.21
119.20
110.51
96.13
76.54
53.97
31.52
11.84
-3.96
-16.24
-26.03
-33.87
-39.35
-41.49
-39.67
-34.35
-27.09
-19.84
-14.04
-10.04
-7.19
-4.49
-1.23
2.57
6.30
9.07
10.22
9.55
7.39
4.55
2.07
1.01
2.20
6.08
12.60
21.13
30.63
39.84
47.50
52.63
54.77
54.07
51.39
48.03
45.28
43.81
43.34
42.70
40.51
35.94
29.28
22.00
16.22
13.97
16.54
24.11
35.77
49.59
62.95
72.98
77.20
74.31
64.63
50.05
33.33
17.11
3.26
-7.33
-14.40
-17.94
-18.03
-15.13
-10.38
-5.51
-2.35
-2.08
-4.66
-8.91
-13.10
-15.84
-16.72
-16.35
-16.03
-17.18
-20.73
-26.92
-35.23
-44.46
-52.82
-58.18
-58.39
-51.90
-38.43
-19.33
2.52
23.50
40.34
51.18
55.88
55.68
52.36
47.36
41.43
34.77
27.57
20.42
14.29
10.10
8.24
8.24
8.95
8.99
7.39
4.02
-0.32
-4.31
-6.69
-6.88
-5.23
-2.91
-1.22
-1.26
-3.23
-6.51
-10.12
-13.19
-15.30
-16.38
-16.48
-15.34
-12.72
-8.33
-2.28
4.68
11.30
16.21
18.42
17.81
15.49
12.94
12.33
15.51
23.34
35.23
49.31
63.11
74.66
84.06
91.42
98.91
108.95
123.12
141.45
162.15
182.05
197.46
206.60
205.77
194.94
176.38
154.33
134.30
121.78
120.73
132.44
157.55
189.03
221.68
250.99
274.02
289.27
295.90
293.17
280.68
262.00
235.43
204.39
172.96
144.59
121.00
101.91
85.83
51.05
22.38
-4.80
-31.47
-59.51
-92.02
-132.79
-184.86
-248.34
-318.40
-383.06
-435.31
-465.93
-469.89
-447.42
-403.04
-343.74
-276.90
-208.99
-144.38
-92.72
-59.73
-47.89
-55.04
-74.83
-99.46
-126.86
-154.60
-179.70
-202.77
-223.22
-241.44
-259.27
-279.34
-303.92
-332.24
-358.83
-375.54
-376.95
-360.76
-329.62
-289.76
-247.38
-208.90
-177.47
-151.81
-128.32
-104.11
-77.76
-49.70
-21.24
6.62
33.64
60.60
88.73
118.53
149.74
181.46
212.70
242.41
269.21
291.11
306.08
312.63
310.05
298.80
280.38
257.02
231.05
204.56
179.17
156.28
136.95
121.47
109.14
98.54
88.13
76.98
65.18
53.57
43.21
34.74
27.93
21.93
15.77
8.89
1.32
-6.55
-14.22
-21.22
-27.08
-31.16
-32.75
-31.29
-26.91
-20.81
-15.13
-12.37
-14.48
-21.91
-33.30
-45.86
-56.42
-62.53
-63.35
-59.69
-53.38
-46.38
-39.97
-34.53
-29.72
-25.01
-20.18
-15.39
-11.07
-7.55
-4.76
-2.19
0.87
4.87
9.67
14.49
18.20
19.91
19.43
17.47
15.34
14.35
15.33
18.17
22.01
25.59
27.82
28.13
26.68
24.02
20.83
17.67
15.03
13.44
13.41
15.14
18.16
21.23
22.71
21.29
16.77
10.24
3.64
-1.22
-3.47
-3.47
-2.37
-1.34
-0.97
-1.16
-1.45
-1.53
-1.46
-1.62
-2.36
-3.83
-5.83
-7.89
-9.51
-10.37
-10.47
-10.15
-9.92
-10.22
-11.18
-12.58
-13.90
-14.68
-14.71
-14.19
-13.61
-13.59
-14.49
-16.28
-18.49
-20.36
-21.12
-20.24
-17.59
-13.45
-8.40
-3.14
1.68
5.58
8.31
9.82
10.19
9.62
8.31
6.55
4.58
2.65
1.00
-0.17
-0.81
-0.96
-0.85
-0.80
-1.09
-1.87
-3.10
-4.56
-5.98
-7.18
-8.12
-8.86
-9.49
-10.11
-10.76
-11.50
-12.47
-13.79
-15.53
-17.55
-19.47
-20.77
-20.96
-19.69
-16.92
-12.85
-7.86
-2.39
3.05
8.04
12.19
15.31
17.44
18.89
20.14
21.67
23.72
26.18
28.60
30.30
30.59
29.07
25.91
21.96
18.54
16.96
17.86
20.78
24.22
26.27
25.38
21.18
14.59
7.63
2.64
1.60
5.58
14.30
26.01
37.62
45.07
44.15
31.45
5.40
-32.92
-79.71
-129.19
-174.94
-211.52
-235.66
-246.56
-245.30
-233.79
-213.79
-186.61
-153.51
-116.33
-77.91
-41.65
-10.66
13.21
29.77
40.15
45.97
48.58
48.76
46.90
43.33
38.72
34.04
30.25
27.94
27.05
26.92
26.72
25.79
24.02
21.86
19.99
18.92
18.78
19.23
19.84
20.31
20.68
21.23
22.24
23.75
25.50
27.07
28.15
28.67
28.80
28.79
28.77
28.72
28.46
27.83
26.81
25.52
24.17
22.88
21.67
20.47
19.21
17.92
16.67
15.48
14.24
12.70
10.65
8.04
5.10
2.25
-0.04
-1.50
-2.14
-2.24
-2.21
-2.53
-3.48
-5.16
-7.34
-9.54
-11.06
-11.24
-9.69
-6.43
-1.95
2.99
7.60
11.24
13.57
14.58
14.50
13.77
12.82
12.02
11.41
10.67
9.16
6.15
1.31
-5.06
-11.90
-17.71
-21.06
-21.02
-17.32
-10.25
-0.45
11.21
23.57
35.18
44.42
50.00
51.42
49.21
44.62
39.06
33.40
27.73
21.68
15.00
7.99
1.54
-3.29
-5.92
-6.54
-6.07
-5.68
-6.30
-8.24
-11.17
-14.41
-17.29
-19.40
-20.66
-21.28
-21.52
-21.57
-21.45
-21.03
-20.16
-18.71
-16.67
-14.18
-11.47
-8.81
-6.54
-4.97
-4.40
-5.05
-6.94
-9.81
-13.20
-16.48
-19.15
-20.98
-22.03
-22.67
-23.28
-24.10
-25.18
-26.37
-27.43
-28.16
-28.41
-28.07
-26.97
-24.97
-21.95
-17.92
-13.11
-7.96
-2.95
1.50
5.18
8.14
10.59
12.74
14.66
16.28
17.45
18.07
18.21
18.07
17.85
17.67
17.47
17.12
16.47
15.47
14.16
12.65
11.03
9.32
7.53
5.67
3.78
1.94
0.23
-1.31
-2.65
-3.80
-4.73
-5.45
-6.07
-6.76
-7.79
-9.32
-11.30
-13.39
-15.01
-15.55
-14.59
-12.06
-8.27
-3.83
0.62
4.56
7.70
10.00
11.52
12.36
12.55
12.09
11.03
9.48
7.67
5.91
4.40
3.26
2.45
1.86
1.40
1.03
0.78
0.69
0.75
0.90
1.10
1.31
1.57
1.92
2.39
2.93
3.47
3.92
4.21
4.26
3.98
3.23
1.89
-0.09
-2.55
-5.17
-7.46
-8.94
-9.32
-8.58
-6.98
-4.90
-2.71
-0.63
1.30
3.13
4.92
6.62
8.07
9.07
9.45
9.17
8.34
7.17
5.89
4.65
3.52
2.49
1.52
0.62
-0.15
-0.70
-0.94
-0.86
-0.50
-0.01
0.44
0.68
0.60
0.20
-0.47
-1.32
-2.23
-3.18
-4.19
-5.31
-6.59
-7.99
-9.34
-10.40
-10.90
-10.59
-9.32
-7.11
-4.14
-0.71
2.77
5.88
8.25
9.65
10.05
9.56
8.46
7.05
5.62
4.38
3.45
2.85
2.52
2.42
2.46
2.63
2.95
3.44
4.11
4.87
5.60
6.11
6.23
5.87
5.07
3.90
2.53
1.11
-0.24
-1.47
-2.54
-3.45
-4.19
-4.83
-5.43
-6.13
-7.04
-8.20
-9.54
-10.81
-11.69
-11.83
-11.02
-9.25
-6.75
-3.91
-1.17
1.08
2.68
3.67
4.24
4.66
5.11
5.62
6.10
6.43
6.52
6.42
6.23
6.05
5.91
5.71
5.30
4.60
3.64
2.58
1.63
0.98
0.65
0.54
0.47
0.29
-0.08
-0.66
-1.42
-2.32
-3.33
-4.35
-5.28
-5.98
-6.36
-6.49
-6.54
-6.73
-7.22
-7.95
-8.64
-8.90
-8.37
-6.94
-4.71
-2.01
0.75
3.23
5.23
6.71
7.74
8.43
8.93
9.33
9.72
10.11
10.49
10.81
10.96
10.92
10.68
10.29
9.83
9.33
8.78
8.10
7.21
6.03
4.56
2.86
1.00
-0.92
-2.81
-4.52
-5.93
-6.92
-7.49
-7.72
-7.80
-7.95
-8.35
-9.07
-10.07
-11.22
-12.34
-13.24
-13.75
-13.73
-13.10
-11.79
-9.82
-7.30
-4.47
-1.61
0.93
2.89
4.11
4.61
4.57
4.22
3.80
3.47
3.30
3.31
3.50
3.83
4.24
4.64
4.94
5.10
5.10
4.97
4.74
4.42
4.02
3.55
3.01
2.40
1.73
1.00
0.18
-0.71
-1.62
-2.47
-3.19
-3.74
-4.15
-4.53
-5.00
-5.65
-6.48
-7.35
-8.00
-8.11
-7.47
-6.04
-4.01
-1.73
0.50
2.46
4.13
5.58
6.83
7.82
8.36
8.31
7.65
6.56
5.36
4.39
3.87
3.81
4.04
4.32
4.45
4.36
4.11
3.89
3.80
3.85
3.86
3.54
2.60
0.91
-1.50
-4.44
-7.65
-10.86
-13.85
-16.45
-18.51
-19.91
-20.61
-20.65
-20.17
-19.33
-18.18
-16.68
-14.71
-12.17
-9.09
-5.70
-2.32
0.70
3.11
4.84
5.97
6.68
7.12
7.44
7.74
8.05
8.39
8.71
8.95
9.04
8.95
8.65
8.17
7.54
6.85
6.19
5.68
5.36
5.19
5.05
4.74
4.11
3.06
1.68
0.14
-1.34
-2.60
-3.57
-4.26
-4.75
-5.12
-5.50
-6.02
-6.83
-8.03
-9.58
-11.24
-12.60
-13.15
-12.52
-10.57
-7.52
-3.88
-0.29
2.73
4.89
6.21
6.93
7.35
7.70
8.09
8.45
8.66
8.59
8.21
7.58
6.86
6.23
5.80
5.60
5.57
5.59
5.59
5.58
5.63
5.81
6.12
6.45
6.59
6.34
5.55
4.22
2.51
0.67
-1.09
-2.58
-3.73
-4.54
-5.04
-5.25
-5.21
-5.03
-4.87
-4.95
-5.40
-6.19
-7.10
-7.79
-7.97
-7.50
-6.40
-4.86
-3.04
-1.03
1.15
3.45
5.76
7.84
9.49
10.55
11.04
11.07
10.84
10.53
10.28
10.23
10.41
10.76
11.11
11.22
10.84
9.83
8.21
6.14
3.86
1.55
-0.68
-2.79
-4.80
-6.69
-8.41
-9.85
-10.88
-11.41
-11.38
-10.86
-10.00
-9.07
-8.35
-8.07
-8.27
-8.78
-9.21
-9.14
-8.23
-6.38
-3.75
-0.70
2.32
4.94
6.88
8.04
8.46
8.26
7.70
7.05
6.55
6.35
6.40
6.53
6.53
6.22
5.59
4.75
3.86
3.04
2.32
1.66
1.01
0.41
-0.08
-0.36
-0.40
-0.33
-0.31
-0.56
-1.18
-2.10
-3.08
-3.87
-4.33
-4.51
-4.63
-4.98
-5.72
-6.85
-8.20
-9.51
-10.45
-10.77
-10.25
-8.73
-6.21
-2.86
0.96
4.82
8.28
11.04
13.00
14.20
14.80
14.95
14.82
14.61
14.46
14.47
14.63
14.80
14.76
14.29
13.29
11.79
9.97
8.02
6.08
4.18
2.28
0.32
-1.65
-3.51
-5.09
-6.29
-7.19
-7.96
-8.83
-9.91
-11.14
-12.23
-12.89
-12.95
-12.47
-11.74
-11.20
-11.20
-11.98
-13.54
-15.61
-17.70
-19.09
-19.01
-16.86
-12.52
-6.51
0.07
5.83
9.62
10.84
9.67
6.93
3.63
0.71
-1.26
-2.10
-1.94
-1.07
0.16
1.44
2.55
3.37
3.86
4.07
4.06
3.96
3.88
4.01
4.49
5.32
6.28
6.99
7.03
6.22
4.70
2.96
1.53
0.73
0.50
0.42
0.00
-1.12
-2.95
-5.21
-7.51
-9.45
-10.79
-11.39
-11.18
-10.17
-8.39
-6.00
-3.22
-0.33
2.43
4.82
6.67
7.83
8.22
7.84
6.85
5.60
4.54
4.06
4.36
5.35
6.66
7.81
8.41
8.32
7.73
7.02
6.62
6.78
7.50
8.51
9.40
9.77
9.39
8.24
6.47
4.31
1.97
-0.38
-2.66
-4.78
-6.73
-8.45
-9.90
-11.01
-11.73
-11.97
-11.65
-10.75
-9.28
-7.35
-5.15
-2.92
-0.84
0.96
2.51
3.95
5.47
7.20
9.13
11.04
12.62
13.55
13.76
13.41
12.92
12.74
13.11
13.99
14.99
15.56
15.20
13.61
10.82
7.10
2.95
-1.07
-4.33
-6.30
-6.64
-5.34
-2.81
0.28
3.17
5.30
6.55
7.18
7.75
8.87
11.04
14.52
19.41
25.60
32.94
41.30
50.61
60.79
71.67
82.75
93.20
101.95
108.05
111.03
111.08
108.88
105.22
100.69
95.51
89.65
83.15
76.15
68.73
60.65
51.22
39.48
24.64
6.53
-14.23
-36.32
-58.07
-77.81
-94.05
-105.76
-112.44
-114.40
-112.75
-109.23
-105.70
-103.51
-103.08
-103.84
-104.65
-104.36
-102.29
-98.44
-93.28
-87.37
-81.09
-74.55
-67.69
-60.51
-53.19
-46.07
-39.53
-33.79
-28.83
-24.50
-20.62
-17.15
-14.28
-12.28
-11.31
-11.27
-11.77
-12.26
-12.27
-11.54
-10.10
-8.17
-6.03
-3.95
-2.12
-0.68
0.30
0.82
0.96
0.91
0.82
0.76
0.63
0.25
-0.52
-1.66
-2.90
-3.84
-4.04
-3.25
-1.41
1.32
4.54
7.78
10.44
12.02
12.19
10.96
8.68
5.97
3.42
1.33
-0.40
-2.19
-4.52
-7.59
-11.14
-14.51
-16.91
-17.78
-16.98
-14.85
-12.00
-9.08
-6.55
-4.56
-3.05
-1.90
-1.04
-0.59
-0.78
-1.92
-4.18
-7.49
-11.53
-15.72
-19.43
-22.27
-24.22
-25.76
-27.59
-30.33
-34.10
-38.38
-42.07
-43.83
-42.47
-37.40
-28.81
-17.71
-5.69
5.56
14.66
21.02
24.82
26.82
27.81
28.32
28.57
28.73
29.14
30.30
32.63
36.30
41.23
47.51
55.78
67.38
83.72
105.60
132.54
162.57
192.76
219.98
241.81
257.11
266.23
270.80
272.99
274.63
276.87
280.41
286.20
295.93
311.63
334.27
362.31
391.20
414.58
426.64
424.52
409.22
384.61
355.19
324.14
292.66
260.70
228.19
195.72
164.28
134.37
105.46
76.24
45.43
12.70
-20.93
-53.53
-83.35
-109.80
-133.93
-157.90
-183.83
-212.56
-242.92
-272.21
-297.17
-315.64
-327.49
-334.70
-340.60
-348.88
-362.70
-383.94
-412.25
-444.20
-472.85
-488.89
-483.43
-451.80
-396.36
-326.59
-255.82
-195.86
-152.36
-123.16
-100.53
-75.87
-44.20
-6.03
33.88
69.80
97.86
117.00
127.90
131.09
126.10
111.68
87.61
56.00
21.38
-10.86
-36.77
-55.63
-70.12
-84.82
-103.89
-129.13
-159.15
-189.92
-216.24
-233.42
-238.72
-232.03
-215.76
-193.68
-169.47
-145.46
-122.05
-98.32
-73.36
-47.61
-23.44
-4.45
5.96
6.13
-3.09
-18.54
-35.70
-49.80
-56.83
-54.31
-41.65
-20.35
6.28
33.91
58.26
76.29
86.89
90.61
88.81
82.63
72.35
57.66
38.39
14.98
-11.42
-39.67
-69.23
-100.44
-133.87
-169.15
-203.99
-234.13
-254.56
-261.39
-253.67
-233.88
-206.89
-177.81
-149.93
-123.36
-95.27
-61.58
-19.26
31.44
86.25
137.54
176.70
197.05
196.17
176.82
145.71
111.09
79.88
55.89
39.59
29.19
22.38
17.62
14.65
14.00
16.21
21.03
27.26
32.86
35.58
33.75
26.84
15.70
2.40
-10.40
-20.18
-25.20
-24.79
-19.35
-9.96
1.92
14.70
26.79
36.53
42.32
42.93
37.96
28.25
15.85
3.48
-6.35
-12.21
-14.02
-12.77
-9.80
-6.12
-2.07
2.53
8.13
15.12
23.77
34.10
45.74
57.66
68.10
74.92
76.35
71.79
62.41
50.76
39.91
32.33
29.20
30.37
34.87
41.46
48.70
54.57
56.36
51.29
37.90
17.59
-4.96
-22.97
-30.17
-23.41
-3.82
23.97
54.25
82.79
107.94
130.22
150.73
169.77
186.52
199.88
209.56
216.67
223.32
231.61
242.65
256.18
271.08
286.29
301.54
317.48
334.97
354.12
373.45
389.92
399.93
400.57
390.82
371.83
346.25
317.00
286.20
254.60
221.88
187.35
150.67
112.19
72.89
33.94
-3.63
-39.31
-73.10
-105.42
-136.78
-167.44
-197.28
-225.74
-252.08
-275.73
-296.60
-315.24
-332.78
-350.78
-370.70
-393.07
-416.70
-438.45
-453.89
-458.64
-450.08
-428.37
-396.33
-358.46
-319.41
-282.86
-250.99
-224.35
-201.92
-181.17
-158.34
-129.10
-89.61
-37.54
27.33
103.03
185.82
270.55
351.08
420.95
474.57
508.49
522.45
519.39
504.27
482.30
457.46
431.89
406.47
381.67
358.13
336.53
317.05
298.86
280.21
259.06
233.84
204.05
170.34
134.11
97.04
60.55
25.70
-6.91
-37.04
-64.88
-90.98
-116.19
-141.38
-167.10
-193.44
-219.90
-245.79
-270.55
-294.21
-317.43
-341.61
-368.51
-399.75
-436.03
-476.36
-517.69
-555.12
-583.04
-596.94
-595.06
-579.26
-554.67
-528.00
-505.22
-489.48
-480.18
-473.50
-464.16
-447.68
-421.95
-387.77
-348.04
-306.41
-266.06
-229.07
-196.60
-169.12
-146.49
-127.48
-109.55
-88.93
-61.59
-24.44
23.74
82.11
148.39
219.36
291.07
358.81
417.21
461.03
486.69
493.55
484.48
464.96
441.35
419.13
401.77
390.50
384.74
382.44
380.48
375.06
362.44
339.96
306.99
265.25
218.25
170.22
124.76
84.26
49.82
21.87
0.62
-14.02
-22.92
-28.44
-34.51
-45.83
-66.43
-98.02
-139.21
-186.03
-233.47
-277.41
-315.69
-348.13
-375.30
-397.14
-412.20
-418.20
-413.33
-397.75
-374.14
-347.04
-321.27
-300.20
-284.94
-274.31
-265.65
-255.75
-241.52
-220.43
-190.61
-151.17
-102.39
-45.79
16.09
80.35
144.32
205.84
262.92
313.18
353.22
378.92
386.34
372.96
338.87
287.18
223.60
155.31
89.60
32.76
-10.62
-37.97
-48.83
-44.80
-29.24
-6.55
18.67
42.54
62.36
76.74
85.35
88.61
87.54
83.62
78.61
73.86
69.70
65.05
57.97
46.64
30.69
11.83
-6.60
-20.98
-28.81
-29.59
-24.75
-16.72
-8.02
-0.45
5.09
8.55
10.72
13.11
17.75
26.65
41.11
61.45
86.93
116.30
148.01
180.26
210.60
235.77
252.18
257.11
249.99
232.84
209.61
184.48
160.30
137.80
116.13
94.12
71.40
48.65
27.04
7.32
-10.84
-28.80
-48.33
-70.97
-97.56
-128.10
-161.61
-196.15
-228.80
-256.01
-274.47
-282.17
-279.18
-267.67
-250.73
-230.75
-208.09
-180.78
-145.31
-98.32
-38.54
31.76
106.35
175.93
230.20
260.32
261.27
233.01
180.28
111.06
34.52
-40.82
-108.26
-163.38
-204.11
-230.69
-245.55
-252.70
-256.51
-260.11
-264.22
-266.90
-264.54
-253.59
-232.23
-201.55
-165.51
-129.62
-98.79
-75.24
-57.15
-38.88
-13.10
25.84
78.61
139.39
197.16
239.26
256.04
243.93
205.82
148.79
80.82
8.34
-64.48
-134.72
-199.44
-254.91
-297.22
-323.55
-333.45
-329.17
-314.98
-295.80
-275.69
-256.96
-239.72
-222.41
-202.65
-178.27
-147.68
-109.67
-63.11
-7.20
57.29
126.52
193.01
247.29
281.07
290.36
277.18
248.54
213.41
179.55
151.53
130.76
116.73
108.25
103.81
101.24
97.39
88.70
72.79
49.89
23.27
-1.90
-20.59
-30.22
-31.70
-28.94
-26.89
-29.25
-37.19
-49.35
-63.02
-75.50
-84.95
-90.25
-90.44
-84.25
-70.15
-46.64
-12.58
32.63
88.39
152.13
218.55
279.80
327.11
353.43
356.14
338.13
306.58
269.75
233.89
201.45
171.42
141.21
108.46
72.07
32.08
-10.65
-54.70
-97.86
-137.21
-169.66
-193.06
-206.80
-211.88
-210.05
-202.92
-191.27
-175.16
-154.56
-130.01
-103.02
-75.97
-51.52
-31.91
-18.30
-10.52
-7.23
-6.49
-6.56
-6.53
-6.60
-7.94
-12.43
-22.17
-38.98
-63.55
-94.62
-128.40
-158.82
-179.02
-183.60
-170.65
-142.44
-104.31
-62.59
-22.42
13.14
42.82
65.89
81.14
86.64
80.45
61.80
31.88
-5.97
-46.90
-85.69
-118.04
-141.41
-155.23
-160.42
-158.68
-151.71
-140.72
-126.42
-109.10
-88.71
-64.83
-36.81
-4.29
31.80
68.61
101.43
125.02
135.45
131.79
116.47
94.44
71.34
52.04
39.90
36.89
43.99
61.08
86.45
116.21
144.46
164.65
171.50
162.94
140.81
110.15
77.28
47.37
22.92
3.49
-12.97
-28.13
-41.72
-51.34
-53.73
-46.85
-31.50
-11.46
7.90
21.75
27.64
25.96
19.12
9.94
0.22
-9.78
-20.78
-33.42
-47.15
-59.78
-67.95
-68.06
-57.48
-35.39
-3.06
36.47
78.91
119.48
153.49
177.01
187.54
184.50
169.47
145.68
117.25
88.32
62.40
42.16
29.25
24.20
26.12
32.86
41.61
49.81
55.85
58.98
58.59
53.50
42.02
23.03
-2.55
-31.14
-57.41
-76.49
-86.08
-87.30
-83.53
-78.16
-72.69
-66.19
-56.39
-41.58
-22.05
-0.28
20.04
35.48
44.11
45.87
42.11
34.66
24.99
13.84
1.53
-11.44
-23.73
-33.08
-36.83
-32.90
-20.79
-1.82
21.22
45.18
67.54
86.94
102.94
115.44
124.10
128.23
126.97
119.76
106.65
88.49
66.93
44.44
24.23
9.66
3.38
6.41
17.46
33.27
49.58
62.48
69.44
69.58
63.47
52.61
39.04
24.93
12.28
2.45
-4.16
-8.06
-10.31
-11.90
-13.21
-14.01
-13.84
-12.44
-10.03
-7.15
-4.40
-2.26
-1.07
-1.15
-2.87
-6.51
-12.01
-18.80
-25.89
-32.01
-35.98
-36.94
-34.49
-28.81
-20.61
-11.06
-1.49
7.07
14.16
20.04
25.30
30.31
34.80
37.80
38.25
35.78
31.27
26.86
25.08
27.80
35.15
45.05
53.48
55.58
47.24
26.70
-4.40
-41.18
-76.80
-104.45
-119.36
-119.89
-107.59
-86.17
-60.05
-33.02
-7.57
15.30
35.70
54.29
71.68
88.02
102.72
114.61
122.16
123.88
118.79
106.83
89.06
67.69
45.71
26.32
12.15
4.68
3.96
8.76
17.01
26.32
34.65
40.62
43.57
43.45
40.66
35.94
30.29
24.86
20.79
18.94
19.48
21.75
24.38
25.77
24.79
21.20
15.60
9.06
2.64
-2.97
-7.46
-10.64
-12.32
-12.31
-10.46
-6.83
-1.68
4.51
11.16
17.57
23.06
26.92
28.50
27.36
23.30
16.55
7.79
-1.88
-11.14
-18.63
-23.35
-24.87
-23.45
-19.91
-15.40
-11.14
-8.16
-7.17
-8.47
-11.89
-16.84
-22.27
-26.96
-29.88
-30.41
-28.61
-25.04
-20.46
-15.53
-10.67
-6.14
-2.27
0.47
1.65
1.11
-0.77
-3.18
-5.14
-5.88
-4.99
-2.47
1.45
6.33
11.47
15.83
18.20
17.56
13.59
6.96
-0.84
-8.05
-13.19
-15.47
-14.76
-11.30
-5.54
1.90
10.05
17.54
22.91
24.87
22.73
16.59
7.30
-3.69
-14.58
-23.53
-28.95
-29.91
-26.33
-19.00
-9.10
2.35
14.91
28.90
45.20
64.79
88.42
116.11
146.74
177.93
206.21
227.70
239.27
239.46
228.85
209.54
184.04
154.37
121.63
86.39
49.51
12.73
-21.20
-49.13
-68.37
-77.47
-76.65
-67.71
-53.65
-37.99
-24.01
-14.12
-9.62
-10.68
-16.64
-26.31
-38.17
-50.56
-61.83
-70.60
-76.16
-78.70
-79.28
-79.49
-80.91
-84.63
-90.82
-98.87
-107.56
-115.57
-121.82
-125.70
-127.03
-125.91
-122.42
-116.56
-108.47
-98.85
-89.26
-82.10
-79.84
-84.07
-94.35
-107.97
-120.36
-126.50
-122.38
-106.35
-79.63
-45.92
-10.39
21.78
46.66
62.42
69.27
68.94
63.55
54.77
43.39
29.50
13.09
-5.36
-24.45
-41.85
-54.63
-59.79
-54.94
-39.10
-13.33
18.99
52.61
81.67
101.10
107.82
101.20
82.86
56.18
25.81
-2.90
-24.74
-35.78
-34.62
-23.13
-6.07
10.27
20.28
20.91
12.75
-0.47
-13.37
-20.88
-20.02
-10.72
4.14
19.79
31.37
35.73
32.75
25.36
18.29
16.00
20.93
32.53
47.91
63.15
74.95
81.45
82.39
78.35
70.02
57.77
41.82
22.73
1.74
-19.36
-38.66
-54.65
-66.49
-73.68
-75.62
-71.29
-59.48
-39.56
-12.37
19.07
49.73
73.62
85.45
82.34
64.76
36.49
3.39
-28.24
-53.22
-68.54
-73.41
-68.66
-55.93
-37.13
-14.31
10.02
32.69
50.17
59.46
59.26
50.62
36.72
21.65
8.73
-0.69
-7.44
-13.46
-20.33
-28.06
-35.01
-38.86
-38.11
-33.13
-26.06
-19.79
-16.57
-16.94
-19.70
-22.70
-24.00
-22.70
-19.26
-15.06
-11.62
-9.89
-9.91
-10.90
-11.67
-11.06
-8.32
-3.36
3.21
10.21
16.23
19.98
20.77
18.75
14.88
10.65
7.38
5.67
5.03
4.26
2.21
-1.18
-4.44
-4.96
-0.13
11.26
28.28
48.09
67.04
81.85
90.20
90.62
82.12
64.22
37.71
5.41
-27.60
-55.20
-72.25
-76.62
-69.84
-56.20
-40.54
-26.34
-14.76
-5.24
3.20
10.79
16.82
20.15
20.11
16.98
11.84
5.89
-0.04
-5.82
-11.73
-18.06
-24.71
-31.21
-36.88
-41.09
-43.46
-43.93
-42.81
-40.64
-38.05
-35.56
-33.30
-30.90
-27.63
-22.78
-16.00
-7.57
1.60
10.23
17.07
21.21
22.50
21.74
20.74
22.00
28.01
40.31
58.71
81.06
103.79
122.97
135.36
139.21
134.47
122.67
106.61
89.97
76.72
70.27
72.37
82.31
96.84
111.06
120.08
120.59
111.81
95.15
73.14
48.11
21.49
-6.09
-34.11
-61.56
-86.91
-108.61
-125.92
-139.17
-149.61
-158.65
-166.94
-174.00
-178.30
-178.01
-171.84
-159.59
-142.17
-121.00
-97.27
-71.43
-43.33
-12.97
18.60
48.66
73.22
88.20
91.02
81.71
63.01
39.35
15.45
-4.83
-19.06
-26.10
-25.74
-18.46
-5.30
12.08
31.34
49.38
62.65
67.69
62.11
45.63
20.68
-7.93
-34.39
-53.70
-63.31
-63.53
-56.75
-45.96
-33.31
-19.73
-5.41
9.24
22.90
33.52
39.00
38.10
30.97
19.02
4.36
-10.88
-25.09
-37.31
-47.02
-54.06
-58.51
-60.82
-61.85
-62.56
-63.45
-64.05
-62.73
-57.34
-46.23
-29.34
-8.72
11.97
28.61
38.04
39.05
32.49
20.68
6.43
-7.81
-20.30
-29.88
-35.65
-36.73
-32.37
-22.32
-7.35
10.60
28.52
42.95
50.99
51.26
44.43
33.01
20.43
9.77
2.66
-1.01
-2.52
-3.28
-3.95
-4.08
-2.70
0.88
6.39
12.53
17.61
20.23
19.88
16.97
12.58
7.95
4.16
1.88
1.27
1.88
2.72
2.41
-0.50
-6.85
-16.39
-27.39
-36.91
-41.66
-39.11
-28.54
-11.49
8.66
27.76
42.24
50.08
51.06
46.23
37.14
25.10
10.97
-4.66
-21.03
-36.83
-50.20
-59.19
-62.39
-59.55
-51.83
-41.51
-31.24
-23.06
-17.67
-14.16
-10.36
-3.74
7.54
23.76
43.24
62.65
77.73
84.46
80.24
64.66
39.98
10.65
-17.76
-40.00
-52.59
-54.65
-47.89
-35.76
-22.19
-10.34
-2.00
2.53
4.00
3.59
2.38
1.00
-0.48
-2.55
-5.97
-11.22
-18.07
-25.35
-31.22
-33.91
-32.38
-26.69
-17.77
-7.03
4.13
14.39
22.48
27.22
27.72
23.81
16.28
6.83
-2.38
-9.40
-13.05
-13.11
-10.13
-5.07
1.03
7.21
12.54
15.85
15.74
10.80
0.40
-14.45
-30.72
-43.95
-49.73
-45.60
-32.07
-12.45
8.70
27.55
42.22
52.86
60.63
66.38
69.87
69.95
65.42
55.94
42.49
27.11
12.20
-0.21
-8.99
-13.95
-15.63
-14.94
-12.99
-10.93
-9.90
-10.95
-14.65
-20.81
-28.29
-35.23
-39.64
-40.05
-36.13
-28.80
-19.95
-11.78
-6.05
-3.65
-4.43
-7.50
-11.52
-15.01
-16.64
-15.46
-11.30
-5.04
1.46
6.03
7.12
4.78
0.82
-1.95
-1.17
3.83
11.63
19.43
24.43
24.96
21.01
13.74
4.78
-4.39
-12.66
-19.17
-23.15
-23.96
-21.27
-15.26
-6.67
3.21
12.80
20.52
25.05
25.70
22.56
16.51
8.98
1.41
-5.17
-10.42
-14.57
-18.10
-21.27
-23.92
-25.54
-25.48
-23.23
-18.72
-12.42
-5.35
1.17
5.88
7.94
7.34
4.92
2.22
1.03
2.76
7.92
15.87
24.97
33.13
38.64
40.83
40.45
39.48
40.41
45.30
54.93
68.45
83.38
96.14
102.75
99.70
84.93
58.60
23.47
-15.51
-52.32
-81.59
-100.08
-107.23
-104.83
-95.78
-82.83
-67.92
-52.20
-36.59
-22.21
-10.44
-2.41
1.41
1.52
-0.94
-4.72
-9.03
-13.76
-19.24
-25.78
-33.22
-40.71
-46.82
-49.96
-48.80
-42.71
-31.97
-17.83
-2.20
12.77
25.27
34.18
39.22
40.67
38.99
34.47
27.18
17.38
5.84
-5.93
-15.91
-22.12
-23.26
-19.08
-10.31
1.69
15.40
29.39
42.42
53.32
60.92
64.07
61.85
53.98
41.11
25.00
8.32
-6.02
-15.62
-19.45
-18.13
-13.63
-8.47
-4.66
-3.05
-3.22
-3.99
-4.22
-3.51
-2.34
-1.80
-3.03
-6.64
-12.43
-19.47
-26.48
-32.23
-35.95
-37.42
-36.93
-35.06
-32.39
-29.31
-25.89
-21.87
-16.87
-10.49
-2.65
6.33
15.60
23.90
29.89
32.50
31.43
27.24
21.34
15.47
11.05
8.76
8.28
8.61
8.66
7.89
6.56
5.62
6.13
8.73
13.19
18.44
22.82
24.56
22.22
15.10
3.59
-10.75
-25.30
-36.97
-43.08
-42.28
-35.08
-23.72
-11.27
-0.56
6.79
10.65
12.00
12.12
11.83
11.22
9.81
7.06
2.84
-2.40
-7.79
-12.52
-16.18
-18.98
-21.48
-24.28
-27.61
-31.24
-34.70
-37.52
-39.43
-40.21
-39.53
-36.92
-31.92
-24.57
-15.60
-6.31
1.94
8.40
13.27
17.45
21.93
27.08
32.37
36.60
38.57
37.75
34.55
30.12
25.85
22.77
21.26
21.09
21.62
22.10
21.86
20.42
17.48
12.99
7.19
0.64
-5.92
-11.76
-16.25
-19.08
-20.16
-19.54
-17.34
-13.71
-8.93
-3.44
2.07
6.78
9.79
10.32
7.88
2.53
-4.99
-13.28
-20.60
-25.31
-26.50
-24.19
-19.38
-13.54
-8.10
-4.03
-1.71
-1.10
-1.94
-3.91
-6.64
-9.65
-12.37
-14.32
-15.14
-14.76
-13.22
-10.61
-7.03
-2.65
2.14
6.67
10.20
12.13
12.30
11.12
9.39
8.12
8.20
10.12
13.85
18.70
23.50
26.86
27.76
25.96
22.23
18.08
15.06
13.98
14.55
15.60
15.90
14.94
13.31
12.40
13.56
17.23
22.54
27.69
30.67
30.19
26.07
19.14
10.73
2.10
-5.88
-12.79
-18.46
-22.76
-25.53
-26.59
-25.95
-23.89
-21.08
-18.47
-17.02
-17.35
-19.45
-22.54
-25.33
-26.47
-25.15
-21.45
-16.32
-11.21
-7.50
-5.99
-6.71
-9.00
-11.86
-14.23
-15.18
-14.02
-10.32
-3.99
4.54
14.27
23.76
31.38
35.74
36.13
32.64
26.17
18.14
10.07
3.26
-1.49
-4.01
-4.66
-4.09
-2.97
-1.84
-1.00
-0.59
-0.62
-1.08
-1.85
-2.69
-3.28
-3.40
-3.08
-2.66
-2.68
-3.56
-5.37
-7.70
-9.91
-11.36
-11.72
-11.10
-9.83
-8.39
-7.10
-6.14
-5.48
-4.89
-4.02
-2.45
0.13
3.76
8.04
12.26
15.62
17.59
18.13
17.58
16.38
14.71
12.43
9.25
5.10
0.31
-4.38
-8.18
-10.52
-11.19
-10.22
-7.72
-3.86
0.95
5.91
9.90
11.85
11.20
8.25
4.03
-0.21
-3.56
-5.75
-7.05
-7.84
-8.23
-7.92
-6.49
-3.69
0.21
4.46
8.10
10.28
10.56
9.08
6.37
3.24
0.46
-1.51
-2.66
-3.43
-4.53
-6.61
-9.96
-14.36
-19.19
-23.67
-27.07
-28.89
-28.75
-26.32
-21.33
-13.76
-4.10
6.59
16.80
24.98
30.00
31.45
29.65
25.46
19.95
14.26
9.36
6.03
4.64
5.08
6.77
8.81
10.26
10.38
8.72
5.15
-0.22
-6.94
-14.09
-20.39
-24.49
-25.57
-23.81
-20.47
-17.42
-16.19
-17.26
-19.80
-22.05
-22.28
-19.55
-14.17
-7.49
-1.24
3.12
4.90
4.26
2.03
-0.72
-3.03
-4.32
-4.40
-3.51
-2.09
-0.62
0.52
1.17
1.35
1.13
0.53
-0.49
-1.95
-3.65
-5.02
-5.22
-3.46
0.60
6.57
13.28
19.24
23.11
24.15
22.42
18.60
13.64
8.45
3.73
0.04
-2.16
-2.41
-0.46
3.52
8.68
13.56
16.39
15.82
11.52
4.43
-3.53
-10.27
-14.41
-15.78
-15.23
-13.95
-12.77
-11.71
-10.18
-7.55
-3.73
0.56
4.11
5.72
4.75
1.38
-3.50
-8.69
-13.11
-16.14
-17.76
-18.43
-18.72
-19.01
-19.18
-18.68
-16.82
-13.22
-8.12
-2.41
2.71
6.31
8.11
8.60
8.67
9.19
10.58
12.71
15.02
16.86
17.72
17.42
16.13
14.30
12.62
11.78
12.22
13.99
16.70
19.68
22.29
24.05
24.62
23.66
20.67
15.21
7.27
-2.45
-12.49
-21.13
-27.02
-29.79
-29.96
-28.53
-26.20
-23.08
-18.75
-12.85
-5.62
1.94
8.44
12.68
14.18
13.29
10.90
7.98
5.20
2.76
0.51
-1.90
-4.68
-7.73
-10.50
-11.96
-10.96
-6.69
0.82
10.46
20.28
28.25
32.98
34.16
32.47
29.03
24.79
20.12
14.90
8.93
2.33
-4.27
-9.80
-13.08
-13.23
-9.95
-3.61
4.80
13.91
22.20
28.20
30.58
28.31
20.85
8.46
-7.54
-24.81
-40.52
-52.09
-58.03
-58.27
-53.88
-46.45
-37.37
-27.54
-17.44
-7.56
1.38
8.48
12.98
14.65
13.92
11.69
8.98
6.55
4.75
3.53
2.73
2.23
2.08
2.57
4.18
7.46
12.84
20.45
29.85
39.99
49.38
56.50
60.25
60.31
57.24
52.31
47.10
43.13
41.53
42.73
46.37
51.35
56.15
59.50
60.99
61.36
62.30
65.77
72.93
83.45
95.12
104.21
106.22
96.95
73.67
36.32
-11.80
-64.19
-112.54
-149.07
-168.90
-171.50
-160.43
-141.51
-120.37
-100.72
-83.84
-69.44
-57.02
-46.66
-39.10
-34.93
-33.94
-34.85
-35.91
-35.69
-33.74
-30.71
-27.87
-26.36
-26.62
-28.18
-29.93
-30.64
-29.44
-26.13
-21.18
-15.48
-10.02
-5.58
-2.53
-0.87
-0.31
-0.42
-0.69
-0.62
0.27
2.41
5.98
10.78
16.15
21.17
24.98
27.19
28.03
28.23
28.66
29.94
32.27
35.42
38.85
41.83
43.42
42.55
38.29
30.24
18.87
5.65
-7.35
-18.12
-25.46
-29.23
-30.22
-29.56
-28.19
-26.56
-24.68
-22.49
-20.17
-18.17
-17.05
-17.15
-18.37
-20.16
-21.81
-22.77
-22.90
-22.56
-22.38
-23.00
-24.70
-27.21
-29.71
-31.00
-29.85
-25.48
-17.91
-8.13
2.24
11.54
18.78
24.08
28.54
33.57
40.01
47.46
54.27
58.20
57.50
51.70
41.90
30.32
19.38
10.86
5.43
2.63
1.46
0.88
0.31
-0.22
-0.37
0.24
1.59
3.22
4.26
3.83
1.32
-3.28
-9.42
-16.12
-22.28
-27.01
-29.77
-30.31
-28.68
-25.05
-19.71
-13.16
-6.11
0.50
5.65
8.46
8.41
5.52
0.36
-6.08
-12.57
-17.98
-21.51
-22.90
-22.46
-21.02
-19.64
-19.18
-19.94
-21.45
-22.56
-21.93
-18.57
-12.30
-3.82
5.48
14.05
20.68
24.82
26.58
26.48
25.15
23.05
20.50
17.77
15.17
13.10
11.92
11.71
12.22
12.98
13.50
13.49
12.98
12.09
10.68
8.28
4.21
-1.98
-10.00
-18.68
-26.36
-31.61
-33.86
-33.69
-32.47
-31.58
-31.66
-32.34
-32.43
-30.64
-26.26
-19.50
-11.44
-3.52
2.96
7.22
9.10
8.86
7.03
4.20
0.94
-2.23
-4.85
-6.61
-7.46
-7.57
-7.33
-7.16
-7.34
-7.89
-8.54
-8.79
-8.10
-6.07
-2.59
2.04
7.23
12.27
16.53
19.71
21.80
23.05
23.77
24.26
24.74
25.35
26.15
27.05
27.79
28.01
27.49
26.28
24.85
23.81
23.55
23.89
23.97
22.69
19.24
13.60
6.54
-0.75
-7.38
-13.02
-17.92
-22.36
-26.17
-28.62
-28.75
-26.02
-20.81
-14.43
-8.65
-4.98
-4.12
-5.78
-9.03
-12.76
-16.14
-18.79
-20.72
-22.17
-23.45
-24.79
-26.24
-27.56
-28.12
-27.01
-23.30
-16.47
-6.76
4.72
16.24
25.95
32.35
34.77
33.40
29.15
23.40
17.59
12.94
10.27
9.80
11.29
14.16
17.78
21.67
25.58
29.39
32.87
35.62
37.06
36.55
33.58
27.88
19.52
9.07
-2.43
-13.57
-22.86
-29.21
-32.29
-32.65
-31.41
-29.67
-27.94
-26.01
-23.08
-18.43
-11.81
-3.73
4.72
12.27
17.81
20.66
20.57
17.69
12.48
5.67
-1.86
-9.13
-15.30
-19.85
-22.71
-24.28
-25.25
-26.21
-27.44
-28.74
-29.51
-29.11
-27.12
-23.58
-18.94
-13.84
-8.79
-4.11
0.01
3.41
5.88
7.24
7.55
7.19
6.86
7.40
9.46
13.22
18.41
24.38
30.41
35.94
40.66
44.38
46.99
48.15
47.41
44.47
39.47
33.11
26.41
20.19
14.66
9.72
4.94
0.05
-4.68
-8.55
-10.69
-10.61
-8.60
-5.45
-1.56
2.92
8.19
14.52
21.91
29.88
37.69
44.14
48.76
52.78
57.78
65.01
74.74
86.04
97.45
108.13
118.04
129.04
144.80
168.08
199.60
238.03
280.71
324.84
368.32
408.79
435.05
437.44
409.80
354.00
280.62
203.89
135.69
84.89
47.94
19.88
-0.64
-14.48
-23.19
-29.46
-35.63
-43.97
-56.48
-75.62
-100.87
-126.70
-149.07
-167.23
-182.37
-197.70
-215.09
-235.75
-261.75
-292.11
-319.74
-340.38
-354.50
-364.54
-375.21
-388.91
-408.67
-439.55
-482.95
-530.61
-573.89
-606.16
-621.28
-617.22
-592.59
-530.97
-429.92
-327.47
-238.20
-154.08
-70.86
21.67
108.29
185.87
247.37
284.00
292.12
279.68
256.79
230.79
207.77
185.11
160.89
131.88
97.76
61.68
33.49
20.53
24.22
42.08
67.50
96.03
123.18
145.56
162.33
176.86
190.62
201.47
205.89
199.90
183.52
158.65
128.25
95.29
62.79
31.51
0.60
-29.91
-58.60
-81.84
-96.69
-102.22
-99.84
-91.77
-80.47
-67.73
-54.07
-39.49
-23.75
-7.43
8.25
21.76
31.83
37.64
38.77
35.00
26.27
12.80
-4.69
-24.89
-45.99
-65.89
-82.50
-93.95
-98.69
-95.44
-83.47
-62.95
-35.39
-3.63
28.79
58.60
83.53
102.56
115.35
121.54
120.43
111.43
94.92
73.04
49.42
28.15
12.29
2.92
-0.88
-1.13
0.24
2.17
4.68
8.47
14.32
22.44
32.15
41.82
49.13
51.62
47.47
36.12
18.64
-2.37
-23.51
-41.57
-54.37
-61.15
-62.40
-59.24
-52.84
-44.05
-33.56
-22.18
-11.14
-2.02
3.68
5.17
2.77
-2.12
-7.50
-11.60
-13.48
-13.22
-11.65
-9.76
-8.18
-6.89
-5.37
-3.04
0.34
4.40
8.24
10.76
11.08
8.96
4.90
0.06
-4.05
-5.90
-4.35
1.01
9.73
20.38
30.81
38.51
41.33
38.18
29.46
17.15
4.19
-6.47
-12.84
-14.46
-12.29
-8.08
-3.53
0.28
3.04
4.95
6.28
7.17
7.65
7.85
8.13
9.00
10.84
13.50
16.22
17.72
16.67
12.14
4.12
-6.45
-17.80
-27.87
-35.03
-38.57
-38.97
-37.55
-35.87
-35.02
-35.12
-35.42
-34.67
-31.82
-26.43
-18.83
-9.95
-0.91
7.30
14.00
18.92
22.13
23.97
24.93
25.54
26.17
26.97
27.84
28.48
28.60
28.00
26.61
24.58
22.13
19.51
16.92
14.52
12.46
10.90
10.02
10.01
10.93
12.57
14.52
16.10
16.69
15.89
13.67
10.43
6.78
3.32
0.37
-2.11
-4.43
-7.10
-10.51
-14.87
-20.00
-25.36
-30.11
-33.21
-33.64
-30.59
-23.75
-13.52
-1.05
11.84
23.12
31.00
34.45
33.51
29.09
22.62
15.49
8.67
2.72
-2.04
-5.27
-6.61
-5.91
-3.57
-0.61
1.51
1.54
-1.05
-5.77
-11.30
-16.07
-18.94
-19.56
-18.43
-16.46
-14.52
-13.14
-12.44
-12.30
-12.54
-13.02
-13.59
-13.99
-13.83
-12.75
-10.60
-7.52
-3.89
-0.13
3.56
7.26
11.25
15.71
20.46
24.85
27.90
28.65
26.59
21.94
15.65
9.10
3.53
-0.41
-2.85
-4.51
-6.23
-8.46
-11.01
-13.27
-14.55
-14.53
-13.41
-11.82
-10.47
-9.83
-10.06
-11.05
-12.51
-14.16
-15.69
-16.80
-17.19
-16.58
-14.76
-11.66
-7.37
-2.13
3.67
9.50
14.73
18.77
21.14
21.67
20.56
18.28
15.49
12.84
10.80
9.60
9.16
9.24
9.51
9.73
9.87
10.10
10.67
11.76
13.29
14.88
15.95
15.91
14.31
11.03
6.27
0.58
-5.26
-10.35
-13.87
-15.26
-14.40
-11.64
-7.67
-3.29
0.82
4.28
6.92
8.77
9.85
10.17
9.78
8.76
7.32
5.70
4.16
2.89
1.96
1.35
0.93
0.60
0.28
-0.02
-0.25
-0.33
-0.27
-0.19
-0.34
-0.98
-2.29
-4.31
-6.92
-9.88
-12.84
-15.37
-16.94
-17.01
-15.16
-11.31
-5.78
0.71
7.29
13.17
17.92
21.40
23.73
25.12
25.69
25.57
24.92
23.95
22.90
21.98
21.26
20.66
20.04
19.28
18.33
17.23
16.04
14.80
13.53
12.19
10.73
9.06
7.06
4.62
1.63
-1.93
-5.93
-10.06
-13.84
-16.70
-18.10
-17.67
-15.34
-11.40
-6.42
-1.16
3.68
7.61
10.41
12.13
12.90
12.88
12.12
10.66
8.56
5.99
3.22
0.60
-1.62
-3.28
-4.38
-5.02
-5.30
-5.28
-5.01
-4.50
-3.82
-3.09
-2.48
-2.16
-2.29
-2.96
-4.21
-5.94
-7.93
-9.82
-11.12
-11.39
-10.34
-7.97
-4.56
-0.63
3.29
6.74
9.49
11.45
12.64
13.18
13.15
12.71
11.99
11.15
10.34
9.67
9.25
9.12
9.31
9.70
10.12
10.33
10.16
9.56
8.61
7.46
6.21
4.84
3.22
1.22
-1.19
-3.92
-6.74
-9.38
-11.53
-12.92
-13.27
-12.38
-10.22
-6.95
-3.00
1.07
4.68
7.46
9.29
10.27
10.65
10.58
10.15
9.33
8.09
6.53
4.81
3.20
1.93
1.12
0.75
0.67
0.75
0.88
1.03
1.21
1.44
1.66
1.79
1.70
1.28
0.41
-0.93
-2.71
-4.75
-6.71
-8.14
-8.59
-7.76
-5.66
-2.58
0.98
4.43
7.34
9.43
10.60
10.89
10.37
9.21
7.64
5.88
4.18
2.67
1.39
0.29
-0.70
-1.58
-2.33
-2.87
-3.15
-3.19
-3.07
-2.93
-2.88
-2.95
-3.18
-3.51
-3.94
-4.48
-5.16
-6.04
-7.06
-8.08
-8.78
-8.81
-7.88
-5.93
-3.14
0.05
3.11
5.62
7.36
8.36
8.78
8.79
8.50
7.91
7.05
5.98
4.89
3.99
3.40
3.16
3.14
3.17
3.10
2.86
2.45
1.93
1.39
0.89
0.47
0.13
-0.18
-0.52
-0.97
-1.59
-2.35
-3.15
-3.82
-4.11
-3.81
-2.80
-1.10
1.13
3.60
6.00
8.09
9.74
10.94
11.75
12.18
12.27
12.01
11.48
10.80
10.16
9.70
9.51
9.57
9.73
9.75
9.41
8.64
7.63
6.89
7.04
8.65
11.89
16.40
21.26
25.25
27.20
26.31
22.39
15.89
7.76
-0.84
-8.74
-15.08
-19.45
-21.87
-22.74
-22.58
-21.91
-21.07
-20.27
-19.57
-18.97
-18.49
-18.09
-17.70
-17.25
-16.64
-15.80
-14.81
-13.75
-12.80
-12.04
-11.51
-11.10
-10.65
-9.99
-9.06
-7.90
-6.67
-5.59
-4.83
-4.47
-4.51
-4.90
-5.55
-6.36
-7.14
-7.67
-7.65
-6.80
-5.01
-2.42
0.60
3.57
6.02
7.67
8.47
8.55
8.13
7.41
6.54
5.57
4.56
3.58
2.72
2.07
1.69
1.54
1.47
1.33
1.02
0.55
0.03
-0.38
-0.58
-0.56
-0.43
-0.34
-0.44
-0.85
-1.61
-2.74
-4.19
-5.84
-7.41
-8.55
-8.87
-8.14
-6.34
-3.78
-0.94
1.60
3.43
4.44
4.80
4.90
5.13
5.73
6.65
7.64
8.35
8.53
8.12
7.30
6.37
5.56
5.00
4.69
4.57
4.59
4.74
5.01
5.36
5.71
5.98
6.13
6.15
6.09
6.02
5.99
6.01
6.07
6.18
6.39
6.77
7.41
8.39
9.74
11.42
13.32
15.28
17.10
18.64
19.87
20.81
21.57
22.26
22.96
23.69
24.47
25.27
26.10
26.97
27.90
28.86
29.73
30.28
30.12
28.81
25.89
21.03
14.15
5.40
-4.78
-15.70
-26.50
-36.26
-44.14
-49.64
-52.64
-53.53
-53.03
-51.92
-50.81
-49.94
-49.19
-48.13
-46.35
-43.58
-39.81
-35.21
-30.07
-24.67
-19.28
-14.17
-9.55
-5.60
-2.47
-0.21
1.21
1.92
2.14
2.13
2.10
2.41
3.28
4.78
6.75
8.85
10.78
12.35
13.60
14.67
16.29
18.96
22.75
27.17
31.33
34.47
36.29
37.06
37.36
38.82
42.61
48.94
56.82
64.52
70.42
73.81
74.95
74.71
75.75
80.28
89.15
101.40
114.62
126.13
134.11
138.23
139.80
143.75
155.57
179.33
215.74
261.61
310.94
356.96
393.93
404.21
376.34
307.98
208.65
96.05
-12.04
-104.07
-175.84
-228.29
-264.67
-286.48
-294.95
-291.79
-279.94
-263.46
-246.38
-231.50
-220.13
-212.34
-205.68
-197.56
-186.22
-171.51
-154.83
-138.28
-123.74
-112.48
-105.01
-100.03
-95.62
-89.85
-81.68
-71.26
-59.69
-48.49
-39.29
-33.25
-30.41
-30.31
-32.20
-35.17
-37.76
-37.93
-32.80
-20.19
-0.02
25.18
50.56
70.65
81.47
82.28
75.66
66.05
57.51
51.97
48.96
46.65
43.57
39.42
35.51
33.74
35.32
39.98
46.06
51.49
55.06
57.26
59.43
63.41
70.27
79.44
88.95
96.29
99.80
99.45
97.07
94.76
94.34
96.54
100.27
103.05
101.88
93.98
76.86
53.01
23.89
-8.36
-40.43
-67.94
-86.36
-92.68
-86.86
-72.15
-53.71
-37.03
-24.89
-16.86
-10.40
-3.05
5.81
14.61
20.81
22.60
19.60
13.43
6.54
0.90
-2.83
-5.24
-7.70
-11.31
-16.46
-23.30
-31.72
-41.85
-54.13
-68.94
-85.97
-103.77
-119.80
-131.20
-135.93
-133.47
-125.11
-113.48
-101.56
-91.79
-85.41
-82.43
-82.02
-83.05
-84.48
-85.56
-86.03
-86.04
-86.02
-86.41
-87.23
-87.89
-87.25
-84.17
-78.08
-69.46
-59.64
-50.26
-42.32
-35.86
-30.00
-23.75
-16.68
-9.41
-3.31
0.21
0.43
-2.37
-7.07
-12.37
-17.34
-21.81
-26.28
-31.56
-38.37
-47.07
-57.52
-69.18
-81.15
-92.17
-100.83
-105.70
-105.72
-100.49
-90.57
-77.29
-62.56
-48.38
-36.40
-27.59
-22.18
-19.64
-18.85
-18.42
-16.93
-13.22
-6.71
2.45
13.41
24.79
35.10
43.27
48.98
52.80
55.92
59.62
64.74
71.33
78.71
85.84
91.84
96.31
99.44
101.75
103.78
105.83
107.89
109.77
111.35
112.66
113.93
115.48
117.65
120.68
124.75
129.93
136.11
142.89
149.62
155.49
159.84
162.42
163.38
163.15
162.07
160.20
157.40
153.69
149.49
145.50
142.36
140.16
138.18
135.21
130.16
122.74
113.76
104.95
98.29
95.38
96.97
102.92
112.29
123.54
134.74
143.74
148.66
148.31
142.68
133.05
121.62
110.81
102.45
97.29
94.89
94.12
93.70
92.79
91.05
88.50
85.26
81.34
76.74
71.55
66.10
60.89
56.33
52.30
48.11
42.55
34.47
23.25
9.24
-6.38
-22.06
-36.59
-49.61
-61.73
-74.22
-88.43
-105.35
-125.19
-147.34
-170.27
-191.71
-208.98
-219.70
-222.58
-218.06
-208.39
-196.87
-186.62
-179.37
-174.89
-171.43
-166.80
-159.75
-150.63
-141.25
-133.88
-130.06
-129.71
-131.24
-132.41
-131.47
-128.15
-123.81
-120.55
-120.13
-122.84
-127.41
-131.60
-133.44
-132.17
-128.55
-124.26
-120.86
-118.92
-117.83
-116.35
-113.50
-109.50
-105.94
-105.31
-110.09
-121.94
-141.22
-166.98
-197.27
-229.26
-259.41
-283.68
-297.87
-298.49
-283.61
-253.58
-211.15
-160.97
-108.62
-59.57
-18.18
12.84
32.53
41.59
41.88
35.90
26.54
16.67
9.04
6.05
9.30
19.20
34.65
53.26
72.04
88.32
100.49
108.30
112.49
114.20
114.54
114.36
114.48
115.81
119.35
125.75
134.75
144.99
154.20
160.05
161.29
158.49
154.09
151.70
154.72
165.13
182.76
205.39
229.54
251.61
268.71
279.09
282.18
278.22
268.02
252.71
233.76
212.87
191.81
172.07
154.57
139.34
125.62
112.06
97.22
80.05
60.15
37.92
14.26
-9.67
-32.91
-54.91
-75.61
-95.37
-114.80
-134.60
-155.37
-177.47
-200.74
-224.42
-247.11
-266.93
-282.10
-291.32
-294.22
-291.29
-283.51
-271.90
-257.18
-239.63
-219.44
-196.96
-172.96
-148.47
-124.61
-102.35
-82.38
-65.14
-50.86
-39.45
-30.33
-22.49
-14.71
-6.02
3.74
13.01
19.90
23.12
22.46
18.69
13.31
7.79
3.49
1.45
1.30
2.41
4.30
6.56
8.36
8.56
5.62
-1.45
-12.70
-29.09
-49.94
-72.40
-92.64
-107.71
-116.07
-118.70
-117.38
-113.97
-115.26
-124.90
-141.15
-158.66
-172.81
-180.62
-183.97
-185.41
-187.03
-201.03
-233.66
-280.49
-329.74
-370.81
-396.14
-408.16
-411.10
-409.61
-425.76
-473.67
-551.09
-643.81
-737.97
-821.38
-893.73
-953.51
-997.16
-1043.45
-1103.31
-1170.69
-1229.19
-1267.48
-1279.62
-1276.52
-1267.29
-1115.93
-774.67
-308.17
157.23
531.53
756.97
887.82
963.22
1006.70
1032.17
1030.01
992.26
928.23
859.14
802.44
770.06
755.95
754.03
760.91
758.04
735.40
699.55
667.46
652.46
661.15
683.01
705.26
717.77
704.77
660.92
595.85
527.51
470.61
433.50
412.19
401.09
396.36
391.25
381.86
369.01
355.90
344.53
336.12
328.57
320.56
311.19
297.40
275.61
244.49
205.30
160.55
112.76
62.92
12.60
-35.20
-75.57
-103.91
-116.46
-112.42
-95.25
-72.86
-55.14
-49.95
-61.13
-87.72
-126.86
-173.73
-222.39
-266.49
-301.10
-323.43
-332.77
-331.31
-314.08
-282.53
-245.20
-211.71
-185.00
-161.19
-135.93
-104.37
-67.06
-29.35
-0.95
9.21
-6.91
-49.97
-113.01
-182.86
-243.34
-280.67
-287.30
-264.75
-220.76
-164.99
-105.07
-45.34
12.99
70.93
129.80
190.87
254.66
321.84
393.03
467.25
539.77
601.98
644.09
658.79
644.42
605.57
551.52
492.38
436.17
386.78
344.36
307.03
272.64
239.88
208.06
176.89
145.77
114.31
82.57
51.11
20.76
-7.83
-34.61
-60.09
-84.97
-110.35
-136.26
-161.25
-182.84
-198.77
-207.87
-210.54
-208.37
-203.48
-199.81
-200.04
-204.33
-210.57
-216.00
-218.39
-216.54
-210.09
-199.39
-189.28
-183.61
-182.73
-183.78
-183.50
-180.09
-173.44
-164.19
-152.98
-146.68
-150.18
-163.33
-181.69
-200.84
-218.59
-234.91
-250.06
-263.82
-284.18
-316.97
-362.08
-414.15
-467.97
-521.27
-575.02
-630.91
-637.52
-567.79
-434.55
-281.10
-145.53
-42.96
29.10
78.97
115.45
145.42
164.87
170.09
162.88
150.38
136.13
126.32
122.56
124.16
129.82
131.71
124.05
106.66
84.42
62.78
45.55
33.52
26.42
23.64
20.96
14.42
3.32
-9.68
-21.21
-28.63
-31.38
-29.88
-24.83
-18.70
-12.90
-6.67
1.91
13.75
27.76
40.80
49.75
53.19
51.05
44.99
37.40
30.18
24.05
19.31
16.72
17.97
24.96
38.01
54.78
70.72
81.14
83.29
77.78
67.99
58.10
51.29
48.64
49.63
53.11
57.65
61.39
61.45
54.52
38.26
13.10
-17.11
-46.17
-68.23
-80.27
-82.98
-79.87
-74.89
-70.40
-66.61
-62.56
-57.49
-51.82
-46.78
-43.45
-41.85
-40.89
-39.11
-35.46
-30.03
-23.98
-18.73
-15.24
-13.47
-12.56
-11.28
-8.78
-4.88
-0.10
4.81
9.35
13.47
17.55
22.01
27.08
32.62
38.28
43.68
48.68
53.54
58.80
65.11
72.94
82.38
93.13
104.63
116.27
127.60
138.47
149.09
159.94
171.84
185.83
202.97
223.76
247.37
271.36
291.90
304.91
307.61
299.57
282.97
261.63
239.41
218.87
200.78
184.61
169.46
154.89
141.05
128.30
116.78
106.10
95.55
84.54
72.93
61.13
49.94
40.11
32.02
25.49
19.88
14.42
8.53
2.07
-4.60
-10.82
-16.02
-19.96
-22.84
-25.18
-27.48
-30.01
-32.68
-35.17
-37.15
-38.48
-39.23
-39.65
-39.90
-39.99
-39.75
-38.93
-37.37
-35.08
-32.25
-29.20
-26.30
-23.91
-22.29
-21.53
-21.52
-21.98
-22.57
-23.00
-23.19
-23.28
-23.50
-24.05
-25.05
-26.45
-28.15
-30.09
-32.29
-34.77
-37.56
-40.57
-43.63
-46.57
-49.20
-51.35
-52.86
-53.50
-53.06
-51.39
-48.54
-44.86
-41.08
-38.13
-36.95
-38.07
-41.22
-45.30
-48.63
-49.60
-47.33
-42.04
-35.03
-28.07
-22.78
-20.05
-19.95
-22.00
-25.61
-30.43
-36.41
-43.73
-52.59
-63.24
-76.01
-91.48
-110.27
-132.61
-157.74
-183.69
-207.47
-225.97
-237.07
-240.42
-237.59
-231.30
-224.34
-218.63
-214.73
-212.13
-209.73
-206.36
-200.97
-192.51
-179.70
-161.17
-135.85
-103.59
-65.78
-25.30
13.96
48.22
74.83
92.97
103.60
108.81
110.82
111.15
110.34
108.22
104.47
99.23
93.36
88.28
85.48
86.11
90.52
98.31
108.32
118.97
128.49
135.15
137.54
134.83
127.00
114.93
100.09
84.10
68.18
52.79
37.60
21.87
4.94
-13.32
-32.37
-51.05
-67.89
-81.31
-89.88
-92.45
-88.30
-77.38
-60.41
-38.89
-14.80
9.80
33.19
54.13
71.75
85.33
94.12
97.47
95.28
88.37
78.78
69.37
63.14
62.28
68.07
79.89
95.34
110.92
122.85
128.90
128.27
121.34
109.49
95.09
80.28
66.21
52.74
38.56
22.83
5.44
-12.66
-29.37
-40.55
-43.10
-36.50
-23.06
-7.52
7.09
19.18
28.50
35.88
46.15
61.92
81.66
100.39
110.48
110.93
104.24
94.37
86.21
92.10
120.25
170.64
234.94
296.19
346.55
381.88
400.39
404.68
413.67
443.36
498.60
571.18
638.77
693.35
732.79
757.63
772.91
802.23
862.03
952.40
1057.18
1145.04
1207.19
1245.19
1264.16
1165.89
907.02
515.81
79.54
-249.89
-475.59
-625.02
-718.67
-784.09
-826.96
-828.89
-777.88
-678.06
-549.79
-429.01
-330.65
-260.87
-222.90
-233.45
-282.79
-348.74
-405.78
-439.73
-459.38
-469.92
-475.06
-482.27
-492.09
-491.91
-474.21
-440.61
-401.55
-372.42
-357.75
-357.02
-368.52
-388.16
-406.73
-420.43
-428.80
-433.12
-436.14
-435.30
-427.86
-414.60
-399.05
-385.38
-382.59
-396.72
-427.20
-467.08
-504.34
-528.01
-532.73
-518.89
-471.24
-391.57
-295.41
-202.43
-124.41
-63.14
-15.77
19.84
44.52
61.67
71.68
77.46
84.37
98.00
121.50
155.24
193.86
232.85
268.60
295.83
311.74
316.63
313.15
304.76
294.88
286.72
283.62
287.91
298.36
312.68
328.33
342.82
353.75
359.16
358.03
350.67
337.72
318.78
293.93
264.72
234.50
207.59
187.58
175.52
169.40
164.48
155.15
137.89
112.86
83.33
53.52
26.30
2.00
-21.12
-45.56
-72.96
-103.13
-134.03
-162.48
-185.26
-200.24
-206.99
-206.79
-202.20
-196.04
-190.22
-185.12
-179.56
-171.68
-159.96
-144.12
-125.26
-105.36
-86.43
-69.86
-56.17
-45.19
-36.51
-29.74
-24.65
-21.08
-18.71
-17.00
-15.19
-12.59
-8.80
-3.97
1.29
6.18
10.26
13.75
17.49
22.41
28.84
36.08
42.49
46.17
45.68
40.61
31.39
18.95
4.12
-12.54
-30.61
-49.52
-68.37
-86.12
-101.80
-114.79
-124.67
-131.03
-133.41
-131.59
-126.11
-118.60
-111.60
-107.73
-108.57
-114.00
-122.14
-130.22
-135.84
-138.01
-137.43
-135.94
-135.18
-135.44
-135.01
-130.65
-118.82
-97.27
-66.10
-27.93
12.94
51.81
84.65
108.58
121.81
123.54
114.29
96.48
74.87
55.99
46.56
51.18
70.57
100.99
135.46
166.06
186.47
193.71
188.59
174.79
157.23
140.27
126.41
115.79
106.60
96.11
81.74
61.86
35.96
4.51
-31.32
-69.86
-108.98
-146.33
-179.70
-207.60
-229.66
-246.53
-259.27
-268.56
-274.21
-275.21
-270.48
-259.68
-243.66
-224.31
-203.82
-183.88
-165.30
-148.13
-132.07
-117.01
-103.18
-90.99
-80.64
-71.90
-64.26
-57.21
-50.54
-44.28
-38.38
-32.27
-24.84
-14.72
-1.00
16.24
35.69
55.18
72.39
85.50
93.58
96.68
95.56
91.35
85.26
78.40
71.58
65.23
59.53
54.45
50.00
46.34
43.77
42.54
42.62
43.50
44.34
44.19
42.39
38.76
33.73
28.09
22.73
18.45
15.78
14.94
15.79
17.85
20.33
22.35
23.29
23.05
22.28
22.20
24.15
29.11
37.28
48.01
60.08
72.12
82.99
92.01
98.87
103.50
105.91
106.15
104.34
100.77
95.92
90.39
84.71
79.19
73.91
68.73
63.57
58.50
53.80
49.88
47.02
45.28
44.36
43.74
42.88
41.41
39.25
36.52
33.45
30.15
26.57
22.41
17.30
10.85
2.80
-6.86
-17.82
-29.26
-39.99
-48.54
-53.61
-54.51
-51.51
-45.84
-39.26
-33.48
-29.61
-27.85
-27.71
-28.40
-29.23
-29.86
-30.22
-30.39
-30.44
-30.38
-30.22
-29.98
-29.78
-29.71
-29.83
-30.07
-30.32
-30.42
-30.32
-30.01
-29.59
-29.25
-29.09
-29.18
-29.51
-30.07
-30.85
-31.92
-33.42
-35.50
-38.15
-41.04
-43.44
-44.28
-42.49
-37.40
-29.12
-18.61
-7.38
2.91
11.08
16.67
19.88
21.33
21.60
21.07
19.86
18.02
15.64
12.94
10.18
7.59
5.33
3.41
1.82
0.53
-0.49
-1.27
-1.86
-2.36
-2.90
-3.58
-4.51
-5.76
-7.35
-9.28
-11.51
-14.04
-16.87
-20.03
-23.52
-27.16
-30.42
-32.46
-32.27
-29.03
-22.46
-13.04
-1.89
9.52
19.81
28.05
33.87
37.37
38.96
39.06
38.08
36.29
33.97
31.39
28.84
26.58
24.76
23.34
22.19
21.10
19.94
18.73
17.59
16.65
15.90
15.16
14.14
12.59
10.46
7.94
5.33
2.88
0.60
-1.69
-4.40
-7.90
-12.47
-18.03
-24.12
-29.80
-33.86
-35.06
-32.61
-26.42
-17.29
-6.58
4.19
13.84
21.75
27.87
32.43
35.66
37.70
38.60
38.47
37.53
36.13
34.58
33.12
31.83
30.59
29.20
27.41
25.09
22.29
19.30
16.53
14.36
12.96
12.15
11.46
10.35
8.40
5.54
1.99
-1.83
-5.52
-8.83
-11.72
-14.33
-16.95
-19.95
-23.76
-28.66
-34.63
-41.07
-46.88
-50.70
-51.40
-48.65
-42.99
-35.75
-28.46
-22.27
-17.65
-14.38
-12.01
-10.25
-9.29
-9.73
-12.15
-16.71
-22.82
-29.32
-34.88
-38.65
-40.56
-41.39
-42.27
-44.24
-47.90
-53.42
-60.52
-68.40
-75.61
-80.04
-79.54
-72.80
-60.40
-44.92
-30.14
-19.30
-13.54
-11.27
-9.03
-3.30
7.68
23.16
40.42
56.25
68.37
76.10
80.17
81.88
82.36
82.30
82.06
82.05
82.97
85.73
91.07
99.15
109.37
120.55
131.21
140.06
146.27
149.56
150.11
148.30
144.46
138.66
130.77
120.62
108.31
94.45
80.15
66.71
55.24
46.24
39.48
34.14
29.03
22.97
14.97
4.48
-8.56
-23.67
-39.92
-56.13
-71.20
-84.39
-95.43
-104.41
-111.54
-117.04
-121.02
-123.67
-125.32
-126.48
-127.63
-128.90
-129.86
-129.50
-126.44
-119.35
-107.27
-89.85
-67.31
-40.38
-10.06
22.27
54.84
85.50
111.94
132.19
145.23
151.39
152.36
150.70
149.04
149.31
152.43
158.26
165.95
174.29
181.85
187.17
188.83
185.79
177.82
165.62
150.71
134.80
119.21
104.46
90.39
76.57
62.79
49.25
36.40
24.49
13.35
2.41
-8.94
-21.00
-33.60
-46.20
-58.31
-69.76
-80.72
-91.54
-102.34
-112.77
-122.12
-129.64
-134.98
-138.56
-141.36
-144.39
-148.13
-152.22
-155.63
-157.04
-155.41
-150.35
-142.10
-131.44
-119.47
-107.59
-97.38
-90.49
-88.20
-91.02
-98.42
-108.92
-120.46
-130.86
-138.21
-140.81
-137.19
-126.16
-107.24
-81.16
-50.22
-17.96
11.65
35.54
52.53
63.51
70.74
76.60
82.54
88.56
93.54
96.13
95.40
91.31
84.57
76.19
67.13
58.10
49.51
41.50
33.96
26.70
19.60
12.97
7.72
5.43
7.92
16.55
31.53
51.50
73.45
93.29
106.79
110.67
103.41
85.52
59.14
27.14
-7.71
-43.13
-77.32
-108.51
-134.78
-154.18
-165.26
-167.61
-162.08
-150.72
-136.35
-122.16
-111.29
-106.53
-109.84
-121.81
-141.28
-165.66
-191.77
-216.78
-238.86
-257.18
-271.32
-280.64
-284.27
-281.55
-272.66
-259.00
-242.68
-225.70
-208.90
-191.74
-172.52
-149.48
-121.67
-89.62
-55.23
-21.09
10.30
37.26
59.25
76.75
90.95
103.24
114.83
126.56
138.71
151.04
162.80
172.97
180.51
184.76
185.65
183.70
179.81
174.93
169.76
164.71
159.95
155.57
151.58
147.90
144.38
140.76
136.80
132.44
127.88
123.56
120.02
117.72
116.92
117.57
119.36
121.73
123.93
125.10
124.41
121.22
115.33
107.13
97.54
87.80
79.09
72.19
67.53
65.37
66.17
70.73
80.07
94.95
115.41
140.56
168.65
197.45
224.59
247.80
265.14
275.17
277.29
272.00
260.88
246.17
230.05
214.01
198.46
182.98
166.85
149.50
130.83
110.94
89.89
67.45
43.06
16.05
-14.30
-48.56
-87.05
-129.42
-174.32
-219.22
-260.67
-295.21
-320.33
-335.32
-341.27
-340.40
-335.09
-327.01
-316.92
-304.90
-290.95
-275.25
-258.23
-240.27
-221.62
-202.40
-182.89
-163.74
-145.98
-130.70
-118.81
-110.58
-105.63
-102.94
-101.20
-99.16
-95.95
-91.18
-84.98
-77.73
-69.94
-61.96
-54.05
-46.35
-38.94
-31.88
-25.15
-18.64
-12.17
-5.68
0.78
7.03
12.86
18.18
23.10
27.82
32.47
36.97
40.95
43.92
45.49
45.61
44.61
43.14
41.91
41.49
42.19
44.04
46.89
50.44
54.16
57.39
59.40
59.63
58.00
55.03
51.63
48.64
46.21
43.41
38.60
30.29
18.14
3.58
-10.63
-21.32
-26.40
-25.72
-21.16
-15.69
-12.18
-12.32
-16.36
-23.59
-32.96
-43.40
-53.83
-62.81
-68.65
-69.95
-66.36
-59.09
-50.58
-43.38
-38.84
-36.52
-34.69
-31.47
-26.09
-19.18
-12.06
-5.48
1.21
10.10
23.68
43.59
69.60
99.41
129.27
155.03
173.33
182.42
182.37
174.81
162.18
146.97
131.05
115.56
101.03
87.81
76.20
66.40
58.29
51.30
44.55
37.18
28.84
19.76
10.71
2.56
-4.15
-9.48
-14.03
-18.74
-24.36
-31.02
-38.05
-44.11
-47.66
-47.55
-43.52
-36.26
-27.21
-18.01
-9.98
-3.82
0.37
2.92
4.23
4.63
4.36
3.55
2.33
0.86
-0.74
-2.32
-3.76
-4.94
-5.72
-5.94
-5.48
-4.29
-2.37
0.20
3.31
6.84
10.76
14.97
19.26
23.27
26.37
27.82
26.96
23.42
17.27
8.98
-0.74
-11.05
-21.03
-29.58
-35.53
-37.72
-35.52
-29.15
-19.86
-9.66
-0.68
5.48
8.23
7.98
5.75
2.65
-0.57
-3.58
-6.34
-8.81
-10.81
-12.03
-12.18
-11.18
-9.21
-6.63
-3.77
-0.78
2.32
5.56
8.84
11.80
13.94
14.83
14.25
12.27
9.11
4.92
-0.32
-6.73
-14.38
-23.17
-32.78
-42.74
-52.55
-61.65
-69.29
-74.49
-76.21
-73.59
-66.41
-55.37
-41.91
-27.82
-14.63
-3.18
6.50
14.97
22.95
30.91
38.86
46.39
52.89
57.81
60.99
62.77
63.93
65.50
68.44
73.33
80.23
88.59
97.39
105.46
111.74
115.60
116.88
115.75
112.39
106.52
97.22
83.04
62.55
35.01
1.03
-37.23
-76.41
-112.83
-143.38
-166.30
-181.41
-189.85
-193.55
-194.50
-194.19
-193.14
-190.95
-186.63
-179.21
-168.43
-155.07
-140.64
-126.72
-114.02
-101.89
-88.66
-72.41
-51.93
-27.23
0.68
30.38
60.53
89.99
117.53
141.62
160.41
172.20
176.00
171.83
160.74
144.50
125.24
105.05
85.78
68.80
54.78
43.61
34.49
26.39
18.51
10.62
3.14
-3.18
-7.62
-9.79
-9.77
-7.89
-4.60
-0.21
5.09
11.20
17.92
24.90
31.72
38.01
43.47
47.83
50.84
52.26
52.08
50.66
48.86
47.67
47.90
49.73
52.64
55.72
58.11
59.38
59.53
58.77
57.18
54.54
50.50
44.86
37.81
29.98
22.19
15.15
9.14
3.90
-1.32
-7.42
-15.11
-24.56
-35.15
-45.62
-54.38
-60.04
-61.81
-59.79
-54.88
-48.46
-42.03
-36.80
-33.48
-32.15
-32.44
-33.68
-35.20
-36.49
-37.28
-37.46
-37.03
-35.97
-34.32
-32.19
-29.84
-27.51
-25.41
-23.55
-21.80
-20.04
-18.28
-16.79
-15.99
-16.23
-17.57
-19.70
-22.04
-23.96
-24.99
-24.99
-24.12
-22.79
-21.52
-20.80
-20.96
-22.08
-23.89
-25.89
-27.39
-27.72
-26.36
-23.14
-18.24
-12.23
-5.93
-0.21
4.18
6.88
7.84
7.36
5.88
3.85
1.61
-0.59
-2.57
-4.18
-5.31
-5.90
-5.97
-5.54
-4.61
-3.14
-1.16
1.16
3.40
5.08
5.77
5.33
3.88
1.78
-0.56
-2.86
-5.00
-7.04
-9.09
-11.31
-13.81
-16.60
-19.46
-21.96
-23.50
-23.51
-21.63
-17.92
-12.88
-7.26
-1.81
2.88
6.51
9.05
10.61
11.37
11.50
11.13
10.32
9.09
7.48
5.58
3.59
1.79
0.47
-0.16
-0.11
0.40
1.03
1.37
1.16
0.27
-1.26
-3.28
-5.55
-7.89
-10.13
-12.23
-14.19
-16.12
-18.17
-20.50
-23.17
-26.04
-28.71
-30.58
-31.04
-29.62
-26.23
-21.19
-15.14
-8.86
-3.08
1.71
5.28
7.65
8.99
9.56
9.59
9.26
8.67
7.89
6.96
5.92
4.87
3.86
2.98
2.27
1.71
1.24
0.70
-0.11
-1.35
-3.06
-5.15
-7.43
-9.66
-11.61
-13.21
-14.45
-15.44
-16.39
-17.53
-19.11
-21.27
-23.93
-26.67
-28.76
-29.37
-27.85
-24.01
-18.20
-11.24
-4.13
2.29
7.54
11.60
14.74
17.33
19.66
21.78
23.58
24.91
25.71
26.05
26.07
25.92
25.64
25.20
24.54
23.68
22.70
21.73
20.86
20.09
19.35
18.55
17.65
16.66
15.58
14.41
13.08
11.55
9.84
8.05
6.28
4.58
2.90
1.15
-0.62
-2.16
-2.94
-2.45
-0.32
3.39
8.31
13.84
19.41
24.58
29.04
32.38
34.12
33.74
30.97
26.04
19.67
12.98
7.04
2.56
-0.35
-2.06
-3.21
-4.36
-5.77
-7.36
-8.82
-9.85
-10.29
-10.30
-10.19
-10.31
-10.86
-11.78
-12.79
-13.52
-13.67
-13.21
-12.33
-11.46
-11.11
-11.68
-13.38
-16.13
-19.55
-23.01
-25.74
-27.00
-26.24
-23.31
-18.48
-12.35
-5.66
0.98
7.22
12.94
18.04
22.34
25.49
27.20
27.47
26.79
26.19
27.15
31.35
40.34
55.17
75.89
101.11
127.76
151.54
167.82
172.98
165.36
145.68
116.50
81.26
43.44
6.11
-27.90
-55.69
-74.46
-82.03
-77.87
-63.62
-42.99
-20.64
-0.65
14.75
25.62
33.63
40.94
49.08
58.39
68.21
77.59
85.95
93.39
100.44
107.67
115.25
122.78
129.51
134.70
138.00
139.44
139.33
137.88
135.07
130.73
124.83
117.62
109.56
100.99
91.76
81.11
67.94
51.39
31.47
9.30
-13.14
-33.74
-51.03
-64.56
-74.86
-82.92
-89.58
-95.17
-99.49
-102.19
-103.45
-104.42
-107.32
-114.86
-129.34
-151.56
-179.98
-210.64
-237.77
-255.48
-259.68
-249.67
-228.57
-202.21
-177.04
-157.99
-147.19
-143.90
-145.43
-148.12
-148.02
-141.46
-125.45
-98.46
-61.26
-17.13
28.81
71.08
105.44
129.74
143.83
148.84
146.26
137.55
124.04
107.04
87.86
67.59
46.99
26.59
6.87
-11.58
-28.08
-41.98
-52.85
-60.32
-63.99
-63.48
-58.54
-49.53
-37.68
-24.99
-13.73
-5.75
-1.89
-1.82
-4.26
-7.58
-10.37
-11.84
-11.83
-10.68
-8.89
-6.85
-4.77
-2.71
-0.70
1.08
2.34
2.73
2.05
0.36
-2.02
-4.60
-6.98
-8.97
-10.60
-12.01
-13.27
-14.26
-14.64
-13.93
-11.69
-7.66
-1.85
5.36
13.30
21.10
27.96
33.16
36.38
37.56
36.92
34.79
31.46
27.13
21.92
15.96
9.57
3.35
-1.78
-4.77
-4.71
-1.19
5.42
13.98
22.86
30.46
35.78
38.76
40.24
41.56
43.92
47.84
52.94
58.16
62.34
64.71
65.35
65.07
65.07
66.44
69.78
75.04
81.51
87.84
92.05
91.88
85.33
71.40
50.86
26.31
1.28
-21.04
-39.37
-55.05
-71.38
-92.23
-120.09
-154.96
-194.43
-234.77
-272.36
-304.61
-330.04
-347.59
-356.05
-353.77
-339.25
-312.03
-273.35
-226.09
-174.18
-121.56
-71.44
-26.05
13.14
44.96
68.33
82.38
86.84
82.38
70.92
55.59
40.26
28.87
24.62
29.10
41.98
61.08
83.05
104.27
121.83
134.07
140.63
142.15
139.68
134.34
127.10
118.72
109.78
100.66
91.50
82.24
72.72
62.95
53.37
44.94
39.00
36.78
38.81
44.43
51.90
58.86
63.16
63.63
60.36
54.49
47.56
40.84
34.89
29.61
24.42
18.68
11.80
3.37
-6.84
-18.64
-31.26
-43.19
-52.42
-57.06
-55.99
-49.36
-38.56
-25.58
-12.26
0.40
12.29
23.82
35.21
46.00
54.99
60.65
61.76
57.87
49.53
38.06
25.16
12.48
1.26
-7.76
-14.31
-18.45
-20.47
-20.80
-20.03
-18.92
-18.37
-19.24
-22.08
-26.89
-32.94
-38.85
-42.98
-43.89
-40.79
-33.84
-24.05
-12.92
-1.96
7.72
15.62
21.76
26.41
29.74
31.70
32.12
30.85
28.08
24.29
20.24
16.60
13.73
11.51
9.49
7.08
3.81
-0.51
-5.72
-11.38
-16.82
-21.30
-24.15
-24.93
-23.56
-20.41
-16.15
-11.64
-7.57
-4.38
-2.17
-0.81
-0.05
0.33
0.48
0.48
0.29
-0.23
-1.32
-3.14
-5.63
-8.37
-10.53
-11.22
-9.75
-5.99
-0.45
5.93
12.11
17.28
21.02
23.25
24.12
23.82
22.59
20.63
18.13
15.21
11.90
8.19
4.17
0.06
-3.73
-6.74
-8.59
-9.15
-8.53
-6.99
-4.88
-2.48
-0.04
2.25
4.22
5.68
6.50
6.58
5.91
4.58
2.77
0.71
-1.34
-3.24
-4.95
-6.59
-8.30
-10.18
-12.22
-14.29
-16.23
-17.89
-19.15
-19.86
-19.86
-18.98
-17.13
-14.38
-11.02
-7.49
-4.22
-1.54
0.43
1.70
2.39
2.65
2.59
2.31
1.90
1.49
1.21
1.20
1.55
2.26
3.20
4.13
4.84
5.21
5.29
5.24
5.27
5.50
5.86
6.20
6.30
5.99
5.23
4.11
2.79
1.48
0.36
-0.44
-0.96
-1.26
-1.53
-1.95
-2.67
-3.75
-5.16
-6.77
-8.32
-9.51
-10.01
-9.61
-8.25
-6.11
-3.55
-1.00
1.17
2.74
3.66
3.98
3.81
3.23
2.29
1.04
-0.47
-2.16
-3.89
-5.48
-6.70
-7.38
-7.38
-6.70
-5.47
-3.89
-2.19
-0.58
0.81
1.90
2.60
2.85
2.59
1.80
0.61
-0.74
-1.96
-2.78
-3.07
-2.88
-2.44
-2.09
-2.12
-2.74
-3.92
-5.42
-6.85
-7.69
-7.53
-6.11
-3.45
0.17
4.25
8.25
11.64
14.09
15.42
15.61
14.76
13.08
10.84
8.33
5.88
3.74
2.07
0.92
0.24
-0.06
-0.09
0.07
0.42
0.96
1.70
2.59
3.48
4.16
4.36
3.97
2.97
1.59
0.18
-0.89
-1.35
-1.14
-0.45
0.38
0.93
0.84
-0.08
-1.78
-3.94
-6.04
-7.51
-7.84
-6.80
-4.48
-1.22
2.48
6.16
9.52
12.45
14.96
17.17
19.25
21.37
23.76
26.61
30.10
34.24
38.93
43.89
48.72
52.94
56.07
57.69
57.46
55.23
50.97
44.79
36.94
27.79
17.81
7.58
-2.28
-11.16
-18.63
-24.47
-28.73
-31.70
-33.80
-35.48
-37.05
-38.61
-40.04
-40.99
-41.06
-39.95
-37.60
-34.27
-30.41
-26.54
-22.99
-19.82
-16.88
-13.91
-10.77
-7.60
-4.69
-2.39
-0.88
-0.05
0.40
0.88
1.67
2.83
4.22
5.55
6.53
6.97
6.83
6.13
5.02
3.60
1.94
0.09
-1.97
-4.26
-6.80
-9.57
-12.53
-15.63
-18.89
-22.31
-25.93
-29.72
-33.59
-37.33
-40.60
-42.98
-44.05
-43.51
-41.27
-37.54
-32.80
-27.69
-22.81
-18.56
-15.06
-12.16
-9.66
-7.39
-5.37
-3.73
-2.66
-2.22
-2.33
-2.72
-3.10
-3.24
-3.08
-2.70
-2.28
-1.96
-1.80
-1.73
-1.63
-1.43
-1.14
-0.93
-1.02
-1.60
-2.73
-4.30
-6.07
-7.75
-9.14
-10.19
-10.96
-11.61
-12.29
-13.16
-14.31
-15.71
-17.25
-18.63
-19.43
-19.18
-17.55
-14.45
-10.16
-5.21
-0.31
3.92
7.06
8.99
9.82
9.80
9.23
8.36
7.38
6.38
5.45
4.63
4.01
3.68
3.74
4.24
5.15
6.38
7.75
9.11
10.37
11.52
12.62
13.68
14.61
15.25
15.35
14.76
13.47
11.68
9.69
7.84
6.31
5.07
3.92
2.58
0.85
-1.27
-3.64
-6.00
-8.09
-9.66
-10.50
-10.40
-9.23
-7.06
-4.18
-1.05
1.82
4.06
5.57
6.48
6.97
7.18
7.10
6.66
5.83
4.74
3.58
2.53
1.68
0.96
0.26
-0.52
-1.36
-2.18
-2.85
-3.30
-3.57
-3.83
-4.25
-4.96
-6.01
-7.27
-8.54
-9.59
-10.22
-10.35
-10.03
-9.43
-8.77
-8.30
-8.22
-8.63
-9.52
-10.70
-11.83
-12.49
-12.32
-11.13
-9.01
-6.27
-3.27
-0.37
2.23
4.49
6.43
8.10
9.48
10.54
11.23
11.58
11.65
11.57
11.44
11.31
11.18
10.99
10.68
10.23
9.67
9.13
8.73
8.54
8.54
8.63
8.65
8.47
8.04
7.39
6.57
5.65
4.66
3.61
2.53
1.47
0.46
-0.50
-1.50
-2.67
-4.08
-5.67
-7.19
-8.27
-8.55
-7.78
-5.95
-3.27
-0.15
2.94
5.58
7.54
8.80
9.50
9.89
10.18
10.45
10.64
10.59
10.18
9.44
8.52
7.68
7.11
6.87
6.89
7.01
7.06
6.98
6.76
6.45
6.10
5.73
5.33
4.88
4.36
3.78
3.16
2.52
1.91
1.35
0.88
0.48
0.12
-0.27
-0.76
-1.44
-2.38
-3.60
-5.07
-6.61
-7.95
-8.72
-8.60
-7.42
-5.30
-2.60
0.22
2.70
4.60
5.92
6.78
7.37
7.80
8.08
8.18
8.09
7.86
7.62
7.46
7.43
7.48
7.46
7.25
6.82
6.28
5.85
5.75
6.04
6.63
7.20
7.41
7.04
6.03
4.52
2.77
0.99
-0.67
-2.17
-3.48
-4.58
-5.43
-6.01
-6.34
-6.48
-6.50
-6.50
-6.60
-6.94
-7.67
-8.88
-10.51
-12.32
-13.89
-14.78
-14.62
-13.28
-10.91
-7.83
-4.49
-1.29
1.47
3.67
5.31
6.54
7.48
8.26
8.88
9.30
9.50
9.47
9.32
9.19
9.19
9.33
9.54
9.72
9.83
9.90
10.02
10.26
10.59
10.92
11.09
10.98
10.54
9.79
8.83
7.80
6.88
6.19
5.83
5.74
5.77
5.65
5.16
4.15
2.66
0.88
-0.93
-2.58
-3.97
-5.18
-6.37
-7.75
-9.49
-11.65
-14.13
-16.65
-18.77
-20.05
-20.15
-19.00
-16.81
-13.97
-10.89
-7.91
-5.18
-2.73
-0.63
1.05
2.20
2.81
2.98
2.89
2.77
2.74
2.83
3.03
3.32
3.71
4.14
4.53
4.83
5.02
5.17
5.43
5.82
6.24
6.49
6.36
5.83
5.10
4.47
4.19
4.28
4.57
4.78
4.69
4.22
3.40
2.31
1.10
-0.14
-1.31
-2.36
-3.36
-4.47
-5.90
-7.82
-10.24
-12.97
-15.61
-17.72
-18.88
-18.88
-17.70
-15.55
-12.83
-9.94
-7.29
-5.07
-3.35
-2.04
-1.02
-0.21
0.40
0.79
0.96
0.95
0.86
0.76
0.69
0.64
0.66
0.78
1.10
1.71
2.59
3.63
4.64
5.42
5.85
5.90
5.66
5.21
4.62
3.92
3.16
2.38
1.65
1.03
0.50
0.05
-0.39
-0.84
-1.33
-1.88
-2.55
-3.39
-4.45
-5.68
-6.93
-7.95
-8.45
-8.17
-6.96
-4.83
-1.98
1.26
4.49
7.32
9.47
10.84
11.44
11.39
10.84
9.97
8.91
7.84
6.84
6.00
5.33
4.80
4.37
3.96
3.49
2.95
2.35
1.79
1.41
1.32
1.53
1.95
2.38
2.61
2.55
2.18
1.61
0.97
0.34
-0.25
-0.81
-1.36
-1.93
-2.51
-3.14
-3.89
-4.81
-5.96
-7.29
-8.60
-9.58
-9.89
-9.25
-7.54
-4.90
-1.62
1.82
5.00
7.55
9.31
10.27
10.54
10.24
9.50
8.38
6.98
5.41
3.87
2.58
1.65
1.11
0.85
0.71
0.67
0.76
1.11
1.75
2.55
3.22
3.49
3.18
2.37
1.27
0.16
-0.72
-1.26
-1.43
-1.31
-0.99
-0.65
-0.54
-0.87
-1.77
-3.21
-4.97
-6.74
-8.18
-9.07
-9.30
-8.85
-7.76
-6.16
-4.19
-2.06
-0.01
1.74
3.06
3.86
4.11
3.80
2.95
1.69
0.21
-1.18
-2.19
-2.62
-2.47
-1.89
-1.12
-0.37
0.23
0.67
0.92
0.95
0.67
-0.01
-1.15
-2.72
-4.55
-6.40
-7.99
-9.09
-9.63
-9.69
-9.52
-9.38
-9.49
-9.94
-10.66
-11.46
-12.09
-12.28
-11.80
-10.52
-8.42
-5.66
-2.57
0.44
3.00
4.88
6.04
6.60
6.72
6.59
6.27
5.85
5.38
4.94
4.57
4.29
4.08
3.90
3.78
3.79
4.03
4.59
5.44
6.47
7.51
8.38
8.88
8.89
8.33
7.17
5.52
3.57
1.60
-0.13
-1.45
-2.31
-2.81
-3.13
-3.43
-3.77
-4.11
-4.30
-4.14
-3.45
-2.13
-0.16
2.30
4.96
7.41
9.22
10.04
9.70
8.22
5.85
2.96
-0.08
-2.95
-5.48
-7.64
-9.42
-10.84
-11.85
-12.40
-12.48
-12.11
-11.41
-10.53
-9.60
-8.68
-7.75
-6.74
-5.59
-4.30
-2.93
-1.59
-0.37
0.68
1.54
2.22
2.69
2.90
2.75
2.17
1.16
-0.09
-1.30
-2.09
-2.22
-1.59
-0.36
1.16
2.60
3.71
4.38
4.68
4.73
4.60
4.31
3.79
2.99
1.92
0.73
-0.37
-1.17
-1.56
-1.55
-1.26
-0.85
-0.45
-0.13
0.12
0.32
0.56
0.93
1.56
2.51
3.78
5.21
6.55
7.50
7.81
7.31
5.95
3.80
1.00
-2.14
-5.19
-7.61
-8.92
-8.81
-7.23
-4.43
-0.83
3.13
7.09
10.79
13.99
16.52
18.23
19.08
19.17
18.72
17.98
17.11
16.12
14.90
13.33
11.38
9.19
6.99
4.95
3.18
1.66
0.35
-0.78
-1.68
-2.32
-2.73
-3.03
-3.39
-3.96
-4.78
-5.79
-6.84
-7.78
-8.54
-9.11
-9.59
-10.15
-10.98
-12.20
-13.84
-15.73
-17.51
-18.70
-18.84
-17.64
-15.15
-11.67
-7.72
-3.85
-0.42
2.38
4.57
6.27
7.60
8.58
9.23
9.55
9.61
9.53
9.40
9.27
9.07
8.70
8.08
7.26
6.37
5.57
5.01
4.68
4.50
4.31
4.01
3.53
2.90
2.20
1.51
0.90
0.39
-0.04
-0.44
-0.88
-1.41
-2.04
-2.69
-3.28
-3.74
-4.12
-4.60
-5.39
-6.65
-8.33
-10.21
-11.86
-12.87
-12.92
-11.95
-10.09
-7.63
-4.92
-2.26
0.09
1.96
3.29
4.08
4.48
4.64
4.73
4.82
4.92
4.95
4.86
4.64
4.38
4.19
4.14
4.26
4.53
4.89
5.29
5.68
6.02
6.26
6.32
6.14
5.65
4.85
3.79
2.59
1.40
0.37
-0.47
-1.13
-1.72
-2.32
-2.98
-3.68
-4.35
-4.94
-5.46
-6.00
-6.70
-7.65
-8.82
-10.03
-10.98
-11.33
-10.81
-9.35
-7.10
-4.38
-1.62
0.84
2.83
4.31
5.39
6.17
6.70
6.97
6.97
6.76
6.44
6.13
5.93
5.82
5.75
5.64
5.48
5.29
5.15
5.12
5.21
5.37
5.53
5.59
5.48
5.16
4.61
3.88
3.04
2.20
1.50
0.99
0.65
0.39
0.06
-0.42
-1.07
-1.77
-2.39
-2.81
-2.99
-2.99
-2.92
-2.91
-3.09
-3.54
-4.26
-5.14
-5.93
-6.24
-5.73
-4.21
-1.83
1.01
3.75
5.94
7.33
7.93
7.93
7.59
7.15
6.79
6.65
6.81
7.26
7.86
8.44
8.84
8.97
8.86
8.59
8.24
7.84
7.37
6.82
6.18
5.49
4.75
3.98
3.13
2.12
0.90
-0.55
-2.20
-3.97
-5.72
-7.28
-8.52
-9.36
-9.80
-9.94
-9.98
-10.11
-10.53
-11.33
-12.51
-13.83
-14.95
-15.45
-15.09
-13.90
-12.19
-10.44
-9.04
-8.14
-7.59
-7.02
-6.07
-4.58
-2.62
-0.45
1.54
2.97
3.41
2.52
0.15
-3.48
-7.62
-11.13
-12.77
-11.65
-7.60
-1.24
6.25
13.61
19.81
24.33
27.06
28.12
27.69
25.97
23.19
19.70
15.98
12.51
9.66
7.58
6.15
5.08
4.06
2.81
1.23
-0.60
-2.46
-3.98
-4.83
-4.77
-3.80
-2.16
-0.29
1.39
2.57
3.19
3.36
3.30
3.18
3.05
2.88
2.62
2.30
1.98
1.79
1.80
2.07
2.54
3.14
3.67
3.95
3.83
3.22
2.22
1.03
-0.05
-0.81
-1.19
-1.35
-1.52
-1.95
-2.76
-3.90
-5.25
-6.62
-7.81
-8.62
-8.85
-8.37
-7.18
-5.51
-3.72
-2.27
-1.52
-1.57
-2.30
-3.36
-4.38
-5.05
-5.24
-4.97
-4.42
-3.82
-3.36
-3.13
-3.06
-2.94
-2.59
-1.89
-0.94
0.09
0.98
1.67
2.21
2.78
3.48
4.23
4.83
5.03
4.74
4.08
3.30
2.70
2.40
2.35
2.35
2.20
1.82
1.26
0.67
0.19
-0.15
-0.42
-0.73
-1.12
-1.56
-2.00
-2.37
-2.71
-3.12
-3.72
-4.52
-5.42
-6.19
-6.57
-6.36
-5.53
-4.19
-2.60
-0.99
0.41
1.47
2.17
2.51
2.60
2.52
2.42
2.36
2.43
2.59
2.76
2.82
2.69
2.38
1.96
1.58
1.30
1.14
1.06
1.01
1.01
1.11
1.35
1.70
2.03
2.20
2.11
1.80
1.42
1.14
1.09
1.28
1.66
2.16
2.73
3.33
3.92
4.42
4.72
4.74
4.49
4.05
3.60
3.31
3.30
3.54
3.92
4.22
4.28
4.04
3.58
3.07
2.72
2.62
2.74
2.92
2.97
2.80
2.48
2.21
2.24
2.78
3.89
5.54
7.67
10.28
13.48
17.40
22.12
27.51
33.23
38.79
43.61
47.30
49.76
51.29
52.53
54.31
57.49
62.80
70.78
81.69
95.41
111.30
128.05
143.80
156.53
164.68
167.72
166.27
161.84
156.12
150.23
144.34
137.66
128.90
116.71
100.07
78.47
52.02
21.51
-11.44
-44.33
-73.96
-96.92
-110.42
-113.23
-106.24
-92.34
-75.72
-60.48
-49.40
-43.22
-40.82
-40.12
-39.36
-38.02
-36.85
-37.38
-40.91
-47.78
-57.17
-67.55
-77.22
-84.85
-89.65
-91.21
-89.47
-84.56
-76.94
-67.44
-57.11
-47.08
-38.27
-31.28
-26.38
-23.72
-23.39
-25.60
-30.69
-39.03
-50.71
-65.07
-80.28
-93.38
-101.04
-100.79
-92.26
-77.62
-60.88
-46.33
-36.91
-33.31
-34.22
-37.47
-41.13
-44.18
-46.36
-47.61
-47.64
-46.00
-42.42
-37.25
-31.47
-26.43
-23.23
-22.27
-23.11
-24.76
-26.12
-26.47
-25.70
-24.28
-22.92
-22.26
-22.56
-23.60
-24.80
-25.48
-25.12
-23.56
-21.07
-18.20
-15.58
-13.68
-12.63
-12.34
-12.48
-12.69
-12.64
-12.07
-10.83
-8.88
-6.36
-3.57
-0.90
1.31
2.87
3.80
4.24
4.38
4.37
4.29
4.24
4.32
4.59
5.07
5.67
6.30
6.83
7.23
7.52
7.76
7.96
8.09
8.13
8.04
7.82
7.47
6.99
6.38
5.65
4.90
4.19
3.52
2.82
1.98
0.91
-0.30
-1.46
-2.34
-2.79
-2.82
-2.56
-2.20
-1.85
-1.55
-1.28
-1.01
-0.77
-0.53
-0.23
0.30
1.23
2.65
4.47
6.42
8.10
9.15
9.36
8.75
7.56
6.17
4.94
4.13
3.84
3.95
4.28
4.56
4.60
4.28
3.62
2.70
1.66
0.66
-0.14
-0.62
-0.68
-0.30
0.47
1.46
2.49
3.33
3.84
3.92
3.57
2.89
2.03
1.20
0.62
0.47
0.79
1.49
2.35
3.13
3.65
3.82
3.62
3.03
2.06
0.76
-0.64
-1.81
-2.38
-2.15
-1.20
0.13
1.43
2.37
2.88
3.09
3.19
3.32
3.44
3.45
3.25
2.87
2.38
1.93
1.67
1.67
1.97
2.52
3.23
3.92
4.39
4.47
4.08
3.31
2.32
1.33
0.49
-0.17
-0.72
-1.26
-1.86
-2.48
-3.05
-3.49
-3.79
-4.01
-4.26
-4.61
-5.11
-5.74
-6.47
-7.28
-8.15
-9.04
-9.78
-10.11
-9.67
-8.16
-5.46
-1.72
2.63
6.99
10.74
13.40
14.76
14.86
13.97
12.48
10.75
9.03
7.45
6.01
4.69
3.44
2.25
1.14
0.13
-0.72
-1.32
-1.57
-1.35
-0.62
0.54
1.92
3.24
4.20
4.60
4.36
3.52
2.22
0.64
-1.01
-2.51
-3.69
-4.40
-4.58
-4.28
-3.67
-3.02
-2.60
-2.68
-3.39
-4.74
-6.57
-8.62
-10.58
-12.13
-13.02
-13.14
-12.49
-11.22
-9.63
-7.94
-6.33
-4.74
-2.98
-0.83
1.79
4.75
7.69
10.18
11.82
12.41
11.98
10.73
8.98
7.05
5.19
3.54
2.10
0.83
-0.34
-1.43
-2.41
-3.29
-4.15
-5.14
-6.44
-8.20
-10.46
-13.15
-16.13
-19.23
-22.28
-25.06
-27.35
-29.01
-29.98
-30.36
-30.38
-30.29
-30.32
-30.58
-31.12
-31.92
-32.88
-33.79
-34.32
-34.08
-32.78
-30.35
-27.00
-23.12
-19.21
-15.62
-12.57
-10.10
-8.16
-6.61
-5.30
-4.08
-2.82
-1.47
-0.08
1.26
2.53
3.78
5.18
6.87
8.84
10.90
12.77
14.21
15.21
16.01
17.02
18.57
20.78
23.47
26.30
28.83
30.78
32.01
32.60
32.72
32.64
32.64
33.02
33.96
35.50
37.44
39.33
40.61
40.81
39.74
37.66
35.22
33.27
32.49
33.11
34.82
36.87
38.39
38.78
37.80
35.63
32.61
29.13
25.56
22.28
19.73
18.30
18.13
18.94
20.02
20.52
19.73
17.50
14.19
10.52
7.16
4.46
2.40
0.73
-0.81
-2.37
-3.92
-5.41
-6.80
-8.14
-9.52
-11.04
-12.75
-14.64
-16.66
-18.70
-20.63
-22.33
-23.74
-24.89
-25.89
-26.86
-27.81
-28.56
-28.83
-28.36
-27.03
-24.94
-22.35
-19.63
-17.07
-14.87
-13.08
-11.66
-10.53
-9.55
-8.64
-7.76
-6.93
-6.21
-5.63
-5.16
-4.72
-4.19
-3.53
-2.75
-1.97
-1.28
-0.75
-0.32
0.07
0.45
0.81
1.05
1.09
0.89
0.45
-0.18
-0.95
-1.85
-2.86
-3.98
-5.12
-6.21
-7.16
-7.99
-8.85
-9.91
-11.36
-13.23
-15.33
-17.30
-18.65
-18.98
-18.11
-16.16
-13.52
-10.70
-8.16
-6.16
-4.72
-3.70
-2.92
-2.22
-1.50
-0.75
0.00
0.71
1.26
1.52
1.48
1.41
1.87
3.75
8.00
15.31
25.79
38.78
52.89
66.27
77.12
84.05
86.47
84.64
79.50
72.39
64.64
57.31
50.96
45.74
41.42
37.58
33.82
29.86
25.62
21.20
16.87
12.97
9.81
7.60
6.32
5.71
5.34
4.74
3.54
1.65
-0.75
-3.31
-5.72
-7.81
-9.64
-11.38
-13.17
-14.93
-16.32
-16.85
-16.03
-13.60
-9.71
-4.86
0.22
4.83
8.57
11.46
13.93
16.66
20.29
25.29
31.86
39.92
49.03
58.17
65.64
69.33
67.47
59.74
47.93
35.67
27.21
25.68
31.99
44.89
62.19
82.21
104.52
129.32
156.05
182.36
204.12
216.88
217.70
206.30
184.76
156.11
122.99
87.19
50.25
14.43
-16.99
-40.44
-53.71
-57.15
-53.94
-48.93
-46.82
-50.61
-60.98
-76.65
-95.30
-114.56
-132.54
-147.95
-160.04
-168.39
-172.75
-172.94
-168.83
-160.51
-148.57
-134.26
-119.30
-105.47
-93.97
-84.93
-77.46
-69.94
-60.79
-48.91
-34.01
-16.50
2.78
22.89
43.02
62.55
80.90
97.34
110.96
120.73
125.95
126.65
123.87
119.62
116.50
117.11
123.47
136.49
155.64
178.87
202.89
223.78
237.87
242.69
237.58
223.67
203.30
179.12
153.23
126.82
100.21
73.17
45.16
15.47
-16.61
-51.47
-88.72
-126.83
-163.17
-194.45
-217.67
-231.04
-234.56
-230.05
-220.56
-209.55
-199.90
-193.36
-190.35
-190.25
-191.95
-194.32
-196.69
-198.78
-200.52
-201.70
-201.70
-199.55
-194.04
-184.17
-169.39
-149.90
-126.64
-101.20
-75.47
-51.40
-30.60
-14.20
-2.68
4.09
6.75
6.30
3.90
0.72
-2.27
-4.37
-5.27
-4.99
-3.82
-2.13
-0.24
1.71
3.81
6.33
9.61
13.84
18.86
24.14
28.77
31.75
32.33
30.25
25.86
19.93
13.31
6.70
0.44
-5.37
-10.70
-15.44
-19.34
-22.14
-23.70
-24.07
-23.51
-22.36
-20.98
-19.66
-18.65
-18.18
-18.44
-19.55
-21.53
-24.18
-27.08
-29.66
-31.28
-31.41
-29.74
-26.37
-21.72
-16.49
-11.42
-7.09
-3.82
-1.67
-0.45
0.16
0.57
1.18
2.24
3.83
5.81
7.91
9.95
12.01
14.44
17.71
22.13
27.56
33.37
38.56
42.07
42.97
40.71
35.15
26.54
15.64
3.63
-7.98
-17.56
-23.66
-25.31
-22.21
-14.75
-3.90
8.96
22.15
33.79
41.88
44.46
39.97
27.65
8.08
-16.52
-42.38
-64.81
-79.30
-82.81
-74.73
-57.04
-33.68
-9.30
12.18
28.35
38.49
43.04
42.80
38.34
30.01
18.17
3.75
-11.68
-26.10
-37.72
-45.61
-50.04
-52.41
-54.57
-58.08
-63.50
-70.02
-75.58
-77.45
-72.99
-60.33
-39.19
-11.37
18.94
45.69
62.32
64.00
49.73
23.31
-7.51
-33.75
-48.48
-49.13
-37.87
-19.92
-1.02
14.59
24.84
29.29
28.21
22.15
11.99
-0.78
-14.06
-25.76
-34.33
-39.11
-40.07
-37.38
-31.17
-21.75
-9.93
2.78
14.55
23.88
30.15
33.71
35.34
35.68
34.86
32.60
28.73
23.59
18.11
13.53
10.83
10.36
11.67
13.69
15.25
15.37
13.66
10.38
6.22
2.05
-1.49
-4.09
-5.79
-6.76
-7.04
-6.45
-4.70
-1.56
2.90
8.22
13.72
18.69
22.64
25.42
27.13
28.00
28.14
27.45
25.56
22.08
16.86
10.24
3.11
-3.32
-7.91
-10.03
-9.77
-7.85
-5.35
-3.26
-2.16
-2.25
-3.43
-5.51
-8.31
-11.77
-15.79
-20.30
-25.14
-30.03
-34.54
-38.02
-39.63
-38.57
-34.35
-27.17
-18.00
-8.41
0.02
6.25
10.24
12.84
15.34
18.75
23.26
28.10
31.60
31.60
25.91
12.96
-7.32
-32.78
-58.98
-80.21
-91.38
-90.17
-78.02
-59.55
-40.47
-25.08
-14.77
-8.16
-2.63
3.92
12.08
21.24
30.63
40.26
51.08
64.32
80.58
99.28
118.80
137.11
152.60
164.48
172.93
178.68
182.64
185.47
187.48
188.69
189.02
188.45
187.21
185.69
184.40
183.71
183.78
184.50
185.51
186.27
186.21
184.75
181.27
175.13
165.69
152.43
135.04
113.53
88.24
59.82
29.20
-2.55
-34.20
-64.49
-92.18
-116.22
-135.88
-150.83
-161.21
-167.55
-170.65
-171.34
-170.27
-167.81
-164.04
-158.90
-152.30
-144.26
-134.90
-124.37
-112.83
-100.34
-87.00
-72.99
-58.62
-44.38
-30.76
-18.21
-6.98
2.89
11.51
19.08
25.69
31.32
35.81
38.96
40.74
41.26
40.83
39.80
38.43
36.87
35.14
33.26
31.41
29.83
28.86
28.65
29.13
29.93
30.45
30.02
28.08
24.23
18.37
10.64
1.40
-8.87
-19.60
-30.15
-39.78
-47.68
-53.03
-55.20
-53.95
-49.63
-43.12
-35.63
-28.38
-22.24
-17.58
-14.23
-11.70
-9.41
-7.00
-4.36
-1.73
0.54
2.07
2.63
2.21
0.91
-1.07
-3.58
-6.49
-9.72
-13.18
-16.71
-20.08
-23.10
-25.69
-27.89
-29.84
-31.70
-33.54
-35.34
-36.97
-38.30
-39.30
-40.00
-40.53
-41.01
-41.45
-41.75
-41.65
-40.87
-39.15
-36.38
-32.68
-28.40
-24.06
-20.20
-17.16
-15.02
-13.57
-12.47
-11.37
-10.11
-8.71
-7.32
-6.11
-5.14
-4.36
-3.70
-3.06
-2.46
-1.90
-1.44
-1.05
-0.72
-0.43
-0.27
-0.40
-1.04
-2.29
-4.12
-6.28
-8.41
-10.19
-11.45
-12.21
-12.65
-13.02
-13.50
-14.12
-14.79
-15.32
-15.48
-15.04
-13.84
-11.79
-8.90
-5.32
-1.36
2.53
5.89
8.35
9.76
10.20
9.95
9.33
8.56
7.73
6.82
5.79
4.70
3.66
2.86
2.41
2.34
2.58
3.00
3.45
3.84
4.10
4.16
3.97
3.45
2.54
1.22
-0.43
-2.20
-3.83
-5.04
-5.74
-6.05
-6.34
-7.05
-8.46
-10.55
-12.89
-14.87
-15.88
-15.58
-13.96
-11.33
-8.12
-4.79
-1.68
0.98
3.02
4.36
5.00
5.03
4.59
3.89
3.13
2.44
1.90
1.52
1.23
0.95
0.58
0.08
-0.50
-1.02
-1.29
-1.15
-0.58
0.24
1.02
1.42
1.22
0.38
-0.91
-2.36
-3.67
-4.62
-5.19
-5.46
-5.65
-5.99
-6.73
-7.97
-9.69
-11.58
-13.18
-13.95
-13.45
-11.59
-8.58
-4.93
-1.23
2.04
4.62
6.45
7.61
8.22
8.41
8.28
7.95
7.51
7.11
6.83
6.75
6.87
7.09
7.28
7.27
7.00
6.52
5.99
5.57
5.37
5.31
5.22
4.87
4.14
3.01
1.60
0.07
-1.43
-2.81
-4.03
-5.07
-6.01
-6.93
-7.97
-9.23
-10.69
-12.20
-13.45
-14.08
-13.83
-12.54
-10.29
-7.34
-4.04
-0.81
2.03
4.26
5.82
6.78
7.29
7.49
7.48
7.33
7.03
6.62
6.11
5.58
5.06
4.58
4.11
3.62
3.11
2.62
2.25
2.06
2.07
2.21
2.38
2.47
2.37
2.00
1.31
0.27
-1.07
-2.60
-4.14
-5.48
-6.51
-7.17
-7.56
-7.84
-8.24
-8.96
-10.17
-11.87
-13.90
-15.90
-17.41
-17.91
-17.09
-14.89
-11.56
-7.60
-3.62
-0.17
2.43
4.06
4.84
5.01
4.89
4.81
5.05
5.76
7.03
8.75
10.75
12.75
14.49
15.80
16.65
17.13
17.41
17.58
17.64
17.50
17.05
16.21
14.98
13.45
11.77
10.02
8.27
6.52
4.71
2.78
0.58
-2.04
-5.27
-9.20
-13.79
-18.74
-23.61
-27.91
-31.20
-33.20
-33.83
-33.09
-31.08
-27.87
-23.65
-18.73
-13.58
-8.78
-4.85
-2.13
-0.64
-0.12
-0.17
-0.38
-0.44
-0.20
0.40
1.35
2.65
4.25
6.06
7.93
9.71
11.25
12.44
13.24
13.67
13.77
13.61
13.27
12.80
12.26
11.72
11.24
10.89
10.72
10.69
10.70
10.58
10.16
9.34
8.11
6.55
4.78
2.93
1.03
-0.90
-2.93
-5.11
-7.53
-10.25
-13.28
-16.45
-19.44
-21.75
-22.81
-22.19
-19.79
-15.90
-11.17
-6.35
-2.09
1.27
3.71
5.49
6.87
8.07
9.15
10.08
10.78
11.26
11.54
11.69
11.75
11.71
11.57
11.32
11.02
10.75
10.62
10.66
10.80
10.84
10.54
9.73
8.35
6.51
4.35
2.01
-0.46
-3.01
-5.59
-8.01
-10.04
-11.44
-12.13
-12.16
-11.77
-11.26
-10.90
-10.92
-11.50
-12.72
-14.58
-16.89
-19.30
-21.33
-22.46
-22.30
-20.70
-17.74
-13.74
-9.11
-4.35
0.12
4.01
7.17
9.63
11.53
13.00
14.14
14.94
15.35
15.36
15.03
14.47
13.80
13.08
12.30
11.41
10.43
9.46
8.61
7.96
7.49
7.05
6.50
5.72
4.67
3.46
2.21
1.01
-0.06
-1.00
-1.84
-2.62
-3.46
-4.46
-5.69
-7.19
-8.90
-10.75
-12.70
-14.80
-17.15
-19.77
-22.48
-24.86
-26.34
-26.37
-24.65
-21.22
-16.50
-11.12
-5.72
-0.78
3.45
6.89
9.56
11.49
12.65
13.05
12.72
11.82
10.57
9.22
8.01
7.07
6.45
6.10
5.98
6.04
6.24
6.57
6.98
7.36
7.60
7.57
7.19
6.45
5.36
4.00
2.47
0.88
-0.59
-1.84
-2.78
-3.49
-4.12
-4.90
-6.03
-7.63
-9.69
-12.08
-14.53
-16.62
-17.83
-17.64
-15.71
-12.03
-7.06
-1.54
3.71
8.10
11.43
13.81
15.53
16.82
17.72
18.14
18.00
17.33
16.32
15.23
14.26
13.54
13.04
12.72
12.51
12.38
12.29
12.24
12.16
11.98
11.67
11.18
10.46
9.43
8.04
6.28
4.26
2.17
0.21
-1.50
-2.96
-4.31
-5.76
-7.49
-9.59
-12.04
-14.67
-17.24
-19.41
-20.81
-21.11
-20.06
-17.60
-13.89
-9.30
-4.25
0.84
5.67
10.06
13.96
17.36
20.26
22.66
24.53
25.86
26.75
27.32
27.79
28.35
29.16
30.28
31.66
33.14
34.58
35.84
36.87
37.63
38.02
37.80
36.57
33.91
29.57
23.65
16.67
9.48
2.95
-2.30
-6.03
-8.41
-9.82
-10.69
-11.29
-11.78
-12.26
-12.89
-13.93
-15.58
-17.85
-20.46
-22.78
-24.05
-23.66
-21.37
-17.40
-12.38
-7.05
-2.06
2.17
5.47
7.88
9.48
10.40
10.77
10.71
10.31
9.64
8.76
7.75
6.70
5.72
4.92
4.35
4.02
3.95
4.15
4.63
5.39
6.37
7.44
8.38
8.97
9.01
8.41
7.17
5.45
3.52
1.68
0.16
-0.97
-1.84
-2.70
-3.78
-5.22
-7.03
-9.14
-11.44
-13.84
-16.17
-18.12
-19.28
-19.19
-17.48
-14.09
-9.26
-3.54
2.34
7.69
12.00
15.01
16.72
17.38
17.33
16.94
16.48
16.07
15.72
15.40
15.13
14.97
15.03
15.33
15.79
16.24
16.52
16.57
16.45
16.27
16.09
15.83
15.32
14.40
12.99
11.16
9.02
6.68
4.22
1.75
-0.53
-2.36
-3.51
-3.92
-3.83
-3.70
-4.04
-5.12
-6.87
-8.81
-10.20
-10.26
-8.37
-4.26
1.91
9.64
18.14
26.61
34.39
41.12
46.70
51.28
55.10
58.36
61.13
63.29
64.54
64.57
63.17
60.40
56.67
52.60
48.84
45.74
43.22
40.82
37.94
34.16
29.40
23.89
18.02
12.14
6.39
0.75
-4.86
-10.48
-16.07
-21.54
-26.78
-31.69
-36.22
-40.30
-43.89
-47.01
-49.79
-52.48
-55.38
-58.70
-62.48
-66.45
-70.08
-72.67
-73.57
-72.37
-69.07
-64.08
-58.09
-51.90
-46.18
-41.33
-37.46
-34.42
-31.99
-29.97
-28.34
-27.20
-26.80
-27.33
-28.85
-31.23
-34.10
-37.00
-39.37
-40.75
-40.83
-39.44
-36.64
-32.66
-27.91
-22.95
-18.35
-14.61
-12.02
-10.61
-10.20
-10.56
-11.47
-12.80
-14.48
-16.43
-18.46
-20.30
-21.64
-22.32
-22.34
-21.91
-21.41
-21.27
-21.85
-23.38
-25.78
-28.62
-31.13
-32.36
-31.51
-28.22
-22.74
-15.85
-8.57
-1.78
4.02
8.71
12.45
15.44
17.78
19.51
20.67
21.38
21.83
22.17
22.48
22.72
22.80
22.66
22.34
21.94
21.59
21.38
21.36
21.48
21.68
21.83
21.75
21.31
20.35
18.89
17.02
14.96
12.92
11.08
9.50
8.18
7.12
6.34
5.81
5.41
4.93
4.07
2.62
0.51
-2.07
-4.67
-6.72
-7.59
-6.90
-4.53
-0.79
3.70
8.17
11.97
14.78
16.62
17.81
18.77
19.81
21.11
22.71
24.56
26.61
28.76
30.87
32.67
33.90
34.34
33.85
32.40
30.02
26.71
22.51
17.53
11.98
6.25
0.78
-4.09
-8.18
-11.61
-14.66
-17.69
-20.95
-24.45
-28.02
-31.31
-33.99
-35.87
-36.95
-37.55
-38.20
-39.48
-41.79
-45.14
-49.06
-52.69
-55.04
-55.34
-53.21
-48.71
-42.18
-34.16
-25.38
-16.83
-9.81
-5.82
-6.16
-11.47
-21.41
-34.69
-49.49
-64.12
-77.52
-89.36
-99.70
-108.42
-114.73
-117.19
-114.23
-104.97
-89.76
-70.25
-48.84
-27.92
-9.28
5.85
16.40
21.21
19.36
11.06
-1.40
-13.70
-21.06
-20.50
-12.82
-2.67
3.65
1.37
-10.32
-27.97
-45.99
-59.50
-66.36
-67.16
-63.64
-56.68
-45.73
-29.71
-8.61
15.42
38.52
56.67
67.52
71.35
70.69
68.91
68.49
70.09
72.59
74.01
72.68
68.12
61.14
53.47
46.76
41.79
38.27
35.15
31.33
26.17
19.72
12.56
5.98
1.24
-0.85
-0.17
2.76
7.01
11.36
14.52
15.49
14.97
14.42
15.28
18.07
22.11
25.93
27.90
26.75
22.13
16.31
12.11
11.55
15.02
21.86
31.59
44.60
61.65
83.53
112.62
150.42
196.48
248.08
301.06
351.22
394.97
429.18
439.79
417.49
362.69
287.91
210.75
144.64
95.00
61.12
39.35
24.21
14.49
10.38
11.46
15.36
18.45
17.11
11.42
2.02
-9.87
-21.31
-30.26
-36.63
-42.29
-49.63
-59.70
-71.27
-81.84
-88.66
-89.06
-82.45
-70.53
-56.46
-43.22
-32.42
-24.02
-17.37
-11.55
-5.12
3.22
14.23
27.54
41.32
52.49
57.56
53.66
39.84
17.64
-10.01
-39.91
-69.75
-98.71
-127.08
-155.64
-184.72
-213.52
-240.12
-262.22
-277.66
-285.05
-284.18
-275.93
-262.16
-244.86
-225.45
-204.75
-183.65
-162.86
-142.73
-122.91
-101.68
-76.88
-46.04
-7.57
38.07
86.55
132.26
170.32
198.11
216.23
225.71
228.06
224.51
215.32
197.17
167.84
127.78
80.27
31.54
-15.17
-57.91
-95.68
-128.70
-162.39
-200.80
-244.86
-292.53
-338.52
-382.64
-426.02
-469.09
-511.23
-555.70
-601.99
-645.04
-677.07
-688.47
-679.36
-654.56
-620.41
-546.38
-422.44
-261.33
-92.84
34.54
123.37
185.73
233.52
280.08
330.98
380.98
422.22
446.98
450.03
432.37
393.40
336.85
271.67
208.98
155.13
114.99
92.11
88.31
104.85
135.21
170.24
201.48
222.69
228.73
219.18
197.98
171.44
146.92
126.64
110.04
95.58
81.62
66.18
48.95
31.37
15.99
5.96
1.98
3.19
7.80
13.54
17.88
19.00
16.18
9.72
0.81
-9.52
-20.11
-29.56
-36.38
-39.22
-37.41
-31.25
-22.05
-11.70
-1.99
6.01
12.14
17.05
21.58
26.31
31.27
35.96
39.68
41.81
42.08
40.49
37.41
33.31
28.82
24.53
20.95
18.33
16.60
15.48
14.60
13.78
13.13
12.97
13.62
15.12
17.09
18.86
19.62
18.80
16.23
12.04
6.54
-0.01
-7.55
-16.07
-25.45
-35.29
-44.97
-53.84
-61.37
-67.07
-70.26
-70.03
-65.30
-55.31
-40.20
-21.24
-0.65
19.18
36.59
51.22
63.94
76.12
88.80
102.27
116.29
130.67
145.53
161.23
177.73
194.07
208.25
217.78
220.59
215.82
204.11
187.29
167.71
147.49
128.14
110.33
94.04
78.70
63.42
47.39
30.30
12.58
-4.62
-19.90
-32.19
-41.20
-47.70
-53.16
-59.15
-66.45
-74.69
-82.43
-87.70
-88.89
-85.34
-77.68
-67.59
-57.15
-48.22
-41.96
-38.79
-38.52
-40.71
-44.71
-50.12
-56.75
-64.50
-73.05
-81.69
-89.39
-95.09
-97.97
-97.21
-92.63
-84.38
-72.58
-56.95
-36.90
-12.25
15.93
45.40
73.96
99.21
119.31
133.68
143.11
149.30
153.70
156.52
157.26
156.40
154.01
149.84
143.41
134.50
123.60
111.70
99.78
89.41
83.80
84.47
90.44
98.67
105.64
109.41
110.01
108.77
96.12
69.15
31.34
-8.99
-43.71
-68.51
-82.74
-85.23
-81.52
-76.72
-72.54
-69.25
-65.72
-59.71
-49.92
-34.08
-11.52
15.37
42.69
67.17
85.70
96.16
97.87
91.71
79.86
64.47
46.47
26.45
5.42
-15.82
-36.59
-56.25
-74.15
-89.60
-102.40
-112.99
-121.52
-127.30
-129.53
-127.81
-122.64
-115.52
-108.31
-102.73
-99.55
-98.02
-96.02
-91.24
-82.10
-68.51
-51.84
-34.28
-18.16
-5.14
4.27
10.49
14.40
16.81
18.07
18.08
16.59
13.59
9.40
4.68
0.07
-4.15
-8.12
-12.32
-17.21
-22.97
-29.43
-36.22
-43.04
-49.75
-56.23
-62.16
-66.83
-69.28
-68.67
-64.73
-57.97
-49.57
-40.94
-33.24
-27.07
-22.48
-19.17
-16.82
-15.22
-14.28
-13.88
-13.78
-13.63
-13.04
-11.82
-9.97
-7.70
-5.24
-2.73
-0.08
2.88
6.31
10.20
14.24
17.89
20.57
21.80
21.44
19.67
16.94
13.81
10.74
7.93
5.31
2.58
-0.73
-5.06
-10.65
-17.35
-24.53
-31.15
-35.98
-38.02
-36.81
-32.64
-26.53
-19.84
-13.91
-9.68
-7.50
-7.19
-8.18
-9.77
-11.40
-12.74
-13.76
-14.59
-15.44
-16.42
-17.48
-18.38
-18.76
-18.23
-16.43
-13.09
-8.11
-1.65
5.83
13.55
20.61
26.27
30.13
32.35
33.49
34.19
34.92
35.80
36.66
37.24
37.40
37.13
36.42
35.20
33.36
30.92
28.26
26.15
25.46
26.81
30.21
35.11
40.71
46.33
51.62
56.47
60.66
63.66
64.54
62.43
56.83
48.02
36.90
24.79
12.88
2.01
-7.52
-15.76
-22.93
-29.23
-34.75
-39.48
-43.32
-46.13
-47.73
-47.86
-46.24
-42.63
-37.02
-29.72
-21.40
-12.96
-5.40
0.47
4.12
5.49
4.90
2.97
0.40
-2.27
-4.65
-6.53
-7.67
-7.63
-5.84
-1.75
4.76
13.21
22.50
31.19
38.04
42.31
43.94
43.41
41.33
38.19
34.19
29.35
23.64
17.19
10.33
3.47
-3.04
-9.08
-14.74
-20.30
-25.97
-31.80
-37.63
-43.16
-48.14
-52.52
-56.50
-60.50
-64.99
-70.29
-76.39
-82.95
-89.40
-95.12
-99.68
-102.92
-105.03
-106.41
-107.53
-108.75
-110.26
-112.01
-113.67
-114.63
-114.06
-111.09
-105.16
-96.30
-85.27
-73.41
-62.19
-52.74
-45.45
-39.98
-35.51
-31.24
-26.72
-21.94
-17.21
-12.81
-8.85
-5.12
-1.27
3.09
8.15
13.88
20.04
26.23
32.10
37.43
42.18
46.50
50.56
54.44
58.03
60.94
62.68
62.80
61.04
57.47
52.35
46.10
39.08
31.56
23.74
15.76
7.69
-0.38
-8.37
-16.15
-23.31
-29.21
-33.00
-33.98
-31.90
-27.21
-20.99
-14.61
-9.26
-5.63
-3.82
-3.52
-4.38
-6.20
-8.91
-12.53
-16.91
-21.64
-26.17
-29.93
-32.50
-33.73
-33.79
-33.04
-31.90
-30.71
-29.50
-28.01
-25.70
-21.90
-16.08
-8.04
1.89
12.92
23.90
33.64
41.15
45.92
47.90
47.44
45.10
41.35
36.52
30.66
23.70
15.56
6.42
-3.18
-12.29
-19.76
-24.58
-26.25
-25.00
-21.76
-17.83
-14.42
-12.28
-11.58
-12.06
-13.25
-14.81
-16.49
-18.13
-19.46
-20.10
-19.68
-18.02
-15.28
-11.86
-8.25
-4.82
-1.70
1.13
3.72
5.92
7.43
7.92
7.30
5.82
4.03
2.53
1.64
1.27
0.99
0.23
-1.40
-3.98
-7.35
-11.27
-15.53
-20.04
-24.64
-29.00
-32.58
-34.71
-34.90
-33.07
-29.61
-25.22
-20.67
-16.51
-12.93
-9.84
-7.03
-4.34
-1.76
0.58
2.52
3.86
4.36
3.69
1.48
-2.65
-8.87
-17.14
-27.19
-38.67
-51.25
-64.70
-78.70
-92.76
-106.04
-117.46
-125.83
-129.99
-129.31
-123.99
-115.33
-105.08
-95.29
-87.80
-83.78
-83.15
-83.95
-82.76
-75.74
-60.51
-37.33
-10.05
14.58
28.95
27.62
10.10
-19.17
-52.49
-82.10
-101.56
-107.36
-98.95
-77.99
-47.33
-9.12
33.40
75.46
109.97
132.37
141.34
139.07
129.50
116.86
106.81
102.29
102.98
103.67
102.76
101.43
102.53
107.50
116.03
130.57
151.90
178.46
202.62
222.43
239.69
258.95
283.94
317.39
365.70
431.06
508.72
582.17
640.19
677.11
693.49
692.34
643.78
534.19
372.55
222.91
102.07
9.30
-70.73
-143.07
-209.74
-270.72
-319.18
-349.44
-360.35
-361.62
-358.78
-354.75
-349.83
-344.96
-340.73
-332.82
-317.68
-294.58
-270.37
-247.95
-228.10
-210.04
-194.37
-182.24
-171.79
-161.07
-149.14
-139.25
-132.22
-127.82
-125.11
-123.86
-123.71
-122.58
-118.58
-111.20
-103.01
-95.93
-91.04
-88.02
-85.70
-82.33
-75.71
-64.62
-49.31
-31.66
-13.22
5.23
23.81
42.99
63.03
83.61
103.57
121.17
134.66
142.73
144.92
141.55
133.49
121.81
107.48
91.39
74.40
57.50
41.76
28.24
17.71
10.42
6.07
3.79
2.38
0.67
-2.04
-5.63
-8.98
-10.23
-7.44
0.57
13.53
29.41
44.67
55.10
56.77
46.89
24.46
-9.35
-50.96
-94.72
-133.75
-161.35
-172.73
-166.24
-143.87
-110.56
-72.76
-36.52
-5.93
17.59
35.13
49.20
62.37
76.25
91.05
105.81
119.06
129.39
135.89
138.18
136.53
132.07
127.26
125.87
132.04
148.45
174.44
205.07
232.22
247.23
243.92
220.33
178.70
123.86
61.53
-2.80
-63.68
-115.81
-154.42
-176.34
-181.18
-171.67
-152.81
-130.13
-108.04
-88.79
-72.93
-60.17
-50.10
-42.35
-36.40
-31.46
-26.66
-21.46
-15.53
-9.12
-2.92
2.27
6.04
8.64
10.74
13.04
15.75
19.32
23.10
25.05
22.34
12.80
-3.41
-23.16
-40.90
-50.31
-44.24
-19.20
22.88
74.98
127.98
174.24
209.64
233.51
247.36
256.51
264.87
273.12
279.02
280.00
275.64
267.94
259.97
254.57
258.20
275.78
308.45
352.80
402.40
450.29
490.42
518.41
504.74
434.17
312.97
168.26
31.23
-79.21
-159.13
-213.26
-248.43
-270.40
-278.88
-274.53
-260.20
-241.51
-224.69
-213.61
-209.23
-210.70
-216.96
-224.76
-229.50
-230.97
-232.31
-237.15
-246.76
-259.30
-271.18
-279.05
-279.26
-270.94
-256.82
-241.68
-229.88
-223.29
-221.00
-220.61
-219.78
-216.07
-208.42
-197.68
-185.85
-175.22
-167.58
-164.03
-165.12
-170.84
-180.00
-190.21
-198.33
-200.88
-194.93
-178.97
-153.37
-120.06
-81.59
-40.17
2.68
45.59
86.54
122.36
149.13
163.42
163.89
152.10
132.27
109.89
89.89
75.22
66.32
61.84
59.86
59.12
59.37
61.05
64.52
69.66
76.04
83.41
92.07
102.50
114.63
127.09
137.29
142.20
139.66
129.31
112.73
92.68
71.92
52.33
34.72
19.21
5.98
-4.28
-10.24
-10.30
-3.27
10.75
30.12
51.77
72.02
87.60
96.36
97.51
91.32
78.91
61.94
42.68
23.67
7.28
-5.09
-13.32
-18.42
-21.75
-24.22
-25.98
-26.81
-26.87
-27.12
-29.03
-33.76
-41.34
-50.51
-59.33
-66.17
-70.53
-72.89
-74.05
-74.28
-72.92
-68.63
-60.24
-47.43
-31.12
-13.22
3.76
17.29
25.41
27.23
23.41
16.09
8.43
3.49
3.09
7.11
13.69
20.18
24.25
24.71
21.48
15.22
6.67
-3.62
-15.14
-27.24
-39.00
-49.40
-57.56
-63.01
-65.42
-64.60
-60.18
-51.78
-39.48
-24.19
-7.81
7.14
18.25
23.99
24.25
20.22
13.94
7.60
3.05
1.48
3.35
8.36
15.43
22.83
28.62
31.36
30.74
27.93
25.19
25.02
29.28
38.39
51.07
64.73
76.11
82.28
81.48
73.60
60.08
43.19
25.12
7.19
-10.42
-28.30
-47.14
-67.05
-87.16
-105.67
-120.17
-128.33
-128.63
-120.98
-106.95
-89.30
-71.01
-54.06
-38.65
-23.25
-5.57
16.06
41.60
69.21
95.84
118.83
137.01
150.91
162.07
171.80
180.36
186.92
190.23
189.46
185.28
179.88
176.00
175.59
178.69
183.37
186.67
186.09
180.33
170.28
158.35
146.96
136.88
126.56
112.84
92.64
64.42
27.48
-16.73
-65.32
-115.05
-163.07
-206.99
-244.49
-273.31
-292.08
-304.00
-313.12
-322.48
-332.78
-342.69
-349.92
-352.41
-349.37
-341.59
-335.53
-335.92
-343.63
-356.05
-370.03
-384.35
-399.81
-417.60
-437.48
-462.79
-492.42
-520.60
-539.51
-543.75
-533.11
-511.84
-485.62
-425.70
-322.01
-184.73
-39.38
90.19
192.42
266.46
316.41
346.44
364.88
371.99
368.68
358.82
349.09
346.10
354.18
372.12
396.53
422.31
438.84
438.39
418.86
384.00
340.53
294.79
250.94
211.12
175.97
142.67
110.36
81.33
60.01
50.54
54.54
70.68
95.44
123.82
148.56
163.29
163.87
149.07
120.41
81.68
38.27
-3.26
-36.41
-56.69
-61.83
-52.24
-30.92
-2.64
27.18
53.64
73.23
84.23
86.68
82.30
74.02
65.23
58.98
57.33
60.97
69.09
79.63
89.69
96.25
96.84
90.13
76.18
56.18
31.94
5.06
-23.49
-53.27
-83.67
-113.36
-140.18
-161.77
-176.68
-185.17
-189.42
-193.12
-200.65
-215.97
-241.44
-276.70
-318.03
-358.95
-391.93
-410.73
-412.50
-398.48
-373.09
-341.90
-309.61
-278.79
-250.00
-222.71
-196.25
-170.25
-144.42
-118.28
-91.13
-62.65
-33.51
-5.65
18.26
35.85
46.10
49.87
49.55
48.10
48.02
50.56
55.66
62.29
69.03
74.57
77.99
78.96
77.78
75.45
73.49
73.53
76.77
83.45
92.58
102.23
110.21
114.89
115.91
114.17
111.42
109.38
109.10
110.62
113.20
115.81
117.67
118.54
118.62
118.30
117.83
117.24
116.39
115.09
113.10
110.05
105.41
98.81
90.41
81.30
73.41
68.84
69.02
73.93
82.14
91.40
99.66
105.79
109.76
112.08
113.22
113.15
111.47
107.76
101.90
94.27
85.57
76.73
68.65
62.15
57.82
55.82
55.82
57.06
58.57
59.55
59.76
59.51
59.42
60.07
61.54
63.43
64.96
65.41
64.29
61.49
57.09
51.24
44.13
36.01
27.39
19.06
11.99
7.08
4.79
5.04
7.17
10.19
13.10
15.12
15.90
15.41
13.89
11.67
9.00
6.10
3.04
-0.08
-3.15
-6.08
-8.75
-11.14
-13.22
-15.04
-16.57
-17.82
-18.82
-19.66
-20.53
-21.62
-23.04
-24.75
-26.57
-28.23
-29.52
-30.35
-30.79
-30.99
-31.09
-31.24
-31.56
-32.12
-32.92
-33.83
-34.52
-34.49
-33.27
-30.61
-26.64
-21.89
-17.11
-12.95
-9.80
-7.72
-6.55
-6.10
-6.21
-6.87
-8.14
-9.99
-12.36
-15.02
-17.70
-20.11
-22.04
-23.39
-24.22
-24.62
-24.74
-24.70
-24.60
-24.62
-25.06
-26.27
-28.49
-31.70
-35.49
-39.25
-42.34
-44.40
-45.50
-46.13
-46.92
-48.46
-51.03
-54.54
-58.55
-62.35
-65.25
-66.82
-67.10
-66.67
-66.46
-67.38
-69.94
-74.06
-79.15
-84.44
-89.46
-94.34
-99.78
-106.88
-116.61
-129.34
-144.49
-160.37
-174.38
-183.42
-184.50
-175.37
-155.16
-124.64
-86.14
-43.04
1.16
43.60
82.66
117.77
149.00
176.27
198.97
216.03
226.54
230.62
229.98
227.80
227.85
233.24
245.21
262.73
282.90
302.03
316.89
325.48
327.13
322.04
310.84
294.37
273.89
251.22
228.60
207.98
190.23
174.74
159.81
143.62
125.16
104.57
82.62
59.88
36.08
10.34
-18.06
-48.66
-79.47
-107.45
-129.61
-144.13
-150.92
-151.39
-147.64
-141.52
-134.08
-125.53
-115.63
-104.25
-91.79
-79.28
-68.20
-59.95
-55.47
-54.91
-57.77
-63.15
-70.12
-77.84
-85.67
-92.97
-99.11
-103.55
-105.93
-106.22
-104.64
-101.41
-96.50
-89.57
-80.10
-67.74
-52.70
-35.95
-19.20
-4.56
5.98
11.06
10.37
4.78
-3.89
-13.32
-21.21
-25.76
-25.91
-21.44
-12.87
-1.37
11.46
23.84
34.22
41.59
45.71
47.08
46.59
45.12
43.14
40.63
37.38
33.19
28.21
22.86
17.64
12.94
8.97
5.94
4.25
4.43
6.80
11.01
15.75
19.06
19.05
14.77
6.71
-3.47
-13.72
-22.55
-29.56
-35.28
-40.54
-45.78
-50.78
-54.86
-57.36
-58.05
-57.31
-55.81
-54.18
-52.74
-51.45
-50.05
-48.29
-46.10
-43.58
-40.91
-38.16
-35.30
-32.15
-28.58
-24.70
-20.91
-17.92
-16.51
-17.22
-20.13
-24.72
-30.04
-34.89
-38.30
-39.73
-39.28
-37.58
-35.56
-33.99
-33.23
-33.06
-32.81
-31.70
-29.17
-25.12
-19.84
-13.83
-7.58
-1.41
4.48
9.95
14.86
19.12
22.75
25.99
29.07
32.12
34.89
36.86
37.39
36.12
33.24
29.47
25.80
23.06
21.61
21.33
21.80
22.65
23.74
25.28
27.55
30.79
34.99
39.86
44.80
49.19
52.54
54.75
56.30
58.21
61.76
67.91
76.63
86.54
94.89
98.31
93.77
79.63
56.34
26.44
-6.06
-36.86
-62.63
-82.04
-96.12
-107.82
-120.65
-137.11
-157.24
-178.24
-195.26
-203.38
-199.72
-184.82
-162.57
-138.61
-118.24
-104.61
-98.18
-97.46
-100.25
-104.74
-109.76
-114.50
-117.97
-118.94
-116.37
-110.00
-100.74
-90.42
-81.14
-74.50
-71.17
-70.89
-72.89
-76.32
-80.50
-84.87
-88.72
-90.99
-90.35
-85.58
-76.11
-62.39
-46.01
-29.19
-14.06
-1.95
6.86
13.01
17.47
20.93
23.50
24.85
24.64
22.95
20.46
18.20
17.11
17.61
19.49
22.13
24.97
27.89
31.24
35.56
41.10
47.51
53.93
59.32
62.93
64.56
64.64
63.96
63.48
64.03
66.08
69.56
73.73
77.37
79.27
78.70
75.87
71.85
68.00
65.37
64.13
63.65
62.98
61.47
59.07
56.35
54.00
52.47
51.68
50.97
49.30
45.44
38.40
27.81
14.47
0.57
-10.55
-15.07
-10.01
5.74
30.72
61.10
91.60
116.77
132.22
135.42
125.97
105.34
76.39
42.54
7.09
-27.45
-59.67
-89.13
-115.94
-140.12
-161.16
-177.97
-189.22
-193.78
-191.17
-181.65
-166.22
-146.41
-124.12
-101.55
-80.83
-63.72
-51.14
-42.87
-37.75
-34.12
-30.51
-26.12
-20.86
-15.11
-9.29
-3.60
1.99
7.62
13.33
19.04
24.60
29.77
34.29
37.81
39.97
40.53
39.54
37.39
34.64
31.79
29.02
26.27
23.38
20.37
17.57
15.50
14.51
14.60
15.34
16.08
16.30
15.80
14.69
13.20
11.49
9.52
7.20
4.50
1.58
-1.30
-3.95
-6.39
-8.83
-11.56
-14.75
-18.27
-21.77
-24.71
-26.52
-26.72
-25.00
-21.29
-15.82
-9.11
-1.96
4.81
10.49
14.76
17.59
19.23
19.96
19.99
19.42
18.31
16.75
14.85
12.76
10.64
8.64
6.93
5.66
4.99
5.02
5.69
6.78
7.90
8.54
8.30
6.91
4.45
1.30
-1.89
-4.38
-5.59
-5.29
-3.66
-1.13
1.64
4.10
5.85
6.72
6.68
5.83
4.33
2.36
0.16
-2.03
-4.08
-5.98
-7.89
-10.06
-12.70
-15.88
-19.38
-22.85
-25.84
-28.05
-29.29
-29.54
-28.73
-26.69
-23.19
-18.06
-11.40
-3.74
4.11
11.21
16.86
20.77
23.13
24.35
24.86
24.87
24.35
23.17
21.31
18.94
16.40
14.01
11.93
10.08
8.22
6.15
3.83
1.40
-0.87
-2.75
-4.15
-5.08
-5.65
-5.86
-5.58
-4.54
-2.46
0.82
5.22
10.39
15.77
20.78
24.93
27.98
29.93
30.92
31.16
30.82
29.99
28.74
27.17
25.47
23.86
22.56
21.71
21.32
21.26
21.34
21.41
21.35
21.16
20.86
20.52
20.14
19.65
18.97
18.03
16.78
15.28
13.61
11.88
10.15
8.43
6.65
4.69
2.44
-0.17
-3.11
-6.22
-9.23
-11.77
-13.43
-13.85
-12.78
-10.24
-6.56
-2.30
1.89
5.50
8.27
10.24
11.63
12.65
13.39
13.81
13.82
13.41
12.65
11.74
10.88
10.22
9.80
9.62
9.58
9.57
9.45
9.13
8.57
7.81
6.98
6.17
5.40
4.56
3.50
2.01
-0.05
-2.74
-6.01
-9.61
-13.08
-15.72
-16.74
-15.52
-11.75
-5.65
2.18
10.93
19.89
28.55
36.66
44.11
50.76
56.49
61.20
64.93
67.85
70.22
72.29
74.19
76.04
77.92
79.99
82.40
85.29
88.70
92.60
96.85
101.26
105.48
108.95
110.86
110.31
106.53
99.04
87.75
72.77
54.16
31.82
5.68
-23.88
-55.65
-87.48
-116.67
-140.67
-157.81
-167.55
-170.39
-167.37
-159.66
-148.32
-134.34
-118.69
-102.38
-86.31
-71.14
-57.29
-45.03
-34.71
-26.89
-22.17
-20.89
-22.79
-26.88
-31.62
-35.30
-36.51
-34.46
-29.00
-20.59
-10.07
1.57
13.21
23.81
32.37
38.17
40.85
40.53
37.83
33.75
29.43
25.90
23.78
23.28
24.13
25.86
27.91
29.90
31.55
32.68
33.05
32.35
30.25
26.68
21.87
16.41
11.06
6.49
3.10
1.01
0.17
0.55
2.22
5.35
10.04
16.22
23.56
31.58
39.85
48.16
56.62
65.47
74.69
83.76
91.44
96.09
96.24
91.31
81.98
70.08
57.96
47.61
40.06
35.14
31.80
28.62
24.20
17.28
6.69
-8.47
-28.44
-52.09
-76.58
-97.82
-111.79
-116.18
-111.52
-100.94
-88.72
-78.31
-71.03
-65.93
-61.01
-54.66
-46.73
-38.34
-30.97
-25.38
-21.24
-17.51
-13.29
-8.46
-3.72
-0.09
1.81
2.12
1.74
1.84
3.30
6.34
10.53
15.02
18.98
21.89
23.70
24.67
25.19
25.55
25.85
25.92
25.51
24.43
22.68
20.55
18.47
16.84
15.82
15.26
14.79
14.02
12.75
11.10
9.43
8.09
7.33
7.13
7.32
7.66
7.99
8.20
8.19
7.87
7.12
5.94
4.43
2.80
1.34
0.23
-0.42
-0.65
-0.53
-0.15
0.45
1.28
2.35
3.62
5.00
6.37
7.53
8.30
8.55
8.28
7.60
6.73
5.89
5.20
4.68
4.14
3.35
2.10
0.22
-2.25
-5.20
-8.34
-11.33
-13.77
-15.36
-15.90
-15.42
-14.12
-12.32
-10.40
-8.64
-7.23
-6.25
-5.71
-5.54
-5.61
-5.66
-5.38
-4.48
-2.83
-0.53
2.03
4.35
5.97
6.70
6.69
6.37
6.31
7.00
8.73
11.50
14.99
18.59
21.42
22.48
20.89
16.16
8.45
-1.41
-12.14
-22.45
-31.44
-38.73
-44.35
-48.40
-50.72
-50.82
-48.14
-42.35
-33.75
-23.31
-12.38
-2.29
6.01
12.16
16.31
18.86
20.20
20.56
20.11
18.99
17.51
16.15
15.34
15.36
16.16
17.41
18.60
19.25
19.12
18.24
16.80
15.10
13.38
11.75
10.22
8.74
7.18
5.44
3.45
1.20
-1.21
-3.65
-5.94
-7.88
-9.27
-9.95
-9.84
-8.94
-7.37
-5.38
-3.31
-1.42
0.07
1.10
1.72
1.99
1.96
1.66
1.17
0.60
0.13
-0.02
0.34
1.38
3.17
5.63
8.42
10.93
12.42
12.25
10.25
6.75
2.55
-1.47
-4.72
-7.08
-8.77
-10.13
-11.34
-12.33
-12.97
-13.18
-13.11
-13.04
-13.22
-13.71
-14.31
-14.67
-14.41
-13.24
-11.13
-8.23
-4.95
-1.75
0.93
2.87
4.09
4.85
5.50
6.30
7.35
8.55
9.73
10.72
11.48
12.00
12.33
12.49
12.42
12.10
11.54
10.84
10.14
9.55
9.11
8.77
8.40
7.83
6.98
5.81
4.33
2.62
0.78
-1.10
-2.90
-4.60
-6.22
-7.81
-9.42
-10.99
-12.42
-13.49
-14.01
-13.88
-13.07
-11.69
-9.94
-8.03
-6.18
-4.56
-3.28
-2.34
-1.71
-1.37
-1.29
-1.51
-1.99
-2.63
-3.24
-3.61
-3.61
-3.24
-2.68
-2.11
-1.68
-1.42
-1.28
-1.21
-1.17
-1.21
-1.36
-1.62
-1.94
-2.25
-2.50
-2.67
-2.82
-2.96
-3.12
-3.29
-3.50
-3.81
-4.23
-4.72
-5.11
-5.14
-4.62
-3.48
-1.90
-0.20
1.27
2.23
2.63
2.58
2.31
2.03
1.84
1.73
1.56
1.24
0.74
0.12
-0.46
-0.89
-1.14
-1.33
-1.59
-1.96
-2.37
-2.67
-2.72
-2.50
-2.15
-1.87
-1.79
-1.90
-2.08
-2.22
-2.28
-2.33
-2.50
-2.87
-3.43
-4.09
-4.75
-5.32
-5.68
-5.61
-4.84
-3.16
-0.53
2.74
6.11
9.03
11.12
12.37
13.02
13.36
13.50
13.34
12.74
11.65
10.32
9.23
8.82
9.25
10.32
11.49
12.24
12.39
12.28
12.67
14.35
17.63
22.03
26.33
29.09
29.26
26.75
22.53
18.26
15.75
16.30
20.41
27.66
36.87
46.30
53.94
57.93
56.94
50.63
39.82
26.57
13.68
3.99
-0.54
0.44
5.68
12.95
20.19
26.58
32.84
40.64
51.39
65.25
80.89
96.39
110.59
124.11
139.22
158.75
184.55
216.31
251.44
285.85
315.20
336.05
346.51
346.30
336.39
318.51
294.73
267.09
237.56
207.79
179.12
152.39
127.66
104.24
80.70
55.16
25.83
-8.31
-46.91
-87.80
-127.27
-161.08
-185.84
-200.37
-206.22
-207.02
-206.93
-208.79
-213.06
-217.98
-220.81
-219.46
-213.62
-204.80
-195.42
-187.60
-182.32
-179.41
-178.16
-178.07
-179.15
-181.92
-186.63
-192.79
-199.01
-203.53
-204.99
-203.18
-199.22
-195.08
-192.82
-193.84
-198.69
-207.22
-218.89
-232.81
-247.36
-259.95
-267.19
-265.82
-253.94
-232.04
-202.93
-170.66
-138.83
-109.33
-82.04
-55.70
-29.20
-2.56
22.99
45.78
64.64
79.52
91.34
101.49
111.20
121.29
132.24
144.31
157.49
171.21
183.91
193.01
195.32
187.91
169.16
139.43
101.17
58.60
16.75
-19.59
-46.95
-63.93
-71.42
-72.05
-69.22
-65.92
-63.84
-63.17
-63.17
-62.88
-61.87
-60.36
-58.91
-57.89
-57.11
-55.88
-53.38
-49.15
-43.38
-36.81
-30.35
-24.57
-19.39
-14.11
-7.88
-0.15
8.93
18.55
27.61
35.21
40.98
45.12
48.16
50.58
52.59
54.08
54.71
54.16
52.28
49.19
45.24
40.93
36.76
33.16
30.38
28.48
27.35
26.64
25.92
24.68
22.61
19.73
16.46
13.53
11.68
11.32
12.37
14.34
16.61
18.86
21.27
24.49
29.32
36.34
45.65
56.77
68.76
80.42
90.49
97.81
101.44
100.76
95.63
86.50
74.31
60.22
45.13
29.27
12.23
-6.55
-27.15
-48.84
-70.21
-89.74
-106.50
-120.23
-131.03
-138.72
-142.43
-140.71
-132.15
-116.08
-92.98
-64.45
-32.89
-1.15
27.72
50.87
66.19
72.97
72.54
68.25
64.80
66.94
77.98
98.73
127.20
159.23
189.72
214.18
229.85
236.08
234.09
226.04
214.03
199.51
183.05
164.67
144.19
121.66
97.36
71.78
45.51
19.05
-7.01
-32.01
-55.03
-74.95
-90.76
-101.80
-108.10
-110.45
-110.13
-108.58
-106.89
-105.70
-105.25
-105.69
-107.22
-110.08
-114.29
-119.35
-124.27
-127.88
-129.32
-128.44
-125.84
-122.55
-119.47
-116.95
-114.78
-112.31
-108.91
-104.20
-98.11
-90.78
-82.48
-73.51
-64.22
-55.02
-46.37
-38.66
-32.14
-26.88
-22.77
-19.64
-17.33
-15.72
-14.75
-14.38
-14.53
-15.08
-15.85
-16.67
-17.41
-17.98
-18.27
-18.12
-17.36
-15.79
-13.31
-10.02
-6.14
-2.02
2.01
5.66
8.72
11.01
12.39
12.86
12.57
11.89
11.28
11.13
11.57
12.41
13.23
13.57
13.12
11.80
9.70
7.02
3.97
0.76
-2.34
-5.08
-7.33
-9.20
-11.08
-13.42
-16.52
-20.16
-23.63
-25.93
-26.21
-24.06
-19.62
-13.38
-5.90
2.38
11.14
19.97
28.36
35.69
41.46
45.52
48.08
49.59
50.43
50.76
50.55
49.63
47.99
45.79
43.39
41.17
39.37
38.05
37.05
36.10
34.86
33.06
30.54
27.36
23.73
20.01
16.56
13.62
11.24
9.29
7.54
5.77
3.79
1.50
-1.11
-3.95
-6.77
-9.21
-10.90
-11.52
-11.01
-9.53
-7.46
-5.22
-3.15
-1.45
-0.14
0.83
1.57
2.12
2.51
2.67
2.60
2.30
1.88
1.54
1.48
1.82
2.56
3.50
4.42
5.09
5.44
5.52
5.41
5.21
4.96
4.64
4.21
3.64
2.92
2.07
1.17
0.32
-0.36
-0.82
-1.11
-1.34
-1.66
-2.16
-2.76
-3.26
-3.41
-3.00
-1.98
-0.50
1.21
2.86
4.24
5.22
5.78
5.98
5.94
5.79
5.59
5.34
5.03
4.62
4.19
3.84
3.67
3.77
4.10
4.55
4.99
5.33
5.55
5.70
5.77
5.70
5.40
4.78
3.82
2.59
1.17
-0.39
-2.10
-3.98
-6.02
-8.07
-9.93
-11.43
-12.49
-13.20
-13.68
-13.98
-13.99
-13.45
-12.15
-10.11
-7.60
-5.07
-2.92
-1.36
-0.33
0.38
0.98
1.54
2.02
2.33
2.47
2.56
2.74
3.09
3.61
4.17
4.61
4.82
4.78
4.57
4.30
4.09
4.05
4.19
4.40
4.49
4.24
3.45
2.09
0.23
-1.90
-4.05
-6.00
-7.59
-8.75
-9.50
-9.93
-10.19
-10.42
-10.72
-11.09
-11.38
-11.42
-11.04
-10.21
-9.04
-7.69
-6.30
-4.91
-3.54
-2.20
-0.97
0.03
0.70
1.00
0.99
0.78
0.50
0.20
-0.07
-0.30
-0.42
-0.39
-0.18
0.18
0.61
1.05
1.42
1.71
1.88
1.92
1.80
1.51
1.11
0.67
0.31
0.11
0.11
0.22
0.31
0.26
-0.02
-0.53
-1.22
-2.03
-2.88
-3.68
-4.31
-4.63
-4.46
-3.67
-2.24
-0.31
1.82
3.79
5.30
6.20
6.55
6.51
6.25
5.93
5.59
5.28
5.00
4.77
4.58
4.41
4.17
3.82
3.37
2.94
2.66
2.65
2.90
3.31
3.71
3.97
4.04
3.91
3.60
3.10
2.42
1.58
0.68
-0.13
-0.74
-1.11
-1.29
-1.39
-1.52
-1.73
-2.01
-2.37
-2.76
-3.17
-3.50
-3.60
-3.26
-2.32
-0.78
1.18
3.21
5.00
6.34
7.27
8.02
8.85
9.92
11.16
12.29
13.00
13.06
12.44
11.31
9.90
8.44
7.06
5.84
4.83
4.07
3.55
3.16
2.65
1.73
0.19
-1.98
-4.55
-7.14
-9.34
-10.84
-11.48
-11.27
-10.31
-8.84
-7.10
-5.44
-4.15
-3.48
-3.54
-4.31
-5.55
-6.91
-7.97
-8.35
-7.77
-6.15
-3.61
-0.40
3.13
6.69
10.07
13.12
15.71
17.66
18.67
18.48
16.99
14.32
10.90
7.28
3.96
1.24
-0.82
-2.32
-3.42
-4.19
-4.66
-4.91
-5.10
-5.43
-6.10
-7.10
-8.34
-9.59
-10.72
-11.67
-12.51
-13.34
-14.18
-15.03
-15.83
-16.58
-17.34
-18.24
-19.31
-20.50
-21.63
-22.43
-22.68
-22.20
-20.90
-18.79
-15.96
-12.65
-9.18
-6.02
-3.62
-2.29
-2.07
-2.67
-3.58
-4.24
-4.27
-3.55
-2.24
-0.57
1.33
3.48
5.98
8.84
11.86
14.63
16.68
17.71
17.72
16.96
15.76
14.34
12.73
10.88
8.74
6.43
4.13
2.00
0.03
-2.02
-4.51
-7.76
-11.91
-16.92
-22.61
-28.74
-35.11
-41.54
-47.76
-53.42
-58.14
-61.54
-63.36
-63.56
-62.32
-59.93
-56.79
-53.24
-49.54
-45.84
-42.20
-38.66
-35.25
-31.90
-28.39
-24.40
-19.56
-13.69
-6.94
0.26
7.28
13.67
19.26
24.29
29.18
34.30
39.73
45.26
50.48
55.01
58.62
61.28
63.11
64.31
65.08
65.61
66.03
66.53
67.21
68.15
69.35
70.71
72.07
73.32
74.40
75.40
76.51
77.98
79.98
82.56
85.66
89.07
92.51
95.59
97.82
98.60
97.32
93.58
87.27
78.72
68.58
57.60
46.41
35.34
24.46
13.66
2.93
-7.63
-17.83
-27.47
-36.45
-44.71
-52.12
-58.37
-63.03
-65.64
-65.88
-63.64
-58.97
-52.03
-43.05
-32.38
-20.50
-7.93
4.87
17.79
31.08
45.26
60.83
77.93
96.22
114.88
132.93
149.43
163.64
175.01
183.21
188.04
189.41
187.17
180.98
170.25
154.44
133.50
108.20
80.28
52.06
25.77
2.91
-16.14
-32.05
-46.08
-59.55
-73.49
-88.35
-104.02
-119.96
-135.18
-148.49
-158.72
-164.99
-166.99
-165.19
-160.72
-155.13
-149.94
-146.10
-143.61
-141.57
-138.61
-133.60
-126.21
-116.97
-106.97
-97.23
-88.22
-79.82
-71.63
-63.39
-55.23
-47.56
-40.76
-34.84
-29.45
-24.00
-18.02
-11.49
-4.89
0.98
5.22
7.22
6.80
4.38
0.79
-2.98
-6.09
-8.11
-9.10
-9.37
-9.34
-9.22
-9.05
-8.74
-8.24
-7.63
-7.00
-6.37
-5.55
-4.20
-2.00
1.15
5.00
8.96
12.39
14.77
15.89
15.91
15.19
14.18
13.23
12.53
12.10
11.89
11.76
11.56
11.12
10.29
8.96
7.13
4.88
2.41
-0.04
-2.27
-4.19
-5.77
-7.04
-8.01
-8.69
-9.14
-9.51
-10.07
-11.14
-12.91
-15.36
-18.23
-21.09
-23.53
-25.32
-26.40
-26.86
-26.73
-25.95
-24.36
-21.88
-18.69
-15.27
-12.26
-10.23
-9.46
-9.82
-10.85
-11.99
-12.66
-12.30
-10.35
-6.33
-0.05
8.12
17.09
25.32
31.33
34.28
34.31
32.44
29.99
27.98
26.74
25.95
24.98
23.33
20.86
17.74
14.24
10.51
6.49
2.06
-2.81
-7.79
-12.18
-15.14
-15.95
-14.48
-11.33
-7.58
-4.44
-2.76
-2.64
-3.61
-4.90
-5.88
-6.31
-6.34
-6.31
-6.48
-7.00
-7.83
-8.94
-10.32
-11.92
-13.73
-15.63
-17.41
-18.72
-19.02
-17.60
-13.80
-7.34
1.43
11.37
20.86
28.30
32.66
33.79
32.28
29.07
24.96
20.35
15.28
9.82
4.27
-0.73
-4.48
-6.48
-6.72
-5.60
-3.71
-1.53
0.78
3.29
6.05
8.90
11.43
13.21
13.97
13.80
13.06
12.18
11.36
10.55
9.54
8.17
6.48
4.75
3.31
2.41
2.07
2.08
2.17
2.15
1.93
1.53
0.94
0.08
-1.16
-2.88
-5.00
-7.37
-9.77
-12.10
-14.33
-16.41
-18.10
-18.92
-18.28
-15.80
-11.63
-6.58
-1.88
1.26
2.14
0.76
-2.16
-5.64
-8.76
-10.92
-11.87
-11.58
-10.14
-7.73
-4.72
-1.65
0.88
2.36
2.58
1.67
0.05
-1.83
-3.62
-5.16
-6.45
-7.56
-8.52
-9.32
-9.90
-10.26
-10.44
-10.54
-10.66
-10.90
-11.31
-11.87
-12.56
-13.35
-14.33
-15.65
-17.52
-20.06
-23.17
-26.53
-29.67
-32.21
-34.00
-35.22
-36.28
-37.59
-39.45
-41.87
-44.71
-47.79
-51.05
-54.53
-58.32
-62.49
-67.05
-71.93
-76.95
-81.74
-85.57
-87.36
-85.78
-79.61
-68.16
-51.56
-30.88
-7.99
14.87
35.49
52.23
64.29
71.80
75.57
76.73
76.30
74.88
72.66
69.57
65.64
61.12
56.50
52.25
48.61
45.48
42.62
39.78
36.88
33.99
31.20
28.55
25.94
23.32
20.71
18.26
16.13
14.39
12.97
11.72
10.52
9.36
8.35
7.66
7.43
7.84
9.13
11.54
15.18
19.84
24.86
29.38
32.56
33.95
33.62
32.03
29.76
27.27
24.83
22.54
20.41
18.37
16.24
13.68
10.32
5.98
0.76
-4.82
-10.03
-14.12
-16.65
-17.59
-17.30
-16.45
-15.80
-16.04
-17.64
-20.61
-24.39
-27.84
-29.47
-27.94
-22.65
-14.10
-3.84
5.98
13.47
17.64
18.74
17.94
16.73
16.18
16.62
17.72
18.82
19.38
19.23
18.47
17.31
15.88
14.14
12.02
9.52
6.86
4.37
2.34
0.90
0.02
-0.44
-0.59
-0.46
-0.08
0.40
0.66
0.32
-0.87
-2.82
-5.13
-7.34
-9.18
-10.74
-12.36
-14.37
-16.79
-19.36
-21.72
-23.60
-24.96
-25.81
-26.04
-25.32
-23.27
-19.77
-15.16
-10.19
-5.73
-2.44
-0.53
0.17
-0.01
-0.74
-1.79
-2.94
-3.91
-4.39
-4.25
-3.56
-2.66
-1.95
-1.64
-1.68
-1.72
-1.36
-0.32
1.40
3.56
5.72
7.40
8.16
7.71
5.94
3.04
-0.34
-3.18
-4.22
-2.39
2.70
10.57
19.91
29.02
36.34
40.94
42.61
41.70
38.85
34.70
29.85
24.86
20.34
16.87
14.88
14.46
15.25
16.54
17.49
17.45
16.24
14.18
11.94
10.19
9.24
8.87
8.46
7.32
5.10
1.96
-1.44
-4.34
-6.23
-7.06
-7.20
-7.18
-7.41
-7.98
-8.66
-9.12
-9.03
-8.30
-7.03
-5.47
-3.93
-2.66
-1.84
-1.56
-1.82
-2.56
-3.63
-4.84
-5.97
-6.81
-7.16
-6.95
-6.18
-4.98
-3.55
-2.16
-1.07
-0.48
-0.45
-0.84
-1.36
-1.73
-1.83
-1.76
-1.81
-2.22
-3.01
-3.95
-4.60
-4.64
-3.94
-2.65
-1.05
0.58
2.08
3.33
4.22
4.60
4.38
3.57
2.44
1.37
0.75
0.75
1.21
1.69
1.71
0.96
-0.45
-2.07
-3.22
-3.37
-2.33
-0.41
1.82
3.73
4.97
5.55
5.81
6.19
7.05
8.50
10.46
12.61
14.54
15.75
15.72
14.02
10.46
5.19
-1.10
-7.42
-12.67
-16.00
-17.12
-16.35
-14.44
-12.25
-10.43
-9.24
-8.63
-8.32
-8.09
-7.85
-7.62
-7.47
-7.47
-7.60
-7.86
-8.22
-8.64
-9.00
-9.06
-8.45
-6.86
-4.17
-0.56
3.46
7.26
10.29
12.26
13.19
13.32
12.88
12.03
10.81
9.21
7.31
5.37
3.78
2.98
3.31
4.90
7.56
10.87
14.21
16.95
18.57
18.77
17.49
14.92
11.41
7.42
3.44
-0.05
-2.72
-4.42
-5.27
-5.62
-5.99
-6.85
-8.46
-10.69
-13.06
-14.89
-15.53
-14.63
-12.28
-8.97
-5.41
-2.25
0.14
1.73
2.77
3.67
4.76
6.19
7.85
9.40
10.42
10.52
9.56
7.70
5.36
3.09
1.29
0.10
-0.65
-1.32
-2.19
-3.33
-4.54
-5.50
-5.96
-5.87
-5.44
-4.92
-4.54
-4.32
-4.08
-3.61
-2.73
-1.45
0.10
1.69
3.11
4.28
5.24
6.13
7.12
8.38
9.99
11.95
14.18
16.49
18.69
20.61
22.16
23.33
24.16
24.70
24.94
24.79
24.08
22.62
20.29
17.14
13.37
9.29
5.17
1.13
-2.91
-7.11
-11.56
-16.15
-20.54
-24.27
-27.00
-28.60
-29.25
-29.28
-29.05
-28.83
-28.74
-28.80
-28.99
-29.26
-29.54
-29.76
-29.87
-29.92
-30.00
-30.25
-30.75
-31.43
-32.04
-32.18
-31.42
-29.43
-26.11
-21.65
-16.54
-11.42
-6.96
-3.63
-1.57
-0.59
-0.28
-0.19
-0.04
0.29
0.75
1.37
2.27
3.61
5.48
7.78
10.16
12.16
13.44
13.86
13.60
12.99
12.41
12.09
12.04
12.10
12.07
11.75
11.13
10.31
9.48
8.84
8.45
8.19
7.80
6.92
5.32
2.95
-0.01
-3.16
-6.03
-8.22
-9.46
-9.74
-9.20
-8.09
-6.60
-4.81
-2.70
-0.24
2.45
5.05
7.09
8.15
8.04
6.87
5.04
3.03
1.20
-0.28
-1.43
-2.34
-3.01
-3.42
-3.54
-3.42
-3.18
-2.91
-2.61
-2.15
-1.41
-0.40
0.63
1.32
1.34
0.61
-0.66
-2.05
-3.17
-3.85
-4.16
-4.35
-4.67
-5.22
-5.94
-6.66
-7.20
-7.52
-7.62
-7.59
-7.44
-7.07
-6.33
-5.02
-3.07
-0.55
2.23
4.88
7.02
8.45
9.16
9.32
9.14
8.74
8.16
7.33
6.26
5.08
4.04
3.42
3.35
3.74
4.31
4.72
4.75
4.42
3.87
3.30
2.85
2.53
2.35
2.32
2.51
3.01
3.84
4.91
6.08
7.23
8.29
9.28
10.23
11.13
11.96
12.71
13.46
14.38
15.74
17.73
20.49
23.90
27.61
31.02
33.41
34.16
32.97
30.06
26.13
22.23
19.29
17.90
18.01
19.06
20.11
20.13
18.25
14.06
7.75
0.29
-6.88
-12.20
-14.68
-14.29
-12.05
-9.61
-8.44
-9.19
-11.48
-14.09
-15.60
-14.96
-11.85
-6.58
-0.00
6.83
12.83
17.08
19.00
18.45
15.76
11.70
7.25
3.39
0.88
0.11
1.04
3.23
6.01
8.60
10.34
10.82
10.02
8.29
6.21
4.39
3.30
3.09
3.64
4.63
5.73
6.77
7.69
8.45
8.83
8.40
6.69
3.45
-1.14
-6.46
-11.86
-16.88
-21.38
-25.44
-29.00
-31.81
-33.43
-33.58
-32.36
-30.25
-27.87
-25.65
-23.61
-21.44
-18.79
-15.59
-12.10
-8.84
-6.25
-4.36
-2.71
-0.46
3.23
8.74
15.72
23.08
29.53
34.21
37.22
39.69
43.31
49.55
58.89
70.60
83.05
94.37
103.18
108.97
112.08
113.34
113.67
113.82
114.39
115.91
118.99
124.10
131.34
140.19
149.64
158.73
167.18
175.79
186.09
199.55
216.58
235.98
255.13
270.92
280.81
283.54
279.15
268.47
252.47
231.99
207.87
181.28
153.83
127.34
103.17
81.55
61.43
40.80
17.64
-9.07
-38.79
-69.67
-99.34
-126.05
-149.51
-171.04
-193.20
-219.14
-251.83
-293.23
-343.21
-398.50
-452.37
-495.61
-519.04
-516.75
-488.66
-440.91
-383.70
-327.52
-279.63
-242.45
-214.38
-192.08
-172.90
-155.78
-140.84
-128.05
-116.37
-103.82
-88.58
-70.04
-49.31
-28.87
-11.30
1.96
11.18
18.11
25.18
34.38
46.54
61.24
77.25
93.29
108.64
123.40
138.26
153.99
171.01
189.08
207.28
224.24
238.41
248.27
252.43
249.77
239.47
221.34
196.11
165.62
132.59
99.96
70.01
43.65
20.28
-1.74
-24.14
-47.79
-72.33
-96.46
-118.70
-138.27
-155.42
-171.16
-186.63
-202.48
-218.60
-234.26
-248.24
-259.03
-264.78
-263.63
-254.12
-236.02
-210.69
-180.95
-150.12
-120.80
-94.12
-69.97
-48.07
-29.24
-16.06
-12.27
-21.33
-45.00
-81.97
-127.87
-176.18
-219.81
-252.80
-271.42
-274.62
-263.84
-242.45
-214.38
-182.74
-149.01
-113.24
-75.16
-35.37
4.10
40.38
70.34
92.52
107.85
119.01
129.06
140.10
152.92
167.62
184.39
202.00
219.18
234.98
248.74
260.05
268.57
274.17
277.02
277.18
270.88
254.43
226.63
190.02
149.46
109.45
72.08
36.71
0.85
-43.83
-104.42
-183.10
-275.95
-375.33
-473.10
-561.63
-633.13
-679.77
-702.95
-708.62
-704.91
-699.63
-699.15
-708.01
-727.66
-755.41
-740.79
-650.13
-480.30
-263.85
-47.48
135.39
273.99
373.08
442.56
486.98
506.39
496.73
456.91
393.29
318.21
245.37
185.80
146.13
133.12
142.02
163.03
186.77
208.17
226.87
245.03
265.28
289.62
318.49
346.48
366.49
373.41
366.58
349.36
326.80
303.19
280.75
259.18
234.49
202.95
164.47
123.72
88.14
64.13
54.13
55.88
64.38
74.09
82.30
90.13
100.99
117.81
140.66
166.56
190.98
210.17
222.59
229.13
231.83
232.00
228.84
219.44
200.42
169.92
129.03
81.70
33.44
-10.62
-47.25
-75.35
-95.40
-108.77
-117.37
-123.77
-131.19
-142.73
-160.03
-182.11
-205.33
-224.62
-235.69
-236.79
-229.17
-216.07
-201.00
-186.26
-172.61
-159.78
-147.32
-135.00
-122.73
-110.00
-95.80
-79.02
-59.15
-36.89
-14.26
5.89
20.82
28.64
28.82
22.22
10.83
-2.68
-15.41
-24.73
-28.66
-26.03
-16.53
-0.58
20.73
45.78
72.33
97.69
119.08
134.16
141.63
141.59
135.26
124.68
112.15
99.84
89.54
82.49
79.06
78.36
78.02
74.10
62.40
40.19
7.79
-30.83
-68.93
-99.08
-115.56
-116.57
-105.42
-88.80
-74.04
-66.27
-67.02
-74.67
-85.83
-96.75
-104.23
-106.94
-104.30
-95.63
-80.14
-57.86
-30.83
-2.99
21.04
37.48
42.99
36.02
17.09
-11.49
-46.42
-84.30
-121.94
-156.33
-176.87
-175.08
-149.38
-107.32
-61.00
-20.02
11.51
34.07
50.32
62.95
72.55
78.47
80.18
77.95
72.88
65.86
57.07
46.30
34.23
22.40
14.04
13.21
22.79
42.63
68.54
93.63
111.23
117.74
113.04
97.93
78.03
58.11
40.48
25.34
12.25
1.32
-6.59
-10.97
-12.14
-11.05
-9.40
-8.80
-10.00
-12.71
-15.88
-18.06
-18.13
-15.62
-10.54
-3.83
3.33
9.99
16.01
21.54
27.18
33.56
41.00
49.55
58.90
68.82
79.33
90.30
100.66
108.25
110.14
103.68
87.82
63.66
34.28
3.74
-24.20
-47.13
-63.91
-74.14
-77.68
-74.49
-65.12
-50.96
-34.22
-17.42
-2.87
7.92
14.24
16.00
13.52
7.23
-2.44
-15.14
-29.44
-43.96
-57.27
-67.99
-74.84
-76.93
-74.23
-67.94
-60.36
-54.15
-51.44
-52.40
-54.93
-55.48
-50.70
-39.26
-22.39
-3.31
14.41
27.96
36.55
41.38
44.84
49.37
56.62
67.05
79.94
93.39
103.82
107.24
100.79
84.26
60.70
35.38
13.76
-0.66
-7.42
-9.45
-10.71
-14.08
-20.47
-29.12
-39.12
-50.19
-62.63
-71.82
-72.67
-61.81
-39.81
-10.87
20.07
48.95
73.18
91.59
104.35
111.85
114.99
115.20
113.77
112.11
110.64
109.45
108.06
105.89
102.06
96.12
88.41
79.11
68.82
57.85
46.06
32.73
16.90
-3.05
-29.30
-58.68
-89.80
-121.26
-151.68
-179.71
-204.26
-224.56
-240.38
-251.76
-258.52
-260.88
-258.43
-250.48
-236.54
-216.81
-192.55
-166.15
-140.78
-119.60
-105.54
-99.70
-101.11
-106.88
-113.07
-115.87
-112.77
-103.19
-88.58
-72.11
-57.25
-46.64
-41.30
-40.36
-41.43
-41.18
-36.34
-24.69
-6.30
15.92
36.10
46.43
39.54
11.51
-35.74
-94.09
-151.51
-196.18
-220.34
-222.43
-206.27
-178.28
-144.53
-108.79
-72.69
-36.74
-1.26
33.52
67.93
102.84
138.83
174.80
207.26
231.26
242.73
240.94
229.36
214.59
203.66
201.44
209.38
225.91
247.64
270.31
288.95
297.89
291.55
266.14
221.73
163.18
99.07
38.95
-9.76
-43.67
-63.63
-73.03
-75.90
-75.38
-73.22
-70.23
-66.92
-64.02
-62.62
-63.93
-68.77
-77.02
-87.16
-96.22
-100.43
-96.33
-82.08
-58.42
-28.63
2.33
29.42
49.01
59.92
63.43
62.56
60.77
60.73
63.80
70.04
78.69
88.64
98.68
107.52
113.90
116.90
116.45
113.81
111.47
112.50
119.32
132.74
151.44
172.42
192.03
207.01
215.07
214.83
205.21
184.91
152.44
107.07
50.34
-12.70
-73.69
-123.16
-153.92
-164.01
-157.43
-142.01
-125.69
-113.22
-105.30
-100.30
-97.02
-96.48
-101.13
-112.34
-128.08
-142.77
-149.80
-145.22
-130.34
-111.43
-96.76
-92.50
-99.74
-114.30
-128.97
-137.02
-135.15
-124.96
-111.82
-102.38
-101.76
-111.59
-129.82
-152.15
-174.03
-192.31
-205.64
-213.69
-216.04
-211.71
-199.53
-179.20
-151.86
-119.89
-85.50
-49.21
-9.39
36.21
87.77
141.06
187.35
216.12
219.12
194.22
146.36
85.78
23.72
-31.22
-75.11
-108.62
-134.98
-157.51
-178.19
-197.28
-214.12
-228.09
-239.01
-246.99
-251.82
-252.59
-247.66
-235.23
-214.39
-185.85
-151.83
-115.30
-78.53
-42.26
-5.62
32.71
73.02
113.60
151.22
182.74
206.57
223.97
238.73
256.05
280.20
312.83
351.79
391.29
423.67
442.29
444.29
431.59
409.45
383.15
354.92
322.94
283.27
233.26
174.40
112.71
56.18
11.50
-18.03
-32.40
-33.28
-22.75
-3.31
21.07
44.48
60.18
63.07
52.20
31.12
6.40
-15.11
-28.77
-33.11
-29.40
-20.31
-8.57
4.09
17.05
30.51
44.90
60.39
76.33
91.47
104.15
113.12
118.08
119.51
118.01
113.91
107.21
97.92
86.81
75.42
65.61
59.28
57.07
57.99
60.13
61.70
61.87
61.34
61.56
64.15
71.73
85.93
106.43
130.50
153.51
169.67
174.68
166.50
146.34
121.19
98.67
83.22
74.04
66.36
53.91
34.38
9.37
-16.32
-32.50
-31.98
-14.15
15.35
48.79
79.51
107.02
133.00
158.83
189.58
226.47
265.30
297.94
316.92
317.50
302.99
279.17
217.19
105.57
-44.25
-201.13
-333.64
-414.78
-454.14
-463.27
-452.81
-432.90
-409.32
-386.56
-367.58
-352.43
-336.76
-315.34
-282.55
-240.33
-197.88
-162.11
-136.44
-119.41
-107.04
-94.73
-81.18
-66.54
-54.06
-46.18
-37.81
-19.57
16.45
68.75
126.42
172.57
193.86
185.28
153.08
114.12
87.26
84.15
101.37
125.16
139.09
133.02
105.47
62.03
12.05
-37.15
-84.06
-136.33
-202.56
-285.62
-379.05
-469.62
-542.94
-588.01
-601.15
-565.84
-482.14
-369.43
-256.96
-164.77
-95.40
-41.37
5.46
47.75
82.97
104.20
109.15
102.19
92.92
91.56
104.12
132.23
172.27
217.06
255.68
279.52
285.53
272.70
245.74
206.41
161.96
121.62
92.21
73.42
61.03
50.84
42.49
38.04
38.76
44.57
52.74
59.38
60.80
55.89
44.84
31.05
17.52
5.49
-4.96
-15.31
-27.46
-43.00
-57.39
-69.20
-76.71
-79.19
-76.67
-69.39
-58.13
-44.18
-28.55
-11.40
3.37
17.69
32.86
49.52
67.85
87.62
108.04
128.29
148.00
165.94
181.58
194.08
202.96
208.06
209.57
206.62
197.65
184.93
168.91
149.10
125.09
97.81
69.22
42.75
19.65
0.49
-14.05
-24.37
-33.69
-44.43
-56.68
-68.73
-76.20
-79.30
-79.70
-78.91
-79.38
-88.14
-110.26
-146.32
-193.57
-243.82
-295.08
-346.57
-396.50
-443.66
-493.16
-547.90
-605.94
-662.30
-706.06
-735.30
-750.57
-752.30
-697.03
-564.82
-368.21
-147.90
20.98
132.25
193.88
215.00
212.22
193.23
155.90
98.35
36.30
-14.60
-39.12
-39.43
-25.43
-6.39
11.65
23.25
29.22
36.20
51.00
80.89
121.28
162.76
196.66
217.40
221.61
210.97
191.16
167.38
145.67
126.40
108.78
93.05
79.70
67.72
55.90
43.92
31.74
21.35
13.66
9.69
10.52
16.29
26.27
38.95
53.26
68.32
84.53
102.57
123.47
146.33
170.02
190.64
201.75
197.00
172.46
129.08
73.41
16.10
-31.10
-58.66
-62.58
-45.06
-12.86
24.74
58.80
82.98
94.68
94.67
86.13
73.53
58.06
40.95
23.31
6.80
-6.81
-16.15
-20.95
-21.81
-20.64
-18.95
-17.13
-14.46
-9.58
-1.46
10.01
22.12
33.73
42.83
47.88
48.56
45.57
40.38
34.44
28.77
23.56
19.91
15.82
10.14
2.51
-6.63
-16.16
-24.89
-32.02
-37.32
-40.94
-43.90
-46.96
-50.78
-55.31
-59.54
-62.45
-63.21
-61.68
-58.32
-54.41
-51.19
-49.85
-50.46
-51.58
-51.42
-48.53
-42.37
-33.50
-23.46
-14.04
-6.88
-1.94
3.13
11.39
25.71
47.77
77.85
115.32
160.01
206.17
242.46
262.03
263.15
249.65
228.47
206.06
186.63
171.66
159.83
148.10
132.78
109.77
76.71
34.82
-11.04
-53.69
-86.99
-108.51
-119.40
-122.46
-120.62
-115.38
-106.98
-95.90
-83.52
-72.71
-66.67
-66.84
-71.77
-78.12
-82.50
-82.75
-79.81
-75.84
-73.98
-76.99
-86.12
-100.87
-119.31
-138.26
-152.01
-156.42
-147.97
-125.89
-93.34
-56.74
-23.47
0.81
14.34
19.13
19.00
17.61
16.54
15.36
13.00
9.22
4.98
1.97
1.36
2.92
5.52
7.71
8.40
7.66
6.60
6.45
8.26
11.89
16.40
20.67
23.77
25.48
26.31
27.30
29.00
31.36
33.74
35.28
35.52
34.72
33.83
34.12
36.80
41.80
47.99
53.97
58.47
61.05
62.23
63.23
65.48
70.70
79.65
92.16
107.11
121.56
131.02
130.53
116.71
87.42
48.99
10.28
-20.75
-39.55
-46.58
-45.98
-42.77
-40.18
-38.75
-36.96
-33.98
-31.23
-30.45
-33.70
-41.84
-53.88
-67.47
-79.79
-88.69
-92.47
-93.25
-93.25
-94.18
-96.55
-100.04
-104.17
-108.67
-113.07
-116.23
-115.69
-107.51
-88.40
-57.80
-19.14
21.05
55.53
79.27
91.16
93.40
90.38
86.01
82.46
80.18
79.29
80.52
84.94
92.40
99.98
102.41
93.84
71.15
36.22
-3.76
-39.09
-61.89
-69.38
-64.55
-53.64
-43.24
-35.69
-30.57
-26.06
-21.06
-16.23
-13.36
-13.77
-17.07
-21.33
-24.19
-24.19
-21.55
-17.77
-14.63
-13.28
-13.72
-15.00
-16.09
-16.25
-15.52
-14.40
-13.62
-13.69
-14.56
-15.72
-16.38
-16.35
-15.81
-15.16
-14.84
-15.16
-16.16
-17.74
-19.68
-21.13
-20.89
-16.75
-5.73
14.90
45.84
85.43
130.12
175.98
220.21
260.35
