1595871983.00
64.000000
-0.00
-0.00
-0.00
-0.00
-0.00
-0.00
-0.00
-0.00
-0.00
-0.00
0.00
0.01
0.01
-0.00
-0.03
-0.05
-0.05
0.00
0.13
0.36
0.66
1.01
1.37
1.72
2.06
2.40
2.79
3.24
3.80
4.42
5.06
5.66
6.20
6.68
7.15
7.68
8.31
9.14
10.09
11.04
11.88
12.56
13.14
13.76
14.65
15.96
17.91
20.32
22.90
25.38
27.58
29.57
31.68
34.32
37.81
42.54
48.15
54.10
59.83
64.97
69.58
74.14
79.34
85.71
93.76
103.00
112.62
121.73
129.77
136.75
143.30
150.75
157.77
166.64
177.95
191.79
206.97
220.57
228.25
225.36
208.53
176.87
132.77
80.06
23.07
-34.95
-92.45
-149.17
-205.23
-260.34
-313.66
-363.77
-409.76
-450.95
-486.77
-516.28
-538.05
-550.26
-551.12
-539.57
-515.41
-479.89
-435.13
-383.77
-328.40
-271.22
-213.93
-157.80
-103.92
-53.23
-6.81
34.42
69.84
99.26
123.00
141.69
156.10
166.82
174.25
178.51
179.70
178.09
174.18
168.74
162.53
156.09
149.56
142.65
134.95
126.14
116.35
106.11
96.24
87.45
79.99
73.51
67.22
60.33
52.41
43.72
35.08
27.52
21.58
17.25
13.88
10.64
7.04
3.03
-1.45
-6.86
-14.00
-22.97
-31.72
-35.89
-29.85
-9.45
25.27
69.46
115.18
154.95
184.44
202.82
210.78
208.03
192.56
162.28
118.14
65.83
14.77
-25.56
-49.63
-57.94
-55.72
-49.74
-45.17
-43.81
-44.74
-46.13
-46.88
-47.38
-48.77
-51.97
-57.21
-63.97
-71.12
-78.28
-86.20
-96.24
-108.59
-121.02
-128.09
-123.15
-101.23
-61.74
-9.29
47.98
101.44
144.46
172.32
183.35
177.23
154.82
119.13
76.02
33.57
-0.38
-21.18
-28.89
-27.38
-22.01
-16.80
-13.44
-11.51
-10.01
-8.41
-6.93
-6.02
-5.69
-5.54
-5.05
-3.68
-1.44
1.22
3.68
5.41
6.22
6.35
6.32
6.66
7.63
9.08
10.52
11.26
10.74
8.65
5.04
0.29
-5.24
-11.22
-17.54
-24.19
-31.11
-37.99
-44.28
-49.25
-52.05
-52.11
-49.29
-43.95
-36.68
-28.10
-18.68
-8.18
2.77
13.79
24.24
33.14
39.45
42.40
41.96
38.89
34.50
30.05
26.46
23.90
21.52
18.04
12.36
4.19
-5.65
-15.58
-24.29
-30.75
-35.23
-39.15
-44.43
-52.75
-65.13
-81.60
-100.10
-118.44
-132.47
-137.35
-129.47
-108.40
-77.84
-44.68
-16.28
2.57
11.25
13.11
12.73
12.92
13.43
11.88
5.87
-4.67
-16.98
-26.81
-30.51
-26.45
-15.48
-0.20
15.72
28.28
33.33
27.35
8.96
-19.14
-49.68
-72.57
-78.54
-63.33
-30.27
11.28
50.27
78.70
94.25
99.52
99.46
97.08
93.11
86.85
78.01
67.91
59.15
54.33
54.29
57.63
61.37
62.74
60.31
54.78
48.37
43.59
41.90
43.19
45.99
48.35
48.88
47.45
45.07
43.17
42.77
43.79
45.22
45.74
44.68
41.79
37.90
34.45
32.91
34.57
39.81
47.86
56.37
61.57
59.25
46.58
23.74
-6.05
-36.04
-60.00
-74.49
-79.80
-79.07
-76.27
-73.89
-72.31
-69.79
-64.56
-56.29
-46.42
-37.44
-31.63
-30.07
-32.05
-35.38
-37.59
-37.07
-33.61
-28.85
-24.85
-22.89
-22.87
-23.71
-23.51
-21.22
-17.02
-12.08
-7.54
-4.45
-2.71
-1.45
0.49
3.93
8.86
14.52
19.78
23.60
25.44
25.51
24.47
23.07
21.85
20.82
19.58
17.45
14.05
9.28
3.57
-2.41
-7.95
-12.57
-16.18
-19.05
-21.58
-24.13
-26.81
-29.31
-31.16
-31.89
-31.34
-29.76
-27.71
-25.79
-24.37
-23.52
-23.04
-22.75
-22.60
-22.59
-22.52
-21.78
-19.32
-14.08
-5.46
6.31
19.88
33.12
43.56
49.26
49.39
44.61
36.87
28.94
23.65
22.77
26.23
32.48
39.28
44.72
48.02
49.20
48.66
46.57
43.01
38.89
36.60
39.06
48.07
62.51
78.39
91.50
100.86
110.24
126.63
155.99
198.93
249.24
296.48
328.79
337.95
323.76
293.87
259.55
230.27
210.09
197.75
189.45
181.81
173.97
167.27
163.05
160.91
158.38
152.17
139.99
121.62
98.81
74.78
52.57
33.68
17.61
2.32
-14.56
-34.38
-56.93
-80.61
-103.03
-122.08
-136.73
-147.35
-155.18
-161.47
-166.77
-170.64
-172.00
-169.74
-163.43
-153.77
-142.39
-131.33
-122.16
-115.41
-110.51
-106.19
-101.23
-95.07
-88.09
-81.30
-75.70
-71.58
-68.16
-63.89
-57.34
-48.09
-37.40
-27.92
-22.94
-25.38
-36.98
-58.37
-89.32
-128.47
-172.48
-215.51
-250.08
-269.32
-269.88
-253.69
-226.68
-195.56
-164.15
-131.88
-95.25
-51.21
-0.18
53.26
102.40
141.69
168.97
184.81
191.81
192.98
190.20
184.28
175.72
165.63
155.88
148.54
144.25
142.48
141.86
140.25
135.05
124.08
106.72
84.29
59.37
32.97
5.88
-21.17
-48.12
-75.93
-105.86
-138.13
-171.37
-203.44
-237.45
-275.41
-315.55
-353.66
-386.70
-413.49
-433.83
-447.69
-454.49
-462.37
-473.34
-479.54
-469.98
-441.25
-400.22
-359.61
-331.69
-322.87
-347.29
-404.50
-475.51
-534.28
-563.80
-559.60
-525.22
-468.29
-399.11
-350.83
-347.33
-390.34
-465.59
-558.35
-658.48
-759.00
-854.73
-810.33
-577.17
-225.18
127.37
410.51
609.87
734.21
797.44
815.49
806.92
769.66
707.12
635.17
572.41
526.56
495.13
473.54
459.67
453.64
439.32
406.77
360.26
312.40
272.02
241.45
219.76
204.89
194.91
178.59
151.18
119.47
96.23
89.86
100.68
122.85
147.96
168.70
176.23
168.12
149.36
127.97
109.28
94.58
83.08
73.95
67.19
61.47
55.93
50.44
45.10
39.48
32.90
25.31
17.50
10.68
5.77
3.08
1.93
1.25
-0.19
-3.11
-7.50
-12.81
-18.10
-22.77
-26.34
-29.02
-31.37
-34.01
-37.30
-41.15
-45.10
-48.42
-50.43
-50.60
-48.76
-44.96
-39.56
-32.68
-24.51
-15.29
-5.31
5.01
15.18
24.59
32.71
39.14
43.62
46.15
46.84
45.95
43.78
40.68
36.92
32.78
28.47
24.14
19.90
15.82
11.95
8.27
4.79
1.46
-1.72
-4.80
-7.83
-10.79
-13.68
-16.50
-19.30
-22.11
-24.96
-27.90
-30.98
-34.29
-37.72
-41.21
-44.74
-48.30
-51.93
-55.67
-59.63
-63.94
-68.85
-74.24
-80.15
-86.63
-93.74
-101.52
-109.98
-119.12
-128.90
-139.29
-149.76
-159.86
-169.14
-177.13
-183.31
-187.08
-187.67
-183.98
-177.83
-169.85
-160.52
-150.29
-139.61
-128.88
-118.50
-108.77
-99.97
-92.35
-85.63
-79.58
-73.99
-68.63
-63.28
-57.81
-52.12
-46.25
-40.35
-34.30
-28.18
-22.13
-16.35
-11.04
-6.39
-2.53
0.44
2.47
3.79
4.59
5.05
5.31
5.47
5.64
5.88
6.25
6.78
7.56
8.62
9.90
11.28
12.61
13.72
14.49
14.85
14.80
14.42
13.77
12.88
11.73
10.23
8.39
6.25
4.06
2.13
0.79
0.31
0.71
1.81
3.27
4.83
6.41
8.28
10.98
15.13
21.18
29.20
38.83
49.43
60.41
71.50
83.00
95.61
110.18
127.33
147.05
168.76
191.52
214.42
236.91
258.98
281.12
304.14
329.11
357.18
389.19
424.82
461.93
496.20
522.01
534.09
529.52
508.88
476.05
436.64
395.83
356.92
320.99
287.64
256.19
226.35
198.29
172.17
147.74
124.33
101.34
78.59
56.44
35.62
16.74
-0.05
-15.23
-29.66
-44.13
-58.82
-73.05
-85.31
-93.72
-96.73
-93.71
-85.34
-73.45
-60.69
-49.88
-43.52
-43.35
-49.97
-62.94
-80.83
-101.68
-123.44
-144.45
-163.64
-180.62
-195.50
-208.67
-220.44
-230.62
-238.06
-240.39
-234.24
-216.22
-184.37
-139.51
-85.71
-29.32
22.95
66.24
98.94
122.62
141.01
158.30
177.72
200.63
226.23
251.79
273.19
286.06
287.05
275.07
251.73
220.93
187.22
154.29
123.84
95.36
66.71
34.86
-3.15
-49.27
-103.26
-162.02
-219.35
-267.31
-298.78
-310.30
-303.58
-284.73
-261.51
-240.00
-222.54
-207.86
-192.66
-173.73
-149.20
-118.98
-84.55
-48.72
-15.45
10.67
25.48
26.56
14.13
-8.66
-36.47
-63.44
-84.69
-97.63
-102.48
-101.99
-100.39
-101.41
-106.55
-113.99
-119.33
-117.72
-106.43
-86.50
-62.38
-40.10
-24.62
-18.18
-19.87
-26.68
-34.95
-41.43
-43.69
-39.96
-29.09
-10.72
14.14
42.82
71.18
94.70
109.92
115.53
112.96
105.52
96.99
90.12
85.59
82.03
76.80
67.31
52.31
32.69
11.61
-6.55
-17.71
-19.79
-13.58
-2.48
9.04
17.32
21.13
21.90
22.74
26.84
35.91
49.73
66.44
83.59
99.14
111.95
121.66
128.37
132.20
133.09
131.11
126.73
121.03
115.52
111.41
108.95
106.81
101.96
90.34
67.98
32.81
-14.08
-68.08
-122.10
-168.37
-200.16
-213.10
-205.48
-178.35
-135.69
-84.56
-34.82
2.71
19.48
12.47
-14.37
-51.53
-87.78
-114.63
-128.77
-131.82
-127.74
-120.03
-110.47
-99.43
-87.12
-74.45
-62.95
-53.79
-47.06
-41.61
-35.98
-29.37
-22.14
-15.50
-10.75
-8.63
-8.75
-9.99
-10.99
-10.83
-9.46
-7.53
-5.89
-5.09
-5.21
-5.96
-7.11
-8.50
-9.78
-10.12
-8.10
-2.36
7.62
20.98
35.73
49.44
60.33
67.71
71.70
72.68
70.77
66.05
59.07
51.24
44.51
40.67
40.44
43.31
47.89
52.81
57.33
61.35
65.19
69.11
73.15
76.98
79.85
80.57
77.60
69.51
55.63
36.61
14.29
-8.95
-30.99
-50.46
-66.57
-78.61
-85.66
-86.99
-82.68
-74.20
-64.23
-55.74
-50.93
-50.52
-53.74
-59.05
-64.83
-69.87
-73.64
-76.23
-78.10
-80.07
-82.88
-86.86
-91.41
-94.74
-94.17
-87.03
-71.78
-48.81
-20.47
9.78
38.75
64.64
87.14
106.83
123.78
136.66
142.75
138.95
123.26
95.87
59.34
17.69
-24.66
-63.85
-96.78
-121.04
-134.88
-137.60
-130.10
-115.01
-96.13
-77.06
-60.07
-45.79
-34.03
-24.96
-19.70
-19.44
-23.75
-29.35
-30.72
-22.61
-3.05
24.90
53.96
75.58
83.50
76.06
55.96
28.52
-0.88
-28.47
-52.28
-71.28
-84.45
-90.64
-88.93
-79.16
-61.80
-37.50
-6.41
31.65
76.13
124.41
170.84
207.43
226.09
221.82
195.21
152.78
104.70
60.91
27.43
4.84
-10.33
-22.45
-33.71
-42.98
-46.94
-42.66
-30.28
-13.47
2.16
11.81
14.09
11.58
9.38
12.45
23.10
39.95
58.85
74.82
84.39
87.19
85.98
85.28
89.29
99.86
115.58
132.19
144.08
146.04
134.78
109.62
72.41
26.92
-21.93
-68.83
-109.11
-139.63
-159.89
-172.65
-183.60
-199.67
-226.43
-265.16
-311.19
-355.25
-387.37
-401.73
-399.62
-388.34
-376.26
-367.13
-357.40
-338.44
-302.82
-250.49
-190.62
-137.65
-103.74
-92.16
-95.65
-100.76
-95.03
-72.71
-35.82
9.08
55.93
102.32
149.19
198.10
247.80
292.82
324.83
336.28
323.96
290.68
244.44
195.30
151.70
117.75
92.43
70.96
47.54
18.36
-16.35
-52.05
-81.75
-98.86
-100.21
-87.30
-65.34
-40.58
-17.25
3.90
24.97
48.38
74.44
100.46
122.33
137.27
146.05
153.10
164.45
184.56
213.93
248.44
280.71
302.42
306.36
287.99
246.21
184.05
109.18
33.47
-29.16
-66.52
-72.47
-49.80
-9.85
31.52
59.96
67.90
56.53
33.68
9.07
-10.32
-22.49
-29.61
-34.84
-39.17
-40.19
-33.58
-16.03
12.01
45.87
78.86
105.52
124.38
138.21
151.82
168.67
188.88
209.43
226.50
238.18
245.38
250.62
255.54
259.04
257.47
246.66
224.17
190.31
147.58
99.28
48.50
-2.02
-49.38
-90.20
-121.20
-140.46
-148.55
-148.35
-144.04
-139.26
-135.86
-133.75
-131.63
-128.31
-123.58
-118.32
-113.76
-110.84
-109.73
-109.84
-110.35
-110.56
-110.28
-109.78
-109.52
-109.75
-110.31
-110.59
-109.85
-107.69
-104.26
-100.23
-96.48
-93.62
-91.76
-90.51
-89.25
-87.43
-84.89
-81.72
-78.27
-74.92
-72.00
-69.73
-68.22
-67.40
-66.96
-66.50
-65.57
-64.00
-61.96
-59.94
-58.52
-58.02
-58.47
-59.52
-60.64
-61.31
-61.18
-60.10
-58.07
-55.18
-51.55
-47.31
-42.53
-37.27
-31.47
-25.10
-18.11
-10.50
-2.31
6.26
14.92
23.21
30.56
36.41
40.37
42.37
42.86
42.63
42.62
43.56
45.77
49.05
52.92
56.84
60.40
63.42
65.76
67.27
67.71
66.89
64.77
61.58
57.71
53.59
49.46
45.24
40.62
35.07
28.08
19.38
9.18
-1.68
-11.88
-20.08
-25.54
-28.69
-31.12
-35.02
-42.14
-52.90
-65.96
-78.72
-88.33
-92.72
-91.17
-84.19
-73.01
-58.98
-43.36
-27.33
-12.23
0.55
9.81
14.92
16.03
14.07
10.32
5.98
1.80
-2.03
-5.67
-9.44
-13.44
-17.46
-20.82
-22.65
-22.17
-19.06
-13.69
-7.02
-0.18
5.82
10.50
13.83
15.96
17.06
17.14
16.17
14.19
11.44
8.12
4.35
0.03
-4.99
-10.68
-16.59
-21.95
-25.86
-27.70
-27.34
-25.14
-21.83
-18.21
-14.99
-12.56
-11.10
-10.46
-10.42
-10.56
-10.49
-9.89
-8.75
-7.37
-6.30
-6.11
-7.08
-9.08
-11.55
-13.72
-15.01
-15.13
-14.18
-12.39
-10.05
-7.29
-4.21
-0.99
2.02
4.33
5.44
5.04
3.17
0.19
-3.18
-6.05
-7.61
-7.33
-5.14
-1.48
2.84
6.91
9.92
11.44
11.49
10.39
8.72
6.98
5.69
5.19
5.68
7.07
9.15
11.47
13.50
14.82
15.15
14.40
12.65
10.01
6.53
2.32
-2.51
-7.71
-12.91
-17.80
-22.21
-26.17
-29.90
-33.69
-37.58
-41.43
-44.79
-46.98
-47.31
-45.15
-40.17
-32.49
-22.85
-12.49
-2.85
4.91
10.49
14.45
18.05
22.48
28.30
35.16
41.99
47.64
51.38
53.26
53.80
53.63
53.13
52.25
50.67
48.14
44.57
40.20
35.42
30.58
25.93
21.51
17.19
12.81
8.22
3.40
-1.49
-6.30
-10.84
-15.02
-18.75
-21.97
-24.48
-26.00
-26.27
-25.17
-22.86
-19.77
-16.49
-13.65
-11.75
-11.08
-11.70
-13.48
-16.12
-19.20
-22.20
-24.61
-25.99
-26.13
-25.13
-23.41
-21.55
-20.06
-19.18
-18.81
-18.66
-18.38
-17.79
-16.99
-16.23
-15.86
-16.14
-17.22
-19.11
-21.76
-25.10
-29.01
-33.21
-37.29
-40.63
-42.49
-42.22
-39.46
-34.24
-27.07
-18.76
-10.19
-2.22
4.43
9.18
11.50
11.18
8.45
4.11
-0.58
-4.30
-6.09
-5.80
-3.98
-1.62
0.41
1.75
2.56
3.32
4.39
5.74
6.81
6.77
4.80
0.62
-5.40
-12.32
-19.03
-24.65
-28.82
-31.67
-33.61
-34.94
-35.67
-35.51
-34.17
-31.54
-27.86
-23.66
-19.51
-15.79
-12.59
-9.74
-7.03
-4.37
-2.02
-0.48
-0.37
-2.01
-5.20
-9.17
-12.79
-14.97
-15.11
-13.29
-10.09
-6.36
-2.84
0.01
1.96
2.91
2.79
1.56
-0.61
-3.32
-6.01
-8.09
-9.22
-9.39
-8.91
-8.22
-7.73
-7.63
-7.87
-8.21
-8.29
-7.71
-6.11
-3.27
0.84
6.06
11.96
17.94
23.37
27.69
30.68
32.40
33.20
33.49
33.57
33.57
33.43
33.07
32.52
32.00
31.81
32.11
32.76
33.29
33.18
32.03
29.72
26.35
22.06
16.99
11.22
4.94
-1.54
-7.80
-13.43
-18.22
-22.16
-25.38
-28.01
-30.15
-31.86
-33.18
-34.11
-34.44
-33.74
-31.45
-27.20
-21.12
-13.91
-6.68
-0.45
4.13
7.01
8.59
9.38
9.65
9.13
7.11
2.75
-4.54
-14.75
-27.17
-40.58
-53.67
-65.55
-76.10
-86.09
-97.20
-111.70
-131.97
-159.58
-194.44
-234.16
-274.10
-308.25
-330.77
-337.40
-326.44
-298.73
-257.08
-205.33
-147.50
-87.27
-27.59
29.32
82.02
129.67
171.96
209.15
242.33
273.71
306.15
341.70
379.70
415.79
442.61
452.60
441.13
408.52
359.49
300.73
238.41
177.12
120.54
72.44
36.65
15.50
7.94
9.02
11.44
8.59
-2.72
-21.57
-44.48
-68.08
-90.73
-112.81
-135.43
-159.07
-182.99
-205.38
-224.21
-237.77
-244.73
-244.11
-235.23
-217.70
-191.59
-157.65
-117.63
-74.37
-31.66
6.45
36.57
56.76
67.01
68.87
64.65
56.57
46.13
34.20
21.51
9.20
-1.06
-7.46
-8.64
-4.18
5.28
18.25
32.94
47.79
61.82
74.68
86.42
97.26
107.31
116.57
124.72
131.26
135.51
136.77
134.54
128.76
119.99
109.07
96.85
83.91
70.52
56.97
43.95
32.81
25.41
23.29
26.86
34.98
45.40
55.58
63.65
68.78
71.03
70.85
68.66
64.72
59.52
53.89
48.85
45.38
43.97
44.41
46.02
47.92
49.49
50.55
51.21
51.53
51.35
50.10
46.96
41.23
32.82
22.62
12.33
3.95
-1.03
-2.27
-0.76
1.69
3.30
3.04
0.82
-2.83
-7.39
-12.72
-18.89
-25.81
-32.83
-38.78
-42.55
-43.61
-42.38
-39.92
-37.41
-35.45
-33.95
-32.32
-30.05
-27.15
-24.20
-22.05
-21.39
-22.29
-24.18
-26.06
-26.90
-26.12
-23.91
-21.11
-18.94
-18.49
-20.31
-24.32
-29.95
-36.50
-43.40
-50.39
-57.35
-64.13
-70.49
-76.00
-80.09
-82.24
-81.97
-79.11
-73.83
-66.68
-58.54
-50.39
-43.06
-37.07
-32.56
-29.30
-26.89
-24.83
-22.73
-20.45
-18.11
-16.02
-14.58
-14.01
-14.16
-14.60
-14.74
-14.02
-12.17
-9.23
-5.48
-1.37
2.66
6.23
9.03
10.85
11.62
11.42
10.54
9.37
8.23
7.11
5.69
3.46
0.04
-4.49
-9.47
-13.78
-16.28
-16.24
-13.70
-9.36
-4.25
0.63
4.61
7.42
9.07
9.61
9.11
7.65
5.40
2.67
-0.15
-2.71
-4.79
-6.38
-7.61
-8.64
-9.55
-10.39
-11.22
-12.29
-13.94
-16.56
-20.46
-25.74
-32.28
-39.73
-47.69
-55.78
-63.76
-71.67
-79.89
-88.99
-99.55
-111.77
-125.22
-138.88
-151.40
-161.68
-169.22
-174.35
-177.94
-181.00
-184.21
-187.68
-190.94
-193.21
-193.60
-191.35
-185.99
-177.32
-165.38
-150.46
-133.01
-113.54
-92.48
-69.98
-46.02
-20.55
6.17
33.35
59.63
83.47
103.70
119.96
132.64
142.38
149.42
153.30
152.97
147.31
135.79
118.84
97.82
74.84
52.31
32.62
17.80
9.20
7.18
11.09
19.42
30.35
42.31
54.29
65.85
76.71
86.42
94.47
100.39
104.13
106.19
107.58
109.41
112.51
117.29
123.49
130.43
137.23
143.06
147.31
149.83
151.10
151.99
153.71
157.16
162.51
169.00
175.21
179.67
181.73
181.94
182.01
184.09
189.82
199.57
211.95
224.06
232.06
232.19
221.58
199.03
165.14
121.98
72.42
18.89
-37.57
-97.54
-162.39
-232.37
-304.57
-372.04
-424.96
-453.65
-452.38
-421.74
-368.40
-302.39
-233.23
-167.08
-106.12
-49.95
2.38
50.47
92.37
125.45
147.66
158.22
157.69
147.80
131.34
112.43
95.10
82.59
76.44
76.40
80.83
87.67
95.46
103.86
114.08
127.31
144.14
164.40
187.52
212.63
238.48
263.18
284.10
298.86
304.30
297.26
275.54
238.82
189.16
130.85
69.76
7.05
-51.61
-98.88
-128.53
-138.57
-131.88
-114.15
-90.89
-65.95
-41.12
-16.45
6.70
25.48
36.55
37.76
29.08
12.78
-7.69
-28.43
-46.09
-59.91
-71.64
-84.48
-101.26
-122.99
-148.72
-176.23
-203.22
-227.87
-250.29
-272.11
-295.52
-321.65
-349.14
-373.82
-389.79
-391.06
-373.41
-336.06
-281.93
-217.18
-150.41
-91.35
-49.07
-29.42
-32.60
-51.77
-74.54
-86.87
-78.15
-45.12
7.29
68.58
127.49
175.83
209.95
229.62
235.80
228.89
208.52
174.97
131.22
84.11
43.30
18.24
14.42
30.55
58.37
85.99
102.90
104.32
92.36
73.63
54.56
38.11
23.41
8.26
-7.97
-23.09
-33.69
-37.74
-36.61
-34.85
-37.87
-49.56
-71.28
-102.16
-139.92
-181.11
-220.76
-252.76
-271.84
-276.96
-272.93
-268.92
-273.53
-289.21
-309.24
-320.11
-308.30
-267.93
-205.00
-136.07
-81.85
-58.87
-73.29
-119.11
-181.29
-241.75
-285.65
-305.26
-300.88
-278.27
-245.03
-207.38
-169.01
-131.88
-97.98
-70.27
-52.05
-45.18
-48.34
-56.87
-64.20
-64.74
-56.11
-39.79
-19.77
-0.48
15.61
29.00
42.62
60.14
83.92
113.83
147.28
180.45
209.91
233.92
253.03
269.58
286.83
307.68
333.36
362.80
392.42
416.98
431.21
431.74
418.52
395.02
366.96
340.16
318.61
303.52
293.72
286.96
281.21
275.37
269.00
261.74
252.77
240.88
224.84
204.02
178.52
149.16
116.99
82.94
47.51
10.86
-27.00
-66.00
-105.80
-145.73
-184.69
-221.12
-253.11
-278.74
-296.54
-305.75
-306.27
-298.27
-281.63
-255.97
-221.19
-178.46
-130.84
-83.23
-41.06
-8.47
13.19
25.73
33.18
39.93
49.05
61.41
75.79
89.88
101.38
108.87
112.20
112.30
110.69
109.00
108.54
110.03
113.62
118.97
125.45
132.38
139.18
145.50
151.30
156.70
161.66
165.70
167.73
166.19
159.53
146.82
128.26
105.23
79.86
54.12
29.15
4.81
-19.95
-46.40
-75.06
-104.86
-132.99
-155.25
-167.27
-165.86
-150.29
-122.83
-88.32
-52.81
-22.04
-0.04
11.49
12.99
6.44
-5.47
-19.83
-33.92
-45.38
-52.56
-54.82
-52.63
-47.48
-41.28
-35.84
-32.36
-31.10
-31.39
-31.84
-30.81
-26.95
-19.75
-9.85
1.15
11.34
19.33
24.89
29.01
33.28
38.98
46.24
53.77
59.36
60.61
55.84
44.46
27.25
6.05
-16.48
-37.30
-53.36
-62.24
-62.85
-56.19
-45.59
-35.94
-32.32
-38.17
-54.03
-77.37
-103.72
-128.46
-148.41
-162.39
-170.77
-174.71
-175.51
-174.55
-173.26
-172.70
-172.81
-171.57
-165.12
-149.22
-121.37
-82.60
-37.84
5.46
40.19
62.38
72.74
76.38
80.64
92.13
114.05
145.01
179.88
212.27
237.45
254.00
263.71
269.76
274.72
279.48
283.43
285.38
284.16
278.70
267.60
248.91
220.89
183.13
137.60
88.61
41.62
1.41
-29.14
-49.40
-60.39
-64.02
-62.58
-58.51
-54.20
-51.78
-52.57
-56.66
-62.70
-68.15
-70.02
-65.96
-55.27
-39.23
-20.89
-3.94
8.85
16.91
22.02
27.21
35.05
46.24
59.61
72.30
81.22
84.34
81.47
73.89
63.42
51.58
39.18
26.92
15.02
3.47
-7.28
-15.98
-20.90
-20.76
-15.56
-6.89
3.37
12.75
19.04
20.98
18.17
10.64
-1.88
-19.89
-47.58
-83.82
-122.40
-154.25
-171.66
-171.76
-156.24
-129.63
-97.43
-64.86
-34.83
-9.60
8.69
18.81
20.49
14.27
0.73
-20.30
-49.96
-86.11
-125.97
-167.31
-208.23
-246.12
-276.36
-292.69
-289.00
-262.23
-214.45
-153.90
-92.74
-42.40
-9.26
6.78
10.59
8.65
5.84
4.06
2.00
-3.54
-15.30
-34.58
-59.92
-88.77
-118.04
-143.89
-162.21
-169.00
-162.25
-142.58
-113.10
-77.98
-41.13
-4.95
29.67
62.27
92.22
117.52
135.91
146.23
149.56
148.91
147.66
147.57
144.19
134.40
116.28
90.27
58.92
25.97
-5.08
-31.88
-53.80
-71.55
-85.90
-97.65
-107.41
-114.80
-118.86
-118.65
-113.70
-104.42
-92.13
-78.14
-63.84
-50.08
-36.58
-22.04
-5.59
13.73
36.17
61.01
87.09
112.81
136.85
158.70
178.49
196.88
215.13
234.81
257.65
285.06
316.64
349.18
376.55
390.47
383.77
353.60
302.96
240.10
175.76
119.24
76.06
47.45
30.65
21.67
17.04
14.10
10.65
4.28
-7.97
-28.74
-59.40
-101.00
-152.94
-213.14
-278.50
-345.43
-410.40
-470.57
-523.48
-559.19
-568.85
-546.33
-491.42
-410.65
-315.00
-215.89
-122.53
-40.17
29.54
85.70
128.71
159.50
179.19
188.91
190.81
185.48
173.27
154.99
130.50
100.36
65.69
28.22
-9.78
-45.41
-76.24
-99.69
-108.85
-100.87
-76.35
-39.51
3.11
42.88
75.36
96.96
104.99
98.16
76.17
41.38
-1.27
-44.52
-79.68
-99.21
-100.21
-84.48
-57.05
-24.66
7.04
34.11
53.99
64.26
64.74
55.91
38.97
17.54
-2.96
-16.11
-16.63
-2.18
25.31
59.69
91.79
112.64
115.12
97.68
66.28
32.16
6.52
-5.15
-4.48
2.58
10.43
16.75
22.61
30.41
41.01
53.17
64.25
72.03
75.96
77.25
78.24
80.97
87.02
94.58
100.31
100.46
92.59
76.30
52.57
22.70
-12.52
-51.20
-91.03
-127.76
-155.80
-169.34
-164.87
-143.13
-109.15
-70.60
-35.54
-11.86
-3.21
-11.20
-34.45
-67.75
-102.81
-129.57
-139.33
-127.77
-96.71
-53.20
-7.37
31.20
55.95
64.61
59.21
45.12
29.25
18.73
18.29
27.39
40.76
51.54
54.70
49.24
37.78
24.36
12.10
1.97
-6.69
-14.61
-21.49
-26.17
-27.68
-26.22
-23.29
-20.89
-20.97
-24.25
-30.09
-36.78
-42.50
-46.20
-48.06
-49.23
-51.16
-54.98
-60.74
-67.51
-73.61
-77.54
-78.61
-77.22
-74.51
-71.68
-69.88
-68.57
-66.40
-61.70
-53.13
-40.28
-23.69
-4.52
16.08
37.32
59.25
82.13
106.04
130.38
153.56
173.19
186.73
192.40
189.73
180.25
167.09
154.22
145.54
143.08
145.76
148.85
145.15
127.28
90.73
36.16
-29.56
-94.00
-142.69
-163.85
-152.92
-114.86
-62.79
-12.41
23.57
39.67
37.70
23.66
3.70
-16.77
-33.09
-40.71
-35.36
-15.45
15.45
48.44
72.29
78.94
67.52
43.34
13.37
-19.29
-57.49
-107.42
-172.64
-249.53
-326.99
-391.16
-432.29
-448.77
-446.62
-435.25
-422.10
-409.74
-396.54
-379.46
-357.09
-331.11
-305.69
-285.33
-271.97
-263.79
-256.58
-246.24
-230.89
-211.32
-189.63
-166.51
-139.60
-103.63
-51.88
19.66
110.01
213.14
319.83
420.60
508.01
577.56
627.44
658.90
674.08
675.63
666.78
651.50
634.22
619.23
610.01
607.96
613.40
623.55
633.19
636.07
627.16
604.39
569.10
525.45
468.36
396.61
311.23
216.22
118.30
25.63
-54.17
-116.14
-158.85
-184.10
-194.45
-193.91
-185.21
-172.73
-160.90
-153.35
-152.87
-160.91
-177.65
-200.85
-228.07
-257.51
-288.79
-323.40
-361.34
-401.92
-443.24
-482.88
-517.68
-545.21
-564.18
-567.61
-550.35
-509.52
-446.11
-365.16
-275.09
-184.75
-101.37
-29.30
30.23
77.80
115.25
144.46
167.52
184.54
194.27
194.84
184.50
162.04
126.47
78.65
21.62
-36.17
-84.10
-113.11
-119.38
-105.97
-81.47
-56.65
-39.76
-34.03
-37.91
-47.64
-59.68
-72.03
-83.91
-94.60
-103.68
-108.95
-108.11
-100.10
-85.47
-66.03
-44.01
-21.18
1.49
23.50
44.66
64.71
82.97
98.75
111.52
121.17
128.20
133.50
138.02
142.82
149.06
155.61
162.04
168.41
175.26
183.88
196.25
214.19
238.35
266.89
294.33
312.43
312.65
289.32
242.28
177.49
105.19
34.97
-22.83
-60.66
-76.05
-71.08
-51.48
-24.58
3.44
27.33
42.44
45.17
33.18
5.35
-36.22
-87.19
-142.35
-197.28
-249.79
-299.33
-345.34
-381.65
-400.35
-393.65
-357.98
-296.38
-217.81
-133.83
-54.06
16.33
76.12
125.57
166.22
197.48
217.12
223.19
214.73
192.16
156.59
109.60
53.35
-5.94
-58.99
-96.52
-112.64
-107.41
-86.08
-56.06
-25.84
2.58
28.82
50.83
63.24
59.55
35.17
-9.50
-69.10
-133.20
-190.83
-234.67
-258.30
-259.94
-241.13
-205.15
-155.82
-97.57
-34.80
28.18
86.93
137.93
178.75
208.63
228.58
241.57
248.89
250.27
244.29
228.98
203.11
166.38
119.76
65.14
6.86
-50.94
-104.88
-153.02
-194.91
-231.17
-263.17
-291.54
-314.90
-329.57
-331.12
-315.99
-284.27
-240.85
-194.22
-153.73
-125.77
-111.48
-107.23
-108.44
-109.67
-107.89
-102.29
-93.14
-80.72
-64.83
-45.30
-22.69
0.87
22.57
39.23
48.55
49.67
43.12
30.65
14.67
-2.40
-18.87
-33.36
-45.21
-53.97
-59.17
-60.65
-57.34
-49.40
-36.44
-18.41
4.60
31.30
59.33
85.68
106.49
119.90
126.31
128.02
128.36
131.15
138.60
150.76
165.78
179.42
189.55
196.63
203.11
212.83
230.45
259.56
301.71
355.28
413.52
468.79
513.62
542.15
541.93
507.09
440.26
351.96
270.42
206.38
159.16
122.97
87.48
49.64
12.92
-15.67
-30.25
-33.79
-34.73
-42.31
-63.62
-100.75
-144.95
-186.69
-217.39
-232.17
-231.03
-219.31
-202.59
-185.98
-173.88
-169.03
-172.74
-184.01
-199.04
-212.00
-217.43
-211.35
-192.84
-163.99
-127.75
-87.61
-45.83
-5.24
29.16
50.64
53.45
34.65
-4.64
-59.09
-121.37
-179.82
-223.36
-245.77
-248.14
-237.74
-224.16
-214.70
-211.47
-213.18
-214.83
-212.78
-206.29
-196.71
-185.85
-174.71
-163.10
-150.37
-136.23
-120.94
-105.72
-91.74
-79.10
-66.68
-52.83
-36.12
-15.99
7.02
31.99
57.70
83.41
109.29
136.41
166.28
200.15
237.84
276.63
311.13
334.02
338.56
321.62
285.57
238.17
190.11
151.05
126.30
115.50
113.81
115.10
115.00
112.45
109.06
107.02
107.00
107.23
104.44
95.66
80.07
59.88
39.23
22.45
12.21
8.68
10.11
14.19
19.26
24.78
30.82
37.13
42.70
46.15
46.79
45.50
44.65
46.90
53.70
64.09
74.95
82.43
83.86
79.00
70.02
60.22
52.31
47.42
45.00
43.72
42.44
40.65
38.14
34.36
28.08
17.72
2.36
-17.28
-38.51
-57.42
-70.51
-76.30
-76.00
-72.83
-70.51
-71.23
-74.55
-77.89
-78.02
-73.01
-63.50
-52.52
-44.12
-41.75
-46.86
-59.08
-77.28
-100.77
-129.83
-165.03
-205.93
-248.02
-283.77
-304.40
-303.31
-278.97
-235.68
-181.58
-125.05
-71.91
-24.74
16.51
53.17
86.19
115.52
140.23
159.05
171.06
177.42
178.86
176.10
169.36
158.05
140.65
115.33
80.69
36.20
-15.86
-72.62
-130.94
-187.23
-236.75
-273.66
-292.07
-288.64
-264.65
-226.74
-185.51
-151.29
-130.31
-122.89
-125.35
-131.03
-134.48
-132.73
-124.88
-110.85
-89.80
-60.08
-20.29
28.88
83.41
137.17
183.52
217.47
236.95
243.56
241.52
235.78
230.24
226.38
223.35
219.31
212.97
203.96
192.34
177.70
158.95
135.90
110.83
88.81
75.50
73.62
80.13
86.62
83.21
63.86
29.82
-10.88
-47.80
-73.36
-85.89
-88.99
-88.08
-86.79
-85.53
-82.57
-76.40
-67.20
-57.33
-49.88
-46.76
-47.80
-50.85
-52.93
-51.75
-46.73
-39.14
-31.36
-25.65
-23.08
-23.17
-24.22
-24.25
-22.00
-17.46
-11.78
-6.60
-3.19
-1.76
-1.58
-1.29
0.30
3.52
7.78
11.93
14.99
16.91
18.73
22.07
28.48
38.49
51.07
63.93
74.22
79.52
78.88
72.99
63.51
52.21
40.22
27.43
13.11
-3.66
-23.32
-45.60
-69.06
-91.10
-108.13
-115.88
-111.12
-92.10
-61.08
-24.67
7.41
25.48
23.34
0.72
-35.92
-76.29
-109.58
-128.34
-129.87
-115.67
-89.51
-54.66
-15.86
23.37
59.13
87.99
106.25
111.86
105.43
89.83
69.11
46.67
24.91
4.40
-15.65
-36.70
-59.75
-84.43
-108.45
-127.51
-136.37
-130.39
-108.54
-74.46
-35.80
-1.71
21.32
31.01
29.58
22.01
13.47
6.73
1.80
-2.86
-8.82
-16.50
-25.17
-33.52
-40.41
-44.83
-46.14
-44.36
-39.53
-32.17
-23.21
-13.86
-5.14
2.05
7.17
10.09
10.67
9.17
6.41
3.89
3.01
3.88
4.79
3.10
-2.82
-11.29
-16.84
-12.50
6.55
39.58
79.76
116.71
141.11
148.24
139.06
118.38
91.62
62.43
32.42
2.45
-26.02
-50.39
-67.87
-76.96
-77.99
-73.19
-66.33
-61.13
-60.36
-65.22
-75.22
-88.75
-103.68
-118.02
-130.06
-138.79
-143.76
-145.04
-142.91
-137.73
-129.88
-119.63
-107.22
-92.77
-77.03
-61.38
-47.63
-37.47
-31.76
-29.95
-29.74
-30.54
-29.44
-23.12
-8.59
15.91
50.33
92.34
137.05
178.10
209.32
227.49
233.45
232.26
231.56
238.40
256.07
282.12
309.39
329.35
336.16
328.35
308.55
281.48
251.90
223.41
197.97
176.70
160.71
151.24
148.32
149.87
151.64
148.61
137.03
115.21
83.86
45.75
4.59
-36.57
-76.47
-115.72
-158.25
-203.74
-247.56
-282.49
-301.94
-302.62
-285.48
-254.89
-217.00
-177.78
-142.17
-113.20
-93.39
-83.70
-82.63
-85.91
-87.58
-83.34
-69.77
-48.05
-24.40
-7.47
-3.25
-12.67
-31.96
-55.55
-78.90
-98.85
-114.32
-125.14
-131.33
-131.32
-123.35
-106.63
-82.52
-54.07
-23.73
6.54
35.94
63.91
91.12
118.23
145.49
172.00
190.00
194.78
184.64
167.40
148.38
132.41
120.96
116.07
118.75
128.27
142.89
158.60
169.92
170.54
157.01
129.80
93.60
55.14
20.91
-4.03
-18.07
-22.55
-21.00
-16.48
-11.01
-5.57
-1.35
-0.22
-4.10
-14.75
-32.72
-57.06
-84.45
-110.27
-130.06
-141.22
-143.83
-140.12
-133.66
-127.80
-124.37
-122.63
-119.68
-111.65
-95.63
-70.95
-39.34
-4.55
28.68
56.04
74.24
81.19
76.10
60.00
36.67
12.80
-3.35
-5.21
9.13
35.23
63.52
83.20
86.81
73.38
48.29
20.11
-4.22
-21.72
-33.55
-42.89
-52.50
-63.31
-74.72
-85.81
-96.25
-107.21
-119.35
-131.17
-138.14
-133.63
-111.56
-69.01
-8.12
63.88
134.40
190.08
220.60
221.61
195.45
149.25
91.67
30.06
-31.47
-94.16
-160.69
-232.46
-307.68
-381.67
-449.17
-506.82
-553.84
-577.48
-568.93
-524.82
-450.17
-356.90
-258.07
-163.47
-78.38
-4.32
58.27
107.34
141.60
161.09
167.52
164.31
156.14
148.70
149.45
163.94
192.84
232.45
275.27
312.23
335.84
342.40
327.38
295.97
256.48
215.28
175.70
138.47
103.56
71.61
44.11
22.58
8.62
1.70
-0.71
-1.93
-4.85
-11.25
-21.49
-34.71
-49.15
-61.73
-70.11
-72.63
-68.39
-57.20
-39.78
-17.86
5.55
27.04
44.44
57.24
67.28
78.10
93.57
115.84
143.37
170.43
188.44
189.00
166.54
120.79
57.45
-12.76
-76.60
-122.01
-141.26
-133.02
-102.12
-57.90
-10.97
29.92
58.28
71.80
72.02
62.68
47.56
29.40
9.89
-9.55
-27.63
-43.84
-59.27
-76.95
-100.43
-131.51
-167.85
-202.79
-227.67
-235.85
-225.84
-201.46
-169.44
-135.69
-102.64
-69.15
-32.46
8.95
53.77
98.17
137.58
168.35
188.45
197.08
194.10
179.54
153.76
117.72
73.00
21.97
-32.45
-86.79
-136.88
-178.11
-206.17
-218.15
-213.83
-196.01
-169.72
-140.69
-113.79
-92.25
-77.72
-70.72
-70.72
-76.35
-85.18
-93.92
-99.23
-99.08
-93.51
-84.38
-73.97
-62.87
-50.10
-34.10
-13.96
9.68
35.21
61.32
87.95
116.40
148.89
185.66
223.59
256.88
279.47
287.97
283.55
271.64
259.92
256.52
265.51
285.15
308.54
326.41
330.89
318.34
290.14
243.85
182.63
113.05
43.15
-20.33
-73.58
-115.37
-145.70
-165.16
-175.03
-176.23
-170.67
-160.64
-148.08
-134.10
-119.03
-102.95
-86.72
-72.13
-60.67
-53.89
-52.71
-56.90
-64.92
-74.22
-82.02
-86.27
-86.23
-81.88
-74.39
-65.65
-57.69
-52.12
-49.58
-49.41
-50.11
-50.02
-47.90
-43.76
-38.54
-33.62
-29.83
-26.98
-23.78
-18.84
-11.29
-1.41
9.55
20.35
30.19
38.60
44.80
47.60
45.83
39.78
32.40
28.18
32.00
46.07
67.52
88.33
98.34
89.78
61.16
18.31
-28.11
-66.86
-90.02
-95.98
-88.42
-72.98
-54.57
-36.14
-19.10
-4.56
5.42
7.81
0.52
-15.64
-35.87
-52.66
-58.53
-49.12
-26.57
1.76
26.25
39.38
38.79
27.71
12.41
-1.32
-10.48
-15.44
-18.41
-21.20
-23.90
-24.86
-21.92
-13.87
-1.25
14.05
29.37
42.35
51.65
56.99
59.18
59.66
60.20
62.69
68.63
78.17
89.57
99.41
103.21
97.79
82.80
61.06
37.40
16.77
2.42
-4.39
-3.90
2.37
12.88
26.05
39.95
52.36
61.41
66.11
67.06
66.01
64.12
62.36
61.27
60.76
60.20
58.40
53.36
43.34
27.23
3.88
-26.36
-61.71
-99.61
-136.19
-166.43
-185.91
-192.05
-178.29
-146.27
-102.82
-56.99
-16.32
16.03
40.96
59.66
72.00
74.82
62.08
29.49
-22.90
-89.77
-161.33
-225.50
-271.79
-292.06
-283.07
-249.06
-200.06
-149.97
-112.32
-95.86
-93.49
-95.94
-91.75
-74.27
-45.79
-13.46
15.95
39.61
58.88
77.05
95.31
113.10
127.87
136.84
139.33
137.10
133.42
131.63
133.82
138.83
143.92
145.43
140.16
126.56
104.98
77.18
46.38
16.24
-11.02
-34.01
-52.59
-67.23
-78.68
-87.63
-94.40
-99.04
-101.89
-104.20
-107.20
-111.21
-114.63
-113.67
-103.83
-82.25
-49.58
-10.65
27.08
56.87
75.09
82.13
81.24
76.37
70.38
64.66
59.71
55.93
54.01
54.56
57.16
60.51
62.68
62.21
58.72
53.05
46.78
41.77
39.70
41.02
44.31
46.01
41.08
25.43
-1.91
-37.58
-74.31
-103.32
-117.77
-115.28
-97.27
-70.30
-40.63
-12.17
13.81
37.55
59.27
78.18
92.90
102.40
106.58
106.50
103.39
98.07
90.30
79.26
64.07
44.70
22.53
-0.39
-21.55
-39.06
-52.29
-61.88
-69.12
-75.35
-81.07
-85.87
-89.15
-90.18
-88.92
-86.12
-83.45
-81.92
-82.70
-86.62
-93.67
-102.54
-109.95
-111.28
-102.17
-80.69
-48.80
-12.35
21.20
45.63
58.41
61.07
57.67
52.31
47.31
42.94
38.34
33.08
27.69
23.45
21.28
21.07
21.67
21.57
19.48
15.16
9.37
3.42
-1.40
-4.45
-6.01
-6.96
-8.44
-11.25
-15.66
-21.31
-27.53
-33.63
-39.21
-44.23
-48.84
-53.11
-56.86
-59.60
-60.62
-59.40
-55.35
-48.29
-38.33
-25.91
-11.63
3.70
19.14
33.68
46.32
56.31
63.33
67.61
69.89
71.13
72.18
73.46
74.90
76.05
76.42
75.74
74.18
72.36
71.11
71.28
73.63
78.41
85.01
91.73
95.93
94.72
86.09
69.75
47.54
22.86
-0.42
-19.18
-31.81
-38.40
-40.25
-38.97
-35.86
-31.46
-25.65
-18.04
-8.57
2.09
12.55
21.12
26.47
28.12
26.49
22.54
17.23
11.41
5.73
0.89
-2.42
-3.72
-3.22
-1.86
-1.11
-2.46
-6.93
-14.60
-25.17
-38.21
-53.24
-69.65
-86.32
-101.70
-114.15
-122.44
-126.27
-126.16
-122.71
-115.80
-104.20
-86.24
-61.17
-30.38
2.17
30.90
50.48
57.72
52.45
37.04
15.09
-9.91
-35.05
-57.79
-75.51
-85.65
-86.55
-78.40
-63.73
-46.61
-31.14
-19.82
-12.87
-8.69
-5.12
-0.67
4.78
10.26
14.40
16.02
14.39
9.19
0.39
-11.69
-26.11
-41.16
-54.44
-63.38
-66.07
-61.92
-51.99
-38.61
-24.57
-12.22
-2.89
3.12
6.31
7.51
7.60
7.35
7.17
6.97
6.06
3.35
-2.09
-10.35
-20.34
-29.94
-36.84
-39.46
-37.58
-32.28
-25.19
-17.84
-11.18
-5.53
-0.78
3.33
7.04
10.45
13.66
17.06
21.71
29.49
42.49
61.80
86.18
111.40
131.14
139.38
132.99
113.46
86.44
59.34
38.17
25.40
19.78
18.00
17.10
16.03
15.78
18.15
24.18
33.23
43.19
51.64
57.14
59.85
61.20
62.82
65.58
69.10
72.20
73.69
73.21
71.34
69.11
67.25
65.55
62.95
58.16
50.46
40.15
28.55
17.35
7.95
1.08
-3.24
-5.39
-5.89
-5.35
-4.54
-4.36
-5.63
-8.76
-13.51
-19.06
-24.36
-28.64
-31.65
-33.65
-35.16
-36.54
-37.74
-38.32
-37.65
-35.31
-31.44
-26.82
-22.59
-19.72
-18.36
-17.66
-16.09
-12.36
-6.22
1.17
7.68
11.28
11.04
7.58
2.74
-1.41
-3.43
-3.08
-1.12
1.32
3.38
4.86
6.03
7.20
8.33
8.96
8.53
6.85
4.45
2.36
1.61
2.55
4.65
6.71
7.51
6.39
3.55
-0.19
-3.93
-7.07
-9.52
-11.50
-13.21
-14.68
-15.76
-16.29
-16.18
-15.50
-14.36
-12.90
-11.14
-9.12
-6.85
-4.40
-1.90
0.55
2.82
4.83
6.55
8.03
9.44
11.00
12.89
15.14
17.57
19.82
21.61
22.89
23.91
25.15
27.03
29.65
32.66
35.31
36.83
36.66
34.65
30.94
25.86
19.76
13.07
6.29
-0.04
-5.46
-9.85
-13.51
-17.02
-20.92
-25.34
-29.81
-33.52
-35.71
-36.12
-35.11
-33.49
-32.15
-31.68
-32.23
-33.63
-35.61
-38.03
-41.04
-44.93
-49.89
-55.78
-61.99
-67.56
-71.51
-73.42
-73.77
-73.92
-75.55
-79.97
-87.48
-97.31
-107.73
-116.43
-120.92
-118.93
-108.77
-89.83
-63.00
-30.71
3.44
35.48
61.92
80.37
89.69
89.86
81.78
67.27
49.01
30.27
14.28
3.43
-1.33
-0.58
3.95
10.17
16.32
21.40
25.18
27.82
29.53
30.58
31.27
32.18
34.09
37.65
42.95
49.13
54.47
57.04
55.49
49.75
41.13
31.71
23.41
17.26
13.22
10.66
8.83
7.37
6.35
5.95
6.18
6.70
6.98
6.59
5.44
3.81
2.13
0.73
-0.33
-1.28
-2.41
-3.96
-5.87
-7.87
-9.53
-10.45
-10.38
-9.34
-7.56
-5.42
-3.29
-1.39
0.20
1.51
2.64
3.64
4.47
5.01
5.14
4.72
3.78
2.43
0.93
-0.41
-1.23
-1.29
-0.48
1.14
3.34
5.80
8.20
10.27
11.85
12.90
13.42
13.54
13.38
13.00
12.43
11.61
10.41
8.78
6.75
4.53
2.40
0.67
-0.53
-1.22
-1.54
-1.65
-1.60
-1.29
-0.57
0.65
2.24
3.89
5.20
5.88
5.82
5.19
4.30
3.53
3.23
3.66
5.01
7.33
10.43
13.82
16.76
18.45
18.34
16.29
12.64
8.09
3.41
-0.80
-4.21
-6.72
-8.34
-9.11
-9.10
-8.30
-6.69
-4.12
-0.46
4.38
10.28
16.88
23.42
29.02
32.93
34.87
35.13
34.46
33.73
33.59
34.49
36.36
38.93
42.03
45.85
50.89
57.65
66.34
76.58
87.83
99.13
109.57
118.57
125.96
132.00
137.13
141.84
146.29
150.22
151.98
148.70
137.05
114.60
81.07
38.80
-7.69
-55.20
-98.87
-134.26
-158.25
-169.58
-168.90
-158.06
-139.69
-116.95
-93.26
-71.29
-53.11
-39.27
-28.69
-19.25
-8.74
3.97
18.33
32.28
44.20
51.67
53.04
48.03
37.24
21.62
1.58
-23.22
-53.55
-89.14
-128.82
-171.14
-214.33
-255.62
-290.65
-313.54
-318.49
-302.24
-266.26
-217.59
-166.68
-123.68
-94.80
-80.71
-77.60
-80.03
-83.54
-86.47
-88.29
-88.34
-85.09
-76.23
-59.92
-36.14
-7.16
23.08
50.33
71.48
85.70
94.37
100.32
106.59
115.05
125.75
137.18
147.45
154.95
159.50
162.14
164.74
169.31
177.36
189.69
206.35
226.78
246.57
260.53
262.73
248.20
214.79
164.33
102.60
35.92
-26.82
-77.46
-110.57
-124.76
-121.74
-105.04
-79.15
-48.90
-19.18
6.30
25.64
39.54
50.48
61.70
76.26
93.84
110.97
121.65
119.67
100.61
64.30
15.22
-37.57
-82.84
-110.74
-115.84
-99.99
-71.30
-41.52
-20.48
-15.66
-28.75
-55.57
-88.20
-118.45
-142.36
-160.88
-178.59
-200.08
-226.73
-254.40
-274.66
-278.52
-256.05
-206.73
-140.06
-71.95
-17.32
16.04
30.02
32.49
32.05
34.27
39.95
47.66
54.88
61.29
66.49
68.38
62.50
44.81
15.07
-21.36
-53.68
-69.88
-62.06
-30.72
16.60
65.86
103.04
119.62
114.21
91.27
57.53
19.02
-20.28
-57.72
-90.85
-116.15
-130.00
-130.69
-119.92
-102.80
-86.21
-75.87
-73.40
-75.21
-72.63
-55.37
-16.61
42.92
114.07
182.83
235.99
266.44
274.70
267.36
252.56
235.35
216.13
192.08
160.74
122.83
82.63
45.57
16.42
-2.34
-11.83
-16.34
-21.86
-33.09
-51.35
-73.17
-92.16
-101.12
-94.96
-74.28
-42.88
-9.01
19.52
37.45
46.74
50.65
50.68
45.39
31.32
6.59
-26.68
-59.17
-78.72
-75.28
-46.66
-4.05
40.53
77.41
101.53
112.83
113.59
107.02
95.77
80.53
60.66
36.19
7.88
-21.86
-49.70
-72.58
-89.49
-102.85
-118.45
-143.21
-181.11
-231.84
-289.99
-347.00
-394.28
-426.45
-442.81
-446.56
-442.48
-433.10
-418.31
-395.99
-364.23
-323.43
-276.76
-229.03
-184.55
-145.28
-110.31
-77.45
-44.66
-10.88
23.44
55.81
81.85
96.26
94.87
77.32
48.42
17.40
-5.33
-12.49
-2.92
18.30
42.81
63.09
75.42
80.18
79.65
75.54
67.59
54.16
34.05
7.98
-21.18
-49.53
-73.57
-91.47
-103.53
-111.36
-116.85
-121.17
-124.40
-125.71
-124.02
-118.75
-110.22
-99.67
-88.72
-78.74
-70.40
-63.59
-57.66
-51.79
-45.32
-37.89
-29.30
-19.32
-7.58
6.37
22.96
42.25
63.97
87.54
112.27
137.69
163.74
190.79
219.38
249.76
281.53
313.40
343.16
367.96
384.96
392.01
388.33
374.87
354.03
328.99
302.83
277.78
254.99
234.70
216.66
200.43
185.55
171.44
157.52
143.35
128.89
114.69
101.77
91.10
83.20
77.99
74.88
73.09
71.98
71.05
69.82
67.68
63.82
57.34
47.62
34.39
17.88
-1.17
-21.63
-41.81
-59.44
-71.92
-76.88
-72.91
-60.23
-41.31
-20.89
-5.42
-1.47
-13.15
-39.68
-74.39
-106.07
-123.08
-118.10
-91.53
-51.25
-8.83
25.74
48.18
60.63
68.94
78.64
92.10
108.27
124.33
137.72
146.95
151.08
148.89
138.58
118.54
88.48
50.38
8.03
-34.33
-73.47
-108.28
-139.97
-171.34
-205.42
-243.68
-284.47
-322.75
-351.19
-362.74
-353.46
-324.26
-280.43
-229.33
-177.30
-127.76
-81.19
-36.77
5.54
43.72
73.96
92.40
97.21
90.28
77.31
66.47
65.92
80.87
111.43
152.45
195.07
229.73
249.23
250.62
235.43
208.30
174.99
140.61
109.05
82.77
63.09
50.47
44.50
43.83
46.43
49.92
52.47
53.52
53.56
53.70
55.01
57.82
61.63
65.13
66.41
63.40
54.80
40.36
21.50
1.48
-15.33
-25.01
-25.50
-17.37
-3.43
13.59
31.34
48.60
64.97
80.28
94.13
106.04
115.94
124.56
134.92
150.10
172.32
202.06
237.55
275.13
310.29
339.05
358.94
371.12
377.57
379.82
377.97
370.72
356.53
335.21
308.77
269.69
215.20
145.16
62.36
-27.57
-117.46
-200.39
-271.17
-327.16
-368.33
-394.76
-407.97
-410.29
-404.35
-392.76
-377.82
-361.33
-344.55
-328.37
-312.05
-295.00
-276.93
-257.99
-238.64
-219.56
-201.37
-184.52
-169.40
-155.30
-141.58
-127.79
-113.70
-99.29
-84.72
-70.01
-55.20
-40.45
-25.51
-10.35
4.63
18.59
30.67
39.23
42.72
39.94
30.30
14.24
-6.92
-31.04
-55.40
-76.81
-92.47
-100.06
-98.17
-86.47
-65.89
-38.46
-7.00
25.17
54.95
79.14
95.28
101.73
97.85
83.99
61.34
32.57
0.95
-30.04
-58.25
-82.50
-102.82
-119.88
-134.66
-147.84
-159.17
-170.63
-179.60
-183.80
-181.48
-172.19
-156.41
-135.39
-110.61
-83.55
-56.02
-29.67
-7.09
9.03
15.44
9.67
-9.81
-43.35
-88.35
-141.95
-199.25
-257.26
-308.59
-344.66
-357.72
-343.78
-304.00
-244.18
-172.65
-96.59
-20.56
54.58
125.08
187.22
237.65
274.33
297.07
307.59
309.02
303.98
294.27
279.94
260.93
237.79
212.46
188.05
167.59
152.92
143.32
136.52
129.08
118.41
103.76
86.66
70.06
56.91
49.40
48.12
52.43
59.60
65.02
62.64
47.02
16.22
-26.22
-69.67
-103.96
-120.04
-115.05
-93.82
-66.66
-44.49
-33.94
-35.48
-44.50
-55.00
-62.13
-64.29
-62.30
-57.27
-50.23
-39.68
-24.12
-3.58
19.20
40.45
56.15
63.65
62.97
56.90
49.88
45.89
47.17
53.09
61.53
69.47
74.54
75.89
74.64
73.06
73.02
76.55
82.32
89.24
95.96
100.43
100.05
91.66
72.85
43.29
6.31
-31.59
-62.26
-78.34
-78.34
-65.47
-45.89
-26.00
-10.60
-1.47
1.46
-0.68
-7.23
-18.14
-32.83
-50.30
-69.01
-87.62
-104.44
-118.27
-128.23
-134.21
-137.03
-137.70
-138.86
-140.44
-142.51
-144.67
-146.39
-147.16
-146.34
-142.44
-132.71
-113.93
-84.89
-48.08
-9.20
24.88
49.30
63.59
71.49
78.85
90.60
107.63
126.60
141.98
148.50
142.82
124.27
94.63
55.61
14.97
-19.07
-40.84
-48.92
-45.76
-36.07
-24.39
-13.50
-4.21
4.02
10.99
15.68
17.03
14.86
10.13
4.56
0.02
-2.09
-1.09
2.26
6.55
10.33
12.73
13.65
13.68
13.96
15.81
20.31
27.29
35.76
43.53
48.18
47.64
40.66
26.82
6.56
-18.61
-45.79
-70.28
-86.75
-90.71
-80.72
-59.45
-33.13
-8.92
8.10
16.89
19.90
20.86
22.22
23.59
22.76
17.57
7.94
-3.65
-13.40
-18.28
-17.18
-10.82
-1.23
9.06
17.45
21.12
17.30
4.39
-16.35
-40.04
-59.05
-65.84
-56.26
-31.59
1.89
35.86
63.40
81.52
91.10
94.73
94.02
88.32
75.51
54.33
26.49
-3.18
-28.48
-44.70
-51.26
-51.75
-51.75
-55.60
-64.12
-74.44
-82.18
-84.58
-81.95
-77.95
-77.22
-82.53
-93.03
-104.67
-112.21
-111.52
-100.73
-79.91
-50.94
-16.92
18.14
49.79
73.82
87.52
90.72
82.77
66.93
48.05
30.80
18.11
11.04
9.33
12.35
19.26
28.88
40.15
51.75
62.70
72.70
81.98
90.60
97.70
101.26
98.76
88.62
70.81
47.12
20.53
-5.60
-28.51
-46.43
-59.10
-67.83
-74.73
-82.11
-91.59
-103.50
-116.84
-129.66
-139.28
-144.09
-144.26
-141.27
-136.74
-131.40
-124.76
-115.51
-101.85
-80.37
-48.58
-6.53
42.26
91.02
130.92
153.24
152.31
128.09
89.18
47.90
15.74
-0.05
3.06
23.64
57.59
99.61
144.42
190.62
236.57
279.04
313.60
336.79
347.57
347.14
337.94
303.92
239.62
153.77
65.04
-10.93
-68.01
-106.89
-130.93
-143.79
-148.77
-145.53
-134.38
-117.83
-100.13
-85.32
-75.62
-71.23
-70.83
-72.30
-70.87
-63.20
-49.01
-30.83
-12.25
3.88
15.86
23.50
26.97
28.40
29.36
29.65
27.39
20.22
6.57
-13.47
-37.91
-63.96
-87.68
-106.00
-117.50
-122.83
-123.84
-122.64
-120.99
-120.38
-122.08
-126.20
-131.44
-134.70
-131.58
-117.91
-91.99
-56.15
-16.72
18.25
42.46
53.87
55.03
51.14
47.15
45.45
45.56
45.34
42.96
38.21
32.56
28.18
26.74
28.60
32.73
36.96
39.11
37.78
33.11
26.58
20.50
16.81
16.40
18.84
22.94
27.71
32.35
35.61
34.88
26.64
8.37
-18.89
-49.32
-73.85
-84.01
-76.27
-54.05
-25.94
-1.30
14.26
20.72
22.14
23.00
25.21
27.40
26.76
21.80
13.86
6.42
3.05
5.63
13.00
21.83
28.07
28.92
24.01
15.25
5.68
-2.01
-6.41
-7.72
-7.11
-6.14
-6.73
-11.02
-20.99
-37.92
-61.05
-86.84
-109.53
-122.98
-122.34
-107.80
-83.23
-54.28
-26.00
-1.23
19.51
36.65
50.46
60.39
65.48
65.76
62.63
58.29
54.98
54.28
56.32
60.09
64.05
66.77
67.92
68.35
69.60
72.99
79.26
88.05
97.66
106.00
110.77
110.43
104.63
93.97
79.39
62.03
42.81
22.15
0.55
-21.27
-42.14
-60.11
-73.41
-80.85
-82.36
-79.29
-74.02
-69.24
-66.18
-66.58
-70.20
-75.65
-81.32
-85.87
-88.95
-91.03
-92.79
-95.05
-98.74
-104.22
-111.61
-119.88
-126.25
-126.51
-116.61
-94.54
-62.21
-26.02
7.13
31.10
43.23
44.88
39.98
32.65
25.29
18.28
10.82
2.62
-5.76
-13.01
-18.15
-21.40
-24.03
-27.85
-34.33
-43.85
-55.62
-68.09
-79.45
-88.40
-94.33
-97.25
-97.67
-95.44
-90.06
-80.76
-66.82
-47.83
-24.35
2.21
29.92
56.80
81.28
102.44
120.03
133.57
144.02
152.36
159.39
165.50
170.84
175.33
179.89
183.52
185.23
184.22
179.59
170.61
156.88
138.35
115.38
87.44
56.16
23.24
-9.78
-41.59
-71.06
-97.19
-119.16
-136.38
-148.44
-155.37
-157.15
-153.65
-144.86
-130.84
-111.98
-89.06
-63.44
-36.97
-11.57
10.78
28.65
41.34
48.99
52.28
52.17
49.41
44.45
37.46
28.52
18.02
6.95
-3.27
-11.11
-15.54
-16.51
-15.04
-12.95
-12.46
-15.32
-22.14
-32.18
-43.22
-51.91
-54.75
-49.28
-35.63
-17.40
-0.89
7.00
1.38
-18.64
-49.40
-83.90
-113.84
-131.94
-133.94
-119.51
-92.30
-59.08
-27.82
-5.63
3.01
-2.71
-20.20
-44.61
-70.39
-92.49
-106.87
-111.12
-103.13
-81.68
-46.67
0.41
56.13
115.16
170.85
216.72
248.33
264.77
267.93
260.89
245.75
222.68
190.76
150.01
103.14
55.83
15.09
-13.31
-26.70
-25.70
-13.24
6.63
29.28
49.45
61.17
58.63
37.93
-0.85
-52.41
-106.94
-152.45
-178.53
-179.35
-155.35
-112.61
-60.09
-6.02
44.71
90.99
133.87
173.91
209.69
238.09
256.21
263.42
261.67
254.13
243.35
230.15
213.97
194.07
170.77
145.67
120.91
97.58
75.04
51.22
23.68
-9.18
-47.31
-89.13
-131.81
-170.13
-198.39
-211.70
-207.77
-187.73
-155.50
-116.05
-73.94
-32.29
7.34
43.82
76.68
105.93
131.96
155.14
175.67
193.19
207.01
216.25
219.04
213.09
196.11
166.67
125.30
74.77
19.28
-37.04
-88.90
-133.73
-171.09
-201.78
-226.92
-247.30
-264.13
-279.28
-294.30
-309.20
-321.79
-327.15
-319.35
-294.93
-255.38
-208.31
-165.78
-139.65
-137.71
-161.88
-207.59
-266.07
-327.22
-381.23
-419.48
-435.32
-425.49
-392.18
-343.74
-292.50
-250.42
-224.18
-212.39
-206.99
-197.94
-178.58
-148.66
-112.83
-76.52
-42.49
-9.55
25.95
67.51
116.65
173.08
233.25
292.05
344.46
386.43
415.80
432.10
435.94
428.58
411.93
388.34
360.58
331.39
302.78
275.85
250.83
227.63
206.13
186.33
168.46
153.15
141.22
133.22
128.40
123.77
114.32
94.86
62.47
18.74
-29.65
-72.80
-101.66
-111.70
-104.86
-88.34
-71.11
-59.93
-57.08
-60.48
-65.71
-68.85
-68.21
-64.60
-60.20
-56.91
-55.16
-53.33
-48.81
-39.64
-26.22
-11.63
-0.44
3.82
0.82
-5.92
-10.64
-8.86
-0.18
11.52
20.51
22.68
18.24
11.50
7.80
10.26
17.43
24.81
27.90
25.12
18.46
11.94
8.74
9.02
10.19
8.78
3.07
-5.72
-14.30
-19.54
-20.20
-17.42
-14.05
-12.35
-12.91
-14.60
-15.57
-14.76
-12.72
-10.81
-10.33
-12.22
-16.18
-20.81
-23.99
-23.52
-18.45
-10.25
-2.56
-0.33
-7.69
-25.60
-50.94
-77.54
-98.60
-108.18
-106.08
-95.56
-81.24
-66.69
-53.23
-40.34
-27.02
-12.57
2.68
17.35
30.11
39.77
45.34
45.95
40.78
28.87
9.69
-16.36
-47.08
-77.75
-101.97
-113.49
-108.73
-88.25
-56.51
-19.88
15.68
46.57
71.87
92.04
107.84
119.15
125.63
127.85
127.61
127.59
130.12
135.92
143.44
149.93
152.27
148.61
139.65
128.18
117.77
111.16
108.95
106.87
101.39
89.59
70.00
42.91
9.53
-28.28
-67.36
-103.10
-130.20
-143.94
-142.64
-128.17
-104.39
-75.49
-43.26
-6.80
34.48
76.66
110.61
124.87
112.09
74.78
23.90
-24.47
-55.56
-62.49
-49.59
-29.19
-15.88
-20.12
-43.81
-83.28
-129.68
-170.21
-192.35
-189.43
-163.28
-123.71
-84.12
-54.98
-44.37
-55.04
-82.97
-110.39
-118.86
-99.95
-60.66
-25.73
1.90
24.94
43.29
58.21
66.98
66.15
53.65
31.32
5.40
-14.33
-23.12
-24.21
-24.77
-32.75
-53.92
-90.26
-137.91
-186.59
-221.42
-216.94
-162.48
-69.58
33.21
118.19
170.03
187.95
181.49
164.97
149.78
139.53
133.05
126.63
117.24
101.28
76.17
41.90
1.91
-38.89
-78.00
-114.65
-150.00
-180.99
-208.45
-235.47
-265.69
-301.18
-341.28
-382.81
-418.96
-440.77
-440.26
-415.40
-370.65
-315.07
-258.72
-209.12
-169.86
-140.45
-118.12
-99.95
-85.15
-74.00
-66.62
-62.12
-58.48
-53.65
-45.87
-33.74
-15.96
8.82
42.04
83.64
129.98
173.02
202.13
208.47
189.76
152.64
110.66
78.87
67.43
77.70
102.84
132.36
157.73
175.84
188.85
200.75
214.03
228.03
239.81
246.31
245.91
238.35
223.20
198.65
162.16
112.67
53.51
-6.65
-55.95
-83.62
-84.40
-60.64
-21.13
22.96
62.56
93.51
116.73
136.13
155.69
177.37
200.33
221.60
237.82
247.23
250.93
252.51
255.76
261.55
266.27
262.86
243.90
205.69
151.15
89.70
34.29
-3.39
-16.82
-6.12
23.69
64.46
107.75
147.42
180.93
208.97
233.51
255.92
275.43
290.29
296.66
290.28
268.50
231.90
183.92
129.13
72.00
16.20
-32.92
-71.23
-96.62
-109.08
-110.14
-102.65
-90.52
-76.78
-62.35
-42.61
-13.29
25.70
69.06
107.50
130.58
129.79
102.61
34.16
-70.61
-188.59
-290.28
-355.43
-377.64
-359.72
-309.85
-239.66
-161.06
-84.28
-20.19
22.42
40.61
38.90
26.17
4.75
-22.02
-53.66
-89.82
-131.46
-179.62
-233.72
-286.76
-325.95
-341.31
-331.65
-304.14
-266.61
-224.73
-182.06
-141.24
-104.48
-74.25
-53.16
-41.59
-37.24
-35.22
-30.34
-19.50
-2.35
19.19
41.51
59.64
69.19
67.74
56.30
39.17
22.92
14.65
19.45
38.03
64.75
90.70
107.62
111.53
103.43
88.06
71.22
57.72
50.01
48.07
50.22
53.13
52.08
41.93
19.09
-16.45
-60.64
-106.43
-145.49
-170.09
-174.59
-156.72
-119.16
-69.78
-20.48
15.76
29.14
16.93
-15.18
-55.33
-88.63
-105.03
-102.95
-87.53
-66.15
-44.64
-25.73
-9.81
3.27
13.17
18.92
20.07
17.68
13.94
11.06
10.26
11.11
12.15
11.76
8.83
3.65
-2.14
-6.33
-6.99
-3.26
4.29
13.64
22.12
26.81
26.15
21.01
14.84
12.31
17.17
30.04
47.60
63.89
73.00
71.91
61.64
46.35
30.91
18.62
10.43
5.33
1.83
-0.84
-2.50
-2.67
-1.21
1.15
3.33
4.34
4.00
2.69
1.18
0.10
-0.51
-0.94
-1.88
-3.98
-7.40
-11.76
-16.38
-20.37
-22.89
-23.49
-21.60
-16.61
-8.21
3.58
18.11
34.16
50.43
65.96
80.01
91.69
99.26
100.09
91.65
72.77
45.19
13.56
-16.07
-38.74
-52.37
-58.45
-60.52
-61.81
-63.82
-65.95
-66.82
-66.01
-64.69
-64.36
-65.20
-64.91
-59.24
-44.77
-21.43
6.54
31.96
48.06
52.21
47.25
40.28
39.51
50.25
72.34
100.02
124.07
135.29
127.73
100.44
57.48
6.54
-43.42
-84.16
-109.65
-116.74
-105.59
-79.52
-44.58
-8.24
22.53
43.23
53.11
55.12
54.37
56.64
65.54
81.17
99.83
115.15
120.14
109.50
81.48
38.63
-12.69
-64.38
-108.90
-141.34
-160.27
-167.25
-165.43
-158.18
-148.12
-136.87
-125.42
-114.21
-103.31
-92.33
-80.50
-67.05
-51.79
-35.56
-20.26
-8.41
-2.20
-2.55
-8.58
-18.02
-27.95
-36.03
-41.06
-43.06
-42.72
-40.63
-36.84
-30.88
-22.15
-10.40
4.05
20.44
37.82
55.27
72.09
87.73
101.80
114.08
124.58
133.35
140.38
145.29
147.31
145.39
138.63
126.57
109.40
87.82
62.73
35.20
6.49
-21.77
-47.70
-69.32
-85.08
-94.01
-95.82
-90.83
-79.89
-64.68
-47.89
-33.31
-25.16
-26.81
-39.16
-59.74
-83.07
-102.15
-110.76
-105.46
-86.39
-57.01
-22.82
10.27
37.44
55.77
64.75
66.06
63.20
60.51
61.70
68.35
79.09
90.02
96.24
93.98
82.23
63.34
42.31
25.01
16.11
17.20
26.24
38.35
47.86
50.77
46.61
38.67
32.33
32.11
38.99
49.39
56.41
52.63
33.41
-0.99
-45.21
-90.86
-129.51
-155.51
-167.26
-166.48
-156.17
-138.53
-114.25
-83.30
-46.57
-6.77
32.13
66.81
96.24
121.91
146.12
169.57
189.85
202.03
201.23
185.37
156.52
120.32
83.56
51.53
26.16
5.74
-14.06
-38.25
-70.74
-112.86
-162.46
-213.92
-259.04
-289.11
-297.59
-282.59
-248.06
-202.92
-158.26
-123.44
-103.03
-95.61
-95.21
-94.31
-86.94
-70.62
-46.45
-18.06
9.93
33.26
48.93
56.00
56.07
53.26
53.29
61.70
81.74
112.86
150.56
187.91
218.06
236.51
242.04
235.97
220.42
196.74
165.20
126.06
81.39
36.34
-1.31
-23.56
-25.41
-7.42
23.95
58.57
86.32
100.55
99.85
87.33
68.16
46.94
26.02
5.47
-15.77
-38.37
-61.78
-84.28
-104.00
-120.05
-133.35
-146.54
-163.04
-185.39
-213.88
-246.23
-278.57
-307.39
-331.03
-349.71
-364.18
-373.65
-374.78
-362.57
-332.99
-285.71
-225.33
-160.02
-98.27
-45.52
-2.70
32.63
63.21
89.19
107.61
114.40
107.99
91.85
74.37
65.77
73.78
100.85
143.81
196.50
252.71
307.50
356.41
393.51
410.93
400.77
358.81
287.64
197.45
103.48
21.31
-37.69
-69.36
-77.07
-69.88
-59.24
-55.68
-66.40
-94.09
-137.03
-189.82
-244.43
-291.68
-322.54
-330.03
-311.27
-268.68
-209.58
-144.13
-82.26
-31.75
2.04
15.51
6.36
-25.27
-75.07
-133.38
-186.64
-221.03
-227.82
-206.85
-166.33
-118.82
-75.43
-41.46
-15.34
8.83
37.50
74.10
117.87
165.06
211.24
253.51
290.56
321.03
341.75
348.86
339.43
313.98
277.86
240.80
214.94
209.56
226.56
258.34
292.81
317.24
322.41
304.32
264.50
209.97
148.58
86.61
26.71
-24.99
-60.26
-72.02
-60.29
-33.90
-5.40
10.66
2.50
-38.31
-105.97
-184.83
-254.90
-299.88
-309.81
-277.50
-202.66
-92.99
32.23
157.83
273.48
375.14
460.97
503.34
483.39
402.15
312.71
230.80
159.36
87.86
16.74
-50.29
-107.85
-146.89
-161.32
-151.78
-131.11
-109.58
-94.09
-86.19
-85.12
-87.74
-86.69
-75.87
-53.62
-27.08
-1.29
20.64
37.79
48.17
49.21
40.73
23.72
-0.22
-31.74
-68.62
-108.13
-148.26
-189.35
-231.25
-269.71
-296.73
-303.65
-286.92
-248.58
-196.88
-143.22
-98.44
-68.04
-50.51
-39.92
-30.32
-19.62
-8.95
-0.64
4.39
6.61
7.53
7.81
6.23
-0.20
-14.86
-39.84
-74.46
-110.51
-137.92
-148.88
-141.84
-120.96
-92.69
-63.03
-36.20
-13.86
4.38
20.02
35.03
50.87
67.75
84.11
96.90
102.19
97.14
81.56
58.41
33.89
15.31
8.51
16.12
35.20
57.67
74.71
80.34
72.38
52.70
26.30
-0.35
-20.97
-31.32
-30.58
-21.43
-8.94
0.79
2.77
-4.88
-20.03
-37.33
-50.31
-53.96
-46.95
-32.69
-16.23
-4.45
-5.38
-26.17
-70.02
-133.29
-205.07
-269.21
-308.90
-308.09
-258.51
-163.57
-37.50
100.16
231.28
343.41
431.27
479.11
477.96
431.72
356.53
271.10
188.29
114.40
51.52
2.89
-34.51
-59.64
-70.89
-68.83
-56.92
-40.44
-24.61
-14.98
-16.96
-35.63
-68.94
-108.22
-141.62
-159.70
-159.61
-145.13
-124.14
-104.50
-89.53
-75.92
-55.86
-23.63
22.10
78.09
138.45
196.19
236.81
251.62
240.88
211.74
172.95
131.54
91.79
56.75
28.55
8.11
-3.99
-10.74
-17.26
-30.09
-53.88
-88.86
-128.77
-163.40
-182.53
-178.96
-152.27
-109.12
-61.41
-19.43
6.99
13.98
4.35
-14.38
-32.86
-44.45
-44.95
-36.18
-25.24
-20.07
-23.29
-31.75
-39.89
-43.43
-41.65
-36.65
-31.48
-27.67
-24.54
-19.65
-11.38
-0.39
10.75
18.94
22.26
20.64
15.99
11.13
8.93
10.63
15.44
21.21
25.72
27.78
27.70
27.16
28.23
32.68
40.97
51.90
63.02
71.93
76.75
76.63
71.83
63.12
51.53
37.69
21.72
3.23
-17.72
-41.08
-66.96
-93.04
-115.73
-130.41
-132.99
-121.96
-99.87
-72.71
-47.53
-29.51
-20.27
-18.39
-20.68
-24.27
-28.39
-34.43
-44.21
-58.23
-75.09
-92.31
-107.17
-115.87
-113.40
-95.20
-60.10
-11.88
41.24
89.08
121.85
131.60
117.52
86.93
51.95
24.63
13.86
24.41
56.51
106.65
164.81
214.04
239.98
239.27
217.95
184.65
146.30
106.97
69.41
36.08
10.43
-3.38
-3.99
6.14
22.14
38.32
48.19
46.41
30.51
3.09
-28.52
-56.77
-77.19
-90.12
-95.80
-98.66
-104.09
-114.97
-129.17
-140.63
-145.26
-143.61
-140.57
-142.74
-156.29
-183.66
-222.33
-265.62
-293.18
-289.93
-254.96
-201.33
-144.88
-95.71
-56.63
-26.58
-3.97
11.14
18.96
20.03
18.13
20.38
33.44
60.33
99.51
146.73
193.20
230.16
252.31
259.67
256.57
248.41
239.46
232.56
229.39
230.70
235.08
238.97
237.59
226.63
203.36
167.34
120.91
67.77
11.86
-42.99
-92.11
-129.32
-147.82
-143.85
-120.31
-86.61
-56.56
-43.48
-54.99
-90.50
-142.26
-198.63
-248.84
-286.01
-305.97
-307.12
-289.87
-256.02
-208.64
-152.77
-94.02
-38.99
4.82
32.34
40.79
30.14
4.02
-29.67
-60.50
-76.16
-68.15
-36.04
15.29
76.29
136.51
188.73
231.54
267.39
302.03
338.45
358.08
345.47
298.59
230.98
161.82
113.44
86.74
78.47
82.57
89.98
91.22
79.45
50.46
2.94
-60.45
-134.29
-208.85
-267.21
-293.72
-282.57
-242.91
-190.54
-138.46
-93.60
-58.91
-33.49
-15.82
-6.85
-4.52
-6.04
-8.28
-9.51
-10.58
-14.56
-23.95
-39.95
-63.16
-87.71
-104.15
-102.54
-77.98
-34.09
17.61
62.21
87.36
86.10
61.03
22.66
-16.08
-45.37
-60.26
-59.54
-44.04
-11.50
31.26
71.62
99.62
111.82
109.45
95.90
77.48
57.57
40.89
30.56
29.83
42.22
68.61
105.15
144.23
177.05
195.37
194.64
172.63
128.64
74.61
29.51
7.10
8.63
25.72
44.91
60.64
68.75
68.28
61.55
50.40
35.34
15.43
-9.37
-37.56
-66.02
-95.68
-126.80
-156.33
-180.23
-196.39
-205.24
-208.42
-207.99
-205.53
-207.55
-219.37
-242.10
-274.01
-313.20
-357.40
-402.15
-440.10
-436.64
-374.27
-265.55
-144.55
-41.87
28.30
66.55
81.21
82.26
77.13
64.72
42.43
11.23
-23.63
-56.08
-81.27
-97.69
-105.99
-108.06
-109.49
-114.12
-121.74
-128.60
-130.99
-126.35
-114.79
-98.10
-78.84
-61.13
-47.14
-35.32
-20.00
-1.75
20.63
47.29
77.35
109.14
139.89
167.07
189.01
205.62
217.25
224.92
228.84
228.57
223.33
212.76
196.70
175.03
150.01
125.40
105.72
94.23
92.45
99.86
116.05
139.03
164.63
191.56
220.78
253.50
289.55
326.95
362.33
394.34
420.18
433.50
431.73
415.74
387.98
352.65
315.53
282.55
260.70
250.31
241.46
225.43
197.65
157.63
109.70
61.20
-2.01
-78.89
-137.76
-177.68
-211.70
-243.83
-272.42
-291.73
-294.70
-276.99
-236.79
-181.20
-126.84
-86.78
-67.42
-69.70
-89.86
-120.86
-155.38
-185.54
-208.03
-225.17
-237.55
-244.22
-244.63
-237.88
-220.97
-190.16
-142.92
-83.96
-25.93
16.95
33.25
18.22
-23.51
-77.44
-125.00
-150.17
-146.49
-116.71
-68.85
-12.61
44.03
87.92
109.15
108.24
99.88
90.88
82.61
74.64
65.23
54.06
39.92
21.48
-2.49
-33.27
-67.89
-97.27
-112.82
-112.33
-100.30
-84.06
-68.47
-54.37
-40.43
-25.85
-11.00
1.38
8.10
6.90
-2.34
-17.59
-35.43
-52.46
-65.62
-71.28
-66.10
-48.21
-18.30
21.86
64.84
99.85
116.34
108.70
78.71
34.38
-13.78
-56.79
-88.72
-107.65
-113.87
-108.42
-91.59
-63.56
-25.88
17.30
56.05
80.18
84.19
70.12
44.61
15.75
-10.58
-32.31
-49.52
-66.20
-83.50
-99.57
-110.74
-114.43
-109.33
-96.18
-77.13
-55.90
-37.92
-27.73
-28.63
-37.76
-52.14
-65.32
-68.54
-54.65
-18.84
37.04
105.10
173.37
231.06
270.74
291.99
298.90
297.92
295.64
296.44
301.95
310.05
315.95
311.28
288.83
244.26
179.68
103.39
26.73
-40.15
-94.42
-130.05
-151.71
-164.04
-171.47
-176.21
-178.55
-178.02
-173.56
-164.05
-146.65
-119.70
-79.56
-31.65
11.46
38.68
47.97
48.95
48.09
45.55
40.74
32.10
14.60
-14.19
-52.93
-98.11
-142.10
-174.73
-186.96
-177.09
-150.76
-117.47
-84.44
-54.77
-28.84
-6.99
7.73
12.69
6.26
-9.72
-30.64
-50.63
-64.67
-70.62
-69.68
-66.53
-64.85
-68.56
-78.61
-92.50
-104.53
-107.36
-94.50
-63.05
-12.75
45.00
92.04
115.35
113.80
95.71
71.92
50.11
32.84
18.81
4.95
-9.80
-22.91
-30.15
-29.32
-20.85
-7.51
6.70
18.48
25.31
27.49
28.38
32.34
42.42
60.06
85.65
115.62
146.75
175.13
197.25
211.25
216.73
214.26
205.74
193.95
181.03
166.65
147.13
117.49
74.92
20.13
-43.12
-108.81
-170.60
-219.35
-245.27
-245.44
-226.68
-199.49
-171.39
-145.56
-121.97
-99.52
-77.48
-57.95
-42.27
-32.30
-28.53
-30.41
-37.85
-50.47
-66.89
-84.43
-99.98
-108.64
-106.08
-89.41
-56.44
-14.05
24.71
48.97
56.40
51.95
42.69
33.32
25.42
18.32
10.58
2.83
-3.83
-7.34
-6.41
-1.52
5.25
11.82
17.29
22.26
28.32
38.31
53.76
76.39
106.79
144.02
185.87
228.55
266.57
291.95
296.72
275.93
229.56
162.56
83.29
1.43
-76.58
-138.49
-175.29
-186.82
-180.28
-164.16
-144.25
-123.33
-102.20
-81.12
-60.13
-41.02
-26.27
-16.78
-12.57
-13.07
-17.96
-27.04
-39.87
-54.71
-69.42
-78.66
-76.57
-60.71
-33.94
-3.51
23.00
40.80
49.28
50.06
45.32
36.70
25.31
12.54
0.08
-9.02
-11.44
-4.56
12.06
36.18
63.12
86.77
100.85
100.35
86.05
65.40
50.48
52.03
73.35
107.76
142.00
161.55
152.37
110.24
41.67
-39.40
-118.67
-187.74
-245.40
-293.84
-324.62
-330.22
-308.54
-265.62
-211.17
-153.99
-101.21
-61.53
-34.04
-17.12
-10.83
-15.35
-30.89
-55.86
-86.01
-115.96
-139.55
-149.69
-141.90
-117.49
-78.91
-37.04
-4.88
13.14
22.27
28.88
35.33
42.21
48.21
52.08
53.75
55.78
62.08
74.93
93.82
117.63
145.22
175.22
205.78
233.52
254.47
264.66
261.13
243.22
213.90
178.49
141.74
106.64
74.43
46.82
26.93
18.58
24.44
44.67
76.06
112.48
146.90
173.24
187.70
188.48
174.83
146.32
103.64
49.14
-13.20
-77.69
-138.14
-189.06
-226.90
-250.62
-262.03
-264.83
-263.40
-261.79
-262.43
-265.48
-268.49
-266.78
-254.93
-229.45
-191.50
-148.03
-110.40
-90.07
-93.43
-118.07
-152.81
-182.04
-192.09
-176.70
-138.69
-87.38
-33.89
13.28
50.51
78.79
101.36
121.83
143.37
168.58
199.31
235.79
275.32
311.53
335.42
338.15
315.22
269.85
213.70
163.90
136.99
142.29
178.02
231.90
285.98
323.45
334.24
316.95
277.08
222.92
161.86
98.80
36.52
-22.79
-76.59
-122.63
-160.10
-190.75
-219.01
-250.87
-291.37
-342.22
-399.92
-455.35
-495.97
-510.07
-491.48
-442.80
-374.90
-302.74
-239.05
-189.34
-150.68
-115.32
-76.27
-31.84
13.50
52.01
77.40
88.27
88.02
82.40
75.91
70.23
64.72
58.52
52.12
47.11
44.73
44.03
41.83
34.62
21.24
4.41
-10.29
-17.22
-14.15
-3.76
7.50
13.29
11.43
5.71
4.64
17.05
47.38
92.21
140.92
179.95
199.08
196.10
177.76
156.35
143.54
145.32
159.69
178.51
191.75
192.03
176.52
146.43
104.99
55.11
-1.66
-64.77
-133.11
-203.40
-269.64
-324.03
-359.34
-371.73
-362.88
-339.62
-311.27
-285.57
-265.35
-247.83
-226.85
-196.54
-154.68
-103.88
-50.00
0.71
44.39
80.71
112.26
142.71
175.13
210.58
247.55
282.52
311.01
329.16
335.06
329.46
315.41
297.13
278.53
261.98
247.97
235.41
222.23
206.00
184.10
154.25
115.57
69.78
22.10
-19.30
-45.70
-51.27
-36.02
-6.74
25.05
47.35
52.24
38.56
11.82
-18.80
-44.43
-59.84
-64.75
-63.03
-60.35
-61.82
-70.56
-87.23
-110.68
-138.57
-167.80
-194.62
-214.97
-225.25
-223.60
-211.00
-191.34
-170.47
-153.99
-145.03
-142.99
-143.74
-141.18
-129.51
-105.14
-67.89
-21.01
29.58
76.71
113.72
136.05
142.28
134.44
117.28
97.04
79.56
68.93
66.56
71.43
80.84
91.72
101.66
109.41
114.79
118.19
120.08
120.78
120.43
119.33
117.95
116.89
116.76
118.07
121.00
125.30
130.26
134.64
136.96
135.54
128.98
116.70
99.19
78.10
56.00
35.88
20.55
12.09
10.91
15.58
23.03
29.29
30.59
24.34
9.70
-12.65
-41.00
-74.42
-113.10
-157.34
-205.81
-254.36
-296.38
-324.40
-332.60
-317.99
-282.50
-231.99
-174.23
-117.34
-69.09
-35.95
-21.26
-23.15
-33.05
-39.99
-34.30
-10.70
30.14
82.41
138.01
190.31
236.29
276.45
309.09
328.86
328.89
304.30
255.13
186.31
106.52
18.85
-62.78
-122.22
-152.09
-157.03
-147.19
-130.54
-111.52
-92.17
-73.08
-53.07
-32.80
-15.35
-3.05
2.80
2.63
-3.35
-15.63
-33.60
-54.53
-76.72
-100.84
-128.55
-160.92
-192.80
-219.51
-239.24
-252.29
-259.97
-264.98
-269.73
-273.61
-272.15
-258.93
-220.82
-159.06
-89.33
-30.91
5.67
21.48
24.04
20.83
17.70
14.53
9.02
1.44
-4.90
-5.73
0.83
13.57
26.50
34.65
34.84
26.17
11.68
-2.29
-8.89
-4.07
11.34
31.49
47.48
49.31
28.92
-15.48
-77.59
-144.41
-200.55
-233.52
-237.70
-215.27
-175.07
-128.79
-86.14
-52.24
-27.55
-9.65
4.53
17.34
30.34
44.10
58.48
72.70
85.62
95.94
102.80
106.07
106.28
104.78
103.19
103.07
105.85
112.43
122.90
136.36
150.97
164.51
175.04
181.46
183.65
182.41
179.32
176.51
176.20
179.73
186.88
195.45
201.57
200.93
190.06
166.96
131.19
83.74
27.42
-32.23
-86.86
-126.94
-145.35
-141.47
-123.00
-103.61
-96.86
-109.41
-137.27
-167.42
-184.11
-176.12
-141.38
-86.71
-23.58
37.31
89.47
131.14
163.46
188.30
207.00
220.31
228.99
234.13
236.93
238.06
237.17
232.87
223.35
207.25
184.50
156.74
127.03
99.08
76.10
59.92
50.57
46.59
45.89
46.57
47.44
47.92
47.69
46.17
42.59
36.34
27.52
17.25
7.31
-0.50
-5.29
-7.53
-9.00
-12.25
-19.98
-34.60
-57.68
-89.42
-127.83
-168.36
-204.39
-228.73
-235.92
-224.19
-196.13
-157.69
-116.07
-77.55
-46.32
-24.48
-12.60
-10.11
-15.12
-24.07
-32.09
-34.38
-28.28
-14.71
2.41
18.56
31.55
42.98
57.08
77.70
105.05
134.69
159.03
170.61
164.79
140.87
101.35
50.79
-4.61
-56.68
-95.41
-110.99
-97.47
-56.39
2.28
63.22
111.66
139.09
145.72
138.66
127.14
117.63
111.38
105.28
94.71
76.31
49.25
15.16
-22.38
-58.30
-86.75
-102.27
-101.87
-86.97
-64.04
-42.48
-31.18
-35.21
-54.63
-85.87
-124.47
-167.61
-214.68
-265.90
-319.47
-369.84
-408.29
-425.85
-416.98
-382.00
-327.40
-263.54
-201.34
-148.07
-105.40
-69.97
-36.12
1.13
44.16
92.39
143.17
191.81
234.16
267.80
292.05
307.17
313.51
311.64
302.29
286.37
262.33
229.43
189.30
145.79
102.81
62.45
24.72
-11.77
-48.58
-90.27
-138.25
-188.68
-233.95
-267.20
-285.95
-292.36
-291.52
-289.54
-297.24
-322.29
-365.78
-422.01
-482.07
-536.76
-577.63
-597.93
-562.93
-459.64
-307.15
-147.38
-16.09
73.87
128.24
159.77
179.71
194.98
201.63
195.60
178.37
157.54
142.51
140.35
153.39
181.21
220.72
262.61
297.42
318.67
323.89
313.12
287.57
249.81
204.08
155.39
105.84
56.95
10.38
-32.29
-70.73
-106.26
-140.48
-173.64
-204.14
-230.47
-251.00
-265.08
-273.97
-280.98
-290.32
-304.56
-322.76
-340.57
-352.25
-352.61
-338.84
-311.12
-272.08
-225.49
-174.69
-121.90
-68.73
-16.99
30.99
72.82
107.03
133.89
155.31
174.04
192.45
211.82
232.23
253.16
273.97
293.99
312.03
326.02
333.37
332.08
322.19
306.58
290.46
279.56
277.93
286.68
304.18
327.30
352.82
377.65
398.15
409.22
404.91
380.46
334.90
272.36
201.07
130.26
66.98
14.70
-25.91
-54.61
-69.93
-69.20
-50.59
-15.36
31.04
80.01
122.05
149.12
156.14
141.59
107.56
59.55
5.52
-45.70
-86.76
-113.57
-125.92
-126.54
-119.33
-107.85
-94.78
-82.60
-74.02
-71.60
-76.71
-88.22
-102.30
-113.82
-118.81
-116.19
-108.21
-98.65
-90.62
-84.87
-79.82
-72.91
-62.69
-49.91
-37.40
-28.66
-26.20
-30.53
-40.18
-52.16
-62.87
-68.74
-66.74
-55.05
-33.85
-5.76
24.32
50.30
66.62
69.74
59.03
36.32
4.71
-32.75
-73.68
-116.15
-157.84
-195.34
-224.11
-239.48
-238.19
-219.73
-186.56
-143.42
-96.48
-51.93
-14.84
11.72
27.03
32.36
30.35
24.59
19.00
17.05
21.47
33.97
54.97
83.23
114.86
143.88
163.81
169.82
160.27
136.85
103.52
65.20
26.92
-7.23
-33.23
-46.51
-42.35
-18.02
25.18
80.75
138.45
187.56
218.74
226.56
210.67
174.91
124.91
65.99
2.20
-65.42
-129.02
-178.01
-205.00
-209.89
-198.27
-177.67
-154.50
-132.84
-114.09
-97.37
-82.07
-68.46
-57.30
-48.77
-42.31
-36.65
-30.24
-21.57
-9.49
5.31
20.62
33.72
42.71
46.70
45.86
40.91
32.70
22.02
8.69
-7.61
-26.50
-47.19
-68.65
-89.94
-110.03
-127.08
-137.78
-138.16
-124.96
-97.75
-59.94
-18.29
19.32
46.77
61.82
66.49
64.67
59.88
53.61
45.43
34.47
21.27
8.32
-1.10
-5.12
-5.19
-5.91
-13.01
-30.10
-56.13
-85.36
-109.80
-122.71
-120.49
-103.52
-74.41
-36.24
8.04
54.98
99.67
135.94
156.22
158.06
143.87
119.81
93.00
68.70
49.22
34.24
22.36
12.45
4.66
-0.91
-4.50
-6.84
-8.89
-11.55
-14.85
-18.07
-20.02
-19.11
-14.87
-7.97
0.64
10.30
21.20
34.05
48.52
62.35
71.57
71.47
59.63
37.68
10.97
-13.61
-29.91
-34.49
-26.45
-6.25
23.89
60.01
95.88
123.50
134.97
125.88
97.12
53.77
7.72
-29.49
-51.01
-56.13
-48.95
-37.25
-25.43
-15.84
-9.15
-4.80
-1.95
-0.25
-0.34
-3.22
-10.20
-21.48
-36.28
-52.72
-67.15
-74.76
-71.87
-58.30
-35.64
-11.41
4.55
3.62
-18.53
-59.27
-109.80
-155.29
-181.36
-180.15
-153.96
-112.01
-64.07
-17.22
22.59
57.27
87.39
110.22
121.12
116.00
94.20
59.15
15.48
-31.86
-78.34
-121.30
-158.87
-188.25
-205.07
-203.86
-173.32
-112.46
-32.69
47.54
111.48
150.82
165.90
161.86
145.22
121.72
95.11
69.46
49.12
38.03
37.97
47.17
60.35
70.50
71.43
59.81
37.42
11.93
-6.84
-11.95
-2.38
17.38
40.69
62.21
79.37
92.55
103.27
111.90
116.61
114.73
104.94
88.54
68.77
49.46
33.30
20.64
8.99
-6.27
-30.73
-69.57
-122.76
-187.46
-256.93
-320.95
-367.80
-387.76
-377.17
-340.53
-289.85
-240.75
-207.59
-198.44
-213.22
-245.04
-283.94
-320.20
-346.57
-358.57
-353.61
-331.01
-291.74
-239.12
-178.90
-118.51
-64.62
-21.24
11.47
37.12
61.13
88.92
123.70
164.99
208.76
250.25
284.78
308.87
320.52
319.38
306.53
284.58
257.47
229.79
207.79
196.19
196.50
206.54
221.53
236.30
247.13
252.26
251.44
247.81
244.85
245.36
251.07
263.06
282.15
309.13
344.30
370.72
374.90
350.14
300.43
237.45
173.34
115.81
67.70
29.07
-1.45
-23.29
-36.98
-45.32
-53.32
-66.34
-87.52
-116.09
-147.89
-177.75
-199.79
-210.60
-209.39
-197.55
-177.53
-152.44
-126.18
-103.60
-89.35
-85.75
-92.01
-104.37
-117.83
-128.16
-133.18
-133.08
-129.61
-124.85
-119.94
-115.17
-110.78
-107.78
-107.81
-112.18
-120.63
-131.16
-141.09
-148.49
-152.60
-153.71
-152.04
-146.78
-136.40
-120.48
-101.42
-83.68
-75.73
-84.63
-111.03
-146.96
-178.06
-189.61
-173.04
-129.30
-67.27
1.33
67.84
128.85
183.98
231.85
267.11
281.33
267.44
224.96
162.65
97.04
46.83
25.59
37.09
74.56
124.30
171.51
205.17
220.34
217.38
199.15
168.15
125.70
73.51
16.05
-37.73
-76.27
-89.81
-75.77
-41.97
-4.59
18.97
18.72
-2.78
-31.79
-51.41
-51.05
-32.38
-8.07
5.38
-3.66
-36.44
-84.11
-132.11
-166.55
-178.57
-165.35
-128.74
-73.25
-5.07
68.20
137.65
194.58
232.22
247.67
242.64
222.53
194.52
164.92
137.37
112.47
88.71
64.16
38.03
11.43
-13.30
-33.50
-47.07
-52.79
-50.39
-40.51
-24.81
-5.74
13.66
30.34
41.99
47.49
47.06
41.76
32.88
21.33
7.40
-9.14
-28.60
-50.91
-75.21
-99.77
-122.27
-140.21
-151.56
-155.26
-151.50
-141.57
-127.40
-110.94
-93.76
-76.98
-61.31
-47.14
-34.44
-22.44
-9.39
6.94
28.25
54.35
82.37
107.13
122.54
123.56
107.78
76.29
33.48
-13.73
-57.17
-89.03
-103.59
-98.70
-76.50
-42.76
-5.11
29.27
55.54
71.88
79.05
79.40
75.97
72.30
72.25
79.43
96.24
122.81
156.44
192.00
223.17
243.84
249.57
238.25
210.25
167.99
115.38
57.02
-2.76
-60.32
-113.27
-160.38
-201.35
-236.58
-267.33
-295.90
-325.23
-357.72
-393.26
-427.84
-453.95
-462.99
-448.93
-411.33
-356.01
-292.79
-231.71
-179.36
-137.34
-103.24
-72.87
-42.37
-8.94
29.26
73.30
122.91
175.57
225.99
267.05
292.26
297.94
285.10
258.90
226.73
195.59
170.06
151.67
139.47
131.28
124.72
117.87
109.42
98.63
85.44
70.34
54.30
38.36
23.44
10.02
-1.82
-12.22
-21.37
-29.34
-36.19
-42.13
-47.76
-54.00
-62.08
-72.93
-86.81
-102.95
-119.60
-134.32
-144.59
-148.52
-145.51
-136.71
-124.94
-114.31
-109.16
-112.52
-124.76
-142.82
-160.70
-171.18
-167.96
-147.46
-109.39
-56.33
7.30
76.05
143.76
203.85
249.97
277.41
284.54
273.45
249.26
218.19
185.33
153.20
121.92
90.33
57.32
22.76
-12.32
-46.04
-75.96
-99.28
-113.11
-114.89
-103.24
-78.60
-43.53
-2.11
41.00
81.59
116.49
143.61
161.90
171.22
172.50
167.85
160.12
151.93
144.52
137.03
126.79
110.59
86.32
54.23
17.18
-20.23
-53.04
-77.32
-90.94
-93.90
-88.03
-76.44
-62.77
-50.40
-41.75
-37.91
-38.56
-42.42
-47.92
-53.61
-58.61
-62.46
-64.94
-65.76
-64.57
-60.96
-54.75
-46.08
-35.45
-23.54
-11.09
1.20
12.63
22.51
30.30
35.87
39.59
42.31
44.87
47.58
50.02
51.12
49.75
45.31
37.98
28.61
18.36
8.26
-1.00
-8.98
-15.28
-19.52
-21.49
-21.33
-19.77
-17.99
-17.41
-19.36
-24.75
-33.82
-46.18
-60.89
-76.82
-92.91
-108.38
-122.76
-135.58
-146.06
-152.76
-153.58
-146.17
-128.73
-100.86
-64.18
-22.13
20.84
60.53
94.11
120.69
141.19
157.51
171.57
184.61
196.84
207.79
216.83
223.67
228.55
231.86
233.60
232.73
227.14
214.23
191.84
159.16
117.24
68.87
18.01
-30.92
-73.72
-107.05
-128.95
-139.18
-139.32
-132.41
-122.19
-112.09
-104.60
-100.92
-101.05
-104.20
-109.01
-113.87
-117.19
-117.77
-115.18
-109.96
-103.51
-97.57
-93.69
-92.64
-94.21
-97.30
-100.32
-101.71
-100.38
-96.05
-89.24
-81.11
-73.02
-66.05
-60.62
-56.38
-52.41
-47.64
-41.21
-32.79
-22.65
-11.61
-0.71
9.04
16.85
22.34
25.46
26.41
25.51
23.12
19.73
16.00
12.90
11.70
13.78
20.35
31.99
48.29
67.57
86.99
103.03
112.26
112.36
102.81
85.00
61.78
36.60
12.60
-7.96
-23.84
-34.63
-40.42
-41.60
-38.85
-33.13
-25.64
-17.70
-10.51
-4.89
-1.23
0.67
1.44
1.96
3.14
5.72
10.05
16.03
23.17
30.73
37.95
44.14
48.76
51.41
51.77
49.60
44.84
37.73
28.73
18.48
7.65
-3.23
-13.68
-23.30
-31.56
-37.91
-41.86
-43.27
-42.43
-40.13
-37.36
-34.98
-33.46
-32.79
-32.59
-32.39
-31.95
-31.32
-30.88
-31.12
-32.39
-34.81
-38.19
-42.05
-45.79
-48.78
-50.50
-50.62
-49.12
-46.19
-42.27
-37.82
-33.26
-28.84
-24.64
-20.62
-16.61
-12.47
-8.03
-3.25
1.89
7.34
12.94
18.48
23.64
28.15
31.83
34.74
37.17
39.55
42.28
45.52
48.99
52.02
53.75
53.39
50.56
45.35
38.33
30.26
21.86
13.66
5.88
-1.43
-8.29
-14.68
-20.51
-25.59
-29.73
-32.74
-34.53
-35.12
-34.77
-33.90
-32.99
-32.44
-32.36
-32.47
-32.19
-30.87
-28.06
-23.83
-18.86
-14.30
-11.34
-10.71
-12.25
-14.94
-17.26
-17.81
-15.94
-12.24
-8.41
-6.94
-10.40
-20.76
-38.64
-62.80
-90.07
-115.81
-135.08
-144.05
-141.17
-127.45
-105.77
-79.64
-51.85
-23.99
3.42
30.11
55.46
78.25
96.93
110.21
117.49
118.96
115.39
107.83
97.35
84.97
71.70
58.64
47.06
38.24
33.20
32.28
34.89
39.55
44.23
46.93
46.41
42.51
36.13
28.80
21.99
16.62
12.87
10.31
8.34
6.63
5.20
4.46
4.82
6.49
9.32
12.84
16.47
19.72
22.41
24.62
26.65
28.89
31.68
35.13
39.17
43.48
47.73
51.71
55.36
58.85
62.45
66.36
70.65
75.21
79.73
83.81
86.98
88.73
88.61
86.23
81.46
74.34
65.22
54.55
42.82
30.39
17.49
4.33
-8.79
-21.37
-32.76
-42.40
-50.05
-55.90
-60.53
-64.53
-68.30
-71.81
-74.73
-76.70
-77.57
-77.51
-76.97
-76.41
-76.13
-76.17
-76.34
-76.28
-75.57
-73.80
-70.66
-66.04
-60.08
-53.17
-45.90
-39.01
-33.19
-29.02
-26.81
-26.51
-27.71
-29.70
-31.62
-32.84
-33.22
-33.26
-33.95
-36.36
-41.24
-48.71
-58.11
-68.33
-78.21
-87.03
-94.82
-102.33
-110.66
-120.80
-133.10
-147.14
-161.96
-176.45
-189.92
-202.29
-214.11
-226.27
-239.77
-255.61
-274.58
-296.78
-320.99
-344.15
-361.54
-367.90
-359.14
-333.77
-293.57
-242.88
-187.05
-130.78
-77.00
-26.91
19.49
62.71
103.29
141.83
179.18
216.60
255.51
296.92
340.70
385.08
426.75
461.72
486.68
500.09
502.56
496.12
482.85
463.71
438.44
406.59
369.10
329.33
292.52
263.93
246.34
238.56
235.91
232.40
223.53
208.08
188.15
167.49
149.23
134.47
122.26
110.66
98.09
84.11
69.27
54.47
40.48
28.10
18.44
13.04
13.17
18.65
27.04
33.72
33.30
21.60
-2.53
-36.59
-75.22
-112.17
-142.36
-163.02
-173.82
-175.83
-170.62
-159.84
-145.48
-130.29
-117.63
-110.47
-109.97
-114.62
-120.58
-123.47
-120.66
-112.78
-103.42
-97.47
-98.81
-108.87
-126.71
-149.98
-175.91
-201.70
-224.57
-241.82
-251.82
-255.32
-256.26
-260.92
-275.16
-301.08
-334.87
-367.36
-387.25
-385.52
-358.61
-309.09
-243.80
-170.66
-96.21
-24.61
41.80
101.43
152.86
194.89
227.19
250.61
266.83
277.37
282.74
282.20
274.30
258.02
233.79
203.82
171.62
140.81
114.01
92.12
74.43
59.21
44.66
29.44
12.78
-5.69
-26.26
-49.13
-74.21
-100.64
-126.58
-149.37
-166.03
-174.13
-172.54
-161.91
-144.43
-123.14
-100.88
-79.23
-58.04
-35.65
-9.81
21.21
57.60
97.84
139.13
178.45
213.69
244.20
270.72
294.58
316.85
337.65
356.06
370.58
379.63
381.98
376.87
363.91
343.03
314.62
279.89
241.00
200.83
162.22
126.95
94.93
64.45
33.11
-0.52
-35.77
-69.78
-98.77
-119.89
-132.75
-139.73
-144.71
-151.13
-160.33
-171.22
-181.18
-187.71
-189.78
-188.08
-184.56
-181.24
-179.53
-180.02
-182.71
-187.28
-193.04
-198.51
-201.21
-197.95
-185.55
-162.04
-127.53
-84.60
-37.97
6.25
41.79
63.68
69.63
60.90
42.02
19.40
-0.91
-15.43
-24.13
-29.62
-35.03
-41.88
-49.03
-53.59
-52.97
-46.63
-36.50
-25.52
-15.45
-5.57
6.71
23.62
44.54
65.15
78.91
79.94
66.12
40.03
7.65
-24.48
-51.71
-72.23
-86.19
-93.91
-94.59
-86.33
-67.34
-37.54
0.72
42.95
83.87
118.95
145.63
163.51
173.93
178.85
180.24
179.79
178.98
179.20
181.40
185.34
189.21
190.03
185.17
173.99
158.59
143.02
131.34
125.49
124.54
125.29
124.11
118.38
106.95
89.54
65.95
35.90
-0.31
-40.96
-82.75
-121.61
-154.13
-178.79
-196.10
-208.04
-216.77
-223.97
-230.33
-235.62
-239.20
-240.34
-238.51
-233.41
-224.95
-213.12
-198.15
-180.87
-163.21
-148.29
-139.69
-139.92
-148.86
-163.24
-177.61
-186.68
-187.86
-182.55
-175.55
-172.98
-179.86
-198.77
-229.75
-270.71
-317.88
-365.75
-407.11
-433.95
-439.34
-419.79
-376.55
-315.29
-243.94
-169.96
-98.23
-30.44
33.83
95.51
154.69
210.20
260.12
302.55
336.43
361.76
379.63
391.75
399.93
405.51
408.92
409.53
405.83
395.91
378.08
351.56
316.88
275.96
231.77
187.82
147.25
112.42
84.50
63.58
48.94
39.41
33.66
30.35
28.35
26.76
24.98
22.75
20.04
16.84
13.07
8.62
3.52
-1.75
-6.27
-9.05
-9.42
-7.63
-4.88
-2.96
-3.53
-7.45
-14.52
-23.49
-32.69
-40.58
-46.17
-49.07
-49.44
-47.73
-44.58
-40.82
-37.31
-34.85
-33.93
-34.59
-36.31
-38.27
-39.64
-39.83
-38.71
-36.59
-34.05
-31.75
-30.33
-30.30
-32.09
-35.96
-41.96
-49.89
-59.22
-69.16
-78.69
-86.68
-91.94
-93.30
-89.82
-81.01
-67.12
-49.27
-29.42
-10.05
6.33
17.80
23.49
23.84
20.44
15.58
11.63
10.35
12.46
17.55
24.33
31.18
36.72
40.19
41.50
40.96
38.99
35.96
32.11
27.79
23.47
19.79
17.38
16.57
17.26
18.99
21.19
23.43
25.68
28.06
30.69
33.43
35.81
37.29
37.61
37.09
36.52
36.84
38.61
41.70
45.43
48.92
51.78
54.36
57.53
62.21
68.75
76.55
84.23
90.18
93.11
92.54
88.68
82.14
73.52
63.15
51.27
38.41
25.58
14.22
5.78
1.14
0.20
2.06
5.36
8.88
11.89
14.07
15.30
15.42
14.23
11.66
8.00
3.76
-0.59
-5.01
-10.05
-16.64
-25.50
-36.54
-48.65
-59.84
-67.97
-71.56
-70.32
-65.31
-58.37
-51.39
-45.55
-41.02
-37.18
-33.18
-28.56
-23.52
-18.74
-14.98
-12.53
-11.09
-9.98
-8.58
-6.72
-4.73
-3.18
-2.54
-2.88
-3.88
-5.08
-6.11
-6.89
-7.58
-8.44
-9.65
-11.24
-13.08
-14.96
-16.68
-18.14
-19.31
-20.25
-21.05
-21.75
-22.32
-22.67
-22.72
-22.45
-21.92
-21.22
-20.40
-19.40
-18.05
-16.18
-13.78
-11.08
-8.61
-7.10
-7.28
-9.66
-14.30
-20.65
-27.74
-34.55
-40.27
-44.65
-47.72
-49.52
-49.67
-47.30
-41.29
-30.92
-16.50
0.32
16.87
30.27
38.25
39.76
34.99
25.07
11.57
-3.83
-19.60
-34.34
-46.78
-55.92
-61.27
-62.97
-61.85
-59.25
-56.58
-55.01
-55.10
-56.79
-59.45
-62.17
-63.96
-64.10
-62.25
-58.44
-53.05
-46.71
-40.13
-33.96
-28.78
-24.94
-22.67
-22.11
-23.32
-26.27
-30.67
-35.90
-40.82
-43.90
-43.40
-37.91
-26.82
-10.70
8.77
29.18
48.24
64.39
77.25
87.50
96.33
104.84
113.54
122.18
130.03
136.13
139.67
140.22
137.82
132.96
126.47
119.37
112.55
106.60
101.64
97.31
92.96
87.90
81.55
73.67
64.22
53.40
41.48
28.91
16.33
4.68
-4.91
-11.39
-14.29
-13.94
-11.41
-8.13
-5.29
-3.40
-2.33
-1.57
-0.69
0.50
2.03
3.92
6.35
9.53
13.48
17.80
21.79
24.77
26.40
26.88
26.77
26.75
27.35
28.80
31.12
34.15
37.58
41.03
44.00
46.04
46.90
46.62
45.56
44.17
42.90
41.99
41.45
41.02
40.33
38.99
36.71
33.41
29.26
24.61
19.94
15.67
12.04
9.03
6.40
3.75
0.73
-2.86
-6.98
-11.44
-15.93
-20.18
-24.01
-27.39
-30.39
-33.22
-36.11
-39.28
-42.75
-46.33
-49.57
-51.88
-52.77
-52.02
-49.82
-46.63
-43.07
-39.68
-36.85
-34.77
-33.51
-33.02
-33.13
-33.53
-33.80
-33.56
-32.62
-31.03
-29.10
-27.18
-25.58
-24.43
-23.67
-23.12
-22.55
-21.82
-20.88
-19.80
-18.72
-17.79
-17.11
-16.68
-16.41
-16.11
-15.57
-14.67
-13.39
-11.84
-10.18
-8.64
-7.42
-6.62
-6.29
-6.32
-6.48
-6.46
-5.92
-4.58
-2.41
0.40
3.41
6.07
7.95
8.85
8.82
8.11
7.05
5.91
4.90
4.13
3.72
3.68
3.96
4.39
4.71
4.71
4.34
3.69
3.04
2.60
2.50
2.73
3.17
3.70
4.24
4.76
5.23
5.60
5.77
5.66
5.18
4.27
2.99
1.46
-0.06
-1.23
-1.67
-1.15
0.37
2.67
5.30
7.72
9.48
10.31
10.18
9.25
7.76
6.04
4.40
3.16
2.56
2.74
3.67
5.11
6.72
8.07
8.83
8.76
7.86
6.28
4.29
2.19
0.23
-1.47
-2.93
-4.29
-5.71
-7.25
-8.84
-10.35
-11.64
-12.68
-13.55
-14.41
-15.43
-16.66
-18.03
-19.39
-20.49
-21.15
-21.23
-20.72
-19.74
-18.54
-17.44
-16.69
-16.45
-16.64
-17.03
-17.36
-17.46
-17.37
-17.29
-17.43
-17.91
-18.63
-19.32
-19.63
-19.27
-18.11
-16.19
-13.71
-10.92
-8.08
-5.43
-3.09
-1.09
0.68
2.41
4.29
6.55
9.33
12.69
16.50
20.48
24.18
27.17
29.13
29.98
29.87
28.99
27.48
25.34
22.47
18.84
14.63
10.21
5.99
2.23
-1.10
-4.24
-7.34
-10.31
-12.68
-13.82
-13.22
-10.88
-7.29
-3.42
-0.33
1.23
0.86
-1.29
-4.72
-8.52
-11.56
-12.55
-10.44
-4.79
3.95
14.35
24.32
31.76
35.10
33.70
27.89
18.81
8.23
-1.66
-8.48
-10.03
-4.93
6.74
23.06
40.54
54.97
62.68
61.66
52.15
36.41
17.94
0.34
-13.60
-22.37
-25.82
-24.90
-21.08
-15.98
-10.96
-7.00
-4.65
-4.11
-5.28
-7.73
-10.83
-13.76
-15.75
-16.30
-15.38
-13.28
-10.57
-7.77
-5.19
-3.03
-1.33
-0.19
0.28
-0.09
-1.43
-3.70
-6.65
-9.68
-12.03
-12.82
-11.50
-8.11
-3.40
1.36
4.85
6.19
5.33
2.90
-0.10
-2.83
-4.92
-6.41
-7.49
-8.26
-8.59
-8.23
-7.05
-5.19
-3.03
-1.10
0.17
0.56
0.10
-0.99
-2.43
-3.89
-5.06
-5.67
-5.55
-4.75
-3.45
-2.01
-0.81
-0.08
0.06
-0.31
-1.08
-2.15
-3.44
-4.84
-6.12
-6.96
-6.99
-6.01
-4.08
-1.59
0.87
2.70
3.50
3.20
2.01
0.33
-1.43
-2.95
-4.04
-4.66
-4.86
-4.75
-4.49
-4.22
-4.02
-3.95
-4.06
-4.35
-4.77
-5.18
-5.43
-5.34
-4.90
-4.25
-3.69
-3.49
-3.71
-4.23
-4.73
-4.91
-4.66
-4.14
-3.64
-3.50
-3.89
-4.69
-5.66
-6.37
-6.46
-5.62
-3.79
-1.11
1.96
4.90
7.19
8.54
8.95
8.72
8.22
7.78
7.52
7.38
7.23
7.05
6.92
7.03
7.50
8.29
9.17
9.92
10.35
10.49
10.46
10.43
10.45
10.46
10.42
10.30
10.24
10.37
10.68
10.92
10.63
9.29
6.63
2.72
-1.96
-6.72
-10.90
-14.04
-15.97
-16.70
-16.37
-15.10
-13.08
-10.57
-7.85
-5.32
-3.27
-1.85
-0.96
-0.37
0.27
1.21
2.61
4.44
6.54
8.72
10.77
12.54
13.88
14.69
14.88
14.47
13.56
12.38
11.17
10.12
9.29
8.60
7.91
7.08
6.01
4.64
2.95
0.92
-1.37
-3.78
-6.09
-8.05
-9.45
-10.25
-10.51
-10.48
-10.51
-11.05
-12.51
-15.12
-18.85
-23.24
-27.65
-31.35
-33.85
-35.03
-35.07
-34.25
-32.72
-30.41
-27.13
-22.82
-17.80
-12.73
-8.42
-5.48
-4.05
-3.74
-3.90
-3.91
-3.51
-2.77
-1.98
-1.41
-1.13
-1.08
-1.12
-1.22
-1.41
-1.78
-2.36
-3.05
-3.71
-4.19
-4.42
-4.38
-4.04
-3.36
-2.27
-0.74
1.14
3.21
5.20
6.91
8.18
8.91
9.13
8.91
8.41
7.79
7.23
6.78
6.45
6.11
5.71
5.24
4.77
4.34
3.94
3.48
2.87
2.12
1.32
0.58
-0.11
-0.90
-2.02
-3.58
-5.41
-7.09
-8.20
-8.49
-8.10
-7.46
-7.05
-7.10
-7.45
-7.66
-7.24
-6.01
-4.12
-2.00
-0.10
1.34
2.36
3.10
3.68
4.09
4.19
3.95
3.46
3.02
2.95
3.39
4.18
5.03
5.51
5.42
4.78
3.83
2.89
2.26
2.06
2.30
2.91
3.78
4.85
6.12
7.54
9.09
10.63
11.98
12.95
13.38
13.22
12.57
11.66
10.75
10.14
10.07
10.70
12.08
14.09
16.49
18.85
20.77
21.85
21.96
21.20
19.88
18.37
16.94
15.72
14.74
13.96
13.34
12.86
12.47
12.02
11.36
10.32
8.89
7.21
5.48
3.88
2.50
1.24
-0.03
-1.38
-2.80
-4.22
-5.54
-6.75
-7.87
-8.96
-10.05
-11.15
-12.26
-13.38
-14.52
-15.55
-16.18
-16.08
-14.99
-12.92
-10.19
-7.34
-4.93
-3.25
-2.31
-1.91
-1.81
-1.85
-2.06
-2.51
-3.20
-4.02
-4.79
-5.26
-5.27
-4.77
-3.83
-2.63
-1.44
-0.51
-0.05
-0.07
-0.42
-0.88
-1.21
-1.31
-1.25
-1.21
-1.29
-1.48
-1.64
-1.62
-1.41
-1.12
-0.93
-1.07
-1.56
-2.26
-2.91
-3.16
-2.72
-1.42
0.71
3.50
6.60
9.57
12.08
13.85
14.88
15.32
15.47
15.65
16.07
16.70
17.22
17.10
15.66
12.45
7.41
0.99
-5.97
-12.54
-18.03
-22.11
-24.79
-26.30
-26.82
-26.47
-25.29
-23.40
-21.10
-18.74
-16.70
-15.12
-13.95
-12.91
-11.70
-10.17
-8.35
-6.48
-4.84
-3.65
-2.98
-2.75
-2.82
-3.09
-3.42
-3.62
-3.45
-2.61
-0.94
1.51
4.38
7.19
9.43
10.84
11.45
11.53
11.46
11.54
11.88
12.48
13.25
14.07
14.86
15.61
16.33
17.01
17.55
17.82
17.75
17.34
16.76
16.27
16.08
16.23
16.57
16.80
16.75
16.43
16.04
15.90
16.24
17.03
18.04
18.97
19.56
19.73
19.61
19.44
19.58
20.38
22.06
24.69
28.17
32.15
36.22
40.01
43.30
46.12
48.70
51.36
54.37
57.83
61.66
65.57
69.35
72.90
76.49
80.44
84.94
89.61
93.36
94.55
91.41
82.64
67.75
47.23
22.47
-4.61
-31.90
-57.48
-79.91
-98.50
-113.33
-125.13
-134.84
-143.13
-149.90
-154.21
-154.53
-149.42
-138.33
-122.10
-103.19
-84.96
-70.74
-62.71
-61.28
-65.20
-72.20
-79.98
-86.92
-92.32
-96.07
-98.29
-99.05
-98.42
-96.62
-94.09
-91.31
-88.40
-84.87
-79.73
-71.78
-60.29
-45.40
-28.28
-10.77
5.16
18.00
27.06
32.54
35.36
36.78
38.01
39.89
42.72
46.24
49.82
52.76
54.57
55.07
54.43
52.98
51.00
48.68
46.07
43.15
39.98
36.64
33.24
29.88
26.69
23.82
21.54
20.04
19.38
19.39
19.71
19.93
19.75
19.08
17.96
16.49
14.73
12.75
10.66
8.71
7.19
6.36
6.25
6.68
7.28
7.74
7.84
7.59
7.09
6.55
6.14
6.00
6.15
6.51
6.85
6.87
6.37
5.30
3.89
2.52
1.57
1.27
1.58
2.23
2.88
3.24
3.15
2.63
1.82
0.91
0.15
-0.28
-0.27
0.11
0.71
1.31
1.75
2.00
2.19
2.53
3.22
4.36
5.84
7.46
8.94
10.05
10.62
10.60
10.01
8.94
7.62
6.42
5.80
6.20
7.86
10.63
13.94
16.96
18.78
18.82
17.00
13.86
10.40
7.79
6.92
7.94
9.82
10.16
5.53
-7.69
-32.14
-68.00
-112.30
-158.92
-199.91
-227.43
-235.77
-222.78
-190.12
-142.68
-87.27
-31.25
18.65
57.30
81.81
91.84
89.47
78.64
63.99
49.76
38.77
32.08
29.18
28.55
28.46
27.55
25.25
21.81
18.05
14.84
12.61
11.00
8.91
5.07
-1.29
-9.86
-19.34
-27.92
-34.28
-38.30
-41.24
-45.28
-52.50
-63.98
-79.20
-96.37
-112.96
-126.61
-135.96
-141.06
-143.74
-147.72
-158.23
-180.59
-218.16
-270.09
-330.26
-388.39
-433.26
-456.60
-455.95
-434.92
-400.89
-361.58
-322.26
-284.97
-249.67
-215.97
-184.23
-155.30
-129.42
-105.32
-80.32
-51.46
-16.92
23.09
66.38
109.40
148.60
181.35
206.40
223.64
233.62
236.95
234.02
225.40
211.69
193.84
173.46
152.87
134.81
121.51
114.25
112.65
115.20
119.20
121.54
119.78
113.26
103.69
94.68
90.63
94.86
109.14
131.98
159.00
184.69
204.57
216.79
222.05
222.96
222.18
223.90
230.15
240.14
251.15
260.30
266.13
268.17
267.43
264.61
264.95
271.79
284.84
300.85
316.42
330.46
342.70
354.93
367.57
387.55
418.23
457.25
497.64
532.57
559.12
576.22
586.84
592.87
605.21
630.22
666.09
703.63
732.21
745.15
738.37
714.84
611.96
403.25
110.25
-206.18
-486.10
-699.45
-830.77
-904.82
-939.20
-945.04
-920.13
-865.16
-790.47
-712.13
-644.11
-591.55
-553.10
-519.75
-484.82
-438.69
-378.76
-309.98
-241.11
-178.56
-122.79
-71.95
-21.88
27.00
74.41
115.90
144.48
154.13
143.57
117.62
83.81
50.66
22.96
4.07
-5.68
-7.85
-4.79
1.01
6.77
8.43
2.12
-15.28
-43.32
-78.44
-115.43
-149.74
-179.00
-203.04
-222.44
-235.98
-240.05
-229.44
-199.79
-150.06
-83.80
-8.47
66.91
134.31
188.46
227.47
252.40
266.31
273.24
277.31
282.05
290.01
302.71
320.45
342.23
365.43
385.45
396.51
393.07
371.71
332.73
280.14
220.31
159.81
103.66
54.48
12.83
-21.92
-50.93
-75.54
-97.28
-117.83
-138.64
-160.56
-183.65
-207.14
-230.04
-251.61
-271.84
-291.65
-312.93
-338.22
-369.77
-408.07
-450.31
-489.89
-517.47
-523.72
-502.66
-454.10
-383.89
-301.89
-218.41
-141.16
-73.82
-16.57
32.13
73.96
109.96
140.97
168.17
193.49
219.27
247.53
279.16
313.58
348.90
382.72
412.98
438.37
458.24
472.19
479.52
479.11
469.64
450.41
422.01
386.59
347.45
308.17
271.72
239.74
212.55
189.40
169.09
150.42
132.34
113.93
94.44
73.23
49.93
24.61
-2.13
-29.41
-56.36
-82.45
-107.59
-132.03
-155.95
-179.25
-201.29
-221.09
-237.71
-250.55
-259.27
-263.71
-263.64
-258.83
-249.36
-235.86
-219.54
-201.85
-183.90
-166.03
-148.04
-129.67
-111.40
-94.74
-82.01
-75.51
-76.59
-85.17
-99.78
-118.42
-139.57
-162.84
-188.78
-217.78
-248.58
-277.55
-299.56
-310.03
-307.66
-295.80
-281.74
-273.85
-278.16
-296.03
-323.88
-354.87
-381.29
-396.67
-396.76
-379.96
-347.35
-302.65
-251.89
-202.38
-160.97
-132.21
-117.39
-114.67
-120.42
-130.92
-143.75
-158.36
-175.58
-196.64
-221.85
-249.59
-276.15
-296.50
-305.90
-301.50
-283.13
-253.14
-215.08
-172.27
-126.85
-79.79
-31.38
18.22
68.74
119.99
171.77
223.54
273.80
319.90
358.54
386.84
403.33
408.08
402.10
386.27
361.09
327.21
286.69
243.78
204.53
175.08
159.58
158.86
170.59
190.71
215.12
240.62
264.85
285.63
300.36
306.42
302.18
287.99
266.46
241.65
217.47
196.28
178.17
161.44
143.91
124.02
101.93
79.46
59.47
43.83
32.67
24.18
15.23
2.26
-18.17
-48.14
-87.92
-135.53
-188.00
-241.82
-293.76
-341.14
-382.05
-415.68
-441.16
-456.88
-459.95
-448.64
-422.45
-382.09
-328.66
-263.71
-191.57
-117.99
-49.86
7.25
45.64
59.36
46.79
12.39
-35.33
-90.51
-148.09
-202.45
-242.81
-263.17
-260.25
-233.85
-185.82
-121.52
-55.00
-0.08
35.72
58.93
72.74
79.28
79.59
77.09
75.88
71.40
58.08
32.91
4.06
-29.60
-71.73
-124.88
-184.79
-195.80
-121.74
32.18
174.19
280.58
349.57
400.30
437.93
465.08
482.57
482.39
458.13
410.79
357.05
305.85
261.38
222.82
189.30
159.06
124.01
77.90
21.02
-33.31
-76.90
-105.28
-118.55
-118.09
-107.20
-93.85
-84.79
-82.21
-79.89
-75.21
-68.57
-63.61
-64.27
-74.17
-97.35
-135.14
-184.93
-238.90
-290.33
-333.71
-365.34
-382.74
-385.56
-376.45
-360.11
-341.60
-324.29
-310.27
-299.25
-288.73
-274.86
-254.22
-224.91
-186.90
-141.23
-89.71
-34.61
21.46
75.78
125.90
170.30
209.01
243.58
276.83
310.99
346.43
381.49
413.33
439.20
457.42
468.06
472.63
474.24
475.80
478.83
482.90
485.73
483.34
470.95
444.82
403.38
349.21
287.77
225.80
169.55
123.26
88.25
62.66
43.32
20.25
-10.51
-45.36
-76.10
-96.41
-104.38
-100.62
-86.10
-61.38
-25.60
20.78
73.25
123.49
161.82
180.75
177.33
146.89
92.31
19.99
-61.95
-146.63
-229.70
-309.54
-386.37
-461.37
-535.50
-607.43
-674.03
-730.03
-769.36
-786.92
-780.10
-749.64
-699.55
-636.10
-565.42
-493.00
-422.61
-356.48
-295.89
-241.63
-194.18
-153.55
-119.16
-89.44
-62.87
-38.26
-15.19
5.77
23.55
37.14
46.07
50.60
51.85
51.13
49.71
48.57
48.34
49.48
52.38
57.50
65.24
75.84
89.07
104.23
120.18
135.60
149.30
160.44
168.59
173.77
176.22
176.28
174.65
171.98
168.85
165.92
163.85
163.19
164.28
167.11
171.41
177.12
184.29
193.14
204.05
217.58
234.32
254.59
278.19
304.07
331.01
356.73
378.32
393.09
399.70
398.57
391.50
380.73
368.14
356.62
347.31
339.54
331.78
323.07
313.24
302.45
290.46
276.72
264.39
255.52
250.49
249.10
252.06
260.76
275.32
293.44
310.65
327.75
343.51
354.14
355.25
345.60
328.36
309.79
296.52
292.96
306.56
335.16
366.46
384.18
377.33
344.91
294.12
235.32
129.83
-29.31
-217.15
-392.68
-527.22
-613.10
-655.88
-666.40
-656.72
-637.71
-609.67
-573.11
-531.09
-488.05
-446.80
-408.07
-372.39
-341.45
-317.94
-298.52
-281.98
-270.31
-266.61
-271.06
-278.71
-281.34
-272.27
-249.26
-211.70
-165.01
-118.49
-80.87
-55.98
-42.03
-34.77
-30.65
-28.31
-26.26
-24.19
-22.20
-20.01
-16.80
-11.75
-5.23
1.17
5.49
7.14
6.57
4.95
3.73
4.12
6.48
9.99
12.89
13.31
10.09
3.35
-5.63
-14.90
-22.54
-27.12
-28.14
-25.86
-21.19
-15.37
-9.76
-5.55
-3.62
-4.42
-8.07
-14.46
-23.25
-33.93
-45.88
-58.37
-70.57
-81.36
-89.02
-91.19
-85.43
-70.22
-46.35
-17.31
11.30
33.74
46.13
47.76
40.79
28.74
15.05
1.92
-9.56
-18.74
-25.00
-27.99
-28.24
-27.48
-28.09
-31.61
-37.99
-45.48
-51.34
-53.01
-49.16
-39.92
-26.35
-11.72
1.47
11.74
18.90
23.85
28.05
32.76
38.57
45.28
52.07
58.24
63.30
66.96
69.01
69.20
67.50
64.50
61.60
60.74
63.66
70.71
80.25
89.08
93.63
91.47
82.28
67.90
51.39
35.85
23.19
13.79
6.70
0.40
-6.50
-14.74
-24.36
-34.85
-45.29
-54.67
-62.14
-67.42
-71.03
-74.49
-79.74
-88.43
-100.94
-115.84
-130.05
-139.51
-140.45
-130.28
-108.55
-77.34
-41.19
-6.42
20.15
32.99
29.45
10.76
-18.18
-50.27
-78.26
-96.68
-102.83
-96.62
-79.45
-53.25
-20.08
17.60
56.20
90.85
116.41
129.11
128.33
116.92
100.30
83.88
70.90
61.40
53.02
43.24
31.21
18.65
8.84
4.86
8.01
17.24
30.08
44.25
59.13
75.88
96.59
122.75
154.19
188.99
224.19
256.79
284.48
305.99
321.08
330.97
338.61
348.17
363.65
386.61
414.34
439.61
453.03
446.42
416.15
364.44
298.03
225.32
153.47
86.96
27.47
-25.17
-72.01
-114.71
-155.66
-197.91
-244.40
-296.36
-351.94
-405.87
-450.90
-480.41
-491.00
-483.79
-463.62
-436.74
-408.29
-380.87
-354.62
-328.50
-301.69
-274.28
-247.24
-221.80
-198.93
-179.06
-162.14
-147.41
-133.37
-118.02
-99.74
-78.45
-56.13
-36.27
-22.19
-15.26
-13.93
-14.43
-12.58
-5.87
5.73
20.37
35.99
51.72
68.20
86.79
108.36
132.51
157.67
181.84
203.24
220.67
233.68
242.57
248.49
253.41
259.53
268.20
278.69
287.64
289.68
279.08
251.88
207.53
149.90
86.97
29.33
-12.48
-30.97
-24.04
4.24
44.92
87.20
121.71
142.51
147.41
136.41
110.19
69.35
14.84
-51.06
-124.53
-200.75
-274.60
-340.91
-394.24
-429.06
-441.21
-430.05
-399.97
-359.38
-317.33
-279.28
-244.82
-209.39
-169.27
-126.60
-90.70
-74.00
-84.82
-121.36
-170.61
-213.15
-231.53
-217.28
-173.21
-110.44
-42.29
20.93
74.06
116.14
147.76
169.16
180.39
182.75
180.32
179.59
187.18
206.47
234.81
263.45
279.68
271.23
230.42
157.00
58.70
-50.55
-153.99
-236.28
-287.15
-303.71
-290.40
-256.79
-214.19
-171.96
-135.31
-105.23
-80.29
-58.76
-39.90
-23.83
-10.38
1.69
14.72
30.97
51.39
74.79
98.51
119.28
134.74
144.33
149.34
152.56
157.48
167.56
185.49
212.35
246.79
284.53
319.13
343.31
351.20
340.11
311.13
267.97
214.99
155.81
92.94
28.87
-32.75
-87.05
-129.28
-156.91
-171.13
-176.56
-179.07
-183.22
-190.49
-199.43
-207.19
-211.68
-212.97
-213.26
-215.67
-222.48
-234.01
-248.38
-262.22
-271.73
-273.71
-266.22
-248.55
-221.14
-185.46
-144.14
-100.94
-60.50
-27.46
-5.05
5.85
6.96
1.88
-5.30
-11.37
-14.59
-14.67
-12.13
-7.64
-1.59
6.04
15.42
26.70
39.79
54.45
70.10
85.82
100.15
111.04
116.07
113.15
101.42
82.04
58.29
34.65
15.37
3.01
-2.03
-0.84
5.17
15.21
29.07
46.21
64.86
81.94
94.08
99.27
97.88
92.55
86.80
83.29
82.41
82.38
80.30
73.88
62.65
48.29
33.75
21.96
14.86
13.06
16.35
24.47
37.57
55.91
78.99
104.72
129.31
148.19
157.57
156.10
145.50
129.92
114.39
102.90
97.23
96.75
99.36
103.03
107.07
112.73
122.54
138.99
162.85
192.15
222.14
246.45
259.11
256.42
238.08
206.99
167.95
125.77
83.70
42.81
2.42
-38.94
-82.49
-128.57
-176.06
-222.20
-262.86
-293.48
-310.60
-313.38
-304.23
-288.27
-271.54
-259.14
-253.87
-255.82
-262.66
-270.35
-274.38
-271.10
-259.16
-240.24
-218.62
-199.43
-186.56
-181.36
-183.12
-191.03
-205.49
-227.77
-257.78
-291.66
-321.20
-336.34
-329.34
-298.48
-248.79
-189.41
-129.11
-72.62
-19.52
33.65
89.76
148.26
204.49
251.55
283.68
298.95
300.10
293.19
285.06
280.68
281.97
288.18
297.15
306.47
313.77
316.29
310.57
292.80
260.32
213.47
156.59
97.20
43.80
2.64
-24.59
-41.10
-53.23
-67.47
-87.75
-114.17
-143.46
-170.80
-191.71
-203.17
-203.73
-193.19
-172.17
-142.04
-105.17
-64.95
-25.20
10.72
40.83
65.00
84.65
101.79
117.89
133.03
145.60
152.77
151.46
139.65
117.38
87.25
54.11
23.85
1.66
-9.59
-10.30
-3.85
4.97
11.82
14.30
12.28
7.05
-0.04
-8.55
-18.98
-32.01
-47.59
-64.40
-79.98
-91.23
-95.04
-88.80
-71.03
-42.13
-4.97
35.26
72.23
100.57
117.75
124.77
125.26
123.37
121.78
120.88
119.37
115.70
109.15
100.03
89.07
76.76
63.15
48.20
32.27
16.28
1.46
-11.25
-21.46
-29.31
-35.11
-38.97
-40.68
-39.97
-36.77
-31.38
-24.50
-17.04
-9.99
-4.27
-0.62
0.54
-0.59
-3.12
-5.54
-6.12
-3.46
2.94
12.41
23.35
33.74
41.87
46.83
48.61
47.82
45.26
41.47
36.51
30.02
21.41
10.17
-3.76
-19.61
-35.73
-49.80
-59.57
-63.83
-63.09
-59.57
-56.23
-55.49
-58.11
-63.00
-67.90
-70.59
-69.81
-65.53
-58.56
-49.86
-40.24
-30.37
-21.02
-13.12
-7.48
-4.35
-3.15
-2.65
-1.59
0.63
3.57
5.94
6.23
3.56
-1.93
-9.07
-16.24
-22.09
-26.04
-28.34
-29.74
-30.94
-32.22
-33.41
-34.18
-34.30
-33.83
-33.02
-32.07
-30.98
-29.59
-27.68
-25.25
-22.55
-20.12
-18.63
-18.73
-20.79
-24.75
-29.98
-35.45
-39.83
-42.01
-41.46
-38.44
-33.88
-28.92
-24.50
-21.07
-18.66
-17.14
-16.46
-16.64
-17.75
-19.64
-21.92
-24.11
-25.93
-27.36
-28.71
-30.29
-32.17
-34.05
-35.40
-35.76
-35.02
-33.62
-32.41
-32.39
-34.21
-37.80
-42.25
-45.88
-46.79
-43.31
-34.72
-21.37
-4.62
13.59
31.35
47.17
60.13
69.80
76.01
78.77
78.32
75.26
70.64
65.76
61.83
59.51
58.66
58.48
57.94
56.27
53.36
49.70
46.07
43.13
41.03
39.33
37.25
33.96
28.88
21.85
13.12
3.35
-6.54
-15.53
-22.66
-27.24
-28.99
-28.06
-25.03
-20.66
-15.83
-11.35
-7.89
-5.97
-5.84
-7.51
-10.60
-14.46
-18.26
-21.21
-22.72
-22.55
-20.76
-17.59
-13.40
-8.52
-3.25
2.16
7.39
12.09
15.95
18.72
20.37
21.02
20.85
19.88
17.98
14.84
10.23
4.18
-2.84
-10.09
-16.87
-22.89
-28.51
-34.61
-42.27
-52.35
-65.05
-79.95
-96.19
-112.98
-129.91
-147.24
-165.99
-187.99
-215.78
-252.09
-298.88
-355.85
-419.27
-481.82
-534.01
-567.00
-575.49
-559.48
-523.85
-476.04
-423.15
-369.73
-317.40
-265.87
-214.67
-164.13
-115.44
-69.85
-27.90
10.94
47.75
83.40
118.01
150.73
180.24
205.43
226.08
243.00
257.77
272.10
287.18
303.50
321.19
340.68
362.81
388.19
415.96
442.65
462.18
467.43
452.85
416.79
362.27
295.80
225.22
157.92
100.09
56.93
32.73
30.08
48.22
82.07
122.89
160.95
189.01
204.10
207.30
201.56
189.46
172.07
149.51
122.47
93.18
65.27
41.97
24.76
13.01
4.86
-1.47
-6.63
-10.22
-11.33
-8.65
-1.79
8.61
21.19
34.55
47.75
60.22
71.63
81.76
91.98
103.29
116.00
129.50
142.76
154.93
165.27
173.26
178.63
183.62
189.61
196.70
203.71
209.50
213.93
217.57
220.82
223.29
226.37
229.57
230.80
227.28
217.25
201.11
180.50
157.09
115.11
49.86
-31.05
-110.38
-172.64
-211.49
-228.44
-228.90
-218.84
-203.07
-182.06
-158.15
-133.44
-110.85
-92.86
-80.11
-71.90
-67.07
-64.72
-62.50
-62.06
-67.05
-78.23
-95.31
-116.06
-137.69
-157.94
-175.72
-189.79
-203.77
-221.55
-244.93
-272.39
-299.78
-323.13
-339.89
-349.57
-352.79
-355.81
-364.55
-382.06
-408.05
-440.45
-477.45
-516.93
-555.14
-559.19
-508.14
-403.69
-270.95
-141.44
-36.67
35.67
78.79
101.62
113.75
117.49
112.56
98.76
78.71
57.39
39.36
27.19
21.01
18.90
14.76
3.75
-14.41
-36.80
-56.89
-68.65
-68.49
-56.03
-33.70
-7.74
15.99
34.50
48.66
62.01
78.17
99.29
125.25
153.96
181.09
202.73
217.11
225.31
230.79
237.87
250.77
272.44
303.23
339.36
373.15
394.37
393.00
362.70
303.21
221.47
130.07
43.87
-24.18
-66.29
-81.17
-73.28
-50.51
-21.52
6.71
30.09
47.55
60.07
69.35
76.61
82.15
85.85
87.70
88.23
88.36
88.64
88.47
85.69
77.30
60.75
35.41
3.00
-32.88
-68.15
-99.60
-125.23
-143.70
-153.30
-151.43
-135.43
-104.29
-60.20
-9.02
41.26
83.09
111.80
126.67
130.15
126.03
117.50
106.38
93.33
78.76
63.64
49.54
37.98
29.65
24.09
20.00
16.14
11.90
7.56
3.84
1.14
-0.90
-3.43
-7.88
-15.12
-25.02
-36.37
-47.30
-55.93
-60.94
-62.02
-59.80
-55.79
-51.68
-48.83
-47.78
-48.08
-48.54
-47.89
-45.31
-40.82
-35.29
-29.94
-25.78
-23.18
-21.67
-20.27
-17.94
-14.10
-8.74
-2.37
4.47
11.76
20.17
30.97
45.55
64.74
88.23
114.27
139.76
160.82
173.56
174.98
163.84
141.15
110.09
75.38
42.07
14.10
-6.61
-20.65
-30.62
-40.13
-52.37
-69.04
-89.75
-112.23
-133.37
-150.41
-161.99
-168.62
-172.17
-175.08
-179.68
-187.43
-198.90
-213.50
-229.33
-243.13
-250.71
-248.06
-232.66
-204.30
-164.96
-117.83
-66.05
-12.24
41.43
92.62
138.56
176.44
204.08
220.66
226.60
223.01
211.12
192.14
167.45
138.87
108.36
77.44
46.76
16.10
-14.96
-46.30
-76.94
-105.29
-129.74
-149.30
-163.86
-174.22
-181.52
-186.75
-190.34
-191.90
-190.62
-185.77
-177.50
-167.23
-157.53
-151.39
-151.02
-156.84
-166.91
-177.07
-181.88
-176.04
-156.13
-121.90
-76.72
-26.82
20.58
59.42
86.41
101.28
105.92
103.15
95.83
86.66
78.60
74.92
78.77
92.10
114.65
143.64
174.31
201.26
219.94
227.71
224.19
210.87
190.43
165.78
139.48
113.36
88.50
65.47
44.57
25.93
9.46
-5.24
-18.91
-32.37
-46.23
-60.50
-74.51
-87.12
-96.98
-102.95
-104.26
-100.54
-91.82
-78.41
-60.91
-40.22
-17.59
5.53
27.61
47.31
63.76
76.63
86.10
92.71
97.05
99.67
100.97
101.26
100.84
100.00
98.90
97.52
95.57
92.63
88.37
82.82
76.40
69.82
63.71
58.35
53.64
49.17
44.54
39.59
34.50
29.61
25.25
21.44
17.89
14.00
9.05
2.45
-6.04
-16.16
-27.12
-37.78
-46.93
-53.69
-57.70
-59.15
-58.52
-56.31
-52.79
-47.94
-41.67
-34.04
-25.40
-16.38
-7.70
0.12
6.88
12.64
17.63
22.01
25.87
29.11
31.63
33.33
34.26
34.58
34.58
34.64
35.08
36.10
37.65
39.47
41.17
42.41
43.00
42.96
42.38
41.44
40.25
38.92
37.57
36.35
35.45
34.91
34.63
34.34
33.71
32.56
30.90
29.03
27.37
26.30
25.94
26.18
26.76
27.39
27.86
28.09
28.03
27.62
26.71
25.07
22.42
18.54
13.25
6.62
-1.08
-9.36
-17.70
-25.67
-33.10
-40.16
-47.21
-54.68
-62.76
-71.31
-79.86
-87.74
-94.23
-98.77
-101.02
-100.93
-98.73
-94.86
-89.85
-84.27
-78.60
-73.15
-68.11
-63.47
-59.09
-54.80
-50.38
-45.75
-40.86
-35.78
-30.56
-25.27
-19.98
-14.78
-9.84
-5.32
-1.39
1.83
4.39
6.34
7.73
8.60
8.95
8.85
8.49
8.14
8.06
8.39
8.99
9.60
9.87
9.58
8.72
7.48
6.18
5.08
4.36
4.09
4.26
4.84
5.74
6.79
7.71
8.20
8.06
7.24
5.92
4.33
2.74
1.31
0.10
-0.87
-1.56
-1.91
-1.86
-1.49
-1.00
-0.62
-0.57
-0.90
-1.50
-2.16
-2.66
-2.86
-2.77
-2.50
-2.20
-1.96
-1.78
-1.52
-1.04
-0.24
0.79
1.85
2.62
2.89
2.61
1.95
1.20
0.66
0.49
0.68
1.02
1.24
1.15
0.67
-0.07
-0.84
-1.37
-1.49
-1.17
-0.55
0.17
0.79
1.21
1.44
1.57
1.65
1.69
1.61
1.31
0.76
0.04
-0.68
-1.21
-1.39
-1.21
-0.76
-0.19
0.33
0.66
0.76
0.59
0.20
-0.31
-0.85
-1.40
-2.03
-2.91
-4.19
-5.88
-7.79
-9.56
-10.73
-10.91
-9.90
-7.74
-4.76
-1.55
1.18
2.76
2.80
1.31
-1.26
-4.14
-6.54
-7.94
-8.23
-7.57
-6.33
-4.81
-3.19
-1.59
-0.15
0.98
1.64
1.72
1.25
0.43
-0.51
-1.33
-1.92
-2.28
-2.50
-2.69
-2.89
-3.08
-3.16
-3.01
-2.58
-1.97
-1.39
-1.11
-1.33
-2.02
-2.94
-3.66
-3.82
-3.19
-1.87
-0.15
1.58
3.01
3.99
4.53
4.82
5.05
5.46
6.22
7.35
8.74
10.13
11.21
11.75
11.77
11.47
11.21
11.26
11.66
12.18
12.50
12.37
11.82
11.22
11.00
11.46
12.59
14.15
15.79
17.37
18.94
20.49
21.64
21.56
19.30
14.29
6.63
-2.94
-13.47
-24.29
-35.15
-46.00
-56.64
-66.43
-74.45
-79.92
-82.59
-82.83
-81.37
-78.92
-75.83
-72.08
-67.50
-61.97
-55.55
-48.43
-40.91
-33.36
-26.07
-19.16
-12.56
-6.07
0.51
7.18
13.67
19.43
23.95
26.88
28.26
28.43
27.90
27.10
26.32
25.67
25.14
24.72
24.44
24.32
24.36
24.49
24.60
24.57
24.32
23.78
22.85
21.45
19.51
17.08
14.33
11.49
8.76
6.28
4.12
2.40
1.27
0.87
1.28
2.38
3.93
5.59
7.04
8.13
8.88
9.42
9.96
10.71
11.84
13.40
15.28
17.19
18.75
19.60
19.57
18.71
17.31
15.67
13.96
12.22
10.34
8.27
6.09
4.03
2.37
1.30
0.81
0.77
0.98
1.29
1.70
2.23
2.90
3.66
4.35
4.80
4.87
4.51
3.81
2.91
1.98
1.14
0.40
-0.30
-1.12
-2.18
-3.56
-5.22
-7.03
-8.87
-10.63
-12.21
-13.57
-14.67
-15.51
-16.17
-16.80
-17.65
-18.91
-20.66
-22.79
-25.08
-27.25
-29.07
-30.40
-31.20
-31.56
-31.63
-31.61
-31.63
-31.69
-31.58
-30.87
-29.07
-25.76
-20.83
-14.50
-7.22
0.41
7.89
14.81
20.88
25.86
29.56
31.92
33.00
33.10
32.59
31.82
31.02
30.19
29.20
27.91
26.28
24.39
22.45
20.72
19.39
18.56
18.24
18.34
18.66
18.98
19.02
18.60
17.62
16.12
14.30
12.43
10.77
9.59
9.00
8.96
9.31
9.73
9.87
9.45
8.38
6.73
4.76
2.74
0.90
-0.67
-2.00
-3.13
-4.08
-4.79
-5.17
-5.16
-4.75
-4.05
-3.20
-2.37
-1.68
-1.21
-1.05
-1.22
-1.68
-2.33
-3.03
-3.62
-4.02
-4.27
-4.47
-4.78
-5.31
-6.02
-6.79
-7.41
-7.73
-7.70
-7.38
-6.86
-6.27
-5.72
-5.29
-5.05
-5.08
-5.40
-6.01
-6.82
-7.74
-8.62
-9.33
-9.69
-9.58
-8.95
-7.86
-6.54
-5.26
-4.19
-3.40
-2.75
-2.04
-1.17
-0.13
0.93
1.83
2.48
2.89
3.12
3.24
3.28
3.21
3.04
2.78
2.46
2.17
1.97
1.93
2.13
2.60
3.30
4.09
4.74
5.02
4.77
3.99
2.78
1.40
0.11
-0.80
-1.18
-0.98
-0.30
0.63
1.54
2.15
2.29
1.90
1.06
-0.12
-1.51
-2.97
-4.31
-5.33
-5.82
-5.63
-4.77
-3.44
-1.99
-0.76
0.03
0.41
0.57
0.78
1.26
2.11
3.29
4.81
6.65
8.81
11.22
13.74
16.11
18.09
19.47
20.18
20.22
19.63
18.46
16.78
14.69
12.32
9.85
7.45
5.30
3.61
2.57
2.30
2.84
4.01
5.41
6.57
7.07
6.71
5.56
3.88
2.03
0.39
-0.73
-1.10
-0.55
0.99
3.43
6.51
9.82
12.94
15.59
17.83
19.98
22.54
25.95
30.37
35.51
40.56
44.33
45.56
43.38
37.70
29.33
19.76
10.64
3.16
-2.26
-5.87
-8.25
-9.83
-10.72
-10.86
-10.27
-9.31
-8.58
-8.62
-9.67
-11.69
-14.59
-18.45
-23.59
-30.25
-38.11
-46.21
-53.12
-57.50
-58.78
-57.44
-54.73
-52.21
-51.03
-51.56
-53.50
-56.14
-58.65
-60.40
-60.89
-59.75
-56.76
-51.91
-45.46
-38.02
-30.38
-23.25
-17.08
-11.93
-7.51
-3.41
0.67
4.73
8.39
11.08
12.21
11.43
8.86
5.14
1.27
-1.65
-2.76
-1.80
0.83
4.22
7.31
9.34
10.09
9.92
9.47
9.38
9.95
11.08
12.43
13.64
14.62
15.68
17.35
20.23
24.56
30.03
35.78
40.69
43.73
44.38
42.75
39.45
35.33
31.08
27.07
23.36
19.78
16.10
12.11
7.66
2.74
-2.49
-7.78
-12.76
-17.10
-20.66
-23.40
-25.45
-26.88
-27.73
-27.92
-27.41
-26.22
-24.49
-22.48
-20.43
-18.53
-16.81
-15.20
-13.51
-11.57
-9.34
-6.97
-4.84
-3.38
-2.90
-3.45
-4.79
-6.57
-8.56
-10.71
-13.14
-15.95
-19.09
-22.32
-25.31
-27.79
-29.52
-30.31
-29.85
-27.77
-23.81
-17.97
-10.70
-2.81
4.77
11.24
16.16
19.49
21.53
22.75
23.69
24.79
26.32
28.34
30.79
33.50
36.20
38.47
39.66
38.89
35.23
28.07
17.51
4.47
-9.37
-22.02
-31.80
-37.65
-39.39
-37.55
-33.09
-27.05
-20.35
-13.70
-7.66
-2.64
1.09
3.43
4.54
4.83
4.85
5.12
5.95
7.39
9.22
11.13
12.88
14.33
15.54
16.56
17.40
17.91
17.89
17.17
15.70
13.63
11.16
8.57
6.00
3.54
1.23
-0.84
-2.50
-3.58
-3.92
-3.58
-2.81
-2.05
-1.78
-2.35
-3.84
-5.92
-8.00
-9.30
-9.17
-7.24
-3.60
1.25
6.54
11.36
14.94
16.77
16.72
15.03
12.29
9.22
6.57
4.84
4.25
4.69
5.79
7.07
8.01
8.21
7.50
5.96
3.91
1.82
0.17
-0.73
-0.86
-0.49
-0.05
0.05
-0.40
-1.38
-2.66
-3.98
-5.15
-6.04
-6.64
-6.93
-6.92
-6.61
-6.08
-5.50
-5.11
-5.07
-5.41
-5.93
-6.24
-5.88
-4.45
-1.85
1.77
5.93
10.01
13.40
15.59
16.34
15.65
13.79
11.12
8.01
4.72
1.40
-1.94
-5.30
-8.64
-11.86
-14.81
-17.36
-19.46
-21.12
-22.33
-23.08
-23.24
-22.72
-21.42
-19.42
-16.92
-14.23
-11.73
-9.69
-8.18
-7.08
-6.10
-4.92
-3.35
-1.42
0.67
2.69
4.57
6.43
8.54
11.14
14.20
17.46
20.49
22.92
24.52
25.35
25.58
25.45
25.07
24.51
23.80
23.05
22.41
22.01
21.99
22.33
22.91
23.53
23.96
24.03
23.62
22.77
21.59
20.26
18.96
17.76
16.68
15.65
14.60
13.52
12.50
11.61
10.94
10.48
10.08
9.57
8.74
7.44
5.56
3.10
0.12
-3.20
-6.62
-9.84
-12.57
-14.61
-15.87
-16.42
-16.40
-15.99
-15.39
-14.76
-14.26
-14.04
-14.22
-14.84
-15.83
-17.00
-18.12
-18.94
-19.30
-19.12
-18.40
-17.20
-15.59
-13.75
-11.87
-10.19
-8.89
-7.99
-7.41
-7.05
-6.81
-6.70
-6.78
-7.06
-7.43
-7.64
-7.43
-6.64
-5.31
-3.66
-2.02
-0.71
0.09
0.35
0.23
-0.04
-0.15
0.20
1.22
3.02
5.55
8.62
11.89
14.98
17.54
19.32
20.28
20.57
20.38
19.92
19.30
18.56
17.70
16.74
15.75
14.79
13.90
12.99
11.90
10.46
8.57
6.30
3.77
1.18
-1.28
-3.53
-5.49
-7.12
-8.40
-9.32
-9.94
-10.37
-10.77
-11.26
-11.81
-12.27
-12.40
-11.95
-10.87
-9.26
-7.39
-5.54
-3.98
-2.87
-2.30
-2.23
-2.45
-2.59
-2.25
-1.15
0.66
2.70
4.21
4.47
3.15
0.45
-3.03
-6.52
-9.48
-11.66
-13.17
-14.27
-15.26
-16.39
-17.86
-19.85
-22.38
-25.32
-28.29
-30.80
-32.33
-32.52
-31.30
-28.88
-25.69
-22.24
-18.95
-16.11
-13.80
-11.95
-10.38
-8.92
-7.40
-5.71
-3.75
-1.50
1.05
3.82
6.65
9.29
11.46
13.02
14.00
14.61
15.16
15.87
16.80
17.79
18.57
18.87
18.59
17.80
16.66
15.40
14.18
13.06
12.00
10.86
9.46
7.79
6.00
4.38
3.29
2.89
3.09
3.52
3.83
3.80
3.53
3.28
3.31
3.67
4.17
4.44
4.14
3.10
1.29
-1.22
-4.31
-7.89
-11.79
-15.76
-19.50
-22.70
-25.13
-26.79
-27.77
-28.23
-28.36
-28.25
-27.95
-27.38
-26.33
-24.40
-21.12
-16.14
-9.52
-1.87
5.81
12.38
17.02
19.49
20.07
19.32
17.73
15.59
13.00
10.12
7.24
4.75
3.04
2.30
2.40
2.94
3.31
2.96
1.52
-0.95
-3.97
-6.68
-8.22
-8.04
-6.27
-3.75
-1.78
-1.62
-3.97
-8.70
-14.83
-20.94
-25.68
-28.16
-28.16
-26.02
-22.42
-18.07
-13.47
-8.87
-4.34
0.17
4.67
9.12
13.30
16.86
19.42
20.63
20.29
18.37
15.00
10.49
5.20
-0.43
-5.89
-10.62
-14.19
-16.33
-17.04
-16.59
-15.37
-13.75
-12.03
-10.31
-8.54
-6.57
-4.19
-1.21
2.44
6.60
10.93
14.90
17.97
19.85
20.46
20.06
19.08
17.96
17.01
16.37
16.00
15.75
15.52
15.24
14.91
14.57
14.29
14.15
14.23
14.65
15.52
16.89
18.74
20.92
23.22
25.35
27.07
28.19
28.54
28.06
26.70
24.52
21.64
18.33
14.96
11.92
9.50
7.83
6.90
6.56
6.69
7.20
8.08
9.30
10.84
12.60
14.46
16.31
18.14
19.86
21.27
21.92
21.16
18.34
13.09
5.51
-3.78
-13.74
-23.20
-31.13
-36.87
-40.16
-41.11
-40.06
-37.51
-34.04
-30.28
-26.77
-23.96
-22.02
-20.94
-20.48
-20.29
-20.06
-19.64
-19.08
-18.58
-18.40
-18.64
-19.21
-19.75
-19.83
-19.16
-17.68
-15.70
-13.69
-12.06
-11.00
-10.40
-10.02
-9.65
-9.23
-8.86
-8.63
-8.61
-8.69
-8.71
-8.50
-7.93
-6.98
-5.65
-4.01
-2.16
-0.26
1.56
3.23
4.80
6.41
8.23
10.34
12.63
14.91
16.89
18.38
19.31
19.71
19.66
19.25
18.55
17.54
16.23
14.61
12.70
10.55
8.24
5.90
3.73
1.98
0.87
0.54
0.98
1.97
3.22
4.40
5.30
5.89
6.27
6.59
6.98
7.47
8.07
8.77
9.57
10.49
11.45
12.32
12.93
13.11
12.77
11.96
10.80
9.44
7.99
6.51
5.01
3.47
1.87
0.18
-1.66
-3.69
-5.93
-8.40
-11.05
-13.87
-16.77
-19.62
-22.17
-24.13
-25.20
-25.19
-24.20
-22.47
-20.41
-18.33
-16.39
-14.54
-12.69
-10.74
-8.72
-6.74
-4.91
-3.33
-2.00
-0.86
0.16
1.10
1.92
2.49
2.65
2.31
1.52
0.50
-0.39
-0.88
-0.83
-0.39
0.12
0.36
0.19
-0.29
-0.85
-1.27
-1.50
-1.71
-2.12
-2.91
-4.04
-5.31
-6.46
-7.33
-7.89
-8.22
-8.43
-8.49
-8.32
-7.75
-6.70
-5.21
-3.49
-1.83
-0.50
0.31
0.60
0.46
0.08
-0.41
-0.94
-1.54
-2.18
-2.82
-3.34
-3.60
-3.51
-3.16
-2.70
-2.35
-2.21
-2.23
-2.26
-2.16
-1.79
-1.17
-0.34
0.68
1.88
3.30
4.94
6.78
8.72
10.56
12.11
13.21
13.77
13.82
13.42
12.69
11.70
10.49
9.06
7.41
5.63
3.92
2.55
1.71
1.44
1.63
2.04
2.47
2.79
3.04
3.33
3.76
4.27
4.73
4.96
4.88
4.59
4.35
4.44
5.01
6.01
7.19
8.26
8.99
9.37
9.52
9.61
9.80
10.09
10.40
10.57
10.46
9.99
9.17
8.15
7.04
5.97
4.95
3.92
2.80
1.50
0.06
-1.45
-2.87
-4.14
-5.22
-6.10
-6.75
-7.06
-6.88
-6.09
-4.73
-2.92
-0.93
0.98
2.62
3.88
4.79
5.36
5.64
5.63
5.34
4.77
3.96
2.99
1.96
1.05
0.40
0.10
0.14
0.39
0.58
0.46
-0.08
-0.98
-2.01
-2.90
-3.46
-3.66
-3.62
-3.55
-3.68
-4.20
-5.21
-6.59
-8.07
-9.14
-9.23
-7.85
-4.85
-0.57
4.24
8.62
11.78
13.29
13.19
11.94
10.15
8.38
7.02
6.15
5.71
5.60
5.75
6.23
7.19
8.69
10.68
12.92
15.08
16.85
18.12
18.96
19.59
20.18
20.70
20.84
20.19
18.36
15.25
11.16
6.61
2.22
-1.52
-4.44
-6.60
-8.10
-9.04
-9.37
-9.06
-8.21
-7.18
-6.46
-6.49
-7.50
-9.30
-11.49
-13.54
-15.11
-16.05
-16.41
-16.25
-15.52
-14.09
-11.85
-8.84
-5.39
-1.94
1.03
3.19
4.47
5.09
5.38
5.74
6.45
7.70
9.56
11.92
14.46
16.61
17.65
16.84
13.78
8.54
1.77
-5.54
-12.36
-17.93
-21.86
-24.07
-24.65
-23.74
-21.52
-18.37
-14.84
-11.66
-9.46
-8.59
-9.00
-10.32
-12.05
-13.76
-15.25
-16.49
-17.49
-18.23
-18.64
-18.65
-18.26
-17.59
-16.77
-15.89
-14.89
-13.63
-12.03
-10.23
-8.46
-7.03
-6.07
-5.45
-4.85
-3.89
-2.37
-0.38
1.77
3.70
5.08
5.75
5.73
5.16
4.27
3.24
2.26
1.36
0.56
-0.27
-1.18
-2.20
-3.37
-4.85
-7.05
-10.54
-15.82
-22.94
-31.34
-39.82
-46.90
-51.22
-51.85
-48.41
-41.07
-30.41
-17.31
-2.99
11.13
23.65
33.42
39.87
43.09
43.78
42.88
41.35
39.93
39.07
39.01
39.77
41.24
43.14
45.08
46.64
47.51
47.59
46.99
45.96
44.71
43.22
41.26
38.51
34.78
30.11
24.87
19.61
14.87
10.98
7.99
5.74
3.99
2.53
1.25
0.11
-0.95
-2.06
-3.40
-5.14
-7.30
-9.71
-12.07
-14.05
-15.53
-16.60
-17.55
-18.65
-20.04
-21.63
-23.19
-24.43
-25.11
-25.12
-24.42
-23.08
-21.19
-18.92
-16.48
-14.06
-11.84
-9.84
-8.04
-6.32
-4.66
-3.08
-1.69
-0.58
0.18
0.53
0.49
0.03
-0.77
-1.78
-2.71
-3.25
-3.17
-2.41
-1.15
0.27
1.48
2.23
2.49
2.34
2.01
1.67
1.45
1.39
1.53
1.83
2.25
2.70
3.09
3.32
3.33
3.12
2.72
2.20
1.66
1.17
0.80
0.62
0.72
1.15
1.97
3.15
4.59
6.16
7.66
8.87
9.55
9.55
8.76
7.25
5.22
3.02
0.95
-0.76
-2.01
-2.87
-3.45
-3.85
-4.13
-4.32
-4.46
-4.59
-4.80
-5.08
-5.38
-5.53
-5.31
-4.61
-3.44
-1.96
-0.49
0.68
1.41
1.68
1.66
1.54
1.47
1.49
1.52
1.48
1.31
1.02
0.67
0.29
-0.09
-0.46
-0.80
-1.02
-0.99
-0.64
-0.01
0.73
1.31
1.53
1.29
0.66
-0.17
-1.07
-1.98
-2.94
-4.04
-5.29
-6.63
-7.89
-8.82
-9.20
-8.87
-7.76
-5.93
-3.59
-1.12
1.09
2.72
3.68
4.07
4.08
3.92
3.67
3.32
2.82
2.17
1.49
0.91
0.55
0.42
0.48
0.60
0.70
0.71
0.58
0.29
-0.14
-0.66
-1.17
-1.58
-1.87
-2.08
-2.28
-2.53
-2.81
-3.08
-3.23
-3.26
-3.28
-3.39
-3.64
-3.93
-4.04
-3.71
-2.83
-1.51
0.01
1.45
2.60
3.44
4.05
4.48
4.73
4.71
4.36
3.74
3.02
2.40
2.02
1.89
1.90
1.93
1.86
1.72
1.53
1.37
1.27
1.20
1.17
1.12
1.05
0.95
0.81
0.62
0.38
0.09
-0.25
-0.67
-1.19
-1.78
-2.35
-2.85
-3.26
-3.65
-4.16
-4.88
-5.80
-6.79
-7.59
-7.97
-7.80
-7.09
-5.98
-4.60
-3.09
-1.49
0.11
1.59
2.77
3.49
3.67
3.37
2.83
2.28
1.99
2.10
2.62
3.45
4.40
5.32
6.07
6.63
7.02
7.33
7.60
7.73
7.57
6.92
5.73
4.09
2.28
0.60
-0.75
-1.70
-2.39
-2.96
-3.50
-3.95
-4.19
-4.13
-3.84
-3.52
-3.41
-3.65
-4.13
-4.62
-4.83
-4.63
-4.06
-3.29
-2.54
-1.93
-1.47
-1.03
-0.52
0.15
0.96
1.82
2.69
3.52
4.32
5.11
5.95
6.83
7.66
8.27
8.47
8.14
7.24
5.91
4.39
2.94
1.73
0.83
0.23
-0.11
-0.24
-0.21
-0.10
-0.02
-0.14
-0.58
-1.32
-2.26
-3.19
-3.95
-4.43
-4.66
-4.73
-4.81
-5.04
-5.52
-6.25
-7.10
-7.80
-7.98
-7.29
-5.53
-2.74
0.77
4.47
7.78
10.25
11.64
11.97
11.45
10.36
8.97
7.46
5.98
4.63
3.56
2.83
2.47
2.40
2.41
2.29
1.87
1.08
-0.01
-1.24
-2.45
-3.43
-4.04
-4.21
-3.94
-3.37
-2.70
-2.18
-2.01
-2.29
-3.03
-4.15
-5.54
-7.03
-8.47
-9.72
-10.67
-11.24
-11.47
-11.43
-11.28
-11.18
-11.24
-11.41
-11.55
-11.38
-10.61
-9.09
-6.82
-4.01
-1.01
1.85
4.39
6.53
8.31
9.70
10.59
10.83
10.41
9.49
8.45
7.74
7.64
8.11
8.85
9.45
9.60
9.27
8.62
7.92
7.37
7.06
6.96
7.08
7.46
8.19
9.25
10.45
11.38
11.50
10.38
7.84
4.11
-0.29
-4.60
-8.15
-10.52
-11.60
-11.57
-10.74
-9.33
-7.39
-4.88
-1.72
2.06
6.24
10.53
14.55
18.05
20.92
23.14
24.80
25.94
26.54
26.49
25.64
23.89
21.26
17.92
14.16
10.28
6.56
3.05
-0.26
-3.38
-6.29
-8.79
-10.68
-11.88
-12.51
-12.83
-13.18
-13.73
-14.45
-15.13
-15.56
-15.57
-15.18
-14.41
-13.23
-11.51
-9.13
-6.21
-3.18
-0.65
0.82
1.08
0.40
-0.59
-1.24
-1.15
-0.35
0.85
2.02
2.83
3.11
2.80
1.91
0.42
-1.66
-4.33
-7.50
-11.02
-14.68
-18.25
-21.46
-24.07
-25.84
-26.58
-26.16
-24.55
-21.81
-18.14
-13.83
-9.20
-4.49
0.12
4.57
8.85
12.97
16.85
20.29
23.02
24.69
24.97
23.73
21.09
17.52
13.68
10.28
7.81
6.43
6.01
6.30
7.09
8.29
9.95
12.03
14.40
16.75
18.73
20.06
20.62
20.48
19.82
18.97
18.20
17.71
17.58
17.74
18.02
18.25
18.35
18.39
18.58
19.13
20.07
21.22
22.12
22.13
20.68
17.39
12.24
5.58
-2.00
-9.79
-17.20
-23.91
-29.88
-35.30
-40.42
-45.31
-49.84
-53.62
-56.10
-56.71
-55.08
-51.10
-44.90
-36.88
-27.53
-17.44
-7.32
2.10
10.03
15.89
19.33
20.49
19.90
18.30
16.43
14.86
13.82
13.29
13.06
12.83
12.26
10.97
8.55
4.67
-0.76
-7.57
-15.33
-23.51
-31.63
-39.41
-46.71
-53.47
-59.56
-64.74
-68.70
-71.10
-71.67
-70.21
-66.63
-61.02
-53.70
-45.22
-36.27
-27.51
-19.45
-12.34
-6.29
-1.37
2.34
4.73
5.70
5.30
3.71
1.23
-1.74
-4.79
-7.53
-9.60
-10.77
-10.95
-10.25
-8.93
-7.37
-5.91
-4.74
-3.76
-2.49
-0.25
3.51
8.98
15.70
22.71
28.92
33.46
35.99
36.69
36.06
34.64
32.82
30.78
28.58
26.28
23.93
21.59
19.27
16.95
14.56
12.11
9.63
7.22
5.01
3.11
1.56
0.29
-0.83
-1.97
-3.26
-4.71
-6.21
-7.56
-8.51
-8.88
-8.57
-7.66
-6.34
-4.90
-3.58
-2.54
-1.81
-1.28
-0.77
-0.12
0.70
1.59
2.40
2.90
2.97
2.54
1.65
0.41
-0.99
-2.35
-3.45
-4.09
-4.19
-3.77
-2.91
-1.75
-0.44
0.87
2.04
2.96
3.58
3.88
3.96
3.93
3.98
4.24
4.76
5.52
6.39
7.17
7.64
7.63
7.08
6.11
4.96
3.94
3.34
3.29
3.72
4.44
5.15
5.61
5.69
5.40
4.86
4.21
3.61
3.19
3.01
3.09
3.35
3.68
3.94
3.97
3.70
3.14
2.39
1.59
0.86
0.24
-0.32
-0.84
-1.36
-1.81
-2.11
-2.20
-2.04
-1.65
-1.09
-0.36
0.51
1.51
2.58
3.59
4.42
4.99
5.29
5.37
5.36
5.30
5.24
5.21
5.26
5.45
5.78
6.22
6.66
7.00
7.15
7.11
6.93
6.69
6.46
6.28
6.17
6.14
6.20
6.32
6.47
6.63
6.76
6.92
7.13
7.41
7.68
7.79
7.55
6.87
5.77
4.39
3.01
1.87
1.11
0.74
0.67
0.78
1.02
1.40
1.94
2.66
3.47
4.24
4.82
5.09
5.00
4.59
3.93
3.10
2.20
1.31
0.52
-0.07
-0.45
-0.64
-0.71
-0.73
-0.78
-0.90
-1.11
-1.35
-1.53
-1.58
-1.51
-1.40
-1.45
-1.90
-2.86
-4.33
-6.13
-7.99
-9.69
-11.10
-12.21
-13.06
-13.64
-13.88
-13.63
-12.81
-11.39
-9.51
-7.32
-4.94
-2.39
0.51
3.98
8.24
13.33
19.07
24.99
30.44
34.70
37.12
37.22
34.83
30.11
23.55
15.95
8.39
1.96
-2.34
-3.95
-2.89
0.19
4.23
8.16
11.18
13.03
13.86
14.00
13.70
13.00
11.70
9.56
6.46
2.42
-2.32
-7.44
-12.66
-17.82
-22.86
-27.87
-33.09
-38.95
-46.02
-54.78
-65.37
-77.29
-89.33
-99.95
-107.69
-111.85
-112.63
-111.03
-108.32
-105.50
-102.89
-100.11
-96.25
-90.07
-80.35
-66.23
-47.63
-25.54
-2.12
19.80
37.58
49.52
55.36
56.13
53.51
49.07
43.94
38.62
33.34
28.24
23.54
19.44
16.07
13.45
11.47
9.98
8.78
7.60
6.17
4.33
2.17
0.05
-1.47
-1.80
-0.51
2.51
7.11
12.83
19.03
25.01
30.14
34.05
36.66
38.18
38.92
39.08
38.75
37.87
36.44
34.62
32.69
30.88
29.24
27.59
25.67
23.37
20.80
18.31
16.33
15.18
14.96
15.56
16.73
18.08
19.21
19.70
19.24
17.74
15.33
12.42
9.54
7.10
5.32
4.15
3.34
2.61
1.78
0.78
-0.32
-1.40
-2.29
-2.82
-2.75
-1.89
-0.15
2.33
5.18
7.86
9.85
10.83
10.76
9.90
8.63
7.37
6.46
6.14
6.56
7.71
9.46
11.55
13.67
15.59
17.18
18.39
19.22
19.60
19.46
18.79
17.76
16.68
15.93
15.79
16.34
17.38
18.63
19.86
20.96
22.04
23.23
24.63
26.23
27.89
29.44
30.62
31.24
31.08
29.87
27.33
23.29
17.73
10.91
3.35
-4.30
-11.38
-17.43
-22.16
-25.51
-27.53
-28.36
-28.18
-27.24
-25.83
-24.17
-22.38
-20.37
-17.95
-14.94
-11.32
-7.37
-3.62
-0.73
0.78
0.67
-0.87
-3.25
-5.69
-7.48
-8.17
-7.68
-6.25
-4.26
-2.02
0.36
2.95
5.80
8.82
11.76
14.23
15.81
16.12
14.75
11.32
5.57
-2.47
-12.27
-22.78
-32.72
-40.95
-46.77
-50.14
-51.33
-50.72
-48.42
-44.34
-38.40
-30.89
-22.51
-14.26
-7.10
-1.61
2.10
4.36
5.67
6.53
7.25
7.91
8.38
8.29
7.21
4.84
1.13
-3.56
-8.59
-13.30
-17.23
-20.32
-22.86
-25.22
-27.71
-30.43
-33.31
-36.21
-38.92
-41.23
-42.82
-43.30
-42.33
-39.82
-35.96
-31.18
-26.05
-20.95
-16.10
-11.45
-6.84
-2.12
2.80
7.85
12.90
17.75
22.15
25.87
28.82
31.00
32.67
34.18
35.92
38.06
40.53
42.96
44.84
45.72
45.38
43.90
41.62
38.95
36.23
33.59
30.92
27.96
24.42
20.05
14.75
8.53
1.57
-5.83
-13.28
-20.33
-26.68
-32.15
-36.75
-40.50
-43.36
-45.09
-45.27
-43.47
-39.49
-33.53
-26.18
-18.29
-10.73
-4.22
0.77
4.01
5.44
5.21
3.63
1.27
-1.10
-2.58
-2.39
-0.07
4.40
10.52
17.48
24.33
30.27
34.76
37.56
38.69
38.33
36.83
34.55
31.93
29.37
27.15
25.34
23.83
22.46
21.02
19.43
17.68
15.81
13.88
11.91
9.98
8.21
6.74
5.66
4.95
4.47
4.00
3.36
2.44
1.20
-0.35
-2.20
-4.36
-6.87
-9.70
-12.79
-15.98
-19.00
-21.51
-23.21
-23.87
-23.47
-22.26
-20.65
-19.18
-18.20
-17.83
-17.91
-18.13
-18.19
-18.01
-17.61
-17.09
-16.47
-15.62
-14.37
-12.62
-10.47
-8.21
-6.27
-4.98
-4.53
-4.87
-5.85
-7.19
-8.65
-9.98
-10.97
-11.48
-11.45
-10.97
-10.23
-9.47
-8.88
-8.58
-8.57
-8.75
-9.00
-9.16
-9.11
-8.74
-7.95
-6.68
-4.96
-2.92
-0.75
1.37
3.31
5.06
6.79
8.65
10.77
13.09
15.39
17.39
18.81
19.56
19.65
19.27
18.55
17.59
16.43
15.03
13.38
11.51
9.43
7.13
4.58
1.77
-1.21
-4.06
-6.29
-7.39
-7.02
-5.22
-2.43
0.57
3.01
4.38
4.62
4.07
3.26
2.62
2.36
2.45
2.77
3.22
3.79
4.50
5.30
6.00
6.38
6.20
5.42
4.21
2.90
1.87
1.37
1.40
1.74
2.04
1.99
1.49
0.70
-0.09
-0.54
-0.51
-0.07
0.56
1.17
1.66
2.05
2.43
2.80
3.04
2.90
2.19
0.88
-0.81
-2.63
-4.32
-5.84
-7.34
-9.06
-11.19
-13.81
-16.83
-20.09
-23.46
-26.78
-29.87
-32.45
-34.15
-34.53
-33.32
-30.51
-26.42
-21.61
-16.74
-12.33
-8.65
-5.64
-3.12
-0.91
1.02
2.49
3.26
3.23
2.50
1.43
0.49
0.06
0.25
0.90
1.69
2.29
2.56
2.43
1.93
1.11
-0.05
-1.57
-3.27
-4.82
-5.83
-5.92
-5.00
-3.28
-1.18
0.82
2.47
3.75
4.82
5.82
6.81
7.70
8.35
8.68
8.68
8.39
7.84
7.04
6.01
4.86
3.82
3.12
2.96
3.34
4.10
4.97
5.67
6.09
6.27
6.38
6.62
7.15
8.00
9.04
10.01
10.58
10.52
9.77
8.52
7.16
6.21
6.01
6.72
8.25
10.32
12.65
14.94
16.94
18.43
19.25
19.29
18.56
17.34
15.99
14.94
14.45
14.58
15.15
15.84
16.32
16.41
16.12
15.67
15.32
15.25
15.43
15.58
15.25
14.00
11.56
7.96
3.41
-1.68
-6.93
-12.00
-16.64
-20.69
-23.98
-26.46
-28.12
-29.09
-29.47
-29.35
-28.70
-27.39
-25.31
-22.41
-18.83
-14.87
-10.88
-7.19
-4.02
-1.53
0.21
1.16
1.38
0.99
0.25
-0.60
-1.38
-2.01
-2.55
-3.10
-3.74
-4.41
-5.01
-5.45
-5.70
-5.83
-5.95
-6.13
-6.39
-6.68
-6.99
-7.26
-7.54
-7.83
-8.12
-8.32
-8.27
-7.80
-6.86
-5.54
-4.09
-2.81
-1.90
-1.40
-1.10
-0.70
0.05
1.21
2.65
4.12
5.40
6.41
7.09
7.46
7.50
7.13
6.35
5.24
3.98
2.79
1.82
1.08
0.44
-0.22
-0.94
-1.62
-2.07
-2.13
-1.76
-1.08
-0.29
0.41
0.92
1.22
1.40
1.52
1.66
1.86
2.20
2.74
3.48
4.33
5.06
5.44
5.25
4.43
3.09
1.44
-0.26
-1.79
-2.93
-3.53
-3.46
-2.68
-1.24
0.65
2.66
4.42
5.65
6.24
6.28
5.99
5.60
5.29
5.11
5.03
4.94
4.77
4.54
4.32
4.23
4.41
4.94
5.79
6.79
7.69
8.23
8.25
7.79
7.01
6.18
5.48
4.97
4.51
3.94
3.08
1.91
0.56
-0.79
-1.94
-2.75
-3.18
-3.23
-2.94
-2.37
-1.57
-0.63
0.33
1.19
1.82
2.13
2.14
1.92
1.57
1.20
0.90
0.70
0.59
0.51
0.38
0.12
-0.32
-0.90
-1.52
-2.07
-2.45
-2.64
-2.74
-2.87
-3.16
-3.63
-4.22
-4.75
-5.03
-4.96
-4.58
-4.08
-3.73
-3.85
-4.61
-6.01
-7.83
-9.75
-11.45
-12.69
-13.41
-13.68
-13.64
-13.40
-13.07
-12.73
-12.44
-12.29
-12.30
-12.47
-12.74
-13.04
-13.32
-13.65
-14.07
-14.58
-15.09
-15.36
-15.07
-13.93
-11.78
-8.65
-4.78
-0.54
3.65
7.38
10.39
12.58
14.04
15.11
16.17
17.54
19.37
21.54
23.65
25.19
25.65
24.73
22.40
18.93
14.92
11.24
8.90
8.80
11.47
16.71
23.58
30.55
36.03
38.78
38.38
35.18
30.08
24.14
18.20
12.69
7.67
3.03
-1.40
-5.68
-9.80
-13.65
-17.16
-20.26
-22.91
-25.08
-26.66
-27.45
-27.23
-25.89
-23.52
-20.44
-17.13
-13.95
-11.10
-8.49
-5.95
-3.34
-0.68
1.80
3.81
5.18
5.89
6.09
5.93
5.48
4.75
3.76
2.60
1.51
0.72
0.37
0.43
0.72
1.08
1.44
1.84
2.37
3.10
3.94
4.71
5.24
5.42
5.31
5.02
4.69
4.42
4.24
4.12
4.01
3.87
3.67
3.40
3.08
2.72
2.36
2.03
1.68
1.21
0.55
-0.36
-1.49
-2.72
-3.94
-5.04
-5.96
-6.69
-7.23
-7.54
-7.57
-7.31
-6.76
-6.00
-5.05
-3.98
-2.80
-1.64
-0.62
0.10
0.49
0.65
0.81
1.23
2.06
3.26
4.64
5.94
6.96
7.59
7.81
7.60
6.98
5.99
4.77
3.54
2.54
1.91
1.68
1.77
2.07
2.54
3.18
3.95
4.80
5.52
5.95
5.97
5.62
5.08
4.54
4.12
3.80
3.48
3.04
2.47
1.79
1.04
0.20
-0.83
-2.20
-3.95
-5.97
-7.92
-9.33
-9.79
-9.11
-7.40
-5.00
-2.43
-0.18
1.41
2.20
2.27
1.89
1.41
1.19
1.43
2.14
3.18
4.34
5.44
6.38
7.17
7.79
8.21
8.34
8.18
7.84
7.54
7.52
7.95
8.84
10.11
11.67
13.48
15.57
17.96
20.57
23.21
25.60
27.43
28.46
28.55
27.67
25.99
23.82
21.64
19.92
18.96
18.74
18.96
19.14
18.86
17.95
16.54
14.94
13.43
12.16
11.09
10.08
8.97
7.75
6.47
5.24
4.11
3.01
1.64
-0.48
-3.97
-9.43
-17.25
-27.49
-39.76
-53.31
-67.18
-80.43
-92.32
-102.41
-110.51
-116.68
-120.95
-123.22
-123.15
-120.08
-113.15
-101.67
-85.67
-66.42
-46.58
-29.58
-18.57
-15.21
-19.36
-29.40
-43.22
-58.90
-74.98
-90.11
-102.90
-112.26
-117.95
-120.96
-123.03
-125.56
-128.51
-130.12
-127.99
-120.61
-108.33
-92.95
-76.22
-58.46
-38.59
-15.30
11.13
38.00
60.90
75.67
80.52
76.71
67.85
58.10
50.61
47.05
48.09
54.16
65.74
83.05
105.22
130.09
154.51
175.38
190.79
200.54
205.91
208.91
211.53
215.11
220.25
226.27
231.68
234.74
234.32
230.49
224.68
219.44
217.00
218.51
222.17
223.85
218.51
202.00
172.14
129.03
75.73
17.40
-37.64
-80.40
-102.52
-98.53
-67.94
-16.41
44.71
102.34
143.59
160.50
149.11
109.63
45.72
-36.24
-128.03
-221.26
-307.17
-380.43
-425.51
-428.68
-385.93
-308.06
-215.06
-124.86
-54.63
-1.31
40.14
73.21
97.11
108.51
105.62
88.39
59.75
23.42
-16.53
-59.17
-103.90
-149.88
-193.80
-229.34
-248.98
-246.84
-222.34
-178.75
-123.52
-64.34
-8.41
38.00
69.74
83.01
76.91
53.46
19.71
-15.54
-44.15
-62.24
-71.07
-75.41
-81.04
-91.63
-108.22
-126.92
-141.26
-144.88
-134.93
-113.98
-89.75
-72.49
-62.50
-59.61
-59.11
-53.38
-36.54
-8.65
24.37
54.69
76.97
91.07
100.01
108.40
119.15
131.85
143.50
150.67
151.61
146.61
137.77
126.89
115.41
103.34
89.09
70.07
44.23
12.59
-21.86
-55.57
-86.40
-113.25
-135.46
-151.72
-159.34
-154.65
-135.13
-101.93
-60.41
-19.13
13.60
32.72
37.70
31.70
19.61
5.81
-7.13
-17.53
-23.91
-24.60
-18.27
-4.58
15.20
38.59
62.80
84.44
102.12
116.65
130.47
146.01
163.54
179.65
187.55
179.76
152.08
106.83
52.96
2.92
-32.51
-48.23
-46.35
-34.16
-19.86
-9.16
-3.93
-3.39
-5.80
-9.67
-13.31
-14.01
-8.48
5.15
24.81
44.00
53.09
43.47
11.91
-37.35
-93.95
-145.71
-183.45
-204.00
-209.81
-206.19
-197.84
-186.60
-171.61
-150.86
-123.56
-91.11
-56.82
-24.20
4.40
28.24
47.89
63.88
75.78
81.44
78.16
64.52
41.93
14.71
-11.08
-29.79
-39.83
-41.03
-35.81
-27.84
-20.01
-13.28
-6.74
1.35
12.11
25.11
38.69
50.34
58.03
61.19
60.77
58.62
56.62
55.85
56.32
57.57
58.78
59.45
59.60
59.45
59.01
57.91
55.39
50.82
44.23
36.28
28.22
21.48
17.07
15.23
15.44
16.60
17.67
17.99
17.43
16.19
14.52
12.21
8.33
1.43
-10.11
-27.33
-50.14
-77.04
-105.26
-131.37
-151.89
-163.87
-165.05
-154.10
-130.94
-97.14
-56.19
-13.11
26.56
58.12
78.95
88.99
90.28
85.90
78.88
71.47
65.13
60.63
58.27
57.98
59.18
60.92
62.21
62.43
61.61
60.52
60.38
62.46
67.46
75.17
84.33
92.96
99.10
101.39
99.69
94.93
88.60
81.99
75.57
68.88
60.95
50.98
38.95
25.76
12.96
2.07
-5.78
-10.32
-11.91
-11.28
-9.09
-5.76
-1.34
4.29
11.24
19.43
28.52
37.95
47.04
55.04
61.20
64.86
65.64
63.70
59.95
55.82
52.95
52.59
55.14
60.13
66.54
73.27
79.51
84.82
88.95
91.59
92.31
90.57
85.86
77.86
66.58
52.46
36.31
19.25
2.75
-11.67
-22.72
-29.80
-33.28
-34.47
-35.25
-37.68
-43.60
-54.32
-70.58
-92.40
-119.08
-148.96
-179.16
-205.75
-224.58
-232.46
-228.16
-213.10
-190.74
-165.97
-143.25
-125.23
-112.06
-102.17
-93.56
-84.44
-74.15
-62.64
-51.50
-43.24
-40.14
-43.28
-52.69
-67.99
-88.07
-112.28
-138.80
-165.64
-189.11
-202.97
-199.48
-173.02
-123.71
-57.35
14.58
80.06
127.73
149.86
143.86
112.18
60.05
-6.80
-81.67
-159.37
-220.07
-243.56
-221.56
-164.45
-91.68
-19.11
38.58
84.19
118.94
142.12
150.11
139.21
109.36
65.55
17.64
-22.95
-45.46
-45.92
-25.84
7.17
43.07
74.28
98.95
120.47
144.14
174.41
209.42
243.79
270.17
282.82
280.18
265.30
243.74
220.81
200.09
179.87
157.27
130.32
99.41
66.65
34.23
3.04
-27.35
-57.45
-89.83
-125.75
-164.60
-204.54
-244.12
-283.14
-322.11
-360.95
-383.20
-375.47
-334.65
-271.28
-201.80
-138.63
-86.79
-45.97
-13.76
12.22
30.82
39.58
39.11
31.52
19.18
3.83
-13.26
-30.51
-45.76
-58.85
-70.68
-81.60
-90.53
-97.99
-104.56
-108.77
-106.38
-92.32
-64.77
-25.76
21.50
71.80
118.57
156.20
181.94
196.66
203.20
204.29
202.69
203.66
210.92
224.15
239.21
250.12
251.62
239.34
210.41
150.62
62.31
-33.43
-108.08
-143.98
-142.06
-116.17
-83.27
-54.75
-34.53
-17.51
4.07
35.95
80.18
129.05
175.17
210.08
225.50
215.21
178.49
117.44
35.34
-63.85
-174.36
-287.14
-391.38
-475.83
-531.08
-550.60
-534.67
-491.08
-432.56
-371.90
-317.02
-270.48
-230.81
-195.27
-161.32
-128.39
-97.46
-69.55
-44.25
-19.03
9.16
42.56
81.37
123.16
163.07
195.11
214.32
218.87
211.03
195.85
178.97
164.15
151.92
140.02
125.38
106.48
84.68
63.93
48.96
43.09
46.92
58.47
74.59
92.70
111.91
132.71
155.71
180.20
203.68
222.48
233.17
233.70
223.64
203.65
174.83
138.68
97.74
56.25
20.02
-5.04
-14.91
-9.18
8.77
33.02
57.31
76.88
89.26
93.97
91.83
84.46
74.27
64.38
58.00
57.40
62.75
71.73
80.37
84.79
83.02
75.99
67.23
61.12
61.07
68.17
80.87
95.91
109.53
118.42
119.98
112.44
94.54
65.69
26.22
-22.73
-79.56
-142.80
-211.22
-283.18
-355.23
-421.23
-472.90
-502.00
-503.40
-477.13
-428.50
-365.82
-297.15
-227.92
-160.13
-93.19
-25.55
43.55
113.05
179.54
237.46
280.14
301.29
296.97
267.02
215.11
146.97
68.45
-15.69
-101.32
-183.30
-254.32
-305.81
-330.48
-325.52
-294.14
-244.36
-185.55
-124.67
-64.42
-4.23
56.83
117.04
171.25
212.66
236.23
241.44
232.90
218.42
205.81
199.95
201.42
207.19
212.50
212.92
205.85
190.94
169.80
145.13
119.85
96.28
75.89
59.45
47.64
41.25
41.11
47.37
58.81
72.67
85.32
93.60
95.85
92.08
83.32
70.58
54.28
34.40
11.38
-13.21
-36.72
-56.13
-69.19
-75.21
-75.18
-71.33
-66.63
-64.42
-68.19
-81.00
-104.60
-138.39
-178.65
-219.18
-252.93
-274.14
-280.07
-271.73
-252.83
-228.13
-201.60
-175.53
-150.70
-127.14
-104.90
-84.33
-65.85
-49.39
-34.10
-18.63
-1.86
16.32
34.63
50.97
63.60
72.28
78.64
85.48
95.24
108.53
123.47
136.37
143.48
142.85
135.47
124.89
115.61
111.29
113.43
121.09
131.66
141.91
149.00
151.17
148.03
140.30
128.96
114.31
95.54
71.21
40.41
4.09
-34.35
-69.75
-96.95
-112.49
-115.63
-108.03
-92.83
-73.61
-54.05
-37.75
-28.07
-27.59
-36.75
-53.29
-72.20
-86.86
-90.81
-79.46
-51.64
-10.30
38.10
85.55
124.95
152.08
166.13
168.46
160.55
142.71
114.16
74.54
25.54
-28.99
-84.67
-138.98
-192.42
-247.40
-305.05
-361.96
-409.41
-436.02
-432.85
-397.83
-337.47
-264.73
-193.94
-135.81
-94.51
-67.90
-50.41
-36.30
-21.72
-5.11
13.61
33.45
51.91
64.43
64.91
48.10
12.78
-35.66
-85.68
-123.28
-137.52
-124.94
-90.45
-44.43
2.19
42.13
72.96
95.51
111.29
120.81
123.81
120.71
113.47
105.25
99.02
95.92
94.78
92.94
87.88
78.64
66.38
53.76
43.87
39.05
40.22
46.75
56.74
67.82
77.85
85.66
91.23
95.53
99.81
104.78
110.13
114.50
116.09
113.49
106.34
95.59
83.08
70.92
60.75
53.47
49.06
46.93
46.16
45.79
45.05
43.42
40.75
37.21
33.16
29.02
25.05
21.31
17.74
14.30
11.09
8.38
6.50
5.62
5.58
5.96
6.16
5.70
4.37
2.25
-0.32
-2.81
-4.67
-5.43
-4.86
-3.23
-1.59
-1.59
-4.95
-12.56
-23.79
-36.43
-47.54
-54.54
-56.25
-53.17
-47.00
-39.72
-32.86
-27.23
-23.16
-20.81
-20.33
-21.68
-24.43
-27.51
-29.34
-28.30
-23.22
-13.89
-1.20
12.92
26.18
36.50
42.66
44.48
42.48
37.47
30.12
20.91
10.36
-0.66
-10.97
-19.36
-25.08
-28.12
-28.92
-27.96
-25.45
-21.10
-14.43
-4.98
7.49
22.77
40.19
58.63
76.38
91.33
101.36
104.86
101.19
90.71
74.41
53.41
28.71
1.39
-26.98
-54.00
-76.75
-92.63
-100.20
-99.75
-92.99
-82.24
-69.44
-55.59
-40.81
-24.89
-7.88
9.58
