1593611980.00
64.000000
-0.00
-0.00
-0.00
-0.00
-0.00
-0.00
-0.00
-0.00
-0.00
-0.00
0.00
0.01
0.01
-0.00
-0.03
-0.05
-0.05
0.00
0.13
0.36
0.66
1.01
1.37
1.72
2.06
2.40
2.79
3.24
3.80
4.42
5.06
5.66
6.20
6.68
7.15
7.68
8.31
9.14
10.09
11.04
11.88
12.56
13.14
13.76
14.65
15.96
17.91
20.32
22.90
25.38
27.58
29.57
31.68
34.32
37.81
42.54
48.15
54.10
59.83
64.97
69.58
74.14
79.34
85.71
93.76
103.00
112.62
121.73
129.77
136.75
143.30
150.75
157.77
166.64
177.95
191.79
206.97
220.57
228.25
225.36
208.53
176.87
132.76
80.05
23.07
-34.94
-92.44
-149.16
-205.23
-260.37
-313.74
-363.87
-409.83
-450.91
-486.50
-515.74
-537.23
-549.22
-549.96
-538.37
-514.21
-478.67
-433.88
-382.45
-327.02
-269.84
-212.63
-156.66
-102.95
-52.37
-5.90
35.58
71.43
101.35
125.50
144.38
158.69
169.15
176.37
180.75
182.57
182.07
179.51
175.23
169.65
163.18
156.15
148.81
141.30
133.69
126.02
118.33
110.69
103.16
95.80
88.68
81.83
75.25
68.95
62.95
57.25
51.86
46.78
42.03
37.58
33.45
29.61
26.07
22.81
19.82
17.12
14.68
12.50
10.58
8.90
7.45
6.21
5.17
4.31
3.61
3.04
2.60
2.25
2.00
1.82
1.71
1.66
1.65
1.66
1.67
1.68
1.66
1.65
1.65
1.69
1.79
1.95
2.16
2.40
2.65
2.91
3.18
3.47
3.82
4.24
4.75
5.32
5.92
6.51
7.09
7.69
8.34
9.14
10.14
11.32
12.59
13.83
14.91
15.81
16.65
17.54
18.71
20.30
22.26
24.40
26.42
28.09
29.30
30.25
31.15
32.34
33.96
35.77
37.21
37.53
36.01
32.25
26.35
18.57
9.45
-0.31
-10.47
-20.92
-31.82
-43.39
-55.95
-68.93
-82.28
-94.89
-104.69
-109.29
-106.81
-96.72
-80.32
-60.59
-40.25
-21.82
-6.75
4.27
10.82
12.47
9.34
2.36
-6.30
-13.51
-16.50
-13.82
-6.18
3.90
13.20
19.16
20.49
17.80
12.67
6.86
1.93
-0.81
-0.44
3.47
10.38
18.26
23.95
24.00
16.38
2.29
-13.48
-24.21
-24.29
-12.39
7.31
26.85
38.14
36.61
23.19
3.33
-16.22
-30.53
-38.36
-41.53
-42.63
-42.95
-41.83
-37.49
-28.73
-15.97
-1.25
13.51
25.96
35.42
43.06
50.76
59.96
70.74
81.90
91.52
97.98
100.62
100.05
98.03
96.28
95.61
95.56
94.63
91.02
83.48
71.91
56.86
39.90
22.50
5.29
-12.02
-30.23
-50.01
-71.23
-91.27
-108.83
-122.54
-131.65
-136.57
-138.63
-139.47
-140.66
-143.48
-148.85
-157.10
-166.80
-174.63
-175.95
-166.39
-144.10
-111.32
-74.01
-39.77
-14.89
-1.56
2.10
0.41
-2.27
-3.35
-2.40
-0.00
3.40
7.88
14.61
24.11
35.62
47.49
57.79
65.11
69.47
72.12
74.72
78.45
82.56
84.60
81.70
72.29
57.42
40.71
26.84
19.37
19.38
24.52
30.58
33.85
32.55
27.50
21.26
16.66
15.82
20.39
31.00
47.64
69.15
92.36
111.89
121.66
116.98
95.12
61.51
25.38
-4.14
-21.53
-26.54
-23.04
-16.14
-9.57
-4.49
0.04
4.82
9.57
13.20
14.59
13.65
11.43
9.59
9.63
12.35
17.14
22.50
26.92
29.44
30.10
29.81
29.85
31.13
34.04
37.99
41.69
43.84
43.48
40.29
34.59
26.94
17.84
7.42
-4.38
-17.78
-32.68
-48.69
-64.91
-80.09
-92.19
-100.55
-104.82
-104.83
-101.63
-94.70
-83.82
-68.92
-50.19
-28.38
-4.93
18.09
38.77
55.73
67.73
74.56
76.86
75.80
72.22
66.18
57.07
44.37
27.91
8.38
-12.71
-33.30
-51.66
-66.81
-77.57
-85.76
-93.09
-101.00
-110.35
-121.56
-134.38
-147.30
-157.21
-159.95
-151.89
-131.55
-101.32
-66.99
-35.74
-13.20
-1.27
1.86
-0.04
-3.94
-8.70
-15.02
-23.64
-34.06
-43.94
-50.16
-50.51
-45.09
-36.19
-26.83
-19.33
-13.57
-7.14
3.23
20.16
44.33
74.23
106.91
138.98
166.33
185.93
194.56
189.56
170.23
138.70
99.90
59.93
23.79
-7.42
-35.38
-63.57
-93.66
-123.49
-147.54
-159.55
-156.08
-138.62
-113.21
-86.94
-65.26
-49.53
-37.29
-24.33
-7.76
12.37
33.43
51.01
63.49
71.19
76.16
80.58
85.38
89.88
92.42
91.39
86.39
78.75
70.54
63.82
59.76
58.17
57.75
56.84
54.75
51.02
46.74
43.29
41.79
42.37
44.22
45.94
46.40
45.29
43.24
41.75
42.11
44.82
49.27
54.02
57.65
59.29
59.11
58.11
57.79
59.43
63.87
71.50
81.87
93.24
102.27
104.70
96.67
77.15
48.81
17.54
-9.87
-28.64
-37.87
-40.36
-40.54
-42.07
-45.96
-51.09
-55.82
-59.62
-63.58
-69.64
-79.16
-91.21
-104.07
-114.88
-121.22
-122.28
-119.10
-114.03
-109.60
-107.91
-109.30
-113.52
-119.57
-125.93
-130.32
-129.64
-120.80
-102.07
-74.43
-41.77
-10.02
15.39
31.50
38.63
39.53
37.52
34.80
31.91
28.43
23.97
19.08
15.01
12.82
12.63
13.50
13.92
12.57
8.98
3.67
-2.14
-7.15
-10.58
-12.46
-13.53
-14.82
-17.15
-20.79
-25.32
-29.88
-33.54
-35.65
-36.05
-35.01
-33.05
-30.54
-27.71
-24.51
-20.68
-16.03
-10.52
-4.46
1.71
7.45
12.43
16.35
19.10
20.73
21.29
20.86
19.45
17.08
13.75
9.70
5.02
-0.11
-5.43
-10.59
-15.16
-18.72
-20.84
-21.13
-19.11
-14.69
-8.00
0.68
10.96
22.32
34.22
46.11
56.05
64.02
69.94
73.76
75.49
75.30
73.51
70.53
66.85
62.91
59.19
55.74
52.44
49.14
45.74
42.36
39.15
36.45
34.46
33.36
32.90
32.66
32.23
31.40
30.28
29.14
28.54
28.86
30.27
32.45
34.84
36.97
38.50
39.77
40.67
41.54
42.76
44.89
48.40
53.43
59.14
63.47
63.88
57.49
43.24
22.36
-1.96
-25.80
-45.84
-60.23
-68.71
-71.97
-71.12
-67.09
-60.97
-54.05
-47.67
-42.76
-39.54
-37.59
-36.34
-35.51
-35.18
-35.56
-36.77
-38.54
-40.36
-41.80
-42.79
-43.66
-44.75
-46.18
-47.90
-49.67
-51.17
-52.01
-51.76
-49.99
-46.56
-41.58
-35.69
-30.02
-25.63
-22.86
-21.07
-18.95
-14.06
-6.26
3.72
14.24
23.03
27.87
27.33
21.05
11.17
1.62
-2.72
2.91
21.06
50.73
87.41
124.29
154.51
172.88
177.34
168.84
150.60
126.63
100.75
76.26
55.87
41.63
34.15
32.79
35.58
39.92
43.34
44.27
42.57
39.07
37.78
40.35
46.48
54.11
60.31
62.25
58.14
47.79
32.66
15.51
-0.95
-14.70
-25.35
-34.80
-46.74
-65.30
-93.26
-130.51
-173.29
-215.23
-248.72
-267.21
-267.56
-251.46
-225.25
-198.15
-179.02
-172.99
-179.73
-193.67
-206.95
-213.16
-209.84
-198.54
-182.74
-165.26
-146.65
-125.79
-101.69
-75.48
-50.91
-32.55
-23.24
-22.09
-24.62
-24.68
-17.38
-1.25
21.21
44.81
64.41
77.36
84.47
88.80
94.50
104.86
121.21
142.35
164.98
184.94
198.67
204.55
202.57
195.70
189.50
190.15
201.49
222.72
248.26
269.91
279.91
271.72
243.48
198.63
144.31
88.27
36.28
-8.66
-45.98
-76.87
-105.98
-137.76
-174.11
-213.78
-253.96
-292.01
-326.04
-354.89
-361.93
-336.54
-280.45
-207.49
-133.58
-68.76
-16.68
22.82
51.71
72.45
85.19
90.13
88.74
84.11
79.53
77.21
77.96
81.57
87.03
91.23
91.36
86.44
77.74
67.71
58.61
51.77
47.44
44.43
40.20
31.96
17.81
-2.54
-27.95
-55.39
-80.15
-94.20
-92.29
-72.26
-36.08
10.26
58.08
98.04
124.52
134.26
127.46
107.85
81.37
54.41
32.66
19.76
15.72
18.18
23.61
28.02
29.41
26.30
17.43
2.44
-17.82
-41.03
-63.92
-81.10
-91.78
-96.81
-98.43
-99.48
-102.46
-109.01
-119.20
-130.90
-139.91
-141.14
-129.88
-104.55
-68.09
-27.37
9.26
35.37
48.88
52.19
49.85
46.38
43.91
42.11
39.56
35.40
30.18
25.52
22.83
22.28
23.00
23.50
22.33
19.02
14.12
8.82
4.39
1.58
0.24
-0.30
-0.97
-2.53
-5.21
-8.78
-12.69
-16.30
-19.10
-20.79
-21.22
-20.40
-18.53
-15.91
-12.98
-10.21
-7.82
-5.59
-2.87
1.20
7.22
15.11
23.85
31.77
37.17
39.12
38.02
35.63
34.29
35.84
40.71
47.64
54.35
58.66
59.61
57.53
53.51
48.53
43.50
39.51
37.76
39.01
42.18
43.40
36.79
17.34
-15.39
-55.05
-89.67
-106.59
-98.32
-66.32
-20.39
26.00
61.92
83.09
92.13
95.65
99.89
108.33
121.12
135.84
148.96
156.80
156.11
144.29
120.56
86.51
46.89
8.60
-21.61
-39.30
-43.68
-37.51
-25.76
-13.18
-3.53
1.22
0.42
-6.30
-19.09
-35.24
-51.34
-63.94
-66.04
-53.77
-27.69
6.97
41.78
68.92
81.37
79.59
67.02
48.47
27.25
4.09
-20.49
-48.78
-84.16
-129.64
-186.32
-252.58
-322.69
-387.45
-435.70
-457.49
-447.61
-407.21
-343.85
-269.13
-195.97
-134.19
-87.97
-54.98
-28.08
1.05
38.60
85.82
138.28
186.92
222.06
237.24
231.58
209.52
177.89
143.40
110.69
84.69
68.45
62.39
65.18
75.08
90.11
107.42
123.37
134.78
140.11
139.70
135.91
131.83
129.77
130.63
133.55
136.47
137.26
134.82
129.17
121.51
112.97
104.44
96.84
90.77
86.42
83.69
82.47
82.84
85.22
88.23
90.11
90.23
88.98
87.11
84.89
81.94
77.31
69.31
57.17
38.78
13.85
-15.69
-47.01
-77.75
-106.57
-133.03
-157.21
-184.14
-218.88
-263.46
-316.40
-374.40
-434.26
-493.80
-551.74
-578.82
-558.23
-491.93
-399.25
-303.40
-219.59
-152.67
-100.68
-59.04
-23.23
5.21
23.82
32.03
31.89
26.52
18.14
8.01
-2.09
-8.57
-9.67
-2.82
14.21
41.43
74.90
107.44
131.86
144.63
147.24
142.34
133.40
122.96
111.96
100.02
86.67
72.27
58.57
47.85
40.31
35.19
31.71
29.79
30.23
33.56
38.74
42.70
42.22
34.28
18.69
-0.99
-18.53
-27.80
-24.90
-11.06
9.30
31.08
50.51
66.12
78.02
86.57
91.63
92.72
89.66
83.53
76.37
70.23
66.65
65.88
66.96
68.39
68.71
67.06
63.74
59.91
56.87
55.57
56.26
58.38
61.01
63.32
64.49
64.51
63.89
63.21
62.75
62.36
61.42
59.13
54.57
47.09
36.44
22.80
6.66
-11.39
-30.79
-50.97
-71.27
-90.53
-108.28
-123.74
-136.13
-144.79
-149.26
-149.35
-145.87
-138.24
-126.46
-110.86
-91.80
-69.83
-45.71
-20.40
4.92
29.39
51.52
70.30
85.03
95.58
102.09
104.87
104.39
100.71
93.94
84.36
72.39
58.59
43.77
28.73
14.09
0.02
-13.79
-27.87
-42.60
-58.05
-73.84
-89.08
-102.70
-113.85
-122.06
-127.52
-130.72
-132.26
-132.91
-133.54
-134.94
-137.22
-139.45
-139.63
-135.10
-123.63
-104.38
-78.71
-49.71
-21.04
4.87
27.40
47.54
67.02
86.41
105.62
123.61
139.02
150.77
158.76
163.36
164.86
163.36
158.71
150.85
140.07
128.34
115.53
102.37
89.44
76.50
62.25
44.57
21.65
-6.99
-39.81
-73.53
-103.65
-126.41
-140.30
-146.36
-147.37
-146.58
-146.44
-147.89
-150.52
-153.00
-153.86
-152.30
-148.14
-141.17
-131.41
-119.62
-108.21
-101.32
-103.36
-117.06
-141.50
-171.51
-198.80
-215.58
-217.08
-203.31
-179.07
-151.16
-125.13
-103.29
-84.75
-66.03
-44.78
-21.15
2.57
23.89
41.83
57.04
70.74
83.79
98.55
115.46
132.86
147.90
158.41
164.35
167.34
169.61
172.96
182.25
200.07
225.42
254.56
283.61
310.56
335.28
358.55
381.00
407.78
441.64
480.57
518.48
548.52
565.79
567.77
553.68
492.52
373.14
208.95
30.76
-131.80
-262.73
-358.89
-424.00
-463.99
-484.16
-484.97
-465.11
-426.37
-373.83
-313.25
-248.49
-180.72
-108.61
-37.73
27.70
83.89
126.45
152.15
160.34
152.85
132.70
102.91
76.61
55.80
41.06
30.62
21.30
10.19
-4.44
-23.06
-54.90
-98.54
-148.55
-197.13
-239.59
-273.85
-299.43
-316.86
-327.33
-332.13
-329.80
-321.66
-307.36
-289.07
-268.08
-244.55
-218.27
-189.52
-158.81
-123.45
-82.67
-35.95
14.63
64.90
113.38
159.64
202.47
240.15
274.20
304.26
328.91
342.68
344.54
336.21
320.73
300.11
259.24
193.87
109.08
34.72
-21.86
-57.98
-77.69
-81.11
-68.90
-42.68
-1.96
52.17
117.28
175.70
214.62
227.47
216.14
187.67
150.22
112.14
77.80
48.57
21.30
-3.86
-25.70
-42.71
-54.87
-63.44
-68.93
-72.63
-75.61
-80.61
-87.41
-94.92
-101.85
-107.77
-113.32
-116.46
-119.29
-122.97
-128.91
-136.61
-145.08
-153.31
-160.56
-166.87
-172.42
-177.93
-183.53
-189.67
-196.13
-202.64
-209.05
-214.92
-220.24
-225.05
-229.56
-233.22
-235.22
-234.24
-228.42
-220.10
-209.80
-197.93
-184.90
-171.24
-157.14
-142.75
-128.29
-114.08
-100.64
-87.95
-76.18
-65.50
-55.97
-47.35
-39.21
-31.17
-22.99
-14.83
-6.57
1.58
9.47
17.14
25.05
33.85
44.15
56.18
69.53
83.63
97.53
110.45
122.20
133.29
144.81
157.92
173.36
191.05
210.32
230.03
249.15
267.22
284.58
302.29
322.01
345.62
374.69
409.58
448.39
486.49
517.22
533.66
530.95
508.01
467.91
416.70
361.22
307.22
258.35
216.08
180.41
150.55
125.43
103.99
85.41
69.38
56.15
46.21
39.75
36.23
34.46
32.94
30.36
25.89
19.05
9.51
-3.04
-18.61
-36.50
-55.03
-71.79
-84.35
-91.17
-92.21
-88.84
-83.23
-77.42
-72.55
-68.65
-64.94
-60.37
-53.99
-45.16
-33.48
-18.57
-0.23
21.69
46.89
74.49
102.94
129.92
152.43
167.16
171.54
165.06
150.34
132.77
118.80
113.08
116.17
124.06
130.05
127.99
115.24
93.67
68.15
43.96
24.13
8.45
-5.69
-21.70
-42.50
-70.15
-105.73
-149.10
-198.03
-247.29
-289.05
-314.20
-314.80
-286.58
-230.62
-153.60
-66.36
18.80
91.31
144.59
176.99
190.84
190.48
180.26
163.48
142.58
119.92
98.33
80.66
68.57
61.26
55.67
47.90
35.15
17.08
-4.57
-27.55
-50.71
-74.85
-102.40
-136.38
-178.52
-227.56
-278.58
-323.81
-355.31
-368.19
-363.33
-347.23
-329.24
-317.12
-313.48
-315.09
-315.34
-308.25
-291.69
-268.02
-242.10
-218.45
-199.13
-183.78
-170.98
-159.91
-151.22
-146.43
-147.14
-153.82
-165.31
-179.00
-191.31
-198.32
-196.29
-182.36
-155.36
-116.53
-69.70
-20.74
23.95
59.26
82.69
94.53
96.85
92.08
81.90
67.33
49.56
30.78
14.26
3.27
-0.28
3.17
11.10
20.01
27.13
31.42
33.62
35.48
38.66
43.77
50.15
56.35
60.78
62.45
61.24
57.79
53.12
48.18
43.56
39.37
35.40
31.28
26.75
21.75
16.41
10.93
5.46
-0.05
-5.78
-11.88
-18.36
-24.94
-31.15
-36.47
-40.67
-43.74
-45.89
-47.40
-48.55
-49.62
-51.08
-53.45
-56.91
-60.73
-62.93
-60.65
-51.26
-33.75
-9.55
17.78
43.91
65.34
80.31
88.73
91.19
88.08
79.49
65.78
48.33
29.60
12.31
-1.73
-12.24
-20.20
-26.74
-32.19
-35.95
-37.19
-35.86
-32.98
-30.24
-28.75
-28.40
-27.85
-25.52
-20.74
-14.34
-8.23
-4.35
-3.61
-5.47
-8.37
-10.64
-11.32
-10.38
-8.38
-5.88
-3.02
0.47
4.95
10.39
16.31
21.86
26.23
29.00
30.31
30.85
31.56
33.17
35.78
38.56
40.05
38.86
34.51
27.86
20.99
16.17
14.88
17.09
21.45
26.18
30.03
32.77
35.00
37.44
40.31
43.20
45.50
46.74
46.90
46.24
44.99
43.19
40.70
37.37
33.24
28.59
23.89
19.65
16.37
14.41
13.99
15.05
17.26
20.05
22.79
24.99
26.50
27.43
28.04
28.56
29.15
29.88
30.85
32.32
34.61
37.96
42.44
47.73
53.31
58.53
62.85
66.06
68.29
69.87
71.18
72.41
73.50
74.22
74.28
73.50
71.90
69.65
66.93
63.81
60.26
56.18
51.53
46.35
40.70
34.67
28.36
21.93
15.79
10.54
6.66
4.13
2.11
-1.08
-7.57
-19.16
-36.72
-59.74
-86.35
-113.67
-138.35
-157.20
-167.89
-169.42
-162.47
-149.15
-132.46
-115.35
-99.97
-87.22
-77.01
-68.73
-61.75
-55.74
-50.53
-45.99
-41.85
-37.76
-33.48
-29.08
-24.95
-21.63
-19.59
-18.97
-19.52
-20.68
-21.76
-22.24
-21.91
-20.86
-19.43
-18.05
-17.20
-17.32
-18.80
-21.89
-26.43
-31.74
-36.60
-39.53
-39.27
-35.25
-27.69
-17.51
-5.82
6.51
19.08
31.90
44.99
58.10
70.58
81.60
90.49
97.11
101.88
105.55
108.80
111.78
114.02
114.69
113.24
109.88
105.74
102.35
100.79
100.89
101.06
98.83
91.81
78.71
59.64
35.91
9.42
-17.89
-44.33
-68.44
-89.01
-105.25
-117.01
-124.88
-129.94
-133.30
-135.45
-136.10
-134.30
-128.94
-119.35
-105.73
-89.17
-71.41
-54.26
-39.10
-26.52
-16.29
-7.64
0.22
7.81
15.18
22.10
28.25
33.43
37.52
40.36
41.89
42.34
42.45
43.36
46.13
51.11
57.54
63.71
67.77
68.54
66.15
61.84
57.24
53.56
51.04
49.09
46.83
43.68
39.56
34.82
29.75
24.27
17.81
9.65
-0.42
-11.67
-22.45
-31.00
-36.44
-39.25
-40.88
-42.63
-44.46
-44.81
-41.38
-32.88
-20.20
-6.36
4.96
11.49
13.51
13.36
13.69
15.46
17.34
16.78
11.92
3.12
-7.07
-15.53
-20.52
-22.80
-25.08
-30.22
-39.45
-51.56
-63.49
-71.55
-72.80
-65.74
-50.33
-27.80
-0.45
28.44
54.81
74.32
83.29
79.84
64.82
41.91
16.60
-5.45
-20.24
-26.43
-25.17
-19.07
-10.62
-1.36
7.96
16.64
23.32
26.02
23.17
14.82
3.23
-7.93
-15.35
-17.75
-16.47
-14.44
-14.14
-15.97
-17.67
-15.45
-6.16
10.80
32.78
54.84
71.60
79.13
76.13
63.87
45.38
24.33
4.17
-12.28
-23.10
-27.32
-24.93
-16.89
-5.11
7.85
19.02
25.68
25.99
19.68
8.50
-4.24
-14.71
-20.14
-19.90
-15.69
-10.64
-7.73
-8.55
-12.76
-18.72
-24.61
-29.31
-32.63
-34.78
-35.72
-35.06
-32.45
-28.32
-24.13
-21.85
-22.92
-27.34
-33.69
-39.75
-43.75
-45.21
-44.90
-44.12
-43.64
-43.15
-41.32
-36.42
-27.21
-13.61
3.15
20.92
37.33
50.44
59.32
64.11
65.56
64.47
61.17
55.40
46.62
34.69
20.38
5.61
-6.69
-13.31
-11.80
-1.46
15.87
35.97
53.27
62.71
61.49
49.87
30.63
7.61
-15.78
-37.35
-56.04
-71.25
-82.51
-89.55
-92.86
-93.91
-94.72
-97.13
-101.85
-107.94
-113.11
-114.57
-110.17
-99.39
-83.65
-65.80
-49.08
-35.85
-26.79
-20.84
-16.03
-10.60
-3.75
4.20
12.23
19.41
25.33
30.25
34.76
39.33
44.13
48.97
53.56
57.65
61.07
63.71
65.27
65.24
62.95
57.90
50.21
40.91
31.77
24.66
20.58
19.00
18.01
15.37
9.83
2.02
-5.71
-10.50
-10.55
-6.05
0.96
7.78
12.44
14.52
14.93
14.96
15.38
16.06
16.34
15.65
14.14
12.60
12.01
12.96
15.27
18.06
20.18
20.75
19.58
17.14
14.31
11.91
10.36
9.57
9.06
8.25
6.74
4.42
1.56
-1.35
-3.79
-5.33
-5.74
-5.05
-3.50
-1.50
0.55
2.31
3.55
4.20
4.33
4.10
3.71
3.35
3.12
3.07
3.12
3.16
3.13
3.00
2.87
2.95
3.50
4.71
6.52
8.65
10.64
12.16
13.31
14.83
18.00
24.28
34.74
49.53
67.57
86.78
104.80
119.83
131.35
140.29
148.48
157.34
166.84
174.81
177.52
171.13
153.28
123.85
84.65
38.52
-11.31
-61.42
-108.02
-147.21
-176.05
-193.87
-203.00
-207.86
-212.54
-218.24
-222.27
-219.58
-206.17
-182.10
-152.30
-124.33
-104.46
-94.64
-91.97
-91.13
-87.97
-81.97
-76.09
-74.50
-79.49
-89.86
-101.66
-110.61
-114.68
-115.00
-114.83
-117.21
-122.91
-129.83
-134.13
-132.37
-123.41
-109.15
-93.72
-81.80
-76.68
-78.90
-85.95
-93.01
-94.43
-85.21
-62.24
-25.01
24.33
81.24
139.56
192.45
233.64
258.52
265.10
254.50
230.71
199.67
167.75
140.15
119.73
106.65
98.98
93.88
88.88
82.66
75.14
67.00
59.09
52.03
46.16
41.70
38.72
37.00
36.02
35.04
33.54
31.56
29.80
29.20
30.37
33.10
36.43
39.17
40.53
40.29
38.73
36.12
32.40
27.43
21.55
16.31
14.50
19.15
32.04
52.35
76.61
100.00
118.42
130.14
136.09
138.71
140.10
140.68
139.13
133.42
122.27
106.02
86.64
66.99
49.89
37.51
30.96
30.14
33.48
38.15
40.72
38.10
28.68
12.86
-7.14
-28.09
-46.83
-61.06
-69.78
-73.18
-72.33
-68.80
-64.30
-60.39
-58.37
-59.19
-63.35
-70.68
-80.13
-89.70
-96.64
-98.17
-92.23
-78.20
-57.22
-31.77
-4.99
20.15
41.43
57.51
67.76
72.06
70.70
64.38
54.26
41.77
28.29
14.75
1.45
-11.69
-24.85
-37.84
-50.19
-61.33
-70.98
-79.24
-86.38
-92.47
-97.10
-99.59
-99.52
-97.10
-93.25
-89.13
-85.47
-82.15
-78.41
-73.42
-66.93
-59.57
-52.50
-46.89
-43.30
-41.55
-40.87
-40.33
-39.19
-36.99
-33.52
-28.73
-22.70
-15.63
-7.91
-0.05
7.45
14.23
20.07
24.91
28.75
31.59
33.35
33.93
33.26
31.29
28.10
23.92
19.09
14.08
9.33
5.18
1.90
-0.33
-1.41
-1.34
-0.34
1.10
2.31
2.62
1.67
-0.38
-2.97
-5.39
-7.13
-8.13
-8.82
-9.77
-11.43
-13.75
-16.26
-18.14
-18.58
-17.09
-13.65
-8.77
-3.28
1.87
5.94
8.69
10.44
12.03
14.42
18.30
23.66
29.75
35.25
38.81
39.48
37.07
31.97
24.95
16.74
7.84
-1.52
-11.26
-21.36
-31.70
-42.03
-51.93
-60.72
-67.44
-70.95
-70.13
-64.33
-53.83
-40.08
-25.51
-12.92
-4.51
-1.14
-2.02
-5.16
-8.25
-9.69
-9.13
-7.38
-5.67
-4.94
-5.29
-5.93
-5.64
-3.41
0.93
6.44
11.32
13.62
12.18
7.21
0.29
-6.27
-10.53
-11.70
-10.33
-7.87
-5.79
-5.05
-5.98
-8.60
-12.86
-18.73
-25.79
-32.99
-38.68
-41.12
-39.21
-32.93
-23.44
-12.56
-2.18
6.21
11.77
14.21
13.62
10.32
4.79
-2.39
-10.45
-18.57
-25.89
-31.64
-35.42
-37.37
-38.22
-39.12
-41.30
-45.58
-52.05
-59.96
-67.98
-74.77
-79.57
-82.69
-85.59
-90.44
-99.20
-112.56
-129.08
-145.02
-155.04
-153.71
-137.44
-105.76
-61.61
-10.45
41.49
88.83
128.03
157.44
176.73
186.10
185.86
176.54
159.32
136.25
110.12
83.98
60.34
40.68
25.29
13.56
4.58
-2.34
-7.39
-10.29
-10.66
-8.41
-3.82
2.61
10.35
18.98
27.85
35.64
40.10
38.67
29.77
14.22
-4.35
-20.76
-30.52
-32.09
-27.57
-21.39
-17.71
-18.08
-20.72
-21.76
-17.58
-6.77
9.33
27.63
45.02
59.73
71.56
81.32
89.84
97.38
103.21
105.94
103.98
96.32
83.05
65.66
46.76
29.33
15.57
6.08
-0.41
-6.19
-13.28
-22.02
-30.69
-36.22
-35.76
-28.30
-15.18
0.52
15.53
27.78
36.95
44.04
50.44
57.07
64.18
71.37
77.94
83.26
87.14
89.95
92.65
96.75
103.60
113.94
127.21
141.54
154.67
165.08
172.44
177.45
181.31
184.62
187.41
189.06
188.65
185.55
179.43
169.87
155.74
135.71
108.14
72.66
30.14
-17.47
-67.53
-117.52
-165.49
-210.65
-252.49
-291.15
-322.98
-341.76
-343.47
-329.95
-307.82
-284.00
-266.82
-257.75
-257.65
-267.05
-286.09
-313.83
-344.33
-369.61
-380.92
-372.15
-341.74
-294.19
-237.41
-179.82
-127.59
-83.10
-45.78
-13.67
14.72
40.22
62.88
83.69
104.66
128.10
155.43
185.88
216.63
243.42
262.69
272.58
273.99
269.76
263.15
256.50
250.52
244.67
237.85
229.18
217.99
203.97
186.96
167.11
145.21
122.72
101.51
83.18
68.44
57.03
48.09
40.75
34.69
30.22
28.05
28.96
33.45
41.58
53.04
67.25
83.43
100.54
117.37
132.60
145.20
154.81
161.78
166.83
170.36
171.73
168.99
159.42
140.42
110.59
70.41
22.08
-31.01
-85.07
-136.43
-181.82
-218.54
-244.70
-259.63
-264.13
-260.45
-251.67
-240.75
-229.55
-218.53
-207.05
-194.40
-180.86
-168.04
-158.28
-153.22
-152.33
-152.49
-148.99
-137.63
-116.93
-89.19
-59.69
-34.63
-18.48
-12.34
-13.79
-18.34
-21.48
-20.56
-15.47
-8.09
-1.01
3.90
6.17
6.64
6.55
6.80
7.63
9.09
11.63
16.21
23.72
33.96
44.99
53.72
57.39
55.23
49.20
43.03
40.34
42.70
48.94
55.94
60.24
59.45
52.89
41.52
27.37
12.81
0.03
-9.63
-15.87
-19.19
-20.23
-18.92
-14.24
-4.70
10.48
30.36
52.01
71.37
84.54
88.80
83.20
68.60
47.57
23.93
1.90
-15.31
-26.66
-33.53
-38.53
-43.50
-48.08
-49.86
-46.21
-36.50
-23.14
-10.64
-3.08
-1.83
-5.04
-9.13
-11.11
-10.10
-7.16
-3.89
-1.11
1.55
4.93
9.35
14.10
17.92
19.82
19.77
18.55
17.12
15.94
14.66
12.45
8.57
2.90
-3.72
-9.58
-12.49
-10.46
-2.47
10.86
27.15
43.03
55.24
61.80
62.33
57.75
49.40
38.36
25.38
11.17
-3.23
-16.51
-27.49
-35.58
-40.78
-43.54
-44.37
-43.75
-42.42
-41.62
-43.11
-48.65
-59.10
-73.55
-89.28
-102.39
-109.29
-107.98
-98.80
-84.21
-67.66
-52.22
-39.59
-30.00
-22.71
-16.92
-12.32
-9.08
-7.35
-6.77
-6.35
-4.81
-1.28
4.30
11.03
17.58
22.75
26.01
27.65
28.51
29.59
31.52
34.45
37.96
41.34
43.90
45.13
44.96
43.53
41.07
37.82
34.18
30.81
28.66
28.62
30.89
34.77
38.78
41.42
42.07
41.21
39.96
39.11
38.42
36.64
32.37
25.07
15.57
5.89
-1.61
-4.92
-2.67
5.82
20.55
40.50
63.22
84.92
101.24
108.64
105.82
94.27
77.69
60.50
45.96
35.08
26.41
17.10
4.72
-11.14
-28.10
-41.75
-47.60
-43.33
-30.23
-12.95
2.37
10.57
9.43
0.04
-14.34
-30.14
-45.04
-58.50
-71.24
-84.14
-97.35
-109.85
-119.73
-124.75
-123.04
-113.46
-95.90
-71.22
-41.08
-7.56
27.19
61.24
92.86
120.50
142.47
157.12
163.13
160.13
149.03
131.88
111.26
89.63
69.03
50.93
36.30
25.32
17.15
9.79
0.73
-11.96
-28.35
-46.06
-60.99
-69.15
-68.73
-61.00
-49.58
-38.47
-30.36
-25.80
-23.85
-23.38
-24.24
-27.95
-36.60
-51.12
-70.12
-90.09
-106.65
-116.00
-116.20
-107.55
-93.11
-76.82
-61.70
-48.51
-36.20
-23.13
-8.27
8.11
24.43
37.13
43.02
41.21
34.05
25.79
20.34
19.92
24.62
32.51
38.57
37.20
24.31
-0.47
-34.65
-74.32
-115.33
-154.10
-176.91
-172.81
-140.30
-90.10
-35.95
13.09
53.98
86.86
112.67
132.18
144.27
148.02
142.90
131.66
117.47
102.39
86.94
70.53
52.10
29.39
5.42
-18.32
-39.34
-55.73
-66.69
-72.47
-74.00
-72.38
-69.35
-66.28
-64.34
-62.73
-60.63
-57.90
-54.74
-51.40
-47.92
-44.24
-39.77
-36.64
-32.13
-24.74
-14.60
-2.48
10.68
24.26
38.02
52.10
66.42
81.15
95.23
105.92
110.51
106.96
94.55
74.12
47.58
16.79
-16.72
-47.34
-73.17
-94.17
-111.45
-126.45
-140.39
-153.78
-165.82
-173.39
-171.89
-157.50
-128.41
-86.89
-39.34
5.73
41.05
63.42
74.38
78.43
79.26
78.64
76.13
70.56
61.86
51.92
43.95
40.72
43.05
48.75
54.36
56.25
52.45
43.36
31.35
20.04
13.11
13.20
20.47
32.20
42.81
45.17
32.93
3.02
-42.69
-97.18
-149.88
-190.13
-209.98
-206.37
-181.78
-142.85
-98.24
-55.89
-21.34
5.09
25.59
44.07
64.40
88.63
115.53
141.31
160.30
166.30
156.53
131.50
95.08
54.31
15.99
-13.32
-28.81
-28.92
-15.89
5.00
26.35
40.89
44.10
35.51
18.68
-0.63
-16.68
-25.54
-25.48
-17.06
-2.49
15.25
32.96
48.19
59.71
67.71
73.60
79.84
88.66
100.90
114.97
126.34
128.84
116.97
88.56
46.55
-1.54
-46.48
-80.97
-102.21
-112.29
-116.10
-118.33
-121.28
-124.80
-127.23
-127.49
-126.09
-124.79
-125.67
-130.29
-139.34
-152.75
-169.22
-185.86
-197.90
-199.87
-187.49
-159.92
-120.68
-76.79
-36.39
-5.74
12.72
20.66
22.01
20.91
20.44
21.37
24.19
29.50
37.98
50.25
66.56
86.21
108.10
131.50
157.20
187.56
225.06
270.00
318.64
363.24
393.92
402.50
386.21
349.25
301.36
253.99
216.31
188.76
169.18
153.81
139.41
124.75
110.50
97.97
87.97
80.43
76.04
73.22
69.47
61.78
46.63
20.78
-17.58
-67.39
-123.85
-176.52
-213.03
-223.44
-204.75
-163.14
-112.41
-69.15
-46.70
-50.35
-76.09
-113.20
-148.47
-170.55
-172.54
-152.69
-113.77
-61.84
-4.90
48.75
91.84
119.85
131.77
129.97
119.05
104.04
88.90
75.51
63.41
50.36
33.48
10.55
-18.94
-53.44
-89.54
-122.64
-147.94
-161.62
-161.95
-150.08
-130.36
-109.51
-94.89
-92.11
-102.95
-124.80
-151.60
-176.19
-192.84
-198.86
-194.74
-183.08
-167.15
-149.78
-133.07
-118.37
-106.45
-97.42
-90.56
-84.36
-76.98
-67.04
-54.35
-40.06
-26.25
-14.98
-7.36
-3.13
-0.96
0.94
3.95
8.72
15.21
23.19
32.72
44.25
58.29
74.75
92.39
108.67
120.21
123.88
117.77
102.02
78.83
51.75
24.53
0.12
-19.73
-34.36
-43.78
-48.28
-48.40
-45.23
-40.52
-36.50
-35.24
-37.79
-43.76
-51.37
-58.27
-62.66
-64.06
-63.41
-62.45
-62.77
-64.95
-68.33
-71.26
-71.89
-68.88
-61.80
-51.27
-38.72
-26.02
-15.04
-7.25
-3.44
-3.66
-7.33
-13.49
-21.23
-29.90
-39.30
-49.59
-60.86
-72.47
-82.59
-88.29
-86.24
-74.15
-51.87
-21.81
11.65
43.64
70.18
88.97
99.23
101.12
95.37
83.32
67.21
50.07
35.10
24.69
19.70
19.54
22.85
28.28
34.89
41.96
48.54
53.24
54.56
51.56
44.44
34.58
24.02
14.75
8.09
4.39
3.03
2.60
1.13
-3.26
-11.49
-22.63
-33.51
-39.31
-35.17
-18.16
11.33
49.48
90.44
128.29
158.86
180.49
193.64
200.07
201.84
200.80
198.24
194.82
190.40
184.20
175.30
163.34
149.13
134.67
122.53
114.63
111.09
109.63
105.99
95.20
73.55
40.11
-2.24
-47.17
-86.60
-113.08
-122.23
-113.94
-92.21
-63.46
-34.24
-9.39
8.83
20.73
28.30
34.08
40.06
46.74
52.87
55.80
52.59
41.13
21.08
-6.14
-38.27
-73.29
-110.43
-150.48
-195.32
-246.74
-304.99
-367.63
-429.02
-481.50
-517.41
-531.76
-524.01
-498.24
-461.32
-420.10
-379.27
-340.60
-304.02
-269.16
-236.54
-207.26
-182.03
-160.10
-139.30
-116.90
-90.99
-61.38
-29.51
2.25
31.81
58.26
82.11
104.86
128.34
154.20
183.68
217.60
256.09
298.22
341.55
382.24
415.90
438.95
449.93
449.92
442.03
429.93
416.37
402.32
386.96
368.43
344.74
314.47
277.21
233.89
186.94
140.30
98.99
67.83
49.76
44.37
47.27
51.13
48.21
33.40
6.50
-27.49
-60.57
-85.49
-99.21
-104.61
-109.34
-122.41
-150.14
-193.38
-247.36
-303.88
-354.59
-393.51
-417.92
-427.60
-423.36
-406.00
-376.32
-335.77
-287.00
-233.64
-179.29
-126.72
-77.57
-33.11
4.88
33.85
51.33
56.62
52.15
43.50
37.76
41.09
56.47
82.78
115.74
149.77
179.93
203.00
217.50
223.06
220.03
209.40
193.11
174.09
155.74
140.85
130.60
124.20
119.43
113.93
106.46
97.80
90.75
89.31
97.32
116.79
146.56
181.85
215.09
237.87
243.36
228.36
194.22
146.24
92.14
39.76
-4.63
-37.49
-58.06
-67.86
-69.62
-66.24
-59.99
-52.10
-42.99
-32.67
-21.00
-7.63
8.06
26.70
48.12
70.24
88.57
96.67
88.30
60.32
15.27
-38.03
-86.65
-117.94
-124.37
-106.27
-71.82
-33.87
-5.29
5.16
-5.07
-32.42
-69.05
-105.22
-131.09
-138.98
-124.60
-87.98
-33.86
28.98
89.53
137.06
163.53
166.06
146.74
111.76
69.47
28.03
-6.38
-30.48
-43.57
-49.86
-52.75
-54.73
-56.83
-58.90
-60.30
-60.52
-59.45
-57.18
-54.05
-50.11
-45.70
-41.38
-37.75
-35.23
-33.94
-33.60
-33.61
-33.43
-32.31
-30.03
-26.78
-23.06
-19.47
-16.43
-14.04
-12.07
-10.21
-7.96
-5.18
-2.06
1.06
3.76
5.67
6.61
6.74
6.37
6.01
6.07
6.88
8.73
11.68
15.71
20.68
26.41
32.57
38.77
44.47
49.24
52.65
54.31
54.14
51.86
47.53
41.38
33.76
24.88
15.15
4.99
-5.43
-16.01
-26.63
-37.26
-47.87
-57.35
-66.10
-74.17
-81.35
-87.57
-92.78
-96.89
-99.89
-101.88
-102.94
-103.45
-103.62
-103.34
-102.80
-102.07
-101.14
-99.86
-98.05
-95.59
-92.44
-89.61
-86.28
-82.33
-77.91
-73.24
-68.51
-64.01
-59.91
-56.34
-53.29
-50.46
-47.68
-44.71
-41.18
-36.81
-31.39
-24.82
-17.23
-8.81
0.28
9.78
19.56
29.64
40.26
51.03
61.65
71.73
80.84
88.60
94.78
99.36
102.65
104.99
106.54
107.40
107.38
106.20
103.71
100.12
95.99
92.08
89.01
86.86
85.38
83.81
81.34
77.27
71.20
62.81
51.95
38.83
23.50
7.19
-8.29
-21.08
-30.38
-36.81
-42.17
-48.45
-56.80
-67.14
-77.80
-86.98
-93.94
-99.32
-104.27
-109.62
-113.25
-111.73
-101.59
-80.81
-50.37
-14.09
22.69
55.11
79.94
96.93
107.34
112.03
111.38
105.02
92.68
74.95
53.59
30.72
7.86
-14.36
-36.40
-58.38
-79.10
-96.23
-107.38
-111.60
-110.14
-105.89
-102.33
-101.82
-104.55
-109.11
-113.78
-117.62
-120.44
-122.79
-124.31
-124.11
-120.92
-113.84
-102.26
-86.26
-66.86
-45.17
-22.21
1.30
24.76
47.57
68.39
86.58
101.42
112.26
118.81
121.25
120.27
116.80
111.78
106.52
101.24
96.04
90.89
85.78
80.68
75.67
70.85
66.14
61.59
57.21
53.10
49.35
46.03
43.18
40.74
38.52
36.11
33.30
29.97
26.27
22.65
19.48
17.00
15.02
13.41
11.09
7.54
2.84
-2.22
-6.14
-7.81
-6.55
-2.74
2.16
6.20
7.83
6.52
3.19
0.02
-0.99
1.44
7.00
13.79
19.29
21.82
21.24
18.38
16.99
19.56
27.26
39.46
54.16
68.60
79.74
83.92
77.26
58.37
27.07
-11.52
-48.48
-74.24
-82.62
-73.92
-54.53
-33.45
-17.67
-9.29
-4.98
1.01
12.95
30.33
48.62
61.29
62.77
51.49
31.83
11.55
-2.25
-6.04
-1.19
7.24
13.72
15.07
11.95
7.48
4.79
4.77
5.52
3.46
-4.47
-19.20
-38.97
-59.62
-77.29
-89.29
-95.23
-96.59
-96.11
-96.25
-98.30
-102.14
-106.81
-111.59
-116.05
-119.69
-120.96
-117.15
-105.22
-83.67
-54.13
-21.20
8.94
31.22
43.66
47.70
46.73
43.95
41.03
37.97
34.31
30.11
26.44
24.71
25.62
28.52
31.69
33.26
31.92
27.91
22.68
18.28
16.35
17.32
20.30
23.39
24.64
22.95
18.66
13.35
9.07
7.45
8.79
12.06
15.30
16.69
15.21
11.21
6.11
1.62
-0.87
-0.59
2.78
8.81
15.92
21.09
20.36
10.09
-11.06
-40.79
-73.51
-101.68
-119.02
-122.68
-113.68
-95.64
-72.55
-47.24
-20.63
5.74
30.54
51.68
67.10
75.86
78.72
77.80
75.38
72.61
68.95
62.82
52.30
36.57
16.51
-5.63
-27.11
-45.81
-61.32
-74.95
-88.44
-103.74
-122.03
-142.51
-164.28
-184.72
-199.69
-204.43
-196.10
-172.38
-135.19
-89.80
-42.85
-0.04
36.00
65.66
90.78
112.03
129.68
142.38
148.93
149.73
147.34
145.55
147.52
154.22
163.39
170.09
167.71
151.06
118.66
73.53
22.92
-24.00
-58.82
-76.76
-77.36
-64.25
-43.76
-22.94
-7.78
-1.87
-5.84
-18.48
-36.05
-54.81
-71.94
-85.40
-93.98
-96.43
-91.86
-80.25
-62.89
-42.09
-20.60
-0.71
15.62
28.52
38.68
46.83
53.40
58.40
61.92
63.95
64.65
64.30
63.19
61.34
58.61
55.39
51.63
48.08
45.73
45.16
46.29
48.17
49.20
48.22
44.30
37.81
30.42
24.31
21.32
22.63
28.35
37.18
45.66
50.23
46.49
31.18
4.02
-31.26
-67.22
-94.85
-106.97
-101.02
-79.55
-49.27
-18.12
7.56
24.54
32.67
33.41
28.40
18.91
6.30
-7.41
-19.54
-26.65
-26.75
-20.59
-11.35
-3.60
-0.77
-3.92
-10.86
-16.84
-16.68
-6.69
13.33
39.47
64.35
79.43
77.60
56.33
19.21
-24.55
-62.77
-84.12
-81.88
-56.49
-15.52
28.48
62.42
77.00
69.57
44.48
10.75
-21.57
-45.12
-56.34
-56.65
-49.91
-39.37
-26.56
-11.87
4.03
19.29
31.32
37.80
38.28
34.75
30.49
28.68
30.85
36.21
42.18
45.88
45.34
40.23
32.02
22.98
15.37
10.34
7.56
5.58
2.70
-2.41
-10.03
-18.42
-26.81
-33.97
-39.10
-42.08
-43.39
-43.73
-43.78
-43.84
-43.75
-43.46
-42.64
-41.10
-38.98
-36.51
-34.04
-31.92
-30.24
-28.73
-27.49
-26.25
-24.82
-23.15
-21.14
-18.74
-16.03
-13.76
-11.26
-8.63
-5.89
-3.28
-1.00
0.81
2.05
2.48
2.24
1.49
0.14
-1.73
-4.26
-7.47
-11.38
-14.86
-18.71
-23.07
-27.88
-33.18
-38.72
-44.43
-50.02
-55.05
-59.15
-62.26
-63.94
-63.89
-63.17
-60.89
-56.82
-50.58
-41.84
-30.37
-16.24
0.54
19.49
39.63
60.59
80.58
98.50
113.66
125.70
134.27
139.26
140.13
136.27
127.02
112.13
92.19
68.51
42.79
16.73
-8.18
-30.75
-51.36
-70.54
-88.38
-104.27
-117.08
-125.47
-129.99
-129.69
-125.26
-118.39
-111.03
-104.60
-100.31
-99.50
-103.30
-111.90
-123.25
-133.36
-136.07
-128.64
-110.90
-86.49
-61.46
-41.56
-29.65
-24.77
-22.64
-18.55
-9.89
4.48
23.76
46.37
71.00
96.62
120.91
141.22
154.73
156.17
142.47
114.78
78.79
42.88
14.70
-1.82
-7.73
-7.49
-6.51
-7.21
-8.47
-7.03
0.12
13.47
31.01
47.73
61.43
71.44
79.01
85.80
92.60
98.94
102.99
102.81
97.55
88.28
77.35
67.91
62.56
61.89
64.58
67.71
68.12
64.21
56.59
47.53
39.93
36.09
36.50
40.52
46.73
53.46
58.25
57.71
47.82
26.08
-5.04
-40.39
-71.02
-88.70
-90.19
-79.01
-63.54
-52.79
-52.32
-61.25
-74.72
-86.90
-94.57
-97.73
-98.42
-97.80
-95.24
-88.67
-76.40
-58.52
-37.23
-16.08
1.30
12.70
17.92
18.38
16.65
14.80
13.58
12.65
10.86
7.20
1.31
-6.21
-13.99
-19.96
-22.95
-22.74
-19.92
-15.68
-11.19
-7.26
-4.08
-1.30
2.29
7.17
13.40
20.79
29.08
37.79
46.51
55.10
60.33
63.56
65.98
68.10
72.97
79.20
84.66
87.56
86.72
81.92
74.26
64.75
54.38
38.97
20.57
1.07
-18.54
-37.66
-55.31
-69.53
-78.75
-82.04
-79.48
-71.02
-58.74
-45.23
-32.42
-20.86
-9.50
2.99
18.15
37.48
63.10
94.41
127.85
157.28
175.62
177.40
160.75
129.02
85.84
42.21
9.11
-6.72
-4.95
9.14
27.01
40.05
42.29
31.93
11.55
-15.42
-45.90
-77.38
-107.48
-129.42
-136.36
-126.18
-102.64
-71.98
-40.62
-13.36
7.33
21.57
29.14
32.24
31.99
28.38
20.81
7.65
-13.09
-42.94
-75.47
-104.80
-126.81
-140.58
-147.39
-149.31
-148.38
-146.20
-143.64
-141.08
-139.43
-138.81
-138.01
-133.59
-120.88
-96.43
-60.29
-16.55
28.12
66.29
93.09
107.03
110.15
105.91
97.60
87.63
77.88
70.38
67.03
69.48
77.46
88.41
97.30
98.14
86.23
60.84
25.80
-11.53
-43.00
-63.31
-71.54
-71.49
-69.45
-71.32
-79.82
-93.66
-108.32
-116.19
-113.13
-98.15
-74.17
-46.88
-22.38
-4.64
5.77
11.06
14.26
16.88
18.84
18.77
15.79
11.49
9.53
13.82
26.87
48.84
77.15
107.39
133.76
150.43
151.61
136.30
107.99
73.90
42.43
19.87
8.42
5.87
7.81
10.35
12.23
14.32
18.12
24.05
30.68
35.66
37.15
35.03
30.94
27.31
26.20
28.10
31.90
35.45
36.55
34.01
27.80
19.09
9.62
0.81
-6.75
-13.43
-19.94
-26.81
-34.01
-40.77
-45.80
-47.86
-46.38
-41.54
-34.58
-26.80
-19.35
-12.80
-7.15
-2.03
2.92
7.55
11.31
12.99
12.03
8.54
3.49
-1.79
-5.78
-7.44
-6.82
-4.95
-4.08
-5.87
-11.23
-19.94
-31.13
-43.94
-57.88
-73.33
-87.51
-101.63
-116.78
-133.49
-151.82
-171.38
-190.69
-206.48
-213.93
-208.22
-187.43
-153.49
-112.55
-72.96
-42.44
-24.89
-19.30
-21.40
-26.12
-30.48
-33.31
-35.07
-34.97
-31.63
-23.27
-8.74
11.63
35.99
61.47
85.47
105.01
119.92
130.94
139.15
145.22
149.15
150.40
148.23
142.48
133.83
123.85
114.02
105.42
98.40
92.61
87.30
81.77
75.73
69.53
64.02
59.77
56.83
54.73
52.73
50.22
47.06
43.68
40.92
39.63
39.96
41.38
42.84
43.41
42.67
40.87
38.74
37.11
36.50
37.13
39.22
43.02
48.34
53.82
56.87
53.51
40.82
18.52
-10.16
-39.42
-63.10
-77.24
-81.22
-77.59
-70.21
-62.47
-56.41
-52.73
-51.88
-54.85
-62.93
-76.54
-93.90
-110.62
-120.37
-118.20
-102.47
-76.27
-46.39
-20.53
-3.98
2.18
0.96
-2.99
-5.92
-6.48
-5.60
-5.02
-5.82
-7.67
-9.35
-9.70
-8.37
-6.08
-4.03
-3.42
-4.68
-7.40
-10.53
-12.94
-13.87
-13.25
-11.68
-10.07
-9.28
-9.67
-10.95
-12.23
-12.32
-10.17
-5.19
2.45
11.96
22.09
31.59
39.59
45.80
50.67
54.99
59.50
64.49
69.52
73.60
75.63
74.93
71.55
66.41
60.84
56.16
53.48
53.57
56.78
62.63
69.16
72.78
69.08
54.55
28.54
-5.59
-41.30
-71.26
-90.30
-97.17
-94.33
-86.13
-76.54
-67.72
-59.86
-52.35
-44.93
-38.09
-32.65
-28.92
-26.28
-22.34
-16.12
-7.26
3.69
15.48
26.47
35.27
41.28
44.75
46.27
47.12
48.21
50.03
52.63
55.68
58.55
60.56
61.08
59.78
56.59
51.41
44.66
37.08
29.44
22.26
15.64
9.28
2.73
-4.34
-12.46
-21.49
-30.97
-40.38
-49.68
-59.48
-71.30
-87.88
-108.11
-133.54
-165.74
-204.75
-247.58
-287.70
-316.26
-324.93
-309.26
-270.63
-216.82
-158.04
-103.45
-58.32
-23.44
3.43
25.67
46.55
69.37
97.16
133.04
178.11
229.39
279.05
316.38
331.91
321.17
286.75
236.73
181.69
130.44
87.43
52.58
22.93
-4.87
-33.78
-66.40
-105.17
-151.40
-204.18
-259.23
-308.82
-343.99
-356.96
-344.84
-310.88
-262.99
-210.05
-159.24
-114.37
-76.16
-43.95
-16.66
6.01
22.31
29.24
25.69
13.75
-2.59
-17.06
-28.38
-37.24
-44.42
-49.80
-53.33
-53.23
-47.89
-37.07
-22.20
-5.00
12.65
29.24
44.14
58.19
73.46
91.74
113.39
137.30
162.97
189.29
214.85
238.54
260.43
282.21
306.36
335.13
369.39
409.60
451.66
487.07
505.62
499.71
467.69
414.30
348.61
265.49
169.74
71.76
-16.96
-88.82
-141.39
-175.55
-193.69
-199.24
-196.46
-187.34
-174.36
-160.13
-146.68
-134.69
-123.76
-113.07
-102.06
-90.86
-78.11
-63.66
-48.61
-34.63
-23.09
-15.00
-10.81
-10.68
-14.58
-21.25
-30.09
-41.39
-55.04
-71.00
-88.73
-106.95
-123.86
-137.56
-146.25
-149.27
-147.49
-142.72
-137.14
-132.48
-129.93
-130.28
-133.68
-138.76
-142.40
-140.10
-127.30
-101.88
-65.71
-24.64
13.53
42.21
58.48
63.78
62.28
58.34
54.45
50.91
46.95
42.13
37.13
33.34
31.85
32.60
34.42
35.63
34.78
31.55
26.75
21.82
18.16
16.50
16.63
17.57
18.06
17.17
14.66
10.97
7.05
3.82
1.77
0.77
0.29
-0.39
-1.82
-4.16
-7.16
-10.35
-13.26
-15.61
-17.41
-18.89
-20.42
-22.29
-24.67
-27.55
-30.80
-34.27
-37.78
-41.18
-44.43
-47.52
-50.42
-52.98
-54.91
-55.73
-54.98
-51.97
-46.24
-37.66
-26.56
-13.70
-0.08
13.29
25.64
36.59
46.10
54.34
61.41
67.26
71.65
74.35
75.25
74.60
72.91
70.90
69.25
68.53
69.12
71.13
74.19
77.19
78.42
75.96
68.59
56.44
41.26
25.90
13.24
5.21
2.18
3.09
6.21
9.90
13.17
15.66
17.41
18.47
18.75
18.11
16.57
14.36
11.93
9.73
8.03
6.79
5.60
3.92
1.32
-2.31
-6.71
-11.42
-15.86
-19.44
-21.53
-21.72
-19.82
-16.01
-10.87
-5.33
-0.07
4.09
6.53
6.99
5.48
2.22
-2.48
-8.32
-14.97
-22.16
-29.79
-38.05
-47.45
-58.64
-72.02
-87.17
-102.57
-115.75
-124.05
-125.57
-119.96
-108.49
-93.63
-78.02
-63.59
-51.15
-40.57
-31.33
-22.93
-15.15
-7.98
-1.46
4.46
9.78
14.43
18.22
20.99
22.86
24.36
26.34
29.57
34.27
39.89
45.15
48.45
48.45
44.47
36.71
26.17
14.36
2.95
-6.55
-13.10
-16.25
-16.16
-13.51
-9.31
-4.60
-0.23
3.22
5.56
6.91
7.55
7.83
7.98
8.09
8.12
8.00
7.72
7.39
7.17
7.20
7.49
7.89
8.17
8.10
7.53
6.45
5.00
3.39
1.82
0.42
-0.80
-1.89
-2.95
-3.95
-4.84
-5.50
-5.89
-6.03
-5.96
-5.66
-5.07
-4.20
-3.16
-2.22
-1.68
-1.76
-2.47
-3.54
-4.55
-5.07
-4.84
-3.79
-2.05
0.14
2.43
4.47
5.96
6.66
6.47
5.40
3.55
1.07
-1.80
-4.76
-7.43
-9.38
-10.32
-10.21
-9.30
-8.11
-7.23
-7.08
-7.81
-9.23
-10.97
-12.67
-14.12
-15.30
-16.39
-17.68
-19.43
-21.84
-24.84
-28.12
-31.12
-33.23
-34.06
-33.65
-32.51
-31.44
-31.15
-31.80
-32.89
-33.34
-31.94
-28.02
-21.70
-13.97
-6.17
0.51
5.51
8.91
11.22
13.02
14.80
17.01
20.14
24.71
30.92
38.42
46.19
52.76
56.82
57.75
55.85
52.15
47.87
44.04
41.19
39.42
38.63
38.62
39.19
40.11
41.12
41.88
42.11
41.59
40.30
38.37
36.07
33.64
31.12
28.16
24.08
18.20
10.14
0.31
-10.13
-19.49
-26.20
-29.42
-29.31
-26.92
-23.63
-20.51
-17.92
-15.61
-13.04
-9.90
-6.28
-2.66
0.47
2.83
4.50
5.80
6.98
8.09
8.98
9.42
9.31
8.80
8.15
7.59
7.24
7.06
6.96
6.84
6.72
6.67
6.74
6.90
7.00
6.86
6.31
5.33
3.98
2.44
0.86
-0.64
-2.02
-3.26
-4.33
-5.20
-5.83
-6.16
-6.15
-5.81
-5.16
-4.26
-3.21
-2.17
-1.40
-1.19
-1.80
-3.40
-5.90
-9.02
-12.35
-15.47
-18.09
-20.13
-21.66
-22.83
-23.73
-24.40
-24.81
-24.95
-24.88
-24.69
-24.44
-24.13
-23.68
-22.97
-21.95
-20.69
-19.46
-18.62
-18.61
-19.71
-22.04
-25.36
-29.15
-32.69
-35.20
-36.13
-35.32
-33.23
-30.75
-28.98
-28.76
-30.33
-33.15
-36.15
-38.09
-37.99
-35.43
-30.50
-23.83
-16.38
-9.40
-4.14
-1.68
-2.52
-6.35
-11.96
-17.61
-21.45
-22.12
-18.95
-12.04
-2.01
10.22
23.61
37.05
49.45
59.81
67.32
71.53
72.43
70.48
66.47
61.43
56.30
51.75
48.13
45.43
43.52
42.22
41.45
41.10
41.02
40.88
40.24
38.82
36.57
33.81
31.05
28.72
26.93
25.40
23.64
21.17
17.85
13.87
9.77
6.18
3.61
2.26
2.02
2.50
3.24
3.96
4.53
5.04
5.58
6.11
6.49
6.45
5.80
4.54
2.94
1.38
0.27
-0.18
0.03
0.68
1.48
2.14
2.54
2.64
2.53
2.36
2.25
2.29
2.50
2.90
3.46
4.12
4.69
4.86
4.30
2.71
0.07
-3.30
-6.84
-9.89
-12.02
-13.14
-13.50
-13.54
-13.61
-13.82
-14.01
-13.91
-13.23
-11.97
-10.34
-8.71
-7.46
-6.86
-6.89
-7.41
-8.16
-8.90
-9.45
-9.71
-9.67
-9.38
-8.91
-8.38
-7.84
-7.27
-6.59
-5.68
-4.52
-3.23
-2.05
-1.23
-0.91
-1.11
-1.73
-2.64
-3.75
-4.89
-5.81
-6.16
-5.57
-3.87
-1.21
1.95
5.02
7.49
9.16
10.13
10.68
11.12
11.63
12.24
12.80
13.09
12.80
11.65
9.50
6.43
2.84
-0.73
-3.65
-5.48
-6.07
-5.58
-4.25
-2.30
0.23
3.38
7.19
11.47
15.81
19.62
22.32
23.61
23.52
22.42
20.87
19.40
18.28
17.49
16.77
15.79
14.42
12.79
11.23
10.13
9.66
9.66
9.58
8.56
5.57
-0.52
-10.69
-25.46
-44.47
-66.22
-88.21
-107.53
-121.73
-129.60
-131.33
-128.14
-121.58
-112.94
-103.04
-92.35
-81.28
-70.30
-59.80
-49.92
-40.46
-31.04
-21.36
-11.37
-1.27
8.60
17.90
26.36
33.74
39.91
44.86
48.88
52.50
56.40
61.16
67.08
74.08
81.72
89.31
96.10
101.45
104.99
106.80
107.39
107.57
108.19
109.74
112.09
114.52
116.01
115.73
113.50
109.87
105.85
102.44
99.98
97.97
95.13
89.94
81.24
68.69
52.73
34.13
13.43
-9.59
-36.01
-67.34
-104.85
-148.76
-197.66
-248.39
-296.32
-336.12
-362.56
-371.47
-360.60
-330.27
-283.89
-227.48
-168.50
-113.80
-67.79
-31.55
-3.37
19.58
39.47
57.02
71.96
84.30
95.18
106.71
120.73
137.42
155.00
170.55
181.71
187.93
190.57
191.81
193.12
194.32
193.61
188.56
177.45
160.19
138.57
115.61
94.41
77.17
64.52
55.76
49.65
45.39
43.06
43.30
46.49
52.10
58.71
64.80
69.77
74.22
79.39
85.84
92.43
96.11
92.96
79.79
55.18
19.57
-25.49
-78.03
-135.67
-194.91
-250.40
-295.06
-321.35
-323.58
-300.29
-255.57
-198.42
-140.20
-90.75
-55.02
-31.61
-14.14
5.34
32.33
67.29
105.60
139.76
162.36
168.55
157.02
129.71
90.62
44.96
-2.15
-46.61
-86.33
-121.67
-155.28
-191.07
-232.55
-281.12
-334.76
-387.96
-432.70
-460.65
-465.67
-445.84
-404.19
-347.70
-285.03
-223.95
-169.64
-124.24
-87.63
-58.35
-34.27
-12.65
9.75
36.31
69.44
109.31
153.14
195.45
229.50
249.72
253.80
243.62
224.45
202.67
183.26
168.20
156.54
145.97
134.76
123.02
112.54
105.60
103.54
106.01
111.09
116.13
118.65
117.08
111.08
101.45
90.02
79.12
70.91
66.69
66.41
68.75
71.68
73.23
72.12
67.96
61.06
52.01
41.55
30.46
19.58
9.77
1.58
-4.97
-10.45
-15.81
-21.82
-28.77
-36.27
-43.52
-49.64
-53.97
-56.19
-56.27
-54.39
-50.80
-45.85
-39.94
-33.52
-27.03
-20.85
-15.24
-10.30
-5.98
-2.13
1.39
4.62
7.44
9.55
10.61
10.35
8.83
6.39
3.62
1.16
-0.57
-1.43
-1.60
-1.45
-1.37
-1.61
-2.25
-3.21
-4.38
-5.57
-6.59
-7.18
-7.04
-5.94
-3.82
-0.94
2.11
4.60
5.91
5.77
4.40
2.45
0.82
0.27
1.23
3.62
6.96
10.64
14.12
17.07
19.44
21.36
23.01
24.53
25.97
27.34
28.94
31.06
33.85
37.25
40.93
44.47
47.55
50.11
52.35
55.10
58.96
64.10
70.09
76.15
81.48
85.70
88.93
91.61
95.07
100.24
107.37
116.08
125.56
134.96
143.70
151.53
158.43
165.64
174.25
184.88
197.40
210.82
223.58
234.22
242.03
239.86
223.58
191.70
145.91
90.78
32.25
-24.23
-74.89
-117.86
-152.76
-178.91
-196.26
-205.51
-208.11
-206.21
-202.18
-197.98
-194.69
-192.49
-190.04
-186.03
-179.75
-171.30
-161.50
-151.42
-141.94
-133.46
-125.98
-118.72
-110.99
-102.51
-93.50
-84.62
-76.73
-70.34
-65.43
-61.45
-57.37
-52.46
-46.62
-40.45
-34.84
-30.54
-27.72
-25.99
-24.65
-22.95
-20.53
-17.46
-14.08
-10.86
-8.15
-6.15
-4.90
-4.31
-4.14
-4.16
-4.09
-3.75
-3.11
-2.31
-1.48
-0.73
-0.03
0.78
1.74
2.85
4.12
5.55
7.28
9.56
12.58
16.27
20.24
23.81
26.37
27.31
26.47
24.04
20.48
16.29
11.84
7.22
2.50
-2.30
-6.99
-11.16
-14.38
-16.45
-17.57
-18.13
-18.40
-18.28
-17.36
-15.27
-12.09
-8.63
-6.09
-5.45
-6.92
-9.77
-12.77
-14.80
-15.37
-14.67
-13.26
-11.64
-10.08
-8.57
-7.08
-5.69
-4.49
-3.46
-2.47
-1.42
-0.20
1.02
1.86
1.99
1.24
-0.16
-1.68
-2.73
-2.93
-2.23
-0.99
0.24
0.96
0.92
0.24
-0.69
-1.45
-1.65
-1.07
0.21
1.88
3.43
4.27
3.89
2.50
0.14
-3.02
-6.72
-10.71
-14.78
-18.83
-22.83
-26.71
-30.27
-33.25
-35.20
-35.59
-34.07
-30.56
-25.33
-18.96
-12.12
-5.48
0.37
5.09
8.49
10.51
11.18
10.66
9.24
7.30
5.27
3.50
2.25
1.61
1.53
1.92
2.65
3.61
4.71
5.82
6.81
7.61
8.21
8.64
9.07
9.66
10.59
11.95
13.68
15.55
17.13
17.92
17.51
15.86
13.39
10.94
9.56
10.12
12.98
17.84
23.85
29.89
35.01
38.71
41.14
43.04
45.40
49.16
54.67
61.40
67.72
71.24
69.41
60.39
43.72
20.54
-6.71
-35.07
-61.84
-85.12
-103.91
-117.85
-126.83
-130.60
-128.75
-120.86
-106.88
-87.45
-64.04
-38.71
-13.77
8.78
27.46
41.33
49.73
52.09
47.90
36.73
18.64
-5.53
-33.90
-63.52
-90.64
-111.33
-122.26
-121.43
-108.63
-85.67
-56.32
-25.82
-0.06
15.68
18.26
7.99
-11.14
-32.45
-48.99
-55.89
-52.07
-40.09
-24.61
-10.16
0.33
5.97
7.45
6.42
5.11
5.95
11.34
22.80
40.31
61.91
84.04
102.55
114.15
117.32
112.49
101.47
86.59
69.87
52.74
36.07
20.53
6.79
-4.51
-12.99
-18.70
-22.14
-23.91
-24.29
-22.97
-19.18
-12.32
-2.58
8.82
19.84
28.32
32.66
32.43
28.39
22.02
14.92
8.53
3.91
1.85
2.67
6.36
12.57
20.69
29.79
38.78
46.47
51.98
54.78
54.50
51.22
45.74
39.71
35.26
34.41
38.54
48.16
62.71
80.01
97.04
111.01
120.36
124.83
124.96
121.64
115.81
108.38
98.97
86.93
72.32
56.55
41.77
29.64
20.75
14.50
9.51
2.38
-10.83
-33.20
-65.69
-107.42
-156.33
-209.68
-264.10
-306.66
-323.94
-309.79
-270.32
-218.74
-166.92
-121.26
-83.52
-52.56
-26.30
-4.14
13.64
26.69
35.08
38.88
38.37
33.07
22.41
7.02
-10.73
-25.51
-29.65
-16.74
14.98
61.02
111.44
154.42
180.55
181.70
155.77
108.23
48.71
-11.24
-60.01
-87.80
-88.44
-60.76
-9.17
55.45
118.32
161.76
170.81
138.77
69.20
-25.88
-130.06
-226.99
-306.07
-350.55
-350.47
-310.59
-248.89
-185.09
-131.83
-98.28
-78.53
-66.34
-55.63
-42.62
-24.69
1.36
35.92
72.15
98.86
108.31
99.30
77.61
49.74
20.26
-8.72
-36.59
-62.64
-84.91
-99.54
-104.68
-100.29
-89.84
-78.14
-69.64
-66.52
-67.95
-70.36
-68.27
-57.28
-34.77
-4.78
27.41
56.31
78.06
91.55
98.77
104.15
112.49
127.65
150.71
179.69
208.83
229.66
232.79
210.81
161.35
88.54
3.12
-79.87
-144.61
-179.51
-180.77
-153.49
-109.35
-62.23
-23.15
3.12
18.29
28.42
40.19
58.27
84.43
118.11
157.13
197.56
233.28
256.01
256.97
229.74
173.45
94.68
6.79
-73.35
-129.88
-152.09
-137.50
-92.37
-29.96
33.37
82.89
109.63
112.29
96.39
71.33
46.61
29.40
23.34
28.95
44.69
68.11
96.51
127.37
158.55
188.37
215.61
239.30
258.62
272.91
281.91
285.87
285.39
281.11
273.10
260.76
242.99
218.85
188.39
153.08
115.92
80.89
51.94
31.53
19.65
13.50
8.49
0.27
-13.27
-30.86
-48.43
-61.07
-65.23
-59.69
-45.07
-22.43
7.60
44.28
85.29
125.50
157.41
173.59
169.72
146.69
110.30
68.81
29.55
-3.56
-30.52
-54.05
-77.46
-103.04
-131.27
-161.29
-191.66
-221.36
-250.15
-278.72
-308.19
-339.50
-373.31
-409.81
-449.17
-491.39
-535.41
-577.94
-613.13
-634.18
-636.27
-619.38
-588.74
-552.62
-517.99
-487.06
-456.76
-421.36
-376.77
-323.52
-266.75
-213.24
-167.72
-130.78
-99.20
-68.57
-35.64
0.61
39.75
80.91
123.54
166.86
209.02
246.70
275.48
291.70
294.13
284.87
268.73
251.47
237.69
229.34
225.48
223.04
218.68
210.32
198.10
184.07
170.97
160.72
153.66
149.12
146.54
146.87
152.44
165.49
186.27
211.83
236.84
255.98
266.67
269.99
269.56
268.50
266.91
261.22
245.96
216.64
172.26
116.07
54.24
-6.60
-61.60
-109.02
-149.89
-186.81
-222.58
-259.61
-299.83
-344.70
-394.52
-447.23
-497.61
-537.72
-559.16
-556.20
-528.28
-480.43
-421.25
-359.57
-301.52
-249.46
-202.86
-160.35
-121.28
-85.93
-54.69
-27.05
-1.26
25.01
53.60
85.29
119.87
156.59
194.54
232.56
268.65
299.79
322.32
333.13
330.88
316.64
293.50
265.42
235.89
207.19
180.50
156.46
135.57
118.18
103.95
91.51
78.71
63.43
44.73
23.52
2.33
-15.66
-28.15
-34.83
-37.52
-39.32
-43.05
-49.81
-58.51
-66.31
-69.98
-67.32
-58.07
-43.82
-27.16
-10.44
5.14
19.64
33.77
47.77
60.53
69.53
71.70
64.89
49.08
26.87
2.66
-18.71
-33.51
-40.15
-39.19
-32.62
-22.91
-12.21
-2.02
6.80
13.75
18.49
20.73
20.34
17.51
12.92
7.65
2.99
-0.05
-1.11
-0.65
0.27
0.48
-0.74
-3.31
-6.49
-9.23
-10.65
-10.35
-8.49
-5.57
-2.10
1.60
5.40
9.24
12.95
16.15
18.33
19.09
18.38
16.63
14.58
12.98
12.30
12.55
13.38
14.29
14.88
15.07
14.92
14.64
14.45
14.48
14.81
15.42
16.18
16.80
16.92
16.09
13.99
10.55
6.02
0.90
-4.24
-8.97
-13.14
-16.85
-20.48
-24.44
-29.03
-34.30
-39.94
-45.24
-49.15
-50.49
-48.17
-41.60
-30.86
-16.71
-0.47
16.24
31.63
43.96
51.67
53.71
49.95
41.46
30.46
19.88
12.62
10.78
15.13
25.07
38.82
53.94
67.78
77.99
82.90
81.90
75.48
65.02
52.39
39.33
27.04
16.04
6.41
-1.97
-9.06
-14.55
-17.98
-18.87
-16.88
-12.03
-4.79
3.82
12.46
19.72
24.64
27.00
27.44
27.12
27.26
28.65
31.29
34.39
36.52
36.05
31.60
22.54
9.14
-7.33
-24.97
-41.64
-55.40
-64.79
-68.96
-67.74
-61.78
-52.51
-41.99
-32.36
-25.14
-20.86
-18.89
-17.90
-16.45
-13.56
-8.89
-2.79
3.93
10.11
14.43
15.75
13.59
8.46
1.78
-4.50
-8.75
-10.17
-8.99
-6.08
-2.42
1.56
5.86
10.63
15.70
20.38
23.70
24.96
24.08
21.63
18.56
15.59
12.93
10.31
7.32
3.82
0.15
-2.93
-4.63
-4.48
-2.50
0.87
4.98
9.21
13.12
16.56
19.50
22.00
23.97
25.07
24.85
22.87
18.92
13.23
6.42
-0.74
-7.61
-13.87
-19.48
-24.43
-28.55
-31.53
-33.07
-33.13
-32.06
-30.41
-28.69
-27.21
-26.13
-25.60
-25.99
-27.73
-31.06
-35.64
-40.41
-43.72
-43.92
-39.90
-31.55
-19.82
-6.41
6.85
18.48
27.79
34.74
39.65
42.73
43.85
42.62
38.73
32.37
24.36
16.03
8.73
3.44
0.59
0.12
1.77
5.21
10.14
16.13
22.53
28.46
32.90
34.92
33.90
29.63
22.34
12.63
1.38
-10.45
-21.87
-32.05
-40.29
-46.15
-49.40
-50.14
-48.79
-46.05
-42.69
-39.38
-36.39
-33.56
-30.38
-26.35
-21.19
-15.08
-8.66
-2.82
1.56
3.90
4.09
2.47
-0.23
-3.12
-5.48
-6.87
-7.25
-6.87
-6.11
-5.35
-4.91
-5.05
-5.93
-7.56
-9.72
-11.99
-13.86
-14.95
-15.20
-14.79
-14.04
-13.23
-12.47
-11.76
-11.00
-10.19
-9.30
-8.29
-6.99
-5.18
-2.76
0.22
3.55
6.95
10.25
13.47
16.73
20.21
23.92
27.67
31.16
34.00
35.83
36.35
35.36
32.83
28.95
24.11
18.90
13.88
9.42
5.62
2.28
-1.00
-4.57
-8.62
-12.99
-17.23
-20.71
-22.79
-22.94
-20.90
-16.74
-10.78
-3.56
4.33
12.38
20.14
27.16
33.07
37.52
40.36
41.73
42.08
42.04
42.16
42.78
43.89
45.33
46.85
48.25
49.28
49.44
48.06
44.40
37.96
28.72
17.20
4.29
-9.03
-21.94
-34.01
-44.97
-54.70
-62.95
-69.30
-73.26
-74.40
-72.53
-67.87
-61.03
-52.85
-44.25
-36.02
-28.74
-22.81
-18.48
-15.86
-14.88
-15.15
-16.01
-16.60
-16.08
-13.91
-10.01
-4.62
1.77
8.72
15.99
23.51
31.27
39.11
46.66
53.37
58.76
62.59
64.94
66.16
66.66
66.69
66.32
65.47
64.10
62.16
59.62
56.24
51.59
45.17
36.66
26.20
14.43
2.31
-9.16
-19.36
-28.05
-35.35
-41.39
-46.20
-49.61
-51.38
-51.36
-49.61
-46.43
-42.26
-37.62
-33.08
-29.11
-26.09
-24.15
-23.22
-22.94
-22.87
-22.54
-21.65
-20.09
-17.95
-15.43
-12.84
-10.49
-8.67
-7.63
-7.43
-7.94
-8.94
-10.13
-11.28
-12.28
-13.16
-13.92
-14.50
-14.74
-14.52
-13.84
-12.78
-11.61
-10.55
-9.72
-9.08
-8.49
-7.77
-6.71
-5.18
-3.00
-0.10
3.50
7.59
11.85
15.86
19.28
21.91
23.70
24.80
25.42
25.78
25.97
25.83
24.94
22.75
18.78
12.96
5.87
-1.34
-7.19
-10.31
-9.95
-6.16
0.24
7.84
14.99
20.26
22.65
21.82
18.07
12.18
5.18
-1.93
-8.37
-13.69
-17.76
-20.65
-22.62
-23.99
-25.14
-26.34
-27.65
-28.90
-29.68
-29.52
-28.07
-25.33
-21.69
-17.85
-14.47
-12.02
-10.59
-9.97
-9.83
-9.91
-10.07
-10.23
-10.31
-10.22
-9.89
-9.34
-8.63
-7.80
-6.78
-5.30
-3.03
0.23
4.50
9.54
14.98
20.51
25.89
30.94
35.58
39.65
43.00
45.46
46.93
47.42
47.02
46.01
44.72
43.61
43.06
43.32
44.47
46.47
49.22
52.50
56.05
59.46
62.15
63.51
63.05
60.56
56.13
50.12
42.96
35.08
26.84
18.55
10.47
2.88
-4.02
-10.11
-15.38
-19.89
-23.71
-26.88
-29.38
-31.20
-32.39
-33.09
-33.51
-33.83
-34.15
-34.41
-34.50
-34.28
-33.71
-32.84
-31.77
-30.55
-29.16
-27.54
-25.70
-23.70
-21.66
-19.72
-17.95
-16.32
-14.82
-13.45
-12.19
-11.01
-9.81
-8.50
-7.06
-5.62
-4.44
-3.91
-4.33
-5.81
-8.24
-11.30
-14.55
-17.55
-20.05
-22.01
-23.60
-25.19
-27.10
-29.52
-32.39
-35.42
-38.22
-40.49
-42.12
-43.18
-43.88
-44.45
-45.06
-45.73
-46.35
-46.62
-46.18
-44.61
-41.61
-37.11
-31.27
-24.45
-17.10
-9.58
-2.26
4.56
10.50
15.10
17.96
18.77
17.45
14.10
9.00
2.44
-5.29
-13.82
-22.65
-31.11
-38.42
-43.92
-47.24
-48.35
-47.59
-45.39
-42.15
-38.16
-33.57
-28.60
-23.62
-19.04
-15.25
-12.36
-10.22
-8.39
-6.44
-4.08
-1.34
1.54
4.20
6.40
8.05
9.20
10.00
10.54
10.88
11.06
11.11
11.12
11.20
11.47
11.94
12.56
13.18
13.68
14.00
14.17
14.30
14.51
14.88
15.38
15.94
16.41
16.67
16.62
16.19
15.29
13.84
11.78
9.18
6.21
3.11
0.15
-2.51
-4.83
-6.90
-8.80
-10.52
-11.86
-12.44
-11.83
-9.62
-5.63
0.08
7.17
15.14
23.38
31.26
38.28
44.04
48.32
51.05
52.35
52.39
51.43
49.70
47.36
44.47
40.99
36.82
31.88
26.20
19.93
13.34
6.79
0.56
-5.14
-10.29
-14.98
-19.40
-23.69
-27.86
-31.87
-35.56
-38.74
-41.27
-43.09
-44.18
-44.62
-44.64
-44.57
-44.80
-45.56
-46.79
-48.02
-48.43
-47.19
-43.73
-38.00
-30.52
-22.13
-13.77
-6.13
0.46
5.96
10.46
14.03
16.73
18.59
19.73
20.46
21.15
22.15
23.69
25.75
28.10
30.45
32.55
34.22
35.37
35.97
35.95
35.31
34.06
32.21
29.76
26.70
23.00
18.74
14.08
9.27
4.65
0.44
-3.31
-6.61
-9.52
-11.92
-13.61
-14.31
-13.82
-12.08
-9.25
-5.55
-1.24
3.47
8.38
13.25
17.76
21.59
24.57
26.74
28.34
29.73
31.19
32.75
34.24
35.39
35.99
36.04
35.74
35.36
35.17
35.28
35.76
36.68
38.07
39.85
41.74
43.25
43.83
43.13
41.11
38.07
34.47
30.67
26.83
22.89
18.74
14.36
9.92
5.57
1.39
-2.69
-6.84
-11.15
-15.56
-19.79
-23.56
-26.67
-29.11
-30.99
-32.44
-33.54
-34.28
-34.73
-35.03
-35.55
-36.72
-38.95
-42.41
-47.02
-52.53
-58.53
-64.57
-70.11
-74.62
-77.57
-78.56
-77.43
-74.30
-69.59
-63.91
-57.95
-52.36
-47.57
-43.76
-40.80
-38.33
-35.94
-33.30
-30.34
-27.23
-24.29
-21.86
-20.09
-18.93
-18.15
-17.38
-16.27
-14.48
-11.80
-8.30
-4.17
0.20
4.43
8.22
11.40
13.93
15.84
17.24
18.35
19.55
21.27
23.79
27.14
30.96
34.63
37.58
39.45
40.20
39.89
38.51
35.80
31.45
25.31
17.73
9.66
2.38
-2.83
-5.20
-4.68
-1.82
2.62
7.92
13.76
20.12
27.00
34.17
40.98
46.37
49.11
48.02
42.29
31.97
18.30
3.64
-8.96
-16.70
-17.89
-12.49
-1.87
11.71
25.94
39.05
49.97
58.43
64.89
70.55
77.08
86.13
98.38
112.67
125.83
133.64
132.64
121.75
102.97
80.32
58.08
38.79
22.69
8.36
-5.65
-19.48
-31.87
-41.07
-46.41
-49.07
-51.76
-57.36
-67.37
-81.26
-96.81
-111.24
-122.34
-129.16
-132.09
-132.44
-131.80
-131.52
-132.27
-133.84
-135.07
-134.37
-130.47
-123.19
-113.88
-105.06
-99.40
-98.65
-102.91
-110.80
-120.21
-129.14
-136.18
-140.37
-140.86
-136.70
-127.20
-112.50
-94.18
-75.15
-58.79
-47.47
-41.13
-36.59
-28.18
-9.95
21.19
62.97
107.56
144.33
164.47
164.93
149.47
126.35
104.13
88.56
81.74
83.56
93.42
110.72
134.06
160.15
184.17
201.62
210.58
212.73
212.19
213.02
216.89
222.69
227.80
230.08
228.98
225.34
220.03
212.75
201.46
183.11
155.05
116.67
70.54
22.15
-21.74
-55.42
-76.20
-84.95
-85.12
-80.75
-74.77
-68.33
-61.28
-53.31
-44.69
-36.09
-27.83
-19.12
-8.05
7.41
28.01
52.22
76.43
96.07
107.41
108.72
100.56
85.12
64.96
42.16
17.83
-7.73
-34.63
-62.84
-91.84
-120.26
-145.91
-166.19
-178.79
-182.21
-176.11
-161.10
-138.39
-109.37
-75.61
-38.98
-1.84
33.20
63.71
87.80
104.08
111.23
107.97
93.72
69.58
38.92
6.79
-21.92
-44.32
-60.37
-72.04
-81.40
-88.83
-92.69
-90.53
-80.94
-64.91
-45.83
-28.18
-15.80
-10.66
-12.62
-19.72
-29.04
-37.62
-43.24
-45.19
-44.34
-42.55
-41.63
-42.32
-44.02
-45.41
-45.51
-44.41
-43.20
-43.09
-44.46
-46.46
-47.45
-45.98
-41.67
-35.50
-29.25
-24.67
-22.58
-22.72
-23.96
-24.97
-24.82
-23.31
-20.93
-18.51
-16.91
-16.70
-17.93
-20.18
-22.71
-24.65
-25.26
-24.23
-21.71
-18.28
-14.70
-11.58
-9.13
-7.19
-5.43
-3.74
-2.32
-1.68
-2.23
-4.01
-6.47
-8.68
-9.73
-9.24
-7.58
-5.74
-4.86
-5.68
-8.10
-11.19
-13.68
-14.47
-13.12
-9.94
-5.55
-0.54
4.90
10.79
17.01
23.05
28.00
31.09
32.09
31.52
30.30
29.17
28.16
26.63
23.62
18.51
11.39
3.16
-4.98
-11.93
-17.17
-20.78
-23.29
-25.37
-27.53
-29.98
-32.56
-34.94
-36.73
-37.61
-37.35
-35.83
-32.89
-28.48
-22.71
-15.94
-8.79
-1.97
4.01
8.99
13.22
17.16
21.25
25.65
30.20
34.40
37.69
39.73
40.56
40.63
40.53
40.71
41.14
41.26
40.17
37.12
31.97
25.37
18.65
13.23
10.08
9.33
10.22
11.54
12.16
11.48
9.58
6.99
4.33
1.96
-0.20
-2.44
-5.12
-8.49
-12.72
-17.93
-24.21
-31.56
-39.80
-48.38
-56.37
-62.59
-65.84
-65.18
-60.31
-51.63
-40.37
-28.26
-17.07
-8.11
-1.85
2.22
5.11
7.77
10.60
13.34
15.44
16.64
17.20
17.82
19.04
20.83
22.44
22.98
21.97
19.83
17.64
16.44
16.58
17.45
17.88
16.85
14.14
10.24
6.07
2.37
-0.64
-3.12
-5.46
-7.93
-10.63
-13.54
-16.64
-19.85
-23.14
-26.51
-29.98
-33.61
-37.34
-40.82
-43.40
-44.30
-42.97
-39.41
-34.25
-28.43
-22.84
-17.93
-13.71
-9.96
-6.51
-3.38
-0.68
1.57
3.56
5.54
7.73
10.16
12.70
15.19
17.47
19.48
21.02
21.88
21.85
20.88
19.25
17.39
15.76
14.64
13.99
13.57
13.13
12.56
11.82
10.97
9.97
8.81
7.48
6.06
4.55
2.90
0.79
-2.18
-6.37
-11.92
-18.82
-26.87
-35.89
-45.73
-56.11
-66.47
-75.93
-83.35
-87.77
-88.91
-87.30
-84.14
-80.64
-77.48
-74.50
-70.96
-66.21
-60.40
-54.75
-51.05
-50.91
-54.82
-61.87
-70.21
-77.91
-83.81
-87.63
-89.56
-89.42
-86.12
-77.84
-62.70
-39.84
-9.96
24.75
61.60
98.46
134.69
171.16
209.47
251.17
297.17
347.87
403.27
462.72
523.92
582.11
630.09
659.83
665.23
644.75
602.46
546.64
486.66
429.77
379.39
335.55
296.57
261.05
228.59
199.42
173.49
149.75
126.42
101.81
75.23
47.37
20.29
-3.33
-21.10
-31.52
-34.36
-30.52
-21.43
-8.59
6.88
24.28
43.01
62.01
79.41
92.43
97.75
92.31
74.19
43.24
1.37
-47.94
-100.66
-153.05
-202.49
-247.64
-288.07
-323.88
-355.59
-384.33
-411.72
-439.04
-465.74
-488.28
-500.16
-493.83
-463.63
-408.36
-331.75
-240.92
-143.41
-45.05
50.41
139.85
219.19
282.99
325.96
345.30
342.44
322.81
293.88
262.50
232.95
206.74
183.27
161.46
140.78
121.52
104.36
89.81
77.74
67.40
57.75
47.88
37.49
26.78
16.30
6.53
-2.41
-10.76
-19.00
-27.52
-36.56
-46.05
-55.81
-65.70
-75.77
-86.27
-97.45
-109.27
-121.16
-132.01
-140.38
-145.09
-145.68
-142.73
-137.64
-132.15
-127.73
-125.27
-124.99
-126.83
-130.72
-136.83
-145.50
-156.97
-171.04
-186.83
-202.77
-216.86
-227.19
-232.49
-232.59
-228.33
-221.31
-213.20
-205.27
-198.20
-192.14
-186.93
-182.30
-177.86
-173.21
-167.90
-161.57
-154.16
-145.94
-137.46
-129.35
-122.19
-116.36
-112.00
-108.94
-106.73
-104.88
-102.96
-100.88
-98.89
-97.45
-96.88
-97.09
-97.57
-97.56
-96.60
-94.71
-92.52
-90.96
-90.77
-92.09
-94.29
-96.05
-95.70
-91.73
-83.16
-69.89
-52.65
-32.91
-12.46
7.00
24.15
38.19
48.83
56.19
60.70
62.93
63.61
63.52
63.32
63.41
63.87
64.53
65.14
65.61
66.05
66.69
67.66
68.79
69.62
69.52
68.01
64.83
60.01
53.68
45.92
36.73
26.19
14.63
2.58
-9.46
-21.43
-33.74
-47.22
-62.57
-79.93
-98.68
-117.54
-135.06
-149.96
-161.47
-169.24
-173.17
-173.25
-169.54
-162.33
-152.24
-140.29
-127.79
-116.12
-106.48
-99.67
-95.97
-95.11
-96.38
-99.00
-102.26
-105.81
-109.64
-114.03
-119.37
-126.07
-134.48
-144.72
-156.48
-168.65
-179.21
-185.63
-185.76
-178.95
-166.64
-152.09
-139.09
-130.34
-126.17
-124.55
-122.20
-116.34
-106.04
-92.56
-78.46
-66.37
-57.89
-53.37
-52.24
-53.83
-57.71
-63.78
-71.87
-81.36
-91.05
-99.51
-105.58
-108.77
-109.46
-108.67
-107.58
-107.04
-107.33
-108.08
-108.53
-107.92
-105.67
-101.61
-95.80
-88.43
-79.71
-69.77
-58.79
-47.03
-34.88
-22.85
-11.42
-0.91
8.59
17.16
24.90
31.87
37.98
43.15
47.39
51.03
54.63
58.92
64.42
71.23
78.87
86.49
93.24
98.57
102.58
105.81
109.17
113.54
119.70
128.20
139.21
152.16
165.36
176.12
181.39
179.20
169.69
155.39
140.43
128.78
122.71
122.16
125.39
130.21
135.19
139.95
144.69
149.48
153.80
156.60
156.85
154.10
148.65
141.51
134.23
128.29
124.81
124.21
126.17
129.96
134.91
140.77
147.74
156.12
165.79
175.89
185.03
191.88
195.81
197.04
196.44
194.86
192.65
189.44
184.47
177.09
167.18
155.27
142.18
128.50
114.11
98.30
80.27
60.00
38.80
19.05
3.49
-5.96
-9.03
-7.13
-2.85
0.94
1.89
-1.50
-9.83
-22.85
-39.52
-58.03
-75.84
-90.11
-98.15
-98.02
-88.90
-71.27
-46.74
-17.68
13.17
43.33
71.01
95.42
116.61
134.87
150.13
161.66
168.42
169.72
166.02
159.12
151.68
146.13
143.62
143.61
144.24
143.34
139.45
132.27
122.44
110.87
98.39
85.69
73.69
63.62
56.76
53.73
53.90
55.41
55.86
53.50
48.04
40.81
33.95
29.36
27.77
28.73
31.06
33.57
35.63
37.18
38.55
40.02
41.71
43.53
45.24
46.58
47.32
47.23
46.07
43.64
39.91
35.35
31.07
28.60
29.49
34.53
43.26
54.04
64.66
73.33
79.53
84.00
88.19
93.23
99.15
104.78
108.20
107.57
101.75
90.62
74.98
56.29
36.33
16.95
-0.34
-14.54
-25.47
-33.70
-40.25
-46.11
-51.86
-57.46
-62.37
-65.88
-67.53
-67.47
-66.44
-65.50
-65.54
-66.82
-68.80
-70.55
-71.28
-70.80
-69.60
-68.45
-67.79
-67.46
-66.85
-65.49
-63.56
-61.97
-61.95
-64.31
-68.98
-74.99
-80.91
-85.44
-87.75
-87.61
-85.39
-81.99
-78.75
-77.05
-77.98
-81.77
-87.68
-94.36
-100.45
-105.21
-108.60
-110.85
-111.73
-110.08
-104.08
-92.10
-73.84
-50.79
-25.73
-1.44
20.55
40.28
58.62
76.09
92.12
105.26
114.26
119.10
121.23
122.69
124.94
127.92
130.32
130.71
128.59
124.91
121.40
119.45
119.23
119.72
119.38
117.04
112.33
105.58
97.37
88.09
77.86
66.65
54.62
42.18
29.91
18.29
7.49
-2.68
-12.54
-22.20
-31.22
-38.62
-43.17
-43.83
-40.30
-33.18
-23.79
-13.81
-4.81
2.00
5.90
6.59
4.31
-0.13
-5.35
-9.49
-10.86
-8.48
-2.38
6.47
16.75
27.41
37.93
48.18
57.93
66.47
72.63
75.05
72.63
64.80
51.61
33.67
12.07
-11.56
-35.39
-57.66
-77.19
-93.75
-107.92
-120.56
-131.91
-141.01
-145.83
-144.25
-135.31
-120.26
-102.53
-86.53
-75.83
-71.52
-71.72
-72.67
-70.72
-64.15
-53.90
-42.64
-32.87
-25.28
-18.44
-10.05
1.09
13.76
24.66
30.25
28.94
22.30
14.23
8.79
8.09
11.38
15.89
18.82
18.74
15.81
10.84
4.08
-4.87
-16.07
-27.82
-36.34
-37.18
-27.91
-10.34
9.38
23.39
26.06
17.01
1.52
-12.13
-16.71
-9.20
8.36
30.73
52.21
68.78
78.67
81.68
78.22
68.90
54.75
37.50
19.69
3.97
-7.57
-13.87
-14.82
-11.02
-3.55
5.99
15.62
23.41
28.34
30.85
32.62
35.47
39.87
44.33
46.08
42.98
35.40
26.71
21.96
25.19
37.28
55.36
74.32
88.99
95.88
93.39
81.15
59.04
27.52
-11.64
-54.80
-96.83
-132.59
-158.68
-174.51
-181.91
-183.88
-183.17
-181.36
-178.82
-174.94
-168.66
-159.00
-145.38
-128.13
-108.68
-89.46
-73.13
-61.66
-55.24
-51.72
-47.11
-36.88
-17.62
11.92
50.51
94.88
140.30
181.40
212.73
229.68
229.61
212.71
182.25
143.56
102.22
62.13
24.81
-9.84
-41.97
-70.59
-93.67
-109.46
-117.82
-120.59
-120.54
-119.65
-118.12
-114.73
-107.90
-96.94
-82.44
-65.54
-47.01
-26.74
-4.25
20.34
45.62
69.08
88.06
100.90
107.48
108.96
106.96
102.69
96.74
89.29
80.61
71.40
62.65
55.26
49.73
45.97
43.43
41.39
39.29
36.99
34.78
33.20
32.71
33.44
35.06
36.95
38.41
38.96
38.54
37.47
36.35
35.82
36.36
38.07
40.67
43.58
46.18
48.14
49.51
50.66
51.99
53.67
55.63
57.82
60.51
64.46
70.66
79.82
91.99
106.41
121.94
137.49
152.47
166.84
180.74
194.28
207.31
219.59
231.06
241.89
252.41
262.83
272.93
281.97
288.80
292.00
290.15
282.04
266.89
244.62
216.01
182.70
146.92
111.17
77.52
47.25
20.43
-3.90
-27.28
-51.12
-76.09
-101.77
-126.78
-149.54
-169.04
-185.51
-200.51
-216.32
-234.99
-257.54
-283.77
-312.49
-342.07
-370.75
-396.99
-419.70
-438.50
-454.15
-468.86
-486.15
-509.56
-540.97
-578.85
-617.72
-649.13
-664.13
-656.08
-622.43
-565.36
-490.63
-405.74
-318.01
-233.49
-157.25
-93.84
-47.23
-19.57
-9.37
-10.09
-11.12
-1.20
26.71
71.73
124.60
171.33
199.75
205.03
192.21
173.76
163.69
171.16
196.61
232.34
266.41
288.03
291.72
279.08
256.96
233.58
214.47
200.08
186.00
165.46
132.81
85.94
26.28
-42.99
-119.01
-199.75
-282.90
-363.75
-434.34
-484.70
-506.29
-495.56
-455.89
-396.38
-328.30
-261.30
-200.89
-148.23
-101.64
-58.39
-16.14
26.71
71.19
118.00
167.50
219.25
271.52
321.14
363.71
394.79
411.34
412.79
401.26
380.63
354.86
326.36
295.44
260.78
220.90
175.44
125.68
74.10
23.26
-25.01
-69.99
-111.58
-149.60
-183.03
-209.57
-225.88
-228.27
-213.97
-182.55
-136.97
-83.54
-30.62
13.91
45.28
63.41
72.53
78.97
88.30
102.94
121.75
141.20
157.51
168.61
174.54
176.94
177.61
177.52
176.51
173.84
168.98
162.19
154.57
147.48
141.76
136.97
131.22
121.54
104.81
78.77
42.87
-1.39
-50.69
-100.36
-145.22
-180.29
-201.53
-206.60
-195.32
-169.87
-134.46
-94.53
-55.57
-21.95
3.95
22.10
34.45
44.06
54.01
66.32
81.18
96.94
110.64
119.10
120.25
113.95
102.11
88.06
75.19
65.82
60.61
58.95
59.94
63.06
68.33
75.25
81.90
84.45
77.93
57.90
22.01
-28.97
-91.26
-158.91
-224.88
-281.88
-323.22
-343.86
-341.82
-319.55
-284.10
-245.55
-213.70
-194.81
-189.84
-195.17
-205.36
-216.05
-225.43
-233.25
-238.84
-239.78
-232.55
-214.69
-186.99
-153.86
-120.93
-92.19
-68.14
-46.65
-25.49
-4.50
14.38
29.08
39.95
50.40
64.88
85.63
110.51
133.56
148.25
151.09
143.56
131.07
120.18
115.75
119.43
130.12
145.35
162.43
178.97
192.85
202.22
205.78
203.27
195.55
184.36
171.59
158.72
146.60
135.52
125.46
116.23
107.55
99.11
90.59
81.63
71.78
60.35
46.42
28.98
7.38
-18.18
-46.28
-74.29
-98.83
-116.62
-125.36
-124.53
-115.47
-100.95
-84.32
-68.42
-55.00
-44.49
-36.36
-29.54
-22.79
-15.09
-5.81
5.02
16.54
27.24
35.49
40.23
41.45
40.13
37.64
34.90
31.99
28.34
23.21
16.17
7.32
-3.01
-14.44
-26.66
-38.97
-49.88
-56.93
-57.18
-48.30
-29.64
-2.74
29.23
62.64
94.38
122.16
143.99
157.45
159.58
147.50
119.82
77.71
25.08
-32.14
-87.51
-135.37
-171.89
-195.45
-206.55
-207.29
-200.36
-188.09
-171.91
-152.22
-129.07
-102.99
-75.54
-49.08
-26.02
-7.83
5.54
15.40
23.54
31.30
38.90
45.46
49.51
49.67
45.50
37.93
29.10
21.63
17.65
18.10
22.66
30.08
38.67
46.68
52.48
54.48
51.35
42.03
25.99
3.43
-24.61
-56.26
-88.92
-119.77
-146.15
-166.09
-178.51
-183.20
-180.59
-171.63
-157.88
-141.63
-125.82
-113.36
-106.03
-103.55
-103.30
-101.15
-93.08
-76.72
-52.29
-22.25
9.88
40.91
68.90
93.30
114.46
132.82
148.55
161.43
171.15
177.55
180.67
180.63
177.45
171.10
161.59
149.32
135.13
120.17
105.60
92.21
80.30
69.79
60.43
52.04
44.56
37.88
31.84
26.10
20.34
14.46
8.58
3.01
-1.93
-6.14
-9.79
-13.24
-16.85
-20.88
-25.42
-30.41
-35.68
-40.84
-45.27
-48.13
-48.69
-46.52
-41.86
-35.57
-28.84
-22.76
-17.99
-14.60
-12.16
-9.87
-6.66
-1.24
7.53
20.18
36.13
53.42
69.09
80.08
84.38
81.64
73.24
61.47
48.61
36.23
25.10
15.51
7.71
2.13
-0.77
-0.85
1.53
5.48
9.87
13.63
16.15
17.40
17.94
18.69
20.50
23.79
28.19
32.49
34.92
33.67
27.42
15.69
-1.06
-21.64
-44.32
-67.14
-88.01
-104.94
-116.16
-120.43
-117.27
-107.09
-91.26
-71.79
-51.05
-31.30
-14.31
-1.07
8.31
14.52
18.77
22.30
26.11
30.56
35.39
39.93
43.41
45.40
46.05
46.05
46.39
47.90
50.87
54.88
58.98
62.12
63.55
63.05
60.96
57.86
54.40
51.15
48.45
46.32
44.26
41.05
34.82
23.70
6.52
-16.37
-42.99
-70.20
-94.81
-114.56
-128.60
-137.32
-141.70
-142.79
-141.29
-137.65
-132.30
-125.86
-119.17
-113.17
-108.68
-106.28
-106.11
-107.79
-110.27
-111.97
-110.89
-104.97
-92.58
-72.95
-46.55
-15.22
17.94
49.24
75.22
93.72
104.52
109.55
112.19
116.18
124.37
137.72
155.14
173.97
190.95
203.10
208.36
205.74
195.25
177.61
154.16
126.78
97.77
69.59
44.31
23.28
6.88
-5.29
-14.05
-20.22
-24.44
-27.24
-29.16
-30.95
-33.41
-37.22
-42.64
-49.29
-56.29
-62.53
-66.98
-69.05
-68.70
-66.42
-63.06
-59.57
-56.68
-54.67
-53.25
-51.71
-49.13
-44.70
-37.88
-28.54
-16.74
-2.69
13.48
31.69
51.98
74.31
98.46
123.84
149.49
174.19
196.73
216.28
232.55
245.78
256.22
263.54
266.43
262.71
250.01
226.76
193.00
150.44
102.05
50.89
-0.56
-50.77
-98.91
-144.34
-186.51
-225.41
-262.43
-300.46
-342.57
-389.92
-439.46
-483.56
-512.02
-515.83
-490.63
-438.32
-365.99
-283.32
-200.12
-124.92
-64.76
-25.05
-8.63
-14.30
-36.03
-64.02
-87.79
-99.90
-98.39
-86.70
-71.16
-57.92
-50.65
-49.96
-54.53
-62.44
-72.16
-82.60
-92.62
-100.78
-105.38
-104.96
-99.00
-87.93
-72.65
-53.75
-30.84
-2.51
33.23
77.83
131.00
189.80
248.51
299.51
335.07
349.75
342.37
316.80
280.95
244.09
213.77
193.66
183.15
178.81
176.58
173.53
168.32
160.68
150.50
137.23
120.13
98.83
73.96
47.27
21.15
-2.17
-21.32
-36.10
-47.41
-56.70
-65.34
-74.01
-82.52
-89.87
-94.65
-95.47
-91.33
-81.96
-67.87
-50.50
-31.97
-14.77
-1.19
7.39
11.00
11.12
10.26
10.84
14.07
19.16
23.31
22.51
13.01
-7.08
-36.88
-72.65
-108.81
-139.45
-159.99
-168.22
-164.55
-151.37
-131.88
-108.98
-84.50
-58.94
-31.87
-2.62
28.97
61.93
93.90
121.20
139.39
144.24
132.99
105.48
64.60
16.02
-33.20
-76.26
-108.30
-127.20
-133.48
-129.53
-118.60
-103.81
-87.64
-71.77
-57.25
-44.60
-33.94
-24.86
-16.47
-7.58
2.95
15.67
30.06
44.50
56.86
65.32
69.29
69.69
68.67
68.58
71.01
76.11
82.78
89.51
95.18
99.60
103.40
107.49
112.39
118.12
124.31
130.58
136.37
140.46
140.57
133.57
116.62
88.76
52.06
11.40
-27.04
-57.97
-78.65
-89.17
-91.59
-88.57
-82.37
-74.57
-66.39
-58.97
-53.20
-49.49
-47.51
-46.50
-45.75
-45.17
-45.61
-48.77
-56.83
-71.73
-94.18
-122.75
-153.43
-180.06
-195.86
-195.73
-178.11
-145.79
-104.99
-63.20
-26.78
0.60
18.29
27.82
31.60
31.93
30.46
28.25
26.07
24.66
24.72
26.79
30.95
36.68
42.88
48.28
51.85
53.21
52.72
51.15
49.27
47.41
45.35
42.64
39.00
34.68
30.41
26.97
24.81
23.69
22.79
21.11
18.03
13.55
8.34
3.36
-0.56
-2.99
-3.87
-3.37
-1.61
1.39
5.57
10.70
16.47
22.78
30.12
39.75
53.29
72.01
95.81
122.81
149.63
172.38
187.84
194.27
191.46
180.16
161.36
135.84
104.53
69.14
32.63
-1.02
-27.76
-44.85
-51.83
-50.66
-45.01
-38.86
-35.19
-35.34
-39.09
-45.31
-52.77
-60.62
-68.45
-76.08
-83.12
-88.90
-92.67
-93.97
-93.07
-91.07
-89.46
-89.52
-91.54
-94.74
-97.53
-98.24
-95.89
-90.36
-82.27
-72.44
-61.53
-49.88
-37.74
-25.53
-13.97
-3.97
3.66
8.53
10.74
10.81
9.46
7.25
4.51
1.26
-2.57
-6.84
-11.00
-14.10
-15.16
-13.64
-9.76
-4.55
0.66
4.76
7.43
9.13
10.81
13.33
17.01
21.51
25.91
29.19
30.63
30.12
28.32
26.39
25.61
26.93
30.53
35.74
41.23
45.28
46.19
42.61
33.71
19.31
-0.04
-23.01
-47.57
-71.15
-91.15
-105.46
-113.07
-114.21
-110.15
-102.65
-93.26
-83.04
-72.54
-62.25
-52.80
-45.01
-39.35
-35.29
-31.00
-23.59
-10.09
11.32
40.44
75.16
112.16
147.98
179.96
206.41
226.38
239.22
244.32
241.25
230.16
212.06
188.73
162.55
135.97
111.20
89.81
72.46
58.84
48.00
38.95
31.38
26.12
24.67
28.32
36.99
48.47
58.77
63.24
57.94
40.80
11.91
-26.80
-72.05
-119.72
-165.28
-204.43
-233.82
-251.75
-258.52
-256.07
-247.10
-233.92
-217.73
-198.89
-177.71
-155.30
-133.44
-113.52
-95.33
-76.79
-55.16
-29.15
-0.37
26.86
47.49
58.27
59.32
53.64
45.19
36.64
28.38
19.40
8.90
-2.51
-13.01
-20.60
-24.20
-24.08
-21.40
-17.34
-12.53
-7.20
-1.79
2.36
3.12
-1.52
-11.92
-25.68
-37.64
-41.56
-32.39
-8.60
26.95
67.99
107.23
138.84
160.15
171.75
176.24
176.66
175.23
172.95
169.83
165.41
159.15
150.41
138.07
120.44
95.47
61.51
18.35
-32.04
-85.55
-136.75
-180.40
-212.78
-232.40
-239.75
-236.58
-225.08
-207.43
-185.86
-162.67
-139.89
-118.76
-99.25
-80.09
-59.37
-35.51
-8.06
21.89
52.02
79.65
102.66
119.96
131.43
137.54
138.92
136.23
130.13
121.66
112.24
103.52
96.76
92.27
89.22
85.96
80.92
73.24
62.95
50.50
36.01
18.92
-1.63
-26.03
-53.41
-81.51
-107.26
-127.70
-140.76
-145.34
-141.06
-127.69
-105.14
-73.73
-34.83
8.82
53.27
94.16
127.80
152.16
167.27
174.90
177.83
178.70
179.02
178.78
176.41
169.40
155.18
131.93
99.01
57.07
8.18
-44.38
-96.17
-142.08
-177.17
-197.78
-202.58
-192.99
-172.74
-146.52
-118.59
-91.94
-68.45
-49.66
-37.17
-32.18
-34.50
-41.79
-50.05
-55.52
-56.73
-55.62
-56.62
-64.11
-79.78
-101.43
-123.94
-141.84
-151.89
-154.18
-151.32
-146.47
-141.41
-135.84
-128.03
-116.01
-98.56
-75.50
-47.26
-14.39
22.55
62.64
104.17
144.34
179.63
206.72
223.48
229.65
226.72
217.29
204.06
189.20
173.98
158.94
144.18
129.67
115.39
101.40
87.75
74.52
61.82
49.89
39.17
30.17
23.38
19.06
16.96
16.27
15.87
14.78
12.80
10.90
10.98
15.06
24.16
37.60
53.08
67.68
79.14
86.84
91.88
96.31
101.97
109.61
118.67
127.91
136.14
142.92
148.77
154.83
162.22
171.42
181.89
192.04
199.63
202.22
197.90
185.64
165.57
138.77
107.06
72.50
37.06
2.34
-30.79
-62.70
-94.90
-129.22
-166.37
-204.06
-236.25
-254.37
-250.19
-219.15
-162.18
-85.23
3.12
94.18
180.62
256.38
316.11
355.23
371.21
365.12
342.15
310.25
277.28
248.22
223.94
202.03
178.82
151.43
118.86
81.84
42.05
1.22
-39.31
-79.14
-118.50
-157.81
-196.96
-234.88
-269.66
-299.14
-322.03
-338.30
-349.12
-356.39
-362.09
-368.13
-376.33
-388.45
-405.64
-427.51
-451.22
-471.56
-482.24
-478.17
-457.50
-422.37
-377.94
-330.14
-283.69
-240.80
-201.76
-166.09
-133.72
-105.44
-82.26
-64.65
-51.90
-42.48
-34.85
-28.22
-22.87
-19.37
-17.80
-17.30
-16.11
-12.59
-5.98
3.06
13.01
22.26
30.00
36.44
42.48
48.98
56.22
63.78
70.84
76.63
80.51
82.39
82.69
82.21
81.87
82.57
85.08
90.09
97.96
108.36
120.48
133.26
145.65
156.63
165.37
171.38
174.75
176.14
175.94
174.79
173.45
172.60
172.33
171.85
169.76
164.45
154.52
137.12
110.45
74.83
32.82
-12.28
-57.91
-102.93
-147.62
-193.27
-245.17
-306.55
-375.20
-442.54
-497.03
-528.84
-532.76
-509.24
-463.53
-409.41
-358.50
-314.85
-274.67
-232.36
-186.79
-142.68
-108.03
-89.98
-99.80
-142.19
-212.27
-297.70
-385.76
-469.11
-545.58
-615.22
-626.60
-547.53
-383.32
-177.14
22.20
186.53
309.18
394.98
452.28
489.49
505.59
499.49
474.64
439.99
405.46
377.53
358.46
348.07
345.10
341.08
328.03
303.06
270.26
237.32
211.66
198.14
198.49
211.35
228.34
240.02
240.57
229.68
211.10
189.81
170.09
154.82
146.12
143.15
144.08
147.28
151.49
155.19
156.52
153.82
143.88
127.41
107.73
89.94
78.82
76.77
82.34
90.79
95.02
89.38
72.32
45.65
12.06
-26.72
-70.20
-117.63
-165.89
-209.80
-240.00
-244.65
-215.61
-154.58
-74.60
3.87
60.62
83.60
69.76
28.28
-23.07
-66.51
-92.47
-101.79
-102.10
-102.04
-106.93
-122.00
-148.51
-183.65
-223.23
-264.30
-304.82
-341.50
-369.28
-357.48
-293.18
-192.14
-87.58
-4.78
49.04
79.36
95.95
107.45
118.88
127.69
130.74
128.63
125.22
123.86
125.11
127.62
129.58
129.80
124.70
112.62
95.34
77.06
61.25
49.07
40.15
33.55
28.47
23.83
18.14
12.26
8.78
9.80
15.55
24.90
35.82
46.01
52.71
54.26
51.34
46.32
41.68
38.44
36.57
34.77
31.09
23.46
10.43
-8.16
-31.66
-57.55
-83.69
-106.31
-120.40
-121.27
-106.83
-79.35
-45.09
-12.10
12.89
26.85
31.18
29.86
26.82
24.16
21.82
18.91
15.10
11.24
8.62
8.25
9.99
12.56
14.32
13.93
11.23
7.11
3.05
0.29
-0.55
0.23
1.59
2.35
1.65
-0.61
-3.82
-7.05
-9.47
-10.69
-10.92
-10.79
-11.09
-12.39
-14.88
-18.32
-22.21
-26.01
-29.24
-31.60
-32.84
-32.81
-31.17
-27.58
-21.82
-13.86
-4.02
7.03
18.27
28.57
36.75
41.89
43.41
41.14
35.35
26.77
16.45
5.60
-4.49
-12.69
-18.14
-20.34
-19.15
-14.80
-7.83
1.10
11.11
21.29
30.75
38.73
44.61
48.13
49.35
48.68
46.82
44.71
43.21
43.05
44.59
47.61
51.46
55.20
57.89
59.07
59.25
59.77
62.15
67.16
73.78
79.34
80.42
74.23
59.91
38.90
14.51
-9.10
-28.14
-40.11
-44.19
-41.34
-33.96
-24.98
-16.82
-10.74
-6.73
-3.79
-1.11
2.01
5.87
10.17
13.81
14.78
10.37
-1.90
-22.95
-51.17
-82.54
-112.59
-138.70
-161.22
-182.39
-203.85
-224.00
-237.20
-235.69
-213.12
-168.14
-105.73
-35.84
29.76
81.11
112.66
123.96
118.70
102.72
81.90
60.71
41.93
27.10
16.76
10.79
8.19
6.82
3.77
-3.69
-16.92
-34.85
-53.87
-69.56
-78.08
-77.18
-66.58
-48.18
-25.79
-4.19
12.45
22.63
26.98
27.83
28.32
31.19
37.46
45.92
54.42
61.25
67.39
73.83
80.65
87.00
92.02
95.63
98.89
105.06
118.97
146.28
187.86
237.65
284.05
314.32
319.18
295.84
249.69
184.39
115.52
62.18
35.55
32.41
40.86
51.38
58.14
58.74
51.14
35.46
12.70
-13.99
-38.22
-51.83
-49.17
-31.77
-8.58
7.74
7.68
-12.49
-49.79
-96.10
-142.13
-181.63
-213.59
-240.68
-266.51
-292.75
-319.52
-345.77
-369.27
-386.80
-395.51
-394.53
-385.45
-371.41
-354.63
-335.27
-311.04
-278.54
-235.68
-183.87
-128.19
-75.06
-28.87
10.24
45.60
81.31
119.36
158.66
196.13
228.76
255.06
274.92
288.23
293.45
287.48
267.04
230.83
180.76
121.52
58.64
-3.80
-63.84
-120.18
-170.29
-209.11
-229.90
-226.57
-197.15
-145.82
-82.40
-18.98
35.19
76.64
107.68
133.07
155.76
174.03
182.58
176.62
156.83
131.39
112.35
108.82
121.38
141.40
155.63
153.25
130.73
92.51
47.84
5.48
-29.71
-56.50
-74.53
-82.14
-75.22
-52.54
-21.06
7.09
22.30
22.00
9.80
-8.03
-25.95
-41.11
-53.62
-64.79
-75.01
-83.51
-89.52
-93.37
-96.05
-98.91
-103.15
-109.26
-116.82
-124.21
-128.98
-129.21
-124.48
-115.29
-103.26
-90.52
-79.06
-70.18
-63.86
-59.52
-56.54
-55.09
-55.20
-56.80
-59.06
-60.12
-57.92
-51.24
-40.42
-27.01
-17.00
-12.70
-12.60
-12.00
-5.23
11.30
37.25
68.64
100.01
127.07
148.65
165.12
176.44
181.20
177.40
164.84
147.14
131.48
125.46
133.21
152.41
174.74
190.38
193.01
183.10
167.18
154.01
150.06
157.15
172.62
192.16
212.68
233.54
255.57
278.74
299.98
313.06
310.84
288.72
247.37
193.01
135.02
82.18
39.32
5.89
-22.62
-51.48
-83.48
-117.89
-151.56
-181.01
-203.94
-219.25
-226.66
-226.15
-218.35
-204.20
-185.08
-162.80
-139.02
-114.67
-89.73
-63.76
-37.65
-14.96
-0.69
0.24
-14.82
-45.09
-86.38
-132.00
-171.13
-193.09
-194.42
-179.85
-158.06
-135.19
-112.95
-90.18
-65.82
-41.94
-21.25
-8.45
-7.05
-17.73
-37.75
-61.62
-82.84
-95.59
-96.09
-81.32
-52.45
-11.50
34.00
73.61
99.10
108.59
106.15
97.64
86.82
73.16
54.66
30.41
3.05
-21.56
-37.41
-40.06
-28.30
-4.68
24.02
48.86
60.86
54.39
29.59
-7.34
-46.22
-76.98
-91.73
-89.20
-75.30
-60.44
-54.30
-61.42
-80.20
-104.91
-129.34
-149.59
-164.81
-175.37
-181.25
-181.54
-175.87
-166.31
-157.49
-154.31
-158.57
-167.36
-173.66
-169.74
-150.81
-117.31
-74.18
-28.07
15.68
54.60
88.44
117.84
143.18
164.78
183.16
199.79
217.05
237.25
260.99
286.14
307.84
320.11
318.64
302.11
273.16
237.78
203.23
175.51
157.60
149.30
148.56
153.49
161.93
171.56
180.11
185.84
188.04
187.47
186.27
186.82
190.74
195.87
196.48
185.86
159.29
116.16
60.16
-1.98
-67.96
-130.14
-179.83
-211.36
-224.42
-222.84
-211.62
-194.65
-174.09
-151.39
-127.46
-104.67
-86.59
-75.53
-72.49
-77.30
-88.38
-102.82
-117.62
-130.29
-140.66
-150.45
-161.92
-177.41
-196.32
-218.11
-241.17
-262.48
-277.43
-281.01
-269.19
-240.21
-189.54
-123.04
-55.33
-2.02
28.91
39.50
37.75
31.32
25.68
21.23
16.76
12.98
12.92
20.41
37.88
65.75
100.08
136.32
171.19
203.07
232.11
258.33
280.46
296.00
303.08
299.88
286.14
262.73
230.55
190.55
143.41
90.61
31.94
-25.53
-72.52
-101.93
-113.14
-113.62
-109.36
-103.51
-97.43
-92.44
-88.80
-90.48
-102.20
-126.60
-161.72
-200.09
-231.05
-244.09
-232.65
-190.12
-122.78
-47.95
14.57
52.96
67.41
65.92
59.21
53.32
51.22
53.60
61.44
76.17
98.74
126.73
153.81
171.24
171.13
147.87
104.19
51.55
4.68
-25.38
-35.34
-28.58
-11.81
8.38
27.44
42.79
53.43
58.34
59.27
59.35
61.65
67.14
74.57
80.59
81.06
72.04
49.77
13.97
-31.17
-74.49
-103.43
-108.09
-85.49
-41.69
9.24
48.01
60.08
41.37
-0.92
-53.92
-105.56
-149.21
-184.48
-215.35
-249.72
-292.29
-342.19
-393.48
-438.38
-469.69
-482.31
-474.01
-428.46
-344.69
-237.92
-132.26
-46.33
13.53
50.19
69.59
76.60
74.51
63.26
44.90
24.34
7.87
0.05
1.88
11.77
26.62
43.60
58.79
70.71
81.14
94.17
114.18
141.10
173.50
208.67
243.94
276.42
305.61
333.23
361.09
388.30
409.87
418.44
407.00
372.14
314.72
240.03
155.63
68.98
-13.87
-87.74
-146.95
-185.73
-200.05
-190.45
-163.31
-129.71
-101.96
-88.95
-92.62
-107.30
-122.43
-127.82
-118.55
-97.26
-72.90
-56.54
-56.46
-74.96
-107.94
-147.13
-183.43
-209.35
-219.94
-212.70
-187.24
-145.35
-91.39
-32.14
24.46
71.25
103.76
121.49
127.63
127.49
126.56
128.67
134.76
143.10
149.98
151.39
144.57
128.76
105.42
77.69
49.54
24.85
6.56
-4.27
-8.72
-9.59
-9.91
-10.99
-11.21
-6.74
6.23
28.69
57.29
85.25
104.99
111.20
102.61
81.52
52.16
19.21
-12.96
-40.24
-58.85
-66.28
-62.65
-51.17
-37.37
-26.89
-23.20
-26.60
-34.79
-44.14
-51.00
-52.28
-45.58
-29.59
-4.73
26.21
58.38
86.27
105.91
116.26
119.29
118.54
117.17
116.62
116.41
115.12
111.40
104.75
95.38
83.86
70.80
56.73
42.24
27.90
14.01
0.43
-13.43
-28.22
-43.99
-59.87
-74.36
-85.90
-93.64
-97.69
-98.74
-97.46
-94.09
-88.50
-80.73
-71.47
-62.00
-53.58
-46.71
-40.98
-35.51
-29.69
-23.76
-18.57
-14.87
-12.63
-10.92
-8.36
-3.88
2.66
10.49
18.14
23.88
26.21
24.31
18.44
9.84
0.50
-7.74
-13.83
-17.89
-20.83
-23.51
-25.98
-27.32
-26.05
-21.01
-12.03
-0.21
12.46
23.69
31.59
35.18
34.51
30.47
24.45
17.71
10.87
3.68
-4.62
-14.82
-27.12
-41.05
-55.66
-69.85
-82.62
-92.87
-99.19
-99.89
-93.45
-79.50
-59.45
-36.48
-14.76
1.91
11.20
12.41
5.77
-8.56
-30.93
-61.68
-100.02
-143.24
-186.83
-225.58
-254.91
-272.01
-275.91
-267.05
-246.85
-217.44
-181.95
-144.51
-109.94
-82.64
-65.21
-57.13
-54.55
-51.59
-42.91
-26.39
-4.27
17.99
35.14
45.59
52.60
62.32
79.66
104.66
131.85
153.20
162.67
159.71
149.13
137.99
131.51
130.58
132.34
132.44
127.70
117.47
103.70
90.23
81.57
81.52
91.75
110.99
135.04
158.43
176.62
187.59
192.02
191.74
187.83
179.60
165.38
144.21
117.27
87.84
59.70
35.26
14.78
-2.69
-17.65
-28.89
-33.97
-30.78
-19.12
-1.50
17.88
34.68
46.02
51.09
50.84
47.14
41.95
36.85
32.67
29.47
26.25
21.30
12.73
-0.77
-19.05
-40.19
-60.91
-77.67
-87.78
-90.54
-87.65
-82.71
-80.04
-82.90
-92.12
-105.42
-118.15
-124.90
-121.58
-107.15
-84.09
-57.72
-34.27
-18.78
-13.40
-16.94
-25.39
-33.55
-36.82
-32.66
-21.24
-5.11
11.71
25.07
31.99
31.55
25.11
15.64
6.55
0.55
-0.96
2.14
9.26
19.48
31.57
43.74
53.44
57.94
55.33
45.47
30.24
12.74
-4.07
-18.66
-31.21
-42.96
-54.93
-67.08
-78.09
-86.19
-90.18
-90.22
-87.92
-85.62
-85.46
-88.54
-94.78
-103.25
-112.86
-122.85
-132.87
-142.61
-151.22
-156.88
-157.07
-149.08
-130.66
-100.64
-59.25
-8.58
47.15
101.75
148.12
179.92
193.44
188.57
168.37
137.51
100.78
62.35
26.45
-2.05
-17.81
-16.64
2.20
34.68
72.68
106.77
129.48
137.54
131.85
115.89
93.66
68.41
42.53
18.12
-2.68
-17.98
-26.64
-28.87
-26.09
-20.43
-13.98
-8.29
-4.09
-1.36
0.45
2.14
4.33
7.19
10.38
13.17
14.83
15.16
14.54
13.80
13.71
14.38
14.89
13.56
8.61
-1.02
-15.01
-31.77
-49.03
-64.73
-77.76
-87.87
-95.06
-98.75
-97.46
-89.30
-73.12
-49.60
-21.50
7.05
32.14
51.51
65.18
74.78
82.20
88.18
91.91
91.67
86.17
75.67
62.13
48.40
36.74
27.67
19.81
10.58
-2.17
-18.83
-37.43
-54.52
-66.58
-71.78
-70.66
-65.67
-59.66
-54.30
-49.31
-42.79
-32.60
-17.68
1.05
20.88
38.27
50.00
54.25
51.09
42.51
31.80
22.54
17.34
16.88
19.79
23.41
25.35
24.73
22.49
20.60
20.56
22.57
25.67
28.83
31.97
36.37
43.87
55.58
70.90
87.48
102.31
113.02
118.76
120.06
118.04
113.53
106.90
98.70
90.41
84.84
85.34
94.33
111.75
134.50
157.05
173.14
177.60
167.58
142.81
105.22
58.15
5.89
-46.75
-94.98
-134.77
-163.89
-182.50
-192.89
-198.38
-201.70
-203.90
-204.24
-200.97
-192.64
-178.92
-160.77
-139.84
-117.71
-95.54
-74.30
-55.21
-40.01
-30.68
-28.48
-33.06
-42.03
-51.53
-57.43
-56.77
-48.75
-34.90
-18.42
-3.06
8.01
12.97
11.59
5.05
-4.50
-14.55
-22.89
-28.07
-29.62
-27.96
-24.07
-18.99
-13.58
-8.39
-3.75
0.10
2.94
4.70
5.55
5.83
6.03
6.51
7.45
8.81
10.45
12.16
13.75
15.04
15.91
16.35
16.60
17.02
17.94
19.36
20.85
21.70
21.22
19.18
15.92
12.26
9.10
7.08
6.36
6.73
7.82
9.26
10.74
11.93
12.45
11.83
9.67
5.76
0.30
-6.06
-12.32
-17.36
-20.23
-20.44
-18.15
-14.08
-9.30
-4.87
-1.55
0.36
1.02
0.95
0.81
1.20
2.51
4.79
7.71
10.67
13.02
14.33
14.50
13.76
12.53
11.23
10.14
9.37
8.83
8.23
7.11
4.96
1.43
-3.47
-9.22
-14.90
-19.49
-22.26
-23.07
-22.36
-20.93
-19.67
-19.24
-19.88
-21.46
-23.49
-25.25
-26.02
-25.28
-22.79
-18.77
-13.65
-7.96
-2.18
3.35
8.44
12.97
17.08
21.13
25.75
31.63
39.18
48.27
58.22
68.05
76.83
84.11
89.90
94.63
98.79
102.73
106.39
109.33
110.83
110.08
106.54
100.15
91.36
81.02
69.89
58.29
45.99
32.33
16.64
-1.36
-21.27
-42.09
-62.45
-80.86
-96.02
-107.07
-113.73
-116.34
-115.70
-112.80
-108.44
-102.98
-96.38
-88.48
-79.31
-69.36
-59.46
-50.41
-42.65
-36.07
-30.20
-24.62
-19.24
-14.29
-10.08
-6.58
-3.40
0.11
4.40
9.41
14.48
18.64
21.09
21.48
20.14
17.78
15.31
13.51
12.81
13.20
14.19
14.92
14.33
11.63
6.69
0.27
-6.17
-11.00
-13.17
-12.66
-10.53
-8.35
-7.43
-8.14
-9.87
-11.40
-11.63
-10.15
-7.35
-4.12
-1.42
0.19
0.58
-0.12
-1.67
-3.94
-6.78
-9.98
-13.24
-16.24
-18.70
-20.56
-21.92
-22.90
-23.62
-24.05
-24.02
-23.34
-21.84
-19.51
-16.56
-13.38
-10.39
-7.93
-6.09
-4.78
-3.80
-3.01
-2.37
-1.89
-1.48
-0.96
-0.13
1.08
2.44
3.52
3.87
3.27
1.94
0.45
-0.51
-0.43
0.90
3.31
6.35
9.47
12.13
13.87
14.42
13.77
12.17
10.21
8.62
8.02
8.63
10.13
11.85
13.11
13.50
13.07
12.10
10.80
9.14
6.90
3.92
0.37
-3.21
-6.09
-7.75
-8.07
-7.34
-6.02
-4.38
-2.50
-0.28
2.23
4.76
6.90
8.26
8.78
8.73
8.62
8.79
9.28
9.71
9.55
8.44
6.39
3.84
1.38
-0.54
-1.78
-2.55
-3.21
-4.05
-5.16
-6.31
-7.13
-7.26
-6.55
-5.13
-3.35
-1.61
-0.19
0.86
1.71
2.47
3.08
3.25
2.67
1.24
-0.70
-2.50
-3.46
-3.12
-1.40
1.42
4.90
8.71
12.60
16.48
20.26
23.86
27.15
29.93
32.01
33.21
33.51
33.16
32.66
32.61
33.43
35.11
37.13
38.62
38.77
37.09
33.58
28.65
22.83
16.64
10.60
5.34
1.61
0.18
1.33
4.54
8.31
10.40
8.51
0.93
-12.89
-32.06
-54.38
-76.68
-95.42
-107.39
-110.44
-104.02
-89.36
-69.13
-46.83
-25.89
-9.06
2.06
7.16
7.15
3.86
-0.45
-3.72
-4.74
-3.43
-0.63
2.46
4.92
6.54
7.67
8.81
10.21
11.72
12.95
13.56
13.55
13.28
13.31
14.10
15.80
18.22
20.91
23.36
25.28
26.64
27.63
28.50
29.34
30.09
30.70
31.36
32.65
35.34
39.94
46.29
53.41
59.82
64.29
66.52
67.38
68.66
72.16
78.83
88.28
98.90
108.75
116.43
121.80
125.88
130.37
136.81
145.99
157.75
171.04
183.96
193.65
196.46
188.98
169.79
141.41
110.85
87.92
81.28
94.24
122.47
155.23
179.69
186.28
172.09
140.99
100.55
58.17
18.26
-18.25
-52.43
-85.63
-118.64
-152.16
-187.43
-226.10
-269.36
-315.99
-361.17
-396.79
-413.88
-406.09
-372.91
-320.64
-260.63
-205.23
-163.40
-138.08
-126.45
-122.68
-121.42
-120.16
-119.21
-120.07
-123.30
-127.40
-129.21
-125.36
-113.86
-94.69
-69.28
-39.74
-8.26
22.95
51.73
76.01
94.60
108.04
118.35
128.06
138.59
149.05
156.36
156.70
147.28
127.75
100.24
68.37
35.92
5.93
-19.45
-38.57
-50.04
-53.18
-48.42
-37.65
-23.96
-10.73
-0.67
4.76
5.52
2.72
-1.95
-6.72
-10.16
-11.59
-11.10
-9.45
-7.67
-6.50
-6.11
-6.04
-5.46
-3.68
-0.69
2.78
5.49
6.21
4.26
-0.23
-6.50
-13.47
-20.18
-25.97
-30.54
-33.78
-35.68
-36.14
-35.03
-32.30
-28.04
-22.53
-16.19
-9.52
-3.00
2.94
7.93
11.67
13.93
14.61
13.75
11.58
8.59
5.44
2.79
1.04
0.21
-0.09
-0.47
-1.45
-3.18
-5.43
-7.64
-9.18
-9.58
-8.55
-6.05
-2.25
2.39
7.16
11.17
13.66
14.26
13.18
11.14
8.98
7.39
6.63
6.59
7.00
7.53
7.99
8.17
7.77
6.47
4.11
0.88
-2.57
-5.30
-6.51
-5.74
-3.07
1.17
6.66
13.25
20.85
29.05
36.91
43.01
45.92
44.80
39.84
32.17
23.40
14.93
7.57
1.50
-3.48
-7.50
-10.48
-12.16
-12.45
-11.70
-10.65
-10.24
-11.08
-13.17
-15.74
-17.70
-18.08
-16.61
-13.86
-11.00
-9.28
-9.51
-11.75
-15.29
-19.12
-22.40
-24.80
-26.66
-28.66
-31.47
-35.34
-39.96
-44.61
-48.61
-51.63
-53.72
-55.26
-56.53
-57.49
-57.76
-56.87
-54.53
-50.89
-46.45
-41.84
-37.58
-33.99
-31.18
-29.21
-28.14
-28.12
-29.17
-31.04
-33.05
-34.18
-33.28
-29.50
-22.67
-13.42
-3.00
7.05
15.45
21.42
24.87
26.18
25.90
24.54
22.40
19.69
16.61
13.55
11.04
9.54
9.26
9.96
11.06
11.91
12.05
11.45
10.42
9.39
8.66
8.27
8.03
7.69
7.10
6.26
5.28
4.31
3.49
2.92
2.64
2.66
2.95
3.50
4.32
5.44
6.89
8.59
10.35
11.88
12.94
13.44
13.55
13.56
13.78
14.37
15.29
16.36
17.36
18.15
18.64
18.84
18.78
18.51
18.16
17.87
17.75
17.82
17.96
17.95
17.61
16.96
16.24
15.88
16.24
17.52
19.70
22.63
26.08
29.84
33.63
37.11
39.89
41.64
42.14
41.45
39.80
37.51
34.96
32.55
30.71
29.95
30.67
33.01
36.61
40.63
43.80
44.79
42.42
36.00
25.49
11.55
-4.50
-20.84
-35.59
-47.09
-54.34
-57.13
-56.09
-52.35
-47.27
-42.09
-37.71
-34.61
-32.81
-32.04
-31.79
-31.54
-30.86
-29.60
-27.80
-25.71
-23.65
-21.90
-20.62
-19.88
-19.66
-19.91
-20.58
-21.65
-23.07
-24.76
-26.56
-28.26
-29.60
-30.29
-30.07
-28.76
-26.26
-22.66
-18.22
-13.34
-8.51
-4.09
-0.25
3.10
6.25
9.52
13.07
16.79
20.36
23.37
25.54
26.83
27.47
27.85
28.41
29.55
31.53
34.45
38.14
42.16
45.83
48.39
49.26
48.15
45.17
40.63
34.99
28.66
22.04
15.56
9.65
4.61
0.47
-3.00
-6.20
-9.47
-12.89
-16.33
-19.54
-22.33
-24.56
-26.20
-27.19
-27.52
-27.25
-26.51
-25.50
-24.37
-23.16
-21.82
-20.31
-18.68
-16.98
-15.15
-12.88
-9.66
-5.09
0.87
7.71
14.56
20.66
25.70
30.02
34.31
39.23
44.97
51.19
57.16
62.23
66.11
68.89
70.92
72.43
73.44
73.65
72.74
70.36
66.24
60.17
51.94
41.45
28.87
14.75
0.01
-14.39
-27.88
-40.55
-53.13
-66.58
-81.29
-96.44
-109.81
-118.26
-118.70
-109.15
-89.64
-62.51
-32.07
-3.77
16.84
25.01
17.60
-6.48
-45.74
-95.81
-149.53
-197.95
-232.15
-245.72
-236.73
-208.45
-168.33
-125.47
-87.84
-60.11
-43.11
-34.79
-31.88
-31.43
-31.54
-31.32
-30.49
-29.05
-27.17
-25.25
-24.02
-24.23
-26.30
-29.81
-33.26
-34.44
-31.05
-21.44
-5.18
16.92
43.17
71.50
99.96
126.90
150.83
170.33
184.05
191.09
191.49
186.66
179.17
171.98
167.32
165.68
165.58
164.09
158.06
145.54
126.76
104.18
81.65
63.05
50.83
45.32
44.91
47.00
49.25
50.54
51.17
52.42
55.77
62.35
72.71
86.92
104.46
123.84
142.24
155.44
158.64
147.94
121.60
80.81
29.48
-26.95
-83.06
-134.83
-180.33
-219.59
-253.61
-283.42
-309.36
-331.06
-347.84
-359.05
-364.05
-361.84
-350.74
-328.43
-292.74
-242.81
-180.35
-110.21
-39.73
22.91
70.78
99.96
110.48
106.07
92.92
77.79
66.06
60.62
61.55
66.82
73.64
79.51
82.74
82.55
78.83
71.84
62.37
51.62
41.17
32.76
27.92
27.38
30.86
37.12
44.37
50.81
55.09
56.63
55.59
52.62
48.59
44.19
39.84
35.57
31.23
26.71
22.08
17.65
13.83
10.86
8.75
7.32
6.27
5.35
4.47
3.65
3.01
2.64
2.57
2.73
3.00
3.26
3.38
3.33
3.15
2.99
3.04
3.42
4.11
4.93
5.59
5.83
5.62
5.18
5.00
5.68
7.66
11.04
15.50
20.46
25.25
29.38
32.68
35.24
37.31
39.12
40.75
42.10
42.98
43.12
42.29
40.34
37.24
33.13
28.25
22.98
17.73
12.81
8.32
4.12
-0.17
-5.05
-10.98
-18.16
-26.37
-35.06
-43.43
-50.75
-56.59
-60.82
-63.59
-65.08
-65.43
-64.63
-62.61
-59.32
-54.80
-49.22
-42.79
-35.72
-28.22
-20.50
-12.71
-4.97
2.68
10.24
17.71
25.02
31.98
38.33
43.78
48.11
51.23
53.17
54.09
54.24
53.96
53.64
53.76
54.71
56.62
59.30
62.14
64.28
64.92
63.51
59.98
54.64
48.04
40.72
33.08
25.40
17.86
10.61
3.76
-2.66
-8.82
-14.97
-21.32
-27.87
-34.31
-40.15
-44.91
-48.33
-50.51
-51.85
-52.78
-53.55
-54.11
-54.16
-53.28
-51.14
-47.65
-42.99
-37.61
-32.12
-27.16
-23.29
-20.81
-19.73
-19.69
-20.04
-20.04
-19.06
-16.86
-13.60
-9.84
-6.27
-3.47
-1.65
-0.70
-0.23
0.11
0.49
0.93
1.36
1.73
2.13
2.64
3.18
3.60
3.57
2.82
1.27
-1.02
-3.85
-7.06
-10.59
-14.48
-18.70
-23.08
-27.31
-31.04
-33.98
-36.07
-37.45
-38.41
-39.16
-39.66
-39.57
-38.39
-35.62
-31.01
-24.63
-16.82
-7.99
1.46
11.19
20.89
30.16
38.48
45.25
49.93
52.05
51.30
47.54
40.86
31.66
20.77
9.17
-2.12
-12.34
-21.09
-28.11
-33.08
-35.48
-34.82
-30.97
-24.63
-17.25
-10.58
-5.92
-3.59
-2.85
-2.36
-0.91
1.96
5.94
10.21
14.09
17.32
20.17
23.06
26.23
29.62
32.94
35.96
38.67
41.30
44.16
47.42
51.03
54.75
58.32
61.47
63.98
65.57
65.82
64.26
60.49
54.37
46.11
36.18
25.24
14.01
3.19
-6.61
-14.85
-21.14
-25.33
-27.52
-28.07
-27.53
-26.53
-25.60
-25.15
-25.46
-26.65
-28.78
-31.75
-35.18
-38.49
-40.87
-41.58
-40.29
-37.25
-33.29
-29.53
-26.85
-25.49
-24.98
-24.37
-22.79
-19.85
-15.86
-11.60
-7.97
-5.64
-4.95
-6.05
-9.10
-14.35
-22.09
-32.38
-44.80
-58.33
-71.50
-82.72
-90.71
-94.80
-94.96
-91.72
-85.90
-78.42
-70.24
-62.34
-55.68
-51.11
-49.15
-49.79
-52.37
-55.75
-58.61
-59.77
-58.43
-54.09
-46.52
-35.78
-22.33
-7.34
7.44
19.95
28.57
32.76
33.27
31.75
29.98
28.98
28.67
28.07
26.04
21.98
16.22
9.78
3.83
-0.80
-3.92
-5.75
-6.66
-6.87
-6.34
-4.83
-2.11
1.88
6.93
12.65
18.55
24.19
29.23
33.47
36.85
39.30
40.85
41.57
41.60
41.15
40.49
39.83
39.30
38.91
38.63
38.40
38.21
38.02
37.72
37.10
35.98
34.27
32.04
29.53
26.95
24.42
21.82
18.90
15.48
11.66
7.83
4.50
2.05
0.57
-0.20
-0.63
-1.02
-1.48
-1.92
-2.26
-2.51
-2.84
-3.47
-4.63
-6.39
-8.75
-11.57
-14.65
-17.65
-20.05
-21.29
-20.92
-18.82
-15.35
-11.26
-7.46
-4.66
-3.13
-2.56
-2.30
-1.59
0.09
2.89
6.57
10.68
14.70
18.19
20.92
22.74
23.68
23.84
23.43
22.75
22.11
21.74
21.74
22.01
22.21
21.99
21.11
19.54
17.54
15.51
13.81
12.57
11.65
10.78
9.78
8.70
7.77
7.32
7.37
7.63
7.41
6.04
3.04
-1.51
-7.01
-12.50
-16.93
-19.43
-19.52
-17.15
-12.70
-6.90
-0.74
4.79
8.90
11.23
11.94
11.52
10.68
10.02
9.93
10.58
11.99
14.05
16.50
18.87
20.54
20.89
19.56
16.67
12.85
9.07
6.26
5.02
5.46
7.17
9.44
11.45
12.49
12.12
10.21
6.96
2.84
-1.52
-5.43
-8.22
-9.33
-8.46
-5.62
-1.25
3.78
8.37
11.42
12.18
10.38
6.26
0.50
-6.01
-12.32
-17.62
-21.32
-23.17
-23.25
-21.96
-19.78
-17.21
-14.59
-12.13
-9.96
-8.20
-7.00
-6.48
-6.67
-7.47
-8.54
-9.47
-9.83
-9.30
-7.77
-5.42
-2.62
0.10
2.33
3.87
4.79
5.41
6.10
7.11
8.49
10.01
11.24
11.67
10.94
8.94
5.92
2.32
-1.30
-4.52
-7.10
-9.01
-10.41
-11.53
-12.59
-13.77
-15.20
-16.93
-18.82
-20.61
-21.96
-22.61
-22.54
-22.10
-21.83
-22.23
-23.45
-25.13
-26.45
-26.45
-24.42
-20.12
-13.89
-6.44
1.42
8.97
15.67
21.24
25.57
28.70
30.71
31.78
32.07
31.65
30.57
28.83
26.47
23.65
20.70
18.09
16.32
15.79
16.73
19.07
22.51
26.57
30.67
34.25
36.86
38.09
37.69
35.50
31.45
25.68
18.46
10.30
1.87
-5.99
-12.45
-16.75
-18.47
-17.58
-14.47
-9.85
-4.63
0.30
4.12
6.29
6.59
5.22
2.75
-0.00
-2.24
-3.40
-3.34
-2.36
-1.01
0.12
0.69
0.70
0.44
0.32
0.61
1.38
2.46
3.60
4.58
5.32
5.89
6.36
6.73
6.89
6.71
6.12
5.29
4.53
4.15
4.30
4.89
5.57
5.88
5.49
4.23
2.11
-0.78
-4.37
-8.58
-13.25
-18.00
-22.29
-25.49
-27.25
-27.63
-27.28
-27.24
-28.59
-31.96
-37.31
-43.97
-51.03
-57.85
-64.32
-70.97
-78.50
-87.30
-97.12
-106.87
-114.73
-118.35
-115.14
-102.64
-79.37
-45.54
-3.73
41.37
84.01
118.93
142.96
155.67
159.04
156.19
150.07
142.53
134.21
124.95
114.34
102.00
87.66
70.99
51.73
29.72
5.31
-20.37
-45.37
-67.19
-83.42
-92.57
-94.61
-91.01
-83.96
-75.51
-66.70
-57.47
-47.24
-35.72
-23.65
-12.80
-5.20
-2.32
-4.36
-10.33
-18.66
-27.93
-37.33
-46.60
-55.57
-63.78
-70.40
-74.41
-75.00
-71.80
-65.03
-55.49
-44.55
-34.04
-25.78
-21.16
-20.45
-22.58
-25.34
-26.16
-23.13
-15.70
-4.67
8.27
21.21
32.62
41.52
47.47
50.46
50.78
49.10
46.31
43.38
41.05
39.63
38.94
38.39
37.27
35.00
31.28
26.20
20.23
14.08
8.56
4.36
1.81
0.78
0.90
1.71
2.92
4.42
6.10
7.72
8.83
8.96
7.89
5.88
3.64
2.13
2.17
4.18
8.06
13.14
18.34
22.31
23.68
21.39
15.09
5.35
-6.38
-18.07
-27.70
-33.66
-35.11
-32.06
-25.35
-16.32
-6.49
2.84
10.84
17.13
21.79
25.14
27.59
29.52
31.25
32.85
34.19
34.90
34.53
32.72
29.50
25.32
20.94
17.13
14.27
12.16
10.24
7.95
5.21
2.57
0.97
1.19
3.30
6.47
9.30
10.59
9.88
7.76
5.43
4.00
3.92
4.82
5.83
6.27
6.04
5.73
6.33
8.69
13.08
19.02
25.48
31.23
35.37
37.66
38.58
39.15
40.42
43.07
47.04
51.57
55.47
57.60
57.24
54.21
48.87
41.97
34.45
27.24
21.10
16.38
12.85
9.82
6.36
2.00
-2.86
-6.74
-7.54
-3.34
6.58
21.31
38.57
55.57
70.26
81.95
91.36
99.92
108.89
118.75
129.28
140.13
151.33
163.46
177.31
193.10
210.07
226.47
240.10
249.20
252.88
251.24
244.92
234.52
220.33
202.46
181.19
157.45
132.79
108.91
86.81
66.20
45.53
22.84
-3.12
-32.14
-62.53
-92.13
-119.63
-145.24
-170.65
-198.14
-229.43
-265.17
-305.31
-349.80
-398.87
-452.30
-507.86
-560.10
-600.75
-620.88
-614.36
-580.42
-524.15
-454.50
-380.68
-308.90
-241.08
-175.88
-111.33
-47.41
12.97
64.87
103.44
126.12
133.76
130.06
120.04
108.16
96.88
86.69
77.09
67.88
59.98
55.09
54.54
58.00
63.27
66.98
66.15
59.55
48.34
35.57
24.94
19.35
20.08
26.55
36.79
48.29
58.63
65.99
69.35
68.43
63.67
56.13
47.38
39.24
33.43
31.08
32.39
36.56
42.12
47.45
51.39
53.50
53.96
53.25
51.70
49.33
45.81
40.79
34.15
26.23
17.80
9.86
3.34
-1.23
-3.86
-5.09
-5.80
-6.90
-9.12
-12.92
-18.40
-25.32
-33.00
-40.35
-45.94
-48.34
-46.49
-40.11
-29.84
-17.12
-3.78
8.40
18.08
24.54
27.68
28.01
26.43
24.17
22.47
22.27
23.92
27.06
30.66
33.43
34.32
33.02
30.19
27.30
26.11
27.85
32.64
39.25
45.61
49.62
50.01
46.76
41.05
34.61
29.17
26.12
26.33
29.97
36.01
42.06
44.57
40.06
26.96
6.97
-14.75
-31.30
-36.67
-28.39
-8.40
17.94
44.35
66.15
81.50
90.79
94.96
93.99
86.51
71.08
48.08
20.49
-6.44
-27.08
-37.36
-35.54
-21.32
5.67
46.50
101.85
169.58
242.93
311.08
362.42
389.15
390.43
372.42
344.93
316.93
293.17
273.72
255.88
237.02
216.56
195.99
177.36
161.65
147.78
133.22
115.35
93.01
67.25
41.21
18.67
2.65
-5.98
-8.75
-8.99
-10.80
-18.13
-34.12
-60.59
-97.26
-140.71
-183.99
-217.46
-231.61
-220.64
-185.41
-134.01
-79.31
-34.42
-8.32
-3.44
-16.16
-39.58
-66.73
-92.75
-115.43
-134.22
-149.19
-160.27
-167.23
-170.18
-170.13
-169.16
-169.86
-174.60
-184.68
-200.23
-220.77
-246.25
-277.55
-315.67
-360.00
-406.47
-447.21
-472.16
-472.60
-444.39
-389.42
-314.50
-228.29
-138.21
-48.87
37.29
118.33
191.24
252.09
297.33
325.54
338.22
339.05
332.24
320.97
306.95
290.75
272.97
255.06
239.33
228.10
222.55
221.98
223.85
224.43
219.90
207.57
186.35
156.77
120.56
79.86
36.60
-7.77
-52.13
-95.43
-136.33
-173.29
-204.96
-230.48
-249.75
-263.22
-271.64
-275.81
-276.64
-275.29
-273.40
-273.13
-277.06
-287.99
-308.56
-340.27
-382.28
-430.44
-477.40
-514.29
-533.54
-531.60
-510.22
-475.50
-435.22
-395.80
-360.59
-329.87
-302.19
-276.07
-250.74
-225.93
-201.25
-175.74
-148.13
-117.54
-84.10
-48.96
-13.87
19.70
51.49
82.84
116.39
154.79
198.83
245.93
289.96
322.89
337.76
331.40
305.58
266.11
220.48
175.21
134.55
100.41
73.28
53.00
38.98
29.90
23.53
17.25
8.93
-2.22
-15.59
-29.77
-43.45
-55.69
-65.89
-73.17
-76.11
-73.01
-62.61
-44.94
-21.95
2.83
25.25
41.87
51.21
54.05
52.72
49.92
47.38
45.45
43.44
40.68
37.41
34.95
35.12
39.08
46.53
55.59
63.60
68.37
69.11
66.62
62.71
59.09
56.52
54.45
51.50
46.31
38.36
28.24
17.32
7.06
-1.76
-9.12
-15.58
-21.61
-27.20
-31.80
-34.62
-35.06
-33.07
-29.11
-23.88
-17.98
-11.74
-5.21
1.65
8.75
15.84
22.55
28.57
33.76
38.21
42.15
45.72
48.80
51.04
51.95
51.32
49.31
46.59
44.04
42.46
42.19
42.99
44.11
44.50
43.12
39.23
32.63
23.75
13.67
3.84
-4.23
-9.52
-11.73
-11.40
-9.50
-7.06
-4.68
-2.37
0.32
3.90
8.73
14.80
21.87
29.62
37.65
45.51
52.54
57.92
60.86
60.96
58.46
54.24
49.50
45.25
41.89
39.21
36.81
34.55
32.83
32.31
33.43
35.88
38.54
39.91
38.85
35.10
29.38
22.99
17.17
12.57
9.20
6.57
4.10
1.36
-1.81
-5.36
-9.00
-12.30
-14.79
-16.14
-16.31
-15.65
-14.75
-14.14
-14.04
-14.20
-14.06
-13.03
-10.80
-7.50
-3.55
0.48
4.21
7.47
10.39
13.15
15.97
18.92
22.03
25.29
28.69
32.17
35.62
38.74
41.20
42.64
42.92
42.21
40.90
39.48
38.32
37.55
37.00
36.34
35.21
33.36
30.70
27.27
23.18
18.66
13.95
9.34
5.20
1.86
-0.48
-1.85
-2.56
-3.18
-4.38
-6.77
-10.72
-16.29
-23.16
-30.78
-38.33
-44.95
-49.81
-52.30
-52.28
-50.09
-46.51
-42.57
-39.20
-36.98
-36.05
-36.11
-36.63
-37.04
-36.93
-36.05
-34.37
-32.04
-29.31
-26.48
-23.78
-21.32
-19.00
-16.62
-13.94
-10.85
-7.41
-3.77
-0.05
3.77
7.86
12.37
17.27
22.25
26.80
30.44
32.89
34.19
34.60
34.44
33.95
33.20
32.17
30.81
29.09
26.92
24.18
20.70
16.53
12.02
7.91
5.10
4.37
6.01
9.77
15.01
20.85
26.55
31.61
35.78
39.02
41.34
42.83
43.59
43.79
43.66
43.42
43.22
43.10
42.95
42.64
42.08
41.34
40.65
40.27
40.39
40.90
41.53
41.90
41.72
40.91
39.64
38.15
36.68
35.25
33.73
31.81
29.27
25.99
22.07
17.74
13.23
8.74
4.42
0.35
-3.30
-6.37
-8.77
-10.67
-12.44
-14.60
-17.44
-20.88
-24.42
-27.25
-28.68
-28.32
-26.21
-22.79
-18.69
-14.47
-10.52
-7.00
-3.85
-0.94
1.83
4.45
6.77
8.60
9.84
10.50
10.77
10.90
11.09
11.41
11.76
12.05
12.22
12.30
12.33
12.29
12.10
11.61
10.82
9.85
8.99
8.52
8.57
9.01
9.54
9.86
9.82
9.55
9.31
9.39
9.89
10.70
11.48
11.83
11.45
10.17
7.98
4.93
1.16
-3.11
-7.58
-11.79
-15.25
-17.47
-18.19
-17.44
-15.58
-13.09
-10.49
-8.13
-6.15
-4.53
-3.20
-2.06
-1.11
-0.44
-0.20
-0.54
-1.47
-2.83
-4.24
-5.26
-5.46
-4.68
-3.06
-0.96
1.25
3.34
5.24
6.96
8.47
9.63
10.24
10.04
8.92
6.84
3.87
0.08
-4.40
-9.36
-14.45
-19.20
-23.03
-25.43
-25.99
-24.54
-21.13
-16.06
-9.81
-3.03
3.58
9.28
13.45
15.60
15.51
13.27
9.36
4.59
-0.00
-3.34
-4.56
-3.25
0.37
5.45
10.75
15.01
17.42
17.98
17.45
17.12
18.27
21.79
27.77
35.68
44.57
53.48
61.73
69.02
75.32
80.67
84.91
87.68
88.49
86.98
83.12
77.34
70.52
63.69
57.91
53.93
52.11
52.46
54.50
57.35
59.75
60.07
56.58
47.92
33.55
14.12
-8.45
-31.51
-52.41
-69.19
-81.03
-88.00
-90.54
-88.82
-82.65
-71.71
-56.28
-37.78
-18.82
-2.71
7.56
10.18
5.00
-6.51
-21.86
-38.38
-53.87
-66.99
-77.40
-85.51
-92.18
-98.44
-105.07
-112.44
-120.34
-128.04
-134.55
-138.95
-140.73
-139.91
-136.99
-132.60
-127.15
-120.61
-112.52
-102.32
-89.68
-74.80
-58.43
-41.68
-25.64
-11.13
1.45
12.09
20.98
28.54
35.31
41.96
49.17
57.45
66.86
76.85
86.32
93.82
97.96
97.76
92.84
83.50
70.59
55.33
39.20
23.77
10.50
0.41
-6.04
-9.11
-9.60
-8.57
-6.89
-5.03
-2.98
-0.48
2.73
6.82
11.69
17.16
22.87
28.33
32.91
35.99
37.12
36.16
33.37
29.33
24.85
20.76
17.70
15.90
14.97
13.84
10.95
4.72
-5.90
-20.92
-39.30
-59.25
-78.73
-95.90
-109.27
-117.86
-121.17
-119.41
-113.50
-104.98
-95.61
-86.83
-79.33
-73.03
-67.31
-61.57
-55.49
-49.10
-42.61
-36.12
-29.54
-22.74
-15.64
-8.33
-1.10
5.79
12.06
17.42
21.48
23.71
23.59
20.79
15.41
7.93
-0.83
-10.02
-18.90
-26.89
-33.57
-38.63
-41.89
-43.40
-43.53
-42.88
-42.12
-41.74
-41.87
-42.24
-42.37
-41.72
-39.95
-36.96
-32.88
-27.89
-22.11
-15.47
-7.79
1.10
11.23
22.43
34.29
46.33
58.04
69.03
79.04
87.92
95.57
101.90
106.77
110.05
111.61
111.44
109.60
106.33
101.92
96.72
91.06
85.16
79.09
72.78
66.00
58.52
50.25
41.37
32.39
24.06
17.02
11.58
7.47
4.00
0.25
-4.57
-10.88
-18.78
-28.16
-38.87
-50.68
-63.17
-75.64
-87.07
-96.41
-102.91
-106.25
-106.66
-104.65
-100.73
-95.18
-88.04
-79.28
-69.07
-57.83
-46.31
-35.39
-25.87
-18.22
-12.60
-8.76
-6.22
-4.28
-2.17
0.81
5.18
11.03
18.04
25.53
32.68
38.87
43.84
47.69
50.64
52.87
54.32
54.84
54.36
53.12
51.66
50.61
50.38
50.94
51.81
52.37
52.15
51.08
49.41
47.48
45.40
43.02
40.07
36.43
32.33
28.36
25.25
23.54
23.38
24.54
26.51
28.69
30.50
31.54
31.69
31.15
30.44
30.12
30.63
31.98
33.84
35.70
37.24
38.45
39.55
40.82
42.32
43.81
44.86
45.14
44.41
42.60
39.53
34.95
28.53
20.20
10.33
-0.26
-10.36
-18.82
-24.84
-28.25
-29.43
-29.18
-28.41
-27.83
-27.84
-28.49
-29.57
-30.81
-31.98
-33.01
-33.98
-35.04
-36.36
-38.07
-40.27
-42.88
-45.67
-48.16
-49.69
-49.64
-47.77
-44.32
-40.12
-36.20
-33.36
-31.79
-30.92
-29.72
-27.13
-22.55
-16.02
-8.18
0.17
8.33
15.93
22.93
29.44
35.58
41.40
46.96
52.30
57.53
62.80
68.14
73.40
78.20
82.03
84.39
85.00
83.81
81.00
76.84
71.51
65.10
57.51
48.71
38.80
28.16
17.36
7.07
-2.29
-10.64
-18.23
-25.48
-32.71
-39.95
-47.05
-53.83
-60.21
-66.22
-71.79
-76.58
-79.87
-80.87
-79.07
-74.56
-68.03
-60.50
-52.78
-45.23
-37.72
-29.95
-21.82
-13.62
-5.94
0.64
5.84
9.82
12.98
15.75
18.37
20.81
22.89
24.44
25.43
25.94
26.12
26.15
26.32
26.94
28.31
30.59
33.57
36.68
39.07
39.98
39.02
36.39
32.77
28.95
25.50
22.46
19.39
15.49
9.91
2.02
-8.57
-21.90
-37.70
-55.41
-74.15
-92.72
-109.83
-124.31
-135.36
-142.73
-146.57
-147.21
-144.89
-139.71
-131.78
-121.41
-109.23
-96.11
-82.88
-70.11
-58.04
-46.64
-35.94
-26.04
-17.05
-8.91
-1.28
6.36
14.47
23.15
32.11
40.85
48.86
55.88
61.86
66.90
71.06
74.38
76.85
78.52
79.57
80.28
80.88
81.47
81.99
82.27
82.19
81.74
81.18
80.88
81.20
82.23
83.79
85.45
86.67
87.03
86.27
84.48
81.94
79.15
76.53
74.23
71.98
68.96
64.07
56.23
44.85
30.01
12.49
-6.66
-26.39
-46.04
-65.32
-84.09
-102.10
-118.65
-132.69
-142.91
-147.99
-147.01
-139.69
-126.54
-108.87
-88.54
-67.55
-47.66
-30.12
-15.44
-3.60
5.77
13.12
18.89
23.52
27.45
31.16
34.94
38.87
42.61
45.54
47.02
46.64
44.51
41.22
37.69
34.80
33.04
32.36
32.18
31.68
30.11
27.10
22.86
18.01
13.39
9.73
7.48
6.72
7.26
8.71
10.64
12.64
14.38
15.74
16.84
18.15
20.32
23.94
29.28
36.03
43.38
50.23
55.58
58.79
59.76
58.75
56.32
53.06
49.49
45.97
42.70
39.55
36.12
31.75
25.86
18.37
9.91
1.72
-4.73
-8.35
-8.77
-6.48
-2.57
1.63
5.00
6.74
6.54
4.54
1.35
-2.15
-5.09
-6.99
-8.09
-9.30
-11.76
-16.36
-23.23
-31.71
-40.64
-48.79
-55.29
-59.78
-62.34
-63.25
-62.87
-61.55
-59.55
-57.09
-54.24
-50.93
-47.04
-42.52
-37.56
-32.61
-28.23
-24.89
-22.81
-21.78
-21.32
-20.83
-19.82
-18.11
-15.88
-13.51
-11.52
-10.27
-9.85
-10.09
-10.63
-11.04
-10.97
-10.16
-8.47
-5.78
-1.95
3.07
9.24
16.33
23.95
31.69
39.22
46.38
53.13
59.45
65.12
69.65
72.41
72.74
70.24
64.98
57.49
48.63
39.31
30.28
21.97
14.54
7.96
2.26
-2.47
-6.00
-8.17
-8.93
-8.52
-7.42
-6.19
-5.35
-5.22
-5.94
-7.56
-10.19
-14.01
-19.16
-25.52
-32.62
-39.58
-45.39
-49.19
-50.56
-49.58
-46.76
-42.88
-38.77
-35.17
-32.70
-31.71
-32.28
-34.19
-36.99
-40.18
-43.42
-46.61
-49.99
-53.94
-58.83
-64.79
-71.59
-78.70
-85.33
-90.70
-94.14
-95.32
-94.16
-90.84
-85.64
-78.82
-70.57
-61.10
-50.71
-39.91
-29.36
-19.74
-11.64
-5.34
-0.83
2.09
3.78
4.64
5.00
5.18
5.38
5.61
5.67
5.20
3.84
1.48
-1.58
-4.67
-7.03
-8.07
-7.61
-5.78
-2.89
0.74
4.88
9.26
13.43
16.84
18.97
19.63
19.16
18.20
17.41
17.10
17.10
17.00
16.48
15.59
14.79
14.77
16.04
18.82
22.92
27.91
33.26
38.51
43.30
47.43
50.89
53.74
56.19
58.46
60.71
63.05
65.44
67.73
69.79
71.52
73.04
74.69
77.01
80.55
85.70
92.36
99.99
107.73
114.60
119.78
122.68
122.96
120.48
115.15
107.02
96.25
83.20
68.41
52.45
35.82
18.71
1.04
-17.46
-37.05
-57.68
-78.79
-99.23
-117.44
-131.74
-140.79
-143.89
-141.17
-133.48
-122.12
-108.59
-94.28
-80.30
-67.50
-56.43
-47.29
-39.94
-33.92
-28.52
-23.07
-17.07
-10.42
-3.37
3.54
9.84
15.32
20.07
24.45
28.82
33.40
38.09
42.59
46.53
49.68
52.09
54.02
55.86
57.93
60.23
62.45
63.95
64.05
62.19
58.27
52.65
46.12
39.55
33.54
28.29
23.52
18.75
13.55
7.76
1.50
-4.97
-11.46
-17.91
-24.36
-30.81
-37.17
-43.26
-48.97
-54.36
-59.67
-65.13
-70.69
-75.86
-79.82
-81.69
-80.94
-77.60
-72.26
-65.78
-58.93
-52.12
-45.36
-38.44
-31.29
-24.09
-17.35
-11.61
-7.12
-3.55
-0.09
4.31
10.40
18.36
27.59
36.90
44.94
50.71
53.86
54.75
54.08
52.59
50.86
49.13
47.41
45.46
43.03
39.95
36.28
32.18
27.97
24.12
21.04
18.81
16.86
13.94
8.13
-2.53
-19.84
-43.95
-72.45
-100.56
-122.56
-134.10
-133.72
-122.86
-104.47
-82.03
-57.13
-28.84
5.09
46.24
94.02
145.75
197.77
246.34
286.04
310.79
315.46
297.51
258.04
201.60
135.03
65.73
-0.29
-61.86
-120.77
-178.94
-236.43
-291.55
-342.46
-388.39
-429.64
-451.49
-441.24
-394.46
-318.52
-228.28
-137.78
-55.93
12.88
67.01
104.97
127.82
135.96
130.93
116.01
95.16
71.32
45.19
15.14
-20.64
-65.52
-121.83
-187.52
-254.84
-312.04
-347.33
-353.35
-329.80
-283.31
-225.81
-169.70
-123.10
-87.90
-61.28
-38.79
-16.74
7.29
34.79
66.24
100.85
136.17
167.52
188.72
194.31
182.00
154.60
119.66
86.86
64.44
56.70
63.01
78.53
96.22
109.06
112.08
103.66
85.91
64.09
44.97
34.47
35.38
46.47
63.38
80.65
94.16
102.26
105.45
105.36
103.89
102.98
105.01
112.46
126.56
145.43
163.35
172.66
167.72
148.80
123.44
103.56
99.58
114.70
142.66
170.59
184.98
177.57
147.95
101.64
45.46
-16.63
-84.53
-159.09
-237.70
-311.61
-366.98
-390.07
-373.72
-321.74
-248.63
-174.31
-116.66
-85.47
-79.81
-90.10
-103.23
-107.81
-97.70
-72.72
-37.15
2.82
41.26
73.89
98.51
114.73
123.54
127.10
128.21
129.64
133.33
139.42
146.12
150.35
148.78
139.08
120.63
94.58
63.61
31.43
2.14
-20.57
-34.45
-39.25
-36.61
-29.40
-20.45
-11.66
-3.99
1.90
5.39
5.76
2.84
-2.50
-8.51
-13.36
-16.08
-16.99
-17.18
-17.47
-17.80
-17.33
-15.07
-10.69
-4.76
1.52
6.78
9.91
10.23
7.60
2.36
-4.56
-11.73
-17.55
-20.63
-20.40
-17.23
-12.19
-6.51
-1.07
3.91
8.52
12.83
16.74
19.89
22.20
24.11
26.61
30.77
37.14
45.27
53.76
60.89
65.32
66.59
65.10
61.78
57.43
52.37
46.37
38.80
29.09
17.12
3.30
-11.40
-25.90
-39.41
-51.83
-63.68
-75.72
-88.40
-101.50
-114.10
-124.89
-132.43
-135.14
-131.29
-119.21
-98.04
-68.57
-33.80
1.56
32.59
55.69
69.64
75.34
74.67
69.32
60.44
49.03
36.62
25.48
17.97
15.43
17.63
22.74
28.37
32.66
35.02
35.94
36.29
36.66
36.97
36.63
34.85
31.04
24.99
16.97
7.81
-0.97
-7.36
-9.16
-4.68
6.43
22.75
41.18
57.71
68.47
70.85
64.07
49.17
28.54
5.21
-17.80
-38.01
-53.60
-63.54
-67.48
-65.54
-58.08
-45.40
-27.44
-3.90
25.46
60.37
99.59
140.77
180.34
213.83
236.13
242.38
229.12
195.86
146.10
87.33
29.10
-20.09
-55.68
-78.36
-92.90
-105.48
-120.78
-140.42
-163.21
-186.25
-206.43
-221.29
-229.27
-229.81
-223.73
-213.26
-201.88
-193.02
-188.26
-186.14
-182.18
-170.25
-144.84
-103.34
-47.21
18.03
84.13
142.27
185.15
208.75
212.86
200.76
177.86
150.24
123.25
100.75
84.73
75.44
71.77
71.74
72.89
72.91
70.07
63.64
53.92
42.05
29.67
18.56
10.19
5.30
3.70
4.34
5.58
5.78
3.83
-0.46
-6.38
-12.82
-18.86
-24.17
-29.18
-34.60
-41.00
-48.37
-56.08
-63.21
-69.05
-73.39
-76.45
-78.58
-79.91
-80.21
-79.04
-76.08
-71.46
-65.79
-59.92
-54.59
-50.17
-46.57
-43.43
-40.32
-36.91
-33.03
-28.70
-24.09
-19.35
-14.68
-10.14
-5.73
-1.41
2.85
7.00
10.92
14.48
17.64
20.48
23.15
25.82
28.50
31.14
33.57
35.67
37.39
38.81
40.03
41.16
42.28
43.42
44.57
45.66
46.59
47.31
47.81
48.19
48.56
48.95
49.21
49.09
48.29
46.70
44.50
42.08
39.84
38.03
36.65
35.49
34.30
32.87
31.06
28.71
25.60
21.43
16.03
9.52
2.41
-4.31
-9.53
-12.28
-12.15
-9.45
-5.25
-0.99
1.92
2.53
0.66
-3.18
-8.02
-12.86
-16.97
-20.14
-22.56
-24.71
-27.07
-29.95
-33.39
-37.26
-41.35
-45.42
-49.24
-52.49
-54.68
-55.24
-53.66
-49.77
-43.84
-36.50
-28.57
-20.68
-13.19
-6.12
0.64
7.18
13.45
19.23
24.29
28.41
31.57
33.85
35.50
36.79
37.93
38.93
39.61
39.58
38.42
35.86
31.74
26.03
18.70
9.85
-0.22
-10.77
-20.62
-28.39
-32.90
-33.63
-30.88
-25.66
-19.31
-13.12
-8.11
-4.96
-4.04
-5.44
-8.84
-13.52
-18.39
-22.29
-24.21
-23.66
-20.59
-15.37
-8.52
-0.53
8.15
17.17
26.16
34.82
42.87
50.15
56.57
62.13
66.90
71.00
74.60
77.81
80.61
82.72
83.66
82.86
79.78
74.14
66.00
55.63
43.51
30.17
16.18
2.08
-11.78
-25.25
-38.39
-51.38
-64.29
-76.89
-88.74
-99.27
-108.09
-115.11
-120.55
-124.74
-127.98
-130.43
-132.17
-133.22
-133.57
-133.00
-131.02
-126.76
-119.23
-107.63
-91.64
-71.46
-47.72
-21.21
7.18
36.27
64.39
89.32
108.84
121.28
126.18
124.76
119.62
114.04
110.85
111.57
115.76
120.99
123.46
119.33
106.48
85.71
60.72
36.50
17.20
4.02
-5.04
-14.04
-27.23
-47.28
-74.93
-109.34
-148.88
-191.74
-236.15
-280.32
-322.15
-359.09
-388.01
-405.32
-407.35
-391.18
-355.88
-303.15
-237.25
-164.31
-91.53
-26.24
25.05
58.15
72.97
74.57
72.43
77.29
96.71
131.66
176.42
221.82
260.24
289.32
312.07
333.86
358.10
383.30
403.44
410.95
400.41
371.02
326.52
272.87
215.57
157.66
99.60
40.67
-19.45
-80.01
-139.37
-195.79
-247.83
-293.79
-331.00
-355.51
-362.94
-350.34
-317.71
-268.16
-206.50
-137.50
-64.79
8.36
77.51
136.11
176.58
193.02
184.17
154.59
112.84
67.96
26.11
-10.61
-42.98
-72.00
-96.73
-114.22
-121.18
-116.38
-101.77
-81.62
-59.99
-38.54
-15.65
12.51
49.36
95.89
150.20
208.84
268.57
327.16
382.77
432.22
470.19
490.18
487.10
460.04
413.28
354.70
292.58
232.99
179.23
133.39
98.08
76.81
72.06
82.87
103.44
124.47
136.47
133.21
113.47
80.02
37.74
-8.64
-55.36
-99.57
-138.98
-171.71
-196.43
-212.23
-218.30
-213.72
-198.28
-173.55
-143.96
-116.54
-98.76
-96.03
-109.96
-138.60
-177.87
-223.15
-269.89
-312.80
-345.10
-359.22
-348.67
-310.31
-245.86
-161.53
-66.52
29.38
117.92
193.39
252.78
295.32
321.52
332.43
329.25
313.14
285.53
248.46
204.64
157.14
108.65
61.12
15.74
-26.69
-65.50
-100.11
-130.42
-157.12
-181.45
-204.47
-226.65
-247.90
-267.64
-285.60
-302.27
-318.90
-337.32
-359.63
-387.93
-423.88
-467.63
-516.63
-565.06
-604.39
-625.68
-622.59
-593.78
-543.41
-479.37
-410.18
-342.32
-279.05
-221.10
-168.11
-119.78
-75.98
-36.25
0.75
36.98
74.07
112.32
150.44
186.09
216.84
241.46
260.49
276.33
292.82
314.15
343.32
380.39
421.31
458.32
481.89
484.14
461.65
416.61
355.50
286.04
214.37
143.75
75.31
10.07
-49.28
-98.20
-131.54
-145.37
-138.33
-111.80
-69.49
-16.66
40.41
95.02
140.84
172.78
188.03
186.55
171.09
146.34
117.87
90.95
69.68
56.25
50.88
52.24
58.02
65.78
73.58
80.24
85.33
88.84
90.96
92.05
92.62
93.17
93.96
94.67
94.36
91.72
85.61
75.53
61.80
45.34
27.14
7.85
-12.26
-33.11
-54.39
-75.41
-95.07
-112.24
-125.90
-135.42
-140.47
-141.10
-137.84
-131.91
-125.26
-120.38
-119.63
-124.53
-135.01
-149.19
-163.87
-175.48
-181.38
-180.77
-174.87
-166.19
-157.11
-148.59
-139.64
-127.88
-110.76
-87.05
-57.63
-25.18
6.38
33.09
51.70
60.45
59.57
51.97
43.20
40.31
49.30
72.01
104.00
135.01
152.50
146.78
115.41
64.48
6.12
-46.45
-83.91
-103.17
-106.81
-100.10
-88.02
-73.71
-58.80
-44.46
-32.39
-24.60
-22.22
-24.73
-29.80
-33.98
-34.41
-30.01
-21.91
-12.61
-4.74
0.62
4.59
10.16
20.81
38.58
62.82
89.98
114.82
132.16
138.59
133.20
117.48
94.52
67.96
41.10
16.15
-6.01
-25.54
-42.85
-57.63
-68.39
-72.79
-68.96
-56.82
-38.66
-18.53
-0.58
12.67
21.23
27.45
34.93
47.03
65.91
91.67
121.84
151.36
173.77
183.09
176.56
156.54
130.18
106.99
95.05
97.66
112.34
132.46
150.56
161.57
164.14
159.51
149.63
135.48
116.55
91.83
61.41
27.12
-7.38
-37.63
-60.81
-76.27
-85.62
-91.67
-97.41
-104.69
-115.05
-129.22
-147.05
-169.50
-196.77
-227.03
-255.53
-275.62
-280.15
-265.96
-234.01
-187.84
-134.32
-78.84
-23.57
32.48
90.46
149.52
202.32
237.87
247.47
224.99
171.93
95.44
6.51
-84.12
-167.14
-239.24
-301.61
-332.81
-313.87
-236.77
-115.70
22.52
139.95
231.73
300.60
346.39
369.68
370.97
353.40
318.24
267.70
208.36
140.72
67.37
-14.09
-103.67
-200.03
-294.66
-381.33
-454.29
-509.72
-543.54
-530.34
-459.70
-338.56
-220.15
-123.61
-54.16
-1.81
36.23
61.46
73.20
65.74
35.53
-9.65
-56.02
-95.45
-124.54
-143.12
-148.50
-136.73
-108.24
-66.05
-16.37
35.38
80.43
112.03
127.15
128.71
121.92
109.65
94.11
77.66
64.85
57.25
56.45
62.06
73.05
87.33
101.83
114.89
126.91
140.84
159.17
183.23
211.32
239.17
259.34
263.53
246.91
209.62
157.82
100.89
48.11
3.45
-28.56
-46.98
-54.27
-53.31
-47.01
-36.96
-24.42
-10.92
-0.36
2.32
-7.84
-34.17
-76.79
-135.22
-205.62
-279.28
-343.52
-386.21
-400.61
-388.41
-365.18
-339.17
-315.31
-295.16
-277.75
-260.76
-241.19
-218.64
-194.32
-169.65
-144.03
-117.00
-87.86
-56.50
-23.03
11.18
43.61
71.60
93.30
109.31
120.79
129.53
137.28
147.25
161.42
179.53
199.23
216.81
229.51
235.62
235.28
230.19
226.32
229.27
241.79
262.77
287.77
312.02
332.17
347.47
359.56
375.83
403.40
446.20
503.81
572.05
645.29
717.72
783.37
808.20
766.32
648.92
472.83
273.66
87.32
-64.00
-174.63
-250.48
-301.88
-333.62
-345.69
-340.50
-323.67
-304.54
-293.36
-297.89
-321.86
-365.13
-420.00
-474.94
-518.44
-542.19
-542.62
-521.15
-483.41
-438.20
-394.99
-358.71
-331.75
-310.20
-290.57
-271.70
-254.63
-241.04
-232.08
-227.27
-223.38
-216.70
-204.67
-187.41
-166.86
-147.44
-132.24
-122.33
-116.77
-112.79
-107.24
-97.70
-83.49
-65.27
-44.56
-22.73
-0.83
20.69
42.04
63.87
87.04
112.08
139.17
167.99
197.89
227.83
256.68
283.61
308.28
330.97
352.20
372.74
393.59
415.90
440.45
466.82
492.61
513.13
522.30
514.44
486.43
439.07
376.88
306.31
233.22
161.30
91.83
25.01
-38.40
-96.06
-144.54
-180.62
-202.87
-212.30
-211.81
-204.88
-194.19
-180.78
-164.14
-143.15
-117.20
-87.10
-55.15
-24.50
1.99
22.68
37.50
47.75
55.14
61.19
66.92
73.13
80.44
89.13
98.14
104.32
102.47
87.10
55.10
8.17
-46.72
-99.34
-139.84
-162.16
-165.39
-152.88
-130.12
-102.71
-75.91
-55.17
-46.76
-56.92
-89.58
-143.64
-211.71
-281.30
-338.47
-372.22
-377.72
-357.05
-317.62
-269.02
-219.87
-175.73
-138.69
-108.31
-83.19
-62.37
-45.76
-33.78
-26.43
-22.65
-20.22
-16.40
-8.95
2.92
18.49
36.09
54.02
71.38
88.24
105.24
122.81
140.75
157.97
173.02
184.77
192.77
197.34
199.07
198.34
195.04
188.78
179.26
166.68
151.61
134.28
114.03
89.60
60.28
27.65
-3.58
-26.47
-34.59
-25.26
-1.35
29.58
58.45
78.53
87.79
88.54
84.87
79.85
74.03
66.08
54.89
41.22
27.90
18.55
15.50
18.57
25.24
32.23
37.01
38.83
38.42
37.04
35.43
33.54
30.60
26.21
21.05
17.12
16.87
22.17
33.44
49.64
68.83
88.74
107.51
124.21
138.84
152.28
165.65
179.79
194.55
208.41
217.84
218.37
206.43
180.93
144.00
100.12
54.19
10.01
-30.63
-68.49
-105.47
-143.07
-181.43
-219.41
-255.46
-288.48
-317.99
-338.29
-342.75
-326.51
-289.59
-237.05
-176.11
-113.07
-52.50
2.59
50.15
88.22
115.63
132.97
141.78
144.16
142.21
137.23
129.41
118.12
101.78
78.95
48.80
13.94
-21.98
-55.13
-82.67
-103.30
-117.32
-126.92
-135.41
-146.43
-162.54
-184.27
-209.11
-231.82
-245.97
-246.25
-231.11
-203.65
-170.96
-141.74
-123.64
-121.00
-133.89
-158.69
-189.41
-219.39
-242.83
-255.72
-256.22
-244.71
-223.13
-194.40
-161.65
-127.78
-94.89
-63.94
-34.71
-6.04
23.30
53.62
83.43
109.60
128.54
137.93
138.07
132.02
124.28
118.88
117.78
120.38
124.14
126.00
123.72
116.72
106.31
95.28
86.88
83.73
87.02
95.94
108.06
120.00
128.37
130.49
124.72
110.81
90.25
66.44
44.09
28.07
21.60
25.04
35.91
50.17
63.93
74.90
82.61
87.69
91.14
93.74
96.16
99.32
104.01
110.20
116.41
119.78
117.14
106.88
89.66
68.10
45.66
24.89
6.07
-12.85
-35.14
-63.81
-99.99
-143.27
-192.12
-243.59
-293.24
-334.87
-361.11
-365.05
-342.94
-295.52
-229.01
-153.37
-78.24
-9.90
50.18
104.16
155.24
201.14
237.40
259.61
261.87
241.47
200.45
145.21
84.46
26.49
-23.04
-60.85
-85.76
-97.70
-96.41
-82.15
-56.88
-24.86
7.78
34.75
52.03
58.63
56.28
48.97
40.98
35.45
33.61
34.77
37.01
38.35
37.18
32.63
24.83
14.53
2.64
-10.10
-23.11
-35.84
-47.39
-56.83
-63.45
-67.04
-68.13
-67.75
-67.02
-66.72
-66.99
-67.37
-67.12
-65.50
-61.97
-56.35
-48.76
-39.63
-29.71
-19.97
-11.52
-5.35
-1.96
-1.25
-2.43
-4.34
-5.87
-6.30
-5.52
-3.95
-2.23
-0.96
-0.51
-0.97
-2.26
-4.24
-6.73
-9.48
-12.20
-14.64
-16.65
-18.25
-19.61
-21.01
-22.70
-24.72
-26.94
-29.08
-30.82
-31.88
-32.09
-31.43
-29.97
-27.84
-25.26
-22.56
-20.17
-18.51
-17.79
-17.90
-18.32
-18.31
-17.19
-14.58
-10.48
-5.32
0.30
5.73
10.47
14.20
16.85
18.51
19.40
19.74
19.89
20.23
21.25
23.43
27.10
32.31
38.71
45.76
53.02
60.46
68.49
77.68
88.40
100.55
113.52
126.33
137.91
147.13
152.86
153.84
148.81
136.75
117.27
90.95
59.34
24.83
-9.76
-41.60
-68.30
-88.12
-100.23
-104.78
-102.80
-96.06
-86.66
-76.55
-67.11
-58.94
-51.79
-44.84
-37.31
-28.95
-20.37
-13.00
-8.62
-8.64
-13.59
-23.02
-35.73
-50.43
-65.93
-81.32
-95.73
-108.14
-117.54
-123.27
-125.34
-124.54
-122.02
-118.60
-114.35
-108.52
-100.03
-88.23
-73.25
-56.04
-37.91
-20.13
-3.61
10.97
23.08
32.41
39.00
43.53
47.34
52.13
59.39
69.80
83.00
97.73
112.39
125.65
136.71
145.19
150.73
152.80
150.68
143.74
131.72
115.05
94.94
73.36
52.69
35.32
22.99
16.27
14.31
15.20
16.69
17.03
15.45
12.01
7.09
0.91
-6.62
-15.70
-26.21
-37.56
-48.90
-59.45
-68.74
-76.57
-82.85
-87.59
-90.93
-93.25
-95.21
-97.40
-100.01
-102.50
-103.79
-102.83
-99.24
-93.72
-87.96
-83.91
-82.93
-84.97
-88.25
-89.58
-85.23
-72.07
-48.61
-15.48
24.75
68.23
110.67
147.97
176.72
194.68
201.30
198.13
188.68
177.65
169.37
166.23
167.77
170.96
171.56
165.92
152.39
131.67
106.41
80.06
55.87
36.03
21.25
10.68
2.18
-6.90
-18.96
-35.44
-56.61
-81.81
-109.81
-139.21
-168.48
-195.66
-218.20
-233.09
-237.53
-229.94
-210.86
-183.07
-151.17
-120.18
-93.95
-73.79
-58.26
-43.72
-25.94
-2.01
28.24
61.82
93.70
118.51
132.26
133.33
122.81
104.44
83.91
67.50
59.95
62.24
70.72
78.20
77.23
63.98
40.67
14.87
-3.86
-8.34
3.54
28.96
62.86
101.13
142.14
185.94
232.16
278.47
320.31
352.17
369.42
369.80
353.90
324.68
286.31
242.87
197.48
151.93
106.92
62.89
20.69
-18.12
-51.50
-77.68
-96.13
-107.98
-116.00
-123.60
-133.57
-146.95
-162.60
-177.67
-188.73
-192.89
-188.56
-175.59
-155.22
-129.94
-103.40
-80.02
-64.04
-58.32
-63.14
-75.99
-92.39
-107.56
-118.03
-122.49
-121.60
-117.11
-110.96
-104.83
-100.20
-98.39
-100.43
-106.65
-116.23
-127.22
-136.95
-142.62
-141.92
-133.61
-118.33
-99.15
-81.70
-72.56
-76.75
-94.95
-122.33
-149.85
-167.45
-167.72
-148.22
-111.55
-63.49
-10.93
39.56
82.08
111.34
123.11
115.77
91.83
58.09
23.81
-2.65
-16.86
-19.30
-13.34
-2.33
12.28
31.10
53.98
78.96
103.09
124.27
142.43
159.71
178.63
199.47
220.02
235.53
242.68
242.37
238.75
234.66
229.08
217.40
194.97
162.35
124.01
87.48
59.64
42.56
31.06
16.01
-10.57
-51.22
-100.76
-152.53
-200.50
-240.75
-263.08
-258.91
-225.46
-168.50
-109.13
-53.53
-3.30
39.83
75.03
97.77
101.71
82.22
39.46
-20.04
-82.85
-136.05
-170.04
-180.45
-168.42
-139.10
-98.06
-49.10
5.70
64.94
122.88
170.84
200.86
209.08
197.05
171.21
139.53
108.28
80.91
56.30
30.91
1.34
-34.48
-76.87
-124.24
-173.17
-218.50
-253.76
-273.37
-273.34
-251.81
-209.27
-149.09
-77.80
-4.92
58.12
100.26
113.10
93.58
45.34
-21.71
-93.65
-155.80
-195.89
-206.30
-185.02
-135.94
-67.78
7.43
76.40
126.86
149.91
141.64
104.40
46.56
-18.91
-77.35
-115.70
-125.46
-104.13
-55.39
11.87
85.21
150.73
195.27
208.88
186.79
131.13
51.30
-37.37
-116.96
-171.04
-188.72
-167.23
-112.32
-36.72
42.25
106.61
141.80
140.52
105.29
48.31
-11.61
-54.25
-65.10
-40.58
10.73
71.32
121.30
144.84
134.13
90.46
22.98
-54.54
-127.23
-182.23
-210.66
-208.49
-177.00
-122.98
-57.46
6.61
56.87
84.29
85.41
63.25
27.51
-6.47
-24.71
-21.69
-1.65
25.84
51.88
71.89
85.74
95.87
104.79
113.09
119.50
122.65
122.29
119.31
115.37
112.57
110.68
108.40
103.41
93.15
75.83
50.62
17.39
-22.56
-65.79
-106.98
-138.88
-154.40
-149.38
-124.86
-87.38
-47.05
-13.58
7.19
14.87
13.60
8.83
4.61
2.26
1.40
1.58
3.34
6.99
10.84
10.78
1.77
-18.78
-48.44
-79.20
-100.75
-105.44
-92.17
-67.01
-39.78
-19.13
-8.94
-7.82
-11.48
-16.08
-20.15
-24.39
-30.16
-37.60
-45.29
-51.08
-53.32
-51.55
-46.58
-40.33
-33.88
-27.83
-22.02
-15.66
-7.85
1.93
13.42
25.65
37.17
46.71
53.19
56.23
56.33
54.71
52.94
52.43
53.95
57.42
62.19
66.72
69.61
70.08
68.32
65.43
62.90
62.24
64.88
72.25
84.55
100.25
115.56
124.77
121.81
103.00
69.30
25.51
-17.41
-49.05
-63.85
-62.57
-50.69
-35.08
-20.45
-8.07
3.20
14.71
26.30
35.11
37.52
31.06
15.11
-9.32
-40.48
-76.67
-115.45
-153.25
-185.26
-206.08
-211.60
-201.26
-178.76
-150.90
-124.82
-105.02
-92.89
-86.01
-81.18
-76.03
-69.56
-61.71
-52.23
-40.50
-25.77
-8.36
9.97
26.37
38.14
43.73
43.54
40.02
36.33
35.16
37.53
42.63
48.24
52.08
52.90
51.15
49.12
49.55
54.49
64.35
77.96
93.15
108.06
122.37
134.84
146.90
161.06
180.01
205.64
238.02
274.33
308.59
332.47
337.32
317.37
271.65
204.88
126.25
46.62
-24.81
-82.64
-125.70
-155.73
-175.24
-186.44
-190.98
-190.50
-187.54
-185.79
-189.39
-201.61
-223.49
-252.69
-284.11
-311.35
-328.60
-332.28
-321.69
-298.60
-266.16
-227.58
-185.35
-141.27
-96.89
-53.95
-14.39
19.94
47.96
69.81
86.88
101.32
115.23
129.88
145.38
160.80
174.57
185.07
191.22
192.77
190.33
185.17
178.67
172.01
165.89
160.35
154.81
148.19
139.12
126.50
109.98
90.24
69.01
48.63
31.15
17.56
7.43
-1.03
-10.09
-21.48
-35.61
-51.30
-66.30
-78.26
-85.62
-88.11
-86.66
-82.78
-77.93
-73.08
-68.70
-65.14
-62.81
-62.19
-63.54
-66.61
-70.54
-74.06
-75.89
-75.11
-71.52
-65.56
-58.22
-50.68
-44.06
-39.00
-35.49
-32.95
-30.46
-27.17
-22.73
-17.44
-12.07
-7.48
-4.20
-2.18
-0.92
0.30
2.04
4.55
7.77
11.50
15.47
19.42
23.03
26.01
28.23
29.87
31.46
33.67
36.95
41.12
45.28
48.07
48.22
45.09
39.00
31.10
22.95
15.97
11.01
8.20
7.03
6.65
6.30
5.56
4.63
4.19
5.13
8.08
13.09
19.50
26.01
31.04
33.10
31.13
24.83
14.94
3.26
-7.88
-16.50
-21.98
-25.32
-28.40
-32.63
-37.71
-41.52
-41.23
-35.12
-23.87
-10.30
1.96
10.41
14.92
18.03
24.09
37.50
60.82
92.98
128.55
158.70
173.70
166.31
134.41
82.19
18.80
-44.36
-96.67
-130.39
-141.69
-130.92
-102.40
-63.44
-22.27
14.71
45.57
73.25
103.22
139.34
180.35
219.29
246.22
252.89
236.77
202.27
158.68
116.07
81.28
55.76
36.17
16.73
-7.75
-39.55
-77.22
-116.29
-151.39
-178.31
-195.28
-202.87
-202.39
-194.50
-178.22
-151.83
-114.70
-68.96
-19.94
25.26
60.57
83.41
95.32
101.05
105.78
112.67
121.49
128.78
129.91
121.29
101.63
71.00
30.67
-17.07
-68.48
-118.15
-159.27
-185.39
-192.38
-180.27
-154.85
-126.10
-105.13
-100.65
-116.55
-151.47
-200.36
-256.31
-305.82
-335.41
-335.10
-302.51
-243.49
-168.77
-89.19
-13.53
51.82
102.96
137.99
157.37
163.59
161.52
155.77
148.93
140.88
129.33
111.27
83.33
43.41
-8.13
-67.49
-127.74
-176.72
-203.64
-203.65
-179.98
-143.13
-105.91
-77.90
-63.31
-58.15
-56.69
-55.31
-53.55
-52.61
-54.08
-58.47
-65.76
-75.38
-86.89
-100.57
-116.25
-134.83
-156.46
-179.94
-202.68
-221.72
-234.12
-238.03
-233.39
-221.69
-205.26
-186.07
-165.23
-143.00
-119.28
-94.04
-67.81
-41.84
-17.85
2.53
18.51
30.34
39.09
46.22
53.04
60.37
68.28
76.32
83.87
90.63
96.82
103.05
110.02
118.27
127.92
138.65
149.92
161.26
172.59
184.30
197.10
211.93
229.75
251.26
276.41
304.07
331.81
356.34
374.29
383.20
382.27
372.44
355.89
335.19
312.49
289.26
266.31
244.15
223.28
204.14
186.94
171.49
157.19
143.13
128.35
111.94
93.18
71.87
48.44
24.02
0.27
-21.15
-39.28
-54.02
-66.15
-76.65
-86.09
-94.23
-100.26
-103.54
-104.23
-103.57
-103.43
-105.46
-110.27
-117.16
-124.47
-130.38
-133.65
-134.03
-132.09
-128.83
-125.35
-122.53
-120.88
-120.38
-120.33
-119.41
-116.04
-109.02
-98.09
-84.29
-69.63
-56.30
-45.75
-38.11
-32.13
-25.73
-16.98
-4.76
10.64
27.67
44.02
57.48
66.61
71.11
71.68
69.47
65.73
61.56
57.95
55.68
55.05
55.52
55.62
53.35
47.14
36.64
23.12
9.00
-3.21
-11.87
-16.70
-18.57
-18.85
-18.82
-19.28
-20.65
-23.14
-26.73
-31.34
-36.69
-42.47
-48.46
-54.48
-60.33
-65.46
-68.75
-68.70
-64.05
-54.52
-41.18
-26.23
-12.14
-0.78
7.13
11.94
14.60
16.21
17.65
19.66
22.79
27.32
33.03
39.03
44.14
47.36
48.43
47.98
47.10
46.79
47.50
49.12
51.31
53.97
57.36
61.89
67.81
74.82
82.06
88.35
92.67
94.68
94.94
94.75
95.68
98.96
104.93
112.66
120.17
124.87
124.34
117.24
103.72
85.54
65.63
47.17
32.90
24.55
22.75
27.34
37.88
53.78
74.24
97.62
120.78
139.17
147.56
141.53
118.77
80.07
29.41
-26.52
-79.43
-120.97
-144.58
-147.44
-131.99
-105.96
-80.17
-64.79
-65.23
-80.22
-103.03
-125.08
-140.18
-146.52
-146.01
-141.74
-135.56
-127.44
-116.52
-102.67
-87.26
-72.83
-62.07
-56.87
-58.54
-68.38
-88.07
-119.20
-162.40
-216.64
-279.15
-345.52
-410.03
-466.00
-506.42
-525.41
-519.90
-491.03
-444.03
-386.52
-325.92
-267.34
-212.98
-162.76
-115.93
-72.12
-31.41
6.24
41.76
77.43
116.02
159.55
208.20
259.55
308.78
350.00
378.21
391.16
390.74
381.80
370.13
360.16
353.44
348.75
343.45
335.15
322.92
308.39
294.56
284.85
282.06
287.31
299.08
313.01
322.54
321.02
305.08
275.20
235.59
192.15
149.86
111.12
75.70
42.16
4.37
-39.45
-87.27
-134.04
-174.08
-203.86
-223.00
-233.42
-237.46
-236.69
-230.87
-219.60
-203.39
-184.15
-164.80
-148.06
-135.42
-126.66
-120.36
-113.79
-104.69
-92.17
-77.04
-61.46
-47.85
-38.06
-32.73
-32.18
-35.56
-41.81
-50.01
-59.59
-70.09
-80.83
-90.76
-97.50
-99.64
-96.24
-87.18
-73.23
-55.96
-37.18
-18.70
-1.92
12.36
23.72
32.34
