1605101659.00
64.000000
-0.00
-0.00
-0.00
-0.00
-0.00
-0.00
-0.00
-0.00
-0.00
-0.00
0.00
0.01
0.01
-0.00
-0.03
-0.05
-0.05
0.00
0.13
0.36
0.66
1.01
1.37
1.72
2.06
2.40
2.79
3.24
3.80
4.42
5.06
5.66
6.20
6.68
7.15
7.68
8.31
9.14
10.09
11.04
11.88
12.56
13.14
13.76
14.66
15.96
17.91
20.31
22.90
25.38
27.60
29.62
31.73
34.36
37.79
42.39
47.82
53.60
59.17
64.20
68.76
73.31
78.49
84.80
92.74
101.83
111.29
120.28
128.28
135.29
141.89
149.32
156.22
164.80
175.71
189.15
204.02
217.50
225.22
222.43
205.54
173.49
128.59
74.78
16.65
-42.28
-100.24
-157.00
-212.95
-268.21
-322.35
-374.04
-422.17
-465.55
-503.01
-533.27
-554.94
-566.72
-567.57
-557.04
-535.19
-502.94
-461.67
-413.18
-359.52
-302.87
-245.41
-189.12
-135.84
-87.09
-44.32
-8.46
20.54
44.22
65.57
88.22
115.04
146.73
181.32
214.72
242.49
261.54
271.10
272.52
268.06
259.70
248.49
234.82
219.02
201.99
185.11
169.74
156.57
145.36
135.14
124.78
113.55
101.47
89.23
77.80
67.92
59.82
53.17
47.27
41.46
35.50
29.40
23.56
18.46
14.43
11.50
9.37
7.54
5.61
3.42
1.03
-1.29
-3.29
-4.79
-5.82
-6.51
-7.00
-7.40
-7.75
-8.02
-8.17
-8.19
-8.09
-7.91
-7.66
-7.35
-7.00
-6.70
-6.55
-6.64
-6.95
-7.22
-7.06
-6.16
-4.48
-2.38
-0.51
0.52
0.42
-0.62
-2.07
-3.34
-4.06
-4.19
-3.99
-3.80
-3.78
-3.93
-4.04
-3.90
-3.43
-2.69
-1.86
-1.12
-0.63
-0.39
-0.29
-0.26
-0.24
-0.27
-0.40
-0.67
-1.03
-1.34
-1.46
-1.35
-1.00
-0.54
-0.11
0.16
0.23
0.13
-0.01
-0.01
0.24
0.79
1.54
2.29
2.89
3.23
3.37
3.45
3.62
3.95
4.43
4.93
5.37
5.70
5.86
5.81
5.50
4.89
3.96
2.78
1.41
-0.08
-1.59
-3.05
-4.34
-5.40
-6.14
-6.56
-6.70
-6.65
-6.48
-6.23
-5.90
-5.50
-5.11
-4.83
-4.71
-4.77
-4.88
-4.89
-4.68
-4.24
-3.69
-3.18
-2.85
-2.76
-2.84
-3.00
-3.13
-3.18
-3.14
-3.05
-2.90
-2.71
-2.50
-2.29
-2.16
-2.16
-2.29
-2.49
-2.65
-2.69
-2.61
-2.53
-2.56
-2.77
-3.06
-3.30
-3.36
-3.24
-3.11
-3.15
-3.46
-3.94
-4.37
-4.48
-4.16
-3.47
-2.59
-1.70
-0.85
0.04
1.07
2.22
3.37
4.37
5.12
5.54
5.63
5.43
5.01
4.47
3.93
3.54
3.35
3.31
3.25
3.02
2.54
1.90
1.28
0.88
0.85
1.13
1.56
1.92
2.05
1.91
1.58
1.24
1.06
1.12
1.32
1.46
1.34
0.93
0.40
0.04
0.11
0.64
1.42
2.08
2.30
1.96
1.24
0.45
-0.08
-0.11
0.40
1.41
2.80
4.43
6.20
7.96
9.63
11.09
12.29
13.29
14.20
15.12
15.89
15.95
14.33
9.91
1.88
-9.75
-24.00
-38.99
-52.56
-62.80
-68.58
-69.66
-66.53
-60.10
-51.41
-41.51
-31.44
-22.22
-14.76
-9.72
-7.39
-7.65
-9.99
-13.65
-17.84
-21.86
-25.12
-27.13
-27.39
-25.39
-20.75
-13.46
-4.09
6.17
15.81
23.42
28.14
29.90
29.37
27.62
25.76
24.54
24.26
24.81
25.85
27.00
27.93
28.36
28.04
26.76
24.38
21.06
17.25
13.64
11.00
9.90
10.54
12.64
15.59
18.64
21.13
22.59
22.80
21.69
19.34
15.95
11.84
7.52
3.56
0.53
-1.24
-1.80
-1.59
-1.31
-1.68
-3.10
-5.49
-8.38
-11.02
-12.75
-13.15
-12.12
-9.88
-6.80
-3.35
-0.02
2.71
4.48
5.04
4.40
2.82
0.77
-1.24
-2.78
-3.66
-3.94
-3.86
-3.69
-3.60
-3.66
-3.86
-4.23
-4.90
-6.03
-7.77
-10.13
-12.88
-15.61
-17.90
-19.45
-20.12
-20.00
-19.24
-18.09
-16.76
-15.42
-14.18
-13.08
-12.09
-11.15
-10.19
-9.27
-8.47
-7.98
-7.95
-8.41
-9.29
-10.39
-11.43
-12.06
-11.96
-10.83
-8.56
-5.21
-1.03
3.69
8.75
14.05
19.61
25.28
30.69
35.19
38.07
38.87
37.57
34.69
31.14
27.97
26.09
26.02
27.84
31.06
34.80
37.92
39.38
38.57
35.59
31.26
26.86
23.59
22.14
22.47
23.93
25.69
27.04
27.63
27.28
25.82
22.93
18.19
11.36
2.73
-7.01
-17.03
-26.75
-36.01
-44.92
-53.57
-61.74
-68.85
-74.11
-77.11
-78.09
-78.09
-78.46
-80.32
-84.13
-89.58
-95.83
-101.71
-106.42
-109.96
-113.14
-117.26
-123.76
-133.87
-148.35
-166.96
-187.30
-205.57
-217.40
-218.86
-207.38
-182.34
-145.44
-100.31
-51.50
-1.78
46.75
92.11
132.13
164.93
189.64
206.69
217.70
225.04
233.81
247.82
267.70
290.38
311.01
325.41
331.57
329.85
322.36
315.35
314.12
320.83
333.76
349.17
363.34
373.55
377.99
355.17
293.78
198.01
87.09
-17.03
-100.98
-161.50
-201.22
-225.02
-238.39
-243.40
-242.07
-236.79
-229.79
-221.78
-211.88
-199.09
-183.93
-168.54
-153.01
-136.11
-117.41
-98.16
-80.82
-68.00
-61.50
-61.58
-66.77
-72.69
-75.15
-72.23
-64.73
-55.11
-45.85
-38.50
-33.56
-30.70
-28.51
-25.82
-22.49
-19.24
-17.03
-16.40
-17.17
-18.55
-19.52
-19.10
-17.03
-13.92
-10.89
-8.96
-8.57
-9.53
-10.90
-11.50
-10.55
-8.06
-4.85
-1.99
-0.31
-0.18
-1.42
-3.17
-4.31
-4.19
-3.00
-1.64
-0.95
-1.44
-3.28
-6.63
-11.28
-16.65
-21.81
-25.37
-25.52
-19.99
-7.15
13.47
37.72
58.58
70.72
73.48
69.57
62.13
53.24
43.44
32.43
20.28
8.52
-0.27
-4.38
-4.61
-4.24
-6.88
-14.80
-27.83
-43.43
-57.36
-65.54
-65.84
-56.69
-41.15
-23.93
-9.12
1.10
6.42
8.00
7.66
7.02
6.92
7.24
7.75
8.16
8.24
7.84
7.14
6.54
6.46
7.01
7.95
9.08
10.08
10.39
9.18
5.75
-0.09
-7.63
-15.27
-21.18
-23.76
-22.41
-17.93
-12.09
-6.84
-3.41
-1.95
-1.66
-1.55
-0.94
0.22
1.36
1.67
0.40
-2.94
-8.59
-16.56
-26.56
-37.82
-48.96
-58.18
-63.64
-64.10
-59.29
-50.12
-38.31
-25.80
-14.17
-4.32
3.55
9.70
14.62
18.80
22.73
26.80
31.21
35.80
40.02
43.04
44.01
42.54
38.83
33.71
28.26
23.37
19.46
16.47
14.05
11.88
9.80
7.74
5.58
3.11
0.05
-3.73
-8.00
-12.17
-15.44
-17.11
-16.86
-14.88
-11.81
-8.46
-5.61
-3.85
-3.45
-4.42
-6.53
-9.38
-12.42
-15.06
-16.80
-17.34
-16.61
-14.73
-11.90
-8.27
-3.99
0.81
5.93
11.05
15.85
20.01
23.32
25.65
26.95
27.26
26.71
25.57
24.18
22.88
21.89
21.26
20.83
20.36
19.63
18.46
16.77
14.60
12.10
9.50
7.09
5.12
3.76
3.02
2.81
2.96
3.32
3.77
4.22
4.57
4.67
4.44
3.86
3.00
2.04
1.14
0.38
-0.26
-0.84
-1.41
-1.96
-2.41
-2.75
-3.01
-3.31
-3.78
-4.44
-5.21
-5.89
-6.31
-6.33
-5.94
-5.20
-4.24
-3.19
-2.21
-1.44
-0.98
-0.84
-0.90
-0.98
-0.87
-0.45
0.27
1.14
1.92
2.40
2.42
1.96
1.09
-0.02
-1.11
-1.93
-2.30
-2.14
-1.53
-0.69
0.10
0.62
0.76
0.59
0.23
-0.17
-0.50
-0.76
-0.95
-1.13
-1.31
-1.53
-1.80
-2.15
-2.58
-3.05
-3.48
-3.78
-3.91
-3.89
-3.80
-3.74
-3.74
-3.80
-3.82
-3.71
-3.37
-2.80
-2.05
-1.20
-0.37
0.35
0.93
1.40
1.80
2.21
2.65
3.05
3.33
3.36
3.09
2.57
1.95
1.43
1.16
1.20
1.45
1.79
2.02
2.04
1.79
1.35
0.84
0.38
0.03
-0.19
-0.37
-0.55
-0.79
-1.09
-1.45
-1.83
-2.22
-2.60
-2.96
-3.24
-3.42
-3.49
-3.48
-3.49
-3.62
-3.96
-4.45
-4.97
-5.29
-5.25
-4.83
-4.13
-3.38
-2.79
-2.44
-2.24
-2.01
-1.55
-0.82
0.09
0.95
1.58
1.90
1.97
1.94
1.94
2.00
2.10
2.15
2.10
1.97
1.80
1.63
1.46
1.30
1.16
1.06
1.02
1.02
0.99
0.82
0.43
-0.20
-0.97
-1.73
-2.34
-2.72
-2.90
-2.98
-3.07
-3.25
-3.56
-3.96
-4.38
-4.70
-4.76
-4.45
-3.75
-2.70
-1.49
-0.31
0.63
1.18
1.35
1.24
1.01
0.83
0.83
1.09
1.61
2.35
3.27
4.23
5.08
5.63
5.73
5.33
4.50
3.48
2.53
1.90
1.69
1.84
2.18
2.53
2.75
2.82
2.76
2.63
2.45
2.21
1.91
1.54
1.14
0.76
0.47
0.32
0.27
0.21
-0.01
-0.51
-1.35
-2.46
-3.67
-4.78
-5.63
-6.19
-6.50
-6.66
-6.67
-6.46
-5.89
-4.89
-3.48
-1.79
-0.06
1.54
2.84
3.74
4.22
4.26
3.93
3.35
2.68
2.09
1.72
1.63
1.80
2.13
2.48
2.68
2.58
2.10
1.28
0.28
-0.63
-1.23
-1.40
-1.18
-0.74
-0.24
0.18
0.43
0.50
0.36
-0.01
-0.58
-1.32
-2.15
-2.97
-3.72
-4.36
-4.85
-5.19
-5.39
-5.44
-5.40
-5.29
-5.12
-4.83
-4.35
-3.59
-2.58
-1.41
-0.28
0.62
1.19
1.43
1.46
1.42
1.44
1.54
1.70
1.82
1.86
1.76
1.55
1.27
0.96
0.64
0.34
0.07
-0.13
-0.18
-0.03
0.32
0.77
1.14
1.27
1.07
0.57
-0.07
-0.64
-1.04
-1.29
-1.53
-1.86
-2.29
-2.71
-2.99
-3.04
-2.96
-2.96
-3.25
-3.89
-4.71
-5.39
-5.63
-5.28
-4.45
-3.41
-2.43
-1.66
-1.09
-0.57
-0.00
0.67
1.37
2.00
2.44
2.66
2.72
2.66
2.58
2.49
2.41
2.35
2.27
2.22
2.21
2.27
2.40
2.57
2.73
2.82
2.80
2.67
2.44
2.13
1.77
1.37
0.96
0.58
0.27
0.06
-0.10
-0.27
-0.56
-1.02
-1.65
-2.41
-3.17
-3.85
-4.35
-4.61
-4.58
-4.23
-3.57
-2.66
-1.59
-0.49
0.54
1.43
2.20
2.88
3.48
4.01
4.41
4.64
4.69
4.59
4.41
4.24
4.13
4.09
4.06
3.96
3.74
3.42
3.07
2.79
2.61
2.51
2.39
2.13
1.65
0.94
0.09
-0.75
-1.44
-1.84
-1.95
-1.85
-1.74
-1.82
-2.18
-2.79
-3.49
-4.08
-4.44
-4.59
-4.63
-4.69
-4.80
-4.87
-4.76
-4.36
-3.68
-2.86
-2.05
-1.35
-0.71
-0.02
0.86
1.96
3.16
4.27
5.06
5.40
5.28
4.84
4.25
3.67
3.20
2.85
2.61
2.46
2.37
2.34
2.37
2.45
2.57
2.72
2.85
2.90
2.80
2.52
2.03
1.38
0.61
-0.19
-0.93
-1.54
-1.95
-2.16
-2.24
-2.30
-2.48
-2.90
-3.58
-4.48
-5.46
-6.31
-6.86
-6.96
-6.57
-5.70
-4.47
-3.06
-1.69
-0.53
0.33
0.91
1.34
1.75
2.25
2.88
3.58
4.28
4.84
5.19
5.24
4.98
4.45
3.76
3.04
2.47
2.18
2.20
2.45
2.76
2.96
2.92
2.61
2.08
1.40
0.63
-0.14
-0.87
-1.44
-1.80
-1.92
-1.86
-1.76
-1.77
-2.01
-2.53
-3.30
-4.24
-5.25
-6.20
-6.93
-7.27
-7.07
-6.27
-4.95
-3.31
-1.65
-0.20
0.89
1.63
2.12
2.51
2.90
3.31
3.70
4.00
4.15
4.12
3.90
3.50
2.94
2.28
1.67
1.27
1.20
1.47
1.92
2.35
2.55
2.48
2.22
1.90
1.62
1.37
1.02
0.49
-0.24
-1.05
-1.79
-2.35
-2.74
-3.02
-3.29
-3.58
-3.89
-4.17
-4.40
-4.61
-4.85
-5.15
-5.47
-5.69
-5.68
-5.37
-4.77
-3.98
-3.13
-2.28
-1.42
-0.50
0.50
1.52
2.43
3.08
3.41
3.44
3.28
3.08
2.95
2.93
3.01
3.12
3.17
3.08
2.80
2.40
2.05
1.89
2.01
2.34
2.70
2.85
2.70
2.25
1.63
0.96
0.34
-0.22
-0.72
-1.12
-1.40
-1.52
-1.51
-1.45
-1.47
-1.69
-2.15
-2.80
-3.53
-4.14
-4.43
-4.22
-3.47
-2.29
-0.95
0.23
1.05
1.43
1.53
1.59
1.83
2.34
3.04
3.72
4.18
4.30
4.11
3.78
3.52
3.45
3.57
3.79
3.93
3.90
3.75
3.57
3.46
3.43
3.39
3.19
2.76
2.14
1.45
0.80
0.26
-0.20
-0.63
-1.08
-1.55
-2.04
-2.55
-3.10
-3.70
-4.31
-4.86
-5.23
-5.33
-5.13
-4.64
-3.93
-3.10
-2.30
-1.65
-1.23
-1.02
-0.89
-0.61
-0.04
0.85
1.92
2.90
3.54
3.74
3.53
3.11
2.70
2.43
2.33
2.31
2.26
2.12
1.87
1.56
1.25
0.98
0.76
0.60
0.49
0.45
0.49
0.55
0.54
0.32
-0.18
-0.91
-1.73
-2.46
-2.96
-3.21
-3.34
-3.51
-3.86
-4.37
-4.90
-5.28
-5.35
-5.11
-4.66
-4.14
-3.67
-3.24
-2.81
-2.29
-1.66
-0.97
-0.29
0.35
0.94
1.53
2.15
2.79
3.36
3.74
3.83
3.59
3.08
2.44
1.83
1.40
1.22
1.26
1.44
1.62
1.73
1.70
1.58
1.39
1.14
0.77
0.24
-0.46
-1.28
-2.09
-2.74
-3.19
-3.50
-3.79
-4.18
-4.64
-5.08
-5.34
-5.40
-5.34
-5.35
-5.60
-6.04
-6.46
-6.55
-6.10
-5.13
-3.91
-2.81
-2.08
-1.75
-1.62
-1.38
-0.83
0.05
1.04
1.89
2.40
2.56
2.52
2.48
2.55
2.73
2.90
2.96
2.86
2.67
2.51
2.48
2.61
2.80
2.95
2.90
2.60
2.11
1.54
1.03
0.70
0.60
0.67
0.79
0.78
0.52
-0.01
-0.71
-1.41
-1.93
-2.24
-2.40
-2.58
-2.90
-3.36
-3.78
-3.91
-3.56
-2.72
-1.55
-0.34
0.63
1.22
1.47
1.53
1.60
1.84
2.30
2.96
3.70
4.35
4.75
4.80
4.47
3.85
3.09
2.43
2.06
2.13
2.62
3.36
4.10
4.53
4.42
3.67
2.42
1.00
-0.04
-0.09
1.34
4.37
8.57
13.02
16.50
18.00
17.11
14.20
10.29
6.52
3.75
2.24
1.76
1.83
2.04
2.19
2.18
1.84
0.92
-0.88
-3.71
-7.30
-11.01
-13.97
-15.39
-14.90
-12.67
-9.37
-5.87
-3.00
-1.25
-0.68
-0.99
-1.70
-2.36
-2.74
-2.90
-3.08
-3.55
-4.44
-5.62
-6.79
-7.56
-7.68
-7.11
-6.02
-4.68
-3.35
-2.20
-1.37
-0.91
-0.85
-1.14
-1.62
-2.11
-2.50
-2.77
-3.05
-3.44
-3.97
-4.55
-5.03
-5.29
-5.25
-4.96
-4.43
-3.70
-2.80
-1.80
-0.85
-0.09
0.44
0.82
1.29
2.04
3.13
4.41
5.57
6.33
6.54
6.27
5.76
5.29
5.05
5.05
5.17
5.22
5.07
4.68
4.13
3.55
3.05
2.64
2.29
1.92
1.48
0.95
0.30
-0.52
-1.55
-2.82
-4.20
-5.43
-6.15
-6.09
-5.23
-3.86
-2.46
-1.56
-1.45
-2.13
-3.27
-4.45
-5.30
-5.60
-5.34
-4.58
-3.46
-2.09
-0.62
0.74
1.75
2.25
2.22
1.81
1.33
1.07
1.25
1.90
2.88
3.98
4.95
5.59
5.76
5.37
4.44
3.11
1.69
0.51
-0.14
-0.20
0.19
0.69
0.97
0.83
0.28
-0.48
-1.21
-1.68
-1.84
-1.76
-1.62
-1.62
-1.90
-2.45
-3.13
-3.77
-4.20
-4.43
-4.61
-4.94
-5.52
-6.21
-6.77
-6.90
-6.47
-5.59
-4.50
-3.46
-2.59
-1.83
-1.04
-0.08
1.01
2.07
2.89
3.30
3.29
3.02
2.73
2.62
2.82
3.29
3.88
4.41
4.74
4.82
4.70
4.44
4.12
3.74
3.35
2.95
2.61
2.36
2.19
2.00
1.72
1.30
0.78
0.24
-0.25
-0.71
-1.27
-2.06
-3.14
-4.48
-5.88
-7.16
-8.15
-8.79
-9.04
-8.88
-8.22
-7.00
-5.23
-3.06
-0.77
1.37
3.12
4.42
5.34
5.97
6.37
6.54
6.43
6.02
5.39
4.71
4.17
3.92
4.01
4.37
4.88
5.39
5.80
6.07
6.14
6.00
5.64
5.09
4.43
3.77
3.18
2.71
2.35
2.03
1.70
1.33
0.88
0.29
-0.46
-1.41
-2.53
-3.69
-4.75
-5.60
-6.21
-6.63
-7.01
-7.47
-8.03
-8.61
-9.02
-9.05
-8.50
-7.36
-5.76
-3.94
-2.20
-0.70
0.50
1.46
2.26
2.91
3.35
3.53
3.47
3.28
3.11
3.09
3.23
3.43
3.57
3.59
3.51
3.40
3.35
3.39
3.48
3.55
3.56
3.47
3.32
3.13
2.95
2.75
2.50
2.09
1.46
0.61
-0.39
-1.37
-2.17
-2.69
-2.95
-3.07
-3.26
-3.69
-4.43
-5.37
-6.26
-6.79
-6.76
-6.10
-4.98
-3.67
-2.43
-1.41
-0.59
0.14
0.86
1.55
2.11
2.49
2.72
2.97
3.38
4.03
4.80
5.45
5.63
5.08
3.76
1.90
-0.04
-1.54
-2.06
-1.26
0.94
4.20
8.05
11.94
15.50
18.48
20.66
22.03
22.71
22.90
22.64
22.01
21.05
19.75
18.04
15.74
12.93
9.90
6.87
3.41
-1.33
-8.46
-18.87
-32.66
-48.77
-64.93
-78.31
-86.37
-88.06
-83.61
-74.67
-63.76
-51.81
-41.79
-38.43
-46.52
-65.81
-93.67
-124.40
-151.51
-169.09
-173.79
-164.52
-143.09
-112.85
-76.80
-36.73
7.18
55.06
106.39
158.88
210.03
255.71
291.17
312.53
317.86
308.01
285.87
255.85
212.25
157.08
98.23
45.37
4.68
-22.76
-37.84
-44.56
-45.92
-44.46
-40.82
-36.27
-32.53
-30.70
-30.92
-32.42
-34.77
-37.92
-42.48
-47.80
-53.62
-59.64
-65.36
-70.10
-73.37
-75.38
-76.45
-76.77
-73.29
-64.03
-49.27
-31.78
-15.41
-3.31
2.98
3.81
0.81
-3.54
-7.70
-11.13
-13.78
-15.61
-16.24
-15.20
-12.17
-7.31
-0.92
5.94
11.96
16.23
18.46
18.90
18.04
16.39
14.46
12.71
11.44
10.89
11.49
13.51
17.01
21.77
26.86
31.44
34.81
36.40
34.64
28.66
18.66
6.09
-6.75
-17.49
-24.26
-26.80
-25.70
-21.97
-16.67
-10.78
-5.02
0.17
4.52
7.68
9.32
9.32
7.82
5.30
2.31
-0.74
-3.70
-6.51
-9.07
-11.18
-12.51
-12.79
-11.93
-10.16
-7.94
-5.70
-3.44
-0.81
2.66
7.11
12.23
17.16
20.80
22.11
20.00
14.18
5.73
-3.25
-10.70
-15.41
-17.25
-16.82
-15.05
-12.89
-10.93
-9.30
-7.88
-6.94
-6.20
-5.51
-4.71
-3.57
-1.86
0.65
3.92
7.51
10.65
12.61
12.94
11.61
9.14
6.19
3.40
1.16
-0.53
-1.89
-3.15
-4.46
-5.78
-6.96
-7.85
-8.34
-8.43
-8.21
-7.80
-7.33
-6.89
-6.50
-6.10
-5.54
-4.60
-3.06
-0.78
2.22
5.72
9.32
12.54
14.98
16.42
16.91
16.66
15.94
14.97
13.81
12.46
10.82
8.84
6.52
3.91
1.08
-1.89
-4.96
-8.06
-11.09
-13.86
-16.15
-17.79
-18.72
-19.00
-18.82
-18.36
-17.69
-16.77
-15.49
-13.79
-11.80
-9.86
-8.36
-7.58
-7.64
-8.39
-9.47
-10.54
-11.41
-12.11
-12.83
-13.75
-14.95
-16.33
-17.69
-18.64
-18.80
-18.05
-16.56
-14.69
-12.79
-11.06
-9.55
-8.13
-6.41
-4.07
-1.13
2.00
4.69
6.44
7.11
6.96
6.56
6.83
8.56
11.99
16.75
22.07
27.31
32.07
36.22
38.24
36.90
32.23
25.82
19.72
15.36
13.33
13.34
14.38
15.14
14.72
12.87
10.05
7.44
5.52
4.67
4.96
6.07
7.60
9.40
11.39
13.49
15.29
16.15
15.58
13.39
9.44
4.41
-0.37
-3.57
-4.44
-3.39
-1.92
-1.95
-4.98
-11.33
-19.72
-27.82
-33.19
-34.34
-31.19
-24.92
-17.12
-9.22
-2.15
3.65
7.90
10.33
10.74
9.18
6.03
1.97
-2.37
-6.72
-11.16
-16.01
-21.48
-27.39
-33.08
-37.54
-39.76
-39.08
-35.40
-29.18
-21.22
-12.36
-3.33
5.39
13.41
20.27
25.43
28.38
28.85
27.03
23.50
19.07
14.44
10.13
6.35
3.27
1.03
-0.16
-0.14
0.96
2.59
3.99
4.52
3.94
2.55
0.93
-0.39
-1.14
-1.26
-0.72
0.86
4.28
9.82
17.07
24.41
29.35
29.82
25.24
16.74
6.63
-2.54
-9.01
-12.25
-12.99
-12.58
-12.35
-12.86
-14.08
-15.59
-16.86
-17.53
-17.48
-16.90
-16.04
-15.02
-13.83
-12.42
-10.79
-9.30
-8.50
-8.88
-10.81
-14.20
-18.49
-22.81
-26.30
-28.43
-29.21
-29.14
-29.04
-29.64
-31.31
-33.95
-37.04
-39.95
-42.18
-43.46
-43.73
-42.99
-41.15
-38.03
-33.42
-27.30
-19.93
-11.90
-3.93
3.33
9.46
14.39
18.32
21.66
24.91
28.50
32.70
37.46
42.47
47.19
51.05
53.60
54.73
54.59
53.49
51.74
49.58
47.10
44.35
41.40
38.36
35.34
32.45
29.71
27.10
24.58
22.14
19.78
17.58
15.55
13.72
11.99
10.27
8.50
6.65
4.79
3.03
1.48
0.16
-0.93
-1.84
-2.62
-3.32
-3.99
-4.66
-5.34
-6.00
-6.52
-6.77
-6.65
-6.14
-5.31
-4.31
-3.30
-2.41
-1.74
-1.31
-1.15
-1.20
-1.38
-1.57
-1.67
-1.63
-1.49
-1.29
-1.12
-1.07
-1.20
-1.57
-2.17
-2.91
-3.64
-4.20
-4.46
-4.44
-4.25
-4.03
-3.92
-3.95
-4.08
-4.30
-4.62
-5.11
-5.80
-6.68
-7.60
-8.39
-8.88
-9.01
-8.74
-8.09
-7.09
-5.77
-4.23
-2.56
-0.91
0.60
1.89
2.93
3.75
4.40
4.92
5.36
5.73
6.04
6.30
6.51
6.66
6.72
6.67
6.50
6.22
5.85
5.41
4.91
4.35
3.74
3.11
2.47
1.86
1.32
0.89
0.56
0.32
0.14
-0.04
-0.27
-0.58
-0.97
-1.40
-1.82
-2.19
-2.47
-2.64
-2.70
-2.65
-2.47
-2.17
-1.75
-1.26
-0.75
-0.27
0.14
0.47
0.74
0.99
1.25
1.54
1.85
2.15
2.42
2.60
2.70
2.71
2.65
2.58
2.49
2.40
2.28
2.11
1.89
1.65
1.43
1.24
1.07
0.89
0.66
0.37
0.03
-0.33
-0.77
-1.31
-2.00
-2.78
-3.53
-4.06
-4.29
-4.21
-3.95
-3.66
-3.39
-3.10
-2.72
-2.18
-1.55
-1.02
-0.72
-0.65
-0.67
-0.66
-0.67
-0.91
-1.59
-2.66
-3.68
-3.99
-3.09
-0.96
1.83
4.41
5.99
6.26
5.39
3.87
2.20
0.66
-0.68
-1.89
-3.06
-4.24
-5.43
-6.51
-7.27
-7.36
-6.49
-4.52
-1.58
1.92
5.42
8.46
10.70
12.06
12.62
12.54
12.01
11.21
10.30
9.42
8.67
8.08
7.61
7.11
6.40
5.34
3.88
2.07
0.05
-1.97
-3.76
-5.16
-6.07
-6.54
-6.75
-6.93
-7.28
-7.87
-8.61
-9.28
-9.65
-9.63
-9.29
-8.76
-8.22
-7.75
-7.37
-7.07
-6.81
-6.58
-6.35
-6.08
-5.74
-5.35
-4.95
-4.63
-4.43
-4.28
-4.03
-3.51
-2.55
-1.09
0.83
3.03
5.27
7.32
8.98
10.17
10.94
11.48
11.97
12.58
13.36
14.23
15.02
15.55
15.66
15.27
14.42
13.19
11.67
9.93
8.00
5.92
3.73
1.57
-0.42
-2.10
-3.40
-4.38
-5.14
-5.81
-6.45
-7.06
-7.59
-7.99
-8.26
-8.42
-8.52
-8.60
-8.75
-9.04
-9.55
-10.30
-11.19
-12.03
-12.63
-12.83
-12.64
-12.14
-11.46
-10.70
-9.85
-8.88
-7.82
-6.70
-5.62
-4.64
-3.73
-2.78
-1.69
-0.41
1.01
2.42
3.68
4.70
5.46
5.98
6.28
6.35
6.18
5.80
5.27
4.69
4.15
3.69
3.28
2.84
2.29
1.58
0.69
-0.28
-1.22
-2.02
-2.62
-3.05
-3.42
-3.88
-4.52
-5.33
-6.23
-7.12
-7.93
-8.63
-9.27
-9.92
-10.60
-11.34
-12.13
-12.93
-13.72
-14.43
-15.02
-15.46
-15.72
-15.78
-15.62
-15.16
-14.28
-12.85
-10.77
-8.02
-4.70
-1.05
2.59
5.84
8.38
10.09
11.08
11.71
12.45
13.71
15.69
18.36
21.53
24.93
28.37
31.67
34.64
37.02
38.48
38.77
37.77
35.64
32.73
29.46
26.16
22.99
19.90
16.74
13.37
9.68
5.69
1.45
-2.91
-7.22
-11.22
-14.65
-17.25
-18.87
-19.59
-19.69
-19.55
-19.58
-20.01
-20.88
-22.06
-23.30
-24.31
-24.74
-24.31
-22.82
-20.28
-16.95
-13.28
-9.81
-6.95
-4.83
-3.33
-2.20
-1.19
-0.18
0.82
1.76
2.63
3.45
4.21
4.81
5.13
5.01
4.45
3.56
2.59
1.82
1.41
1.36
1.49
1.49
1.04
-0.08
-1.94
-4.38
-7.02
-9.43
-11.21
-12.15
-12.23
-11.66
-10.70
-9.63
-8.65
-7.90
-7.41
-7.10
-6.81
-6.37
-5.69
-4.79
-3.90
-3.26
-3.10
-3.43
-4.11
-4.88
-5.48
-5.75
-5.66
-5.28
-4.79
-4.38
-4.23
-4.46
-5.09
-5.98
-6.94
-7.75
-8.21
-8.23
-7.79
-6.90
-5.59
-3.94
-2.04
-0.01
2.02
4.00
5.91
7.73
9.30
10.44
10.94
10.76
10.03
9.06
8.18
7.56
7.18
6.89
6.52
6.05
5.65
5.63
6.24
7.54
9.25
10.87
11.79
11.52
9.90
7.11
3.54
-0.38
-4.32
-8.13
-11.71
-14.93
-17.55
-19.32
-20.09
-19.80
-18.55
-16.51
-13.87
-10.86
-7.81
-5.08
-3.03
-1.83
-1.44
-1.57
-1.84
-1.92
-1.69
-1.21
-0.70
-0.38
-0.43
-0.88
-1.57
-2.25
-2.57
-2.21
-0.93
1.33
4.45
8.12
11.90
15.29
17.88
19.42
19.88
19.47
18.51
17.33
16.19
15.19
14.35
13.63
13.00
12.42
11.90
11.41
10.90
10.26
9.46
8.49
7.43
6.42
5.56
4.93
4.50
4.20
3.91
3.56
3.10
2.53
1.88
1.19
0.50
-0.19
-0.86
-1.47
-1.97
-2.28
-2.34
-2.19
-1.94
-1.77
-1.85
-2.17
-2.57
-2.79
-2.63
-2.02
-1.13
-0.20
0.51
0.93
1.15
1.32
1.59
1.98
2.39
2.67
2.69
2.42
1.97
1.50
1.18
1.09
1.21
1.44
1.67
1.83
1.89
1.87
1.76
1.59
1.33
1.03
0.74
0.52
0.42
0.41
0.39
0.28
0.01
-0.39
-0.84
-1.23
-1.49
-1.65
-1.77
-1.92
-2.16
-2.44
-2.68
-2.73
-2.51
-1.98
-1.22
-0.34
0.46
1.05
1.36
1.42
1.35
1.29
1.37
1.62
1.97
2.26
2.35
2.21
1.89
1.55
1.34
1.33
1.46
1.65
1.78
1.81
1.74
1.58
1.34
1.00
0.58
0.12
-0.28
-0.58
-0.76
-0.88
-1.01
-1.22
-1.52
-1.90
-2.32
-2.69
-2.95
-3.06
-3.01
-2.85
-2.66
-2.55
-2.53
-2.57
-2.57
-2.46
-2.21
-1.83
-1.35
-0.77
-0.06
0.79
1.72
2.58
3.22
3.50
3.38
2.96
2.40
1.89
1.56
1.47
1.62
1.90
2.21
2.43
2.49
2.34
2.02
1.59
1.13
0.72
0.43
0.27
0.22
0.18
0.08
-0.14
-0.48
-0.86
-1.22
-1.51
-1.72
-1.89
-2.04
-2.19
-2.31
-2.36
-2.33
-2.23
-2.11
-2.00
-1.90
-1.80
-1.65
-1.43
-1.12
-0.72
-0.27
0.17
0.57
0.91
1.19
1.49
1.86
2.29
2.72
3.03
3.14
3.00
2.68
2.29
1.92
1.65
1.46
1.32
1.23
1.17
1.18
1.24
1.30
1.28
1.09
0.70
0.14
-0.46
-0.98
-1.31
-1.43
-1.39
-1.31
-1.29
-1.36
-1.49
-1.64
-1.74
-1.81
-1.87
-1.98
-2.14
-2.30
-2.37
-2.27
-1.97
-1.53
-1.06
-0.68
-0.47
-0.37
-0.25
0.04
0.56
1.27
1.98
2.44
2.53
2.26
1.78
1.29
0.93
0.73
0.64
0.57
0.50
0.45
0.44
0.47
0.47
0.40
0.20
-0.07
-0.34
-0.52
-0.59
-0.55
-0.49
-0.49
-0.61
-0.90
-1.32
-1.81
-2.28
-2.64
-2.84
-2.91
-2.91
-2.94
-3.05
-3.23
-3.40
-3.47
-3.40
-3.16
-2.81
-2.40
-1.94
-1.50
-1.08
-0.76
-0.56
-0.51
-0.55
-0.60
-0.57
-0.40
-0.10
0.30
0.69
1.00
1.20
1.27
1.26
1.23
1.22
1.24
1.28
1.27
1.15
0.91
0.58
0.24
-0.03
-0.18
-0.25
-0.28
-0.35
-0.47
-0.61
-0.69
-0.68
-0.59
-0.51
-0.53
-0.70
-0.99
-1.33
-1.63
-1.81
-1.84
-1.73
-1.44
-1.00
-0.46
0.09
0.52
0.73
0.76
0.71
0.71
0.85
1.07
1.26
1.31
1.19
0.99
0.86
0.90
1.09
1.32
1.44
1.37
1.13
0.82
0.58
0.46
0.44
0.42
0.29
-0.00
-0.43
-0.92
-1.38
-1.73
-1.95
-2.06
-2.11
-2.15
-2.21
-2.32
-2.48
-2.70
-2.95
-3.25
-3.59
-3.93
-4.24
-4.44
-4.45
-4.21
-3.71
-3.01
-2.20
-1.37
-0.58
0.12
0.71
1.17
1.47
1.61
1.61
1.55
1.50
1.53
1.63
1.77
1.85
1.85
1.73
1.50
1.20
0.86
0.51
0.20
-0.03
-0.15
-0.15
-0.07
0.05
0.13
0.14
0.03
-0.21
-0.57
-1.00
-1.43
-1.77
-1.98
-2.06
-2.08
-2.14
-2.31
-2.56
-2.80
-2.93
-2.89
-2.69
-2.43
-2.18
-1.95
-1.68
-1.29
-0.75
-0.10
0.54
1.05
1.36
1.51
1.55
1.56
1.62
1.75
1.93
2.11
2.24
2.30
2.28
2.20
2.11
2.04
2.00
1.96
1.90
1.78
1.63
1.47
1.32
1.15
0.89
0.48
-0.08
-0.74
-1.39
-1.91
-2.24
-2.38
-2.41
-2.42
-2.48
-2.61
-2.76
-2.85
-2.84
-2.71
-2.50
-2.26
-2.01
-1.73
-1.34
-0.81
-0.16
0.52
1.12
1.57
1.90
2.20
2.53
2.91
3.26
3.51
3.64
3.68
3.73
3.85
4.04
4.22
4.32
4.26
4.03
3.64
3.15
2.63
2.18
1.83
1.61
1.45
1.24
0.91
0.41
-0.20
-0.81
-1.34
-1.75
-2.05
-2.28
-2.46
-2.55
-2.50
-2.31
-2.02
-1.72
-1.47
-1.29
-1.09
-0.80
-0.33
0.27
0.93
1.49
1.88
2.09
2.16
2.16
2.15
2.12
2.05
1.91
1.70
1.46
1.24
1.08
1.02
1.08
1.20
1.31
1.31
1.17
0.89
0.58
0.30
0.07
-0.16
-0.47
-0.89
-1.39
-1.89
-2.29
-2.62
-2.95
-3.34
-3.81
-4.22
-4.42
-4.31
-3.92
-3.39
-2.94
-2.66
-2.53
-2.43
-2.14
-1.54
-0.60
0.55
1.72
2.69
3.32
3.57
3.54
3.37
3.22
3.20
3.34
3.57
3.84
4.05
4.12
4.01
3.71
3.26
2.75
2.25
1.84
1.54
1.32
1.14
0.97
0.78
0.58
0.37
0.17
0.00
-0.12
-0.23
-0.35
-0.55
-0.87
-1.31
-1.85
-2.38
-2.81
-3.08
-3.17
-3.11
-2.99
-2.85
-2.73
-2.60
-2.41
-2.12
-1.74
-1.29
-0.82
-0.40
-0.05
0.21
0.40
0.51
0.56
0.57
0.62
0.76
1.04
1.45
1.89
2.22
2.32
2.14
1.75
1.28
0.89
0.68
0.62
0.62
0.57
0.42
0.18
-0.08
-0.30
-0.49
-0.70
-0.98
-1.34
-1.77
-2.16
-2.46
-2.64
-2.69
-2.66
-2.55
-2.40
-2.18
-1.93
-1.67
-1.41
-1.13
-0.79
-0.34
0.19
0.73
1.17
1.43
1.51
1.52
1.59
1.80
2.14
2.47
2.63
2.54
2.22
1.77
1.32
0.95
0.69
0.51
0.41
0.38
0.46
0.66
0.91
1.14
1.21
1.06
0.68
0.15
-0.44
-0.96
-1.37
-1.64
-1.79
-1.86
-1.87
-1.85
-1.86
-1.94
-2.13
-2.44
-2.80
-3.12
-3.31
-3.28
-3.00
-2.49
-1.80
-1.00
-0.19
0.51
1.04
1.36
1.51
1.57
1.60
1.63
1.62
1.52
1.32
1.05
0.80
0.69
0.75
0.96
1.22
1.42
1.49
1.40
1.21
1.00
0.81
0.69
0.61
0.54
0.45
0.29
0.07
-0.23
-0.58
-0.99
-1.42
-1.88
-2.36
-2.83
-3.23
-3.51
-3.58
-3.44
-3.11
-2.70
-2.32
-2.06
-1.94
-1.89
-1.77
-1.47
-0.92
-0.18
0.63
1.33
1.81
2.04
2.07
2.03
1.99
1.99
1.98
1.92
1.80
1.64
1.49
1.38
1.26
1.08
0.78
0.40
0.03
-0.23
-0.30
-0.22
-0.08
0.01
-0.02
-0.17
-0.39
-0.66
-0.94
-1.23
-1.51
-1.75
-1.93
-2.07
-2.22
-2.41
-2.66
-2.92
-3.11
-3.12
-2.93
-2.53
-2.02
-1.50
-1.06
-0.76
-0.57
-0.46
-0.33
-0.12
0.17
0.49
0.77
0.91
0.92
0.81
0.68
0.60
0.61
0.69
0.79
0.89
0.99
1.12
1.29
1.43
1.44
1.25
0.86
0.37
-0.07
-0.32
-0.34
-0.22
-0.11
-0.15
-0.38
-0.74
-1.12
-1.42
-1.62
-1.72
-1.77
-1.76
-1.71
-1.62
-1.57
-1.60
-1.75
-1.96
-2.09
-1.99
-1.58
-0.91
-0.12
0.64
1.27
1.80
2.25
2.64
2.92
3.01
2.87
2.56
2.21
1.97
1.91
1.99
2.10
2.11
1.96
1.72
1.47
1.32
1.25
1.20
1.05
0.76
0.33
-0.12
-0.49
-0.75
-0.92
-1.08
-1.28
-1.51
-1.69
-1.78
-1.80
-1.84
-1.99
-2.27
-2.58
-2.77
-2.72
-2.41
-1.95
-1.48
-1.09
-0.74
-0.32
0.28
1.05
1.86
2.51
2.85
2.84
2.58
2.24
1.95
1.77
1.68
1.63
1.61
1.63
1.68
1.73
1.73
1.59
1.33
1.00
0.71
0.52
0.44
0.39
0.31
0.18
0.00
-0.19
-0.38
-0.60
-0.88
-1.25
-1.66
-2.03
-2.29
-2.40
-2.44
-2.52
-2.76
-3.16
-3.63
-3.98
-4.03
-3.69
-2.99
-2.07
-1.15
-0.40
0.10
0.39
0.63
0.94
1.40
1.95
2.49
2.88
3.02
2.92
2.65
2.33
2.05
1.88
1.82
1.83
1.87
1.92
1.96
2.00
2.01
1.96
1.79
1.46
0.95
0.34
-0.27
-0.75
-1.02
-1.07
-0.96
-0.78
-0.66
-0.65
-0.79
-1.09
-1.52
-2.04
-2.59
-3.09
-3.46
-3.60
-3.49
-3.14
-2.64
-2.08
-1.55
-1.10
-0.73
-0.38
-0.01
0.39
0.79
1.17
1.49
1.75
1.99
2.23
2.45
2.62
2.66
2.57
2.40
2.21
2.06
1.96
1.86
1.70
1.47
1.23
1.07
1.05
1.13
1.21
1.16
0.90
0.43
-0.13
-0.67
-1.08
-1.35
-1.48
-1.50
-1.45
-1.36
-1.25
-1.21
-1.29
-1.56
-2.04
-2.65
-3.27
-3.74
-3.96
-3.88
-3.55
-3.08
-2.55
-2.03
-1.51
-0.98
-0.39
0.27
0.96
1.62
2.15
2.48
2.60
2.57
2.46
2.36
2.29
2.24
2.20
2.15
2.09
2.05
2.05
2.05
2.05
2.00
1.92
1.83
1.76
1.74
1.76
1.77
1.72
1.55
1.22
0.71
0.06
-0.67
-1.38
-1.98
-2.39
-2.61
-2.68
-2.70
-2.76
-2.86
-2.96
-2.97
-2.80
-2.42
-1.90
-1.39
-1.00
-0.77
-0.63
-0.49
-0.28
0.00
0.25
0.36
0.30
0.15
0.09
0.27
0.71
1.26
1.67
1.71
1.34
0.67
0.01
-0.29
-0.06
0.63
1.47
2.10
2.24
1.81
0.94
0.02
-0.46
-0.12
1.05
2.64
4.07
4.86
4.79
4.03
3.19
3.08
4.24
6.60
9.46
12.00
13.69
14.52
14.91
15.65
17.52
20.86
25.51
31.08
37.44
44.63
52.19
57.00
54.48
40.85
16.21
-15.11
-46.93
-74.01
-93.68
-105.84
-111.66
-111.66
-104.91
-89.89
-66.41
-37.05
-6.78
18.78
35.79
43.45
44.09
41.54
39.15
38.39
38.87
39.62
39.68
38.96
37.87
36.95
36.37
35.96
35.32
34.28
33.18
32.72
33.64
36.23
40.23
45.07
50.08
54.80
59.07
63.06
67.05
71.32
75.92
80.52
84.26
85.86
83.79
76.98
65.46
50.66
35.16
21.87
13.12
10.03
12.37
18.95
28.05
37.78
46.26
51.79
53.21
50.38
44.50
37.87
33.18
32.49
36.56
44.63
55.03
65.93
76.09
85.10
93.15
100.66
108.01
115.35
122.65
129.53
135.11
137.90
135.94
127.24
110.52
85.63
53.64
16.40
-23.99
-65.75
-107.39
-147.41
-183.75
-213.63
-234.02
-242.75
-239.60
-226.66
-207.66
-186.43
-165.53
-145.73
-126.55
-107.65
-89.75
-74.64
-64.13
-59.03
-57.82
-57.06
-52.90
-42.91
-26.87
-6.41
16.05
38.41
58.91
76.33
89.50
97.18
98.28
92.60
81.33
66.81
51.60
36.61
21.76
6.55
-9.14
-24.55
-37.75
-46.13
-47.77
-42.62
-35.16
-30.10
-30.10
-35.08
-43.22
-52.19
-60.05
-66.14
-71.12
-80.60
-97.36
-119.39
-142.10
-162.11
-179.09
-194.86
-211.69
-230.88
-258.98
-297.42
-341.94
-386.65
-429.32
-471.89
-516.93
-564.01
-608.22
-650.09
-684.66
-702.56
-695.96
-664.61
-615.41
-557.40
-497.42
-383.70
-205.43
4.97
197.56
342.10
435.08
487.10
512.00
521.67
524.29
515.44
492.97
460.81
426.65
396.27
371.78
353.12
339.46
329.90
316.52
295.33
268.40
241.25
218.03
199.97
186.53
176.63
169.51
160.33
146.93
131.03
116.26
105.03
97.58
93.63
91.57
90.51
88.00
83.21
77.26
72.37
70.21
71.24
74.71
78.69
80.60
76.95
65.67
47.20
24.45
1.55
-17.73
-31.17
-38.65
-41.48
-41.59
-40.49
-38.83
-36.64
-33.92
-30.93
-28.26
-26.51
-25.72
-25.44
-24.95
-23.56
-21.00
-17.64
-14.18
-11.35
-9.63
-9.05
-9.21
-9.58
-9.59
-8.95
-7.63
-5.86
-3.96
-2.25
-0.92
-0.01
0.56
0.93
1.20
1.38
1.44
1.35
1.16
1.07
1.36
2.24
3.83
6.03
8.55
10.99
12.87
13.77
13.45
11.81
8.98
5.35
1.49
-1.95
-4.39
-5.43
-4.94
-3.03
-0.20
2.80
5.18
6.34
6.11
4.76
2.83
0.98
-0.35
-1.23
-2.22
-4.01
-7.15
-11.73
-17.42
-23.70
-30.07
-35.21
-37.78
-36.98
-33.09
-27.45
-21.86
-17.91
-16.38
-16.79
-17.36
-15.73
-10.08
-0.07
12.79
25.63
35.46
40.22
39.50
34.45
26.92
18.69
10.95
4.36
-1.08
-5.22
-7.74
-8.21
-6.36
-2.42
2.83
8.17
12.34
14.57
14.85
13.77
12.20
10.80
9.74
8.72
7.31
5.33
2.94
0.63
-1.11
-2.04
-2.24
-2.06
-1.95
-2.25
-3.05
-4.23
-5.45
-6.39
-6.82
-6.67
-6.05
-5.21
-4.42
-3.85
-3.54
-3.39
-3.26
-3.01
-2.62
-2.18
-1.78
-1.46
-1.21
-0.97
-0.68
-0.37
-0.12
-0.00
-0.03
-0.13
-0.19
-0.14
0.01
0.19
0.31
0.33
0.27
0.19
0.11
0.03
-0.07
-0.21
-0.33
-0.38
-0.30
-0.11
0.10
0.24
0.25
0.15
-0.00
-0.13
-0.18
-0.19
-0.17
-0.19
-0.28
-0.46
-0.73
-1.06
-1.40
-1.67
-1.77
-1.61
-1.16
-0.48
0.31
1.04
1.54
1.71
1.54
1.10
0.53
-0.05
-0.54
-0.88
-1.07
-1.15
-1.17
-1.19
-1.28
-1.49
-1.85
-2.33
-2.84
-3.28
-3.56
-3.64
-3.50
-3.18
-2.72
-2.16
-1.54
-0.91
-0.31
0.22
0.64
0.96
1.21
1.40
1.55
1.67
1.78
1.85
1.89
1.88
1.83
1.77
1.72
1.73
1.75
1.74
1.63
1.37
0.99
0.55
0.19
0.03
0.10
0.36
0.73
1.14
1.52
1.86
2.25
2.83
3.75
4.98
6.28
7.25
7.41
6.50
4.59
2.26
0.41
-0.17
0.71
2.54
4.25
4.75
3.33
0.03
-4.31
-8.36
-11.00
-11.86
-11.47
-10.88
-11.06
-12.40
-14.52
-16.31
-16.41
-13.94
-8.93
-2.06
5.95
14.61
23.26
29.46
29.17
19.04
-0.73
-25.64
-48.56
-62.55
-63.67
-52.46
-33.42
-12.55
5.35
18.01
25.47
28.83
29.18
27.18
23.34
18.37
13.73
11.09
11.52
14.55
17.90
18.04
11.43
-3.54
-25.14
-47.82
-63.78
-66.23
-52.73
-26.61
4.40
31.68
49.62
57.12
56.57
51.77
45.63
38.86
30.62
20.00
7.36
-5.34
-15.38
-20.37
-19.09
-11.88
-0.65
11.60
21.64
26.82
26.38
21.58
14.97
9.12
5.35
3.19
0.97
-2.92
-8.94
-15.97
-21.95
-25.03
-24.44
-20.87
-15.97
-11.60
-8.89
-7.94
-7.96
-7.97
-7.37
-6.31
-5.40
-5.09
-5.28
-5.49
-5.15
-4.32
-3.86
-5.01
-8.33
-12.82
-16.13
-15.78
-10.89
-3.12
3.86
6.39
3.15
-3.84
-10.12
-11.34
-5.67
5.21
17.23
26.25
30.20
29.68
26.99
24.34
22.53
20.95
18.62
15.28
11.78
9.52
9.64
12.01
15.13
16.91
15.65
10.68
2.30
-8.41
-20.01
-30.92
-39.70
-45.39
-47.82
-47.64
-45.80
-42.89
-38.58
-31.86
-21.98
-9.40
3.78
14.57
20.51
20.83
16.89
11.29
6.51
3.66
2.33
1.37
-0.07
-1.79
-2.73
-1.68
1.90
7.44
13.44
18.10
20.06
19.07
16.08
12.84
11.14
11.95
14.82
17.92
18.83
15.72
8.40
-1.28
-10.03
-14.63
-13.41
-7.10
1.49
8.72
11.69
9.32
2.52
-6.55
-15.35
-21.64
-23.91
-21.51
-14.74
-4.89
5.99
15.63
22.28
25.16
24.44
20.86
15.11
7.68
-0.98
-9.98
-17.87
-22.90
-23.79
-20.45
-14.16
-7.02
-1.08
2.42
3.35
2.37
0.56
-1.19
-2.29
-2.39
-1.48
-0.10
0.50
-1.32
-6.88
-15.97
-26.40
-34.71
-37.77
-34.51
-26.73
-18.46
-13.98
-15.68
-22.80
-31.83
-38.11
-37.71
-28.70
-11.51
11.49
36.58
58.40
71.52
72.29
60.43
39.72
16.79
-1.44
-10.78
-11.37
-7.02
-2.62
-1.36
-3.24
-5.44
-4.22
3.14
17.08
35.55
54.91
70.89
79.62
78.25
65.66
43.24
14.78
-14.39
-39.10
-55.82
-63.31
-62.06
-53.58
-39.52
-20.99
1.07
25.02
47.96
66.32
76.80
77.82
69.38
52.95
31.30
7.63
-15.64
-37.38
-56.99
-73.85
-86.03
-91.62
-89.56
-79.63
-63.08
-42.72
-22.39
-4.87
9.14
22.04
36.38
52.50
67.78
77.03
74.02
53.95
16.36
-35.86
-87.20
-118.05
-119.83
-98.84
-68.23
-39.44
-19.83
-7.23
2.06
12.14
25.27
40.74
56.21
67.24
71.08
66.06
51.60
27.52
-4.00
-37.98
-67.90
-86.91
-88.87
-69.91
-30.71
22.99
79.24
117.79
123.95
98.59
54.03
4.89
-36.96
-64.44
-75.02
-70.30
-53.83
-29.05
0.05
28.86
53.22
70.88
81.47
85.65
83.94
76.69
64.92
50.01
33.23
16.11
0.71
-11.29
-19.48
-24.91
-28.94
-31.84
-32.94
-31.68
-28.17
-23.24
-18.36
-15.14
-14.56
-16.49
-19.41
-21.45
-21.33
-19.01
-15.50
-12.32
-10.82
-11.50
-13.70
-15.80
-16.16
-14.03
-9.96
-5.35
-1.70
0.20
0.65
0.61
1.09
2.50
4.50
6.35
7.46
7.74
7.45
6.80
5.61
3.37
-0.25
-4.97
-9.78
-13.40
-14.95
-14.39
-12.42
-10.04
-7.89
-6.04
-4.22
-2.20
-0.16
1.36
1.77
0.83
-1.15
-3.38
-4.87
-4.79
-2.79
0.86
5.31
9.42
12.16
12.98
12.06
10.16
8.25
6.98
6.43
6.22
5.85
5.14
4.37
4.08
4.64
5.88
7.09
7.33
5.93
2.91
-1.03
-4.89
-7.76
-9.15
-9.05
-7.73
-5.55
-2.90
-0.24
1.96
3.27
3.48
2.70
1.35
-0.02
-0.99
-1.37
-1.31
-1.09
-1.03
-1.30
-1.88
-2.63
-3.32
-3.77
-3.86
-3.63
-3.15
-2.54
-1.90
-1.30
-0.77
-0.30
0.09
0.42
0.64
0.76
0.76
0.72
0.71
0.83
1.10
1.42
1.65
1.62
1.29
0.75
0.22
-0.07
-0.02
0.32
0.75
1.02
0.99
0.67
0.24
-0.08
-0.14
0.07
0.39
0.62
0.64
0.42
0.09
-0.20
-0.39
-0.49
-0.58
-0.73
-0.92
-1.03
-0.97
-0.71
-0.34
-0.05
0.00
-0.23
-0.66
-1.12
-1.45
-1.56
-1.45
-1.18
-0.83
-0.46
-0.12
0.18
0.42
0.61
0.74
0.85
0.97
1.14
1.35
1.57
1.73
1.78
1.68
1.45
1.12
0.75
0.39
0.07
-0.17
-0.33
-0.39
-0.39
-0.35
-0.34
-0.46
-0.76
-1.21
-1.75
-2.20
-2.45
-2.44
-2.22
-1.93
-1.68
-1.58
-1.62
-1.74
-1.88
-2.05
-2.29
-2.62
-2.97
-3.26
-3.39
-3.33
-3.13
-2.94
-2.87
-2.98
-3.15
-3.22
-3.08
-2.73
-2.29
-1.88
-1.57
-1.35
-1.19
-0.96
-0.59
-0.17
0.15
0.21
0.01
-0.37
-0.80
-1.18
-1.30
-1.00
-0.33
0.51
1.28
1.89
2.39
2.91
3.68
5.14
7.60
11.05
15.12
19.30
23.15
26.37
28.85
29.15
26.61
21.92
16.85
12.94
10.66
9.57
8.90
7.94
6.35
4.73
3.32
2.07
0.73
-1.06
-3.47
-6.46
-9.82
-13.27
-16.41
-18.40
-18.85
-17.96
-16.38
-14.88
-13.96
-13.77
-14.19
-14.88
-15.46
-15.67
-15.28
-14.02
-11.74
-8.41
-4.35
-0.19
3.38
5.82
6.87
6.59
5.25
3.17
0.66
-1.99
-4.32
-5.79
-5.94
-4.72
-2.52
-0.17
1.32
1.18
-0.75
-4.06
-7.98
-11.60
-14.04
-14.51
-12.12
-7.01
-0.31
6.18
10.59
11.90
10.12
6.13
1.42
-2.48
-4.64
-4.78
-3.21
-0.41
3.13
6.97
10.80
13.94
15.75
15.74
13.81
10.38
6.22
2.22
-1.03
-3.41
-5.16
-6.68
-8.33
-10.14
-11.93
-13.42
-14.44
-15.08
-15.58
-16.13
-16.79
-17.50
-18.15
-18.73
-19.36
-20.22
-21.42
-22.90
-24.39
-25.51
-25.94
-25.50
-24.18
-22.08
-19.35
-16.12
-12.51
-8.62
-4.54
-0.41
3.68
7.61
11.31
14.65
17.55
19.91
21.72
23.03
23.92
24.46
24.68
24.57
24.15
23.45
22.58
21.65
20.72
19.85
19.02
18.19
17.30
16.32
15.24
14.10
12.97
11.93
10.99
10.11
9.23
8.29
7.30
6.32
5.40
4.57
3.78
2.96
2.14
1.42
0.94
0.78
0.89
1.07
1.07
0.76
0.18
-0.47
-0.93
-1.02
-0.73
-0.21
0.34
0.77
1.03
1.17
1.25
1.27
1.18
0.93
0.54
0.10
-0.23
-0.34
-0.22
0.00
0.19
0.22
0.06
-0.22
-0.55
-0.86
-1.13
-1.36
-1.51
-1.56
-1.50
-1.37
-1.24
-1.16
-1.19
-1.32
-1.53
-1.80
-2.06
-2.21
-2.16
-1.83
-1.25
-0.57
-0.03
0.21
0.08
-0.25
-0.56
-0.65
-0.49
-0.18
0.08
0.17
0.05
-0.18
-0.41
-0.59
-0.70
-0.78
-0.82
-0.75
-0.51
-0.09
0.42
0.88
1.13
1.12
0.92
0.65
0.43
0.29
0.21
0.11
-0.06
-0.27
-0.44
-0.52
-0.49
-0.43
-0.43
-0.55
-0.80
-1.11
-1.36
-1.42
-1.22
-0.75
-0.09
0.66
1.39
2.02
2.51
2.93
3.39
3.99
4.78
5.69
6.56
7.23
7.54
7.40
6.93
6.34
5.83
5.47
5.18
4.79
4.16
3.22
2.01
0.87
0.23
0.43
1.53
3.20
4.93
6.17
6.58
6.10
5.31
5.05
6.08
8.72
12.84
18.09
24.17
30.80
35.77
36.57
31.13
19.23
2.78
-15.04
-30.83
-42.03
-47.56
-48.03
-44.88
-39.61
-33.18
-26.04
-18.53
-11.21
-4.97
-0.72
1.10
0.91
-0.28
-1.47
-2.18
-2.60
-3.21
-4.43
-6.35
-8.68
-10.80
-12.07
-12.05
-10.68
-8.26
-5.24
-2.14
0.64
2.79
4.23
5.03
5.35
5.43
5.41
5.47
5.53
5.50
5.22
4.64
3.81
2.86
1.89
0.86
-0.31
-1.66
-3.01
-4.02
-4.32
-3.71
-2.36
-0.73
0.63
1.31
1.27
0.79
0.27
0.06
0.24
0.70
1.23
1.62
1.80
1.79
1.71
1.65
1.64
1.61
1.47
1.17
0.72
0.25
-0.11
-0.31
-0.35
-0.38
-0.55
-0.98
-1.65
-2.42
-3.14
-3.68
-4.01
-4.15
-4.21
-4.23
-4.25
-4.27
-4.32
-4.38
-4.47
-4.60
-4.71
-4.80
-4.83
-4.82
-4.77
-4.69
-4.54
-4.29
-3.90
-3.37
-2.77
-2.14
-1.51
-0.85
-0.12
0.74
1.71
2.70
3.59
4.24
4.58
4.60
4.35
3.94
3.47
3.08
2.87
2.91
3.19
3.64
4.09
4.37
4.39
4.16
3.74
3.26
2.81
2.42
2.11
1.86
1.69
1.57
1.43
1.23
0.95
0.64
0.40
0.32
0.39
0.46
0.29
-0.31
-1.40
-2.84
-4.32
-5.46
-5.92
-5.44
-3.96
-1.63
1.13
3.77
5.76
6.86
7.26
7.54
8.45
10.50
13.68
17.41
20.74
22.75
22.97
21.53
19.02
16.27
13.95
12.41
11.62
11.37
11.45
11.78
12.38
13.26
14.28
15.07
15.22
14.42
12.63
10.11
7.30
4.61
2.27
0.30
-1.47
-3.22
-5.11
-7.23
-9.61
-12.26
-15.10
-18.03
-20.90
-23.53
-25.80
-27.64
-29.00
-29.86
-30.17
-29.92
-29.16
-28.01
-26.65
-25.27
-23.98
-22.83
-21.78
-20.75
-19.62
-18.30
-16.75
-14.96
-13.03
-11.11
-9.37
-7.92
-6.80
-5.97
-5.34
-4.87
-4.48
-4.13
-3.70
-3.08
-2.13
-0.83
0.77
2.51
4.19
5.60
6.60
7.12
7.16
6.81
6.23
5.60
5.10
4.86
4.94
5.27
5.74
6.22
6.56
6.69
6.62
6.42
6.24
6.22
6.45
6.89
7.41
7.85
8.09
8.17
8.21
8.39
8.87
9.65
10.70
11.91
13.23
14.58
15.89
17.06
17.95
18.46
18.59
18.45
18.23
18.11
18.16
18.39
18.72
19.07
19.37
19.51
19.39
18.86
17.85
16.42
14.77
13.23
12.05
11.36
11.12
11.23
11.63
12.33
13.23
13.96
13.81
11.91
7.68
1.17
-6.75
-14.71
-21.36
-25.89
-28.24
-28.96
-28.78
-28.22
-27.49
-26.58
-25.48
-24.34
-23.50
-23.24
-23.64
-24.43
-25.10
-25.12
-24.14
-22.19
-19.62
-16.98
-14.75
-13.18
-12.23
-11.65
-11.17
-10.62
-10.00
-9.45
-9.13
-9.14
-9.39
-9.70
-9.84
-9.65
-9.09
-8.27
-7.37
-6.58
-5.96
-5.44
-4.90
-4.22
-3.39
-2.50
-1.71
-1.11
-0.73
-0.51
-0.39
-0.32
-0.37
-0.61
-1.12
-1.92
-2.89
-3.86
-4.66
-5.21
-5.54
-5.78
-6.09
-6.60
-7.33
-8.19
-9.06
-9.84
-10.48
-11.03
-11.59
-12.25
-13.06
-14.01
-15.01
-15.90
-16.45
-16.46
-15.74
-14.27
-12.14
-9.57
-6.83
-4.14
-1.63
0.64
2.71
4.59
6.27
7.75
8.99
10.00
10.80
11.45
12.01
12.59
13.30
14.30
15.68
17.46
19.49
21.48
23.08
23.99
24.14
23.68
22.96
22.42
22.39
22.99
24.12
25.51
26.85
27.86
28.40
28.43
27.96
26.97
25.45
23.44
21.01
18.35
15.70
13.24
11.04
9.07
7.20
5.35
3.54
1.86
0.44
-0.63
-1.35
-1.83
-2.20
-2.58
-3.08
-3.78
-4.70
-5.75
-6.77
-7.54
-7.84
-7.58
-6.84
-5.86
-4.95
-4.33
-4.04
-3.97
-3.93
-3.77
-3.45
-3.06
-2.68
-2.41
-2.25
-2.17
-2.16
-2.25
-2.49
-2.88
-3.34
-3.77
-4.03
-4.08
-3.98
-3.88
-3.92
-4.19
-4.67
-5.22
-5.68
-5.87
-5.71
-5.19
-4.39
-3.43
-2.40
-1.38
-0.39
0.55
1.37
1.92
2.11
1.88
1.31
0.58
-0.06
-0.43
-0.46
-0.23
0.12
0.47
0.73
0.89
1.00
1.06
1.09
1.06
0.97
0.83
0.64
0.46
0.33
0.26
0.25
0.25
0.22
0.12
-0.05
-0.31
-0.63
-1.02
-1.48
-2.01
-2.54
-2.98
-3.17
-3.01
-2.50
-1.71
-0.83
-0.04
0.55
0.94
1.24
1.58
2.07
2.71
3.40
4.03
4.49
4.77
4.91
4.95
4.89
4.72
4.40
3.99
3.60
3.37
3.36
3.52
3.68
3.64
3.32
2.80
2.32
2.10
2.29
2.86
3.61
4.32
4.85
5.21
5.51
5.90
6.41
7.00
7.53
7.86
7.95
7.85
7.65
7.49
7.40
7.37
7.32
7.22
7.07
6.89
6.71
6.48
6.09
5.44
4.51
3.35
2.09
0.83
-0.35
-1.45
-2.53
-3.60
-4.69
-5.78
-6.87
-7.98
-9.11
-10.20
-11.22
-12.12
-12.90
-13.62
-14.29
-14.89
-15.34
-15.55
-15.54
-15.38
-15.24
-15.22
-15.34
-15.50
-15.58
-15.44
-15.02
-14.34
-13.44
-12.38
-11.21
-10.00
-8.81
-7.72
-6.74
-5.87
-4.98
-3.94
-2.59
-0.82
1.34
3.74
6.14
8.29
9.99
11.18
11.93
12.35
12.57
12.66
12.70
12.72
12.76
12.81
12.83
12.74
12.38
11.62
10.36
8.58
6.42
4.09
1.89
0.04
-1.33
-2.25
-2.90
-3.46
-4.05
-4.70
-5.32
-5.87
-6.34
-6.78
-7.22
-7.63
-7.91
-8.00
-7.97
-8.01
-8.37
-9.21
-10.47
-11.92
-13.26
-14.32
-15.06
-15.64
-16.24
-16.96
-17.81
-18.69
-19.54
-20.38
-21.26
-22.29
-23.42
-24.48
-25.18
-25.21
-24.35
-22.60
-20.11
-17.24
-14.35
-11.74
-9.57
-7.77
-6.14
-4.38
-2.19
0.59
3.96
7.73
11.56
15.09
18.08
20.37
21.97
22.96
23.41
23.39
22.97
22.24
21.37
20.54
19.86
19.40
19.10
18.82
18.43
17.88
17.21
16.57
16.11
15.87
15.80
15.73
15.45
14.81
13.82
12.59
11.30
10.09
9.00
7.95
6.84
5.58
4.19
2.75
1.38
0.19
-0.76
-1.47
-1.97
-2.33
-2.60
-2.80
-2.94
-3.01
-2.99
-2.87
-2.68
-2.46
-2.23
-2.01
-1.77
-1.51
-1.22
-0.98
-0.85
-0.90
-1.15
-1.55
-2.04
-2.56
-3.11
-3.68
-4.30
-4.91
-5.47
-5.89
-6.15
-6.30
-6.42
-6.61
-6.89
-7.19
-7.39
-7.35
-6.97
-6.24
-5.18
-3.87
-2.41
-0.94
0.37
1.36
1.93
2.10
2.00
1.80
1.67
1.68
1.84
2.07
2.31
2.52
2.68
2.72
2.57
2.17
1.51
0.72
-0.06
-0.68
-1.08
-1.29
-1.40
-1.48
-1.58
-1.72
-1.90
-2.11
-2.33
-2.51
-2.57
-2.44
-2.13
-1.69
-1.24
-0.88
-0.67
-0.59
-0.59
-0.64
-0.73
-0.85
-1.02
-1.18
-1.27
-1.22
-0.99
-0.61
-0.18
0.19
0.43
0.52
0.48
0.39
0.26
0.09
-0.16
-0.50
-0.90
-1.26
-1.50
-1.56
-1.48
-1.39
-1.43
-1.69
-2.15
-2.67
-3.05
-3.15
-2.95
-2.54
-2.06
-1.63
-1.28
-0.91
-0.43
0.23
1.00
1.75
2.31
2.61
2.66
2.60
2.57
2.67
2.89
3.16
3.36
3.40
3.26
3.01
2.70
2.41
2.16
1.92
1.68
1.43
1.19
0.99
0.85
0.76
0.68
0.58
0.42
0.19
-0.15
-0.59
-1.10
-1.61
-2.06
-2.40
-2.62
-2.74
-2.78
-2.71
-2.52
-2.14
-1.58
-0.88
-0.15
0.49
0.95
1.23
1.36
1.40
1.43
1.55
1.80
2.22
2.75
3.30
3.73
3.94
3.90
3.66
3.35
3.09
2.98
3.04
3.24
3.47
3.63
3.67
3.57
3.37
3.12
2.87
2.66
2.46
2.24
1.99
1.69
1.37
1.08
0.84
0.65
0.49
0.33
0.17
-0.01
-0.19
-0.37
-0.49
-0.51
-0.37
-0.01
0.55
1.24
1.91
2.41
2.60
2.46
2.10
1.68
1.40
1.35
1.50
1.72
1.86
1.84
1.68
1.49
1.39
1.44
1.58
1.72
1.74
1.60
1.30
0.91
0.49
0.08
-0.32
-0.71
-1.10
-1.48
-1.84
-2.16
-2.43
-2.65
-2.81
-2.94
-3.03
-3.13
-3.27
-3.48
-3.76
-4.07
-4.33
-4.43
-4.26
-3.79
-3.07
-2.24
-1.44
-0.80
-0.33
0.03
0.38
0.76
1.18
1.56
1.85
2.00
2.03
1.97
1.87
1.76
1.66
1.58
1.53
1.51
1.52
1.52
1.45
1.29
1.05
0.78
0.55
0.40
0.31
0.27
0.20
0.05
-0.21
-0.57
-1.00
-1.46
-1.89
-2.22
-2.43
-2.48
-2.39
-2.20
-2.01
-1.92
-1.97
-2.14
-2.32
-2.37
-2.18
-1.75
-1.15
-0.49
0.12
0.63
1.05
1.41
1.70
1.88
1.89
1.73
1.44
1.12
0.91
0.87
0.97
1.11
1.19
1.09
0.80
0.38
-0.02
-0.28
-0.34
-0.22
-0.01
0.16
0.20
0.10
-0.12
-0.35
-0.51
-0.53
-0.40
-0.16
0.08
0.18
-0.01
-0.54
-1.38
-2.31
-3.09
-3.49
-3.42
-2.96
-2.34
-1.79
-1.43
-1.29
-1.27
-1.24
-1.10
-0.82
-0.42
0.07
0.59
1.08
1.48
1.78
1.96
2.07
2.11
2.11
2.03
1.86
1.58
1.24
0.92
0.67
0.53
0.47
0.42
0.34
0.24
0.16
0.15
0.23
0.34
0.44
0.43
0.28
-0.01
-0.41
-0.87
-1.33
-1.70
-1.92
-1.91
-1.67
-1.31
-0.99
-0.89
-1.09
-1.57
-2.15
-2.62
-2.83
-2.74
-2.42
-1.98
-1.51
-1.06
-0.59
-0.10
0.39
0.83
1.15
1.34
1.41
1.43
1.42
1.40
1.34
1.23
1.08
0.94
0.90
0.97
1.16
1.37
1.53
1.60
1.59
1.53
1.47
1.40
1.29
1.08
0.76
0.37
-0.03
-0.34
-0.54
-0.66
-0.76
-0.91
-1.10
-1.31
-1.49
-1.61
-1.67
-1.69
-1.72
-1.77
-1.84
-1.93
-2.03
-2.14
-2.22
-2.24
-2.15
-1.98
-1.77
-1.57
-1.39
-1.19
-0.89
-0.44
0.17
0.83
1.42
1.81
1.95
1.91
1.78
1.68
1.70
1.83
2.01
2.15
2.18
2.10
1.98
1.91
1.93
1.97
1.92
1.72
1.36
0.96
0.67
0.61
0.78
1.03
1.20
1.15
0.86
0.42
-0.02
-0.35
-0.53
-0.59
-0.60
-0.64
-0.77
-1.00
-1.33
-1.69
-2.00
-2.17
-2.17
-2.01
-1.78
-1.57
-1.46
-1.48
-1.55
-1.59
-1.52
-1.30
-0.98
-0.61
-0.26
0.06
0.34
0.61
0.87
1.11
1.32
1.51
1.69
1.89
2.12
2.34
2.49
2.53
2.45
2.31
2.19
2.15
2.19
2.25
2.22
2.01
1.62
1.09
0.54
0.08
-0.23
-0.36
-0.36
-0.31
-0.27
-0.27
-0.36
-0.51
-0.71
-0.93
-1.17
-1.43
-1.73
-2.08
-2.46
-2.79
-3.00
-3.05
-2.99
-2.88
-2.82
-2.82
-2.79
-2.59
-2.14
-1.43
-0.55
0.32
1.07
1.65
2.09
2.41
2.61
2.65
2.51
2.21
1.86
1.62
1.59
1.79
2.11
2.38
2.46
2.27
1.81
1.19
0.52
-0.06
-0.46
-0.63
-0.61
-0.48
-0.37
-0.36
-0.48
-0.66
-0.81
-0.86
-0.81
-0.71
-0.64
-0.65
-0.76
-0.92
-1.11
-1.35
-1.64
-2.01
-2.43
-2.85
-3.16
-3.28
-3.15
-2.75
-2.10
-1.26
-0.35
0.48
1.07
1.34
1.29
1.05
0.80
0.71
0.86
1.22
1.65
2.00
2.15
2.08
1.82
1.47
1.11
0.79
0.58
0.50
0.55
0.68
0.82
0.88
0.82
0.65
0.42
0.21
0.08
0.01
-0.06
-0.19
-0.42
-0.73
-1.12
-1.56
-2.04
-2.53
-3.02
-3.47
-3.86
-4.16
-4.40
-4.67
-5.07
-5.58
-6.13
-6.63
-7.05
-7.44
-7.86
-8.32
-8.80
-9.19
-9.24
-8.75
-7.76
-6.49
-5.21
-4.07
-2.99
-1.82
-0.43
1.37
3.57
5.85
7.79
9.04
9.59
9.70
9.72
9.87
10.56
12.05
14.30
17.08
20.13
23.35
26.75
30.32
32.16
30.86
26.49
20.63
14.99
10.33
6.57
3.35
0.36
-2.47
-4.66
-5.59
-5.24
-4.08
-2.83
-2.05
-1.93
-2.34
-2.96
-3.29
-2.97
-2.11
-1.27
-1.16
-2.21
-4.52
-7.89
-12.01
-16.43
-20.72
-23.71
-24.45
-22.86
-19.84
-16.58
-13.96
-12.28
-11.34
-10.66
-9.76
-8.48
-6.94
-5.43
-4.22
-3.45
-3.06
-2.75
-2.15
-1.06
0.31
1.44
1.77
1.31
0.40
-0.37
-0.49
0.27
1.74
3.37
4.58
4.99
4.61
3.72
2.69
1.78
1.11
0.71
0.59
0.77
1.33
2.39
3.94
5.79
7.53
8.72
9.06
8.52
7.32
5.82
4.38
3.25
2.52
2.22
2.31
2.70
3.25
3.69
3.69
2.91
1.18
-1.40
-4.37
-7.02
-8.71
-9.13
-8.46
-7.40
-6.76
-7.14
-8.61
-10.66
-12.51
-13.54
-13.54
-12.88
-12.14
-11.84
-12.13
-12.77
-13.33
-13.49
-13.13
-12.43
-11.62
-10.85
-10.07
-9.15
-7.97
-6.52
-4.96
-3.53
-2.37
-1.53
-0.93
-0.40
0.19
0.91
1.74
2.61
3.41
4.09
4.61
5.03
5.40
5.83
6.38
7.06
7.83
8.55
9.11
9.43
9.54
9.52
9.47
9.42
9.32
9.12
8.81
8.46
8.20
8.10
8.15
8.21
8.10
7.68
6.97
6.09
5.21
4.47
3.93
3.57
3.35
3.26
3.32
3.55
3.96
4.51
5.09
5.60
5.92
6.03
5.90
5.60
5.19
4.75
4.38
4.10
3.90
3.70
3.41
2.98
2.46
1.96
1.56
1.24
0.93
0.50
-0.06
-0.67
-1.14
-1.34
-1.27
-1.08
-1.00
-1.19
-1.64
-2.20
-2.69
-3.01
-3.17
-3.28
-3.40
-3.47
-3.40
-3.07
-2.51
-1.82
-1.17
-0.68
-0.36
-0.13
0.09
0.34
0.56
0.69
0.71
0.66
0.64
0.72
0.91
1.14
1.33
1.40
1.35
1.19
1.00
0.81
0.68
0.63
0.67
0.78
0.92
1.03
1.03
0.86
0.53
0.09
-0.33
-0.59
-0.60
-0.36
0.06
0.59
1.14
1.70
2.23
2.71
3.09
3.34
3.49
3.70
4.15
4.95
6.08
7.35
8.49
9.23
9.48
9.46
9.56
10.15
11.35
13.00
14.75
16.21
17.11
17.45
17.53
17.75
18.43
19.62
21.12
22.56
23.60
23.89
23.37
22.42
21.67
21.64
22.46
23.75
24.87
25.18
23.95
21.17
17.85
15.56
15.59
18.23
22.72
27.73
32.05
34.19
33.92
32.67
32.79
36.09
42.86
52.11
62.53
73.07
81.16
84.35
80.93
70.22
52.45
29.12
3.17
-21.86
-43.65
-64.95
-90.51
-123.58
-163.32
-204.87
-241.69
-268.64
-284.69
-279.15
-250.21
-206.42
-161.55
-124.09
-93.70
-65.96
-38.11
-10.97
12.62
28.17
34.04
32.63
28.95
27.40
29.61
34.67
40.36
44.77
45.46
41.91
35.93
30.67
28.53
29.80
33.11
36.38
38.02
36.46
31.65
25.17
19.51
16.56
16.62
18.65
20.76
21.19
18.52
12.66
4.94
-2.46
-7.89
-11.28
-13.06
-14.76
-18.02
-24.10
-33.52
-46.09
-60.76
-74.62
-84.75
-87.01
-77.94
-56.72
-26.24
7.48
37.51
58.82
70.12
73.67
73.54
72.95
72.76
72.17
69.97
66.02
61.61
58.57
58.36
61.62
68.21
77.64
88.02
96.61
99.55
92.93
74.61
46.01
11.91
-20.10
-43.96
-56.81
-59.76
-56.61
-51.60
-48.28
-48.09
-51.82
-59.79
-71.22
-83.06
-90.08
-86.37
-67.37
-33.87
8.94
51.92
85.68
102.57
99.44
78.60
46.66
12.21
-16.96
-36.24
-45.24
-48.02
-50.54
-55.68
-62.21
-65.09
-58.24
-38.12
-5.72
33.55
72.24
103.35
122.46
127.64
119.25
98.90
69.87
36.60
4.27
-21.57
-38.28
-46.14
-47.83
-46.64
-45.69
-45.53
-46.45
-48.85
-53.40
-60.73
-70.66
-82.37
-93.74
-104.76
-114.39
-120.67
-120.49
-110.64
-89.70
-59.41
-24.76
7.69
32.30
46.90
52.68
52.93
50.88
48.14
44.75
40.24
34.80
29.53
26.11
25.41
26.96
29.17
30.17
28.65
24.62
19.21
14.03
10.58
9.39
10.02
11.28
11.81
10.76
8.09
4.49
0.99
-1.35
-2.20
-1.79
-0.83
-0.09
-0.06
-0.78
-1.84
-2.60
-2.48
-1.25
1.10
3.99
6.88
9.35
11.33
13.08
14.97
17.32
20.15
23.15
25.77
27.46
27.92
27.26
26.01
24.90
24.57
25.32
26.94
28.84
30.42
31.26
31.37
31.14
31.17
31.99
34.06
37.66
42.78
48.82
54.28
56.88
54.23
44.87
29.21
9.70
-9.94
-26.16
-36.87
-41.99
-42.99
-41.78
-39.80
-37.55
-34.99
-32.04
-29.00
-26.48
-25.02
-24.66
-24.91
-24.99
-24.16
-22.14
-19.20
-16.01
-13.34
-11.68
-11.12
-11.27
-11.55
-11.42
-10.63
-9.32
-7.87
-6.71
-6.06
-5.95
-6.14
-6.36
-6.38
-6.10
-5.60
-5.00
-4.42
-3.92
-3.50
-3.10
-2.69
-2.22
-1.70
-1.15
-0.63
-0.17
0.19
0.47
0.69
0.86
0.98
1.01
0.90
0.61
0.16
-0.38
-0.91
-1.32
-1.55
-1.55
-1.29
-0.78
-0.09
0.68
1.38
1.86
2.06
2.04
1.91
1.81
1.84
2.02
2.28
2.54
2.71
2.74
2.62
2.37
2.01
1.57
1.07
0.59
0.18
-0.06
-0.10
0.02
0.20
0.29
0.18
-0.15
-0.63
-1.12
-1.49
-1.68
-1.72
-1.72
-1.77
-1.93
-2.15
-2.35
-2.43
-2.41
-2.35
-2.32
-2.35
-2.38
-2.30
-2.01
-1.53
-0.97
-0.47
-0.09
0.18
0.45
0.81
1.29
1.81
2.23
2.44
2.40
2.18
1.86
1.54
1.27
1.06
0.91
0.79
0.71
0.64
0.52
0.29
-0.07
-0.54
-1.05
-1.48
-1.76
-1.85
-1.80
-1.70
-1.62
-1.59
-1.57
-1.54
-1.47
-1.40
-1.34
-1.31
-1.26
-1.17
-1.00
-0.75
-0.44
-0.09
0.32
0.80
1.31
1.80
2.17
2.36
2.40
2.33
2.24
2.14
1.99
1.74
1.36
0.96
0.68
0.67
0.94
1.41
1.88
2.19
2.26
2.13
1.90
1.66
1.47
1.34
1.23
1.12
1.01
0.89
0.74
0.54
0.23
-0.17
-0.61
-0.99
-1.19
-1.19
-1.06
-0.93
-0.96
-1.25
-1.76
-2.38
-2.95
-3.31
-3.42
-3.29
-3.00
-2.66
-2.35
-2.14
-2.04
-2.02
-2.02
-2.00
-1.92
-1.79
-1.63
-1.46
-1.29
-1.09
-0.88
-0.66
-0.47
-0.35
-0.32
-0.38
-0.49
-0.65
-0.84
-1.07
-1.32
-1.52
-1.57
-1.38
-0.97
-0.43
0.03
0.23
0.09
-0.28
-0.64
-0.78
-0.57
-0.08
0.51
1.01
1.33
1.52
1.65
1.80
1.95
2.04
1.99
1.79
1.46
1.05
0.61
0.20
-0.11
-0.24
-0.13
0.22
0.72
1.18
1.44
1.42
1.16
0.82
0.60
0.60
0.86
1.28
1.73
2.11
2.34
2.41
2.33
2.17
1.98
1.84
1.78
1.82
1.95
2.11
2.22
2.21
2.05
1.74
1.30
0.81
0.34
-0.02
-0.19
-0.19
-0.12
-0.10
-0.24
-0.53
-0.87
-1.11
-1.12
-0.90
-0.54
-0.24
-0.14
-0.29
-0.64
-1.06
-1.41
-1.60
-1.59
-1.41
-1.08
-0.66
-0.20
0.29
0.78
1.25
1.66
1.97
2.13
2.09
1.86
1.50
1.14
0.89
0.81
0.87
0.98
0.98
0.81
0.46
0.07
-0.23
-0.30
-0.14
0.15
0.41
0.49
0.35
0.04
-0.32
-0.59
-0.68
-0.60
-0.46
-0.36
-0.37
-0.53
-0.79
-1.07
-1.30
-1.47
-1.56
-1.61
-1.60
-1.55
-1.46
-1.34
-1.19
-1.04
-0.93
-0.87
-0.86
-0.85
-0.79
-0.65
-0.40
-0.07
0.29
0.62
0.87
1.02
1.10
1.13
1.14
1.15
1.14
1.06
0.91
0.71
0.52
0.40
0.39
0.51
0.70
0.88
0.94
0.84
0.57
0.18
-0.24
-0.60
-0.82
-0.90
-0.86
-0.77
-0.73
-0.77
-0.90
-1.08
-1.29
-1.51
-1.73
-1.93
-2.09
-2.16
-2.11
-1.94
-1.66
-1.33
-0.96
-0.57
-0.14
0.33
0.85
1.36
1.81
2.14
2.28
2.19
1.89
1.46
1.02
0.69
0.55
0.59
0.75
0.93
1.10
1.23
1.32
1.36
1.32
1.16
0.86
0.48
0.08
-0.24
-0.44
-0.53
-0.53
-0.49
-0.43
-0.36
-0.28
-0.23
-0.25
-0.42
-0.76
-1.25
-1.80
-2.28
-2.58
-2.66
-2.52
-2.23
-1.86
-1.45
-1.02
-0.59
-0.18
0.17
0.40
0.51
0.53
0.55
0.65
0.85
1.09
1.28
1.33
1.22
1.05
0.94
0.97
1.16
1.41
1.60
1.64
1.55
1.41
1.27
1.15
0.99
0.72
0.33
-0.11
-0.47
-0.65
-0.63
-0.49
-0.36
-0.33
-0.43
-0.61
-0.83
-1.01
-1.16
-1.29
-1.45
-1.64
-1.84
-1.96
-1.92
-1.68
-1.26
-0.77
-0.34
-0.08
-0.01
-0.05
-0.05
0.10
0.43
0.83
1.16
1.28
1.16
0.84
0.44
0.08
-0.15
-0.21
-0.11
0.12
0.43
0.76
1.03
1.18
1.17
1.05
0.90
0.79
0.76
0.78
0.76
0.65
0.44
0.19
-0.03
-0.15
-0.19
-0.19
-0.28
-0.50
-0.83
-1.15
-1.33
-1.28
-1.04
-0.77
-0.63
-0.71
-0.96
-1.21
-1.29
-1.09
-0.65
-0.11
0.37
0.70
0.87
0.96
1.01
1.02
0.96
0.81
0.60
0.40
0.28
0.29
0.39
0.55
0.72
0.89
1.05
1.17
1.21
1.11
0.85
0.49
0.16
-0.05
-0.12
-0.10
-0.10
-0.20
-0.37
-0.53
-0.60
-0.53
-0.37
-0.22
-0.16
-0.22
-0.40
-0.65
-0.97
-1.35
-1.78
-2.20
-2.51
-2.60
-2.42
-2.00
-1.43
-0.87
-0.41
-0.10
0.08
0.19
0.30
0.43
0.57
0.69
0.77
0.79
0.82
0.91
1.07
1.27
1.40
1.34
1.07
0.67
0.31
0.18
0.35
0.77
1.24
1.55
1.60
1.38
1.00
0.60
0.24
-0.09
-0.41
-0.74
-1.01
-1.17
-1.18
-1.07
-0.93
-0.87
-0.95
-1.16
-1.48
-1.84
-2.18
-2.46
-2.67
-2.76
-2.68
-2.41
-1.97
-1.38
-0.72
-0.04
0.57
1.05
1.35
1.47
1.46
1.41
1.42
1.57
1.88
2.33
2.83
3.28
3.58
3.67
3.55
3.26
2.92
2.68
2.63
2.79
3.08
3.32
3.33
3.03
2.49
1.94
1.70
1.99
2.81
3.86
4.59
4.49
3.27
1.09
-1.40
-3.35
-4.05
-3.36
-1.78
-0.33
-0.05
-1.46
-4.22
-7.20
-8.97
-8.44
-5.48
-0.99
3.41
6.30
6.94
5.78
4.21
3.88
5.97
10.85
18.11
26.39
33.88
38.02
35.73
24.38
3.31
-25.13
-55.56
-80.96
-95.19
-95.30
-82.75
-62.55
-40.82
-22.04
-7.65
3.65
14.15
25.05
35.60
43.47
46.33
43.44
36.25
27.74
20.78
17.16
16.03
15.64
14.26
11.21
7.08
3.20
0.73
-0.11
-0.05
-0.33
-1.77
-4.36
-7.31
-9.39
-9.60
-7.67
-4.13
-0.07
3.28
5.07
5.03
3.45
1.02
-1.45
-3.29
-4.18
-4.04
-3.06
-1.54
0.15
1.60
2.54
2.80
2.44
1.72
0.98
0.51
0.46
0.72
1.05
1.18
0.97
0.54
0.11
-0.09
-0.03
0.13
0.12
-0.25
-0.97
-1.82
-2.48
-2.71
-2.49
-1.96
-1.38
-0.94
-0.74
-0.75
-0.90
-1.11
-1.34
-1.52
-1.57
-1.41
-1.02
-0.46
0.17
0.74
1.18
1.48
1.67
1.78
1.85
1.93
2.13
2.61
3.45
4.61
5.89
6.96
7.46
7.16
6.04
4.22
1.96
-0.46
-2.77
-4.77
-6.30
-7.27
-7.72
-7.77
-7.56
-7.23
-6.80
-6.25
-5.56
-4.76
-3.99
-3.41
-3.08
-2.98
-2.93
-2.73
-2.28
-1.59
-0.78
0.02
0.74
1.37
1.93
2.39
2.67
2.72
2.53
2.26
2.14
2.40
3.14
4.24
5.47
6.51
7.13
7.21
6.74
5.74
4.23
2.22
-0.25
-3.11
-6.24
-9.47
-12.61
-15.49
-17.94
-19.87
-21.22
-22.02
-22.37
-22.37
-22.10
-21.61
-20.86
-19.83
-18.50
-16.92
-15.20
-13.45
-11.73
-10.03
-8.20
-6.11
-3.70
-1.05
1.61
4.03
6.06
7.71
9.09
10.38
11.62
12.75
13.61
14.10
14.25
14.20
14.12
14.09
14.09
14.03
13.84
13.47
12.96
12.36
11.73
11.11
10.53
9.99
9.46
8.90
8.23
7.42
6.50
5.53
4.62
3.83
3.21
2.76
2.48
2.41
2.52
2.75
2.97
3.04
2.88
2.50
1.98
1.45
1.01
0.70
0.53
0.47
0.50
0.56
0.63
0.68
0.73
0.81
0.97
1.22
1.54
1.87
2.12
2.26
2.29
2.22
2.09
1.95
1.85
1.84
1.95
2.16
2.41
2.63
2.76
2.79
2.74
2.67
2.60
2.55
2.46
2.30
2.02
1.61
1.11
0.58
0.14
-0.12
-0.11
0.18
0.65
1.22
1.80
2.37
2.99
3.75
4.70
5.80
6.95
7.96
8.68
8.97
8.81
8.28
7.57
6.94
6.59
6.64
7.05
7.65
8.19
8.43
8.17
7.37
6.12
4.60
3.01
1.47
-0.02
-1.60
-3.46
-5.71
-8.33
-11.14
-13.93
-16.56
-18.93
-21.02
-22.81
-24.19
-25.04
-25.25
-24.82
-23.89
-22.67
-21.28
-19.76
-18.11
-16.34
-14.55
-12.94
-11.70
-10.92
-10.49
-10.00
-8.96
-7.02
-4.20
-0.88
2.38
5.06
6.91
8.00
8.74
9.62
10.97
12.81
14.99
17.35
19.81
22.45
24.64
25.68
25.08
22.68
18.61
13.19
7.07
1.30
-3.06
-5.49
-6.12
-5.73
-5.36
-5.72
-6.92
-8.59
-10.20
-11.47
-12.44
-13.05
-12.94
-11.56
-8.51
-3.91
1.50
6.69
11.03
14.19
16.32
17.68
18.12
16.91
13.04
5.80
-4.58
-16.27
-26.87
-34.15
-36.96
-35.46
-30.81
-24.46
-17.51
-10.52
-3.70
2.56
7.75
11.33
13.15
13.59
13.52
13.69
14.49
15.76
16.86
17.17
16.46
15.02
13.47
12.41
12.12
12.59
13.53
14.42
14.69
13.80
11.54
7.94
3.38
-1.51
-5.93
-9.27
-11.23
-12.10
-12.33
-12.13
-11.52
-10.43
-8.84
-6.85
-4.74
-2.91
-1.47
-0.66
-0.44
-0.62
-1.16
-2.18
-3.85
-6.31
-9.56
-13.71
-18.58
-23.46
-27.56
-30.24
-31.01
-29.66
-26.21
-19.25
-9.70
-0.18
7.22
12.00
14.67
15.80
15.67
14.39
12.27
9.78
7.91
7.87
10.21
14.30
18.62
21.54
22.05
20.22
16.69
12.52
8.63
5.30
2.12
-1.44
-5.47
-9.53
-12.63
-14.05
-13.50
-11.30
-8.36
-5.74
-4.24
-4.00
-4.70
-5.56
-5.91
-5.42
-4.19
-2.71
-1.48
-0.90
-1.16
-2.20
-3.76
-5.59
-7.39
-8.77
-9.36
-8.85
-7.16
-4.59
-1.75
0.46
1.26
0.25
-2.27
-5.46
-8.36
-10.30
-11.20
-11.54
-12.01
-13.03
-14.46
-15.54
-15.27
-12.96
-8.64
-2.94
3.04
8.19
11.65
13.15
12.85
11.23
8.99
7.15
6.97
9.35
14.29
20.51
26.25
29.83
30.41
28.18
24.16
19.77
16.02
13.20
10.92
8.97
7.44
6.61
6.58
5.79
3.14
-1.61
-6.56
-11.24
-15.35
-18.85
-21.25
-22.21
-21.65
-19.65
-16.66
-13.37
-10.70
-9.07
-8.44
-8.45
-8.71
-8.88
-8.62
-7.76
-6.31
-4.58
-2.69
-0.71
1.33
3.27
4.95
6.33
7.40
8.23
8.76
9.09
9.28
9.43
9.53
9.57
9.59
9.63
9.68
9.65
9.49
9.22
8.90
8.59
8.30
7.99
7.56
6.89
5.91
4.67
3.36
2.19
1.32
0.80
0.54
0.40
0.25
0.00
-0.34
-0.75
-1.23
-1.78
-2.39
-3.03
-3.63
-4.09
-4.35
-4.37
-4.18
-3.85
-3.44
-2.99
-2.50
-1.97
-1.42
-0.92
-0.50
-0.19
0.05
0.27
0.55
0.88
1.22
1.51
1.70
1.78
1.79
1.79
1.80
1.77
1.67
1.50
1.32
1.21
1.21
1.26
1.23
1.03
0.64
0.19
-0.18
-0.37
-0.38
-0.34
-0.39
-0.60
-0.92
-1.25
-1.49
-1.62
-1.68
-1.75
-1.88
-2.01
-2.07
-1.97
-1.70
-1.32
-0.96
-0.69
-0.52
-0.36
-0.08
0.39
1.00
1.60
2.01
2.13
2.03
1.88
1.87
2.11
2.54
2.96
3.18
3.06
2.64
2.02
1.40
0.93
0.70
0.69
0.80
0.87
0.78
0.48
-0.01
-0.59
-1.11
-1.45
-1.56
-1.48
-1.28
-1.08
-0.98
-1.01
-1.16
-1.41
-1.71
-2.04
-2.35
-2.57
-2.61
-2.40
-1.89
-1.13
-0.27
0.56
1.19
1.56
1.69
1.68
1.63
1.62
1.70
1.86
2.04
2.18
2.21
2.11
1.89
1.65
1.45
1.34
1.31
1.29
1.20
1.01
0.73
0.41
0.13
-0.09
-0.25
-0.38
-0.53
-0.72
-0.93
-1.11
-1.22
-1.26
-1.25
-1.27
-1.37
-1.59
-1.87
-2.12
-2.22
-2.14
-1.91
-1.67
-1.55
-1.62
-1.81
-1.96
-1.91
-1.53
-0.86
-0.01
0.81
1.46
1.85
2.00
1.98
1.86
1.71
1.56
1.46
1.42
1.46
1.57
1.69
1.73
1.63
1.36
0.96
0.53
0.19
0.04
0.05
0.18
0.31
0.38
0.36
0.25
0.10
-0.07
-0.26
-0.48
-0.70
-0.89
-1.03
-1.11
-1.13
-1.13
-1.16
-1.27
-1.49
-1.82
-2.20
-2.54
-2.73
-2.65
-2.29
-1.71
-1.07
-0.54
-0.22
-0.08
-0.03
0.04
0.18
0.39
0.60
0.78
0.91
1.03
1.18
1.36
1.57
1.76
1.87
1.92
1.90
1.83
1.72
1.55
1.30
0.98
0.59
0.17
-0.20
-0.48
-0.62
-0.64
-0.57
-0.48
-0.42
-0.44
-0.57
-0.81
-1.13
-1.49
-1.79
-1.99
-2.09
-2.12
-2.17
-2.26
-2.37
-2.41
-2.26
-1.88
-1.34
-0.79
-0.38
-0.19
-0.21
-0.33
-0.40
-0.36
-0.15
0.18
0.57
0.96
1.25
1.40
1.40
1.28
1.11
1.01
1.04
1.19
1.37
1.43
1.25
0.80
0.19
-0.42
-0.82
-0.94
-0.81
-0.56
-0.33
-0.20
-0.16
-0.16
-0.15
-0.17
-0.26
-0.45
-0.67
-0.86
-0.95
-0.96
-1.00
-1.15
-1.41
-1.71
-1.94
-2.07
-2.14
-2.22
-2.35
-2.46
-2.41
-2.09
-1.48
-0.70
0.07
0.66
1.01
1.12
1.03
0.83
0.59
0.41
0.35
0.43
0.61
0.78
0.84
0.75
0.52
0.24
0.02
-0.08
-0.08
-0.04
-0.00
0.00
0.01
0.06
0.16
0.24
0.24
0.12
-0.13
-0.41
-0.62
-0.69
-0.62
-0.51
-0.45
-0.53
-0.73
-0.99
-1.23
-1.41
-1.54
-1.65
-1.72
-1.70
-1.55
-1.21
-0.74
-0.23
0.21
0.48
0.62
0.68
0.76
0.91
1.11
1.33
1.50
1.57
1.55
1.45
1.31
1.17
1.05
0.96
0.89
0.81
0.70
0.56
0.40
0.28
0.24
0.31
0.48
0.66
0.75
0.66
0.31
-0.26
-0.94
-1.55
-1.90
-1.92
-1.64
-1.20
-0.81
-0.61
-0.67
-0.98
-1.48
-2.10
-2.76
-3.35
-3.75
-3.86
-3.61
-3.02
-2.24
-1.44
-0.80
-0.38
-0.13
0.10
0.47
1.06
1.88
2.78
3.60
4.21
4.54
4.63
4.57
4.49
4.47
4.55
4.74
5.02
5.35
5.69
6.02
6.30
6.57
6.83
7.11
7.40
7.64
7.74
7.60
7.14
6.35
5.29
4.08
2.87
1.76
0.78
-0.17
-1.22
-2.45
-3.89
-5.42
-6.89
-8.22
-9.37
-10.41
-11.40
-12.30
-12.96
-13.12
-12.58
-11.29
-9.41
-7.21
-5.06
-3.20
-1.72
-0.60
0.30
1.11
1.92
2.78
3.72
4.70
5.66
6.50
7.04
7.16
6.84
6.20
5.49
4.98
4.76
4.78
4.83
4.68
4.25
3.61
2.96
2.47
2.20
2.09
2.00
1.77
1.37
0.81
0.20
-0.37
-0.82
-1.12
-1.29
-1.37
-1.45
-1.54
-1.64
-1.73
-1.75
-1.74
-1.77
-1.92
-2.24
-2.69
-3.17
-3.54
-3.71
-3.65
-3.40
-3.02
-2.56
-2.08
-1.61
-1.22
-0.99
-0.95
-1.08
-1.32
-1.55
-1.68
-1.66
-1.54
-1.38
-1.27
-1.25
-1.28
-1.32
-1.28
-1.14
-0.96
-0.82
-0.80
-0.90
-1.04
-1.11
-1.04
-0.85
-0.66
-0.62
-0.80
-1.16
-1.55
-1.78
-1.77
-1.56
-1.32
-1.22
-1.37
-1.74
-2.19
-2.50
-2.56
-2.31
-1.87
-1.35
-0.86
-0.46
-0.13
0.18
0.48
0.77
1.00
1.17
1.27
1.35
1.42
1.52
1.64
1.76
1.85
1.90
1.85
1.69
1.40
1.05
0.72
0.47
0.35
0.33
0.34
0.32
0.24
0.13
0.01
-0.09
-0.18
-0.25
-0.32
-0.35
-0.33
-0.25
-0.19
-0.20
-0.35
-0.64
-1.02
-1.41
-1.74
-1.97
-2.11
-2.19
-2.23
-2.22
-2.17
-2.04
-1.79
-1.43
-1.00
-0.54
-0.11
0.24
0.50
0.66
0.75
0.79
0.81
0.83
0.86
0.94
1.08
1.26
1.47
1.61
1.63
1.46
1.15
0.81
0.53
0.39
0.38
0.43
0.48
0.47
0.42
0.37
0.32
0.27
0.17
0.02
-0.17
-0.38
-0.62
-0.92
-1.31
-1.77
-2.22
-2.50
-2.53
-2.30
-1.90
-1.48
-1.16
-0.96
-0.84
-0.74
-0.60
-0.40
-0.15
0.12
0.42
0.71
0.97
1.15
1.23
1.25
1.25
1.25
1.28
1.27
1.21
1.08
0.92
0.80
0.74
0.74
0.73
0.66
0.55
0.44
0.39
0.39
0.42
0.39
0.27
0.06
-0.17
-0.36
-0.49
-0.57
-0.66
-0.83
-1.08
-1.37
-1.62
-1.74
-1.70
-1.49
-1.14
-0.70
-0.21
0.26
0.66
0.94
1.06
1.01
0.82
0.55
0.31
0.18
0.24
0.51
0.93
1.39
1.74
1.85
1.70
1.36
0.97
0.67
0.53
0.52
0.57
0.60
0.59
0.56
0.54
0.54
0.52
0.43
0.23
-0.04
-0.35
-0.67
-0.97
-1.27
-1.57
-1.84
-2.05
-2.13
-2.04
-1.79
-1.40
-0.94
-0.46
-0.04
0.27
0.46
0.56
0.61
0.68
0.80
0.95
1.13
1.29
1.41
1.50
1.53
1.53
1.46
1.34
1.16
0.95
0.76
0.63
0.59
0.65
0.80
0.99
1.15
1.25
1.23
1.09
0.85
0.52
0.11
-0.37
-0.92
-1.47
-1.96
-2.31
-2.51
-2.57
-2.59
-2.62
-2.63
-2.55
-2.33
-1.94
-1.49
-1.13
-0.98
-1.04
-1.17
-1.18
-0.90
-0.33
0.40
1.11
1.63
1.91
1.99
1.98
1.95
1.90
1.84
1.76
1.71
1.75
1.92
2.17
2.40
2.51
2.42
2.16
1.80
1.38
0.95
0.50
0.04
-0.40
-0.78
-1.06
-1.23
-1.31
-1.31
-1.24
-1.13
-0.99
-0.93
-1.01
-1.30
-1.72
-2.13
-2.36
-2.27
-1.87
-1.28
-0.69
-0.23
0.08
0.30
0.56
0.90
1.33
1.75
2.05
2.18
2.19
2.12
2.06
2.02
1.99
1.93
1.84
1.75
1.67
1.60
1.47
1.25
0.90
0.51
0.18
0.03
0.07
0.22
0.37
0.37
0.17
-0.19
-0.67
-1.17
-1.65
-2.05
-2.37
-2.58
-2.66
-2.63
-2.50
-2.33
-2.18
-2.11
-2.11
-2.12
-2.03
-1.76
-1.24
-0.50
0.35
1.20
1.89
2.36
2.57
2.58
2.46
2.31
2.20
2.16
2.18
2.21
2.17
1.99
1.65
1.18
0.69
0.30
0.15
0.29
0.69
1.18
1.56
1.62
1.27
0.58
-0.22
-0.89
-1.23
-1.24
-1.04
-0.82
-0.73
-0.81
-1.01
-1.23
-1.43
-1.65
-1.93
-2.27
-2.62
-2.86
-2.92
-2.79
-2.56
-2.31
-2.08
-1.84
-1.47
-0.91
-0.17
0.63
1.32
1.78
1.97
1.96
1.87
1.81
1.81
1.84
1.88
1.92
1.99
2.11
2.28
2.38
2.33
2.05
1.61
1.11
0.69
0.43
0.34
0.34
0.35
0.31
0.19
-0.01
-0.25
-0.53
-0.81
-1.07
-1.28
-1.41
-1.51
-1.61
-1.77
-1.98
-2.22
-2.43
-2.56
-2.58
-2.49
-2.36
-2.24
-2.21
-2.28
-2.41
-2.48
-2.36
-1.98
-1.32
-0.49
0.40
1.22
1.90
2.43
2.76
2.89
2.77
2.41
1.86
1.26
0.78
0.54
0.57
0.78
1.03
1.18
1.16
1.00
0.79
0.61
0.48
0.36
0.18
-0.12
-0.50
-0.87
-1.09
-1.09
-0.90
-0.63
-0.42
-0.38
-0.54
-0.86
-1.30
-1.81
-2.34
-2.82
-3.16
-3.31
-3.28
-3.16
-3.10
-3.20
-3.43
-3.65
-3.66
-3.33
-2.71
-1.95
-1.29
-0.92
-0.82
-0.85
-0.74
-0.32
0.37
1.06
1.46
1.35
0.78
0.14
0.00
0.86
2.80
5.39
7.73
8.93
8.39
6.12
2.82
-0.34
-2.13
-1.79
0.66
4.43
8.47
11.79
13.88
14.89
15.58
16.94
19.73
24.27
29.57
34.43
37.55
37.37
31.95
19.54
-0.22
-25.29
-51.09
-71.89
-82.97
-82.72
-73.42
-59.93
-47.22
-38.11
-32.45
-28.00
-22.26
-13.96
-3.70
6.73
15.56
22.01
26.32
29.19
31.05
31.75
30.83
27.96
23.33
17.90
13.11
10.35
10.27
12.50
15.74
18.37
19.09
17.58
14.27
10.35
7.12
5.38
5.18
5.83
6.36
5.96
4.39
2.07
-0.09
-1.16
-0.70
1.03
3.19
4.84
5.28
4.46
2.99
1.79
1.63
2.63
4.31
5.86
6.56
6.20
5.14
4.21
4.47
6.88
11.56
17.90
24.32
28.43
27.66
19.91
4.14
-18.80
-45.00
-68.76
-84.33
-87.86
-78.81
-60.13
-37.25
-16.17
-1.30
5.79
6.03
2.09
-3.06
-7.34
-9.60
-9.49
-7.08
-2.80
3.42
10.95
18.60
24.88
28.25
27.76
22.86
13.88
2.39
-9.04
-17.31
-19.59
-14.57
-3.50
11.05
26.31
40.40
52.93
64.08
73.80
81.55
86.81
87.23
83.43
78.23
72.98
68.90
64.17
54.93
38.75
17.65
-3.05
-18.73
-26.87
-28.01
-25.11
-22.17
-22.25
-27.68
-35.88
-44.92
-52.18
-55.85
-55.84
-53.18
-49.40
-45.31
-41.84
-39.11
-36.81
-33.94
-30.12
-25.65
-20.65
-14.58
-6.50
2.41
9.75
12.68
9.51
-0.90
-18.81
-43.10
-71.70
-91.71
-93.86
-79.79
-59.60
-40.92
-26.19
-14.74
-5.11
3.80
12.60
19.96
24.59
26.22
26.41
26.20
25.89
25.51
25.34
25.99
26.80
26.83
24.36
20.36
15.00
8.02
-0.42
-9.43
-17.67
-24.53
-27.57
-28.28
-27.41
-26.25
-26.57
-29.93
-36.85
-45.78
-53.18
-54.01
-43.62
-19.29
17.46
60.70
101.71
131.71
144.40
137.64
113.89
79.09
41.03
6.90
-18.60
-33.89
-39.99
-39.48
-34.96
-29.00
-22.01
-14.52
-7.35
-1.46
2.52
4.92
6.87
9.86
14.79
22.38
30.83
38.51
43.93
46.09
45.98
44.53
43.05
42.82
44.55
47.83
51.95
55.67
58.41
60.38
61.78
63.21
65.56
69.50
75.03
82.01
89.42
96.72
103.92
110.13
115.23
120.02
125.61
132.50
140.85
149.58
158.06
166.08
170.56
169.93
165.00
156.95
144.47
131.84
119.09
105.99
92.48
72.68
43.89
8.95
-27.02
-61.05
-92.47
-122.57
-151.73
-179.41
-214.06
-259.02
-308.93
-355.08
-392.47
-420.36
-440.77
-455.34
-465.14
-483.62
-517.94
-563.94
-612.43
-658.04
-700.04
-740.29
-780.75
-745.08
-611.27
-423.03
-241.34
-92.58
27.18
129.21
219.03
295.72
355.78
385.11
380.23
352.78
320.30
294.31
278.29
270.62
268.69
270.71
266.33
250.82
228.35
206.94
191.42
183.21
181.44
185.73
196.42
207.74
215.65
219.37
218.42
207.40
184.01
149.29
109.06
71.82
42.00
21.39
9.63
4.47
2.53
1.70
1.40
2.36
5.11
8.01
9.11
7.70
4.53
1.06
-0.91
-0.29
2.89
7.52
11.85
14.71
15.42
14.05
11.50
9.10
7.69
7.24
7.16
6.39
4.51
1.40
-2.60
-6.72
-9.96
-11.70
-11.91
-11.28
-10.82
-10.31
-9.66
-8.88
-7.67
-5.66
-2.64
1.17
4.32
5.33
5.83
6.69
7.80
9.49
12.16
16.06
20.95
24.18
23.49
22.78
24.09
26.94
31.46
37.68
45.40
53.44
57.12
52.74
46.45
41.43
36.67
31.66
25.50
16.54
0.35
-25.56
-64.06
-106.34
-148.84
-194.44
-244.67
-298.63
-351.42
-364.74
-317.01
-260.53
-208.05
-144.56
-71.33
8.23
90.85
174.24
252.63
315.09
351.21
364.37
358.00
335.25
304.09
267.24
240.09
220.20
200.70
175.77
150.72
129.25
111.29
96.62
83.51
69.90
51.46
24.70
-10.99
-48.84
-84.06
-115.76
-144.41
-171.97
-200.60
-234.45
-276.67
-328.41
-386.05
-444.87
-499.08
-541.06
-563.40
-561.03
-534.88
-489.84
-433.04
-370.57
-307.03
-245.05
-185.65
-129.45
-77.35
-31.33
8.82
46.12
85.50
131.27
185.28
245.61
307.19
363.50
407.10
434.61
447.51
449.64
444.13
432.68
416.50
396.80
374.53
345.98
308.93
265.59
221.00
180.58
149.33
130.60
123.77
123.27
114.40
87.57
44.79
-4.35
-50.83
-89.97
-121.69
-150.01
-180.69
-226.74
-293.28
-373.01
-453.24
-523.94
-578.72
-612.90
-624.60
-565.78
-432.78
-275.30
-146.41
-62.35
-13.11
16.17
36.14
50.54
59.15
53.60
32.90
7.88
-8.99
-11.99
-3.02
13.37
31.66
48.05
55.64
54.31
52.90
62.46
90.19
130.81
178.82
228.08
273.23
306.46
323.93
327.32
319.44
300.35
267.77
220.79
160.72
91.93
20.14
-45.36
-93.24
-114.70
-106.63
-72.05
-18.38
42.82
96.67
128.81
131.77
108.21
69.27
30.83
8.39
12.23
43.39
92.50
145.36
190.17
220.46
233.88
230.85
213.38
184.14
145.66
97.85
40.33
-24.54
-92.07
-157.65
-216.80
-264.79
-297.19
-298.58
-262.00
-203.39
-148.60
-111.71
-92.03
-81.88
-73.63
-63.75
-53.34
-47.68
-50.91
-61.28
-72.32
-78.23
-76.47
-67.90
-55.60
-43.71
-36.78
-37.20
-42.76
-47.77
-47.36
-39.08
-22.96
-1.04
23.26
45.86
63.73
74.94
82.32
88.78
96.14
104.73
113.75
121.76
127.61
130.77
131.25
129.15
122.77
109.60
88.15
60.78
29.20
-2.49
-30.25
-52.12
-68.54
-81.70
-92.66
-99.39
-97.12
-82.14
-54.30
-19.42
11.86
28.72
24.38
-0.66
-39.69
-82.53
-120.62
-147.88
-160.24
-155.22
-132.12
-93.48
-45.77
1.20
38.07
54.79
45.39
12.92
-31.56
-74.08
-103.48
-114.77
-109.07
-89.30
-60.88
-28.02
8.04
48.15
93.49
144.08
198.61
254.46
309.64
357.89
391.01
402.97
392.15
361.79
318.81
271.26
213.12
154.10
107.57
79.18
66.41
63.46
66.18
71.83
77.15
78.35
77.51
74.37
68.53
61.29
55.06
51.90
52.08
54.16
55.94
57.25
56.41
52.05
44.41
35.08
25.69
16.56
6.47
-6.66
-23.74
-46.29
-74.95
-108.63
-144.96
-181.41
-216.61
-250.66
-284.71
-319.92
-358.39
-402.44
-453.47
-510.93
-571.27
-627.86
-672.07
-695.65
-693.56
-666.44
-620.22
-563.68
-505.15
-450.07
-400.29
-355.22
-313.57
-274.68
-238.73
-205.90
-175.67
-146.66
-117.27
-86.47
-54.30
-21.74
9.82
39.35
66.75
92.79
118.81
145.87
174.23
202.81
229.86
253.88
274.83
294.93
318.10
347.44
382.48
417.94
444.96
455.08
444.15
414.08
371.22
322.78
274.10
228.29
187.13
152.14
124.68
104.05
85.54
60.96
22.34
-32.95
-99.06
-164.10
-215.74
-246.84
-257.52
-253.26
-240.45
-223.15
-201.98
-175.05
-142.14
-106.33
-72.61
-45.14
-25.21
-10.91
1.37
15.46
36.94
69.01
111.06
159.34
208.56
252.39
283.99
297.23
288.34
262.23
224.04
175.87
118.51
55.86
-4.17
-51.87
-78.95
-81.32
-52.04
6.47
80.88
154.40
216.31
264.09
300.18
328.26
351.14
381.38
425.12
477.53
528.69
572.39
608.01
637.43
662.37
613.29
466.80
261.98
63.02
-93.19
-202.40
-274.33
-320.50
-350.30
-370.46
-374.62
-360.05
-332.94
-304.41
-280.99
-263.17
-248.44
-233.73
-216.15
-185.05
-135.55
-79.46
-33.19
-9.90
-14.86
-44.98
-90.53
-138.19
-171.00
-180.08
-168.81
-147.48
-126.01
-109.97
-100.83
-98.26
-100.67
-104.22
-105.65
-102.78
-93.28
-75.06
-47.99
-14.60
17.08
39.72
50.59
51.63
47.26
42.25
39.46
39.46
41.23
44.07
48.27
54.73
64.57
78.55
97.04
119.89
145.57
170.99
191.32
201.20
195.76
173.70
138.69
98.71
63.32
39.75
30.32
31.60
40.58
50.99
56.80
54.39
42.76
22.91
-2.79
-30.39
-53.88
-65.77
-60.16
-34.81
6.62
55.03
99.04
129.41
142.26
139.36
125.81
106.47
84.45
61.01
36.62
12.18
-10.51
-29.51
-43.56
-52.68
-58.36
-62.76
-67.99
-75.55
-86.47
-100.83
-117.97
-136.86
-156.49
-176.39
-196.67
-217.85
-240.79
-266.78
-297.48
-334.80
-379.59
-430.25
-481.65
-525.49
-552.75
-557.07
-537.50
-498.99
-450.49
-401.00
-356.63
-318.98
-286.10
-254.79
-222.94
-190.19
-157.31
-125.00
-92.40
-57.82
-19.08
25.02
73.56
123.36
170.36
211.41
245.15
272.02
292.06
304.21
306.53
297.65
279.01
255.54
234.45
218.96
210.61
205.53
197.04
180.90
157.46
130.69
104.50
80.53
57.91
35.20
11.23
-13.55
-37.28
-58.17
-74.48
-86.04
-94.23
-100.75
-106.59
-112.19
-116.95
-119.57
-119.06
-114.21
-105.32
-93.88
-81.72
-70.13
-59.31
-47.47
-30.47
-10.46
13.21
40.61
70.80
102.26
133.49
163.49
192.17
220.17
248.12
277.42
308.81
342.88
380.07
419.83
459.47
493.53
514.50
514.74
490.26
441.79
375.17
299.61
224.42
156.29
97.91
48.61
5.68
-33.35
-70.76
-108.49
-148.20
-192.11
-242.24
-298.88
-359.11
-416.75
-463.62
-492.75
-500.99
-489.04
-461.60
-424.67
-382.65
-337.13
-288.09
-236.03
-183.25
-133.26
-87.44
-46.12
-8.10
29.35
69.74
115.25
165.34
216.43
262.88
301.39
328.53
342.78
346.36
345.60
347.75
356.75
371.27
385.78
396.29
397.59
385.13
357.25
316.24
266.09
209.78
149.01
67.33
-29.32
-120.12
-185.85
-220.71
-229.25
-222.07
-209.80
-200.59
-199.49
-205.06
-216.52
-232.64
-252.42
-271.94
-278.69
-262.18
-222.06
-169.07
-115.31
-70.96
-41.17
-25.36
-18.41
-14.61
-11.67
-10.49
-12.55
-16.15
-18.89
-19.02
-15.95
-9.96
-2.30
4.39
7.44
5.97
1.98
-1.89
-3.81
-3.17
-0.27
3.88
7.43
8.72
7.18
3.91
0.47
-1.89
-2.73
-2.19
-0.87
0.19
0.07
-1.52
-4.14
-6.99
-9.43
-11.22
-12.53
-13.77
-15.50
-18.13
-21.67
-25.69
-29.55
-32.62
-34.34
-34.64
-33.58
-31.33
-28.11
-24.17
-19.62
-14.66
-9.49
-4.37
0.34
4.37
7.53
9.85
11.55
13.15
15.16
17.84
21.16
24.67
27.76
29.87
30.68
30.35
29.80
29.87
31.10
33.48
36.43
39.07
40.61
40.81
40.16
40.46
43.21
49.08
57.50
66.63
74.06
77.52
75.83
69.32
60.55
52.29
46.94
46.16
50.46
59.39
71.49
84.59
91.01
87.06
72.00
48.99
24.31
4.55
-5.95
-6.95
-2.10
3.14
5.48
2.96
-4.24
-13.95
-23.42
-30.46
-34.68
-37.50
-41.19
-46.89
-55.91
-68.46
-80.71
-87.80
-85.11
-70.60
-45.76
-14.85
16.81
42.02
54.02
48.47
24.12
-17.50
-73.19
-138.55
-208.20
-265.59
-293.98
-285.23
-244.39
-184.68
-119.92
-61.13
-15.49
14.41
30.90
38.23
41.26
43.94
48.23
53.81
58.82
61.63
62.29
62.57
63.49
64.83
65.59
64.74
61.46
55.33
46.55
36.19
25.95
16.73
8.52
0.87
-6.52
-13.72
-20.29
-25.39
-27.94
-27.14
-23.44
-18.48
-14.35
-12.68
-14.15
-17.98
-22.36
-25.05
-24.52
-20.50
-14.26
-8.08
-3.80
-2.99
-6.34
-14.04
-25.61
-39.41
-52.28
-59.93
-58.26
-44.89
-22.07
4.86
29.19
45.64
52.47
51.67
47.32
43.11
41.10
40.51
40.10
38.99
37.35
36.12
36.14
37.53
39.60
41.42
42.04
41.74
41.56
42.86
46.34
51.27
55.44
56.02
50.92
39.90
25.09
9.85
-2.64
-10.72
-14.55
-15.55
-15.32
-14.78
-14.05
-12.88
-11.36
-10.11
-9.92
-11.23
-13.79
-16.73
-19.05
-20.06
-19.74
-18.86
-18.46
-19.37
-21.87
-25.66
-30.11
-34.71
-39.45
-44.00
-48.54
-53.17
-57.74
-61.70
-64.27
-64.78
-63.10
-59.73
-55.77
-52.63
-51.40
-52.51
-55.48
-59.12
-61.90
-62.45
-59.97
-54.46
-46.70
-37.92
-29.43
-22.27
-16.97
-13.47
-11.13
-8.93
-5.70
-0.58
6.82
16.19
26.70
37.14
46.34
53.47
58.22
60.72
61.41
60.80
59.32
57.27
54.77
51.93
48.82
45.60
42.49
39.68
37.26
35.12
32.98
30.46
27.32
23.54
19.46
15.58
12.39
10.16
8.86
8.17
7.74
7.26
6.56
5.58
4.27
2.57
0.50
-1.79
-3.97
-5.60
-6.25
-5.80
-4.51
-2.98
-2.00
-2.16
-3.60
-5.78
-7.64
-7.94
-5.76
-0.92
5.84
13.12
19.39
23.48
25.04
24.46
22.64
20.51
18.72
17.43
16.47
15.52
14.33
12.89
11.32
9.84
8.60
7.69
7.11
6.82
6.83
7.16
7.77
8.54
9.19
9.38
8.81
7.36
5.17
2.59
0.07
-2.00
-3.46
-4.40
-5.12
-5.94
-7.03
-8.32
-9.52
-10.36
-10.74
-10.88
-11.26
-12.37
-14.39
-17.01
-19.46
-20.69
-19.81
-16.41
-10.80
-3.92
2.93
8.55
12.24
13.98
14.32
14.07
13.88
13.97
14.05
13.64
12.40
10.42
8.20
6.41
5.55
5.69
6.48
7.35
7.82
7.73
7.17
6.42
5.71
5.15
4.74
4.47
4.34
4.35
4.38
4.13
3.21
1.31
-1.55
-5.02
-8.43
-11.07
-12.45
-12.56
-11.74
-10.63
-9.83
-9.74
-10.46
-11.78
-13.24
-14.26
-14.25
-12.77
-9.67
-5.17
0.14
5.48
10.13
13.67
16.04
17.49
18.37
18.94
19.29
19.39
19.09
18.28
16.96
15.28
13.55
12.13
11.41
11.59
12.67
14.41
16.39
18.13
19.24
19.54
19.03
17.90
16.49
15.18
14.29
13.98
14.18
14.58
14.76
14.30
12.93
10.57
7.43
3.91
0.55
-2.11
-3.70
-4.17
-3.83
-3.26
-3.11
-3.79
-5.32
-7.30
-9.07
-9.94
-9.43
-7.41
-4.18
-0.32
3.41
6.24
7.62
7.29
5.41
2.39
-1.22
-4.97
-8.58
-12.01
-15.31
-18.58
-21.87
-25.16
-28.39
-31.40
-34.00
-35.93
-36.93
-36.80
-35.53
-33.33
-30.58
-27.77
-25.28
-23.29
-21.69
-20.21
-18.55
-16.59
-14.42
-12.33
-10.61
-9.42
-8.72
-8.30
-7.92
-7.49
-7.08
-6.86
-7.00
-7.51
-8.24
-8.89
-9.07
-8.37
-6.51
-3.34
0.97
5.99
11.00
15.21
18.05
19.32
19.29
18.54
17.68
17.09
16.80
16.53
15.98
14.97
13.61
12.22
11.18
10.79
11.07
11.80
12.66
13.27
13.44
13.06
12.20
10.93
9.32
7.41
5.28
3.05
0.92
-0.90
-2.27
-3.16
-3.66
-3.96
-4.23
-4.57
-4.95
-5.28
-5.43
-5.42
-5.36
-5.48
-5.98
-6.92
-8.10
-9.11
-9.43
-8.55
-6.24
-2.61
1.86
6.41
10.30
12.99
14.35
14.60
14.20
13.56
12.89
12.14
11.12
9.68
7.90
6.11
4.74
4.11
4.27
4.89
5.46
5.57
5.07
4.20
3.41
3.09
3.30
3.73
3.85
3.21
1.72
-0.31
-2.35
-3.92
-4.85
-5.32
-5.68
-6.25
-7.08
-7.92
-8.40
-8.21
-7.38
-6.31
-5.57
-5.66
-6.75
-8.60
-10.68
-12.36
-13.11
-12.67
-10.99
-8.22
-4.61
-0.51
3.65
7.37
10.20
11.85
12.28
11.69
10.49
9.07
7.71
6.49
5.34
4.16
2.92
1.72
0.70
-0.05
-0.59
-1.09
-1.72
-2.51
-3.21
-3.49
-3.04
-1.88
-0.34
1.00
1.60
1.23
0.09
-1.27
-2.19
-2.20
-1.28
0.12
1.26
1.45
0.39
-1.67
-4.05
-5.97
-6.97
-7.07
-6.82
-6.94
-7.93
-9.78
-11.95
-13.54
-13.68
-11.85
-8.07
-2.90
2.74
7.80
11.46
13.21
13.07
11.43
8.94
6.29
3.97
2.24
1.08
0.30
-0.37
-1.08
-1.80
-2.26
-2.07
-0.85
1.55
4.98
8.91
12.54
15.09
15.94
14.88
12.11
8.08
3.43
-1.31
-5.69
-9.42
-12.30
-14.21
-15.08
-14.96
-13.94
-12.21
-9.92
-7.22
-4.22
-1.10
1.86
4.32
5.90
6.38
5.75
4.31
2.54
1.07
0.51
1.38
4.01
8.41
14.24
20.77
27.08
32.32
36.01
38.06
38.79
38.64
37.84
36.35
33.92
30.37
25.87
21.00
16.62
13.49
11.99
11.98
12.90
14.02
14.70
14.61
13.75
12.37
10.86
9.62
8.93
8.88
9.36
10.09
10.70
10.90
10.48
9.40
7.71
5.53
3.00
0.28
-2.50
-5.24
-8.01
-11.03
-14.78
-19.80
-26.54
-35.12
-45.20
-55.99
-66.48
-75.83
-83.73
-90.53
-96.90
-103.29
-109.37
-113.87
-114.84
-110.37
-99.22
-81.33
-57.88
-30.94
-3.10
22.92
44.68
60.33
68.92
70.66
66.92
59.81
51.63
44.20
38.45
34.50
31.82
29.66
27.37
24.54
21.02
16.86
12.26
7.59
3.26
-0.32
-2.87
-4.35
-4.98
-5.09
-5.10
-5.34
-6.08
-7.53
-9.89
-13.31
-17.75
-22.87
-27.91
-31.76
-33.26
-31.62
-26.75
-19.41
-11.11
-3.54
1.89
4.47
4.38
2.39
-0.43
-3.16
-5.22
-6.52
-7.32
-8.03
-9.05
-10.55
-12.39
-14.13
-15.27
-15.44
-14.61
-13.06
-11.24
-9.48
-7.86
-6.19
-4.30
-2.18
-0.09
1.53
2.27
1.96
0.74
-1.02
-2.87
-4.36
-5.17
-5.15
-4.33
-3.01
-1.67
-0.92
-1.24
-2.85
-5.55
-8.72
-11.50
-12.95
-12.29
-9.12
-3.58
3.66
11.47
18.55
23.77
26.49
26.76
25.21
22.85
20.63
19.17
18.56
18.47
18.38
17.83
16.65
14.97
13.13
11.54
10.46
10.01
10.06
10.40
10.77
10.90
10.64
9.89
8.61
6.85
4.72
2.37
0.01
-2.16
-4.02
-5.56
-6.86
-8.02
-9.05
-9.81
-10.15
-9.98
-9.57
-9.47
-10.39
-12.83
-16.76
-21.31
-25.05
-26.41
-24.27
-18.40
-9.64
0.42
9.83
16.93
20.90
21.91
20.91
19.24
18.13
18.31
19.84
22.01
23.75
24.17
22.93
20.35
17.36
15.15
14.74
16.56
19.99
23.99
27.82
31.41
35.04
39.03
43.29
47.33
50.42
51.27
49.38
45.72
42.34
41.07
42.74
46.97
52.62
58.34
61.62
60.59
54.89
45.60
34.19
22.16
10.67
0.61
-7.77
-16.71
-28.84
-45.29
-65.01
-85.86
-105.47
-122.72
-138.21
-144.02
-136.93
-121.63
-106.87
-96.76
-89.35
-79.91
-65.23
-44.83
-20.81
1.71
18.26
27.01
29.35
26.28
20.56
13.68
7.47
4.59
6.85
15.59
29.60
44.72
53.26
49.01
30.73
4.52
-20.05
-33.23
-30.02
-14.53
2.11
5.88
-8.10
-36.95
-66.36
-80.40
-73.31
-51.03
-30.72
-19.53
-19.36
-27.42
-40.12
-56.10
-74.94
-98.77
-120.60
-130.08
-118.85
-87.53
-43.24
3.99
45.08
74.01
89.03
92.85
89.19
81.72
72.21
62.09
52.81
46.05
42.93
43.22
45.95
48.75
49.63
47.09
41.51
34.60
28.47
24.72
23.85
25.53
28.35
30.69
31.17
29.44
26.09
22.30
19.30
17.95
18.65
20.95
23.87
26.31
27.49
27.26
25.98
24.40
23.29
23.14
23.95
25.42
27.34
29.47
31.30
31.66
28.89
21.36
8.57
-8.04
-25.88
-41.42
-51.79
-55.84
-54.39
-49.51
-43.31
-37.11
-31.31
-25.80
-20.55
-15.96
-12.63
-10.91
-10.61
-11.05
-11.35
-10.80
-9.21
-6.83
-4.25
-2.05
-0.62
-0.05
-0.10
-0.35
-0.35
0.14
1.14
2.39
3.49
4.10
4.09
3.54
2.75
1.98
1.44
1.14
1.01
1.00
1.10
1.34
1.77
2.34
2.88
3.18
2.98
2.21
0.94
-0.56
-1.94
-2.87
-3.18
-2.93
-2.13
-1.06
-0.04
0.69
1.08
1.21
1.30
1.53
1.98
2.65
3.37
4.02
4.51
4.80
4.88
4.74
4.37
3.72
2.81
1.67
0.44
-0.66
-1.42
-1.73
-1.64
-1.29
-0.88
-0.56
-0.46
-0.63
-1.08
-1.79
-2.70
-3.68
-4.52
-4.97
-4.85
-4.19
-3.19
-2.15
-1.26
-0.51
0.24
1.25
2.74
4.80
7.29
9.85
12.06
13.55
14.16
14.00
13.44
13.11
13.56
14.93
16.78
18.28
18.37
16.22
11.60
5.00
-2.19
-8.41
-12.63
-14.89
-16.10
-17.53
-20.23
-24.45
-29.45
-33.39
-34.46
-32.16
-27.73
-23.47
-21.66
-23.72
-29.66
-37.99
-45.59
-49.27
-47.63
-41.70
-34.31
-29.13
-29.71
-38.33
-54.68
-74.36
-90.11
-94.59
-82.81
-53.51
-9.74
41.51
90.54
122.12
124.66
98.80
56.13
11.44
-23.47
-41.97
-42.78
-28.80
-5.45
22.09
49.67
73.93
92.36
103.83
108.63
107.73
102.06
92.13
78.72
62.67
44.57
25.10
5.49
-12.59
-27.85
-40.26
-49.97
-56.73
-59.86
-58.88
-53.77
-45.24
-34.74
-24.30
-15.90
-10.75
-8.77
-8.81
-9.51
-9.85
-9.52
-8.87
-8.71
-9.83
-12.50
-16.24
-19.99
-22.52
-22.98
-21.21
-17.55
-12.77
-7.65
-2.63
2.22
7.09
12.21
17.74
23.44
28.85
33.41
36.62
38.10
37.65
35.14
30.74
25.03
18.63
12.17
6.14
1.02
-2.72
-4.54
-4.16
-1.56
2.88
8.06
12.66
15.91
18.37
21.84
28.34
38.17
49.39
58.24
60.49
53.44
36.93
13.53
-12.50
-36.90
-57.14
-72.07
-79.20
-76.03
-61.87
-39.85
-15.50
5.67
23.46
39.49
55.74
73.65
92.30
109.78
123.08
129.03
125.05
109.66
82.27
44.29
-0.45
-45.82
-82.38
-103.41
-109.20
-105.99
-100.48
-95.93
-91.44
-84.47
-73.80
-60.77
-48.83
-40.90
-37.40
-36.24
-34.76
-31.23
-25.54
-18.82
-12.61
-8.50
-7.10
-7.74
-8.84
-8.95
-7.36
-4.27
-0.52
2.90
5.09
5.67
5.01
4.05
3.67
4.28
5.76
7.66
9.46
10.73
11.29
11.32
11.19
11.30
11.85
12.78
13.98
15.28
16.65
18.19
20.12
22.62
25.85
29.78
34.14
38.57
42.38
45.26
46.77
46.56
44.41
40.26
34.28
26.81
18.63
10.16
1.97
-5.46
-11.78
-16.74
-20.28
-22.43
-23.36
-23.24
-22.45
-21.25
-19.94
-18.67
-17.53
-16.52
-15.55
-14.79
-13.93
-13.03
-12.16
-11.44
-10.96
-10.73
-10.65
-10.55
-10.24
-9.62
-8.83
-8.11
-7.78
-8.05
-8.91
-10.12
-11.23
-11.81
-11.66
-11.00
-10.40
-10.50
-11.78
-14.24
-17.37
-20.28
-22.18
-22.70
-22.19
-21.63
-22.14
-24.54
-28.83
-34.20
-39.27
-42.96
-44.66
-44.76
-44.30
-44.44
-46.15
-50.07
-56.60
-65.52
-75.48
-83.52
-85.45
-77.34
-57.55
-28.19
5.17
35.44
56.92
67.46
68.76
64.74
59.18
54.11
49.54
44.60
38.90
33.09
28.45
25.89
25.25
25.35
24.69
22.04
17.26
11.20
5.20
0.48
-2.42
-3.82
-4.67
-6.10
-8.89
-13.16
-18.37
-23.73
-28.54
-32.52
-35.91
-39.24
-43.06
-47.59
-52.55
-57.20
-60.58
-61.75
-60.05
-55.25
-47.50
-37.30
-25.30
-12.23
1.18
14.20
26.15
36.42
44.54
50.22
53.43
54.34
53.31
50.79
47.22
43.01
38.48
33.87
29.30
24.79
20.36
15.99
11.61
7.16
2.58
-2.03
-6.62
-11.19
-15.76
-20.35
-25.01
-29.78
-34.74
-40.03
-45.43
-50.88
-56.38
-61.96
-67.70
-73.65
-79.87
-86.42
-93.44
-100.50
-107.36
-113.83
-119.79
-125.18
-130.00
-134.39
-138.66
-143.38
-148.46
-154.13
-160.60
-167.82
-175.34
-182.15
-186.68
-186.59
-184.48
-180.41
-174.16
-165.37
-153.65
-138.61
-119.91
-97.48
-71.73
-43.65
-14.09
15.45
43.33
68.23
89.57
107.52
122.80
136.30
148.58
160.37
171.75
182.55
192.68
202.41
212.32
223.17
235.79
250.95
269.63
292.03
317.03
341.88
362.41
374.15
373.89
360.94
337.42
307.51
275.63
245.02
217.06
191.73
168.50
147.10
127.73
110.70
95.95
82.82
70.28
57.50
44.29
31.06
18.76
8.23
-0.10
-6.42
-11.43
-15.99
-20.76
-25.90
-31.11
-35.81
-39.49
-41.95
-43.35
-44.10
-44.64
-45.26
-45.98
-46.68
-47.13
-47.18
-46.76
-45.91
-44.75
-43.40
-42.02
-40.69
-39.48
-38.37
-37.27
-36.08
-34.74
-33.27
-31.77
-30.41
-29.27
-28.35
-27.56
-26.78
-25.94
-25.09
-24.36
-23.87
-23.68
-23.71
-23.85
-23.99
-24.10
-24.17
-24.16
-23.98
-23.48
-22.56
-21.21
-19.57
-17.83
-16.14
-14.60
-13.24
-12.02
-10.96
-10.06
-9.39
-8.95
-8.74
-8.72
-8.85
-9.09
-9.39
-9.68
-9.87
-9.91
-9.76
-9.44
-9.01
-8.56
-8.14
-7.79
-7.54
-7.33
-7.14
-6.92
-6.68
-6.51
-6.51
-6.75
-7.21
-7.77
-8.26
-8.57
-8.71
-8.76
-8.87
-9.10
-9.47
-9.86
-10.18
-10.38
-10.49
-10.58
-10.72
-10.91
-11.10
-11.16
-10.96
-10.39
-9.41
-8.09
-6.59
-5.10
-3.78
-2.71
-1.88
-1.28
-0.88
-0.69
-0.72
-0.93
-1.24
-1.53
-1.71
-1.76
-1.72
-1.67
-1.68
-1.74
-1.82
-1.84
-1.76
-1.61
-1.43
-1.32
-1.33
-1.48
-1.72
-2.01
-2.28
-2.50
-2.65
-2.74
-2.76
-2.72
-2.59
-2.38
-2.13
-1.90
-1.76
-1.79
-2.00
-2.37
-2.82
-3.25
-3.54
-3.62
-3.46
-3.11
-2.68
-2.33
-2.19
-2.33
-2.72
-3.28
-3.86
-4.32
-4.56
-4.55
-4.33
-3.94
-3.48
-3.02
-2.66
-2.44
-2.41
-2.52
-2.71
-2.89
-2.96
-2.85
-2.54
-2.06
-1.49
-0.94
-0.48
-0.16
0.01
0.04
-0.05
-0.22
-0.46
-0.73
-1.01
-1.28
-1.51
-1.68
-1.78
-1.81
-1.79
-1.76
-1.78
-1.92
-2.19
-2.53
-2.88
-3.14
-3.31
-3.45
-3.64
-3.95
-4.35
-4.70
-4.82
-4.57
-3.92
-2.96
-1.90
-0.92
-0.18
0.28
0.50
0.56
0.57
0.62
0.74
0.89
1.04
1.12
1.13
1.12
1.15
1.24
1.36
1.39
1.23
0.88
0.42
-0.00
-0.22
-0.21
-0.08
-0.01
-0.14
-0.48
-0.91
-1.28
-1.48
-1.49
-1.38
-1.21
-1.01
-0.79
-0.54
-0.31
-0.20
-0.26
-0.53
-0.93
-1.35
-1.66
-1.77
-1.65
-1.31
-0.82
-0.27
0.23
0.55
0.64
0.53
0.33
0.17
0.13
0.17
0.20
0.12
-0.11
-0.42
-0.73
-0.94
-1.01
-0.98
-0.92
-0.91
-0.98
-1.12
-1.25
-1.28
-1.18
-0.94
-0.66
-0.45
-0.40
-0.56
-0.86
-1.19
-1.43
-1.55
-1.60
-1.67
-1.87
-2.20
-2.60
-2.93
-3.09
-3.04
-2.81
-2.47
-2.08
-1.66
-1.22
-0.77
-0.34
0.01
0.25
0.40
0.50
0.58
0.65
0.69
0.67
0.55
0.36
0.12
-0.08
-0.22
-0.31
-0.37
-0.47
-0.64
-0.87
-1.11
-1.27
-1.29
-1.17
-0.98
-0.81
-0.76
-0.83
-0.98
-1.12
-1.21
-1.24
-1.26
-1.33
-1.49
-1.74
-2.06
-2.43
-2.79
-3.09
-3.25
-3.21
-2.94
-2.45
-1.87
-1.32
-0.89
-0.61
-0.41
-0.22
0.05
0.41
0.84
1.25
1.59
1.84
1.98
2.00
1.88
1.57
1.07
0.41
-0.31
-0.92
-1.28
-1.32
-1.08
-0.70
-0.33
-0.12
-0.07
-0.14
-0.24
-0.30
-0.34
-0.41
-0.54
-0.72
-0.91
-1.00
-0.98
-0.88
-0.77
-0.79
-0.99
-1.39
-1.88
-2.31
-2.55
-2.53
-2.29
-1.97
-1.70
-1.55
-1.50
-1.45
-1.29
-0.99
-0.61
-0.25
0.00
0.15
0.26
0.39
0.58
0.78
0.91
0.91
0.77
0.57
0.40
0.30
0.27
0.23
0.12
-0.09
-0.37
-0.69
-0.97
-1.20
-1.35
-1.42
-1.35
-1.12
-0.73
-0.23
0.23
0.49
0.43
0.06
-0.54
-1.17
-1.69
-2.00
-2.11
-2.10
-2.03
-1.93
-1.77
-1.53
-1.23
-0.92
-0.67
-0.54
-0.46
-0.36
-0.13
0.28
0.81
1.31
1.66
1.74
1.57
1.21
0.78
0.40
0.14
0.01
0.01
0.07
0.16
0.21
0.18
0.08
-0.08
-0.27
-0.46
-0.63
-0.81
-0.98
-1.12
-1.21
-1.22
-1.19
-1.20
-1.32
-1.59
-1.94
-2.24
-2.38
-2.27
-1.97
-1.58
-1.26
-1.08
-1.03
-1.01
-0.90
-0.66
-0.29
0.09
0.38
0.51
0.51
0.44
0.37
0.34
0.37
0.42
0.46
0.48
0.45
0.38
0.26
0.15
0.12
0.19
0.37
0.59
0.75
0.74
0.53
0.15
-0.29
-0.67
-0.91
-0.97
-0.91
-0.80
-0.75
-0.86
-1.16
-1.64
-2.19
-2.71
-3.07
-3.21
-3.14
-2.87
-2.48
-2.02
-1.54
-1.10
-0.73
-0.44
-0.22
-0.03
0.15
0.28
0.33
0.23
-0.05
-0.42
-0.77
-0.96
-0.93
-0.71
-0.46
-0.30
-0.31
-0.48
-0.74
-1.01
-1.21
-1.31
-1.32
-1.19
-0.88
-0.36
0.34
1.13
1.87
2.43
2.81
3.06
3.27
3.47
3.60
3.54
3.15
2.42
1.45
0.45
-0.40
-1.00
-1.37
-1.63
-1.86
-2.07
-2.19
-2.11
-1.81
-1.36
-0.92
-0.63
-0.58
-0.72
-0.91
-1.01
-0.92
-0.70
-0.46
-0.34
-0.43
-0.66
-0.89
-0.94
-0.76
-0.41
-0.10
-0.02
-0.22
-0.66
-1.13
-1.45
-1.53
-1.41
-1.21
-1.08
-1.06
-1.15
-1.25
-1.32
-1.32
-1.27
-1.20
-1.13
-1.03
-0.92
-0.84
-0.85
-1.01
-1.34
-1.79
-2.22
-2.47
-2.42
-2.07
-1.49
-0.85
-0.32
0.02
0.16
0.14
0.06
-0.01
-0.05
-0.08
-0.17
-0.38
-0.68
-1.02
-1.28
-1.40
-1.39
-1.36
-1.47
-1.87
-2.61
-3.58
-4.59
-5.44
-6.05
-6.46
-6.81
-7.24
-7.86
-8.74
-9.69
-10.51
-11.04
-11.27
-11.28
-11.24
-11.31
-11.71
-12.56
-13.49
-13.90
-13.23
-11.17
-7.84
-3.67
0.71
4.66
7.79
10.60
13.91
18.33
23.83
29.74
35.12
39.16
41.48
42.26
42.93
45.14
50.05
57.82
67.64
78.32
88.73
98.13
101.60
95.70
79.72
56.48
30.73
6.77
-12.74
-26.79
-35.97
-42.30
-47.99
-55.05
-64.31
-74.82
-84.03
-88.71
-86.73
-78.26
-65.88
-52.71
-41.24
-32.38
-25.54
-19.56
-13.63
-7.96
-3.58
-1.54
-1.73
-2.93
-3.51
-2.32
0.61
4.19
6.92
7.63
6.06
3.15
0.35
-1.11
-0.79
0.76
2.40
3.02
2.02
-0.55
-3.89
-6.99
-8.94
-9.23
-7.88
-5.25
-1.92
1.54
4.64
6.97
8.17
7.95
6.30
3.33
-0.59
-4.87
-8.86
-12.07
-14.26
-15.59
-16.20
-15.95
-14.71
-12.36
-8.94
-4.66
0.07
4.76
8.88
12.34
15.56
18.90
22.50
26.26
29.91
33.13
35.72
37.37
36.94
34.79
31.30
26.43
19.89
11.52
1.75
-8.53
-18.92
-28.46
-35.99
-41.12
-44.05
-45.36
-45.75
-45.87
-43.47
-39.20
-34.63
-31.04
-28.63
-26.18
-21.57
-13.00
-0.16
15.21
29.36
38.66
41.06
36.70
27.77
17.48
8.65
2.75
-0.20
-1.47
-2.20
-2.90
-3.61
-4.17
-4.51
-4.73
-4.93
-5.13
-5.38
-5.54
-5.48
-5.19
-4.75
-4.19
-3.42
-2.18
-0.16
2.84
6.83
11.47
16.07
19.56
20.80
18.78
13.09
4.30
-5.99
-15.41
-21.67
-23.47
-21.06
-16.17
-11.13
-7.77
-6.59
-6.73
-6.64
-5.10
-1.95
1.91
5.13
6.71
6.55
5.35
4.12
3.58
3.84
4.44
4.67
4.00
2.38
0.40
-1.03
-1.02
0.64
3.80
8.06
12.82
17.29
20.44
21.14
18.33
11.44
0.82
-12.08
-24.86
-35.20
-41.78
-44.55
-44.46
-42.66
-39.91
-36.37
-31.77
-25.41
-17.14
-7.58
2.12
10.88
18.10
23.68
27.84
30.97
33.98
37.43
41.29
45.04
48.17
50.66
52.93
55.62
56.17
53.09
46.19
36.22
23.67
8.38
-9.49
-28.57
-46.40
-60.99
-69.59
-70.51
-63.97
-52.00
-37.67
-23.71
-11.69
-2.85
2.57
6.20
10.01
15.12
21.48
27.80
32.74
35.53
36.09
35.24
34.98
37.13
42.31
49.88
58.10
65.61
71.75
76.14
74.64
63.64
42.54
14.29
-16.50
-46.22
-72.25
-93.25
-109.64
-123.09
-134.73
-143.20
-147.53
-142.55
-124.72
-93.69
-52.88
-8.53
32.77
65.30
86.11
97.67
104.50
108.88
110.05
105.74
94.60
79.76
63.02
47.44
35.40
27.05
20.30
12.11
0.13
-15.39
-32.35
-48.65
-62.48
-73.57
-83.61
-94.68
-107.19
-118.14
-123.94
-118.06
-97.42
-63.54
-22.37
17.86
50.36
71.28
81.80
88.39
98.09
112.96
128.66
138.85
135.10
113.57
76.56
31.90
-10.86
-43.90
-63.19
-69.94
-69.98
-69.86
-73.58
-82.06
-93.68
-105.88
-117.10
-123.55
-121.89
-109.46
-85.27
-51.32
-12.50
26.01
56.49
76.06
86.91
93.66
101.00
111.49
125.41
137.82
142.70
134.86
112.55
77.93
36.19
-6.95
-42.39
-65.78
-78.22
-83.82
-86.84
-89.35
-91.94
-95.12
-99.62
-105.17
-111.73
-115.08
-110.06
-93.05
-63.75
-26.10
12.90
45.66
66.80
75.90
76.24
72.23
67.43
63.84
62.18
62.70
65.65
71.08
77.80
83.20
83.74
76.49
60.71
38.63
14.76
-5.87
-19.69
-25.94
-26.56
-24.80
-23.24
-22.70
-22.39
-21.07
-18.19
-14.42
-10.97
-8.90
-8.16
-7.57
-5.39
-0.77
5.54
11.04
12.37
7.07
-5.70
-24.36
-46.09
-67.70
-86.03
-98.03
-100.74
-92.72
-73.29
-44.89
-12.54
17.55
40.39
54.13
59.98
62.12
64.41
68.26
71.92
72.05
65.82
52.75
35.13
16.87
1.74
-8.26
-13.30
-15.38
-16.62
-18.26
-20.10
-21.07
-20.23
-17.56
-14.15
-11.51
-10.69
-11.53
-12.86
-13.12
-11.14
-6.79
-0.96
4.75
8.84
10.48
9.78
7.59
4.99
2.85
1.46
0.67
0.06
-0.67
-1.55
-2.30
-2.54
-2.01
-0.80
0.69
1.86
2.25
1.68
0.32
-1.38
-3.01
-4.26
-5.04
-5.43
-5.55
-5.41
-4.95
-4.10
-2.89
-1.44
0.05
1.34
2.29
2.88
3.16
3.20
3.00
2.56
1.81
0.81
-0.34
-1.48
-2.45
-3.09
-3.40
-3.40
-3.18
-2.79
-2.23
-1.45
-0.44
0.82
2.37
4.21
6.33
8.71
11.25
13.87
16.44
18.87
20.69
21.60
21.40
20.04
17.66
14.52
10.89
7.02
3.10
-0.73
-4.31
-7.47
-10.05
-12.00
-13.40
-14.45
-15.35
-16.21
-16.95
-17.31
-17.05
-16.04
-14.39
-12.34
-10.23
-8.27
-6.52
-4.91
-3.29
-1.61
0.12
1.79
3.28
4.47
5.27
5.61
5.45
4.79
3.68
2.23
0.58
-1.16
-2.89
-4.52
-5.93
-6.97
-7.52
-7.48
-6.94
-6.08
-5.15
-4.38
-3.87
-3.65
-3.64
-3.74
-3.81
-3.74
-3.44
-2.90
-2.18
-1.40
-0.70
-0.15
0.24
0.52
0.73
0.86
0.88
0.78
0.59
0.43
0.42
0.66
1.14
1.76
2.38
2.86
3.12
3.16
3.10
3.07
3.21
3.59
4.18
4.80
5.28
5.45
5.25
4.74
4.04
3.28
2.51
1.73
0.92
0.09
-0.68
-1.27
-1.60
-1.64
-1.45
-1.11
-0.69
-0.22
0.33
1.01
1.79
2.62
3.41
4.06
4.53
4.83
5.02
5.17
5.27
5.30
5.21
4.93
4.48
3.92
3.31
2.69
2.08
1.47
0.87
0.29
-0.23
-0.64
-0.94
-1.13
-1.24
-1.29
-1.33
-1.38
-1.50
-1.75
-2.15
-2.67
-3.26
-3.80
-4.22
-4.45
-4.47
-4.28
-3.92
-3.43
-2.88
-2.35
-1.90
-1.57
-1.34
-1.19
-1.08
-0.99
-0.90
-0.81
-0.70
-0.54
-0.32
-0.07
0.15
0.28
0.28
0.17
0.01
-0.13
-0.21
-0.24
-0.21
-0.13
0.02
0.23
0.47
0.65
0.70
0.57
0.27
-0.14
-0.57
-0.98
-1.36
-1.71
-2.01
-2.25
-2.40
-2.44
-2.38
-2.27
-2.09
-1.83
-1.46
-0.95
-0.32
0.36
0.99
1.54
1.99
2.34
2.61
2.79
2.86
2.82
2.68
2.49
2.28
2.06
1.82
1.53
1.15
0.70
0.20
-0.28
-0.69
-0.98
-1.14
-1.18
-1.15
-1.08
-1.01
-0.95
-0.89
-0.85
-0.88
-1.00
-1.21
-1.46
-1.67
-1.76
-1.72
-1.60
-1.49
-1.43
-1.44
-1.46
-1.40
-1.20
-0.88
-0.51
-0.19
0.02
0.13
0.23
0.37
0.60
0.87
1.09
1.17
1.07
0.86
0.64
0.52
0.54
0.72
1.00
1.29
1.53
1.63
1.55
1.29
0.92
0.55
0.31
0.25
0.39
0.64
0.95
1.27
1.59
1.89
2.10
2.13
1.88
1.37
0.73
0.19
-0.10
-0.09
0.12
0.37
0.51
0.52
0.47
0.48
0.64
0.90
1.15
1.25
1.11
0.75
0.29
-0.15
-0.46
-0.64
-0.76
-0.89
-1.05
-1.21
-1.24
-1.11
-0.83
-0.48
-0.18
0.02
0.14
0.29
0.53
0.90
1.31
1.63
1.72
1.49
0.89
-0.03
-1.15
-2.32
-3.38
-4.19
-4.66
-4.79
-4.59
-4.11
-3.39
-2.49
-1.48
-0.47
0.42
1.10
1.50
1.65
1.59
1.41
1.20
1.02
0.87
0.77
0.67
0.60
0.56
0.60
0.75
1.01
1.31
1.51
1.50
1.17
0.50
-0.39
-1.35
-2.19
-2.78
-3.06
-3.06
-2.85
-2.47
-1.96
-1.30
-0.46
0.62
1.93
3.48
5.22
7.05
8.76
10.10
10.81
10.77
10.03
8.80
7.37
5.98
4.79
3.80
2.93
2.10
1.24
0.30
-0.71
-1.75
-2.72
-3.56
-4.22
-4.70
-5.04
-5.31
-5.52
-5.68
-5.78
-5.81
-5.79
-5.75
-5.70
-5.63
-5.49
-5.27
-4.93
-4.48
-3.92
-3.27
-2.57
-1.89
-1.30
-0.81
-0.39
0.00
0.43
0.89
1.33
1.68
1.88
1.89
1.72
1.44
1.12
0.83
0.69
0.76
1.05
1.51
2.01
2.44
2.71
2.82
2.81
2.70
2.49
2.15
1.62
0.88
-0.06
-1.11
-2.20
-3.24
-4.16
-4.93
-5.55
-6.00
-6.25
-6.25
-5.97
-5.41
-4.62
-3.70
-2.75
-1.81
-0.87
0.10
1.14
2.19
3.16
3.96
4.53
4.93
5.25
5.59
5.93
6.19
6.22
5.89
5.21
4.32
3.47
2.89
2.72
2.90
3.25
3.54
3.60
3.39
3.01
2.64
2.41
2.37
2.48
2.61
2.64
2.48
2.11
1.53
0.85
0.17
-0.35
-0.63
-0.67
-0.59
-0.56
-0.74
-1.21
-1.91
-2.71
-3.41
-3.88
-4.07
-3.97
-3.68
-3.28
-2.88
-2.53
-2.26
-2.04
-1.83
-1.58
-1.29
-1.00
-0.71
-0.43
-0.11
0.28
0.72
1.11
1.33
1.29
0.99
0.54
0.11
-0.12
-0.06
0.23
0.59
0.83
0.82
0.53
0.06
-0.44
-0.79
-0.89
-0.72
-0.36
0.05
0.39
0.55
0.48
0.20
-0.26
-0.85
-1.46
-2.00
-2.36
-2.48
-2.35
-2.04
-1.68
-1.39
-1.28
-1.35
-1.52
-1.68
-1.72
-1.57
-1.23
-0.75
-0.21
0.30
0.66
0.79
0.65
0.31
-0.13
-0.51
-0.72
-0.71
-0.50
-0.16
0.21
0.52
0.72
0.78
0.69
0.47
0.17
-0.14
-0.40
-0.59
-0.70
-0.73
-0.70
-0.62
-0.47
-0.26
-0.02
0.25
0.50
0.74
0.96
1.16
1.37
1.58
1.80
2.00
2.11
2.10
1.94
1.67
1.37
1.12
0.98
0.94
0.96
1.00
1.04
1.09
1.13
1.16
1.14
1.03
0.85
0.65
0.49
0.41
0.38
0.35
0.24
0.05
-0.20
-0.39
-0.48
-0.41
-0.25
-0.08
0.02
0.02
-0.07
-0.21
-0.37
-0.54
-0.74
-0.99
-1.27
-1.52
-1.68
-1.69
-1.57
-1.38
-1.24
-1.21
-1.29
-1.44
-1.59
-1.70
-1.80
-1.97
-2.26
-2.65
-3.03
-3.22
-3.10
-2.63
-1.91
-1.08
-0.33
0.25
0.61
0.79
0.85
0.84
0.81
0.80
0.82
0.89
1.02
1.19
1.35
1.45
1.46
1.33
1.05
0.68
0.29
-0.02
-0.18
-0.18
-0.09
-0.01
-0.05
-0.24
-0.54
-0.84
-1.03
-1.07
-1.02
-0.98
-1.04
-1.22
-1.45
-1.67
-1.80
-1.88
-1.95
-2.05
-2.15
-2.15
-1.95
-1.52
-0.97
-0.49
-0.25
-0.29
-0.48
-0.60
-0.46
0.01
0.72
1.46
2.01
2.26
2.23
2.02
1.74
1.47
1.22
1.01
0.85
0.75
0.73
0.73
0.72
0.64
0.48
0.32
0.23
0.29
0.51
0.85
1.21
1.49
1.61
1.51
1.20
0.71
0.15
-0.34
-0.67
-0.79
-0.73
-0.60
-0.49
-0.49
-0.63
-0.89
-1.19
-1.47
-1.66
-1.70
-1.61
-1.39
-1.10
-0.76
-0.39
-0.01
0.33
0.62
0.81
0.91
0.96
1.01
1.14
1.37
1.67
1.96
2.17
2.21
2.09
1.84
1.53
1.25
1.05
0.95
0.91
0.93
0.99
1.10
1.25
1.39
1.42
1.27
0.90
0.34
-0.32
-0.97
-1.50
-1.83
-1.93
-1.84
-1.64
-1.46
-1.43
-1.59
-1.92
-2.31
-2.61
-2.74
-2.67
-2.50
-2.31
-2.17
-2.08
-1.98
-1.80
-1.47
-0.96
-0.29
0.44
1.14
1.67
1.95
1.95
1.75
1.46
1.25
1.20
1.31
1.47
1.56
1.48
1.26
0.99
0.77
0.69
0.70
0.74
0.72
0.64
0.54
0.50
0.52
0.57
0.58
0.51
0.34
0.11
-0.14
-0.41
-0.68
-0.95
-1.23
-1.52
-1.85
-2.23
-2.67
-3.09
-3.40
-3.44
-3.13
-2.47
-1.60
-0.70
0.07
0.65
1.07
1.40
1.70
1.97
2.16
2.22
2.12
1.88
1.57
1.25
0.99
0.83
0.74
0.73
0.74
0.76
0.77
0.78
0.78
0.81
0.87
0.96
1.04
1.06
0.95
0.69
0.26
-0.28
-0.85
-1.35
-1.69
-1.84
-1.79
-1.62
-1.39
-1.18
-1.02
-0.96
-0.99
-1.10
-1.26
-1.44
-1.58
-1.66
-1.62
-1.47
-1.21
-0.86
-0.47
-0.06
0.35
0.75
1.16
1.56
1.91
2.13
2.15
1.91
1.44
0.87
0.40
0.18
0.29
0.65
1.06
1.33
1.32
1.04
0.62
0.20
-0.07
-0.14
-0.02
0.23
0.55
0.84
1.06
1.14
1.05
0.82
0.51
0.17
-0.12
-0.34
-0.50
-0.64
-0.81
-1.05
-1.41
-1.89
-2.45
-2.97
-3.28
-3.23
-2.76
-1.96
-1.01
-0.13
0.48
0.78
0.87
0.88
0.95
1.11
1.29
1.42
1.43
1.35
1.23
1.17
1.19
1.29
1.39
1.43
1.39
1.31
1.24
1.24
1.30
1.36
1.35
1.22
0.97
0.68
0.43
0.28
0.21
0.13
-0.05
-0.39
-0.85
-1.33
-1.74
-1.99
-2.06
-1.99
-1.85
-1.71
-1.65
-1.71
-1.88
-2.14
-2.39
-2.58
-2.61
-2.45
-2.14
-1.70
-1.22
-0.75
-0.32
0.06
0.39
0.72
1.05
1.38
1.69
1.91
2.01
2.00
1.92
1.81
1.72
1.65
1.55
1.41
1.20
0.99
0.84
0.76
0.76
0.75
0.64
0.39
0.04
-0.35
-0.67
-0.88
-0.97
-0.98
-0.95
-0.91
-0.90
-0.93
-1.02
-1.19
-1.45
-1.76
-2.07
-2.33
-2.48
-2.51
-2.42
-2.22
-1.88
-1.41
-0.80
-0.11
0.57
1.17
1.60
1.87
1.97
1.95
1.82
1.61
1.40
1.23
1.14
1.14
1.15
1.13
1.05
0.97
0.97
1.11
1.40
1.74
2.02
2.10
1.93
1.50
0.87
0.17
-0.47
-0.92
-1.10
-1.02
-0.75
-0.43
-0.15
0.03
0.10
0.09
-0.00
-0.22
-0.57
-1.04
-1.54
-1.94
-2.16
-2.17
-2.02
-1.81
-1.60
-1.41
-1.18
-0.84
-0.38
0.15
0.63
1.00
1.21
1.30
1.31
1.28
1.21
1.09
0.92
0.77
0.76
0.94
1.30
1.71
2.00
2.03
1.80
1.39
0.99
0.72
0.62
0.64
0.66
0.62
0.50
0.36
0.26
0.19
0.14
0.07
-0.04
-0.18
-0.32
-0.47
-0.65
-0.89
-1.18
-1.48
-1.75
-1.97
-2.12
-2.23
-2.30
-2.29
-2.14
-1.83
-1.35
-0.73
-0.03
0.70
1.41
2.05
2.55
2.86
2.92
2.71
2.23
1.55
0.76
-0.01
-0.62
-0.97
-1.02
-0.81
-0.45
-0.06
0.27
0.51
0.64
0.70
0.67
0.50
0.17
-0.28
-0.71
-1.00
-1.03
-0.83
-0.53
-0.33
-0.41
-0.79
-1.36
-1.93
-2.33
-2.50
-2.50
-2.45
-2.46
-2.52
-2.55
-2.43
-2.11
-1.64
-1.09
-0.56
-0.09
0.35
0.77
1.15
1.45
1.61
1.66
1.65
1.65
1.68
1.73
1.73
1.65
1.52
1.38
1.27
1.20
1.15
1.11
1.08
1.12
1.23
1.35
1.40
1.29
1.01
0.64
0.27
-0.04
-0.25
-0.39
-0.51
-0.63
-0.75
-0.86
-0.97
-1.07
-1.18
-1.28
-1.38
-1.48
-1.59
-1.69
-1.77
-1.78
-1.65
-1.30
-0.73
0.01
0.81
1.53
2.04
2.30
2.33
2.23
2.09
1.98
1.89
1.80
1.65
1.43
1.15
0.89
0.71
0.64
0.66
0.72
0.72
0.62
0.41
0.18
0.00
-0.04
0.07
0.26
0.40
0.41
0.26
-0.01
-0.31
-0.56
-0.73
-0.85
-0.98
-1.18
-1.46
-1.76
-2.02
-2.17
-2.15
-1.98
-1.68
-1.29
-0.85
-0.39
0.04
0.40
0.66
0.83
0.93
1.03
1.17
1.40
1.73
2.13
2.55
2.90
3.13
3.21
3.17
3.10
3.09
3.19
3.44
3.79
4.20
4.62
5.03
5.40
5.68
5.80
5.75
5.60
5.48
5.54
5.87
6.39
6.96
7.43
7.75
7.99
8.25
8.60
8.98
9.27
9.32
9.11
8.74
8.37
8.09
7.86
7.50
6.82
5.69
4.12
2.24
0.26
-1.61
-3.17
-4.30
-4.89
-4.90
-4.30
-3.10
-1.36
0.84
3.35
6.00
8.57
10.85
12.66
13.87
14.37
14.10
13.03
11.14
8.47
5.10
1.12
-3.33
-8.12
-13.09
-18.05
-22.79
-27.08
-30.72
-33.60
-35.67
-36.90
-37.28
-36.78
-35.38
-33.08
-30.03
-26.45
-22.62
-18.82
-15.28
-12.15
-9.49
-7.29
-5.49
-4.08
-3.01
-2.30
-1.95
-1.94
-2.22
-2.67
-3.14
-3.53
-3.78
-3.96
-4.16
-4.49
-4.98
-5.55
-6.10
-6.53
-6.80
-6.92
-6.99
-7.09
-7.27
-7.51
-7.75
-7.87
-7.81
-7.55
-7.13
-6.61
-6.06
-5.50
-4.86
-4.07
-3.05
-1.80
-0.40
1.06
2.48
3.79
5.00
6.17
7.35
8.61
9.98
11.43
12.86
14.15
15.19
15.91
16.32
16.48
16.43
16.18
15.69
14.90
13.84
12.57
11.22
9.92
8.71
7.59
6.50
5.39
4.25
3.14
2.13
1.30
0.69
0.33
0.20
0.30
0.56
0.93
1.33
1.66
1.84
1.85
1.71
1.53
1.41
1.44
1.65
2.00
2.40
2.71
2.83
2.70
2.34
1.82
1.27
0.78
0.46
0.31
0.29
0.32
0.31
0.26
0.20
0.22
0.37
0.64
0.95
1.23
1.44
1.61
1.80
2.08
2.43
2.77
2.99
3.02
2.88
2.66
2.50
2.48
2.61
2.81
2.95
2.91
2.58
1.89
0.87
-0.39
-1.73
-2.95
-3.90
-4.48
-4.70
-4.61
-4.30
-3.81
-3.16
-2.36
-1.46
-0.53
0.31
1.02
1.58
2.01
2.27
2.31
2.03
1.39
0.46
-0.58
-1.46
-1.99
-2.13
-1.97
-1.70
-1.51
-1.49
-1.61
-1.76
-1.82
-1.70
-1.37
-0.88
-0.28
0.37
1.04
1.70
2.32
2.87
3.30
3.53
3.53
3.30
2.91
2.51
2.20
2.07
2.14
2.40
2.81
3.31
3.84
4.33
4.76
5.09
5.32
5.48
5.58
5.66
5.75
5.91
6.18
6.61
7.18
7.81
8.42
8.94
9.35
9.68
10.01
10.39
10.84
11.32
11.75
12.03
12.07
11.86
11.40
10.78
10.07
9.34
8.57
7.67
6.51
4.98
3.05
0.78
-1.67
-4.18
-6.65
-9.07
-11.48
-13.94
-16.45
-19.00
-21.51
-23.86
-25.90
-27.50
-28.51
-28.87
-28.57
-27.73
-26.48
-25.01
-23.43
-21.76
-19.97
-17.97
-15.74
-13.36
-10.99
-8.89
-7.26
-6.26
-5.92
-6.16
-6.85
-7.86
-9.07
-10.43
-11.89
-13.43
-15.02
-16.63
-18.26
-19.89
-21.49
-23.02
-24.40
-25.51
-26.21
-26.35
-25.84
-24.66
-22.84
-20.44
-17.46
-13.89
-9.69
-4.79
0.80
6.98
13.60
20.39
27.05
33.24
38.65
42.98
46.04
47.73
48.05
47.07
44.98
42.01
38.42
34.50
30.52
26.64
22.97
19.54
16.35
13.43
10.86
8.73
7.12
6.05
5.48
5.31
5.45
5.77
6.14
6.43
6.52
6.36
5.96
5.41
4.82
4.25
3.66
2.98
2.13
1.10
-0.00
-1.00
-1.75
-2.20
-2.42
-2.55
-2.69
-2.88
-3.06
-3.12
-3.00
-2.69
-2.29
-1.91
-1.67
-1.60
-1.69
-1.82
-1.93
-1.96
-1.92
-1.81
-1.68
-1.50
-1.23
-0.88
-0.47
-0.07
0.20
0.28
0.18
-0.05
-0.31
-0.53
-0.69
-0.76
-0.78
-0.80
-0.91
-1.20
-1.76
-2.59
-3.58
-4.60
-5.48
-6.17
-6.63
-6.87
-6.90
-6.71
-6.29
-5.67
-4.92
-4.16
-3.47
-2.90
-2.48
-2.23
-2.17
-2.28
-2.46
-2.60
-2.59
-2.38
-2.04
-1.64
-1.25
-0.90
-0.55
-0.17
0.19
0.47
0.61
0.62
0.59
0.65
0.90
1.30
1.79
2.20
2.44
2.44
2.24
1.91
1.56
1.25
1.05
0.99
1.05
1.18
1.32
1.39
1.35
1.17
0.83
0.35
-0.21
-0.80
-1.34
-1.74
-1.96
-1.99
-1.88
-1.69
-1.48
-1.29
-1.07
-0.75
-0.28
0.31
0.91
1.39
1.72
1.94
2.15
2.46
2.85
3.22
3.38
3.22
2.79
2.26
1.85
1.69
1.74
1.85
1.85
1.64
1.20
0.65
0.16
-0.13
-0.15
0.09
0.48
0.85
0.96
0.50
-0.54
-1.92
-3.19
-3.90
-3.83
-3.07
-2.12
-1.74
-2.62
-4.83
-7.73
-10.28
-11.43
-10.61
-7.94
-4.16
-0.34
2.63
4.90
7.45
11.64
18.49
28.20
40.22
53.63
67.64
79.02
84.26
80.19
65.24
40.24
8.38
-25.07
-53.92
-73.12
-80.76
-78.41
-70.14
-60.30
-51.51
-44.00
-36.53
-28.11
-19.09
-11.15
-5.80
-3.45
-3.14
-3.21
-2.30
0.05
3.33
6.62
9.07
10.52
11.35
12.05
12.89
13.75
14.25
13.97
12.66
10.34
7.46
4.76
3.05
2.92
4.50
7.32
10.46
12.81
13.50
12.18
9.22
5.42
1.57
-1.66
-3.96
-5.26
-5.81
-5.96
-6.18
-6.85
-8.20
-10.25
-12.72
-15.15
-17.01
-17.88
-17.37
-15.72
-13.36
-10.87
-8.81
-7.47
-6.79
-6.36
-5.69
-4.46
-2.78
-1.10
0.03
0.31
-0.15
-0.89
-1.40
-1.38
-0.85
-0.07
0.79
1.71
2.75
3.95
5.12
5.90
6.04
5.55
4.79
4.30
4.45
5.19
6.05
6.39
5.76
4.10
1.78
-0.69
-2.83
-4.41
-5.44
-6.01
-6.17
-5.86
-5.04
-3.80
-2.42
-1.18
-0.37
-0.13
-0.39
-0.86
-1.21
-1.21
-0.89
-0.55
-0.42
-0.77
-1.75
-3.32
-5.20
-6.97
-8.35
-9.23
-9.80
-10.08
-10.17
-10.19
-10.22
-10.13
-9.63
-8.37
-6.16
-3.00
1.24
6.61
13.09
20.10
27.24
34.27
41.02
47.27
50.68
49.83
44.82
37.06
28.15
19.18
10.67
2.96
-3.57
-8.43
-10.94
-10.88
-8.85
-6.12
-3.97
-3.16
-3.77
-5.33
-7.21
-8.75
-9.67
-10.24
-11.00
-12.44
-14.55
-17.02
-19.50
-21.59
-22.74
-22.40
-20.27
-16.34
-10.85
-4.22
2.92
9.65
15.18
19.18
21.88
23.66
24.91
25.92
26.81
27.53
27.54
26.40
23.44
18.80
12.92
6.41
-0.07
-5.91
-10.71
-14.82
-18.77
-22.93
-27.32
-31.90
-36.67
-41.60
-46.54
-48.44
-45.65
-38.80
-30.03
-21.11
-12.93
-5.87
-0.29
3.47
5.25
4.85
2.63
-0.36
-2.76
-3.66
-2.88
-0.85
1.72
4.24
6.10
7.08
7.35
7.24
6.85
6.11
4.99
3.61
2.32
1.33
0.79
0.84
1.62
3.10
5.14
7.58
10.17
12.57
14.33
15.02
14.39
12.45
9.41
5.62
1.55
-2.36
-5.69
-8.14
-9.56
-9.96
-9.51
-8.59
-7.65
-7.08
-7.09
-7.60
-8.32
-8.85
-8.91
-8.43
-7.65
-6.96
-6.76
-7.28
-8.51
-10.19
-11.91
-13.30
-13.92
-13.48
-11.92
-9.43
-6.33
-3.07
-0.09
2.20
3.49
3.60
2.55
0.54
-2.05
-4.76
-7.22
-9.22
-10.70
-11.72
-12.26
-12.23
-11.46
-9.80
-7.19
-3.72
0.39
4.85
9.39
13.75
17.75
21.22
24.00
25.98
27.10
27.35
26.80
25.58
23.86
21.84
19.70
17.54
15.45
13.47
11.63
9.98
8.55
7.36
6.40
5.60
4.87
4.12
3.35
2.60
1.95
1.48
1.23
1.19
1.30
1.50
1.75
2.04
2.38
2.76
3.14
3.44
3.58
3.55
3.43
3.42
3.67
4.24
5.03
5.86
6.55
7.06
7.49
8.03
8.78
9.71
10.64
11.35
11.68
11.65
11.47
11.39
11.61
12.17
12.95
13.69
14.16
14.13
13.52
12.29
10.51
8.32
5.92
3.48
1.13
-1.16
-3.54
-6.23
-9.42
-13.11
-17.14
-21.21
-24.99
-28.22
-30.75
-32.46
-33.29
-33.24
-32.42
-31.04
-29.39
-27.76
-26.30
-25.04
-23.91
-22.85
-21.89
-21.10
-20.58
-20.35
-20.33
-20.36
-20.30
-20.02
-19.41
-18.37
-16.79
-14.56
-11.60
-7.94
-3.68
0.99
5.84
10.62
15.02
18.78
21.65
23.50
24.35
24.31
23.60
22.42
20.94
19.25
17.39
15.43
13.46
11.60
9.94
8.56
7.47
6.64
6.02
5.56
5.23
4.99
4.83
4.76
4.79
4.93
5.19
5.54
5.93
6.24
6.37
6.23
5.84
5.27
4.62
3.99
3.41
2.88
2.39
1.92
1.47
1.03
0.62
0.24
-0.12
-0.41
-0.63
-0.73
-0.68
-0.47
-0.10
0.38
0.94
1.50
2.01
2.43
2.72
2.89
2.94
2.88
2.73
2.55
2.41
2.39
2.49
2.66
2.76
2.69
2.37
1.83
1.18
0.55
0.03
-0.36
-0.67
-0.96
-1.30
-1.70
-2.15
-2.61
-3.04
-3.37
-3.60
-3.75
-3.87
-4.03
-4.25
-4.51
-4.73
-4.82
-4.74
-4.45
-3.99
-3.36
-2.62
-1.79
-0.96
-0.23
0.30
0.58
0.67
0.71
0.89
1.34
2.09
3.00
3.88
4.54
4.93
5.13
5.30
5.59
6.02
6.52
6.98
7.35
7.64
7.97
8.46
9.15
10.01
10.92
11.73
12.36
12.78
13.07
13.34
13.70
14.21
14.85
15.55
16.22
16.78
17.16
17.26
16.94
16.07
14.55
12.45
9.94
7.35
4.96
2.94
1.26
-0.26
-1.89
-3.84
-6.21
-8.92
-11.77
-14.50
-16.85
-18.64
-19.85
-20.54
-20.83
-20.84
-20.62
-20.15
-19.38
-18.28
-16.93
-15.44
-14.00
-12.72
-11.64
-10.73
-9.94
-9.24
-8.69
-8.37
-8.39
-8.79
-9.56
-10.59
-11.73
-12.80
-13.61
-14.07
-14.14
-13.93
-13.59
-13.33
-13.28
-13.48
-13.89
-14.40
-14.84
-14.98
-14.58
-13.41
-11.36
-8.54
-5.30
-2.12
0.56
2.56
4.07
5.53
7.39
9.86
12.74
15.54
17.67
18.66
18.37
16.99
14.87
12.42
9.96
7.65
5.53
3.58
1.81
0.25
-1.01
-1.95
-2.58
-2.99
-3.32
-3.61
-3.84
-3.87
-3.59
-2.96
-2.06
-1.06
-0.18
0.46
0.82
0.98
1.09
1.29
1.68
2.32
3.23
4.41
5.82
7.37
8.95
10.36
11.47
12.20
12.56
12.67
12.68
12.64
12.55
12.31
11.83
11.11
10.19
9.19
8.16
7.10
5.95
4.64
3.15
1.52
-0.19
-1.93
-3.69
-5.54
-7.51
-9.60
-11.68
-13.57
-14.99
-15.75
-15.78
-15.14
-14.02
-12.65
-11.18
-9.68
-8.11
-6.42
-4.61
-2.75
-0.97
0.60
1.87
2.85
3.61
4.27
4.90
5.49
5.96
6.26
6.35
6.30
6.22
6.19
6.23
6.29
6.26
6.04
5.63
5.06
4.45
3.88
3.41
3.03
2.69
2.33
1.88
1.29
0.50
-0.50
-1.68
-2.98
-4.29
-5.53
-6.62
-7.57
-8.43
-9.24
-10.03
-10.74
-11.25
-11.43
-11.20
-10.56
-9.61
-8.50
-7.36
-6.22
-5.06
-3.87
-2.64
-1.49
-0.52
0.17
0.56
0.74
0.81
0.86
0.97
1.16
1.44
1.77
2.10
2.34
2.40
2.20
1.78
1.27
0.87
0.71
0.85
1.16
1.47
1.63
1.58
1.42
1.28
1.27
1.39
1.58
1.69
1.69
1.59
1.47
1.42
1.43
1.46
1.49
1.51
1.62
1.87
2.30
2.82
3.33
3.72
3.97
4.10
4.18
4.21
4.15
3.99
3.75
3.51
3.36
3.35
3.43
3.50
3.47
3.33
3.10
2.84
2.57
2.25
1.84
1.34
0.79
0.24
-0.27
-0.75
-1.24
-1.76
-2.29
-2.79
-3.24
-3.63
-4.05
-4.56
-5.18
-5.85
-6.47
-6.92
-7.10
-7.01
-6.69
-6.28
-5.86
-5.50
-5.21
-4.94
-4.65
-4.29
-3.84
-3.34
-2.84
-2.42
-2.12
-1.94
-1.84
-1.72
-1.53
-1.21
-0.78
-0.28
0.23
0.72
1.17
1.56
1.85
2.00
1.96
1.73
1.35
0.88
0.42
-0.00
-0.34
-0.61
-0.84
-1.05
-1.28
-1.54
-1.80
-2.03
-2.17
-2.22
-2.19
-2.12
-2.05
-1.98
-1.88
-1.70
-1.41
-1.02
-0.53
0.03
0.62
1.18
1.65
1.96
2.10
2.13
2.13
2.15
2.23
2.31
2.35
2.35
2.37
2.51
2.81
3.23
3.60
3.75
3.55
2.99
2.18
1.31
0.54
0.02
-0.21
-0.20
-0.05
0.14
0.24
0.21
0.05
-0.19
-0.45
-0.70
-0.93
-1.16
-1.37
-1.54
-1.62
-1.59
-1.44
-1.23
-1.00
-0.78
-0.54
-0.22
0.21
0.75
1.33
1.83
2.15
2.24
2.13
1.94
1.77
1.71
1.80
1.98
2.19
2.36
2.44
2.46
2.42
2.35
2.22
2.03
1.78
1.51
1.33
1.31
1.46
1.70
1.86
1.78
1.37
0.68
-0.17
-0.99
-1.67
-2.13
-2.40
-2.50
-2.51
-2.44
-2.33
-2.19
-2.02
-1.83
-1.60
-1.34
-1.05
-0.74
-0.41
-0.05
0.34
0.73
1.06
1.23
1.17
0.87
0.42
-0.02
-0.29
-0.32
-0.18
0.01
0.10
0.06
-0.04
-0.07
0.10
0.44
0.87
1.21
1.34
1.22
0.90
0.47
0.00
-0.44
-0.83
-1.14
-1.33
-1.37
-1.28
-1.11
-0.93
-0.84
-0.85
-0.95
-1.08
-1.14
-1.11
-0.98
-0.79
-0.62
-0.49
-0.37
-0.23
-0.01
0.27
0.55
0.77
0.89
0.98
1.10
1.35
1.70
2.09
2.39
2.48
2.34
2.03
1.66
1.30
1.01
0.76
0.52
0.28
0.07
-0.07
-0.13
-0.13
-0.12
-0.17
-0.32
-0.56
-0.85
-1.12
-1.35
-1.53
-1.69
-1.86
-2.04
-2.19
-2.26
-2.22
-2.08
-1.85
-1.55
-1.20
-0.79
-0.32
0.18
0.67
1.13
1.54
1.87
2.10
2.22
2.24
2.19
2.13
2.11
2.15
2.18
2.14
1.95
1.63
1.23
0.84
0.55
0.39
0.36
0.41
0.48
0.49
0.38
0.12
-0.26
-0.68
-1.02
-1.22
-1.25
-1.19
-1.15
-1.25
-1.51
-1.86
-2.21
-2.44
-2.48
-2.35
-2.11
-1.81
-1.50
-1.20
-0.89
-0.52
-0.09
0.41
0.95
1.45
1.83
1.98
1.89
1.61
1.26
0.99
0.90
0.99
1.15
1.29
1.34
1.37
1.44
1.61
1.81
1.90
1.75
1.31
0.66
-0.00
-0.49
-0.73
-0.72
-0.59
-0.45
-0.40
-0.47
-0.64
-0.89
-1.21
-1.58
-1.94
-2.24
-2.42
-2.45
-2.34
-2.16
-1.99
-1.85
-1.74
-1.59
-1.33
-0.93
-0.43
0.07
0.46
0.70
0.79
0.85
0.95
1.16
1.44
1.72
1.88
1.88
1.72
1.49
1.29
1.23
1.35
1.61
1.89
2.08
2.06
1.85
1.50
1.14
0.86
0.71
0.66
0.66
0.64
0.55
0.38
0.11
-0.26
-0.72
-1.24
-1.77
-2.26
-2.67
-2.98
-3.16
-3.20
-3.06
-2.74
-2.27
-1.70
-1.12
-0.57
-0.11
0.30
0.67
1.02
1.33
1.59
1.78
1.88
1.90
1.88
1.83
1.79
1.74
1.67
1.55
1.36
1.12
0.88
0.68
0.55
0.47
0.39
0.30
0.20
0.15
0.16
0.21
0.20
0.07
-0.20
-0.56
-0.89
-1.09
-1.14
-1.12
-1.14
-1.29
-1.56
-1.87
-2.09
-2.13
-1.96
-1.62
-1.21
-0.83
-0.55
-0.37
-0.23
-0.03
0.34
0.91
1.62
2.31
2.81
3.01
2.89
2.54
2.10
1.70
1.40
1.22
1.14
1.14
1.24
1.46
1.77
2.10
2.30
2.24
1.86
1.23
0.52
-0.07
-0.40
-0.50
-0.47
-0.49
-0.65
-0.91
-1.19
-1.37
-1.44
-1.46
-1.48
-1.57
-1.69
-1.78
-1.81
-1.79
-1.80
-1.85
-1.91
-1.89
-1.69
-1.26
-0.68
-0.10
0.32
0.51
0.53
0.51
0.59
0.80
1.11
1.39
1.55
1.55
1.41
1.22
1.02
0.83
0.57
0.23
-0.20
-0.65
-1.06
-1.40
-1.65
-1.85
-2.05
-2.31
-2.60
-2.88
-3.15
-3.48
-3.96
-4.64
-5.43
-6.24
-6.97
-7.43
-7.49
-7.24
-6.97
-7.02
-7.54
-8.47
-9.59
-10.74
-11.52
-11.69
-11.29
-10.61
-9.99
-9.54
-9.11
-8.46
-7.36
-5.21
-1.48
4.09
11.31
19.66
28.58
37.53
46.00
51.35
51.33
45.45
35.63
24.69
14.72
6.78
1.11
-2.18
-3.88
-4.31
-3.92
-3.11
-2.41
-2.24
-2.66
-3.42
-4.23
-4.95
-5.31
-5.07
-4.16
-2.69
-0.91
0.80
1.93
1.97
0.59
-1.85
-4.55
-6.67
-7.83
-8.27
-8.54
-9.07
-9.86
-10.29
-9.56
-7.17
-3.40
0.80
4.29
6.24
6.48
5.39
3.72
2.12
0.97
0.29
-0.13
-0.51
-0.96
-1.48
-1.96
-2.15
-1.98
-1.53
-1.02
-0.57
-0.07
0.61
1.61
3.01
5.09
7.73
10.66
13.36
15.60
17.47
19.02
20.20
20.94
21.82
22.95
24.24
25.28
26.06
26.92
28.01
29.09
29.82
31.03
32.95
35.75
39.03
42.90
47.65
52.85
57.18
58.84
57.39
51.46
39.63
20.46
-5.87
-34.59
-58.83
-73.00
-83.40
-90.99
-96.16
-93.38
-81.95
-63.83
-42.94
-24.22
-11.57
-6.35
-5.74
-6.44
-5.92
-4.15
-1.93
-0.07
1.19
2.33
4.18
7.99
13.08
17.40
18.00
13.44
4.43
-6.69
-16.92
-23.76
-25.28
-21.63
-14.43
-6.21
1.14
6.73
10.46
12.61
13.31
12.70
10.41
6.12
-0.15
-7.47
-14.31
-19.20
-21.31
-20.72
-18.14
-14.58
-10.87
-7.38
-4.01
-0.56
3.02
6.46
9.38
11.65
13.60
15.96
19.47
24.45
30.43
36.16
39.98
40.37
36.60
29.05
19.09
8.62
-0.67
-7.82
-12.64
-15.46
-16.68
-16.64
-15.62
-14.21
-13.33
-14.14
-17.58
-24.17
-34.25
-48.54
-68.26
-94.55
-127.06
-162.49
-194.42
-214.86
-217.16
-198.90
-163.14
-117.29
-70.21
-29.06
2.52
24.38
38.28
46.11
49.04
47.66
42.86
36.34
30.44
27.36
28.20
32.44
38.28
43.57
46.84
47.94
47.94
48.56
51.22
56.34
63.08
69.72
74.38
75.85
74.12
70.34
66.22
63.24
62.02
62.28
63.27
64.48
66.16
69.23
74.69
82.85
92.91
103.08
111.13
115.15
114.10
108.04
97.91
85.19
71.43
58.00
45.86
35.59
27.42
21.29
16.83
13.19
8.95
2.15
-9.06
-25.76
-47.57
-72.63
-98.17
-121.62
-141.42
-157.19
-169.19
-177.53
-181.77
-181.09
-175.10
-164.63
-151.95
-140.08
-131.67
-127.96
-128.42
-131.27
-134.39
-136.12
-135.71
-133.02
-128.14
-121.01
-111.52
-99.72
-86.19
-71.93
-57.97
-44.75
-31.65
-17.10
0.76
22.91
48.72
75.78
100.68
120.27
132.82
138.64
139.58
138.12
136.20
134.58
132.84
130.02
125.39
118.95
111.53
104.35
98.53
94.64
92.41
90.82
88.34
83.50
75.38
64.17
51.33
39.29
30.95
28.51
32.37
40.48
48.38
50.08
39.45
12.11
-32.77
-91.31
-155.02
-212.36
-251.62
-264.22
-247.35
-204.78
-145.56
-81.13
-21.99
24.88
56.82
74.88
82.18
82.40
78.76
73.74
69.11
66.06
65.08
66.02
68.07
69.77
69.66
66.82
61.22
53.82
46.04
39.24
34.06
30.26
26.90
22.85
17.35
10.36
2.59
-4.82
-10.73
-14.52
-16.41
-17.32
-18.49
-20.79
-24.33
-28.35
-31.57
-32.86
-31.74
-28.63
-24.59
-20.78
-17.89
-15.97
-14.51
-12.90
-10.78
-8.18
-5.32
-2.46
0.36
3.24
6.14
8.76
10.54
10.84
9.38
6.42
2.73
-0.78
-3.49
-5.32
-6.65
-7.95
-9.44
-10.96
-12.06
-12.34
-11.68
-10.38
-9.00
-8.06
-7.85
-8.28
-9.06
-9.83
-10.41
-10.83
-11.29
-11.97
-12.90
-13.89
-14.58
-14.58
-13.67
-11.91
-9.55
-6.98
-4.50
-2.27
-0.28
1.60
3.44
5.23
6.88
8.25
9.23
9.86
10.26
10.57
10.87
11.13
11.29
11.24
11.00
10.63
10.24
9.87
9.42
8.68
7.40
5.51
3.16
0.73
-1.27
-2.40
-2.42
-1.33
0.69
3.43
6.70
10.27
13.82
16.92
19.10
20.10
19.95
19.04
17.98
17.39
17.65
18.88
20.88
23.16
25.05
25.79
24.76
21.69
16.84
10.95
5.08
0.17
-3.22
-4.99
-5.37
-4.68
-3.11
-0.73
2.45
6.26
10.30
14.08
17.05
18.80
19.12
17.94
15.39
11.70
7.21
2.35
-2.47
-6.90
-10.75
-13.95
-16.53
-18.54
-19.99
-20.85
-21.13
-20.85
-20.08
-18.91
-17.43
-15.70
-13.84
-12.04
-10.52
-9.44
-8.82
-8.51
-8.27
-7.85
-7.12
-6.08
-4.82
-3.42
-1.93
-0.35
1.33
3.04
4.60
5.78
6.35
6.21
5.41
4.16
2.76
1.47
0.42
-0.37
-0.98
-1.51
-1.97
-2.35
-2.62
-2.82
-3.09
-3.60
-4.46
-5.61
-6.88
-8.00
-8.74
-8.99
-8.83
-8.46
-8.09
-7.93
-8.04
-8.44
-9.01
-9.65
-10.21
-10.60
-10.80
-10.88
-10.92
-11.00
-11.16
-11.33
-11.33
-10.92
-9.77
-7.61
-4.25
0.21
5.38
10.53
14.80
17.45
18.19
17.33
15.57
13.78
12.56
12.05
11.94
11.64
10.67
8.79
6.10
2.86
-0.61
-4.11
-7.51
-10.69
-13.41
-15.31
-15.94
-14.90
-12.01
-7.49
-1.97
3.58
8.21
11.24
12.58
12.63
12.20
12.11
12.88
14.58
16.86
19.08
20.62
21.02
20.15
18.21
15.55
12.65
9.87
7.46
5.45
3.73
2.11
0.48
-1.16
-2.70
-3.97
-4.83
-5.24
-5.30
-5.19
-5.15
-5.32
-5.75
-6.38
-7.09
-7.87
-8.77
-9.99
-11.66
-13.76
-16.00
-17.88
-18.88
-18.74
-17.59
-15.90
-14.27
-13.13
-12.56
-12.35
-12.13
-11.66
-10.94
-10.18
-9.66
-9.57
-9.90
-10.48
-11.04
-11.36
-11.38
-11.21
-11.04
-11.00
-10.97
-10.52
-9.04
-6.11
-1.75
3.38
8.30
12.17
14.73
16.51
18.41
21.21
25.02
29.24
32.96
35.42
36.27
35.64
33.82
31.03
27.40
23.07
18.34
13.65
9.48
6.16
3.76
2.12
1.02
0.22
-0.47
-1.23
-2.14
-3.12
-3.95
-4.30
-3.90
-2.71
-0.91
1.19
3.23
4.93
5.99
6.09
4.95
2.46
-1.14
-5.22
-8.94
-11.51
-12.48
-11.90
-10.25
-8.15
-6.17
-4.66
-3.74
-3.32
-3.24
-3.22
-3.00
-2.39
-1.36
-0.13
0.95
1.48
1.21
0.16
-1.39
-2.97
-4.06
-4.23
-3.26
-1.15
1.77
4.91
7.60
9.25
9.62
8.86
7.42
5.79
4.31
3.01
1.71
0.22
-1.44
-3.05
-4.24
-4.72
-4.42
-3.41
-1.88
0.04
2.25
4.63
6.98
9.01
10.45
11.22
11.46
11.40
11.23
11.00
10.59
9.85
8.79
7.47
5.99
4.29
2.15
-0.63
-4.15
-8.18
-12.28
-15.94
-18.78
-20.66
-21.65
-21.94
-21.76
-21.23
-20.39
-19.19
-17.51
-15.19
-12.18
-8.61
-4.83
-1.33
1.37
2.93
3.20
2.26
0.32
-2.35
-5.43
-8.60
-11.54
-13.98
-15.77
-16.88
-17.39
-17.35
-16.77
-15.59
-13.78
-11.45
-8.87
-6.41
-4.39
-2.92
-1.89
-1.09
-0.28
0.65
1.65
2.61
3.47
4.20
4.85
5.43
5.97
6.47
7.00
7.60
8.29
8.99
9.51
9.67
9.40
8.79
8.05
7.38
6.84
6.38
5.87
5.24
4.52
3.85
3.39
3.19
3.17
3.17
2.98
2.47
1.63
0.56
-0.55
-1.50
-2.14
-2.41
-2.31
-1.87
-1.12
-0.04
1.32
2.88
4.51
6.07
7.49
8.77
9.90
10.88
11.61
11.94
11.79
11.16
10.22
9.23
8.41
7.90
7.68
7.64
7.71
7.99
8.71
10.09
12.09
14.30
15.96
16.24
14.62
11.15
6.40
1.26
-3.37
-6.84
-8.75
-8.94
-7.47
-4.66
-1.20
1.94
3.74
3.53
1.30
-2.22
-5.94
-8.76
-10.06
-9.77
-8.29
-6.14
-3.73
-1.29
1.11
3.42
5.60
7.55
9.18
10.44
11.25
11.51
11.10
9.96
8.17
5.97
3.70
1.70
0.22
-0.68
-1.09
-1.20
-1.21
-1.26
-1.46
-1.86
-2.46
-3.29
-4.35
-5.63
-7.03
-8.35
-9.33
-9.74
-9.53
-8.86
-8.01
-7.28
-6.82
-6.61
-6.54
-6.56
-6.75
-7.30
-8.37
-9.97
-11.92
-13.89
-15.58
-16.78
-17.44
-17.59
-17.30
-16.65
-15.65
-14.31
-12.66
-10.79
-8.84
-6.96
-5.28
-3.90
-2.86
-2.18
-1.84
-1.84
-2.12
-2.56
-2.94
-3.01
-2.55
-1.47
0.07
1.74
3.09
3.76
3.57
2.61
1.20
-0.29
-1.58
-2.56
-3.30
-3.95
-4.61
-5.27
-5.88
-6.40
-6.92
-7.57
-8.47
-9.60
-10.78
-11.73
-12.28
-12.49
-12.67
-13.19
-14.31
-15.84
-17.17
-17.38
-15.50
-10.97
-3.80
5.32
15.21
24.53
32.05
36.86
38.50
36.91
32.59
26.54
20.18
15.03
12.27
12.25
14.42
17.47
19.98
20.98
20.28
18.39
16.17
14.36
13.39
13.29
13.83
14.72
15.67
16.43
16.80
16.64
15.87
14.50
12.61
10.39
8.06
5.84
3.84
1.95
-0.14
-2.83
-6.40
-10.74
-15.36
-19.49
-22.46
-23.93
-24.05
-23.38
-22.56
-22.07
-22.05
-22.33
-22.60
-22.57
-22.12
-21.24
-20.02
-18.51
-16.73
-14.68
-12.34
-9.77
-7.08
-4.46
-2.08
-0.10
1.41
2.44
3.14
3.70
4.31
5.09
5.97
6.76
7.18
7.05
6.29
5.04
3.54
2.03
0.71
-0.28
-0.86
-0.96
-0.56
0.25
1.32
2.44
3.51
4.55
5.73
7.30
9.37
11.91
14.69
17.43
19.86
21.78
23.14
23.90
24.01
23.42
22.06
19.91
17.00
13.43
9.36
5.09
0.94
-2.70
-5.49
-7.23
-7.89
-7.66
-6.84
-5.77
-4.71
-3.83
-3.16
-2.67
-2.30
-2.01
-1.74
-1.40
-0.90
-0.19
0.70
1.62
2.36
2.65
2.33
1.38
-0.05
-1.73
-3.46
-5.07
-6.46
-7.54
-8.21
-8.35
-7.87
-6.68
-4.84
-2.70
-0.62
1.13
2.39
3.11
3.35
3.23
2.94
2.59
1.90
0.66
-1.10
-3.13
-5.13
-6.83
-7.95
-8.31
-7.89
-7.31
-7.04
-7.15
-7.40
-7.63
-7.99
-8.89
-10.85
-14.38
-20.26
-28.46
-37.92
-46.91
-53.91
-58.15
-59.67
-58.85
-52.49
-39.89
-23.49
-7.04
6.87
16.81
21.98
22.48
19.54
15.28
11.19
8.65
7.57
7.63
8.43
9.57
10.81
11.98
12.75
12.35
10.47
7.59
4.13
1.34
0.18
0.87
2.99
5.98
9.46
13.52
18.51
24.79
32.36
40.77
49.42
57.89
66.00
73.49
79.35
81.83
79.23
70.90
57.69
41.81
26.26
13.94
6.97
5.71
8.75
13.71
18.06
19.37
15.41
4.40
-15.39
-41.19
-66.02
-83.23
-90.17
-87.85
-79.02
-66.86
-53.91
-41.50
-29.51
-17.34
-5.49
5.96
16.15
24.09
28.97
30.60
29.50
26.89
23.39
20.00
17.15
14.44
11.48
8.31
5.61
4.45
5.22
8.46
13.55
19.15
23.61
25.93
26.02
24.57
22.72
21.59
21.72
22.51
23.95
25.21
25.65
25.06
23.55
21.25
18.16
14.14
8.96
2.66
-4.57
-12.11
-19.21
-25.28
-29.99
-33.20
-34.78
-34.64
-32.82
-29.73
-25.94
-22.05
-18.54
-15.69
-13.65
-12.51
-12.45
-13.78
-16.87
-21.76
-28.13
-35.27
-42.40
-48.91
-54.58
-59.56
-64.15
-68.57
-72.69
-76.12
-78.40
-79.29
-78.83
-77.31
-75.01
-71.99
-68.16
-63.36
-57.60
-51.13
-44.35
-37.53
-30.73
-23.81
-16.72
-9.82
-4.05
-0.70
-0.82
-4.72
-11.62
-19.81
-27.23
-32.16
-33.72
-32.07
-28.08
-22.89
-17.55
-12.76
-8.94
-6.20
-4.42
-3.04
-1.07
2.82
9.84
20.54
34.36
49.51
63.45
73.74
79.00
79.40
76.54
72.60
69.39
67.61
66.77
65.80
63.79
60.52
56.35
51.85
47.34
42.61
37.21
30.84
23.64
16.21
9.31
3.51
-0.99
-4.32
-6.79
-8.64
-9.96
-10.70
-10.74
-10.04
-8.65
-6.84
-4.99
-3.48
-2.60
-2.39
-2.66
-3.02
-3.07
-2.53
-1.36
0.28
2.12
3.80
5.05
5.70
5.76
5.40
4.84
4.34
4.00
3.81
3.61
3.21
2.50
1.50
0.40
-0.56
-1.17
-1.34
-1.13
-0.69
-0.21
0.11
0.15
-0.14
-0.72
-1.43
-2.01
-2.22
-1.81
-0.67
1.19
3.55
6.13
8.57
10.58
12.02
12.85
13.15
13.02
12.58
11.92
11.15
10.37
9.73
9.34
9.27
9.51
9.99
10.65
11.37
12.02
12.44
12.48
12.06
11.23
10.10
8.86
7.61
6.32
4.90
3.28
1.50
-0.21
-1.57
-2.42
-2.74
-2.66
-2.34
-1.94
-1.57
-1.24
-0.86
-0.29
0.53
1.59
2.79
3.92
4.73
5.07
5.00
4.96
5.48
6.95
9.38
12.46
15.69
18.53
20.59
21.77
22.58
23.49
24.59
25.64
26.31
26.40
25.85
24.53
22.32
19.80
17.39
15.17
13.11
11.51
10.87
11.47
13.08
15.16
18.33
22.99
28.73
34.46
39.20
42.36
43.74
43.39
41.55
39.97
39.70
40.42
41.16
41.64
42.46
44.49
47.97
43.01
25.48
0.22
-22.93
-37.46
-42.83
-42.51
-41.25
-42.81
-48.47
-55.46
-60.33
-61.37
-59.29
-55.81
-52.99
-51.87
-52.49
-54.31
-55.49
-54.94
-52.85
-50.15
-47.32
-44.14
-40.05
-34.79
-28.47
-20.82
-12.30
-3.79
3.76
9.92
14.71
18.34
20.88
22.33
22.96
22.96
22.26
20.53
17.59
13.56
8.91
4.31
0.41
-2.27
-3.65
-4.12
-4.32
-4.82
-5.92
-7.54
-9.36
-10.91
-11.82
-11.93
-11.24
-9.98
-8.41
-6.72
-5.06
-3.47
-2.03
-0.81
0.05
0.47
0.39
-0.14
-1.07
-2.33
-3.86
-5.62
-7.55
-9.54
-11.44
-13.07
-14.25
-14.89
-14.99
-14.70
-14.23
-13.77
-13.46
-13.27
-13.10
-12.78
-12.22
-11.40
-10.39
-9.31
-8.24
-7.21
-6.19
-5.08
-3.82
-2.44
-1.02
0.27
1.29
2.02
2.52
2.88
3.17
3.35
3.31
2.99
2.36
1.55
0.72
0.00
-0.57
-1.05
-1.50
-1.96
-2.40
-2.83
-3.28
-3.80
-4.45
-5.16
-5.79
-6.12
-6.00
-5.43
-4.52
-3.47
-2.41
-1.37
-0.35
0.68
1.63
2.31
2.53
2.15
1.17
-0.21
-1.68
-2.87
-3.45
-3.23
-2.20
-0.60
1.22
2.86
4.06
4.76
5.05
5.13
5.15
5.21
5.28
5.30
5.19
4.93
4.51
3.95
3.34
2.78
2.36
2.12
2.06
2.07
2.05
1.89
1.57
1.14
0.67
0.24
-0.11
-0.40
-0.65
-0.94
-1.30
-1.73
-2.20
-2.64
-3.02
-3.34
-3.63
-3.97
-4.41
-4.94
-5.51
-6.05
-6.47
-6.66
-6.53
-5.99
-5.03
-3.71
-2.18
-0.65
0.70
1.78
2.61
3.27
3.82
4.29
4.62
4.80
4.85
4.85
4.90
5.01
5.15
5.21
5.10
4.79
4.32
3.81
3.35
3.03
2.91
2.97
3.16
3.40
3.57
3.56
3.32
2.86
2.30
1.73
1.26
0.92
0.70
0.51
0.26
-0.08
-0.53
-1.00
-1.38
-1.57
-1.48
-1.09
-0.47
0.28
1.05
1.72
2.26
2.61
2.78
2.78
2.66
2.43
2.18
1.98
1.90
2.00
2.29
2.71
3.20
3.64
3.95
4.07
4.00
3.77
3.45
3.10
2.73
2.31
1.80
1.23
0.67
0.27
0.13
0.24
0.49
0.67
0.61
0.29
-0.18
-0.61
-0.86
-0.93
-0.91
-0.97
-1.21
-1.62
-2.09
-2.50
-2.76
-2.82
-2.68
-2.36
-1.86
-1.22
-0.49
0.25
0.91
1.43
1.78
1.95
1.97
1.91
1.83
1.75
1.67
1.55
1.36
1.08
0.74
0.41
0.18
0.07
0.07
0.14
0.22
0.27
0.28
0.28
0.31
0.39
0.50
0.62
0.69
0.65
0.47
0.18
-0.16
-0.48
-0.72
-0.88
-1.01
-1.21
-1.55
-2.02
-2.55
-3.02
-3.27
-3.24
-2.90
-2.32
-1.60
-0.85
-0.16
0.42
0.83
1.07
1.16
1.16
1.15
1.22
1.39
1.64
1.90
2.10
2.19
2.18
2.08
1.90
1.67
1.38
1.06
0.77
0.54
0.41
0.35
0.33
0.25
0.10
-0.17
-0.51
-0.87
-1.20
-1.45
-1.62
-1.75
-1.90
-2.11
-2.34
-2.54
-2.63
-2.58
-2.42
-2.25
-2.14
-2.15
-2.22
-2.25
-2.13
-1.79
-1.21
-0.44
0.43
1.28
2.05
2.71
3.25
3.67
3.93
3.95
3.69
3.16
2.45
1.75
1.23
1.00
1.06
1.32
1.64
1.89
1.98
1.86
1.55
1.07
0.51
-0.07
-0.60
-1.06
-1.45
-1.80
-2.11
-2.37
-2.51
-2.49
-2.31
-2.04
-1.79
-1.70
-1.86
-2.28
-2.88
-3.56
-4.17
-4.62
-4.85
-4.86
-4.67
-4.31
-3.80
-3.13
-2.29
-1.31
-0.26
0.72
1.52
2.05
2.31
2.35
2.27
2.12
1.96
1.78
1.58
1.39
1.27
1.25
1.36
1.57
1.81
2.01
2.10
2.07
1.94
1.77
1.62
1.53
1.50
1.44
1.27
0.93
0.42
-0.15
-0.63
-0.87
-0.80
-0.48
-0.08
0.24
0.34
0.16
-0.23
-0.71
-1.19
-1.61
-1.94
-2.15
-2.19
-2.02
-1.61
-1.03
-0.36
0.25
0.74
1.09
1.38
1.69
2.07
2.48
2.85
3.07
3.10
2.95
2.66
2.35
2.09
1.90
1.71
1.43
0.99
0.41
-0.17
-0.59
-0.73
-0.58
-0.24
0.16
0.46
0.63
0.70
0.72
0.71
0.64
0.48
0.20
-0.16
-0.54
-0.87
-1.14
-1.36
-1.60
-1.87
-2.18
-2.48
-2.70
-2.72
-2.44
-1.78
-0.75
0.50
1.76
2.78
3.37
3.50
3.26
2.78
2.21
1.67
1.22
0.90
0.78
0.85
1.10
1.41
1.67
1.79
1.79
1.72
1.68
1.71
1.75
1.73
1.56
1.24
0.83
0.44
0.14
-0.04
-0.13
-0.21
-0.28
-0.31
-0.28
-0.18
-0.07
-0.02
-0.10
-0.33
-0.70
-1.16
-1.68
-2.25
-2.84
-3.39
-3.77
-3.87
-3.61
-3.03
-2.28
-1.55
-0.98
-0.61
-0.35
-0.08
0.29
0.73
1.18
1.53
1.71
1.73
1.65
1.53
1.40
1.27
1.10
0.89
0.69
0.58
0.68
1.04
1.63
2.30
2.89
3.28
3.48
3.64
4.00
4.83
6.28
8.35
10.90
13.71
16.58
19.35
21.91
24.18
26.05
27.35
27.94
27.72
26.73
25.11
23.11
20.94
18.76
16.60
14.42
12.10
9.50
6.55
3.17
-0.60
-4.67
-8.82
-12.78
-16.20
-18.81
-20.43
-21.06
-20.86
-20.13
-19.15
-18.16
-17.28
-16.58
-16.05
-15.69
-15.48
-15.42
-15.46
-15.53
-15.59
-15.60
-15.56
-15.51
-15.43
-15.29
-15.02
-14.53
-13.78
-12.83
-11.80
-10.91
-10.36
-10.28
-10.63
-11.27
-11.98
-12.54
-12.86
-12.91
-12.72
-12.32
-11.69
-10.79
-9.58
-8.08
-6.40
-4.65
-2.96
-1.41
-0.05
1.13
2.06
2.67
2.84
2.51
1.70
0.59
-0.56
-1.45
-1.89
-1.85
-1.42
-0.79
-0.20
0.20
0.30
0.04
-0.58
-1.57
-2.92
-4.57
-6.43
-8.36
-10.16
-11.60
-12.50
-12.79
-12.48
-11.69
-10.53
-9.06
-7.31
-5.35
-3.29
-1.26
0.70
2.72
5.12
8.25
12.28
17.04
21.94
26.18
28.97
29.82
28.70
26.01
22.42
18.60
15.05
12.01
9.50
7.49
5.98
5.09
4.96
5.65
6.95
8.41
9.40
9.40
8.15
5.75
2.63
-0.69
-3.73
-6.28
-8.38
-10.33
-12.54
-15.38
-18.98
-23.21
-27.58
-31.38
-33.85
-34.39
-32.66
-28.65
-22.66
-15.24
-7.13
0.81
7.85
13.45
17.48
20.20
22.14
23.93
25.98
28.39
30.98
33.47
35.56
37.00
37.50
36.73
34.34
30.06
23.83
16.04
7.59
-0.31
-6.50
-10.26
-11.58
-11.11
-10.00
-9.34
-9.78
-11.06
-12.47
-13.30
-13.27
-12.55
-11.54
-10.74
-10.51
-10.98
-11.68
-12.12
-12.11
-11.76
-11.13
-10.21
-8.98
-7.60
-6.14
-4.04
-0.77
3.62
8.51
13.17
17.20
20.56
23.47
26.67
31.69
39.71
50.72
63.59
76.84
89.27
99.84
107.48
106.31
92.91
69.77
43.95
21.58
5.40
-4.38
-8.72
-10.40
-10.16
-7.23
-0.98
8.10
18.14
26.69
31.42
31.49
26.19
16.09
3.22
-10.05
-22.10
-32.53
-41.64
-49.83
-57.19
-63.51
-67.85
-68.79
-65.25
-57.05
-45.10
-30.85
-15.85
-1.60
10.52
19.62
25.28
27.43
26.13
21.57
14.10
4.33
-6.94
-18.75
-29.86
-38.86
-44.52
-46.17
-43.98
-38.80
-31.88
-24.32
-16.71
-8.94
-0.60
8.53
18.04
26.86
33.70
37.55
38.13
35.94
31.86
26.84
21.41
15.75
9.79
3.61
-2.61
-8.81
-15.27
-22.61
-31.38
-41.50
-51.91
-60.83
-66.48
-68.02
-65.96
-61.91
-57.70
-54.49
-52.30
-50.32
-47.65
-43.91
-39.50
-35.19
-31.57
-28.68
-26.07
-23.19
-19.79
-16.09
-12.70
-10.29
-9.18
-9.19
-9.76
-10.17
-9.85
-8.53
-6.37
-3.78
-1.24
0.91
2.56
3.77
4.71
5.51
6.16
6.60
6.71
6.44
5.84
5.02
4.16
3.41
2.90
2.67
2.67
2.80
2.89
2.84
2.63
2.38
2.29
2.53
3.12
3.95
4.82
5.55
6.02
6.27
6.40
6.53
6.71
6.93
7.09
7.09
6.87
6.50
6.11
5.89
5.93
6.18
6.44
6.39
5.86
4.85
3.63
2.53
1.82
1.53
1.48
1.39
1.07
0.46
-0.32
-1.10
-1.76
-2.26
-2.63
-2.93
-3.19
-3.40
-3.53
-3.58
-3.62
-3.75
-4.04
-4.48
-4.98
-5.35
-5.39
-4.97
-4.12
-3.00
-1.82
-0.79
0.03
0.72
1.44
2.26
3.21
4.17
4.98
5.53
5.82
5.92
5.95
6.01
6.14
6.32
6.50
6.61
6.64
6.55
6.33
5.94
5.41
4.78
4.14
3.57
3.11
2.74
2.39
1.98
1.45
0.82
0.14
-0.46
-0.91
-1.19
-1.35
-1.55
-1.93
-2.59
-3.50
-4.53
-5.45
-6.03
-6.14
-5.76
-4.98
-3.88
-2.55
-1.04
0.60
2.32
4.01
5.61
7.05
8.30
9.36
10.20
10.79
11.10
11.13
10.93
10.61
10.28
10.00
9.76
9.53
9.26
8.94
8.56
8.11
7.57
6.94
6.23
5.50
4.81
4.20
3.64
3.05
2.31
1.33
0.14
-1.16
-2.39
-3.41
-4.15
-4.69
-5.18
-5.78
-6.55
-7.41
-8.12
-8.43
-8.13
-7.18
-5.73
-4.00
-2.20
-0.46
1.18
2.70
4.07
5.21
6.04
6.54
6.74
6.75
6.73
6.83
7.14
7.70
8.45
9.24
9.93
10.35
10.43
10.14
9.56
8.78
7.89
6.96
6.04
5.17
4.34
3.57
2.85
2.21
1.61
1.05
0.49
-0.09
-0.69
-1.26
-1.75
-2.17
-2.62
-3.27
-4.27
-5.61
-7.11
-8.42
-9.15
-9.07
-8.14
-6.53
-4.52
-2.35
-0.20
1.84
3.71
5.32
6.56
7.38
7.79
7.89
7.82
7.73
7.68
7.67
7.66
7.58
7.41
7.15
6.79
6.36
5.86
5.31
4.72
4.14
3.59
3.09
2.63
2.20
1.76
1.28
0.74
0.16
-0.45
-1.06
-1.66
-2.29
-2.96
-3.71
-4.54
-5.43
-6.38
-7.32
-8.16
-8.78
-9.04
-8.83
-8.13
-7.01
-5.59
-3.97
-2.22
-0.37
1.57
3.52
5.36
6.92
8.06
8.69
8.84
8.59
8.09
7.45
6.74
5.99
5.27
4.62
4.12
3.83
3.75
3.81
3.91
3.93
3.79
3.44
2.86
2.08
1.15
0.19
-0.66
-1.25
-1.53
-1.59
-1.62
-1.85
-2.41
-3.29
-4.35
-5.42
-6.38
-7.18
-7.80
-8.19
-8.25
-7.88
-7.11
-6.05
-4.90
-3.81
-2.83
-1.83
-0.65
0.78
2.43
4.11
5.58
6.70
7.40
7.73
7.79
7.66
7.40
7.07
6.73
6.45
6.26
6.16
6.09
5.94
5.61
5.04
4.24
3.33
2.45
1.72
1.17
0.75
0.34
-0.16
-0.80
-1.55
-2.33
-3.07
-3.73
-4.33
-4.91
-5.53
-6.24
-7.04
-7.91
-8.76
-9.47
-9.88
-9.87
-9.38
-8.44
-7.16
-5.65
-4.01
-2.34
-0.67
0.93
2.40
3.65
4.62
5.24
5.55
5.66
5.75
5.94
6.32
6.84
7.38
7.75
7.83
7.58
7.04
6.32
5.52
4.73
4.00
3.36
2.82
2.36
1.94
1.46
0.85
0.07
-0.87
-1.87
-2.80
-3.58
-4.16
-4.56
-4.86
-5.15
-5.53
-6.06
-6.78
-7.67
-8.62
-9.50
-10.12
-10.32
-10.02
-9.20
-7.95
-6.37
-4.59
-2.70
-0.81
0.96
2.52
3.76
4.65
5.21
5.54
5.76
5.96
6.18
6.46
6.76
7.06
7.32
7.49
7.52
7.43
7.27
7.14
7.08
7.07
7.05
6.91
6.62
6.23
5.86
5.62
5.56
5.62
5.73
5.77
5.66
5.38
4.89
4.19
3.24
1.97
0.31
-1.80
-4.31
-7.06
-9.78
-12.13
-13.85
-14.78
-14.91
-14.32
-13.13
-11.46
-9.43
-7.19
-4.95
-2.91
-1.22
0.05
0.97
1.59
1.99
2.12
1.95
1.46
0.69
-0.21
-1.10
-1.87
-2.53
-3.07
-3.49
-3.67
-3.49
-2.87
-1.86
-0.67
0.41
1.15
1.47
1.42
1.10
0.62
0.03
-0.67
-1.49
-2.39
-3.31
-4.19
-4.99
-5.72
-6.42
-7.08
-7.65
-8.04
-8.12
-7.86
-7.26
-6.42
-5.43
-4.40
-3.36
-2.31
-1.25
-0.19
0.78
1.56
2.01
2.08
1.78
1.20
0.49
-0.23
-0.90
-1.58
-2.35
-3.30
-4.44
-5.76
-7.17
-8.59
-9.91
-11.15
-12.46
-14.03
-16.04
-18.54
-21.39
-24.30
-26.95
-29.13
-30.90
-32.73
-35.18
-38.61
-42.88
-47.34
-51.06
-53.10
-53.02
-51.12
-48.39
-45.79
-43.71
-41.73
-39.23
-35.61
-30.37
-22.87
-12.14
2.67
22.26
46.51
73.91
101.08
124.06
140.06
148.89
152.44
152.87
151.61
148.99
144.46
136.91
125.78
111.77
96.66
81.69
65.83
46.94
23.46
-4.21
-34.49
-65.23
-94.02
-116.60
-125.55
-117.46
-95.19
-66.46
-33.56
1.50
35.62
63.01
79.09
82.33
73.54
56.21
35.69
14.23
-2.67
-10.68
-9.10
-1.58
8.61
17.62
22.21
20.63
13.01
0.84
-14.04
-29.43
-42.65
-51.19
-54.46
-53.15
-48.37
-40.98
-31.50
-20.81
-9.91
0.35
9.33
15.85
19.29
19.97
18.94
17.30
15.45
13.19
10.33
7.04
3.34
-0.31
-3.05
-4.06
-3.06
-0.77
1.52
2.56
1.70
-1.51
-6.41
-11.29
-14.10
-13.41
-8.79
-0.59
10.54
24.04
37.72
50.29
61.97
73.71
85.63
97.00
106.61
113.28
115.99
110.72
95.71
73.57
49.69
28.74
13.36
4.09
-0.26
-2.05
-9.30
-26.55
-51.45
-77.72
-100.80
-119.89
-136.91
-154.87
-176.26
-209.08
-255.94
-311.07
-364.90
-411.14
-448.44
-478.11
-501.71
-475.41
-383.79
-252.87
-124.85
-23.52
47.89
95.10
125.53
145.79
160.92
166.55
160.94
147.92
134.38
124.83
120.29
120.03
122.87
127.77
128.50
121.26
108.11
94.29
83.48
76.61
73.16
72.19
72.83
70.99
64.50
54.86
45.51
38.76
35.03
33.64
33.63
34.21
33.27
29.85
24.91
20.26
16.97
15.06
13.99
13.19
12.36
10.87
8.54
5.80
3.29
1.31
-0.21
-1.45
-2.54
-3.53
-4.40
-5.13
-5.66
-5.92
-5.88
-5.51
-4.86
-4.02
-3.09
-2.12
-1.09
0.05
1.30
2.59
3.73
4.56
4.98
5.03
4.90
4.80
4.89
5.15
5.45
5.60
5.50
5.13
4.60
4.08
3.67
3.38
3.15
2.87
2.48
1.97
1.42
0.91
0.53
0.29
0.14
-0.05
-0.37
-0.89
-1.57
-2.32
-3.04
-3.67
-4.24
-4.80
-5.38
-5.99
-6.50
-6.77
-6.62
-5.95
-4.76
-3.21
-1.47
0.22
1.75
3.07
4.19
5.13
5.86
6.31
6.44
6.33
6.13
6.05
6.22
6.61
7.07
7.37
7.37
7.03
6.44
5.77
5.17
4.74
4.51
4.54
4.80
5.28
5.87
6.38
6.56
6.23
5.28
3.81
2.10
0.46
-0.85
-1.71
-2.21
-2.50
-2.77
-3.14
-3.61
-4.07
-4.42
-4.51
-4.27
-3.67
-2.72
-1.47
0.01
1.61
3.24
4.76
6.05
7.02
7.68
8.08
8.37
8.65
8.94
9.21
9.36
9.32
9.10
8.75
8.38
8.04
7.76
7.50
7.28
7.08
6.91
6.73
6.46
6.04
5.41
4.60
3.66
2.69
1.76
0.95
0.33
-0.08
-0.35
-0.60
-1.00
-1.67
-2.65
-3.84
-5.08
-6.16
-6.87
-7.07
-6.66
-5.64
-4.10
-2.25
-0.34
1.36
2.72
3.74
4.52
5.18
5.82
6.42
6.90
7.21
7.29
7.16
6.88
6.48
6.03
5.55
5.09
4.69
4.37
4.14
3.96
3.76
3.44
2.94
2.22
1.34
0.40
-0.45
-1.13
-1.60
-1.91
-2.16
-2.46
-2.91
-3.56
-4.38
-5.34
-6.37
-7.41
-8.40
-9.27
-9.93
-10.29
-10.25
-9.73
-8.76
-7.43
-5.89
