1587583295.00
64.000000
-0.00
-0.00
-0.00
-0.00
-0.00
-0.00
-0.00
-0.00
-0.00
-0.00
0.00
0.01
0.01
-0.00
-0.03
-0.05
-0.05
0.00
0.13
0.36
0.66
1.01
1.37
1.72
2.06
2.40
2.79
3.24
3.80
4.42
5.06
5.66
6.20
6.68
7.15
7.68
8.31
9.14
10.09
11.04
11.88
12.56
13.14
13.76
14.65
15.96
17.91
20.32
22.90
25.38
27.58
29.57
31.68
34.32
37.81
42.54
48.15
54.10
59.83
64.97
69.58
74.14
79.34
85.71
93.76
103.00
112.62
121.73
129.77
136.75
143.30
150.75
157.77
166.64
177.95
191.79
206.97
220.57
228.25
225.36
208.53
176.87
132.76
80.05
23.07
-34.94
-92.44
-149.16
-205.23
-260.37
-313.74
-363.87
-409.83
-450.91
-486.50
-515.74
-537.23
-549.22
-549.96
-538.37
-514.21
-478.67
-433.88
-382.45
-327.02
-269.84
-212.63
-156.66
-102.95
-52.37
-5.90
35.58
71.43
101.35
125.50
144.38
158.69
169.15
176.37
180.75
182.57
182.07
179.51
175.23
169.65
163.18
156.15
148.81
141.30
133.69
126.02
118.33
110.69
103.16
95.80
88.68
81.83
75.25
68.95
62.95
57.25
51.86
46.78
42.03
37.59
33.45
29.61
26.07
22.81
19.83
17.11
14.67
12.48
10.54
8.83
7.35
6.07
4.97
4.05
3.27
2.62
2.09
1.65
1.30
1.01
0.79
0.61
0.47
0.37
0.29
0.23
0.19
0.16
0.15
0.15
0.16
0.17
0.20
0.23
0.26
0.30
0.34
0.38
0.43
0.48
0.52
0.57
0.62
0.68
0.74
0.80
0.87
0.94
1.02
1.11
1.21
1.32
1.45
1.59
1.75
1.93
2.12
2.35
2.59
2.86
3.15
3.48
3.84
4.23
4.65
5.10
5.60
6.14
6.74
7.38
8.05
8.74
9.43
10.12
10.83
11.58
12.40
13.32
14.34
15.45
16.61
17.78
18.94
20.08
21.18
22.20
23.07
23.66
23.80
23.31
22.05
19.95
17.03
13.43
9.31
4.89
0.34
-4.26
-8.85
-13.36
-17.67
-21.54
-24.68
-26.85
-27.93
-28.04
-27.55
-26.93
-26.59
-26.73
-27.25
-27.77
-27.90
-27.36
-26.25
-25.02
-24.26
-24.47
-25.80
-27.92
-30.16
-31.86
-32.59
-32.39
-31.69
-31.14
-31.34
-32.82
-35.94
-40.76
-46.61
-51.89
-54.14
-50.89
-40.68
-24.08
-3.77
16.34
32.65
43.14
47.93
48.58
47.03
44.64
41.83
38.45
34.41
30.02
25.99
22.95
20.99
19.64
18.10
15.55
11.61
6.41
0.54
-5.40
-10.61
-14.89
-18.53
-22.13
-26.27
-31.37
-37.51
-44.58
-52.42
-60.76
-69.25
-77.14
-83.23
-86.02
-84.03
-76.33
-62.81
-44.33
-22.52
0.60
23.07
43.25
60.03
72.79
81.37
86.05
87.44
86.41
83.88
80.72
77.57
74.74
72.27
70.01
67.77
65.36
62.66
59.59
56.05
51.96
47.24
41.87
35.90
29.56
23.04
16.56
10.16
3.82
-2.60
-9.18
-15.94
-22.79
-29.60
-36.26
-42.77
-49.30
-56.17
-63.79
-72.48
-82.33
-92.94
-103.32
-111.96
-116.98
-116.68
-109.93
-96.67
-77.81
-55.13
-30.64
-6.23
16.66
37.02
54.11
67.38
76.47
81.41
82.76
81.62
79.29
76.89
75.03
73.70
72.50
70.91
68.67
65.79
62.46
58.91
55.21
51.32
47.12
42.59
37.84
33.01
28.12
23.05
17.52
11.36
4.56
-2.59
-9.71
-16.44
-22.62
-28.36
-33.83
-39.28
-44.87
-50.87
-57.64
-65.52
-74.59
-84.28
-93.19
-99.30
-100.58
-95.65
-84.30
-67.58
-47.38
-25.78
-4.56
15.08
32.39
46.89
58.19
66.07
70.57
72.15
71.65
70.11
68.41
67.11
66.30
65.80
65.30
64.55
63.45
62.03
60.28
58.13
55.37
51.82
47.39
42.20
36.47
30.49
24.42
18.26
11.82
4.86
-2.83
-11.22
-20.10
-29.10
-37.80
-45.96
-53.57
-60.97
-68.72
-77.51
-87.86
-99.97
-113.41
-127.08
-139.27
-147.93
-151.27
-148.18
-138.72
-124.08
-106.31
-87.60
-69.89
-54.40
-41.78
-32.23
-25.61
-21.42
-18.72
-16.16
-12.20
-5.60
4.23
17.01
31.78
47.31
62.52
76.67
89.32
100.15
108.75
114.67
117.56
117.32
114.18
108.60
101.20
92.49
82.87
72.61
61.97
51.25
40.75
30.75
21.33
12.35
3.53
-5.49
-15.07
-25.45
-36.76
-48.82
-60.98
-71.97
-80.00
-83.16
-80.02
-70.25
-54.77
-35.52
-14.85
5.19
23.13
38.11
49.65
57.49
61.56
62.13
59.90
55.96
51.53
47.60
44.75
43.05
42.20
41.74
41.21
40.28
38.75
36.58
33.84
30.65
27.17
23.40
19.27
14.54
8.95
2.34
-5.18
-13.24
-21.22
-28.55
-34.90
-40.39
-45.50
-50.93
-57.38
-65.29
-74.70
-85.18
-95.70
-104.73
-110.47
-111.32
-106.36
-95.79
-80.83
-63.33
-45.08
-27.32
-10.61
4.90
19.05
31.40
41.26
48.04
51.56
52.24
50.99
48.81
46.58
44.70
43.28
42.18
41.23
40.36
39.59
38.95
38.36
37.60
36.29
33.96
30.18
24.73
17.74
9.58
0.87
-7.80
-15.97
-23.51
-30.58
-37.57
-44.98
-53.22
-62.64
-73.34
-85.13
-97.32
-108.67
-117.42
-121.59
-119.64
-110.96
-96.16
-76.90
-55.26
-33.09
-11.62
8.58
27.18
43.72
57.52
67.91
74.58
77.88
78.82
78.61
78.27
78.29
78.51
78.36
77.19
74.56
70.43
65.04
58.84
52.24
45.50
38.67
31.61
24.13
16.11
7.63
-1.10
-9.69
-17.75
-25.05
-31.64
-37.88
-44.32
-51.61
-60.30
-70.68
-82.74
-96.02
-109.51
-121.64
-130.49
-134.08
-130.97
-120.71
-104.01
-82.56
-58.49
-33.78
-9.92
12.11
31.66
48.11
60.91
69.69
74.56
76.18
75.70
74.35
73.12
72.46
72.34
72.40
72.21
71.49
70.15
68.20
65.69
62.54
58.64
53.76
47.77
40.64
32.54
23.82
14.84
5.96
-2.64
-10.95
-19.11
-27.23
-35.43
-43.82
-52.51
-61.81
-72.04
-83.35
-95.39
-107.08
-116.63
-121.97
-121.39
-114.05
-100.30
-81.47
-59.43
-36.00
-12.67
9.46
29.49
46.64
60.25
69.98
76.01
79.00
79.96
79.88
79.46
78.94
78.25
77.17
75.54
73.34
70.65
67.51
63.88
59.66
54.77
49.27
43.34
37.16
30.86
24.32
17.32
9.65
1.32
-7.38
-15.88
-23.70
-30.60
-36.81
-42.93
-49.77
-58.10
-68.33
-80.47
-93.90
-107.39
-119.15
-127.08
-129.28
-124.56
-112.85
-95.20
-73.46
-49.63
-25.43
-2.03
19.79
39.42
56.20
69.54
79.11
85.11
88.23
89.45
89.71
89.56
89.15
88.35
87.00
85.09
82.73
80.16
77.43
74.42
70.80
66.21
60.43
53.57
46.03
38.34
30.96
24.08
17.59
11.14
4.38
-2.92
-10.73
-18.81
-26.87
-34.66
-42.11
-49.41
-56.94
-65.23
-74.75
-85.70
-97.74
-109.84
-120.31
-127.13
-128.45
-123.17
-111.26
-93.80
-72.55
-49.37
-25.79
-2.79
18.94
38.72
55.69
68.89
77.69
82.10
82.91
81.48
79.31
77.54
76.74
76.87
77.55
78.31
78.75
78.59
77.62
75.68
72.63
68.40
63.05
56.85
50.19
43.55
37.29
31.58
26.25
20.94
15.17
8.62
1.23
-6.79
-15.03
-23.07
-30.64
-37.74
-44.64
-51.86
-59.95
-69.36
-80.09
-91.57
-102.50
-111.08
-115.41
-114.06
-106.48
-93.18
-75.51
-55.22
-33.96
-13.06
6.51
23.99
38.72
50.15
58.03
62.54
64.35
64.36
63.49
62.35
61.20
60.05
58.74
57.17
55.36
53.31
51.05
48.54
45.69
42.51
39.04
35.41
31.80
28.28
24.85
21.38
17.60
13.23
8.04
1.99
-4.74
-11.71
-18.42
-24.49
-29.81
-34.63
-39.40
-44.68
-50.89
-58.28
-66.76
-75.94
-84.93
-92.42
-96.75
-96.41
-90.44
-78.87
-62.76
-43.86
-24.07
-4.87
12.79
28.47
41.89
52.74
60.72
65.72
68.03
68.31
67.51
66.46
65.72
65.34
65.07
64.56
63.55
62.05
60.22
58.24
56.07
53.44
49.90
45.13
39.15
32.43
25.70
19.57
14.30
9.59
4.80
-0.69
-7.13
-14.23
-21.30
-27.64
-32.83
-36.98
-40.64
-44.54
-49.31
-55.31
-62.60
-70.92
-79.73
-88.16
-94.97
-98.75
-98.16
-92.42
-81.63
-66.84
-49.75
-32.26
-15.99
-2.00
9.17
17.40
22.80
25.67
26.46
25.81
24.39
22.85
21.63
20.99
20.96
21.37
21.94
22.31
22.13
21.16
19.28
16.47
12.79
8.24
2.77
-3.69
-11.14
-19.44
-28.32
-37.49
-46.65
-55.64
-64.41
-73.01
-81.50
-89.92
-98.29
-106.58
-114.78
-122.90
-130.86
-138.30
-144.35
-147.51
-145.91
-137.81
-122.18
-99.22
-70.37
-37.97
-4.65
27.26
56.05
80.62
100.33
114.76
123.72
127.37
126.25
121.43
114.34
106.48
99.15
93.12
88.59
85.21
82.36
79.39
75.82
71.44
66.29
60.53
54.35
47.84
40.92
33.43
25.15
15.99
6.04
-4.29
-14.44
-23.79
-31.95
-38.88
-44.87
-50.46
-56.26
-62.86
-70.66
-79.78
-89.87
-99.99
-108.63
-113.99
-114.42
-108.94
-97.59
-81.39
-62.04
-41.38
-20.96
-1.87
15.21
29.81
41.56
50.13
55.44
57.73
57.64
56.10
54.06
52.24
50.93
50.02
49.13
47.85
45.98
43.56
40.88
38.19
35.60
33.01
30.13
26.71
22.65
18.14
13.48
9.06
5.07
1.50
-1.92
-5.61
-9.98
-15.37
-21.96
-29.77
-38.74
-48.72
-59.42
-70.20
-79.99
-87.31
-90.53
-88.41
-80.56
-67.65
-51.31
-33.47
-15.82
0.62
15.57
29.16
41.46
52.28
61.11
67.47
71.22
72.77
72.95
72.65
72.41
72.23
71.66
70.11
67.27
63.22
58.45
53.53
48.86
44.49
40.20
35.60
30.35
24.27
17.39
9.89
2.14
-5.45
-12.56
-19.16
-25.47
-31.92
-39.01
-47.11
-56.34
-66.56
-77.38
-88.06
-97.45
-104.05
-106.24
-102.85
-93.55
-79.11
-61.18
-41.71
-22.34
-4.07
12.61
27.45
40.03
49.79
56.21
59.25
59.49
58.10
56.47
55.64
56.05
57.37
58.80
59.37
58.45
55.87
52.04
47.61
43.19
39.03
34.96
30.52
25.19
18.77
11.43
3.64
-4.00
-11.07
-17.47
-23.35
-29.07
-35.04
-41.67
-49.38
-58.53
-69.24
-81.16
-93.19
-103.53
-109.99
-110.71
-104.73
-92.39
-75.11
-55.00
-34.08
-13.82
4.91
21.69
36.18
47.98
56.64
61.93
64.14
64.08
62.90
61.68
61.11
61.17
61.33
60.85
59.24
56.45
52.98
49.49
46.44
43.79
41.01
37.31
32.03
25.00
16.57
7.42
-1.71
-10.36
-18.34
-25.83
-33.12
-40.55
-48.41
-57.01
-66.55
-77.08
-88.24
-99.18
-108.56
-114.73
-116.23
-112.11
-102.26
-87.46
-69.07
-48.69
-27.75
-7.32
11.91
29.47
44.94
57.90
67.96
75.00
79.18
81.05
81.37
80.95
80.36
79.83
79.21
78.19
76.52
74.14
71.24
68.08
64.81
61.33
57.33
52.43
46.45
39.46
31.74
23.67
15.57
7.60
-0.15
-7.73
-15.25
-22.84
-30.69
-38.99
-47.94
-57.72
-68.35
-79.54
-90.39
-99.40
-104.66
-104.36
-97.48
-84.19
-65.96
-45.09
-23.97
-4.46
12.40
26.41
37.76
46.74
53.56
58.30
61.09
62.26
62.36
62.08
62.09
62.77
64.18
66.02
67.81
68.96
69.08
67.97
65.71
62.56
58.93
55.24
51.98
49.79
49.36
51.20
55.06
59.48
61.78
58.72
47.66
27.82
0.81
-29.73
-59.41
-84.60
-103.48
-116.09
-123.56
-127.08
-127.17
-123.68
-116.39
-105.55
-91.97
-76.58
-59.88
-41.61
-21.28
0.98
23.50
43.13
56.25
60.60
56.77
48.62
42.02
42.36
52.08
69.41
88.97
104.17
109.93
104.58
90.11
70.90
51.80
36.58
27.23
24.13
26.50
32.69
40.35
46.75
49.40
46.85
39.26
28.32
16.52
6.11
-1.61
-6.55
-9.56
-12.14
-16.05
-22.93
-33.87
-48.71
-65.42
-79.99
-87.36
-83.09
-65.45
-36.54
-1.93
31.23
56.79
71.51
75.56
71.37
61.81
48.76
32.80
14.09
-6.47
-26.73
-43.85
-55.43
-60.73
-60.84
-57.98
-54.40
-51.48
-49.45
-47.88
-46.51
-45.83
-47.12
-51.81
-60.66
-73.08
-87.12
-100.03
-109.20
-113.14
-111.92
-107.06
-100.86
-95.50
-92.33
-91.62
-92.83
-95.14
-97.89
-100.74
-103.42
-105.47
-105.99
-103.83
-97.93
-87.83
-73.89
-57.21
-39.14
-20.88
-3.12
13.82
29.71
44.15
56.49
66.03
72.30
75.40
75.96
75.11
74.05
73.72
74.57
76.43
78.68
80.46
81.06
80.04
77.40
73.46
68.72
63.64
58.51
53.47
48.49
43.57
38.70
33.94
29.23
24.43
19.37
13.82
7.71
1.06
-6.12
-14.00
-22.89
-33.09
-44.49
-56.16
-66.44
-73.34
-75.24
-71.52
-62.79
-50.50
-36.39
-21.86
-7.78
5.44
17.51
27.97
36.25
41.85
44.64
45.05
44.00
42.56
41.62
41.60
42.31
43.23
43.66
43.18
41.66
39.37
36.66
33.82
30.97
27.99
24.66
20.78
16.30
11.32
6.05
0.78
-4.23
-8.83
-13.09
-17.23
-21.62
-26.64
-32.61
-39.65
-47.58
-55.92
-63.73
-69.85
-73.02
-72.29
-67.19
-57.95
-45.33
-30.44
-14.48
1.51
16.53
29.73
40.38
47.90
52.18
53.57
52.86
51.12
49.35
48.17
47.75
47.80
47.70
46.80
44.68
41.30
36.99
32.34
27.84
23.68
19.67
15.29
10.08
3.89
-2.93
-9.74
-15.85
-20.94
-25.23
-29.36
-34.12
-40.09
-47.43
-55.84
-64.65
-72.97
-79.85
-84.29
-85.36
-82.39
-75.11
-63.80
-49.39
-33.20
-16.62
-0.83
13.33
25.38
35.01
41.98
46.22
47.98
47.94
47.02
46.02
45.30
44.67
43.55
41.42
38.17
34.08
29.72
25.52
21.56
17.65
13.41
8.57
3.05
-3.03
-9.46
-15.99
-22.31
-28.15
-33.29
-37.70
-41.65
-45.70
-50.55
-56.79
-64.53
-73.31
-81.98
-89.06
-93.02
-92.79
-87.93
-78.68
-65.79
-50.14
-32.64
-14.19
4.31
21.89
37.58
50.61
60.62
67.72
72.43
75.37
77.10
78.02
78.21
77.64
76.25
74.01
71.02
67.48
63.67
59.85
56.17
52.55
48.66
44.05
38.39
31.61
24.05
16.24
8.71
1.78
-4.65
-10.91
-17.47
-24.78
-33.12
-42.56
-52.84
-63.35
-72.99
-80.41
-84.25
-83.50
-77.87
-67.85
-54.49
-39.10
-22.89
-6.81
8.34
21.88
33.10
41.55
47.13
50.23
51.63
52.18
52.45
52.64
52.59
52.04
50.83
49.05
46.95
44.78
42.57
40.19
37.34
33.70
29.05
23.38
16.85
9.81
2.71
-4.02
-10.11
-15.50
-20.42
-25.37
-30.96
-37.81
-46.19
-55.81
-65.72
-74.37
-80.04
-81.26
-77.32
-68.46
-55.72
-40.52
-24.21
-7.83
8.00
22.72
35.81
46.64
54.70
59.86
62.48
63.30
63.21
62.81
62.24
61.21
59.26
56.09
51.81
46.91
42.03
37.59
33.66
29.92
25.89
21.18
15.75
9.79
3.65
-2.39
-8.29
-14.18
-20.25
-26.66
-33.52
-40.88
-48.84
-57.44
-66.45
-75.20
-82.46
-86.77
-86.77
-81.75
-71.90
-58.28
-42.40
-25.77
-9.56
5.49
18.80
29.87
38.21
43.52
45.96
46.19
45.28
44.27
43.85
44.14
44.81
45.26
45.02
43.85
41.82
39.16
36.10
32.76
29.12
25.04
20.37
15.12
9.45
3.70
-1.75
-6.62
-10.89
-14.86
-18.97
-23.70
-29.36
-36.00
-43.47
-51.42
-59.35
-66.57
-72.14
-74.97
-74.07
-68.83
-59.31
-46.28
-31.00
-14.92
0.63
14.61
26.31
35.30
41.43
44.82
45.91
45.43
44.21
42.99
42.26
42.12
42.31
42.39
41.94
40.67
38.62
36.02
33.20
30.43
27.75
24.93
21.61
17.44
12.27
6.23
-0.23
-6.57
-12.34
-17.29
-21.57
-25.54
-29.71
-34.61
-40.65
-47.99
-56.55
-65.87
-75.07
-82.88
-87.84
-88.61
-84.39
-75.24
-62.02
-46.23
-29.51
-13.39
0.99
12.91
21.99
28.20
31.84
33.44
33.74
33.43
33.07
32.91
32.98
33.12
33.10
32.74
31.98
30.81
29.35
27.70
25.87
23.78
21.23
18.01
14.02
9.30
4.06
-1.39
-6.71
-11.65
-16.12
-20.26
-24.37
-28.90
-34.31
-40.91
-48.67
-57.11
-65.30
-71.97
-75.75
-75.48
-70.57
-61.15
-48.08
-32.70
-16.55
-1.06
12.63
23.63
31.37
35.65
36.75
35.47
33.03
30.67
29.28
29.15
29.96
31.14
32.11
32.58
32.52
32.02
31.14
29.80
27.85
25.12
21.54
17.14
12.06
6.49
0.65
-5.24
-11.05
-16.73
-22.33
-27.99
-33.93
-40.42
-47.69
-55.86
-64.66
-73.41
-80.86
-85.54
-86.06
-81.61
-72.25
-58.89
-42.96
-26.02
-9.36
6.08
19.61
30.68
38.77
43.54
45.06
43.94
41.29
38.41
36.34
35.52
35.69
36.15
36.15
35.26
33.46
31.02
28.25
25.24
21.87
17.84
12.91
7.03
0.35
-6.76
-13.95
-20.88
-27.44
-33.66
-39.81
-46.30
-53.57
-61.99
-71.70
-82.42
-93.30
-102.91
-109.49
-111.33
-107.31
-97.31
-82.20
-63.62
-43.33
-22.87
-3.25
14.88
30.98
44.50
54.88
61.85
65.64
67.02
66.98
66.48
66.07
65.84
65.60
65.08
64.07
62.52
60.47
57.95
54.94
51.36
47.09
41.98
35.96
29.06
21.42
13.34
5.13
-2.92
-10.72
-18.40
-26.25
-34.63
-43.92
-54.39
-66.03
-78.54
-91.11
-102.43
-110.88
-114.83
-113.11
-105.35
-92.10
-74.59
-54.33
-32.74
-10.89
10.39
30.37
48.24
63.10
74.23
81.39
84.91
85.69
84.83
83.31
81.75
80.34
78.97
77.38
75.33
72.66
69.31
65.37
60.97
56.28
51.38
46.20
40.46
33.89
26.38
18.09
9.47
1.01
-6.98
-14.55
-22.09
-30.14
-39.14
-49.33
-60.61
-72.53
-84.24
-94.51
-101.84
-104.75
-102.16
-93.71
-79.87
-61.77
-40.86
-18.59
3.78
25.14
44.43
60.65
73.03
81.22
85.51
86.72
86.02
84.52
82.92
81.44
79.91
78.06
75.77
73.12
70.26
67.28
64.05
60.31
55.81
50.44
44.30
37.62
30.61
23.41
16.10
8.80
1.66
-5.16
-11.64
-17.94
-24.40
-31.38
-39.14
-47.84
-57.44
-67.78
-78.50
-88.86
-97.73
-103.61
-104.95
-100.63
-90.31
-74.62
-54.99
-33.19
-10.98
10.20
29.35
45.73
58.89
68.57
74.81
77.94
78.57
77.48
75.39
72.83
70.11
67.37
64.63
61.95
59.34
56.77
54.10
51.11
47.56
43.33
38.48
33.19
27.75
22.32
16.92
11.40
5.53
-0.86
-7.73
-14.84
-21.84
-28.41
-34.40
-39.96
-45.47
-51.51
-58.64
-67.18
-76.98
-87.22
-96.38
-102.58
-103.98
-99.39
-88.63
-72.63
-53.04
-31.80
-10.61
9.32
27.21
42.52
54.79
63.68
69.12
71.45
71.36
69.78
67.57
65.35
63.43
61.87
60.58
59.34
57.91
56.02
53.49
50.24
46.35
42.03
37.49
32.88
28.23
23.48
18.59
13.50
8.19
2.63
-3.27
-9.57
-16.24
-23.17
-30.14
-36.95
-43.54
-50.07
-56.92
-64.49
-73.03
-82.29
-91.40
-98.90
-103.05
-102.36
-95.98
-84.02
-67.45
-47.82
-26.88
-6.25
12.72
29.05
42.11
51.63
57.69
60.67
61.20
60.06
58.02
55.80
53.90
52.56
51.77
51.31
50.88
50.21
49.11
47.47
45.21
42.25
38.50
34.00
28.93
23.59
18.29
13.19
8.23
3.20
-2.13
-7.83
-13.74
-19.54
-24.89
-29.59
-33.74
-37.76
-42.22
-47.71
-54.60
-62.86
-71.93
-80.74
-87.78
-91.49
-90.56
-84.37
-73.11
-57.76
-39.83
-20.92
-2.53
14.12
28.16
38.93
46.11
49.78
50.46
49.11
46.80
44.46
42.65
41.50
40.77
40.17
39.45
38.53
37.39
36.00
34.24
31.94
28.97
25.29
21.04
16.42
11.63
6.75
1.79
-3.35
-8.77
-14.44
-20.25
-25.96
-31.35
-36.30
-40.88
-45.42
-50.43
-56.55
-64.15
-73.08
-82.43
-90.60
-95.65
-95.93
-90.59
-79.83
-64.85
-47.37
-29.09
-11.37
4.81
18.82
30.10
38.29
43.29
45.45
45.52
44.41
42.95
41.67
40.73
40.08
39.56
38.99
38.14
36.71
34.43
31.22
27.24
22.86
18.55
14.50
10.64
6.67
2.24
-2.80
-8.37
-14.19
-19.96
-25.45
-30.55
-35.34
-40.07
-45.11
-50.94
-58.01
-66.66
-76.87
-88.07
-99.16
-108.50
-114.25
-114.83
-109.38
-98.04
-81.89
-62.63
-42.02
-21.56
-2.23
15.28
30.40
42.60
51.42
56.75
58.96
58.85
57.48
55.80
54.43
53.62
53.24
53.01
52.54
51.51
49.66
46.89
43.27
39.05
34.54
29.91
25.14
19.94
13.96
7.02
-0.79
-9.01
-17.05
-24.42
-30.98
-36.94
-42.76
-48.93
-55.84
-63.74
-72.79
-82.92
-93.78
-104.43
-113.39
-118.87
-119.24
-113.58
-101.98
-85.46
-65.57
-43.94
-21.93
-0.49
19.62
37.76
53.26
65.53
74.25
79.41
81.47
81.24
79.67
77.63
75.71
74.13
72.74
71.21
69.20
66.52
63.19
59.37
55.15
50.59
45.63
40.19
34.26
27.83
21.00
13.83
6.33
-1.46
-9.47
-17.55
-25.59
-33.43
-41.09
-48.71
-56.60
-65.18
-74.83
-85.66
-97.30
-108.72
-118.23
-123.92
-124.10
-117.89
-105.43
-87.82
-66.62
-43.44
-19.64
3.75
25.76
45.46
61.90
74.35
82.58
86.99
88.49
88.20
87.06
85.60
83.99
82.13
79.98
77.60
75.15
72.77
70.41
67.76
64.44
60.15
54.78
48.53
41.70
34.64
27.56
20.52
13.44
6.20
-1.27
-9.01
-16.94
-24.92
-32.81
-40.51
-48.12
-55.92
-64.41
-74.06
-85.01
-96.75
-107.96
-116.69
-120.87
-118.91
-110.19
-95.28
-75.65
-53.22
-29.76
-6.66
15.11
34.80
51.70
65.18
74.81
80.62
83.14
83.32
82.21
80.66
79.18
77.88
76.68
75.40
73.92
72.16
70.08
67.57
64.47
60.55
55.68
49.88
43.36
36.49
29.63
23.03
16.71
10.48
4.12
-2.59
-9.60
-16.75
-23.80
-30.63
-37.27
-43.90
-50.77
-58.13
-66.21
-75.09
-84.62
-94.20
-102.67
-108.45
-109.85
-105.55
-95.07
-78.94
-58.56
-35.84
-12.72
9.13
28.53
44.68
57.15
65.87
71.05
73.28
73.39
72.34
70.92
69.66
68.69
67.88
66.98
65.80
64.31
62.45
60.24
57.52
54.19
50.16
45.49
40.36
34.97
29.50
24.03
18.60
13.15
7.57
1.70
-4.58
-11.26
-18.15
-24.90
-31.21
-36.98
-42.50
-48.33
-55.11
-63.29
-72.93
-83.42
-93.61
-101.88
-106.42
-105.72
-98.95
-86.27
-68.82
-48.40
-26.95
-6.14
12.82
29.15
42.34
52.08
58.31
61.38
62.03
61.28
60.15
59.27
58.84
58.62
58.18
57.13
55.34
52.96
50.29
47.60
44.94
42.18
38.93
34.91
30.02
24.46
18.66
13.04
7.83
2.91
-2.02
-7.29
-13.03
-19.11
-25.20
-31.01
-36.40
-41.55
-46.94
-53.20
-60.93
-70.32
-80.94
-91.55
-100.31
-105.19
-104.54
-97.69
-85.05
-68.04
-48.52
-28.28
-8.75
9.17
24.83
37.82
47.74
54.41
57.98
59.05
58.49
57.21
55.91
54.94
54.27
53.71
53.02
52.02
50.56
48.57
46.01
42.91
39.37
35.52
31.48
27.26
22.77
17.91
12.63
7.03
1.30
-4.38
-9.91
-15.28
-20.53
-25.72
-30.87
-36.03
-41.29
-46.85
-53.00
-60.06
-68.19
-77.14
-86.13
-93.71
-98.13
-97.73
-91.51
-79.52
-62.93
-43.68
-23.90
-5.34
10.95
24.56
35.48
43.84
49.71
53.20
54.52
54.16
52.80
51.17
49.85
49.05
48.65
48.25
47.43
45.93
43.74
41.02
37.99
34.80
31.52
28.14
24.65
21.02
17.15
12.86
7.94
2.29
-3.95
-10.38
-16.57
-22.28
-27.55
-32.70
-38.06
-43.86
-50.15
-56.93
-64.28
-72.26
-80.62
-88.51
-94.41
-96.49
-93.23
-84.06
-69.63
-51.61
-32.05
-12.81
4.86
20.24
32.94
42.68
49.33
52.98
54.16
53.79
52.90
52.25
52.11
52.25
52.26
51.80
50.80
49.41
47.82
46.05
43.90
41.15
37.69
33.62
29.17
24.58
19.94
15.20
10.16
4.65
-1.42
-8.02
-14.97
-22.00
-28.79
-35.07
-40.77
-46.17
-51.81
-58.39
-66.33
-75.47
-84.83
-92.76
-97.32
-96.87
-90.66
-78.97
-63.03
-44.59
-25.40
-6.89
9.91
24.31
35.77
43.99
48.93
50.97
50.90
49.70
48.26
47.12
46.40
45.89
45.29
44.35
43.00
41.24
39.12
36.65
33.86
30.81
27.54
24.04
20.20
15.82
10.81
5.19
-0.81
-6.87
-12.69
-18.16
-23.33
-28.43
-33.72
-39.44
-45.79
-52.97
-61.10
-69.98
-78.93
-86.68
-91.49
-91.75
-86.45
-75.57
-60.17
-41.97
-22.81
-4.27
12.62
27.21
39.00
47.64
52.89
54.92
54.37
52.28
49.84
47.96
47.08
47.02
47.20
46.89
45.51
42.88
39.18
34.90
30.59
26.61
22.97
19.43
15.54
10.93
5.44
-0.84
-7.63
-14.63
-21.59
-28.39
-35.07
-41.75
-48.71
-56.33
-64.93
-74.58
-84.82
-94.51
-102.00
-105.45
-103.39
-95.23
-81.38
-63.19
-42.54
-21.33
-1.12
16.97
32.29
44.46
53.33
58.93
61.58
61.88
60.67
58.85
57.14
55.89
55.10
54.45
53.55
52.01
49.66
46.48
42.63
38.22
33.38
28.10
22.27
15.77
8.50
0.54
-7.81
-16.11
-23.92
-31.02
-37.53
-43.89
-50.73
-58.69
-68.18
-79.22
-91.35
-103.50
-114.08
-121.20
-123.11
-118.57
-107.35
-90.27
-69.04
-45.69
-22.07
0.51
21.35
40.05
56.24
69.44
79.18
85.23
87.84
87.75
86.05
83.79
81.70
80.03
78.56
76.88
74.56
71.42
67.46
62.83
57.71
52.20
46.32
40.00
33.17
25.75
17.71
9.08
0.00
-9.27
-18.48
-27.42
-36.13
-44.83
-53.98
-64.02
-75.22
-87.45
-100.06
-111.84
-121.10
-126.08
-125.26
-117.89
-104.11
-84.96
-62.09
-37.23
-11.89
12.82
35.97
56.78
74.35
87.86
96.85
101.40
102.27
100.69
98.03
95.33
93.12
91.35
89.63
87.50
84.65
81.05
76.82
72.13
67.01
61.46
55.42
48.90
41.94
34.60
26.90
18.86
10.52
2.01
-6.55
-15.07
-23.53
-31.99
-40.58
-49.45
-58.81
-68.89
-79.88
-91.67
-103.59
-114.24
-121.68
-123.87
-119.34
-107.74
-89.89
-67.56
-42.87
-17.73
6.41
28.59
48.12
64.40
76.96
85.55
90.31
91.85
91.07
88.98
86.39
83.83
81.48
79.32
77.22
75.03
72.57
69.63
66.01
61.54
56.18
50.04
43.40
36.63
30.01
23.65
17.44
11.08
4.29
-3.03
-10.77
-18.64
-26.30
-33.60
-40.56
-47.48
-54.76
-62.82
-72.03
-82.47
-93.76
-104.91
-114.23
-119.66
-119.31
-112.05
-97.95
-78.28
-55.08
-30.57
-6.56
15.70
35.47
52.22
65.50
74.99
80.63
82.86
82.52
80.72
78.46
76.38
74.62
72.98
71.11
68.79
66.06
63.13
60.23
57.32
54.09
50.04
44.76
38.25
30.97
23.64
16.90
10.99
5.66
0.36
-5.42
-11.88
-18.81
-25.77
-32.32
-38.22
-43.59
-48.81
-54.49
-61.27
-69.57
-79.38
-89.94
-99.80
-106.95
-109.41
-105.77
-95.66
-79.84
-59.90
-37.73
-15.13
6.45
25.89
42.27
54.88
63.35
67.78
68.84
67.64
65.38
63.06
61.16
59.74
58.49
57.13
55.48
53.52
51.28
48.69
45.58
41.79
37.30
32.23
26.87
21.51
16.22
10.87
5.25
-0.85
-7.40
-14.21
-21.07
-27.86
-34.64
-41.60
-48.91
-56.73
-65.19
-74.47
-84.64
-95.49
-106.17
-115.10
-120.29
-119.79
-112.51
-98.56
-79.34
-56.98
-33.68
-11.10
9.78
28.47
44.64
57.81
67.43
73.15
75.09
74.01
71.12
67.77
64.97
63.20
62.35
61.97
61.49
60.50
58.74
56.09
52.50
47.95
42.51
36.39
29.87
23.29
16.85
10.57
4.24
-2.38
-9.43
-16.80
-24.17
-31.20
-37.74
-43.91
-50.17
-57.06
-65.10
-74.56
-85.45
-97.43
-109.68
-120.90
-129.28
-132.91
-130.13
-120.23
-103.65
-81.93
-57.24
-31.72
-7.09
15.59
35.64
52.64
66.19
76.02
82.13
84.91
85.13
83.68
81.36
78.71
76.03
73.38
70.77
68.20
65.58
62.82
59.71
56.07
51.79
46.90
41.59
36.07
30.49
24.78
18.71
11.93
4.23
-4.34
-13.43
-22.51
-31.07
-38.85
-45.94
-52.80
-60.08
-68.40
-78.22
-89.57
-101.96
-114.22
-124.61
-131.17
-132.14
-126.54
-114.38
-96.66
-74.98
-51.12
-26.60
-2.61
19.91
40.10
57.12
70.31
79.38
84.60
86.73
86.82
85.82
84.35
82.56
80.32
77.42
73.81
69.74
65.58
61.67
58.13
54.75
51.08
46.67
41.26
34.86
27.75
20.26
12.64
4.97
-2.79
-10.70
-18.75
-26.78
-34.57
-41.90
-48.73
-55.23
-61.87
-69.34
-78.24
-88.88
-100.85
-112.93
-123.10
-129.10
-129.01
-121.88
-108.03
-88.89
-66.52
-42.93
-19.66
2.36
22.63
40.76
56.22
68.41
76.87
81.55
83.03
82.27
80.39
78.23
76.18
74.19
72.00
69.42
66.43
63.19
59.86
56.41
52.64
48.28
43.20
37.50
31.47
25.32
19.14
12.74
5.87
-1.63
-9.58
-17.57
-25.12
-31.94
-38.11
-44.01
-50.12
-56.86
-64.51
-73.27
-83.18
-94.02
-104.98
-114.58
-120.83
-121.81
-116.27
-104.13
-86.52
-65.31
-42.57
-19.99
1.25
20.43
37.00
50.48
60.56
67.23
70.86
72.15
71.99
71.13
70.06
68.91
67.56
65.85
63.71
61.30
58.82
56.45
54.09
51.44
48.11
43.84
38.68
32.88
26.84
20.82
14.86
8.79
2.35
-4.58
-11.94
-19.46
-26.84
-33.79
-40.28
-46.49
-52.87
-59.92
-68.08
-77.57
-88.16
-99.12
-109.17
-116.61
-119.66
-116.93
-107.82
-92.78
-73.12
-50.66
-27.26
-4.45
16.60
34.96
49.90
60.89
67.77
70.92
71.27
69.97
68.14
66.52
65.38
64.61
63.88
62.91
61.53
59.72
57.51
54.91
51.83
48.14
43.72
38.60
33.03
27.34
21.88
16.67
11.45
5.75
-0.79
-8.22
-16.19
-24.09
-31.38
-37.79
-43.47
-48.91
-54.81
-61.86
-70.50
-80.69
-91.73
-102.12
-109.83
-112.72
-109.20
-98.83
-82.45
-61.85
-39.27
-16.65
4.58
23.56
39.72
52.60
61.86
67.37
69.50
69.08
67.20
64.96
63.05
61.72
60.83
60.04
59.03
57.59
55.61
53.05
49.90
46.15
41.84
37.07
31.99
26.74
21.40
16.01
10.49
4.74
-1.37
-7.93
-14.88
-22.02
-29.05
-35.67
-41.80
-47.61
-53.64
-60.62
-69.15
-79.39
-90.72
-101.65
-110.04
-113.69
-110.93
-101.19
-85.18
-64.62
-41.72
-18.67
2.87
21.74
37.37
49.51
58.12
63.40
65.78
65.97
64.80
63.10
61.48
60.27
59.54
59.15
58.85
58.32
57.22
55.25
52.23
48.19
43.37
38.21
33.07
28.16
23.31
18.18
12.39
5.83
-1.30
-8.56
-15.45
-21.69
-27.25
-32.38
-37.51
-43.13
-49.73
-57.67
-67.13
-77.85
-89.02
-99.11
-106.13
-108.10
-103.66
-92.54
-75.72
-55.07
-32.84
-11.01
9.01
26.32
40.34
50.62
56.86
59.09
57.94
54.62
50.65
47.45
45.87
46.01
47.23
48.58
49.13
48.37
46.22
42.98
39.09
34.88
30.52
25.95
21.00
15.50
9.43
2.88
-3.96
-10.83
-17.54
-23.94
-30.02
-35.91
-41.93
-48.55
-56.28
-65.53
-76.24
-87.75
-98.58
-106.72
-110.05
-106.97
-96.91
-80.56
-59.63
-36.38
-13.08
8.54
27.29
42.47
53.78
61.16
64.88
65.60
64.29
62.02
59.72
57.90
56.62
55.57
54.26
52.31
49.47
45.78
41.44
36.76
32.00
27.25
22.43
17.26
11.50
5.03
-2.04
-9.40
-16.69
-23.65
-30.24
-36.64
-43.24
-50.50
-58.90
-68.76
-80.13
-92.59
-105.07
-115.89
-123.01
-124.48
-119.06
-106.62
-88.18
-65.57
-40.86
-15.84
8.22
30.48
50.30
67.02
79.93
88.56
92.92
93.67
91.91
88.96
85.90
83.39
81.51
79.93
78.12
75.59
72.12
67.77
62.78
57.36
51.58
45.28
38.20
30.17
21.19
11.54
1.65
-8.03
-17.24
-25.90
-34.13
-42.16
-50.30
-58.92
-68.46
-79.36
-91.85
-105.69
-119.90
-132.62
-141.43
-143.93
-138.53
-124.97
-104.51
-79.35
-51.98
-24.40
2.15
27.01
49.73
69.60
85.70
97.18
103.71
105.76
104.55
101.63
98.40
95.69
93.61
91.75
89.50
86.41
82.31
77.41
72.06
66.52
60.87
54.96
48.54
41.37
33.37
24.67
15.56
6.41
-2.48
-10.90
-18.85
-26.46
-34.04
-41.97
-50.66
-60.48
-71.64
-84.07
-97.21
-109.83
-120.12
-125.96
-125.47
-117.58
-102.44
-81.39
-56.56
-30.21
-4.24
20.04
41.85
60.64
75.97
87.41
94.82
98.42
98.92
97.25
94.38
91.03
87.64
84.32
81.07
77.80
74.46
70.95
67.13
62.86
58.00
52.52
46.53
40.15
33.56
26.80
19.79
12.46
4.78
-3.17
-11.15
-18.97
-26.49
-33.77
-41.04
-48.61
-56.73
-65.63
-75.52
-86.43
-98.12
-109.75
-119.81
-126.25
-127.01
-120.69
-107.08
-87.29
-63.37
-37.68
-12.21
11.67
33.18
51.79
67.03
78.43
85.69
88.96
88.88
86.56
83.21
79.82
76.96
74.71
72.86
71.02
68.88
66.21
62.96
59.12
54.69
49.70
44.21
38.36
32.33
26.36
20.54
14.79
8.86
2.42
-4.72
-12.53
-20.70
-28.76
-36.26
-43.00
-49.12
-55.09
-61.65
-69.45
-78.97
-90.03
-101.78
-112.56
-120.23
-122.60
-118.14
-106.40
-88.24
-65.53
-40.56
-15.52
7.93
28.70
46.14
59.82
69.55
75.40
77.83
77.72
76.05
73.73
71.40
69.30
67.44
65.66
63.84
61.82
59.45
56.60
53.18
49.22
44.81
40.06
35.04
29.71
24.00
17.94
11.64
5.31
-0.88
-6.94
-12.99
-19.21
-25.61
-32.10
-38.39
-44.30
-49.90
-55.61
-62.14
-70.16
-80.03
-91.39
-103.02
-112.95
-118.88
-118.87
-111.85
-97.97
-78.53
-55.54
-31.16
-7.30
14.58
33.45
48.58
59.55
66.36
69.47
69.80
68.50
66.60
64.84
63.49
62.48
61.58
60.50
59.13
57.41
55.33
52.83
49.78
46.01
41.41
36.08
30.29
24.42
18.78
13.51
8.45
3.30
-2.30
-8.52
-15.28
-22.30
-29.19
-35.63
-41.46
-46.75
-51.77
-56.98
-62.96
-70.20
-78.95
-88.91
-99.03
-107.51
-112.22
-111.19
-103.33
-88.82
-69.10
-46.44
-23.19
-1.25
18.13
34.32
47.05
56.22
61.91
64.45
64.49
62.90
60.54
58.09
55.93
54.14
52.61
51.13
49.53
47.67
45.50
43.02
40.23
37.10
33.54
29.42
24.68
19.38
13.68
7.80
1.86
-4.11
-10.19
-16.41
-22.72
-28.96
-34.95
-40.64
-46.12
-51.65
-57.62
-64.39
-72.25
-81.21
-90.85
-100.09
-107.30
-110.60
-108.33
-99.68
-84.95
-65.54
-43.50
-20.99
0.26
19.02
34.55
46.44
54.48
58.73
59.66
58.18
55.46
52.64
50.49
49.30
48.80
48.48
47.83
46.54
44.59
42.16
39.41
36.40
33.05
29.19
24.70
19.57
13.87
7.72
1.27
-5.32
-11.92
-18.34
-24.50
-30.37
-36.07
-41.84
-48.04
-55.08
-63.26
-72.76
-83.35
-94.28
-104.19
-111.25
-113.59
-109.79
-99.41
-83.15
-62.64
-40.01
-17.32
3.80
22.28
37.51
49.20
57.24
61.79
63.22
62.30
60.04
57.52
55.61
54.64
54.36
54.08
53.03
50.75
47.26
42.97
38.44
34.05
29.88
25.71
21.19
16.06
10.14
3.47
-3.82
-11.46
-19.14
-26.47
-33.21
-39.37
-45.27
-51.50
-58.80
-67.80
-78.82
-91.65
-105.35
-118.26
-128.23
-133.06
-131.12
-121.84
-105.84
-84.73
-60.55
-35.20
-10.16
13.54
35.14
53.83
68.86
79.63
86.03
88.51
88.03
85.78
82.87
80.06
77.63
75.54
73.48
71.08
68.07
64.37
60.06
55.31
50.34
45.21
39.81
33.89
27.16
19.53
11.09
2.21
-6.67
-15.22
-23.33
-31.18
-39.12
-47.56
-56.86
-67.31
-79.10
-92.24
-106.33
-120.39
-132.65
-140.83
-142.66
-136.65
-122.62
-101.82
-76.49
-49.11
-21.71
4.52
28.96
51.24
70.81
86.87
98.69
105.98
109.13
109.10
107.10
104.18
100.95
97.63
94.18
90.58
86.81
82.97
79.02
74.85
70.23
64.90
58.72
51.68
43.89
35.50
26.66
17.47
8.02
-1.57
-11.16
-20.61
-29.85
-38.89
-47.87
-57.03
-66.73
-77.36
-89.22
-102.21
-115.60
-127.91
-137.07
-140.89
-137.72
-127.01
-109.40
-86.53
-60.44
-33.00
-5.61
20.74
45.18
66.72
84.31
97.14
105.00
108.44
108.70
107.16
104.94
102.64
100.30
97.71
94.67
91.19
87.41
83.50
79.44
75.08
70.16
64.48
58.01
50.84
43.18
35.25
27.20
19.05
10.71
2.06
-6.99
-16.36
-25.86
-35.19
-44.19
-52.91
-61.79
-71.42
-82.41
-94.90
-108.31
-121.24
-131.65
-137.35
-136.66
-128.82
-114.23
-94.25
-70.70
-45.34
-19.57
5.57
29.27
50.64
68.68
82.49
91.59
96.19
97.28
96.26
94.50
92.94
91.80
90.77
89.28
86.88
83.48
79.29
74.69
69.93
65.03
59.78
53.98
47.53
40.65
33.71
27.08
20.90
14.93
8.69
1.70
-6.30
-15.17
-24.44
-33.52
-41.94
-49.50
-56.32
-62.79
-69.54
-77.21
-86.33
-96.96
-108.47
-119.36
-127.52
-130.69
-127.20
-116.46
-99.17
-77.00
-52.05
-26.23
-1.05
22.38
43.21
60.57
73.72
82.26
86.38
86.96
85.32
82.82
80.47
78.67
77.29
75.90
74.10
71.74
68.97
66.02
63.11
60.21
57.05
53.24
48.47
42.68
36.10
29.15
22.23
15.57
9.07
2.50
-4.47
-11.94
-19.79
-27.70
-35.30
-42.41
-49.00
-55.29
-61.54
-68.12
-75.33
-83.45
-92.43
-101.72
-110.07
-115.63
-116.40
-110.89
-98.68
-80.65
-58.66
-34.94
-11.50
10.24
29.39
45.37
57.73
66.13
70.58
71.59
70.16
67.50
64.68
62.33
60.59
59.22
57.89
56.30
54.35
52.06
49.48
46.66
43.52
39.97
35.92
31.32
26.21
20.63
14.60
8.05
0.94
-6.75
-14.87
-23.07
-30.89
-37.96
-44.13
-49.54
-54.69
-60.24
-66.91
-75.22
-85.31
-96.69
-108.10
-117.63
-123.07
-122.50
-114.88
-100.40
-80.44
-57.06
-32.45
-8.41
13.80
33.34
49.56
61.98
70.33
74.79
76.01
75.06
73.05
70.84
68.82
66.99
65.03
62.70
59.87
56.52
52.75
48.58
44.01
39.01
33.63
28.03
22.45
17.11
12.10
7.21
1.98
-4.09
-11.33
-19.69
-28.68
-37.61
-45.92
-53.43
-60.53
-67.97
-76.60
-87.02
-99.28
-112.65
-125.65
-136.23
-142.10
-141.41
-133.21
-117.81
-96.70
-72.02
-45.96
-20.21
4.12
26.31
45.76
61.81
73.89
81.81
85.96
87.30
86.98
85.96
84.77
83.47
81.90
79.91
77.50
74.78
71.82
68.55
64.78
60.25
54.85
48.65
41.89
34.85
27.73
20.59
13.36
5.89
-1.97
-10.28
-18.98
-27.89
-36.73
-45.25
-53.40
-61.44
-69.93
-79.58
-90.89
-103.73
-117.07
-129.05
-137.29
-139.60
-134.63
-122.26
-103.57
-80.50
-55.17
-29.41
-4.51
18.67
39.54
57.54
72.09
82.83
89.69
93.11
93.85
92.81
90.76
88.21
85.39
82.43
79.39
76.32
73.25
70.09
66.67
62.78
58.27
53.13
47.45
41.33
34.81
27.86
20.38
12.30
3.67
-5.38
-14.59
-23.71
-32.51
-40.85
-48.73
-56.30
-63.86
-71.89
-80.91
-91.21
-102.61
-114.13
-124.07
-130.33
-130.90
-124.56
-111.26
-92.15
-69.10
-44.21
-19.28
4.42
26.04
44.93
60.56
72.50
80.60
85.14
86.74
86.29
84.66
82.55
80.34
78.16
75.89
73.31
70.23
66.51
62.20
57.45
52.49
47.47
42.47
37.46
32.35
27.01
21.30
15.04
8.10
0.48
-7.64
-15.95
-24.04
-31.69
-38.86
-45.83
-52.93
-60.56
-69.04
-78.57
-89.17
-100.43
-111.30
-120.09
-124.71
-123.27
-114.71
-99.27
-78.44
-54.47
-29.69
-5.97
15.54
34.27
49.88
62.13
70.83
76.01
78.10
77.88
76.29
74.17
72.03
70.02
68.07
66.04
63.90
61.68
59.43
57.01
54.16
50.51
45.83
40.13
33.72
27.06
20.50
14.14
7.74
0.95
-6.49
-14.50
-22.70
-30.55
-37.73
-44.16
-50.15
-56.26
-63.11
-71.27
-80.97
-91.95
-103.16
-112.87
-118.87
-119.14
-112.49
-98.93
-79.72
-56.89
-32.64
-8.83
13.20
32.46
48.24
59.99
67.52
71.11
71.59
70.19
68.13
66.34
65.17
64.51
63.98
63.15
61.79
59.81
57.27
54.18
50.53
46.29
41.46
36.19
30.69
25.15
19.65
14.10
8.32
2.13
-4.56
-11.64
-18.89
-25.98
-32.73
-39.03
-45.04
-51.13
-57.82
-65.71
-75.16
-86.03
-97.34
-107.34
-113.72
-114.31
-107.76
-94.03
-74.48
-51.43
-27.42
-4.61
15.61
32.56
45.98
55.80
62.06
65.01
65.25
63.72
61.53
59.62
58.51
58.21
58.28
58.18
57.37
55.60
52.83
49.22
45.05
40.57
35.96
31.35
26.72
22.02
17.15
11.98
6.46
0.59
-5.57
-11.90
-18.31
-24.75
-31.25
-37.88
-44.81
-52.27
-60.59
-70.03
-80.49
-91.32
-101.16
-108.07
-110.06
-105.68
-94.57
-77.65
-56.70
-33.92
-11.27
9.79
28.32
43.70
55.53
63.60
68.05
69.44
68.67
66.80
64.74
63.01
61.76
60.79
59.83
58.60
56.93
54.73
51.93
48.51
44.44
39.80
34.69
29.23
23.55
17.69
11.68
5.50
-0.85
-7.40
-14.12
-21.02
-28.05
-35.12
-42.13
-49.05
-56.02
-63.43
-71.81
-81.42
-91.95
-102.20
-110.11
-113.37
-110.09
-99.63
-82.71
-61.29
-37.77
-14.41
7.23
26.21
41.97
54.10
62.29
66.51
67.24
65.53
62.69
59.92
57.95
56.90
56.43
55.97
55.01
53.22
50.53
47.03
43.00
38.71
34.41
30.15
25.80
21.10
15.74
9.59
2.70
-4.62
-11.98
-19.05
-25.72
-32.12
-38.56
-45.49
-53.32
-62.40
-72.85
-84.30
-95.72
-105.42
-111.29
-111.40
-104.62
-91.08
-72.22
-50.31
-27.84
-6.80
11.63
26.89
38.84
47.37
52.41
54.05
52.73
49.34
45.03
40.96
37.82
35.67
33.90
31.50
27.43
21.17
13.02
4.09
-3.89
-8.97
-9.33
-3.62
8.86
27.81
51.62
77.02
99.20
112.64
112.59
96.79
66.46
26.14
-17.93
-59.90
-96.19
-126.07
-150.66
-171.38
-188.32
-199.87
-203.26
-195.72
-175.09
-139.85
-89.06
-23.02
55.32
139.26
218.37
280.94
317.61
324.94
306.37
270.52
227.16
183.38
141.80
101.08
58.15
10.27
-43.73
-103.17
-165.54
-226.63
-280.98
-322.95
-348.49
-356.77
-350.45
-334.75
-315.22
-295.71
-277.58
-260.24
-242.59
-224.30
-206.06
-189.17
-174.65
-162.92
-153.77
-146.82
-141.73
-137.99
-134.91
-131.32
-125.74
-116.80
-103.68
-86.42
-65.95
-43.88
-21.98
-1.82
15.71
30.60
43.75
56.68
71.24
89.17
111.65
138.83
169.53
201.22
230.36
253.27
267.29
271.59
267.52
257.98
246.26
234.80
224.66
215.54
206.52
196.74
185.74
173.48
160.04
145.45
129.72
112.97
95.46
77.52
59.37
40.92
21.93
2.16
-18.19
-38.35
-56.86
-71.84
-81.30
-83.70
-78.30
-65.46
-46.78
-24.61
-1.53
20.34
39.70
56.12
69.59
80.01
87.05
90.30
89.73
86.00
80.40
74.44
69.24
65.14
61.75
58.35
54.40
49.83
44.98
40.30
35.99
31.94
27.90
23.65
19.27
15.08
11.34
7.97
4.33
-0.55
-7.58
-17.00
-28.35
-40.54
-52.50
-63.72
-74.34
-84.85
-95.31
-104.92
-111.90
-114.17
-110.14
-99.29
-82.35
-60.76
-36.20
-10.10
16.42
42.33
66.44
87.40
103.85
114.85
120.18
120.36
116.54
110.08
102.24
93.90
85.51
77.19
68.83
60.63
52.75
45.29
38.21
31.37
24.54
17.38
9.45
0.24
-10.41
-22.46
-35.64
-49.46
-63.19
-76.00
-87.26
-96.75
-104.67
-110.86
-115.46
-119.00
-122.34
-126.13
-130.30
-133.96
-135.52
-133.21
-123.93
-106.13
-80.73
-50.78
-19.72
10.19
38.08
63.95
87.87
113.17
141.60
172.16
201.60
226.90
246.95
262.26
273.82
282.30
293.57
311.24
334.73
359.42
380.28
394.75
402.83
405.77
405.16
409.78
425.36
451.69
482.46
510.28
530.86
543.58
549.96
505.77
390.50
216.82
25.46
-145.12
-277.76
-373.24
-439.79
-486.15
-518.55
-533.15
-528.98
-508.31
-478.01
-445.43
-414.63
-386.43
-360.40
-335.72
-305.75
-268.83
-227.68
-188.11
-155.08
-130.42
-112.11
-99.76
-93.14
-88.32
-82.26
-73.60
-63.53
-55.10
-49.59
-47.27
-48.07
-51.27
-53.99
-53.95
-50.05
-43.13
-35.11
-27.69
-21.99
-18.54
-16.94
-15.73
-13.93
-11.41
-9.05
-8.11
-9.24
-12.40
-17.03
-22.14
-27.03
-31.60
-36.14
-41.17
-47.08
-53.81
-61.04
-68.35
-75.30
-81.53
-86.83
-90.97
-93.76
-95.11
-95.06
-93.74
-91.14
-86.70
-79.17
-66.92
-48.70
-24.44
4.19
34.09
61.56
83.62
98.85
107.65
111.64
112.78
112.47
111.33
109.37
106.48
102.69
98.20
93.11
87.23
80.15
71.52
61.56
51.25
42.14
35.84
33.20
33.76
35.73
36.46
33.43
25.23
12.12
-4.10
-20.75
-35.38
-46.51
-54.10
-59.26
-63.60
-68.62
-75.30
-84.07
-94.76
-106.64
-118.35
-127.82
-132.61
-130.47
-120.06
-101.50
-76.32
-46.95
-16.05
14.21
42.27
67.03
87.63
103.28
113.45
118.09
117.92
114.25
108.81
103.09
98.07
93.84
89.66
84.23
76.02
63.80
47.00
26.06
2.50
-21.32
-42.67
-59.17
-69.41
-73.46
-72.77
-69.77
-67.08
-66.73
-69.61
-75.37
-82.79
-90.29
-96.47
-100.37
-101.59
-100.20
-96.66
-91.72
-86.39
-81.88
-79.28
-79.25
-81.61
-85.16
-87.80
-87.11
-81.05
-68.66
-50.41
-27.92
-3.35
21.28
44.57
65.70
84.14
99.24
110.27
116.53
117.85
114.84
108.82
101.41
94.02
87.50
82.07
77.51
73.47
69.57
65.49
60.92
55.55
49.17
41.79
33.72
25.46
17.48
10.03
2.99
-3.99
-11.30
-19.11
-27.34
-35.68
-43.80
-51.53
-58.90
-66.10
-73.41
-81.12
-89.51
-98.84
-109.24
-120.47
-131.76
-141.69
-148.43
-150.20
-145.76
-134.85
-118.31
-97.82
-75.43
-53.12
-32.45
-14.50
0.08
10.91
17.94
21.46
22.27
21.69
21.27
22.46
26.11
32.36
40.63
50.00
59.57
68.59
76.54
82.88
87.14
88.88
87.94
84.54
79.21
72.59
65.14
56.98
48.05
38.29
27.79
16.95
6.24
-3.93
-13.36
-22.16
-30.60
-39.06
-47.95
-57.67
-68.49
-80.38
-92.66
-103.87
-111.97
-114.74
-110.60
-99.08
-81.06
-58.39
-33.36
-8.03
16.07
37.91
56.78
72.02
83.07
89.69
92.16
91.36
88.58
85.18
82.17
79.98
78.44
77.00
75.01
72.07
68.06
63.20
57.79
52.04
45.96
39.43
32.34
24.73
16.87
9.10
1.65
-5.49
-12.63
-20.10
-28.10
-36.55
-45.09
-53.29
-60.98
-68.38
-76.03
-84.70
-95.01
-107.00
-119.99
-132.44
-142.15
-146.76
-144.29
-133.76
-115.49
-91.06
-62.89
-33.55
-5.25
20.52
42.84
61.19
75.20
84.51
89.05
89.13
85.53
79.35
71.75
63.60
55.42
47.40
39.54
31.85
24.38
17.23
10.58
4.56
-0.68
-4.99
-8.18
-10.06
-10.44
-9.34
-6.94
-3.69
-0.20
2.96
5.36
6.80
7.21
6.54
4.54
0.87
-4.90
-13.06
-23.69
-36.44
-50.52
-64.61
-76.83
-85.07
-87.28
-82.12
-69.30
-49.77
-25.45
1.30
28.21
53.41
75.54
93.61
106.95
115.23
118.65
117.92
114.20
108.77
102.74
96.82
91.29
86.18
81.40
76.90
72.57
68.26
63.75
58.78
53.23
47.14
40.69
34.19
27.86
21.86
16.15
10.54
4.79
-1.40
-8.19
-15.59
-23.38
-31.23
-38.77
-45.78
-52.31
-58.73
-65.64
-73.64
-82.96
-93.16
-102.93
-110.24
-112.82
-108.77
-97.21
-78.56
-54.37
-26.87
1.59
29.00
53.82
75.02
91.97
104.54
113.00
118.08
120.65
121.48
120.93
118.98
115.32
109.69
102.07
92.76
82.20
70.86
59.08
47.12
35.26
23.87
13.34
4.05
-3.86
-10.53
-16.36
-21.78
-27.22
-32.90
-38.91
-45.20
-51.69
-58.27
-64.78
-71.04
-76.90
-82.42
-87.94
-94.11
-101.62
-110.72
-120.82
-130.29
-136.67
-137.37
-130.49
-115.51
-93.45
-66.60
-37.79
-9.70
15.59
36.72
52.94
63.87
69.52
70.27
67.05
61.20
54.34
47.85
42.52
38.42
34.97
31.34
26.87
21.32
14.87
7.92
0.80
-6.39
-13.88
-22.10
-31.64
-43.09
-56.97
-73.49
-92.34
-112.50
-132.22
-149.36
-161.95
-168.76
-169.64
-165.53
-158.05
-148.97
-139.74
-131.19
-123.46
-115.98
-107.59
-96.58
-81.03
-59.18
-30.09
5.93
47.09
90.39
132.34
169.70
200.22
222.90
237.91
246.04
248.26
245.26
237.37
224.79
207.83
187.27
164.38
140.82
118.30
98.21
81.40
68.03
57.71
49.67
43.02
36.99
31.05
24.97
18.75
12.53
6.38
0.27
-6.05
-12.88
-20.51
-28.99
-38.11
-47.36
-56.14
-63.89
-70.37
-75.73
-80.51
-85.49
-91.34
-98.32
-106.01
-113.15
-117.86
-118.04
-111.98
-98.93
-79.40
-55.08
-28.39
-1.88
22.27
42.51
57.98
68.36
73.86
75.12
73.19
69.35
64.94
60.95
57.90
55.73
53.99
52.11
49.60
46.25
42.13
37.62
33.15
29.08
25.51
22.24
18.87
14.99
10.37
4.98
-1.06
-7.65
-14.80
-22.54
-30.88
-39.59
-48.25
-56.40
-63.84
-70.79
-77.95
-86.23
-96.36
-108.44
-121.64
-134.20
-143.77
-147.97
-145.05
-134.30
-116.26
-92.37
-64.71
-35.41
-6.47
20.48
44.21
63.94
79.43
91.02
99.51
105.88
111.01
115.36
118.87
121.19
121.92
120.81
117.88
113.30
107.36
100.38
92.84
85.32
78.55
73.10
69.23
66.67
64.71
62.41
58.97
54.01
47.70
40.68
33.77
27.61
22.32
17.43
11.93
4.61
-5.58
-19.23
-36.23
-55.62
-75.62
-93.75
-107.33
-114.06
-112.72
-103.54
-88.12
-68.85
-48.26
-28.35
-10.45
4.64
16.40
24.48
28.81
29.81
28.46
26.04
23.77
22.39
21.97
22.08
22.09
21.59
20.56
19.29
18.11
17.17
16.25
14.85
12.42
8.55
3.16
-3.53
-11.06
-18.86
-26.37
-33.19
-39.12
-44.22
-48.74
-53.13
-57.87
-63.45
-70.25
-78.48
-88.04
-98.39
-108.41
-116.41
-120.41
-118.62
-109.97
-94.54
-73.54
-49.05
-23.44
1.13
23.01
41.14
54.91
64.13
68.85
69.58
67.14
62.73
57.65
53.03
49.60
47.55
46.54
45.85
44.72
42.56
39.18
34.80
29.89
25.00
20.44
16.16
11.79
6.83
0.90
-6.07
-13.79
-21.75
-29.48
-36.79
-43.74
-50.72
-58.21
-66.65
-76.28
-86.99
-98.18
-108.63
-116.60
-120.05
-117.22
-107.22
-90.39
-68.25
-43.12
-17.41
6.86
28.29
46.03
59.51
68.36
72.45
72.05
68.00
61.63
54.50
47.98
42.96
39.66
37.78
36.68
35.69
34.35
32.39
29.81
26.66
23.01
18.79
13.85
7.95
0.93
-7.25
-16.43
-26.30
-36.46
-46.52
-56.33
-65.99
-76.01
-87.19
-100.50
-116.87
-136.73
-159.53
-183.38
-205.08
-220.68
-226.52
-220.35
-201.92
-172.95
-136.35
-95.27
-52.36
-9.67
31.09
68.23
100.01
125.02
142.61
153.31
158.63
160.61
161.13
161.45
161.91
162.14
161.33
158.69
153.64
146.00
135.90
123.67
109.71
94.39
78.03
60.86
43.17
25.30
7.71
-9.02
-24.31
-37.72
-49.13
-58.70
-66.80
-73.87
-80.31
-86.47
-92.58
-98.73
-104.62
-109.40
-111.68
-109.84
-102.55
-89.30
-70.69
-48.13
-23.41
1.94
26.84
50.52
72.17
90.66
104.74
113.38
116.35
114.38
109.06
102.22
95.34
89.22
83.90
79.00
74.02
68.63
62.64
56.01
48.76
40.89
32.44
23.46
14.00
3.99
-6.75
-18.54
-31.67
-46.18
-61.75
-77.66
-92.96
-106.79
-118.53
-127.92
-135.01
-140.01
-143.22
-144.87
-144.99
-143.17
-138.55
-129.86
-115.83
-95.80
-70.10
-40.25
-8.51
22.71
51.48
76.63
97.58
114.04
125.73
132.38
133.94
130.84
124.03
114.79
104.44
94.00
84.02
74.69
65.99
57.90
50.48
43.81
37.92
32.67
27.85
23.35
19.25
15.86
13.56
12.53
12.60
13.21
13.65
13.31
11.94
9.68
6.82
3.58
-0.12
-4.64
-10.47
-18.01
-27.40
-38.46
-50.55
-62.58
-72.93
-79.56
-80.47
-74.24
-60.58
-40.54
-16.30
9.53
34.60
57.23
76.52
91.96
103.17
109.83
111.87
109.76
104.58
97.79
90.79
84.44
78.97
74.12
69.47
64.79
60.10
55.54
51.19
46.94
42.48
37.48
31.75
25.32
18.43
11.42
4.62
-1.84
-7.96
-13.97
-20.10
-26.48
-33.07
-39.61
-45.79
-51.32
-56.12
-60.37
-64.51
-69.11
-74.74
-81.59
-89.26
-96.58
-101.75
-102.70
-97.75
-86.25
-68.76
-46.96
-23.02
0.95
23.35
43.10
59.49
71.99
80.23
84.20
84.40
81.83
77.74
73.27
69.14
65.59
62.47
59.54
56.60
53.60
50.58
47.52
44.33
40.84
36.82
32.14
26.77
20.86
14.72
8.66
2.90
-2.55
-7.90
-13.47
-19.45
-25.86
-32.48
-38.97
-45.08
-50.67
-55.79
-60.56
-65.15
-69.74
-74.56
-79.70
-84.99
-89.66
-92.38
-91.43
-85.25
-73.06
-55.23
-33.30
-9.51
13.81
34.81
52.28
65.68
74.89
80.13
81.84
80.71
77.63
73.55
69.25
65.24
61.67
58.46
55.43
52.43
49.41
46.45
43.64
41.04
38.62
36.23
33.64
30.65
27.13
23.12
18.75
14.28
9.96
5.94
2.30
-1.01
-4.11
-7.10
-10.06
-13.01
-15.94
-18.86
-21.85
-25.10
-28.86
-33.34
-38.45
-43.62
-47.74
-49.28
-46.72
-39.02
-25.95
-8.27
12.55
34.72
56.47
76.32
93.00
105.41
112.51
113.47
107.97
96.44
80.26
61.54
42.68
25.81
12.22
2.16
-4.96
-10.22
-14.65
-18.87
-23.09
-27.20
-31.12
-34.95
-38.98
-43.57
-48.93
-55.00
-61.51
-68.04
-74.18
-79.72
-84.66
-89.23
-93.79
-98.65
-104.11
-110.31
-117.35
-125.27
-134.01
-143.24
-152.23
-159.80
-164.61
-165.56
-162.35
-155.64
-146.72
-136.80
-126.32
-114.63
-100.42
-82.58
-61.06
-37.20
-13.37
8.05
25.63
39.40
50.62
61.00
71.88
83.63
95.73
107.21
117.17
125.18
131.23
135.52
138.02
138.33
135.74
129.57
119.40
105.23
87.39
66.47
43.31
18.91
-5.56
-29.05
-50.80
-70.60
-89.08
-107.41
-126.94
-148.46
-171.75
-195.49
-217.31
-234.23
-243.20
-242.10
-230.16
-208.02
-177.41
-140.75
-100.87
-60.60
-22.34
12.24
41.74
65.39
83.27
96.29
106.09
114.05
121.08
127.60
133.92
139.52
143.69
145.68
144.90
141.02
133.42
121.60
104.82
84.74
64.03
44.58
26.45
7.40
-11.50
-27.14
-36.12
-36.66
-26.41
-7.76
13.96
32.72
44.20
47.26
43.31
35.13
25.45
15.87
5.89
-5.76
-19.66
-34.71
-47.99
-56.31
-57.46
-51.22
-39.33
-25.16
-11.92
-1.37
6.47
12.67
17.91
21.83
23.19
20.90
14.66
5.86
-2.75
-8.19
-8.54
-3.97
3.25
9.84
12.95
11.13
4.90
-3.69
-12.08
-18.36
-21.91
-23.46
-24.45
-26.27
-29.70
-34.70
-40.67
-46.80
-52.47
-57.27
-61.11
-64.00
-66.11
-67.83
-69.71
-72.37
-76.14
-80.75
-85.05
-87.06
-84.34
-74.48
-55.87
-28.26
6.76
45.68
83.61
115.43
137.08
146.84
145.70
136.71
123.81
110.38
98.50
88.89
81.52
76.17
72.63
70.47
68.71
65.85
60.26
50.94
38.00
22.70
6.92
-7.68
-20.15
-30.47
-39.11
-46.70
-53.55
-59.67
-64.85
-68.90
-71.71
-73.31
-73.82
-73.51
-72.81
-72.31
-72.65
-74.32
-77.43
-81.55
-85.63
-88.15
-87.20
-80.95
-67.96
-47.77
-21.36
8.82
39.29
66.32
86.89
99.50
104.34
103.07
98.07
91.66
85.71
81.58
80.21
82.24
87.91
96.86
108.01
119.65
129.77
137.02
141.09
142.67
142.77
141.98
139.91
135.62
127.76
115.22
98.08
77.69
56.07
34.99
15.51
-2.33
-18.47
-33.08
-46.45
-58.13
-67.10
-72.54
-74.74
-75.04
-75.73
-77.81
-81.38
-85.74
-88.73
-87.45
-79.34
-63.24
-39.26
-8.73
27.87
69.33
108.57
135.17
141.14
126.51
98.09
68.72
41.75
19.50
3.72
-5.04
-6.22
-0.08
11.21
23.47
31.95
32.54
24.81
10.60
-7.14
-25.03
-40.37
-51.96
-60.37
-67.17
-74.46
-82.72
-91.81
-101.28
-110.17
-117.34
-121.85
-123.52
-122.96
-121.61
-120.55
-120.74
-122.88
-126.88
-131.74
-135.70
-136.81
-133.33
-124.41
-109.84
-90.41
-67.58
-43.07
-18.48
4.86
25.81
43.45
56.97
66.06
70.87
71.98
70.25
66.64
62.19
57.84
54.55
53.12
54.06
57.39
62.64
69.05
75.85
82.61
89.28
96.01
102.76
109.00
113.58
115.00
111.77
102.94
88.49
69.34
47.24
24.39
2.94
-15.52
-30.30
-41.84
-51.55
-61.34
-72.92
-87.05
-102.96
-118.41
-130.22
-135.33
-131.89
-119.88
-101.12
-78.56
-55.26
-33.36
-13.73
3.83
19.86
34.51
47.21
56.97
62.87
64.68
62.92
58.73
53.27
47.44
41.69
36.26
31.40
27.46
24.88
23.81
23.94
24.55
24.63
23.31
20.05
14.78
7.85
-0.12
-8.41
-16.41
-23.72
-30.24
-36.16
-41.89
-47.94
-54.76
-62.63
-71.45
-80.64
-89.07
-95.15
-97.19
-93.91
-84.89
-70.74
-52.92
-33.22
-13.27
5.79
23.16
38.15
49.99
57.86
61.28
60.49
56.55
51.10
45.77
41.69
39.16
37.80
36.84
35.53
33.42
30.41
26.72
22.68
18.60
14.54
10.38
5.85
0.69
-5.06
-11.06
-16.73
-21.43
-24.83
-26.99
-28.39
-29.71
-31.67
-34.83
-39.60
-46.20
-54.49
-63.80
-72.82
-79.72
-82.59
-80.03
-71.57
-57.90
-40.53
-21.31
-1.97
16.24
32.45
46.03
56.43
63.18
66.05
65.26
61.58
56.17
50.30
45.02
40.91
38.03
35.96
34.03
31.46
27.57
21.91
14.37
5.27
-4.73
-14.70
-23.75
-31.16
-36.52
-39.73
-40.87
-40.21
-38.12
-35.16
-32.02
-29.52
-28.43
-29.36
-32.61
-38.14
-45.58
-54.16
-62.79
-70.08
-74.54
-74.83
-70.15
-60.41
-46.31
-29.04
-10.07
9.30
27.98
45.15
60.14
72.38
81.41
86.99
89.18
88.39
85.28
80.65
75.25
69.71
64.39
59.46
54.90
50.52
46.16
41.69
37.11
32.49
27.90
23.37
18.86
14.28
9.52
4.50
-0.88
-6.66
-12.91
-19.52
-26.32
-32.98
-39.24
-44.97
-50.42
-56.16
-62.82
-70.75
-79.59
-88.17
-94.65
-97.04
-93.79
-84.24
-68.80
-48.78
-26.10
-2.83
19.11
38.26
53.66
64.94
72.24
76.09
77.21
76.37
74.26
71.42
68.31
65.19
62.24
59.47
56.82
54.15
51.37
48.44
45.38
42.23
38.99
35.46
31.32
26.19
19.87
12.40
4.17
-4.27
-12.30
-19.55
-25.91
-31.56
-36.73
-41.62
-46.38
-51.16
-56.23
-61.90
-68.25
-74.95
-81.00
-84.94
-85.24
-80.78
-71.27
-57.31
-40.12
-21.22
-2.02
16.25
32.57
46.12
56.31
62.92
66.13
66.55
65.01
62.36
59.27
56.15
53.21
50.48
47.90
45.26
42.36
39.00
35.06
30.58
25.74
20.74
15.84
11.22
7.02
3.29
-0.04
-3.18
-6.38
-9.85
-13.61
-17.51
-21.32
-24.91
-28.32
-31.84
-35.84
-40.72
-46.65
-53.55
-60.99
-68.17
-73.92
-76.88
-75.90
-70.30
-60.20
-46.45
-30.40
-13.52
2.89
17.84
30.57
40.44
46.99
49.98
49.70
46.95
42.88
38.69
35.21
32.76
31.10
29.78
28.33
26.51
24.33
21.92
19.42
16.84
14.13
11.10
7.60
3.46
-1.42
-7.04
-13.24
-19.66
-25.82
-31.14
-35.17
-37.67
-38.65
-38.41
-37.44
-36.31
-35.58
-35.78
-37.31
-40.32
-44.54
-49.13
-52.73
-53.69
-50.60
-42.77
-30.45
-14.78
2.64
20.24
36.76
51.31
63.31
72.30
77.91
80.04
78.94
75.25
69.94
64.05
58.48
53.85
50.41
48.04
46.30
44.58
42.20
38.69
33.90
28.07
21.71
15.39
9.48
4.06
-1.13
-6.42
-12.08
-18.17
-24.49
-30.76
-36.65
-41.93
-46.41
-50.08
-53.19
-56.27
-60.09
-65.30
-71.91
-79.01
-84.78
-87.02
-83.98
-75.00
-60.80
-43.16
-24.20
-5.79
10.81
24.86
35.95
43.83
48.33
49.61
48.17
44.90
40.87
37.04
34.05
32.15
31.14
30.57
29.89
28.64
26.57
23.79
20.70
17.85
15.73
14.60
14.33
14.43
14.24
13.14
10.82
7.39
3.33
-0.68
-4.09
-6.76
-8.99
-11.44
-14.86
-19.72
-25.99
-32.95
-39.33
-43.54
-43.99
-39.49
-29.63
-14.94
3.12
22.43
40.66
55.87
66.90
73.52
76.34
76.35
74.48
71.36
67.19
61.95
55.58
48.30
40.54
32.93
26.05
20.24
15.50
11.55
7.97
4.46
0.92
-2.60
-6.00
-9.35
-12.94
-17.16
-22.30
-28.32
-34.76
-41.04
-46.63
-51.39
-55.65
-60.05
-65.26
-71.82
-79.91
-89.36
-99.58
-109.58
-118.09
-123.75
-125.39
-122.22
-114.09
-101.35
-84.88
-65.90
-45.87
-26.32
-8.58
6.45
18.53
28.12
36.10
43.31
50.27
56.95
63.00
68.05
71.93
74.74
76.63
77.70
77.75
76.45
73.45
68.62
62.07
54.14
45.17
35.40
24.92
13.76
2.06
-9.77
-21.09
-31.13
-39.36
-45.66
-50.42
-54.39
-58.35
-62.74
-67.51
-72.07
-75.50
-76.78
-75.05
-69.77
-60.80
-48.38
-33.03
-15.40
3.85
24.01
44.23
63.24
79.34
90.60
95.47
93.43
85.33
73.25
59.86
47.55
37.78
30.80
26.00
22.45
19.42
16.65
14.36
12.79
12.03
11.76
11.29
9.93
7.23
3.23
-1.62
-6.65
-11.40
-15.76
-19.99
-24.46
-29.37
-34.73
-40.42
-46.42
-52.88
-59.96
-67.47
-74.62
-79.98
-81.87
-78.86
-70.31
-56.64
-39.14
-19.55
0.38
19.15
35.64
48.97
58.47
63.80
65.03
62.84
58.44
53.23
48.42
44.64
41.85
39.48
36.85
33.57
29.64
25.45
21.50
18.14
15.42
13.12
10.87
8.37
5.42
2.02
-1.68
-5.46
-9.12
-12.54
-15.76
-19.04
-22.71
-27.12
-32.51
-38.83
-45.75
-52.57
-58.33
-61.85
-61.99
-57.90
-49.27
-36.50
-20.60
-3.00
14.79
31.36
45.62
56.80
64.47
68.49
69.10
66.96
62.99
58.25
53.64
49.74
46.65
44.22
42.12
40.13
38.12
36.05
33.83
31.24
27.99
23.75
18.39
12.06
5.17
-1.75
-8.27
-14.16
-19.48
-24.44
-29.37
-34.56
-40.24
-46.56
-53.60
-61.23
-69.00
-76.01
-81.08
-82.86
-80.29
-72.97
-61.23
-46.06
-28.84
-10.99
6.28
21.91
35.03
44.89
51.04
53.44
52.63
49.52
45.21
40.62
36.34
32.48
28.95
25.51
22.10
18.74
15.60
12.83
10.45
8.30
5.98
3.09
-0.76
-5.59
-11.12
-16.79
-21.96
-26.22
-29.46
-31.85
-33.69
-35.26
-36.79
-38.48
-40.54
-43.15
-46.22
-49.24
-51.21
-50.89
-47.19
-39.52
-28.10
-13.85
1.85
17.49
31.75
43.64
52.50
58.07
60.47
60.20
57.99
54.71
51.13
47.75
44.81
42.28
39.98
37.69
35.23
32.48
29.42
26.14
22.77
19.46
16.27
13.19
10.09
6.85
3.36
-0.43
-4.48
-8.72
-13.06
-17.43
-21.72
-25.87
-29.92
-34.04
-38.52
-43.61
-49.21
-54.74
-59.05
-60.75
-58.64
-52.17
-41.65
-28.21
-13.36
1.41
14.99
26.64
35.95
42.62
46.47
47.51
46.09
42.90
38.86
34.84
31.51
29.09
27.49
26.37
25.37
24.11
22.38
20.02
17.04
13.60
9.96
6.41
3.15
0.17
-2.75
-5.90
-9.57
-13.81
-18.47
-23.21
-27.74
-31.93
-35.86
-39.83
-44.14
-48.99
-54.33
-59.72
-64.35
-67.16
-67.11
-63.48
-56.09
-45.41
-32.39
-18.25
-4.19
8.76
19.81
28.38
34.12
37.00
37.30
35.67
32.95
30.00
27.50
25.80
24.93
24.62
24.49
24.13
23.29
21.86
20.01
18.00
16.13
14.56
13.13
11.49
9.17
5.92
1.84
-2.58
-6.69
-10.03
-12.53
-14.59
-16.85
-19.90
-24.04
-29.29
-35.44
-42.19
-49.15
-55.62
-60.64
-62.99
-61.61
-55.93
-46.28
-33.70
-19.70
-5.75
7.02
17.88
26.45
32.42
35.61
36.06
34.17
30.77
26.92
23.62
21.48
20.59
20.51
20.63
20.38
19.45
17.87
15.83
13.58
11.29
9.06
6.91
4.80
2.67
0.41
-2.12
-5.05
-8.41
-12.14
-16.10
-20.09
-23.95
-27.64
-31.23
-34.86
-38.76
-43.17
-48.24
-53.87
-59.50
-64.11
-66.45
-65.37
-60.36
-51.68
-40.28
-27.50
-14.64
-2.74
7.49
15.58
21.28
24.52
25.52
24.75
22.92
20.72
18.73
17.25
16.38
16.04
16.09
16.32
16.50
16.41
15.89
14.85
13.34
11.52
9.53
7.45
5.16
2.43
-1.00
-5.27
-10.28
-15.69
-21.03
-25.89
-30.10
-33.74
-37.06
-40.44
-44.24
-48.75
-54.12
-60.23
-66.55
-72.15
-75.77
-76.17
-72.50
-64.55
-52.90
-38.63
-23.07
-7.52
6.98
19.66
29.94
37.44
41.99
43.70
43.05
40.79
37.85
35.07
33.02
31.91
31.59
31.78
32.11
32.31
32.24
31.84
31.12
30.04
28.52
26.44
23.69
20.23
16.24
12.05
8.02
4.40
1.13
-2.16
-5.93
-10.54
-16.09
-22.37
-29.11
-36.01
-42.86
-49.34
-54.91
-58.73
-59.76
-57.06
-50.13
-39.09
-24.75
-8.40
8.39
24.08
37.42
47.57
54.18
57.40
57.76
56.08
53.21
49.94
46.83
44.20
42.18
40.73
39.68
38.80
37.77
36.26
34.05
31.14
27.69
24.02
20.36
16.67
12.70
8.05
2.49
-3.86
-10.50
-16.80
-22.26
-26.77
-30.65
-34.46
-38.86
-44.30
-50.94
-58.58
-66.54
-73.70
-78.62
-79.78
-76.04
-67.04
-53.34
-36.40
-18.04
-0.03
16.30
30.17
41.20
49.29
54.42
56.81
56.80
54.96
51.97
48.48
45.04
41.99
39.51
37.55
35.95
34.36
32.50
30.25
27.66
24.82
21.82
18.64
15.14
11.15
6.55
1.40
-3.97
-9.21
-14.16
-18.97
-23.98
-29.63
-36.26
-44.04
-52.90
-62.30
-71.44
-79.44
-85.38
-88.28
-87.25
-81.73
-71.68
-57.67
-40.03
-19.57
2.34
23.87
43.36
59.58
71.94
80.27
84.91
87.84
90.77
94.24
97.60
100.03
101.27
101.74
102.16
103.10
106.86
114.59
125.28
136.24
144.96
150.34
152.62
152.68
151.47
152.62
158.75
169.98
183.95
197.64
208.69
215.61
217.50
197.03
146.99
74.95
-0.67
-63.87
-108.62
-136.61
-152.34
-159.98
-162.47
-158.99
-149.21
-135.22
-121.38
-111.98
-109.15
-112.21
-118.10
-122.27
-118.62
-103.24
-76.94
-44.93
-14.05
10.25
25.58
32.45
33.28
32.14
31.90
32.84
33.46
32.27
28.97
24.48
20.01
16.30
13.91
13.70
15.34
17.91
20.54
22.79
24.51
25.58
25.80
25.27
24.21
22.74
21.09
19.47
17.92
15.93
12.32
5.50
-6.04
-22.65
-43.13
-64.57
-83.15
-95.33
-99.04
-94.25
-82.92
-68.14
-52.86
-39.03
-27.28
-17.41
-8.94
-1.63
4.46
9.08
11.85
12.78
12.26
10.80
8.58
5.49
1.42
-3.52
-8.80
-14.50
-20.27
-25.51
-29.91
-33.91
-38.56
-44.79
-52.91
-62.37
-73.74
-86.45
-98.71
-108.54
-114.98
-118.32
-119.37
-118.92
-117.43
-117.82
-121.25
-126.54
-131.54
-135.12
-137.84
-141.13
-146.46
-154.85
-169.96
-192.19
-217.60
-239.77
-253.23
-255.32
-246.23
-228.49
-184.19
-112.73
-30.25
42.37
94.31
126.40
144.36
153.96
159.33
162.94
162.63
157.42
148.65
138.56
128.69
119.01
109.31
100.09
92.43
84.67
76.24
68.15
62.04
58.79
58.32
60.51
65.64
74.26
83.58
91.47
96.67
98.44
95.97
88.73
77.15
62.87
48.12
34.18
22.20
13.02
6.98
3.69
2.04
0.71
-1.53
-5.53
-11.74
-19.34
-26.48
-30.89
-30.71
-25.17
-14.73
-0.79
14.82
30.29
44.18
55.39
63.08
66.79
66.57
63.11
57.67
51.70
46.37
42.28
39.35
37.12
35.13
33.22
31.49
30.15
29.25
28.65
28.11
27.40
26.59
25.95
25.83
26.49
27.95
29.92
31.95
33.43
33.82
32.73
30.03
25.87
20.76
15.46
10.75
7.17
4.78
2.92
0.68
-3.21
-9.85
-19.83
-32.98
-48.35
-64.26
-78.60
-89.37
-94.34
-92.22
-82.76
-66.86
-46.44
-23.98
-1.96
17.64
33.09
44.55
52.14
56.25
57.42
56.26
53.57
50.27
47.27
44.39
42.76
42.13
41.92
41.34
39.65
36.24
30.71
22.92
11.88
-0.94
-15.04
-29.84
-44.81
-59.46
-73.52
-86.88
-92.63
-99.38
-105.96
-112.30
-118.18
-123.31
-127.41
-130.30
-131.90
-132.30
-132.71
-132.21
-131.12
-129.84
-128.76
-128.03
-127.34
-125.83
-122.23
-116.10
-105.63
-90.74
-72.23
-51.46
-29.91
-8.78
11.07
28.91
43.39
54.20
60.70
62.92
61.79
58.87
55.82
53.76
53.04
53.08
53.61
54.27
55.05
56.04
57.29
58.57
59.41
59.40
58.26
56.25
53.76
51.30
49.20
47.55
46.26
45.12
43.98
42.82
41.82
41.23
41.33
42.17
43.63
45.35
46.88
47.73
47.51
45.91
42.88
38.66
33.81
29.25
26.00
24.93
26.45
30.23
35.34
40.57
44.89
47.79
49.36
49.96
49.90
49.09
47.05
43.25
37.46
29.92
21.39
12.81
4.98
-1.66
-7.13
-11.66
-15.58
-19.21
-22.77
-26.46
-30.42
-34.70
-39.21
-43.77
-48.10
-51.95
-55.14
-57.56
-59.19
-60.06
-60.36
-60.34
-60.38
-60.76
-61.66
-63.13
-65.07
-67.47
-70.38
-73.92
-77.93
-81.81
-84.34
-83.98
-79.38
-69.88
-55.86
-38.51
-19.44
-0.09
18.60
36.16
52.27
66.51
78.26
86.86
91.93
93.59
92.50
89.66
86.06
82.49
79.34
76.63
74.14
71.59
68.73
65.45
61.77
57.73
53.37
48.64
43.45
37.78
31.75
25.62
19.68
14.11
8.86
3.75
-1.42
-6.74
-12.14
-17.46
-22.59
-27.64
-32.90
-38.82
-45.84
-54.17
-63.67
-73.64
-82.91
-89.99
-93.35
-91.87
-85.14
-73.51
-57.97
-39.77
-20.22
-0.44
18.52
35.70
50.17
61.22
68.57
72.43
73.48
72.58
70.49
67.65
64.27
60.40
56.21
52.02
48.16
44.79
41.67
38.25
33.87
28.16
21.19
13.55
6.06
-0.62
-6.13
-10.55
-14.18
-17.38
-20.43
-23.52
-26.87
-30.66
-35.07
-40.14
-45.76
-51.73
-57.89
-64.29
-71.11
-78.37
-85.68
-92.01
-95.82
-95.51
-89.96
-78.86
-62.81
-43.04
-21.23
0.84
21.37
38.80
51.97
60.36
64.21
64.45
62.31
58.94
55.09
51.06
46.93
42.76
38.75
35.21
32.31
29.94
27.68
24.93
21.16
16.11
9.88
2.97
-3.91
-9.95
-14.48
-17.09
-17.75
-16.83
-15.07
-13.36
-12.55
-13.22
-15.56
-19.39
-24.38
-30.17
-36.59
-43.62
-51.29
-59.42
-67.54
-74.76
-79.87
-81.61
-78.93
-71.33
-59.08
-43.15
-25.05
-6.47
10.99
26.02
37.62
45.16
48.43
47.79
44.08
38.59
32.66
27.32
23.02
19.50
16.09
12.02
6.80
0.38
-6.94
-14.70
-22.62
-30.69
-39.21
-48.60
-59.13
-70.65
-82.41
-93.22
-101.68
-106.75
-108.05
-106.10
-101.96
-97.04
-92.73
-89.75
-88.04
-87.22
-86.95
-87.29
-88.72
-91.76
-96.60
-102.91
-109.32
-113.58
-113.20
-106.05
-91.10
-68.74
-40.43
-8.69
23.30
53.22
80.19
104.30
126.11
145.98
163.63
179.08
192.07
201.32
207.13
211.37
215.93
222.14
230.37
240.09
251.77
264.72
274.63
278.22
273.98
261.05
240.21
214.40
188.40
170.25
165.51
171.61
184.71
201.18
216.41
226.62
229.84
226.04
219.88
214.90
207.53
196.41
183.40
169.86
156.73
144.38
110.48
45.76
-17.11
-68.50
-116.12
-160.09
-197.89
-225.87
-241.13
-243.25
-231.34
-208.29
-184.36
-165.91
-153.60
-146.40
-142.55
-140.54
-139.65
-136.98
-130.82
-124.45
-118.98
-113.19
-106.80
-100.42
-95.19
-92.06
-89.70
-86.80
-84.97
-84.54
-84.57
-84.80
-85.46
-87.05
-89.90
-93.19
-96.01
-98.79
-101.29
-102.71
-102.73
-101.52
-99.59
-97.54
-95.57
-93.79
-92.66
-92.05
-91.24
-89.18
-84.66
-76.60
-64.39
-48.24
-29.14
-8.67
11.49
30.00
46.11
59.55
70.32
78.46
83.93
86.76
87.17
85.66
82.86
79.39
75.68
71.92
68.11
64.25
60.40
56.66
53.20
50.09
47.42
45.15
43.16
41.32
39.56
38.09
37.31
37.86
40.17
44.15
49.03
53.42
55.69
54.35
48.48
37.77
22.51
3.49
-18.04
-40.43
-61.71
-79.82
-93.01
-100.10
-100.73
-95.35
-85.08
-71.44
-56.08
-40.53
-26.05
-13.52
-3.38
4.30
9.75
13.40
15.88
17.78
19.68
21.88
24.45
27.17
29.78
32.12
34.34
36.83
40.09
44.50
50.09
56.42
62.59
67.41
69.66
68.42
63.35
54.81
43.75
31.43
18.94
6.93
-4.60
-16.10
-28.20
-41.38
-55.69
-70.66
-85.33
-98.39
-108.36
-113.81
-113.60
-107.23
-95.00
-78.14
-58.55
-38.42
-19.69
-3.67
9.12
18.85
26.17
32.07
37.62
43.91
51.74
61.32
71.90
81.85
89.03
91.62
88.79
80.96
69.48
55.87
41.23
25.97
10.07
-6.42
-23.10
-39.22
-54.15
-67.68
-80.10
-92.00
-103.80
-115.48
-126.58
-136.60
-145.26
-152.72
-159.49
-166.18
-173.06
-179.87
-185.70
-189.14
-188.62
-182.80
-171.07
-153.73
-132.01
-107.80
-83.13
-59.71
-38.60
-20.17
-4.28
9.33
20.89
30.51
38.23
44.24
48.94
52.86
56.56
60.34
64.13
67.58
70.23
71.82
72.39
72.33
72.03
71.70
71.20
70.04
67.70
63.85
58.52
52.08
45.04
37.83
30.66
23.55
16.40
9.13
1.71
-5.92
-13.84
-22.09
-30.55
-38.77
-45.79
-50.27
-50.79
-46.28
-36.47
-22.01
-4.30
14.92
34.07
51.96
67.87
81.32
91.97
99.53
103.92
105.35
104.42
101.89
98.51
94.74
90.69
86.25
81.27
75.69
69.58
63.15
56.62
50.24
44.17
38.52
33.28
28.31
23.29
17.88
11.78
4.92
-2.58
-10.30
-17.78
-24.63
-30.68
-36.10
-41.31
-46.85
-53.17
-60.43
-68.29
-75.95
-82.17
-85.53
-84.81
-79.23
-68.72
-53.92
-36.08
-16.72
2.52
20.22
35.23
46.80
54.60
58.76
59.81
58.62
56.23
53.58
51.33
49.75
48.77
48.16
47.66
47.05
46.14
44.71
42.57
39.57
35.69
31.09
26.05
20.87
15.78
10.88
6.19
1.69
-2.55
-6.51
-10.23
-13.91
-17.91
-22.64
-28.46
-35.52
-43.79
-52.92
-62.26
-70.82
-77.32
-80.41
-78.90
-72.15
-60.27
-44.19
-25.40
-5.67
13.36
30.44
44.76
55.92
63.85
68.73
70.95
71.08
69.70
67.44
64.80
62.11
59.52
57.04
54.54
51.81
48.66
44.90
40.48
35.50
30.16
24.68
19.15
13.52
7.58
1.14
-5.87
-13.22
-20.54
-27.38
-33.46
-38.76
-43.47
-47.91
-52.39
-57.26
-62.79
-69.22
-76.50
-84.12
-90.93
-95.32
-95.68
-90.95
-81.03
-66.83
-49.94
-32.09
-14.75
1.02
14.56
25.34
33.01
37.37
38.69
37.69
35.48
33.20
31.66
31.10
31.20
31.39
31.13
30.21
28.75
26.96
24.96
22.58
19.49
15.37
10.19
4.23
-1.98
-7.96
-13.46
-18.52
-23.38
-28.30
-33.44
-38.73
-44.02
-49.10
-53.77
-57.86
-61.17
-63.48
-64.49
-63.82
-60.96
-55.25
-45.87
-32.00
-13.06
10.93
39.00
69.22
98.98
125.65
147.30
163.23
174.08
181.37
186.83
191.75
196.72
201.60
205.78
208.36
208.25
204.22
195.13
180.25
159.68
134.62
107.17
79.86
54.98
33.94
17.03
3.54
-7.86
-18.55
-29.57
-41.37
-53.74
-65.98
-77.19
-86.47
-93.15
-96.85
-97.52
-95.50
-91.59
-87.08
-83.49
-82.22
-84.00
-88.52
-94.49
-100.06
-103.48
-103.76
-100.94
-95.99
-90.27
-85.12
-81.45
-79.68
-79.83
-81.67
-84.83
-88.89
-93.35
-97.71
-101.49
-104.25
-105.61
-105.27
-103.10
-99.22
-94.06
-88.30
-82.72
-77.86
-73.91
-70.55
-67.24
-63.49
-59.12
-54.42
-49.95
-46.28
-43.73
-42.26
-41.52
-41.10
-40.64
-39.93
-38.91
-37.72
-36.70
-36.36
-37.20
-39.47
-42.82
-46.31
-48.41
-47.44
-42.22
-32.52
-19.29
-4.29
10.49
23.55
34.09
42.31
49.08
55.46
62.13
69.18
76.16
82.42
87.35
90.35
91.24
90.23
87.96
85.30
83.35
83.24
85.91
91.76
99.69
108.18
115.70
121.26
124.27
124.60
122.36
117.84
111.20
101.10
86.48
67.09
43.28
15.43
-16.19
-51.03
-87.81
-124.64
-161.49
-197.60
-231.19
-259.85
-281.65
-295.71
-301.93
-300.67
-292.62
-281.36
-269.16
-256.06
-240.40
-220.90
-197.92
-173.36
-149.84
-112.71
-57.81
7.97
71.35
122.77
160.24
186.40
204.58
217.36
226.30
229.61
226.53
218.38
207.98
197.87
189.34
182.35
176.52
171.42
164.53
154.42
141.23
126.61
112.46
100.14
89.99
82.19
76.60
71.52
65.65
58.70
51.39
44.76
39.64
35.93
33.42
31.53
28.76
23.54
14.52
0.46
-20.38
-45.51
-73.38
-101.26
-125.34
-141.89
-148.21
-143.66
-129.90
-110.31
-88.66
-68.56
-52.00
-39.67
-31.55
-27.40
-26.88
-29.20
-32.90
-35.92
-36.53
-33.50
-26.75
-17.54
-8.16
-1.19
1.31
-1.71
-10.05
-22.98
-39.12
-57.04
-75.51
-93.77
-111.56
-129.04
-146.46
-163.68
-179.83
-192.93
-200.34
-199.41
-188.66
-168.47
-140.89
-108.88
-75.39
-42.70
-12.17
15.51
40.02
60.81
76.91
87.24
91.11
88.89
82.09
73.26
65.27
60.71
60.86
65.48
73.38
83.30
94.23
105.38
115.96
125.09
132.87
139.25
143.53
144.29
139.80
128.35
109.15
83.13
53.87
29.21
17.19
23.04
47.31
85.73
129.78
168.37
190.80
190.44
170.21
138.68
106.26
82.09
72.27
78.76
99.07
127.78
159.01
192.07
226.33
259.26
286.57
304.61
311.95
309.31
299.26
262.58
195.96
114.55
42.07
-7.79
-35.77
-49.60
-56.82
-61.48
-64.20
-60.10
-46.91
-26.73
-5.08
12.82
24.43
29.91
31.16
30.75
34.01
43.10
56.74
71.06
82.45
88.94
89.74
84.62
72.82
61.00
51.69
44.83
38.53
30.98
21.47
9.94
-2.98
-16.19
-27.53
-36.49
-43.54
-49.96
-57.01
-65.44
-76.13
-89.16
-103.72
-118.19
-131.96
-144.95
-157.53
-170.36
-184.22
-201.64
-223.82
-249.68
-276.43
-301.41
-322.15
-336.62
-343.63
-342.97
-338.96
-334.52
-329.77
-323.59
-315.99
-308.05
-300.61
-293.73
-286.60
-283.91
-287.55
-295.23
-303.31
-310.13
-316.08
-321.64
-326.79
-330.85
-340.04
-355.82
-372.85
-383.22
-382.03
-369.35
-348.38
-324.09
-255.37
-137.26
-0.50
115.97
194.62
239.62
261.76
270.66
272.11
269.49
257.85
236.28
210.03
187.19
174.59
173.30
180.58
191.42
201.70
203.93
195.83
182.12
170.01
169.11
178.02
192.99
208.33
220.16
224.33
220.77
214.66
212.14
222.59
250.53
294.31
346.94
400.38
446.11
477.51
492.31
456.53
357.89
214.75
63.82
-66.34
-164.01
-225.38
-259.62
-270.83
-261.88
-231.52
-181.32
-119.72
-58.66
-7.75
28.59
49.98
60.11
62.90
65.46
71.77
80.53
87.09
87.63
81.44
70.10
57.23
45.48
38.35
36.72
38.03
38.40
35.13
27.53
15.71
0.55
-17.74
-38.20
-60.60
-85.89
-114.58
-144.82
-171.87
-189.16
-189.94
-170.27
-130.42
-75.89
-16.85
35.86
74.63
97.28
106.77
109.32
111.28
117.14
128.57
143.74
160.50
178.20
197.26
217.13
235.24
246.68
246.23
230.51
197.13
149.03
95.00
46.35
11.86
-4.42
-4.32
7.07
23.10
32.78
28.14
7.60
-25.37
-66.34
-111.32
-158.71
-206.80
-254.38
-306.97
-368.92
-439.11
-511.53
-579.20
-635.05
-674.86
-695.33
-661.66
-564.61
-431.20
-303.97
-208.05
-150.43
-112.40
-81.39
-50.73
-17.57
12.40
34.53
50.56
67.07
90.04
122.71
163.21
209.05
258.48
306.86
351.84
395.84
443.69
496.75
550.56
594.63
619.32
619.68
594.23
545.93
482.74
415.34
352.41
298.04
250.92
208.28
167.60
125.39
76.28
15.76
-57.05
-139.37
-226.01
-310.50
-384.25
-438.57
-453.96
-420.25
-350.56
-273.76
-212.67
-174.22
-153.69
-142.11
-132.17
-120.78
-110.80
-106.32
-107.83
-111.75
-113.72
-111.21
-103.69
-92.05
-77.81
-64.08
-53.33
-45.34
-37.46
-27.32
-14.23
1.44
18.56
35.98
51.59
63.74
72.25
78.28
82.57
84.71
83.68
78.30
68.11
53.28
35.11
16.21
-0.25
-11.46
-16.83
-14.95
-4.96
13.54
40.38
74.77
114.92
157.50
197.09
226.70
239.70
231.69
202.74
158.16
107.01
59.19
21.91
-2.41
-16.16
-23.96
-30.11
-36.32
-41.50
-43.35
-40.66
-34.72
-28.98
-27.40
-31.95
-41.93
-54.52
-66.35
-75.11
-80.33
-83.27
-85.84
-89.64
-95.00
-101.64
-109.52
-118.88
-129.92
-142.05
-153.46
-161.26
-162.33
-153.85
-134.72
-106.13
-71.21
-33.99
1.44
31.51
54.49
67.08
68.48
61.93
52.93
46.05
43.36
44.53
47.62
50.54
51.57
50.26
46.81
41.38
34.04
25.04
14.89
4.10
-6.79
-17.46
-27.75
-38.01
-49.31
-62.91
-79.36
-97.63
-114.94
-127.01
-129.89
-121.54
-103.12
-78.89
-54.70
-35.64
-24.16
-21.70
-26.99
-36.97
-47.89
-56.23
-59.03
-54.09
-40.22
-17.96
9.91
39.09
64.70
82.82
91.66
91.81
85.42
75.02
62.47
48.76
34.53
20.38
7.04
-4.70
-14.20
-21.07
-24.96
-25.36
-21.72
-13.50
-0.83
15.24
32.91
50.01
64.51
75.01
80.97
82.65
81.28
78.63
76.56
76.52
79.10
83.85
89.40
93.99
95.90
94.20
89.10
82.20
76.26
74.54
79.75
92.99
113.05
136.55
159.06
176.62
187.18
190.94
189.84
186.18
181.38
175.60
167.94
157.16
142.25
122.72
98.50
69.92
37.78
3.59
-30.27
-60.99
-86.01
-103.93
-114.89
-120.37
-122.53
-123.56
-125.03
-127.63
-131.31
-135.67
-140.30
-144.81
-148.81
-151.82
-153.68
-154.34
-153.74
-151.89
-149.12
-146.25
-144.08
-143.24
-143.51
-144.54
-145.34
-144.17
-138.91
-128.29
-112.51
-92.79
-71.09
-49.02
-28.70
-11.71
1.72
12.92
23.50
34.67
47.16
60.21
72.07
78.42
74.44
57.45
28.57
-8.66
-49.85
-90.64
-128.35
-151.51
-150.54
-125.06
-84.14
-38.01
5.96
41.41
68.12
85.09
92.45
90.82
82.42
69.08
55.33
44.96
39.39
37.97
38.10
37.44
33.65
26.00
16.20
8.20
5.85
11.35
25.14
45.49
69.91
95.07
117.98
137.04
152.45
164.97
175.30
184.19
192.26
200.72
210.76
223.33
238.80
256.99
276.99
297.68
318.27
338.07
356.23
370.93
379.57
379.61
369.86
351.02
325.45
296.18
265.64
235.03
204.41
173.47
142.25
111.47
82.21
55.37
31.30
9.81
-9.53
-26.92
-42.13
-54.49
-63.29
-68.16
-69.43
-68.13
-65.76
-63.82
-63.33
-64.52
-66.92
-69.73
-72.34
-74.79
-77.92
-83.11
-91.81
-104.96
-122.61
-143.99
-167.85
-192.99
-218.75
-245.08
-272.47
-301.64
-333.32
-367.96
-405.29
-443.73
-480.03
-509.44
-526.75
-527.96
-511.88
-480.80
-439.70
-394.38
-349.42
-307.06
-267.31
-229.12
-191.87
-155.99
-122.80
-93.63
-68.94
-48.00
-29.15
-10.65
8.60
28.61
48.29
66.06
80.00
89.39
95.40
100.58
107.71
118.78
134.48
154.20
176.21
197.59
215.79
229.27
237.65
241.27
241.02
238.17
233.80
227.84
216.61
195.04
158.68
105.51
36.96
-41.18
-119.38
-186.63
-233.79
-260.42
-269.21
-262.42
-241.28
-207.99
-166.17
-120.11
-73.75
-30.01
0.69
12.89
10.00
0.64
-8.99
-17.02
-23.45
-27.82
-28.94
-40.13
-70.27
-116.40
-167.60
-215.26
-256.24
-290.51
-319.12
-343.90
-385.79
-458.35
-557.18
-665.62
-769.88
-864.78
-950.80
-1030.57
-991.31
-788.26
-477.54
-165.23
81.78
252.28
362.25
432.43
479.63
515.08
526.76
507.04
463.91
415.71
376.64
351.65
339.97
339.06
346.58
346.80
330.46
301.71
272.91
252.75
242.33
238.34
236.56
234.12
221.44
194.97
160.85
130.50
111.46
103.94
103.07
102.51
98.02
84.78
63.25
39.29
20.10
8.94
4.26
2.30
0.06
-3.18
-7.72
-12.63
-16.28
-17.34
-15.67
-12.14
-6.72
1.09
12.05
26.48
43.64
61.71
78.33
91.32
99.34
102.28
100.92
96.61
90.59
83.67
76.03
67.66
58.40
48.30
37.68
27.13
17.26
8.59
1.37
-4.48
-9.00
-12.53
-15.53
-18.45
-21.59
-25.05
-28.59
-31.77
-34.21
-35.21
-34.80
-33.50
-32.30
-32.09
-33.31
-35.69
-38.31
-40.05
-39.52
-36.36
-31.25
-25.44
-20.07
-15.41
-10.36
-2.41
7.09
18.68
32.64
48.85
66.51
83.77
97.47
103.41
97.47
77.41
45.22
6.44
-31.19
-60.48
-77.40
-82.03
-77.75
-68.97
-59.11
-49.27
-39.60
-30.62
-23.99
-22.17
-27.06
-38.53
-53.97
-68.90
-78.33
-78.89
-69.74
-52.40
-29.68
-4.25
22.36
49.92
78.84
109.27
139.91
167.87
189.18
199.88
197.37
181.29
153.71
118.63
80.94
45.12
14.24
-10.59
-30.14
-46.48
-62.07
-79.01
-98.37
-119.98
-142.66
-164.60
-183.95
-199.28
-209.78
-215.17
-215.51
-210.78
-200.92
-185.92
-166.19
-142.80
-117.49
-92.41
-69.55
-50.32
-35.11
-23.37
-13.71
-4.28
6.90
21.55
40.72
64.49
91.71
120.14
146.84
168.83
183.73
190.38
189.00
181.06
168.80
154.54
140.14
126.72
114.64
103.76
93.81
84.54
75.84
67.61
59.74
52.23
45.31
39.56
35.90
35.34
38.65
46.15
57.64
72.49
89.76
108.42
127.56
146.65
165.55
184.31
202.77
220.06
234.52
244.01
246.59
241.19
227.89
207.68
181.79
151.25
116.56
77.98
35.83
-9.25
-56.36
-104.38
-152.00
-197.55
-238.92
-273.64
-299.35
-314.30
-317.90
-310.89
-295.23
-273.69
-249.44
-225.51
-204.46
-187.91
-176.31
-168.89
-164.02
-159.81
-154.77
-148.32
-140.84
-133.20
-126.37
-120.74
-116.00
-111.06
-104.24
-93.49
-76.72
-52.45
-20.50
17.37
57.45
95.02
125.84
147.73
161.31
169.59
176.48
185.10
196.73
210.78
225.48
238.77
248.83
254.16
253.54
246.22
232.35
213.33
191.67
170.28
151.47
136.25
124.23
114.29
105.45
97.50
91.07
87.14
86.49
89.18
94.52
101.28
107.99
113.17
115.45
113.63
106.75
94.41
76.95
55.64
32.58
10.31
-8.79
-23.04
-31.88
-35.97
-36.90
-36.72
-37.31
-39.98
-45.10
-52.26
-60.35
-68.03
-74.10
-77.84
-79.15
-78.51
-76.73
-74.65
-72.88
-71.68
-70.97
-70.41
-69.58
-68.08
-65.61
-62.13
-57.83
-53.13
-48.65
-45.04
-42.89
-42.57
-44.15
-47.44
-51.93
-56.88
-61.40
-64.63
-65.82
-64.59
-60.91
-55.18
-48.21
-41.04
-34.79
-30.41
-28.40
-28.58
-30.11
-31.68
-31.90
-29.68
-24.52
-16.53
-6.38
4.98
16.57
27.45
36.91
44.44
49.81
53.08
54.55
54.59
53.33
50.38
44.64
34.71
19.56
-0.59
-23.73
-46.27
-64.04
-73.86
-74.84
-68.80
-59.59
-51.46
-47.44
-48.45
-53.41
-60.26
-67.26
-73.81
-80.61
-89.03
-100.36
-114.93
-131.56
-147.51
-158.63
-160.02
-147.08
-116.97
-69.99
-10.22
54.99
116.75
167.07
200.90
217.05
217.72
206.95
189.04
167.43
144.52
122.03
101.49
84.31
71.46
63.15
58.56
56.17
54.25
51.52
47.40
42.11
36.23
30.30
24.43
18.21
10.95
2.02
-8.66
-20.49
-32.33
-42.88
-51.25
-57.19
-61.21
-64.26
-67.33
-71.02
-75.38
-79.92
-83.74
-85.87
-85.47
-82.13
-75.94
-67.49
-57.59
-47.03
-36.31
-25.62
-15.07
-4.95
4.07
11.11
15.38
16.76
15.90
14.11
12.81
12.90
14.32
16.14
17.07
16.07
12.95
8.49
4.09
1.11
0.21
0.97
2.08
1.84
-1.06
-6.93
-14.95
-23.38
-30.19
-33.71
-33.34
-29.98
-26.22
-26.13
-34.46
-55.18
-89.82
-136.35
-188.99
-239.53
-279.60
-303.14
-307.99
-296.16
-272.55
-243.07
-212.83
-185.16
-161.55
-142.22
-126.84
-114.93
-105.96
-99.18
-93.46
-87.48
-80.06
-70.59
-59.33
-47.33
-35.96
-26.41
-19.15
-13.76
-9.22
-4.23
2.17
10.32
19.78
29.54
38.51
45.91
51.55
55.74
59.01
61.66
63.66
64.68
64.28
62.02
57.43
49.89
38.76
23.73
5.32
-14.72
-33.61
-48.09
-55.40
-53.87
-43.09
-23.60
3.51
36.71
73.96
112.42
148.61
178.90
200.42
211.79
213.42
207.31
196.28
183.18
170.29
158.98
149.85
142.85
137.62
133.62
130.20
126.66
122.31
116.59
109.21
100.26
90.21
79.77
69.53
59.72
50.13
40.20
29.38
17.40
4.33
-9.51
-23.84
-38.52
-53.51
-68.50
-82.67
-94.59
-102.51
-104.93
-101.09
-91.15
-76.12
-57.46
-36.82
-16.03
2.96
18.04
27.23
29.27
24.12
13.16
-1.20
-16.22
-29.68
-40.37
-48.06
-53.20
-56.39
-58.11
-58.67
-58.35
-57.59
-57.11
-57.86
-60.79
-66.58
-75.19
-85.80
-96.85
-106.55
-113.52
-117.23
-118.16
-117.37
-115.93
-114.35
-112.58
-110.37
-107.88
-106.00
-106.13
-109.36
-115.49
-122.53
-126.87
-124.37
-111.69
-87.24
-51.59
-7.15
42.38
92.58
138.73
176.44
202.39
215.23
216.15
208.61
197.33
186.74
179.75
177.10
177.81
179.95
181.56
181.15
177.85
171.31
161.56
149.04
134.48
118.87
103.31
88.80
75.97
64.91
55.17
45.81
35.78
24.33
11.29
-2.86
-17.16
-30.58
-42.31
-52.04
-59.94
-66.53
-72.46
-78.24
-83.92
-88.83
-91.44
-89.53
-80.70
-62.97
-35.51
1.17
45.20
93.74
143.36
190.39
231.12
262.26
281.32
287.16
280.41
263.32
239.33
212.19
185.14
160.35
138.71
120.00
103.27
87.30
71.06
54.14
36.94
20.63
6.75
-3.29
-8.74
-9.81
-7.56
-3.61
0.32
2.88
3.27
1.29
-2.77
-8.38
-14.96
-22.06
-29.42
-36.89
-44.37
-51.62
-58.23
-63.61
-67.11
-68.12
-66.33
-61.71
-54.54
-45.33
-34.64
-23.02
-10.94
1.03
12.20
21.76
28.81
32.70
33.23
30.83
26.44
21.29
16.57
13.09
11.17
10.60
10.87
11.30
11.27
10.35
8.27
5.00
0.66
-4.47
-9.89
-14.99
-19.14
-21.86
-23.10
-23.29
-23.28
-24.02
-26.19
-29.89
-34.61
-39.55
-43.99
-47.77
-51.39
-55.81
-61.99
-70.34
-80.40
-90.84
-99.85
-105.77
-107.61
-105.27
-99.48
-91.36
-82.00
-72.15
-62.07
-51.63
-40.48
-28.38
-15.54
-3.07
6.85
11.26
7.21
-7.13
-31.38
-62.71
-96.37
-126.94
-149.80
-162.13
-163.20
-154.02
-136.70
-113.94
-88.64
-63.71
-41.83
-25.14
-14.98
-11.64
-14.37
-21.55
-31.04
-40.69
-48.76
-54.29
-57.23
-58.23
-58.25
-58.07
-58.05
-58.16
-58.35
-58.70
-59.53
-61.12
-63.38
-65.72
-67.25
-67.09
-64.63
-59.55
-51.60
-40.47
-25.75
-7.24
14.70
39.08
64.44
89.27
112.43
133.26
151.43
166.58
178.17
185.49
187.93
185.37
178.38
168.07
155.85
143.01
130.54
119.05
108.93
100.56
94.26
90.18
88.09
87.28
86.60
84.74
80.66
73.81
64.45
53.53
42.38
32.25
23.73
16.45
9.13
0.01
-12.40
-28.79
-48.65
-70.45
-91.89
-110.51
-124.30
-132.27
-134.78
-133.58
-131.28
-130.44
-132.50
-137.10
-142.26
-145.27
-143.99
-137.89
-128.24
-117.56
-108.51
-102.86
-101.00
-101.93
-103.70
-103.95
-100.59
-92.16
-78.24
-59.64
-38.30
-16.85
2.00
16.14
24.37
26.40
22.40
12.58
-3.07
-24.72
-52.26
-84.86
-120.68
-156.91
-190.37
-218.09
-238.09
-249.68
-253.59
-251.61
-245.87
-238.16
-229.26
-218.73
-205.09
-186.51
-161.62
-130.21
-93.59
-54.30
-15.56
19.53
48.59
70.21
84.02
90.47
90.78
86.70
80.46
74.30
70.07
68.67
69.85
72.27
74.09
73.68
70.32
64.39
57.18
50.18
44.46
40.20
36.73
32.92
27.66
20.34
10.98
0.13
-11.38
-22.76
-33.53
-43.59
-53.29
-63.31
-74.41
-87.17
-101.56
-116.72
-130.84
-141.48
-146.13
-142.92
-131.16
-111.47
-85.51
-55.35
-22.93
10.21
42.81
73.60
101.14
123.89
140.72
151.29
156.33
157.36
156.22
154.46
152.97
151.99
151.29
150.44
149.07
146.83
143.50
138.96
133.31
126.71
119.41
111.51
102.95
93.55
83.17
71.89
60.07
48.21
36.71
25.73
15.06
4.26
-7.22
-19.99
-34.54
-51.12
-69.39
-88.14
-105.14
-117.49
-122.36
-117.85
-103.71
-81.31
-53.16
-21.97
10.05
41.42
71.16
98.29
121.64
139.90
152.14
158.20
158.87
155.62
150.13
143.74
137.15
130.52
123.69
116.55
109.23
102.03
95.28
89.14
83.46
77.80
71.56
64.13
55.10
44.35
32.09
18.88
5.52
-7.19
-18.67
-28.73
-37.68
-46.23
-55.20
-65.35
-77.15
-90.55
-104.89
-118.83
-130.32
-136.99
-136.57
-127.65
-110.06
-85.09
-55.10
-22.81
9.28
39.33
66.05
88.53
105.98
117.84
124.02
125.16
122.66
118.33
113.84
110.21
107.62
105.61
103.44
100.59
96.91
92.59
87.89
83.00
77.91
72.47
66.53
59.98
52.80
44.96
36.49
27.41
17.87
8.09
-1.63
-11.11
-20.31
-29.40
-38.69
-48.56
-59.38
-71.44
-84.67
-98.41
-111.19
-120.77
-124.66
-120.84
-108.50
-88.42
-62.73
-34.25
-5.69
20.92
44.34
63.93
79.29
90.24
96.81
99.43
98.99
96.62
93.46
90.37
87.83
86.02
84.89
84.27
83.88
83.36
82.29
80.29
77.17
72.94
67.86
62.26
56.38
50.30
43.88
36.82
28.84
19.84
9.99
-0.25
-10.19
-19.18
-26.87
-33.44
-39.72
-46.97
-56.38
-68.44
-82.34
-95.86
-105.86
-109.28
-104.24
-90.80
-70.91
-47.66
-23.94
-1.50
19.54
40.28
62.06
85.33
108.87
129.60
143.40
146.63
137.92
119.58
97.76
80.93
77.15
90.97
121.37
161.73
201.77
230.61
239.74
224.96
186.99
131.28
66.89
4.75
-44.92
-75.46
-85.97
-81.37
-70.23
-60.84
-57.61
-59.79
-62.89
-62.14
-55.43
-44.21
-32.00
-21.86
-14.65
-9.20
-3.90
1.70
6.40
8.39
6.76
2.59
-1.36
-1.85
3.29
14.16
28.88
44.41
57.64
66.48
70.39
70.30
68.14
65.87
64.61
64.27
63.76
61.69
57.21
50.40
42.24
34.02
26.84
21.15
16.73
12.95
9.06
4.53
-0.81
-6.72
-12.77
-18.53
-23.88
-29.11
-34.77
-41.44
-49.42
-58.52
-68.13
-77.48
-86.01
-93.67
-100.91
-108.50
-117.06
-126.60
-136.28
-144.53
-149.65
-150.30
-146.09
-137.59
-126.01
-112.76
-98.98
-85.49
-72.85
-61.63
-52.39
-45.58
-41.31
-39.18
-38.38
-38.03
-37.44
-36.40
-35.04
-33.65
-32.47
-31.50
-30.67
-29.87
-29.08
-28.42
-28.02
-27.99
-28.33
-28.98
-29.86
-30.97
-32.41
-34.39
-37.07
-40.50
-44.45
-48.55
-52.37
-55.66
-58.41
-60.86
-63.34
-66.10
-69.25
-72.69
-76.17
-79.36
-81.75
-82.76
-81.75
-78.22
-72.00
-63.30
-52.67
-40.82
-28.48
-16.31
-4.96
5.02
13.20
19.43
23.95
27.38
30.57
34.34
39.18
45.16
51.95
59.03
65.84
71.99
77.19
81.24
83.94
85.15
84.86
83.31
80.98
78.42
76.08
73.90
71.50
68.28
63.79
57.74
50.20
41.54
32.30
23.05
14.08
5.55
-2.47
-9.98
-17.08
-23.94
-30.73
-37.44
-43.83
-49.80
-54.98
-58.73
-60.44
-59.87
-57.34
-53.56
-49.40
-45.56
-43.53
-44.10
-47.09
-51.54
-56.33
-60.64
-63.98
-66.09
-66.83
-68.51
-72.78
-79.89
-88.79
-98.19
-107.30
-115.84
-123.67
-130.47
-139.66
-153.45
-171.93
-193.40
-216.11
-239.25
-262.62
-285.59
-306.58
-328.27
-351.37
-373.75
-391.23
-400.19
-399.40
-390.06
-374.63
-328.75
-244.97
-133.81
-18.46
80.59
154.77
205.51
238.68
258.85
273.93
284.47
290.47
293.17
294.86
297.02
299.48
299.37
294.84
286.32
272.18
253.05
231.67
211.52
194.71
181.25
169.72
158.82
148.00
134.65
117.41
96.72
74.52
52.92
33.22
15.80
0.70
-12.10
-24.01
-35.99
-48.20
-60.18
-71.35
-81.36
-90.13
-97.69
-104.23
-110.58
-117.25
-123.84
-128.87
-130.21
-126.00
-115.52
-99.51
-79.92
-59.18
-39.17
-20.71
-3.64
12.69
28.90
45.27
61.85
78.58
95.35
111.93
127.87
142.54
155.44
166.37
175.64
183.86
191.70
199.54
207.38
214.96
222.05
228.61
234.85
241.13
247.74
254.80
262.20
269.62
276.52
282.10
285.25
284.79
279.72
269.68
255.22
237.85
219.61
202.56
188.23
177.33
169.73
164.74
161.32
158.35
154.72
149.38
141.52
130.71
117.04
101.05
83.44
64.75
45.17
24.43
2.05
-22.28
-48.44
-75.79
-103.37
-130.22
-155.82
-180.20
-203.90
-227.87
-253.25
-281.09
-312.02
-345.61
-380.01
-411.88
-437.10
-451.94
-454.33
-444.60
-425.17
-399.61
-371.32
-342.76
-315.40
-290.15
-267.89
-249.58
-235.84
-226.52
-220.44
-215.65
-209.96
-201.44
-188.67
-170.83
-147.61
-119.12
-85.83
-48.30
-7.09
37.40
84.64
133.54
181.97
226.72
264.18
291.49
307.69
314.22
314.45
312.38
311.20
312.33
315.40
318.95
321.34
321.37
318.27
311.56
300.87
286.11
267.76
246.99
225.34
203.99
183.10
161.61
137.68
109.63
76.80
39.85
0.45
-39.45
-78.46
-116.15
-152.94
-189.90
-227.80
-266.51
-304.73
-340.01
-369.21
-389.12
-397.13
-391.87
-373.61
-344.02
-305.71
-261.79
-215.54
-170.21
-128.77
-93.73
-66.81
-49.05
-40.10
-38.10
-40.20
-43.38
-45.30
-44.61
-40.93
-34.58
-27.46
-21.19
-16.50
-13.31
-11.31
-10.45
-10.92
-13.01
-16.97
-25.60
-40.62
-61.79
-86.91
-113.06
-137.97
-160.29
-179.60
-196.20
-214.88
-239.10
-269.24
-302.65
-335.51
-364.51
-387.04
-400.90
-404.19
-401.03
-394.91
-387.18
-377.22
-364.42
-349.88
-335.85
-324.70
-286.18
-208.34
-100.23
13.18
108.92
177.26
219.50
241.87
250.94
252.04
243.63
224.90
198.07
167.35
138.78
115.81
99.18
87.76
80.08
70.70
56.25
37.00
16.52
-0.66
-11.48
-14.24
-11.31
-4.62
1.76
5.41
6.58
7.68
11.57
19.67
31.63
45.82
60.51
72.99
81.94
88.00
93.44
100.85
111.75
126.12
142.78
160.41
177.55
193.90
210.54
229.66
253.93
285.83
327.13
378.26
437.57
500.45
559.54
606.34
633.81
638.75
622.83
591.67
552.45
511.37
471.92
434.95
399.89
366.16
333.93
303.75
275.77
249.09
221.81
191.78
157.59
119.13
77.88
36.18
-3.76
-40.74
-74.95
-107.63
-140.21
-173.29
-206.12
-236.58
-261.76
-278.76
-285.42
-280.92
-265.97
-242.76
-214.46
-184.52
-155.78
-129.95
-107.60
-88.60
-72.85
-60.61
-52.44
-48.66
-48.80
-51.58
-55.32
-58.73
-61.49
-64.24
-68.07
-73.82
-81.57
-90.68
-100.20
-109.37
-117.98
-126.32
-134.88
-143.99
-153.64
-163.39
-172.47
-179.91
-184.74
-186.10
-183.46
-176.74
-166.55
-154.09
-141.09
-129.44
-120.87
-116.65
-117.40
-122.98
-132.28
-143.06
-152.03
-155.23
-148.97
-130.98
-101.28
-62.39
-18.53
25.64
66.45
101.94
131.76
156.50
176.69
192.50
203.70
210.23
212.53
211.60
208.66
204.69
200.14
194.93
188.75
181.39
172.87
163.46
153.54
143.40
133.15
122.69
111.89
100.50
88.27
74.80
59.82
43.24
25.34
6.69
-11.95
-29.84
-46.48
-61.71
-75.87
-89.73
-104.24
-120.44
-139.18
-160.62
-183.88
-206.71
-225.82
-237.62
-239.21
-229.03
-207.76
-178.27
-144.84
-111.76
-82.17
-57.57
-38.20
-23.56
-12.49
-4.18
1.54
4.58
5.19
4.32
3.35
3.15
4.12
6.98
11.85
18.25
25.22
31.85
37.87
43.31
48.00
52.06
57.11
64.77
75.98
90.52
107.35
125.41
143.55
160.08
164.09
147.92
110.65
59.51
4.91
-45.02
-85.68
-113.22
-128.85
-132.99
-124.40
-102.91
-70.88
-33.24
1.60
26.53
37.56
34.26
19.95
0.62
-18.03
-32.04
-39.58
-40.23
-34.07
-22.12
-7.15
7.02
16.84
19.81
15.49
5.41
-7.54
-19.83
-28.48
-31.79
-29.08
-20.45
-7.18
8.18
22.19
31.54
34.45
31.34
24.46
17.12
12.16
10.86
12.64
15.80
18.57
20.02
20.22
19.84
19.64
20.05
21.12
22.61
24.23
25.69
26.59
26.38
24.33
19.82
12.71
3.57
-6.12
-14.36
-19.12
-19.02
-13.76
-4.18
8.11
21.27
33.81
44.79
53.87
60.95
66.00
68.96
69.79
68.65
65.92
62.19
58.03
53.94
50.24
47.05
44.38
42.08
39.93
37.64
34.90
31.45
27.11
21.80
15.52
8.37
0.58
-7.43
-15.07
-21.73
-26.96
-30.61
-32.88
-34.17
-34.96
-35.65
-36.56
-37.97
-40.22
-43.65
-48.52
-54.92
-62.61
-71.06
-79.34
-86.20
-90.15
-89.73
-83.83
-72.04
-54.86
-33.62
-10.21
13.37
35.36
54.39
69.48
80.00
85.72
86.84
84.05
78.53
71.69
64.85
58.94
54.27
50.52
46.99
42.80
37.26
30.08
21.45
11.97
2.48
-6.15
-13.32
-18.75
-22.53
-25.04
-26.77
-28.29
-30.06
-32.47
-35.69
-39.70
-44.20
-48.73
-52.81
-56.11
-58.65
-60.84
-63.33
-66.78
-71.51
-77.18
-82.72
-86.55
-86.94
-82.68
-73.48
-60.31
-45.09
-30.21
-17.79
-9.14
-4.59
-3.75
-5.90
-10.39
-16.75
-24.50
-32.86
-40.60
-46.17
-48.13
-45.57
-38.44
-27.54
-14.15
0.38
15.00
29.06
42.29
54.56
65.84
76.10
85.35
93.70
101.25
108.03
113.89
118.67
122.28
124.86
126.81
128.58
130.36
131.97
132.68
131.43
127.04
118.47
105.10
86.98
64.92
40.56
16.01
-6.54
-25.32
-39.36
-48.50
-53.21
-54.31
-52.69
-49.35
-45.50
-42.58
-42.16
-45.64
-53.85
-66.87
-83.94
-103.60
-123.80
-142.19
-156.40
-164.43
-165.11
-158.40
-145.56
-128.74
-110.50
-93.11
-78.04
-65.88
-56.50
-49.46
-44.23
-40.35
-37.41
-35.02
-32.75
-30.28
-27.43
-24.23
-20.76
-17.13
-13.41
-9.75
-6.46
-4.05
-3.01
-3.49
-4.98
-6.30
-5.86
-2.29
5.06
15.77
28.57
41.82
54.20
65.13
74.84
83.99
93.16
102.41
111.25
118.95
124.91
129.05
131.75
133.62
135.11
136.22
136.57
135.63
133.13
129.22
124.42
119.35
114.37
109.40
104.04
97.79
90.41
82.05
73.08
63.92
54.72
45.32
35.32
24.37
12.31
-0.84
-14.94
-29.89
-45.76
-62.79
-81.34
-101.67
-123.70
-146.59
-168.68
-187.48
-200.31
-205.10
-201.16
-189.53
-172.52
-152.94
-133.00
-113.92
-95.99
-79.21
-63.94
-51.08
-41.88
-37.18
-36.91
-39.86
-43.95
-46.79
-46.45
-41.85
-32.96
-20.65
-6.25
8.79
23.20
36.01
46.49
54.14
58.66
59.97
58.26
53.99
47.78
40.24
31.81
22.69
12.99
2.85
-7.46
-17.55
-27.09
-36.00
-44.55
-53.39
-63.33
-75.03
-88.70
-103.74
-118.69
-131.30
-139.01
-139.63
-131.94
-116.17
-93.90
-67.54
-39.66
-12.30
13.19
36.06
55.73
71.51
82.61
88.42
88.89
84.80
77.63
69.24
61.30
54.92
50.52
47.94
46.79
46.71
47.45
48.72
50.02
50.57
49.48
46.09
40.25
32.42
23.50
14.42
5.82
-2.03
-9.21
-15.81
-21.82
-27.05
-31.22
-34.15
-35.89
-36.82
-37.61
-39.22
-42.65
-48.71
-57.60
-68.52
-79.56
-88.08
-91.40
-87.71
-76.79
-60.04
-39.90
-18.95
0.86
18.48
33.46
45.35
53.41
56.61
54.18
46.09
33.32
17.64
1.09
-14.67
-28.68
-40.70
-51.00
-59.98
-67.90
-74.77
-80.40
-84.47
-86.65
-86.63
-84.06
-78.59
-69.91
-57.96
-43.14
-26.32
-8.71
8.62
25.01
40.38
55.10
69.54
83.68
96.93
108.25
116.44
120.50
119.91
114.75
105.63
93.69
80.38
67.41
56.48
49.03
45.98
47.56
53.25
61.82
71.68
81.15
88.83
93.87
96.07
95.71
93.32
89.37
84.13
77.67
70.06
61.58
52.81
44.53
37.48
32.13
28.48
26.13
24.41
22.66
20.40
17.45
13.89
10.02
6.25
3.03
0.69
-0.56
-0.73
0.14
2.04
5.07
9.40
15.14
22.06
29.48
36.14
40.39
40.46
34.93
23.15
5.64
-15.84
-38.43
-58.77
-73.69
-80.99
-79.85
-70.90
-55.79
-36.62
-15.38
6.30
27.04
45.58
60.64
71.12
76.39
76.74
73.45
68.49
63.89
60.98
60.00
60.13
60.02
58.45
54.89
49.56
43.14
36.34
29.49
22.51
15.10
7.07
-1.43
-9.96
-17.94
-24.90
-30.67
-35.39
-39.38
-43.07
-46.84
-50.98
-55.80
-61.61
-68.81
-77.67
-88.13
-99.45
-110.07
-117.91
-120.90
-117.66
-108.07
-93.36
-75.63
-57.30
-40.40
-26.23
-15.46
-8.21
-4.33
-3.45
-5.03
-8.35
-12.60
-17.02
-20.91
-23.81
-25.51
-26.11
-25.90
-25.35
-24.85
-24.59
-24.53
-24.51
-24.43
-24.46
-25.03
-26.68
-29.85
-34.62
-40.72
-47.62
-54.72
-61.55
-67.87
-73.67
-79.11
-84.53
-90.35
-97.14
-105.45
-115.65
-127.58
-140.27
-151.99
-160.47
-163.59
-160.00
-149.61
-133.55
-113.72
-92.15
-70.48
-49.84
-30.98
-14.51
-1.10
8.66
14.49
16.64
15.95
13.62
10.85
8.57
7.26
6.98
7.59
8.88
10.74
13.18
16.21
19.83
23.90
28.15
32.22
35.68
38.18
39.44
39.35
38.01
35.66
32.70
29.51
26.31
23.12
19.65
15.39
9.75
2.19
-7.46
-18.85
-30.97
-42.23
-50.75
-54.84
-53.45
-46.37
-34.22
-18.09
0.91
21.91
44.34
67.75
91.44
114.33
135.06
152.27
165.08
173.26
177.31
178.13
176.69
173.69
169.49
164.23
158.04
151.16
143.90
136.57
129.24
121.78
113.88
105.23
95.72
85.36
74.30
62.73
50.77
38.50
26.01
13.43
1.01
-10.96
-22.23
-32.71
-42.60
-52.40
-62.79
-74.40
-87.35
-100.95
-113.56
-122.85
-126.43
-122.55
-110.69
-91.68
-67.42
-40.29
-12.49
14.25
38.70
59.96
77.37
90.45
99.06
103.61
105.00
104.46
103.18
102.06
101.48
101.39
101.47
101.30
100.45
98.48
95.01
89.73
82.58
73.89
64.26
54.48
45.16
36.52
28.28
19.87
10.70
0.46
-10.78
-22.61
-34.49
-45.91
-56.54
-66.32
-75.49
-84.56
-94.30
-105.49
-118.50
-132.92
-147.27
-159.15
-165.80
-164.95
-155.59
-138.20
-114.58
-87.14
-58.25
-29.71
-2.77
21.74
43.10
60.62
73.85
82.75
87.88
90.26
91.10
91.35
91.52
91.66
91.58
91.13
90.37
89.48
88.61
87.71
86.44
84.27
80.77
75.74
69.31
61.84
53.69
45.10
36.07
26.41
15.95
4.62
-7.40
-19.76
-32.00
-43.71
-54.67
-64.92
-74.79
-84.82
-95.59
-107.50
-120.44
-133.53
-145.12
-153.06
-155.27
-150.45
-138.50
-120.53
-98.45
-74.39
-50.10
-26.88
-5.58
13.07
28.38
39.74
46.90
50.16
50.35
48.62
46.05
43.38
40.90
38.60
36.38
34.22
32.24
30.53
29.04
27.44
25.21
21.88
17.21
11.36
4.84
-1.67
-7.64
-12.82
-17.32
-21.51
-25.69
-30.02
-34.36
-38.35
-41.66
-44.14
-46.00
-47.75
-50.14
-53.89
-59.60
-67.48
-77.15
-87.52
-96.80
-102.81
-103.54
-97.81
-85.58
-68.01
-47.03
-24.71
-2.86
17.20
34.56
48.55
58.69
64.79
67.12
66.45
63.97
60.92
58.27
56.57
55.87
55.97
56.59
57.50
58.55
59.60
60.47
60.95
60.93
60.48
59.85
59.44
59.51
60.04
60.66
60.68
59.36
56.16
50.90
43.87
35.73
27.25
19.15
11.88
5.44
-0.57
-6.84
-14.17
-23.13
-33.85
-45.75
-57.48
-67.15
-72.75
-72.75
-66.61
-54.91
-39.21
-21.52
-3.78
12.55
26.57
37.78
45.93
50.94
52.93
52.36
50.03
46.94
44.03
41.91
40.82
40.66
41.15
42.00
42.93
43.71
44.09
43.79
42.59
40.39
37.25
33.33
28.79
23.74
18.21
12.15
5.56
-1.48
-8.77
-16.07
-23.16
-29.89
-36.23
-42.31
-48.44
-54.96
-62.24
-70.36
-78.98
-87.21
-93.73
-97.06
-96.03
-90.07
-79.42
-65.00
-48.09
-30.04
-12.00
5.09
20.44
33.36
43.24
49.73
52.85
53.13
51.53
49.25
47.28
46.20
45.98
46.17
46.11
45.26
43.41
40.68
37.41
33.98
30.59
27.29
23.85
19.98
15.36
9.84
3.46
-3.47
-10.53
-17.31
-23.61
-29.44
-35.02
-40.67
-46.72
-53.46
-61.13
-69.75
-79.04
-88.16
-95.74
-100.13
-99.93
-94.38
-83.73
-69.02
-51.73
-33.26
-14.64
3.49
20.60
36.09
49.15
59.03
65.30
68.09
68.17
66.63
64.57
62.79
61.60
60.94
60.46
59.82
58.79
57.32
55.42
53.24
50.97
48.85
47.15
45.89
44.68
42.66
38.62
31.48
20.77
6.90
-8.95
-25.20
-40.40
-53.67
-64.78
-74.04
-82.13
-89.79
-97.59
-105.74
-113.78
-120.65
-124.80
-124.73
-119.44
-108.85
-93.81
-75.72
-56.18
-36.53
-17.77
-0.55
14.60
27.31
37.30
44.52
49.18
51.78
52.98
53.43
53.62
53.76
53.78
53.46
52.56
50.97
48.74
46.11
43.31
40.47
37.57
34.42
30.76
26.35
21.10
15.09
8.53
1.72
-5.08
-11.68
-18.05
-24.27
-30.53
-37.06
-44.15
-52.09
-61.03
-70.88
-81.13
-90.73
-98.21
-101.93
-100.56
-93.48
-80.88
-63.75
-43.48
-21.47
1.13
23.45
44.75
64.28
81.30
95.27
106.09
114.29
120.88
127.05
133.70
141.25
149.54
158.16
166.65
174.82
182.76
190.81
199.34
208.47
217.70
225.66
230.18
228.64
218.81
199.58
171.41
136.16
96.45
54.72
12.57
-29.42
-71.54
-114.45
-158.81
-204.89
-252.29
-299.63
-344.49
-383.55
-413.17
-430.13
-432.24
-418.76
-390.33
-348.79
-296.93
-238.34
-177.21
-118.02
-64.93
-21.08
12.02
34.64
48.50
56.11
60.00
62.11
63.61
64.91
66.04
66.90
67.42
67.55
67.23
66.23
64.30
61.21
56.88
51.47
45.28
38.63
31.71
24.59
17.14
9.22
0.74
-8.19
-17.23
-25.91
-33.70
-40.24
-45.46
-49.65
-53.39
-57.39
-62.26
-68.37
-75.62
-83.42
-90.68
-95.93
-97.70
-94.84
-86.85
-74.05
-57.44
-38.47
-18.70
0.44
17.79
32.45
43.86
51.83
56.53
58.51
58.53
57.45
55.99
54.67
53.77
53.30
53.06
52.64
51.64
49.78
47.08
43.88
40.69
37.92
35.66
33.57
30.98
27.24
21.99
15.32
7.74
-0.13
-7.81
-15.12
-22.06
-28.67
-34.85
-40.42
-45.32
-49.76
-54.17
-58.87
-63.65
-67.51
-68.89
-66.11
-58.15
-45.01
-27.80
-8.29
11.61
30.36
46.94
60.77
71.57
79.17
83.57
85.04
84.23
82.02
79.33
76.78
74.46
72.03
68.93
64.76
59.56
53.88
48.48
44.03
40.77
38.42
36.36
33.90
30.56
26.18
20.78
14.51
7.51
-0.06
-7.93
-15.67
-22.84
-29.19
-34.84
-40.33
-46.50
-54.15
-63.67
-74.81
-86.64
-97.70
-106.31
-110.89
-110.36
-104.34
-93.19
-77.90
-59.87
-40.64
-21.59
-3.84
11.88
25.17
35.95
44.35
50.65
55.13
58.00
59.35
59.20
57.68
55.11
52.01
49.01
46.57
44.84
43.53
42.02
39.64
35.93
30.80
24.51
17.49
10.09
2.49
-5.25
-13.12
-21.00
-28.64
-35.79
-42.21
-47.72
-52.20
-55.58
-57.84
-59.18
-60.07
-61.12
-62.86
-65.36
-67.99
-69.54
-68.55
-63.80
-54.81
-41.89
-26.02
-8.37
9.97
28.17
45.57
61.45
74.92
85.08
91.34
93.75
93.13
90.83
88.26
86.36
85.38
84.89
84.14
82.45
79.43
75.07
69.53
63.06
55.82
48.01
39.84
31.60
23.58
15.93
8.59
1.37
-5.93
-13.33
-20.68
-27.69
-34.13
-40.02
-45.66
-51.57
-58.27
-66.15
-75.18
-84.89
-94.23
-101.74
-105.78
-105.03
-98.90
-87.78
-72.93
-55.91
-38.14
-20.45
-3.17
13.53
29.26
43.25
54.54
62.29
66.21
66.71
64.71
61.39
57.86
54.93
53.05
52.31
52.56
53.36
54.19
54.44
53.60
51.34
47.58
42.50
36.45
29.86
23.15
16.66
10.63
5.15
0.21
-4.26
-8.36
-12.16
-15.77
-19.35
-23.30
-28.16
-34.53
-42.74
-52.55
-62.93
-72.20
-78.45
-80.06
-76.21
-67.11
-53.84
-37.96
-21.02
-4.22
11.65
26.12
38.82
49.38
57.44
62.87
65.81
66.79
66.53
65.84
65.33
65.31
65.81
66.55
67.11
66.97
65.67
62.90
58.58
52.93
46.38
39.46
32.66
26.23
20.19
14.39
8.67
2.95
-2.68
-8.09
-13.15
-17.87
-22.43
-27.06
-32.02
-37.60
-44.09
-51.70
-60.39
-69.57
-78.10
-84.35
-86.74
-84.35
-77.30
-66.68
-54.02
-40.71
-27.54
-14.72
-2.27
9.54
20.12
28.76
35.06
39.18
41.81
43.76
45.60
47.47
49.11
50.17
50.48
50.09
49.14
47.74
45.82
43.25
39.94
35.91
31.32
26.35
21.10
15.60
9.80
3.71
-2.54
-8.84
-15.15
-21.53
-28.14
-35.01
-41.94
-48.53
-54.48
-59.80
-65.00
-70.84
-77.84
-85.78
-93.49
-99.11
-100.65
-96.76
-87.13
-72.58
-54.64
-35.08
-15.48
2.97
19.45
33.41
44.52
52.63
57.85
60.63
61.69
61.89
62.08
62.80
64.21
66.08
67.93
69.29
69.84
69.53
68.54
67.14
65.54
63.81
61.87
59.63
56.99
53.94
50.53
46.78
42.65
38.06
32.95
27.36
21.48
15.54
9.65
3.70
-2.71
-10.16
-19.06
-29.45
-40.71
-51.63
-60.58
-66.00
-66.80
-62.67
-54.19
-42.56
-29.29
-15.80
-3.25
7.56
16.07
21.94
25.07
25.75
24.59
22.43
20.01
17.72
15.48
12.94
9.71
5.60
0.74
-4.60
-10.16
-15.86
-21.72
-27.80
-34.03
-40.28
-46.42
-52.38
-58.28
-64.22
-70.21
-76.06
-81.35
-85.58
-88.32
-89.34
-88.71
-86.75
-83.96
-80.94
-78.26
-76.40
-75.59
-75.72
-76.25
-76.22
-74.40
-69.65
-61.24
-49.15
-34.08
-17.20
0.21
17.14
32.87
46.90
58.74
67.89
73.93
76.89
77.40
76.57
75.60
75.31
75.82
76.63
76.92
76.11
74.08
71.18
67.93
64.79
61.88
59.09
56.22
53.15
49.89
46.52
42.98
39.01
34.19
28.11
20.65
12.03
2.75
-6.65
-15.82
-24.74
-33.68
-43.05
-53.16
-64.04
-75.36
-86.28
-95.61
-101.91
-103.84
-100.51
-91.81
-78.52
-62.13
-44.42
-27.01
-11.15
2.43
13.29
21.22
26.18
28.39
28.44
27.18
25.62
24.54
24.34
24.91
25.83
26.56
26.71
26.18
25.10
23.74
22.25
20.66
18.82
16.60
13.90
10.74
7.21
3.32
-1.01
-5.93
-11.53
-17.76
-24.38
-31.11
-37.82
-44.60
-51.79
-59.73
-68.49
-77.60
-86.05
-92.42
-95.20
-93.28
-86.22
-74.37
-58.78
-40.98
-22.59
-5.10
10.31
22.81
31.94
37.63
40.18
40.29
38.91
37.08
35.63
35.05
35.32
36.07
36.75
36.89
36.31
35.12
33.66
32.32
31.30
30.47
29.38
27.41
24.02
18.97
12.46
5.06
-2.50
-9.68
-16.30
-22.60
-29.13
-36.48
-45.13
-55.32
-66.99
-79.71
-92.64
-104.42
-113.37
-117.84
-116.67
-109.63
-97.57
-82.09
-65.14
-48.44
-33.19
-20.05
-9.29
-0.98
4.92
8.57
10.35
10.76
10.38
9.69
9.04
8.58
8.35
8.30
8.36
8.51
8.72
8.99
9.25
9.31
8.92
7.83
5.96
3.47
0.80
-1.52
-3.09
-3.81
-3.99
-4.17
-4.92
-6.72
-9.91
-14.75
-21.50
-30.37
-41.29
-53.68
-66.26
-77.19
-84.50
-86.62
-82.87
-73.58
-59.88
-43.14
-24.61
-5.21
14.41
33.52
51.20
66.29
77.75
85.03
88.30
88.47
86.90
84.96
83.61
83.18
83.36
83.44
82.63
80.40
76.63
71.58
65.74
59.58
53.38
47.22
41.11
35.01
28.98
23.09
17.34
11.55
5.41
-1.47
-9.37
-18.42
-28.57
-39.78
-52.07
-65.52
-80.13
-95.44
-110.44
-123.53
-132.87
-136.91
-134.77
-126.54
-112.99
-95.33
-74.75
-52.29
-28.85
-5.39
16.96
37.01
53.74
66.65
75.81
81.82
85.53
87.78
89.15
89.96
90.32
90.23
89.62
88.42
86.54
83.85
80.26
75.78
70.48
64.57
58.23
51.64
44.96
38.36
32.13
26.62
22.16
18.88
16.61
14.73
12.37
8.60
2.68
-5.69
-16.19
-27.89
-39.29
-48.52
-53.68
-53.31
-46.70
-34.09
-16.59
4.16
26.45
48.79
69.99
89.10
105.16
117.32
124.91
127.81
126.61
122.45
116.66
110.27
103.62
96.44
88.16
78.36
67.17
55.22
43.39
32.38
22.53
13.72
5.61
-2.14
-9.78
-17.38
-24.90
-32.09
-38.42
-43.17
-45.76
-46.25
-45.52
-44.98
-45.77
-48.00
-50.60
-51.84
-50.34
-45.81
-38.98
-30.73
-21.12
-9.06
7.13
28.62
55.26
85.59
117.48
148.94
178.38
204.26
224.49
236.42
237.49
226.41
203.94
172.85
137.06
100.54
66.46
37.13
14.21
-1.03
-7.85
-6.41
1.88
14.40
27.90
39.24
46.19
47.74
44.00
35.80
24.31
10.64
-4.25
-19.75
-35.62
-52.05
-69.53
-88.52
-109.24
-131.45
-154.58
-178.12
-201.92
-226.40
-252.25
-279.87
-308.67
-336.72
-360.86
-377.31
-382.58
-374.31
-351.83
-316.45
-271.24
-220.57
-169.30
-121.93
-81.84
-50.90
-29.31
-15.93
-8.69
-5.05
-2.36
1.82
9.49
21.87
39.04
59.85
82.05
102.77
119.25
129.61
133.45
132.11
128.39
125.84
127.83
136.57
152.49
174.13
198.75
223.27
245.26
263.43
277.58
288.15
295.70
300.78
304.06
306.26
308.00
309.30
308.99
304.70
293.79
274.44
246.64
212.34
174.87
137.89
104.44
76.30
53.59
34.81
17.16
-2.56
-26.80
-56.22
-89.36
-123.17
-154.24
-180.20
-200.34
-215.39
-226.61
-234.87
-240.09
-241.63
-238.97
-232.40
-223.31
-214.01
-207.15
-204.77
-207.61
-214.97
-225.14
-236.28
-247.24
-257.87
-268.67
-280.06
-291.79
-302.87
-311.86
-317.53
-319.24
-317.06
-311.57
-303.63
-294.19
-284.13
-274.26
-265.22
-257.35
-250.60
-244.35
-237.36
-227.83
-213.74
-193.38
-165.94
-131.88
-92.92
-51.56
-10.35
28.80
64.94
98.02
128.61
157.49
185.27
212.15
237.76
261.15
280.89
295.54
304.11
306.47
303.41
296.36
286.87
276.14
264.93
253.75
243.21
234.29
228.21
226.04
228.19
234.09
242.20
250.37
256.43
258.66
256.03
248.17
235.19
217.44
195.32
169.08
138.67
103.67
63.38
17.25
-34.40
-89.71
-144.92
-194.76
-233.61
-257.01
-262.97
-252.58
-229.69
-199.86
-169.01
-142.29
-123.33
-113.90
-113.84
-121.16
-132.37
-143.14
-149.24
-147.68
-137.42
-119.71
-97.61
-75.04
-55.61
-41.64
-33.62
-30.28
-29.28
-28.06
-24.87
-19.50
-13.30
-8.68
-8.12
-13.13
-23.59
-37.87
-53.42
-67.75
-79.21
-87.25
-92.27
-95.21
-97.18
-99.14
-101.77
-105.34
-109.56
-113.53
-115.75
-114.55
-108.63
-97.68
-82.55
-64.94
-46.69
-29.10
-12.63
2.90
17.72
31.61
43.86
53.53
60.11
63.83
65.64
66.69
67.85
69.28
70.63
71.39
71.38
70.86
70.33
70.17
70.26
69.97
68.48
65.20
60.14
53.89
47.28
41.03
35.37
30.04
24.56
18.59
12.06
5.26
-1.45
-7.89
-14.15
-20.61
-27.74
-35.88
-45.09
-54.92
-64.40
-72.21
-76.87
-77.16
-72.44
-62.89
-49.37
-33.14
-15.48
2.54
20.15
36.69
51.55
64.15
74.06
81.16
85.70
88.20
89.25
89.36
88.87
87.93
86.61
84.87
82.71
80.09
77.02
73.56
69.83
65.98
62.13
58.34
54.56
50.68
46.56
42.18
37.64
33.15
28.97
25.28
22.06
19.07
15.81
11.66
6.03
-1.47
-10.86
-21.72
-33.17
-43.96
-52.65
-57.95
-58.93
-55.37
-47.64
-36.69
-23.70
-9.81
4.06
17.28
29.41
40.14
49.21
56.44
61.79
65.39
67.57
68.77
69.44
69.90
70.28
70.44
70.13
69.08
67.14
64.40
61.01
57.18
52.96
48.26
42.96
37.01
30.52
23.79
17.18
10.94
5.20
-0.14
-5.22
-10.19
-15.10
-20.03
-25.06
-30.41
-36.32
-42.90
-49.93
-56.63
-61.77
-63.89
-61.79
-54.89
-43.44
-28.49
-11.48
6.13
23.12
38.63
52.04
62.89
70.86
75.86
78.15
78.30
77.08
75.24
73.31
71.54
69.91
68.30
66.59
64.71
62.63
60.35
57.84
55.09
52.07
48.73
44.98
40.69
35.76
30.14
23.94
17.39
10.76
4.22
-2.16
-8.38
-14.52
-20.59
-26.59
-32.58
-38.72
-45.20
-52.09
-59.05
-65.24
-69.37
-70.15
-66.69
-58.88
-47.41
-33.52
-18.59
-3.84
9.86
21.87
31.71
38.95
43.39
45.10
44.54
42.46
39.69
36.92
34.47
32.43
30.66
29.05
27.51
26.03
24.58
23.00
21.10
18.66
15.58
11.93
7.86
3.51
-1.09
-6.00
-11.28
-16.86
-22.50
-27.84
-32.56
-36.57
-40.00
-43.20
-46.55
-50.37
-54.81
-59.87
-65.28
-70.50
-74.66
-76.70
-75.61
-70.72
-61.98
-49.94
-35.71
-20.58
-5.78
7.73
19.31
28.60
35.45
39.87
42.03
42.26
40.99
38.71
35.92
33.06
30.45
28.25
26.45
24.88
23.27
21.39
19.12
16.45
13.51
10.41
7.24
4.01
0.67
-2.78
-6.34
-9.94
-13.51
-17.00
-20.39
-23.69
-26.97
-30.30
-33.81
-37.68
-42.08
-47.20
-53.08
-59.51
-65.89
-71.25
-74.38
-74.20
-70.08
-62.05
-50.86
-37.65
-23.72
-10.15
2.22
12.79
21.13
26.96
30.24
31.25
30.53
28.83
26.80
24.93
23.39
22.16
21.10
20.02
18.73
17.13
15.20
13.04
10.85
8.84
7.14
5.68
4.28
2.71
0.85
-1.26
-3.46
-5.62
-7.70
-9.82
-12.13
-14.80
-17.88
-21.34
-25.14
-29.28
-33.75
-38.39
-42.78
-46.15
-47.55
-46.10
-41.40
-33.65
-23.64
-12.45
-1.18
9.37
18.69
26.44
32.38
36.31
38.15
38.12
36.79
34.91
33.21
32.15
31.80
31.90
32.05
31.89
31.17
29.81
27.86
25.47
22.82
20.08
17.41
14.86
12.43
10.04
7.59
5.00
2.26
-0.61
-3.51
-6.42
-9.36
-12.51
-16.19
-20.66
-26.08
-32.22
-38.42
-43.65
-46.82
-47.05
-44.01
-38.01
-29.80
-20.40
-10.74
-1.51
6.83
14.00
19.78
24.04
26.74
28.06
28.32
28.02
27.61
27.41
27.49
27.74
27.90
27.74
27.05
25.77
23.92
21.60
18.95
16.06
12.96
9.62
5.95
1.92
-2.43
-6.95
-11.44
-15.81
-20.08
-24.41
-28.99
-33.94
-39.26
-44.96
-51.03
-57.47
-64.15
-70.61
-76.02
-79.33
-79.56
-76.21
-69.35
-59.65
-48.05
-35.46
-22.56
-9.81
2.41
13.68
23.47
31.30
36.90
40.37
42.14
42.86
43.16
43.46
43.91
44.40
44.68
44.48
43.64
42.05
39.75
36.81
33.38
29.60
25.56
21.24
16.58
11.50
6.04
0.34
-5.38
-10.92
-16.13
-21.05
-25.80
-30.56
-35.44
-40.45
-45.41
-49.86
-53.14
-54.40
-52.89
-48.11
-40.02
-29.04
-15.89
-1.44
13.44
27.88
41.01
51.92
59.88
64.50
65.96
64.87
62.18
58.79
55.38
52.29
49.60
47.22
44.94
42.54
39.72
36.18
31.74
26.37
20.22
13.51
6.45
-0.83
-8.25
-15.76
-23.25
-30.62
-37.81
-44.89
-52.03
-59.41
-67.09
-75.02
-82.95
-90.62
-97.74
-104.00
-108.99
-112.13
-112.67
-109.83
-103.05
-92.20
-77.63
-60.19
-41.07
-21.65
-3.32
12.60
25.05
33.36
37.44
37.78
35.37
31.43
27.13
23.29
20.31
18.22
16.72
15.46
14.10
12.36
10.11
7.27
3.85
-0.11
-4.49
-9.18
-14.02
-18.95
-23.89
-28.80
-33.64
-38.31
-42.74
-46.88
-50.82
-54.78
-58.99
-63.58
-68.33
-72.61
-75.43
-75.68
-72.42
-65.20
-54.14
-39.91
-23.51
-6.10
11.11
27.00
40.61
51.21
58.44
62.38
63.55
62.77
60.94
58.82
56.85
55.12
53.45
51.55
49.19
46.29
42.89
39.17
35.28
31.35
27.41
23.44
19.41
15.22
10.76
5.88
0.39
-5.88
-13.00
-20.94
-29.60
-38.82
-48.35
-57.82
-66.57
-73.73
-78.29
-79.37
-76.45
-69.54
-59.14
-46.09
-31.33
-15.73
-0.05
15.00
28.78
40.60
49.89
56.31
59.88
61.00
60.37
58.77
56.91
55.20
53.76
52.41
50.88
48.92
46.43
43.43
39.98
36.05
31.51
26.27
20.34
13.93
7.45
1.30
-4.30
-9.38
-14.27
-19.34
-24.90
-31.08
-37.88
-45.16
-52.71
-60.06
-66.38
-70.53
-71.30
-67.85
-60.10
-48.80
-35.29
-20.95
-6.74
7.00
20.34
33.29
45.52
56.19
64.33
69.24
70.89
69.91
67.35
64.20
61.04
58.04
55.10
52.04
48.86
45.68
42.63
39.70
36.72
33.31
29.12
23.90
17.65
10.64
3.34
-3.73
-10.12
-15.58
-20.12
-24.02
-27.69
-31.57
-36.03
-41.25
-47.15
-53.38
-59.22
-63.68
-65.64
-64.09
-58.44
-48.65
-35.31
-19.48
-2.45
14.57
30.59
44.85
56.81
66.03
72.22
75.30
75.51
73.44
69.97
66.06
62.45
59.52
57.20
55.15
52.92
50.21
46.92
43.17
39.13
34.89
30.39
25.45
19.94
13.88
7.48
1.11
-4.86
-10.21
-14.96
-19.33
-23.68
-28.34
-33.58
-39.54
-46.21
-53.38
-60.55
-66.88
-71.21
-72.31
-69.25
-61.66
-49.96
-35.22
-18.89
-2.44
12.97
26.55
37.81
46.47
52.38
55.52
56.06
54.45
51.33
47.48
43.58
40.09
37.11
34.49
31.90
29.03
25.74
22.11
18.37
14.72
11.31
8.08
4.87
1.50
-2.15
-6.05
-10.04
-13.93
-17.55
-20.81
-23.77
-26.61
-29.55
-32.84
-36.65
-41.07
-45.99
-51.04
-55.54
-58.55
-59.07
-56.31
-49.93
-40.18
-27.90
-14.21
-0.31
12.83
24.48
34.20
41.68
46.76
49.41
49.82
48.43
45.86
42.78
39.79
37.25
35.22
33.51
31.83
29.92
27.68
25.19
22.58
19.94
17.24
14.35
11.10
7.43
3.44
-0.64
-4.54
-8.09
-11.24
-14.08
-16.72
-19.25
-21.75
-24.31
-27.07
-30.28
-34.16
-38.80
-44.00
-49.17
-53.39
-55.62
-54.99
-51.03
-43.86
-34.05
-22.51
-10.15
2.20
13.88
24.32
33.00
39.49
43.57
45.31
45.16
43.74
41.74
39.64
37.68
35.85
34.04
32.12
30.02
27.73
25.26
22.62
19.79
16.78
13.60
10.29
6.89
3.47
0.07
-3.27
-6.57
-9.84
-13.07
-16.24
-19.27
-22.07
-24.59
-26.96
-29.45
-32.43
-36.23
-40.92
-46.12
-51.06
-54.68
-55.95
-54.20
-49.28
-41.59
-31.86
-20.87
-9.37
2.00
12.60
21.77
28.89
33.54
35.69
35.74
34.39
32.43
30.48
28.81
27.44
26.16
24.78
23.18
21.32
19.29
17.16
14.97
12.75
10.42
7.94
5.25
2.30
-0.88
-4.23
-7.68
-11.11
-14.45
-17.70
-20.90
-24.12
-27.42
-30.87
-34.55
-38.57
-42.99
-47.74
-52.46
-56.43
-58.70
-58.33
-54.71
-47.76
-37.99
-26.30
-13.71
-1.24
10.35
20.44
28.66
34.80
38.83
40.96
41.54
41.09
40.10
39.01
38.06
37.32
36.66
35.83
34.59
32.76
30.29
27.28
23.88
20.26
16.53
12.75
8.93
5.04
1.07
-2.98
-7.06
-11.08
-14.97
-18.69
-22.26
-25.79
-29.47
-33.54
-38.22
-43.60
-49.57
-55.77
-61.53
-66.01
-68.25
-67.51
-63.38
-55.94
-45.78
-33.82
-21.10
-8.52
3.28
13.87
22.96
30.27
35.52
38.60
39.65
39.13
37.70
35.94
34.24
32.66
31.02
29.15
26.91
24.35
21.56
18.63
15.58
12.37
8.96
5.30
1.37
-2.82
-7.20
-11.62
-15.92
-19.95
-23.72
-27.33
-30.95
-34.72
-38.73
-42.98
-47.47
-52.34
-57.73
-63.76
-70.24
-76.60
-81.85
-84.83
-84.53
-80.35
-72.28
-60.86
-47.03
-31.93
-16.71
-2.42
10.07
20.22
27.87
33.38
37.53
41.36
45.86
51.70
58.95
67.07
75.01
81.42
85.19
85.65
82.85
77.44
70.43
62.84
55.50
48.95
43.46
39.14
35.85
33.16
30.40
26.76
21.58
14.66
6.35
-2.65
-11.56
-19.83
-27.36
-34.40
-41.41
-48.82
-56.83
-65.24
-73.42
-80.35
-84.80
-85.66
-82.25
-74.55
-63.18
-49.26
-34.06
-18.80
-4.46
8.26
18.91
27.25
33.23
36.99
38.85
39.16
38.35
36.81
34.96
33.21
31.93
31.32
31.37
31.85
32.31
32.28
31.30
29.13
25.71
21.20
15.93
10.37
4.94
-0.07
-4.58
-8.72
-12.71
-16.81
-21.15
-25.83
-30.81
-36.05
-41.44
-46.88
-52.37
-57.98
-63.88
-70.10
-76.31
-81.65
-84.86
-84.65
-80.11
-71.17
-58.53
-43.46
-27.29
-11.11
4.33
18.52
30.99
41.25
48.87
53.68
55.90
56.10
55.07
53.52
51.95
50.55
49.27
47.98
46.58
45.04
43.36
41.50
39.38
36.88
33.93
30.56
26.92
23.25
19.73
16.46
13.35
10.20
6.77
2.85
-1.56
-6.37
-11.29
-16.03
-20.35
-24.15
-27.51
-30.69
-34.01
-37.68
-41.61
-45.21
-47.41
-46.87
-42.28
-32.93
-18.90
-1.18
18.76
39.29
59.12
77.49
94.05
108.76
121.68
132.92
142.57
150.65
156.93
160.79
161.22
157.02
147.34
132.15
112.58
90.64
68.70
48.74
31.83
18.11
7.11
-1.74
-8.79
-14.19
-18.09
-20.93
-23.44
-26.42
-30.44
-35.62
-41.69
-48.28
-55.16
-62.41
-70.24
-78.87
-88.29
-98.26
-108.43
-118.40
-127.77
-136.09
-142.66
-146.62
-147.00
-143.07
-134.61
-122.07
-106.49
-89.34
-72.13
-56.18
-42.49
-31.63
-23.91
-19.32
-17.63
-18.38
-20.87
-24.21
-27.46
-29.85
-30.89
-30.58
-29.20
-27.26
-25.14
-23.04
-20.90
-18.55
-15.87
-12.86
-9.67
-6.53
-3.64
-1.16
0.79
2.06
2.51
1.97
0.41
-2.06
-5.17
-8.57
-11.94
-15.21
-18.53
-22.35
-27.19
-33.41
-40.97
-49.17
-56.77
-62.16
-63.82
-60.70
-52.48
-39.64
-23.28
-4.82
14.34
32.96
50.06
64.94
77.10
86.22
92.19
95.12
95.42
93.72
90.75
87.26
83.76
80.49
77.42
74.31
70.94
67.15
62.95
58.45
53.78
49.04
44.28
39.48
34.66
29.86
25.07
20.30
15.47
10.55
5.53
0.52
-4.31
-8.81
-12.93
-16.75
-20.58
-24.80
-29.80
-35.82
-42.64
-49.42
-54.66
-56.51
-53.36
-44.49
-30.52
-13.26
4.90
21.78
36.01
47.09
55.09
60.23
62.74
62.99
61.72
59.98
58.79
58.72
59.53
60.31
60.02
58.03
54.43
49.88
45.25
41.07
37.43
34.01
30.33
26.07
21.16
15.70
9.91
3.91
-2.27
-8.63
-15.19
-21.89
-28.63
-35.25
-41.64
-47.72
-53.46
-58.92
-64.21
-69.56
-75.24
-81.44
-88.15
-94.90
-100.80
-104.59
-104.98
-101.04
-92.44
-79.56
-63.41
-45.26
-26.40
-7.91
9.46
25.17
38.87
50.28
59.20
65.57
69.48
71.26
71.45
70.74
69.81
69.19
69.14
69.65
70.46
71.23
71.58
71.11
69.36
65.81
60.07
52.01
42.06
31.10
20.31
10.74
2.97
-3.05
-7.88
-12.28
-16.91
-22.06
-27.70
-33.54
-39.36
-45.10
-50.98
-57.43
-64.92
-73.66
-83.37
-93.17
-101.68
-107.30
-108.67
-105.06
-96.59
-84.12
-69.00
-52.64
-36.26
-20.78
-6.80
5.20
14.83
21.86
26.31
28.46
28.88
28.21
27.04
25.80
24.69
23.78
23.03
22.41
21.85
21.34
20.87
20.42
19.92
19.24
18.22
16.76
14.91
12.84
10.85
9.12
7.65
6.19
4.34
1.78
-1.58
-5.56
-9.82
-14.02
-18.05
-22.06
-26.42
-31.57
-37.81
-45.10
-52.93
-60.28
-65.75
-67.90
-65.63
-58.49
-46.86
-31.85
-14.98
2.16
18.27
32.42
44.04
52.83
58.70
61.77
62.43
61.32
59.21
56.81
54.66
52.97
51.66
50.51
49.24
47.66
45.70
43.40
40.85
38.18
35.46
32.75
30.00
27.13
24.03
20.58
16.72
12.43
7.74
2.69
-2.65
-8.13
-13.59
-18.84
-23.71
-28.14
-32.24
-36.26
-40.53
-45.39
-50.97
-57.16
-63.49
-69.11
-72.96
-73.95
-71.26
-64.59
-54.30
-41.38
-27.16
-12.98
0.07
11.34
20.53
27.53
32.34
35.02
35.79
35.12
33.71
32.33
31.59
31.74
32.63
33.88
35.04
35.73
35.74
34.94
33.26
30.71
27.39
23.59
19.71
16.14
13.11
10.59
8.38
6.29
4.34
2.71
1.76
1.76
2.69
4.20
5.62
6.14
5.00
1.73
-3.79
-11.26
-19.96
-28.86
-36.67
-42.08
-44.04
-41.96
-35.90
-26.51
-14.81
-1.89
11.31
24.12
36.02
46.62
55.52
62.42
67.20
70.02
71.31
71.68
71.79
72.26
73.51
75.60
78.08
79.91
79.63
75.76
67.41
54.67
38.64
21.06
3.70
-12.13
-25.83
-37.29
-46.64
-53.95
-59.21
-62.49
-64.11
-64.70
-64.99
-65.63
-67.04
-69.37
-72.68
-76.86
-81.68
-86.56
-90.56
-92.50
-91.27
-86.20
-77.22
-64.82
-49.87
-33.31
-16.06
0.97
16.73
30.17
40.42
47.04
50.22
50.60
49.00
46.09
42.38
38.26
34.27
31.16
29.68
30.26
32.83
36.75
41.01
44.62
46.81
47.18
45.64
42.26
37.25
30.86
23.49
15.54
7.47
-0.32
-7.53
-14.02
-19.81
-25.13
-30.33
-35.84
-42.04
-49.21
-57.38
-66.39
-75.75
-84.66
-91.97
-96.37
-96.68
-92.17
-82.89
-69.60
-53.56
-36.14
-18.48
-1.44
14.33
28.19
39.51
47.80
52.88
55.06
55.08
53.87
52.18
50.44
48.69
46.77
44.48
41.74
38.57
35.07
31.31
27.30
23.03
18.52
13.81
8.93
3.92
-1.22
-6.48
-11.78
-17.02
-22.05
-26.76
-31.18
-35.47
-39.86
-44.57
-49.70
-55.22
-61.07
-67.16
-73.41
-79.58
-85.19
-89.36
-90.97
-88.92
-82.54
-71.80
-57.40
-40.41
-22.03
-3.26
15.10
32.39
47.87
60.76
70.36
76.33
78.86
78.67
76.78
74.22
71.70
69.52
67.61
65.73
63.64
61.23
58.44
55.26
51.57
47.19
42.00
36.01
29.44
22.63
15.88
9.35
2.97
-3.43
-10.02
-16.84
-23.80
-30.71
-37.41
-43.83
-50.02
-56.13
-62.43
-69.24
-76.79
-85.06
-93.53
-101.13
-106.39
-107.83
-104.43
-95.96
-83.11
-67.19
-49.71
-32.03
-15.18
0.13
13.34
23.98
31.75
36.59
38.86
39.27
38.72
37.98
37.59
37.65
38.00
38.35
38.41
38.07
37.42
36.64
35.90
35.26
34.61
33.69
32.29
30.26
27.63
24.50
20.97
17.04
12.69
7.86
2.65
-2.74
-8.04
-13.03
-17.69
-22.18
-26.83
-31.97
-37.91
-44.72
-52.16
-59.62
-66.04
-70.14
-70.66
-66.80
-58.45
-46.27
-31.50
-15.61
0.11
14.72
27.62
38.40
46.77
52.47
55.49
56.09
54.89
52.67
50.17
47.83
45.76
43.89
42.08
40.36
38.86
37.76
37.11
36.77
36.44
35.78
34.55
32.72
30.41
27.91
25.46
23.17
20.97
18.62
15.87
12.50
8.49
4.00
-0.75
-5.56
-10.39
-15.39
-20.79
-26.84
-33.70
-41.37
-49.60
-57.85
-65.23
-70.62
-72.81
-70.91
-64.55
-54.10
-40.53
-25.16
-9.31
5.89
19.59
31.17
40.20
46.46
50.05
51.38
51.13
50.02
48.65
47.37
46.28
45.34
44.55
43.91
43.47
43.21
42.98
42.57
41.70
40.17
37.88
34.88
31.37
27.59
23.85
20.39
17.34
14.67
12.13
9.38
6.07
2.01
-2.80
-8.11
-13.62
-19.06
-24.37
-29.74
-35.54
-42.15
-49.62
-57.48
-64.69
-69.81
-71.50
-68.87
-61.84
-51.14
-38.01
-23.80
-9.74
3.30
14.59
23.60
29.86
33.14
33.60
31.81
28.74
25.41
22.64
20.81
19.86
19.41
19.02
18.33
17.20
15.64
13.77
11.71
9.59
7.50
5.46
3.46
1.44
-0.71
-3.10
-5.79
-8.85
-12.24
-15.91
-19.69
-23.40
-26.80
-29.73
-32.15
-34.24
-36.36
-38.98
-42.56
-47.32
-53.11
-59.31
-64.87
-68.49
-68.93
-65.41
-57.81
-46.71
-33.23
-18.65
-4.20
9.17
20.73
30.01
36.71
40.82
42.60
42.61
41.58
40.14
38.74
37.51
36.39
35.24
33.91
32.33
30.44
28.21
25.67
22.89
19.98
17.07
14.24
11.40
8.25
4.46
-0.24
-5.80
-11.86
-17.96
-23.56
-28.28
-32.12
-35.52
-39.11
-43.46
-48.89
-55.35
-62.62
-70.15
-77.05
-82.27
-84.88
-84.10
-79.49
-71.11
-59.51
-45.68
-30.38
-13.71
4.72
25.16
47.33
70.00
91.00
107.79
116.87
115.45
103.48
84.15
62.22
41.86
25.54
13.83
7.61
8.00
15.83
30.80
51.40
74.03
94.47
109.35
117.05
117.64
112.08
101.76
88.20
72.89
57.09
41.90
28.05
15.75
4.70
-5.86
-16.69
-28.23
-40.59
-53.56
-66.54
-78.47
-87.99
-93.79
-95.14
-92.09
-85.40
-76.22
-65.71
-54.51
-42.77
-30.36
-17.34
-4.37
7.35
16.32
21.29
21.69
17.96
11.40
3.84
-3.05
-8.18
-11.20
-12.41
-12.41
-11.83
-11.20
-11.03
-11.74
-13.66
-16.87
-21.17
-26.10
-31.17
-36.08
-40.79
-45.51
-50.45
-55.73
-61.27
-66.82
-72.14
-77.10
-81.80
-86.54
-91.78
-97.92
-104.99
-112.47
-119.16
-123.42
-123.58
-118.44
-107.61
-91.74
-72.13
-50.47
-28.34
-6.97
12.74
30.17
44.83
56.33
64.51
69.55
71.93
72.35
71.59
70.27
68.81
67.41
66.19
65.16
64.24
63.25
61.87
59.81
56.82
52.92
48.33
43.43
38.58
34.03
29.79
25.71
21.59
17.18
12.38
7.11
1.42
-4.66
-11.09
-17.92
-25.25
-33.21
-41.89
-51.08
-60.22
-68.33
-74.14
-76.35
-74.02
-66.78
-54.98
-39.59
-21.89
-3.21
15.27
32.59
48.04
61.04
71.22
78.44
82.82
84.77
84.85
83.61
81.47
78.69
75.43
71.83
68.08
64.36
60.79
57.35
53.94
50.44
46.75
42.89
38.88
34.69
30.15
25.09
19.41
13.22
6.89
0.84
-4.60
-9.33
-13.55
-17.58
-21.74
-26.17
-30.85
-35.74
-40.86
-46.27
-51.96
-57.64
-62.64
-65.95
-66.49
-63.44
-56.50
-45.98
-32.74
-17.81
-2.23
13.16
27.66
40.62
51.34
59.17
63.69
64.95
63.55
60.50
56.89
53.53
50.77
48.50
46.34
43.94
41.06
37.64
33.68
29.21
24.28
19.03
13.71
8.67
4.22
0.54
-2.41
-4.81
-6.96
-9.09
-11.34
-13.74
-16.21
-18.65
-21.01
-23.33
-25.71
-28.37
-31.55
-35.49
-40.26
-45.59
-50.77
-54.71
-56.10
-53.71
-46.89
-35.87
-21.77
-6.32
8.67
21.81
32.28
39.90
45.01
48.01
49.10
48.36
45.93
42.33
38.47
35.36
33.73
34.13
36.31
39.28
41.74
42.64
41.76
39.72
37.53
36.02
36.08
37.75
40.22
42.16
42.39
40.47
36.83
32.57
29.15
28.98
34.00
44.95
60.79
78.84
95.58
107.62
112.67
105.33
84.21
52.41
16.62
-16.40
-43.03
-62.83
-76.72
-84.95
-87.55
-83.38
-72.26
-55.93
-37.79
-21.57
-9.91
-3.94
-3.26
-6.40
-10.76
-14.09
-15.18
-14.14
-12.20
-10.94
-11.74
-15.49
-22.16
-30.39
-38.33
-44.20
-46.76
-45.50
-40.49
-32.49
-23.44
-16.04
-12.91
-15.90
-25.24
-39.17
-54.72
-68.55
-78.11
-83.03
-84.41
-83.99
-83.21
-82.82
-82.92
-83.94
-86.41
-90.58
-96.92
-104.84
-112.81
-118.72
-120.71
-117.74
-110.53
-100.64
-85.04
-62.67
-34.30
-2.87
28.01
54.08
76.10
95.27
112.32
127.70
140.03
148.03
150.64
145.94
133.05
112.85
87.48
60.60
36.44
18.07
7.36
3.16
3.90
7.74
12.61
15.92
15.68
11.06
2.06
-9.49
-21.30
-31.04
-37.07
-38.82
-36.94
-32.64
-27.26
-22.35
-19.34
-19.56
-23.60
-31.05
-40.32
-49.10
-55.03
-56.54
-53.49
-46.91
-38.35
-28.82
-18.47
-6.75
6.73
21.54
36.05
47.95
55.15
56.65
53.18
46.84
40.33
36.10
35.65
39.33
46.47
55.80
65.73
74.66
80.94
83.15
80.35
72.51
60.66
46.77
33.25
22.23
15.00
11.68
11.30
12.13
12.27
10.22
5.33
-2.16
-11.29
-20.88
-29.97
-38.00
-44.83
-50.52
-55.09
-58.64
-61.41
-63.93
-66.83
-70.35
-73.96
-76.38
-75.96
-71.47
-62.68
-50.50
-36.48
-22.17
-8.51
4.26
16.29
27.70
38.15
46.92
53.12
56.13
55.87
52.89
48.20
42.96
38.28
34.94
33.22
32.82
32.91
32.30
29.84
24.82
17.26
7.93
-1.90
-10.95
-18.31
-23.70
-27.35
-29.78
-31.47
-32.76
-33.93
-35.25
-37.10
-39.89
-43.97
-49.43
-56.15
-63.80
-71.90
-79.86
-86.94
-92.21
-94.66
-93.45
-88.18
-79.08
-67.04
-53.21
-38.72
-24.34
-10.44
2.90
15.54
27.26
37.64
46.31
52.96
57.49
59.93
60.39
59.07
56.26
52.37
47.93
43.46
39.43
36.16
33.80
32.26
31.22
30.07
28.12
24.79
19.87
13.70
7.02
0.76
-4.40
-8.25
-11.04
-13.35
-15.81
-18.86
-22.70
-27.28
-32.49
-38.15
-44.10
-50.20
-56.27
-62.00
-66.92
-70.33
-71.46
-69.65
-64.63
-56.58
-46.19
-34.29
-21.67
-8.87
3.83
16.17
27.70
37.79
45.74
51.07
53.78
54.36
53.56
52.14
50.58
49.02
47.39
45.59
43.64
41.63
39.67
37.72
35.57
32.90
29.43
25.04
19.89
14.26
8.51
2.88
-2.58
-7.89
-13.16
-18.41
-23.63
-28.73
-33.63
-38.27
-42.73
-47.23
-52.13
-57.78
-64.19
-70.85
-76.63
-80.04
-79.66
-74.61
-64.88
-51.33
-35.43
-18.78
-2.83
11.34
23.01
31.87
37.89
41.38
42.91
43.22
43.11
43.17
43.69
44.65
45.71
46.48
46.64
46.14
45.15
43.95
42.75
41.58
40.30
38.76
36.89
34.74
32.43
30.03
27.50
24.74
21.63
18.10
14.15
9.85
5.23
0.32
-4.89
-10.40
-16.17
-22.19
-28.48
-35.06
-41.86
-48.49
-54.22
-58.03
-58.90
-56.16
-49.74
-40.18
-28.45
-15.51
-2.11
11.29
24.33
36.49
47.05
55.27
60.73
63.62
64.75
65.29
66.22
68.01
70.42
72.73
74.11
74.06
72.62
70.40
68.36
67.54
68.72
72.23
77.73
84.18
89.83
92.45
89.87
80.65
64.75
43.82
20.88
-0.65
-18.03
-30.20
-37.88
-43.02
-47.73
-53.32
-59.81
-66.19
-71.18
-73.92
-74.45
-73.54
-72.17
-70.93
-69.64
-67.47
-63.42
-56.87
-47.97
-37.61
-27.01
-17.27
-8.99
-2.32
2.86
6.62
8.77
9.07
7.38
3.92
-0.66
-5.51
-9.82
-13.05
-15.09
-16.21
-16.84
-17.42
-18.24
-19.36
-20.69
-22.04
-23.26
-24.30
-25.21
-26.18
-27.42
-29.11
-31.27
-33.75
-36.27
-38.53
-40.35
-41.67
-42.53
-43.02
-43.26
-43.34
-43.47
-43.95
-45.03
-46.78
-48.83
-50.32
-50.12
-47.16
-40.84
-31.19
-18.88
-4.93
9.47
23.24
35.45
45.35
52.49
56.73
58.36
58.10
56.93
55.78
55.24
55.49
56.22
56.88
56.94
56.12
54.41
52.08
49.48
46.89
44.43
41.99
39.36
36.27
32.51
27.98
22.73
16.89
10.72
4.44
-1.67
-7.39
-12.48
-16.79
-20.25
-22.95
-25.20
-27.52
-30.51
-34.63
-39.95
-45.92
-51.45
-55.14
-55.75
-52.59
-45.70
-35.74
-23.68
-10.50
2.94
15.84
27.42
36.83
43.43
46.96
47.76
46.62
44.49
42.20
40.17
38.49
37.12
36.03
35.23
34.78
34.59
34.49
34.26
33.78
33.07
32.20
31.15
29.75
27.72
24.86
21.18
16.93
12.44
7.93
3.44
-1.20
-6.15
-11.44
-16.99
-22.67
-28.51
-34.65
-41.21
-48.00
-54.38
-59.29
-61.60
-60.51
-55.80
-47.96
-37.90
-26.71
-15.34
-4.61
4.85
12.46
17.81
20.72
21.41
20.46
18.66
16.75
15.21
14.20
13.53
12.90
11.93
10.38
8.11
5.14
1.70
-1.91
-5.34
-8.39
-11.03
-13.42
-15.83
-18.37
-21.00
-23.52
-25.72
-27.58
-29.30
-31.22
-33.63
-36.69
-40.36
-44.57
-49.21
-54.24
-59.41
-64.14
-67.50
-68.34
-65.67
-59.05
-48.73
-35.54
-20.63
-5.14
10.00
24.04
36.37
46.48
53.99
58.76
61.02
61.29
60.31
58.80
57.28
55.93
54.64
53.11
51.01
48.12
44.41
40.05
35.27
30.31
25.35
20.43
15.51
10.47
5.18
-0.44
-6.41
-12.64
-18.98
-25.26
-31.38
-37.29
-43.07
-48.81
-54.61
-60.51
-66.48
-72.28
-77.44
-81.24
-82.76
-81.14
-75.81
-66.73
-54.46
-40.00
-24.53
-9.11
5.51
18.90
30.81
41.02
49.21
55.07
58.44
59.45
58.59
56.52
53.88
51.12
48.37
45.53
42.42
38.92
35.06
30.96
26.78
22.62
18.42
14.01
9.17
3.70
-2.48
-9.28
-16.50
-23.84
-31.02
-37.83
-44.17
-50.09
-55.70
-61.18
-66.67
-72.28
-77.93
-83.33
-87.88
-90.71
-90.78
-87.21
-79.53
-67.83
-52.84
-35.70
-17.63
0.27
17.25
32.77
46.47
58.00
67.04
73.42
77.17
78.63
78.40
77.16
75.56
73.99
72.54
71.03
69.14
66.61
63.37
59.56
55.48
51.31
47.12
42.72
37.84
32.30
26.07
19.37
12.50
5.77
-0.72
-6.97
-13.08
-19.13
-25.10
-30.90
-36.45
-41.81
-47.16
-52.74
-58.61
-64.46
-69.52
-72.65
-72.67
-68.71
-60.51
-48.47
-33.63
-17.26
-0.70
14.93
28.77
40.19
48.84
54.59
57.65
58.57
58.14
57.20
56.42
56.05
55.97
55.80
55.23
54.16
52.74
51.20
49.64
47.92
45.76
42.88
39.22
34.90
30.12
25.04
19.69
13.97
7.84
1.33
-5.37
-12.05
-18.51
-24.62
-30.35
-35.69
-40.69
-45.48
-50.26
-55.27
-60.60
-66.08
-71.06
-74.59
-75.47
-72.75
-65.97
-55.38
-41.87
-26.75
-11.43
2.91
15.45
25.74
33.65
39.22
42.61
44.12
44.12
43.10
41.60
40.10
38.96
38.27
37.94
37.71
37.31
36.53
35.32
33.76
31.96
30.01
27.92
25.58
22.84
19.51
15.54
10.96
5.90
0.49
-5.15
-10.96
-16.92
-22.97
-29.05
-35.08
-41.02
-46.96
-53.05
-59.42
-66.01
-72.39
-77.75
-81.04
-81.24
-77.65
-70.20
-59.52
-46.71
-33.20
-20.35
-9.24
-0.48
5.94
10.66
14.99
20.59
29.00
41.06
56.41
73.51
90.03
103.59
112.41
115.71
113.68
107.24
97.65
86.31
74.56
63.35
53.13
43.55
33.65
22.21
8.38
-7.93
-25.79
-43.57
-59.41
-71.76
-79.72
-83.14
-82.60
-79.13
-74.06
-68.78
-64.45
-61.88
-61.43
-62.97
-65.91
-69.24
-71.67
-71.83
-68.60
-61.38
-50.28
-36.08
-19.91
-2.91
14.17
30.93
47.27
63.03
77.82
91.00
101.82
109.71
114.45
116.29
115.79
113.75
111.00
108.35
106.39
105.48
105.55
106.24
106.95
107.10
106.28
104.22
100.59
94.88
86.40
74.53
59.06
40.44
19.76
-1.53
-22.03
-40.74
-57.22
-71.57
-84.21
-95.63
-106.15
-115.81
-124.33
-131.25
-136.15
-138.73
-138.93
-136.71
-131.93
-124.26
-113.31
-98.93
-81.44
-61.73
-41.11
-21.06
-2.97
12.17
23.90
32.42
38.57
43.54
48.55
54.32
60.83
67.31
72.47
75.01
73.96
68.92
60.10
48.23
34.49
20.32
7.28
-3.27
-10.48
-14.25
-15.32
-14.92
-14.42
-14.85
-16.69
-19.95
-24.39
-29.69
-35.55
-41.53
-47.15
-51.86
-55.43
-58.05
-60.39
-63.22
-66.91
-71.08
-74.56
-75.80
-73.43
-66.93
-56.84
-44.75
-32.81
-23.16
-17.25
-15.37
-16.66
-19.62
-22.76
-25.29
-27.25
-29.19
-31.61
-34.51
-37.37
-39.54
-40.70
-41.07
-41.18
-41.45
-41.81
-41.68
-40.34
-37.34
-32.87
-27.69
-22.76
-18.87
-16.28
-14.72
-13.61
-12.38
-10.73
-8.76
-6.85
-5.43
-4.78
-4.89
-5.37
-5.51
-4.35
-0.86
5.80
15.98
29.30
44.64
60.36
74.89
87.21
97.17
105.31
112.28
118.21
122.38
123.47
120.30
112.62
101.49
88.83
76.67
66.23
57.49
49.48
40.98
31.16
19.93
7.85
-4.34
-15.97
-26.61
-35.92
-43.50
-49.01
-52.39
-54.07
-55.02
-56.47
-59.59
-65.03
-72.93
-82.80
-93.88
-105.29
-116.27
-126.26
-134.93
-142.15
-147.73
-151.39
-152.59
-150.55
-144.55
-134.19
-119.71
-101.97
-82.26
-61.89
-41.92
-22.98
-5.39
10.68
25.10
37.70
48.37
57.12
64.08
69.49
73.67
77.05
80.10
83.39
87.46
92.79
99.56
107.73
116.91
126.43
135.37
142.62
147.11
148.03
145.08
138.59
129.44
118.76
107.55
96.33
85.01
72.94
59.23
43.03
23.85
1.72
-22.76
-48.54
-74.32
-98.74
-120.44
-137.99
-149.82
-154.35
-150.42
-137.91
-118.14
-93.84
-68.45
-45.19
-26.11
-11.83
-1.81
4.94
9.30
11.75
12.57
12.19
11.29
10.80
11.43
13.41
16.35
19.43
21.77
22.82
22.56
21.45
20.18
19.30
18.95
18.86
18.52
17.44
15.45
12.71
9.56
6.30
3.01
-0.46
-4.37
-8.90
-14.05
-19.60
-25.33
-31.12
-37.01
-43.11
-49.33
-55.22
-59.90
-62.21
-61.08
-55.84
-46.50
-33.68
-18.51
-2.22
14.06
29.44
43.30
55.21
64.88
72.11
76.85
79.19
79.44
78.06
75.60
72.58
69.41
66.34
63.48
60.84
58.36
55.94
53.38
50.37
46.62
42.02
36.97
32.45
29.84
30.49
35.10
43.30
53.74
64.41
73.31
78.92
80.44
77.75
71.23
61.75
50.41
38.47
26.95
16.24
5.98
-4.78
-16.93
-30.74
-45.38
-59.06
-69.53
-74.86
-73.94
-66.89
-54.84
-39.63
-23.29
-7.64
5.98
16.85
24.74
29.79
32.35
32.90
31.99
30.25
28.28
26.56
25.36
24.69
24.33
23.98
23.42
22.57
21.55
20.55
19.77
19.31
19.14
19.15
19.09
18.70
17.63
15.53
12.03
6.82
-0.28
-9.22
-19.65
-30.92
-42.17
-52.49
-61.12
-67.66
-72.08
-74.68
-75.88
-76.04
-75.35
-73.74
-71.01
-66.84
-60.94
-53.11
-43.31
-31.73
-18.82
-5.30
7.99
20.19
30.55
38.52
43.83
46.53
46.95
45.73
43.65
41.55
40.07
39.54
39.89
40.70
41.35
41.25
40.02
37.52
33.90
29.48
24.67
19.93
15.65
12.08
9.27
6.99
4.82
2.28
-0.97
-4.97
-9.51
-14.23
-18.89
-23.47
-28.22
-33.46
-39.33
-45.69
-52.04
-57.83
-62.63
-66.38
-69.35
-72.08
-75.32
-79.77
-85.90
-93.58
-101.94
-109.30
-113.58
-112.91
-106.34
-94.43
-79.11
-63.07
-48.79
-37.76
-30.22
-25.44
-22.38
-20.19
-18.73
-18.25
-18.86
-20.04
-20.60
-19.11
-14.59
-7.02
2.74
12.79
21.12
26.29
27.88
26.46
23.24
19.48
16.31
14.77
14.95
16.35
17.89
18.09
15.46
8.84
-2.27
-17.33
-32.11
-41.99
-43.31
-35.70
-22.47
-8.23
3.89
13.57
21.51
30.98
43.62
58.98
75.15
89.85
101.58
109.98
114.85
116.35
115.13
111.53
105.90
98.69
90.41
81.70
73.16
65.32
58.74
54.13
51.54
50.53
50.14
49.18
46.72
42.44
36.77
30.89
26.41
24.47
25.44
28.67
32.83
36.53
38.88
39.77
39.82
39.76
39.71
39.13
37.08
32.86
26.51
18.68
10.21
1.61
-7.07
-15.99
-24.99
-33.36
-40.10
-44.27
-45.44
-43.73
-39.49
-33.15
-25.19
-16.36
-7.86
-1.22
2.19
1.69
-2.40
-8.96
-16.67
-24.49
-32.01
-39.22
-46.24
-53.04
-59.33
-64.78
-69.14
-72.37
-74.61
-76.10
-77.03
-77.54
-77.67
-77.40
-76.73
-75.65
-74.15
-72.26
-70.05
-67.64
-65.22
-62.95
-60.92
-59.19
-57.71
-56.48
-55.52
-54.87
-54.62
-54.89
-55.73
-57.12
-59.06
-61.59
-64.84
-68.85
-73.52
-78.37
-82.76
-85.78
-86.56
-84.56
-79.69
-72.24
-62.67
-51.44
-38.93
-25.93
-13.30
-1.98
7.22
13.85
18.15
21.09
24.08
28.55
34.88
42.74
50.91
57.37
59.76
56.02
45.30
28.48
8.41
-11.40
-26.89
-34.82
-33.70
-24.25
-8.89
9.24
27.22
46.14
64.93
81.49
93.58
99.93
100.56
96.21
88.28
78.11
67.97
59.51
54.04
52.01
52.76
54.56
55.00
52.89
47.63
39.85
30.43
20.57
11.10
2.29
-6.06
-14.39
-22.53
-29.67
-34.52
-36.35
-34.98
-30.79
-24.55
-15.42
-4.19
6.89
15.04
18.73
18.26
15.21
11.24
7.08
2.17
-5.02
-15.52
-28.79
-43.03
-55.27
-62.98
-65.18
-62.69
-57.69
-52.90
-50.07
-49.44
-49.91
-49.86
-48.14
-44.40
-38.80
-31.91
-24.43
-16.87
-9.53
-2.57
3.96
10.04
15.73
21.09
26.08
30.51
34.31
37.69
41.18
45.55
51.24
57.93
64.40
68.88
70.05
67.57
62.40
56.40
52.04
51.33
54.88
61.52
68.62
73.36
73.50
68.16
57.88
45.09
32.87
23.72
18.66
17.29
18.92
22.56
27.11
30.98
33.29
33.63
31.88
28.33
23.95
21.07
21.80
27.08
35.41
44.79
53.00
58.00
58.21
48.13
25.49
-7.88
-42.12
-72.43
-95.41
-108.56
-109.34
-97.49
-75.93
-49.46
-23.81
-3.73
7.86
11.88
11.39
9.80
9.22
10.51
14.43
21.49
31.65
43.39
54.85
63.77
67.98
65.92
57.26
43.20
25.70
6.91
-11.43
-27.27
-38.80
-45.05
-46.37
-44.22
-40.50
-36.86
-34.15
-32.54
-31.53
-30.83
-30.73
-32.03
-35.45
-41.07
-48.02
-54.62
-58.83
-58.86
-53.85
-43.93
-30.05
-13.73
2.98
17.62
27.74
31.42
27.67
16.79
0.66
-17.32
-33.07
-43.07
-45.27
-39.43
-26.91
-10.33
7.16
21.09
27.85
26.76
20.33
12.24
5.04
-0.91
-6.88
-15.40
-28.20
-44.82
-63.29
-81.26
-97.21
-110.70
-120.85
-127.17
-129.46
-127.83
-122.01
-112.51
-100.99
-89.67
-80.15
-72.37
-64.79
-55.12
-41.28
-20.73
7.45
41.90
79.27
115.37
146.63
170.74
186.80
195.14
199.08
202.47
208.29
217.94
231.24
246.85
262.56
275.57
273.47
248.81
201.71
140.39
76.34
18.33
-29.66
-67.07
-93.84
-112.60
-123.65
-127.49
-126.29
-123.51
-122.39
-124.21
-127.45
-129.22
-126.72
-117.09
-99.28
-76.50
-55.09
-41.48
-39.07
-47.23
-62.40
-79.26
-93.32
-101.39
-102.20
-96.18
-84.78
-69.57
-51.70
-32.48
-13.03
6.25
25.03
42.48
57.39
68.66
75.98
80.05
82.41
84.97
89.49
96.89
106.75
117.60
127.43
134.21
136.29
132.48
122.55
107.40
89.14
70.55
54.26
42.01
34.10
29.51
26.57
23.73
20.08
15.46
10.12
4.28
-2.08
-9.39
-18.11
-28.58
-40.30
-51.92
-61.47
-67.03
-67.49
-62.99
-54.81
-44.57
-33.51
-21.81
-8.77
6.39
23.57
41.43
57.68
70.05
77.23
79.10
76.78
71.90
65.82
59.22
52.17
44.52
36.37
28.17
20.02
12.25
5.20
-0.81
-5.66
-9.45
-12.35
-14.48
-15.94
-17.88
-21.16
-26.20
-33.18
-42.22
-53.42
-66.53
-80.82
-95.21
-110.26
-126.06
-142.21
-158.12
-173.71
-189.67
-207.14
-227.02
-249.14
-273.88
-298.83
-319.16
-329.35
-325.70
-307.92
-279.23
-244.96
-197.61
-137.94
-73.01
-12.91
35.05
68.83
90.13
102.01
107.47
109.28
107.56
103.20
97.81
93.34
90.98
91.75
96.11
104.32
116.26
129.32
140.80
148.11
149.31
143.55
131.29
114.24
95.00
76.21
57.56
39.58
23.10
9.23
-0.92
-6.73
-8.46
-7.23
-4.67
-2.92
-3.19
-5.74
-10.06
-15.34
-20.81
-25.95
-30.21
-32.88
-33.27
-30.52
-24.17
-14.26
-1.42
13.29
28.65
43.50
56.89
68.08
76.68
82.58
85.94
87.32
87.42
86.93
86.24
85.35
83.85
81.13
76.71
70.45
62.74
54.38
46.29
39.15
33.17
28.11
23.50
18.93
