1594910470.00
64.000000
-0.00
-0.00
-0.00
-0.00
-0.00
-0.00
-0.00
-0.00
-0.00
-0.00
0.00
0.01
0.01
-0.00
-0.03
-0.05
-0.05
0.00
0.13
0.36
0.66
1.01
1.37
1.72
2.06
2.40
2.79
3.24
3.80
4.42
5.06
5.66
6.20
6.68
7.15
7.68
8.31
9.14
10.09
11.04
11.88
12.56
13.14
13.76
14.65
15.96
17.91
20.32
22.90
25.38
27.58
29.57
31.68
34.32
37.81
42.54
48.15
54.10
59.83
64.97
69.58
74.14
79.34
85.71
93.76
103.00
112.62
121.73
129.77
136.75
143.30
150.75
157.77
166.64
177.95
191.79
206.97
220.57
228.25
225.36
208.53
176.87
132.76
80.05
23.07
-34.94
-92.44
-149.16
-205.23
-260.37
-313.74
-363.87
-409.83
-450.91
-486.50
-515.74
-537.23
-549.22
-549.96
-538.37
-514.21
-478.67
-433.88
-382.45
-327.02
-269.84
-212.63
-156.66
-102.95
-52.37
-5.90
35.58
71.43
101.35
125.50
144.38
158.69
169.15
176.37
180.75
182.57
182.07
179.51
175.23
169.65
163.18
156.15
148.81
141.30
133.69
126.02
118.33
110.69
103.16
95.80
88.68
81.83
75.25
68.95
62.95
57.25
51.86
46.78
42.03
37.59
33.45
29.61
26.07
22.81
19.83
17.11
14.67
12.48
10.54
8.83
7.35
6.07
4.97
4.05
3.27
2.62
2.09
1.65
1.30
1.01
0.79
0.61
0.47
0.37
0.28
0.22
0.18
0.15
0.12
0.11
0.11
0.12
0.13
0.15
0.17
0.20
0.24
0.28
0.32
0.36
0.41
0.46
0.51
0.57
0.63
0.68
0.75
0.81
0.88
0.96
1.04
1.13
1.22
1.33
1.45
1.59
1.74
1.91
2.10
2.31
2.54
2.80
3.09
3.40
3.75
4.13
4.54
4.99
5.48
6.02
6.59
7.20
7.86
8.57
9.33
10.13
10.97
11.86
12.80
13.78
14.82
15.93
17.09
18.31
19.56
20.84
22.09
23.27
24.27
24.99
25.31
25.06
24.15
22.48
20.04
16.87
13.07
8.75
4.10
-0.70
-5.51
-10.19
-14.66
-18.86
-22.68
-25.99
-28.65
-30.54
-31.58
-31.82
-31.45
-30.71
-29.83
-28.93
-27.99
-26.86
-25.39
-23.50
-21.34
-19.19
-17.43
-16.31
-15.84
-15.68
-15.32
-14.30
-12.39
-9.87
-7.41
-5.98
-6.31
-8.60
-12.31
-16.28
-19.29
-20.47
-19.87
-18.60
-18.47
-21.09
-27.11
-35.75
-44.84
-51.75
-54.29
-51.98
-46.70
-42.39
-43.50
-52.94
-69.95
-89.66
-104.43
-106.52
-91.58
-60.74
-20.35
20.34
52.30
69.49
70.49
56.66
33.40
9.54
-4.60
-0.31
26.36
72.49
128.50
181.35
219.63
238.78
242.92
242.22
247.76
265.56
293.60
323.22
343.88
348.97
339.35
322.42
307.82
302.33
307.01
318.12
330.65
341.68
351.35
361.13
370.72
376.29
371.71
351.72
315.07
265.51
210.52
157.76
112.15
74.32
41.19
7.94
-29.79
-74.00
-123.39
-173.38
-217.21
-248.11
-261.88
-258.84
-244.00
-225.22
-210.01
-202.47
-202.06
-204.65
-205.16
-200.08
-188.80
-172.95
-154.81
-135.87
-116.43
-96.24
-75.56
-55.50
-37.88
-24.44
-16.00
-12.16
-11.53
-12.43
-13.68
-15.02
-17.12
-21.18
-28.27
-38.79
-52.39
-68.14
-85.05
-102.28
-119.40
-136.23
-152.85
-169.19
-184.70
-198.09
-207.56
-211.37
-208.62
-199.89
-187.28
-173.67
-161.73
-153.11
-148.34
-147.03
-148.36
-150.99
-153.00
-151.89
-145.22
-131.69
-112.12
-89.35
-67.15
-48.66
-35.27
-26.89
-22.66
-22.05
-25.13
-32.07
-42.48
-55.00
-67.76
-78.92
-87.11
-91.42
-91.21
-86.09
-76.31
-63.15
-48.99
-36.64
-28.33
-24.84
-25.52
-28.90
-33.47
-38.19
-42.35
-45.20
-45.74
-42.92
-36.30
-26.38
-14.64
-2.83
7.47
15.39
20.68
23.50
24.21
23.22
21.12
18.61
16.27
14.28
12.18
9.03
3.77
-4.17
-14.55
-26.21
-37.38
-46.30
-51.69
-53.23
-51.69
-48.75
-46.42
-46.57
-50.23
-57.40
-67.07
-77.58
-87.19
-94.73
-99.98
-103.91
-108.11
-113.82
-120.70
-126.21
-126.15
-116.44
-95.07
-63.34
-25.41
13.32
48.28
76.97
98.83
114.18
123.26
126.06
122.99
115.58
106.54
98.75
93.70
90.64
86.80
78.88
64.89
45.39
23.63
4.43
-7.63
-9.96
-2.98
10.28
25.46
38.71
47.99
53.48
56.80
59.70
63.04
66.43
68.82
69.38
68.14
65.99
64.12
63.39
63.84
64.92
66.12
67.44
69.61
73.71
80.04
87.29
92.34
91.17
80.66
60.35
33.27
5.07
-18.09
-31.89
-35.35
-30.46
-20.64
-9.03
2.43
12.85
21.60
27.76
30.22
28.44
22.91
15.10
6.79
-0.71
-7.00
-12.30
-17.04
-21.32
-24.83
-27.13
-27.90
-26.79
-23.64
-18.41
-11.48
-4.07
1.97
4.47
1.90
-6.07
-18.26
-32.51
-46.44
-58.06
-66.15
-70.07
-69.61
-64.82
-56.30
-45.39
-34.24
-25.30
-20.38
-20.06
-23.17
-27.34
-30.13
-30.05
-27.23
-23.14
-19.70
-17.91
-17.45
-17.01
-15.57
-13.30
-11.50
-11.98
-15.73
-22.59
-31.03
-38.92
-44.51
-47.01
-46.45
-43.09
-36.89
-27.68
-16.36
-4.49
5.80
12.49
14.36
11.75
6.97
3.43
4.36
9.81
18.27
27.59
35.63
40.30
40.03
34.23
23.32
8.56
-11.39
-36.11
-62.45
-85.90
-103.40
-114.46
-120.50
-123.60
-125.75
-133.21
-149.17
-171.83
-195.86
-216.28
-230.21
-236.58
-235.72
-229.52
-227.49
-236.48
-256.65
-282.32
-306.65
-324.64
-334.11
-335.80
-293.35
-198.24
-74.09
41.13
124.60
175.35
203.41
218.96
228.38
233.76
228.72
209.66
179.53
145.92
115.66
92.48
75.62
64.68
58.44
50.88
38.76
23.87
10.88
3.07
1.04
2.89
6.29
9.29
8.09
1.75
-6.91
-12.63
-14.81
-13.19
-8.44
-1.34
7.35
15.56
22.00
26.46
29.17
29.72
27.66
22.59
15.11
6.76
-0.75
-5.57
-6.19
-1.98
6.55
18.65
33.37
49.99
67.87
86.28
104.35
121.14
136.15
149.63
162.90
177.66
195.45
217.07
242.16
269.03
294.77
315.81
328.63
330.90
322.01
303.24
277.21
246.94
214.94
182.76
151.22
120.91
92.79
68.12
48.12
33.29
23.04
15.74
9.09
0.79
-10.87
-26.40
-44.69
-63.08
-77.81
-85.08
-82.42
-69.74
-49.52
-26.00
-3.67
14.33
27.01
35.24
40.69
44.70
47.66
49.25
49.13
47.43
44.86
42.17
39.60
36.77
33.00
27.89
21.73
15.46
10.24
6.96
6.02
7.24
9.95
13.04
15.00
14.20
9.41
0.50
-11.31
-23.50
-33.04
-37.44
-35.65
-28.39
-17.75
-6.38
3.29
9.71
12.36
11.52
7.94
2.34
-4.75
-13.02
-22.19
-31.84
-41.38
-50.18
-57.99
-65.09
-72.12
-79.84
-88.67
-98.54
-109.08
-119.93
-130.96
-142.24
-153.68
-164.66
-173.97
-180.24
-182.62
-181.26
-177.48
-173.12
-169.74
-167.74
-166.01
-162.32
-154.06
-139.17
-116.71
-87.04
-51.23
-10.38
34.79
83.81
135.75
188.63
239.33
284.19
320.15
345.59
360.54
366.22
364.23
355.95
342.45
324.71
303.90
281.43
258.83
237.69
219.59
205.99
197.90
195.41
197.43
201.77
205.82
207.20
204.20
195.78
181.62
162.06
138.10
111.55
84.53
58.89
35.55
14.24
-6.13
-26.81
-48.56
-71.49
-95.02
-118.07
-139.19
-156.72
-169.00
-174.93
-174.58
-169.41
-162.08
-155.66
-152.74
-154.71
-161.48
-171.59
-182.43
-190.66
-193.14
-188.10
-176.44
-162.01
-150.58
-147.49
-155.35
-172.69
-194.70
-215.79
-232.30
-244.29
-255.19
-270.08
-293.29
-326.38
-367.21
-410.23
-447.69
-471.60
-476.07
-459.09
-423.32
-375.12
-322.26
-271.40
-226.59
-189.18
-158.87
-135.01
-117.04
-104.15
-94.86
-86.78
-77.44
-65.28
-50.41
-34.46
-19.83
-8.50
-0.99
3.72
7.61
12.61
19.65
28.25
36.86
43.64
47.49
48.60
48.33
48.66
51.29
56.89
64.98
74.36
83.65
92.09
99.83
107.82
117.59
130.82
148.63
170.62
194.12
214.43
226.39
226.88
216.88
201.77
189.04
184.80
190.91
204.29
218.86
228.56
229.96
222.87
209.72
194.22
180.49
172.29
172.28
180.62
193.76
204.65
204.86
188.36
154.37
108.25
59.50
18.19
-8.56
-18.15
-11.95
6.38
32.74
63.52
96.02
128.30
159.04
187.44
212.98
235.20
253.48
267.08
275.19
277.01
271.42
256.63
230.21
190.05
136.18
72.15
5.51
-53.53
-94.87
-111.62
-102.18
-70.46
-24.68
24.84
67.84
96.14
105.16
94.75
69.03
34.90
-0.26
-31.19
-56.01
-75.91
-93.50
-110.81
-127.91
-142.66
-151.89
-153.26
-146.96
-136.48
-127.76
-126.78
-136.89
-156.71
-179.97
-197.83
-202.40
-189.78
-160.98
-120.65
-74.57
-27.50
17.22
56.79
87.84
106.39
109.03
94.71
65.75
27.63
-12.32
-46.82
-70.29
-79.98
-76.58
-64.05
-48.58
-36.54
-32.34
-36.98
-47.78
-59.58
-66.43
-63.41
-48.08
-21.53
11.33
42.22
61.55
61.72
40.52
3.12
-38.92
-71.44
-82.95
-68.99
-33.52
13.20
58.69
92.41
108.44
105.83
87.53
58.81
25.73
-5.97
-31.82
-49.13
-57.28
-57.37
-51.53
-41.96
-30.29
-17.57
-4.48
8.09
18.96
27.04
31.90
33.80
33.15
29.80
23.01
12.53
0.01
-10.31
-12.51
-1.61
23.57
58.94
96.10
125.24
138.78
133.87
112.73
81.07
45.45
11.20
-18.91
-44.45
-66.35
-85.55
-102.09
-114.73
-121.53
-120.80
-112.02
-96.30
-76.12
-54.41
-33.45
-14.05
4.57
24.19
46.33
70.96
95.77
116.44
128.14
127.40
113.81
90.37
62.48
35.94
15.07
1.76
-4.24
-4.48
-1.07
3.68
7.19
6.83
0.72
-11.32
-27.14
-42.54
-52.57
-53.47
-44.16
-26.71
-5.45
14.69
29.92
38.44
40.24
36.24
27.34
14.31
-1.81
-18.97
-33.89
-42.71
-42.55
-32.94
-16.38
2.43
18.66
29.19
33.73
34.37
34.29
36.10
40.74
47.39
53.96
58.02
57.52
51.36
39.65
23.45
4.44
-15.44
-34.32
-50.61
-63.32
-72.33
-78.48
-83.13
-87.17
-89.97
-89.36
-82.95
-70.18
-53.76
-39.37
-33.39
-39.81
-58.36
-84.78
-113.08
-137.97
-156.10
-165.55
-164.76
-152.09
-126.85
-90.90
-49.56
-10.64
18.42
33.67
36.26
31.77
27.60
29.55
39.56
55.28
71.60
83.28
87.11
82.74
71.98
57.49
41.50
25.41
10.10
-3.68
-15.27
-24.61
-32.67
-41.24
-51.97
-65.15
-78.94
-89.78
-93.73
-88.22
-73.04
-50.31
-23.41
4.18
29.65
51.01
66.78
75.79
77.34
71.66
60.50
47.22
36.04
30.75
33.27
43.01
57.14
71.85
83.72
90.83
93.05
91.49
87.69
82.82
77.41
71.34
64.22
55.75
45.99
35.41
24.89
15.48
8.00
2.82
-0.15
-1.06
0.38
5.05
14.14
28.32
47.07
68.24
88.50
104.39
113.36
114.54
108.69
97.70
83.65
68.14
51.93
34.99
17.03
-2.09
-21.97
-41.77
-60.42
-77.01
-91.15
-102.89
-112.65
-121.00
-128.45
-135.36
-141.83
-147.70
-152.59
-155.99
-157.50
-156.97
-154.58
-150.93
-146.71
-142.76
-139.84
-138.48
-138.69
-139.69
-139.88
-137.44
-131.23
-121.61
-110.50
-100.72
-94.73
-93.51
-96.42
-101.81
-107.92
-113.56
-117.99
-120.31
-119.01
-112.07
-97.85
-75.96
-47.77
-16.04
16.05
45.87
71.76
93.07
109.61
121.32
128.26
130.75
129.70
126.64
123.27
120.94
120.13
120.39
120.65
119.84
117.48
114.05
110.65
108.62
108.81
111.16
114.68
117.75
118.67
116.17
109.69
99.43
86.19
71.23
56.20
42.85
32.58
25.85
21.72
18.11
12.60
3.69
-8.39
-21.65
-33.23
-40.69
-42.91
-40.25
-34.16
-26.58
-19.48
-14.60
-13.09
-14.95
-18.77
-21.82
-21.20
-15.19
-4.25
9.19
21.78
30.87
35.53
36.56
35.72
34.56
33.85
33.69
33.83
34.09
34.42
34.74
34.78
34.36
33.78
34.04
36.57
42.21
50.39
58.61
63.11
60.24
48.18
27.92
3.06
-21.39
-40.93
-52.75
-56.18
-52.13
-42.38
-28.84
-13.43
1.86
14.91
23.81
27.44
25.88
20.55
13.79
7.96
4.61
3.98
5.03
6.15
5.87
3.66
0.08
-3.51
-5.59
-5.10
-1.88
3.28
8.93
13.34
15.09
13.48
8.78
2.18
-4.50
-9.44
-11.29
-9.62
-5.05
1.03
6.94
11.20
12.86
11.49
7.15
0.25
-8.47
-17.91
-26.68
-33.35
-36.86
-36.94
-34.26
-30.24
-26.55
-24.48
-24.54
-26.39
-29.15
-31.70
-33.11
-32.86
-30.92
-27.74
-24.06
-20.80
-18.65
-17.94
-18.46
-19.49
-20.04
-19.11
-15.96
-10.35
-2.56
6.66
16.30
25.24
32.55
37.56
39.94
39.79
37.51
33.75
29.24
24.63
20.26
16.14
12.05
7.66
2.79
-2.57
-8.22
-13.85
-19.15
-23.83
-27.65
-30.43
-32.20
-33.21
-33.84
-34.53
-35.53
-36.85
-38.28
-39.48
-40.16
-40.16
-39.39
-37.88
-35.67
-32.87
-29.69
-26.52
-23.83
-22.13
-21.77
-22.78
-24.75
-26.94
-28.44
-28.53
-26.92
-23.85
-19.91
-15.87
-12.35
-9.69
-7.90
-6.65
-5.51
-3.93
-1.53
1.79
5.82
10.14
14.36
18.29
21.99
25.63
29.35
32.98
36.12
38.28
38.99
37.94
35.05
30.63
25.54
21.28
19.66
21.99
28.25
36.42
42.89
43.80
36.90
22.81
5.17
-10.75
-20.17
-20.61
-12.81
-0.21
12.16
19.15
16.53
1.99
-24.18
-58.69
-95.61
-127.90
-149.46
-157.21
-151.72
-136.05
-113.20
-84.09
-47.39
-1.65
51.63
106.27
152.28
179.60
182.33
161.41
124.43
82.95
48.90
31.58
35.78
61.04
101.98
149.30
191.95
220.23
228.77
218.16
194.14
164.77
137.16
115.35
99.86
88.86
79.62
69.38
55.43
35.23
7.04
-28.55
-67.62
-103.95
-131.29
-145.82
-147.90
-141.64
-132.88
-126.61
-124.18
-122.75
-117.47
-104.37
-82.51
-54.32
-24.58
1.41
19.06
26.91
27.05
23.24
18.59
14.15
8.75
-0.35
-16.58
-43.29
-80.76
-124.81
-167.98
-201.96
-219.85
-218.19
-197.82
-158.60
-109.27
-64.53
-35.66
-23.71
-22.20
-23.63
-23.77
-21.31
-17.83
-15.27
-13.44
-10.01
-2.06
12.33
34.27
62.89
97.04
134.41
170.48
200.00
218.58
223.76
215.48
196.40
171.24
145.77
124.82
110.83
103.81
101.57
99.69
92.21
73.73
42.02
0.04
-44.36
-81.32
-102.51
-104.58
-90.37
-67.54
-44.68
-27.64
-17.41
-11.08
-4.64
4.27
15.03
24.67
29.94
29.36
23.70
14.90
4.14
-9.21
-27.09
-50.70
-78.31
-104.64
-122.44
-126.10
-114.95
-94.52
-74.82
-66.17
-74.84
-100.54
-136.73
-173.57
-201.86
-216.21
-216.25
-206.04
-192.14
-181.53
-179.90
-190.42
-212.98
-244.04
-277.24
-304.90
-320.26
-319.34
-301.77
-270.48
-230.20
-186.04
-142.37
-102.39
-68.29
-41.27
-21.36
-7.28
3.54
14.37
28.25
47.00
70.69
98.10
127.56
157.87
188.76
220.71
254.21
288.74
322.18
350.90
370.86
379.03
374.41
358.60
335.40
310.13
288.83
276.96
277.89
291.63
313.82
336.09
348.32
342.33
315.30
271.08
218.44
166.63
121.79
84.72
51.36
15.71
-26.50
-75.56
-127.37
-174.99
-211.63
-231.53
-232.03
-215.29
-188.64
-162.50
-146.57
-146.10
-159.75
-181.41
-201.01
-208.77
-199.53
-174.90
-141.98
-110.52
-89.85
-86.47
-103.96
-139.45
-184.02
-225.69
-253.56
-260.72
-245.91
-213.13
-160.33
-96.42
-35.99
9.70
38.23
52.90
57.99
57.00
52.51
47.58
44.05
44.56
51.62
66.37
87.02
110.66
134.35
155.67
172.57
182.07
182.72
175.00
160.73
141.92
120.54
98.31
76.64
56.63
38.42
22.60
10.16
1.67
-3.53
-6.94
-10.17
-14.10
-18.76
-23.79
-28.22
-30.84
-30.90
-28.69
-25.29
-21.93
-19.28
-17.44
-16.08
-14.62
-12.38
-9.06
-5.01
-1.01
2.19
4.36
5.22
4.40
1.91
-1.22
-2.63
0.47
9.97
25.63
44.97
63.36
75.90
79.48
73.99
63.90
55.91
54.18
56.89
60.89
63.95
65.22
64.70
63.09
59.92
53.61
42.16
24.35
0.75
-27.15
-57.52
-88.63
-118.96
-146.91
-171.24
-191.42
-207.36
-218.69
-224.75
-224.13
-215.19
-197.18
-171.36
-142.40
-118.09
-106.69
-113.10
-136.45
-169.24
-199.99
-217.38
-213.68
-187.45
-143.47
-90.18
-36.03
12.61
52.84
84.70
105.61
113.90
110.66
99.34
83.96
69.43
57.30
48.39
42.95
40.93
43.09
49.96
62.57
81.86
108.02
139.25
171.48
198.28
212.46
209.20
187.80
152.26
109.64
67.56
31.21
2.44
-19.99
-38.53
-54.44
-67.06
-74.26
-73.84
-64.80
-48.22
-27.04
-5.53
11.82
21.67
22.67
15.96
4.82
-6.25
-12.84
-11.62
-1.06
18.66
46.09
78.76
113.35
145.73
171.39
186.40
188.59
178.43
158.94
134.79
110.63
89.59
72.51
58.23
44.57
29.59
12.39
-6.64
-26.03
-43.80
-58.01
-67.22
-70.82
-69.31
-64.23
-57.97
-53.10
-51.58
-54.03
-59.53
-65.95
-70.95
-72.85
-71.31
-67.22
-62.03
-56.85
-51.92
-46.73
-40.61
-33.42
-25.86
-19.18
-14.66
-13.11
-14.71
-19.10
-25.64
-33.47
-41.46
-48.22
-52.17
-51.96
-46.90
-37.23
-24.17
-9.46
5.03
17.76
27.70
34.36
37.67
37.96
35.81
32.07
27.69
23.64
20.67
19.15
18.94
19.50
20.13
20.34
20.04
19.34
18.33
16.61
13.39
7.95
0.22
-8.87
-17.61
-24.37
-28.31
-29.61
-28.99
-26.90
-23.09
-16.79
-7.59
3.88
15.79
25.82
32.22
34.36
32.93
29.31
24.77
20.04
15.38
10.99
7.30
4.99
4.59
6.33
9.83
14.24
18.45
21.45
22.72
22.41
21.24
19.98
19.27
19.22
19.32
18.54
15.79
10.56
3.25
-4.77
-11.89
-15.99
-15.06
-8.37
2.92
15.99
27.72
36.07
40.94
42.76
42.95
42.84
42.60
41.26
37.55
31.13
22.48
12.48
0.01
-15.44
-32.99
-50.75
-66.99
-81.32
-95.06
-111.43
-134.14
-167.51
-211.17
-258.93
-300.79
-327.04
-331.64
-313.66
-277.59
-218.16
-142.59
-66.56
-5.22
35.41
58.13
68.08
71.53
72.69
75.01
79.66
88.54
103.19
122.76
143.03
157.65
161.37
152.21
132.62
106.53
79.65
57.24
41.85
32.55
26.27
20.43
14.25
9.03
5.92
6.13
10.35
18.25
28.58
39.78
50.92
61.57
71.54
79.81
85.29
87.18
85.32
80.10
72.34
63.19
53.72
44.74
36.52
29.08
22.30
15.95
9.70
3.24
-3.51
-10.32
-16.82
-22.62
-27.65
-32.09
-36.32
-40.57
-44.85
-48.89
-52.36
-54.99
-56.67
-57.37
-57.04
-55.59
-52.92
-49.06
-44.12
-38.44
-32.49
-26.88
-22.32
-19.49
-18.83
-20.40
-23.72
-27.86
-31.66
-34.16
-34.90
-34.14
-32.75
-31.92
-32.74
-35.88
-41.37
-48.60
-56.46
-63.49
-68.23
-69.48
-66.59
-59.62
-49.32
-36.98
-24.10
-12.08
-1.94
5.81
11.18
14.63
16.91
18.89
21.22
24.12
27.24
29.82
31.10
30.66
28.75
26.15
23.75
22.14
21.37
20.99
20.46
19.41
17.87
16.11
14.37
12.74
11.05
9.06
6.65
3.92
1.18
-1.11
-2.50
-2.69
-1.61
0.58
3.49
6.58
9.34
11.42
12.64
12.97
12.38
10.81
8.13
4.26
-0.69
-6.34
-12.04
-16.92
-20.18
-21.28
-20.08
-17.06
-13.10
-9.19
-6.13
-4.26
-3.39
-3.08
-2.84
-2.53
-2.28
-2.35
-2.89
-3.71
-4.33
-4.27
-3.25
-1.41
0.72
2.43
3.18
2.71
1.19
-1.05
-3.55
-6.02
-8.23
-10.09
-11.60
-12.87
-14.17
-15.76
-17.71
-19.81
-21.45
-21.83
-20.25
-16.32
-10.20
-2.47
6.11
14.83
23.14
30.69
37.29
42.75
46.95
49.77
51.07
50.78
48.88
45.44
40.54
34.15
26.13
16.27
4.63
-8.25
-21.26
-32.91
-41.66
-46.38
-46.47
-41.94
-33.25
-21.32
-7.41
6.93
20.13
31.09
39.50
46.00
51.79
58.14
65.73
74.54
84.01
93.42
102.20
109.91
115.99
119.65
119.92
116.04
107.89
96.28
82.67
68.74
55.92
45.03
36.39
30.06
25.98
23.87
23.18
22.93
21.98
19.40
14.88
8.89
2.49
-3.20
-7.46
-10.14
-11.45
-11.49
-10.01
-6.54
-0.80
6.60
14.16
19.85
22.00
20.06
14.78
7.75
0.61
-5.49
-10.15
-13.48
-15.68
-16.85
-17.05
-16.34
-14.81
-12.54
-9.59
-6.08
-2.40
0.80
2.79
3.03
1.37
-2.11
-7.39
-14.60
-23.85
-34.79
-46.22
-56.34
-63.30
-66.02
-64.63
-60.41
-55.16
-50.39
-46.88
-44.61
-43.10
-41.91
-40.96
-40.46
-40.83
-42.25
-44.53
-47.08
-49.03
-49.60
-48.33
-45.21
-40.74
-35.70
-31.13
-28.05
-27.28
-29.22
-33.67
-39.83
-46.50
-52.47
-56.81
-59.03
-58.99
-56.71
-52.26
-45.82
-37.80
-29.07
-20.87
-14.59
-11.37
-11.61
-14.94
-20.24
-26.11
-31.17
-34.50
-35.51
-33.91
-29.58
-22.49
-12.93
-1.58
10.67
23.28
36.60
51.88
70.59
93.23
118.32
142.40
161.18
171.24
171.40
163.06
149.29
133.45
117.88
103.60
90.70
79.11
69.11
61.24
55.85
52.58
50.29
47.38
42.46
34.94
25.44
15.47
6.77
0.58
-2.89
-4.36
-5.06
-6.06
-7.90
-10.53
-13.53
-16.51
-19.22
-21.63
-23.68
-25.30
-26.36
-26.78
-26.68
-26.34
-25.97
-25.60
-24.99
-23.77
-21.68
-18.86
-15.91
-13.62
-12.76
-13.57
-15.84
-18.97
-22.34
-25.60
-28.73
-31.83
-34.85
-37.52
-39.37
-40.05
-39.54
-38.29
-37.07
-36.71
-37.82
-40.64
-45.05
-50.54
-56.31
-61.43
-64.96
-66.35
-65.59
-63.32
-60.58
-58.39
-57.30
-57.27
-57.94
-58.95
-60.33
-62.48
-65.76
-70.07
-74.59
-78.11
-79.72
-79.48
-78.60
-78.70
-80.75
-84.11
-86.49
-84.94
-77.54
-64.61
-48.77
-33.76
-22.69
-16.76
-15.19
-16.14
-17.78
-19.04
-19.41
-18.59
-16.28
-12.53
-8.17
-4.89
-4.66
-8.51
-15.41
-21.90
-22.94
-13.76
8.25
42.37
84.76
129.74
171.65
206.40
232.31
249.92
261.11
268.17
272.95
276.47
278.77
278.96
275.32
265.64
247.81
220.73
185.07
143.50
100.22
59.78
25.86
0.20
-17.60
-29.55
-38.15
-45.37
-52.10
-58.25
-63.32
-66.95
-69.20
-70.39
-70.84
-70.53
-69.30
-66.96
-63.59
-59.57
-55.35
-51.24
-47.21
-43.05
-38.52
-33.73
-29.12
-25.31
-22.85
-21.91
-22.23
-23.15
-23.88
-23.87
-22.87
-21.04
-18.76
-16.44
-14.33
-12.55
-11.10
-9.93
-9.15
-8.90
-9.36
-10.69
-12.94
-16.01
-19.73
-23.90
-28.23
-32.48
-36.35
-39.62
-42.08
-43.61
-44.16
-43.73
-42.48
-40.68
-38.66
-36.70
-34.95
-33.42
-31.94
-30.29
-28.24
-25.65
-22.45
-18.67
-14.37
-9.71
-4.86
0.03
4.79
9.31
13.49
17.25
20.44
22.93
24.59
25.35
25.28
24.55
23.36
21.94
20.45
18.98
17.56
16.20
14.89
13.61
12.36
11.15
9.98
8.88
7.81
6.73
5.51
4.04
2.27
0.32
-1.50
-2.78
-3.17
-2.55
-1.11
0.67
2.23
3.14
3.25
2.75
1.99
1.26
0.70
0.24
-0.21
-0.69
-1.13
-1.37
-1.33
-0.99
-0.47
0.08
0.54
0.80
0.77
0.35
-0.53
-1.93
-3.83
-6.24
-9.15
-12.54
-16.25
-19.93
-23.02
-24.94
-25.33
-24.17
-21.79
-18.74
-15.60
-12.80
-10.62
-9.20
-8.62
-8.97
-10.34
-12.74
-16.02
-19.76
-23.40
-26.30
-28.00
-28.41
-27.84
-26.77
-25.59
-24.27
-22.42
-19.56
-15.39
-9.98
-3.64
3.38
11.07
19.54
28.82
38.52
47.83
55.79
61.68
65.31
67.00
67.30
66.64
65.12
62.56
58.66
53.25
46.47
38.72
30.64
22.89
16.02
10.24
5.45
1.25
-2.76
-6.88
-11.13
-15.34
-19.30
-22.92
-26.36
-29.81
-33.35
-36.85
-40.02
-42.62
-44.61
-46.19
-47.60
-48.91
-49.82
-49.79
-48.27
-44.96
-39.77
-32.60
-23.12
-10.74
5.17
24.83
47.68
72.33
96.97
120.01
140.61
158.72
174.72
188.77
200.42
208.67
212.49
211.46
205.94
196.89
185.39
172.17
157.50
141.47
124.24
105.96
86.70
66.24
44.18
20.44
-4.26
-28.29
-49.58
-66.45
-78.24
-85.47
-89.31
-91.01
-91.59
-91.98
-93.25
-96.52
-102.62
-111.52
-122.07
-132.44
-140.77
-145.93
-147.89
-147.64
-146.72
-146.96
-150.16
-157.68
-169.79
-184.93
-199.52
-208.84
-208.70
-197.10
-174.98
-145.53
-112.54
-78.87
-45.84
-13.82
16.68
44.30
67.08
83.45
93.12
97.30
98.01
97.04
95.26
92.59
88.51
82.58
74.78
65.46
55.26
44.87
35.07
26.59
19.97
15.28
12.00
9.22
6.07
2.23
-2.01
-5.85
-8.60
-10.06
-10.62
-10.97
-11.61
-12.54
-13.32
-13.34
-12.19
-9.87
-6.65
-2.88
1.05
4.94
8.65
12.25
16.02
20.41
25.78
32.08
38.67
44.38
47.93
48.41
45.70
40.39
33.54
26.16
18.99
12.48
6.80
1.98
-2.08
-5.53
-8.68
-11.81
-15.02
-18.24
-21.15
-23.40
-24.75
-25.31
-25.51
-25.99
-27.30
-29.59
-32.55
-35.55
-38.19
-40.59
-43.35
-47.13
-51.95
-56.68
-59.12
-56.65
-47.20
-30.08
-6.28
21.97
51.93
81.10
107.67
130.41
148.44
161.08
167.90
169.01
165.18
157.68
147.83
136.44
123.49
108.41
90.58
70.05
47.73
25.07
3.60
-15.57
-31.93
-45.45
-56.37
-64.95
-71.43
-75.99
-78.75
-79.76
-79.13
-77.15
-74.27
-71.08
-68.03
-65.23
-62.38
-59.00
-54.76
-49.71
-44.23
-38.81
-33.83
-29.43
-25.65
-22.52
-20.08
-18.27
-16.83
-15.30
-13.18
-10.15
-6.24
-1.85
2.41
5.97
8.48
9.93
10.71
11.43
12.66
14.72
17.50
20.53
23.25
25.27
26.50
27.14
27.43
27.45
26.98
25.66
23.02
18.64
12.06
2.79
-9.56
-24.98
-42.73
-61.28
-78.63
-92.82
-102.56
-107.46
-107.90
-104.64
-98.43
-89.86
-79.48
-68.07
-56.61
-46.14
-37.40
-30.51
-25.11
-20.52
-16.24
-12.12
-8.28
-4.91
-2.09
0.33
2.59
4.89
7.25
9.46
11.14
11.85
11.21
9.04
5.41
0.78
-4.12
-8.40
-11.27
-12.33
-11.64
-9.65
-6.97
-4.05
-1.19
1.53
3.99
6.00
7.35
7.98
8.03
7.81
7.61
7.49
7.18
6.33
4.71
2.47
0.07
-1.87
-2.95
-3.13
-2.72
-2.18
-1.87
-1.98
-2.45
-3.12
-3.77
-4.27
-4.44
-4.11
-3.10
-1.27
1.28
4.24
7.11
9.35
10.62
10.92
10.62
10.16
9.89
9.81
9.61
8.86
7.34
5.14
2.68
0.48
-1.17
-2.23
-2.96
-3.61
-4.37
-5.12
-5.68
-5.85
-5.68
-5.46
-5.62
-6.48
-8.09
-10.12
-11.90
-12.74
-12.11
-9.94
-6.54
-2.47
1.72
5.66
9.19
12.25
14.75
16.47
17.16
16.67
15.14
12.95
10.65
8.75
7.54
7.02
6.95
6.99
6.89
6.45
5.65
4.49
2.98
1.17
-0.92
-3.21
-5.58
-7.81
-9.66
-10.83
-11.09
-10.31
-8.54
-5.97
-2.90
0.38
3.70
6.92
9.92
12.48
14.30
15.11
14.74
13.33
11.20
8.78
6.44
4.35
2.53
0.89
-0.58
-1.79
-2.56
-2.76
-2.41
-1.74
-1.08
-0.81
-1.24
-2.39
-4.12
-6.10
-8.00
-9.57
-10.66
-11.21
-11.14
-10.40
-8.95
-6.90
-4.54
-2.30
-0.65
0.03
-0.40
-1.78
-3.75
-5.81
-7.56
-8.75
-9.34
-9.47
-9.39
-9.34
-9.55
-10.16
-11.26
-12.88
-15.04
-17.72
-20.94
-24.74
-29.22
-34.44
-40.42
-47.01
-53.77
-59.98
-64.74
-67.28
-67.14
-64.30
-58.99
-51.42
-41.53
-28.82
-12.66
7.42
31.20
57.59
84.69
110.11
131.54
147.22
156.19
158.36
154.30
144.97
131.45
114.80
96.04
76.30
56.89
39.11
23.92
11.65
1.92
-6.15
-13.49
-20.61
-27.39
-33.20
-37.24
-38.97
-38.34
-35.79
-32.02
-27.75
-23.51
-19.56
-16.01
-12.95
-10.48
-8.71
-7.71
-7.37
-7.37
-7.30
-6.75
-5.57
-3.86
-1.95
-0.26
0.87
1.34
1.27
0.93
0.65
0.66
1.05
1.68
2.22
2.30
1.59
0.06
-2.05
-4.20
-5.76
-6.19
-5.16
-2.70
0.91
5.16
9.47
13.28
16.25
18.21
19.22
19.44
18.99
17.89
16.04
13.37
9.89
5.84
1.59
-2.38
-5.68
-8.12
-9.77
-10.89
-11.73
-12.43
-12.93
-13.06
-12.71
-12.01
-11.37
-11.34
-12.35
-14.43
-17.11
-19.55
-20.93
-20.78
-19.12
-16.44
-13.38
-10.46
-7.96
-5.91
-4.22
-2.89
-2.02
-1.72
-2.06
-2.96
-4.17
-5.40
-6.33
-6.72
-6.46
-5.61
-4.38
-3.11
-2.20
-1.86
-2.09
-2.57
-2.82
-2.41
-1.14
0.78
2.85
4.40
4.91
4.16
2.41
0.22
-1.64
-2.53
-2.16
-0.66
1.50
3.67
5.26
5.91
5.53
4.28
2.44
0.26
-2.05
-4.43
-6.74
-8.80
-10.33
-10.97
-10.45
-8.80
-6.34
-3.63
-1.26
0.44
1.35
1.52
1.01
-0.15
-2.00
-4.46
-7.37
-10.52
-13.66
-16.59
-19.14
-21.03
-21.97
-21.73
-20.25
-17.74
-14.60
-11.26
-7.96
-4.71
-1.24
2.79
7.76
13.81
20.67
27.62
33.67
37.92
39.90
39.71
37.87
34.89
31.00
26.08
19.89
12.47
4.23
-4.06
-11.63
-17.92
-22.66
-25.82
-27.47
-27.75
-26.92
-25.35
-23.41
-21.28
-18.89
-16.04
-12.59
-8.64
-4.54
-0.71
2.51
4.91
6.36
6.80
6.30
5.31
4.78
6.03
10.17
17.50
27.18
37.48
46.35
52.30
54.70
53.75
50.13
44.58
37.77
30.45
23.53
17.94
14.34
12.82
12.86
13.76
15.01
16.51
18.46
20.90
23.43
25.23
25.37
23.43
19.79
15.67
12.53
11.59
13.21
16.79
21.01
24.27
25.22
23.21
18.64
12.85
7.87
5.62
7.10
11.42
15.55
14.92
5.08
-16.20
-47.31
-82.50
-113.37
-131.44
-131.18
-112.00
-78.49
-38.74
-1.48
26.72
43.12
48.72
46.87
41.32
34.88
29.12
24.83
22.55
22.71
25.19
28.90
31.81
31.81
27.85
20.65
12.31
5.01
-0.27
-4.29
-8.79
-15.10
-22.87
-29.98
-33.49
-31.34
-23.50
-11.91
0.47
11.00
18.27
22.07
22.72
20.46
15.25
7.19
-2.86
-13.11
-21.29
-25.58
-25.37
-21.61
-16.32
-11.77
-9.62
-10.33
-13.23
-16.91
-19.80
-20.68
-19.00
-14.97
-9.28
-2.90
3.22
8.25
11.59
12.99
12.65
11.37
10.29
10.51
12.61
16.19
19.99
22.41
22.35
19.66
15.31
10.77
7.38
5.62
5.20
5.21
4.72
3.23
0.83
-1.98
-4.60
-6.65
-8.21
-9.76
-11.90
-15.02
-19.01
-23.29
-27.10
-30.01
-32.11
-33.93
-35.98
-38.30
-40.43
-41.75
-42.00
-41.44
-40.67
-39.84
-38.17
-34.07
-25.65
-11.76
7.34
29.83
52.83
73.32
88.87
98.15
100.89
97.65
89.37
77.23
62.40
46.06
29.52
14.00
0.52
-10.54
-19.53
-27.41
-35.18
-43.22
-50.93
-56.79
-59.18
-57.10
-50.77
-41.51
-31.21
-21.54
-13.44
-6.99
-1.82
2.50
6.20
9.24
11.52
13.06
14.04
14.76
15.50
16.32
17.07
17.40
16.90
15.25
12.40
8.53
4.12
-0.29
-4.22
-7.49
-10.19
-12.67
-15.33
-18.38
-21.67
-24.72
-26.85
-27.51
-26.55
-24.26
-21.31
-18.41
-16.04
-14.34
-13.22
-12.54
-12.29
-12.61
-13.63
-15.24
-17.01
-18.30
-18.62
-17.88
-16.46
-15.05
-14.28
-14.47
-15.47
-16.90
-18.35
-19.63
-20.72
-21.76
-22.83
-23.87
-24.57
-24.49
-23.21
-20.44
-16.12
-10.46
-3.90
2.99
9.67
15.71
20.81
24.74
27.33
28.55
28.49
27.45
25.81
23.98
22.26
20.80
19.60
18.58
17.54
16.23
14.37
11.75
8.38
4.53
0.70
-2.59
-5.03
-6.64
-7.65
-8.32
-8.80
-8.97
-8.58
-7.42
-5.43
-2.80
0.21
3.29
6.23
8.82
10.84
12.09
12.44
11.97
10.90
9.61
8.44
7.50
6.76
6.02
5.13
4.04
2.82
1.65
0.68
0.06
-0.14
0.08
0.64
1.38
2.08
2.55
2.63
2.31
1.67
0.91
0.24
-0.13
-0.09
0.41
1.29
2.42
3.66
4.87
5.87
6.50
6.65
6.23
5.29
4.04
2.74
1.72
1.20
1.20
1.59
2.11
2.46
2.41
1.83
0.66
-1.04
-3.12
-5.36
-7.55
-9.53
-11.23
-12.64
-13.73
-14.38
-14.39
-13.52
-11.68
-8.95
-5.66
-2.18
1.18
4.27
7.07
9.55
11.57
12.96
13.58
13.44
12.72
11.76
10.82
10.06
9.42
8.71
7.77
6.54
5.11
3.67
2.39
1.32
0.40
-0.56
-1.78
-3.41
-5.42
-7.60
-9.60
-11.00
-11.50
-10.94
-9.39
-7.13
-4.54
-1.89
0.60
2.88
4.90
6.56
7.69
8.20
8.12
7.65
7.14
6.84
6.85
7.04
7.13
6.88
6.20
5.17
4.01
2.92
1.94
0.98
-0.17
-1.68
-3.62
-5.88
-8.26
-10.46
-12.20
-13.28
-13.51
-12.86
-11.36
-9.15
-6.44
-3.45
-0.37
2.62
5.36
7.64
9.31
10.24
10.44
10.06
9.39
8.70
8.16
7.79
7.47
7.11
6.59
5.90
5.07
4.10
2.99
1.67
0.11
-1.67
-3.59
-5.55
-7.49
-9.39
-11.29
-13.14
-14.78
-15.84
-15.90
-14.68
-12.17
-8.74
-4.98
-1.45
1.51
3.86
5.83
7.63
9.30
10.74
11.73
12.19
12.18
11.92
11.61
11.32
10.95
10.32
9.36
8.16
6.92
5.90
5.18
4.68
4.18
3.44
2.28
0.67
-1.32
-3.50
-5.60
-7.31
-8.35
-8.52
-7.80
-6.32
-4.36
-2.21
-0.09
1.87
3.64
5.21
6.55
7.58
8.22
8.44
8.24
7.76
7.20
6.73
6.51
6.51
6.60
6.58
6.31
5.78
5.08
4.41
3.84
3.34
2.77
1.98
0.96
-0.22
-1.41
-2.53
-3.60
-4.65
-5.59
-6.22
-6.22
-5.37
-3.69
-1.44
0.94
3.00
4.49
5.34
5.64
5.53
5.14
4.56
3.91
3.37
3.08
3.11
3.36
3.58
3.45
2.78
1.55
-0.04
-1.62
-2.94
-3.91
-4.65
-5.42
-6.44
-7.78
-9.36
-11.03
-12.67
-14.14
-15.28
-15.87
-15.69
-14.60
-12.66
-10.16
-7.52
-5.15
-3.30
-1.99
-1.08
-0.38
0.25
0.87
1.46
2.02
2.54
2.99
3.38
3.66
3.78
3.76
3.60
3.38
3.18
3.05
2.93
2.68
2.12
1.07
-0.51
-2.57
-4.91
-7.22
-9.14
-10.34
-10.60
-9.88
-8.33
-6.27
-4.05
-1.94
-0.08
1.50
2.83
3.93
4.77
5.26
5.35
5.05
4.43
3.61
2.65
1.64
0.58
-0.49
-1.54
-2.47
-3.16
-3.53
-3.58
-3.45
-3.34
-3.49
-4.04
-4.98
-6.15
-7.29
-8.12
-8.39
-7.96
-6.75
-4.83
-2.45
0.05
2.26
3.87
4.73
4.96
4.80
4.53
4.32
4.21
4.17
4.14
4.09
4.01
3.93
3.82
3.60
3.16
2.45
1.47
0.34
-0.80
-1.78
-2.54
-3.16
-3.81
-4.68
-5.81
-7.02
-7.96
-8.21
-7.55
-6.04
-4.01
-1.91
-0.08
1.38
2.58
3.67
4.74
5.67
6.25
6.30
5.87
5.15
4.46
4.01
3.84
3.88
3.94
3.90
3.73
3.50
3.30
3.14
2.98
2.71
2.23
1.40
0.20
-1.26
-2.74
-3.91
-4.43
-4.07
-2.88
-1.12
0.79
2.43
3.55
4.07
4.14
3.94
3.65
3.39
3.17
3.02
2.94
2.99
3.13
3.35
3.55
3.63
3.56
3.36
3.13
2.95
2.80
2.54
1.99
0.97
-0.57
-2.55
-4.74
-6.84
-8.59
-9.75
-10.18
-9.80
-8.67
-6.95
-4.95
-3.04
-1.52
-0.59
-0.20
-0.23
-0.44
-0.67
-0.83
-0.94
-1.07
-1.27
-1.54
-1.84
-2.11
-2.31
-2.46
-2.61
-2.89
-3.39
-4.11
-5.01
-5.97
-6.93
-7.87
-8.82
-9.73
-10.39
-10.50
-9.71
-7.86
-5.10
-1.88
1.18
3.58
5.07
5.76
5.91
5.80
5.60
5.31
4.87
4.29
3.63
3.05
2.70
2.65
2.81
3.05
3.20
3.12
2.75
2.04
0.98
-0.41
-2.10
-3.99
-5.88
-7.51
-8.60
-8.94
-8.43
-7.15
-5.29
-3.11
-0.90
1.14
2.88
4.27
5.33
6.09
6.60
6.88
6.96
6.86
6.61
6.22
5.73
5.19
4.63
4.14
3.73
3.40
3.07
2.61
1.90
0.86
-0.52
-2.25
-4.34
-6.77
-9.43
-12.05
-14.14
-15.18
-14.80
-13.07
-10.50
-7.91
-6.11
-5.56
-6.21
-7.62
-9.21
-10.45
-11.10
-11.09
-10.47
-9.29
-7.62
-5.58
-3.38
-1.31
0.34
1.40
1.82
1.72
1.22
0.45
-0.59
-1.90
-3.51
-5.34
-7.26
-9.09
-10.68
-11.97
-12.94
-13.57
-13.80
-13.53
-12.70
-11.38
-9.83
-8.46
-7.68
-7.85
-9.08
-11.35
-14.46
-18.12
-21.95
-25.42
-27.89
-28.73
-27.49
-24.03
-18.60
-11.60
-3.45
5.59
15.33
25.58
35.89
45.54
53.74
59.83
63.53
65.05
64.91
63.76
62.17
60.51
58.93
57.39
55.78
53.94
51.71
48.94
45.53
41.43
36.63
31.15
25.05
18.46
11.56
4.59
-2.21
-8.62
-14.48
-19.65
-24.05
-27.58
-30.15
-31.73
-32.37
-32.28
-31.68
-30.70
-29.26
-27.13
-24.10
-20.16
-15.63
-11.00
-6.79
-3.25
-0.28
2.39
5.00
7.57
9.84
11.43
12.08
11.78
10.76
9.38
7.88
6.35
4.70
2.78
0.52
-1.99
-4.52
-6.81
-8.73
-10.29
-11.64
-12.94
-14.31
-15.76
-17.26
-18.78
-20.30
-21.84
-23.37
-24.76
-25.82
-26.35
-26.19
-25.30
-23.75
-21.71
-19.45
-17.23
-15.28
-13.71
-12.49
-11.53
-10.74
-10.13
-9.84
-10.03
-10.82
-12.30
-14.43
-17.14
-20.38
-24.13
-28.35
-32.99
-37.95
-43.09
-48.37
-53.82
-59.57
-65.83
-72.69
-80.09
-87.74
-95.17
-101.88
-107.52
-112.08
-115.83
-119.25
-122.72
-126.19
-128.92
-129.47
-125.93
-116.52
-100.27
-77.30
-48.70
-15.89
20.04
58.42
98.64
139.29
177.81
210.96
235.98
251.66
258.86
259.78
256.64
250.83
243.01
233.88
224.81
217.53
213.03
210.61
207.79
201.72
191.04
177.07
163.18
152.70
146.50
141.87
133.52
115.88
85.54
42.46
-10.40
-68.44
-126.58
-179.93
-223.86
-254.20
-267.98
-264.46
-245.53
-215.56
-180.18
-144.74
-113.17
-87.67
-68.72
-55.37
-45.69
-37.37
-28.69
-19.45
-11.35
-7.46
-10.89
-23.23
-43.96
-70.84
-100.86
-131.10
-158.65
-180.10
-191.61
-189.78
-173.02
-142.82
-103.64
-61.53
-22.48
9.22
32.03
47.27
58.36
69.46
83.69
101.66
120.94
136.84
144.36
140.37
125.03
101.63
75.07
50.26
31.23
21.23
22.76
37.04
62.78
95.49
128.32
154.35
169.64
174.82
174.44
174.22
177.84
184.73
190.20
187.88
172.94
144.24
104.77
60.24
16.74
-21.39
-52.30
-76.41
-95.37
-111.01
-124.42
-135.99
-145.69
-153.48
-159.40
-163.35
-164.73
-162.34
-154.84
-141.38
-122.39
-99.83
-76.86
-57.07
-43.38
-36.98
-36.79
-39.78
-41.94
-39.85
-31.95
-19.11
-4.03
9.87
19.79
24.92
26.74
28.25
32.29
40.04
50.30
59.97
65.65
65.24
58.94
48.81
37.57
27.14
18.22
11.05
6.67
7.56
16.36
33.66
56.28
77.71
90.89
92.12
83.33
71.32
64.31
67.82
82.03
102.24
121.79
135.45
141.17
139.79
133.18
122.55
108.02
89.26
66.67
41.89
17.54
-3.79
-20.46
-32.35
-40.59
-46.96
-53.07
-59.75
-66.84
-73.37
-78.13
-80.28
-79.89
-77.93
-75.88
-75.22
-76.69
-80.08
-84.46
-88.50
-90.83
-90.32
-86.11
-77.77
-65.56
-50.52
-34.40
-19.27
-7.13
0.47
2.40
-2.34
-14.54
-34.54
-61.58
-93.47
-126.77
-157.59
-182.70
-200.27
-209.77
-211.45
-205.99
-194.36
-178.06
-159.32
-140.82
-124.98
-112.95
-104.26
-97.16
-89.49
-79.55
-66.58
-50.64
-32.18
-11.88
9.46
31.09
52.55
73.96
95.87
118.86
142.78
166.47
187.98
205.36
217.46
224.23
226.63
225.88
222.81
217.62
210.07
199.85
186.89
171.45
153.96
134.97
115.09
94.99
75.28
56.40
38.63
22.25
7.61
-4.95
-15.32
-23.89
-31.37
-38.45
-45.29
-51.26
-55.23
-56.17
-53.81
-48.90
-42.87
-37.21
-32.76
-29.54
-27.01
-24.66
-22.37
-20.45
-19.32
-19.14
-19.72
-20.66
-21.69
-22.81
-24.11
-25.63
-27.16
-28.36
-28.93
-28.87
-28.37
-27.76
-27.06
-25.80
-23.18
-18.39
-11.14
-1.86
8.42
18.55
27.71
35.67
42.44
47.73
50.31
48.01
38.43
20.02
-6.82
-39.50
-74.08
-106.60
-134.34
-156.19
-172.07
-181.95
-185.12
-180.44
-167.09
-145.65
-118.41
-88.81
-60.18
-34.74
-13.22
4.80
20.08
33.12
43.97
52.53
58.83
63.18
65.92
67.25
67.21
65.73
62.84
58.82
54.24
49.75
46.01
43.49
42.38
42.56
43.57
44.83
45.84
46.33
46.22
45.57
44.46
42.80
40.47
37.36
33.53
29.24
24.82
20.59
16.69
13.20
10.09
7.38
5.16
3.49
2.45
1.93
1.74
1.48
0.72
-0.88
-3.40
-6.55
-9.69
-11.99
-12.82
-11.91
-9.54
-6.44
-3.59
-1.92
-2.07
-4.22
-8.05
-12.88
-17.86
-22.23
-25.61
-28.02
-29.84
-31.52
-33.32
-35.14
-36.65
-37.48
-37.42
-36.53
-35.08
-33.43
-31.92
-30.82
-30.39
-30.83
-32.16
-34.14
-36.29
-37.97
-38.61
-38.01
-36.39
-34.25
-32.17
-30.56
-29.59
-29.28
-29.66
-30.74
-32.50
-34.74
-36.98
-38.63
-39.24
-38.81
-37.85
-37.16
-37.42
-38.84
-41.03
-43.23
-44.58
-44.51
-42.95
-40.32
-37.44
-35.25
-34.47
-35.32
-37.32
-39.49
-40.59
-39.68
-36.47
-31.29
-24.95
-18.31
-11.88
-5.56
1.62
11.35
25.50
45.08
69.38
95.60
119.39
136.19
142.78
138.33
124.54
104.89
83.35
63.31
47.07
35.71
29.25
26.77
26.76
27.46
27.23
24.97
20.10
12.43
2.12
-10.17
-23.15
-34.84
-43.05
-46.09
-43.44
-36.06
-26.09
-16.06
-8.00
-2.93
-0.69
-0.35
-0.73
-0.89
-0.33
0.95
2.55
4.04
5.06
5.44
5.21
4.58
3.91
3.61
3.98
5.06
6.46
7.41
7.05
4.79
0.67
-4.62
-10.08
-14.90
-18.66
-21.37
-23.15
-23.97
-23.74
-22.34
-19.88
-16.61
-12.74
-8.31
-3.13
3.06
10.64
20.02
31.44
44.82
59.52
74.50
88.72
101.53
112.90
123.07
131.94
138.61
141.56
139.25
131.10
117.89
101.52
84.13
67.30
51.76
37.67
25.23
14.82
6.82
1.17
-2.72
-5.76
-8.66
-11.54
-13.87
-14.83
-13.84
-10.94
-6.77
-2.35
1.33
3.69
4.60
4.30
3.10
1.29
-0.97
-3.57
-6.47
-9.58
-12.89
-16.38
-20.06
-23.88
-27.73
-31.49
-34.97
-38.02
-40.51
-42.33
-43.42
-43.90
-43.97
-43.91
-43.98
-44.34
-45.00
-45.86
-46.69
-47.21
-47.10
-46.15
-44.33
-41.70
-38.40
-34.48
-29.94
-24.76
-19.11
-13.40
-8.28
-4.33
-1.78
-0.37
0.54
1.64
3.30
5.39
7.53
9.39
10.94
12.51
14.47
16.94
19.56
21.68
22.66
22.35
21.12
19.80
19.18
19.58
20.74
21.95
22.48
21.89
20.29
18.23
16.39
15.27
14.91
14.91
14.51
13.04
10.17
6.22
1.98
-1.62
-3.89
-4.72
-4.59
-4.27
-4.50
-5.65
-7.67
-10.20
-12.86
-15.29
-17.26
-18.58
-19.05
-18.62
-17.48
-16.12
-15.25
-15.50
-17.14
-19.98
-23.46
-26.84
-29.44
-30.82
-30.80
-29.30
-26.40
-22.28
-17.29
-12.00
-7.09
-3.21
-0.79
0.09
-0.16
-0.78
-0.83
0.47
3.40
7.59
12.05
15.60
17.41
17.32
15.97
14.46
13.90
14.96
17.59
21.12
24.44
26.43
26.26
23.61
18.79
12.54
5.85
-0.41
-5.62
-9.54
-12.22
-13.82
-14.55
-14.62
-14.24
-13.64
-13.05
-12.65
-12.55
-12.77
-13.26
-13.95
-14.71
-15.42
-15.97
-16.32
-16.48
-16.57
-16.70
-16.87
-16.99
-16.89
-16.55
-16.12
-16.03
-16.79
-18.79
-22.01
-26.00
-29.95
-33.07
-34.81
-35.15
-34.56
-33.69
-33.12
-33.13
-33.66
-34.42
-35.16
-35.80
-36.54
-37.77
-39.93
-43.41
-48.34
-54.51
-61.15
-67.00
-70.47
-70.18
-65.55
-57.21
-46.98
-37.34
-30.66
-28.40
-30.76
-36.73
-44.65
-52.71
-59.48
-64.13
-66.46
-66.61
-64.83
-61.08
-54.87
-45.51
-32.55
-16.29
2.10
20.83
38.20
53.10
65.22
74.76
81.98
86.90
89.49
89.92
88.72
86.69
84.41
81.91
78.73
74.33
68.59
61.94
55.20
49.06
43.76
38.94
33.93
28.15
21.35
13.87
6.45
-0.04
-4.83
-7.59
-8.46
-8.05
-7.11
-6.35
-6.16
-6.53
-7.13
-7.56
-7.57
-7.24
-6.91
-7.02
-7.85
-9.38
-11.24
-12.77
-13.27
-12.20
-9.33
-5.03
-0.39
3.02
3.76
1.45
-2.61
-5.61
-4.58
1.83
12.21
22.62
28.41
26.78
18.43
7.14
-2.49
-7.56
-8.01
-5.94
-3.55
-1.58
0.88
5.23
11.91
20.31
29.71
40.21
52.70
67.68
83.61
96.31
100.35
91.88
71.31
43.80
17.17
-1.53
-8.93
-5.73
4.86
19.30
35.05
50.32
63.04
70.40
69.79
60.41
44.36
26.21
11.00
1.92
-0.84
0.44
2.96
5.19
7.26
10.08
14.02
18.22
20.77
19.80
14.52
5.58
-5.29
-16.19
-25.64
-32.93
-37.96
-40.81
-41.40
-39.65
-35.80
-30.62
-25.35
-21.08
-18.20
-16.06
-13.51
-9.60
-4.40
1.03
5.29
7.49
7.66
6.65
5.47
4.71
4.46
4.65
5.44
7.27
10.57
15.34
20.90
26.22
30.35
32.83
33.82
33.82
33.34
32.63
31.69
30.54
29.51
29.42
31.38
36.29
44.22
54.05
63.66
70.68
73.41
71.47
65.80
58.05
49.74
41.55
33.36
24.77
15.64
6.52
-1.44
-6.89
-8.62
-5.83
1.66
13.49
28.84
46.70
66.12
86.24
106.10
124.35
139.13
148.43
150.65
145.47
134.13
119.15
103.36
88.81
75.93
63.31
48.32
27.98
0.17
-35.44
-77.01
-120.73
-161.77
-195.52
-218.69
-229.84
-229.39
-219.20
-201.95
-180.58
-157.90
-136.31
-117.51
-102.36
-90.75
-81.83
-74.44
-67.52
-60.49
-53.30
-46.39
-40.48
-36.31
-34.34
-34.63
-36.71
-39.66
-42.51
-44.45
-45.20
-45.05
-44.80
-45.38
-47.48
-51.23
-56.09
-61.13
-65.48
-68.74
-71.13
-73.37
-76.20
-79.99
-84.52
-89.05
-92.61
-94.16
-92.68
-87.18
-76.79
-60.99
-40.04
-15.06
11.99
38.92
63.98
86.24
105.47
121.73
134.93
144.58
150.16
151.43
148.77
143.07
135.45
126.83
117.76
108.45
98.93
89.23
79.36
69.32
59.01
48.40
37.60
27.02
17.20
8.73
2.04
-2.63
-5.32
-6.24
-5.80
-4.49
-2.87
-1.46
-0.62
-0.50
-0.98
-1.81
-2.69
-3.46
-4.09
-4.76
-5.69
-7.06
-8.88
-11.00
-13.21
-15.36
-17.40
-19.53
-21.99
-24.95
-28.39
-32.16
-35.97
-39.64
-43.16
-46.72
-50.58
-54.87
-59.52
-64.15
-68.20
-71.15
-72.62
-72.61
-71.49
-69.89
-68.45
-67.55
-67.16
-66.78
-65.59
-62.71
-57.39
-49.21
-38.17
-24.69
-9.62
5.83
20.40
33.19
43.99
53.22
61.56
69.37
76.36
81.64
84.23
83.67
80.22
74.70
67.96
60.43
52.05
42.58
31.99
20.73
9.54
-0.86
-9.98
-17.71
-24.00
-28.85
-32.18
-34.10
-34.98
-35.42
-36.04
-37.06
-38.26
-39.02
-38.68
-36.91
-33.89
-30.12
-26.10
-22.06
-18.01
-13.96
-10.19
-7.17
-5.27
-4.11
-2.57
0.69
6.39
13.89
21.35
26.83
29.75
31.70
35.78
44.55
58.12
73.45
85.66
90.60
86.85
76.10
61.53
45.73
29.33
11.46
-8.40
-28.73
-45.90
-56.12
-57.84
-53.08
-46.51
-42.93
-44.78
-51.25
-59.55
-66.78
-71.77
-75.06
-77.40
-78.06
-74.70
-65.00
-48.97
-30.16
-14.60
-7.73
-11.48
-23.14
-36.95
-47.13
-50.30
-45.95
-34.89
-17.10
8.83
44.17
87.58
133.86
175.21
204.36
217.76
216.79
206.33
192.12
178.32
166.64
156.78
147.68
138.32
127.84
115.34
100.03
81.68
61.08
40.04
20.64
4.31
-8.61
-18.71
-26.94
-34.06
-40.42
-46.12
-51.20
-55.83
-60.03
-63.64
-66.27
-67.42
-66.77
-64.48
-61.36
-58.60
-57.37
-58.10
-60.19
-62.23
-62.66
-60.49
-55.78
-49.55
-43.15
-37.67
-33.44
-30.18
-27.42
-24.88
-22.64
-20.95
-20.03
-19.79
-19.98
-20.31
-20.63
-20.92
-21.22
-21.49
-21.61
-21.56
-21.48
-21.66
-22.36
-23.54
-24.77
-25.28
-24.37
-21.68
-17.45
-12.42
-7.48
-3.26
0.16
3.13
6.17
9.46
12.65
14.96
15.56
14.08
10.89
6.99
3.58
1.51
0.93
1.24
1.53
1.01
-0.58
-2.98
-5.61
-8.01
-10.16
-12.39
-15.14
-18.51
-22.04
-24.81
-25.86
-24.69
-21.55
-17.29
-12.90
-9.03
-5.68
-2.43
1.11
4.89
8.32
10.61
11.20
10.15
8.11
5.97
4.47
3.80
3.69
3.58
3.03
1.87
0.30
-1.27
-2.50
-3.20
-3.50
-3.68
-4.04
-4.75
-5.84
-7.21
-8.64
-9.89
-10.68
-10.80
-10.04
-8.35
-5.84
-2.77
0.55
3.85
6.97
9.87
12.45
14.55
15.87
16.13
15.18
13.22
10.71
8.25
6.33
5.02
3.99
2.66
0.59
-2.28
-5.57
-8.68
-11.14
-12.85
-14.13
-15.44
-17.15
-19.30
-21.58
-23.57
-24.92
-25.45
-25.20
-24.27
-22.76
-20.67
-17.98
-14.65
-10.85
-6.86
-3.14
-0.15
1.73
2.35
1.79
0.33
-1.61
-3.49
-4.67
-4.52
-2.61
0.99
5.56
9.83
12.41
12.36
9.69
5.34
0.76
-2.76
-4.65
-5.21
-5.27
-5.66
-6.71
-8.18
-9.50
-10.19
-10.08
-9.45
-8.86
-8.82
-9.61
-11.23
-13.48
-16.08
-18.86
-21.85
-25.19
-29.17
-33.97
-39.60
-45.70
-51.65
-56.62
-59.78
-60.45
-58.12
-52.58
-44.10
-33.74
-23.19
-14.44
-9.00
-7.40
-8.99
-12.53
-16.98
-22.04
-28.08
-35.45
-43.87
-52.46
-59.92
-64.79
-65.55
-60.61
-48.36
-28.08
-0.70
30.50
60.63
84.90
100.44
107.38
108.44
107.43
107.33
108.96
111.11
111.58
108.71
102.20
93.38
84.40
77.10
71.98
68.09
63.48
56.52
47.07
36.63
27.55
21.57
18.57
16.53
12.62
4.87
-6.57
-19.19
-29.03
-32.12
-25.88
-9.88
14.57
45.17
79.24
113.96
146.41
173.68
193.13
203.03
203.17
194.98
181.20
165.03
149.38
136.06
125.49
116.85
108.54
98.67
85.68
68.95
49.00
27.45
6.46
-12.16
-27.51
-39.80
-50.00
-59.13
-67.55
-74.70
-79.46
-80.97
-79.38
-75.84
-72.02
-69.32
-68.26
-68.41
-68.91
-69.18
-69.23
-69.54
-70.50
-72.05
-73.58
-74.30
-73.67
-71.77
-69.20
-66.63
-64.40
-62.24
-59.51
-55.56
-50.16
-43.74
-37.13
-31.20
-26.43
-22.69
-19.21
-15.05
-9.57
-3.00
3.51
8.22
9.57
6.96
1.11
-6.28
-13.34
-19.08
-23.97
-29.71
-38.28
-50.80
-66.73
-83.94
-99.45
-110.55
-115.84
-115.57
-111.55
-106.44
-103.11
-103.71
-109.24
-119.36
-132.47
-146.16
-157.79
-165.17
-167.03
-163.45
-155.77
-146.25
-137.13
-129.49
-122.53
-113.48
-98.54
-74.47
-40.39
1.42
46.03
87.60
121.81
147.78
168.54
189.50
215.47
247.77
283.06
314.54
334.89
339.61
328.67
306.26
278.48
250.57
225.25
202.73
182.01
162.26
143.55
126.49
111.33
97.37
82.91
66.16
46.12
23.15
-0.97
-23.49
-41.91
-54.83
-62.50
-66.61
-69.43
-72.99
-78.38
-85.53
-93.51
-101.04
-107.08
-111.20
-113.72
-115.44
-117.43
-120.49
-124.90
-130.26
-135.70
-140.17
-142.92
-143.71
-142.91
-141.13
-138.79
-135.63
-130.50
-121.78
-108.11
-89.27
-66.54
-42.13
-18.25
3.92
24.56
44.46
63.93
82.15
97.39
108.11
114.02
116.29
116.92
117.52
118.57
119.49
119.52
118.61
117.58
117.28
117.55
116.59
111.64
100.42
82.72
61.26
40.85
26.38
20.74
23.35
30.62
37.85
41.67
41.46
39.09
37.21
37.62
40.42
44.58
49.17
54.22
60.43
68.05
75.72
80.33
77.86
64.88
39.68
2.86
-42.80
-92.99
-142.80
-187.79
-224.76
-251.94
-268.71
-274.94
-270.31
-254.74
-229.09
-195.81
-158.85
-122.58
-90.37
-63.61
-41.80
-23.65
-8.21
4.66
14.74
22.19
27.74
32.32
36.66
40.87
44.63
47.59
49.66
51.11
52.27
53.61
55.72
59.13
63.83
68.79
71.95
70.99
64.73
54.20
42.66
34.16
31.49
34.61
40.48
44.54
42.76
33.46
17.70
-1.77
-21.95
-40.86
-57.69
-72.24
-84.14
-92.75
-97.20
-96.93
-92.27
-84.30
-74.45
-63.85
-53.11
-42.28
-31.23
-20.05
-9.22
0.51
8.44
14.38
19.06
24.23
32.38
45.70
65.03
88.92
113.77
135.01
148.69
152.87
147.97
136.22
120.43
103.06
85.91
70.30
57.38
48.05
42.47
39.70
37.83
34.57
28.41
19.24
8.21
-2.82
-12.26
-19.35
-24.22
-27.40
-29.40
-30.44
-30.61
-30.23
-29.86
-30.18
-31.49
-33.48
-35.36
-36.27
-35.78
-34.15
-32.13
-30.49
-29.65
-29.54
-29.70
-29.60
-28.87
-27.47
-25.68
-23.90
-22.41
-21.40
-20.82
-20.59
-20.66
-21.05
-21.79
-22.83
-23.92
-24.69
-24.80
-24.05
-22.41
-20.02
-17.09
-13.79
-10.34
-6.91
-3.70
-0.95
1.13
2.36
2.61
1.91
0.45
-1.41
-3.18
-4.46
-5.08
-5.14
-4.98
-4.92
-5.08
-5.43
-5.87
-6.32
-6.84
-7.50
-8.31
-9.13
-9.80
-10.18
-10.39
-10.69
-11.35
-12.47
-13.82
-14.94
-15.23
-14.30
-12.08
-8.85
-5.17
-1.60
1.44
3.74
5.31
6.28
6.80
7.00
6.99
6.86
6.66
6.32
5.78
4.99
4.03
3.11
2.46
2.21
2.20
2.10
1.52
0.21
-1.74
-4.02
-6.21
-8.01
-9.28
-10.12
-10.63
-10.93
-11.01
-10.86
-10.46
-9.81
-8.94
-7.84
-6.57
-5.37
-4.80
-5.87
-9.95
-18.49
-32.40
-51.72
-75.22
-100.72
-125.48
-147.15
-164.44
-177.45
-187.40
-195.88
-204.07
-212.23
-219.62
-224.78
-226.29
-223.44
-216.45
-206.40
-194.66
-182.25
-169.48
-156.21
-142.52
-129.14
-117.31
-107.84
-100.10
-91.54
-78.28
-56.73
-25.33
14.68
59.48
103.93
143.01
173.01
192.20
201.04
201.91
198.44
194.72
194.19
198.93
209.22
223.77
240.19
255.58
266.87
271.58
268.41
257.86
242.22
224.82
208.76
195.78
185.93
178.07
170.97
164.00
157.08
150.48
144.34
138.49
132.67
126.87
121.29
116.13
111.22
105.83
99.00
89.95
78.54
65.34
51.54
38.44
27.01
17.58
9.79
2.87
-4.14
-11.99
-21.00
-31.04
-41.66
-52.23
-62.13
-70.84
-77.90
-82.97
-85.81
-86.34
-84.74
-81.49
-77.27
-72.71
-68.29
-64.11
-60.06
-55.86
-51.34
-46.50
-41.62
-37.11
-33.33
-30.48
-28.39
-26.74
-25.06
-23.08
-20.80
-18.45
-16.35
-14.66
-13.29
-11.93
-10.20
-7.84
-4.88
-1.59
1.61
4.29
6.13
6.98
6.82
5.71
3.72
0.93
-2.50
-6.29
-10.05
-13.38
-16.03
-17.97
-19.44
-20.71
-21.89
-22.87
-23.35
-23.08
-22.07
-20.62
-19.19
-18.25
-17.92
-18.03
-18.11
-17.62
-16.17
-13.65
-10.38
-6.96
-4.17
-2.62
-2.52
-3.56
-5.08
-6.37
-7.09
-7.39
-7.79
-8.89
-10.91
-13.57
-16.16
-17.90
-18.26
-17.16
-14.78
-11.48
-7.54
-3.17
1.29
5.33
8.27
9.56
9.06
7.16
4.67
2.49
1.22
0.92
1.18
1.31
0.68
-1.17
-4.47
-9.27
-15.43
-22.65
-30.34
-37.73
-43.99
-48.48
-50.96
-51.73
-51.46
-50.99
-50.98
-51.81
-53.55
-56.02
-58.85
-61.39
-62.63
-61.46
-57.02
-49.31
-39.52
-29.83
-22.77
-20.21
-22.67
-29.20
-38.00
-47.30
-56.03
-63.99
-71.42
-78.46
-84.92
-90.40
-94.32
-95.86
-93.57
-85.39
-69.25
-44.29
-12.07
23.25
56.03
81.21
96.29
102.10
101.86
99.29
96.83
95.05
93.24
90.66
87.44
84.54
82.97
82.97
83.73
83.79
81.78
77.18
70.48
62.84
55.62
49.69
45.25
41.89
38.86
35.48
31.40
26.75
22.09
18.14
15.48
14.28
14.22
14.55
14.42
13.26
11.01
8.11
5.24
3.03
1.84
1.71
2.43
3.71
5.27
6.92
8.52
10.01
11.29
12.26
12.80
12.74
12.04
10.76
9.12
7.42
5.93
4.82
4.06
3.51
2.94
2.20
1.24
0.08
-1.22
-2.60
-4.03
-5.51
-7.02
-8.52
-10.01
-11.46
-12.80
-13.94
-14.66
-14.65
-13.59
-11.32
-7.88
-3.55
1.14
5.63
9.40
12.11
13.57
13.80
12.93
11.25
9.15
7.09
5.39
4.24
3.53
3.07
2.64
2.06
1.25
0.12
-1.45
-3.59
-6.35
-9.65
-13.28
-16.96
-20.47
-23.63
-26.33
-28.34
-29.27
-28.68
-26.31
-22.33
-17.40
-12.49
-8.50
-5.95
-4.82
-4.65
-4.87
-5.09
-5.17
-5.20
-5.24
-5.22
-4.98
-4.36
-3.34
-2.08
-0.82
0.20
0.86
1.22
1.41
1.55
1.67
1.69
1.37
0.46
-1.19
-3.49
-5.99
-8.03
-8.89
-8.15
-5.83
-2.38
1.53
5.25
8.40
10.83
12.46
13.18
12.81
11.22
8.60
5.43
2.42
0.18
-0.99
-1.25
-1.09
-1.03
-1.41
-2.27
-3.39
-4.47
-5.33
-6.01
-6.74
-7.81
-9.38
-11.34
-13.36
-15.01
-15.96
-16.04
-15.36
-14.09
-12.43
-10.50
-8.37
-6.05
-3.54
-0.88
1.90
4.72
7.42
9.81
11.62
12.65
12.82
12.26
11.22
9.99
8.76
7.60
6.52
5.56
4.86
4.58
4.81
5.43
6.04
6.10
5.15
2.97
-0.25
-4.09
-7.97
-11.40
-14.01
-15.53
-15.76
-14.56
-12.01
-8.41
-4.30
-0.26
3.26
6.05
8.04
9.26
9.69
9.36
8.38
7.10
6.00
5.50
5.81
6.75
7.92
8.86
9.24
8.95
8.10
6.85
5.37
3.84
2.40
1.15
0.17
-0.59
-1.21
-1.86
-2.69
-3.75
-4.95
-6.11
-6.91
-7.03
-6.25
-4.48
-1.88
1.17
4.22
6.81
8.66
9.70
10.07
10.00
9.71
9.38
9.05
8.69
8.28
7.82
7.33
6.84
6.35
5.78
5.03
3.99
2.61
0.92
-0.97
-2.96
-4.96
-6.86
-8.59
-10.10
-11.39
-12.59
-13.86
-15.32
-16.92
-18.47
-19.67
-20.25
-20.05
-19.08
-17.48
-15.41
-13.08
-10.78
-8.88
-7.73
-7.59
-8.39
-9.80
-11.35
-12.65
-13.60
-14.44
-15.54
-17.21
-19.40
-21.67
-23.30
-23.41
-21.20
-16.10
-7.85
3.29
16.45
30.08
42.26
51.14
55.57
55.41
51.49
45.20
37.91
30.54
23.51
16.99
11.20
6.64
3.88
3.32
4.84
7.77
11.07
13.70
15.01
14.90
13.84
12.54
11.58
11.17
11.10
10.96
10.43
9.47
8.32
7.33
6.75
6.60
6.71
6.82
6.72
6.28
5.44
4.18
2.53
0.56
-1.62
-3.92
-6.27
-8.61
-10.80
-12.65
-13.84
-14.08
-13.26
-11.48
-9.06
-6.42
-3.91
-1.70
0.20
1.89
3.42
4.77
5.81
6.42
6.55
6.25
5.73
5.18
4.75
4.49
4.37
4.35
4.43
4.60
4.83
5.03
5.07
4.87
4.42
3.81
3.15
2.49
1.79
0.94
-0.16
-1.52
-3.01
-4.45
-5.61
-6.33
-6.45
-5.91
-4.67
-2.80
-0.47
2.02
4.36
6.32
7.80
8.82
9.48
9.88
10.05
10.01
9.81
9.60
9.59
9.88
10.44
11.03
11.34
11.13
10.38
9.26
8.11
7.19
6.62
6.33
6.07
5.49
4.27
2.23
-0.58
-3.95
-7.50
-10.78
-13.40
-15.08
-15.70
-15.29
-13.98
-11.97
-9.53
-6.94
-4.50
-2.50
-1.11
-0.38
-0.20
-0.35
-0.59
-0.74
-0.67
-0.42
-0.10
0.19
0.38
0.46
0.45
0.34
0.10
-0.35
-1.01
-1.86
-2.80
-3.70
-4.50
-5.16
-5.74
-6.31
-6.86
-7.31
-7.55
-7.42
-6.89
-6.02
-4.95
-3.80
-2.67
-1.55
-0.44
0.67
1.71
2.57
3.16
3.48
3.59
3.60
3.62
3.68
3.77
3.83
3.78
3.56
3.19
2.73
2.26
1.89
1.68
1.58
1.47
1.15
0.52
-0.46
-1.63
-2.79
-3.73
-4.33
-4.58
-4.54
-4.26
-3.77
-3.05
-2.12
-1.11
-0.18
0.47
0.71
0.53
0.08
-0.45
-0.84
-0.91
-0.58
0.14
1.16
2.26
3.25
3.94
4.24
4.22
4.02
3.78
3.61
3.47
3.28
2.91
2.25
1.30
0.12
-1.15
-2.38
-3.48
-4.36
-4.98
-5.28
-5.20
-4.73
-3.90
-2.88
-1.89
-1.15
-0.80
-0.84
-1.20
-1.68
-2.14
-2.41
-2.43
-2.17
-1.66
-0.99
-0.30
0.23
0.46
0.37
0.01
-0.52
-1.10
-1.67
-2.26
-2.90
-3.62
-4.40
-5.26
-6.17
-7.13
-8.06
-8.85
-9.33
-9.33
-8.73
-7.59
-6.12
-4.60
-3.28
-2.31
-1.68
-1.30
-1.03
-0.79
-0.57
-0.37
-0.20
-0.05
0.14
0.35
0.59
0.83
1.02
1.17
1.25
1.23
1.03
0.55
-0.23
-1.29
-2.49
-3.70
-4.80
-5.74
-6.49
-7.05
-7.33
-7.22
-6.60
-5.41
-3.78
-1.95
-0.23
1.09
1.92
2.31
2.48
2.62
2.91
3.37
3.95
4.53
5.02
5.30
5.32
5.06
4.52
3.77
2.85
1.82
0.75
-0.32
-1.33
-2.22
-2.98
-3.65
-4.28
-4.93
-5.56
-5.99
-6.08
-5.73
-5.00
-4.06
-3.07
-2.11
-1.13
-0.02
1.26
2.62
3.84
4.70
5.08
5.05
4.79
4.49
4.28
4.18
4.08
3.89
3.51
2.92
2.09
1.08
-0.06
-1.22
-2.32
-3.33
-4.29
-5.33
-6.60
-8.17
-9.89
-11.43
-12.34
-12.25
-11.04
-8.87
-6.12
-3.24
-0.57
1.71
3.57
5.05
6.19
7.04
7.64
8.06
8.36
8.59
8.70
8.60
8.21
7.50
6.54
5.45
4.36
3.26
2.06
0.64
-1.07
-2.96
-4.82
-6.39
-7.51
-8.25
-8.82
-9.44
-10.16
-10.87
-11.26
-11.07
-10.22
-8.82
-7.13
-5.39
-3.73
-2.17
-0.60
0.99
2.57
3.97
5.07
5.76
6.09
6.16
6.09
5.95
5.78
5.52
5.17
4.69
4.13
3.50
2.80
2.03
1.16
0.21
-0.80
-1.90
-3.12
-4.52
-6.14
-7.88
-9.54
-10.84
-11.54
-11.50
-10.74
-9.40
-7.65
-5.62
-3.43
-1.15
1.14
3.36
5.46
7.36
8.99
10.28
11.15
11.55
11.55
11.21
10.64
9.91
9.02
7.92
6.59
5.04
3.40
1.83
0.49
-0.55
-1.28
-1.77
-2.13
-2.52
-3.03
-3.67
-4.33
-4.79
-4.87
-4.43
-3.50
-2.20
-0.74
0.76
2.28
3.91
5.77
7.94
10.33
12.72
14.77
16.15
16.66
16.31
15.33
14.08
12.92
12.00
11.29
10.59
9.67
8.42
6.86
5.12
3.27
1.33
-0.80
-3.15
-5.67
-8.19
-10.54
-12.61
-14.47
-16.22
-17.98
-19.69
-21.11
-21.87
-21.63
-20.21
-17.66
-14.24
-10.36
-6.43
-2.84
0.15
2.40
3.88
4.65
4.86
4.72
4.50
4.44
4.69
5.20
5.75
5.98
5.61
4.52
2.87
1.04
-0.60
-1.75
-2.32
-2.40
-2.16
-1.79
-1.41
-1.13
-1.02
-1.15
-1.55
-2.18
-2.89
-3.50
-3.87
-3.97
-3.91
-3.83
-3.83
-3.86
-3.79
-3.44
-2.76
-1.81
-0.72
0.39
1.54
2.83
4.36
6.14
8.05
9.84
11.29
12.23
12.63
12.50
11.89
10.87
9.53
8.00
6.44
5.02
3.85
2.98
2.41
2.07
1.90
1.84
1.80
1.71
1.49
1.08
0.49
-0.23
-1.00
-1.74
-2.39
-2.95
-3.45
-3.93
-4.38
-4.74
-4.88
-4.65
-3.95
-2.81
-1.38
0.12
1.52
2.75
3.83
4.80
5.67
6.33
6.70
6.73
6.54
6.29
6.15
6.16
6.18
6.05
5.60
4.75
3.53
2.11
0.64
-0.74
-1.97
-3.07
-4.18
-5.45
-6.97
-8.71
-10.56
-12.31
-13.81
-14.97
-15.77
-16.21
-16.22
-15.75
-14.74
-13.30
-11.59
-9.84
-8.21
-6.71
-5.28
-3.84
-2.40
-1.03
0.19
1.21
2.05
2.72
3.24
3.56
3.61
3.39
2.96
2.42
1.85
1.26
0.57
-0.29
-1.32
-2.39
-3.34
-4.00
-4.33
-4.49
-4.70
-5.21
-6.09
-7.27
-8.50
-9.49
-10.09
-10.27
-10.11
-9.71
-9.08
-8.17
-6.91
-5.39
-3.72
-2.10
-0.64
0.66
1.93
3.24
4.60
5.89
6.96
7.75
8.31
8.77
9.20
9.61
9.87
9.81
9.34
8.44
7.24
5.90
4.51
3.12
1.65
0.06
-1.70
-3.55
-5.35
-6.90
-8.02
-8.61
-8.69
-8.37
-7.81
-7.15
-6.47
-5.76
-4.98
-4.07
-3.01
-1.81
-0.53
0.75
1.97
3.09
4.06
4.85
5.37
5.61
5.53
5.19
4.66
4.03
3.36
2.63
1.81
0.87
-0.15
-1.18
-2.13
-2.97
-3.78
-4.65
-5.65
-6.74
-7.79
-8.60
-9.03
-9.04
-8.65
-7.91
-6.84
-5.42
-3.71
-1.80
0.11
1.81
3.20
4.31
5.28
6.25
7.27
8.24
8.98
9.37
9.37
9.05
8.59
8.12
7.78
7.53
7.34
7.12
6.81
6.33
5.68
4.83
3.73
2.41
0.93
-0.56
-1.86
-2.76
-3.12
-2.92
-2.29
-1.39
-0.36
0.75
1.93
3.19
4.46
5.57
6.35
6.64
6.41
5.76
4.89
3.99
3.22
2.64
2.22
1.87
1.45
0.88
0.15
-0.69
-1.54
-2.32
-3.03
-3.79
-4.68
-5.81
-7.16
-8.60
-9.96
-11.09
-11.93
-12.48
-12.78
-12.83
-12.60
-12.03
-11.07
-9.75
-8.19
-6.59
-5.16
-4.07
-3.39
-3.10
-3.10
-3.23
-3.37
-3.39
-3.24
-2.97
-2.66
-2.41
-2.27
-2.25
-2.31
-2.42
-2.57
-2.83
-3.30
-4.07
-5.12
-6.34
-7.55
-8.50
-9.08
-9.21
-8.96
-8.45
-7.81
-7.10
-6.30
-5.36
-4.20
-2.83
-1.33
0.18
1.61
2.90
4.05
5.04
5.82
6.34
6.50
6.26
5.68
4.86
3.97
3.16
2.54
2.16
2.00
1.98
2.02
2.02
1.83
1.34
0.44
-0.88
-2.52
-4.27
-5.87
-7.12
-7.98
-8.51
-8.87
-9.18
-9.48
-9.73
-9.84
-9.81
-9.72
-9.68
-9.75
-9.81
-9.61
-8.83
-7.25
-4.79
-1.64
1.94
5.77
9.85
14.40
19.74
26.15
33.63
41.99
50.76
59.33
67.07
73.28
77.41
79.04
78.04
74.59
69.16
62.39
54.98
47.53
40.47
34.04
28.25
22.98
18.10
13.61
9.72
6.85
5.42
5.62
7.25
9.68
12.02
13.48
13.52
11.89
8.58
3.77
-2.38
-9.51
-17.14
-24.54
-30.94
-35.61
-38.16
-38.66
-37.59
-35.77
-34.08
-33.26
-33.75
-35.61
-38.60
-42.27
-46.07
-49.49
-52.14
-53.79
-54.31
-53.63
-51.55
-47.81
-42.15
-34.44
-24.83
-13.72
-1.60
11.12
24.26
37.78
51.57
65.21
77.80
88.10
94.85
97.16
94.78
88.15
78.17
65.88
52.22
37.91
23.57
9.90
-2.30
-12.26
-19.57
-24.32
-27.15
-28.89
-30.21
-31.39
-32.30
-32.71
-32.56
-32.05
-31.55
-31.29
-31.25
-31.13
-30.56
-29.18
-26.77
-23.28
-18.86
-13.95
-9.27
-5.64
-3.79
-4.05
-6.20
-9.61
-13.50
-17.26
-20.58
-23.30
-25.31
-26.52
-26.87
-26.55
-25.94
-25.50
-25.46
-25.69
-25.73
-25.06
-23.45
-21.04
-18.28
-15.66
-13.43
-11.51
-9.67
-7.68
-5.57
-3.58
-2.01
-1.02
-0.55
-0.38
-0.25
-0.10
-0.06
-0.39
-1.33
-2.89
-4.86
-6.89
-8.66
-10.09
-11.34
-12.83
-15.01
-18.13
-22.18
-26.85
-31.68
-36.32
-40.61
-44.57
-48.22
-51.36
-53.53
-54.17
-52.89
-49.71
-45.05
-39.44
-33.23
-26.34
-18.52
-9.72
-0.41
8.42
15.80
21.32
25.48
29.38
34.09
39.96
46.39
52.18
56.23
58.14
58.31
57.57
56.58
55.34
53.23
49.41
43.41
35.43
26.29
17.12
8.76
1.49
-4.93
-10.93
-16.67
-21.83
-25.74
-27.82
-27.94
-26.70
-25.08
-24.05
-24.02
-24.68
-25.04
-23.90
-20.18
-13.37
-3.66
8.09
20.40
31.54
39.85
44.15
44.08
40.21
33.87
26.75
20.47
16.16
14.38
15.08
17.82
21.91
26.56
30.91
34.06
35.30
34.19
30.78
25.58
19.31
12.63
5.85
-1.00
-7.97
-14.88
-21.18
-26.04
-28.70
-28.83
-26.72
-23.29
-19.74
-17.15
-16.15
-16.77
-18.48
-20.46
-21.99
-22.70
-22.72
-22.41
-22.14
-21.89
-21.25
-19.60
-16.46
-11.75
-5.79
0.86
7.81
14.96
22.42
30.29
38.42
46.32
53.45
59.38
63.98
67.38
69.76
71.09
70.97
68.63
63.30
54.59
42.60
27.77
10.49
-8.92
-30.02
-51.74
-72.05
-88.11
-96.98
-96.47
-85.85
-66.01
-39.10
-7.88
24.86
56.64
85.43
109.67
128.25
140.46
145.82
143.88
134.39
117.70
95.31
69.96
45.10
23.81
7.77
-3.27
-11.14
-18.17
-26.00
-34.97
-44.12
-51.98
-57.48
-60.46
-61.66
-62.30
-63.46
-65.72
-69.19
-73.56
-78.25
-82.52
-85.51
-86.48
-85.05
-81.41
-76.27
-70.60
-65.46
-61.87
-60.77
-62.96
-68.74
-77.52
-87.69
-97.00
-103.30
-105.47
-103.80
-99.65
-94.43
-88.52
-80.84
-69.43
-52.68
-30.59
-5.31
19.26
38.78
50.02
51.47
43.40
27.03
3.97
-23.62
-52.18
-76.28
-89.23
-85.04
-61.14
-19.92
31.85
85.62
134.27
174.13
204.90
227.73
243.40
251.62
251.98
245.23
233.79
220.95
209.41
200.03
191.74
182.50
170.57
155.61
138.69
121.51
105.40
90.51
75.78
59.69
41.45
21.73
2.84
-12.60
-23.15
-29.65
-34.85
-41.83
-52.17
-64.91
-77.29
-86.13
-89.15
-84.98
-72.49
-50.22
-17.06
25.79
73.34
117.02
147.41
157.98
148.05
123.09
91.87
62.29
37.99
17.37
-4.55
-32.63
-68.73
-110.64
-153.18
-190.85
-220.24
-240.96
-254.91
-264.97
-273.40
-281.00
-287.16
-290.53
-289.64
-283.47
-271.89
-255.27
-234.01
-207.90
-176.14
-138.06
-93.99
-45.84
3.03
48.85
88.87
122.17
149.39
171.52
188.64
199.71
203.40
199.70
190.55
179.37
169.35
162.04
156.58
150.57
141.34
127.05
107.18
82.52
54.74
25.65
-3.03
-29.80
-53.40
-72.83
-87.33
-96.56
-100.55
-99.83
-95.42
-88.56
-80.32
-71.32
-61.79
-52.16
-43.70
-38.73
-39.97
-49.07
-65.07
-83.97
-99.86
-107.25
-103.44
-89.47
-69.25
-47.40
-27.41
-10.83
2.40
13.41
24.03
36.52
53.04
74.53
99.55
124.10
142.82
151.13
147.22
132.60
111.06
86.66
62.16
38.73
16.41
-5.12
-26.36
-48.01
-70.75
-94.66
-118.42
-139.25
-153.67
-158.62
-152.26
-134.30
-106.18
-70.86
-32.62
3.78
34.46
57.75
74.66
88.05
100.79
113.98
126.46
135.82
140.20
139.47
135.12
129.07
122.23
114.13
103.46
89.25
71.71
52.32
33.10
15.80
1.41
-10.13
-19.73
-28.81
-38.71
-50.21
-63.10
-76.21
-87.85
-96.47
-101.22
-102.20
-100.27
-96.48
-91.78
-86.72
-81.54
-76.36
-71.32
-66.64
-62.49
-58.94
-55.83
-52.84
-49.66
-46.14
-42.46
-39.02
-36.28
-34.46
-33.38
-32.61
-31.75
-30.71
-29.74
-29.16
-29.02
-28.76
-27.51
-24.50
-19.69
-14.01
-9.02
-6.22
-6.33
-8.96
-12.85
-16.40
-18.34
-18.11
-16.01
-13.01
-10.30
-8.90
-9.22
-10.96
-13.22
-14.81
-14.65
-12.08
-6.82
1.24
12.34
26.94
45.53
68.30
94.87
124.37
155.55
186.94
216.70
242.41
261.07
269.56
265.43
247.95
218.70
181.39
140.85
101.63
66.84
37.51
12.92
-8.60
-28.79
-48.79
-68.99
-89.19
-108.80
-126.95
-142.48
-153.91
-159.58
-158.09
-148.97
-133.03
-112.50
-90.42
-70.05
-53.90
-43.27
-38.08
-37.10
-38.48
-40.31
-41.10
-40.11
-37.42
-33.68
-29.77
-26.31
-23.46
-20.98
-18.45
-15.62
-12.58
-9.70
-7.43
-6.03
-5.45
-5.40
-5.51
-5.48
-5.16
-4.52
-3.59
-2.41
-1.12
0.14
1.16
1.82
2.11
2.19
2.35
2.90
3.99
5.62
7.63
9.79
11.90
13.84
15.55
16.88
17.65
17.70
16.95
15.52
13.67
11.72
9.90
8.35
7.04
5.86
4.71
3.51
2.24
0.94
-0.30
-1.45
-2.53
-3.65
-4.98
-6.65
-8.69
-10.99
-13.35
-15.45
-17.03
-17.91
-18.01
-17.34
-16.03
-14.24
-12.12
-9.81
-7.40
-4.97
-2.58
-0.32
1.75
3.57
5.03
5.95
6.16
5.57
4.27
2.63
1.09
0.05
-0.41
-0.57
-0.86
-1.57
-2.70
-3.95
-4.95
-5.46
-5.58
-5.51
-5.53
-5.77
-6.22
-6.86
-7.74
-8.91
-10.33
-11.75
-12.72
-12.76
-11.57
-9.12
-5.72
-1.86
1.98
5.42
8.28
10.46
11.94
12.76
12.95
12.59
11.80
10.78
9.68
8.61
7.59
6.55
5.41
4.08
2.61
1.08
-0.36
-1.66
-2.80
-3.91
-5.10
-6.48
-7.99
-9.50
-10.82
-11.82
-12.45
-12.75
-12.70
-12.23
-11.20
-9.50
-7.11
-4.18
-0.99
2.15
4.96
7.24
8.91
10.02
10.72
11.25
11.82
12.53
13.17
13.29
12.27
9.75
5.75
0.88
-3.91
-7.76
-10.23
-11.44
-11.99
-12.63
-14.00
-16.58
-20.78
-26.80
-34.53
-43.34
-52.04
-59.20
-63.75
-65.24
-63.88
-60.02
-53.54
-43.65
-29.15
-9.13
16.39
46.16
77.89
108.73
135.90
157.11
171.07
177.62
177.83
173.70
167.54
161.23
155.57
150.19
143.89
135.32
123.67
109.02
92.08
73.74
54.51
34.25
12.47
-11.20
-36.56
-62.81
-88.85
-113.74
-136.86
-157.65
-175.31
-188.63
-196.41
-198.13
-194.37
-186.82
-177.58
-168.49
-160.48
-153.60
-147.49
-141.82
-136.78
-132.91
-130.77
-130.39
-130.90
-130.51
-126.80
-117.20
-99.51
-72.25
-35.06
11.23
64.58
121.64
177.90
228.25
267.87
293.46
304.15
301.68
289.53
271.52
250.35
226.93
200.74
170.64
136.07
97.56
56.58
15.16
-24.52
-60.27
-89.82
-111.23
-123.42
-126.93
-124.06
-118.21
-112.66
-109.37
-108.57
-109.26
-110.28
-111.13
-112.23
-114.38
-118.16
-123.52
-130.00
-136.88
-143.47
-148.92
-151.86
-150.28
-141.72
-123.99
-95.97
-58.42
-14.03
33.13
78.56
118.47
150.46
173.77
188.88
197.02
199.60
197.88
192.84
185.16
175.26
163.29
149.31
133.46
116.08
97.77
79.33
61.46
44.66
29.22
15.39
3.51
-5.92
-12.46
-15.98
-16.82
-15.84
-14.12
-12.65
-12.11
-12.69
-14.19
-16.23
-18.44
-20.72
-23.10
-25.77
-28.77
-31.86
-34.43
-35.71
-35.12
-32.56
-28.63
-24.33
-20.60
-17.90
-16.05
-14.36
-11.98
-8.31
-3.47
1.46
4.67
4.25
-0.88
-10.15
-21.11
-30.27
-34.44
-32.28
-24.81
-14.81
-5.27
1.97
6.86
10.45
13.76
17.02
19.72
21.37
22.23
23.33
25.86
30.54
37.22
45.12
53.41
61.42
68.80
75.24
80.45
84.44
87.81
91.69
97.31
105.25
114.93
124.81
133.14
138.78
141.83
143.36
144.65
146.34
147.99
148.17
145.16
137.59
124.92
107.43
85.97
61.61
35.35
8.01
-19.75
-47.37
-74.34
-100.23
-124.60
-147.08
-167.33
-184.94
-199.42
-210.37
-217.60
-221.35
-222.38
-221.85
-220.92
-220.06
-218.50
-214.24
-204.89
-189.05
-167.38
-142.66
-118.64
-98.19
-81.86
-67.85
-53.45
-37.00
-19.23
-2.90
8.77
14.12
13.95
11.05
8.51
7.99
9.18
10.49
10.30
8.04
4.49
0.88
-1.92
-3.98
-6.09
-8.87
-11.90
-13.56
-11.91
-5.89
3.80
15.04
25.51
34.05
41.12
48.06
55.69
63.46
69.53
72.15
71.18
68.64
67.57
70.11
76.01
82.86
87.69
88.88
87.10
84.46
82.78
82.20
81.16
77.50
69.96
59.19
47.34
36.91
29.38
24.72
21.73
19.09
16.16
13.08
10.33
8.19
6.40
4.29
1.22
-3.00
-7.97
-13.06
-17.71
-21.62
-24.70
-26.92
-28.13
-28.05
-26.62
-24.16
-21.43
-19.43
-19.01
-20.56
-23.94
-28.54
-33.47
-37.80
-40.81
-42.26
-42.41
-42.02
-41.99
-43.04
-45.43
-48.86
-52.60
-55.78
-57.72
-58.19
-57.44
-56.02
-54.43
-52.91
-51.21
-48.79
-45.13
-40.13
-34.30
-28.73
-24.68
-23.00
-23.82
-26.32
-29.22
-31.24
-31.72
-30.86
-29.57
-28.85
-29.45
-31.88
-36.58
-43.81
-52.99
-61.96
-66.93
-63.68
-49.58
-25.61
3.14
29.16
45.79
50.29
45.02
35.97
29.44
28.99
34.21
41.99
49.06
53.96
57.41
61.05
65.79
70.93
74.83
76.41
76.19
76.11
77.97
81.78
85.33
85.36
79.75
69.19
57.19
48.46
46.54
52.26
63.68
77.08
88.46
94.86
94.94
89.09
79.13
67.79
57.88
51.54
49.44
50.97
54.68
59.10
63.07
65.95
67.20
66.18
62.29
55.02
44.22
30.05
12.77
-7.12
-28.72
-50.56
-70.96
-88.42
-102.32
-113.02
-121.55
-128.87
-135.42
-141.18
-146.04
-149.90
-152.31
-152.10
-147.31
-135.95
-117.19
-92.19
-64.08
-36.70
-13.11
5.47
19.59
30.57
39.33
45.76
49.12
48.75
44.88
38.72
31.90
25.76
20.84
16.80
12.62
7.28
0.24
-8.32
-17.56
-26.33
-33.56
-38.55
-41.08
-41.38
-39.87
-36.87
-32.63
-27.17
-20.53
-12.81
-4.33
4.35
12.63
20.04
26.36
31.65
36.21
40.36
44.34
48.11
51.35
53.45
53.72
51.57
46.83
39.94
31.86
23.91
17.46
13.56
12.54
13.95
16.76
19.65
21.51
21.77
20.39
17.75
14.48
11.42
9.34
8.48
8.14
6.94
3.55
-2.27
-8.99
-13.77
-13.80
-7.90
2.50
13.60
20.77
20.35
11.02
-5.93
-26.98
-47.09
-60.82
-63.52
-52.96
-30.37
-0.79
28.30
49.67
58.86
55.67
44.11
30.70
21.99
22.07
31.11
45.46
58.99
65.45
60.77
44.21
18.23
-12.65
-43.15
-68.24
-83.78
-87.27
-79.11
-63.44
-47.74
-40.20
-45.75
-62.90
-83.40
-95.81
-91.10
-66.92
-28.17
15.88
55.92
85.74
102.99
108.03
102.51
88.87
70.23
50.27
32.35
18.46
8.88
3.15
1.81
6.98
21.17
44.70
74.06
102.63
123.73
134.15
135.67
133.65
133.36
136.87
142.05
144.25
139.47
126.77
108.65
89.22
71.66
56.66
42.53
26.76
7.94
-13.21
-34.23
-52.08
-64.85
-72.75
-77.94
-83.30
-90.84
-100.49
-110.10
-116.52
-117.30
-112.04
-102.55
-91.91
-83.08
-77.77
-76.30
-78.15
-82.84
-90.33
-100.89
-114.38
-129.61
-144.43
-156.40
-163.70
-165.58
-161.97
-152.95
-138.38
-118.37
-93.90
-67.15
-41.28
-19.43
-3.32
7.71
16.42
25.86
37.56
50.32
60.75
65.08
61.38
50.58
35.97
21.61
10.65
4.18
1.45
0.82
1.02
1.70
3.15
5.67
8.89
11.62
12.51
10.76
6.68
1.57
-2.71
-4.85
-5.00
-4.93
-7.04
-12.80
-21.43
-29.83
-33.77
-30.05
-18.10
-0.23
19.37
36.56
48.91
56.26
60.39
63.97
69.51
78.32
90.05
102.89
114.21
121.57
123.51
120.10
112.59
102.67
91.61
79.93
67.64
54.87
42.24
30.70
21.01
13.11
6.21
-0.82
-8.70
-17.29
-25.81
-33.21
-38.77
-42.26
-44.00
-44.49
-44.10
-42.93
-40.89
-37.95
-34.26
-30.26
-26.46
-23.34
-21.21
-20.10
-19.78
-19.90
-20.08
-20.08
-19.75
-19.09
-18.07
-16.61
-14.59
-11.99
-8.97
-5.95
-3.37
-1.51
-0.37
0.34
1.03
2.02
3.34
4.84
6.23
7.23
7.64
7.32
6.12
4.03
1.11
-2.36
-6.01
-9.36
-12.06
-14.00
-15.34
-16.50
-17.88
-19.71
-21.87
-23.91
-25.13
-24.98
-23.20
-20.06
-16.23
-12.48
-9.40
-7.18
-5.64
-4.41
-3.25
-2.16
-1.33
-0.99
-1.17
-1.67
-2.17
-2.42
-2.43
-2.43
-2.71
-3.45
-4.57
-5.80
-6.87
-7.62
-8.13
-8.58
-9.12
-9.82
-10.63
-11.43
-12.04
-12.27
-11.95
-10.95
-9.27
-7.05
-4.55
-2.02
0.37
2.59
4.67
6.64
8.43
9.90
10.91
11.40
11.42
11.03
10.30
9.22
7.78
6.01
4.04
2.08
0.32
-1.11
-2.20
-3.01
-3.66
-4.25
-4.84
-5.46
-6.13
-6.89
-7.75
-8.61
-9.31
-9.60
-9.27
-8.28
-6.80
-5.13
-3.54
-2.07
-0.57
1.26
3.61
6.36
9.10
11.28
12.53
12.82
12.39
11.56
10.53
9.35
7.96
6.34
4.63
3.04
1.75
0.74
-0.14
-1.09
-2.19
-3.42
-4.75
-6.16
-7.76
-9.65
-11.83
-14.04
-15.93
-17.11
-17.37
-16.69
-15.16
-12.89
-9.97
-6.46
-2.48
1.64
5.50
8.67
10.92
12.30
13.05
13.48
13.81
14.10
14.21
14.01
13.35
12.27
10.83
9.17
7.39
5.59
3.81
2.07
0.41
-1.16
-2.62
-4.03
-5.47
-7.02
-8.76
-10.63
-12.44
-13.87
-14.59
-14.32
-12.98
-10.65
-7.62
-4.27
-0.95
2.11
4.81
7.24
9.59
12.06
14.83
17.99
21.55
25.41
29.22
32.32
33.80
32.87
29.39
24.33
19.69
17.73
19.73
25.30
32.25
37.78
39.66
37.11
30.53
20.87
9.16
-3.44
-15.26
-24.29
-28.96
-29.54
-28.72
-30.90
-40.13
-57.62
-80.57
-102.93
-118.13
-122.08
-115.01
-101.20
-86.86
-77.43
-75.50
-80.26
-88.54
-96.70
-102.00
-103.07
-99.27
-89.75
-73.20
-48.93
-18.47
13.60
40.75
57.21
61.03
55.23
46.29
40.78
42.18
49.57
59.10
66.93
71.60
74.34
77.36
81.66
85.84
87.05
83.10
74.41
64.36
57.63
57.62
64.56
75.31
84.76
88.28
83.64
71.78
56.07
40.65
28.77
21.80
19.26
19.52
20.72
21.37
20.60
18.06
13.51
6.88
-1.54
-10.91
-19.78
-26.60
-30.39
-31.35
-30.87
-30.91
-32.96
-37.44
-43.60
-50.08
-55.62
-59.38
-60.83
-59.34
-54.01
-43.96
-29.02
-10.29
9.79
28.11
41.92
49.62
51.12
47.49
40.48
31.96
23.64
17.04
13.38
13.42
17.14
23.53
30.69
36.38
38.77
37.09
31.90
24.77
17.70
12.33
9.43
8.78
9.31
9.68
8.69
5.74
0.93
-5.06
-11.28
-16.78
-20.85
-22.99
-22.82
-20.22
-15.53
-9.89
-5.19
-3.53
-6.42
-14.06
-25.18
-37.46
-48.36
-55.88
-59.00
-57.54
-51.74
-42.04
-29.08
-14.06
1.22
14.57
24.00
28.55
28.66
25.89
22.23
19.16
17.21
16.06
15.12
14.20
13.75
14.45
16.65
19.95
23.35
25.83
26.83
26.28
24.19
20.17
13.41
3.17
-10.43
-25.81
-40.28
-51.00
-56.24
-55.94
-51.38
-44.18
-35.20
-24.25
-10.77
5.00
21.22
34.73
42.33
42.33
35.48
24.60
13.15
3.64
-3.34
-8.78
-14.21
-20.44
-26.92
-31.97
-33.65
-30.67
-22.95
-11.53
1.91
15.72
28.66
39.95
49.00
55.16
57.80
56.63
52.19
46.10
40.56
37.34
36.89
38.06
38.95
38.26
36.24
34.62
35.29
38.85
43.85
47.31
46.21
39.10
26.75
11.70
-3.02
-15.09
-23.52
-28.44
-30.57
-30.78
-29.89
-28.63
-27.55
-26.97
-26.97
-27.52
-28.69
-30.89
-34.78
-41.08
-50.20
-61.78
-74.59
-86.51
-95.04
-97.97
-94.19
-84.14
-69.84
-54.23
-40.16
-29.49
-22.60
-18.57
-15.90
-13.38
-10.58
-7.73
-5.37
-3.84
-3.09
-2.75
-2.40
-1.81
-0.89
0.27
1.43
2.29
2.48
1.53
-0.86
-4.75
-9.78
-15.24
-20.19
-23.79
-25.50
-25.22
-23.28
-20.27
-16.85
-13.51
-10.46
-7.63
-4.92
-2.32
-0.07
1.40
1.68
0.64
-1.55
-4.34
-6.89
-8.18
-7.24
-3.49
2.85
10.67
18.09
23.18
24.80
22.98
18.92
14.28
10.36
7.69
6.10
5.17
4.70
4.80
5.61
7.04
8.74
10.34
11.79
13.32
15.21
17.30
18.75
18.36
15.20
9.38
2.25
-3.78
-6.02
-2.45
7.47
22.50
39.86
56.02
67.82
73.40
72.70
67.22
59.16
50.59
42.77
36.19
30.91
27.00
24.50
23.22
22.42
20.92
17.52
11.62
3.53
-5.58
-14.01
-20.10
-22.67
-21.33
-16.60
-9.89
-3.20
1.50
2.90
0.72
-4.23
-10.59
-16.90
-22.01
-25.10
-25.62
-23.25
-18.08
-10.85
-2.97
3.85
8.20
9.46
7.99
4.74
0.80
-3.12
-6.80
-10.43
-14.33
-18.67
-23.39
-28.17
-32.63
-36.35
-38.93
-39.97
-39.07
-35.88
-30.30
-22.56
-13.11
-2.54
8.72
20.37
31.96
42.64
50.96
55.15
53.74
46.36
34.00
18.93
4.06
-7.81
-14.64
-15.52
-10.79
-1.97
8.50
17.67
22.83
22.31
16.07
5.77
-6.06
-17.17
-26.42
-33.69
-38.97
-41.43
-39.24
-30.74
-15.80
3.21
22.05
36.44
44.14
45.88
44.60
43.57
44.46
46.87
49.02
49.14
46.50
41.46
35.00
28.16
22.01
17.74
16.75
20.25
28.69
41.23
55.78
69.64
80.26
86.04
86.49
82.18
74.21
63.80
52.15
40.45
29.98
22.00
17.50
16.68
18.85
22.70
27.00
31.27
35.64
40.25
44.34
45.92
42.42
32.22
16.09
-2.65
-19.26
-29.75
-32.82
-30.24
-25.72
-22.98
-23.97
-28.30
-33.84
-37.94
-38.84
-36.65
-33.49
-33.26
-40.77
-60.56
-95.44
-144.93
-204.20
-264.36
-314.24
-343.38
-344.99
-317.70
-265.59
-196.57
-120.15
-45.44
20.05
70.95
104.21
119.28
118.22
105.52
87.01
68.23
52.98
42.53
36.08
32.14
29.52
28.23
29.28
33.88
42.51
54.40
67.62
79.88
89.54
96.23
100.66
103.84
106.18
107.07
105.20
99.40
89.36
75.70
59.57
42.00
23.75
5.60
-11.14
-24.45
-32.18
-33.05
-27.55
-18.00
-7.74
0.18
4.16
4.46
2.72
0.97
0.67
2.11
4.44
6.21
6.18
3.95
0.17
-3.68
-6.09
-6.14
-3.98
-0.33
4.08
9.19
15.62
23.98
34.01
44.33
52.98
58.57
61.26
62.85
65.74
71.63
80.55
91.02
100.99
109.01
114.65
118.15
119.64
118.82
115.22
108.79
100.11
89.91
78.20
63.73
44.38
18.40
-14.32
-51.72
-90.39
-127.06
-159.95
-189.03
-215.34
-239.60
-261.41
-279.37
-291.92
-298.37
-299.30
-296.17
-290.61
-283.77
-276.11
-267.66
-258.45
-248.64
-238.31
-227.06
-213.80
-197.20
-176.48
-152.17
-126.29
-101.48
-79.59
-60.38
-41.29
-18.34
11.90
50.39
94.81
140.14
180.49
211.03
229.35
235.58
231.80
221.29
207.94
195.84
188.50
187.80
192.96
200.34
204.70
201.54
189.61
171.94
154.73
144.45
144.57
153.70
166.03
173.82
170.60
153.61
124.51
88.24
50.93
17.50
-9.74
-31.38
-49.91
-68.13
-87.69
-108.42
-128.80
-147.08
-162.20
-174.20
-183.71
-190.97
-195.31
-195.39
-190.05
-179.21
-164.14
-146.88
-129.04
-110.81
-90.89
-67.17
-37.97
-3.03
36.22
77.22
117.41
155.17
189.99
221.97
250.91
275.75
294.84
306.51
309.76
304.49
290.94
269.18
238.92
200.20
154.28
104.08
53.09
3.63
-44.46
-93.39
-145.00
-197.95
-246.72
-283.32
-301.06
-297.84
-277.12
-246.06
-212.35
-181.37
-155.22
-133.64
-115.51
-99.93
-86.39
-74.59
-64.18
-55.18
-47.90
-42.88
-40.50
-40.48
-42.27
-45.38
-49.97
-56.66
-66.15
-78.58
-93.44
-109.81
-126.82
-143.79
-160.31
-175.93
-189.87
-200.69
-206.27
-204.03
-191.57
-167.42
-131.80
-87.07
-37.40
12.05
56.51
92.89
120.51
140.92
156.87
171.16
185.88
202.37
221.42
243.36
267.61
292.33
314.39
330.29
337.52
335.70
326.53
312.59
295.61
275.60
251.25
221.45
186.74
149.75
114.16
83.01
57.37
36.36
18.08
0.85
-16.01
-32.18
-47.07
-60.31
-71.99
-82.31
-91.25
-98.40
-103.16
-105.17
-104.56
-102.00
-98.34
-94.35
-90.48
-86.86
-83.40
-79.97
-76.45
-72.85
-69.31
-66.02
-63.18
-60.82
-58.92
-57.43
-56.39
-55.92
-55.98
-56.33
-56.46
-55.78
-53.81
-50.34
-45.59
-39.89
-33.68
-27.30
-20.99
-14.88
-9.02
-3.46
1.70
6.29
10.09
12.93
14.75
15.64
15.72
15.06
13.53
10.99
7.41
3.09
-1.40
-5.42
-8.60
-11.05
-13.24
-15.73
-18.82
-22.41
-26.06
-29.28
-31.64
-32.86
-32.81
-31.43
-28.77
-25.09
-20.85
-16.47
-12.26
-8.20
-4.05
0.44
5.18
9.67
13.12
14.80
14.38
12.05
8.43
4.27
0.19
-3.51
-6.75
-9.54
-11.89
-13.76
-15.18
-16.25
-17.21
-18.36
-19.91
-21.90
-24.22
-26.65
-28.96
-30.98
-32.48
-33.20
-32.87
-31.33
-28.62
-25.00
-20.89
-16.67
-12.58
-8.74
-5.23
-2.19
0.18
1.75
2.52
2.67
2.49
2.17
1.81
1.46
1.14
0.91
0.85
0.97
1.20
1.47
1.67
1.65
1.17
-0.16
-2.66
-6.49
-11.31
-16.39
-20.77
-23.73
-25.04
-24.90
-23.78
-22.07
-20.00
-17.62
-14.88
-11.61
-7.54
-2.28
4.50
12.76
21.95
31.03
38.81
44.43
47.64
48.82
48.63
47.63
45.99
43.60
40.38
36.54
32.54
28.90
25.92
23.43
20.92
17.80
13.75
8.83
3.42
-2.05
-7.29
-12.13
-16.38
-19.68
-21.51
-21.47
-19.55
-16.18
-12.12
-8.02
-4.21
-0.71
2.58
5.64
8.20
9.97
10.90
11.33
11.81
12.81
14.36
16.05
17.26
17.46
16.58
14.92
12.91
10.90
8.93
6.77
4.15
1.00
-2.47
-5.81
-8.60
-10.60
-11.77
-12.17
-11.81
-10.63
-8.63
-6.07
-3.44
-1.29
0.04
0.64
1.03
1.78
3.24
5.22
7.17
8.42
8.64
7.93
6.78
5.73
5.16
5.11
5.38
5.75
6.12
6.65
7.61
9.21
11.39
13.74
15.63
16.42
15.72
13.46
9.91
5.58
1.05
-3.08
-6.25
-8.10
-8.52
-7.69
-6.07
-4.23
-2.60
-1.36
-0.38
0.61
1.82
3.31
4.98
6.59
7.87
8.59
8.58
7.78
6.25
4.28
2.28
0.67
-0.33
-0.75
-0.79
-0.74
-0.71
-0.64
-0.45
-0.14
0.09
-0.14
-1.11
-2.89
-5.20
-7.57
-9.53
-10.79
-11.25
-11.02
-10.18
-8.80
-6.96
-4.69
-2.11
0.62
3.32
5.77
7.78
9.07
9.39
8.57
6.64
3.87
0.83
-1.92
-3.88
-4.93
-5.25
-5.24
-5.33
-5.75
-6.57
-7.65
-8.82
-9.94
-10.96
-11.90
-12.80
-13.74
-14.74
-15.81
-16.97
-18.18
-19.38
-20.46
-21.28
-21.74
-21.80
-21.54
-21.15
-20.78
-20.44
-20.05
-19.44
-18.57
-17.53
-16.55
-15.75
-15.10
-14.49
-13.83
-13.11
-12.38
-11.47
-9.90
-7.02
-2.30
4.18
11.67
18.96
24.85
28.59
29.98
29.17
26.35
21.74
15.72
8.97
2.49
-2.69
-5.94
-7.25
-7.23
-6.74
-6.42
-6.50
-6.68
-6.46
-5.36
-3.26
-0.39
2.76
5.71
8.14
10.04
11.55
12.83
13.80
14.18
13.60
11.90
9.33
6.51
4.14
2.66
2.04
1.80
1.32
0.17
-1.70
-4.06
-6.47
-8.56
-10.00
-10.54
-9.99
-8.27
-5.44
-1.82
2.06
5.65
8.52
10.50
11.66
12.24
12.54
12.79
13.13
13.59
14.11
14.53
14.72
14.50
13.78
12.51
10.74
8.61
6.36
4.25
2.53
1.35
0.73
0.54
0.60
0.75
0.91
1.01
1.01
0.89
0.65
0.45
0.55
1.24
2.70
4.86
7.37
9.77
11.70
13.02
13.76
14.08
14.09
13.88
13.49
13.04
12.69
12.57
12.61
12.61
12.24
11.27
9.73
7.90
6.08
4.53
3.26
2.11
0.93
-0.38
-1.75
-3.06
-4.24
-5.36
-6.52
-7.79
-9.06
-10.11
-10.65
-10.53
-9.74
-8.43
-6.80
-4.94
-2.84
-0.44
2.23
4.95
7.36
9.04
9.71
9.35
8.25
6.84
5.51
4.44
3.55
2.62
1.42
-0.09
-1.79
-3.43
-4.86
-6.08
-7.25
-8.66
-10.48
-12.76
-15.35
-18.00
-20.38
-22.24
-23.39
-23.81
-23.53
-22.69
-21.33
-19.49
-17.23
-14.63
-11.94
-9.53
-7.83
-7.24
-7.95
-9.86
-12.58
-15.61
-18.40
-20.59
-22.08
-23.06
-24.00
-25.42
-27.77
-31.20
-35.51
-40.27
-44.87
-48.70
-51.21
-52.02
-50.83
-47.56
-42.25
-34.98
-25.84
-14.89
-2.23
11.87
26.86
41.83
55.58
66.94
75.01
79.44
80.42
78.49
74.34
68.54
61.57
53.82
45.73
37.69
29.93
22.37
14.68
6.42
-2.72
-12.61
-22.74
-32.44
-41.12
-48.65
-55.36
-61.89
-68.97
-77.12
-86.55
-97.09
-108.23
-119.29
-129.59
-138.56
-145.90
-151.49
-155.25
-156.87
-155.65
-150.57
-140.49
-124.50
-102.10
-73.24
-38.41
1.37
44.25
87.51
127.84
162.00
187.68
204.22
212.58
214.75
212.88
208.43
202.02
193.74
183.65
172.08
159.61
146.78
133.83
120.69
107.13
93.12
78.99
65.41
53.15
42.85
34.74
28.57
23.82
19.79
16.05
12.50
9.33
6.82
5.04
3.86
2.94
2.13
1.47
1.33
2.02
3.54
5.43
6.91
7.20
5.93
3.36
0.17
-2.81
-5.09
-6.61
-7.71
-8.84
-10.39
-12.53
-15.21
-18.29
-21.46
-24.33
-26.42
-27.32
-26.90
-25.40
-23.32
-21.22
-19.46
-18.13
-17.23
-16.89
-17.44
-19.23
-22.30
-26.04
-29.21
-30.37
-28.36
-22.71
-13.78
-2.60
9.39
20.63
29.70
35.48
37.29
35.05
29.33
21.30
12.52
4.61
-1.16
-4.33
-5.15
-4.24
-1.86
2.49
9.86
20.77
34.17
47.35
56.98
60.80
59.06
54.51
50.91
50.98
55.07
60.99
65.13
63.79
54.14
34.30
3.15
-39.41
-91.67
-149.36
-205.34
-250.85
-277.92
-282.23
-264.88
-232.30
-194.09
-159.59
-134.58
-120.21
-114.29
-113.56
-115.58
-119.04
-122.77
-124.72
-122.05
-112.43
-95.47
-73.21
-49.30
-27.40
-9.57
4.03
14.63
23.84
32.73
41.49
49.46
55.71
59.72
62.24
65.58
72.81
85.89
103.71
122.00
135.24
139.96
136.88
130.72
127.42
130.54
139.47
150.35
158.78
162.49
162.33
161.11
161.17
162.60
163.12
159.61
149.97
134.49
115.31
95.30
76.65
60.19
45.56
32.07
19.70
9.40
2.52
-0.73
-2.23
-5.43
-13.36
-26.35
-40.98
-51.54
-53.35
-45.79
-33.26
-23.16
-22.04
-31.75
-48.41
-65.05
-75.76
-79.11
-78.51
-79.55
-85.93
-97.09
-108.60
-114.97
-113.17
-104.25
-92.48
-82.47
-76.35
-72.81
-68.69
-61.24
-49.73
-35.15
-18.62
-0.07
21.80
48.02
77.41
105.40
125.08
130.36
119.41
96.43
70.27
50.58
43.94
51.16
67.61
85.84
99.06
103.58
99.60
90.28
79.89
71.76
66.71
62.87
57.25
47.68
34.42
20.63
11.13
10.27
19.61
37.22
58.41
77.76
90.83
94.74
87.54
67.46
32.97
-15.76
-75.48
-139.26
-198.03
-243.30
-269.81
-277.34
-270.33
-256.37
-243.15
-235.89
-236.06
-241.62
-248.29
-251.06
-245.45
-228.73
-201.08
-165.72
-128.43
-95.74
-72.41
-59.19
-52.38
-45.39
-32.12
-10.24
17.85
46.88
72.52
94.56
116.99
145.11
181.05
221.22
256.99
278.71
280.35
262.10
229.86
191.91
155.46
124.49
99.68
79.55
61.76
43.72
23.10
-1.20
-28.80
-57.19
-82.24
-99.35
-104.89
-96.79
-74.81
-40.54
2.26
47.58
88.14
117.27
131.23
130.53
119.21
102.45
84.17
66.10
48.48
31.89
18.03
8.65
3.44
-1.24
-11.10
-30.33
-57.94
-86.83
-106.62
-109.20
-93.68
-67.41
-42.88
-32.10
-41.20
-68.21
-104.51
-139.09
-163.14
-173.05
-170.67
-160.97
-148.58
-134.81
-117.56
-93.49
-61.17
-23.32
13.90
43.95
62.99
71.30
72.28
69.41
64.03
55.37
42.74
27.88
15.39
10.43
15.54
29.05
45.93
60.58
69.70
73.14
72.84
70.72
67.53
62.81
55.90
46.95
37.04
27.53
18.90
10.51
1.17
-9.64
-20.93
-30.39
-35.38
-34.12
-26.68
-15.06
-2.47
7.78
13.53
14.46
11.96
8.39
6.08
6.32
9.19
13.95
19.75
26.14
32.99
40.09
46.81
51.97
54.18
52.67
47.68
40.25
31.75
23.14
14.69
6.24
-2.48
-11.37
-19.87
-27.00
-31.78
-33.45
-31.81
-27.41
-21.41
-15.25
-10.23
-7.05
-5.77
-6.09
-7.65
-10.34
-14.31
-19.90
-27.45
-37.13
-48.80
-61.75
-74.49
-84.96
-91.48
-93.60
-92.23
-88.82
-84.10
-77.22
-66.18
-49.37
-27.17
-2.54
20.06
36.69
45.71
48.27
47.45
46.72
48.56
53.95
62.28
71.50
78.72
81.08
77.24
68.72
59.60
54.41
55.32
60.39
64.11
60.38
45.89
22.01
-5.93
-31.54
-50.41
-61.22
-65.00
-62.86
-54.79
-40.30
-20.36
1.29
18.53
25.08
17.33
-4.14
-34.77
-67.44
-94.65
-110.24
-110.75
-96.21
-69.92
-37.46
-4.93
22.90
43.75
57.90
67.21
73.56
77.88
80.04
79.42
75.37
67.44
55.16
38.30
17.50
-5.60
-28.71
-49.89
-68.24
-83.81
-96.60
-105.63
-109.04
-104.96
-92.91
-74.21
-51.72
-29.02
-9.76
2.61
5.46
-2.10
-17.88
-36.36
-50.54
-55.28
-50.27
-40.32
-32.36
-31.35
-37.57
-47.07
-54.59
-56.77
-52.99
-43.97
-29.65
-8.76
19.35
52.24
83.79
106.40
114.91
109.59
96.09
82.33
74.17
73.13
76.56
79.76
78.44
70.30
55.52
36.41
16.33
-1.35
-14.71
-23.87
-30.89
-38.19
-46.21
-51.87
-49.01
-31.19
4.49
54.36
108.42
154.10
181.76
188.74
180.01
165.05
152.82
147.76
148.49
149.96
147.08
137.95
124.48
110.58
99.17
90.19
80.86
67.78
49.28
26.73
3.85
-14.95
-26.67
-30.81
-29.31
-25.20
-21.13
-18.45
-17.24
-17.00
-17.56
-19.58
-24.62
-34.50
-50.25
-71.28
-94.99
-117.39
-134.48
-143.68
-144.51
-138.32
-127.24
-113.18
-97.56
-81.46
-65.99
-52.31
-41.34
-33.29
-27.46
-22.62
-17.59
-12.05
-6.68
-2.86
-1.82
-3.95
-8.39
-13.35
-16.82
-17.29
-14.49
-9.35
-3.64
0.93
3.41
3.90
3.20
2.11
0.87
-0.84
-3.58
-7.76
-13.28
-19.67
-26.20
-32.00
-36.14
-37.55
-35.43
-29.61
-20.85
-10.80
-1.58
4.99
8.04
7.79
5.29
1.72
-2.02
-5.35
-7.79
-8.82
-8.12
-5.89
-3.12
-1.39
-2.11
-5.86
-12.05
-19.29
-26.19
-31.87
-36.22
-39.63
-42.47
-44.75
-46.26
-46.83
-46.70
-46.57
-47.30
-49.49
-53.18
-57.73
-62.01
-64.95
-65.90
-64.99
-63.03
-61.19
-60.50
-61.34
-63.43
-66.01
-68.24
-69.46
-69.22
-67.30
-63.59
-58.10
-51.09
-43.07
-34.60
-25.83
-16.12
-4.11
11.52
30.98
52.68
73.26
88.74
96.36
95.63
88.33
77.54
65.96
54.89
44.40
34.38
25.43
18.91
15.94
16.52
19.50
23.21
26.56
29.34
31.72
33.15
31.80
24.78
9.47
-15.02
-47.02
-82.36
-115.48
-140.95
-154.87
-155.98
-146.15
-129.81
-112.43
-98.64
-90.58
-87.81
-88.46
-90.57
-92.64
-93.32
-90.69
-82.30
-66.04
-41.58
-11.20
20.72
49.76
73.51
92.47
109.02
125.27
141.36
155.40
164.97
168.97
168.44
165.85
163.57
162.77
163.20
164.12
165.36
167.59
171.72
177.67
183.84
187.47
185.90
177.84
164.03
146.69
128.46
111.67
97.59
86.39
77.52
70.36
64.75
61.15
60.22
62.29
66.79
72.23
76.63
78.36
76.61
71.26
62.22
49.03
31.19
8.96
-15.86
-40.01
-60.16
-74.59
-84.42
-93.03
-104.05
-118.95
-135.61
-148.99
-153.57
-146.00
-126.59
-98.74
-67.13
-36.12
-9.17
11.00
22.19
22.87
12.71
-6.66
-31.65
-57.35
-78.55
-90.79
-90.82
-77.41
-52.09
-19.36
13.95
40.62
55.58
57.78
50.09
37.63
25.09
15.07
8.05
3.17
-0.61
-3.80
-6.52
-8.99
-11.97
-16.71
-24.44
-35.72
-50.19
-66.46
-82.30
-95.28
-103.71
-107.28
-107.27
-105.64
-103.75
-101.45
-97.09
-88.48
-74.50
-56.02
-35.69
-16.71
-1.45
9.26
15.70
18.36
17.45
13.47
8.19
4.88
7.13
16.58
31.53
47.03
57.33
58.83
52.07
41.17
31.25
25.34
22.79
20.18
13.51
0.57
-18.14
-39.58
-59.42
-73.20
-77.67
-71.76
-57.17
-38.17
-19.93
-6.53
0.84
4.51
9.04
18.35
32.92
48.82
59.42
58.92
45.75
24.08
2.28
-11.08
-11.17
0.99
19.45
36.17
44.88
43.50
34.16
21.27
8.85
-1.39
-10.25
-19.63
-30.83
-43.25
-54.82
-63.68
-69.50
-73.83
-78.47
-83.64
-87.18
-85.74
-76.97
-61.58
-43.48
-27.32
-14.99
-3.31
14.45
44.33
87.16
136.91
183.17
216.56
233.48
237.38
236.04
236.58
241.63
248.44
251.43
245.93
230.74
208.11
181.42
152.75
121.85
87.35
48.74
7.70
-32.11
-66.69
-93.33
-111.69
-123.46
-131.23
-137.28
-142.73
-147.74
-151.97
-154.98
-156.40
-155.66
-151.97
-144.88
-134.94
-123.87
-113.83
-105.90
-99.01
-90.15
-76.01
-55.30
-30.42
-7.16
7.24
6.87
-10.67
-43.71
-87.42
-135.33
-180.82
-217.91
-241.91
-250.04
-242.41
-222.23
-195.24
-167.72
-144.54
-128.13
-118.33
-113.14
-109.65
-104.53
-94.59
-77.53
-53.09
-23.76
5.63
29.74
45.39
53.46
59.11
69.44
89.74
120.46
156.72
190.63
215.30
227.91
230.42
227.79
225.02
224.47
225.34
225.02
221.19
213.56
203.85
194.30
186.08
178.52
169.65
157.56
141.39
121.62
99.90
78.60
60.19
46.82
39.91
39.60
44.48
51.53
56.52
54.60
41.54
14.77
-25.74
-77.13
-134.29
-190.80
-240.17
-276.56
-295.40
-294.12
-272.75
-234.31
-184.71
-131.62
-82.43
-42.36
-13.33
5.78
17.95
26.17
32.23
36.39
38.15
37.14
33.48
27.79
20.87
13.48
6.31
0.22
-3.73
-4.42
-1.08
6.36
16.94
29.08
41.22
52.31
61.94
69.98
76.27
80.50
82.52
82.37
80.03
75.01
66.44
53.78
37.63
19.96
3.47
-9.71
-19.18
-26.39
-33.74
-43.20
-55.23
-68.80
-82.13
-93.88
-103.75
-112.50
-121.41
-131.35
-142.26
-153.02
-162.03
-167.76
-169.09
-165.30
-155.82
-140.20
-118.60
-92.33
-64.04
-37.11
-14.22
3.87
18.24
30.70
41.97
50.85
54.98
52.90
45.76
37.08
30.65
28.08
28.14
28.10
26.21
23.11
21.49
23.99
31.07
40.64
49.69
56.44
61.26
65.81
71.18
76.79
80.79
81.90
80.87
80.14
82.22
87.40
93.25
96.00
92.78
83.05
68.29
50.65
31.67
12.08
-7.50
-25.75
-40.67
-50.64
-55.43
-56.30
-54.89
-51.60
-44.50
-30.10
-5.98
26.48
61.13
89.16
103.20
100.94
86.44
68.03
54.20
49.68
53.99
62.53
69.80
72.26
69.44
62.84
54.29
45.06
36.27
29.54
26.78
29.12
35.82
44.09
50.14
51.19
46.92
39.50
32.24
27.48
25.11
22.87
17.83
8.22
-5.74
-22.49
-40.18
-57.47
-73.36
-86.34
-94.01
-93.97
-85.15
-68.95
-49.28
-31.30
-19.06
-13.83
-14.03
-16.54
-18.45
-18.12
-15.17
-9.95
-2.89
5.52
14.41
22.60
28.96
32.81
34.19
33.85
32.69
31.27
29.62
27.33
23.96
19.28
13.47
6.96
0.24
-6.34
-12.58
-18.37
-23.63
-28.20
-31.91
-34.69
-36.70
-38.29
-39.92
-41.83
-43.79
-45.17
-45.27
-43.81
-41.18
-38.35
-36.41
-36.00
-37.01
-38.62
-39.73
-39.59
-38.08
-35.64
-32.88
-30.24
-27.77
-25.31
-22.67
-19.96
-17.46
-15.55
-14.52
-14.35
-14.78
-15.38
-15.66
-15.22
-13.86
-11.58
-8.58
-5.16
-1.65
1.67
4.56
6.78
8.09
8.31
7.44
5.71
3.57
1.46
-0.32
-1.82
-3.25
-4.89
-6.76
-8.72
-10.48
-11.91
-13.13
-14.50
-16.31
-18.59
-21.01
-23.07
-24.43
-25.09
-25.39
-25.72
-26.24
-26.73
-26.70
-25.62
-23.27
-19.81
-15.67
-11.44
-7.64
-4.60
-2.47
-1.22
-0.69
-0.68
-0.97
-1.32
-1.48
-1.28
-0.61
0.48
1.75
2.85
3.34
2.96
1.69
-0.24
-2.45
-4.48
-6.04
-7.06
-7.62
-7.92
-8.12
-8.26
-8.27
-7.99
-7.21
-5.75
-3.56
-0.66
2.70
6.21
9.52
12.35
14.61
16.36
17.70
18.70
19.32
19.42
18.91
17.82
16.33
14.70
13.08
11.46
9.69
7.71
5.54
3.39
1.53
0.08
-1.04
-2.07
-3.26
-4.74
-6.30
-7.59
-8.13
-7.58
-5.88
-3.22
-0.02
3.27
6.27
8.79
10.76
12.20
13.10
13.45
13.24
12.54
11.54
10.46
9.52
8.80
8.23
7.55
6.49
4.86
2.66
0.13
-2.39
-4.50
-5.99
-6.86
-7.27
-7.48
-7.64
-7.73
-7.56
-6.94
-5.76
-4.05
-1.96
0.39
2.91
5.54
8.19
10.69
12.78
14.24
14.90
14.76
13.95
12.68
11.19
9.68
8.28
7.00
5.79
4.56
3.23
1.78
0.28
-1.18
-2.55
-3.93
-5.57
-7.82
-10.89
-14.73
-18.92
-22.78
-25.54
-26.63
-25.93
-23.84
-21.05
-18.35
-16.26
-14.95
-14.18
-13.51
-12.53
-11.07
-9.33
-7.83
-7.27
-8.24
-11.02
-15.35
-20.48
-25.29
-28.64
-29.71
-28.28
-24.94
-20.92
-17.84
-17.22
-20.06
-26.45
-35.45
-45.37
-54.12
-59.76
-61.07
-58.01
-51.84
-44.62
-38.39
-34.27
-32.06
-30.50
-28.09
-24.06
-18.61
-12.49
-6.01
1.55
11.67
25.45
42.37
59.88
74.28
82.63
84.22
81.06
76.62
74.01
74.51
77.32
80.37
81.49
79.46
74.23
66.69
58.34
50.96
46.23
45.26
48.11
53.65
59.89
64.85
67.41
67.81
67.22
66.80
66.70
65.92
62.94
56.94
48.62
40.04
33.63
30.84
31.31
33.00
33.34
30.70
25.04
17.77
10.51
4.13
-1.75
-8.13
-15.70
-24.07
-31.86
-37.47
-39.95
-39.51
-37.29
-34.70
-32.71
-31.59
-30.98
-30.36
-29.46
-28.39
-27.50
-27.10
-27.08
-27.04
-26.51
-25.32
-23.85
-22.94
-23.32
-25.25
-28.29
-31.53
-34.14
-35.90
-37.28
-38.99
-41.52
-44.77
-48.27
-51.52
-54.34
-56.87
-59.34
-61.85
-64.27
-66.24
-67.33
-67.28
-65.87
-62.66
-56.76
-46.84
-31.70
-10.93
14.43
41.88
67.92
89.17
103.37
109.77
108.81
101.25
87.59
68.05
43.21
14.60
-15.11
-42.55
-64.67
-79.62
-87.07
-87.93
-83.78
-76.06
-65.56
-52.31
-35.62
-14.27
13.06
46.79
85.58
126.06
163.59
193.70
213.58
222.83
223.05
216.82
206.35
192.85
176.71
158.39
139.13
120.88
105.49
93.61
84.41
75.82
65.63
52.45
36.26
18.17
-0.08
-16.76
-30.73
-41.58
-49.56
-55.30
-59.53
-62.82
-65.32
-66.81
-66.90
-65.28
-61.98
-57.39
-52.07
-46.50
-40.96
-35.56
-30.34
-25.43
-20.92
-16.76
-12.55
-7.69
-1.79
4.85
11.04
14.96
14.86
9.86
0.36
-12.06
-25.36
-37.80
-48.40
-57.01
-63.95
-69.55
-73.93
-77.02
-78.70
-78.92
-77.65
-74.67
-69.66
-62.29
-52.58
-41.14
-29.15
-18.06
-9.11
-2.96
0.51
1.94
2.16
1.89
1.48
1.04
0.56
0.04
-0.52
-1.24
-2.47
-4.68
-8.20
-12.99
-18.53
-23.95
-28.36
-31.24
-32.59
-32.91
-32.85
-32.95
-33.42
-34.13
-34.71
-34.75
-33.90
-32.02
-29.24
-25.96
-22.73
-20.19
-18.75
-18.56
-19.43
-21.03
-23.06
-25.41
-28.17
-31.38
-34.80
-37.95
-40.42
-42.22
-43.67
-45.05
-46.16
-46.23
-44.49
-40.98
-37.21
-36.10
-40.84
-53.42
-73.57
-98.73
-125.10
-149.00
-167.90
-180.41
-185.62
-182.52
-169.98
-147.57
-116.40
-79.42
-40.95
-5.42
24.00
45.95
60.69
69.43
73.80
75.70
77.42
81.51
90.12
104.10
122.32
141.72
158.12
167.75
168.46
160.23
145.29
127.43
110.89
99.01
93.02
91.75
92.19
90.85
85.24
74.85
60.94
45.57
30.53
17.05
6.24
-0.40
-1.18
4.48
15.01
26.38
33.37
31.84
20.65
2.52
-17.09
-32.36
-39.25
-36.81
-27.47
-15.74
-6.35
-2.48
-4.51
-9.93
-14.82
-15.98
-12.67
-6.94
-2.19
-0.33
0.19
4.14
16.69
39.84
70.61
102.02
126.59
140.23
144.11
143.14
142.46
144.23
146.67
145.77
137.98
122.37
101.28
78.84
58.82
43.10
31.23
21.16
10.32
-3.45
-21.12
-42.05
-64.53
-86.69
-107.11
-125.04
-139.98
-151.03
-156.88
-156.23
-148.58
-135.14
-118.60
-101.76
-86.08
-71.27
-56.25
-40.59
-25.49
-13.48
-6.91
-6.08
-8.79
-11.54
-11.48
-7.98
-2.92
0.51
0.01
-4.29
-9.70
-12.66
-10.85
-4.78
2.45
6.75
5.36
-1.93
-12.82
-23.75
-31.60
-35.13
-34.92
-32.63
-29.97
-28.02
-27.02
-26.48
-25.38
-21.90
-13.25
3.49
29.71
63.81
101.00
134.79
159.60
173.37
178.38
179.87
183.33
191.60
203.44
214.42
219.34
214.81
200.51
178.70
152.64
125.04
97.22
69.40
41.38
13.37
-13.65
-38.17
-58.90
-75.53
-88.93
-100.68
-112.17
-123.65
-133.89
-140.59
-141.39
-135.00
-121.96
-104.55
-86.20
-70.34
-59.55
-54.94
-56.14
-61.64
-69.42
-77.66
-85.06
-90.89
-94.64
-95.66
-93.12
-86.35
-75.37
-61.37
-46.52
-33.37
-23.85
-18.69
-17.30
-18.33
-20.39
-22.53
-24.41
-26.08
-27.52
-28.57
-28.95
-28.48
-27.12
-25.00
-22.34
-19.33
-15.98
-12.18
-7.80
-2.79
2.63
8.01
12.73
16.23
18.26
18.99
18.95
18.79
19.03
19.91
21.37
23.14
24.82
26.06
26.56
26.14
24.83
22.92
20.89
19.19
18.05
17.27
16.35
14.56
11.33
6.48
0.41
-5.98
-11.54
-15.18
-16.23
-14.56
-10.59
-5.12
0.94
6.77
11.84
15.92
18.99
21.16
22.58
23.32
23.39
22.71
21.18
18.74
15.47
11.55
7.30
3.03
-1.02
-4.72
-8.08
-11.16
-14.04
-16.71
-19.07
-20.95
-22.29
-23.17
-23.87
-24.70
-25.78
-26.97
-27.89
-28.11
-27.40
-25.79
-23.60
-21.15
-18.63
-16.06
-13.39
-10.58
-7.72
-5.03
-2.79
-1.24
-0.48
-0.43
-0.84
-1.41
-1.84
-1.97
-1.83
-1.56
-1.30
-1.05
-0.72
-0.21
0.42
0.95
1.02
0.29
-1.29
-3.48
-5.86
-8.00
-9.61
-10.56
-10.90
-10.68
-9.94
-8.65
-6.78
-4.39
-1.68
0.99
3.26
4.88
5.80
6.17
6.20
6.04
5.73
5.18
4.34
3.24
2.04
0.96
0.16
-0.36
-0.71
-1.09
-1.64
-2.48
-3.62
-5.07
-6.80
-8.76
-10.85
-12.85
-14.52
-15.54
-15.71
-14.93
-13.30
-11.07
-8.53
-5.95
-3.53
-1.39
0.40
1.80
2.79
3.35
3.47
3.10
2.22
0.88
-0.69
-2.08
-2.77
-2.32
-0.52
2.42
5.89
9.07
11.21
11.83
10.89
8.75
5.91
2.93
0.15
-2.26
-4.24
-5.72
-6.56
-6.56
-5.56
-3.58
-0.78
2.53
5.98
9.20
11.91
13.86
14.98
15.36
15.30
15.20
15.40
16.02
16.90
17.65
17.81
17.07
15.37
12.90
10.04
7.09
4.25
1.41
-1.75
-5.70
-10.84
-17.48
-25.51
-34.31
-42.89
-50.18
-55.63
-59.56
-63.25
-68.43
-76.40
-87.27
-99.58
-110.68
-117.42
-117.22
-108.73
-92.19
-69.30
-42.79
-15.78
8.96
29.52
45.21
56.43
64.12
69.16
72.01
72.91
72.17
70.41
68.41
66.77
65.43
63.78
61.04
56.86
51.66
46.45
42.33
39.85
38.82
38.52
38.19
37.47
36.55
35.94
36.12
37.23
39.05
41.13
42.99
44.25
44.77
44.55
43.71
42.54
41.44
40.88
41.20
42.45
44.27
46.03
47.13
47.17
46.20
44.58
42.63
40.47
37.70
33.57
27.16
17.92
6.00
-7.48
-20.60
-31.25
-37.81
-39.79
-37.96
-33.84
-28.98
-24.30
-19.97
-15.72
-11.41
-7.29
-3.96
-1.94
-1.39
-2.14
-3.96
-6.81
-10.92
-16.37
-22.77
-29.04
-33.84
-36.16
-35.87
-33.81
-31.25
-29.21
-28.03
-27.41
-26.86
-26.14
-25.39
-24.81
-24.25
-23.10
-20.65
-16.59
-11.41
-6.08
-1.64
1.49
3.59
5.36
7.36
9.68
11.98
13.81
14.94
15.40
15.27
14.48
12.83
10.16
6.60
2.69
-0.90
-3.66
-5.49
-6.71
-7.85
-9.22
-10.83
-12.31
-13.15
-13.02
-11.95
-10.30
-8.56
-7.09
-5.91
-4.68
-2.95
-0.38
3.04
6.94
10.72
13.84
16.03
17.34
18.06
18.50
18.75
18.68
17.98
16.48
14.22
11.52
8.78
6.19
3.63
0.83
-2.46
-6.20
-10.14
-13.97
-17.63
-21.24
-25.02
-28.92
-32.58
-35.39
-36.78
-36.54
-34.89
-32.30
-29.22
-25.89
-22.32
-18.46
-14.36
-10.27
-6.56
-3.58
-1.50
-0.30
0.23
0.28
-0.11
-1.12
-3.10
-6.37
-10.91
-16.27
-21.73
-26.52
-30.16
-32.69
-34.54
-36.38
-38.82
-42.18
-46.47
-51.35
-56.18
-60.11
-62.15
-61.41
-57.41
-50.31
-41.01
-30.94
-21.63
-14.20
-9.01
-5.74
-3.51
-1.33
1.51
5.15
9.14
12.63
14.74
15.06
13.87
12.02
10.49
9.90
10.06
10.08
8.84
5.73
1.07
-4.03
-8.28
-10.82
-11.50
-10.73
-8.95
-6.25
-2.35
3.03
9.75
16.88
23.14
27.65
30.81
34.55
41.58
53.76
70.74
89.02
102.49
104.26
89.26
56.50
9.98
-42.25
-90.37
-125.43
-141.38
-135.59
-108.28
-61.70
0.60
73.59
150.47
222.85
281.90
320.33
334.79
327.02
303.36
272.49
242.51
218.27
200.25
185.39
169.21
148.78
124.42
99.49
78.49
64.26
56.21
50.50
42.27
28.49
9.83
-9.80
-25.53
-34.28
-36.26
-34.20
-31.39
-29.87
-29.88
-30.85
-32.97
-37.68
-46.70
-60.06
-74.76
-85.18
-85.38
-72.17
-47.04
-15.78
14.02
36.52
49.95
56.78
61.81
69.40
81.56
97.36
114.24
129.38
140.85
147.78
150.12
148.47
143.86
137.82
132.03
127.79
125.23
122.88
117.91
107.13
88.30
60.96
26.75
-11.34
-49.64
-84.77
-114.26
-136.91
-152.79
-162.76
-168.26
-170.82
-172.40
-174.76
-179.26
-186.90
-198.37
-214.11
-234.15
-258.45
-287.07
-320.94
-359.49
-399.92
-437.14
-465.43
-480.96
-483.66
-477.46
-468.39
-463.10
-464.77
-472.65
-483.44
-493.65
-500.72
-502.48
-496.05
-477.74
-445.33
-397.57
-335.16
-261.01
-180.27
-100.10
-28.81
25.67
72.95
117.01
157.86
193.89
225.49
255.33
286.17
319.90
357.42
398.26
440.78
483.34
522.27
553.38
573.25
580.10
574.39
558.80
524.78
473.96
412.66
348.81
289.75
240.53
203.01
175.91
155.44
135.27
109.62
74.19
28.85
-21.29
-68.02
-104.13
-129.23
-144.99
-155.58
-164.30
-173.20
-181.92
-187.97
-188.20
-180.95
-166.23
-145.11
-119.66
-91.30
-61.44
-30.72
1.39
35.96
72.30
107.67
136.36
151.45
148.05
124.79
84.98
35.85
-13.70
-57.33
-92.33
-119.81
-143.70
-168.35
-196.91
-230.30
-266.78
-295.19
-304.09
-284.21
-232.04
-150.87
-49.28
60.49
163.73
245.29
293.29
301.48
272.93
219.25
156.43
99.15
56.46
30.47
18.28
15.78
18.43
22.79
26.13
26.11
21.77
14.51
8.38
7.83
16.41
33.51
54.97
74.90
88.36
93.33
90.72
83.05
70.85
56.82
42.05
27.19
13.15
1.02
-8.36
-15.04
-19.79
-23.51
-26.04
-27.34
-26.90
-24.00
-18.32
-9.92
1.03
14.23
29.58
46.90
64.70
80.19
89.46
88.61
75.42
50.72
18.29
-16.24
-47.02
-69.81
-82.14
-83.27
-74.01
-56.43
-33.96
-11.01
7.87
19.34
21.35
14.49
1.58
-13.87
-29.09
-42.78
-54.90
-65.80
-75.53
-83.76
-89.64
-92.18
-90.25
-82.45
-67.19
-43.23
-10.47
29.24
71.96
112.59
146.07
168.76
179.34
178.88
170.14
156.55
141.18
126.17
112.62
100.72
90.13
80.34
70.90
61.51
51.99
42.21
32.07
21.58
10.95
0.55
-9.14
-17.85
-25.62
-32.91
-40.29
-48.04
-55.75
-62.26
-66.08
-65.99
-61.74
-54.25
-45.40
-37.41
-32.13
-30.55
-32.68
-37.71
-44.48
-51.76
-58.66
-64.64
-69.68
-74.09
-78.31
-82.58
-86.73
-90.16
-91.92
-91.15
-87.23
-80.21
-70.70
-59.70
-48.36
-37.57
-27.86
-19.49
-12.62
-7.45
-4.13
-2.58
-2.18
-1.87
-0.57
2.36
6.78
11.79
16.37
19.95
22.77
25.47
28.48
31.36
32.76
31.03
25.10
15.15
2.57
-10.92
-24.23
-37.88
-53.49
-72.76
-95.85
-120.32
-141.33
-153.15
-151.29
-134.55
-105.59
-70.05
-34.61
-4.69
16.98
30.52
37.93
41.73
43.91
45.42
46.44
46.78
46.29
45.04
43.28
41.37
39.77
39.17
40.38
44.18
50.93
60.27
70.92
80.76
87.29
88.29
82.42
69.64
51.40
30.33
9.64
-7.66
-19.42
-24.92
-24.93
-21.32
-16.49
-12.57
-10.82
-11.44
-13.63
-16.07
-17.52
-17.31
-15.49
-12.78
-10.04
-7.90
-6.52
-5.60
-4.70
-3.56
-2.36
-1.48
-1.39
-2.23
-3.79
-5.58
-7.10
-8.02
-8.21
-7.68
-6.44
-4.49
-1.89
1.19
4.35
7.18
9.40
11.02
12.36
13.86
15.82
18.24
20.86
23.27
25.10
26.15
26.37
25.79
24.52
22.70
20.60
18.44
16.33
14.07
11.22
7.25
1.83
-4.84
-12.09
-18.85
-24.04
-26.90
-27.13
-24.84
-20.57
-15.05
-9.10
-3.46
1.36
5.18
8.08
10.33
12.20
13.79
15.10
16.05
16.52
16.45
15.88
14.87
13.52
11.97
10.33
8.72
7.17
5.60
3.89
1.97
-0.19
-2.55
-5.04
-7.63
-10.27
-12.97
-15.72
-18.45
-21.06
-23.34
-24.96
-25.60
-25.02
-23.18
-20.33
-16.92
-13.44
-10.24
-7.47
-5.12
-3.20
-1.79
-1.06
-1.07
-1.73
-2.68
-3.49
-3.84
-3.66
-3.17
-2.69
-2.47
-2.53
-2.71
-2.77
-2.59
-2.19
-1.75
-1.48
-1.53
-1.92
-2.62
-3.54
-4.54
-5.41
-5.83
-5.45
-3.96
-1.23
2.59
7.10
11.72
15.87
19.14
21.32
22.47
22.82
22.61
22.05
21.28
20.29
19.03
17.39
15.30
12.79
10.06
7.41
5.23
3.85
3.41
3.76
4.53
5.24
5.47
4.98
3.77
1.97
-0.16
-2.37
-4.42
-6.01
-6.89
-6.86
-5.80
-3.84
-1.26
1.58
4.32
6.69
8.60
10.03
10.94
11.27
10.91
9.80
8.04
5.88
3.75
2.09
1.17
1.00
1.29
1.58
1.44
0.62
-0.86
-2.75
-4.70
-6.42
-7.79
-8.94
-10.10
-11.53
-13.29
-15.24
-16.97
-17.93
-17.70
-16.09
-13.32
-9.91
-6.48
-3.51
-1.23
0.45
1.70
2.66
3.35
3.66
3.52
3.01
2.37
1.82
1.47
1.22
0.76
-0.13
-1.52
-3.19
-4.78
-6.02
-6.84
-7.47
-8.33
-9.72
-11.73
-14.18
-16.71
-19.01
-20.85
-22.05
-22.55
-22.27
-21.18
-19.39
-17.11
-14.60
-12.10
-9.70
-7.37
-5.00
-2.50
0.12
2.80
5.42
7.84
9.93
11.55
12.60
13.01
12.84
12.20
11.24
10.02
8.55
6.73
4.43
1.68
-1.40
-4.61
-7.69
-10.52
-13.02
-15.11
-16.64
-17.39
-17.10
-15.63
-13.02
-9.50
-5.44
-1.29
2.54
5.74
8.12
9.66
10.50
10.85
10.97
11.01
11.02
10.89
10.49
9.71
8.48
6.77
4.66
2.28
-0.13
-2.30
-3.97
-5.04
-5.59
-5.93
-6.51
-7.75
-9.83
-12.66
-15.77
-18.47
-19.96
-19.70
-17.50
-13.66
-8.82
-3.68
1.20
5.57
9.40
12.71
15.44
17.47
18.70
19.21
19.25
19.14
19.11
19.09
18.87
18.22
17.04
15.46
13.71
11.98
10.36
8.79
7.19
5.53
3.85
2.19
0.51
-1.21
-2.92
-4.39
-5.22
-4.99
-3.41
-0.54
3.30
7.58
11.73
15.33
18.08
19.81
20.41
19.81
18.04
15.27
11.85
8.24
4.90
2.15
0.10
-1.37
-2.53
-3.69
-5.05
-6.65
-8.37
-10.00
-11.41
-12.54
-13.50
-14.43
-15.50
-16.87
-18.66
-20.85
-23.24
-25.43
-26.84
-26.86
-25.15
-21.69
-16.88
-11.45
-6.14
-1.55
2.01
4.44
5.87
6.45
6.38
5.82
4.96
3.97
3.01
2.24
1.74
1.48
1.36
1.31
1.27
1.24
1.23
1.17
0.87
0.07
-1.44
-3.67
-6.39
-9.15
-11.41
-12.67
-12.63
-11.18
-8.39
-4.47
0.34
5.83
11.78
17.93
23.81
28.78
32.10
33.20
31.92
28.60
24.05
19.20
14.82
11.31
8.74
6.94
5.71
4.91
4.38
3.97
3.46
2.62
1.29
-0.54
-2.72
-5.03
-7.21
-9.16
-10.94
-12.69
-14.57
-16.52
-18.21
-19.07
-18.56
-16.39
-12.69
-8.00
-3.00
1.63
5.58
8.82
11.50
13.72
15.42
16.39
16.42
15.47
13.82
11.96
10.42
9.53
9.27
9.31
9.16
8.45
7.07
5.19
3.15
1.23
-0.50
-2.13
-3.89
-5.97
-8.37
-10.99
-13.60
-15.97
-17.85
-19.01
-19.18
-18.15
-15.82
-12.29
-7.89
-3.10
1.57
5.64
8.78
10.83
11.80
11.91
11.48
10.87
10.38
10.17
10.26
10.57
10.96
11.33
11.58
11.63
11.34
10.67
9.61
8.28
6.89
5.65
4.64
3.73
2.68
1.21
-0.81
-3.21
-5.56
-7.32
-8.02
-7.48
-5.77
-3.14
0.11
3.71
7.44
11.03
14.17
16.49
17.67
17.58
16.34
14.30
11.92
9.60
7.65
6.18
5.17
4.50
3.98
3.35
2.41
1.03
-0.71
-2.55
-4.13
-5.15
-5.56
-5.57
-5.59
-6.00
-6.97
-8.43
-10.12
-11.74
-13.05
-13.82
-13.81
-12.74
-10.35
-6.64
-1.97
3.03
7.64
11.35
13.98
15.65
16.58
16.95
16.77
16.05
14.90
13.55
12.28
11.25
10.48
9.79
8.96
7.78
6.19
4.21
2.01
-0.17
-2.06
-3.46
-4.41
-5.19
-6.25
-8.05
-10.79
-14.33
-18.18
-21.68
-24.21
-25.37
-25.00
-23.23
-20.30
-16.60
-12.55
-8.48
-4.65
-1.21
1.74
4.10
5.73
6.54
6.59
6.06
5.27
4.56
4.19
4.18
4.41
4.60
4.47
3.82
2.64
1.08
-0.63
-2.23
-3.53
-4.49
-5.23
-5.99
-6.99
-8.36
-10.07
-11.87
-13.40
-14.28
-14.19
-13.02
-10.83
-7.82
-4.32
-0.69
2.67
5.47
7.43
8.38
8.33
7.35
5.69
3.69
1.71
0.09
-0.98
-1.51
-1.75
-2.03
-2.63
-3.61
-4.77
-5.81
-6.45
-6.66
-6.61
-6.60
-6.90
-7.59
-8.59
-9.75
-11.00
-12.30
-13.57
-14.57
-14.93
-14.24
-12.27
-9.09
-5.05
-0.67
3.57
7.33
10.46
12.92
14.62
15.54
15.65
15.08
14.10
13.09
12.36
12.02
12.02
12.10
12.02
11.60
10.82
9.76
8.53
7.18
5.67
3.95
2.00
-0.10
-2.25
-4.30
-6.21
-8.00
-9.66
-11.11
-12.10
-12.33
-11.54
-9.66
-6.87
-3.56
-0.20
2.80
5.16
6.75
7.56
7.66
7.14
6.18
4.96
3.72
2.67
1.98
1.73
1.86
2.21
2.48
2.41
1.85
0.82
-0.44
-1.64
-2.56
-3.18
-3.67
-4.33
-5.37
-6.84
-8.65
-10.59
-12.41
-13.85
-14.69
-14.71
-13.76
-11.79
-9.02
-5.85
-2.77
-0.26
1.46
2.43
2.91
3.20
3.51
3.90
4.29
4.55
4.54
4.12
3.14
1.57
-0.52
-2.86
-5.13
-7.04
-8.45
-9.34
-9.64
-9.12
-7.47
-4.49
-0.41
4.01
7.71
9.80
9.98
8.67
6.83
5.46
5.30
6.61
9.25
12.95
17.44
22.52
27.90
33.10
37.37
39.85
39.81
36.97
31.59
24.34
15.96
6.95
-2.62
-12.90
-23.93
-35.36
-46.45
-56.45
-65.04
-72.52
-79.59
-86.90
-94.57
-102.20
-109.32
-115.91
-122.65
-130.51
-139.96
-150.26
-159.23
-163.90
-161.55
-150.58
-130.96
-103.82
-70.76
-33.24
7.65
50.89
95.17
138.62
178.87
213.29
239.55
256.00
262.04
258.11
245.57
226.33
202.63
176.72
150.70
126.33
104.86
86.83
71.97
59.47
48.29
37.67
27.36
17.54
8.48
0.27
-7.20
-14.08
-20.22
-25.20
-28.58
-30.19
-30.31
-29.41
-27.88
-25.84
-23.27
-20.49
-18.39
-18.31
-21.52
-28.52
-38.75
-50.81
-63.14
-74.59
-84.54
-92.49
-97.54
-98.36
-93.64
-82.87
-67.00
-48.40
-30.31
-15.70
-6.28
-1.88
-0.89
-0.97
0.02
3.59
10.58
20.94
34.11
49.31
65.54
81.40
94.95
104.21
107.98
106.57
101.21
93.73
85.97
79.38
74.53
71.16
68.58
66.38
64.90
64.05
63.39
62.30
60.59
57.97
53.75
46.84
36.26
21.80
2.67
-22.23
-54.04
-92.93
-138.53
-189.89
-245.25
-301.61
-346.71
-366.87
-353.78
-310.58
-248.80
-181.66
-118.36
-63.24
-17.65
18.10
42.37
53.42
51.65
43.18
36.14
38.70
55.93
87.72
128.57
168.72
198.26
205.67
189.94
158.05
120.14
84.32
54.34
30.28
10.17
-7.51
-22.71
-33.26
-37.47
-34.94
-27.05
-15.37
-1.59
12.19
23.46
29.70
29.87
24.01
13.65
1.38
-9.88
-17.97
-22.19
-23.21
-22.32
-20.33
-17.83
-15.48
-13.98
-14.43
-17.83
-24.52
-33.83
-44.22
-53.57
-60.17
-63.32
-63.39
-61.51
-58.93
-56.45
-54.20
-51.72
-48.39
-43.98
-38.85
-33.86
-29.81
-27.02
-25.14
-23.23
-20.32
-15.85
-10.04
-3.77
1.82
5.83
7.93
8.58
8.79
9.88
12.98
18.78
27.26
37.70
48.79
58.83
66.22
69.75
68.83
63.52
54.39
42.27
28.14
13.14
-1.51
-14.43
-24.43
-30.71
-33.10
-32.07
-28.49
-23.31
-17.29
-10.89
-4.49
1.55
6.74
10.61
12.78
13.23
12.26
10.47
8.46
6.66
5.19
3.92
2.61
1.07
-0.66
-2.46
-4.12
-5.51
-6.52
-7.11
-7.20
-6.73
-5.67
-4.04
-2.05
0.06
2.19
4.44
7.10
10.40
14.28
18.40
22.20
25.16
26.97
27.56
27.02
25.38
22.53
18.34
12.87
6.80
1.01
-3.51
-6.05
-6.21
-3.95
0.35
6.01
11.96
17.29
20.84
21.65
19.59
15.69
11.89
10.20
11.94
17.18
25.36
35.15
45.11
54.38
63.05
71.73
80.90
90.50
99.95
108.87
116.17
119.90
117.66
107.35
87.94
59.92
25.78
-13.86
-53.61
-86.10
-105.76
-111.80
-107.88
-98.95
-88.72
-78.52
-68.05
-55.90
-41.80
-27.10
-13.93
-4.15
1.19
1.56
-2.38
-10.23
-20.12
-29.20
-34.04
-31.57
-20.47
-1.96
18.85
35.33
42.62
40.33
31.92
22.30
15.03
10.67
7.21
1.74
-6.94
-17.70
-27.52
-33.48
-34.31
-30.75
-24.93
-19.08
-14.47
-11.09
-8.09
-4.59
-0.53
3.12
4.89
3.50
-1.56
-8.99
-16.96
-23.53
-27.33
-27.89
-25.67
-21.75
-17.41
-13.72
-11.24
-10.14
-10.15
-10.92
-12.23
-14.11
-16.85
-20.82
-26.29
-33.26
-41.48
-50.25
-58.50
-64.80
-67.81
-66.61
-61.15
-52.43
-42.17
-32.39
-24.61
-19.37
-16.26
-14.38
-12.86
-11.29
-9.80
-8.81
-8.82
-10.15
-12.98
-17.32
-23.00
-29.50
-35.95
-41.19
-44.02
-43.53
-39.37
-31.86
-21.84
-10.47
1.02
11.59
20.46
27.14
31.51
33.75
34.35
33.94
33.13
32.25
31.26
29.87
27.79
25.02
22.00
19.45
17.92
17.42
17.21
16.18
13.36
8.53
2.46
-3.32
-7.10
-7.56
-4.07
3.35
14.26
28.13
44.24
61.61
78.88
94.35
106.33
113.60
115.69
112.79
105.53
94.62
80.80
65.08
48.96
34.43
23.45
17.19
15.42
16.55
18.22
18.29
15.54
9.86
1.91
-7.44
-17.48
-27.71
-37.52
-46.11
-52.54
-56.09
-56.61
-54.57
-50.85
-46.37
-41.86
-37.66
-33.81
-30.19
-26.68
-23.21
-19.85
-16.76
-14.16
-12.33
-11.42
-11.38
-11.80
-12.00
-11.22
-8.93
-5.19
-0.68
3.49
6.24
6.99
5.87
3.65
1.30
-0.47
-1.48
-2.15
-3.10
-4.82
-7.38
-10.36
-13.01
-14.57
-14.43
-12.27
-8.02
-1.83
5.93
14.70
23.78
32.38
39.71
45.08
48.03
48.42
46.45
42.60
37.68
32.57
27.97
24.25
21.28
18.54
15.41
11.42
6.52
1.02
-4.57
-9.76
-14.23
-17.89
-20.74
-22.86
-24.38
-25.48
-26.40
-27.29
-28.08
-28.39
-27.64
-25.26
-20.99
-15.01
-7.91
-0.42
6.81
13.28
18.70
22.82
25.43
26.41
25.83
24.04
21.65
19.27
17.33
15.91
14.78
13.60
12.14
10.45
8.79
7.47
6.64
6.19
5.77
4.96
3.43
1.00
-2.35
-6.58
-11.55
-17.00
-22.37
-26.85
-29.51
-29.67
-27.11
-22.26
-16.07
-9.67
-3.98
0.48
3.56
5.31
5.82
5.13
3.33
0.63
-2.55
-5.66
-8.22
-9.93
-10.69
-10.60
-9.76
-8.36
-6.57
-4.67
-3.09
-2.29
-2.72
-4.64
-8.05
-12.63
-17.86
-23.15
-27.98
-31.91
-34.68
-36.10
-36.01
-34.25
-30.71
-25.49
-18.92
-11.63
-4.42
1.95
6.99
10.58
12.90
14.33
15.22
15.74
15.94
15.83
15.45
14.95
14.47
14.08
13.67
13.09
12.18
10.94
9.50
8.06
6.79
5.66
4.53
3.21
1.55
-0.43
-2.65
-5.04
-7.51
-10.06
-12.55
-14.67
-15.97
-15.89
-14.12
-10.61
-5.74
-0.16
5.35
10.10
13.66
15.78
16.47
15.83
14.04
11.32
7.93
4.18
0.48
-2.76
-5.28
-7.03
-8.40
-10.03
-12.54
-16.28
-20.93
-25.66
-29.29
-30.87
-29.99
-26.92
-22.51
-17.86
-13.92
-11.37
-10.39
-10.77
-11.94
-13.09
-13.41
-12.28
-9.44
-5.07
0.35
6.16
11.80
16.83
21.02
24.31
26.74
28.48
29.78
30.97
32.35
34.03
35.88
37.47
38.25
37.71
35.61
31.98
27.19
21.73
16.18
11.09
6.91
3.95
2.19
1.21
0.17
-1.96
-6.01
-12.19
-19.83
-27.48
-33.40
-36.14
-35.15
-30.91
-24.65
-17.92
-11.95
-7.42
-4.38
-2.52
-1.50
-1.01
-0.90
-0.95
-0.88
-0.34
0.90
2.84
5.20
7.47
9.14
9.93
9.96
9.77
10.05
11.40
13.94
17.17
20.10
21.59
20.78
17.38
11.79
4.92
-2.07
-8.15
-12.54
-14.86
-15.04
-13.36
-10.33
-6.67
-3.14
-0.41
1.06
1.13
0.04
-1.79
-3.76
-5.37
-6.26
-6.29
-5.56
-4.27
-2.78
-1.41
-0.44
-0.06
-0.34
-1.21
-2.51
-4.01
-5.51
-6.87
-7.99
-8.82
-9.34
-9.60
-9.63
-9.44
-8.83
-7.46
-4.91
-0.95
4.29
10.17
15.69
19.86
22.01
22.07
20.41
17.75
14.67
11.58
8.61
5.83
3.32
1.21
-0.34
-1.33
-1.91
-2.36
-3.00
-3.96
-5.13
-6.20
-6.89
-7.12
-7.17
-7.60
-8.98
-11.62
-15.33
-19.47
-23.19
-25.78
-26.82
-26.25
-24.29
-21.21
-17.29
-12.75
-7.87
-2.97
1.54
5.34
8.17
10.00
10.89
11.01
10.54
9.67
8.54
7.29
5.97
4.64
3.27
1.92
0.66
-0.42
-1.22
-1.73
-2.11
-2.58
-3.42
-4.75
-6.58
-8.78
-11.17
-13.58
-15.78
-17.53
-18.47
-18.27
-16.67
-13.64
-9.42
-4.54
0.37
4.73
8.08
10.23
11.16
11.03
10.09
8.70
7.24
6.07
5.49
5.61
6.27
7.11
7.62
7.35
6.11
4.05
1.61
-0.69
-2.48
-3.66
-4.42
-5.11
-6.04
-7.30
-8.77
-10.13
-11.00
-11.06
-10.11
-8.14
-5.37
-2.16
1.04
3.87
6.18
8.02
9.54
10.91
12.08
12.86
13.03
12.44
11.12
9.35
7.44
5.71
4.35
3.32
2.46
1.55
0.38
-1.20
-3.21
-5.57
-8.17
-10.88
-13.58
-16.12
-18.28
-19.79
-20.33
-19.65
-17.70
-14.58
-10.58
-6.13
-1.63
2.53
6.07
8.85
10.81
11.98
12.49
12.46
12.07
11.51
10.90
10.27
9.52
8.47
6.96
4.98
2.73
0.57
-1.16
-2.32
-3.03
-3.68
-4.76
-6.67
-9.56
-13.23
-17.22
-20.80
-23.24
-23.95
-22.67
-19.55
-15.14
-10.17
-5.35
-1.10
2.45
5.37
7.76
9.63
10.89
11.43
11.27
10.55
9.53
8.46
7.47
6.60
5.78
4.96
4.12
3.38
2.87
2.65
2.70
2.81
2.68
2.00
0.55
-1.68
-4.47
-7.46
-10.19
-12.26
-13.36
-13.33
-12.10
-9.82
-6.71
-3.12
0.55
3.98
6.93
9.34
11.22
12.64
13.67
14.30
14.51
14.29
13.68
12.75
11.62
10.32
8.84
7.16
5.32
3.44
1.68
0.19
-1.09
-2.34
-3.91
-6.09
-8.98
-12.39
-15.83
-18.65
-20.24
-20.11
-18.10
-14.36
-9.33
-3.62
2.11
7.31
11.59
14.72
16.65
17.43
17.15
16.01
14.28
12.26
10.25
8.50
7.01
5.68
4.31
2.73
0.97
-0.78
-2.24
-3.19
-3.57
-3.62
-3.67
-4.12
-5.26
-7.17
-9.81
-13.00
-16.46
-19.80
-22.53
-24.03
-23.73
-21.30
-16.74
-10.48
-3.28
3.92
10.23
15.01
17.95
19.11
18.80
17.49
15.73
13.97
12.60
11.84
11.81
12.44
13.50
14.57
15.15
14.80
13.28
10.68
7.39
3.95
0.86
-1.61
-3.42
-4.81
-6.14
-7.74
-9.73
-12.01
-14.19
-15.79
-16.27
-15.33
-12.94
-9.38
-5.14
-0.79
3.21
6.55
9.17
11.08
12.37
13.11
13.36
13.19
12.74
12.15
11.53
10.93
10.27
9.38
8.10
6.38
4.26
1.95
-0.34
-2.36
-3.96
-5.16
-6.12
-7.14
-8.54
-10.52
-13.02
-15.72
-18.04
-19.38
-19.30
-17.55
-14.25
-9.72
-4.45
1.01
6.14
10.55
13.97
16.32
17.65
18.17
18.10
17.72
17.19
16.54
15.68
14.47
12.84
10.92
8.95
7.24
5.93
4.98
4.12
3.06
1.68
0.04
-1.64
-3.20
-4.66
-6.10
-7.65
-9.19
-10.36
-10.61
-9.47
-6.80
-2.92
1.58
6.01
9.89
13.02
15.46
17.28
18.46
18.77
18.01
16.14
13.55
10.93
9.03
8.32
8.74
9.75
10.60
10.68
9.76
8.01
5.85
3.70
1.80
0.15
-1.41
-3.12
-5.13
-7.52
-10.25
-13.15
-15.96
-18.32
-19.86
-20.28
-19.44
-17.38
-14.38
-10.85
-7.30
-4.14
-1.66
0.03
0.99
1.37
1.34
1.06
0.72
0.45
0.36
0.46
0.65
0.77
0.63
0.11
-0.74
-1.74
-2.62
-3.19
-3.34
-3.14
-2.80
-2.63
-2.99
-4.19
-6.36
-9.34
-12.67
-15.61
-17.38
-17.44
-15.61
-12.15
-7.67
-2.90
1.51
5.11
7.67
9.21
9.89
9.99
9.89
9.95
10.47
11.55
13.10
14.86
16.45
17.49
17.71
16.97
15.38
13.12
10.47
7.63
4.70
1.65
-1.64
-5.25
-9.15
-13.18
-16.94
-19.93
-21.56
-21.39
-19.22
-15.20
-9.83
-3.84
1.98
6.99
10.75
13.11
14.16
14.17
13.51
12.60
11.78
11.30
11.23
11.46
11.75
11.87
11.64
11.03
10.17
9.27
8.53
8.00
7.59
7.04
6.05
4.41
1.99
-1.14
-4.78
-8.57
-12.00
-14.44
-15.35
-14.37
-11.53
-7.27
-2.28
2.71
7.13
10.66
13.13
14.44
14.50
13.31
11.00
7.95
4.65
1.63
-0.75
-2.29
-3.05
-3.24
-3.19
-3.35
-4.09
-5.71
-8.26
-11.57
-15.23
-18.81
-22.01
-24.76
-27.17
-29.37
-31.34
-32.74
-33.06
-31.77
-28.53
-23.35
-16.57
-8.75
-0.59
7.27
14.16
19.51
22.83
23.83
22.57
19.48
15.32
10.91
6.93
3.78
1.48
-0.12
-1.27
-2.09
-2.65
-2.94
-2.99
-2.89
-2.78
-2.86
-3.30
-4.27
-5.87
-8.10
-10.73
-13.29
-15.09
-15.50
-14.04
-10.69
-5.86
-0.32
5.06
9.55
12.62
14.11
14.10
12.88
10.91
8.77
6.99
6.03
6.06
6.88
7.98
8.73
8.52
7.08
4.45
1.00
-2.77
-6.35
-9.34
-11.50
-12.73
-13.15
-13.00
-12.63
-12.35
-12.28
-12.31
-12.11
-11.28
-9.51
-6.71
-3.06
1.00
4.90
8.09
10.21
11.22
11.42
11.26
11.13
11.12
10.97
10.23
8.48
5.61
1.86
-2.29
-6.25
-9.43
-11.36
-11.65
-10.08
-6.72
-1.99
3.33
8.23
11.80
13.38
12.68
9.79
5.17
-0.47
-6.20
-11.03
-14.14
-15.16
-14.19
-11.73
-8.46
-4.99
-1.79
0.81
2.54
3.24
2.98
2.12
1.30
1.22
2.28
4.39
7.02
9.36
10.68
10.60
9.14
6.70
3.85
1.19
-0.91
-2.30
-3.16
-3.90
-4.94
-6.48
-8.47
-10.49
-11.98
-12.43
-11.54
-9.24
-5.69
-1.17
3.95
9.22
14.08
18.01
20.54
21.46
20.91
19.30
17.19
15.04
13.13
11.47
9.92
8.32
6.60
4.80
3.04
1.41
-0.08
-1.54
-3.21
-5.30
-7.96
-11.13
-14.56
-17.85
-20.55
-22.26
-22.71
-21.80
-19.56
-16.20
-12.00
-7.39
-2.86
1.15
4.36
6.65
8.18
9.23
10.06
10.82
11.49
11.94
12.02
11.64
10.83
9.64
8.20
6.58
4.82
2.99
1.14
-0.67
-2.42
-4.18
-6.05
-8.09
-10.27
-12.44
-14.34
-15.71
-16.38
-16.25
-15.37
-13.83
-11.76
-9.33
-6.71
-4.12
-1.78
0.12
1.52
2.47
3.10
3.62
4.21
4.96
5.86
6.79
7.51
7.77
7.32
6.05
4.03
1.48
-1.16
-3.46
-5.01
-5.66
-5.53
-4.94
-4.35
-4.17
-4.60
-5.62
-6.89
-8.00
-8.49
-8.00
-6.37
-3.62
0.05
4.25
8.48
12.20
14.94
16.41
16.58
15.75
14.43
13.14
12.27
11.90
11.87
11.81
11.41
10.47
8.97
7.03
4.83
2.55
0.36
-1.61
-3.23
-4.47
-5.42
-6.25
-7.15
-8.20
-9.25
-9.94
-9.85
-8.77
-6.76
-4.19
-1.61
0.51
1.97
2.82
3.20
3.26
2.94
2.10
0.59
-1.57
-4.15
-6.77
-9.07
-10.95
-12.44
-13.70
-14.85
-15.86
-16.58
-16.89
-16.77
-16.38
-15.97
-15.75
-15.71
-15.73
-15.50
-14.76
-13.30
-11.07
-8.21
-4.96
-1.65
1.37
3.83
5.56
6.53
6.80
6.47
5.65
4.51
3.25
2.12
1.34
1.11
1.42
2.11
2.88
3.35
3.26
2.53
1.32
0.01
-0.94
-1.24
-0.92
-0.29
0.13
-0.05
-0.90
-2.11
-3.11
-3.33
-2.44
-0.43
2.48
5.94
9.59
13.11
16.11
18.25
19.20
18.86
17.34
15.06
12.47
9.96
7.70
5.62
3.52
1.27
-1.07
-3.30
-5.19
-6.61
-7.73
-8.84
-10.34
-12.50
-15.43
-18.96
-22.75
-26.31
-29.10
-30.59
-30.34
-28.17
-24.15
-18.73
-12.59
-6.49
-1.12
3.01
5.68
6.97
7.21
6.98
6.88
7.38
8.63
10.41
12.21
13.47
13.77
12.99
11.31
9.09
6.68
4.34
2.21
0.35
-1.23
-2.61
-3.90
-5.29
-6.94
-8.91
-11.04
-12.97
-14.20
-14.21
-12.72
-9.77
-5.76
-1.33
2.89
6.47
9.33
11.63
13.59
15.34
16.75
17.58
17.66
17.03
16.02
15.05
14.42
14.16
13.98
13.42
12.18
10.20
7.72
5.17
2.91
1.14
-0.17
-1.23
-2.33
-3.72
-5.49
-7.52
-9.51
-11.04
-11.68
-11.12
-9.30
-6.42
-2.82
1.04
4.71
7.76
9.83
10.64
10.19
8.67
6.57
4.50
3.00
2.34
2.52
3.26
4.18
4.91
5.20
4.99
4.31
3.29
2.03
0.65
-0.81
-2.36
-4.02
-5.86
-7.93
-10.24
-12.75
-15.25
-17.43
-18.84
-19.00
-17.58
-14.51
-10.08
-4.90
0.26
4.69
7.99
10.06
11.14
11.59
11.71
11.68
11.57
11.40
11.27
11.30
11.57
12.03
12.45
12.51
11.92
10.58
8.61
6.32
4.07
2.08
0.41
-1.10
-2.65
-4.37
-6.28
-8.27
-10.18
-11.84
-13.06
-13.62
-13.24
-11.65
-8.75
-4.71
-0.10
4.30
7.72
9.74
10.26
9.53
7.95
5.96
3.96
2.27
1.15
0.77
1.11
1.99
3.13
4.24
5.14
5.82
6.35
6.76
6.97
6.81
6.05
4.59
2.41
-0.31
-3.38
-6.59
-9.80
-12.89
-15.75
-18.19
-19.90
-20.59
-20.07
-18.30
-15.50
-12.00
-8.15
-4.19
-0.26
3.56
7.12
10.21
12.59
14.11
14.75
14.64
14.00
13.06
11.96
10.75
9.36
7.71
5.73
3.41
0.79
-1.99
-4.80
-7.49
-10.01
-12.37
-14.57
-16.52
-18.01
-18.70
-18.25
-16.48
-13.48
-9.60
-5.33
-1.19
2.48
5.55
8.05
10.04
11.53
12.42
12.57
11.91
10.49
8.58
6.53
4.73
3.44
2.74
2.53
2.64
2.89
3.18
3.46
3.75
4.02
4.19
4.17
3.85
3.17
2.11
0.71
-0.95
-2.74
-4.40
-5.64
-6.12
-5.57
-3.92
-1.32
1.88
5.25
8.31
10.69
12.11
12.39
11.53
9.73
7.43
5.18
3.54
2.82
3.00
3.71
4.51
5.00
5.05
4.74
4.16
3.27
1.93
-0.05
-2.70
-5.78
-8.81
-11.33
-13.03
-13.95
-14.36
-14.55
-14.60
-14.36
-13.46
-11.58
-8.64
-4.91
-0.90
2.78
5.64
7.49
8.36
8.47
8.06
7.27
6.22
5.00
3.74
2.62
1.80
1.38
1.33
1.55
1.84
2.07
2.16
2.07
1.71
0.91
-0.49
-2.60
-5.35
-8.45
-11.43
-13.76
-15.09
-15.37
-14.84
-13.91
-12.94
-12.04
-11.03
-9.53
-7.23
-4.11
-0.57
2.69
4.95
5.80
5.36
4.31
3.59
4.03
5.99
9.20
12.85
15.96
17.72
17.84
16.63
14.74
12.77
10.97
9.11
6.68
3.17
-1.55
-7.09
-12.62
-17.09
-19.61
-19.65
-17.17
-12.56
-6.54
0.06
6.41
11.88
16.08
18.80
20.02
19.73
17.97
14.83
10.56
5.56
0.40
-4.35
-8.20
-10.92
-12.53
-13.25
-13.39
-13.22
-12.94
-12.64
-12.29
-11.82
-11.18
-10.42
-9.68
-9.11
-8.76
-8.50
-8.03
-6.95
-4.98
-2.02
1.73
5.86
9.84
13.23
15.68
17.03
17.24
16.30
14.25
11.16
7.16
2.46
-2.56
-7.43
-11.58
-14.59
-16.23
-16.56
-15.88
-14.60
-13.13
-11.71
-10.39
-9.08
-7.68
-6.16
-4.62
-3.17
-1.87
-0.63
0.80
2.74
5.46
9.02
13.25
17.81
22.26
26.29
29.64
32.06
33.18
32.62
30.12
25.88
20.62
15.42
11.32
8.84
7.83
7.61
7.36
6.59
5.28
3.74
2.28
0.99
-0.34
-2.06
-4.43
-7.52
-11.12
-14.88
-18.30
-20.93
-22.35
-22.26
-20.59
-17.44
-13.15
-8.24
-3.44
0.42
2.53
2.39
-0.06
-4.32
-9.43
-14.25
-17.86
-19.75
-19.90
-18.64
-16.44
-13.68
-10.57
-7.19
-3.64
-0.10
3.14
5.73
7.36
7.90
7.43
6.15
4.38
2.39
0.38
-1.49
-3.10
-4.25
-4.76
-4.52
-3.61
-2.35
-1.18
-0.46
-0.32
-0.57
-0.81
-0.64
0.19
1.62
3.42
5.34
7.22
9.00
10.69
12.23
13.45
14.11
13.98
12.94
10.92
7.89
3.87
-1.10
-6.82
-12.85
-18.50
-22.98
-25.58
-25.90
-23.98
-20.27
-15.43
-10.17
-5.08
-0.58
3.09
5.78
7.39
7.92
7.48
6.31
4.87
3.65
3.01
3.10
3.72
4.44
4.87
4.75
4.09
3.06
1.85
0.49
-1.15
-3.31
-6.11
-9.53
-13.33
-17.20
-20.79
-23.70
-25.56
-25.92
-24.48
-21.17
-16.34
-10.82
-5.67
-1.85
0.12
0.29
-0.77
-2.27
-3.54
-4.20
-4.20
-3.66
-2.82
-1.84
-0.94
-0.32
-0.16
-0.60
-1.58
-2.89
-4.25
-5.42
-6.29
-6.88
-7.37
-7.99
-9.02
-10.60
-12.65
-14.69
-16.00
-15.80
-13.58
-9.37
-3.81
2.15
7.49
11.55
14.15
15.50
15.98
16.00
15.77
15.41
14.97
14.50
14.08
13.80
13.72
13.69
13.49
12.80
11.45
9.47
7.18
4.96
3.02
1.22
-0.86
-3.68
-7.43
-11.77
-15.91
-18.87
-19.89
-18.67
-15.41
-10.72
-5.31
0.13
5.04
9.05
11.94
13.62
14.12
13.58
12.23
10.37
8.37
6.62
5.45
5.01
5.19
5.63
5.87
5.51
4.37
2.53
0.24
-2.26
-4.84
-7.48
-10.24
-13.07
-15.79
-18.00
-19.19
-18.92
-16.95
-13.42
-8.81
-3.79
0.89
4.69
7.37
8.98
9.75
9.98
9.84
9.44
8.83
8.09
7.37
6.82
6.57
6.58
6.70
6.68
6.30
5.48
4.29
2.92
1.47
-0.09
-1.90
-4.11
-6.65
-9.15
-11.01
-11.60
-10.52
-7.77
-3.74
0.96
5.70
10.04
13.71
16.57
18.56
19.58
19.58
18.60
16.85
14.62
12.24
9.95
7.83
5.84
3.87
1.85
-0.23
-2.23
-4.00
-5.40
-6.43
-7.20
-7.95
-8.98
-10.55
-12.70
-15.23
-17.72
-19.63
-20.46
-19.93
-17.96
-14.73
-10.48
-5.57
-0.37
4.63
8.97
12.24
14.21
14.95
14.72
13.91
12.91
11.96
11.24
10.78
10.59
10.56
10.48
10.10
9.20
7.72
5.79
3.65
1.58
-0.29
-2.01
-3.71
-5.58
-7.67
-9.90
-11.99
-13.56
-14.24
-13.71
-11.88
-8.84
-4.89
-0.48
3.92
7.86
11.02
13.21
14.42
14.73
14.35
13.49
12.42
11.33
10.40
9.76
9.47
9.52
9.71
9.79
9.45
8.50
6.94
4.95
2.83
0.84
-0.97
-2.75
-4.78
-7.29
-10.23
-13.27
-15.79
-17.09
-16.68
-14.43
-10.62
-5.85
-0.75
4.14
8.49
12.12
14.95
16.83
17.65
17.36
16.11
14.21
12.08
10.14
8.64
7.65
7.02
6.54
5.96
5.07
3.75
2.04
0.06
-1.96
-3.75
-5.22
-6.41
-7.55
-8.97
-10.86
-13.17
-15.44
-17.03
-17.27
-15.76
-12.49
-7.83
-2.39
3.21
8.42
12.90
16.40
18.78
19.98
20.06
19.21
17.72
15.91
14.07
12.36
10.85
9.48
8.17
6.79
5.26
3.54
1.71
-0.13
-1.85
-3.40
-4.89
-6.50
-8.44
-10.81
-13.49
-16.16
-18.37
-19.65
-19.64
-18.17
-15.26
-11.16
-6.28
-1.16
3.66
7.69
10.65
12.42
13.12
12.99
12.31
11.37
10.38
9.48
8.71
8.07
7.50
6.97
6.40
5.77
5.03
4.12
3.00
1.57
-0.18
-2.30
-4.76
-7.48
-10.35
-13.16
-15.58
-17.23
-17.77
-17.06
-15.17
-12.35
-8.89
-5.05
-1.03
3.00
6.75
9.84
11.89
12.65
12.17
10.81
9.05
7.36
6.05
5.21
4.75
4.45
4.13
3.59
2.75
1.62
0.32
-1.02
-2.26
-3.36
-4.37
-5.41
-6.61
-7.99
-9.46
-10.78
-11.64
-11.78
-11.01
-9.25
-6.54
-3.03
1.07
5.49
9.89
13.86
16.99
18.92
19.52
18.94
17.58
15.96
14.56
13.62
13.10
12.75
12.27
11.47
10.31
8.90
7.42
6.00
4.72
3.57
2.52
1.52
0.50
-0.61
-1.88
-3.39
-5.16
-7.17
-9.25
-11.12
-12.42
-12.78
-11.94
-9.84
-6.69
-2.87
1.11
4.76
7.72
9.76
10.82
10.97
10.39
9.27
7.90
6.53
5.35
4.44
3.74
3.10
2.32
1.26
-0.10
-1.64
-3.14
-4.40
-5.33
-5.97
-6.54
-7.33
-8.58
-10.42
-12.76
-15.36
-17.83
-19.78
-20.81
-20.68
-19.32
-16.84
-13.51
-9.70
-5.77
-2.07
1.20
3.88
5.85
7.03
7.45
7.20
6.53
5.76
5.10
4.66
4.37
4.04
3.50
2.73
1.81
0.89
0.07
-0.69
-1.55
-2.68
-4.13
-5.84
-7.60
-9.26
-10.77
-12.21
-13.63
-14.97
-15.99
-16.29
-15.50
-13.39
-9.97
-5.45
-0.20
5.34
10.68
15.27
18.58
20.22
20.13
18.55
16.07
13.30
10.66
8.35
6.32
4.51
2.96
1.88
1.47
1.76
2.46
3.06
2.97
1.83
-0.41
-3.52
-7.18
-11.11
-15.18
-19.29
-23.20
-26.43
-28.29
-28.13
-25.57
-20.71
-14.11
-6.61
0.89
7.60
12.96
16.57
18.29
18.23
16.74
14.41
11.87
9.68
8.15
7.32
7.04
7.05
7.05
6.79
6.14
5.08
3.76
2.46
1.46
0.90
0.74
0.76
0.65
0.24
-0.50
-1.46
-2.43
-3.22
-3.68
-3.72
-3.21
-2.04
-0.11
2.64
6.16
10.33
14.98
19.82
24.39
27.97
29.61
28.38
23.81
16.31
7.27
-1.23
-7.18
-9.36
-7.80
-3.73
1.04
4.79
6.39
5.54
2.54
-1.93
-7.07
-12.12
-16.44
-19.67
-21.73
-22.84
-23.35
-23.59
-23.61
-23.23
-22.08
-19.86
-16.48
-12.17
-7.40
-2.81
1.00
3.65
4.99
5.08
4.14
2.50
0.53
-1.40
-2.95
-3.94
-4.42
-4.63
-4.89
-5.43
-6.23
-7.09
-7.64
-7.64
-7.02
-6.01
-4.98
-4.28
-4.16
-4.65
-5.62
-6.84
-8.01
-8.85
-9.14
-8.76
-7.69
-5.96
-3.65
-0.86
2.33
5.78
9.21
12.24
14.41
15.34
14.89
13.23
10.90
8.57
6.81
5.90
5.73
5.94
6.10
5.91
5.36
4.62
3.91
3.36
2.89
2.23
1.14
-0.55
-2.79
-5.39
-7.99
-10.28
-11.95
-12.72
-12.37
-10.79
-8.05
-4.44
-0.53
3.05
5.72
7.19
7.49
6.89
5.78
4.49
3.20
2.01
0.92
-0.05
-0.85
-1.42
-1.77
-2.02
-2.32
-2.87
-3.76
-4.93
-6.21
-7.37
-8.25
-8.89
-9.45
-10.23
-11.44
-13.03
-14.72
-16.06
-16.52
-15.76
-13.69
-10.47
-6.46
-2.12
2.13
5.92
8.98
11.12
12.20
12.20
11.24
9.61
7.74
6.04
4.79
4.01
3.50
2.99
2.27
1.30
0.19
-0.91
-1.91
-2.83
-3.76
-4.81
-6.04
-7.45
-9.02
-10.70
-12.37
-13.81
-14.73
-14.81
-13.74
-11.42
-7.94
-3.64
0.98
5.28
8.74
11.04
12.11
12.15
11.54
10.62
9.65
8.75
7.95
7.21
6.50
5.78
5.00
4.15
3.24
2.34
1.56
0.93
0.45
-0.03
-0.71
-1.80
-3.43
-5.63
-8.28
-11.01
-13.32
-14.62
-14.41
-12.46
-8.86
-4.08
1.18
6.16
10.24
13.08
14.65
15.19
15.16
15.05
15.20
15.77
16.60
17.41
17.81
17.54
16.46
14.62
12.22
9.57
7.08
5.12
3.92
3.41
3.05
1.95
-0.81
-5.72
-12.41
-19.67
-25.74
-29.04
-28.78
-25.23
-19.48
-12.94
-6.76
-1.56
2.46
5.20
6.51
6.15
4.15
1.03
-2.22
-4.50
-5.04
-3.89
-1.85
-0.17
0.01
-1.86
-5.57
-10.31
-15.07
-18.99
-21.62
-22.97
-23.38
-23.33
-23.21
-23.18
-23.13
-22.77
-21.76
-19.93
-17.26
-13.97
-10.32
-6.54
-2.79
0.82
4.24
7.35
10.06
12.23
13.81
14.78
15.20
15.08
14.47
13.40
11.88
9.96
7.71
5.25
2.80
0.60
-1.18
-2.49
-3.49
-4.45
-5.69
-7.40
-9.57
-11.93
-14.04
-15.37
-15.47
-14.01
-10.97
-6.59
-1.38
3.93
8.63
12.13
14.10
14.57
13.82
12.32
10.52
8.81
7.37
6.25
5.39
4.68
4.09
3.63
3.40
3.42
3.65
3.94
4.04
3.66
2.60
0.73
-1.92
-5.18
-8.81
-12.47
-15.80
-18.40
-19.95
-20.18
-18.92
-16.16
-12.06
-6.98
-1.44
3.94
8.52
11.85
13.67
14.05
13.25
11.65
9.63
7.55
5.64
4.03
2.77
1.73
0.75
-0.33
-1.54
-2.81
-3.92
-4.70
-5.10
-5.32
-5.72
-6.64
-8.27
-10.37
-12.36
-13.55
-13.34
-11.51
-8.19
-3.88
0.85
5.44
9.47
12.55
14.42
14.95
14.26
12.74
10.94
9.43
8.52
8.23
8.29
8.36
8.14
7.48
6.34
4.72
2.65
0.21
-2.47
-5.18
-7.73
-10.00
-11.98
-13.70
-15.14
-16.21
-16.67
-16.24
-14.65
-11.80
-7.78
-2.96
2.17
7.03
11.13
14.19
16.19
17.28
17.68
17.57
17.01
16.08
14.84
13.44
12.04
10.77
9.66
8.60
7.45
6.10
4.53
2.77
0.87
-1.16
-3.39
-5.92
-8.82
-12.01
-15.20
-17.94
-19.67
-19.90
-18.37
-15.15
-10.66
-5.49
-0.30
4.45
8.54
12.00
14.99
17.65
19.99
21.88
23.22
23.95
24.11
23.74
22.84
21.24
18.75
15.24
10.85
6.01
1.37
-2.47
-5.15
-6.70
-7.46
-7.97
-8.68
-9.81
-11.23
-12.57
-13.35
-13.21
-12.06
-10.04
-7.51
-4.77
-1.98
0.90
3.98
7.27
10.56
13.47
15.64
16.91
17.46
17.69
18.03
18.66
19.53
20.34
20.78
20.69
20.06
18.94
17.36
15.28
12.63
9.44
5.92
2.37
-0.88
-3.66
-5.95
-7.88
-9.64
-11.28
-12.79
-14.03
-14.85
-15.05
-14.44
-12.82
-10.09
-6.29
-1.68
3.27
7.99
11.97
14.89
16.60
17.18
16.78
15.62
13.98
12.19
10.58
9.39
8.66
8.22
7.84
7.33
6.70
6.15
5.89
6.03
6.40
6.64
6.27
4.94
2.55
-0.69
-4.32
-7.74
-10.31
-11.56
-11.29
-9.62
-6.93
-3.69
-0.35
2.81
5.64
8.08
10.11
11.72
12.91
13.73
14.21
14.31
13.90
12.80
10.88
8.17
4.86
1.30
-2.10
-4.97
-7.06
-8.32
-8.83
-8.89
-8.85
-9.05
-9.65
-10.63
-11.69
-12.41
-12.40
-11.31
-9.00
-5.48
-1.02
3.93
8.72
12.64
15.13
15.88
14.95
12.77
9.95
7.12
4.81
3.29
2.59
2.54
2.80
3.09
3.15
2.92
2.47
1.92
1.40
0.90
0.34
-0.47
-1.66
-3.31
-5.40
-7.84
-10.50
-13.15
-15.44
-16.96
-17.25
-15.99
-13.20
-9.34
-5.18
-1.62
0.65
1.40
0.89
-0.27
-1.47
-2.21
-2.30
-1.76
-0.63
1.05
3.23
5.77
8.33
10.45
11.75
12.00
11.39
10.31
9.22
8.38
7.74
6.97
5.69
3.67
1.05
-1.64
-3.66
-4.34
-3.34
-0.79
2.69
6.30
9.29
11.21
11.96
11.69
10.62
8.95
6.83
4.40
1.88
-0.46
-2.37
-3.68
-4.40
-4.65
-4.60
-4.39
-4.17
-4.07
-4.21
-4.71
-5.60
-6.80
-8.19
-9.61
-10.93
-12.14
-13.17
-13.94
-14.27
-13.95
-12.82
-10.85
-8.18
-5.08
-1.85
1.23
3.93
6.08
7.59
8.38
8.50
8.09
7.39
6.65
6.07
5.76
5.71
5.81
5.89
5.76
5.28
4.34
2.98
1.31
-0.52
-2.38
-4.30
-6.42
-8.91
-11.80
-14.89
-17.72
-19.79
-20.66
-20.14
-18.35
-15.66
-12.55
-9.47
-6.76
-4.60
-2.95
-1.67
-0.55
0.64
2.01
3.56
5.16
6.62
7.79
8.64
9.25
9.77
10.33
10.96
11.57
11.90
11.60
10.32
7.86
4.25
-0.11
-4.62
-8.59
-11.52
-13.23
-13.89
-13.84
-13.41
-12.71
-11.67
-10.10
-7.90
-5.20
-2.30
0.41
2.64
4.28
5.34
5.90
5.98
5.52
4.49
2.96
1.22
-0.38
-1.54
-2.18
-2.42
-2.51
-2.65
-2.88
-3.09
-3.08
-2.69
-1.88
-0.72
0.62
1.89
2.79
3.03
2.42
1.02
-0.83
-2.57
-3.62
-3.56
-2.31
-0.05
2.87
6.08
9.28
12.23
14.68
16.35
17.03
16.61
15.18
13.04
10.63
8.31
6.36
4.90
3.89
3.25
2.77
2.26
1.55
0.58
-0.57
-1.73
-2.68
-3.30
-3.66
-3.99
-4.66
-5.92
-7.91
-10.42
-13.09
-15.39
-16.81
-17.00
-15.85
-13.52
-10.36
-6.82
-3.29
-0.05
2.77
5.11
6.97
8.31
9.14
9.52
9.58
9.47
9.28
9.00
8.52
7.72
6.59
5.17
3.62
2.03
0.43
-1.24
-3.07
-5.08
-7.21
-9.34
-11.32
-13.06
-14.43
-15.26
-15.35
-14.54
-12.77
-10.20
-7.12
-3.85
-0.66
2.32
4.99
7.23
8.84
9.61
9.43
8.42
6.88
5.18
3.69
2.59
1.89
1.43
1.03
0.47
-0.40
-1.67
-3.34
-5.34
-7.55
-9.84
-12.13
-14.34
-16.40
-18.11
-19.16
-19.16
-17.76
-14.85
-10.58
-5.38
0.19
5.56
10.30
14.09
16.76
18.25
18.55
17.76
16.11
13.93
11.65
9.70
8.37
7.79
7.90
8.45
9.04
9.26
8.74
7.28
4.93
2.00
-1.06
-3.84
-6.13
-8.01
-9.70
-11.43
-13.24
-14.98
-16.40
-17.32
-17.70
-17.68
-17.43
-17.06
-16.55
-15.86
-15.12
-14.61
-14.81
-16.11
-18.66
-22.13
-25.77
-28.61
-29.78
-28.77
-25.64
-20.99
-15.72
-10.78
-6.85
-4.18
-2.60
-1.63
-0.72
0.56
2.34
4.52
6.88
9.20
11.43
13.60
15.85
18.22
20.68
23.10
25.29
27.12
28.54
29.61
30.33
30.62
30.25
28.95
26.60
23.22
19.09
14.56
9.90
5.29
0.74
-3.71
-7.99
-11.85
-15.02
-17.34
-18.88
-19.89
-20.74
-21.71
-22.92
-24.30
-25.72
-27.03
-28.15
-29.09
-29.87
-30.48
-30.75
-30.43
-29.20
-26.83
-23.31
-18.93
-14.28
-10.02
-6.73
-4.74
-4.07
-4.47
-5.60
-7.11
-8.75
-10.30
-11.60
-12.43
-12.57
-11.85
-10.18
-7.65
-4.50
-1.06
2.32
5.35
7.86
9.75
11.02
11.82
12.44
13.31
14.95
17.70
21.55
26.13
30.81
35.04
38.53
41.35
43.78
45.97
47.74
48.55
47.84
45.29
41.13
36.11
31.21
27.23
24.53
22.97
22.15
21.70
21.44
21.35
21.41
21.38
20.89
19.48
16.84
12.96
8.07
2.52
-3.33
-9.09
-14.47
-19.12
-22.72
-25.00
-25.85
-25.38
-23.89
-21.87
-19.85
-18.32
-17.55
-17.58
-18.21
-19.14
-20.13
-21.00
-21.76
-22.42
-22.95
-23.23
-23.11
-22.46
-21.26
-19.67
-17.85
-16.05
-14.49
-13.34
-12.69
-12.57
-12.94
-13.72
-14.89
-16.35
-17.90
-19.18
-19.69
-18.94
-16.63
-12.91
-8.31
-3.60
0.50
3.50
5.28
5.93
5.67
4.70
3.31
1.86
0.77
0.46
1.10
2.63
4.74
7.08
9.33
11.33
13.05
14.49
15.58
16.22
16.26
15.62
14.25
12.20
9.51
6.22
2.42
-1.71
-5.81
-9.31
-11.59
-12.16
-10.84
-7.92
-4.02
0.14
3.99
7.27
10.00
12.30
14.17
15.49
15.96
15.33
13.53
10.71
7.20
3.45
-0.12
-3.13
-5.36
-6.69
-7.17
-6.96
-6.33
-5.62
-5.22
-5.50
-6.71
-8.92
-11.95
-15.39
-18.68
-21.25
-22.63
-22.59
-21.12
-18.41
-14.78
-10.59
-6.16
-1.74
2.48
6.38
9.83
12.66
14.72
15.88
16.13
15.66
14.75
13.74
12.90
12.34
12.07
11.98
11.96
11.91
11.78
11.52
11.10
10.44
9.50
8.17
6.39
4.05
1.10
-2.44
-6.36
-10.27
-13.60
-15.72
-16.16
-14.75
-11.67
-7.39
-2.52
2.41
7.03
11.12
14.58
17.33
19.24
20.18
20.11
19.11
17.44
15.44
13.51
12.00
11.07
10.71
10.70
10.75
10.53
9.87
8.74
7.22
5.50
3.67
1.71
-0.49
-2.98
-5.74
-8.58
-11.19
-13.27
-14.54
-14.91
-14.36
-12.92
-10.67
-7.84
-4.68
-1.57
1.14
3.22
4.60
5.33
5.53
5.33
4.82
4.09
3.32
2.65
2.20
1.99
1.94
1.90
1.72
1.40
1.00
0.66
0.46
0.46
0.58
0.64
0.41
-0.36
-1.83
-4.01
-6.78
-9.87
-12.93
-15.57
-17.37
-17.96
-17.12
-14.83
-11.36
-7.26
-3.18
0.30
2.89
4.60
5.67
6.39
6.91
7.25
7.30
7.05
6.58
6.09
5.76
5.63
5.56
5.30
4.64
3.56
2.26
1.05
0.15
-0.41
-0.84
-1.45
-2.49
-4.03
-5.95
-7.98
-9.91
-11.52
-12.64
-13.13
-12.81
-11.55
-9.35
-6.35
-2.83
0.80
4.12
6.78
8.51
9.26
9.13
8.35
7.23
6.05
5.04
4.35
4.03
4.04
4.28
4.57
4.72
4.58
4.12
3.40
2.57
1.79
1.06
0.26
-0.82
-2.30
-4.14
-6.17
-8.14
-9.82
-11.04
-11.70
-11.74
-11.09
-9.74
-7.77
-5.35
-2.74
-0.20
2.13
4.19
6.00
7.59
8.90
9.86
10.34
10.36
10.02
9.52
9.03
8.67
8.37
7.89
6.95
5.34
3.10
0.46
-2.19
-4.49
-6.26
-7.48
-8.28
-8.80
-9.16
-9.45
-9.71
-9.98
-10.18
-10.17
-9.74
-8.73
-7.09
-4.94
-2.48
0.12
2.69
5.08
7.11
8.51
9.05
8.67
7.52
6.02
4.72
4.03
4.12
4.91
6.09
7.28
8.16
8.52
8.31
7.65
6.75
5.78
4.82
3.76
2.37
0.42
-2.22
-5.43
-8.84
-11.90
-14.06
-14.84
-14.09
-11.84
-8.38
-4.24
0.04
3.90
6.90
8.86
9.77
9.82
9.32
8.56
7.77
7.12
6.65
6.33
6.10
5.90
5.62
5.15
4.41
3.36
2.10
0.77
-0.48
-1.54
-2.46
-3.43
-4.68
-6.42
-8.65
-11.17
-13.58
-15.41
-16.15
-15.55
-13.56
-10.46
-6.77
-3.05
0.20
2.68
4.31
5.24
5.61
5.56
5.18
4.51
3.63
2.67
1.76
1.04
0.55
0.23
-0.05
-0.42
-1.03
-1.87
-2.87
-3.86
-4.75
-5.54
-6.37
-7.42
-8.89
-10.78
-12.89
-14.85
-16.20
-16.56
-15.71
-13.67
-10.67
-7.14
-3.51
-0.17
2.59
4.65
5.99
6.67
6.79
6.50
5.97
5.42
5.02
4.83
4.79
4.79
4.66
4.37
3.92
3.41
2.92
2.47
2.05
1.62
1.15
0.58
-0.14
-1.13
-2.49
-4.31
-6.46
-8.64
-10.39
-11.23
-10.86
-9.23
-6.59
-3.38
-0.12
2.82
5.19
6.87
7.90
8.36
8.34
7.98
7.39
6.67
5.91
5.21
4.64
4.22
3.88
3.46
2.80
1.75
0.30
-1.40
-3.08
-4.46
-5.36
-5.83
-6.13
-6.57
-7.40
-8.67
-10.16
-11.51
-12.31
-12.27
-11.29
-9.46
-7.03
-4.30
-1.56
0.95
2.99
4.40
5.08
5.08
4.56
3.82
3.23
3.06
3.39
4.07
4.74
5.05
4.75
3.84
2.56
1.28
0.30
-0.27
-0.54
-0.74
-1.12
-1.86
-2.94
-4.14
-5.13
-5.52
-5.02
-3.49
-1.07
1.86
4.76
7.11
8.53
8.86
8.18
6.85
5.33
4.11
3.58
3.93
5.07
6.73
8.47
9.89
10.66
10.64
9.81
8.27
6.17
3.68
0.95
-1.89
-4.79
-7.79
-11.00
-14.44
-18.02
-21.36
-23.91
-25.02
-24.19
-21.28
-16.61
-10.90
-5.08
-0.03
3.68
5.85
6.62
6.32
5.36
4.09
2.88
2.08
2.02
2.91
4.75
7.25
9.88
12.01
13.14
13.00
11.61
9.20
6.16
2.92
-0.19
-2.95
-5.34
-7.46
-9.50
-11.55
-13.57
-15.27
-16.20
-15.91
-14.12
-10.84
-6.37
-1.22
4.04
8.90
12.94
15.90
17.63
18.10
17.45
16.02
14.20
12.44
11.04
10.11
9.56
9.14
8.54
7.51
5.93
3.85
1.43
-1.04
-3.27
-5.01
-6.14
-6.73
-6.93
-6.97
-7.00
-7.05
-6.98
-6.65
-5.95
-4.91
-3.70
-2.49
-1.36
-0.20
1.19
3.01
5.24
7.64
9.76
11.21
11.76
11.42
10.44
9.17
7.95
6.99
6.31
5.79
5.26
4.56
3.63
2.47
1.12
-0.38
-2.08
-4.03
-6.27
-8.71
-11.10
-13.05
-14.18
-14.20
-13.09
-11.03
-8.39
-5.53
-2.69
0.06
2.76
5.36
7.70
9.43
10.20
9.87
8.62
6.97
5.61
5.07
5.59
7.01
8.89
10.66
11.83
12.07
11.27
9.46
6.78
3.49
-0.14
