1594403655.00
64.000000
-0.00
-0.00
-0.00
-0.00
-0.00
-0.00
-0.00
-0.00
-0.00
-0.00
0.00
0.01
0.01
-0.00
-0.03
-0.05
-0.05
0.00
0.13
0.36
0.66
1.01
1.37
1.72
2.06
2.40
2.79
3.24
3.80
4.42
5.06
5.66
6.20
6.68
7.15
7.68
8.31
9.14
10.09
11.04
11.88
12.56
13.14
13.76
14.65
15.96
17.91
20.32
22.90
25.38
27.58
29.57
31.68
34.32
37.81
42.54
48.15
54.10
59.83
64.97
69.59
74.15
79.35
85.71
93.76
102.99
112.61
121.74
129.80
136.80
143.35
150.74
157.67
166.41
177.57
191.29
206.39
219.97
227.66
224.78
207.93
176.19
131.97
79.12
22.04
-36.02
-93.49
-150.16
-206.21
-261.44
-315.02
-365.46
-411.76
-453.09
-488.79
-517.96
-539.33
-551.31
-552.29
-541.29
-517.99
-483.39
-439.35
-388.28
-332.81
-275.40
-218.13
-162.60
-110.03
-61.15
-16.56
23.39
58.42
88.30
112.83
131.91
145.62
154.39
159.01
160.50
159.85
157.88
154.98
151.11
146.07
139.56
131.36
121.29
109.34
96.06
82.89
72.19
66.68
68.31
77.21
91.21
106.48
118.97
125.93
126.72
122.52
115.30
106.73
97.63
88.16
78.54
69.12
60.60
53.66
48.55
44.85
41.68
38.10
33.53
28.08
22.39
17.41
13.90
12.10
11.60
11.63
11.34
10.25
8.37
6.09
3.97
2.46
1.65
1.35
1.19
0.82
0.08
-1.04
-2.45
-3.96
-5.33
-6.19
-6.14
-4.93
-2.68
0.03
2.30
3.26
2.52
0.40
-2.25
-4.46
-5.66
-5.84
-5.51
-5.19
-5.17
-5.32
-5.30
-4.85
-4.02
-3.10
-2.45
-2.23
-2.32
-2.37
-2.02
-1.18
-0.01
1.11
1.82
1.98
1.70
1.27
0.95
0.87
0.99
1.20
1.38
1.42
1.29
0.92
0.31
-0.46
-1.24
-1.79
-1.97
-1.81
-1.55
-1.49
-1.80
-2.36
-2.84
-2.84
-2.14
-0.80
0.86
2.46
3.79
4.79
5.56
6.16
6.49
6.36
5.50
3.84
1.52
-1.05
-3.50
-5.47
-6.82
-7.60
-8.03
-8.30
-8.58
-8.92
-9.26
-9.57
-9.76
-9.77
-9.58
-9.21
-8.70
-8.17
-7.76
-7.53
-7.45
-7.32
-6.87
-5.88
-4.27
-2.21
-0.08
1.69
2.74
2.93
2.40
1.52
0.73
0.45
0.85
1.86
3.15
4.31
5.01
5.10
4.61
3.66
2.35
0.74
-1.09
-2.94
-4.52
-5.57
-5.93
-5.74
-5.36
-5.12
-5.18
-5.40
-5.43
-4.98
-4.04
-2.80
-1.64
-0.90
-0.68
-0.87
-1.27
-1.72
-2.11
-2.74
-3.59
-4.50
-5.24
-5.60
-5.50
-5.02
-4.34
-3.67
-3.10
-2.65
-2.30
-2.08
-2.01
-2.12
-2.29
-2.43
-2.41
-2.20
-1.86
-1.52
-1.29
-1.18
-1.09
-0.87
-0.39
0.34
1.18
1.96
2.56
2.94
3.26
3.72
4.49
5.56
6.77
7.82
8.44
8.48
7.98
7.14
6.21
5.38
4.73
4.22
3.74
3.25
2.77
2.37
2.15
2.15
2.27
2.34
2.14
1.58
0.63
-0.60
-1.93
-3.22
-4.35
-5.29
-6.05
-6.73
-7.44
-8.35
-9.57
-11.11
-12.79
-14.33
-15.33
-15.45
-14.55
-12.74
-10.40
-7.99
-5.89
-4.27
-3.00
-1.83
-0.47
1.15
2.90
4.48
5.61
6.17
6.17
5.81
5.27
4.64
3.93
3.10
2.10
0.99
-0.09
-0.98
-1.50
-1.59
-1.26
-0.66
0.05
0.73
1.29
1.72
2.01
2.17
2.18
2.00
1.61
1.06
0.49
0.10
0.06
0.49
1.35
2.49
3.69
4.72
5.44
5.77
5.74
5.46
5.09
4.77
4.64
4.78
5.20
5.87
6.66
7.43
8.00
8.22
8.02
7.43
6.61
5.75
5.00
4.36
3.71
2.88
1.79
0.52
-0.73
-1.77
-2.55
-3.18
-3.84
-4.70
-5.75
-6.88
-7.91
-8.73
-9.33
-9.82
-10.26
-10.68
-10.97
-10.99
-10.67
-10.05
-9.30
-8.60
-8.06
-7.60
-7.03
-6.15
-4.81
-3.00
-0.83
1.54
3.99
6.44
8.91
11.36
13.69
15.68
16.94
17.08
15.85
13.34
9.99
6.50
3.51
1.37
0.04
-0.78
-1.38
-1.85
-2.00
-1.61
-0.65
0.64
1.84
2.59
2.79
2.65
2.53
2.75
3.37
4.22
5.02
5.55
5.73
5.67
5.50
5.32
5.11
4.82
4.38
3.85
3.29
2.77
2.27
1.70
1.04
0.33
-0.30
-0.72
-0.88
-0.85
-0.78
-0.80
-0.91
-1.07
-1.20
-1.31
-1.52
-1.90
-2.42
-2.94
-3.21
-3.05
-2.44
-1.55
-0.60
0.24
0.91
1.47
2.00
2.51
2.93
3.16
3.13
2.88
2.54
2.29
2.27
2.52
2.93
3.33
3.56
3.54
3.33
3.01
2.70
2.39
1.99
1.37
0.52
-0.46
-1.34
-1.93
-2.14
-2.10
-2.02
-2.08
-2.35
-2.71
-3.01
-3.14
-3.12
-3.06
-3.08
-3.22
-3.42
-3.54
-3.53
-3.40
-3.27
-3.24
-3.41
-3.78
-4.29
-4.83
-5.21
-5.24
-4.71
-3.53
-1.81
0.17
1.99
3.31
3.95
3.97
3.57
2.94
2.19
1.32
0.33
-0.71
-1.58
-2.11
-2.17
-1.84
-1.36
-0.95
-0.68
-0.44
-0.08
0.36
0.64
0.40
-0.48
-1.72
-2.64
-2.53
-1.08
1.41
4.17
6.36
7.52
7.80
7.76
7.96
8.70
9.84
10.99
11.72
11.79
11.24
10.22
9.00
7.80
6.78
6.07
5.67
5.59
5.77
6.13
6.65
7.34
8.23
9.38
10.75
12.26
13.73
14.97
15.85
16.34
16.49
16.34
15.87
14.98
13.57
11.63
9.30
6.80
4.36
2.06
-0.23
-2.73
-5.63
-8.91
-12.29
-15.32
-17.55
-18.72
-18.86
-18.25
-17.32
-16.51
-16.16
-16.38
-17.11
-18.06
-18.87
-19.15
-18.73
-17.63
-16.14
-14.69
-13.68
-13.44
-14.18
-16.00
-18.79
-22.15
-25.40
-27.60
-27.92
-25.93
-21.86
-16.52
-10.99
-6.25
-2.80
-0.61
0.72
1.68
2.62
3.64
4.60
5.28
5.51
5.29
4.82
4.48
4.70
5.80
7.97
11.18
15.25
19.89
24.65
29.02
32.44
34.41
34.69
33.40
30.96
27.98
24.96
22.16
19.54
16.89
14.03
10.99
7.96
5.30
3.34
2.26
1.99
2.29
2.75
2.97
2.63
1.58
-0.16
-2.41
-4.87
-7.27
-9.38
-11.06
-12.21
-12.77
-12.67
-11.98
-10.83
-9.50
-8.30
-7.44
-6.99
-6.86
-6.86
-6.82
-6.66
-6.41
-6.18
-6.03
-5.94
-5.80
-5.45
-4.82
-3.96
-2.99
-2.10
-1.44
-1.07
-0.96
-1.03
-1.21
-1.42
-1.64
-1.86
-2.09
-2.29
-2.44
-2.50
-2.46
-2.39
-2.38
-2.56
-2.96
-3.57
-4.25
-4.82
-5.15
-5.16
-4.86
-4.35
-3.69
-2.97
-2.23
-1.49
-0.75
0.02
0.85
1.75
2.69
3.60
4.37
4.89
5.10
5.02
4.73
4.35
3.98
3.68
3.47
3.31
3.20
3.11
3.00
2.79
2.43
1.84
1.02
0.01
-1.18
-2.55
-4.17
-6.10
-8.30
-10.47
-12.20
-13.03
-12.71
-11.34
-9.29
-7.06
-5.08
-3.51
-2.31
-1.30
-0.34
0.62
1.47
2.09
2.38
2.32
1.97
1.50
1.06
0.82
0.89
1.33
2.10
3.14
4.29
5.35
6.06
6.04
4.95
2.54
-1.10
-5.51
-9.90
-13.35
-15.18
-15.17
-13.59
-11.09
-8.39
-5.99
-4.09
-2.60
-1.34
-0.15
1.03
2.17
3.23
4.17
4.94
5.54
5.97
6.27
6.49
6.71
6.96
7.27
7.66
8.19
9.00
10.18
11.75
13.62
15.63
17.60
19.41
21.00
22.33
23.26
23.66
23.41
22.48
21.03
19.29
17.54
15.95
14.52
13.12
11.50
9.41
6.76
3.64
0.40
-2.50
-4.62
-5.74
-5.87
-5.19
-3.89
-2.08
0.22
2.96
5.98
9.00
11.74
14.07
16.09
18.09
20.40
23.20
26.42
29.73
32.67
34.75
35.61
35.12
33.38
30.59
26.93
22.55
17.47
11.78
5.65
-0.55
-6.39
-11.56
-15.96
-19.75
-23.14
-26.28
-29.13
-31.54
-33.39
-34.71
-35.73
-36.72
-37.86
-39.08
-40.09
-40.47
-39.88
-38.20
-35.57
-32.42
-29.19
-26.28
-23.88
-22.00
-20.54
-19.35
-18.32
-17.31
-16.21
-14.90
-13.27
-11.34
-9.23
-7.19
-5.43
-4.09
-3.14
-2.44
-1.82
-1.11
-0.25
0.81
2.01
3.31
4.63
5.82
6.75
7.27
7.32
6.91
6.15
5.22
4.31
3.60
3.16
3.03
3.17
3.52
3.96
4.41
4.75
4.90
4.83
4.59
4.34
4.25
4.45
4.99
5.77
6.58
7.15
7.23
6.67
5.48
3.79
1.90
0.11
-1.29
-2.20
-2.69
-3.02
-3.48
-4.32
-5.64
-7.39
-9.41
-11.60
-13.99
-16.71
-19.94
-23.71
-27.80
-31.68
-34.74
-36.43
-36.55
-35.23
-32.93
-30.11
-27.08
-23.87
-20.35
-16.41
-12.14
-7.86
-3.90
-0.46
2.52
5.27
8.03
10.92
13.80
16.39
18.38
19.57
19.95
19.56
18.48
16.77
14.49
11.75
8.82
6.04
3.78
2.31
1.72
1.92
2.72
3.99
5.72
8.00
10.89
14.29
17.85
21.09
23.53
24.92
25.27
24.79
23.78
22.44
20.88
19.14
17.34
15.68
14.40
13.62
13.21
12.82
11.98
10.33
7.74
4.39
0.65
-3.08
-6.46
-9.32
-11.55
-13.15
-14.13
-14.57
-14.57
-14.28
-13.86
-13.43
-13.09
-12.85
-12.70
-12.58
-12.47
-12.31
-12.09
-11.90
-11.88
-12.19
-12.93
-14.11
-15.56
-17.05
-18.35
-19.34
-20.03
-20.54
-20.99
-21.44
-21.85
-22.15
-22.24
-22.10
-21.78
-21.37
-20.93
-20.47
-19.98
-19.40
-18.65
-17.68
-16.44
-14.91
-13.11
-11.07
-8.84
-6.42
-3.78
-0.93
2.05
4.98
7.64
9.84
11.50
12.76
13.84
14.95
16.18
17.39
18.35
18.81
18.66
18.00
17.03
15.99
15.05
14.23
13.48
12.69
11.82
10.94
10.20
9.79
9.90
10.60
11.89
13.64
15.64
17.67
19.51
20.99
22.01
22.49
22.47
22.05
21.37
20.66
20.12
19.88
19.97
20.32
20.81
21.37
22.02
22.87
24.05
25.48
26.87
27.65
27.13
24.76
20.29
13.84
5.93
-2.70
-11.21
-18.78
-24.70
-28.46
-29.86
-29.09
-26.69
-23.41
-20.02
-17.09
-14.87
-13.34
-12.30
-11.49
-10.68
-9.71
-8.53
-7.20
-5.88
-4.75
-3.97
-3.60
-3.54
-3.63
-3.74
-3.79
-3.75
-3.59
-3.25
-2.65
-1.69
-0.40
1.09
2.55
3.76
4.60
5.12
5.49
5.93
6.60
7.46
8.36
9.06
9.36
9.25
8.87
8.47
8.26
8.34
8.70
9.27
9.97
10.66
11.12
10.97
9.86
7.56
4.16
0.12
-3.85
-7.07
-9.12
-9.94
-9.76
-8.95
-7.86
-6.75
-5.77
-5.00
-4.51
-4.30
-4.33
-4.50
-4.68
-4.76
-4.63
-4.22
-3.50
-2.50
-1.37
-0.31
0.42
0.63
0.28
-0.49
-1.46
-2.35
-2.98
-3.32
-3.42
-3.43
-3.46
-3.56
-3.70
-3.81
-3.81
-3.68
-3.42
-3.04
-2.53
-1.87
-1.07
-0.20
0.62
1.22
1.50
1.45
1.20
0.94
0.83
0.94
1.21
1.52
1.78
1.95
2.08
2.24
2.47
2.72
2.91
2.89
2.59
2.03
1.30
0.52
-0.20
-0.84
-1.46
-2.13
-2.88
-3.67
-4.36
-4.82
-5.00
-4.91
-4.68
-4.48
-4.41
-4.48
-4.56
-4.45
-3.97
-3.01
-1.65
-0.10
1.38
2.51
3.16
3.33
3.19
2.95
2.82
2.90
3.21
3.69
4.27
4.87
5.41
5.78
5.85
5.52
4.76
3.68
2.53
1.59
1.12
1.19
1.70
2.42
3.17
3.81
4.37
4.90
5.44
5.99
6.53
7.10
7.79
8.74
10.01
11.52
13.00
14.05
14.23
13.18
10.74
7.04
2.52
-2.07
-5.87
-8.18
-8.69
-7.62
-5.62
-3.46
-1.77
-0.81
-0.49
-0.57
-0.81
-1.10
-1.45
-1.92
-2.50
-3.19
-3.91
-4.59
-5.16
-5.55
-5.73
-5.66
-5.39
-4.97
-4.44
-3.81
-3.07
-2.25
-1.46
-0.90
-0.72
-0.96
-1.51
-2.10
-2.50
-2.60
-2.53
-2.51
-2.75
-3.28
-3.91
-4.40
-4.56
-4.40
-4.08
-3.78
-3.59
-3.43
-3.14
-2.62
-1.90
-1.17
-0.63
-0.40
-0.49
-0.83
-1.30
-1.84
-2.43
-3.00
-3.49
-3.85
-4.07
-4.21
-4.33
-4.47
-4.60
-4.68
-4.67
-4.62
-4.61
-4.73
-4.98
-5.26
-5.45
-5.47
-5.34
-5.12
-4.89
-4.62
-4.27
-3.78
-3.19
-2.59
-2.14
-1.94
-1.95
-2.00
-1.92
-1.57
-0.96
-0.24
0.37
0.71
0.80
0.77
0.86
1.25
2.00
2.97
3.93
4.64
4.98
4.97
4.77
4.54
4.40
4.37
4.42
4.44
4.35
4.09
3.62
2.93
2.05
1.02
-0.07
-1.07
-1.82
-2.19
-2.14
-1.73
-1.14
-0.54
-0.08
0.21
0.35
0.46
0.60
0.82
1.12
1.42
1.65
1.75
1.73
1.64
1.56
1.58
1.76
2.02
2.24
2.30
2.11
1.73
1.31
0.99
0.85
0.84
0.85
0.74
0.45
0.03
-0.38
-0.64
-0.70
-0.58
-0.37
-0.19
-0.08
-0.05
-0.00
0.12
0.34
0.61
0.81
0.88
0.81
0.73
0.78
1.06
1.53
2.03
2.35
2.34
1.99
1.44
0.88
0.42
0.12
-0.10
-0.30
-0.48
-0.57
-0.48
-0.18
0.26
0.68
0.96
1.01
0.85
0.49
-0.07
-0.94
-2.23
-3.97
-6.01
-8.02
-9.62
-10.53
-10.66
-10.17
-9.29
-8.22
-7.04
-5.70
-4.14
-2.36
-0.46
1.36
2.93
4.12
4.92
5.39
5.63
5.74
5.77
5.72
5.58
5.33
4.98
4.59
4.27
4.13
4.29
4.81
5.64
6.61
7.46
7.95
7.89
7.25
6.10
4.62
2.98
1.37
-0.04
-1.13
-1.85
-2.25
-2.49
-2.76
-3.20
-3.75
-4.20
-4.30
-3.83
-2.76
-1.24
0.45
2.03
3.23
3.82
3.64
2.65
0.93
-1.24
-3.45
-5.28
-6.43
-6.80
-6.53
-5.85
-4.99
-4.13
-3.40
-2.88
-2.63
-2.66
-2.86
-3.08
-3.15
-2.94
-2.46
-1.88
-1.42
-1.27
-1.50
-2.03
-2.71
-3.38
-3.96
-4.48
-4.97
-5.45
-5.91
-6.29
-6.54
-6.66
-6.67
-6.64
-6.64
-6.70
-6.86
-7.11
-7.43
-7.76
-8.04
-8.17
-8.06
-7.65
-6.88
-5.83
-4.63
-3.44
-2.42
-1.61
-0.98
-0.41
0.18
0.85
1.61
2.48
3.51
4.76
6.24
7.86
9.44
10.79
11.77
12.37
12.67
12.72
12.58
12.24
11.75
11.19
10.68
10.29
9.95
9.51
8.88
8.06
7.25
6.70
6.59
6.89
7.41
7.91
8.21
8.30
8.28
8.33
8.55
8.97
9.53
10.11
10.54
10.65
10.26
9.30
7.79
5.84
3.68
1.57
-0.20
-1.38
-1.82
-1.52
-0.68
0.34
1.09
1.25
0.69
-0.46
-1.88
-3.24
-4.28
-4.88
-5.10
-5.08
-4.99
-4.99
-5.18
-5.60
-6.22
-6.94
-7.61
-8.09
-8.30
-8.26
-8.02
-7.70
-7.40
-7.15
-6.96
-6.84
-6.78
-6.76
-6.73
-6.61
-6.36
-5.97
-5.57
-5.32
-5.36
-5.68
-6.11
-6.41
-6.39
-5.99
-5.36
-4.72
-4.24
-3.96
-3.80
-3.61
-3.28
-2.80
-2.21
-1.52
-0.70
0.28
1.44
2.67
3.78
4.54
4.81
4.62
4.22
3.89
3.93
4.42
5.27
6.20
6.94
7.32
7.31
7.01
6.57
6.05
5.44
4.71
3.90
3.13
2.62
2.48
2.74
3.23
3.71
3.99
3.99
3.80
3.56
3.41
3.42
3.57
3.77
3.90
3.91
3.79
3.61
3.45
3.39
3.47
3.68
3.97
4.29
4.65
5.08
5.65
6.41
7.35
8.38
9.39
10.23
10.77
10.85
10.25
8.78
6.30
2.90
-1.03
-4.87
-7.94
-9.72
-10.07
-9.24
-7.75
-6.19
-4.99
-4.30
-4.01
-3.84
-3.53
-2.99
-2.34
-1.84
-1.78
-2.28
-3.23
-4.34
-5.31
-5.94
-6.30
-6.54
-6.82
-7.16
-7.44
-7.48
-7.23
-6.76
-6.25
-5.82
-5.47
-5.06
-4.46
-3.59
-2.56
-1.51
-0.60
0.15
0.79
1.43
2.17
3.00
3.88
4.73
5.50
6.18
6.76
7.22
7.53
7.65
7.55
7.24
6.77
6.21
5.66
5.18
4.80
4.50
4.23
3.89
3.40
2.69
1.78
0.75
-0.32
-1.31
-2.20
-2.99
-3.72
-4.44
-5.14
-5.80
-6.36
-6.74
-6.87
-6.68
-6.16
-5.37
-4.43
-3.48
-2.68
-2.08
-1.65
-1.30
-0.96
-0.61
-0.32
-0.23
-0.39
-0.78
-1.25
-1.66
-1.89
-1.96
-1.95
-1.98
-2.10
-2.26
-2.40
-2.42
-2.30
-2.06
-1.78
-1.52
-1.35
-1.32
-1.43
-1.66
-1.97
-2.24
-2.39
-2.38
-2.24
-2.05
-1.92
-1.91
-2.02
-2.16
-2.21
-2.05
-1.66
-1.09
-0.45
0.12
0.47
0.55
0.39
0.11
-0.11
-0.11
0.16
0.66
1.22
1.67
1.85
1.75
1.48
1.20
1.08
1.17
1.40
1.59
1.57
1.26
0.69
0.04
-0.48
-0.73
-0.68
-0.42
-0.11
0.10
0.10
-0.09
-0.41
-0.80
-1.20
-1.59
-1.91
-2.07
-1.97
-1.57
-0.93
-0.20
0.39
0.69
0.67
0.45
0.22
0.16
0.34
0.69
1.06
1.29
1.31
1.13
0.84
0.55
0.32
0.16
0.00
-0.19
-0.46
-0.76
-1.03
-1.18
-1.19
-1.09
-0.95
-0.83
-0.79
-0.80
-0.81
-0.75
-0.59
-0.35
-0.12
-0.02
-0.12
-0.41
-0.78
-1.03
-0.96
-0.50
0.28
1.12
1.75
1.97
1.74
1.21
0.63
0.22
0.11
0.26
0.53
0.79
0.93
0.95
0.90
0.84
0.77
0.70
0.61
0.51
0.40
0.31
0.19
0.02
-0.24
-0.56
-0.86
-1.00
-0.91
-0.61
-0.25
0.00
-0.03
-0.37
-0.94
-1.55
-1.98
-2.10
-1.88
-1.37
-0.72
-0.07
0.41
0.67
0.69
0.54
0.33
0.18
0.16
0.32
0.64
1.05
1.47
1.81
2.00
1.98
1.74
1.33
0.85
0.45
0.20
0.14
0.19
0.23
0.15
-0.08
-0.41
-0.71
-0.88
-0.88
-0.76
-0.64
-0.65
-0.83
-1.16
-1.55
-1.89
-2.09
-2.13
-2.07
-1.96
-1.86
-1.74
-1.52
-1.08
-0.41
0.42
1.27
1.95
2.34
2.45
2.38
2.26
2.23
2.29
2.40
2.49
2.50
2.42
2.26
2.03
1.74
1.40
1.04
0.72
0.48
0.30
0.15
-0.05
-0.36
-0.78
-1.26
-1.73
-2.11
-2.39
-2.60
-2.80
-2.99
-3.16
-3.25
-3.18
-2.92
-2.51
-2.00
-1.44
-0.82
-0.12
0.69
1.55
2.34
2.90
3.11
2.99
2.65
2.25
1.94
1.77
1.71
1.68
1.63
1.54
1.38
1.15
0.86
0.52
0.17
-0.14
-0.35
-0.44
-0.44
-0.42
-0.45
-0.60
-0.88
-1.26
-1.65
-1.97
-2.16
-2.22
-2.20
-2.19
-2.20
-2.25
-2.26
-2.17
-1.93
-1.53
-0.97
-0.30
0.42
1.12
1.71
2.14
2.36
2.42
2.40
2.38
2.41
2.49
2.55
2.52
2.33
1.97
1.45
0.82
0.15
-0.49
-1.04
-1.44
-1.70
-1.82
-1.83
-1.76
-1.62
-1.41
-1.16
-0.92
-0.79
-0.87
-1.20
-1.75
-2.39
-3.00
-3.47
-3.76
-3.90
-3.93
-3.88
-3.69
-3.33
-2.75
-1.98
-1.13
-0.34
0.25
0.60
0.71
0.72
0.76
0.94
1.26
1.61
1.82
1.73
1.30
0.57
-0.29
-1.12
-1.81
-2.34
-2.73
-3.08
-3.44
-3.88
-4.43
-5.08
-5.82
-6.61
-7.38
-8.07
-8.64
-9.10
-9.49
-9.85
-10.21
-10.58
-10.98
-11.41
-11.84
-12.15
-12.14
-11.57
-10.31
-8.38
-6.06
-3.68
-1.52
0.35
2.06
3.82
5.79
7.96
10.15
12.18
13.91
15.33
16.50
17.50
18.34
18.99
19.39
19.48
19.30
18.88
18.28
17.58
16.83
16.12
15.48
14.90
14.30
13.56
12.60
11.41
10.07
8.72
7.48
6.43
5.58
4.87
4.27
3.73
3.22
2.68
2.08
1.47
0.95
0.71
0.92
1.64
2.76
3.98
4.85
4.91
3.81
1.46
-1.91
-5.75
-9.39
-12.19
-13.80
-14.20
-13.68
-12.67
-11.55
-10.59
-9.91
-9.51
-9.36
-9.37
-9.41
-9.31
-8.93
-8.21
-7.26
-6.29
-5.51
-4.98
-4.63
-4.26
-3.74
-3.09
-2.46
-2.07
-2.06
-2.41
-2.95
-3.52
-3.99
-4.33
-4.51
-4.51
-4.27
-3.80
-3.19
-2.57
-2.08
-1.77
-1.58
-1.42
-1.22
-0.98
-0.72
-0.44
-0.12
0.27
0.68
0.97
0.96
0.57
-0.15
-0.99
-1.69
-2.08
-2.10
-1.85
-1.43
-0.96
-0.52
-0.17
0.04
0.06
-0.11
-0.42
-0.73
-0.92
-0.88
-0.57
-0.05
0.59
1.27
1.98
2.73
3.58
4.50
5.41
6.20
6.78
7.18
7.54
8.06
8.88
9.97
11.24
12.52
13.71
14.78
15.68
16.35
16.65
16.37
15.34
13.50
10.92
7.82
4.54
1.45
-1.13
-3.02
-4.16
-4.69
-4.81
-4.77
-4.76
-4.96
-5.46
-6.29
-7.39
-8.59
-9.64
-10.32
-10.51
-10.26
-9.72
-9.08
-8.42
-7.81
-7.31
-6.97
-6.88
-7.07
-7.44
-7.77
-7.85
-7.48
-6.64
-5.48
-4.20
-3.00
-1.96
-1.08
-0.30
0.42
1.07
1.55
1.81
1.84
1.74
1.63
1.62
1.71
1.81
1.76
1.47
0.97
0.42
0.02
-0.05
0.28
0.91
1.70
2.45
3.04
3.38
3.45
3.27
2.88
2.35
1.75
1.18
0.72
0.45
0.38
0.49
0.67
0.77
0.71
0.47
0.17
-0.05
-0.09
0.06
0.29
0.45
0.44
0.24
-0.10
-0.42
-0.60
-0.56
-0.30
0.13
0.65
1.19
1.69
2.11
2.45
2.70
2.81
2.76
2.55
2.28
2.08
2.09
2.39
2.85
3.27
3.42
3.22
2.78
2.36
2.22
2.43
2.89
3.38
3.65
3.61
3.29
2.79
2.18
1.46
0.53
-0.66
-2.08
-3.56
-4.86
-5.76
-6.16
-6.10
-5.77
-5.37
-5.03
-4.82
-4.70
-4.61
-4.52
-4.44
-4.43
-4.47
-4.55
-4.61
-4.59
-4.47
-4.23
-3.86
-3.38
-2.81
-2.19
-1.63
-1.19
-0.92
-0.80
-0.72
-0.57
-0.25
0.23
0.80
1.40
1.96
2.47
2.91
3.23
3.33
3.10
2.52
1.68
0.74
-0.06
-0.58
-0.80
-0.81
-0.73
-0.64
-0.56
-0.42
-0.19
0.16
0.59
1.01
1.38
1.64
1.76
1.74
1.60
1.35
1.04
0.71
0.35
0.00
-0.32
-0.58
-0.71
-0.66
-0.45
-0.12
0.19
0.37
0.36
0.21
0.11
0.23
0.69
1.43
2.23
2.77
2.81
2.31
1.46
0.59
0.01
-0.16
0.01
0.30
0.46
0.39
0.12
-0.22
-0.50
-0.68
-0.81
-0.97
-1.19
-1.37
-1.41
-1.17
-0.68
-0.02
0.59
0.99
1.12
1.01
0.78
0.56
0.39
0.29
0.23
0.19
0.19
0.21
0.22
0.18
0.02
-0.25
-0.59
-0.86
-0.98
-0.88
-0.60
-0.26
0.06
0.28
0.37
0.32
0.15
-0.19
-0.69
-1.32
-2.01
-2.63
-3.10
-3.41
-3.63
-3.83
-4.02
-4.12
-3.98
-3.50
-2.65
-1.55
-0.42
0.56
1.24
1.56
1.59
1.43
1.19
1.03
1.03
1.25
1.67
2.19
2.67
3.00
3.10
2.99
2.71
2.33
1.92
1.55
1.24
1.01
0.81
0.61
0.33
-0.01
-0.40
-0.74
-0.99
-1.13
-1.22
-1.37
-1.65
-2.01
-2.37
-2.59
-2.60
-2.44
-2.22
-2.02
-1.85
-1.60
-1.15
-0.48
0.32
1.08
1.64
1.95
2.09
2.14
2.21
2.30
2.36
2.34
2.26
2.13
2.01
1.94
1.92
1.92
1.91
1.85
1.75
1.61
1.46
1.34
1.25
1.15
0.98
0.71
0.35
-0.01
-0.25
-0.34
-0.34
-0.36
-0.56
-1.00
-1.62
-2.24
-2.66
-2.74
-2.47
-1.94
-1.32
-0.76
-0.33
-0.01
0.24
0.47
0.71
0.94
1.14
1.26
1.30
1.26
1.22
1.21
1.25
1.28
1.21
0.93
0.42
-0.18
-0.67
-0.87
-0.75
-0.42
-0.12
-0.02
-0.16
-0.45
-0.74
-0.95
-1.10
-1.28
-1.58
-1.98
-2.40
-2.74
-2.97
-3.12
-3.25
-3.36
-3.41
-3.30
-2.94
-2.35
-1.55
-0.65
0.25
1.08
1.75
2.21
2.41
2.40
2.26
2.12
2.08
2.18
2.37
2.58
2.70
2.65
2.43
2.07
1.68
1.36
1.17
1.12
1.17
1.26
1.34
1.41
1.50
1.60
1.62
1.49
1.12
0.55
-0.07
-0.59
-0.95
-1.25
-1.64
-2.24
-3.02
-3.78
-4.27
-4.34
-3.97
-3.32
-2.59
-1.93
-1.41
-1.05
-0.81
-0.70
-0.72
-0.90
-1.22
-1.66
-2.16
-2.63
-2.99
-3.16
-3.13
-2.95
-2.72
-2.54
-2.47
-2.49
-2.51
-2.43
-2.23
-1.93
-1.62
-1.41
-1.37
-1.53
-1.83
-2.21
-2.64
-3.11
-3.61
-4.17
-4.73
-5.27
-5.75
-6.19
-6.65
-7.17
-7.73
-8.23
-8.51
-8.45
-7.98
-7.14
-6.05
-4.80
-3.44
-1.97
-0.40
1.26
2.95
4.60
6.19
7.65
8.97
10.08
10.93
11.48
11.73
11.71
11.47
11.03
10.40
9.60
8.69
7.78
7.02
6.49
6.16
5.90
5.51
4.86
3.97
2.99
2.08
1.35
0.76
0.25
-0.24
-0.66
-0.89
-0.81
-0.40
0.24
0.95
1.57
2.03
2.35
2.54
2.65
2.69
2.64
2.54
2.46
2.47
2.62
2.86
3.11
3.22
3.08
2.64
1.98
1.22
0.53
0.05
-0.20
-0.28
-0.30
-0.39
-0.61
-0.92
-1.28
-1.57
-1.76
-1.84
-1.90
-2.03
-2.30
-2.72
-3.20
-3.61
-3.83
-3.82
-3.67
-3.54
-3.54
-3.73
-4.03
-4.29
-4.31
-3.99
-3.33
-2.44
-1.52
-0.71
-0.05
0.47
0.93
1.29
1.47
1.32
0.74
-0.19
-1.24
-2.07
-2.34
-1.87
-0.65
1.14
3.19
5.17
6.72
7.58
7.59
6.74
5.20
3.26
1.25
-0.50
-1.79
-2.50
-2.69
-2.51
-2.18
-1.91
-1.89
-2.16
-2.65
-3.17
-3.50
-3.48
-3.11
-2.52
-1.96
-1.67
-1.79
-2.33
-3.14
-4.06
-4.90
-5.49
-5.67
-5.37
-4.57
-3.39
-2.05
-0.88
-0.14
-0.00
-0.43
-1.28
-2.26
-3.07
-3.45
-3.26
-2.51
-1.37
-0.13
0.91
1.50
1.57
1.17
0.43
-0.46
-1.32
-1.96
-2.18
-1.83
-0.92
0.41
1.84
3.05
3.82
4.13
4.13
4.06
4.05
4.14
4.26
4.30
4.22
4.03
3.83
3.68
3.61
3.59
3.55
3.46
3.29
3.08
2.89
2.80
2.84
2.97
3.05
2.96
2.56
1.86
0.98
0.13
-0.47
-0.75
-0.76
-0.70
-0.74
-0.96
-1.29
-1.53
-1.52
-1.18
-0.61
0.00
0.49
0.81
1.05
1.31
1.67
2.07
2.37
2.46
2.30
1.98
1.62
1.33
1.14
1.00
0.84
0.61
0.33
0.02
-0.28
-0.55
-0.81
-1.11
-1.49
-1.94
-2.43
-2.94
-3.41
-3.84
-4.25
-4.65
-5.06
-5.41
-5.63
-5.65
-5.46
-5.08
-4.61
-4.10
-3.53
-2.86
-2.04
-1.10
-0.13
0.75
1.43
1.91
2.29
2.64
2.99
3.28
3.40
3.25
2.84
2.25
1.60
1.05
0.71
0.68
0.96
1.46
2.01
2.40
2.44
2.10
1.48
0.85
0.44
0.38
0.62
0.96
1.19
1.16
0.86
0.38
-0.12
-0.51
-0.69
-0.64
-0.34
0.15
0.79
1.48
2.12
2.62
2.97
3.15
3.21
3.19
3.14
3.07
2.99
2.86
2.68
2.44
2.16
1.87
1.65
1.56
1.64
1.89
2.22
2.55
2.78
2.84
2.71
2.41
2.00
1.60
1.33
1.30
1.57
2.07
2.64
3.03
3.06
2.65
1.87
0.90
-0.05
-0.77
-1.14
-1.12
-0.73
-0.03
0.88
1.87
2.80
3.50
3.81
3.66
3.03
2.04
0.87
-0.29
-1.29
-2.13
-2.87
-3.64
-4.50
-5.41
-6.25
-6.90
-7.31
-7.54
-7.68
-7.88
-8.24
-8.79
-9.48
-10.22
-10.91
-11.44
-11.71
-11.70
-11.40
-10.83
-10.03
-8.99
-7.69
-6.11
-4.36
-2.62
-1.13
-0.09
0.46
0.59
0.54
0.54
0.76
1.23
1.90
2.62
3.27
3.79
4.15
4.35
4.36
4.21
3.91
3.59
3.36
3.39
3.71
4.24
4.76
5.00
4.75
4.00
2.93
1.81
0.93
0.47
0.40
0.56
0.77
0.88
0.84
0.69
0.53
0.43
0.42
0.50
0.65
0.86
1.14
1.48
1.85
2.24
2.61
2.98
3.38
3.85
4.38
4.95
5.46
5.87
6.10
6.16
6.06
5.82
5.45
4.96
4.37
3.77
3.29
3.01
2.96
3.06
3.13
3.04
2.70
2.17
1.61
1.19
1.00
0.96
0.95
0.81
0.49
-0.01
-0.59
-1.19
-1.75
-2.26
-2.72
-3.10
-3.36
-3.46
-3.43
-3.33
-3.28
-3.36
-3.61
-4.00
-4.44
-4.84
-5.13
-5.31
-5.46
-5.59
-5.68
-5.62
-5.26
-4.50
-3.34
-1.92
-0.40
1.01
2.16
2.96
3.32
3.18
2.54
1.48
0.27
-0.80
-1.42
-1.48
-1.05
-0.36
0.32
0.87
1.27
1.60
1.92
2.17
2.25
2.04
1.50
0.78
0.09
-0.34
-0.43
-0.25
-0.02
0.01
-0.28
-0.88
-1.64
-2.38
-2.93
-3.22
-3.29
-3.21
-3.08
-2.97
-2.97
-3.11
-3.38
-3.73
-4.05
-4.21
-4.09
-3.64
-2.90
-1.97
-1.02
-0.18
0.44
0.83
1.05
1.19
1.33
1.51
1.72
1.93
2.16
2.43
2.78
3.18
3.53
3.70
3.59
3.20
2.64
2.08
1.68
1.49
1.47
1.52
1.59
1.63
1.66
1.67
1.57
1.29
0.76
0.01
-0.81
-1.51
-1.93
-2.00
-1.73
-1.24
-0.70
-0.26
-0.07
-0.17
-0.57
-1.18
-1.84
-2.38
-2.66
-2.59
-2.19
-1.55
-0.77
0.04
0.78
1.38
1.79
2.00
2.07
2.05
2.02
2.01
2.02
2.05
2.06
2.05
2.02
1.99
1.92
1.78
1.52
1.12
0.58
-0.03
-0.68
-1.29
-1.86
-2.35
-2.75
-3.04
-3.22
-3.31
-3.35
-3.37
-3.42
-3.52
-3.69
-3.94
-4.26
-4.65
-5.07
-5.43
-5.62
-5.53
-5.12
-4.40
-3.51
-2.60
-1.85
-1.31
-0.97
-0.69
-0.35
0.16
0.83
1.56
2.22
2.67
2.88
2.87
2.72
2.50
2.28
2.11
2.03
2.07
2.23
2.49
2.78
2.99
3.05
2.91
2.58
2.11
1.60
1.15
0.88
0.82
0.91
1.06
1.14
1.07
0.85
0.54
0.21
-0.10
-0.39
-0.68
-0.97
-1.21
-1.30
-1.20
-0.90
-0.45
0.06
0.55
1.01
1.48
1.96
2.43
2.81
3.01
2.97
2.68
2.22
1.71
1.28
1.02
0.94
1.02
1.17
1.29
1.29
1.13
0.88
0.61
0.41
0.30
0.23
0.11
-0.14
-0.48
-0.82
-1.05
-1.17
-1.25
-1.41
-1.74
-2.19
-2.63
-2.92
-3.04
-3.09
-3.23
-3.55
-4.01
-4.43
-4.57
-4.30
-3.63
-2.73
-1.78
-0.95
-0.27
0.26
0.70
1.08
1.44
1.77
2.05
2.24
2.29
2.17
1.92
1.59
1.28
1.02
0.78
0.53
0.26
0.03
-0.09
-0.05
0.07
0.12
-0.03
-0.40
-0.85
-1.19
-1.29
-1.15
-0.92
-0.78
-0.81
-0.97
-1.15
-1.28
-1.37
-1.52
-1.81
-2.20
-2.54
-2.68
-2.56
-2.25
-1.91
-1.65
-1.47
-1.26
-0.86
-0.25
0.49
1.20
1.75
2.14
2.45
2.78
3.13
3.43
3.57
3.50
3.29
3.08
2.99
3.08
3.28
3.47
3.57
3.54
3.45
3.36
3.29
3.18
2.97
2.58
1.99
1.28
0.54
-0.16
-0.78
-1.37
-1.96
-2.59
-3.24
-3.88
-4.46
-4.96
-5.36
-5.63
-5.75
-5.66
-5.37
-4.89
-4.24
-3.40
-2.34
-1.00
0.59
2.26
3.74
4.76
5.17
5.05
4.62
4.17
3.88
3.80
3.85
3.93
3.94
3.86
3.66
3.36
2.98
2.57
2.20
1.90
1.63
1.32
0.91
0.39
-0.14
-0.54
-0.74
-0.73
-0.61
-0.48
-0.46
-0.59
-0.84
-1.12
-1.32
-1.32
-1.07
-0.58
0.03
0.61
1.03
1.25
1.38
1.55
1.92
2.50
3.18
3.75
3.99
3.77
3.12
2.17
1.16
0.27
-0.38
-0.75
-0.89
-0.88
-0.80
-0.72
-0.66
-0.66
-0.78
-1.04
-1.49
-2.12
-2.88
-3.64
-4.25
-4.54
-4.46
-4.05
-3.51
-3.11
-3.04
-3.38
-3.97
-4.60
-5.04
-5.20
-5.11
-4.89
-4.64
-4.39
-4.08
-3.64
-3.04
-2.34
-1.62
-0.97
-0.36
0.23
0.80
1.27
1.51
1.41
0.99
0.36
-0.25
-0.67
-0.84
-0.82
-0.72
-0.63
-0.58
-0.52
-0.46
-0.41
-0.40
-0.45
-0.54
-0.62
-0.69
-0.78
-0.95
-1.22
-1.58
-1.98
-2.36
-2.66
-2.85
-2.90
-2.75
-2.40
-1.93
-1.47
-1.20
-1.21
-1.50
-1.96
-2.49
-2.96
-3.31
-3.47
-3.34
-2.81
-1.80
-0.38
1.28
2.85
4.07
4.77
4.97
4.81
4.54
4.34
4.32
4.48
4.70
4.84
4.77
4.49
4.05
3.56
3.11
2.71
2.32
1.92
1.51
1.16
0.94
0.88
0.95
1.03
1.01
0.85
0.56
0.21
-0.10
-0.34
-0.52
-0.67
-0.82
-1.03
-1.35
-1.81
-2.35
-2.86
-3.16
-3.13
-2.69
-1.93
-1.03
-0.17
0.48
0.91
1.17
1.39
1.64
1.95
2.27
2.49
2.55
2.43
2.18
1.87
1.61
1.43
1.34
1.32
1.32
1.34
1.33
1.28
1.19
1.05
0.88
0.71
0.58
0.47
0.36
0.21
0.01
-0.21
-0.40
-0.49
-0.48
-0.42
-0.43
-0.57
-0.89
-1.31
-1.74
-2.06
-2.20
-2.21
-2.13
-2.06
-2.02
-2.00
-1.93
-1.76
-1.47
-1.06
-0.58
-0.04
0.48
0.96
1.36
1.66
1.85
1.96
1.99
1.99
2.00
2.04
2.13
2.24
2.33
2.29
2.05
1.58
0.95
0.27
-0.37
-0.96
-1.50
-2.01
-2.41
-2.59
-2.47
-2.07
-1.56
-1.16
-1.02
-1.15
-1.42
-1.66
-1.77
-1.72
-1.59
-1.47
-1.35
-1.18
-0.86
-0.29
0.56
1.62
2.82
4.04
5.14
6.01
6.54
6.62
6.17
5.16
3.69
1.97
0.34
-0.90
-1.53
-1.57
-1.24
-0.89
-0.82
-1.17
-1.88
-2.71
-3.45
-3.94
-4.19
-4.31
-4.41
-4.56
-4.73
-4.86
-4.90
-4.84
-4.72
-4.57
-4.41
-4.24
-4.03
-3.79
-3.49
-3.16
-2.83
-2.53
-2.33
-2.24
-2.20
-2.05
-1.61
-0.74
0.54
2.00
3.31
4.16
4.47
4.39
4.26
4.40
5.00
6.00
7.13
8.10
8.68
8.77
8.41
7.67
6.56
5.11
3.39
1.61
0.12
-0.80
-1.06
-0.84
-0.58
-0.70
-1.37
-2.47
-3.62
-4.40
-4.60
-4.24
-3.57
-2.85
-2.28
-1.89
-1.65
-1.49
-1.36
-1.23
-1.12
-1.04
-0.99
-0.90
-0.66
-0.14
0.78
2.06
3.57
5.07
6.36
7.35
8.07
8.67
9.27
9.87
10.37
10.55
10.14
9.01
7.15
4.81
2.38
0.31
-1.11
-1.79
-1.93
-1.86
-1.91
-2.25
-2.90
-3.67
-4.38
-4.89
-5.20
-5.36
-5.46
-5.50
-5.42
-5.15
-4.65
-4.02
-3.42
-3.05
-3.04
-3.38
-3.98
-4.65
-5.23
-5.64
-5.85
-5.85
-5.65
-5.28
-4.76
-4.12
-3.38
-2.54
-1.58
-0.50
0.66
1.81
2.80
3.49
3.82
3.78
3.45
2.97
2.50
2.16
2.02
2.07
2.24
2.37
2.38
2.21
1.90
1.54
1.18
0.87
0.61
0.39
0.21
0.09
0.01
-0.03
-0.04
-0.05
-0.07
-0.14
-0.30
-0.61
-1.08
-1.68
-2.34
-2.94
-3.39
-3.65
-3.74
-3.73
-3.66
-3.56
-3.41
-3.17
-2.79
-2.27
-1.63
-0.93
-0.24
0.42
1.03
1.60
2.11
2.51
2.74
2.76
2.58
2.27
1.95
1.74
1.72
1.91
2.27
2.69
3.06
3.22
3.08
2.61
1.88
1.05
0.30
-0.23
-0.46
-0.40
-0.11
0.30
0.75
1.13
1.36
1.36
1.11
0.63
0.03
-0.59
-1.15
-1.65
-2.09
-2.50
-2.84
-3.00
-2.88
-2.44
-1.73
-0.94
-0.26
0.18
0.40
0.54
0.78
1.26
1.95
2.66
3.17
3.30
3.05
2.61
2.19
1.97
1.96
2.07
2.13
2.08
1.94
1.81
1.74
1.72
1.69
1.61
1.46
1.30
1.17
1.04
0.84
0.53
0.10
-0.35
-0.68
-0.80
-0.74
-0.61
-0.58
-0.76
-1.15
-1.67
-2.12
-2.36
-2.28
-1.88
-1.26
-0.56
0.13
0.74
1.28
1.78
2.21
2.56
2.81
2.96
3.04
3.09
3.10
2.98
2.63
1.96
0.97
-0.21
-1.38
-2.36
-3.04
-3.42
-3.63
-3.84
-4.20
-4.71
-5.24
-5.55
-5.36
-4.58
-3.31
-1.81
-0.42
0.70
1.61
2.56
3.80
5.45
7.41
9.44
11.30
12.85
14.07
14.99
15.64
15.99
16.05
15.88
15.60
15.38
15.39
15.70
16.30
17.12
18.05
19.01
19.91
20.64
21.08
21.10
20.65
19.71
18.37
16.81
15.21
13.72
12.39
11.09
9.61
7.69
5.16
2.01
-1.54
-5.10
-8.21
-10.47
-11.71
-12.04
-11.87
-11.70
-12.00
-12.98
-14.59
-16.51
-18.38
-19.91
-20.96
-21.52
-21.67
-21.51
-21.06
-20.36
-19.37
-18.09
-16.50
-14.61
-12.42
-10.00
-7.37
-4.51
-1.37
2.07
5.74
9.33
12.42
14.48
15.22
14.60
12.96
10.83
8.78
7.21
6.31
5.98
5.94
5.88
5.52
4.73
3.56
2.21
0.98
0.15
-0.07
0.42
1.50
2.83
3.92
4.24
3.46
1.72
-0.38
-1.88
-1.92
-0.18
2.94
6.30
8.53
8.54
5.92
1.03
-5.15
-11.49
-16.94
-20.85
-22.87
-22.99
-21.37
-18.41
-14.70
-11.00
-8.10
-6.57
-6.54
-7.67
-9.29
-10.70
-11.45
-11.47
-11.07
-10.63
-10.42
-10.46
-10.60
-10.69
-10.67
-10.56
-10.30
-9.60
-8.04
-5.28
-1.43
2.85
6.41
8.09
7.25
4.03
-0.67
-5.72
-10.18
-13.70
-16.39
-18.53
-20.22
-21.19
-21.05
-19.50
-16.72
-13.36
-10.29
-8.22
-7.36
-7.36
-7.55
-7.28
-6.28
-4.72
-3.10
-1.91
-1.33
-1.09
-0.65
0.54
2.68
5.55
8.53
10.94
12.32
12.69
12.59
12.89
14.46
17.74
22.48
27.75
32.26
34.93
35.31
33.90
31.89
30.67
31.32
34.17
38.92
44.83
51.14
57.22
62.54
66.47
68.30
67.37
63.36
56.47
47.30
36.52
24.53
11.34
-3.15
-18.74
-34.43
-48.53
-59.10
-64.71
-64.91
-60.44
-52.80
-43.66
-34.24
-25.16
-16.64
-8.80
-2.08
2.81
5.05
4.16
0.39
-5.21
-11.13
-15.89
-18.58
-19.17
-18.45
-17.53
-17.25
-17.71
-18.28
-18.00
-16.16
-12.81
-8.87
-5.67
-4.38
-5.43
-8.49
-12.68
-17.12
-21.35
-25.38
-29.43
-33.47
-37.02
-39.27
-39.45
-37.28
-33.20
-28.20
-23.28
-19.02
-15.28
-11.45
-6.92
-1.64
3.72
8.01
10.21
10.05
8.17
5.80
4.08
3.46
3.45
2.98
1.13
-2.32
-6.70
-10.82
-13.60
-14.72
-14.73
-14.77
-15.92
-18.65
-22.61
-26.83
-30.26
-32.23
-32.70
-31.99
-30.42
-27.91
-23.99
-18.15
-10.35
-1.32
7.58
14.94
19.94
22.61
23.69
24.02
23.99
23.39
21.64
18.36
13.77
8.86
5.01
3.53
5.12
9.55
15.77
22.22
27.34
30.00
29.76
26.95
22.36
17.00
11.77
7.33
4.06
2.13
1.27
0.85
0.02
-2.08
-5.95
-11.51
-18.07
-24.64
-30.28
-34.67
-37.75
-39.25
-38.34
-33.60
-23.71
-8.32
11.30
32.20
49.92
60.38
61.49
53.85
40.37
24.87
10.78
0.17
-6.49
-10.81
-14.72
-19.32
-24.35
-28.57
-30.69
-30.04
-26.92
-22.40
-19.10
-19.30
-23.87
-32.01
-42.09
-52.93
-64.62
-78.20
-87.34
-86.55
-72.92
-47.95
-16.27
16.51
44.65
63.16
69.52
64.99
53.11
38.88
26.79
19.30
16.38
16.25
16.81
16.95
16.77
16.17
15.09
13.56
11.74
9.94
8.34
6.83
5.38
3.88
1.55
-2.58
-9.03
-17.14
-25.41
-30.58
-29.81
-21.75
-7.42
9.63
24.82
34.56
37.68
35.59
31.15
26.88
23.92
21.84
19.26
15.21
9.87
4.65
1.40
1.46
4.99
10.97
17.52
22.63
24.84
23.84
20.35
15.80
11.54
8.50
7.05
7.22
8.58
10.91
14.08
17.97
22.21
25.70
26.95
24.70
18.53
9.32
-0.85
-9.38
-14.32
-14.61
-11.65
-8.69
-8.49
-11.50
-16.04
-19.51
-20.48
-18.85
-15.66
-12.53
-10.52
-9.52
-8.86
-7.69
-5.53
-2.58
0.49
2.84
3.85
3.74
3.66
5.21
9.52
16.77
26.04
35.57
43.24
47.13
46.36
41.39
33.75
25.01
16.45
8.83
2.50
-2.54
-6.60
-10.05
-13.28
-16.82
-21.62
-28.43
-37.06
-45.20
-49.51
-48.01
-41.34
-32.63
-23.73
-15.93
-9.83
-5.23
-1.92
0.58
2.76
5.12
8.33
13.06
19.42
27.03
35.05
42.38
47.80
50.27
49.37
45.72
40.77
35.95
32.42
30.64
30.47
31.10
31.52
30.92
29.36
27.56
26.40
26.65
28.59
32.05
36.27
40.31
42.17
40.46
35.16
27.66
19.95
13.48
9.06
6.72
6.21
7.00
8.58
10.55
11.86
12.84
13.76
14.69
15.19
15.01
14.06
12.62
11.21
10.29
10.07
9.70
10.09
10.56
10.61
10.01
8.70
6.57
3.49
-0.56
-5.45
-11.86
-20.04
-28.90
-36.94
-43.38
-48.61
-53.81
-60.21
-68.48
-80.16
-95.31
-111.72
-126.61
-138.44
-147.52
-155.08
-161.98
-167.88
-173.73
-179.25
-182.59
-182.40
-179.17
-174.90
-171.01
-166.98
-145.36
-98.95
-35.08
30.91
87.10
129.67
159.56
178.56
186.93
182.92
161.85
122.14
68.50
10.27
-41.96
-80.83
-104.27
-115.20
-119.31
-124.17
-136.04
-152.24
-167.16
-174.08
-168.31
-148.46
-116.71
-77.64
-38.32
-4.82
20.24
36.66
46.64
52.20
54.56
54.73
55.21
58.96
69.67
91.55
121.86
158.08
196.13
231.23
259.00
277.88
287.57
288.62
281.91
268.11
248.77
225.05
198.07
169.49
143.58
124.71
115.45
115.47
121.45
128.92
132.69
128.14
102.38
51.41
-16.86
-84.63
-133.69
-153.35
-142.51
-109.49
-68.91
-36.55
-21.92
-26.72
-45.46
-69.24
-90.13
-104.13
-112.12
-117.84
-124.38
-130.47
-132.33
-126.25
-110.93
-88.12
-61.57
-35.81
-14.95
-1.73
4.05
3.99
0.22
-5.62
-13.04
-22.77
-36.40
-54.79
-76.51
-95.62
-104.06
-94.96
-66.18
-22.20
26.84
68.60
93.17
96.54
81.66
56.37
29.93
9.90
0.51
2.33
13.01
28.06
41.75
48.34
44.39
30.06
9.12
-12.73
-29.73
-37.99
-36.39
-26.15
-10.24
7.77
24.16
35.63
39.96
36.18
25.18
8.11
-12.64
-34.20
-53.64
-68.43
-76.61
-76.13
-66.96
-50.00
-27.63
-3.24
19.17
36.23
46.23
50.20
50.89
51.74
55.26
61.65
68.80
73.29
72.40
65.11
52.10
35.25
16.13
-4.41
-25.70
-46.10
-62.84
-72.68
-72.27
-63.00
-48.68
-34.52
-25.55
-24.86
-32.58
-46.88
-62.66
-73.97
-75.48
-63.91
-40.30
-10.84
15.11
28.84
26.04
9.21
-13.45
-31.83
-38.18
-28.90
-8.64
13.68
30.39
38.36
39.39
37.73
37.27
40.04
45.81
52.42
57.12
57.98
53.84
44.37
30.02
12.02
-7.63
-26.23
-41.20
-51.60
-57.17
-58.03
-54.40
-46.96
-37.41
-28.32
-22.57
-22.57
-28.87
-39.36
-50.05
-56.08
-53.02
-38.83
-14.80
13.94
41.11
60.30
67.39
61.83
46.74
27.57
9.86
-2.79
-9.83
-13.07
-15.07
-17.03
-18.08
-15.96
-8.77
3.16
17.11
28.91
35.16
34.93
30.16
24.39
20.62
19.51
19.76
19.65
18.26
15.96
13.94
13.25
14.23
16.15
17.75
18.09
16.97
14.98
13.30
13.11
15.28
19.83
25.69
30.83
32.87
29.96
21.66
9.75
-3.10
-13.50
-19.02
-19.22
-15.79
-11.61
-9.24
-9.84
-12.71
-16.04
-17.83
-17.01
-13.97
-10.05
-6.67
-4.49
-3.02
-0.91
3.07
9.41
17.44
25.54
32.02
35.78
36.78
35.80
33.84
31.38
28.46
24.75
19.94
14.03
7.45
0.79
-5.41
-10.82
-15.67
-20.24
-24.75
-29.27
-33.76
-38.08
-42.13
-46.12
-49.03
-51.19
-53.30
-56.40
-61.84
-71.07
-85.12
-103.89
-125.50
-146.27
-161.81
-168.27
-163.87
-149.79
-129.67
-108.29
-89.76
-76.15
-66.98
-60.04
-52.20
-40.86
-24.88
-4.77
17.62
39.94
60.08
76.81
89.72
99.03
105.17
108.51
109.39
108.47
106.89
106.07
107.13
110.22
114.25
117.26
117.07
112.18
102.42
88.90
73.41
57.65
42.47
27.55
11.66
-6.82
-29.21
-56.06
-86.74
-119.26
-150.59
-177.05
-194.91
-200.91
-192.95
-170.76
-136.22
-93.29
-47.49
-4.89
29.14
51.26
60.92
60.19
52.83
43.05
34.32
28.86
27.46
29.95
35.63
43.84
53.74
64.18
73.69
80.84
85.11
86.60
85.91
83.55
80.60
77.90
75.75
73.78
71.53
69.82
69.79
72.27
76.83
83.03
89.38
93.52
93.07
87.19
78.51
70.63
66.07
64.33
64.21
63.15
58.39
48.76
36.02
26.14
24.74
33.85
50.35
70.05
87.82
99.03
100.81
81.89
39.55
-18.14
-67.12
-98.90
-110.40
-102.60
-77.18
-38.95
4.61
46.73
81.21
96.28
85.00
52.48
10.91
-28.69
-60.89
-84.71
-99.69
-107.53
-110.39
-110.92
-110.17
-109.19
-109.27
-110.16
-111.33
-111.44
-107.81
-99.67
-88.19
-74.87
-61.89
-51.22
-44.49
-39.94
-34.42
-25.26
-11.45
6.29
26.32
45.37
58.34
60.83
52.23
36.07
17.75
1.39
-11.49
-21.71
-30.97
-40.24
-49.23
-56.90
-62.40
-65.83
-66.71
-65.75
-63.85
-61.62
-58.95
-54.98
-48.67
-39.70
-28.84
-17.71
-8.18
-1.30
3.14
6.36
9.93
15.05
21.85
29.35
35.96
40.18
41.49
40.51
38.60
37.23
37.24
38.50
40.02
40.60
39.50
36.94
33.94
31.72
31.05
31.80
33.13
33.87
33.42
32.11
31.13
31.72
34.31
38.12
41.30
41.78
38.29
31.23
22.84
16.21
13.69
15.46
19.60
22.73
21.79
15.35
4.31
-8.57
-20.11
-28.25
-32.73
-34.49
-35.22
-35.54
-36.23
-39.14
-46.64
-59.50
-75.37
-89.14
-94.33
-86.26
-64.21
-32.29
2.18
31.54
50.68
59.37
58.43
51.45
41.96
31.97
21.71
10.80
-0.45
-10.67
-18.19
-22.22
-22.97
-21.93
-21.08
-21.93
-24.57
-27.57
-28.73
-26.26
-19.95
-11.07
-2.27
3.85
6.03
5.16
3.76
4.51
8.65
15.02
20.90
23.43
21.20
15.01
7.21
-0.02
-5.50
-9.38
-12.53
-15.34
-17.36
-17.35
-14.34
-8.53
-1.44
4.68
7.88
7.45
3.96
-1.01
-5.70
-8.77
-9.75
-9.15
-8.02
-7.45
-7.99
-9.72
-12.31
-15.15
-17.45
-18.55
-18.00
-15.23
-9.66
-0.84
10.39
21.78
30.59
34.70
33.11
26.20
15.72
4.13
-6.09
-14.05
-20.12
-24.86
-27.99
-28.08
-24.14
-15.70
-2.80
14.19
33.33
51.48
65.34
72.50
71.03
60.11
40.86
14.34
-11.53
-26.93
-27.29
-16.57
0.23
19.37
38.47
55.29
68.03
76.03
78.44
74.60
65.03
52.02
38.33
26.09
16.47
9.54
4.77
0.56
-4.79
-11.87
-19.51
-26.15
-30.78
-33.43
-34.91
-36.23
-38.51
-42.46
-47.71
-52.84
-56.47
-57.90
-57.25
-55.02
-51.67
-47.83
-44.25
-41.48
-39.63
-38.56
-38.14
-38.11
-37.72
-35.90
-31.83
-25.40
-17.14
-7.93
1.09
8.32
12.45
13.46
12.80
12.58
14.17
17.64
21.87
24.80
23.73
17.10
6.42
-3.73
-7.93
-2.96
11.00
30.91
51.78
67.47
73.01
66.66
50.04
26.31
-1.78
-31.24
-57.53
-69.54
-57.42
-22.80
20.77
57.94
79.80
85.54
77.28
59.83
38.73
17.12
-2.68
-19.69
-33.91
-46.02
-57.47
-68.51
-77.33
-81.67
-81.32
-78.13
-74.33
-71.21
-63.09
-48.36
-29.11
-8.51
10.62
25.49
33.28
34.20
30.18
24.34
18.83
15.13
14.23
15.76
17.82
18.01
14.99
9.02
1.74
-5.53
-11.72
-16.28
-19.16
-20.92
-22.07
-22.62
-21.98
-19.29
-14.70
-8.99
-3.34
1.55
5.49
8.74
11.88
15.51
19.87
24.20
27.43
28.66
28.37
27.94
28.97
32.46
38.61
46.65
54.77
61.00
60.75
52.12
37.77
22.80
10.40
0.76
-7.32
-15.81
-25.27
-35.16
-43.95
-50.70
-54.83
-57.46
-60.28
-64.26
-69.18
-73.74
-76.25
-75.13
-70.09
-62.30
-53.97
-46.76
-41.16
-36.57
-31.80
-25.99
-18.95
-11.50
-5.25
-1.59
-0.71
-1.31
-1.28
1.13
6.27
12.99
19.22
23.30
24.85
25.14
26.30
29.74
35.06
40.00
41.59
38.02
29.78
19.51
10.80
6.30
6.32
8.91
11.16
11.01
8.34
4.77
2.35
2.18
3.67
5.09
4.64
1.64
-3.22
-8.35
-12.04
-13.32
-12.19
-9.46
-6.43
-4.29
-3.77
-4.92
-7.04
-9.14
-10.44
-10.92
-11.39
-12.96
-16.33
-21.19
-26.22
-29.85
-31.15
-30.43
-28.96
-28.11
-28.50
-29.50
-29.67
-27.55
-22.56
-15.25
-6.98
0.93
7.84
13.95
19.88
25.86
31.31
34.95
35.48
32.38
26.30
18.69
11.10
4.36
-1.58
-7.24
-12.78
-17.59
-20.43
-20.12
-16.34
-9.99
-2.86
3.17
7.07
9.00
10.10
11.84
15.21
20.21
25.89
30.77
33.61
33.93
32.28
30.01
28.73
29.57
32.75
37.48
42.50
46.61
49.20
50.38
50.58
49.99
48.17
44.25
37.69
28.83
19.15
10.78
5.38
3.30
3.36
3.47
1.93
-1.67
-6.25
-9.82
-10.68
-8.43
-4.12
0.33
3.17
3.63
2.11
-0.32
-2.68
-4.68
-6.71
-9.41
-12.93
-16.65
-19.48
-20.39
-19.11
-16.29
-13.01
-10.01
-6.98
-2.49
5.27
17.40
33.30
50.45
65.05
73.39
73.24
64.74
50.22
33.29
17.56
5.53
-1.88
-5.30
-6.42
-7.52
-10.83
-17.76
-28.19
-40.16
-50.29
-55.00
-52.02
-41.42
-25.56
-7.99
8.07
20.88
30.40
37.62
43.65
49.03
53.86
58.00
61.39
63.98
65.43
65.03
61.95
55.67
46.31
34.58
21.55
8.32
-3.98
-14.08
-20.77
-23.39
-22.51
-20.11
-19.06
-21.74
-28.77
-38.45
-47.61
-53.35
-54.63
-52.82
-50.78
-51.03
-54.31
-59.34
-63.90
-66.37
-66.53
-65.13
-62.81
-59.20
-53.15
-43.70
-31.46
-18.95
-9.90
-7.61
-13.39
-26.05
-42.68
-60.05
-76.20
-91.29
-107.17
-126.25
-149.70
-176.07
-201.00
-218.09
-220.86
-204.97
-169.73
-118.50
-57.86
4.15
59.92
104.06
134.27
151.30
158.11
158.32
154.86
149.23
141.85
133.15
124.38
117.63
114.79
116.08
119.41
121.16
118.07
109.05
96.01
82.75
73.05
68.52
67.80
67.48
64.14
56.48
45.98
36.11
30.35
30.20
34.37
39.61
42.47
41.17
36.24
29.91
24.66
21.80
20.98
20.63
19.00
15.26
9.77
3.82
-1.16
-4.39
-6.10
-7.33
-9.31
-12.72
-17.29
-21.87
-25.04
-25.89
-24.54
-22.12
-20.11
-19.52
-20.31
-21.50
-21.72
-20.14
-16.96
-13.26
-10.32
-8.84
-8.51
-8.24
-6.85
-3.87
0.23
4.33
7.43
9.34
10.83
13.22
17.56
24.01
31.66
39.11
45.31
50.19
54.70
60.24
67.75
77.15
87.31
96.69
104.27
109.99
114.60
119.05
123.68
127.87
130.26
129.30
123.88
113.65
98.98
80.82
60.39
38.96
17.64
-2.89
-22.33
-40.83
-58.71
-76.16
-93.16
-109.39
-124.27
-137.03
-146.70
-152.29
-153.15
-149.37
-142.08
-133.22
-125.00
-119.17
-116.42
-116.38
-117.81
-119.04
-118.35
-114.37
-106.41
-94.76
-80.77
-66.54
-54.17
-44.74
-37.79
-31.64
-24.38
-15.26
-5.10
3.99
9.74
10.97
7.96
1.87
-6.10
-15.28
-25.26
-35.16
-43.15
-46.87
-44.78
-37.44
-27.76
-19.76
-16.30
-17.50
-20.62
-21.87
-18.82
-12.00
-4.74
-1.33
-4.66
-14.91
-29.85
-46.40
-62.24
-76.40
-88.41
-97.08
-99.86
-93.79
-77.26
-51.39
-20.20
10.63
35.62
51.00
55.47
50.23
38.51
24.89
14.25
10.35
14.47
24.82
37.15
46.51
49.29
44.40
33.13
18.18
2.51
-11.46
-22.19
-29.36
-34.05
-38.57
-45.48
-55.89
-68.25
-78.48
-81.94
-76.12
-62.55
-46.52
-34.58
-31.28
-36.89
-47.30
-56.16
-57.73
-49.07
-30.74
-5.96
21.00
46.30
67.46
83.42
94.12
100.12
102.03
100.33
95.44
88.11
79.83
72.64
68.56
68.67
72.35
77.29
80.37
79.19
73.45
65.10
57.47
53.63
54.86
60.06
66.36
70.65
71.18
68.28
64.02
61.00
60.90
63.65
67.54
70.26
70.26
67.44
62.98
58.48
54.82
51.59
47.31
40.44
30.58
18.95
7.97
0.21
-2.99
-2.13
0.81
3.35
3.90
2.49
0.53
-0.21
1.18
4.09
6.73
7.31
5.11
0.98
-3.05
-4.93
-3.69
0.03
4.45
7.72
9.19
9.33
9.41
10.71
13.84
18.31
23.03
26.74
28.86
30.03
31.04
32.26
33.40
33.74
32.45
29.46
25.34
21.45
19.92
21.62
25.76
30.55
34.32
36.23
37.13
38.37
41.50
47.70
55.33
60.14
57.02
42.40
15.36
-21.60
-64.87
-113.58
-161.09
-198.98
-221.95
-229.43
-223.08
-208.89
-187.88
-161.84
-133.93
-107.07
-84.06
-66.24
-53.99
-45.96
-40.09
-34.00
-26.81
-18.38
-8.62
1.64
10.89
17.72
21.55
22.53
21.53
19.05
15.68
12.62
10.90
11.25
13.91
18.67
24.51
30.11
33.78
34.34
31.85
27.26
22.01
17.48
14.66
13.73
14.31
15.55
16.52
16.87
16.85
17.10
18.19
20.33
23.23
26.45
29.45
31.39
31.71
30.39
28.07
25.82
24.77
26.08
30.71
38.86
48.70
56.78
59.03
52.20
34.95
8.64
-22.64
-52.99
-76.62
-90.84
-96.47
-97.01
-96.82
-99.51
-106.58
-116.91
-127.18
-128.58
-115.17
-88.62
-57.87
-32.02
-14.75
-4.18
3.69
12.42
22.36
30.80
34.67
32.92
27.46
21.35
17.53
17.24
19.75
22.83
23.56
20.05
12.62
3.67
-3.70
-7.46
-7.38
-4.82
-1.78
-0.10
-0.52
-2.29
-3.89
-4.15
-2.99
-1.34
-0.18
0.08
-0.26
-0.42
0.25
1.80
3.58
4.55
4.04
2.19
-0.09
-1.65
-1.76
-0.52
1.16
2.08
1.47
-0.52
-2.87
-4.20
-3.59
-1.17
1.98
4.38
5.08
4.17
2.61
1.72
2.29
4.16
6.29
7.35
6.54
4.02
0.83
-1.73
-2.83
-2.59
-2.02
-2.38
-4.40
-7.85
-11.68
-14.58
-15.80
-15.49
-14.57
-14.16
-14.76
-16.04
-17.03
-16.66
-14.49
-10.98
-7.19
-4.31
-2.90
-2.60
-2.32
-0.80
2.78
8.37
15.10
21.79
27.65
32.65
37.57
43.51
51.23
60.62
70.71
80.20
88.15
94.47
99.90
105.51
111.95
119.03
125.80
131.06
134.04
134.67
133.41
130.73
126.55
120.10
110.21
96.07
77.75
56.51
34.37
13.34
-5.39
-21.85
-36.98
-51.92
-67.17
-82.20
-95.67
-106.19
-113.05
-116.65
-118.11
-118.52
-118.19
-116.37
-111.74
-103.28
-91.10
-76.72
-62.57
-50.87
-42.44
-36.16
-29.34
-19.02
-3.45
16.90
39.54
61.07
78.61
90.82
97.91
100.90
100.77
97.64
90.81
79.71
64.71
47.45
30.16
14.32
-0.63
-17.38
-39.77
-70.87
-111.20
-158.37
-208.67
-259.55
-311.37
-366.71
-427.18
-490.50
-549.10
-591.99
-609.02
-595.40
-553.78
-492.91
-423.52
-353.16
-285.19
-219.41
-154.18
-88.15
-21.09
46.04
111.38
172.70
229.16
279.24
320.51
350.46
367.78
373.05
368.28
356.31
340.44
326.71
319.80
321.08
328.26
337.01
342.84
342.63
335.61
323.82
314.46
313.18
320.84
333.19
343.87
347.80
342.85
330.17
292.15
223.96
135.17
43.70
-36.67
-100.44
-146.55
-174.95
-186.63
-185.09
-173.48
-156.39
-139.26
-126.43
-118.96
-114.81
-111.29
-107.30
-103.76
-99.99
-96.07
-92.51
-89.70
-87.04
-83.37
-78.33
-72.94
-69.12
-66.68
-64.62
-61.80
-57.39
-51.03
-43.13
-35.15
-29.11
-26.49
-26.47
-27.01
-25.91
-22.02
-15.74
-8.81
-3.61
-1.91
-3.96
-8.08
-11.75
-13.04
-11.62
-8.77
-6.59
-6.68
-9.34
-13.42
-16.95
-18.32
-17.16
-14.44
-11.92
-10.89
-11.57
-12.95
-13.47
-12.00
-8.61
-4.58
-1.79
-1.55
-3.84
-7.32
-9.94
-10.14
-7.77
-4.13
-1.31
-0.81
-2.71
-5.59
-7.30
-6.26
-2.39
2.75
6.88
8.35
6.99
4.15
1.86
1.61
3.48
6.19
7.84
7.19
4.34
0.62
-2.11
-2.62
-0.98
1.54
3.17
2.87
0.87
-1.41
-2.13
-0.19
4.12
9.18
12.92
14.09
12.97
11.23
11.06
13.71
18.68
23.78
26.20
24.08
17.51
8.62
0.54
-4.21
-4.91
-2.88
-0.52
0.17
-1.24
-3.51
-4.60
-3.19
0.36
3.98
5.10
2.25
-4.06
-11.49
-17.15
-19.29
-18.24
-16.16
-15.56
-17.79
-22.22
-26.62
-28.59
-27.11
-23.15
-19.16
-17.47
-18.91
-22.30
-25.09
-24.90
-20.90
-14.36
-7.99
-4.32
-4.36
-7.11
-10.14
-11.00
-8.67
-4.05
0.59
3.14
2.93
1.05
-0.27
0.88
4.72
9.61
12.90
12.66
8.83
3.32
-0.92
-1.65
1.41
6.42
10.45
11.23
8.31
3.28
-1.15
-2.71
-0.89
2.85
5.85
5.91
2.50
-2.99
-7.97
-10.22
-9.16
-6.06
-3.37
-2.98
-5.24
-8.80
-11.42
-11.49
-9.07
-5.89
-4.31
-5.73
-9.67
-14.01
-16.05
-14.12
-8.61
-1.71
3.70
5.84
4.80
2.45
1.27
2.85
6.97
11.85
15.17
15.64
13.70
11.30
10.83
13.70
19.50
26.12
30.90
32.12
29.84
25.81
22.47
21.53
23.10
25.72
27.30
26.57
23.73
20.41
18.74
19.97
23.72
28.11
30.76
30.11
26.19
20.56
15.40
12.21
11.05
10.62
9.15
5.63
0.48
-4.59
-7.61
-7.55
-4.98
-1.81
-0.20
-1.31
-4.74
-8.69
-11.14
-11.00
-8.75
-6.10
-4.90
-6.03
-8.93
-11.95
-13.41
-12.68
-10.54
-8.66
-8.56
-10.64
-13.99
-16.88
-17.85
-16.58
-14.01
-11.80
-11.20
-12.34
-14.17
-15.06
-13.83
-10.52
-6.38
-3.26
-2.46
-4.09
-6.95
-9.24
-9.57
-7.73
-4.79
-2.44
-1.90
-3.29
-5.61
-7.31
-7.30
-5.60
-3.30
-1.91
-2.39
-4.55
-7.20
-8.77
-8.24
-5.79
-2.68
-0.57
-0.56
-2.61
-5.62
-7.95
-8.41
-6.86
-4.25
-2.15
-1.75
-3.35
-6.20
-8.87
-10.02
-9.02
-6.16
-2.40
1.35
4.58
7.37
10.15
13.28
16.72
20.19
23.43
26.69
30.73
36.44
44.39
54.24
64.75
74.33
81.77
87.12
92.03
99.43
112.48
132.85
159.04
185.81
205.31
210.01
196.02
165.21
124.81
84.44
52.07
31.12
20.17
15.08
11.82
8.37
4.53
0.39
-5.02
-13.66
-27.01
-44.39
-62.51
-76.80
-83.53
-81.80
-73.81
-63.55
-54.78
-49.30
-46.47
-44.08
-39.89
-33.00
-24.37
-16.30
-11.08
-9.73
-11.46
-13.93
-14.64
-12.29
-7.60
-3.06
-1.43
-4.21
-10.74
-18.38
-23.77
-24.48
-20.08
-12.33
-4.24
1.36
2.99
1.15
-2.13
-4.61
-5.26
-4.99
-6.08
-10.82
-19.94
-31.77
-42.93
-50.08
-51.67
-48.85
-44.46
-41.24
-40.16
-39.78
-37.36
-30.86
-20.57
-9.29
-0.95
1.54
-2.17
-9.72
-17.50
-22.76
-24.94
-25.70
-27.33
-31.11
-36.43
-41.14
-43.03
-41.21
-36.61
-31.49
-28.02
-27.25
-28.72
-30.91
-32.22
-31.84
-30.08
-28.15
-27.37
-28.53
-31.44
-34.99
-37.73
-38.60
-37.48
-35.24
-33.11
-32.01
-31.95
-32.01
-30.91
-27.88
-23.08
-17.56
-12.48
-8.41
-4.94
-0.93
4.59
11.56
18.69
23.82
25.07
21.65
14.32
5.10
-3.59
-9.95
-13.33
-14.19
-13.41
-11.59
-8.64
-3.98
2.51
9.85
15.75
17.45
13.15
3.04
-10.41
-23.48
-32.95
-37.58
-38.60
-38.77
-40.75
-45.74
-52.98
-60.50
-66.49
-70.44
-73.18
-76.00
-79.36
-82.17
-82.15
-77.27
-67.31
-54.46
-42.55
-34.87
-32.23
-32.55
-31.99
-27.32
-18.01
-6.44
3.48
8.79
9.27
7.48
7.31
11.74
21.35
34.38
47.90
59.49
68.03
73.54
76.48
77.10
75.48
71.83
66.61
60.38
53.11
43.90
31.47
15.20
-4.08
-24.20
-42.77
-58.62
-72.65
-87.14
-104.08
-123.63
-143.69
-160.98
-172.82
-178.22
-177.74
-172.39
-162.59
-148.38
-130.43
-110.98
-93.69
-81.81
-76.00
-73.26
-67.94
-54.50
-30.18
3.88
43.63
84.73
124.50
162.23
197.93
230.53
257.05
273.52
277.30
268.84
252.09
233.12
217.74
208.99
206.04
204.67
199.22
185.15
160.57
126.71
87.22
46.32
7.01
-30.08
-67.07
-107.83
-155.94
-213.48
-279.98
-352.27
-424.99
-491.81
-546.80
-585.56
-605.58
-605.05
-584.07
-544.87
-491.74
-429.92
-364.67
-300.28
-239.64
-183.77
-129.50
-73.09
-12.26
52.92
121.14
190.98
261.24
330.37
395.98
458.33
515.67
563.82
597.81
615.31
618.47
612.52
602.47
590.78
581.74
576.48
573.09
568.19
560.01
549.63
538.94
528.29
485.94
395.18
263.30
119.05
-8.47
-104.93
-170.46
-212.80
-241.27
-262.91
-275.87
-276.58
-263.89
-241.29
-215.01
-191.61
-175.03
-167.34
-167.99
-170.51
-168.41
-158.57
-142.83
-125.90
-112.36
-104.82
-103.33
-105.75
-106.69
-102.21
-91.09
-76.20
-62.10
-52.41
-48.10
-47.81
-48.84
-47.47
-41.86
-32.97
-24.01
-18.27
-17.02
-19.15
-22.09
-23.24
-21.01
-15.84
-9.90
-5.91
-5.40
-7.93
-11.50
-13.81
-13.63
-11.44
-8.97
-8.12
-9.85
-13.57
-17.47
-19.52
-18.72
-15.58
-11.85
-9.49
-9.48
-11.38
-13.60
-14.31
-12.62
-9.08
-5.39
-3.41
-4.05
-6.81
-10.07
-12.06
-11.92
-10.18
-8.40
-8.11
-9.82
-12.68
-14.90
-14.86
-12.16
-7.93
-4.22
-2.79
-4.06
-6.91
-9.38
-9.89
-8.26
-5.80
-4.45
-5.48
-8.58
-12.02
-13.48
-11.44
-6.05
0.96
7.18
10.89
11.91
11.52
11.78
14.25
19.20
25.41
30.90
34.17
35.02
34.61
34.86
37.20
41.66
46.73
50.11
50.17
46.84
41.71
37.12
34.88
35.10
36.29
36.17
33.22
27.53
20.69
14.92
11.72
11.04
11.42
10.86
8.14
3.40
-2.02
-6.45
-8.96
-9.94
-10.76
-12.99
-17.27
-22.95
-28.43
-31.94
-32.59
-30.74
-27.80
-25.45
-24.68
-25.35
-26.37
-26.37
-24.53
-21.11
-17.25
-14.42
-13.43
-14.05
-15.14
-15.29
-13.75
-10.86
-7.90
-6.38
-7.04
-9.39
-11.95
-12.98
-11.55
-8.06
-4.06
-1.44
-1.31
-3.48
-6.56
-8.77
-9.04
-7.57
-5.69
-5.02
-6.41
-9.44
-12.65
-14.39
-13.83
-11.50
-8.94
-7.84
-9.00
-11.92
-15.04
-16.67
-15.91
-13.21
-10.00
-7.86
-7.54
-8.67
-9.94
-10.04
-8.50
-5.96
-3.82
-3.28
-4.59
-6.93
-8.92
-9.46
-8.45
-6.75
-5.65
-5.89
-7.27
-8.73
-9.07
-7.79
-5.55
-3.76
-3.79
-5.89
-8.89
-10.71
-9.37
-4.18
3.78
12.19
18.61
21.84
22.53
22.82
25.42
32.55
45.13
62.28
81.30
98.05
107.93
107.27
94.87
72.69
45.28
18.17
-4.27
-19.99
-29.45
-34.45
-36.80
-37.52
-36.99
-35.66
-34.49
-34.65
-36.88
-40.85
-45.11
-47.82
-47.73
-44.67
-39.61
-33.98
-28.90
-24.64
-20.62
-16.00
-10.42
-4.40
0.75
3.68
3.77
1.53
-1.58
-4.06
-5.14
-5.21
-5.40
-6.68
-9.12
-11.70
-12.86
-11.46
-7.51
-2.16
2.96
6.69
8.97
10.65
12.84
16.07
19.84
22.83
23.73
21.95
17.99
13.20
9.18
6.98
6.78
7.85
9.10
9.64
9.11
7.87
6.60
5.84
5.60
5.34
4.34
2.22
-0.79
-3.76
-5.63
-5.87
-4.86
-3.77
-3.89
-5.84
-9.21
-12.67
-14.80
-14.94
-13.59
-12.14
-11.93
-13.42
-15.81
-17.40
-16.60
-12.84
-6.93
-0.60
4.51
7.73
9.59
11.34
14.02
17.69
21.34
23.47
23.20
20.82
17.77
15.85
16.23
18.69
21.75
23.45
22.56
19.22
14.85
11.40
10.17
11.16
13.15
14.44
13.97
11.86
9.13
7.05
6.23
6.22
5.83
3.86
-0.07
-5.31
-10.57
-14.58
-16.84
-17.80
-18.51
-19.89
-22.05
-24.21
-25.15
-23.86
-20.26
-15.31
-10.52
-7.15
-5.46
-4.62
-3.20
-0.09
4.70
10.01
14.08
15.57
14.38
11.68
9.32
8.80
10.49
13.42
15.87
16.27
14.05
9.91
5.40
2.11
0.78
1.09
1.97
2.39
2.05
1.53
1.84
3.71
6.96
10.43
12.51
12.01
8.82
3.97
-0.78
-3.85
-4.50
-3.15
-1.09
0.20
-0.14
-2.03
-4.49
-6.23
-6.48
-5.42
-4.10
-3.72
-4.94
-7.59
-10.83
-13.93
-16.78
-19.92
-24.10
-29.65
-36.18
-42.89
-49.09
-54.71
-60.39
-67.17
-75.96
-86.91
-99.36
-111.91
-122.74
-130.04
-132.55
-129.95
-123.15
-113.89
-104.10
-94.90
-85.91
-75.51
-61.86
-44.17
-23.49
-2.25
16.85
32.16
43.82
53.17
61.62
69.55
76.15
80.30
81.67
81.31
81.31
83.52
88.41
94.71
100.03
102.45
101.51
98.45
95.43
94.14
94.76
95.85
95.24
91.46
84.69
76.72
70.02
66.29
65.43
65.67
64.54
60.53
53.87
46.46
40.73
38.07
37.98
38.30
36.50
31.28
23.39
15.19
9.39
7.46
8.79
11.26
12.52
11.60
9.40
8.10
9.75
14.87
21.96
28.26
31.25
30.05
25.82
21.08
18.33
18.75
21.68
25.11
26.85
25.79
22.31
18.01
14.66
13.13
12.93
12.54
10.34
5.64
-0.91
-7.68
-12.98
-16.13
-17.78
-19.55
-22.94
-28.43
-35.16
-41.39
-45.49
-46.94
-46.61
-46.30
-47.65
-51.21
-56.13
-60.62
-62.95
-62.43
-59.74
-56.54
-54.41
-54.00
-54.75
-55.32
-54.44
-51.78
-48.12
-44.87
-43.06
-42.66
-42.50
-40.84
-36.35
-28.99
-20.12
-11.84
-5.85
-2.58
-1.04
0.56
3.70
8.54
13.84
17.62
18.51
16.58
13.37
11.10
11.34
13.98
17.38
19.19
17.92
13.80
8.64
4.88
4.15
6.29
9.42
11.04
9.57
5.24
-0.02
-3.67
-4.02
-1.29
2.59
5.00
4.32
0.81
-3.60
-6.35
-5.81
-2.18
2.71
6.51
7.82
6.91
5.47
5.57
8.39
13.45
18.98
22.89
24.07
22.97
21.33
21.17
23.59
28.13
32.99
35.98
35.85
32.92
28.93
26.12
25.87
27.99
30.72
31.76
29.63
24.47
18.01
12.61
9.83
9.51
9.92
8.84
4.98
-1.14
-7.45
-11.50
-12.02
-9.70
-6.83
-5.91
-8.13
-12.70
-17.26
-19.35
-17.89
-13.86
-9.75
-8.03
-9.69
-13.67
-17.37
-18.15
-14.86
-8.53
-1.79
2.69
3.61
1.68
-0.87
-1.76
-0.04
3.33
6.13
6.34
3.29
-1.93
-7.10
-10.21
-10.64
-9.47
-8.80
-10.28
-14.06
-18.62
-21.49
-20.82
-16.55
-10.56
-5.58
-3.36
-3.53
-3.74
-1.02
6.19
16.77
27.36
34.07
34.73
30.04
23.05
17.46
15.63
17.44
20.75
22.86
22.26
19.38
16.08
14.43
15.39
18.10
20.45
20.28
16.75
10.85
4.83
1.06
0.68
2.98
5.85
6.98
5.21
1.02
-3.76
-7.06
-7.69
-6.01
-3.61
-2.45
-3.75
-7.35
-11.96
-15.81
-17.74
-17.79
-17.13
-17.37
-19.48
-23.30
-27.54
-30.56
-31.28
-29.87
-27.62
-26.16
-26.51
-28.51
-30.89
-32.06
-31.09
-28.18
-24.68
-22.18
-21.67
-22.98
-24.86
-25.76
-24.80
-22.26
-19.49
-18.02
-18.66
-20.95
-23.40
-24.36
-23.04
-19.95
-16.70
-14.98
-15.58
-18.03
-20.78
-22.19
-21.53
-19.33
-17.03
-16.01
-16.75
-18.52
-19.88
-19.52
-17.22
-13.94
-11.34
-10.61
-11.80
-13.68
-14.37
-12.48
-7.94
-2.11
2.96
5.74
6.04
5.11
4.95
7.13
11.78
17.52
22.12
23.91
22.59
19.43
16.57
15.68
17.01
19.23
20.24
18.57
14.26
8.91
4.84
3.67
5.33
8.09
9.55
8.14
4.05
-0.82
-3.88
-3.35
0.71
6.47
11.31
13.45
12.79
10.93
10.11
11.81
15.82
20.38
23.27
23.24
20.83
17.99
17.03
19.16
23.73
28.57
31.21
30.37
26.64
22.05
19.04
18.98
21.52
24.87
26.83
26.09
22.85
18.61
15.27
13.99
14.61
15.76
15.75
13.65
9.79
5.53
2.53
1.72
2.74
4.23
4.55
2.80
-0.76
-4.87
-8.03
-9.35
-9.04
-8.26
-8.41
-10.28
-13.68
-17.52
-20.46
-21.78
-21.74
-21.43
-22.08
-24.21
-27.31
-30.06
-31.06
-29.71
-26.60
-23.22
-21.10
-20.99
-22.43
-24.08
-24.52
-23.07
-20.22
-17.28
-15.58
-15.67
-17.07
-18.53
-18.84
-17.64
-15.56
-13.88
-13.63
-14.93
-16.85
-17.99
-17.31
-14.87
-11.83
-9.86
-10.09
-12.49
-15.91
-18.67
-19.53
-18.44
-16.43
-15.10
-15.50
-17.60
-20.28
-21.97
-21.58
-19.20
-16.05
-13.80
-13.45
-14.69
-15.98
-15.25
-11.21
-4.10
4.32
11.63
16.17
17.88
18.39
20.18
25.09
33.35
43.32
52.35
58.25
60.34
59.80
58.91
59.87
63.70
70.09
77.99
86.66
95.85
105.18
113.11
116.51
111.43
95.05
67.65
33.39
-0.97
-28.72
-45.75
-51.94
-50.49
-45.91
-41.88
-39.96
-39.78
-39.99
-39.38
-37.59
-35.12
-32.90
-31.70
-31.55
-31.72
-31.04
-28.63
-24.53
-19.89
-16.56
-16.07
-18.67
-23.01
-26.70
-27.46
-24.45
-18.72
-12.71
-8.94
-8.59
-10.92
-13.76
-14.81
-13.00
-9.13
-5.29
-3.61
-4.94
-8.42
-11.96
-13.54
-12.43
-9.54
-6.87
-6.20
-8.06
-11.46
-14.49
-15.46
-14.02
-11.23
-8.98
-8.71
-10.60
-13.41
-15.22
-14.62
-11.53
-7.28
-3.83
-2.52
-3.37
-5.11
-5.88
-4.40
-0.77
3.65
6.88
7.64
5.95
3.11
0.94
0.67
2.24
4.39
5.45
4.51
1.93
-0.86
-2.23
-1.40
1.02
3.34
3.69
1.18
-3.61
-8.96
-12.80
-13.79
-11.92
-8.50
-5.39
-4.04
-4.90
-7.23
-9.65
-10.88
-10.47
-8.90
-7.26
-6.42
-6.42
-6.41
-5.12
-1.77
3.35
8.87
13.05
14.88
14.62
13.72
13.97
16.40
20.73
25.53
28.96
29.87
28.32
25.50
22.94
21.64
21.50
21.63
20.96
18.93
15.83
12.69
10.66
10.25
10.81
10.75
8.47
3.34
-4.00
-11.87
-18.17
-21.33
-20.96
-18.00
-14.17
-10.84
-8.42
-6.39
-3.66
0.85
7.83
17.35
29.08
40.58
49.39
54.01
54.05
49.83
41.84
30.74
17.92
5.51
-3.41
-7.89
-7.93
-4.70
-0.28
3.28
4.98
5.23
5.32
6.10
8.43
12.34
16.61
19.45
19.70
17.61
14.80
13.23
14.07
16.95
20.09
21.01
18.11
11.53
3.17
-4.37
-9.27
-11.35
-11.83
-12.52
-14.41
-16.98
-18.49
-16.94
-11.70
-4.13
3.19
7.83
8.94
7.50
5.42
4.00
2.62
-0.54
-8.19
-21.43
-38.09
-53.66
-63.82
-66.56
-62.73
-54.91
-46.21
-38.84
-33.44
-29.83
-27.78
-27.23
-28.05
-30.76
-33.11
-32.96
-28.72
-19.93
-7.55
6.30
19.00
28.15
32.39
31.83
27.41
20.66
13.36
7.06
2.58
1.00
1.96
4.15
6.05
6.26
4.25
0.60
-3.31
-5.83
-5.60
-2.03
4.74
13.81
23.40
31.23
35.06
33.45
26.54
16.25
5.71
-1.77
-3.97
-0.83
5.66
12.35
16.28
15.91
11.73
5.89
1.58
1.88
8.45
20.91
36.72
52.07
63.28
68.10
66.42
60.08
51.60
42.95
34.82
26.94
18.99
11.54
6.24
5.13
9.30
18.05
28.91
38.81
45.38
47.90
47.21
44.70
41.20
36.43
29.48
19.88
8.24
-3.72
-13.98
-21.33
-26.07
-29.68
-33.94
-39.74
-46.62
-53.15
-57.78
-59.72
-59.40
-58.13
-57.36
-57.75
-58.92
-59.75
-58.97
-56.00
-51.31
-46.27
-42.36
-40.27
-39.48
-38.51
-35.67
-30.09
-22.29
-13.97
-7.26
-3.45
-2.35
-2.50
-1.88
0.80
5.32
10.04
12.83
12.44
9.28
5.38
3.37
5.04
10.35
17.48
23.77
27.29
27.83
26.85
26.62
28.73
33.07
37.87
40.66
39.75
35.19
28.73
22.90
19.49
18.54
18.42
16.74
11.93
4.02
-5.34
-13.88
-20.06
-23.77
-26.26
-29.06
-32.90
-37.20
-40.36
-40.89
-38.49
-34.41
-30.87
-29.89
-31.99
-35.86
-39.07
-39.21
-35.17
-27.81
-19.54
-12.98
-9.64
-9.21
-9.81
-9.31
-6.34
-0.92
5.75
12.11
17.19
20.90
23.94
26.95
29.31
29.55
26.19
18.87
9.03
-0.15
-4.95
-2.68
6.94
20.57
33.62
42.67
46.47
45.79
42.75
39.08
35.67
32.36
26.44
16.62
4.36
-7.16
-15.22
-18.57
-18.75
-18.31
-19.83
-27.78
-43.46
-63.81
-83.85
-100.35
-112.67
-123.66
-136.16
-151.16
-171.26
-195.46
-218.69
-235.34
-243.34
-243.71
-240.91
-238.25
-211.68
-153.21
-76.06
-2.62
53.48
84.73
100.60
107.62
110.10
110.69
107.94
100.02
87.64
73.17
58.42
45.52
35.34
29.82
31.24
37.81
47.29
58.64
71.43
84.63
97.48
108.64
118.18
126.92
133.45
136.30
135.06
130.33
122.98
114.56
106.30
99.59
95.19
91.78
87.61
81.87
74.94
67.68
60.93
54.32
46.72
36.86
24.09
9.62
-3.44
-11.40
-11.96
-5.46
4.86
14.35
18.69
15.49
4.80
-11.35
-30.11
-48.94
-66.26
-81.34
-93.73
-102.66
-106.98
-105.57
-98.10
-85.65
-70.64
-55.98
-43.87
-34.85
-27.65
-20.07
-10.34
1.72
14.52
25.45
32.38
34.73
33.75
31.81
31.16
32.67
35.60
38.08
38.29
35.57
30.70
25.57
22.05
20.90
21.35
21.54
19.67
15.06
8.54
2.06
-2.55
-4.67
-5.25
-6.24
-9.29
-14.74
-21.41
-27.13
-30.11
-30.01
-28.08
-26.49
-26.91
-29.53
-33.02
-35.14
-34.21
-30.08
-24.27
-19.15
-16.51
-16.61
-18.19
-19.25
-18.34
-15.54
-12.31
-10.60
-11.42
-14.14
-16.77
-16.95
-13.42
-6.78
0.70
6.29
8.34
7.13
4.60
3.34
5.01
9.45
14.81
18.57
19.14
16.66
12.88
10.22
10.30
13.05
16.91
19.73
20.24
18.71
16.79
16.47
18.77
22.98
27.00
28.42
26.09
20.77
14.78
10.88
10.57
13.31
16.77
18.15
15.86
10.43
4.11
-0.29
-1.12
1.24
4.67
6.49
5.16
1.05
-3.82
-6.87
-6.53
-3.09
1.38
4.17
3.48
-0.66
-6.34
-10.80
-12.00
-9.71
-5.62
-2.33
-1.77
-4.11
-7.69
-10.01
-9.43
-6.09
-1.94
0.56
-0.11
-3.54
-7.69
-10.10
-9.44
-6.29
-2.75
-1.17
-2.72
-6.74
-11.18
-13.87
-13.84
-11.87
-9.95
-9.95
-12.53
-16.69
-20.38
-21.69
-19.98
-16.22
-12.37
-10.14
-10.06
-11.19
-11.77
-10.29
-6.48
-1.47
2.78
4.72
4.04
1.88
0.23
0.72
3.63
7.68
10.69
10.93
8.17
3.83
0.28
-0.55
1.72
5.71
9.00
9.71
7.49
3.70
0.67
0.22
2.56
6.16
8.55
7.93
4.18
-0.98
-4.95
-5.70
-3.10
1.06
3.96
3.60
-0.14
-5.37
-9.22
-9.53
-6.18
-1.04
2.94
3.73
1.19
-2.85
-5.62
-5.17
-1.48
3.55
7.16
7.52
4.72
0.73
-1.78
-1.06
2.64
7.19
9.80
8.85
4.72
-0.33
-3.47
-3.04
0.51
4.85
7.10
5.73
1.34
-3.65
-6.33
-5.11
-0.62
4.61
7.58
6.60
2.21
-3.19
-6.71
-6.65
-3.49
0.48
2.54
1.28
-2.63
-6.82
-8.62
-6.70
-1.90
3.28
6.14
5.42
2.05
-1.46
-2.37
0.55
6.27
12.05
14.93
13.47
8.54
2.85
-0.53
0.05
3.87
8.37
10.64
9.17
4.70
-0.22
-2.81
-1.73
2.08
5.99
7.35
5.08
0.29
-4.36
-6.28
-4.54
-0.41
3.45
4.54
2.02
-2.90
-7.69
-9.96
-8.91
-5.67
-2.61
-1.71
-3.45
-6.52
-8.58
-7.75
-3.85
1.51
5.78
7.07
5.29
2.10
-0.02
0.68
4.13
8.47
11.12
10.47
6.77
1.99
-1.20
-1.10
2.06
6.23
8.74
7.97
4.27
-0.31
-3.06
-2.31
1.60
6.46
9.40
8.62
4.33
-1.36
-5.64
-6.58
-4.24
-0.57
1.73
0.88
-3.01
-7.99
-11.36
-11.29
-7.92
-3.19
0.20
0.57
-1.82
-5.03
-6.46
-4.62
0.04
5.33
8.50
8.02
4.37
-0.26
-3.12
-2.56
1.10
5.74
8.63
8.07
4.23
-0.91
-4.59
-4.94
-1.94
2.49
5.58
5.43
1.99
-2.83
-6.29
-6.50
-3.55
0.56
3.07
2.26
-1.62
-6.48
-9.62
-9.43
-6.28
-2.33
-0.22
-1.42
-5.46
-10.16
-12.77
-11.68
-7.18
-1.41
2.89
3.98
2.09
-0.73
-1.74
0.73
6.26
12.50
16.50
16.53
13.00
8.32
5.46
6.22
10.27
15.40
18.94
19.32
16.92
13.71
12.06
13.30
17.08
21.72
25.36
27.18
27.74
28.54
30.85
34.75
38.97
41.78
42.29
41.33
41.13
43.99
50.74
59.83
68.02
72.17
71.30
67.47
64.94
67.95
78.40
94.45
111.27
123.39
127.55
124.46
118.60
116.07
121.58
135.95
155.36
172.50
179.26
169.70
141.92
98.38
44.44
-13.38
-68.74
-116.12
-151.13
-171.41
-177.67
-174.07
-167.08
-162.79
-163.70
-167.43
-168.19
-160.92
-145.47
-127.87
-117.65
-122.39
-143.11
-173.38
-202.82
-222.84
-230.71
-229.79
-226.28
-224.72
-225.14
-223.46
-214.46
-195.35
-167.51
-135.58
-105.06
-79.85
-61.17
-47.93
-37.89
-29.07
-20.37
-11.88
-4.75
-0.62
-0.99
-6.26
-14.88
-23.41
-27.76
-25.05
-15.34
-1.77
11.10
19.50
22.33
21.38
20.01
21.00
24.98
30.41
34.94
37.37
38.09
38.34
39.05
40.29
41.43
41.65
40.64
38.90
38.29
40.59
46.31
54.24
62.08
67.44
68.80
66.20
61.50
58.52
60.83
69.87
84.26
101.02
117.13
130.83
141.94
146.30
140.97
126.44
105.44
79.83
50.34
18.77
-11.03
-33.61
-44.03
-39.14
-19.75
8.92
38.99
62.89
75.87
76.62
66.78
49.47
28.50
6.98
-13.20
-30.90
-44.90
-53.56
-55.45
-50.24
-39.33
-25.26
-11.34
-0.43
5.98
8.29
8.41
8.29
8.91
9.79
9.91
8.67
6.28
3.65
1.90
1.43
1.69
1.59
0.24
-2.22
-4.79
-6.19
-5.62
-3.32
-0.45
1.55
1.78
0.54
-1.12
-1.97
-1.19
1.00
3.42
4.59
3.69
1.19
-1.42
-2.68
-1.79
1.05
4.64
7.32
7.72
5.92
2.76
0.04
-0.69
1.17
5.12
9.65
12.82
13.40
11.81
9.61
8.86
10.19
12.62
14.24
13.03
7.99
-0.42
-10.09
-18.64
-21.77
-18.09
-11.22
-6.42
-5.63
-6.52
-6.64
-3.03
4.37
13.07
19.02
18.84
12.66
2.84
-6.64
-12.13
-11.73
-6.46
0.69
5.95
7.12
4.74
1.38
-0.03
1.98
7.04
13.23
18.40
21.11
21.31
20.25
19.38
19.44
20.02
20.13
18.94
16.22
12.28
7.59
2.52
-3.16
-10.03
-18.54
-28.32
-38.01
-45.91
-51.03
-53.40
-53.98
-54.32
-55.71
-58.53
-62.07
-64.70
-65.08
-62.97
-59.19
-54.97
-51.52
-49.31
-47.77
-45.41
-39.86
-29.33
-13.91
4.56
23.24
38.97
49.30
54.49
55.34
55.46
59.31
68.19
80.33
93.34
105.36
116.51
127.12
137.01
145.58
151.67
152.62
145.01
130.04
111.94
96.02
86.63
85.96
93.43
104.99
111.54
104.19
78.22
34.36
-22.57
-85.52
-147.08
-200.14
-238.61
-261.13
-267.67
-258.80
-237.19
-209.32
-184.05
-169.79
-170.28
-165.17
-140.61
-96.58
-45.13
2.06
39.79
68.76
91.57
111.15
128.53
139.77
141.11
131.27
114.82
97.28
83.17
73.55
67.36
61.96
51.85
32.91
4.42
-32.35
-77.66
-124.34
-168.42
-204.93
-228.68
-237.99
-235.03
-224.43
-211.97
-202.00
-194.17
-184.47
-167.27
-140.41
-108.61
-80.67
-62.65
-55.28
-53.64
-49.30
-35.47
-9.55
25.54
63.28
97.35
126.39
151.55
174.09
194.26
210.85
222.40
228.00
228.23
213.52
183.80
148.56
118.71
98.28
84.54
72.91
60.21
45.61
30.19
17.63
10.24
7.71
7.89
8.55
8.19
6.04
2.13
-2.83
-6.39
-6.88
-4.43
-0.39
3.84
7.17
9.04
9.45
9.04
10.41
15.31
24.41
37.10
51.49
64.48
72.16
71.09
59.45
38.37
11.54
-16.09
-38.87
-51.85
-52.65
-42.58
-26.05
-9.42
1.54
3.34
-4.86
-21.12
-42.24
-65.17
-87.77
-108.06
-124.95
-138.86
-147.90
-153.04
-156.07
-158.08
-158.53
-155.43
-145.35
-126.59
-100.12
-68.72
-35.73
-2.99
28.84
59.22
87.00
111.86
133.12
150.25
163.32
173.10
181.38
190.21
201.39
206.31
199.87
181.85
155.60
124.45
90.18
54.52
20.01
-10.61
-35.58
-53.04
-63.07
-67.88
-70.80
-74.53
-79.36
-84.14
-84.96
-78.57
-62.98
-39.64
-13.39
9.78
25.57
33.08
34.39
32.82
30.55
28.53
25.99
21.60
14.78
6.06
-2.67
-10.08
-16.37
-23.33
-32.50
-44.25
-57.07
-68.18
-74.73
-75.05
-69.48
-59.85
-48.52
-37.05
-25.97
-15.18
-4.75
4.67
11.77
15.03
13.54
7.69
-0.67
-8.74
-13.75
-14.07
-10.02
-3.62
2.22
5.17
4.56
1.57
-1.51
-2.66
-1.44
0.79
1.67
-0.53
-5.73
-11.89
-16.11
-16.41
-13.06
-8.54
-6.26
-8.40
-14.72
-22.56
-28.20
-28.93
-24.43
-16.78
-9.17
-4.00
-1.78
-1.14
0.15
3.75
9.87
17.34
24.38
29.81
33.51
36.36
39.47
43.32
47.18
49.41
48.23
42.96
34.54
25.33
18.15
14.81
15.18
17.29
18.40
16.68
12.15
6.62
2.58
1.64
3.52
6.29
7.53
5.85
1.64
-3.21
-6.41
-6.66
-4.39
-1.45
-0.09
-1.50
-5.24
-9.46
-11.94
-11.35
-8.12
-4.11
-1.63
-1.92
-4.47
-7.21
-7.64
-4.47
1.57
7.89
11.43
10.37
5.10
-2.02
-7.97
-10.82
-10.63
-9.23
-8.82
-10.34
-12.79
-13.78
-10.99
-3.88
5.86
15.09
21.08
23.23
23.41
24.92
30.45
40.26
51.70
60.58
63.31
58.93
49.42
38.67
30.37
26.10
24.80
23.72
20.25
13.48
4.51
-4.23
-10.58
-13.87
-15.19
-16.62
-19.82
-25.05
-31.04
-35.70
-37.37
-35.83
-32.41
-29.33
-28.34
-29.81
-32.56
-34.49
-33.78
-30.06
-24.56
-19.56
-17.02
-17.49
-19.92
-22.26
-22.70
-20.76
-17.53
-14.91
-14.40
-16.15
-18.95
-20.89
-20.60
-18.12
-14.93
-13.11
-14.03
-17.55
-22.07
-25.29
-25.54
-22.81
-18.69
-15.58
-15.09
-17.19
-20.09
-21.35
-19.31
-14.26
-8.20
-3.80
-2.70
-4.64
-7.60
-9.06
-7.51
-3.27
1.68
4.97
5.20
2.67
-0.87
-3.22
-2.99
-0.25
3.58
6.63
7.68
6.75
5.02
4.14
5.16
7.95
11.24
13.38
13.41
11.63
9.53
8.95
10.97
15.15
19.74
22.57
22.38
19.39
15.21
11.79
10.23
10.17
10.13
8.56
4.94
0.23
-3.72
-5.18
-3.73
-0.48
2.48
3.32
1.55
-1.78
-4.56
-4.97
-2.46
1.83
5.76
7.38
6.04
2.69
-0.71
-2.32
-1.58
0.61
2.44
2.48
0.57
-2.11
-3.73
-3.01
-0.07
3.53
5.69
4.98
1.49
-3.27
-7.16
-8.56
-7.35
-4.83
-2.97
-3.19
-5.60
-9.01
-11.67
-12.28
-10.83
-8.47
-6.90
-7.15
-8.97
-10.96
-11.30
-8.86
-3.97
1.73
6.08
7.68
6.58
4.20
2.59
3.19
6.09
10.07
13.30
14.53
13.76
12.10
11.22
12.31
15.47
19.76
23.75
26.38
27.45
27.51
27.49
28.19
29.93
32.69
36.24
40.53
45.61
51.39
57.65
63.77
68.91
72.43
74.09
74.55
75.49
79.47
89.15
105.74
127.61
149.88
165.89
170.12
161.22
143.23
124.29
112.85
113.52
124.75
139.63
149.54
148.49
135.71
115.53
94.49
77.97
67.90
62.91
60.14
57.35
54.22
52.31
53.39
57.79
63.62
67.45
66.24
59.06
47.64
35.26
24.51
15.87
7.83
-1.42
-11.90
-20.97
-24.66
-20.36
-9.36
2.85
8.89
3.45
-13.67
-37.03
-57.71
-67.10
-60.17
-36.98
-2.40
35.71
68.76
89.79
95.20
85.41
64.05
35.95
5.36
-25.13
-54.41
-81.81
-106.27
-126.89
-144.04
-160.14
-178.83
-202.41
-229.89
-256.77
-277.17
-287.09
-286.27
-277.70
-265.24
-250.79
-233.53
-211.38
-183.48
-152.30
-123.80
-105.58
-104.08
-121.67
-155.28
-196.90
-235.86
-262.46
-271.62
-264.91
-249.65
-235.02
-227.44
-227.44
-230.12
-228.80
-219.46
-203.24
-185.83
-173.66
-169.92
-172.72
-176.27
-174.16
-162.75
-142.66
-118.20
-94.81
-76.35
-63.32
-52.69
-39.30
-17.91
14.83
59.17
112.35
169.03
222.11
264.15
288.49
291.27
273.62
242.39
208.67
183.39
172.58
174.46
180.97
181.98
170.65
146.48
114.25
79.86
45.73
9.11
-36.18
-95.05
-168.86
-254.48
-345.11
-432.01
-506.48
-561.77
-594.38
-604.38
-592.88
-563.70
-522.79
-476.40
-428.80
-381.88
-336.44
-293.35
-253.65
-213.55
-169.52
-120.60
-68.27
-14.31
40.33
94.89
148.02
198.10
250.85
310.45
375.88
441.89
503.84
560.20
611.40
658.50
702.76
754.99
822.84
904.60
989.23
1062.92
1114.47
1137.31
1130.18
1040.66
852.59
598.65
340.70
124.80
-36.38
-150.25
-228.23
-278.86
-308.09
-313.26
-296.02
-265.50
-235.57
-216.11
-208.91
-209.87
-213.55
-216.43
-210.91
-194.16
-170.50
-148.37
-133.70
-126.89
-124.65
-123.51
-121.98
-116.35
-105.74
-92.68
-81.48
-74.44
-70.64
-67.74
-64.26
-60.61
-56.37
-51.68
-47.36
-44.16
-41.78
-39.29
-36.39
-34.05
-33.94
-36.23
-39.78
-42.66
-43.06
-40.11
-34.51
-28.42
-24.53
-24.58
-28.38
-33.93
-38.36
-39.54
-37.14
-32.67
-28.65
-26.93
-27.80
-29.82
-30.81
-29.26
-25.39
-21.06
-18.66
-19.57
-23.21
-27.27
-28.89
-26.41
-20.35
-13.18
-8.02
-6.88
-9.63
-14.14
-17.54
-17.96
-15.51
-12.10
-10.12
-10.90
-13.84
-16.72
-17.08
-13.76
-7.75
-1.68
1.67
1.05
-2.65
-6.92
-9.19
-8.43
-5.55
-2.71
-1.65
-2.49
-3.61
-2.68
1.75
9.11
16.99
22.56
24.28
22.97
21.20
21.86
26.40
33.94
41.91
47.59
49.74
49.11
47.71
47.49
49.08
51.51
53.01
52.14
48.84
44.35
40.49
38.64
39.02
40.64
41.85
41.12
37.85
32.54
26.40
20.86
16.74
13.90
11.34
7.82
2.80
-3.17
-8.67
-12.09
-12.65
-10.97
-8.83
-8.32
-10.58
-15.19
-20.37
-23.90
-24.45
-22.26
-19.06
-17.09
-17.69
-20.65
-24.30
-26.48
-25.77
-22.35
-17.84
-14.39
-13.36
-14.66
-16.87
-18.06
-17.07
-14.15
-10.80
-8.87
-9.33
-11.71
-14.37
-15.42
-13.96
-10.64
-7.31
-5.92
-7.32
-10.78
-14.42
-16.28
-15.49
-12.75
-9.80
-8.39
-9.08
-11.01
-12.37
-11.50
-7.98
-2.93
1.53
3.52
2.52
-0.31
-2.72
-2.63
0.63
5.88
10.73
12.94
11.73
8.17
4.69
3.63
5.95
10.67
15.40
17.76
16.73
13.18
9.43
7.95
9.90
14.58
19.74
22.95
22.95
20.37
17.26
15.92
17.48
21.32
25.63
28.79
30.55
31.96
34.36
37.79
40.17
38.16
29.03
12.88
-6.87
-24.83
-36.13
-38.89
-34.91
-28.41
-23.57
-22.36
-23.95
-25.82
-25.54
-22.37
-17.51
-13.22
-11.35
-12.10
-13.95
-14.36
-11.35
-4.57
4.28
12.24
16.43
15.66
10.91
4.94
0.97
1.09
5.27
11.53
16.98
19.50
18.67
15.83
13.17
12.41
13.79
16.12
17.66
17.42
15.70
13.86
13.32
14.49
16.47
17.57
16.46
13.16
9.08
6.29
6.38
9.50
14.27
18.50
20.34
19.35
16.65
14.28
14.07
16.50
20.32
23.19
22.93
19.00
12.84
7.22
4.79
6.34
10.30
13.43
12.66
6.96
-2.10
-11.18
-17.06
-18.32
-15.99
-12.71
-11.13
-12.41
-15.86
-19.59
-21.71
-21.43
-19.38
-17.17
-16.41
-17.86
-21.08
-24.85
-27.82
-29.36
-29.95
-30.84
-33.23
-37.34
-42.11
-45.58
-45.91
-42.39
-35.75
-27.77
-20.24
-14.15
-9.52
-5.74
-2.27
0.83
2.89
3.00
0.72
-3.54
-8.55
-12.61
-14.32
-13.28
-10.40
-7.55
-6.55
-8.27
-12.04
-15.95
-17.81
-16.50
-12.53
-7.68
-3.84
-1.81
-0.86
0.75
4.47
10.37
16.90
21.64
22.77
20.16
15.40
11.03
9.11
10.03
12.43
14.04
13.24
10.02
6.09
4.08
5.97
11.93
20.16
27.58
31.56
30.95
26.44
20.03
13.83
8.96
5.33
2.02
-1.69
-5.69
-9.09
-10.63
-9.58
-6.29
-2.17
0.93
1.87
0.82
-0.76
-0.86
1.96
7.67
14.68
20.56
23.40
22.70
19.47
15.67
12.96
11.85
11.57
10.68
8.20
4.14
-0.52
-4.33
-6.26
-6.11
-4.51
-2.58
-1.23
-0.86
-1.31
-2.08
-2.80
-3.64
-5.19
-7.98
-11.60
-14.52
-14.57
-10.24
-2.04
7.21
13.48
13.69
7.74
-1.03
-7.15
-5.57
5.71
24.79
46.86
66.54
80.12
86.49
86.77
83.10
77.44
70.89
63.75
55.80
46.79
36.81
26.43
16.62
8.23
1.51
-4.49
-11.70
-22.37
-38.04
-58.46
-81.23
-102.67
-119.09
-128.13
-129.40
-124.15
-114.50
-102.43
-89.30
-76.05
-63.40
-52.12
-43.02
-36.80
-33.73
-33.53
-35.35
-38.17
-40.90
-42.48
-41.97
-38.95
-33.62
-26.53
-18.07
-7.99
4.45
19.43
35.64
50.00
58.86
60.18
55.04
47.38
42.20
43.06
50.92
64.48
81.73
101.30
122.21
142.46
158.11
164.36
157.78
138.63
111.40
82.87
58.69
40.42
24.96
6.49
-20.11
-57.24
-104.21
-158.38
-217.25
-279.96
-347.51
-421.38
-501.07
-581.78
-655.01
-710.76
-741.04
-742.85
-719.16
-677.58
-627.03
-574.38
-521.19
-466.15
-407.81
-346.70
-285.30
-226.52
-172.10
-121.69
-73.12
-20.71
39.14
105.95
175.07
240.63
298.42
346.95
387.43
423.20
463.18
514.16
577.19
646.71
713.67
769.07
806.37
822.75
819.25
805.79
791.11
778.36
764.75
746.11
721.22
692.45
663.84
600.47
485.08
325.97
153.61
-1.65
-123.71
-209.32
-262.71
-291.85
-306.17
-307.76
-297.66
-277.61
-251.85
-225.52
-203.14
-188.25
-182.93
-186.91
-192.51
-192.19
-182.47
-164.92
-144.29
-125.85
-113.60
-108.98
-110.62
-112.29
-108.62
-98.06
-83.50
-69.74
-60.44
-56.59
-56.56
-57.49
-55.40
-48.51
-38.13
-27.89
-21.45
-20.40
-23.76
-28.82
-32.57
-32.73
-29.24
-24.09
-20.20
-19.64
-22.54
-27.24
-31.33
-33.08
-32.39
-30.67
-29.95
-31.49
-35.10
-39.30
-42.08
-42.19
-39.74
-36.09
-32.99
-31.45
-31.25
-31.29
-30.31
-27.87
-24.62
-21.93
-21.02
-22.05
-23.96
-25.00
-23.55
-19.06
-12.36
-5.28
0.19
3.00
3.43
2.92
3.26
5.47
9.16
12.64
13.80
11.47
6.13
-0.17
-4.88
-6.39
-4.91
-2.37
-1.25
-3.01
-7.34
-12.27
-15.40
-15.40
-12.85
-9.90
-9.08
-11.57
-16.51
-21.37
-23.39
-21.37
-16.50
-11.80
-10.46
-13.73
-20.06
-25.82
-27.21
-22.48
-12.93
-2.28
5.47
8.31
7.18
5.33
6.32
11.84
20.75
29.80
35.61
36.64
33.95
30.58
29.61
32.32
37.49
42.15
43.49
40.52
34.69
29.09
26.62
28.25
32.53
36.41
37.06
33.48
26.95
20.30
16.16
15.46
16.92
17.88
16.11
11.26
5.15
0.97
1.40
6.95
15.57
23.51
27.50
26.35
21.54
16.37
13.92
15.29
19.03
22.08
21.85
17.68
11.16
5.05
1.33
-0.28
-2.19
-7.48
-17.51
-30.68
-42.75
-48.80
-46.00
-35.39
-21.63
-10.86
-7.44
-11.76
-20.18
-26.89
-27.10
-19.39
-6.23
7.63
18.07
23.66
26.00
28.39
33.39
40.98
48.60
52.63
50.95
44.30
35.98
29.99
28.66
31.18
34.24
34.07
28.91
20.11
11.32
6.28
6.61
10.87
15.54
17.04
13.83
7.05
-0.38
-5.43
-6.68
-4.86
-2.14
-0.85
-2.09
-5.35
-8.97
-11.27
-11.52
-10.39
-9.47
-10.37
-13.65
-18.50
-23.09
-25.56
-25.04
-22.14
-18.66
-16.54
-16.87
-19.30
-22.38
-24.37
-24.40
-22.90
-21.42
-21.66
-24.34
-28.81
-33.27
-35.86
-35.74
-33.62
-31.33
-30.68
-32.36
-35.51
-38.20
-38.61
-36.16
-31.83
-27.64
-25.32
-25.39
-26.85
-27.79
-26.55
-22.75
-17.43
-12.55
-9.83
-9.88
-12.05
-14.75
-16.46
-16.57
-15.55
-14.55
-14.43
-15.08
-15.44
-13.95
-9.65
-2.98
4.19
9.34
10.68
8.12
3.35
-0.94
-2.50
-0.67
3.37
7.44
9.77
9.98
9.06
8.68
9.85
12.20
14.23
14.25
11.71
7.64
4.18
3.52
6.60
12.49
18.96
23.56
25.12
24.26
23.11
24.08
28.48
35.67
43.31
48.54
49.63
46.77
41.90
37.64
35.76
36.36
38.04
38.83
37.57
34.41
30.46
27.03
24.63
22.68
19.95
15.40
9.02
1.90
-4.20
-7.77
-8.39
-7.04
-5.66
-6.19
-9.43
-14.70
-20.09
-23.51
-23.95
-21.99
-19.55
-18.73
-20.51
-24.19
-27.77
-29.17
-27.50
-23.57
-19.41
-17.02
-17.18
-19.08
-20.84
-20.69
-18.03
-13.80
-9.92
-8.13
-8.96
-11.47
-13.71
-13.88
-11.37
-7.09
-3.00
-0.92
-1.48
-3.80
-5.95
-6.08
-3.55
0.80
5.13
7.83
8.38
7.64
7.30
8.91
12.92
18.60
24.37
28.83
31.41
32.58
33.55
35.54
39.14
44.06
49.38
54.26
58.50
62.63
67.70
74.48
82.80
91.49
98.82
103.66
106.36
108.98
114.53
125.15
140.38
156.66
168.56
171.45
163.92
148.67
131.43
118.17
112.38
113.99
120.34
128.57
137.23
146.49
156.77
166.83
172.93
169.88
153.47
123.12
82.89
40.20
3.15
-22.88
-37.13
-43.10
-46.00
-49.80
-55.30
-60.60
-63.21
-62.64
-61.70
-65.40
-78.24
-101.48
-132.57
-166.95
-200.70
-232.47
-262.80
-291.75
-316.55
-331.38
-330.12
-310.19
-274.72
-231.69
-190.16
-156.14
-130.80
-111.84
-96.77
-85.38
-79.49
-80.58
-87.36
-95.53
-99.84
-97.14
-88.01
-75.94
-64.74
-56.12
-49.08
-41.27
-30.99
-18.26
-4.83
7.09
16.01
21.30
22.79
20.25
13.76
4.42
-5.34
-12.43
-14.55
-11.60
-5.82
-0.59
1.44
-0.29
-4.17
-7.67
-9.01
-8.10
-6.39
-5.81
-7.42
-10.78
-14.14
-15.30
-12.85
-7.20
-0.76
2.77
0.27
-8.93
-22.20
-34.36
-40.24
-37.46
-27.87
-16.50
-8.38
-5.64
-6.42
-6.53
-2.59
5.23
13.03
15.47
9.27
-4.60
-21.36
-35.03
-41.98
-42.83
-41.70
-43.50
-50.67
-61.74
-72.32
-77.79
-76.05
-68.68
-59.77
-53.48
-51.57
-52.86
-54.41
-53.43
-48.68
-40.51
-29.99
-18.10
-5.49
7.06
18.12
25.96
29.24
27.77
22.51
14.66
5.12
-5.59
-16.48
-25.21
-28.56
-24.16
-12.34
3.37
17.86
27.17
30.57
30.72
31.40
34.66
39.24
41.34
37.40
26.64
11.82
-2.48
-12.77
-18.65
-22.42
-26.83
-32.48
-37.16
-37.33
-30.88
-19.14
-6.54
1.94
3.76
0.51
-3.07
-1.93
6.58
21.51
39.29
55.88
68.60
77.00
82.37
86.67
91.48
97.55
104.86
112.74
120.19
126.16
129.91
131.34
130.91
129.38
127.29
124.76
121.68
118.08
114.53
112.32
113.02
117.57
125.34
133.88
139.64
139.45
132.20
119.22
103.10
85.60
66.28
42.70
12.22
-26.19
-71.11
-119.20
-167.38
-214.26
-260.08
-305.18
-348.68
-388.36
-422.10
-449.34
-471.27
-489.91
-506.12
-518.45
-523.44
-517.40
-498.53
-467.66
-427.59
-381.03
-330.15
-276.53
-221.56
-166.85
-114.03
-64.20
-17.31
28.11
76.10
130.34
192.46
260.95
331.50
398.08
454.00
493.54
513.63
517.82
512.54
504.47
498.43
497.01
500.08
504.80
506.49
500.70
489.88
478.22
469.07
463.30
460.08
457.45
452.72
443.11
427.30
412.14
404.18
405.65
413.22
421.23
424.90
421.94
412.88
363.09
258.92
113.62
-40.31
-175.28
-281.11
-359.91
-416.25
-452.83
-470.62
-465.04
-435.99
-390.75
-342.47
-301.87
-274.61
-260.54
-255.45
-254.02
-247.85
-233.00
-211.58
-189.67
-172.31
-160.91
-153.57
-146.99
-139.30
-128.18
-114.17
-99.99
-88.59
-80.71
-74.78
-68.43
-60.58
-52.26
-44.47
-38.38
-34.64
-32.92
-31.84
-29.79
-26.14
-21.75
-18.55
-17.67
-18.94
-20.94
-21.64
-19.61
-15.04
-9.77
-6.37
-6.61
-10.41
-15.81
-20.02
-20.91
-18.20
-13.42
-8.99
-6.78
-7.29
-9.60
-11.94
-12.78
-11.62
-9.09
-6.56
-5.09
-4.90
-5.26
-4.97
-3.19
-0.20
2.58
3.18
0.31
-5.80
-13.28
-19.30
-21.51
-19.40
-14.60
-10.20
-8.98
-12.04
-18.14
-24.41
-28.07
-28.09
-25.82
-24.23
-25.84
-31.10
-37.82
-42.22
-41.06
-33.64
-22.23
-11.00
-3.44
-0.46
0.07
2.06
8.67
20.31
34.37
46.66
54.07
56.15
55.24
54.83
57.31
62.51
67.90
70.34
68.23
62.47
55.97
51.81
51.27
53.08
54.17
51.50
43.94
32.86
21.43
12.90
8.91
8.72
9.91
9.78
6.91
1.78
-3.80
-7.81
-9.32
-8.93
-8.36
-9.36
-12.67
-17.57
-22.30
-25.10
-25.27
-23.54
-21.70
-21.46
-23.51
-27.13
-30.63
-32.27
-31.34
-28.51
-25.39
-23.56
-23.72
-25.32
-26.93
-27.04
-25.00
-21.36
-17.53
-14.90
-14.12
-14.73
-15.46
-15.05
-13.02
-10.01
-7.41
-6.47
-7.53
-9.86
-12.03
-12.75
-11.70
-9.63
-7.93
-7.59
-8.59
-9.89
-9.98
-7.89
-3.97
0.18
2.43
1.38
-2.83
-8.55
-13.34
-15.31
-14.09
-10.95
-8.01
-6.86
-7.70
-9.24
-9.47
-7.00
-2.07
3.50
7.20
7.39
4.30
-0.07
-2.92
-2.40
1.39
6.35
9.64
9.60
6.77
3.65
3.27
7.25
14.69
22.67
27.92
29.03
27.18
25.39
26.61
31.77
39.12
45.33
47.44
44.71
38.91
33.23
30.42
31.22
34.17
36.49
35.74
31.20
24.06
16.67
11.28
8.76
8.33
8.10
6.24
2.08
-3.52
-8.76
-11.91
-12.44
-11.30
-10.38
-11.34
-14.65
-19.28
-23.30
-24.93
-23.55
-20.01
-16.16
-13.84
-13.93
-15.98
-18.52
-19.94
-19.46
-17.50
-15.40
-14.49
-15.33
-17.29
-18.94
-18.98
-17.08
-14.14
-11.81
-11.44
-13.15
-15.81
-17.57
-17.01
-14.04
-9.99
-6.89
-6.19
-7.93
-10.70
-12.37
-11.34
-7.52
-2.37
1.87
3.49
2.30
-0.32
-2.07
-1.08
3.10
9.25
15.13
18.76
19.55
18.44
17.48
18.54
22.32
28.12
34.53
40.59
46.32
52.27
58.50
63.56
64.63
58.82
45.01
24.99
3.02
-16.05
-28.92
-35.13
-36.71
-36.66
-37.26
-38.96
-40.79
-41.38
-39.96
-36.87
-33.39
-31.01
-30.79
-32.72
-35.66
-37.89
-37.81
-34.80
-29.68
-24.34
-20.81
-20.00
-21.17
-22.27
-21.13
-16.77
-10.09
-3.42
0.76
1.27
-1.10
-4.12
-5.28
-3.36
1.02
5.72
8.35
7.63
3.97
-0.85
-4.61
-5.90
-4.73
-2.36
-0.51
-0.31
-1.77
-3.90
-5.45
-5.73
-5.11
-4.78
-6.01
-9.19
-13.46
-16.97
-17.88
-15.48
-10.75
-5.91
-3.30
-4.02
-7.44
-11.52
-14.09
-14.05
-11.91
-9.24
-7.54
-7.21
-7.31
-6.20
-2.71
2.98
9.31
14.28
16.65
16.74
16.18
17.05
20.48
25.96
31.53
34.88
34.68
31.36
26.78
23.34
22.50
24.04
26.22
26.85
24.81
20.59
16.06
13.36
13.52
15.77
17.99
17.87
14.39
8.27
1.57
-3.47
-5.66
-5.48
-4.63
-4.97
-7.29
-10.93
-14.21
-15.39
-13.81
-10.32
-6.81
-5.18
-6.08
-8.63
-10.90
-11.02
-8.33
-3.82
0.37
2.18
0.84
-2.66
-6.16
-7.38
-5.20
-0.28
5.29
8.98
9.25
6.20
1.51
-2.54
-4.29
-3.55
-1.60
-0.34
-1.02
-3.47
-6.05
-6.48
-3.17
3.71
12.12
18.93
21.59
19.55
14.72
10.68
10.70
16.03
25.10
34.35
40.11
40.38
35.41
26.89
16.47
4.92
-7.57
-20.24
-30.84
-36.15
-33.65
-23.40
-8.76
4.91
12.66
12.30
5.20
-4.60
-12.48
-15.39
-12.91
-6.90
-0.15
5.14
8.31
10.14
12.16
15.41
19.46
22.40
21.70
15.73
4.86
-8.45
-20.77
-29.57
-34.66
-38.19
-43.25
-51.63
-62.51
-72.45
-77.08
-73.52
-62.19
-46.89
-33.00
-24.71
-23.08
-25.69
-28.12
-26.48
-19.65
-9.74
-0.71
4.33
5.02
4.05
5.62
12.69
24.93
38.65
48.68
51.43
46.81
38.11
29.94
25.49
24.90
25.73
24.89
21.02
15.28
10.43
8.93
11.27
15.58
18.81
18.42
13.91
6.90
0.15
-3.82
-3.96
-1.05
2.90
5.67
6.08
4.36
1.90
0.40
0.77
2.70
4.87
5.77
4.77
2.41
0.09
-0.80
0.24
2.55
4.80
5.76
5.14
3.75
3.01
4.18
7.55
12.19
16.31
18.05
16.58
12.47
7.53
3.91
2.97
4.64
7.52
9.78
10.37
9.53
8.67
9.39
12.30
16.52
20.20
21.52
19.96
16.45
12.96
11.29
12.13
14.73
17.41
18.54
17.41
14.36
10.55
7.13
4.61
2.65
0.31
-3.29
-8.35
-14.08
-18.83
-20.78
-19.06
-14.39
-9.01
-5.59
-5.76
-9.14
-13.29
-15.04
-12.28
-5.11
4.27
12.97
19.06
22.46
24.72
27.63
31.81
36.21
38.60
37.14
31.52
23.26
15.03
9.23
6.73
6.55
6.50
4.59
0.10
-6.08
-12.05
-16.07
-17.59
-17.38
-16.94
-17.36
-18.78
-20.45
-21.38
-21.16
-20.29
-19.84
-20.83
-23.43
-26.83
-29.64
-30.50
-28.97
-25.87
-23.04
-22.51
-25.27
-30.63
-36.42
-39.86
-39.01
-33.81
-26.01
-18.31
-12.76
-9.81
-8.37
-6.67
-3.57
0.52
3.97
4.80
2.10
-3.35
-9.29
-13.00
-12.67
-8.29
-1.67
4.53
8.21
8.82
7.47
6.15
6.41
8.38
10.77
11.74
10.23
6.71
2.97
1.02
1.62
3.61
4.45
1.68
-5.33
-14.75
-22.96
-26.38
-23.39
-15.34
-5.92
0.72
2.15
-1.24
-6.65
-10.57
-10.78
-7.52
-3.07
-0.26
-0.56
-3.35
-6.28
-6.72
-3.52
2.26
7.98
10.98
10.26
7.02
4.04
4.02
7.87
14.28
20.40
23.69
23.42
20.97
18.97
19.50
22.69
26.60
28.35
25.99
19.76
11.96
5.74
3.26
4.50
7.54
9.78
9.71
7.73
5.78
5.99
9.21
14.26
18.40
18.81
14.24
5.67
-4.22
-12.34
-16.77
-17.51
-16.21
-15.19
-15.96
-18.59
-21.77
-23.42
-21.84
-16.50
-8.26
1.04
9.56
16.26
21.11
24.72
27.36
28.17
25.32
17.06
3.30
-13.58
-29.31
-39.44
-41.55
-36.44
-27.58
-19.29
-14.38
-13.11
-13.51
-12.91
-9.83
-4.90
-0.38
1.13
-1.57
-7.62
-14.53
-19.45
-20.70
-18.73
-15.70
-14.31
-16.18
-21.12
-27.34
-32.64
-35.77
-37.14
-38.39
-41.23
-46.03
-51.39
-54.69
-53.35
-46.35
-34.88
-21.94
-11.01
-4.27
-1.74
-1.45
-0.70
2.24
7.15
12.16
15.02
14.68
11.96
9.06
8.16
10.03
13.42
15.89
15.41
11.92
7.72
6.32
10.39
20.16
33.31
46.09
55.30
59.81
60.61
59.94
59.66
60.32
61.32
62.13
62.84
64.20
66.91
70.75
74.80
77.38
76.74
71.88
63.80
54.56
46.35
40.57
36.81
34.14
30.63
23.95
12.63
-1.82
-16.65
-29.32
-38.88
-47.25
-56.04
-67.38
-83.64
-106.28
-133.08
-160.15
-182.90
-196.86
-199.55
-186.85
-156.44
-109.46
-49.63
20.50
97.41
176.01
249.83
310.43
355.09
384.53
401.67
391.60
347.16
273.44
186.88
118.86
70.15
35.89
12.16
-7.00
-22.73
-32.40
-34.39
-29.72
-21.69
-16.11
-13.94
-14.08
-15.61
-18.09
-20.33
-22.35
-25.13
-29.99
-38.86
-49.49
-58.89
-65.68
-70.20
-73.11
-75.20
-76.76
-77.31
-76.82
-73.99
-68.93
-63.94
-62.08
-64.61
-70.23
-75.35
-75.89
-70.02
-58.47
-45.01
-34.75
-30.99
-33.26
-37.66
-39.06
-34.25
-23.99
-12.20
-4.02
-2.78
-8.09
-16.20
-22.12
-22.51
-17.51
-10.40
-5.60
-5.89
-10.93
-17.50
-21.46
-20.22
-14.17
-6.34
-0.61
0.58
-2.57
-7.54
-11.11
-11.31
-8.52
-5.06
-3.69
-5.88
-10.92
-16.29
-19.18
-18.06
-13.62
-8.34
-5.07
-5.47
-9.21
-14.20
-17.91
-18.77
-16.96
-14.15
-12.33
-12.59
-14.61
-16.93
-17.98
-17.16
-15.17
-13.55
-13.61
-15.53
-18.22
-19.88
-19.11
-15.82
-11.36
-7.81
-6.78
-8.51
-11.73
-14.35
-14.60
-12.06
-7.83
-3.89
-1.85
-2.11
-3.68
-4.80
-4.06
-1.31
2.28
4.86
5.09
2.94
-0.31
-2.73
-2.87
-0.63
2.76
5.39
5.90
4.16
1.33
-0.80
-0.93
0.99
3.72
5.47
5.03
2.47
-0.96
-3.46
-3.86
-2.30
-0.17
0.71
-0.72
-4.13
-7.93
-10.06
-9.26
-5.78
-1.28
2.02
2.67
0.68
-2.52
-4.90
-5.04
-2.97
-0.10
1.61
0.94
-1.87
-5.25
-7.14
-6.30
-3.08
0.76
2.97
2.20
-1.22
-5.48
-8.21
-7.94
-4.89
-0.94
1.44
0.66
-3.16
-8.19
-11.84
-12.26
-9.32
-4.63
-0.67
0.75
-0.57
-3.17
-4.76
-3.77
-0.27
3.98
6.62
6.22
3.19
-0.36
-1.76
0.50
5.86
11.83
15.43
14.87
10.58
5.02
1.20
0.93
3.82
7.56
9.49
8.33
4.95
1.90
1.84
5.71
12.06
17.79
19.98
17.69
12.46
7.48
5.71
8.09
13.19
18.17
20.81
20.90
20.34
21.82
26.93
34.91
42.93
47.71
47.54
43.28
37.79
34.29
34.49
37.68
41.36
42.84
40.92
36.51
31.93
29.50
30.13
32.79
35.19
35.08
31.60
25.65
19.37
14.94
13.41
14.09
15.11
14.34
10.72
4.73
-1.91
-7.19
-9.85
-10.14
-9.51
-9.83
-12.24
-16.53
-21.32
-24.75
-25.61
-24.07
-21.59
-20.20
-21.24
-24.66
-29.06
-32.42
-33.28
-31.61
-28.68
-26.42
-26.05
-27.49
-29.44
-30.20
-28.80
-25.61
-22.10
-19.95
-19.94
-21.51
-23.08
-22.97
-20.41
-16.00
-11.42
-8.52
-8.20
-10.09
-12.71
-14.30
-13.79
-11.38
-8.24
-5.91
-5.27
-6.15
-7.51
-8.08
-7.19
-5.24
-3.44
-3.08
-4.69
-7.63
-10.39
-11.35
-9.77
-6.27
-2.56
-0.57
-1.36
-4.59
-8.69
-11.65
-12.19
-10.38
-7.51
-5.31
-4.89
-6.20
-8.10
-9.10
-8.27
-5.74
-2.58
-0.07
1.04
0.95
0.60
1.03
2.70
5.21
7.61
9.06
9.42
9.32
9.81
11.69
14.96
18.66
21.45
22.43
21.75
20.75
21.40
25.29
32.43
40.78
46.77
46.87
39.32
25.13
7.90
-7.85
-18.68
-23.71
-24.58
-24.03
-24.06
-24.93
-25.22
-23.24
-18.48
-12.25
-7.05
-5.08
-6.90
-11.08
-14.90
-15.83
-12.77
-6.61
0.31
5.53
7.55
6.42
3.53
0.67
-0.89
-1.00
-0.51
-0.48
-1.48
-3.18
-4.45
-4.19
-2.19
0.58
2.30
1.36
-2.59
-8.33
-13.46
-15.68
-14.11
-9.72
-4.80
-1.57
-0.93
-2.06
-3.04
-2.33
0.15
2.88
3.65
1.18
-4.00
-9.65
-12.99
-12.36
-8.19
-2.79
0.86
0.89
-2.55
-7.44
-10.98
-11.20
-7.93
-2.77
1.86
4.17
3.82
2.00
0.68
1.35
4.18
7.90
10.52
10.52
7.63
2.98
-1.53
-4.30
-4.89
-4.05
-3.14
-3.10
-3.89
-4.54
-3.89
-1.57
1.49
3.52
2.84
-1.03
-7.01
-12.92
-16.57
-16.85
-14.17
-10.18
-6.73
-4.96
-4.76
-5.03
-4.42
-2.33
0.69
3.18
3.72
1.95
-1.17
-3.72
-3.95
-1.36
2.94
6.82
8.44
7.30
4.54
2.26
2.25
4.91
9.03
12.54
13.78
12.39
9.43
6.67
5.55
6.24
7.69
8.23
6.79
3.55
-0.14
-2.49
-2.40
-0.15
2.76
4.38
3.57
0.53
-3.31
-6.09
-6.63
-5.05
-2.66
-1.17
-1.59
-3.70
-6.19
-7.44
-6.47
-3.57
-0.09
2.33
2.77
1.57
0.04
-0.25
1.54
4.93
8.40
10.18
9.37
6.43
2.91
0.73
1.03
3.55
6.79
8.75
8.15
5.07
0.99
-1.97
-2.28
0.15
3.90
6.78
7.15
4.80
0.98
-2.24
-3.28
-1.96
0.52
2.26
1.93
-0.47
-3.67
-5.86
-5.82
-3.67
-0.72
1.23
1.02
-1.29
-4.39
-6.41
-6.01
-3.06
1.28
5.25
7.45
7.54
6.26
4.93
4.45
4.81
5.11
4.23
1.84
-1.24
-3.25
-2.43
1.75
8.11
14.11
17.03
15.41
9.72
2.13
-4.57
-8.40
-9.11
-8.01
-6.91
-6.85
-7.38
-6.86
-3.67
2.47
9.96
15.99
17.98
15.05
8.45
0.93
-4.83
-7.64
-8.15
-8.16
-9.10
-10.98
-12.29
-10.98
-5.88
2.27
10.95
17.01
18.27
14.64
8.11
1.77
-1.80
-1.71
0.99
4.07
5.67
5.21
3.60
2.55
3.29
5.65
8.07
8.38
5.23
-1.06
-8.56
-14.57
-17.01
-15.45
-11.22
-6.66
-3.75
-3.20
-4.26
-5.36
-5.25
-3.85
-2.23
-1.96
-3.75
-6.92
-9.49
-9.33
-5.42
1.29
8.26
12.58
12.64
8.90
3.58
-0.55
-1.65
0.36
4.02
7.29
8.85
8.58
7.46
6.79
7.35
8.86
10.18
9.98
7.55
3.26
-1.50
-4.95
-5.80
-3.88
-0.21
3.48
5.77
6.11
5.14
4.19
4.37
5.81
7.51
7.89
5.82
1.39
-3.99
-8.23
-9.77
-8.42
-5.47
-3.00
-2.52
-4.21
-6.79
-8.30
-7.44
-4.34
-0.58
1.77
1.38
-1.52
-5.25
-7.57
-6.99
-3.62
0.90
4.35
5.26
3.61
0.91
-0.79
-0.15
2.66
6.12
8.34
8.29
6.36
4.13
3.24
4.21
6.07
6.98
5.46
1.56
-3.12
-6.19
-5.93
-2.38
2.62
6.40
6.99
4.21
-0.40
-4.39
-5.84
-4.43
-1.46
0.93
1.13
-1.06
-4.39
-6.89
-7.03
-4.68
-1.14
1.62
2.18
0.47
-2.19
-3.83
-3.03
0.20
4.38
7.33
7.58
5.14
1.51
-1.09
-1.05
1.65
5.41
7.94
7.63
4.49
0.15
-3.02
-3.30
-0.68
3.22
6.00
5.98
3.09
-1.15
-4.43
-5.11
-3.08
0.20
2.59
2.65
0.36
-2.87
-5.06
-4.89
-2.44
0.86
3.08
3.01
0.84
-1.98
-3.55
-2.69
0.31
3.85
5.91
5.29
2.28
-1.45
-3.84
-3.58
-0.96
2.40
4.40
3.86
1.10
-2.21
-4.07
-3.38
-0.63
2.43
3.81
2.58
-0.65
-3.99
-5.42
-4.01
-0.48
3.15
4.77
3.45
-0.13
-3.95
-5.89
-4.96
-1.81
1.64
3.36
2.39
-0.69
-4.18
-6.27
-6.15
-4.41
-2.58
-2.09
-3.39
-5.65
-7.26
-6.83
-4.08
-0.01
3.56
5.12
4.27
1.87
-0.48
-1.36
-0.45
1.39
2.61
2.07
-0.26
-3.23
-5.14
-4.71
-1.93
1.96
5.05
5.96
4.51
1.79
-0.47
-0.95
0.45
2.64
3.96
3.36
0.98
-1.91
-3.62
-3.13
-0.74
2.08
3.47
2.34
-0.96
-4.85
-7.29
-6.96
-3.97
0.22
3.54
4.55
3.18
0.67
-1.08
-0.71
1.75
4.91
6.83
6.26
3.36
-0.31
-2.68
-2.43
0.21
3.64
5.76
5.33
2.61
-0.81
-2.92
-2.58
-0.16
2.67
3.88
2.42
-1.23
-5.28
-7.60
-7.01
-3.93
-0.17
2.13
1.73
-1.04
-4.48
-6.59
-6.21
-3.77
-0.95
0.34
-0.86
-3.98
-7.27
-8.82
-7.69
-4.47
-0.94
1.06
0.66
-1.53
-3.83
-4.42
-2.54
1.12
4.84
6.82
6.27
3.77
0.93
-0.59
-0.09
1.84
3.65
3.98
2.42
-0.20
-2.24
-2.31
-0.13
3.26
6.13
7.08
5.89
3.59
1.85
1.89
3.75
6.24
7.64
6.87
4.08
0.59
-1.84
-2.05
-0.19
2.35
3.76
2.83
-0.31
-4.35
-7.41
-8.10
-6.24
-2.89
0.18
1.63
1.17
-0.38
-1.58
-1.32
0.50
2.89
4.36
3.93
1.77
-0.87
-2.25
-1.28
1.86
5.66
8.14
8.00
5.37
1.73
-0.88
-1.06
1.20
4.52
6.97
7.20
5.20
2.21
0.01
-0.18
1.57
3.94
5.16
4.09
0.95
-2.80
-5.23
-5.19
-2.98
-0.20
1.14
-0.07
-3.35
-6.87
-8.48
-7.02
-3.01
1.63
4.69
4.94
2.70
-0.41
-2.44
-2.24
-0.10
2.57
4.14
3.78
1.95
0.15
0.03
2.24
6.06
9.65
11.15
9.75
6.17
2.23
-0.11
0.01
1.99
4.11
4.72
3.22
0.41
-1.98
-2.38
-0.38
2.97
5.72
6.17
3.88
-0.12
-3.84
-5.49
-4.56
-2.03
0.15
0.40
-1.67
-5.02
-7.82
-8.54
-6.92
-4.03
-1.59
-0.83
-1.82
-3.47
-4.19
-2.92
0.18
3.81
6.19
6.21
4.03
1.07
-0.74
-0.04
3.12
7.27
10.29
10.64
8.21
4.36
1.16
0.14
1.44
3.79
5.35
4.92
2.70
0.11
-1.08
0.11
3.20
6.46
7.88
6.43
2.61
-1.80
-4.67
-4.77
-2.42
0.73
2.63
2.02
-0.93
-4.73
-7.43
-7.81
-5.99
-3.38
-1.83
-2.41
-4.87
-7.67
-8.94
-7.59
-4.00
0.17
2.99
3.35
1.56
-0.84
-2.03
-1.11
1.45
4.11
5.24
4.22
1.72
-0.61
-1.22
0.40
3.35
5.93
6.57
4.90
1.81
-0.96
-1.89
-0.66
1.79
3.73
3.81
1.85
-1.09
-3.35
-3.68
-2.08
0.24
1.52
0.59
-2.43
-6.18
-8.78
-8.96
-6.79
-3.63
-1.39
-1.30
-3.30
-6.10
-7.85
-7.32
-4.61
-1.08
1.31
1.26
-1.23
-4.86
-7.65
-8.13
-6.10
-2.67
0.34
1.60
0.91
-0.74
-1.74
-0.98
1.48
4.41
6.04
5.33
2.48
-1.01
-3.16
-2.70
0.21
4.03
6.64
6.67
4.22
0.74
-1.79
-2.09
-0.34
1.97
3.00
1.79
-1.18
-4.24
-5.51
-4.08
-0.61
3.07
5.03
4.41
1.94
-0.50
-0.94
1.45
5.86
10.25
12.46
11.46
7.81
3.42
0.44
0.11
2.14
4.98
6.75
6.39
4.16
1.52
0.17
1.03
3.68
6.60
8.09
7.30
4.72
1.85
0.27
0.62
2.18
3.38
2.83
0.27
-3.20
-5.77
-5.99
-3.76
-0.43
1.93
1.76
-1.09
-5.34
-8.90
-10.09
-8.53
-5.33
-2.40
-1.31
-2.47
-4.94
-7.01
-7.23
-5.31
-2.22
0.30
0.95
-0.45
-2.84
-4.53
-4.26
-2.00
1.03
3.10
3.05
1.00
-1.82
-3.71
-3.63
-1.75
0.62
1.87
1.10
-1.36
-4.13
-5.58
-4.81
-2.22
0.72
2.26
1.44
-1.39
-4.74
-6.79
-6.41
-3.86
-0.65
1.25
0.63
-2.33
-6.06
-8.49
-8.19
-5.25
-1.23
1.70
2.10
0.01
-3.02
-4.87
-4.14
-0.98
2.96
5.54
5.48
3.01
-0.19
-2.05
-1.33
1.57
4.91
6.66
5.75
2.65
-0.80
-2.59
-1.65
1.41
4.75
6.37
5.34
2.24
-1.09
-2.73
-1.84
0.87
3.53
4.32
2.51
-1.09
-4.57
-6.09
-4.95
-2.01
0.81
1.78
0.34
-2.58
-5.14
-5.69
-3.85
-0.66
2.02
2.73
1.27
-1.17
-2.73
-2.01
1.03
5.02
7.90
8.23
5.97
2.46
-0.20
-0.48
1.75
5.10
7.43
7.21
4.35
0.27
-2.85
-3.36
-1.14
2.40
5.10
5.36
2.99
-0.75
-3.90
-4.99
-3.88
-1.78
-0.46
-1.07
-3.54
-6.59
-8.56
-8.42
-6.43
-3.99
-2.82
-3.86
-6.75
-9.98
-11.69
-10.78
-7.50
-3.37
-0.34
0.33
-1.27
-3.78
-5.34
-4.68
-1.92
1.56
3.82
3.65
1.19
-2.04
-4.03
-3.47
-0.58
3.00
5.19
4.71
1.83
-1.70
-3.72
-2.94
0.30
4.11
6.25
5.44
2.05
-2.05
-4.63
-4.46
-1.98
0.98
2.38
1.23
-1.83
-4.97
-6.28
-5.03
-2.07
0.70
1.54
-0.04
-3.06
-5.58
-5.93
-3.71
-0.06
3.02
3.95
2.47
-0.22
-2.19
-1.94
0.67
4.36
7.17
7.72
5.96
3.19
1.25
1.45
3.68
6.50
7.98
6.91
3.49
-0.76
-3.80
-4.23
-2.09
1.19
3.61
3.78
1.68
-1.40
-3.64
-3.75
-1.80
0.87
2.42
1.65
-1.33
-5.13
-7.84
-8.15
-6.03
-2.79
-0.26
0.30
-1.11
-3.26
-4.46
-3.57
-0.77
2.57
4.62
4.31
1.91
-1.12
-2.88
-2.20
0.64
4.11
6.26
5.93
3.36
0.08
-2.01
-1.76
0.51
3.17
4.29
2.78
-0.91
-5.03
-7.51
-7.21
-4.57
-1.40
0.24
-0.70
-3.72
-7.02
-8.64
-7.64
-4.73
-1.79
-0.74
-2.45
-6.23
-10.30
-12.80
-12.93
-11.30
-9.53
-9.14
-10.65
-13.24
-15.14
-14.75
-11.55
-6.40
-1.12
2.67
4.38
4.75
5.26
7.21
10.71
14.67
17.33
17.46
15.10
11.57
8.80
8.17
9.77
12.34
14.04
13.60
11.03
7.58
5.07
4.80
6.79
9.76
11.81
11.57
8.95
5.14
1.94
0.71
1.55
3.31
4.26
3.26
0.40
-3.08
-5.46
-5.63
-3.77
-1.22
0.28
-0.26
-2.52
-5.14
-6.41
-5.39
-2.47
0.88
2.90
2.67
0.59
-1.84
-2.86
-1.52
1.73
5.31
7.34
6.83
4.13
0.77
-1.40
-1.30
0.80
3.47
4.95
4.20
1.49
-1.77
-3.82
-3.60
-1.32
1.62
3.51
3.33
1.34
-1.14
-2.50
-1.89
0.27
2.49
3.17
1.58
-1.66
-4.95
-6.57
-5.86
-3.57
-1.46
-1.27
-3.56
-7.36
-10.57
-11.15
-8.30
-2.92
2.82
6.73
7.76
6.44
4.45
3.57
4.50
6.56
8.15
7.90
5.51
1.97
-1.01
-2.02
-0.87
1.40
3.05
2.85
0.72
-2.22
-4.29
-4.29
-2.27
0.49
2.20
1.61
-1.26
-5.20
-8.43
-9.62
-8.66
-6.63
-5.22
-5.68
-8.13
-11.55
-14.37
-15.37
-14.46
-12.65
-11.53
-12.21
-14.72
-17.96
-20.29
-20.50
-18.52
-15.42
-12.79
-11.68
-12.04
-12.66
-11.89
-8.64
-3.12
3.28
8.65
11.70
12.39
11.86
11.67
12.81
15.10
17.36
18.17
16.94
14.23
11.56
10.53
11.87
14.98
18.26
19.92
19.05
16.09
12.56
10.30
10.36
12.44
14.99
16.15
14.81
11.27
7.09
4.17
3.59
4.99
6.78
7.19
5.31
1.67
-2.12
-4.35
-4.29
-2.53
-0.60
0.03
-1.20
-3.69
-6.17
-7.49
-7.43
-6.67
-6.30
-6.92
-8.14
-8.72
-7.19
-2.82
3.83
11.07
16.76
19.47
19.08
16.78
14.39
13.35
13.90
15.09
15.37
13.73
10.33
6.51
4.01
4.00
6.25
9.26
11.10
10.52
7.67
3.94
1.19
0.62
2.09
4.18
4.94
3.08
-1.43
-7.24
-12.32
-14.98
-14.71
-12.38
-9.74
-8.36
-8.81
-10.38
-11.53
-10.86
-8.00
-3.90
-0.31
1.33
0.70
-1.21
-2.63
-2.17
0.38
3.85
6.39
6.63
4.46
1.08
-1.64
-2.28
-0.67
2.10
4.31
4.71
3.11
0.51
-1.57
-2.01
-0.80
1.01
1.95
1.07
-1.49
-4.58
-6.71
-6.94
-5.45
-3.37
-2.10
-2.55
-4.54
-6.95
-8.43
-8.21
-6.60
-4.70
-3.71
-4.16
-5.46
-6.29
-5.24
-1.96
2.43
5.79
6.18
3.04
-2.43
-7.68
-10.12
-8.25
-2.79
3.56
7.51
6.90
1.64
-6.58
-15.36
-22.84
-27.76
-30.11
-30.61
-29.75
-27.11
-21.62
-12.57
-0.47
12.99
26.51
38.87
49.15
57.08
63.29
68.91
74.65
80.67
86.92
94.95
106.20
120.74
136.64
150.39
157.62
154.15
137.33
100.93
47.55
-11.16
-60.89
-93.69
-110.32
-116.28
-117.05
-115.68
-112.72
-106.52
-96.36
-83.86
-72.23
-64.27
-61.08
-61.84
-64.51
-66.61
-65.31
-59.47
-50.34
-40.83
-33.83
-30.93
-32.04
-35.56
-39.09
-39.80
-36.33
-29.39
-21.30
-14.73
-11.47
-12.00
-15.79
-21.71
-27.93
-32.20
-31.86
-24.18
-7.59
16.76
44.36
68.40
82.15
81.94
69.18
48.56
26.99
10.73
3.03
3.65
9.91
18.37
26.39
32.64
36.79
39.22
40.01
38.61
34.32
27.19
18.35
9.89
4.16
2.65
5.81
12.47
19.96
26.03
30.09
33.12
36.78
42.58
50.32
58.98
66.34
68.56
63.56
52.79
41.09
34.33
37.00
48.86
66.62
84.02
91.96
84.58
61.93
29.47
-5.85
-38.68
-69.32
-94.55
-113.81
-131.71
-152.64
-178.34
-207.53
-238.93
-272.48
-311.41
-355.78
-379.63
-365.04
-310.62
-228.59
-133.05
-46.84
29.77
95.06
150.14
199.35
243.90
283.87
315.42
336.17
356.59
379.22
391.69
386.90
363.34
321.42
263.09
194.56
125.19
63.10
11.40
-31.64
-66.71
-93.18
-113.40
-133.86
-159.29
-190.01
-223.57
-258.45
-295.18
-334.05
-375.12
-392.61
-372.23
-317.86
-243.90
-160.27
-70.81
21.13
104.26
177.67
235.47
267.58
268.83
242.24
196.55
139.36
79.96
26.42
-15.35
-45.00
-68.59
-92.95
-122.44
-158.00
-197.85
-236.96
-267.75
-281.10
-270.96
-237.28
-183.78
-115.26
-36.30
48.56
133.94
212.24
275.06
314.37
325.98
312.69
283.49
248.80
215.23
183.50
149.70
109.79
61.93
7.66
-49.05
-103.49
-151.12
-187.06
-205.44
-200.52
-169.21
-114.60
-46.66
19.79
69.96
93.55
87.56
56.02
7.00
-50.58
-109.09
-163.06
-208.34
-241.02
-256.73
-251.67
-224.86
-180.69
-129.05
-82.53
-51.63
-39.83
-41.76
-45.45
-37.78
-10.10
38.75
103.44
175.47
246.23
308.49
355.88
382.15
381.76
352.33
297.00
224.99
148.89
79.96
24.46
-17.36
-49.09
-74.32
-93.21
-101.97
-94.93
-68.02
-22.18
35.49
93.32
138.80
162.70
161.23
136.17
93.11
39.71
-15.66
-63.86
-95.69
-103.04
-81.63
-34.01
29.33
92.39
138.72
156.71
143.32
104.21
51.12
-1.79
-40.94
-55.46
-38.81
9.60
82.93
167.97
248.25
309.01
342.03
347.47
332.02
304.63
272.20
237.67
200.87
161.03
118.83
77.07
39.05
6.50
-21.99
-50.53
-83.97
-125.79
-176.81
-235.03
-295.90
-353.07
-399.50
-429.22
-439.47
-432.82
-417.71
-406.51
-411.24
-438.51
-486.32
-544.37
-598.01
-633.99
-645.13
-631.86
-600.35
-558.66
-513.31
-467.81
-422.99
-379.38
-338.58
-303.27
-275.61
-255.55
-240.29
-225.22
-205.93
-179.89
-148.00
-114.26
-84.06
-61.55
-48.03
-41.69
-38.60
-34.32
-24.61
-8.02
13.61
36.55
57.48
75.02
90.01
104.90
122.63
147.85
181.79
220.93
259.19
291.57
316.14
334.09
348.59
364.09
390.29
432.90
490.27
555.51
620.86
679.00
722.77
745.25
742.42
723.34
697.69
670.69
644.57
622.75
608.76
603.41
603.26
604.28
614.71
639.27
673.00
704.70
725.36
730.17
717.72
688.19
573.78
361.44
104.27
-122.71
-281.63
-375.90
-425.94
-449.92
-464.34
-474.58
-471.51
-451.00
-421.25
-398.26
-390.09
-398.78
-411.94
-418.13
-410.14
-381.46
-333.05
-273.99
-216.27
-167.24
-128.60
-97.99
-78.50
-64.39
-47.70
-24.02
4.63
32.17
53.63
66.20
68.87
59.38
45.00
30.37
18.31
8.37
-2.30
-16.21
-34.71
-57.43
-83.38
-109.79
-135.43
-159.32
-181.77
-204.31
-228.66
-256.09
-286.99
-321.33
-357.74
-397.07
-437.30
-472.38
-493.52
-492.38
-464.32
-409.86
-334.36
-245.21
-153.43
-65.47
18.27
99.95
178.61
247.68
297.50
320.15
313.80
277.66
218.22
147.96
79.95
21.51
-27.21
-69.56
-108.47
-144.40
-183.70
-229.86
-281.37
-333.83
-385.08
-436.62
-491.11
-550.04
-564.74
-510.98
-404.18
-284.95
-182.97
-104.15
-40.29
19.41
81.15
144.56
196.71
226.29
231.37
219.34
200.24
181.22
165.77
154.24
145.87
134.51
117.25
97.18
80.67
72.03
70.96
75.04
81.19
87.76
91.16
90.19
86.88
84.59
85.03
86.50
86.55
83.12
76.27
66.44
56.00
48.98
49.61
61.35
78.82
98.29
117.19
135.20
153.09
172.85
197.23
229.12
271.17
322.58
379.69
435.56
481.80
510.31
515.91
498.18
461.54
414.27
362.72
310.13
256.49
200.45
140.61
76.72
9.30
-66.63
-144.07
-211.41
-260.75
-291.75
-308.03
-313.11
-309.09
-297.75
-281.30
-261.40
-241.16
-223.44
-213.59
-209.49
-207.87
-206.24
-203.78
-201.16
-199.29
-200.83
-209.23
-218.33
-227.03
-233.38
-232.92
-220.09
-191.10
-146.09
-91.19
-36.26
9.45
40.22
56.05
61.40
61.76
61.19
61.81
63.93
67.55
73.67
83.13
96.35
112.65
129.79
144.96
156.08
162.98
167.90
175.01
188.36
209.27
235.31
259.27
271.49
263.96
234.19
186.81
132.10
81.57
41.47
15.01
-0.40
-11.03
-23.34
-41.04
-64.70
-92.99
-124.47
-159.25
-195.94
-231.57
-261.52
-282.28
-294.34
-303.94
-321.36
-344.73
-370.21
-387.62
-384.66
-353.20
-294.49
-218.83
-140.94
-73.67
-23.44
8.82
27.34
37.31
43.04
47.47
52.65
60.92
75.04
97.14
126.62
161.18
193.40
218.05
232.46
237.31
236.10
233.76
234.36
238.04
240.87
235.55
215.10
176.12
121.50
60.15
3.98
-37.32
-60.41
-68.42
-68.62
-68.21
-71.63
-79.36
-88.33
-93.35
-89.71
-74.93
-49.67
-17.88
15.00
43.25
63.10
73.80
77.90
78.47
77.55
75.26
70.77
63.42
54.52
46.84
43.50
47.02
57.48
73.31
92.26
111.79
128.83
140.21
142.65
130.35
105.03
72.42
40.37
15.50
0.54
-7.16
-11.20
-14.99
-20.52
-27.60
-36.03
-46.14
-59.40
-73.48
-88.22
-102.63
-114.96
-123.33
-125.99
-123.17
-116.44
-108.43
-101.36
-96.90
-94.71
-93.44
-91.69
-88.45
-84.00
-79.26
-75.66
-73.97
-74.46
-75.78
-76.21
-74.62
-70.80
-67.54
-64.99
-63.82
-64.00
-65.04
-65.32
-63.31
-58.52
-51.56
-43.98
-37.31
-33.42
-33.86
-39.75
-50.09
-61.85
-70.48
-71.06
-60.23
-37.86
-8.15
22.96
45.73
54.37
48.99
34.05
15.48
-2.25
-17.24
-29.84
-40.97
-51.10
-58.35
-60.41
-56.67
-48.43
-38.42
-29.56
-23.88
-22.02
-23.58
-25.93
-26.28
-23.51
-18.13
-11.86
-6.36
-2.30
1.15
6.19
14.60
29.47
52.58
84.37
123.72
168.83
218.01
270.01
312.77
336.62
336.77
314.80
278.34
235.89
193.75
155.09
120.65
89.61
62.33
39.50
21.00
7.44
-1.41
-6.40
-8.91
-10.78
-14.14
-19.65
-24.26
-28.95
-32.46
-33.54
-31.50
-26.73
-20.88
-16.40
-14.68
-16.10
-20.31
-23.91
-23.70
-17.41
-4.13
15.96
41.93
72.76
106.85
130.78
135.20
114.62
70.60
11.73
-49.65
-102.42
-140.31
-163.23
-175.63
-180.98
-181.73
-178.51
-171.81
-163.10
-155.98
-154.04
-160.24
-175.91
-198.82
-225.09
-249.58
-267.31
-274.04
-267.69
-249.02
-221.51
-190.04
-158.12
-127.42
-97.37
-68.84
-42.48
-18.93
1.46
19.11
35.70
54.59
79.67
113.82
157.04
206.03
254.15
293.23
316.89
323.22
315.68
301.19
286.43
274.32
263.08
247.30
220.86
179.99
125.26
61.58
-3.31
-60.94
-104.69
-131.03
-140.44
-136.71
-125.03
-109.64
-92.26
-72.19
-47.90
-18.84
13.75
47.09
78.22
105.02
126.16
140.98
148.84
149.23
142.02
127.27
104.37
71.47
26.23
-32.13
-100.42
-170.45
-230.85
-271.13
-285.86
-276.79
-251.19
-217.67
-181.82
-144.08
-101.07
-49.46
10.63
74.51
134.51
183.50
217.77
237.95
247.51
250.23
248.36
242.11
230.47
212.53
188.36
158.50
123.16
82.12
35.43
-14.90
-63.51
-102.00
-121.84
-118.50
-94.56
-59.73
-26.97
-6.72
-2.20
-8.75
-17.10
-18.99
-11.79
0.78
11.52
14.92
10.58
3.10
-1.46
-0.03
5.25
8.47
4.41
-7.47
-21.94
-31.09
-29.16
-16.75
-1.21
7.60
3.19
-13.40
-34.12
-48.38
-49.38
-37.94
-21.85
-11.12
-12.19
-24.52
-41.44
-54.80
-59.77
-57.16
-52.09
-50.01
-53.25
-59.57
-63.73
-61.10
-50.50
-34.62
-18.48
-7.02
-3.91
-11.29
-29.28
-55.55
-85.06
-110.75
-125.01
-121.76
-98.12
-55.14
2.69
69.52
139.30
205.51
260.49
296.31
307.05
291.13
251.97
196.25
132.01
66.40
3.96
-53.74
-106.91
-156.13
-198.29
-226.04
-235.33
-229.83
-217.36
-203.91
-191.62
-180.05
-167.98
-155.16
-142.39
-132.16
-126.82
-127.42
-133.71
-144.48
-157.22
-168.07
-173.06
-167.95
-151.89
-127.68
-100.76
-77.50
-62.96
-58.61
-62.68
-71.79
-81.80
-90.73
-98.17
-103.94
-106.95
-104.98
-93.56
-68.73
-36.37
-1.45
31.11
58.00
78.50
94.10
107.36
123.54
144.75
168.52
190.91
208.16
218.73
223.46
224.80
225.76
234.01
253.97
284.98
324.10
367.46
410.71
448.36
474.02
482.70
479.31
469.54
456.50
441.49
425.00
407.28
388.23
367.61
309.09
206.28
82.26
-31.01
-117.25
-177.75
-220.23
-250.93
-272.75
-289.45
-296.10
-290.40
-275.75
-258.70
-244.50
-234.91
-227.35
-219.60
-209.58
-190.50
-159.33
-119.36
-78.20
-42.92
-17.27
-1.81
3.04
-3.48
-18.87
-41.65
-72.18
-111.09
-156.91
-205.81
-244.55
-260.06
-248.89
-217.88
-178.41
-139.11
-104.19
-74.68
-50.12
-30.05
-15.35
-7.27
-5.15
-6.27
-7.25
-5.59
-0.09
8.73
17.79
22.94
19.75
6.70
-12.79
-31.32
-40.35
-33.73
-8.68
28.73
68.03
98.65
113.56
110.77
92.79
64.95
34.16
7.95
-7.22
-7.30
7.51
31.50
55.17
69.29
66.92
46.25
11.25
-29.59
-65.78
-88.18
-92.72
-81.03
-58.86
-33.11
-8.31
14.87
38.77
65.89
97.20
129.44
157.35
176.36
184.63
183.15
174.64
161.77
141.70
115.00
82.80
48.43
16.64
-8.23
-24.32
-32.69
-36.24
-37.57
-36.62
-33.84
-28.73
-20.85
-10.80
-1.08
4.90
4.43
-3.72
-17.93
-37.87
-62.03
-88.53
-115.22
-141.01
-165.48
-188.47
-210.83
-216.32
-194.94
-147.62
-88.06
-30.81
16.03
52.10
81.15
105.92
126.13
140.08
147.31
146.37
137.17
121.19
102.55
86.00
71.60
60.20
47.67
32.90
12.85
-16.68
-59.28
-113.83
-159.28
-176.08
-153.43
-115.44
-66.75
-12.03
46.99
97.54
127.90
132.56
111.09
68.75
14.01
-40.30
-86.89
-127.62
-167.42
-207.70
-246.52
-283.23
-319.87
-359.99
-404.00
-425.44
-410.63
-366.28
-311.31
-260.75
-220.34
-191.22
-173.26
-164.75
-164.63
-175.13
-194.87
-215.69
-230.87
-229.81
-209.87
-175.72
-135.31
-96.61
-68.16
-53.23
-48.32
-46.27
-40.19
-27.07
-5.35
20.37
48.04
74.67
98.46
119.23
137.53
153.97
167.45
176.77
181.28
182.11
179.64
174.37
166.90
157.64
146.81
133.73
117.92
99.50
80.09
61.22
44.47
31.01
21.37
15.41
12.13
10.36
9.20
8.77
9.60
12.45
17.86
25.87
36.00
47.33
58.90
70.06
80.94
92.16
104.67
119.61
138.13
161.21
189.13
220.82
253.41
282.61
303.62
312.96
309.79
296.26
276.53
254.97
234.57
216.34
199.80
184.13
169.06
154.89
141.96
130.04
118.18
105.24
90.59
74.59
58.35
43.18
29.93
18.72
9.22
1.00
-6.15
-12.18
-17.05
-20.94
-24.23
-27.35
-30.30
-32.61
-33.55
-32.60
-29.94
-26.63
-24.19
-23.93
-26.12
-29.61
-32.17
-31.27
-25.22
-13.91
1.07
17.14
31.86
43.95
53.52
61.81
70.22
79.45
89.15
98.11
105.12
109.70
112.33
114.32
117.03
121.19
126.61
132.46
137.94
142.63
146.39
149.00
149.74
147.54
141.78
132.86
122.64
113.77
108.70
108.78
113.91
122.88
133.93
145.22
155.08
161.99
164.63
162.24
154.76
142.89
127.90
111.55
96.15
84.27
77.89
77.18
79.46
79.33
70.33
47.64
10.44
-37.60
-90.03
-140.60
-186.07
-227.21
-267.78
-312.36
-364.06
-423.29
-487.43
-551.31
-607.97
-649.73
-670.06
-665.84
-638.94
-596.22
-547.37
-501.18
-462.24
-429.61
-398.39
-363.23
-321.54
-274.61
-226.13
-179.18
-133.91
-87.67
-37.04
19.58
80.36
140.61
194.61
237.29
264.90
274.97
266.61
241.75
206.71
170.75
142.99
127.83
122.23
116.92
100.69
65.80
11.29
-56.20
-127.28
-194.11
-253.34
-304.75
-347.85
-379.69
-395.33
-390.64
-363.21
-315.66
-254.41
-188.65
-126.70
-73.06
-27.65
12.43
50.53
91.17
136.53
187.50
242.27
298.23
353.98
410.12
468.35
514.06
532.49
515.09
468.12
405.98
341.58
282.11
230.29
186.73
151.07
130.45
122.59
124.42
129.93
132.00
125.31
108.01
81.45
48.81
15.62
-17.01
-45.16
-66.61
-80.90
-88.74
-91.89
-93.31
-96.56
-103.13
-112.83
-122.00
-126.97
-125.60
-117.92
-105.90
-92.54
-80.14
-68.88
-57.91
-45.30
-30.85
-16.27
-4.06
3.86
7.37
8.00
8.24
9.96
14.09
19.59
24.37
26.48
25.24
21.42
16.86
13.57
12.68
14.17
16.63
17.98
16.78
12.88
7.55
2.75
0.01
-0.55
-0.24
-1.17
-4.87
-11.44
-19.47
-26.80
-31.83
-34.47
-36.09
-38.72
-43.67
-50.73
-58.26
-64.02
-66.52
-65.82
-63.52
-61.84
-62.26
-64.76
-67.77
-69.07
-67.06
-61.65
-54.34
-47.38
-42.42
-39.64
-37.64
-34.19
-27.55
-17.58
-5.91
4.80
12.37
16.17
17.42
18.43
21.14
25.88
31.16
34.53
34.12
29.77
23.04
16.31
11.22
7.72
4.21
-1.26
-9.44
-19.25
-28.15
-33.62
-34.70
-32.69
-30.48
-30.96
-35.15
-41.47
-46.36
-46.09
-38.80
-25.53
-9.76
4.42
14.53
20.78
25.83
33.02
44.25
58.83
73.74
85.25
90.98
91.01
87.71
84.24
82.69
83.05
83.39
81.23
75.18
65.83
55.54
47.04
41.90
39.73
38.46
35.75
30.37
22.87
15.18
9.40
6.46
5.63
4.98
2.68
-1.96
-8.08
-13.75
-17.16
-17.67
-16.17
-14.55
-14.52
-16.68
-20.20
-23.36
-24.55
-23.25
-20.35
-17.64
-16.69
-18.07
-21.04
-24.08
-25.82
-25.87
-25.05
-24.84
-26.41
-29.86
-34.18
-37.79
-39.51
-39.29
-38.26
-38.12
-40.06
-44.15
-49.28
-53.74
-56.23
-56.50
-55.48
-54.70
-55.28
-57.37
-59.94
-61.28
-59.89
-55.24
-48.11
-40.15
-32.91
-27.05
-22.04
-16.55
-9.45
-0.73
8.14
14.90
17.78
16.58
12.89
9.31
7.96
9.20
11.56
12.57
10.60
5.93
0.77
-1.89
-0.08
5.98
14.01
20.95
24.92
26.14
26.69
29.13
34.78
42.93
51.20
56.96
58.97
57.94
55.97
55.26
56.72
59.51
61.65
61.21
57.59
51.74
45.64
41.21
39.24
39.08
38.99
37.14
32.58
25.63
17.69
10.44
4.91
0.99
-2.35
-6.43
-11.90
-18.35
-24.42
-28.55
-29.88
-28.77
-26.63
-25.15
-25.35
-27.03
-28.95
-29.59
-28.07
-24.71
-20.87
-18.16
-17.46
-18.45
-19.84
-20.12
-18.53
-15.48
-12.31
-10.42
-10.41
-11.70
-12.91
-12.69
-10.51
-7.07
-3.86
-2.29
-2.85
-4.89
-6.98
-7.75
-6.68
-4.33
-2.03
-0.99
-1.59
-3.28
-4.83
-5.21
-4.20
-2.53
-1.46
-1.93
-3.97
-6.60
-8.33
-8.04
-5.69
-2.39
0.13
0.54
-1.38
-4.63
-7.59
-8.97
-8.64
-7.67
-7.75
-9.99
-14.38
-19.70
-24.19
-26.51
-26.48
-24.99
-23.51
-23.05
-23.58
-24.19
-23.54
-20.82
-16.33
-11.38
-7.66
-6.34
-7.42
-9.81
-11.88
-12.43
-11.26
-9.28
-7.87
-7.89
-9.19
-10.63
-10.68
-8.36
-3.88
1.39
5.50
7.09
5.99
3.38
1.19
1.12
3.74
8.33
13.30
17.23
19.60
21.04
22.88
26.29
31.51
37.63
43.10
46.65
47.92
47.54
46.72
46.42
46.81
47.24
46.81
45.20
43.02
41.50
41.74
43.64
45.43
44.13
36.84
22.37
2.16
-19.96
-39.25
-52.03
-57.12
-56.04
-51.94
-47.74
-44.77
-42.55
-39.55
-34.61
-27.94
-21.06
-15.92
-13.58
-13.50
-13.87
-12.65
-8.85
-3.08
2.63
6.02
5.95
3.06
-0.50
-2.25
-0.80
3.45
8.49
11.85
12.07
9.39
5.69
3.31
3.69
6.54
10.03
11.94
10.96
7.49
3.30
0.46
0.03
1.47
3.06
3.03
0.78
-2.80
-5.80
-6.50
-4.47
-0.83
2.34
3.16
1.00
-3.28
-7.91
-11.19
-12.47
-12.29
-11.88
-12.24
-13.44
-14.62
-14.48
-12.24
-8.17
-3.54
0.02
1.46
0.74
-1.22
-3.13
-4.07
-4.06
-3.89
-4.67
-6.94
-10.35
-13.66
-15.38
-14.59
-11.56
-7.78
-5.31
-5.71
-9.20
-14.55
-19.57
-22.35
-22.24
-20.13
-17.94
-17.38
-18.95
-21.70
-23.75
-23.41
-20.25
-15.27
-10.38
-7.14
-6.00
-6.18
-6.26
-5.16
-2.87
-0.46
0.51
-0.94
-4.63
-9.16
-12.55
-13.23
-10.77
-6.02
-0.66
3.81
6.72
8.42
9.92
12.23
15.62
19.59
23.14
25.53
26.77
27.61
29.18
32.35
37.22
42.98
48.30
52.03
53.69
53.79
53.46
53.83
55.30
57.28
58.48
57.74
54.73
50.17
45.48
41.88
39.63
37.88
35.15
30.37
23.60
16.14
9.79
5.87
4.33
3.84
2.49
-0.99
-6.57
-12.90
-18.11
-20.91
-21.31
-20.67
-20.85
-23.06
-27.23
-31.94
-35.21
-35.52
-32.68
-27.77
-22.60
-18.56
-15.92
-13.79
-10.76
-5.95
0.26
6.25
9.97
10.13
6.93
2.10
-1.96
-3.42
-1.90
1.42
4.54
5.87
4.92
2.49
0.05
-1.20
-0.94
0.19
1.13
1.21
0.55
-0.01
0.58
2.82
6.32
10.05
12.91
14.67
16.26
19.50
25.94
35.52
45.93
53.06
52.80
43.16
25.47
4.09
-15.43
-28.77
-34.40
-33.69
-29.50
-24.47
-19.91
-15.77
-11.56
-7.32
-3.93
-2.68
-4.34
-8.46
-13.50
-17.39
-18.45
-16.31
-11.97
-7.30
-4.02
-2.84
-3.15
-3.39
-2.04
1.44
6.22
10.56
12.90
12.75
10.97
9.38
9.74
12.72
17.60
22.56
25.75
26.16
24.00
20.55
17.31
15.14
13.82
12.18
9.04
4.06
-1.85
-6.73
-8.52
-6.14
-0.01
8.16
16.44
23.63
29.78
35.91
43.00
51.06
58.73
63.87
64.92
61.80
56.18
50.62
47.13
46.02
45.71
43.71
38.30
29.73
20.18
12.63
9.06
9.43
11.81
13.80
14.15
13.45
13.38
15.32
18.87
21.69
20.60
13.36
0.09
-16.69
-33.33
-46.64
-55.22
-59.58
-61.39
-62.48
-63.95
-66.12
-68.79
-71.67
-74.74
-78.23
-82.34
-86.94
-91.24
-93.88
-93.42
-89.17
-81.96
-74.41
-70.15
-72.31
-81.80
-96.56
-112.22
-123.91
-128.44
-125.57
-117.78
-108.72
-101.27
-96.43
-93.40
-90.49
-86.22
-79.81
-71.02
-59.66
-45.32
-27.94
-8.52
10.63
26.29
35.53
36.80
30.40
18.27
3.17
-12.54
-27.59
-42.14
-57.67
-76.46
-100.97
-132.55
-170.04
-208.72
-241.32
-260.49
-261.60
-244.62
-213.72
-174.92
-132.91
-89.02
-40.74
14.40
75.41
136.57
189.64
227.75
248.60
255.30
254.32
253.85
258.31
266.72
274.44
277.24
274.31
268.49
264.01
263.63
270.00
281.88
294.73
303.08
303.91
298.16
289.09
279.74
271.03
265.73
264.49
265.73
266.78
266.36
265.30
264.98
265.64
242.32
181.98
90.52
-9.53
-95.76
-157.71
-196.09
-217.20
-227.24
-232.71
-232.42
-224.00
-207.21
-185.21
-162.59
-143.19
-129.55
-122.68
-122.05
-122.34
-118.44
-108.18
-93.34
-77.96
-66.04
-59.87
-59.51
-63.13
-65.86
-64.09
-57.52
-49.06
-42.75
-41.16
-44.42
-50.65
-57.28
-61.44
-62.25
-61.18
-61.05
-64.00
-70.28
-78.32
-85.77
-90.90
-93.04
-92.99
-92.52
-92.94
-94.33
-95.40
-94.16
-89.25
-80.84
-70.54
-60.69
-53.21
-48.61
-45.84
-42.86
-37.69
-29.66
-19.72
-9.84
-1.84
3.44
6.51
8.95
12.20
16.79
21.71
25.11
25.50
23.84
22.41
24.09
29.39
34.95
35.25
25.74
6.56
-16.40
-33.76
-37.25
-23.67
3.53
35.82
66.43
90.77
107.19
116.04
118.11
113.49
102.24
85.20
65.00
45.93
31.90
24.93
24.62
28.84
34.39
38.71
40.15
38.78
36.29
34.80
35.97
40.24
46.66
53.40
58.94
61.51
60.72
57.80
54.92
54.06
56.07
60.64
66.83
73.71
78.59
78.91
73.39
62.54
48.25
32.61
17.05
1.80
-14.16
-35.35
-66.20
-108.58
-160.47
-217.18
-273.75
-326.54
-373.72
-399.16
-391.17
-348.45
-282.26
-208.60
-139.49
-80.62
-33.24
3.60
31.89
51.52
62.58
66.46
66.07
64.59
63.92
64.46
65.85
67.78
68.66
67.45
64.39
60.90
58.34
56.89
55.69
53.84
51.23
47.78
44.18
41.66
41.28
42.96
45.04
45.22
41.99
35.70
28.10
21.90
19.21
20.42
24.03
26.72
25.28
18.16
5.89
-9.43
-25.20
-38.94
-48.01
-49.42
-40.12
-18.73
12.54
46.47
72.77
82.21
71.74
47.14
21.14
7.04
11.70
31.97
56.61
73.38
75.74
65.31
49.45
35.55
26.27
18.64
7.16
-11.42
-34.33
-54.12
-63.17
-58.68
-45.04
-31.99
-29.86
-41.21
-63.96
-89.61
-106.88
-107.73
-91.66
-66.25
-43.36
-32.85
-37.42
-51.86
-65.34
-67.61
-54.31
-28.81
-0.01
22.41
32.39
29.66
18.58
5.77
-3.47
-7.18
-6.61
-4.60
-3.66
-4.78
-7.35
-10.26
-12.56
-14.20
-15.76
-17.69
-19.79
-21.39
-21.78
-20.85
-18.90
-16.66
-15.11
-14.85
-15.79
-17.39
-19.12
-20.81
-22.50
-23.29
-22.36
-19.80
-16.69
-14.33
-13.76
-15.66
-20.10
-26.47
-31.54
-32.65
-29.93
-25.86
-22.84
-21.59
-20.96
-18.78
-12.78
1.47
25.45
55.00
82.18
100.09
105.86
101.12
90.81
81.83
85.55
110.34
156.47
217.13
283.13
346.19
399.60
438.21
431.79
366.35
257.60
139.40
38.00
-36.85
-85.64
-112.66
-123.26
-122.97
-114.04
-98.46
-82.35
-73.39
-75.49
-86.39
-99.49
-107.70
-106.95
-95.15
-74.72
-57.01
-56.72
-83.39
-136.13
-203.88
-270.15
-318.84
-336.89
-319.62
-272.55
-207.59
-137.34
-71.96
-18.57
17.61
33.75
31.45
15.81
-6.62
-28.77
-43.96
-47.17
-35.80
-10.72
25.71
71.61
124.69
180.21
231.10
269.61
290.06
290.85
272.97
239.58
194.61
140.79
79.08
10.54
-60.68
-125.90
-165.43
-166.08
-133.75
-87.35
-45.47
-18.05
-4.26
2.95
9.86
19.32
28.70
32.26
25.38
3.91
-31.03
-75.39
-123.38
-168.27
-202.95
-221.27
-218.71
-192.48
-142.37
-72.02
10.10
92.57
163.94
215.73
244.32
250.31
237.63
211.65
177.76
139.58
100.43
64.60
31.71
7.99
0.24
8.91
27.52
49.39
66.99
75.12
71.05
54.34
23.19
-20.48
-72.09
-124.87
-171.90
-209.04
-235.06
-250.18
-253.56
-241.53
-209.14
-153.64
-76.62
14.96
109.51
194.51
259.88
300.33
316.22
311.93
293.96
269.92
247.44
232.16
226.28
227.40
229.24
224.37
207.02
174.98
130.12
76.71
19.03
-39.73
-97.11
-150.08
-194.33
-225.16
-239.87
-239.54
-229.14
-215.69
-205.31
-200.85
-201.05
-201.50
-196.77
-182.77
-158.52
-126.65
-92.85
-64.11
-46.46
-42.87
-52.27
-69.87
-88.89
-102.79
-106.91
-99.20
-80.22
-52.54
-20.08
12.50
40.28
59.14
66.81
63.60
52.19
36.68
21.01
7.64
-3.17
-13.19
-25.06
-41.03
-62.27
-88.89
-120.46
-156.26
-195.05
-234.42
-270.40
-297.40
-309.35
-301.85
-274.12
-229.61
-174.57
-115.71
-57.85
-3.14
49.05
100.92
153.76
206.03
253.57
291.65
317.27
330.12
331.00
321.91
305.74
285.26
261.86
236.11
208.76
181.35
155.76
131.79
109.15
89.51
75.40
67.88
65.57
65.55
64.78
60.67
48.61
24.42
-12.93
-61.57
-117.84
-175.65
-225.84
-257.95
-249.27
-191.17
-102.21
-15.39
46.19
77.87
87.53
87.21
87.00
92.29
102.42
113.31
123.47
132.89
139.99
141.10
132.60
113.32
84.85
48.51
6.38
-36.12
-74.47
-108.26
-140.56
-174.36
-209.44
-241.56
-265.30
-275.83
-270.38
-250.28
-221.13
-190.75
-166.11
-151.30
-147.16
-152.14
-162.32
-171.60
-173.12
-161.21
-133.06
-88.97
-31.84
34.42
106.39
181.98
259.60
336.61
408.04
466.65
505.55
519.97
509.03
475.81
425.77
364.51
296.52
224.32
148.56
69.65
-12.12
-96.11
-180.53
-262.17
-336.34
-396.13
-433.90
-443.44
-421.17
-369.16
-295.52
-212.80
-135.73
-78.18
-48.69
-42.23
-49.99
-58.76
-58.74
-47.36
-27.40
-4.11
14.00
25.68
29.90
24.69
8.51
-20.08
-60.96
-107.28
-142.84
-152.23
-128.93
-80.93
-25.25
22.07
51.37
61.67
58.70
50.24
41.29
33.48
25.57
16.03
5.00
-6.45
-16.54
-23.99
-28.71
-32.26
-36.55
-42.50
-50.12
-57.94
-64.42
-67.99
-68.16
-65.71
-62.67
-61.21
-62.85
-67.82
-75.02
-83.02
-89.76
-94.02
-95.55
-95.06
-93.49
-91.31
-87.75
-80.23
-70.65
-58.25
-42.35
-22.87
-0.67
22.85
46.07
67.68
87.05
104.22
120.63
137.84
157.46
180.83
208.42
238.93
268.86
293.01
305.90
304.45
288.78
262.67
232.36
204.14
181.93
166.10
154.32
143.33
131.02
116.83
101.44
86.06
71.95
59.58
48.95
40.37
34.70
33.22
36.42
43.30
51.65
59.23
63.55
62.62
56.24
46.33
36.26
29.31
27.36
30.75
39.01
49.29
57.36
60.12
57.10
50.31
42.77
36.81
33.78
34.54
37.27
38.30
34.47
23.74
4.72
-23.60
-61.45
-113.41
-170.45
-214.50
-231.81
-222.24
-196.52
-167.27
-138.15
-107.33
-71.04
-27.77
17.41
51.08
61.02
40.92
-6.90
-71.90
-140.66
-191.49
-203.74
-171.12
-105.46
-28.30
39.37
83.64
99.98
91.43
66.32
33.68
-0.59
-33.80
-64.03
-88.40
-103.05
-104.41
-91.41
-66.24
-34.86
-5.33
15.46
25.18
26.41
23.83
21.80
22.52
25.86
29.77
31.69
29.83
24.23
16.02
6.45
-3.39
-12.71
-20.70
-26.76
-30.62
-32.52
-32.93
-32.59
-32.34
-32.62
-33.25
-33.66
-33.52
-31.89
-29.07
-26.07
-24.24
-24.73
-27.73
-32.38
-37.03
-39.92
-39.82
-36.72
-31.48
-25.38
-19.45
-14.08
-9.02
-3.74
2.11
8.41
14.40
19.27
22.69
25.03
27.23
30.27
34.48
39.22
43.02
44.20
41.95
36.87
30.77
25.92
23.86
24.72
27.20
29.31
29.56
27.76
24.91
22.60
21.88
22.65
23.67
23.35
20.79
16.26
11.12
7.07
5.10
4.95
5.34
4.63
1.90
-2.54
-7.37
-10.90
-12.13
-11.25
-9.58
-8.77
-9.84
-12.65
-15.95
-18.14
-18.25
-16.48
-14.09
-12.69
-13.19
-15.35
-17.88
-19.25
-18.58
-16.17
-13.33
-11.61
-11.88
-13.87
-16.29
-17.62
-16.95
-14.59
-11.83
-10.21
-10.64
-12.84
-15.48
-16.97
-16.34
-13.87
-10.90
-8.95
-8.82
-10.10
-11.46
-11.48
-9.66
-6.70
-4.14
-3.39
-4.90
-7.86
-10.74
-12.14
-11.64
-9.97
-8.48
-8.26
-9.49
-11.33
-12.41
-11.62
-8.78
-4.78
-1.05
1.20
1.67
1.02
0.49
1.13
3.12
5.72
7.64
7.89
6.39
4.04
2.23
2.08
3.70
6.16
7.95
7.98
6.13
3.32
1.03
0.38
1.48
3.39
4.62
4.12
1.80
-1.43
-4.16
-5.32
-4.81
-3.51
-2.77
-3.53
-5.80
-8.66
-10.81
-11.33
-10.24
-8.48
-7.37
-7.70
-9.25
-10.94
-11.36
-9.69
-6.15
-1.96
1.35
2.86
2.73
2.07
2.29
4.24
7.66
11.32
13.65
13.74
11.85
9.31
7.78
8.30
10.74
13.80
15.86
15.92
14.19
11.99
10.97
12.10
15.12
18.70
21.20
21.71
20.45
18.66
17.80
18.62
20.78
23.04
23.98
22.91
20.18
16.99
14.75
14.23
15.14
16.28
16.16
13.91
9.70
4.77
0.78
-1.10
-0.76
0.68
1.62
0.88
-1.61
-4.71
-6.75
-6.57
-4.27
-1.19
0.80
0.41
-2.30
-5.95
-8.58
-8.84
-6.75
-3.71
-1.58
-1.59
-3.63
-6.17
-7.31
-5.72
-1.34
4.77
11.41
18.03
24.97
32.71
40.69
46.46
46.33
37.06
18.05
-7.74
-34.60
-56.46
-69.57
-73.98
-72.89
-70.48
-69.47
-69.95
-70.20
-68.39
-64.18
-58.93
-54.76
-52.99
-53.29
-53.87
-52.41
-47.36
-38.92
-29.04
-20.44
-15.52
-15.09
-18.02
-21.73
-22.81
-18.79
-9.37
3.25
15.17
22.56
23.50
18.70
11.10
5.04
3.51
6.55
11.41
14.36
12.51
5.69
-4.37
-15.39
-24.45
-30.43
-34.64
-39.72
-47.55
-58.62
-70.97
-82.69
-93.17
-100.83
-104.95
-105.86
-104.00
-98.20
-86.22
-63.66
-27.91
20.36
80.59
149.95
222.56
290.82
348.14
389.69
415.75
428.31
410.51
354.75
269.35
175.60
93.62
40.02
7.25
-13.01
-26.68
-36.93
-44.17
-46.01
-41.51
-32.76
-23.61
-18.96
-19.92
-25.98
-35.47
-43.58
-45.94
-41.58
-33.43
-26.19
-26.06
-33.62
-45.05
-54.55
-56.96
-51.57
-42.24
-34.64
-32.35
-35.54
-40.16
-42.09
-39.37
-32.19
-22.64
-13.72
-7.66
-4.96
-4.69
-4.66
-3.14
-0.34
2.16
2.34
-0.84
-6.81
-13.54
-18.59
-20.13
-18.10
-14.16
-10.68
-9.15
-9.49
-10.41
-10.24
-8.15
-4.64
-1.23
0.29
-0.90
-4.20
-7.83
-9.84
-9.30
-6.87
-4.46
-4.20
-7.20
-12.94
-19.53
-24.65
-26.75
-25.82
-23.24
-20.98
-20.38
-21.57
-23.53
-24.76
-24.24
-22.11
-19.58
-18.30
-19.30
-22.38
-26.19
-28.88
-29.12
-26.87
-23.33
-20.23
-18.65
-18.35
-17.85
-15.33
-9.84
-2.14
5.49
10.32
10.69
6.80
0.56
-5.59
-10.03
-12.87
-15.75
-20.68
-28.65
-38.93
-49.39
-57.64
-62.41
-64.20
-64.90
-66.47
-69.59
-73.06
-74.31
-70.73
-61.21
-46.84
-30.37
-14.86
-2.04
8.34
18.06
29.07
42.07
55.99
68.48
77.37
81.88
83.01
82.95
83.67
85.74
88.13
88.81
86.20
80.12
71.97
63.93
57.81
54.04
51.60
48.73
44.14
37.72
30.68
24.85
21.65
21.34
22.78
24.06
23.50
20.43
15.45
10.04
5.69
3.05
1.65
0.26
-2.29
-6.37
-11.37
-16.04
-19.31
-20.93
-21.64
-22.71
-24.99
-28.47
-32.22
-34.85
-35.43
-34.01
-31.75
-30.42
-31.42
-35.14
-40.77
-46.56
-50.69
-52.06
-50.73
-47.71
-44.20
-40.90
-37.71
-33.87
-28.83
-22.82
-17.11
-13.46
-13.07
-15.89
-20.61
-25.27
-28.52
-30.43
-32.46
-36.65
-44.15
-54.32
-64.73
-72.13
-73.99
-69.76
-61.02
-50.67
-41.18
-33.41
-26.29
-17.72
-6.22
7.95
22.59
34.75
42.42
45.69
46.65
48.10
51.90
57.89
64.15
68.25
68.88
66.64
63.60
62.16
63.51
67.08
70.86
72.67
71.35
67.38
62.59
59.01
57.69
58.12
58.58
57.21
53.15
47.06
40.79
36.28
34.40
34.54
34.93
33.88
30.76
26.33
22.27
20.00
19.80
20.53
20.30
17.63
12.32
5.60
-0.57
-4.51
-5.82
-5.48
-5.32
-6.83
-10.38
-15.03
-19.12
-21.27
-21.21
-19.94
-19.13
-20.11
-23.14
-27.31
-31.04
-33.05
-33.11
-32.11
-31.64
-33.01
-36.54
-41.42
-46.12
-49.23
-50.25
-49.90
-49.72
-51.14
-54.73
-59.84
-64.87
-68.18
-68.94
-67.46
-64.86
-62.13
-59.41
-55.78
-49.77
-40.49
-28.41
-15.43
-4.13
3.66
7.65
9.22
10.51
13.08
16.96
20.66
22.11
20.09
15.05
8.96
4.36
2.94
4.66
7.89
10.37
10.70
9.04
7.01
6.72
9.44
14.77
20.81
25.15
26.31
24.50
21.53
19.81
20.92
24.81
29.79
33.61
34.88
33.79
32.07
31.88
34.45
39.25
44.24
47.06
46.45
42.96
38.58
35.55
34.96
36.18
37.30
36.46
32.98
27.75
22.65
19.38
18.41
18.76
18.69
16.77
12.73
7.46
2.41
-1.29
-3.55
-5.18
-7.33
-10.67
-14.95
-19.13
-21.97
-22.76
-21.78
-20.12
-19.14
-19.67
-21.65
-24.24
-26.31
-27.09
-26.66
-25.78
-25.53
-26.54
-28.72
-31.33
-33.39
-34.29
-34.14
-33.67
-33.71
-34.62
-36.04
-37.05
-36.63
-34.30
-30.38
-25.82
-21.74
-18.66
-16.42
-14.30
-11.56
-8.00
-4.17
-1.07
0.46
0.43
-0.17
0.20
2.87
8.15
14.98
21.47
25.74
27.15
26.66
26.45
28.80
34.83
43.78
53.41
61.13
65.44
66.71
66.86
68.25
72.50
79.75
88.69
97.01
101.97
100.90
91.71
73.57
47.41
16.15
-15.95
-44.41
-65.85
-78.84
-83.88
-82.76
-77.67
-70.65
-63.38
-57.31
-53.53
-52.62
-54.23
-57.09
-59.48
-59.82
-57.26
-52.00
-45.13
-38.18
-32.49
-28.79
-27.10
-26.90
-27.58
-28.61
-29.59
-30.09
-29.59
-27.50
-23.65
-18.45
-13.03
-8.64
-6.13
-5.56
-6.17
-6.83
-6.72
-5.64
-4.06
-2.63
-1.72
-1.26
-0.83
-0.08
0.89
1.48
0.95
-0.97
-3.80
-6.42
-7.52
-6.43
-3.46
0.14
2.92
4.09
3.87
3.34
3.73
5.59
8.42
11.03
12.16
11.40
9.31
7.12
6.01
6.41
7.79
8.96
8.75
6.77
3.63
0.55
-1.24
-1.30
-0.21
0.78
0.61
-0.77
-2.25
-2.13
0.94
6.96
14.33
20.45
22.83
20.40
13.88
5.52
-1.92
-6.44
-7.48
-6.02
-3.91
-2.77
-3.23
-4.68
-5.73
-5.21
-2.93
0.05
2.06
1.85
-0.61
-4.02
-6.33
-6.03
-2.88
1.84
6.13
8.37
8.14
6.32
4.45
3.72
4.30
5.32
5.56
4.40
2.30
0.64
0.87
3.42
7.37
10.71
11.60
9.39
5.10
0.83
-1.37
-0.75
1.87
4.56
5.58
4.34
1.60
-1.08
-2.34
-1.81
-0.13
1.60
2.71
3.31
4.10
5.81
8.53
11.48
13.41
13.20
10.66
6.67
2.84
0.78
1.28
3.87
7.10
9.26
9.35
7.56
5.19
3.92
4.85
7.83
11.55
14.15
14.41
12.27
8.86
5.90
4.65
5.27
6.68
7.13
5.29
0.99
-4.59
-9.36
-11.37
-9.85
-5.59
-0.53
3.31
4.80
4.06
2.17
0.21
-1.52
-3.61
-7.05
-12.17
-18.17
-23.20
-25.24
-23.13
-17.40
-10.07
-3.79
-0.56
-0.88
-3.62
-6.73
-8.44
-8.16
-6.71
-5.60
-5.98
-7.86
-10.12
-11.21
-10.23
-7.62
-4.99
-4.22
-6.31
-10.72
-15.55
-18.46
-17.84
-13.61
-7.25
-0.90
3.77
6.36
7.88
9.92
13.59
18.59
23.36
26.00
25.45
22.24
18.26
15.69
15.64
17.49
19.28
18.93
15.53
9.85
3.86
-0.46
-2.30
-2.25
-1.73
-1.78
-2.38
-2.54
-1.09
2.34
6.76
10.28
11.09
8.56
3.55
-2.09
-6.49
-8.74
-9.21
-9.12
-9.70
-11.31
-13.34
-14.62
-14.15
-11.72
-8.02
-4.26
-1.63
-0.65
-1.22
-2.91
-5.26
-8.04
-11.22
-14.77
-18.58
-22.37
-25.83
-28.67
-30.71
-31.97
-32.80
-33.97
-36.42
-40.91
-47.68
-56.29
-65.90
-75.85
-86.21
-97.81
-111.86
-129.03
-148.90
-169.87
-189.61
-205.75
-216.26
-219.46
-213.69
-197.17
-168.47
-127.38
-75.94
-18.82
37.37
85.74
121.27
142.25
150.51
150.24
146.08
141.29
137.02
132.76
127.66
121.78
116.38
113.35
113.99
117.90
122.96
126.18
125.32
120.05
112.12
104.44
99.40
97.58
97.50
96.51
92.49
85.12
76.04
67.98
63.13
61.82
62.36
61.97
58.56
51.87
43.65
36.64
32.94
32.74
34.20
34.51
31.63
25.43
17.74
11.30
8.18
8.53
10.56
11.58
9.70
4.89
-1.09
-5.69
-7.13
-5.46
-2.49
-0.76
-1.88
-5.66
-10.23
-13.08
-12.60
-9.04
-4.42
-1.44
-1.76
-5.21
-9.79
-12.87
-12.66
-9.30
-4.74
-1.65
-1.77
-4.94
-9.24
-12.09
-11.83
-8.66
-4.54
-2.04
-2.73
-6.31
-10.80
-13.65
-13.28
-9.98
-5.80
-3.35
-4.22
-8.12
-13.05
-16.44
-16.72
-14.20
-10.84
-9.11
-10.38
-14.18
-18.46
-20.86
-20.11
-16.81
-13.05
-11.10
-12.03
-15.10
-18.21
-19.11
-16.85
-12.27
-7.61
-5.09
-5.59
-8.19
-10.58
-10.52
-7.16
-1.56
3.82
6.65
6.07
3.15
0.28
-0.30
2.15
6.47
10.27
11.51
9.64
5.91
2.58
1.52
3.07
5.91
7.81
7.19
3.96
-0.35
-3.48
-3.75
-1.07
3.06
6.36
7.21
5.52
2.73
1.04
1.98
5.61
10.43
14.22
15.49
14.26
12.02
10.85
12.21
16.05
20.88
24.63
26.00
25.11
23.45
22.98
24.89
28.93
33.47
36.43
36.50
33.85
29.96
26.78
25.56
26.19
27.31
27.13
24.62
20.07
14.89
10.81
8.83
8.61
8.74
7.54
4.16
-0.97
-6.32
-10.11
-11.35
-10.38
-8.65
-7.90
-9.17
-12.23
-15.79
-18.23
-18.63
-17.26
-15.44
-14.80
-16.25
-19.46
-23.02
-25.22
-25.11
-22.97
-20.23
-18.59
-18.99
-21.07
-23.46
-24.56
-23.59
-21.06
-18.42
-17.10
-17.65
-19.43
-20.98
-21.02
-19.26
-16.62
-14.69
-14.73
-16.90
-20.23
-23.15
-24.41
-23.77
-22.11
-20.79
-20.82
-22.24
-24.15
-25.20
-24.45
-21.90
-18.54
-15.76
-14.47
-14.69
-15.47
-15.48
-13.86
-10.73
-7.14
-4.52
-3.66
-4.34
-5.40
-5.41
-3.53
-0.09
3.60
5.96
6.09
4.30
1.93
0.62
1.38
3.97
7.06
8.91
8.44
5.79
2.23
-0.50
-1.19
0.19
2.49
4.06
3.82
1.81
-0.85
-2.60
-2.43
-0.52
1.84
3.02
2.02
-0.93
-4.49
-6.94
-7.28
-5.74
-3.64
-2.57
-3.38
-5.70
-8.12
-9.07
-7.78
-4.71
-1.31
0.84
1.00
-0.38
-1.92
-2.21
-0.64
2.20
4.88
6.00
5.10
2.89
0.90
0.57
2.38
5.60
8.67
10.17
9.60
7.63
5.67
5.00
5.98
7.91
9.39
9.29
7.40
4.54
2.13
1.27
2.09
3.68
4.62
3.91
1.61
-1.24
-3.23
-3.54
-2.63
-2.00
-3.50
-8.09
-15.28
-23.25
-29.71
-33.07
-33.20
-31.48
-29.99
-30.42
-33.21
-37.55
-41.84
-44.68
-45.58
-45.09
-44.29
-43.96
-44.06
-43.76
-41.93
-37.99
-32.37
-26.47
-21.91
-19.55
-19.00
-18.76
-16.92
-12.25
-4.89
3.75
11.65
17.40
20.75
22.71
24.86
28.31
33.08
38.05
41.66
42.92
41.96
40.02
38.75
39.23
41.37
43.95
45.41
44.86
42.62
40.16
39.16
40.50
43.74
47.29
49.34
48.91
46.32
42.91
40.20
38.87
38.46
37.67
35.27
30.91
25.35
20.13
16.63
15.31
15.46
15.57
14.23
10.90
6.16
1.39
-2.07
-3.71
-4.12
-4.58
-6.24
-9.36
-13.16
-16.24
-17.44
-16.62
-14.74
-13.30
-13.41
-15.11
-17.42
-18.90
-18.66
-16.87
-14.76
-13.83
-14.91
-17.68
-20.81
-22.73
-22.52
-20.38
-17.51
-15.40
-14.91
-15.92
-17.39
-18.04
-17.05
-14.58
-11.63
-9.54
-9.10
-10.24
-12.03
-13.22
-12.96
-11.32
-9.23
-8.00
-8.48
-10.63
-13.51
-15.78
-16.55
-15.87
-14.75
-14.57
-16.15
-19.28
-22.66
-24.64
-24.08
-21.00
-16.60
-12.50
-9.83
-8.60
-7.79
-6.00
-2.46
2.44
7.29
10.42
10.91
9.15
6.60
5.01
5.40
7.47
9.85
10.98
10.05
7.54
4.90
3.73
4.75
7.41
10.18
11.52
10.77
8.49
6.11
5.08
5.94
8.09
10.15
10.90
9.97
8.05
6.48
6.40
8.05
10.62
12.72
13.28
12.17
10.26
8.99
9.47
11.90
15.47
18.83
20.99
21.81
22.00
22.66
24.55
27.63
31.13
34.07
35.94
36.99
38.02
39.85
42.77
46.27
49.40
51.26
51.75
51.63
52.21
54.71
59.47
65.44
70.28
70.92
64.81
51.01
30.82
7.55
-14.66
-32.43
-44.31
-51.04
-54.72
-57.48
-60.35
-62.93
-64.18
-63.46
-61.26
-59.15
-58.75
-60.74
-64.31
-67.55
-68.54
-66.52
-62.23
-57.53
-54.15
-52.63
-51.96
-50.20
-45.73
-38.36
-29.50
-21.46
-16.11
-13.94
-13.88
-14.06
-12.87
-9.87
-5.84
-2.14
0.19
0.97
0.93
1.00
1.59
2.21
1.88
-0.11
-3.42
-6.58
-7.77
-5.86
-1.32
3.95
7.56
8.14
6.14
3.58
2.84
5.11
9.60
13.99
15.79
13.91
9.24
4.05
0.73
0.38
2.30
4.44
4.58
1.49
-4.60
-12.29
-19.84
-26.14
-31.18
-35.93
-41.75
-49.49
-59.19
-69.99
-80.66
-90.17
-98.14
-104.81
-110.62
-115.72
-119.84
-122.59
-123.85
-123.92
-123.23
-121.67
-118.12
-110.48
-96.58
-75.33
-47.52
-15.92
15.52
43.01
64.02
78.08
86.45
91.35
94.98
98.60
102.33
105.38
106.81
106.41
104.95
103.89
104.57
107.29
110.91
113.32
112.55
107.96
100.61
92.76
86.58
82.85
80.51
77.22
70.85
60.93
48.98
37.92
30.52
27.81
28.55
29.91
29.06
24.78
18.05
11.46
7.60
7.51
10.06
12.58
12.44
8.54
1.87
-5.12
-9.97
-11.53
-10.39
-8.28
-6.79
-6.37
-6.17
-4.68
-0.84
5.08
11.59
16.60
18.72
18.00
15.90
14.51
15.42
18.83
23.42
27.07
28.16
26.36
22.75
19.24
17.37
17.43
18.36
18.31
15.94
11.08
4.91
-0.76
-4.51
-6.19
-6.93
-8.46
-11.94
-17.20
-22.82
-26.79
-27.70
-25.60
-21.89
-18.53
-16.70
-16.20
-15.55
-12.94
-7.45
0.23
8.07
13.62
15.44
13.70
10.08
6.76
5.21
5.43
6.03
5.17
1.76
-3.84
-9.92
-14.30
-15.60
-14.10
-11.60
-10.56
-12.52
-17.30
-22.88
-26.59
-26.58
-23.01
-17.98
-14.26
-13.57
-15.44
-17.36
-16.20
-10.17
-0.02
11.15
19.58
22.80
20.82
15.98
11.38
9.10
9.21
10.03
9.50
6.63
2.11
-2.13
-4.06
-2.91
0.47
4.07
5.97
5.44
3.24
1.13
0.71
2.38
5.07
6.81
6.02
2.41
-2.75
-7.31
-9.41
-8.61
-6.00
-3.61
-2.97
-4.31
-6.40
-7.28
-5.58
-1.31
4.03
8.30
10.09
9.47
7.93
7.47
9.36
13.36
17.77
20.43
19.94
16.45
11.39
6.75
3.84
2.71
2.15
0.53
-3.18
-8.82
-15.17
-20.53
-23.74
-24.74
-24.63
-25.06
-27.23
-31.25
-36.09
-40.08
-41.96
-41.59
-40.08
-39.20
-40.29
-43.52
-47.78
-51.32
-52.82
-52.14
-50.39
-49.14
-49.40
-50.90
-52.25
-51.65
-48.00
-41.46
-33.39
-25.48
-18.82
-13.34
-7.99
-1.51
6.56
15.40
23.19
28.08
29.18
27.16
23.90
21.45
20.83
21.48
21.60
19.36
14.22
7.39
1.33
-1.58
-0.42
3.82
8.81
12.32
13.53
13.33
13.71
16.33
21.43
27.56
32.50
34.58
33.75
31.50
30.03
30.90
34.12
38.17
40.88
40.73
37.62
32.81
28.13
24.90
23.22
22.06
19.90
15.82
10.00
3.68
-1.53
-4.58
-5.52
-5.53
-6.21
-8.63
-12.80
-17.64
-21.63
-23.65
-23.59
-22.33
-21.22
-21.26
-22.58
-24.47
-25.82
-25.82
-24.49
-22.66
-21.53
-21.87
-23.62
-25.87
-27.36
-27.22
-25.48
-23.05
-21.22
-20.81
-21.72
-22.96
-23.21
-21.67
-18.61
-15.25
-13.14
-13.16
-15.03
-17.40
-18.59
-17.52
-14.35
-10.36
-7.22
-5.99
-6.52
-7.62
-7.73
-5.94
-2.55
1.09
3.39
3.51
1.83
-0.26
-1.23
-0.33
1.88
3.88
4.17
2.16
-1.38
-4.76
-6.34
-5.50
-2.99
-0.49
0.46
-0.68
-3.15
-5.34
-5.77
-4.04
-1.04
1.49
2.04
0.22
-3.10
-6.15
-7.38
-6.26
-3.53
-0.73
0.79
0.65
-0.45
-1.19
-0.49
1.74
4.56
6.47
6.42
4.41
1.49
-0.78
-1.27
0.05
2.08
3.27
2.59
0.18
-2.67
-4.25
-3.42
-0.33
3.60
6.47
7.01
5.26
2.49
0.52
0.51
2.39
4.85
6.15
5.24
2.40
-0.89
-2.79
-2.18
0.63
4.10
6.24
5.92
3.38
0.16
-1.83
-1.42
1.14
4.33
6.28
5.93
3.58
0.75
-0.70
0.27
3.33
6.91
9.12
8.92
6.58
3.59
1.74
2.07
4.29
6.99
8.52
7.96
5.65
3.02
1.72
2.56
5.07
7.72
8.81
7.57
4.54
1.33
-0.36
0.27
2.60
5.05
5.97
4.72
1.95
-0.70
-1.69
-0.48
2.11
4.45
5.03
3.44
0.51
-2.16
-3.14
-2.09
0.14
1.95
2.09
0.38
-2.16
