1589051416.00
64.000000
-0.00
-0.00
-0.00
-0.00
-0.00
-0.00
-0.00
-0.00
-0.00
-0.00
0.00
0.01
0.01
-0.00
-0.03
-0.05
-0.05
0.00
0.13
0.36
0.66
1.01
1.37
1.72
2.06
2.40
2.79
3.24
3.80
4.42
5.06
5.66
6.20
6.68
7.15
7.68
8.31
9.14
10.09
11.04
11.88
12.56
13.14
13.76
14.65
15.96
17.91
20.32
22.90
25.38
27.58
29.57
31.68
34.32
37.81
42.54
48.15
54.10
59.83
64.97
69.58
74.15
79.35
85.71
93.76
102.99
112.61
121.74
129.80
136.80
143.35
150.75
157.69
166.44
177.61
191.33
206.43
220.00
227.68
224.79
207.94
176.21
131.99
79.15
22.07
-35.99
-93.48
-150.16
-206.21
-261.42
-314.97
-365.39
-411.66
-452.99
-488.70
-517.90
-539.29
-551.26
-552.21
-541.13
-517.75
-483.10
-439.04
-388.02
-332.63
-275.29
-218.03
-162.45
-109.76
-60.73
-16.02
23.94
58.89
88.63
113.02
132.06
145.87
154.85
159.73
161.41
160.83
158.76
155.67
151.62
146.47
140.01
132.02
122.28
110.75
97.87
84.90
74.00
67.73
68.04
75.22
87.51
101.51
113.47
120.74
122.56
119.83
114.22
107.18
99.42
91.01
82.14
73.12
64.58
57.20
51.29
46.63
42.57
38.38
33.54
28.02
22.15
16.58
11.90
8.47
6.27
4.93
3.95
2.93
1.73
0.45
-0.63
-1.29
-1.45
-1.19
-0.63
0.14
1.12
2.29
3.43
4.22
4.35
3.76
2.77
1.90
1.55
1.72
1.94
1.55
0.16
-2.09
-4.57
-6.50
-7.42
-7.37
-6.84
-6.39
-6.27
-6.35
-6.26
-5.66
-4.53
-3.18
-2.05
-1.49
-1.58
-2.05
-2.50
-2.60
-2.31
-1.93
-1.89
-2.51
-3.78
-5.30
-6.47
-6.75
-5.90
-4.13
-1.96
0.03
1.47
2.30
2.74
3.12
3.62
4.17
4.51
4.41
3.80
2.92
2.16
1.91
2.30
3.18
4.17
4.97
5.52
5.99
6.67
7.72
8.94
9.95
10.38
10.08
9.25
8.25
7.32
6.48
5.49
3.92
1.55
-1.50
-4.72
-7.49
-9.23
-9.65
-8.84
-7.20
-5.30
-3.57
-2.21
-1.12
-0.10
1.06
2.31
3.43
4.13
4.32
4.24
4.28
4.79
5.79
6.94
7.54
6.94
4.74
1.04
-3.72
-8.86
-13.73
-17.84
-20.91
-22.75
-23.13
-21.73
-18.30
-12.86
-5.88
1.77
8.97
14.70
18.39
20.06
20.19
19.44
18.31
17.11
15.97
15.03
14.52
14.75
15.91
17.94
20.35
22.18
22.39
20.27
15.83
9.90
3.89
-0.75
-3.12
-2.30
1.10
5.27
7.77
6.15
-1.28
-14.84
-33.17
-53.34
-71.65
-84.78
-90.63
-88.89
-80.98
-69.35
-56.65
-45.00
-35.74
-29.39
-25.94
-24.86
-25.17
-25.66
-25.23
-23.23
-19.70
-15.19
-10.47
-6.15
-2.48
0.66
3.51
6.22
8.85
11.43
14.09
17.09
20.74
25.18
30.35
35.90
41.31
46.09
49.95
52.93
55.29
57.41
59.62
62.09
64.83
67.63
70.18
72.13
73.13
72.86
71.05
67.47
62.02
54.84
46.32
37.27
28.62
21.31
15.98
12.76
11.24
10.62
10.05
8.87
6.84
4.05
0.82
-2.56
-5.95
-9.39
-13.05
-17.02
-21.27
-25.58
-29.66
-33.26
-36.29
-38.79
-40.90
-42.71
-44.24
-45.41
-46.13
-46.33
-46.06
-45.42
-44.55
-43.49
-42.22
-40.75
-39.12
-37.48
-36.07
-35.06
-34.45
-33.99
-33.23
-31.65
-28.90
-24.92
-20.07
-14.95
-10.19
-6.28
-3.38
-1.44
-0.19
0.61
1.14
1.48
1.71
1.91
2.29
3.03
4.27
6.01
8.06
10.14
11.95
13.27
14.03
14.31
14.19
13.75
12.93
11.64
9.80
7.51
4.91
2.16
-0.66
-3.60
-6.70
-9.87
-12.82
-15.08
-16.16
-15.74
-13.79
-10.56
-6.47
-1.97
2.51
6.59
9.97
12.44
13.92
14.51
14.39
13.76
12.82
11.71
10.61
9.69
9.10
8.93
9.08
9.34
9.38
8.99
8.10
6.85
5.45
4.06
2.75
1.44
0.02
-1.62
-3.44
-5.40
-7.39
-9.35
-11.29
-13.18
-14.98
-16.48
-17.46
-17.68
-17.05
-15.64
-13.63
-11.31
-8.93
-6.73
-4.86
-3.42
-2.44
-1.86
-1.61
-1.57
-1.67
-1.81
-1.99
-2.12
-2.11
-1.84
-1.23
-0.36
0.57
1.32
1.70
1.66
1.36
1.02
0.84
0.92
1.18
1.47
1.63
1.57
1.29
0.87
0.42
0.05
-0.11
0.07
0.71
1.91
3.69
5.96
8.54
11.11
13.35
14.95
15.75
15.76
15.19
14.34
13.49
12.78
12.16
11.51
10.68
9.63
8.38
7.02
5.60
4.14
2.60
1.00
-0.55
-1.93
-3.05
-3.92
-4.67
-5.49
-6.56
-7.99
-9.75
-11.72
-13.71
-15.49
-16.77
-17.27
-16.76
-15.14
-12.47
-9.03
-5.17
-1.33
2.12
4.91
6.93
8.18
8.77
8.85
8.52
7.84
6.83
5.48
3.88
2.21
0.66
-0.60
-1.55
-2.30
-3.07
-4.02
-5.26
-6.73
-8.32
-9.86
-11.21
-12.30
-13.17
-14.01
-15.12
-16.72
-18.86
-21.26
-23.33
-24.38
-23.90
-21.80
-18.43
-14.39
-10.25
-6.36
-2.78
0.59
3.76
6.57
8.73
9.99
10.32
9.98
9.45
9.15
9.32
9.90
10.60
11.11
11.31
11.33
11.46
12.02
13.08
14.50
15.90
16.95
17.53
17.83
18.24
19.14
20.69
22.72
24.91
26.95
28.90
31.19
34.51
39.47
46.23
54.30
62.64
70.04
75.57
78.95
80.55
81.27
82.22
84.45
88.80
95.69
105.01
115.83
126.30
133.90
135.98
130.68
117.65
98.41
75.87
53.35
33.40
17.04
3.56
-8.85
-22.15
-37.63
-55.53
-75.21
-95.56
-115.42
-133.80
-149.86
-162.79
-171.74
-175.97
-175.16
-169.59
-160.17
-148.27
-135.34
-122.65
-111.08
-101.07
-92.72
-85.97
-80.77
-77.04
-74.78
-73.79
-73.47
-73.02
-71.42
-67.79
-61.91
-54.52
-46.95
-40.72
-36.69
-34.52
-33.35
-32.01
-29.66
-26.41
-23.27
-21.28
-21.24
-22.94
-25.23
-27.31
-28.58
-28.79
-28.16
-27.16
-25.68
-23.52
-20.05
-14.24
-6.27
3.33
13.85
24.43
34.16
42.65
48.77
51.21
54.77
61.46
71.24
83.17
96.52
107.10
115.17
119.70
118.70
110.41
94.59
72.11
45.55
17.89
-8.83
-33.53
-56.73
-78.77
-98.80
-115.38
-126.55
-130.57
-127.04
-117.22
-102.90
-86.40
-69.19
-51.62
-33.83
-15.96
1.54
17.64
31.04
41.01
47.27
50.46
51.90
52.74
53.63
54.56
55.07
54.53
52.83
50.25
47.51
45.45
44.48
44.43
44.70
44.52
43.25
40.66
36.78
31.98
26.83
22.02
18.24
16.03
15.54
16.46
18.06
19.49
20.13
19.78
18.69
17.31
15.97
14.76
13.66
12.74
12.27
12.63
14.10
16.49
19.17
21.21
21.85
20.82
18.54
15.81
13.56
12.37
12.28
12.89
13.65
14.18
14.45
14.73
15.37
16.51
17.99
19.31
19.93
19.57
18.34
16.69
15.17
14.12
13.40
12.54
10.88
8.06
4.14
-0.39
-4.88
-8.88
-12.34
-15.55
-18.83
-22.14
-25.00
-26.70
-26.65
-24.80
-21.78
-18.64
-16.39
-15.45
-15.51
-15.75
-15.34
-13.93
-11.83
-9.76
-8.37
-7.89
-8.02
-8.15
-7.81
-6.88
-5.66
-4.62
-4.13
-4.18
-4.50
-4.69
-4.51
-4.01
-3.54
-3.59
-4.55
-6.49
-9.08
-11.65
-13.38
-13.60
-12.08
-9.10
-5.28
-1.36
2.14
5.05
7.53
9.87
12.20
14.41
16.19
17.22
17.39
16.86
16.02
15.26
14.78
14.44
13.96
13.11
11.86
10.45
9.21
8.29
7.49
6.33
4.26
1.06
-2.97
-7.12
-10.61
-13.01
-14.52
-15.88
-17.93
-21.06
-24.97
-28.75
-31.32
-31.91
-30.42
-27.36
-23.49
-19.48
-15.62
-11.88
-8.10
-4.24
-0.49
2.76
5.18
6.65
7.33
7.61
7.87
8.29
8.80
9.11
8.91
8.06
6.68
5.08
3.61
2.48
1.63
0.81
-0.29
-1.85
-3.77
-5.77
-7.52
-8.87
-9.98
-11.24
-13.02
-15.29
-17.48
-18.66
-17.89
-14.75
-9.61
-3.54
2.16
6.58
9.52
11.43
13.10
15.08
17.41
19.71
21.38
22.12
22.06
21.71
21.76
22.73
24.76
27.61
30.86
34.18
37.42
40.65
43.92
47.04
49.32
49.78
47.41
41.74
33.03
22.12
10.05
-2.48
-15.25
-28.28
-41.32
-53.49
-63.24
-68.97
-69.61
-65.17
-56.70
-45.89
-34.37
-23.27
-13.17
-4.25
3.36
9.45
13.74
16.04
16.49
15.66
14.45
13.80
14.43
16.52
19.67
23.10
25.97
27.81
28.70
29.14
29.82
31.08
32.77
34.19
34.48
33.07
29.91
25.53
20.82
16.63
13.49
11.49
10.43
10.09
10.36
11.33
13.06
15.47
18.11
20.29
21.34
20.95
19.33
17.12
15.04
13.53
12.54
11.60
10.14
7.98
5.42
3.09
1.63
1.33
1.97
2.90
3.37
2.93
1.50
-0.65
-3.17
-6.00
-9.40
-13.96
-20.13
-27.86
-36.42
-44.50
-50.66
-53.88
-54.06
-51.98
-48.93
-46.12
-44.19
-43.04
-42.13
-40.89
-39.14
-37.18
-35.44
-33.99
-32.34
-29.68
-25.26
-18.91
-11.13
-2.88
4.61
10.57
15.00
18.62
22.52
27.63
34.30
42.20
50.56
58.15
64.07
68.10
70.63
72.08
72.61
71.74
68.87
63.76
55.80
45.30
33.76
23.25
15.18
10.03
6.84
4.72
3.57
2.23
0.50
-0.27
1.97
8.38
19.22
32.86
48.12
64.72
79.45
89.41
93.46
91.95
84.96
72.60
52.94
25.03
-10.90
-58.29
-119.44
-192.45
-270.99
-346.88
-411.42
-460.23
-491.11
-478.65
-412.20
-304.83
-186.07
-81.08
-8.46
41.11
75.71
100.13
116.95
124.91
122.67
112.71
100.85
92.31
90.20
91.55
91.60
86.04
69.61
41.04
5.01
-29.84
-55.76
-68.38
-69.96
-65.11
-58.12
-53.19
-52.16
-54.00
-56.55
-58.57
-59.68
-61.01
-62.64
-63.26
-62.02
-58.59
-53.05
-45.71
-37.03
-27.12
-16.46
-5.30
6.20
17.70
28.67
38.77
47.97
56.45
64.51
72.30
80.16
88.80
99.50
112.84
128.14
143.74
157.74
168.84
176.46
180.56
181.43
180.04
176.42
169.80
159.55
146.39
132.51
120.63
112.71
109.82
112.72
120.30
129.67
137.12
139.45
134.51
121.37
99.93
64.25
15.76
-37.08
-83.69
-118.21
-140.99
-155.45
-164.70
-172.35
-177.96
-178.98
-174.09
-164.15
-151.56
-138.51
-126.54
-114.81
-103.85
-93.92
-84.18
-74.10
-63.64
-53.16
-42.54
-31.83
-21.82
-14.04
-9.25
-6.76
-5.45
-4.16
-2.01
2.57
10.52
21.66
34.71
48.59
62.91
77.39
91.64
105.28
119.34
134.37
150.20
165.69
179.33
189.45
193.74
190.06
171.09
136.35
93.04
52.79
23.97
8.52
3.90
5.87
11.06
17.75
26.69
37.34
48.39
58.04
64.05
66.95
67.87
68.27
69.58
73.74
79.36
84.70
88.56
90.85
92.06
92.14
90.42
85.33
80.23
72.33
59.50
41.79
21.35
0.42
-20.17
-40.52
-60.92
-81.11
-106.74
-140.65
-181.36
-224.05
-264.46
-300.99
-333.97
-364.37
-392.83
-427.00
-470.02
-518.45
-563.52
-597.08
-615.31
-618.79
-611.02
-552.64
-432.50
-272.14
-111.31
22.60
122.86
194.13
243.30
275.90
295.78
297.09
279.46
247.07
209.15
175.11
151.70
142.61
148.60
167.47
189.04
208.36
221.01
226.34
225.08
217.82
205.35
189.06
171.08
150.54
128.36
107.00
90.49
81.51
80.22
85.07
93.84
104.34
112.92
117.05
115.19
107.72
95.64
79.85
61.25
40.77
19.45
-2.00
-22.41
-40.36
-53.92
-61.61
-62.84
-58.17
-49.08
-37.48
-25.17
-13.46
-3.16
5.56
12.75
18.35
22.02
23.34
22.07
18.44
13.25
7.61
2.87
0.10
-0.05
2.52
7.32
13.45
19.83
25.39
29.49
31.84
32.56
32.11
30.98
29.55
27.96
26.08
23.76
21.05
18.23
15.75
13.85
12.24
10.14
6.56
0.92
-6.58
-15.00
-22.98
-29.48
-34.20
-37.64
-40.81
-44.50
-49.02
-54.10
-59.17
-63.73
-67.79
-71.69
-75.91
-80.57
-85.12
-88.44
-89.31
-87.10
-82.26
-76.28
-71.05
-68.00
-67.48
-68.77
-70.53
-71.62
-71.50
-70.31
-68.40
-65.84
-62.18
-56.71
-48.95
-39.19
-28.79
-19.83
-14.52
-14.26
-19.27
-28.56
-40.51
-53.70
-67.59
-82.55
-99.44
-118.78
-140.35
-163.09
-185.73
-207.36
-227.69
-246.76
-264.26
-279.01
-289.05
-292.29
-287.48
-274.96
-256.87
-236.62
-217.92
-203.69
-195.31
-192.32
-192.87
-194.43
-194.82
-192.84
-188.53
-182.79
-176.82
-171.50
-167.20
-163.79
-161.08
-159.02
-157.65
-156.90
-156.32
-155.08
-152.18
-146.90
-139.05
-129.13
-117.99
-106.50
-95.13
-83.80
-71.95
-58.94
-44.41
-28.53
-11.96
4.37
19.74
33.92
47.30
60.65
74.77
90.03
106.22
122.62
138.36
152.83
166.01
178.40
190.94
204.70
220.58
239.09
260.04
282.25
303.54
321.05
332.00
334.66
328.95
316.54
300.11
282.24
264.52
247.21
229.65
211.12
191.70
172.49
155.32
141.95
133.39
129.53
129.30
131.12
133.49
135.46
136.68
137.19
137.13
136.39
134.53
130.96
125.25
117.41
108.05
98.17
88.86
80.85
74.29
68.79
63.69
58.52
53.18
47.97
43.20
38.94
34.79
29.99
23.81
15.87
6.26
-4.53
-15.77
-26.69
-36.41
-44.01
-48.52
-49.16
-45.67
-38.61
-29.30
-19.48
-10.79
-4.23
-0.04
2.21
3.14
3.30
2.99
2.38
1.61
0.92
0.50
0.35
0.10
-0.85
-3.21
-7.40
-13.37
-20.54
-28.04
-34.97
-40.65
-44.67
-46.77
-46.80
-44.61
-40.33
-34.50
-28.14
-22.50
-18.61
-16.78
-16.41
-16.27
-14.97
-11.61
-6.05
1.11
8.89
16.33
22.70
27.58
30.73
32.03
31.47
29.23
25.71
21.48
17.15
13.20
9.81
6.86
3.99
0.80
-2.90
-7.04
-11.23
-14.95
-17.76
-19.54
-20.57
-21.46
-22.89
-25.40
-29.15
-33.87
-38.94
-43.57
-46.94
-48.36
-47.26
-43.26
-36.23
-26.40
-14.45
-1.50
11.16
22.29
31.11
37.39
41.43
43.84
45.32
46.40
47.39
48.35
49.23
49.86
50.10
49.80
48.98
47.76
46.49
45.57
45.30
45.71
46.39
46.67
45.77
43.16
38.73
32.78
25.91
18.80
12.17
6.68
2.94
1.49
2.57
6.07
11.46
17.93
24.61
30.78
35.94
39.81
42.25
43.21
42.74
41.04
38.40
35.20
31.84
28.66
25.90
23.63
21.79
20.21
18.67
16.99
15.06
12.93
10.74
8.64
6.72
4.92
3.07
0.94
-1.67
-4.84
-8.43
-12.06
-15.20
-17.16
-17.30
-15.22
-10.84
-4.53
2.96
10.69
17.70
23.32
27.24
29.57
30.61
30.78
30.35
29.51
28.38
27.12
25.92
25.02
24.57
24.51
24.61
24.54
23.99
22.86
21.28
19.47
17.67
15.96
14.30
12.59
10.75
8.76
6.61
4.29
1.77
-1.03
-4.06
-7.08
-9.66
-11.21
-11.20
-9.40
-5.94
-1.37
3.58
8.21
12.03
14.87
16.77
17.90
18.40
18.34
17.71
16.61
15.21
13.81
12.74
12.20
12.20
12.53
12.83
12.78
12.25
11.29
10.12
8.99
8.07
7.33
6.69
5.99
5.12
4.06
2.79
1.33
-0.34
-2.19
-4.15
-6.01
-7.43
-8.03
-7.51
-5.78
-3.04
0.28
3.72
6.89
9.55
11.61
13.00
13.66
13.47
12.38
10.45
7.88
4.99
2.11
-0.51
-2.68
-4.32
-5.36
-5.84
-5.87
-5.64
-5.42
-5.45
-5.82
-6.46
-7.21
-7.86
-8.27
-8.37
-8.17
-7.73
-7.16
-6.58
-6.11
-5.79
-5.52
-5.09
-4.17
-2.55
-0.19
2.74
5.88
8.81
11.16
12.66
13.19
12.74
11.44
9.56
7.42
5.36
3.61
2.26
1.32
0.72
0.39
0.28
0.29
0.26
0.03
-0.53
-1.38
-2.36
-3.20
-3.72
-3.89
-3.87
-3.93
-4.33
-5.18
-6.48
-8.09
-9.85
-11.56
-12.99
-13.87
-13.94
-13.03
-11.10
-8.36
-5.17
-1.91
1.08
3.60
5.57
6.97
7.82
8.14
8.00
7.55
6.99
6.50
6.23
6.23
6.43
6.68
6.81
6.67
6.19
5.40
4.46
3.54
2.80
2.32
2.07
1.93
1.73
1.30
0.46
-0.86
-2.65
-4.69
-6.59
-7.85
-8.05
-7.00
-4.84
-1.97
1.04
3.69
5.66
6.82
7.26
7.14
6.63
5.89
5.06
4.22
3.43
2.75
2.16
1.68
1.30
1.06
1.05
1.36
2.05
3.11
4.46
5.95
7.50
9.06
10.57
12.00
13.22
14.03
14.19
13.47
11.65
8.59
4.30
-1.03
-6.90
-12.58
-17.24
-20.27
-21.40
-20.84
-19.09
-16.77
-14.39
-12.24
-10.46
-9.05
-8.01
-7.34
-6.95
-6.71
-6.41
-5.89
-5.01
-3.76
-2.17
-0.31
1.76
3.95
6.11
8.02
9.40
9.94
9.39
7.64
4.77
0.93
-3.71
-9.04
-15.10
-21.90
-29.38
-37.23
-44.89
-51.60
-56.62
-59.42
-59.85
-58.08
-54.50
-49.59
-43.83
-37.64
-31.48
-25.75
-20.78
-16.73
-13.55
-11.02
-8.85
-6.89
-5.11
-3.58
-2.40
-1.61
-1.16
-1.04
-1.28
-1.96
-3.15
-4.80
-6.75
-8.73
-10.51
-11.89
-12.80
-13.21
-13.17
-12.75
-12.04
-11.15
-10.10
-8.84
-7.23
-5.16
-2.60
0.32
3.32
6.11
8.51
10.42
11.87
12.85
13.33
13.21
12.40
10.89
8.79
6.34
3.83
1.55
-0.30
-1.65
-2.59
-3.28
-3.92
-4.58
-5.26
-5.84
-6.21
-6.35
-6.39
-6.52
-6.96
-7.81
-9.06
-10.61
-12.23
-13.71
-14.79
-15.32
-15.17
-14.38
-13.00
-11.15
-8.95
-6.52
-4.00
-1.61
0.40
1.79
2.45
2.44
2.01
1.50
1.22
1.34
1.80
2.42
2.95
3.24
3.28
3.20
3.16
3.29
3.67
4.31
5.24
6.41
7.66
8.65
8.91
8.00
5.77
2.52
-1.08
-4.16
-6.04
-6.39
-5.33
-3.21
-0.50
2.44
5.50
8.49
11.05
12.70
13.02
11.90
9.63
6.82
4.14
2.28
1.56
1.86
2.76
3.74
4.46
4.81
4.86
4.75
5.03
6.08
7.97
10.40
12.85
14.82
15.98
16.12
15.27
14.68
15.41
17.86
21.61
26.01
30.68
35.57
40.70
45.98
53.18
63.19
75.38
87.64
97.82
105.02
109.53
112.39
114.74
120.72
132.90
150.92
171.50
190.61
205.91
217.04
224.98
231.36
242.06
261.14
288.79
320.74
350.42
372.24
382.44
379.27
337.16
247.04
121.37
-10.35
-121.11
-199.96
-249.49
-278.17
-294.40
-303.72
-304.58
-296.78
-280.94
-261.02
-243.08
-231.43
-228.14
-233.76
-248.09
-267.33
-288.41
-310.27
-327.69
-337.62
-336.48
-321.64
-293.16
-254.19
-207.87
-158.05
-108.34
-61.94
-22.50
7.63
26.90
34.46
30.61
18.26
1.61
-14.81
-27.31
-35.10
-38.54
-39.04
-38.49
-38.61
-40.27
-43.58
-47.71
-50.99
-52.85
-52.64
-50.18
-46.39
-42.96
-42.21
-46.32
-56.43
-65.06
-66.20
-56.76
-38.82
-18.32
-0.23
13.45
23.47
32.03
41.40
51.08
59.17
63.32
61.38
53.78
42.95
32.16
23.20
18.12
16.03
14.52
10.76
1.60
-13.67
-33.89
-56.60
-78.74
-96.74
-108.18
-111.47
-99.13
-73.02
-38.72
-3.10
28.08
51.61
67.68
78.21
85.59
90.95
92.21
86.88
73.12
52.11
26.02
-0.83
-24.06
-40.96
-51.53
-58.66
-65.01
-71.69
-78.02
-82.26
-82.62
-78.54
-70.68
-60.08
-47.72
-33.02
-14.45
8.12
32.98
56.98
76.45
88.68
92.90
90.14
82.87
73.73
64.56
56.21
48.94
42.77
37.68
33.53
29.86
25.89
20.70
13.42
3.62
-8.48
-22.20
-36.53
-50.37
-62.66
-72.48
-79.15
-82.41
-82.42
-79.81
-75.65
-71.11
-67.32
-65.02
-64.49
-65.54
-67.54
-69.61
-70.71
-69.89
-66.54
-60.51
-52.17
-42.24
-31.64
-21.12
-11.18
-2.01
6.39
14.12
21.30
28.16
35.00
42.06
49.41
56.76
63.48
68.85
72.42
74.32
75.25
76.11
77.48
79.28
80.72
80.70
78.42
73.80
67.59
61.01
55.18
50.69
47.28
44.07
39.93
33.94
25.66
15.30
3.58
-8.46
-19.61
-28.66
-34.49
-36.15
-33.02
-25.02
-12.77
2.39
18.60
33.92
46.79
56.56
63.55
68.89
74.05
80.21
87.62
95.19
100.57
100.87
93.73
78.55
56.97
32.55
9.38
-9.33
-22.39
-30.47
-35.32
-38.51
-40.67
-41.68
-41.41
-40.47
-40.34
-42.74
-48.65
-57.69
-68.31
-78.69
-87.70
-95.42
-102.68
-110.02
-116.66
-120.49
-119.01
-110.71
-96.08
-77.37
-57.46
-38.43
-20.76
-3.69
13.60
30.89
46.43
57.39
60.97
55.58
41.51
21.00
-2.33
-24.38
-41.55
-51.45
-53.33
-47.89
-36.75
-21.91
-5.25
11.49
26.61
38.46
45.69
47.70
45.05
39.36
32.86
27.57
24.60
23.84
24.22
24.27
22.74
19.03
13.31
6.27
-1.13
-7.87
-13.10
-16.11
-16.52
-14.41
-10.31
-5.16
0.03
4.48
7.93
10.63
13.18
16.17
19.97
24.60
29.83
35.34
40.85
46.25
51.51
56.55
61.19
65.03
67.51
68.05
66.22
61.90
55.31
46.98
37.66
28.16
19.35
12.11
7.26
5.49
7.16
12.17
19.89
29.23
38.83
47.41
54.06
58.53
61.20
63.07
65.40
69.21
74.89
81.77
88.12
91.49
89.37
80.02
63.15
40.12
13.70
-12.65
-35.74
-53.40
-64.84
-70.56
-71.89
-70.58
-68.44
-67.16
-68.12
-72.02
-78.53
-86.14
-92.34
-94.32
-89.86
-78.21
-60.36
-38.87
-17.17
1.31
13.93
19.43
18.09
11.69
2.95
-5.04
-9.73
-9.69
-4.91
3.40
13.42
23.40
32.18
39.39
45.25
50.17
54.39
57.80
59.99
60.38
58.46
53.96
46.84
37.39
26.18
13.99
1.72
-9.84
-20.18
-29.21
-37.16
-44.35
-50.93
-56.77
-61.60
-65.24
-67.85
-69.86
-71.78
-73.96
-76.40
-78.86
-81.12
-83.17
-85.16
-87.20
-89.14
-90.43
-90.31
-88.12
-83.69
-77.52
-70.59
-64.04
-58.78
-55.28
-53.54
-53.31
-54.25
-56.13
-58.80
-62.14
-65.92
-69.72
-73.02
-75.43
-76.84
-77.55
-78.07
-78.72
-79.39
-79.46
-78.08
-74.45
-68.05
-58.57
-45.57
-28.45
-6.57
20.17
50.95
83.89
116.59
146.76
172.88
194.21
210.44
221.28
226.33
225.51
219.57
210.34
200.47
192.48
187.96
187.01
188.38
190.08
190.18
187.42
181.41
172.61
161.92
150.35
138.55
126.60
113.85
99.23
81.77
61.32
38.99
17.10
-1.44
-13.93
-18.66
-15.24
-4.39
12.40
33.21
55.81
77.62
96.03
108.99
115.88
117.98
118.10
119.22
122.81
127.61
129.57
123.29
104.22
70.69
24.93
-27.53
-79.55
-124.47
-157.81
-177.97
-185.97
-184.53
-177.05
-166.66
-155.70
-145.30
-135.53
-125.66
-114.69
-101.87
-87.02
-70.77
-54.49
-40.04
-29.27
-23.40
-22.46
-24.97
-28.04
-28.22
-22.88
-11.50
3.62
18.04
26.95
27.39
19.79
7.85
-2.95
-7.85
-4.59
6.02
21.11
37.57
53.69
69.49
85.87
103.00
119.25
131.57
137.10
135.24
128.75
123.02
123.58
133.16
149.89
168.07
180.91
184.01
177.35
164.88
151.82
141.54
133.68
124.65
109.93
86.65
55.09
18.32
-19.51
-55.05
-86.92
-115.56
-142.18
-167.54
-191.20
-211.60
-226.78
-235.35
-237.15
-233.49
-226.52
-218.33
-210.11
-201.72
-192.04
-179.75
-164.24
-146.03
-126.65
-108.11
-92.23
-80.18
-72.33
-68.39
-67.60
-68.88
-70.97
-72.50
-72.21
-69.16
-63.02
-54.06
-43.11
-31.28
-19.64
-9.03
0.02
7.35
13.04
17.36
20.66
23.21
25.22
26.71
27.57
27.60
26.69
24.79
22.05
18.62
14.63
10.09
4.95
-0.73
-6.62
-12.14
-16.52
-19.20
-19.99
-19.20
-17.44
-15.33
-13.20
-10.96
-8.29
-4.89
-0.76
3.81
8.36
12.52
16.16
19.34
22.21
24.78
26.85
28.11
28.29
27.37
25.55
23.12
20.26
16.99
13.24
9.00
4.55
0.38
-2.95
-5.07
-5.92
-5.79
-5.23
-4.83
-5.07
-6.18
-8.16
-10.78
-13.67
-16.57
-19.51
-23.01
-28.00
-35.38
-45.53
-57.80
-70.60
-81.72
-89.22
-91.95
-89.97
-84.34
-76.63
-68.46
-60.99
-54.74
-49.75
-45.99
-43.54
-42.52
-42.91
-44.36
-46.31
-48.01
-48.84
-48.66
-47.88
-47.29
-47.54
-48.72
-50.33
-51.81
-52.63
-52.60
-52.07
-51.81
-52.75
-55.35
-59.21
-63.30
-67.15
-70.29
-72.36
-72.93
-71.65
-68.08
-61.39
-50.18
-33.62
-13.55
7.60
28.04
47.39
66.23
84.94
103.04
119.14
129.93
128.80
110.99
76.33
30.05
-19.47
-64.15
-98.22
-118.76
-127.40
-131.65
-138.25
-149.92
-164.82
-179.43
-192.11
-203.80
-216.49
-209.47
-170.88
-102.80
-21.21
56.53
120.93
169.92
200.13
219.69
234.34
243.80
246.60
242.08
231.10
217.45
202.67
187.74
174.48
163.28
151.34
136.46
118.39
99.17
81.38
65.99
52.35
39.28
24.21
3.50
-24.29
-57.29
-90.65
-118.63
-137.01
-143.78
-138.91
-124.79
-105.54
-85.07
-66.20
-50.40
-38.16
-29.44
-23.40
-18.32
-12.65
-5.64
2.51
10.84
18.12
23.41
26.31
27.08
26.30
24.38
21.58
18.13
14.48
11.13
8.51
6.63
5.14
3.47
1.22
-1.72
-5.02
-8.12
-10.39
-11.36
-10.67
-8.16
-3.92
1.80
8.52
15.77
23.15
30.57
38.19
46.40
55.46
65.33
75.46
84.81
92.06
95.99
95.84
91.57
83.90
74.10
63.54
53.36
44.20
36.25
29.43
23.69
19.11
15.86
14.08
13.63
14.06
14.68
14.79
13.97
12.20
9.83
7.40
5.32
3.68
2.20
0.47
-1.90
-5.06
-8.90
-13.24
-17.88
-22.75
-27.75
-32.68
-37.24
-41.05
-43.84
-45.57
-46.46
-46.89
-47.24
-47.63
-47.88
-47.42
-45.51
-41.45
-34.96
-26.25
-16.08
-5.47
4.65
13.68
21.40
27.86
33.07
36.92
39.11
39.32
37.47
33.88
29.34
24.99
22.11
21.68
24.16
29.21
35.79
42.49
47.95
51.31
52.28
51.02
47.87
42.98
36.32
27.72
17.08
4.52
-9.62
-24.83
-40.41
-55.49
-69.04
-79.92
-87.07
-89.76
-87.89
-81.98
-73.08
-62.39
-50.99
-39.61
-28.71
-18.64
-9.74
-2.36
3.24
7.01
9.19
10.18
10.34
9.85
8.65
6.56
3.47
-0.55
-5.31
-10.65
-16.55
-23.20
-31.01
-40.42
-51.85
-65.49
-81.14
-98.12
-115.11
-130.29
-141.63
-147.38
-146.50
-138.85
-125.16
-106.67
-84.75
-60.65
-35.44
-10.12
14.33
36.99
57.15
74.49
89.06
101.17
111.23
119.56
126.33
131.60
135.57
138.58
141.01
143.11
144.82
145.89
146.20
145.66
144.26
141.94
138.55
133.56
126.14
115.28
100.16
80.87
58.41
34.76
12.87
-4.03
-13.51
-14.94
-9.83
-1.29
7.44
13.73
16.26
15.20
11.76
7.26
2.56
-1.97
-8.05
-15.25
-21.93
-26.66
-29.17
-29.60
-29.24
-29.39
-31.04
-34.92
-40.69
-47.97
-56.66
-66.96
-78.87
-90.22
-98.24
-100.79
-97.57
-89.83
-79.73
-69.07
-58.89
-49.30
-40.37
-32.56
-26.78
-24.06
-24.99
-29.81
-38.14
-49.58
-61.68
-71.54
-76.58
-75.26
-67.73
-55.68
-41.95
-29.32
-19.49
-12.42
-7.00
-1.95
3.49
9.41
15.88
23.40
33.11
46.42
64.24
85.93
109.00
129.76
144.57
151.28
150.02
143.00
133.65
125.22
119.66
117.10
116.16
114.47
109.64
99.97
85.09
66.20
46.14
28.67
17.48
14.88
20.60
31.36
41.58
45.06
37.42
17.99
-9.46
-37.89
-59.30
-67.61
-60.51
-39.62
-9.23
25.66
60.80
93.04
119.98
139.36
149.11
147.82
135.54
114.03
86.29
55.43
23.43
-9.65
-45.72
-87.69
-137.70
-195.12
-255.53
-311.15
-353.14
-374.66
-373.40
-352.25
-317.83
-277.64
-237.51
-200.50
-167.34
-137.86
-112.10
-90.54
-73.53
-60.73
-50.95
-42.69
-34.80
-26.88
-19.15
-12.14
-6.27
-1.50
2.65
6.98
12.32
19.07
26.97
35.07
42.08
46.96
49.36
49.83
49.56
49.87
51.76
55.57
60.95
67.01
72.47
76.03
76.78
74.57
70.21
65.33
61.78
60.93
63.09
67.52
72.85
77.70
81.24
83.20
83.75
83.08
81.36
78.73
75.48
71.99
68.55
65.14
61.35
56.62
50.60
43.48
36.00
29.23
24.10
21.16
20.57
22.29
26.29
32.54
40.81
50.37
59.93
67.77
72.12
71.55
65.10
52.34
33.26
8.26
-21.72
-55.11
-89.59
-122.34
-150.42
-171.34
-183.67
-187.27
-183.24
-173.41
-159.66
-143.42
-125.35
-105.60
-84.18
-61.37
-37.87
-14.59
7.54
27.90
46.01
61.41
73.36
80.79
82.63
78.35
68.59
55.38
41.64
30.09
22.18
17.38
13.61
8.43
0.19
-11.22
-24.60
-38.26
-50.98
-62.20
-71.80
-79.31
-83.60
-83.21
-77.14
-65.58
-50.12
-33.24
-17.37
-4.07
6.16
13.71
19.10
22.61
24.05
23.24
20.41
16.52
12.97
11.12
11.59
14.03
17.31
20.04
21.18
20.35
17.75
13.88
9.25
4.11
-1.47
-7.40
-13.43
-19.03
-23.43
-25.87
-25.81
-23.21
-18.47
-12.29
-5.44
1.47
8.05
14.05
19.27
23.44
26.21
27.23
26.30
23.56
19.48
14.93
10.81
7.80
6.09
5.29
4.63
3.36
1.07
-2.26
-6.32
-10.78
-15.35
-19.81
-23.76
-26.61
-27.83
-27.26
-25.39
-23.28
-22.08
-22.43
-24.19
-26.43
-27.99
-28.00
-26.14
-22.51
-17.46
-11.41
-4.78
1.95
8.14
13.02
15.89
16.44
14.97
12.30
9.28
6.64
4.69
3.41
2.52
1.66
0.62
-0.42
-1.21
-1.64
-1.81
-1.85
-1.76
-1.49
-1.04
-0.57
0.30
1.62
2.89
3.47
3.24
2.96
3.90
7.19
13.25
23.05
36.10
50.09
61.61
67.90
68.06
62.98
54.65
45.52
40.30
42.22
51.59
65.98
82.31
98.63
114.27
129.54
145.22
165.09
191.24
222.05
252.80
278.61
296.76
306.62
308.78
284.49
225.39
139.40
46.76
-34.44
-96.24
-138.35
-164.09
-177.61
-183.05
-181.12
-172.99
-161.95
-153.12
-151.84
-159.57
-174.89
-193.64
-209.77
-214.55
-201.75
-171.24
-129.31
-85.30
-47.40
-20.41
-4.80
2.27
4.54
5.47
6.16
5.46
1.88
-4.70
-13.14
-21.88
-29.91
-36.46
-41.29
-44.80
-47.26
-48.05
-45.70
-38.90
-27.47
-12.79
2.70
16.32
25.72
29.86
29.62
27.64
27.21
31.00
39.90
52.51
65.71
75.67
79.42
76.29
68.42
59.97
55.42
57.62
66.38
78.43
88.43
91.03
82.99
64.55
39.46
13.76
-6.29
-16.32
-15.08
-4.78
9.87
23.23
30.67
30.05
22.39
11.24
1.25
-3.76
-2.23
4.61
13.48
20.69
23.82
22.84
19.97
18.47
20.95
28.04
38.05
47.64
53.18
52.22
44.34
31.32
16.48
3.61
-4.19
-5.19
0.59
11.44
24.25
35.01
39.67
35.35
21.48
0.40
-23.05
-43.06
-55.10
-57.73
-53.53
-48.30
-49.08
-61.65
-88.55
-128.25
-175.60
-223.17
-263.03
-288.36
-294.66
-280.41
-247.21
-199.48
-143.70
-87.32
-37.52
0.22
23.22
31.89
29.21
19.55
7.12
-5.19
-16.02
-25.17
-32.80
-38.75
-42.14
-41.58
-35.60
-23.34
-5.00
17.99
43.20
67.78
89.17
105.67
116.61
122.29
123.59
121.60
117.46
112.38
107.68
104.72
104.70
108.31
115.55
125.64
137.15
148.16
156.42
159.85
157.07
148.15
135.21
122.24
113.92
113.75
122.38
137.24
153.68
167.30
175.89
180.06
182.29
184.90
188.57
192.08
193.35
190.99
185.20
177.41
169.12
160.65
150.78
137.51
119.34
96.40
70.75
45.43
22.85
3.55
-13.82
-31.26
-49.56
-67.03
-79.79
-83.35
-74.70
-53.96
-24.45
8.41
38.73
61.63
74.01
74.63
63.86
43.54
16.85
-12.07
-38.83
-60.01
-74.17
-82.29
-87.27
-92.73
-101.51
-114.65
-131.40
-150.05
-169.17
-188.50
-209.09
-232.66
-260.65
-293.46
-330.22
-369.07
-407.58
-443.05
-472.68
-493.57
-503.07
-499.01
-480.33
-447.57
-402.89
-349.44
-290.45
-228.52
-165.70
-104.17
-46.95
2.08
39.19
62.34
72.31
72.61
68.02
62.71
58.95
56.95
55.80
54.65
53.41
52.60
52.74
53.74
54.83
55.01
53.62
50.70
46.88
43.21
40.50
39.04
38.52
38.23
37.43
35.67
32.97
29.80
26.80
24.49
23.05
22.30
21.79
21.08
19.89
18.22
16.33
14.56
13.17
12.26
11.72
11.37
10.99
10.46
9.80
9.12
8.54
8.16
8.00
8.01
8.09
8.18
8.22
8.20
8.14
8.06
8.00
7.94
7.89
7.84
7.79
7.74
7.68
7.63
7.58
7.53
7.48
7.43
7.38
7.33
7.28
7.23
7.18
7.14
7.09
7.04
7.00
6.96
6.91
6.87
6.82
6.78
6.74
6.70
6.65
6.61
6.57
6.53
6.49
6.45
6.41
6.37
6.33
6.30
6.26
6.22
6.18
6.15
6.11
6.07
6.04
6.00
5.97
5.93
5.90
5.86
5.83
5.79
5.76
5.73
5.70
5.66
5.63
5.60
5.57
5.53
5.50
5.47
5.44
5.41
5.38
5.35
5.32
5.29
5.26
5.23
5.20
5.17
5.14
5.11
5.09
5.06
5.03
5.00
4.97
4.95
4.92
4.89
4.87
4.84
4.81
4.79
4.76
4.74
4.71
4.68
4.66
4.63
4.61
4.58
4.56
4.54
4.51
4.49
4.46
4.44
4.42
4.39
4.37
4.35
4.32
4.30
4.28
4.26
4.23
4.21
4.19
4.17
4.14
4.12
4.10
4.08
4.06
4.04
4.02
3.99
3.97
3.95
3.93
3.91
3.89
3.87
3.85
3.83
3.81
3.79
3.77
3.75
3.72
3.69
3.65
3.61
3.56
3.51
3.44
3.36
3.26
3.15
3.01
2.86
2.69
2.52
2.35
2.17
1.99
1.80
1.59
1.36
1.11
0.85
0.57
0.29
-0.01
-0.34
-0.70
-1.11
-1.56
-2.05
-2.58
-3.13
-3.71
-4.35
-5.07
-5.91
-6.88
-7.99
-9.20
-10.49
-11.83
-13.22
-14.67
-16.25
-18.02
-20.01
-22.24
-24.66
-27.20
-29.79
-32.44
-35.18
-38.10
-41.30
-44.83
-48.69
-52.75
-56.89
-60.96
-64.85
-68.54
-71.97
-75.11
-77.83
-79.94
-81.19
-81.23
-79.72
-76.26
-70.44
-61.97
-50.79
-37.15
-21.61
-4.98
11.82
27.98
42.95
56.41
68.29
78.70
87.80
95.87
103.22
110.23
117.15
123.98
130.32
135.42
138.39
138.48
135.50
129.92
122.85
115.63
109.52
105.17
102.53
100.90
99.13
96.04
90.71
82.70
72.05
59.22
44.82
29.39
13.22
-3.66
-21.25
-39.42
-57.67
-75.11
-90.69
-103.61
-113.56
-120.73
-125.67
-128.92
-130.92
-131.98
-132.39
-132.47
-132.55
-132.67
-132.54
-131.56
-129.02
-124.45
-117.58
-108.38
-96.80
-82.59
-65.45
-45.38
-23.03
0.21
22.45
41.86
57.23
68.20
75.20
79.01
80.30
79.42
76.41
71.28
64.19
55.57
46.02
36.29
27.12
19.18
12.97
8.62
5.75
3.59
1.25
-1.92
-6.04
-10.78
-15.64
-20.27
-24.77
-29.60
-35.34
-42.37
-50.65
-59.61
-68.30
-75.51
-80.04
-80.87
-77.31
-69.17
-56.82
-41.20
-23.78
-6.38
9.18
21.50
29.93
34.61
36.33
36.09
34.74
32.87
30.93
29.42
29.01
30.41
34.11
40.07
47.64
55.87
63.83
71.03
77.46
83.37
88.84
93.50
96.46
96.68
93.43
86.77
77.55
66.97
56.01
44.92
33.18
19.91
4.30
-14.28
-36.54
-63.48
-95.92
-133.48
-173.43
-210.59
-238.32
-250.71
-244.53
-219.91
-179.28
-125.46
-60.76
12.45
89.80
163.41
222.36
255.64
256.30
224.76
169.32
103.63
42.39
-2.85
-26.22
-27.83
-12.32
13.33
41.90
67.44
85.99
95.75
96.76
90.32
78.37
63.19
47.28
33.11
22.83
17.73
17.77
21.45
26.35
30.07
31.36
30.50
29.03
28.78
30.81
34.87
39.45
42.61
42.85
39.75
34.06
27.28
21.02
16.49
14.14
13.71
14.37
15.17
15.33
14.53
12.91
10.86
8.77
6.79
4.85
2.75
0.40
-2.10
-4.58
-6.91
-9.07
-11.06
-12.77
-13.80
-13.59
-11.61
-7.71
-2.26
3.93
9.92
14.94
18.63
20.95
22.12
22.30
21.71
20.66
19.60
18.95
18.92
19.32
19.60
19.13
17.58
15.10
12.20
9.42
6.97
4.61
1.84
-1.71
-5.99
-10.61
-14.95
-18.61
-21.60
-24.29
-27.22
-30.76
-35.00
-39.61
-44.01
-47.51
-49.44
-49.28
-46.70
-41.70
-34.65
-26.24
-17.33
-8.86
-1.56
4.12
8.07
10.49
11.80
12.42
12.66
12.58
11.97
10.51
7.97
4.47
0.50
-3.17
-5.85
-7.17
-7.24
-6.48
-5.42
-4.40
-3.62
-3.22
-3.39
-4.44
-6.62
-9.87
-13.78
-17.70
-21.14
-24.07
-27.13
-31.28
-37.27
-45.02
-53.37
-60.33
-63.69
-61.82
-54.18
-41.45
-25.21
-7.45
9.85
25.08
37.09
45.23
49.35
49.75
47.15
42.47
36.70
30.63
24.79
19.42
14.51
9.89
5.28
0.37
-5.04
-11.10
-17.75
-24.80
-31.81
-38.17
-43.04
-45.50
-44.72
-40.21
-32.06
-21.08
-8.68
3.45
13.81
21.54
26.64
29.80
32.09
34.46
37.41
40.86
44.29
47.09
48.91
49.77
50.00
49.93
49.57
48.54
46.24
42.26
36.72
30.37
24.25
19.20
15.43
12.42
9.32
5.58
1.42
-2.16
-3.83
-2.62
1.55
7.85
14.82
20.94
25.11
26.88
26.47
24.51
21.83
19.25
17.37
16.53
16.79
17.93
19.51
20.90
21.33
20.04
16.51
10.92
4.36
-1.31
-4.13
-2.83
2.42
10.07
17.99
24.45
29.01
32.52
36.39
41.42
47.02
51.11
50.97
44.53
31.49
13.69
-5.44
-22.14
-33.60
-38.74
-38.14
-33.29
-25.65
-16.08
-5.02
6.94
18.48
27.61
32.40
31.92
26.77
18.85
10.36
2.77
-3.76
-10.04
-17.03
-25.07
-33.64
-41.71
-48.41
-53.52
-57.42
-60.77
-63.91
-66.68
-68.40
-68.22
-65.54
-60.35
-53.57
-47.04
-43.25
-44.50
-51.94
-64.79
-80.26
-94.31
-102.99
-103.65
-95.59
-79.77
-58.05
-32.51
-5.11
22.17
46.95
66.57
78.51
81.20
74.71
60.96
43.21
25.06
9.39
-2.37
-10.25
-15.12
-17.89
-18.96
-18.22
-15.46
-10.96
-5.56
-0.19
4.68
9.40
14.59
20.36
25.61
28.19
25.94
17.98
5.38
-9.14
-22.37
-31.79
-36.21
-35.54
-30.18
-20.51
-6.88
9.93
28.34
46.02
60.40
69.38
71.84
67.77
58.29
45.29
31.11
18.05
7.99
1.85
-0.56
-0.23
1.51
3.64
5.72
7.77
9.88
11.84
13.05
12.90
11.25
8.76
6.82
7.13
11.07
19.33
31.69
47.13
64.11
80.82
95.52
106.86
114.30
118.22
119.85
120.71
121.95
123.84
125.62
125.96
123.72
118.74
112.02
105.35
100.42
97.86
96.63
93.96
86.01
68.70
38.89
-4.50
-59.55
-121.11
-181.36
-231.48
-264.06
-275.22
-265.80
-240.95
-208.25
-175.20
-147.16
-126.55
-113.36
-106.36
-104.22
-106.05
-111.07
-118.20
-125.92
-132.52
-136.67
-137.90
-136.60
-133.61
-129.37
-123.27
-113.57
-97.96
-74.71
-43.88
-7.95
28.58
60.49
83.69
96.76
101.42
101.54
101.29
102.99
106.06
107.34
102.66
88.78
64.85
32.76
-3.51
-39.13
-69.52
-91.25
-102.40
-102.59
-92.91
-75.62
-53.78
-30.68
-9.28
8.31
21.06
28.96
32.80
33.80
33.26
32.17
31.05
29.87
28.30
26.10
23.40
20.69
18.61
17.47
17.05
16.73
15.92
14.42
12.67
11.53
11.93
14.37
18.83
24.72
31.15
37.19
42.10
45.55
47.66
48.92
50.05
51.64
54.01
57.03
60.16
62.49
62.92
60.36
54.22
44.96
34.45
25.66
21.78
24.84
34.58
48.31
61.78
70.77
72.67
67.12
55.55
40.20
23.00
5.14
-12.75
-30.10
-45.94
-59.01
-68.02
-72.21
-71.85
-68.32
-63.92
-61.12
-61.78
-66.34
-73.69
-81.48
-87.03
-88.25
-84.19
-75.05
-61.67
-45.20
-27.07
-9.26
5.45
13.90
13.65
4.39
-11.50
-29.32
-43.54
-49.55
-45.15
-31.29
-11.52
9.27
26.63
37.36
39.86
33.89
20.15
-0.06
-24.99
-52.44
-79.81
-103.68
-121.04
-130.13
-131.05
-125.35
-115.20
-102.25
-87.00
-68.64
-44.28
-11.84
28.33
72.73
115.91
152.05
176.28
185.38
178.62
161.02
139.88
122.64
114.89
119.50
136.21
161.25
188.59
212.95
236.95
266.01
304.26
350.78
399.54
441.70
468.19
472.00
450.43
411.33
364.72
318.83
278.63
248.44
233.78
239.44
265.67
272.12
228.82
130.53
1.67
-125.68
-231.02
-308.22
-360.95
-397.72
-428.63
-450.71
-457.30
-444.27
-413.91
-373.25
-330.65
-290.05
-256.09
-231.19
-210.49
-188.77
-163.87
-138.21
-116.44
-102.26
-97.06
-100.40
-109.73
-118.58
-121.68
-117.12
-106.86
-94.61
-83.46
-75.00
-69.82
-67.25
-64.59
-59.79
-52.21
-42.78
-32.84
-23.24
-14.05
-5.32
3.00
11.23
19.12
25.92
30.77
33.39
34.42
35.23
37.25
41.61
48.70
58.06
68.52
78.43
85.90
89.08
86.25
76.76
61.58
43.26
25.13
10.37
1.12
-2.00
0.39
6.77
15.83
26.88
39.46
52.56
64.29
72.29
74.70
71.30
63.41
54.48
49.20
51.55
63.14
82.83
107.72
134.39
160.18
181.54
196.69
205.75
209.45
207.64
199.41
184.40
162.94
136.53
103.02
62.29
17.51
-26.24
-64.94
-96.33
-119.04
-133.63
-141.64
-152.42
-172.64
-202.75
-238.63
-276.53
-314.85
-352.92
-392.14
-433.47
-485.34
-550.02
-619.90
-681.54
-724.08
-743.05
-738.99
-717.89
-633.55
-476.99
-282.22
-98.95
45.31
148.71
215.33
260.75
291.32
309.39
308.22
286.31
249.35
208.46
172.48
145.31
128.34
119.99
119.17
118.69
114.76
109.14
106.42
108.87
115.50
124.72
134.17
143.03
147.41
145.66
139.44
132.12
125.57
119.78
114.59
109.60
105.42
101.17
96.77
93.33
92.31
93.98
97.25
100.59
102.12
100.61
94.94
85.15
72.58
59.31
46.95
36.16
26.71
17.74
8.49
-1.29
-11.16
-20.22
-27.33
-31.60
-32.56
-30.23
-25.15
-18.26
-10.78
-4.00
0.94
3.34
3.04
0.47
-3.61
-8.30
-12.74
-16.17
-17.96
-17.63
-15.05
-10.49
-4.67
1.45
6.96
11.31
14.38
16.43
17.82
18.81
19.43
19.47
18.64
16.65
13.33
8.62
2.64
-4.35
-11.87
-19.34
-26.12
-31.69
-35.78
-38.54
-40.47
-42.21
-44.27
-46.78
-49.48
-51.89
-53.62
-54.55
-54.98
-55.42
-56.31
-57.85
-59.90
-62.10
-64.03
-65.22
-65.30
-63.89
-60.64
-55.37
-48.13
-39.26
-29.45
-19.50
-10.21
-2.12
4.54
9.93
14.41
18.37
22.03
25.41
28.39
30.86
32.90
34.76
36.68
38.69
40.56
41.85
42.15
41.33
39.55
37.30
35.09
33.32
32.08
31.16
30.15
28.56
26.02
22.28
17.35
11.43
4.91
-1.78
-8.11
-13.62
-17.92
-20.84
-22.53
-23.45
-24.21
-25.38
-27.20
-29.51
-31.85
-33.73
-34.86
-35.31
-35.43
-35.60
-36.05
-36.61
-36.86
-36.21
-34.30
-31.12
-27.12
-23.05
-19.74
-17.83
-17.58
-18.87
-21.22
-23.98
-26.44
-27.94
-27.99
-26.30
-22.85
-17.74
-11.26
-3.74
4.39
12.68
20.69
28.07
34.66
40.44
45.52
50.04
54.11
57.70
60.76
63.16
64.79
65.61
65.66
65.05
63.91
62.36
60.52
58.45
56.20
53.81
51.27
48.49
45.32
41.62
37.36
32.75
28.26
24.43
21.65
19.94
18.87
17.71
15.65
12.09
6.79
0.02
-7.58
-15.15
-21.79
-26.76
-29.56
-30.02
-28.31
-24.83
-20.15
-14.96
-9.92
-5.65
-2.62
-1.02
-0.73
-1.33
-2.23
-2.86
-2.84
-2.10
-0.82
0.62
1.83
2.44
2.22
1.03
-1.10
-3.99
-7.33
-10.67
-13.62
-15.94
-17.57
-18.66
-19.46
-20.24
-21.19
-22.46
-24.06
-25.85
-27.45
-28.35
-27.99
-26.01
-22.42
-17.67
-12.44
-7.48
-3.31
-0.13
2.06
3.43
4.11
4.24
3.96
3.45
2.96
2.72
2.83
3.23
3.74
4.14
4.23
3.94
3.30
2.45
1.62
1.10
1.14
1.88
3.33
5.34
7.65
9.99
12.09
13.76
14.88
15.44
15.65
15.88
16.69
18.61
22.01
26.89
32.92
39.53
46.14
52.30
57.77
62.39
65.92
68.01
68.24
66.28
62.04
55.78
48.05
39.63
31.29
23.73
17.43
12.61
9.18
6.88
5.46
4.74
4.74
5.53
7.09
9.22
11.52
13.51
14.79
15.12
14.40
12.54
9.46
5.06
-0.62
-7.36
-14.74
-22.22
-29.33
-35.60
-40.66
-44.18
-45.88
-45.58
-43.34
-39.47
-34.52
-29.20
-24.20
-20.02
-16.90
-14.76
-13.24
-11.92
-10.30
-7.91
-4.40
0.52
6.95
14.79
23.65
32.93
41.95
50.07
56.88
62.16
65.68
67.21
66.47
63.29
57.80
50.56
42.47
34.57
27.78
22.70
19.51
17.98
17.61
17.67
17.41
16.07
13.14
8.51
2.52
-4.05
-10.23
-15.13
-18.22
-19.42
-19.11
-17.89
-16.33
-14.79
-13.47
-12.42
-11.74
-11.54
-11.87
-12.60
-13.35
-13.61
-13.05
-11.71
-10.08
-8.99
-9.15
-10.87
-13.90
-17.51
-20.88
-23.36
-24.58
-24.45
-23.06
-20.61
-17.37
-13.68
-9.94
-6.49
-3.50
-0.96
1.30
3.40
5.42
7.30
9.02
10.61
12.31
14.39
17.05
20.22
23.50
26.18
27.49
26.86
24.20
19.95
14.93
10.09
6.11
3.17
0.95
-1.19
-3.92
-7.61
-12.19
-17.16
-21.82
-25.49
-27.82
-28.89
-29.09
-28.90
-28.70
-28.62
-28.63
-28.67
-28.74
-28.96
-29.32
-29.66
-29.59
-28.65
-26.55
-23.31
-19.31
-15.13
-11.27
-8.06
-5.58
-3.88
-3.17
-3.87
-6.60
-11.77
-19.41
-29.00
-39.65
-50.44
-60.83
-70.70
-80.28
-89.76
-99.12
-108.07
-116.28
-123.65
-130.32
-136.35
-141.35
-144.31
-143.88
-139.00
-129.61
-116.99
-103.45
-91.50
-82.95
-78.22
-76.18
-74.51
-70.34
-60.91
-44.21
-19.32
13.30
51.89
93.55
134.78
172.03
202.32
223.56
234.72
235.70
227.19
210.58
187.83
161.36
133.68
106.88
82.19
59.83
39.16
19.19
-0.73
-20.48
-39.06
-54.89
-66.35
-72.39
-72.84
-68.52
-61.07
-52.62
-45.36
-41.06
-40.81
-44.73
-52.03
-61.14
-70.04
-76.74
-79.75
-78.41
-72.99
-64.46
-54.06
-42.80
-31.23
-19.56
-7.85
3.58
14.07
22.73
28.85
32.18
33.15
32.74
32.11
32.22
33.55
36.02
39.18
42.49
45.58
48.41
51.15
54.06
57.23
60.45
63.25
65.10
65.57
64.55
62.30
59.32
56.17
53.22
50.61
48.27
46.12
44.13
42.42
41.22
40.77
41.20
42.44
44.21
46.03
47.37
47.70
46.65
44.06
39.99
34.67
28.49
21.78
14.78
7.53
-0.15
-8.62
-18.28
-29.35
-41.62
-54.39
-66.46
-76.37
-82.74
-84.68
-82.12
-75.86
-67.49
-58.94
-52.00
-47.84
-46.88
-48.80
-52.85
-58.20
-64.01
-69.37
-73.14
-74.03
-70.86
-63.16
-51.51
-37.49
-23.03
-9.58
2.58
14.29
26.94
41.49
57.87
74.91
90.98
104.80
115.94
124.79
131.98
137.80
141.92
143.56
142.08
137.37
129.93
120.58
109.97
98.24
85.12
70.26
53.66
35.99
18.51
2.74
-9.98
-18.85
-23.74
-25.21
-24.25
-22.08
-19.90
-18.70
-19.08
-21.18
-24.72
-29.16
-33.87
-38.36
-42.40
-46.04
-49.51
-53.12
-57.14
-61.59
-66.23
-70.48
-73.54
-74.56
-72.92
-68.36
-61.07
-51.55
-40.39
-28.18
-15.44
-2.67
9.51
20.39
29.22
35.39
38.59
38.87
36.64
32.60
27.48
21.95
16.40
10.82
5.00
-1.24
-7.72
-13.71
-18.08
-19.65
-17.63
-12.00
-3.56
6.24
15.64
22.95
26.81
26.43
21.74
13.45
3.06
-7.52
-16.38
-22.20
-24.52
-23.72
-20.71
-16.42
-11.52
-6.38
-1.24
3.58
7.63
10.48
11.92
12.12
11.47
10.36
8.89
6.78
3.52
-1.46
-8.40
-17.12
-26.93
-36.72
-45.26
-51.53
-55.00
-55.85
-54.88
-53.22
-51.86
-51.33
-51.65
-52.45
-53.28
-53.87
-54.11
-53.90
-53.02
-51.04
-47.50
-42.13
-35.15
-27.21
-19.24
-12.01
-5.96
-1.03
3.05
6.64
9.94
13.00
15.79
18.31
20.68
22.97
25.14
26.96
28.18
28.82
29.28
30.38
32.98
37.56
43.81
50.59
56.25
59.12
58.09
52.87
43.91
32.06
18.06
2.35
-14.91
-33.43
-52.43
-70.43
-85.52
-95.87
-100.37
-98.96
-92.63
-83.02
-71.92
-60.84
-50.80
-42.30
-35.51
-30.32
-26.52
-23.75
-21.52
-19.33
-16.73
-13.41
-9.43
-5.15
-1.14
2.00
3.91
4.51
4.05
3.03
2.12
1.81
2.25
3.04
3.34
2.04
-1.75
-8.34
-17.17
-26.76
-35.33
-41.37
-44.13
-43.68
-40.83
-36.73
-32.58
-29.31
-27.00
-25.44
-24.38
-23.61
-22.79
-21.52
-19.36
-15.71
-9.50
1.62
19.79
46.12
80.22
120.59
164.73
209.36
250.59
284.48
309.02
323.15
327.04
322.46
312.86
301.84
291.33
280.35
265.81
246.20
221.26
192.46
162.69
135.53
113.64
97.99
87.78
70.59
41.66
5.40
-28.70
-54.66
-72.68
-85.96
-96.48
-104.60
-107.93
-102.31
-86.91
-65.80
-46.95
-37.43
-43.10
-65.68
-102.00
-144.60
-182.50
-205.91
-209.25
-192.31
-159.32
-117.28
-73.44
-33.59
-0.80
25.23
46.02
62.83
75.95
85.10
89.87
90.29
86.68
79.37
68.70
54.22
34.65
8.36
-25.60
-66.81
-112.75
-159.05
-200.15
-230.56
-246.51
-247.00
-233.82
-210.76
-182.42
-153.05
-125.94
-103.38
-86.72
-76.50
-72.41
-73.31
-77.38
-82.58
-87.14
-89.96
-90.70
-89.66
-87.38
-84.48
-81.44
-78.55
-75.91
-73.44
-70.94
-68.26
-65.33
-62.27
-59.32
-56.66
-54.21
-51.58
-48.13
-43.20
-36.29
-27.29
-16.49
-4.53
7.73
19.38
29.61
37.85
43.87
47.81
50.08
51.19
51.55
51.37
50.72
49.67
48.43
47.35
46.72
46.62
46.79
46.69
45.72
43.43
39.65
34.51
28.26
21.19
13.53
5.45
-2.99
-11.77
-20.97
-30.63
-40.64
-50.61
-59.82
-67.39
-72.49
-74.55
-73.45
-69.44
-63.05
-54.96
-45.90
-36.54
-27.49
-19.17
-11.82
-5.43
0.15
5.19
9.86
14.28
18.41
22.12
25.20
27.52
29.02
29.73
29.81
29.39
28.53
27.17
25.21
22.55
19.28
15.59
11.77
8.07
4.58
1.32
-1.70
-4.27
-5.96
-6.19
-4.42
-0.37
5.73
13.28
21.44
29.39
36.57
42.73
47.82
51.90
54.97
56.96
57.83
57.70
56.86
55.76
54.76
54.03
53.44
52.68
51.50
49.81
47.78
45.62
43.43
41.06
38.09
34.04
28.60
21.86
14.32
6.75
-0.10
-5.84
-10.49
-14.44
-18.11
-21.63
-24.60
-26.21
-25.53
-22.02
-15.86
-8.01
0.12
7.18
12.23
15.04
15.93
15.59
14.83
14.47
15.27
17.69
21.77
26.98
32.30
36.45
38.43
37.89
35.48
32.74
31.57
33.43
38.55
45.67
52.41
56.30
55.74
50.68
42.44
32.98
24.08
16.86
11.84
9.26
9.46
12.75
19.10
27.77
37.40
46.42
53.59
58.35
60.81
61.32
60.20
57.48
53.01
46.58
38.21
28.16
17.01
5.44
-5.82
-16.18
-25.31
-33.11
-39.66
-45.12
-49.59
-53.05
-55.38
-56.44
-56.24
-54.98
-53.04
-50.83
-48.67
-46.67
-44.74
-42.73
-40.57
-38.33
-36.20
-34.32
-32.59
-30.66
-27.96
-23.90
-18.16
-10.76
-2.15
6.99
15.94
24.21
31.66
38.40
44.70
50.78
56.76
62.59
68.07
72.93
76.90
79.75
81.31
81.47
80.20
77.52
73.55
68.62
63.21
57.85
52.85
48.05
42.70
35.61
25.63
12.20
-4.39
-23.05
-42.34
-60.84
-77.50
-91.55
-102.40
-109.51
-112.47
-111.20
-106.15
-98.32
-89.02
-79.59
-71.06
-64.04
-58.60
-54.37
-50.69
-46.84
-42.27
-36.76
-30.57
-24.20
-18.12
-12.49
-7.17
-1.87
3.49
8.62
12.79
15.21
15.39
13.49
10.29
6.85
4.09
2.42
1.72
1.48
1.13
0.26
-1.39
-3.97
-7.54
-12.07
-17.26
-22.45
-26.69
-28.95
-28.45
-25.03
-19.11
-11.59
-3.53
4.16
10.86
16.22
20.02
22.08
22.25
20.48
16.99
12.29
7.14
2.31
-1.60
-4.38
-6.13
-7.21
-8.01
-8.80
-9.66
-10.52
-11.26
-11.81
-12.21
-12.55
-12.89
-13.19
-13.32
-13.23
-12.95
-12.73
-12.85
-13.46
-14.42
-15.16
-14.91
-12.99
-9.13
-3.58
2.88
9.34
15.08
19.75
23.46
26.52
29.27
31.85
34.24
36.30
37.89
38.96
39.59
39.89
39.94
39.78
39.33
38.44
36.89
34.50
31.20
27.15
22.66
18.14
13.89
10.04
6.54
3.32
0.39
-2.20
-4.44
-6.51
-8.81
-11.77
-15.55
-19.83
-23.77
-26.29
-26.47
-23.94
-19.03
-12.55
-5.53
1.20
7.18
12.26
16.47
19.90
22.58
24.52
25.76
26.33
26.30
25.74
24.73
23.41
22.00
20.76
19.85
19.20
18.56
17.51
15.68
12.89
9.17
4.74
-0.09
-5.01
-9.67
-13.78
-17.09
-19.56
-21.43
-23.19
-25.41
-28.42
-32.10
-35.78
-38.58
-39.69
-38.77
-36.01
-32.07
-27.79
-23.85
-20.58
-17.94
-15.64
-13.37
-10.99
-8.64
-6.67
-5.43
-5.08
-5.47
-6.23
-6.92
-7.27
-7.27
-7.10
-6.94
-6.84
-6.72
-6.50
-6.21
-6.04
-6.19
-6.67
-7.29
-7.71
-7.68
-7.22
-6.67
-6.54
-7.24
-8.87
-11.10
-13.30
-14.70
-14.64
-12.74
-9.05
-4.03
1.57
6.85
11.09
13.88
15.16
15.21
14.49
13.46
12.54
12.02
11.94
12.18
12.38
12.18
11.32
9.81
7.92
6.04
4.49
3.41
2.72
2.17
1.49
0.46
-0.95
-2.64
-4.41
-6.03
-7.46
-8.88
-10.63
-13.05
-16.18
-19.65
-22.74
-24.65
-24.84
-23.15
-19.77
-15.06
-9.39
-3.07
3.53
9.93
15.57
19.98
22.91
24.42
24.84
24.60
24.08
23.50
22.95
22.41
21.75
20.81
19.46
17.61
15.34
12.90
10.60
8.67
7.13
5.76
4.24
2.33
0.07
-2.30
-4.47
-6.37
-8.14
-10.11
-12.52
-15.23
-17.75
-19.29
-19.20
-17.19
-13.45
-8.57
-3.21
2.15
7.34
12.42
17.51
22.56
27.31
31.36
34.40
36.30
37.30
37.86
38.54
39.81
41.89
44.83
48.54
52.87
57.63
62.51
67.05
70.70
73.06
74.05
73.93
73.23
72.39
71.52
70.36
68.48
65.75
62.66
60.34
60.21
63.30
69.60
77.78
85.56
90.33
90.11
84.03
72.43
56.58
38.15
18.83
0.08
-16.92
-31.29
-42.60
-50.97
-57.12
-62.10
-66.94
-72.19
-77.83
-83.25
-87.67
-90.42
-91.18
-90.07
-87.52
-84.19
-80.74
-77.70
-75.34
-73.63
-72.32
-71.03
-69.41
-67.28
-64.64
-61.68
-58.70
-56.02
-53.90
-52.41
-51.44
-50.70
-49.82
-48.48
-46.50
-43.99
-41.25
-38.77
-37.00
-36.21
-36.39
-37.24
-38.23
-38.82
-38.48
-36.82
-33.58
-28.53
-21.51
-12.44
-1.53
10.59
22.81
33.77
42.20
47.26
48.81
47.38
44.00
39.79
35.60
31.75
28.02
23.82
18.51
11.69
3.36
-6.15
-16.27
-26.30
-35.36
-42.38
-46.26
-46.08
-41.55
-33.27
-22.65
-11.50
-1.38
6.81
12.93
17.27
20.14
21.62
21.54
19.82
16.69
12.82
9.11
6.35
4.98
5.04
6.21
8.12
10.48
13.04
15.59
17.77
19.05
18.84
16.66
12.38
6.28
-1.07
-9.07
-17.15
-24.96
-32.20
-38.52
-43.49
-46.68
-47.80
-46.84
-44.13
-40.18
-35.48
-30.37
-25.00
-19.48
-13.98
-8.84
-4.47
-1.17
0.96
2.08
2.53
2.67
2.78
3.01
3.38
3.80
4.19
4.45
4.61
4.84
5.40
6.47
8.00
9.59
10.61
10.44
8.78
5.74
1.80
-2.42
-6.35
-9.55
-11.62
-12.25
-11.29
-8.93
-5.83
-2.92
-1.08
-0.87
-2.35
-5.23
-9.13
-13.78
-18.94
-24.30
-29.31
-33.26
-35.54
-35.93
-34.71
-32.59
-30.36
-28.65
-27.75
-27.64
-28.14
-29.00
-30.03
-31.01
-31.72
-31.95
-31.51
-30.39
-28.73
-26.81
-25.04
-23.78
-23.25
-23.47
-24.19
-24.91
-24.98
-23.72
-20.60
-15.39
-8.32
-0.00
8.69
16.88
23.88
29.28
32.96
35.00
35.57
34.90
33.29
31.18
29.12
27.69
27.31
28.12
29.84
31.91
33.65
34.57
34.44
33.35
31.54
29.26
26.71
24.01
21.31
18.75
16.45
14.43
12.56
10.61
8.43
6.08
3.91
2.56
2.75
5.06
9.69
16.32
24.13
32.09
39.25
45.05
49.41
52.54
54.65
55.77
55.64
53.96
50.65
46.05
40.85
35.80
31.35
27.49
23.76
19.49
14.12
7.49
-0.16
-8.19
-15.82
-22.35
-27.35
-30.87
-33.40
-35.79
-38.93
-43.45
-49.46
-56.48
-63.60
-69.80
-74.34
-76.93
-77.75
-77.27
-75.92
-73.77
-70.46
-65.16
-56.71
-43.95
-26.16
-3.61
22.04
47.78
69.87
84.90
90.97
88.43
79.69
68.34
57.89
50.70
47.54
47.86
50.53
54.47
59.04
64.06
69.59
75.64
82.12
88.65
94.63
99.26
101.66
101.04
96.86
89.01
77.94
64.65
50.62
37.56
27.11
20.48
18.16
19.82
24.45
30.70
37.45
44.17
51.04
58.72
67.81
78.35
89.54
99.89
107.67
111.37
110.06
103.38
91.42
74.56
53.51
29.44
4.02
-20.77
-43.19
-62.16
-77.58
-90.15
-100.98
-111.06
-120.86
-130.28
-138.66
-145.06
-148.36
-147.59
-142.18
-132.25
-118.72
-103.11
-87.19
-72.41
-59.49
-48.41
-38.58
-29.34
-20.28
-11.47
-3.38
3.30
7.90
10.07
9.89
7.92
4.99
1.96
-0.51
-2.17
-3.08
-3.54
-3.92
-4.57
-5.81
-7.87
-10.88
-14.84
-19.51
-24.43
-28.88
-32.10
-33.36
-32.17
-28.35
-22.01
-13.50
-3.16
8.70
21.91
36.27
51.38
66.51
80.49
91.96
99.60
102.62
101.11
96.08
89.20
82.35
77.03
73.83
72.30
71.26
69.51
66.40
62.06
56.84
50.90
43.75
34.16
20.70
2.42
-20.49
-46.54
-73.07
-97.00
-114.93
-123.73
-121.50
-108.67
-88.67
-67.29
-51.02
-44.64
-49.91
-64.16
-81.35
-94.82
-100.32
-97.38
-88.53
-77.58
-67.42
-60.40
-56.64
-54.45
-51.83
-47.99
-43.53
-39.14
-35.35
-31.67
-29.29
-28.81
-29.72
-31.13
-32.93
-35.97
-40.79
-48.28
-58.73
-75.11
-98.90
-128.53
-159.99
-189.07
-212.88
-229.60
-239.78
-225.91
-182.08
-117.87
-51.65
3.15
42.72
65.51
77.88
83.52
84.74
80.38
70.39
58.18
47.88
42.24
41.49
44.62
49.27
53.83
55.61
53.70
49.60
45.85
44.22
44.86
47.32
50.34
53.15
53.99
51.94
47.38
41.57
35.83
31.17
28.66
28.80
31.92
37.19
43.52
50.24
57.15
64.57
73.07
83.47
96.14
110.93
126.65
141.49
153.44
160.72
162.11
157.21
146.58
131.49
113.77
95.24
77.35
60.83
45.68
31.41
17.31
2.77
-12.68
-29.38
-47.57
-67.28
-88.14
-109.22
-129.00
-145.75
-157.95
-164.79
-166.35
-163.50
-157.44
-149.21
-139.47
-128.48
-116.36
-103.40
-90.16
-77.33
-65.57
-55.25
-46.33
-38.46
-31.22
-24.27
-17.46
-10.76
-4.07
2.78
10.05
17.90
26.24
34.58
42.25
48.62
53.34
56.48
58.48
59.87
61.00
61.85
62.02
60.94
58.16
53.52
47.24
39.85
32.07
24.64
18.23
13.32
10.17
8.72
8.63
9.31
10.09
10.31
9.54
7.63
4.69
1.05
-2.94
-6.92
-10.70
-14.15
-17.28
-20.04
-22.37
-24.08
-24.97
-24.84
-23.58
-21.26
-18.18
-14.82
-11.74
-9.37
-7.87
-7.17
-7.06
-7.39
-8.19
-9.67
-11.99
-15.16
-18.87
-22.65
-26.00
-28.56
-30.14
-30.56
-29.62
-27.07
-22.78
-16.93
-10.08
-3.03
3.37
8.55
12.33
14.86
16.42
17.28
17.57
17.32
16.56
15.41
14.08
12.88
12.08
11.83
12.17
12.92
13.80
14.53
14.89
14.80
14.33
13.62
12.76
11.71
10.29
8.24
5.33
1.55
-2.91
-7.60
-11.91
-15.17
-16.77
-16.22
-13.34
-8.26
-1.39
6.67
15.25
23.73
31.53
38.11
42.99
45.82
46.46
45.05
41.98
37.74
32.77
27.38
21.79
16.26
11.10
6.67
3.19
0.62
-1.36
-3.22
-5.31
-7.69
-10.12
-12.15
-13.32
-13.36
-12.23
-10.20
-7.76
-5.58
-4.35
-4.43
-5.74
-7.58
-8.89
-8.59
-6.02
-1.21
5.15
12.09
18.71
24.41
28.99
32.44
34.73
35.75
35.31
33.30
29.80
25.13
19.79
14.45
9.77
6.38
4.71
4.95
7.02
10.69
15.76
22.34
30.97
42.48
57.67
76.85
99.33
123.19
145.26
161.67
168.61
163.40
145.46
116.68
81.08
43.76
9.47
-18.57
-39.27
-53.31
-62.39
-68.39
-72.78
-76.57
-80.45
-84.86
-90.00
-95.55
-100.66
-104.15
-104.99
-102.76
-97.85
-91.33
-84.48
-78.30
-73.15
-68.71
-64.21
-58.72
-51.54
-42.40
-31.52
-19.58
-7.47
4.00
14.30
23.35
31.37
38.66
45.25
50.82
54.76
56.63
56.58
55.52
55.05
56.92
62.41
71.83
84.35
98.16
110.97
120.64
125.70
125.83
121.93
115.80
109.58
104.90
102.18
100.28
96.84
89.13
75.27
55.07
30.15
3.39
-22.21
-44.52
-62.78
-77.36
-89.20
-99.01
-107.03
-113.12
-117.13
-119.22
-119.92
-119.87
-119.47
-118.65
-116.97
-113.87
-109.07
-102.75
-95.51
-88.15
-81.35
-75.32
-69.74
-63.75
-56.26
-46.38
-33.77
-18.89
-2.87
12.81
26.79
38.29
47.28
54.30
60.13
65.32
69.93
73.59
75.79
76.20
74.99
72.84
70.71
69.54
69.85
71.51
73.77
75.55
75.83
74.13
70.70
66.59
63.41
63.00
66.92
75.87
89.06
103.71
115.27
118.49
109.28
86.49
52.83
14.12
-22.75
-52.41
-72.72
-84.79
-91.59
-95.98
-99.40
-101.82
-102.59
-101.58
-99.62
-98.03
-97.81
-98.83
-99.89
-99.32
-95.89
-89.47
-81.08
-72.40
-65.00
-59.71
-56.40
-54.19
-51.93
-48.73
-44.22
-38.61
-32.47
-26.45
-21.08
-16.67
-13.29
-10.80
-8.91
-7.27
-5.44
-3.17
-0.33
2.90
6.10
8.75
10.39
10.82
10.14
8.73
6.97
5.12
3.28
1.45
-0.20
-1.12
-0.45
2.77
9.29
19.31
32.43
47.75
64.03
79.76
93.29
102.87
107.01
104.89
96.78
83.96
68.40
51.93
35.69
19.88
4.06
-12.17
-28.67
-44.58
-58.60
-69.51
-76.67
-80.19
-80.80
-79.44
-76.92
-73.71
-69.90
-65.32
-59.84
-53.47
-46.43
-39.09
-31.90
-25.25
-19.42
-14.57
-10.71
-7.74
-5.45
-3.61
-1.99
-0.44
1.07
2.48
3.69
4.65
5.45
6.26
7.32
8.75
10.44
12.09
13.30
13.84
13.88
14.05
15.39
19.04
26.04
37.00
51.94
70.02
89.35
107.20
120.41
126.30
123.65
113.20
97.38
79.39
61.94
46.30
32.26
18.65
4.36
-10.94
-26.72
-41.92
-55.53
-67.04
-76.44
-83.95
-89.77
-93.91
-96.27
-96.83
-95.87
-93.95
-91.78
-89.93
-88.57
-87.43
-85.94
-83.52
-79.91
-75.21
-69.83
-64.21
-58.55
-52.72
-46.35
-39.07
-30.72
-21.42
-11.54
-1.58
7.98
16.72
24.33
30.59
35.42
38.82
40.94
41.97
42.12
41.61
40.66
39.58
38.76
38.71
39.90
42.75
47.46
53.87
61.40
69.01
75.43
79.39
80.12
77.62
72.73
66.83
61.24
56.66
52.86
48.88
43.60
36.33
27.21
17.00
6.75
-2.88
-11.74
-20.19
-28.64
-37.19
-45.40
-52.51
-57.80
-60.95
-62.17
-62.04
-61.20
-59.99
-58.39
-56.09
-52.78
-48.41
-43.35
-38.25
-33.78
-30.29
-27.77
-25.80
-23.83
-21.45
-18.52
-15.15
-11.46
-7.36
-2.54
3.43
10.79
19.25
27.91
35.52
40.90
43.47
43.42
41.67
39.40
37.61
36.77
36.80
37.36
38.02
38.52
38.72
38.47
37.55
35.71
32.80
28.96
24.65
20.44
16.81
13.90
11.35
8.52
4.70
-0.39
-6.56
-13.16
-19.38
-24.55
-28.45
-31.28
-33.43
-35.24
-36.71
-37.64
-37.65
-36.55
-34.44
-31.69
-28.83
-26.16
-23.60
-20.76
-17.07
-12.23
-6.43
-0.38
4.94
8.79
10.95
11.74
11.81
11.72
11.62
11.25
10.20
8.30
5.89
3.65
2.34
2.40
3.69
5.61
7.34
8.27
8.21
7.42
6.38
5.51
4.90
4.27
3.17
1.21
-1.60
-4.93
-8.19
-10.80
-12.46
-13.12
-12.90
-11.76
-9.50
-5.82
-0.61
5.82
12.69
18.96
23.78
26.82
28.44
29.38
30.44
31.98
33.85
35.39
35.84
34.75
32.17
28.65
24.98
21.85
19.51
17.77
16.11
14.04
11.42
8.41
5.45
2.91
0.83
-1.18
-3.73
-7.34
-12.12
-17.69
-23.35
-28.40
-32.49
-35.62
-37.99
-39.64
-40.38
-39.81
-37.60
-33.80
-28.95
-23.89
-19.48
-16.25
-14.19
-12.92
-11.87
-10.64
-9.14
-7.57
-6.24
-5.29
-4.61
-3.85
-2.62
-0.73
1.71
4.26
6.45
8.01
9.01
9.76
10.58
11.55
12.41
12.64
11.71
9.44
6.06
2.20
-1.30
-3.72
-4.65
-4.07
-2.23
0.47
3.66
7.05
10.41
13.52
16.13
17.95
18.71
18.37
17.06
15.15
13.12
11.38
10.09
9.21
8.46
7.64
6.68
5.78
5.27
5.42
6.27
7.58
8.98
10.10
10.81
11.26
11.86
13.08
15.24
18.36
22.27
26.66
31.14
35.32
38.84
41.41
42.86
43.00
41.76
39.37
36.43
33.62
31.60
30.91
31.80
34.27
37.82
41.78
45.73
49.79
54.04
58.66
63.87
70.02
77.69
86.82
96.84
106.98
116.65
124.52
129.32
130.03
126.74
120.98
114.06
106.87
99.91
93.47
86.24
76.47
61.96
41.80
17.02
-11.24
-41.89
-74.72
-104.39
-124.68
-132.57
-131.18
-129.19
-128.98
-130.50
-133.68
-139.30
-144.65
-149.77
-155.24
-162.96
-172.67
-181.37
-185.91
-184.81
-178.57
-169.53
-161.75
-148.44
-127.90
-101.82
-73.18
-44.34
-16.74
8.67
30.56
47.54
59.47
64.95
65.13
61.72
58.34
56.43
55.90
55.59
54.50
51.87
43.99
28.46
5.47
-22.85
-54.17
-80.03
-94.08
-93.05
-69.02
-28.99
10.76
35.88
42.23
34.35
19.25
1.11
-18.32
-37.13
-52.34
-56.68
-42.12
-6.06
44.74
95.83
131.33
142.02
129.18
101.80
73.02
53.92
47.24
50.96
59.89
69.34
77.62
84.97
91.79
99.31
110.22
128.54
158.46
201.81
255.89
313.54
364.31
398.35
410.69
402.83
381.06
353.03
324.14
295.67
269.97
247.54
228.02
210.89
195.33
179.78
162.23
140.76
114.52
84.64
53.28
23.39
-2.65
-23.76
-40.61
-54.93
-68.69
-82.97
-97.35
-110.69
-121.47
-128.69
-132.53
-134.42
-136.45
-140.47
-147.18
-155.82
-164.95
-173.06
-179.46
-184.76
-190.66
-199.06
-211.09
-226.42
-243.32
-259.69
-273.86
-285.47
-295.52
-305.83
-318.21
-333.99
-353.86
-377.73
-404.38
-430.69
-451.25
-458.98
-447.05
-411.26
-351.78
-273.10
-182.03
-84.73
15.34
117.25
220.29
321.23
413.12
486.73
534.11
552.16
544.09
518.04
483.59
448.21
415.40
385.06
355.67
326.39
297.91
271.88
249.54
230.69
213.75
196.68
178.15
158.21
138.14
119.68
104.01
91.21
80.30
69.81
58.54
46.09
32.84
19.74
7.59
-3.31
-13.29
-23.26
-34.35
-47.53
-62.95
-79.27
-93.60
-102.33
-102.55
-93.64
-77.99
-60.21
-45.29
-36.49
-34.18
-36.26
-39.80
-42.80
-45.07
-47.83
-52.49
-59.55
-68.28
-77.29
-85.50
-92.87
-100.46
-109.84
-122.59
-139.33
-159.56
-181.86
-204.39
-225.76
-245.54
-264.51
-284.26
-306.55
-332.40
-361.60
-392.66
-423.55
-452.40
-478.32
-501.76
-524.22
-547.84
-574.96
-607.98
-648.88
-698.18
-753.70
-809.63
-857.10
-886.42
-890.24
-866.16
-817.45
-751.37
-676.05
-597.76
-519.71
-442.88
-367.67
-295.39
-228.25
-168.56
-117.57
-75.04
-39.65
-10.10
14.23
33.16
45.95
52.28
52.72
48.94
43.28
38.04
34.74
33.77
34.42
35.39
35.49
34.21
31.80
29.23
27.61
27.91
30.50
35.77
43.52
52.96
62.91
72.43
80.99
88.45
94.66
99.47
103.25
106.26
108.44
109.46
109.12
107.56
105.17
102.37
99.43
97.94
98.98
102.38
106.81
110.89
113.94
115.86
116.85
117.13
120.90
131.12
147.31
165.77
182.60
195.83
205.41
212.24
217.45
230.36
257.63
298.55
345.48
389.89
426.84
454.95
474.65
486.95
506.17
542.75
595.96
654.66
706.91
747.03
775.25
794.74
809.44
840.17
902.07
994.99
1104.37
1213.69
1313.88
1403.07
1483.08
1448.37
1242.92
895.81
504.87
158.46
-107.48
-296.62
-427.89
-520.82
-590.04
-627.49
-625.88
-590.06
-537.64
-487.63
-451.28
-432.04
-428.54
-437.10
-439.88
-423.35
-386.26
-337.38
-291.39
-256.98
-236.75
-230.04
-235.11
-241.89
-242.81
-236.02
-225.67
-212.02
-193.22
-168.69
-142.11
-120.99
-108.78
-105.68
-109.30
-115.67
-119.77
-117.48
-107.76
-92.87
-76.48
-57.78
-37.75
-16.62
5.33
26.72
45.22
58.65
66.16
68.28
68.22
69.31
73.60
81.62
92.22
103.10
112.05
117.90
120.90
122.65
124.91
128.31
132.94
137.99
142.04
143.62
141.58
135.01
122.47
109.20
97.00
86.72
78.35
71.39
65.15
59.06
52.79
46.38
40.06
33.26
25.84
17.82
9.37
0.69
-8.00
-16.52
-24.60
-31.82
-38.39
-44.10
-48.62
-51.76
-53.71
-55.14
-57.10
-60.66
-66.54
-75.38
-86.96
-100.56
-115.25
-130.35
-145.63
-161.26
-177.74
-195.73
-216.15
-239.55
-265.72
-293.17
-319.04
-339.56
-351.11
-351.53
-340.97
-321.98
-298.42
-274.11
-251.59
-231.72
-214.07
-197.78
-182.25
-167.42
-153.44
-140.23
-127.20
-113.46
-98.28
-81.57
-64.03
-46.98
-31.75
-19.19
-9.30
-1.37
5.67
12.79
20.53
28.99
38.02
47.45
57.25
67.39
77.66
87.55
96.19
102.59
106.01
106.21
103.58
99.08
93.77
88.59
84.21
80.95
78.81
77.53
76.58
75.26
72.97
69.38
64.73
59.65
54.92
51.02
47.93
45.18
42.21
38.86
35.43
32.61
31.08
31.22
32.85
35.44
38.36
41.11
43.36
44.98
45.90
46.02
45.25
43.61
41.22
38.37
35.41
32.72
30.58
29.12
28.25
27.62
26.74
25.10
22.35
18.43
13.59
8.21
2.76
-2.40
-7.00
-10.85
-13.85
-16.01
-17.48
-18.57
-19.64
-21.04
-22.93
-25.30
-28.01
-30.87
-33.71
-36.37
-38.71
-40.39
-40.99
-40.06
-37.35
-32.84
-26.90
-20.19
-13.33
-6.78
-0.62
5.31
11.14
16.85
22.09
26.41
29.48
31.26
31.99
31.99
31.46
30.37
28.52
25.66
21.75
17.02
12.02
7.42
3.80
1.37
-0.10
-1.16
-2.53
-4.59
-7.33
-10.35
-13.22
-15.70
-17.88
-20.07
-22.41
-24.78
-26.69
-27.64
-27.40
-26.14
-24.29
-22.39
-20.72
-19.15
-17.32
-14.79
-11.32
-7.07
-2.54
1.54
4.57
6.25
6.64
6.08
4.97
3.61
2.23
0.98
-0.03
-0.65
-0.84
-0.66
-0.29
-0.01
-0.02
-0.39
-0.99
-1.51
-1.58
-0.95
0.30
1.78
2.80
2.66
0.92
-2.24
-6.11
-9.64
-11.86
-12.19
-10.59
-7.44
-3.38
0.84
4.61
7.39
8.87
9.00
7.99
6.26
4.32
2.66
1.60
1.33
1.82
2.82
3.92
4.63
4.65
3.93
2.77
1.65
0.90
0.58
0.49
0.41
0.29
0.37
0.96
2.16
3.65
4.79
4.91
3.74
1.59
-0.87
-2.81
-3.72
-3.52
-2.56
-1.38
-0.44
0.03
0.17
0.25
0.53
1.06
1.68
2.19
2.51
2.73
3.03
3.53
4.17
4.78
5.23
5.60
6.17
7.30
9.15
11.53
14.00
15.98
17.02
16.90
15.69
13.77
11.67
10.01
9.21
9.50
10.74
12.42
13.89
14.53
13.93
12.02
9.20
6.13
3.59
2.07
1.60
1.76
1.89
1.56
0.70
-0.35
-1.29
-2.10
-2.99
-4.29
-5.96
-7.55
-8.44
-8.21
-6.95
-5.22
-3.60
-2.38
-1.47
-0.54
0.51
1.43
1.79
1.25
-0.15
-2.07
-4.07
-5.88
-7.47
-8.90
-10.12
-10.95
-11.17
-10.61
-9.40
-7.84
-6.35
-5.23
-4.67
-4.75
-5.42
-6.65
-8.26
-10.04
-11.65
-12.75
-12.95
-11.99
-9.79
-6.63
-3.21
-0.33
1.35
1.64
0.88
-0.26
-1.17
-1.60
-1.68
-1.72
-1.92
-2.26
-2.58
-2.78
-3.03
-3.64
-4.81
-6.36
-7.78
-8.36
-7.66
-5.74
-3.16
-0.62
1.39
2.88
4.31
6.17
8.64
11.30
13.43
14.33
13.77
12.15
10.22
8.74
8.09
8.15
8.42
8.39
7.72
6.35
4.57
2.87
1.74
1.57
2.49
4.29
6.54
8.74
10.47
11.62
12.36
12.94
13.63
14.49
15.40
16.09
16.31
15.87
14.78
13.08
10.90
8.31
5.41
2.38
-0.56
-3.17
-5.23
-6.62
-7.37
-7.63
-7.64
-7.60
-7.61
-7.65
-7.60
-7.41
-7.18
-7.21
-7.81
-9.14
-11.14
-13.40
-15.41
-16.73
-17.13
-16.57
-15.02
-12.44
-8.82
-4.25
0.91
6.06
10.64
14.28
16.99
19.04
20.79
22.37
23.56
23.87
22.79
20.05
15.88
10.99
6.28
2.52
0.05
-1.32
-1.99
-2.37
-2.60
-2.68
-2.72
-3.04
-4.09
-6.18
-9.29
-12.88
-16.26
-18.88
-20.53
-21.39
-21.76
-21.77
-21.37
-20.38
-18.62
-16.07
-12.91
-9.28
-5.40
-1.49
2.18
5.26
7.51
8.83
9.45
9.80
10.37
11.44
12.97
14.62
15.91
16.52
16.33
15.50
14.36
13.24
12.35
11.79
11.52
11.37
11.20
10.93
10.55
10.19
10.09
10.43
11.35
12.80
14.61
16.54
18.31
19.74
20.67
20.97
20.50
19.13
16.73
13.16
8.28
1.94
-5.88
-15.09
-25.34
-36.06
-46.60
-56.34
-64.87
-71.93
-77.39
-81.17
-83.14
-83.28
-81.71
-78.73
-74.80
-70.46
-66.19
-62.31
-58.98
-56.09
-53.20
-49.58
-44.35
-36.70
-26.29
-13.42
0.86
15.03
27.54
37.36
44.18
48.54
51.50
54.23
57.54
61.75
66.61
71.55
75.92
79.05
80.35
79.28
75.52
69.08
60.43
50.43
40.17
30.62
22.42
15.87
10.99
7.56
5.15
3.19
1.02
-1.95
-6.00
-10.89
-16.00
-20.51
-23.70
-25.27
-25.37
-24.39
-22.86
-21.07
-19.02
-16.32
-12.40
-6.86
0.31
8.48
16.46
22.94
26.94
28.17
26.97
24.16
20.48
16.50
12.45
8.50
4.90
2.02
0.17
-0.66
-0.71
-0.48
-0.35
-0.43
-0.58
-0.52
-0.02
1.12
2.94
5.46
8.44
11.54
14.22
16.12
17.15
17.69
18.39
19.80
21.90
24.11
25.39
24.88
22.30
18.13
13.42
9.31
6.57
5.37
5.47
6.47
8.09
10.26
13.02
16.32
19.93
23.59
27.12
30.62
34.31
38.25
42.15
45.37
47.25
47.61
46.93
46.21
46.56
48.68
52.58
57.75
63.45
68.98
73.75
77.15
78.61
77.60
73.95
68.00
60.57
52.51
44.35
36.03
26.96
16.50
4.41
-8.93
-22.65
-35.85
-48.04
-59.30
-70.09
-80.93
-92.02
-103.38
-114.97
-127.00
-139.74
-153.23
-166.77
-178.90
-187.63
-191.16
-188.53
-179.87
-166.23
-149.18
-130.37
-111.38
-93.57
-78.22
-66.32
-58.49
-54.75
-54.55
-56.94
-60.74
-64.75
-67.87
-69.19
-68.09
-64.33
-58.12
-49.97
-40.60
-30.56
-20.16
-9.37
1.93
13.75
25.76
37.39
47.97
56.92
63.95
68.97
72.07
73.43
73.42
72.65
71.91
71.90
72.89
74.45
75.54
75.07
72.48
68.05
62.82
57.95
54.02
50.62
46.61
40.80
32.63
22.46
11.27
-0.09
-11.25
-22.48
-34.22
-46.53
-58.82
-69.95
-78.78
-84.57
-87.18
-86.81
-83.68
-77.71
-68.61
-56.03
-39.86
-20.48
1.10
23.25
43.85
60.79
72.51
78.54
79.54
77.00
72.63
67.93
63.94
61.41
60.95
63.14
68.19
75.77
84.84
93.99
101.82
107.44
110.50
111.07
109.37
105.55
99.63
91.66
81.88
70.88
59.50
48.68
39.13
31.20
24.75
19.45
15.01
11.36
8.67
7.12
6.67
6.95
7.39
7.34
6.29
3.94
0.16
-4.85
-10.64
-16.48
-21.63
-25.53
-27.97
-28.98
-28.78
-27.61
-25.72
-23.34
-20.79
-18.41
-16.45
-14.92
-13.71
-12.65
-11.78
-11.25
-11.34
-12.22
-13.79
-15.80
-17.87
-19.58
-20.56
-20.56
-19.66
-18.22
-16.87
-16.29
-16.92
-18.79
-21.47
-24.31
-26.66
-28.21
-29.01
-29.44
-29.86
-30.54
-31.31
-31.67
-31.12
-29.37
-26.70
-23.76
-21.42
-20.24
-20.33
-21.29
-22.56
-23.71
-24.47
-24.79
-24.66
-24.09
-23.08
-21.64
-19.87
-17.85
-15.65
-13.33
-10.97
-8.62
-6.35
-4.15
-2.04
-0.25
0.86
0.86
-0.44
-2.85
-5.72
-8.29
-10.11
-11.17
-11.88
-12.58
-13.41
-14.08
-14.24
-13.72
-12.77
-11.82
-11.26
-11.09
-10.99
-10.66
-10.05
-9.53
-9.59
-10.56
-12.28
-14.16
-15.50
-15.79
-15.05
-13.69
-12.29
-11.25
-10.62
-10.09
-9.24
-7.76
-5.63
-3.14
-0.79
0.90
1.59
1.26
0.12
-1.44
-3.00
-4.15
-4.56
-3.89
-1.83
1.74
6.64
12.22
17.50
21.45
23.40
23.34
21.89
20.06
18.78
18.49
19.11
20.19
21.13
21.42
20.78
19.12
16.53
13.27
9.72
6.32
3.48
1.37
-0.11
-1.25
-2.33
-3.49
-4.59
-5.31
-5.38
-4.72
-3.49
-1.99
-0.47
0.90
2.12
3.20
4.18
5.07
5.87
6.66
7.58
8.75
10.13
11.44
12.28
12.29
11.36
9.86
8.38
7.53
7.64
8.63
10.06
11.29
11.76
11.13
9.40
6.88
4.10
1.58
-0.29
-1.36
-1.68
-1.40
-0.64
0.56
2.17
4.16
6.37
8.59
10.59
12.18
13.28
13.80
13.65
12.75
11.08
8.84
6.36
4.15
2.70
2.35
3.18
4.94
7.19
9.41
11.31
12.86
14.31
15.83
17.48
18.97
19.85
19.79
18.70
16.71
14.04
10.70
6.57
1.61
-3.95
-9.49
-14.18
-17.39
-19.02
-19.42
-19.20
-18.73
-17.99
-16.75
-14.80
-12.27
-9.72
-7.81
-7.03
-7.44
-8.70
-10.27
-11.69
-12.64
-13.00
-12.75
-11.99
-10.85
-9.60
-8.54
-7.89
-7.81
-8.22
-8.93
-9.74
-10.52
-11.34
-12.53
-14.51
-17.64
-21.99
-27.21
-32.57
-37.22
-40.56
-42.49
-43.46
-44.13
-45.09
-46.60
-48.49
-50.42
-52.02
-53.16
-53.93
-54.59
-55.55
-57.28
-60.29
-64.94
-71.30
-79.19
-88.21
-98.07
-108.78
-120.84
-135.13
-152.71
-174.49
-200.96
-231.90
-266.03
-300.91
-333.22
-359.41
-376.59
-383.41
-380.30
-369.14
-352.37
-332.09
-309.60
-285.43
-259.85
-233.24
-206.35
-180.05
-155.12
-131.96
-110.73
-91.54
-74.66
-60.55
-49.72
-42.50
-38.82
-38.10
-39.44
-41.81
-44.40
-46.70
-48.61
-50.24
-51.75
-53.13
-53.12
-50.69
-45.69
-38.78
-30.67
-21.86
-12.67
-3.37
5.91
16.22
28.35
42.20
56.91
71.52
85.31
97.71
108.32
117.01
126.48
138.68
153.43
168.81
183.02
195.11
204.77
212.09
217.54
228.61
250.13
280.56
313.94
345.37
373.50
399.32
424.34
449.32
487.30
544.37
613.38
679.10
730.24
763.90
782.26
788.21
783.25
789.14
818.17
863.52
906.75
935.61
950.04
956.45
961.47
968.98
1008.24
1094.70
1216.91
1345.81
1458.08
1544.99
1606.63
1645.37
1487.01
1066.39
474.62
-112.20
-575.61
-892.00
-1088.81
-1203.72
-1266.78
-1296.90
-1276.67
-1197.63
-1077.74
-953.38
-853.44
-788.48
-755.52
-745.59
-748.95
-736.13
-690.53
-618.71
-542.76
-481.14
-440.63
-420.04
-415.40
-423.01
-423.48
-404.99
-369.85
-330.43
-297.61
-275.64
-263.80
-259.10
-258.10
-251.30
-233.70
-207.77
-180.79
-158.52
-142.48
-131.06
-121.93
-113.69
-104.05
-93.15
-83.20
-76.59
-73.63
-72.29
-70.03
-65.50
-59.18
-52.76
-48.13
-46.12
-46.30
-47.45
-48.41
-48.84
-49.29
-50.91
-54.54
-60.28
-67.38
-74.52
-80.26
-83.28
-82.35
-76.16
-63.37
-42.76
-14.10
21.08
58.84
93.37
118.47
129.64
125.69
109.04
85.23
61.34
43.65
35.70
37.56
46.53
58.48
69.48
76.40
78.43
77.05
74.48
71.94
69.01
64.15
55.79
43.14
25.25
3.02
-20.44
-41.28
-56.77
-65.67
-67.84
-64.00
-55.74
-47.64
-43.29
-43.02
-44.47
-44.90
-42.10
-34.86
-23.74
-11.80
-7.22
-17.19
-43.60
-82.57
-127.04
-168.61
-199.40
-214.25
-194.46
-138.46
-67.07
-5.88
34.84
58.91
73.83
84.32
90.87
91.66
82.62
63.89
41.16
22.72
13.91
15.14
23.71
36.31
50.92
64.94
77.93
90.29
102.09
110.39
110.23
97.93
73.14
39.15
-0.35
-37.00
-62.91
-73.35
-66.64
-45.02
-13.85
19.96
49.89
70.67
80.38
76.57
63.04
44.96
25.67
6.58
-11.94
-29.51
-45.80
-60.50
-74.23
-86.63
-97.07
-104.69
-108.16
-106.19
-98.21
-85.24
-69.75
-55.10
-43.56
-36.23
-32.76
-31.30
-30.44
-28.49
-24.55
-18.86
-12.77
-7.59
-4.53
-4.35
-6.92
-11.20
-15.20
-16.62
-13.44
-4.56
9.81
27.68
45.70
60.01
67.35
66.11
56.62
41.05
22.83
5.77
-7.11
-14.33
-16.18
-14.33
-10.82
-7.28
-4.29
-1.33
2.69
8.83
17.56
28.55
40.72
52.51
62.24
68.58
70.99
69.94
66.66
62.62
59.01
56.53
55.43
55.67
56.91
58.40
58.86
56.90
51.69
43.71
34.73
26.98
21.83
18.66
15.01
7.70
-5.27
-23.61
-44.63
-64.56
-80.17
-90.07
-94.94
-96.85
-98.23
-100.92
-105.81
-112.94
-121.77
-131.56
-141.63
-151.46
-160.84
-169.75
-178.10
-185.24
-189.49
-188.07
-177.88
-156.76
-124.93
-85.28
-42.72
-2.42
31.85
58.53
77.89
90.88
98.24
100.13
96.75
88.89
78.22
66.89
56.68
48.49
42.29
37.71
34.57
33.28
34.68
39.70
48.80
61.70
77.28
93.78
109.10
121.18
128.57
130.71
128.01
121.72
113.48
104.83
96.65
88.94
80.79
70.79
57.59
40.46
19.66
-3.73
-28.20
-52.34
-75.28
-96.68
-116.55
-134.97
-151.93
-167.28
-180.78
-192.20
-201.24
-207.53
-210.60
-209.94
-204.95
-194.91
-178.98
-156.41
-127.01
-91.61
-52.33
-12.15
25.79
59.03
86.15
106.63
120.20
126.45
124.88
115.40
98.98
77.78
54.81
33.12
15.10
2.21
-4.88
-5.95
-1.02
9.61
25.19
44.48
65.72
87.01
106.65
123.57
137.53
148.89
158.20
165.68
170.93
173.20
171.91
167.22
160.13
152.07
144.12
136.32
127.65
116.65
102.41
85.28
66.84
49.16
33.76
21.00
10.09
-0.25
-10.94
-21.91
-31.98
-39.35
-42.27
-39.84
-32.33
-21.05
-7.86
5.50
17.87
28.74
38.06
45.69
51.14
53.69
52.82
48.83
43.11
37.94
35.83
38.70
47.37
61.53
80.03
101.27
123.48
144.78
163.16
176.69
183.91
184.34
178.89
169.73
159.75
151.54
146.45
144.10
142.34
138.12
128.43
111.41
86.91
56.42
22.48
-12.33
-46.42
-79.72
-113.31
-148.65
-186.55
-226.38
-266.17
-302.97
-333.66
-355.45
-366.28
-364.88
-350.94
-325.31
-290.01
-248.09
-203.24
-159.09
-118.85
-85.31
-61.08
-48.52
-49.09
-62.27
-84.62
-109.83
-130.20
-139.03
-133.03
-113.54
-85.88
-56.90
-32.03
-13.10
2.23
19.01
42.22
74.16
112.90
152.46
184.59
201.28
197.43
172.49
130.56
79.02
26.18
-20.99
-58.49
-85.29
-102.36
-111.10
-112.25
-105.72
-91.38
-70.19
-44.80
-19.14
2.99
19.34
30.02
36.93
42.42
47.83
52.84
55.87
55.37
51.03
44.35
38.13
35.27
37.58
44.91
55.29
65.68
73.20
76.23
74.94
71.10
67.22
65.22
65.64
67.45
68.82
68.25
65.51
61.90
59.65
60.88
66.66
76.50
88.51
99.95
108.07
110.87
107.61
98.87
86.23
71.76
57.38
44.53
33.89
25.54
19.08
13.99
9.75
5.96
2.39
-1.15
-4.83
-8.73
-12.83
-16.82
-20.19
-22.44
-23.45
-23.63
-23.80
-24.65
-26.34
-28.34
-29.94
-30.90
-31.80
-33.77
-37.73
-43.59
-50.18
-56.04
-60.35
-63.67
-67.62
-73.77
-82.58
-92.90
-102.47
-109.13
-111.82
-110.91
-107.62
-103.10
-97.62
-90.43
-80.28
-66.34
-48.94
-29.83
-11.67
2.94
12.53
17.47
19.76
22.20
27.08
35.23
45.77
56.62
65.51
70.82
72.05
69.53
64.02
56.22
46.77
36.46
26.45
18.29
13.52
13.20
17.50
25.64
36.28
47.90
59.23
69.29
77.14
81.69
81.63
75.78
63.70
46.29
25.70
4.73
-14.17
-29.70
-41.91
-51.69
-60.00
-67.19
-73.01
-76.88
-78.48
-78.05
-76.20
-73.57
-70.40
-66.56
-61.85
-56.44
-51.22
-47.47
-46.35
-48.20
-52.05
-55.77
-56.79
-52.97
-43.37
-28.51
-9.97
10.41
31.23
51.88
72.18
91.80
109.80
124.58
134.42
138.17
135.88
128.94
119.62
110.28
102.62
97.15
93.26
89.66
85.09
78.83
70.80
61.48
51.55
41.63
32.10
23.06
14.40
5.89
-2.83
-12.13
-22.36
-33.56
-45.32
-56.59
-65.82
-71.36
-72.06
-67.74
-59.41
-48.98
-38.80
-30.90
-26.59
-26.15
-28.98
-33.88
-39.34
-43.87
-46.36
-46.37
-44.42
-41.93
-40.80
-42.63
-47.95
-55.85
-64.34
-71.17
-74.80
-74.88
-72.07
-67.42
-61.72
-55.25
-47.94
-39.64
-30.27
-19.66
-7.33
7.34
24.73
44.34
64.40
82.22
94.80
99.91
96.66
85.80
69.36
50.10
30.80
13.71
0.22
-9.18
-14.79
-17.37
-17.74
-16.60
-14.46
-11.72
-8.75
-5.83
-3.09
-0.45
2.30
5.27
8.27
10.95
13.05
14.69
16.40
18.82
22.07
25.46
27.42
26.19
20.57
10.59
-2.37
-16.08
-28.14
-36.73
-41.02
-41.19
-38.12
-33.11
-27.42
-22.12
-17.88
-14.92
-13.12
-12.11
-11.41
-10.44
-8.67
-5.65
-1.14
4.69
11.29
18.06
24.82
32.10
40.98
52.35
66.14
80.79
93.44
100.73
99.82
89.20
69.05
41.09
8.20
-26.03
-57.94
-84.27
-102.76
-112.40
-113.43
-106.97
-94.63
-78.13
-59.30
-39.98
-22.00
-6.85
4.68
12.63
17.85
21.47
24.49
27.43
30.16
32.11
32.53
30.76
26.44
19.67
10.91
0.90
-9.43
-19.09
-27.15
-32.89
-36.00
-36.84
-36.60
-37.08
-40.21
-47.19
-57.93
-70.73
-82.71
-90.77
-92.61
-87.52
-76.50
-61.73
-45.67
-30.16
-15.88
-2.36
11.46
26.55
43.11
60.29
76.40
89.39
97.55
100.00
96.85
89.02
77.82
64.64
50.71
37.17
25.16
15.85
10.34
9.47
13.68
22.97
36.90
54.51
74.20
93.58
109.69
119.57
121.15
113.99
99.46
80.12
58.74
37.37
17.01
-2.21
-20.35
-37.24
-52.48
-65.79
-77.39
-87.94
-98.34
-109.06
-119.92
-130.06
-138.21
-143.13
-143.91
-140.03
-131.44
-118.53
-102.22
-84.14
-66.49
-51.58
-41.04
-34.93
-31.31
-26.71
-17.47
-1.40
21.02
46.53
70.25
87.48
95.29
93.14
82.54
66.00
46.14
25.24
5.44
-10.97
-21.51
-23.94
-17.02
-1.16
21.35
46.83
71.09
90.30
101.69
104.15
98.82
89.41
81.80
82.32
95.17
120.06
151.48
180.46
198.12
199.29
184.35
158.41
128.57
101.16
79.99
66.29
59.39
57.40
57.35
55.20
46.60
28.08
-1.79
-41.86
-89.29
-141.23
-196.27
-254.61
-316.75
-381.26
-443.31
-494.91
-527.20
-533.78
-513.27
-470.00
-412.17
-348.49
-284.92
-223.45
-163.17
-102.76
-42.82
13.64
62.61
101.24
129.08
147.42
157.29
157.84
146.68
121.94
85.39
43.95
8.16
-11.74
-10.35
10.56
43.13
77.26
105.00
123.07
132.52
136.47
137.50
136.37
132.45
125.16
115.00
103.70
93.35
85.24
79.13
73.52
66.54
57.12
45.70
34.25
25.75
23.41
29.92
46.86
74.21
109.77
148.99
185.47
212.30
223.74
216.70
191.24
150.38
99.04
42.74
-13.47
-65.57
-110.87
-147.86
-175.96
-195.25
-205.77
-207.30
-199.50
-182.58
-157.68
-126.76
-92.03
-55.23
-17.67
20.24
58.62
97.52
136.45
174.65
211.39
245.93
277.02
301.56
316.11
318.37
308.08
286.85
257.74
224.26
189.12
153.60
116.04
74.40
27.68
-23.94
-79.55
-137.19
-193.02
-241.46
-276.74
-297.04
-303.91
-300.56
-290.65
-277.29
-262.09
-245.05
-226.43
-196.48
-155.09
-112.51
-79.99
-60.20
-47.57
-35.08
-19.22
-1.32
14.98
24.80
25.54
19.76
12.52
7.79
5.60
5.40
5.34
3.77
-1.47
-12.57
-28.58
-47.03
-65.76
-83.61
-99.58
-112.74
-121.95
-116.35
-95.87
-65.29
-31.10
1.07
27.86
48.26
62.64
71.57
74.43
69.56
57.67
41.82
26.47
15.93
12.40
14.77
19.74
20.97
13.32
-1.46
-16.23
-24.03
-20.83
-7.67
10.80
28.40
40.54
45.63
46.07
45.68
47.34
51.21
56.52
62.78
69.29
75.60
78.96
77.75
71.78
62.04
52.54
42.80
32.29
20.11
5.14
-12.19
-30.28
-47.68
-63.97
-79.03
-92.71
-98.79
-92.54
-73.61
-45.87
-14.70
14.42
35.91
45.67
42.38
28.73
9.32
-10.60
-27.21
-38.38
-43.45
-43.59
-40.04
-33.16
-21.95
-6.03
13.68
35.00
54.90
70.14
75.94
69.11
49.92
22.26
-8.57
-37.89
-62.61
-81.19
-88.98
-83.28
-65.57
-41.23
-16.70
2.55
12.74
12.70
4.17
-8.95
-23.25
-36.37
-47.10
-55.97
-62.77
-67.29
-69.22
-68.12
-63.50
-55.91
-46.37
-35.74
-24.65
-13.44
-2.46
8.14
16.97
23.06
25.51
23.96
18.79
11.17
2.72
-5.18
-11.70
-16.68
-20.42
-23.80
-27.62
-32.11
-36.81
-40.75
-43.04
-43.19
-41.14
-37.13
-31.69
-25.51
-19.23
-13.19
-7.25
-0.65
7.86
19.62
35.30
54.11
73.65
90.52
101.49
104.67
100.12
89.42
74.79
58.18
40.69
22.74
4.81
-11.80
-24.95
-32.33
-32.57
-25.99
-14.66
-1.56
10.74
21.09
30.04
39.20
49.97
62.51
75.40
86.15
92.33
92.58
87.16
77.62
66.03
54.05
42.34
30.56
17.73
3.00
-13.67
-31.27
-47.96
-61.76
-71.10
-75.37
-74.91
-70.69
-63.76
-54.92
-44.52
-32.71
-19.72
-6.22
6.71
17.88
26.45
32.29
36.13
39.22
42.78
47.47
53.16
59.21
64.63
68.41
69.86
68.78
65.47
60.40
54.00
46.44
37.85
27.98
16.14
1.34
-17.14
-39.31
-64.23
-90.22
-115.25
-136.89
-153.34
-163.87
-168.70
-168.47
-164.11
-157.02
-149.21
-143.10
-139.22
-137.40
-137.33
-138.60
-140.14
-140.06
-136.55
-128.58
-116.22
-97.29
-70.93
-39.33
-7.18
21.37
45.05
65.48
85.85
109.17
142.02
187.30
240.96
293.21
334.20
358.73
367.11
363.63
354.37
351.86
365.68
397.69
442.86
494.77
549.40
604.19
655.66
656.20
575.29
420.19
233.69
61.83
-69.32
-154.05
-199.62
-219.52
-227.85
-228.62
-221.26
-206.76
-189.61
-174.83
-165.00
-160.49
-160.62
-164.55
-166.69
-160.35
-145.83
-128.91
-116.28
-111.79
-116.05
-127.28
-142.46
-155.02
-159.82
-156.40
-148.53
-141.58
-139.98
-146.32
-160.92
-181.63
-202.37
-215.98
-217.43
-205.42
-182.58
-154.41
-127.75
-108.12
-97.74
-94.30
-92.84
-88.72
-79.20
-63.89
-44.04
-22.03
0.16
21.29
40.46
56.55
67.95
73.41
72.71
66.92
56.87
43.85
29.49
15.50
3.05
-7.14
-14.36
-17.71
-16.52
-12.67
-8.48
-5.74
-5.26
-7.31
-11.85
-18.37
-25.91
-33.53
-43.01
-55.92
-72.57
-91.63
-111.42
-130.66
-148.47
-164.17
-163.35
-138.97
-95.82
-47.54
-5.77
24.58
43.55
53.44
57.37
58.42
56.09
50.42
41.79
31.40
20.11
8.04
-4.88
-18.23
-31.19
-44.59
-57.34
-68.16
-75.57
-79.01
-79.32
-77.96
-75.94
-73.39
-70.46
-66.26
-59.19
-47.29
-29.54
-6.85
17.95
40.91
58.13
66.42
64.92
55.16
40.60
25.26
11.97
1.76
-5.70
-11.40
-16.40
-21.25
-26.08
-30.70
-34.26
-36.25
-36.13
-32.72
-24.10
-8.39
15.10
45.15
78.78
113.24
144.99
170.73
188.85
200.03
206.74
212.11
218.92
229.05
245.13
266.90
291.46
315.04
334.53
347.87
353.78
351.63
341.51
326.38
307.12
282.23
249.55
208.27
159.52
106.17
52.27
-12.78
-84.22
-148.63
-195.41
-224.14
-241.02
-252.36
-261.46
-268.66
-274.10
-274.32
-268.18
-257.20
-243.60
-228.58
-212.24
-194.48
-175.55
-155.49
-133.95
-112.45
-93.69
-79.78
-70.95
-65.85
-62.50
-59.04
-54.05
-45.49
-32.96
-17.70
-1.64
13.60
27.05
38.31
47.33
54.34
60.04
64.51
67.18
67.38
65.00
60.46
54.54
47.93
41.05
34.21
27.38
20.45
13.47
6.91
1.39
-2.53
-4.61
-4.90
-3.68
-1.10
2.63
7.24
12.14
16.39
18.81
18.37
14.61
7.85
-0.86
-9.98
-17.93
-23.37
-25.43
-23.78
-18.69
-11.07
-2.28
6.12
12.75
16.76
18.03
17.08
14.73
11.77
8.72
5.84
3.23
1.05
-0.45
-1.07
-0.82
-0.03
0.78
1.03
0.43
-1.01
-2.98
-5.13
-7.17
-9.06
-10.88
-12.77
-14.87
-17.22
-19.85
-22.75
-25.80
-28.70
-30.92
-31.81
-30.83
-27.73
-22.66
-16.18
-9.02
-1.91
4.53
9.87
13.89
16.46
17.66
17.68
16.95
15.92
15.08
14.79
15.18
16.17
17.39
18.39
18.69
18.03
16.45
14.31
12.10
10.24
8.89
7.90
6.97
5.88
4.49
2.81
0.81
-1.66
-4.76
-8.49
-12.53
-16.21
-18.78
-19.66
-18.66
-16.02
-12.27
-7.93
-3.45
0.87
4.78
7.98
10.16
11.05
10.53
8.74
6.01
2.80
-0.33
-3.00
-4.98
-6.26
-7.04
-7.57
-8.07
-8.56
-8.99
-9.21
-9.13
-8.77
-8.21
-7.63
-7.22
-7.26
-8.05
-9.85
-12.66
-16.08
-19.31
-21.32
-21.25
-18.68
-13.83
-7.43
-0.41
6.41
12.49
17.53
21.42
24.08
25.45
25.55
24.50
22.50
19.81
16.65
13.18
9.54
5.81
2.11
-1.46
-4.77
-7.69
-10.11
-12.01
-13.49
-14.76
-16.05
-17.59
-19.45
-21.56
-23.74
-25.81
-27.67
-29.23
-30.32
-30.60
-29.62
-26.99
-22.56
-16.52
-9.39
-1.88
5.27
11.37
15.81
18.18
18.37
16.63
13.57
10.01
6.76
4.36
2.96
2.40
2.30
2.29
2.08
1.51
0.58
-0.61
-1.77
-2.53
-2.56
-1.71
-0.15
1.65
3.06
3.58
3.01
1.59
-0.08
-1.24
-1.35
-0.21
1.95
4.67
7.46
9.97
12.08
13.77
15.03
15.82
16.05
15.68
14.76
13.48
12.05
10.71
9.52
8.42
7.19
5.58
3.44
0.85
-1.88
-4.26
-5.91
-6.73
-6.97
-7.16
-7.78
-9.08
-10.94
-13.07
-15.20
-17.22
-19.19
-21.16
-22.95
-24.06
-23.88
-21.97
-18.36
-13.50
-7.87
-1.70
5.11
12.78
21.26
29.97
37.84
43.62
46.45
46.26
43.82
40.27
36.74
33.98
32.21
31.15
30.12
28.41
25.96
23.18
20.65
18.81
17.73
17.13
16.42
14.80
11.61
7.18
2.18
-3.15
-9.24
-16.64
-25.41
-34.70
-43.34
-50.10
-53.11
-51.43
-45.90
-38.76
-32.15
-26.92
-22.09
-16.25
-8.17
4.08
21.51
43.44
67.76
92.13
114.58
133.61
146.94
144.16
119.38
77.10
30.87
-6.47
-28.53
-39.21
-43.52
-46.34
-51.45
-58.21
-64.89
-69.88
-72.67
-73.14
-71.20
-66.57
-60.02
-53.13
-45.86
-38.17
-30.54
-24.41
-20.47
-18.16
-15.70
-11.75
-5.72
4.05
18.31
36.20
54.89
71.55
84.17
91.79
93.48
88.32
77.55
62.27
42.59
16.44
-18.33
-61.02
-104.80
-139.39
-164.57
-180.58
-189.46
-189.60
-184.35
-177.95
-173.21
-170.33
-167.92
-164.37
-157.59
-147.33
-134.77
-122.19
-110.32
-98.06
-83.33
-64.77
-42.64
-17.88
7.15
29.34
45.36
53.69
55.04
51.82
46.87
42.28
39.40
38.14
37.31
35.06
30.21
22.60
13.27
3.94
-3.40
-6.53
-3.69
6.11
22.32
43.10
65.64
87.52
107.21
124.55
140.72
157.83
178.06
202.57
230.67
259.76
287.13
310.57
328.66
340.30
344.14
338.13
319.46
285.25
234.33
170.00
99.94
34.23
-17.80
-50.04
-60.89
-53.14
-32.94
-14.25
-9.57
-24.08
-52.06
-82.78
-108.26
-126.23
-138.34
-147.28
-154.61
-158.89
-157.24
-147.66
-131.64
-112.02
-92.30
-74.96
-60.84
-49.61
-40.13
-31.68
-24.80
-21.09
-22.16
-28.52
-38.80
-50.38
-59.80
-64.30
-63.24
-58.73
-52.81
-49.33
-51.41
-58.68
-67.25
-72.60
-72.07
-66.01
-57.40
-50.81
-47.72
-48.35
-51.70
-55.77
-58.95
-60.70
-61.48
-62.55
-61.97
-58.41
-51.38
-40.51
-25.20
-5.21
18.82
45.47
72.49
98.91
123.44
144.32
154.38
148.56
127.93
99.52
76.37
59.52
47.56
38.64
29.44
19.00
8.05
-2.55
-12.69
-24.41
-38.57
-53.07
-65.62
-76.69
-86.64
-94.60
-99.54
-99.52
-94.24
-84.56
-70.84
-53.96
-35.60
-17.61
-1.55
11.37
20.58
26.13
28.89
30.96
34.09
38.68
43.98
49.20
53.82
57.80
61.07
63.39
64.89
65.23
63.57
58.67
50.75
40.88
30.50
20.35
10.40
0.97
-7.88
-16.65
-26.90
-38.53
-50.37
-60.47
-67.06
-68.62
-63.04
-49.03
-27.07
-0.68
27.30
54.42
79.11
100.03
109.77
103.42
82.81
62.91
47.46
36.71
27.63
19.81
13.17
7.46
3.07
0.11
-2.16
-6.35
-13.28
-22.70
-32.97
-42.57
-50.46
-55.70
-57.94
-57.71
-57.21
-57.50
-58.92
-60.25
-60.08
-57.40
-51.75
-43.27
-32.59
-21.38
-10.65
-1.00
8.79
20.46
35.63
54.94
78.24
104.74
132.46
158.70
173.36
167.80
140.69
99.91
56.20
17.27
-13.18
-34.47
-47.38
-53.32
-52.70
-47.53
-38.55
-28.21
-19.75
-15.41
-15.76
-20.00
-26.57
-33.08
-37.76
-40.23
-40.13
-38.89
-37.88
-37.82
-38.77
-40.32
-41.29
-40.56
-37.58
-32.97
-28.07
-23.83
-20.59
-18.26
-16.57
-15.06
-13.45
-11.67
-10.01
-8.97
-8.60
-8.66
-8.87
-9.11
-9.40
-9.90
-10.82
-12.40
-14.88
-18.20
-22.06
-26.11
-30.08
-33.85
-37.44
-40.89
-44.26
-47.52
-50.45
-52.60
-53.43
-52.40
-49.17
-43.77
-36.60
-28.41
-20.01
-12.11
-5.10
0.91
6.00
10.29
13.81
16.58
18.61
20.02
21.01
21.84
22.65
23.46
24.19
24.69
24.89
24.78
24.41
23.83
23.06
22.09
20.92
19.55
18.04
16.39
14.55
12.37
9.76
6.80
3.81
1.34
-0.04
0.03
1.63
4.52
8.33
12.73
17.51
22.52
27.57
32.35
36.40
39.32
40.90
41.26
40.80
40.05
39.42
39.12
39.09
39.03
38.56
37.40
35.47
32.96
30.21
27.58
25.31
23.47
21.94
20.59
19.35
18.20
17.20
16.32
15.41
14.24
12.66
10.69
8.55
6.50
4.62
2.84
0.94
-1.12
-3.18
-4.92
-6.12
-6.95
-8.03
-10.22
-14.21
-20.17
-27.55
-35.30
-42.21
-47.26
-49.92
-50.15
-48.31
-44.97
-40.75
-36.11
-31.37
-26.70
-22.23
-17.98
-14.00
-10.25
-6.66
-3.18
0.14
3.12
5.51
7.05
7.66
7.43
6.59
5.38
4.07
2.88
2.05
1.80
2.22
3.22
4.51
5.72
6.51
6.80
6.69
6.33
5.80
4.97
3.55
1.32
-1.67
-5.06
-8.32
-10.88
-12.69
-13.99
-15.25
-16.95
-19.34
-22.32
-25.39
-27.97
-29.58
-30.30
-30.43
-30.39
-30.54
-30.97
-31.53
-31.70
-31.02
-28.97
-25.83
-21.85
-17.34
-12.67
-8.18
-4.19
-0.68
2.38
5.64
8.07
9.27
8.77
6.18
1.39
-5.26
-12.24
-18.01
-20.24
-20.74
-20.72
-21.78
-25.37
-32.19
-41.83
-51.33
-57.87
-57.69
-53.93
-48.74
-44.56
-43.51
-46.77
-54.25
-62.02
-65.58
-57.75
-38.35
-4.55
45.42
110.55
185.87
262.83
334.36
373.70
399.77
409.06
404.99
393.07
378.28
363.38
328.87
266.44
182.88
98.57
25.19
-31.66
-73.78
-105.99
-132.48
-156.90
-177.41
-190.30
-191.06
-183.12
-169.78
-155.38
-144.18
-139.55
-136.69
-131.40
-121.08
-104.18
-84.13
-63.18
-42.82
-25.82
-10.92
3.06
17.63
33.82
52.19
70.80
88.76
105.17
119.90
133.77
147.56
162.10
178.07
195.73
214.11
232.29
249.31
263.90
274.30
277.43
269.68
248.34
212.79
164.94
108.97
49.96
-7.55
-60.43
-107.44
-148.50
-183.37
-211.19
-230.76
-241.16
-242.44
-235.68
-222.72
-205.73
-186.81
-167.50
-148.64
-130.50
-112.86
-95.05
-76.19
-55.66
-33.88
-12.97
3.07
9.14
0.99
-22.55
-58.12
-98.19
-133.54
-156.83
-165.43
-162.09
-153.02
-144.59
-140.41
-140.23
-141.23
-140.23
-135.61
-127.78
-118.20
-108.04
-97.36
-85.22
-70.73
-53.96
-36.42
-20.89
-10.94
-10.01
-20.41
-42.48
-74.03
-110.44
-145.54
-172.85
-186.97
-184.49
-164.30
-127.66
-78.12
-21.36
35.32
83.89
117.25
130.67
122.91
96.05
54.42
3.14
-52.91
-109.38
-162.39
-208.41
-244.60
-269.30
-282.27
-284.43
-276.96
-260.56
-235.27
-200.83
-157.58
-107.02
-51.60
6.05
63.99
121.35
177.90
233.11
285.44
332.32
370.66
397.73
411.88
412.77
401.32
379.38
349.57
314.90
278.51
243.15
210.88
182.83
159.23
139.54
122.70
107.44
92.60
77.69
63.18
50.45
41.17
36.38
35.77
37.62
39.52
39.62
37.50
34.29
31.93
32.05
35.10
40.14
45.22
48.17
47.46
42.63
34.53
25.03
16.55
11.35
10.98
15.87
25.28
37.58
50.73
62.64
71.58
76.32
76.26
71.54
63.04
52.20
40.53
29.22
18.83
9.45
1.15
-5.74
-10.55
-12.78
-12.61
-11.03
-9.74
-10.61
-15.17
-24.27
-37.95
-55.28
-74.58
-93.63
-110.13
-122.56
-130.96
-137.28
-144.64
-155.73
-171.01
-187.69
-200.46
-203.55
-193.42
-170.56
-139.57
-107.58
-81.83
-67.55
-67.41
-82.12
-111.36
-153.60
-205.04
-258.60
-304.48
-332.85
-337.63
-319.38
-285.44
-246.83
-213.67
-190.97
-177.26
-166.21
-150.06
-122.87
-82.33
-29.94
29.91
90.89
145.82
187.87
212.04
216.51
203.11
176.61
142.99
107.47
73.40
42.52
16.25
-3.20
-12.76
-9.61
7.10
35.25
69.97
105.23
135.77
158.46
172.46
178.42
177.39
169.92
155.79
134.23
103.99
63.51
11.27
-53.42
-128.89
-209.87
-287.49
-350.92
-390.30
-399.79
-379.32
-334.50
-275.05
-212.45
-157.49
-118.20
-98.20
-95.79
-104.27
-113.95
-115.04
-100.89
-69.70
-24.12
31.04
91.31
153.77
216.51
277.27
332.51
377.71
409.08
425.11
427.11
418.16
401.13
377.12
345.20
303.72
252.38
193.65
132.80
76.35
30.02
-3.00
-22.56
-31.10
-32.82
-33.03
-37.45
-51.52
-79.35
-122.33
-178.26
-241.31
-303.28
-355.51
-391.11
-406.64
-402.75
-383.63
-355.38
-323.93
-293.13
-264.04
-235.53
-205.96
-174.74
-142.78
-111.76
-82.48
-53.90
-23.40
11.59
51.68
94.60
135.88
170.69
195.92
211.14
218.34
220.46
219.88
217.56
213.11
205.53
194.14
179.23
162.18
145.23
130.65
120.19
114.52
113.07
114.23
115.86
116.02
113.43
107.81
99.78
90.55
81.53
74.02
68.94
66.60
66.60
67.79
68.66
67.76
64.26
58.28
50.80
43.31
37.28
33.76
33.18
35.38
39.76
45.31
50.77
54.61
55.37
52.04
44.52
33.87
22.12
11.64
4.22
0.34
-1.02
-1.91
-4.38
-9.55
-17.19
-25.99
-34.40
-41.26
-46.27
-49.71
-52.09
-53.70
-54.54
-54.30
-52.38
-47.81
-39.18
-24.78
-3.39
24.71
56.83
88.06
112.63
126.03
126.80
117.15
102.03
87.15
77.12
74.37
79.19
90.53
106.78
126.23
147.17
167.81
186.32
201.09
210.71
213.92
209.31
195.03
168.95
129.19
75.28
9.55
-61.99
-129.84
-182.71
-210.30
-206.32
-170.41
-108.60
-31.84
46.75
114.78
162.98
186.42
184.52
160.06
117.72
62.70
-0.05
-65.87
-129.95
-187.06
-232.12
-261.77
-276.16
-279.39
-278.36
-279.97
-287.92
-300.98
-313.32
-316.97
-304.87
-273.36
-223.20
-159.26
-89.34
-22.62
32.02
67.75
81.24
73.43
49.13
15.56
-19.85
-51.25
-75.23
-90.70
-98.10
-98.79
-94.60
-87.50
-79.07
-69.72
-58.08
-41.16
-15.20
23.00
74.89
139.37
212.76
289.27
361.79
423.02
466.83
489.49
490.67
473.54
443.88
408.38
372.58
339.47
309.07
279.27
247.19
210.79
169.52
124.21
76.31
26.91
-23.50
-74.73
-125.98
-175.04
-217.91
-249.37
-264.22
-258.87
-232.78
-189.04
-133.92
-75.89
-23.94
14.04
32.61
29.94
8.46
-25.35
-62.25
-92.43
-108.50
-107.81
-93.33
-72.43
-54.30
-47.00
-55.28
-79.49
-115.66
-156.36
-192.03
-213.09
-212.62
-188.52
-144.60
-89.51
-33.82
13.42
46.90
65.43
70.32
63.69
47.62
24.40
-2.70
-29.20
-50.31
-62.63
-65.35
-60.65
-52.80
-46.40
-44.77
-48.96
-57.73
-68.24
-77.02
-80.98
-78.27
-68.90
-54.88
-39.76
-27.70
-22.33
-25.86
-38.81
-60.14
-87.70
-118.59
-149.20
-175.35
-192.82
-198.45
-191.32
-173.62
-150.15
-126.88
-108.83
-98.63
-96.22
-99.60
-106.08
-113.13
-118.61
-120.21
-115.32
-101.33
-76.90
-43.40
-5.28
30.71
58.10
73.31
77.18
74.27
70.17
68.32
67.98
64.86
53.56
30.76
-2.48
-40.78
-76.20
-100.68
-108.01
-95.16
-63.03
-16.71
35.09
81.84
114.14
126.86
121.10
103.97
85.78
76.11
80.18
97.33
121.88
145.75
161.58
164.92
155.03
134.22
106.70
77.16
49.89
27.90
12.53
3.33
-1.73
-5.86
-12.38
-23.52
-39.48
-58.09
-75.27
-86.43
-87.98
-78.75
-60.46
-37.29
-14.73
1.97
9.09
5.17
-8.90
-30.16
-54.26
-76.45
-92.66
-100.43
-99.40
-90.95
-77.25
-60.32
-41.68
-22.86
-5.91
6.42
11.65
8.92
0.03
-10.97
-19.30
-21.35
-15.83
-3.60
13.55
34.02
56.61
79.78
100.86
116.10
122.00
117.18
103.79
87.20
74.01
69.37
74.89
88.08
103.62
115.65
120.15
116.12
105.42
91.69
78.67
68.79
62.51
58.23
53.01
43.67
28.14
6.27
-20.00
-47.46
-72.93
-94.47
-111.68
-124.98
-134.40
-138.45
-134.22
-118.46
-89.11
-46.29
7.77
69.38
134.30
198.27
257.12
306.99
344.68
368.29
377.60
374.01
359.79
337.31
308.48
274.90
238.24
200.62
164.40
131.64
103.40
79.49
58.74
39.71
21.45
3.93
-12.00
-24.98
-33.88
-38.35
-38.95
-37.00
-33.93
-31.01
-29.40
-30.45
-36.15
-49.19
-72.45
-108.03
-156.03
-213.58
-274.74
-331.50
-375.65
-401.05
-405.36
-390.39
-361.19
-323.95
-284.03
-244.75
-207.45
-172.49
-140.44
-112.60
-90.52
-74.92
-64.71
-56.90
-47.47
-32.84
-11.20
16.90
49.18
82.79
115.39
145.50
172.25
195.05
213.85
229.67
244.87
262.64
285.28
312.20
338.86
358.03
362.95
350.93
325.18
293.69
265.51
246.59
237.54
234.56
232.57
228.39
221.98
215.21
209.28
202.88
192.46
174.40
147.60
114.60
80.39
49.64
24.11
1.82
-21.69
-50.88
-87.85
-131.46
-178.24
-224.17
-266.65
-305.33
-341.96
-379.37
-420.53
-467.70
-521.74
-581.35
-642.37
-697.91
-739.52
-759.56
-753.80
-722.98
-672.42
-610.01
-543.36
-477.74
-415.54
-357.11
-302.04
-250.05
-200.94
-154.02
-107.81
-60.32
-10.12
42.63
95.62
144.77
185.48
214.18
229.63
233.25
228.52
219.64
210.27
202.52
196.69
191.71
185.93
177.86
166.56
151.90
134.35
114.83
94.56
75.17
58.95
49.14
49.62
63.79
92.81
134.03
180.62
223.03
252.05
262.02
252.92
229.95
201.03
173.47
151.50
135.70
124.25
114.97
106.66
99.12
92.21
84.85
75.08
61.06
42.57
21.73
2.61
-10.47
-14.93
-11.01
-1.49
9.85
19.81
26.91
31.07
32.72
31.81
27.69
19.73
8.28
-4.91
-17.33
-26.74
-32.41
-35.33
-37.67
-41.72
-49.03
-60.33
-75.91
-95.93
-120.36
-148.12
-176.12
-198.97
-210.04
-203.61
-177.64
-135.50
-85.81
-39.94
-8.15
4.21
-1.50
-18.21
-36.24
-47.20
-46.48
-33.59
-10.63
19.63
54.84
92.90
130.95
164.87
189.99
202.89
203.14
194.06
181.67
172.43
170.72
177.18
188.56
198.91
201.80
192.63
170.19
137.18
99.29
63.22
34.60
16.48
8.97
10.01
16.53
25.59
34.87
42.86
48.78
52.62
55.20
57.98
62.53
69.87
80.06
92.00
103.95
114.16
121.42
125.18
125.29
121.65
114.06
102.49
87.64
71.42
56.79
47.07
44.61
49.84
60.93
74.58
87.46
97.65
105.22
111.84
119.76
130.71
145.22
162.49
180.58
196.67
207.54
210.26
202.95
185.49
159.63
128.47
95.37
62.89
32.23
3.25
-25.30
-55.31
-88.64
-126.26
-167.13
-207.31
-240.31
-258.89
-257.99
-237.36
-202.43
-162.69
-128.40
-107.16
-101.89
-111.24
-131.64
-159.42
-192.11
-228.48
-267.67
-308.69
-350.82
-394.35
-440.59
-490.85
-544.76
-599.12
-648.27
-685.87
-707.32
-711.25
-699.44
-675.36
-642.49
-603.37
-559.75
-513.44
-466.59
-421.50
-379.65
-341.00
-304.19
-267.37
-229.31
-189.92
-150.24
-111.64
-75.40
-42.23
-11.88
16.61
44.73
73.94
105.04
137.45
169.04
196.45
215.86
223.89
218.17
197.92
164.34
120.98
73.65
29.67
-3.43
-20.34
-19.69
-4.44
19.65
46.43
71.64
93.91
114.42
135.61
159.09
184.76
210.80
234.70
254.14
267.17
272.09
267.49
253.57
231.89
205.87
180.46
161.11
151.75
152.89
161.06
170.62
178.49
183.89
188.24
194.10
203.97
218.68
236.21
251.87
260.81
263.97
263.40
260.15
253.44
242.46
227.62
210.84
194.97
184.76
191.62
222.64
275.93
341.00
404.89
457.79
495.21
516.87
527.12
539.70
563.67
598.56
635.95
667.15
688.33
700.50
705.93
652.12
514.76
311.06
89.94
-105.82
-258.90
-370.32
-443.06
-492.21
-524.87
-535.63
-521.59
-487.65
-445.88
-405.38
-372.45
-346.60
-328.05
-314.46
-296.46
-267.41
-227.41
-183.07
-143.88
-113.43
-92.08
-79.88
-75.05
-72.42
-69.60
-66.46
-66.34
-71.86
-82.95
-97.46
-113.34
-127.61
-136.35
-138.01
-134.35
-129.90
-129.00
-133.95
-145.25
-163.14
-186.25
-211.95
-237.54
-260.85
-280.18
-293.31
-297.51
-291.21
-276.55
-256.72
-235.38
-215.22
-197.90
-183.58
-170.48
-155.50
-136.45
-115.42
-95.16
-78.15
-65.40
-57.17
-52.60
-48.66
-40.20
-21.89
7.55
49.04
102.51
166.33
235.17
296.04
330.45
327.19
304.55
277.43
256.03
239.96
228.82
219.20
206.29
187.16
162.72
135.73
106.07
74.30
42.12
13.27
-8.67
-21.30
-24.25
-19.15
-10.44
-5.94
-10.58
-24.45
-43.15
-62.07
-78.53
-91.69
-100.18
-102.18
-97.27
-85.41
-68.09
-48.46
-31.28
-20.01
-13.99
-7.04
8.36
35.89
73.78
115.57
153.50
180.56
193.11
184.42
153.75
108.41
60.93
22.67
-0.52
-7.76
-2.84
8.01
18.60
25.30
27.18
25.50
21.24
14.49
5.15
-7.84
-24.87
-44.30
-62.73
-76.89
-85.67
-86.73
-81.63
-67.83
-46.85
-23.84
-5.23
3.83
1.62
-9.65
-24.56
-36.39
-38.54
-28.13
-9.94
13.64
38.99
62.21
80.77
94.18
103.08
108.28
108.53
100.98
83.00
54.61
18.00
-21.56
-56.80
-81.07
-90.50
-85.92
-71.60
-52.32
-31.98
-12.41
6.21
23.35
36.16
39.59
27.93
-2.03
-48.61
-105.74
-164.54
-215.63
-250.97
-265.17
-255.70
-223.35
-172.90
-113.50
-58.30
-21.27
-12.44
-33.41
-75.88
-124.06
-160.14
-170.43
-149.17
-99.20
-29.76
46.93
118.48
174.13
206.02
210.38
188.55
146.95
95.37
43.75
-1.14
-37.14
-66.07
-90.95
-113.31
-131.84
-142.81
-141.92
-126.36
-96.09
-54.05
-5.56
42.81
84.55
114.26
128.37
125.55
106.64
74.24
32.16
-15.14
-62.95
-106.59
-141.69
-164.48
-172.37
-164.49
-142.17
-109.06
-70.71
-33.65
-3.90
14.29
19.41
12.73
-2.47
-22.23
-43.15
-63.01
-80.71
-95.53
-106.38
-111.27
-107.49
-92.36
-64.38
-23.89
26.57
82.76
139.67
192.51
237.69
273.16
298.40
313.88
320.42
318.75
309.21
291.94
266.99
234.70
196.13
153.54
110.86
73.57
47.67
37.75
44.85
65.26
91.08
112.61
121.75
114.81
93.39
62.94
29.91
-1.21
-29.21
-55.54
-82.29
-110.07
-137.15
-160.18
-175.99
-183.45
-184.10
-181.36
-178.85
-178.70
-180.97
-184.19
-186.67
-187.60
-187.49
-187.72
-189.74
-194.35
-201.24
-209.14
-216.14
-220.10
-219.06
-211.41
-196.11
-172.93
-142.65
-107.20
-69.54
-33.08
-0.91
25.32
45.30
59.68
69.45
75.47
78.14
77.36
72.83
64.41
52.89
39.69
26.65
15.75
8.77
6.56
8.42
11.99
13.99
12.44
6.82
-1.87
-11.72
-20.84
-28.51
-35.67
-44.41
-56.53
-69.87
-81.37
-88.83
-91.88
-91.27
-87.80
-81.64
-72.13
-57.92
-32.44
8.40
63.64
127.97
195.86
264.29
332.49
399.79
463.82
528.15
592.07
649.48
691.90
714.72
719.91
713.56
701.50
686.76
679.93
686.07
702.24
720.01
732.25
736.81
734.87
727.95
655.11
490.54
255.76
7.72
-204.06
-360.61
-466.56
-535.90
-581.02
-615.73
-634.75
-631.26
-604.55
-561.65
-512.13
-463.71
-419.54
-383.36
-358.21
-336.73
-312.55
-284.18
-255.17
-229.97
-211.00
-198.69
-192.83
-192.57
-191.04
-183.29
-168.76
-151.00
-134.30
-121.22
-112.26
-106.96
-104.24
-100.25
-92.62
-81.61
-69.60
-59.11
-51.34
-46.16
-42.88
-40.63
-37.72
-33.26
-27.39
-21.03
-15.18
-10.47
-7.22
-5.62
-5.63
-6.79
-8.42
-9.74
-10.13
-9.36
-7.62
-5.42
-3.33
-1.78
-0.93
-0.77
-1.19
-2.10
-3.42
-5.04
-6.81
-8.58
-10.25
-11.84
-13.50
-15.41
-17.64
-20.09
-22.45
-24.17
-24.71
-23.63
-20.74
-16.24
-10.59
-4.50
1.29
6.16
9.67
11.68
12.35
12.07
11.32
10.48
9.78
9.24
8.70
7.97
6.93
5.65
4.50
3.88
4.11
5.28
7.21
9.47
11.57
13.09
13.92
14.48
15.34
17.11
20.32
25.34
32.15
40.30
48.68
56.02
61.49
64.66
65.92
66.89
69.97
77.47
90.29
106.70
122.82
134.14
136.64
128.27
109.67
83.29
51.93
17.84
-17.56
-52.26
-82.58
-104.77
-116.38
-117.35
-110.74
-101.68
-92.48
-85.64
-85.18
-89.73
-95.25
-98.96
-99.63
-97.50
-93.66
-89.11
-84.65
-80.01
-73.74
-64.64
-51.92
-35.48
-16.27
4.00
23.69
41.43
56.81
70.31
82.32
93.25
103.10
111.18
116.44
118.31
116.83
112.87
107.57
102.20
98.45
97.94
101.59
109.40
120.81
134.35
147.94
158.36
157.35
139.83
108.46
72.48
40.90
18.18
3.83
-4.23
-10.62
-16.32
-20.80
-24.25
-28.59
-37.50
-54.94
-85.26
-124.30
-165.84
-200.97
-221.10
-221.19
-201.64
-167.74
-127.11
-88.70
-57.53
-34.68
-18.05
-5.83
1.77
2.75
-5.13
-22.79
-51.78
-90.31
-133.53
-174.38
-206.49
-225.59
-230.05
-220.63
-182.83
-116.37
-35.83
38.84
95.89
133.67
155.77
166.27
168.41
164.83
155.52
142.27
129.13
120.90
119.27
124.66
135.55
149.64
164.97
178.28
187.90
193.87
196.67
195.63
189.13
175.44
153.74
123.94
86.72
44.15
-0.70
-44.85
-86.23
-123.73
-157.05
-186.42
-212.91
-239.30
-269.07
-305.12
-348.09
-395.43
-440.86
-475.45
-489.82
-477.34
-437.20
-375.32
-302.85
-232.70
-175.28
-135.26
-110.73
-95.07
-80.22
-59.89
-31.39
4.62
45.33
86.82
124.32
152.04
163.59
153.63
120.90
70.13
12.17
-38.85
-70.13
-74.16
-50.38
-3.90
57.36
124.94
190.49
245.36
280.63
288.90
267.42
220.52
159.17
97.09
45.04
6.69
-21.80
-48.06
-78.25
-113.23
-148.42
-176.84
-193.14
-195.97
-187.81
-172.55
-152.97
-129.47
-100.21
-62.49
-14.36
44.25
110.54
178.55
239.68
284.30
304.02
294.03
254.49
190.70
111.98
29.75
-44.60
-101.39
-133.96
-139.55
-119.66
-79.91
-29.03
23.03
67.27
97.60
111.78
111.38
100.70
85.34
70.41
59.46
53.88
52.99
54.75
56.64
56.37
52.64
45.65
37.11
29.79
26.47
28.73
35.99
45.35
52.40
52.84
44.20
27.00
4.92
-16.27
-30.62
-34.05
-25.72
-8.09
14.35
36.90
56.26
71.12
81.67
88.44
91.55
90.58
85.24
76.17
65.10
54.32
45.37
38.32
31.63
23.13
11.31
-3.65
-19.82
-34.28
-44.49
-49.32
-49.41
-46.63
-43.06
-40.05
-37.74
-35.43
-32.12
-27.34
-21.46
-15.47
-10.50
-7.30
-5.88
-5.60
-5.21
-3.03
2.99
14.85
33.87
59.68
89.68
119.31
143.23
157.03
158.68
148.77
129.66
103.93
73.31
38.66
0.93
-37.72
-73.60
-102.44
-120.99
-128.15
-124.97
-113.70
-96.52
-75.03
-50.78
-26.12
-4.58
9.85
14.28
8.23
-6.12
-24.88
-44.01
-60.49
-72.56
-79.22
-79.70
-73.47
-60.81
-43.27
-23.44
-4.03
13.21
28.04
41.32
53.94
65.89
75.97
82.46
84.17
81.21
74.98
67.51
60.49
54.52
49.17
43.45
36.56
28.37
19.42
10.54
2.48
-4.40
-10.13
-14.88
-18.71
-21.48
-22.91
-22.70
-20.70
-16.92
-11.58
-5.15
1.67
8.03
13.08
16.26
17.48
17.17
16.15
15.23
14.89
15.02
14.80
13.03
8.50
0.49
-10.85
-24.52
-39.04
-53.05
-65.71
-76.90
-86.91
-95.91
-103.66
-109.35
-111.78
-109.66
-101.89
-87.83
-67.70
-42.81
-15.61
10.69
32.92
48.87
57.87
60.80
59.47
55.74
50.92
45.62
39.95
34.01
28.05
22.42
17.36
12.78
8.34
3.52
-2.00
-8.23
-14.79
-21.16
-26.95
-32.20
-37.41
-43.29
-50.44
-58.87
-68.02
-76.85
-84.48
-90.61
-95.78
-101.28
-108.56
-118.58
-131.19
-144.70
-155.96
-160.85
-155.34
-136.69
-104.55
-61.37
-11.82
38.47
84.57
123.34
153.77
176.27
191.71
200.62
203.12
199.33
189.98
176.57
161.02
145.04
129.66
115.12
101.23
87.82
75.04
63.23
52.72
43.54
35.40
27.90
20.77
14.00
7.71
2.02
-3.08
-7.70
-12.00
-15.99
-19.63
-22.86
-25.68
-28.18
-30.46
-32.50
-34.09
-34.91
-34.63
-33.03
-30.17
-26.29
-21.82
-17.19
-12.71
-8.46
-4.30
0.03
4.74
9.89
15.42
21.23
27.34
33.99
41.47
50.02
59.57
69.73
79.89
89.44
98.05
105.78
112.96
119.95
126.87
133.52
139.51
144.74
149.81
155.87
164.13
174.91
186.94
197.47
203.31
202.30
194.25
180.95
164.86
147.75
129.62
108.86
83.34
51.59
13.18
-31.74
-83.16
-141.09
-204.49
-269.70
-329.75
-375.37
-397.80
-391.98
-358.50
-303.43
-236.21
-166.86
-103.92
-53.54
-19.59
-3.86
-6.08
-23.81
-52.62
-87.01
-121.51
-151.78
-175.00
-189.79
-195.99
-194.54
-187.31
-176.80
-165.46
-154.71
-144.40
-133.10
-118.99
-100.91
-78.88
-54.03
-28.03
-2.46
21.39
42.51
60.08
73.53
82.59
87.37
88.28
85.94
81.06
74.57
67.60
61.43
57.13
55.12
54.94
55.42
55.27
53.71
50.94
47.98
46.16
46.35
48.30
50.36
49.96
44.45
32.36
14.16
-7.77
-29.96
-49.18
-63.29
-71.58
-74.29
-72.08
-65.64
-55.88
-44.22
-32.64
-23.31
-17.82
-16.65
-19.25
-24.68
-32.37
-42.51
-55.60
-71.45
-88.14
-101.68
-106.87
-99.16
-76.55
-40.85
2.56
46.31
83.42
109.45
123.72
128.98
130.05
131.67
136.73
145.07
153.66
157.64
152.09
133.89
102.86
62.16
17.50
-24.36
-57.63
-78.93
-88.04
-87.39
-80.66
-71.07
-60.28
-48.21
-34.04
-17.36
1.07
19.46
35.84
48.83
57.85
62.62
62.60
56.78
44.30
25.49
2.45
-21.00
-40.44
-52.28
-54.73
-48.24
-34.92
-17.65
0.83
18.33
33.39
45.13
53.11
57.42
58.74
58.32
57.67
58.00
59.85
62.89
66.19
68.71
69.65
68.64
65.69
60.96
54.67
47.13
38.78
30.31
22.61
16.54
12.71
11.24
11.73
13.41
15.33
16.60
16.55
14.83
11.42
6.67
1.18
-4.30
-9.14
-13.15
-16.74
-20.84
-26.52
-34.45
-44.50
-55.77
-66.93
-76.73
-84.40
-89.80
-93.26
-95.48
-97.28
-99.52
-102.93
-107.87
-114.10
-120.73
-126.48
-130.08
-130.70
-128.08
-122.41
-114.00
-103.11
-89.91
-74.55
-57.30
-38.48
-18.38
2.82
24.93
47.46
69.50
89.72
106.72
119.56
128.10
133.06
135.58
136.81
137.43
137.48
136.55
133.93
128.95
121.18
110.55
97.36
82.26
66.00
49.32
32.75
16.68
1.51
-12.27
-24.01
-33.08
-39.07
-42.11
-42.81
-42.14
-41.04
-40.10
-39.28
-38.03
-35.49
-30.85
-23.74
-14.35
-3.47
7.72
17.92
26.10
31.67
34.55
35.09
33.92
31.61
28.50
24.51
19.18
11.96
2.54
-8.74
-20.86
-32.31
-41.54
-47.36
-49.34
-47.79
-43.67
-38.22
-32.74
-28.29
-25.51
-24.44
-24.47
-24.42
-22.80
-18.30
-10.18
1.43
15.42
29.95
42.88
52.30
57.02
56.83
52.36
44.70
34.89
23.48
10.52
-4.26
-20.97
-39.27
-58.32
-77.01
-94.25
-109.33
-122.08
-132.84
-142.33
-151.36
-160.49
-169.69
-178.02
-183.46
-183.09
-173.76
-153.05
-120.43
-77.85
-29.60
18.68
61.46
94.57
115.94
125.51
124.47
114.50
97.29
74.54
48.18
20.53
-5.93
-28.94
-46.80
-58.62
-64.11
-63.36
-56.64
-44.45
-27.61
-7.43
14.46
36.40
57.14
76.13
93.43
109.27
123.49
135.20
142.88
144.93
140.37
129.40
113.44
94.77
75.81
58.47
43.76
31.70
21.60
12.39
3.10
-6.74
-16.97
-26.71
-34.64
-39.39
-40.11
-36.71
-29.90
-20.93
-11.15
-1.71
6.67
13.66
19.25
23.72
27.65
31.84
37.14
44.14
52.81
62.41
71.74
79.57
85.23
88.88
91.32
93.63
96.57
100.20
103.83
106.26
106.20
102.69
95.36
84.49
70.85
55.50
39.54
23.99
9.71
-2.61
-12.49
-19.84
-24.97
-28.69
-32.06
-36.15
-41.59
-48.30
-55.52
-62.11
-67.08
-70.02
-71.19
-71.37
-71.29
-71.30
-71.12
-69.98
-67.02
-61.69
-54.03
-44.68
-34.64
-24.97
-16.59
-10.09
-5.77
-3.62
-3.42
-4.81
-7.38
-10.74
-14.49
-18.29
-21.83
-24.91
-27.44
-29.49
-31.17
-32.60
-33.74
-34.40
-34.24
-32.92
-30.23
-26.24
-21.29
-15.95
-10.84
-6.52
-3.33
-1.34
-0.37
-0.13
-0.30
-0.66
-1.22
-2.14
-3.63
-5.75
-8.26
-10.64
-12.30
-12.84
-12.37
-11.45
-10.87
-11.30
-12.92
-15.38
-17.99
-20.11
-21.44
-22.08
-22.38
-22.81
-23.69
-25.23
-27.43
-30.05
-32.56
-34.18
-34.04
-31.57
-26.80
-20.47
-13.89
-8.39
-4.84
-3.38
-3.42
-4.11
-4.78
-5.20
-5.69
-6.69
-8.57
-11.27
-14.40
-17.33
-19.56
-20.90
-21.58
-22.11
-23.15
-25.22
-28.55
-33.09
-38.61
-44.93
-51.95
-59.67
-67.98
-76.56
-84.92
-92.47
-98.77
-103.51
-106.55
-107.75
-107.03
-104.50
-100.72
-96.65
-93.24
-90.74
-87.94
-81.94
-68.73
-44.53
-7.28
42.38
101.06
163.61
224.58
279.61
326.05
363.00
390.82
410.60
423.79
431.99
436.83
439.69
441.50
442.56
442.65
441.30
438.02
432.43
424.23
413.10
398.69
380.89
359.94
336.63
312.02
287.25
263.13
240.05
218.11
197.28
177.63
159.30
142.25
126.20
110.51
94.43
77.43
59.45
40.87
22.30
4.23
-13.28
-30.65
-48.58
-67.63
-87.90
-108.91
-129.77
-149.62
-168.10
-185.54
-202.97
-221.65
-242.52
-265.80
-290.79
-316.15
-340.48
-362.90
-383.48
-403.62
-425.71
-452.60
-486.27
-526.52
-570.01
-610.35
-639.59
-650.55
-639.40
-607.21
-559.82
-505.90
-454.07
-410.39
-376.95
-352.13
-331.97
-312.27
-290.33
-265.81
-240.82
-218.59
-201.73
-190.62
-182.47
-171.90
-152.57
-119.58
-71.98
-14.23
44.26
91.34
115.32
108.06
67.03
-4.06
-96.01
-195.99
-290.14
-366.28
-416.08
-436.35
-429.09
-400.29
-357.88
-309.73
-262.08
-218.80
-181.36
-149.18
-120.18
-91.26
-59.49
-23.26
16.72
57.34
94.39
124.26
145.51
159.46
169.51
179.68
193.38
212.81
238.62
269.39
300.74
325.30
334.29
320.83
283.74
229.29
169.80
118.98
86.72
75.82
82.66
100.78
125.05
153.56
186.41
222.93
259.51
290.02
308.42
311.75
301.61
283.16
262.79
245.42
232.98
224.44
217.12
208.37
196.96
183.43
169.75
158.17
150.10
145.29
141.93
137.51
130.12
119.52
107.21
95.66
86.91
81.51
78.35
75.48
71.29
65.46
59.04
53.72
50.76
50.15
50.54
49.81
46.10
38.65
28.03
15.91
4.25
-5.40
-12.42
-17.18
-20.75
-24.39
-28.98
-34.55
-40.16
-44.28
-45.71
-44.43
-41.86
-40.40
-42.29
-48.48
-58.11
-68.82
-77.55
-81.38
-78.11
-66.58
-46.90
-20.67
8.88
37.35
60.16
73.97
77.79
73.17
63.37
51.98
41.69
33.82
28.52
25.25
23.27
21.83
20.16
17.57
13.53
7.78
0.36
-8.62
-19.13
-31.29
-45.22
-60.51
-76.03
-90.29
-102.33
-112.59
-123.01
-135.84
-151.73
-168.44
-180.76
-182.34
-168.15
-136.37
-88.36
-27.50
42.36
117.22
191.98
259.46
310.77
337.62
335.44
305.74
255.69
195.17
132.86
73.23
15.89
-42.79
-106.73
-177.15
-250.96
-320.97
-377.84
-413.03
-421.68
-404.01
-364.99
-312.13
-252.50
-190.91
-129.45
-68.46
-7.78
52.26
110.78
166.49
217.97
263.63
301.70
330.50
348.92
356.74
354.32
342.50
322.39
295.67
264.98
233.64
204.58
178.72
153.87
124.92
85.87
32.93
-32.81
-104.62
-172.00
-224.16
-253.94
-259.93
-246.18
-219.93
-188.66
-158.08
-131.65
-111.34
-98.61
-94.70
-100.15
-114.02
-133.53
-154.60
-172.87
-184.71
-187.63
-180.09
-161.41
-131.86
-92.89
-47.36
0.84
47.49
89.10
123.53
150.05
168.86
180.36
184.81
182.37
173.71
160.38
144.79
129.63
116.85
106.98
99.12
91.67
83.41
74.32
65.59
58.94
55.57
55.31
56.55
56.87
54.12
47.32
37.04
25.08
13.63
4.47
-1.69
-5.32
-7.69
-10.25
-14.05
-19.45
-26.18
-33.52
-40.57
-46.44
-50.38
-52.05
-51.66
-49.99
-48.05
-46.61
-45.77
-44.88
-42.90
-39.07
-33.39
-26.77
-20.53
-15.76
-12.90
-11.72
-11.64
-12.19
-13.03
-13.90
-14.42
-14.10
-12.59
-9.96
-6.81
-4.20
-3.18
-4.50
-8.29
-14.07
-20.92
-27.70
-33.25
-36.63
-37.31
-35.35
-31.29
-25.99
-20.24
-14.45
-8.67
-2.82
3.07
8.64
13.44
17.20
20.00
22.26
24.41
26.64
28.80
30.64
32.04
33.15
34.16
35.02
35.26
34.17
31.24
26.68
21.38
16.58
13.20
11.45
10.79
10.35
9.48
8.02
6.18
4.19
1.95
-0.96
-4.93
-10.01
-15.69
-21.09
-25.39
-28.11
-29.32
-29.34
-28.53
-26.98
-24.49
-20.72
-15.43
-8.74
-1.22
6.28
12.81
17.64
20.36
20.97
19.73
17.05
13.43
9.35
5.24
1.45
-1.83
-4.54
-6.70
-8.34
-9.44
-10.08
-10.50
-11.14
-12.51
-14.86
-18.04
-21.52
-24.72
-27.36
-29.73
-32.44
-36.09
-40.79
-46.05
-50.98
-54.73
-56.81
-57.22
-56.33
-54.64
-52.42
-49.55
-45.55
-39.78
-31.83
-21.84
-10.68
0.21
9.23
15.11
17.29
16.04
12.38
7.81
3.96
2.23
3.51
7.90
14.63
22.36
29.48
34.65
37.11
36.72
33.86
29.23
23.75
18.38
14.03
11.32
10.41
10.93
12.14
13.17
13.40
12.61
11.04
9.18
7.50
6.25
5.46
5.15
5.64
7.60
11.72
18.16
26.16
34.05
39.95
42.56
41.84
38.99
35.75
33.38
32.08
31.07
29.33
26.43
22.91
19.92
18.48
18.79
20.09
21.01
20.28
17.26
12.18
5.92
-0.48
-6.30
-11.36
-16.01
-20.86
-26.49
-33.16
-40.71
-48.71
-56.66
-64.07
-70.49
-75.32
-77.60
-76.16
-69.88
-58.27
-41.76
-21.73
-0.06
21.38
41.14
58.28
72.14
82.11
87.57
88.19
84.16
76.48
66.74
56.78
48.10
41.40
36.49
32.50
28.35
23.32
17.30
10.77
4.48
-0.93
-5.27
-8.82
-12.05
-15.37
-18.84
-22.30
-25.51
-28.44
-31.35
-34.63
-38.69
-43.60
-49.17
-54.96
-60.48
-65.20
-68.66
-70.30
-69.59
-66.07
-59.62
-50.55
-39.59
-27.71
-15.64
-3.45
9.85
26.24
48.15
77.63
115.31
159.88
208.02
255.00
295.60
325.17
340.54
340.74
327.33
303.97
275.56
246.77
220.54
197.30
175.13
150.80
121.45
85.89
45.11
1.98
-39.77
-76.87
-107.56
-132.14
-152.66
-171.97
-192.30
-213.98
-234.72
-249.93
-253.89
-241.31
-208.93
-156.52
-87.33
-7.82
73.23
146.18
202.40
235.92
244.50
229.73
196.11
149.50
95.75
39.54
-16.24
-70.57
-123.82
-176.97
-230.71
-284.74
-337.60
-387.01
-430.53
-466.08
-491.87
-506.29
-507.71
-494.91
-467.69
-427.48
-377.32
-321.03
-262.00
-202.15
-141.78
-80.41
-18.14
43.23
100.01
147.59
182.00
201.72
208.30
205.78
199.06
191.98
186.11
180.87
174.75
166.93
158.25
151.03
147.73
149.31
154.27
159.06
159.57
153.14
139.85
122.40
104.71
90.03
79.54
72.25
66.03
59.10
51.05
42.78
35.68
30.63
27.56
25.64
23.89
21.53
18.11
13.31
6.83
-1.39
-10.94
-20.78
-29.54
-36.00
-39.60
-40.54
-39.41
-36.74
-32.64
-26.92
-19.56
-11.04
-2.57
4.35
8.47
9.42
7.81
5.06
2.72
1.84
2.58
4.21
5.57
5.59
3.85
0.68
-3.02
-6.33
-8.72
-10.31
-11.62
-13.23
-15.29
-17.50
-19.25
-20.08
-20.00
-19.57
-19.62
-20.79
-23.21
-26.36
-29.29
-31.05
-31.10
-29.44
-26.54
-23.00
-19.24
-15.34
-11.05
-6.07
-0.34
5.80
11.75
16.80
20.49
22.73
23.72
23.78
23.11
21.74
19.69
17.14
14.53
12.43
11.29
11.19
11.84
12.73
13.42
13.79
13.97
14.13
14.26
14.08
13.10
10.91
7.30
2.51
-2.82
-7.79
-11.45
-13.16
-12.80
-10.92
-8.44
-6.31
-5.03
-4.55
-4.36
-3.91
-2.93
-1.47
0.25
2.09
4.15
6.57
9.25
11.79
13.58
14.20
13.66
12.48
11.33
10.72
10.74
11.07
11.22
10.85
9.83
8.26
6.38
4.39
2.42
0.51
-1.43
-3.61
-6.30
-9.75
-13.99
-18.68
-23.14
-26.53
-28.11
-27.48
-24.65
-20.09
-14.51
-8.80
-3.74
0.16
2.90
5.00
7.33
10.71
15.48
21.31
27.18
31.86
34.29
34.03
31.28
26.72
21.30
15.95
11.42
8.10
5.97
4.55
3.13
1.07
-1.91
-5.59
-9.43
-12.98
-16.14
-19.19
-22.53
-26.35
-30.37
-34.02
-36.69
-38.03
-38.02
-36.85
-34.62
-31.31
-26.79
-21.07
-14.44
-7.41
-0.57
5.56
10.66
14.58
17.25
18.64
18.79
17.80
15.96
13.66
11.48
9.95
9.46
9.99
11.11
12.00
11.91
10.44
7.85
4.85
2.21
0.20
-1.54
-3.80
-7.18
-11.62
-16.29
-20.11
-22.33
-23.06
-23.10
-23.33
-23.98
-24.33
-23.04
-18.96
-11.83
-2.56
7.16
15.68
22.06
26.34
29.24
31.66
34.14
36.68
38.86
39.96
39.23
36.05
30.17
21.93
12.40
3.08
-4.63
-10.10
-13.74
-16.83
-20.66
-25.75
-31.50
-36.44
-39.19
-39.25
-37.37
-35.12
-34.02
-34.78
-37.07
-39.80
-41.84
-42.49
-41.77
-40.10
-38.07
-36.00
-33.92
-31.63
-28.81
-25.23
-20.68
-15.09
-8.54
-1.37
5.78
12.02
16.44
18.42
17.98
15.78
12.88
10.39
9.01
8.85
9.42
10.02
10.05
9.28
7.90
6.34
4.96
3.89
3.00
2.02
0.77
-0.77
-2.50
-4.33
-6.24
-8.28
-10.45
-12.61
-14.42
-15.46
-15.28
-13.57
-10.19
-5.31
0.56
6.58
11.81
15.52
17.49
18.01
17.75
17.35
17.07
16.75
15.98
14.43
12.09
9.33
6.72
4.84
4.06
4.57
6.29
8.90
11.81
14.23
15.27
14.19
10.63
4.80
-2.60
-10.47
-17.65
-23.21
-26.62
-27.88
-27.39
-25.72
-23.43
-20.89
-18.14
-14.98
-11.05
-6.00
0.37
7.84
15.79
23.23
29.03
32.29
32.69
30.64
27.19
23.60
20.87
19.34
18.57
17.64
15.67
12.24
7.74
3.28
0.36
0.31
3.73
10.22
18.32
25.87
30.58
30.56
24.93
13.96
-0.87
-17.28
-32.60
-44.45
-51.14
-51.97
-47.27
-38.11
-26.03
-12.74
0.16
11.27
19.46
24.08
25.14
23.44
20.50
18.11
17.88
20.65
26.31
33.94
42.28
50.37
57.88
65.23
73.30
82.94
94.42
107.04
119.01
127.77
130.70
126.02
113.63
95.38
74.56
54.75
38.53
26.70
18.30
11.52
4.88
-2.02
-8.46
-13.22
-15.53
-15.59
-14.54
-13.85
-14.69
-17.46
-21.84
-27.12
-32.57
-37.69
-42.23
-46.05
-48.97
-50.78
-51.38
-50.93
-49.96
-49.20
-49.44
-51.18
-54.41
-58.60
-62.81
-65.98
-67.26
-66.27
-63.21
-58.76
-53.87
-49.42
-46.01
-43.84
-42.75
-42.39
-42.39
-42.53
-42.84
-43.45
-44.50
-45.92
-47.39
-48.41
-48.44
-47.17
-44.64
-41.24
-37.53
-34.05
-31.06
-28.51
-26.13
-23.52
-20.35
-16.49
-11.96
-6.96
-1.74
3.46
8.51
13.33
17.89
22.14
25.92
28.92
30.82
31.28
30.17
27.55
23.79
19.40
14.99
11.02
7.78
5.31
3.43
1.85
0.20
-1.85
-4.51
-7.80
-11.55
-15.43
-18.99
-21.89
-23.86
-24.94
-25.35
-25.50
-25.91
-27.00
-29.06
-32.09
-35.77
-39.63
-43.03
-45.44
-46.45
-45.83
-43.51
-39.58
-34.29
-28.13
-21.81
-16.12
-11.77
-9.14
-8.20
-8.53
-9.63
-11.16
-13.07
-15.39
-17.83
-19.50
-19.01
-15.08
-7.29
3.46
15.09
25.05
31.23
32.41
28.15
18.53
3.86
-14.90
-35.51
-54.20
-66.26
-67.63
-56.63
-35.06
-7.71
19.41
41.45
56.47
65.68
72.23
79.26
88.24
98.57
108.27
115.39
119.03
119.51
117.64
113.79
107.42
97.47
83.44
66.27
48.50
33.50
24.00
21.00
23.40
28.62
33.70
36.45
35.93
32.30
26.36
19.01
11.09
3.29
-3.83
-9.96
-15.23
-20.23
-25.85
-32.67
-40.64
-48.81
-55.73
-60.16
-61.63
-60.76
-58.93
-57.57
-57.40
-58.09
-58.42
-56.94
-52.66
-45.48
-36.19
-25.95
-15.81
-6.36
2.25
9.98
16.68
22.09
26.02
28.67
30.65
32.61
34.86
37.07
38.52
38.60
37.34
35.58
34.48
34.84
36.55
38.52
39.30
37.87
34.20
29.33
24.67
21.30
19.42
18.31
16.94
14.65
11.62
8.74
7.14
7.45
9.43
12.10
14.21
14.98
14.60
14.19
15.42
19.76
27.86
39.27
52.56
65.82
77.25
85.67
90.72
92.88
93.33
93.72
95.86
101.07
109.48
119.45
127.45
128.88
119.28
95.81
58.33
9.84
-43.99
-96.05
-139.69
-170.50
-187.49
-192.89
-190.77
-184.94
-177.18
-166.81
-151.78
-130.60
-103.85
-74.35
-45.87
-21.41
-2.23
11.80
20.99
24.46
20.08
5.26
-21.36
-58.65
-102.46
-146.32
-182.87
-205.56
-210.29
-196.53
-167.61
-130.13
-92.34
-62.03
-44.44
-41.17
-50.16
-66.95
-86.17
-102.90
-113.27
-114.50
-105.05
-85.25
-58.20
-30.11
-9.01
-1.77
-10.65
-31.15
-53.14
-64.90
-58.34
-32.79
4.95
44.05
74.80
92.47
98.18
96.82
93.55
91.39
90.59
90.03
88.88
87.47
86.96
88.01
89.98
90.97
89.05
83.67
76.25
69.72
67.00
69.38
75.91
83.98
90.62
93.96
93.81
91.30
88.01
85.15
83.19
81.99
81.13
80.19
78.82
76.82
74.20
71.25
68.31
65.48
62.38
58.16
52.01
43.77
34.27
25.19
18.13
13.63
10.58
6.38
-1.82
-15.66
-34.34
-54.70
-72.54
-84.54
-89.91
-90.75
-90.98
-94.61
-104.19
-120.35
-142.08
-167.29
-193.23
-216.45
-232.92
-238.48
-229.98
-206.32
-168.85
-120.77
-65.74
-6.51
55.84
121.31
189.73
259.16
325.29
381.84
422.19
441.49
438.18
414.40
374.93
325.18
269.10
208.47
143.72
76.07
9.42
-49.43
-92.73
-115.11
-116.41
-102.22
-81.79
-64.14
-54.50
-52.83
-55.12
-56.34
-53.27
-45.76
-35.94
-26.48
-19.16
-14.57
-12.80
-14.28
-19.88
-30.35
-45.47
-63.51
-81.54
-96.45
-106.03
-109.69
-108.46
-104.33
-99.37
-95.16
-92.46
-91.29
-91.28
-91.91
-92.78
-93.71
-94.72
-95.97
-97.51
-99.12
-100.22
-100.07
-97.95
-93.46
-86.64
-77.88
-67.69
-56.49
-44.57
-32.25
-20.06
-8.85
0.37
6.83
10.45
11.89
12.39
13.20
15.03
17.83
20.98
23.72
25.58
26.54
26.86
26.81
26.48
25.82
24.89
23.88
23.12
22.77
22.70
22.38
21.26
19.09
16.13
13.03
10.56
9.27
9.26
10.35
12.17
14.50
17.28
20.55
24.34
28.47
32.54
36.08
38.77
40.62
42.00
43.45
45.42
47.97
50.80
53.28
54.77
54.89
53.65
51.41
48.74
46.10
43.59
40.92
37.54
32.96
27.00
19.97
12.44
4.93
-2.37
-9.71
-17.53
-26.12
-35.25
-44.25
-52.36
-59.19
-64.90
-70.01
-74.88
-79.37
-82.70
-83.87
-82.20
-77.73
-71.26
-64.03
-57.17
-51.30
-46.47
-42.41
-38.77
-35.48
-32.70
-30.70
-29.72
-29.83
-31.04
-33.25
-36.36
-40.21
-44.56
-49.12
-53.69
-58.22
-62.98
-68.58
-75.60
-84.46
-95.03
-106.68
-118.63
-130.36
-141.97
-154.05
-167.34
-182.19
-198.45
-215.54
-232.87
-249.94
-266.12
-280.20
-290.01
-292.69
-285.38
-266.29
-235.36
-194.41
-146.58
-95.46
-44.37
4.34
49.40
90.75
129.43
167.09
205.54
246.34
290.68
339.12
391.07
443.94
492.56
529.70
547.77
541.38
509.37
455.24
385.33
305.99
221.23
132.81
42.23
-46.51
-125.62
-185.15
-216.49
-216.10
-187.45
-140.00
-85.71
-34.84
6.75
38.20
61.59
79.13
91.17
96.13
92.20
79.55
61.51
43.95
32.95
32.26
41.77
58.00
76.20
92.53
105.40
115.22
123.41
131.44
140.35
150.80
162.86
175.49
186.47
192.64
191.04
180.33
161.57
137.84
113.05
90.47
71.87
57.50
46.44
37.30
28.49
18.44
5.86
-9.85
-28.14
-47.11
-63.40
-72.63
-70.16
-52.24
-17.71
30.54
85.15
135.68
171.79
186.84
180.05
156.05
122.16
84.80
47.12
8.93
-31.48
-75.18
-121.56
-168.62
-214.07
-256.13
-293.62
-325.46
-350.46
-367.55
-376.32
-377.35
-371.82
-360.78
-344.75
-323.94
-298.64
-269.68
-238.48
-206.66
-175.62
-146.29
-119.35
-95.23
-74.06
-55.49
-38.78
-23.25
-8.73
4.40
15.82
25.95
36.19
48.12
62.09
76.33
87.56
92.89
92.08
88.46
87.69
95.00
112.32
137.10
163.50
185.22
198.21
201.97
199.04
193.04
186.76
180.89
174.20
164.53
150.03
130.17
106.18
80.69
56.71
36.39
20.07
6.15
-8.02
-24.66
-44.35
-65.72
-86.16
-103.10
-114.74
-120.16
-118.77
-109.88
-92.93
-68.30
-38.10
-6.20
22.77
45.02
58.81
64.83
65.39
63.29
60.69
58.81
57.95
57.89
58.06
57.71
55.91
51.86
45.13
35.90
24.96
13.46
2.57
-6.81
-14.19
-19.56
-23.20
-25.57
-27.18
-28.50
-29.91
-31.71
-34.09
-37.09
-40.62
-44.43
-48.25
-51.75
-54.71
-56.98
-58.63
-59.79
-60.73
-61.64
-62.66
-63.71
-64.48
-64.54
-63.37
-60.61
-56.16
-50.23
-43.28
-35.88
-28.65
-22.09
-16.55
-12.20
-8.97
-6.64
-4.88
-3.32
-1.66
0.28
2.54
5.06
7.74
10.49
13.23
15.90
18.42
20.70
22.58
23.89
24.40
23.96
22.56
20.39
17.76
15.00
12.33
9.77
7.22
4.57
1.80
-1.04
-3.87
-6.68
-9.57
-12.55
-15.46
-17.83
-19.06
-18.63
-16.37
-12.60
-7.96
-3.20
1.13
4.74
7.63
9.86
11.46
12.37
12.50
11.91
10.87
9.77
9.01
8.82
9.13
9.65
10.00
9.95
9.46
8.74
8.06
7.62
7.42
7.25
6.79
5.79
4.18
2.11
-0.13
-2.24
-4.08
-5.71
-7.30
-9.10
-11.21
-13.63
-16.15
-18.50
-20.32
-21.27
-21.05
-19.48
-16.54
-12.41
-7.48
-2.17
3.08
7.92
12.06
15.33
17.58
18.88
19.45
19.62
19.73
19.97
20.24
20.28
19.86
18.97
17.87
16.99
16.70
17.07
17.85
18.55
18.71
18.04
16.56
14.50
12.15
9.72
7.29
4.80
2.16
-0.65
-3.56
-6.42
-9.13
-11.65
-13.95
-16.03
-17.77
-18.92
-19.25
-18.58
-16.98
-14.69
-12.04
-9.35
-6.84
-4.61
-2.79
-1.47
-0.80
-0.85
-1.59
-2.81
-4.21
-5.41
-6.12
-6.16
-5.49
-4.24
-2.66
-1.01
0.48
1.72
2.75
3.64
4.44
5.17
5.71
5.94
5.75
5.13
4.10
2.79
1.27
-0.43
-2.34
-4.46
-6.71
-8.79
-10.31
-10.84
-10.16
-8.33
-5.74
-2.97
-0.55
1.15
2.02
2.07
1.39
0.07
-1.77
-3.98
-6.32
-8.52
-10.33
-11.60
-12.35
-12.72
-12.86
-12.77
-12.31
-11.18
-9.06
-5.80
-1.52
3.36
8.27
12.68
16.19
18.64
20.04
20.50
20.23
19.57
18.91
18.76
19.61
21.69
24.88
28.56
31.82
33.76
33.93
32.44
30.05
27.74
26.35
26.30
27.47
29.33
31.31
33.04
34.44
35.65
36.83
37.79
37.98
36.44
32.10
24.17
12.50
-2.23
-18.52
-34.46
-48.06
-57.69
-62.33
-61.80
-56.78
-48.72
-39.63
-31.61
-26.39
-24.87
-26.88
-31.30
-36.39
-40.40
-42.18
-41.48
-38.89
-35.35
-31.46
-27.15
-21.81
-14.77
-5.93
3.95
13.45
21.14
26.17
28.63
29.40
29.67
30.41
32.18
35.04
38.74
42.83
46.67
49.45
50.33
48.69
44.39
37.99
30.65
23.85
18.87
16.28
15.70
15.91
15.24
12.25
6.31
-2.18
-11.88
-21.03
-28.07
-32.07
-32.87
-30.91
-26.87
-21.47
-15.33
-8.99
-3.02
2.04
5.71
7.73
8.16
7.47
6.46
6.09
7.24
10.44
15.76
22.71
30.43
37.84
44.03
48.26
50.15
49.43
45.77
38.68
27.48
11.61
-9.04
-33.60
-60.15
-86.03
-108.43
-125.29
-135.90
-141.06
-142.66
-142.82
-142.84
-142.70
-140.96
-135.44
-124.15
-106.21
-82.29
-54.47
-25.44
2.49
27.86
50.11
69.64
87.72
106.49
128.12
153.49
180.72
204.96
219.47
218.16
198.63
164.01
122.11
82.23
51.35
31.80
22.09
18.64
17.69
16.55
13.63
7.69
-3.00
-20.53
-46.27
-78.73
-113.53
-144.87
-167.10
-176.17
-170.63
-152.12
-124.92
-94.21
-63.07
-32.10
-0.75
31.62
65.07
98.91
131.64
161.14
178.21
175.39
152.51
117.22
79.35
45.65
19.10
0.23
-11.77
-18.24
-20.55
-18.59
-13.23
-6.60
-1.30
0.94
-0.32
-4.35
-9.99
-15.62
-18.47
-18.63
-18.09
-19.28
-23.35
-29.67
-36.30
-41.06
-42.07
-38.66
-32.25
-25.33
-20.21
-18.00
-18.79
-22.17
-27.82
-35.22
-43.51
-51.80
-59.02
-64.41
-67.91
-70.09
-71.34
-70.81
-66.06
-54.12
-33.85
-7.48
19.30
39.21
46.45
39.20
20.47
-3.25
-24.63
-38.31
-42.23
-37.67
-28.08
-17.59
-9.68
-6.38
-8.06
-13.62
-21.13
-28.42
-33.64
-35.51
-33.67
-28.60
-21.45
-13.75
-6.86
-1.65
1.80
4.05
6.09
9.07
13.96
21.21
30.23
39.11
44.85
44.50
36.64
22.66
6.73
-5.72
-10.45
-6.28
4.44
17.30
28.05
34.44
36.72
36.70
36.25
36.12
35.80
34.15
30.38
24.57
17.76
11.44
7.00
5.32
6.60
10.51
16.34
23.21
30.24
36.66
41.85
45.44
47.32
47.80
47.53
47.41
48.32
50.88
55.21
60.93
67.18
72.83
76.72
77.76
75.15
68.49
57.96
44.35
29.18
14.42
2.16
-5.83
-8.51
-5.82
1.25
10.79
20.29
27.16
29.33
25.87
17.34
5.71
-6.25
-15.83
-21.28
-22.18
-19.39
-14.51
-9.33
-5.25
-3.07
-2.88
-4.14
-5.86
-6.90
-6.30
-3.49
1.60
8.67
17.20
26.50
35.63
43.27
47.75
47.51
41.67
30.58
15.82
-0.43
-16.32
-31.13
-45.49
-60.86
-78.58
-99.05
-121.32
-143.51
-163.45
-179.45
-190.78
-197.72
-201.33
-203.09
-204.39
-206.08
-207.95
-208.74
-206.57
-199.72
-187.62
-171.24
-152.80
-134.81
-118.92
-105.19
-92.34
-78.65
-63.08
-45.91
-28.68
-13.32
-1.24
7.30
13.09
17.52
21.78
26.43
31.31
35.84
39.47
42.01
43.69
44.91
45.98
46.88
47.19
46.36
43.96
40.08
35.29
30.58
26.85
24.60
23.66
23.29
22.49
20.53
17.22
13.00
8.79
5.63
4.30
5.13
7.95
12.21
17.21
22.29
26.98
31.00
34.26
36.72
38.41
39.41
39.87
40.03
40.18
40.53
41.09
41.69
41.97
41.63
40.55
38.90
37.03
35.33
34.03
33.14
32.49
31.84
31.00
29.93
28.64
27.16
25.52
23.75
21.86
19.91
17.99
16.19
14.46
12.69
10.71
8.45
6.02
3.79
2.32
2.16
3.60
6.50
10.32
14.25
17.53
19.76
20.91
21.28
21.27
21.14
20.98
20.68
20.06
19.02
17.57
15.84
14.05
12.40
11.06
10.11
9.57
9.36
9.34
9.30
9.04
8.41
7.41
6.26
5.27
4.79
5.06
6.10
7.77
9.82
12.00
14.05
15.65
16.52
16.42
15.39
13.80
12.27
11.46
11.70
12.88
14.48
15.89
16.66
16.68
16.11
15.22
14.23
13.22
12.15
10.94
9.50
7.80
5.93
4.01
2.17
0.52
-0.87
-2.01
-2.87
-3.42
-3.54
-3.21
-2.47
-1.49
-0.47
0.46
1.32
2.22
3.32
4.66
6.17
7.66
8.98
10.10
11.15
12.45
14.44
17.43
21.60
26.76
32.46
38.11
43.13
47.05
49.61
50.67
50.17
48.15
44.71
40.13
34.87
29.46
24.42
20.11
16.74
14.32
12.78
11.92
11.50
11.34
11.26
11.07
10.52
9.50
8.09
6.56
5.23
4.42
4.42
5.20
6.25
6.73
5.85
3.25
-0.88
-5.98
-11.18
-15.27
-17.32
-17.23
-15.79
-14.19
-13.43
-14.14
-16.63
-20.68
-25.19
-28.81
-30.93
-31.88
-32.40
-32.99
-33.74
-34.61
-34.97
-32.80
-25.66
-12.17
7.07
29.80
52.90
72.98
86.46
86.83
71.05
43.32
13.10
-11.72
-28.72
-39.67
-47.89
-58.72
-73.62
-90.33
-104.72
-113.22
-114.43
-109.28
-100.21
-85.69
-62.79
-33.98
-4.30
21.45
40.45
51.88
56.14
54.88
50.32
44.12
37.63
32.25
28.71
26.27
23.73
19.14
11.35
0.58
-12.28
-25.68
-37.29
-44.81
-46.87
-43.52
-36.16
-26.57
-16.46
-7.38
-0.17
5.51
10.97
17.95
27.97
41.70
58.69
77.13
93.92
105.80
110.85
109.26
103.29
96.28
91.43
91.20
97.29
110.85
132.69
162.79
199.48
238.72
274.50
300.05
310.05
302.05
276.75
237.24
187.63
132.48
76.90
26.98
-10.88
-31.69
-34.10
-21.66
-2.00
16.06
26.10
26.47
19.95
11.15
3.34
-3.60
-12.73
-27.90
-51.25
-81.96
-116.71
-151.04
-181.00
-204.08
-219.56
-228.61
-233.76
-238.34
-245.39
-256.67
-272.04
-289.46
-305.61
-317.17
-321.80
-318.57
-307.93
-291.18
-269.94
-245.81
-220.32
-194.89
-170.88
-149.43
-131.20
-116.14
-103.46
-91.96
-80.44
-68.32
-55.86
-44.16
-34.66
-28.50
-26.06
-26.82
-29.57
-32.75
-34.90
-34.98
-32.48
-27.39
-20.12
-11.33
-1.66
8.24
17.87
26.90
35.11
42.37
48.59
53.62
57.16
58.87
58.37
55.50
50.41
43.62
35.89
28.02
20.63
14.15
8.80
4.65
1.74
0.03
-0.65
-0.54
0.06
0.85
1.63
2.26
2.59
2.42
1.45
-0.61
-3.83
-8.02
-12.51
-16.30
-18.22
-17.30
-13.05
-5.69
3.92
14.54
24.84
33.79
40.73
45.43
47.98
48.67
47.90
46.10
43.73
41.19
38.90
37.18
36.25
36.12
36.60
37.28
37.73
37.57
36.62
34.93
32.59
29.71
26.32
22.43
18.14
13.76
9.71
6.32
3.68
1.60
-0.35
-2.56
-5.28
-8.43
-11.71
-14.61
-16.57
-17.04
-15.66
-12.34
-7.39
-1.47
4.50
9.61
13.17
14.92
15.03
13.96
12.29
10.59
9.22
8.41
8.16
8.39
9.01
9.90
10.97
12.15
13.36
14.49
15.42
16.06
16.42
16.57
16.65
16.78
16.91
16.81
15.96
13.76
9.65
3.52
-4.12
-12.12
-18.94
-23.08
-23.60
-20.34
-13.99
-5.80
2.89
10.95
17.66
22.76
26.24
28.29
29.12
28.94
27.95
26.36
24.42
22.39
20.53
18.95
17.58
16.17
14.44
12.25
9.82
7.59
6.02
5.38
5.49
5.85
5.93
5.40
4.32
3.02
1.87
1.00
0.30
-0.58
-1.99
-4.02
-6.45
-8.74
-10.17
-10.04
-7.97
-3.91
1.75
8.37
15.21
21.65
27.25
31.81
35.24
37.57
38.81
39.03
38.38
37.13
35.62
34.17
33.00
32.13
31.49
31.00
30.69
30.70
31.16
32.08
33.24
34.31
34.95
34.97
34.39
33.39
32.15
30.79
29.31
27.66
25.74
23.48
20.89
18.12
15.45
13.33
12.26
12.56
14.31
17.23
20.82
24.49
27.73
30.20
31.76
32.41
32.25
31.38
29.93
27.98
25.69
23.20
20.70
18.34
16.26
14.48
12.97
11.61
10.23
8.73
7.10
5.41
3.82
2.46
1.35
0.44
-0.44
-1.44
-2.66
-4.12
-5.68
-7.18
-8.42
-9.17
-9.19
-8.22
-6.09
-2.69
1.92
7.62
14.26
21.72
29.88
38.56
47.39
55.85
63.34
69.44
74.16
78.04
81.98
86.96
93.63
102.08
111.77
121.77
131.14
139.31
146.34
152.89
160.00
168.61
179.16
191.17
203.30
213.67
220.54
222.96
221.15
216.44
210.92
206.69
205.35
207.53
212.67
219.13
224.62
226.80
223.98
215.59
202.32
185.72
167.66
149.72
132.93
117.79
104.43
92.84
82.85
74.09
66.00
57.97
49.67
41.27
33.35
26.66
21.67
18.30
15.81
13.12
9.31
3.98
-2.48
-9.23
-15.42
-20.78
-25.88
-32.00
-40.54
-52.31
-66.99
-83.14
-98.85
-112.56
-123.95
-134.20
-145.52
-160.16
-179.29
-202.33
-227.28
-251.56
-273.24
-291.98
-309.10
-327.12
-348.84
-376.77
-412.30
-454.97
-501.63
-545.95
-578.85
-590.49
-573.36
-525.74
-453.77
-370.53
-292.49
-234.43
-205.23
-206.25
-233.07
-279.08
-338.45
-406.98
-480.41
-552.26
-613.01
-652.19
-662.18
-641.71
-596.91
-538.76
-478.54
-423.64
-375.92
-332.93
-290.72
-246.79
-201.09
-155.42
-111.84
-71.39
-33.74
2.31
38.09
74.51
111.62
148.94
185.72
221.25
255.05
287.06
317.39
346.32
374.07
400.70
426.30
451.54
478.03
508.10
543.48
583.34
622.86
653.43
664.97
649.67
605.23
535.91
450.89
360.60
273.19
192.47
118.58
49.83
-15.10
-76.28
-133.04
-185.34
-234.71
-283.78
-334.54
-386.59
-436.74
-480.18
-513.19
-535.07
-548.32
-556.66
-562.41
-564.73
-560.28
-545.52
-519.27
-483.73
-443.38
-402.68
-364.14
-328.04
-293.51
-260.03
-228.14
-198.88
-172.67
-148.78
-125.35
-100.39
-72.83
-42.39
-10.54
20.21
47.56
70.51
90.51
110.37
133.01
160.38
193.24
229.90
265.91
294.83
309.64
305.68
281.82
241.39
191.87
144.41
108.44
88.10
81.56
82.86
86.99
90.51
92.17
92.56
97.07
108.37
123.84
137.56
143.40
142.82
139.43
136.49
136.08
147.61
175.15
213.73
252.61
280.24
298.95
314.25
330.68
351.35
391.72
459.55
548.00
639.94
715.69
776.60
828.33
874.80
917.93
975.59
1056.76
1153.14
1244.87
1309.56
1351.34
1377.52
1390.93
1270.43
965.26
532.62
93.94
-215.67
-427.96
-578.94
-691.65
-784.12
-856.84
-887.73
-864.11
-791.97
-699.37
-627.50
-589.60
-583.17
-596.56
-615.67
-617.46
-591.55
-545.43
-497.05
-467.58
-449.90
-432.06
-406.25
-370.40
-319.25
-253.79
-182.84
-119.34
-75.29
-50.48
-42.36
-47.73
-62.19
-76.35
-81.85
-74.97
-57.81
-37.28
-17.18
-1.67
5.98
5.03
-1.29
-8.75
-14.42
-17.89
-20.35
-20.99
-18.94
-13.93
-6.91
-0.36
2.74
0.32
-7.46
-18.16
-28.02
-34.49
-35.02
-28.43
-15.59
1.08
18.49
33.82
44.99
50.50
50.36
44.47
35.18
25.67
18.64
15.29
15.16
16.30
15.13
9.14
-1.96
-15.95
-29.56
-39.61
-43.91
-41.81
-29.37
-7.45
18.60
40.74
51.89
48.02
29.53
1.22
-29.31
-54.40
-69.82
-75.20
-73.31
-67.68
-61.33
-55.43
-49.49
-42.52
-34.15
-25.59
-18.27
-13.62
-10.48
-7.44
-3.11
3.56
13.09
25.32
39.01
52.60
63.90
72.03
77.08
79.50
79.17
75.01
65.71
51.12
34.10
18.29
8.01
5.49
9.18
14.09
14.16
5.32
-12.51
-35.09
-56.46
-72.25
-81.27
-85.16
-86.40
-86.36
-84.56
-79.56
-71.55
-60.35
-47.81
-35.98
-26.29
-18.78
-12.03
-4.09
6.14
17.75
28.18
33.62
32.42
24.85
12.88
0.04
-9.73
-13.35
-10.09
-1.50
8.14
15.58
17.44
11.86
0.64
-11.25
-17.03
-11.46
8.33
41.63
88.16
146.18
205.59
250.68
265.87
244.96
193.48
134.97
81.00
41.03
19.66
14.26
17.95
22.53
21.03
8.51
-17.14
-52.66
-87.84
-114.18
-130.40
-139.17
-148.52
-157.71
-164.46
-167.72
-169.49
-172.46
-175.54
-179.37
-182.91
-184.11
-180.56
-172.18
-160.07
-145.67
-128.73
-108.56
-85.78
-61.54
-37.55
-14.60
7.20
29.08
52.37
77.07
99.84
114.00
113.16
94.13
59.30
15.41
-28.40
-63.49
-83.81
-86.69
-72.53
-43.22
-1.73
48.03
100.97
151.80
196.51
233.41
263.14
287.26
306.71
320.49
325.92
319.85
300.56
268.82
227.62
180.95
132.31
84.03
37.35
-6.96
-48.11
-85.15
-117.27
-144.09
-165.84
-183.03
-196.18
-205.52
-211.02
-212.73
-211.17
-207.52
-203.45
-200.54
-199.51
-199.71
-199.15
-195.07
-185.12
-168.12
-144.37
-115.14
-81.96
-46.18
-9.22
26.65
57.87
79.76
87.75
78.95
53.52
15.05
-29.98
-73.55
-107.66
-125.87
-124.59
-103.80
-67.17
-21.05
27.29
72.05
110.60
143.96
175.38
207.89
241.98
274.74
300.89
315.04
314.08
298.20
270.29
234.27
193.39
149.48
103.43
56.37
10.50
-31.05
-65.28
-90.59
-107.48
-118.27
-125.96
-133.09
-140.75
-148.51
-154.87
-158.24
-157.72
-153.59
-147.29
-140.79
-135.78
-132.78
-130.79
-127.64
-120.82
-108.39
-89.67
-65.39
-37.42
-8.43
18.58
40.69
55.54
61.99
60.56
53.48
44.09
35.97
31.95
33.66
41.54
55.17
73.50
94.99
117.54
138.60
155.77
167.37
172.92
173.25
170.09
165.41
160.85
157.23
154.47
151.64
147.30
139.93
128.43
112.41
92.29
69.10
44.07
18.32
-7.40
-32.67
-57.31
-81.22
-104.19
-125.86
-145.63
-162.69
-176.08
-184.95
-188.90
-188.24
-184.01
-177.83
-171.57
-166.98
-165.39
-167.45
-172.88
-180.38
-187.59
-191.51
-189.08
-178.02
-157.44
-128.19
-92.69
-54.38
-17.26
14.70
38.21
51.43
54.32
48.80
37.95
25.16
13.46
4.68
-0.85
-3.97
-5.93
-7.65
-8.93
-8.50
-4.32
6.18
24.61
50.52
81.13
112.26
139.41
159.65
172.08
178.15
182.80
191.60
208.17
232.41
260.82
287.07
305.04
309.48
297.49
272.13
238.81
201.80
162.81
122.32
79.88
37.70
-1.82
-36.62
-60.75
-69.81
-64.77
-51.59
-36.94
-26.78
-20.66
-15.85
-8.86
9.54
47.17
104.86
176.74
255.18
331.72
403.82
469.52
489.55
437.82
320.88
174.29
34.51
-66.37
-140.89
-200.76
-252.96
-301.21
-341.34
-366.81
-378.21
-382.99
-384.36
-385.63
-385.35
-382.54
-376.86
-370.29
-356.80
-335.65
-311.54
-290.28
-273.74
-260.19
-246.77
-230.93
-208.07
-174.13
-129.75
-78.98
-26.58
22.09
64.21
98.17
123.09
140.24
152.30
160.21
163.97
163.61
158.88
150.56
139.80
127.73
116.07
107.14
102.37
102.54
107.77
117.02
128.46
139.81
148.92
154.24
155.18
151.38
142.59
128.71
109.97
87.15
62.06
37.23
15.16
-2.43
-15.38
-24.81
-32.54
-40.32
-49.17
