1596037241.00
64.000000
-0.00
-0.00
-0.00
-0.00
-0.00
-0.00
-0.00
-0.00
-0.00
-0.00
0.00
0.01
0.01
-0.00
-0.03
-0.05
-0.05
0.00
0.13
0.36
0.66
1.01
1.37
1.72
2.06
2.40
2.79
3.24
3.80
4.42
5.06
5.66
6.20
6.68
7.15
7.68
8.31
9.14
10.09
11.04
11.88
12.56
13.14
13.76
14.65
15.96
17.91
20.32
22.90
25.38
27.58
29.57
31.68
34.32
37.81
42.54
48.15
54.10
59.83
64.97
69.58
74.14
79.34
85.71
93.76
103.00
112.62
121.73
129.77
136.75
143.30
150.75
157.77
166.64
177.95
191.79
206.97
220.57
228.25
225.36
208.53
176.87
132.76
80.05
23.07
-34.94
-92.44
-149.16
-205.23
-260.37
-313.74
-363.87
-409.83
-450.91
-486.50
-515.74
-537.23
-549.22
-549.96
-538.36
-514.20
-478.66
-433.85
-382.41
-326.96
-269.77
-212.54
-156.54
-102.81
-52.21
-5.72
35.78
71.65
101.59
125.76
144.66
159.00
169.48
176.72
181.14
182.99
182.53
180.01
175.78
170.26
163.85
156.90
149.65
142.24
134.76
127.23
119.73
112.31
105.03
97.93
91.03
84.32
77.82
71.56
65.62
60.05
54.91
50.20
45.87
41.83
38.02
34.40
30.98
27.86
25.15
22.93
21.21
19.90
18.85
17.88
16.88
15.89
15.06
14.60
14.62
15.03
15.48
15.46
14.51
12.41
9.28
5.65
2.18
-0.57
-2.43
-3.66
-4.89
-6.70
-9.33
-12.53
-15.38
-16.83
-16.16
-13.46
-9.67
-6.36
-5.04
-6.45
-10.29
-15.07
-19.03
-20.86
-20.26
-18.20
-16.63
-17.82
-23.82
-36.07
-54.45
-76.73
-98.34
-113.12
-115.22
-101.87
-74.95
-40.10
-6.45
18.52
31.75
35.08
33.74
34.04
40.11
53.27
71.89
91.62
106.81
111.83
103.03
79.91
47.58
13.86
-14.06
-32.19
-41.20
-44.96
-48.10
-53.88
-63.77
-77.83
-96.23
-118.60
-142.67
-163.63
-174.82
-170.50
-148.80
-112.88
-69.88
-28.38
5.29
29.07
44.76
56.02
65.98
75.94
84.62
91.61
96.74
100.42
103.15
104.90
105.05
102.79
97.57
89.83
81.11
73.15
67.47
64.71
64.33
64.86
64.53
61.98
57.07
50.96
45.39
41.96
41.47
43.49
46.55
49.24
49.97
48.40
45.39
42.31
40.55
41.06
44.30
50.22
57.94
65.34
69.14
65.55
51.65
27.14
-4.90
-38.71
-67.99
-88.32
-98.63
-100.91
-98.51
-94.32
-89.58
-84.19
-77.80
-70.91
-65.13
-62.32
-63.07
-65.81
-67.04
-62.81
-50.89
-32.18
-10.58
8.68
21.58
27.07
27.09
24.91
23.23
22.94
23.80
25.55
28.57
33.30
38.95
42.94
41.57
32.15
14.88
-6.58
-26.60
-40.32
-45.35
-43.19
-37.31
-30.94
-25.58
-21.05
-16.50
-11.61
-6.98
-3.68
-2.48
-3.17
-4.67
-5.55
-4.86
-2.36
1.20
4.60
6.66
6.87
5.64
4.06
3.41
4.47
7.18
10.65
13.61
14.92
14.26
12.15
9.77
8.28
8.25
9.26
10.02
8.97
4.80
-2.61
-12.28
-22.51
-31.77
-39.10
-44.63
-49.26
-53.66
-59.10
-66.19
-75.20
-85.71
-96.19
-103.61
-103.97
-94.13
-72.89
-42.93
-9.99
19.14
39.52
49.86
52.46
51.30
49.68
48.74
47.53
44.74
40.06
34.85
31.34
31.26
34.70
40.03
44.66
46.11
43.49
37.77
31.45
27.46
27.79
32.61
40.09
47.13
50.78
49.82
45.03
39.08
35.15
35.30
39.74
47.28
55.98
64.14
70.33
72.52
67.89
53.82
29.95
-0.06
-29.02
-49.22
-56.28
-51.65
-41.83
-34.75
-34.73
-41.04
-49.02
-53.77
-53.66
-50.88
-49.65
-52.89
-60.27
-68.42
-73.57
-73.73
-69.42
-64.89
-64.76
-72.37
-88.09
-108.23
-125.86
-132.80
-122.76
-94.46
-53.01
-8.25
29.15
51.84
59.10
55.94
50.11
48.32
53.53
64.90
79.48
93.64
104.16
108.07
102.60
85.97
59.08
26.75
-3.28
-22.85
-27.29
-17.89
-1.41
13.34
19.72
16.10
5.72
-5.93
-14.30
-17.89
-17.49
-15.50
-13.23
-10.21
-4.84
3.72
14.46
24.77
31.83
34.16
32.11
27.81
24.03
22.69
24.14
27.15
29.66
29.71
26.47
20.37
13.07
6.64
2.60
1.46
2.59
4.69
6.27
6.51
5.16
2.73
-0.02
-2.43
-4.10
-4.99
-5.23
-5.10
-4.44
-3.06
-0.76
2.46
6.25
9.95
12.69
13.61
11.88
7.30
-0.03
-9.75
-21.27
-33.81
-46.43
-58.12
-66.55
-72.78
-75.82
-74.85
-69.56
-60.06
-46.84
-30.55
-12.08
7.58
28.27
48.16
65.79
80.06
90.12
95.46
96.01
92.08
84.27
73.08
59.47
44.22
27.81
10.24
-8.24
-26.92
-44.70
-60.17
-72.11
-79.53
-82.19
-80.82
-77.24
-73.18
-69.85
-67.65
-66.34
-65.44
-64.21
-62.68
-61.87
-63.89
-70.20
-81.02
-95.29
-111.37
-127.76
-142.76
-156.96
-169.90
-184.38
-203.61
-230.26
-265.83
-309.95
-359.43
-405.12
-436.83
-446.56
-431.32
-392.85
-336.75
-270.74
-202.01
-134.94
-66.01
8.32
88.25
169.89
248.61
321.54
388.30
450.38
509.77
573.39
643.36
715.02
778.70
825.04
848.38
846.97
822.14
741.38
598.42
414.01
223.29
53.65
-83.98
-190.02
-269.55
-328.03
-370.07
-392.71
-395.46
-382.88
-363.07
-343.45
-327.50
-315.66
-306.30
-298.01
-283.51
-259.01
-226.31
-191.44
-160.92
-137.92
-123.15
-115.37
-113.30
-109.12
-97.02
-75.23
-45.19
-15.10
11.45
33.48
52.35
69.22
91.60
125.14
171.33
227.42
288.63
351.50
413.54
474.29
510.04
506.52
461.02
384.42
293.79
203.15
120.21
46.55
-8.35
-50.66
-81.64
-101.58
-111.82
-115.47
-115.85
-114.64
-117.31
-129.47
-152.95
-181.87
-209.28
-230.50
-244.76
-253.82
-257.84
-260.01
-260.56
-259.59
-254.38
-243.31
-226.22
-206.83
-187.99
-172.00
-159.97
-149.19
-137.44
-122.34
-103.64
-83.00
-62.61
-43.89
-28.23
-15.53
-1.61
16.72
40.99
69.89
100.41
130.02
157.63
182.34
205.62
233.41
270.20
317.50
373.25
433.32
494.33
554.04
610.06
636.66
616.65
546.56
440.28
320.44
205.98
106.78
36.19
-15.24
-55.80
-85.95
-103.45
-106.27
-94.64
-76.91
-59.72
-54.56
-67.96
-97.03
-130.37
-156.64
-169.84
-170.61
-164.17
-155.80
-148.62
-143.20
-137.14
-127.90
-114.88
-101.96
-94.15
-95.51
-107.62
-129.36
-157.58
-187.46
-214.06
-233.42
-241.96
-236.60
-216.06
-180.66
-134.07
-82.09
-30.73
14.30
46.61
61.32
58.76
50.71
47.19
54.37
72.30
97.54
122.54
138.77
141.04
130.07
111.47
91.38
73.36
56.46
35.48
4.33
-38.79
-87.87
-130.34
-152.93
-149.09
-121.57
-81.08
-41.17
-11.68
3.27
7.95
12.16
23.75
42.58
62.05
75.02
79.00
76.81
75.83
79.78
86.89
90.08
80.08
50.62
0.94
-64.07
-136.12
-205.46
-261.27
-293.87
-297.94
-273.34
-224.02
-157.15
-81.95
-8.69
52.89
95.76
118.09
122.89
117.81
112.67
114.44
122.92
129.89
124.05
98.25
55.66
8.10
-29.15
-43.64
-31.26
3.55
51.54
103.90
153.24
200.49
247.23
286.98
310.23
308.42
278.53
224.28
155.83
82.82
17.45
-32.34
-65.04
-86.06
-102.49
-119.13
-139.62
-163.58
-190.35
-217.70
-244.12
-268.66
-290.40
-308.58
-316.40
-310.11
-288.94
-256.02
-215.88
-174.45
-137.46
-108.67
-88.36
-72.15
-53.34
-25.22
13.78
58.43
97.38
119.37
120.71
108.15
95.54
94.87
110.15
135.34
160.19
176.80
183.79
185.53
186.42
185.86
177.00
153.68
112.45
59.20
6.81
-31.41
-47.98
-44.89
-31.47
-19.55
-17.29
-26.57
-43.09
-59.26
-69.52
-71.99
-68.60
-62.50
-56.42
-51.67
-48.61
-47.37
-48.97
-55.33
-66.65
-81.69
-96.94
-106.85
-105.84
-90.84
-61.46
-24.61
10.82
37.78
53.42
59.38
59.99
59.39
59.67
60.50
60.44
59.18
58.53
60.72
67.71
80.33
97.67
116.91
133.22
140.90
135.38
113.42
78.67
38.60
1.98
-24.51
-38.57
-42.52
-41.17
-38.65
-36.61
-34.15
-29.89
-23.39
-15.96
-9.89
-6.96
-7.39
-9.66
-11.45
-10.52
-6.39
0.08
7.00
12.40
15.12
15.14
13.45
11.46
10.38
10.10
10.35
10.17
8.65
5.37
0.58
-4.93
-10.13
-14.15
-16.80
-18.16
-18.75
-19.27
-20.28
-22.03
-24.46
-27.27
-28.99
-30.13
-30.70
-30.88
-30.97
-31.28
-32.03
-33.23
-34.69
-36.08
-37.24
-37.91
-38.02
-37.83
-37.71
-38.03
-39.04
-40.78
-43.06
-45.76
-48.41
-50.51
-51.70
-51.80
-51.16
-50.97
-53.21
-59.56
-69.79
-81.12
-87.48
-82.52
-62.53
-28.70
13.27
55.42
90.70
115.27
128.15
129.74
120.61
101.61
75.08
45.45
18.41
-1.41
-12.59
-17.21
-18.80
-19.51
-18.49
-13.02
-0.79
17.28
36.20
48.69
48.32
33.14
7.16
-20.66
-39.32
-40.17
-20.19
16.49
59.78
96.74
116.25
112.33
85.72
42.84
-6.45
-51.71
-83.80
-96.40
-87.45
-60.11
-22.74
13.20
37.04
42.98
32.02
11.08
-10.74
-26.28
-32.39
-29.55
-19.80
-4.75
14.51
36.16
56.52
70.37
72.77
61.62
39.08
10.52
-18.13
-42.73
-61.93
-76.51
-86.45
-91.47
-91.14
-85.67
-75.88
-62.45
-45.11
-22.68
5.60
38.20
70.00
93.49
101.83
92.35
68.25
37.48
9.15
-10.30
-19.20
-20.05
-16.79
-12.14
-6.62
0.80
11.08
24.16
39.13
55.21
72.15
90.01
107.88
123.06
131.40
128.93
114.07
88.93
58.93
30.94
10.74
1.27
2.07
10.04
20.82
30.30
35.83
36.67
33.65
28.23
21.42
13.10
2.04
-13.28
-33.64
-58.44
-85.71
-112.73
-136.73
-155.67
-168.49
-175.63
-178.90
-180.72
-182.93
-185.79
-187.96
-187.69
-184.55
-180.11
-178.54
-184.75
-201.75
-228.27
-258.66
-284.92
-300.02
-300.46
-285.68
-258.14
-221.66
-179.71
-134.46
-86.84
-37.66
11.49
58.19
101.90
142.91
182.17
220.91
260.32
301.06
342.37
381.40
413.61
436.72
449.84
453.58
449.91
441.91
432.83
424.87
418.31
396.08
348.70
277.54
194.16
112.62
41.79
-16.43
-64.09
-103.39
-132.66
-149.44
-151.26
-138.33
-114.74
-87.04
-61.50
-42.16
-29.91
-25.28
-24.97
-25.47
-25.23
-25.18
-27.46
-33.61
-43.68
-56.42
-70.23
-82.73
-92.76
-100.91
-108.81
-117.62
-126.88
-134.70
-139.07
-139.03
-134.47
-126.20
-115.33
-102.38
-86.98
-68.34
-46.35
-22.41
0.76
20.26
34.01
41.28
42.80
40.51
36.96
34.76
36.01
41.80
51.81
64.25
76.19
84.32
85.95
79.93
67.19
50.78
35.49
26.85
29.72
46.60
76.52
114.84
154.34
187.16
206.94
210.53
198.58
174.98
145.57
116.26
91.55
73.48
61.55
53.46
46.28
37.69
26.69
13.55
-0.62
-14.59
-27.26
-37.64
-44.64
-47.23
-44.88
-38.05
-28.27
-17.85
-9.07
-3.63
-2.21
-4.75
-10.88
-20.23
-32.56
-47.42
-63.66
-79.14
-90.94
-96.22
-93.28
-82.47
-66.31
-48.76
-33.87
-24.53
-21.68
-24.34
-30.43
-37.81
-45.00
-51.47
-57.34
-62.93
-68.35
-73.40
-77.62
-80.53
-81.64
-80.46
-76.40
-68.81
-57.20
-41.61
-23.06
-3.58
14.03
26.93
33.10
32.05
25.06
14.85
4.78
-2.26
-4.75
-3.00
1.06
4.68
5.36
1.69
-6.33
-17.58
-30.53
-43.78
-56.35
-67.57
-76.83
-83.50
-87.12
-87.80
-86.37
-84.19
-82.58
-82.31
-83.25
-84.56
-85.25
-84.61
-82.66
-80.03
-77.62
-76.13
-75.77
-76.13
-76.40
-75.63
-72.93
-67.76
-59.93
-49.50
-36.75
-21.99
-5.66
11.53
28.56
44.14
57.12
66.79
73.11
76.55
77.68
76.77
73.75
68.44
61.07
52.45
43.82
36.28
30.23
25.26
20.46
15.12
9.20
3.28
-1.86
-5.83
-8.87
-11.74
-15.14
-19.32
-23.96
-28.50
-32.58
-36.33
-40.34
-45.22
-51.22
-57.92
-64.45
-69.81
-73.45
-75.48
-76.59
-77.70
-79.39
-81.54
-83.18
-82.93
-79.54
-72.69
-63.30
-53.37
-45.43
-41.67
-43.14
-49.22
-57.65
-65.03
-67.76
-63.20
-50.55
-31.19
-8.18
14.77
34.46
49.05
58.07
62.04
61.88
58.39
52.20
43.95
34.32
24.04
13.85
4.52
-2.99
-7.54
-8.13
-4.21
4.00
15.48
28.69
42.01
54.04
63.80
70.81
75.16
77.53
79.16
81.40
85.27
90.95
97.74
104.46
110.18
114.68
118.59
122.79
127.68
132.87
137.12
138.97
137.42
132.32
124.34
114.57
103.95
92.99
81.77
70.24
58.48
46.92
36.07
26.34
17.84
10.32
3.43
-3.09
-9.18
-14.58
-19.02
-22.37
-24.80
-26.53
-27.63
-27.87
-26.69
-23.55
-18.23
-11.19
-3.55
3.01
6.74
6.20
0.76
-9.12
-21.81
-34.95
-46.04
-53.31
-56.26
-55.71
-53.34
-50.84
-49.15
-48.30
-47.67
-46.62
-44.95
-43.10
-41.71
-41.26
-41.74
-42.70
-43.45
-43.52
-42.75
-41.33
-39.58
-37.68
-35.62
-33.17
-30.08
-26.26
-21.89
-17.40
-13.29
-9.97
-7.61
-6.08
-5.07
-4.28
-3.54
-2.92
-2.67
-3.11
-4.44
-6.66
-9.51
-12.54
-15.18
-16.88
-17.18
-15.89
-13.11
-9.29
-5.09
-1.24
1.66
3.30
3.64
2.89
1.31
-0.86
-3.41
-6.13
-8.76
-11.05
-12.76
-13.77
-14.13
-13.93
-13.29
-12.32
-11.08
-9.63
-8.10
-6.64
-5.46
-4.78
-4.76
-5.50
-7.03
-9.30
-12.19
-15.51
-18.98
-22.28
-25.07
-27.10
-28.21
-28.43
-27.96
-27.15
-26.46
-26.33
-27.11
-28.85
-31.30
-33.96
-36.23
-37.61
-37.85
-36.95
-34.99
-32.01
-27.82
-21.95
-13.85
-3.00
10.75
26.97
44.48
61.43
75.57
84.86
88.01
84.88
76.47
64.60
51.33
38.45
27.36
18.99
13.98
12.63
14.85
20.01
26.98
34.38
40.99
46.12
49.68
52.11
54.05
55.96
58.01
60.06
61.82
63.00
63.56
63.67
63.72
64.17
65.42
67.63
70.69
74.15
77.44
80.04
81.74
82.75
83.62
85.08
87.66
91.50
96.07
100.24
102.64
102.03
97.75
90.07
80.02
69.00
58.15
47.86
37.45
25.49
10.37
-9.08
-32.94
-60.01
-87.65
-112.02
-128.88
-134.67
-127.87
-109.84
-84.76
-58.31
-35.81
-20.47
-12.77
-10.98
-12.63
-15.75
-19.52
-23.88
-28.77
-33.63
-37.40
-39.18
-38.81
-37.12
-35.46
-35.08
-36.41
-38.82
-40.95
-41.36
-39.26
-34.84
-29.18
-23.64
-19.35
-16.71
-15.39
-14.65
-13.73
-12.18
-10.03
-7.61
-5.36
-3.64
-2.54
-1.96
-1.68
-1.55
-1.59
-1.99
-3.01
-4.76
-7.18
-9.95
-12.70
-15.21
-17.50
-19.81
-22.39
-25.37
-28.54
-31.51
-33.88
-35.49
-36.61
-37.84
-39.99
-43.67
-49.12
-56.06
-63.88
-71.79
-78.94
-84.67
-88.50
-90.32
-90.59
-90.50
-91.72
-95.58
-102.18
-109.71
-114.83
-113.57
-102.90
-81.85
-52.09
-17.65
16.13
43.85
61.42
67.05
61.69
48.75
33.03
19.47
11.87
12.36
21.37
38.16
61.13
87.82
114.89
138.33
154.30
160.38
156.34
144.16
127.08
108.28
89.86
72.76
57.32
44.05
33.94
28.16
27.28
30.75
36.74
42.83
46.82
47.37
44.30
38.10
29.51
19.10
7.24
-5.74
-19.17
-31.81
-41.92
-47.75
-48.23
-43.69
-35.98
-27.96
-22.37
-20.78
-23.06
-27.71
-32.96
-37.72
-42.17
-47.25
-53.71
-61.25
-68.22
-72.17
-70.99
-64.01
-52.42
-38.69
-25.25
-13.32
-2.49
8.66
21.25
35.04
48.26
58.47
63.88
64.44
61.77
58.32
56.03
55.60
56.40
57.16
56.76
54.68
51.13
46.68
41.81
36.72
30.93
23.59
13.92
1.79
-11.89
-25.28
-36.31
-43.46
-46.43
-46.22
-44.50
-42.96
-42.61
-43.79
-46.31
-49.93
-54.53
-60.05
-66.32
-72.84
-78.83
-83.40
-85.80
-85.63
-82.83
-77.63
-70.45
-61.83
-52.31
-42.40
-32.62
-23.42
-15.25
-8.46
-3.34
0.00
1.59
1.66
0.56
-1.20
-3.10
-4.58
-5.12
-4.33
-1.95
1.97
7.14
13.01
18.84
23.86
27.47
29.32
29.42
28.04
25.68
22.95
20.49
18.85
18.49
19.67
22.38
26.34
30.98
35.60
39.53
42.35
44.00
44.71
44.94
45.14
45.67
46.71
48.28
50.30
52.57
54.84
56.79
58.10
58.63
58.52
58.24
58.45
59.76
62.45
66.26
70.39
73.53
74.16
70.86
62.82
50.16
34.12
16.76
0.45
-12.81
-21.84
-26.41
-27.02
-24.48
-19.60
-13.08
-5.56
2.25
9.63
15.79
20.12
22.19
21.86
19.34
15.10
9.80
4.17
-1.20
-5.91
-9.69
-12.38
-13.86
-14.09
-13.32
-12.01
-10.80
-10.21
-10.25
-10.33
-9.36
-6.26
-0.46
7.75
17.27
26.68
34.77
40.87
44.70
46.09
44.54
39.42
30.36
17.78
3.16
-11.36
-23.76
-32.90
-38.82
-42.57
-45.68
-49.69
-55.79
-64.86
-77.23
-92.42
-108.90
-124.02
-134.64
-138.02
-132.82
-119.58
-100.48
-78.51
-56.49
-36.29
-18.60
-3.24
10.46
23.26
35.68
47.84
59.22
68.67
74.55
75.19
69.60
58.08
42.47
25.74
11.12
1.16
-2.96
-1.47
4.33
12.71
21.98
30.70
37.70
42.14
43.58
42.16
38.74
34.73
31.72
30.87
32.28
34.78
36.15
33.94
26.53
13.91
-2.20
-18.92
-33.38
-43.72
-49.69
-52.44
-53.84
-55.67
-59.04
-64.27
-71.03
-78.76
-86.78
-94.40
-100.86
-105.22
-106.49
-103.90
-97.22
-87.13
-75.15
-63.33
-53.48
-46.58
-42.44
-40.03
-38.00
-35.23
-30.99
-24.81
-16.16
-4.48
10.43
27.89
46.15
62.79
75.71
84.03
88.44
90.69
92.51
94.65
96.65
97.26
95.38
90.64
83.56
75.02
65.92
56.81
48.06
40.06
33.25
27.95
24.06
21.04
18.09
14.59
10.41
5.79
1.05
-3.77
-9.02
-15.25
-22.92
-32.04
-42.08
-51.96
-60.31
-65.68
-66.94
-63.49
-55.44
-43.58
-29.21
-13.92
0.64
13.04
22.25
27.83
30.04
29.72
28.03
26.08
24.58
23.71
23.12
22.31
20.78
18.27
14.76
10.51
5.97
1.74
-1.54
-3.42
-3.75
-2.82
-1.30
-0.13
-0.20
-2.08
-5.86
-11.05
-16.80
-22.21
-26.62
-29.91
-32.44
-34.83
-37.64
-41.09
-44.96
-48.77
-51.96
-54.16
-55.33
-55.62
-55.39
-54.98
-54.61
-54.25
-53.52
-51.76
-48.14
-42.05
-33.43
-23.06
-12.41
-3.30
2.76
5.08
4.03
0.83
-2.90
-5.70
-6.67
-5.56
-2.62
1.64
6.65
11.90
16.88
21.18
24.51
26.76
28.09
28.82
29.29
29.56
29.35
28.07
25.10
20.11
13.32
5.50
-2.32
-9.14
-14.33
-17.70
-19.41
-19.73
-18.96
-17.31
-14.94
-12.05
-8.90
-5.70
-2.63
0.27
3.01
5.57
7.82
9.49
10.23
9.73
7.90
4.91
1.17
-2.70
-6.12
-8.62
-10.01
-10.37
-10.07
-9.64
-9.58
-10.27
-11.74
-13.74
-15.82
-17.52
-18.54
-18.87
-18.79
-18.66
-18.78
-19.23
-19.86
-20.29
-20.13
-19.11
-17.11
-14.20
-10.56
-6.39
-1.94
2.51
6.63
10.07
12.51
13.77
13.82
12.71
10.51
7.24
2.93
-2.36
-8.46
-15.01
-21.55
-27.56
-32.61
-36.49
-39.24
-41.29
-43.39
-46.46
-51.26
-57.96
-65.85
-73.44
-78.89
-80.63
-77.78
-70.20
-58.13
-41.65
-20.54
5.53
36.40
70.92
106.93
141.64
172.42
197.29
215.08
225.23
227.52
221.98
209.03
189.67
165.55
138.69
111.08
84.30
59.45
37.12
17.63
1.08
-12.62
-23.86
-33.24
-41.43
-48.89
-55.67
-61.46
-65.70
-67.93
-68.06
-66.50
-64.18
-62.20
-61.47
-62.40
-64.59
-66.97
-68.16
-66.92
-62.67
-55.61
-46.66
-37.10
-28.20
-20.94
-15.80
-12.86
-11.76
-11.90
-12.43
-12.50
-11.37
-8.64
-4.32
1.19
7.20
12.95
17.76
21.07
22.60
22.32
20.48
17.52
13.93
10.03
5.99
1.76
-2.74
-7.42
-11.89
-15.49
-17.57
-17.71
-15.94
-12.80
-9.07
-5.54
-2.65
-0.45
1.35
3.14
5.16
7.39
9.63
11.65
13.35
14.84
16.32
17.99
19.89
21.93
23.97
25.90
27.66
29.25
30.57
31.48
31.79
31.37
30.28
28.68
26.80
24.79
22.58
19.99
16.79
12.94
8.63
4.32
0.50
-2.39
-4.21
-5.06
-5.23
-5.05
-4.79
-4.66
-4.84
-5.43
-6.47
-7.91
-9.55
-11.13
-12.35
-13.02
-13.08
-12.63
-11.92
-11.22
-10.76
-10.66
-10.89
-11.26
-11.55
-11.59
-11.39
-11.15
-11.21
-11.85
-13.22
-15.25
-17.68
-20.22
-22.62
-24.66
-26.13
-26.73
-26.16
-24.18
-20.80
-16.39
-11.62
-7.23
-3.84
-1.73
-0.78
-0.67
-0.97
-1.39
-1.80
-2.21
-2.74
-3.49
-4.53
-5.89
-7.56
-9.56
-11.96
-14.94
-18.66
-23.22
-28.48
-34.10
-39.51
-44.15
-47.62
-49.80
-50.83
-51.01
-50.69
-50.27
-50.09
-50.36
-51.04
-51.64
-51.27
-48.80
-43.20
-33.97
-21.29
-5.97
10.83
27.98
44.61
60.22
74.54
87.43
98.78
108.46
116.47
122.88
127.91
131.72
134.35
135.62
135.22
132.79
127.98
120.61
110.58
98.01
83.23
66.98
50.38
34.86
21.77
11.99
5.65
2.22
0.74
0.30
0.32
0.66
1.36
2.48
3.77
4.66
4.30
1.69
-4.00
-13.06
-24.82
-37.48
-48.20
-53.79
-51.67
-40.78
-22.06
1.72
26.57
48.23
63.11
69.04
65.71
54.77
39.49
24.01
12.16
6.38
6.98
12.30
19.48
25.75
29.34
29.85
27.88
24.48
20.50
16.45
12.55
8.90
5.57
2.57
-0.30
-3.45
-7.35
-12.29
-18.16
-24.50
-30.64
-36.08
-40.70
-44.96
-49.74
-56.16
-65.18
-77.25
-92.11
-108.75
-125.67
-141.27
-154.42
-164.67
-172.34
-178.16
-182.86
-186.75
-189.74
-191.48
-191.84
-191.15
-190.22
-190.21
-192.39
-197.88
-207.60
-222.02
-240.66
-261.42
-280.20
-291.28
-288.82
-268.90
-231.35
-180.18
-122.37
-65.45
-15.09
26.17
58.50
83.35
102.08
115.39
123.85
128.59
131.53
134.64
138.81
143.17
145.51
143.60
136.59
125.70
113.71
103.73
97.78
96.06
97.01
98.07
96.65
90.87
80.11
65.14
47.91
31.03
17.08
7.86
3.95
4.70
8.61
13.99
19.31
23.60
26.45
28.02
28.94
30.21
32.83
37.53
44.36
52.61
60.91
67.74
71.91
72.91
71.03
67.12
62.26
57.42
53.33
50.48
49.28
50.18
53.56
59.57
67.88
77.52
87.05
94.99
100.34
103.09
104.19
105.34
108.28
114.13
123.05
134.19
146.05
157.14
166.44
173.67
179.15
183.34
186.32
187.56
185.98
180.40
169.84
153.77
132.07
105.05
73.50
38.85
3.17
-31.14
-62.00
-88.23
-109.68
-127.02
-140.97
-151.77
-159.11
-162.51
-161.83
-157.81
-151.79
-145.24
-139.07
-133.31
-127.19
-119.63
-109.74
-97.20
-82.26
-65.61
-48.17
-30.91
-14.81
-0.81
10.39
18.39
23.28
25.59
26.28
26.48
27.27
29.47
33.36
38.51
43.78
47.64
48.74
46.51
41.58
35.56
30.41
27.61
27.64
29.89
33.04
35.51
35.96
33.48
27.79
19.27
8.89
-1.85
-11.36
-18.33
-22.07
-22.72
-21.14
-18.57
-16.37
-15.63
-16.94
-20.18
-24.57
-28.91
-31.94
-32.71
-30.79
-26.29
-19.72
-11.86
-3.59
4.20
10.64
15.05
17.15
17.35
16.62
16.15
17.06
19.94
24.73
30.69
36.37
40.10
40.65
37.29
30.10
20.05
8.92
-1.15
-8.32
-11.93
-12.34
-9.93
-5.23
1.57
10.62
22.21
36.35
52.14
67.18
78.81
85.89
88.37
87.31
84.39
81.22
79.03
78.11
77.21
75.25
73.11
72.30
74.54
81.00
91.91
107.02
125.53
145.66
155.69
147.24
117.36
70.85
17.62
-32.55
-72.87
-95.98
-104.19
-100.86
-88.09
-68.58
-45.78
-23.42
-7.17
0.76
1.80
-0.25
0.52
9.94
30.07
57.95
86.51
107.33
114.67
107.29
87.97
62.84
38.72
19.84
6.68
-3.31
-13.74
-26.85
-42.84
-60.71
-78.64
-95.16
-110.05
-123.99
-137.69
-151.20
-163.58
-173.57
-180.52
-184.41
-185.83
-185.66
-184.52
-182.50
-179.20
-173.88
-166.02
-155.65
-143.46
-130.60
-118.42
-107.97
-99.65
-93.11
-87.48
-81.84
-75.69
-69.20
-63.07
-58.29
-55.58
-55.14
-56.44
-58.48
-60.12
-60.45
-59.14
-56.52
-53.45
-50.99
-49.97
-50.67
-52.66
-54.98
-56.51
-56.25
-53.58
-48.22
-40.22
-29.87
-17.73
-4.44
9.45
23.79
38.95
55.70
74.75
96.32
119.82
144.03
167.54
189.23
208.52
225.27
239.43
250.55
257.42
257.88
249.10
228.39
194.40
148.17
93.55
36.49
-16.65
-61.01
-94.62
-118.33
-134.72
-146.34
-154.49
-158.98
-158.97
-153.91
-144.25
-131.26
-116.32
-100.21
-82.83
-63.56
-41.93
-18.44
5.26
26.75
43.60
54.26
58.42
56.96
51.39
43.20
33.40
22.46
10.58
-1.96
-14.60
-26.55
-36.93
-45.09
-50.71
-53.84
-54.79
-54.02
-52.06
-49.32
-46.09
-42.46
-38.47
-34.19
-29.87
-25.89
-22.63
-20.24
-18.53
-17.01
-15.13
-12.49
-9.09
-5.18
-1.08
3.08
7.44
12.37
18.17
24.85
32.03
39.05
45.32
50.50
54.69
58.36
62.04
66.03
70.29
74.34
77.55
79.36
79.47
78.05
75.57
72.61
69.60
66.52
63.00
58.37
52.06
43.84
34.03
23.35
12.76
3.11
-5.11
-11.79
-17.13
-21.49
-25.12
-28.15
-30.50
-32.03
-32.65
-32.46
-31.78
-31.08
-30.90
-31.69
-33.86
-37.78
-43.84
-52.44
-63.76
-77.60
-93.27
-109.63
-125.48
-139.78
-151.63
-160.07
-163.54
-159.79
-146.35
-121.75
-86.83
-45.48
-3.92
31.18
55.19
67.36
70.87
71.29
73.99
81.98
95.04
110.42
124.53
134.56
139.29
138.88
134.12
125.59
113.38
97.36
77.69
55.22
31.51
8.60
-11.55
-27.30
-37.42
-40.91
-36.94
-25.15
-6.24
17.59
42.73
65.07
81.35
90.39
93.36
93.10
92.58
93.65
96.32
99.11
99.98
97.31
90.48
80.03
67.43
54.76
44.34
38.25
37.78
43.04
52.81
64.85
76.45
85.17
89.36
88.44
82.83
73.79
63.02
52.28
43.01
35.89
30.76
26.76
22.79
18.02
12.24
5.92
-0.08
-5.00
-8.47
-10.66
-12.16
-13.63
-15.59
-18.26
-21.58
-25.22
-28.75
-31.68
-33.49
-33.86
-32.71
-30.36
-27.44
-24.71
-22.80
-21.97
-22.04
-22.45
-22.51
-21.62
-19.46
-16.12
-11.99
-7.72
-3.96
-1.28
-0.03
-0.29
-1.93
-4.71
-8.36
-12.63
-17.35
-22.39
-27.64
-33.01
-38.42
-43.77
-48.98
-53.98
-58.69
-63.01
-66.80
-69.85
-71.94
-72.85
-72.38
-70.48
-67.22
-62.84
-57.70
-52.26
-47.00
-42.39
-38.78
-36.34
-34.95
-34.25
-33.68
-32.71
-31.03
-28.70
-26.10
-23.72
-21.94
-20.80
-20.02
-19.08
-17.51
-15.09
-11.96
-8.52
-5.32
-2.80
-1.13
-0.17
0.45
1.19
2.39
4.12
6.14
7.94
8.94
8.74
7.27
4.90
2.28
0.18
-0.82
-0.51
0.93
2.99
5.12
6.83
7.89
8.36
8.49
8.63
9.05
9.84
10.92
12.10
13.13
13.82
14.04
13.70
12.76
11.16
8.90
6.06
2.92
-0.09
-2.45
-3.67
-3.47
-1.87
0.80
3.96
6.98
9.34
10.73
11.12
10.56
9.09
6.68
3.27
-1.06
-5.99
-11.01
-15.50
-19.03
-21.50
-23.14
-24.44
-25.84
-27.54
-29.47
-31.31
-32.69
-33.37
-33.38
-32.97
-32.52
-32.34
-32.53
-32.98
-33.42
-33.59
-33.37
-32.72
-31.65
-30.08
-27.87
-24.86
-21.09
-16.79
-12.38
-8.28
-4.69
-1.62
1.11
3.66
6.06
8.14
9.70
10.57
10.72
10.34
9.80
9.51
9.87
11.11
13.21
15.91
18.73
21.20
22.99
23.98
24.27
24.07
23.52
22.73
21.75
20.71
19.78
19.16
18.95
19.03
19.11
18.87
18.09
16.78
15.22
13.84
13.06
13.09
13.83
14.93
15.93
16.44
16.30
15.68
14.97
14.72
15.44
17.47
20.79
24.97
29.15
32.15
32.86
30.52
25.07
17.18
7.98
-1.31
-9.88
-17.40
-24.07
-30.28
-36.41
-42.65
-48.97
-55.19
-60.98
-65.88
-69.35
-70.92
-70.30
-67.54
-63.04
-57.41
-51.22
-44.84
-38.40
-31.88
-25.36
-19.09
-13.48
-8.96
-5.83
-4.21
-4.06
-5.32
-7.97
-12.03
-17.40
-23.78
-30.63
-37.20
-42.79
-46.91
-49.34
-50.09
-49.29
-47.06
-43.48
-38.66
-32.83
-26.36
-19.72
-13.37
-7.68
-2.89
0.93
3.75
5.66
6.81
7.49
8.01
8.68
9.68
11.00
12.52
14.03
15.41
16.60
17.57
18.28
18.58
18.25
17.12
15.17
12.60
9.72
6.88
4.29
2.03
0.09
-1.56
-2.93
-3.98
-4.71
-5.16
-5.42
-5.57
-5.73
-6.02
-6.55
-7.46
-8.84
-10.68
-12.89
-15.19
-17.24
-18.65
-19.05
-18.16
-15.89
-12.35
-7.90
-3.00
1.87
6.42
10.55
14.36
18.02
21.59
24.95
27.82
29.87
30.85
30.75
29.75
28.12
26.07
23.63
20.72
17.29
13.48
9.61
6.05
3.05
0.65
-1.27
-2.79
-3.81
-4.03
-3.18
-1.18
1.65
4.69
7.15
8.40
8.07
6.11
2.64
-2.13
-7.96
-14.58
-21.62
-28.56
-34.87
-40.05
-43.82
-46.13
-47.07
-46.83
-45.48
-43.06
-39.58
-35.13
-29.98
-24.56
-19.30
-14.57
-10.56
-7.28
-4.53
-2.05
0.44
3.12
6.00
8.84
11.30
13.04
13.85
13.73
12.82
11.36
9.57
7.65
5.82
4.31
3.39
3.20
3.74
4.74
5.78
6.39
6.15
4.89
2.69
-0.13
-3.08
-5.62
-7.30
-7.86
-7.24
-5.69
-3.54
-1.21
0.99
2.94
4.67
6.25
7.73
9.07
10.18
10.98
11.49
11.81
12.04
12.14
11.93
11.21
9.84
7.92
5.73
3.60
1.76
0.25
-1.07
-2.36
-3.72
-5.20
-6.84
-8.73
-11.02
-13.84
-17.12
-20.59
-23.76
-26.10
-27.25
-27.11
-25.92
-24.11
-22.21
-20.66
-19.75
-19.65
-20.41
-21.96
-24.10
-26.54
-28.90
-30.85
-32.23
-33.06
-33.48
-33.58
-33.26
-32.15
-29.77
-25.74
-19.98
-12.77
-4.67
3.73
11.94
19.60
26.44
32.21
36.62
39.49
40.81
40.82
39.94
38.62
37.25
36.10
35.31
34.94
35.03
35.55
36.41
37.44
38.47
39.30
39.77
39.74
39.02
37.38
34.62
30.67
25.75
20.42
15.58
12.27
11.40
13.53
18.71
26.52
36.20
46.84
57.55
67.51
76.02
82.52
86.55
87.77
86.01
81.25
73.70
63.80
52.16
39.52
26.62
14.12
2.62
-7.31
-15.16
-20.48
-23.07
-23.05
-20.88
-17.30
-13.04
-8.71
-4.76
-1.46
0.98
2.36
2.57
1.65
-0.13
-2.32
-4.40
-5.98
-6.94
-7.39
-7.62
-7.98
-8.75
-10.14
-12.26
-15.17
-18.80
-22.93
-27.21
-31.25
-34.73
-37.57
-39.98
-42.31
-44.84
-47.54
-49.96
-51.37
-51.02
-48.52
-43.95
-37.84
-30.98
-24.10
-17.68
-11.96
-7.07
-3.10
-0.21
1.48
1.98
1.54
0.60
-0.26
-0.54
0.10
1.72
4.03
6.50
8.52
9.57
9.48
8.43
6.88
5.25
3.82
2.51
1.00
-1.12
-4.18
-8.28
-13.28
-18.73
-23.94
-28.05
-30.21
-29.83
-26.78
-21.45
-14.66
-7.37
-0.40
5.71
10.74
14.66
17.47
19.20
19.90
19.69
18.85
17.73
16.65
15.88
15.49
15.44
15.57
15.64
15.46
14.86
13.75
12.15
10.09
7.69
5.06
2.27
-0.71
-3.98
-7.73
-12.11
-17.11
-22.41
-27.40
-31.23
-33.02
-32.12
-28.32
-21.92
-13.73
-4.79
3.86
11.44
17.53
22.05
25.16
27.06
27.98
28.08
27.49
26.32
24.69
22.70
20.45
18.08
15.71
13.55
11.76
10.43
9.52
8.81
8.06
7.04
5.63
3.91
2.00
-0.03
-2.21
-4.75
-7.92
-11.96
-16.93
-22.65
-28.68
-34.31
-38.69
-40.97
-40.53
-37.18
-31.25
-23.55
-15.11
-6.94
0.32
6.34
11.17
14.97
17.91
20.12
21.72
22.89
23.82
24.69
25.62
26.67
27.81
29.01
30.19
31.23
31.97
32.26
32.00
31.22
30.09
28.82
27.58
26.41
25.21
23.87
22.33
20.65
18.98
17.44
16.09
14.86
13.67
12.41
11.09
9.76
8.56
7.57
6.82
6.25
5.75
5.22
4.59
3.88
3.17
2.53
2.02
1.67
1.43
1.25
1.06
0.84
0.58
0.32
0.09
-0.07
-0.17
-0.21
-0.24
-0.27
-0.33
-0.41
-0.48
-0.55
-0.59
-0.61
-0.61
-0.59
-0.59
-0.59
-0.60
-0.61
-0.61
-0.61
-0.61
-0.61
-0.60
-0.60
-0.59
-0.59
-0.59
-0.59
-0.59
-0.58
-0.58
-0.58
-0.58
-0.58
-0.58
-0.57
-0.57
-0.57
-0.57
-0.57
-0.56
-0.56
-0.56
-0.56
-0.56
-0.56
-0.56
-0.55
-0.55
-0.55
-0.55
-0.55
-0.55
-0.54
-0.54
-0.54
-0.54
-0.54
-0.54
-0.53
-0.53
-0.53
-0.53
-0.53
-0.52
-0.52
-0.52
-0.52
-0.52
-0.52
-0.52
-0.52
-0.51
-0.51
-0.51
-0.51
-0.51
-0.51
-0.50
-0.50
-0.50
-0.50
-0.50
-0.50
-0.49
-0.49
-0.49
-0.49
-0.49
-0.49
-0.49
-0.48
-0.48
-0.48
-0.48
-0.48
-0.48
-0.48
-0.47
-0.47
-0.47
-0.47
-0.47
-0.47
-0.47
-0.46
-0.46
-0.46
-0.46
-0.46
-0.46
-0.46
-0.45
-0.45
-0.45
-0.45
-0.45
-0.45
-0.45
-0.45
-0.44
-0.44
-0.44
-0.44
-0.44
-0.44
-0.44
-0.43
-0.43
-0.43
-0.43
-0.43
-0.43
-0.43
-0.43
-0.42
-0.42
-0.42
-0.42
-0.42
-0.42
-0.42
-0.42
-0.41
-0.41
-0.41
-0.41
-0.41
-0.41
-0.41
-0.41
-0.40
-0.40
-0.40
-0.40
-0.40
-0.40
-0.40
-0.39
-0.39
-0.39
-0.40
-0.40
-0.40
-0.40
-0.39
-0.36
-0.33
-0.30
-0.26
-0.22
-0.18
-0.15
-0.12
-0.09
-0.04
0.02
0.09
0.16
0.21
0.26
0.29
0.32
0.36
0.43
0.51
0.62
0.72
0.81
0.87
0.93
1.01
1.13
1.32
1.59
1.90
2.21
2.49
2.71
2.90
3.11
3.40
3.84
4.41
5.08
5.76
6.37
6.86
7.27
7.67
8.19
8.92
9.88
10.99
12.12
13.14
13.96
14.59
15.16
15.82
16.77
18.14
19.96
22.10
24.25
25.88
26.45
25.49
22.82
18.65
13.48
7.97
2.66
-2.14
-6.40
-10.31
-14.09
-17.90
-21.70
-25.31
-28.40
-30.63
-31.72
-31.51
-29.99
-27.31
-23.69
-19.42
-14.83
-10.27
-6.05
-2.47
0.30
2.21
3.35
3.92
4.17
4.31
4.49
4.71
4.89
4.91
4.77
4.64
4.81
5.59
7.15
9.32
11.70
13.80
15.25
15.91
15.94
15.60
15.13
14.67
14.16
13.43
12.20
10.18
7.12
3.03
-1.79
-6.68
-10.79
-13.32
-13.77
-12.11
-8.77
-4.44
0.14
4.32
7.64
9.82
10.82
10.73
9.81
8.36
6.66
4.85
2.94
0.89
-1.30
-3.53
-5.57
-7.27
-8.55
-9.49
-10.28
-11.10
-12.03
-12.97
-13.76
-14.24
-14.35
-14.15
-13.78
-13.40
-13.13
-13.00
-13.04
-13.26
-13.65
-14.13
-14.42
-14.04
-12.37
-8.90
-3.48
3.55
11.33
18.75
24.78
28.79
30.57
30.35
28.54
25.56
21.75
17.38
12.74
8.15
3.94
0.38
-2.41
-4.50
-6.15
-7.69
-9.38
-11.35
-13.51
-15.68
-17.76
-19.75
-21.81
-24.14
-26.86
-29.97
-33.37
-36.99
-40.70
-44.37
-47.69
-50.07
-50.71
-49.04
-44.87
-38.59
-30.95
-22.86
-15.20
-8.60
-3.36
0.55
3.32
5.23
6.63
7.87
9.27
10.85
12.48
14.00
15.44
16.78
17.95
18.91
19.63
20.13
20.04
19.02
17.05
14.98
13.37
12.40
11.84
11.28
10.24
7.66
2.76
-4.27
-11.35
-16.78
-19.53
-19.28
-16.04
-10.13
-3.33
2.40
5.97
9.03
12.57
17.03
22.19
27.65
32.16
31.68
21.00
-4.09
-42.86
-92.58
-147.78
-201.05
-244.02
-261.17
-242.34
-187.94
-120.81
-53.69
6.33
56.77
92.90
111.19
111.38
96.08
71.41
45.63
28.42
24.48
33.63
52.54
77.79
106.69
136.09
162.86
184.40
200.51
210.57
213.98
210.40
200.42
185.08
164.81
140.01
111.60
81.97
52.92
25.56
0.58
-21.25
-39.39
-54.21
-66.77
-78.23
-88.92
-98.98
-108.18
-116.22
-123.00
-129.07
-135.90
-145.39
-159.15
-177.78
-200.84
-226.96
-254.24
-280.65
-304.70
-325.63
-343.37
-358.09
-369.76
-377.66
-380.32
-375.76
-362.31
-339.51
-308.73
-273.24
-237.49
-205.96
-181.82
-166.19
-157.98
-154.45
-152.06
-147.26
-137.01
-118.97
-91.65
-54.46
-7.83
47.02
108.46
174.69
243.62
312.15
375.48
427.50
462.23
476.11
469.77
448.14
418.49
387.56
358.96
332.63
306.19
277.23
245.07
210.98
176.99
144.32
112.74
81.02
48.17
14.35
-19.09
-50.29
-77.88
-101.62
-122.39
-141.68
-160.89
-180.66
-200.40
-218.10
-230.49
-233.73
-224.40
-200.77
-163.56
-116.15
-63.83
-12.51
32.76
68.98
95.84
115.53
131.83
148.59
168.04
189.71
210.55
226.20
233.11
230.38
220.15
206.28
192.13
178.73
164.60
147.32
125.81
101.73
79.11
62.30
53.56
51.76
53.10
53.09
48.94
40.59
30.27
20.94
14.72
12.09
12.14
13.40
14.52
14.74
13.94
12.54
11.19
10.32
9.63
7.96
3.61
-4.98
-18.15
-34.69
-52.26
-68.59
-82.59
-94.77
-106.61
-119.34
-132.85
-145.39
-154.31
-157.22
-153.11
-142.78
-128.46
-113.03
-99.16
-88.65
-82.17
-79.19
-78.29
-77.58
-75.29
-70.42
-63.09
-54.53
-46.68
-41.33
-39.32
-39.93
-41.07
-40.16
-35.33
-26.27
-14.36
-1.89
9.12
17.79
24.49
30.27
36.07
42.14
48.21
53.86
59.01
63.85
68.44
72.26
74.22
73.30
69.24
63.04
56.55
51.63
49.08
48.39
48.10
46.90
44.46
41.75
40.38
41.64
45.81
52.14
59.51
67.21
75.37
84.68
95.73
108.36
121.49
133.35
141.95
145.45
142.52
132.53
115.84
93.80
68.51
42.18
16.49
-7.67
-29.89
-49.49
-65.21
-75.44
-79.30
-77.66
-73.40
-70.39
-71.67
-77.91
-86.95
-94.99
-98.49
-95.80
-87.61
-76.08
-63.29
-50.25
-36.87
-22.80
-8.47
4.74
15.10
21.74
25.31
27.83
31.55
37.85
46.53
56.20
65.20
72.48
77.95
82.11
85.31
87.04
85.79
79.50
66.35
45.80
19.15
-10.46
-38.86
-62.09
-77.69
-85.36
-86.70
-84.32
-80.65
-77.15
-74.15
-71.15
-67.44
-62.59
-56.64
-50.08
-43.78
-38.70
-35.74
-35.51
-38.19
-43.46
-50.51
-58.20
-65.24
-70.43
-72.88
-72.18
-68.43
-62.09
-53.84
-44.35
-34.24
-23.95
-13.70
-3.33
7.67
19.94
33.79
48.82
63.75
76.83
86.40
91.55
92.42
90.08
86.00
81.62
77.92
75.44
74.30
74.35
75.20
76.15
76.28
74.57
70.22
63.02
53.62
43.41
34.07
26.89
22.21
19.35
17.14
14.64
11.67
8.86
7.06
6.95
8.49
10.89
13.22
14.96
15.95
16.38
16.54
16.72
17.28
18.46
20.00
21.23
21.20
18.92
14.02
7.06
-0.44
-6.35
-9.10
-8.95
-7.38
-6.52
-8.51
-14.80
-25.58
-39.58
-53.19
-61.45
-60.04
-44.78
-13.03
33.86
90.08
146.94
195.77
232.42
256.99
270.35
275.72
277.25
276.50
272.03
260.04
236.02
199.18
151.35
93.60
31.79
-23.72
-64.12
-84.75
-86.03
-72.04
-45.21
-8.18
30.68
64.71
91.54
110.40
123.45
135.90
133.93
109.03
89.55
85.22
82.66
74.14
56.13
29.60
-1.85
-34.35
-62.22
-81.82
-96.79
-109.78
-119.75
-126.18
-129.66
-132.00
-135.54
-139.63
-142.70
-146.73
-151.86
-155.49
-156.00
-153.20
-148.14
-142.48
-136.14
-128.68
-121.98
-116.90
-112.45
-107.97
-103.29
-98.71
-94.75
-91.13
-87.42
-84.33
-81.97
-79.47
-76.11
-71.60
-66.17
-60.45
-54.92
-49.95
-46.04
-43.24
-41.09
-39.23
-37.60
-36.37
-35.81
-36.02
-36.88
-38.04
-39.09
-39.67
-39.51
-38.44
-36.36
-33.21
-29.06
-24.15
-18.87
-13.66
-8.90
-4.83
-1.56
0.90
2.52
3.33
3.41
2.96
2.25
1.53
0.92
0.44
-0.03
-0.56
-1.13
-1.61
-1.82
-1.61
-0.98
-0.05
1.01
1.98
2.70
3.06
2.97
2.41
1.37
-0.15
-2.08
-4.30
-6.67
-8.93
-10.82
-12.07
-12.52
-12.13
-11.03
-9.44
-7.64
-5.86
-4.30
-3.08
-2.24
-1.80
-1.70
-1.93
-2.45
-3.28
-4.44
-6.00
-7.92
-10.10
-12.31
-14.31
-15.89
-16.97
-17.63
-18.13
-18.74
-19.62
-20.66
-21.39
-21.12
-19.18
-15.26
-9.55
-2.76
4.18
10.40
15.42
19.19
22.06
24.50
27.03
29.99
33.61
37.97
43.00
48.46
53.87
58.69
62.32
64.25
64.23
62.27
58.63
53.78
48.24
42.49
36.86
31.50
26.42
21.57
16.91
12.42
8.14
4.12
0.40
-3.01
-6.07
-8.75
-11.00
-12.83
-14.31
-15.61
-16.84
-18.07
-19.25
-20.23
-20.90
-21.23
-21.31
-21.33
-21.43
-21.69
-22.06
-22.36
-22.35
-21.77
-20.45
-18.34
-15.57
-12.46
-9.39
-6.66
-4.47
-2.84
-1.70
-0.99
-0.69
-0.80
-1.29
-2.04
-2.86
-3.54
-3.96
-4.10
-4.06
-4.00
-4.06
-4.29
-4.63
-4.98
-5.21
-5.23
-5.07
-4.83
-4.59
-4.44
-4.38
-4.40
-4.45
-4.53
-4.64
-4.78
-4.97
-5.22
-5.60
-6.19
-6.98
-7.83
-8.49
-8.67
-8.20
-7.13
-5.68
-4.18
-2.88
-1.92
-1.27
-0.83
-0.53
-0.30
-0.12
0.04
0.20
0.41
0.65
0.89
1.10
1.28
1.40
1.44
1.33
0.99
0.35
-0.58
-1.69
-2.82
-3.77
-4.44
-4.85
-5.13
-5.45
-5.98
-6.86
-8.17
-9.90
-11.99
-14.21
-16.19
-17.46
-17.55
-16.18
-13.36
-9.45
-5.08
-0.94
2.40
4.62
5.68
5.76
5.14
4.10
2.88
1.72
0.80
0.32
0.52
1.53
3.38
5.96
9.02
12.34
15.75
19.24
22.92
26.97
31.45
36.22
40.96
45.21
48.54
50.64
51.38
50.67
48.53
44.82
39.30
31.81
22.50
11.98
1.23
-8.63
-16.93
-23.14
-27.62
-31.13
-34.43
-37.86
-41.07
-43.25
-43.44
-41.48
-37.14
-31.39
-25.49
-20.43
-16.30
-12.14
-6.44
2.09
13.05
25.83
37.98
46.95
51.01
49.96
45.16
38.56
31.77
24.89
19.24
15.15
12.79
11.60
9.87
4.94
-5.50
-16.45
-31.40
-44.27
-50.38
-48.33
-41.50
-36.73
-40.87
-56.84
-81.40
-106.99
-122.77
-121.60
-102.19
-69.33
-31.43
3.09
28.89
45.19
53.87
59.04
62.93
65.64
65.58
61.12
51.96
39.60
26.64
15.08
6.30
-0.34
-6.49
-13.93
-23.52
-34.90
-46.68
-57.04
-64.54
-68.09
-67.65
-64.11
-59.41
-55.94
-55.61
-58.73
-63.62
-67.37
-67.13
-61.62
-51.72
-40.51
-31.89
-28.85
-32.38
-41.17
-52.38
-62.45
-67.30
-63.03
-47.95
-23.73
4.27
28.38
41.49
39.51
22.33
-5.84
-34.91
-54.41
-57.39
-43.66
-19.01
9.72
38.09
63.60
85.10
101.26
110.16
110.18
101.77
87.57
71.95
58.87
48.45
38.47
24.53
1.84
-32.11
-74.51
-117.05
-147.64
-150.63
-121.24
-65.59
1.26
60.95
97.99
107.28
91.67
60.24
24.89
-3.72
-16.67
-8.15
24.84
77.06
135.63
183.91
208.55
204.58
175.91
133.90
91.45
57.59
34.82
21.06
13.00
9.03
9.54
14.52
22.75
30.94
34.77
31.07
19.80
4.11
-11.13
-22.01
-27.36
-28.77
-29.97
-35.00
-46.66
-65.50
-89.99
-117.14
-141.00
-157.70
-163.13
-154.18
-130.41
-95.23
-55.35
-18.48
9.54
26.83
35.30
39.22
42.24
45.39
47.35
46.05
40.91
33.55
27.23
24.82
27.69
34.75
42.85
48.15
48.00
42.22
32.83
23.04
15.18
9.76
5.38
-0.11
-7.91
-17.85
-28.51
-38.77
-48.36
-57.36
-64.65
-66.90
-59.60
-39.83
-9.80
23.98
51.66
64.97
61.55
46.16
28.23
16.89
16.89
26.66
40.60
52.67
59.92
63.17
65.25
68.35
72.37
75.12
73.67
66.22
52.55
34.41
14.66
-4.08
-20.28
-33.98
-46.28
-58.76
-71.74
-85.59
-99.60
-112.84
-125.02
-136.41
-147.00
-155.31
-158.60
-152.67
-135.06
-106.65
-72.16
-38.70
-12.80
2.11
6.57
3.93
-1.74
-7.87
-13.69
-19.39
-25.06
-29.93
-32.69
-32.33
-28.90
-23.44
-17.59
-12.75
-9.43
-7.15
-4.87
-1.68
2.67
7.64
12.13
14.87
15.06
12.76
8.83
4.69
1.68
0.73
2.15
5.67
10.74
16.79
23.46
30.61
38.32
46.42
54.43
61.60
67.04
69.92
69.68
66.18
59.63
50.90
40.75
29.92
19.09
8.83
-0.34
-7.99
-13.72
-17.15
-17.57
-14.67
-8.46
0.79
12.48
25.81
39.88
53.86
64.82
72.64
77.80
80.93
82.50
82.71
81.49
78.63
74.07
68.09
61.75
55.97
51.47
48.58
47.01
46.02
44.71
42.47
39.16
35.53
32.35
30.29
29.81
31.13
34.22
38.51
42.67
44.42
41.37
31.64
15.20
-5.69
-27.07
-44.87
-56.53
-61.80
-62.36
-60.45
-57.78
-54.87
-51.42
-47.03
-41.92
-36.84
-32.68
-29.88
-28.09
-26.59
-24.49
-21.17
-16.59
-11.28
-6.24
-2.47
-0.72
-1.13
-3.25
-6.12
-8.86
-10.93
-12.28
-13.31
-14.54
-16.31
-18.55
-20.77
-22.34
-22.86
-22.32
-21.11
-19.81
-18.85
-18.30
-17.85
-17.02
-15.44
-13.13
-10.46
-8.09
-6.60
-6.25
-6.90
-7.99
-8.86
-8.94
-8.11
-6.56
-4.79
-3.28
-2.30
-1.91
-2.07
-2.72
-3.68
-4.46
-4.20
-1.99
2.64
9.18
16.14
21.59
24.06
23.27
20.16
16.32
13.21
11.45
10.81
10.60
10.34
10.04
10.09
10.94
12.59
14.72
16.80
18.49
19.66
20.56
21.56
22.84
24.84
27.23
29.36
30.45
29.93
27.61
23.68
18.67
13.17
7.70
2.53
-2.25
-6.74
-11.07
-15.49
-20.23
-25.47
-31.22
-37.23
-43.02
-47.92
-51.26
-52.62
-52.02
-49.94
-47.07
-44.14
-41.54
-39.36
-37.33
-35.06
-32.31
-29.06
-25.50
-21.89
-18.43
-15.18
-12.16
-9.43
-7.10
-5.33
-4.26
-3.85
-3.91
-4.21
-4.53
-4.80
-5.01
-5.19
-5.27
-5.13
-4.66
-3.85
-2.86
-1.93
-1.23
-0.73
-0.25
0.39
1.22
1.99
2.26
1.65
0.08
-2.11
-4.23
-5.56
-5.59
-4.20
-1.61
1.78
5.57
9.44
13.11
16.31
18.78
20.33
20.87
20.49
19.39
17.77
15.79
13.60
11.39
9.43
8.06
7.59
8.16
9.62
11.61
13.57
14.89
15.10
13.96
11.53
8.21
4.61
1.38
-0.99
-2.33
-2.84
-2.96
-3.15
-3.76
-4.92
-6.56
-8.47
-10.38
-11.96
-12.88
-12.82
-11.57
-9.18
-5.95
-2.45
0.66
2.82
3.66
3.15
1.52
-0.80
-3.32
-5.65
-7.55
-9.04
-10.22
-11.22
-12.02
-12.43
-12.12
-10.81
-8.49
-5.41
-2.16
0.59
2.31
2.75
2.05
0.58
-1.18
-2.88
-4.28
-5.37
-6.17
-6.76
-7.20
-7.53
-7.85
-8.25
-8.84
-9.67
-10.68
-11.67
-12.34
-12.32
-11.33
-9.26
-6.28
-2.78
0.74
3.85
6.32
8.19
9.62
10.80
11.77
12.44
12.65
12.33
11.53
10.47
9.41
8.59
8.13
8.10
8.48
9.25
10.38
11.76
13.24
14.59
15.62
16.24
16.55
16.77
17.11
17.60
18.09
18.28
17.97
17.20
16.26
15.55
15.36
15.78
16.77
18.35
20.69
23.91
27.81
31.66
34.26
34.35
31.11
24.40
14.79
3.08
-10.00
-23.92
-38.08
-51.47
-62.66
-70.13
-73.02
-71.66
-67.63
-63.16
-60.05
-58.88
-58.67
-57.47
-53.30
-45.19
-33.54
-19.88
-6.08
6.43
17.06
25.92
33.37
39.61
44.54
47.89
49.59
49.90
49.34
48.44
47.41
45.95
43.34
38.67
31.21
20.81
8.06
-5.77
-18.98
-29.92
-37.38
-40.82
-40.41
-36.74
-30.60
-22.72
-13.77
-4.36
4.91
13.39
20.56
26.06
29.72
31.54
31.57
29.93
26.75
22.33
17.08
11.63
6.65
2.79
0.42
-0.46
-0.29
0.15
-0.02
-1.40
-4.10
-7.72
-11.49
-14.63
-16.61
-17.26
-16.68
-15.10
-12.75
-9.80
-6.46
-2.99
0.26
2.95
4.89
6.04
6.50
6.42
5.84
4.69
2.88
0.49
-2.07
-4.14
-5.06
-4.57
-3.06
-1.53
-1.13
-2.59
-5.84
-10.01
-13.85
-16.37
-17.27
-16.99
-16.37
-16.19
-16.77
-17.92
-19.07
-19.51
-18.65
-16.12
-11.91
-6.47
-0.64
4.46
7.77
8.59
6.79
2.86
-2.27
-7.56
-12.10
-15.26
-16.69
-16.30
-14.17
-10.59
-6.03
-1.14
3.44
7.21
9.93
11.67
12.72
13.39
13.86
14.06
13.71
12.48
10.24
7.22
3.96
1.20
-0.40
-0.52
0.71
2.74
4.83
6.26
6.61
5.82
4.20
2.34
0.89
0.40
1.13
2.99
5.58
8.29
10.53
11.84
12.02
11.10
9.33
7.04
4.66
2.64
1.38
1.15
2.00
3.68
5.73
7.62
8.94
9.55
9.59
9.38
9.21
9.22
9.32
9.28
8.82
7.79
6.18
4.17
2.06
0.14
-1.39
-2.45
-3.08
-3.42
-3.58
-3.70
-3.83
-4.02
-4.25
-4.47
-4.59
-4.56
-4.39
-4.17
-4.08
-4.34
-5.07
-6.22
-7.54
-8.65
-9.15
-8.82
-7.63
-5.79
-3.63
-1.46
0.43
1.86
2.77
3.14
3.02
2.52
1.75
0.85
-0.07
-0.98
-1.91
-2.94
-4.06
-5.20
-6.17
-6.78
-6.91
-6.62
-6.12
-5.68
-5.53
-5.72
-6.12
-6.50
-6.57
-6.14
-5.13
-3.62
-1.86
-0.26
0.59
0.17
-1.78
-4.95
-8.49
-11.19
-11.90
-9.95
-5.39
1.01
8.12
14.74
19.93
23.15
24.28
23.52
21.34
18.32
15.06
12.06
9.62
7.87
6.71
6.00
5.48
4.95
4.24
3.33
2.34
1.49
1.05
1.13
1.60
2.12
2.18
1.34
-0.60
-3.51
-6.97
-10.39
-13.21
-15.01
-15.65
-15.14
-13.60
-11.16
-7.94
-4.05
0.29
4.67
8.54
11.30
12.49
12.04
10.23
7.66
4.95
2.54
0.60
-0.90
-2.03
-2.77
-2.98
-2.57
-1.62
-0.43
0.59
1.11
1.01
0.46
-0.29
-1.05
-1.78
-2.58
-3.55
-4.62
-5.63
-6.40
-6.82
-6.99
-7.12
-7.38
-7.78
-8.06
-7.88
-6.87
-4.92
-2.16
1.05
4.24
7.01
9.05
10.22
10.51
10.03
8.99
7.65
6.28
5.06
4.13
3.55
3.30
3.32
3.40
3.28
2.67
1.45
-0.21
-1.80
-2.71
-2.39
-0.72
1.99
5.09
7.86
9.76
10.55
10.25
8.97
6.87
4.13
1.00
-2.15
-4.81
-6.49
-6.89
-5.98
-4.03
-1.55
0.88
2.83
4.05
4.52
4.44
4.04
3.56
3.09
2.62
2.05
1.29
0.32
-0.78
-1.85
-2.74
-3.41
-3.91
-4.38
-4.95
-5.67
-6.47
-7.26
-7.96
-8.61
-9.31
-10.14
-11.09
-12.02
-12.71
-13.06
-13.16
-13.30
-13.83
-14.94
-16.50
-18.07
-19.09
-19.09
-17.85
-15.38
-11.80
-7.20
-1.59
4.92
12.03
19.18
25.63
30.75
34.21
36.16
37.05
37.46
37.78
38.09
38.23
37.97
37.18
35.99
34.63
33.32
32.11
30.83
29.26
27.23
24.78
22.13
19.63
17.49
15.73
14.14
12.36
10.09
7.22
3.90
0.55
-2.38
-4.50
-5.64
-5.84
-5.33
-4.37
-3.22
-2.08
-1.15
-0.60
-0.60
-1.28
-2.70
-4.82
-7.47
-10.40
-13.28
-15.74
-17.52
-18.49
-18.77
-18.64
-18.44
-18.48
-18.92
-19.78
-20.92
-22.15
-23.16
-23.65
-23.29
-21.88
-19.45
-16.27
-12.79
-9.48
-6.60
-4.20
-2.16
-0.35
1.27
2.62
3.67
4.52
5.41
6.67
8.48
10.78
13.23
15.35
16.72
17.11
16.54
15.19
13.29
11.08
8.71
6.28
3.88
1.54
-0.75
-2.99
-5.17
-7.26
-9.15
-10.79
-12.19
-13.48
-14.82
-16.35
-18.02
-19.64
-20.96
-21.79
-22.09
-22.02
-21.82
-21.68
-21.70
-21.84
-22.01
-22.16
-22.25
-22.22
-21.89
-20.97
-19.12
-16.17
-12.25
-7.81
-3.48
0.17
2.82
4.52
5.61
6.49
7.45
8.55
9.66
10.59
11.17
11.38
11.31
11.14
11.06
11.17
11.48
11.91
12.32
12.62
12.74
12.71
12.61
12.46
12.26
11.98
11.58
11.08
10.54
10.04
9.56
8.98
8.14
6.94
5.45
3.89
2.57
1.73
1.43
1.51
1.67
1.63
1.20
0.36
-0.77
-2.05
-3.34
-4.52
-5.50
-6.22
-6.66
-6.82
-6.77
-6.63
-6.51
-6.48
-6.54
-6.67
-6.79
-6.84
-6.79
-6.67
-6.53
-6.50
-6.71
-7.24
-8.04
-8.94
-9.66
-9.95
-9.73
-9.15
-8.49
-8.11
-8.19
-8.76
-9.62
-10.56
-11.32
-11.70
-11.54
-10.76
-9.33
-7.33
-5.02
-2.69
-0.64
0.96
2.08
2.82
3.32
3.69
3.95
4.06
3.98
3.67
3.16
2.54
1.97
1.61
1.62
2.07
2.89
3.89
4.86
5.58
5.97
6.07
5.99
5.90
5.91
6.05
6.33
6.72
7.19
7.75
8.40
9.12
9.84
10.47
10.90
11.06
10.94
10.59
10.10
9.51
8.82
8.04
7.24
6.60
6.39
6.88
8.20
10.21
12.55
14.70
16.19
16.76
16.40
15.38
14.04
12.70
11.49
10.40
9.29
8.07
6.75
5.42
4.28
3.46
2.96
2.67
2.41
2.02
1.49
0.89
0.37
0.02
-0.22
-0.55
-1.25
-2.51
-4.33
-6.50
-8.66
-10.41
-11.54
-12.01
-11.99
-11.76
-11.59
-11.67
-12.04
-12.63
-13.23
-13.55
-13.34
-12.41
-10.76
-8.61
-6.28
-4.17
-2.54
-1.51
-1.01
-0.87
-0.92
-1.04
-1.17
-1.31
-1.47
-1.67
-1.94
-2.32
-2.81
-3.38
-3.94
-4.39
-4.66
-4.79
-4.87
-5.03
-5.30
-5.68
-6.07
-6.39
-6.57
-6.61
-6.54
-6.38
-6.15
-5.83
-5.44
-5.09
-4.91
-5.07
-5.67
-6.77
-8.30
-10.12
-11.95
-13.45
-14.24
-14.03
-12.75
-10.55
-7.79
-4.88
-2.12
0.41
2.82
5.26
7.76
10.20
12.32
13.92
15.01
15.76
16.43
17.24
18.21
19.20
19.95
20.29
20.15
19.64
18.99
18.47
18.30
18.54
19.09
19.73
20.15
20.11
19.52
18.44
17.02
15.44
13.71
11.78
9.55
6.98
4.19
1.37
-1.34
-3.85
-6.26
-8.65
-10.99
-13.06
-14.46
-14.83
-14.01
-12.15
-9.69
-7.19
-5.09
-3.60
-2.68
-2.08
-1.55
-0.93
-0.18
0.61
1.29
1.75
1.90
1.72
1.25
0.60
-0.09
-0.68
-1.06
-1.18
-1.02
-0.63
-0.05
0.65
1.35
1.86
1.97
1.51
0.43
-1.16
-2.94
-4.57
-5.76
-6.38
-6.52
-6.40
-6.32
-6.52
-7.17
-8.36
-10.00
-11.91
-13.75
-15.09
-15.54
-14.88
-13.15
-10.71
-8.03
-5.53
-3.43
-1.73
-0.28
1.01
2.13
2.89
3.14
2.79
1.93
0.73
-0.60
-1.90
-3.10
-4.17
-5.10
-5.90
-6.56
-7.10
-7.54
-7.91
-8.20
-8.45
-8.65
-8.83
-8.97
-9.05
-9.04
-8.93
-8.75
-8.53
-8.31
-8.05
-7.66
-7.01
-6.00
-4.67
-3.18
-1.76
-0.62
0.14
0.56
0.81
1.18
1.94
3.24
5.10
7.34
9.65
11.71
13.25
14.16
14.46
14.25
13.71
12.97
12.15
11.35
10.61
9.94
9.31
8.63
7.82
6.85
5.75
4.64
3.64
2.85
2.31
2.01
1.82
1.62
1.27
0.66
-0.24
-1.39
-2.67
-3.93
-5.03
-5.87
-6.47
-6.93
-7.42
-8.08
-9.01
-10.24
-11.73
-13.39
-15.02
-16.35
-17.00
-16.67
-15.16
-12.59
-9.36
-6.03
-3.17
-1.12
0.05
0.50
0.43
-0.01
-0.79
-1.91
-3.35
-4.94
-6.42
-7.57
-8.20
-8.27
-7.81
-6.95
-5.85
-4.71
-3.71
-2.97
-2.49
-2.21
-1.99
-1.70
-1.25
-0.65
0.08
0.88
1.71
2.51
3.26
3.94
4.52
4.98
5.29
5.41
5.33
5.05
4.61
4.12
3.64
3.26
3.00
2.85
2.81
2.85
2.90
2.89
2.72
2.37
1.90
1.45
1.20
1.26
1.61
2.12
2.67
3.17
3.63
4.10
4.61
5.09
5.40
5.40
5.00
4.23
3.24
2.19
1.17
0.24
-0.61
-1.37
-2.00
-2.45
-2.74
-2.95
-3.25
-3.78
-4.63
-5.74
-6.93
-7.91
-8.39
-8.17
-7.22
-5.70
-3.92
-2.25
-1.00
-0.34
-0.26
-0.62
-1.19
-1.83
-2.48
-3.12
-3.76
-4.38
-4.95
-5.45
-5.93
-6.47
-7.11
-7.79
-8.34
-8.45
-7.87
-6.52
-4.54
-2.27
-0.10
1.64
2.82
3.49
3.81
4.00
4.20
4.51
4.94
5.42
5.85
6.09
6.05
5.69
5.09
4.44
4.03
4.13
4.92
6.43
8.54
11.00
13.54
15.87
17.79
19.14
19.85
19.89
19.31
18.19
16.70
14.98
13.18
11.36
9.53
7.69
5.85
4.05
2.32
0.70
-0.78
-2.13
-3.33
-4.39
-5.30
-6.06
-6.69
-7.19
-7.58
-7.88
-8.08
-8.22
-8.26
-8.17
-7.87
-7.31
-6.52
-5.63
-4.89
-4.48
-4.44
-4.58
-4.60
-4.12
-2.94
-1.08
1.21
3.56
5.65
7.24
8.26
8.70
8.61
8.03
7.03
5.77
4.46
3.34
2.56
2.17
2.07
2.05
1.97
1.72
1.33
0.88
0.47
0.13
-0.15
-0.44
-0.79
-1.28
-1.93
-2.74
-3.67
-4.66
-5.60
-6.45
-7.24
-8.08
-9.14
-10.54
-12.20
-13.81
-14.90
-14.95
-13.61
-10.84
-6.89
-2.24
2.51
6.81
10.26
12.61
13.80
13.96
13.30
12.12
10.65
9.05
7.37
5.64
3.93
2.32
0.85
-0.45
-1.67
-2.92
-4.26
-5.65
-6.95
-8.04
-8.90
-9.64
-10.45
-11.45
-12.61
-13.76
-14.62
-15.03
-14.94
-14.52
-14.04
-13.76
-13.86
-14.36
-15.10
-15.77
-16.01
-15.49
-14.08
-11.87
-9.20
-6.53
-4.28
-2.63
-1.51
-0.65
0.23
1.25
2.27
3.07
3.44
3.38
3.10
2.88
2.92
3.23
3.65
3.97
4.12
4.16
4.27
4.56
5.06
5.62
6.04
6.14
5.82
5.12
4.12
3.00
1.91
1.02
0.46
0.26
0.37
0.61
0.75
0.62
0.18
-0.42
-0.92
-0.99
-0.41
0.89
2.82
5.18
7.71
10.14
12.20
13.69
14.53
14.73
14.41
13.78
12.99
12.11
11.15
10.12
9.11
8.25
7.75
7.73
8.22
9.09
10.18
11.32
12.38
13.31
14.08
14.64
14.89
14.72
14.06
12.89
11.25
9.26
7.09
4.89
2.80
0.88
-0.88
-2.61
-4.51
-6.78
-9.54
-12.75
-16.20
-19.56
-22.52
-24.84
-26.36
-27.04
-26.85
-25.89
-24.38
-22.70
-21.30
-20.55
-20.58
-21.29
-22.37
-23.55
-24.65
-25.66
-26.60
-27.39
-27.88
-27.84
-27.11
-25.65
-23.50
-20.70
-17.22
-13.01
-8.10
-2.67
2.95
8.41
13.42
17.82
21.53
24.46
26.53
27.68
27.94
27.47
26.51
25.27
23.85
22.25
20.43
18.37
16.12
13.76
11.30
8.66
5.72
2.41
-1.16
-4.74
-7.90
-10.19
-11.29
-11.07
-9.68
-7.50
-5.11
-3.04
-1.67
-1.05
-0.91
-0.78
-0.20
1.05
2.94
5.14
7.30
9.17
10.64
11.78
12.68
13.39
13.84
13.93
13.60
12.97
12.27
11.83
11.84
12.32
13.05
13.69
13.95
13.70
12.99
11.98
10.80
9.52
8.10
6.48
4.63
2.56
0.33
-2.01
-4.40
-6.73
-8.80
-10.39
-11.24
-11.15
-10.08
-8.13
-5.50
-2.50
0.55
3.35
5.66
7.35
8.41
8.95
9.13
9.13
9.08
9.07
9.16
9.39
9.76
10.24
10.77
11.23
11.54
11.69
11.71
11.70
11.75
11.89
12.07
12.22
12.31
12.35
12.44
12.64
12.98
13.37
13.69
13.80
13.70
13.44
13.20
13.11
13.20
13.38
13.45
13.28
12.88
12.45
12.26
12.55
13.42
14.70
16.05
17.09
17.50
17.15
16.07
14.40
12.31
9.93
7.36
4.73
2.16
-0.15
-2.04
-3.42
-4.30
-4.86
-5.35
-6.00
-6.93
-8.09
-9.29
-10.29
-10.91
-11.13
-11.07
-10.91
-10.83
-10.88
-11.04
-11.21
-11.36
-11.52
-11.77
-12.23
-12.93
-13.85
-14.85
-15.73
-16.22
-16.11
-15.24
-13.60
-11.37
-8.84
-6.37
-4.26
-2.68
-1.64
-1.05
-0.75
-0.58
-0.45
-0.32
-0.24
-0.29
-0.53
-0.98
-1.56
-2.16
-2.66
-3.02
-3.32
-3.70
-4.31
-5.19
-6.26
-7.40
-8.49
-9.52
-10.48
-11.41
-12.27
-13.03
-13.66
-14.18
-14.72
-15.41
-16.33
-17.36
-18.28
-18.75
-18.51
-17.45
-15.66
-13.43
-11.05
-8.79
-6.80
-5.12
-3.68
-2.36
-1.01
0.49
2.16
3.87
5.34
6.23
6.26
5.33
3.59
1.35
-1.01
-3.23
-5.15
-6.75
-8.00
-8.89
-9.35
-9.38
-9.05
-8.52
-7.95
-7.48
-7.15
-6.97
-6.95
-7.11
-7.46
-7.93
-8.29
-8.25
-7.49
-5.90
-3.58
-0.85
1.85
4.15
5.81
6.74
6.95
6.52
5.59
4.39
3.15
2.11
1.38
0.97
0.77
0.64
0.48
0.26
0.02
-0.16
-0.23
-0.19
-0.10
-0.09
-0.31
-0.87
-1.78
-2.92
-4.02
-4.81
-5.10
-4.92
-4.47
-4.05
-3.90
-4.11
-4.56
-4.97
-5.09
-4.74
-3.88
-2.62
-1.10
0.60
2.39
4.22
5.97
7.45
8.44
8.84
8.67
8.14
7.53
7.06
6.82
6.70
6.57
6.28
5.85
5.39
5.09
5.08
5.43
6.10
6.96
7.83
8.53
8.94
9.05
9.00
8.97
9.13
9.49
9.89
10.11
9.94
9.30
8.24
6.91
5.43
3.91
2.39
0.99
-0.14
-0.82
-0.94
-0.50
0.31
1.20
1.94
2.36
2.45
2.27
1.91
1.43
0.87
0.27
-0.31
-0.76
-1.01
-1.04
-0.91
-0.74
-0.60
-0.53
-0.48
-0.41
-0.28
-0.16
-0.11
-0.24
-0.58
-1.09
-1.69
-2.29
-2.79
-3.15
-3.34
-3.39
-3.35
-3.29
-3.31
-3.50
-3.96
-4.74
-5.83
-7.13
-8.39
-9.31
-9.56
-9.00
-7.65
-5.78
-3.76
-1.96
-0.60
0.35
1.03
1.64
2.28
2.93
3.44
3.71
3.76
3.68
3.61
3.63
3.64
3.47
2.99
2.24
1.42
0.84
0.76
1.21
2.05
2.96
3.67
4.04
4.11
4.00
3.84
3.70
3.61
3.59
3.64
3.69
3.64
3.30
2.50
1.19
-0.58
-2.60
-4.63
-6.40
-7.72
-8.43
-8.48
-7.90
-6.86
-5.60
-4.32
-3.13
-1.95
-0.62
1.00
2.90
4.92
6.78
8.19
8.98
9.08
8.55
7.50
6.07
4.44
2.81
1.31
0.04
-0.94
-1.64
-2.09
-2.37
-2.54
-2.67
-2.81
-2.96
-3.09
-3.18
-3.23
-3.27
-3.33
-3.43
-3.55
-3.67
-3.81
-4.02
-4.36
-4.86
-5.51
-6.26
-7.08
-7.93
-8.77
-9.50
-9.94
-9.81
-8.93
-7.24
-4.91
-2.28
0.27
2.38
3.87
4.71
5.03
4.98
4.76
4.48
4.25
4.12
4.15
4.37
4.81
5.51
6.44
7.52
8.57
9.43
9.93
10.03
9.80
9.39
8.94
8.56
8.27
8.05
7.85
7.67
7.53
7.45
7.45
7.47
7.42
7.24
6.91
6.47
6.03
5.68
5.47
5.35
5.16
4.72
3.88
2.61
1.06
-0.47
-1.63
-2.18
-2.02
-1.26
-0.15
1.02
2.04
2.77
3.17
3.25
3.03
2.53
1.79
0.88
-0.09
-1.06
-2.01
-2.94
-3.91
-4.96
-6.14
-7.48
-8.97
-10.54
-12.01
-13.11
-13.58
-13.29
-12.30
-10.92
-9.55
-8.55
-8.06
-8.02
-8.19
-8.30
-8.23
-8.00
-7.76
-7.70
-7.95
-8.57
-9.54
-10.74
-12.02
-13.17
-13.99
-14.27
-13.87
-12.71
-10.78
-8.19
-5.15
-1.97
1.01
3.53
5.46
6.84
7.88
8.87
10.03
11.46
13.10
14.78
16.29
17.44
18.13
18.32
17.99
17.17
15.91
14.30
12.51
10.76
9.28
8.20
7.51
7.06
6.61
5.94
4.96
3.71
2.33
1.00
-0.20
-1.25
-2.30
-3.48
-4.92
-6.65
-8.60
-10.65
-12.64
-14.40
-15.76
-16.54
-16.62
-15.94
-14.63
-12.86
-10.95
-9.16
-7.66
-6.47
-5.54
-4.71
-3.87
-2.94
-1.92
-0.88
0.10
0.93
1.60
2.15
2.68
3.27
3.97
4.72
5.45
6.08
6.53
6.74
6.64
6.17
5.27
3.96
2.30
0.40
-1.61
-3.63
-5.56
-7.26
-8.61
-9.45
-9.75
-9.60
-9.21
-8.90
-8.94
-9.48
-10.43
-11.53
-12.44
-12.83
-12.52
-11.47
-9.79
-7.68
-5.31
-2.87
-0.48
1.85
4.15
6.51
9.01
11.65
14.33
16.83
18.96
20.55
21.57
22.06
22.12
21.82
21.20
20.33
19.27
18.18
17.22
16.51
16.11
15.94
15.82
15.53
14.90
13.85
12.42
10.73
8.98
7.37
6.09
5.26
4.91
4.96
5.22
5.48
5.52
5.22
4.56
3.63
2.56
1.54
0.70
0.24
0.28
0.91
2.03
3.36
4.50
5.08
4.92
4.15
3.07
2.05
1.36
1.05
1.03
1.15
1.27
1.34
1.36
1.29
1.06
0.55
-0.34
-1.61
-3.18
-4.85
-6.45
-7.86
-9.11
-10.31
-11.62
-13.10
-14.71
-16.33
-17.80
-19.01
-19.94
-20.62
-21.09
-21.41
-21.62
-21.80
-22.04
-22.45
-23.08
-23.88
-24.71
-25.28
-25.29
-24.53
-22.89
-20.48
-17.55
-14.46
-11.51
-8.91
-6.66
-4.69
-2.87
-1.12
0.55
2.14
3.65
5.16
6.75
8.45
10.20
11.83
13.16
14.08
14.57
14.69
14.55
14.23
13.78
13.24
12.59
11.80
10.74
9.26
7.27
4.83
2.17
-0.37
-2.48
-4.01
-4.97
-5.46
-5.60
-5.42
-4.99
-4.42
-3.89
-3.53
-3.33
-3.09
-2.46
-1.20
0.71
3.00
5.21
6.91
7.85
8.00
7.51
6.53
5.18
3.54
1.66
-0.37
-2.39
-4.23
-5.70
-6.66
-6.97
-6.56
-5.47
-3.82
-1.85
0.16
1.97
3.44
4.61
5.62
6.59
7.56
8.43
8.98
8.99
8.34
7.04
5.23
3.15
1.02
-0.95
-2.69
-4.18
-5.51
-6.79
-8.08
-9.38
-10.54
-11.29
-11.36
-10.57
-8.91
-6.53
-3.69
-0.64
2.41
5.34
8.16
10.94
13.78
16.76
19.83
22.74
25.09
26.39
26.28
24.67
21.77
18.05
14.03
10.14
6.59
3.46
0.76
-1.45
-3.03
-3.88
-4.00
-3.53
-2.75
-1.96
-1.32
-0.83
-0.25
0.84
2.85
6.03
10.37
15.46
20.61
24.97
27.75
28.44
26.88
23.34
18.30
12.45
6.45
0.89
-3.81
-7.41
-9.95
-11.71
-13.11
-14.55
-16.24
-18.11
-19.82
-20.95
-21.16
-20.35
-18.71
-16.54
-14.21
-12.02
-10.16
-8.74
-7.83
-7.41
-7.36
-7.43
-7.25
-6.49
-4.94
-2.68
-0.01
2.65
4.89
6.50
7.49
8.03
8.42
8.92
9.70
10.82
12.23
13.78
15.26
16.44
17.10
17.08
16.29
14.73
12.54
9.95
7.20
4.47
1.75
-1.10
-4.26
-7.79
-11.61
-15.44
-18.93
-21.78
-23.76
-24.71
-24.62
-23.57
-21.78
-19.59
-17.41
-15.63
-14.47
-13.99
-14.07
-14.49
-14.92
-15.07
-14.68
-13.64
-12.02
-10.06
-8.09
-6.42
-5.28
-4.73
-4.81
-5.54
-6.95
-9.00
-11.51
-14.17
-16.53
-18.12
-18.53
-17.50
-14.99
-11.20
-6.52
-1.47
3.39
7.65
11.07
13.65
15.54
16.93
17.98
18.77
19.32
19.56
19.42
18.83
17.77
16.26
14.42
12.42
10.43
8.62
7.01
5.54
4.03
2.31
0.29
-2.02
-4.49
-6.91
-9.15
-11.12
-12.91
-14.70
-16.70
-19.06
-21.80
-24.76
-27.60
-29.86
-31.06
-30.89
-29.33
-26.72
-23.68
-20.84
-18.63
-17.12
-16.07
-15.13
-14.02
-12.67
-11.16
-9.60
-8.03
-6.39
-4.66
-2.87
-1.18
0.23
1.31
2.17
2.99
3.95
5.05
6.18
7.17
7.96
8.60
9.22
9.94
10.75
11.51
12.01
12.07
11.61
10.66
9.36
7.95
6.76
6.18
6.54
7.99
10.38
13.23
15.92
17.83
18.63
18.27
17.04
15.30
13.40
11.52
9.77
8.21
6.94
6.09
5.74
5.81
6.12
6.36
6.28
5.73
4.73
3.39
1.83
0.18
-1.49
-3.12
-4.69
-6.20
-7.69
-9.24
-10.90
-12.69
-14.56
-16.44
-18.26
-20.01
-21.64
-23.10
-24.24
-24.84
-24.64
-23.52
-21.53
-18.96
-16.21
-13.70
-11.70
-10.30
-9.44
-8.94
-8.71
-8.66
-8.73
-8.83
-8.84
-8.61
-8.07
-7.24
-6.20
-5.01
-3.71
-2.32
-0.90
0.49
1.72
2.69
3.38
3.86
4.25
4.66
5.16
5.71
6.23
6.63
6.81
6.71
6.34
5.81
5.41
5.53
6.57
8.71
11.84
15.52
19.13
22.12
24.17
25.35
25.94
26.38
26.99
27.96
29.28
30.84
32.45
33.92
35.05
35.67
35.71
35.21
34.36
33.39
32.54
31.93
31.49
31.02
30.31
29.19
27.62
25.73
23.73
21.83
20.16
18.76
17.60
16.52
15.36
13.95
12.13
9.86
7.15
4.12
0.90
-2.40
-5.70
-8.98
-12.22
-15.39
-18.47
-21.42
-24.21
-26.76
-28.95
-30.70
-31.99
-32.92
-33.79
-34.86
-36.27
-37.91
-39.45
-40.48
-40.71
-40.08
-38.80
-37.18
-35.50
-33.89
-32.38
-30.92
-29.49
-28.14
-26.89
-25.74
-24.56
-23.19
-21.56
-19.80
-18.23
-17.26
-17.25
-18.24
-19.96
-21.85
-23.30
-23.84
-23.32
-21.88
-19.94
-17.92
-16.20
-14.89
-13.90
-12.95
-11.72
-9.94
-7.49
-4.51
-1.36
1.47
3.51
4.51
4.51
3.93
3.42
3.63
4.93
7.28
10.19
12.90
14.64
14.93
13.68
11.19
8.00
4.74
1.91
-0.13
-1.31
-1.72
-1.70
-1.67
-2.02
-3.00
-4.52
-6.23
-7.56
-7.94
-7.02
-4.79
-1.62
1.93
5.25
7.92
9.81
10.99
11.71
12.17
12.49
12.66
12.64
12.37
11.84
11.05
10.02
8.71
7.15
5.45
3.83
2.58
1.91
1.79
2.01
2.22
2.15
1.75
1.20
0.73
0.52
0.53
0.60
0.48
-0.01
-0.89
-2.08
-3.40
-4.57
-5.31
-5.25
-4.12
-1.81
1.56
5.57
9.65
13.18
15.65
16.78
16.52
15.07
12.83
10.34
8.21
6.97
6.93
8.11
10.25
12.87
15.49
17.74
19.47
20.71
21.55
22.07
22.29
22.26
22.04
21.79
21.65
21.71
21.88
21.97
21.74
20.98
19.60
17.61
15.15
12.45
9.82
7.57
5.94
5.02
4.69
4.63
4.47
3.89
2.70
0.84
-1.67
-4.81
-8.56
-12.89
-17.80
-23.21
-28.99
-34.80
-40.09
-44.00
-45.57
-44.07
-39.25
-31.61
-22.27
-12.66
-4.07
2.74
7.61
10.88
13.02
14.44
15.32
15.65
15.34
14.36
12.72
10.51
7.86
4.92
1.96
-0.73
-2.78
-3.92
-4.04
-3.31
-2.13
-1.02
-0.52
-0.90
-2.16
-3.94
-5.70
-6.86
-6.97
-5.89
-3.74
-0.91
2.15
5.11
7.82
10.40
13.10
16.14
19.60
23.34
27.01
30.17
32.43
33.50
33.33
32.06
30.02
27.56
24.99
22.46
19.90
17.19
14.20
10.95
7.69
4.79
2.61
1.34
0.86
0.82
0.78
0.42
-0.33
-1.35
-2.38
-3.26
-3.95
-4.54
-5.13
-5.74
-6.27
-6.61
-6.75
-6.80
-6.94
-7.27
-7.72
-8.07
-8.10
-7.76
-7.25
-6.89
-7.02
-7.82
-9.26
-11.17
-13.38
-15.76
-18.17
-20.50
-22.64
-24.52
-26.21
-27.83
-29.45
-30.92
-31.81
-31.64
-30.12
-27.37
-23.96
-20.67
-18.12
-16.62
-16.00
-15.87
-15.74
-15.26
-14.20
-12.50
-10.10
-7.08
-3.61
0.03
3.45
6.29
8.34
9.60
10.24
10.56
10.85
11.31
11.99
12.82
13.59
14.10
14.15
13.64
12.59
11.18
9.60
8.07
6.69
5.42
4.12
2.62
0.86
-1.10
-3.03
-4.61
-5.53
-5.55
-4.54
-2.56
0.23
3.54
7.05
10.45
13.58
16.38
18.91
21.19
23.18
24.70
25.58
25.70
25.09
23.91
22.34
20.52
18.49
16.26
13.93
11.72
9.96
8.93
8.72
9.14
9.79
10.20
9.97
8.89
6.95
4.27
1.03
-2.56
-6.30
-9.97
-13.31
-16.10
-18.15
-19.39
-19.76
-19.24
-17.83
-15.55
-12.53
-9.08
-5.55
-2.33
0.38
2.59
4.45
6.12
7.67
9.02
10.02
10.59
10.83
10.98
11.31
12.00
13.04
14.25
15.36
16.17
16.71
17.16
17.81
18.84
20.23
21.77
23.12
23.97
24.21
23.89
23.15
22.09
20.70
18.89
16.58
13.82
10.80
7.89
5.52
4.06
3.75
4.62
6.47
8.96
11.66
14.19
16.24
17.66
18.39
18.46
17.94
16.87
15.26
13.09
10.33
7.03
3.32
-0.59
-4.47
-8.09
-11.29
-13.97
-16.08
-17.61
-18.58
-19.15
-19.50
-19.90
-20.53
-21.44
-22.53
-23.61
-24.54
-25.31
-26.07
-27.02
-28.35
-30.08
-32.09
-34.08
-35.72
-36.68
-36.70
-35.70
-33.75
-31.06
-27.91
-24.58
-21.26
-18.10
-15.21
-12.79
-11.08
-10.29
-10.45
-11.30
-12.31
-12.86
-12.46
-10.94
-8.48
-5.48
-2.39
0.45
2.87
4.76
6.02
6.58
6.44
5.73
4.78
3.99
3.70
4.05
4.95
6.17
7.44
8.57
9.45
10.07
10.45
10.70
10.98
11.51
12.48
13.91
15.62
17.32
18.67
19.47
19.68
19.42
18.80
17.86
16.58
14.88
12.82
10.53
8.30
6.41
5.03
4.22
3.86
3.77
3.74
3.62
3.39
3.08
2.79
2.61
2.60
2.73
2.92
3.05
3.02
2.80
2.49
2.28
2.37
2.93
4.02
5.60
7.55
9.72
12.03
14.42
16.94
19.68
22.78
26.31
30.17
33.97
37.04
38.56
37.84
34.58
29.04
22.01
14.61
7.94
2.83
-0.38
-1.84
-2.15
-2.12
-2.61
-4.31
-7.59
-12.39
-18.29
-24.61
-30.59
-35.53
-38.92
-40.56
-40.55
-39.30
-37.48
-35.81
-34.83
-34.73
-35.21
-35.65
-35.28
-33.53
-30.18
-25.42
-19.79
-13.93
-8.44
-3.74
-0.03
2.68
4.54
5.80
6.73
7.54
8.35
9.14
9.80
10.20
10.26
10.01
9.59
9.13
8.69
8.21
7.54
6.56
5.34
4.09
3.09
2.52
2.25
1.88
0.84
-1.35
-4.91
-9.65
-15.11
-20.61
-25.48
-29.09
-31.01
-31.08
-29.59
-27.24
-25.06
-24.04
-24.75
-27.02
-30.06
-32.69
-33.91
-33.26
-30.93
-27.62
-24.19
-21.37
-19.60
-18.95
-19.13
-19.61
-19.69
-18.76
-16.50
-13.04
-8.90
-4.80
-1.34
1.19
2.82
3.75
4.24
4.50
4.78
5.44
6.96
9.72
13.78
18.74
23.78
27.92
30.42
30.91
29.47
26.45
22.34
17.61
12.84
8.76
6.27
6.22
9.17
15.19
23.87
34.48
46.22
58.28
69.86
79.99
87.56
91.48
91.08
86.40
78.39
68.63
58.92
50.73
44.86
41.35
39.69
39.25
39.64
40.86
43.22
46.95
51.84
57.02
61.07
62.41
59.85
52.99
42.33
29.01
14.45
-0.15
-14.04
-26.96
-39.14
-51.17
-63.64
-76.62
-89.37
-100.34
-107.63
-109.74
-106.11
-97.44
-85.30
-71.40
-56.83
-41.73
-25.59
-8.13
9.87
26.23
37.80
41.58
36.04
21.79
1.63
-20.34
-39.85
-53.44
-58.84
-55.26
-43.49
-26.23
-8.05
5.66
10.54
5.13
-8.25
-24.24
-36.61
-40.82
-35.58
-22.91
-6.83
8.23
18.76
22.73
19.85
11.51
0.62
-9.11
-14.30
-13.18
-6.25
4.02
14.40
22.14
25.83
25.46
21.92
16.32
9.71
2.92
-3.30
-8.38
-11.99
-14.19
-15.36
-15.94
-16.27
-16.40
-16.18
-15.45
-14.15
-12.45
-10.70
-9.26
-8.36
-7.96
-7.77
-7.35
-6.38
-4.94
-3.61
-3.32
-5.00
-9.19
-15.72
-23.78
-32.09
-39.27
-44.13
-46.02
-44.87
-41.26
-36.11
-30.40
-24.71
-19.08
-13.12
-6.50
0.55
7.04
11.47
12.52
9.71
3.67
-4.02
-11.52
-17.30
-20.51
-20.91
-18.63
-13.89
-6.91
2.02
12.38
23.27
33.46
41.42
45.71
45.28
39.95
30.57
18.98
7.53
-1.69
-7.47
-9.91
-10.15
-9.78
-9.99
-11.13
-12.55
-13.05
-11.55
-7.65
-1.93
4.27
9.36
12.28
12.95
12.44
12.58
15.32
22.04
32.91
46.70
60.90
72.29
77.84
75.79
66.36
51.97
36.41
23.47
15.33
11.71
10.20
7.67
2.02
-6.65
-16.22
-23.77
-27.30
-26.68
-23.55
-20.27
-18.66
-19.22
-21.21
-23.35
-24.60
-24.50
-23.25
-21.41
-19.68
-18.82
-19.57
-22.51
-27.84
-35.12
-43.36
-51.38
-58.20
-63.55
-67.93
-72.47
-78.49
-86.93
-97.76
-109.59
-119.60
-124.09
-119.59
-104.19
-78.62
-46.49
-13.50
14.24
32.17
38.65
35.30
26.15
16.13
9.33
7.92
11.87
19.39
27.82
34.51
37.54
36.06
30.46
22.33
14.14
8.66
8.06
13.10
22.62
33.94
44.00
50.72
53.91
55.29
57.59
63.30
73.72
88.67
106.77
125.98
143.87
157.77
164.97
163.03
150.54
127.63
96.21
59.71
22.43
-11.32
-38.04
-55.70
-64.24
-65.42
-62.24
-57.92
-54.85
-54.03
-55.10
-57.10
-59.21
-61.17
-63.28
-65.85
-68.90
-72.06
-74.83
-77.06
-78.96
-81.10
-83.83
-87.00
-89.77
-90.88
-89.03
-83.37
-73.71
-60.51
-44.73
-27.64
-10.72
4.50
16.73
25.34
30.79
34.51
38.25
43.06
48.56
53.05
54.40
51.40
44.54
35.89
28.05
22.85
20.65
20.46
20.83
20.77
20.11
19.26
18.66
18.41
18.39
18.57
19.23
20.80
23.39
26.36
28.39
28.03
24.54
18.51
11.79
6.71
5.04
7.11
11.65
16.38
19.04
18.29
14.10
7.39
-0.59
-8.91
-17.10
-24.89
-31.77
-36.87
-39.15
-38.10
-34.19
-28.72
-23.19
-18.45
-14.27
-9.74
-4.17
2.13
7.79
11.22
11.63
9.72
7.34
6.37
7.57
10.07
12.00
11.63
8.41
3.23
-2.24
-6.60
-9.51
-11.67
-14.17
-17.66
-21.84
-25.62
-27.80
-27.82
-26.15
-24.08
-22.99
-23.59
-25.37
-26.73
-25.46
-19.69
-8.59
7.24
25.82
44.39
60.08
70.55
74.30
70.71
60.06
43.53
23.13
1.60
-18.03
-33.14
-42.17
-44.95
-42.61
-36.98
-30.01
-23.14
-17.09
-11.86
-6.97
-1.80
4.13
10.80
17.70
24.08
29.37
33.63
37.55
41.87
46.67
50.91
52.74
50.48
43.86
34.46
25.26
19.18
17.50
19.08
20.85
19.31
12.37
0.31
-14.30
-27.82
-37.13
-40.80
-39.35
-34.42
-27.69
-19.88
-10.52
1.38
16.51
34.70
55.08
76.67
98.69
120.22
139.45
153.39
158.71
153.68
139.81
121.79
105.29
93.78
86.29
77.94
63.17
39.60
10.16
-18.01
-37.25
-43.28
-37.15
-24.06
-10.40
-0.58
4.17
5.31
5.05
4.71
4.07
1.68
-4.06
-13.97
-27.53
-42.98
-57.88
-70.02
-78.27
-82.90
-85.39
-87.60
-90.77
-94.82
-98.39
-99.65
-97.34
-91.59
-83.99
-76.85
-72.08
-70.19
-69.95
-68.76
-63.63
-52.23
-33.71
-9.08
19.01
46.90
70.79
87.39
94.59
91.78
80.03
61.82
40.37
18.82
-0.53
-16.29
-27.65
-33.78
-33.62
-26.37
-12.29
6.75
27.60
46.98
62.63
73.85
80.91
83.84
81.83
73.61
58.93
39.65
19.70
3.51
-6.22
-9.86
-10.49
-11.99
-16.86
-25.08
-34.73
-43.55
-50.48
-56.09
-61.76
-68.52
-76.14
-83.33
-88.47
-90.63
-89.92
-87.21
-83.54
-79.44
-74.63
-68.04
-58.18
-43.78
-24.55
-1.79
21.36
40.52
51.21
50.19
36.57
12.08
-19.39
-52.82
-83.37
-107.34
-122.62
-128.70
-126.18
-116.31
-100.58
-80.64
-58.35
-35.67
-14.23
5.25
23.22
41.03
59.87
79.65
98.55
113.58
122.05
122.87
117.14
107.46
96.50
85.91
75.83
65.60
54.62
43.08
31.82
21.68
12.67
3.76
-6.60
-19.48
-34.54
-49.95
-63.09
-71.86
-75.79
-76.32
-75.99
-77.03
-79.97
-83.04
-82.74
-75.29
-58.46
-32.71
-1.28
30.87
58.75
78.75
89.27
90.51
83.58
69.78
50.26
26.32
-0.16
-26.68
-50.47
-69.20
-81.62
-87.71
-88.34
-84.76
-77.95
-68.39
-55.94
-40.02
-19.95
4.52
32.72
62.74
91.53
115.60
131.93
138.87
136.49
126.37
110.98
92.90
74.45
57.47
43.22
32.20
23.89
16.84
9.12
-0.76
-13.03
-26.40
-38.69
-47.90
-53.42
-56.38
-59.32
-64.92
-74.68
-88.04
-102.35
-113.67
-118.05
-112.79
-97.24
-73.00
-43.40
-12.68
14.75
35.01
45.28
44.24
32.53
13.04
-9.34
-28.76
-39.84
-39.29
-26.82
-4.99
21.82
48.99
73.01
92.21
106.71
117.76
126.72
134.07
138.77
138.40
130.06
111.88
84.46
51.19
17.44
-11.39
-31.78
-43.08
-46.89
-45.66
-41.49
-36.07
-31.35
-30.06
-35.14
-48.17
-67.67
-88.95
-105.75
-113.07
-109.46
-97.61
-82.73
-69.99
-62.40
-60.14
-61.41
-63.90
-65.98
-67.10
-67.43
-67.19
-66.36
-64.53
-61.16
-56.00
-49.19
-41.12
-31.99
-21.32
-8.00
9.32
31.29
57.09
84.07
108.24
125.45
132.66
129.08
116.40
98.36
79.63
64.43
55.41
53.09
56.01
61.54
66.90
70.01
69.93
66.74
61.10
53.70
45.00
35.15
24.26
12.65
1.01
-9.75
-18.69
-25.18
-29.10
-30.81
-30.91
-29.96
-28.20
-25.47
-21.38
-15.62
-8.31
-0.22
7.22
12.35
13.77
11.06
5.14
-1.70
-6.45
-6.20
0.93
15.42
36.37
61.74
88.77
114.23
134.84
147.88
151.91
147.49
137.23
125.14
115.13
109.72
109.26
112.48
117.66
123.76
130.74
138.82
147.52
154.92
158.17
154.70
143.65
126.49
106.59
87.70
72.40
61.37
53.76
48.46
45.11
44.32
46.71
51.74
56.75
57.29
48.59
27.49
-6.04
-48.41
-93.45
-134.02
-163.91
-178.98
-177.89
-162.01
-134.93
-101.57
-67.07
-35.62
-9.71
9.77
23.00
30.53
32.87
30.59
24.75
17.03
9.33
3.33
-0.08
-0.94
0.06
2.00
4.00
5.43
5.89
4.97
2.28
-2.66
-10.24
-20.74
-34.05
-49.69
-66.82
-84.19
-100.25
-113.42
-122.40
-126.56
-126.03
-121.53
-114.00
-104.05
-91.77
-77.05
-60.62
-44.75
-33.09
-29.27
-34.78
-47.51
-62.10
-71.97
-72.26
-62.07
-44.75
-26.34
-12.74
-7.24
-9.43
-15.72
-21.14
-21.43
-14.50
-0.79
17.20
36.09
52.78
65.32
73.25
77.37
79.18
80.24
81.59
83.58
85.97
88.46
91.11
94.78
100.99
111.47
127.66
150.33
179.47
214.40
253.63
294.76
334.22
367.52
389.95
397.91
389.94
367.35
333.89
294.56
254.34
216.91
184.12
156.05
131.52
108.79
86.17
62.59
37.87
12.82
-11.08
-32.39
-50.45
-65.86
-80.41
-96.49
-116.04
-139.70
-166.55
-194.40
-220.73
-243.77
-263.15
-280.15
-297.48
-318.69
-346.93
-383.31
-425.19
-465.61
-494.18
-499.94
-475.21
-418.80
-337.29
-243.44
-152.54
-78.08
-28.71
-7.30
-11.69
-36.50
-74.69
-118.65
-160.98
-195.62
-218.90
-230.62
-234.02
-234.79
-239.48
-253.60
-280.58
-321.18
-373.17
-431.18
-487.05
-531.03
-554.31
-551.93
-524.74
-479.16
-424.58
-369.66
-319.36
-274.22
-231.90
-189.89
-147.47
-105.85
-66.96
-31.68
0.97
33.49
68.44
107.18
149.35
193.13
236.29
276.73
312.55
341.56
360.94
367.66
359.66
337.24
303.53
263.85
223.99
188.60
160.33
140.01
127.34
121.41
120.64
122.53
123.73
120.85
111.77
96.72
78.53
61.97
52.01
51.97
62.14
79.51
98.73
114.06
121.53
120.39
113.10
103.73
95.78
90.51
86.70
81.90
74.15
63.16
50.19
36.99
24.63
12.95
1.09
-11.57
-24.58
-36.35
-44.81
-48.57
-47.67
-43.90
-40.33
-40.10
-45.14
-55.19
-67.81
-79.36
-86.70
-88.54
-85.98
-81.68
-78.27
-77.02
-77.66
-78.09
-75.17
-65.76
-47.51
-18.96
20.59
70.72
129.11
190.41
247.17
291.65
318.18
324.98
314.84
294.12
270.49
250.21
235.36
225.36
218.89
215.36
214.78
216.92
220.39
222.19
218.31
201.91
169.25
122.38
68.58
16.75
-25.23
-51.63
-59.18
-47.58
-26.23
-5.28
8.96
14.61
11.28
-1.17
-21.78
-48.09
-76.94
-115.97
-170.16
-236.00
-302.82
-360.66
-404.69
-434.80
-453.86
-466.33
-490.70
-540.14
-614.34
-701.53
-789.11
-870.03
-942.65
-1008.38
-984.88
-834.35
-588.62
-325.00
-103.28
57.48
163.96
231.55
276.64
314.00
341.84
358.25
367.05
375.58
386.90
398.13
405.31
407.59
407.59
398.68
376.40
343.02
306.27
273.06
246.51
227.40
215.82
211.63
207.76
198.87
184.60
168.85
155.26
145.01
137.73
133.17
131.59
130.19
127.22
123.40
121.32
122.71
126.48
128.49
122.53
102.61
64.96
12.45
-44.68
-92.11
-117.63
-116.46
-92.83
-57.40
-22.49
2.85
15.65
18.33
16.17
14.20
14.99
18.12
21.21
21.50
15.78
3.79
-12.10
-27.57
-38.00
-40.18
-33.16
-18.05
2.97
27.21
51.85
73.43
88.34
94.65
94.18
93.12
100.23
122.94
163.32
216.52
272.03
317.95
345.57
351.94
339.68
314.38
281.51
244.50
204.70
162.08
116.45
68.30
19.04
-28.90
-72.31
-107.87
-133.40
-148.99
-157.70
-164.67
-175.09
-191.97
-214.78
-239.74
-261.80
-276.80
-282.91
-280.59
-271.61
-258.02
-241.95
-225.88
-212.79
-205.58
-205.62
-211.56
-219.01
-221.65
-213.54
-191.32
-155.50
-110.20
-61.44
-15.17
24.27
54.65
75.45
87.19
91.05
89.02
84.05
79.84
79.68
85.08
94.96
106.12
115.05
120.07
122.30
124.80
130.36
139.33
149.01
155.06
153.94
144.77
129.77
112.89
97.91
86.97
80.20
76.31
73.42
69.68
63.36
52.93
36.97
14.37
-15.16
-50.69
-89.70
-128.27
-161.81
-186.36
-199.92
-203.25
-199.45
-192.61
-186.25
-182.13
-180.25
-179.49
-178.39
-175.61
-169.92
-160.25
-145.96
-127.35
-105.90
-83.72
-62.43
-42.05
-20.86
3.56
32.60
65.14
97.53
124.83
142.87
149.78
146.33
135.19
119.68
102.72
86.56
72.78
62.40
55.64
51.69
48.83
44.95
38.60
29.71
19.80
11.31
6.53
6.61
11.29
19.25
28.91
39.13
49.46
59.97
70.72
81.45
91.45
99.67
105.09
106.90
104.68
98.58
89.30
78.09
66.56
56.15
47.59
40.45
33.17
23.73
10.61
-6.41
-26.03
-45.87
-63.39
-76.62
-84.54
-86.94
-84.20
-77.34
-68.06
-58.67
-51.51
-47.97
-47.51
-47.48
-44.10
-34.20
-16.88
5.78
29.42
49.18
61.59
65.70
62.96
56.14
48.01
40.41
34.21
29.69
27.15
27.10
29.98
35.62
42.82
49.39
52.61
50.04
40.45
24.26
3.52
-18.66
-39.11
-55.51
-67.04
-74.30
-78.66
-81.33
-82.74
-82.38
-79.35
-73.12
-64.08
-53.58
-43.35
-34.76
-28.18
-23.06
-18.25
-12.69
-5.86
1.99
10.15
17.75
24.20
29.33
33.33
36.60
39.51
42.28
45.05
47.86
50.72
53.51
55.87
57.19
56.58
53.17
46.41
36.21
23.07
7.96
-7.93
-23.44
-37.56
-49.53
-59.00
-65.94
-70.68
-73.77
-75.83
-77.36
-78.69
-79.84
-80.67
-80.90
-80.17
-78.06
-74.18
-68.29
-60.47
-51.24
-41.52
-32.41
-24.81
-19.25
-15.76
-14.00
-13.47
-13.68
-14.21
-14.59
-14.39
-13.28
-11.14
-8.19
-4.87
-1.63
1.33
3.97
6.21
7.66
7.48
4.61
-1.84
-11.99
-25.13
-39.70
-53.77
-65.46
-73.19
-75.87
-72.84
-64.06
-50.23
-32.94
-14.49
2.56
16.12
25.16
29.92
31.57
31.47
30.54
28.90
26.08
21.53
15.31
8.29
2.03
-1.80
-1.98
2.01
10.07
21.73
36.26
52.51
68.66
82.16
90.19
90.64
83.10
69.28
52.55
36.70
24.57
17.28
14.38
14.70
17.30
22.00
29.16
38.99
50.95
63.55
74.66
82.26
85.05
82.70
75.71
64.94
51.17
34.94
16.74
-2.63
-21.78
-38.69
-51.11
-56.92
-54.66
-43.70
-24.33
2.38
34.69
70.26
106.37
140.00
168.11
187.84
196.89
193.82
178.60
153.00
120.59
86.30
55.20
31.09
15.38
6.99
3.20
1.13
-0.87
-2.80
-3.45
-1.54
3.35
10.52
18.62
26.55
34.05
41.61
49.84
58.70
67.07
73.18
75.36
73.02
67.05
59.65
53.41
50.28
50.82
53.99
57.65
59.43
57.59
51.54
41.78
29.54
16.26
3.19
-8.80
-19.20
-27.76
-34.47
-39.48
-43.08
-45.53
-46.91
-46.96
-45.14
-40.79
-33.59
-23.81
-12.39
-0.79
9.51
17.34
22.08
23.59
22.00
17.50
10.31
0.90
-10.00
-21.47
-32.74
-43.61
-54.62
-66.79
-80.93
-96.92
-113.32
-127.62
-137.16
-140.19
-136.58
-127.84
-116.49
-105.21
-96.13
-90.54
-89.05
-91.74
-98.22
-107.61
-118.55
-129.32
-138.28
-144.24
-146.44
-144.34
-137.12
-123.41
-101.67
-70.93
-31.91
12.41
56.91
95.38
122.13
133.63
129.45
112.30
87.04
59.19
33.56
13.28
-0.30
-7.35
-8.97
-6.66
-2.05
3.39
8.46
12.35
14.64
15.20
13.95
10.66
5.04
-3.08
-13.48
-25.31
-37.22
-47.59
-54.90
-58.08
-56.64
-50.80
-41.44
-30.04
-18.39
-8.20
-0.70
3.74
5.62
6.00
6.05
6.60
8.00
10.13
12.71
15.49
18.43
21.65
25.40
29.76
34.49
38.86
41.75
41.92
38.48
31.25
20.93
8.82
-3.59
-15.10
-24.98
-32.93
-38.87
-42.82
-44.87
-45.38
-44.96
-44.37
-44.16
-44.40
-44.68
-44.42
-43.40
-42.04
-41.22
-41.67
-43.28
-44.82
-44.42
-40.49
-32.76
-22.71
-13.03
-6.49
-4.67
-7.30
-12.46
-17.58
-20.58
-20.64
-18.24
-14.66
-11.24
-8.82
-7.66
-7.63
-8.56
-10.47
-13.53
-17.97
-23.78
-30.49
-37.31
-43.24
-47.42
-49.45
-49.56
-48.62
-48.01
-49.32
-54.01
-63.04
-76.56
-93.70
-112.62
-130.83
-145.96
-156.54
-162.19
-163.32
-160.58
-154.17
-143.69
-128.20
-106.55
-77.90
-42.22
-0.55
44.63
89.44
129.23
159.96
180.65
195.05
211.22
238.35
282.49
342.76
410.58
472.40
514.63
529.11
515.68
480.73
432.92
379.33
323.37
265.52
205.47
143.81
83.16
27.38
-20.39
-59.65
-91.98
-119.80
-143.51
-159.26
-162.99
-153.88
-134.46
-108.73
-81.36
-56.16
-35.79
-21.36
-12.54
-8.21
-6.71
-6.27
-5.72
-5.96
-8.12
-13.25
-21.89
-33.97
-49.15
-66.73
-85.62
-100.49
-110.58
-116.43
-118.92
-118.85
-116.86
-113.58
-109.46
-104.44
-98.63
-92.74
-87.07
-81.65
-76.42
-71.47
-67.08
-63.54
-60.65
-58.25
-56.36
-54.60
-52.13
-48.19
-42.46
-35.08
-28.28
-21.04
-12.88
-3.52
7.25
19.93
34.52
50.13
65.05
77.24
85.27
88.14
85.85
78.80
68.13
54.92
39.52
21.73
1.24
-21.89
-47.86
-73.06
-97.87
-121.90
-142.66
-155.43
-154.79
-137.22
-103.49
-59.63
-14.80
21.46
43.91
52.51
51.41
45.83
39.81
34.93
30.85
27.01
23.32
20.95
20.66
21.40
20.21
13.81
0.58
-17.75
-36.34
-49.86
-54.54
-50.42
-41.14
-31.95
-26.94
-27.44
-31.88
-37.39
-41.76
-44.07
-44.57
-43.80
-41.92
-38.50
-33.04
-25.64
-16.28
-5.94
4.36
13.73
21.71
28.27
33.68
38.23
41.98
44.77
46.15
45.74
43.43
39.50
34.56
29.31
24.31
19.83
15.80
11.93
7.88
3.44
-1.42
-6.55
-11.74
-16.85
-21.90
-27.04
-32.34
-37.92
-43.80
-49.94
-56.20
-62.46
-68.62
-74.68
-80.69
-86.51
-92.08
-97.42
-102.59
-107.65
-112.70
-117.82
-123.07
-128.55
-133.94
-139.02
-143.60
-147.49
-150.40
-151.94
-151.50
-148.11
-143.29
-137.43
-130.81
-123.67
-116.23
-108.72
-101.28
-93.96
-86.73
-79.55
-72.06
-64.16
-55.98
-47.83
-40.06
-32.86
-26.20
-19.81
-13.30
-6.07
2.08
10.99
20.17
29.06
37.35
45.14
52.98
61.61
71.82
83.90
97.53
112.00
126.46
140.35
153.64
166.78
180.63
196.36
215.07
237.49
263.42
291.19
317.54
338.18
348.95
347.36
333.55
310.38
282.34
254.04
228.87
208.35
192.49
180.48
171.36
164.35
158.72
153.62
147.96
140.60
130.66
117.74
101.99
84.17
65.38
46.77
29.27
13.38
-0.83
-13.60
-25.18
-35.53
-44.28
-50.87
-54.91
-56.44
-56.11
-54.96
-53.96
-53.74
-54.32
-55.37
-56.47
-57.40
-58.24
-59.19
-60.22
-61.04
-61.00
-59.44
-55.99
-50.74
-44.28
-37.46
-31.15
-25.99
-22.25
-19.85
-18.40
-17.41
-16.41
-15.12
-13.51
-11.86
-10.56
-9.96
-10.21
-11.12
-12.32
-13.38
-14.09
-14.45
-14.71
-15.13
-15.84
-16.77
-17.63
-18.17
-18.24
-17.95
-17.63
-17.65
-18.30
-19.53
-20.96
-21.92
-21.70
-19.77
-16.06
-10.96
-5.24
0.24
4.74
7.83
9.40
9.54
8.47
6.50
3.97
1.29
-1.13
-2.94
-3.94
-4.14
-3.66
-2.69
-1.44
-0.10
1.13
2.05
2.49
2.37
1.77
0.94
0.21
-0.17
-0.06
0.41
1.01
1.45
1.50
1.09
0.32
-0.56
-1.17
-1.12
-0.10
2.02
5.08
8.65
12.06
14.64
15.85
15.48
13.63
10.68
7.07
3.22
-0.55
-3.93
-6.58
-8.11
-8.22
-6.85
-4.32
-1.33
1.23
2.54
2.14
0.00
-3.45
-7.56
-11.58
-14.92
-17.15
-18.12
-17.92
-16.79
-15.13
-13.37
-11.96
-11.27
-11.47
-12.42
-13.63
-14.38
-13.89
-11.63
-7.59
-2.31
3.25
7.99
11.07
12.09
11.12
8.59
5.07
1.12
-2.78
-6.19
-8.78
-10.29
-10.65
-9.99
-8.62
-6.90
-5.14
-3.49
-2.05
-0.87
-0.08
0.20
-0.11
-0.96
-2.12
-3.34
-4.41
-5.25
-5.90
-6.47
-7.05
-7.72
-8.52
-9.45
-10.40
-11.14
-11.26
-10.25
-7.68
-3.38
2.43
9.07
15.63
21.12
24.76
26.15
25.29
22.54
18.48
13.67
8.60
3.66
-0.88
-4.78
-7.84
-9.93
-11.05
-11.35
-11.16
-10.85
-10.78
-11.10
-11.77
-12.60
-13.47
-14.42
-15.70
-17.65
-20.47
-24.05
-27.99
-31.76
-35.03
-37.71
-39.94
-41.81
-43.08
-43.13
-41.19
-36.75
-29.81
-21.00
-11.38
-2.04
6.21
12.98
18.23
22.09
24.68
26.04
26.26
25.53
24.21
22.89
22.15
22.42
23.82
26.03
28.42
30.28
31.07
30.72
29.55
28.19
27.20
26.77
26.58
25.95
24.16
20.87
16.40
11.69
7.88
5.83
5.61
6.51
7.29
6.89
5.02
2.35
0.27
0.27
3.32
9.58
18.44
28.66
38.42
45.27
46.28
38.62
20.63
-7.06
-40.99
-75.40
-103.89
-121.26
-125.08
-115.94
-96.65
-70.87
-41.91
-12.54
14.51
35.89
47.69
46.52
31.20
4.09
-28.90
-59.85
-81.54
-89.82
-84.74
-69.88
-50.41
-30.96
-14.27
-1.14
8.76
15.96
20.68
22.99
23.20
22.15
21.12
21.41
23.75
28.00
33.22
38.09
41.41
42.59
41.75
39.56
36.93
34.60
32.96
32.00
31.39
30.64
29.23
26.70
22.72
17.15
10.03
1.63
-7.58
-16.97
-25.77
-33.22
-38.61
-41.40
-41.39
-38.80
-34.31
-28.92
-23.75
-19.71
-17.29
-16.60
-17.37
-19.12
-21.24
-23.03
-23.68
-22.47
-18.98
-13.32
-6.30
0.80
6.68
10.42
11.83
11.34
9.68
7.56
5.41
3.45
1.85
0.87
0.85
1.99
4.22
7.11
10.02
12.36
13.85
14.57
14.88
15.10
15.39
15.58
15.32
14.28
12.34
9.65
6.56
3.42
0.45
-2.36
-5.14
-8.06
-11.18
-14.38
-17.34
-19.57
-20.48
-19.55
-16.47
-11.29
-4.50
3.04
10.29
16.27
20.28
22.07
21.77
19.80
16.74
13.18
9.70
6.78
4.75
3.78
3.80
4.54
5.60
6.60
7.26
7.46
7.27
6.81
6.16
5.34
4.23
2.72
0.79
-1.47
-3.83
-6.04
-7.90
-9.40
-10.65
-11.88
-13.29
-15.03
-17.15
-19.56
-21.94
-23.81
-24.52
-23.57
-20.82
-16.60
-11.64
-6.81
-2.73
0.31
2.31
3.31
3.20
1.79
-0.83
-4.26
-7.84
-10.84
-12.89
-14.11
-15.03
-16.34
-18.46
-20.86
-22.73
-23.25
-22.06
-19.43
-16.12
-13.03
-10.94
-10.34
-10.48
-10.54
-9.96
-8.75
-7.45
-6.76
-7.00
-7.69
-7.58
-3.34
8.04
28.29
57.11
92.09
129.70
166.53
200.37
230.49
259.23
288.95
321.06
355.44
390.83
425.90
460.23
494.53
516.33
515.26
483.29
418.39
326.39
219.16
110.09
9.86
-75.60
-144.95
-197.96
-235.88
-260.56
-274.12
-279.15
-278.47
-274.65
-269.51
-264.01
-256.97
-247.05
-233.49
-216.70
-198.25
-180.36
-165.03
-153.40
-145.59
-139.95
-134.56
-127.88
-119.23
-108.95
-98.03
-87.63
-78.67
-71.72
-66.59
-62.93
-60.37
-58.57
-57.22
-56.02
-54.43
-51.69
-46.86
-38.80
-26.84
-11.28
6.30
23.14
36.06
42.45
41.29
33.41
21.15
7.42
-5.23
-15.31
-22.36
-26.61
-28.51
-28.37
-26.34
-22.69
-17.91
-12.90
-8.77
-6.43
-6.15
-7.39
-8.90
-9.30
-7.65
-3.91
1.01
5.54
8.05
7.49
3.59
-2.79
-10.06
-16.27
-19.59
-19.07
-15.08
-9.36
-4.32
-2.24
-4.08
-8.82
-13.95
-16.11
-12.54
-2.03
14.42
33.71
51.30
62.49
63.85
54.48
36.78
15.67
-3.18
-15.48
-19.71
-17.21
-10.95
-3.76
2.59
7.91
12.39
15.58
15.98
11.64
1.42
-14.17
-31.78
-48.64
-61.85
-70.09
-73.84
-75.10
-76.27
-78.95
-83.43
-89.02
-95.05
-100.87
-105.82
-108.44
-106.14
-95.84
-75.63
-46.30
-11.79
21.82
48.98
66.51
74.34
74.82
70.96
65.12
58.63
52.38
47.42
45.66
49.04
58.17
71.25
83.78
89.86
84.29
65.39
36.15
3.69
-23.69
-40.03
-43.99
-38.75
-29.71
-21.39
-14.99
-9.77
-3.57
4.73
14.13
22.07
26.05
25.28
21.06
15.92
12.14
10.59
10.31
8.83
3.52
-7.39
-24.30
-46.37
-71.74
-96.97
-118.20
-130.91
-131.34
-118.24
-93.95
-64.11
-35.68
-14.16
-1.65
3.37
4.50
5.02
6.43
8.30
9.56
9.74
9.53
10.26
12.81
17.04
21.79
25.57
27.23
26.68
24.80
22.96
22.41
23.72
26.71
30.53
34.12
36.61
37.67
37.46
36.57
35.63
35.14
35.36
36.28
37.69
39.24
40.60
41.53
42.02
42.21
42.35
42.75
43.66
45.18
47.32
50.21
54.04
58.71
63.40
66.44
65.74
59.71
48.34
33.46
18.38
6.48
-0.25
-2.03
-0.91
0.23
-0.96
-5.56
-13.51
-23.86
-35.29
-46.32
-55.46
-61.17
-62.17
-57.80
-47.29
-31.53
-12.61
6.62
23.37
35.75
43.35
47.41
50.18
53.81
59.08
65.21
70.42
73.06
72.74
70.39
67.34
63.91
58.36
47.09
26.36
-5.65
-47.62
-95.17
-142.42
-183.85
-215.63
-235.87
-244.14
-240.59
-225.77
-200.90
-168.30
-131.51
-94.72
-61.76
-35.11
-15.70
-3.07
3.85
6.15
4.84
0.99
-4.03
-8.55
-11.03
-10.52
-6.91
-0.88
6.58
14.61
22.72
30.77
38.83
46.89
54.72
61.73
66.96
69.16
67.07
59.79
47.22
30.22
10.53
-9.53
-27.53
-41.29
-49.19
-50.37
-44.89
-33.71
-18.64
-1.89
14.43
28.77
40.31
48.86
54.56
57.78
59.15
59.73
60.98
64.34
70.59
79.35
89.14
97.91
103.91
106.31
105.18
101.02
94.03
83.73
69.23
49.75
25.41
-2.52
-31.78
-59.88
-84.65
-104.58
-118.79
-126.71
-128.14
-123.42
-113.82
-101.58
-89.64
-80.89
-77.48
-80.34
-89.12
-102.66
-119.42
-137.81
-156.09
-172.18
-183.52
-187.30
-181.06
-163.38
-134.46
-96.21
-51.63
-3.93
44.57
93.08
142.18
192.86
245.15
296.96
343.76
379.43
398.15
396.37
374.30
336.06
288.54
239.40
195.22
160.20
135.95
121.88
115.93
115.19
116.27
115.71
110.57
99.16
81.43
58.84
33.70
8.00
-17.13
-41.64
-66.11
-91.22
-117.54
-145.75
-177.22
-214.02
-257.82
-308.18
-360.89
-408.03
-439.77
-447.70
-427.89
-382.33
-318.02
-244.54
-171.09
-104.48
-48.23
-2.64
34.36
66.01
95.39
124.25
152.40
178.05
198.70
212.23
218.13
217.58
212.88
206.43
200.01
194.56
190.48
187.65
184.84
180.56
173.65
163.84
152.01
139.94
129.88
124.28
124.29
127.97
131.78
131.77
125.22
111.72
93.12
72.87
55.12
41.86
30.32
15.84
-5.88
-36.39
-74.04
-115.49
-157.34
-196.75
-233.76
-272.65
-317.12
-367.95
-421.92
-473.32
-517.29
-551.66
-576.36
-575.06
-537.27
-461.91
-360.49
-251.17
-148.90
-61.65
1.98
46.96
76.32
87.87
78.93
48.72
-0.12
-59.00
-118.24
-167.90
-198.56
-205.81
-192.23
-164.51
-130.58
-96.48
-64.62
-34.83
-5.62
24.75
55.34
82.67
103.74
118.10
128.14
137.93
150.62
167.21
186.87
206.52
222.47
232.69
237.99
241.39
247.35
260.32
283.52
317.73
359.56
401.65
434.48
449.76
442.62
413.54
368.25
315.81
265.52
224.11
194.60
176.36
166.72
161.08
154.20
141.64
121.03
92.45
58.23
21.87
-17.74
-58.37
-96.34
-128.08
-151.24
-165.18
-170.84
-170.93
-169.37
-170.44
-177.56
-193.90
-222.07
-263.79
-316.97
-377.25
-437.66
-489.51
-524.66
-537.49
-527.51
-499.08
-459.11
-414.00
-367.84
-322.01
-276.55
-231.98
-189.72
-151.96
-120.11
-93.43
-68.95
-43.05
-12.84
22.81
63.11
105.77
147.21
182.94
208.24
219.43
215.12
197.31
171.04
142.41
116.13
93.56
72.67
49.89
22.66
-8.81
-41.34
-70.31
-91.58
-102.95
-104.25
-96.47
-80.66
-57.42
-27.00
9.79
50.82
92.39
129.91
159.19
177.86
186.16
186.77
183.60
180.21
178.45
178.09
177.35
174.09
166.93
155.89
142.33
128.31
115.71
105.59
97.94
91.90
86.28
80.24
73.56
66.70
60.42
55.32
51.49
48.43
45.37
41.70
37.40
33.16
30.12
29.38
31.47
36.02
41.98
48.14
53.88
59.64
66.65
75.91
87.10
97.91
104.35
102.03
87.63
59.73
18.79
-33.30
-93.43
-156.98
-217.45
-266.95
-297.90
-305.52
-289.88
-256.00
-211.87
-165.28
-121.04
-80.06
-40.36
0.67
44.16
88.81
131.29
167.71
195.18
212.62
220.74
221.25
215.74
204.73
187.81
164.41
135.00
101.76
68.43
39.22
17.45
4.58
-0.06
1.32
5.88
10.94
14.57
15.97
15.43
14.13
13.55
14.93
18.87
25.21
33.29
42.31
51.52
60.20
67.56
72.60
74.34
72.19
66.26
57.45
47.10
36.71
27.50
20.48
16.41
15.86
19.03
25.54
34.41
44.21
53.62
61.67
67.98
72.52
75.35
76.47
75.71
72.82
67.50
59.38
48.17
33.67
16.16
-3.45
-23.53
-42.03
-56.92
-66.84
-71.73
-73.17
-74.16
-78.32
-88.50
-105.62
-128.01
-151.95
-173.09
-188.21
-196.42
-199.01
-198.34
-196.37
-193.68
-189.57
-182.85
-172.67
-158.96
-142.12
-122.56
-100.57
-76.85
-53.16
-32.50
-18.48
-13.83
-18.88
-31.02
-45.54
-57.57
-63.99
-64.50
-61.11
-56.78
-53.80
-52.99
-53.90
-55.69
-57.86
-60.42
-63.55
-67.17
-70.76
-73.78
-76.10
-78.24
-81.14
-85.38
-90.56
-95.10
-96.66
-92.85
-82.08
-64.02
-39.66
-11.06
19.08
47.93
73.09
93.05
107.51
117.40
124.44
130.38
136.30
142.26
147.45
150.85
151.87
150.72
148.20
145.20
142.23
139.10
135.21
129.87
122.86
114.46
105.42
96.53
88.34
80.98
74.21
67.65
61.01
54.26
47.65
41.58
36.42
32.27
28.91
25.89
22.80
19.45
16.02
13.02
11.04
10.55
11.75
14.53
18.60
23.52
28.78
33.81
38.00
40.82
41.95
41.38
39.37
36.32
32.55
28.35
24.01
20.03
17.05
15.77
16.55
19.18
22.80
26.08
27.50
25.65
19.31
7.48
-10.57
-35.06
-65.33
-99.58
-134.85
-167.55
-194.22
-212.31
-220.63
-219.29
-209.24
-191.83
-168.46
-140.77
-110.74
-80.82
-53.50
-30.79
-13.65
-1.78
6.12
11.74
16.51
21.31
26.37
31.49
36.25
40.22
43.14
45.05
46.25
47.14
48.06
49.06
49.96
50.40
50.03
48.55
45.67
41.21
35.16
27.92
20.33
13.54
8.66
6.31
6.42
8.34
11.19
14.17
16.81
18.86
20.12
20.40
19.53
17.49
14.45
10.79
6.95
3.36
0.38
-1.79
-3.03
-3.43
-3.17
-2.54
-1.80
-1.10
-0.46
0.23
1.03
1.91
2.65
2.90
2.33
0.76
-1.73
-4.82
-8.04
-10.82
-12.68
-13.26
-12.40
-10.19
-6.95
-3.20
0.37
3.10
4.40
3.98
1.90
-1.35
-4.95
-7.90
-9.34
-8.92
-6.88
-4.03
-1.30
0.68
2.00
3.53
6.66
12.77
22.63
36.09
52.06
68.84
84.67
98.10
108.20
114.41
116.27
113.24
104.88
91.18
72.90
51.55
28.92
6.43
-15.44
-37.18
-59.78
-83.82
-108.84
-133.13
-154.19
-169.65
-178.09
-179.45
-174.82
-165.75
-153.52
-138.85
-122.02
-103.45
-84.09
-65.52
-49.38
-36.63
-26.98
-18.84
-9.99
1.58
16.88
35.58
56.29
77.03
95.74
110.73
120.85
125.61
125.12
119.89
110.80
98.85
85.22
71.14
57.74
45.93
36.25
28.85
23.64
20.47
19.16
19.37
20.16
19.83
16.34
8.10
-5.18
-22.06
-39.52
-53.87
-61.49
-60.34
-50.60
-34.47
-15.33
3.46
19.50
32.06
41.78
50.93
61.47
74.16
88.39
102.89
116.71
129.57
142.34
155.99
172.60
193.12
216.95
241.87
265.04
284.09
297.48
305.62
309.80
313.78
320.77
332.19
346.75
361.12
371.46
374.47
369.55
345.65
299.00
233.83
161.66
95.35
43.16
9.98
-9.75
-21.54
-29.85
-36.45
-43.50
-52.81
-66.77
-87.42
-115.33
-149.80
-188.04
-227.93
-266.51
-302.01
-333.88
-362.58
-388.35
-409.95
-424.96
-429.70
-423.39
-406.46
-381.42
-351.79
-321.36
-293.44
-270.36
-253.43
-242.22
-238.04
-240.53
-248.02
-257.18
-264.26
-266.72
-264.20
-258.68
-253.47
-256.03
-272.48
-306.11
-355.11
-413.35
-472.83
-526.34
-569.03
-576.57
-534.29
-440.28
-309.27
-165.27
-30.46
81.75
167.09
227.32
267.15
286.54
288.69
275.52
249.54
213.77
170.69
121.72
68.11
12.27
-44.38
-95.41
-134.22
-155.15
-156.09
-140.08
-114.14
-86.13
-61.59
-44.04
-33.48
-28.69
-27.69
-28.52
-29.67
-29.88
-27.98
-23.00
-15.42
-6.25
2.73
10.18
15.71
19.82
23.51
27.85
33.63
40.87
49.23
58.02
66.84
75.74
85.05
95.14
106.27
118.46
131.64
145.76
160.77
176.79
194.34
214.29
237.66
264.95
295.33
326.07
352.72
370.22
374.55
364.36
341.44
310.13
275.68
242.58
213.50
189.32
169.70
153.91
141.23
130.89
121.89
112.93
102.70
90.42
76.15
60.82
45.97
33.11
23.13
16.03
10.94
6.49
1.26
-5.70
-14.52
-24.33
-33.52
-40.24
-43.18
-42.22
-38.58
-34.34
-31.51
-30.96
-32.09
-33.11
-32.04
-27.71
-20.27
-10.88
-0.93
8.64
17.62
26.15
34.20
41.36
46.89
50.26
51.54
51.52
51.32
51.84
53.36
55.48
57.53
59.07
60.19
61.53
63.81
67.39
71.97
76.78
80.94
83.95
86.13
88.72
93.72
103.31
119.14
141.47
168.55
196.57
220.42
235.05
237.12
225.89
203.39
173.34
139.74
105.48
71.68
37.75
1.96
-37.58
-81.59
-128.37
-173.27
-209.41
-229.77
-230.07
-210.91
-178.04
-140.53
-107.39
-84.60
-73.71
-72.43
-76.64
-82.44
-87.55
-91.53
-95.45
-101.37
-111.79
-129.08
-154.80
-189.01
-229.96
-274.21
-317.29
-354.75
-382.85
-399.02
-401.76
-390.37
-364.67
-325.11
-273.06
-211.42
-144.92
-80.00
-23.90
16.64
36.95
35.47
14.10
-22.30
-67.14
-113.59
-155.91
-190.37
-215.47
-231.36
-238.85
-238.51
-230.32
-214.01
-189.66
-158.47
-122.59
-84.46
-45.66
-6.27
35.22
81.21
133.58
192.21
253.81
311.76
357.14
381.16
378.19
348.31
298.05
238.36
180.78
133.45
99.07
75.75
59.86
49.22
44.24
46.90
58.29
76.69
97.47
114.94
124.76
125.69
119.79
111.01
103.34
99.24
99.00
100.95
102.18
99.75
91.78
78.08
60.31
41.39
24.60
12.73
7.67
10.23
20.14
35.83
54.18
70.84
81.25
82.29
73.70
58.46
41.66
28.24
20.93
19.28
20.46
21.05
18.95
14.24
8.79
5.03
4.56
7.50
12.49
17.45
20.38
20.22
17.21
12.84
9.42
9.18
13.60
22.96
36.14
50.69
63.21
69.60
65.86
49.19
19.21
-20.81
-63.91
-100.99
-123.96
-128.54
-115.97
-91.92
-63.78
-37.93
-17.68
-3.22
7.40
16.16
24.66
33.59
43.31
53.76
63.30
68.57
65.10
49.34
19.81
-21.26
-68.77
-115.94
-153.51
-174.12
-175.63
-162.11
-140.87
-122.83
-114.33
-118.92
-136.89
-165.05
-197.92
-226.51
-242.87
-237.89
-209.49
-163.85
-113.47
-70.26
-39.92
-21.26
-7.63
6.53
24.43
46.14
70.68
95.55
118.54
137.62
150.69
156.21
153.59
143.96
129.11
111.32
92.47
74.38
58.68
46.56
38.70
34.79
33.99
34.52
34.57
32.93
29.59
25.49
21.79
19.26
17.83
17.03
15.94
13.84
10.58
6.93
4.22
3.75
6.06
10.82
17.03
23.02
27.14
28.49
27.41
25.28
23.88
24.38
27.10
31.38
35.21
35.71
30.08
16.43
-5.38
-33.66
-65.68
-97.99
-124.40
-138.66
-136.93
-119.92
-92.49
-60.54
-28.36
1.38
27.60
49.90
67.67
80.30
87.57
89.89
88.55
85.06
79.80
72.62
62.98
49.91
32.47
10.03
-17.40
-48.83
-79.13
-105.40
-126.01
-140.32
-148.45
-155.64
-162.57
-168.57
-172.45
-173.03
-170.25
-164.35
-155.92
-145.86
-127.48
-100.21
-66.56
-30.18
5.44
37.16
63.34
83.67
98.73
109.70
117.29
122.31
125.49
127.28
127.34
125.60
122.33
118.21
114.14
110.42
107.12
103.83
99.82
93.12
82.48
67.56
49.10
28.61
7.24
-14.07
-35.06
-54.09
-71.80
-88.74
-105.37
-122.00
-138.59
-154.23
-166.10
-169.82
-160.87
-137.35
-101.19
-58.54
-17.68
14.14
33.40
41.14
41.46
38.89
35.92
33.00
29.45
24.90
20.08
16.50
15.30
16.51
18.86
20.45
19.69
16.23
10.90
5.27
0.90
-1.39
-1.82
-1.45
-1.71
-3.65
-7.49
-12.63
-17.96
-22.43
-25.50
-27.36
-28.76
-30.65
-33.68
-37.79
-42.47
-46.61
-49.09
-49.37
-47.46
-43.95
-39.55
-34.91
-29.96
-24.20
-16.95
-7.63
3.54
15.56
26.93
36.13
42.21
45.25
46.30
46.92
48.67
52.15
56.78
61.23
64.17
64.76
63.29
60.98
59.43
60.35
64.83
73.49
86.31
102.00
117.31
127.31
126.63
110.44
80.09
41.60
3.70
-25.63
-42.21
-46.82
-43.69
-37.72
-32.10
-27.28
-22.49
-17.19
-11.91
-8.02
-6.70
-7.92
-10.41
-12.35
-11.93
-8.71
-3.56
1.90
6.19
8.43
8.89
8.63
8.95
10.83
14.32
18.75
23.06
26.48
28.75
30.33
31.96
34.15
36.88
39.47
40.92
40.32
37.39
32.28
25.55
17.68
8.66
-2.02
-15.14
-31.22
-49.97
-69.61
-88.48
-104.89
-117.71
-126.90
-133.33
-138.30
-143.12
-149.32
-157.44
-167.71
-179.09
-188.74
-192.46
-186.06
-167.58
-138.80
-105.08
-73.30
-49.27
-35.14
-28.99
-26.54
-23.36
-17.00
-7.26
4.78
18.22
32.83
48.97
66.70
84.38
100.27
112.43
119.39
121.00
118.36
113.27
107.55
102.40
98.52
95.11
91.18
86.05
79.67
72.61
65.77
60.02
55.71
52.69
50.39
48.07
45.22
41.71
37.82
34.07
30.91
28.62
27.13
26.16
25.27
24.21
22.82
21.17
19.47
17.88
16.49
15.21
14.15
12.73
10.68
7.97
4.83
1.73
-0.75
-2.15
-2.30
-1.38
-0.04
1.06
1.45
1.05
0.23
-0.43
-0.42
0.36
1.53
2.09
1.09
-1.85
-6.32
-11.15
-14.78
-15.93
-14.09
-9.62
-4.02
1.38
5.72
9.13
12.51
16.96
23.36
32.23
43.96
57.93
72.52
84.63
89.81
83.69
63.94
32.10
-7.20
-44.20
-70.85
-83.54
-83.74
-76.21
-66.12
-56.62
-48.32
-40.38
-31.94
-23.72
-17.25
-13.62
-12.73
-13.25
-13.33
-11.34
-6.79
-0.25
6.63
12.20
15.66
17.23
17.94
19.08
21.61
25.70
30.76
35.49
38.37
38.72
36.42
31.91
25.94
19.21
12.12
4.82
-2.27
-9.46
-16.59
-23.26
-28.94
-33.12
-35.58
-36.39
-35.81
-34.33
-32.45
-30.48
-28.58
-26.80
-25.08
-23.39
-21.73
-20.12
-18.54
-17.05
-15.63
-14.29
-13.32
-12.47
-11.72
-11.05
-10.50
-10.01
-9.67
-9.44
-9.32
-9.33
-9.42
-9.63
-9.97
-10.44
-11.04
-11.77
-12.65
-13.66
-14.82
-16.08
-17.48
-19.04
-20.75
-22.58
-24.54
-26.64
-28.87
-31.22
-33.71
-36.34
-39.13
-42.08
-45.17
-48.36
-51.60
-54.81
-57.81
-60.35
-62.13
-62.76
-62.26
-59.89
-55.07
-47.44
-36.87
-23.46
-7.59
10.16
29.02
48.54
67.30
84.21
98.45
109.44
116.79
120.38
120.28
116.87
110.51
101.74
91.28
79.86
68.21
56.94
46.61
37.55
29.93
23.65
18.45
14.05
10.16
6.53
2.98
-0.59
-4.22
-7.85
-11.50
-15.14
-18.70
-22.08
-25.12
-27.68
-29.53
-30.44
-30.27
-29.05
-26.78
-23.48
-19.09
-13.50
-6.60
1.65
11.08
21.35
31.63
41.10
49.16
55.50
60.38
64.38
68.21
72.42
77.17
81.82
85.63
88.09
89.24
89.84
91.14
94.33
100.08
108.08
116.57
123.36
126.48
124.68
117.76
106.07
89.91
68.46
43.02
12.79
-23.59
-67.68
-120.94
-184.31
-257.22
-336.35
-415.17
-484.54
-535.72
-562.78
-565.06
-547.37
-517.91
-484.99
-454.21
-427.46
-403.80
-381.78
-360.63
-340.51
-321.85
-304.35
-286.65
-266.95
-243.89
-217.33
-188.55
-159.69
-132.66
-108.57
-87.42
-68.37
-50.31
-32.49
-14.95
1.40
15.23
25.37
31.21
33.00
31.68
28.68
25.41
22.95
21.74
21.60
21.95
21.99
21.18
19.41
17.23
15.72
16.12
19.37
25.70
34.47
44.43
54.33
63.62
72.93
84.01
99.11
119.87
146.38
176.68
207.24
234.12
254.25
266.61
272.51
275.01
277.94
284.81
297.94
317.46
340.87
362.91
377.00
377.72
363.47
338.17
310.75
292.32
291.92
312.75
350.37
394.18
431.18
450.59
447.24
422.54
383.08
337.48
293.39
255.52
225.42
202.55
185.76
174.12
166.57
161.57
156.80
149.84
139.21
125.71
112.65
104.96
107.41
122.66
150.32
187.11
227.93
266.79
298.78
321.21
333.74
337.49
333.68
322.83
304.75
278.97
244.19
200.06
148.22
92.42
37.08
-14.37
-60.54
-102.04
-140.76
-180.84
-225.82
-276.42
-329.72
-381.14
-426.73
-464.90
-496.40
-523.75
-552.72
-588.80
-633.87
-684.93
-736.85
-784.58
-825.24
-857.64
-864.40
-831.53
-755.75
-647.93
-526.21
-406.45
-295.59
-193.11
-94.79
2.73
98.13
186.17
260.91
320.22
365.01
399.57
428.92
457.31
487.62
519.81
540.85
531.20
484.45
404.74
305.31
200.93
102.15
13.73
-65.56
-138.84
-206.49
-264.55
-311.42
-343.70
-359.21
-357.95
-341.84
-314.50
-279.41
-237.61
-183.98
-120.13
-50.38
18.75
80.58
130.21
165.24
186.39
196.16
196.75
187.29
165.97
131.40
85.23
33.25
-16.64
-56.69
-83.06
-95.67
-96.74
-86.94
-65.52
-32.13
11.81
58.87
99.78
125.39
131.04
118.23
94.26
68.26
47.97
37.46
36.95
46.13
63.24
86.18
112.76
140.88
167.92
190.86
206.32
202.35
179.09
140.53
91.91
38.58
-14.39
-63.08
-105.09
-139.74
-168.03
-190.93
-208.75
-220.99
-226.20
-222.23
-207.16
-179.66
-139.62
-86.18
-22.25
46.78
113.23
168.01
202.86
213.15
200.18
173.98
141.52
110.17
84.52
64.85
48.47
32.45
15.78
-0.12
-13.08
-22.40
-28.46
-33.32
-40.05
-51.10
-67.18
-87.73
-108.49
-127.07
-143.26
-157.86
-172.43
-188.67
-207.83
-230.29
-255.60
-282.24
-307.59
-327.51
-336.30
-328.90
-303.25
-261.83
-211.11
-159.27
-113.03
-75.82
-47.41
-25.14
-6.48
9.71
23.27
34.11
43.32
53.47
67.33
86.64
111.58
140.59
170.63
197.82
217.92
226.70
220.90
199.16
162.89
116.08
64.14
12.21
-36.29
-79.70
-117.08
-146.81
-165.80
-170.25
-157.45
-127.67
-85.19
-37.47
6.61
39.14
54.77
51.78
32.04
0.56
-35.38
-67.62
-88.74
-93.76
-81.24
-53.21
-14.14
30.59
75.88
117.28
150.91
173.45
182.82
179.09
165.15
146.41
129.07
117.89
114.62
117.57
122.97
126.96
127.33
124.05
118.55
112.34
105.55
96.83
84.22
66.64
45.41
24.39
8.59
1.95
5.32
15.71
27.48
34.68
33.43
23.18
6.55
-11.98
-27.43
-35.59
-33.63
-20.62
2.18
31.36
61.83
88.02
105.47
112.07
108.35
96.79
80.41
61.52
41.12
19.42
-3.27
-25.45
-44.22
-55.97
-57.75
-48.53
-30.03
-6.55
16.24
32.80
39.17
33.88
17.96
-5.74
-33.44
-61.31
-86.09
-105.26
-117.03
-120.38
-115.06
-101.55
-80.91
-54.33
-22.58
14.31
56.59
103.59
152.34
197.15
230.63
245.94
239.42
212.19
170.11
121.90
76.44
40.29
16.46
4.75
2.62
6.78
13.85
20.65
24.29
22.46
13.97
-0.43
-17.91
-34.24
-45.18
-48.28
-43.83
-34.51
-24.05
-15.48
-10.16
-7.76
-7.31
-8.14
-10.26
-14.18
-20.27
-28.48
-38.63
-50.88
-65.47
-82.30
-100.01
-115.72
-126.02
-128.58
-123.70
-114.47
-105.37
-99.73
-97.97
-97.25
-93.39
-83.78
-69.31
-54.58
-45.72
-47.36
-60.23
-80.50
-101.40
-115.77
-118.84
-109.50
-90.34
-66.31
-42.83
-24.29
-13.09
-9.37
-11.55
-17.23
-23.94
-29.88
-34.08
-36.16
-35.91
-33.00
-27.00
-17.59
-4.91
10.33
26.64
41.69
52.68
56.49
50.62
34.07
8.21
-22.92
-53.03
-74.88
-82.18
-71.35
-42.93
-1.79
43.85
84.36
111.27
119.38
107.96
80.31
42.33
0.55
-39.24
-72.48
-95.78
-106.70
-104.21
-89.14
-64.86
-36.83
-11.42
6.20
13.81
12.70
7.06
1.98
1.39
6.61
16.43
28.08
38.77
47.05
52.90
57.36
61.80
67.22
74.16
82.82
93.16
104.84
117.20
129.28
140.11
149.15
156.67
164.10
173.70
187.84
207.63
231.74
255.96
273.94
279.24
267.57
238.69
196.50
147.60
98.83
55.17
18.92
-9.86
-31.76
-47.04
-55.17
-55.48
-48.09
-34.57
-17.91
-1.89
10.02
15.68
14.64
7.69
-3.95
-19.46
-38.70
-61.70
-87.92
-115.54
-141.32
-161.55
-173.40
-176.11
-171.53
-163.43
-156.20
-153.30
-156.17
-163.97
-173.90
-181.86
-183.10
-173.34
-149.89
-113.00
-66.61
-17.94
24.36
53.17
65.35
62.82
51.37
38.05
28.29
24.18
24.75
27.34
29.17
28.25
23.23
12.77
-4.41
-28.92
-59.86
-94.05
-126.43
-151.50
-165.01
-165.55
-154.78
-136.67
-115.92
-96.54
-80.59
-68.13
-57.73
-47.26
-35.15
-20.96
-5.75
8.45
19.27
24.96
24.83
19.41
10.17
-0.87
-11.42
-19.12
-21.74
-17.88
-7.55
7.28
22.94
35.20
40.77
38.33
28.89
14.89
-1.01
-17.02
-32.56
-47.86
-62.90
-77.03
-88.69
-95.88
-97.09
-91.75
-80.62
-65.40
-48.35
-31.37
-15.79
-2.22
9.26
18.74
26.21
31.61
35.02
36.64
36.83
35.86
33.85
30.91
27.42
24.14
21.97
21.55
22.73
24.51
25.53
24.66
21.82
18.14
15.67
16.67
22.67
33.91
48.83
64.61
77.94
86.22
88.56
86.20
82.19
80.21
83.03
91.34
103.32
115.54
124.39
127.64
125.31
119.40
112.78
107.72
104.88
103.28
100.90
95.93
87.59
76.35
63.44
49.92
36.11
21.75
6.50
-9.27
-24.28
-36.58
-44.46
-47.34
-46.03
-42.62
-39.71
-39.60
-43.81
-52.54
-64.68
-77.69
-87.91
-91.27
-84.66
-67.32
-41.71
-13.15
11.99
28.57
34.54
31.31
22.51
11.87
1.57
-8.18
-18.28
-28.98
-39.00
-45.48
-45.39
-37.13
-21.62
-2.09
17.31
33.03
43.24
47.90
47.98
44.67
39.13
32.90
28.36
28.72
36.87
53.57
76.12
98.37
112.47
111.66
92.85
57.51
10.87
-40.20
-89.49
-132.72
-167.69
-193.38
-208.89
-212.61
-202.47
-176.55
-134.39
-77.84
-11.53
57.65
121.52
172.13
203.24
211.38
196.52
161.96
113.73
59.43
6.82
-37.83
-70.86
-91.70
-102.29
-105.79
-105.19
-102.11
-96.38
-86.53
-71.13
-50.20
-26.10
-3.31
12.96
18.49
11.41
-7.46
-35.69
-70.55
-109.99
-152.55
-196.38
-238.00
-272.25
-293.45
-297.31
-282.73
-252.07
-210.11
-162.19
-112.65
-64.06
-17.55
26.55
68.08
106.95
143.12
176.38
205.91
230.02
246.49
253.59
251.49
242.97
232.93
226.91
229.07
240.86
260.79
285.41
310.68
333.02
349.93
359.90
362.14
356.15
341.69
318.49
286.60
246.89
201.10
151.90
102.30
54.80
10.40
-31.60
-73.28
-116.68
-161.90
-206.80
-247.49
-279.79
-301.07
-311.47
-313.66
-312.09
-311.32
-314.18
-321.65
-332.44
-343.11
-348.54
-342.93
-321.62
-283.48
-231.48
-170.97
-108.47
-49.14
4.54
52.96
98.36
142.67
185.16
218.94
238.52
239.94
223.36
193.97
161.36
136.86
129.52
139.38
158.73
175.83
179.49
163.44
127.64
77.17
19.26
-39.98
-100.63
-165.14
-234.77
-307.30
-377.85
-441.33
-494.96
-538.89
-553.86
-526.99
-457.94
-361.42
-256.91
-157.77
-68.63
10.53
80.56
140.68
187.18
217.08
227.41
217.62
189.48
145.87
90.35
27.78
-35.86
-95.28
-143.14
-171.96
-176.77
-156.90
-115.95
-59.78
6.49
72.53
127.65
165.99
186.75
192.45
186.79
173.83
157.54
141.22
126.58
114.66
105.56
98.18
91.51
85.19
79.49
74.97
75.88
79.74
84.81
89.42
91.46
88.92
80.48
65.83
45.58
20.78
-7.45
-37.00
-65.85
-92.60
-116.26
-135.97
-150.73
-159.15
-163.96
-166.06
-165.65
-163.06
-159.03
-154.46
-150.01
-146.06
-142.63
-139.51
-136.16
-131.83
-126.14
-119.12
-111.23
-103.20
-95.99
-90.58
-87.91
-88.34
-91.86
-98.12
-106.47
-116.02
-125.73
-134.73
-142.32
-148.16
-151.60
-152.54
-151.49
-149.30
-146.91
-145.03
-144.05
-144.05
-144.87
-145.73
-145.99
-145.35
-143.79
-141.49
-138.52
-134.80
-129.99
-123.55
-113.68
-98.75
-77.83
-50.93
-18.55
18.77
60.20
104.68
150.55
198.78
249.28
299.88
346.47
384.90
412.67
429.09
434.68
430.78
425.44
425.18
432.08
443.56
455.52
465.32
472.22
476.32
478.08
487.94
513.49
555.15
605.96
656.68
700.55
734.21
756.34
766.84
779.36
804.66
844.74
892.44
938.12
975.82
1005.25
1029.81
973.71
798.65
518.69
194.17
-112.54
-368.14
-566.32
-712.49
-815.48
-884.94
-918.38
-916.26
-885.26
-836.93
-781.04
-723.13
-665.84
-612.73
-568.65
-527.82
-484.22
-435.42
-384.39
-333.91
-289.33
-254.05
-230.18
-218.52
-212.03
-204.13
-191.90
-176.98
-161.66
-147.62
-134.22
-119.92
-103.44
-81.53
-53.06
-19.86
8.40
27.57
36.66
37.37
31.81
21.30
7.61
-7.65
-22.76
-35.80
-44.24
-47.06
-44.75
-39.33
-33.55
-29.74
-28.99
-31.01
-34.34
-36.60
-36.42
-33.39
-27.75
-19.99
-10.48
0.62
12.95
25.63
37.47
46.51
50.96
50.39
46.11
40.71
37.02
37.13
41.54
49.36
58.55
66.61
71.61
72.44
68.54
59.73
46.07
27.97
6.48
-16.92
-41.05
-65.55
-90.75
-117.41
-145.59
-173.47
-196.98
-211.05
-210.07
-194.02
-165.91
-130.88
-94.21
-59.45
-27.81
1.07
27.85
52.54
73.87
90.91
103.24
110.90
114.17
113.32
108.44
99.36
85.98
68.33
47.61
25.87
5.49
-11.16
-22.43
-27.68
-27.38
-22.88
-15.93
-7.98
-0.08
7.20
13.72
19.49
24.56
28.79
32.06
34.15
35.11
35.16
34.65
34.01
33.58
33.70
34.47
36.01
38.13
40.62
43.43
46.48
49.73
53.13
56.73
60.67
65.22
70.35
76.06
82.57
90.07
98.62
108.23
118.79
130.07
141.85
153.17
163.15
171.11
176.37
178.33
176.38
169.82
157.36
142.25
125.94
109.54
94.11
80.41
69.02
60.31
54.47
51.52
51.40
53.36
56.63
60.62
64.67
68.30
71.17
73.11
74.15
74.61
74.44
73.73
72.78
71.80
70.98
70.42
70.03
69.69
69.17
67.96
65.52
61.59
56.04
49.00
40.82
32.05
23.41
15.58
9.10
4.28
1.31
0.17
0.58
2.07
4.06
5.91
7.04
6.93
5.22
1.92
-2.78
-8.49
-14.70
-20.99
-27.12
-33.08
-39.10
-45.56
-52.75
-60.73
-69.36
-78.13
-86.51
-94.04
-100.51
-105.98
-110.76
-115.25
-119.64
-124.01
-128.37
-132.88
-137.99
-144.57
-153.70
-166.40
-183.24
-203.97
-227.67
-252.80
-277.71
-300.97
-321.67
-339.55
-355.17
-369.98
-385.92
-404.84
-427.19
-451.08
-472.03
-484.00
-481.46
-461.75
-426.35
-380.53
-331.37
-285.28
-246.26
-215.81
-193.71
-179.52
-173.42
-175.98
-187.18
-205.59
-227.98
-250.07
-267.61
-277.26
-277.13
-266.40
-244.90
-213.16
-173.26
-129.49
-88.70
-58.88
-46.46
-53.49
-76.09
-105.38
-130.68
-143.54
-140.31
-122.46
-94.58
-61.43
-26.37
8.60
41.29
67.77
82.73
81.83
64.42
35.27
3.59
-20.33
-29.28
-21.76
-1.93
23.09
46.55
64.12
74.10
76.30
71.04
59.26
43.40
27.88
18.50
20.75
37.45
67.59
106.83
149.06
188.37
220.37
242.32
252.82
251.36
238.42
215.63
186.17
154.28
124.57
101.05
86.24
80.79
83.83
93.64
108.51
127.27
149.44
174.82
203.32
234.58
267.76
301.50
333.54
360.78
379.67
387.03
381.15
362.73
334.64
301.21
266.83
234.79
206.87
183.88
166.60
156.51
155.68
165.67
185.89
212.38
237.82
253.13
250.21
224.49
176.59
112.18
40.22
-29.66
-89.28
-133.26
-159.34
-167.87
-161.51
-144.58
-122.15
-99.16
-79.20
-63.93
-53.19
-45.86
-40.81
-37.87
-37.88
-42.09
-51.50
-65.93
-83.99
-103.25
-121.03
-134.79
-142.75
-143.86
-137.97
-125.58
-107.45
-84.21
-56.10
-22.99
15.30
58.01
102.79
145.22
179.32
199.27
201.32
185.27
154.86
116.73
78.20
45.46
21.71
7.03
-0.51
-3.48
-3.95
-2.86
0.05
5.40
14.28
26.45
40.29
53.19
62.88
68.09
69.14
67.52
63.71
57.71
47.40
30.07
3.85
-30.45
-70.10
-111.29
-150.11
-185.13
-214.45
-237.62
-254.87
-268.64
-282.90
-303.94
-337.87
-387.80
-454.45
-515.30
-542.86
-515.67
-433.01
-312.62
-178.70
-57.27
52.28
152.90
245.94
328.71
398.44
448.26
478.87
487.07
476.20
452.68
419.82
379.38
330.67
273.30
207.95
138.99
71.40
10.12
-41.97
-86.13
-124.25
-158.49
-192.61
-228.90
-265.88
-299.85
-325.20
-336.20
-329.83
-305.28
-263.99
-204.70
-135.49
-65.39
-2.12
50.06
89.77
117.23
133.72
141.26
141.90
136.66
127.21
115.21
102.33
89.99
79.05
69.81
62.69
57.97
55.37
54.98
57.06
61.65
68.49
79.13
91.15
102.73
112.18
117.82
118.80
114.93
106.50
94.32
79.32
61.83
42.46
21.19
-2.25
-27.96
-55.70
-84.64
-113.23
-139.29
-160.97
-176.42
-184.85
-186.25
-181.60
-172.27
-159.71
-144.81
-127.67
-108.20
-85.63
-62.96
-42.22
-24.98
-11.77
-1.68
7.63
19.54
37.68
65.53
105.30
157.50
219.32
284.17
342.64
384.83
403.42
396.11
366.66
323.44
276.91
235.92
205.52
186.69
177.65
175.71
178.59
185.06
194.59
207.02
221.80
237.71
253.03
265.78
274.20
276.96
273.22
262.73
245.88
223.44
196.67
166.95
135.51
103.01
69.14
32.69
-7.91
-53.78
-104.74
-158.67
-211.67
-258.72
-294.65
-315.22
-317.84
-301.62
-267.39
-217.64
-156.67
-90.83
-28.09
23.16
56.12
67.30
57.44
30.95
-5.75
-45.68
-82.51
-110.78
-126.09
-125.74
-109.37
-79.66
-42.23
-4.45
26.56
45.54
50.22
41.38
22.12
-3.04
-29.01
-51.20
-66.30
-72.86
-71.52
-64.21
-53.45
-41.37
-29.44
-18.46
-8.84
-0.83
5.58
10.50
14.09
16.55
17.79
17.30
14.23
7.51
-3.65
-19.42
-39.18
-61.51
-84.46
-105.98
-124.44
-138.96
-149.52
-156.69
-161.29
-164.00
-165.22
-165.20
-164.18
-162.98
-162.81
-164.76
-169.31
-175.96
-183.40
-189.88
-193.91
-194.66
-192.44
-188.37
-183.79
-179.74
-176.82
-175.17
-174.72
-175.31
-176.81
-179.85
-185.27
-193.72
-205.08
-218.44
-232.36
-245.23
-255.59
-262.56
-267.44
-272.40
-279.25
-288.46
-299.19
-310.08
-319.26
-323.96
-320.48
-307.75
-286.10
-256.64
-220.48
-179.00
-134.27
-88.30
-41.83
5.81
51.26
89.69
117.64
135.31
145.76
152.58
158.20
163.96
170.23
170.30
154.76
115.93
50.13
-43.00
-162.54
-305.74
-465.99
-595.06
-646.21
-596.93
-463.36
-285.44
-99.86
71.32
218.55
339.64
435.94
507.22
553.29
574.99
576.66
565.41
547.67
527.78
508.30
490.84
471.98
436.11
377.88
301.44
218.54
143.06
86.37
54.54
48.42
61.58
85.38
114.98
148.90
186.60
224.82
256.63
274.28
274.00
256.77
229.30
202.78
187.29
187.79
202.72
225.77
248.93
267.53
278.83
282.47
280.13
273.77
265.29
256.30
247.97
239.09
231.52
225.02
219.19
213.83
208.19
200.80
189.78
173.54
147.96
117.98
85.97
54.22
23.61
-6.79
-38.60
-72.47
-106.77
-143.96
-173.81
-192.88
-200.09
-197.55
-189.89
-182.82
-181.47
-189.43
-217.18
-257.99
-310.84
-372.61
-439.11
-505.26
-565.69
-614.89
-602.04
-583.10
-549.70
-502.62
-443.13
-373.93
-298.74
-221.60
-146.04
-74.54
-18.63
26.89
62.02
88.93
109.99
126.49
138.58
145.29
162.30
188.46
223.07
253.36
270.31
272.36
262.88
247.35
231.03
210.57
182.05
149.76
115.36
81.76
51.64
25.88
3.29
-20.19
-36.94
-50.59
-63.54
-79.20
-99.05
-123.15
-150.80
-180.67
-211.12
-240.24
-269.17
-297.60
-325.16
-351.39
-376.34
-400.44
-422.82
-440.60
-448.98
-444.85
-427.18
-398.36
-364.03
-331.17
-305.28
-287.37
-274.03
-259.30
-238.78
-210.46
-175.04
-134.52
-90.88
-45.38
1.81
49.76
95.70
134.80
161.95
173.50
169.31
152.57
129.11
107.63
96.05
98.83
115.61
142.26
171.79
198.61
218.65
230.10
237.59
247.32
263.18
284.66
308.09
327.73
342.15
351.32
355.36
359.74
368.65
382.47
398.41
414.54
429.37
447.30
469.44
490.94
511.53
532.78
558.09
592.16
640.48
703.36
781.53
867.70
900.38
835.13
667.29
436.76
198.42
13.67
-122.96
-224.30
-301.21
-361.51
-404.07
-425.23
-427.21
-419.95
-415.80
-426.09
-447.86
-471.05
-483.23
-468.36
-418.05
-337.57
-245.28
-164.12
-114.26
-99.51
-112.47
-140.14
-166.50
-181.27
-183.68
-180.40
-179.22
-185.53
-196.57
-207.00
-212.68
-210.64
-200.93
-185.90
-168.78
-151.88
-137.40
-126.11
-119.76
-120.67
-129.43
-143.41
-156.44
-160.65
-149.41
-122.23
-85.65
-51.16
-29.51
-24.92
-32.34
-40.31
-37.73
-20.03
7.24
32.61
46.75
48.96
46.95
50.86
65.48
86.33
102.66
103.67
86.38
59.80
41.80
49.22
88.69
153.17
225.85
289.13
329.80
342.08
327.35
290.50
234.51
159.19
63.61
-52.22
-170.07
-261.70
-305.68
-298.48
-251.00
-180.35
-102.14
-26.77
40.24
97.61
146.05
185.44
215.18
237.54
256.07
273.85
291.71
306.05
311.43
301.79
273.83
224.01
159.72
93.48
37.50
-0.74
-22.49
-33.07
-38.77
-43.49
-48.06
-51.25
-52.86
-54.69
-58.96
-70.29
-89.41
-112.68
-132.88
-143.12
-140.36
-127.27
-111.16
-100.73
-108.79
-143.93
-208.48
-297.19
-400.62
-509.31
-616.06
-715.95
-771.18
-753.28
-657.70
-510.26
-346.01
-189.34
-50.63
68.52
170.10
257.10
326.91
379.68
416.89
441.62
457.53
466.61
468.80
463.15
449.03
412.70
354.13
280.03
201.09
127.75
66.84
21.20
-9.27
-26.02
-34.06
-37.03
-38.14
-38.53
-37.86
-35.88
-32.76
-28.99
-24.72
-21.79
-21.02
-23.30
-28.50
-35.61
-43.40
-50.79
-59.23
-65.94
-70.00
-70.56
-67.59
-61.18
-51.08
-36.83
-17.90
6.65
38.33
77.05
122.45
173.03
226.14
278.59
326.66
366.71
395.33
410.41
409.55
391.92
357.94
309.09
247.60
176.15
96.54
8.55
-80.80
-166.93
-245.84
-314.48
-370.67
-412.72
-438.95
-448.28
-439.99
-413.49
-370.27
-312.57
-243.96
-168.65
-91.16
-15.90
52.46
109.52
151.65
175.81
180.73
165.88
133.31
87.18
33.11
-23.66
-79.10
-130.97
-179.06
-223.54
-266.88
-310.02
-351.68
-388.36
-416.25
-431.90
-433.05
-419.02
-389.51
-348.38
-299.68
-247.16
-194.31
-145.94
-107.98
-86.30
-85.58
-86.79
-79.34
-61.95
-41.07
-22.09
-3.73
20.17
55.70
104.10
160.63
213.15
250.77
268.40
268.15
256.62
240.90
225.85
213.04
202.17
190.13
175.77
160.42
146.64
136.25
129.18
123.94
118.58
112.23
103.68
93.28
82.53
73.23
66.43
61.87
58.37
54.68
50.19
44.38
37.66
30.96
25.29
21.12
18.21
15.89
13.38
10.32
6.55
2.36
-1.76
-5.44
-8.51
-11.15
-13.63
-16.31
-19.42
-22.93
-26.72
-30.75
-35.16
-40.23
-46.45
-54.12
-63.54
-74.76
-87.67
-101.42
-114.90
-126.90
-136.09
-141.76
-142.91
-139.11
-130.53
-117.64
-101.32
-82.60
-62.54
-41.90
-21.10
-0.29
20.51
41.25
61.81
81.73
100.22
116.32
128.93
137.02
139.88
137.19
129.14
116.57
100.64
82.72
64.29
46.56
30.48
16.61
5.20
-3.94
-11.18
-16.99
-21.83
-26.03
-29.97
-33.89
-37.93
-41.98
-46.02
-50.04
-54.10
-58.29
-62.71
-67.53
-72.84
-78.76
-85.13
-91.86
-98.78
-105.80
-112.78
-119.57
-126.12
-132.33
-138.18
-143.33
-147.60
-150.76
-152.73
-153.32
-152.29
-149.33
-143.88
-137.45
-130.69
-124.03
-117.65
-111.68
-106.10
-100.84
-95.84
-91.04
-86.46
-81.86
-77.12
-72.15
-66.91
-61.42
-55.78
-50.20
-44.93
-40.29
-36.38
-33.25
-30.83
-28.91
-27.19
-25.33
-23.15
-20.58
-17.70
-14.59
-11.29
-7.71
-3.62
1.33
7.40
14.61
22.60
30.79
38.57
45.49
51.63
57.52
64.02
71.89
81.42
92.22
103.36
113.81
122.97
131.15
139.65
150.30
164.80
183.78
206.55
231.30
255.73
278.05
297.64
315.14
332.14
350.45
371.51
395.85
422.59
449.19
471.51
484.33
482.51
462.40
422.94
366.02
295.69
216.82
133.50
48.44
-36.70
-119.89
-197.32
-262.84
-309.03
-329.38
-320.83
-285.44
-230.51
-166.85
-105.85
-56.23
-22.08
-2.64
6.36
10.27
13.35
17.60
23.08
29.15
35.71
43.42
53.05
64.32
75.19
82.64
84.33
80.41
74.11
70.39
73.33
83.62
97.64
108.67
109.68
96.29
68.39
29.94
-12.99
-54.59
-90.88
-120.40
-143.30
-160.21
-171.28
-175.96
-173.46
-163.11
-144.62
-117.93
-83.04
-39.90
11.19
68.96
130.46
191.06
245.08
286.95
312.51
319.75
309.13
283.04
245.30
200.52
153.73
110.20
74.82
51.46
41.80
44.75
56.56
72.01
86.27
96.27
101.25
102.13
100.34
96.92
92.27
86.56
80.19
73.90
68.19
62.94
57.17
49.55
39.10
25.73
10.20
-6.41
-23.22
-39.84
-56.34
-72.94
-89.72
-106.50
-122.85
-138.25
-152.22
-164.39
-174.67
-183.12
-189.96
-195.27
-198.77
-199.94
-198.11
-192.64
-182.99
-168.53
-148.37
-121.58
-87.70
-47.34
-2.71
42.48
83.64
116.24
136.74
143.43
136.55
117.89
90.18
56.28
18.47
-21.70
-63.06
-104.17
-142.75
-176.03
-202.16
-221.32
-236.05
-249.94
-265.17
-280.47
-290.72
-288.97
-269.73
-232.10
-180.79
-124.90
-74.97
-39.55
-23.07
-25.26
-41.97
-66.96
-93.81
-117.57
-135.82
-148.84
-159.16
-170.59
-187.03
-210.75
-240.83
-272.44
-297.31
-306.04
-291.30
-250.69
-188.03
-112.20
-33.85
37.96
98.28
146.34
184.19
214.74
240.86
264.41
286.13
305.63
321.22
330.70
332.02
324.31
308.30
286.21
260.88
234.66
208.75
183.05
157.03
130.61
104.89
81.89
63.62
50.87
42.51
35.80
27.29
14.27
-4.46
-28.74
-57.81
-91.53
-130.26
-174.09
-221.58
-269.38
-312.43
-345.30
-364.03
-367.04
-355.67
-333.28
-304.20
-272.41
-240.72
-210.42
-181.13
-151.29
-118.58
-80.94
-37.12
12.32
64.71
115.37
158.30
187.91
200.76
196.96
180.36
157.50
135.18
118.19
108.01
103.08
100.55
98.24
95.75
94.17
94.65
97.08
99.76
100.33
97.19
90.53
82.05
74.01
67.80
63.32
59.19
53.76
46.25
37.21
28.33
21.66
18.67
19.94
25.16
33.63
44.69
57.92
72.89
88.99
105.24
120.48
133.50
143.19
148.52
148.55
142.41
129.57
110.16
85.40
57.49
29.40
4.54
-13.87
-23.42
-23.19
-13.98
1.78
20.85
40.01
56.93
70.63
81.21
89.09
94.18
95.90
93.57
87.27
77.84
66.74
55.75
46.39
39.49
35.14
32.86
32.18
33.23
35.94
40.11
45.91
54.12
66.12
83.31
105.95
132.02
156.93
172.24
167.52
134.14
68.49
-26.13
-140.43
-261.97
-378.04
-473.56
-536.01
-558.07
-538.46
-481.69
-395.88
-290.67
-176.02
-61.08
48.00
147.20
232.16
299.14
345.96
372.17
378.34
365.29
325.85
259.22
168.13
57.89
-64.31
-190.82
-314.42
-428.24
-529.44
-612.91
-671.15
-698.39
-693.35
-659.98
-606.61
-543.26
-478.84
-419.18
-363.59
-310.77
-260.42
-213.54
-171.63
-135.48
-104.44
-76.53
-49.61
-22.02
6.61
35.27
62.47
87.48
110.89
134.22
159.03
185.94
214.38
242.54
268.05
288.97
304.57
315.38
323.04
329.78
337.98
349.61
364.94
381.79
395.33
399.46
389.09
362.76
323.86
279.67
238.62
206.86
186.42
175.42
169.95
166.44
163.04
159.33
155.12
149.39
140.24
125.85
105.61
80.62
53.33
26.72
2.97
-17.16
-34.31
-49.80
-64.64
-78.96
-91.96
-102.47
-109.57
-113.14
-113.96
-113.29
-112.38
-112.26
-113.71
-117.41
-123.97
-133.66
-146.33
-161.30
-177.53
-194.00
-209.91
-224.52
-236.97
-246.12
-250.69
-249.81
-243.49
-232.63
-218.79
-203.40
-187.42
-171.25
-155.10
-139.24
-123.86
-108.77
-92.81
-74.06
-50.47
-20.94
13.89
51.58
88.71
122.01
149.32
169.89
183.85
191.57
193.20
188.65
178.19
162.88
144.70
126.18
109.86
97.41
89.26
84.58
81.76
79.07
75.39
70.44
64.66
58.89
53.73
49.43
45.91
42.99
40.72
39.53
39.99
42.62
47.57
54.56
62.92
71.91
80.82
89.28
97.27
105.01
112.89
121.33
130.62
140.97
152.47
165.04
178.58
192.95
208.11
224.06
241.01
259.12
278.42
298.52
318.29
335.92
348.93
354.71
350.87
335.89
309.16
271.28
223.81
168.98
109.45
47.95
-12.83
-70.39
-122.52
-167.57
-204.54
-233.58
-256.05
-274.32
-291.25
-309.18
-329.13
-350.39
-370.96
-388.20
-399.94
-405.21
-404.36
-399.08
-392.07
-386.99
-387.79
-397.67
-417.56
-445.01
-474.39
-498.61
-511.98
-512.40
-502.06
-485.91
-469.03
-454.17
-441.13
-427.64
-411.03
-389.75
-363.27
-331.56
-294.29
-250.82
-200.87
-145.38
-86.87
-28.72
25.54
73.64
115.16
151.39
184.69
217.47
251.01
284.52
315.03
337.92
348.48
343.56
322.99
289.94
250.04
209.71
173.93
145.07
122.60
104.43
88.60
74.57
63.52
57.62
58.66
66.93
80.91
97.51
113.29
125.55
132.93
135.44
133.84
129.11
121.95
112.97
102.76
92.21
82.48
74.69
69.51
66.67
65.18
63.65
61.16
57.75
54.48
53.03
54.83
60.40
69.13
79.61
90.25
99.88
107.94
114.37
119.25
122.50
123.77
122.67
119.02
113.07
105.48
96.94
87.98
78.83
69.50
59.98
50.46
41.30
32.77
24.88
17.30
9.64
1.73
-6.24
-13.79
-20.37
-25.60
-29.22
-30.76
-29.50
-24.74
-16.28
-4.98
7.33
18.33
26.15
30.04
30.56
29.19
27.48
26.48
26.40
26.90
27.41
27.40
26.43
24.09
19.82
13.04
3.46
-8.67
-22.23
-35.46
-46.28
-53.10
-55.42
-54.05
-50.83
-47.88
-46.76
-48.02
-51.30
-55.93
-61.57
-68.72
-78.59
-92.59
-111.70
-135.68
-162.94
-190.51
-214.52
-230.64
-234.87
-224.32
-197.89
-156.94
-105.19
-48.10
8.16
57.96
97.22
123.75
137.03
137.95
128.47
111.28
89.76
67.39
47.10
30.46
17.27
5.78
-6.30
-20.54
-36.89
-53.42
-67.17
-75.44
-76.90
-72.27
-64.07
-55.60
-49.81
-48.30
-50.91
-55.91
-60.67
-62.28
-58.29
-47.21
-28.55
-2.79
28.84
64.58
102.22
139.09
172.31
199.12
217.51
226.84
227.95
222.92
214.28
204.13
193.43
182.11
169.59
155.47
140.23
124.93
110.88
99.03
89.61
82.15
75.83
69.96
64.12
58.45
53.31
49.19
46.56
45.68
46.48
48.54
51.11
53.19
54.00
53.07
50.41
46.39
41.36
35.58
29.03
21.50
12.62
2.15
-9.99
-23.59
-38.08
-52.64
-66.24
-77.97
-87.16
-93.58
-97.33
-98.77
-98.32
-96.30
-93.05
-88.91
-84.25
-79.37
-74.37
-69.13
-63.44
-57.11
-50.03
-42.24
-33.73
-24.51
-14.59
-4.16
6.24
15.73
23.30
28.16
30.01
29.07
25.91
21.19
15.38
8.71
1.31
-6.67
-14.80
-22.60
-29.54
-35.27
-39.58
-42.31
-43.18
-41.71
-37.43
-30.11
-20.11
-8.37
3.68
14.60
23.29
29.29
32.63
33.70
32.97
30.81
27.53
23.47
18.95
14.34
9.90
5.71
1.69
-2.37
-6.85
-12.04
-18.13
-25.17
-33.02
-41.44
-50.19
-59.09
-68.08
-77.18
-86.31
-95.39
-104.13
-112.23
-119.32
-125.04
-128.93
-130.65
-129.99
-127.01
-122.15
-116.01
-109.03
-101.36
-92.75
-82.77
-71.15
-57.97
-43.54
-28.28
-12.28
4.61
22.46
40.81
58.33
72.98
82.50
85.23
80.56
69.32
53.54
35.83
18.77
4.11
-7.51
-16.56
-24.01
-30.70
-36.65
-40.92
-42.07
-39.06
-32.09
-22.74
-13.54
-6.91
-4.17
-5.06
-7.98
-10.60
-10.61
-6.38
2.56
15.05
27.84
35.72
32.75
14.39
-19.80
-64.61
-109.80
-143.09
-154.45
-139.80
-102.40
-51.34
2.05
48.15
81.43
100.85
108.31
106.73
98.73
86.31
71.33
56.16
43.55
35.88
34.21
37.67
43.79
49.61
53.07
53.87
53.34
53.52
55.79
59.98
64.53
67.13
65.88
60.10
50.54
38.81
26.82
16.16
7.92
2.78
0.91
1.69
3.47
3.53
-1.45
-14.37
-36.50
-66.76
-101.54
-135.30
-161.78
-175.25
-171.63
-149.45
-110.22
-58.34
-0.36
56.21
104.68
140.47
161.99
170.32
168.40
159.74
147.57
134.20
121.00
108.62
97.17
86.58
76.61
66.95
57.28
47.40
37.23
26.88
16.55
6.51
-2.92
-11.49
-19.17
-25.98
-32.03
-37.28
-41.33
-43.37
-42.44
-37.90
-29.85
-19.40
-8.35
1.33
8.20
11.70
12.15
10.27
6.77
2.10
-3.66
-10.42
-18.07
-26.23
-34.31
-41.60
-47.42
-51.17
-52.46
-51.28
-47.97
-43.23
-37.97
-32.96
-28.79
-25.82
-24.10
-23.42
-23.48
-23.90
-24.33
-24.61
-24.72
-24.86
-25.33
-26.25
-27.43
-28.20
-27.44
-23.86
-16.51
-5.15
9.50
25.92
42.18
56.55
67.95
76.19
81.74
85.40
87.88
89.67
90.94
91.92
92.93
94.52
97.43
102.41
109.99
120.30
132.91
146.73
160.25
171.75
179.73
183.17
181.75
175.71
165.65
152.18
135.71
116.68
95.64
73.60
52.08
32.80
17.31
6.47
0.20
-2.41
-2.75
-2.28
-2.04
-2.40
-2.93
-2.43
0.90
9.22
24.40
47.44
77.77
113.05
149.66
183.77
212.33
233.80
247.84
254.49
253.38
243.42
223.32
192.54
152.00
104.05
51.80
-1.89
-54.92
-105.95
-154.05
-198.27
-237.62
-271.43
-299.46
-321.95
-339.10
-350.80
-356.23
-354.28
-344.13
-326.04
-302.16
-276.71
-255.64
-245.04
-249.07
-267.39
-294.29
-319.84
-333.06
-325.82
-295.46
-245.20
-182.78
-118.00
-60.75
-19.48
-0.44
-6.84
-38.07
-89.33
-152.88
-220.29
-284.75
-342.03
-389.39
-423.70
-440.50
-435.44
-406.73
-357.75
-297.14
-236.18
-184.98
-149.28
-129.64
-122.81
-124.55
-131.54
-141.95
-154.50
-167.17
-176.65
-179.03
-171.17
-151.89
-122.58
-86.87
-49.34
-14.17
16.03
40.60
60.56
77.62
93.46
108.89
123.79
137.48
149.40
159.67
169.15
179.27
191.38
206.47
225.01
247.17
272.95
301.73
331.77
359.69
381.03
391.40
388.23
371.83
345.41
313.96
282.42
254.26
231.05
212.85
198.98
188.54
180.49
173.26
164.87
153.14
136.60
115.37
91.37
67.89
48.62
36.45
32.61
36.69
46.65
59.82
73.92
87.72
101.11
114.54
128.63
143.59
159.58
176.14
192.60
208.49
223.65
238.10
251.75
264.78
277.28
289.91
302.11
311.78
314.75
305.14
276.87
225.34
150.11
54.76
-52.64
-162.92
-267.11
-357.93
-428.78
-472.26
-482.18
-455.00
-399.09
-324.34
-241.77
-161.95
-93.79
-46.54
-27.49
-40.41
-82.95
-148.67
-227.00
-306.72
-377.02
-424.79
-438.96
-412.91
-355.63
-275.57
-180.52
-74.06
36.98
144.07
238.13
310.06
352.35
360.03
333.48
277.10
200.07
114.73
35.37
-25.28
-60.30
-70.33
-62.83
-47.47
-33.21
-24.89
-23.01
-24.73
-26.88
-28.54
-30.88
-35.69
-42.63
-49.26
-51.76
-46.82
-32.61
-9.60
19.15
48.49
71.54
80.94
69.57
32.62
-30.79
-116.19
-213.17
-306.40
-379.56
-420.25
-423.84
-393.78
-338.01
-265.08
-181.61
-92.76
-4.02
77.59
144.58
192.42
218.71
222.90
206.91
175.21
134.45
92.22
54.79
25.47
4.23
-11.43
-23.91
-33.49
-38.08
-34.00
-17.29
13.75
56.68
105.25
151.82
190.51
218.44
235.54
243.12
243.03
236.96
225.95
211.21
194.74
179.48
167.12
156.78
144.07
123.13
89.51
43.05
-10.78
-62.68
-103.25
-127.41
-135.52
-132.39
-124.28
-115.59
-107.99
-100.83
-92.82
-83.30
-73.02
-62.61
-51.86
-39.52
-23.47
-1.66
26.66
60.56
98.07
134.36
164.52
184.03
190.20
182.35
161.70
130.54
90.39
45.23
-2.90
-52.79
-104.29
-157.53
-212.51
-269.69
-325.94
-374.75
-407.58
-416.56
-396.64
-348.31
-278.46
-199.34
-123.31
-64.69
-30.44
-19.83
-26.72
-41.57
-54.59
-57.70
-46.28
-20.16
16.67
57.78
96.07
125.71
144.89
154.59
158.63
160.71
163.58
169.36
177.06
185.37
192.22
195.45
191.88
179.25
155.88
122.56
81.65
37.33
-5.19
-41.59
-69.17
-87.32
-96.52
-98.49
-95.06
-87.57
-77.13
-64.22
-49.85
-35.31
-22.63
-13.48
-9.07
-10.57
-17.81
-30.22
-46.06
-63.73
-81.29
-97.46
-111.46
-122.18
-129.61
-133.72
-135.27
-134.34
-131.36
-126.18
-118.60
-108.78
-96.31
-81.35
-64.44
-46.78
-28.91
-10.86
8.29
30.97
53.54
75.10
94.97
112.67
127.45
139.02
147.43
152.96
156.08
157.22
157.84
159.30
162.71
168.36
175.10
180.27
180.60
173.59
158.65
138.58
117.78
100.65
89.78
85.28
85.07
86.27
86.59
84.87
81.50
77.11
71.87
65.54
57.99
49.39
40.45
32.16
25.24
20.01
15.84
11.43
5.28
-3.40
-14.59
-27.37
-40.28
-51.87
-61.10
-67.61
-71.66
-73.89
-74.91
-75.21
-75.03
-74.29
-72.84
-70.54
-67.41
-63.60
-59.46
-55.33
-51.55
-48.26
-45.35
-42.60
-39.72
-36.51
-32.86
-28.76
-24.17
-19.11
-13.68
-8.06
-2.68
1.89
5.09
6.55
6.24
4.50
1.95
-0.77
-3.18
-5.07
-6.49
-7.58
-8.50
-9.29
-9.94
-10.32
-10.38
-10.01
-9.14
-7.71
-5.67
-3.01
0.21
3.87
7.88
12.09
16.38
20.61
24.59
28.19
31.27
33.77
35.65
36.94
37.65
37.84
37.60
37.04
36.21
35.11
33.59
31.47
28.61
24.98
20.68
15.95
11.07
6.29
1.79
-2.33
-6.07
-9.48
-12.69
-15.80
-18.89
-22.00
-25.09
-28.18
-31.36
-34.68
-38.09
-41.39
-44.15
-45.83
-46.06
-44.66
-41.80
-37.84
-33.21
-28.28
-23.39
-18.84
-14.84
-11.58
-9.05
-7.02
-5.09
-2.85
-0.03
3.23
6.54
9.30
11.04
11.55
11.01
9.81
8.44
7.25
6.45
6.12
6.30
7.00
8.29
10.17
12.53
15.15
17.71
19.89
21.49
22.46
22.92
23.06
23.14
23.30
23.53
23.77
23.86
23.74
23.42
23.00
22.52
22.01
21.33
20.28
18.76
16.84
14.80
13.05
11.95
11.57
11.70
11.91
11.69
10.65
8.66
5.80
2.32
-1.53
-5.55
-9.63
-13.67
-17.54
-21.05
-24.00
-26.18
-27.47
-27.85
-27.39
-26.24
-24.60
-22.56
-20.26
-17.74
-15.06
-12.28
-9.42
-6.55
-3.65
-0.72
2.21
5.07
7.70
9.88
11.41
12.12
11.97
11.04
9.54
7.70
5.71
3.64
1.44
-1.06
-4.02
-7.61
-11.90
-16.91
-22.57
-28.68
-34.94
-40.89
-46.08
-50.12
-52.83
-54.18
-54.36
-53.64
-52.30
-50.61
-48.82
-47.08
-45.35
-43.34
-40.52
-36.32
-30.42
-22.93
-14.45
-5.94
1.67
7.71
11.95
14.53
15.79
16.10
15.80
15.16
14.38
13.70
13.19
12.84
12.59
12.34
12.00
11.58
10.99
10.05
8.58
6.34
3.28
-0.40
-4.36
-8.16
-11.43
-13.94
-15.66
-16.57
-16.69
-16.03
-14.65
-12.71
-10.44
-8.12
-6.01
-4.35
-3.23
-2.65
-2.48
-2.49
-2.45
-2.18
-1.66
-0.98
-0.36
0.02
0.05
-0.31
-1.02
-2.06
-3.46
-5.19
-7.14
-9.11
-10.88
-12.26
-13.18
-13.59
-13.42
-12.60
-11.04
-8.75
-5.96
-3.02
-0.34
1.81
3.49
4.95
6.49
8.37
10.55
12.86
15.00
16.73
17.86
18.34
18.16
17.32
15.90
13.98
11.76
9.47
7.33
5.48
3.99
2.85
2.02
1.49
1.20
1.10
1.12
1.15
1.13
1.08
1.07
1.19
1.52
1.96
2.44
2.78
2.82
2.52
1.86
0.94
-0.14
-1.18
-2.07
-2.69
-3.03
-3.23
-3.50
-4.08
-5.07
-6.38
-7.77
-8.90
-9.50
-9.47
-8.89
-7.95
-6.87
-5.74
-4.61
-3.45
-2.22
-0.89
0.54
2.05
3.63
5.28
7.03
8.87
10.77
12.70
14.61
16.50
18.37
20.35
22.59
25.18
28.04
30.80
32.93
33.85
33.19
30.94
27.41
23.05
18.22
13.07
7.45
1.35
-5.04
-11.13
-16.09
-19.24
-20.26
-19.48
-17.61
-15.62
-14.31
-14.22
-15.58
-18.34
-22.35
-27.34
-32.97
-38.79
-44.39
-49.42
-53.70
-57.33
-60.60
-64.00
-67.93
-72.51
-77.31
-81.35
-83.34
-82.00
-76.53
-66.80
-53.47
-37.64
-20.62
-3.59
12.48
26.87
39.05
48.60
55.33
59.17
60.31
59.10
55.94
51.18
44.98
37.41
28.37
17.80
5.71
-7.73
-22.13
-36.81
-50.84
-63.10
-72.50
-78.21
-79.83
-77.55
-72.00
-64.11
-54.87
-45.12
-35.56
-26.74
-19.03
-12.61
-7.46
-3.35
0.08
3.20
6.24
9.24
12.12
14.79
17.27
19.76
22.51
25.73
29.38
33.17
36.59
39.08
40.16
39.46
36.85
32.43
26.47
19.40
11.71
3.93
-3.49
-10.18
-15.79
-20.02
-22.52
-23.05
-21.53
-18.14
-13.30
-7.63
-1.69
3.97
8.95
13.00
15.93
17.73
18.51
18.52
18.07
17.48
16.95
16.56
16.30
16.08
15.87
15.69
15.55
15.41
15.25
15.00
14.63
14.12
13.47
12.62
11.54
10.16
8.43
6.44
4.29
2.19
0.33
-1.08
-1.97
-2.30
-2.21
-1.85
-1.45
-1.23
-1.32
-1.72
-2.24
-2.67
-2.79
-2.54
-1.99
-1.30
-0.63
-0.10
0.27
0.47
0.47
0.23
-0.30
-1.08
-1.97
-2.83
-3.60
-4.28
-5.01
-5.93
-7.13
-8.59
-10.20
-11.77
-13.09
-13.90
-13.90
-12.79
-10.45
-6.93
-2.52
2.38
7.36
12.15
16.70
21.02
25.15
28.96
32.22
34.71
36.27
36.88
36.60
35.61
34.05
32.07
29.86
27.58
25.32
22.99
20.32
16.87
12.23
6.26
-0.87
-8.59
-16.13
-22.75
-27.95
-31.50
-33.45
-34.05
-33.60
-32.43
-30.91
-29.42
-28.24
-27.60
-27.53
-27.98
-28.87
-30.04
-31.33
-32.55
-33.40
-33.59
-32.89
-31.20
-28.53
-24.97
-20.50
-15.04
-8.46
-0.64
8.47
18.69
29.74
41.10
52.05
61.84
69.71
75.08
77.68
77.51
74.80
69.93
63.24
55.13
46.12
36.72
27.53
19.05
11.53
5.00
-0.79
-6.18
-11.49
-16.86
-22.21
-27.24
-31.46
-34.41
-35.65
-34.99
-32.49
-28.51
-23.57
-18.32
-13.33
-9.02
-5.65
-3.29
-1.95
-1.52
-1.96
-3.13
-4.85
-6.82
-8.76
-10.40
-11.59
-12.37
-12.88
-13.36
-13.91
-14.58
-15.26
-15.78
-16.02
-15.88
-15.35
-14.50
-13.42
-12.09
-10.55
-8.82
-6.98
-5.16
-3.53
-2.20
-1.10
-0.09
1.15
2.86
5.13
7.95
11.15
14.53
17.93
21.28
24.54
27.69
30.61
33.10
34.90
35.76
35.55
34.23
31.91
28.83
25.29
21.53
17.64
13.62
9.30
4.55
-0.68
-6.29
-12.03
-17.51
-22.30
-26.02
-28.37
-29.24
-28.64
-26.76
-23.89
-20.35
-16.43
-12.33
-8.09
-3.74
0.77
5.37
9.95
14.35
18.34
21.74
24.42
26.32
27.44
27.80
27.40
26.11
23.72
20.03
14.99
8.76
1.74
-5.51
-12.50
-18.96
-24.94
-30.60
-36.11
-41.40
-46.27
-50.38
-53.59
-55.98
-57.77
-59.25
-60.57
-61.66
-62.37
-62.55
-62.11
-61.08
-59.67
-58.09
-56.58
-55.34
-54.43
-53.73
-52.85
-51.25
-48.31
-43.59
-36.93
-28.40
-18.17
-6.39
6.90
21.77
38.12
55.57
73.35
90.30
105.13
116.64
123.98
126.73
125.05
119.47
110.87
100.26
88.58
76.64
64.99
54.04
44.01
35.07
27.24
20.40
14.32
8.60
2.88
-3.18
-9.73
-16.79
-24.19
-31.68
-38.85
-45.14
-49.89
-52.44
-52.22
-48.96
-42.78
-34.26
-24.32
-14.10
-4.62
3.33
9.38
13.50
15.96
17.15
17.48
17.24
16.61
15.63
14.33
12.79
11.07
9.31
7.63
5.97
4.25
2.38
0.41
-1.45
-2.82
-3.40
-3.03
-1.78
0.07
2.16
4.23
6.12
7.81
9.34
10.75
12.08
13.31
14.45
15.47
16.28
16.79
16.87
16.44
15.53
14.31
13.05
12.08
11.67
11.93
12.79
14.05
15.45
16.72
17.66
18.07
17.89
17.13
15.94
14.55
13.19
11.99
10.97
9.99
8.88
7.52
5.77
3.58
0.81
-2.63
-6.70
-11.14
-15.53
-19.38
-22.36
-24.56
-26.26
-27.96
-29.91
-32.13
-34.34
-36.15
-37.30
-37.70
-37.50
-36.82
-35.76
-34.34
-32.62
-30.72
-28.80
-26.97
-25.15
-23.21
-20.84
-17.92
-14.52
-10.87
-7.32
-4.10
-1.23
1.48
4.24
7.35
10.86
14.71
18.71
22.59
26.03
28.81
30.80
31.95
32.40
32.27
31.60
30.40
28.67
26.51
24.27
22.51
21.71
22.11
23.58
25.55
27.34
28.27
27.80
25.48
20.98
13.98
4.40
-7.52
-21.06
-35.05
-48.23
-59.39
-67.55
-71.96
-72.14
-67.81
-58.98
-46.17
-30.35
-12.93
4.48
20.18
32.70
40.78
43.40
40.00
30.51
15.60
-3.22
-23.74
-43.36
-59.51
-70.22
-74.32
-71.71
-63.24
-50.52
-35.60
-20.47
-6.80
4.38
12.71
18.30
21.34
21.96
20.20
16.14
10.36
3.88
-1.94
-5.77
-6.66
-4.26
1.30
9.53
19.70
30.98
42.24
52.16
59.33
62.59
61.30
55.61
46.34
34.80
22.59
11.27
2.18
-3.72
-6.02
-4.98
-1.37
3.68
8.89
13.32
16.37
17.91
18.12
17.35
15.98
14.38
12.94
11.99
11.79
12.32
13.32
14.20
14.27
12.96
10.01
5.60
0.15
-5.79
-11.70
-17.24
-22.19
-26.39
-29.72
-32.07
-33.44
-33.97
-33.94
-33.71
-33.64
-33.97
-34.77
-35.90
-36.98
-37.55
-37.08
-35.19
-31.70
-26.67
-20.36
-13.15
-5.52
1.95
8.57
13.66
16.58
16.95
14.78
10.49
4.84
-1.26
-7.01
-11.72
-15.00
-16.65
-16.56
-14.71
-11.12
-5.85
1.00
9.11
18.02
27.03
35.20
41.57
45.26
45.73
42.86
36.99
28.68
18.60
7.39
-4.37
-16.00
-26.69
-35.59
-41.89
-44.99
-44.59
-40.53
-32.78
-21.36
-6.45
11.38
31.00
50.76
68.74
83.10
92.49
96.19
94.17
86.92
75.33
60.46
43.52
25.77
8.48
-7.13
-19.99
-29.33
-34.77
-36.44
-34.83
-30.79
-25.23
-19.05
-12.99
-7.60
-3.20
0.06
2.19
3.33
3.75
3.85
4.03
4.61
5.81
7.52
9.40
10.96
11.79
11.62
10.52
8.82
7.00
5.59
4.98
5.41
6.86
9.14
11.83
14.46
16.64
18.09
18.71
18.49
17.40
15.43
12.55
8.94
4.94
1.03
-2.24
-4.46
-5.50
-5.54
-4.88
-3.96
-3.10
-2.51
-2.34
-2.67
-3.56
-5.10
-7.44
-10.70
-15.00
-20.27
-26.19
-32.21
-37.66
-41.93
-44.74
-46.20
-46.83
-47.41
-48.70
-51.11
-54.63
-58.79
-62.96
-66.46
-68.82
-69.82
-69.47
-67.91
-65.26
-61.65
-56.98
-50.83
-42.48
-30.98
-15.63
3.47
25.05
46.80
65.83
79.55
86.38
86.00
79.11
66.99
51.05
32.72
13.48
-4.92
-20.52
-31.52
-36.63
-35.40
-28.32
-16.62
-1.98
13.74
28.85
41.94
52.00
58.39
60.98
60.01
55.99
49.58
41.49
32.47
23.33
15.04
8.66
5.29
5.73
10.18
18.16
28.59
40.01
50.96
60.19
66.88
70.61
71.42
69.64
65.93
61.13
56.09
51.44
