1603719136.00
64.000000
-0.00
-0.00
-0.00
-0.00
-0.00
-0.00
-0.00
-0.00
-0.00
-0.00
0.00
0.01
0.01
-0.00
-0.03
-0.05
-0.05
0.00
0.13
0.36
0.66
1.01
1.37
1.72
2.06
2.40
2.79
3.24
3.80
4.42
5.06
5.66
6.20
6.68
7.15
7.68
8.31
9.14
10.09
11.04
11.88
12.56
13.14
13.76
14.65
15.96
17.91
20.32
22.90
25.38
27.58
29.57
31.68
34.32
37.81
42.54
48.15
54.10
59.83
64.97
69.58
74.14
79.34
85.71
93.76
103.00
112.62
121.73
129.77
136.75
143.30
150.74
157.78
166.67
177.99
191.83
206.97
220.49
228.07
225.06
208.14
176.43
132.31
79.62
22.66
-35.38
-92.95
-149.78
-205.98
-261.20
-314.60
-364.69
-410.58
-451.62
-487.29
-516.71
-538.49
-550.79
-551.75
-540.22
-515.97
-480.29
-435.44
-384.20
-329.28
-272.85
-216.45
-161.08
-107.59
-56.86
-10.07
31.56
67.03
95.93
118.54
135.78
148.83
158.77
166.21
171.17
173.31
172.28
168.11
161.40
153.21
144.69
136.69
129.49
122.73
115.78
108.00
99.04
88.78
77.38
65.37
53.86
44.69
39.89
41.00
48.05
59.09
70.75
79.56
83.36
82.16
77.85
72.64
67.99
63.97
59.70
54.24
47.45
40.16
33.69
29.08
26.54
25.48
24.88
23.85
22.04
19.71
17.46
15.83
14.98
14.64
14.22
13.13
11.04
8.03
4.48
1.02
-1.75
-3.41
-3.87
-3.42
-2.63
-2.11
-2.29
-3.22
-4.48
-5.40
-5.36
-4.13
-1.92
0.68
2.99
4.59
5.29
5.08
3.99
2.11
-0.25
-2.50
-3.85
-3.70
-1.96
0.71
3.25
4.58
4.17
2.26
-0.35
-2.78
-4.53
-5.65
-6.62
-7.92
-9.67
-11.45
-12.55
-12.37
-10.82
-8.48
-6.31
-5.34
-5.94
-7.75
-9.76
-10.71
-9.71
-6.52
-1.65
3.93
9.09
12.87
14.70
14.47
12.53
9.49
6.01
2.57
-0.56
-3.33
-5.72
-7.65
-8.96
-9.53
-9.35
-8.52
-7.20
-5.45
-3.19
-0.39
2.76
5.75
7.76
8.03
6.18
2.53
-1.95
-5.95
-8.26
-8.16
-5.62
-1.22
4.05
9.06
12.86
14.83
14.91
13.53
11.45
9.54
8.40
8.27
8.97
10.11
11.28
12.16
12.56
12.29
11.17
9.09
6.15
2.72
-0.58
-3.18
-4.78
-5.47
-5.61
-5.62
-5.81
-6.15
-6.46
-6.46
-5.95
-4.86
-3.26
-1.40
0.36
1.54
1.79
0.97
-0.65
-2.42
-3.60
-3.67
-2.69
-1.29
-0.57
-1.61
-5.05
-10.68
-17.36
-23.24
-26.42
-25.55
-20.29
-11.46
-0.76
9.79
18.42
23.97
26.02
24.81
21.12
16.25
11.61
8.44
7.46
8.59
11.14
14.11
16.55
18.01
18.60
18.65
18.51
18.38
18.26
18.18
18.15
18.06
17.87
17.59
17.21
16.82
16.50
16.31
16.03
16.54
17.73
19.14
20.14
20.20
19.04
16.76
13.82
10.91
8.69
7.35
6.82
6.80
7.02
7.40
8.13
9.54
11.91
15.40
19.94
25.62
32.80
41.82
52.70
64.56
75.70
83.94
87.49
85.62
79.03
69.48
59.00
49.12
40.49
33.01
26.31
20.13
14.41
9.14
4.13
-1.12
-7.16
-14.33
-22.41
-30.67
-38.24
-44.52
-49.47
-53.58
-57.50
-61.67
-66.10
-70.51
-74.32
-76.92
-77.57
-75.50
-70.12
-61.28
-49.66
-36.76
-24.53
-14.63
-7.66
-2.97
0.82
4.87
9.23
12.63
13.02
8.61
-0.97
-14.33
-28.64
-40.77
-48.35
-50.42
-47.51
-41.19
-33.82
-27.61
-24.22
-24.52
-28.61
-35.82
-44.93
-54.49
-63.28
-71.37
-79.40
-88.29
-98.54
-110.19
-122.64
-134.96
-146.19
-155.79
-164.79
-174.32
-184.92
-195.37
-203.30
-205.44
-198.64
-180.72
-151.07
-112.03
-66.65
-18.22
30.39
75.03
110.20
129.34
126.41
107.59
80.00
52.53
31.57
20.07
17.31
21.02
28.38
37.16
45.90
52.34
54.62
47.32
32.49
13.48
-4.30
-14.41
-11.36
6.85
36.22
68.64
94.51
106.58
101.79
83.30
57.47
32.28
13.97
4.46
1.83
1.98
0.77
-4.60
-14.32
-26.86
-39.85
-51.15
-58.81
-61.11
-53.09
-33.84
-8.45
15.57
32.82
41.95
43.99
41.29
36.02
29.96
24.19
19.73
18.95
22.14
28.36
35.46
42.01
47.63
53.64
62.14
75.22
93.70
116.03
139.10
154.13
156.00
143.85
121.20
93.90
68.03
47.35
32.09
19.65
6.43
-9.49
-28.40
-49.30
-70.71
-90.69
-106.48
-114.65
-112.00
-97.68
-74.31
-48.72
-29.81
-24.97
-36.27
-58.99
-83.52
-99.66
-101.66
-90.43
-72.06
-53.69
-39.41
-28.50
-16.85
-0.64
20.57
41.91
55.50
56.01
44.79
29.74
21.65
28.28
49.85
79.19
104.69
115.26
106.46
81.61
48.37
14.80
-13.65
-35.12
-49.60
-58.94
-66.96
-76.53
-88.71
-103.13
-117.54
-128.18
-137.09
-143.87
-140.86
-128.59
-112.84
-96.46
-80.21
-63.38
-45.01
-24.63
-1.43
24.68
52.21
80.35
108.63
135.48
158.24
173.73
179.19
174.00
159.30
137.14
111.84
89.00
73.28
66.99
69.14
75.52
80.59
79.44
69.60
53.34
36.93
27.40
29.48
43.83
67.09
93.76
117.89
134.17
139.15
131.60
112.58
85.42
54.83
25.46
0.08
-21.68
-42.89
-66.90
-95.17
-126.37
-157.28
-184.68
-206.43
-221.47
-229.03
-227.85
-216.23
-193.36
-160.28
-120.38
-78.77
-39.98
-6.45
21.39
44.36
63.42
79.02
91.80
102.13
109.39
113.82
116.51
118.13
118.66
117.43
113.48
107.41
99.70
88.22
72.07
52.33
30.54
8.81
-10.31
-24.20
-28.56
-21.00
-5.52
13.65
33.49
50.52
62.04
67.22
67.57
69.37
78.34
92.68
109.87
127.87
142.99
151.75
152.61
128.36
73.72
22.99
-7.49
-20.09
-14.94
4.86
32.92
60.65
79.60
87.16
84.41
70.87
50.41
29.68
12.63
0.15
-8.71
-15.04
-16.81
-11.96
-3.35
6.66
17.03
26.21
33.11
37.77
41.34
46.88
56.65
68.96
81.80
93.54
101.85
104.45
99.88
88.04
70.98
51.58
31.52
12.41
-4.34
-18.24
-29.41
-38.29
-45.61
-52.25
-59.74
-70.13
-84.72
-103.47
-125.47
-149.43
-174.36
-199.70
-225.25
-251.10
-277.26
-303.51
-329.15
-352.71
-371.58
-382.03
-379.88
-361.75
-326.71
-276.54
-215.09
-147.38
-78.77
-14.57
40.41
82.27
108.79
119.28
115.83
103.46
88.90
78.30
75.28
80.32
91.25
104.37
113.79
114.70
105.54
88.64
68.57
49.99
36.33
29.24
28.75
30.84
31.88
31.67
33.63
41.48
55.48
71.18
80.71
75.81
47.08
-9.84
-91.75
-189.31
-291.74
-390.68
-479.86
-553.62
-581.68
-542.83
-440.72
-305.61
-173.97
-69.09
2.28
45.23
69.27
83.26
88.94
85.19
73.81
59.06
46.80
41.12
43.53
52.77
66.17
77.92
83.69
83.44
81.67
85.31
96.01
114.81
140.92
172.01
202.87
228.01
243.77
249.31
246.19
236.83
224.36
211.10
198.01
183.93
166.83
145.34
119.84
92.34
65.50
42.21
24.24
12.13
5.53
3.51
4.95
8.81
14.13
19.86
25.17
29.15
31.11
31.73
31.89
32.24
32.91
33.74
34.48
35.18
35.80
36.18
37.19
39.35
42.63
46.57
50.88
56.00
63.23
74.17
82.49
84.04
77.61
65.25
49.85
32.81
14.02
-6.98
-30.05
-54.31
-77.16
-96.15
-109.63
-117.06
-118.75
-115.49
-108.49
-99.38
-90.05
-81.29
-73.53
-66.84
-61.10
-56.07
-51.31
-46.44
-41.30
-36.14
-30.74
-25.19
-19.85
-15.30
-12.02
-10.17
-9.55
-9.72
-10.17
-10.12
-9.02
-6.61
-2.96
1.66
6.87
12.28
17.43
21.85
25.16
27.11
27.69
27.11
25.72
23.85
21.65
18.99
15.95
12.66
9.29
6.09
3.29
0.94
-1.05
-2.86
-4.61
-6.30
-7.92
-9.43
-10.88
-12.31
-13.78
-15.18
-16.29
-16.75
-16.26
-14.69
-12.18
-9.07
-5.82
-2.91
-0.65
0.80
1.45
1.40
0.74
-0.49
-2.27
-4.56
-7.26
-10.20
-13.18
-16.01
-18.61
-21.01
-23.34
-25.76
-28.39
-31.24
-34.22
-37.18
-39.97
-42.49
-44.67
-46.48
-47.89
-48.84
-49.27
-49.16
-48.53
-47.48
-46.11
-44.59
-43.08
-41.78
-40.88
-40.51
-40.73
-41.43
-42.32
-42.97
-42.88
-41.57
-38.61
-33.83
-27.25
-19.21
-10.25
-1.10
7.53
15.01
20.96
25.20
27.73
28.67
28.24
26.70
24.31
21.26
17.66
13.58
9.12
4.48
0.04
-3.73
-6.48
-8.02
-8.47
-8.13
-7.37
-6.49
-5.67
-5.00
-4.53
-4.34
-4.50
-5.05
-5.93
-6.99
-8.05
-8.99
-9.83
-10.68
-11.74
-13.17
-15.03
-17.23
-19.59
-21.89
-23.90
-25.38
-26.09
-25.83
-24.45
-21.95
-18.50
-14.43
-10.07
-5.68
-1.39
2.76
6.69
10.32
13.44
15.85
17.47
18.37
18.76
18.94
19.14
19.47
19.98
20.60
21.30
22.02
22.76
23.49
24.14
24.60
24.74
24.50
23.90
23.11
22.33
21.70
21.19
20.63
19.78
18.51
16.92
15.30
13.98
13.14
12.69
12.31
11.56
10.19
8.19
5.82
3.44
1.39
-0.10
-0.90
-0.93
-0.12
1.56
3.98
6.89
9.88
12.60
14.80
16.46
17.68
18.59
19.17
19.30
18.85
17.76
16.23
14.62
13.31
12.57
12.40
12.57
12.76
12.69
12.28
11.63
10.93
10.38
10.07
9.95
9.89
9.71
9.29
8.58
7.57
6.36
5.02
3.65
2.34
1.10
-0.07
-1.23
-2.45
-3.78
-5.23
-6.76
-8.29
-9.65
-10.64
-11.06
-10.75
-9.61
-7.65
-5.00
-1.88
1.39
4.52
7.24
9.41
10.97
11.96
12.47
12.63
12.57
12.47
12.48
12.71
13.21
13.92
14.69
15.34
15.72
15.79
15.59
15.21
14.71
14.12
13.43
12.63
11.76
10.86
9.97
9.11
8.26
7.38
6.47
5.49
4.42
3.26
2.01
0.73
-0.49
-1.60
-2.64
-3.74
-5.09
-6.77
-8.64
-10.31
-11.29
-11.18
-9.89
-7.67
-4.94
-2.19
0.30
2.43
4.28
5.90
7.29
8.35
8.99
9.18
9.04
8.76
8.52
8.43
8.45
8.52
8.55
8.53
8.50
8.52
8.62
8.78
8.92
8.99
8.94
8.75
8.44
7.98
7.40
6.74
6.05
5.41
4.80
4.16
3.38
2.40
1.23
-0.02
-1.23
-2.31
-3.26
-4.16
-5.10
-6.10
-7.13
-8.06
-8.77
-9.07
-8.86
-8.06
-6.67
-4.79
-2.61
-0.36
1.76
3.63
5.20
6.47
7.43
8.06
8.31
8.19
7.74
7.13
6.51
6.05
5.78
5.65
5.55
5.38
5.14
4.90
4.77
4.83
5.07
5.36
5.56
5.57
5.36
4.99
4.53
4.03
3.47
2.76
1.86
0.78
-0.40
-1.55
-2.52
-3.28
-3.87
-4.43
-5.08
-5.91
-6.87
-7.80
-8.50
-8.75
-8.43
-7.49
-5.98
-4.03
-1.83
0.39
2.41
4.05
5.22
5.91
6.25
6.35
6.33
6.26
6.13
5.93
5.64
5.28
4.90
4.58
4.39
4.35
4.43
4.57
4.68
4.70
4.60
4.39
4.11
3.81
3.55
3.34
3.17
2.98
2.67
2.20
1.52
0.67
-0.25
-1.18
-2.10
-3.02
-3.99
-5.04
-6.10
-7.08
-7.90
-8.53
-9.03
-9.44
-9.71
-9.70
-9.19
-8.03
-6.28
-4.16
-2.01
-0.13
1.35
2.48
3.36
4.11
4.69
4.99
4.92
4.49
3.82
3.11
2.56
2.27
2.24
2.43
2.71
3.02
3.26
3.39
3.43
3.38
3.26
3.07
2.77
2.34
1.78
1.15
0.55
0.08
-0.22
-0.43
-0.70
-1.16
-1.84
-2.69
-3.57
-4.33
-4.94
-5.44
-5.97
-6.61
-7.34
-8.02
-8.38
-8.19
-7.33
-5.87
-4.02
-2.04
-0.17
1.45
2.78
3.79
4.47
4.78
4.70
4.29
3.65
2.97
2.42
2.09
1.98
1.99
1.99
1.90
1.69
1.36
0.98
0.63
0.31
0.04
-0.22
-0.52
-0.92
-1.45
-2.12
-2.84
-3.50
-3.98
-4.23
-4.30
-4.29
-4.29
-4.37
-4.49
-4.64
-4.80
-5.03
-5.42
-5.98
-6.67
-7.31
-7.73
-7.79
-7.44
-6.68
-5.57
-4.22
-2.73
-1.23
0.16
1.38
2.38
3.16
3.71
4.01
4.04
3.83
3.48
3.08
2.72
2.45
2.25
2.04
1.77
1.41
1.00
0.58
0.21
-0.05
-0.21
-0.28
-0.34
-0.45
-0.71
-1.10
-1.60
-2.14
-2.67
-3.17
-3.64
-4.07
-4.43
-4.65
-4.74
-4.78
-4.92
-5.31
-6.03
-6.99
-8.00
-8.76
-9.05
-8.74
-7.83
-6.46
-4.79
-3.03
-1.32
0.19
1.38
2.19
2.63
2.78
2.73
2.62
2.55
2.59
2.72
2.87
2.91
2.77
2.44
1.96
1.41
0.96
0.74
0.83
1.24
1.92
2.83
3.86
4.83
5.57
6.07
6.35
6.36
5.96
5.08
3.77
2.27
0.86
-0.19
-0.33
0.76
2.88
5.42
7.65
9.11
9.76
9.85
9.78
10.61
13.05
17.14
22.12
27.02
31.20
34.51
37.11
39.31
42.26
46.84
53.21
60.69
68.32
75.35
81.23
85.35
82.00
67.97
44.36
16.49
-9.85
-31.22
-46.75
-56.89
-62.56
-64.60
-62.81
-57.15
-48.40
-38.26
-28.55
-21.03
-15.77
-12.43
-10.43
-8.49
-5.62
-1.59
2.98
7.35
11.12
14.39
17.37
20.17
23.08
25.85
28.56
30.40
30.73
29.35
26.45
22.29
17.08
11.31
5.47
-0.40
-6.28
-11.85
-16.67
-20.52
-23.45
-25.58
-26.77
-26.88
-26.99
-28.64
-33.21
-41.86
-55.32
-73.35
-94.21
-114.78
-131.41
-142.16
-145.54
-140.32
-126.31
-105.30
-81.22
-59.17
-43.93
-38.59
-45.37
-63.03
-86.72
-110.13
-127.93
-137.05
-136.82
-128.41
-103.43
-62.49
-15.56
24.98
53.12
71.18
85.56
101.62
120.44
138.10
146.12
137.71
112.45
75.95
37.07
4.18
-17.11
-24.64
-18.73
-2.76
17.61
39.21
57.46
66.75
62.66
44.67
17.27
-11.81
-34.46
-46.70
-49.25
-45.83
-39.66
-31.39
-19.62
-3.50
15.30
31.86
40.69
39.44
30.23
18.88
12.03
13.75
23.46
36.41
46.18
47.93
40.91
28.16
14.90
5.64
3.20
7.92
18.05
30.51
41.68
48.23
47.74
39.30
23.80
3.99
-15.86
-30.86
-36.71
-31.24
-15.50
6.14
27.33
40.71
42.41
33.07
16.80
-1.13
-16.66
-28.05
-35.54
-40.14
-42.63
-43.11
-41.62
-38.65
-35.09
-31.90
-29.69
-28.42
-27.90
-27.10
-25.10
-21.40
-16.06
-9.60
-2.87
3.23
8.07
11.52
13.96
15.90
17.56
18.64
18.36
16.64
14.19
12.24
12.08
14.44
19.09
25.02
31.01
36.44
40.69
43.52
44.67
44.07
41.84
38.37
34.20
29.79
25.23
20.20
14.32
7.20
-0.97
-9.45
-17.34
-23.91
-28.89
-32.48
-35.17
-36.44
-36.63
-35.92
-34.54
-33.02
-31.98
-31.78
-32.24
-33.00
-32.36
-29.03
-22.33
-12.57
-0.95
10.98
21.57
29.34
33.33
33.48
30.54
26.26
22.78
21.79
24.01
28.82
34.05
37.25
36.66
31.57
22.71
11.46
-0.53
-11.48
-19.71
-24.03
-23.90
-19.95
-14.37
-10.36
-11.26
-19.82
-35.86
-55.69
-73.94
-86.21
-90.56
-87.65
-79.29
-67.90
-55.01
-41.01
-26.00
-10.58
4.24
17.68
29.79
42.21
55.85
70.63
85.42
98.27
107.11
110.44
107.74
96.60
79.08
57.54
34.65
13.13
-4.66
-17.54
-25.91
-31.29
-35.37
-38.50
-40.95
-41.88
-40.75
-37.81
-33.94
-30.12
-26.82
-23.79
-20.05
-15.10
-8.85
-1.90
4.59
9.18
10.55
7.92
1.29
-8.30
-19.36
-30.10
-38.44
-42.55
-41.44
-35.41
-25.95
-15.35
-5.98
0.15
2.03
-0.22
-5.58
-12.40
-18.87
-23.30
-24.57
-22.35
-17.34
-10.91
-4.68
0.03
2.64
3.27
2.63
1.50
0.45
-0.26
-0.53
-0.27
0.63
2.17
4.12
6.23
8.21
9.90
11.44
13.15
15.33
18.00
20.79
23.14
24.91
26.19
27.26
28.47
30.10
32.20
34.57
36.77
38.32
39.35
40.10
40.72
41.29
41.91
42.67
43.54
44.26
44.37
44.13
43.73
43.24
42.61
41.86
41.17
40.81
41.07
38.63
31.84
20.76
6.86
-8.17
-22.91
-35.77
-44.85
-48.66
-47.39
-41.73
-33.29
-24.13
-15.83
-8.90
-2.82
3.23
9.60
15.32
19.41
20.74
18.51
12.50
3.23
-8.18
-20.13
-30.52
-36.78
-35.84
-25.63
-6.28
19.31
45.93
67.55
79.19
78.42
65.95
45.30
21.15
-2.18
-21.62
-35.53
-43.37
-45.36
-42.32
-35.63
-27.17
-19.18
-13.78
-12.35
-15.01
-20.66
-27.37
-33.32
-37.34
-39.26
-39.69
-39.63
-39.91
-40.84
-42.14
-43.20
-43.53
-42.86
-41.19
-38.77
-35.99
-33.21
-30.56
-27.95
-25.15
-22.27
-19.50
-17.04
-14.99
-13.42
-12.38
-11.83
-11.66
-11.72
-12.32
-13.66
-15.58
-17.59
-19.18
-20.07
-20.24
-19.82
-19.06
-18.78
-19.59
-21.55
-24.20
-26.91
-29.13
-30.33
-30.03
-24.38
-12.13
4.52
21.06
33.66
40.86
43.29
42.54
40.30
37.83
35.29
32.53
29.62
26.86
24.29
21.84
19.26
16.38
13.36
10.16
6.96
4.17
2.19
1.28
1.48
2.69
4.81
7.66
10.77
13.45
15.24
16.02
15.99
15.50
14.85
14.24
13.63
12.70
11.11
8.76
5.88
3.01
0.76
-0.41
-0.37
0.63
1.97
3.03
3.48
3.42
3.29
3.56
4.50
6.07
7.97
9.83
11.40
12.59
13.44
13.99
14.32
14.43
14.34
14.09
13.68
13.10
12.35
11.45
10.45
9.43
8.41
7.37
6.25
4.98
3.51
1.77
-0.36
-3.02
-6.34
-10.32
-14.79
-19.45
-23.91
-27.88
-31.19
-33.71
-35.29
-35.74
-34.79
-32.29
-28.32
-23.14
-17.23
-11.16
-5.45
-0.44
3.72
7.13
9.98
12.54
14.98
17.33
19.48
21.28
22.58
23.34
23.52
23.10
22.04
20.35
18.13
15.57
12.98
10.65
8.78
7.34
6.13
4.83
3.19
1.06
-1.51
-4.28
-6.96
-9.34
-11.39
-13.32
-15.39
-17.81
-20.57
-23.45
-25.98
-27.58
-27.83
-26.62
-24.19
-21.01
-17.57
-14.29
-11.39
-8.80
-6.14
-2.95
1.07
5.95
11.43
17.00
21.98
25.09
24.96
21.05
14.25
6.44
-0.54
-5.49
-7.92
-7.98
-6.13
-2.95
1.11
5.63
10.29
14.79
18.81
22.19
24.92
27.11
28.84
30.00
30.29
29.21
26.41
21.82
15.79
8.46
0.51
-7.29
-14.17
-19.46
-22.66
-23.45
-21.82
-18.09
-12.92
-7.02
-1.05
4.59
9.44
13.00
14.74
14.26
11.57
6.98
1.29
-4.37
-8.75
-11.09
-11.37
-10.20
-8.72
-8.35
-10.52
-15.93
-24.07
-33.23
-41.64
-48.11
-52.27
-54.44
-55.22
-55.30
-54.93
-54.06
-52.43
-50.63
-49.62
-49.79
-50.40
-48.15
-40.50
-27.48
-13.26
0.16
12.21
23.06
33.30
43.85
55.13
66.26
75.54
81.33
83.48
82.72
80.60
78.90
78.78
80.13
81.42
80.78
76.98
70.33
61.77
52.49
43.55
35.72
29.31
23.90
18.50
10.50
-1.58
-17.95
-36.95
-55.58
-70.80
-80.76
-85.36
-85.56
-82.59
-76.88
-68.58
-58.02
-46.03
-33.62
-21.25
-8.52
5.73
21.99
39.06
53.67
61.76
60.49
49.97
34.14
17.16
3.23
-5.31
-8.55
-8.54
-7.79
-8.29
-10.45
-13.16
-14.37
-11.78
-4.30
7.28
20.38
31.73
38.26
38.42
32.43
22.18
10.46
-0.44
-9.56
-17.23
-22.96
-26.64
-28.49
-29.50
-30.75
-33.02
-36.72
-41.38
-45.23
-45.67
-40.86
-31.01
-19.15
-9.50
-5.49
-8.18
-15.44
-22.50
-24.26
-18.37
-4.26
12.42
24.15
27.89
27.41
29.23
37.71
52.63
70.08
85.54
96.45
103.64
108.72
111.53
108.89
96.38
71.43
35.58
-5.39
-44.40
-75.71
-97.13
-109.71
-116.32
-118.97
-117.82
-111.85
-100.72
-86.21
-71.56
-61.96
-61.34
-70.72
-87.67
-107.38
-124.83
-136.23
-139.47
-123.20
-81.94
-18.85
52.91
115.78
155.96
168.64
158.57
136.57
114.14
96.44
81.75
64.25
39.69
10.05
-16.30
-28.71
-21.24
3.65
34.20
55.32
56.02
34.30
0.39
-29.01
-40.26
-29.74
-4.56
21.68
37.04
36.63
23.82
5.50
-12.53
-27.28
-38.12
-44.51
-44.98
-36.99
-18.61
9.43
42.69
71.93
88.26
86.47
67.22
37.01
5.80
-16.67
-24.35
-17.12
-1.48
13.58
19.31
11.03
-9.68
-35.80
-58.29
-69.82
-67.18
-52.23
-29.74
-5.07
17.71
36.16
48.71
53.81
48.32
32.92
11.37
-10.65
-27.66
-36.20
-35.68
-27.95
-15.82
-1.60
13.45
27.98
39.56
45.11
41.89
28.63
6.61
-20.18
-46.34
-66.80
-77.09
-77.56
-71.78
-64.01
-57.12
-51.72
-46.76
-40.98
-33.91
-26.61
-21.25
-19.25
-20.71
-24.74
-30.26
-36.20
-41.40
-43.79
-40.37
-28.42
-6.54
23.91
58.77
92.23
118.93
135.47
140.86
135.85
121.99
101.44
76.84
51.42
28.61
11.26
0.94
-2.46
-0.79
3.30
7.00
7.54
3.11
-6.57
-19.62
-32.20
-40.05
-40.26
-33.41
-23.23
-14.92
-12.49
-17.02
-26.48
-37.10
-45.37
-49.37
-49.03
-45.29
-39.60
-32.80
-25.96
-20.23
-16.53
-15.02
-14.61
-13.29
-9.21
-1.69
8.46
19.24
28.50
34.72
37.54
37.51
35.78
33.32
30.81
28.64
26.70
24.05
18.79
8.73
-7.17
-27.27
-47.04
-59.87
-59.45
-42.71
-12.08
24.74
56.77
73.76
72.40
56.93
36.70
21.10
15.30
18.49
25.48
30.35
29.93
25.08
18.82
14.44
11.91
9.35
4.45
-3.59
-13.13
-20.82
-23.21
-19.40
-11.29
-3.13
0.53
-3.40
-15.28
-32.49
-50.49
-62.85
-65.47
-56.88
-38.76
-15.24
8.28
26.77
36.86
37.25
29.67
16.18
-0.46
-17.46
-32.38
-43.54
-49.90
-49.83
-43.99
-32.92
-17.63
0.34
18.47
33.66
43.25
46.00
43.07
36.13
27.71
19.86
13.81
9.94
7.95
7.04
6.07
3.78
-0.94
-7.91
-15.39
-20.49
-20.30
-13.56
-1.46
12.60
24.40
30.38
29.23
21.94
11.02
-0.71
-11.18
-19.31
-24.89
-28.18
-29.59
-29.38
-27.74
-25.45
-22.94
-20.95
-19.93
-19.80
-20.03
-19.99
-19.28
-17.71
-15.62
-13.65
-12.44
-12.05
-12.03
-11.69
-10.67
-9.33
-8.22
-8.44
-11.01
-16.29
-23.27
-30.13
-34.80
-36.09
-34.22
-29.69
-24.02
-19.23
-17.16
-18.69
-23.81
-31.11
-37.75
-40.02
-33.28
-15.19
12.70
45.31
76.20
100.33
115.97
125.04
124.60
116.28
105.18
96.39
91.79
90.33
90.03
88.91
84.87
75.63
60.82
41.17
18.84
-2.73
-19.64
-28.69
-28.92
-21.96
-11.78
-1.94
4.64
6.38
3.84
-1.83
-8.46
-13.83
-16.42
-16.29
-13.95
-10.71
-8.21
-7.73
-9.74
-13.56
-17.80
-20.82
-22.16
-21.81
-20.77
-20.75
-23.64
-31.17
-44.44
-64.00
-84.65
-100.82
-107.06
-100.47
-81.26
-52.60
-20.34
8.27
26.50
30.41
19.60
-1.96
-27.88
-51.51
-68.34
-77.06
-79.05
-76.64
-71.55
-65.86
-59.26
-52.27
-46.11
-42.22
-41.59
-44.07
-48.25
-52.13
-54.44
-54.87
-54.26
-53.85
-54.55
-56.57
-59.40
-61.90
-62.64
-60.15
-54.19
-45.00
-33.41
-20.78
-8.64
1.89
10.79
19.24
28.94
41.38
56.98
74.97
93.89
112.25
128.96
143.28
154.43
161.50
163.82
161.81
157.32
153.27
152.38
155.83
162.45
169.32
173.10
171.60
164.57
153.35
139.83
125.38
110.41
94.63
77.69
59.71
41.47
24.13
8.69
-4.33
-15.01
-23.85
-31.34
-37.72
-42.90
-46.54
-48.45
-48.83
-48.35
-48.00
-48.68
-50.85
-54.32
-58.41
-62.16
-64.79
-65.92
-65.66
-64.54
-63.20
-62.25
-62.02
-62.55
-63.57
-64.52
-64.61
-62.88
-58.52
-51.07
-40.75
-28.51
-15.79
-4.13
5.38
12.30
16.86
19.65
21.22
21.89
21.74
20.77
19.09
16.99
14.92
13.22
12.06
11.33
10.78
10.13
9.19
7.96
6.53
5.09
3.73
2.43
1.06
-0.56
-2.55
-4.86
-7.31
-9.60
-11.52
-13.03
-14.29
-15.62
-17.37
-19.74
-22.71
-26.00
-29.06
-31.23
-31.85
-30.47
-27.00
-21.78
-15.50
-9.02
-3.10
1.78
5.49
8.13
9.86
10.80
11.02
10.60
9.67
8.44
7.14
5.91
4.84
3.93
3.14
2.46
1.88
1.36
0.88
0.36
-0.24
-0.97
-1.85
-2.90
-4.11
-5.49
-7.03
-8.65
-10.30
-11.89
-13.32
-14.44
-15.13
-15.30
-14.97
-14.33
-13.77
-13.69
-14.31
-15.52
-16.73
-17.10
-15.84
-12.52
-7.32
-0.93
5.70
11.73
16.74
20.78
24.19
27.27
30.04
32.10
32.76
31.26
27.16
20.57
12.27
3.56
-4.08
-9.45
-12.02
-12.07
-10.54
-8.62
-7.17
-6.43
-5.91
-4.79
-2.45
0.93
4.19
5.64
3.63
-2.61
-12.73
-25.39
-38.78
-51.14
-60.96
-67.00
-68.46
-65.27
-58.40
-49.86
-41.91
-36.17
-32.77
-30.50
-27.50
-22.37
-14.84
-5.68
3.83
12.90
21.54
30.17
38.74
46.27
51.02
51.22
45.79
34.47
18.51
0.84
-14.50
-23.62
-24.15
-16.17
-2.43
12.49
23.28
26.49
22.01
12.70
2.54
-5.28
-9.41
-10.38
-9.65
-9.42
-10.89
-13.86
-17.39
-21.03
-25.22
-30.78
-38.16
-41.99
-38.41
-27.66
-13.24
1.57
14.70
24.59
29.89
29.81
24.70
15.41
4.03
-6.31
-12.64
-13.65
-10.24
-4.81
-0.01
2.47
1.75
-1.60
-6.10
-9.78
-11.58
-11.30
-9.06
-4.82
1.65
9.52
17.28
23.32
26.75
27.91
28.45
30.68
35.34
42.53
50.17
55.41
56.53
53.79
48.86
43.54
38.76
34.33
29.76
24.80
19.85
15.86
13.52
12.69
12.48
11.93
10.00
6.67
2.73
-0.54
-1.68
0.04
4.20
9.37
13.59
15.05
13.14
8.48
2.57
-2.74
-6.05
-7.11
-6.82
-6.49
-7.31
-9.82
-13.91
-18.93
-23.19
-24.58
-21.24
-12.45
0.58
14.16
23.20
23.11
11.59
-9.49
-35.15
-59.23
-76.50
-84.49
-84.02
-78.02
-68.26
-59.10
-52.97
-50.46
-50.42
-51.18
-48.97
-40.79
-25.40
-4.27
18.21
36.69
46.77
46.86
38.90
27.43
17.21
11.44
10.95
14.66
21.03
28.67
36.62
44.11
50.29
54.04
54.54
50.33
41.70
30.29
18.32
7.93
0.59
-3.07
-3.43
-1.57
1.13
3.55
5.05
5.42
4.72
2.74
-1.18
-8.09
-18.92
-33.81
-51.64
-70.29
-87.40
-101.15
-110.81
-116.76
-120.03
-121.77
-122.81
-123.37
-123.22
-121.83
-118.46
-112.25
-102.28
-87.78
-68.30
-44.03
-15.87
14.60
45.43
74.67
100.68
122.52
140.02
153.56
163.75
171.06
175.73
177.77
177.07
173.41
166.78
157.50
146.17
133.29
119.02
103.14
85.25
65.05
42.52
18.46
-5.61
-27.60
-45.39
-57.22
-61.59
-57.23
-43.35
-21.95
2.44
23.23
34.72
34.22
22.04
0.95
-24.46
-48.89
-67.81
-78.46
-80.31
-74.57
-63.38
-49.07
-33.57
-18.48
-5.43
3.73
7.56
5.65
-0.91
-9.77
-18.13
-23.39
-23.93
-19.47
-11.10
-0.77
9.35
17.58
23.08
25.92
26.85
26.74
26.02
24.60
22.16
18.63
14.43
10.48
7.21
4.84
3.14
1.58
-0.41
-3.26
-7.05
-11.46
-15.76
-19.01
-20.33
-19.35
-16.43
-12.62
-9.19
-6.98
-6.04
-5.73
-5.27
-4.33
-3.21
-2.66
-3.34
-5.29
-7.98
-10.65
-12.68
-13.80
-13.87
-12.65
-9.70
-4.69
2.22
10.11
17.54
23.01
25.68
25.61
23.51
20.77
18.42
16.80
15.50
13.79
11.15
7.67
4.03
1.05
-0.78
-1.64
-2.12
-2.89
-4.22
-5.89
-7.38
-8.23
-8.28
-7.72
-6.99
-6.50
-6.52
-7.08
-8.10
-9.44
-11.04
-12.94
-15.23
-18.03
-21.32
-24.84
-28.02
-30.06
-30.25
-28.19
-23.99
-18.21
-11.68
-5.23
0.51
5.13
8.42
10.28
10.69
9.80
7.94
5.63
3.42
1.75
0.79
0.50
0.65
1.03
1.53
2.18
3.07
4.25
5.60
6.83
7.64
7.80
7.38
6.67
6.14
6.18
6.98
8.47
10.37
12.34
14.08
15.37
16.11
16.25
15.86
15.16
14.48
14.30
15.13
17.32
20.86
25.33
29.91
33.60
35.50
35.17
32.64
28.42
23.24
17.77
12.47
7.55
3.05
-1.08
-4.88
-8.44
-11.85
-15.30
-18.99
-23.08
-27.61
-32.42
-37.21
-41.54
-45.03
-47.43
-48.76
-49.25
-49.18
-48.77
-48.04
-46.86
-45.07
-42.68
-39.87
-37.04
-34.59
-32.77
-31.66
-31.22
-31.36
-32.07
-33.28
-34.80
-36.14
-36.56
-35.22
-31.44
-24.94
-16.02
-5.50
5.46
15.63
24.09
30.34
34.44
36.81
38.01
38.43
38.15
37.06
35.00
32.11
28.82
25.75
23.44
22.03
21.28
20.66
19.67
18.11
16.10
13.95
11.93
10.08
8.16
5.90
3.15
0.10
-2.79
-4.94
-5.93
-5.71
-4.55
-2.99
-1.55
-0.60
-0.30
-0.67
-1.60
-2.90
-4.29
-5.33
-5.47
-4.20
-1.22
3.43
9.34
15.82
22.12
27.57
31.78
34.64
36.22
36.69
36.11
34.52
31.95
28.63
25.06
21.93
19.87
19.25
19.88
21.13
22.11
22.02
20.37
17.12
12.54
7.09
1.18
-4.87
-10.89
-16.85
-22.80
-28.78
-34.66
-40.10
-44.59
-47.50
-48.30
-46.80
-43.21
-38.17
-32.63
-27.61
-24.00
-22.34
-22.61
-24.25
-26.16
-27.02
-25.66
-21.42
-14.47
-5.68
3.66
12.23
19.08
23.73
26.17
26.72
25.92
24.42
22.88
21.86
21.66
22.31
23.56
25.13
26.76
28.32
29.68
30.50
30.22
28.20
24.05
18.02
10.99
4.16
-1.37
-5.14
-7.43
-9.03
-10.75
-13.01
-15.67
-18.20
-20.04
-20.86
-20.64
-19.54
-17.78
-15.63
-13.58
-12.36
-12.91
-15.96
-21.69
-29.39
-37.53
-44.17
-47.51
-46.43
-40.77
-31.41
-19.93
-8.22
1.99
9.52
13.89
15.32
14.47
12.21
9.31
6.32
3.56
1.21
-0.71
-2.25
-3.51
-4.67
-5.88
-7.22
-8.66
-10.02
-11.05
-11.55
-11.41
-10.69
-9.58
-8.24
-6.71
-4.87
-2.60
0.01
2.48
3.89
3.21
-0.37
-6.91
-15.62
-24.92
-33.01
-38.41
-40.34
-38.81
-34.27
-27.28
-18.24
-7.44
4.71
17.45
29.68
40.18
47.96
52.50
53.83
52.35
48.56
42.88
35.67
27.29
18.33
9.71
2.57
-2.05
-3.65
-2.56
0.03
2.62
3.88
3.23
0.86
-2.61
-6.68
-11.20
-16.50
-22.92
-30.53
-38.96
-47.48
-55.31
-61.87
-66.83
-70.06
-71.58
-71.46
-69.95
-67.54
-64.98
-63.09
-62.40
-62.79
-63.47
-63.01
-59.85
-52.86
-41.72
-27.06
-10.26
6.94
22.84
36.07
45.79
51.73
54.22
54.03
52.28
50.11
48.36
47.43
47.22
47.37
47.47
47.33
47.01
46.78
46.91
47.60
48.87
50.56
52.33
53.64
53.83
52.22
48.36
42.25
34.48
26.21
18.81
13.44
10.67
10.27
11.36
12.65
12.82
10.81
6.13
-1.20
-10.55
-20.94
-31.22
-40.29
-47.36
-52.12
-54.82
-56.21
-57.40
-59.47
-63.11
-68.30
-74.20
-79.20
-81.43
-79.25
-71.85
-59.59
-44.03
-27.49
-12.39
-0.34
8.34
14.80
21.06
29.13
40.07
53.60
68.30
82.35
94.35
103.81
111.03
116.61
120.89
123.69
124.46
122.71
118.33
111.71
103.57
94.63
85.40
76.19
67.16
58.53
50.55
43.43
37.20
31.56
25.91
19.58
12.11
3.47
-5.87
-15.08
-23.29
-29.89
-34.70
-37.98
-40.24
-41.98
-43.54
-44.99
-46.27
-47.23
-47.77
-47.88
-47.69
-47.48
-47.79
-49.32
-52.77
-58.60
-66.63
-75.81
-84.37
-90.35
-92.32
-90.08
-84.87
-78.83
-74.23
-72.54
-74.12
-78.31
-83.91
-89.73
-94.76
-98.27
-99.71
-98.73
-95.36
-90.12
-83.96
-78.01
-73.22
-70.06
-68.41
-67.59
-66.51
-63.97
-59.00
-51.41
-41.78
-31.34
-21.29
-12.16
-3.51
5.61
16.00
27.60
39.44
50.28
59.41
67.17
74.72
83.17
92.75
102.45
110.32
114.35
113.33
107.29
97.37
85.38
73.24
62.48
54.05
48.28
44.92
43.36
42.82
42.53
41.81
40.07
36.80
31.64
24.56
16.05
7.21
-0.52
-5.76
-7.70
-6.40
-2.72
2.09
6.89
11.00
14.31
17.02
19.38
21.45
23.06
24.05
24.31
23.98
23.33
22.71
22.36
22.40
22.76
23.29
23.76
23.96
23.79
23.28
22.57
21.82
21.14
20.48
19.65
18.50
16.94
15.11
13.22
11.47
9.84
8.10
5.85
2.79
-1.17
-5.85
-10.87
-15.75
-20.01
-23.13
-24.62
-24.03
-21.19
-16.30
-9.93
-2.85
4.20
10.71
16.40
21.13
24.75
27.07
28.00
27.66
26.41
24.74
22.96
21.04
18.67
15.46
11.29
6.48
1.68
-2.45
-5.52
-7.65
-9.26
-10.89
-12.94
-15.60
-18.87
-22.49
-25.88
-27.99
-27.52
-23.51
-16.02
-6.69
1.58
5.53
2.94
-6.47
-20.76
-36.64
-50.62
-60.20
-64.40
-63.56
-58.83
-51.42
-42.27
-31.94
-20.72
-8.86
3.20
14.75
24.97
33.09
38.70
41.93
43.32
43.60
43.34
42.80
42.00
40.89
39.59
38.54
38.29
39.30
41.58
44.49
46.79
46.97
43.78
36.77
26.56
14.68
3.04
-6.80
-14.20
-19.50
-23.64
-27.55
-31.72
-36.19
-40.84
-45.66
-50.76
-56.05
-60.79
-63.57
-62.73
-57.11
-46.76
-33.00
-18.01
-3.93
7.82
16.89
23.76
29.17
33.70
37.50
40.53
42.70
44.15
45.15
45.94
46.49
46.42
45.21
42.39
37.94
32.26
26.11
20.19
14.86
9.97
4.97
-0.71
-7.39
-14.83
-22.28
-28.79
-33.56
-36.20
-36.87
-36.12
-34.64
-33.08
-31.84
-31.05
-30.53
-29.89
-28.60
-26.14
-22.20
-16.76
-10.16
-3.01
4.02
10.28
15.31
18.78
20.52
20.52
18.95
16.27
13.22
10.59
9.03
8.76
9.45
10.38
10.72
9.85
7.71
4.73
1.73
-0.52
-1.49
-1.18
0.02
1.53
2.76
3.32
3.05
1.96
0.21
-1.89
-3.92
-5.46
-6.20
-6.19
-5.83
-5.76
-6.50
-8.17
-10.40
-12.43
-13.50
-13.21
-11.67
-9.44
-7.23
-5.66
-5.00
-5.18
-5.90
-6.75
-7.39
-7.61
-7.34
-6.62
-5.54
-4.11
-2.37
-0.35
1.78
3.73
5.15
5.81
5.68
5.07
4.44
4.21
4.55
5.25
5.82
5.77
4.81
3.02
0.81
-1.33
-3.03
-4.23
-5.11
-5.97
-7.03
-8.34
-9.74
-10.94
-11.63
-11.66
-11.01
-9.93
-8.76
-7.93
-7.75
-8.34
-9.62
-11.32
-13.16
-14.87
-16.38
-17.72
-19.05
-20.55
-22.35
-24.51
-26.97
-29.66
-32.46
-35.30
-38.16
-41.04
-44.01
-47.15
-50.58
-54.35
-58.37
-62.43
-66.22
-69.52
-72.32
-74.97
-78.06
-82.32
-88.17
-95.51
-103.48
-110.49
-114.53
-113.70
-106.83
-93.88
-76.09
-55.60
-34.79
-15.61
0.77
14.02
24.27
31.76
36.68
39.20
39.71
38.87
37.58
36.62
36.36
36.68
37.05
36.94
36.07
34.63
33.20
32.46
32.95
34.91
38.31
42.93
48.41
54.14
59.28
62.65
63.03
59.53
51.92
40.84
27.62
13.83
0.86
-10.37
-19.34
-25.75
-29.31
-29.72
-26.83
-20.95
-12.86
-3.73
5.21
13.03
19.32
24.15
27.91
31.04
33.78
36.08
37.71
38.38
37.97
36.61
34.68
32.64
30.86
29.53
28.57
27.83
27.15
26.46
25.76
24.98
23.99
22.62
20.70
18.20
15.22
11.94
8.58
5.31
2.27
-0.46
-2.91
-5.19
-7.58
-10.40
-13.92
-18.17
-22.79
-27.10
-30.16
-31.11
-29.45
-25.19
-18.84
-11.25
-3.34
4.20
10.94
16.76
21.68
25.68
28.69
30.62
31.48
31.42
30.72
29.72
28.69
27.75
26.92
26.10
25.21
24.18
23.00
21.74
20.49
19.34
18.28
17.25
16.09
14.66
12.80
10.45
7.66
4.55
1.29
-1.93
-4.97
-7.77
-10.40
-13.01
-15.87
-19.15
-22.92
-27.00
-30.99
-34.29
-36.21
-36.19
-33.83
-29.13
-22.40
-14.30
-5.63
2.82
10.47
16.98
22.25
26.30
29.16
30.90
31.56
31.27
30.22
28.66
26.87
25.07
23.39
21.87
20.55
19.43
18.58
18.06
17.88
17.92
17.88
17.38
16.05
13.68
10.36
6.44
2.44
-1.15
-4.13
-6.61
-8.95
-11.58
-14.82
-18.71
-23.11
-27.77
-32.46
-36.90
-40.69
-43.23
-43.83
-41.98
-37.58
-31.06
-23.19
-14.76
-6.37
1.65
9.05
15.47
20.39
23.34
24.17
23.39
21.87
20.34
19.12
18.10
16.91
15.31
13.36
11.46
10.34
10.46
11.72
13.38
14.47
14.24
12.53
9.75
6.67
4.49
3.88
4.59
5.64
6.00
4.97
2.63
-0.56
-4.09
-6.44
-6.88
-6.09
-5.66
-6.86
-10.14
-14.48
-18.58
-21.30
-19.43
-11.24
2.26
18.04
33.23
45.94
56.51
65.54
73.49
84.49
100.97
121.61
142.21
158.99
169.71
175.71
178.76
180.58
187.60
204.09
229.19
257.89
285.12
307.04
323.59
334.46
307.84
229.75
114.74
-4.19
-101.70
-163.73
-202.41
-226.44
-241.34
-250.68
-251.11
-240.52
-221.29
-199.37
-180.13
-166.97
-158.83
-154.16
-150.60
-143.30
-129.81
-111.62
-93.14
-78.54
-70.56
-68.45
-70.82
-75.97
-79.76
-79.00
-73.02
-63.67
-54.09
-46.37
-40.97
-38.25
-38.30
-39.34
-39.20
-36.31
-30.45
-22.53
-14.35
-7.67
-4.10
-4.41
-7.68
-12.50
-17.41
-21.51
-24.46
-26.38
-27.49
-28.10
-28.46
-28.71
-28.96
-29.23
-29.56
-30.05
-30.76
-31.75
-32.94
-34.00
-34.45
-33.77
-31.62
-28.05
-23.43
-18.22
-12.74
-7.08
-1.18
5.03
11.48
17.88
23.74
28.50
31.72
33.20
33.09
31.75
29.66
27.24
24.79
22.45
20.29
18.34
16.60
15.00
13.43
11.79
10.04
8.31
6.78
5.61
4.77
4.06
3.10
1.58
-0.61
-3.29
-6.12
-8.68
-10.67
-12.01
-12.89
-13.63
-14.62
-16.11
-18.08
-20.18
-21.77
-22.14
-20.76
-17.51
-12.74
-7.17
-1.56
3.52
7.81
11.34
14.24
16.52
18.03
18.55
17.96
16.33
13.94
11.19
8.49
6.17
4.42
3.28
2.61
2.14
1.52
0.48
-1.13
-3.28
-5.79
-8.49
-11.26
-14.10
-16.99
-19.86
-22.51
-24.65
-26.04
-26.60
-26.44
-25.82
-25.11
-24.60
-24.43
-24.56
-24.79
-24.77
-24.06
-22.22
-18.90
-13.92
-7.39
0.23
8.28
16.00
22.84
28.52
33.11
36.80
39.74
41.91
43.18
43.46
42.84
41.68
40.44
39.56
39.29
39.59
40.32
41.28
42.40
43.65
44.97
46.17
46.94
46.87
45.71
43.42
40.23
36.58
32.84
29.25
25.79
22.27
18.43
14.03
8.93
3.12
-3.21
-9.67
-15.67
-20.51
-23.59
-24.59
-23.58
-21.06
-17.73
-14.25
-11.06
-8.27
-5.78
-3.37
-0.92
1.54
3.83
5.67
6.85
7.24
6.91
6.04
4.92
3.83
2.96
2.36
1.99
1.73
1.46
1.10
0.59
-0.14
-1.18
-2.59
-4.34
-6.30
-8.22
-9.87
-11.09
-11.96
-12.74
-13.80
-15.42
-17.61
-20.00
-21.92
-22.56
-21.29
-17.98
-13.03
-7.28
-1.70
2.96
6.39
8.69
10.25
11.46
12.52
13.41
13.97
14.07
13.66
12.87
11.88
10.88
9.98
9.22
8.56
7.96
7.37
6.80
6.28
5.80
5.26
4.55
3.57
2.29
0.83
-0.69
-2.12
-3.38
-4.51
-5.57
-6.58
-7.50
-8.23
-8.74
-9.14
-9.67
-10.61
-12.07
-13.92
-15.80
-17.17
-17.55
-16.69
-14.55
-11.35
-7.40
-3.10
1.20
5.17
8.55
11.14
12.92
13.94
14.39
14.44
14.21
13.71
12.89
11.71
10.21
8.56
7.03
5.88
5.22
5.03
5.10
5.17
5.04
4.57
3.78
2.74
1.57
0.40
-0.65
-1.52
-2.15
-2.61
-2.97
-3.36
-3.90
-4.63
-5.56
-6.65
-7.84
-9.10
-10.41
-11.78
-13.24
-14.73
-16.10
-17.10
-17.40
-16.71
-14.90
-12.07
-8.49
-4.55
-0.63
2.99
6.10
8.60
10.41
11.53
11.98
11.79
11.00
9.61
7.66
5.26
2.64
0.12
-1.98
-3.44
-4.17
-4.28
-3.95
-3.35
-2.59
-1.67
-0.56
0.75
2.16
3.45
4.40
4.86
4.82
4.42
3.82
3.16
2.50
1.80
1.00
0.05
-1.06
-2.30
-3.66
-5.17
-6.87
-8.76
-10.89
-13.27
-15.85
-18.46
-20.74
-22.19
-22.39
-21.06
-18.32
-14.54
-10.26
-5.93
-1.73
2.35
6.47
10.70
14.87
18.67
21.70
23.69
24.55
24.38
23.35
21.60
19.24
16.40
13.26
10.15
7.43
5.43
4.29
3.92
4.04
4.32
4.48
4.39
4.09
3.71
3.37
3.14
2.91
2.54
1.84
0.71
-0.83
-2.68
-4.72
-6.87
-9.04
-11.14
-12.94
-14.20
-14.71
-14.46
-13.67
-12.72
-11.94
-11.48
-11.25
-10.99
-10.46
-9.57
-8.39
-7.10
-5.89
-4.81
-3.84
-2.91
-2.01
-1.28
-0.89
-1.07
-1.95
-3.48
-5.49
-7.73
-9.93
-11.92
-13.63
-14.99
-15.97
-16.45
-16.28
-15.30
-13.43
-10.65
-7.07
-2.88
1.69
6.39
11.02
15.43
19.57
23.48
27.23
30.79
34.01
36.53
37.92
37.82
36.05
32.73
28.21
22.95
17.33
11.59
5.81
0.00
-5.70
-11.05
-15.67
-19.16
-21.22
-21.74
-20.77
-18.50
-15.22
-11.24
-6.89
-2.54
1.34
4.31
6.05
6.47
5.84
4.70
3.70
3.34
3.83
4.98
6.42
7.70
8.48
8.65
8.23
7.34
6.14
4.77
3.40
2.22
1.38
0.98
1.03
1.43
1.99
2.46
2.64
2.33
1.49
0.18
-1.38
-2.90
-4.12
-4.88
-5.17
-5.20
-5.28
-5.71
-6.76
-8.49
-10.76
-13.31
-15.74
-17.66
-18.75
-18.86
-18.03
-16.48
-14.59
-12.78
-11.39
-10.54
-10.13
-9.82
-9.20
-7.99
-6.19
-4.04
-1.94
-0.22
0.96
1.63
1.96
2.10
2.14
2.10
1.97
1.80
1.73
1.97
2.73
4.17
6.27
8.78
11.26
13.17
14.05
13.68
12.14
9.80
7.09
4.45
2.12
0.27
-1.02
-1.67
-1.66
-1.07
-0.19
0.55
0.61
-0.45
-2.85
-6.47
-10.81
-15.09
-18.32
-19.64
-18.55
-15.09
-9.85
-3.76
2.16
7.14
10.71
12.77
13.42
12.85
11.40
9.51
7.77
6.72
6.74
7.84
9.66
11.63
13.17
13.90
13.70
12.68
11.04
8.97
6.69
4.39
2.31
0.63
-0.55
-1.33
-1.95
-2.73
-3.91
-5.59
-7.61
-9.69
-11.46
-12.66
-13.13
-12.92
-12.20
-11.25
-10.35
-9.75
-9.57
-9.80
-10.35
-11.02
-11.57
-11.73
-11.15
-9.49
-6.47
-2.08
3.40
9.36
15.02
19.65
22.81
24.39
24.61
23.83
22.43
20.73
18.93
17.17
15.53
14.06
12.81
11.78
11.01
10.51
10.29
10.31
10.42
10.43
10.15
9.48
8.40
6.99
5.35
3.63
1.94
0.36
-1.05
-2.27
-3.37
-4.53
-5.93
-7.80
-10.20
-13.07
-16.15
-19.13
-21.71
-23.74
-25.24
-26.38
-27.43
-28.63
-30.09
-31.76
-33.33
-34.41
-34.57
-33.52
-31.20
-27.87
-23.97
-19.95
-16.20
-12.86
-9.97
-7.44
-5.25
-3.48
-2.26
-1.66
-1.65
-2.03
-2.51
-2.86
-2.98
-2.82
-2.39
-1.65
-0.45
1.28
3.51
5.99
8.30
10.02
10.90
10.88
10.09
8.70
6.81
4.40
1.48
-1.88
-5.43
-8.76
-11.36
-12.82
-12.97
-11.95
-10.24
-8.42
-6.98
-6.15
-5.83
-5.65
-5.18
-4.07
-2.15
0.60
4.13
8.28
12.83
17.39
21.45
24.44
25.89
25.63
23.86
21.06
17.80
14.50
11.38
8.44
5.67
3.14
1.09
-0.18
-0.45
0.23
1.53
3.00
4.21
4.97
5.33
5.46
5.52
5.54
5.37
4.80
3.72
2.22
0.60
-0.76
-1.44
-1.25
-0.23
1.36
3.10
4.60
5.59
5.98
5.80
5.15
4.06
2.49
0.43
-2.03
-4.54
-6.65
-7.88
-7.97
-7.00
-5.32
-3.45
-1.86
-0.87
-0.64
-1.22
-2.58
-4.60
-7.06
-9.60
-11.82
-13.30
-13.79
-13.27
-11.96
-10.27
-8.69
-7.61
-7.21
-7.44
-7.93
-8.20
-7.79
-6.38
-3.91
-0.58
3.24
7.11
10.64
13.54
15.67
17.07
17.95
18.61
19.38
20.49
21.94
23.54
24.90
25.58
25.24
23.68
20.80
16.61
11.17
4.64
-2.62
-9.99
-16.71
-22.04
-25.42
-26.73
-26.19
-24.31
-21.64
-18.64
-15.62
-12.74
-10.12
-7.84
-5.95
-4.46
-3.38
-2.71
-2.46
-2.64
-3.19
-3.97
-4.78
-5.44
-5.80
-5.82
-5.52
-4.95
-4.18
-3.30
-2.45
-1.81
-1.57
-1.89
-2.78
-4.19
-5.97
-8.00
-10.19
-12.50
-14.89
-17.24
-19.29
-20.72
-21.18
-20.46
-18.59
-15.85
-12.74
-9.77
-7.30
-5.43
-3.98
-2.59
-0.88
1.42
4.37
7.81
11.43
14.95
18.17
21.00
23.43
25.44
26.97
27.92
28.28
28.12
27.70
27.30
27.14
27.28
27.51
27.46
26.74
25.06
22.38
18.93
15.13
11.43
8.15
5.41
3.10
1.02
-1.03
-3.12
-5.26
-7.40
-9.51
-11.56
-13.55
-15.38
-16.97
-18.26
-19.21
-19.87
-20.32
-20.61
-20.78
-20.83
-20.81
-20.82
-20.94
-21.24
-21.66
-22.08
-22.27
-21.96
-20.91
-18.93
-15.98
-12.21
-7.97
-3.72
0.08
3.11
5.24
6.52
7.15
7.30
7.17
6.90
6.63
6.51
6.59
6.88
7.28
7.65
7.90
7.99
7.96
7.87
7.79
7.71
7.66
7.70
7.93
8.49
9.45
10.69
11.95
12.88
13.18
12.72
11.45
9.38
6.53
2.90
-1.39
-6.04
-10.52
-14.25
-16.79
-18.02
-18.16
-17.56
-16.56
-15.25
-13.53
-11.32
-8.66
-5.84
-3.20
-1.02
0.67
2.07
3.44
4.93
6.50
7.95
9.08
9.79
10.09
10.07
9.76
9.18
8.34
7.30
6.19
5.15
4.23
3.39
2.55
1.63
0.66
-0.30
-1.19
-2.08
-3.15
-4.56
-6.35
-8.29
-10.00
-11.09
-11.39
-11.01
-10.36
-9.90
-9.97
-10.60
-11.62
-12.70
-13.59
-14.15
-14.28
-13.88
-12.72
-10.44
-6.75
-1.57
4.81
11.75
18.40
23.98
28.01
30.34
31.09
30.53
28.91
26.44
23.38
20.10
17.02
14.59
13.03
12.34
12.25
12.39
12.51
12.50
12.37
12.13
11.74
11.06
9.95
8.41
6.59
4.78
3.25
2.17
1.48
1.02
0.50
-0.36
-1.74
-3.73
-6.29
-9.29
-12.55
-15.89
-19.17
-22.26
-25.05
-27.37
-29.07
-29.99
-30.06
-29.19
-27.30
-24.28
-20.03
-14.60
-8.22
-1.41
5.25
11.27
16.45
20.91
24.90
28.64
32.04
34.77
36.37
36.52
35.18
32.62
29.32
25.77
22.38
19.40
16.94
15.02
13.55
12.38
11.28
10.03
8.50
6.70
4.78
2.95
1.36
0.08
-0.97
-1.89
-2.72
-3.42
-3.89
-4.03
-3.86
-3.53
-3.36
-3.70
-4.89
-7.19
-10.67
-15.20
-20.47
-25.95
-31.01
-34.96
-37.25
-37.53
-35.76
-32.25
-27.49
-22.09
-16.61
-11.46
-6.91
-3.18
-0.46
1.06
1.29
0.34
-1.39
-3.30
-4.74
-5.24
-4.66
-3.19
-1.21
0.85
2.65
4.01
4.86
5.21
5.13
4.70
4.04
3.27
2.48
1.67
0.76
-0.32
-1.61
-3.07
-4.61
-6.14
-7.59
-8.99
-10.39
-11.87
-13.52
-15.38
-17.46
-19.72
-22.02
-24.13
-25.71
-26.36
-25.77
-23.80
-20.52
-16.24
-11.39
-6.43
-1.70
2.61
6.48
10.01
13.32
16.46
19.40
22.05
24.32
26.20
27.77
29.14
30.37
31.32
31.66
30.97
28.96
25.67
21.52
17.23
13.55
10.98
9.66
9.37
9.69
10.15
10.38
10.07
8.99
6.97
3.91
-0.06
-4.55
-8.91
-12.41
-14.48
-14.97
-14.21
-12.91
-11.90
-11.83
-12.86
-14.65
-16.52
-17.79
-18.08
-17.45
-16.32
-15.18
-14.31
-13.68
-12.99
-11.95
-10.44
-8.58
-6.66
-4.97
-3.61
-2.60
-1.91
-1.60
-1.86
-2.83
-4.52
-6.69
-8.94
-10.82
-12.00
-12.37
-11.99
-10.98
-9.41
-7.31
-4.70
-1.68
1.48
4.52
7.21
9.57
11.88
14.56
17.97
22.14
26.67
30.87
34.02
35.57
35.37
33.57
30.45
26.28
21.26
15.67
9.99
4.83
0.85
-1.56
-2.43
-2.24
-1.72
-1.49
-1.84
-2.65
-3.58
-4.25
-4.52
-4.50
-4.44
-4.59
-5.04
-5.70
-6.34
-6.73
-6.68
-6.13
-5.09
-3.60
-1.75
0.35
2.46
4.28
5.50
5.97
5.70
4.86
3.73
2.50
1.28
0.05
-1.18
-2.40
-3.55
-4.62
-5.68
-6.89
-8.44
-10.45
-12.94
-15.77
-18.73
-21.55
-23.94
-25.66
-26.50
-26.38
-25.26
-23.29
-20.69
-17.71
-14.63
-11.68
-9.05
-6.86
-5.13
-3.75
-2.54
-1.36
-0.15
1.02
2.03
2.76
3.20
3.41
3.53
3.68
3.89
4.13
4.32
4.44
4.55
4.82
5.46
6.61
8.37
10.64
13.28
16.06
18.78
21.30
23.49
25.25
26.42
26.91
26.66
25.74
24.29
22.45
20.35
17.98
15.24
12.03
8.27
3.98
-0.65
-5.27
-9.42
-12.60
-14.37
-14.52
-13.13
-10.61
-7.57
-4.63
-2.22
-0.53
0.53
1.15
1.55
1.83
2.00
1.97
1.70
1.16
0.41
-0.45
-1.34
-2.18
-2.92
-3.55
-4.04
-4.39
-4.61
-4.75
-4.84
-4.97
-5.19
-5.49
-5.84
-6.19
-6.47
-6.67
-6.77
-6.75
-6.59
-6.23
-5.64
-4.82
-3.85
-2.85
-1.93
-1.23
-0.90
-1.06
-1.77
-2.87
-4.00
-4.65
-4.42
-3.14
-0.97
1.67
4.34
6.77
8.86
10.67
12.22
13.45
14.24
14.53
14.36
13.86
13.13
12.20
11.04
9.62
8.04
6.54
5.31
4.46
3.91
3.43
2.83
2.00
1.02
0.03
-0.85
-1.59
-2.30
-3.08
-4.01
-5.08
-6.23
-7.40
-8.63
-9.96
-11.44
-13.08
-14.73
-16.22
-17.40
-18.26
-18.92
-19.58
-20.42
-21.37
-22.20
-22.51
-21.91
-20.23
-17.51
-14.05
-10.20
-6.26
-2.46
1.05
4.13
6.71
8.73
10.24
11.36
12.17
12.75
13.07
13.07
12.74
12.15
11.42
10.76
10.30
10.14
10.31
10.78
11.47
12.24
12.91
13.29
13.26
12.77
11.89
10.72
9.42
8.09
6.81
5.61
4.44
3.23
1.86
0.26
-1.57
-3.55
-5.52
-7.37
-9.01
-10.50
-11.89
-13.28
-14.64
-15.81
-16.52
-16.42
-15.31
-13.13
-10.09
-6.55
-2.93
0.45
3.42
5.96
8.15
10.02
11.57
12.77
13.59
14.05
14.18
14.06
13.77
13.43
13.12
12.92
12.85
12.86
12.83
12.64
12.23
11.56
10.68
9.61
8.36
6.91
5.34
3.73
2.25
1.03
0.09
-0.63
-1.29
-2.07
-3.05
-4.22
-5.49
-6.75
-8.00
-9.32
-10.90
-12.85
-15.12
-17.38
-19.18
-20.01
-19.56
-17.84
-15.17
-12.04
-8.93
-6.14
-3.74
-1.68
0.15
1.71
2.93
3.70
4.00
3.97
3.77
3.59
3.45
3.30
3.05
2.67
2.25
1.99
2.08
2.55
3.32
4.16
4.85
5.27
5.43
5.45
5.40
5.32
5.13
4.69
3.90
2.75
1.35
-0.17
-1.73
-3.35
-5.16
-7.25
-9.61
-12.10
-14.49
-16.59
-18.27
-19.48
-20.15
-20.13
-19.28
-17.51
-14.97
-11.98
-8.96
-6.25
-4.01
-2.20
-0.71
0.53
1.54
2.22
2.55
2.56
2.35
2.02
1.59
1.05
0.38
-0.35
-0.95
-1.17
-0.74
0.52
2.59
5.24
8.10
10.73
12.78
14.02
14.44
14.22
13.68
13.13
12.84
12.93
13.44
14.36
15.74
17.60
19.92
22.50
25.00
26.93
27.78
27.12
24.64
20.25
14.09
6.62
-1.37
-8.85
-14.69
-18.00
-18.42
-16.19
-12.11
-7.24
-2.56
1.23
3.84
5.30
5.81
5.57
4.78
3.58
2.12
0.59
-0.79
-1.86
-2.53
-2.88
-3.04
-3.21
-3.45
-3.75
-3.98
-4.03
-3.88
-3.65
-3.55
-3.80
-4.48
-5.52
-6.71
-7.80
-8.66
-9.33
-9.95
-10.72
-11.69
-12.80
-13.90
-14.83
-15.55
-16.09
-16.53
-16.97
-17.45
-17.99
-18.58
-19.15
-19.53
-19.48
-18.74
-17.14
-14.75
-11.83
-8.78
-5.86
-3.16
-0.56
2.13
4.97
7.81
10.32
12.14
13.07
13.17
12.70
12.06
11.55
11.34
11.48
11.93
12.67
13.62
14.71
15.73
16.40
16.42
15.58
13.83
11.38
8.60
5.89
3.56
1.68
0.12
-1.43
-3.24
-5.39
-7.73
-9.88
-11.35
-11.72
-10.79
-8.64
-5.69
-2.58
0.03
1.63
2.00
1.27
-0.16
-1.70
-2.76
-2.82
-1.55
1.07
4.78
9.06
13.29
16.90
19.50
20.94
21.32
20.79
19.58
17.85
15.80
13.63
11.61
9.95
8.77
8.04
7.59
7.18
6.56
5.53
4.04
2.18
0.20
-1.61
-2.92
-3.58
-3.63
-3.28
-2.85
-2.58
-2.60
-2.89
-3.46
-4.31
-5.55
-7.26
-9.39
-11.76
-14.08
-16.16
-17.97
-19.65
-21.38
-23.22
-24.95
-26.19
-26.51
-25.63
-23.57
-20.62
-17.18
-13.67
-10.31
-7.14
-4.05
-0.93
2.27
5.44
8.36
10.78
12.46
13.25
13.07
11.98
10.15
7.92
5.67
3.77
2.45
1.74
1.46
1.35
1.12
0.63
-0.17
-1.21
-2.41
-3.62
-4.73
-5.63
-6.26
-6.60
-6.76
-6.88
-7.07
-7.39
-7.77
-8.10
-8.25
-8.21
-8.07
-8.01
-8.22
-8.79
-9.69
-10.76
-11.77
-12.46
-12.60
-12.04
-10.70
-8.63
-5.92
-2.79
0.54
3.77
6.63
8.89
10.46
11.37
11.85
12.16
12.55
13.11
13.79
14.44
14.98
15.51
16.32
17.77
20.14
23.44
27.37
31.39
34.92
37.48
38.82
38.92
37.88
35.87
33.06
29.66
25.94
22.17
18.60
15.33
12.36
9.51
6.67
3.74
0.79
-2.04
-4.60
-6.82
-8.77
-10.57
-12.30
-13.91
-15.14
-15.62
-15.05
-13.29
-10.49
-7.03
-3.38
-0.01
2.76
4.82
6.21
7.04
7.44
7.51
7.25
6.60
5.46
3.79
1.66
-0.71
-3.04
-5.12
-6.83
-8.27
-9.61
-11.08
-12.82
-14.88
-17.20
-19.68
-22.19
-24.63
-26.90
-28.87
-30.44
-31.47
-31.87
-31.61
-30.75
-29.45
-27.92
-26.31
-24.74
-23.25
-21.89
-20.72
-19.81
-19.26
-19.07
-19.11
-19.10
-18.63
-17.22
-14.45
-10.12
-4.34
2.51
9.81
16.91
23.32
28.82
33.45
37.34
40.49
42.71
43.64
42.99
40.72
37.23
33.21
29.39
26.31
24.08
22.45
21.00
19.36
17.36
14.97
12.18
8.93
5.11
0.68
-4.15
-8.92
-13.02
-15.95
-17.53
-18.02
-18.01
-18.15
-18.91
-20.42
-22.51
-24.90
-27.36
-29.84
-32.46
-35.40
-38.74
-42.39
-46.10
-49.54
-52.32
-54.08
-54.47
-53.29
-50.57
-46.69
-42.26
-37.89
-33.95
-30.33
-26.34
-20.96
-13.15
-2.26
11.70
27.97
45.14
61.46
75.29
85.46
91.50
93.66
92.72
89.70
85.60
81.23
77.06
73.27
69.65
65.68
60.73
54.26
46.15
36.69
26.54
16.45
7.00
-1.53
-9.14
-15.85
-21.66
-26.43
-30.05
-32.53
-34.14
-35.31
-36.54
-38.15
-40.16
-42.23
-43.79
-44.27
-43.39
-41.23
-38.23
-35.02
-32.14
-29.85
-28.10
-26.60
-25.10
-23.43
-21.63
-19.87
-18.35
-17.13
-16.06
-14.84
-13.09
-10.56
-7.12
-2.76
2.42
8.21
14.30
20.30
25.83
30.59
34.42
37.46
40.02
42.38
44.61
46.54
47.92
48.64
48.86
48.75
48.60
48.63
48.81
48.79
48.06
46.17
42.92
38.39
32.54
25.70
18.38
11.04
3.84
-3.29
-10.45
-17.65
-24.89
-32.83
-41.80
-51.66
-61.95
-72.12
-81.67
-90.21
-97.44
-103.13
-107.76
-110.98
-111.66
-108.50
-100.97
-89.78
-76.84
-64.68
-50.89
-36.20
-22.99
-12.99
-5.55
1.27
8.74
16.57
23.40
28.03
29.49
28.53
27.10
27.14
29.55
33.99
39.41
44.79
49.54
52.98
55.03
56.06
56.43
56.24
55.36
53.67
51.26
48.40
45.02
41.19
37.27
33.02
28.26
22.92
17.25
11.86
7.52
4.65
3.40
3.56
4.65
6.06
7.32
8.06
8.26
8.08
7.74
7.48
7.53
7.95
8.69
9.65
10.55
11.27
11.83
12.29
12.73
13.09
13.08
12.21
10.67
8.36
5.33
1.83
-1.80
-5.16
-8.01
-10.27
-12.07
-13.68
-15.57
-18.13
-21.55
-25.72
-30.12
-33.73
-35.15
-32.91
-25.94
-14.20
1.17
18.06
33.97
46.93
56.02
61.56
64.68
66.58
67.84
68.34
67.50
64.75
59.94
53.43
45.89
37.94
29.87
21.66
13.14
4.27
-4.69
-13.23
-20.80
-27.08
-32.12
-36.25
-39.77
-42.77
-44.93
-45.78
-44.94
-42.41
-38.67
-34.50
-30.75
-28.02
-26.60
-26.37
-26.84
-27.31
-26.98
-25.22
-21.84
-17.32
-12.70
-9.11
-7.19
-6.78
-7.09
-7.08
-6.03
-3.89
-1.17
1.32
3.15
4.45
5.77
7.51
9.59
11.33
11.77
10.10
5.76
-0.99
-9.14
-17.27
-24.05
-28.50
-30.10
-28.82
-25.15
-20.73
-17.01
-14.64
-13.61
-13.68
-14.59
-16.11
-18.16
-20.83
-25.72
-33.44
-42.90
-52.08
-59.38
-64.13
-66.43
-66.98
-66.87
-69.39
-76.18
-86.11
-96.60
-105.73
-112.85
-118.13
-122.05
-124.97
-129.73
-137.06
-144.67
-149.41
-149.72
-145.81
-138.38
-127.56
-95.07
-37.22
32.37
94.57
139.05
165.37
177.90
182.28
183.38
184.23
182.64
176.16
164.32
148.04
128.44
107.00
86.02
68.04
54.66
43.66
32.13
19.94
8.81
0.66
-2.99
-1.53
4.41
13.07
20.72
24.84
25.38
23.84
21.77
20.31
20.12
21.45
24.23
27.47
30.40
33.06
36.05
39.33
42.47
44.88
46.00
45.47
43.03
38.89
33.90
29.05
24.95
21.81
19.44
17.49
15.60
13.50
11.08
8.27
4.96
1.14
-2.92
-6.50
-8.71
-8.89
-7.05
-4.16
-1.75
-1.36
-3.80
-8.91
-15.76
-23.34
-30.99
-38.55
-46.02
-53.09
-58.98
-62.64
-63.26
-60.73
-55.76
-49.53
-43.28
-37.91
-33.86
-31.13
-29.43
-28.17
-26.54
-23.79
-19.51
-14.01
-8.37
-4.13
-2.75
-4.90
-10.07
-16.71
-22.81
-26.79
-28.19
-28.09
-28.73
-32.96
-43.19
-60.43
-83.49
-108.83
-131.02
-143.98
-142.62
-124.29
-90.07
-45.02
2.88
44.77
73.52
85.85
83.00
70.19
54.68
43.21
39.79
45.06
56.71
71.00
83.92
92.17
93.86
89.14
79.83
68.67
58.41
50.96
46.94
45.79
46.16
47.20
49.31
53.41
59.47
65.87
69.91
68.99
61.78
48.36
30.23
9.91
-10.30
-29.14
-45.71
-58.33
-64.26
-58.30
-38.77
-11.51
14.28
32.71
42.75
46.58
47.20
46.31
43.49
36.35
22.72
2.97
-19.74
-41.04
-57.29
-66.87
-70.53
-71.35
-71.38
-71.42
-70.57
-67.16
-60.29
-50.44
-39.03
-27.69
-16.62
-6.35
3.36
13.09
22.80
31.35
37.03
39.44
37.94
33.14
26.31
18.92
12.15
6.58
2.10
-1.83
-5.57
-9.21
-12.21
-13.90
-13.90
-12.47
-10.52
-9.28
-9.91
-12.83
-17.66
-23.12
-27.88
-31.22
-33.26
-34.76
-36.53
-38.94
-41.75
-44.28
-45.52
-44.74
-41.81
-37.36
-32.59
-28.91
-27.47
-28.55
-31.12
-32.76
-30.66
-22.83
-8.82
10.48
33.34
57.93
82.66
106.38
128.29
147.26
161.40
168.50
167.11
156.97
139.14
115.22
87.34
58.14
30.42
6.81
-10.41
-19.34
-19.55
-12.46
-1.33
7.91
10.91
8.35
4.84
3.64
4.02
2.25
-3.52
-15.03
-31.01
-48.14
-63.51
-76.51
-88.83
-99.22
-105.60
-105.84
-99.31
-86.28
-67.50
-44.78
-20.99
0.48
16.96
26.91
31.71
32.44
30.84
28.85
27.60
27.18
27.08
27.10
27.26
27.93
29.20
29.90
29.53
27.65
24.00
18.75
12.51
6.01
0.07
-4.62
-7.26
-7.13
-4.44
-0.51
2.55
2.64
-1.65
-10.38
-22.44
-35.91
-48.71
-59.40
-67.30
-72.26
-74.38
-74.01
-71.77
-68.70
-65.88
-63.97
-62.92
-61.90
-59.56
-54.65
-46.54
-35.48
-22.44
-8.65
4.84
17.38
28.52
37.85
44.94
49.43
51.21
50.51
47.97
44.45
40.99
38.15
35.77
33.16
29.44
23.94
16.28
6.72
-3.89
-13.57
-20.09
-21.67
-17.36
-7.50
6.01
19.82
30.27
34.71
33.34
28.31
22.63
19.04
19.28
23.58
30.59
38.48
45.66
52.38
59.16
65.91
71.81
75.99
77.92
77.50
75.66
67.43
52.39
34.90
20.29
10.11
2.52
-3.90
-11.61
-20.94
-30.86
-38.89
-43.53
-44.51
-42.72
-39.45
-35.71
-32.34
-29.45
-26.97
-24.08
-20.69
-17.75
-16.72
-18.44
-22.63
-28.10
-33.02
-35.87
-35.57
-32.30
-27.45
-22.74
-19.32
-17.48
-17.01
-17.45
-18.58
-20.07
-21.57
-22.60
-22.56
-20.81
-17.10
-11.87
-6.01
-0.59
3.70
6.75
8.85
10.45
11.89
13.16
13.95
13.85
12.66
10.53
8.00
5.78
4.43
4.17
4.76
5.68
6.35
6.37
5.70
4.50
3.07
1.58
0.04
-1.75
-4.00
-6.81
-10.07
-13.46
-16.70
-19.59
-22.11
-24.36
-26.55
-28.85
-31.39
-34.19
-37.11
-39.87
-42.03
-43.09
-42.57
-40.19
-35.95
-30.15
-23.21
-15.56
-7.52
0.58
8.38
15.44
21.23
25.27
27.34
27.74
27.17
26.35
25.67
25.08
24.20
22.61
20.07
16.68
13.20
10.61
9.52
9.88
10.95
11.75
11.33
9.09
4.89
-0.27
-4.88
-7.66
-8.26
-7.18
-5.33
-3.52
-2.06
-0.72
1.87
7.15
15.81
27.44
41.04
55.96
72.18
89.83
103.45
106.94
96.80
75.34
49.00
24.63
6.94
-2.55
-5.61
-6.24
-7.82
-11.82
-17.39
-22.32
-24.49
-22.97
-18.66
-13.89
-11.38
-12.24
-15.89
-20.78
-25.39
-28.89
-31.06
-32.00
-31.87
-30.75
-28.26
-24.03
-18.10
-11.13
-4.25
1.52
5.47
7.37
7.36
6.12
4.38
2.69
1.20
-0.33
-2.19
-4.57
-7.28
-9.88
-11.66
-12.01
-10.68
-7.87
-4.17
-0.32
2.95
5.19
6.23
6.24
5.62
4.76
4.04
3.66
3.67
3.94
4.24
4.36
4.20
3.79
3.22
2.70
2.43
2.54
2.93
3.27
3.03
1.63
-0.64
-3.59
-6.85
-10.02
-12.80
-15.22
-17.56
-20.26
-23.69
-27.89
-32.64
-37.36
-41.41
-44.37
-46.18
-47.20
-47.99
-49.21
-51.40
-54.92
-59.57
-64.28
-66.98
-64.95
-55.66
-37.91
-12.69
16.92
46.68
72.72
92.69
106.01
113.19
114.81
110.95
101.37
86.26
66.84
45.51
25.15
8.10
-4.56
-13.06
-18.46
-21.97
-24.44
-26.27
-27.52
-28.16
-28.14
-27.49
-26.22
-24.33
-21.78
-18.51
-14.34
-9.06
-2.36
5.97
15.77
26.45
36.97
46.09
52.74
56.34
56.85
54.82
51.17
47.10
43.85
42.51
43.68
47.23
52.15
56.88
59.81
59.87
56.93
51.69
45.27
38.60
32.07
25.56
18.81
11.84
5.14
-0.57
-4.63
-6.84
-7.51
-7.40
-7.37
-8.09
-9.82
-12.38
-15.23
-17.66
-18.99
-18.78
-17.03
-14.21
-11.17
-8.88
-8.05
-8.94
-11.35
-14.85
-19.02
-23.66
-28.74
-34.28
-40.27
-46.50
-52.56
-57.69
-60.84
-60.74
-56.27
-46.94
-33.33
-17.19
-0.98
12.87
22.70
27.99
29.22
27.34
23.28
17.72
11.18
4.19
-2.54
-8.25
-12.39
-14.83
-15.91
-16.24
-16.45
-16.91
-17.56
-18.05
-17.88
-16.73
-14.65
-12.14
-10.02
-9.04
-9.63
-11.62
-14.37
-17.00
-18.83
-19.65
-19.80
-19.95
-20.77
-22.68
-25.73
-29.68
-34.06
-38.21
-41.19
-41.88
-39.22
-32.65
-22.52
-10.22
2.14
12.35
18.82
20.99
19.40
15.31
10.20
5.25
1.20
-1.83
-4.22
-6.67
-10.02
-14.88
-21.36
-28.92
-36.41
-42.39
-45.71
-46.08
-44.50
-43.24
-45.30
-53.31
-68.19
-88.06
-107.96
-120.90
-119.95
-100.84
-64.06
-15.48
34.83
75.55
97.66
97.47
77.83
47.12
16.40
-4.29
-8.82
3.77
29.92
63.61
98.58
129.92
154.72
171.88
181.60
185.02
183.93
180.50
176.74
173.82
171.58
168.33
161.44
148.29
127.42
99.27
66.26
32.14
0.95
-24.17
-41.59
-51.38
-54.90
-54.10
-50.87
-46.67
-42.32
-38.10
-33.83
-29.18
-23.90
-18.00
-11.82
-5.91
-0.83
3.03
5.53
6.77
6.93
6.14
4.44
1.78
-1.88
-6.56
-12.14
-18.34
-24.75
-30.90
-36.45
-41.36
-46.03
-51.15
-57.52
-65.64
-75.38
-85.89
-95.75
-103.36
-107.34
-107.03
-102.63
-95.33
-87.07
-80.00
-75.95
-75.82
-79.31
-85.11
-91.53
-97.11
-101.18
-103.97
-106.16
-108.37
-110.71
-112.66
-113.36
-111.88
-107.48
-99.67
-88.29
-73.59
-56.48
-38.59
-22.25
-9.93
-3.48
-3.43
-8.62
-16.40
-23.39
-26.47
-23.70
-14.68
-0.56
16.66
34.66
51.45
65.67
76.60
83.99
87.88
88.64
86.91
83.63
79.85
76.49
74.06
72.57
71.70
71.06
70.47
70.05
70.09
70.80
72.12
73.59
74.56
74.40
72.82
69.99
66.44
62.94
60.16
58.50
57.97
58.26
58.82
59.03
58.35
56.29
52.52
46.82
39.24
30.16
20.27
10.60
2.29
-3.66
-6.66
-6.78
-4.85
-2.32
-1.00
-2.51
-7.87
-17.19
-29.69
-43.97
-58.45
-71.84
-83.32
-92.47
-99.11
-103.10
-104.30
-102.74
-98.72
-92.88
-86.04
-78.84
-71.52
-63.89
-55.56
-46.30
-36.33
-26.36
-17.43
-10.55
-6.38
-5.08
-6.28
-9.31
-13.47
-18.10
-22.71
-26.80
-29.85
-31.22
-30.41
-27.29
-22.37
-16.84
-12.07
-8.87
-6.94
-4.75
-0.24
8.28
21.16
37.08
53.38
67.20
76.49
80.65
80.19
76.31
70.39
63.69
57.33
51.95
47.92
45.45
44.51
44.70
45.49
46.49
47.58
48.64
48.94
47.50
43.70
37.70
30.18
22.18
14.93
9.14
4.75
0.45
-5.24
-13.04
-22.62
-33.20
-43.67
-52.32
-57.18
-53.73
-39.34
-16.33
8.91
30.22
43.87
49.33
48.84
46.10
44.81
46.91
52.22
58.69
63.00
62.16
52.78
34.25
9.01
-18.08
-42.13
-59.67
-69.60
-70.56
-65.71
-59.49
-54.65
-51.77
-49.95
-48.49
-46.90
-44.60
-40.59
-34.27
-25.59
-15.40
-6.07
0.38
2.08
-0.95
-6.30
-9.96
-8.49
-0.27
13.85
29.86
43.32
51.21
53.10
50.59
46.03
41.03
36.26
31.94
28.34
26.39
26.96
30.17
34.59
37.47
35.55
26.77
11.52
-7.33
-25.39
-38.79
-45.61
-46.67
-44.08
-40.21
-36.55
-33.24
-29.68
-25.28
-20.33
-15.93
-13.38
-13.31
-15.38
-18.52
-21.50
-23.59
-24.52
-24.76
-25.01
-25.94
-27.77
-30.26
-32.88
-35.09
-36.43
-36.10
-33.78
-29.67
-24.57
-19.26
-14.14
-9.24
-4.27
1.15
8.40
17.07
26.49
35.68
43.94
51.07
57.15
62.22
66.26
70.44
75.71
82.41
90.10
98.23
106.34
114.06
121.02
119.72
106.82
84.87
60.12
37.25
17.60
0.72
-13.75
-25.38
-33.21
-35.35
-31.14
-21.99
-10.93
-1.06
5.66
8.53
8.02
5.52
3.65
4.64
9.28
16.75
25.53
34.06
41.30
46.71
50.12
51.17
49.73
45.42
37.90
27.53
15.46
3.40
-7.08
-15.15
-20.78
-24.77
-28.45
-32.84
-38.02
-43.22
-47.39
-49.99
-51.40
-52.70
-55.16
-59.84
-67.27
-77.34
-89.35
-102.14
-114.07
-123.15
-127.35
-125.22
-116.70
-103.47
-88.61
-75.66
-67.35
-64.56
-66.17
-69.80
-73.01
-74.41
-73.86
-71.91
-68.87
-64.22
-56.83
-45.68
-30.82
-13.59
3.77
19.13
31.33
40.47
47.49
53.45
58.87
63.49
66.63
67.64
66.19
62.53
57.40
51.81
46.64
42.48
39.46
37.38
35.98
35.10
34.70
34.70
34.94
35.14
34.99
34.27
32.81
30.63
27.86
24.72
21.56
18.76
16.71
15.63
15.46
15.57
15.18
13.67
10.81
6.89
2.75
-0.25
-0.50
3.50
12.44
26.13
43.30
61.38
76.63
85.02
83.62
71.61
50.61
23.70
-4.83
-30.31
-49.02
-59.28
-61.30
-56.46
-46.69
-34.15
-21.94
-12.47
-6.46
-3.37
-2.45
-3.16
-5.11
-8.13
-12.46
-19.83
-31.42
-46.63
-63.49
-79.85
-93.33
-101.03
-99.76
-80.44
-42.38
3.29
41.82
65.50
75.18
76.17
73.96
71.50
68.23
60.58
46.37
27.45
8.80
-4.74
-10.94
-10.93
-8.06
-6.33
-9.21
-17.23
-27.80
-37.09
-42.50
-43.30
-41.11
-37.17
-32.91
-29.86
-28.46
-27.88
-26.82
-24.49
-20.68
-15.54
-9.28
-2.55
3.31
6.96
7.69
5.81
2.46
-0.76
-2.59
-2.61
-1.62
-1.03
-1.91
-4.47
-7.98
-11.98
-15.96
-19.74
-23.24
-26.30
-28.39
-28.76
-26.87
-22.61
-16.36
-8.81
-0.86
6.64
13.03
18.05
21.90
25.09
28.22
31.72
35.71
39.85
43.61
46.43
48.01
48.31
47.53
45.97
43.89
41.58
39.18
36.71
34.11
31.29
28.16
24.80
21.38
18.17
15.40
13.14
11.25
9.43
7.38
4.88
1.95
-1.22
-4.33
-7.12
-9.49
-11.58
-13.60
-15.78
-18.22
-20.85
-23.52
-26.00
-28.05
-29.34
-29.53
-28.19
-25.06
-20.17
-13.95
-7.14
-0.58
5.03
9.35
12.40
14.41
15.66
16.38
16.68
16.59
16.17
15.49
14.64
13.69
12.72
11.75
10.76
9.68
8.48
7.14
5.77
4.51
3.47
2.66
1.92
0.99
-0.37
-2.27
-4.61
-7.13
-9.52
-11.54
-13.15
-14.49
-15.86
-17.57
-19.83
-22.65
-25.75
-28.61
-30.54
-30.86
-29.12
-25.31
-19.81
-13.42
-7.05
-1.51
2.77
5.78
7.83
9.39
10.81
12.22
13.55
14.57
15.15
15.24
14.95
14.45
13.92
13.51
13.33
13.45
13.85
14.44
14.95
15.11
14.64
13.43
11.52
9.12
6.52
3.97
1.66
-0.35
-2.07
-3.63
-5.22
-7.08
-9.39
-12.15
-15.08
-17.63
-19.10
-18.95
-16.97
-13.36
-8.68
-3.57
1.42
5.94
9.84
13.01
15.37
16.84
17.41
17.19
16.48
15.55
14.59
13.65
12.61
11.35
9.87
8.31
6.93
5.90
5.25
4.79
4.26
3.41
2.16
0.59
-1.14
-2.87
-4.48
-5.96
-7.37
-8.83
-10.49
-12.53
-15.05
-17.98
-21.02
-23.62
-25.20
-25.24
-23.54
-20.24
-15.76
-10.67
-5.54
-0.77
3.34
6.64
9.11
10.71
11.48
11.44
10.69
9.42
7.87
6.29
4.89
3.79
2.98
2.38
1.88
1.35
0.70
-0.17
-1.27
-2.56
-3.90
-5.07
-5.91
-6.39
-6.69
-7.10
-7.89
-9.11
-10.59
-12.04
-13.30
-14.31
-15.10
-15.56
-15.31
-13.84
-10.68
-5.78
0.45
7.13
13.30
18.26
21.71
23.70
24.42
24.08
22.86
20.99
18.78
16.58
14.73
13.32
12.20
10.97
9.45
7.83
6.65
6.45
7.44
9.36
11.45
12.75
12.38
10.15
6.63
2.81
-0.64
-3.46
-5.68
-7.57
-9.33
-11.37
-13.83
-16.40
-18.54
-19.93
-20.37
-19.74
-18.33
-16.69
-16.02
-17.21
-20.34
-24.75
-29.58
-33.59
-35.15
-32.76
-23.99
-9.52
6.42
18.82
26.34
29.28
28.51
25.49
20.93
16.37
12.77
10.80
11.03
13.85
17.90
21.43
22.22
18.11
8.17
-6.78
-23.48
-36.92
-42.52
-38.50
-26.46
-10.67
3.87
13.59
17.31
16.48
14.01
12.55
13.17
15.37
17.77
19.28
19.19
17.45
14.39
10.40
5.67
0.17
-5.99
-12.29
-17.81
-21.47
-22.57
-21.11
-17.83
-13.90
-10.35
-7.69
-5.67
-3.50
-0.36
4.30
10.55
17.49
23.86
28.55
31.04
31.37
30.08
27.84
25.29
22.85
20.66
18.72
16.91
15.03
12.87
10.22
6.97
3.19
-0.76
-4.21
-6.24
-5.95
-2.85
2.87
10.28
17.96
24.61
29.38
32.17
33.45
33.86
33.82
33.32
32.05
29.67
26.10
21.58
16.49
11.07
5.20
-1.53
-9.59
-19.08
-29.53
-39.95
-49.20
-56.35
-61.14
-63.87
-65.26
-65.98
-66.47
-66.86
-67.01
-66.69
-65.69
-63.83
-60.98
-57.16
-52.57
-47.66
-43.07
-39.41
-37.09
-36.00
-35.52
-34.64
-32.26
-27.64
-20.57
-11.57
-1.67
7.91
16.08
22.16
25.96
27.71
27.77
26.59
24.59
22.19
19.81
17.95
17.09
17.56
19.49
22.57
26.28
30.04
33.40
36.18
38.41
40.29
41.96
43.37
44.14
43.83
42.12
38.95
34.51
29.19
23.41
17.50
11.63
5.57
-0.82
-7.26
-13.25
-18.39
-22.63
-26.29
-29.83
-33.55
-37.86
-42.37
-45.72
-46.18
-42.68
-35.28
-25.05
-13.62
-2.66
5.91
11.21
14.10
16.35
19.26
22.91
26.39
28.19
26.92
20.78
9.17
-6.58
-24.08
-41.22
-56.46
-68.44
-75.90
-71.72
-54.01
-29.80
-9.92
-0.69
-1.89
-9.29
-17.51
-22.40
-22.12
-18.09
-12.65
-7.04
-1.35
4.36
9.53
13.44
15.17
14.29
10.24
3.38
-4.76
-12.30
-18.01
-21.60
-23.32
-23.65
-22.89
-21.69
-20.17
-17.63
-13.10
-6.01
3.57
15.00
27.14
38.65
47.98
53.95
56.16
54.91
50.91
45.02
38.16
31.13
24.62
19.06
14.75
11.95
10.89
11.61
13.85
16.96
19.92
21.61
21.17
18.32
13.52
7.75
2.08
-2.78
-6.71
-10.02
-13.16
-16.32
-19.38
-22.01
-23.97
-25.33
-26.51
-28.05
-30.38
-33.62
-37.46
-41.34
-44.53
-46.45
-46.64
-44.91
-41.22
-35.71
-28.62
-20.31
-11.26
-2.01
6.80
14.59
20.91
25.59
28.71
30.60
31.70
32.40
32.95
33.40
33.74
34.03
34.51
35.63
37.85
41.35
45.74
50.13
53.29
54.18
52.31
47.91
41.75
34.70
27.36
19.85
12.02
3.66
-5.20
-14.24
-23.02
-31.21
-38.60
-45.10
-50.49
-54.35
-56.07
-55.08
-51.18
-44.65
-36.32
-27.32
-18.79
-11.56
-6.04
-2.22
0.19
1.60
2.48
3.29
4.45
6.27
8.89
12.17
15.73
19.06
21.65
23.20
23.64
23.12
21.98
20.57
19.28
18.44
18.31
18.92
20.05
21.23
21.83
21.31
19.39
16.13
11.96
7.47
3.21
-0.48
-3.55
-6.10
-8.30
-10.14
-11.41
-11.70
-10.62
-7.98
-3.94
1.03
6.28
11.19
15.38
18.75
21.45
23.79
26.12
28.69
31.58
34.56
37.13
38.49
37.84
34.65
28.97
21.54
13.56
6.29
0.67
-2.96
-4.84
-5.53
-5.71
-5.92
-6.61
-8.11
-10.67
-14.35
-18.99
-24.08
-28.85
-32.54
-34.59
-34.78
-33.38
-30.97
-28.29
-26.00
-24.45
-23.55
-22.84
-21.62
-19.27
-15.50
-10.46
-4.66
1.31
6.96
12.03
16.44
20.15
23.11
25.22
26.46
26.92
26.83
26.44
25.96
25.49
25.07
24.69
24.38
24.10
23.71
22.90
21.28
18.49
14.45
9.36
3.69
-2.06
-7.51
-12.44
-16.67
-19.97
-21.99
-22.39
-21.15
-18.68
-15.89
-13.87
-13.55
-15.30
-18.89
-23.53
-28.18
-31.88
-33.84
-33.70
-31.44
-27.44
-22.30
-16.70
-11.24
-6.28
-1.97
1.68
4.74
7.21
9.09
10.36
11.05
11.24
11.08
10.69
10.19
9.63
9.07
8.51
7.92
7.26
6.50
5.64
4.79
4.06
3.53
3.17
2.82
2.18
0.98
-0.96
-3.56
-6.52
-9.35
-11.57
-12.98
-13.73
-14.24
-15.06
-16.54
-18.62
-20.82
-22.28
-21.94
-18.66
-11.43
0.03
14.69
29.76
41.17
44.71
37.96
21.60
-0.42
-22.10
-37.55
-42.87
-36.93
-21.01
2.29
30.01
59.13
86.46
108.70
122.91
127.45
122.57
110.33
93.49
74.41
54.25
33.35
12.30
-7.21
-22.28
-29.90
-28.40
-18.44
-2.87
14.43
29.94
41.52
48.37
50.47
47.99
41.20
30.80
18.24
5.51
-5.51
-13.84
-19.66
-23.92
-27.56
-30.89
-33.45
-34.42
-33.18
-29.70
-24.55
-18.57
-12.45
-6.65
-1.44
2.92
6.01
7.42
6.89
4.62
1.21
-2.52
-5.83
-8.43
-10.47
-12.45
-14.86
-17.91
-21.41
-24.86
-27.80
-30.06
-31.83
-33.52
-35.50
-37.85
-40.38
-42.86
-45.12
-47.19
-49.17
-51.08
-52.72
-53.68
-53.47
-51.74
-48.41
-43.64
-37.77
-31.14
-24.09
-16.92
-9.92
-3.36
2.49
7.41
11.29
14.08
15.84
16.67
16.73
16.19
15.25
14.04
12.73
11.46
10.40
9.68
9.40
9.53
9.94
10.37
10.57
10.31
9.49
8.14
6.38
4.36
2.21
0.02
-2.16
-4.33
-6.45
-8.52
-10.47
-12.25
-13.77
-15.06
-16.18
-17.28
-18.54
-20.15
-22.19
-24.55
-26.88
-28.64
-29.24
-28.26
-25.62
-21.61
-16.80
-11.77
-6.94
-2.53
1.42
4.93
7.94
10.37
12.18
13.39
14.11
14.45
14.49
14.21
13.60
12.71
11.67
10.69
9.93
9.46
9.22
9.07
8.83
8.42
7.82
7.07
6.25
5.36
4.42
3.39
2.30
1.15
-0.05
-1.35
-2.86
-4.70
-6.90
-9.34
-11.77
-13.87
-15.45
-16.56
-17.46
-18.57
-20.20
-22.34
-24.68
-26.58
-27.39
-26.66
-24.29
-20.58
-16.03
-11.18
-6.45
-2.07
1.88
5.36
8.31
10.64
12.23
13.04
13.16
12.79
12.20
11.57
11.00
10.43
9.78
8.98
8.09
7.26
6.71
6.59
6.93
7.60
8.35
8.92
9.07
8.69
7.76
6.41
4.89
3.45
2.28
1.44
0.85
0.39
-0.07
-0.56
-1.03
-1.45
-1.82
-2.27
-3.01
-4.23
-6.00
-8.23
-10.62
-12.75
-14.10
-14.20
-12.73
-9.67
-5.31
-0.27
4.69
8.91
12.03
14.08
15.39
16.36
17.24
17.99
18.37
18.10
17.07
15.39
13.37
11.34
9.56
8.14
7.09
6.37
5.91
5.65
5.52
5.47
5.43
5.33
5.06
4.51
3.61
2.33
0.77
-0.87
-2.42
-3.76
-4.89
-5.92
-6.99
-8.13
-9.34
-10.55
-11.74
-12.94
-14.29
-15.89
-17.73
-19.56
-20.93
-21.28
-20.12
-17.21
-12.69
-7.04
-0.93
4.95
10.04
13.98
16.65
18.09
18.43
17.86
16.62
14.93
13.02
11.13
9.46
8.18
7.40
7.05
6.96
6.91
6.68
6.21
5.53
4.82
4.24
3.86
3.60
3.24
2.51
1.21
-0.66
-2.90
-5.16
-7.10
-8.53
-9.52
-10.33
-11.27
-12.55
-14.20
-16.10
-18.03
-19.76
-21.03
-21.52
-20.90
-18.97
-15.73
-11.44
-6.55
-1.54
3.26
7.68
11.65
15.10
17.90
19.86
20.87
20.95
20.25
18.92
17.10
14.82
12.12
9.09
5.93
2.94
0.40
-1.49
-2.70
-3.32
-3.53
-3.55
-3.63
-4.03
-4.96
-6.51
-8.54
-10.75
-12.72
-14.16
-14.97
-15.30
-15.53
-16.02
-17.06
-18.77
-21.04
-23.58
-25.93
-27.50
-27.73
-26.23
-22.92
-18.11
-12.38
-6.42
-0.80
4.15
8.31
11.70
14.35
16.29
17.51
18.03
17.92
17.27
16.26
15.03
13.68
12.28
10.85
9.42
8.02
6.78
5.81
5.22
4.98
4.93
4.82
4.38
3.43
1.95
0.08
-1.96
-3.94
-5.76
-7.40
-8.93
-10.53
-12.32
-14.41
-16.76
-19.26
-21.61
-23.46
-24.45
-24.26
-22.74
-19.87
-15.83
-10.94
-5.61
-0.27
4.69
8.98
12.42
14.96
16.61
17.41
17.46
16.90
15.90
14.66
13.32
11.99
10.67
9.40
8.18
7.12
6.33
5.86
5.66
5.57
5.40
4.96
4.19
3.07
1.66
0.00
-1.83
-3.77
-5.69
-7.48
-9.14
-10.73
-12.45
-14.45
-16.72
-18.97
-20.65
-21.18
-20.08
-17.22
-12.84
-7.47
-1.73
3.79
8.69
12.73
15.84
18.01
19.30
19.79
19.56
18.72
17.43
15.82
14.04
12.21
10.40
8.72
7.27
6.13
5.37
4.99
4.87
4.85
4.70
4.23
3.35
2.07
0.50
-1.24
-2.99
-4.67
-6.22
-7.72
-9.29
-11.13
-13.37
-15.99
-18.68
-20.93
-22.11
-21.67
-19.35
-15.31
-10.05
-4.23
1.50
6.67
10.99
14.35
16.68
18.00
18.39
18.03
17.18
16.07
14.88
13.64
12.28
10.75
9.09
7.47
6.13
5.30
5.02
5.14
5.32
5.20
4.50
3.13
1.24
-0.86
-2.86
-4.57
-6.00
-7.34
-8.87
-10.77
-13.09
-15.65
-18.09
-19.95
-20.76
-20.15
-17.96
-14.23
-9.30
-3.66
2.06
7.28
11.54
14.59
16.39
17.09
16.92
16.13
14.90
13.35
11.58
9.69
7.81
6.15
4.86
4.01
3.56
3.34
3.17
2.87
2.40
1.77
1.07
0.36
-0.37
-1.24
-2.38
-3.91
-5.88
-8.25
-10.98
-13.99
-17.15
-20.22
-22.84
-24.49
-24.68
-23.06
-19.63
-14.74
-9.00
-3.07
2.56
7.54
11.76
15.16
17.67
19.21
19.74
19.37
18.35
17.00
15.65
14.43
13.31
12.16
10.86
9.40
7.96
6.77
6.05
5.79
5.82
5.80
5.39
4.39
2.84
0.96
-0.98
-2.82
-4.60
-6.52
-8.79
-11.54
-14.68
-17.97
-20.99
-23.28
-24.40
-23.99
-21.89
-18.14
-13.09
-7.31
-1.53
3.60
7.62
10.47
12.30
13.43
14.05
14.19
13.71
12.50
10.59
8.28
6.00
4.16
2.93
2.28
1.95
1.70
1.32
0.71
-0.18
-1.37
-2.90
-4.74
-6.80
-8.97
-11.16
-13.32
-15.50
-17.71
-19.99
-22.30
-24.53
-26.44
-27.72
-27.98
-26.87
-24.20
-20.06
-14.84
-9.12
-3.57
1.27
5.07
7.78
9.51
10.50
10.99
11.15
11.10
10.79
10.13
8.97
7.26
5.07
2.64
0.33
-1.53
-2.68
-3.09
-2.87
-2.25
-1.51
-0.84
-0.38
-0.18
-0.23
-0.46
-0.76
-0.98
-0.97
-0.58
0.32
1.80
3.94
6.70
9.98
13.59
17.30
20.84
24.01
26.57
28.32
29.09
28.78
27.51
25.65
23.79
22.50
22.09
22.41
22.91
22.93
22.01
20.14
17.69
15.15
12.91
11.03
9.40
7.79
6.06
4.20
2.28
0.41
-1.35
-2.97
-4.50
-6.00
-7.60
-9.41
-11.50
-13.87
-16.47
-19.20
-21.93
-24.42
-26.28
-26.98
-26.03
-23.15
-18.48
-12.62
-6.45
-0.85
3.64
6.87
8.93
10.03
10.26
9.64
8.24
6.25
4.07
2.16
0.89
0.34
0.33
0.51
0.49
0.07
-0.76
-1.84
-2.96
-3.99
-4.87
-5.69
-6.57
-7.66
-9.02
-10.59
-12.29
-14.10
-16.04
-18.20
-20.53
-22.75
-24.34
-24.69
-23.31
-20.14
-15.49
-10.00
-4.33
0.99
5.68
9.64
12.85
15.22
16.67
17.17
16.81
15.85
14.59
13.33
12.29
11.52
10.94
10.43
9.82
9.00
7.94
6.63
5.11
3.40
1.51
-0.52
-2.58
-4.50
-6.09
-7.28
-8.14
-8.91
-9.90
-11.35
-13.34
-15.67
-17.96
-19.71
-20.47
-19.95
-18.07
-14.96
-10.89
-6.22
-1.32
3.41
7.61
11.02
13.47
14.99
15.73
15.94
15.84
15.58
15.17
14.56
13.77
12.88
12.02
11.32
10.79
10.40
9.98
9.42
8.65
7.68
6.58
5.41
4.18
2.89
1.61
0.40
-0.62
-1.39
-2.00
-2.62
-3.49
-4.75
-6.37
-8.11
-9.57
-10.31
-9.98
-8.45
-5.78
-2.22
1.88
6.17
10.38
14.24
17.54
19.98
21.26
21.16
19.66
17.07
13.95
10.93
8.50
6.87
5.93
5.43
5.13
4.90
4.74
4.65
4.63
4.59
4.44
4.14
3.66
3.01
2.19
1.17
-0.06
-1.46
-2.94
-4.45
-5.98
-7.62
-9.51
-11.70
-14.02
-16.12
-17.45
-17.55
-16.20
-13.54
-10.05
-6.31
-2.80
0.30
3.06
5.67
8.24
10.64
12.54
13.57
13.52
12.45
10.67
8.64
6.74
5.16
3.93
2.89
1.92
0.98
0.12
-0.57
-1.04
-1.34
-1.57
-1.89
-2.36
-3.00
-3.76
-4.56
-5.34
-6.08
-6.85
-7.74
-8.91
-10.50
-12.53
-14.80
-16.85
-18.04
-17.80
-15.86
-12.36
-7.85
-3.02
1.54
5.47
8.71
11.32
13.38
14.84
15.54
15.37
14.34
12.64
10.65
8.78
7.36
6.50
6.14
6.03
5.92
5.61
5.08
4.38
3.61
2.81
1.90
0.76
-0.64
-2.19
-3.64
-4.75
-5.42
-5.82
-6.31
-7.27
-8.98
-11.43
-14.32
-17.13
-19.21
-19.99
-19.11
-16.56
-12.70
-8.10
-3.37
1.03
4.85
8.08
10.73
12.76
14.06
14.46
13.93
12.61
10.81
8.90
7.21
5.91
5.00
4.41
4.04
3.85
3.80
3.85
3.88
3.67
2.97
1.70
-0.08
-2.08
-3.98
-5.57
-6.81
-7.86
-8.93
-10.15
-11.55
-13.11
-14.86
-16.82
-18.97
-21.11
-22.79
-23.44
-22.57
-20.03
-16.06
-11.31
-6.47
-2.09
1.64
4.75
7.41
9.67
11.38
12.29
12.24
11.30
9.83
8.33
7.24
6.78
6.86
7.16
7.31
7.04
6.31
5.33
4.41
3.87
3.80
4.04
4.23
4.01
3.16
1.71
-0.11
-2.03
-3.82
-5.49
-7.15
-9.01
-11.21
-13.79
-16.62
-19.40
-21.74
-23.13
-23.16
-21.56
-18.36
-13.91
-8.78
-3.59
1.18
5.25
8.57
11.15
13.05
14.28
14.83
14.72
14.07
13.05
11.88
10.73
9.71
8.86
8.18
7.66
7.27
7.00
6.79
6.61
6.46
6.30
6.06
5.64
4.90
3.79
2.35
0.74
-0.85
-2.27
-3.56
-4.85
-6.30
-8.02
-9.96
-12.01
-14.06
-16.04
-17.87
-19.37
-20.20
-19.93
-18.21
-14.98
-10.52
-5.43
-0.45
3.86
7.22
9.65
11.37
12.61
13.49
13.98
13.98
13.45
12.48
11.29
10.17
9.32
8.82
8.60
8.52
8.43
8.25
7.95
7.59
7.19
6.82
6.49
6.14
5.64
4.85
3.64
2.02
0.16
-1.71
-3.33
-4.59
-5.57
-6.51
-7.66
-9.16
-11.00
-13.04
-15.13
-17.17
-19.08
-20.65
-21.53
-21.28
-19.53
-16.21
-11.66
-6.54
-1.57
2.74
6.21
8.96
11.18
12.98
14.28
14.92
14.81
13.99
12.67
11.14
9.70
8.56
7.86
7.63
7.79
8.17
8.57
8.75
8.61
8.14
7.45
6.67
5.88
5.10
4.26
3.32
2.31
1.29
0.37
-0.47
-1.30
-2.30
-3.60
-5.24
-7.12
-9.08
-11.01
-12.88
-14.72
-16.53
-18.14
-19.15
-19.11
-17.66
-14.73
-10.59
-5.78
-0.91
3.56
7.37
10.49
13.00
15.00
16.53
17.55
18.00
17.85
17.13
15.95
14.52
13.11
11.94
11.12
10.58
10.14
9.57
8.74
7.69
6.59
5.64
4.92
4.37
3.79
2.96
1.75
0.17
-1.62
-3.48
-5.26
-6.95
-8.56
-10.17
-11.80
-13.49
-15.27
-17.13
-19.04
-20.84
-22.29
-23.08
-22.90
-21.60
-19.15
-15.73
-11.61
-7.17
-2.78
1.20
4.50
6.91
8.38
8.97
8.82
8.13
7.12
5.97
4.86
3.98
3.43
3.22
3.25
3.31
3.17
2.71
1.99
1.20
0.56
0.21
0.10
-0.00
-0.38
-1.22
-2.51
-4.10
-5.71
-7.20
-8.56
-9.97
-11.67
-13.88
-16.56
-19.47
-22.09
-23.81
-24.10
-22.68
-19.63
-15.39
-10.62
-5.95
-1.82
1.68
4.68
7.39
9.91
12.14
13.85
14.84
15.10
14.80
14.27
13.80
13.49
13.28
12.97
12.38
11.48
10.36
9.23
8.25
7.47
6.79
6.00
4.86
3.22
1.10
-1.33
-3.80
-6.02
-7.84
-9.29
-10.58
-12.03
-13.90
-16.33
-19.25
-22.37
-25.24
-27.36
-28.26
-27.64
-25.46
-21.91
-17.43
-12.51
-7.60
-2.99
1.21
4.99
8.37
11.32
13.72
15.44
16.38
16.63
16.39
15.96
15.57
15.29
15.06
14.72
14.17
13.39
12.52
11.68
10.95
10.25
9.51
8.62
7.57
6.40
5.09
3.57
1.74
-0.42
-2.81
-5.20
-7.34
-9.12
-10.63
-12.14
-13.96
-16.34
-19.23
-22.33
-25.07
-26.81
-27.02
-25.43
-22.15
-17.57
-12.29
-6.84
-1.62
3.15
7.41
11.10
14.18
16.55
18.14
18.93
18.98
18.47
17.68
16.93
16.46
16.38
16.62
16.98
17.22
17.22
16.98
16.61
16.21
15.79
15.27
14.51
13.41
11.95
10.22
8.36
6.47
4.63
2.77
0.78
-1.50
-4.19
-7.33
-10.83
-14.54
-18.31
-21.95
-25.27
-28.04
-29.92
-30.54
-29.62
-27.06
-23.07
-18.13
-12.79
-7.58
-2.81
1.45
5.25
8.70
11.80
14.42
16.35
17.40
17.59
17.12
16.34
15.61
15.18
15.06
15.14
15.17
14.98
14.53
13.88
13.19
12.56
12.03
11.54
11.00
10.34
9.53
8.59
7.46
6.06
4.33
2.29
0.10
-2.00
-3.78
-5.16
-6.26
-7.32
-8.60
-10.28
-12.34
-14.64
-16.90
-18.74
-19.71
-19.39
-17.53
-14.14
-9.60
-4.51
0.48
4.97
8.84
12.18
15.19
17.91
20.20
21.84
22.65
22.67
22.14
21.41
20.79
20.42
20.23
20.04
19.68
19.06
18.23
17.26
16.21
15.07
13.78
12.30
10.66
8.98
7.43
6.13
5.10
4.18
3.12
1.68
-0.30
-2.76
-5.49
-8.19
-10.67
-12.88
-14.95
-17.11
-19.55
-22.29
-25.20
-27.95
-30.14
-31.32
-31.16
-29.45
-26.19
-21.58
-16.04
-10.06
-4.21
1.04
5.37
8.59
10.66
11.59
11.45
10.36
8.55
6.35
4.20
2.49
1.44
1.05
1.14
1.42
1.70
1.88
1.96
1.94
1.82
1.58
1.20
0.72
0.16
-0.47
-1.20
-2.08
-3.10
-4.17
-5.17
-6.02
-6.77
-7.61
-8.77
-10.44
-12.64
-15.16
-17.55
-19.26
-19.82
-18.91
-16.47
-12.73
-8.10
-3.09
1.73
5.90
9.10
11.25
12.50
13.08
13.25
13.09
12.58
11.65
10.32
8.79
7.39
6.44
6.07
6.17
6.42
6.52
6.32
5.83
5.26
4.78
4.46
4.18
3.66
2.68
1.09
-0.97
-3.20
-5.25
-6.93
-8.27
-9.55
-11.09
-13.12
-15.65
-18.53
-21.51
-24.32
-26.73
-28.46
-29.19
-28.57
-26.37
-22.57
-17.50
-11.68
-5.74
-0.22
4.52
8.37
11.33
13.57
15.22
16.46
17.39
18.05
18.43
18.48
18.22
17.67
16.93
16.07
15.13
14.11
13.02
11.90
10.88
10.02
9.34
8.70
7.86
6.57
4.73
2.44
-0.05
-2.40
-4.41
-6.02
-7.32
-8.50
-9.75
-11.28
-13.21
-15.64
-18.52
-21.55
-24.23
-25.88
-25.94
-24.13
-20.59
-15.81
-10.50
-5.30
-0.62
3.38
6.75
9.61
12.06
14.14
15.82
17.05
17.78
17.95
17.51
16.48
14.93
13.06
11.17
9.54
8.36
7.64
7.26
6.99
6.65
6.14
5.46
4.63
3.68
2.60
1.32
-0.17
-1.84
-3.57
-5.25
-6.77
-8.14
-9.50
-11.05
-12.99
-15.44
-18.35
-21.51
-24.54
-26.97
-28.27
-28.04
-26.08
-22.44
-17.54
-11.96
-6.38
-1.33
2.88
6.19
8.68
10.45
11.59
12.11
12.06
11.55
10.76
9.90
9.15
8.61
8.26
7.98
7.61
7.04
6.25
5.35
4.49
3.80
3.33
3.02
2.76
2.41
1.88
1.13
0.13
-1.10
-2.50
-3.99
-5.47
-6.89
-8.26
-9.68
-11.27
-13.08
-15.15
-17.40
-19.78
-22.14
-24.23
-25.64
-25.85
-24.42
-21.20
-16.47
-10.90
-5.32
-0.37
3.67
6.87
9.48
11.67
13.46
14.74
15.41
15.55
15.37
15.07
14.77
14.44
14.00
13.43
12.84
12.39
12.22
12.31
12.56
12.74
12.68
12.29
11.55
10.49
9.12
7.48
5.61
3.58
1.54
-0.38
-2.08
-3.58
-4.98
-6.49
-8.30
-10.51
-13.07
-15.83
-18.54
-20.92
-22.69
-23.59
-23.37
-21.87
-19.12
-15.34
-10.93
-6.34
-1.97
1.96
5.38
8.31
10.74
12.64
13.91
14.50
14.42
13.83
12.94
12.02
11.32
11.00
11.12
11.56
12.08
12.37
12.23
11.59
10.56
9.29
7.94
6.56
5.10
3.49
1.75
-0.04
-1.74
-3.29
-4.73
-6.21
-7.86
-9.76
-11.81
-13.91
-15.96
-18.00
-20.16
-22.53
-25.04
-27.36
-28.99
-29.42
-28.37
-25.86
-22.26
-18.01
-13.57
-9.18
-4.89
-0.67
3.53
7.55
11.14
13.95
15.76
16.55
16.53
16.07
15.55
15.23
15.17
15.33
15.60
15.89
16.16
16.34
16.37
16.13
15.48
14.30
12.57
10.37
7.88
5.30
2.81
0.52
-1.54
-3.39
-5.09
-6.70
-8.32
-10.03
-11.97
-14.23
-16.81
-19.55
-22.05
-23.81
-24.30
-23.13
-20.23
-15.93
-10.85
-5.68
-0.99
2.93
6.04
8.51
10.64
12.68
14.66
16.43
17.83
18.75
19.20
19.24
19.06
19.02
19.43
20.30
21.36
22.29
22.90
23.12
23.02
22.87
23.25
24.60
26.89
29.51
31.57
32.05
29.89
24.17
14.58
1.79
-12.71
-27.12
-39.47
-47.74
-50.15
-44.37
-30.44
-12.44
4.18
15.81
21.24
20.88
16.12
9.80
3.07
-3.13
-7.93
-10.49
-10.44
-8.37
-5.50
-3.13
-2.37
-4.06
-8.26
-14.16
-19.64
-21.71
-18.70
-11.51
-3.00
3.88
7.29
7.19
4.94
2.50
1.34
1.70
2.87
4.15
5.18
5.80
6.10
6.18
6.14
5.89
5.10
3.48
1.18
-1.39
-3.72
-5.40
-6.30
-6.61
-6.76
-7.15
-7.83
-8.40
-8.14
-6.40
-2.86
2.33
8.68
15.53
22.09
27.59
31.48
33.57
34.12
33.78
33.18
32.52
31.42
29.06
24.78
18.69
12.05
6.91
5.35
8.45
16.11
27.29
40.54
54.45
67.72
79.03
86.67
88.66
82.94
68.70
47.27
21.81
-3.79
-26.27
-43.81
-56.20
-64.37
-70.41
-75.88
-81.13
-85.81
-89.82
-93.56
-97.41
-101.24
-104.21
-106.31
-107.21
-105.97
-101.65
-94.42
-85.65
-77.02
-69.86
-64.75
-63.21
-65.78
-71.21
-77.22
-82.32
-86.17
-88.63
-88.88
-75.28
-43.21
0.62
43.96
78.65
102.65
117.65
126.69
132.29
135.01
131.82
120.73
100.33
72.92
43.00
15.29
-6.73
-21.69
-30.44
-32.59
-30.50
-25.88
-18.47
-7.16
8.35
26.91
46.17
63.26
75.05
79.45
77.83
72.07
64.30
56.00
47.95
40.41
33.22
25.92
18.10
10.28
3.58
-0.95
-3.04
-3.35
-2.01
0.02
1.63
1.84
0.45
-2.14
-5.22
-8.24
-11.03
-13.62
-16.33
-19.34
-22.76
-26.52
-30.40
-34.07
-37.10
-39.11
-39.80
-39.20
-37.66
-35.80
-34.40
-34.23
-35.75
-39.06
-43.69
-48.51
-51.80
-51.50
-45.79
-33.90
-16.63
3.72
23.96
41.08
53.13
59.61
61.14
58.90
53.88
46.75
38.00
28.36
18.93
11.06
5.81
3.53
3.78
5.49
7.47
8.94
9.75
10.26
10.98
12.14
13.49
14.47
14.42
13.06
10.60
7.62
4.74
2.33
0.28
-1.85
-4.62
-8.50
-13.69
-20.15
-27.58
-35.40
-42.76
-48.58
-51.81
-51.67
-47.96
-41.15
-32.19
-22.35
-12.77
-4.37
2.34
7.20
10.35
12.14
13.02
13.40
13.51
13.41
12.94
11.93
10.26
7.96
5.23
2.33
-0.49
-3.08
-5.41
-7.54
-9.55
-11.51
-13.46
-15.44
-17.51
-19.80
-22.41
-25.37
-28.58
-31.83
-34.89
-37.66
-40.15
-42.50
-44.89
-47.38
-49.92
-52.37
-54.65
-56.78
-58.98
-61.46
-64.23
-66.92
-68.77
-68.84
-66.27
-60.71
-52.40
-42.18
-31.12
-20.23
-10.14
-1.03
7.21
14.80
21.80
28.02
33.05
36.47
38.08
38.01
36.84
35.35
34.23
33.83
34.06
34.51
34.75
34.56
34.03
33.41
32.90
32.43
31.72
30.42
28.34
25.59
22.52
19.50
16.78
14.35
12.00
9.45
6.52
3.20
-0.30
-3.71
-6.72
-9.20
-11.26
-13.28
-15.70
-18.83
-22.49
-25.94
-27.96
-27.24
-22.86
-14.69
-3.47
9.38
22.29
34.02
43.97
52.22
59.33
66.08
73.21
81.37
90.91
101.68
112.59
121.49
125.52
122.13
110.38
91.74
70.00
50.03
36.10
30.58
33.60
43.66
58.61
76.26
94.40
110.61
122.26
127.07
124.04
113.98
99.36
83.34
68.58
56.34
46.47
37.93
29.56
20.60
10.71
-0.13
-11.97
-24.73
-38.10
-51.20
-62.67
-70.98
-75.01
-74.53
-70.23
-63.50
-55.84
-48.41
-41.89
-36.57
-32.58
-30.03
-28.99
-29.31
-30.53
-31.88
-32.53
-31.81
-29.39
-25.33
-19.91
-13.56
-6.65
0.46
7.43
13.89
19.38
23.46
25.73
26.06
24.63
21.95
18.71
15.50
12.65
10.16
7.80
5.35
2.80
0.40
-1.48
-2.64
-3.24
-3.93
-5.67
-9.39
-15.59
-24.01
-33.58
-42.66
-49.35
-52.08
-50.05
-43.58
-34.14
-23.93
-15.13
-9.15
-6.18
-5.35
-5.35
-5.26
-5.02
-5.35
-7.20
-11.01
-16.40
-22.29
-27.48
-31.17
-33.21
-33.96
-33.89
-33.32
-32.33
-30.86
-28.87
-26.41
-23.70
-21.03
-18.73
-17.04
-16.03
-15.57
-15.32
-14.84
-13.82
-12.19
-10.17
-8.15
-6.50
-5.36
-4.66
-4.13
-3.50
-2.56
-1.22
0.45
2.29
3.97
5.09
5.22
4.09
1.71
-1.54
-4.93
-7.56
-8.55
-7.39
-4.11
0.63
5.66
9.60
11.29
10.16
6.35
0.61
-6.03
-12.59
-18.46
-23.33
-27.10
-29.66
-30.71
-29.93
-27.19
-22.79
-17.60
-12.84
-9.63
-8.47
-8.95
-9.88
-9.81
-7.73
-3.56
1.80
6.90
10.36
11.45
10.30
7.71
4.92
3.17
3.47
6.39
12.01
19.69
28.17
35.63
40.12
40.04
34.72
24.61
11.23
-3.23
-16.47
-26.61
-32.60
-34.39
-32.95
-30.00
-27.60
-27.56
-30.81
-37.05
-44.79
-51.82
-56.02
-56.09
-51.91
-44.49
-35.54
-26.92
-20.29
-16.84
-17.17
-21.17
-27.92
-35.75
-42.59
-46.44
-45.88
-40.38
-30.30
-16.58
-0.46
16.71
33.47
48.25
59.58
66.40
68.30
65.61
59.21
50.26
39.94
29.31
19.21
10.37
3.32
-1.81
-5.47
-8.66
-12.65
-18.42
-26.19
-35.21
-43.67
-49.04
-48.89
-41.79
-27.89
-8.98
12.00
31.90
47.82
58.29
63.36
63.98
61.19
55.75
48.17
38.99
28.92
18.10
6.94
-3.68
-12.91
-20.27
-25.54
-28.52
-29.13
-27.55
-25.56
-24.70
-25.47
-27.50
-30.31
-33.50
-36.72
-39.74
-42.42
-46.29
-52.16
-59.39
-66.48
-72.21
-75.86
-76.91
-74.93
-60.32
-30.87
6.62
42.45
71.31
92.23
105.53
112.40
112.95
107.12
94.17
75.46
54.88
37.28
27.11
26.85
35.99
51.54
69.79
86.84
100.95
112.43
121.68
127.47
127.03
118.13
100.97
78.81
55.85
35.92
20.91
10.14
1.37
-7.47
-16.89
-25.88
-33.06
-38.18
-41.85
-45.08
-48.70
-52.96
-57.44
-61.17
-62.95
-61.67
-56.80
-48.34
-36.91
-23.59
-9.80
2.98
13.43
20.62
24.02
23.59
19.61
12.64
3.42
-7.27
-18.73
-30.49
-42.29
-54.04
-65.64
-76.74
-86.76
-94.85
-100.23
-102.41
-101.43
-97.77
-92.09
-84.87
-76.21
-65.90
-53.72
-39.87
-25.15
-10.83
1.70
11.44
18.07
21.90
23.62
23.94
23.30
21.87
19.60
16.51
12.87
9.12
5.78
3.22
1.49
0.25
-1.07
-3.08
-6.13
-10.06
-14.14
-17.25
-18.34
-16.86
-13.05
-7.92
-2.82
0.98
2.67
1.97
-0.95
-5.66
-11.50
-17.51
-22.43
-24.83
-23.54
-18.14
-9.20
1.85
13.20
23.28
31.23
36.92
40.69
43.04
44.33
44.78
44.51
43.65
42.32
40.55
38.25
35.31
31.75
27.78
23.86
20.44
17.79
15.87
14.39
13.02
11.57
9.98
8.32
6.57
4.62
2.29
-0.57
-3.97
-7.71
-11.49
-14.99
-17.96
-20.29
-22.07
-23.52
-24.94
-26.64
-28.90
-31.85
-35.40
-39.17
-42.46
-44.34
-43.82
-40.15
-33.11
-23.17
-11.33
1.12
12.97
23.42
32.09
38.99
44.20
47.84
49.93
50.52
49.76
47.91
45.39
42.61
39.96
37.64
35.74
34.16
32.73
31.26
29.60
27.68
25.49
23.13
20.76
18.57
16.67
15.02
13.39
11.43
8.81
5.33
1.12
-3.50
-8.12
-12.45
-16.42
-20.16
-23.94
-28.03
-32.67
-38.03
-44.15
-50.71
-56.84
-61.21
-62.24
-58.71
-50.22
-37.44
-21.90
-5.56
9.82
23.02
33.48
41.11
46.13
48.83
49.56
48.71
46.67
43.79
40.37
36.65
32.85
29.25
26.07
23.45
21.39
19.72
18.21
16.68
15.05
13.31
11.47
9.40
6.91
3.78
-0.09
-4.56
-9.25
-13.73
-17.66
-20.95
-23.80
-26.54
-29.49
-32.86
-36.70
-41.00
-45.70
-50.57
-55.10
-58.38
-59.20
-56.46
-49.58
-38.85
-25.47
-11.19
2.22
13.48
22.04
28.02
31.82
33.86
34.33
33.27
30.71
26.91
22.41
17.89
14.02
11.16
9.36
8.32
7.60
6.84
5.85
4.68
3.53
2.54
1.69
0.71
-0.81
-3.24
-6.66
-10.78
-15.04
-18.81
-21.63
-23.45
-24.62
-25.70
-27.28
-29.76
-33.23
-37.42
-41.75
-45.28
-46.87
-45.45
-40.29
-31.27
-19.00
-4.71
10.07
23.88
35.59
44.63
50.94
54.79
56.55
56.51
54.75
51.25
46.05
39.40
31.87
24.30
17.62
12.59
9.66
8.82
9.60
11.28
12.99
14.01
13.89
12.47
9.87
6.33
2.11
-2.53
-7.34
-12.06
-16.38
-20.10
-23.22
-25.97
-28.82
-32.22
-36.44
-41.38
-46.47
-50.72
-52.97
-52.13
-47.57
-39.30
-28.11
-15.30
-2.36
9.47
19.50
27.61
34.13
39.44
43.78
47.13
49.27
50.04
49.40
47.53
44.72
41.35
37.73
34.14
30.79
27.84
25.40
23.43
21.77
20.14
18.22
15.74
12.56
8.65
4.13
-0.81
-5.94
-11.05
-15.97
-20.58
-24.79
-28.60
-32.07
-35.34
-38.63
-42.21
-46.32
-51.07
-56.29
-61.44
-65.57
-67.52
-66.21
-61.00
-51.93
-39.74
-25.79
-11.61
1.44
12.45
21.08
27.43
31.91
34.93
36.84
37.82
37.95
37.26
35.82
33.79
31.36
28.75
26.16
23.78
21.78
20.27
19.30
18.74
18.31
17.57
16.07
13.50
9.83
5.33
0.50
-4.12
-8.14
-11.39
-13.98
-16.22
-18.49
-21.10
-24.25
-27.94
-31.95
-35.82
-38.77
-39.87
-38.24
-33.31
-25.12
-14.36
-2.21
10.03
21.32
31.08
39.27
46.08
51.73
56.23
59.36
60.82
60.43
58.30
54.88
50.79
46.68
42.95
39.70
36.73
33.70
30.32
26.48
22.23
17.66
12.79
7.50
1.54
-5.23
-12.75
-20.68
-28.45
-35.53
-41.58
-46.62
-51.00
-55.25
-59.83
-64.92
-70.29
-75.26
-78.85
-79.98
-77.77
-71.81
-62.32
-50.08
-36.27
-22.11
-8.64
3.44
13.78
22.27
28.98
34.01
37.49
39.54
40.34
40.06
38.92
37.16
35.00
32.64
30.20
27.79
25.52
23.53
21.98
20.95
20.32
19.74
18.70
16.71
13.57
9.43
4.78
0.26
-3.67
-6.91
-9.79
-12.91
-16.86
-21.98
-28.19
-34.94
-41.34
-46.30
-48.81
-48.18
-44.16
-37.07
-27.66
-16.93
-5.84
4.78
14.40
22.63
29.17
33.73
36.12
36.27
34.41
30.98
26.60
21.90
17.44
13.64
10.77
8.96
8.20
8.37
9.22
10.41
11.56
12.35
12.56
12.07
10.89
9.07
6.73
3.98
1.00
-2.06
-5.08
-8.04
-11.03
-14.27
-17.96
-22.09
-26.33
-29.92
-31.89
-31.35
-27.82
-21.48
-13.19
-4.15
4.48
11.88
17.73
22.15
25.40
27.68
29.03
29.39
28.70
27.09
24.87
22.45
20.21
18.31
16.80
15.60
14.67
14.01
13.60
13.28
12.73
11.52
9.26
5.79
1.24
-3.99
-9.34
-14.27
-18.39
-21.48
-23.55
-24.80
-25.59
-26.44
-27.94
-30.58
-34.52
-39.48
-44.65
-48.80
-50.62
-49.12
-44.00
-35.87
-26.09
-16.39
-8.36
-2.89
0.02
1.19
1.84
3.08
5.38
8.36
11.02
12.03
10.27
5.20
-2.89
-12.65
-21.65
-26.54
-23.85
-11.19
11.46
41.01
71.70
96.76
110.74
111.38
100.27
81.80
61.17
42.34
27.00
14.86
4.87
-3.56
-10.00
-13.28
-12.41
-7.31
1.10
11.41
22.56
34.30
47.16
61.71
77.95
94.88
110.85
124.21
134.01
140.41
144.45
147.48
150.53
153.80
156.61
157.57
155.00
147.48
134.28
115.54
92.27
66.03
38.61
11.61
-13.74
-36.67
-56.94
-74.68
-90.34
-104.50
-117.65
-129.98
-141.27
-150.99
-158.64
-164.11
-167.98
-171.54
-176.47
-184.32
-195.89
-210.82
-227.35
-242.43
-252.20
-252.91
-241.87
-218.30
-183.70
-141.58
-96.46
-52.72
-13.50
19.66
46.63
68.01
84.51
96.58
104.46
108.30
108.54
106.00
101.70
96.52
90.90
84.83
78.08
70.43
61.87
52.80
44.01
36.35
30.30
25.74
22.08
18.51
14.44
9.47
3.69
-2.42
-8.21
-13.20
-17.23
-20.34
-22.74
-23.72
-23.02
-21.33
-19.81
-18.96
-18.53
-17.96
-16.88
-15.22
-13.20
-11.18
-9.41
-7.94
-6.72
-5.93
-5.90
-6.90
-8.90
-11.55
-14.24
-16.13
-16.50
-14.94
-11.55
-6.83
-1.49
3.80
8.45
11.92
14.15
15.53
16.67
17.98
19.46
20.63
20.80
19.37
16.24
11.99
7.66
4.35
2.54
1.87
1.25
-0.70
-4.93
-11.55
-19.71
-27.85
-34.34
-37.82
-37.41
-32.65
-23.55
-10.72
4.46
19.77
32.61
40.90
43.51
40.81
34.55
27.02
20.10
14.68
10.67
7.43
4.45
1.54
-1.02
-2.88
-3.92
-4.35
-4.47
-4.51
-4.45
-4.12
-3.38
-2.29
-1.15
-0.42
-0.60
-1.86
-3.97
-6.33
-8.07
-8.45
-7.09
-4.15
-0.29
3.42
6.09
7.24
6.94
5.75
4.44
3.76
4.21
6.65
11.39
18.37
27.11
36.68
45.89
53.49
58.49
60.37
59.09
54.80
47.97
39.15
29.03
18.31
7.66
-2.41
-11.62
-20.02
-27.97
-35.77
-43.52
-51.00
-57.80
-63.43
-67.54
-69.99
-71.33
-72.64
-74.94
-78.69
-83.48
-88.04
-90.54
-89.10
-82.35
-70.61
-55.78
-40.39
-26.69
-16.20
-9.52
-6.53
-6.44
-7.80
-9.76
-11.86
-13.18
-12.12
-7.08
2.87
17.40
35.39
55.59
75.57
92.03
101.91
102.90
93.64
74.31
46.91
13.76
-15.90
-32.13
-32.73
-23.84
-13.74
-8.19
-6.06
-4.43
-0.70
6.39
15.26
22.48
25.30
22.89
16.41
8.17
0.29
-5.53
-8.05
-7.61
-5.77
-4.11
-4.18
-6.76
-11.34
-16.98
-22.66
-27.34
-31.67
-36.43
-41.52
-45.84
-47.77
-45.98
-39.95
-30.73
-20.11
-10.25
-2.80
1.67
3.64
4.22
4.52
5.06
5.76
6.32
6.37
5.79
4.70
3.47
2.54
2.27
2.74
3.79
5.12
6.35
7.10
7.06
6.01
3.98
1.21
-1.89
-4.92
-7.61
-9.83
-11.74
-13.63
-15.92
-18.90
-22.61
-26.81
-30.94
-34.24
-35.89
-35.17
-31.65
-25.39
-16.88
-6.99
3.20
12.71
20.88
27.42
32.36
35.90
38.24
39.46
39.65
38.86
37.29
35.19
32.89
30.67
28.73
27.18
26.01
25.19
24.64
24.22
23.79
23.14
22.08
20.49
18.33
15.64
12.62
9.48
6.43
3.60
0.97
-1.63
-4.43
-7.69
-11.59
-16.11
-20.98
-25.63
-29.33
-31.29
-30.85
-27.75
-22.13
-14.56
-5.87
3.03
11.34
18.58
24.52
29.22
32.76
35.22
36.56
36.68
35.59
33.53
30.94
28.38
26.28
24.81
23.80
22.93
21.94
20.75
19.53
18.52
17.79
17.19
16.37
14.97
12.79
9.89
6.58
3.21
0.09
-2.67
-5.10
-7.37
-9.72
-12.38
-15.56
-19.36
-23.66
-28.06
-31.87
-34.31
-34.68
-32.59
-28.10
-21.65
-13.93
-5.69
2.45
9.99
16.63
22.09
26.23
28.94
30.26
30.35
29.49
28.04
26.35
24.71
23.29
22.11
21.11
20.16
19.18
18.18
17.24
16.46
15.88
15.41
14.82
13.82
12.18
9.89
7.09
4.07
1.10
-1.63
-4.11
-6.52
-9.17
-12.35
-16.31
-21.04
-26.23
-31.23
-35.20
-37.31
-36.94
-33.95
-28.64
-21.73
-14.08
-6.56
0.23
5.98
10.65
14.38
17.33
19.55
20.99
21.53
21.13
19.92
18.21
16.38
14.80
13.68
13.03
12.72
12.53
12.28
11.86
11.27
10.57
9.79
8.92
7.80
6.25
4.11
1.40
-1.64
-4.66
-7.32
-9.48
-11.26
-12.95
-14.88
-17.30
-20.25
-23.59
-27.01
-30.09
-32.33
-33.21
-32.36
-29.61
-25.09
-19.21
-12.54
-5.69
0.83
6.67
11.63
15.63
18.65
20.65
21.66
21.72
20.97
19.62
17.97
16.33
15.00
14.13
13.72
13.63
13.63
13.50
13.11
12.41
11.46
10.34
9.14
7.88
6.53
4.98
3.10
0.81
-1.88
-4.81
-7.72
-10.35
-12.57
-14.37
-15.88
-17.31
-18.83
-20.63
-22.85
-25.56
-28.67
-31.82
-34.37
-35.54
-34.65
-31.45
-26.18
-19.51
-12.23
-5.03
1.74
7.99
13.70
18.78
22.99
26.01
27.61
27.70
26.44
24.11
21.07
17.74
14.54
11.85
9.97
9.05
9.04
9.72
10.82
12.03
13.08
13.78
13.96
13.51
12.37
10.60
8.36
5.87
3.33
0.85
-1.51
-3.78
-5.90
-7.81
-9.43
-10.78
-11.97
-13.23
-14.81
-16.95
-19.70
-22.86
-25.95
-28.29
-29.17
-28.04
-24.78
-19.69
-13.46
-6.89
-0.75
4.48
8.59
11.57
13.50
14.47
14.59
14.01
12.90
11.52
10.12
8.93
8.07
7.56
7.35
7.34
7.50
7.82
8.29
8.87
9.42
9.76
9.72
9.18
8.16
6.72
4.99
3.13
1.23
-0.60
-2.32
-3.91
-5.37
-6.73
-7.95
-8.97
-9.76
-10.39
-11.08
-12.09
-13.55
-15.28
-16.73
-17.11
-15.71
-12.06
-6.20
1.50
10.42
19.88
29.18
37.54
44.14
48.18
49.14
46.94
42.12
35.59
28.45
21.54
15.30
9.78
4.75
0.04
-4.38
-8.36
-11.73
-14.42
-16.48
-18.17
-19.77
-21.39
-22.85
-23.74
-23.56
-22.10
-19.55
-16.54
-13.98
-12.72
-13.22
-15.42
-18.82
-22.77
-26.84
-30.84
-34.82
-38.99
-43.56
-48.55
-53.62
-58.09
-61.03
-61.79
-59.76
-54.70
-47.19
-38.57
-30.56
-24.57
-21.13
-19.60
-19.00
-17.53
-13.41
-6.10
3.25
12.41
18.94
21.33
19.36
13.32
4.99
-3.07
-9.02
-12.55
-14.57
-17.04
-22.18
-31.91
-47.76
-67.98
-87.60
-100.70
-103.15
-93.86
-75.41
-52.71
-23.65
7.16
32.50
48.47
56.28
57.38
54.16
47.62
38.61
27.95
17.24
8.21
2.53
0.48
0.74
1.66
2.44
6.21
15.06
28.28
43.53
58.33
70.76
79.69
83.98
83.09
77.74
67.87
54.49
39.74
26.36
16.49
10.77
8.51
8.19
8.29
7.50
5.41
2.58
0.20
-0.89
-0.71
0.15
1.18
2.48
4.50
8.04
13.64
21.21
29.92
38.36
45.16
49.53
51.42
51.27
49.93
48.18
46.58
45.31
44.14
42.51
39.71
35.11
28.31
19.51
9.52
-0.28
-8.32
-13.27
-14.47
-12.13
-7.21
-1.18
4.51
8.72
10.91
11.16
9.98
8.05
6.01
4.27
3.06
2.41
2.25
2.48
3.01
3.75
4.71
5.93
7.47
9.33
11.33
13.14
14.30
14.46
13.49
11.56
9.03
6.26
3.44
0.47
-2.95
-7.21
-12.54
-18.95
-26.20
-33.90
-41.67
-49.20
-56.27
-62.81
-68.90
-74.68
-80.32
-85.65
-89.89
-91.44
-88.23
-78.42
-61.34
-38.05
-11.27
15.45
38.90
57.16
69.84
77.72
81.99
83.65
83.33
81.52
78.83
76.06
73.99
73.05
72.96
72.73
70.89
65.88
56.63
42.94
25.70
6.74
-11.67
-27.49
-39.43
-47.20
-51.36
-52.86
-52.68
-51.60
-50.22
-49.08
-48.65
-49.27
-51.03
-53.60
-56.43
-58.93
-60.72
-61.75
-62.29
-62.73
-63.43
-64.55
-65.92
-66.93
-66.60
-63.78
-57.55
-47.65
-34.73
-20.26
-6.05
6.25
15.72
22.23
26.22
28.32
28.96
28.28
26.33
23.28
19.67
16.21
13.64
12.38
12.45
13.44
14.78
15.87
16.36
16.21
15.57
14.69
13.72
12.71
11.49
9.87
7.65
4.80
1.46
-2.10
-5.55
-8.63
-11.27
-13.62
-15.93
-18.51
-21.62
-25.40
-29.91
-35.00
-40.25
-44.89
-47.84
-47.96
-44.41
-37.05
-26.53
-14.21
-1.70
9.55
18.59
25.06
29.05
30.88
30.91
29.50
27.01
23.79
20.21
16.66
13.47
10.88
9.01
7.79
7.08
6.63
6.30
5.93
5.39
4.54
3.20
1.29
-1.20
-4.13
-7.26
-10.42
-13.52
-16.60
-19.75
-22.97
-26.15
-29.06
-31.48
-33.27
-34.50
-35.43
-36.51
-38.25
-41.04
-44.96
-49.61
-54.08
-57.04
-56.98
-52.58
-43.14
-28.90
-11.17
7.91
25.89
40.69
51.13
57.20
59.75
59.99
58.92
56.98
54.12
50.17
45.15
39.49
33.89
29.02
25.27
22.65
20.92
19.76
18.91
18.23
17.57
16.70
15.31
13.04
9.73
5.47
0.66
-4.16
-8.58
-12.43
-15.85
-19.14
-22.56
-26.16
-29.73
-32.97
-35.67
-37.84
-39.78
-41.99
-44.92
-48.81
-53.49
-58.24
-61.73
-62.21
-58.00
-48.17
-33.05
-14.37
5.11
22.58
36.05
44.88
49.73
51.81
52.20
51.39
49.41
46.16
41.91
37.28
33.08
29.86
27.63
26.02
24.53
22.91
21.23
19.79
18.80
18.18
17.57
16.54
14.83
12.45
9.65
6.70
3.72
0.70
-2.52
-6.02
-9.70
-13.37
-16.73
-19.54
-21.68
-23.27
-24.67
-26.40
-29.07
-33.08
-38.42
-44.40
-49.64
-52.37
-50.88
-44.23
-32.64
-17.55
-1.21
14.01
26.31
34.96
40.16
42.64
43.25
42.58
40.91
38.34
34.98
31.15
27.32
23.89
21.07
18.87
17.20
16.01
15.27
14.91
14.84
14.78
14.37
13.09
10.65
7.21
3.31
-0.38
-3.41
-5.70
-7.59
-9.72
-13.13
-18.34
-24.93
-31.80
-37.82
-42.35
-45.39
-47.57
-49.84
-54.09
-61.54
-71.89
-83.39
-93.60
-99.90
-99.96
-92.56
-78.07
-60.07
-42.68
-28.57
-18.33
-11.26
-6.10
-1.57
2.83
6.78
7.46
2.88
-6.53
-18.30
-29.79
-39.21
-45.22
-46.90
-31.97
3.71
51.86
97.96
131.86
150.25
154.12
148.32
137.09
124.08
110.49
97.26
85.90
77.87
74.43
74.46
75.67
75.27
71.06
60.36
42.33
18.86
-6.20
-28.90
-46.57
-57.83
-62.75
-62.35
-59.13
-55.41
-52.29
-49.70
-47.09
-44.01
-40.11
-35.44
-30.36
-25.95
-23.11
-21.95
-21.80
-21.63
-20.64
-18.39
-15.04
-11.18
-7.81
-5.71
-5.05
-5.30
-5.56
-4.97
-3.01
0.27
4.31
8.30
11.47
13.35
13.86
13.26
11.93
10.26
8.56
6.93
5.36
3.65
1.55
-1.16
-4.54
-8.39
-12.33
-15.91
-18.87
-21.22
-23.23
-25.33
-27.93
-31.29
-35.42
-40.04
-44.49
-47.64
-47.90
-43.57
-33.45
-17.44
3.05
25.33
46.18
62.88
73.96
79.52
80.70
79.01
75.63
71.14
65.74
59.54
52.91
46.46
40.88
36.61
33.72
31.89
30.65
29.47
27.97
25.98
23.43
20.41
17.05
13.45
9.69
5.77
1.65
-2.74
-7.47
-12.55
-17.86
-23.23
-28.41
-33.15
-37.27
-40.72
-43.57
-46.08
-48.61
-51.62
-55.41
-59.99
-64.76
-68.41
-69.07
-64.85
-54.57
-38.45
-18.27
3.07
22.49
37.78
48.13
54.14
57.11
58.33
58.48
57.62
55.53
52.07
47.55
42.57
37.82
33.80
30.68
28.38
26.70
25.47
24.55
23.84
23.12
22.10
20.43
17.94
14.65
10.74
6.58
2.46
-1.44
-5.25
-9.23
-13.56
-18.21
-22.85
-27.05
-30.45
-32.84
-34.38
-35.58
-37.11
-39.51
-42.93
-47.00
-50.94
-53.40
-52.61
-46.89
-35.39
-18.51
2.00
23.45
43.01
58.13
67.79
72.70
74.50
74.58
73.59
71.49
68.03
63.37
57.19
50.13
43.63
39.02
36.42
34.93
33.21
30.18
25.48
17.88
7.31
-4.86
-16.98
-28.54
-40.06
-52.38
-66.02
-80.68
-97.49
-116.14
-134.44
-149.64
-160.37
-166.70
-169.61
-170.45
-157.76
-128.70
-91.05
-55.67
-27.18
-4.32
16.07
35.97
55.22
72.26
82.74
83.95
76.81
66.23
55.72
48.01
44.50
45.07
48.85
52.82
54.99
55.48
55.63
55.96
56.02
54.57
47.58
34.06
14.72
-7.37
-28.00
-43.62
-52.68
-55.16
-52.04
-44.81
-34.63
-23.32
-12.46
-3.24
4.36
9.84
12.63
12.37
9.20
4.06
-2.04
-8.13
-13.34
-17.16
-19.73
-21.51
-23.09
-24.98
-27.33
-30.11
-32.94
-35.01
-35.06
-31.83
-24.32
-12.29
3.50
21.45
39.43
55.39
67.78
75.92
79.77
79.85
76.87
71.57
64.62
56.66
48.32
40.25
33.07
27.21
22.94
20.19
18.70
17.97
17.49
16.80
15.66
13.98
11.85
9.36
6.64
3.72
0.61
-2.77
-6.52
-10.73
-15.47
-20.69
-26.17
-31.52
-36.27
-40.07
-42.87
-45.04
-47.26
-50.30
-54.62
-60.03
-65.58
-69.68
-70.47
-66.31
-56.41
-41.15
-22.15
-1.88
16.98
32.27
42.90
48.97
51.44
51.52
50.16
47.81
44.51
40.28
35.30
30.07
25.21
21.21
18.24
16.24
14.94
14.07
13.40
12.72
11.79
10.33
8.08
4.99
1.20
-2.99
-7.24
-11.40
-15.47
-19.61
-23.92
-28.36
-32.65
-36.48
-39.64
-42.19
-44.47
-46.97
-50.14
-54.16
-58.91
-63.86
-68.14
-70.55
-69.62
-63.98
-52.78
-36.27
-15.91
5.77
25.90
42.16
53.42
59.88
62.64
62.96
61.71
59.17
55.31
50.17
44.17
38.11
32.86
29.05
26.83
25.95
25.84
25.86
25.54
24.58
22.90
20.61
17.88
14.90
11.81
8.57
5.04
1.07
-3.41
-8.25
-13.11
-17.55
-21.23
-24.09
-26.44
-28.83
-31.84
-35.81
-40.71
-46.19
-51.62
-56.19
-58.80
-58.15
-52.91
-42.18
-26.09
-5.99
15.68
36.18
53.29
65.91
74.01
78.18
78.93
76.33
70.27
61.00
49.65
38.29
29.40
24.96
25.66
30.75
38.34
46.19
52.38
55.77
55.96
52.98
47.05
38.49
27.76
15.64
3.26
-8.10
-17.29
-23.56
-26.76
-27.23
-25.63
-22.69
-19.00
-14.99
-11.08
-7.90
-6.33
-7.43
-12.06
-20.45
-31.95
-45.01
-57.52
-67.28
-72.61
-72.67
-67.69
-58.79
-47.70
-36.29
-26.12
-18.13
-12.53
-9.02
-6.99
-5.88
-5.35
-5.27
-5.67
-6.52
-7.68
-8.82
-9.56
-9.52
-8.56
-6.78
-4.56
-2.33
-0.48
0.83
1.61
1.96
1.95
1.54
0.67
-0.73
-2.56
-4.60
-6.64
-8.59
-10.52
-12.63
-15.07
-17.83
-20.70
-23.36
-25.55
-27.22
-28.61
-30.13
-32.29
-35.36
-39.29
-43.47
-46.87
-48.20
-46.30
-40.47
-30.70
-17.67
-2.61
13.03
27.81
40.58
50.56
57.39
61.12
62.10
60.84
57.94
53.92
49.25
44.31
39.50
35.20
31.69
29.09
27.30
26.00
24.80
23.30
21.29
18.68
15.57
12.11
8.49
4.83
1.22
-2.31
-5.77
-9.18
-12.55
-15.84
-18.94
-21.64
-23.83
-25.44
-26.61
-27.64
-28.95
-30.93
-33.85
-37.71
-42.06
-45.97
-48.09
-46.87
-41.02
-29.97
-14.21
4.66
24.29
42.21
56.50
66.19
71.30
72.53
70.83
67.02
61.69
55.23
48.02
40.54
33.36
27.01
21.80
17.78
14.73
12.35
10.32
8.43
6.60
4.85
3.13
1.31
-0.79
-3.40
-6.60
-10.30
-14.17
-17.79
-20.83
-23.17
-24.94
-26.47
-28.13
-30.18
-32.59
-35.16
-37.56
-39.59
-41.34
-43.20
-45.64
-48.90
-52.64
-55.83
-57.00
-54.60
-47.60
-35.80
-19.96
-1.70
16.95
33.98
47.82
57.64
63.36
65.54
65.00
62.54
58.73
53.96
48.52
42.79
37.21
32.19
27.93
24.39
21.36
18.67
16.26
14.16
12.33
10.48
8.19
5.05
0.92
-3.90
-8.83
-13.21
-16.70
-19.42
-21.89
-24.78
-28.59
-33.41
-38.86
-44.33
-49.15
-52.91
-55.58
-57.50
-59.24
-61.40
-64.41
-68.24
-72.40
-75.90
-77.38
-75.39
-68.87
-57.59
-42.43
-25.20
-7.95
7.58
20.54
30.96
39.47
46.66
52.72
57.19
59.43
59.32
57.35
54.50
51.93
50.56
50.68
52.00
53.58
54.54
54.66
54.28
53.89
53.85
54.06
53.80
52.00
47.17
38.26
25.39
9.68
-6.91
-21.63
-31.33
-34.04
-27.66
-13.21
4.94
21.85
33.66
37.75
32.86
19.18
-1.39
-25.18
-47.30
-64.61
-73.97
-73.74
-64.80
-50.04
-33.10
-16.98
-3.44
6.90
14.23
18.23
18.91
16.35
10.99
3.86
-3.43
-9.14
-12.08
-11.76
-8.05
-1.11
8.63
20.63
34.12
47.90
60.39
69.83
74.90
75.37
72.12
66.48
59.79
52.85
45.87
38.61
30.82
22.60
14.47
7.10
0.82
-4.67
-10.21
-16.80
-25.22
-35.66
-47.78
-60.92
-74.35
-87.38
-99.12
-108.29
-113.18
-112.10
-104.15
-89.81
-71.15
-51.21
-33.05
-18.72
-8.73
-2.23
2.32
6.26
10.25
14.09
17.19
19.04
19.56
19.24
18.88
19.25
20.85
23.72
27.55
31.84
36.01
39.56
41.90
42.53
41.09
37.42
31.63
24.11
15.47
6.41
-2.44
-10.66
-18.00
-24.26
-29.38
-33.39
-36.47
-38.78
-40.51
-41.83
-43.18
-44.93
-47.29
-50.05
-52.42
-52.85
-49.11
-39.05
-21.50
2.49
30.26
58.45
83.93
104.53
119.33
128.50
132.52
131.52
124.27
110.29
90.92
69.21
48.68
31.92
19.80
11.23
3.66
-7.17
-23.47
-44.22
-66.10
-85.81
-101.46
-112.76
-120.62
-126.56
-133.80
-143.60
-154.61
-164.24
-170.84
-174.28
-175.25
-174.21
-157.43
-119.32
-65.81
-9.44
39.87
76.69
98.31
104.33
98.62
85.55
68.28
51.29
39.39
35.81
40.73
51.94
66.53
81.10
92.20
93.42
81.10
56.83
26.42
-3.55
-27.93
-43.17
-47.42
-41.06
-27.43
-10.55
5.82
18.67
27.19
31.18
31.45
29.49
26.61
23.28
19.90
16.92
14.70
13.33
12.83
12.21
10.78
8.10
4.17
-0.26
-4.09
-6.47
-7.22
-6.61
-5.63
-5.73
-8.16
-13.12
-19.67
-26.11
-30.44
-30.80
-25.48
-14.19
1.56
18.92
34.72
46.24
52.04
52.67
46.81
37.62
31.18
31.30
36.84
43.85
48.92
50.78
50.09
47.96
45.06
40.15
30.99
16.31
-2.70
-22.53
-39.82
-51.59
-56.42
-54.40
-47.48
-38.51
-29.96
-23.28
-19.11
-17.24
-18.36
-22.61
-28.78
-35.02
-39.22
-39.68
-35.81
-28.48
-19.74
-11.70
-5.72
-1.03
3.64
9.49
17.05
25.84
34.57
41.72
46.47
48.86
49.61
49.40
48.53
46.88
44.12
40.15
34.42
27.60
20.77
14.91
10.51
7.54
5.55
3.77
1.48
-1.80
-5.92
-10.44
-14.78
-18.59
-21.95
-25.30
-29.29
-34.41
-40.71
-47.66
-54.40
-59.99
-63.76
-65.49
-65.46
-64.40
-63.22
-62.76
-63.50
-65.51
-68.30
-70.88
-71.75
-69.10
-61.23
-47.09
-26.89
-2.33
23.66
47.70
67.08
80.48
88.15
91.36
91.54
89.66
86.01
80.54
73.36
65.02
56.50
48.76
42.33
37.16
32.76
28.52
24.00
19.13
14.14
9.44
5.26
1.58
-2.02
-6.11
-11.20
-17.50
-24.69
-32.10
-38.88
-44.35
-48.24
-50.76
-52.48
-54.13
-56.40
-59.75
-64.32
-69.76
-75.10
-78.70
-78.43
-72.37
-59.48
-40.33
-17.12
6.85
28.34
45.15
56.72
63.82
67.83
69.90
70.44
69.30
66.17
61.18
55.00
48.70
43.36
39.54
37.24
35.92
34.83
33.38
31.37
28.99
26.61
24.45
22.43
20.25
17.43
13.60
8.69
3.05
-2.61
-7.50
-11.20
-13.70
-15.39
-16.90
-18.92
-21.94
-26.12
-31.21
-36.63
-41.54
-44.52
-43.59
-36.74
-22.94
-2.81
21.31
45.99
67.91
84.34
94.58
99.94
102.61
104.08
104.60
103.59
100.34
94.78
86.06
74.05
59.42
43.15
25.67
7.17
-11.61
-29.62
-45.47
-60.47
-75.84
-91.51
-105.99
-118.16
-127.67
-134.74
-140.47
-146.00
-155.05
-169.56
-188.11
-206.51
-221.43
-231.75
-237.92
-241.56
-225.98
-184.53
-124.90
-61.80
-4.20
44.82
82.79
111.13
129.20
137.16
134.45
123.55
107.99
94.66
88.33
89.98
97.92
108.74
119.36
124.98
121.98
105.08
74.83
37.16
0.50
-28.32
-46.37
-53.11
-51.05
-43.40
-32.93
-20.90
-8.89
1.00
7.79
10.79
10.59
7.89
3.61
-1.19
-4.90
-6.86
-7.65
-8.42
-10.23
-13.61
-17.86
-21.29
-21.55
-16.06
-3.48
15.46
38.27
61.36
81.41
96.15
104.64
107.26
105.41
100.59
93.82
85.62
76.27
66.24
56.35
47.54
40.61
35.98
33.51
32.53
32.16
31.67
30.70
29.42
28.19
27.46
27.43
28.01
28.82
29.37
29.31
28.60
27.59
26.90
27.12
28.61
31.30
34.66
37.84
39.86
39.85
37.29
32.09
24.72
16.14
7.73
0.84
-3.56
-5.34
-5.32
-5.04
-6.18
-9.92
-16.51
-25.17
-34.47
-42.80
-48.99
-52.57
-53.74
-53.21
-51.81
-50.28
-49.12
-48.62
-48.82
-49.70
-51.14
-52.92
-54.71
-56.14
-56.91
-56.87
-56.17
-55.12
-54.12
-53.40
-53.01
-52.75
-52.42
-51.85
-51.03
-50.07
-49.14
-48.30
-47.54
-46.74
-45.74
-44.43
-42.76
-40.75
-38.50
-36.19
-34.01
-32.11
-30.62
-29.52
-28.75
-28.17
-27.74
-27.52
-27.74
-28.71
-30.66
-33.59
-37.17
-40.77
-43.50
-44.37
-42.56
-37.58
-29.53
-19.20
-7.92
2.67
11.02
16.03
17.24
14.85
9.56
2.24
-6.31
-15.53
-25.10
-34.81
-44.33
-52.95
-59.54
-62.72
-61.22
-54.36
-42.35
-26.29
-7.92
10.88
28.45
43.62
55.77
64.63
70.21
72.59
71.98
68.69
63.24
56.26
48.40
40.15
31.76
23.43
15.54
8.88
4.67
4.20
8.18
16.23
26.67
36.81
43.85
45.70
41.64
32.45
19.99
6.56
-5.88
-16.11
-23.83
-29.39
-33.52
-36.98
-40.40
-44.12
-48.11
-52.00
-55.08
-56.57
-55.73
-52.16
-45.80
-36.93
-26.10
-13.99
-1.40
10.85
21.88
30.87
37.21
40.62
41.22
39.51
36.24
32.25
28.30
24.93
22.38
20.60
19.40
18.60
18.13
18.01
18.21
18.52
18.57
17.86
16.03
13.02
9.12
4.80
0.53
-3.44
-7.13
-10.81
-14.85
-19.57
-25.27
-32.08
-39.96
-48.42
-56.45
-62.48
-64.66
-61.45
-52.23
-37.68
-19.67
-0.68
16.98
31.78
43.20
51.51
57.22
60.68
61.94
60.99
57.98
53.48
48.36
43.50
39.53
36.55
34.28
32.21
30.08
27.87
25.85
24.31
23.29
22.44
21.06
18.43
14.13
8.25
1.44
-5.36
-11.30
-15.99
-19.56
-22.68
-26.17
-30.79
-36.90
-44.25
-51.99
-58.71
-62.76
-62.61
-57.38
-47.10
-32.83
-16.38
0.24
15.27
27.66
37.11
43.83
48.23
50.62
51.15
49.89
47.06
43.13
38.80
34.80
31.67
29.58
28.29
27.33
26.21
24.71
22.89
21.06
19.51
18.26
17.00
15.11
11.94
7.12
0.80
-6.36
-13.43
-19.61
-24.59
-28.65
-32.56
-37.22
-43.38
-51.35
-60.83
-70.96
-80.36
-87.38
-90.49
-88.69
-81.86
-70.75
-56.84
-41.83
-27.33
-14.59
-4.45
2.58
6.27
6.59
3.58
-2.88
-12.96
-26.67
-43.17
-60.33
-74.84
-83.13
-82.78
-73.47
-57.04
-36.50
-14.72
6.45
26.16
43.84
58.41
68.20
71.61
68.13
59.08
47.50
37.20
31.31
31.16
35.67
41.89
46.15
45.56
39.23
28.57
16.65
6.89
1.88
2.67
8.82
19.01
31.65
45.35
59.04
71.96
83.56
93.45
101.20
106.18
107.57
104.61
97.07
85.69
72.29
59.47
49.79
44.96
45.18
49.06
53.96
56.85
55.38
48.65
37.23
22.90
7.80
-6.32
-18.28
-27.40
-33.23
-35.84
-35.98
-34.89
-33.57
-31.83
-28.27
-21.23
-10.66
0.46
6.35
0.69
-20.13
-54.56
-95.69
-133.65
-159.19
-166.78
-155.78
-129.68
-94.18
-55.26
-18.08
13.46
36.84
50.91
55.64
52.06
42.15
28.65
14.65
2.98
-4.46
-7.27
-6.63
-4.78
-4.12
-6.19
-11.08
-17.46
-23.30
-26.78
-27.07
-24.58
-20.67
-16.94
-14.61
-14.16
-15.39
-17.70
-20.44
-23.13
-25.55
-27.74
-29.87
-32.14
-34.72
-37.77
-41.46
-46.07
-51.81
-58.66
-66.10
-72.93
-77.48
-78.08
-73.65
-64.16
-50.69
-34.93
-18.65
-3.14
10.87
23.12
33.48
41.81
47.98
51.94
53.91
54.31
53.67
52.51
51.26
50.21
49.58
49.49
50.03
51.27
53.25
55.92
59.04
62.04
64.13
64.45
62.41
57.97
51.68
44.51
37.46
31.24
26.06
21.65
17.47
12.88
7.36
0.65
-7.11
-15.29
-22.80
-28.28
-30.52
-28.81
-23.24
-14.58
-4.06
7.03
17.64
27.09
34.99
41.08
45.22
47.31
47.45
45.99
43.54
40.81
38.40
36.59
35.25
33.95
32.16
29.53
26.14
22.44
19.17
16.97
16.13
16.47
17.33
17.81
17.08
14.60
10.32
4.69
-1.53
-7.47
-12.48
-16.31
-19.12
-21.39
-23.72
-26.64
-30.42
-34.87
-39.26
-42.26
-42.22
-37.52
-27.12
-11.04
9.54
32.60
55.78
77.03
95.04
109.25
119.69
126.67
130.49
131.38
129.57
125.43
119.50
112.55
105.42
98.85
93.27
88.72
84.83
80.96
76.45
70.78
63.71
55.36
46.11
36.44
26.78
17.34
8.05
-1.30
-10.91
-20.77
-30.62
-39.99
-48.47
-55.91
-62.46
-68.56
-74.71
-81.32
-88.56
-96.26
-103.81
-110.01
-113.12
-111.21
-102.71
-87.18
-65.69
-40.79
-15.79
6.27
23.44
35.25
42.37
45.98
47.08
46.14
43.24
38.41
31.94
24.57
17.21
10.60
5.00
0.14
-4.53
-9.48
-14.77
-20.00
-24.55
-28.03
-30.52
-32.71
-35.60
-40.05
-46.44
-54.38
-62.90
-70.74
-76.82
-80.55
-82.01
-81.83
-80.92
-80.16
-80.14
-80.96
-82.23
-83.02
-82.02
-77.80
-69.21
-55.86
-38.40
-18.51
1.54
19.56
34.02
44.37
50.94
54.49
55.81
55.36
53.30
49.64
44.44
37.95
30.54
22.73
15.04
7.96
1.82
-3.19
-7.12
-10.13
-12.51
-14.52
-16.40
-18.36
-20.56
-23.21
-26.44
-30.19
-34.16
-37.77
-40.43
-41.69
-41.51
-40.26
-38.56
-37.06
-36.19
-36.14
-36.71
-37.38
-37.31
-35.49
-30.84
-22.61
-10.62
4.59
21.77
39.33
55.72
69.81
81.08
89.52
95.51
99.48
101.75
102.40
101.37
98.57
94.09
88.32
81.92
75.67
70.09
65.32
60.95
56.27
50.61
43.67
35.68
27.23
18.97
11.15
3.54
-4.58
-13.98
-25.14
-37.95
-51.73
-65.44
-77.98
-88.58
-96.89
-103.12
-107.92
-112.29
-117.46
-124.58
-134.34
-146.41
-159.03
-168.99
-172.42
-166.04
-148.52
-121.35
-88.46
-55.02
-25.61
-2.90
12.80
22.90
29.38
33.75
36.65
38.04
37.69
35.68
32.49
28.84
25.32
22.25
19.70
17.67
16.31
15.85
16.52
18.37
21.05
23.84
25.82
26.27
24.99
22.35
19.02
15.69
12.75
10.17
7.66
4.71
1.18
-2.46
-5.41
-7.03
-7.16
-6.29
-5.42
-5.73
-8.45
-13.87
-20.87
-27.26
-30.78
-29.92
-24.46
-15.63
-5.76
2.18
6.25
6.68
5.35
4.43
5.32
8.10
11.58
13.83
12.31
5.58
-5.78
-19.54
-32.86
-42.74
-46.22
-40.67
-21.29
10.86
46.59
73.79
84.82
78.36
58.10
30.44
2.44
-20.36
-35.90
-44.63
-47.96
-47.35
-44.80
-40.69
-35.64
-30.62
-26.99
-26.56
-30.24
-37.17
-45.20
-52.12
-56.25
-56.72
-53.61
-47.88
-40.96
-34.03
-27.30
-20.16
-11.86
-1.98
9.82
23.08
36.41
47.92
56.40
61.95
65.79
69.41
73.66
79.44
86.67
94.36
101.21
106.36
109.06
108.86
105.04
97.22
87.35
78.28
72.30
70.25
71.47
73.84
75.47
75.12
65.41
44.76
18.15
-6.99
-26.59
-38.79
-47.35
-54.07
-59.08
-61.88
-61.59
-57.97
-52.56
-47.71
-45.20
-45.74
-48.22
-51.02
-52.60
-51.06
-45.58
-36.96
-26.91
-16.96
-8.15
-0.43
6.39
12.41
18.05
23.42
28.03
31.25
32.78
32.72
31.73
30.42
29.18
28.45
28.44
28.95
29.62
30.15
30.22
29.74
28.47
26.14
22.63
17.94
12.17
5.45
-2.04
-10.21
-18.97
-28.21
-37.71
-47.01
-55.44
-62.32
-67.14
-69.80
-70.60
-70.15
-69.21
-68.44
-68.37
-69.18
-70.74
-72.49
-73.51
-72.72
-69.18
-62.43
-52.69
-40.81
-28.04
-15.63
-4.56
4.70
12.19
18.30
23.55
28.27
32.42
35.66
37.54
37.89
37.04
35.81
35.15
35.63
37.15
38.96
40.09
39.86
38.28
35.89
33.43
31.35
29.58
27.59
24.74
20.67
15.42
9.46
3.45
-2.03
-6.64
-10.30
-13.13
-15.36
-17.19
-18.77
-20.20
-21.61
-23.17
-25.01
-27.06
-28.94
-29.89
-29.05
-25.70
-19.56
-10.87
-0.24
11.65
24.21
37.00
49.57
61.28
71.28
78.66
82.78
83.52
81.29
76.90
71.30
65.31
59.53
54.29
49.73
45.79
42.29
38.89
35.18
30.72
25.15
18.27
10.07
0.81
-9.03
-18.84
-28.01
-36.08
-42.91
-48.59
-53.39
-57.48
-60.86
-63.41
-65.02
-65.82
-66.19
-66.68
-67.77
-69.69
-72.23
-74.84
-76.73
-77.08
-75.18
-70.60
-63.29
-53.53
-41.93
-29.29
-16.45
-4.20
6.81
16.09
23.36
28.58
31.91
33.66
34.22
33.96
33.14
32.02
30.78
29.56
28.52
27.76
27.29
27.03
26.83
26.48
25.80
24.71
23.27
21.67
20.11
18.70
17.43
16.12
14.54
12.44
9.64
6.08
1.82
-2.97
-7.98
-12.81
-17.09
-20.59
-23.38
-25.84
-28.50
-31.80
-35.79
-39.95
-43.25
-44.45
-42.55
-37.21
-28.85
-18.58
-7.75
2.39
11.06
18.03
23.46
27.72
31.12
33.86
35.91
37.12
37.31
36.35
34.22
31.10
27.35
23.44
19.86
17.02
15.13
14.22
14.14
14.63
15.40
16.17
16.65
16.59
15.74
13.95
11.25
7.88
4.23
0.71
-2.41
-5.11
-7.53
-9.96
-12.60
-15.57
-18.91
-22.60
-26.65
-30.89
-35.00
-38.33
-40.01
-39.23
-35.51
-28.99
-20.38
-10.77
-1.23
7.46
14.96
21.26
26.45
30.52
33.37
34.90
35.15
34.39
33.03
31.45
29.90
28.47
27.13
25.86
24.70
23.72
22.96
22.35
21.67
20.62
18.93
16.45
13.21
9.43
5.38
1.30
-2.73
-6.79
-11.02
-15.50
-20.12
-24.62
-28.63
-31.89
-34.34
-36.18
-37.80
-39.67
-42.16
-45.39
-49.08
-52.52
-54.66
-54.43
-51.01
-44.22
-34.67
-23.53
-12.24
-2.03
6.35
12.75
17.44
20.84
23.33
25.10
26.20
26.58
26.17
24.92
22.80
19.87
16.31
12.40
8.56
5.15
2.51
0.77
-0.15
-0.54
-0.79
-1.36
-2.55
-4.50
-7.01
-9.73
-12.28
-14.39
-16.07
-17.48
-18.80
-20.13
-21.41
-22.52
-23.44
-24.36
-25.62
-27.66
-30.80
-35.10
-40.29
-45.66
-50.17
-52.70
-52.35
-48.76
-42.30
-33.94
-24.94
-16.47
-9.40
-4.19
-1.03
0.12
-0.52
-2.53
-5.19
-7.67
-9.27
-9.56
-8.55
-6.50
-3.72
-0.46
3.13
6.84
10.28
12.89
14.17
13.95
12.47
10.42
8.61
7.57
7.34
7.42
7.05
5.50
2.44
-2.02
-7.29
-12.54
-16.93
-19.79
-20.88
-20.44
-19.09
-17.69
-17.05
-17.72
-19.80
-22.95
-26.44
-29.39
-30.88
-30.22
-27.02
-21.31
-13.52
-4.46
4.88
13.55
20.88
26.59
30.77
33.70
35.67
36.83
37.16
36.59
35.11
32.90
30.31
27.74
25.55
23.93
22.95
22.57
22.70
23.19
23.83
24.32
24.38
23.77
22.42
20.35
17.72
14.68
11.38
7.92
4.40
0.96
-2.26
-5.19
-7.85
-10.41
-13.10
-16.14
-19.66
-23.67
-28.05
-32.54
-36.67
-39.82
-41.25
-40.30
-36.60
-30.27
-21.94
-12.59
-3.26
5.22
12.40
18.24
22.91
26.64
29.49
31.42
32.31
32.15
31.09
29.48
27.72
26.17
24.99
24.26
23.90
23.86
24.06
24.44
24.87
25.14
24.99
24.15
22.46
19.97
16.93
13.71
10.61
7.82
5.31
2.97
0.64
-1.73
-4.06
-6.20
-8.01
-9.52
-10.94
-12.65
-15.02
-18.27
-22.20
-26.15
-29.09
-29.91
-27.79
-22.53
-14.65
-5.18
4.69
13.99
22.16
29.00
34.60
39.10
42.65
45.44
47.66
49.45
50.81
51.49
51.00
48.91
45.02
39.66
33.67
28.21
24.40
22.79
23.25
24.93
26.71
27.68
27.49
26.42
25.10
24.09
23.66
23.78
24.33
25.39
27.27
30.13
33.69
36.89
38.09
35.63
28.50
16.85
2.00
-14.00
-29.01
-41.39
-50.24
-55.32
-56.84
-55.14
-50.59
-43.61
-34.71
-24.57
-14.00
-3.82
5.22
12.59
18.02
21.51
23.30
23.75
23.25
22.07
20.32
18.05
15.31
12.32
9.40
6.93
5.26
4.57
5.01
6.74
9.91
14.59
20.54
27.07
33.13
37.60
39.64
39.03
36.12
31.63
26.33
20.79
15.35
10.19
5.53
1.56
-1.62
-4.14
-6.42
-9.02
-12.38
-16.52
-20.92
-24.56
-26.29
-25.19
-21.02
-14.29
-6.07
2.36
9.99
16.26
21.11
24.68
27.00
27.86
26.83
23.59
18.16
11.03
3.02
-4.98
-12.26
-18.43
-23.33
-26.86
-28.92
-29.37
-28.25
-25.84
-22.68
-19.42
-16.59
-14.39
-12.75
-11.39
-9.97
-8.27
-6.27
-4.14
-2.24
-0.96
-0.60
-1.19
-2.40
-3.68
-4.45
-4.37
-3.58
-2.63
-2.31
-3.42
-6.52
-11.77
-18.76
-26.52
-33.51
-38.01
-38.62
-34.88
-27.47
-18.11
-8.87
-1.41
3.54
6.27
7.62
8.43
9.17
9.87
10.37
10.61
10.71
10.89
11.28
11.83
12.40
12.90
13.34
13.88
14.62
15.41
15.85
15.40
13.56
10.13
5.24
-0.73
-7.28
-14.00
-20.65
-27.12
-33.42
-39.56
-45.49
-51.03
-55.99
-60.15
-63.39
-65.72
-67.30
-68.43
-69.56
-71.14
-73.49
-76.50
-79.38
-80.77
-79.03
-72.84
-61.84
-46.88
-29.83
-12.99
1.64
12.89
20.49
24.89
26.85
27.09
26.18
24.43
22.06
19.27
16.30
13.47
11.13
9.54
8.78
8.67
8.92
9.16
9.20
8.97
8.50
7.84
6.92
5.62
3.83
1.57
-1.02
-3.74
-6.42
-9.06
-11.78
-14.72
-17.91
-21.19
-24.28
-26.92
-29.03
-30.83
-32.77
-35.35
-38.92
-43.37
-48.01
-51.58
-52.53
-49.52
-41.90
-30.11
-15.61
-0.49
13.22
24.21
32.12
37.38
40.76
42.84
43.85
43.66
42.13
39.29
35.47
31.20
26.98
23.18
19.96
17.35
15.33
13.88
13.01
12.66
12.68
12.75
12.49
11.49
9.54
6.67
3.18
-0.49
-4.00
-7.15
-10.01
-12.77
-15.56
-18.41
-21.17
-23.64
-25.75
-27.58
-29.39
-31.48
-34.09
-37.29
-41.00
-44.86
-48.29
-50.45
-50.41
-47.39
-41.04
-31.63
-20.01
-7.44
4.85
15.84
24.92
31.84
36.53
39.02
39.41
37.95
35.12
31.66
28.38
26.02
24.97
25.22
26.39
27.93
29.30
30.10
30.12
29.32
27.78
25.66
23.18
20.55
17.90
15.28
12.56
9.54
6.05
2.02
-2.44
-7.09
-11.51
-15.31
-18.18
-20.05
-21.15
-21.96
-23.13
-25.19
-28.39
-32.51
-36.88
-40.47
-42.14
-40.89
-36.23
-28.34
-18.10
-6.91
3.71
12.59
19.18
23.57
26.30
27.95
28.82
28.84
27.60
24.71
20.13
14.28
8.05
2.43
-1.79
-4.35
-5.44
-5.54
-5.09
-4.28
-3.12
-1.52
0.43
2.42
4.01
4.83
4.73
3.81
2.34
0.61
-1.12
-2.74
-4.20
-5.56
-6.93
-8.48
-10.40
-12.79
-15.72
-19.18
-23.11
-27.29
-31.24
-34.17
-35.07
-32.99
-27.47
-18.80
-8.08
3.09
13.14
21.00
26.31
29.37
30.81
31.23
30.97
30.12
28.64
26.52
23.88
20.96
18.13
15.69
13.88
12.81
12.43
12.62
13.18
13.92
14.65
15.23
15.55
15.45
14.76
13.32
11.02
7.90
4.16
0.11
-3.92
-7.64
-10.93
-13.81
-16.39
-18.85
-21.35
-24.03
-26.99
-30.29
-33.96
-37.93
-41.90
-45.27
-47.18
-46.68
-43.11
-36.38
-27.14
-16.60
-6.13
3.20
10.91
17.15
22.38
27.05
31.29
34.84
37.28
38.26
37.78
36.12
33.83
31.42
29.26
27.48
26.10
25.02
24.15
23.35
22.40
21.00
18.89
15.98
12.45
8.75
5.39
2.77
0.97
-0.27
-1.38
-2.78
-4.66
-6.94
-9.35
-11.52
-13.20
-14.34
-15.10
-15.81
-16.92
-18.84
-21.80
-25.66
-29.77
-33.02
-34.14
-32.06
-26.39
-17.59
-6.84
4.28
14.34
22.42
28.21
31.84
33.68
34.00
32.98
30.68
27.26
23.05
18.57
14.40
11.03
8.73
7.49
7.08
7.17
7.42
7.56
7.44
7.04
6.39
5.54
4.43
3.00
1.10
-1.30
-4.15
-7.24
-10.27
-12.96
-15.14
-16.86
-18.37
-19.99
-22.06
-24.73
-27.99
-31.63
-35.36
-38.83
-41.62
-43.22
-43.06
-40.63
-35.67
-28.39
-19.41
-9.59
0.44
10.42
20.49
30.76
40.91
49.99
56.64
59.66
58.55
53.82
46.76
38.93
31.63
25.54
20.86
17.47
15.25
14.23
14.41
15.65
17.50
19.27
20.22
19.84
18.06
15.19
11.77
8.36
5.22
2.35
-0.52
-3.67
-7.21
-10.97
-14.54
-17.50
-19.59
-20.87
-21.66
-22.52
-24.00
-26.51
-30.13
-34.55
-39.05
-42.57
-43.97
-42.36
-37.35
-29.27
-19.01
-7.74
3.48
13.94
23.31
31.44
38.12
42.98
45.58
45.69
43.49
39.61
34.97
30.45
26.59
23.50
20.98
18.72
16.56
14.49
12.64
11.13
9.97
8.98
7.91
6.52
4.63
2.25
-0.51
-3.45
-6.36
-9.11
-11.65
-14.02
-16.25
-18.33
-20.21
-21.87
-23.37
-24.84
-26.43
-28.21
-30.11
-32.04
-33.96
-36.00
-38.31
-40.89
-43.34
-44.81
-44.19
-40.58
-33.66
-23.92
-12.52
-0.87
9.79
18.80
25.96
31.46
35.50
38.16
39.43
39.25
37.74
35.27
32.36
29.60
27.37
25.87
24.96
24.37
23.76
22.90
21.69
20.18
18.50
16.73
14.95
13.13
11.29
9.43
7.58
5.71
3.72
1.46
-1.19
-4.27
-7.70
-11.24
-14.74
-18.10
-21.44
-25.00
-29.06
-33.83
-39.19
-44.72
-49.60
-52.81
-53.29
-50.33
-43.79
-34.27
-22.89
-11.06
-0.08
9.20
16.47
21.80
25.51
27.87
29.03
28.99
27.79
25.61
22.80
19.87
17.28
15.37
14.18
13.53
13.09
12.50
11.52
10.03
8.10
5.90
3.66
1.55
-0.32
-1.96
-3.46
-4.96
-6.59
-8.49
-10.73
-13.29
-16.11
-19.03
-21.86
-24.38
-26.47
-28.12
-29.51
-30.97
-32.93
-35.81
-39.81
-44.75
-49.88
-54.02
-55.80
-54.10
-48.50
-39.37
-27.83
-15.37
-3.40
7.05
15.47
21.79
26.23
29.10
30.74
31.43
31.38
30.73
29.58
28.03
26.18
24.24
22.40
20.85
19.72
18.99
18.56
18.29
17.96
17.36
16.26
14.50
12.09
9.18
6.12
3.30
0.95
-0.91
-2.54
-4.30
-6.50
-9.29
-12.59
-16.18
-19.85
-23.39
-26.69
-29.71
-32.52
-35.30
-38.35
-41.92
-46.01
-50.19
-53.56
-54.93
-53.18
-47.73
-38.76
-27.23
-14.62
-2.44
8.16
16.61
22.90
27.37
30.45
32.51
33.77
34.37
34.44
34.12
33.56
32.94
32.40
32.10
32.17
32.65
33.46
34.42
35.24
35.63
35.37
34.42
32.87
30.93
28.75
26.44
23.93
21.10
17.86
14.19
10.24
6.26
2.46
-1.00
-4.15
-7.11
-10.13
-13.49
-17.55
-22.64
-28.92
-36.25
-43.96
-51.02
-56.24
-58.79
-58.47
-55.84
-51.90
-47.59
-43.35
-39.00
-33.96
-27.58
-19.62
-10.42
-0.86
7.90
14.76
18.97
20.30
18.99
15.68
11.21
6.45
2.27
-0.66
-1.85
-1.15
1.28
4.94
9.17
13.32
16.95
19.97
22.64
25.39
28.57
32.15
35.59
37.86
37.85
34.78
28.60
20.08
10.48
1.08
-7.36
-14.74
-21.44
-27.88
-34.12
-39.72
-43.79
-45.42
-44.02
-39.55
-32.60
-24.19
-15.45
-7.30
-0.24
5.69
10.70
15.12
19.15
22.89
26.34
29.51
32.46
35.23
37.73
39.73
40.93
41.16
40.45
39.15
37.73
36.62
36.04
35.94
36.03
35.95
35.37
34.14
32.30
30.05
27.75
25.81
24.61
24.35
24.94
25.98
26.82
26.75
25.23
22.01
17.22
11.23
4.55
-2.36
-9.21
-15.81
-21.94
-27.15
-30.78
-32.02
-30.23
-25.22
-17.43
-7.90
2.00
10.94
17.93
22.46
24.48
24.28
22.29
19.08
15.19
11.19
7.52
4.47
2.13
0.44
-0.71
-1.48
-2.00
-2.38
-2.62
-2.59
-1.85
0.20
4.11
10.00
17.31
24.81
30.92
34.30
34.27
30.99
25.26
18.08
10.30
2.46
-5.18
-12.49
-19.27
-25.40
-30.81
-35.61
-39.91
-43.66
-46.43
-47.44
-45.74
-40.73
-32.51
-22.09
-11.10
-1.33
5.95
10.37
12.50
13.55
14.79
17.24
21.30
26.82
33.18
39.47
44.79
48.39
49.95
49.57
47.75
45.18
42.54
40.26
38.57
37.47
36.96
37.02
37.64
38.75
40.07
41.25
41.88
41.68
40.62
38.93
36.93
34.87
32.70
30.04
26.30
20.91
13.57
4.36
-6.20
-17.29
-27.89
-36.95
-43.40
-46.36
-45.27
-40.14
-31.65
-21.14
-10.24
-0.53
6.86
11.46
13.42
13.31
11.80
9.45
6.62
3.48
0.10
-3.45
-7.04
-10.46
-13.46
-15.77
-17.16
-17.45
-16.61
-14.73
-12.13
-9.26
-6.67
-4.86
-4.16
-4.62
-5.95
-7.71
-9.42
-10.82
-11.92
-12.97
-14.30
-16.15
-18.57
-21.39
-24.32
-27.04
-29.32
-31.11
-32.57
-34.05
-35.97
-38.64
-42.06
-45.70
-48.59
-49.48
-47.32
-41.61
-32.64
-21.43
-9.49
1.67
10.86
17.47
21.47
23.23
23.37
22.41
20.73
18.50
15.80
12.80
9.81
7.24
5.49
4.74
4.88
5.58
6.42
6.97
6.91
6.05
4.30
1.77
-1.24
-4.31
-6.99
-9.13
-10.87
-12.72
-15.22
-18.72
-23.12
-27.92
-32.44
-35.99
-38.17
-38.89
-38.42
-37.29
-36.13
-35.47
-35.46
-35.78
-35.67
-34.19
-30.64
-24.86
-17.28
-8.74
-0.11
7.95
15.09
21.18
26.16
29.93
32.38
33.50
33.38
32.23
30.32
27.93
25.33
22.73
20.33
18.22
16.45
14.96
13.65
12.40
11.06
9.52
7.70
5.57
3.22
0.81
-1.48
-3.54
-5.42
-7.35
-9.62
-12.47
-15.97
-20.01
-24.39
-28.94
-33.61
-38.61
-44.35
-51.49
-60.71
-72.63
-87.26
-103.67
-119.75
-132.44
-138.53
-135.64
-123.17
-102.53
-76.74
-49.47
-23.97
-2.40
14.29
26.17
33.90
38.43
40.91
42.58
44.65
48.05
53.19
59.84
67.24
74.27
79.79
82.91
83.18
80.64
75.76
69.30
62.18
55.22
48.97
43.64
39.14
35.22
31.64
28.25
24.95
21.63
18.08
14.02
9.34
4.24
-0.65
-4.37
-6.05
-5.19
-1.99
2.74
7.77
11.89
14.40
15.30
15.37
15.83
17.87
22.17
28.55
36.13
43.55
49.53
53.26
54.53
53.73
51.51
48.59
45.42
42.19
38.81
35.00
30.49
25.16
19.19
13.02
7.31
2.69
-0.45
-2.03
-2.36
-2.02
-1.79
-2.34
-4.15
-7.32
-11.61
-16.51
-21.49
-26.20
-30.60
-34.99
-39.80
-45.38
-51.84
-58.97
-66.31
-73.44
-80.12
-86.47
-92.97
-100.35
-109.22
-119.70
-131.03
-141.41
-148.17
-148.32
-139.40
-120.47
-92.67
-59.21
-24.73
5.93
28.87
42.01
45.31
40.52
30.48
18.38
7.05
-1.53
-6.43
-7.71
-6.20
-3.11
0.29
2.94
4.21
3.86
2.10
-0.45
-2.92
-4.48
-4.55
-3.13
-0.70
1.88
3.75
4.31
3.42
1.25
-1.73
-5.02
-8.22
-11.09
-13.63
-15.95
-18.19
-20.44
-22.67
-24.89
-27.12
-29.41
-31.71
-33.61
-34.26
-32.61
-27.72
-19.30
-7.93
5.02
17.85
29.09
37.98
44.48
49.01
52.03
53.75
54.06
52.70
49.53
44.78
39.03
33.08
27.72
23.45
20.44
18.50
17.28
16.39
15.53
14.50
13.21
11.58
9.53
7.00
4.02
0.71
-2.73
-6.04
-9.04
-11.68
-14.06
-16.35
-18.66
-20.93
-22.97
-24.48
-25.32
-25.56
-25.53
-25.74
-26.70
-28.67
-31.53
-34.71
-37.30
-38.30
-36.81
-32.45
-25.37
-16.38
-6.64
2.69
10.80
17.39
22.63
26.90
30.43
33.20
34.95
35.37
34.34
32.07
28.99
25.69
22.66
20.25
18.60
17.71
17.43
17.50
17.59
17.33
16.45
14.86
12.65
10.04
7.23
4.28
1.15
-2.25
-5.88
-9.55
-12.90
-15.65
-17.68
-19.11
-20.27
-21.52
-23.18
-25.44
-28.40
-31.95
-35.70
-38.89
-40.37
-38.94
-33.67
-24.44
-12.06
1.83
15.28
26.63
34.93
40.03
42.36
42.50
40.91
37.91
33.73
28.74
23.49
18.56
14.46
11.39
9.32
8.10
7.53
7.54
8.02
8.84
9.73
10.39
10.62
10.36
9.75
8.98
8.24
7.53
6.72
5.55
3.84
1.48
-1.45
-4.77
-8.27
-11.70
-14.90
-17.78
-20.37
-22.87
-25.55
-28.73
-32.50
-36.56
-40.11
-42.03
-41.22
-37.09
-29.84
-20.41
-10.16
-0.45
7.80
14.29
19.22
23.10
26.45
29.57
32.50
34.99
36.69
37.25
36.52
34.60
31.82
28.64
25.51
22.76
20.60
19.12
18.28
17.92
17.80
17.55
16.86
15.57
13.82
12.05
10.96
11.17
12.95
16.01
19.51
22.32
23.43
22.35
19.27
14.88
9.98
5.11
0.35
-4.63
-10.20
-16.43
-22.88
-28.68
-32.74
-34.17
-32.57
-28.16
-21.65
-14.02
-6.24
0.90
6.90
11.59
15.12
17.84
20.20
22.48
24.62
26.38
27.39
27.41
26.44
24.77
22.93
21.44
20.53
20.12
20.03
20.21
20.72
21.60
22.79
24.16
25.58
26.86
27.75
28.32
28.75
29.26
29.84
30.44
31.41
33.22
35.96
38.65
40.41
40.30
37.57
31.64
22.55
12.01
2.48
-3.78
-6.40
-4.87
0.62
9.18
18.88
27.60
35.22
42.57
50.47
57.33
62.79
66.56
68.38
67.13
61.70
53.40
44.62
37.77
32.67
31.51
37.36
53.11
78.83
100.67
105.10
85.79
59.15
28.93
-2.64
-36.46
-68.29
-94.13
-111.92
-120.12
-118.77
-109.64
-97.73
-85.64
-74.57
-64.68
-56.69
-51.36
-47.62
-43.89
-39.09
-34.90
-31.93
-30.54
-30.74
-32.90
-36.99
-41.25
-43.15
-40.57
-33.75
-23.37
-11.00
1.44
11.80
18.69
22.26
23.68
24.27
24.37
24.31
24.10
23.57
22.20
19.50
15.47
10.70
6.25
3.18
2.34
3.89
7.06
10.39
12.57
13.15
12.86
13.18
15.50
20.21
26.35
31.89
34.61
33.00
26.77
16.86
4.89
-7.49
-19.03
-29.01
-37.09
-43.11
-47.06
-49.16
-50.02
-50.48
-51.34
-52.95
-54.96
-56.40
-56.09
-53.12
-47.27
-39.02
-29.47
-19.88
-11.38
-4.65
0.22
3.68
6.54
9.54
13.06
16.87
20.36
22.84
23.94
23.73
22.51
20.56
17.98
14.95
12.01
10.17
10.58
13.71
18.74
23.46
25.03
21.17
11.33
-3.00
-18.82
-32.84
-42.70
-47.60
-48.33
-46.59
-44.19
-42.43
-41.91
-42.63
-44.43
-47.32
-51.53
-57.21
-64.00
-70.73
-75.41
-75.90
-70.55
-58.98
-42.27
-22.76
-3.39
13.13
25.09
32.10
35.13
35.95
36.46
37.92
40.67
44.34
48.27
51.79
54.29
55.02
53.07
47.76
39.27
29.11
19.88
14.41
14.37
19.35
26.76
32.87
34.31
29.50
19.19
5.91
-7.22
-17.77
-24.54
-27.37
-26.62
-22.94
-17.38
-11.86
-9.27
-12.74
-24.26
-43.35
-66.77
-89.62
-107.28
-117.22
-119.52
-116.19
-109.59
-101.15
-91.03
-78.49
-62.75
-43.65
-21.92
0.95
22.94
41.88
55.84
63.49
64.42
59.24
49.49
37.33
25.09
14.91
8.44
6.56
9.29
15.71
24.32
33.36
41.36
47.46
51.39
53.21
53.00
50.65
45.96
38.98
30.20
20.59
11.22
2.88
-4.17
-10.17
-15.56
-20.58
-25.19
-29.22
-32.62
-35.66
-38.76
-42.18
-45.67
-48.42
-49.27
-47.03
-40.93
-30.85
-17.44
-2.22
12.75
25.12
32.98
35.42
32.99
27.57
21.77
17.98
17.61
20.75
26.52
33.65
41.10
48.23
54.62
59.70
62.47
61.56
55.79
44.75
28.92
9.63
-11.45
-32.64
-51.95
-66.64
-73.15
-68.08
-50.03
-21.28
12.08
41.76
60.44
64.66
55.90
39.37
21.10
5.24
-7.01
-16.66
-25.09
-32.62
-38.22
-40.33
-37.95
-31.30
-21.70
-10.90
-0.46
8.52
15.40
20.07
22.55
23.08
22.12
20.13
17.56
14.73
11.91
9.37
7.43
6.21
5.56
4.89
3.31
0.07
-5.01
-11.27
-17.40
-22.00
-24.20
-24.04
-22.39
-20.53
-19.55
-20.04
-21.95
-24.79
-27.95
-30.93
-33.46
-35.52
-37.26
-39.04
-41.28
-44.41
-48.68
-53.91
-59.36
-63.75
-65.53
-63.33
-56.47
-45.21
-30.70
-14.60
1.44
16.23
29.15
39.96
48.48
54.31
56.85
55.58
50.49
42.28
32.29
22.13
13.20
6.29
1.44
-1.77
-3.88
-5.12
-5.33
-4.13
-1.27
3.06
8.20
13.16
16.97
18.97
18.99
17.32
14.51
11.23
7.98
5.03
2.36
-0.32
-3.38
-7.14
-11.67
-16.69
-21.60
-25.57
-27.70
-27.23
-23.75
-17.30
-8.52
1.55
11.62
20.47
27.25
31.64
33.74
34.02
33.00
31.08
28.44
25.04
20.81
15.65
9.58
2.74
-4.59
-11.88
-18.40
-23.16
-25.13
-23.50
-18.02
-9.15
1.88
13.30
23.18
29.91
32.59
31.27
26.86
20.83
14.73
9.70
6.13
3.64
1.19
-2.38
-8.04
-16.19
-26.44
-37.66
-48.13
-55.92
-59.33
-57.38
-50.09
-38.52
-24.48
-10.09
2.78
12.91
19.80
23.71
25.21
24.99
23.54
21.12
17.82
13.78
9.37
5.13
1.73
-0.27
-0.67
0.31
2.16
4.28
6.15
7.48
8.04
7.65
6.13
3.33
-0.72
-5.73
-11.19
-16.57
-21.43
-25.65
-29.38
-32.95
-36.78
-41.18
-46.33
-52.09
-57.91
-62.75
-65.26
-64.09
-58.45
-48.45
-35.18
-20.49
-6.34
5.74
14.97
21.37
25.46
27.86
29.08
29.44
29.17
28.50
27.75
27.19
26.86
26.59
26.03
24.98
23.70
22.99
23.99
27.63
34.01
42.03
49.58
54.22
54.06
48.51
38.46
25.87
13.06
1.91
-6.64
-12.62
-16.83
-20.43
-24.51
-29.85
-36.65
-44.43
-52.06
-57.89
-60.26
-57.95
-50.71
-39.40
-25.79
-11.91
0.53
10.68
18.50
24.37
28.66
31.31
31.88
29.89
25.19
18.37
10.68
3.87
-0.28
-0.60
3.05
9.59
17.05
23.22
26.47
26.30
23.24
18.30
12.23
5.09
-3.60
-14.30
-26.83
-40.04
-52.06
-60.73
-64.05
-60.54
-49.66
-32.39
-11.70
7.69
20.48
22.84
14.13
-2.55
-21.52
-36.91
-44.90
-44.69
-37.89
-26.86
-13.29
2.12
19.04
36.45
52.23
63.78
69.17
68.22
62.68
55.51
49.61
46.64
46.52
47.70
48.08
45.99
40.84
33.21
24.42
15.90
8.74
3.63
0.91
0.72
2.94
7.02
11.92
16.24
18.66
18.39
15.38
10.33
4.35
-1.52
-6.61
-10.66
-13.74
-16.05
-17.79
-19.06
-19.95
-20.51
-20.76
-20.65
-20.05
-18.72
-16.49
-13.29
-9.30
-4.96
-0.78
2.77
5.49
7.45
8.90
10.15
11.44
12.91
14.63
16.61
18.84
21.23
23.58
25.51
26.61
26.56
25.29
23.09
20.52
18.22
16.63
15.80
15.38
14.84
13.72
11.89
9.54
6.99
4.57
2.40
0.49
-1.22
-2.84
-4.56
-6.78
-9.99
-14.63
-20.66
-27.31
-33.12
-36.40
-35.83
-31.03
-22.70
-12.41
-2.00
7.05
13.97
18.93
22.82
26.88
32.09
38.80
46.56
54.25
60.59
64.66
66.23
65.78
64.13
62.06
59.94
57.70
54.97
51.32
46.33
39.63
30.94
20.15
7.58
-5.89
-18.86
-29.76
-37.30
-40.88
-40.71
-37.70
-33.17
-28.55
-25.21
-24.35
-26.90
-33.29
-43.32
-56.09
-70.01
-83.07
-93.10
-98.14
-96.82
-88.71
-74.45
-55.74
-34.94
-14.48
3.72
18.67
30.26
38.88
44.94
48.52
49.45
47.63
43.41
37.71
31.80
26.90
23.65
21.99
21.24
20.51
19.19
17.19
14.83
12.59
10.78
9.35
7.97
6.19
3.63
0.06
-4.60
-10.40
-17.29
-25.10
-33.40
-41.50
-48.49
-53.50
-55.94
-55.73
-53.42
-50.05
-46.88
-44.94
-44.53
-45.00
-44.72
-41.57
-33.61
-19.78
-0.42
22.74
46.93
69.17
87.08
99.46
106.37
109.02
109.12
108.41
108.35
109.70
112.31
114.75
114.22
107.12
90.32
62.85
27.19
-10.83
-43.78
-65.37
-72.90
-68.00
-55.53
-41.01
-28.36
-19.01
-12.50
-8.08
-5.74
-6.33
-10.66
-18.41
-27.85
-36.35
-41.70
-43.02
-41.27
-38.50
-36.94
-38.07
-42.19
-48.62
-56.20
-63.74
-70.23
-74.73
-76.25
-73.84
-66.92
-55.70
-41.40
-26.00
-11.66
0.06
8.70
14.75
19.15
22.63
25.31
26.80
26.59
24.56
21.13
17.14
13.44
10.57
8.60
7.32
6.41
5.76
5.41
5.53
6.19
7.24
8.34
9.01
8.86
7.66
5.42
2.38
-1.12
-4.71
-8.18
-11.46
-14.61
-17.76
-20.95
-24.14
-27.22
-30.10
-32.79
-35.33
-37.67
-39.36
-39.53
-37.06
-31.02
-21.16
-8.22
6.20
20.08
31.65
39.92
44.80
46.93
47.24
46.59
45.42
43.85
41.73
38.87
35.22
30.97
26.62
22.79
20.11
18.92
19.22
20.60
22.45
24.13
25.19
25.41
24.81
23.57
21.98
20.36
18.97
17.90
16.98
15.82
13.95
11.09
7.32
3.08
-1.08
-4.80
-8.10
-11.36
-15.18
-20.10
-26.37
-33.74
-41.45
-48.24
-52.54
-52.88
-48.34
-39.01
-26.01
-11.34
2.79
14.46
22.49
26.45
26.42
22.87
16.41
7.84
-1.86
-11.69
-20.82
-28.85
-35.86
-42.27
-48.36
-53.99
-58.49
-60.86
-60.32
-56.63
-50.41
-42.82
-35.25
-28.78
-23.95
-20.72
-18.71
-17.49
-16.82
-16.70
-17.28
-18.76
-21.21
-24.56
-28.57
-32.90
-37.27
-41.46
-45.48
-49.46
-53.63
-58.13
-62.82
-67.12
-70.00
-70.22
-66.72
-59.10
-47.91
-34.59
-20.98
-8.66
1.55
9.74
16.62
22.95
29.04
34.58
38.88
41.27
41.55
40.10
37.76
35.46
33.90
33.36
33.72
34.64
35.72
36.73
37.65
38.67
40.04
42.01
44.63
47.71
50.89
53.74
55.89
57.21
57.79
57.99
58.27
59.09
60.75
63.31
66.57
70.11
73.37
75.77
76.83
76.40
74.70
72.41
70.50
69.94
71.38
74.83
79.59
84.48
88.11
89.38
87.70
83.05
75.80
66.41
55.34
42.98
29.72
16.03
2.52
-10.22
-21.76
-31.94
-40.93
-49.02
-56.52
-63.54
-70.01
-75.73
-80.57
-84.54
-87.85
-90.85
-93.94
-97.50
-101.85
-107.17
-113.36
-119.90
-125.81
-129.69
-129.99
-125.42
-115.42
-100.42
-81.94
-62.31
-44.22
-30.04
-21.22
-17.88
-18.71
-21.30
-22.81
-20.69
-13.34
-0.35
17.53
38.80
61.59
84.05
104.60
121.94
135.05
143.13
145.65
142.45
133.90
120.96
105.11
88.10
71.58
56.71
44.00
33.25
23.80
14.81
5.54
-4.50
-15.45
-27.07
-38.72
-49.47
-58.21
-64.02
-66.46
-65.78
-62.93
-59.23
-56.04
-54.33
-54.43
-56.14
-58.86
-61.92
-64.83
-67.37
-69.61
-71.87
-74.64
-78.35
-83.20
-88.78
-93.90
-96.66
-94.97
-87.26
-73.19
-53.94
-31.84
-9.63
10.41
27.02
40.01
49.84
57.16
62.34
65.48
66.55
65.60
62.99
59.36
55.47
52.01
49.44
47.84
46.95
46.37
45.67
44.56
42.97
40.91
38.49
35.75
32.70
29.32
25.65
21.75
17.76
13.81
9.97
6.26
2.57
-1.22
-5.25
-9.56
-14.12
-18.81
-23.57
-28.42
-33.44
-38.64
-43.70
-47.88
-50.03
-48.94
-43.74
-34.37
-21.71
-7.34
6.86
19.35
29.29
36.58
41.64
45.02
47.05
47.80
47.12
44.91
41.28
36.63
31.63
27.02
23.45
21.28
20.52
20.80
21.53
22.03
21.82
20.72
18.84
16.45
13.86
11.15
8.25
4.98
1.27
-2.79
-6.92
-10.81
-14.31
-17.39
-20.28
-23.25
-26.57
-30.45
-34.99
-40.19
-45.75
-51.07
-55.02
-56.26
-53.57
-46.34
-34.87
-20.44
-4.95
9.59
21.58
30.16
35.29
37.57
37.90
37.08
35.62
33.66
31.11
27.94
24.30
20.57
17.17
14.41
12.30
10.61
9.06
7.46
5.75
3.96
2.05
-0.14
-2.73
-5.80
-9.18
-12.62
-15.85
-18.74
-21.32
-23.70
-25.97
-28.12
-30.12
-31.88
-33.41
-34.78
-36.15
-37.71
-39.68
-42.25
-45.47
-49.11
-52.61
-55.06
-55.44
-52.93
-47.33
-39.07
-29.16
-18.72
-8.64
0.59
8.80
15.90
21.69
25.75
27.61
27.04
24.18
19.55
13.90
7.95
2.20
-3.08
-7.85
-12.06
-15.69
-18.59
-20.62
-21.72
-22.00
-21.83
-21.78
-22.47
-24.34
-27.47
-31.55
-35.90
-39.76
-42.49
-43.77
-43.65
-42.48
-40.80
-39.08
-37.62
-36.40
-34.97
-32.35
-27.32
-18.79
-6.47
8.79
25.06
39.68
50.13
54.80
53.63
47.98
40.16
32.64
27.35
25.49
27.19
31.72
37.85
44.43
50.61
55.98
60.40
63.90
67.03
70.17
73.41
76.77
80.52
85.04
90.52
96.59
102.35
107.64
111.94
114.24
113.41
108.88
100.80
89.92
77.35
64.35
53.78
47.53
45.65
46.69
49.01
51.43
53.15
53.61
52.36
51.11
50.91
51.36
51.38
50.61
49.93
50.81
54.78
49.99
32.05
6.19
-17.54
-33.34
-41.70
-46.44
-51.71
-60.36
-73.32
-87.57
-99.75
-107.93
-111.91
-112.28
-109.96
-106.06
-101.66
-97.48
-92.19
-84.92
-76.24
-67.91
-61.53
-57.82
-56.60
-57.06
-58.14
-58.01
-55.78
-51.93
-47.88
-44.57
-42.22
-40.48
-38.70
-36.32
-32.64
-27.59
-21.86
-16.60
-12.81
-10.98
-11.02
-12.27
-13.69
-14.13
-12.87
-9.88
-5.75
-1.37
2.44
5.13
6.43
6.46
5.37
3.25
0.23
-3.52
-7.68
-11.72
-14.97
-17.62
-19.36
-20.03
-19.65
-18.40
-16.58
-14.48
-12.40
-10.51
-9.00
-7.77
-6.78
-5.94
-5.17
-4.41
-3.63
-2.92
-2.39
-2.25
-2.57
-3.40
-4.73
-6.41
-8.26
-10.06
-11.72
-13.27
-14.93
-16.88
-19.27
-22.02
-24.70
-26.65
-27.06
-25.26
-20.91
-14.12
-5.46
4.20
13.88
22.73
30.20
36.12
40.61
44.01
46.69
49.01
51.16
53.19
54.98
56.32
56.96
56.70
55.50
53.42
50.65
47.40
43.84
40.04
36.02
31.77
27.31
22.76
18.28
14.04
10.25
6.99
4.29
2.07
0.22
-1.46
-3.18
-5.20
-7.78
-11.15
-15.41
-20.48
-26.09
-31.79
-37.01
-41.17
-43.70
-44.18
-42.30
-38.07
-31.77
-24.02
-15.64
-7.45
-0.07
6.19
11.29
15.34
18.46
20.66
21.86
21.98
21.07
19.36
17.21
15.00
13.07
11.60
10.60
10.00
9.66
9.44
9.20
8.85
8.36
7.78
7.22
6.83
6.72
6.87
7.16
7.40
7.42
7.14
6.57
5.75
4.73
3.49
1.95
0.02
-2.39
-5.29
-8.60
-12.04
-15.17
-17.43
-18.21
-17.10
-13.96
-9.06
-3.03
3.36
9.36
14.44
18.36
21.10
22.75
23.40
23.12
21.96
20.07
17.71
15.24
13.01
11.29
10.14
9.41
8.84
8.16
7.26
6.18
5.08
4.11
3.30
2.49
1.42
-0.13
-2.23
-4.68
-7.14
-9.26
-10.85
-12.01
-13.05
-14.30
-16.02
-18.29
-21.00
-23.94
-26.72
-28.83
-29.66
-28.59
-25.18
-19.39
-11.69
-2.93
5.81
13.64
19.99
24.71
27.97
30.06
31.22
31.57
