1589917617.00
64.000000
-0.00
-0.00
-0.00
-0.00
-0.00
-0.00
-0.00
-0.00
-0.00
-0.00
0.00
0.01
0.01
-0.00
-0.03
-0.05
-0.05
0.00
0.13
0.36
0.66
1.01
1.37
1.72
2.06
2.40
2.79
3.24
3.80
4.42
5.06
5.66
6.20
6.68
7.15
7.68
8.31
9.14
10.09
11.04
11.88
12.56
13.14
13.76
14.65
15.96
17.91
20.32
22.90
25.38
27.58
29.57
31.68
34.32
37.81
42.54
48.15
54.10
59.83
64.97
69.58
74.14
79.34
85.71
93.76
103.00
112.62
121.73
129.77
136.75
143.30
150.75
157.77
166.64
177.95
191.79
206.97
220.57
228.25
225.36
208.53
176.87
132.76
80.05
23.07
-34.94
-92.44
-149.16
-205.23
-260.37
-313.74
-363.87
-409.83
-450.91
-486.50
-515.74
-537.23
-549.22
-549.96
-538.37
-514.21
-478.67
-433.88
-382.45
-327.02
-269.84
-212.63
-156.66
-102.95
-52.37
-5.90
35.58
71.43
101.35
125.50
144.38
158.69
169.15
176.37
180.75
182.57
182.07
179.51
175.23
169.65
163.18
156.15
148.81
141.30
133.69
126.02
118.33
110.69
103.16
95.80
88.68
81.83
75.25
68.95
62.95
57.25
51.86
46.78
42.03
37.59
33.45
29.61
26.07
22.81
19.83
17.11
14.67
12.48
10.54
8.83
7.35
6.07
4.97
4.05
3.27
2.62
2.09
1.65
1.30
1.01
0.79
0.61
0.48
0.37
0.29
0.22
0.18
0.14
0.11
0.09
0.08
0.07
0.06
0.05
0.05
0.05
0.06
0.07
0.09
0.12
0.16
0.20
0.26
0.32
0.39
0.46
0.55
0.63
0.72
0.81
0.89
0.97
1.05
1.14
1.22
1.30
1.39
1.49
1.59
1.72
1.86
2.03
2.22
2.44
2.69
2.97
3.29
3.64
4.03
4.45
4.92
5.44
6.00
6.62
7.29
8.01
8.80
9.62
10.51
11.48
12.51
13.60
14.75
15.98
17.26
18.61
19.98
21.44
23.01
24.64
26.36
28.15
30.01
31.87
33.68
35.23
36.51
37.28
37.33
36.43
34.41
31.12
26.45
20.41
12.96
4.44
-4.96
-14.94
-25.09
-34.88
-43.75
-51.12
-55.90
-58.85
-59.44
-57.72
-53.93
-48.43
-41.75
-34.38
-26.84
-19.65
-13.37
-8.16
-4.40
-2.20
-1.42
-1.62
-2.24
-2.66
-2.39
-1.27
0.78
3.22
5.56
7.48
8.94
10.15
11.42
12.95
14.54
15.89
15.84
13.55
8.82
2.15
-5.33
-12.41
-18.20
-22.57
-25.96
-30.32
-37.22
-47.43
-60.70
-76.02
-92.00
-107.54
-122.21
-136.13
-151.15
-169.19
-192.06
-221.13
-256.62
-296.91
-338.45
-376.79
-399.77
-400.70
-377.85
-335.05
-280.27
-222.65
-169.52
-124.74
-88.82
-60.25
-38.50
-23.17
-14.03
-10.27
-10.32
-12.09
-13.72
-14.00
-12.32
-9.46
-5.85
-1.43
4.40
12.29
22.69
35.60
50.74
67.94
86.67
106.89
128.72
152.21
176.97
202.28
227.51
252.50
277.84
304.16
332.08
361.83
393.64
427.81
464.87
504.94
546.39
585.13
614.27
626.14
614.98
579.68
523.26
451.52
370.81
286.68
204.06
128.51
67.31
28.54
18.86
38.62
79.89
127.92
166.40
183.36
174.78
144.95
102.92
58.95
19.49
-13.95
-43.14
-69.83
-93.72
-112.51
-123.26
-130.19
-134.59
-135.80
-132.50
-124.68
-112.98
-97.59
-78.37
-55.13
-29.30
-1.84
24.87
48.24
65.07
74.47
78.13
79.16
80.98
83.31
84.19
82.80
77.59
64.35
41.42
10.84
-22.53
-51.53
-74.40
-91.08
-102.47
-110.51
-122.26
-142.43
-171.22
-205.29
-237.35
-267.44
-297.44
-328.92
-363.44
-407.92
-465.19
-531.32
-597.08
-647.86
-678.98
-689.52
-679.98
-608.02
-456.55
-241.93
-6.46
180.29
317.18
414.08
479.67
526.29
557.81
569.50
558.67
528.14
483.79
437.15
391.24
347.33
306.95
270.22
231.92
188.17
138.65
82.46
23.62
-38.17
-101.83
-164.56
-224.09
-281.73
-338.14
-391.87
-445.57
-497.60
-546.21
-586.11
-610.80
-616.72
-605.24
-580.32
-546.78
-517.06
-500.15
-500.77
-517.50
-546.51
-585.02
-631.28
-681.72
-680.67
-594.44
-426.69
-218.59
-18.33
143.58
257.90
329.85
371.45
395.29
402.80
393.04
367.37
332.16
296.05
265.99
245.47
234.84
232.19
228.74
217.40
196.26
169.61
143.35
123.34
112.05
109.09
112.28
115.36
113.27
103.62
88.33
71.56
56.66
45.03
36.50
29.85
22.74
13.38
-0.43
-18.08
-36.73
-53.82
-67.64
-76.90
-80.44
-78.03
-69.04
-55.80
-39.08
-17.87
8.05
37.88
70.04
102.40
134.82
166.52
192.10
207.99
213.58
208.72
193.72
169.43
123.08
50.60
-22.88
-86.59
-143.69
-193.84
-236.53
-271.36
-298.11
-316.86
-325.72
-323.76
-315.01
-302.15
-285.36
-265.02
-241.54
-215.40
-187.10
-155.54
-120.36
-84.94
-51.65
-21.04
6.19
29.35
47.73
60.82
69.36
73.92
73.05
66.26
54.45
38.64
19.86
-0.88
-22.59
-43.88
-63.69
-82.22
-99.48
-114.96
-128.31
-139.26
-147.57
-153.02
-155.20
-153.75
-148.73
-140.10
-127.70
-111.45
-91.39
-67.69
-40.62
-10.56
22.02
56.54
92.31
128.49
164.06
197.83
228.43
254.37
274.14
286.31
289.74
283.64
267.80
242.56
208.91
168.36
122.86
74.61
25.85
-21.25
-64.80
-103.26
-135.58
-161.14
-179.75
-191.57
-197.08
-196.96
-192.05
-183.18
-171.14
-156.62
-140.12
-121.94
-102.18
-80.74
-57.48
-32.37
-5.63
22.21
50.21
77.16
101.64
122.26
137.94
148.03
152.34
151.19
145.32
135.75
123.69
110.47
97.43
85.90
77.04
71.64
70.05
72.15
77.42
85.26
95.19
107.05
120.99
137.34
156.26
177.44
199.96
222.49
243.73
262.82
279.54
294.16
307.15
318.62
328.19
335.81
341.94
347.80
354.43
362.85
372.89
382.79
389.35
389.21
380.49
362.86
337.30
304.79
267.10
227.16
189.78
161.15
147.42
153.05
177.37
213.73
250.07
275.41
283.23
273.15
249.01
216.33
182.29
150.96
122.69
91.48
54.20
11.09
-33.80
-75.85
-110.73
-129.43
-126.09
-100.34
-65.29
-30.44
-0.68
25.46
50.53
77.28
116.52
175.34
254.58
336.49
410.77
473.70
528.99
578.68
623.70
677.13
750.80
851.82
963.50
1076.07
1183.92
1287.28
1382.26
1387.04
1248.25
952.88
634.57
349.65
119.76
-81.81
-261.06
-420.40
-561.45
-673.92
-750.29
-788.80
-811.60
-832.57
-858.22
-885.76
-913.64
-940.87
-957.44
-959.73
-944.70
-925.05
-906.15
-888.44
-867.40
-841.57
-811.54
-773.36
-724.97
-667.34
-613.10
-571.70
-548.58
-542.68
-550.37
-565.00
-575.43
-571.96
-549.27
-510.89
-464.13
-417.38
-376.33
-343.78
-318.82
-297.03
-273.91
-246.62
-216.32
-185.08
-154.19
-123.38
-91.93
-59.58
-27.08
3.88
31.11
52.83
68.10
77.57
83.34
88.14
94.45
103.68
115.94
130.35
145.67
160.74
175.23
189.60
204.87
222.21
242.56
266.56
294.31
324.93
356.10
384.12
404.44
413.01
407.62
388.98
360.65
327.95
296.14
268.77
246.83
229.10
213.18
197.00
179.70
162.01
145.78
132.99
124.95
121.92
123.13
127.20
132.40
136.83
138.31
134.71
124.64
108.36
88.30
68.58
53.28
44.46
40.92
38.22
30.36
12.37
-17.61
-57.26
-100.93
-141.68
-174.07
-195.82
-208.48
-216.48
-225.00
-237.96
-256.79
-280.61
-307.27
-334.74
-361.21
-384.90
-403.39
-414.04
-415.61
-409.90
-402.11
-398.62
-403.49
-414.67
-424.95
-425.18
-408.87
-375.40
-329.89
-280.30
-233.43
-192.36
-154.77
-117.03
-76.86
-34.41
8.41
50.14
90.90
132.28
176.30
227.04
286.54
353.76
424.68
493.40
554.25
603.45
639.68
663.60
680.28
693.58
704.56
711.19
710.13
699.43
680.24
656.59
610.94
533.83
424.11
291.42
152.22
22.03
-89.53
-179.14
-247.65
-298.06
-330.77
-346.91
-348.83
-340.36
-326.11
-310.09
-294.98
-282.08
-271.82
-261.59
-249.16
-233.52
-215.31
-196.33
-178.46
-162.85
-149.83
-139.19
-128.88
-117.18
-103.31
-87.78
-71.96
-57.31
-44.68
-34.11
-25.06
-16.61
-8.30
-0.21
7.06
12.76
16.50
18.31
18.67
18.24
17.59
17.18
17.40
18.51
20.67
23.86
27.92
32.63
38.02
43.91
50.48
58.25
67.56
78.15
89.08
98.80
106.01
110.21
111.15
108.47
102.52
94.20
85.11
77.03
70.91
65.99
63.91
62.76
57.63
44.85
23.28
-4.81
-35.31
-64.37
-89.70
-110.61
-127.91
-145.11
-163.71
-183.44
-202.01
-216.75
-226.06
-229.45
-227.01
-219.53
-211.42
-205.35
-203.35
-205.29
-210.55
-219.37
-232.78
-251.77
-253.03
-223.56
-163.54
-88.24
-14.47
47.92
96.38
132.71
160.44
183.23
193.99
195.14
188.64
177.88
166.33
156.30
148.79
144.00
141.14
135.03
128.55
119.91
107.69
90.84
68.44
40.28
7.20
-28.95
-67.68
-107.35
-147.96
-188.78
-229.33
-270.31
-313.51
-360.71
-412.17
-466.17
-517.04
-558.24
-583.09
-588.04
-574.39
-547.67
-514.94
-481.96
-451.68
-423.73
-396.98
-370.21
-343.17
-316.44
-290.46
-264.90
-238.66
-210.63
-180.41
-149.05
-118.38
-90.29
-65.97
-45.47
-27.83
-11.67
4.15
20.05
35.48
49.37
60.67
68.84
74.13
77.45
80.02
82.90
86.70
91.50
96.99
102.84
108.87
115.21
122.09
129.70
137.91
146.19
153.80
159.97
164.23
166.58
167.45
167.45
167.15
166.77
166.22
165.17
163.40
161.00
158.46
156.56
155.93
156.81
158.86
161.34
163.48
164.93
166.09
168.04
172.20
179.60
190.31
203.39
217.38
230.85
243.16
254.89
267.67
283.77
305.76
336.26
377.46
430.08
491.99
557.32
616.81
659.96
678.41
668.82
633.82
580.59
517.60
451.69
386.68
324.00
264.42
209.42
161.15
121.19
89.18
62.41
36.94
9.44
-21.22
-53.63
-84.43
-109.88
-127.54
-136.95
-139.49
-137.42
-132.64
-125.88
-116.65
-103.87
-86.66
-64.84
-38.75
-8.96
24.00
59.07
94.02
124.85
146.09
152.21
139.33
106.80
57.68
-2.04
-65.00
-124.15
-173.91
-210.74
-233.14
-241.45
-237.49
-224.21
-205.20
-184.10
-164.09
-147.33
-134.71
-125.92
-119.93
-115.53
-111.99
-109.32
-108.13
-109.16
-112.78
-118.56
-125.11
-130.42
-132.33
-129.13
-120.34
-106.90
-91.05
-75.65
-63.19
-54.93
-50.71
-49.23
-48.89
-48.48
-47.61
-46.49
-45.39
-44.34
-42.98
-40.86
-37.84
-34.31
-31.08
-28.99
-28.54
-29.58
-31.43
-33.19
-34.07
-33.76
-32.47
-30.73
-29.11
-27.98
-27.32
-26.82
-26.14
-25.01
-23.51
-21.86
-20.38
-19.16
-17.97
-16.34
-13.74
-9.86
-4.79
0.95
6.69
11.86
16.31
20.37
24.65
29.73
35.75
42.29
48.43
53.10
55.48
55.37
53.42
51.00
49.94
52.02
58.43
69.54
84.91
103.65
124.64
146.74
168.72
189.25
207.06
221.22
231.34
237.37
239.09
235.54
224.91
204.92
173.92
131.90
81.06
25.45
-30.07
-81.15
-125.00
-160.60
-188.29
-209.06
-223.84
-233.27
-237.84
-238.11
-234.95
-229.45
-222.49
-214.40
-204.78
-192.76
-177.46
-158.62
-136.86
-113.61
-90.67
-69.61
-51.25
-35.49
-21.69
-9.30
1.42
9.34
13.14
12.54
9.15
6.45
8.29
16.92
31.48
48.06
61.51
67.95
66.58
59.70
51.01
43.39
37.24
30.39
19.44
1.67
-23.64
-54.65
-87.46
-117.04
-138.10
-145.91
-136.98
-109.92
-66.10
-9.88
52.31
113.57
168.27
213.24
247.96
273.74
292.63
306.29
315.55
320.49
320.81
316.18
306.28
290.71
268.84
239.92
203.37
159.27
108.90
55.08
2.11
-45.15
-82.88
-110.04
-129.07
-145.19
-164.41
-191.03
-226.17
-267.88
-312.66
-357.69
-402.49
-449.04
-500.30
-557.73
-618.99
-677.30
-722.98
-746.71
-743.07
-712.70
-661.93
-600.20
-536.39
-476.14
-421.14
-370.40
-322.35
-276.36
-232.92
-192.72
-155.75
-120.91
-86.77
-52.40
-17.98
15.54
46.92
75.55
101.75
126.52
151.01
175.97
201.70
228.16
255.51
284.22
315.04
348.81
386.31
428.34
475.54
527.75
582.68
635.30
678.56
706.06
714.89
707.17
688.70
665.42
639.91
610.03
570.89
518.67
453.93
382.21
311.45
248.30
195.50
151.92
114.87
82.70
55.95
36.43
25.37
21.56
21.14
18.65
9.05
-10.33
-38.78
-72.86
-107.72
-139.15
-165.07
-185.97
-204.51
-224.41
-249.38
-281.75
-321.25
-364.13
-403.20
-429.45
-434.83
-415.30
-372.56
-313.47
-247.24
-181.86
-121.55
-66.35
-13.62
39.77
95.80
154.47
213.77
269.92
317.74
351.54
366.42
359.91
332.87
289.15
234.35
174.15
113.22
54.83
0.94
-47.51
-90.83
-130.68
-169.84
-211.33
-257.55
-309.72
-367.59
-429.35
-491.29
-547.90
-592.79
-620.15
-626.70
-612.90
-582.42
-540.04
-489.63
-432.81
-370.12
-303.56
-238.78
-184.97
-151.68
-144.35
-161.04
-192.44
-225.29
-247.56
-252.44
-239.45
-212.90
-178.42
-140.27
-100.37
-59.21
-17.22
24.28
63.46
99.11
131.45
162.21
193.71
227.57
263.96
301.82
339.42
375.57
410.50
445.42
481.65
519.38
557.07
591.68
619.72
638.30
645.77
641.61
625.89
599.14
562.25
516.96
465.69
410.98
354.35
295.71
234.06
169.80
107.16
54.96
24.10
22.51
50.09
96.74
145.12
177.25
181.48
156.53
110.50
55.75
2.96
-42.63
-81.43
-116.85
-152.09
-188.40
-225.54
-263.21
-301.92
-342.23
-383.01
-419.52
-443.47
-445.02
-417.31
-360.84
-285.18
-206.22
-139.77
-94.95
-70.96
-59.36
-50.36
-39.44
-29.91
-30.42
-49.26
-89.11
-145.93
-211.99
-280.95
-350.93
-423.63
-500.04
-576.32
-642.93
-687.90
-702.28
-684.51
-641.17
-583.99
-524.56
-470.19
-422.26
-378.07
-334.11
-288.86
-243.51
-200.85
-163.10
-130.45
-101.08
-72.49
-43.15
-13.40
14.52
37.87
55.01
66.44
74.85
84.03
97.09
115.06
136.58
158.62
178.13
193.62
205.86
217.71
233.06
255.62
287.47
327.94
372.85
414.66
443.66
450.16
427.55
374.82
298.14
209.85
125.58
59.71
21.22
11.60
25.98
56.68
97.10
143.74
194.80
246.70
291.44
317.41
313.91
277.35
215.19
144.42
85.37
54.06
56.90
90.22
143.41
203.28
257.24
294.53
306.73
289.08
242.74
176.48
105.68
48.05
17.18
17.36
41.69
74.98
99.39
100.61
72.15
16.81
-54.69
-127.20
-185.67
-219.46
-225.28
-207.52
-176.41
-144.01
-120.33
-110.70
-115.57
-131.89
-155.07
-180.20
-202.26
-216.56
-219.83
-211.95
-196.89
-181.76
-173.45
-174.93
-183.18
-190.16
-186.58
-166.06
-127.93
-76.94
-20.57
34.54
84.90
130.50
173.53
216.01
257.94
296.56
327.01
343.89
343.34
324.75
291.29
249.18
205.63
166.62
135.32
112.03
95.16
82.75
73.52
66.95
62.74
60.25
58.35
55.96
52.76
49.56
48.08
50.00
55.88
64.68
73.94
80.85
83.41
81.21
75.31
67.26
57.96
46.91
32.51
13.22
-11.01
-37.85
-62.96
-81.62
-90.73
-90.12
-82.48
-72.02
-62.70
-56.99
-55.93
-59.71
-68.50
-82.22
-99.72
-118.00
-132.36
-138.09
-132.88
-118.51
-100.48
-85.30
-76.67
-72.91
-67.39
-52.15
-22.77
18.21
61.42
94.66
108.78
102.20
81.47
57.60
40.27
33.14
32.85
31.95
23.99
7.28
-14.42
-34.70
-48.33
-53.70
-52.43
-46.77
-37.01
-21.25
2.26
32.02
61.74
82.20
85.86
71.19
44.08
15.24
-5.15
-11.86
-5.60
9.74
31.02
57.89
91.44
130.99
171.69
205.29
223.81
223.89
208.90
187.12
167.12
153.13
143.30
131.72
112.80
85.39
53.90
26.17
9.51
6.99
16.07
30.30
42.86
49.98
52.39
54.18
60.17
73.01
91.59
111.64
127.75
136.06
136.01
129.67
120.50
111.81
105.33
100.57
95.65
88.22
77.73
66.43
57.68
54.03
56.24
62.00
66.40
63.75
49.15
20.58
-20.46
-71.30
-128.49
-186.59
-238.26
-275.54
-292.80
-290.41
-274.97
-256.35
-244.03
-241.48
-242.67
-235.46
-209.02
-154.49
-78.49
-10.45
26.34
21.90
-23.28
-98.37
-187.60
-276.71
-356.12
-422.40
-460.80
-457.37
-406.94
-317.20
-204.20
-85.24
25.31
113.02
176.21
216.01
234.93
236.35
223.82
200.95
171.68
138.25
102.25
63.60
21.78
-23.31
-71.35
-122.01
-174.71
-228.19
-282.13
-322.58
-338.97
-327.96
-295.09
-251.31
-207.43
-170.27
-141.88
-122.89
-112.51
-109.96
-112.43
-113.95
-106.25
-82.31
-45.06
2.39
50.32
86.66
101.04
90.39
60.50
25.30
-0.69
-8.34
4.02
30.13
61.52
90.79
113.57
129.39
136.92
133.25
115.56
84.78
45.63
7.23
-20.40
-29.78
-18.96
7.40
40.47
71.48
95.79
111.60
120.44
125.66
130.35
136.24
142.92
149.46
155.84
163.00
170.21
174.33
170.39
153.01
119.37
70.01
10.00
-52.87
-106.10
-138.97
-147.84
-137.04
-117.78
-96.24
-75.72
-58.72
-48.47
-49.34
-66.93
-104.96
-162.27
-231.79
-301.35
-358.40
-393.61
-403.39
-390.16
-360.91
-323.44
-282.54
-239.56
-193.52
-144.27
-93.54
-44.47
-0.27
36.64
65.39
87.67
105.52
120.51
132.93
142.77
150.98
159.74
171.54
188.26
212.07
242.72
277.32
311.02
339.09
358.68
369.55
373.85
375.42
381.15
395.91
420.02
448.17
471.21
479.72
467.69
434.84
371.70
280.89
174.48
69.38
-20.71
-90.02
-139.35
-172.23
-191.93
-201.31
-200.89
-192.40
-179.07
-164.75
-152.26
-142.32
-134.33
-127.37
-121.36
-114.94
-107.76
-100.06
-93.64
-89.97
-89.09
-90.70
-94.35
-100.15
-106.93
-113.90
-121.19
-129.72
-140.75
-154.81
-172.80
-193.17
-216.27
-242.36
-271.72
-303.21
-332.97
-358.55
-371.38
-364.45
-335.63
-289.50
-234.86
-181.94
-138.60
-107.87
-87.71
-72.45
-56.93
-37.89
-16.70
4.15
22.30
36.62
47.62
56.79
66.59
79.06
95.98
119.10
150.06
188.57
230.58
268.05
290.88
291.66
269.32
231.42
192.23
167.75
169.62
200.74
254.59
317.76
374.92
413.71
428.23
419.76
394.59
360.73
324.98
291.69
263.11
240.68
225.74
218.92
218.95
221.23
219.03
205.92
178.64
138.51
90.25
39.13
-11.66
-61.18
-108.98
-152.42
-185.81
-202.66
-199.32
-178.26
-148.46
-122.63
-112.32
-124.05
-156.58
-201.76
-247.81
-283.48
-301.84
-301.53
-285.92
-260.60
-232.07
-203.64
-174.02
-138.36
-92.16
-35.71
24.57
78.62
117.62
135.59
133.01
115.16
88.50
56.91
20.43
-22.75
-72.71
-126.08
-180.17
-232.31
-281.30
-327.19
-370.89
-413.48
-454.97
-493.68
-506.85
-477.15
-400.15
-288.98
-166.33
-52.17
42.26
114.09
165.59
201.89
225.81
239.69
245.30
245.19
242.22
238.52
235.24
232.98
231.71
229.01
222.24
208.60
186.95
157.78
122.81
84.78
46.76
12.74
-14.99
-35.20
-49.05
-58.66
-66.91
-77.41
-89.44
-105.30
-127.92
-160.25
-195.59
-225.27
-239.07
-230.05
-198.04
-149.88
-97.22
-51.08
-18.37
-0.09
6.31
5.30
0.27
-7.04
-16.30
-27.67
-40.05
-51.10
-58.45
-61.75
-62.05
-62.08
-62.62
-63.15
-62.13
-57.11
-45.68
-26.39
0.10
31.64
63.99
93.49
117.76
135.83
148.10
155.64
159.61
160.54
158.46
153.26
145.34
135.37
124.27
113.17
102.93
94.09
86.65
80.10
73.87
67.75
61.64
55.63
49.99
44.94
40.59
36.94
33.72
30.93
28.77
27.41
26.96
27.47
28.85
30.75
33.81
36.43
37.71
37.16
34.49
29.75
23.17
15.13
6.05
-3.59
-13.50
-23.00
-31.34
-37.64
-41.01
-40.85
-36.92
-29.61
-19.65
-8.18
3.93
16.13
28.38
41.10
54.69
69.30
84.52
99.64
113.73
125.84
135.34
142.04
146.27
148.53
149.68
150.77
152.80
155.82
157.99
155.81
145.24
123.42
90.10
48.00
1.59
-44.95
-86.41
-119.28
-142.34
-156.11
-161.78
-160.66
-154.23
-144.44
-133.75
-124.44
-118.22
-115.39
-114.90
-114.92
-113.78
-110.76
-106.09
-100.42
-93.79
-85.56
-74.20
-57.85
-35.11
-5.55
29.75
68.61
108.22
145.79
178.56
204.10
220.64
227.53
225.55
216.69
203.59
188.57
172.80
156.06
137.35
115.93
92.02
66.93
42.39
19.88
0.14
-16.79
-31.08
-42.57
-50.58
-54.12
-52.46
-45.71
-35.06
-22.63
-11.07
-2.63
1.49
1.41
-1.56
-5.66
-9.39
-12.03
-13.73
-15.23
-17.28
-20.35
-24.52
-29.50
-35.01
-40.88
-47.25
-54.40
-62.55
-71.57
-80.97
-89.96
-97.80
-104.06
-108.83
-112.57
-115.91
-119.35
-123.10
-127.04
-130.91
-134.34
-136.95
-138.36
-138.30
-136.67
-133.78
-130.42
-127.74
-126.85
-128.40
-132.22
-137.48
-143.01
-147.66
-150.55
-151.17
-149.18
-144.33
-136.45
-125.52
-111.87
-96.10
-79.05
-61.61
-44.56
-28.52
-13.95
-1.15
9.73
18.63
25.64
30.91
34.57
36.76
37.71
37.60
36.61
34.89
32.51
29.52
26.03
22.21
18.30
14.59
11.20
7.98
4.66
1.00
-2.95
-6.67
-9.46
-10.71
-10.35
-8.89
-7.37
-6.74
-7.68
-10.41
-14.70
-20.08
-26.03
-31.92
-37.03
-40.53
-41.53
-39.36
-33.76
-25.09
-14.29
-2.66
8.45
17.95
25.19
29.99
32.46
32.80
31.28
28.11
23.61
18.27
12.66
7.24
2.28
-2.26
-6.52
-10.47
-13.84
-16.10
-16.63
-15.08
-11.60
-6.75
-1.27
4.23
9.43
14.28
18.78
22.78
25.97
28.00
28.66
28.09
26.60
24.67
22.67
20.87
19.44
18.49
18.06
18.23
19.06
20.46
22.23
24.03
25.49
26.24
26.07
24.99
23.18
20.93
18.49
16.08
13.86
12.00
10.63
9.86
9.64
9.81
10.09
10.22
10.06
9.63
9.03
8.36
7.65
6.92
6.20
5.49
4.81
4.14
3.41
2.56
1.58
0.60
-0.14
-0.36
0.20
1.66
3.88
6.54
9.14
11.18
12.26
12.26
11.37
9.99
8.52
7.15
5.76
4.07
1.88
-0.73
-3.38
-5.54
-6.72
-6.73
-5.72
-4.02
-2.01
0.13
2.33
4.56
6.71
8.55
9.79
10.23
9.83
8.81
7.50
6.37
5.81
6.02
6.92
8.16
9.30
9.97
10.08
9.75
9.26
8.82
8.52
8.28
7.97
7.48
6.80
5.89
4.73
3.19
1.20
-1.05
-3.11
-4.35
-4.19
-2.41
0.80
4.86
9.03
12.68
15.40
17.14
17.99
18.14
17.70
16.66
14.94
12.48
9.35
5.77
2.05
-1.50
-4.63
-7.25
-9.36
-11.00
-12.22
-13.00
-13.36
-13.29
-13.00
-12.75
-12.84
-13.40
-14.36
-15.46
-16.46
-17.22
-17.73
-18.09
-18.23
-17.95
-16.92
-14.80
-11.39
-6.82
-1.39
4.45
10.20
15.42
19.79
23.12
25.46
27.01
28.07
28.86
29.46
29.94
30.44
31.22
32.56
34.55
36.88
38.88
39.75
38.92
36.23
32.04
26.91
21.43
15.95
10.51
4.91
-1.15
-7.91
-15.37
-23.13
-30.46
-36.38
-40.03
-41.00
-39.53
-36.41
-32.67
-29.26
-26.75
-25.33
-24.92
-25.37
-26.56
-28.33
-30.47
-32.57
-34.18
-34.88
-34.33
-32.29
-28.56
-22.91
-15.21
-5.57
5.64
17.67
29.68
40.91
50.91
59.60
67.13
73.59
78.84
82.38
83.51
81.73
76.98
69.87
61.60
53.44
46.29
40.40
35.37
30.51
25.17
19.14
12.64
6.09
-0.31
-6.62
-13.03
-19.68
-26.37
-32.68
-38.07
-42.04
-44.31
-44.97
-44.33
-42.66
-40.16
-36.91
-33.00
-28.61
-23.89
-19.16
-15.05
-12.11
-10.31
-8.77
-5.94
-0.24
9.52
23.96
42.68
63.93
85.80
107.00
127.46
147.71
167.81
187.11
204.86
219.91
230.40
234.92
233.40
227.18
217.96
206.47
192.06
173.91
150.45
119.16
78.26
28.07
-28.51
-87.16
-144.02
-196.50
-242.37
-269.63
-266.65
-229.87
-168.19
-96.54
-27.06
34.14
82.01
121.06
154.29
181.14
199.38
207.09
203.70
190.45
168.35
138.16
102.87
66.71
33.81
6.95
-13.79
-31.40
-50.99
-77.90
-115.94
-163.36
-214.46
-262.41
-302.12
-331.49
-351.15
-362.95
-369.09
-373.19
-377.59
-384.32
-395.77
-414.54
-441.32
-473.12
-501.93
-517.02
-511.40
-481.87
-431.04
-366.67
-299.00
-236.51
-183.94
-141.19
-92.02
-33.62
25.49
72.29
99.44
106.43
102.38
94.52
87.09
82.11
78.05
74.47
73.18
77.44
90.20
113.11
144.86
182.00
219.32
249.10
265.91
268.50
259.82
245.09
229.55
215.91
204.43
193.43
179.59
161.33
139.63
117.25
97.07
80.78
68.15
58.26
50.27
43.47
38.15
35.28
35.57
38.69
43.25
47.24
49.18
48.82
46.87
44.87
44.39
46.25
50.16
54.95
59.08
61.31
61.00
58.08
52.86
45.87
37.71
28.95
20.04
11.15
2.19
-7.16
-17.13
-27.73
-38.46
-48.40
-56.42
-61.44
-62.87
-60.71
-55.53
-48.35
-40.22
-32.01
-24.20
-16.97
-10.35
-4.46
0.46
4.14
6.43
7.47
7.62
7.36
7.10
7.08
7.38
7.91
8.50
8.94
9.15
9.19
9.25
9.52
9.99
10.29
9.83
7.98
4.44
-0.54
-6.21
-11.56
-15.71
-18.22
-19.10
-18.62
-17.03
-14.47
-10.88
-6.34
-1.17
4.00
8.40
11.38
12.70
12.59
11.68
10.74
10.34
10.69
11.54
12.40
12.77
12.35
11.23
9.76
8.32
7.07
5.87
4.29
1.98
-1.20
-5.06
-9.16
-13.05
-16.42
-19.07
-20.83
-21.54
-20.83
-18.33
-13.84
-7.49
0.14
8.13
15.46
21.33
25.41
27.85
29.12
29.62
29.61
29.00
27.66
25.57
22.91
19.99
17.14
14.43
11.74
8.86
5.66
2.26
-0.96
-3.56
-5.23
-5.97
-6.14
-6.26
-6.81
-7.95
-9.44
-10.71
-11.09
-9.99
-7.11
-2.52
3.46
10.37
17.78
25.27
32.54
39.18
44.78
48.78
50.70
50.32
47.86
43.94
39.45
35.14
31.43
28.39
25.78
23.39
21.10
18.90
16.80
14.71
12.52
10.10
7.49
4.84
2.40
0.30
-1.44
-3.01
-4.65
-6.50
-8.54
-10.40
-11.54
-11.28
-9.17
-5.14
0.38
6.49
12.19
16.64
19.47
20.77
20.96
20.47
19.59
18.44
17.02
15.41
13.85
12.64
12.07
12.23
13.05
14.25
15.43
16.32
16.84
17.14
17.50
18.10
18.87
19.47
19.45
18.49
16.71
14.66
13.10
12.76
14.01
16.82
20.88
25.79
31.16
36.71
42.09
46.81
50.28
51.96
51.50
48.92
44.65
39.32
33.61
28.02
22.75
17.82
13.18
8.86
5.02
1.79
-0.80
-2.91
-4.83
-6.86
-9.16
-11.78
-14.68
-17.85
-21.40
-25.48
-30.17
-35.38
-40.75
-45.70
-49.55
-51.61
-51.43
-48.95
-44.62
-39.34
-34.21
-30.18
-27.68
-26.55
-26.15
-25.74
-24.91
-23.69
-22.50
-21.75
-21.55
-21.56
-21.22
-20.03
-17.93
-15.34
-12.96
-11.47
-11.08
-11.57
-12.34
-12.83
-12.76
-12.27
-11.74
-11.63
-12.24
-13.54
-15.25
-16.89
-17.98
-18.19
-17.36
-15.65
-13.42
-11.18
-9.38
-8.39
-8.27
-8.83
-9.70
-10.36
-10.25
-8.94
-6.24
-2.37
2.12
6.50
10.10
12.54
13.80
14.07
13.55
12.39
10.56
8.00
4.84
1.41
-1.84
-4.53
-6.58
-8.26
-10.06
-12.43
-15.42
-18.61
-21.21
-22.41
-21.80
-19.55
-16.32
-12.91
-9.91
-7.49
-5.51
-3.78
-2.28
-1.25
-1.06
-2.03
-4.20
-7.31
-10.90
-14.47
-17.55
-19.91
-21.48
-22.36
-22.71
-22.68
-22.32
-21.60
-20.44
-18.84
-16.94
-14.92
-13.08
-11.60
-10.60
-10.06
-9.82
-9.57
-8.95
-7.64
-5.42
-2.32
1.42
5.47
9.48
13.23
16.66
19.81
22.70
25.27
27.32
28.68
29.47
30.06
31.01
32.76
35.32
38.19
40.53
41.63
41.28
39.93
38.37
37.28
36.76
36.29
34.99
32.27
28.11
23.12
18.19
14.02
10.82
8.38
6.37
4.65
3.50
3.41
4.68
7.20
10.36
13.28
15.25
16.03
15.96
15.71
15.88
16.62
17.67
18.51
18.76
18.42
17.89
17.67
18.00
18.61
18.84
17.98
15.67
12.09
7.95
4.07
0.96
-1.31
-3.14
-5.07
-7.34
-9.77
-11.80
-12.80
-12.52
-11.25
-9.72
-8.92
-9.68
-12.26
-16.34
-21.11
-25.65
-29.31
-31.81
-33.14
-33.34
-32.33
-29.84
-25.68
-19.98
-13.37
-6.92
-1.76
1.30
2.01
0.71
-1.95
-5.28
-8.78
-12.17
-15.38
-18.48
-21.54
-24.63
-27.76
-30.86
-33.76
-36.16
-37.61
-37.65
-36.00
-32.60
-27.68
-21.70
-15.32
-9.21
-3.88
0.40
3.66
6.15
8.21
10.19
12.28
14.48
16.62
18.50
19.92
20.82
21.19
21.07
20.58
19.82
19.02
18.46
18.37
18.82
19.58
20.07
19.64
17.84
14.69
10.84
7.20
4.65
3.61
3.94
5.05
6.33
7.41
8.29
9.27
10.62
12.41
14.48
16.60
18.55
20.26
21.77
23.12
24.23
24.90
24.88
24.04
22.46
20.43
18.41
16.78
15.76
15.26
14.97
14.45
13.31
11.30
8.44
4.96
1.32
-1.93
-4.26
-5.32
-5.01
-3.48
-1.06
1.78
4.57
6.80
7.96
7.62
5.51
1.66
-3.55
-9.43
-15.16
-20.02
-23.67
-26.12
-27.64
-28.53
-28.87
-28.42
-26.70
-23.31
-18.27
-12.19
-6.18
-1.43
1.12
1.19
-0.95
-4.62
-9.11
-13.79
-18.20
-21.93
-24.47
-25.38
-24.27
-21.08
-16.14
-10.18
-4.11
1.16
5.03
7.29
8.15
8.10
7.59
6.92
6.10
5.02
3.52
1.61
-0.54
-2.65
-4.43
-5.71
-6.45
-6.71
-6.62
-6.26
-5.67
-4.91
-4.07
-3.33
-2.95
-3.20
-4.12
-5.49
-6.79
-7.38
-6.82
-4.97
-2.08
1.39
4.91
8.02
10.31
11.45
11.17
9.44
6.45
2.74
-0.97
-3.92
-5.59
-5.78
-4.65
-2.62
-0.25
1.94
3.59
4.61
5.19
5.67
6.26
6.89
7.16
6.58
4.82
1.92
-1.63
-5.13
-7.90
-9.48
-9.78
-8.92
-7.18
-4.77
-1.89
1.28
4.56
7.68
10.43
12.63
14.21
15.23
15.67
15.54
14.78
13.39
11.45
9.28
7.33
6.01
5.61
6.07
7.05
8.07
8.71
8.71
8.04
6.79
5.08
3.01
0.70
-1.68
-3.90
-5.72
-6.99
-7.63
-7.74
-7.48
-7.02
-6.51
-5.99
-5.41
-4.62
-3.40
-1.56
0.93
3.86
6.81
9.29
10.92
11.64
11.69
11.48
11.40
11.57
11.84
11.87
11.32
10.09
8.40
6.68
5.41
4.85
4.86
5.10
5.13
4.75
4.04
3.32
3.00
3.32
4.27
5.57
6.80
7.60
7.77
7.37
6.58
5.70
4.91
4.25
3.57
2.69
1.53
0.22
-0.88
-1.44
-1.38
-0.95
-0.66
-0.93
-1.86
-3.11
-4.07
-4.18
-3.28
-1.71
-0.14
0.79
0.81
0.09
-0.92
-1.76
-2.19
-2.29
-2.25
-2.20
-2.14
-1.90
-1.34
-0.46
0.54
1.32
1.58
1.22
0.41
-0.47
-1.00
-0.97
-0.49
0.01
0.01
-0.83
-2.54
-4.79
-7.06
-8.89
-10.11
-10.80
-11.26
-11.75
-12.42
-13.29
-14.42
-15.90
-17.91
-20.54
-23.53
-26.28
-27.90
-27.59
-24.97
-20.25
-14.13
-7.43
-0.82
5.32
10.82
15.48
19.01
21.06
21.48
20.38
18.25
15.68
13.20
11.08
9.43
8.22
7.46
7.18
7.37
7.80
8.07
7.66
6.25
3.92
1.19
-1.21
-2.68
-3.07
-2.73
-2.35
-2.51
-3.48
-5.08
-6.94
-8.82
-10.77
-13.08
-16.00
-19.52
-23.31
-26.98
-30.16
-32.76
-34.76
-36.19
-36.83
-36.35
-34.42
-31.00
-26.46
-21.49
-16.90
-13.17
-10.40
-8.24
-6.20
-3.88
-1.17
1.69
4.31
6.33
7.46
7.66
7.02
5.69
3.94
2.19
1.09
1.39
3.71
8.23
14.56
21.72
28.55
34.03
37.69
39.60
40.24
40.06
39.12
37.04
33.15
26.96
18.53
8.73
-0.97
-8.86
-13.57
-14.49
-12.02
-7.26
-1.63
3.65
7.77
10.27
10.94
9.73
6.87
3.00
-0.99
-4.20
-6.25
-7.51
-8.98
-11.77
-16.53
-23.13
-30.70
-38.14
-44.55
-49.49
-52.90
-54.91
-55.55
-54.70
-52.16
-47.71
-41.25
-33.04
-23.68
-14.06
-5.11
2.51
8.58
13.26
16.78
19.05
19.49
17.35
12.11
4.12
-5.50
-15.11
-23.23
-29.01
-32.49
-34.37
-35.43
-36.21
-36.68
-36.24
-33.95
-28.91
-20.60
-9.25
4.15
18.05
30.80
41.15
48.53
53.09
55.32
55.78
54.81
52.61
49.35
45.41
41.32
37.65
34.78
32.72
31.14
29.55
27.62
25.25
22.62
20.03
17.83
16.14
14.92
13.97
13.01
11.86
10.48
8.97
7.52
6.28
5.34
4.67
4.16
3.67
3.12
2.47
1.77
1.08
0.49
0.03
-0.29
-0.54
-0.74
-0.96
-1.18
-1.42
-1.64
-1.83
-1.96
-2.04
-2.08
-2.10
-2.11
-2.10
-2.10
-2.09
-2.07
-2.06
-2.05
-2.04
-2.03
-2.02
-2.01
-2.00
-2.00
-1.99
-1.98
-1.97
-1.97
-1.96
-1.95
-1.94
-1.94
-1.93
-1.92
-1.91
-1.91
-1.90
-1.89
-1.89
-1.88
-1.87
-1.87
-1.86
-1.85
-1.84
-1.84
-1.83
-1.82
-1.82
-1.81
-1.80
-1.80
-1.79
-1.78
-1.78
-1.77
-1.76
-1.76
-1.75
-1.74
-1.73
-1.73
-1.72
-1.72
-1.71
-1.70
-1.70
-1.69
-1.68
-1.68
-1.67
-1.66
-1.66
-1.65
-1.65
-1.64
-1.64
-1.63
-1.62
-1.62
-1.61
-1.60
-1.60
-1.59
-1.59
-1.58
-1.57
-1.57
-1.56
-1.56
-1.55
-1.55
-1.54
-1.53
-1.53
-1.52
-1.52
-1.51
-1.51
-1.50
-1.49
-1.49
-1.48
-1.48
-1.47
-1.47
-1.46
-1.46
-1.45
-1.45
-1.44
-1.43
-1.43
-1.42
-1.42
-1.41
-1.41
-1.40
-1.40
-1.39
-1.39
-1.38
-1.38
-1.37
-1.37
-1.36
-1.35
-1.35
-1.34
-1.34
-1.34
-1.33
-1.33
-1.32
-1.32
-1.31
-1.30
-1.30
-1.29
-1.28
-1.28
-1.27
-1.27
-1.29
-1.31
-1.35
-1.39
-1.44
-1.48
-1.53
-1.61
-1.75
-1.96
-2.18
-2.33
-2.34
-2.18
-1.91
-1.61
-1.36
-1.22
-1.24
-1.37
-1.50
-1.55
-1.47
-1.30
-1.15
-1.12
-1.33
-1.87
-2.60
-3.27
-3.66
-3.69
-3.47
-3.21
-3.22
-3.79
-5.13
-6.87
-8.36
-8.98
-8.54
-7.27
-5.74
-4.66
-4.74
-6.44
-9.05
-11.26
-11.87
-10.51
-7.70
-4.52
-2.26
-2.11
-4.88
-9.41
-13.48
-15.17
-13.77
-9.90
-4.79
0.30
4.33
6.52
8.14
11.28
17.68
28.33
44.03
66.16
96.22
134.59
167.80
181.88
168.39
129.46
75.50
18.40
-33.26
-75.59
-108.73
-132.85
-150.25
-160.52
-161.66
-152.11
-131.97
-102.94
-67.85
-29.63
7.10
40.96
73.23
106.20
141.45
179.27
218.96
259.19
297.99
332.32
358.85
373.69
372.57
352.11
311.58
253.85
184.59
110.34
36.53
-32.71
-94.31
-146.06
-186.26
-214.26
-231.22
-240.58
-247.69
-258.50
-277.69
-307.32
-346.21
-389.56
-429.67
-457.86
-467.61
-457.43
-431.84
-399.59
-369.31
-345.28
-325.32
-302.37
-268.72
-220.42
-159.60
-93.67
-32.65
14.40
42.17
50.30
43.10
28.26
14.85
10.76
20.70
44.40
77.45
113.98
149.63
183.13
215.98
250.82
289.66
333.22
379.73
425.86
467.80
502.36
527.02
539.37
536.93
517.56
480.80
427.18
358.81
279.30
193.54
106.75
23.05
-55.21
-130.01
-196.94
-248.70
-279.76
-290.32
-285.26
-270.54
-250.82
-228.68
-204.79
-178.60
-151.74
-125.32
-102.21
-85.65
-77.85
-79.69
-90.99
-110.44
-135.60
-162.54
-185.11
-196.67
-192.68
-172.90
-142.08
-107.95
-77.26
-53.14
-35.16
-21.08
-8.82
0.62
5.22
4.05
-1.25
-5.95
-4.47
7.05
29.14
58.68
90.07
117.13
134.98
138.14
125.75
101.97
75.69
58.12
58.44
79.48
116.13
156.64
187.40
199.31
191.00
168.79
142.81
121.68
108.65
101.33
94.06
81.69
62.84
40.14
18.76
3.56
-3.19
-2.43
2.74
8.62
12.18
11.82
6.64
-4.08
-21.15
-44.96
-74.84
-108.38
-141.61
-169.77
-188.44
-195.09
-189.67
-174.85
-155.18
-135.81
-121.05
-113.27
-112.38
-116.02
-120.60
-122.53
-119.53
-111.20
-99.02
-85.51
-73.14
-63.64
-57.91
-56.56
-60.47
-70.75
-88.03
-111.43
-138.25
-164.53
-186.56
-202.13
-211.19
-215.12
-215.60
-213.67
-209.46
-202.51
-191.98
-176.85
-156.16
-129.72
-98.97
-67.37
-39.53
-19.05
-6.37
2.34
13.70
34.25
67.27
111.34
161.55
212.07
258.84
300.71
338.56
373.72
406.80
437.64
466.12
492.62
517.47
539.75
556.19
561.27
548.96
515.16
459.75
387.05
304.46
220.00
140.17
68.81
7.32
-44.35
-86.98
-121.75
-150.41
-175.40
-199.75
-226.36
-257.14
-292.05
-328.42
-361.21
-384.26
-392.38
-383.32
-358.77
-323.63
-284.00
-244.66
-207.43
-171.23
-133.46
-91.94
-46.13
2.79
52.73
101.70
148.32
191.63
230.69
264.46
292.01
312.89
327.62
337.54
344.24
348.94
351.95
352.61
349.68
341.96
328.77
310.37
288.28
265.27
245.26
232.44
229.94
238.21
254.25
271.99
284.20
285.10
272.39
247.71
215.46
180.60
146.69
115.09
85.41
56.70
28.51
1.24
-24.14
-46.75
-66.15
-82.38
-95.83
-106.90
-115.93
-123.16
-128.84
-133.32
-137.08
-140.68
-144.78
-150.22
-157.91
-168.78
-183.53
-202.38
-224.88
-249.92
-276.06
-301.86
-326.23
-348.69
-369.37
-388.98
-409.00
-431.52
-458.64
-491.16
-527.01
-560.67
-584.09
-589.32
-571.62
-531.62
-475.09
-410.50
-345.62
-285.03
-229.60
-177.82
-128.00
-79.54
-32.85
11.73
54.87
98.07
142.54
187.77
230.98
267.67
293.04
303.90
299.85
283.31
258.68
230.98
204.43
181.69
163.54
149.03
136.08
121.95
103.86
79.68
48.75
12.63
-24.32
-55.41
-73.06
-71.59
-49.77
-12.20
31.54
70.00
93.83
98.82
86.57
62.76
34.12
5.99
-18.58
-38.18
-51.74
-58.03
-56.05
-46.28
-31.28
-15.20
-2.29
4.90
6.40
4.40
1.65
-0.13
-1.18
-3.26
-8.44
-17.79
-30.73
-45.27
-58.87
-69.47
-76.04
-78.52
-77.12
-71.53
-60.63
-42.97
-17.89
13.64
48.62
82.57
110.66
128.60
133.11
122.10
94.70
51.48
-4.88
-69.35
-134.82
-193.45
-238.42
-265.67
-274.54
-267.37
-248.24
-221.61
-191.35
-160.26
-130.04
-101.50
-74.93
-50.43
-28.14
-8.32
8.71
22.79
34.17
43.36
50.91
57.26
62.90
68.70
76.25
87.60
104.26
125.96
149.94
171.07
183.68
183.70
170.51
147.09
118.62
90.25
65.30
44.80
28.25
14.94
4.67
-2.26
-5.70
-6.16
-4.83
-3.15
-2.03
-1.55
-1.06
0.11
2.18
4.59
6.33
6.38
4.21
-0.04
-5.54
-11.13
-15.65
-18.41
-19.25
-18.71
-17.72
-17.24
-17.88
-19.74
-22.41
-25.42
-28.37
-31.16
-33.85
-36.47
-38.83
-40.60
-41.44
-41.33
-40.63
-39.97
-39.97
-40.93
-42.54
-43.92
-43.74
-40.57
-33.30
-21.54
-5.85
12.36
31.13
48.62
63.41
74.63
81.91
85.05
83.94
78.75
70.24
59.95
50.15
43.21
40.91
43.80
50.98
60.53
70.23
78.25
83.60
86.18
86.40
84.83
82.01
78.40
74.49
70.67
67.40
65.05
63.76
63.34
63.40
63.66
64.26
65.70
68.17
71.30
74.09
75.19
73.51
68.73
61.52
53.11
44.62
35.81
25.57
12.79
-2.48
-18.55
-32.39
-40.83
-41.94
-36.09
-27.46
-21.28
-21.31
-28.03
-38.65
-48.77
-54.11
-51.45
-38.78
-18.21
7.84
37.31
68.59
99.23
125.18
142.12
147.83
143.48
127.72
100.40
62.24
15.49
-36.95
-92.74
-149.98
-206.70
-260.99
-318.20
-383.49
-459.30
-542.76
-627.27
-706.18
-775.07
-832.13
-836.31
-761.23
-606.33
-402.63
-192.94
-7.70
141.90
257.88
347.19
416.83
463.22
486.70
488.34
472.14
445.21
414.57
385.18
359.28
336.78
310.71
276.61
232.75
180.58
124.97
71.10
22.57
-19.41
-55.95
-92.94
-135.82
-174.45
-199.01
-203.79
-190.82
-166.85
-138.65
-110.72
-86.88
-69.15
-58.17
-55.17
-59.94
-70.27
-81.30
-86.22
-78.31
-54.39
-15.97
30.62
75.04
108.17
125.58
128.56
122.33
112.69
103.41
95.55
88.47
80.50
71.27
61.88
53.92
48.14
43.95
39.79
34.05
26.10
16.10
5.26
-4.66
-12.13
-16.51
-18.12
-18.17
-17.65
-17.07
-16.51
-15.55
-13.64
-10.51
-6.45
-2.15
1.41
3.41
3.48
1.85
-0.81
-3.65
-6.02
-7.67
-8.59
-9.27
-10.28
-12.08
-14.85
-18.33
-21.97
-25.19
-27.59
-28.86
-29.29
-29.48
-30.09
-31.49
-33.55
-35.64
-36.93
-36.81
-34.74
-30.96
-26.11
-20.93
-15.69
-9.92
-2.31
9.16
23.87
42.39
65.09
91.57
120.00
146.92
167.73
178.06
175.42
160.31
136.57
109.45
83.75
62.33
46.01
34.44
27.23
24.65
27.24
35.23
47.41
61.22
73.67
82.53
87.09
88.13
87.46
86.97
88.37
92.51
99.39
108.10
116.72
122.46
122.25
113.72
96.36
72.36
46.00
22.24
4.75
-5.45
-10.33
-13.58
-18.81
-28.06
-41.36
-57.42
-74.72
-92.18
-109.15
-124.90
-138.26
-147.96
-153.40
-155.30
-155.73
-157.23
-161.59
-168.89
-177.14
-182.89
-182.42
-172.91
-153.16
-123.87
-87.28
-46.57
-5.15
33.98
68.62
97.53
120.33
137.39
149.66
158.47
165.43
172.13
179.72
188.47
197.39
204.29
206.32
200.78
186.12
162.48
131.81
97.28
62.46
30.41
3.04
-19.25
-37.53
-53.87
-70.59
-89.37
-110.66
-133.59
-156.46
-177.66
-196.21
-211.86
-224.56
-233.88
-238.93
-239.03
-234.41
-226.49
-217.40
-208.86
-201.37
-194.01
-185.19
-173.50
-158.50
-140.64
-120.23
-96.68
-68.32
-33.36
9.21
58.99
114.52
173.52
233.76
293.91
353.21
410.92
464.72
510.26
541.73
553.95
543.44
509.85
456.30
388.33
312.39
233.66
155.16
78.21
3.93
-66.91
-133.60
-195.18
-250.30
-294.80
-324.13
-335.75
-334.81
-326.17
-313.87
-301.54
-290.99
-285.63
-289.20
-304.64
-332.09
-367.24
-401.20
-424.07
-428.54
-412.56
-380.01
-338.46
-296.19
-259.09
-228.68
-202.87
-178.73
-154.22
-128.54
-101.74
-73.60
-43.77
-12.10
21.94
57.99
94.66
130.08
163.15
193.84
223.23
252.48
282.01
313.03
345.49
378.21
409.59
438.50
464.94
490.28
516.70
546.18
581.32
620.90
658.98
686.06
692.38
671.77
624.12
555.27
459.98
341.58
208.56
72.84
-53.27
-160.27
-242.89
-300.07
-334.40
-351.32
-355.18
-350.39
-340.28
-326.45
-309.27
-288.44
-264.28
-238.64
-214.42
-193.52
-178.32
-171.20
-173.68
-185.42
-203.27
-220.90
-230.08
-224.59
-202.18
-166.82
-127.10
-92.22
-68.29
-56.38
-53.27
-54.44
-56.79
-59.12
-61.89
-65.63
-69.53
-71.48
-69.47
-62.43
-51.05
-37.50
-24.46
-14.01
-7.02
-2.80
0.14
3.38
8.06
14.45
21.95
29.68
36.77
42.74
47.89
52.75
58.17
65.50
76.74
94.13
119.16
151.48
185.29
212.96
226.28
219.36
191.09
145.60
90.90
35.93
-12.36
-50.66
-79.20
-101.25
-121.88
-146.16
-177.57
-216.12
-257.33
-292.92
-313.22
-310.13
-280.33
-226.26
-155.71
-79.97
-11.17
40.35
68.51
73.16
60.25
39.78
22.32
15.62
22.60
41.97
70.39
104.87
143.64
185.25
226.99
264.46
292.80
309.11
314.30
312.80
310.54
312.21
318.99
328.10
334.13
331.35
316.15
288.63
252.57
214.01
178.79
150.19
127.72
107.61
84.71
54.89
16.67
-28.55
-77.45
-126.40
-172.50
-213.99
-249.76
-279.01
-301.29
-316.88
-327.36
-335.70
-346.03
-362.41
-387.09
-418.93
-452.60
-479.40
-489.86
-477.52
-442.08
-390.27
-333.47
-283.02
-245.63
-221.03
-203.17
-184.05
-157.93
-123.46
-83.10
-40.36
3.02
47.99
96.81
150.25
205.42
255.40
291.70
307.90
302.56
280.00
248.20
215.58
187.42
164.62
144.29
122.33
95.94
65.23
32.97
3.14
-20.89
-37.74
-48.01
-54.19
-59.60
-67.22
-78.54
-93.06
-108.37
-120.99
-127.69
-126.13
-116.12
-99.49
-79.15
-58.03
-38.36
-21.60
-8.52
0.86
8.52
17.46
31.06
52.08
81.80
119.54
162.71
207.82
251.74
293.60
333.06
368.92
398.20
416.49
419.74
406.57
379.97
339.60
290.67
240.24
193.62
151.20
108.74
61.08
6.52
-51.46
-106.00
-149.36
-177.26
-190.09
-191.59
-186.52
-178.88
-170.91
-163.59
-157.23
-151.10
-144.75
-138.57
-133.62
-130.71
-129.52
-128.21
-124.18
-115.55
-102.11
-86.25
-72.15
-63.80
-62.92
-68.25
-76.20
-82.60
-84.55
-81.40
-74.47
-66.32
-59.68
-56.07
-55.83
-58.27
-62.32
-66.78
-70.05
-69.68
-62.38
-45.56
-18.47
16.40
53.82
87.71
114.06
130.96
139.27
141.06
137.89
130.34
118.32
102.60
85.59
70.91
61.87
60.61
66.96
78.08
89.00
93.60
86.90
67.64
39.60
10.97
-7.96
-9.39
8.27
39.31
72.80
96.70
102.48
87.34
54.23
10.57
-35.14
-75.74
-106.67
-126.17
-134.64
-133.88
-124.26
-109.59
-92.97
-76.93
-63.50
-54.13
-49.22
-47.72
-47.59
-46.66
-43.96
-39.27
-33.48
-27.68
-22.57
-18.08
-13.42
-7.85
-1.03
6.53
14.23
21.64
28.62
35.55
42.79
50.15
56.52
60.18
58.98
51.22
36.00
14.21
-11.51
-36.39
-54.14
-58.96
-47.73
-22.12
10.90
40.60
57.73
55.98
35.14
1.28
-35.77
-66.19
-82.31
-83.00
-71.36
-51.98
-29.15
-5.18
19.02
42.62
64.10
80.98
91.14
94.01
91.01
84.45
76.60
68.83
60.82
51.24
38.98
23.35
5.27
-12.90
-28.65
-39.83
-45.60
-46.70
-45.02
-42.80
-41.95
-43.17
-45.83
-48.94
-51.34
-52.43
-52.51
-52.60
-53.81
-56.87
-62.39
-68.41
-73.07
-74.58
-71.85
-64.95
-55.08
-43.90
-33.01
-23.23
-14.42
-6.24
1.65
9.08
15.03
17.96
16.40
9.42
-3.28
-20.58
-41.83
-64.89
-85.86
-99.57
-101.12
-88.24
-62.98
-31.45
-1.63
19.50
28.88
27.71
20.11
10.58
2.06
-4.61
-9.83
-13.37
-14.40
-11.69
-4.64
5.96
18.18
29.60
38.15
43.02
44.64
44.13
42.77
41.41
40.24
39.06
37.56
35.69
33.86
32.70
32.68
33.88
35.85
37.78
39.12
39.55
39.18
38.42
37.69
37.06
36.23
34.69
32.05
28.88
26.20
25.12
26.55
30.82
37.40
45.21
52.84
59.24
64.69
69.95
76.13
84.87
98.14
117.89
145.13
178.99
212.24
236.76
244.19
228.64
189.52
131.87
64.50
-3.41
-65.30
-118.67
-160.93
-188.86
-200.26
-195.15
-176.45
-148.74
-117.01
-85.19
-55.96
-29.66
-5.52
17.40
39.91
61.35
80.82
97.51
111.41
122.52
131.56
139.25
145.30
149.34
149.09
143.18
132.06
118.23
104.40
93.21
86.82
84.70
85.49
83.98
75.64
57.91
34.42
7.50
-21.88
-53.43
-90.23
-135.08
-193.54
-267.89
-355.16
-447.69
-536.60
-614.08
-673.51
-713.96
-707.62
-640.68
-518.99
-366.15
-209.34
-67.63
40.11
121.12
180.55
220.93
239.33
234.38
209.72
171.26
125.15
78.63
38.50
6.61
-17.16
-38.04
-60.87
-87.32
-114.85
-137.72
-148.78
-141.15
-113.75
-70.24
-20.81
22.76
51.65
62.99
59.60
47.90
34.88
23.44
14.47
6.87
0.27
-3.61
-1.75
8.42
27.62
54.31
83.51
110.27
130.99
144.14
150.53
152.09
150.66
147.46
142.66
135.74
126.45
115.12
102.41
89.76
78.44
69.04
61.73
55.73
50.30
44.90
40.91
36.77
31.81
25.69
18.11
9.34
-0.56
-10.76
-20.30
-28.46
-35.31
-40.83
-45.13
-48.51
-50.29
-50.27
-47.19
-39.99
-28.59
-14.35
0.96
15.41
27.32
36.71
43.74
50.45
59.45
72.33
89.15
109.49
133.55
155.04
172.44
175.42
160.06
129.58
91.27
52.15
15.84
-17.43
-48.99
-78.64
-103.38
-121.49
-129.25
-124.61
-108.70
-85.60
-60.21
-36.24
-13.94
5.92
25.22
48.25
77.91
114.61
156.33
199.75
240.70
274.35
294.46
284.06
234.88
152.89
57.68
-28.45
-91.25
-128.01
-144.29
-148.81
-148.24
-143.60
-133.78
-118.61
-100.66
-84.17
-72.76
-67.72
-67.98
-70.77
-71.39
-66.66
-56.30
-42.67
-29.22
-18.45
-11.17
-6.45
-2.40
3.69
13.40
26.15
39.79
51.23
57.96
58.71
53.59
43.70
31.00
17.66
4.96
-6.69
-17.41
-27.27
-36.12
-43.54
-49.09
-52.30
-52.91
-51.28
-48.08
-44.24
-40.62
-37.82
-36.09
-35.28
-35.05
-34.73
-33.88
-32.30
-30.23
-28.25
-27.02
-27.05
-28.30
-30.25
-32.02
-32.81
-32.24
-30.65
-29.01
-28.48
-29.89
-33.23
-37.70
-41.94
-44.83
-45.77
-45.09
-43.84
-43.18
-44.47
-48.07
-54.32
-63.03
-72.82
-80.74
-82.53
-74.23
-54.09
-24.19
9.92
41.01
63.22
74.24
75.72
71.60
65.80
60.46
55.68
50.69
45.06
39.43
35.09
32.98
32.98
33.87
34.12
32.42
28.60
23.43
18.29
14.43
12.49
12.18
12.52
12.34
10.80
7.77
3.75
-0.33
-3.64
-5.75
-6.77
-7.28
-8.00
-9.52
-11.98
-15.17
-18.62
-21.85
-24.61
-26.96
-29.22
-31.88
-35.28
-39.43
-43.94
-47.98
-50.56
-50.81
-48.10
-42.30
-33.83
-23.44
-11.99
-0.20
11.56
23.12
34.46
45.36
55.36
63.72
69.80
73.23
74.14
73.25
71.55
70.04
69.51
70.48
73.17
77.27
81.63
84.11
82.15
73.54
57.64
35.99
11.96
-10.35
-27.73
-38.90
-44.61
-46.65
-46.71
-45.54
-42.98
-38.69
-32.81
-26.22
-20.04
-15.03
-11.15
-7.61
-3.42
1.98
8.20
14.03
17.96
18.79
16.23
10.94
4.27
-2.30
-7.63
-11.27
-13.37
-14.45
-15.04
-15.45
-15.74
-15.77
-15.43
-14.70
-13.61
-12.12
-10.13
-7.50
-4.13
-0.11
4.27
8.68
12.81
16.64
20.35
24.17
28.18
32.12
35.45
37.57
38.11
37.14
35.07
32.47
29.73
26.89
23.84
20.48
17.04
14.01
11.88
10.95
11.14
12.15
13.78
16.05
19.03
22.47
25.40
26.20
23.08
14.94
2.08
-13.58
-28.95
-40.69
-46.23
-44.43
-35.77
-22.02
-5.65
10.67
24.65
34.62
39.71
39.91
35.87
28.68
19.55
9.51
-0.70
-10.49
-19.39
-26.86
-32.38
-35.72
-37.12
-37.25
-37.03
-37.12
-37.66
-38.23
-38.03
-36.45
-33.42
-29.59
-26.08
-24.10
-24.34
-26.68
-30.12
-33.11
-34.14
-32.28
-27.56
-20.90
-13.69
-7.30
-2.63
0.01
0.78
0.02
-1.81
-4.26
-6.84
-9.20
-11.31
-13.63
-17.02
-22.43
-30.39
-40.58
-51.73
-61.89
-68.91
-71.02
-67.19
-57.43
-42.88
-25.68
-8.39
6.64
17.95
25.26
29.30
31.27
32.21
32.67
32.65
32.01
30.91
29.90
29.80
31.38
34.99
40.49
47.32
54.38
60.58
65.05
67.52
68.28
67.97
67.24
66.69
66.96
68.63
72.76
80.60
92.93
109.10
126.52
141.03
148.01
143.73
125.65
93.00
46.42
-12.34
-80.49
-154.12
-228.35
-297.83
-352.81
-384.30
-386.01
-357.15
-302.57
-231.12
-152.41
-74.25
-1.60
62.97
117.98
163.29
198.95
225.91
245.80
260.74
272.58
282.98
292.28
299.34
302.68
300.13
290.22
272.52
247.68
216.96
183.24
149.52
115.99
83.46
52.34
23.58
-1.50
-21.42
-35.31
-43.08
-46.47
-48.29
-46.53
-41.34
-33.19
-22.68
-10.15
3.43
16.92
27.75
33.74
34.02
28.12
16.86
1.70
-15.06
-32.76
-51.42
-73.56
-101.27
-135.23
-175.20
-219.23
-264.61
-307.41
-346.30
-380.97
-414.23
-448.32
-483.83
-519.94
-553.79
-581.77
-598.90
-603.96
-579.26
-514.16
-405.83
-262.04
-99.46
63.28
199.80
307.81
390.93
453.66
497.01
521.58
530.39
526.14
512.60
493.61
474.03
454.94
435.82
413.64
385.93
351.58
311.01
266.33
220.07
175.91
135.00
97.61
62.56
29.09
-2.73
-32.19
-57.81
-79.07
-95.13
-106.91
-115.62
-122.70
-128.92
-134.36
-138.68
-141.11
-142.95
-145.34
-149.83
-157.02
-166.29
-175.95
-183.79
-187.86
-186.91
-183.89
-182.55
-186.50
-197.52
-214.81
-235.50
-255.88
-272.77
-284.28
-294.36
-308.46
-331.55
-366.69
-414.50
-474.36
-545.47
-626.81
-690.65
-713.33
-678.48
-584.45
-445.45
-284.61
-125.45
13.96
123.89
203.11
252.63
276.46
279.60
266.71
242.52
212.07
180.65
153.35
134.26
122.68
114.74
108.60
103.66
101.49
105.02
117.35
140.56
175.07
216.36
257.88
293.75
319.76
334.40
338.50
334.36
324.72
312.02
297.01
279.87
260.78
239.96
218.09
196.23
175.52
156.85
140.61
126.37
113.51
101.57
90.10
78.97
68.27
58.24
49.09
40.90
33.66
27.34
21.88
17.17
13.02
9.31
5.96
2.96
0.28
-2.01
-3.85
-5.24
-6.28
-7.15
-8.03
-8.99
-9.95
-10.70
-10.93
-10.43
-9.26
-7.71
-6.24
-5.28
-4.97
-4.64
-4.04
-2.56
0.24
4.21
8.72
12.80
15.64
16.94
17.20
17.45
18.99
22.64
28.31
35.10
41.55
46.55
49.60
51.15
52.22
53.94
57.37
62.49
69.16
76.66
83.26
85.91
80.72
64.42
36.34
-0.33
-39.05
-72.11
-93.69
-102.09
-99.84
-91.89
-82.82
-75.01
-68.38
-61.85
-54.87
-48.10
-42.96
-40.52
-40.59
-41.63
-41.62
-38.88
-33.10
-25.37
-17.17
-9.85
-3.94
0.85
5.51
11.01
17.81
25.33
32.05
36.51
37.61
34.96
28.94
20.46
10.36
-0.63
-11.16
-21.80
-32.84
-44.07
-54.81
-64.09
-71.02
-75.33
-77.24
-77.94
-78.94
-81.08
-84.46
-88.45
-92.04
-94.19
-96.14
-97.12
-97.73
-98.97
-101.22
-104.05
-106.27
-106.73
-104.34
-99.11
-91.94
-84.85
-80.27
-80.39
-86.98
-100.74
-120.50
-141.97
-158.91
-164.48
-154.33
-128.51
-91.78
-52.06
-17.21
7.77
22.81
31.02
36.68
42.64
49.78
57.86
66.88
78.41
91.02
105.03
120.42
136.86
154.24
173.11
194.26
217.32
239.17
253.69
254.03
234.44
192.60
130.16
51.77
-36.44
-127.74
-214.73
-289.22
-342.53
-368.52
-366.22
-341.22
-304.17
-267.02
-238.59
-221.96
-214.68
-211.13
-205.99
-196.60
-183.41
-168.88
-155.61
-145.00
-136.56
-128.39
-117.72
-102.28
-80.58
-51.78
-15.82
25.96
69.39
107.10
130.09
131.13
108.76
69.23
24.90
-10.71
-28.52
-27.22
-12.44
7.47
26.06
41.20
54.45
68.22
83.25
98.00
110.03
118.17
123.99
130.67
141.53
158.04
179.28
202.28
223.76
241.63
256.02
269.90
286.73
309.11
338.00
373.32
414.70
461.49
511.72
561.13
604.51
634.89
646.03
634.97
603.48
557.03
502.13
444.07
386.88
336.98
300.41
281.38
280.08
291.78
307.75
317.62
312.96
290.49
255.80
216.60
178.81
144.16
111.39
78.78
45.38
11.39
-41.17
-115.92
-203.28
-285.10
-346.09
-380.29
-389.27
-378.50
-355.12
-324.91
-288.72
-247.39
-202.86
-159.12
-120.33
-88.81
-65.12
-51.33
-47.88
-50.76
-55.38
-58.93
-61.71
-66.14
-71.57
-77.33
-87.67
-105.77
-130.70
-159.52
-189.86
-221.66
-256.41
-295.61
-339.82
-395.06
-464.11
-543.84
-626.22
-702.22
-764.99
-810.61
-837.35
-808.01
-705.03
-536.23
-332.82
-130.68
46.27
188.88
298.00
375.05
431.10
467.47
484.59
485.26
475.29
460.74
445.11
429.82
414.82
400.40
381.48
355.03
321.25
283.05
243.39
203.40
162.55
119.61
74.44
23.85
-33.46
-96.56
-162.65
-228.77
-293.02
-354.76
-414.57
-473.07
-532.30
-591.49
-646.11
-688.49
-710.73
-708.22
-681.42
-636.00
-580.21
-522.72
-468.11
-416.93
-367.40
-317.89
-268.28
-219.44
-172.53
-127.49
-83.64
-38.58
8.83
56.95
101.66
138.30
164.51
180.67
190.50
198.57
211.33
232.86
262.80
296.88
329.38
356.40
376.09
389.72
399.19
409.97
427.14
453.37
487.94
527.23
566.24
597.71
615.60
593.40
517.26
395.86
258.66
137.14
47.76
-4.37
-32.56
-47.44
-56.10
-59.77
-59.26
-60.10
-69.97
-95.87
-139.52
-196.83
-252.80
-290.38
-297.51
-274.68
-233.72
-190.59
-159.69
-142.37
-134.37
-127.24
-114.51
-91.97
-58.92
-17.39
28.71
75.31
119.70
154.06
171.73
168.80
146.67
110.80
67.86
23.81
-16.99
-51.60
-79.21
-99.43
-113.21
-122.14
-128.11
-132.70
-136.28
-138.43
-139.08
-137.64
-133.26
-125.93
-116.47
-106.24
-96.59
-87.69
-79.07
-69.87
-59.01
-45.24
-27.36
-4.39
24.48
55.36
85.23
111.51
132.30
146.90
155.32
158.11
156.06
149.97
140.48
128.90
116.39
103.64
91.45
80.22
70.05
60.95
52.80
45.28
38.59
32.87
27.91
23.86
20.68
18.27
16.75
16.21
16.56
17.85
21.59
25.89
29.44
31.24
30.65
27.97
23.86
19.24
15.03
11.75
9.05
6.68
4.26
1.65
-0.23
-0.26
2.67
9.18
19.04
30.97
43.76
56.24
67.79
79.30
92.02
107.49
127.28
152.90
185.26
224.58
269.83
313.39
348.19
367.99
369.58
354.12
326.71
294.14
262.24
233.90
209.03
186.76
166.34
148.04
132.65
120.21
109.25
97.10
81.01
59.60
34.21
7.95
-15.11
-31.56
-39.80
-41.10
-38.58
-35.92
-36.14
-40.44
-48.57
-59.04
-69.60
-77.85
-81.84
-79.69
-69.93
-52.41
-28.99
-3.91
17.50
30.63
33.07
24.15
5.88
-17.95
-43.22
-66.84
-87.20
-103.73
-115.98
-124.14
-131.77
-141.79
-155.01
-170.15
-185.30
-199.24
-211.29
-220.42
-226.77
-237.00
-255.50
-281.68
-310.45
-336.08
-355.60
-368.52
-374.54
-376.00
-385.43
-411.02
-452.36
-501.25
-548.16
-587.99
-619.39
-641.10
-655.79
-679.02
-720.54
-778.99
-843.50
-902.25
-950.39
-988.73
-1018.76
-962.71
-786.69
-514.77
-215.02
50.55
255.24
399.54
479.38
521.05
540.20
531.23
488.42
413.60
316.37
218.69
134.57
73.93
45.92
51.39
76.29
106.32
133.20
156.43
179.15
202.08
224.39
246.18
264.43
271.62
265.22
250.06
235.82
231.18
238.73
257.17
284.89
318.25
350.97
377.61
394.69
401.23
398.78
390.24
380.90
377.39
383.89
400.76
426.03
457.03
491.14
525.08
553.26
568.94
566.07
541.20
495.77
436.03
370.84
308.51
254.34
209.38
172.65
143.12
120.57
105.34
97.34
95.34
97.19
100.43
101.51
98.59
92.27
84.66
77.45
70.53
62.13
50.10
32.53
5.34
-32.42
-77.41
-123.47
-165.08
-200.09
-229.49
-255.40
-280.60
-312.45
-354.28
-403.51
-453.32
-497.50
-534.11
-564.89
-592.60
-621.38
-662.19
-721.54
-797.62
-880.59
-957.32
-1016.25
-1049.34
-1052.43
-980.54
-820.78
-599.83
-370.75
-178.15
-38.73
52.74
104.34
133.58
150.20
152.04
138.52
115.23
92.80
81.36
84.60
100.69
125.85
154.72
177.87
190.16
192.89
192.08
193.57
199.42
208.23
217.56
223.85
221.13
206.27
180.32
147.42
111.97
76.37
41.32
7.35
-25.43
-57.80
-89.14
-117.02
-137.98
-149.22
-149.70
-140.20
-122.43
-99.07
-73.45
-48.43
-25.88
-6.76
8.51
19.83
27.24
31.17
32.21
31.16
28.97
26.69
25.32
25.68
28.36
33.42
40.43
48.50
56.50
63.37
68.54
72.03
74.52
77.09
80.76
86.23
93.58
102.50
112.53
123.56
135.93
150.31
167.48
187.73
210.63
234.90
258.96
281.42
301.74
320.38
338.53
357.82
379.83
406.05
437.64
474.85
516.20
557.91
594.19
618.93
628.13
621.87
604.68
583.63
564.94
550.99
539.46
524.97
502.11
468.44
425.28
376.68
327.05
279.37
234.87
193.87
156.78
124.19
96.48
72.75
50.78
27.81
1.65
-28.12
-60.43
-93.34
-125.20
-155.34
-184.22
-213.00
-242.90
-274.49
-306.71
-336.52
-359.04
-369.34
-365.07
-348.85
-328.01
-312.19
-308.59
-317.88
-333.51
-344.98
-343.38
-326.11
-297.87
-267.48
-242.72
-226.75
-217.97
-213.03
-210.16
-210.21
-214.99
-224.12
-233.71
-237.68
-231.16
-213.73
-189.90
-166.92
-150.50
-141.75
-136.90
-130.01
-116.57
-95.97
-72.20
-51.78
-40.36
-40.39
-49.86
-63.22
-73.78
-76.41
-69.50
-55.32
-38.57
-24.27
-15.79
-13.90
-17.48
-25.04
-35.88
-50.30
-68.58
-89.42
-109.11
-122.39
-124.57
-114.04
-92.98
-66.62
-40.80
-19.53
-3.71
7.93
16.50
21.69
21.59
14.64
1.87
-12.36
-21.67
-20.76
-8.46
11.36
31.65
45.58
49.71
45.09
35.38
24.41
14.30
5.45
-2.07
-7.25
-8.28
-4.27
3.11
9.69
10.90
4.51
-7.16
-17.76
-19.84
-9.11
12.93
39.35
61.13
71.82
70.85
63.31
56.88
57.07
64.41
74.69
82.26
84.00
81.15
78.13
78.93
84.05
89.63
89.68
79.77
60.06
35.77
15.07
5.60
11.50
31.87
61.24
91.53
114.92
126.49
125.80
116.83
106.03
99.59
100.89
109.62
123.02
138.22
154.11
171.58
191.95
214.84
237.05
253.40
259.55
254.79
243.04
230.90
224.19
225.14
231.76
239.94
245.67
246.86
243.70
237.36
228.52
216.60
200.46
179.78
156.09
131.88
109.33
89.37
71.42
53.70
33.83
9.85
-19.03
-52.05
-88.06
-126.45
-166.99
-209.42
-253.03
-296.72
-338.85
-377.62
-407.36
-420.11
-410.50
-379.38
-333.32
-280.08
-225.34
-171.74
-120.17
-70.43
-22.82
20.61
57.90
88.14
112.17
131.15
146.14
157.82
167.05
174.16
178.18
178.46
175.29
169.98
163.92
158.11
152.42
145.69
139.53
133.63
127.42
120.61
113.53
106.76
100.90
96.15
92.66
90.29
88.05
85.34
81.73
77.18
72.01
66.78
61.89
57.84
55.00
53.02
51.63
50.16
47.60
42.83
34.54
21.28
1.89
-24.08
-56.38
-93.43
-132.85
-171.89
-207.91
-238.78
-263.44
-281.86
-294.57
-302.43
-305.90
-305.35
-301.16
-294.15
-285.78
-278.18
-273.65
-273.86
-279.38
-289.36
-302.10
-315.75
-329.10
-342.10
-355.92
-372.70
-395.01
-425.51
-466.17
-517.34
-576.30
-636.27
-687.38
-719.34
-724.96
-702.64
-656.69
-595.33
-527.60
-460.25
-396.14
-335.31
-277.39
-223.34
-175.21
-134.77
-102.25
-76.12
-53.57
-30.77
-4.57
26.30
60.92
97.70
135.75
175.38
217.60
263.29
313.81
369.49
428.62
487.43
541.58
587.88
624.94
653.03
664.61
651.83
613.04
555.33
489.44
423.56
361.67
304.95
253.56
207.29
167.09
134.07
108.29
88.07
70.86
54.51
37.69
20.20
2.23
-14.95
-29.88
-41.83
-51.31
-59.52
-67.39
-75.34
-83.24
-90.17
-94.73
-95.67
-92.56
-86.00
-77.25
-67.56
-58.03
-48.54
-38.97
-29.15
-19.11
-9.37
-0.74
5.83
9.69
10.58
9.95
9.24
9.67
11.88
15.75
20.91
26.97
33.92
38.94
42.42
45.40
49.20
55.10
64.12
77.24
95.43
119.38
142.72
160.67
169.71
169.22
161.16
148.35
133.05
116.38
98.33
78.97
59.73
41.90
26.46
13.67
3.06
-6.01
-14.28
-22.61
-31.00
-38.33
-43.57
-46.07
-45.92
-44.13
-41.82
-37.94
-34.99
-34.31
-35.90
-39.33
-44.15
-50.33
-58.33
-68.23
-80.09
-93.91
-108.70
-122.72
-134.15
-141.62
-144.76
-144.45
-141.52
-137.13
-132.08
-125.88
-116.88
-102.83
-81.70
-51.96
-18.37
15.57
46.99
74.27
97.45
118.10
138.73
161.76
189.12
221.97
261.15
305.54
351.16
390.81
416.91
425.08
416.85
399.27
381.50
371.13
370.21
375.09
377.15
369.06
348.66
319.50
287.45
256.54
227.45
198.20
166.41
127.84
80.58
26.13
-30.94
-85.55
-134.83
-178.74
-219.13
-258.65
-304.19
-361.19
-430.91
-509.41
-590.33
-668.24
-740.07
-804.51
-832.79
-803.37
-713.14
-581.71
-437.57
-302.29
-186.16
-91.51
-16.65
41.72
82.99
106.93
115.72
114.86
110.87
108.41
109.48
114.21
121.93
128.50
130.46
126.82
119.98
113.98
111.85
114.98
123.20
135.46
148.11
157.73
162.31
161.88
157.65
150.59
140.97
128.59
113.21
93.89
70.95
45.61
20.16
-2.77
-21.23
-34.51
-43.00
-47.92
-50.90
-53.43
-56.19
-58.93
-60.84
-61.27
-60.17
-58.24
-56.66
-56.35
-57.73
-60.47
-63.51
-65.58
-65.93
-64.57
-62.32
-60.40
-59.71
-60.72
-63.51
-67.98
-73.56
-78.87
-81.29
-77.38
-64.27
-41.20
-10.59
22.45
51.95
73.37
85.01
87.96
84.87
78.33
70.23
61.89
54.61
49.85
48.76
51.20
55.48
58.83
58.65
53.92
45.58
36.36
29.43
27.47
31.47
40.18
49.90
55.09
49.69
29.20
-6.76
-53.03
-99.49
-134.05
-147.20
-135.91
-104.87
-64.35
-25.72
3.02
19.47
25.99
26.94
25.70
23.36
19.29
12.92
4.91
-2.62
-7.14
-7.42
-4.24
-0.03
2.44
1.14
-4.15
-12.04
-20.31
-26.95
-31.14
-33.46
-35.45
-38.76
-44.33
-51.83
-59.80
-66.08
-68.45
-65.49
-56.93
-43.76
-27.89
-11.57
3.24
15.40
24.83
32.35
39.27
46.69
54.97
63.29
69.90
72.84
70.88
64.33
55.19
46.68
42.01
42.92
48.81
56.86
63.07
63.91
57.93
46.46
33.25
23.13
20.26
26.39
39.58
54.02
61.33
53.10
23.86
-26.11
-89.72
-154.50
-206.02
-232.30
-227.81
-195.59
-146.56
-96.47
-60.62
-48.98
-62.94
-95.18
-133.16
-164.64
-182.67
-187.76
-185.92
-183.61
-183.58
-183.40
-177.63
-161.84
-135.84
-104.00
-72.40
-46.31
-26.70
-10.57
6.56
27.57
51.96
76.30
96.71
111.17
120.41
127.26
134.57
143.22
151.47
155.57
151.80
138.43
116.59
89.79
62.66
39.31
22.55
14.03
14.69
25.10
45.27
73.78
107.33
141.53
172.21
196.94
215.74
230.48
243.10
254.32
262.61
265.02
259.07
244.41
223.33
200.01
178.63
161.66
149.85
142.04
136.37
131.42
126.54
121.54
116.27
110.59
104.97
101.80
103.97
113.17
127.90
142.65
149.41
140.72
113.22
65.24
2.89
-63.14
-122.03
-166.96
-196.76
-214.15
-222.68
-224.61
-220.76
-210.86
-195.72
-177.17
-157.26
-137.29
-117.67
-98.58
-80.92
-66.42
-56.50
-52.07
-52.94
-58.04
-66.03
-75.57
-85.27
-93.31
-97.40
-95.18
-85.68
-70.21
-52.23
-36.13
-25.49
-21.72
-23.86
-29.39
-35.61
-40.91
-45.13
-48.97
-53.00
-57.13
-60.56
-62.23
-61.23
-56.93
-49.21
-38.60
-26.33
-14.14
-3.91
2.85
5.57
4.64
1.23
-3.38
-8.50
-14.26
-21.08
-29.26
-38.33
-47.04
-54.27
-59.56
-63.04
-64.73
-63.96
-58.25
-44.44
-20.18
14.08
54.14
93.50
125.32
145.33
152.81
150.41
142.25
131.81
120.99
110.36
100.16
91.02
84.18
81.15
82.48
86.85
90.87
90.06
80.24
60.16
32.01
0.89
-26.88
-46.58
-56.64
-58.73
-55.62
-49.57
-41.18
-30.05
-16.63
-2.98
7.42
11.27
7.22
-2.99
-15.34
-25.26
-29.25
-26.39
-17.70
-5.30
8.81
23.40
37.92
52.37
66.73
81.01
94.48
106.64
117.14
125.92
133.21
139.30
144.51
149.03
153.06
156.01
157.59
157.80
156.75
154.62
151.35
146.43
138.39
129.92
121.38
112.61
103.19
92.68
80.76
67.37
52.80
37.60
22.57
7.81
-6.57
-20.63
-34.57
-48.58
-62.72
-76.82
-90.53
-103.38
-115.49
-127.12
-138.61
-150.53
-163.54
-178.43
-195.80
-215.66
-237.00
-257.78
-274.87
-284.92
-285.46
-275.90
-257.60
-233.37
-206.40
-179.22
-153.53
-130.03
-108.92
-90.32
-74.43
-61.38
-51.04
-42.99
-36.72
-31.91
-28.48
-26.54
-26.24
-27.45
-29.66
-32.06
-33.80
-34.24
-33.26
-31.20
-28.59
-25.93
-23.32
-20.63
-17.59
-14.20
-10.58
-7.11
-4.11
-1.67
0.25
1.85
3.19
4.29
5.11
5.82
6.71
8.23
10.81
14.74
20.03
26.50
33.86
41.73
49.72
57.45
64.61
70.92
75.94
79.15
79.81
77.25
71.18
61.91
50.42
38.12
26.49
16.54
8.65
2.60
-2.29
-6.61
-10.68
-14.43
-17.49
-19.42
-20.14
-19.97
-19.87
-21.13
-24.81
-31.28
-39.89
-49.13
-57.19
-62.80
-65.87
-67.69
-70.79
-77.65
-89.71
-106.75
-126.99
-147.70
-166.28
-181.30
-193.02
-203.54
-215.91
-233.16
-256.69
-284.89
-312.40
-330.47
-329.08
-300.28
-241.60
-157.97
-61.11
33.87
113.18
167.72
194.99
198.15
183.84
160.12
135.04
115.56
106.64
110.56
125.71
147.51
170.12
188.57
199.66
201.57
192.60
170.67
134.73
86.83
33.49
-15.72
-51.78
-70.22
-72.81
-65.85
-56.28
-48.13
-41.56
-34.86
-27.76
-23.19
-26.01
-40.05
-64.90
-95.17
-122.32
-138.04
-137.03
-118.15
-83.68
-37.39
16.74
75.24
134.92
192.29
243.25
283.41
308.65
315.97
303.98
272.98
225.12
164.28
96.01
27.14
-34.72
-82.21
-109.63
-114.17
-96.94
-62.73
-18.89
26.50
66.40
96.11
113.76
119.98
117.11
108.25
96.64
85.05
75.50
68.87
64.90
62.46
60.18
56.85
51.71
44.74
36.58
28.26
20.37
13.11
6.32
-0.29
-7.03
-13.93
-20.27
-24.25
-23.21
-15.34
0.10
22.21
48.91
77.33
104.47
128.10
147.19
161.85
171.53
175.28
171.62
158.89
135.02
97.81
46.35
-17.08
-85.85
-151.49
-205.86
-244.40
-267.27
-279.65
-289.54
-304.48
-328.69
-348.71
-350.51
-327.10
-283.14
-228.92
-172.92
-118.96
-67.81
-19.64
24.93
64.29
99.28
130.63
160.45
191.42
224.89
259.54
291.44
304.68
289.88
246.84
183.90
113.94
48.53
-5.60
-47.60
-80.70
-106.03
-122.66
-130.18
-129.99
-124.85
-118.24
-113.52
-109.72
-106.24
-101.41
-92.87
-79.54
-62.19
-42.67
-23.26
-6.15
7.01
15.01
17.83
16.87
13.66
9.41
4.95
0.78
-2.94
-6.27
-9.77
-13.80
-18.51
-24.21
-31.37
-40.42
-51.56
-64.61
-78.81
-92.87
-104.70
-111.88
-112.42
-105.37
-91.05
-71.00
-47.27
-21.87
3.55
27.76
49.62
68.07
82.31
92.27
98.54
101.99
102.85
100.16
91.86
75.97
52.16
22.73
-7.53
-33.02
-49.44
-55.42
-52.52
-44.17
-33.88
-23.73
-14.26
-4.89
4.94
15.16
25.39
35.64
46.46
58.70
72.94
88.90
105.62
121.22
133.48
140.76
143.11
141.79
138.61
135.25
132.46
130.53
128.14
123.12
113.72
100.44
85.23
70.22
57.00
46.20
38.97
35.28
34.24
34.59
36.29
38.98
41.54
43.01
43.03
43.87
46.63
49.86
49.57
42.31
25.37
-2.24
-38.40
-88.72
-147.61
-202.09
-237.43
-253.04
-248.38
-218.99
-160.28
-70.95
42.51
168.50
291.16
394.84
467.42
503.55
503.66
470.64
411.26
333.33
248.40
169.23
107.18
68.37
52.40
53.30
59.55
59.68
41.49
-2.86
-75.20
-170.64
-279.47
-390.15
-490.73
-574.41
-614.46
-591.04
-505.62
-383.22
-254.94
-141.16
-56.59
8.91
63.49
111.68
150.88
174.83
180.41
168.62
144.67
115.15
87.51
65.24
49.93
38.77
25.87
9.11
-8.09
-20.08
-23.94
-20.05
-13.54
-9.73
-13.89
-32.07
-64.18
-103.86
-143.07
-177.03
-204.71
-228.75
-252.17
-278.10
-312.56
-356.38
-403.61
-444.25
-468.80
-470.00
-444.87
-394.62
-299.51
-167.20
-28.14
84.90
157.11
191.64
199.39
190.52
173.03
152.57
130.16
108.06
90.37
79.93
75.52
73.53
69.89
63.66
56.23
48.50
44.43
48.94
64.34
87.79
112.16
126.81
122.77
90.48
29.39
-44.21
-103.14
-124.45
-100.53
-39.35
39.03
116.14
181.39
230.63
265.93
292.18
313.69
333.06
353.60
364.98
362.36
342.93
306.19
253.57
187.19
109.66
17.29
-77.47
-156.29
-205.24
-223.03
-216.36
-193.90
-163.49
-131.08
-100.91
-73.79
-51.04
-32.29
-16.55
-1.54
15.03
34.66
56.67
78.26
97.02
109.40
112.85
105.93
89.13
64.25
32.04
-2.73
-36.05
-64.46
-86.71
-102.84
-113.86
-120.99
-125.27
-127.55
-128.12
-127.30
-124.68
-120.38
-114.87
-109.09
-104.02
-100.21
-97.93
-97.18
-98.47
-101.79
-106.25
-109.25
-106.73
-94.53
-70.65
-37.03
0.76
35.09
59.78
72.37
74.63
70.79
65.06
59.77
55.11
50.32
44.97
39.70
35.83
34.35
35.09
36.81
37.88
36.92
33.75
29.12
24.48
21.16
19.83
20.25
21.43
22.17
21.55
19.40
16.22
12.97
10.54
9.47
9.70
10.69
11.65
11.95
11.30
9.87
8.19
6.93
6.59
7.39
9.12
11.25
13.07
14.08
14.09
13.39
12.67
12.74
14.19
17.07
20.82
24.49
27.09
28.04
27.57
26.59
26.38
28.03
31.83
37.08
42.36
46.30
47.95
47.26
44.95
42.10
39.66
38.31
38.44
39.99
41.87
41.35
34.33
16.75
-13.12
-53.00
-96.79
-136.37
-164.68
-178.43
-179.01
-171.10
-160.13
-149.67
-140.78
-132.85
-124.94
-116.76
-108.58
-100.63
-91.32
-79.83
-65.01
-46.13
-23.74
0.33
23.50
43.38
58.39
68.30
73.89
76.75
78.40
79.84
81.23
82.06
81.86
80.35
77.81
74.89
72.59
71.85
73.35
77.34
83.62
91.92
101.81
112.78
124.06
134.83
143.74
149.22
149.70
143.97
131.46
112.32
87.39
57.98
26.30
-5.69
-36.35
-64.57
-89.80
-111.84
-130.86
-147.53
-161.63
-173.35
-181.94
-186.42
-185.87
-179.64
-167.61
-150.50
-129.64
-106.70
-83.84
-63.11
-46.08
-33.65
-25.83
-21.88
-20.60
-20.46
-19.99
-18.15
-14.64
-9.75
-4.23
0.93
4.93
7.27
8.02
7.77
7.84
9.04
12.29
18.29
27.25
38.98
52.90
68.19
83.90
99.10
113.11
125.39
135.72
143.84
149.57
152.64
153.33
150.90
144.89
135.36
122.42
106.42
87.92
67.87
47.33
27.45
9.21
-6.50
-19.00
-28.16
-34.12
-37.22
-37.94
-37.04
-35.49
-34.15
-33.77
-34.82
-37.60
-41.81
-46.62
-50.76
-52.69
-51.24
-45.45
-34.81
-19.37
-0.20
21.42
44.03
66.19
86.89
105.32
121.33
135.41
148.52
160.78
172.91
185.81
200.29
216.65
234.02
251.10
266.37
278.16
283.07
278.93
264.99
241.45
210.82
174.51
133.42
87.94
37.77
-20.81
-90.23
-170.97
-261.77
-360.44
-465.50
-575.50
-688.23
-800.28
-909.78
-1010.26
-1091.14
-1140.47
-1149.19
-1114.85
-1041.89
-939.48
-791.30
-600.13
-383.84
-169.37
18.98
167.93
276.13
350.61
402.51
441.44
470.20
489.81
500.71
503.51
499.29
489.53
475.99
464.63
454.21
440.04
419.81
394.33
366.49
338.87
312.10
280.44
243.05
199.33
148.88
93.98
38.85
-11.84
-54.68
-88.52
-113.79
-131.47
-144.17
-154.56
-164.32
-173.99
-183.09
-190.57
-196.45
-198.46
-194.11
-182.43
-163.21
-136.78
-104.04
-66.33
-25.89
14.14
51.39
84.24
111.17
131.50
145.16
152.56
154.42
151.66
145.45
137.30
128.44
119.63
111.26
103.55
96.44
89.80
83.30
76.83
70.58
64.73
59.33
54.33
49.77
45.61
41.75
38.06
34.51
31.22
28.23
25.62
23.32
21.55
20.47
20.09
20.37
21.24
22.52
23.90
25.97
27.42
27.69
26.34
23.04
17.68
10.42
1.57
-8.33
-18.65
-28.89
-38.24
-46.17
-52.39
-56.83
-59.56
-60.93
-61.27
-60.92
-60.39
-59.62
-58.72
-57.81
-57.02
-56.30
-55.90
-55.79
-55.95
-56.52
-57.03
-57.45
-57.94
-58.78
-59.85
-61.63
-64.04
-66.99
-70.44
-73.49
-75.88
-77.68
-79.27
-80.34
-81.69
-83.46
-85.81
-89.05
-92.35
-95.58
-98.86
-102.37
-104.86
-106.24
-105.28
-100.44
-97.38
-96.54
-97.41
-99.50
-102.97
-100.57
-93.83
-84.56
-74.23
-63.83
-52.51
-39.03
-20.84
-5.47
5.22
9.83
8.94
3.80
-4.21
-12.88
-20.94
-27.84
-33.72
-37.55
-39.88
-40.89
-40.95
-40.57
-39.85
-39.20
-39.30
-40.86
-43.36
-47.02
-51.68
-57.21
-63.45
-70.04
-76.76
-83.52
-90.26
-96.18
-100.94
-104.17
-105.63
-105.23
-103.02
-99.31
-94.61
-89.61
-84.18
-78.53
-73.13
-68.55
-65.16
-62.94
-61.45
-60.18
-58.59
-55.66
-50.80
-43.98
-35.61
-26.23
-16.20
-5.71
5.13
16.10
28.19
41.80
56.47
71.08
84.70
97.10
108.60
119.61
130.21
143.52
161.00
181.38
201.52
218.74
232.45
243.79
254.49
265.84
285.57
317.72
360.48
407.61
453.21
494.88
533.26
570.01
606.07
652.70
715.42
790.53
867.30
935.46
990.45
1033.29
1067.98
1099.03
1144.47
1212.98
1297.51
1377.63
1430.80
1442.53
1409.42
1337.63
1145.26
809.15
372.41
-76.26
-459.89
-746.19
-939.01
-1057.54
-1122.30
-1150.79
-1141.91
-1097.54
-1028.01
-950.10
-878.08
-817.92
-769.16
-727.90
-690.55
-643.84
-581.12
-506.08
-429.85
-363.63
-313.59
-281.38
-265.14
-262.22
-262.79
-260.36
-254.60
-249.82
-250.40
-257.78
-271.15
-287.28
-302.70
-310.88
-307.77
-293.66
-272.56
-250.09
-223.35
-193.03
-160.16
-126.51
-93.25
-62.55
-38.21
-24.72
-20.72
-25.27
-37.01
-52.92
-69.56
-83.77
-93.18
-97.14
-96.20
-91.71
-86.05
-81.96
-81.24
-84.54
-90.71
-96.34
-96.24
-84.84
-59.01
-20.61
23.55
64.60
94.97
111.32
115.16
111.25
104.74
98.79
93.69
88.12
81.18
73.37
66.42
62.04
60.87
62.12
64.06
64.51
62.16
57.06
50.53
44.55
40.93
40.55
43.06
47.00
50.38
51.57
50.03
46.43
42.34
39.62
39.50
42.15
46.88
52.50
57.87
62.04
63.91
62.15
55.62
44.18
29.48
14.94
4.31
-0.23
0.68
3.50
3.71
-1.68
-12.28
-24.43
-33.12
-34.80
-29.21
-19.05
-8.52
-1.10
1.85
1.12
-1.55
-4.47
-6.84
-8.72
-10.20
-11.73
-14.25
-19.37
-29.05
-45.08
-67.83
-95.85
-126.61
-156.11
-180.75
-198.04
-206.81
-206.71
-197.99
-181.16
-155.89
-124.67
-90.07
-54.68
-20.43
11.37
40.08
65.41
87.28
105.86
121.00
133.03
141.86
147.24
148.11
142.98
130.50
110.07
82.43
49.54
14.91
-18.02
-46.36
-68.64
-84.65
-94.99
-100.63
-102.67
-102.49
-101.21
-99.48
-96.79
-91.34
-80.73
-63.47
-40.29
-14.34
9.76
28.14
39.05
43.20
42.62
39.70
35.86
31.84
28.58
27.87
32.52
45.48
68.74
101.94
141.95
182.33
214.13
228.35
219.73
189.87
147.68
106.52
78.63
70.34
78.54
94.21
105.75
104.65
88.38
59.45
22.98
-18.30
-62.68
-108.06
-150.40
-184.14
-203.87
-206.76
-194.18
-171.26
-144.75
-120.39
-101.48
-88.47
-79.67
-72.11
-62.71
-49.38
-31.58
-10.59
11.23
31.14
47.09
57.99
64.34
67.93
70.77
74.25
78.52
82.93
86.56
88.82
89.67
89.56
88.92
87.80
85.85
82.42
77.20
70.33
62.39
54.13
46.20
38.92
32.33
26.37
21.01
16.34
12.46
9.34
6.78
4.46
2.04
-0.74
-3.97
-7.51
-10.98
-13.84
-15.65
-16.29
-16.13
-15.99
-16.72
-18.88
-22.47
-26.94
-31.55
-35.74
-39.41
-42.80
-46.26
-49.91
-53.53
-56.67
-58.81
-59.54
-58.66
-56.15
-52.25
-47.52
-42.75
-38.80
-36.25
-35.10
-34.85
-34.78
-34.38
-33.59
-32.79
-32.47
-32.85
-33.71
-34.45
-34.48
-33.43
-31.35
-28.61
-25.75
-23.23
-21.35
-20.13
-19.38
-18.79
-18.13
-17.42
-16.94
-17.09
-18.12
-19.94
-22.13
-24.12
-25.56
-26.43
-27.15
-28.27
-30.19
-32.91
-35.96
-38.52
-39.70
-38.96
-36.32
-32.59
-29.23
-27.93
-30.03
-35.84
-44.39
-53.69
-61.46
-66.04
-66.88
-64.60
-60.42
-55.57
-50.88
-46.75
-43.41
-40.97
-39.32
-37.81
-35.23
-30.29
-22.43
-12.54
-3.09
2.78
2.52
-4.56
-16.82
-30.64
-41.44
-45.07
-38.75
-21.81
4.29
36.26
69.66
99.83
122.88
136.55
140.48
135.85
124.74
109.32
91.42
72.48
53.79
36.56
21.92
10.53
2.28
-3.69
-8.62
-13.54
-18.76
-23.71
-27.31
-28.59
-27.25
-23.85
-19.56
-15.60
-12.70
-10.79
-9.25
-7.36
-4.85
-2.10
0.08
1.06
0.82
0.09
0.04
1.51
4.62
8.71
12.72
15.80
17.71
18.74
19.35
19.87
20.38
20.95
21.87
23.71
26.98
31.72
37.12
41.67
43.81
42.60
38.09
31.09
22.64
13.41
3.64
-6.47
-16.14
-23.81
-27.59
-26.24
-20.04
-10.98
-2.05
4.04
5.93
4.00
-0.17
-4.76
-8.63
-11.58
-14.07
-16.68
-19.57
-22.38
-24.40
-24.93
-23.67
-20.79
-16.96
-13.05
-9.77
-7.33
-5.31
-2.79
1.31
7.71
16.47
26.91
37.70
47.27
54.31
58.06
58.61
56.88
54.27
52.22
51.84
53.65
57.66
63.68
71.54
81.14
92.42
105.07
118.38
131.36
142.92
152.24
159.03
163.51
166.17
167.53
167.75
166.56
163.35
157.37
147.97
134.81
117.91
97.72
75.14
51.32
27.68
5.66
-13.51
-29.02
-40.56
-48.33
-52.93
-55.16
-55.95
-56.10
-56.08
-56.04
-55.85
-55.21
-53.88
-51.67
-48.24
-43.30
-36.43
-27.32
-15.92
-2.46
12.52
28.18
43.34
56.61
66.16
70.65
69.78
65.06
59.56
56.61
57.85
61.84
63.96
57.26
35.46
-5.03
-63.53
-135.50
-214.20
-292.87
-366.27
-426.44
-465.54
-476.39
-455.24
-403.19
-326.32
-233.87
-135.62
-39.97
47.19
120.87
180.75
226.54
256.99
270.52
266.41
246.64
216.57
184.62
159.05
146.40
149.43
166.89
195.10
229.92
267.88
305.70
339.33
361.88
366.22
347.38
305.41
246.13
178.91
112.73
53.01
0.85
-47.50
-96.44
-148.76
-204.45
-261.12
-315.54
-365.20
-408.83
-446.29
-480.24
-513.29
-547.26
-582.68
-618.69
-653.61
-685.69
-713.52
-722.11
-700.21
-641.24
-546.54
-425.51
-292.05
-159.66
-38.30
66.44
152.66
218.79
264.97
292.78
305.18
306.16
300.09
290.75
280.86
272.05
263.39
253.62
241.72
227.55
211.88
196.12
181.64
169.33
159.55
151.17
142.89
133.74
123.37
112.19
101.11
91.01
82.48
75.69
70.01
64.70
59.21
53.34
47.39
41.89
37.32
33.84
31.28
29.13
26.90
24.41
21.79
19.55
18.39
18.78
20.76
23.81
27.28
30.57
33.41
35.86
38.27
40.94
43.87
46.64
47.89
46.53
41.96
34.46
25.08
15.40
6.66
-0.62
-6.99
-13.73
-22.18
-33.37
-47.50
-64.75
-84.52
-104.87
-122.27
-131.98
-129.65
-113.47
-85.69
-52.27
-20.76
2.66
15.50
19.20
17.62
14.52
11.85
9.60
6.94
3.55
0.12
-2.06
-2.10
-0.20
2.37
4.06
3.61
0.91
-3.22
-7.39
-10.38
-11.63
-11.45
-10.77
-10.77
-12.25
-15.30
-19.42
-23.83
-27.90
-31.48
-34.95
-38.93
-44.13
-50.85
-58.76
-66.99
-74.24
-79.30
-81.30
-79.54
-73.81
-64.39
-51.87
-37.02
-20.82
-4.27
11.54
25.64
37.26
45.91
51.50
54.30
54.83
53.67
51.48
48.79
45.97
43.21
40.45
37.53
34.28
30.52
26.03
20.75
14.76
8.23
1.41
-5.39
-11.90
-17.84
-23.07
-27.48
-31.06
-33.86
-36.04
-37.91
-39.63
-41.41
-43.30
-45.16
-46.68
-47.44
-47.01
-44.99
-41.26
-35.83
-29.20
-22.19
-15.77
-10.94
-8.66
-9.68
-14.46
-23.17
-35.30
-50.05
-66.22
-82.19
-96.07
-105.90
-109.96
-107.01
-98.53
-85.92
-71.13
-56.17
-42.78
-32.03
-24.22
-19.05
-15.99
-14.47
-13.67
-12.82
-11.01
-7.13
0.05
11.40
27.23
47.21
70.84
98.07
128.85
162.48
196.81
227.90
250.89
261.73
259.03
244.83
224.04
202.27
184.11
171.98
166.42
166.73
171.44
178.00
182.28
178.88
162.52
130.35
84.02
29.90
-22.61
-64.25
-89.15
-96.76
-91.80
-82.74
-78.93
-87.28
-109.84
-142.57
-176.34
-199.93
-203.73
-182.82
-138.07
-75.12
-1.99
72.98
142.18
198.99
237.90
255.09
249.72
224.68
186.20
142.03
99.04
61.29
29.84
3.67
-18.53
-37.32
-52.21
-62.54
-68.50
-71.61
-74.34
-79.07
-86.95
-97.23
-107.76
-116.10
-120.91
-122.66
-123.05
-123.82
-125.38
-126.45
-124.78
-118.69
-108.37
-96.13
-85.26
-78.54
-77.18
-80.88
-88.73
-100.03
-114.30
-130.40
-145.40
-154.35
-151.42
-132.05
-95.10
-43.87
14.54
71.34
118.36
149.67
162.11
154.84
128.73
86.27
32.06
-26.89
-81.62
-123.23
-145.67
-147.68
-132.79
-107.14
-76.19
-42.57
-6.41
32.40
71.72
106.84
132.84
148.00
155.85
164.20
181.60
213.43
259.82
316.34
376.31
432.99
480.41
513.30
527.06
518.56
487.36
436.79
373.36
304.80
237.51
174.91
117.50
64.21
14.16
-32.26
-73.50
-107.86
-134.72
-155.11
-171.67
-187.80
-206.64
-229.80
-256.76
-284.50
-307.74
-320.04
-315.16
-288.98
-241.36
-177.30
-106.33
-40.19
10.72
40.72
50.31
45.32
33.86
22.86
15.65
12.27
11.03
10.40
9.83
9.35
8.75
7.62
5.92
4.11
3.71
6.65
14.17
25.92
39.98
53.82
64.87
70.87
68.61
55.34
30.35
-3.50
-39.88
-71.29
-92.52
-103.19
-107.93
-115.63
-134.56
-169.27
-219.54
-281.77
-351.33
-424.38
-497.78
-557.24
-587.99
-577.83
-523.26
-431.78
-318.42
-198.89
-84.81
18.02
108.22
184.93
247.52
295.06
327.57
346.41
353.15
349.59
337.85
319.89
296.14
266.58
230.98
189.69
143.71
94.02
40.74
-15.22
-72.95
-130.95
-184.99
-228.12
-252.28
-251.36
-224.19
-175.55
-114.76
-52.31
3.24
47.94
81.77
107.17
127.36
145.59
165.31
190.10
222.54
262.41
305.33
342.88
365.28
365.29
341.32
298.42
246.05
194.23
150.21
117.01
93.84
78.73
70.41
68.91
74.66
86.99
103.55
120.97
136.06
146.06
150.41
150.82
150.06
150.21
151.15
150.38
144.55
130.47
104.78
67.37
21.47
-27.39
-73.81
-114.77
-150.34
-182.09
-213.71
-252.52
-303.99
-369.31
-443.77
-516.93
-575.75
-609.02
-610.67
-585.66
-552.56
-532.88
-542.60
-585.83
-654.20
-732.30
-804.99
-860.81
-866.57
-803.18
-668.11
-478.99
-265.54
-55.65
132.29
279.23
391.18
474.64
528.55
552.44
549.28
526.22
492.27
454.10
414.64
375.46
334.55
284.73
221.85
146.75
65.35
-13.67
-82.65
-137.05
-174.34
-185.18
-168.01
-126.81
-71.13
-12.01
42.62
89.18
127.03
155.81
178.01
191.76
194.87
186.39
167.65
141.80
112.33
81.91
52.85
26.26
2.22
-17.91
-32.10
-38.82
-37.39
-28.35
-13.08
6.81
29.01
49.99
66.97
78.55
84.83
87.61
89.23
91.51
94.87
99.28
100.65
94.54
77.45
47.80
6.54
-43.33
-97.77
-152.70
-205.63
-255.28
-300.93
-342.74
-381.54
-418.23
-453.19
-485.68
-506.52
-508.58
-486.32
-437.63
-365.73
-278.72
-187.58
-102.57
-30.45
26.69
69.09
98.46
116.62
124.95
124.82
118.11
107.68
96.57
87.08
79.31
72.10
63.92
53.61
40.93
26.81
13.02
1.52
-6.32
-10.53
-11.90
-11.63
-10.94
-10.47
-10.22
-9.84
-8.77
-6.91
-4.51
-2.14
-0.54
-0.16
-1.00
-2.61
-4.29
-5.27
-4.94
-2.84
1.04
6.68
14.16
23.68
35.52
49.84
66.81
86.27
107.57
129.60
150.88
169.69
184.14
192.38
192.85
184.49
166.77
139.88
104.96
63.95
19.43
-25.64
-68.01
-104.51
-132.62
-150.64
-157.78
-154.25
-141.25
-120.73
-95.30
-67.66
-40.53
-16.31
3.17
16.83
24.25
25.54
21.65
13.82
3.49
-7.89
-18.89
-28.31
-35.11
-38.61
-38.58
-35.00
-28.32
-19.35
-9.05
1.54
11.29
19.15
24.38
26.57
25.53
21.30
14.19
4.72
-6.42
-18.58
-31.08
-43.26
-54.61
-64.72
-73.35
-80.24
-85.33
-88.67
-90.35
-90.44
-89.20
-86.97
-84.06
-80.83
-77.51
-74.35
-71.47
-68.91
-66.66
-64.69
-62.93
-61.14
-59.17
-56.85
-53.87
-49.91
-44.67
-37.97
-29.68
-19.83
-8.38
4.41
18.17
32.70
47.59
62.56
77.50
92.47
107.50
122.63
137.85
152.89
167.35
180.26
190.44
196.54
197.24
191.27
177.77
156.61
128.27
94.08
56.00
16.66
-21.26
-55.32
-83.54
-104.68
-118.41
-125.30
-126.55
-123.92
-119.19
-114.26
-110.98
-110.73
-114.62
-123.32
-136.77
-154.05
-173.68
-193.70
-211.95
-226.75
-236.86
-241.79
-241.48
-235.88
-224.42
-206.20
-179.98
-144.61
-99.81
-46.45
13.59
77.89
144.12
210.53
276.20
340.66
403.34
463.24
519.12
569.73
614.18
651.56
680.23
697.60
700.27
685.72
653.87
608.29
555.13
500.90
450.04
403.79
360.72
319.03
278.70
241.87
211.82
190.58
177.39
169.00
161.34
151.87
141.11
132.14
128.62
132.26
141.44
151.70
157.59
155.37
144.68
128.36
110.79
95.30
82.45
70.21
55.31
35.55
11.35
-14.26
-37.09
-53.82
-63.65
-68.10
-70.29
-72.82
-76.12
-78.39
-76.47
-68.03
-53.35
-35.75
-20.14
-10.82
-8.93
-12.19
-16.31
-17.48
-14.62
-9.63
-6.35
-7.98
-15.15
-25.58
-35.34
-40.89
-41.07
-37.51
-33.59
-32.58
-35.64
-41.24
-46.07
-46.92
-42.69
-34.91
-27.28
-23.52
-25.10
-30.61
-36.39
-38.60
-35.59
-28.80
-21.95
-19.09
-22.11
-29.70
-38.07
-42.92
-41.74
-34.82
-25.12
-16.63
-11.99
-11.41
-12.69
-12.72
-9.53
-3.43
2.97
6.27
4.27
-2.49
-10.98
-17.28
-18.74
-15.29
-9.56
-5.55
-5.99
-11.12
-18.53
-24.58
-26.68
-24.72
-21.16
-19.49
-22.08
-28.50
-35.82
-40.11
-38.69
-31.50
-21.17
-11.77
-6.24
-5.16
-6.49
-6.88
-3.79
3.01
11.19
17.19
18.22
13.89
6.35
-0.87
-4.87
-4.80
-2.29
-0.62
-2.31
-7.93
-15.59
-22.05
-24.69
-22.96
-18.85
-15.67
-16.10
-20.40
-26.41
-30.79
-31.11
-27.27
-21.75
-18.27
-19.31
-24.64
-31.29
-35.13
-33.29
-25.76
-15.49
-6.73
-2.64
-3.49
-6.78
-8.82
-6.90
-0.76
7.38
13.97
16.65
15.36
12.38
10.97
13.16
18.53
24.25
26.59
23.09
14.15
2.83
-6.78
-11.67
-11.42
-8.23
-5.76
-6.68
-11.33
-17.64
-22.44
-23.43
-20.59
-16.28
-13.95
-16.03
-22.52
-30.83
-37.34
-39.43
-36.83
-31.60
-27.05
-25.21
-25.66
-25.87
-22.55
-14.01
-1.24
12.38
22.83
27.52
26.71
23.05
19.90
19.42
21.53
24.12
24.22
20.18
12.43
3.48
-3.28
-5.45
-2.74
2.79
7.57
8.62
4.82
-2.50
-10.50
-16.45
-19.16
-19.54
-20.23
-23.88
-31.59
-42.39
-53.56
-62.19
-66.57
-66.94
-65.01
-62.57
-60.13
-56.46
-49.54
-38.04
-22.52
-5.67
8.54
16.96
18.89
16.18
12.45
10.93
12.92
17.21
20.82
21.03
16.98
10.27
4.04
1.29
3.21
8.60
14.42
17.60
16.81
13.03
8.87
6.72
7.17
8.48
7.56
2.12
-7.80
-19.39
-28.76
-33.10
-32.21
-28.56
-26.00
-27.23
-31.96
-37.15
-38.34
-32.43
-19.45
-2.77
12.21
20.83
21.29
15.35
7.00
0.32
-2.61
-2.41
-1.78
-3.55
-8.71
-15.87
-21.83
-23.55
-19.86
-12.09
-3.45
2.87
5.53
5.67
5.94
8.60
13.82
19.41
21.65
17.66
7.29
-6.64
-19.61
-27.90
-30.60
-29.93
-30.03
-34.49
-44.11
-56.36
-66.63
-70.52
-66.34
-55.87
-43.77
-35.05
-32.48
-35.50
-40.69
-43.91
-42.69
-37.64
-32.14
-30.34
-34.64
-44.18
-55.47
-64.26
-67.96
-66.18
-61.18
-56.09
-52.76
-50.62
-46.87
-38.38
-23.78
-4.42
17.87
41.00
64.32
88.94
116.84
149.13
184.46
219.02
248.09
271.62
292.76
316.89
348.96
390.69
439.61
490.03
535.41
571.14
601.01
631.41
667.91
711.50
757.05
795.49
817.20
815.36
788.10
744.74
697.41
656.65
627.37
607.75
591.77
572.88
546.76
475.77
340.36
140.50
-101.45
-350.49
-575.50
-759.13
-897.21
-992.88
-1051.04
-1070.43
-1051.02
-996.78
-917.47
-826.94
-738.54
-660.94
-597.28
-546.89
-503.15
-460.89
-418.73
-379.31
-346.98
-324.53
-311.42
-304.61
-300.52
-294.03
-282.64
-266.72
-248.74
-232.21
-218.88
-208.62
-200.39
-193.30
-186.11
-178.71
-171.21
-163.85
-156.41
-148.12
-138.50
-127.89
-117.61
-108.77
-101.83
-95.84
-88.88
-78.89
-64.61
-46.25
-25.48
-4.76
14.40
31.91
49.21
67.99
88.68
109.48
126.68
136.37
136.49
128.26
115.58
103.33
94.64
89.75
86.14
80.07
69.50
54.98
39.51
26.95
19.76
17.30
16.15
11.67
0.52
-17.44
-39.35
-60.82
-77.63
-87.40
-90.30
-88.64
-84.83
-80.39
-75.22
-68.55
-60.35
-51.25
-42.37
-34.73
-28.69
-23.85
-19.95
-17.48
-18.19
-24.22
-35.29
-47.28
-52.32
-41.11
-6.12
55.53
140.99
242.51
342.85
422.58
466.69
470.52
441.06
392.10
337.05
285.00
239.55
199.16
159.90
117.38
67.43
7.70
-60.66
-132.41
-198.96
-250.90
-281.54
-291.10
-281.30
-256.09
-220.67
-180.43
-140.45
-105.56
-80.75
-69.60
-74.59
-93.39
-119.03
-141.61
-152.43
-147.65
-129.65
-105.42
-82.98
-67.44
-58.94
-54.37
-49.90
-43.26
-34.50
-25.32
-17.77
-13.46
-12.68
-14.10
-15.92
-16.54
-15.08
-11.59
-6.93
-2.46
0.48
1.01
-0.80
-4.16
-7.79
-10.44
-11.17
-9.73
-6.59
-2.81
0.30
1.31
-0.97
-7.00
-15.38
-22.52
-23.25
-12.73
11.31
47.13
88.75
127.32
153.82
161.84
149.44
119.63
79.43
36.83
-0.70
-28.24
-44.41
-50.81
-50.62
-47.21
-42.72
-38.09
-33.63
-29.78
-27.12
-26.12
-26.34
-26.24
-23.83
-17.32
-5.79
10.08
28.46
46.77
62.26
72.77
77.11
75.16
67.70
56.02
41.27
24.26
5.93
-13.20
-32.49
-51.08
-68.16
-83.27
-96.39
-107.66
-115.76
-118.44
-112.91
-97.48
-73.16
-44.09
-16.50
3.69
13.31
13.22
7.14
-0.32
-6.04
-9.08
-9.97
-9.49
-7.54
-3.05
5.13
17.20
31.83
46.59
58.68
66.12
68.47
66.87
63.62
61.16
61.14
63.87
68.40
72.98
76.08
77.04
76.39
75.51
75.71
77.73
81.65
87.21
93.72
99.83
103.07
100.10
87.64
64.18
31.62
-4.35
-35.86
-55.96
-61.33
-53.43
-37.41
-19.43
-4.11
6.71
13.50
17.70
20.40
22.23
23.84
26.13
30.27
37.11
46.69
58.09
69.92
80.85
90.26
98.45
106.07
113.65
121.34
128.42
133.32
135.17
132.09
122.53
106.18
84.41
60.20
37.38
19.27
7.70
2.44
1.39
1.87
1.65
-0.47
-4.56
-9.97
-15.85
-21.29
-25.50
-27.91
-28.08
-25.86
-21.62
-16.21
-10.74
-6.48
-4.51
-5.48
-9.53
-16.18
-24.73
-34.53
-45.31
-57.09
-69.95
-83.36
-96.21
-107.06
-114.53
-118.06
-117.94
-115.22
-110.93
-105.59
-98.88
-90.11
-78.79
-65.06
-49.96
-35.08
-22.25
-13.10
-8.74
-9.62
-15.57
-25.73
-38.65
-52.54
-65.40
-75.38
-80.87
-80.49
-73.35
-59.33
-39.61
-16.85
4.87
21.33
29.42
28.23
19.31
5.81
-8.91
-22.40
-33.62
-42.54
-49.42
-54.36
-57.42
-58.87
-59.63
-61.04
-64.15
-69.31
-75.79
-82.24
-87.36
-90.65
-92.39
-93.57
-95.14
-97.56
-100.70
-103.94
-106.49
-107.59
-106.82
-104.03
-99.34
-93.03
-85.53
-77.37
-69.13
-61.47
-55.10
-50.84
-49.46
-51.33
-56.13
-62.72
-69.48
-74.66
-76.92
-75.59
-70.59
-62.21
-50.95
-37.39
-22.19
-6.24
9.43
23.79
35.97
45.59
52.84
58.33
62.76
66.81
70.86
74.86
78.42
80.83
81.21
78.93
73.67
65.56
55.08
43.08
30.61
18.81
8.58
0.46
-5.10
-7.74
-7.10
-3.06
3.93
12.84
22.26
30.66
36.89
40.65
42.33
42.69
42.30
40.99
38.00
32.32
23.29
11.11
-2.99
-17.08
-28.91
-36.41
-38.31
-34.27
-24.85
-11.26
4.67
20.64
33.96
42.22
44.14
39.83
30.77
19.24
7.33
-3.66
-13.56
-22.96
-32.36
-41.72
-50.59
-58.36
-64.62
-69.37
-72.68
-74.47
-74.34
-71.68
-66.13
-57.98
-47.99
-37.13
-26.14
-15.29
-4.53
5.97
15.46
22.53
25.61
23.88
17.77
9.11
0.43
-5.91
-8.51
-7.21
-2.78
3.71
11.35
19.47
27.63
35.53
42.93
49.65
55.55
60.34
63.41
63.70
60.12
52.34
41.44
29.98
21.31
18.28
22.04
31.57
44.21
56.76
66.74
73.03
75.63
75.12
71.97
66.54
59.15
50.49
41.91
35.36
33.00
36.52
46.46
61.53
78.62
93.39
101.52
100.40
90.30
74.57
58.61
47.95
46.08
53.34
66.91
82.38
95.62
104.35
108.19
107.70
102.94
92.55
73.86
43.80
0.27
-56.94
-126.22
-204.48
-287.38
-368.84
-440.68
-493.36
-518.21
-510.19
-470.17
-405.25
-326.43
-244.82
-168.11
-98.99
-36.03
23.65
81.98
138.54
191.14
237.45
276.39
308.38
334.36
354.62
368.09
372.77
366.85
349.98
323.98
292.06
257.25
220.98
182.79
141.02
94.33
42.97
-10.59
-61.80
-105.25
-135.88
-150.29
-147.57
-129.64
-100.79
-66.51
-31.88
-0.12
27.61
51.60
72.11
88.47
99.05
102.36
98.18
88.32
76.05
64.85
57.22
54.10
55.09
59.42
66.57
76.23
87.86
99.92
109.64
113.43
107.89
91.06
63.13
26.38
-15.55
-58.65
-99.38
-135.19
-164.46
-186.21
-200.02
-206.00
-204.99
-198.67
-189.48
-180.19
-173.49
-171.24
-173.99
-180.83
-189.71
-197.80
-202.08
-200.18
-190.89
-174.52
-152.78
-128.23
-103.53
-80.63
-60.13
-40.89
-20.58
3.76
34.55
72.63
116.55
162.36
204.33
236.30
253.40
253.32
236.90
207.63
170.38
130.14
90.97
55.90
27.10
6.18
-5.87
-9.00
-4.36
5.60
17.79
29.21
37.87
43.05
45.00
44.36
41.28
35.28
25.43
11.31
-6.41
-25.67
-43.61
-57.53
-65.42
-66.37
-60.28
-47.44
-28.32
-3.85
24.16
52.81
78.35
97.11
106.37
105.04
93.63
73.73
47.37
16.57
-16.74
-50.66
-83.06
-111.87
-135.30
-152.34
-162.80
-167.19
-166.21
-160.27
-149.50
-133.79
-113.32
-88.87
-62.02
-34.90
-9.73
11.74
28.60
40.79
48.98
54.12
57.01
58.04
57.20
54.37
49.57
43.27
36.33
29.63
23.79
18.81
14.38
10.10
5.86
1.95
-1.17
-3.19
-4.22
-4.76
-5.51
-6.85
-8.76
-10.74
-12.13
-12.40
-11.42
-9.43
-6.83
-4.12
-1.60
0.52
2.10
3.20
3.87
4.20
4.25
4.07
3.45
2.07
-0.47
-4.53
-10.18
-17.30
-25.69
-35.04
-44.94
-54.99
-64.62
-73.11
-79.59
-83.08
-82.77
-78.26
-69.64
-57.55
-43.02
-27.25
-11.39
3.54
16.73
27.57
35.72
41.28
44.62
46.38
47.32
47.93
48.38
48.66
48.69
48.54
48.36
48.17
47.80
47.00
45.41
42.82
39.36
35.36
31.33
27.69
24.62
22.06
19.79
17.50
14.91
11.99
8.89
5.89
3.26
1.08
-0.81
-2.74
-4.98
-7.61
-10.36
-12.78
-14.37
-15.03
-15.13
-15.45
-16.98
-20.45
-26.32
-34.65
-45.12
-57.06
-69.49
-81.13
-90.46
-96.00
-96.62
-91.86
-82.05
-68.25
-51.95
-34.69
-17.83
-2.36
11.14
22.37
31.18
37.51
41.36
42.80
42.15
39.95
36.75
32.94
28.58
23.47
17.34
10.07
1.83
-6.86
-15.23
-22.50
-28.00
-31.23
-31.87
-29.74
-24.92
-17.85
-9.27
-0.12
8.72
16.68
23.54
29.29
33.97
37.47
39.55
40.00
38.77
36.11
32.52
28.55
24.58
20.78
17.08
13.41
9.92
6.98
5.15
4.94
6.61
10.08
14.93
20.55
26.41
32.09
37.42
42.34
46.88
51.07
54.94
58.46
61.52
63.86
65.06
64.71
62.56
58.70
53.54
47.69
41.74
36.01
30.56
25.27
20.05
14.93
10.11
5.84
2.28
-0.56
-2.83
-4.73
-6.37
-7.72
-8.63
-8.95
-8.62
-7.74
-6.59
-5.37
-4.30
-3.43
-2.67
-1.97
-1.26
-0.50
0.28
0.95
1.40
1.33
0.32
-2.17
-6.72
-13.73
-23.24
-34.96
-48.42
-62.87
-77.43
-91.06
-102.68
-111.22
-115.73
-115.50
-110.26
-100.21
-86.08
-69.05
-50.53
-31.95
-14.60
0.64
13.25
23.06
30.08
34.53
36.69
37.08
36.39
35.23
34.13
33.33
32.87
32.62
32.43
31.98
30.91
28.98
26.05
22.28
18.11
14.20
11.11
9.20
8.41
8.47
9.00
9.69
10.37
10.98
11.50
11.90
12.18
12.40
12.67
13.04
13.47
13.78
13.84
13.56
13.03
12.44
11.99
11.84
11.99
12.25
12.28
11.69
10.16
7.57
4.04
-0.08
-4.32
-8.22
-11.48
-13.98
-15.77
-16.85
-17.22
-16.78
-15.43
-13.12
-9.95
-6.14
-2.14
1.49
4.14
5.35
4.96
3.19
0.63
-1.91
-3.69
-4.23
-3.42
-1.52
1.08
4.06
7.18
10.36
13.57
16.81
20.15
23.73
27.63
31.88
36.27
40.24
42.93
43.39
40.91
35.31
26.88
16.19
3.98
-8.98
-21.92
-33.95
-44.05
-51.08
-54.08
-52.58
-46.74
-37.34
-25.59
-12.72
0.21
12.46
23.51
32.99
40.49
45.72
48.57
49.13
47.81
45.16
41.70
37.73
33.46
28.94
24.34
19.82
15.47
11.34
7.43
3.66
-0.08
-3.85
-7.67
-11.46
-15.06
-18.21
-20.57
-21.81
-21.80
-20.55
-18.30
-15.33
-11.83
-7.87
-3.47
1.26
5.93
9.90
12.50
13.30
12.28
9.88
6.75
3.52
0.63
-1.76
-3.63
-4.95
-5.67
-5.74
-5.19
-4.21
-3.06
-2.01
-1.21
-0.68
-0.25
0.24
0.88
1.65
2.40
2.96
3.17
3.03
2.69
2.41
2.45
2.93
3.81
4.82
5.65
6.02
5.85
5.24
4.41
3.58
2.83
2.13
1.42
0.70
0.12
-0.03
0.40
1.33
2.44
3.25
3.38
2.74
1.58
0.25
-0.96
-2.06
-3.26
-4.83
-6.96
-9.52
-12.26
-14.79
-16.81
-18.13
-18.64
-18.29
-17.03
-14.90
-12.07
-8.77
-5.28
-1.83
1.42
4.39
6.97
9.07
10.60
11.56
12.07
12.34
12.55
12.77
12.98
13.04
12.91
12.64
12.37
12.19
12.03
11.73
11.05
9.91
8.39
6.76
5.28
4.03
2.93
1.75
0.36
-1.21
-2.68
-3.73
-4.05
-3.55
-2.41
-0.95
0.48
1.62
2.42
2.98
3.43
3.90
4.39
4.78
4.98
4.95
4.81
4.78
5.02
5.51
6.04
6.30
5.98
4.99
3.52
1.90
0.49
-0.52
-1.20
-1.76
-2.51
-3.67
-5.27
-7.14
-8.96
-10.37
-11.12
-11.13
-10.48
-9.34
-7.78
-5.78
-3.25
-0.22
3.06
6.12
8.39
9.51
9.47
8.61
7.48
6.51
5.92
5.65
5.48
5.21
4.74
4.11
3.43
2.81
2.31
1.89
1.49
0.95
0.13
-1.00
-2.37
-3.83
-5.17
-6.27
-7.14
-7.86
-8.55
-9.23
-9.79
-10.02
-9.73
-8.81
-7.40
-5.71
-4.01
-2.50
-1.23
-0.15
0.80
1.62
2.24
2.49
2.30
1.70
0.86
-0.02
-0.73
-1.19
-1.49
-1.74
-2.09
-2.66
-3.46
-4.36
-5.21
-5.85
-6.25
-6.60
-7.14
-8.07
-9.35
-10.70
-11.68
-11.97
-11.54
-10.63
-9.54
-8.46
-7.33
-5.88
-3.93
-1.56
0.86
2.84
4.01
4.36
4.21
3.98
4.01
4.34
4.67
4.66
4.05
2.88
1.44
0.14
-0.73
-1.13
-1.23
-1.36
-1.73
-2.41
-3.30
-4.25
-5.19
-6.21
-7.51
-9.32
-11.71
-14.44
-17.08
-18.98
-19.65
-18.83
-16.77
-13.96
-10.99
-8.26
-5.85
-3.56
-1.11
1.62
4.52
7.22
9.44
11.00
12.01
12.74
13.43
14.20
15.00
15.67
16.03
15.99
15.55
14.82
13.94
12.99
11.93
10.65
9.02
7.00
4.66
2.18
-0.30
-2.63
-4.73
-6.56
-8.02
-8.99
-9.30
-8.84
-7.63
-5.87
-3.84
-1.88
-0.19
1.19
2.37
3.52
4.79
6.16
7.43
8.24
8.15
6.93
4.53
1.30
-2.15
-5.10
-6.97
-7.50
-6.75
-5.09
-2.93
-0.62
1.65
3.78
5.62
6.98
7.73
7.82
7.41
6.84
6.47
6.52
7.05
7.90
8.85
9.76
10.57
11.35
12.16
13.03
13.89
14.62
14.97
14.79
13.90
12.24
9.81
6.71
3.07
-0.94
-5.19
-9.52
-13.77
-17.75
-21.24
-24.03
-25.96
-27.00
-27.28
-26.99
-26.33
-25.40
-24.22
-22.76
-21.11
-19.52
-18.31
-17.76
-17.95
-18.63
-19.37
-19.69
-19.28
-18.09
-16.29
-14.16
-11.91
-9.66
-7.40
-5.17
-3.03
-1.09
0.53
1.81
2.84
3.74
4.57
5.32
5.91
6.26
6.33
6.19
5.86
5.39
4.79
4.05
3.21
2.34
1.50
0.76
0.17
-0.28
-0.58
-0.77
-0.98
-1.40
-2.20
-3.38
-4.77
-5.95
-6.51
-6.21
-5.08
-3.37
-1.44
0.55
2.57
4.75
7.18
9.73
12.09
13.88
14.84
15.02
14.78
14.59
14.82
15.60
16.77
17.99
18.92
19.36
19.34
19.10
18.88
18.86
19.09
19.55
20.16
20.89
21.70
22.45
23.13
23.59
23.84
24.03
24.52
25.79
28.19
31.82
36.45
41.85
47.56
53.25
58.86
64.65
70.93
77.95
85.51
93.18
100.73
107.84
114.36
120.07
124.86
128.50
130.74
130.88
128.03
121.60
110.77
94.89
72.94
44.55
10.82
-25.08
-58.95
-88.18
-107.71
-113.97
-107.34
-92.74
-74.89
-56.10
-34.00
-6.28
26.51
60.62
89.68
104.93
97.14
60.58
-5.16
-94.64
-199.57
-311.00
-420.52
-521.64
-592.68
-615.28
-584.26
-511.86
-418.82
-323.76
-237.37
-162.78
-99.04
-43.45
4.14
42.95
72.47
94.13
110.08
121.17
127.73
130.70
132.78
136.21
143.49
152.96
164.60
175.56
180.99
177.20
163.99
145.06
124.69
106.16
90.88
79.07
69.86
62.48
57.08
54.20
54.24
56.15
58.15
58.66
57.48
55.46
54.09
54.60
56.63
57.86
54.54
43.55
24.28
-0.33
-25.24
-45.43
-57.92
-63.04
-63.67
-63.50
-65.19
-69.63
-75.98
-82.95
-90.11
-96.46
-101.32
-103.84
-102.99
-97.94
-88.42
-75.08
-59.41
-43.25
-28.13
-14.97
-3.88
5.62
14.19
22.17
29.36
35.24
39.23
41.23
41.55
40.77
39.52
38.05
36.14
33.36
29.39
24.25
18.48
12.79
7.85
4.02
1.29
-0.54
-1.75
-2.47
-2.72
-2.37
-1.18
0.96
3.94
7.39
10.63
12.76
13.21
11.33
6.95
0.53
-6.92
-14.05
-19.63
-22.95
-23.97
-23.20
-21.35
-18.75
-15.38
-10.87
-5.00
2.01
9.34
15.76
19.97
20.92
18.26
12.45
4.81
-2.71
-8.08
-9.98
-8.73
-6.61
-7.55
-15.64
-33.39
-60.38
-93.11
-126.44
-155.67
-178.36
-195.00
-208.15
-220.77
-234.76
-250.34
-266.36
-281.15
-292.99
-300.31
-301.48
-294.83
-278.91
-252.97
-217.43
-173.84
-124.56
-72.18
-19.09
32.75
81.68
126.18
164.90
196.71
220.88
237.24
246.28
248.99
246.60
240.35
231.20
219.79
206.66
192.40
177.68
163.24
149.62
137.01
125.29
114.21
103.64
93.66
84.66
76.99
70.83
65.96
61.76
57.32
51.65
43.94
33.96
22.20
9.92
-1.33
-10.30
-16.57
-20.62
-23.26
-24.88
-24.89
-21.87
-14.40
-1.92
14.61
32.98
50.62
65.53
76.88
84.93
90.41
93.96
95.82
95.93
94.15
90.52
85.40
79.31
72.86
66.56
60.85
56.05
52.39
49.88
48.27
46.95
45.05
41.66
36.17
28.60
19.64
10.29
1.37
-6.89
-14.93
-23.53
-33.33
-44.50
-56.65
-69.09
-81.22
-92.75
-103.66
-113.95
-123.52
-132.02
-139.17
-144.92
-149.64
-153.85
-157.97
-161.93
-165.10
-166.55
-165.29
-160.58
-151.83
-138.30
-118.99
-92.74
-58.99
-18.57
25.75
69.64
108.30
138.05
157.26
166.42
167.49
162.83
154.48
143.85
132.00
119.97
108.92
99.97
93.69
90.08
88.65
88.76
89.50
90.06
90.01
89.44
89.17
89.92
92.28
96.66
103.20
111.18
119.71
128.36
137.55
148.87
163.40
181.53
203.29
228.39
255.57
283.36
310.52
335.90
358.71
376.27
384.44
379.46
358.85
320.66
264.37
191.35
105.14
12.04
-81.87
-170.94
-248.97
-304.27
-326.38
-312.20
-268.37
-213.81
-158.45
-107.65
-65.23
-33.89
-13.52
-5.15
-8.71
-22.11
-41.07
-59.05
-70.79
-74.29
-68.96
-54.94
-33.66
-6.79
23.69
55.74
88.03
118.17
140.12
148.70
141.51
119.18
85.22
44.10
0.19
-42.39
-81.00
-119.49
-161.75
-209.11
-259.31
-307.89
-351.23
-388.25
-420.23
-450.34
-489.38
-546.72
-626.28
-724.65
-833.11
-941.85
-1042.93
-1130.95
-1158.14
-1091.90
-926.41
-689.89
-428.42
-181.76
28.49
196.78
326.53
425.02
493.30
532.65
547.03
545.04
537.10
531.81
533.60
542.79
557.10
567.83
566.95
550.38
520.05
481.62
441.57
405.19
374.72
351.02
330.63
309.77
286.22
260.13
232.85
204.84
180.66
161.68
148.46
139.58
134.05
131.91
134.40
142.93
157.97
178.88
202.52
225.38
243.13
252.16
250.62
238.71
218.26
192.32
164.90
139.25
118.57
105.15
99.69
101.45
108.38
117.04
123.40
123.33
112.94
89.88
53.55
5.07
-52.84
-116.16
-179.89
-238.67
-287.70
-323.20
-342.53
-344.40
-329.19
-298.64
-255.58
-203.38
-145.82
-86.77
-29.99
21.32
64.88
99.33
124.35
140.65
149.98
154.76
157.54
160.51
165.16
171.97
180.39
188.82
194.82
195.57
188.60
172.14
145.72
110.23
67.90
22.09
-23.37
-64.95
-100.19
-127.87
-148.30
-163.08
-174.84
-186.54
-200.84
-219.46
-242.67
-269.38
-297.12
-322.42
-341.44
-350.72
-347.71
-331.21
-301.54
-260.45
-210.77
-156.10
-100.50
-47.65
-0.80
37.75
66.81
86.14
96.52
99.48
97.02
91.04
83.35
75.51
68.53
63.04
59.17
56.92
56.25
57.13
59.05
61.31
62.85
62.08
57.29
46.81
29.53
5.14
-25.72
-61.94
-101.75
-143.28
-184.55
-223.49
-258.07
-285.96
-304.75
-312.41
-307.79
-291.08
-264.02
-229.59
-191.57
-154.40
-122.40
-99.31
-87.63
-87.59
-97.00
-111.51
-126.03
-136.11
-139.84
-137.96
-133.09
-128.30
-125.54
-125.22
-126.56
-128.59
-130.43
-131.82
-132.70
-132.89
-131.87
-129.00
-124.34
-118.83
-114.34
-112.95
-116.29
-125.11
-139.26
-157.81
-179.36
-202.69
-226.96
-251.73
-276.54
-300.57
-322.15
-338.66
-346.78
-342.84
-323.50
-286.18
-229.86
-155.75
-67.76
27.57
122.03
207.12
276.08
325.19
354.27
365.55
361.98
345.91
318.44
280.03
231.42
174.71
113.29
51.22
-7.81
-61.46
-108.68
-149.23
-183.03
-210.26
-232.11
-251.60
-273.19
-300.84
-335.67
-374.14
-408.85
-430.98
-434.18
-417.14
-383.83
-341.16
-295.58
-251.07
-208.80
-168.61
-130.79
-96.95
-69.46
-50.16
-39.31
-35.63
-37.20
-42.19
-49.41
-58.58
-69.67
-82.32
-95.48
-107.32
-115.84
-119.48
-117.55
-110.63
-100.31
-88.50
-76.90
-66.47
-57.36
-49.25
-41.51
-33.84
-26.34
-19.57
-14.15
-10.50
-8.80
-8.78
-9.89
-11.54
-13.34
-15.12
-16.93
-18.84
-20.94
-23.32
-25.85
-28.34
-30.54
-32.15
-32.76
-31.90
-29.09
-23.87
-15.77
-4.50
9.85
27.05
46.52
67.59
89.44
111.12
131.84
150.80
167.36
180.95
191.21
197.97
201.06
200.58
196.75
189.92
180.49
168.94
155.77
141.56
126.87
112.15
97.84
84.23
71.59
60.05
49.83
41.10
34.05
28.82
25.59
24.48
25.37
28.05
32.10
37.05
42.32
47.38
51.77
55.24
57.80
59.69
61.45
63.79
67.48
73.16
81.39
92.31
105.67
120.79
136.65
151.96
165.34
175.42
181.07
181.39
175.87
164.34
147.02
124.47
97.49
67.04
34.24
0.23
-33.86
-66.96
-98.05
-126.22
-150.65
-170.79
-186.20
-196.70
-202.37
-203.48
-200.45
-193.78
-184.09
-172.00
-158.08
-142.88
-126.98
-110.91
-95.15
-80.09
-66.06
-53.29
-41.81
-31.49
-22.12
-13.27
-4.48
4.80
14.97
26.28
38.77
52.26
66.99
82.86
99.32
115.30
129.64
141.29
149.85
155.41
158.56
160.84
163.78
168.52
175.43
184.24
194.37
205.11
215.56
224.71
233.20
241.32
248.59
253.48
254.06
248.88
237.48
220.41
198.95
179.47
167.31
165.04
171.57
183.17
195.86
206.99
215.50
221.46
235.36
265.76
316.01
382.38
456.27
529.19
595.70
653.80
703.73
762.25
843.13
951.55
1081.35
1218.50
1349.49
1465.86
1564.85
1647.57
1737.06
1852.55
2001.90
2177.91
2362.62
2538.33
2693.16
2822.01
2797.30
2542.39
2046.19
1376.72
646.25
-44.44
-635.68
-1109.35
-1473.38
-1747.38
-1933.13
-2034.23
-2060.65
-2028.94
-1967.44
-1898.85
-1836.06
-1783.28
-1739.73
-1687.30
-1610.88
-1504.19
-1370.25
-1223.30
-1078.72
-948.13
-837.60
-748.58
-670.22
-593.41
-515.86
-443.75
-388.72
-358.98
-355.19
-370.20
-392.64
-407.12
-403.74
-380.93
-344.29
-303.00
-263.93
-230.08
-201.59
-177.73
-156.71
-137.73
-120.76
-105.82
-92.93
-81.21
-69.63
-57.68
-45.74
-34.78
-25.84
-19.49
-15.34
-12.43
-9.45
-5.60
-0.91
3.76
7.16
8.13
6.11
1.33
-5.29
-12.41
-18.78
-23.53
-26.21
-26.60
-24.60
-19.99
-12.47
-1.74
12.37
29.57
48.98
69.16
88.57
105.43
118.08
125.23
126.18
120.76
109.47
93.31
73.46
51.87
30.38
10.55
-6.49
-20.10
-30.17
-37.07
-41.47
-44.38
-47.11
-50.32
-54.47
-59.77
-65.98
-72.50
-78.86
-83.83
-86.55
-86.46
-83.43
-77.70
-69.88
-60.79
-51.32
-42.33
-34.39
-27.94
-23.09
-19.68
-17.35
-15.64
-14.07
-12.23
-9.80
-6.45
-2.03
3.58
10.51
18.79
28.41
39.28
50.99
62.91
74.38
84.40
92.04
96.51
97.35
94.56
88.70
80.67
71.71
63.12
55.76
50.27
46.99
45.90
46.81
49.40
53.37
58.47
64.54
70.88
76.96
82.44
87.15
91.31
95.29
99.64
104.94
111.51
118.50
124.85
129.46
131.30
129.92
125.34
117.70
106.65
95.55
84.91
74.31
63.15
51.18
39.42
30.04
25.78
28.98
40.17
56.78
74.17
86.89
90.30
82.19
63.40
37.12
7.65
-21.60
-49.71
-77.73
-107.90
-142.47
-182.54
-227.32
-273.42
-314.26
-341.48
-347.13
-326.41
-280.74
-218.15
-151.73
-95.57
-60.23
-48.86
-56.96
-75.36
-94.05
-106.48
-110.98
-110.16
-108.93
-111.34
-118.02
-126.08
-130.73
-127.39
-114.72
-95.19
-74.18
-58.62
-52.28
-53.03
-53.56
-44.98
-20.44
19.89
69.71
119.37
157.92
179.54
185.29
180.01
166.69
145.49
111.17
58.85
-11.33
-96.83
-189.61
-277.62
-350.11
-402.34
-433.14
-447.86
-451.33
-445.41
-435.03
-423.69
-411.69
-398.58
-386.15
-375.90
-374.70
-388.91
-387.08
-354.34
-296.78
-232.30
-173.52
-141.67
-121.67
-102.12
-79.14
-54.51
-28.73
-7.82
6.49
17.12
28.01
44.55
65.53
88.11
110.22
126.78
134.07
132.87
126.64
118.47
112.26
107.56
103.79
101.42
99.07
95.55
91.79
89.83
91.17
97.51
107.67
120.25
134.29
147.96
159.42
168.19
174.75
179.88
185.06
190.74
197.33
205.07
213.24
220.48
225.69
228.67
230.45
233.46
240.14
251.96
268.31
286.13
300.42
306.10
299.26
277.88
242.03
193.93
137.99
80.88
30.94
-3.62
-17.21
-9.07
16.13
49.82
82.68
107.77
122.20
126.91
124.65
118.02
108.46
96.56
83.10
70.22
61.26
59.48
66.20
79.55
94.74
105.76
107.95
99.81
83.38
62.98
43.13
26.67
14.17
4.45
-4.26
-13.47
-23.72
-34.69
-45.23
-53.90
-59.54
-62.17
-63.28
-65.21
-70.04
-78.09
-87.81
-96.68
-102.74
-105.74
-107.05
-108.04
-108.60
-106.57
-99.00
-84.16
-62.65
-36.97
-9.72
17.81
45.58
73.12
97.53
113.25
113.69
94.38
55.54
2.59
-55.35
-108.33
-148.29
-170.58
-174.10
-160.72
-134.56
-101.19
-66.87
-37.04
-14.85
-0.48
8.88
17.43
28.69
43.85
61.11
76.78
87.09
90.09
86.32
78.34
69.15
60.55
52.35
43.00
30.77
14.91
-3.94
-24.26
-44.45
-63.08
-78.68
-89.18
-91.85
-84.13
-64.97
-35.90
-1.07
33.78
63.30
84.02
95.22
98.74
98.19
97.49
99.29
103.69
107.65
106.06
94.29
70.21
35.40
-5.60
-47.70
-87.69
-125.60
-163.69
-204.46
-248.49
-294.10
-337.93
-375.94
-403.95
-417.59
-412.78
-386.91
-340.85
-279.31
-211.40
-148.31
-100.20
-73.50
-69.44
-85.09
-114.40
-150.24
-183.39
-205.66
-211.27
-197.73
-166.02
-119.67
-64.74
-6.94
48.08
99.95
148.87
194.09
233.23
263.24
282.51
289.78
288.10
281.31
279.89
292.03
320.67
362.57
410.70
458.55
499.52
533.81
563.47
599.85
652.09
723.00
807.84
896.98
981.39
1051.53
1106.08
1087.26
960.40
726.13
424.53
111.23
-171.75
-383.83
-539.83
-655.98
-743.76
-801.27
-825.66
-820.96
-794.84
-757.99
-719.55
-688.33
-664.36
-645.88
-624.37
-592.99
-549.59
-497.10
-441.64
-388.50
-343.05
-304.30
-270.20
-234.95
-194.07
-146.23
-93.35
-39.43
12.01
57.26
96.55
131.04
163.75
197.00
231.44
265.99
299.05
330.02
359.56
390.48
424.46
460.13
491.37
508.71
503.20
470.77
414.40
343.15
268.53
199.48
139.30
85.94
34.79
-17.99
-73.53
-130.80
-187.49
-240.93
-287.65
-322.70
-340.33
-336.26
-310.52
-268.48
-219.74
-173.73
-135.87
-105.79
-78.39
-47.55
-9.36
36.50
87.11
137.41
181.12
211.73
224.18
217.33
195.36
167.05
142.11
126.24
118.28
112.04
101.46
85.90
71.09
64.40
67.87
74.70
71.33
44.61
-10.00
-85.52
-166.33
-235.30
-281.21
-301.86
-301.61
-287.06
-263.11
-230.64
-187.75
-131.70
-61.00
23.15
110.67
186.12
233.22
242.11
214.85
162.64
99.48
36.09
-22.73
-77.36
-129.70
-179.90
-227.63
-268.80
-298.74
-314.67
-316.61
-306.75
-288.03
-262.05
-224.27
-174.20
-113.96
-48.64
14.94
70.12
112.11
138.93
151.84
154.71
151.68
146.87
142.65
139.30
135.90
131.26
124.85
117.07
109.11
101.83
96.47
94.10
95.04
98.14
100.18
96.25
81.51
53.73
14.65
-29.33
-69.59
-98.86
-114.01
-116.67
-111.56
-103.58
-95.78
-88.94
-82.42
-75.83
-69.58
-64.77
-62.15
-61.44
-61.20
-59.60
-54.94
-46.35
-34.00
-18.52
-0.78
18.38
38.20
57.94
76.42
92.10
103.27
108.48
106.97
98.80
84.83
65.98
44.16
20.74
-3.05
-25.97
-46.58
-63.26
-74.85
-80.72
-81.18
-77.79
-72.76
-68.37
-66.52
-68.26
-73.27
-79.45
-83.07
-78.86
-63.15
-35.73
-0.78
34.11
60.57
72.91
69.90
54.82
33.42
11.37
-7.48
-21.53
-31.09
-37.78
-43.75
-50.99
-60.32
-70.17
-77.94
-80.16
-74.71
-61.99
-45.04
-27.54
-12.31
0.31
11.30
21.64
31.41
39.65
45.37
48.67
51.66
57.50
68.94
86.86
109.29
131.91
149.52
157.82
154.84
141.61
121.41
98.44
75.67
54.98
36.07
17.76
-0.90
-19.83
-37.93
-53.97
-66.90
-75.01
-76.18
-67.99
-49.20
-21.89
7.53
29.70
35.81
22.08
-8.14
-46.26
-82.13
-108.89
-124.38
-130.61
-130.85
-127.16
-119.28
-105.96
-87.32
-65.68
-44.90
-28.68
-19.02
-15.32
-15.18
-15.02
-12.12
-5.60
3.62
13.11
19.87
21.27
15.71
2.79
-16.12
-38.85
-62.88
-85.37
-103.87
-116.62
-122.38
-119.21
-108.42
-91.12
-68.45
-42.04
-13.62
14.72
40.53
61.39
75.09
80.27
76.27
63.17
41.66
13.82
-16.39
-43.43
-61.15
-64.90
-53.82
-31.10
-3.30
22.09
39.72
47.86
47.83
42.68
34.69
24.87
13.11
-0.63
-15.58
-30.07
-42.41
-52.09
-59.54
-66.41
-74.12
-83.79
-95.37
-107.88
-120.11
-131.33
-141.90
-152.61
-164.57
-177.61
-190.67
-201.71
-207.96
-206.77
-196.33
-175.93
-145.16
-108.57
-69.71
-31.64
3.05
33.47
59.32
80.50
96.46
106.55
110.14
107.31
98.30
83.21
64.54
44.42
23.79
1.90
-21.88
-46.95
-70.95
-90.65
-103.18
-101.70
-81.97
-44.87
3.27
53.78
99.10
134.41
157.38
167.28
172.67
181.43
196.53
215.36
233.57
249.52
265.37
285.82
315.82
369.56
457.26
579.39
725.94
882.08
1034.37
1173.05
1291.65
1322.48
1225.56
1007.95
722.19
430.27
172.53
-36.73
-198.97
-321.91
-414.07
-473.09
-497.33
-491.49
-467.17
-438.05
-414.37
-400.96
-399.03
-407.53
-417.15
-420.16
-414.76
-405.04
-397.43
-396.13
-400.97
-408.96
-416.17
-413.90
-395.53
-359.44
-309.47
-251.14
-192.09
-138.06
-92.52
-57.17
-29.69
-6.99
13.04
30.57
44.67
54.36
59.45
60.32
57.84
54.45
53.06
56.15
64.89
78.97
96.95
116.91
138.19
158.35
175.61
189.09
198.35
203.17
203.26
198.34
187.92
170.89
145.52
109.47
62.00
5.61
-53.26
-105.42
-141.55
-155.18
-144.87
-113.98
-70.87
-24.03
20.85
61.94
100.16
136.72
171.31
201.26
222.66
228.72
215.16
182.57
136.35
83.89
30.50
-20.20
-67.46
-113.09
-164.08
-225.94
-299.81
-382.31
-467.83
-551.48
-630.05
-701.51
-737.57
-719.31
-644.32
-528.74
-396.68
-268.06
-154.57
-60.73
13.30
69.75
108.05
128.80
134.92
131.56
124.63
118.46
115.78
118.16
126.38
137.63
149.09
159.02
167.30
174.77
181.67
187.53
191.57
193.13
189.48
178.26
158.35
129.37
94.94
58.61
23.23
-9.34
-37.84
-61.76
-79.54
-88.04
-83.62
-64.50
-32.93
5.04
41.61
70.12
86.83
91.63
87.14
76.93
63.72
48.90
33.28
17.75
3.39
-8.96
-19.40
-28.62
-37.07
-44.22
-48.81
-48.69
-41.90
-27.55
-6.49
18.19
41.28
56.52
58.26
43.05
13.06
-24.46
-59.67
-83.99
-92.84
-87.26
-72.21
-53.84
-36.49
-21.25
-6.19
11.78
34.76
62.81
93.74
123.48
146.81
159.23
158.56
146.50
127.64
107.41
89.38
73.14
54.88
29.72
-4.55
-45.55
-86.60
-119.49
-137.62
-137.25
-118.56
-85.01
-42.84
1.31
37.85
60.12
65.87
55.90
34.50
7.86
-17.63
-36.68
-45.47
-42.68
-29.51
-9.37
8.74
16.20
8.96
-10.57
-35.01
-55.54
-66.22
-65.78
-57.16
-45.57
-34.73
-25.92
-18.76
-12.54
-7.05
-2.66
0.64
3.97
8.85
17.28
30.71
48.98
70.30
92.16
111.55
126.11
134.52
136.33
132.16
122.84
109.04
90.64
69.00
45.35
21.13
-1.89
-21.98
-37.58
-48.02
-53.53
-54.80
-53.14
-50.20
-47.16
-44.75
-43.17
-42.23
-41.97
-42.62
-43.89
-45.87
-48.81
-52.63
-57.25
-63.07
-68.52
-72.77
-75.26
-75.26
-72.59
-66.91
-58.12
-46.57
-32.50
-16.16
1.60
19.92
37.63
53.28
65.39
72.75
74.28
69.73
60.08
46.57
31.21
16.10
3.25
-5.82
-9.75
-8.57
-2.26
9.14
24.70
43.19
62.23
78.86
90.29
94.79
90.91
79.76
63.75
46.19
30.57
18.74
10.69
4.97
-0.51
-8.55
-20.63
-33.18
-43.48
-50.47
-55.36
-61.37
-72.46
-84.28
-94.08
-100.98
-107.88
-116.43
-124.86
-127.32
-116.54
-88.52
-46.32
-1.76
29.56
29.95
-2.61
-60.11
-127.98
-190.46
-236.23
-260.82
-266.21
-243.66
-197.93
-136.18
-65.97
5.64
72.06
126.97
166.07
188.36
196.65
194.27
187.71
182.47
181.60
185.82
192.69
199.41
203.99
205.63
202.84
196.28
186.32
172.49
153.91
129.15
98.16
62.85
26.58
-7.91
-37.09
-58.93
-74.05
-78.60
-72.38
-56.61
-33.09
-4.36
25.75
53.90
76.42
89.79
91.76
81.07
58.90
28.37
-6.87
-44.17
-80.83
-116.08
-151.52
-190.62
-238.25
-298.11
-370.80
-453.11
-537.65
-610.86
-659.20
-674.25
-655.60
-610.30
-549.01
-481.73
-415.69
-354.66
-295.05
-233.00
-168.40
-105.27
-48.07
2.08
48.37
96.07
150.24
219.85
310.11
419.12
538.31
657.17
767.11
863.45
943.20
967.59
911.05
777.34
598.83
412.69
242.52
96.83
-22.76
-118.65
-195.24
-252.25
-290.09
-312.45
-327.87
-343.01
-360.58
-376.43
-385.48
-383.96
-366.47
-330.10
-275.98
-208.87
-134.03
-54.51
34.18
132.41
237.56
346.51
454.22
554.11
638.90
702.85
717.31
669.71
566.50
430.44
288.65
160.31
53.37
-32.80
-102.60
-161.09
-207.94
-242.45
-264.65
-277.18
-283.17
-284.83
-283.56
-279.67
-272.56
-257.59
-230.81
-190.39
-136.24
-74.11
-10.68
48.28
97.99
133.60
152.29
151.58
130.93
93.72
47.26
1.76
-33.56
-53.94
-60.45
-56.56
-46.65
-34.00
-19.82
-4.54
10.28
21.78
26.59
22.17
8.48
-12.61
-37.90
-62.73
-82.41
-92.03
-87.18
-65.82
-29.32
17.14
65.17
103.93
126.68
131.43
120.42
97.93
67.52
32.12
-5.27
-40.20
-67.36
-81.79
-82.70
-74.72
-65.69
-63.06
-69.36
-81.38
-91.95
-93.43
-80.74
-54.38
-18.56
21.53
61.81
100.12
133.24
154.99
160.21
152.02
134.08
110.09
82.43
50.66
12.05
-35.84
-94.00
-159.52
-225.58
-277.99
-302.98
-294.43
-257.85
-206.59
-153.66
-106.59
-66.62
-31.80
-0.87
25.35
44.81
56.09
60.04
59.45
57.68
57.69
60.93
66.94
74.00
80.14
84.29
87.00
89.69
93.54
98.65
104.54
108.93
109.25
103.48
90.78
71.55
46.99
18.65
-12.13
-44.08
-75.60
-104.20
-127.04
-141.31
-144.97
-137.41
-119.65
-94.40
-65.56
-37.55
-14.34
1.18
7.95
7.31
2.82
0.41
5.48
19.75
39.38
57.16
66.44
64.55
53.45
38.08
23.49
12.21
3.91
-3.04
-9.80
-16.08
-20.61
-22.32
-21.35
-18.88
-16.88
-17.33
-21.08
-27.65
-35.77
-44.18
-52.22
-60.21
-69.07
-79.78
-92.79
-107.85
-122.70
-134.35
-139.97
-137.65
-126.69
-107.65
-82.08
-52.28
-20.37
10.92
39.57
64.16
83.67
97.65
106.06
109.35
108.03
103.49
97.40
91.68
87.87
86.70
88.26
91.96
98.68
106.04
112.14
115.28
113.92
106.71
92.42
70.37
40.57
4.34
-36.16
-77.80
-116.87
-149.30
-171.95
-183.19
-183.10
-173.58
-157.00
-136.35
-114.90
-95.42
-78.90
-66.18
-58.32
-56.64
-63.00
-76.70
-95.89
-118.55
-142.31
-162.51
-175.98
-182.17
-182.83
-182.52
-181.47
-177.78
-172.81
-165.95
-152.38
-129.19
-97.01
-59.57
-24.44
7.97
40.12
74.78
115.56
170.40
243.48
332.59
429.54
519.44
595.32
653.36
690.80
668.18
566.70
396.70
192.73
20.42
-115.70
-221.30
-301.36
-366.20
-417.40
-449.37
-458.85
-447.78
-422.99
-397.15
-374.03
-354.16
-337.39
-322.31
-303.70
-278.47
-247.28
-214.29
-187.80
-169.14
-157.00
-149.48
-143.97
-135.88
-122.40
-103.51
-81.78
-62.60
-47.01
-34.22
-22.88
-11.06
3.92
23.51
47.35
73.44
98.17
120.21
139.52
156.85
173.67
191.74
212.11
234.66
258.32
281.21
302.43
321.85
339.95
357.76
376.50
397.53
422.11
450.70
482.01
512.33
535.75
545.67
537.07
508.64
463.46
408.00
349.76
294.83
246.66
206.10
172.55
145.07
122.84
104.92
89.86
75.69
60.41
42.82
22.93
1.86
-18.59
-36.76
-51.65
-63.11
-71.68
-78.19
-83.37
-87.63
-91.00
-93.24
-94.10
-93.53
-91.72
-89.16
-86.48
-84.30
-83.06
-82.88
-83.53
-84.60
-85.60
-86.18
-86.32
-86.26
-86.48
-87.44
-89.46
-92.50
-96.20
-99.77
-102.28
-102.87
-101.00
-96.68
-90.64
-84.23
-79.22
-77.30
-79.49
-85.90
-95.53
-106.59
-116.92
-124.62
-128.54
-128.37
-124.63
-118.28
-110.63
-102.97
-96.12
-90.31
-85.18
-80.06
-74.17
-66.82
-57.24
-45.14
-30.49
-13.21
6.72
29.07
53.01
77.32
100.90
123.65
145.33
165.74
184.93
202.91
219.53
234.02
245.65
254.30
261.51
268.37
275.48
283.50
293.21
305.23
318.98
332.37
341.77
342.96
329.48
294.92
236.00
154.31
55.71
-51.84
-160.43
-268.37
-364.07
-433.59
-469.13
-473.11
-454.31
-422.38
-384.95
-347.03
-310.82
-276.20
-243.52
-213.49
-186.52
-161.77
-137.82
-113.39
-87.71
-60.28
-30.71
-1.04
25.02
43.63
52.33
50.29
38.26
16.77
-9.75
-36.54
-60.72
-81.37
-98.67
-112.97
-124.70
-134.42
-142.73
-149.61
-154.00
-153.54
-144.82
-124.81
-92.82
-52.04
-9.06
28.67
55.83
70.92
76.25
76.03
73.98
71.77
69.04
64.85
59.18
53.48
49.77
49.51
52.66
57.71
62.37
64.54
63.44
59.77
55.25
51.65
50.01
50.23
51.52
52.57
51.94
48.15
39.58
24.83
3.41
-23.48
-52.90
-80.33
-101.10
-111.92
-111.98
-102.87
-87.74
-69.91
-52.00
-35.62
-21.68
-10.81
-3.50
0.15
0.68
-0.71
-2.51
-3.37
-2.64
-0.43
2.47
5.08
6.62
6.77
5.68
3.82
1.85
0.36
-0.27
0.10
1.26
2.75
4.12
5.12
5.76
6.43
7.48
9.16
11.33
13.58
15.36
16.29
16.34
15.73
14.71
13.34
11.42
8.60
4.62
-0.43
-6.07
-11.42
-15.55
-17.72
-17.58
-15.19
-10.90
-4.87
2.34
9.93
16.88
22.11
24.66
24.06
20.58
15.24
9.52
4.69
1.58
0.27
0.19
0.50
0.39
-0.64
-2.74
-5.71
-9.18
-12.60
-15.29
-16.67
-16.36
-14.37
-11.11
-7.25
-3.46
-0.26
2.23
4.19
5.90
7.61
9.38
11.13
12.70
13.95
14.73
14.90
14.35
12.96
10.78
8.00
4.88
1.70
-1.33
-4.12
-6.61
-8.69
-10.25
-11.12
-11.26
-10.74
-9.74
-8.47
-7.15
-5.96
-5.15
-4.96
-5.56
-6.97
-8.87
-10.75
-12.03
-12.36
-11.67
-10.26
-8.58
-6.92
-5.37
-3.71
-1.74
0.59
3.03
5.20
6.75
7.58
7.81
7.73
7.67
7.76
8.02
8.32
8.50
8.40
7.92
7.06
5.93
4.82
3.98
3.59
3.57
3.62
3.40
2.71
1.62
0.33
-0.88
-1.96
-2.99
-4.04
-5.07
-5.78
-5.79
-4.81
-2.90
-0.45
2.08
4.31
6.17
7.72
8.99
9.77
9.65
8.39
6.11
3.39
1.02
-0.38
-0.74
-0.51
-0.31
-0.53
-1.09
-1.56
-1.56
-1.06
-0.44
-0.21
-0.64
-1.59
-2.65
-3.46
-3.99
-4.64
-5.95
-8.28
-11.57
-15.32
-18.83
-21.51
-23.06
-23.50
-23.07
-21.95
-20.30
-18.10
-15.36
-12.11
-8.51
-4.80
-1.34
1.56
3.60
4.63
4.75
4.30
3.78
3.72
4.45
5.93
7.79
9.46
10.54
10.88
10.69
10.26
9.80
9.22
8.34
6.98
5.13
2.92
0.59
-1.69
-3.87
-5.93
-7.84
-9.49
-10.78
-11.70
-12.34
-12.86
-13.38
-13.91
-14.33
-14.47
-14.16
-13.26
-11.59
-9.13
-5.95
-2.39
1.02
3.73
5.37
5.92
5.71
5.19
4.71
4.39
4.19
4.00
3.81
3.70
3.78
4.06
4.45
4.74
4.78
4.57
4.34
4.41
5.04
6.24
7.66
8.67
8.53
6.65
2.81
-2.70
-8.98
-14.78
-18.76
-19.97
-18.21
-14.11
-8.86
-3.65
0.70
4.03
6.56
8.56
10.12
11.05
11.25
10.90
10.51
10.64
11.46
12.55
13.03
12.06
9.23
4.87
-0.12
-4.67
-7.91
-9.47
-9.42
-8.15
-6.22
-4.23
-2.76
-2.36
-3.32
-5.54
-8.42
-10.85
-11.60
-9.79
-5.22
1.45
8.96
15.85
21.00
23.91
24.83
24.45
23.55
22.80
22.46
22.42
22.27
21.57
20.01
17.56
14.47
11.11
7.84
4.89
2.36
0.33
-1.02
-1.48
-0.84
0.82
3.10
5.43
7.27
8.37
8.90
9.30
10.04
11.34
13.03
14.57
15.33
14.75
12.63
9.16
4.72
-0.17
-5.07
-9.69
-13.82
-17.20
-19.67
-21.01
-21.16
-20.29
-18.74
-16.93
-15.13
-13.42
-11.64
-9.61
-7.23
-4.63
-2.11
-0.01
1.46
2.33
2.87
3.52
4.67
6.48
8.85
11.40
13.64
15.12
15.61
15.11
13.84
12.09
10.10
8.00
5.79
3.52
1.28
-0.80
-2.61
-4.24
-5.90
-7.90
-10.35
-13.12
-15.82
-17.95
-19.11
-19.19
-18.30
-16.74
-14.71
-12.31
-9.56
-6.53
-3.46
-0.74
1.26
2.35
2.68
2.66
2.77
3.32
4.24
5.16
5.64
5.44
4.68
3.79
3.23
3.22
3.63
4.09
4.22
3.85
3.06
2.04
0.93
-0.24
-1.61
-3.26
-5.12
-7.05
-8.90
-10.59
-12.16
-13.57
-14.74
-15.37
-15.17
-13.96
-11.86
-9.27
-6.71
-4.58
-3.08
-2.21
-1.80
-1.66
-1.57
-1.34
-0.75
0.31
1.79
3.49
5.07
6.28
7.00
7.36
7.60
7.91
8.37
8.82
9.01
8.69
7.74
6.20
4.25
2.12
-0.00
-1.98
-3.83
-5.67
-7.58
-9.61
-11.72
-13.79
-15.70
-17.32
-18.52
-19.10
-18.78
-17.28
-14.45
-10.40
-5.55
-0.57
3.81
7.11
9.16
10.13
10.35
10.09
9.54
8.85
8.17
7.71
7.66
8.01
8.59
9.06
9.11
8.63
7.69
6.52
5.25
3.87
2.28
0.42
-1.64
-3.77
-5.87
-8.09
-10.71
-13.91
-17.58
-21.31
-24.46
-26.51
-27.34
-27.22
-26.62
-25.98
-25.36
-24.59
-23.49
-22.10
-20.71
-19.71
-19.31
-19.38
-19.54
-19.46
-19.17
-19.07
-19.74
-21.53
-24.35
-27.65
-30.69
-32.93
-34.18
-34.66
-34.71
-34.60
-34.45
-34.19
-33.51
-32.00
-29.09
-24.11
-16.51
-5.97
7.32
22.66
38.95
54.96
69.53
81.80
91.34
98.02
102.08
103.92
104.02
102.99
101.37
99.51
97.41
94.76
91.01
85.68
78.65
70.31
61.48
53.05
45.68
39.57
34.43
29.73
24.97
19.91
14.52
8.98
3.50
-1.71
-6.47
-10.72
-14.50
-17.97
-21.33
-24.75
-28.31
-32.02
-35.78
-39.39
-42.66
-45.25
-46.78
-46.81
-45.10
-41.74
-37.16
-32.06
-27.14
-22.88
-19.47
-16.89
-15.00
-13.65
-12.63
-11.66
-10.46
-8.78
-6.54
-3.84
-0.94
1.88
4.38
6.39
7.78
8.32
7.76
5.95
3.00
-0.64
-4.34
-7.35
-9.16
-9.53
-8.60
-6.86
-4.91
-3.42
-2.84
-3.28
-4.46
-5.73
-6.32
-5.62
-3.46
-0.19
3.48
6.78
9.24
10.81
11.81
12.74
13.97
15.64
17.65
19.73
21.61
23.22
24.55
25.68
26.61
27.14
26.96
25.76
23.47
20.23
16.28
11.89
7.23
2.61
-1.39
-3.82
-3.77
-0.86
4.27
10.11
14.80
16.99
16.45
13.97
10.86
8.21
6.26
4.55
2.38
-0.57
-3.96
-6.92
-8.51
-8.11
-5.62
-1.54
3.48
8.84
14.02
18.40
21.10
21.10
17.67
10.93
1.49
-9.42
-20.41
-30.51
-39.68
-48.64
-58.12
-67.79
-75.81
-80.55
-81.01
-77.40
-70.79
-62.37
-52.34
-39.35
-20.51
7.50
44.77
88.52
133.89
176.07
211.37
237.41
252.16
253.54
239.63
206.68
151.73
74.41
-21.78
-130.30
-243.42
-354.64
-459.22
-538.21
-573.32
-553.30
-481.39
-373.95
-251.41
-129.26
-16.03
85.35
174.81
250.51
309.91
350.44
373.79
383.03
382.13
374.28
362.02
347.16
329.23
307.24
280.62
250.39
218.56
190.55
170.00
158.44
154.86
155.17
153.96
146.18
129.13
102.89
70.37
35.69
3.74
-20.81
-34.67
-36.06
-24.64
-1.01
33.16
75.25
121.15
165.61
202.69
226.44
232.07
217.08
182.18
131.01
69.43
3.66
-60.81
-120.38
-173.52
-220.34
-262.21
-301.08
-339.06
-377.78
-417.39
-455.38
-486.37
-503.56
-501.59
-479.57
-442.09
-397.79
-355.80
-322.32
-299.07
-284.35
-275.90
-273.34
-278.39
-292.88
-316.28
-344.46
-370.78
-388.58
-393.64
-385.07
-364.44
-334.39
-297.06
-253.74
-205.45
-153.57
-100.08
-47.02
4.21
53.30
100.34
144.90
184.94
216.75
236.14
240.08
228.31
203.60
170.74
134.51
98.20
63.28
30.21
-0.03
-25.33
-42.87
-50.60
-48.46
-38.75
-24.89
-9.70
5.66
21.68
39.15
57.64
75.00
88.19
94.92
95.19
91.46
87.43
86.32
89.26
95.15
101.66
106.93
110.70
114.27
119.26
126.09
133.29
137.83
136.77
128.79
115.07
98.89
84.34
74.74
71.41
73.47
78.40
83.23
85.66
84.75
80.98
75.78
70.72
66.84
64.23
62.21
59.98
57.13
53.85
50.61
47.65
44.65
40.78
35.33
28.06
19.61
11.17
3.94
-1.32
-4.61
-6.56
-8.18
-10.38
-13.83
-18.68
-24.68
-31.13
-37.15
-41.91
-44.81
-45.71
-44.80
-42.47
-39.04
-34.61
-29.16
-22.72
-15.57
-8.30
-1.64
3.93
8.28
11.64
14.31
16.31
17.35
16.94
14.78
11.12
6.82
3.05
0.92
1.00
3.13
6.44
9.57
11.05
9.89
5.96
0.24
-5.39
-8.82
-8.66
-5.00
0.33
4.41
4.52
-0.58
-9.86
-20.12
-27.10
-26.96
-17.73
0.01
23.29
47.76
69.04
84.03
91.63
92.70
89.42
84.19
78.78
73.91
69.33
64.26
57.97
50.09
40.69
30.23
19.50
9.43
1.00
-5.06
-8.52
-9.70
-9.49
-9.09
-9.65
-11.87
-15.88
-21.32
-27.55
-33.96
-40.18
-46.09
-51.59
-56.22
-58.92
-58.04
-51.91
-39.53
-21.16
1.47
25.56
47.86
65.34
75.62
77.28
70.10
55.29
35.51
14.33
-4.76
-19.57
-29.72
-36.49
-41.55
-45.53
-47.31
-44.48
-34.91
-18.49
1.72
20.06
30.16
27.47
11.34
-14.48
-43.04
-66.66
-79.46
-79.06
-66.72
-46.17
-21.79
2.95
26.03
46.47
63.53
76.10
82.59
81.53
72.19
55.23
32.88
8.57
-13.84
-30.92
-40.37
-41.31
-34.14
-20.11
-0.94
21.42
44.64
65.91
82.09
90.05
87.65
74.50
52.59
25.93
-0.32
-21.18
-33.08
-34.53
-26.25
-10.66
8.84
28.57
45.08
55.89
59.92
58.05
53.22
49.98
53.14
66.23
89.92
121.49
155.43
185.21
205.37
213.22
209.50
197.68
182.45
167.93
156.55
148.61
143.00
138.01
132.35
125.45
117.45
108.88
100.29
92.38
85.94
81.87
80.69
81.91
83.60
82.60
75.28
58.49
30.73
-7.57
-54.21
-105.90
-159.28
-211.86
-262.59
-311.63
-359.15
-403.73
-441.31
-465.50
-469.51
-448.99
-404.34
-341.22
-268.73
-196.28
-130.53
-74.36
-27.32
12.73
47.86
79.58
109.00
137.53
166.75
197.65
229.36
258.50
279.78
287.38
277.30
249.18
207.06
158.71
113.47
79.53
61.57
59.75
70.32
87.35
105.00
119.11
127.88
131.14
129.17
121.54
106.56
81.77
44.97
-4.67
-66.27
-137.34
-214.43
-293.65
-370.61
-439.49
-492.38
-519.91
-513.55
-469.07
-389.42
-285.00
-170.73
-61.25
33.49
110.42
172.27
224.27
270.67
312.76
349.02
376.43
392.30
395.45
386.48
367.23
340.11
307.67
272.50
237.12
203.75
173.96
147.89
123.80
98.39
68.11
30.93
-12.25
-57.66
-100.33
-136.11
-163.57
-184.38
-202.21
-221.32
-245.29
-276.58
-316.19
-362.91
-412.54
-457.64
-488.57
-495.71
-472.80
-419.50
-342.21
-252.49
-163.80
-87.49
-29.91
8.66
32.69
48.50
61.50
74.93
90.41
109.18
132.82
162.37
196.43
229.50
252.08
254.13
229.87
181.45
119.24
57.99
11.10
-14.34
-18.91
-9.04
6.95
22.32
33.37
39.01
39.34
34.30
23.53
7.03
-13.95
-36.35
-55.83
-68.06
-70.24
-61.93
-45.26
-23.97
-1.74
18.94
37.20
53.20
67.09
78.32
85.72
88.04
84.70
76.35
64.64
51.69
39.50
29.45
22.19
17.82
16.06
16.49
18.57
21.58
24.63
26.74
27.13
25.49
22.12
17.74
13.11
8.65
4.28
-0.45
-5.96
-12.36
-19.27
-26.10
-32.31
-37.60
-41.97
-45.53
-48.42
-50.66
-52.33
-53.51
-54.46
-55.42
-56.62
-58.10
-59.77
-61.50
-63.15
-64.67
-65.98
-66.99
-67.48
-67.16
-65.86
-63.45
-60.05
-55.80
-50.87
-45.32
-39.28
-32.94
-26.60
-20.72
-15.61
-11.56
-8.64
-6.82
-5.91
-5.49
-4.93
-3.45
-0.45
4.15
9.55
14.40
17.09
16.67
13.44
8.98
5.60
5.20
8.36
13.84
19.18
21.74
20.07
14.59
7.58
2.21
1.28
6.18
16.48
30.38
45.41
59.09
69.50
75.45
77.22
76.96
78.72
87.13
105.10
131.13
158.04
174.58
170.02
139.87
89.08
31.13
-17.21
-42.80
-40.68
-14.24
28.73
80.83
137.57
196.06
251.81
296.74
320.52
314.73
277.52
215.09
139.34
63.34
-2.59
-52.22
-82.27
-91.04
-78.24
-46.27
-1.83
44.22
79.57
94.34
84.00
49.79
-3.48
-70.37
-147.30
-232.44
-323.96
-417.77
-506.62
-581.33
-633.39
-657.62
-653.51
-624.72
-577.09
-516.58
-447.87
-374.46
-299.43
-226.01
-157.57
-96.57
-43.10
5.86
55.52
110.70
172.72
237.46
295.82
336.53
350.54
334.84
293.57
236.21
173.49
113.38
59.06
9.32
-39.32
-90.32
-145.53
-204.33
-263.31
-316.41
-355.89
-374.39
-367.71
-336.87
-288.21
-231.60
-176.96
-131.22
-96.84
-72.30
-53.66
-36.58
-17.72
4.37
28.91
53.19
73.20
85.11
86.89
79.53
67.04
55.52
51.15
58.17
77.54
106.41
138.96
168.11
187.57
193.72
186.68
170.10
149.79
131.77
120.49
117.97
123.72
135.01
147.64
156.86
158.53
150.23
132.01
106.23
76.71
47.41
21.44
0.81
-13.06
-18.65
-14.22
1.81
30.08
69.86
119.09
174.80
233.48
291.01
342.60
383.08
407.87
414.31
402.56
375.54
337.78
293.90
247.53
201.06
156.14
114.03
75.65
40.98
8.54
-24.59
-61.62
-104.86
-154.91
-210.50
-269.51
-330.09
-391.10
-451.85
-511.58
-568.87
-621.69
-667.74
-704.55
-729.54
-739.99
-733.54
-709.08
-667.81
-613.46
-551.67
-488.28
-427.57
-371.36
-319.34
-270.20
-222.72
-176.29
-130.71
-85.62
-40.24
6.47
54.93
104.42
152.94
197.51
235.46
265.26
287.07
302.32
312.89
319.94
323.56
323.11
318.11
309.18
298.07
286.90
276.79
267.13
255.70
239.97
218.47
191.68
161.92
132.35
105.90
84.69
70.03
62.50
61.89
66.73
73.95
79.38
79.16
71.59
58.05
42.41
29.27
21.71
20.04
21.93
24.11
24.07
21.16
16.46
11.63
7.82
5.12
3.05
1.37
0.89
3.42
10.70
22.71
36.55
47.12
49.15
40.05
21.48
-1.22
-21.58
-34.96
-39.85
-37.70
-31.12
-22.62
-14.24
-8.08
-6.64
-12.10
-24.70
-40.99
-54.16
-56.07
-40.67
-6.87
40.64
92.87
139.77
173.53
191.02
193.74
186.26
173.68
159.56
145.32
131.28
118.28
108.21
103.51
105.30
112.07
119.91
124.27
122.40
114.53
103.37
92.12
82.57
74.33
65.71
55.20
42.64
29.32
17.07
6.99
-1.01
-7.98
-15.05
-22.65
-30.27
-37.05
-42.27
-45.84
-48.15
-49.73
-50.69
-50.84
-49.87
-47.75
-44.98
-42.25
-40.07
-38.33
-36.45
-33.74
-29.83
-24.75
-18.77
-12.27
-5.64
0.59
5.52
8.04
7.30
3.16
-3.40
-10.48
-15.79
-17.38
-14.22
-6.73
3.33
13.27
20.18
22.05
18.37
10.32
0.04
-10.36
-19.64
-27.52
-34.09
-39.10
-41.56
-40.19
-34.32
-24.78
-13.88
-4.60
0.67
1.09
-2.54
-8.50
-15.07
-21.10
-26.04
-29.53
-31.10
-30.22
-26.56
-20.48
-12.98
-5.55
0.39
4.02
5.20
4.29
1.90
-1.33
-4.73
-7.64
-9.30
-9.14
-6.96
-3.19
0.99
4.04
4.52
1.64
-4.38
-12.37
-20.57
-27.29
-31.39
-32.57
-31.30
-28.49
-25.11
-21.92
-19.12
-16.39
-13.15
-8.92
-3.82
1.22
4.65
5.07
2.18
-2.70
-6.88
-7.49
-2.85
6.63
18.58
29.80
37.64
41.13
40.93
38.35
34.32
28.87
21.33
11.34
-0.50
-12.46
-22.34
-28.56
-30.92
-30.33
-27.92
-23.99
-17.51
-6.69
9.46
30.03
51.87
70.40
81.28
81.79
71.38
51.33
24.06
-7.55
-40.37
-71.01
-95.96
-112.16
-117.74
-112.39
-97.29
-74.44
-46.16
-14.93
16.53
45.20
68.24
84.08
93.29
98.71
104.15
112.37
123.41
134.43
141.22
140.52
131.52
115.86
96.23
74.61
51.77
27.96
4.80
-13.90
-22.61
-16.37
6.23
41.37
80.76
114.07
132.64
132.55
115.34
86.95
54.70
24.52
-0.64
-20.64
-36.65
-49.44
-58.55
-62.81
-61.37
-54.75
-44.88
-34.49
-25.86
-20.39
-18.45
-19.83
-24.59
-33.21
-46.04
-62.66
-81.24
-98.80
-112.23
-119.27
-119.43
-113.91
-104.57
-92.98
-79.93
-65.50
-49.99
-34.59
-21.85
-14.95
-16.64
-27.88
-46.90
-69.31
-89.15
-100.23
-97.76
-79.89
-48.19
-7.48
34.96
70.80
92.64
96.13
81.50
53.86
22.12
-3.70
-15.83
-11.31
7.20
32.45
55.12
66.80
62.90
43.95
15.29
-15.14
-39.73
-53.76
-56.68
-51.62
-43.90
-39.23
-42.10
-54.75
-76.97
-105.86
-136.08
-161.31
-175.94
-176.74
-163.90
-140.68
-111.71
-81.23
-52.14
-26.30
-5.14
10.11
18.69
20.88
18.13
12.63
6.49
1.18
-2.38
-3.45
-0.99
6.12
18.71
36.78
59.20
83.67
107.06
126.04
137.87
141.20
136.45
125.77
112.22
98.56
86.16
74.76
63.44
51.82
41.20
34.28
33.84
41.04
54.38
70.20
84.46
94.60
100.52
103.90
106.53
108.77
109.35
106.51
99.81
91.13
83.94
81.47
84.68
91.50
97.70
98.59
90.93
74.09
49.92
21.85
-6.05
-29.74
-45.65
-51.21
-45.46
-29.78
-7.75
15.63
35.68
49.75
58.12
63.42
68.98
76.82
86.33
94.73
98.48
95.21
85.06
70.83
56.79
47.19
44.91
50.60
62.33
76.00
86.69
90.48
85.99
75.12
62.04
51.05
44.41
41.27
38.05
30.18
14.13
-11.13
-43.48
-78.32
-110.00
-133.71
-147.12
-151.14
-149.32
-146.29
-145.87
-149.67
-157.00
-165.86
-174.41
-181.47
-186.54
-189.40
-190.10
-189.31
-188.85
-191.53
-200.08
-215.75
-237.17
-260.40
-279.97
-290.43
-287.60
-269.20
-234.60
-184.22
-119.76
-44.96
33.71
106.99
164.20
196.12
198.30
173.07
129.19
78.77
33.19
-0.45
-20.34
-28.27
-27.15
-19.11
-5.53
11.64
28.97
42.18
47.77
44.82
34.98
21.21
5.82
-10.56
-28.70
-49.58
-73.15
-97.92
-121.24
-139.99
-151.12
-151.93
-140.75
-117.52
-84.81
-47.64
-12.06
17.35
39.74
58.44
79.42
108.05
146.13
190.47
233.62
266.72
282.91
279.21
256.72
219.14
170.83
116.07
59.41
6.24
-37.96
-69.60
-88.72
-99.48
-108.11
-119.33
-133.87
-148.71
-159.57
-164.14
-163.80
-162.51
-164.06
-169.50
-176.83
-182.61
-184.32
-181.28
-173.98
-162.49
-145.28
-119.87
-84.80
-41.61
5.08
49.14
85.67
112.95
132.72
148.45
162.99
177.10
189.36
197.39
199.61
195.73
186.28
171.91
152.80
129.03
101.42
72.11
44.33
21.08
3.92
-7.62
-15.52
-22.10
-28.91
-36.11
-42.73
-47.33
-48.68
-46.08
-39.26
-27.97
-11.92
8.98
33.90
60.54
85.21
103.98
114.36
116.82
115.02
114.36
119.38
131.37
147.65
162.93
172.04
172.48
165.22
153.49
140.55
127.63
113.76
96.88
75.98
52.33
29.13
10.07
-2.53
-8.60
-10.01
-9.28
-8.40
-8.11
-8.20
-8.30
-8.43
-9.16
-11.23
-14.96
-20.05
-25.70
-31.05
-35.61
-39.42
-42.78
-45.81
-48.26
-49.63
-49.46
-47.78
-45.12
-42.29
-40.04
-38.69
-38.09
-37.77
-37.36
-36.71
-36.08
-35.95
-36.76
-38.61
-41.09
-43.47
-44.97
-45.19
-44.27
-42.80
-41.41
-40.43
-39.69
-38.64
-36.79
-34.02
-30.73
-27.68
-25.60
-24.78
-24.95
-25.58
-26.13
-26.52
-27.10
-28.36
-30.60
-33.59
-36.73
-39.37
-41.29
-42.71
-44.06
-45.56
-47.07
-48.38
-49.78
-52.22
-56.81
-63.99
-72.85
-81.35
-87.38
-90.09
-90.47
-90.81
-93.33
-98.88
-106.56
-114.62
-121.86
-128.31
-134.79
-141.47
-146.68
-146.98
-138.53
-119.11
-89.46
-52.83
-13.60
24.58
59.55
90.51
117.13
139.03
155.95
168.36
177.68
185.80
194.08
202.50
209.58
213.16
211.45
203.73
190.46
172.75
151.87
129.01
105.31
82.03
60.68
42.93
30.10
22.79
20.57
21.77
24.09
25.33
24.12
20.35
15.00
9.45
4.79
1.47
-0.76
-2.48
-4.30
-6.76
-10.41
-15.95
-24.03
-35.19
-49.49
-66.64
-86.18
-107.52
-129.84
-151.66
-170.61
-183.62
-187.75
-181.21
-164.24
-139.00
-108.81
-76.82
-44.93
-13.71
17.12
47.71
77.35
104.42
127.05
143.94
154.89
160.79
162.84
161.76
157.34
148.61
134.57
115.11
91.44
65.88
41.10
19.14
0.87
-13.92
-26.06
-36.32
-45.14
-52.74
-59.55
-66.25
-73.61
-81.94
-90.68
-98.40
-103.25
-103.66
-98.96
-89.54
-76.58
-61.62
-46.10
-31.29
-18.32
-8.18
-1.55
1.44
1.44
-0.21
-1.91
-2.31
-0.74
2.78
7.63
13.05
18.38
23.30
27.76
31.93
36.01
40.00
43.65
46.55
48.35
49.07
49.18
49.55
50.98
53.85
57.93
62.45
66.59
69.77
71.69
72.15
70.83
67.29
61.39
53.64
45.33
38.18
33.47
31.37
30.69
29.61
26.62
21.41
15.04
9.36
5.93
5.15
6.15
7.28
6.96
4.45
-0.01
-5.58
-11.39
-17.04
-22.65
-28.55
-34.81
-41.05
-46.47
-50.13
-51.38
-50.00
-46.32
-41.05
-35.14
-29.59
-25.22
-22.44
-21.27
-21.28
-21.84
-22.40
-22.66
-22.63
-22.55
-22.69
-23.14
-23.88
-24.74
-25.66
-26.76
-28.25
-30.33
-32.99
-35.96
-38.68
-40.58
-41.21
-40.49
-38.75
-36.58
-34.51
-32.80
-31.35
-29.80
-27.69
-24.70
-20.65
-15.58
-9.57
-2.80
4.51
12.05
19.41
26.28
32.31
37.24
40.77
42.63
42.67
40.92
37.73
33.68
29.43
25.43
21.85
18.53
15.15
11.39
7.07
2.22
-2.93
-7.97
-12.45
-15.90
-18.01
-18.69
-18.12
-16.62
-14.64
-12.55
-10.71
-9.32
-8.51
-8.27
-8.43
-8.65
-8.44
-7.33
-4.96
-1.29
3.36
8.41
13.09
16.66
18.63
18.84
17.47
14.85
11.45
7.63
3.82
0.34
-2.59
-4.88
-6.59
-8.01
-9.35
-10.70
-12.02
-13.14
-13.88
-14.15
-13.99
-13.40
-12.35
-10.74
-8.50
-5.66
-2.43
0.81
3.64
5.69
6.81
7.06
6.62
5.76
4.70
3.54
2.33
1.05
-0.18
-1.19
-1.77
-1.84
-1.59
-1.49
-2.02
-3.46
-5.66
-8.02
-9.86
-10.72
-10.69
-10.22
-10.03
-10.52
-11.63
-12.80
-13.30
-12.55
-10.39
-7.09
-3.23
0.55
3.77
6.27
8.14
9.66
11.05
12.38
13.50
14.16
14.20
13.75
13.24
13.03
13.23
13.44
12.93
11.07
7.83
3.86
0.30
-1.89
-2.41
-1.65
-0.48
0.34
0.44
-0.09
-0.92
-1.84
-2.84
-4.08
-5.56
-7.04
-8.04
-8.04
-6.73
-4.17
-0.71
3.12
6.79
9.95
12.47
14.41
16.02
17.51
18.98
20.32
21.28
21.60
21.12
19.97
18.47
16.94
15.57
14.29
12.79
10.79
8.16
5.05
1.79
-1.37
-4.44
-7.68
-11.42
-15.72
-20.18
-24.08
-26.62
-27.47
-26.95
-25.86
-25.03
-24.89
-25.10
-24.86
-23.40
-20.42
-16.40
-12.36
-9.28
-7.67
-7.33
-7.60
-7.80
-7.60
-7.08
-6.53
-6.18
-5.97
-5.64
-4.96
-3.91
-2.76
-1.93
-1.78
-2.45
-3.84
-5.60
-7.29
-8.54
-9.06
-8.84
-8.12
-7.35
-7.00
-7.39
-8.47
-9.86
-11.10
-11.77
-11.76
-11.24
-10.53
-9.88
-9.39
-9.00
-8.60
-8.09
-7.40
-6.60
-5.69
-4.74
-3.77
-2.83
-2.10
-1.83
-2.42
-4.09
-6.86
-10.40
-14.05
-17.21
-19.55
-21.23
-22.84
-25.13
-28.53
-33.06
-38.18
-43.12
-47.39
-50.93
-54.18
-57.77
-62.06
-66.88
-71.48
-74.90
-76.35
-75.53
-72.78
-68.94
-64.93
-61.60
-59.26
-57.67
-55.93
-52.53
-45.57
-33.21
-14.31
11.05
41.24
73.36
103.83
129.34
147.60
157.71
160.14
156.18
147.46
135.51
121.59
106.68
91.52
76.74
62.83
50.10
38.71
28.61
19.65
11.65
4.49
-1.90
-7.38
-11.68
-14.42
-15.34
-14.51
-12.51
-10.26
-8.70
-8.39
-9.02
-9.69
-9.14
-6.42
-1.36
5.39
12.69
19.50
25.23
29.97
34.08
37.87
41.26
43.77
44.82
44.05
41.62
38.13
34.31
30.68
27.39
24.27
21.03
17.61
14.18
11.14
8.84
7.38
6.47
5.62
4.42
2.76
1.00
-0.30
-0.62
0.18
1.86
3.79
5.48
6.64
7.34
7.86
8.39
8.93
9.24
9.07
8.27
6.90
5.15
3.21
1.12
-1.07
-3.29
-5.35
-6.99
-7.95
-8.10
-7.47
-6.27
-4.80
-3.47
-2.65
-2.66
-3.63
-5.51
-8.05
-10.92
-13.96
-17.02
-20.06
-22.90
-25.22
-26.62
-26.76
-25.60
-23.40
-20.75
-18.16
-16.01
-14.29
-12.63
-10.45
-7.21
-2.49
3.79
11.28
19.34
27.06
33.54
38.09
40.36
40.32
38.23
34.48
29.49
23.70
17.54
11.47
5.93
1.22
-2.69
-6.23
-10.13
-15.06
-21.23
-28.12
-34.51
-38.99
-40.43
-38.49
-33.68
-27.17
-20.21
-13.84
-8.68
-4.98
-2.78
-2.07
-2.80
-4.76
-7.48
-10.30
-12.49
-13.59
-13.58
-12.87
-12.10
-11.86
-12.29
-13.15
-13.94
-14.19
-13.76
-12.83
-11.71
-10.69
-9.78
-8.78
-7.34
-5.25
-2.51
0.60
3.68
6.32
8.31
9.66
10.56
11.30
12.09
13.07
14.24
15.51
16.83
18.16
19.57
21.10
22.68
24.08
24.96
25.07
24.37
23.11
21.69
20.42
19.33
18.03
16.14
13.37
9.96
6.51
3.72
1.98
1.13
0.63
-0.22
-1.78
-4.00
-6.49
-8.85
-10.89
-12.67
-14.37
