1593177044.00
64.000000
-0.00
-0.00
-0.00
-0.00
-0.00
-0.00
-0.00
-0.00
-0.00
-0.00
0.00
0.01
0.01
-0.00
-0.03
-0.05
-0.05
0.00
0.13
0.36
0.66
1.01
1.37
1.72
2.06
2.40
2.79
3.24
3.80
4.42
5.06
5.66
6.20
6.68
7.15
7.68
8.31
9.14
10.09
11.04
11.88
12.56
13.14
13.76
14.65
15.96
17.91
20.32
22.90
25.38
27.58
29.57
31.68
34.32
37.81
42.54
48.15
54.10
59.83
64.97
69.58
74.14
79.34
85.71
93.76
103.00
112.62
121.73
129.77
136.75
143.30
150.75
157.77
166.65
177.95
191.79
206.97
220.56
228.24
225.36
208.54
176.90
132.81
80.09
23.06
-35.04
-92.66
-149.50
-205.67
-260.86
-314.25
-364.36
-410.32
-451.42
-487.10
-516.45
-538.05
-550.13
-550.89
-539.27
-515.06
-479.53
-434.82
-383.61
-328.47
-271.59
-214.59
-158.67
-104.88
-54.19
-7.73
33.49
68.76
97.90
121.24
139.53
153.60
164.16
171.58
175.95
177.25
175.62
171.49
165.60
158.80
151.78
144.85
137.87
130.43
122.09
112.71
102.61
92.44
82.91
74.49
67.24
60.78
54.54
47.97
40.66
32.31
22.85
12.75
3.30
-3.38
-5.00
-0.05
11.22
26.53
42.29
54.97
62.45
64.61
62.85
59.08
54.70
50.22
45.58
40.70
35.84
31.54
28.28
26.13
24.77
23.68
22.40
20.73
18.71
16.59
14.61
12.95
11.67
10.60
9.45
7.87
5.77
3.50
1.85
1.61
3.13
5.95
8.90
10.59
10.13
7.55
3.74
-0.07
-2.95
-4.60
-5.32
-5.63
-5.87
-6.03
-5.91
-5.42
-4.66
-3.99
-3.69
-3.88
-4.43
-4.95
-5.08
-4.62
-3.63
-2.36
-1.23
-0.53
-0.41
-0.79
-1.39
-1.89
-2.07
-1.88
-1.39
-0.79
-0.20
0.33
0.82
1.35
1.97
2.67
3.48
4.42
5.55
6.92
8.52
10.23
11.84
13.09
13.81
13.94
13.58
12.87
11.95
10.83
9.43
7.66
5.54
3.08
0.44
-2.14
-4.51
-6.62
-8.52
-10.26
-11.77
-12.92
-13.55
-13.55
-13.00
-12.14
-11.30
-10.71
-10.47
-10.47
-10.53
-10.46
-10.16
-9.64
-9.01
-8.39
-7.83
-7.36
-6.95
-6.60
-6.33
-6.14
-6.06
-6.04
-6.03
-5.97
-5.81
-5.54
-5.22
-4.92
-4.70
-4.62
-4.71
-4.97
-5.35
-5.76
-6.05
-6.11
-5.88
-5.34
-4.64
-3.92
-3.38
-3.08
-3.02
-3.08
-3.13
-3.04
-2.70
-2.07
-1.17
-0.07
1.19
2.58
4.14
5.95
7.77
9.48
10.96
12.08
12.74
12.84
12.36
11.32
9.82
8.01
6.14
4.44
3.05
2.04
1.38
0.96
0.64
0.33
-0.06
-0.52
-1.01
-1.55
-2.16
-2.87
-3.68
-4.50
-5.19
-5.62
-5.73
-5.58
-5.36
-5.23
-5.31
-5.58
-5.92
-6.22
-6.48
-6.79
-7.28
-8.02
-8.93
-9.78
-10.27
-10.17
-9.39
-8.02
-6.28
-4.42
-2.61
-0.96
0.53
1.90
3.13
4.20
5.05
5.63
5.95
6.10
6.19
6.29
6.42
6.50
6.44
6.18
5.79
5.39
5.15
5.15
5.33
5.52
5.51
5.18
4.56
3.81
3.13
2.70
2.60
2.75
3.01
3.17
3.05
2.55
1.68
0.56
-0.61
-1.67
-2.50
-3.12
-3.58
-3.94
-4.21
-4.38
-4.47
-4.57
-4.87
-5.51
-6.52
-7.75
-8.86
-9.52
-9.49
-8.74
-7.40
-5.70
-3.85
-2.02
-0.31
1.21
2.51
3.55
4.36
5.01
5.54
5.99
6.35
6.59
6.67
6.57
6.30
5.92
5.52
5.21
5.06
5.14
5.43
5.84
6.23
6.46
6.43
6.11
5.52
4.74
3.90
3.12
2.50
2.10
1.87
1.68
1.39
0.90
0.22
-0.53
-1.21
-1.69
-1.99
-2.22
-2.61
-3.36
-4.58
-6.26
-8.20
-10.11
-11.66
-12.52
-12.48
-11.48
-9.66
-7.30
-4.78
-2.42
-0.41
1.20
2.46
3.47
4.28
4.89
5.25
5.35
5.25
5.03
4.79
4.60
4.49
4.43
4.42
4.47
4.63
4.91
5.29
5.71
6.05
6.19
6.08
5.77
5.39
5.10
5.01
5.16
5.43
5.65
5.59
5.07
4.03
2.54
0.77
-1.09
-2.90
-4.59
-6.15
-7.63
-9.05
-10.44
-11.82
-13.20
-14.55
-15.80
-16.78
-17.29
-17.19
-16.42
-15.10
-13.44
-11.64
-9.88
-8.19
-6.53
-4.82
-3.05
-1.29
0.38
1.84
3.01
3.86
4.36
4.53
4.49
4.37
4.41
4.73
5.36
6.13
6.79
7.10
6.99
6.62
6.19
5.90
5.76
5.62
5.31
4.75
4.02
3.28
2.67
2.20
1.75
1.13
0.21
-0.95
-2.20
-3.33
-4.18
-4.74
-5.16
-5.65
-6.40
-7.45
-8.71
-9.94
-10.93
-11.56
-11.82
-11.81
-11.55
-10.99
-10.00
-8.47
-6.42
-4.04
-1.67
0.38
1.95
3.08
3.97
4.84
5.81
6.85
7.80
8.50
8.83
8.82
8.59
8.35
8.24
8.34
8.59
8.87
9.00
8.87
8.47
7.84
7.09
6.28
5.44
4.53
3.56
2.59
1.69
0.95
0.38
-0.11
-0.64
-1.36
-2.32
-3.44
-4.58
-5.56
-6.30
-6.83
-7.33
-7.98
-8.92
-10.14
-11.46
-12.59
-13.20
-13.06
-12.11
-10.51
-8.53
-6.50
-4.68
-3.13
-1.75
-0.34
1.28
3.14
5.10
6.89
8.25
9.05
9.35
9.35
9.29
9.31
9.43
9.56
9.59
9.47
9.22
8.89
8.53
8.15
7.69
7.09
6.35
5.54
4.80
4.30
4.11
4.24
4.54
4.85
4.95
4.71
4.12
3.24
2.23
1.22
0.30
-0.51
-1.24
-1.94
-2.61
-3.27
-3.90
-4.52
-5.20
-5.99
-6.88
-7.80
-8.60
-9.09
-9.17
-8.77
-7.90
-6.61
-4.94
-2.92
-0.60
1.90
4.44
6.79
8.76
10.23
11.20
11.77
12.08
12.26
12.33
12.21
11.80
11.02
9.91
8.60
7.26
6.02
4.93
3.91
2.89
1.79
0.68
-0.29
-0.97
-1.27
-1.28
-1.20
-1.30
-1.76
-2.59
-3.66
-4.71
-5.55
-6.08
-6.37
-6.61
-6.94
-7.42
-7.95
-8.35
-8.52
-8.46
-8.36
-8.49
-9.05
-10.08
-11.45
-12.88
-14.11
-14.93
-15.30
-15.17
-14.56
-13.42
-11.76
-9.66
-7.29
-4.91
-2.74
-0.92
0.60
1.95
3.32
4.87
6.62
8.48
10.25
11.68
12.62
13.08
13.24
13.37
13.67
14.17
14.68
14.92
14.67
13.97
13.11
12.50
12.47
13.03
13.91
14.67
14.98
14.76
14.18
13.53
13.07
12.86
12.75
12.44
11.74
10.63
9.33
8.22
7.71
8.01
9.10
10.60
11.95
12.66
12.44
11.38
9.84
8.35
7.59
8.07
9.97
12.96
16.43
19.75
22.48
24.52
26.11
27.89
30.55
34.31
38.74
42.97
45.99
46.89
45.10
40.25
32.77
23.53
13.60
4.01
-4.07
-9.61
-11.89
-11.04
-8.30
-4.89
-1.51
2.01
6.63
13.72
23.94
36.27
47.84
51.63
42.00
18.65
-12.32
-42.63
-66.63
-83.13
-93.28
-97.97
-96.93
-88.28
-70.92
-46.83
-22.56
-4.14
3.19
-2.68
-19.75
-43.13
-66.33
-84.15
-94.47
-98.43
-98.60
-97.60
-96.66
-92.96
-85.15
-72.70
-56.43
-38.46
-21.12
-5.75
7.51
19.54
31.35
42.65
52.42
59.19
61.82
60.12
55.36
49.71
45.77
45.66
49.72
56.75
64.33
69.85
71.68
69.94
66.19
62.54
60.55
60.45
61.55
63.04
64.65
66.82
70.09
74.25
78.00
79.43
77.30
72.33
67.39
66.31
71.70
83.29
97.29
107.64
108.32
95.41
68.08
28.00
-21.76
-77.26
-133.45
-183.80
-220.91
-238.92
-236.46
-218.27
-194.10
-174.57
-166.05
-167.50
-171.31
-167.90
-151.42
-123.24
-91.09
-64.65
-50.32
-48.09
-52.40
-55.80
-53.15
-43.94
-31.62
-20.74
-13.89
-10.33
-6.83
-0.07
11.16
25.25
38.64
47.82
51.01
48.77
43.29
36.92
30.82
24.77
18.03
10.81
5.30
5.44
15.27
36.75
68.04
103.33
134.50
153.87
156.75
142.82
115.61
80.75
43.72
8.21
-24.05
-52.43
-76.09
-93.31
-101.91
-100.59
-90.31
-74.72
-59.07
-47.95
-43.13
-42.72
-42.35
-37.76
-27.24
-12.64
1.76
11.65
14.96
12.67
7.83
3.62
1.68
1.52
1.38
-0.52
-4.79
-10.79
-17.28
-23.47
-29.59
-36.83
-46.44
-58.89
-73.34
-87.85
-100.29
-109.12
-113.79
-114.30
-110.49
-101.68
-86.92
-65.84
-39.57
-10.86
16.76
40.43
59.08
73.55
85.71
97.18
108.45
118.78
126.89
131.65
132.34
128.42
119.23
104.11
83.07
57.63
31.19
8.44
-6.02
-9.49
-2.44
11.56
27.09
38.91
43.74
41.19
33.38
23.59
14.77
8.52
5.00
3.48
3.26
4.05
5.99
9.04
12.56
15.29
15.89
13.73
9.48
4.94
2.29
3.16
7.93
15.73
25.01
34.12
41.64
46.27
46.63
41.21
29.08
10.73
-11.28
-32.66
-48.62
-55.66
-52.93
-42.47
-28.22
-14.29
-3.51
3.24
6.67
8.09
8.52
8.34
7.51
6.02
4.27
3.01
2.94
4.18
6.15
7.75
7.90
6.11
2.75
-1.06
-3.99
-5.08
-4.24
-2.27
-0.54
-0.33
-2.22
-5.84
-9.92
-12.78
-13.07
-10.39
-5.56
-0.30
3.50
4.51
2.47
-1.60
-5.57
-6.74
-2.51
8.97
28.33
54.89
86.63
120.31
151.97
177.70
194.25
199.58
192.97
174.85
147.01
112.16
73.94
37.23
8.47
-5.30
1.16
28.36
70.24
115.45
150.16
162.28
145.46
101.07
36.91
-36.38
-109.12
-174.60
-228.24
-267.77
-293.16
-306.12
-308.80
-302.91
-289.09
-266.89
-235.01
-191.20
-134.76
-68.60
1.12
67.23
123.71
166.51
193.28
195.23
168.41
118.53
58.53
0.28
-49.53
-87.74
-111.34
-116.87
-101.80
-68.72
-22.83
25.90
65.12
85.70
85.45
69.41
46.07
24.46
10.54
5.13
7.11
13.66
21.90
29.07
32.81
30.03
19.63
1.09
-26.33
-58.26
-87.71
-109.89
-125.57
-138.06
-153.44
-168.45
-178.25
-180.03
-172.73
-157.42
-131.58
-96.36
-51.87
-4.23
44.07
96.81
152.88
207.41
252.69
280.60
284.69
263.43
211.17
137.89
64.38
10.18
-16.58
-21.86
-17.53
-11.52
-6.17
-0.19
10.61
27.74
48.16
65.44
73.48
68.91
52.54
29.61
7.54
-5.73
-7.69
-3.89
-2.31
-9.22
-26.50
-51.97
-81.60
-110.31
-130.75
-138.36
-133.79
-121.84
-108.38
-96.50
-85.93
-74.86
-62.10
-47.81
-34.26
-24.61
-21.13
-24.36
-32.53
-41.87
-47.68
-45.62
-33.45
-12.97
9.58
27.99
37.12
35.63
26.41
14.75
5.53
1.01
0.23
0.69
1.16
1.71
4.12
10.37
20.78
33.46
45.24
53.11
55.40
52.46
45.87
37.93
30.96
26.67
26.08
29.59
37.03
47.44
58.68
67.63
69.58
60.66
39.60
8.84
-25.65
-56.38
-77.07
-84.93
-81.34
-70.65
-57.74
-46.02
-36.42
-27.98
-19.09
-8.99
1.60
10.71
16.13
16.69
12.96
7.08
1.71
-1.17
-1.03
1.14
3.85
6.17
7.64
8.96
10.98
13.93
17.02
18.75
17.81
13.88
7.96
2.04
-1.74
-2.14
0.61
5.04
9.24
11.79
12.42
11.84
11.22
11.43
12.55
13.88
14.49
13.69
11.39
8.01
4.17
0.36
-3.15
-6.32
-9.20
-11.73
-13.83
-15.45
-16.70
-17.90
-19.40
-21.40
-23.85
-26.43
-28.63
-30.01
-30.29
-29.49
-27.82
-25.55
-22.87
-19.86
-16.53
-12.97
-9.37
-6.06
-3.24
-0.94
1.05
3.03
5.23
7.63
10.00
11.98
13.32
14.02
14.24
14.24
14.21
14.16
13.93
13.35
12.30
10.85
9.14
7.36
5.66
4.08
2.59
1.16
-0.21
-1.42
-2.30
-2.72
-2.61
-2.06
-1.33
-0.72
-0.51
-0.87
-1.76
-3.02
-4.46
-5.90
-7.26
-8.53
-9.67
-10.57
-11.08
-11.07
-10.50
-9.51
-8.33
-7.19
-6.25
-5.57
-5.05
-4.56
-4.01
-3.34
-2.61
-1.89
-1.28
-0.82
-0.48
-0.23
-0.01
0.12
-0.02
-0.68
-2.00
-3.91
-6.04
-7.82
-8.68
-8.31
-6.79
-4.50
-1.99
0.31
2.12
3.30
3.76
3.32
1.80
-0.84
-4.40
-8.41
-12.29
-15.52
-17.82
-19.20
-19.87
-20.15
-20.34
-20.66
-21.24
-22.08
-22.95
-23.47
-23.13
-21.50
-18.31
-13.62
-7.73
-1.10
5.80
12.68
19.37
25.75
31.69
36.97
41.28
44.38
46.25
47.07
47.26
47.23
47.20
47.19
46.93
46.10
44.51
42.25
39.64
37.11
34.96
33.22
31.59
29.59
26.82
23.09
18.55
13.63
8.84
4.63
1.25
-1.23
-2.92
-4.04
-4.88
-5.77
-7.04
-8.88
-11.24
-13.83
-16.20
-17.92
-18.81
-19.03
-19.02
-19.30
-20.28
-22.05
-24.38
-26.81
-28.81
-29.91
-29.85
-28.57
-26.31
-23.53
-20.71
-18.24
-16.25
-14.62
-13.11
-11.51
-9.78
-8.07
-6.58
-5.45
-4.66
-4.05
-3.44
-2.68
-1.69
-0.46
1.07
2.92
5.11
7.58
10.18
12.76
15.21
17.42
19.30
20.76
21.69
22.04
21.82
21.14
20.17
19.06
17.88
16.59
15.15
13.49
11.68
9.85
8.14
6.71
5.56
4.59
3.63
2.52
1.20
-0.28
-1.77
-3.18
-4.43
-5.58
-6.70
-7.86
-9.10
-10.40
-11.74
-13.07
-14.31
-15.31
-15.89
-15.86
-15.12
-13.71
-11.80
-9.62
-7.36
-5.15
-3.04
-1.04
0.82
2.48
3.90
5.03
5.89
6.53
6.99
7.32
7.56
7.75
7.98
8.29
8.72
9.25
9.79
10.18
10.29
10.09
9.62
9.04
8.52
8.18
8.04
8.08
8.21
8.29
8.19
7.86
7.33
6.69
6.02
5.38
4.89
4.66
4.67
4.82
4.92
4.83
4.44
3.78
3.04
2.56
2.65
3.28
4.14
4.76
4.76
4.06
2.79
1.36
0.56
0.89
2.20
3.84
5.16
5.94
6.44
7.24
8.92
12.58
18.57
26.04
33.27
38.69
41.74
42.97
43.54
44.73
48.64
56.07
65.79
75.20
81.92
85.11
85.49
84.71
84.69
88.86
99.46
116.22
136.31
155.54
169.75
175.49
170.56
143.91
93.06
26.62
-39.66
-93.15
-130.01
-152.84
-166.04
-172.70
-174.14
-169.20
-157.82
-142.65
-128.25
-118.53
-114.64
-115.05
-116.69
-116.72
-112.27
-102.78
-90.52
-79.24
-72.29
-71.03
-75.50
-84.46
-95.47
-104.49
-106.00
-95.79
-72.58
-38.96
-0.74
34.40
59.80
72.70
75.54
74.09
73.92
77.53
83.44
88.36
89.19
85.47
79.60
74.84
72.62
70.77
64.85
49.21
26.00
2.55
-12.16
-12.56
0.13
19.06
35.49
44.05
43.90
38.16
30.49
23.02
15.79
7.88
-0.92
-9.32
-15.28
-17.60
-16.64
-15.06
-16.05
-20.62
-28.24
-36.14
-40.97
-41.55
-40.92
-45.50
-62.14
-93.53
-134.90
-175.00
-200.34
-201.07
-175.18
-128.90
-73.21
-19.25
25.37
58.05
79.14
89.93
91.46
84.85
71.89
55.77
40.40
29.04
23.16
20.28
14.54
-0.53
-27.98
-64.86
-102.42
-129.28
-135.73
-116.47
-73.46
-15.07
47.16
101.88
140.65
159.10
157.19
133.67
94.59
52.23
18.42
-2.43
-13.56
-20.51
-26.97
-34.06
-41.66
-48.71
-54.89
-60.65
-63.42
-59.30
-44.75
-18.93
15.18
51.70
85.15
108.37
117.47
114.37
104.68
94.79
89.12
88.45
89.79
88.27
78.48
57.61
27.26
-6.98
-37.50
-57.96
-65.73
-63.34
-53.53
-39.63
-24.51
-10.76
-1.52
-0.12
-8.57
-25.70
-46.13
-61.39
-63.99
-51.13
-26.63
0.36
19.78
25.43
17.21
0.56
-17.13
-28.90
-31.50
-25.86
-15.39
-3.53
7.82
18.26
27.61
35.06
39.35
39.92
37.97
36.11
36.62
39.44
41.70
39.41
30.46
16.44
2.25
-6.61
-7.35
-1.86
4.30
4.90
-3.50
-20.13
-41.18
-62.45
-81.34
-97.07
-109.16
-115.95
-114.80
-104.10
-85.58
-64.90
-49.48
-44.35
-48.78
-55.92
-56.01
-41.38
-10.64
30.50
71.93
103.62
119.37
118.02
102.42
77.19
47.10
16.70
-9.35
-26.25
-30.08
-19.09
5.38
39.14
76.42
111.46
139.47
156.77
160.81
150.77
128.72
99.92
71.45
49.12
34.31
23.22
9.86
-8.93
-29.62
-42.40
-36.68
-8.45
35.10
77.32
99.45
89.80
49.05
-11.01
-73.93
-126.14
-161.22
-179.34
-184.09
-179.00
-166.34
-148.07
-127.22
-108.11
-95.13
-90.74
-94.43
-103.12
-112.62
-119.08
-120.09
-114.87
-103.94
-88.89
-72.01
-55.71
-41.93
-31.62
-24.46
-19.71
-16.98
-16.79
-20.68
-30.23
-45.94
-66.15
-87.00
-102.80
-107.93
-98.31
-72.43
-31.54
20.77
79.36
137.96
189.56
228.09
248.80
250.08
234.25
207.10
176.02
147.55
125.27
108.57
95.71
84.00
72.51
62.70
57.37
58.55
65.79
75.92
83.66
86.97
85.83
83.06
82.58
86.79
94.81
102.71
105.51
98.35
82.18
59.56
34.43
10.36
-10.54
-27.57
-40.99
-43.05
-44.84
-45.97
-47.20
-48.61
-49.45
-48.50
-44.79
-38.04
-28.73
-19.01
-8.11
3.44
14.28
21.49
20.91
9.08
-14.12
-43.78
-72.03
-88.40
-87.40
-70.20
-43.85
-17.39
2.70
15.22
23.51
31.26
40.63
48.57
48.61
33.98
0.61
-50.89
-115.21
-183.56
-245.86
-291.25
-310.85
-299.37
-257.37
-192.51
-118.53
-51.96
-7.49
6.06
-10.84
-49.04
-93.83
-130.42
-149.19
-148.35
-133.10
-112.01
-93.24
-81.20
-76.14
-76.19
-80.01
-87.59
-98.19
-108.13
-110.27
-97.57
-66.70
-21.28
29.08
71.85
96.88
100.82
87.78
71.43
62.29
62.63
67.02
71.55
77.88
90.83
113.22
142.49
171.46
191.33
196.83
187.74
169.11
146.72
123.91
102.01
79.86
57.48
35.46
14.05
-8.33
-32.36
-57.51
-81.10
-98.22
-103.69
-94.61
-71.89
-35.07
5.59
40.81
65.95
80.38
84.89
81.67
69.97
49.88
24.13
-3.09
-25.93
-40.40
-46.19
-46.28
-44.33
-44.93
-49.87
-55.86
-56.14
-42.98
-15.25
18.23
43.03
46.56
24.86
-14.11
-54.46
-80.82
-85.07
-68.29
-37.28
-1.02
31.66
53.96
62.16
55.48
35.90
8.96
-16.73
-34.03
-33.98
-11.75
30.65
84.62
136.73
173.03
183.72
166.56
127.94
81.32
42.26
22.76
27.26
50.02
78.63
100.10
106.69
98.94
85.10
76.82
83.05
106.36
139.67
170.40
186.00
179.30
150.63
106.73
57.59
10.84
-29.47
-65.31
-99.95
-134.17
-164.82
-186.57
-195.38
-189.53
-171.50
-135.00
-81.17
-20.33
33.78
71.88
94.87
102.67
94.31
63.62
11.19
-56.65
-127.25
-185.44
-219.50
-226.92
-216.04
-189.16
-157.56
-129.17
-103.05
-71.68
-30.90
13.97
50.68
69.15
69.69
61.12
56.90
64.81
82.04
97.94
100.09
81.58
45.65
3.05
-35.44
-63.53
-81.03
-92.70
-104.68
-116.16
-124.10
-123.12
-110.90
-92.37
-78.18
-77.40
-92.09
-115.88
-136.88
-142.99
-125.82
-86.41
-29.90
26.72
67.19
87.17
97.22
107.22
120.82
139.24
157.30
171.48
179.97
185.03
190.17
195.38
195.05
172.86
123.71
58.96
0.60
-34.59
-42.20
-29.47
-10.47
0.72
-3.05
-18.37
-36.96
-51.24
-58.73
-61.08
-60.39
-57.01
-48.54
-30.80
-0.43
39.26
77.33
100.25
97.13
66.90
19.26
-29.65
-63.60
-72.27
-55.61
-22.52
14.90
45.04
64.08
73.91
76.92
72.30
56.35
25.53
-18.52
-66.62
-104.92
-120.60
-109.51
-78.79
-43.06
-16.51
-6.08
-9.32
-17.51
-22.27
-20.09
-13.68
-8.84
-10.04
-17.96
-29.51
-40.57
-48.43
-52.92
-55.27
-56.54
-56.20
-52.13
-42.37
-27.03
-9.09
6.79
15.44
13.25
-0.52
-22.88
-47.51
-67.05
-75.50
-69.72
-48.74
-14.89
25.96
64.83
92.00
99.99
85.98
52.89
9.36
-30.91
-54.72
-53.87
-27.94
16.94
71.23
125.75
170.31
190.12
178.43
142.73
101.30
70.24
53.89
45.03
31.78
5.34
-34.77
-78.29
-114.67
-136.16
-140.39
-129.46
-107.30
-77.76
-42.39
-9.13
16.19
31.58
37.99
37.03
30.33
19.92
8.42
-1.49
-7.78
-8.75
-4.52
2.38
8.21
10.19
7.86
3.64
1.02
4.12
14.94
32.71
53.07
68.71
71.85
57.55
26.62
-16.05
-58.00
-86.83
-95.22
-83.14
-56.64
-23.95
7.94
36.28
60.21
79.34
92.78
99.64
99.81
94.42
85.41
72.66
59.53
48.23
40.28
35.81
33.05
28.19
16.52
-5.12
-36.25
-72.00
-105.91
-133.12
-150.76
-158.56
-157.59
-148.64
-131.53
-106.09
-73.42
-37.68
-5.00
18.91
30.65
30.61
22.64
12.26
4.35
1.40
2.43
4.20
3.31
-1.96
-10.59
-19.28
-24.17
-22.91
-15.81
-5.33
4.63
10.88
12.43
11.05
10.24
13.52
22.78
37.50
55.05
71.90
85.19
93.66
97.87
99.62
100.99
103.39
107.04
111.12
114.37
116.12
116.67
117.15
118.50
120.70
122.65
122.82
120.28
115.26
108.78
101.51
92.97
81.31
64.37
40.99
11.59
-22.58
-61.00
-104.44
-154.25
-209.93
-267.00
-316.76
-348.53
-353.46
-327.77
-274.07
-200.42
-118.03
-38.98
25.44
65.95
76.76
57.38
13.92
-41.69
-94.80
-132.74
-148.91
-144.28
-125.69
-102.02
-80.68
-65.48
-56.69
-52.58
-50.86
-49.46
-46.52
-40.04
-27.12
-4.18
32.01
82.49
144.38
209.98
267.76
305.57
314.50
292.01
242.54
175.29
100.90
28.94
-32.85
-78.38
-103.33
-106.72
-92.63
-70.22
-51.65
-47.30
-61.13
-88.75
-119.79
-143.03
-151.50
-144.80
-127.12
-104.93
-83.71
-66.33
-53.14
-43.42
-36.79
-34.25
-37.47
-45.98
-57.75
-69.01
-74.88
-70.46
-52.01
-18.10
28.94
83.47
139.44
189.73
228.10
250.68
257.02
249.79
233.09
209.93
173.29
121.70
60.59
0.69
-49.28
-87.61
-120.76
-154.53
-191.60
-230.45
-260.50
-271.49
-257.12
-218.01
-161.91
-100.65
-46.11
-7.35
12.66
18.45
17.79
19.28
29.38
50.96
83.72
124.33
166.51
204.16
233.94
254.31
265.91
269.90
266.62
256.17
238.09
210.98
175.18
132.75
84.80
31.98
-25.52
-86.54
-145.60
-193.97
-223.31
-227.02
-203.92
-160.56
-107.09
-52.35
-7.27
23.06
46.62
66.85
85.15
103.84
116.48
116.49
101.45
69.80
27.59
-17.03
-58.47
-93.65
-119.66
-136.99
-147.94
-155.12
-159.56
-159.14
-151.67
-137.01
-115.08
-86.87
-55.09
-22.46
7.71
31.73
48.21
55.94
54.97
49.20
43.87
42.72
47.34
56.08
65.60
72.89
76.16
70.91
59.71
46.68
33.97
23.48
13.14
2.31
-7.96
-16.46
-22.79
-26.90
-30.54
-36.51
-45.81
-57.33
-67.42
-71.53
-66.27
-50.65
-26.18
2.55
29.45
49.23
58.68
57.82
49.05
35.76
21.25
8.32
-1.57
-7.73
-9.58
-6.86
0.31
10.66
21.66
30.14
33.58
30.83
22.61
11.23
-0.54
-10.37
-17.18
-21.09
-22.90
-23.24
-22.17
-19.21
-13.63
-5.19
5.49
17.00
27.57
35.77
40.98
43.40
43.75
42.66
40.19
35.69
28.14
16.80
1.88
-15.13
-31.73
-45.21
-53.63
-56.51
-54.83
-50.31
-44.58
-38.53
-32.22
-25.35
-17.88
-10.36
-3.72
1.13
3.77
4.43
3.87
2.98
2.45
2.51
2.98
3.34
3.03
1.70
-0.60
-3.36
-5.77
-6.98
-6.49
-4.41
-1.46
1.29
2.87
2.89
1.79
0.59
0.51
2.24
5.58
9.40
12.22
12.84
10.87
6.89
2.06
-2.29
-5.14
-5.96
-4.63
-1.44
3.00
7.77
11.79
14.07
14.13
12.25
9.43
6.92
5.61
5.36
4.71
1.33
-6.80
-19.91
-35.44
-48.35
-52.76
-44.34
-22.19
10.64
47.92
82.13
106.23
115.19
106.83
82.23
45.67
3.96
-35.06
-64.50
-80.30
-82.14
-73.01
-57.75
-41.31
-27.67
-19.30
-17.12
-20.26
-26.14
-31.01
-30.96
-23.41
-8.27
11.82
32.26
48.10
55.71
53.82
43.65
28.21
11.06
-4.76
-17.39
-26.29
-31.82
-34.81
-36.07
-36.18
-35.47
-34.10
-32.07
-29.23
-25.38
-20.43
-14.65
-8.82
-4.01
-1.23
-0.99
-2.99
-6.24
-9.39
-11.20
-10.93
-8.44
-4.15
1.25
7.02
12.57
17.52
21.64
24.74
26.71
27.54
27.44
26.90
26.54
26.83
27.89
29.36
30.55
30.74
29.56
27.14
24.11
21.39
19.88
20.16
22.27
25.70
29.50
32.51
33.66
32.22
27.96
21.19
12.62
3.20
-6.04
-14.11
-20.24
-23.88
-24.86
-23.40
-20.09
-15.89
-11.84
-8.91
-7.69
-8.24
-10.19
-12.88
-15.65
-18.11
-20.09
-21.55
-22.39
-22.42
-21.42
-19.35
-16.45
-13.20
-10.13
-7.52
-5.32
-3.22
-0.79
2.19
5.72
9.54
13.30
16.69
19.51
21.67
23.08
23.61
23.08
21.38
18.57
14.97
11.11
7.56
4.71
2.68
1.32
0.42
-0.16
-0.37
-0.07
0.72
1.65
2.00
0.96
-1.99
-6.75
-12.46
-17.77
-21.40
-22.54
-21.23
-18.19
-14.55
-11.39
-9.51
-9.20
-10.24
-11.92
-13.21
-13.09
-10.97
-7.02
-2.26
1.83
3.93
3.42
0.70
-3.16
-6.91
-9.67
-11.17
-11.54
-11.06
-9.86
-7.96
-5.42
-2.48
0.49
3.07
5.05
6.51
7.77
9.25
11.18
13.60
16.30
18.97
21.40
23.49
25.28
26.84
28.17
29.09
29.29
28.43
26.35
23.12
19.10
14.73
10.44
6.45
2.81
-0.56
-3.73
-6.83
-10.11
-13.82
-18.00
-22.16
-25.15
-25.55
-22.41
-15.92
-7.65
-0.03
4.70
5.48
2.77
-1.83
-6.51
-10.02
-12.01
-12.75
-12.65
-11.93
-10.56
-8.51
-5.96
-3.34
-1.11
0.35
0.94
0.87
0.45
-0.02
-0.45
-0.94
-1.67
-2.66
-3.61
-3.88
-2.74
0.16
4.52
9.33
13.22
14.99
14.13
10.95
6.41
1.72
-2.06
-4.28
-4.68
-3.36
-0.64
3.00
6.93
10.44
12.88
13.88
13.42
11.78
9.47
6.96
4.61
2.55
0.78
-0.84
-2.49
-4.29
-6.27
-8.30
-10.10
-11.37
-11.87
-11.59
-10.75
-9.74
-8.93
-8.54
-8.50
-8.51
-8.20
-7.27
-5.67
-3.57
-1.32
0.74
2.39
3.60
4.50
5.27
6.07
6.99
8.01
9.06
9.98
10.57
10.57
9.78
8.16
5.91
3.49
1.50
0.49
0.71
2.00
3.88
5.71
6.91
7.28
6.99
6.56
6.58
7.40
8.89
10.52
11.55
11.44
10.21
8.58
7.73
8.79
12.27
17.69
23.71
28.64
31.22
31.26
29.72
28.35
29.00
32.83
39.93
49.14
58.41
65.32
67.96
65.74
59.87
53.10
48.73
49.21
54.85
63.40
70.54
71.18
61.12
38.43
4.32
-36.71
-77.56
-110.07
-127.22
-125.24
-104.70
-70.14
-28.35
13.76
50.78
79.18
96.90
102.93
97.48
82.56
62.37
42.66
29.06
24.85
29.42
38.38
45.08
43.03
27.96
-0.95
-41.20
-88.00
-135.86
-180.26
-218.61
-250.54
-277.21
-300.15
-320.13
-336.57
-347.99
-353.03
-351.55
-344.76
-334.52
-321.99
-306.59
-286.09
-257.66
-219.38
-171.29
-115.51
-55.62
4.33
60.54
109.89
150.11
179.98
199.46
209.69
212.69
210.76
205.92
199.52
192.43
185.13
177.94
170.99
164.05
156.64
148.20
138.43
127.60
116.40
105.72
96.24
88.19
81.28
74.95
68.60
61.91
54.89
47.82
41.04
34.74
28.87
23.27
17.72
12.14
6.61
1.32
-3.53
-7.72
-11.10
-13.50
-14.77
-14.84
-13.82
-12.01
-9.87
-7.88
-6.35
-5.35
-4.76
-4.34
-3.89
-3.32
-2.62
-1.85
-1.08
-0.38
0.22
0.65
0.87
0.88
0.66
0.28
-0.16
-0.55
-0.75
-0.65
-0.20
0.61
1.67
2.84
3.90
4.67
4.96
4.71
3.91
2.64
1.03
-0.72
-2.40
-3.83
-4.87
-5.51
-5.78
-5.87
-5.97
-6.30
-6.99
-8.05
-9.33
-10.57
-11.48
-11.88
-11.74
-11.19
-10.44
-9.62
-8.71
-7.55
-5.98
-3.94
-1.56
0.83
2.89
4.40
5.31
5.72
5.79
5.67
5.46
5.23
5.08
5.10
5.33
5.74
6.18
6.47
6.47
6.13
5.55
4.86
4.18
3.59
3.10
2.68
2.31
1.99
1.68
1.37
1.03
0.67
0.29
-0.12
-0.59
-1.21
-2.04
-3.07
-4.19
-5.19
-5.94
-6.40
-6.72
-7.14
-7.83
-8.82
-9.91
-10.77
-11.10
-10.76
-9.83
-8.50
-7.00
-5.43
-3.81
-2.09
-0.28
1.52
3.17
4.53
5.57
6.34
6.91
7.34
7.63
7.78
7.75
7.59
7.33
7.04
6.74
6.44
6.18
5.99
5.87
5.75
5.53
5.11
4.49
3.77
3.10
2.60
2.25
1.93
1.48
0.79
-0.10
-1.08
-2.01
-2.80
-3.49
-4.17
-4.96
-5.91
-6.98
-8.08
-9.10
-9.96
-10.62
-11.06
-11.26
-11.15
-10.67
-9.80
-8.57
-7.10
-5.54
-4.03
-2.60
-1.23
0.15
1.63
3.18
4.71
6.01
6.81
6.98
6.54
5.71
4.86
4.34
4.31
4.66
5.11
5.33
5.16
4.67
4.08
3.60
3.28
2.98
2.44
1.53
0.27
-1.13
-2.42
-3.44
-4.21
-4.81
-5.38
-5.93
-6.41
-6.76
-6.98
-7.14
-7.40
-7.89
-8.73
-9.88
-11.14
-12.24
-12.93
-13.06
-12.65
-11.81
-10.68
-9.33
-7.71
-5.63
-2.97
0.23
3.69
7.02
9.90
12.17
13.90
15.31
16.69
18.09
19.17
19.42
18.51
16.57
14.22
12.33
11.67
12.77
15.36
18.41
20.58
21.04
19.88
17.96
16.52
16.62
19.05
23.56
28.85
33.24
35.59
35.82
34.73
33.52
33.44
35.95
41.79
50.50
60.45
69.19
73.82
71.32
59.33
34.79
-0.12
-37.67
-68.47
-87.14
-93.96
-92.70
-87.63
-81.65
-75.90
-69.90
-63.16
-56.14
-49.97
-45.55
-43.03
-42.04
-41.92
-41.98
-41.37
-39.68
-37.18
-34.65
-32.82
-31.98
-32.07
-32.74
-33.43
-33.55
-33.26
-33.66
-35.93
-39.78
-42.87
-41.63
-33.13
-17.14
3.39
23.48
38.92
47.87
51.81
54.11
57.66
63.16
68.99
72.59
72.32
68.32
61.31
53.96
47.86
43.06
39.09
35.92
34.13
34.65
37.66
42.03
44.36
40.88
28.55
6.76
-22.37
-54.62
-84.77
-107.75
-119.28
-116.34
-97.72
-65.45
-24.40
18.54
56.31
83.70
98.15
99.34
85.97
60.39
25.70
-12.91
-47.47
-69.33
-72.53
-57.02
-29.06
1.56
26.59
41.91
48.63
50.71
51.36
50.96
47.35
38.21
23.39
5.91
-9.87
-20.21
-23.83
-22.30
-18.98
-17.15
-18.36
-22.02
-25.98
-28.26
-27.72
-24.63
-20.34
-16.45
-14.12
-13.60
-14.24
-14.89
-14.59
-12.73
-9.33
-5.01
-0.91
1.59
1.53
-1.19
-5.68
-10.22
-12.84
-12.04
-7.58
-0.63
6.54
11.74
13.80
12.73
9.65
6.12
3.48
2.27
2.08
1.69
0.07
-3.04
-7.39
-12.14
-16.11
-17.98
-16.73
-12.03
-4.83
3.12
9.60
11.76
7.16
-6.06
-27.53
-54.08
-78.51
-95.12
-101.89
-97.61
-84.20
-65.28
-44.34
-23.16
-1.71
20.74
43.77
65.42
82.86
93.22
95.39
90.81
82.78
74.88
69.57
67.27
67.12
67.72
67.31
64.28
57.52
46.92
33.84
21.07
11.90
9.00
13.01
21.82
31.35
37.34
37.07
30.27
18.62
4.58
-9.71
-22.95
-34.62
-44.29
-51.23
-54.52
-53.52
-48.40
-40.35
-31.23
-22.86
-16.51
-12.53
-10.38
-9.03
-7.35
-4.56
-0.33
5.16
11.33
17.41
22.57
26.14
27.83
27.82
26.63
24.77
22.47
19.55
15.51
9.81
2.23
-7.12
-17.80
-29.34
-41.21
-52.76
-63.08
-70.92
-74.91
-74.04
-68.21
-58.48
-46.86
-35.66
-26.70
-20.73
-17.26
-14.88
-11.97
-7.42
-1.17
5.91
12.54
17.67
21.07
23.29
25.27
27.66
30.38
32.71
33.73
32.93
30.59
27.75
25.61
24.88
25.43
26.40
26.82
26.13
24.42
22.30
20.39
18.95
17.86
16.93
16.21
16.11
16.97
18.48
19.40
17.93
12.83
4.40
-5.00
-11.80
-12.78
-6.71
4.71
17.46
26.58
28.10
20.21
3.54
-19.20
-43.69
-64.69
-77.00
-76.93
-63.87
-41.11
-15.10
6.83
19.45
21.82
17.38
11.66
8.92
9.65
10.63
7.48
-1.97
-15.61
-27.76
-32.25
-25.86
-10.18
9.22
25.69
34.71
35.63
31.30
25.73
21.89
20.42
20.10
19.14
16.57
12.71
8.98
6.97
7.69
11.03
15.82
20.37
23.26
23.94
23.05
22.06
22.52
25.24
29.92
35.21
39.36
40.91
39.30
34.96
29.04
22.82
17.22
12.53
8.56
4.89
1.19
-2.64
-6.41
-9.92
-13.04
-15.82
-18.48
-21.30
-24.44
-27.83
-31.21
-34.16
-36.31
-37.49
-37.83
-37.72
-37.66
-37.99
-38.78
-39.74
-40.42
-40.33
-39.18
-36.96
-33.86
-30.17
-26.22
-22.32
-18.82
-16.04
-14.23
-13.47
-13.61
-14.29
-15.13
-15.79
-16.11
-16.19
-16.24
-16.51
-17.13
-18.09
-19.27
-20.46
-21.44
-22.00
-22.11
-21.81
-21.21
-20.45
-19.71
-19.13
-18.72
-18.29
-17.54
-16.49
-15.24
-13.97
-12.87
-12.03
-11.41
-10.81
-9.95
-8.55
-7.15
-6.30
-6.30
-7.01
-8.04
-8.92
-9.31
-9.00
-7.95
-7.38
-8.52
-12.24
-18.71
-27.45
-37.49
-47.49
-55.96
-61.53
-64.63
-65.92
-65.88
-64.54
-62.07
-59.45
-58.71
-62.59
-65.10
-62.36
-52.82
-37.91
-20.19
-1.63
16.42
32.78
46.51
57.28
64.15
66.97
66.35
63.42
59.47
55.55
52.34
50.23
49.31
48.40
46.42
42.84
38.02
32.87
28.32
25.03
23.23
22.74
22.49
21.39
18.63
13.99
7.89
1.52
-3.19
-3.91
1.19
12.16
27.09
42.63
55.16
62.10
62.84
58.66
51.93
44.90
38.68
33.28
27.82
21.77
15.21
8.86
3.63
0.18
-1.44
-1.70
-1.44
-1.43
-2.10
-3.57
-5.62
-7.84
-9.75
-10.88
-10.96
-9.94
-8.12
-6.05
-4.26
-3.07
-2.44
-2.10
-1.68
-0.90
0.31
1.88
3.57
4.96
5.55
4.98
3.25
0.82
-1.50
-2.97
-3.29
-2.74
-1.96
-1.48
-1.40
-1.37
-0.97
-0.09
0.90
1.28
0.68
-1.04
-3.56
-6.17
-8.23
-9.31
-9.43
-8.94
-8.37
-8.20
-8.63
-9.45
-10.06
-9.77
-8.10
-5.11
-1.41
2.07
4.46
5.30
4.74
3.31
1.69
0.43
-0.18
-0.05
0.83
2.42
4.61
7.14
9.57
11.37
12.05
11.39
9.47
6.74
3.77
1.12
-0.79
-1.70
-1.55
-0.42
1.44
3.74
6.32
9.21
12.62
16.79
21.77
27.26
32.65
37.18
40.27
41.59
40.97
38.24
33.31
26.22
17.40
7.76
-1.54
-9.26
-14.56
-17.46
-18.80
-19.90
-21.92
-25.44
-30.23
-35.47
-39.81
-41.94
-41.37
-38.66
-34.99
-31.54
-29.02
-27.37
-26.17
-24.50
-21.48
-17.26
-13.03
-10.16
-9.61
-11.70
-16.09
-22.29
-29.11
-34.86
-38.63
-40.20
-39.29
-35.20
-26.87
-11.77
8.82
30.67
50.12
64.51
72.26
72.99
67.86
59.26
50.16
43.03
40.19
43.99
55.68
72.65
90.50
103.44
105.49
92.69
64.87
23.93
-18.63
-51.79
-69.98
-74.09
-69.42
-62.22
-56.68
-54.21
-54.03
-54.23
-54.03
-52.99
-50.99
-46.10
-36.79
-22.61
-4.32
16.28
37.20
54.62
65.28
67.25
60.12
44.97
24.55
2.59
-17.28
-32.29
-41.66
-45.80
-45.65
-42.17
-36.55
-30.22
-24.56
-20.46
-17.76
-15.56
-12.73
-8.18
-1.91
4.98
10.85
14.28
14.75
12.93
10.23
8.29
8.15
9.71
11.87
13.34
13.49
12.73
12.20
12.86
14.64
16.15
15.30
10.63
2.44
-6.95
-14.23
-16.88
-14.68
-10.05
-6.96
-8.96
-17.34
-30.26
-43.58
-52.43
-53.48
-46.30
-33.32
-18.38
-4.88
5.40
12.39
17.01
20.28
22.75
24.62
25.94
26.95
27.96
29.27
30.95
32.80
34.29
34.55
32.67
28.29
22.07
15.75
11.56
11.11
14.60
20.65
27.06
31.91
34.32
34.46
32.76
29.36
23.85
15.72
5.06
-7.25
-19.91
-31.90
-42.91
-53.40
-64.00
-74.80
-84.99
-93.13
-97.97
-99.20
-97.64
-94.68
-91.29
-87.15
-80.78
-70.68
-56.88
-41.81
-29.60
-24.17
-26.97
-35.83
-45.83
-51.68
-50.30
-42.32
-31.68
-23.84
-23.62
-33.78
-54.55
-83.82
-117.65
-150.84
-177.74
-193.28
-194.66
-182.60
-161.27
-136.67
-114.19
-96.33
-81.76
-66.21
-44.63
-14.02
24.86
67.83
109.31
144.69
171.88
190.88
201.98
204.29
194.68
169.55
128.19
75.90
24.43
-10.98
-17.05
12.10
72.62
150.57
225.83
278.58
295.68
274.18
221.33
151.86
83.58
34.42
15.32
26.69
58.81
96.22
123.68
131.50
118.52
91.66
64.95
49.80
49.39
58.70
69.90
77.96
83.04
89.45
102.56
129.12
169.34
215.53
255.51
279.69
285.16
275.60
257.68
212.49
134.79
37.21
-59.26
-143.54
-216.07
-279.11
-330.13
-363.91
-373.93
-353.30
-303.10
-233.63
-161.49
-101.76
-66.26
-59.59
-79.06
-116.34
-157.10
-191.16
-208.32
-207.11
-196.18
-186.87
-184.83
-185.66
-182.55
-168.72
-141.98
-105.24
-65.08
-27.32
6.01
36.52
66.51
95.98
123.11
143.89
153.99
150.21
133.25
108.30
82.90
63.35
52.05
48.08
48.20
48.65
46.34
40.30
32.20
25.34
22.97
26.73
36.34
49.79
64.09
75.79
82.18
82.17
76.35
66.36
53.95
40.57
27.30
15.03
4.50
-3.59
-8.75
-10.95
-10.89
-9.89
-9.44
-10.58
-13.43
-17.38
-21.48
-24.88
-27.15
-28.32
-28.73
-28.95
-29.48
-30.28
-31.21
-32.11
-32.89
-33.26
-32.65
-30.33
-25.86
-19.18
-10.08
0.91
12.59
23.34
31.93
38.07
42.21
44.80
46.13
47.26
48.61
49.92
50.42
49.77
48.55
47.71
47.47
47.56
49.11
53.05
59.99
69.46
80.22
90.43
97.34
97.02
78.83
39.09
-16.78
-76.54
-128.78
-167.52
-191.57
-198.72
-187.40
-158.23
-111.07
-51.71
10.86
65.45
101.59
115.81
112.55
99.02
80.79
61.37
41.44
20.79
-1.12
-24.14
-46.62
-65.93
-80.58
-89.73
-92.97
-92.31
-91.12
-92.71
-98.18
-105.55
-111.23
-112.79
-110.01
-102.07
-89.78
-73.83
-54.61
-32.56
-8.91
13.93
32.34
42.77
43.89
36.48
23.08
6.88
-8.91
-21.32
-27.29
-24.64
-13.12
6.19
29.99
52.76
67.44
67.39
49.11
15.29
-25.80
-63.43
-86.81
-89.83
-73.71
-45.61
-14.47
13.33
36.73
57.53
76.11
91.62
101.46
102.32
92.71
74.45
46.50
13.13
-12.14
-25.37
-28.91
-24.84
-15.31
-2.31
12.55
27.86
43.23
57.62
68.11
72.76
70.98
63.24
51.25
37.75
25.65
17.80
15.24
16.12
18.31
20.14
20.35
18.56
15.10
10.78
6.87
4.13
2.12
0.51
-0.80
-1.99
-3.12
-4.17
-4.97
-5.20
-4.74
-4.06
-3.56
-3.43
-3.83
-4.69
-5.82
-6.92
-7.61
-7.63
-6.99
-5.79
-4.18
-2.46
-0.98
-0.04
0.27
0.05
-0.38
-0.72
-0.75
-0.39
0.38
1.60
3.39
5.94
9.34
13.48
18.10
22.85
27.43
31.72
35.74
39.50
43.00
46.07
48.61
50.61
52.21
53.60
54.86
55.74
55.71
54.06
50.21
43.92
35.41
25.18
13.86
1.96
-10.21
-22.43
-34.45
-45.82
-55.85
-63.73
-68.80
-70.78
-69.93
-67.02
-63.07
-59.04
-55.59
-53.05
-51.43
-50.60
-50.39
-50.56
-50.79
-50.72
-49.97
-48.37
-46.01
-43.18
-40.26
-37.49
-34.91
-32.40
-29.85
-27.16
-24.36
-21.55
-18.78
-16.11
-13.62
-11.44
-9.78
-8.82
-8.57
-8.77
-8.98
-8.76
-7.89
-6.51
-5.05
-4.04
-3.81
-4.37
-5.47
-6.74
-7.88
-8.78
-9.46
-9.90
-10.04
-9.74
-8.95
-7.79
-6.56
-5.65
-5.29
-5.51
-6.08
-6.66
-7.01
-7.09
-7.07
-7.30
-8.12
-9.68
-11.88
-14.42
-16.91
-19.09
-20.89
-22.53
-24.29
-26.41
-28.89
-31.54
-34.00
-35.95
-37.10
-37.29
-36.37
-34.20
-30.70
-25.96
-20.39
-14.85
-10.56
-8.84
-10.51
-15.44
-22.22
-28.68
-32.68
-32.95
-29.56
-23.49
-15.85
-7.23
2.31
12.62
22.87
31.54
37.20
39.58
40.03
40.97
44.45
50.87
58.64
65.06
67.90
66.56
62.37
57.67
54.41
52.81
51.09
46.37
36.29
20.68
2.30
-13.87
-22.59
-20.75
-8.92
8.86
27.07
41.29
49.80
53.27
53.06
49.38
41.11
27.03
7.87
-12.74
-29.17
-36.40
-32.50
-19.62
-2.60
13.69
26.67
36.48
44.40
50.69
53.71
50.75
40.23
23.47
4.84
-9.93
-16.42
-13.59
-4.25
6.45
13.51
14.26
9.10
0.90
-6.90
-11.90
-13.73
-13.82
-14.25
-16.47
-20.49
-24.99
-28.19
-28.98
-27.50
-24.98
-22.90
-22.21
-22.90
-24.23
-25.33
-25.74
-25.60
-25.46
-25.76
-26.45
-26.94
-26.19
-23.25
-17.70
-10.12
-2.10
4.16
6.58
4.02
-3.25
-13.53
-24.25
-32.85
-37.51
-37.53
-33.38
-26.14
-17.08
-7.36
1.90
9.50
14.20
15.05
11.94
5.88
-1.04
-6.33
-7.88
-4.76
2.45
11.92
21.38
28.90
33.46
34.99
34.03
31.31
27.45
22.98
18.39
14.28
11.23
9.72
9.83
11.10
12.64
13.53
13.14
11.45
8.96
6.37
4.20
2.59
1.33
0.00
-1.64
-3.63
-5.73
-7.65
-9.25
-10.64
-12.14
-14.11
-16.72
-19.86
-23.18
-26.27
-28.79
-30.57
-31.67
-32.26
-32.56
-32.69
-32.60
-32.04
-30.57
-27.68
-23.00
-16.45
-8.43
0.24
8.45
15.06
19.26
20.81
20.20
18.39
16.50
15.37
15.33
16.24
17.74
19.44
21.11
22.56
23.59
23.97
23.54
22.37
20.83
19.46
18.66
18.55
18.85
19.10
18.92
18.19
17.07
15.85
14.78
13.97
13.37
12.82
12.20
11.42
10.50
9.50
8.50
7.53
6.57
5.55
4.41
3.09
1.57
-0.18
-2.15
-4.30
-6.54
-8.67
-10.47
-11.69
-12.20
-11.97
-11.18
-10.06
-8.84
-7.60
-6.29
-4.77
-2.90
-0.69
1.80
4.39
6.92
9.25
11.25
12.83
13.89
14.47
14.74
14.99
15.47
16.24
17.10
17.66
17.60
16.79
15.42
13.88
12.53
11.53
10.78
9.99
8.88
7.28
5.23
2.90
0.52
-1.73
-3.75
-5.59
-7.35
-9.16
-11.09
-13.08
-14.99
-16.65
-17.96
-18.97
-19.82
-20.70
-21.72
-22.88
-24.12
-25.34
-26.51
-27.63
-28.67
-29.55
-30.03
-29.83
-28.68
-26.41
-23.06
-18.80
-13.97
-8.92
-3.97
0.65
4.83
8.51
11.67
14.28
16.34
17.85
18.87
19.47
19.76
19.81
19.63
19.22
18.60
17.83
16.99
16.14
15.30
14.44
13.46
12.30
10.94
9.42
7.85
6.32
4.92
3.73
2.72
1.86
1.02
0.12
-0.91
-2.01
-3.08
-4.01
-4.75
-5.36
-5.96
-6.73
-7.72
-8.91
-10.10
-11.12
-11.76
-11.90
-11.50
-10.55
-9.12
-7.33
-5.35
-3.33
-1.41
0.30
1.78
3.00
4.01
4.86
5.63
6.43
7.30
8.25
9.21
10.05
10.67
11.01
11.08
10.91
10.57
10.08
9.46
8.72
7.86
6.91
5.91
4.91
3.96
3.10
2.30
1.52
0.67
-0.34
-1.54
-2.94
-4.45
-5.95
-7.33
-8.53
-9.50
-10.28
-10.94
-11.56
-12.19
-12.85
-13.51
-14.13
-14.68
-15.10
-15.35
-15.33
-14.97
-14.22
-13.06
-11.58
-9.88
-8.03
-6.07
-4.00
-1.83
0.39
2.53
4.45
6.02
7.19
7.98
8.49
8.78
8.90
8.88
8.73
8.50
8.28
8.13
8.10
8.17
8.24
8.21
7.98
7.51
6.83
6.06
5.31
4.65
4.11
3.63
3.14
2.60
2.01
1.40
0.79
0.13
-0.59
-1.39
-2.25
-3.09
-3.83
-4.50
-5.15
-5.94
-7.00
-8.38
-10.04
-11.81
-13.47
-14.74
-15.42
-15.41
-14.70
-13.44
-11.80
-9.94
-7.98
-5.95
-3.84
-1.65
0.57
2.74
4.79
6.70
8.45
10.06
11.50
12.67
13.48
13.85
13.79
13.45
13.04
12.75
12.67
12.72
12.70
12.42
11.82
11.00
10.19
9.54
9.09
8.67
8.07
7.15
5.97
4.72
3.64
2.83
2.22
1.61
0.78
-0.36
-1.73
-3.16
-4.49
-5.61
-6.53
-7.34
-8.16
-9.10
-10.23
-11.57
-13.03
-14.49
-15.76
-16.67
-17.10
-17.00
-16.38
-15.28
-13.72
-11.73
-9.37
-6.73
-3.98
-1.30
1.14
3.23
4.94
6.27
7.24
7.88
8.21
8.22
7.96
7.47
6.85
6.21
5.69
5.40
5.37
5.53
5.74
5.86
5.78
5.53
5.15
4.70
4.21
3.66
3.05
2.45
1.94
1.57
1.31
1.02
0.53
-0.25
-1.31
-2.46
-3.53
-4.38
-5.03
-5.58
-6.18
-6.95
-7.95
-9.18
-10.58
-12.05
-13.38
-14.34
-14.71
-14.37
-13.33
-11.73
-9.74
-7.53
-5.20
-2.80
-0.42
1.85
3.87
5.55
6.83
7.75
8.37
8.74
8.90
8.89
8.78
8.64
8.50
8.36
8.20
7.99
7.74
7.49
7.35
7.35
7.49
7.69
7.87
7.97
7.95
7.81
7.57
7.24
6.80
6.26
5.60
4.83
3.95
2.94
1.85
0.71
-0.38
-1.38
-2.26
-3.06
-3.84
-4.65
-5.49
-6.32
-7.13
-7.92
-8.73
-9.57
-10.41
-11.16
-11.62
-11.64
-11.11
-10.08
-8.68
-7.14
-5.65
-4.29
-3.00
-1.68
-0.23
1.33
2.81
4.02
4.81
5.19
5.31
5.41
5.70
6.25
6.97
7.64
8.02
7.98
7.50
6.66
5.60
4.50
3.53
2.80
2.32
2.00
1.71
1.20
0.21
-1.40
-3.54
-5.84
-7.87
-9.29
-10.08
-10.41
-10.75
-11.73
-13.72
-16.51
-19.33
-21.09
-20.82
-18.06
-12.82
-6.25
-0.60
1.66
-1.16
-9.29
-21.48
-35.53
-48.99
-58.95
-63.13
-60.09
-49.25
-31.00
-7.18
18.97
43.61
63.60
78.59
90.08
100.04
109.67
118.48
124.54
125.83
121.77
108.63
87.91
64.81
44.06
26.41
9.59
-7.49
-22.62
-31.50
-31.36
-22.15
-7.73
6.25
15.59
19.33
19.21
18.14
18.30
19.22
18.98
15.05
6.18
-6.18
-19.24
-28.39
-28.64
-14.33
14.94
53.88
92.36
118.86
124.81
105.40
62.54
3.95
-60.12
-121.68
-176.40
-223.24
-262.55
-280.80
-269.28
-230.07
-175.41
-119.16
-71.02
-35.05
-10.97
4.14
14.45
21.81
27.01
30.65
33.59
35.97
37.45
37.79
37.40
37.34
37.18
36.12
32.93
28.39
23.00
16.95
10.27
2.95
-5.11
-15.08
-28.04
-43.52
-58.58
-68.83
-70.04
-60.02
-39.71
-12.91
14.53
36.86
50.50
54.96
51.55
41.64
25.57
3.34
-24.27
-51.95
-71.80
-77.65
-69.07
-51.21
-31.08
-14.45
-3.92
0.99
1.54
-0.88
-5.92
-13.13
-21.02
-26.79
-27.29
-20.17
-4.82
18.37
43.34
61.86
68.88
65.11
55.44
45.06
36.91
31.14
26.13
19.89
11.91
3.56
-3.02
-5.90
-4.89
-1.36
2.54
5.02
5.05
3.15
1.75
2.52
7.29
16.71
30.70
48.48
68.03
85.32
94.71
90.78
70.70
37.35
-2.42
-39.72
-66.77
-79.30
-76.97
-61.95
-37.02
-4.49
35.19
77.77
116.42
144.08
156.48
153.75
139.72
119.59
90.36
53.98
15.65
-18.25
-43.49
-59.08
-66.63
-69.35
-70.33
-71.30
-71.10
-68.68
-64.05
-58.43
-53.87
-50.83
-48.97
-47.37
-45.11
-41.07
-35.59
-30.04
-25.81
-23.61
-23.16
-23.85
-25.02
-26.25
-26.92
-27.01
-26.94
-27.32
-28.57
-30.75
-33.81
-37.64
-42.01
-46.43
-50.61
-54.51
-58.17
-61.58
-64.58
-67.13
-69.23
-71.04
-72.73
-74.54
-76.59
-78.75
-80.53
-81.17
-79.92
-76.23
-69.88
-61.05
-50.27
-38.29
-25.91
-13.72
-1.96
9.44
20.60
31.41
41.35
49.67
55.71
59.32
60.97
61.47
61.47
61.02
59.60
56.58
51.73
45.49
38.77
32.46
26.98
22.22
17.82
13.65
10.03
7.65
7.17
8.84
12.29
16.68
21.12
24.94
27.91
30.07
31.58
32.46
32.63
31.97
30.55
28.71
27.01
26.00
25.95
26.63
27.41
27.41
25.83
22.23
16.63
9.50
1.52
-6.50
-13.83
-19.87
-24.18
-26.47
-26.66
-24.87
-21.39
-16.70
-11.28
-5.56
0.24
6.03
11.83
17.62
23.23
28.32
32.41
35.06
36.03
35.50
33.97
32.17
30.82
30.38
30.92
32.17
33.64
34.81
35.26
34.73
33.16
30.67
27.63
24.59
22.15
20.78
20.56
21.13
21.84
22.00
21.26
19.75
18.05
16.88
16.83
18.05
20.25
22.80
24.89
25.81
25.06
22.54
18.57
13.90
9.60
6.79
6.21
7.79
10.42
12.31
11.57
7.13
-0.73
-10.31
-19.20
-25.11
-26.78
-24.22
-18.53
-11.33
-4.19
1.71
5.62
7.22
6.66
4.57
1.97
0.07
-0.14
1.71
5.28
9.56
13.32
15.54
15.78
14.20
11.42
8.19
5.10
2.47
0.40
-1.06
-1.88
-2.03
-1.58
-0.78
-0.02
0.30
-0.00
-0.81
-1.76
-2.48
-2.78
-2.83
-3.08
-4.03
-5.95
-8.68
-11.65
-14.09
-15.33
-15.03
-13.32
-10.65
-7.57
-4.45
-1.42
1.63
4.83
8.20
11.55
14.56
16.95
18.58
19.50
19.93
20.09
20.16
20.20
20.14
19.86
19.28
18.43
17.39
16.35
15.44
14.73
14.21
13.79
13.37
12.88
12.30
11.63
10.87
10.02
9.01
7.79
6.31
4.58
2.65
0.58
-1.63
-3.99
-6.57
-9.35
-12.24
-15.02
-17.42
-19.30
-20.72
-21.99
-23.51
-25.57
-28.18
-31.06
-33.69
-35.57
-36.44
-36.29
-35.37
-33.97
-32.28
-30.36
-28.14
-25.56
-22.68
-19.68
-16.75
-14.08
-11.69
-9.57
-7.67
-5.97
-4.50
-3.31
-2.40
-1.71
-1.15
-0.66
-0.18
0.31
0.85
1.45
2.14
2.92
3.74
4.55
5.28
5.86
6.21
6.28
6.00
5.41
4.67
3.99
3.56
3.46
3.54
3.54
3.21
2.45
1.42
0.39
-0.41
-0.94
-1.38
-2.08
-3.26
-4.91
-6.70
-8.14
-8.77
-8.38
-7.10
-5.30
-3.38
-1.61
-0.02
1.53
3.22
5.14
7.21
9.22
10.94
12.22
13.04
13.54
13.87
14.12
14.20
13.96
13.24
12.07
10.68
9.47
8.84
8.92
9.47
10.00
9.97
9.09
7.45
5.44
3.55
2.07
0.99
0.09
-0.84
-1.89
-2.99
-3.96
-4.74
-5.41
-6.17
-7.19
-8.50
-9.96
-11.35
-12.50
-13.37
-14.02
-14.62
-15.26
-15.98
-16.72
-17.32
-17.58
-17.31
-16.38
-14.81
-12.70
-10.20
-7.47
-4.67
-1.93
0.61
2.73
4.27
5.13
5.42
5.44
5.63
6.39
7.94
10.20
12.80
15.14
16.66
16.95
15.97
13.99
11.57
9.27
7.49
6.35
5.75
5.47
5.32
5.23
5.25
5.42
5.67
5.88
5.86
5.52
4.93
4.28
3.77
3.52
3.45
3.34
2.94
2.07
0.73
-0.96
-2.76
-4.49
-6.03
-7.36
-8.49
-9.43
-10.16
-10.67
-10.96
-11.10
-11.22
-11.50
-12.05
-12.95
-14.14
-15.44
-16.62
-17.48
-17.83
-17.62
-16.80
-15.40
-13.44
-10.99
-8.17
-5.17
-2.25
0.38
2.61
4.46
6.04
7.49
8.91
10.27
11.51
12.52
13.25
13.66
13.78
13.63
13.26
12.73
12.11
11.44
10.77
10.15
9.56
9.03
8.51
7.92
7.15
6.13
4.87
3.52
2.32
1.48
1.06
0.89
0.67
0.10
-0.91
-2.21
-3.44
-4.27
-4.52
-4.30
-3.87
-3.53
-3.47
-3.73
-4.24
-4.95
-5.87
-7.09
-8.63
-10.40
-12.08
-13.27
-13.57
-12.76
-10.92
-8.41
-5.68
-3.16
-1.07
0.63
2.13
3.63
5.18
6.65
7.74
8.16
7.80
6.82
5.58
4.52
3.90
3.71
3.74
3.69
3.40
2.94
2.51
2.33
2.44
2.64
2.69
2.39
1.82
1.26
1.03
1.34
2.09
2.95
3.53
3.54
2.96
1.97
0.83
-0.21
-1.08
-1.82
-2.51
-3.23
-4.01
-4.84
-5.71
-6.65
-7.67
-8.78
-9.89
-10.86
-11.54
-11.79
-11.54
-10.81
-9.65
-8.16
-6.46
-4.67
-2.89
-1.21
0.34
1.72
2.90
3.81
4.32
4.35
3.91
3.21
2.53
2.18
2.29
2.73
3.23
3.50
3.44
3.17
2.92
2.90
3.12
3.44
3.57
3.36
2.83
2.14
1.57
1.28
1.26
1.37
1.37
1.08
0.45
-0.42
-1.34
-2.17
-2.86
-3.49
-4.22
-5.17
-6.39
-7.73
-9.04
-10.18
-11.10
-11.86
-12.48
-12.92
-13.03
-12.64
-11.72
-10.41
-9.04
-7.90
-7.14
-6.64
-6.11
-5.19
-3.71
-1.71
0.53
2.59
4.15
5.05
5.33
5.22
4.96
4.75
4.69
4.73
4.82
4.91
5.02
5.26
5.72
6.42
7.26
8.02
8.50
8.57
8.32
7.93
7.64
7.58
7.67
7.72
7.53
7.03
6.34
5.73
5.39
5.34
5.32
4.93
3.83
1.88
-0.77
-3.71
-6.49
-8.79
-10.51
-11.78
-12.82
-13.81
-14.76
-15.51
-15.82
-15.50
-14.57
-13.18
-11.61
-10.08
-8.71
-7.48
-6.27
-5.00
-3.61
-2.15
-0.67
0.75
2.08
3.31
4.40
5.30
5.95
6.29
6.36
6.22
6.00
5.81
5.73
5.79
5.99
6.28
6.57
6.80
6.85
6.66
6.19
5.50
4.68
3.88
3.16
2.53
1.92
1.24
0.45
-0.50
-1.55
-2.68
-3.81
-4.90
-5.88
-6.68
-7.29
-7.78
-8.29
-9.00
-10.04
-11.43
-12.98
-14.42
-15.45
-15.85
-15.57
-14.66
-13.28
-11.61
-9.75
-7.81
-5.81
-3.81
-1.87
-0.06
1.58
3.02
4.26
5.33
6.27
7.10
7.84
8.46
8.89
9.04
8.82
8.24
7.38
6.42
5.55
4.91
4.53
4.37
4.29
4.22
4.08
3.86
3.58
3.22
2.76
2.18
1.46
0.64
-0.20
-1.02
-1.79
-2.50
-3.14
-3.71
-4.21
-4.67
-5.16
-5.80
-6.67
-7.77
-9.02
-10.26
-11.36
-12.24
-12.93
-13.46
-13.84
-14.02
-13.92
-13.47
-12.59
-11.29
-9.62
-7.65
-5.55
-3.48
-1.64
-0.12
1.08
2.10
3.13
4.36
5.86
7.55
9.26
10.83
12.12
13.11
13.83
14.29
14.47
14.25
13.54
12.30
10.64
8.81
7.11
5.81
4.99
4.58
4.38
4.17
3.79
3.19
2.43
1.62
0.89
0.31
-0.12
-0.43
-0.69
-0.96
-1.29
-1.70
-2.26
-2.98
-3.91
-5.03
-6.32
-7.76
-9.30
-10.89
-12.42
-13.73
-14.62
-14.88
-14.46
-13.38
-11.85
-10.09
-8.33
-6.67
-5.09
-3.50
-1.85
-0.13
1.56
3.10
4.43
5.50
6.36
7.08
7.72
8.30
8.80
9.20
9.51
9.71
9.80
9.78
9.66
9.43
9.10
8.68
8.14
7.47
6.72
5.98
5.34
4.88
4.57
4.29
3.87
3.20
2.30
1.25
0.22
-0.72
-1.53
-2.28
-3.03
-3.81
-4.65
-5.54
-6.47
-7.49
-8.62
-9.89
-11.23
-12.53
-13.60
-14.28
-14.43
-14.04
-13.18
-11.96
-10.55
-9.03
-7.45
-5.78
-3.97
-2.02
0.01
1.96
3.69
5.04
5.94
6.42
6.57
6.57
6.55
6.63
6.85
7.27
7.89
8.68
9.54
10.30
10.77
10.79
10.32
9.45
8.44
7.59
7.09
7.01
7.27
7.72
8.19
8.57
8.76
8.82
8.70
8.27
7.40
6.11
4.61
3.22
2.28
2.01
2.59
3.78
4.98
5.56
5.22
4.19
3.08
2.66
3.55
6.24
10.44
15.15
19.07
21.44
22.38
22.92
24.65
29.04
36.98
47.56
58.08
65.22
66.53
61.27
50.14
34.47
13.61
-10.46
-33.13
-49.24
-55.92
-53.83
-46.31
-38.06
-33.14
-33.41
-37.55
-42.71
-46.40
-47.75
-47.46
-46.82
-46.63
-46.66
-45.96
-43.38
-38.98
-34.09
-30.51
-29.46
-30.88
-33.71
-36.42
-37.72
-36.87
-34.18
-30.76
-28.03
-27.04
-28.32
-31.99
-37.44
-43.07
-46.30
-44.41
-35.57
-19.75
0.99
23.23
43.45
58.87
68.35
72.36
72.23
69.36
64.76
58.37
51.25
43.99
37.20
31.57
27.69
25.81
25.70
26.55
27.23
26.81
24.82
21.72
18.58
16.60
16.37
17.51
19.04
20.11
20.58
20.55
19.83
17.41
11.60
1.15
-13.54
-29.68
-42.91
-49.02
-46.19
-36.15
-23.24
-12.53
-7.37
-7.94
-11.55
-14.58
-14.58
-11.47
-7.28
-4.58
-4.79
-7.35
-10.15
-10.83
-8.45
-3.95
0.54
3.03
2.83
0.80
-1.35
-2.16
-1.18
0.98
3.27
4.83
5.37
5.14
4.52
3.77
2.87
1.69
0.18
-1.50
-3.02
-4.13
-4.71
-4.84
-4.75
-4.61
-4.61
-4.84
-5.41
-6.33
-7.55
-8.85
-9.90
-10.36
-10.01
-8.92
-7.40
-5.91
-4.89
-4.60
-5.06
-6.04
-7.20
-8.22
-8.92
-9.28
-9.35
-9.18
-8.80
-8.21
-7.44
-6.59
-5.81
-5.22
-5.10
-5.44
-6.01
-6.44
-6.39
-5.63
-4.10
-1.95
0.56
3.12
5.46
7.46
9.16
10.75
12.49
14.57
16.97
19.45
21.65
23.38
24.71
25.98
27.58
29.80
32.52
35.30
37.50
38.64
38.67
38.03
37.43
37.50
38.69
41.10
44.35
47.63
49.74
49.38
45.59
38.10
27.55
15.83
5.36
-1.91
-5.35
-5.74
-4.80
-3.95
-4.08
-5.39
-7.26
-9.18
-11.48
-15.28
-21.86
-31.98
-44.91
-59.11
-72.50
-82.30
-86.11
-82.86
-73.44
-60.61
-48.84
-42.81
-44.45
-54.93
-71.72
-88.22
-95.99
-88.31
-63.23
-28.08
10.15
42.58
61.12
62.15
47.60
23.77
-1.37
-18.60
-20.57
-3.36
31.37
76.65
121.91
155.07
166.05
150.63
113.36
66.75
27.22
7.61
11.78
33.47
59.76
77.42
78.65
63.05
35.21
1.19
-34.72
-69.74
-100.80
-123.58
-133.62
-128.85
-111.60
-88.50
-66.86
-51.14
-40.74
-31.31
-18.88
-3.31
11.21
18.61
14.64
0.13
-18.99
-34.14
-38.40
-30.21
-14.44
0.35
5.95
-1.77
-20.32
-41.98
-56.95
-58.03
-44.48
-22.22
-0.38
13.22
15.00
6.69
-7.61
-23.18
-35.38
-41.98
-44.69
-46.39
-47.11
-46.04
-38.04
-20.89
3.47
30.03
53.02
67.69
72.40
69.17
62.20
56.13
53.48
54.52
57.57
59.78
58.63
53.32
44.99
35.80
28.15
23.27
21.51
22.50
25.36
29.07
33.05
36.97
40.40
42.75
42.88
39.87
33.55
24.83
15.60
8.31
5.00
6.26
10.98
16.73
21.10
22.84
22.33
21.26
21.59
24.41
29.31
34.62
38.30
39.13
37.43
35.10
34.81
38.70
47.02
57.28
64.15
60.65
40.45
0.64
-55.91
-119.87
-177.56
-214.75
-221.26
-194.12
-138.48
-65.88
9.00
71.93
112.08
124.19
110.05
78.48
43.17
18.28
12.87
26.70
50.22
68.94
70.35
49.99
13.40
-26.84
-57.38
-70.08
-64.99
-48.27
-28.19
-11.40
-1.05
3.17
3.30
1.36
-1.87
-7.61
-16.61
-28.30
-41.11
-53.39
-64.02
-72.66
-79.79
-86.40
-94.62
-104.74
-115.58
-126.02
-136.20
-147.17
-160.07
-175.24
-191.81
-209.25
-224.27
-231.65
-226.61
-206.76
-172.58
-127.15
-75.41
-12.46
53.99
110.38
147.55
166.03
172.41
173.75
174.66
176.48
177.75
173.69
161.25
140.55
114.35
86.76
61.91
42.59
29.43
20.69
13.03
5.29
-1.18
-4.01
-1.25
7.33
19.74
32.51
41.93
44.35
38.51
25.43
7.66
-10.87
-25.55
-32.49
-29.24
-13.91
12.49
46.26
80.26
102.79
103.68
81.20
43.32
3.35
-26.40
-39.65
-37.38
-26.26
-14.79
-9.02
-9.20
-13.03
-17.57
-20.84
-22.68
-24.30
-27.00
-30.83
-34.05
-34.25
-29.83
-21.60
-12.26
-5.12
-2.61
-5.18
-11.12
-17.06
-19.59
-17.09
-10.25
-1.48
6.27
10.82
11.55
9.54
6.92
5.74
6.85
9.66
12.73
14.60
14.47
12.43
9.29
6.14
3.85
2.84
3.09
4.41
6.58
9.39
12.63
15.99
19.07
21.46
22.82
22.98
22.11
20.55
18.76
17.13
15.88
14.97
14.20
13.34
12.26
10.94
9.44
7.79
6.01
4.09
2.05
-0.04
-1.99
-3.60
-4.72
-5.30
-5.39
-5.03
-4.32
-3.47
-2.81
-2.67
-3.16
-4.15
-5.30
-6.17
-6.20
-4.97
-2.53
0.50
3.24
4.86
4.81
2.98
-0.26
-3.83
-6.42
-7.06
-5.64
-2.80
0.46
3.16
4.70
5.04
5.07
6.15
9.36
15.05
22.94
32.32
41.70
48.77
48.27
36.17
13.04
-14.99
-39.83
-55.62
-60.47
-55.91
-45.16
-31.73
-18.30
-6.95
0.41
2.16
-1.86
-9.44
-17.82
-24.06
-26.40
-24.88
-21.02
-17.20
-15.78
-18.07
-24.31
-33.60
-43.70
-51.25
-52.36
-43.97
-24.83
2.14
30.94
54.99
69.83
74.97
73.27
68.61
63.55
58.26
51.44
42.66
33.41
26.15
20.42
14.19
4.79
-7.95
-20.73
-29.23
-31.49
-29.81
-29.71
-35.00
-45.29
-55.87
-60.08
-53.01
-34.45
-8.82
17.59
38.19
49.51
52.43
50.89
49.61
51.58
57.04
63.83
68.95
69.91
66.01
58.45
49.77
42.92
40.01
41.29
44.49
45.08
37.09
15.18
-23.10
-75.47
-134.24
-187.72
-222.90
-229.40
-202.85
-146.97
-73.10
2.36
62.19
92.85
88.23
51.30
-6.97
-70.78
-123.99
-154.31
-155.95
-130.19
-84.01
-27.61
28.39
74.98
106.20
119.82
117.23
102.71
81.99
60.60
42.54
29.58
21.48
16.81
13.87
11.24
8.18
4.71
1.34
-1.20
-2.23
-1.26
1.73
6.19
11.06
15.30
18.39
20.20
20.86
20.78
20.67
21.29
23.03
25.76
28.92
32.04
34.36
34.91
33.13
29.38
24.90
21.18
19.46
20.51
24.98
32.58
41.71
50.05
55.32
55.50
48.87
34.35
9.58
-22.70
-54.93
-79.65
-93.96
-99.30
-98.76
-94.99
-89.53
-83.21
-76.24
-69.34
-64.32
-63.15
-66.78
-74.41
-83.56
-90.29
-90.14
-80.50
-59.76
-30.16
3.16
34.42
59.51
77.05
88.15
94.85
98.61
99.11
94.28
82.36
63.75
41.54
20.31
4.14
-4.90
-7.01
-4.62
-0.41
3.40
5.74
6.66
6.66
6.14
5.11
3.42
1.05
-1.83
-4.89
-7.55
-9.37
-10.10
-9.88
-9.04
-7.99
-7.03
-6.35
-6.10
-6.29
-6.77
-7.21
-7.25
-6.60
-5.23
-3.40
-1.58
-0.28
0.30
0.29
0.05
-0.03
0.23
0.72
1.09
1.03
0.36
-0.88
-2.42
-3.93
-5.17
-6.05
-6.65
-7.14
-7.63
-8.07
-8.30
-8.11
-7.39
-6.23
-4.88
-3.66
-2.77
-2.21
-1.74
-1.04
0.15
1.87
3.87
5.74
7.10
7.74
7.73
7.34
6.87
6.51
6.23
5.87
5.33
4.65
4.05
3.82
4.08
4.68
5.21
5.25
4.53
3.16
1.54
0.21
-0.42
-0.30
0.30
0.90
1.08
0.66
-0.24
-1.32
-2.24
-2.80
-3.04
-3.12
-3.28
-3.68
-4.35
-5.20
-6.09
-6.88
-7.52
-7.99
-8.25
-8.18
-7.62
-6.46
-4.66
-2.39
0.10
2.56
4.81
6.82
8.68
10.46
12.15
13.61
14.64
15.02
14.66
13.67
12.30
10.88
9.73
8.97
8.53
8.16
7.63
6.80
5.73
4.59
3.51
2.50
1.40
0.02
-1.72
-3.66
-5.46
-6.74
-7.31
-7.33
-7.22
-7.47
-8.38
-9.89
-11.63
-13.12
-14.07
-14.51
-14.78
-15.33
-16.48
-18.22
-20.24
-22.05
-23.16
-23.28
-22.34
-20.41
-17.69
-14.31
-10.38
-5.99
-1.33
3.28
7.43
10.73
12.99
14.26
14.77
14.79
14.45
13.66
12.21
10.01
7.37
5.06
4.15
5.62
9.86
16.37
23.81
30.46
34.79
36.00
34.13
29.89
24.25
17.98
11.58
5.32
-0.50
-5.50
-9.21
-11.36
-12.05
-11.81
-11.34
-11.23
-11.62
-12.19
-12.29
-11.33
-9.06
-5.69
-1.81
1.93
5.03
7.26
8.61
9.18
8.98
7.96
6.08
3.39
0.10
-3.44
-6.79
-9.60
-11.67
-12.99
-13.68
-13.90
-13.69
-12.95
-11.49
-9.23
-6.26
-2.98
0.11
2.55
4.19
5.13
5.75
6.37
7.18
8.12
9.03
9.82
10.50
11.18
11.99
12.90
13.71
14.10
13.77
12.60
10.72
8.43
6.12
4.07
2.36
0.95
-0.26
-1.24
-1.84
-1.84
-1.13
0.22
1.95
3.68
5.11
6.07
6.53
6.50
5.98
4.86
3.03
0.44
-2.79
-6.38
-9.95
-13.10
-15.55
-17.19
-18.14
-18.66
-19.05
-19.50
-20.01
-20.40
-20.42
-19.90
-18.87
-17.51
-16.08
-14.67
-13.18
-11.32
-8.76
-5.33
-1.15
3.42
7.86
11.70
14.61
16.41
17.09
16.73
15.46
13.49
11.09
8.64
6.59
5.33
5.10
5.90
7.45
9.27
10.86
11.94
12.52
12.91
13.47
14.37
15.45
16.22
16.14
14.92
12.71
10.01
7.46
5.52
4.26
3.42
2.58
1.44
0.01
-1.41
-2.42
-2.79
-2.60
-2.28
-2.34
-3.19
-4.85
-7.03
-9.20
-10.90
-11.91
-12.29
-12.29
-12.06
-11.62
-10.78
-9.29
-7.09
-4.35
-1.48
1.09
3.11
4.59
5.76
6.92
8.20
9.53
10.67
11.42
11.71
11.65
11.46
11.33
11.27
11.15
10.73
9.86
8.57
7.15
5.99
5.47
5.72
6.57
7.60
8.31
8.34
7.57
6.18
4.46
2.65
0.85
-0.99
-2.95
-4.98
-6.89
-8.34
-9.06
-8.96
-8.24
-7.28
-6.51
-6.17
-6.23
-6.47
-6.59
-6.42
-5.95
-5.37
-4.84
-4.50
-4.33
-4.27
-4.23
-4.21
-4.25
-4.42
-4.75
-5.11
-5.30
-5.07
-4.26
-2.92
-1.32
0.08
0.86
0.81
-0.00
-1.20
-2.35
-3.18
-3.62
-3.82
-3.94
-4.03
-3.90
-3.35
-2.26
-0.79
0.68
1.67
1.91
1.39
0.41
-0.62
-1.34
-1.66
-1.77
-1.97
-2.50
-3.35
-4.28
-4.94
-5.08
-4.72
-4.11
-3.63
-3.51
-3.71
-4.02
-4.18
-4.13
-4.03
-4.17
-4.72
-5.60
-6.45
-6.84
-6.41
-5.09
-3.10
-0.84
1.31
3.08
4.35
5.22
5.86
6.45
7.11
7.82
8.49
9.01
9.35
9.58
9.84
10.24
10.76
11.23
11.40
11.09
10.32
9.27
8.23
7.43
6.90
6.50
5.99
5.18
4.10
2.96
2.10
1.77
1.98
2.49
2.90
2.85
2.17
0.91
-0.76
-2.64
-4.64
-6.75
-8.95
-11.13
-13.02
-14.30
-14.75
-14.42
-13.65
-12.97
-12.85
-13.50
-14.73
-16.05
-16.84
-16.69
-15.51
-13.55
-11.24
-8.94
-6.77
-4.64
-2.37
0.08
2.55
4.69
6.21
7.00
7.26
7.38
7.74
8.47
9.43
10.27
10.64
10.39
9.62
8.59
7.63
6.90
6.42
6.02
5.54
4.90
4.17
3.51
3.12
3.02
3.07
3.00
2.57
1.73
0.64
-0.41
-1.14
-1.47
-1.55
-1.66
-2.06
-2.82
-3.82
-4.85
-5.73
-6.44
-7.14
-8.01
-9.18
-10.61
-12.10
-13.40
-14.33
-14.84
-15.02
-14.98
-14.81
-14.47
-13.83
-12.74
-11.08
-8.90
-6.41
-3.97
-1.91
-0.43
0.50
1.11
1.74
2.59
3.71
4.90
5.94
6.66
7.03
7.19
7.29
7.39
7.45
7.42
7.35
7.42
7.82
8.65
9.75
10.75
11.16
10.63
9.13
7.01
4.88
3.30
2.58
2.66
3.12
3.48
3.37
2.75
1.85
1.01
0.40
-0.05
-0.60
-1.50
-2.79
-4.26
-5.58
-6.39
-6.64
-6.63
-6.80
-7.43
-8.37
-9.17
-9.29
-8.42
-6.50
-4.01
-1.67
-0.09
0.70
1.24
2.27
4.29
7.24
10.73
13.99
16.23
17.06
16.81
16.33
16.48
17.84
20.53
24.68
30.12
36.20
41.92
46.26
48.42
47.81
44.11
35.34
21.40
4.18
-13.79
-31.09
-47.35
-61.84
-72.45
-76.00
-69.54
-51.76
-24.58
6.89
35.97
56.73
65.86
63.19
51.15
33.41
13.90
-4.30
-19.31
-30.21
-36.76
-39.27
-38.58
-35.89
-32.43
-29.05
-26.25
-24.33
-23.38
-23.24
-23.49
-23.68
-23.44
-22.68
-21.43
-19.97
-18.59
-17.58
-17.01
-16.72
-16.55
-16.53
-16.98
-18.19
-20.06
-21.69
-21.45
-17.56
-9.02
3.60
18.11
31.48
41.11
45.78
45.93
43.04
38.71
33.97
29.23
24.62
20.16
16.03
12.32
8.81
5.06
0.72
-4.15
-9.19
-13.81
-17.53
-20.11
-21.54
-21.85
-21.01
-18.96
-15.81
-11.90
-7.72
-3.66
0.12
3.69
7.21
10.69
13.97
16.71
18.60
19.43
19.04
17.36
14.27
9.75
3.96
-2.54
-8.79
-13.51
-15.52
-14.18
-9.73
-3.25
3.61
9.32
13.07
14.90
15.58
15.95
16.53
17.24
17.65
17.30
16.18
14.73
13.62
13.25
13.48
13.80
13.58
12.47
10.53
8.18
5.91
3.83
2.00
0.00
-2.65
-6.29
-10.88
-16.05
-21.05
-24.93
-27.00
-27.27
-26.46
-25.68
-26.04
-28.05
-31.68
-36.01
-39.51
-40.90
-39.97
-37.54
-34.86
-33.12
-32.68
-33.54
-34.82
-35.15
-33.56
-30.31
-26.49
-23.28
-21.65
-21.90
-24.59
-29.78
-36.87
-44.78
-52.46
-58.43
-60.66
-57.44
-45.07
-24.68
-1.79
18.23
35.42
51.54
67.46
83.56
96.47
104.35
106.19
103.05
97.79
93.55
92.00
93.32
96.69
100.69
104.14
105.55
104.09
99.63
92.31
81.89
68.29
52.04
34.07
15.66
-2.20
-18.35
-31.42
-40.39
-45.17
-46.36
-45.06
-42.70
-40.94
-40.80
-41.63
-41.53
-38.87
-33.56
-26.86
-20.68
-16.35
-14.87
-15.19
-13.77
-6.34
9.30
32.08
58.40
83.63
103.50
112.80
108.29
90.44
62.79
29.81
-4.19
-34.83
-58.10
-71.81
-79.72
-88.56
-104.31
-130.04
-165.58
-207.22
-248.15
-281.06
-283.91
-247.42
-184.37
-118.57
-64.64
-23.27
11.11
42.81
72.09
96.57
111.42
114.50
108.20
96.90
83.08
67.16
49.71
32.80
19.23
8.50
-1.88
-13.43
-25.88
-36.54
-41.25
-35.87
-18.56
8.76
39.87
67.91
89.32
103.69
111.02
110.58
100.68
79.88
48.59
9.71
-31.76
-68.73
-93.66
-105.63
-109.40
-111.57
-115.56
-120.62
-119.16
-103.84
-71.11
-24.79
24.36
64.03
84.05
80.32
56.61
23.03
-11.66
-37.12
-47.73
-44.67
-32.58
-18.47
-8.11
-2.89
0.81
8.77
26.25
54.67
91.89
135.81
182.60
226.92
262.86
285.04
289.03
272.93
237.56
176.10
96.98
18.40
-43.22
-81.87
-100.47
-105.47
-102.99
-98.43
-95.62
-94.46
-93.97
-92.84
-89.59
-82.62
-72.13
-58.38
-43.71
-31.08
-21.42
-15.57
-14.49
-18.94
-28.51
-41.58
-55.74
-68.80
-79.06
-85.16
-88.32
-90.18
-94.52
-104.01
-118.36
-134.21
-146.90
-152.56
-149.33
-138.12
-121.00
-99.20
-71.69
-36.12
8.38
58.68
107.59
146.74
170.08
176.94
172.07
162.92
155.99
153.45
152.56
148.35
137.65
121.67
105.70
95.68
94.07
99.28
106.45
110.12
106.83
96.84
83.60
71.79
64.89
62.99
64.53
66.74
65.97
57.95
39.39
8.93
-32.06
-79.93
-130.57
-177.71
-214.21
-234.25
-235.67
-219.87
-191.09
-154.56
-107.97
-57.69
-12.76
22.44
49.97
72.86
94.05
112.51
124.91
127.23
115.56
90.22
52.34
8.29
-35.19
-73.36
-103.46
-125.04
-139.36
-148.64
-153.22
-152.03
-144.55
-133.03
-121.48
-112.24
-106.49
-105.10
-108.95
-116.38
-123.53
-125.65
-119.14
-101.88
-70.76
-24.52
34.33
99.67
164.48
222.24
267.76
297.78
296.89
261.10
204.00
147.19
104.14
76.16
57.98
43.98
31.12
19.49
12.77
13.16
18.53
23.85
25.00
21.26
14.95
9.35
6.25
6.74
9.08
9.39
4.69
-4.72
-15.94
-26.47
-36.17
-46.79
-57.98
-66.90
-69.29
-62.03
-45.81
-25.98
-10.63
-6.04
-12.64
-23.97
-31.22
-28.91
-18.13
-5.50
1.41
-1.42
-12.47
-26.18
-36.49
-40.31
-38.61
-34.88
-32.57
-32.91
-34.67
-35.33
-32.61
-25.70
-15.64
-4.81
4.22
9.23
9.55
6.62
3.25
2.37
5.56
12.31
20.31
26.66
29.39
28.40
25.46
22.64
21.09
20.51
19.50
16.46
10.39
1.23
-10.37
-22.69
-33.83
-41.90
-45.39
-43.79
-38.01
-30.00
-21.62
-13.33
-3.21
11.10
30.46
53.07
75.12
93.16
106.97
120.20
133.50
146.59
155.11
151.84
131.44
94.69
48.88
4.42
-30.20
-52.02
-62.70
-66.40
-66.36
-63.37
-56.88
-47.11
-36.06
-27.15
-23.68
-26.58
-34.21
-42.79
-48.52
-47.33
-37.55
-20.16
1.40
21.99
36.64
42.11
38.48
29.59
21.91
21.62
31.86
51.03
73.23
91.33
100.54
100.97
97.37
96.57
103.46
118.47
137.98
155.01
162.19
155.02
133.77
102.66
67.35
31.94
-2.50
-37.43
-74.72
-114.09
-151.98
-182.52
-199.99
-201.41
-188.02
-164.83
-138.47
-114.60
-95.71
-80.61
-65.83
-48.02
-26.03
-1.61
21.65
40.39
53.21
61.08
66.19
70.05
71.91
68.78
57.10
35.01
4.00
-31.35
-65.01
-91.69
-108.53
-115.33
-113.45
-104.13
-87.78
-64.12
-33.29
2.56
38.93
70.12
91.40
101.12
101.46
97.02
92.31
89.35
86.40
79.06
63.12
37.17
3.81
-31.29
-62.06
-84.13
-95.69
-97.87
-93.62
-86.16
-78.11
-71.27
-66.55
-64.63
-65.25
-66.33
-66.24
-64.78
-62.69
-61.25
-61.44
-63.30
-67.14
-72.52
-76.82
-79.13
-80.52
-81.59
-81.92
-80.24
-75.80
-71.75
-72.73
-79.70
-92.80
-110.56
-127.50
-136.54
-132.46
-114.31
-88.20
-61.96
-37.65
-16.90
-2.48
3.77
-0.21
-16.51
-29.28
-27.10
-30.15
-42.15
-50.51
-50.40
-40.91
-24.17
-3.62
17.67
35.16
46.12
53.98
60.63
64.67
64.81
60.38
51.71
40.22
26.02
9.74
-4.35
-14.27
-21.59
-28.64
-37.72
-50.33
-66.47
-85.63
-105.50
-120.28
-125.00
-116.99
-94.84
-59.01
-12.38
39.71
89.65
130.30
158.50
175.07
184.25
192.46
205.08
224.16
247.77
271.24
289.62
300.05
301.67
294.90
280.68
259.69
232.56
200.38
165.24
130.09
98.17
71.98
52.42
38.46
27.62
17.08
4.99
-8.71
-22.29
-33.26
-39.59
-40.81
-38.15
-34.05
-31.08
-31.10
-34.80
-41.56
-49.78
-57.36
-62.50
-64.35
-63.38
-61.19
-59.64
-59.92
-61.96
-64.66
-66.73
-67.65
-68.18
-69.98
-74.57
-82.29
-92.00
-101.64
-109.36
-114.53
-117.91
-121.02
-125.11
-130.26
-135.22
-137.77
-135.63
-127.28
-112.36
-91.76
-67.40
-41.91
-18.02
2.21
18.14
30.70
42.05
54.74
70.71
90.16
111.05
129.67
142.11
145.98
141.17
129.53
114.17
98.49
85.20
75.29
67.95
61.05
52.30
39.73
21.97
-0.83
-26.45
-51.21
-71.67
-86.15
-95.03
-99.60
-101.30
-101.52
-101.02
-100.20
-99.71
-100.94
-104.91
-110.43
-113.10
-105.28
-84.89
-60.17
-45.24
-48.94
-68.96
-93.35
-110.96
-114.24
-101.55
-76.98
-46.04
-12.83
20.90
55.13
89.27
120.57
145.08
159.16
161.12
152.76
139.04
125.88
117.17
113.26
111.63
109.30
104.36
96.20
85.45
73.32
60.80
48.13
34.74
19.94
3.80
-12.79
-28.67
-42.75
-54.27
-62.94
-68.93
-72.77
-75.10
-76.38
-76.80
-76.50
-75.55
-73.81
-70.98
-66.65
-60.56
-52.76
-43.68
-33.95
-24.20
-14.84
-5.92
2.72
11.18
19.14
25.85
30.35
32.02
31.00
28.25
25.28
23.54
23.89
26.36
30.36
35.06
39.85
44.49
48.96
53.09
56.35
57.91
56.88
52.83
46.00
37.38
28.35
20.55
15.18
12.78
13.26
16.11
20.56
25.64
30.27
33.39
34.28
32.60
28.34
21.95
14.28
6.51
-0.26
-5.19
-8.00
-8.49
-6.99
-4.42
-1.92
-0.30
0.20
-0.34
-1.68
-3.66
-5.11
-5.53
-5.65
-6.95
-10.41
-15.86
-22.25
-28.14
-32.30
-31.81
-25.56
-15.48
-5.24
2.46
7.22
10.33
13.71
18.82
29.81
48.11
70.39
90.21
102.24
104.59
98.86
89.48
82.46
88.74
115.57
161.82
219.19
277.62
329.06
368.55
394.15
375.66
302.66
194.78
87.13
2.74
-55.34
-95.31
-127.08
-156.70
-184.89
-203.64
-205.85
-192.13
-170.73
-151.71
-141.74
-142.62
-150.11
-158.32
-159.29
-149.52
-132.68
-116.50
-106.81
-104.67
-107.16
-109.90
-107.78
-98.33
-82.71
-65.77
-53.13
-48.01
-50.07
-56.60
-63.82
-68.67
-69.75
-66.21
-59.18
-50.83
-43.28
-38.41
-38.18
-43.91
-56.28
-74.75
-96.93
-118.95
-136.18
-144.67
-142.54
-125.81
-93.60
-48.04
6.01
62.66
116.56
163.99
202.94
232.90
243.69
230.39
197.74
157.10
118.66
87.09
62.68
43.64
27.96
14.44
3.99
-2.09
-3.74
-2.34
0.11
1.90
2.01
0.04
-3.54
-6.75
-7.65
-5.48
-0.67
5.81
12.96
20.26
25.82
27.78
25.44
19.03
9.59
-1.18
-11.24
-18.89
-23.52
-25.83
-27.05
-27.92
-28.52
-28.50
-27.55
-25.68
-23.29
-21.07
-19.75
-19.53
-19.93
-20.18
-19.55
-17.74
-15.03
-11.95
-9.14
-7.17
-6.17
-5.89
-5.82
-5.56
-4.99
-4.40
-4.35
-5.32
-7.51
-10.58
-13.85
-16.54
-18.11
-18.38
-17.57
-16.09
-14.39
-12.77
-11.39
-10.30
-9.54
-9.23
-9.52
-10.49
-11.99
-13.61
-14.72
-14.66
-13.00
-9.75
-5.34
-0.52
3.96
7.59
10.29
12.29
13.98
15.65
17.39
18.97
20.07
20.45
20.08
19.21
18.17
17.25
16.48
15.67
14.57
13.02
11.17
9.36
8.02
7.40
7.35
7.43
7.09
6.01
4.23
2.17
0.35
-0.85
-1.36
-1.47
-1.54
-1.89
-2.67
-3.84
-5.24
-6.72
-8.22
-9.74
-11.36
-13.05
-14.70
-16.12
-17.10
-17.46
-17.14
-16.21
-14.85
-13.18
-11.21
-8.85
-6.04
-2.86
0.48
3.69
6.53
8.89
10.85
12.71
14.78
17.09
19.31
20.95
21.62
21.25
20.13
18.91
18.48
19.35
21.22
23.08
23.82
22.93
20.76
18.30
16.71
17.13
19.78
23.76
27.41
29.28
28.82
26.44
23.17
20.35
19.79
22.99
30.55
41.62
54.11
64.88
70.19
66.60
49.70
19.69
-17.03
-50.34
-72.80
-82.93
-84.05
-81.28
-78.47
-77.01
-75.57
-72.13
-65.42
-56.30
-46.89
-39.41
-35.55
-35.93
-40.56
-48.47
-58.73
-68.25
-73.43
-70.65
-57.30
-33.32
-1.27
33.84
66.07
88.92
99.69
99.21
90.55
78.35
63.80
47.56
30.02
12.00
-5.09
-19.28
-28.94
-33.25
-32.20
-26.63
-17.32
-5.44
7.16
17.83
22.28
17.65
4.30
-14.42
-34.11
-50.95
-63.06
-69.94
-71.11
-64.94
-49.84
-26.63
-0.31
20.79
28.95
21.12
1.30
-21.04
-35.22
-34.54
-19.50
3.19
24.65
38.45
42.75
40.52
35.02
28.65
22.18
15.51
8.62
2.47
-1.35
-1.78
1.23
6.01
10.08
11.21
8.13
0.87
-9.48
-21.14
-32.08
-39.84
-42.50
-39.00
-29.40
-14.71
3.41
23.07
42.71
58.14
67.17
69.74
67.45
62.37
56.29
50.49
45.72
42.27
39.84
37.97
35.49
31.00
23.51
13.19
1.43
-9.62
-18.10
-23.16
-24.92
-24.44
-23.14
-22.06
-21.56
-21.43
-21.33
-21.12
-20.91
-20.64
-20.23
-19.61
-18.69
-17.45
-16.01
-14.61
-13.54
-13.10
-13.25
-13.77
-14.31
-14.53
-14.21
-13.40
-12.39
-11.59
-11.40
-11.89
-12.81
-13.76
-14.29
-14.19
-13.56
-12.77
-12.28
-12.41
-13.36
-14.89
-16.51
-17.65
-17.98
-17.48
-16.50
-15.55
-15.04
-15.16
-15.77
-16.56
-17.17
-17.38
-17.15
-16.48
-15.33
-13.59
-11.10
-7.73
-3.59
0.97
5.47
9.49
12.85
15.63
18.10
20.47
22.78
24.80
26.18
26.61
26.06
24.80
23.26
21.88
20.83
20.06
19.31
18.32
17.01
15.50
14.03
12.82
11.92
11.18
10.35
9.24
7.80
6.18
4.58
3.18
1.97
0.77
-0.66
-2.50
-4.71
-7.01
-9.01
-10.38
-11.04
-11.28
-11.64
-12.65
-14.54
-17.05
-19.54
-21.23
-21.56
-20.43
-18.15
-15.22
-12.06
-8.82
-5.42
-1.67
2.46
6.75
10.82
14.31
17.08
19.28
21.20
23.15
25.17
27.04
28.37
28.85
28.40
27.31
26.11
25.27
25.04
25.22
25.37
24.98
23.78
21.85
19.57
17.40
15.64
14.33
13.24
12.04
10.55
8.74
6.84
5.06
3.56
2.28
0.98
-0.58
-2.46
-4.51
-6.41
-7.82
-8.61
-8.90
-9.06
-9.48
-10.39
-11.76
-13.39
-14.95
-16.21
-17.08
-17.54
-17.59
-17.15
-16.08
-14.28
-11.77
-8.72
-5.47
-2.39
0.28
2.55
4.59
6.67
8.96
11.36
13.52
14.98
15.38
14.75
13.44
12.04
11.08
10.81
11.12
11.65
11.99
11.90
11.37
10.58
9.77
9.06
8.48
7.90
7.21
6.38
5.50
4.75
4.22
3.92
3.68
3.25
2.49
1.41
0.23
-0.74
-1.29
-1.42
-1.37
-1.48
-2.03
-3.09
-4.54
-6.14
-7.70
-9.18
-10.65
-12.13
-13.56
-14.71
-15.26
-14.97
-13.77
-11.83
-9.51
-7.14
-4.93
-2.89
-0.86
1.26
3.49
5.66
7.49
8.67
9.06
8.72
7.90
6.94
6.14
5.63
5.36
5.23
5.08
4.89
4.66
4.45
4.25
3.94
3.35
2.33
0.90
-0.73
-2.30
-3.56
-4.42
-4.97
-5.40
-5.91
-6.55
-7.24
-7.87
-8.42
-8.96
-9.65
-10.56
-11.63
-12.67
-13.37
-13.52
-13.23
-12.89
-13.04
-13.97
-15.48
-16.92
-17.35
-15.87
-12.03
-6.34
-0.21
4.68
7.22
7.33
5.92
4.52
4.70
7.45
12.51
18.44
23.36
25.74
24.88
20.90
14.73
8.21
3.80
3.72
9.14
19.76
33.59
47.09
55.75
54.48
40.12
14.98
-13.49
-37.30
-52.26
-58.61
-59.13
-56.91
-53.78
-49.85
-44.39
-37.25
-29.66
-23.53
-20.34
-20.36
-22.59
-25.31
-26.62
-25.27
-21.37
-16.38
-12.28
-10.55
-11.55
-14.58
-18.20
-20.84
-21.39
-19.75
-16.88
-14.22
-12.99
-13.85
-16.85
-21.45
-26.52
-30.42
-31.33
-27.98
-20.12
-8.91
3.29
13.68
20.08
21.88
20.02
16.50
13.49
12.68
14.83
19.78
26.57
33.85
40.28
44.41
46.00
45.36
43.22
40.28
36.97
33.45
29.77
26.23
23.37
21.90
22.10
23.76
26.14
28.35
29.73
29.90
28.92
27.09
24.87
22.98
22.59
25.03
30.85
38.72
44.90
44.03
31.43
5.73
-30.35
-70.27
-106.17
-131.66
-143.65
-142.58
-131.27
-113.18
-91.30
-67.90
-44.60
-22.61
-2.61
15.56
32.83
50.00
66.80
80.99
88.43
84.45
66.61
37.12
3.00
-24.71
-36.61
-28.87
-4.54
27.70
57.38
76.49
81.85
74.82
59.61
40.70
21.74
5.11
-7.94
-17.11
-23.10
-27.20
-30.98
-35.43
-40.63
-45.51
-48.92
-49.97
-48.14
-43.45
-35.35
-24.02
-10.47
3.12
13.99
19.90
20.20
16.32
11.22
8.17
8.95
13.57
19.90
25.04
26.75
24.37
18.97
12.43
6.60
2.10
-1.11
-3.56
-5.74
-7.64
-8.56
-7.57
-4.08
1.58
7.94
13.11
15.59
14.90
11.76
7.57
3.56
0.50
-1.68
-3.71
-5.89
-7.82
-8.58
-7.12
-2.59
5.41
16.51
29.35
41.40
49.60
51.46
45.95
34.01
18.12
1.09
-15.05
-28.75
-39.69
-48.22
-54.31
-57.28
-56.41
-51.78
-44.70
-37.30
-31.70
-29.21
-29.73
-31.92
-34.00
-34.49
-32.70
-29.05
-24.74
-21.24
-20.02
-21.88
-26.64
-32.85
-37.95
-38.88
-33.25
-20.53
-2.67
16.35
32.16
41.96
45.74
46.01
46.29
49.10
54.61
60.71
64.17
62.36
54.53
41.92
26.96
12.22
-0.30
-9.25
-13.93
-13.97
-9.65
-2.04
6.97
15.08
20.62
23.83
26.76
32.19
41.73
53.78
63.34
64.12
52.02
28.22
-0.82
-26.19
-41.12
-44.33
-40.36
-36.44
-38.07
-45.95
-55.96
-62.11
-60.31
-50.58
-36.78
-24.19
-16.64
-14.76
-16.31
-17.64
-15.96
-10.66
-3.31
3.36
6.95
6.62
3.56
0.07
-1.59
-0.49
2.67
6.16
8.24
8.18
6.58
4.97
4.80
6.67
9.91
12.95
14.17
12.70
8.87
4.08
0.12
-1.60
-0.64
2.32
5.92
8.79
10.02
9.44
7.52
4.98
2.51
0.67
-0.24
-0.20
0.64
1.98
3.49
4.89
6.09
7.23
8.53
10.16
12.06
13.87
15.10
15.29
14.33
12.40
9.94
7.35
4.84
2.45
0.24
-1.63
-2.93
-3.46
-3.20
-2.32
-1.10
0.05
0.87
1.30
1.37
1.06
0.38
-0.67
-1.95
-3.26
-4.64
-6.21
-7.97
-9.95
-12.26
-14.95
-17.91
-20.63
-22.28
-22.35
-20.53
-16.96
-12.58
-9.12
-8.23
-10.77
-16.03
-21.92
-26.46
-28.40
-27.79
-26.07
-25.60
-28.18
-34.18
-42.03
-45.74
-41.12
-27.93
-8.91
12.67
34.24
53.91
69.28
77.44
75.44
61.29
36.52
7.07
-18.36
-32.03
-30.01
-14.56
7.70
29.33
45.51
56.45
65.84
77.51
89.00
96.47
92.85
74.06
41.69
2.64
-33.80
-57.96
-66.35
-62.24
-52.29
-43.45
-39.51
-40.63
-44.67
-49.06
-52.74
-55.19
-56.19
-54.18
-46.82
-32.15
-10.48
14.22
35.21
45.41
40.62
21.70
-5.20
-31.39
-49.13
-54.62
-48.49
-34.20
-15.79
4.12
24.69
44.29
61.37
74.64
82.95
85.87
84.39
80.20
75.53
72.14
71.04
72.42
76.49
83.73
94.44
108.48
122.74
132.57
132.89
120.54
95.76
63.34
30.76
5.06
-9.89
-14.64
-12.84
-8.93
-6.04
-6.16
-9.59
-16.10
-25.49
-37.41
-51.05
-65.22
-79.48
-88.31
-90.83
-88.62
-84.30
-80.02
-76.53
-73.21
-68.90
-62.79
-54.89
-46.76
-39.65
-34.08
-29.84
-26.32
-23.03
-19.68
-16.11
-12.20
-8.44
-5.05
-2.21
-0.17
0.74
0.26
-1.49
-3.93
-6.08
-7.36
-7.41
-6.31
-4.59
-3.00
-2.07
-2.03
-2.71
-3.67
-4.66
-5.57
-6.40
-7.15
-7.78
-8.25
-8.59
-8.87
-9.02
-8.97
-8.70
-8.37
-8.37
-9.28
-11.57
-15.41
-20.40
-25.42
-29.20
-31.09
-31.40
-31.18
-31.75
-34.06
-38.27
-43.54
-47.76
-48.97
-46.78
-42.77
-39.65
-39.95
-45.05
-54.56
-66.34
-76.17
-80.24
-77.62
-70.54
-62.51
-56.58
-54.94
-59.32
-71.34
-90.29
-114.37
-141.45
-168.23
-189.11
-197.18
-187.39
-159.06
-115.67
-60.00
6.05
80.20
159.01
238.12
311.63
371.64
409.87
405.74
350.22
259.17
164.95
92.52
48.03
24.11
9.45
-4.24
-19.61
-32.50
-37.75
-34.26
-25.45
-15.57
-7.04
-0.66
3.26
4.37
4.21
4.74
6.68
9.26
11.55
12.97
12.88
10.60
6.00
1.22
-1.22
-0.54
1.64
2.77
0.81
-4.99
-14.06
-24.77
-34.55
-41.46
-45.22
-47.17
-48.96
-51.39
-54.11
-55.87
-55.32
-51.55
-44.93
-37.14
-30.47
-26.69
-26.27
-28.44
-31.69
-34.51
-35.76
-34.92
-31.76
-26.28
-18.66
-9.46
0.24
9.08
15.86
20.00
21.74
21.94
21.52
21.10
20.90
20.92
21.29
22.24
24.00
26.40
28.87
30.56
30.66
28.78
25.13
20.63
16.80
15.58
18.64
26.61
38.31
50.53
58.86
59.21
49.70
31.75
9.79
-10.42
-23.96
-28.56
-25.18
-17.14
-8.47
-2.42
-0.68
-3.34
-9.24
-16.26
-21.45
-21.43
-13.22
4.52
30.32
59.54
85.45
101.29
102.66
89.04
63.86
33.18
3.55
-19.80
-33.97
-38.59
-35.29
-27.01
-17.04
-7.99
-0.95
4.87
11.70
22.11
37.48
56.87
76.97
93.01
100.43
96.39
80.49
54.54
21.63
-14.86
-51.77
-86.24
-115.67
-137.76
-151.01
-155.29
-152.10
-144.22
-134.77
-125.98
-118.55
-111.80
-104.69
-96.77
-88.62
-81.31
-75.41
-70.32
-64.48
-56.37
-45.46
-32.52
-19.09
-6.39
5.30
16.45
27.33
37.28
44.56
47.25
44.45
36.87
26.66
16.35
7.70
1.17
-3.94
-8.79
-14.34
-20.90
-28.14
-35.38
-41.81
-46.71
-49.38
-49.45
-47.23
-43.48
-39.25
-35.47
-32.83
-31.62
-31.71
-32.36
-32.62
-31.54
-28.28
-22.29
-13.61
-3.27
6.80
14.27
18.08
18.55
17.49
17.65
21.98
32.43
49.16
70.72
94.69
120.16
145.98
169.80
188.28
198.56
199.24
190.73
175.13
155.63
138.66
128.61
125.52
126.01
126.46
124.73
120.06
112.66
103.32
98.26
101.89
113.58
128.66
142.38
151.72
155.08
151.98
143.16
137.38
142.16
159.32
185.66
217.57
252.75
289.54
326.24
320.47
253.19
142.31
26.59
-67.43
-133.84
-177.85
-207.04
-227.42
-242.71
-248.00
-239.77
-220.40
-196.69
-174.47
-156.44
-143.42
-134.68
-131.41
-129.52
-126.08
-121.67
-118.96
-119.09
-120.91
-122.62
-123.16
-122.82
-119.14
-110.89
-99.48
-88.13
-79.40
-74.24
-72.73
-74.02
-77.04
-78.96
-77.76
-73.27
-66.90
-60.28
-54.49
-50.03
-46.85
-44.55
-41.75
-37.14
-30.20
-21.27
-11.27
-1.32
7.49
14.43
19.25
22.31
24.26
25.68
26.81
27.53
27.46
26.36
24.30
21.67
19.11
17.27
16.57
17.12
18.69
20.81
22.96
24.69
25.75
26.13
25.96
25.42
24.54
23.21
21.26
18.64
15.51
12.18
9.05
6.33
4.01
1.85
-0.37
-2.80
-5.33
-7.74
-9.83
-11.52
-12.91
-14.14
-15.24
-16.06
-16.26
-15.49
-13.57
-10.61
-6.98
-3.14
0.51
3.80
6.72
9.38
11.77
13.70
14.86
14.96
13.93
12.03
9.77
7.73
6.32
5.64
5.45
5.36
5.10
4.59
4.03
3.75
3.95
4.65
5.61
6.48
7.00
7.07
6.74
6.10
5.19
3.96
2.35
0.37
-1.80
-3.92
-5.72
-7.08
-8.04
-8.90
-9.98
-11.59
-13.77
-16.27
-18.56
-20.02
-20.16
-18.80
-16.08
-12.42
-8.23
-3.85
0.56
4.91
9.09
12.89
16.03
18.26
19.47
19.77
19.39
18.64
17.78
16.93
16.04
15.00
13.67
11.99
10.07
8.09
6.30
4.84
3.70
2.76
1.88
0.96
0.03
-0.82
-1.50
-1.97
-2.22
-2.33
-2.31
-2.17
-1.86
-1.35
-0.64
0.12
0.70
0.82
0.25
-1.10
-3.16
-5.69
-8.45
-11.25
-14.06
-16.93
-19.81
-22.44
-24.38
-25.13
-24.40
-22.28
-19.18
-15.62
-12.02
-8.55
-5.14
-1.67
1.89
5.40
8.61
11.28
13.31
14.69
15.50
15.79
15.59
14.89
13.75
12.31
10.85
9.67
9.08
9.25
10.17
11.61
13.23
14.64
15.59
15.99
15.94
15.58
15.00
14.20
13.11
11.69
9.96
8.06
6.13
4.22
2.30
0.24
-2.10
-4.71
-7.45
-10.07
-12.33
-14.11
-15.50
-16.74
-18.14
-19.95
-22.15
-24.54
-26.69
-28.14
-28.57
-27.90
-26.27
-23.93
-21.09
-17.88
-14.33
-10.45
-6.35
-2.27
1.55
4.93
7.90
10.61
13.21
15.70
17.84
19.27
19.72
19.22
18.08
16.83
15.95
15.68
15.89
16.24
16.32
15.90
15.00
13.82
12.69
11.87
11.45
11.28
11.10
10.63
9.72
8.45
7.11
6.04
5.47
5.37
5.46
5.35
4.69
3.41
1.67
-0.10
-1.49
-2.18
-2.18
-1.75
-1.32
-1.30
-1.93
-3.17
-4.82
-6.55
-8.06
-9.00
-8.98
-7.63
-4.88
-1.36
1.29
0.76
-4.97
-16.41
-31.83
-47.47
-58.95
-63.04
-58.97
-48.60
-35.35
-22.72
-13.02
-6.98
-4.21
-4.07
-6.12
-10.04
-15.12
-19.80
-21.74
-18.53
-8.72
7.34
27.35
47.76
65.17
77.56
84.90
88.71
90.81
92.30
93.27
93.60
94.13
96.98
104.46
117.26
132.89
145.68
148.61
136.28
107.29
64.85
15.21
-35.06
-81.25
-121.18
-154.36
-180.60
-199.21
-209.24
-210.52
-204.35
-193.88
-183.11
-175.57
-173.36
-176.96
-185.47
-197.01
-208.70
-216.66
-216.64
-204.91
-179.11
-139.40
-88.79
-32.50
23.74
75.42
120.15
156.53
183.14
198.32
200.66
190.25
169.59
143.34
115.52
91.25
73.91
63.25
56.45
50.94
45.94
41.85
38.68
35.45
31.04
24.74
16.96
9.12
2.62
-1.99
-5.16
-7.74
-10.10
-11.86
-12.69
-12.70
-12.47
-12.57
-13.41
-15.06
-17.25
-19.44
-21.01
-21.71
-21.77
-21.71
-21.95
-22.76
-24.04
-25.57
-27.16
-28.82
-30.80
-33.12
-35.26
-35.92
-33.64
-27.62
-18.24
-6.79
5.27
17.09
28.81
40.67
52.42
62.92
70.32
73.01
70.52
63.88
54.63
45.56
38.21
33.02
29.67
27.59
26.21
25.21
24.40
23.66
23.01
22.35
21.72
21.27
21.31
22.21
24.24
27.16
29.91
30.75
27.64
19.42
6.58
-8.63
-22.91
-33.42
-38.77
-39.39
-37.02
-33.66
-30.49
-27.58
-24.44
-20.79
-16.98
-13.81
-11.90
-11.18
-10.91
-10.20
-8.65
-6.78
-5.66
-6.17
-8.19
-10.43
-11.03
-8.35
-1.74
8.19
19.66
30.57
38.88
43.01
42.01
35.60
24.44
10.22
-4.54
-17.08
-25.27
-28.32
-27.11
-23.22
-18.55
-14.42
-11.25
-8.69
-6.23
-3.65
-1.16
0.81
2.06
2.53
2.33
1.53
0.12
-1.83
-4.03
-5.99
-7.09
-7.00
-6.01
-4.81
-3.94
-3.45
-3.04
-2.43
-1.70
-1.10
-0.94
-1.62
-3.40
-6.21
-9.51
-12.62
-14.68
-14.75
-11.97
-6.48
-0.23
3.48
1.86
-5.60
-16.47
-25.92
-28.24
-18.93
3.13
33.89
65.18
87.75
94.39
81.92
51.85
7.91
-42.70
-87.36
-112.47
-109.48
-79.19
-32.13
15.27
46.91
53.19
34.88
2.39
-29.44
-48.28
-49.96
-37.16
-17.62
0.01
10.40
13.33
12.53
12.42
15.84
23.77
34.95
46.97
57.24
63.80
65.43
61.80
53.09
37.73
19.00
1.07
-16.02
-35.42
-57.60
-78.33
-89.24
-84.00
-62.26
-30.02
2.30
25.12
32.07
23.91
7.46
-8.17
-16.48
-15.45
-6.75
6.53
21.04
34.50
46.85
59.18
71.74
82.10
86.36
81.37
66.48
44.29
19.89
-0.76
-15.52
-24.57
-30.47
-36.09
-43.21
-52.01
-61.75
-69.92
-76.36
-82.26
-87.24
-91.20
-90.96
-83.96
-69.94
-51.18
-31.18
-12.80
3.05
18.07
34.20
51.14
65.69
73.09
69.96
56.90
40.96
26.60
17.03
13.21
14.12
16.80
18.75
18.26
14.87
8.91
0.90
-7.75
-15.71
-22.05
-26.61
-29.56
-31.03
-30.71
-28.05
-22.92
-15.36
-6.33
2.32
8.59
11.37
10.98
9.05
7.67
8.23
11.19
15.88
20.87
24.76
26.84
27.24
26.61
25.59
24.28
22.47
19.79
16.14
11.91
7.96
5.12
3.84
3.89
4.44
4.62
3.91
2.39
0.57
-0.96
-1.97
-2.64
-3.44
-4.77
-6.71
-8.99
-11.29
-13.46
-15.61
-17.94
-20.41
-22.57
-23.69
-23.05
-20.41
-16.13
-11.09
-6.24
-2.35
0.18
1.21
0.81
-0.65
-2.43
-3.37
-2.08
2.53
10.67
21.25
32.09
40.73
45.52
46.22
44.05
40.95
38.60
37.54
36.84
34.65
29.39
20.75
9.88
-1.11
-10.42
-17.26
-22.18
-26.74
-32.69
-41.14
-51.26
-61.23
-69.00
-73.19
-72.64
-66.07
-52.65
-33.20
-10.96
8.87
20.92
22.94
15.49
1.82
-13.08
-24.55
-29.80
-28.47
-21.84
-12.02
-1.12
8.86
15.22
15.41
7.79
-7.20
-26.54
-45.10
-57.52
-60.36
-53.55
-40.06
-24.12
-9.35
2.52
11.65
19.09
25.50
30.60
33.48
33.54
31.32
28.27
25.94
25.23
25.92
27.07
27.72
27.52
26.93
26.93
28.31
31.16
34.84
38.34
40.82
41.90
41.77
40.94
39.92
38.96
37.88
36.26
33.61
29.60
24.21
17.74
10.74
3.90
-2.11
-6.76
-9.69
-10.77
-10.11
-8.05
-5.14
-2.10
0.30
1.46
1.06
-0.80
-3.71
-7.05
-10.32
-13.24
-15.80
-18.14
-20.38
-22.45
-24.14
-25.18
-25.47
-25.09
-24.34
-23.54
-22.90
-22.48
-22.28
-22.31
-22.68
-23.49
-24.68
-25.91
-26.45
-25.37
-21.86
-15.57
-6.93
2.87
12.22
19.58
24.02
25.41
24.33
21.69
18.25
14.40
10.20
5.64
0.95
-3.39
-6.77
-8.85
-9.75
-9.95
-10.05
-10.36
-10.73
-10.63
-9.47
-7.01
-3.50
0.31
3.43
5.09
5.09
3.93
2.52
1.75
2.04
3.26
4.82
5.98
6.17
5.20
3.28
0.84
-1.61
-3.40
-3.58
-1.11
4.65
13.56
24.63
36.25
46.24
52.24
52.35
46.19
34.96
21.15
7.88
-1.70
-5.25
-2.50
4.01
9.95
11.87
8.28
0.13
-9.75
-17.41
-18.96
-12.59
0.41
16.26
31.24
41.50
43.25
33.56
12.59
-14.33
-38.10
-49.24
-41.59
-13.68
28.92
74.65
108.22
114.85
92.16
53.80
20.78
0.12
-10.57
-17.81
-26.14
-38.11
-53.04
-67.08
-77.12
-83.89
-92.32
-106.53
-127.15
-150.25
-169.07
-176.05
-164.42
-131.86
-81.87
-23.41
33.98
82.88
119.21
141.14
145.02
129.43
98.33
60.29
21.69
-15.45
-52.81
-90.14
-122.81
-143.83
-146.49
-128.56
-89.24
-32.54
29.03
80.69
112.26
121.48
112.48
95.89
77.00
58.15
39.49
20.76
3.06
-11.21
-19.83
-22.42
-19.91
-14.66
-8.55
-3.52
-0.85
-0.06
0.62
2.84
6.92
12.06
16.51
19.14
19.30
16.97
12.99
8.70
5.20
2.94
1.89
1.40
0.98
0.27
-0.98
-2.80
-4.82
-6.40
-7.00
-6.44
-5.13
-3.75
-2.32
-0.69
1.19
3.46
6.35
9.93
13.89
17.11
17.61
14.12
4.24
-13.84
-39.63
-69.73
-98.58
-119.86
-127.75
-118.61
-93.56
-54.01
-4.49
48.16
96.72
135.91
163.83
182.18
184.37
170.23
143.50
109.18
71.92
35.33
2.49
-23.91
-42.34
-53.29
-57.65
-57.57
-56.23
-54.53
-51.93
-47.37
-40.56
-32.67
-26.03
-21.64
-19.56
-19.23
-19.54
-19.49
-18.62
-17.15
-15.75
-15.28
-15.57
-16.12
-16.28
-15.21
-12.28
-7.39
-1.35
4.10
6.81
5.62
0.68
-6.30
-12.52
-15.18
-12.48
-4.10
8.81
24.26
40.23
54.85
66.37
73.27
74.48
70.02
61.46
51.63
43.65
39.64
39.94
43.22
47.44
50.89
52.97
53.87
53.63
51.42
45.65
34.94
19.33
0.80
-17.46
-31.90
-39.98
-41.31
-37.72
-32.27
-27.92
-26.46
-28.08
-32.21
-37.16
-40.73
-41.44
-39.12
-34.61
-29.05
-23.22
-17.47
-12.66
-9.08
-6.27
-3.89
-1.96
-0.58
0.13
-0.49
-4.33
-15.29
-35.64
-63.68
-93.65
-117.57
-127.97
-121.10
-98.96
-61.82
-19.09
15.86
35.01
40.18
39.05
38.46
40.93
45.18
48.74
49.06
45.52
41.31
39.52
41.07
45.02
49.59
53.38
55.82
56.26
55.02
53.09
51.58
49.81
46.58
41.35
34.69
27.73
20.67
13.14
4.47
-6.21
-19.33
-34.08
-48.43
-59.99
-67.11
-69.83
-69.34
-66.97
-63.71
-59.97
-55.47
-49.86
-43.28
-36.48
-30.60
-26.35
-23.56
-21.47
-19.32
-16.75
-13.96
-11.49
-9.79
-8.90
-8.56
-8.47
-8.52
-8.83
-9.58
-10.86
-12.71
-15.23
-18.61
-23.12
-28.83
-35.17
-40.94
-44.56
-44.79
-41.35
-35.13
-27.79
-21.28
-17.07
-15.55
-15.83
-16.30
-15.45
-12.58
-8.17
-3.57
-1.00
-2.61
-9.30
-19.84
-31.00
-38.65
-39.20
-30.72
-13.24
10.63
36.66
60.38
78.61
90.09
95.44
96.96
98.10
102.77
112.80
126.87
140.60
148.33
145.22
128.89
100.26
60.76
17.78
-18.75
-42.10
-52.53
-54.60
-52.96
-50.47
-48.22
-46.34
-44.14
-42.91
-41.85
-39.88
-35.42
-27.04
-14.45
1.10
17.20
31.39
41.26
45.37
43.73
38.05
31.24
25.99
23.74
24.52
27.76
32.49
38.02
43.68
48.95
53.19
55.73
56.33
55.68
55.47
57.30
61.99
69.07
77.29
85.31
92.03
96.56
98.15
96.53
92.39
87.99
86.66
91.37
102.65
117.37
129.40
132.10
121.25
96.90
63.21
26.30
-8.22
-37.03
-59.41
-76.35
-89.24
-99.16
-106.78
-112.82
-118.37
-124.83
-133.30
-143.99
-155.93
-167.21
-175.93
-181.19
-183.51
-184.50
-185.53
-186.49
-185.47
-179.64
-166.99
-147.83
-125.00
-102.72
-84.59
-72.13
-64.51
-59.31
-53.75
-45.55
-33.23
-15.96
6.56
33.81
64.13
94.66
121.75
141.87
152.67
153.72
146.74
134.96
122.21
111.86
106.00
105.32
109.36
117.04
127.08
138.16
148.54
155.73
156.89
149.66
133.47
110.15
83.48
57.66
35.33
16.38
-1.68
-21.84
-45.60
-71.60
-96.15
-115.11
-126.22
-130.30
-130.70
-131.31
-134.35
-139.27
-143.45
-144.11
-140.21
-133.28
-126.67
-123.69
-125.97
-132.61
-140.92
-147.56
-149.77
-146.22
-137.17
-124.21
-109.65
-95.84
-84.28
-75.16
-67.16
-58.22
-46.75
-32.74
-17.98
-5.05
4.22
9.82
13.33
17.23
23.57
32.88
44.13
55.38
64.81
71.30
74.21
72.55
65.93
55.16
42.26
29.65
19.09
11.11
5.09
-0.27
-7.37
-16.85
-26.83
-34.08
-36.53
-34.82
-31.87
-30.87
-34.02
-43.70
-59.30
-77.29
-93.25
-104.85
-112.83
-119.72
-126.93
-134.75
-145.30
-159.33
-175.70
-192.24
-207.56
-221.33
-233.10
-240.16
-220.70
-165.66
-85.03
-0.98
69.10
119.69
152.89
172.66
184.90
193.02
196.41
196.19
197.13
206.20
229.33
269.42
314.62
352.83
371.76
360.78
316.85
246.73
165.35
90.82
38.38
15.73
22.94
51.57
87.18
115.81
128.58
123.49
104.03
76.64
48.10
24.72
9.29
0.21
-6.32
-13.76
-23.36
-34.14
-44.17
-52.22
-57.84
-62.10
-66.36
-70.74
-73.79
-73.44
-68.61
-60.26
-51.17
-44.31
-42.08
-45.19
-52.30
-60.58
-66.98
-68.45
-63.72
-53.76
-41.28
-29.79
-21.98
-18.19
-16.81
-15.36
-12.05
-6.95
-1.92
0.68
-0.62
-5.46
-11.19
-15.13
-16.04
-14.62
-12.85
-12.78
-15.48
-20.64
-27.03
-31.99
-33.74
-32.12
-28.25
-23.79
-19.89
-16.62
-12.99
-7.61
2.00
16.83
35.76
56.29
75.75
92.51
106.80
120.92
126.77
122.15
109.07
92.18
76.32
64.53
57.49
53.81
50.60
46.80
40.24
30.18
17.50
4.45
-6.64
-14.72
-20.55
-26.20
-34.53
-46.30
-60.95
-76.70
-90.37
-98.37
-98.01
-88.26
-70.04
-46.15
-19.95
4.71
22.10
29.60
29.53
26.12
22.08
18.15
14.33
11.47
11.06
14.20
20.86
29.11
35.58
37.35
33.49
25.23
15.17
5.78
-1.53
-6.45
-9.56
-11.94
-14.36
-16.92
-19.26
-21.04
-22.26
-22.99
-23.17
-22.76
-21.87
-20.66
-19.19
-17.48
-15.59
-13.63
-11.72
-9.86
-8.04
-6.35
-4.92
-3.82
-3.13
-2.86
-3.03
-3.52
-4.16
-4.67
-4.89
-4.70
-4.13
-3.32
-2.43
-1.73
-1.28
-0.99
-0.64
-0.05
0.83
1.84
2.68
2.95
2.44
1.20
-0.46
-2.12
-3.42
-4.12
-4.24
-4.10
-4.10
-4.57
-5.59
-6.95
-8.41
-9.82
-11.07
-12.15
-13.17
-14.23
-15.40
-16.64
-17.80
-18.97
-20.50
-22.41
-24.52
-26.57
-28.18
-28.97
-28.78
-27.46
-25.43
-22.94
-18.74
-10.79
2.44
21.09
43.41
66.14
86.15
100.33
107.21
108.44
106.76
104.03
100.75
96.68
91.94
88.27
86.82
88.19
93.23
100.70
106.45
105.02
91.95
61.28
14.38
-39.59
-96.06
-149.84
-193.91
-221.79
-228.72
-213.02
-176.86
-120.26
-55.06
0.82
35.54
48.21
45.08
33.62
18.44
1.52
-16.31
-35.03
-52.56
-63.86
-64.88
-56.06
-41.99
-29.88
-25.97
-34.22
-55.32
-86.14
-118.79
-143.70
-153.02
-142.00
-114.21
-72.89
-23.78
25.02
66.31
96.67
116.88
126.39
127.55
123.40
116.71
108.39
98.32
87.02
76.29
68.14
63.33
61.54
61.11
60.40
58.08
53.92
48.79
44.00
40.23
37.02
33.55
28.66
21.82
13.11
3.42
-5.69
-12.75
-17.08
-19.39
-21.21
-24.55
-30.66
-39.51
-49.50
-58.09
-62.94
-62.90
-58.34
-50.59
-41.24
-31.50
-22.02
-13.06
-4.91
1.95
6.91
9.54
10.06
9.25
8.25
8.08
9.29
11.71
14.69
17.38
19.12
19.63
19.04
17.70
16.06
14.61
13.73
13.70
14.56
16.05
17.57
18.39
17.90
15.82
12.31
7.90
3.26
-0.98
-4.42
-6.84
-8.30
-9.01
-9.36
-9.72
-10.36
-11.34
-12.51
-13.61
-14.44
-14.98
-15.40
-15.93
-16.68
-17.57
-18.37
-18.81
-18.78
-18.30
-17.47
-16.31
-14.65
-12.22
-8.85
-4.66
-0.08
4.26
7.84
10.48
12.38
13.94
15.45
16.90
17.95
18.15
17.20
15.16
12.53
9.99
8.14
7.29
7.30
7.76
8.12
8.01
7.32
6.21
4.98
3.90
3.11
2.56
2.16
1.80
1.47
1.23
1.11
1.11
1.17
1.13
0.88
0.31
-0.58
-1.73
-3.07
-4.52
-6.09
-7.83
-9.81
-12.02
-14.29
-16.31
-17.71
-18.21
-17.72
-16.38
-14.49
-12.37
-10.21
-8.01
-5.73
-3.27
-0.68
1.92
4.31
6.28
7.77
8.85
9.68
10.46
11.27
12.09
12.77
13.15
13.17
12.89
12.49
12.09
11.71
11.19
10.32
8.98
7.23
5.35
3.68
2.47
1.81
1.54
1.44
1.28
0.94
0.38
-0.33
-1.13
-1.96
-2.81
-3.66
-4.53
-5.45
-6.45
-7.56
-8.78
-10.05
-11.29
-12.47
-13.56
-14.59
-15.59
-16.57
-17.50
-18.38
-19.21
-20.03
-20.80
-21.38
-21.47
-20.76
-19.08
-16.51
-13.42
-10.31
-7.58
-5.36
-3.49
-1.62
0.56
3.11
5.81
8.26
10.09
11.13
11.47
11.43
11.37
11.50
11.87
12.32
12.67
12.83
12.80
12.64
12.42
12.07
11.47
10.52
9.26
7.90
6.73
6.01
5.81
5.96
6.15
6.06
5.53
4.62
3.58
2.65
1.98
1.47
0.91
0.02
-1.35
-3.14
-5.11
-6.93
-8.32
-9.16
-9.52
-9.62
-9.70
-9.98
-10.56
-11.42
-12.49
-13.65
-14.76
-15.64
-16.13
-16.01
-15.14
-13.47
-11.13
-8.44
-5.74
-3.32
-1.25
0.62
2.54
4.72
7.16
9.58
11.52
12.59
12.64
11.88
10.71
9.60
8.80
8.29
7.85
7.25
6.40
5.44
4.65
4.26
4.33
4.72
5.14
5.39
5.39
5.27
5.22
5.37
5.70
6.02
6.05
5.60
4.61
3.27
1.87
0.73
0.00
-0.36
-0.59
-0.93
-1.57
-2.50
-3.59
-4.68
-5.68
-6.62
-7.59
-8.69
-9.93
-11.22
-12.43
-13.48
-14.36
-15.12
-15.76
-16.19
-16.20
-15.57
-14.13
-11.90
-9.09
-6.10
-3.34
-1.08
0.62
1.90
3.01
4.14
5.30
6.31
6.94
7.06
6.75
6.26
5.92
5.89
6.17
6.54
6.78
6.78
6.60
6.42
6.38
6.52
6.68
6.65
6.25
5.46
4.42
3.37
2.50
1.88
1.41
0.87
0.09
-0.98
-2.21
-3.37
-4.22
-4.67
-4.82
-4.91
-5.19
-5.80
-6.74
-7.84
-8.91
-9.85
-10.67
-11.49
-12.50
-13.82
-15.39
-17.04
-18.47
-19.41
-19.70
-19.30
-18.31
-16.86
-15.11
-13.13
-11.02
-8.85
-6.69
-4.59
-2.60
-0.71
1.09
2.77
4.28
5.52
6.44
7.05
7.49
7.96
8.63
9.59
10.79
12.05
13.17
13.94
14.30
14.30
14.04
13.63
13.16
12.65
12.07
11.34
10.40
9.19
7.76
6.20
4.71
3.45
2.50
1.84
1.38
0.98
0.62
0.31
0.10
-0.03
-0.18
-0.50
-1.09
-1.89
-2.73
-3.41
-3.79
-3.93
-4.05
-4.44
-5.34
-6.79
-8.60
-10.37
-11.67
-12.20
-11.90
-10.96
-9.66
-8.27
-6.93
-5.60
-4.20
-2.71
-1.20
0.19
1.35
2.28
3.13
4.10
5.32
6.70
7.98
8.82
8.98
8.49
7.60
6.71
6.13
5.96
6.03
6.08
5.93
5.57
5.17
4.92
4.91
4.99
4.97
4.64
4.00
3.19
2.44
1.92
1.67
1.59
1.46
1.13
0.56
-0.19
-0.93
-1.49
-1.78
-1.93
-2.17
-2.83
-4.11
-6.00
-8.24
-10.45
-12.25
-13.40
-13.83
-13.62
-12.92
-11.87
-10.63
-9.35
-8.12
-6.98
-5.84
-4.56
-2.98
-1.08
1.04
3.13
4.87
6.00
6.41
6.19
5.64
5.11
4.92
5.18
5.81
6.55
7.13
7.42
7.45
7.39
7.38
7.45
7.48
7.29
6.77
5.98
5.07
4.27
3.69
3.35
3.13
2.83
2.30
1.47
0.39
-0.78
-1.88
-2.82
-3.59
-4.35
-5.25
-6.38
-7.68
-9.01
-10.22
-11.21
-12.01
-12.64
-13.06
-13.09
-12.55
-11.32
-9.52
-7.42
-5.38
-3.68
-2.47
-1.72
-1.35
-1.27
-1.36
-1.45
-1.29
-0.56
1.01
3.54
6.89
10.72
14.54
17.90
20.46
22.05
22.62
22.17
20.76
18.44
15.36
11.73
7.81
3.81
-0.15
-4.04
-7.81
-11.34
-14.43
-16.94
-18.88
-20.47
-22.02
-23.82
-25.94
-28.23
-30.50
-32.60
-34.56
-36.43
-38.12
-39.17
-38.90
-36.64
-32.13
-25.75
-18.40
-11.23
-5.09
-0.26
3.54
6.90
10.27
13.71
16.95
19.53
21.23
22.20
22.91
23.88
25.41
27.38
29.37
30.85
31.51
31.37
30.78
30.28
30.28
30.91
31.95
32.94
33.34
32.85
31.47
29.60
27.84
26.81
26.93
28.37
30.93
34.16
37.30
39.43
39.53
36.75
30.70
21.62
10.48
-1.35
-12.42
-21.66
-28.51
-32.96
-35.37
-36.21
-35.91
-34.81
-33.24
-31.47
-29.78
-28.39
-27.40
-26.76
-26.27
-25.62
-24.47
-22.62
-19.99
-16.73
-13.16
-9.63
-6.43
-3.69
-1.41
0.54
2.26
3.73
4.87
5.51
5.57
5.10
4.27
3.29
2.30
1.33
0.30
-0.90
-2.34
-3.91
-5.43
-6.74
-7.75
-8.54
-9.27
-10.02
-10.73
-11.03
-10.43
-8.51
-5.13
-0.53
4.64
9.45
12.97
14.54
14.03
11.81
8.58
5.10
1.98
-0.44
-2.14
-3.27
-4.05
-4.62
-5.08
-5.54
-6.15
-6.90
-7.61
-7.93
-7.42
-5.65
-2.17
3.04
9.28
15.40
20.37
23.66
25.47
26.46
27.45
29.49
32.81
36.59
39.44
40.42
39.62
37.93
36.54
36.38
38.52
42.97
48.44
53.08
55.77
56.58
56.47
56.63
58.15
63.05
72.58
86.33
102.20
117.03
127.31
129.67
121.79
96.38
53.70
2.64
-44.06
-78.16
-98.81
-109.54
-114.31
-115.56
-114.26
-109.81
-102.52
-94.21
-87.18
-82.50
-79.51
-76.66
-72.81
-68.04
-62.56
-57.31
-53.45
-51.64
-51.22
-50.54
-48.23
-44.06
-39.04
-34.29
-30.97
-29.82
-31.22
-35.06
-40.25
-44.37
-43.90
-35.32
-17.08
7.91
32.29
47.25
47.50
34.54
16.11
1.92
-1.91
4.16
14.25
21.64
23.21
20.89
19.40
22.26
29.30
37.15
42.13
42.32
38.40
32.38
25.90
19.70
13.97
9.41
7.24
8.02
10.64
12.38
10.02
1.52
-12.38
-28.43
-41.89
-48.53
-45.82
-33.87
-15.21
6.08
25.40
39.33
46.64
48.84
49.26
51.03
55.00
58.92
58.64
49.85
32.30
9.58
-12.37
-28.53
-37.21
-40.52
-43.23
-48.55
-57.25
-67.17
-74.73
-76.77
-72.27
-62.68
-51.28
-41.57
-35.73
-33.87
-33.87
-32.81
-28.61
-21.21
-12.72
-6.22
-4.05
-6.34
-11.25
-15.97
-18.55
-18.99
-19.02
-20.83
-25.73
-33.29
-41.52
-48.04
-51.17
-50.39
-46.91
-42.99
-40.96
-42.30
-47.06
-53.75
-59.91
-63.01
-61.49
-55.46
-46.56
-36.91
-27.84
-19.01
-8.42
6.52
27.73
55.66
89.23
126.38
164.65
201.35
233.54
258.20
272.97
276.95
271.30
258.78
242.56
224.83
206.23
186.45
165.53
144.83
126.58
112.56
102.76
95.04
86.26
74.02
58.04
40.05
22.73
8.19
-2.95
-11.42
-18.44
-25.13
-32.33
-40.45
-48.93
-55.48
-55.92
-45.56
-21.76
13.54
53.16
86.95
105.80
105.44
87.64
58.27
23.58
-12.77
-50.04
-88.25
-125.63
-157.55
-178.15
-183.47
-173.74
-153.56
-129.87
-109.04
-94.57
-86.33
-81.82
-78.05
-73.30
-67.40
-61.34
-56.35
-53.15
-51.54
-50.51
-48.74
-45.22
-40.02
-33.97
-28.46
-25.01
-24.57
-27.07
-31.20
-35.09
-37.12
-37.58
-37.40
-37.79
-39.87
-44.09
-50.26
-57.28
-63.76
-68.71
-73.73
-80.01
-87.77
-96.71
-105.90
-114.53
-121.68
-127.21
-131.82
-139.53
-151.98
-167.64
-183.36
-195.71
-203.56
-207.96
-212.41
-220.25
-235.42
-254.74
-269.14
-269.43
-250.95
-216.56
-174.94
-137.62
-88.70
-26.88
38.84
98.54
142.00
177.44
211.73
249.67
292.04
337.78
381.79
419.81
447.28
458.51
432.37
362.37
266.51
173.51
102.84
55.74
25.05
3.48
-12.63
-22.43
-23.94
-14.38
3.43
22.89
36.15
40.13
36.94
31.35
28.36
31.64
40.79
51.13
56.81
53.73
42.63
28.05
15.49
8.88
9.82
16.65
24.67
28.98
26.79
18.78
8.15
-1.34
-7.00
-7.70
-4.81
-2.36
-6.03
-21.31
-51.86
-97.91
-154.99
-213.95
-262.50
-289.15
-287.54
-258.75
-210.78
-155.39
-103.89
-63.67
-37.06
-22.11
-15.07
-12.24
-10.68
-8.01
-2.34
7.41
20.98
36.55
51.88
64.34
71.67
72.89
68.50
59.83
48.48
36.17
24.87
17.93
17.72
24.37
35.93
49.24
60.96
68.53
71.11
69.66
68.00
68.66
71.36
74.01
74.75
73.12
70.30
68.62
70.55
79.85
96.81
117.49
135.96
147.59
150.61
146.26
138.10
115.50
79.13
40.12
9.75
-9.33
-20.84
-29.13
-36.56
-43.51
-49.57
-52.09
-50.44
-46.48
-42.70
-40.22
-38.77
-37.75
-36.89
-36.43
-34.85
-31.54
-27.15
-22.66
-18.41
-14.40
-10.87
-8.41
-7.50
-7.02
-5.92
-3.81
-0.77
3.20
8.19
14.12
20.39
25.52
27.75
24.80
14.82
-2.08
-23.11
-43.64
-59.24
-67.55
-69.06
-66.08
-61.29
-55.98
-49.41
-39.66
-25.41
-7.35
11.48
26.81
34.84
33.51
23.31
7.28
-9.75
-22.72
-27.98
-24.78
-15.70
-5.72
-0.08
-1.96
-11.37
-25.73
-41.50
-55.67
-66.28
-71.72
-69.96
-58.71
-36.81
-6.06
28.10
57.91
76.34
80.10
70.98
54.67
37.79
24.80
16.41
10.34
3.66
-5.01
-14.71
-23.17
-28.50
-30.78
-32.37
-36.74
-46.60
-62.65
-83.72
-107.64
-132.06
-154.54
-171.72
-179.55
-174.14
-153.36
-117.84
-71.01
-17.69
37.17
87.72
129.71
160.71
179.57
185.97
180.61
165.60
144.43
120.93
97.91
76.20
54.30
29.61
0.25
-32.91
-65.83
-92.50
-107.47
-108.12
-95.43
-73.49
-47.38
-21.09
3.59
26.43
47.42
65.52
78.70
85.07
83.96
76.33
64.25
49.86
34.53
18.82
3.11
-11.76
-24.19
-32.42
-35.38
-33.33
-27.79
-20.94
-14.77
-10.49
-8.40
-8.05
-8.62
-9.22
-9.10
-7.76
-5.01
-0.97
4.07
9.75
15.78
21.96
28.19
34.43
40.84
47.76
55.57
64.25
73.07
80.55
84.86
84.73
80.07
72.13
62.90
54.13
46.71
40.60
35.51
31.57
29.51
30.11
33.38
38.01
41.80
42.76
40.30
35.69
31.30
29.23
29.89
31.81
32.44
29.76
23.64
15.92
9.43
6.24
6.37
7.38
5.46
-2.75
-18.50
-40.02
-62.83
-80.86
-88.12
-80.59
-57.75
-23.01
17.02
54.34
81.81
94.78
91.61
72.82
39.78
-5.93
-61.52
-121.64
-177.99
-220.83
-242.50
-240.54
-219.02
-186.84
-154.02
-127.10
-107.33
-91.95
-77.10
-61.45
-46.71
-36.30
-32.80
-36.68
-45.19
-53.80
-58.50
-56.96
-50.08
-40.66
-32.08
-27.08
-27.81
-34.44
-45.37
-57.88
-67.85
-72.22
-68.89
-57.35
-35.19
-4.50
28.30
55.79
74.83
91.76
113.03
141.61
176.17
212.83
242.36
257.83
255.99
231.09
187.08
135.90
92.70
66.75
57.50
56.89
56.39
52.89
45.96
37.81
26.59
11.54
-8.15
-32.03
-57.92
-81.59
-98.65
-106.72
-105.12
-96.06
-83.25
-71.10
-62.86
-60.03
-61.97
-66.70
-71.82
-74.32
-72.00
-63.74
-50.19
-33.36
-16.02
-0.65
11.29
19.53
25.27
29.86
34.26
37.34
37.31
32.72
23.87
13.11
3.96
-0.43
1.01
6.77
13.25
16.79
15.11
8.77
0.83
-4.90
-5.85
-1.70
6.07
15.43
24.91
33.29
39.07
40.24
34.90
22.98
7.77
-4.29
-6.39
5.95
29.46
52.60
62.42
52.49
26.44
-4.77
-29.60
-42.20
-44.36
-42.80
-43.50
-47.57
-51.42
-50.09
-41.01
-25.79
-9.14
3.67
9.29
7.71
1.98
-3.77
-6.67
-5.91
-2.76
0.60
2.36
1.78
-0.65
-3.51
-5.31
-5.08
-2.73
1.09
5.35
9.08
11.65
13.04
13.78
14.54
15.76
17.53
19.59
21.63
23.43
24.88
25.99
26.80
27.35
28.02
28.85
29.70
30.29
30.13
28.72
25.77
21.47
16.49
11.62
7.37
3.82
0.79
-1.85
-3.87
-4.81
-4.30
-2.51
-0.23
1.49
1.89
0.99
-0.51
-1.65
-1.75
-0.80
0.63
1.77
2.00
1.15
-0.51
-2.47
-4.09
-4.70
-3.67
-0.64
4.06
9.15
12.53
11.84
5.61
-6.02
-20.88
-35.55
-46.58
-51.83
-51.20
-46.26
-39.35
-32.51
-26.80
-22.43
-19.20
-17.00
-15.90
-15.96
-16.95
-18.25
-19.07
-18.81
-17.36
-15.11
-12.68
-10.57
-8.80
-7.05
-4.71
-1.31
3.31
8.91
14.92
20.69
25.69
29.60
32.36
34.09
35.02
35.42
35.51
35.43
35.23
34.88
34.36
33.71
33.02
32.28
31.34
29.87
27.55
24.25
20.16
15.78
11.70
8.30
5.59
3.24
0.87
-1.78
-4.70
-7.75
-10.94
-14.53
-18.94
-24.44
-30.77
-37.08
-42.19
-45.07
-45.34
-43.43
-40.30
-36.93
-33.85
-31.09
-28.37
-25.54
-22.87
-20.95
-20.42
-21.54
-24.04
-27.32
-30.72
-33.83
-36.53
-38.87
-40.80
-42.05
-42.17
-40.81
-38.03
-34.33
-30.50
-27.23
-24.82
-23.08
-21.54
-19.76
-17.58
-15.19
-12.89
-10.84
-8.92
-6.75
-3.96
-0.33
4.04
8.84
13.64
17.99
21.52
23.99
25.39
25.90
25.92
25.89
26.13
26.79
27.83
29.09
30.35
31.35
31.79
31.38
29.93
27.44
24.11
20.30
16.42
12.76
9.45
6.48
3.75
1.06
-1.83
-5.17
-9.09
-13.49
-18.06
-22.35
-26.01
-29.02
-31.55
-33.77
-35.81
-37.67
-39.31
-40.74
-41.93
-42.89
-43.63
-43.92
-43.40
-41.65
-38.42
-33.72
-27.84
-21.12
-13.95
-6.71
0.52
8.09
16.51
25.96
36.06
45.85
54.12
59.80
61.99
60.81
57.55
53.81
50.40
47.12
43.22
38.09
31.71
23.64
14.34
5.37
-1.49
-5.46
-6.84
-6.44
-5.29
-4.40
-6.23
-11.98
-20.22
-28.08
-33.43
-35.65
-35.36
-33.84
-32.62
-35.36
-44.50
-59.64
-78.33
-98.14
-116.37
-129.51
-133.71
-112.89
-63.51
-0.18
56.10
94.01
113.60
121.14
123.92
126.97
131.82
134.37
129.79
115.84
93.33
63.68
29.20
-6.33
-38.14
-61.37
-74.66
-78.97
-77.91
-72.37
-64.57
-57.22
-52.71
-52.97
-58.25
-68.09
-79.47
-86.55
-82.69
-64.52
-33.78
4.63
39.67
63.11
72.15
69.54
60.91
51.63
44.00
37.87
32.36
27.03
22.95
21.21
22.01
24.49
27.37
29.10
28.93
27.29
25.84
26.19
29.65
36.62
46.31
57.12
66.79
72.96
73.69
67.82
55.69
39.02
20.28
2.06
-13.50
-25.17
-32.72
-36.58
-37.54
-36.22
-33.08
-28.70
-23.86
-19.59
-16.87
-16.31
-17.73
-20.74
-23.92
-25.63
-24.78
-21.34
-16.29
-11.04
-6.74
-3.71
-1.44
0.94
3.89
7.20
10.15
12.05
12.59
11.92
10.45
8.59
6.68
5.05
4.06
4.10
5.35
7.50
9.75
11.13
10.95
9.16
6.30
3.24
0.89
-0.31
-0.57
-0.56
-0.91
-1.85
-3.13
-4.30
-5.03
-5.04
-4.43
-3.70
-3.40
-3.67
-4.15
-4.25
-3.64
-2.36
-0.02
3.77
9.21
16.10
23.92
31.92
39.25
45.06
48.93
51.81
55.08
59.79
66.19
73.96
82.40
90.29
95.72
91.79
73.98
43.22
6.18
-28.83
-55.83
-72.49
-79.77
-80.82
-79.31
-77.25
-75.02
-72.04
-67.77
-62.18
-55.87
-49.87
-45.39
-43.27
-43.19
-44.39
-46.14
-47.81
-48.24
-45.49
-37.29
-22.18
-0.58
25.07
50.39
70.33
80.83
80.22
69.72
52.55
32.52
12.91
-4.01
-17.17
-26.42
-32.15
-34.56
-33.56
-29.02
-21.47
-12.45
-4.31
0.49
1.06
-2.06
-6.93
-11.17
-13.23
-12.93
-11.22
-9.16
-7.20
-4.98
-2.10
1.35
4.42
5.66
4.11
-0.05
-5.53
-10.30
-12.64
-11.95
-8.92
-5.22
-2.84
-3.13
-6.32
-11.47
-16.72
-19.95
-19.50
-14.56
-5.42
6.77
20.30
33.28
43.70
50.84
55.42
59.35
65.06
74.88
87.58
99.68
106.10
101.83
84.36
55.41
20.81
-11.72
-35.91
-49.36
-53.98
-54.02
-53.23
-52.72
-50.83
-44.86
-33.38
-17.98
0.30
18.21
32.50
41.04
43.46
40.98
35.45
28.47
20.25
11.37
2.73
-4.58
-9.88
-12.90
-13.92
-13.90
-14.16
-17.11
-23.10
-30.60
-37.88
-44.49
-50.97
-58.14
-66.65
-76.98
-91.22
-109.40
-129.29
-147.33
-159.43
-161.01
-148.37
-120.83
-72.67
-15.65
28.59
46.09
38.94
18.57
-3.36
-20.30
-31.20
-38.08
-44.22
-48.61
-46.86
-35.47
-15.54
9.66
34.75
55.18
68.84
74.92
75.67
74.13
71.69
67.37
59.45
46.83
30.13
11.31
-10.22
-31.73
-49.50
-60.15
-61.76
-53.92
-38.10
-17.34
4.34
22.71
35.59
42.67
44.90
43.64
40.10
35.03
28.91
22.07
14.58
6.79
-1.15
-9.28
-17.58
-25.70
-32.95
-38.43
-41.38
-41.43
-38.61
-33.48
-26.87
-19.54
-12.11
-5.06
1.28
6.68
11.02
14.35
16.74
18.27
19.02
18.98
18.14
16.55
14.40
12.06
10.14
9.32
10.11
12.70
16.82
21.73
26.39
29.72
30.86
29.43
25.66
20.25
14.20
8.55
4.05
1.00
-0.81
-1.86
-2.69
-3.64
-4.78
-5.95
-7.01
-7.91
-8.55
-8.88
-8.88
-8.53
-7.92
-7.40
-7.55
-9.03
-12.19
-16.57
-21.15
-24.64
-25.91
-24.35
-19.96
-13.33
-5.25
3.54
12.77
22.13
31.04
38.82
44.96
49.40
52.50
54.91
57.27
60.81
65.94
71.97
77.68
82.16
84.96
86.00
85.28
82.94
80.95
80.43
81.00
81.46
81.05
79.85
78.41
77.42
77.56
81.77
90.64
101.55
110.42
114.63
114.25
111.41
109.19
110.71
121.27
141.81
167.87
191.93
207.51
211.09
202.02
181.72
132.74
54.38
-36.37
-116.84
-175.41
-213.58
-238.40
-256.33
-270.35
-281.22
-282.25
-268.46
-239.79
-200.22
-154.95
-108.65
-65.77
-33.90
-16.47
-8.80
-5.19
-2.82
-1.82
-2.78
-5.08
-6.93
-6.17
-1.08
9.31
21.66
28.74
23.18
1.87
-31.72
-68.72
-98.20
-111.25
-105.20
-83.44
-54.53
-28.12
-10.97
-5.10
-8.76
-18.21
-29.61
-40.16
-48.59
-54.69
-57.92
-57.74
-54.09
-48.12
-41.80
-37.04
-34.91
-34.71
-33.98
-28.76
-16.37
3.44
27.30
50.14
67.40
76.99
80.19
80.87
83.89
91.12
100.64
107.79
108.73
101.74
87.12
66.35
38.14
5.53
-25.84
-50.63
-67.86
-79.84
-90.48
-102.56
-115.56
-126.72
-128.50
-115.52
-87.15
-48.12
-4.51
38.37
77.55
107.93
124.99
127.79
117.13
99.41
74.63
44.30
12.23
-17.13
-40.95
-56.91
-64.40
-65.16
-62.05
-58.19
-54.47
-50.60
-46.02
-40.54
-33.87
-25.92
-17.56
-10.19
-5.63
-4.04
-4.30
-4.57
-3.10
1.35
8.81
17.82
26.09
31.30
32.71
31.02
27.71
24.39
22.39
22.33
23.98
26.56
28.92
30.26
30.13
28.34
25.04
20.72
15.98
11.52
8.00
5.90
5.53
6.81
9.08
11.28
12.26
11.24
8.21
3.97
-0.19
-3.00
-3.76
-2.63
-0.49
1.59
2.82
2.96
2.31
1.39
0.57
-0.22
-1.50
-3.88
-7.67
-12.63
-17.95
-22.57
-25.56
-26.34
-25.00
-22.36
-19.59
-17.48
-16.08
-14.61
-11.77
-6.52
1.66
11.84
21.60
27.97
29.03
24.86
17.87
11.87
10.65
16.95
30.64
48.14
63.51
70.63
64.91
44.33
10.16
-32.79
-75.74
-108.35
-122.20
-113.68
-85.62
-46.98
-10.18
14.95
19.99
5.65
-17.69
-37.73
-48.17
-49.83
-46.89
-42.85
-38.76
-34.28
-28.61
-22.42
-17.75
-16.43
-18.33
-21.37
-23.01
-21.73
-18.05
-13.57
-10.58
-11.43
-17.24
-26.75
-36.08
-39.63
-31.93
-10.36
23.05
60.71
91.41
104.90
96.98
71.81
40.18
14.38
2.21
4.08
13.74
22.63
25.00
20.99
15.50
14.71
22.75
39.57
61.03
80.88
92.96
93.08
80.04
55.74
24.23
-9.15
-39.24
-62.24
-75.80
-79.28
-73.71
-61.59
-46.37
-32.29
-22.86
-20.06
-23.86
-31.73
-39.85
-44.70
-44.52
-39.64
-32.68
-26.69
-24.35
-27.51
-35.89
-47.31
-58.16
-64.35
-62.40
-51.54
-32.79
-7.32
18.56
38.45
49.41
53.72
56.95
66.91
83.24
101.04
112.64
110.47
91.34
58.11
19.34
-16.53
-39.14
-43.21
-29.34
-2.85
29.05
60.91
85.99
98.32
96.16
82.60
61.31
36.20
11.65
-7.98
-19.64
-23.17
-20.84
-16.03
-11.24
-8.39
-7.57
-7.49
-6.72
-4.67
-2.07
0.09
1.09
0.60
-2.13
-7.56
-15.46
-23.67
-28.41
-26.29
-16.02
0.42
18.43
32.18
37.19
32.05
18.65
0.84
-17.50
-33.26
-44.79
-51.81
-55.06
-55.66
-54.75
-54.33
-55.09
-58.05
-63.58
-70.79
-77.54
-81.13
-79.29
-71.46
-59.43
-47.59
-41.38
-45.15
-60.52
-85.82
-116.66
-147.43
-173.14
-185.80
-181.09
-158.78
-122.51
-79.02
-36.57
-2.85
16.86
21.12
12.56
-3.55
-20.95
-34.48
-41.39
-41.50
-36.31
-27.61
-16.16
-1.28
18.69
44.34
73.76
102.80
126.64
141.71
146.72
142.74
132.51
121.02
113.32
113.37
123.36
143.19
169.51
195.57
213.03
215.17
202.14
178.50
150.29
122.60
98.64
79.75
65.85
56.62
52.01
55.53
68.79
89.39
112.17
132.40
147.87
158.41
164.81
149.50
107.42
49.48
-5.87
-46.63
-70.63
-81.12
-83.42
-81.20
-80.19
-80.84
-82.59
-85.54
-89.89
-94.37
-95.88
-92.19
-82.65
-69.45
-53.94
-39.32
-30.65
-32.96
-49.94
-77.66
-104.80
-118.82
-113.43
-89.08
-53.51
-18.37
5.81
14.06
8.73
-3.64
-16.90
-27.98
-36.12
-42.93
-51.04
-62.37
-76.53
-90.66
-99.51
-99.09
-87.61
-65.50
-35.90
-4.06
24.88
44.79
54.95
58.41
59.70
62.50
68.50
76.46
82.69
81.82
68.67
41.90
4.66
-35.09
-66.61
-81.26
-75.30
-51.44
-17.96
14.82
39.35
51.12
48.54
32.01
3.35
-33.97
-73.12
-104.22
-119.59
-111.62
-79.16
-29.07
25.26
68.78
89.90
84.31
55.83
13.06
-29.29
-61.51
-80.41
-87.01
-81.75
-63.48
-31.57
10.00
50.97
78.25
80.91
58.20
17.64
-26.40
-59.53
-73.27
-67.67
-49.01
-24.97
-1.73
18.07
33.24
43.85
50.23
52.23
49.73
43.62
36.04
29.11
24.67
23.24
24.58
27.49
30.16
31.06
29.72
27.07
24.60
23.85
25.22
27.95
30.21
29.81
25.31
16.75
5.74
-5.27
-13.89
-18.70
-19.48
-17.35
-14.08
-11.53
-10.98
-12.61
-15.55
-18.23
-19.13
-17.44
-13.42
-8.29
-3.68
-0.81
-0.11
-1.21
-3.30
-5.63
-7.79
-9.70
-11.42
-12.85
-13.66
-13.49
-12.15
-9.81
-7.05
-4.63
-3.22
-3.08
-4.07
-5.65
-7.25
-8.43
-9.04
-9.25
-9.37
-9.65
-10.20
-10.83
-11.26
-11.25
-10.68
-9.65
-8.41
-7.22
-6.20
-5.23
-3.94
-2.00
0.76
4.16
7.74
10.92
13.30
14.83
15.79
16.62
17.62
18.86
20.14
21.11
21.47
21.09
20.09
18.75
17.36
16.11
15.03
14.00
12.89
11.68
10.49
9.56
9.10
9.15
9.50
9.73
9.42
8.41
6.87
5.21
3.93
3.29
3.25
3.47
3.51
3.03
1.95
0.48
-1.04
-2.26
-3.02
-3.39
-3.65
-4.09
-4.88
-5.93
-7.00
-7.73
-7.90
-7.55
-6.90
-6.24
-5.75
-5.45
-5.31
-5.36
-5.82
-7.01
-9.13
-12.05
-15.23
-17.90
-19.30
-19.10
-17.40
-14.72
-11.71
-8.84
-6.26
-3.87
-1.46
1.08
3.64
5.94
7.67
8.63
8.91
8.84
8.81
9.12
9.80
10.59
11.15
11.23
10.85
10.33
10.07
10.36
11.16
12.13
12.79
12.81
12.18
11.16
10.17
9.53
9.27
9.18
8.92
8.28
7.26
6.08
5.04
4.33
3.88
3.39
2.54
1.15
-0.67
-2.54
-4.00
-4.80
-4.96
-4.83
-4.88
-5.41
-6.47
-7.82
-9.08
-9.95
-10.34
-10.33
-10.06
-9.62
-8.96
-7.97
-6.59
-4.88
-3.02
-1.22
0.31
1.54
2.53
3.41
4.31
5.30
6.31
7.17
7.71
7.82
7.56
7.09
6.66
6.44
6.45
6.58
6.65
6.51
6.18
5.77
5.46
5.36
5.41
5.45
5.27
4.80
4.10
3.37
2.84
2.54
2.32
1.85
0.84
-0.80
-2.95
-5.23
-7.24
-8.66
-9.46
-9.82
-10.05
-10.39
-10.93
-11.53
-11.94
-12.01
-11.76
-11.46
-11.46
-12.00
-13.02
-14.17
-14.95
-14.99
-14.22
-12.89
-11.42
-10.06
-8.87
-7.67
-6.25
-4.55
-2.75
-1.14
0.04
0.74
1.16
1.58
2.25
3.17
4.14
4.85
5.06
4.71
3.96
3.08
2.32
1.82
1.50
1.21
0.77
0.18
-0.45
-0.88
-0.93
-0.54
0.10
0.76
1.17
1.24
1.00
0.63
0.31
0.10
-0.05
-0.32
-0.85
-1.67
-2.65
-3.51
-4.01
-4.03
-3.74
-3.42
-3.40
-3.82
-4.56
-5.34
-5.88
-6.10
-6.23
-6.59
-7.42
-8.61
-9.76
-10.31
-9.86
-8.41
-6.32
-4.20
-2.50
-1.36
-0.59
0.19
1.26
2.66
4.16
5.42
6.19
6.43
6.36
6.25
6.36
6.71
7.15
7.44
7.37
6.91
6.14
5.25
4.37
3.53
2.66
1.64
0.47
-0.79
-1.96
-2.86
-3.36
-3.49
-3.39
-3.29
-3.36
-3.70
-4.29
-5.03
-5.78
-6.46
-7.09
-7.75
-8.52
-9.41
-10.31
-11.02
-11.41
-11.44
-11.30
-11.22
-11.39
-11.80
-12.26
-12.49
-12.31
-11.66
-10.68
-9.51
-8.22
-6.75
-4.97
-2.87
-0.53
1.76
3.71
5.09
5.86
6.15
6.17
6.10
6.05
6.04
6.02
5.93
5.76
5.58
5.47
5.56
5.90
6.43
6.98
7.31
7.24
6.73
5.87
4.82
3.75
2.70
1.68
0.65
-0.37
-1.33
-2.13
-2.72
-3.09
-3.36
-3.61
-3.95
-4.39
-4.89
-5.41
-5.89
-6.36
-6.88
-7.58
-8.57
-9.84
-11.28
-12.65
-13.68
-14.13
-13.89
-12.98
-11.58
-9.86
-7.98
-6.03
-4.08
-2.15
-0.34
1.20
2.33
3.01
3.31
3.44
3.60
3.91
4.30
4.60
4.65
4.40
3.98
3.57
3.33
3.29
3.36
3.44
3.48
3.52
3.64
3.89
4.19
4.37
4.21
3.58
2.49
1.14
-0.19
-1.26
-1.95
-2.34
-2.66
-3.11
-3.83
-4.77
-5.72
-6.43
-6.71
-6.54
-6.12
-5.70
-5.50
-5.53
-5.59
-5.35
-4.55
-3.08
-1.08
1.18
3.42
5.37
6.75
7.24
6.50
4.39
1.11
-2.75
-6.30
-8.73
-9.62
-9.07
-7.55
-5.66
-3.81
-2.18
-0.69
0.71
2.06
3.30
4.40
5.36
6.29
7.30
8.51
9.94
11.53
13.14
14.56
15.55
15.96
15.81
15.26
14.59
14.09
13.94
14.07
14.22
13.96
12.87
10.70
7.53
3.70
-0.25
-3.86
-6.94
-9.60
-12.16
-14.85
-17.61
-20.08
-21.81
-22.58
-22.65
-22.66
-23.40
-25.34
-28.41
-31.98
-35.20
-37.40
-38.38
-38.37
-37.79
-36.89
-35.61
-33.68
-30.94
-27.48
-23.57
-19.32
-14.42
-8.21
-0.21
9.27
18.90
26.67
30.74
30.17
25.34
17.55
8.44
-0.68
-9.00
-16.13
-21.85
-26.04
-28.77
-30.42
-31.65
-32.99
-34.49
-35.56
-35.15
-32.12
-25.81
-16.43
-5.23
5.68
13.77
16.91
14.25
6.76
-2.64
-9.74
-10.39
-1.98
15.32
38.31
61.63
79.57
88.15
86.41
76.46
62.34
48.35
37.49
30.88
27.82
26.70
25.84
24.08
20.97
16.67
11.77
7.08
3.45
1.49
1.45
3.28
6.76
11.49
16.88
22.19
26.62
29.39
29.91
28.04
24.30
19.87
16.31
15.14
17.47
23.94
33.97
45.19
53.65
55.05
46.48
27.73
1.81
-25.85
-48.75
-61.86
-63.37
-54.93
-40.31
-23.57
-7.88
5.18
15.52
24.63
34.22
45.09
56.64
67.43
75.80
80.19
79.46
69.44
48.57
19.98
-9.34
-33.07
-48.57
-56.65
-59.92
-61.18
-62.49
-64.05
-65.01
-64.16
-60.55
-53.74
-44.00
-32.77
-22.37
-15.25
-12.44
-13.82
-18.37
-25.13
-33.10
-41.06
-47.38
-49.82
-45.86
-33.21
-11.72
15.68
42.91
62.45
68.45
57.52
30.53
-7.70
-49.26
-85.71
-109.88
-117.42
-107.51
-82.76
-48.59
-11.55
22.23
48.70
66.09
75.02
77.65
76.42
73.21
68.98
64.64
59.30
54.66
51.67
50.22
49.14
46.86
42.33
35.42
27.18
19.00
12.27
7.28
3.70
0.73
-2.41
-6.07
-10.25
-13.91
-15.42
-13.26
-7.00
2.07
10.59
14.29
9.69
-4.50
-27.03
-53.60
-78.68
-97.78
-106.63
-102.43
-84.58
-55.19
-18.85
18.36
50.65
72.66
82.34
81.44
72.80
58.68
40.62
20.23
-0.17
-17.64
-29.73
-35.68
-36.35
-33.91
-30.73
-28.33
-26.90
-25.55
-23.09
-18.74
-12.38
-4.68
2.90
8.66
11.55
11.45
9.17
6.05
3.36
2.02
2.36
4.02
6.05
7.61
8.08
7.23
5.13
2.05
-1.62
-5.43
-9.03
-12.05
-13.93
-14.14
-12.41
-9.02
-4.79
-0.82
1.71
1.79
-0.95
-5.97
-11.88
-17.06
-20.22
-20.69
-18.41
-14.03
-8.88
-4.23
-0.55
2.55
5.82
9.76
14.23
18.80
22.53
24.06
22.59
18.75
14.32
11.21
10.56
12.79
18.08
26.51
37.47
50.15
63.52
75.65
83.32
82.85
68.07
37.95
-0.93
-38.94
-69.83
-92.94
-110.32
-122.97
-128.47
-121.66
-100.85
-65.77
-21.45
23.77
62.11
89.44
105.87
110.27
107.30
103.01
100.68
98.39
91.59
76.93
56.88
33.77
11.09
-7.60
-21.16
-31.11
-40.51
-51.48
-63.69
-74.83
-81.19
-80.70
-73.49
-62.28
-50.70
-41.50
-35.11
-29.74
-22.77
-12.73
-0.04
13.36
24.31
29.86
28.32
20.13
7.76
-5.11
-15.11
-20.23
-20.13
-16.12
-10.21
-4.23
0.83
4.99
8.98
13.49
18.56
23.43
26.84
27.57
25.11
19.91
13.48
7.71
4.65
4.75
5.98
5.44
1.89
-3.18
-6.85
-7.02
-4.01
-0.56
-0.19
-4.94
-14.22
-25.33
-35.19
-41.72
-44.22
-42.71
-37.09
-27.23
-13.55
2.25
17.27
28.31
33.79
33.62
29.44
23.81
18.98
16.08
14.77
13.96
12.61
10.47
8.02
6.26
6.14
8.19
12.21
16.77
19.81
19.73
16.26
10.39
3.92
-1.39
-4.37
-3.87
-1.10
1.09
0.07
-5.00
-13.09
-22.06
-29.64
-33.63
-32.61
-27.74
-22.56
-20.84
-25.07
-36.32
-54.43
-77.47
-100.24
-114.34
-111.72
-87.47
-41.06
23.12
95.83
164.94
213.78
226.83
205.48
167.16
128.99
97.43
70.65
45.30
20.28
-1.86
-15.70
-16.95
-6.76
8.11
19.58
22.32
17.41
7.52
-3.46
-11.60
-14.40
-12.65
-9.91
-9.53
-12.48
-17.31
-21.97
-24.78
-25.09
-23.40
-21.41
-21.11
-23.11
-26.05
-27.78
-27.03
-23.83
-19.22
-14.39
-10.33
-7.58
-6.20
-6.17
-8.04
-13.20
-22.99
-37.81
-56.48
-76.48
-94.57
-107.50
-112.49
-107.56
-91.79
-65.70
-31.96
4.21
35.75
55.63
59.45
47.49
25.01
0.31
-18.52
-26.64
-23.97
-14.40
-3.39
4.60
7.82
7.20
5.26
4.60
6.74
11.89
19.20
27.41
35.33
42.00
46.72
48.92
48.22
44.61
38.58
31.14
23.65
17.42
13.31
11.57
11.77
13.03
14.28
14.61
13.61
11.51
9.14
7.43
6.92
7.29
7.38
5.70
1.21
-6.00
-14.59
-22.45
-27.73
-29.58
-28.51
-25.84
-22.98
-20.77
-19.40
-18.60
-18.12
-17.89
-18.02
-18.60
-19.46
-20.19
-20.17
-18.69
-15.26
-9.89
-3.42
2.47
5.58
3.82
-4.04
-17.90
-36.33
-56.56
-74.42
-84.67
-82.11
-63.74
-30.85
10.13
49.33
77.24
88.86
85.65
74.17
62.01
53.74
49.16
44.72
36.94
25.16
11.95
1.20
-4.54
-5.45
-4.04
-3.15
-4.01
-5.70
-5.97
-3.02
3.24
10.93
17.22
19.63
17.14
10.60
2.17
-5.71
-11.55
-15.13
-17.06
-18.24
-19.33
-20.49
-21.44
-21.87
-21.66
-21.64
-22.76
-25.37
-29.02
-32.89
-36.26
-38.72
-40.19
-40.86
-42.28
-45.86
-51.76
-58.63
-64.56
-67.92
-67.71
-63.80
-56.92
-50.35
-47.27
-48.63
-52.62
-56.32
-57.36
-54.59
-48.05
-38.73
-30.42
-26.71
-29.09
-37.14
-50.66
-70.42
-96.90
-128.50
-146.40
-134.82
-92.65
-34.16
23.99
71.07
102.97
120.92
129.40
133.59
134.69
131.63
123.72
112.29
99.91
89.22
82.37
80.50
83.52
88.35
91.15
89.43
82.69
71.55
57.23
41.80
27.91
18.07
12.57
9.73
7.89
6.00
3.58
0.61
-2.45
-4.91
-6.17
-6.55
-6.55
-6.14
-4.81
-2.08
1.87
6.21
9.67
11.05
9.40
4.68
-2.05
-9.01
-14.40
-17.10
-16.96
-14.69
-11.53
-8.69
-7.19
-7.46
-9.36
-12.25
-15.27
-17.53
-18.35
-17.34
-14.48
-10.13
-4.88
0.53
5.38
9.12
11.45
12.34
12.06
11.05
9.82
8.84
8.30
8.07
7.68
6.69
4.82
2.20
-0.78
-3.69
-6.36
-8.80
-11.13
-13.38
-15.38
-16.76
-17.34
-17.35
-17.34
-17.86
-18.93
-20.06
-20.38
-19.21
-16.30
-12.06
-7.26
-2.65
1.28
4.56
7.28
9.34
10.40
10.33
9.28
7.76
6.48
6.07
7.17
9.76
13.06
16.02
18.48
20.88
23.86
27.68
32.02
36.73
41.14
44.20
44.66
42.53
37.80
29.96
18.20
2.11
-16.59
-35.93
-54.43
-71.32
-83.98
-89.12
-83.67
-65.72
-35.57
5.24
51.90
97.28
133.77
158.12
169.95
170.66
162.36
138.56
101.23
61.74
38.04
30.25
33.64
41.31
47.71
48.93
43.79
35.12
26.17
18.46
10.92
3.35
-4.58
-13.11
-22.37
-32.05
-40.56
-46.98
-51.74
-56.70
-62.39
-68.64
-74.52
-78.53
-78.60
-72.62
-60.29
-43.94
-28.52
-18.82
-17.81
-24.94
-36.33
-46.18
-49.96
-46.69
-39.35
-33.84
-35.82
-47.24
-64.73
-81.28
-88.99
-83.46
-64.38
-34.66
0.40
34.07
60.55
76.23
79.30
70.23
49.72
20.19
-10.80
-32.57
-39.29
-34.47
-26.92
-29.23
-40.83
-58.05
-76.33
-91.90
-98.67
-96.50
-88.79
-80.18
-75.41
-76.25
-82.20
-88.83
-88.90
-76.68
-51.73
-18.17
18.33
52.54
82.96
109.48
129.80
144.69
158.41
173.21
186.06
194.52
191.74
174.21
143.04
103.83
64.16
28.06
0.29
-15.91
-20.15
-16.74
-13.04
-15.13
-23.89
-35.02
-41.35
-36.23
-17.13
12.99
49.08
76.92
82.85
66.33
39.54
16.82
4.26
-2.88
-12.44
-30.97
-61.84
-102.08
-139.44
-164.33
-172.42
-164.83
-146.43
-123.66
-103.01
-90.73
-88.39
-92.37
-97.73
-100.32
-97.15
-86.25
-66.91
-32.96
11.08
53.23
84.32
103.05
113.21
119.15
123.66
127.31
129.43
128.63
126.20
126.32
133.58
147.26
162.53
172.83
172.23
158.28
132.19
99.10
66.03
37.73
17.14
2.22
-7.60
-10.17
-2.52
19.41
53.14
89.98
117.30
123.74
104.72
65.10
16.21
-29.49
-63.96
-85.78
-97.82
-104.11
-107.28
-107.71
-104.11
-95.71
-83.48
-70.15
-59.32
-53.49
-53.32
-57.50
-63.63
-68.71
-70.48
-68.05
-62.08
-54.71
-48.30
-44.44
-43.31
-43.82
-43.78
-41.12
-34.99
-26.22
-16.96
-9.44
-4.96
-3.46
-4.34
-6.60
-9.72
-14.20
-20.89
-29.92
-40.09
-49.45
-56.58
-62.47
-69.00
-78.11
-90.86
-106.51
-122.00
-132.96
-135.66
-128.65
-114.42
-95.92
-75.51
-55.04
-36.38
-21.53
-13.02
-13.90
-26.50
-52.00
-85.62
-117.56
-137.25
-137.99
-118.81
-84.21
-41.85
10.51
64.32
108.15
137.19
154.38
163.76
167.09
164.59
156.62
145.51
133.80
126.39
128.08
141.58
162.29
181.77
190.51
180.78
151.43
107.66
60.87
22.94
0.68
-5.35
0.89
12.86
24.42
33.74
40.73
45.40
46.46
41.68
28.50
7.09
-19.81
-50.88
-85.02
-121.46
-158.51
-193.92
-217.70
-222.95
-206.56
-159.79
-89.63
-14.92
45.37
83.47
103.56
116.40
133.18
158.01
190.03
223.28
251.41
269.85
276.85
266.55
238.64
195.99
143.64
87.67
31.91
-20.19
-65.19
-100.45
-125.63
-142.07
-153.54
-163.83
-174.19
-183.61
-188.72
-186.34
-176.33
-162.44
-149.61
-141.93
-140.24
-141.85
-143.12
-140.99
-134.19
-123.30
-110.23
-96.98
-85.98
-79.83
-80.73
-89.76
-105.87
-125.55
-143.76
-155.78
-158.78
-153.02
-141.44
-128.08
-116.16
-106.68
-98.06
-86.66
-67.92
-37.62
6.64
64.35
131.39
200.25
261.06
303.73
320.81
309.85
274.39
222.72
164.96
109.82
62.57
24.15
-7.58
-35.49
-60.86
-82.32
-96.40
-99.14
-88.16
-63.46
-29.13
7.24
37.43
56.01
62.04
58.63
50.78
42.86
38.79
39.39
42.83
46.86
51.15
57.29
67.04
80.55
95.84
112.25
127.91
139.85
145.76
146.29
144.67
144.59
148.38
156.42
171.26
193.18
219.14
244.33
264.94
278.68
283.82
278.75
240.23
162.49
62.53
-32.19
-104.05
-150.13
-175.63
-187.48
-191.37
-191.15
-185.64
-174.48
-160.50
-148.09
-139.82
-135.22
-132.32
-129.09
-124.57
-116.56
-105.26
-94.09
-87.17
-85.68
-86.88
-85.78
-77.60
-59.66
-30.84
7.11
47.33
80.11
96.80
93.03
70.06
34.37
-4.69
-37.11
-56.32
-62.36
-60.60
-58.03
-59.93
-68.25
-81.96
-98.42
-113.84
-123.47
-123.66
-112.25
-88.72
-54.82
-14.75
25.64
58.73
74.33
70.59
53.93
34.05
18.66
10.50
7.90
7.22
5.78
3.61
3.45
7.41
15.10
23.59
29.36
30.65
28.48
25.87
26.10
31.31
40.64
50.74
58.30
60.12
55.22
44.52
30.14
14.77
1.19
-9.09
-16.16
-21.11
-25.12
-28.70
-30.78
-28.94
-20.50
-4.29
17.80
40.72
58.33
64.97
57.34
35.99
5.47
-27.00
-53.79
-69.12
-70.73
-60.00
-40.56
-16.77
8.08
32.15
54.10
71.59
81.15
79.33
62.61
34.97
5.04
-17.50
-26.34
-21.31
-8.09
5.39
12.93
13.38
9.37
4.62
1.85
1.52
2.33
2.25
0.23
-3.43
-7.38
-9.93
-10.39
-9.22
-7.87
-6.63
-6.26
-6.95
-8.38
-9.92
-10.82
-10.71
-9.54
-7.50
-4.99
-2.77
-1.60
-2.23
-5.00
-9.46
-14.41
-18.26
-19.74
-18.45
-15.38
-12.45
-11.96
-15.31
-22.00
-29.88
-36.01
-38.06
-35.28
-28.80
-21.06
-15.52
-15.36
-22.46
-36.98
-57.08
-78.60
-95.21
-99.75
-86.91
-56.96
-15.84
26.84
61.35
80.92
83.86
73.38
55.30
35.14
14.80
-5.78
-26.58
-46.15
-62.62
-74.42
-80.83
-81.72
-71.70
-49.22
-19.09
10.00
32.84
49.63
64.34
80.98
100.65
121.97
136.40
135.47
115.96
82.24
43.16
8.15
-16.78
-30.89
-36.18
-36.67
-37.01
-43.21
-55.03
-69.84
-83.10
-91.61
-92.87
-85.32
-69.96
-49.68
-28.26
-8.77
6.55
17.38
25.50
34.45
47.98
67.72
92.54
118.67
140.97
153.84
153.65
140.45
118.38
93.96
72.97
58.41
50.27
46.97
46.45
47.28
48.73
50.15
50.30
47.29
39.61
27.26
12.16
-2.68
-14.43
-21.60
-24.42
-24.54
-24.13
-24.89
-27.39
-31.04
-34.65
-37.00
-37.33
-35.58
-32.36
-28.65
-25.52
-23.73
-23.55
-24.68
-26.41
-27.84
-28.29
-27.47
-25.68
-23.58
-21.93
-21.21
-21.43
-22.21
-22.94
-23.23
-23.04
-22.74
-22.80
-23.49
-24.69
-25.93
-26.73
-26.88
-26.69
-26.86
-28.00
-30.32
-33.26
-35.78
-36.81
-35.77
-32.93
-29.31
-26.30
-24.90
-25.23
-26.39
-26.95
-25.65
-22.10
-17.10
-12.34
-9.71
-10.36
-14.21
-19.95
-25.88
-30.49
-32.95
-33.09
-31.33
-28.34
-25.37
-24.57
-28.80
-41.01
-62.07
-88.76
-113.13
-125.13
-117.28
-88.53
-45.49
0.69
38.90
63.12
73.60
73.87
66.22
49.35
20.79
-18.66
-61.34
-95.01
-108.07
-95.89
-63.82
-25.07
5.71
20.38
20.45
17.12
21.50
38.62
65.37
97.06
131.36
166.47
201.15
228.18
240.13
229.94
194.84
139.64
76.97
22.99
-9.86
-16.87
-2.64
21.76
43.11
52.24
47.30
32.77
15.14
-2.08
-17.49
-30.44
-39.18
-41.84
-37.83
-29.60
-22.90
-24.85
-41.64
-72.95
-111.62
-147.09
-171.01
-180.18
-176.09
-162.48
-134.27
-92.84
-45.72
-2.43
30.94
52.52
63.70
67.81
68.72
69.39
69.60
68.51
65.89
62.38
58.86
56.14
55.00
56.08
59.54
63.57
65.90
64.38
57.36
44.13
25.78
5.33
-13.24
-26.59
-34.05
-36.71
-36.49
-35.03
-33.30
-31.38
-28.96
-25.85
-22.39
-19.55
-17.92
-17.43
-17.01
-15.70
-12.92
-8.86
-4.32
-0.37
2.05
2.60
1.76
0.55
-0.13
0.09
0.93
1.68
1.66
0.70
-0.84
-2.17
-2.37
-0.99
1.62
4.34
5.79
4.98
1.74
-3.14
-8.17
-11.43
-11.64
-8.91
-4.80
-1.47
-0.64
-2.80
-7.15
-11.98
-15.06
-14.89
-11.65
-6.93
-2.73
-0.49
-0.64
-2.83
-5.92
-7.59
-5.02
3.81
19.30
39.74
61.22
78.23
85.08
74.68
45.14
3.03
-39.06
-69.09
-80.80
-74.58
-55.18
-29.29
-3.48
17.94
34.04
44.18
48.21
46.85
41.69
34.86
28.10
22.44
17.01
11.53
5.52
-1.15
-7.61
-13.81
-19.22
-22.92
-23.96
-21.00
-13.77
-3.81
6.15
13.41
16.22
14.59
9.83
3.76
-1.92
-6.12
-8.82
-10.51
-11.74
-12.81
-13.47
-13.31
-11.94
-9.11
-4.76
0.74
6.73
12.26
16.29
18.06
17.28
14.27
9.82
4.97
0.56
-2.91
-5.36
-6.98
-7.90
-8.16
-7.69
-6.53
-4.83
-2.88
-0.99
0.63
1.94
2.96
3.71
4.04
3.72
2.55
0.49
-2.22
-5.15
-7.84
-9.94
-11.34
-12.09
-12.31
-12.13
-11.57
-10.67
-9.53
-8.36
-7.44
-7.03
-7.17
-7.66
-8.16
-8.38
-8.38
-8.53
-9.41
-11.44
-14.55
-18.14
-21.20
-22.81
-22.48
-20.39
-17.21
-13.72
-10.49
-7.68
-5.10
-2.51
0.16
2.75
4.88
6.21
6.64
6.38
5.84
5.51
5.65
6.26
7.03
7.61
7.75
7.49
7.13
7.08
7.62
8.79
10.28
11.67
12.65
13.14
13.35
13.58
14.07
14.77
15.43
15.68
15.25
14.11
12.39
10.37
8.28
6.23
4.25
2.28
0.31
-1.68
-3.66
-5.55
-7.32
-8.89
-10.22
-11.23
-11.83
-11.91
-11.45
-10.49
-9.21
-7.83
-6.52
-5.28
-3.96
-2.37
-0.45
1.61
3.43
4.66
5.21
5.34
5.53
6.23
7.60
9.37
11.05
12.13
12.34
11.78
10.77
9.67
8.73
8.01
7.45
6.94
6.41
5.84
5.30
4.87
4.60
4.51
4.57
4.67
4.64
4.28
3.45
2.14
0.49
-1.31
-3.15
-5.02
-7.04
-9.31
-11.80
-14.34
-16.66
-18.56
-20.02
-21.18
-22.21
-23.15
-23.81
-23.89
-23.06
-21.24
-18.63
-15.60
-12.56
-9.76
-7.22
-4.74
-2.10
0.71
3.47
5.75
7.12
7.37
6.60
5.18
3.50
1.86
0.37
-0.95
-2.06
-2.82
-3.02
-2.50
-1.26
0.53
2.51
4.34
5.73
6.55
6.80
6.57
5.95
4.99
3.66
1.86
-0.48
-3.30
-6.33
-9.14
-11.23
-12.28
-12.20
-11.19
-9.63
-7.93
-6.40
-5.20
-4.36
-3.86
-3.61
-3.50
-3.39
-3.13
-2.61
-1.83
-0.91
-0.08
0.41
0.45
0.13
-0.20
-0.08
0.89
2.86
5.60
8.60
11.30
13.33
14.65
15.47
16.12
16.82
17.63
18.47
19.27
20.03
20.82
21.62
22.30
22.63
22.35
21.31
19.53
17.14
14.34
11.34
8.31
5.41
2.80
0.61
-1.06
-2.13
-2.60
-2.56
-2.18
-1.81
-1.86
-2.78
-4.82
-7.94
-11.71
-15.51
-18.80
-21.30
-23.15
-24.67
-26.09
-27.32
-27.93
-27.46
-25.78
-23.26
-20.63
-18.62
-17.44
-16.61
-15.18
-12.22
-7.23
-0.34
7.75
16.02
23.34
28.66
31.14
30.42
26.81
21.27
15.24
10.11
6.75
5.30
5.25
5.87
6.54
7.02
7.33
7.61
7.89
8.08
8.06
7.71
6.99
5.98
4.82
3.69
2.71
1.92
1.22
0.41
-0.69
-2.18
-4.05
-6.13
-8.24
-10.13
-11.65
-12.63
-12.97
-12.62
-11.62
-10.13
-8.34
-6.48
-4.70
-3.06
-1.53
-0.06
1.35
2.67
3.82
4.79
5.59
6.27
6.89
7.50
8.14
8.83
9.56
10.33
11.11
11.82
12.37
12.69
12.75
12.53
12.05
11.35
10.48
9.56
8.69
7.95
7.43
7.11
6.94
6.81
6.61
6.25
5.71
4.81
3.49
1.73
-0.40
-2.75
-5.13
-7.36
-9.41
-11.21
-13.15
-15.42
-18.01
-20.64
-22.82
-24.02
-23.94
-22.71
-20.58
-18.74
-17.80
-17.85
-18.40
-18.62
-17.77
-15.63
-12.65
-9.19
-6.82
-6.03
-6.63
-7.83
-8.59
-7.93
-5.15
0.21
8.89
19.53
30.88
41.00
47.82
49.95
47.40
41.84
31.43
24.91
22.86
25.11
30.12
35.83
40.60
43.65
45.18
45.82
46.87
47.63
47.69
46.41
43.26
38.20
31.71
24.54
17.28
10.69
3.89
-3.49
-11.50
-19.59
-26.66
-31.51
-33.32
-32.04
-28.07
-23.07
-18.35
-14.80
-12.69
-11.71
-11.23
-10.70
-9.90
-8.80
-7.93
-7.51
-7.52
-7.67
-7.61
-7.12
-6.25
-5.33
-4.76
-4.97
-6.07
-7.83
-9.85
-11.71
-13.16
-14.17
-14.90
-15.48
-15.95
-16.17
-16.02
-15.54
-15.01
-14.80
-15.29
-16.61
-18.64
-21.04
-23.36
-25.17
-26.22
-26.46
-26.04
-25.20
-24.21
-23.31
-22.64
-22.25
-22.13
-22.27
-22.58
-22.88
-22.88
-22.29
-20.94
-18.90
-16.36
-13.66
-11.20
-9.23
-7.76
-6.57
-5.40
-4.12
-2.87
-1.69
-0.68
-0.01
0.27
0.34
0.49
0.93
1.58
2.03
2.23
2.19
1.90
1.38
0.87
0.74
1.52
3.88
8.51
16.62
28.88
44.74
62.32
78.97
92.24
100.74
104.65
101.74
91.77
76.27
57.46
36.43
13.30
-11.20
-34.73
-54.10
-66.89
-72.29
-71.84
-68.38
-64.03
-58.82
-50.95
-38.66
-22.41
-5.55
7.22
11.64
6.20
-6.91
-22.90
-36.76
-45.56
-49.15
-48.86
-45.01
-36.25
-20.81
1.19
25.81
46.35
56.65
55.03
45.86
37.69
38.57
50.65
69.60
86.81
93.97
87.28
68.66
43.81
18.75
-2.86
-20.22
-34.08
-45.03
-52.60
-55.84
-54.23
-48.59
-40.83
-33.27
-27.51
-23.87
-21.71
-19.70
-16.58
-11.69
-5.29
1.42
6.70
9.04
7.88
3.80
-1.33
-5.19
-5.97
-3.22
2.07
7.89
12.13
14.48
15.06
15.01
16.29
21.07
30.79
45.54
63.67
82.18
97.56
106.98
109.64
107.35
104.16
104.82
112.58
127.43
145.53
160.67
166.68
160.24
141.89
115.19
84.50
52.94
21.88
-8.11
-35.76
-58.58
-73.72
-79.94
-79.06
-75.63
-74.84
-79.96
-90.65
-103.32
-113.18
-116.75
-113.65
-106.73
-100.61
-99.37
-104.69
-115.04
-126.23
-132.91
-130.25
-115.43
-88.45
-52.27
-12.45
24.04
50.24
61.07
54.89
34.16
4.72
-26.16
-52.15
-69.55
-77.63
-77.65
-71.46
-60.59
-46.22
-29.84
-13.87
-1.37
4.78
3.12
-5.78
-19.56
-35.09
-49.56
-61.22
-69.31
-73.50
-73.39
-68.24
-57.22
-39.73
-15.90
13.09
44.78
75.53
101.08
117.37
121.75
114.01
96.73
74.82
54.12
39.63
34.03
37.25
47.29
61.68
78.79
98.10
119.42
141.65
162.04
176.59
181.56
175.12
158.28
134.39
107.40
80.07
53.08
25.38
-4.35
-36.30
-68.81
-98.85
-123.27
-140.12
-149.50
-153.34
-154.49
-155.51
-157.80
-161.18
-164.26
-165.17
-162.52
-156.09
-146.69
-135.68
-124.30
-113.31
-102.75
-92.23
-81.16
-69.23
-56.86
-44.78
-33.70
-24.01
-15.86
-9.08
-3.30
1.82
6.36
9.29
9.83
8.39
6.46
5.79
7.61
12.17
18.67
25.45
29.18
27.87
22.44
15.96
11.45
10.49
12.96
17.48
22.09
22.56
16.76
6.38
-4.52
-12.84
-17.98
-21.41
-25.40
-31.84
-44.82
-65.87
-92.71
-121.17
-148.50
-173.77
-196.07
-213.13
-200.75
-148.34
-68.55
12.81
77.12
118.85
141.09
150.49
153.79
155.63
154.37
147.68
136.05
122.86
111.53
104.14
101.18
101.87
104.64
104.88
99.58
89.69
79.20
71.89
69.11
69.49
69.96
67.39
58.64
43.46
24.71
6.07
-10.63
-25.72
-39.68
-51.24
-57.12
-54.60
-43.05
-24.97
-5.49
9.70
17.70
19.37
18.65
19.71
23.86
29.26
32.12
29.08
19.31
4.94
-10.01
-21.76
-28.75
-32.10
-34.22
-36.90
-40.06
-42.03
-41.19
-37.36
-32.80
-31.48
-36.95
-50.07
-68.23
-86.36
-99.19
-103.36
-97.74
-84.11
-66.22
-48.35
-33.71
-23.97
-19.58
-20.29
-25.47
-32.57
-38.38
-39.84
-35.17
-22.38
-0.31
29.88
64.08
96.13
122.33
141.99
157.65
173.51
193.52
218.70
245.93
269.27
272.01
245.81
195.95
138.49
88.36
50.71
21.28
-7.28
-39.36
-74.03
-104.84
-125.50
-134.06
-134.37
-132.02
-131.44
-134.53
-140.58
-147.05
-149.33
-143.64
-129.15
-108.34
-85.32
-63.98
-46.64
-33.35
-22.71
-11.25
4.69
26.82
53.91
82.37
107.10
122.39
123.98
110.56
85.24
54.64
26.64
8.06
3.38
13.91
37.36
66.30
90.47
100.91
94.92
76.10
50.49
23.55
1.27
-16.62
-30.20
-38.64
-40.93
-36.67
-26.96
-15.02
-4.42
1.96
2.55
-1.79
-8.57
-14.75
-17.93
-17.43
-14.34
-10.53
-7.71
-7.02
-8.15
-10.05
-11.52
-11.74
-10.66
-8.94
-7.27
-6.11
-5.83
-6.38
-7.67
-9.62
-12.00
-14.41
-16.33
-17.22
-16.86
-15.57
-14.01
-12.90
-12.69
-13.35
-14.42
-15.35
-15.76
-15.61
-15.12
-14.59
-14.21
-14.01
-13.96
-14.00
-14.11
-14.21
-14.22
-13.93
-13.15
-11.70
-9.55
-6.81
-3.68
-0.42
2.74
5.60
8.02
9.97
11.45
12.53
13.26
13.64
13.61
13.11
12.21
11.15
10.28
9.89
10.02
10.47
10.80
10.63
9.79
8.41
6.83
5.44
4.51
4.07
3.92
3.75
3.29
2.41
1.23
-0.00
-1.00
-1.62
-1.99
-2.43
-3.30
-4.77
-6.75
-8.88
-10.70
-11.89
-12.33
-12.13
-11.42
-10.34
-8.96
-7.38
-5.78
-4.39
-3.40
-2.77
-2.23
-1.43
-0.13
1.62
3.44
4.86
5.60
5.75
5.74
6.03
6.83
7.88
8.64
8.62
7.79
6.68
6.21
7.20
9.90
13.84
17.92
20.97
22.21
21.66
20.14
18.97
19.36
21.82
25.89
30.27
33.35
34.04
32.28
29.20
26.71
26.77
30.51
37.77
47.16
56.35
62.43
62.32
53.38
34.54
7.33
-23.71
-51.87
-70.36
-75.06
-66.58
-50.37
-34.77
-27.23
-31.50
-46.56
-67.83
-89.47
-106.49
-115.99
-116.95
-109.93
-95.84
-76.28
-54.32
-34.73
-22.80
-22.17
-32.79
-50.07
-66.63
-73.81
-65.07
-39.14
-0.89
40.27
73.59
90.10
85.27
59.21
17.95
-28.14
-67.73
-91.87
-96.37
-82.22
-54.71
-17.13
21.79
52.50
70.14
75.56
71.85
61.17
45.57
26.49
6.93
-9.81
-20.27
-22.48
-17.18
-6.78
4.78
14.05
19.28
20.87
20.17
19.68
21.66
26.68
33.33
39.02
41.64
40.45
36.36
30.82
25.55
21.82
19.96
19.41
19.40
19.50
19.68
19.99
20.10
19.52
17.87
14.97
11.00
6.47
2.09
-1.46
-3.80
-5.04
-5.59
-5.95
-6.50
-7.46
-8.79
-10.28
-11.63
-12.59
-13.06
-12.99
-12.43
-11.40
-9.96
-8.21
-6.27
-4.29
-2.38
-0.59
1.01
2.39
3.51
4.39
5.12
5.84
6.61
7.39
8.06
8.45
8.50
8.24
7.78
7.26
6.75
6.25
5.75
5.30
4.98
4.90
5.06
5.35
5.56
5.42
4.78
3.65
2.13
0.44
-1.26
-2.85
-4.29
-5.58
-6.77
-7.86
-8.82
-9.57
-10.05
-10.22
-10.15
-10.03
-10.13
-10.68
-11.77
-13.26
-14.78
-15.86
-16.15
-15.60
-14.40
-12.88
-11.35
-9.86
-8.29
-6.46
-4.24
-1.70
1.02
3.80
6.61
9.45
12.23
14.56
15.86
15.58
13.61
10.52
7.34
5.17
4.65
5.70
7.64
9.62
11.12
12.08
12.71
13.18
13.29
12.51
10.31
6.50
1.50
-3.81
-8.43
-11.68
-13.40
-13.98
-14.06
-14.18
-14.57
-15.04
-15.23
-14.84
-13.85
-12.49
-11.18
-10.27
-9.96
-10.34
-11.45
-13.11
-14.81
-15.62
-14.34
-10.08
-2.77
6.54
16.02
23.79
28.73
30.82
30.69
28.99
25.70
20.26
12.24
2.21
-7.84
-15.02
-16.81
-12.32
-2.88
8.48
18.31
24.09
25.00
21.78
15.92
8.83
1.52
-5.31
-10.92
-14.39
-14.86
-12.06
-6.62
0.00
5.98
9.68
10.10
7.00
0.82
-7.38
-16.01
-23.17
-27.02
-26.35
-21.12
-12.59
-2.97
5.30
10.29
11.16
8.26
2.96
-2.75
-6.83
-7.71
-4.77
1.38
9.12
16.33
21.21
22.85
21.42
17.85
13.29
8.58
4.06
-0.35
-4.90
-9.70
-14.62
-19.30
-23.32
-26.41
-28.57
-30.07
-31.32
-32.62
-34.05
-35.35
-36.10
-35.85
-34.34
-31.47
-27.30
-22.01
-15.88
-9.45
-3.51
1.01
3.28
2.91
0.11
-4.33
-9.31
-13.79
-17.05
-18.85
-19.35
-18.87
-17.69
-15.94
-13.59
-10.59
-6.95
-2.80
1.68
6.29
10.94
15.54
20.02
24.18
27.79
30.61
32.48
33.43
33.67
33.51
33.27
33.15
33.16
33.13
32.77
31.87
30.36
28.39
26.27
24.32
22.73
21.50
20.43
19.30
17.95
16.41
14.80
13.28
11.89
10.53
9.06
7.41
5.66
4.05
2.82
2.05
1.53
0.84
-0.39
-2.30
-4.63
-6.75
-8.05
-8.25
-7.67
-7.23
-7.98
-10.58
-14.84
-19.62
-23.31
-24.41
-22.13
-16.59
-8.58
0.77
10.22
18.40
23.94
25.65
23.12
17.21
10.07
4.52
2.98
6.44
14.11
23.90
33.46
41.12
46.27
49.01
49.47
47.46
42.42
34.08
22.98
10.68
-0.58
-8.68
-12.38
-11.62
-7.47
-1.53
4.58
9.61
12.83
13.95
13.11
10.84
7.95
5.29
3.55
2.96
3.31
4.14
5.09
6.06
7.25
8.88
10.89
12.75
13.51
12.03
7.43
-0.58
-11.42
-23.76
-35.70
-45.28
-50.87
-51.57
-47.48
-39.75
-30.29
-21.41
-15.14
-12.66
-14.05
-18.31
-23.78
-28.77
-32.05
-33.10
-32.00
-29.16
-25.09
-20.30
-15.32
-10.74
-7.11
-4.78
-3.77
-3.72
-4.00
-4.01
-3.47
-2.50
-1.50
-0.93
-1.11
-2.13
-3.86
-5.84
-7.66
-9.03
-9.92
-10.40
-10.51
-10.24
-9.52
-8.32
-6.16
-2.67
2.17
7.95
14.04
19.88
25.04
29.22
32.29
34.92
37.78
41.06
44.28
46.62
47.45
46.62
44.63
42.62
43.04
48.06
58.51
73.26
89.85
105.44
117.69
125.25
122.17
105.41
76.39
40.77
4.96
-26.74
-52.47
-71.80
-85.04
-92.97
-95.83
-94.03
-88.50
-80.68
-72.26
-64.72
-59.24
-56.45
-56.21
-56.95
-56.66
-53.90
-48.50
-41.47
-34.44
-29.02
-26.23
-26.36
-28.89
-32.86
-37.02
-39.60
-38.24
-30.67
-16.44
1.51
18.28
28.05
26.90
15.06
-3.12
-21.12
-33.31
-37.37
-34.49
-27.91
-20.65
-14.08
-7.96
-1.65
4.78
10.24
13.33
13.27
10.36
5.77
1.04
-2.55
-4.32
-4.28
-3.05
-1.44
-0.04
0.92
1.59
2.47
4.14
6.95
10.70
14.80
17.74
18.71
17.61
14.95
11.53
8.18
5.83
5.57
8.60
15.76
26.86
40.11
52.37
60.35
62.16
58.31
51.51
45.32
42.31
42.87
45.20
46.54
44.77
39.52
32.12
24.64
18.76
15.08
13.18
12.13
11.09
9.58
7.30
3.85
-1.50
-9.63
-21.09
-35.58
-51.74
-67.37
-79.96
-87.32
-87.99
-81.50
-68.41
-50.40
-30.21
-11.26
3.23
11.32
13.12
10.74
7.44
6.17
8.36
13.51
19.81
25.20
28.53
30.15
31.87
36.20
45.21
59.58
78.08
97.75
114.86
126.14
129.92
126.42
117.30
104.76
90.59
75.83
60.86
45.73
30.60
15.89
2.14
-10.13
-20.67
-29.73
-38.05
-46.60
-56.07
-66.30
-76.17
-84.07
-88.72
-89.92
-88.73
-86.89
-85.79
-85.76
-85.92
-84.86
-81.53
-75.82
-68.50
-60.60
-52.80
-45.11
-37.10
-28.51
-19.59
-11.16
-4.26
0.36
2.49
2.52
1.17
-0.76
-2.59
-3.84
-4.20
-3.61
-2.25
-0.45
1.36
2.84
3.83
4.26
4.15
3.53
2.42
0.99
-0.42
-1.41
-1.61
-0.90
0.54
2.26
3.77
4.76
5.19
5.26
5.21
5.19
5.12
4.87
4.36
3.72
3.27
3.37
4.20
5.69
7.53
9.36
10.94
12.29
13.60
15.11
16.94
18.92
20.64
21.52
20.99
18.75
14.78
9.32
2.72
-4.64
-12.40
-20.12
-27.20
-32.92
-36.69
-38.32
-38.14
-36.95
-35.68
-34.93
-34.83
-34.96
-34.71
-33.57
-31.43
-28.60
-25.70
-23.39
-22.03
-21.57
-21.56
-21.35
-20.45
-18.79
-16.81
-15.32
-15.08
-16.35
-18.74
-21.29
-22.95
-23.19
-22.33
-21.44
-21.74
-23.90
-27.53
-31.28
-33.54
-33.27
-30.57
-26.51
-22.41
-19.10
-16.45
-13.62
-9.69
-4.31
2.14
8.80
14.87
19.95
24.08
27.47
30.31
32.63
34.45
35.90
37.21
38.59
40.04
41.25
41.81
41.44
40.24
38.79
37.89
38.21
39.90
42.49
45.06
46.68
46.92
46.21
45.82
47.44
52.37
60.87
71.90
83.47
93.37
100.09
103.42
104.31
104.26
104.48
105.05
104.76
101.46
92.94
77.81
56.16
29.72
1.71
-23.72
-42.34
-50.74
-47.24
-32.61
-10.27
14.16
34.04
43.44
38.85
20.31
-8.48
-41.32
-71.31
-92.81
-102.79
-101.21
-90.60
-75.06
-59.21
-47.19
-41.88
-44.39
-53.56
-66.16
-77.47
-82.65
-78.24
-63.55
-41.02
-15.52
7.30
22.79
28.60
25.12
14.84
1.38
-11.77
-22.02
-28.10
-29.96
-28.56
-25.31
-21.57
-18.28
-15.77
-13.89
-12.31
-10.94
-10.01
-9.98
-11.22
-13.77
-17.21
-20.90
