1603373768.00
64.000000
-0.00
-0.00
-0.00
-0.00
-0.00
-0.00
-0.00
-0.00
-0.00
-0.00
0.00
0.01
0.01
-0.00
-0.03
-0.05
-0.05
0.00
0.13
0.36
0.66
1.01
1.37
1.72
2.06
2.40
2.79
3.24
3.80
4.42
5.06
5.66
6.20
6.68
7.15
7.68
8.31
9.14
10.09
11.04
11.88
12.56
13.14
13.76
14.66
15.97
17.92
20.32
22.90
25.37
27.57
29.59
31.72
34.38
37.87
42.53
48.00
53.78
59.32
64.31
68.85
73.41
78.66
85.06
93.09
102.22
111.66
120.57
128.45
135.38
142.00
149.57
156.68
165.48
176.51
189.91
204.59
217.82
225.38
222.64
206.06
174.51
130.12
76.62
18.42
-40.91
-99.41
-156.53
-212.36
-266.93
-319.96
-370.54
-418.01
-461.49
-499.75
-531.11
-553.55
-565.20
-564.85
-552.40
-528.65
-495.33
-454.29
-407.19
-355.40
-300.12
-242.80
-185.25
-129.69
-78.31
-33.21
4.09
33.02
54.52
71.21
87.09
106.33
131.58
162.57
195.78
225.70
247.02
256.75
255.25
245.70
232.50
219.36
208.16
198.84
190.07
180.24
168.37
154.41
139.27
124.43
111.26
100.46
91.84
84.63
78.04
71.70
65.79
60.71
56.59
53.09
49.67
45.75
41.23
36.54
32.36
29.01
26.20
23.03
18.52
12.13
4.18
-4.17
-11.38
-16.16
-17.93
-16.98
-14.22
-10.82
-7.82
-5.86
-5.10
-5.29
-5.95
-6.54
-6.61
-5.90
-4.46
-2.59
-0.76
0.57
1.16
1.07
0.58
0.05
-0.33
-0.64
-1.21
-2.35
-4.05
-5.86
-7.07
-7.07
-5.83
-3.99
-2.59
-2.43
-3.60
-5.36
-6.58
-6.39
-4.67
-2.12
0.28
1.84
2.59
3.24
4.71
7.45
10.99
14.09
15.27
13.55
9.02
2.81
-3.46
-8.30
-10.96
-11.39
-9.94
-7.10
-3.59
-0.64
-0.12
-3.78
-12.15
-23.50
-33.97
-38.98
-35.42
-23.36
-6.20
10.93
23.43
29.07
28.41
23.74
17.54
11.26
5.25
-0.53
-5.74
-9.34
-10.05
-7.14
-1.10
6.34
12.74
16.06
15.49
11.83
6.99
3.02
1.16
1.26
2.18
2.55
1.64
-0.36
-2.47
-3.63
-3.36
-2.10
-0.87
-0.69
-1.99
-4.52
-7.64
-10.79
-13.64
-16.09
-17.88
-18.42
-16.95
-12.96
-6.72
0.60
7.32
11.97
13.87
13.37
11.51
9.43
7.90
7.11
6.87
6.89
6.95
6.83
6.16
4.28
0.64
-4.85
-11.76
-18.94
-24.76
-27.51
-25.98
-19.98
-10.49
0.70
11.46
19.57
23.39
22.54
18.14
12.39
7.89
6.75
10.37
19.23
32.44
47.98
63.05
74.54
79.40
75.22
59.56
31.96
-3.03
-37.53
-63.71
-77.45
-79.50
-74.09
-66.40
-60.42
-57.64
-56.99
-56.55
-54.62
-50.93
-46.60
-43.55
-43.42
-47.03
-55.22
-66.40
-79.30
-93.00
-106.17
-116.10
-118.81
-110.75
-91.35
-64.45
-36.89
-15.22
-2.07
4.91
11.51
23.49
43.71
71.39
101.83
126.56
138.52
136.48
125.19
111.11
97.84
85.43
72.66
58.95
45.55
34.89
29.23
28.82
31.97
35.80
37.91
37.28
34.40
31.08
30.02
34.60
44.91
58.71
71.62
78.59
75.62
61.17
36.98
7.77
-20.32
-42.29
-55.75
-61.39
-61.84
-60.01
-57.95
-56.33
-54.85
-52.94
-50.72
-48.64
-47.66
-48.19
-49.41
-49.44
-46.18
-38.48
-26.67
-13.08
-1.32
5.06
4.39
-2.23
-11.43
-19.18
-22.51
-20.01
-12.26
-1.04
11.63
24.46
37.02
48.94
59.16
63.39
58.41
45.21
29.25
16.78
11.01
11.00
13.21
13.81
10.73
4.99
-0.51
-3.10
-1.77
2.44
7.28
10.56
11.11
9.13
6.35
4.73
5.23
7.42
9.98
11.27
10.40
7.53
3.50
-0.55
-4.11
-7.65
-11.88
-17.09
-22.82
-27.94
-31.33
-32.52
-31.79
-29.17
-26.31
-24.24
-23.02
-22.04
-20.69
-18.73
-16.92
-15.32
-14.10
-13.46
-13.12
-12.63
-11.67
-10.21
-8.38
-6.41
-4.36
-2.32
-0.31
2.02
5.06
9.37
14.98
21.81
29.88
39.41
49.98
60.22
68.57
74.08
76.59
76.34
73.66
68.82
62.10
53.78
44.87
35.83
27.58
21.21
17.31
15.70
15.43
15.07
13.18
8.79
3.17
-2.27
-6.15
-7.67
-6.74
-3.99
-0.32
3.36
6.54
9.05
10.94
12.41
13.60
14.59
15.40
16.02
16.46
16.71
16.73
16.37
15.44
13.64
10.61
6.13
0.26
-6.57
-13.77
-20.84
-27.72
-34.63
-41.97
-50.08
-58.89
-67.68
-75.27
-80.43
-82.55
-81.77
-78.75
-74.45
-69.96
-65.97
-62.39
-58.43
-53.01
-45.58
-36.50
-26.56
-17.07
-9.82
-6.04
-5.62
-6.87
-7.34
-5.51
-1.31
4.57
10.46
13.64
11.61
3.38
-9.73
-23.97
-35.21
-39.41
-32.50
-12.96
16.02
47.29
71.97
82.75
76.88
54.62
19.10
-23.63
-58.58
-71.84
-59.02
-28.82
5.48
36.85
62.93
79.22
88.49
91.25
85.32
68.43
39.29
-2.06
-47.43
-84.32
-104.71
-105.79
-92.07
-72.07
-53.06
-39.32
-38.84
-46.14
-57.02
-70.10
-85.52
-105.91
-135.73
-172.02
-204.34
-226.12
-234.07
-231.27
-221.80
-205.64
-179.49
-139.88
-86.76
-26.27
30.79
75.36
101.76
110.28
106.45
97.25
87.88
80.64
75.23
70.60
68.51
69.71
73.07
74.68
68.36
48.42
12.70
-36.26
-92.56
-148.86
-200.23
-244.81
-282.41
-312.02
-330.69
-334.44
-321.04
-292.22
-253.01
-210.13
-169.24
-134.62
-106.60
-82.35
-57.92
-30.64
-0.05
33.50
68.78
104.42
139.36
173.35
206.63
239.57
272.46
305.75
341.84
382.26
426.18
469.85
507.47
532.73
540.70
529.49
501.28
464.26
426.93
394.80
369.36
349.37
332.81
318.01
303.84
289.47
277.27
267.87
259.26
248.12
232.00
211.02
187.46
164.36
123.25
58.15
-23.08
-103.95
-171.39
-221.99
-258.00
-282.40
-296.92
-302.69
-298.49
-285.62
-268.41
-252.47
-242.67
-239.84
-240.55
-239.43
-232.42
-216.28
-190.84
-161.79
-137.59
-127.12
-134.85
-159.35
-194.41
-231.88
-262.39
-278.74
-277.34
-249.62
-196.06
-129.00
-66.80
-23.44
-2.93
0.24
-4.29
-8.02
-6.44
-1.04
4.16
6.76
7.01
6.90
8.68
12.92
17.84
20.51
18.52
10.88
1.03
-5.82
-5.92
0.94
11.78
21.58
26.07
22.85
12.79
0.93
-6.58
-5.15
6.27
24.80
44.89
60.57
67.48
60.14
38.85
7.71
-26.48
-55.76
-72.87
-73.53
-58.31
-33.27
-7.80
10.35
18.07
18.33
18.16
23.93
37.19
53.81
66.72
70.55
65.17
54.79
44.94
38.86
36.30
35.02
33.40
32.23
34.10
41.47
54.37
70.01
84.00
91.98
90.84
78.87
55.84
23.23
-15.20
-53.71
-85.63
-105.33
-110.10
-100.83
-81.49
-57.35
-32.97
-10.91
8.18
24.72
39.16
51.62
61.81
69.44
74.76
78.40
81.27
84.25
87.74
91.50
94.76
96.66
96.81
95.88
95.41
96.88
100.43
103.78
102.68
92.86
72.47
43.25
9.75
-23.20
-52.71
-78.44
-101.29
-121.41
-137.09
-145.60
-145.25
-136.95
-124.11
-110.79
-99.50
-90.25
-81.42
-71.65
-61.27
-52.18
-46.47
-44.88
-46.43
-49.00
-50.64
-50.55
-49.10
-47.43
-46.64
-47.25
-48.80
-49.78
-47.99
-41.17
-28.13
-9.40
12.24
32.24
45.58
48.49
39.64
20.44
-5.85
-35.20
-63.49
-86.37
-98.83
-95.63
-72.96
-30.89
25.14
84.78
135.77
168.24
177.95
167.28
143.73
116.50
93.26
77.98
70.41
66.53
59.88
43.35
11.80
-35.22
-92.01
-147.21
-187.12
-200.59
-183.43
-139.90
-80.98
-19.85
32.73
71.30
95.73
109.04
114.75
115.13
111.12
103.38
93.36
83.36
75.71
71.56
70.30
69.79
67.52
61.87
52.90
42.18
32.04
24.35
19.80
17.68
16.32
13.96
9.49
2.93
-4.72
-11.95
-17.38
-20.27
-20.71
-19.47
-17.53
-15.67
-14.18
-12.84
-11.21
-8.89
-5.78
-2.04
1.92
5.58
8.49
10.34
10.99
10.54
9.30
7.70
6.19
4.99
4.05
3.19
2.24
1.29
0.65
0.74
1.83
3.99
6.86
9.70
11.75
12.47
11.74
9.87
7.45
5.18
3.79
3.47
3.81
4.14
3.89
2.97
1.82
1.27
2.15
5.23
10.20
15.87
20.70
23.60
24.44
24.08
23.89
25.13
28.74
34.08
39.25
41.89
40.05
32.65
19.49
0.71
-24.27
-52.96
-80.55
-101.89
-114.41
-118.83
-117.81
-114.33
-110.70
-110.48
-111.59
-110.95
-105.88
-95.31
-80.39
-64.26
-51.05
-44.97
-47.99
-60.16
-79.30
-101.48
-122.75
-140.21
-151.59
-154.16
-144.93
-121.72
-83.52
-32.22
27.33
88.31
141.16
175.29
186.29
178.75
161.67
143.13
126.95
113.59
102.16
92.01
83.70
78.77
79.54
83.49
86.68
85.14
76.66
61.68
42.97
24.64
10.40
1.66
-3.17
-6.56
-10.63
-15.58
-20.31
-23.75
-25.84
-27.55
-30.29
-34.97
-40.59
-44.86
-45.51
-41.94
-35.64
-29.29
-25.17
-24.06
-25.11
-26.09
-24.74
-20.05
-12.77
-4.96
1.00
3.40
1.77
-3.24
-9.77
-15.60
-19.33
-20.83
-20.76
-19.38
-16.07
-10.04
-1.35
8.19
16.88
22.73
24.45
22.04
16.70
10.10
3.55
-2.53
-8.06
-13.62
-20.21
-28.62
-38.95
-50.34
-61.27
-70.09
-75.53
-76.95
-74.29
-67.94
-58.28
-45.61
-30.15
-12.62
5.56
22.41
36.00
45.20
49.92
51.14
50.28
48.69
47.08
45.51
43.66
41.37
38.96
37.17
36.87
37.11
36.75
35.08
32.81
31.85
33.97
39.29
45.78
49.93
48.27
39.32
24.45
7.27
-8.01
-18.34
-22.81
-22.93
-20.42
-16.76
-12.66
-8.25
-3.69
0.72
4.69
8.09
10.92
13.37
15.41
17.05
18.27
18.79
18.46
17.31
15.46
13.03
10.29
7.72
6.07
6.11
7.67
10.24
12.99
14.92
15.13
13.18
9.43
4.93
0.90
-2.51
-5.20
-7.20
-9.24
-12.88
-20.13
-32.23
-48.94
-68.35
-88.49
-106.55
-119.56
-125.71
-125.08
-119.67
-112.21
-105.63
-94.94
-79.87
-63.45
-48.11
-32.70
-13.88
10.39
39.41
69.58
96.10
114.23
122.91
125.34
126.72
131.93
140.50
148.81
151.76
145.30
127.67
101.44
72.53
47.08
28.42
15.89
6.23
-4.90
-21.43
-44.48
-74.09
-108.67
-145.36
-180.37
-209.34
-227.80
-232.62
-222.99
-201.02
-170.15
-133.91
-95.54
-58.07
-24.27
3.55
23.63
36.81
42.72
42.23
38.16
34.08
32.26
32.98
35.25
37.71
39.44
40.19
41.08
43.72
49.01
56.56
65.32
74.02
81.39
86.71
87.64
83.26
74.42
63.49
53.31
46.82
46.27
52.13
62.78
74.38
82.33
82.78
75.51
60.82
40.97
19.35
-1.15
-18.69
-32.89
-44.19
-53.11
-59.91
-65.15
-69.58
-72.37
-74.03
-75.32
-76.83
-78.58
-79.60
-78.30
-73.52
-64.82
-52.77
-39.11
-25.71
-12.10
0.70
11.28
19.04
24.52
29.06
33.71
38.37
42.34
44.69
44.48
41.73
37.36
32.47
28.17
25.14
23.24
22.21
21.64
20.92
19.74
18.19
16.37
14.40
12.37
10.29
8.27
6.50
5.07
4.11
4.79
7.39
11.57
16.43
20.86
24.00
25.45
25.29
24.05
22.51
21.08
19.95
18.96
17.77
16.09
13.71
10.60
6.95
3.14
-0.49
-3.65
-6.23
-8.37
-10.45
-12.98
-16.37
-20.66
-25.41
-29.85
-33.05
-34.29
-33.46
-31.26
-28.95
-27.82
-28.61
-31.05
-34.11
-36.46
-37.16
-36.11
-33.94
-31.68
-30.23
-30.11
-31.36
-33.46
-35.08
-33.98
-27.51
-13.65
7.67
33.71
59.17
77.56
83.31
74.22
52.87
26.04
2.11
-12.17
-14.27
-6.52
4.94
12.52
10.65
-1.75
-21.29
-42.20
-59.15
-69.12
-71.77
-69.14
-65.04
-63.37
-66.48
-74.72
-86.55
-98.77
-106.72
-104.83
-88.76
-58.10
-16.89
27.73
67.32
94.20
103.48
91.99
62.28
25.70
-5.23
-25.27
-36.10
-41.48
-43.99
-44.73
-43.99
-41.35
-35.65
-25.40
-8.94
14.40
42.03
67.57
83.70
87.09
81.26
74.50
73.70
79.53
86.11
85.28
72.67
51.68
32.25
24.82
33.46
52.68
70.88
76.81
65.39
39.47
7.33
-21.76
-41.59
-50.84
-52.29
-50.61
-49.62
-50.99
-54.15
-57.54
-59.43
-59.00
-56.53
-52.89
-48.77
-44.05
-38.03
-30.03
-20.18
-9.39
0.85
9.19
15.26
19.60
23.61
28.80
36.56
46.09
55.98
64.19
68.94
69.48
66.03
59.81
52.28
44.73
38.03
32.58
28.35
25.25
23.62
23.63
25.57
29.50
33.82
36.83
37.35
35.01
29.87
22.16
11.91
-0.08
-13.80
-28.44
-42.67
-55.22
-65.51
-73.93
-78.51
-79.30
-77.16
-73.49
-69.21
-64.85
-60.80
-57.49
-55.20
-53.89
-53.63
-53.97
-54.12
-52.55
-48.04
-40.41
-30.62
-20.06
-9.87
-1.10
5.74
10.64
14.73
19.30
25.23
32.59
41.13
50.59
60.50
70.55
76.33
74.86
67.00
56.53
46.18
36.61
27.59
18.91
10.72
3.28
-2.03
-5.26
-6.78
-7.49
-8.28
-9.60
-11.53
-13.78
-15.74
-16.23
-14.61
-10.81
-5.77
-0.84
2.90
4.98
5.59
5.33
5.09
5.23
5.47
4.94
2.84
-0.97
-6.06
-11.63
-16.92
-21.22
-24.22
-25.91
-26.49
-26.06
-24.36
-20.90
-15.19
-7.13
2.92
13.92
24.51
33.28
39.27
42.21
42.54
41.07
38.65
35.83
32.86
29.76
26.48
23.08
19.82
17.08
15.27
14.60
15.04
16.32
18.00
19.72
21.23
22.55
23.80
25.17
26.71
28.34
29.84
30.96
31.48
31.16
29.75
26.97
22.57
16.44
8.73
-0.05
-9.20
-17.98
-25.84
-32.51
-37.96
-42.40
-46.14
-49.47
-52.57
-55.45
-58.04
-60.25
-61.97
-62.96
-63.05
-62.15
-60.20
-57.15
-53.02
-48.00
-42.48
-37.03
-31.93
-27.53
-24.26
-22.38
-21.80
-22.10
-22.81
-23.63
-24.48
-24.91
-24.87
-24.89
-25.55
-26.83
-28.07
-28.37
-27.00
-23.61
-17.40
-8.52
1.65
11.39
19.76
26.85
33.41
40.46
48.78
60.00
74.41
90.37
105.17
116.55
123.18
124.71
121.75
107.83
83.03
54.87
32.01
17.21
7.80
-0.47
-10.53
-22.85
-35.96
-46.15
-50.73
-49.44
-43.79
-35.59
-26.45
-17.86
-10.64
-5.73
-2.85
-1.65
-2.17
-4.46
-7.99
-12.09
-16.39
-20.90
-26.04
-31.45
-36.68
-41.46
-45.59
-47.33
-44.80
-36.61
-22.63
-4.38
15.69
34.45
48.72
56.22
56.36
50.13
39.77
27.98
17.32
9.78
6.51
7.12
9.76
12.05
12.10
9.24
4.31
-0.83
-4.04
-3.44
1.04
7.33
12.59
14.75
13.31
9.35
4.99
2.55
4.49
11.49
21.63
31.58
37.76
36.81
25.99
4.30
-26.17
-58.66
-84.31
-95.60
-88.13
-62.38
-24.34
15.85
46.72
54.64
38.71
12.58
-9.12
-20.26
-23.11
-23.78
-27.22
-34.35
-42.03
-45.61
-41.95
-32.79
-22.44
-14.77
-11.28
-10.84
-10.78
-8.17
-0.67
11.52
24.77
34.62
38.39
36.32
30.86
25.14
21.83
22.47
26.42
30.76
32.55
30.21
24.24
16.23
7.68
-0.20
-6.69
-11.92
-17.11
-23.30
-30.98
-39.63
-48.49
-57.30
-65.41
-71.71
-74.86
-73.96
-68.38
-58.06
-43.07
-22.54
-0.11
18.61
30.35
35.72
36.69
37.20
37.46
37.31
36.73
35.82
35.76
36.11
37.59
40.33
43.85
46.99
48.89
48.89
46.39
41.57
35.26
28.61
22.25
16.47
11.21
6.79
3.51
1.42
0.45
0.44
1.08
1.53
0.93
-1.23
-4.61
-8.38
-11.66
-13.88
-14.71
-14.05
-12.04
-9.33
-6.70
-4.81
-4.22
-4.95
-7.83
-13.24
-20.77
-29.41
-37.31
-42.64
-44.18
-41.68
-35.76
-27.70
-18.78
-10.13
-2.69
2.92
6.47
8.16
8.68
8.96
9.80
11.80
14.91
18.44
21.46
23.11
23.02
21.45
19.11
16.77
15.05
14.19
14.09
14.63
15.69
17.14
18.75
20.17
20.93
20.59
18.70
15.21
10.65
5.97
2.18
-0.08
-0.71
-0.25
0.35
-0.17
-2.46
-6.19
-10.21
-13.33
-14.82
-14.67
-13.39
-11.61
-10.20
-9.55
-9.52
-9.77
-10.19
-10.84
-11.51
-11.43
-7.49
1.66
13.91
24.92
31.26
31.84
27.67
21.06
14.58
9.72
6.15
2.97
-0.66
-5.26
-11.14
-18.57
-28.02
-40.43
-55.03
-71.67
-89.61
-107.11
-121.71
-130.93
-133.09
-127.82
-116.08
-99.77
-81.46
-63.20
-46.02
-30.14
-15.42
-1.81
10.41
20.84
29.22
35.33
39.40
41.98
43.65
44.80
45.60
46.14
46.66
47.66
49.56
52.72
57.18
62.69
68.79
75.08
81.26
87.09
92.19
95.84
97.08
94.94
88.88
79.03
66.34
52.34
38.69
26.71
16.94
9.34
3.55
-0.74
-3.77
-5.60
-6.31
-5.96
-4.76
-3.02
-1.03
1.01
3.01
4.72
5.81
5.94
4.92
2.79
-0.49
-4.74
-9.39
-13.47
-16.11
-16.61
-14.63
-10.26
-4.02
2.49
7.86
11.64
14.29
16.31
18.16
20.41
23.88
29.57
36.30
42.16
45.58
45.48
40.64
30.53
16.02
-0.65
-16.67
-32.42
-48.96
-65.43
-79.26
-88.70
-93.40
-94.10
-92.24
-89.21
-89.46
-96.75
-110.78
-128.47
-148.04
-168.97
-190.22
-208.90
-201.19
-154.54
-79.94
0.02
69.85
122.97
158.90
179.13
182.49
168.31
134.83
82.83
18.98
-42.18
-87.48
-109.21
-105.85
-81.36
-42.99
3.52
43.18
63.35
62.92
49.68
33.26
20.19
12.36
8.80
5.95
0.41
-6.70
-11.40
-11.44
-8.28
-4.12
-1.37
-0.90
-2.55
-5.62
-7.40
-4.65
3.71
16.54
31.67
45.99
57.44
64.97
67.81
66.50
62.43
56.63
49.66
41.96
34.60
27.38
20.58
14.27
8.68
4.14
0.76
-1.44
-2.41
-2.29
-1.46
-0.40
0.14
-0.38
-1.69
-3.43
-5.02
-5.92
-5.99
-5.55
-5.08
-5.07
-5.73
-6.87
-8.14
-9.18
-9.82
-10.20
-10.54
-10.97
-11.41
-11.64
-11.41
-10.61
-9.35
-8.00
-7.03
-6.81
-7.43
-8.65
-10.09
-11.43
-12.55
-13.51
-14.48
-15.54
-16.62
-17.52
-18.01
-18.02
-17.60
-16.90
-16.00
-14.89
-13.57
-12.10
-10.71
-9.72
-9.39
-9.78
-10.72
-11.91
-13.02
-13.82
-14.21
-14.17
-13.64
-12.57
-10.90
-8.58
-5.61
-2.02
2.15
6.83
11.89
17.20
22.64
28.17
33.68
38.93
43.44
46.60
47.80
46.78
43.76
39.40
34.57
30.02
26.14
22.98
20.38
18.18
16.29
14.62
13.03
11.29
9.16
6.56
3.68
0.90
-1.34
-2.75
-3.35
-3.45
-3.50
-3.94
-5.06
-6.98
-9.63
-12.86
-16.38
-19.83
-22.80
-24.93
-26.07
-26.33
-26.08
-25.81
-25.89
-26.37
-26.99
-27.30
-26.88
-25.53
-23.30
-20.47
-17.31
-14.05
-10.81
-7.62
-4.49
-1.49
1.32
3.85
6.07
7.96
9.50
10.69
11.49
11.87
11.82
11.38
10.66
9.81
9.05
8.56
8.47
8.79
9.45
10.24
10.96
11.38
11.31
10.65
9.39
7.69
5.76
3.86
2.15
0.71
-0.50
-1.60
-2.72
-3.93
-5.25
-6.59
-7.74
-8.42
-8.33
-7.31
-5.39
-2.87
-0.13
2.46
4.74
6.80
8.77
10.74
12.56
13.95
14.61
14.42
13.50
12.17
10.80
9.69
8.98
8.73
8.89
9.42
10.18
10.94
11.42
11.34
10.58
9.18
7.41
5.57
3.91
2.52
1.34
0.22
-1.00
-2.40
-3.99
-5.70
-7.50
-9.30
-11.05
-12.64
-13.94
-14.79
-15.02
-14.53
-13.26
-11.29
-8.84
-6.23
-3.83
-1.91
-0.57
0.31
0.94
1.55
2.25
2.98
3.56
3.87
3.85
3.57
3.13
2.58
1.94
1.18
0.33
-0.53
-1.24
-1.66
-1.75
-1.60
-1.35
-1.21
-1.29
-1.62
-2.11
-2.61
-2.97
-3.08
-2.95
-2.70
-2.51
-2.56
-2.97
-3.77
-4.84
-5.92
-6.74
-7.15
-7.15
-6.85
-6.33
-5.62
-4.69
-3.42
-1.69
0.49
2.90
5.16
6.89
7.86
8.13
7.84
7.34
7.10
7.43
8.33
9.53
10.60
11.21
11.20
10.28
8.57
6.65
5.17
4.37
4.03
3.72
3.07
1.97
-0.09
-2.95
-5.53
-6.74
-6.28
-4.79
-3.26
-2.53
-2.83
-4.91
-8.42
-11.55
-12.34
-10.00
-5.24
0.24
4.19
4.31
-2.85
-18.94
-42.13
-68.14
-92.03
-109.83
-119.18
-119.84
-103.83
-72.30
-36.71
-8.77
8.13
17.22
22.17
25.44
27.19
26.92
23.03
15.05
5.37
-2.60
-5.09
-0.25
11.30
26.47
41.25
52.97
60.57
65.92
70.86
77.10
84.65
91.88
96.35
95.98
89.09
74.98
54.98
31.82
8.21
-14.17
-34.26
-50.76
-62.11
-63.65
-54.08
-37.75
-21.70
-10.56
-5.23
-4.57
-6.61
-10.20
-14.90
-21.18
-29.19
-37.18
-43.39
-46.95
-48.08
-47.52
-45.97
-43.71
-41.04
-37.81
-33.39
-27.16
-18.91
-8.92
2.26
13.98
25.32
35.27
43.25
49.43
54.45
59.18
64.13
69.32
74.07
76.86
76.18
70.96
60.70
45.25
24.99
0.71
-26.03
-52.89
-77.38
-96.60
-108.14
-111.10
-106.46
-96.56
-84.31
-72.26
-59.48
-47.54
-38.64
-33.73
-32.16
-32.89
-34.23
-34.61
-32.48
-26.39
-15.91
-1.14
17.17
37.53
57.65
74.88
86.61
90.89
87.13
76.03
60.02
42.56
27.01
15.64
9.50
8.53
12.16
19.71
29.95
41.17
51.18
57.63
58.74
54.04
44.74
33.31
22.87
15.25
10.33
6.57
2.17
-3.95
-11.72
-20.16
-28.05
-33.64
-36.54
-37.88
-39.23
-41.16
-43.10
-43.96
-43.04
-40.57
-36.06
-30.08
-24.36
-20.46
-18.29
-16.52
-13.36
-7.38
2.48
18.91
42.97
72.49
102.92
129.42
147.92
155.89
152.57
127.54
81.60
28.39
-16.24
-45.63
-61.40
-68.84
-71.46
-70.09
-64.55
-52.83
-34.78
-12.92
7.88
23.39
31.22
31.20
24.96
15.23
6.42
1.21
-0.54
-0.88
-1.68
-3.95
-7.72
-12.67
-18.46
-24.00
-28.79
-32.81
-36.05
-37.71
-36.81
-32.66
-25.60
-17.11
-8.35
-2.51
-2.40
-8.39
-18.31
-29.38
-39.11
-45.88
-49.12
-48.91
-46.10
-41.69
-37.52
-33.80
-30.89
-28.98
-27.99
-27.63
-27.51
-27.31
-26.71
-25.50
-23.60
-21.36
-18.89
-16.33
-13.74
-11.00
-8.04
-4.65
-0.75
3.56
7.72
11.04
12.99
13.30
12.20
10.29
8.51
7.76
8.68
11.28
15.21
19.97
25.14
30.64
36.61
43.31
50.85
59.05
67.31
74.76
80.56
84.02
84.82
83.01
78.90
72.93
65.57
57.11
47.59
36.77
24.28
9.81
-6.46
-23.66
-40.16
-53.94
-63.23
-67.18
-66.15
-61.50
-54.93
-47.84
-41.00
-34.52
-28.27
-22.30
-16.96
-12.81
-10.23
-8.99
-8.36
-7.56
-6.08
-3.84
-1.22
1.17
2.75
3.21
2.92
2.44
2.11
1.89
1.46
0.49
-1.27
-3.86
-7.12
-10.07
-11.73
-11.52
-9.43
-5.76
-0.95
4.45
9.89
14.81
19.52
24.39
29.42
34.28
38.71
42.73
46.71
51.17
52.23
47.74
38.56
27.92
18.50
11.09
5.15
-0.15
-5.43
-10.91
-15.81
-19.16
-20.43
-19.60
-16.60
-11.94
-6.23
-0.38
4.44
7.75
9.42
9.54
8.32
6.12
3.34
0.30
-2.91
-6.28
-9.68
-12.55
-14.50
-15.52
-15.92
-16.19
-16.80
-18.11
-20.30
-23.16
-26.32
-29.48
-32.45
-34.94
-36.64
-37.14
-36.25
-34.00
-30.58
-26.20
-21.07
-15.32
-9.07
-2.57
3.76
9.31
13.53
16.15
17.38
17.72
17.76
17.91
18.20
18.37
18.03
16.97
15.25
13.20
11.19
9.36
7.48
5.06
1.57
-3.22
-9.05
-15.26
-21.06
-25.84
-29.38
-31.87
-33.68
-35.19
-36.67
-38.21
-39.85
-41.48
-42.84
-43.43
-42.60
-39.73
-34.67
-27.94
-20.71
-14.36
-9.83
-7.14
-5.29
-2.68
2.08
9.60
19.34
29.90
39.64
47.31
52.42
55.16
56.10
55.84
54.76
53.06
50.93
48.69
46.76
45.50
45.03
45.08
45.07
44.32
42.34
39.03
34.71
29.96
25.38
21.31
17.80
14.57
11.22
7.40
2.98
-1.90
-6.89
-11.53
-15.45
-18.43
-20.48
-21.77
-22.58
-23.17
-23.74
-24.44
-25.22
-25.91
-26.14
-25.36
-22.92
-18.27
-11.17
-1.87
8.87
19.85
29.73
37.35
42.01
43.55
42.33
38.97
34.21
28.74
23.16
17.92
13.35
9.57
6.51
3.89
1.35
-1.52
-5.04
-9.38
-14.47
-20.01
-25.51
-30.38
-34.12
-36.43
-37.30
-36.94
-35.63
-33.57
-30.74
-26.95
-21.99
-15.89
-8.95
-1.74
5.11
11.24
16.69
21.86
27.19
32.85
38.43
43.02
45.59
45.31
42.03
36.22
28.80
20.74
12.73
5.00
-2.57
-10.25
-18.19
-26.31
-34.28
-41.67
-48.09
-53.32
-57.33
-60.21
-61.99
-62.64
-62.08
-60.31
-57.52
-54.14
-50.69
-47.63
-45.20
-43.32
-41.69
-39.92
-37.74
-35.07
-32.03
-28.87
-25.81
-23.05
-20.68
-18.72
-17.04
-15.45
-13.63
-11.22
-7.99
-3.87
0.90
5.88
10.61
14.74
18.22
21.16
23.77
26.16
28.30
30.00
31.10
31.52
31.38
30.87
30.19
29.45
28.67
27.80
26.79
25.68
24.54
23.46
22.52
21.74
21.08
20.49
19.93
19.37
18.79
18.20
17.58
16.96
16.37
15.86
15.48
15.24
15.13
15.14
15.20
15.26
15.23
15.04
14.63
14.03
13.35
12.83
12.77
13.43
14.94
17.26
20.17
23.34
26.39
28.98
30.89
32.01
32.33
31.91
30.82
29.09
26.73
23.77
20.26
16.31
12.09
7.75
3.42
-0.80
-4.86
-8.63
-12.03
-14.92
-17.24
-19.01
-20.39
-21.56
-22.73
-24.01
-25.41
-26.83
-28.18
-29.36
-30.37
-31.22
-31.97
-32.66
-33.33
-34.03
-34.79
-35.66
-36.62
-37.56
-38.36
-38.86
-38.91
-38.43
-37.38
-35.77
-33.73
-31.48
-29.30
-27.49
-26.23
-25.53
-25.23
-25.11
-24.97
-24.74
-24.48
-24.36
-24.53
-25.10
-26.03
-27.23
-28.52
-29.67
-30.38
-30.37
-29.42
-27.46
-24.64
-21.30
-17.90
-14.78
-12.09
-9.65
-7.04
-3.80
0.33
5.30
10.79
16.34
21.60
26.37
30.65
34.51
37.92
40.64
42.37
42.86
42.11
40.41
38.28
36.37
35.26
35.23
36.15
37.62
39.18
40.55
41.64
42.47
43.03
43.39
43.35
42.58
40.81
38.16
35.04
32.05
29.64
28.04
27.42
27.57
27.86
27.52
26.05
23.37
19.80
15.83
12.10
9.40
8.18
8.22
8.88
9.46
9.38
8.17
5.56
-0.36
-9.35
-18.55
-24.38
-25.24
-22.01
-17.02
-12.93
-11.67
-13.79
-18.20
-23.13
-27.11
-29.61
-30.86
-31.50
-31.99
-32.67
-32.51
-30.22
-25.02
-17.16
-7.69
2.13
11.25
18.87
24.37
27.26
27.48
25.44
21.95
18.10
14.94
13.14
13.06
14.69
17.72
21.84
26.65
31.44
35.05
36.16
33.83
27.93
19.25
9.25
-0.65
-9.62
-17.75
-25.63
-33.85
-42.44
-50.92
-58.60
-64.87
-69.19
-71.19
-70.70
-67.88
-63.30
-57.79
-52.42
-48.13
-45.21
-42.95
-39.85
-34.44
-25.90
-14.51
-1.25
12.35
24.85
35.24
43.17
48.75
52.05
53.01
50.71
45.29
38.39
32.18
27.94
25.55
24.03
21.94
18.18
12.47
5.56
-1.40
-7.39
-11.98
-16.03
-19.61
-22.83
-25.52
-27.28
-27.46
-25.93
-23.11
-19.88
-17.18
-15.54
-15.24
-16.23
-18.39
-20.71
-22.88
-24.82
-26.48
-27.65
-27.75
-26.31
-23.06
-18.13
-11.99
-5.46
0.78
6.35
11.23
15.68
19.87
23.76
27.13
29.70
31.19
31.48
30.61
28.72
26.02
22.69
18.90
14.83
10.68
6.54
2.45
-1.60
-5.72
-9.97
-14.39
-18.86
-23.13
-26.83
-29.58
-31.09
-31.18
-29.83
-27.14
-23.30
-18.60
-13.37
-7.95
-2.72
2.06
6.13
9.37
11.73
13.24
14.08
14.53
14.88
15.37
16.01
16.61
16.89
16.67
15.97
15.05
14.24
13.86
14.13
15.09
16.67
18.64
20.71
22.51
23.84
24.68
25.26
25.98
27.14
28.80
30.77
32.68
34.19
35.12
35.47
35.27
34.50
33.03
30.72
27.47
23.35
18.52
13.31
8.09
3.21
-1.03
-4.41
-6.74
-7.89
-7.73
-6.17
-3.25
0.85
5.72
10.77
15.38
19.08
21.65
23.11
23.69
23.69
23.38
22.93
22.40
21.75
20.89
19.70
18.05
15.86
13.12
9.96
6.51
2.90
-0.80
-4.61
-8.56
-12.73
-17.23
-21.99
-26.69
-30.99
-34.59
-37.38
-39.36
-40.65
-41.39
-41.91
-42.19
-42.02
-41.34
-40.54
-40.30
-41.26
-43.76
-47.66
-52.73
-58.12
-62.84
-66.33
-68.87
-71.11
-73.60
-76.42
-79.08
-81.08
-81.26
-78.26
-71.32
-60.56
-46.64
-30.19
-11.59
11.25
36.04
57.77
72.59
79.98
81.59
79.46
75.11
69.29
62.20
53.64
44.40
36.41
31.69
31.14
34.01
38.38
41.18
39.97
33.58
23.20
11.88
2.86
-1.88
-2.03
1.17
5.71
9.80
12.13
12.51
11.54
10.08
8.11
5.96
4.08
2.86
2.55
2.93
3.53
3.82
3.30
1.66
-0.99
-4.25
-7.50
-10.03
-11.26
-10.90
-8.92
-5.61
-1.56
2.61
6.19
8.64
9.84
10.03
9.60
9.05
8.67
8.50
8.40
7.93
6.89
5.46
4.02
2.74
1.48
-0.20
-2.70
-6.18
-10.57
-15.12
-18.57
-19.82
-18.55
-15.37
-11.55
-8.44
-7.11
-8.24
-11.51
-15.63
-19.06
-20.70
-19.99
-16.84
-11.35
-2.27
8.80
17.43
19.01
11.75
-2.76
-20.44
-36.24
-45.85
-47.50
-42.65
-34.50
-26.33
-20.12
-16.23
-13.75
-11.86
-9.41
-6.28
-3.11
-0.23
2.72
6.57
11.95
18.71
25.69
31.59
35.28
36.15
34.58
31.73
28.99
27.37
27.13
27.87
28.95
29.56
29.16
27.70
25.71
23.56
21.73
20.46
19.67
19.09
18.17
16.50
13.96
10.59
6.70
2.86
-0.40
-2.78
-4.14
-4.54
-3.98
-2.44
-0.44
1.50
3.09
4.14
4.35
4.09
3.38
2.37
1.32
-0.22
-2.43
-5.04
-7.60
-9.97
-12.30
-14.93
-18.02
-21.54
-26.19
-32.17
-38.92
-45.53
-51.29
-55.92
-59.49
-62.26
-59.10
-48.77
-34.47
-20.92
-10.61
-3.51
1.34
4.76
7.19
8.84
9.01
7.63
5.34
3.13
1.63
0.93
0.87
1.29
2.18
2.51
2.46
2.55
3.41
5.29
7.85
10.48
12.59
13.88
13.99
13.20
12.14
11.52
11.60
12.16
12.72
12.87
12.44
11.32
9.80
8.17
6.73
5.57
4.66
3.92
3.33
2.93
2.63
2.36
1.95
1.23
0.10
-1.41
-3.15
-4.84
-6.27
-7.31
-7.96
-8.41
-8.88
-9.53
-10.41
-11.43
-12.48
-13.45
-14.32
-15.18
-16.13
-17.31
-18.74
-20.38
-22.13
-23.84
-25.31
-26.39
-26.92
-26.76
-25.87
-24.24
-21.98
-19.26
-16.32
-13.43
-10.87
-8.83
-7.39
-6.53
-6.09
-5.92
-5.90
-5.98
-6.15
-6.39
-6.60
-6.61
-6.22
-5.25
-3.67
-1.49
1.13
4.00
6.91
9.65
12.07
14.11
15.79
17.18
18.35
19.30
20.03
20.56
20.96
21.38
21.89
22.47
22.96
23.15
22.90
22.20
21.20
19.99
18.56
16.78
14.50
11.70
8.68
5.90
3.87
2.89
2.96
3.73
4.75
5.61
6.10
6.23
6.17
6.02
5.84
5.51
4.90
3.91
2.56
0.97
-0.66
-2.18
-3.51
-4.64
-5.59
-6.39
-7.02
-7.46
-7.68
-7.70
-7.55
-7.27
-6.86
-6.29
-5.56
-4.73
-3.93
-3.30
-2.96
-2.89
-3.01
-3.18
-3.33
-3.52
-3.92
-4.75
-6.20
-8.35
-11.16
-14.46
-17.97
-21.37
-24.29
-26.41
-27.59
-27.87
-27.51
-26.81
-26.03
-25.24
-24.35
-23.19
-21.64
-19.77
-17.84
-16.18
-15.08
-14.71
-14.97
-15.58
-16.12
-16.17
-15.38
-13.61
-10.98
-7.83
-4.57
-1.51
1.29
4.11
7.41
11.56
16.67
22.48
28.41
33.82
38.18
41.35
43.49
44.98
46.03
46.62
46.47
45.19
42.56
38.66
33.90
29.00
24.67
21.39
19.46
19.01
20.12
22.78
26.86
32.08
38.29
45.13
52.05
58.45
63.92
68.28
71.44
73.38
74.04
74.00
73.63
72.96
71.87
70.30
68.23
65.61
62.18
57.66
52.87
48.60
45.29
43.13
42.15
42.12
42.37
41.87
39.58
36.04
31.69
26.56
20.37
13.24
5.96
-0.08
-3.24
-9.85
-21.79
-36.85
-50.83
-61.16
-67.60
-70.74
-71.14
-69.30
-65.96
-61.00
-55.13
-49.79
-46.45
-45.71
-47.01
-49.25
-51.38
-52.94
-53.08
-51.66
-49.04
-45.56
-41.28
-36.00
-30.20
-24.83
-21.15
-19.40
-19.21
-19.67
-19.66
-18.20
-14.86
-10.11
-5.00
-0.70
2.29
3.96
4.69
4.96
5.26
5.92
7.01
8.45
10.14
12.11
14.46
17.38
20.78
24.43
28.05
31.38
34.25
36.52
38.12
38.94
38.87
37.76
35.52
32.22
28.10
23.62
19.29
15.56
12.68
10.63
9.10
7.68
6.01
3.94
1.57
-0.83
-2.97
-4.66
-5.87
-6.69
-7.32
-7.93
-8.69
-9.71
-10.99
-12.49
-14.13
-15.85
-17.63
-19.44
-21.21
-22.84
-24.22
-25.31
-26.20
-27.05
-28.02
-29.16
-30.38
-31.37
-31.78
-31.43
-30.43
-29.08
-27.73
-26.65
-25.88
-25.44
-25.18
-24.95
-24.64
-24.28
-23.90
-23.50
-22.99
-22.23
-21.20
-19.73
-17.62
-14.85
-11.73
-8.74
-6.31
-4.72
-3.96
-4.28
-5.42
-6.76
-8.00
-9.37
-11.28
-14.03
-17.57
-21.60
-26.61
-32.07
-36.77
-40.02
-42.14
-44.03
-46.47
-49.88
-54.21
-60.57
-68.28
-75.34
-80.25
-83.00
-84.45
-85.63
-87.51
-91.07
-98.80
-110.23
-121.62
-128.22
-126.14
-112.83
-87.50
-51.42
3.58
69.21
128.10
168.63
190.17
196.63
191.08
175.35
151.53
122.93
92.21
63.94
42.74
30.32
24.78
22.62
20.93
18.47
15.11
9.93
3.60
-2.08
-5.79
-7.43
-7.41
-6.52
-4.32
-0.84
2.66
5.64
8.30
10.74
12.55
13.30
12.72
11.24
9.64
8.43
8.51
10.74
15.23
21.12
27.00
31.83
34.94
36.02
35.06
32.41
28.74
24.65
20.59
16.96
14.09
12.24
11.47
11.63
12.44
13.55
14.63
15.45
15.89
15.98
15.80
15.40
14.82
14.00
12.86
11.31
9.33
6.95
4.49
2.26
0.45
-0.93
-1.98
-2.83
-3.59
-4.29
-4.95
-5.62
-6.36
-7.23
-8.12
-8.83
-9.13
-8.89
-8.16
-7.15
-6.16
-5.40
-4.88
-4.47
-3.91
-2.97
-1.57
0.26
2.40
4.73
7.18
9.78
12.54
15.49
18.57
21.65
24.59
27.23
29.46
31.12
32.02
31.95
30.70
28.22
24.59
20.14
15.28
10.45
5.93
1.74
-2.29
-6.44
-10.89
-15.64
-20.42
-24.88
-28.68
-31.65
-33.77
-35.16
-35.94
-36.13
-35.69
-34.59
-32.90
-30.86
-28.81
-27.05
-25.71
-24.74
-23.96
-23.21
-22.41
-21.61
-20.89
-20.23
-19.49
-18.44
-16.86
-14.63
-11.85
-8.75
-5.64
-2.74
-0.13
2.15
4.12
5.71
6.80
7.25
6.96
5.98
4.46
2.65
0.74
-1.09
-2.79
-4.32
-5.72
-6.96
-7.98
-8.72
-9.06
-8.92
-8.24
-7.07
-5.56
-3.90
-2.29
-0.83
0.45
1.61
2.68
3.66
4.48
5.09
5.51
5.85
6.28
6.88
7.64
8.38
8.96
9.30
9.57
10.04
11.03
12.69
14.95
17.51
20.00
22.10
23.64
24.65
25.18
25.31
25.03
24.32
23.18
21.69
20.03
18.35
16.72
15.10
13.45
11.71
9.86
7.96
6.09
4.36
2.81
1.39
0.05
-1.29
-2.77
-4.60
-6.95
-9.84
-13.12
-16.54
-19.92
-23.19
-26.26
-29.16
-31.98
-34.62
-36.88
-38.56
-39.60
-40.26
-40.83
-41.11
-41.01
-40.60
-39.87
-38.78
-37.26
-35.35
-33.56
-32.26
-30.94
-29.45
-28.16
-27.15
-26.20
-24.99
-23.24
-21.63
-20.70
-19.71
-18.48
-17.58
-17.10
-16.69
-15.99
-14.97
-14.91
-16.72
-19.21
-21.56
-23.88
-25.98
-27.59
-28.79
-23.93
-11.24
-0.07
7.11
12.56
15.77
15.94
12.88
7.47
1.66
-3.02
-4.89
-1.63
9.25
25.48
42.55
56.74
66.82
73.12
75.01
71.60
63.37
51.48
37.39
23.88
13.79
8.70
8.31
10.56
13.55
17.02
21.37
26.57
32.52
38.72
44.25
48.06
49.25
48.34
45.92
42.75
38.89
34.21
28.66
22.67
17.11
12.96
11.06
11.55
13.75
16.18
17.50
17.12
15.41
13.32
11.67
10.78
10.27
9.46
7.68
4.63
0.48
-4.51
-9.27
-13.15
-15.90
-17.64
-18.63
-19.17
-19.48
-19.77
-20.18
-20.87
-21.98
-23.46
-25.02
-26.17
-26.51
-25.94
-24.67
-23.15
-21.75
-20.75
-20.14
-19.84
-19.81
-20.24
-21.45
-23.79
-27.42
-32.22
-37.86
-43.80
-49.31
-53.38
-54.92
-52.99
-47.29
-38.54
-28.43
-19.01
-11.78
-6.95
-3.41
0.54
6.04
12.87
19.47
23.87
24.86
22.81
19.50
17.24
17.78
21.66
28.24
36.24
44.41
51.92
58.31
63.13
65.81
65.71
62.38
55.95
47.15
37.27
27.73
19.81
14.35
11.68
11.64
13.65
16.88
20.48
23.79
26.57
28.97
31.38
34.00
36.54
38.15
37.73
34.46
28.20
19.69
10.23
1.20
-6.42
-12.28
-16.51
-19.46
-21.46
-22.65
-23.09
-22.82
-21.96
-20.66
-19.06
-17.24
-15.24
-13.08
-10.83
-8.57
-6.39
-4.38
-2.58
-0.96
0.50
1.91
3.38
4.99
6.80
8.73
10.65
12.38
13.74
14.59
14.78
14.13
12.51
9.81
6.11
1.63
-3.29
-8.31
-13.21
-17.91
-22.44
-26.80
-30.88
-34.43
-37.13
-38.69
-38.99
-38.06
-36.07
-33.29
-30.01
-26.45
-22.80
-19.17
-15.68
-12.43
-9.53
-7.11
-5.25
-3.94
-3.10
-2.56
-2.15
-1.78
-1.43
-1.18
-1.13
-1.34
-1.81
-2.44
-3.08
-3.61
-3.94
-4.06
-4.06
-4.02
-4.02
-4.05
-4.07
-4.03
-3.93
-3.84
-3.84
-3.98
-4.23
-4.56
-4.89
-5.25
-5.73
-6.44
-7.39
-8.44
-9.28
-9.55
-8.93
-7.24
-4.48
-0.83
3.43
7.93
12.30
16.17
19.26
21.41
22.63
23.06
22.89
22.30
21.40
20.26
18.96
17.61
16.30
15.08
13.89
12.63
11.19
9.54
7.78
6.03
4.43
3.07
1.92
0.90
-0.14
-1.32
-2.69
-4.25
-5.90
-7.48
-8.89
-10.08
-11.13
-12.16
-13.25
-14.39
-15.44
-16.22
-16.57
-16.40
-15.64
-14.33
-12.54
-10.40
-8.11
-5.86
-3.82
-2.03
-0.50
0.84
2.02
2.97
3.63
3.91
3.79
3.34
2.71
2.03
1.44
0.98
0.66
0.44
0.23
-0.03
-0.37
-0.77
-1.18
-1.59
-1.98
-2.42
-2.95
-3.64
-4.46
-5.35
-6.21
-6.93
-7.45
-7.82
-8.17
-8.64
-9.34
-10.29
-11.38
-12.44
-13.23
-13.53
-13.23
-12.28
-10.78
-8.86
-6.62
-4.14
-1.47
1.34
4.14
6.76
8.99
10.70
11.83
12.49
12.80
12.91
12.93
12.92
12.94
13.09
13.45
14.03
14.82
15.70
16.50
17.07
17.33
17.32
17.19
17.14
17.32
17.71
18.09
18.11
17.45
15.94
13.67
10.90
8.00
5.30
2.98
1.06
-0.53
-1.91
-3.16
-4.26
-5.09
-5.40
-4.97
-3.67
-1.56
1.08
3.80
6.16
7.78
8.47
8.26
7.31
5.83
4.05
2.16
0.34
-1.29
-2.68
-3.91
-5.18
-6.77
-8.88
-11.57
-14.71
-18.03
-21.26
-24.23
-26.86
-29.11
-30.79
-31.58
-31.14
-29.39
-26.64
-23.63
-21.26
-20.23
-20.77
-22.61
-25.12
-27.70
-30.03
-32.18
-34.43
-37.06
-40.08
-43.24
-46.08
-48.14
-49.12
-48.94
-47.69
-45.51
-42.46
-38.50
-33.56
-27.67
-21.09
-14.28
-7.86
-2.37
1.84
4.73
6.52
7.54
8.07
8.27
8.17
7.74
7.09
6.41
5.97
5.98
6.48
7.33
8.27
9.08
9.62
9.87
9.89
9.74
9.42
8.91
8.22
7.38
6.47
5.54
4.60
3.61
2.53
1.35
0.08
-1.23
-2.55
-3.90
-5.33
-6.86
-8.49
-10.07
-11.34
-12.02
-11.88
-10.84
-8.99
-6.56
-3.83
-1.03
1.74
4.52
7.40
10.38
13.34
16.00
18.04
19.30
19.83
19.86
19.68
19.41
18.98
18.13
16.72
14.78
12.67
10.85
9.69
9.28
9.39
9.62
9.60
9.15
8.31
7.30
6.32
5.46
4.64
3.66
2.30
0.47
-1.81
-4.39
-7.05
-9.55
-11.64
-13.02
-13.45
-12.75
-10.92
-8.17
-4.77
-0.91
3.40
8.33
14.08
20.63
27.60
34.32
40.04
44.20
46.57
47.23
46.51
44.78
42.38
39.60
36.66
33.75
30.94
28.20
25.36
22.29
18.89
15.20
11.40
7.77
4.56
1.99
0.10
-1.16
-1.96
-2.51
-3.02
-3.68
-4.63
-5.96
-7.67
-9.67
-11.77
-13.78
-15.57
-17.21
-18.92
-21.06
-23.84
-27.24
-30.93
-34.39
-37.12
-38.82
-39.43
-39.12
-38.16
-36.80
-35.25
-33.66
-32.11
-30.64
-29.25
-27.89
-26.50
-25.07
-23.59
-22.07
-20.48
-18.75
-16.74
-14.27
-11.13
-7.11
-2.07
3.89
10.40
16.86
22.63
27.23
30.61
33.13
35.42
37.99
40.95
43.94
46.28
47.37
46.98
45.42
43.40
41.75
41.17
42.17
45.13
50.29
57.65
66.67
76.09
84.18
89.36
90.94
89.54
86.74
84.21
82.63
81.24
78.22
71.77
61.19
47.33
32.22
17.97
5.88
-3.89
-12.01
-19.23
-25.81
-31.36
-35.24
-36.99
-36.79
-35.45
-33.98
-33.23
-33.43
-34.20
-34.80
-34.51
-33.05
-30.68
-28.12
-26.15
-25.30
-25.62
-26.78
-28.22
-29.51
-30.47
-31.22
-32.06
-33.24
-34.87
-36.89
-39.20
-41.67
-44.19
-46.59
-48.60
-49.93
-50.34
-49.80
-48.44
-46.53
-44.31
-41.87
-39.17
-36.11
-32.72
-29.15
-25.68
-22.63
-20.18
-18.40
-17.18
-16.35
-15.64
-14.76
-13.49
-11.76
-9.65
-7.36
-5.09
-2.93
-0.84
1.44
4.20
7.76
12.24
17.57
23.41
29.23
34.44
38.54
41.24
42.44
42.13
40.35
37.13
32.52
26.69
19.97
12.85
5.83
-0.58
-5.88
-9.63
-11.45
-11.02
-8.24
-3.23
3.56
11.45
19.76
27.90
35.47
42.17
47.71
51.86
54.41
55.19
54.03
50.87
45.65
38.37
29.04
17.84
5.22
-8.11
-21.58
-34.89
-47.92
-60.51
-72.46
-83.35
-92.66
-99.59
-103.34
-103.76
-101.49
-97.42
-92.32
-86.70
-80.89
-75.15
-69.36
-63.23
-56.87
-50.89
-45.61
-40.88
-36.57
-32.93
-30.46
-28.60
-25.26
-17.75
-4.04
16.49
42.46
70.54
96.80
115.33
121.06
115.80
106.40
97.77
90.75
84.57
79.13
75.42
74.10
74.54
74.35
69.91
58.21
39.36
16.86
-4.44
-20.76
-30.87
-35.65
-37.50
-37.98
-38.30
-38.58
-37.96
-35.51
-30.86
-24.41
-16.83
-8.94
-1.89
2.70
3.51
0.24
-6.27
-14.37
-22.07
-27.64
-30.06
-29.28
-25.70
-20.59
-15.28
-10.70
-7.36
-5.46
-4.96
-5.64
-6.99
-8.31
-8.82
-7.70
-4.59
0.19
5.74
10.91
14.89
17.49
19.14
20.42
21.85
23.52
25.05
25.85
25.49
23.91
21.54
19.05
17.04
15.84
15.36
15.11
14.45
12.81
9.97
6.11
1.68
-2.76
-6.81
-10.23
-13.02
-15.26
-17.03
-18.37
-19.31
-19.90
-20.28
-20.54
-20.69
-20.64
-20.23
-19.33
-17.89
-16.01
-13.79
-11.35
-8.73
-5.97
-3.16
-0.42
2.04
4.04
5.49
6.40
6.86
6.99
6.93
6.77
6.57
6.39
6.29
6.34
6.61
7.18
8.11
9.47
11.25
13.42
15.84
18.34
20.67
22.58
23.85
24.35
24.15
23.49
22.78
22.49
22.91
24.06
25.59
26.97
27.70
27.51
26.43
24.82
23.11
21.70
20.87
20.68
21.01
21.57
21.98
21.78
20.63
18.40
15.21
11.40
7.39
3.56
0.12
-2.89
-5.53
-7.92
-10.19
-12.49
-14.97
-17.76
-20.88
-24.22
-27.50
-30.35
-32.43
-33.53
-33.58
-32.71
-31.16
-29.20
-27.11
-25.11
-23.33
-21.83
-20.60
-19.58
-18.75
-18.11
-17.78
-17.90
-18.58
-19.78
-21.30
-22.77
-23.79
-24.03
-23.37
-21.88
-19.84
-17.54
-15.26
-13.17
-11.27
-9.50
-7.78
-6.04
-4.33
-2.75
-1.47
-0.64
-0.33
-0.47
-0.77
-0.83
-0.24
1.28
3.81
7.18
11.06
15.09
18.97
22.44
25.32
27.37
28.39
28.25
26.98
24.85
22.28
19.72
17.52
15.78
14.37
13.06
11.52
9.50
6.78
3.26
-1.05
-5.93
-10.91
-15.39
-18.74
-20.55
-20.77
-19.68
-17.81
-15.68
-13.62
-11.68
-9.78
-7.82
-5.84
-4.03
-2.66
-1.92
-1.83
-2.21
-2.78
-3.28
-3.56
-3.65
-3.69
-3.81
-4.00
-4.16
-4.13
-3.85
-3.36
-2.82
-2.41
-2.23
-2.24
-2.33
-2.34
-2.21
-1.95
-1.66
-1.47
-1.50
-1.84
-2.54
-3.60
-4.91
-6.30
-7.58
-8.56
-9.09
-9.06
-8.39
-7.00
-4.89
-2.17
0.95
4.15
7.14
9.73
11.89
13.73
15.42
17.12
18.88
20.63
22.22
23.40
23.99
23.86
23.05
21.78
20.33
18.96
17.83
16.91
16.08
15.26
14.44
13.74
13.28
13.09
13.05
12.97
12.64
11.95
10.96
9.79
8.58
7.38
6.14
4.74
3.03
0.98
-1.41
-4.05
-6.82
-9.52
-11.92
-13.77
-14.88
-15.09
-14.36
-12.76
-10.41
-7.54
-4.40
-1.26
1.63
4.10
6.05
7.49
8.48
9.12
9.48
9.60
9.53
9.35
9.14
8.97
8.85
8.73
8.57
8.31
7.97
7.60
7.26
7.00
6.83
6.76
6.75
6.77
6.74
6.58
6.25
5.74
5.11
4.46
3.84
3.27
2.65
1.90
0.94
-0.23
-1.58
-2.99
-4.31
-5.31
-5.73
-5.36
-4.07
-1.95
0.76
3.64
6.33
8.57
10.31
11.66
12.80
13.87
14.90
15.80
16.40
16.50
15.98
14.83
13.15
11.07
8.74
6.18
3.41
0.43
-2.69
-5.75
-8.51
-10.71
-12.23
-13.08
-13.42
-13.48
-13.54
-13.91
-14.85
-16.50
-18.76
-21.21
-23.21
-24.10
-23.50
-21.56
-18.94
-16.52
-15.03
-14.85
-15.87
-17.69
-19.83
-21.92
-23.69
-24.89
-25.28
-24.62
-22.80
-19.93
-16.30
-12.31
-8.27
-4.41
-0.76
2.68
5.95
9.00
11.80
14.23
16.16
17.45
17.99
17.73
16.74
15.18
13.29
11.33
9.49
7.92
6.67
5.80
5.34
5.28
5.60
6.20
6.96
7.72
8.35
8.74
8.81
8.53
7.87
6.89
5.70
4.48
3.36
2.43
1.62
0.78
-0.21
-1.41
-2.69
-3.79
-4.39
-4.26
-3.28
-1.58
0.59
2.87
4.92
6.49
7.49
8.01
8.24
8.45
8.86
9.63
10.76
12.11
13.44
14.50
15.08
15.14
14.76
14.16
13.57
13.20
13.14
13.34
13.56
13.42
12.48
10.39
7.08
2.83
-1.72
-5.87
-9.04
-11.00
-11.84
-11.84
-11.27
-10.37
-9.35
-8.54
-8.28
-8.84
-10.22
-12.11
-13.96
-15.28
-15.83
-15.70
-15.17
-14.60
-14.21
-14.19
-14.63
-15.61
-17.12
-18.98
-20.78
-22.08
-22.48
-21.85
-20.33
-18.27
-16.05
-13.93
-11.97
-10.12
-8.28
-6.36
-4.40
-2.37
-0.27
1.92
4.20
6.53
8.77
10.74
12.22
13.04
13.21
12.91
12.36
11.72
11.09
10.44
9.74
8.98
8.10
7.17
6.15
4.87
3.13
0.96
-1.39
-3.33
-4.37
-4.25
-2.74
0.01
3.42
6.75
9.47
11.32
12.52
13.29
13.69
14.45
15.92
17.81
19.31
19.80
18.98
17.48
15.97
14.84
15.33
18.02
22.27
26.58
29.65
30.71
30.58
30.51
31.78
37.04
48.00
64.14
82.87
101.01
115.64
126.08
132.72
126.43
103.34
67.57
28.90
-4.36
-25.63
-38.46
-45.88
-49.90
-51.96
-52.54
-51.65
-50.14
-49.57
-51.15
-55.62
-62.02
-69.16
-76.08
-80.83
-82.01
-79.68
-75.17
-70.02
-65.59
-61.87
-58.51
-55.22
-51.10
-45.61
-39.12
-32.75
-27.57
-24.35
-22.82
-22.37
-22.40
-22.11
-21.05
-19.36
-17.59
-16.19
-15.31
-14.55
-13.37
-11.45
-8.67
-5.25
-1.67
1.57
4.20
6.23
7.98
9.79
11.87
14.27
16.90
19.63
22.36
25.07
27.78
30.49
33.12
35.49
37.35
38.41
38.53
37.72
36.19
34.23
32.12
30.02
27.95
25.79
23.42
20.77
17.87
14.82
11.75
8.78
6.00
3.49
1.27
-0.63
-2.25
-3.68
-5.04
-6.41
-7.85
-9.31
-10.72
-11.98
-13.08
-14.02
-14.83
-15.49
-16.01
-16.36
-16.57
-16.71
-16.81
-16.80
-16.51
-15.70
-14.24
-12.16
-9.69
-7.17
-4.91
-3.07
-1.64
-0.53
0.38
1.12
1.70
2.12
2.42
2.63
2.82
2.99
3.09
3.04
2.78
2.26
1.49
0.48
-0.68
-1.91
-3.13
-4.27
-5.29
-6.17
-6.91
-7.50
-7.91
-8.13
-8.17
-8.08
-7.95
-7.89
-8.03
-8.42
-9.07
-9.92
-10.83
-11.54
-11.81
-11.42
-10.29
-8.54
-6.47
-4.41
-2.63
-1.23
-0.19
0.63
1.27
1.76
2.05
2.11
1.97
1.76
1.58
1.46
1.38
1.26
1.03
0.66
0.18
-0.36
-0.89
-1.39
-1.84
-2.24
-2.66
-3.11
-3.64
-4.21
-4.76
-5.19
-5.40
-5.39
-5.27
-5.26
-5.57
-6.36
-7.60
-9.05
-10.35
-11.10
-10.99
-9.91
-7.95
-5.37
-2.45
0.51
3.35
5.94
8.25
10.25
11.88
13.08
13.75
13.86
13.41
12.47
11.15
9.58
7.84
6.02
4.13
2.22
0.37
-1.29
-2.63
-3.56
-4.06
-4.23
-4.17
-4.05
-3.99
-4.09
-4.45
-5.11
-6.07
-7.23
-8.43
-9.51
-10.40
-11.12
-11.80
-12.47
-13.02
-13.17
-12.58
-11.08
-8.74
-5.90
-3.00
-0.38
1.80
3.60
5.16
6.55
7.79
8.79
9.48
9.79
9.73
9.33
8.68
7.85
6.95
6.06
5.27
4.61
4.07
3.61
3.14
2.61
1.94
1.09
0.05
-1.14
-2.39
-3.60
-4.66
-5.54
-6.25
-6.87
-7.51
-8.25
-9.11
-10.00
-10.79
-11.28
-11.29
-10.68
-9.44
-7.64
-5.43
-3.03
-0.64
1.56
3.44
4.94
6.05
6.78
7.14
7.20
7.02
6.67
6.24
5.77
5.29
4.77
4.21
3.59
2.94
2.31
1.79
1.45
1.34
1.39
1.49
1.50
1.31
0.93
0.42
-0.10
-0.57
-1.02
-1.51
-2.07
-2.71
-3.38
-4.08
-4.82
-5.66
-6.57
-7.37
-7.84
-7.70
-6.84
-5.31
-3.32
-1.07
1.24
3.51
5.67
7.62
9.25
10.48
11.34
11.93
12.40
12.81
13.14
13.29
13.17
12.71
11.99
11.09
10.15
9.26
8.50
7.88
7.42
7.07
6.77
6.43
5.93
5.16
4.05
2.59
0.86
-0.97
-2.72
-4.23
-5.44
-6.42
-7.33
-8.31
-9.44
-10.66
-11.80
-12.67
-13.14
-13.09
-12.49
-11.37
-9.76
-7.76
-5.49
-3.11
-0.80
1.30
3.07
4.45
5.42
6.01
6.26
6.26
6.07
5.77
5.42
5.06
4.73
4.42
4.13
3.86
3.61
3.43
3.36
3.46
3.69
3.99
4.25
4.38
4.34
4.10
3.70
3.16
2.48
1.67
0.76
-0.18
-1.06
-1.77
-2.22
-2.36
-2.13
-1.45
-0.25
1.55
3.93
6.77
9.82
12.79
15.44
17.62
19.33
20.60
21.49
21.95
21.88
21.20
19.90
18.09
15.99
13.82
11.75
9.79
7.91
5.99
3.98
1.89
-0.16
-2.08
-3.82
-5.39
-6.92
-8.48
-10.11
-11.74
-13.29
-14.71
-16.03
-17.33
-18.70
-20.17
-21.65
-23.00
-24.12
-25.00
-25.70
-26.35
-27.04
-27.75
-28.38
-28.77
-28.76
-28.23
-27.12
-25.44
-23.22
-20.51
-17.44
-14.15
-10.83
-7.66
-4.81
-2.35
-0.30
1.42
2.86
4.09
5.13
5.96
6.57
6.98
7.22
7.31
7.28
7.11
6.78
6.29
5.64
4.89
4.07
3.21
2.36
1.55
0.80
0.08
-0.66
-1.53
-2.60
-3.91
-5.38
-6.86
-8.11
-8.87
-9.02
-8.54
-7.54
-6.22
-4.77
-3.31
-1.87
-0.46
0.80
1.68
1.88
1.17
-0.48
-2.77
-5.21
-7.28
-8.55
-8.86
-8.24
-6.83
-4.79
-2.28
0.49
3.26
5.70
7.50
8.48
8.71
8.45
8.07
7.94
8.28
9.17
10.56
12.33
14.42
16.81
19.47
22.33
25.22
27.90
30.12
31.71
32.65
33.05
33.11
33.00
32.89
32.88
33.08
33.59
34.52
35.95
37.95
40.45
43.34
46.39
49.39
52.11
54.34
55.85
56.36
55.58
53.34
49.66
44.84
39.41
33.93
28.80
24.07
19.53
14.77
9.54
3.82
-2.14
-7.97
-13.38
-18.30
-22.81
-27.03
-30.91
-34.25
-36.78
-38.30
-38.84
-38.65
-38.08
-37.44
-36.89
-36.47
-36.17
-36.01
-36.06
-36.34
-36.80
-37.24
-37.48
-37.38
-36.94
-36.29
-35.57
-34.87
-34.19
-33.49
-32.71
-31.78
-30.63
-29.22
-27.48
-25.40
-23.00
-20.39
-17.77
-15.37
-13.32
-11.63
-10.19
-8.87
-7.57
-6.31
-5.24
-4.55
-4.39
-4.72
-5.30
-5.84
-6.08
-6.04
-5.90
-6.00
-6.59
-7.82
-9.48
-11.07
-12.16
-12.59
-12.58
-12.61
-13.19
-14.64
-16.99
-19.69
-21.71
-22.16
-20.74
-17.93
-14.79
-12.49
-11.97
-13.69
-16.99
-20.39
-22.50
-22.68
-21.45
-20.04
-19.74
-21.34
-24.94
-29.32
-32.26
-31.64
-25.79
-14.24
2.57
23.27
46.65
67.52
78.88
76.93
63.71
46.00
30.67
21.77
19.70
21.90
24.34
24.17
20.98
16.24
13.35
15.41
24.47
41.22
64.23
89.35
110.86
123.29
118.83
96.83
62.58
24.18
-10.55
-36.57
-52.36
-60.21
-61.62
-58.62
-53.44
-49.32
-49.73
-56.48
-68.80
-83.57
-96.45
-103.32
-102.34
-93.48
-75.94
-52.33
-26.75
-3.18
15.20
26.62
31.19
30.09
25.54
19.44
12.17
2.91
-8.70
-22.66
-36.14
-44.23
-43.25
-33.15
-18.16
-2.20
11.83
23.73
34.79
44.42
51.72
55.83
56.70
55.38
53.54
52.70
55.25
62.67
75.13
91.32
109.30
126.74
141.02
149.11
139.64
107.41
58.09
5.91
-36.94
-65.69
-82.41
-92.08
-99.20
-105.80
-109.70
-107.16
-94.82
-73.56
-44.47
-10.40
25.03
58.05
85.13
104.46
110.22
102.31
83.46
58.29
31.68
7.74
-11.16
-24.54
-32.81
-37.03
-37.86
-36.56
-34.22
-31.86
-30.32
-30.22
-31.77
-34.37
-36.97
-38.01
-36.94
-34.00
-30.23
-26.84
-25.06
-24.79
-25.36
-25.76
-24.85
-22.38
-18.80
-14.97
-11.52
-8.56
-5.62
-2.23
1.82
6.49
11.28
15.44
18.19
18.96
17.67
14.79
11.09
7.55
5.24
5.12
7.46
11.52
15.93
19.35
21.11
21.15
19.44
16.11
11.69
6.16
-1.37
-11.94
-25.53
-40.64
-54.93
-66.17
-73.01
-74.33
-70.24
-62.47
-53.44
-44.88
-37.42
-31.00
-25.36
-19.77
-11.38
3.18
25.88
56.24
91.59
127.26
157.27
175.99
172.01
141.70
94.38
46.32
8.99
-15.02
-28.42
-34.76
-36.02
-32.54
-23.28
-8.64
8.10
22.09
29.84
30.81
26.80
20.70
15.24
12.35
12.39
13.68
13.65
10.81
5.46
-1.17
-7.47
-12.03
-13.62
-11.73
-7.16
-1.68
2.79
4.57
1.94
-5.92
-16.82
-28.02
-36.93
-42.27
-44.37
-44.70
-45.01
-47.41
-52.40
-58.57
-63.99
-67.36
-68.44
-67.72
-65.79
-63.36
-62.29
-63.70
-67.32
-72.15
-76.75
-79.11
-76.63
-66.42
-40.55
-0.10
44.77
82.86
109.23
124.61
131.59
131.78
125.54
112.34
91.23
63.87
34.70
8.76
-10.65
-22.63
-28.92
-30.78
-29.48
-27.11
-25.10
-23.80
-22.90
-22.00
-19.61
-16.08
-12.18
-9.46
-9.83
-13.54
-18.55
-21.62
-20.26
-13.92
-4.32
5.99
14.38
18.97
19.25
15.68
9.27
0.91
-8.00
-15.64
-19.73
-18.52
-11.42
0.76
16.13
32.20
46.37
57.47
65.34
70.37
72.66
71.99
67.88
60.02
48.80
35.31
20.98
6.85
-6.62
-19.57
-31.85
-42.67
-50.81
-54.98
-54.54
-49.84
-42.19
-32.77
-24.15
-17.91
-14.58
-13.75
-14.16
-14.08
-11.86
-6.58
1.34
10.18
17.80
22.37
23.15
20.60
15.88
10.38
5.05
0.39
-3.21
-4.96
-3.97
0.19
6.82
13.57
17.27
15.26
6.68
-6.73
-21.49
-33.78
-41.18
-43.37
-41.54
-36.16
-26.25
-10.51
10.72
33.77
52.87
62.62
60.88
49.49
34.14
20.98
12.99
8.79
3.87
-5.41
-19.73
-36.84
-54.14
-69.22
-81.19
-90.82
-95.68
-94.07
-83.59
-62.38
-26.98
16.98
58.79
89.64
106.75
111.80
107.50
96.38
80.08
60.13
38.00
16.70
0.03
-9.48
-11.91
-9.38
-4.75
-1.00
0.23
-1.61
-5.27
-8.96
-11.70
-14.47
-19.36
-25.81
-32.04
-34.56
-30.87
-21.07
-9.63
0.47
6.63
7.77
4.77
-1.11
-8.06
-15.06
-22.02
-29.42
-37.17
-44.65
-50.55
-53.71
-54.32
-53.20
-51.52
-50.12
-48.99
-46.46
-39.90
-26.37
-2.19
29.98
61.86
85.14
96.51
97.70
93.48
88.54
85.58
84.26
81.41
73.75
59.86
40.95
19.97
0.67
-14.03
-23.11
-27.89
-31.21
-35.16
-40.21
-43.93
-43.75
-38.27
-28.09
-15.58
-4.01
3.72
6.55
5.51
2.93
0.63
-0.74
-1.56
-2.43
-3.53
-4.64
-5.32
-5.52
-5.85
-7.94
-13.45
-23.50
-36.71
-49.31
-56.89
-57.05
-50.32
-39.02
-25.88
-12.89
-1.13
9.03
17.48
24.12
29.39
33.43
36.41
38.38
39.37
39.25
37.97
35.45
31.65
26.73
21.14
15.69
10.50
6.29
3.43
1.66
-0.02
-2.96
-8.33
-15.64
-22.52
-26.22
-25.31
-20.41
-13.43
-6.55
-1.27
2.09
4.06
5.10
5.39
4.95
3.79
2.21
0.82
0.46
1.76
5.11
10.39
16.92
23.67
29.45
33.28
34.46
32.85
28.80
23.02
16.28
9.14
1.94
-5.17
-12.09
-18.68
-24.60
-29.23
-32.00
-32.82
-32.29
-31.46
-31.41
-32.76
-35.48
-38.77
-41.10
-40.73
-36.44
-27.95
-16.00
-2.36
10.59
20.30
24.76
23.45
17.43
8.85
0.49
-4.75
-4.25
4.47
22.14
45.81
70.16
89.73
100.21
98.97
85.71
62.76
34.46
5.87
-18.95
-37.43
-48.82
-53.86
-53.99
-50.55
-44.66
-38.31
-32.27
-27.59
-24.61
-22.63
-20.20
-15.82
-8.75
0.36
9.22
14.68
13.35
3.98
-11.92
-30.65
-47.58
-58.69
-61.71
-56.68
-45.55
-31.59
-18.01
-7.11
0.16
4.35
6.97
9.75
13.68
18.60
23.36
26.40
26.69
23.99
18.87
12.47
6.08
0.79
-2.61
-3.93
-3.33
-1.31
1.37
3.82
5.19
4.77
2.02
-3.32
-11.12
-20.46
-29.60
-36.22
-38.15
-34.04
-23.86
-8.87
9.07
27.18
42.68
53.50
58.70
58.45
53.81
46.37
37.84
29.69
22.93
18.16
15.59
15.08
16.12
17.91
19.42
19.63
17.78
13.66
7.74
0.97
-5.60
-11.22
-15.51
-18.45
-20.14
-20.74
-20.42
-19.37
-17.82
-15.98
-13.96
-11.75
-9.20
-6.17
-2.64
1.19
4.96
8.26
10.73
12.17
12.55
11.99
10.71
8.99
7.19
5.70
4.89
4.95
5.92
7.60
9.72
12.04
14.43
16.85
19.24
21.33
22.66
22.67
20.92
17.31
12.04
5.68
-1.05
-7.28
-12.19
-15.21
-16.16
-15.29
-13.36
-11.40
-10.51
-11.48
-14.50
-19.18
-24.72
-30.07
-34.13
-35.89
-34.72
-30.61
-24.32
-17.12
-10.46
-5.51
-2.68
-1.42
-0.59
0.76
2.71
4.15
3.53
-1.08
-11.19
-27.25
-47.96
-70.27
-89.98
-102.80
-105.69
-97.05
-78.30
-53.80
-29.59
-11.10
-1.34
-0.49
-6.46
-16.04
-24.65
-28.72
-26.47
-17.84
-3.38
16.12
39.43
64.45
88.36
110.05
128.68
143.53
153.96
160.59
165.37
170.83
178.58
176.99
157.95
121.19
73.58
22.19
-27.26
-68.80
-96.86
-108.18
-101.07
-75.15
-33.87
17.11
71.66
120.61
152.46
160.19
144.63
112.44
72.79
32.14
-4.69
-40.61
-77.00
-112.91
-145.47
-171.78
-191.05
-197.90
-191.54
-173.44
-146.82
-115.02
-82.05
-52.53
-31.47
-22.56
-25.57
-36.97
-50.62
-61.19
-66.27
-67.39
-68.16
-71.49
-77.59
-83.61
-86.43
-84.09
-77.02
-66.87
-55.36
-42.78
-27.95
-9.70
12.28
36.30
59.58
79.22
93.47
102.05
106.07
107.15
106.64
105.10
102.13
97.32
91.03
84.70
80.43
79.87
83.18
88.57
92.93
93.19
87.90
78.05
66.60
57.02
51.67
50.74
52.31
53.38
51.21
44.15
31.83
14.56
-7.14
-32.66
-60.93
-89.79
-115.79
-134.80
-143.26
-139.58
-124.78
-102.23
-76.45
-51.62
-30.51
-14.06
-1.84
7.07
13.48
17.70
19.79
19.83
18.24
15.97
14.27
14.23
16.30
20.02
24.11
27.07
27.67
25.52
21.04
15.40
9.90
5.52
2.64
1.11
0.57
0.70
1.27
1.63
1.23
0.00
-1.46
-2.40
-2.40
-1.45
0.39
3.19
6.90
11.26
15.68
19.27
21.61
22.07
20.13
16.04
10.81
5.74
1.88
-0.27
-0.81
-0.20
1.02
1.72
1.09
-0.45
-2.16
-3.38
-3.85
-3.70
-3.38
-3.47
-5.65
-11.30
-20.61
-32.64
-45.85
-58.58
-69.49
-77.54
-76.85
-65.26
-46.58
-27.72
-13.50
-4.79
0.06
3.12
5.53
8.91
13.14
17.59
22.09
26.87
32.09
37.52
41.75
43.66
43.33
40.89
36.89
32.63
29.65
28.87
30.18
31.40
30.48
26.63
19.56
9.34
-3.19
-16.74
-30.22
-42.96
-56.21
-70.57
-85.01
-97.91
-108.33
-115.52
-118.94
-118.03
-103.81
-74.22
-35.56
2.66
34.28
57.05
71.83
80.69
85.78
88.83
88.72
84.33
75.81
65.58
53.53
39.88
24.93
9.05
-6.92
-23.66
-41.30
-58.93
-72.20
-79.61
-80.88
-76.34
-68.87
-57.69
-43.76
-28.64
-13.79
-0.14
11.21
20.23
26.78
30.81
32.91
32.95
31.13
28.22
25.35
23.05
21.81
21.70
22.50
24.05
25.60
26.59
26.97
27.09
27.16
27.42
27.92
28.42
28.75
28.38
26.96
24.51
21.35
17.83
14.34
11.11
8.30
6.12
4.63
3.86
3.71
3.88
3.80
2.88
0.68
-2.83
-7.20
-11.71
-15.60
-18.27
-19.46
-19.26
-17.95
-15.89
-13.37
-10.60
-7.75
-5.03
-2.67
-0.89
0.22
0.77
1.02
1.28
1.78
2.53
3.34
3.93
4.05
3.61
2.67
1.45
0.20
-0.90
-1.77
-2.43
-2.90
-3.25
-3.51
-3.75
-4.01
-4.34
-4.72
-5.09
-5.37
-5.49
-5.52
-5.70
-6.34
-7.76
-10.16
-13.45
-17.34
-21.29
-24.75
-27.23
-28.46
-28.37
-27.07
-24.72
-21.47
-17.37
-12.50
-6.99
-1.15
4.58
9.73
13.97
17.16
19.39
20.89
21.92
22.55
22.84
22.87
22.67
22.25
21.53
20.48
19.12
17.60
16.14
15.11
15.05
16.42
19.47
24.09
29.85
36.05
41.89
46.50
49.47
50.99
51.56
51.48
50.69
48.73
45.03
39.21
30.70
19.90
8.32
-2.13
-9.96
-14.45
-15.59
-14.00
-10.79
-8.61
-9.01
-11.64
-15.01
-17.72
-18.87
-17.98
-15.02
-10.46
-7.39
-8.09
-12.96
-21.65
-34.31
-51.29
-72.14
-95.43
-119.28
-144.71
-171.47
-196.80
-217.00
-229.52
-233.25
-227.94
-213.99
-175.54
-112.00
-39.23
24.01
69.60
98.78
115.84
124.75
128.35
128.57
124.08
115.08
104.47
95.91
91.51
91.44
94.52
98.57
100.78
96.36
83.02
62.69
40.08
19.92
5.33
-2.76
-5.50
-5.30
-5.83
-8.81
-13.27
-17.07
-18.88
-18.86
-17.99
-17.28
-17.14
-17.83
-18.93
-19.11
-17.49
-14.21
-10.22
-6.61
-4.12
-2.90
-2.73
-2.77
-2.10
-0.31
2.29
4.78
6.24
6.23
5.09
3.72
3.31
4.33
6.24
7.82
7.87
5.83
2.12
-2.06
-5.09
-5.27
-1.85
4.81
13.58
22.99
31.60
38.09
41.24
37.92
26.95
9.07
-12.82
-34.12
-49.92
-56.69
-53.70
-43.21
-29.25
-15.40
-3.77
5.35
12.99
20.13
26.97
32.98
37.39
39.92
41.05
41.97
42.43
41.76
39.00
33.40
24.94
14.50
3.77
-5.12
-10.65
-12.48
-11.29
-8.67
-6.39
-5.81
-7.48
-10.84
-14.72
-17.98
-20.22
-21.59
-22.86
-24.92
-27.61
-30.75
-33.69
-35.83
-36.97
-37.34
-37.20
-36.58
-35.27
-33.06
-30.19
-26.89
-23.74
-21.43
-20.30
-19.94
-19.44
-17.92
-14.96
-10.91
-5.85
-0.22
5.23
9.83
13.33
16.08
18.72
22.00
26.36
32.74
41.33
51.30
61.28
70.11
77.35
83.20
88.43
88.96
83.34
73.28
61.75
50.11
37.83
24.12
9.11
-5.99
-19.51
-29.27
-34.41
-35.75
-35.21
-34.60
-35.01
-36.73
-39.61
-43.79
-48.34
-52.56
-56.07
-58.46
-59.04
-57.09
-52.37
-45.43
-37.51
-29.61
-22.63
-17.13
-13.23
-10.56
-8.58
-6.78
-4.90
-3.07
-1.24
0.51
2.00
3.03
3.53
3.61
3.46
3.23
2.97
2.66
2.20
1.48
0.56
-0.27
-0.53
0.18
2.04
4.89
8.30
11.71
14.64
16.85
18.36
19.34
19.97
20.31
20.26
19.65
18.32
16.24
13.51
10.28
6.67
2.74
-1.55
-6.23
-11.22
-16.30
-21.08
-25.09
-27.89
-29.20
-28.91
-27.17
-24.27
-20.60
-16.57
-12.51
-8.64
-5.03
-1.72
1.27
3.84
5.88
7.28
8.07
8.39
8.47
8.58
8.87
9.39
10.09
10.89
11.73
12.65
13.66
14.76
15.88
16.87
17.57
17.81
17.47
16.47
14.83
12.62
9.99
7.15
4.35
1.76
-0.52
-2.56
-4.53
-6.62
-8.99
-11.64
-14.42
-17.13
-19.50
-21.36
-22.61
-23.20
-23.07
-22.18
-20.55
-18.24
-15.44
-12.41
-9.39
-6.54
-3.87
-1.33
1.15
3.61
6.00
8.10
9.75
10.87
11.61
12.25
13.05
14.18
15.70
17.45
19.14
20.46
21.22
21.48
21.49
21.56
21.88
22.56
23.44
24.05
23.85
22.52
20.16
17.14
13.99
11.09
9.04
8.06
7.71
7.10
5.33
1.90
-3.21
-9.56
-16.25
-21.20
-22.58
-19.85
-13.99
-6.76
0.07
5.25
8.22
9.18
10.27
13.22
18.05
23.21
27.10
29.30
30.73
33.05
37.95
48.38
65.73
88.74
113.99
137.74
157.41
171.55
179.40
168.56
133.49
80.13
23.17
-24.50
-57.91
-78.34
-89.70
-95.78
-99.02
-98.44
-92.75
-82.43
-70.17
-59.34
-52.23
-49.39
-49.69
-50.94
-49.39
-42.76
-31.78
-19.47
-9.66
-4.65
-4.66
-8.32
-13.50
-17.50
-18.75
-17.55
-15.48
-14.11
-13.97
-14.66
-15.37
-15.53
-14.58
-12.53
-10.02
-7.84
-6.50
-5.93
-5.68
-5.27
-4.50
-3.37
-2.17
-1.31
-1.15
-1.68
-2.56
-3.25
-3.40
-2.92
-2.10
-1.35
-1.03
-1.25
-1.90
-2.75
-3.60
-4.39
-5.15
-5.97
-6.88
-7.86
-8.86
-9.84
-10.81
-11.80
-12.82
-13.84
-14.81
-15.69
-16.42
-16.91
-17.04
-16.66
-15.63
-13.83
-11.36
-8.42
-5.34
-2.46
-0.00
1.95
3.42
4.52
5.33
5.90
6.21
6.24
5.97
5.43
4.68
3.83
2.98
2.17
1.37
0.51
-0.44
-1.44
-2.38
-3.10
-3.54
-3.71
-3.79
-3.98
-4.47
-5.30
-6.38
-7.58
-8.70
-9.65
-10.38
-10.94
-11.41
-11.85
-12.27
-12.56
-12.56
-12.08
-11.02
-9.36
-7.18
-4.64
-1.86
1.11
4.29
7.65
11.14
14.53
17.60
20.15
22.08
23.44
24.37
25.00
25.30
25.30
24.90
24.21
23.43
22.79
22.39
22.23
22.06
21.62
20.95
20.22
19.85
20.15
21.15
22.54
23.88
24.51
23.94
21.99
17.97
11.96
4.87
-2.05
-7.82
-11.87
-14.24
-16.22
-18.05
-19.89
-21.76
-23.65
-25.70
-28.27
-30.42
-31.96
-32.89
-33.12
-32.77
-31.89
-30.54
-28.79
-26.72
-24.30
-21.72
-19.14
-16.60
-14.30
-12.33
-10.75
-9.55
-8.69
-8.07
-7.72
-7.57
-7.48
-7.31
-6.97
-6.43
-5.73
-4.94
-4.11
-3.32
-2.63
-2.01
-1.55
-1.31
-1.34
-1.62
-2.04
-2.42
-2.67
-2.81
-2.91
-3.15
-3.66
-4.48
-5.53
-6.62
-7.57
-8.21
-8.49
-8.36
-7.83
-6.87
-5.50
-3.75
-1.73
0.38
2.38
4.10
5.49
6.62
7.59
8.48
9.28
9.88
10.11
9.87
9.18
8.20
7.17
6.32
5.77
5.49
5.34
5.12
4.72
4.08
3.26
2.35
1.41
0.45
-0.54
-1.56
-2.55
-3.43
-4.14
-4.74
-5.42
-6.36
-7.71
-9.43
-11.33
-13.13
-14.54
-15.37
-15.54
-15.12
-14.19
-12.90
-11.39
-9.84
-8.46
-7.39
-6.78
-6.67
-7.02
-7.74
-8.69
-9.77
-10.84
-11.77
-12.44
-12.74
-12.65
-12.26
-11.75
-11.31
-11.00
-10.70
-10.16
-9.05
-7.20
-4.56
-1.25
2.57
6.77
11.24
15.93
20.71
25.41
29.80
33.76
37.18
40.02
42.23
43.68
44.26
43.91
42.70
40.80
38.43
35.73
32.75
29.46
25.85
22.04
18.27
14.88
12.11
10.05
8.63
7.66
6.96
6.42
6.02
5.80
5.73
5.76
5.79
5.70
5.45
5.09
4.74
4.53
4.52
4.69
4.91
5.01
4.91
4.59
4.13
3.65
3.22
2.80
2.30
1.59
0.60
-0.65
-2.08
-3.55
-4.92
-6.04
-6.75
-6.91
-6.39
-5.15
-3.29
-1.05
1.27
3.39
5.12
6.43
7.42
8.24
8.95
9.58
10.05
10.33
10.44
10.41
10.35
10.30
10.22
10.03
9.62
8.90
7.90
6.71
5.51
4.46
3.67
3.13
2.71
2.25
1.57
0.61
-0.60
-1.90
-3.13
-4.20
-5.14
-6.02
-6.98
-8.07
-9.19
-10.20
-10.86
-11.03
-10.65
-9.82
-8.63
-7.20
-5.57
-3.79
-1.92
-0.10
1.51
2.76
3.62
4.13
4.42
4.55
4.53
4.31
3.84
3.16
2.35
1.59
0.95
0.43
-0.06
-0.64
-1.33
-2.08
-2.76
-3.30
-3.71
-4.10
-4.61
-5.32
-6.19
-7.11
-7.94
-8.63
-9.20
-9.76
-10.46
-11.41
-12.64
-14.05
-15.41
-16.46
-16.90
-16.58
-15.47
-13.72
-11.56
-9.27
-7.05
-5.05
-3.33
-1.92
-0.80
-0.01
0.41
0.43
0.08
-0.48
-1.03
-1.34
-1.30
-0.93
-0.43
-0.03
0.09
-0.08
-0.43
-0.79
-1.00
-0.98
-0.71
-0.26
0.32
0.94
1.52
1.96
2.23
2.31
2.22
1.99
1.59
1.01
0.22
-0.81
-2.02
-3.34
-4.73
-6.06
-7.21
-7.97
-8.15
-7.61
-6.33
-4.44
-2.17
0.20
2.46
4.46
6.24
7.87
9.50
11.23
13.13
15.19
17.29
19.30
21.04
22.30
22.86
22.47
20.89
17.92
13.56
8.10
2.09
-3.73
-8.65
-12.16
-14.07
-14.53
-13.86
-12.43
-10.60
-8.71
-7.08
-6.00
-5.65
-6.02
-6.90
-7.99
-9.01
-9.83
-10.48
-11.09
-11.73
-12.40
-12.99
-13.36
-13.39
-13.00
-12.14
-10.81
-9.04
-7.00
-4.91
-3.03
-1.62
-0.80
-0.58
-0.84
-1.42
-2.11
-2.71
-3.06
-3.03
-2.59
-1.81
-0.84
0.11
0.95
1.65
2.29
2.96
3.72
4.53
5.30
5.92
6.31
6.51
6.54
6.45
6.24
5.95
5.58
5.19
4.86
4.56
4.22
3.73
3.01
2.09
1.14
0.36
-0.05
0.00
0.47
1.21
2.04
2.78
3.34
3.69
3.93
4.15
4.47
4.89
5.31
5.57
5.47
4.94
4.06
3.03
2.14
1.61
1.47
1.64
1.94
2.24
2.51
2.81
3.18
3.62
4.02
4.26
4.24
3.95
3.47
2.91
2.33
1.76
1.13
0.38
-0.56
-1.69
-2.95
-4.22
-5.43
-6.51
-7.45
-8.26
-8.92
-9.37
-9.45
-9.05
-8.10
-6.63
-4.80
-2.79
-0.77
1.15
2.90
4.40
5.59
6.41
6.83
6.85
6.54
5.99
5.29
4.51
3.76
3.12
2.69
2.56
2.79
3.41
4.34
5.51
6.74
7.89
8.77
9.26
9.30
8.94
8.32
7.63
7.01
6.51
6.08
5.61
5.00
4.19
3.16
1.93
0.53
-0.98
-2.50
-3.88
-4.99
-5.77
-6.17
-6.20
-5.83
-5.02
-3.72
-1.97
0.05
2.06
3.77
5.02
5.76
6.10
6.08
5.73
5.00
3.87
2.42
0.82
-0.70
-1.97
-2.94
-3.72
-4.40
-5.05
-5.66
-6.15
-6.41
-6.41
-6.16
-5.72
-5.20
-4.66
-4.17
-3.80
-3.57
-3.50
-3.57
-3.69
-3.82
-3.95
-4.11
-4.43
-5.02
-5.91
-7.06
-8.33
-9.57
-10.60
-11.30
-11.57
-11.33
-10.56
-9.30
-7.65
-5.80
-3.96
-2.28
-0.89
0.21
1.07
1.77
2.38
2.91
3.32
3.51
3.41
3.00
2.40
1.76
1.28
1.06
1.09
1.30
1.57
1.80
1.93
1.97
1.90
1.71
1.39
0.92
0.30
-0.46
-1.31
-2.19
-3.02
-3.78
-4.45
-5.06
-5.66
-6.31
-7.03
-7.84
-8.77
-9.85
-11.05
-12.28
-13.37
-14.04
-14.05
-13.25
-11.67
-9.52
-7.14
-4.84
-2.86
-1.22
0.11
1.26
2.30
3.21
3.92
4.39
4.60
4.64
4.57
4.44
4.25
3.99
3.68
3.39
3.20
3.15
3.25
3.48
3.75
4.00
4.15
4.12
3.86
3.37
2.66
1.78
0.78
-0.33
-1.53
-2.78
-4.01
-5.12
-6.02
-6.72
-7.30
-7.89
-8.59
-9.48
-10.56
-11.75
-12.96
-13.99
-14.64
-14.67
-13.90
-12.32
-10.07
-7.47
-4.85
-2.48
-0.45
1.26
2.73
4.05
5.19
6.09
6.63
6.81
6.68
6.44
6.25
6.24
6.36
6.46
6.36
5.96
5.33
4.63
4.05
3.69
3.49
3.35
3.12
2.76
2.28
1.71
1.06
0.28
-0.65
-1.67
-2.64
-3.43
-3.92
-4.17
-4.32
-4.58
-5.16
-6.13
-7.42
-8.82
-10.01
-10.62
-10.40
-9.20
-7.12
-4.41
-1.39
1.61
4.35
6.67
8.48
9.75
10.48
10.74
10.61
10.23
9.72
9.17
8.64
8.12
7.66
7.26
6.97
6.82
6.83
6.97
7.18
7.40
7.53
7.52
7.32
6.90
6.24
5.37
4.32
3.17
2.01
0.92
-0.07
-0.99
-1.90
-2.85
-3.86
-4.96
-6.16
-7.50
-9.03
-10.76
-12.62
-14.43
-15.93
-16.84
-16.98
-16.24
-14.69
-12.49
-9.89
-7.17
-4.57
-2.22
-0.12
1.84
3.78
5.76
7.72
9.54
11.06
12.20
12.92
13.31
13.46
13.50
13.58
13.88
14.57
15.75
17.42
19.41
21.47
23.30
24.67
25.48
25.74
25.54
24.98
24.12
23.01
21.67
20.18
18.69
17.38
16.44
15.99
16.04
16.48
17.12
17.66
17.81
17.33
16.12
14.29
12.17
10.27
9.05
8.83
9.61
11.14
13.00
14.80
16.29
17.43
18.24
18.78
19.01
18.86
18.25
17.22
15.93
14.67
13.72
13.26
13.35
13.84
14.51
15.11
15.45
15.46
15.16
14.63
13.98
13.25
12.41
11.33
9.87
7.91
5.48
2.75
-0.02
-2.57
-4.77
-6.69
-8.55
-10.66
-13.22
-16.25
-19.58
-22.86
-25.78
-28.05
-29.54
-30.20
-30.05
-29.14
-27.55
-25.39
-22.86
-20.16
-17.40
-14.66
-11.95
-9.31
-6.89
-4.88
-3.47
-2.73
-2.56
-2.72
-2.91
-2.92
-2.65
-2.19
-1.63
-1.10
-0.69
-0.41
-0.23
-0.08
0.14
0.49
0.98
1.54
2.00
2.17
1.81
0.79
-0.99
-3.50
-6.57
-9.90
-13.12
-15.83
-17.71
-18.56
-18.36
-17.26
-15.49
-13.34
-11.02
-8.70
-6.41
-4.08
-1.56
1.22
4.24
7.32
10.14
12.29
13.39
13.20
11.65
8.86
5.18
1.08
-2.91
-6.29
-8.72
-10.04
-10.34
-9.88
-9.02
-8.13
-7.52
-7.38
-7.78
-8.70
-10.03
-11.67
-13.60
-15.79
-18.10
-20.41
-22.68
-24.97
-27.33
-29.76
-32.11
-34.25
-35.87
-36.60
-36.10
-34.32
-31.50
-28.13
-24.81
-22.07
-20.55
-20.43
-21.40
-22.91
-24.53
-26.09
-27.61
-29.18
-31.00
-33.92
-38.35
-43.91
-49.89
-55.92
-62.14
-68.88
-76.33
-84.32
-93.54
-103.22
-110.85
-113.65
-110.62
-102.99
-93.38
-84.58
-78.49
-77.52
-80.91
-84.42
-82.95
-73.98
-58.59
-40.54
-24.71
-15.66
-19.02
-35.66
-60.80
-86.83
-107.64
-120.10
-123.33
-117.50
-83.59
-18.33
62.14
134.89
186.95
217.06
230.07
232.49
231.21
227.70
217.28
196.38
165.76
129.88
93.84
61.51
36.11
19.74
11.98
7.95
3.90
-0.46
-2.89
-1.58
3.93
13.13
24.87
39.20
52.54
61.20
63.73
62.36
59.49
55.96
51.76
45.64
37.30
26.23
13.18
-0.09
-11.71
-20.87
-27.56
-32.00
-34.33
-34.67
-33.60
-31.42
-28.08
-23.52
-18.11
-12.50
-7.23
-2.64
1.18
4.12
6.32
8.12
9.85
11.64
13.47
15.19
16.55
17.25
16.97
15.57
13.25
10.43
7.45
4.50
1.60
-1.38
-4.58
-8.12
-11.96
-15.95
-19.86
-23.47
-26.54
-28.79
-29.84
-29.23
-26.53
-21.52
-14.38
-5.83
3.00
10.77
16.35
19.15
19.25
17.27
14.07
10.39
6.71
3.26
0.21
-2.21
-3.69
-4.00
-3.16
-1.49
0.52
2.41
3.96
5.30
6.79
8.74
11.22
14.03
16.69
18.77
19.99
20.41
20.33
20.11
20.03
20.11
20.20
20.12
19.76
19.17
18.50
17.88
17.37
16.93
16.48
16.02
15.60
15.23
14.83
14.25
13.28
11.84
9.96
7.77
5.41
2.95
0.39
-2.27
-4.95
-7.47
-9.60
-11.11
-11.91
-12.00
-11.47
-10.40
-8.82
-6.75
-4.29
-1.60
0.98
3.07
4.34
4.63
4.09
3.09
2.10
1.50
1.50
2.04
2.91
3.85
4.62
5.12
5.36
5.41
5.34
5.20
4.96
4.58
4.06
3.48
2.94
2.51
2.21
1.92
1.52
0.92
0.20
-0.55
-1.19
-1.75
-2.37
-3.25
-4.50
-6.04
-7.65
-9.11
-10.31
-11.33
-12.34
-13.46
-14.60
-15.49
-15.76
-15.11
-13.47
-11.01
-8.06
-4.99
-2.09
0.50
2.78
4.81
6.75
8.74
10.95
13.44
16.15
18.88
21.30
23.02
23.71
23.18
21.46
18.82
15.68
12.47
9.58
7.26
5.55
4.39
3.60
3.01
2.44
1.80
1.04
0.21
-0.61
-1.36
-2.06
-2.81
-3.74
-4.95
-6.41
-8.01
-9.57
-11.01
-12.35
-13.76
-15.43
-17.45
-19.80
-22.31
-24.76
-26.97
-28.80
-30.11
-30.76
-30.57
-29.35
-27.05
-23.83
-20.08
-16.28
-12.84
-9.98
-7.70
-5.87
-4.36
-3.10
-2.09
-1.27
-0.55
0.19
0.95
1.62
1.95
1.80
1.21
0.47
0.02
0.17
1.07
2.61
4.54
6.58
8.47
9.97
10.85
10.88
9.94
8.09
5.59
2.81
0.17
-2.00
-3.51
-4.30
-4.50
-4.37
-4.32
-4.72
-5.81
-7.50
-9.37
-10.82
-11.20
-10.06
-7.28
-3.07
2.08
7.52
12.54
16.53
19.14
20.32
20.31
19.50
18.32
16.99
15.63
14.24
12.88
11.67
10.77
10.26
10.11
10.15
10.22
10.23
10.18
10.12
10.04
9.90
9.58
9.01
8.19
7.19
6.10
4.95
3.73
2.34
0.75
-1.02
-2.87
-4.66
-6.27
-7.67
-8.88
-9.99
-11.11
-12.34
-13.75
-15.40
-17.30
-19.32
-21.23
-22.67
-23.22
-22.57
-20.60
-17.46
-13.49
-9.15
-4.86
-0.89
2.60
5.59
8.10
10.15
11.76
12.92
13.66
13.98
13.98
13.77
13.47
13.15
12.86
12.57
12.25
11.86
11.43
11.00
10.62
10.32
10.06
9.75
9.30
8.63
7.73
6.65
5.49
4.37
3.32
2.34
1.32
0.16
-1.21
-2.75
-4.30
-5.70
-6.84
-7.79
-8.76
-10.03
-11.82
-14.19
-17.00
-19.89
-22.39
-24.04
-24.49
-23.60
-21.46
-18.32
-14.59
-10.68
-6.95
-3.61
-0.77
1.56
3.43
4.90
6.05
6.93
7.59
8.05
8.32
8.45
8.48
8.48
8.49
8.54
8.62
8.71
8.82
8.91
8.97
8.94
8.73
8.25
7.47
6.40
5.19
3.99
2.97
2.21
1.70
1.34
1.04
0.79
0.71
0.99
1.77
2.95
4.18
4.92
4.70
3.31
0.95
-1.85
-4.38
-6.01
-6.37
-5.36
-3.09
0.19
4.23
8.75
13.44
18.00
22.17
25.70
28.42
30.24
31.10
30.99
29.96
28.15
25.73
22.95
19.95
16.86
13.70
10.50
7.33
4.35
1.73
-0.39
-2.00
-3.21
-4.20
-5.11
-5.93
-6.53
-6.71
-6.34
-5.47
-4.27
-3.08
-2.19
-1.78
-1.91
-2.48
-3.38
-4.48
-5.74
-7.16
-8.80
-10.73
-13.05
-15.78
-18.86
-22.10
-25.14
-27.60
-29.10
-29.43
-28.58
-26.72
-24.16
-21.22
-18.18
-15.24
-12.54
-10.16
-8.14
-6.50
-5.23
-4.30
-3.66
-3.26
-3.04
-2.90
-2.76
-2.54
-2.25
-1.93
-1.66
-1.48
-1.33
-1.06
-0.55
0.22
1.08
1.79
2.08
1.89
1.36
0.69
0.12
-0.31
-0.65
-1.02
-1.50
-2.08
-2.70
-3.33
-3.98
-4.70
-5.54
-6.49
-7.55
-8.70
-10.00
-11.49
-13.13
-14.76
-16.04
-16.62
-16.21
-14.69
-12.18
-8.93
-5.32
-1.70
1.64
4.51
6.82
8.59
9.93
10.93
11.71
12.31
12.73
12.90
12.78
12.31
11.57
10.68
9.85
9.24
8.94
8.92
9.02
9.10
9.02
8.75
8.34
7.90
7.47
7.03
6.54
5.90
5.14
4.29
3.47
2.74
2.14
1.60
0.98
0.16
-0.94
-2.32
-3.89
-5.53
-7.16
-8.74
-10.21
-11.52
-12.52
-13.02
-12.82
-11.82
-10.03
-7.60
-4.80
-1.88
0.96
3.75
6.53
9.32
12.05
14.57
16.70
18.32
19.36
19.90
20.26
20.81
21.84
23.43
25.49
27.69
29.56
30.57
30.27
28.77
26.39
23.57
20.68
17.95
15.35
12.65
9.48
5.55
1.48
-2.04
-4.66
-6.53
-7.94
-9.14
-10.30
-11.65
-13.58
-15.29
-16.43
-17.33
-18.50
-19.60
-19.31
-16.02
-8.84
1.90
16.94
35.80
56.69
77.22
95.81
112.03
125.89
137.07
144.83
151.14
157.46
163.80
169.14
172.96
175.89
178.95
182.76
170.62
134.37
78.40
16.42
-39.41
-83.59
-115.29
-135.59
-146.24
-149.87
-146.23
-135.11
-118.19
-98.86
-80.55
-65.58
-55.24
-50.13
-50.94
-55.27
-60.70
-65.94
-70.78
-75.05
-77.95
-78.53
-76.15
-70.81
-61.61
-48.63
-33.29
-17.92
-4.69
5.04
10.63
11.89
8.98
3.23
-3.89
-11.12
-17.59
-22.80
-26.62
-29.50
-32.17
-35.17
-38.14
-40.16
-40.26
-38.03
-33.84
-28.59
-23.20
-17.98
-12.51
-6.06
1.59
9.51
15.64
17.58
13.85
4.65
-8.07
-21.39
-32.43
-39.01
-39.78
-33.95
-21.31
-2.77
19.00
39.45
53.20
55.94
46.46
27.48
4.81
-14.90
-26.70
-29.00
-23.59
-14.34
-5.31
0.67
2.60
0.97
-3.09
-8.48
-14.54
-20.85
-26.95
-32.12
-35.49
-36.46
-35.07
-32.04
-28.28
-24.31
-19.81
-13.79
-5.35
5.59
17.83
29.24
37.51
41.09
39.71
34.32
26.60
18.36
11.00
5.32
1.55
-0.47
-1.07
-0.66
0.41
1.79
3.19
4.47
5.58
6.61
7.71
8.93
10.17
11.21
11.78
11.75
11.23
10.46
9.75
9.27
8.97
8.56
7.70
6.17
4.02
1.53
-1.04
-3.48
-5.68
-7.63
-9.37
-11.01
-12.68
-14.54
-16.76
-19.52
-22.78
-26.08
-28.68
-29.93
-29.57
-27.95
-25.99
-24.85
-25.77
-29.15
-34.08
-38.66
-40.91
-39.48
-33.88
-24.42
-11.89
2.09
15.83
28.05
37.39
42.14
40.56
32.06
17.93
1.32
-14.65
-26.76
-31.89
-28.05
-15.41
3.60
24.99
44.09
56.25
56.27
41.20
12.29
-25.22
-64.17
-97.55
-120.05
-129.16
-117.40
-85.05
-42.96
-5.84
17.75
27.44
27.13
21.40
13.72
6.39
0.10
-4.08
-3.73
3.78
19.35
41.70
67.45
91.97
110.98
120.55
118.98
107.87
91.08
72.44
54.28
37.36
21.69
7.11
-6.85
-20.11
-31.27
-38.33
-40.08
-36.44
-28.00
-15.22
1.39
21.17
40.18
53.12
56.73
51.21
39.19
24.08
8.95
-4.32
-15.16
-23.94
-30.83
-35.59
-38.07
-38.41
-38.04
-37.39
-37.19
-37.97
-40.10
-43.32
-46.82
-49.87
-51.72
-51.87
-50.04
-46.58
-41.89
-36.64
-31.30
-25.17
-18.58
-12.01
-6.04
-1.01
2.80
5.80
8.65
12.34
17.56
24.36
32.51
41.51
50.80
57.54
59.46
56.17
49.84
43.19
37.71
33.61
30.27
26.85
22.74
19.06
15.90
13.54
11.91
10.61
9.24
7.57
5.55
3.39
1.72
0.70
0.79
2.07
4.21
6.66
8.87
10.36
10.86
10.53
9.61
8.44
7.11
5.58
3.95
2.48
1.51
1.26
1.48
1.65
0.93
-1.47
-5.84
-11.68
-17.97
-23.60
-27.74
-30.12
-30.92
-30.76
-30.39
-30.31
-30.59
-30.88
-30.60
-29.21
-27.14
-24.22
-20.78
-17.26
-13.99
-11.09
-8.51
-6.14
-3.89
-1.73
0.40
2.40
4.11
5.38
6.03
5.90
4.89
2.98
0.19
-3.09
-6.37
-9.14
-10.97
-11.65
-11.15
-9.62
-7.20
-3.98
0.11
5.08
10.74
16.80
22.83
28.56
33.81
38.61
42.94
46.70
49.59
51.23
51.37
49.98
47.21
43.35
38.61
33.24
27.50
21.83
16.78
12.96
10.74
10.15
10.78
11.98
13.03
13.41
12.87
11.49
9.53
7.33
5.16
3.11
1.07
-1.24
-4.19
-8.04
-12.83
-18.29
-23.87
-28.87
-32.62
-34.71
-35.19
-34.57
-33.67
-33.31
-34.03
-35.78
-38.01
-39.89
-40.68
-39.98
-37.85
-34.67
-30.94
-27.04
-23.19
-19.47
-15.93
-12.65
-9.69
-7.08
-4.80
-2.76
-0.84
0.99
2.70
4.16
5.23
5.81
5.95
5.81
5.63
5.55
5.60
5.66
5.55
5.18
4.61
3.96
3.39
2.87
2.29
1.48
0.37
-0.97
-2.35
-3.64
-4.84
-6.06
-7.47
-9.09
-10.82
-12.45
-13.82
-14.86
-15.60
-16.11
-16.35
-16.18
-15.42
-13.95
-11.78
-9.10
-6.14
-3.13
-0.26
2.38
4.69
6.61
8.05
8.94
9.29
9.17
8.72
8.10
7.40
6.69
5.94
5.16
4.40
3.75
3.33
3.20
3.27
3.41
3.41
3.15
2.61
1.87
1.07
0.28
-0.46
-1.20
-1.98
-2.78
-3.55
-4.25
-4.90
-5.62
-6.54
-7.69
-8.95
-10.05
-10.65
-10.53
-9.66
-8.21
-6.45
-4.59
-2.74
-0.90
0.94
2.72
4.30
5.57
6.49
7.17
7.73
8.32
8.91
9.35
9.48
9.22
8.70
8.17
7.87
7.87
8.03
8.07
7.73
6.96
5.91
4.90
4.17
3.81
3.70
3.58
3.22
2.54
1.60
0.59
-0.34
-1.09
-1.71
-2.32
-3.03
-3.92
-5.00
-6.23
-7.54
-8.85
-10.03
-10.92
-11.34
-11.15
-10.28
-8.81
-6.92
-4.87
-2.88
-1.09
0.47
1.89
3.31
4.79
6.32
7.75
8.89
9.57
9.74
9.50
9.05
8.62
8.38
8.38
8.58
8.92
9.31
9.67
9.93
9.98
9.76
9.23
8.42
7.43
6.39
5.39
4.50
3.73
3.05
2.43
1.85
1.28
0.70
0.07
-0.68
-1.63
-2.79
-4.11
-5.47
-6.67
-7.48
-7.77
-7.48
-6.68
-5.49
-4.01
-2.37
-0.62
1.18
2.93
4.51
5.78
6.64
7.06
7.11
6.89
6.53
6.12
5.71
5.35
5.11
5.04
5.17
5.43
5.70
5.83
5.71
5.34
4.83
4.30
3.85
3.47
3.10
2.63
2.02
1.29
0.52
-0.19
-0.80
-1.32
-1.83
-2.43
-3.23
-4.29
-5.60
-7.07
-8.50
-9.65
-10.30
-10.25
-9.45
-7.94
-5.89
-3.55
-1.20
0.94
2.70
4.04
4.97
5.56
5.89
6.03
6.08
6.11
6.20
6.39
6.65
6.87
6.93
6.70
6.15
5.37
4.53
3.83
3.39
3.24
3.27
3.30
3.14
2.71
2.05
1.32
0.65
0.10
-0.37
-0.88
-1.52
-2.33
-3.23
-4.14
-5.00
-5.82
-6.67
-7.51
-8.22
-8.58
-8.39
-7.55
-6.13
-4.35
-2.47
-0.71
0.81
2.06
3.02
3.69
4.06
4.16
4.02
3.74
3.42
3.14
2.90
2.67
2.43
2.18
1.96
1.84
1.86
2.02
2.25
2.46
2.51
2.29
1.79
1.05
0.18
-0.68
-1.39
-1.91
-2.28
-2.61
-3.06
-3.68
-4.48
-5.31
-6.01
-6.44
-6.52
-6.27
-5.74
-4.97
-3.96
-2.66
-1.08
0.68
2.43
3.94
5.05
5.70
5.99
6.03
5.94
5.80
5.63
5.42
5.18
4.92
4.67
4.47
4.32
4.23
4.18
4.16
4.10
4.00
3.80
3.50
3.04
2.38
1.50
0.43
-0.68
-1.67
-2.39
-2.85
-3.23
-3.75
-4.61
-5.83
-7.24
-8.57
-9.53
-9.95
-9.82
-9.19
-8.19
-6.92
-5.48
-3.96
-2.43
-0.97
0.39
1.59
2.65
3.55
4.25
4.74
4.99
5.03
4.89
4.63
4.35
4.13
3.99
3.91
3.88
3.85
3.79
3.69
3.52
3.27
2.90
2.42
1.87
1.33
0.89
0.59
0.36
0.13
-0.19
-0.64
-1.26
-2.03
-2.94
-3.93
-4.94
-5.87
-6.62
-7.02
-6.94
-6.33
-5.25
-3.84
-2.30
-0.80
0.54
1.64
2.63
3.62
4.67
5.71
6.58
7.18
7.47
7.45
7.21
7.10
7.41
8.12
8.93
9.52
9.70
9.46
8.94
8.29
8.22
9.21
11.27
13.83
16.23
17.99
18.93
19.03
18.34
17.92
18.68
20.88
24.04
27.47
30.81
33.96
36.91
39.64
43.27
48.71
56.12
64.81
73.96
83.09
91.91
99.98
99.05
84.09
56.07
21.92
-10.65
-37.30
-57.02
-70.77
-80.02
-85.92
-87.78
-84.89
-77.79
-68.64
-60.23
-54.49
-51.66
-50.42
-48.76
-44.35
-36.54
-26.85
-18.13
-12.72
-10.99
-11.58
-12.50
-12.37
-10.47
-7.18
-3.50
-0.29
1.90
3.25
4.07
4.53
4.41
3.49
1.75
-0.63
-3.25
-5.56
-7.00
-7.35
-6.84
-6.08
-5.52
-5.31
-5.25
-4.93
-4.00
-2.29
0.04
2.62
5.05
7.09
8.78
10.27
11.70
13.03
14.05
14.38
13.91
12.53
10.39
7.82
5.28
3.25
2.07
1.90
2.62
3.81
4.80
4.87
3.56
0.86
-2.72
-6.29
-8.90
-9.89
-9.09
-6.84
-3.71
-0.28
3.02
5.98
8.50
10.50
11.94
12.78
13.00
12.64
11.75
10.38
8.54
6.29
3.69
0.85
-2.09
-4.96
-7.49
-9.39
-10.39
-10.38
-9.43
-7.88
-6.13
-4.55
-3.33
-2.54
-2.18
-2.28
-2.98
-4.35
-6.35
-8.68
-10.86
-12.44
-13.12
-12.86
-11.83
-10.28
-8.43
-6.43
-4.43
-2.64
-1.37
-0.95
-1.60
-3.33
-5.89
-8.87
-11.80
-14.36
-16.45
-18.18
-19.79
-21.51
-23.36
-25.15
-26.51
-27.06
-26.61
-25.27
-23.48
-21.79
-20.70
-20.41
-20.78
-21.40
-21.72
-21.29
-19.83
-17.33
-13.95
-10.04
-6.02
-2.34
0.66
2.80
4.16
5.05
5.87
6.94
8.34
9.89
11.25
12.16
12.50
12.39
12.04
11.60
11.05
10.27
9.16
7.74
6.29
5.15
4.63
4.80
5.42
6.07
6.23
5.57
4.03
1.86
-0.50
-2.59
-4.03
-4.71
-4.73
-4.38
-3.98
-3.79
-3.90
-4.26
-4.72
-5.17
-5.65
-6.31
-7.35
-8.89
-10.80
-12.69
-14.06
-14.43
-13.57
-11.57
-8.76
-5.60
-2.48
0.30
2.63
4.54
6.14
7.60
9.07
10.67
12.41
14.24
16.03
17.60
18.85
19.64
19.93
19.65
18.81
17.51
16.00
14.58
13.55
13.07
13.06
13.31
13.53
13.52
13.27
12.93
12.71
12.76
13.12
13.72
14.42
15.11
15.70
16.12
16.37
16.49
16.64
17.01
17.65
18.39
18.80
18.34
16.56
13.28
8.56
2.68
-4.03
-11.15
-18.11
-24.16
-28.44
-30.24
-29.32
-26.05
-21.26
-15.96
-10.98
-6.77
-3.43
-0.82
1.21
2.84
4.19
5.39
6.50
7.57
8.56
9.42
10.08
10.46
10.47
10.08
9.25
8.06
6.66
5.25
4.04
3.20
2.77
2.66
2.57
2.00
0.32
-3.14
-8.78
-16.56
-25.82
-35.47
-44.24
-51.16
-55.81
-58.35
-59.20
-58.77
-57.15
-54.16
-49.62
-43.61
-36.63
-29.50
-23.05
-17.87
-14.09
-11.51
-9.75
-8.41
-7.19
-5.89
-4.39
-2.65
-0.73
1.23
3.01
4.42
5.35
5.80
5.85
5.69
5.54
5.65
6.26
7.55
9.49
11.86
14.23
16.17
17.34
17.69
17.41
16.78
16.04
15.30
14.48
13.48
12.21
10.69
8.98
7.14
5.21
3.22
1.30
-0.35
-1.49
-2.09
-2.34
-2.67
-3.54
-5.22
-7.60
-10.18
-12.31
-13.51
-13.73
-13.32
-12.85
-12.79
-13.24
-13.88
-14.21
-13.74
-12.26
-9.86
-6.77
-3.17
0.80
5.10
9.55
13.82
17.48
20.18
21.86
22.70
23.11
23.48
24.09
25.10
26.49
28.14
29.74
30.77
30.64
28.92
25.62
21.27
16.77
13.02
10.54
9.30
8.88
8.74
8.56
8.32
8.20
8.35
8.71
9.04
9.00
8.29
6.74
4.31
1.08
-2.75
-6.85
-10.86
-14.41
-17.26
-19.36
-20.91
-22.19
-23.44
-24.72
-25.85
-26.50
-26.35
-25.20
-23.04
-20.02
-16.38
-12.36
-8.21
-4.16
-0.46
2.67
5.11
6.89
8.24
9.46
10.82
12.37
14.00
15.44
16.42
16.75
16.41
15.45
14.00
12.17
10.06
7.81
5.60
3.67
2.24
1.47
1.37
1.82
2.60
3.44
4.07
4.26
3.81
2.70
1.05
-0.82
-2.45
-3.42
-3.49
-2.70
-1.40
-0.12
0.60
0.37
-0.90
-3.05
-5.74
-8.56
-11.17
-13.36
-15.00
-16.01
-16.31
-15.82
-14.49
-12.36
-9.56
-6.36
-3.03
0.19
3.13
5.73
7.96
9.84
11.39
12.62
13.53
14.10
14.31
14.20
13.86
13.44
13.04
12.77
12.66
12.70
12.83
13.01
13.16
13.24
13.21
13.00
12.54
11.71
10.45
8.72
6.59
4.28
2.15
0.62
-0.07
0.07
0.72
1.38
1.57
1.04
-0.16
-1.71
-3.20
-4.43
-5.48
-6.72
-8.55
-11.25
-14.75
-18.69
-22.36
-25.03
-26.27
-26.09
-24.96
-23.54
-22.48
-22.15
-22.50
-22.88
-22.34
-20.24
-16.48
-11.56
-6.24
-1.42
2.13
3.86
3.70
2.02
-0.69
-3.83
-6.63
-8.27
-8.43
-7.49
-6.38
-5.83
-5.83
-5.58
-3.76
1.23
10.49
23.92
40.22
54.95
63.02
62.60
55.72
45.88
35.82
26.90
19.24
11.79
4.11
-3.19
-9.06
-12.95
-15.30
-17.41
-19.83
-23.22
-27.78
-33.09
-38.16
-41.87
-43.68
-43.86
-43.20
-42.53
-42.58
-43.52
-44.88
-45.68
-44.70
-41.12
-34.77
-26.10
-15.89
-5.13
5.30
14.88
23.41
30.88
37.31
42.56
46.48
48.96
49.92
49.38
47.52
44.57
40.80
36.43
31.59
26.40
20.97
15.46
10.09
5.19
1.02
-2.23
-4.58
-6.18
-7.30
-8.14
-8.87
-9.56
-10.28
-11.15
-12.35
-14.01
-16.19
-18.75
-21.40
-23.80
-25.70
-26.97
-27.65
-27.90
-27.89
-27.78
-27.65
-27.44
-27.01
-26.09
-24.45
-21.95
-18.67
-14.83
-10.73
-6.65
-2.75
0.90
4.24
7.18
9.55
11.21
12.17
12.56
12.63
12.62
12.61
12.53
12.19
11.41
10.17
8.56
6.82
5.19
3.89
3.05
2.77
3.02
3.60
4.13
4.10
3.10
1.03
-1.71
-4.34
-5.97
-5.90
-3.94
-0.38
4.17
9.10
13.89
18.21
21.79
24.38
25.78
25.97
25.20
23.91
22.60
21.66
21.31
21.56
22.39
23.81
25.91
28.70
32.02
35.56
38.86
41.46
42.97
43.09
41.80
39.26
35.80
31.96
28.40
25.81
24.54
24.54
25.13
25.58
25.08
23.07
19.44
14.61
9.38
4.57
0.62
-2.57
-5.20
-7.65
-10.34
-13.47
-16.90
-20.16
-22.77
-24.50
-25.52
-25.67
-24.82
-22.97
-20.18
-16.50
-11.83
-5.99
1.14
7.48
11.66
13.33
13.11
11.44
8.04
2.46
-5.35
-14.15
-23.66
-32.63
-39.73
-44.13
-45.77
-45.16
-43.18
-40.05
-36.57
-33.75
-31.91
-31.01
-30.74
-30.60
-30.07
-28.84
-27.00
-25.07
-23.72
-22.95
-22.35
-21.31
-19.31
-16.10
-11.74
-6.54
-0.97
4.47
9.54
13.98
17.43
19.48
19.92
18.87
16.83
14.45
12.33
10.91
10.26
10.13
10.10
9.79
8.99
7.70
6.05
4.22
2.41
0.78
-0.63
-1.77
-2.65
-3.28
-3.64
-3.69
-3.36
-2.48
-0.86
1.66
5.08
9.20
13.63
17.86
21.48
24.26
26.29
27.85
29.21
30.57
31.84
32.82
33.27
33.01
31.97
30.05
27.08
22.77
16.98
9.90
2.25
-4.84
-10.21
-13.16
-13.71
-12.56
-10.74
-9.15
-8.29
-8.21
-8.77
-9.78
-11.15
-12.75
-14.35
-15.62
-16.25
-16.24
-15.86
-15.63
-16.05
-17.36
-19.47
-22.03
-24.60
-26.79
-28.34
-29.07
-28.87
-27.61
-25.29
-22.05
-18.18
-14.14
-10.34
-7.09
-4.44
-2.27
-0.39
1.34
2.91
4.19
5.03
5.39
5.32
4.98
4.52
4.01
3.38
2.57
1.52
0.35
-0.76
-1.61
-2.11
-2.33
-2.49
-2.87
-3.69
-5.00
-6.68
-8.48
-10.13
-11.44
-12.33
-12.83
-13.08
-13.23
-13.46
-13.87
-14.51
-15.34
-16.19
-16.83
-17.02
-16.59
-15.54
-14.01
-12.29
-10.63
-9.18
-7.80
-6.18
-3.88
-0.58
3.79
8.98
14.43
19.46
23.44
25.99
27.02
26.73
25.42
23.41
20.93
18.12
15.08
12.00
9.14
6.74
4.95
3.75
2.96
2.39
1.89
1.50
1.32
1.46
1.94
2.63
3.37
3.97
4.35
4.45
4.28
3.90
3.40
2.92
2.59
2.50
2.60
2.76
2.74
2.36
1.57
0.45
-0.77
-1.86
-2.62
-3.03
-3.15
-3.20
-3.39
-3.83
-4.52
-5.25
-5.69
-5.46
-4.32
-2.15
0.94
4.71
8.87
13.09
17.13
20.78
23.95
26.62
28.84
30.79
32.69
34.76
37.09
39.54
41.66
42.74
42.02
38.96
33.55
26.40
18.62
11.45
5.83
2.16
0.24
-0.53
-0.76
-0.92
-1.18
-1.53
-1.89
-2.19
-2.40
-2.46
-2.31
-1.92
-1.34
-0.78
-0.48
-0.69
-1.48
-2.72
-4.21
-5.84
-7.79
-10.50
-14.55
-20.32
-27.63
-35.67
-43.17
-48.75
-51.45
-50.96
-47.71
-42.58
-36.54
-30.35
-24.49
-19.17
-14.52
-10.61
-7.37
-4.63
-2.04
0.74
3.85
7.10
10.01
11.98
12.60
11.87
10.18
8.23
6.75
6.23
6.79
8.09
9.56
10.53
10.58
9.67
8.20
6.80
6.08
6.29
7.17
8.20
8.78
8.67
8.06
7.43
7.27
7.77
8.75
9.81
10.58
10.84
10.65
10.17
9.55
8.87
8.21
7.76
7.86
8.85
10.92
13.71
16.27
17.19
15.04
9.03
-0.54
-12.22
-23.84
-33.26
-39.14
-41.26
-40.38
-37.64
-34.00
-29.92
-25.48
-20.67
-15.62
-10.69
-6.21
-2.41
0.77
3.51
6.06
8.57
11.11
13.65
16.02
18.03
19.41
19.93
19.49
18.16
16.17
13.84
11.48
9.28
7.30
5.47
3.69
1.85
-0.12
-2.18
-4.24
-6.15
-7.79
-9.09
-10.13
-10.97
-11.78
-12.63
-13.56
-14.56
-15.58
-16.50
-17.16
-17.31
-16.65
-14.88
-11.84
-7.57
-2.40
3.16
8.52
13.31
17.40
21.00
24.47
28.16
32.17
36.32
40.18
43.17
44.77
44.61
42.54
38.61
33.02
26.05
18.04
9.39
0.51
-8.13
-16.12
-23.13
-28.99
-33.68
-37.35
-40.20
-42.44
-44.25
-45.70
-46.83
-47.64
-48.11
-48.19
-47.83
-46.97
-45.55
-43.57
-41.08
-38.27
-35.37
-32.60
-30.00
-27.40
-24.44
-20.71
-15.96
-10.20
-3.67
3.28
10.34
17.32
24.06
30.42
36.16
40.96
44.56
46.77
47.59
47.19
45.83
43.82
41.50
39.13
36.81
34.48
31.89
28.77
24.95
20.56
15.98
11.75
8.30
5.85
4.27
3.24
2.39
1.43
0.26
-1.09
-2.56
-4.11
-5.77
-7.57
-9.56
-11.69
-13.91
-16.09
-18.17
-20.07
-21.75
-23.23
-24.54
-25.76
-26.93
-28.07
-29.15
-30.05
-30.66
-30.84
-30.49
-29.53
-27.93
-25.70
-22.91
-19.67
-16.19
-12.70
-9.48
-6.74
-4.61
-3.05
-1.91
-0.96
0.01
1.12
2.37
3.63
4.71
5.44
5.74
5.69
5.48
5.30
5.33
5.60
6.05
6.55
6.98
7.29
7.50
7.66
7.84
8.05
8.30
8.57
8.83
9.04
9.11
8.98
8.58
7.94
7.16
6.34
5.56
4.82
4.05
3.16
2.08
0.78
-0.69
-2.27
-3.85
-5.29
-6.36
-6.81
-6.44
-5.18
-3.13
-0.55
2.21
4.85
7.17
9.09
10.65
11.89
12.89
13.69
14.41
15.17
16.13
17.35
18.75
20.03
20.79
20.64
19.34
16.99
13.97
10.84
8.15
6.27
5.37
5.36
6.02
7.04
8.08
8.83
9.09
8.78
8.00
6.98
6.00
5.34
5.17
5.54
6.41
7.65
9.08
10.45
11.44
11.81
11.37
10.15
8.28
6.01
3.58
1.25
-0.78
-2.32
-3.19
-3.32
-2.74
-1.62
-0.16
1.38
2.83
4.07
5.04
5.73
6.17
6.43
6.58
6.65
6.64
6.46
6.03
5.39
4.68
4.10
3.75
3.63
3.58
3.45
3.17
2.81
2.53
2.37
2.26
2.00
1.42
0.48
-0.71
-1.90
-2.90
-3.58
-3.96
-4.11
-4.08
-3.94
-3.77
-3.68
-3.81
-4.24
-4.93
-5.74
-6.38
-6.59
-6.19
-5.16
-3.60
-1.67
0.44
2.59
4.66
6.57
8.27
9.68
10.74
11.39
11.60
11.36
10.73
9.86
8.95
8.18
7.68
7.46
7.42
7.38
7.19
6.76
6.08
5.22
4.24
3.21
2.12
0.96
-0.28
-1.58
-2.85
-4.00
-4.92
-5.53
-5.85
-5.96
-6.00
-6.15
-6.54
-7.24
-8.26
-9.53
-10.93
-12.28
-13.34
-13.82
-13.47
-12.12
-9.79
-6.72
-3.31
0.01
2.85
4.99
6.37
7.07
7.18
6.83
6.08
5.01
3.69
2.22
0.73
-0.66
-1.81
-2.64
-3.10
-3.24
-3.19
-3.06
-2.96
-2.95
-3.01
-3.17
-3.45
-3.92
-4.60
-5.46
-6.37
-7.08
-7.33
-6.92
-5.78
-4.00
-1.87
0.24
1.97
2.97
3.03
2.04
0.05
-2.77
-6.12
-9.62
-12.92
-15.87
-18.52
-21.04
-23.59
-26.13
-28.37
-29.89
-30.36
-29.75
-28.32
-26.52
-24.70
-22.90
-20.86
-18.17
-14.59
-10.24
-5.56
-1.15
2.64
6.01
9.75
14.99
22.59
32.81
45.16
58.39
70.82
80.89
87.51
90.24
89.23
84.86
77.90
69.45
60.85
53.40
48.07
45.16
44.26
44.32
43.75
41.36
36.81
30.60
23.53
16.36
9.57
3.35
-2.35
-8.53
-15.55
-22.80
-29.06
-33.47
-35.79
-36.27
-35.44
-33.96
-34.31
-37.81
-43.96
-51.34
-59.24
-67.87
-77.70
-88.75
-100.50
-114.94
-132.48
-150.97
-167.22
-179.28
-186.87
-190.63
-191.58
-190.90
-193.54
-202.01
-214.45
-226.37
-234.08
-235.90
-231.59
-221.53
-182.87
-110.75
-21.65
60.21
121.33
160.71
183.05
193.76
197.15
196.14
188.82
174.73
156.66
138.92
124.23
113.13
105.03
99.20
94.97
88.72
78.40
64.95
51.36
40.36
33.61
31.54
33.35
37.08
38.52
35.06
27.08
17.56
9.39
4.25
2.34
2.81
4.38
5.16
4.39
2.74
1.54
1.57
2.74
4.35
5.61
5.97
5.06
3.03
0.50
-1.76
-3.29
-4.11
-4.57
-5.12
-5.97
-6.97
-7.64
-7.46
-5.98
-2.88
1.39
6.06
10.27
13.41
15.30
16.13
16.24
15.98
15.94
16.48
17.63
19.25
21.25
23.68
26.66
30.14
33.90
38.02
42.29
46.23
49.17
50.59
50.20
47.88
43.51
34.40
20.17
3.16
-12.73
-24.36
-30.50
-31.54
-28.88
-24.43
-19.98
-16.33
-13.53
-11.20
-8.96
-6.68
-4.65
-3.44
-3.45
-4.37
-4.99
-4.27
-2.11
0.41
1.67
0.51
-3.13
-8.42
-13.82
-17.63
-18.97
-18.07
-15.94
-13.66
-11.91
-11.00
-10.93
-11.45
-12.00
-11.91
-10.51
-7.26
-1.95
5.12
12.92
19.87
24.40
25.43
22.60
16.31
7.51
-3.05
-13.74
-22.97
-29.60
-33.18
-33.99
-32.87
-30.94
-29.20
-28.25
-28.13
-28.52
-28.92
-28.77
-27.70
-25.61
-22.69
-19.41
-16.32
-13.85
-12.22
-11.36
-10.82
-9.90
-7.87
-4.19
1.27
8.14
15.71
23.03
29.24
33.73
36.26
36.83
35.63
32.93
29.11
24.70
20.27
16.38
13.32
11.05
9.22
7.30
4.88
1.82
-1.64
-4.99
-7.72
-9.42
-9.96
-9.48
-8.36
-7.07
-6.07
-5.73
-6.18
-7.32
-8.81
-10.18
-10.96
-10.79
-9.58
-7.46
-4.70
-1.65
1.36
4.09
6.39
8.22
9.68
10.87
11.93
12.86
13.52
13.73
13.35
12.42
11.15
9.87
8.86
8.30
8.17
8.36
8.69
9.05
9.32
9.41
9.26
8.84
8.20
7.46
6.75
6.15
5.70
5.37
5.12
4.94
4.80
4.65
4.37
3.83
2.93
1.63
0.03
-1.62
-3.02
-3.88
-3.99
-3.27
-1.75
0.37
2.76
5.06
6.90
8.10
8.76
9.33
10.38
12.40
15.47
19.22
22.95
25.91
27.72
28.46
28.64
28.90
29.74
31.30
33.38
35.55
37.27
37.99
37.32
35.05
31.33
26.69
21.91
17.79
14.90
13.36
12.91
13.03
13.27
13.39
13.41
13.46
13.60
13.72
13.64
13.26
12.75
12.66
13.71
16.55
21.43
28.02
35.48
42.74
48.86
53.24
55.69
56.34
55.40
53.09
49.59
45.16
40.15
34.93
29.68
24.28
18.34
11.40
3.31
-5.57
-14.46
-22.42
-28.77
-33.23
-35.97
-37.24
-37.17
-35.75
-32.96
-29.11
-24.93
-21.47
-19.66
-20.02
-22.49
-26.55
-31.53
-36.86
-42.27
-47.74
-53.39
-59.37
-65.72
-72.33
-78.89
-85.04
-90.38
-94.60
-97.46
-98.77
-98.37
-96.24
-92.66
-88.37
-84.46
-82.07
-81.90
-83.84
-87.00
-90.08
-91.99
-92.21
-90.87
-88.53
-85.68
-82.50
-78.71
-73.63
-66.37
-55.99
-41.90
-24.17
-3.97
16.43
34.16
46.66
52.69
52.66
48.31
41.67
34.22
26.50
18.60
10.97
4.93
2.45
5.20
13.64
26.51
41.22
54.88
65.43
72.29
76.23
78.66
80.72
82.51
82.99
80.51
73.76
62.70
48.84
34.72
22.85
14.83
11.17
11.93
17.21
26.82
39.09
50.01
53.81
45.49
24.02
-5.85
-34.94
-53.71
-56.96
-46.31
-28.93
-13.32
-4.84
-3.59
-5.72
-6.79
-4.79
-1.05
1.34
0.01
-5.03
-11.51
-16.36
-17.61
-15.30
-11.35
-8.25
-7.70
-9.77
-13.02
-15.34
-15.03
-11.61
-6.01
0.00
4.62
6.76
6.51
4.90
3.34
2.91
3.90
5.79
7.56
8.28
7.57
5.72
3.50
1.73
0.90
1.03
1.75
2.54
2.99
2.87
2.18
1.08
-0.23
-1.61
-2.97
-4.28
-5.57
-6.87
-8.27
-9.68
-10.95
-11.97
-12.82
-13.74
-14.95
-16.60
-18.63
-20.92
-23.00
-24.16
-23.93
-22.32
-19.76
-16.91
-14.49
-13.05
-12.97
-13.82
-14.60
-14.38
-12.90
-10.52
-7.91
-5.86
-4.96
-5.62
-7.38
-9.02
-9.23
-7.02
-1.64
7.48
20.31
37.40
55.08
67.48
70.68
65.07
53.91
41.05
29.38
19.84
11.79
3.58
-5.41
-14.49
-22.35
-28.04
-32.13
-34.76
-36.36
-37.14
-37.20
-35.68
-31.73
-25.20
-17.04
-8.73
-1.30
4.61
9.12
12.58
16.26
20.99
27.16
34.50
42.54
50.92
59.12
66.71
70.34
68.01
60.14
49.32
38.47
29.58
23.45
19.90
18.49
18.54
19.74
21.66
23.33
23.48
21.08
16.57
10.14
2.90
-3.83
-8.71
-11.19
-11.93
-12.40
-14.02
-17.58
-23.06
-29.48
-35.60
-40.83
-44.63
-47.03
-48.22
-48.18
-46.83
-44.32
-40.86
-36.88
-32.77
-27.87
-22.25
-15.89
-8.43
0.32
10.11
20.31
29.99
38.31
44.77
48.74
50.29
50.50
50.53
51.03
52.09
53.34
54.43
55.30
55.41
52.15
44.52
33.24
20.59
9.40
2.19
0.36
3.48
7.92
8.89
3.15
-10.63
-31.46
-56.51
-82.38
-106.59
-123.06
-129.80
-127.92
-119.20
-104.88
-85.61
-62.37
-37.12
-12.54
9.00
25.46
36.57
43.92
49.53
54.49
58.86
62.07
63.53
63.12
61.36
58.15
54.23
50.34
46.54
42.59
38.32
34.10
30.69
28.64
28.36
30.19
33.98
38.24
41.02
40.45
35.17
24.66
9.31
-9.45
-29.52
-46.48
-56.95
-58.26
-48.89
-29.02
-0.83
31.85
64.18
90.96
107.41
108.56
93.25
65.30
31.85
0.38
-23.55
-37.63
-42.84
-42.30
-41.86
-44.37
-48.65
-52.17
-54.17
-56.46
-62.25
-74.47
-94.53
-124.72
-163.13
-203.45
-238.08
-261.14
-269.05
-260.10
-234.56
-177.47
-94.06
-7.30
60.70
103.14
125.04
134.62
138.34
139.80
140.32
137.27
129.88
119.95
109.46
98.24
85.00
69.25
52.13
35.85
20.38
6.36
-4.55
-11.03
-13.44
-13.06
-11.11
-8.53
-6.10
-5.82
-8.28
-12.39
-15.67
-16.64
-14.91
-10.91
-5.57
0.03
4.28
6.52
7.26
7.55
8.02
8.85
9.93
10.97
11.69
11.65
10.83
9.61
8.62
8.17
8.26
8.53
8.41
7.36
5.08
1.66
-2.47
-6.62
-10.24
-12.85
-14.31
-14.80
-14.74
-14.54
-14.49
-14.69
-15.09
-15.73
-16.66
-18.07
-20.03
-22.41
-24.76
-26.47
-26.94
-25.87
-23.28
-19.54
-15.15
-10.58
-6.15
-2.08
1.52
4.53
6.86
8.52
9.58
10.21
10.58
10.82
10.93
10.86
10.53
9.95
9.19
8.41
7.76
7.38
7.32
7.59
8.12
8.84
9.62
10.29
10.65
10.54
9.90
8.76
7.30
5.72
4.18
2.75
1.41
0.06
-1.34
-2.80
-4.24
-5.60
-6.88
-8.16
-9.55
-11.08
-12.67
-14.06
-14.91
-14.90
-13.87
-11.92
-9.31
-6.41
-3.50
-0.75
1.84
4.31
6.67
8.90
10.91
12.61
13.94
14.92
15.56
15.91
15.99
15.78
15.32
14.63
13.81
13.00
12.32
11.87
11.67
11.64
11.57
11.27
10.61
9.59
8.33
7.03
5.83
4.76
3.74
2.66
1.41
-0.02
-1.56
-3.13
-4.66
-6.14
-7.58
-9.02
-10.44
-11.88
-13.33
-14.83
-16.38
-17.93
-19.32
-20.37
-20.84
-20.56
-19.44
-17.52
-14.91
-11.84
-8.57
-5.33
-2.27
0.54
3.09
5.42
7.52
9.33
10.73
11.66
12.15
12.34
12.44
12.64
13.01
13.47
13.85
13.95
13.67
13.06
12.28
11.54
10.98
10.65
10.48
10.33
10.09
9.69
9.09
8.28
7.27
6.11
4.86
3.63
2.51
1.60
0.93
0.53
0.37
0.42
0.60
0.75
0.70
0.31
-0.51
-1.72
-3.21
-4.83
-6.44
-7.90
-9.09
-9.87
-10.12
-9.77
-8.89
-7.60
-6.02
-4.22
-2.17
0.14
2.66
5.19
7.44
9.15
10.22
10.70
10.80
10.80
10.85
11.04
11.32
11.60
11.75
11.64
11.09
9.88
7.90
5.18
1.96
-1.30
-4.12
-6.16
-7.30
-7.72
-7.70
-7.57
-7.57
-7.80
-8.28
-8.95
-9.69
-10.39
-10.98
-11.51
-12.18
-13.26
-14.91
-17.10
-19.50
-21.60
-22.84
-22.77
-21.15
-18.00
-13.54
-8.15
-2.32
3.40
8.51
12.65
15.62
17.34
17.83
17.05
15.02
11.87
7.98
4.04
0.85
-0.89
-0.90
0.53
2.60
4.37
5.13
4.80
3.88
3.23
3.68
5.57
8.58
11.91
14.60
16.00
15.86
14.38
12.00
9.20
6.54
4.70
4.46
6.17
9.34
12.41
13.27
10.38
3.67
-5.15
-13.32
-18.40
-19.39
-17.12
-13.46
-10.20
-8.09
-6.72
-5.18
-2.92
-0.14
2.35
3.76
3.92
3.39
3.17
4.10
6.57
10.13
13.73
16.23
16.80
15.29
12.24
8.59
5.31
3.00
1.81
1.48
1.57
1.73
1.75
1.71
1.77
2.18
3.16
4.91
7.57
11.18
15.55
20.28
24.78
28.45
30.89
32.07
32.25
31.73
30.58
28.43
24.68
18.76
10.66
1.04
-8.76
-17.26
-23.25
-26.16
-26.09
-23.52
-19.08
-13.26
-6.45
0.98
8.47
15.31
20.74
24.17
25.36
24.50
22.08
18.76
15.07
11.31
7.56
3.80
0.08
-3.39
-6.25
-8.20
-9.18
-9.53
-9.90
-10.90
-12.79
-15.34
-17.82
-19.39
-19.39
-17.65
-14.50
-10.58
-6.59
-3.05
-0.14
2.29
4.59
7.08
9.91
12.92
15.71
17.78
18.70
18.29
16.64
14.01
10.82
7.50
4.37
1.43
-1.81
-6.22
-12.73
-21.76
-32.65
-43.61
-52.14
-55.92
-53.66
-45.61
-33.32
-18.96
-4.55
8.51
19.51
28.15
34.19
37.48
38.02
36.23
32.95
29.15
25.57
22.33
18.90
14.48
8.46
0.82
-7.88
-16.68
-24.71
-31.43
-36.73
-40.77
-43.73
-45.59
-46.12
-45.00
-42.00
-37.15
-30.66
-23.01
-14.90
-7.13
-0.42
4.74
8.17
10.06
10.84
11.06
11.11
11.05
10.67
9.78
8.32
6.49
4.72
3.52
3.55
5.11
7.94
11.31
14.42
16.66
17.74
17.64
16.59
15.57
15.46
16.51
18.43
20.66
22.61
23.68
23.47
21.89
20.20
19.72
20.91
23.37
26.44
29.68
32.92
36.25
39.88
45.16
52.88
62.38
72.05
80.40
86.61
90.36
91.41
82.27
59.87
27.74
-6.42
-36.09
-58.49
-73.60
-82.70
-87.38
-89.06
-88.63
-85.67
-80.70
-74.98
-69.68
-65.39
-62.18
-59.91
-58.39
-56.65
-53.18
-48.13
-42.44
-37.05
-32.44
-28.69
-25.71
-23.27
-20.59
-16.99
-12.65
-8.22
-4.39
-1.53
0.28
1.22
1.61
2.04
2.99
4.33
5.68
6.74
7.41
7.77
7.97
8.07
8.14
8.21
8.16
7.91
7.46
6.83
6.00
4.90
3.45
1.67
-0.33
-2.41
-4.48
-6.51
-8.50
-10.50
-12.43
-14.17
-15.61
-16.70
-17.53
-18.30
-19.19
-20.34
-21.72
-23.23
-24.70
-25.93
-26.78
-27.19
-27.15
-26.70
-25.93
-24.92
-23.76
-22.53
-21.27
-19.97
-18.63
-17.18
-15.63
-14.04
-12.51
-11.15
-9.98
-8.90
-7.67
-6.07
-3.99
-1.49
1.22
3.88
6.32
8.57
10.76
13.05
15.46
17.81
19.81
21.22
22.03
22.43
22.70
23.10
23.78
24.81
26.30
28.42
31.28
34.76
38.40
41.54
43.67
44.70
45.10
45.59
46.67
48.22
49.48
49.40
47.06
42.07
34.71
25.73
16.02
6.35
-2.74
-11.00
-18.32
-24.64
-29.82
-33.66
-35.91
-36.43
-35.40
-33.35
-31.14
-29.69
-29.62
-31.05
-33.50
-36.09
-37.84
-38.01
-36.24
-32.67
-27.79
-22.25
-16.69
-11.65
-7.44
-4.09
-1.35
1.27
4.39
8.50
13.74
19.73
25.65
30.55
33.70
34.80
34.07
32.03
29.31
26.41
23.69
21.39
19.68
18.65
18.21
18.12
18.01
17.56
16.57
15.06
13.08
10.66
7.69
3.98
-0.57
-5.86
-11.54
-16.97
-21.50
-24.59
-26.12
-26.44
-26.24
-26.28
-26.97
-28.12
-28.99
-28.53
-25.81
-20.41
-12.52
-2.88
7.25
16.23
22.14
23.39
19.41
11.20
1.17
-7.72
-13.28
-14.96
-13.83
-11.65
-9.72
-8.16
-6.14
-2.85
1.71
6.45
9.84
10.81
9.38
6.53
3.59
1.42
0.19
-0.51
-1.27
-2.40
-3.83
-5.22
-6.33
-7.18
-8.11
-9.45
-11.25
-13.03
-13.93
-13.05
-9.77
-4.05
3.67
12.58
21.63
29.61
35.23
37.27
34.99
28.49
18.84
7.91
-2.10
-9.39
-12.94
-12.65
-9.18
-3.54
3.20
10.17
16.65
22.06
25.97
28.11
28.44
27.15
24.61
21.33
17.87
14.61
11.83
9.65
8.09
7.01
6.18
5.28
4.03
2.25
-0.00
-2.38
-4.22
-4.77
-3.44
-0.19
4.27
8.67
11.47
11.39
7.97
1.88
-5.24
-11.46
-15.13
-15.37
-11.88
-5.14
3.68
13.05
21.55
28.21
32.47
34.27
33.87
32.43
30.99
29.90
28.89
27.57
25.71
23.24
20.37
17.28
15.31
15.41
17.42
20.11
22.20
23.11
23.00
22.86
23.90
28.57
38.41
53.04
70.22
87.35
102.27
113.37
119.88
112.70
88.23
51.08
11.33
-23.03
-49.01
-66.77
-79.55
-89.14
-96.42
-100.62
-101.74
-99.85
-96.69
-93.89
-92.14
-91.27
-90.43
-88.82
-85.01
-78.50
-70.18
-61.94
-55.28
-50.60
-47.61
-45.43
-43.27
-40.15
-35.92
-31.34
-27.69
-25.70
-25.25
-25.85
-26.69
-26.96
-25.97
-23.73
-20.89
-18.16
-15.65
-12.86
-9.32
-4.56
1.82
9.91
19.28
29.06
38.40
46.72
53.34
57.38
55.83
47.73
35.66
24.28
16.72
12.88
10.77
9.14
7.26
5.76
6.21
9.57
15.34
21.97
26.94
29.08
28.55
26.32
23.58
21.33
19.73
18.22
15.93
12.35
7.80
2.99
-1.40
-4.90
-7.20
-8.34
-8.66
-8.74
-9.00
-9.52
-10.17
-10.83
-11.29
-11.27
-10.55
-9.06
-6.99
-4.65
-2.33
-0.30
1.24
2.20
2.62
2.55
2.03
1.07
-0.34
-2.08
-4.02
-6.04
-8.03
-9.89
-11.51
-12.80
-13.64
-13.96
-13.71
-12.95
-11.87
-10.76
-9.91
-9.56
-9.65
-9.90
-9.81
-8.89
-6.88
-3.79
0.07
4.37
8.80
13.26
17.80
22.50
27.35
32.18
36.69
40.56
43.58
45.74
47.19
48.13
48.77
49.17
49.30
49.08
48.42
47.25
45.46
42.85
39.15
34.14
27.77
20.34
12.39
4.65
-2.21
-7.70
-11.50
-13.51
-13.80
-12.64
-10.46
-7.87
-5.53
-3.98
-3.56
-4.34
-6.22
-9.03
-12.59
-16.70
-21.10
-25.44
-29.35
-32.57
-35.02
-36.85
-38.29
-39.60
-40.90
-42.18
-43.34
-44.26
-44.86
-45.09
-44.98
-44.62
-44.20
-43.95
-44.06
-44.58
-45.38
-46.13
-46.48
-46.11
-44.88
-42.82
-40.12
-37.08
-34.02
-31.21
-28.80
-26.76
-24.92
-23.06
-20.96
-18.56
-15.93
-13.20
-10.53
-8.00
-5.63
-3.38
-1.21
0.97
3.30
5.95
8.99
12.36
15.73
18.70
20.88
22.08
22.35
21.89
20.93
19.70
18.36
17.10
16.12
15.63
15.70
16.23
16.94
17.46
17.40
16.36
14.01
10.19
5.05
-0.94
-7.07
-12.63
-17.22
-20.76
-23.42
-25.34
-26.39
-26.24
-24.50
-21.06
-16.19
-10.51
-4.73
0.60
5.23
9.15
12.45
15.26
17.64
19.62
21.19
22.35
23.12
23.54
23.71
23.70
23.56
23.32
22.91
22.26
21.34
20.21
18.97
17.77
16.66
15.58
14.40
12.96
11.19
9.17
7.08
5.13
3.45
2.01
0.71
-0.56
-1.83
-3.04
-4.10
-4.94
-5.61
-6.19
-6.80
-7.47
-8.15
-8.77
-9.30
-9.79
-10.29
-10.89
-11.55
-12.17
-12.60
-12.72
-12.46
-11.82
-10.79
-9.37
-7.57
-5.45
-3.14
-0.83
1.29
3.13
4.71
6.16
7.59
9.01
10.32
11.37
12.01
12.27
12.24
12.15
12.15
12.34
12.67
13.06
13.41
13.68
13.84
13.89
13.84
13.70
13.50
13.25
12.99
12.70
12.37
11.96
11.43
10.82
10.17
9.53
8.88
8.11
7.01
5.41
3.22
0.55
-2.35
-5.18
-7.65
-9.61
-11.02
-11.91
-12.32
-12.26
-11.78
-11.02
-10.16
-9.42
-8.92
-8.68
-8.57
-8.39
-8.04
-7.51
-6.86
-6.20
-5.61
-5.09
-4.62
-4.20
-3.82
-3.54
-3.35
-3.24
-3.17
-3.11
-3.07
-3.12
-3.33
-3.74
-4.30
-4.87
-5.30
-5.47
-5.30
-4.83
-4.19
-3.49
-2.82
-2.15
-1.38
-0.39
0.90
2.40
3.93
5.24
6.17
6.73
7.10
7.56
8.36
9.68
11.51
13.78
16.32
18.98
21.66
24.28
26.82
29.28
31.67
33.89
35.73
36.85
36.81
35.25
31.94
26.97
20.74
13.94
7.39
1.87
-2.04
-4.16
-4.64
-3.86
-2.31
-0.47
1.31
2.77
3.75
4.19
4.13
3.75
3.27
2.77
2.08
0.86
-1.14
-3.76
-6.36
-8.03
-8.07
-6.42
-3.81
-1.50
-0.67
-1.94
-5.16
-9.58
-14.34
-18.74
-22.46
-25.38
-27.46
-28.60
-28.76
-28.02
-26.65
-24.99
-23.35
-21.91
-20.63
-19.37
-17.92
-16.16
-14.03
-11.55
-8.78
-5.83
-2.84
0.06
2.75
5.23
7.50
9.58
11.34
12.51
12.70
11.57
9.01
5.16
0.42
-4.70
-9.73
-14.33
-18.30
-21.56
-24.10
-25.97
-27.23
-27.99
-28.39
-28.58
-28.66
-28.67
-28.63
-28.52
-28.34
-28.07
-27.67
-27.11
-26.32
-25.31
-24.11
-22.82
-21.59
-20.54
-19.76
-19.20
-18.74
-18.16
-17.25
-15.82
-13.79
-11.16
-8.00
-4.36
-0.24
4.41
9.63
15.32
21.20
26.90
32.12
36.79
41.12
45.45
50.03
54.81
59.42
63.25
65.72
66.48
65.42
62.67
58.42
52.88
46.30
38.96
31.21
23.40
15.82
8.63
1.89
-4.40
-10.19
-15.40
-19.89
-23.49
-26.05
-27.44
-27.58
-26.47
-24.25
-21.22
-17.72
-14.11
-10.51
-6.81
-2.72
2.12
7.94
14.66
21.93
29.15
35.62
40.74
44.04
45.25
44.28
41.21
36.22
29.63
21.81
13.28
4.63
-3.46
-10.33
-15.44
-18.55
-19.73
-19.36
-18.03
-16.32
-14.66
-13.23
-12.01
-10.82
-9.54
-8.12
-6.68
-5.42
-4.56
-4.24
-4.50
-5.16
-5.95
-6.49
-6.50
-5.82
-4.49
-2.75
-0.90
0.72
1.90
2.55
2.64
2.31
1.82
1.62
2.19
3.84
6.53
9.84
13.12
15.67
16.96
16.79
15.29
12.81
9.76
6.60
3.89
2.09
1.33
1.35
1.58
1.62
1.29
0.70
0.09
-0.06
0.50
1.60
2.79
3.68
4.60
5.93
7.81
9.83
11.81
13.58
15.02
16.04
16.73
17.75
19.29
20.88
21.56
21.54
21.87
23.86
28.51
36.12
46.80
59.39
71.65
80.74
85.56
86.18
83.27
77.53
64.54
43.70
18.50
-3.18
-20.78
-35.25
-47.38
-57.18
-64.77
-70.47
-73.89
-75.01
-74.34
-72.99
-71.10
-68.52
-65.35
-61.93
-58.59
-54.93
-50.75
-46.34
-42.63
-39.79
-37.74
-36.27
-35.23
-34.45
-33.53
-32.40
-31.44
-31.31
-32.04
-33.28
-34.57
-35.51
-35.73
-34.85
-32.58
-28.77
-23.50
-16.86
-9.21
-1.18
6.47
13.13
18.31
21.68
22.99
22.15
19.36
15.06
9.84
4.17
-0.72
-3.97
-5.47
-5.78
-5.64
-5.56
-5.95
-7.18
-9.22
-11.30
-12.03
-9.89
-4.03
5.26
16.63
28.36
39.04
48.15
55.23
59.42
59.67
55.37
46.99
36.24
25.54
17.07
11.91
9.77
9.45
9.67
9.69
9.42
9.06
8.64
8.12
7.14
5.40
2.98
0.46
-1.32
-1.71
-0.53
1.80
4.39
6.27
6.75
5.54
2.85
-0.87
-5.09
-9.33
-13.22
-16.48
-18.92
-20.46
-21.08
-20.82
-19.83
-18.31
-16.47
-14.53
-12.63
-10.79
-8.94
-6.90
-4.51
-1.80
0.98
3.38
4.92
5.31
4.52
2.81
0.67
-1.37
-2.81
-3.29
-2.60
-0.81
1.75
4.50
6.73
7.81
7.40
5.48
2.37
-1.46
-5.50
-9.33
-12.62
-15.16
-16.83
-17.58
-17.49
-16.70
-15.38
-13.63
-11.38
-8.46
-4.70
-0.16
4.79
9.47
13.03
14.77
14.32
11.83
7.92
3.41
-0.85
-4.26
-6.45
-7.36
-7.04
-5.65
-3.35
-0.35
3.06
6.56
9.74
12.18
13.53
13.54
12.19
9.67
6.33
2.59
-1.12
-4.41
-6.87
-8.10
-7.71
-5.53
-1.74
3.05
7.91
11.87
14.20
14.67
13.45
11.00
7.71
3.80
-0.70
-5.68
-10.79
-15.33
-18.40
-19.16
-17.20
-12.67
-6.28
0.87
7.63
13.00
16.34
17.37
16.21
13.44
9.96
6.92
5.40
6.07
8.97
13.48
18.59
23.35
27.21
30.22
32.83
35.56
38.65
41.98
45.03
47.19
47.91
46.98
44.55
41.19
37.70
34.93
33.42
33.14
33.48
33.38
31.76
27.90
21.72
13.69
4.65
-4.52
-13.09
-20.52
-26.52
-31.04
-34.24
-36.46
-38.24
-40.06
-42.29
-44.96
-47.76
-50.16
-51.54
-51.45
-49.74
-46.62
-42.59
-38.26
-34.21
-30.79
-28.12
-25.98
-24.01
-21.76
-18.88
-15.26
-11.07
-6.75
-2.85
0.12
1.90
2.49
2.17
1.33
0.46
-0.02
0.28
1.57
3.85
6.90
10.26
13.40
15.78
17.02
16.94
15.51
12.90
9.46
5.60
1.77
-1.65
-4.40
-6.36
-7.43
-7.56
-6.67
-4.79
-2.08
1.08
4.24
6.92
8.81
9.78
9.92
9.43
8.53
7.47
6.43
5.55
4.91
4.53
4.36
4.31
4.23
3.93
3.23
1.99
0.23
-1.89
-4.05
-5.92
-7.23
-7.86
-7.87
-7.45
-6.78
-5.88
-4.66
-3.10
-1.30
0.43
1.64
1.83
0.58
-2.28
-6.50
-11.57
-16.81
-21.58
-25.41
-28.03
-29.46
-30.07
-30.29
-30.39
-30.44
-30.42
-30.24
-29.78
-28.98
-27.89
-27.27
-27.67
-29.11
-31.14
-33.24
-35.03
-36.31
-37.03
-37.35
-38.52
-41.17
-44.80
-48.20
-50.41
-51.15
-50.60
-49.19
-47.35
-47.17
-49.74
-54.47
-59.92
-65.18
-70.20
-75.13
-79.72
-83.23
-87.07
-91.98
-97.38
-102.08
-105.45
-107.08
-106.03
-100.74
-76.35
-29.35
30.41
87.33
131.68
161.63
179.00
185.70
182.72
170.94
149.90
121.82
91.98
66.46
49.04
40.16
37.87
38.77
41.09
41.96
40.10
36.26
32.28
29.43
27.90
27.20
26.80
26.50
25.27
22.87
20.07
17.96
16.96
16.71
16.71
16.49
16.02
14.95
13.31
11.63
10.51
10.26
10.81
11.87
13.12
14.35
15.10
15.00
13.87
11.67
8.43
4.26
-0.56
-5.58
-10.23
-14.07
-16.92
-18.82
-20.05
-20.94
-21.77
-22.71
-23.82
-25.08
-26.44
-27.89
-29.35
-30.68
-31.74
-32.37
-32.52
-32.21
-31.56
-30.68
-29.64
-28.53
-27.39
-26.27
-25.10
-23.74
-21.93
-19.43
-16.14
-12.20
-7.93
-3.67
0.28
3.87
7.16
10.32
13.46
16.58
19.55
22.11
23.98
24.91
24.82
23.80
22.17
20.33
18.64
17.27
16.21
15.28
14.30
13.21
12.07
11.02
10.20
9.58
9.05
8.44
7.65
6.66
5.54
4.36
3.15
2.01
1.04
0.45
0.39
0.90
1.77
2.67
3.23
3.29
2.94
2.47
2.19
2.10
1.91
1.02
-1.07
-4.42
-8.44
-11.96
-13.76
-13.05
-9.91
-5.21
-0.22
3.99
6.89
8.52
9.15
9.02
8.18
6.74
5.00
3.59
3.16
3.98
5.62
7.10
7.38
5.90
2.93
-0.57
-3.44
-4.73
-4.08
-1.65
2.12
6.71
11.61
16.20
19.82
21.92
22.32
21.42
20.15
19.49
20.12
22.02
24.63
27.09
28.63
28.76
27.29
24.31
20.07
15.04
9.85
5.26
1.95
0.27
0.11
0.89
1.78
1.98
0.98
-1.33
-4.69
-8.64
-12.58
-15.84
-17.67
-17.33
-14.27
-8.36
-0.15
9.27
18.51
26.25
31.51
33.73
32.62
28.13
20.43
10.25
-1.03
-11.44
-18.80
-21.41
-18.58
-10.91
0.01
12.17
23.74
33.36
39.99
42.70
40.54
32.84
19.81
3.02
-14.65
-29.55
-38.45
-39.61
-33.36
-21.90
-8.41
4.03
13.28
18.44
19.63
17.57
13.29
7.90
2.50
-1.87
-4.44
-4.86
-3.39
-0.72
2.29
4.98
7.12
8.88
10.49
12.03
13.26
13.90
13.78
13.04
12.13
11.62
12.05
13.79
16.96
21.43
26.72
31.96
35.86
37.06
34.74
29.08
21.58
14.63
10.63
11.09
15.80
22.92
29.76
33.84
33.69
29.13
20.85
9.86
-2.57
-15.44
-27.97
-39.47
-49.26
-56.81
-61.83
-64.50
-65.25
-63.93
-60.52
-55.27
-48.68
-41.21
-33.22
-24.87
-16.42
-8.30
-0.01
8.71
17.78
26.92
36.10
45.40
55.07
64.79
73.80
82.52
91.00
98.88
105.41
110.01
112.24
112.15
109.51
97.12
72.70
40.12
7.01
-20.60
-39.72
-53.29
-63.93
-73.52
-83.35
-91.79
-97.59
-100.41
-100.81
-99.44
-96.91
-93.39
-89.15
-84.60
-79.25
-73.06
-66.45
-59.86
-52.99
-45.03
-34.95
-22.66
-9.40
2.92
11.33
12.79
4.83
-11.93
-33.58
-54.60
-70.33
-77.78
-75.48
-63.92
-45.39
-23.45
-1.94
15.79
27.65
33.02
32.80
28.89
23.31
17.67
12.96
9.77
8.27
8.32
9.70
12.20
15.70
19.91
24.26
27.87
29.88
29.62
26.89
22.39
16.95
11.83
8.16
6.68
7.41
9.67
12.20
13.57
12.75
9.51
4.72
0.05
-2.39
-0.74
6.04
17.40
31.28
44.54
53.72
56.06
50.26
36.89
18.30
-2.05
-20.55
-34.40
-42.20
-44.13
-41.51
-36.23
-30.10
-24.37
-19.65
-16.05
-13.44
-11.65
-10.52
-9.86
-9.38
-8.81
-8.06
-7.38
-7.09
-7.54
-8.87
-10.84
-12.92
-14.41
-14.71
-13.43
-10.50
-6.19
-1.17
3.72
7.69
10.25
11.41
11.53
11.12
10.52
9.77
8.71
7.16
5.14
2.92
0.88
-0.63
-1.44
-1.60
-1.34
-0.90
-0.52
-0.33
-0.38
-0.63
-0.94
-1.14
-1.08
-0.72
-0.12
0.53
1.09
1.44
1.57
1.62
1.76
2.13
2.74
3.65
4.95
6.61
8.33
9.45
9.15
6.83
2.49
-3.15
-8.94
-13.88
-17.53
-20.14
-22.30
-24.51
-26.85
-28.98
-30.52
-31.38
-31.88
-32.58
-33.91
-35.87
-37.97
-39.47
-39.55
-37.71
-33.87
-28.31
-21.50
-13.88
-5.63
3.25
12.81
22.99
33.40
43.51
52.77
60.85
67.75
73.65
78.72
82.90
86.02
87.85
88.27
87.29
84.93
81.16
75.83
68.77
60.02
50.01
39.52
29.42
20.32
12.34
5.25
-1.44
-8.14
-15.10
-22.12
-28.81
-34.73
-39.64
-43.53
-46.42
-48.46
-49.86
-51.08
-52.26
-53.46
-54.61
-55.71
-56.75
-57.37
-57.17
-55.97
-54.22
-52.22
-50.29
-48.76
-47.98
-48.16
-48.84
-49.42
-49.76
-50.66
-52.26
-54.11
-55.03
-53.60
-48.49
-38.39
-23.02
-3.66
16.63
35.44
51.22
63.38
71.88
73.32
65.88
51.24
38.23
29.78
26.80
27.95
32.43
38.92
45.75
51.80
56.36
58.90
58.53
55.58
50.87
45.27
39.06
32.23
25.34
19.23
14.74
11.87
10.80
11.40
13.17
15.20
16.69
17.48
17.80
17.82
17.08
15.22
11.96
7.32
1.52
-4.90
-11.26
-17.05
-22.10
-26.74
-31.17
-35.38
-39.12
-42.08
-43.96
-44.70
-44.49
-43.61
-42.37
-40.91
-39.24
-37.25
-34.88
-32.13
-29.16
-26.14
-22.96
-19.32
-14.99
-9.96
-4.83
-0.90
1.53
2.82
3.15
3.05
3.09
3.69
5.09
7.40
10.73
15.15
20.35
25.58
29.95
32.59
32.98
31.15
27.65
23.30
19.00
15.26
12.23
9.92
8.14
6.70
5.40
4.04
2.41
0.38
-2.15
-5.15
-8.25
-10.98
-12.97
-14.05
-14.39
-14.35
-14.33
-14.57
-15.10
-15.52
-15.34
-14.10
-11.47
-7.27
-1.64
4.98
11.86
18.11
23.10
26.44
28.12
28.67
28.92
29.77
31.72
34.71
38.09
41.11
42.90
42.77
40.57
36.73
32.16
27.97
25.27
23.57
22.74
22.11
20.05
14.62
4.71
-9.18
-25.03
-39.98
-52.50
-61.60
-67.03
-69.32
-69.35
-67.97
-65.85
-63.54
-61.75
-59.58
-57.04
-54.48
-52.26
-50.55
-49.15
-47.74
-45.99
-43.82
-41.46
-39.36
-37.97
-37.54
-38.06
-39.21
-40.46
-41.16
-40.60
-38.00
-32.72
-24.29
-12.66
1.52
16.96
32.12
45.71
57.11
66.56
74.78
82.70
90.88
99.06
106.22
111.09
112.89
111.65
108.22
103.68
99.04
94.69
90.13
84.01
74.95
62.32
46.42
28.31
9.45
-8.43
-23.47
-34.05
-39.21
-38.71
-33.33
-25.37
-18.51
-17.58
-26.70
-45.48
-68.30
-87.79
-98.94
-100.56
-94.62
-84.33
-72.51
-60.55
-48.55
-36.41
-24.92
-15.35
-8.72
-5.19
-3.70
-2.39
0.77
7.36
17.68
30.33
43.28
55.11
64.42
70.64
73.78
74.11
71.94
67.48
60.38
50.79
39.42
27.37
15.93
6.03
-2.01
-8.54
-14.51
-21.57
-30.77
-42.13
-54.45
-65.52
-72.94
-75.00
-71.53
-61.10
-45.38
-27.30
-9.85
4.92
16.43
25.07
31.42
35.54
36.80
33.96
26.72
16.22
5.03
-3.72
-7.66
-6.05
-0.11
7.41
12.97
13.85
9.11
-0.13
-11.06
-20.18
-24.39
-21.87
-12.43
2.56
20.96
40.41
58.73
74.04
84.89
90.40
90.51
86.12
78.97
71.24
64.95
61.16
59.65
59.05
57.48
53.30
45.79
35.25
22.88
10.19
-1.42
-11.08
-18.45
-23.64
-27.07
-29.32
-31.03
-32.78
-34.98
-37.73
-40.89
-44.06
-46.81
-48.79
-49.90
-50.33
-50.48
-50.81
-51.62
-52.94
-54.56
-56.16
-57.53
-58.57
-59.39
-60.02
-60.38
-60.22
-59.21
-57.11
-53.92
-49.92
-45.52
-41.15
-37.06
-33.21
-29.36
-25.11
-20.17
-14.47
-8.22
-1.88
4.02
9.01
12.78
15.20
16.37
16.49
15.89
14.88
13.64
12.21
10.54
8.59
6.53
4.74
3.69
3.59
4.21
4.79
4.46
2.66
-0.47
-4.09
-7.04
-8.43
-7.97
-6.01
-3.14
0.20
3.93
8.21
13.03
17.99
22.24
24.93
25.64
24.67
22.96
21.57
21.19
21.75
22.49
22.30
20.28
16.19
10.55
4.41
-1.15
-5.45
-8.41
-10.33
-11.53
-12.07
-11.68
-10.00
-7.01
-3.30
0.06
1.92
1.51
-1.19
-5.54
-10.57
-15.37
-19.40
-22.45
-24.53
-25.68
-25.98
-25.52
-24.50
-23.23
-22.07
-21.27
-20.90
-20.80
-20.71
-20.38
-19.79
-19.14
-18.92
-19.69
-21.88
-25.55
-30.29
-35.27
-39.52
-42.12
-42.59
-40.95
-37.74
-33.89
-30.47
-28.30
-27.75
-28.54
-29.94
-31.00
-31.00
-29.58
-26.74
-22.60
-17.06
-9.82
-0.65
10.24
21.92
32.97
42.05
48.44
52.37
54.83
56.93
59.28
61.73
63.42
63.36
60.79
55.46
47.59
37.81
27.02
16.49
7.74
2.22
0.94
3.94
10.14
17.64
24.24
28.21
28.79
26.36
22.19
17.88
14.70
13.25
13.30
14.19
15.29
16.47
18.09
20.74
24.68
29.53
34.33
37.97
39.70
39.34
37.22
33.86
29.68
24.90
19.65
14.05
8.41
3.20
-0.98
-3.43
-3.66
-1.59
2.19
6.53
10.02
11.59
10.87
8.37
5.09
2.04
-0.22
-1.64
-2.57
-3.34
-4.09
-4.57
-4.29
-2.68
0.61
5.59
11.82
18.59
25.23
31.26
36.47
40.56
43.06
43.24
40.52
34.91
27.26
18.97
11.38
5.21
0.34
-3.84
-7.92
-12.01
-15.75
-18.60
-20.22
-20.60
-19.91
-18.35
-15.94
-12.58
-8.24
-3.18
2.07
6.73
9.93
11.03
9.70
6.15
1.12
-4.33
-9.11
-12.45
-14.09
-14.24
-13.38
-11.97
-10.26
-8.29
-6.02
-3.46
-0.77
1.73
3.66
4.68
4.62
3.47
1.42
-1.29
-4.41
-7.80
-11.45
-15.43
-19.72
-24.20
-28.58
-32.54
-35.83
-38.42
-40.42
-42.01
-43.28
-44.30
-45.12
-45.90
-46.91
-48.44
-50.66
-53.52
-56.79
-60.14
-63.30
-66.13
-68.60
-70.77
-72.70
-74.41
-75.87
-77.00
-77.65
-77.76
-77.36
-76.69
-76.09
-75.86
-76.02
-76.23
-75.71
-73.44
-68.25
-59.12
-45.52
-27.76
-7.25
13.62
32.03
45.66
53.43
55.84
54.53
51.42
47.87
44.41
41.05
37.83
35.22
33.96
34.53
36.69
39.52
41.81
42.70
41.94
39.74
36.39
31.89
26.10
19.03
11.27
3.97
-1.50
-4.13
-3.63
-0.48
4.41
10.11
15.93
21.46
26.43
30.62
33.88
36.20
37.82
39.12
40.41
41.83
43.24
44.36
44.90
44.67
43.60
41.76
39.37
36.78
34.44
32.81
32.16
32.42
33.21
33.93
34.10
33.55
32.50
31.38
30.53
29.91
28.96
26.82
22.66
16.04
7.19
-3.06
-13.53
-23.05
-30.85
-36.65
-40.66
-43.29
-44.93
-45.86
-46.17
-45.89
-45.06
-43.77
-42.14
-40.27
-38.19
-35.80
-33.01
-29.75
-26.07
-22.18
-18.42
-15.10
-12.46
-10.54
-9.22
-8.25
-7.38
-6.38
-5.15
-3.72
-2.23
-0.88
0.12
0.62
0.61
0.17
-0.50
-1.13
-1.46
-1.32
-0.58
0.72
2.45
4.38
6.22
7.74
8.81
9.41
9.61
9.47
9.05
8.38
7.47
6.39
5.16
3.82
2.32
0.60
-1.37
-3.59
-5.87
-7.96
-9.53
-10.28
-10.03
-8.74
-6.58
-3.78
-0.65
2.57
5.79
9.04
12.48
16.25
20.39
24.74
28.93
32.47
34.85
35.72
34.91
32.53
28.84
24.23
19.13
13.97
9.18
5.15
2.20
0.50
0.12
0.95
2.79
5.34
8.28
11.22
13.76
15.54
16.26
15.82
14.29
11.94
9.11
6.13
3.27
0.69
-1.57
-3.53
-5.30
-7.02
-8.83
-10.86
-13.06
-15.26
-17.08
-18.13
-18.09
-16.88
-14.60
-11.51
-7.93
-4.10
-0.25
3.46
6.84
9.66
11.73
12.89
13.13
12.64
11.81
11.05
10.77
11.15
12.11
13.36
14.52
15.31
15.64
15.62
15.40
15.10
14.71
14.13
13.31
12.27
11.15
10.10
9.21
8.48
7.83
7.15
6.32
5.25
3.89
2.21
0.30
-1.70
-3.56
-5.11
-6.20
-6.79
-6.83
-6.29
-5.08
-3.17
-0.64
2.25
5.06
7.37
8.90
9.60
9.67
9.40
9.05
8.79
8.72
8.90
9.42
10.33
11.60
13.05
14.38
15.30
15.57
15.17
14.16
12.71
10.94
8.94
6.81
4.65
2.57
0.65
-1.09
-2.68
-4.17
-5.56
-6.80
-7.82
-8.58
-9.11
-9.44
-9.61
-9.62
-9.52
-9.40
-9.47
-9.99
-11.09
-12.71
-14.53
-16.13
-17.08
-17.13
-16.26
-14.66
-12.63
-10.53
-8.67
-7.21
-6.12
-5.09
-3.68
-1.43
1.85
5.99
10.50
14.79
18.39
21.18
23.31
25.01
26.39
27.36
27.69
27.25
26.05
24.37
22.52
20.76
19.12
17.43
15.47
13.11
10.40
7.63
5.17
3.34
2.24
1.73
1.43
0.92
-0.11
-1.71
-3.65
-5.53
-6.95
-7.70
-7.81
-7.58
-7.45
-7.80
-8.79
-10.28
-11.88
-13.01
-13.14
-11.97
-9.48
-5.96
-1.90
2.09
5.48
7.92
9.29
9.76
9.67
9.43
9.36
9.61
10.17
10.99
12.02
13.30
14.93
17.00
19.52
22.35
25.08
27.14
27.74
26.11
21.74
14.66
5.60
-4.16
-13.04
-19.71
-23.32
-23.75
-21.40
-16.94
-11.05
-4.31
2.70
9.34
14.88
18.72
20.55
20.54
19.21
17.17
14.82
12.23
9.24
5.67
1.56
-2.74
-6.77
-10.09
-12.46
-13.94
-14.72
-15.06
-15.14
-15.09
-14.93
-14.67
-14.29
-13.73
-12.93
-11.83
-10.43
-8.81
-7.16
-5.68
-4.54
-3.78
-3.33
-3.04
-2.80
-2.67
-2.90
-3.87
-5.95
-9.36
-14.04
-19.59
-25.36
-30.49
-34.08
-35.51
-34.70
-32.29
-29.57
-28.09
-29.14
-33.29
-40.15
-48.58
-57.12
-64.58
-70.39
-74.67
-77.98
-80.97
-84.04
-87.01
-89.06
-89.06
-85.96
-79.31
-69.48
-57.64
-45.40
-34.36
-25.30
-17.77
-10.37
-1.31
10.99
27.42
47.74
70.39
92.30
109.91
120.08
120.87
112.01
95.27
74.04
52.26
33.12
17.67
5.64
-3.61
-10.76
-16.32
-20.62
-23.97
-26.91
-30.24
-35.12
-41.55
-47.87
-51.84
-51.84
-47.06
-37.33
-22.74
-0.32
27.91
54.77
72.24
76.22
67.55
50.64
31.33
14.70
3.40
-3.26
-8.14
-12.33
-15.61
-17.47
-17.54
-16.06
-14.00
-12.65
-13.45
-16.56
-20.64
-22.84
-21.58
-16.60
-8.81
0.21
8.88
15.82
20.61
23.86
26.42
28.72
30.88
32.80
34.34
35.33
35.46
34.55
32.68
30.05
26.79
23.13
19.40
15.94
12.97
10.51
8.49
6.84
5.47
4.15
2.66
0.83
-1.40
-3.95
-6.56
-8.82
-10.31
-10.76
-10.15
-8.75
-7.06
-5.73
-5.51
-7.05
-10.70
-16.31
-23.18
-30.15
-35.92
-39.54
-40.68
-39.65
-37.06
-33.37
-28.58
-22.25
-13.94
-3.59
8.10
19.86
30.18
37.86
42.26
43.39
41.62
37.48
31.49
24.15
16.11
8.08
0.83
-5.02
-9.20
-11.73
-12.92
-13.20
-12.96
-12.44
-11.78
-11.00
-10.15
-9.29
-8.55
-8.07
-7.89
-7.90
-7.86
-7.53
-6.84
-5.89
-5.00
-4.44
-4.36
-4.65
-5.03
-5.16
-4.85
-4.00
-2.67
-0.96
0.96
2.80
4.24
4.93
4.67
3.53
1.88
0.27
-0.76
-0.84
0.08
1.81
3.96
6.15
8.11
9.71
10.95
11.95
12.84
13.72
14.65
15.62
16.63
17.70
18.90
20.28
21.88
23.63
25.34
26.79
27.73
28.05
27.77
27.07
26.19
25.35
24.66
24.10
23.61
23.11
22.59
22.07
21.58
21.04
20.32
19.26
17.76
15.83
13.51
10.82
7.70
4.08
-0.04
-4.43
-8.62
-11.97
-13.91
-14.23
-13.10
-11.10
-8.92
-7.13
-6.00
-5.43
-5.09
-4.58
-3.66
-2.28
-0.63
1.06
2.65
4.17
5.81
7.76
10.04
12.46
14.67
16.31
17.15
17.12
16.16
14.11
10.64
5.38
-1.92
-11.19
-22.04
-33.82
-45.81
-57.38
-67.91
-76.88
-83.71
-87.88
-89.01
-86.99
-82.08
-74.88
-66.17
-56.78
-47.39
-38.50
-30.39
-23.26
-17.20
-12.30
-8.54
-5.74
-3.60
-1.73
0.17
2.21
4.28
6.12
7.55
8.54
9.23
9.85
10.57
11.38
12.16
12.76
13.10
13.23
13.26
13.25
13.20
13.00
12.54
11.78
10.76
9.57
8.36
7.22
6.19
5.23
4.24
3.10
1.73
0.15
-1.54
-3.19
-4.62
-5.69
-6.28
-6.37
-5.97
-5.13
-3.94
-2.50
-0.93
0.69
2.28
3.82
5.27
6.58
7.73
8.66
9.38
9.87
10.15
10.19
10.00
9.56
8.91
8.09
7.23
6.43
5.81
5.43
5.26
5.18
5.04
4.71
4.12
3.33
2.44
1.58
0.83
0.19
-0.40
-1.02
-1.74
-2.56
-3.45
-4.34
-5.18
-5.91
-6.57
-7.20
-7.89
-8.71
-9.67
-10.72
-11.68
-12.34
-12.48
-11.98
-10.84
-9.21
-7.32
-5.40
-3.63
-2.05
-0.61
0.78
2.21
3.68
5.15
6.52
7.68
8.57
9.14
9.45
9.57
9.61
9.63
9.70
9.77
9.78
9.69
9.45
9.09
8.64
8.12
7.57
7.00
6.45
5.96
5.59
5.36
5.20
5.01
4.66
4.06
3.25
2.31
1.42
0.67
0.10
-0.34
-0.76
-1.27
-1.94
-2.77
-3.73
-4.74
-5.75
-6.72
-7.70
-8.72
-9.83
-10.98
-12.00
-12.61
-12.49
-11.49
-9.64
-7.26
-4.74
-2.47
-0.66
0.71
1.82
2.85
3.96
5.15
6.34
7.42
8.27
8.86
9.23
9.44
9.56
9.62
9.62
9.57
9.45
9.31
9.19
9.14
9.14
9.13
8.98
8.64
8.13
7.56
7.06
6.73
6.58
6.57
6.59
6.55
6.36
5.95
5.31
4.45
3.45
2.42
1.49
0.73
0.12
-0.43
-1.04
-1.79
-2.73
-3.80
-4.98
-6.22
-7.45
-8.57
-9.47
-10.00
-10.10
-9.72
-8.90
-7.73
-6.29
-4.70
-3.08
-1.52
-0.13
1.05
2.01
2.78
3.37
3.81
4.11
4.29
4.41
4.50
4.60
4.72
4.84
4.90
4.90
4.83
4.74
4.69
4.73
4.84
4.99
5.12
5.17
5.14
5.07
5.00
4.98
5.03
5.14
5.30
5.47
5.62
5.64
5.45
4.97
4.21
3.23
2.18
1.21
0.41
-0.20
-0.72
-1.31
-2.12
-3.27
-4.70
-6.19
-7.44
-8.13
-8.07
-7.29
-6.01
-4.50
-2.98
-1.57
-0.24
1.02
2.22
3.23
3.95
4.32
4.39
4.30
4.19
4.13
4.12
4.11
4.04
3.96
3.91
3.96
4.08
4.22
4.27
4.19
3.99
3.75
3.54
3.40
3.32
3.24
3.10
2.90
2.66
2.43
2.21
1.95
1.61
1.09
0.37
-0.51
-1.46
-2.34
-3.01
-3.38
-3.48
-3.45
-3.51
-3.81
-4.45
-5.39
-6.49
-7.57
-8.49
-9.22
-9.78
-10.21
-10.50
-10.53
-10.17
-9.30
-7.94
-6.19
-4.29
-2.46
-0.87
0.42
1.43
2.21
2.83
3.32
3.74
4.14
4.56
4.98
5.32
5.51
5.51
5.36
5.15
5.02
5.03
5.18
5.39
5.57
5.66
5.64
5.55
5.42
5.27
5.10
4.94
4.80
4.67
4.55
4.40
4.18
3.86
3.48
3.04
2.62
2.22
1.85
1.47
1.01
0.45
-0.23
-1.00
-1.84
-2.69
-3.54
-4.38
-5.23
-6.05
-6.82
-7.44
-7.80
-7.80
-7.33
-6.38
-5.00
-3.34
-1.60
0.02
1.34
2.31
2.92
3.21
3.25
3.10
2.87
2.66
2.58
2.72
3.05
3.48
3.86
4.06
4.04
3.85
3.64
3.54
3.63
3.92
4.28
4.54
4.56
4.25
3.66
2.86
1.97
1.02
-0.01
-1.19
-2.53
-3.91
-5.13
-6.00
-6.43
-6.50
-6.44
-6.49
-6.85
-7.53
-8.47
-9.52
-10.56
-11.52
-12.29
-12.77
-12.80
-12.23
-11.00
-9.19
-7.00
-4.73
-2.62
-0.84
0.60
1.77
2.79
3.74
4.68
5.62
6.57
7.49
8.31
8.93
9.27
9.29
9.06
8.70
8.34
8.10
7.97
7.89
7.81
7.71
7.64
7.63
7.67
7.70
7.62
7.36
6.95
6.45
5.90
5.33
4.71
4.03
3.30
2.57
1.86
1.16
0.42
-0.37
-1.21
-2.04
-2.80
-3.46
-4.04
-4.65
-5.32
-6.06
-6.80
-7.40
-7.73
-7.70
-7.28
-6.54
-5.58
-4.56
-3.62
-2.84
-2.19
-1.61
-0.98
-0.21
0.73
1.79
2.85
3.74
4.28
4.39
4.12
3.64
3.17
2.91
2.91
3.07
3.23
3.25
3.12
2.95
2.87
2.94
3.09
3.17
3.02
2.64
2.12
1.64
1.33
1.24
1.23
1.16
0.90
0.42
-0.18
-0.78
-1.29
-1.70
-2.08
-2.51
-3.00
-3.51
-3.97
-4.35
-4.69
-5.10
-5.69
-6.44
-7.28
-7.97
-8.28
-8.06
-7.24
-5.93
-4.33
-2.64
-1.07
0.26
1.35
2.22
2.96
3.61
4.17
4.61
4.92
5.09
5.20
5.31
5.44
5.59
5.68
5.69
5.59
5.41
5.21
5.03
4.88
4.77
4.62
4.39
4.03
3.55
3.00
2.50
2.14
1.95
1.88
1.81
1.61
1.20
0.59
-0.12
-0.81
-1.40
-1.89
-2.32
-2.76
-3.29
-3.95
-4.75
-5.64
-6.54
-7.33
-7.89
-8.09
-7.88
-7.22
-6.17
-4.86
-3.51
-2.30
-1.38
-0.76
-0.36
0.01
0.48
1.15
1.94
2.72
3.35
3.75
3.94
4.01
4.06
4.15
4.25
4.31
4.25
4.04
3.72
3.39
3.14
3.02
3.02
3.02
2.92
2.66
2.26
1.82
1.47
1.25
1.14
1.03
0.81
0.42
-0.14
-0.79
-1.47
-2.11
-2.75
-3.39
-4.04
-4.67
-5.23
-5.69
-6.02
-6.24
-6.37
-6.41
-6.33
-6.07
-5.60
-4.87
-3.91
-2.80
-1.67
-0.62
0.34
1.32
2.49
3.98
5.78
7.69
9.40
10.60
11.15
11.08
10.59
9.91
9.24
8.67
8.18
7.71
7.15
6.46
5.56
4.44
3.08
1.49
-0.32
-2.30
-4.37
-6.43
-8.39
-10.20
-11.86
-13.42
-14.92
-16.34
-17.56
-18.44
-18.85
-18.78
-18.34
-17.69
-16.99
-16.30
-15.59
-14.77
-13.78
-12.57
-11.19
-9.68
-8.10
-6.44
-4.72
-2.97
-1.25
0.36
1.79
3.02
4.07
4.98
5.77
6.48
7.12
7.73
8.31
8.82
9.20
9.39
9.33
9.04
8.61
8.20
7.98
7.97
8.12
8.20
8.03
7.44
6.45
5.20
3.92
2.79
1.99
1.56
1.46
1.57
1.66
1.50
0.91
-0.14
-1.52
-2.95
-4.12
-4.90
-5.32
-5.63
-6.09
-6.87
-7.96
-9.16
-10.18
-10.77
-10.76
-10.12
-8.91
-7.27
-5.38
-3.40
-1.44
0.39
2.03
3.42
4.53
5.32
5.84
6.19
6.51
6.92
7.48
8.15
8.77
9.21
9.34
9.17
8.79
8.40
8.15
8.14
8.34
8.63
8.84
8.85
8.59
8.09
7.43
6.67
5.90
5.15
4.40
3.60
2.70
1.63
0.40
-0.88
-2.08
-3.08
-3.81
-4.33
-4.80
-5.36
-6.13
-7.09
-8.17
-9.25
-10.19
-10.90
-11.29
-11.30
-10.96
-10.33
-9.49
-8.55
-7.56
-6.61
-5.72
-4.94
-4.30
-3.72
-3.12
-2.36
-1.40
-0.28
0.83
1.76
2.38
2.67
2.79
2.90
3.14
3.54
4.04
4.54
4.94
5.21
5.33
5.28
5.04
4.62
4.07
3.48
2.97
2.62
2.41
2.28
2.09
1.77
1.26
0.58
-0.23
-1.09
-1.95
-2.76
-3.47
-4.10
-4.70
-5.32
-5.96
-6.53
-6.88
-6.88
-6.47
-5.72
-4.82
-3.96
-3.25
-2.68
-2.14
-1.49
-0.65
0.37
1.46
2.46
3.27
3.83
4.20
4.51
4.87
5.31
5.81
6.29
6.69
7.04
7.44
7.96
8.63
9.29
9.77
9.90
9.65
9.11
8.44
7.80
7.25
6.79
6.37
5.92
5.39
4.74
3.95
3.01
1.97
0.92
-0.04
-0.85
-1.54
-2.12
-2.58
-2.89
-2.99
-2.89
-2.71
-2.58
-2.60
-2.73
-2.83
-2.73
-2.30
-1.58
-0.66
0.31
1.27
2.20
3.12
4.02
4.82
5.45
5.85
6.06
6.14
6.15
6.12
6.07
5.96
5.80
5.59
5.36
5.14
4.90
4.61
4.26
3.83
3.38
2.98
2.70
2.54
2.44
2.30
2.02
1.59
1.03
0.45
-0.08
-0.52
-0.92
-1.32
-1.81
-2.40
-3.04
-3.67
-4.23
-4.73
-5.18
-5.64
-6.12
-6.59
-6.96
-7.18
-7.23
-7.17
-7.07
-6.93
-6.71
-6.30
-5.62
-4.66
-3.50
-2.30
-1.21
-0.30
0.45
1.13
1.81
2.53
3.23
3.83
4.28
4.58
4.77
4.92
5.05
5.13
5.12
5.01
4.82
4.63
4.57
4.69
4.97
5.27
5.41
5.22
4.66
3.81
2.83
1.92
1.17
0.58
0.06
-0.51
-1.22
-2.04
-2.92
-3.77
-4.51
-5.12
-5.56
-5.82
-5.95
-6.05
-6.26
-6.68
-7.32
-8.04
-8.58
-8.74
-8.43
-7.74
-6.87
-6.08
-5.48
-5.06
-4.71
-4.29
-3.73
-3.08
-2.44
-1.92
-1.55
-1.26
-0.94
-0.52
-0.06
0.32
0.44
0.24
-0.21
-0.71
-1.05
-1.08
-0.80
-0.36
0.05
0.32
0.38
0.28
0.10
-0.10
-0.21
-0.21
-0.05
0.22
0.58
0.95
1.31
1.66
2.06
2.59
3.29
4.11
4.95
5.68
6.18
6.40
6.38
6.16
5.97
5.98
6.35
7.22
8.63
10.51
12.65
14.78
16.49
17.93
19.30
20.99
23.43
26.89
31.43
36.86
42.85
48.62
53.86
57.70
59.08
57.07
51.14
41.46
28.95
14.98
0.47
-12.97
-24.77
-34.71
-42.67
-48.35
-51.37
-51.53
-49.13
-45.80
-42.32
-40.09
-39.83
-41.21
-43.02
-43.74
-42.27
-34.41
-25.95
-17.20
-8.98
-1.57
5.17
11.33
16.63
20.32
21.65
19.70
15.75
11.13
7.42
5.82
6.68
9.45
13.05
16.35
18.08
18.52
17.69
15.73
12.63
8.35
2.94
-3.21
-9.40
-15.01
-18.84
-20.39
-19.72
-17.39
-14.21
-10.94
-8.04
-5.70
-4.03
-2.85
-2.22
-2.23
-2.90
-4.05
-5.28
-6.13
-6.27
-5.68
-4.51
-3.17
-2.10
-1.66
-2.07
-3.34
-5.30
-7.68
-10.13
-12.32
-13.97
-14.85
-14.75
-13.48
-10.87
-6.77
-1.18
5.72
13.49
21.50
28.99
35.19
39.49
41.58
41.53
39.71
36.66
32.90
28.75
24.32
19.54
14.32
8.66
2.69
-3.39
-9.35
-15.04
-20.41
-25.50
-30.43
-35.35
-40.35
-45.39
-50.27
-54.64
-58.07
-60.23
-61.06
-60.73
-59.69
-58.39
-57.15
-56.06
-54.96
-53.58
-51.55
-48.54
-44.29
-38.73
-32.03
-24.69
-17.52
-11.39
-7.00
-4.51
-3.54
-3.23
-2.62
-1.04
1.74
5.51
9.91
14.59
19.41
24.27
28.97
33.13
36.21
37.73
37.52
35.85
33.35
30.77
28.69
27.34
26.58
26.11
25.64
25.03
24.36
23.81
23.48
23.32
23.08
22.45
21.22
19.38
17.12
14.72
12.37
10.11
7.83
5.40
2.86
0.42
-1.54
-2.79
-3.25
-3.13
-2.73
-2.35
-2.18
-2.32
-2.80
-3.63
-4.76
-6.06
-7.30
-8.26
-8.81
-8.98
-8.97
-9.02
-9.27
-9.66
-9.98
-9.97
-9.43
-8.32
-6.76
-4.99
-3.26
-1.76
-0.64
0.08
0.46
0.61
0.72
0.95
1.40
2.07
2.86
3.60
4.14
4.43
4.49
4.42
4.33
4.29
4.34
4.52
4.83
5.29
5.88
6.59
7.37
8.26
9.36
10.83
12.84
15.48
18.65
22.09
25.36
28.00
29.57
29.79
28.56
25.95
22.10
17.21
11.47
5.14
-1.51
-8.24
-14.92
-21.51
-28.03
-34.53
-40.93
-47.06
-52.57
-57.10
-60.49
-62.73
-63.92
-64.16
-63.59
-62.31
-60.46
-58.11
-55.24
-52.02
-48.38
-43.87
-37.85
-29.90
-20.04
-8.95
2.42
13.13
21.71
27.25
29.82
30.28
29.65
28.79
27.80
26.61
25.09
22.01
16.59
9.12
0.78
-7.28
-14.22
-20.27
-25.70
-30.66
-36.60
-44.53
-54.16
-64.23
-73.50
-81.00
-86.98
-91.66
-86.06
-65.94
-34.77
-1.43
26.81
44.84
56.12
63.30
67.94
70.89
71.60
69.50
65.25
60.56
56.97
55.51
55.66
56.70
58.06
58.30
56.52
52.93
48.60
44.47
41.19
38.39
35.76
33.24
30.23
26.41
22.01
17.72
14.11
11.63
10.08
9.25
9.00
8.80
8.17
6.88
5.07
2.97
0.97
-0.76
-2.05
-2.79
-3.19
-3.57
-4.20
-5.17
-6.43
-7.84
-9.31
-10.79
-12.30
-13.88
-15.54
-17.20
-18.67
-19.74
-20.30
-20.41
-20.26
-20.07
-19.99
-19.90
-19.51
-18.48
-16.57
-13.85
-10.63
-7.37
-4.47
-2.20
-0.57
0.59
1.51
2.47
3.65
5.17
7.03
9.16
11.39
13.55
15.45
16.96
17.97
18.44
18.37
17.81
16.84
15.54
14.00
12.21
10.13
7.70
4.88
1.81
-1.21
-3.68
-5.19
-5.60
-5.10
-4.26
-3.77
-4.17
-5.60
-7.81
-10.23
-12.29
-13.57
-13.95
-13.52
-12.55
-11.46
-10.68
-10.55
-11.15
-12.27
-13.40
-13.83
-12.93
-10.55
-7.12
-3.55
-0.77
0.59
0.41
-0.96
-2.64
-3.56
-2.90
-0.55
2.66
5.09
4.76
0.05
-9.25
-21.26
-32.28
-38.25
-36.37
-26.18
-9.51
10.05
28.32
41.70
48.20
47.64
41.02
29.98
16.42
2.37
-9.41
-15.98
-16.65
-13.20
-7.76
-1.59
4.58
9.49
12.91
14.58
14.51
13.12
11.36
10.20
9.94
9.80
8.87
6.91
4.41
2.08
0.41
-0.59
-1.18
-2.27
-4.73
-8.76
-13.86
-19.65
-26.37
-34.70
-44.89
-53.01
-54.41
-46.06
-28.09
-3.03
25.29
52.66
75.20
90.07
95.78
91.62
78.00
56.92
31.88
7.17
-13.26
-26.91
-33.27
-33.62
-30.58
-26.69
-23.50
-21.44
-20.43
-20.30
-20.92
-21.99
-22.95
-23.31
-22.84
-21.81
-20.24
-18.42
-16.63
-14.88
-12.91
-10.39
-7.29
-3.86
-0.47
2.59
5.14
7.08
8.39
9.12
9.33
9.05
8.38
7.54
6.81
6.29
5.89
5.37
4.68
3.84
2.95
2.15
1.60
1.48
1.85
2.57
3.42
4.36
5.24
5.72
5.34
3.83
1.38
-1.39
-3.52
-3.99
-1.80
3.36
10.85
19.28
27.01
32.57
34.85
33.12
25.54
12.34
-3.61
-17.89
-26.92
-29.63
-27.03
-21.39
-15.15
-10.07
-6.62
-4.52
-3.31
-2.61
-2.30
-2.12
-1.75
-0.83
0.88
3.68
7.52
11.93
16.60
20.70
23.78
25.74
26.76
27.13
27.27
27.38
26.57
24.81
21.84
17.53
12.00
5.71
-0.65
-6.20
-10.15
-12.13
-12.17
-11.02
-9.67
-9.12
-10.06
-12.57
-16.11
-19.77
-22.64
-24.05
-23.94
-22.62
-20.60
-18.44
-16.54
-15.26
-14.49
-14.11
-13.92
-13.84
-13.82
-13.79
-13.59
-12.94
-11.51
-9.06
-5.68
-1.84
1.69
4.21
5.38
5.40
4.81
4.27
4.15
4.33
4.64
5.03
5.79
7.52
10.62
14.86
19.13
21.85
21.83
19.14
15.16
11.80
10.25
10.12
9.74
7.41
2.98
-1.68
-3.61
-0.81
6.11
13.85
18.17
16.33
8.79
-1.04
-8.70
-11.05
-7.85
-1.38
4.98
8.70
9.13
7.36
5.17
3.84
3.57
3.46
2.45
-0.01
-3.60
-7.26
-9.81
-10.61
-9.93
-8.67
-7.93
-8.30
-9.64
-11.17
-11.94
-11.39
-9.60
-7.16
-4.84
-3.19
-2.28
-1.86
-1.50
-0.79
0.46
2.15
3.94
5.39
6.15
6.16
5.66
5.17
5.21
6.08
7.65
9.50
11.03
11.85
11.94
11.60
11.33
11.55
12.36
13.54
14.77
15.78
16.56
17.39
18.55
20.24
22.33
24.47
26.17
27.09
27.08
26.17
24.87
23.40
21.80
19.94
17.69
15.01
12.05
9.11
6.58
4.78
3.78
3.49
3.63
3.86
3.88
3.49
2.68
1.56
0.38
-0.67
-1.43
-1.84
-1.98
-2.01
-2.12
-2.42
-2.92
-3.50
-4.03
-4.39
-4.58
-4.70
-4.97
-5.69
-7.09
-9.27
-12.05
-14.95
-17.31
-18.51
-18.20
-16.50
-13.93
-11.12
-8.61
-6.56
-4.86
-3.24
-1.54
0.19
1.75
2.95
3.69
4.05
4.16
4.10
3.90
3.59
3.25
3.12
3.48
4.55
6.31
8.49
10.65
12.31
13.16
13.10
12.34
11.22
10.13
9.32
8.85
8.62
8.41
8.08
7.54
6.78
5.83
4.69
3.35
1.89
0.47
-0.62
-1.10
-0.87
-0.13
0.73
1.38
1.59
1.34
0.77
0.07
-0.64
-1.26
-1.76
-2.03
-1.91
-1.38
-0.64
-0.16
-0.44
-1.86
-4.51
-8.37
-13.11
-18.23
-23.34
-28.23
-32.88
-37.31
-41.53
-45.63
-50.10
-55.09
-60.28
-65.31
-70.06
-74.66
-79.33
-84.19
-89.29
-95.33
-102.15
-108.71
-113.94
-117.53
-119.77
-121.17
-122.14
-122.87
-124.69
-127.52
-129.85
-130.06
-127.52
-122.55
-115.83
-108.03
-99.75
-93.15
-88.45
-83.74
-76.53
-65.28
-49.63
-30.05
-7.59
27.61
73.20
117.99
152.18
174.08
187.11
194.88
199.25
200.36
197.46
188.08
171.99
151.50
129.83
109.39
91.47
76.68
65.03
56.10
47.78
39.23
31.15
24.59
19.88
16.43
13.36
9.95
5.92
0.63
-5.40
-10.68
-14.15
-15.27
-14.54
-12.88
-11.05
-9.47
-8.59
-8.34
-8.25
-7.92
-7.30
-6.65
-6.23
-6.21
-6.59
-7.50
-8.88
-10.44
-11.79
-12.62
-12.88
-12.75
-12.58
-12.60
-12.86
-13.18
-13.17
-12.52
-11.05
-8.89
-6.19
-3.66
-1.64
-0.15
0.95
1.90
2.82
3.72
4.52
5.12
5.48
5.70
5.89
6.13
6.44
6.80
7.19
7.54
7.75
7.71
7.35
6.69
5.80
4.79
3.71
2.56
1.29
-0.14
-1.69
-3.23
-4.57
-5.63
-6.44
-7.14
-7.83
-8.53
-9.15
-9.55
-9.70
-9.68
-9.76
-10.18
-11.08
-12.35
-13.69
-14.71
-15.00
-14.32
-12.59
-9.95
-6.65
-3.01
0.64
4.01
6.92
9.26
11.01
12.29
13.23
13.98
14.62
15.13
15.40
15.30
14.77
13.90
12.95
12.19
11.87
12.06
12.67
13.47
14.19
14.65
14.76
14.54
14.08
13.39
12.48
11.27
9.74
7.88
5.83
3.75
1.82
0.17
-1.19
-2.35
-3.43
-4.56
-5.77
-7.09
-8.51
-10.06
-11.81
-13.83
-16.13
-18.54
-20.76
-22.31
-22.76
-21.86
-19.66
-16.50
-12.88
-9.26
-5.92
-2.90
-0.06
2.75
5.59
8.37
10.92
13.07
14.72
15.88
16.63
17.04
17.19
17.17
17.02
16.82
16.62
16.49
16.42
16.44
16.53
16.65
16.69
16.52
16.04
15.22
14.15
12.99
11.91
11.01
10.28
9.69
9.17
8.71
8.34
8.06
7.82
7.48
6.90
6.02
4.85
3.54
2.30
1.24
0.33
-0.56
-1.68
-3.16
-4.91
-6.60
-7.76
-7.96
-6.98
-4.90
-1.98
1.45
5.12
8.89
12.68
16.42
20.04
23.44
26.61
29.58
32.36
34.81
36.64
37.44
36.90
34.97
31.92
28.29
24.66
21.45
18.67
16.05
13.15
9.62
5.38
0.65
-4.13
-8.48
-12.04
-14.65
-16.31
-17.10
-17.17
-16.65
-15.70
-14.52
-13.36
-12.43
-11.89
-11.77
-11.99
-12.45
-13.07
-13.83
-14.76
-15.95
-17.38
-18.97
-20.54
-21.86
-22.76
-23.15
-23.10
-22.77
-22.36
-22.10
-22.17
-22.67
-23.56
-24.66
-25.65
-26.10
-25.64
-24.11
-21.63
-18.52
-15.27
-12.24
-9.65
-7.50
-5.70
-4.14
-2.78
-1.62
-0.69
0.04
0.57
0.90
1.05
1.05
0.99
1.01
1.29
1.93
2.94
4.21
5.60
6.98
8.24
9.45
10.68
11.91
13.02
13.96
14.67
15.13
15.30
15.19
15.00
14.93
15.06
15.25
15.25
14.84
13.85
12.25
10.19
8.12
6.40
5.05
3.63
1.87
-0.31
-2.85
-5.55
-8.15
-9.83
-10.09
-9.12
-8.09
-7.48
-7.33
-7.36
-7.25
-6.70
-4.20
1.12
8.94
17.00
24.51
31.44
38.25
45.13
52.09
60.95
72.56
85.96
97.27
105.17
109.60
111.45
111.35
109.85
110.07
114.03
121.34
127.53
131.00
131.39
129.49
125.99
105.76
63.48
6.66
-35.96
-60.44
-69.38
-70.60
-67.64
-63.01
-58.42
-52.30
-43.68
-33.60
-26.83
-24.92
-27.84
-34.31
-43.26
-53.61
-62.42
-67.76
-69.81
-71.98
-75.40
-79.94
-84.51
-88.17
-90.11
-88.52
-82.41
-72.26
-60.64
-48.84
-37.63
-27.45
-19.03
-13.06
-9.32
-7.35
-6.77
-7.77
-9.78
-12.01
-13.70
-14.41
-13.93
-12.12
-9.15
-5.64
-2.70
-1.08
-1.14
-2.75
-5.44
-8.49
-11.15
-12.77
-12.99
-11.86
-9.76
-7.24
-4.80
-2.60
-0.39
2.39
6.28
11.44
17.46
23.48
28.48
31.73
32.97
32.46
30.73
28.31
25.57
22.67
19.60
16.31
12.67
8.53
3.69
-1.94
-8.27
-14.99
-21.62
-27.73
-33.06
-37.65
-41.84
-46.00
-50.41
-55.08
-59.77
-64.03
-67.40
-69.51
-70.15
-69.22
-66.76
-62.81
-57.43
-50.62
-42.38
-32.75
-21.94
-10.33
1.47
12.69
22.53
30.28
35.48
37.98
37.95
35.85
32.24
27.73
22.88
18.12
13.86
10.46
8.29
7.58
8.36
10.35
12.97
15.53
17.45
18.32
17.94
16.19
13.10
8.92
4.26
0.06
-2.58
-2.87
-0.63
3.51
8.44
12.93
16.16
17.84
18.20
17.68
16.69
15.46
14.10
12.61
11.01
9.33
7.60
5.89
4.30
2.97
2.03
1.64
1.90
2.83
4.36
6.25
8.15
9.58
10.11
9.53
8.01
6.09
4.54
4.12
5.28
8.00
11.89
16.30
20.58
24.18
26.75
28.06
28.05
26.78
24.43
21.32
17.80
14.21
10.78
7.69
5.02
2.83
1.14
-0.11
-1.05
-1.88
-2.80
-3.95
-5.39
-7.08
-8.89
-10.67
-12.24
-13.44
-14.16
-14.32
-13.90
-12.94
-11.50
-9.67
-7.57
-5.36
-3.19
-1.21
0.52
2.00
3.27
4.36
5.17
5.57
5.43
4.77
3.76
2.75
2.09
1.96
2.35
2.99
3.55
3.79
3.63
3.13
2.43
1.67
0.92
0.20
-0.45
-0.95
-1.19
-1.06
-0.52
0.35
1.37
2.31
2.96
3.20
3.02
2.54
1.97
1.49
1.22
1.11
0.92
0.38
-0.66
-2.17
-3.88
-5.41
-6.40
-6.74
-6.54
-6.19
-6.08
-6.48
-7.40
-8.63
-9.84
-10.80
-11.46
-11.96
-12.59
-13.48
-14.60
-15.71
-16.56
-17.01
-17.13
-17.10
-17.19
-17.69
-18.63
-19.82
-20.84
-21.31
-20.92
-19.59
-17.53
-15.27
-13.72
-13.55
-14.92
-17.38
-20.15
-22.36
-23.38
-22.98
-21.55
-20.11
-19.46
-19.76
-20.62
-21.51
-22.04
-22.05
-21.62
-20.93
-20.46
-20.16
-19.42
-17.47
-13.83
-8.27
-0.46
9.96
25.09
43.50
60.48
70.75
71.95
65.22
53.90
41.72
31.40
23.61
17.03
10.74
4.78
0.03
-2.59
-2.73
-0.88
1.69
4.41
6.12
6.41
5.80
5.32
5.85
7.69
10.55
13.74
16.44
17.69
17.15
15.01
11.71
7.59
2.77
-2.71
-8.67
-14.68
-20.28
-24.95
-28.39
-30.69
-32.25
-33.59
-34.92
-36.03
-36.45
-35.74
-33.55
-29.77
-24.47
-17.86
-10.22
-1.99
6.22
13.51
18.87
21.47
21.02
17.94
13.35
8.71
5.33
3.93
4.44
6.14
8.11
9.57
10.19
9.98
9.12
7.77
6.04
4.05
2.03
0.34
-0.69
-0.82
-0.06
1.33
2.95
4.32
5.11
5.16
4.49
3.29
1.88
0.54
-0.51
-1.25
-1.80
-2.36
-3.10
-3.96
-4.71
-4.99
-4.56
-3.44
-1.92
-0.43
0.67
1.25
1.45
1.51
1.63
1.81
1.87
1.58
0.84
-0.31
-1.69
-3.10
-4.39
-5.46
-6.29
-6.84
-7.06
-6.98
-6.63
-6.17
-5.74
-5.47
-5.41
-5.53
-5.80
-6.16
-6.62
-7.16
-7.73
-8.22
-8.50
-8.47
-8.15
-7.70
-7.37
-7.39
-7.88
-8.82
-10.07
-11.47
-12.88
-14.18
-15.22
-15.83
-15.87
-15.33
-14.39
-13.34
-12.50
-12.05
-11.93
-11.92
-11.71
-11.07
-9.87
-8.17
-6.10
-3.85
-1.59
0.60
2.76
5.00
7.52
10.44
13.70
17.10
20.29
22.97
24.96
26.28
27.05
27.43
27.49
27.24
26.68
25.84
24.90
24.10
23.67
23.75
24.30
25.13
26.01
26.72
27.18
27.35
27.28
26.96
26.31
25.21
23.57
21.40
18.83
16.09
13.37
10.79
8.32
5.89
3.43
0.98
-1.33
-3.33
-4.91
-6.09
-6.98
-7.79
-8.65
-9.63
-10.66
-11.64
-12.43
-12.97
-13.26
-13.35
-13.35
-13.30
-13.22
-13.08
-12.78
-12.29
-11.63
-10.92
-10.35
-10.10
-10.24
-10.72
-11.36
-11.94
-12.33
-12.49
-12.51
-12.56
-12.81
-13.33
-14.13
-15.08
-15.98
-16.58
-16.64
-16.01
-14.69
-12.84
-10.72
-8.57
-6.52
-4.51
-2.37
0.11
3.08
6.50
10.13
13.61
16.50
18.45
19.29
19.09
18.15
16.81
15.40
14.02
12.66
11.20
9.60
7.96
6.55
5.69
5.58
6.25
7.52
9.06
10.53
11.73
12.65
13.45
14.40
15.69
17.32
19.12
20.76
21.90
22.36
22.17
21.56
20.94
20.68
20.97
21.75
22.74
23.48
23.56
22.82
21.37
19.73
18.57
18.43
19.67
22.26
25.71
28.92
30.28
28.07
21.23
9.77
-4.93
-20.36
-33.63
-42.51
-46.16
-45.22
-41.21
-35.51
-29.19
-22.82
-16.67
-10.80
-5.29
-0.24
4.30
8.30
12.01
15.30
17.61
18.25
16.78
13.22
8.01
1.89
-6.17
-15.37
-23.69
-29.06
-30.56
-28.44
-23.63
-17.31
-10.72
-4.44
1.25
5.99
9.47
11.62
12.64
12.98
13.09
13.34
13.15
12.70
12.24
11.92
11.76
11.72
11.63
11.25
10.34
8.81
7.04
5.41
4.08
3.06
2.18
1.32
0.42
-0.59
-1.75
-2.91
-4.02
-5.13
-6.33
-7.74
-9.33
-10.96
-12.72
-14.76
-16.98
-19.14
-21.03
-22.43
-23.37
-23.94
-24.21
-24.58
-25.39
-26.44
-27.21
-27.10
-25.70
-23.13
-19.72
-15.91
-12.66
