1607606863.00
64.000000
-0.00
-0.00
-0.00
-0.00
-0.00
-0.00
-0.00
-0.00
-0.00
-0.00
0.00
0.01
0.01
-0.00
-0.03
-0.05
-0.05
0.00
0.13
0.36
0.66
1.01
1.37
1.72
2.06
2.40
2.79
3.24
3.80
4.42
5.06
5.66
6.20
6.68
7.15
7.68
8.31
9.14
10.09
11.04
11.88
12.56
13.14
13.76
14.65
15.96
17.91
20.32
22.90
25.38
27.58
29.57
31.68
34.32
37.81
42.54
48.15
54.10
59.83
64.97
69.58
74.14
79.34
85.71
93.76
103.00
112.62
121.73
129.77
136.75
143.30
150.75
157.77
166.64
177.95
191.79
206.97
220.57
228.25
225.36
208.53
176.87
132.76
80.05
23.07
-34.94
-92.44
-149.16
-205.23
-260.37
-313.74
-363.87
-409.83
-450.91
-486.50
-515.74
-537.23
-549.22
-549.96
-538.37
-514.21
-478.67
-433.88
-382.45
-327.02
-269.84
-212.63
-156.66
-102.95
-52.37
-5.90
35.58
71.43
101.35
125.50
144.38
158.69
169.15
176.37
180.75
182.57
182.07
179.51
175.23
169.65
163.18
156.15
148.81
141.30
133.69
126.02
118.33
110.69
103.16
95.80
88.68
81.83
75.25
68.95
62.95
57.25
51.86
46.78
42.03
37.59
33.45
29.61
26.07
22.81
19.83
17.11
14.67
12.48
10.54
8.83
7.35
6.07
4.97
4.05
3.27
2.62
2.09
1.65
1.30
1.01
0.79
0.61
0.48
0.38
0.30
0.25
0.22
0.20
0.19
0.20
0.22
0.24
0.27
0.30
0.34
0.38
0.43
0.47
0.51
0.56
0.61
0.66
0.72
0.78
0.85
0.92
1.00
1.09
1.19
1.30
1.42
1.56
1.72
1.90
2.09
2.31
2.55
2.82
3.11
3.43
3.78
4.17
4.58
5.04
5.52
6.05
6.61
7.21
7.86
8.55
9.28
10.05
10.88
11.74
12.65
13.62
14.64
15.72
16.87
18.08
19.32
20.58
21.79
22.88
23.76
24.31
24.41
23.96
22.87
21.08
18.61
15.50
11.81
7.73
3.43
-0.90
-5.03
-8.79
-12.01
-14.58
-16.44
-17.58
-18.00
-17.81
-17.09
-15.94
-14.48
-12.82
-11.07
-9.34
-7.70
-6.17
-4.81
-3.59
-2.44
-1.32
-0.17
1.03
2.23
3.46
4.75
6.10
7.56
9.29
11.39
13.89
16.73
19.78
22.94
26.23
29.48
32.79
36.35
40.33
44.75
49.42
54.04
58.33
62.23
65.58
68.64
71.99
76.05
80.93
86.22
91.13
94.89
97.18
97.71
97.07
96.26
96.00
96.15
95.38
91.32
80.86
65.74
46.91
26.13
5.63
-12.81
-28.52
-42.29
-55.96
-71.72
-91.33
-116.16
-145.82
-178.04
-208.75
-232.61
-244.35
-240.24
-219.74
-186.06
-145.99
-107.12
-75.26
-52.51
-37.06
-24.94
-12.79
-0.00
10.97
15.99
12.38
1.08
-13.42
-24.83
-28.08
-21.56
-7.57
9.18
23.62
32.33
34.13
29.49
19.66
6.15
-9.14
-23.88
-35.66
-42.84
-45.39
-44.97
-44.30
-45.55
-49.65
-55.94
-62.90
-69.33
-74.76
-79.46
-83.48
-86.22
-86.72
-84.62
-81.02
-78.25
-78.67
-83.02
-89.64
-94.99
-95.44
-88.81
-75.30
-56.93
-36.35
-15.72
3.77
21.59
37.50
51.25
62.57
71.21
76.90
79.25
77.88
73.34
67.33
62.53
61.44
64.71
70.33
74.23
72.17
62.18
45.91
27.86
13.24
5.43
4.59
8.26
13.18
17.35
20.60
23.38
24.93
22.68
13.74
-2.26
-21.35
-36.63
-42.00
-36.67
-26.35
-20.21
-25.15
-41.34
-61.99
-77.56
-81.97
-76.11
-66.27
-59.04
-56.35
-53.97
-45.26
-26.57
-0.19
26.49
45.61
53.66
53.47
51.89
55.04
64.43
76.31
84.65
85.04
77.42
65.38
53.24
43.26
34.72
25.98
16.60
8.51
4.74
7.12
14.64
23.76
30.71
33.70
33.63
32.78
32.80
33.25
32.38
28.52
21.43
12.62
4.21
-2.36
-7.14
-11.22
-15.94
-22.27
-30.50
-40.53
-51.77
-63.25
-73.42
-80.33
-82.00
-76.96
-64.87
-46.61
-24.37
-1.18
19.93
36.86
49.20
58.17
65.58
72.59
78.96
83.24
84.04
81.23
76.20
70.99
67.03
64.42
62.28
59.96
57.77
56.79
57.76
60.10
61.96
61.54
58.49
54.31
51.45
51.66
54.71
58.31
59.34
55.56
46.65
34.21
20.51
7.40
-4.40
-15.41
-27.07
-40.98
-58.04
-78.05
-99.63
-121.28
-141.33
-158.06
-169.87
-175.47
-174.24
-166.10
-151.38
-130.46
-104.59
-75.05
-42.89
-9.10
24.97
57.24
85.11
105.80
117.12
116.60
103.12
78.08
45.40
10.46
-21.50
-46.64
-63.33
-65.85
-52.18
-25.92
4.98
33.08
54.58
68.76
76.67
79.68
79.92
77.24
70.24
57.14
36.58
7.91
-28.40
-70.08
-113.75
-149.95
-170.76
-171.57
-152.89
-120.11
-81.58
-45.82
-15.40
5.54
16.19
18.10
13.98
5.40
-6.62
-20.70
-34.75
-46.54
-55.11
-60.00
-62.40
-64.07
-66.77
-71.09
-76.26
-80.62
-82.48
-80.99
-75.49
-66.85
-55.06
-40.88
-24.82
-6.90
13.08
35.19
58.86
83.41
104.49
120.88
131.95
137.73
138.88
136.42
131.47
124.87
117.39
109.49
101.92
94.69
87.80
81.25
75.10
69.39
64.10
59.18
54.61
50.72
47.44
44.68
42.35
40.36
38.66
37.19
35.93
34.83
34.15
33.83
33.83
34.07
34.38
34.63
34.58
34.01
32.68
31.37
29.18
25.76
21.02
14.98
7.81
-0.26
-8.91
-17.79
-27.02
-35.74
-43.42
-49.73
-54.48
-57.60
-59.17
-59.40
-58.58
-57.05
-55.14
-53.10
-51.01
-48.92
-46.79
-44.62
-42.47
-40.51
-38.90
-37.72
-36.97
-36.48
-35.97
-35.18
-33.98
-32.54
-31.21
-30.41
-30.31
-30.87
-31.55
-31.58
-30.23
-27.16
-22.53
-17.02
-11.53
-6.61
-2.49
1.27
5.50
10.91
17.67
25.19
32.29
37.84
41.35
43.05
44.05
45.83
49.66
56.40
66.38
79.43
93.75
107.11
115.53
114.53
101.11
75.60
42.30
8.13
-20.05
-38.13
-45.86
-46.33
-43.61
-40.51
-37.82
-34.92
-31.11
-26.62
-22.60
-20.20
-19.87
-20.94
-21.96
-21.48
-18.79
-14.26
-9.06
-4.55
-1.67
-0.60
-0.74
-0.98
-0.23
2.09
5.83
10.31
14.58
17.83
19.76
20.49
20.67
21.07
22.26
24.35
26.94
29.19
30.09
28.83
24.89
18.56
10.61
2.09
-6.13
-13.64
-20.66
-27.88
-35.58
-44.42
-54.05
-63.39
-71.02
-75.97
-77.89
-77.39
-76.02
-74.88
-75.10
-77.40
-82.18
-89.29
-97.39
-103.57
-103.78
-94.33
-73.74
-44.33
-11.60
17.67
38.23
48.33
49.87
46.71
42.40
38.70
35.35
31.43
26.61
21.57
17.60
15.57
15.29
15.58
15.02
12.47
7.87
2.10
-3.53
-7.86
-10.46
-11.63
-12.36
-13.70
-16.33
-20.25
-24.78
-28.91
-31.70
-32.65
-31.62
-28.99
-25.20
-20.56
-15.14
-8.76
-1.23
7.47
17.03
27.05
36.80
45.64
53.18
59.23
63.92
67.49
70.18
71.31
71.46
70.69
68.90
66.76
63.54
58.85
52.50
44.41
34.65
23.58
11.55
-0.99
-13.96
-26.42
-37.72
-47.46
-55.38
-61.31
-65.05
-66.55
-65.75
-62.40
-56.71
-48.94
-39.51
-28.98
-17.92
-6.80
3.99
13.57
22.14
29.75
36.25
41.37
44.77
46.25
45.94
44.33
42.19
40.44
39.66
39.92
40.74
41.34
40.97
39.37
36.93
34.88
34.12
35.28
38.25
42.11
45.55
47.53
47.59
46.20
44.40
43.33
43.88
46.64
51.95
59.58
68.07
74.34
74.16
63.76
41.81
10.88
-23.05
-52.83
-73.04
-82.05
-82.12
-77.55
-72.20
-67.93
-64.45
-60.62
-55.82
-50.60
-46.19
-43.57
-42.77
-42.85
-42.58
-40.84
-37.48
-33.18
-29.33
-27.07
-26.93
-28.65
-31.10
-33.30
-35.12
-37.71
-42.67
-50.42
-59.05
-64.22
-60.85
-45.68
-19.16
14.69
49.97
81.27
104.90
118.96
122.31
114.08
94.31
65.15
31.66
0.66
-21.22
-31.20
-30.86
-24.82
-18.08
-13.66
-12.46
-12.98
-13.65
-13.38
-12.51
-11.43
-10.26
-8.78
-6.72
-3.85
-0.29
3.46
6.82
9.20
10.35
10.21
8.73
6.22
2.88
-0.94
-4.80
-8.21
-10.71
-11.90
-11.85
-10.98
-10.02
-9.49
-9.40
-9.17
-7.91
-4.91
-0.04
5.71
10.65
12.73
10.70
4.73
-3.58
-11.86
-18.10
-21.27
-22.06
-22.20
-23.72
-27.94
-35.09
-44.59
-55.50
-65.72
-71.55
-68.17
-51.02
-19.01
23.63
67.40
100.47
113.19
103.23
76.49
43.38
16.74
3.37
2.75
9.32
16.72
20.43
19.56
16.26
11.63
5.90
-1.60
-11.10
-22.06
-33.51
-45.25
-56.15
-65.55
-74.45
-84.38
-97.14
-112.76
-129.58
-136.92
-130.44
-107.79
-70.31
-24.74
20.02
56.15
81.49
99.41
114.42
129.83
144.45
157.36
162.08
153.44
126.73
89.34
52.55
25.38
11.63
9.85
14.68
19.49
20.49
17.27
11.98
6.51
0.47
-7.12
-16.91
-29.11
-44.04
-61.10
-79.13
-96.46
-108.07
-115.99
-122.77
-129.11
-133.64
-132.98
-122.48
-99.19
-63.56
-21.02
19.88
52.61
75.50
91.37
104.53
118.50
132.20
143.47
146.33
136.22
111.98
81.40
53.81
36.28
30.83
34.37
41.31
46.61
48.16
47.30
46.88
47.51
48.13
46.33
39.92
28.50
13.28
-3.31
-18.46
-28.48
-34.23
-37.47
-40.15
-43.59
-47.87
-52.17
-55.08
-55.39
-52.57
-47.77
-42.44
-38.05
-35.40
-34.35
-34.08
-33.45
-31.60
-28.33
-24.52
-21.17
-19.07
-18.42
-18.76
-19.13
-18.59
-16.67
-13.60
-10.44
-8.22
-7.67
-8.79
-10.88
-12.81
-13.52
-12.68
-10.55
-8.07
-6.28
-5.86
-7.13
-10.29
-15.25
-21.17
-26.00
-26.72
-20.75
-7.71
9.07
24.05
31.02
26.45
11.43
-8.72
-27.23
-39.26
-43.82
-43.51
-42.29
-42.99
-46.35
-51.54
-57.66
-64.34
-71.14
-76.39
-76.82
-68.96
-50.91
-24.19
6.31
34.13
53.90
63.45
64.04
59.11
52.19
45.51
39.67
34.50
29.86
26.05
23.52
22.25
21.58
20.45
17.96
13.71
8.15
2.27
-2.93
-6.82
-9.39
-11.24
-13.29
-16.32
-20.68
-26.14
-32.06
-37.71
-42.65
-46.77
-50.40
-54.10
-58.35
-63.38
-69.02
-74.69
-79.79
-83.66
-85.80
-85.88
-83.68
-79.05
-71.91
-62.00
-49.10
-33.47
-15.56
3.84
23.77
43.19
61.11
76.73
88.72
97.15
102.11
103.99
103.26
100.47
96.18
90.94
85.18
79.25
73.96
69.01
64.36
59.99
55.89
52.00
48.30
44.75
41.37
38.23
35.21
32.34
29.64
27.11
24.76
22.58
20.59
18.80
17.27
15.89
14.70
13.70
12.89
12.26
11.77
11.41
11.18
11.08
11.01
11.00
11.06
11.15
11.24
11.24
11.07
10.65
10.19
9.30
7.85
5.79
3.13
-0.10
-3.79
-7.81
-11.98
-16.12
-20.14
-23.84
-27.12
-29.94
-32.33
-34.34
-36.05
-37.57
-38.97
-40.34
-41.63
-42.77
-43.71
-44.37
-44.72
-44.71
-44.34
-43.67
-42.81
-41.69
-40.37
-38.91
-37.43
-36.10
-35.11
-34.68
-35.08
-36.62
-39.20
-42.81
-47.41
-52.93
-59.25
-66.25
-73.80
-81.83
-90.40
-98.73
-106.40
-113.32
-119.70
-125.87
-132.09
-138.53
-145.35
-152.73
-159.81
-166.07
-171.19
-175.04
-177.43
-177.88
-175.43
-168.37
-159.68
-149.36
-137.43
-124.18
-110.38
-96.89
-84.29
-72.86
-62.75
-54.13
-44.44
-32.14
-17.15
-0.93
14.73
28.66
40.53
50.46
58.64
69.92
87.25
110.76
137.44
163.55
186.71
206.20
222.33
235.72
253.79
281.04
317.70
359.04
399.10
434.11
463.06
486.57
505.79
530.40
566.08
613.31
665.83
715.71
757.69
790.06
813.37
775.11
650.19
449.57
217.95
1.12
-175.64
-307.49
-400.61
-464.73
-509.25
-527.54
-522.87
-499.86
-467.16
-433.45
-403.74
-379.15
-358.41
-339.16
-311.56
-276.47
-234.37
-189.68
-147.47
-110.33
-77.97
-48.50
-20.00
12.27
48.88
87.52
121.51
143.85
150.86
143.25
124.94
100.91
77.32
57.23
41.91
29.68
18.16
5.74
-8.16
-23.70
-40.97
-59.23
-77.87
-95.40
-110.66
-122.62
-130.40
-133.43
-131.56
-125.07
-114.44
-100.29
-82.84
-62.41
-39.48
-14.86
10.26
34.23
55.13
71.06
80.45
82.65
77.99
67.78
53.94
38.57
23.47
9.79
-1.93
-11.66
-19.56
-25.79
-30.44
-33.58
-35.28
-35.75
-35.25
-34.07
-32.48
-30.68
-28.78
-26.94
-25.32
-24.08
-23.41
-23.34
-23.75
-24.29
-24.54
-24.09
-22.74
-20.59
-17.90
-15.03
-12.23
-9.59
-7.05
-4.46
-1.75
1.03
3.64
5.74
6.98
7.16
6.31
4.73
2.87
1.22
0.11
-0.35
-0.30
-0.00
0.27
0.37
0.28
0.11
-0.02
-0.06
-0.04
-0.12
-0.46
-1.16
-2.21
-3.47
-4.75
-5.92
-6.96
-7.86
-8.61
-9.11
-9.19
-8.65
-7.47
-5.83
-4.07
-2.54
-1.43
-0.74
-0.32
0.01
0.32
0.57
0.70
0.69
0.65
0.71
0.99
1.47
2.06
2.62
3.09
3.46
3.80
4.11
4.34
4.40
4.20
3.74
3.09
2.34
1.51
0.58
-0.52
-1.80
-3.16
-4.43
-5.47
-6.18
-6.62
-6.91
-7.18
-7.44
-7.58
-7.46
-6.93
-5.96
-4.61
-3.05
-1.45
-0.02
1.06
1.66
1.71
1.25
0.41
-0.72
-2.04
-3.49
-5.05
-6.68
-8.27
-9.67
-10.75
-11.40
-11.55
-11.16
-10.19
-8.64
-6.61
-4.31
-2.01
-0.01
1.55
2.66
3.42
4.00
4.47
4.86
5.12
5.20
5.05
4.66
4.06
3.29
2.43
1.59
0.89
0.43
0.29
0.47
0.97
1.73
2.72
3.86
5.01
5.97
6.54
6.55
5.96
4.85
3.40
1.82
0.29
-1.09
-2.30
-3.36
-4.34
-5.26
-6.12
-6.87
-7.42
-7.65
-7.41
-6.65
-5.38
-3.72
-1.88
-0.03
1.72
3.42
5.18
7.11
9.16
11.07
12.42
12.82
12.14
10.59
8.72
7.09
5.95
4.98
3.33
0.03
-5.53
-13.22
-22.13
-30.89
-38.23
-43.45
-46.63
-48.46
-49.94
-52.01
-55.12
-58.88
-61.73
-61.04
-53.53
-36.39
-8.53
28.31
69.23
107.28
135.32
148.07
143.60
123.44
91.61
52.92
11.68
-28.89
-66.52
-99.42
-125.86
-143.98
-151.92
-148.05
-131.42
-102.09
-61.65
-13.44
37.63
85.86
125.95
154.01
168.34
169.27
158.78
139.67
115.36
89.23
64.34
43.00
26.12
13.19
2.58
-7.53
-18.35
-30.15
-42.23
-53.35
-62.13
-67.29
-67.80
-63.30
-54.46
-43.20
-32.32
-24.41
-20.63
-19.98
-19.70
-16.61
-8.96
2.66
15.62
26.52
32.93
34.31
31.91
27.65
23.22
19.28
15.75
12.32
8.89
5.70
3.04
0.97
-0.81
-2.90
-6.00
-10.55
-16.59
-23.86
-32.19
-41.68
-52.48
-64.40
-76.60
-87.60
-95.37
-97.82
-93.43
-81.99
-64.62
-43.01
-18.80
6.50
31.39
54.43
74.60
91.56
105.39
116.79
127.19
138.29
150.89
164.05
175.34
182.04
182.39
175.48
161.18
140.00
112.40
77.98
35.49
-16.05
-75.08
-132.24
-174.68
-194.28
-192.12
-175.65
-153.36
-131.40
-112.43
-96.18
-81.17
-66.98
-54.67
-45.63
-40.29
-37.94
-37.20
-36.48
-34.44
-30.37
-24.91
-19.55
-15.66
-13.66
-13.15
-13.43
-13.80
-13.71
-12.86
-11.47
-10.08
-9.08
-8.44
-8.01
-7.78
-7.99
-8.86
-10.39
-12.31
-14.18
-15.50
-15.81
-15.08
-13.82
-12.82
-12.86
-14.46
-17.85
-22.81
-28.33
-32.41
-32.37
-25.82
-11.95
7.73
29.42
48.53
61.37
66.78
66.40
63.62
61.71
62.25
64.81
67.23
67.42
64.30
58.11
49.94
41.02
32.08
23.27
14.23
4.73
-4.97
-14.15
-21.76
-26.81
-28.67
-27.32
-23.37
-17.97
-12.51
-8.12
-5.51
-4.72
-5.32
-6.63
-7.91
-8.63
-8.51
-7.48
-5.58
-2.92
0.30
3.80
7.29
10.47
12.95
14.25
13.79
11.20
6.67
1.07
-4.32
-8.26
-10.05
-9.87
-8.52
-7.02
-6.02
-5.56
-5.13
-4.19
-2.48
-0.13
2.36
4.51
5.94
6.45
6.03
4.75
2.70
-0.07
-3.54
-7.68
-11.74
-14.89
-16.43
-16.12
-14.39
-12.03
-9.88
-8.45
-7.70
-7.28
-6.84
-6.34
-5.90
-5.64
-5.31
-4.37
-2.27
1.09
5.20
8.98
11.35
11.82
10.68
8.83
7.26
6.51
6.50
6.68
6.43
5.43
3.88
2.35
1.52
1.79
3.18
5.30
7.47
8.96
9.24
8.12
5.85
2.91
-0.16
-3.03
-5.58
-7.86
-9.89
-11.47
-12.21
-11.77
-10.18
-7.92
-5.79
-4.62
-4.84
-6.40
-8.78
-11.36
-13.60
-15.22
-16.14
-16.39
-15.94
-14.85
-13.20
-11.16
-8.92
-6.71
-4.69
-2.96
-1.54
-0.40
0.61
1.79
3.50
6.07
9.49
13.32
16.77
18.90
19.07
17.17
13.78
9.87
6.39
4.02
2.92
2.82
3.24
3.64
3.61
2.83
1.21
-1.10
-3.63
-5.72
-6.69
-6.15
-4.22
-1.51
1.08
2.71
2.95
1.89
0.07
-1.76
-2.88
-2.81
-1.40
1.16
4.42
7.77
10.58
12.37
12.92
12.25
10.60
8.31
5.82
3.57
2.00
1.48
2.12
3.68
5.53
6.80
6.70
4.82
1.36
-2.96
-7.07
-10.04
-11.38
-11.16
-9.91
-8.27
-6.73
-5.44
-4.25
-2.97
-1.47
0.14
1.58
2.64
3.25
3.62
4.17
5.36
7.59
10.94
15.22
19.80
23.85
26.50
26.94
24.81
20.72
15.51
9.99
4.81
0.32
-3.49
-6.85
-10.17
-13.57
-16.47
-18.18
-18.18
-16.26
-12.62
-7.87
-2.79
1.61
4.85
7.93
11.84
17.04
23.73
31.70
40.35
48.98
55.88
60.03
63.64
68.42
74.66
82.41
91.52
101.90
113.89
126.02
137.39
151.97
170.69
189.97
205.77
214.67
214.75
205.69
184.79
150.98
113.00
78.10
49.82
32.30
28.40
37.94
56.56
71.55
69.89
51.97
19.17
-28.09
-84.71
-143.54
-197.88
-212.53
-166.78
-114.67
-78.84
-48.43
-22.46
-1.08
14.60
23.11
24.02
14.25
-5.68
-22.17
-25.70
-16.31
2.24
23.13
39.23
46.23
40.41
22.25
2.10
-13.57
-25.13
-34.37
-43.05
-51.75
-59.36
-66.07
-71.71
-71.64
-64.29
-52.49
-39.96
-30.31
-26.24
-29.15
-40.41
-60.29
-84.61
-107.77
-123.29
-124.24
-106.29
-70.89
-25.41
19.27
54.45
78.34
94.76
109.02
124.28
139.26
149.43
150.64
142.26
127.20
109.47
91.09
70.67
44.95
11.58
-28.94
-73.29
-117.04
-156.53
-190.58
-220.58
-249.74
-281.70
-319.29
-363.39
-412.03
-460.90
-504.49
-537.12
-554.22
-553.13
-533.73
-498.91
-453.91
-404.95
-357.61
-315.12
-277.29
-241.54
-204.68
-165.30
-124.94
-87.35
-55.31
-28.84
-4.98
20.40
49.99
82.27
111.36
129.60
131.32
117.29
93.29
66.71
43.36
25.78
13.77
6.10
1.91
0.42
1.62
1.86
-6.52
-31.07
-72.83
-123.85
-169.94
-196.84
-196.09
-164.52
-107.64
-37.13
35.18
102.39
162.92
217.20
264.97
304.63
339.68
373.61
407.63
441.32
474.82
508.82
543.05
575.96
574.33
521.05
428.72
327.64
240.10
173.22
124.95
89.66
61.45
35.43
13.44
-2.08
-11.54
-17.43
-21.18
-21.53
-18.53
-12.91
-7.01
-0.56
5.31
7.34
2.50
-8.67
-22.31
-33.63
-38.61
-35.56
-23.12
-3.02
18.40
33.27
35.81
23.58
-1.65
-33.51
-62.99
-80.62
-81.15
-65.40
-38.38
-6.49
23.31
45.74
59.42
66.91
72.74
80.40
91.21
104.46
117.70
124.90
118.24
91.90
44.59
-21.08
-99.98
-185.38
-270.18
-334.35
-358.39
-338.52
-289.41
-230.56
-174.73
-126.84
-87.64
-56.92
-34.27
-20.42
-15.73
-17.88
-21.84
-23.16
-19.57
-11.45
-1.25
7.39
10.60
4.60
-11.76
-35.80
-62.66
-85.35
-96.92
-93.09
-73.39
-42.04
-6.06
28.37
58.35
83.62
101.65
113.18
120.17
123.73
123.51
119.10
111.90
109.42
112.12
120.28
131.97
142.68
146.92
140.93
124.51
101.63
79.22
57.36
40.56
31.35
28.59
28.55
27.33
22.67
14.63
4.68
-6.11
-15.82
-23.87
-30.71
-36.85
-42.13
-45.71
-46.78
-45.24
-42.27
-38.45
-34.72
-31.84
-29.95
-28.58
-27.06
-24.97
-22.38
-20.00
-17.95
-16.45
-15.51
-14.90
-14.17
-12.95
-11.11
-8.84
-6.63
-4.71
-3.35
-2.66
-2.56
-2.85
-3.27
-3.55
-3.51
-3.10
-2.31
-1.35
-0.49
0.06
0.21
0.05
-0.27
-0.67
-1.15
-1.73
-2.44
-3.20
-3.90
-4.47
-4.92
-5.40
-6.01
-6.79
-7.61
-8.32
-8.91
-9.47
-10.24
-11.36
-12.73
-14.01
-14.73
-14.54
-13.43
-11.71
-9.81
-8.07
-6.60
-5.19
-3.65
-1.92
-0.15
1.35
2.37
2.87
3.07
3.26
3.65
4.19
4.73
5.05
5.11
5.03
5.09
5.50
6.31
7.39
8.42
9.11
9.21
8.71
7.74
6.54
5.32
4.19
3.10
1.85
0.28
-1.69
-3.87
-5.95
-7.55
-8.49
-8.86
-8.94
-9.11
-9.62
-10.54
-11.76
-13.06
-14.24
-15.12
-15.58
-15.57
-15.04
-13.99
-12.45
-10.49
-8.18
-5.64
-3.01
-0.43
1.95
4.08
5.95
7.55
8.81
9.60
9.81
9.47
8.76
8.01
7.53
7.51
7.90
8.51
9.05
9.34
9.33
9.10
8.79
8.50
8.24
7.96
7.50
6.78
5.79
4.63
3.48
2.54
1.82
1.23
0.58
-0.28
-1.37
-2.58
-3.71
-4.63
-5.37
-6.09
-7.02
-8.27
-9.78
-11.30
-12.51
-13.12
-12.96
-12.01
-10.37
-8.30
-6.06
-3.87
-1.84
0.05
1.86
3.66
5.40
6.92
8.07
8.78
9.19
9.56
10.12
10.94
11.83
12.51
12.75
12.56
12.22
12.08
12.33
12.92
13.50
13.66
13.18
12.11
10.75
9.52
8.69
8.28
8.06
7.73
7.02
5.88
4.41
2.81
1.31
0.00
-1.09
-2.06
-3.05
-4.17
-5.48
-6.94
-8.47
-9.91
-11.08
-11.75
-11.76
-10.97
-9.34
-7.03
-4.31
-1.63
0.61
2.10
2.86
3.17
3.48
4.16
5.39
7.00
8.61
9.82
10.36
10.25
9.74
9.17
8.84
8.82
9.03
9.26
9.34
9.21
8.93
8.62
8.32
7.91
7.18
5.93
4.15
2.16
0.41
-0.62
-0.73
-0.13
0.72
1.23
1.01
-0.01
-1.57
-3.28
-4.85
-6.16
-7.33
-8.48
-9.62
-10.50
-10.74
-10.01
-8.28
-5.87
-3.31
-1.12
0.45
1.52
2.39
3.41
4.71
6.15
7.48
8.43
8.88
8.88
8.54
8.01
7.43
6.86
6.34
5.84
5.34
4.81
4.28
3.85
3.61
3.58
3.71
3.87
3.96
3.94
3.87
3.84
3.90
3.93
3.73
3.10
2.02
0.67
-0.59
-1.40
-1.58
-1.25
-0.81
-0.78
-1.53
-3.17
-5.47
-8.00
-10.32
-12.09
-13.16
-13.50
-13.13
-12.08
-10.44
-8.37
-6.12
-3.96
-2.10
-0.60
0.64
1.77
2.89
4.01
5.06
5.91
6.45
6.66
6.57
6.26
5.85
5.42
5.05
4.74
4.49
4.28
4.11
4.00
3.98
4.03
4.10
4.10
3.94
3.57
2.99
2.23
1.33
0.37
-0.62
-1.59
-2.50
-3.35
-4.13
-4.87
-5.53
-6.10
-6.48
-6.65
-6.67
-6.67
-6.85
-7.36
-8.23
-9.36
-10.55
-11.53
-12.08
-12.01
-11.25
-9.81
-7.83
-5.52
-3.14
-0.98
0.74
1.94
2.65
2.99
3.13
3.24
3.35
3.40
3.28
2.88
2.23
1.44
0.74
0.30
0.20
0.34
0.52
0.52
0.19
-0.45
-1.25
-1.97
-2.45
-2.65
-2.68
-2.75
-3.00
-3.46
-3.98
-4.34
-4.34
-3.96
-3.31
-2.49
-1.55
-0.46
0.85
2.33
3.72
4.60
4.55
3.28
0.74
-2.89
-7.22
-11.74
-15.83
-18.88
-20.37
-20.05
-17.94
-14.42
-10.01
-5.27
-0.72
3.24
6.37
8.52
9.73
10.17
10.07
9.67
9.12
8.42
7.54
6.53
5.51
4.68
4.17
3.96
3.91
3.84
3.65
3.34
3.00
2.72
2.53
2.40
2.29
2.16
1.97
1.73
1.45
1.16
0.87
0.61
0.35
-0.04
-0.68
-1.58
-2.62
-3.68
-4.64
-5.42
-6.01
-6.52
-7.13
-7.94
-8.91
-9.88
-10.63
-10.98
-10.95
-10.73
-10.38
-9.96
-9.31
-8.13
-6.12
-3.35
-0.19
2.79
4.93
6.05
5.99
5.14
4.32
4.59
6.18
8.80
11.65
13.61
14.14
12.48
8.90
4.82
2.51
3.00
6.35
11.27
15.10
16.38
13.65
7.39
-0.01
-4.94
-5.75
-2.47
2.47
4.01
-0.38
-12.72
-32.31
-56.31
-79.91
-99.49
-111.98
-116.51
-116.34
-102.62
-74.66
-43.41
-28.57
-28.38
-33.59
-30.64
-10.38
28.43
85.62
156.11
232.51
306.33
357.10
363.40
320.88
257.84
179.81
89.94
-9.15
-104.66
-181.59
-227.43
-236.72
-211.30
-161.05
-103.09
-50.99
-15.42
-2.66
-14.82
-44.83
-79.25
-101.59
-103.71
-90.58
-69.69
-46.61
-22.15
6.30
41.99
84.25
127.56
161.90
178.03
172.05
147.44
113.45
80.95
60.56
55.86
64.04
78.74
94.15
107.58
120.09
132.94
148.20
165.02
180.51
192.09
198.83
201.77
201.64
200.40
200.10
201.72
204.16
204.56
199.65
186.05
167.69
143.54
113.88
81.23
48.67
17.46
-12.66
-42.12
-70.59
-96.64
-125.33
-158.41
-192.12
-220.72
-241.25
-254.01
-260.69
-262.96
-261.91
-268.49
-287.98
-316.21
-344.64
-367.92
-385.11
-397.19
-405.30
-410.13
-424.87
-455.75
-497.12
-538.20
-572.78
-600.68
-624.55
-647.38
-593.63
-442.76
-241.27
-55.36
82.94
174.68
232.93
270.50
296.62
316.99
322.43
308.91
283.49
258.06
239.90
230.25
227.36
229.05
233.59
230.41
214.57
190.55
167.13
149.70
139.10
133.94
132.47
133.33
129.67
118.27
101.88
85.96
73.89
66.12
61.74
59.63
58.91
56.11
49.66
40.86
32.35
25.75
21.27
18.40
16.58
15.36
13.43
10.24
6.22
2.33
-0.87
-3.39
-5.48
-7.36
-9.19
-11.00
-12.63
-14.07
-15.33
-16.55
-17.95
-19.82
-22.29
-25.42
-29.36
-33.41
-37.20
-40.49
-43.27
-45.64
-48.12
-50.34
-51.90
-52.12
-50.24
-45.87
-39.14
-30.86
-22.30
-14.81
-9.29
-6.03
-4.56
-3.97
-3.60
-3.16
-2.95
-3.59
-5.50
-8.81
-13.51
-19.65
-27.09
-35.07
-41.65
-43.73
-38.08
-22.81
1.17
30.01
58.36
81.46
96.58
103.60
104.10
100.01
92.91
83.90
74.07
65.16
59.37
58.59
63.43
72.52
82.75
90.22
91.37
84.33
69.84
51.08
32.57
18.21
9.58
5.48
2.73
-1.76
-9.58
-20.05
-31.01
-40.27
-46.84
-51.14
-54.19
-56.61
-56.84
-53.32
-45.02
-32.60
-18.60
-6.76
-0.34
-0.62
-6.21
-13.83
-20.04
-22.92
-22.83
-22.15
-23.55
-28.19
-35.07
-41.68
-45.74
-46.70
-45.80
-44.87
-45.13
-46.50
-48.48
-51.47
-57.23
-67.67
-82.69
-98.46
-108.15
-105.03
-86.07
-54.20
-17.16
16.18
39.93
53.09
58.96
62.24
65.99
70.28
72.96
71.84
66.69
59.81
55.02
55.81
63.28
75.48
88.24
97.12
99.67
96.51
90.55
85.23
82.51
81.82
81.16
78.94
75.14
71.45
69.64
69.31
67.55
60.20
44.78
23.01
1.02
-13.77
-16.67
-8.81
2.99
9.68
4.54
-13.46
-39.53
-65.58
-84.12
-90.69
-84.69
-68.25
-44.53
-16.63
12.88
41.77
67.96
89.39
104.07
110.21
106.71
93.89
73.77
49.90
26.38
6.37
-8.71
-18.92
-25.05
-27.61
-26.64
-22.37
-15.78
-8.81
-3.61
-1.65
-2.94
-6.60
-11.44
-16.95
-23.87
-33.60
-47.16
-63.94
-81.24
-94.89
-100.99
-97.86
-87.15
-73.48
-62.45
-58.15
-61.29
-69.29
-77.49
-81.14
-76.90
-63.61
-41.94
-13.99
17.02
47.22
73.14
92.37
104.38
110.26
111.37
108.03
99.28
83.27
59.13
28.35
-5.15
-35.89
-58.70
-70.15
-69.06
-56.31
-34.23
-6.03
24.42
52.91
75.34
88.15
88.97
76.93
53.03
20.24
-16.50
-51.27
-78.28
-93.15
-94.09
-82.03
-59.64
-30.73
0.46
29.38
50.97
60.13
52.98
28.53
-10.00
-55.25
-97.41
-126.83
-136.71
-124.89
-94.24
-51.52
-5.37
36.22
67.60
86.30
92.68
88.69
76.91
59.95
40.52
21.27
4.63
-7.77
-15.40
-18.48
-17.42
-12.44
-3.75
7.60
19.16
27.37
28.74
21.46
6.50
-12.73
-31.76
-46.86
-56.26
-60.32
-60.79
-59.66
-58.53
-57.98
-57.82
-57.29
-55.56
-52.11
-46.89
-40.67
-34.65
-30.37
-29.38
-32.94
-41.77
-55.60
-72.45
-88.29
-97.57
-94.90
-77.60
-47.63
-11.83
20.52
41.47
48.00
43.12
33.66
26.28
23.89
24.66
24.17
19.06
9.59
-0.72
-7.84
-10.26
-9.93
-10.45
-13.92
-18.86
-20.74
-15.11
-0.75
19.15
38.59
52.16
57.85
57.75
56.22
56.93
60.86
66.24
70.25
71.02
68.98
65.98
63.58
61.27
55.93
43.12
19.81
-13.44
-51.63
-86.66
-110.32
-117.40
-107.36
-84.13
-54.02
-23.18
3.96
25.22
40.32
50.02
55.42
57.87
58.57
58.22
56.80
53.56
47.63
38.65
27.27
15.02
3.73
-5.48
-12.68
-18.78
-24.80
-30.86
-35.96
-38.72
-38.45
-35.97
-33.63
-34.21
-39.36
-48.56
-58.86
-65.59
-63.93
-50.33
-23.33
16.36
66.66
124.67
186.74
248.29
303.74
347.12
373.71
381.87
374.11
356.33
335.39
316.16
299.74
283.77
264.54
239.59
209.15
175.45
141.06
107.15
73.04
37.37
-0.40
-39.09
-76.10
-108.68
-135.62
-157.84
-177.83
-198.64
-222.80
-251.99
-286.62
-325.69
-366.32
-403.52
-430.63
-441.00
-430.53
-399.70
-353.95
-301.71
-251.11
-207.27
-171.27
-141.45
-115.58
-92.37
-71.34
-51.44
-29.90
-2.63
33.78
79.63
130.98
180.58
220.78
246.97
259.33
262.14
261.10
260.07
259.26
255.33
243.87
222.21
191.06
154.14
116.38
81.61
51.10
23.98
-1.54
-26.62
-51.00
-73.17
-91.17
-103.42
-109.19
-108.88
-103.76
-95.83
-87.22
-79.62
-73.84
-69.72
-66.48
-63.31
-59.98
-56.73
-53.98
-51.85
-50.03
-47.97
-45.47
-43.12
-42.09
-43.36
-46.77
-50.88
-53.55
-53.49
-51.52
-50.44
-53.87
-64.21
-81.07
-100.98
-118.73
-129.20
-129.02
-117.40
-95.86
-67.62
-36.73
-7.61
15.98
31.50
38.29
37.78
32.68
26.00
20.12
16.27
14.46
13.96
13.61
12.55
10.55
8.08
6.32
6.54
9.74
16.06
24.77
34.65
44.38
52.79
58.66
60.70
57.65
49.01
35.75
20.48
6.57
-3.27
-8.07
-9.13
-8.87
-9.60
-12.44
-17.14
-22.92
-29.33
-36.63
-45.66
-57.39
-72.25
-89.92
-108.68
-125.31
-135.41
-134.79
-121.42
-96.96
-66.65
-37.41
-15.00
-1.70
3.64
4.06
2.50
0.84
0.37
2.25
7.36
15.26
23.71
29.40
29.82
25.16
18.27
12.93
11.44
13.43
16.80
19.88
23.03
28.15
36.82
48.23
59.05
65.15
64.26
57.32
47.76
39.36
34.26
32.18
31.21
29.43
25.98
21.67
18.07
16.08
14.92
12.02
4.73
-8.12
-24.61
-39.85
-48.05
-45.10
-30.83
-9.20
13.75
32.72
45.28
52.19
55.87
58.33
60.01
59.98
57.14
51.26
43.15
34.06
25.07
16.62
8.51
0.24
-8.49
-17.12
-24.28
-27.91
-25.84
-16.59
-0.27
20.69
42.05
58.80
66.89
64.93
54.40
39.15
23.70
11.39
3.30
-1.74
-6.10
-11.85
-19.72
-28.96
-38.31
-47.14
-55.87
-65.02
-73.99
-80.57
-81.41
-73.88
-57.89
-36.60
-15.25
1.19
10.13
12.13
9.94
6.78
4.97
5.29
7.34
10.30
12.99
14.15
12.58
7.58
-0.40
-9.83
-18.42
-24.09
-25.40
-21.62
-12.91
-0.16
14.92
29.48
39.91
42.91
36.77
22.10
1.73
-20.50
-41.06
-57.59
-69.07
-75.44
-77.21
-75.42
-71.56
-67.51
-64.94
-64.86
-67.38
-71.43
-74.95
-75.10
-68.95
-54.63
-32.58
-5.90
20.66
42.45
56.83
64.04
66.56
67.31
68.34
69.69
69.93
67.26
60.34
49.18
35.32
21.76
12.18
9.35
13.50
21.87
29.81
33.51
32.18
28.32
25.72
26.78
30.87
34.97
36.00
32.97
27.53
22.54
19.75
18.79
17.72
14.70
9.54
3.70
-0.91
-3.45
-4.68
-6.65
-11.74
-21.49
-36.01
-53.37
-69.98
-81.45
-84.06
-76.46
-60.27
-39.39
-18.51
-1.17
11.23
19.23
24.24
27.41
28.99
28.65
26.07
21.50
15.89
10.52
6.36
3.69
2.09
0.64
-1.51
-4.73
-8.73
-12.56
-14.97
-14.77
-11.35
-5.05
2.77
9.96
14.19
13.73
8.20
-1.20
-12.04
-21.48
-27.22
-28.06
-24.05
-16.13
-5.88
4.72
13.36
17.77
16.23
8.43
-3.88
-16.95
-25.90
-26.38
-16.20
3.59
29.04
54.66
75.48
88.78
94.67
95.39
93.80
91.80
89.60
86.07
79.88
70.60
59.20
47.60
37.56
29.87
24.18
19.43
14.84
10.47
7.26
6.38
8.50
13.29
19.42
24.97
28.20
28.18
25.11
20.31
15.81
13.63
15.04
19.84
26.22
31.14
31.33
24.48
10.07
-10.44
-33.95
-56.56
-74.42
-84.43
-84.88
-75.86
-59.20
-38.15
-16.53
2.28
16.12
24.44
28.12
28.67
27.49
25.28
22.10
17.71
12.05
5.59
-0.83
-6.34
-10.39
-12.95
-14.24
-14.44
-13.47
-11.01
-6.98
-1.88
3.08
6.43
6.97
4.38
-0.79
-7.41
-14.33
-20.67
-25.84
-29.40
-31.05
-30.90
-29.63
-28.58
-29.31
-33.11
-40.39
-50.96
-64.07
-78.58
-92.90
-104.52
-110.12
-106.21
-90.65
-64.00
-30.21
4.52
33.75
53.35
62.86
65.12
64.55
64.89
67.67
71.89
75.08
74.83
70.21
62.09
52.52
43.46
35.78
29.02
22.18
14.77
7.45
1.64
-1.14
-0.65
1.82
4.11
4.15
0.86
-5.59
-14.24
-23.87
-33.05
-40.25
-43.90
-42.93
-37.53
-29.33
-20.94
-14.93
-12.83
-14.70
-19.73
-26.98
-35.73
-45.15
-53.46
-57.59
-54.03
-40.43
-17.14
12.09
41.35
64.64
78.16
81.55
77.63
70.88
65.16
62.33
61.41
59.65
54.22
43.79
29.27
13.47
-0.32
-9.84
-14.60
-15.72
-14.63
-12.22
-8.43
-2.91
3.79
9.66
11.96
8.72
0.08
-11.53
-22.81
-31.65
-38.00
-43.62
-50.33
-58.42
-66.23
-71.18
-71.51
-67.52
-61.44
-56.05
-53.40
-54.25
-58.41
-65.46
-74.88
-85.24
-93.54
-95.56
-87.29
-67.07
-36.76
-1.43
32.56
60.13
79.12
90.42
96.63
100.22
102.12
101.68
97.71
89.52
78.03
65.53
54.86
48.22
46.25
47.93
51.06
53.47
53.94
52.74
51.14
50.56
51.56
53.23
53.52
50.08
41.33
27.22
9.43
-9.12
-25.20
-36.22
-40.99
-39.87
-34.47
-27.02
-19.87
-15.06
-14.07
-17.49
-24.49
-32.70
-38.42
-37.92
-28.87
-11.56
10.95
33.96
52.92
65.17
70.54
70.91
68.69
65.49
61.47
55.67
47.09
35.79
23.27
11.88
3.74
-0.45
-1.70
-2.08
-3.57
-6.89
-11.27
-15.02
-16.67
-15.79
-13.25
-10.66
-9.55
-10.84
-14.56
-20.12
-26.58
-32.89
-38.24
-42.20
-44.79
-46.33
-47.25
-47.79
-48.24
-49.25
-52.11
-58.50
-69.47
-84.22
-99.32
-109.28
-108.66
-94.85
-69.75
-39.36
-11.12
9.56
21.68
28.29
34.05
42.20
52.87
63.59
71.32
74.35
72.73
67.48
59.53
49.30
37.28
24.65
13.32
5.22
1.25
0.97
3.10
6.33
9.87
13.25
15.94
17.06
15.76
12.03
7.00
2.46
0.01
0.23
2.50
5.60
8.41
10.36
11.23
10.80
8.56
3.68
-4.49
-15.90
-29.51
-43.38
-54.88
-61.34
-60.68
-51.88
-35.60
-14.29
8.53
28.93
43.89
52.27
54.86
53.85
51.59
49.50
47.57
44.57
39.10
30.81
21.14
12.81
8.38
8.61
11.64
14.07
12.98
7.85
0.95
-4.52
-6.83
-7.07
-8.20
-12.39
-18.86
-24.20
-25.00
-20.82
-15.39
-14.72
-22.78
-38.57
-56.27
-68.28
-69.70
-60.77
-46.29
-32.63
-24.32
-22.54
-25.70
-31.16
-36.57
-40.05
-39.52
-32.32
-15.92
10.55
44.88
81.29
112.08
130.29
132.42
119.74
97.21
70.91
45.25
21.66
-0.66
-22.51
-42.69
-57.63
-62.92
-55.82
-37.38
-12.47
11.99
29.69
37.13
34.23
23.47
8.46
-7.29
-20.87
-30.18
-33.92
-31.71
-23.84
-11.11
5.65
25.66
47.72
69.73
88.35
99.46
99.38
85.98
59.62
23.52
-16.62
-53.65
-80.67
-93.01
-89.77
-74.23
-53.21
-34.86
-25.55
-27.76
-39.79
-57.35
-75.96
-92.65
-106.46
-118.28
-129.90
-142.57
-156.18
-169.14
-178.86
-182.46
-177.38
-161.82
-135.58
-100.43
-59.09
-14.76
29.41
70.36
103.63
122.63
123.36
107.22
79.54
46.91
14.45
-14.66
-39.14
-59.24
-75.89
-89.55
-100.27
-109.04
-114.57
-115.02
-108.69
-94.67
-73.00
-44.45
-9.74
30.31
71.29
108.82
139.63
162.02
175.62
180.85
178.62
170.44
157.82
142.06
124.84
107.70
91.85
78.06
66.63
57.35
50.11
44.47
39.77
35.72
32.16
28.94
25.91
22.95
19.78
16.54
13.32
10.09
7.01
4.13
1.38
-1.52
-3.43
-5.84
-9.37
-14.35
-20.93
-28.87
-37.82
-47.29
-56.83
-66.11
-74.74
-82.22
-88.40
-93.35
-97.31
-100.61
-103.67
-106.91
-110.81
-115.29
-120.08
-125.02
-129.98
-134.87
-139.64
-144.37
-149.25
-154.59
-159.99
-165.15
-169.90
-174.05
-177.26
-178.96
-178.10
-172.74
-166.75
-160.94
-155.53
-150.47
-145.63
-140.76
-135.74
-130.49
-125.10
-119.90
-114.47
-108.72
-102.78
-96.87
-91.21
-86.01
-81.38
-77.35
-73.95
-70.40
-66.16
-60.85
-54.33
-46.70
-38.30
-29.52
-20.83
-12.63
-4.78
2.89
10.49
18.05
25.46
32.52
39.02
44.92
50.36
55.94
62.20
69.54
78.03
87.36
96.93
106.19
114.91
123.42
132.66
143.79
157.78
175.03
195.22
217.25
239.68
261.15
280.80
298.52
314.96
331.41
349.26
369.17
390.36
410.25
424.85
429.92
422.44
401.75
369.73
330.29
288.04
247.01
209.74
176.95
147.82
120.69
93.95
66.85
40.05
15.59
-3.68
-15.14
-17.47
-11.23
1.38
16.92
31.75
42.94
48.76
48.67
42.91
32.26
17.72
0.50
-18.00
-36.19
-52.57
-66.22
-77.22
-86.60
-95.77
-105.22
-113.51
-117.29
-112.45
-96.13
-68.39
-32.98
3.65
34.52
54.43
61.46
57.19
45.44
30.27
14.54
-0.53
-14.95
-29.26
-43.92
-59.02
-74.22
-88.76
-101.42
-110.40
-113.32
-107.72
-92.01
-66.54
-33.99
1.13
33.64
59.05
74.60
79.55
74.72
61.63
42.06
18.11
-7.48
-31.18
-49.10
-58.20
-57.70
-49.73
-38.78
-30.11
-27.76
-33.03
-44.17
-57.03
-66.65
-68.86
-61.31
-43.83
-18.24
12.19
43.23
70.54
90.51
100.91
101.15
92.10
75.52
53.59
28.65
3.14
-20.39
-39.77
-53.82
-62.88
-68.83
-74.25
-80.89
-88.27
-93.30
-91.26
-78.06
-52.42
-16.83
23.14
60.85
90.83
110.21
118.90
118.71
112.12
101.12
86.89
69.86
50.25
28.46
5.34
-17.75
-39.04
-56.74
-69.54
-76.84
-78.75
-75.58
-67.50
-54.49
-36.72
-15.11
8.27
30.62
49.14
61.79
67.87
67.76
62.52
53.38
41.45
27.59
12.57
-2.91
-18.15
-32.33
-44.47
-53.19
-57.02
-55.00
-47.41
-35.95
-23.39
-12.54
-5.07
-1.10
0.77
2.56
5.83
11.02
17.41
23.68
28.52
31.25
31.45
29.35
25.48
20.84
16.88
15.37
17.84
24.96
36.35
49.55
61.88
71.08
76.72
80.40
84.92
92.34
102.41
112.60
117.03
110.71
90.70
57.91
17.32
-22.97
-53.65
-66.62
-56.60
-25.93
18.43
65.05
103.04
126.38
135.89
137.59
138.62
143.88
149.94
150.77
138.99
112.09
74.11
32.85
-4.86
-43.40
-73.51
-101.33
-129.99
-161.32
-192.86
-219.61
-238.08
-249.26
-258.10
-269.72
-290.34
-321.07
-361.34
-405.45
-443.84
-466.66
-467.40
-444.20
-398.61
-337.37
-253.58
-155.48
-61.32
12.99
63.16
93.55
109.97
116.32
113.17
102.36
85.15
66.34
52.75
50.31
58.87
74.35
91.15
103.70
109.70
108.12
101.80
96.18
96.31
104.49
119.84
139.37
155.38
161.01
149.88
119.26
70.87
10.56
-52.73
-108.86
-148.18
-164.72
-157.89
-132.57
-96.80
-59.40
-27.80
-6.50
2.53
-0.59
-15.91
-43.48
-80.66
-120.13
-150.50
-160.08
-141.11
-93.83
-25.56
50.31
113.07
145.92
145.90
123.76
94.10
71.79
58.37
52.50
52.74
58.70
72.26
93.33
120.29
148.03
169.17
176.37
166.70
141.77
106.50
68.35
34.24
7.31
-14.78
-37.97
-69.18
-108.50
-149.14
-182.05
-200.43
-202.98
-193.07
-175.92
-155.41
-132.76
-108.75
-81.71
-53.40
-27.32
-6.87
6.84
15.03
20.51
26.39
35.32
46.56
56.99
63.47
63.79
58.23
49.79
43.74
46.26
62.83
95.55
137.62
177.53
203.12
209.16
199.20
180.73
158.90
134.06
106.37
70.95
28.36
-14.98
-50.27
-71.05
-76.66
-72.20
-63.89
-58.51
-60.96
-70.84
-83.74
-93.63
-95.76
-88.91
-75.70
-61.28
-51.91
-52.92
-65.36
-86.10
-109.11
-127.60
-136.61
-134.27
-121.23
-100.35
-75.81
-51.08
-28.80
-11.28
-0.28
3.17
-0.81
-9.66
-19.86
-28.39
-32.88
-31.75
-24.30
-10.20
10.54
37.45
70.56
108.99
146.70
174.66
186.59
182.58
167.44
149.46
128.20
100.60
63.80
16.73
-38.99
-98.18
-154.72
-199.77
-226.62
-233.21
-221.80
-198.49
-170.63
-143.46
-118.18
-92.87
-64.86
-33.55
-1.75
25.54
45.06
54.66
54.60
48.28
40.99
37.81
41.73
53.01
70.59
92.74
117.32
137.61
147.25
143.83
130.92
115.49
102.85
93.91
85.34
72.50
54.71
33.41
12.96
-2.21
-10.28
-12.46
-11.48
-9.61
-8.03
-6.93
-6.76
-8.68
-14.92
-27.99
-49.22
-77.32
-108.28
-136.61
-157.11
-166.49
-164.12
-152.52
-136.61
-121.94
-112.45
-108.97
-108.87
-107.30
-99.30
-81.37
-53.00
-16.64
23.16
61.20
92.91
115.24
126.82
127.83
119.62
104.39
85.11
65.13
47.55
34.32
25.72
20.30
15.78
10.45
4.17
-1.54
-4.46
-3.07
2.66
11.39
21.24
30.84
39.83
48.40
56.74
64.49
70.79
74.55
74.66
69.96
59.56
43.47
23.10
1.47
-17.61
-31.06
-38.01
-40.21
-41.04
-43.53
-48.64
-54.90
-59.29
-59.11
-53.39
-43.27
-31.01
-18.40
-5.49
9.49
28.58
52.46
79.37
105.31
125.20
134.82
132.53
119.95
101.36
81.27
62.66
46.34
31.61
17.56
4.19
-7.21
-14.59
-16.16
-12.23
-5.07
2.51
8.67
13.37
18.08
25.17
36.70
53.39
72.82
89.92
98.83
95.01
76.57
44.61
2.59
-45.76
-92.11
-127.52
-147.39
-153.15
-149.03
-138.70
-124.40
-107.59
-89.78
-72.39
-57.13
-45.34
-37.28
-32.12
-28.53
-25.55
-22.69
-19.77
-16.56
-13.32
-10.71
-9.16
-8.59
-8.49
-8.30
-7.56
-6.02
-3.57
-0.66
1.86
3.34
3.67
3.25
2.59
2.19
2.34
3.15
4.40
5.63
6.46
6.76
6.67
6.44
6.30
6.42
6.88
7.64
8.53
9.39
10.19
10.95
11.81
12.89
14.28
16.03
18.07
20.23
22.17
23.48
23.76
22.75
20.53
17.41
13.85
10.30
7.06
4.15
1.30
-1.82
-5.43
-9.57
-13.92
-17.97
-21.32
-23.74
-25.33
-26.50
-27.71
-29.24
-31.07
-32.75
-33.61
-33.40
-31.97
-29.63
-26.87
-24.20
-22.17
-21.74
-24.03
-29.91
-39.09
-49.10
-55.57
-53.75
-40.88
-17.80
11.01
39.93
64.34
81.63
91.05
92.15
83.74
64.43
34.70
-2.00
-37.83
-63.30
-72.90
-66.74
-50.13
-30.55
-14.91
-5.48
-2.90
-6.30
-14.60
-26.49
-39.29
-48.68
-49.71
-38.91
-14.86
16.11
45.28
65.10
72.03
67.54
56.49
44.10
33.71
26.08
19.91
14.34
9.52
6.22
5.06
5.89
7.65
8.98
8.73
6.34
2.55
-1.31
-4.06
-5.07
-4.56
-3.37
-2.52
-2.79
-4.61
-7.60
-11.03
-14.23
-16.82
-18.93
-20.94
-23.24
-26.02
-29.10
-31.91
-33.63
-33.68
-31.77
-28.02
-22.85
-16.80
-10.48
-4.43
0.98
5.45
8.83
11.07
12.25
12.54
12.33
11.94
11.57
11.20
10.67
9.77
8.47
6.86
5.18
4.11
4.00
4.89
6.43
8.06
9.24
9.74
9.68
9.50
10.33
12.81
16.96
22.19
27.42
31.46
33.51
33.39
31.58
29.99
30.68
35.39
44.84
58.22
73.26
86.92
96.86
97.07
86.35
66.67
42.27
18.14
-1.82
-15.78
-24.11
-28.67
-31.64
-33.80
-35.29
-35.67
-34.36
-30.94
-25.25
-17.49
-8.25
1.39
10.70
18.54
23.88
26.27
25.95
23.45
19.11
12.66
3.46
-8.40
-22.01
-35.54
-46.96
-55.05
-60.11
-63.68
-67.62
-72.98
-79.17
-84.56
-87.25
-85.88
-79.96
-69.85
-56.59
-41.78
-27.25
-14.59
-4.64
2.86
9.09
15.52
23.18
32.26
42.20
52.29
62.14
71.69
80.75
88.70
94.51
96.98
95.41
90.09
82.42
74.66
69.23
67.68
70.36
76.31
83.66
90.28
94.51
95.43
92.82
86.83
77.12
63.58
46.69
27.48
6.90
-14.36
-35.53
-55.29
-71.42
-82.32
-87.18
-86.75
-83.43
-80.61
-80.99
-84.93
-90.42
-94.26
-95.31
-94.32
-93.27
-93.94
-97.27
-103.39
-112.10
-123.92
-132.62
-134.62
-129.72
-120.37
-108.42
-94.04
-77.17
-58.89
-41.53
-27.18
-17.78
-13.51
-13.06
-14.58
-17.07
-21.81
-29.26
-39.59
-51.58
-63.43
-72.52
-76.45
-74.28
-67.29
-58.48
-50.71
-45.30
-41.33
-36.51
-27.94
-14.18
4.77
27.61
52.62
78.59
105.05
131.72
157.64
180.95
199.56
211.84
217.26
216.21
209.36
196.85
178.08
152.35
119.90
83.04
46.07
13.67
-11.49
-30.15
-46.18
-64.15
-86.31
-110.52
-130.52
-138.40
-128.70
-101.23
-61.33
-17.78
20.94
49.57
67.02
75.19
76.79
73.27
64.21
48.00
23.73
-7.60
-42.52
-75.98
-103.09
-120.69
-128.33
-127.71
-121.17
-110.12
-93.96
-70.57
-38.19
2.26
45.83
84.70
111.13
120.95
115.39
100.18
82.21
65.82
51.01
34.49
12.92
-13.90
-41.80
-63.91
-74.10
-69.94
-53.64
-30.52
-6.18
15.81
34.37
49.99
63.11
73.07
78.29
77.36
70.01
57.32
40.97
22.27
1.78
-19.98
-41.69
-60.70
-73.82
-78.87
-76.15
-68.77
-61.30
-57.28
-57.53
-59.62
-58.80
-50.23
-31.07
-1.82
33.61
69.13
98.32
116.01
119.52
109.26
88.23
61.24
33.37
8.75
-10.35
-23.42
-31.86
-38.26
-44.96
-52.77
-60.50
-65.39
-64.14
-54.42
-35.46
-9.23
19.95
46.68
66.05
75.13
73.67
64.05
50.52
38.39
30.40
25.57
20.38
11.47
-1.95
-17.61
-30.95
-36.89
-30.17
-9.00
24.95
68.40
118.54
172.87
227.66
277.03
313.88
334.62
337.71
324.10
297.23
262.25
223.52
182.79
139.44
78.86
1.51
-77.90
-141.33
-180.77
-199.46
-205.32
-205.12
-202.29
-197.50
-188.21
-173.96
-157.40
-142.40
-131.15
-123.70
-118.73
-114.83
-111.14
-105.60
-97.81
-89.09
-81.28
-75.18
-70.44
-66.34
-62.52
-59.03
-54.96
-50.00
-44.42
-38.60
-32.54
-25.97
-19.04
-12.74
-8.15
-5.95
-7.06
-12.60
-23.28
-38.20
-54.33
-66.29
-69.13
-60.00
-39.70
-13.02
13.06
32.38
42.09
43.37
39.82
35.12
31.04
27.30
22.67
16.36
8.84
1.61
-3.85
-6.85
-7.47
-6.63
-5.10
-2.82
0.97
7.30
16.94
29.74
44.52
59.38
72.09
80.90
85.08
85.02
81.88
77.20
72.19
66.40
60.78
55.53
50.78
46.50
42.35
37.35
30.12
19.35
4.95
-12.61
-31.71
-50.18
-65.93
-77.42
-83.71
-84.28
-79.08
-68.73
-54.59
-38.85
-23.98
-11.88
-3.45
1.34
3.10
2.91
2.11
2.22
4.40
8.86
15.00
20.98
24.65
24.20
19.25
10.66
0.63
-8.80
-16.64
-22.63
-27.53
-32.73
-39.78
-49.42
-61.58
-75.13
-86.43
-93.04
-92.99
-85.80
-73.21
-59.05
-48.17
-45.36
-52.89
-69.70
-91.76
-110.96
-118.12
-106.72
-75.44
-28.35
26.10
78.83
122.19
150.98
165.59
170.08
169.65
168.49
169.37
173.06
180.44
192.07
198.33
193.49
179.18
161.89
146.20
136.95
127.66
113.06
90.97
60.70
22.45
-19.66
-61.34
-100.14
-135.54
-168.79
-199.68
-219.40
-221.06
-202.59
-168.95
-129.87
-94.86
-69.69
-55.85
-49.96
-46.93
-43.85
-39.37
-33.62
-27.81
-23.14
-19.93
-17.85
-15.52
-11.92
-7.95
-4.82
-3.40
-3.88
-5.73
-7.93
-9.48
-9.28
-6.93
-3.59
-0.87
-0.09
-1.60
-4.70
-7.87
-9.44
-8.17
-3.71
2.74
9.23
13.61
14.71
11.72
4.19
-7.76
-22.76
-37.77
-48.40
-49.76
-39.79
-20.04
4.39
26.80
41.78
47.47
45.73
40.52
35.54
32.30
30.30
28.12
24.91
21.06
17.86
16.48
17.23
19.44
21.77
22.83
21.97
19.36
15.83
12.54
10.52
10.31
11.78
14.07
16.00
16.36
14.40
10.10
4.31
-1.71
-6.49
-8.86
-8.27
-4.72
1.46
9.62
18.59
26.51
31.08
30.43
24.28
14.33
3.99
-3.28
-5.71
-4.16
-1.52
-0.79
-3.44
-8.63
-14.03
-17.32
-17.57
-15.56
-12.94
-11.22
-11.12
-12.69
-15.78
-20.08
-25.15
-30.22
-34.32
-36.50
-36.39
-34.42
-31.42
-28.22
-25.06
-21.58
-17.49
-13.39
-10.88
-12.01
-17.77
-26.77
-34.98
-37.14
-29.25
-10.69
14.67
39.79
57.82
65.28
63.20
55.75
47.59
41.52
37.74
34.87
31.53
27.51
23.76
21.60
21.71
23.78
26.73
29.24
30.50
30.41
29.47
28.38
27.65
27.20
26.42
24.47
20.85
15.84
10.72
7.58
7.89
12.19
19.21
26.20
30.19
29.32
23.90
16.22
9.32
5.67
6.28
10.35
16.08
21.50
24.93
25.00
20.79
11.69
-1.82
-17.83
-33.25
-45.06
-51.27
-51.54
-46.99
-39.46
-31.11
-23.99
-18.37
-14.61
-13.03
-13.81
-16.98
-22.36
-29.71
-39.18
-50.22
-61.88
-73.15
-82.97
-90.35
-94.70
-95.94
-92.05
-85.03
-76.62
-67.82
-59.33
-51.15
-42.79
-34.05
-25.09
-16.87
-11.70
-11.52
-16.87
-26.08
-34.72
-37.04
-28.47
-7.83
22.12
55.51
86.25
109.40
121.60
121.26
108.61
86.16
58.87
33.22
14.92
6.84
7.44
11.86
14.62
12.61
6.56
0.18
-2.52
0.53
8.82
19.40
28.44
32.71
30.60
22.67
11.64
1.24
-5.49
-7.61
-6.58
-5.09
-5.21
-6.81
-7.69
-5.00
2.60
13.98
25.85
34.78
38.83
38.25
34.94
30.88
26.76
21.76
14.50
4.19
-8.68
-22.44
-34.94
-44.51
-50.40
-52.58
-51.75
-48.79
-44.40
-39.19
-33.42
-27.25
-21.09
-15.55
-10.66
-5.93
-0.30
7.35
17.24
28.04
36.74
39.72
33.90
20.38
3.55
-10.30
-15.70
-10.52
3.29
20.73
36.46
47.13
52.16
52.93
51.46
49.05
45.94
42.16
38.20
35.50
36.02
40.41
46.96
52.13
51.91
43.61
27.81
7.99
-10.98
-24.84
-32.25
-35.19
-37.67
-43.68
-55.38
-71.61
-88.97
-102.72
-108.07
-101.62
-82.21
-51.46
-13.58
24.52
56.58
78.50
89.48
91.98
90.03
87.09
84.07
78.80
67.59
47.61
18.97
-14.68
-47.20
-72.42
-86.51
-88.68
-82.49
-72.45
-61.85
-51.92
-42.20
-31.97
-21.70
-12.79
-7.12
-5.87
-8.34
-12.49
-15.94
-16.97
-15.27
-11.82
-8.20
-5.92
-5.83
-7.63
-10.34
-12.79
-14.18
-14.30
-13.49
-12.36
-11.61
-11.68
-12.56
-13.94
-15.31
-16.29
-16.83
-17.37
-18.51
-20.51
-22.71
-23.40
-20.48
-12.51
0.26
15.75
30.79
42.45
49.01
50.35
47.41
41.42
33.41
24.20
14.98
7.48
3.85
5.71
13.29
25.06
38.12
49.28
55.78
56.36
51.34
42.28
31.40
20.89
12.28
6.10
1.98
-1.02
-3.79
-6.72
-9.69
-12.06
-13.14
-12.64
-10.75
-7.95
-4.78
-1.75
0.71
1.95
1.41
-1.07
-5.04
-9.37
-12.47
-13.12
-11.18
-7.37
-2.94
1.03
4.00
6.07
7.65
9.19
10.95
12.63
14.01
14.80
14.36
11.78
6.15
-2.59
-12.91
-21.88
-26.82
-25.87
-19.19
-8.97
1.27
8.11
9.41
5.18
-2.98
-13.77
-26.01
-38.81
-51.33
-62.54
-71.29
-77.05
-79.70
-75.14
-63.56
-46.96
-28.23
-10.02
6.00
21.21
34.12
43.04
47.67
48.21
45.68
41.45
37.08
33.80
32.00
31.19
31.09
31.62
32.22
32.45
31.81
29.53
24.46
16.01
4.33
-8.81
-20.88
-30.08
-35.58
-37.49
-36.32
-32.57
-26.51
-18.61
-9.57
-0.59
6.88
12.18
15.99
20.25
26.93
36.93
49.18
61.06
69.38
71.69
67.14
56.61
41.90
24.70
6.20
-13.00
-32.28
-50.34
-65.14
-74.54
-77.19
-72.97
-63.20
-49.91
-35.31
-21.22
-8.94
0.75
7.39
10.87
11.54
9.98
6.87
2.95
-0.96
-3.84
-4.60
-2.58
2.08
8.21
13.80
16.80
15.72
10.13
0.70
-11.03
-23.03
-33.02
-38.88
-39.11
-33.36
-22.64
-9.23
4.05
14.75
21.47
24.11
23.47
20.67
16.73
12.41
8.15
4.27
1.02
-1.45
-3.24
-4.69
-6.48
-9.25
-13.33
-18.27
-22.80
-25.23
-24.31
-20.10
-14.20
-9.20
-7.47
-10.07
-16.15
-23.41
-29.28
-32.22
-32.32
-31.12
-30.72
-32.61
-37.10
-43.31
-49.77
-55.04
-58.13
-58.42
-55.52
-49.25
-39.68
-27.28
-13.27
0.72
13.05
22.59
29.15
33.28
35.78
37.19
37.65
36.91
34.85
31.64
27.83
23.98
20.34
16.74
12.65
7.54
1.30
-5.50
-11.71
-15.99
-17.51
-16.52
-14.46
-13.52
-15.70
-21.93
-31.65
-43.08
-54.24
-63.91
-72.16
-79.96
-88.29
-97.38
-106.55
-114.88
-122.05
-128.54
-134.86
-140.56
-143.28
-139.25
-124.49
-96.55
-55.38
-3.13
56.60
119.51
180.60
234.06
273.58
293.73
291.94
270.12
234.64
194.44
158.11
131.18
115.02
107.47
104.65
103.05
100.86
98.25
96.45
96.65
98.82
101.63
103.00
101.42
96.95
91.19
86.29
83.58
82.65
81.68
78.65
72.73
64.89
57.37
52.28
50.39
50.72
51.16
49.52
44.48
36.02
25.24
13.94
4.03
-2.99
-6.47
-6.68
-4.74
-2.18
-0.30
0.27
-0.34
-1.52
-2.50
-2.99
-3.37
-4.34
-6.82
-11.61
-18.90
-27.97
-37.20
-44.48
-47.87
-46.36
-40.23
-31.05
-21.12
-12.80
-8.00
-7.79
-12.37
-21.08
-32.54
-44.92
-56.31
-65.18
-70.83
-73.51
-74.13
-73.85
-73.49
-73.36
-73.48
-73.96
-74.83
-76.20
-78.17
-80.57
-83.32
-86.67
-91.02
-96.32
-101.26
-102.92
-97.65
-82.78
-58.45
-28.28
1.67
25.54
39.94
44.93
43.11
37.44
29.63
19.78
7.45
-6.89
-21.44
-33.74
-41.99
-46.08
-47.44
-47.89
-48.56
-49.19
-48.37
-44.56
-37.06
-26.43
-14.40
-3.15
5.50
10.86
13.48
14.94
17.05
21.07
26.99
33.60
38.82
40.56
37.52
29.62
18.09
5.10
-6.80
-15.30
-18.85
-17.10
-10.94
-2.31
6.54
13.78
18.74
21.97
24.80
28.58
33.74
39.27
43.20
43.16
37.60
26.80
13.06
0.14
-8.28
-9.96
-5.19
3.30
11.46
15.62
14.01
7.44
-1.33
-9.19
-14.40
-17.47
-20.83
-27.26
-38.23
-52.83
-68.06
-80.24
-86.70
-86.98
-82.85
-77.42
-73.83
-73.98
-78.21
-85.50
-93.90
-101.33
-106.42
-108.72
-108.32
-105.03
-97.43
-83.08
-59.88
-28.04
8.84
44.48
72.62
89.70
96.20
95.63
91.85
86.96
80.69
71.84
60.28
47.95
38.01
32.93
32.95
35.96
38.78
38.89
35.40
28.95
20.94
12.58
4.44
-3.49
-11.61
-20.22
-29.27
-38.29
-46.52
-53.40
-58.87
-63.46
-68.03
-73.26
-79.05
-84.39
-87.67
-87.11
-81.41
-70.00
-53.11
-31.74
-7.59
17.29
40.67
60.61
75.82
85.92
91.26
92.65
90.95
86.92
81.36
75.14
69.26
64.59
61.44
59.39
57.47
54.73
50.73
45.83
40.95
37.04
34.54
33.18
32.13
30.45
27.41
22.67
16.32
8.69
0.43
-7.61
-14.47
-19.32
-21.54
-21.05
-18.39
-14.57
-10.93
-8.75
-8.88
-11.45
-15.60
-19.63
-21.50
-19.57
-13.18
-2.93
9.55
22.24
33.32
41.69
47.03
49.61
49.88
48.26
44.99
40.31
34.62
28.55
22.88
18.22
14.82
12.46
10.65
8.90
7.09
5.62
5.26
6.64
9.81
13.97
17.44
18.29
14.98
6.97
-4.87
-18.44
-30.92
-39.66
-42.94
-40.61
-34.07
-26.03
-19.69
-17.80
-21.96
-32.12
-46.54
-62.26
-75.72
-83.65
-83.84
-75.76
-60.66
-41.34
-21.30
-3.72
9.41
17.68
22.03
23.94
24.57
24.33
22.87
19.69
14.73
8.62
2.40
-2.99
-7.16
-10.31
-12.77
-14.61
-15.31
-14.14
-10.84
-6.18
-2.03
-0.74
-4.06
-12.23
-23.67
-35.53
-44.85
-49.72
-49.96
-46.99
-43.10
-40.54
-40.84
-44.48
-50.92
-58.73
-65.82
-69.69
-68.03
-59.43
-44.01
-23.75
-1.95
17.83
32.98
42.72
48.08
51.04
53.47
56.24
58.96
60.36
59.20
54.98
48.33
40.66
33.41
27.49
22.98
19.46
16.56
14.39
13.46
14.22
16.49
19.20
20.69
19.31
14.21
5.72
-4.70
-15.04
-23.49
-29.05
-31.79
-32.63
-32.88
-33.65
-35.54
-38.69
-43.01
-48.39
-54.56
-60.65
-64.78
-64.42
-57.47
-43.44
-24.26
-3.72
14.07
26.39
33.00
35.97
38.36
42.62
49.51
57.85
65.23
69.13
67.93
61.47
50.98
38.71
27.03
17.78
11.75
8.54
7.20
6.80
6.84
7.26
8.15
9.40
10.50
10.73
9.40
6.19
1.26
-4.64
-10.45
-14.97
-17.19
-16.60
-13.36
-8.38
-3.22
0.20
0.13
-4.40
-13.21
-24.60
-35.58
-42.65
-42.87
-34.92
-19.72
-0.28
19.35
35.47
45.96
50.97
52.44
53.04
54.86
58.58
63.26
67.03
67.98
65.13
58.79
50.41
41.93
35.13
30.97
29.38
29.52
30.13
29.94
28.06
24.20
18.61
11.86
4.48
-3.16
-10.85
-18.36
-25.28
-31.15
-35.55
-38.48
-40.41
-42.18
-44.66
-48.33
-53.08
-58.38
-63.51
-67.99
-71.72
-74.73
-76.80
-77.13
-74.44
-67.47
-55.72
-39.96
-22.23
-5.14
9.10
19.66
27.23
33.43
39.61
46.04
51.56
54.24
52.57
46.43
37.40
28.15
21.31
18.23
18.42
20.05
21.07
20.46
18.62
16.82
16.17
16.71
17.29
16.26
12.50
6.08
-1.86
-9.67
-16.12
-20.76
-23.90
-26.18
-28.36
-31.04
-34.75
-39.90
-46.69
-54.88
-63.59
-71.39
-76.44
-76.93
-71.61
-60.31
-44.23
-25.68
-7.41
8.35
20.52
29.46
36.32
42.32
47.92
52.74
55.90
56.62
54.82
51.18
46.98
43.46
41.36
40.70
40.82
40.77
39.75
37.39
33.90
29.87
25.96
22.58
19.66
16.67
12.84
7.50
0.52
-7.61
-15.85
-22.95
-27.95
-30.56
-31.15
-30.54
-29.63
-29.24
-30.14
-33.03
-38.46
-46.45
-56.02
-65.04
-70.60
-70.06
-62.08
-47.44
-28.77
-9.73
6.38
17.69
24.18
27.35
29.34
31.94
35.92
40.88
45.51
48.38
48.57
46.10
41.78
36.83
32.31
28.79
26.29
24.61
23.62
23.32
23.74
24.64
25.50
25.58
24.37
22.00
19.30
17.40
17.10
18.29
19.79
19.94
17.44
12.11
5.06
-1.71
-6.33
-7.98
-7.34
-6.29
-7.08
-11.17
-18.68
-28.22
-37.44
-43.94
-46.07
-43.37
-36.71
-27.78
-18.41
-9.98
-3.05
2.61
7.69
12.90
18.53
24.26
29.34
32.83
33.99
32.72
29.35
24.52
18.91
13.06
7.40
2.44
-1.11
-2.51
-1.27
2.34
7.22
11.75
14.36
14.22
11.60
7.62
3.73
1.01
-0.19
-0.32
-0.17
-0.37
-1.13
-2.15
-2.94
-3.10
-2.57
-1.68
-1.06
-1.46
-3.53
-7.61
-13.54
-20.51
-27.05
-31.28
-31.43
-26.45
-16.57
-3.38
10.67
23.07
32.16
37.58
40.20
41.44
42.51
43.84
44.89
44.60
42.04
36.83
29.30
20.15
9.95
-1.14
-13.25
-26.36
-39.87
-52.55
-62.86
-69.68
-72.80
-72.95
-71.29
-68.68
-65.11
-59.80
-51.75
-40.51
-26.73
-12.16
0.92
10.44
15.21
15.15
11.13
4.51
-3.40
-11.68
-19.99
-28.42
-37.23
-46.50
-55.83
-64.06
-69.37
-69.67
-63.33
-49.93
-30.77
-8.62
13.08
31.37
44.70
53.11
57.85
60.48
62.16
63.25
63.42
62.07
58.82
53.76
47.55
41.30
36.35
33.84
34.44
38.00
43.59
49.80
55.20
58.84
60.41
60.16
58.51
55.70
51.60
45.73
37.53
26.74
13.72
-0.45
-14.00
-24.98
-31.71
-33.43
-30.69
-25.41
-20.45
-18.87
-22.97
-33.59
-49.62
-68.17
-85.13
-96.19
-98.01
-89.23
-70.93
-46.26
-19.44
5.64
26.42
41.96
52.45
58.47
60.41
58.49
53.10
45.12
35.83
26.54
18.06
10.68
4.40
-0.50
-3.29
-2.97
1.04
8.40
17.73
27.05
34.59
39.39
41.46
41.59
40.69
39.33
37.52
34.93
31.20
26.36
20.97
15.91
11.94
9.17
6.81
3.20
-3.50
-14.55
-29.99
-48.37
-67.17
-83.67
-95.75
-102.31
-103.20
-98.69
-89.13
-74.97
-57.29
-38.15
-20.64
-8.12
-3.07
-6.12
-15.71
-28.76
-41.85
-52.36
-59.19
-62.61
-63.55
-62.89
-61.14
-58.56
-55.38
-52.44
-51.17
-53.04
-58.57
-66.32
-72.68
-72.94
-63.28
-42.92
-15.22
13.27
35.30
45.89
44.21
33.33
18.26
3.46
-8.82
-18.46
-25.95
-31.04
-32.06
-26.85
-14.31
4.49
26.29
46.75
62.20
71.15
74.47
74.38
73.28
72.46
71.72
69.98
66.20
60.26
53.09
46.23
41.01
37.93
36.36
34.99
32.56
28.50
23.32
18.38
15.16
14.52
16.26
19.11
21.26
21.07
17.67
11.19
2.57
-6.77
-15.39
-22.11
-26.41
-28.50
-29.36
-30.47
-33.32
-38.62
-45.88
-53.16
-57.72
-56.96
-49.52
-35.88
-18.29
0.13
16.46
28.89
36.96
41.24
42.63
41.76
38.90
34.23
28.28
22.13
17.21
14.68
14.88
17.09
19.73
21.10
20.01
16.34
10.97
5.32
0.71
-2.26
-3.86
-5.06
-6.99
-10.43
-15.56
-21.92
-28.77
-35.34
-40.98
-45.02
-46.86
-46.03
-42.62
-37.38
-31.69
-27.07
-24.46
-23.77
-23.81
-22.90
-19.60
-13.33
-4.55
5.56
15.65
24.70
32.08
37.64
41.36
43.17
43.07
41.10
37.55
32.90
27.85
22.97
18.39
13.96
9.25
4.04
-1.52
-6.88
-11.41
-14.88
-17.83
-21.06
-25.60
-32.27
-41.33
-52.35
-64.45
-76.78
-88.87
-100.61
-111.93
-122.91
-133.80
-145.03
-157.03
-170.13
-184.50
-200.11
-216.77
-233.38
-248.85
-262.36
-273.31
-280.92
-284.08
-281.54
-272.30
-255.91
-230.86
-196.98
-156.19
-111.84
-67.20
-24.40
15.69
53.10
88.33
125.92
168.89
216.54
264.54
307.55
341.40
363.88
374.66
374.97
372.89
374.67
381.52
390.23
397.46
402.42
406.32
410.48
415.07
426.76
449.14
480.33
514.49
546.91
576.50
604.51
632.15
610.69
515.86
360.44
185.46
27.95
-95.80
-185.60
-247.92
-290.11
-318.18
-329.24
-323.12
-306.65
-291.90
-288.74
-299.12
-316.92
-332.09
-336.06
-320.03
-284.14
-237.70
-193.84
-161.65
-142.52
-132.38
-126.44
-122.27
-116.56
-108.57
-99.73
-92.27
-87.15
-83.76
-80.31
-76.52
-72.83
-67.85
-60.21
-49.01
-34.23
-16.58
1.49
16.79
25.31
24.28
14.53
-0.16
-14.54
-24.28
-27.56
-25.22
-19.55
-12.91
-6.42
0.21
7.22
14.29
20.23
23.54
23.32
19.92
14.53
8.64
3.36
-1.11
-5.15
-9.22
-13.50
-17.62
-20.87
-22.61
-22.55
-20.97
-18.56
-16.05
-13.98
-12.59
-11.82
-11.46
-11.31
-11.21
-11.00
-10.53
-9.63
-8.30
-6.68
-5.02
-3.55
-2.42
-1.55
-0.80
-0.06
0.68
1.39
1.97
2.33
2.53
2.70
2.95
3.25
3.41
3.20
2.48
1.30
-0.08
-1.32
-2.10
-2.25
-1.77
-0.75
0.65
2.24
3.82
5.18
6.21
6.92
7.41
7.81
8.16
8.38
8.25
7.57
6.23
4.31
2.02
-0.43
-2.90
-5.37
-7.77
-10.02
-11.96
-13.47
-14.59
-15.51
-16.46
-17.54
-18.69
-19.65
-20.13
-19.92
-19.03
-17.49
-15.38
-12.69
-9.41
-5.73
-1.99
1.32
3.76
5.15
5.64
5.62
5.53
5.70
6.22
7.00
7.83
8.51
8.93
9.09
9.07
9.00
8.95
8.94
8.92
8.84
8.69
8.55
8.54
8.79
9.32
10.03
10.73
11.18
11.21
10.71
9.73
8.38
6.79
5.12
3.45
1.77
0.08
-1.66
-3.49
-5.36
-7.18
-8.83
-10.18
-11.16
-11.74
-11.91
-11.70
-11.10
-10.11
-8.73
-6.99
-4.99
-2.86
-0.77
1.15
2.86
4.36
5.67
6.80
7.66
8.09
7.95
7.17
5.82
4.14
2.41
0.90
-0.24
-1.01
-1.50
-1.83
-2.04
-2.14
-2.06
-1.79
-1.37
-0.94
-0.61
-0.46
-0.50
-0.72
-1.03
-1.39
-1.77
-2.16
-2.61
-3.16
-3.92
-4.93
-6.19
-7.55
-8.83
-9.83
-10.40
-10.53
-10.27
-9.67
-8.68
-7.24
-5.27
-2.83
-0.15
2.41
4.48
5.82
6.40
6.39
6.04
5.57
5.07
4.56
3.98
3.32
2.69
2.24
2.13
2.44
3.13
4.00
4.80
5.33
5.42
5.06
4.33
3.37
2.33
1.27
0.21
-0.91
-2.14
-3.52
-5.03
-6.66
-8.40
-10.23
-12.08
-13.78
-15.08
-15.75
-15.61
-14.57
-12.71
-10.20
-7.27
-4.18
-1.14
1.63
4.01
6.00
7.69
9.19
10.53
11.68
12.53
13.01
13.10
12.83
12.23
11.25
9.84
7.98
5.72
3.20
0.54
-2.20
-5.03
-8.00
-11.10
-14.15
-16.90
-19.03
-20.34
-20.77
-20.33
-19.12
-17.22
-14.72
-11.68
-8.27
-4.70
-1.19
2.00
4.67
6.66
7.87
8.24
7.74
6.38
4.22
1.45
-1.64
-4.58
-6.90
-8.22
-8.32
-7.23
-5.12
-2.26
1.04
4.51
7.89
10.89
13.32
15.06
16.13
16.68
16.88
16.90
16.79
16.63
16.43
16.21
16.00
15.72
15.24
14.38
13.00
11.03
8.55
5.74
2.80
-0.08
-2.77
-5.16
-7.17
-8.72
-9.75
-10.24
-10.21
-9.79
-9.11
-8.35
-7.68
-7.22
-7.07
-7.21
-7.62
-8.19
-8.86
-9.60
-10.38
-11.24
-12.15
-13.07
-13.92
-14.64
-15.18
-15.57
-15.83
-15.97
-15.99
-15.83
-15.46
-14.92
-14.26
-13.54
-12.74
-11.75
-10.40
-8.52
-6.06
-3.15
-0.09
2.77
5.22
7.23
8.91
10.45
11.94
13.37
14.60
15.51
16.08
16.39
16.56
16.65
16.61
16.26
15.45
14.12
12.31
10.21
8.05
6.05
4.37
3.05
2.08
1.37
0.80
0.28
-0.22
-0.68
-1.05
-1.27
-1.31
-1.18
-0.89
-0.46
0.09
0.70
1.30
1.76
1.96
1.83
1.44
0.89
0.36
-0.07
-0.38
-0.62
-0.83
-1.02
-1.15
-1.21
-1.21
-1.22
-1.34
-1.54
-1.74
-1.77
-1.51
-0.92
-0.10
0.84
1.71
2.41
2.87
3.04
2.92
2.53
1.97
1.35
0.80
0.39
0.07
-0.25
-0.68
-1.26
-1.97
-2.67
-3.26
-3.63
-3.77
-3.75
-3.68
-3.67
-3.77
-3.96
-4.12
-4.13
-3.88
-3.32
-2.47
-1.41
-0.24
0.91
1.90
2.63
3.04
3.10
2.93
2.66
2.48
2.44
2.53
2.60
2.50
2.14
1.53
0.82
0.17
-0.23
-0.31
-0.13
0.12
0.25
0.12
-0.23
-0.61
-0.78
-0.59
-0.06
0.62
1.21
1.56
1.70
1.78
1.96
2.24
2.52
2.63
2.47
2.12
1.73
1.48
1.45
1.59
1.79
1.93
1.98
1.99
2.03
2.12
2.25
2.31
2.24
2.02
1.72
1.46
1.34
1.33
1.31
1.07
0.49
-0.37
-1.26
-1.81
-1.75
-1.06
0.03
1.13
1.83
1.91
1.38
0.45
-0.59
-1.50
-2.13
-2.42
-2.42
-2.17
-1.72
-1.11
-0.37
0.39
1.04
1.41
1.40
1.09
0.67
0.46
0.69
1.40
2.44
3.49
4.30
4.70
4.71
4.39
3.81
3.02
2.05
0.93
-0.24
-1.34
-2.28
-3.02
-3.58
-3.96
-4.16
-4.13
-3.81
-3.21
-2.41
-1.53
-0.70
0.01
0.59
1.04
1.39
1.69
1.94
2.18
2.45
2.76
3.11
3.44
3.65
3.69
3.52
3.14
2.60
1.95
1.24
0.48
-0.31
-1.14
-1.97
-2.71
-3.28
-3.63
-3.79
-3.86
-3.99
-4.35
-5.02
-5.95
-6.97
-7.87
-8.47
-8.70
-8.62
-8.41
-8.29
-8.46
-9.03
-9.98
-11.13
-12.25
-13.06
-13.33
-12.96
-11.99
-10.54
-8.85
-7.03
-5.08
-2.90
-0.39
2.39
5.21
7.63
9.19
9.59
8.78
6.92
4.30
1.17
-2.33
-6.08
-9.98
-13.71
-16.88
-19.02
-19.75
-18.92
-16.67
-13.33
-9.30
-4.98
-0.72
3.18
6.46
8.93
10.54
11.38
11.62
11.45
10.98
10.24
9.23
7.96
6.53
5.03
3.47
1.73
-0.27
-2.54
-4.87
-6.88
-8.19
-8.52
-7.85
-6.30
-4.13
-1.58
1.13
3.87
6.48
8.83
10.79
12.27
13.23
13.72
13.75
13.39
12.72
11.82
10.80
9.76
8.74
7.72
6.60
5.22
3.45
1.23
-1.38
-4.24
-7.13
-9.83
-12.13
-13.88
-14.98
-15.31
-14.78
-13.35
-11.05
-8.09
-4.76
-1.45
1.49
3.85
5.59
6.80
7.62
8.16
8.44
8.48
8.34
8.05
7.69
7.32
6.97
6.62
6.21
5.68
4.95
3.98
2.66
0.92
-1.25
-3.73
-6.25
-8.45
-9.98
-10.59
-10.21
-8.90
-6.84
-4.22
-1.26
1.86
4.94
7.78
10.22
12.18
13.61
14.49
14.81
14.56
13.86
12.90
11.95
11.23
10.78
10.47
10.01
9.16
7.81
6.10
4.30
2.65
1.32
0.32
-0.44
-1.06
-1.57
-1.98
-2.27
-2.46
-2.59
-2.73
-2.90
-3.03
-3.03
-2.77
-2.20
-1.40
-0.55
0.17
0.63
0.87
1.04
1.27
1.67
2.20
2.72
3.11
3.30
3.33
3.30
3.27
3.26
3.22
3.10
2.89
2.64
2.42
2.23
2.04
1.77
1.37
0.84
0.30
-0.14
-0.36
-0.35
-0.15
0.10
0.27
0.29
0.14
-0.17
-0.58
-1.03
-1.50
-1.95
-2.37
-2.69
-2.86
-2.82
-2.59
-2.25
-1.92
-1.71
-1.63
-1.65
-1.65
-1.58
-1.43
-1.23
-1.02
-0.81
-0.56
-0.24
0.11
0.41
0.54
0.40
-0.02
-0.66
-1.36
-2.00
-2.44
-2.69
-2.81
-2.92
-3.14
-3.59
-4.23
-4.87
-5.18
-4.75
-3.31
-0.77
2.69
6.66
10.70
14.58
18.37
22.32
26.65
31.26
35.65
39.00
40.36
38.99
34.75
28.19
20.48
13.09
7.40
4.46
4.77
8.16
13.90
21.08
28.68
35.92
42.13
46.73
49.24
49.36
47.00
42.31
35.91
28.61
21.42
15.29
11.04
9.56
11.58
17.03
23.21
25.70
19.56
2.27
-24.33
-54.99
-83.40
-104.61
-116.41
-119.07
-113.85
-101.73
-83.27
-59.69
-34.14
-11.58
2.74
5.53
-3.00
-19.04
-36.86
-51.17
-58.82
-59.50
-55.00
-47.94
-40.73
-35.22
-32.51
-33.06
-36.77
-42.70
-48.59
-50.76
-44.97
-28.19
-0.70
32.84
64.38
85.21
89.40
76.16
50.03
18.67
-10.27
-31.73
-44.15
-48.53
-46.84
-40.88
-31.82
-20.73
-9.06
1.31
8.60
11.76
11.17
8.55
6.56
7.89
14.32
26.08
41.72
58.71
73.70
84.03
88.45
87.38
82.50
76.06
69.88
64.20
58.68
51.67
41.50
27.45
10.24
-8.27
-25.80
-40.45
-51.32
-58.44
-62.23
-63.08
-61.02
-55.98
-48.22
-38.62
-28.63
-19.67
-12.58
-7.32
-3.12
0.93
5.36
9.95
13.89
16.18
16.15
13.80
9.61
4.38
-1.00
-5.71
-9.18
-11.03
-11.21
-10.00
-7.88
-5.53
-3.52
-2.23
-1.65
-1.60
-1.74
-1.80
-1.66
-1.32
-0.86
-0.37
0.04
0.30
0.32
0.15
-0.11
-0.32
-0.37
-0.21
0.16
0.67
1.24
1.82
2.38
2.91
3.38
3.75
3.97
4.06
4.06
4.07
4.18
4.40
4.68
4.92
5.05
4.91
4.50
3.96
3.44
3.08
2.87
2.71
2.39
1.73
0.65
-0.79
-2.41
-4.03
-5.51
-6.77
-7.84
-8.76
-9.58
-10.31
-10.95
-11.47
-11.80
-11.90
-11.73
-11.31
-10.73
-10.11
-9.51
-8.86
-7.96
-6.53
-4.39
-1.52
1.90
5.53
9.03
12.12
14.57
16.29
17.18
17.19
16.32
14.68
12.48
10.04
7.66
5.56
3.83
2.40
1.13
-0.14
-1.43
-2.63
-3.54
-3.98
-3.96
-3.65
-3.31
-3.11
-3.01
-2.86
-2.53
-2.09
-1.79
-2.00
-2.90
-4.44
-6.31
-8.10
-9.52
-10.49
-11.09
-11.43
-11.56
-11.42
-10.94
-10.05
-8.76
-7.14
-5.30
-3.36
-1.37
0.63
2.62
4.59
6.49
8.23
9.66
10.69
11.28
11.54
11.61
11.60
11.58
11.51
11.36
11.10
10.75
10.38
9.99
9.57
9.02
8.30
7.38
6.30
5.15
4.01
2.93
1.90
0.90
-0.05
-0.89
-1.55
-1.96
-2.15
-2.22
-2.28
-2.33
-2.25
-1.89
-1.14
-0.06
1.19
2.41
3.49
4.45
5.33
6.13
6.72
6.93
6.62
5.87
4.83
3.75
2.77
1.88
0.99
0.05
-0.90
-1.69
-2.12
-2.11
-1.70
-1.05
-0.40
0.12
0.52
0.89
1.36
1.97
2.61
3.12
3.34
3.22
2.82
2.24
1.56
0.75
-0.29
-1.67
-3.41
-5.37
-7.35
-9.09
-10.37
-11.05
-11.10
-10.62
-9.80
-8.89
-8.01
-7.19
-6.27
-5.04
-3.41
-1.42
0.66
2.54
3.94
4.81
5.20
5.25
5.07
4.69
4.14
3.51
2.96
2.61
2.52
2.56
2.52
2.24
1.67
0.95
0.29
-0.12
-0.22
-0.14
-0.04
-0.05
-0.16
-0.30
-0.41
-0.51
-0.74
-1.22
-1.99
-2.96
-3.98
-4.91
-5.72
-6.41
-7.03
-7.56
-7.89
-7.90
-7.56
-6.93
-6.19
-5.47
-4.81
-4.14
-3.32
-2.28
-1.06
0.17
1.18
1.86
2.21
2.32
2.28
2.09
1.72
1.15
0.48
-0.07
-0.33
-0.23
0.04
0.27
0.20
-0.22
-0.88
-1.56
-2.07
-2.31
-2.26
-1.99
-1.64
-1.36
-1.32
-1.62
-2.20
-2.91
-3.53
-3.94
-4.14
-4.27
-4.44
-4.70
-4.96
-5.12
-5.14
-5.10
-5.08
-5.17
-5.35
-5.48
-5.43
-5.03
-4.17
-2.82
-1.08
0.86
2.68
4.12
5.08
5.67
6.12
6.61
7.13
7.53
7.66
7.49
7.23
7.15
7.36
7.75
8.02
7.89
7.33
6.56
5.88
5.47
5.24
4.95
4.37
3.48
2.47
1.63
1.14
0.96
0.89
0.72
0.32
-0.24
-0.81
-1.28
-1.62
-1.98
-2.49
-3.23
-4.13
-5.03
-5.74
-6.14
-6.26
-6.19
-6.02
-5.78
-5.44
-4.90
-4.10
-3.06
-1.89
-0.69
0.39
1.27
1.90
2.25
2.37
2.36
2.39
2.59
3.08
3.81
4.61
5.21
5.39
5.07
4.33
3.41
2.56
1.93
1.47
0.97
0.20
-0.99
-2.52
-4.16
-5.57
-6.52
-6.94
-6.98
-6.87
-6.86
-7.06
-7.49
-8.02
-8.53
-8.92
-9.15
-9.16
-8.91
-8.37
-7.51
-6.38
-5.08
-3.73
-2.38
-1.09
0.15
1.33
2.41
3.33
4.01
4.41
4.53
4.44
4.26
4.09
4.02
4.07
4.21
4.32
4.26
3.91
3.31
2.62
2.07
1.86
2.01
2.35
2.62
2.58
2.14
1.40
0.52
-0.38
-1.27
-2.23
-3.32
-4.56
-5.85
-7.02
-7.96
-8.67
-9.25
-9.86
-10.62
-11.52
-12.43
-13.11
-13.35
-13.03
-12.16
-10.87
-9.37
-7.80
-6.27
-4.79
-3.33
-1.89
-0.48
0.86
2.06
3.05
3.80
4.28
4.54
4.66
4.75
4.88
5.08
5.32
5.55
5.77
5.97
6.18
6.40
6.60
6.67
6.54
6.14
5.51
4.75
4.03
3.42
2.98
2.61
2.25
1.82
1.33
0.80
0.30
-0.16
-0.66
-1.28
-2.14
-3.19
-4.24
-4.97
-5.10
-4.45
-3.06
-1.18
0.85
2.71
4.26
5.48
6.52
7.47
8.37
9.12
9.56
9.62
9.31
8.77
8.20
7.72
7.37
7.07
6.75
6.38
6.05
5.87
5.91
6.10
6.24
6.08
5.49
4.44
3.06
1.55
0.04
-1.37
-2.67
-3.86
-4.93
-5.87
-6.62
-7.17
-7.54
-7.86
-8.22
-8.73
-9.45
-10.31
-11.16
-11.75
-11.84
-11.31
-10.25
-8.80
-7.12
-5.33
-3.42
-1.39
0.79
3.04
5.15
6.85
7.98
8.46
8.30
7.64
6.69
5.79
5.22
5.10
5.24
5.37
5.26
4.70
3.67
2.29
1.12
0.60
0.80
1.33
1.76
1.83
1.29
0.08
-1.69
-3.11
-3.40
-2.29
-0.39
1.66
3.26
3.70
2.62
0.31
-1.40
-0.76
3.15
9.45
17.13
25.17
32.42
38.41
43.89
51.55
63.57
81.02
102.39
126.43
152.10
177.68
201.50
213.07
204.62
176.13
136.45
93.67
53.09
16.43
-18.16
-54.90
-95.34
-137.64
-180.20
-221.93
-266.20
-307.63
-330.23
-324.35
-290.60
-238.46
-179.21
-131.24
-94.53
-69.37
-55.97
-55.36
-66.59
-88.63
-116.41
-134.50
-129.03
-94.28
-39.29
20.65
71.48
104.61
118.97
119.87
115.06
109.26
104.34
98.54
91.16
83.34
76.79
73.02
72.68
75.17
77.85
78.34
74.63
67.30
58.68
51.05
45.93
43.86
44.51
46.31
47.50
45.85
39.64
28.44
11.96
-8.36
-29.28
-46.58
-56.95
-59.08
-54.24
-45.49
-36.30
-29.19
-25.16
-23.99
-24.85
-27.08
-30.26
-33.90
-37.18
-39.05
-38.60
-35.57
-30.92
-26.35
-23.55
-23.23
-24.42
-24.60
-20.31
-8.07
14.11
44.29
77.42
106.87
127.13
136.00
134.54
126.34
115.90
106.48
98.92
91.94
82.86
68.92
48.38
22.17
-8.90
-42.03
-73.45
-99.73
-118.54
-129.02
-131.64
-125.46
-112.89
-97.06
-80.42
-64.62
-50.65
-38.88
-29.08
-20.66
-13.02
-5.95
0.80
7.25
13.11
17.92
21.29
23.03
23.22
21.95
19.15
15.03
10.06
4.78
-0.41
-5.35
-10.08
-14.71
-19.25
-23.85
-28.04
-31.09
-32.24
-31.14
-28.04
-23.80
-19.79
-17.39
-17.49
-20.02
-23.97
-27.75
-29.93
-29.69
-26.82
-21.62
-14.55
-6.09
3.22
12.50
20.78
27.15
31.21
33.29
34.17
34.64
35.12
35.53
35.48
34.75
33.53
32.31
31.58
31.41
31.43
31.01
29.63
27.21
24.07
20.84
18.12
16.25
15.04
14.15
13.09
11.69
10.14
8.86
8.26
8.47
9.25
10.01
10.15
9.26
7.31
4.66
1.87
-0.57
-2.39
-3.55
-4.16
-4.34
-4.20
-3.78
-3.15
-2.43
-1.78
-1.35
-1.20
-1.34
-1.64
-1.95
-2.12
-1.93
-1.23
0.11
2.03
4.34
6.71
8.82
10.45
11.53
12.16
12.39
12.24
11.62
10.40
8.49
5.97
3.02
-0.04
-2.89
-5.30
-7.09
-8.24
-8.87
-9.18
-9.44
-9.88
-10.55
-11.32
-11.85
-11.71
-10.61
-8.50
-5.56
-2.13
1.42
4.76
7.60
9.69
10.81
10.84
9.80
7.91
5.53
2.99
0.49
-1.92
-4.28
-6.59
-8.78
-10.66
-12.04
-12.78
-12.78
-12.03
-10.53
-8.34
-5.56
-2.40
0.86
3.94
6.54
8.54
9.89
10.66
11.01
11.14
11.25
11.47
11.86
12.31
12.62
12.56
11.91
10.61
8.77
6.60
4.35
2.22
0.27
-1.56
-3.37
-5.22
-7.09
-8.86
-10.43
-11.67
-12.58
-13.16
-13.42
-13.35
-12.87
-11.90
-10.40
-8.39
-6.03
-3.51
-1.06
1.13
2.91
4.19
4.94
5.23
5.18
4.96
4.67
4.32
3.86
3.20
2.39
1.55
0.91
0.62
0.70
0.98
1.28
1.43
1.41
1.32
1.24
1.23
1.27
1.33
1.40
1.49
1.57
1.58
1.39
0.85
-0.09
-1.38
-2.91
-4.53
-6.13
-7.60
-8.87
-9.80
-10.27
-10.12
-9.26
-7.73
-5.67
-3.36
-1.12
0.82
2.29
3.29
3.91
4.29
4.55
4.77
4.98
5.20
5.41
5.53
5.43
4.99
4.08
2.67
0.82
-1.35
-3.73
-6.21
-8.72
-11.14
-13.33
-15.11
-16.32
-16.88
-16.75
-15.97
-14.59
-12.64
-10.21
-7.45
-4.55
-1.78
0.59
2.35
3.35
3.54
3.02
2.00
0.82
-0.26
-1.09
-1.77
-2.63
-4.06
-6.31
-9.39
-12.98
-16.55
-19.57
-21.67
-22.80
-23.18
-23.21
-23.23
-23.37
-23.47
-23.08
-21.69
-18.89
-14.50
-8.67
-1.84
5.36
12.14
17.76
21.69
23.82
24.59
24.83
25.45
26.82
28.46
29.10
27.23
21.83
13.02
2.14
-8.67
-17.23
-22.04
-22.65
-19.57
-13.91
-6.87
0.52
7.56
13.80
18.92
22.70
25.03
25.94
25.68
24.69
23.47
22.38
21.56
20.84
19.93
18.56
16.63
14.21
11.57
9.01
6.74
4.84
3.23
1.68
0.00
-1.85
-3.73
-5.33
-6.32
-6.56
-6.17
-5.49
-4.93
-4.80
-5.15
-5.85
-6.64
-7.28
-7.65
-7.72
-7.60
-7.38
-7.12
-6.81
-6.43
-5.93
-5.36
-4.76
-4.22
-3.74
-3.31
-2.89
-2.42
-1.91
-1.40
-0.94
-0.56
-0.24
0.07
0.42
0.82
1.23
1.58
1.84
2.02
2.19
2.46
2.88
3.44
4.03
4.45
4.48
3.95
2.79
1.08
-0.99
-3.19
-5.26
-7.00
-8.34
-9.24
-9.73
-9.83
-9.54
-8.88
-7.91
-6.72
-5.46
-4.21
-3.01
-1.81
-0.56
0.75
2.03
3.15
3.94
4.31
4.24
3.81
3.13
2.36
1.58
0.82
0.08
-0.68
-1.48
-2.28
-2.95
-3.34
-3.32
-2.79
-1.75
-0.29
1.41
3.10
4.55
5.53
5.95
5.85
5.38
4.73
4.04
3.33
2.60
1.79
0.91
0.02
-0.82
-1.56
-2.21
-2.78
-3.27
-3.68
-4.01
-4.29
-4.62
-5.07
-5.64
-6.25
-6.75
-7.02
-7.00
-6.77
-6.42
-6.04
-5.64
-5.16
-4.51
-3.69
-2.71
-1.68
-0.72
0.11
0.76
1.25
1.63
1.95
2.25
2.58
2.96
3.41
3.91
4.39
4.75
4.93
4.90
4.68
4.35
3.96
3.54
3.04
2.46
1.86
1.38
1.16
1.26
1.63
2.05
2.28
2.23
1.95
1.64
1.49
1.55
1.70
1.72
1.44
0.83
0.04
-0.72
-1.26
-1.51
-1.55
-1.49
-1.44
-1.43
-1.42
-1.35
-1.20
-0.94
-0.58
-0.16
0.31
0.82
1.38
2.05
2.87
3.87
4.96
6.02
6.88
7.40
7.51
7.21
6.49
5.35
3.75
1.65
-0.83
-3.50
-6.08
-8.33
-10.12
-11.41
-12.19
-12.41
-11.92
-10.53
-8.10
-4.68
-0.53
3.96
8.37
12.37
15.74
18.39
20.30
21.45
21.83
21.50
20.54
19.13
17.46
15.69
13.88
11.97
9.85
7.47
4.86
2.17
-0.37
-2.58
-4.37
-5.80
-7.00
-8.14
-9.32
-10.53
-11.73
-12.81
-13.70
-14.34
-14.72
-14.85
-14.77
-14.56
-14.31
-14.06
-13.82
-13.55
-13.22
-12.79
-12.27
-11.65
-10.97
-10.24
-9.49
-8.75
-8.06
-7.46
-6.98
-6.61
-6.30
-6.04
-5.86
-5.83
-6.10
-6.78
-7.89
-9.34
-10.93
-12.39
-13.46
-13.89
-13.48
-12.11
-9.76
-6.54
-2.73
1.25
4.97
8.06
10.34
11.83
12.66
13.05
13.16
13.12
12.99
12.77
12.48
12.08
11.52
10.76
9.83
8.77
7.64
6.49
5.35
4.20
3.01
1.76
0.42
-1.00
-2.50
-3.98
-5.28
-6.15
-6.37
-5.85
-4.63
-2.89
-0.88
1.20
3.20
4.97
6.34
7.12
7.11
6.23
4.51
2.07
-0.93
-4.32
-7.91
-11.47
-14.66
-17.10
-18.47
-18.57
-17.44
-15.29
-12.39
-8.98
-5.26
-1.37
2.58
6.43
10.00
13.15
15.76
17.77
19.16
19.89
19.90
19.17
17.79
15.87
13.62
11.22
8.81
6.44
4.09
1.73
-0.64
-2.98
-5.17
-7.05
-8.41
-9.06
-8.88
-7.83
-6.02
-3.67
-1.05
1.60
4.11
6.41
8.43
10.08
11.30
12.00
12.18
11.87
11.11
9.92
8.31
6.29
3.91
1.35
-1.13
-3.19
-4.61
-5.29
-5.27
-4.65
-3.54
-2.01
-0.07
2.24
4.88
7.65
10.29
12.51
14.11
14.96
15.05
14.43
13.22
11.59
9.63
7.42
5.12
2.93
0.99
-0.69
-2.19
-3.69
-5.27
-7.11
-9.33
-11.85
-14.42
-16.68
-18.39
-19.30
-19.16
-17.68
-14.90
-11.12
-6.70
-2.01
2.53
6.35
8.84
9.46
7.87
3.57
-3.79
-13.94
-26.07
-38.96
-51.49
-62.83
-72.47
-77.86
-76.92
-69.33
-56.74
-41.81
-26.65
-12.39
0.52
11.91
21.70
30.04
36.62
41.24
43.99
45.19
45.25
44.57
43.52
42.45
41.53
39.48
36.16
31.93
27.40
23.03
19.10
15.68
12.81
10.39
8.22
6.39
4.97
3.99
3.37
2.97
2.70
2.50
2.25
1.77
1.07
0.21
-0.69
-1.49
-2.11
-2.55
-2.85
-3.14
-3.55
-4.07
-4.65
-5.19
-5.58
-5.77
-5.71
-5.42
-4.94
-4.32
-3.60
-2.82
-2.06
-1.41
-0.97
-0.80
-0.88
-1.17
-1.57
-1.99
-2.37
-2.72
-3.09
-3.50
-3.94
-4.36
-4.71
-4.97
-5.14
-5.24
-5.26
-5.20
-5.02
-4.71
-4.25
-3.67
-3.04
-2.42
-1.87
-1.45
-1.16
-0.96
-0.77
-0.52
-0.14
0.38
0.99
1.61
2.17
2.62
2.96
3.18
3.25
3.13
2.80
2.30
1.71
1.11
0.57
0.11
-0.28
-0.64
-0.92
-1.11
-1.19
-1.16
-1.09
-1.03
-0.98
-0.93
-0.83
-0.68
-0.55
-0.55
-0.72
-1.07
-1.48
-1.80
-1.93
-1.82
-1.56
-1.28
-1.08
-1.00
-0.97
-0.93
-0.80
-0.58
-0.34
-0.11
0.06
0.18
0.29
0.42
0.59
0.78
0.98
1.14
1.22
1.20
1.09
0.90
0.68
0.47
0.32
0.22
0.16
0.14
0.13
0.15
0.19
0.25
0.33
0.40
0.46
0.48
0.47
0.40
0.23
-0.04
-0.42
-0.89
-1.39
-1.89
-2.34
-2.70
-2.97
-3.15
-3.23
-3.24
-3.14
-2.92
-2.53
-1.98
-1.34
-0.75
-0.32
-0.09
0.00
0.10
0.35
0.80
1.36
1.90
2.28
2.48
2.56
2.63
2.79
3.02
3.27
3.44
3.50
3.50
3.51
3.58
3.68
3.75
3.74
3.64
3.50
3.43
3.48
3.65
3.88
4.05
4.10
4.02
3.86
3.68
3.53
3.40
3.29
3.18
3.11
3.18
3.55
4.29
5.40
6.72
8.01
9.08
9.86
10.47
11.23
12.64
15.03
18.44
22.54
26.63
30.06
32.34
33.47
33.90
34.51
35.93
38.32
41.17
43.56
44.67
44.11
41.98
38.83
35.34
31.77
27.97
23.62
18.49
12.37
4.52
-6.84
-24.51
-48.64
-76.91
-103.97
-123.78
-132.57
-129.97
-118.47
-102.03
-84.45
-68.05
-53.72
-41.35
-30.80
-22.30
-16.20
-12.57
-10.97
-10.43
-9.72
-8.01
-5.17
-1.77
1.28
3.31
4.10
3.92
3.31
2.91
3.03
3.62
4.34
4.81
4.87
4.63
4.28
3.98
3.73
3.36
2.66
1.51
0.07
-1.26
-2.08
-2.22
-1.88
-1.52
-1.66
-2.59
-4.38
-6.87
-9.69
-12.30
-13.99
-13.77
-10.81
-4.81
3.35
11.56
17.34
19.02
16.66
12.12
8.13
6.82
8.66
12.45
15.96
17.30
15.80
12.10
7.57
3.39
-0.00
-2.78
-5.36
-7.82
-9.62
-9.99
-8.33
-4.63
0.42
5.58
9.73
12.30
13.46
14.02
14.80
16.41
19.00
22.32
25.85
29.10
31.73
33.37
34.17
34.16
33.29
31.44
28.43
24.09
18.37
11.49
3.87
-3.77
-10.78
-16.53
-20.68
-23.30
-24.59
-24.85
-24.37
-23.33
-21.76
-19.71
-17.23
-14.47
-11.65
-8.99
-6.64
-4.67
-3.03
-1.60
-0.27
1.00
2.21
3.31
4.24
4.93
5.30
5.36
5.19
4.91
4.67
4.55
4.57
4.67
4.72
4.66
4.51
4.35
4.26
4.28
4.37
4.40
4.29
3.98
3.52
3.01
2.54
2.15
1.84
1.57
1.31
1.01
0.66
0.22
-0.25
-0.82
-1.59
-2.72
-4.27
-6.16
-8.13
-9.78
-10.72
-10.69
-9.70
-8.00
-5.93
-3.83
-1.85
-0.01
1.77
3.53
5.18
6.56
7.51
7.93
7.86
7.42
6.73
5.88
4.85
3.63
2.19
0.57
-1.13
-2.72
-4.05
-4.96
-5.36
-5.27
-4.79
-4.13
-3.49
-3.01
-2.73
-2.58
-2.47
-2.36
-2.24
-2.25
-2.51
-3.13
-4.17
-5.65
-7.53
-9.71
-12.04
-14.23
-15.92
-16.70
-16.27
-14.51
-11.57
-7.86
-3.86
-0.04
3.33
6.22
8.74
11.07
13.26
15.19
16.65
17.46
17.58
17.11
16.30
15.37
14.42
13.41
12.23
10.81
9.20
7.62
6.29
5.37
4.83
4.50
4.14
3.61
2.88
2.05
1.29
0.65
0.11
-0.44
-1.10
-1.91
-2.77
-3.59
-4.26
-4.80
-5.32
-6.02
-7.00
-8.22
-9.45
-10.34
-10.53
-9.84
-8.24
-5.92
-3.18
-0.28
2.61
5.42
8.14
10.78
13.24
15.42
17.14
18.26
18.73
18.53
17.76
16.50
14.89
13.03
11.07
9.14
7.40
5.95
4.84
4.03
3.48
3.09
2.81
2.64
2.54
2.45
2.29
1.99
1.48
0.68
-0.47
-2.04
-4.05
-6.39
-8.87
-11.27
-13.37
-15.08
-16.37
-17.24
-17.68
-17.58
-16.84
-15.44
-13.51
-11.26
-8.93
-6.68
-4.53
-2.47
-0.50
1.28
2.72
3.66
4.04
4.02
3.82
3.73
3.88
4.27
4.75
5.11
5.27
5.19
4.95
4.62
4.27
3.91
3.53
3.06
2.49
1.79
1.01
0.19
-0.54
-1.13
-1.58
-2.05
-2.80
-4.09
-5.99
-8.31
-10.67
-12.61
-13.84
-14.30
-14.13
-13.49
-12.49
-11.09
-9.23
-6.93
-4.38
-1.87
0.31
2.06
3.44
4.60
5.66
6.57
7.22
7.45
7.25
6.75
6.21
5.86
5.76
5.81
5.79
5.50
4.91
4.15
3.42
2.91
2.63
2.49
2.31
1.97
1.42
0.68
-0.18
-1.13
-2.19
-3.41
-4.82
-6.38
-7.96
-9.41
-10.56
-11.33
-11.71
-11.81
-11.71
-11.51
-11.21
-10.76
-10.10
-9.17
-7.95
-6.46
-4.76
-2.87
-0.89
1.09
2.92
4.46
5.54
6.08
6.09
5.66
4.97
4.18
3.45
2.88
2.48
2.24
2.11
2.02
1.91
1.74
1.51
1.23
0.95
0.67
0.39
0.01
-0.52
-1.21
-2.02
-2.81
-3.42
-3.73
-3.82
-3.85
-4.08
-4.66
-5.59
-6.68
-7.67
-8.36
-8.68
-8.72
-8.61
-8.46
-8.22
-7.74
-6.83
-5.42
-3.61
-1.62
0.25
1.78
2.92
3.73
4.38
5.02
5.70
6.36
6.86
7.12
7.09
6.84
6.44
5.93
5.30
4.50
3.57
2.66
1.98
1.76
2.07
2.80
3.66
4.28
4.43
4.06
3.38
2.67
2.19
1.98
1.85
1.53
0.75
-0.56
-2.25
-4.04
-5.70
-7.10
-8.29
-9.38
-10.39
-11.20
-11.57
-11.25
-10.19
-8.52
-6.52
-4.49
-2.59
-0.84
0.87
2.57
4.28
5.84
7.12
7.98
8.38
8.36
8.02
7.52
6.95
6.43
6.00
5.63
5.28
4.86
4.34
3.71
3.00
2.24
1.45
0.64
-0.20
-1.02
-1.76
-2.31
-2.59
-2.58
-2.34
-1.97
-1.62
-1.44
-1.51
-1.91
-2.65
-3.75
-5.18
-6.91
-8.81
-10.75
-12.56
-14.07
-15.12
-15.59
-15.44
-14.66
-13.28
-11.35
-8.93
-6.13
-3.12
-0.10
2.68
4.97
6.58
7.45
7.64
7.36
6.91
6.58
6.54
6.79
7.24
7.70
8.07
8.30
8.39
8.35
8.16
7.76
7.12
6.30
5.42
4.61
3.95
3.44
2.97
2.40
1.62
0.59
-0.60
-1.82
-2.91
-3.83
-4.57
-5.22
-5.89
-6.59
-7.30
-7.97
-8.60
-9.27
-10.08
-11.05
-12.05
-12.81
-12.99
-12.40
-11.05
-9.16
-7.08
-5.07
-3.29
-1.65
-0.04
1.65
3.34
4.84
5.92
6.44
6.42
6.03
5.49
4.94
4.43
3.95
3.47
3.02
2.74
2.73
3.05
3.62
4.23
4.63
4.66
4.31
3.79
3.36
3.28
3.65
4.33
5.01
5.37
5.19
4.44
3.26
1.91
0.59
-0.55
-1.51
-2.37
-3.23
-4.17
-5.24
-6.43
-7.67
-8.86
-9.86
-10.54
-10.80
-10.55
-9.80
-8.60
-7.02
-5.17
-3.17
-1.11
0.99
3.12
5.29
7.41
9.35
10.90
11.89
12.20
11.91
11.20
10.36
9.64
9.14
8.85
8.65
8.38
7.99
7.49
6.96
6.47
6.06
5.64
5.11
4.39
3.49
2.52
1.64
0.94
0.42
-0.04
-0.60
-1.37
-2.38
-3.58
-4.84
-6.09
-7.32
-8.55
-9.79
-11.00
-12.07
-12.84
-13.20
-13.04
-12.28
-10.90
-8.90
-6.38
-3.53
-0.56
2.31
4.89
7.09
8.86
10.16
10.99
11.35
11.29
10.94
10.42
9.84
9.25
8.62
7.92
7.12
6.27
5.42
4.68
4.11
3.74
3.54
3.50
3.57
3.72
3.87
3.91
3.71
3.16
2.24
1.02
-0.32
-1.60
-2.66
-3.47
-4.12
-4.76
-5.54
-6.54
-7.77
-9.17
-10.66
-12.14
-13.53
-14.67
-15.38
-15.43
-14.66
-13.02
-10.65
-7.80
-4.81
-1.96
0.62
2.87
4.84
6.54
7.92
8.89
9.41
9.48
9.20
8.71
8.13
7.52
6.93
6.37
5.91
5.61
5.52
5.61
5.79
5.93
5.95
5.82
5.54
5.14
4.63
4.01
3.30
2.56
1.87
1.30
0.80
0.29
-0.34
-1.15
-2.10
-3.09
-4.04
-4.94
-5.86
-6.93
-8.20
-9.67
-11.19
-12.63
-13.83
-14.73
-15.27
-15.40
-15.04
-14.13
-12.64
-10.60
-8.17
-5.55
-2.95
-0.55
1.50
3.13
4.29
5.01
5.34
5.39
5.29
5.19
5.22
5.38
5.62
5.86
6.00
6.05
6.04
6.03
6.04
6.01
5.84
5.47
4.90
4.23
3.58
3.06
2.69
2.46
2.29
2.09
1.76
1.20
0.37
-0.69
-1.83
-2.88
-3.71
-4.36
-5.01
-5.85
-7.00
-8.44
-9.98
-11.43
-12.62
-13.44
-13.83
-13.71
-12.95
-11.47
-9.31
-6.64
-3.73
-0.84
1.85
4.24
6.31
8.02
9.30
10.08
10.35
10.19
9.77
9.27
8.82
8.49
8.29
8.20
8.25
8.44
8.77
9.14
9.42
9.43
9.05
8.24
7.06
5.66
4.20
2.82
1.60
0.58
-0.28
-1.00
-1.66
-2.31
-3.04
-3.99
-5.27
-6.94
-9.00
-11.23
-13.34
-14.95
-15.77
-15.68
-14.78
-13.27
-11.40
-9.33
-7.09
-4.68
-2.09
0.58
3.13
5.40
7.25
8.71
9.86
10.84
11.66
12.30
12.66
12.69
12.35
11.70
10.85
9.87
8.88
7.93
7.07
6.33
5.67
5.03
4.36
3.65
2.95
2.37
1.98
1.75
1.54
1.18
0.58
-0.26
-1.17
-1.99
-2.61
-3.09
-3.63
-4.44
-5.63
-7.13
-8.78
-10.36
-11.72
-12.83
-13.68
-14.21
-14.29
-13.76
-12.51
-10.63
-8.37
-6.02
-3.78
-1.70
0.36
2.51
4.72
6.83
8.57
9.72
10.26
10.36
10.25
10.14
10.13
10.22
10.32
10.38
10.33
10.12
9.69
9.01
8.10
7.08
6.13
5.41
4.97
4.74
4.60
4.44
4.19
3.85
3.44
2.92
2.19
1.12
-0.35
-2.12
-3.97
-5.64
-6.97
-8.00
-8.94
-10.03
-11.34
-12.76
-14.01
-14.78
-14.92
-14.42
-13.42
-12.05
-10.35
-8.31
-5.92
-3.26
-0.52
2.02
4.07
5.46
6.15
6.26
5.99
5.53
5.11
4.82
4.64
4.55
4.51
4.61
4.95
5.62
6.55
7.57
8.38
8.74
8.60
8.09
7.44
6.87
6.38
5.82
4.97
3.71
2.12
0.46
-1.00
-2.09
-2.83
-3.44
-4.17
-5.19
-6.49
-7.94
-9.38
-10.66
-11.73
-12.53
-12.97
-12.91
-12.21
-10.78
-8.71
-6.22
-3.58
-1.00
1.44
3.77
6.04
8.18
10.01
11.28
11.82
11.65
10.95
10.05
9.22
8.65
8.32
8.12
7.93
7.69
7.41
7.14
6.90
6.69
6.44
6.06
5.49
4.66
3.59
2.36
1.08
-0.08
-1.00
-1.67
-2.20
-2.77
-3.58
-4.68
-5.95
-7.25
-8.45
-9.59
-10.81
-12.18
-13.61
-14.81
-15.37
-14.96
-13.59
-11.46
-8.98
-6.50
-4.14
-1.83
0.61
3.25
5.96
8.44
10.33
11.36
11.51
10.97
10.10
9.29
8.76
8.53
8.42
8.21
7.75
6.99
6.08
5.17
4.43
3.89
3.47
3.08
2.60
2.04
1.42
0.84
0.29
-0.27
-0.92
-1.75
-2.77
-3.88
-4.91
-5.75
-6.39
-6.98
-7.71
-8.77
-10.18
-11.79
-13.28
-14.34
-14.72
-14.36
-13.37
-11.96
-10.34
-8.67
-6.97
-5.18
-3.20
-0.97
1.43
3.79
5.83
7.33
8.18
8.47
8.38
8.13
7.83
7.49
7.05
6.50
5.97
5.62
5.59
5.89
6.32
6.64
6.58
6.07
5.17
4.07
2.94
1.85
0.79
-0.29
-1.41
-2.50
-3.47
-4.25
-4.89
-5.51
-6.25
-7.19
-8.32
-9.52
-10.67
-11.70
-12.58
-13.26
-13.68
-13.77
-13.39
-12.50
-11.10
-9.26
-7.10
-4.74
-2.30
0.14
2.45
4.55
6.36
7.86
8.98
9.72
10.05
9.97
9.59
9.05
8.55
8.19
7.97
7.83
7.64
7.34
6.95
6.55
6.23
6.05
5.99
5.95
5.80
5.44
4.85
4.09
3.28
2.54
1.89
1.22
0.33
-0.97
-2.74
-4.86
-7.07
-9.04
-10.54
-11.50
-11.98
-12.12
-12.00
-11.60
-10.81
-9.48
-7.55
-5.12
-2.41
0.30
2.82
5.03
6.93
8.54
9.81
10.66
11.00
10.84
10.33
9.68
9.10
8.67
8.31
7.91
7.35
6.63
5.83
5.10
4.56
4.22
3.96
3.63
3.08
2.24
1.15
-0.07
-1.27
-2.30
-3.07
-3.60
-3.99
-4.41
-5.00
-5.88
-7.03
-8.40
-9.90
-11.48
-13.08
-14.63
-15.95
-16.73
-16.69
-15.60
-13.55
-10.77
-7.71
-4.70
-1.95
0.56
2.89
5.08
7.03
8.51
9.35
9.51
9.23
8.88
8.82
9.14
9.70
10.17
10.23
9.75
8.86
7.86
7.04
6.53
6.24
5.96
5.52
4.88
4.17
3.61
3.31
3.26
3.22
2.88
1.99
0.59
-1.08
-2.65
-3.84
-4.63
-5.28
-6.18
-7.62
-9.61
-11.85
-13.96
-15.60
-16.64
-17.19
-17.39
-17.33
-16.96
-16.14
-14.75
-12.82
-10.50
-8.03
-5.61
-3.33
-1.21
0.77
2.58
4.09
5.17
5.71
5.72
5.31
4.65
3.98
3.45
3.16
3.14
3.39
3.89
4.55
5.23
5.83
6.29
6.63
7.02
7.58
8.39
9.36
10.30
11.04
11.58
12.06
12.71
13.66
14.79
15.79
16.24
15.87
14.69
12.95
11.00
9.11
7.35
5.61
3.80
1.98
0.34
-0.83
-1.42
-1.54
-1.51
-1.68
-2.23
-3.06
-3.86
-4.28
-4.13
-3.47
-2.63
-1.94
-1.63
-1.77
-2.21
-2.78
-3.31
-3.72
-4.00
-4.14
-4.10
-3.85
-3.36
-2.63
-1.78
-0.98
-0.44
-0.32
-0.69
-1.45
-2.37
-3.24
-3.89
-4.34
-4.74
-5.35
-6.35
-7.77
-9.42
-11.05
-12.40
-13.34
-13.94
-14.30
-14.53
-14.64
-14.52
-14.02
-13.07
-11.64
-9.87
-7.86
-5.67
-3.28
-0.66
2.17
5.08
7.80
10.05
11.65
12.54
12.84
12.73
12.36
11.83
11.18
10.45
9.69
9.02
8.52
8.22
8.05
7.86
7.51
6.88
5.97
4.88
3.77
2.83
2.11
1.56
0.98
0.14
-1.16
-2.98
-5.17
-7.49
-9.64
-11.42
-12.77
-13.75
-14.57
-15.43
-16.48
-17.74
-19.05
-20.13
-20.68
-20.45
-19.38
-17.56
-15.19
-12.48
-9.57
-6.57
-3.53
-0.47
2.60
5.71
8.92
12.22
15.53
18.62
21.12
22.70
23.18
22.63
21.43
20.05
18.93
18.30
18.10
18.09
17.96
17.49
16.63
15.49
14.23
12.98
11.80
10.60
9.26
7.66
5.82
3.81
1.82
-0.05
-1.68
-3.06
-4.25
-5.29
-6.28
-7.28
-8.45
-9.94
-11.86
-14.22
-16.80
-19.23
-21.08
-21.96
-21.76
-20.55
-18.67
-16.52
-14.44
-12.62
-11.07
-9.61
-8.02
-6.15
-3.99
-1.72
0.40
2.16
3.47
4.38
5.03
5.50
5.77
5.72
5.26
4.38
3.28
2.26
1.68
1.75
2.55
3.94
5.63
7.29
8.58
9.25
9.13
8.26
6.84
5.13
3.42
1.89
0.64
-0.34
-1.12
-1.80
-2.53
-3.51
-4.92
-6.78
-8.84
-10.59
-11.50
-11.20
-9.80
-7.75
-5.74
-4.25
-3.44
-3.13
-2.94
-2.61
-2.10
-1.52
-1.02
-0.67
-0.37
0.02
0.52
1.03
1.37
1.41
1.17
0.87
0.79
1.17
2.05
3.28
4.52
5.44
5.77
5.42
4.51
3.31
2.20
1.55
1.60
2.34
3.54
4.81
5.77
6.20
6.05
5.45
4.54
3.41
2.09
0.52
-1.24
-3.08
-4.75
-6.06
-6.90
-7.29
-7.33
-7.11
-6.66
-5.96
-4.98
-3.70
-2.22
-0.64
0.93
2.41
3.82
5.20
6.59
7.94
9.17
10.13
10.68
10.73
10.33
9.60
8.81
8.19
7.84
7.74
7.72
7.62
7.35
6.96
6.55
6.17
5.74
5.12
4.18
2.91
1.43
-0.03
-1.32
-2.38
-3.33
-4.30
-5.41
-6.67
-8.01
-9.27
-10.30
-11.02
-11.39
-11.44
-11.19
-10.64
-9.79
-8.64
-7.23
-5.61
-3.86
-2.06
-0.21
1.70
3.70
5.73
7.68
9.32
10.43
10.81
10.37
9.21
7.61
5.99
4.81
4.39
4.77
5.73
6.83
7.63
7.86
7.50
6.72
5.74
4.67
3.53
2.24
0.80
-0.68
-2.02
-3.00
-3.58
-3.82
-3.94
-4.18
-4.70
-5.50
-6.48
-7.51
-8.54
-9.57
-10.63
-11.66
-12.51
-12.92
-12.66
-11.67
-10.09
-8.15
-6.16
-4.28
-2.55
-0.92
0.68
2.27
3.79
5.11
6.07
6.58
6.66
6.47
6.19
6.06
6.14
6.40
6.66
6.73
6.48
5.96
5.34
4.84
4.63
4.76
5.09
5.43
5.57
5.41
4.98
4.35
3.62
2.77
1.77
0.54
-0.91
-2.49
-4.00
-5.32
-6.43
-7.43
-8.48
-9.65
-10.89
-12.07
-13.05
-13.85
-14.53
-15.22
-15.91
-16.40
-16.45
-15.88
-14.74
-13.32
-12.09
-11.51
-11.90
-13.21
-14.99
-16.51
-16.97
-15.76
-12.64
-7.91
-2.30
3.24
7.93
11.44
13.89
15.69
17.25
18.81
20.46
22.05
23.47
24.66
25.69
26.52
26.96
26.78
25.98
24.92
23.96
23.36
23.28
23.78
24.77
25.96
27.09
28.09
29.17
29.90
29.51
27.44
23.94
19.89
16.40
14.44
14.96
18.70
24.86
31.78
37.74
42.02
44.68
46.00
46.17
45.38
43.79
40.10
32.30
18.79
-0.74
-25.99
-57.08
-94.51
-138.46
-178.89
-203.02
-202.83
-181.15
-147.57
-111.14
-77.41
-48.60
-24.61
-4.07
13.12
26.03
33.75
36.66
36.52
35.56
35.85
38.66
44.68
52.74
60.72
66.75
70.25
71.82
72.55
73.60
74.93
76.99
79.13
80.14
79.18
75.93
71.01
65.73
61.73
59.59
59.75
62.12
66.04
70.76
74.36
75.68
74.94
73.48
71.68
69.98
68.93
68.27
67.50
62.66
50.12
27.73
1.69
-24.82
-49.45
-69.69
-84.76
-94.43
-104.26
-118.84
-138.76
-161.16
-183.64
-203.96
-218.99
-228.24
-232.20
-239.13
-255.91
-283.87
-319.41
-359.14
-401.03
-442.63
-484.49
-486.77
-431.17
-330.60
-215.17
-107.10
-16.53
45.64
91.24
128.76
164.93
197.90
225.50
245.57
255.99
252.45
230.64
192.67
144.81
97.88
58.43
32.09
23.26
33.29
58.98
86.68
102.35
100.31
85.70
63.37
36.57
7.10
-23.88
-55.06
-84.65
-108.50
-123.40
-127.91
-126.36
-124.32
-126.08
-133.48
-145.47
-159.77
-172.43
-180.21
-181.83
-178.86
-173.43
-166.25
-160.77
-156.92
-153.40
-147.91
-138.65
-125.34
-109.44
-93.08
-78.22
-65.97
-55.72
-46.32
-36.26
-24.38
-10.50
4.56
19.64
33.89
47.05
60.02
73.86
89.43
106.98
125.95
145.17
163.48
180.19
195.29
209.71
224.70
241.66
261.88
286.16
314.15
343.77
370.99
390.64
398.12
391.02
370.26
339.92
305.62
272.55
243.79
220.03
200.27
183.20
167.93
154.12
141.58
129.78
117.82
104.79
90.29
74.58
58.45
42.89
28.54
15.59
3.92
-6.67
-16.17
-24.25
-30.35
-33.94
-34.75
-33.02
-29.55
-25.59
-22.56
-21.66
-23.48
-27.80
-33.67
-39.73
-44.76
-48.10
-49.75
-50.27
-50.43
-50.83
-51.65
-52.62
-53.11
-52.30
-49.41
-43.95
-35.91
-25.76
-14.28
-2.34
9.45
20.76
31.39
41.06
49.38
55.88
60.34
62.99
64.32
64.79
64.40
62.52
58.20
50.73
40.13
27.30
13.78
1.10
-9.80
-18.82
-26.44
-33.25
-39.47
-44.92
-49.20
-52.19
-54.42
-56.96
-61.06
-67.49
-76.17
-86.18
-96.18
-105.06
-112.29
-117.91
-122.16
-125.04
-126.22
-125.17
-121.66
-116.02
-109.01
-101.46
-93.75
-85.51
-75.82
-63.79
-49.14
-32.46
-15.03
1.69
16.57
29.16
39.52
47.96
54.65
59.48
62.16
62.60
61.19
58.93
57.12
56.84
58.44
61.15
63.39
63.26
59.33
51.26
39.83
26.63
13.31
1.07
-9.76
-19.46
-28.51
-37.13
-45.00
-51.38
-55.47
-56.93
-56.03
-53.66
-50.96
-48.98
-48.39
-49.40
-51.84
-55.20
-58.65
-60.91
-60.51
-56.13
-47.36
-35.03
-21.12
-8.07
2.18
8.98
13.05
15.93
19.08
23.09
27.53
31.22
32.86
31.61
27.34
20.68
12.76
4.95
-1.37
-5.12
-5.74
-3.40
1.14
6.60
11.58
14.84
15.64
13.90
10.16
5.33
0.37
-4.02
-7.58
-10.43
-12.90
-15.29
-17.74
-20.15
-22.28
-23.79
-24.44
-24.23
-23.42
-22.56
-22.34
-23.23
-25.13
-27.23
-28.22
-26.75
-22.10
-14.46
-4.94
4.92
13.71
20.64
25.62
29.11
31.68
33.70
35.20
35.87
35.35
33.34
29.82
24.96
19.15
12.87
6.66
1.19
-2.91
-5.07
-5.05
-3.18
-0.31
2.38
3.79
3.30
1.07
-2.12
-5.16
-7.12
-7.65
-7.02
-5.96
-5.32
-5.65
-7.03
-9.13
-11.29
-12.91
-13.55
-13.18
-12.21
-11.38
-11.58
-13.50
-17.35
-22.51
-27.52
-30.45
-29.57
-24.07
-14.57
-2.97
8.19
16.60
20.97
21.23
18.39
14.05
9.71
6.29
3.92
2.17
0.36
-1.98
-4.83
-7.68
-9.80
-10.63
-10.01
-8.24
-5.83
-3.29
-0.92
1.06
2.45
2.94
2.37
0.87
-1.07
-2.82
-3.93
-4.50
-5.13
-6.63
-9.58
-13.93
-19.01
-23.82
-27.49
-29.63
-30.39
-30.29
-29.97
-29.94
-30.63
-32.31
-35.08
-38.59
-41.88
-43.41
-41.53
-35.23
-24.63
-11.21
2.72
14.90
23.97
29.80
33.30
35.68
37.74
39.46
40.12
38.86
35.31
30.00
24.32
20.13
19.03
21.75
27.81
35.71
43.54
49.67
53.19
53.98
52.42
48.94
43.81
37.08
28.83
19.44
9.72
0.77
-6.27
-10.65
-12.30
-11.84
-10.36
-9.01
-8.61
-9.50
-11.69
-15.06
-19.45
-24.57
-29.66
-33.40
-34.12
-30.54
-22.52
-11.42
0.13
9.26
13.99
13.99
10.57
6.07
2.73
1.86
3.50
6.62
9.78
11.79
12.13
10.91
8.59
5.69
2.61
-0.40
-3.07
-5.09
-6.17
-6.24
-5.60
-4.87
-4.77
-5.78
-8.10
-11.56
-15.91
-20.97
-26.74
-33.26
-40.52
-48.29
-56.24
-64.11
-71.84
-79.65
-87.84
-96.50
-105.31
-113.78
-121.61
-129.03
-136.81
-145.66
-155.62
-165.73
-174.32
-179.82
-181.69
-180.73
-178.64
-176.89
-175.73
-174.04
-169.97
-162.09
-150.26
-135.65
-119.78
-103.43
-85.88
-65.14
-38.85
-5.61
34.24
78.41
123.46
165.82
202.73
232.58
254.83
269.55
277.18
278.46
274.44
266.46
255.99
244.34
232.27
219.91
206.95
193.01
177.85
161.29
143.38
124.32
104.45
84.29
64.66
46.32
29.83
15.03
0.89
-13.95
-29.93
-46.04
-59.93
-68.95
-71.82
-69.27
-64.09
-59.63
-57.79
-57.89
-57.43
-54.05
-47.33
-39.34
-32.42
-28.11
-26.36
-25.43
-23.05
-17.89
-10.67
-3.26
2.29
7.08
13.36
22.78
35.39
49.66
63.32
73.60
79.46
81.13
83.45
91.13
106.20
127.15
150.37
171.85
187.47
195.73
196.57
195.48
197.85
206.18
219.80
236.96
256.75
278.33
302.78
304.48
268.39
197.90
112.51
32.36
-31.33
-69.34
-89.66
-99.28
-104.72
-107.82
-109.86
-114.45
-124.24
-139.76
-159.15
-180.74
-201.78
-220.71
-233.31
-235.74
-226.00
-204.39
-173.17
-135.79
-97.42
-62.04
-32.94
-9.69
9.88
28.24
47.15
67.21
87.53
105.08
116.55
118.62
110.18
91.96
65.96
34.60
-0.09
-36.53
-73.89
-111.20
-147.35
-180.64
-209.47
-233.02
-251.43
-265.64
-276.69
-285.00
-289.74
-289.28
-282.20
-268.20
-248.48
-225.15
-200.14
-174.15
-146.52
-116.12
-82.55
-46.91
-11.58
20.63
47.79
69.37
85.93
98.26
106.94
112.28
114.52
114.44
113.40
112.89
113.98
117.17
122.25
128.57
135.26
141.48
146.55
149.90
151.08
149.75
145.58
138.24
127.54
113.51
96.41
76.91
56.09
35.38
16.30
0.19
-12.05
-20.28
-25.02
-27.18
-27.55
-26.41
-23.37
-17.49
-8.05
4.93
20.28
35.86
49.16
57.94
60.89
57.82
49.74
38.49
26.35
15.22
6.33
0.18
-3.27
-4.26
-2.90
0.59
5.51
10.54
14.13
15.13
13.54
10.37
7.01
4.11
1.16
-3.16
-10.13
-20.03
-31.86
-43.69
-53.63
-60.34
-63.49
-63.58
-61.49
-58.18
-54.37
-50.58
-47.16
-44.26
-41.75
-39.49
-37.26
-34.74
-31.78
-28.51
-25.33
-22.99
-22.28
-23.61
-26.84
-31.31
-36.24
-41.02
-45.16
-48.58
-51.61
-54.74
-58.39
-62.80
-67.89
-73.08
-77.38
-79.70
-79.52
-77.62
-75.81
-75.85
-78.58
-83.83
-90.95
-99.50
-109.49
-121.13
-133.87
-145.26
-150.70
-145.08
-125.48
-92.79
-51.22
-6.08
38.62
80.94
120.21
155.37
183.25
198.22
194.51
170.28
130.31
88.06
58.32
48.10
54.71
70.17
86.52
99.44
108.98
117.49
127.26
138.28
148.54
155.96
159.77
160.72
160.77
161.62
164.78
170.50
177.39
183.32
186.77
187.53
186.58
185.62
186.48
189.65
194.83
200.70
205.44
207.51
205.94
199.97
188.22
174.83
161.07
147.40
133.64
119.49
104.89
90.21
76.16
63.57
53.31
45.15
38.80
33.82
29.77
26.36
23.48
21.09
19.22
17.92
16.59
14.78
12.22
8.83
4.75
0.28
-4.23
-8.45
-12.10
-15.43
-18.67
-21.93
-25.16
-28.11
-30.42
-31.76
-32.03
-31.46
-30.79
-30.81
-32.08
-34.74
-38.37
-42.21
-45.50
-47.95
-49.94
-52.59
-57.17
-64.58
-74.78
-86.73
-98.72
-109.09
-117.11
-123.43
-129.93
-139.00
-152.34
-170.13
-190.79
-211.56
-229.63
-243.40
-253.15
-260.97
-270.04
-283.70
-304.29
-332.10
-364.54
-395.79
-417.53
-420.99
-400.02
-353.98
-288.85
-215.85
-147.72
-94.30
-59.55
-41.06
-32.41
-26.83
-20.42
-13.17
-8.09
-8.91
-17.61
-33.16
-51.60
-67.39
-75.61
-73.82
-63.13
-47.74
-33.23
-24.31
-23.24
-29.64
-41.48
-56.58
-73.62
-92.07
-111.30
-129.42
-143.32
-149.72
-146.74
-135.27
-118.87
-102.28
-89.31
-81.20
-76.12
-70.18
-59.29
-40.62
-13.67
19.52
54.97
87.51
111.59
122.35
117.09
96.61
66.00
34.07
11.13
5.90
22.52
59.10
108.42
160.61
206.46
240.10
259.85
267.53
266.64
260.35
250.19
235.88
216.08
189.79
157.64
122.24
87.56
57.56
34.76
19.55
10.77
6.83
6.92
11.32
20.68
34.64
51.14
66.72
78.15
84.05
85.59
85.71
87.37
91.84
97.92
102.74
103.09
97.02
84.51
67.12
47.02
26.13
5.65
-14.03
-32.87
-51.03
-68.51
-84.92
-99.20
-109.30
-112.40
-105.82
-88.25
-61.05
-28.50
3.25
28.27
43.07
47.81
45.92
42.33
41.28
44.49
50.80
57.02
59.52
55.94
46.21
32.50
18.21
6.64
-0.25
-2.33
-0.84
2.75
7.48
13.27
20.27
28.05
35.11
39.03
37.48
29.69
17.34
4.24
-5.09
-7.60
-3.36
4.52
11.69
15.27
15.78
16.90
22.91
35.42
51.30
63.45
63.91
47.85
15.63
-27.43
-73.68
-115.74
-147.88
-165.93
-166.85
-148.98
-113.51
-65.59
-14.17
30.27
59.40
70.11
65.34
52.17
38.35
29.05
25.49
25.82
27.19
27.74
27.54
28.02
30.80
36.56
44.43
52.23
57.46
58.45
55.24
49.81
44.95
42.84
43.70
45.44
44.83
39.53
29.55
17.67
7.76
2.74
2.80
5.24
5.92
1.27
-10.26
-27.78
-48.67
-69.60
-87.65
-101.08
-109.83
-115.81
-122.63
-134.99
-157.05
-190.45
-232.76
-277.04
-313.38
-331.74
-325.00
-291.04
-233.30
-159.91
-81.80
-10.41
44.79
78.38
89.77
82.80
64.24
41.37
19.55
0.98
-14.99
-30.36
-46.61
-63.66
-80.09
-93.33
-100.61
-99.73
-91.01
-77.30
-63.73
-56.64
-61.82
-83.36
-122.00
-174.39
-233.54
-290.73
-336.65
-363.38
-366.27
-345.28
-306.23
-257.93
-209.04
-164.72
-127.62
-97.10
-70.67
-45.40
-19.65
4.17
24.27
41.86
62.35
88.47
122.49
166.06
219.62
280.55
336.83
375.75
389.16
378.11
341.34
282.20
209.06
135.19
74.51
29.20
-0.12
-10.57
5.18
38.00
73.49
96.89
99.62
79.32
27.78
-54.50
-154.49
-246.29
-322.06
-381.34
-428.08
-464.70
-422.42
-276.78
-69.89
82.95
181.42
239.41
281.19
312.18
334.34
347.67
339.51
302.20
241.10
178.40
123.90
84.51
63.83
64.28
84.25
110.11
131.62
149.28
176.52
215.07
260.83
304.46
336.91
351.61
341.97
310.05
267.25
231.33
208.57
197.98
193.81
190.90
186.38
177.36
163.77
148.07
134.64
122.83
110.47
95.60
78.40
60.95
45.26
33.52
27.50
28.12
33.07
38.47
40.12
35.34
23.12
4.05
-20.31
-48.60
-80.59
-117.44
-161.02
-212.68
-272.22
-337.33
-403.65
-465.30
-515.69
-548.60
-559.64
-547.57
-514.80
-466.96
-411.19
-353.82
-298.29
-244.81
-191.06
-133.87
-71.47
-4.88
61.72
121.64
167.72
194.88
201.90
192.60
174.52
155.67
141.42
132.39
124.68
112.43
91.13
60.15
23.53
-11.04
-34.56
-39.44
-22.04
15.66
65.97
117.02
156.30
174.39
167.43
137.14
89.06
29.46
-36.36
-103.62
-166.99
-219.76
-254.71
-266.87
-256.04
-227.24
-188.73
-147.82
-107.61
-66.59
-21.74
27.35
75.44
112.60
128.71
118.81
86.40
42.50
1.46
-24.42
-28.40
-10.27
25.44
71.69
120.68
164.55
196.03
209.52
202.82
178.51
143.70
107.93
79.79
63.76
58.76
59.38
58.85
52.56
40.17
25.59
14.87
13.18
22.29
39.74
59.84
75.72
81.52
73.95
53.07
22.09
-13.01
-44.84
-66.39
-73.32
-65.32
-46.20
-22.44
-0.75
14.11
20.57
19.86
14.81
8.18
1.56
-5.16
-13.28
-24.25
-38.66
-55.53
-72.57
-87.10
-97.23
-102.69
-104.82
-105.52
-106.03
-106.17
-104.37
-98.56
-87.41
-71.31
-52.72
-35.42
-22.78
-15.93
-12.86
-8.64
2.67
25.58
61.66
109.33
165.07
224.61
283.53
336.72
378.20
401.59
401.96
378.15
333.94
277.24
217.28
161.56
113.84
74.01
39.40
6.64
-26.79
-61.82
-97.72
-132.53
-163.77
-189.29
-207.61
-218.06
-220.42
-214.61
-200.92
-180.38
-155.15
-128.44
-103.61
-82.99
-67.00
-54.18
-41.94
-27.70
-9.82
12.14
37.38
64.04
89.31
109.64
121.24
121.09
108.00
83.28
50.97
16.71
-13.94
-37.03
-51.41
-58.98
-63.91
-71.28
-85.11
-106.54
-132.97
-158.77
-177.43
-184.53
-180.03
-168.63
-157.80
-154.46
-161.86
-178.45
-198.80
-216.22
-225.23
-223.00
-209.12
-184.50
-150.47
-108.28
-59.47
-5.94
49.90
105.33
157.77
205.10
245.81
278.98
303.99
320.09
326.42
321.91
305.81
278.27
240.68
195.62
146.63
97.70
52.78
15.33
-12.28
-29.35
-37.28
-39.61
-41.57
-48.96
-66.42
-95.62
-134.10
-175.09
-209.10
-226.63
-221.54
-193.50
-148.45
-96.42
-47.54
-8.33
20.17
41.26
59.50
77.32
93.65
104.68
106.68
98.75
84.00
68.30
57.39
54.03
56.70
60.95
62.23
58.76
52.51
47.72
48.08
53.98
61.78
65.56
60.22
44.46
21.62
-1.50
-17.51
-21.04
-10.39
12.17
41.35
70.12
91.43
99.48
91.02
65.71
25.78
-24.99
-82.27
-141.43
-197.44
-244.99
-279.47
-298.22
-301.67
-293.04
-276.75
-256.17
-232.09
-202.84
-165.68
-118.75
-62.75
-1.73
57.39
106.42
138.14
148.64
138.77
113.72
80.75
45.96
11.91
-22.23
-57.95
-94.17
-125.58
-144.03
-142.17
-117.21
-72.38
-15.52
44.26
99.62
146.41
183.24
210.13
227.17
234.22
231.05
218.05
196.30
167.25
132.00
90.87
43.56
-9.63
-66.20
-120.46
-164.09
-188.65
-188.68
-164.53
-122.59
-73.11
-26.29
11.24
37.83
55.70
68.38
78.13
84.91
87.09
83.15
72.97
58.20
41.53
25.60
12.14
2.06
-4.06
-5.22
0.33
14.47
38.08
69.72
105.35
138.88
164.02
176.10
173.59
158.28
134.05
105.13
74.46
43.00
10.33
-23.72
-57.91
-89.17
-113.74
-128.84
-134.04
-131.08
-122.36
-108.90
-89.39
-61.22
-22.96
23.39
71.55
112.71
138.60
144.41
130.08
99.66
59.45
16.26
-23.62
-54.95
-73.80
-78.09
-68.20
-47.00
-19.30
9.42
34.26
51.88
60.90
61.75
56.29
47.11
36.78
26.99
18.13
9.40
-0.21
-10.70
-20.06
-24.67
-21.06
-8.04
11.86
32.62
46.78
48.22
34.37
6.99
-28.68
-65.77
-97.40
-117.74
-122.57
-109.96
-81.09
-40.90
2.44
39.48
62.51
68.45
59.99
44.32
30.08
23.52
25.95
33.19
37.74
32.22
12.97
-18.11
-54.08
-85.76
-105.51
-110.28
-102.49
-88.35
-74.50
-64.93
-59.64
-55.57
-49.22
-39.22
-27.35
-17.67
-14.05
-17.85
-27.16
-37.52
-44.22
-44.54
-38.82
-30.04
-22.19
-18.47
-19.95
-25.40
-31.75
-34.85
-30.35
-14.51
14.61
55.71
103.47
148.80
180.94
190.94
175.05
136.41
84.39
31.29
-11.94
-39.11
-50.03
-49.28
-43.16
-36.93
-33.07
-31.37
-30.31
-28.72
-26.39
-23.87
-21.43
-18.20
-12.36
-2.47
11.22
25.98
37.27
40.65
33.86
18.01
-2.70
-22.62
-36.87
-42.77
-40.67
-33.29
-24.46
-17.71
-15.44
-18.38
-25.90
-36.74
-49.51
-62.73
-74.43
-81.52
-80.16
-67.17
-41.95
-8.01
27.14
54.09
64.97
56.51
31.47
-2.61
-36.36
-62.32
-77.38
-83.29
-84.83
-87.10
-92.94
-101.79
-110.55
-115.34
-113.70
-105.62
-93.22
-79.29
-65.98
-54.10
-43.55
-34.35
-27.19
-23.44
-24.29
-29.75
-37.88
-45.17
-47.56
-41.99
-27.81
-7.16
15.94
37.10
53.12
62.62
65.49
62.05
52.54
37.63
19.42
2.37
-7.38
-4.10
14.87
47.42
86.99
124.97
154.09
170.84
176.08
173.58
167.49
160.26
152.14
142.13
130.13
118.41
111.60
114.59
129.70
154.37
181.05
199.40
200.13
178.67
137.16
84.03
31.24
-9.61
-30.99
-31.68
-16.74
4.77
23.35
32.74
31.84
24.19
15.29
9.17
6.18
3.11
-4.60
-20.18
-43.72
-72.31
-101.42
-126.43
-143.44
-149.43
-142.23
-121.12
-87.70
-46.60
-4.80
30.11
52.44
60.14
55.18
42.11
25.94
10.35
-2.98
-13.79
-21.82
-25.72
-23.28
-12.74
5.43
27.56
47.47
58.54
56.41
40.73
15.39
-13.08
-37.80
-53.67
-58.72
-54.31
-44.50
-34.62
-29.72
-32.63
-42.87
-56.90
-69.66
-77.09
-78.06
-74.61
-70.61
-69.66
-73.61
-82.37
-94.75
-109.18
-123.86
-136.21
-142.50
-138.79
-122.53
-94.49
-59.18
-23.55
6.22
27.64
43.40
59.90
83.54
116.72
155.56
190.64
210.58
206.84
177.28
127.23
67.54
10.50
-34.20
-62.01
-73.86
-74.19
-68.24
-59.91
-50.68
-40.12
-27.09
-11.36
5.79
21.42
32.11
35.09
29.37
16.03
-2.23
-22.05
-40.22
-54.34
-63.13
-66.16
-63.90
-57.70
-49.84
-43.08
-39.87
-41.14
-45.52
-49.33
-47.98
-37.86
-18.15
8.67
37.72
63.51
81.72
90.06
88.28
77.70
60.74
40.42
20.21
3.37
-7.84
-12.81
-12.61
-9.43
-5.36
-1.42
2.61
7.83
15.23
24.92
35.81
46.03
53.32
55.81
52.35
42.69
27.48
8.16
-13.20
-34.16
-52.24
-65.59
-73.31
-75.83
-74.61
-71.68
-68.93
-67.72
-68.80
-72.51
-78.78
-86.92
-95.13
-100.38
-99.14
-88.73
-69.15
-43.58
-17.66
2.65
13.61
15.54
12.95
12.73
21.13
40.51
67.57
94.02
109.41
105.21
78.20
31.72
-25.75
-83.75
-133.10
-168.12
-186.70
-189.24
-177.18
-152.65
-118.37
-78.02
-36.21
2.36
34.32
58.42
75.65
88.40
98.85
108.03
115.44
119.75
119.97
116.11
109.34
101.35
93.44
86.01
78.84
71.64
64.89
60.03
58.95
63.05
72.48
85.65
99.90
112.17
120.09
122.74
120.99
116.82
112.42
109.17
106.99
104.71
100.96
95.23
88.32
81.97
77.66
75.36
73.12
67.65
56.06
37.54
14.25
-9.43
-28.67
-40.46
-44.63
-43.91
-42.62
-44.84
-53.04
-67.51
-86.73
-108.10
-128.94
-146.96
-160.39
-167.97
-168.85
-162.89
-151.06
-135.60
-119.65
-106.04
-95.74
-86.68
-74.26
-53.32
-21.26
19.86
63.21
99.67
121.63
126.24
116.66
100.42
86.16
79.86
82.74
91.30
99.17
100.05
90.09
68.81
38.83
4.51
-29.26
-57.90
-77.47
-85.04
-79.32
-61.44
-35.68
-9.05
10.31
15.66
3.98
-22.61
-57.51
-91.85
-117.47
-129.57
-127.89
-116.15
-99.98
-84.42
-71.87
-61.83
-51.99
-40.47
-27.59
-16.23
-10.48
-13.18
-23.84
-37.72
-47.24
-44.78
-26.16
7.29
48.89
89.24
120.07
137.30
141.98
138.68
132.47
126.14
119.27
109.41
94.41
74.34
51.90
30.91
14.50
3.43
-3.88
-10.05
-16.93
-24.46
-30.87
-33.86
-32.32
-27.53
-23.06
-23.27
-31.15
-46.81
-67.35
-88.42
-106.46
-120.06
-129.95
-137.48
-142.99
-145.24
-142.34
-133.35
-119.66
-104.89
-93.37
-88.14
-89.30
-93.80
-96.45
-92.08
-77.34
-51.94
-18.87
16.67
49.03
74.05
90.16
98.33
100.79
99.58
95.28
87.16
74.07
55.61
32.97
8.86
-13.40
-30.94
-42.06
-46.70
-45.83
-40.73
-32.27
-20.82
-6.69
9.10
24.73
38.13
48.41
56.75
66.27
80.55
101.50
128.02
155.95
179.89
195.37
200.71
197.06
186.90
171.82
151.31
123.28
86.62
43.97
2.64
-27.08
-35.93
-20.06
16.49
62.99
105.83
133.89
142.31
133.07
112.94
89.85
69.58
53.98
41.48
29.11
15.29
0.98
-11.10
-18.27
-19.41
-15.94
-10.95
-7.44
-6.94
-7.72
-6.57
-1.50
6.77
15.57
21.96
24.53
24.15
22.67
22.66
25.27
28.18
26.50
15.57
-6.88
-40.14
-81.03
-125.74
-168.60
-202.92
-223.42
-226.94
-212.25
-180.58
-136.18
-82.06
-32.94
-4.25
1.30
-8.16
-23.02
-37.38
-49.23
-59.10
-67.85
-76.39
-84.40
-89.80
-91.71
-91.45
-91.26
-92.82
-96.70
-101.60
-106.03
-109.69
-109.59
-104.04
-94.27
-83.17
-73.35
-66.37
-61.51
-57.80
-56.87
-56.45
-54.56
-52.32
-52.61
-57.20
-65.87
-74.99
-80.28
-81.40
-71.98
-49.37
-14.48
28.92
77.68
118.68
142.19
168.52
207.72
257.97
318.67
384.39
446.79
499.22
538.41
565.51
582.95
550.51
457.21
325.76
191.53
77.65
-9.66
-73.52
-118.26
-147.73
-168.22
-178.15
-176.21
-166.01
-153.85
-144.48
-139.63
-138.11
-137.92
-139.35
-137.87
-130.47
-118.67
-106.49
-97.08
-91.47
-88.81
-87.75
-88.07
-86.66
-81.57
-73.76
-65.75
-59.53
-55.76
-54.00
-53.53
-54.05
-53.82
-51.85
-48.58
-45.26
-42.86
-41.77
-41.95
-43.26
-45.63
-48.41
-51.26
-54.16
-57.12
-59.85
-61.76
-61.93
-59.61
-54.23
-45.57
-33.69
-19.02
-2.29
15.51
33.23
49.68
63.58
73.87
79.79
81.26
78.64
72.72
64.54
55.30
45.98
37.14
28.87
20.95
13.60
7.11
2.10
-0.67
-0.48
2.83
8.53
15.12
20.73
24.47
26.06
26.09
25.73
26.16
27.75
29.73
30.47
28.28
23.53
17.73
13.59
14.07
21.17
35.15
54.94
79.38
102.02
120.78
134.20
139.93
134.17
113.48
77.13
29.05
-23.05
-70.40
-106.03
-128.27
-139.50
-142.90
-139.04
-125.50
-99.75
-63.28
-23.84
7.28
19.69
9.74
-17.25
-49.51
-74.98
-86.95
-86.48
-80.54
-76.79
-79.56
-87.43
-94.82
-95.18
-84.96
-64.92
-39.91
-16.84
-1.53
3.27
-0.62
-8.61
-15.50
-18.29
-16.84
-12.97
-8.48
-3.72
1.06
7.96
17.94
31.90
46.19
56.94
61.71
60.74
56.08
50.36
45.75
42.74
40.52
37.16
31.01
22.15
12.91
6.36
5.14
10.80
23.47
42.85
69.16
98.03
120.10
130.19
128.13
118.34
106.25
95.04
85.37
76.30
66.69
56.62
47.73
41.58
38.90
39.61
42.95
47.64
51.61
52.01
46.29
33.57
14.77
-7.48
-29.31
-46.85
-57.49
-60.63
-57.64
-50.63
-41.38
-31.10
-21.23
-13.37
-9.26
-10.40
-17.51
-30.17
-46.62
-63.98
-78.15
-86.70
-88.62
-84.56
-76.43
-66.64
-57.21
-49.16
-42.38
-36.23
-30.23
-24.06
-17.73
-11.46
-5.36
0.75
7.15
14.09
21.53
28.70
35.14
40.03
42.58
42.23
38.74
32.27
23.35
13.15
2.48
-7.63
-16.40
-23.39
-28.63
-32.48
-35.53
-38.22
-40.61
-42.59
-43.73
-43.69
-42.50
-40.73
-39.27
-39.06
-40.57
-43.53
-47.11
-50.12
-51.74
-51.70
-50.51
-49.15
-48.60
-49.59
-52.57
-57.82
-64.95
-72.35
-76.99
-74.99
-63.24
-41.21
-12.04
18.76
44.81
61.74
68.70
68.15
64.03
59.57
56.10
53.20
49.95
45.96
41.89
38.91
37.76
38.30
39.59
40.42
39.84
37.75
34.65
31.50
29.19
28.27
28.73
30.10
31.67
32.78
33.07
32.52
31.48
30.43
29.86
29.98
30.77
32.09
33.88
36.28
39.25
42.29
44.05
42.67
36.54
25.25
10.12
-6.07
-20.17
-29.94
-34.84
-35.95
-35.09
-33.81
-32.77
-31.79
-30.43
-28.47
-26.18
-24.08
-22.54
-21.63
-21.06
-20.45
-19.47
-18.13
-16.68
-15.48
-14.85
-14.84
-15.27
-15.76
-15.96
-15.70
-15.14
-14.67
-14.81
-15.86
-17.75
-20.10
-22.34
-24.01
-24.93
-25.26
-25.30
-25.29
-25.34
-25.02
-23.88
-21.52
-17.80
-12.85
-7.09
-1.11
4.47
9.13
12.65
15.04
16.56
17.61
18.45
19.12
19.51
19.48
19.05
18.48
17.97
17.59
17.05
15.91
13.83
10.97
7.93
5.47
4.11
3.71
3.56
2.75
0.69
-2.57
-6.42
-10.05
-12.87
-14.69
-15.58
-15.58
-14.65
-12.61
-9.44
-5.45
-1.31
2.18
4.38
5.07
4.36
2.53
-0.14
-3.40
-7.03
-10.70
-14.00
-16.56
-18.01
-18.16
-16.92
-14.38
-10.78
-6.54
-2.27
1.48
3.94
4.76
4.10
2.42
0.25
-2.20
-5.11
-8.87
-13.84
-20.09
-27.25
-34.78
-42.21
-49.43
-56.58
-63.92
-71.49
-78.97
-85.65
-90.69
-93.31
-92.85
-88.68
-80.05
-66.35
-47.49
-24.43
0.72
25.23
46.56
63.32
75.57
84.42
91.12
96.18
99.19
99.19
95.51
88.38
78.94
68.77
59.19
50.83
43.60
37.09
30.84
24.65
18.60
12.92
7.92
4.07
1.93
2.14
5.13
10.85
18.60
27.28
35.63
42.70
48.08
51.82
54.17
55.31
55.29
54.07
51.73
48.58
45.10
41.82
39.03
36.75
34.74
32.58
29.88
26.39
22.12
17.31
12.41
7.84
3.89
0.65
-2.06
-4.43
-6.61
-8.55
-10.11
-11.13
-11.61
-11.71
-11.69
-11.76
-11.92
-12.03
-11.85
-11.24
-10.25
-9.12
-8.14
-7.57
-7.50
-7.86
-8.45
-9.04
-9.48
-9.69
-9.75
-9.80
-10.03
-10.55
-11.35
-12.35
-13.47
-14.65
-16.00
-17.61
-19.50
-21.45
-23.03
-23.70
-23.05
-20.97
-17.73
-13.82
-9.75
-5.89
-2.36
0.83
3.69
6.15
8.06
9.25
9.64
9.30
8.41
7.24
6.00
4.89
3.99
3.32
2.88
2.64
2.57
2.59
2.60
2.51
2.26
1.85
1.38
0.91
0.45
-0.05
-0.71
-1.66
-2.89
-4.32
-5.82
-7.28
-8.65
-9.97
-11.32
-12.80
-14.44
-16.24
-18.14
-20.04
-21.75
-23.03
-23.51
-22.83
-20.73
-17.18
-12.40
-6.93
-1.35
3.82
8.27
11.92
14.79
16.93
18.29
18.82
18.53
17.50
15.94
14.06
12.03
9.98
8.02
6.29
4.93
4.04
3.64
3.63
3.81
3.96
3.88
3.45
2.59
1.30
-0.39
-2.35
-4.40
-6.34
-8.03
-9.40
-10.49
-11.41
-12.26
-13.14
-14.09
-15.11
-16.23
-17.47
-18.86
-20.42
-22.00
-23.31
-23.93
-23.37
-21.26
-17.51
-12.37
-6.43
-0.46
4.86
9.12
12.26
14.51
16.17
17.45
18.34
18.69
18.37
17.42
16.03
14.51
13.08
11.80
10.61
9.45
8.34
7.39
6.70
6.19
5.65
4.81
3.52
1.89
0.21
-1.21
-2.29
-3.16
-4.14
-5.44
-7.05
-8.75
-10.22
-11.25
-11.88
-12.29
-12.77
-13.51
-14.56
-15.91
-17.44
-19.01
-20.41
-21.29
-21.21
-19.78
-16.78
-12.31
-6.81
-0.91
4.73
9.62
13.49
16.29
18.06
18.88
18.85
18.10
16.81
15.24
13.62
12.15
10.91
9.93
9.19
8.66
8.27
7.90
7.39
6.59
5.40
3.86
2.08
0.21
-1.63
-3.41
-5.08
-6.63
-8.05
-9.30
-10.41
-11.46
-12.54
-13.72
-15.00
-16.30
-17.58
-18.83
-20.10
-21.52
-23.22
-25.20
-27.25
-28.97
-29.80
-29.25
-27.07
-23.36
-18.65
-13.67
-9.10
-5.41
-2.76
-1.04
-0.08
0.23
-0.11
-1.11
-2.69
-4.63
-6.58
-8.18
-9.15
-9.41
-9.00
-8.03
-6.62
-4.82
-2.70
-0.36
1.99
4.11
5.74
6.72
7.09
6.99
6.66
6.32
6.06
5.88
5.68
5.38
4.93
4.37
3.78
3.20
2.61
1.87
0.84
-0.67
-2.69
-5.12
-7.65
-9.79
-11.03
-10.91
-9.23
-6.05
-1.72
3.27
8.42
13.36
17.87
21.89
25.35
28.19
30.27
31.48
31.77
31.26
30.19
28.90
27.68
26.72
26.05
25.53
24.96
24.09
22.70
20.66
17.98
14.78
11.31
7.88
4.73
2.01
-0.31
-2.37
-4.37
-6.44
-8.60
-10.78
-12.82
-14.62
-16.13
-17.39
-18.51
-19.59
-20.73
-22.01
-23.42
-24.87
-26.11
-26.73
-26.23
-24.20
-20.49
-15.31
-9.23
-2.98
2.74
7.44
10.96
13.39
14.95
15.87
16.26
16.17
15.64
14.77
13.77
12.86
12.23
11.89
11.72
11.55
11.24
10.75
10.10
9.37
8.58
7.72
6.74
5.64
4.37
2.90
1.16
-0.85
-3.03
-5.10
-6.80
-7.97
-8.67
-9.18
-9.82
-10.82
-12.19
-13.76
-15.34
-16.86
-18.33
-19.72
-20.82
-21.17
-20.23
-17.63
-13.39
-7.96
-2.06
3.61
8.57
12.64
15.90
18.45
20.32
21.53
22.07
22.04
21.67
21.30
21.23
21.74
22.87
24.41
25.94
26.97
27.09
26.17
24.47
22.46
20.66
19.41
18.69
18.18
17.36
15.70
12.86
8.69
3.33
-2.88
-9.46
-15.93
-21.86
-27.04
-31.48
-35.34
-38.81
-41.93
-44.51
-46.10
-46.26
-44.69
-41.48
-37.09
-32.20
-27.45
-23.25
-19.72
-16.74
-14.21
-12.18
-10.80
-10.20
-10.31
-10.85
-11.40
-11.65
-11.47
-11.03
-10.63
-10.47
-10.53
-10.55
-10.16
-9.08
-7.31
-5.14
-3.07
-1.57
-0.96
-1.31
-2.47
-4.13
-6.00
-7.83
-9.48
-10.90
-12.16
-13.40
-14.83
-16.60
-18.71
-20.90
-22.68
-23.36
-22.36
-19.38
-14.56
-8.44
-1.78
4.70
10.54
15.54
19.73
23.14
25.67
27.19
27.58
26.89
25.42
23.59
21.80
20.30
19.09
17.97
16.77
15.35
13.76
12.12
10.55
9.12
7.75
6.26
4.49
2.37
-0.06
-2.63
-5.12
-7.36
-9.25
-10.88
-12.46
-14.21
-16.31
-18.80
-21.53
-24.13
-26.12
-26.97
-26.26
-23.80
-19.68
-14.26
-8.09
-1.75
4.22
9.43
13.69
17.05
19.67
21.78
23.49
24.74
25.34
25.08
23.89
21.97
19.76
17.73
16.16
15.09
14.29
13.48
12.50
11.34
10.12
8.96
7.81
6.54
4.96
2.94
0.52
-2.14
-4.83
-7.34
-9.60
-11.58
-13.40
-15.23
-17.23
-19.50
-21.94
-24.25
-25.90
-26.33
-25.12
-22.14
-17.67
-12.25
-6.52
-1.01
3.99
8.42
12.35
15.85
18.89
21.35
23.12
24.11
24.37
24.05
23.33
22.41
21.43
20.45
19.41
18.28
17.02
15.68
14.32
13.00
11.74
10.48
9.11
7.50
5.62
3.52
1.34
-0.76
-2.68
-4.39
-5.95
-7.45
-9.01
-10.75
-12.77
-15.16
-17.97
-21.09
-24.20
-26.79
-28.22
-27.93
-25.69
-21.70
-16.51
-10.89
-5.49
-0.70
3.38
6.88
9.98
12.75
15.13
16.99
18.17
18.64
18.51
17.96
17.24
16.51
15.85
15.28
14.82
14.44
14.13
13.83
13.39
12.66
11.51
9.89
7.88
5.62
3.25
0.90
-1.40
-3.62
-5.74
-7.72
-9.54
-11.20
-12.76
-14.32
-15.99
-17.81
-19.83
-21.95
-23.98
-25.56
-26.21
-25.45
-22.96
-18.74
-13.15
-6.88
-0.63
5.01
9.76
13.61
16.68
19.08
20.75
21.60
21.59
20.90
19.90
19.04
18.67
18.89
19.54
20.35
21.08
21.63
22.01
22.23
22.18
21.67
20.43
18.36
15.51
12.15
8.55
4.98
1.52
-1.86
-5.20
-8.52
-11.76
-14.81
-17.59
-20.08
-22.32
-24.43
-26.50
-28.53
-30.45
-32.08
-33.12
-33.22
-31.99
-29.13
-24.56
-18.52
-11.52
-4.22
2.71
8.83
13.89
17.91
20.95
23.06
24.21
24.38
23.61
22.08
20.09
17.97
16.00
14.35
13.04
12.06
11.32
10.71
10.06
9.23
8.09
6.60
4.83
2.89
0.94
-0.90
-2.63
-4.28
-5.90
-7.56
-9.25
-10.93
-12.54
-14.00
-15.22
-16.17
-16.87
-17.42
-18.00
-18.78
-19.88
-21.29
-22.83
-24.10
-24.59
-23.77
-21.23
-16.93
-11.22
-4.78
1.61
7.34
12.12
15.96
19.08
21.65
23.64
24.93
25.28
24.62
23.09
21.02
18.80
16.78
15.15
13.90
12.89
11.99
11.10
10.19
9.23
8.12
6.70
4.84
2.56
0.01
-2.49
-4.62
-6.19
-7.26
-8.09
-9.07
-10.51
-12.52
-14.98
-17.61
-20.12
-22.33
-24.33
-26.46
-29.28
-33.24
-38.56
-45.09
-52.33
-59.60
-66.20
-71.68
-75.99
-79.51
-82.48
-85.05
-87.22
-88.90
-90.21
-91.49
-93.40
-96.76
-102.33
-109.64
-117.40
-123.75
-126.89
-125.89
-120.98
-113.51
-105.64
-99.71
-95.98
-92.83
-86.84
-73.96
-51.17
-17.88
23.41
67.51
108.19
141.96
168.67
191.56
215.55
244.98
282.48
328.93
383.92
435.28
469.61
474.00
441.06
371.95
275.81
167.27
63.27
-20.87
-76.10
-100.84
-102.00
-91.22
-79.70
-73.90
-74.13
-76.46
-76.49
-72.63
-65.21
-56.28
-47.55
-39.39
-30.99
-21.61
-11.66
-2.26
3.29
3.23
-1.98
-9.87
-17.47
-23.22
-27.88
-33.93
-43.80
-58.13
-74.27
-87.57
-93.50
-89.78
-77.27
-59.28
-39.90
-22.26
-8.09
2.29
8.97
11.86
10.78
6.08
-0.85
-7.75
-12.01
-12.10
-8.16
-2.16
2.80
3.95
0.23
-7.17
-15.33
-21.08
-23.20
-22.50
-21.38
-22.39
-26.90
-34.91
-45.96
-60.25
-78.55
-99.70
-119.66
-131.42
-129.39
-113.84
-91.45
-71.07
-60.16
-56.11
-51.86
-39.78
-14.95
23.08
71.18
123.34
172.04
210.55
234.93
243.92
238.08
219.45
191.12
157.12
121.48
87.99
59.94
40.19
29.77
26.09
22.97
12.60
-11.50
-52.21
-107.75
-172.30
-237.96
-291.57
-320.72
-321.38
-300.37
-269.47
-237.81
-209.69
-186.40
-168.22
-155.02
-147.80
-144.09
-139.54
-129.04
-108.88
-78.69
-41.25
-0.60
39.98
78.74
109.56
128.92
135.90
131.96
120.73
107.57
98.53
98.48
108.89
127.64
151.07
175.41
197.42
214.56
224.37
224.56
213.55
191.16
159.20
121.94
84.46
51.07
24.21
4.37
-9.24
-17.85
-22.68
-24.85
-25.10
-24.15
-22.69
-21.29
-20.23
-19.55
-19.03
-18.41
-17.53
-16.25
-14.53
-12.41
-9.85
-6.74
-2.98
1.40
6.23
11.15
15.81
19.87
23.01
24.96
25.53
24.68
22.56
19.55
16.08
12.54
9.20
6.07
3.06
-0.01
-3.28
-6.83
-10.71
-14.92
-19.37
-23.88
-28.13
-31.74
-34.38
-35.79
-35.89
-34.71
-32.44
-29.30
-25.55
-21.44
-17.16
-12.89
-8.82
-5.08
-1.82
0.90
3.05
4.67
5.80
6.50
6.83
6.90
6.84
6.80
6.88
7.07
7.27
7.31
7.07
6.48
5.59
4.45
3.15
1.68
0.04
-1.74
-3.61
-5.46
-7.24
-8.90
-10.55
-12.30
-14.28
-16.55
-19.06
-21.58
-23.77
-25.22
-25.55
-24.55
-22.21
-18.75
-14.54
-9.98
-5.37
-0.84
3.59
7.91
12.05
15.81
18.96
21.28
22.69
23.23
23.01
22.19
20.86
19.15
17.26
15.46
14.11
13.45
13.49
13.95
14.33
14.12
13.03
11.06
8.54
5.93
3.65
1.94
0.81
0.08
-0.47
-1.04
-1.71
-2.54
-3.53
-4.75
-6.35
-8.44
-11.07
-14.10
-17.20
-19.92
-21.88
-22.81
-22.64
-21.48
-19.50
-16.87
-13.73
-10.21
-6.43
-2.54
1.33
5.06
8.56
11.76
14.59
16.94
18.68
19.72
19.98
19.53
18.54
17.30
16.11
15.23
14.76
14.67
14.79
14.86
14.70
14.20
13.37
12.29
11.06
9.76
8.38
6.94
5.42
3.82
2.18
0.52
-1.17
-2.95
-4.87
-7.00
-9.33
-11.83
-14.40
-16.95
-19.39
-21.66
-23.66
-25.20
-26.05
-25.96
-24.75
-22.42
-19.13
-15.18
-10.89
-6.50
-2.19
1.96
5.86
9.41
12.43
14.77
16.30
16.96
16.84
16.10
14.99
13.80
12.79
12.10
11.77
11.71
11.80
11.90
11.85
11.53
10.85
9.79
8.41
6.82
5.13
3.42
1.70
-0.07
-1.90
-3.77
-5.62
-7.35
-8.91
-10.29
-11.50
-12.58
-13.57
-14.53
-15.54
-16.71
-18.12
-19.74
-21.33
-22.52
-22.86
-22.03
-19.90
-16.67
-12.73
-8.57
-4.60
-1.05
2.01
4.61
6.78
8.50
9.77
10.64
11.23
11.69
12.11
12.46
12.61
12.48
12.03
11.36
10.56
9.71
8.78
7.75
6.66
5.61
4.77
4.24
4.00
3.92
3.85
3.70
3.43
2.99
2.32
1.31
-0.07
-1.69
-3.29
-4.57
-5.32
-5.59
-5.59
-5.68
-6.16
-7.20
-8.83
-10.88
-13.09
-15.08
-16.46
-16.87
-16.08
-14.09
-11.13
-7.64
-4.08
-0.85
1.88
4.15
6.15
8.05
9.85
11.34
12.22
12.25
11.45
10.12
8.70
7.63
7.06
6.92
6.96
6.97
6.85
6.60
6.22
5.61
4.56
2.88
0.58
-2.13
-4.91
-7.41
-9.45
-11.06
-12.39
-13.64
-14.91
-16.22
-17.49
-18.69
-19.76
-20.64
-21.23
-21.40
-21.11
-20.40
-19.41
-18.31
-17.14
-15.83
-14.20
-12.06
-9.38
-6.32
-3.12
-0.01
2.89
5.56
7.98
10.04
11.58
12.44
12.58
12.16
11.45
10.75
10.24
10.00
10.03
10.26
10.66
11.14
11.59
11.89
11.98
11.92
11.86
11.95
12.24
12.62
12.83
12.61
11.79
10.33
8.39
6.19
3.94
1.80
-0.14
-1.92
-3.59
-5.25
-6.95
-8.71
-10.42
-11.90
-12.88
-13.11
-12.42
-10.79
-8.38
-5.51
-2.51
0.37
3.02
5.49
7.88
10.25
12.54
14.60
16.19
17.17
17.48
17.18
16.40
15.28
13.97
12.58
11.22
9.96
8.85
7.91
7.09
6.31
5.51
4.63
3.59
2.36
0.89
-0.76
-2.51
-4.22
-5.74
-7.04
-8.13
-9.09
-10.02
-10.92
-11.77
-12.57
-13.35
-14.20
-15.22
-16.42
-17.71
-18.88
-19.66
-19.74
-18.90
-17.06
-14.23
-10.63
-6.59
-2.50
1.30
4.54
7.16
9.19
10.73
11.84
12.54
12.77
12.48
11.72
10.60
9.32
8.13
7.17
6.51
6.07
5.74
5.41
5.06
4.70
4.37
4.11
3.88
3.67
3.43
3.14
2.74
2.21
1.55
0.77
-0.11
-1.09
-2.20
-3.48
-4.99
-6.76
-8.68
-10.62
-12.47
-14.23
-16.02
-17.93
-20.02
-22.09
-23.90
-25.06
-25.27
-24.44
-22.70
-20.34
-17.67
-14.97
-12.28
-9.89
-7.76
-5.85
-4.17
-2.79
-1.80
-1.39
-1.76
-2.66
-4.43
-6.53
-8.48
-10.02
-11.21
-12.35
-13.74
-15.69
-17.73
-20.43
-23.00
-25.13
-26.79
-27.87
-27.81
-25.48
-19.99
-10.68
0.10
10.68
18.75
23.04
24.50
26.47
33.34
43.21
62.53
87.92
116.30
143.29
164.51
176.22
175.86
162.38
136.38
101.25
54.48
2.83
-42.36
-71.11
-80.88
-76.20
-63.99
-50.04
-37.09
-26.82
-16.58
-6.66
1.40
5.81
6.03
3.30
-0.42
-3.54
-5.76
-6.11
-6.62
-8.57
-12.65
-18.34
-23.82
-27.23
-28.00
-26.67
-23.41
-19.27
-15.03
-11.22
-7.50
-2.40
5.46
15.81
27.59
39.74
50.20
56.75
57.39
48.92
31.53
11.89
-7.25
-26.44
-45.79
-65.43
-85.29
-105.32
-125.43
-145.77
-167.69
-189.75
-207.82
-215.05
-205.29
-175.88
-128.84
-69.81
-8.08
51.21
101.09
135.31
150.67
148.03
132.03
106.24
74.90
47.10
31.49
30.22
38.83
48.71
50.75
37.98
7.91
-36.14
-85.61
-129.05
-156.76
-163.26
-151.08
-125.60
-94.80
-66.36
-44.17
-27.52
-12.81
2.74
19.46
35.13
46.69
51.82
50.53
46.06
39.92
35.40
34.80
38.82
46.30
55.04
62.02
64.09
59.18
46.63
27.72
4.65
-19.38
-40.63
-55.07
-59.41
-51.88
-32.71
-4.43
28.93
62.06
89.85
108.68
117.15
115.83
106.62
91.91
73.92
54.81
36.35
20.07
7.23
-1.25
-5.13
-5.01
-1.96
2.68
7.95
13.29
18.61
24.05
29.76
35.54
40.81
44.87
47.12
47.30
45.57
42.36
38.38
34.31
30.57
27.12
23.33
18.04
9.89
-2.19
-18.35
-37.49
-57.46
-75.64
-89.77
-98.54
-101.88
-100.58
-95.78
-88.41
-78.98
-67.55
-54.03
-38.45
-21.08
-2.61
15.89
33.02
47.32
57.65
63.47
64.91
62.61
57.39
50.10
41.58
32.79
24.56
17.49
11.51
5.67
-1.58
-11.74
-25.49
-42.17
-59.88
-76.13
-88.47
-95.00
-94.59
-86.88
-72.45
-52.86
-30.64
-8.83
9.73
23.24
31.43
35.47
37.25
38.39
39.53
40.05
38.30
32.39
20.96
4.03
-16.73
-38.07
-56.01
-66.84
-68.16
-59.52
-42.35
-19.45
5.67
29.54
49.25
62.83
69.44
69.49
64.51
56.73
48.49
41.50
36.30
32.07
27.06
19.25
7.34
-8.52
-26.56
-43.80
-56.97
-63.65
-62.89
-55.45
-43.18
-28.38
-12.98
1.59
14.46
25.06
33.05
38.35
41.22
42.19
41.86
40.61
38.20
33.77
26.00
13.77
-3.10
-23.39
-44.35
-62.30
-73.70
-76.27
-69.63
-55.26
-35.76
-13.91
8.05
28.55
46.56
61.24
71.87
77.97
79.53
77.06
71.47
63.63
54.08
42.84
29.61
14.18
-3.17
-21.41
-38.77
-53.07
-62.24
-64.92
-60.83
-50.73
-36.21
-19.22
-1.58
15.24
30.27
42.95
52.98
60.29
64.92
66.82
65.86
61.82
54.56
44.19
31.23
16.79
2.61
-9.10
-16.48
-18.45
-15.03
-7.10
4.03
16.99
30.60
44.05
56.69
67.34
74.45
76.46
72.66
63.53
50.32
34.51
17.40
0.05
-17.19
-34.02
-50.09
-65.04
-79.10
-93.82
-111.84
-135.46
-161.71
-184.26
-196.21
-195.10
-184.31
-169.39
-153.87
-137.37
-116.66
-88.56
-53.17
-14.08
22.96
52.98
74.56
88.17
94.56
94.34
88.32
77.69
64.87
52.80
44.33
41.19
43.20
48.73
55.83
63.23
68.47
70.59
69.22
64.54
57.13
47.79
37.56
27.75
19.62
13.80
10.25
7.87
5.08
0.62
-5.89
-13.65
-21.19
-27.13
-31.05
-33.42
-35.39
-38.01
-41.58
-45.70
-49.56
-52.41
-53.86
-53.89
-52.42
-49.39
-44.82
-38.92
-32.15
-25.07
-18.03
-10.96
-3.42
5.16
15.03
25.85
36.76
46.72
54.78
60.43
63.55
64.37
63.38
61.21
58.59
56.10
54.00
51.99
49.24
44.81
38.17
29.62
20.42
12.21
6.37
3.22
1.91
0.71
-2.21
-8.11
-17.25
-28.97
-42.11
-55.36
-67.51
-77.52
-84.52
-87.85
-87.24
-82.87
-75.45
-65.92
-55.13
-43.61
-31.67
-19.68
-8.39
0.94
6.96
8.74
6.43
1.40
-4.09
-7.89
-8.92
-7.62
-5.70
-5.14
-7.11
-11.25
-15.83
-18.37
-16.65
-9.44
3.19
19.61
36.59
49.28
52.01
40.04
12.05
-28.07
-71.42
-106.80
-124.75
-121.19
-98.56
-64.20
-26.89
6.37
31.90
48.85
57.75
59.25
54.01
43.27
29.26
15.05
3.65
-2.97
-4.56
-2.41
1.18
3.69
3.30
-0.61
-7.33
-15.27
-22.68
-28.38
-32.16
-34.63
-36.69
-38.93
-41.25
-43.00
-43.33
-41.75
-38.36
-33.87
-29.23
-25.23
-22.07
-19.30
-16.01
-11.13
-3.84
6.14
18.56
32.66
47.37
61.56
74.20
84.51
92.08
96.81
98.90
98.57
96.05
91.42
84.80
76.48
66.98
57.10
47.65
39.24
32.09
26.05
20.70
15.62
10.58
5.62
1.00
-2.95
-5.98
-8.04
-9.24
-9.79
-9.92
-9.82
-9.64
-9.47
-9.39
-9.40
-9.47
-9.51
-9.41
-9.18
-8.91
-8.82
-9.18
-10.21
-12.00
-14.46
-17.35
-20.37
-23.24
-25.76
-27.81
-29.33
-30.26
-30.54
-30.13
-29.06
-27.39
-25.20
-22.57
-19.49
-15.92
-11.78
-7.05
-1.86
3.47
8.50
12.79
16.02
18.18
19.59
20.76
22.19
24.16
26.55
28.94
30.78
31.71
31.69
31.02
30.20
29.65
29.61
30.06
30.81
31.58
32.16
32.42
32.24
31.55
30.26
28.25
25.43
21.66
16.75
10.40
2.32
-7.67
-19.43
-32.30
-45.16
-56.60
-65.29
-70.29
-71.35
-68.83
-63.48
-56.19
-47.74
-38.75
-29.64
-20.80
-12.61
-5.36
0.88
6.30
11.41
16.72
22.52
28.67
34.56
39.39
42.53
43.90
44.09
44.06
44.83
46.96
50.37
54.33
57.72
59.36
58.35
54.40
47.81
39.51
30.66
22.38
15.35
9.66
4.80
-0.28
-6.78
-15.63
-26.97
-39.69
-51.56
-59.84
-62.53
-59.55
-53.08
-46.72
-43.80
-45.73
-51.31
-57.54
-61.18
-60.26
-54.75
-46.08
-36.13
-26.39
-17.83
-11.13
-7.04
-6.24
-8.88
-14.15
-20.47
-25.97
-29.29
-30.11
-28.94
-26.78
-24.53
-22.65
-21.12
-19.66
-17.90
-15.53
-12.29
-7.90
-2.12
5.14
13.67
22.90
32.00
40.11
46.66
51.49
54.79
56.90
58.03
58.15
57.03
54.51
50.73
46.32
42.24
39.41
38.35
38.88
40.19
41.17
40.88
38.85
35.15
30.19
24.47
18.27
11.64
4.55
-2.91
-10.36
-17.19
-22.74
-26.60
-28.73
-29.48
-29.45
-29.21
-29.06
-28.95
-28.60
-27.78
-26.49
-24.88
-23.14
-21.22
-18.77
-15.30
-10.54
-4.70
1.47
6.98
11.00
13.22
13.85
13.34
12.18
10.65
8.85
6.84
4.81
3.02
1.75
1.14
1.15
1.61
2.30
3.07
3.87
4.72
5.68
6.73
7.78
8.68
9.27
9.48
9.32
8.90
8.38
7.96
7.80
7.99
8.53
9.25
9.86
10.06
9.68
8.80
7.72
6.86
6.48
6.51
6.67
6.58
5.93
4.68
2.97
0.96
-1.25
-3.63
-6.08
-8.44
-10.43
-11.84
-12.66
-13.11
-13.51
-14.04
-14.68
-15.11
-15.08
-14.57
-13.88
-13.42
-13.47
-13.95
-14.49
-14.74
-14.59
-14.32
-14.43
-15.23
-16.65
-18.21
-19.26
-19.35
-18.54
-17.25
-16.10
-15.51
-15.55
-15.99
-16.46
-16.68
-16.47
-15.87
-15.02
-14.02
-12.91
-11.59
-10.02
-8.29
-6.64
-5.48
-5.18
-5.88
-7.42
-9.33
-11.01
-12.01
-12.17
-11.63
-10.78
-9.95
-9.32
-8.91
-8.58
-8.28
-8.06
-8.01
-8.14
-8.30
-8.18
-7.49
-6.16
-4.38
-2.55
-1.04
-0.06
0.41
0.53
0.42
0.07
-0.70
-2.11
-4.24
-6.98
-10.04
-12.99
-15.44
-17.10
-17.89
-17.96
-17.64
-17.36
-17.45
-18.07
-19.20
-20.68
-22.31
-23.97
-25.56
-26.97
-27.98
-28.28
-27.59
-25.71
-22.59
-18.18
-12.34
-4.80
4.77
16.53
30.28
45.35
60.59
74.56
85.73
92.88
95.26
92.95
86.77
78.16
68.74
59.90
52.45
46.57
42.00
38.22
34.75
31.18
27.23
22.70
17.60
12.15
6.79
2.08
-1.47
-3.64
-4.48
-4.31
-3.57
-2.66
-1.85
-1.27
-0.91
-0.70
-0.51
-0.22
0.28
1.14
2.50
4.45
7.03
10.17
13.64
17.15
20.42
23.23
25.53
27.31
28.62
29.41
29.58
29.01
27.67
25.67
23.27
20.75
18.30
15.95
13.56
10.86
7.59
3.53
-1.50
-7.59
-14.74
-22.83
-31.56
-40.57
-49.50
-58.06
-65.97
-72.88
-78.32
-81.77
-82.89
-81.71
-78.66
-74.42
-69.62
-64.56
-59.18
-53.27
-46.81
-40.11
-33.74
-28.18
-23.53
-19.52
-15.76
-12.04
-8.52
-5.51
-3.30
-1.79
-0.61
0.69
2.28
3.90
4.93
4.82
3.49
1.33
-0.82
-2.27
-2.76
-2.51
-2.01
-1.65
-1.48
-1.12
-0.11
1.80
4.39
7.09
9.25
10.46
10.63
10.01
8.85
7.33
5.45
3.22
0.80
-1.43
-3.07
-3.81
-3.55
-2.37
-0.43
2.36
6.32
11.95
19.81
30.07
42.57
56.82
72.14
87.65
102.29
114.82
124.03
129.02
129.51
125.91
119.22
110.36
99.56
86.26
69.77
50.06
28.55
7.79
-9.49
-20.98
-25.86
-25.18
-21.39
-17.19
-14.99
-16.35
-22.34
-33.94
-50.99
-72.36
-96.41
-121.16
-144.52
-164.93
-181.49
-194.33
-204.34
-210.73
-210.82
-201.28
-180.02
-147.37
-106.93
-63.79
-21.05
15.28
41.48
58.74
69.86
74.14
69.76
51.22
16.50
-30.82
-83.06
-130.64
-165.04
-180.77
-177.38
-158.67
-131.43
-102.09
-75.07
-51.57
-29.55
-5.91
20.22
45.90
65.76
74.58
71.01
58.54
44.21
35.90
39.11
54.48
77.93
103.17
124.14
137.19
141.28
137.31
127.41
114.29
100.68
88.93
80.88
77.26
77.77
80.95
84.61
86.78
86.05
81.91
74.52
64.76
53.88
43.33
34.39
27.84
24.01
22.63
23.04
24.06
24.64
24.14
22.67
21.06
20.42
21.45
23.97
26.88
28.43
27.14
22.36
14.55
5.02
-4.58
-12.90
-19.13
-23.12
-25.17
-25.73
-25.17
-23.71
-21.46
-18.57
-15.34
-12.21
-9.57
-7.65
-6.30
-5.03
-3.31
-0.71
2.73
6.52
9.90
12.17
12.97
12.29
10.36
7.49
3.96
0.01
-4.11
-8.08
-11.54
-14.20
-15.91
-16.73
-16.81
-16.35
-15.59
-14.81
-14.29
-14.25
-14.71
-15.45
-16.09
-16.22
-15.61
-14.36
-12.84
-11.52
-10.81
-10.87
-11.56
-12.48
-13.09
-12.88
-11.61
-9.36
-6.58
-3.87
-1.79
-0.57
-0.06
0.15
0.47
1.15
2.10
2.97
3.42
3.35
2.98
2.79
3.26
4.62
6.82
9.52
12.31
14.88
17.06
18.89
20.36
21.36
21.62
20.84
18.85
15.71
11.79
7.63
3.77
0.54
-1.99
-4.04
-5.94
-7.96
-10.13
-12.36
-14.37
-15.93
-16.96
-17.56
-17.99
-18.47
-19.07
-19.72
-20.33
-20.82
-21.14
-21.13
-20.50
-18.83
-15.68
-10.82
-4.36
3.17
11.01
18.33
24.45
28.95
31.48
31.89
30.20
26.76
22.13
17.03
12.22
8.21
5.27
3.14
1.42
-0.00
-0.66
0.10
2.85
7.77
14.33
21.51
27.71
31.63
33.21
33.95
35.79
40.24
47.75
57.43
67.34
74.79
77.64
75.48
69.92
62.89
55.81
49.51
44.37
40.49
36.59
30.16
18.35
-0.84
-28.38
-62.75
-99.30
-132.04
-151.59
-151.94
-135.67
-113.64
-93.41
-77.77
-65.82
-55.87
-46.21
-35.83
-25.32
-15.74
-7.23
1.44
11.13
21.90
32.96
43.05
50.89
55.01
54.45
49.56
42.08
33.82
26.20
20.03
15.50
12.25
9.24
5.50
0.85
-3.88
-7.70
-9.95
-10.54
-9.86
-8.68
-7.97
-8.43
-10.17
-12.67
-15.37
-17.90
-20.17
-22.30
-24.44
-26.74
-29.24
-31.85
-34.37
-36.74
-38.94
-40.97
-42.66
-43.71
-43.72
-42.35
-39.47
-35.24
-30.08
-24.50
-18.93
-13.58
-8.45
-3.45
1.45
6.15
10.36
13.80
16.35
18.12
19.42
20.54
21.65
22.68
23.41
23.61
23.19
22.24
20.92
19.39
17.68
15.76
13.58
11.20
8.77
6.50
4.48
2.70
0.98
-0.88
-2.93
-5.08
-7.04
-8.54
-9.38
-9.55
-9.22
-8.60
-7.90
-7.22
-6.60
-6.05
-5.64
-5.41
-5.45
-5.79
-6.39
-7.20
-8.15
-9.17
-10.24
-11.38
-12.63
-14.05
-15.72
-17.67
-19.89
-22.34
-24.90
-27.47
-29.95
-32.29
-34.56
-36.85
-39.23
-41.71
-44.12
-46.15
-47.34
-47.21
-45.27
-41.13
-34.64
-25.83
-15.04
-2.71
10.69
24.87
39.63
54.81
69.99
84.35
96.73
105.86
110.80
111.22
107.37
99.99
90.01
78.36
66.00
53.89
42.94
33.79
26.65
21.14
16.49
11.86
6.67
0.72
-5.89
-13.01
-20.55
-28.43
-36.41
-43.86
-49.82
-53.29
-53.67
-51.09
-46.43
-40.98
-35.96
-32.04
-29.30
-27.40
-25.87
-24.45
-23.07
-21.78
-20.48
-18.88
-16.54
-13.03
-8.23
-2.30
4.26
10.88
17.10
22.75
27.94
32.95
38.08
43.45
48.91
53.97
57.94
60.19
60.38
58.56
55.17
50.81
46.07
41.30
36.43
31.22
25.53
19.55
13.86
9.33
6.77
6.72
9.25
13.70
18.97
23.95
27.77
29.83
29.67
26.99
21.85
14.72
5.83
-4.64
-16.43
-29.06
-41.77
-53.50
-62.81
-67.99
-67.39
-61.20
-50.82
-38.27
-25.27
-12.79
-1.28
9.05
17.94
24.99
28.15
25.40
15.66
-0.82
-22.78
-48.89
-78.09
-109.16
-133.53
-142.50
-131.30
-103.08
-66.74
-30.95
-1.38
19.54
31.84
37.17
36.24
28.81
16.55
1.81
-12.65
-24.78
-33.85
-40.50
-41.74
-40.11
-38.79
-39.53
-42.13
-44.77
-45.33
-42.41
-35.83
-26.63
-17.76
-11.79
-9.88
-11.48
-14.59
-16.97
-16.93
-13.99
-9.06
-4.43
-2.15
-3.48
-8.87
-17.59
-27.45
-34.69
-34.47
-22.61
2.15
37.12
75.64
108.93
129.32
133.21
122.22
102.08
79.76
60.62
46.88
38.03
32.27
28.21
25.61
25.02
26.85
30.11
32.96
33.18
29.71
23.25
16.02
10.60
8.51
9.53
11.66
12.64
10.96
6.77
1.89
-1.23
-0.85
3.32
10.06
16.91
21.47
21.89
17.63
9.66
0.22
-7.89
-12.03
-10.53
-3.19
8.92
23.63
38.38
50.92
59.85
64.68
66.16
65.91
65.84
67.76
72.39
79.18
86.89
94.40
101.11
107.04
112.32
116.44
118.27
117.32
113.18
106.37
98.05
89.17
79.39
66.87
48.92
23.57
-9.16
-46.97
-86.14
-122.91
-154.66
-180.35
-199.97
-214.02
-222.64
-225.90
-224.07
-217.84
-208.48
-197.52
-186.21
-175.26
-164.94
-155.14
-145.93
-137.94
-132.15
-129.62
-131.02
-136.31
-144.66
-154.82
-165.35
-174.95
-182.69
-187.99
-190.65
-191.02
-189.99
-188.70
-188.07
-187.84
-186.10
-179.42
-163.78
-136.09
-95.44
-43.60
15.24
75.47
131.26
177.68
211.63
232.51
242.28
245.02
245.75
249.21
258.58
274.95
297.22
322.71
347.85
368.76
381.96
385.00
377.23
360.25
337.54
313.36
291.31
273.12
258.23
244.37
228.62
208.62
183.33
153.20
119.84
85.39
51.97
21.17
-6.12
-30.08
-51.89
-73.73
-98.28
-127.93
-164.06
-206.21
-251.85
-296.42
-333.93
-358.01
-363.41
-347.65
-312.19
-262.55
-206.91
-153.77
-109.43
-76.51
-54.04
-39.03
-28.42
-20.38
-14.50
-10.93
-9.46
-9.14
-8.82
-7.86
-6.52
-5.77
-6.58
-9.24
-13.03
-16.46
-18.07
-17.12
-14.02
-9.95
-6.28
-3.92
-3.04
-3.08
-3.17
-2.71
-1.79
-1.14
-1.48
-3.18
-6.08
-9.53
-12.81
-15.15
-16.35
-16.99
-18.22
-20.57
-24.02
-28.20
-32.60
-36.87
-40.34
-42.73
-44.63
-47.57
-51.94
-57.50
-63.75
-69.88
-75.28
-78.55
-78.79
-76.55
-74.17
-72.66
-72.25
-72.61
-72.52
-70.20
-62.06
-44.73
-17.14
18.44
60.33
106.94
156.67
206.67
244.78
261.92
259.21
250.09
235.73
216.20
193.22
166.53
139.05
113.48
92.31
75.91
61.45
42.56
14.93
-23.57
-72.03
-127.01
-182.13
-227.41
-251.88
-247.97
-216.39
-163.21
-98.97
-34.71
19.30
57.37
79.87
91.71
98.31
100.63
98.82
93.74
89.36
87.40
87.74
87.55
82.83
69.34
41.87
0.28
-49.71
-96.86
-134.91
-162.77
-185.02
-207.57
-217.90
-207.77
-178.41
-153.86
-133.04
-113.19
-86.16
-52.77
-16.30
19.71
49.97
71.11
82.75
88.50
90.41
90.92
91.56
93.88
98.60
103.20
104.57
101.22
95.20
90.28
91.79
102.57
121.29
142.19
155.84
153.88
132.02
90.84
36.27
-22.45
-76.16
-116.76
-136.88
-131.02
-97.29
-30.96
49.77
110.89
126.98
95.71
33.05
-37.22
-92.35
-117.29
-108.07
-77.39
-32.85
17.57
64.73
99.25
113.70
105.50
77.35
35.91
-12.17
-55.17
-81.64
-86.02
-71.05
-45.30
-17.47
7.20
27.67
44.20
59.78
76.33
93.33
110.78
125.24
134.20
139.33
144.11
146.83
143.58
130.52
105.26
67.66
20.09
-31.69
-80.36
-119.07
-145.72
-157.96
-152.97
-129.75
-92.56
-51.51
-18.57
-2.76
-5.81
-25.53
-51.25
-68.07
-65.57
-45.21
-19.05
-1.81
-2.73
-22.25
-60.26
-112.06
-169.75
-226.51
-280.50
-332.40
-382.01
-426.20
-421.22
-348.59
-230.03
-107.22
-7.84
60.97
104.00
129.58
146.33
160.86
170.62
172.55
166.49
157.59
149.64
144.76
143.02
144.39
148.41
149.06
141.33
124.20
99.56
67.77
36.51
11.12
-5.20
-12.63
-16.26
-20.12
-24.72
-28.11
-28.72
-25.95
-21.16
-15.65
-10.31
-6.86
-6.06
-7.12
-8.33
-8.48
-7.00
-4.74
-2.59
-1.09
-0.74
-1.49
-2.75
-3.68
-3.88
-3.28
-2.66
-2.64
-3.45
-4.81
-6.13
-6.92
-6.94
-6.44
-5.87
-6.03
-7.39
-9.92
-12.98
-15.66
-17.23
-17.54
-17.09
-16.84
-17.88
-20.73
-25.22
-30.37
-34.88
-37.87
-39.08
-39.15
-39.13
-40.11
-42.76
-47.59
-54.74
-63.74
-72.98
-79.40
-79.20
-69.25
-49.28
-21.74
7.82
33.16
49.79
56.53
55.43
49.93
43.05
36.27
29.74
23.12
16.61
11.00
6.98
4.54
2.70
0.07
-4.09
-9.40
-14.27
-16.29
-13.42
-4.82
8.90
26.02
44.18
61.37
76.46
88.85
99.46
109.87
121.64
135.35
149.47
159.92
161.14
148.36
120.72
81.56
38.74
0.63
-26.72
-41.92
-48.33
-51.53
-56.20
-64.09
-74.42
-85.25
-95.30
-104.13
-110.83
-113.18
-107.79
-92.54
-68.71
-41.50
-18.15
-4.34
-1.48
-6.11
-12.46
-15.98
-15.49
-13.42
-13.22
-16.72
-22.48
-27.59
-29.40
-27.08
-21.81
-15.75
-10.59
-6.54
-2.71
1.98
8.10
15.21
22.04
27.34
29.93
29.24
25.76
20.71
15.79
12.47
11.53
13.03
16.68
21.34
25.59
28.44
29.65
29.88
30.26
31.86
35.40
41.42
49.01
56.77
63.62
69.39
74.97
81.95
91.82
100.85
109.78
119.57
130.78
142.50
151.72
153.55
142.95
117.30
78.52
33.96
-7.42
-37.96
-54.21
-57.61
-52.84
-44.77
-36.36
-28.08
-18.63
-7.89
2.92
11.82
17.29
19.06
18.46
17.42
17.76
20.63
25.14
29.72
32.91
34.00
33.30
31.96
31.42
32.83
36.94
42.29
47.40
51.32
53.99
55.97
58.12
61.23
65.88
72.32
78.82
83.89
86.54
86.44
83.46
77.49
67.87
52.86
37.42
22.22
7.86
-4.46
-13.14
-17.03
-15.71
-9.52
0.85
14.43
26.81
35.32
40.09
43.14
46.39
50.47
54.87
58.58
60.16
52.70
32.63
1.99
-33.34
-67.93
-99.06
-126.48
-151.01
-174.51
-206.79
-252.74
-308.71
-365.27
-414.39
-452.74
-480.91
-500.90
-515.98
-538.94
-576.81
-626.86
-680.27
-729.94
-772.86
-807.08
-828.39
-767.66
-598.85
-355.57
-105.43
100.72
246.09
337.13
385.43
412.40
430.51
436.03
427.15
411.03
401.79
412.44
447.59
503.71
571.53
636.82
677.87
681.54
649.29
594.57
533.33
477.01
430.70
394.48
364.45
331.42
290.89
245.63
202.64
167.09
139.50
117.23
97.23
76.89
51.23
18.88
-17.08
-51.37
-80.32
-103.49
-122.31
-138.27
-152.38
-169.36
-191.33
-216.21
-239.43
-257.63
-270.08
-277.38
-280.11
-278.38
-278.06
-282.45
-289.67
-294.58
-293.48
-286.04
-274.05
-259.90
-245.71
-241.28
-252.79
-279.02
-313.59
-351.07
-389.72
-430.20
-473.87
-470.02
-396.12
-270.83
-136.77
-24.73
56.91
112.50
149.78
175.76
195.43
204.03
198.81
183.18
164.83
149.84
140.05
134.62
132.20
131.60
126.14
112.51
92.79
72.73
56.69
45.37
36.98
29.37
21.05
8.13
-10.04
-29.77
-44.90
-50.34
-43.86
-27.53
-2.21
28.26
56.28
75.11
81.73
77.96
69.13
61.98
61.45
68.71
80.58
91.12
95.08
90.06
76.59
57.00
34.24
11.29
-9.00
-24.27
-32.57
-33.17
-26.92
-16.41
-4.62
6.43
15.80
23.88
31.76
41.09
53.17
68.45
86.11
99.46
102.86
92.22
67.61
33.65
-1.54
