1589811508.00
64.000000
-0.00
-0.00
-0.00
-0.00
-0.00
-0.00
-0.00
-0.00
-0.00
-0.00
0.00
0.01
0.01
-0.00
-0.03
-0.05
-0.05
0.00
0.13
0.36
0.66
1.01
1.37
1.72
2.06
2.40
2.79
3.24
3.80
4.42
5.06
5.66
6.20
6.68
7.15
7.68
8.31
9.14
10.09
11.04
11.88
12.56
13.14
13.76
14.65
15.96
17.91
20.32
22.90
25.38
27.58
29.57
31.68
34.32
37.81
42.54
48.15
54.10
59.83
64.97
69.58
74.14
79.34
85.71
93.76
103.00
112.62
121.73
129.77
136.75
143.30
150.75
157.77
166.64
177.95
191.79
206.97
220.57
228.25
225.36
208.53
176.87
132.76
80.05
23.07
-34.94
-92.44
-149.16
-205.23
-260.37
-313.74
-363.87
-409.83
-450.91
-486.50
-515.74
-537.23
-549.22
-549.96
-538.37
-514.21
-478.67
-433.88
-382.45
-327.02
-269.84
-212.63
-156.66
-102.95
-52.37
-5.90
35.58
71.43
101.35
125.50
144.38
158.69
169.15
176.37
180.75
182.57
182.07
179.51
175.23
169.65
163.18
156.15
148.81
141.30
133.69
126.02
118.33
110.69
103.16
95.80
88.68
81.83
75.25
68.95
62.95
57.25
51.86
46.78
42.03
37.59
33.45
29.61
26.07
22.81
19.83
17.11
14.67
12.48
10.54
8.83
7.35
6.07
4.97
4.05
3.27
2.62
2.09
1.65
1.30
1.01
0.79
0.60
0.47
0.38
0.32
0.27
0.23
0.16
0.08
-0.02
-0.10
-0.17
-0.19
-0.17
-0.13
-0.09
-0.08
-0.10
-0.14
-0.19
-0.21
-0.20
-0.14
-0.07
-0.02
-0.03
-0.12
-0.28
-0.44
-0.54
-0.51
-0.36
-0.15
-0.01
-0.06
-0.34
-0.83
-1.34
-1.71
-1.77
-1.52
-1.09
-0.74
-0.69
-1.07
-1.77
-2.54
-3.04
-3.05
-2.53
-1.73
-1.04
-0.84
-1.34
-2.42
-3.71
-4.73
-5.08
-4.62
-3.53
-2.16
-1.03
-0.67
-1.58
-4.09
-8.00
-12.20
-14.72
-13.48
-7.17
3.78
17.04
29.32
37.76
40.97
39.45
34.90
29.08
23.05
17.04
10.96
5.13
0.31
-2.78
-3.96
-3.91
-3.69
-3.95
-4.51
-4.52
-3.35
-1.48
-0.33
-1.36
-4.74
-8.67
-9.99
-5.86
4.59
19.82
36.53
51.21
61.10
64.91
62.10
52.20
35.28
11.99
-14.80
-40.49
-60.39
-71.63
-74.28
-70.92
-64.94
-58.86
-53.63
-49.00
-44.54
-40.23
-36.38
-32.95
-29.34
-24.69
-18.63
-11.78
-5.59
-1.63
-0.61
-1.94
-3.98
-5.02
-4.12
-1.42
2.08
5.23
7.29
8.26
8.72
9.39
10.70
12.52
14.25
15.06
14.31
11.75
7.65
2.70
-2.21
-6.25
-8.93
-10.26
-10.76
-11.25
-12.72
-16.02
-21.57
-29.21
-38.20
-47.44
-55.79
-62.38
-66.81
-69.18
-69.88
-69.44
-68.35
-67.05
-65.99
-65.81
-67.36
-71.66
-79.56
-91.37
-106.62
-123.96
-141.35
-156.31
-166.16
-168.15
-160.03
-140.90
-112.06
-77.17
-41.43
-9.63
15.69
35.34
52.80
72.35
96.83
126.38
158.66
190.17
217.89
240.03
255.78
264.68
266.30
260.82
249.80
236.85
226.74
223.63
229.09
240.76
252.49
256.17
244.67
214.53
167.54
110.50
53.19
5.39
-26.37
-40.46
-40.17
-31.79
-21.80
-14.46
-10.89
-9.78
-9.14
-7.97
-6.73
-6.76
-9.11
-13.79
-19.91
-26.47
-33.16
-40.38
-48.52
-57.09
-64.56
-69.07
-69.61
-66.75
-62.55
-59.56
-59.65
-63.32
-69.76
-77.61
-85.61
-92.73
-98.10
-100.83
-100.16
-95.88
-88.70
-80.04
-71.49
-64.13
-58.17
-53.19
-48.50
-43.73
-38.94
-34.61
-31.29
-29.30
-28.54
-28.57
-28.80
-28.84
-28.74
-28.97
-30.14
-32.55
-35.95
-39.52
-42.26
-43.31
-42.27
-39.29
-34.78
-29.23
-23.02
-16.38
-9.62
-3.06
2.84
7.72
11.42
14.08
16.04
17.66
19.18
20.63
21.94
22.95
23.58
23.83
23.83
23.66
23.42
23.14
22.76
22.22
21.40
20.15
18.34
15.89
12.85
9.42
5.95
2.76
-0.01
-2.48
-5.00
-7.96
-11.57
-15.67
-19.73
-22.98
-24.79
-24.79
-23.02
-19.87
-15.87
-11.56
-7.36
-3.54
-0.32
2.15
3.75
4.37
4.03
2.95
1.47
0.02
-1.02
-1.44
-1.21
-0.45
0.67
1.95
3.18
4.15
4.70
4.71
4.23
3.45
2.59
1.88
1.32
0.81
0.10
-1.11
-3.03
-5.76
-9.23
-13.09
-16.79
-19.62
-20.96
-20.49
-18.19
-14.37
-9.40
-3.63
2.75
9.49
16.28
22.60
27.90
31.76
34.03
34.92
34.82
34.21
33.51
32.94
32.55
32.22
31.73
30.88
29.54
27.70
25.50
23.16
20.91
18.89
17.11
15.45
13.67
11.55
8.92
5.73
1.99
-2.25
-6.99
-12.23
-17.85
-23.52
-28.69
-32.67
-34.84
-34.90
-32.95
-29.42
-24.90
-19.97
-15.01
-10.26
-5.80
-1.64
2.25
5.84
9.11
11.97
14.32
16.09
17.32
18.15
18.79
19.45
20.19
20.89
21.27
21.09
20.20
18.61
16.51
14.08
11.47
8.74
5.94
3.15
0.49
-1.91
-4.05
-6.04
-8.17
-10.70
-13.72
-17.09
-20.42
-23.19
-24.92
-25.25
-23.96
-21.04
-16.63
-11.05
-4.82
1.47
7.27
12.14
15.93
18.74
20.84
22.44
23.67
24.45
24.69
24.37
23.70
23.03
22.67
22.74
23.14
23.51
23.52
22.99
21.87
20.19
17.95
15.02
11.28
6.80
2.01
-2.32
-5.34
-6.44
-5.61
-3.46
-1.07
0.42
0.20
-1.91
-5.50
-9.75
-13.73
-16.70
-18.17
-17.90
-15.81
-12.01
-6.82
-0.84
5.19
10.59
14.99
18.43
21.24
23.80
26.33
28.80
31.01
32.75
33.95
34.69
35.10
35.31
35.36
35.26
35.02
34.73
34.56
34.70
35.27
36.24
37.37
38.30
38.70
38.36
37.31
35.83
34.35
33.35
33.23
34.31
36.66
40.12
44.22
48.29
51.64
53.84
54.97
55.51
56.20
57.59
59.83
62.57
65.06
66.29
65.08
60.19
50.66
36.27
17.91
-2.34
-21.63
-37.20
-47.19
-51.27
-50.47
-46.71
-41.92
-37.51
-34.13
-31.85
-30.53
-30.03
-30.29
-31.28
-32.76
-34.33
-35.45
-35.75
-35.27
-34.59
-34.64
-36.35
-40.23
-46.03
-52.95
-59.97
-66.25
-71.42
-75.53
-78.74
-81.07
-82.26
-81.91
-79.71
-75.69
-70.27
-64.14
-57.97
-52.20
-46.91
-41.96
-37.14
-32.42
-27.95
-23.95
-20.57
-17.77
-15.35
-13.12
-11.05
-9.28
-8.06
-7.48
-7.24
-6.80
-5.52
-3.04
0.40
4.06
6.93
8.14
7.33
4.77
1.21
-2.30
-4.80
-5.58
-4.37
-1.34
2.91
7.51
11.46
13.90
14.43
13.17
10.83
8.47
7.07
7.26
9.18
12.46
16.55
20.86
24.93
28.50
31.39
33.50
34.80
35.38
35.45
35.24
34.92
34.55
34.15
33.75
33.46
33.37
33.47
33.55
33.27
32.31
30.54
28.07
25.15
22.05
18.93
15.77
12.52
9.13
5.62
2.00
-1.75
-5.68
-9.85
-14.24
-18.76
-23.23
-27.54
-31.73
-35.94
-40.29
-44.73
-48.96
-52.39
-54.46
-54.73
-53.18
-50.11
-46.10
-41.67
-37.24
-33.02
-29.11
-25.57
-22.46
-19.81
-17.56
-15.62
-13.80
-12.02
-10.36
-9.01
-8.28
-8.35
-9.26
-10.81
-12.67
-14.46
-15.84
-16.58
-16.66
-16.23
-15.59
-15.13
-15.15
-15.80
-16.98
-18.39
-19.65
-20.52
-20.95
-21.06
-21.12
-21.29
-21.61
-21.96
-22.19
-22.17
-21.80
-20.98
-19.51
-17.22
-14.02
-10.13
-5.97
-2.03
1.39
4.33
7.08
9.91
12.80
15.39
17.20
17.94
17.84
17.49
17.53
18.22
19.26
19.99
19.87
18.74
16.99
15.26
14.04
13.41
13.03
12.40
11.24
9.66
8.15
7.25
7.21
7.85
8.69
9.14
8.96
8.30
7.64
7.49
8.06
9.12
10.19
10.91
11.39
12.24
14.33
18.23
23.87
30.49
36.91
42.11
45.55
47.29
47.65
46.87
44.86
41.21
35.56
27.91
18.84
9.31
0.31
-7.59
-14.31
-20.16
-25.32
-29.63
-32.53
-33.43
-32.14
-29.04
-24.95
-20.64
-16.45
-12.24
-7.79
-3.17
1.05
4.03
5.25
4.80
3.47
2.23
1.75
2.02
2.42
2.09
0.27
-3.24
-8.19
-13.90
-19.47
-24.05
-26.97
-27.92
-26.99
-24.66
-21.71
-19.03
-17.31
-16.90
-17.63
-18.98
-20.33
-21.26
-21.73
-22.05
-22.59
-23.45
-24.31
-24.57
-23.63
-21.28
-17.84
-13.86
-9.90
-6.20
-2.69
0.79
4.25
7.49
10.18
12.08
13.23
13.91
14.47
15.09
15.68
15.95
15.51
13.99
11.08
6.54
0.25
-7.68
-16.73
-25.89
-33.73
-38.76
-39.86
-36.72
-29.90
-20.63
-10.29
0.09
10.02
19.46
28.39
36.57
43.41
48.27
50.81
51.26
50.35
48.93
47.62
46.57
45.52
44.10
42.03
39.21
35.69
31.65
27.22
22.53
17.67
12.72
7.69
2.55
-2.70
-8.05
-13.40
-18.60
-23.46
-27.79
-31.37
-34.02
-35.70
-36.55
-36.90
-37.07
-37.22
-37.16
-36.42
-34.45
-30.94
-25.91
-19.71
-12.78
-5.43
2.19
10.05
17.99
25.63
32.53
38.26
42.70
46.08
48.94
51.92
55.52
59.95
65.01
70.22
74.97
78.78
81.38
82.82
83.21
82.61
80.89
77.73
72.77
65.85
57.11
47.00
36.16
25.28
15.05
6.01
-1.37
-6.88
-10.67
-13.41
-16.24
-20.54
-27.40
-37.13
-48.85
-60.59
-69.89
-74.57
-73.53
-67.12
-56.94
-45.21
-34.00
-24.63
-17.51
-12.33
-8.48
-5.39
-2.81
-0.85
0.16
-0.16
-2.07
-5.58
-10.49
-16.45
-22.96
-29.49
-35.43
-40.09
-42.79
-43.12
-41.10
-37.29
-32.66
-28.21
-24.53
-21.64
-19.09
-16.35
-13.19
-9.85
-6.88
-4.82
-3.91
-4.07
-5.04
-6.63
-8.84
-11.85
-15.73
-20.30
-25.11
-29.50
-32.84
-34.79
-35.31
-34.71
-33.39
-31.76
-30.03
-28.18
-25.90
-22.77
-18.44
-12.76
-5.98
1.30
8.22
13.93
17.77
19.46
19.19
17.49
15.04
12.53
10.47
9.18
8.73
9.05
9.91
10.99
11.91
12.30
11.83
10.31
7.84
4.78
1.76
-0.53
-1.53
-1.14
0.26
1.90
2.90
2.66
1.02
-1.64
-4.69
-7.51
-9.67
-10.99
-11.41
-10.90
-9.39
-6.87
-3.46
0.57
4.92
9.35
13.70
17.83
21.57
24.65
26.93
28.42
29.37
30.09
30.72
31.11
30.86
29.61
27.33
24.49
21.84
20.12
19.71
20.42
21.72
22.88
23.37
22.95
21.68
19.82
17.69
15.55
13.55
11.80
10.28
8.89
7.35
5.28
2.22
-2.20
-8.14
-15.45
-23.61
-31.85
-39.30
-45.07
-48.51
-49.37
-47.85
-44.51
-40.17
-35.48
-30.69
-25.58
-19.62
-12.34
-3.71
5.76
15.18
23.67
30.68
36.19
40.47
43.94
46.95
49.67
52.16
54.34
55.98
56.69
55.96
53.39
48.94
43.03
36.44
30.07
24.52
19.96
16.20
12.83
9.54
6.15
2.63
-1.04
-4.87
-8.87
-12.95
-16.91
-20.54
-23.73
-26.59
-29.43
-32.61
-36.27
-40.23
-43.98
-46.83
-48.19
-47.70
-45.30
-41.09
-35.41
-28.68
-21.53
-14.72
-8.91
-4.46
-1.27
1.19
3.59
6.33
9.34
12.10
13.97
14.66
14.34
13.63
13.18
13.48
14.58
16.29
18.24
20.17
21.87
23.25
24.26
24.87
25.08
24.91
24.39
23.54
22.39
20.99
19.33
17.41
15.16
12.38
8.87
4.52
-0.66
-6.47
-12.55
-18.52
-23.96
-28.63
-32.34
-34.97
-36.41
-36.53
-35.19
-32.34
-28.11
-22.77
-16.78
-10.55
-4.38
1.54
7.17
12.36
16.91
20.60
23.32
25.20
26.61
27.94
29.44
31.00
32.25
32.71
31.97
29.91
26.65
22.55
18.01
13.44
9.19
5.54
2.64
0.50
-1.06
-2.34
-3.66
-5.26
-7.23
-9.54
-12.16
-15.09
-18.35
-21.92
-25.71
-29.58
-33.41
-37.16
-40.82
-44.28
-47.31
-49.53
-50.53
-50.07
-48.07
-44.64
-39.97
-34.26
-27.78
-20.86
-13.98
-7.65
-2.25
2.05
5.33
7.81
9.74
11.24
12.31
12.88
12.92
12.55
12.04
11.74
11.92
12.65
13.75
14.88
15.70
16.00
15.70
14.88
13.54
11.62
9.00
5.72
1.98
-1.76
-4.99
-7.33
-8.73
-9.47
-10.03
-10.92
-12.41
-14.52
-17.09
-19.92
-22.89
-25.97
-29.10
-32.04
-34.34
-35.47
-35.02
-32.89
-29.39
-25.09
-20.57
-16.25
-12.23
-8.43
-4.77
-1.20
2.08
4.83
6.81
8.01
8.60
8.90
9.20
9.62
10.08
10.42
10.53
10.40
10.10
9.64
8.99
8.10
7.04
6.02
5.38
5.36
5.97
6.94
7.91
8.51
8.53
7.92
6.79
5.24
3.39
1.40
-0.68
-2.81
-5.13
-7.83
-11.04
-14.62
-18.14
-20.95
-22.44
-22.28
-20.50
-17.46
-13.62
-9.37
-4.97
-0.52
3.96
8.33
12.41
15.95
18.80
21.01
22.71
24.09
25.19
25.94
26.27
26.16
25.80
25.41
25.11
24.79
24.11
22.78
20.71
18.19
15.63
13.40
11.57
9.94
8.19
6.13
3.82
1.41
-0.94
-3.32
-5.95
-9.05
-12.67
-16.58
-20.43
-23.94
-27.06
-30.01
-33.15
-36.74
-40.75
-44.78
-48.22
-50.40
-50.88
-49.52
-46.53
-42.42
-37.84
-33.48
-29.94
-27.50
-26.00
-24.68
-22.36
-17.74
-9.90
1.18
14.51
28.31
40.59
49.74
55.03
56.66
55.57
53.00
50.13
47.90
46.87
47.42
49.67
53.45
58.22
63.15
67.24
69.67
70.09
68.75
66.44
64.03
62.10
60.60
58.74
55.38
49.49
40.69
29.47
16.95
4.54
-6.52
-15.40
-21.57
-24.68
-24.33
-20.27
-12.60
-2.09
9.79
21.23
30.68
37.29
41.08
42.72
43.04
42.60
41.60
39.95
37.64
34.87
32.10
29.80
28.23
27.43
27.31
27.73
28.58
29.55
30.09
29.39
26.58
21.12
12.97
2.61
-9.19
-21.51
-33.49
-44.37
-53.47
-60.40
-65.21
-68.47
-71.15
-74.23
-78.26
-83.18
-88.45
-93.31
-97.20
-99.79
-100.95
-100.54
-98.46
-94.68
-89.53
-83.63
-77.72
-72.34
-67.51
-62.76
-57.41
-51.03
-43.74
-36.23
-29.43
-24.10
-20.53
-18.41
-17.11
-15.92
-14.25
-11.72
-8.16
-3.55
1.94
7.89
13.67
18.61
22.19
24.23
24.88
24.45
23.25
21.48
19.26
16.78
14.35
12.38
11.09
10.46
10.15
9.70
8.72
7.05
4.74
1.91
-1.35
-5.08
-9.30
-13.89
-18.58
-22.85
-26.16
-28.05
-28.37
-27.24
-25.07
-22.31
-19.35
-16.34
-13.21
-9.76
-5.79
-1.19
3.94
9.34
14.56
19.06
22.27
23.68
23.03
20.36
16.07
10.87
5.66
1.21
-1.95
-3.74
-4.40
-4.43
-4.26
-4.17
-4.20
-4.25
-4.27
-4.30
-4.56
-5.27
-6.52
-8.20
-9.97
-11.45
-12.42
-12.93
-13.34
-14.21
-16.04
-19.06
-22.99
-27.13
-30.54
-32.34
-32.07
-29.74
-25.80
-20.88
-15.55
-10.24
-5.16
-0.41
4.02
8.15
12.04
15.70
19.02
21.77
23.71
24.73
25.02
25.01
25.18
25.82
26.93
28.31
29.69
31.00
32.28
33.65
35.06
36.21
36.72
36.19
34.50
31.76
28.42
25.09
22.47
21.17
21.45
23.10
25.41
27.32
27.85
26.51
23.42
19.26
14.89
10.99
7.90
5.63
4.05
3.12
2.93
3.63
5.32
7.85
10.90
13.98
16.53
18.10
18.43
17.49
15.49
12.79
9.81
6.93
4.43
2.45
1.04
0.18
-0.27
-0.43
-0.45
-0.37
-0.23
-0.00
0.25
0.40
0.25
-0.35
-1.44
-2.93
-4.58
-6.18
-7.63
-8.99
-10.44
-12.16
-14.25
-16.66
-19.27
-21.98
-24.78
-27.78
-31.12
-34.83
-38.71
-42.26
-44.80
-45.69
-44.53
-41.31
-36.42
-30.50
-24.21
-18.04
-12.22
-6.78
-1.67
3.04
7.11
10.29
12.45
13.76
14.64
15.62
17.01
18.77
20.48
21.62
21.86
21.25
20.18
19.14
18.44
18.09
17.80
17.16
15.88
13.85
11.25
8.36
5.44
2.70
0.17
-2.18
-4.45
-6.73
-9.11
-11.66
-14.46
-17.58
-21.04
-24.81
-28.73
-32.53
-35.80
-38.10
-38.99
-38.23
-35.80
-32.01
-27.39
-22.48
-17.73
-13.31
-9.16
-5.11
-1.09
2.81
6.36
9.28
11.46
12.98
14.01
14.80
15.50
16.16
16.78
17.34
17.86
18.39
18.93
19.44
19.88
20.25
20.58
20.97
21.47
22.10
22.78
23.36
23.71
23.70
23.25
22.41
21.26
20.01
18.88
18.05
17.60
17.42
17.32
17.02
16.29
15.07
13.46
11.80
10.53
10.04
10.47
11.72
13.45
15.29
17.00
18.51
19.80
20.74
20.94
19.84
16.93
12.08
5.73
-1.22
-7.67
-12.76
-16.04
-17.48
-17.31
-15.72
-12.80
-8.45
-2.58
4.75
13.26
22.26
30.75
37.56
41.57
42.06
38.98
32.95
25.10
16.71
8.84
2.07
-3.51
-8.15
-12.20
-15.99
-19.73
-23.45
-27.05
-30.28
-32.82
-34.32
-34.55
-33.48
-31.27
-28.23
-24.67
-20.86
-16.96
-13.03
-9.18
-5.52
-2.23
0.47
2.41
3.52
3.86
3.61
3.01
2.34
1.87
1.70
1.79
1.92
1.72
0.79
-1.14
-4.06
-7.63
-11.25
-14.21
-15.92
-16.15
-15.04
-13.16
-11.25
-10.07
-10.17
-11.73
-14.57
-18.25
-22.24
-26.02
-29.26
-31.68
-33.12
-33.44
-32.59
-30.65
-27.85
-24.52
-20.98
-17.39
-13.70
-9.67
-5.05
0.31
6.28
12.49
18.46
23.70
27.95
31.13
33.38
34.93
35.98
36.66
37.00
37.02
36.74
36.22
35.51
34.63
33.52
32.13
30.49
28.74
27.11
25.83
25.00
24.60
24.44
24.32
24.08
23.70
23.22
22.72
22.22
21.67
20.94
19.83
18.23
16.05
13.44
10.70
8.41
7.31
8.14
11.48
17.50
25.95
36.16
47.28
58.56
69.55
80.28
91.22
103.10
116.66
132.42
150.38
169.87
189.51
207.33
221.08
228.71
228.93
221.46
207.16
187.53
164.30
138.89
112.27
85.13
58.04
31.69
6.85
-15.84
-36.02
-53.73
-69.25
-83.02
-95.55
-107.32
-118.89
-130.75
-143.17
-155.94
-168.34
-179.31
-187.82
-193.26
-195.61
-195.41
-193.43
-190.41
-186.74
-182.40
-176.92
-169.54
-159.31
-145.49
-127.88
-107.05
-84.47
-62.22
-42.52
-27.23
-17.49
-13.50
-14.53
-19.05
-25.12
-30.74
-34.47
-35.74
-34.97
-33.38
-32.34
-32.86
-35.00
-37.89
-39.95
-39.44
-35.06
-26.38
-14.07
0.25
14.46
26.48
34.85
39.02
39.37
36.88
32.75
28.00
23.26
18.69
14.15
9.41
4.36
-0.85
-5.87
-10.29
-13.80
-16.29
-17.85
-18.59
-18.54
-17.61
-15.70
-12.84
-9.35
-5.79
-2.85
-1.12
-0.95
-2.33
-5.02
-8.60
-12.65
-16.78
-20.68
-24.07
-26.69
-28.33
-28.89
-28.42
-27.14
-25.52
-24.12
-23.54
-24.20
-26.20
-29.27
-32.80
-36.03
-38.21
-38.84
-37.68
-34.92
-31.01
-26.69
-22.72
-19.71
-17.92
-17.01
-16.13
-14.00
-9.36
-1.30
10.39
25.19
41.84
58.63
73.75
85.63
93.37
96.90
96.94
94.74
91.52
88.13
84.76
81.12
76.80
71.68
66.03
60.34
54.96
49.89
44.74
39.05
32.72
26.02
19.56
13.84
8.93
4.49
-0.11
-5.26
-10.93
-16.65
-21.83
-26.06
-29.30
-31.82
-34.03
-36.39
-39.25
-42.91
-47.42
-52.53
-57.61
-61.79
-64.28
-64.63
-62.89
-59.46
-54.80
-49.19
-42.68
-35.31
-27.29
-19.11
-11.33
-4.45
1.35
6.14
10.11
13.41
16.11
18.15
19.49
20.21
20.47
20.50
20.46
20.45
20.43
20.29
19.92
19.23
18.21
16.84
15.10
12.95
10.31
7.19
3.66
-0.06
-3.77
-7.32
-10.74
-14.22
-18.03
-22.41
-27.50
-33.34
-39.75
-46.43
-52.90
-58.52
-62.56
-64.43
-63.82
-60.88
-56.04
-49.87
-42.75
-34.80
-26.00
-16.42
-6.50
2.93
10.94
16.88
20.65
22.80
24.21
25.74
28.02
31.47
36.42
43.26
52.28
63.32
75.48
87.10
96.17
101.02
100.98
96.57
89.27
80.85
72.69
65.50
59.33
53.94
49.08
44.60
40.38
36.20
31.65
26.21
19.56
11.71
3.18
-5.23
-12.64
-18.43
-22.38
-24.73
-25.96
-26.56
-26.88
-26.98
-26.70
-25.88
-24.48
-22.73
-21.05
-19.84
-19.25
-19.14
-19.12
-18.76
-17.88
-16.58
-15.23
-14.21
-13.75
-13.89
-14.48
-15.32
-16.26
-17.20
-18.13
-19.07
-20.11
-21.38
-22.98
-24.90
-27.02
-29.12
-31.04
-32.79
-34.54
-36.60
-39.24
-42.58
-46.62
-51.25
-56.22
-61.14
-65.44
-68.38
-69.26
-67.69
-63.67
-57.75
-50.74
-43.42
-36.21
-29.04
-21.55
-13.40
-4.57
4.47
12.99
20.24
25.84
29.98
33.26
36.48
40.39
45.56
52.38
61.10
71.65
83.39
95.04
104.81
110.87
111.94
107.74
98.98
86.96
73.04
58.18
42.83
27.23
11.73
-2.97
-15.97
-26.54
-34.50
-40.38
-45.22
-50.06
-55.45
-61.06
-65.71
-67.72
-65.41
-57.73
-44.64
-27.19
-7.25
12.89
31.23
46.41
57.88
65.73
70.37
72.27
71.80
69.36
65.47
60.83
56.13
51.84
48.02
44.30
40.16
35.19
29.36
23.09
17.12
12.14
8.47
5.94
3.90
1.59
-1.59
-5.75
-10.59
-15.56
-20.15
-24.14
-27.55
-30.59
-33.42
-36.16
-38.86
-41.61
-44.59
-48.05
-52.06
-56.45
-60.65
-63.82
-65.04
-63.63
-59.45
-52.92
-44.87
-36.24
-27.76
-19.78
-12.37
-5.45
0.95
6.66
11.37
14.91
17.29
18.82
19.89
20.85
21.82
22.68
23.18
23.17
22.65
21.86
21.10
20.52
20.00
19.14
17.48
14.70
10.80
6.15
1.30
-3.25
-7.24
-10.75
-14.09
-17.68
-21.80
-26.54
-31.72
-37.00
-41.83
-45.66
-47.99
-48.51
-47.15
-44.05
-39.50
-33.79
-27.17
-19.87
-12.13
-4.25
3.41
10.47
16.62
21.69
25.62
28.45
30.27
31.24
31.55
31.45
31.17
30.84
30.47
29.93
29.03
27.64
25.73
23.48
21.11
18.80
16.62
14.45
12.07
9.30
6.07
2.48
-1.21
-4.79
-8.14
-11.37
-14.77
-18.69
-23.37
-28.78
-34.51
-39.92
-44.23
-46.87
-47.61
-46.63
-44.34
-41.05
-36.94
-31.90
-25.78
-18.65
-10.88
-3.11
3.94
9.79
14.27
17.60
20.14
22.23
24.03
25.51
26.51
26.90
26.70
26.02
25.01
23.78
22.39
20.83
19.15
17.45
15.85
14.40
12.96
11.26
9.02
6.07
2.48
-1.56
-5.82
-10.26
-14.88
-19.70
-24.63
-29.40
-33.62
-36.81
-38.54
-38.40
-36.05
-31.33
-24.32
-15.36
-5.06
5.88
16.86
27.49
37.49
46.69
54.88
61.73
66.94
70.31
71.85
71.83
70.67
68.90
66.95
65.11
63.44
61.87
60.29
58.58
56.61
54.18
50.93
46.38
40.15
32.19
22.91
13.08
3.54
-5.08
-12.58
-19.10
-24.91
-30.14
-34.79
-38.75
-42.10
-45.13
-48.30
-52.01
-56.35
-60.97
-65.21
-68.26
-69.57
-68.94
-66.64
-63.19
-59.05
-54.42
-49.14
-42.89
-35.46
-27.00
-18.04
-9.40
-1.76
4.54
9.55
13.62
17.05
20.02
22.51
24.44
25.70
26.25
26.06
25.13
23.50
21.47
19.55
18.43
18.75
20.89
24.83
30.13
36.05
41.67
46.06
48.42
48.23
45.42
40.29
33.35
25.15
16.03
6.22
-4.09
-14.54
-24.51
-33.29
-40.26
-45.15
-48.02
-49.15
-48.89
-47.44
-44.87
-41.17
-36.41
-30.84
-24.97
-19.40
-14.65
-10.92
-8.05
-5.54
-2.89
0.17
3.60
7.08
10.21
12.74
14.57
15.73
16.26
16.19
15.53
14.33
12.71
10.78
8.55
5.89
2.63
-1.30
-5.80
-10.54
-15.18
-19.43
-23.30
-26.99
-30.90
-35.37
-40.58
-46.48
-52.62
-58.31
-62.59
-64.51
-63.39
-59.04
-51.80
-42.45
-31.82
-20.44
-8.38
4.63
18.79
33.83
48.80
62.25
72.68
79.02
80.95
78.79
73.26
65.12
55.10
43.91
32.34
21.14
10.91
1.99
-5.57
-11.80
-16.64
-19.86
-21.20
-20.60
-18.26
-14.53
-9.76
-4.07
2.56
10.12
18.40
26.87
34.82
41.49
46.24
48.60
48.32
45.44
40.34
33.75
26.65
20.06
14.84
11.53
10.25
10.75
12.55
15.00
17.52
19.66
21.20
22.17
22.69
22.95
23.04
23.03
22.87
22.54
22.02
21.30
20.36
19.20
17.80
16.17
14.42
12.66
11.01
9.53
8.14
6.63
4.71
2.17
-1.08
-4.93
-9.13
-13.40
-17.49
-21.28
-24.78
-28.09
-31.35
-34.69
-38.20
-41.90
-45.77
-49.75
-53.67
-57.27
-60.10
-61.64
-61.42
-59.22
-55.22
-49.98
-44.18
-38.47
-33.14
-28.15
-23.25
-18.24
-13.19
-8.44
-4.49
-1.77
-0.47
-0.50
-1.63
-3.63
-6.35
-9.66
-13.19
-16.34
-18.37
-18.69
-17.18
-14.34
-11.05
-8.22
-6.44
-5.87
-6.30
-7.38
-8.80
-10.36
-11.85
-13.01
-13.57
-13.29
-12.02
-9.73
-6.39
-2.03
3.18
8.83
14.20
18.48
21.02
21.57
20.30
17.60
13.89
9.56
5.08
1.09
-1.57
-2.12
-0.28
3.50
8.16
12.50
15.80
18.22
20.77
24.84
31.62
41.49
53.90
67.44
80.28
90.65
97.30
99.82
98.61
94.76
89.63
84.46
80.09
76.78
74.39
72.46
70.44
67.82
64.14
58.98
52.07
43.28
32.79
21.11
9.04
-2.56
-13.04
-22.20
-30.29
-37.83
-45.26
-52.62
-59.50
-65.24
-69.29
-71.49
-72.11
-71.75
-70.91
-69.86
-68.55
-66.76
-64.41
-61.67
-59.00
-56.96
-56.02
-56.41
-58.14
-61.02
-64.64
-68.43
-71.67
-73.60
-73.57
-71.28
-66.86
-60.85
-54.07
-47.36
-41.36
-36.39
-32.43
-29.24
-26.46
-23.76
-20.92
-17.87
-14.61
-11.22
-7.78
-4.41
-1.34
1.11
2.58
2.91
2.28
1.38
1.29
3.17
7.80
15.24
24.83
35.39
45.71
54.91
62.64
68.93
73.98
77.97
80.91
82.71
83.25
82.44
80.26
76.72
71.88
65.95
59.22
52.11
44.99
38.09
31.41
24.74
17.87
10.58
2.77
-5.67
-14.91
-25.08
-36.20
-47.89
-59.31
-69.38
-77.07
-81.83
-83.88
-84.06
-83.38
-82.63
-82.01
-81.27
-79.89
-77.51
-73.96
-69.21
-63.18
-55.67
-46.55
-36.01
-24.74
-13.79
-4.23
3.34
8.96
13.32
17.35
21.85
27.23
33.39
39.83
45.88
50.84
54.14
55.51
54.90
52.55
48.84
44.23
39.24
34.41
30.25
27.04
24.79
23.22
21.84
20.26
18.31
16.19
14.28
12.87
11.99
11.25
10.09
8.01
4.81
0.72
-3.76
-8.12
-12.10
-15.86
-19.81
-24.36
-29.58
-35.06
-40.00
-43.50
-44.90
-43.98
-40.99
-36.49
-31.13
-25.46
-19.79
-14.20
-8.67
-3.20
1.97
6.47
9.91
12.13
13.38
14.15
15.00
16.23
17.70
19.06
19.95
20.21
19.98
19.46
18.79
17.91
16.65
14.87
12.51
9.68
6.56
3.36
0.28
-2.49
-4.87
-6.85
-8.57
-10.24
-12.06
-14.25
-16.91
-20.07
-23.65
-27.42
-30.93
-33.61
-34.85
-34.21
-31.56
-27.05
-21.09
-14.14
-6.65
1.03
8.61
15.83
22.53
28.69
34.52
40.38
46.74
53.94
62.13
70.98
79.72
87.26
92.46
94.55
93.35
89.41
83.71
77.31
70.97
64.94
59.03
52.89
46.32
39.34
32.17
25.01
17.83
10.42
2.53
-5.96
-14.88
-23.86
-32.42
-40.16
-46.76
-51.87
-55.15
-56.21
-54.87
-51.27
-45.97
-39.74
-33.27
-26.86
-20.42
-13.73
-6.74
0.18
6.38
11.20
14.33
15.97
16.67
17.03
17.40
17.74
17.71
16.89
15.01
12.10
8.48
4.60
0.86
-2.57
-5.85
-9.35
-13.48
-18.50
-24.47
-31.23
-38.67
-46.76
-55.50
-64.61
-73.33
-80.54
-85.12
-86.57
-85.21
-82.02
-77.94
-73.32
-67.57
-59.65
-48.69
-34.59
-18.09
-0.38
17.40
34.49
50.29
64.05
74.73
81.12
82.41
78.64
70.75
60.34
49.01
37.87
27.50
18.10
9.99
3.68
-0.20
-1.42
-0.44
1.73
3.91
5.47
6.64
8.42
11.97
17.91
25.79
34.15
41.13
45.12
45.31
41.75
35.07
26.14
15.82
4.87
-5.92
-15.64
-23.34
-28.24
-30.00
-28.89
-25.83
-22.04
-18.63
-16.22
-14.84
-14.01
-13.11
-11.73
-9.87
-8.00
-6.79
-7.00
-9.14
-13.45
-19.71
-27.17
-34.59
-40.34
-43.00
-41.87
-37.43
-31.19
-25.07
-20.57
-18.06
-16.78
-15.33
-12.46
-7.61
-0.96
6.87
15.20
23.31
30.40
35.41
37.21
35.03
28.94
19.99
9.96
0.74
-6.30
-10.61
-12.49
-12.66
-11.87
-10.61
-9.04
-7.07
-4.56
-1.47
2.07
5.70
8.99
11.57
13.31
14.32
14.95
15.52
16.24
17.01
17.52
17.49
16.86
15.89
15.02
14.59
14.55
14.38
13.30
10.68
6.43
1.18
-3.87
-7.34
-8.21
-6.06
-1.24
5.28
12.20
18.18
22.17
23.58
22.46
19.41
15.43
11.57
8.61
6.91
6.47
7.04
8.35
10.17
12.25
14.30
16.02
17.16
17.66
17.64
17.39
17.16
17.08
17.14
17.22
17.19
16.99
16.56
15.87
14.90
13.71
12.41
11.19
10.18
9.32
8.34
6.87
4.56
1.30
-2.78
-7.30
-11.87
-16.15
-19.99
-23.35
-26.41
-29.41
-32.68
-36.59
-41.46
-47.32
-53.89
-60.45
-66.01
-69.64
-70.75
-69.25
-65.55
-60.31
-54.17
-47.58
-40.79
-33.94
-27.21
-20.90
-15.38
-10.89
-7.50
-5.02
-3.12
-1.53
-0.11
1.11
1.96
2.28
1.97
1.07
-0.27
-1.77
-3.13
-4.06
-4.35
-3.95
-2.98
-1.66
-0.25
1.05
2.16
3.02
3.60
3.75
3.32
2.19
0.36
-1.97
-4.53
-7.12
-9.65
-12.16
-14.60
-16.68
-17.75
-17.01
-13.73
-7.60
1.11
11.69
23.18
34.67
45.42
54.87
62.51
67.86
70.65
70.90
69.06
65.89
62.25
58.76
55.71
53.01
50.37
47.51
44.25
40.55
36.38
31.76
26.67
21.12
15.27
9.34
3.65
-1.55
-6.07
-9.91
-13.20
-16.17
-19.03
-21.94
-24.94
-28.01
-31.19
-34.60
-38.49
-43.16
-48.76
-55.15
-61.71
-67.46
-71.31
-72.47
-70.74
-66.51
-60.58
-53.67
-46.24
-38.37
-30.04
-21.39
-12.86
-5.09
1.37
6.36
10.17
13.29
16.18
18.95
21.42
23.29
24.32
24.51
24.07
23.32
22.60
22.20
22.28
22.90
23.97
25.27
26.44
27.13
27.10
26.37
25.25
24.31
24.15
25.26
27.79
31.41
35.33
38.44
39.45
37.28
31.30
21.53
8.71
-5.82
-20.54
-34.13
-45.72
-54.88
-61.40
-64.96
-65.12
-61.48
-54.17
-44.03
-32.60
-21.54
-12.09
-4.62
1.28
6.42
11.47
16.68
22.04
27.57
33.59
40.72
49.41
59.48
69.87
78.92
84.89
86.75
84.54
79.26
72.31
64.94
57.79
50.92
44.11
37.16
30.10
23.05
16.07
9.06
1.74
-6.06
-14.31
-22.76
-31.08
-38.98
-46.26
-52.76
-58.18
-62.06
-63.90
-63.41
-60.58
-55.80
-49.68
-42.79
-35.64
-28.54
-21.75
-15.51
-10.06
-5.56
-1.98
0.85
3.22
5.33
7.22
8.75
9.71
9.99
9.70
9.06
8.43
8.09
8.12
8.39
8.57
8.31
7.33
5.58
3.17
0.31
-2.72
-5.72
-8.53
-11.04
-13.29
-15.40
-17.67
-20.41
-24.01
-28.58
-34.01
-39.80
-45.17
-49.27
-51.37
-51.09
-48.48
-44.01
-38.30
-31.98
-25.43
-18.79
-12.04
-5.15
1.69
8.15
13.83
18.42
21.79
24.02
25.36
26.10
26.56
27.00
27.51
28.10
28.64
28.95
28.88
28.33
27.28
25.69
23.53
20.81
17.58
14.02
10.33
6.65
3.03
-0.64
-4.43
-8.36
-12.30
-16.14
-19.86
-23.62
-27.70
-32.32
-37.46
-42.65
-47.09
-49.85
-50.21
-47.89
-43.18
-36.75
-29.45
-21.97
-14.66
-7.56
-0.53
6.52
13.51
20.13
25.97
30.70
34.22
36.71
38.54
40.11
41.65
43.18
44.55
45.52
45.92
45.72
45.01
43.87
42.34
40.32
37.70
34.44
30.61
26.38
21.94
17.46
13.01
8.62
4.34
0.30
-3.42
-6.75
-9.82
-12.92
-16.48
-20.93
-26.42
-32.74
-39.17
-44.75
-48.40
-49.35
-47.35
-42.74
-36.31
-29.00
-21.67
-14.85
-8.81
-3.57
0.91
4.61
7.46
9.44
10.61
11.20
11.49
11.75
12.06
12.37
12.50
12.34
11.91
11.31
10.67
9.95
8.97
7.48
5.29
2.40
-1.07
-4.92
-8.97
-13.05
-16.91
-20.21
-22.67
-24.19
-25.01
-25.60
-26.39
-27.58
-28.95
-30.16
-31.00
-31.63
-32.50
-34.00
-36.11
-38.19
-39.19
-38.13
-34.49
-28.43
-20.67
-12.17
-3.81
3.91
10.75
16.73
21.89
26.22
29.56
31.82
33.01
33.35
33.29
33.26
33.53
34.06
34.52
34.50
33.71
32.19
30.25
28.31
26.72
25.54
24.57
23.36
21.47
18.61
14.75
10.15
5.16
0.16
-4.69
-9.31
-13.79
-18.22
-22.70
-27.33
-32.22
-37.42
-42.85
-48.15
-52.68
-55.67
-56.45
-54.71
-50.56
-44.51
-37.27
-29.51
-21.75
-14.32
-7.38
-1.01
4.74
9.80
14.06
17.45
19.93
21.62
22.78
23.72
24.67
25.60
26.26
26.29
25.41
23.61
21.18
18.54
16.05
13.83
11.76
9.60
7.15
4.39
1.42
-1.66
-4.83
-8.16
-11.79
-15.81
-20.22
-25.04
-30.31
-36.21
-42.85
-50.27
-58.23
-66.19
-73.38
-78.93
-82.03
-82.10
-78.78
-72.03
-62.10
-49.57
-35.22
-20.01
-4.85
9.57
22.83
34.73
45.24
54.36
62.04
68.32
73.23
76.96
79.73
81.76
83.14
83.84
83.76
82.84
81.15
78.83
76.08
73.00
69.65
65.96
61.83
57.15
51.90
46.13
39.96
33.54
27.04
20.59
14.30
8.19
2.28
-3.46
-9.06
-14.53
-19.76
-24.64
-29.03
-32.89
-36.39
-39.88
-43.76
-48.20
-52.98
-57.37
-60.43
-61.25
-59.31
-54.71
-48.05
-40.18
-31.93
-23.87
-16.29
-9.29
-2.93
2.69
7.47
11.32
14.25
16.40
18.05
19.51
21.04
22.68
24.27
25.55
26.31
26.49
26.28
25.88
25.47
24.98
24.19
22.82
20.69
17.91
14.70
11.38
8.16
5.04
1.96
-1.21
-4.50
-7.85
-11.17
-14.41
-17.59
-20.89
-24.52
-28.62
-33.10
-37.58
-41.41
-43.87
-44.32
-42.44
-38.30
-32.32
-25.13
-17.42
-9.74
-2.52
4.01
9.75
14.66
18.78
22.22
25.12
27.58
29.66
31.28
32.37
32.89
32.89
32.58
32.18
31.85
31.54
31.09
30.31
29.10
27.49
25.56
23.32
20.61
17.26
13.18
8.52
3.67
-0.90
-4.85
-8.13
-10.95
-13.71
-16.81
-20.55
-25.04
-30.24
-35.97
-41.96
-47.81
-53.03
-57.03
-59.15
-58.85
-55.80
-50.10
-42.28
-33.25
-24.08
-15.63
-8.34
-2.14
3.44
8.89
14.53
20.28
25.71
30.29
33.60
35.56
36.37
36.51
36.45
36.50
36.72
36.93
36.89
36.37
35.28
33.63
31.45
28.78
25.65
22.13
18.38
14.63
11.05
7.74
4.60
1.47
-1.83
-5.37
-9.10
-12.88
-16.53
-20.02
-23.41
-26.98
-31.06
-35.88
-41.42
-47.12
-51.98
-54.83
-54.68
-51.25
-45.01
-37.02
-28.47
-20.19
-12.41
-4.93
2.56
10.10
17.40
24.00
29.61
34.26
38.33
42.29
46.34
50.29
53.56
55.54
55.88
54.68
52.37
49.38
45.87
41.64
36.32
29.80
22.37
14.66
7.36
0.88
-4.83
-10.08
-15.18
-20.28
-25.18
-29.62
-33.46
-36.71
-39.55
-42.18
-44.75
-47.33
-50.04
-52.93
-55.94
-58.83
-61.05
-61.90
-60.75
-57.20
-51.37
-43.79
-35.25
-26.58
-18.44
-11.24
-5.24
-0.54
2.84
5.02
6.30
7.22
8.45
10.67
14.37
19.68
26.44
34.16
42.18
49.72
56.06
60.56
62.82
62.74
60.51
56.57
51.40
45.38
38.67
31.33
23.46
15.38
7.63
0.78
-4.80
-9.21
-12.96
-16.70
-20.97
-25.97
-31.56
-37.42
-43.21
-48.58
-53.20
-56.61
-58.22
-57.56
-54.46
-49.19
-42.42
-34.96
-27.53
-20.59
-14.30
-8.70
-3.77
0.35
3.48
5.48
6.42
6.71
6.97
7.93
10.03
13.31
17.38
21.61
25.42
28.51
30.87
32.69
34.02
34.77
34.60
33.27
30.71
27.19
23.13
18.98
15.11
11.76
9.10
7.25
6.13
5.42
4.50
2.59
-1.00
-6.61
-14.10
-22.94
-32.30
-41.35
-49.25
-55.29
-58.84
-59.51
-57.21
-52.31
-45.46
-37.52
-29.29
-21.31
-13.88
-7.03
-0.77
4.84
9.60
13.19
15.33
15.97
15.40
14.24
13.23
12.92
13.40
14.21
14.43
13.13
9.70
4.10
-3.09
-10.84
-17.94
-23.28
-26.08
-26.07
-23.55
-19.41
-14.83
-11.00
-8.63
-7.80
-8.00
-8.45
-8.55
-8.07
-7.29
-6.66
-6.53
-6.94
-7.57
-7.82
-6.99
-4.46
0.22
7.06
15.58
24.75
33.20
39.68
43.42
44.42
43.30
41.03
38.45
36.02
33.86
31.90
30.17
28.85
28.23
28.44
29.39
30.78
32.17
33.18
33.59
33.34
32.57
31.48
30.33
29.30
28.43
27.59
26.50
24.81
22.29
18.90
14.84
10.40
5.76
0.99
-3.96
-9.15
-14.56
-20.08
-25.58
-31.02
-36.36
-41.45
-45.91
-49.16
-50.54
-49.70
-46.77
-42.37
-37.29
-32.14
-27.09
-21.89
-16.20
-9.90
-3.28
3.04
8.38
12.31
14.75
15.94
16.23
15.86
14.95
13.55
11.69
9.48
6.97
4.06
0.47
-3.99
-9.13
-14.16
-17.81
-18.84
-16.70
-11.87
-5.71
0.12
4.44
6.92
7.97
8.22
8.08
7.55
6.40
4.57
2.29
-0.03
-2.08
-3.88
-5.69
-7.79
-10.05
-11.83
-12.00
-9.29
-2.61
8.56
23.89
42.06
60.85
77.72
90.54
98.43
102.10
103.61
105.37
109.13
115.25
122.72
130.13
136.76
143.38
151.95
164.33
180.86
199.51
216.22
226.26
225.88
212.98
187.11
149.10
101.12
47.38
-4.95
-46.20
-66.79
-61.13
-31.31
12.25
53.72
77.30
72.63
37.76
-21.44
-94.47
-170.08
-239.10
-295.27
-334.95
-356.44
-359.77
-346.80
-321.34
-288.76
-255.19
-226.07
-204.88
-192.43
-186.89
-184.71
-182.25
-177.32
-169.90
-161.83
-155.42
-151.93
-150.48
-148.02
-140.40
-124.23
-98.62
-65.99
-31.35
-0.60
21.76
34.18
38.39
38.28
37.90
39.95
45.07
52.23
59.76
66.14
70.18
70.82
67.09
58.56
46.05
31.97
19.78
12.70
12.18
17.21
24.64
30.77
32.87
30.29
24.27
16.96
10.41
5.92
4.00
4.72
7.94
13.29
20.04
27.26
34.12
40.15
45.05
48.65
50.61
50.54
48.37
44.68
40.66
37.60
36.13
35.80
35.34
33.41
29.51
24.35
19.39
16.04
14.84
15.40
16.69
17.99
19.19
20.75
23.35
27.20
31.74
35.81
38.16
37.93
34.98
29.72
22.86
15.08
6.96
-1.05
-8.63
-15.62
-22.14
-28.46
-34.74
-40.82
-46.02
-49.31
-49.67
-46.54
-40.07
-31.05
-20.69
-10.34
-1.29
5.45
9.22
9.98
8.30
5.17
1.63
-1.61
-4.40
-6.98
-9.65
-12.48
-15.17
-17.27
-18.40
-18.53
-17.94
-17.18
-16.86
-17.51
-19.38
-22.32
-25.69
-28.44
-29.51
-28.34
-25.21
-21.30
-18.13
-16.76
-17.13
-17.92
-17.18
-13.29
-5.98
3.44
12.54
18.91
21.18
19.57
15.50
10.75
6.72
4.24
3.95
6.60
13.01
23.48
37.07
51.76
65.64
78.54
92.78
112.00
138.62
171.17
203.72
227.72
236.12
226.82
203.95
175.82
150.88
134.12
125.53
121.40
117.22
110.35
100.99
91.45
84.15
80.11
78.52
77.43
75.11
71.10
66.59
63.62
64.02
68.47
76.18
85.43
94.39
101.92
107.82
112.49
116.27
119.02
120.15
119.05
115.71
111.07
106.89
104.94
106.14
109.92
114.24
116.35
113.79
105.30
91.01
72.07
49.92
25.51
-1.03
-30.13
-62.14
-96.51
-131.51
-164.25
-191.61
-211.24
-222.32
-225.76
-223.75
-218.78
-212.78
-206.65
-200.41
-193.79
-186.80
-179.97
-174.06
-169.72
-167.04
-165.57
-164.60
-163.57
-162.21
-160.50
-158.38
-155.47
-151.14
-144.69
-135.60
-123.69
-108.89
-91.07
-69.95
-45.29
-17.44
12.38
42.03
68.82
90.24
104.52
110.97
109.90
102.30
89.61
73.54
56.01
39.03
24.39
13.29
5.92
1.42
-1.72
-5.04
-9.35
-14.58
-19.93
-24.42
-27.56
-29.48
-30.82
-32.32
-34.48
-37.43
-41.05
-45.16
-49.67
-54.62
-60.10
-66.20
-72.94
-80.28
-88.04
-95.87
-103.23
-109.42
-113.75
-115.69
-114.99
-111.76
-106.51
-100.01
-93.08
-86.37
-79.97
-73.40
-65.78
-56.36
-45.08
-32.59
-20.09
-8.69
0.85
8.77
16.34
25.51
38.23
55.65
77.87
103.90
131.85
158.90
181.78
197.27
202.86
197.25
180.36
153.99
121.37
86.61
53.03
22.85
-2.90
-24.10
-41.18
-55.85
-69.45
-82.60
-94.77
-106.31
-117.31
-127.35
-135.18
-139.40
-141.01
-140.88
-139.36
-135.32
-130.23
-126.00
-124.00
-124.12
-125.28
-129.05
-135.45
-142.45
-145.22
-143.42
-138.57
-132.94
-127.85
-123.72
-124.08
-129.44
-136.38
-136.80
-127.94
-109.66
-83.76
-52.68
5.07
91.08
187.05
249.51
273.20
262.23
228.30
180.80
130.23
86.68
53.31
30.98
19.07
18.36
23.91
30.61
35.16
37.35
38.12
35.14
26.96
14.65
3.36
-4.85
-9.01
-9.47
-7.12
-3.58
-2.54
-5.89
-12.64
-18.61
-21.66
-20.91
-16.75
-10.04
-1.98
5.22
10.16
12.68
14.10
14.80
14.82
14.09
12.70
10.77
8.07
4.54
0.52
-3.11
-5.85
-7.37
-7.76
-7.38
-6.88
-7.03
-8.53
-11.85
-17.16
-24.39
-33.10
-42.60
-52.18
-61.58
-71.20
-81.95
-94.53
-108.72
-123.06
-135.41
-143.93
-147.85
-147.28
-142.33
-132.00
-113.98
-85.79
-46.66
1.27
53.43
104.81
151.99
193.90
230.69
261.95
285.70
299.17
301.12
293.61
282.13
273.20
271.12
275.65
282.14
284.09
276.54
258.32
232.08
202.48
173.78
148.31
126.40
107.34
90.47
75.84
63.93
54.91
48.06
41.91
34.80
25.72
14.69
2.61
-9.53
-21.37
-33.48
-46.87
-62.08
-78.50
-94.20
-106.79
-114.43
-116.74
-114.93
-111.25
-107.99
-106.69
-107.72
-110.41
-113.49
-115.57
-115.50
-112.70
-107.23
-99.71
-91.00
-81.80
-72.37
-62.55
-52.02
-40.78
-29.29
-18.38
-8.82
-0.92
5.64
11.61
17.69
24.17
30.78
36.81
41.54
44.57
46.05
46.51
46.72
47.31
48.55
50.35
52.45
54.46
56.07
56.95
56.73
55.06
51.67
46.57
40.14
33.07
26.07
19.59
13.46
6.95
-0.97
-11.07
-23.38
-37.00
-50.43
-62.18
-71.41
-78.27
-83.69
-88.80
-94.20
-99.59
-103.92
-105.90
-104.69
-100.31
-93.59
-85.78
-77.96
-70.78
-64.15
-57.39
-49.27
-38.03
-21.53
2.21
34.19
73.36
115.92
155.63
185.28
199.07
194.78
174.87
145.76
115.87
92.83
81.45
82.68
93.91
110.06
124.99
132.79
128.99
111.38
80.57
39.90
-5.35
-49.12
-85.97
-112.23
-126.49
-129.53
-123.73
-112.29
-98.38
-84.48
-71.99
-61.20
-51.67
-42.69
-33.86
-25.31
-17.64
-11.45
-6.99
-3.94
-1.62
0.65
3.26
6.17
9.03
11.47
13.33
14.66
15.67
16.41
16.77
16.47
15.25
13.02
10.07
6.84
3.82
1.26
-0.98
-3.42
-6.73
-11.43
-17.67
-25.05
-32.81
-40.03
-45.85
-49.62
-51.00
-49.88
-46.34
-40.66
-33.25
-24.70
-15.59
-6.44
2.35
10.57
18.15
25.07
31.32
36.87
41.64
45.51
48.31
49.85
50.02
48.91
46.85
44.28
41.66
39.25
37.10
35.07
33.01
30.90
28.79
26.77
24.79
22.70
20.23
17.19
13.46
9.15
4.42
-0.51
-5.37
-9.96
-14.14
-17.88
-21.31
-24.70
-28.43
-32.85
-38.17
-44.29
-50.66
-56.41
-60.44
-61.77
-59.84
-54.69
-46.97
-37.73
-28.04
-18.72
-10.19
-2.54
4.27
10.29
15.47
19.72
23.02
25.44
27.12
28.24
28.94
29.27
29.36
29.32
29.28
29.31
29.37
29.39
29.20
28.72
27.91
26.72
25.10
23.02
20.48
17.63
14.64
11.68
8.76
5.74
2.42
-1.31
-5.38
-9.57
-13.60
-17.33
-20.82
-24.31
-28.14
-32.49
-37.18
-41.57
-44.73
-45.68
-43.85
-39.28
-32.65
-25.03
-17.44
-10.53
-4.49
0.84
5.68
10.16
14.24
17.81
20.82
23.34
25.49
27.41
29.17
30.79
32.31
33.78
35.29
36.90
38.61
40.33
42.01
43.58
45.07
46.52
47.94
49.22
50.22
50.75
50.73
50.23
49.55
49.05
49.14
50.07
51.78
53.94
55.96
57.17
57.07
55.67
53.56
51.94
52.30
55.91
63.21
73.49
84.64
93.69
97.52
93.84
82.03
63.44
40.97
18.21
-1.77
-17.22
-27.99
-35.21
-40.38
-44.71
-48.66
-52.10
-54.69
-56.39
-57.50
-58.41
-59.38
-60.20
-60.45
-59.78
-58.28
-56.45
-55.06
-54.67
-55.42
-57.01
-58.90
-60.61
-61.88
-62.70
-63.19
-63.49
-63.76
-64.14
-64.76
-65.79
-67.45
-69.91
-73.28
-77.34
-81.52
-84.85
-86.22
-84.79
-80.29
-73.11
-64.12
-54.22
-44.07
-33.92
-23.77
-13.69
-3.94
5.02
12.71
18.81
23.27
26.21
27.89
28.68
28.93
28.94
28.87
28.72
28.37
27.76
26.89
25.94
25.07
24.35
23.61
22.58
20.98
18.77
16.14
13.35
10.62
7.88
4.96
1.65
-2.08
-6.09
-10.06
-13.68
-16.79
-19.47
-21.91
-24.42
-27.30
-30.75
-34.89
-39.67
-44.83
-49.87
-54.02
-56.44
-56.42
-53.64
-48.28
-40.97
-32.59
-23.97
-15.68
-7.96
-0.86
5.69
11.64
16.83
21.00
23.96
25.65
26.24
26.08
25.64
25.35
25.42
25.85
26.38
26.71
26.63
26.10
25.26
24.33
23.48
22.71
21.82
20.56
18.67
16.07
12.93
9.59
6.41
3.66
1.38
-0.55
-2.35
-4.20
-6.19
-8.44
-11.10
-14.43
-18.67
-23.77
-29.29
-34.36
-37.92
-39.09
-37.55
-33.58
-27.95
-21.55
-15.05
-8.79
-2.80
2.95
8.31
12.97
16.56
18.90
20.14
20.78
21.37
22.29
23.55
24.84
25.71
25.93
25.52
24.75
23.91
23.14
22.38
21.41
20.07
18.24
15.98
13.41
10.65
7.74
4.71
1.57
-1.66
-4.94
-8.20
-11.35
-14.31
-16.94
-19.17
-20.98
-22.57
-24.30
-26.59
-29.66
-33.22
-36.45
-38.16
-37.22
-33.11
-26.05
-16.95
-6.93
3.07
12.59
21.54
30.00
37.97
45.30
51.80
57.40
62.16
66.23
69.74
72.75
75.32
77.55
79.58
81.45
82.89
83.26
81.63
76.95
68.42
55.81
39.58
20.82
0.96
-18.47
-36.36
-52.13
-65.82
-77.86
-88.87
-99.36
-109.58
-119.51
-128.99
-137.85
-146.03
-153.63
-160.88
-168.08
-175.58
-183.72
-192.79
-202.92
-213.85
-224.68
-233.74
-238.87
-237.93
-229.48
-213.25
-190.32
-162.59
-132.28
-101.17
-70.38
-40.35
-11.24
16.73
43.06
67.18
88.64
107.39
123.86
138.68
152.37
164.88
175.56
183.33
187.27
187.05
183.11
176.26
167.14
155.73
141.36
123.21
101.14
76.15
50.33
26.17
5.62
-10.60
-23.07
-33.07
-41.83
-49.88
-57.05
-62.85
-67.07
-70.09
-72.72
-75.62
-78.84
-81.48
-81.94
-78.48
-69.93
-56.09
-37.88
-16.99
4.78
26.13
46.78
67.36
89.04
112.60
137.78
162.93
185.39
202.17
210.92
210.50
201.08
183.83
160.42
132.58
102.11
70.82
40.64
13.36
-9.71
-28.17
-42.74
-54.80
-65.72
-75.96
-84.64
-89.87
-89.62
-82.86
-70.14
-53.53
-35.65
-18.65
-3.56
9.62
21.41
32.04
41.12
47.80
51.09
50.26
44.93
35.09
21.08
3.83
-15.07
-33.46
-49.02
-59.95
-65.47
-65.97
-62.65
-57.03
-50.41
-43.63
-37.10
-30.94
-25.13
-19.62
-14.33
-9.13
-3.98
1.04
5.67
9.62
12.62
14.66
15.91
16.67
17.23
17.71
18.09
18.22
18.00
17.38
16.31
14.67
12.17
8.52
3.67
-2.00
-7.72
-12.66
-16.32
-18.84
-20.92
-23.50
-27.40
-32.97
-40.08
-48.28
-56.98
-65.55
-73.41
-79.92
-84.47
-86.54
-85.86
-82.46
-76.59
-68.63
-58.95
-47.81
-35.44
-21.99
-7.78
6.72
20.80
33.57
44.20
52.19
57.47
60.38
61.55
61.54
60.74
59.30
57.23
54.59
51.43
47.81
43.84
39.68
35.66
32.35
30.40
30.24
31.80
34.40
36.94
38.36
38.03
36.01
32.84
29.23
25.51
21.57
16.93
11.05
3.68
-4.95
-14.18
-23.22
-31.30
-37.83
-42.44
-44.84
-44.88
-42.60
-38.31
-32.67
-26.47
-20.55
-15.47
-11.48
-8.45
-5.99
-3.57
-0.67
3.02
7.49
12.34
17.01
20.91
23.76
25.77
27.47
29.46
32.18
35.77
40.03
44.44
48.16
49.95
48.41
42.57
32.52
19.89
7.61
-0.98
-3.41
1.02
11.13
24.62
39.18
53.37
66.80
79.63
91.85
102.72
110.77
114.19
111.58
102.52
87.84
69.38
49.43
30.00
12.33
-3.19
-16.65
-28.15
-37.37
-43.67
-46.46
-45.70
-42.19
-37.33
-32.63
-29.16
-27.18
-26.28
-25.72
-24.90
-23.70
-22.47
-21.83
-22.30
-24.06
-26.87
-30.15
-33.30
-35.86
-37.71
-39.00
-40.08
-41.27
-42.74
-44.39
-45.85
-46.67
-46.44
-45.05
-42.72
-40.06
-37.86
-36.87
-37.61
-40.15
-44.02
-48.26
-51.58
-52.59
-50.24
-44.06
-34.34
-22.09
-8.64
4.69
17.02
28.00
37.70
46.39
54.27
61.47
67.99
73.83
78.96
83.36
86.98
89.72
91.57
92.61
93.07
93.30
93.69
94.60
96.28
98.78
101.91
105.21
108.07
109.88
110.25
109.18
107.00
104.22
101.25
98.30
95.32
92.13
88.39
83.60
77.01
67.71
54.73
37.42
15.69
-9.91
-38.17
-67.54
-96.29
-122.85
-145.92
-164.57
-178.33
-187.22
-191.68
-192.51
-190.77
-187.62
-184.10
-180.99
-178.58
-176.72
-174.90
-172.46
-168.76
-163.16
-154.87
-142.82
-125.89
-103.42
-75.90
-45.34
-14.90
12.14
33.58
49.21
60.67
70.72
81.91
95.73
112.25
130.52
149.16
166.72
181.77
192.57
197.14
193.46
180.25
157.63
127.44
92.96
58.05
26.04
-1.04
-22.75
-39.89
-53.63
-64.80
-73.40
-78.85
-80.50
-78.23
-72.74
-65.39
-57.63
-50.44
-44.01
-38.00
-31.95
-25.88
-20.39
-16.43
-14.76
-15.38
-17.49
-19.80
-21.15
-20.99
-19.60
-17.82
-16.62
-16.66
-18.10
-20.71
-24.15
-28.08
-32.25
-36.42
-40.28
-43.48
-45.78
-47.23
-48.23
-49.32
-50.80
-52.46
-53.43
-52.49
-48.62
-41.58
-32.20
-22.15
-13.38
-7.33
-4.46
-4.05
-4.54
-4.03
-0.88
5.84
16.24
29.60
44.73
60.32
75.34
89.20
101.72
112.90
122.68
130.80
136.82
140.34
141.21
139.73
136.81
133.92
132.79
134.79
140.08
146.94
151.61
149.07
134.53
105.28
62.05
9.24
-46.03
-95.95
-134.12
-157.11
-164.81
-159.73
-145.60
-125.98
-103.40
-79.18
-53.91
-28.03
-2.35
21.82
42.64
58.06
66.13
65.41
55.38
36.83
11.95
-16.03
-43.53
-67.43
-85.68
-97.52
-103.22
-103.63
-99.82
-92.86
-83.83
-73.85
-64.01
-55.18
-47.78
-41.75
-36.65
-31.96
-27.40
-23.06
-19.34
-16.60
-14.97
-14.19
-13.75
-13.20
-12.47
-11.83
-11.57
-11.52
-10.62
-7.15
0.52
13.05
29.36
46.70
61.53
70.82
73.22
69.50
62.17
54.50
49.50
49.20
54.41
64.68
78.32
92.58
103.99
109.07
105.40
92.49
72.09
47.72
23.57
3.18
-11.45
-20.12
-23.88
-24.38
-23.13
-21.20
-19.24
-17.67
-16.83
-16.95
-18.06
-19.87
-21.84
-23.33
-23.88
-23.40
-22.22
-20.89
-19.95
-19.66
-20.00
-20.69
-21.40
-21.95
-22.39
-22.98
-24.11
-26.16
-29.29
-33.38
-38.01
-42.51
-46.17
-48.44
-49.13
-48.53
-47.28
-46.22
-46.03
-47.01
-48.92
-51.00
-52.33
-52.02
-49.58
-44.98
-38.58
-30.96
-22.69
-14.35
-6.35
1.03
7.73
13.85
19.62
25.23
30.66
35.67
39.90
43.05
45.07
46.20
46.90
47.63
48.68
50.11
51.76
53.39
54.78
55.79
56.43
56.84
57.31
58.14
59.58
61.62
63.90
65.69
66.18
64.73
61.21
56.10
50.22
44.33
38.76
33.26
27.15
19.68
10.38
-0.73
-13.23
-26.40
-39.38
-51.30
-61.36
-68.93
-73.70
-75.79
-75.73
-74.24
-72.02
-69.53
-66.93
-64.27
-61.63
-59.35
-57.97
-57.93
-59.37
-61.85
-64.44
-65.98
-65.48
-62.39
-56.76
-49.12
-40.25
-30.91
-21.66
-12.83
-4.57
3.00
9.75
15.42
19.70
22.30
23.11
22.33
20.38
17.80
14.96
12.04
8.95
5.49
1.51
-2.99
-7.95
-13.27
-18.89
-24.72
-30.51
-35.73
-39.58
-41.21
-40.00
-35.89
-29.39
-21.44
-13.06
-5.04
2.19
8.53
14.09
18.91
22.94
26.05
28.13
29.19
29.37
28.96
28.27
27.54
26.87
26.24
25.53
24.68
23.73
22.78
22.00
21.40
20.81
19.92
18.46
16.37
13.91
11.49
9.37
7.45
5.17
1.85
-2.87
-8.80
-15.07
-20.66
-24.84
-27.66
-29.80
-32.32
-35.97
-40.91
-46.50
-51.67
-55.28
-56.51
-55.04
-50.96
-44.70
-36.75
-27.72
-18.15
-8.56
0.63
9.02
16.34
22.35
26.98
30.30
32.53
33.94
34.85
35.50
36.07
36.70
37.46
38.40
39.45
40.34
40.69
40.08
38.27
35.36
31.74
27.94
24.24
20.57
16.55
11.73
5.92
-0.70
-7.59
-14.13
-19.95
-25.02
-29.58
-33.98
-38.49
-43.26
-48.37
-53.89
-59.75
-65.56
-70.43
-73.22
-72.93
-69.28
-62.98
-55.51
-48.48
-42.90
-38.68
-34.75
-29.61
-22.11
-11.90
0.50
14.12
27.98
41.51
54.51
67.00
79.00
90.32
100.69
109.85
117.72
124.20
129.02
131.46
130.43
124.71
113.49
96.92
76.23
53.56
31.34
11.66
-4.20
-16.01
-24.28
-29.97
-33.98
-37.01
-39.48
-41.65
-43.78
-46.14
-49.03
-52.71
-57.24
-62.53
-68.31
-74.22
-79.76
-84.37
-87.43
-88.41
-86.95
-83.08
-77.16
-69.82
-61.71
-53.33
-44.93
-36.54
-28.14
-19.77
-11.67
-4.13
2.69
8.96
15.36
22.87
32.40
44.13
57.04
68.94
77.07
79.24
74.78
64.95
52.46
40.35
31.08
26.00
25.54
29.66
38.11
50.20
64.36
77.90
87.40
89.80
83.51
69.18
49.46
28.09
8.62
-6.61
-16.93
-23.15
-26.90
-29.84
-33.02
-36.55
-39.78
-41.73
-41.72
-39.71
-36.20
-31.95
-27.44
-22.67
-17.28
-11.03
-4.18
2.33
7.27
9.81
9.95
8.68
7.50
7.66
9.56
12.62
15.68
17.64
18.10
17.41
16.44
16.04
16.68
18.30
20.61
23.31
26.22
29.28
32.39
35.39
38.17
40.85
43.73
47.07
50.51
52.75
51.59
44.53
29.87
7.63
-20.14
-49.66
-76.46
-96.40
-106.58
-105.59
-93.47
-71.52
-42.11
-8.59
25.02
54.62
76.75
89.38
92.19
86.48
74.57
59.15
42.72
27.25
14.09
3.97
-3.00
-7.19
-9.33
-10.29
-10.84
-11.47
-12.41
-13.65
-15.06
-16.44
-17.53
-18.12
-18.10
-17.54
-16.68
-15.91
-15.64
-16.21
-17.74
-20.15
-23.22
-26.70
-30.38
-34.15
-37.93
-41.72
-45.54
-49.44
-53.52
-57.83
-62.31
-66.65
-70.28
-72.41
-72.29
-69.45
-63.85
-55.95
-46.54
-36.47
-26.55
-17.29
-8.92
-1.40
5.43
11.75
17.60
22.83
27.21
30.58
32.96
34.72
36.39
38.51
41.43
45.16
49.39
53.64
57.56
60.87
63.53
65.59
67.15
68.31
69.15
69.87
70.72
72.03
74.07
76.92
80.42
84.23
87.98
91.48
94.80
98.26
102.20
106.85
112.17
117.89
123.72
129.52
135.35
141.36
147.55
153.56
158.48
161.00
159.66
153.24
141.06
123.20
100.33
73.53
43.88
12.36
-20.16
-52.76
-84.29
-113.39
-138.70
-159.27
-174.77
-185.59
-192.60
-196.75
-198.75
-198.97
-197.53
-194.49
-190.01
-184.34
-177.73
-170.29
-162.06
-153.04
-143.37
-133.36
-123.41
-113.90
-105.08
-97.01
-89.68
-83.04
-77.19
-72.24
-68.43
-65.90
-64.75
-64.94
-66.16
-67.84
-69.07
-68.79
-66.07
-60.42
-51.99
-41.48
-29.93
-18.30
-7.30
2.71
11.63
19.43
26.08
31.55
35.83
39.04
41.38
43.11
44.40
45.35
45.95
46.06
45.55
44.38
42.65
40.59
38.45
36.45
34.59
32.72
30.65
28.22
25.45
22.43
19.24
15.92
12.36
8.50
4.35
0.06
-4.16
-8.12
-11.84
-15.59
-19.80
-24.90
-31.03
-37.92
-44.82
-50.67
-54.44
-55.45
-53.47
-48.81
-42.15
-34.31
-26.07
-18.05
-10.64
-3.98
1.90
7.05
11.49
15.18
18.03
19.98
21.03
21.24
20.70
19.55
17.97
16.21
14.54
13.25
12.51
12.36
12.78
13.68
14.96
16.52
18.08
19.23
19.44
18.23
15.34
10.84
5.07
-1.49
-8.37
-15.31
-22.22
-29.10
-36.00
-42.97
-50.04
-57.27
-64.74
-72.36
-79.71
-85.95
-89.86
-90.17
-86.00
-77.13
-64.16
-48.25
-30.76
-12.95
4.18
19.90
33.59
44.70
52.90
58.18
61.16
63.05
65.34
69.27
75.29
82.70
89.79
94.40
94.75
90.15
81.33
70.26
59.58
51.95
49.49
53.37
63.68
79.44
98.59
118.18
134.66
144.37
144.28
132.77
110.04
78.29
41.24
3.24
-31.82
-61.37
-84.61
-102.22
-115.60
-126.07
-134.20
-139.83
-142.35
-141.21
-136.27
-127.77
-116.08
-101.47
-84.17
-64.54
-43.47
-22.45
-3.25
12.71
24.85
33.72
40.64
46.98
53.61
60.55
67.12
72.38
75.59
76.38
74.80
71.08
65.44
58.09
49.14
38.69
26.84
13.71
-0.56
-15.62
-30.72
-44.67
-55.93
-63.07
-65.25
-62.63
-56.42
-48.63
-41.26
-35.55
-31.54
-27.89
-22.46
-13.22
0.94
19.40
39.74
58.33
71.41
76.30
72.24
60.68
44.57
27.36
11.93
-0.12
-8.46
-13.65
-16.47
-17.58
-17.36
-16.09
-14.18
-12.26
-11.07
-11.30
-13.26
-16.87
-21.59
-26.69
-31.42
-35.12
-37.22
-37.20
-34.50
-28.66
-19.52
-7.72
5.26
17.23
25.97
30.09
29.63
26.06
21.65
18.51
17.93
20.20
24.98
31.88
40.68
51.27
63.08
74.82
84.51
90.05
90.06
84.28
73.74
60.21
45.56
31.25
18.08
6.38
-3.69
-11.93
-18.00
-21.61
-22.72
-21.76
-19.54
-17.05
-15.14
-14.40
-14.96
-16.65
-19.11
-21.90
-24.65
-27.09
-29.17
-31.09
-33.24
-36.11
-40.01
-44.87
-50.16
-54.99
-58.48
-60.05
-59.68
-57.91
-55.65
-53.87
-53.21
-53.76
-54.99
-55.88
-55.15
-51.69
-44.85
-34.66
-21.75
-7.17
8.06
23.17
37.70
51.30
63.51
73.60
80.83
84.75
85.46
83.68
80.43
76.74
73.32
70.53
68.51
67.25
66.58
66.01
64.92
62.84
59.88
57.06
56.08
58.61
65.32
75.14
85.28
92.01
91.91
83.07
65.69
41.77
14.22
-14.23
-41.77
-67.54
-91.14
-112.07
-129.26
-141.31
-147.10
-146.45
-140.34
-130.53
-118.81
-106.26
-93.03
-78.62
-62.54
-44.81
-26.03
-7.10
11.28
28.87
45.73
61.87
76.95
90.19
100.65
107.66
111.23
112.09
111.48
110.65
110.52
111.38
112.86
114.13
114.17
112.13
107.40
99.79
89.41
76.59
61.67
44.91
26.51
6.70
-14.13
-35.39
-56.28
-75.91
-93.49
-108.47
-120.56
-129.71
-136.07
-139.95
-141.86
-142.46
-142.41
-142.06
-141.33
-139.63
-136.15
-130.23
-121.62
-110.67
-98.07
-84.63
-71.03
-57.69
-44.94
-33.03
-22.27
-12.93
-5.17
1.03
5.78
9.24
11.46
12.48
12.28
10.93
8.57
5.51
2.37
0.08
-0.11
2.96
9.95
20.46
32.99
45.31
55.30
61.74
64.69
65.39
65.45
66.19
68.15
71.20
74.83
78.52
81.80
84.10
84.51
81.82
74.78
62.66
45.62
25.01
3.14
-17.21
-33.46
-43.88
-47.98
-46.53
-41.16
-33.87
-26.36
-19.72
-14.30
-9.95
-6.35
-3.25
-0.62
1.40
2.57
2.76
1.96
0.36
-1.71
-3.88
-5.83
-7.43
-8.75
-10.07
-11.70
-13.83
-16.32
-18.63
-19.80
-18.68
-14.22
-5.92
5.83
19.63
33.25
44.17
50.33
50.81
46.19
38.50
30.59
25.36
24.91
29.96
39.51
51.09
61.32
66.83
65.25
55.97
40.33
21.20
1.95
-14.55
-26.74
-34.51
-38.69
-40.46
-40.78
-40.21
-39.17
-38.17
-37.91
-39.04
-41.85
-45.98
-50.54
-54.46
-56.89
-57.26
-55.21
-50.34
-42.23
-30.81
-16.94
-2.50
9.93
18.22
21.61
21.32
20.03
20.85
25.98
36.12
50.44
67.17
84.23
99.46
110.73
115.89
113.08
101.25
80.76
53.56
22.88
-7.54
-34.40
-55.47
-69.90
-77.99
-80.81
-79.58
-75.41
-69.07
-61.08
-51.86
-41.87
-31.71
-22.06
-13.57
-6.69
-1.64
1.72
3.74
4.87
5.61
6.36
7.36
8.64
10.09
11.48
12.61
13.28
13.41
13.01
12.11
10.86
9.35
7.68
5.86
3.79
1.34
-1.62
-5.07
-8.90
-12.81
-16.60
-20.23
-23.86
-27.81
-32.46
-38.03
-44.45
-51.42
-58.25
-63.99
-67.63
-68.28
-65.48
-59.41
-50.86
-41.03
-31.08
-21.80
-13.48
-5.97
0.96
7.45
13.39
18.51
22.61
25.62
27.62
28.76
29.09
28.64
27.45
25.67
23.55
21.41
19.48
17.87
16.50
15.19
13.72
11.87
9.39
6.07
1.70
-3.75
-10.10
-16.87
-23.44
-29.22
-33.90
-37.59
-40.81
-44.30
-48.59
-53.77
-59.33
-64.18
-67.09
-67.03
-63.57
-57.11
-48.83
-40.36
-33.30
-28.68
-26.49
-25.58
-23.79
-18.47
-7.39
10.51
34.49
62.07
89.44
112.55
128.08
134.26
131.21
120.63
105.07
87.22
69.24
52.50
37.73
25.20
15.05
7.29
1.74
-2.05
-4.83
-7.42
-10.51
-14.38
-18.89
-23.75
-28.67
-33.66
-38.88
-44.39
-49.83
-54.37
-56.99
-56.97
-54.51
-50.81
-47.70
-46.76
-48.37
-51.20
-52.54
-49.30
-39.35
-22.50
-0.65
22.98
45.02
62.99
75.74
83.22
85.82
83.95
77.88
68.17
55.91
42.92
31.32
22.86
18.29
17.19
18.12
19.33
19.49
18.01
15.30
12.46
10.80
11.26
14.08
18.56
23.43
27.34
29.45
29.74
28.88
27.81
27.27
27.58
28.69
30.43
32.66
35.17
37.68
39.73
40.91
41.11
40.55
39.57
38.21
35.99
31.89
24.95
14.76
1.81
-12.62
-27.04
-40.20
-51.45
-60.61
-67.74
-72.81
-75.62
-76.00
-73.95
-69.85
-64.36
-58.28
-52.30
-46.90
-42.28
-38.48
-35.49
-33.27
-31.77
-30.90
-30.52
-30.43
-30.47
-30.53
-30.66
-31.06
-32.04
-33.86
-36.43
-39.22
-41.25
-41.48
-39.22
-34.63
-28.70
-23.03
-19.24
-18.26
-19.96
-23.12
-25.81
-25.98
-22.16
-13.82
-1.54
13.34
29.15
44.41
58.29
70.64
81.79
92.15
101.85
110.54
117.47
121.93
123.70
123.38
122.38
122.48
125.19
130.99
139.13
147.59
153.74
154.91
149.13
135.40
113.85
85.63
52.73
17.65
-17.00
-48.92
-76.48
-98.89
-116.21
-129.01
-138.19
-144.66
-149.21
-152.49
-155.04
-157.23
-159.20
-160.82
-161.66
-161.09
-158.51
-153.52
-146.00
-136.13
-124.17
-110.48
-95.40
-79.35
-62.91
-46.82
-31.92
-19.00
-8.75
-1.63
2.13
2.73
1.03
-1.32
-2.06
1.16
9.88
24.10
41.97
60.12
74.75
82.96
83.69
78.06
68.82
59.19
51.77
47.71
46.60
46.91
46.73
44.43
39.19
31.25
21.90
13.21
7.53
6.51
10.29
16.95
22.74
23.10
14.23
-5.42
-34.30
-67.81
-99.56
-123.06
-133.66
-129.84
-113.37
-88.51
-60.30
-32.87
-8.42
12.83
31.87
49.82
67.25
84.04
99.63
113.33
124.32
131.61
133.98
130.32
120.12
103.96
83.75
62.19
42.27
26.36
15.76
10.44
9.31
10.51
12.02
12.14
9.90
5.21
-1.22
-8.26
-14.78
-20.09
-24.05
-27.13
-30.15
-33.89
-38.92
-45.34
-52.90
-61.04
-68.92
-75.60
-80.06
-81.43
-79.20
-73.35
-64.47
-53.56
-41.57
-29.20
-16.66
-3.82
9.33
22.44
34.60
44.62
51.51
54.89
55.30
54.06
52.95
53.77
57.97
66.34
78.73
93.88
109.43
122.22
128.96
127.15
115.93
96.32
70.94
43.14
15.96
-8.43
-28.93
-45.18
-57.11
-64.76
-68.27
-68.20
-65.65
-62.24
-59.69
-59.35
-61.89
-67.15
-74.28
-82.06
-89.14
-94.21
-96.21
-94.40
-88.50
-78.82
-66.24
-52.11
-37.90
-24.89
-13.88
-5.11
1.59
6.53
10.07
12.49
14.28
16.28
19.80
26.20
36.26
49.43
63.63
75.71
82.71
83.15
77.84
69.76
62.94
60.99
65.97
77.88
94.91
113.99
131.48
143.71
147.60
141.22
124.22
98.08
65.70
30.67
-3.54
-34.32
-60.02
-79.95
-93.98
-102.37
-105.63
-104.47
-99.82
-92.66
-83.93
-74.39
-64.60
-54.91
-45.56
-36.72
-28.61
-21.43
-15.33
-10.30
-6.17
-2.65
0.54
3.54
6.28
8.58
10.28
11.36
11.97
12.38
12.79
13.24
13.55
13.45
12.66
11.06
8.67
5.64
2.15
-1.63
-5.52
-9.39
-13.04
-16.33
-19.24
-21.88
-24.64
-28.04
-32.59
-38.53
-45.58
-52.83
-59.02
-62.79
-63.27
-60.19
-54.05
-45.74
-36.33
-26.69
-17.33
-8.41
0.09
8.25
15.97
23.03
29.09
33.84
37.11
39.02
39.83
39.88
39.44
38.68
37.64
36.44
35.19
34.02
32.89
31.69
30.20
28.29
25.98
23.37
20.52
17.36
13.68
9.31
4.27
-1.19
-6.62
-11.62
-16.07
-20.08
-24.00
-28.18
-32.87
-38.18
-44.03
-50.24
-56.48
-62.19
-66.67
-69.21
-69.28
-66.73
-61.79
-55.00
-46.84
-37.76
-27.96
-17.63
-7.04
3.32
12.90
21.16
27.85
32.97
36.77
39.60
41.78
43.49
44.76
45.55
45.81
45.54
44.74
43.45
41.73
39.62
37.18
34.48
31.60
28.52
25.15
21.37
17.10
12.44
7.71
3.36
-0.24
-2.96
-5.04
-7.05
-9.63
-13.32
-18.28
-24.29
-30.72
-36.69
-41.22
-43.45
-42.81
-39.21
-33.04
-25.05
-16.18
-7.31
0.93
8.21
14.45
19.68
23.93
27.25
29.65
31.15
31.78
31.61
30.75
29.38
27.76
26.23
25.10
24.50
24.26
23.87
22.72
20.33
16.58
11.84
6.70
1.67
-3.08
-7.68
-12.48
-17.73
-23.44
-29.39
-35.26
-40.86
-46.19
-51.36
-56.55
-61.95
-67.74
-74.08
-81.01
-88.24
-95.10
-100.43
-102.92
-101.50
-95.75
-86.01
-73.33
-59.05
-44.36
-30.01
-16.24
-2.96
9.99
22.56
34.42
45.02
53.78
60.29
64.44
66.47
66.85
66.12
64.73
62.99
61.13
59.34
57.79
56.52
55.32
53.68
50.99
46.86
41.39
35.19
29.20
24.30
20.92
18.95
17.91
17.19
16.28
14.84
12.67
9.68
5.94
1.57
-3.21
-8.29
-13.70
-19.56
-25.86
-32.22
-37.81
-41.56
-42.52
-40.31
-35.14
-27.75
-19.08
-9.92
-0.76
8.19
16.87
25.22
33.02
39.94
45.51
49.34
51.13
50.88
48.93
45.90
42.59
39.72
37.72
36.54
35.73
34.67
32.94
30.63
28.41
27.21
27.73
29.93
32.96
35.47
36.25
34.72
31.26
26.92
22.98
20.45
19.78
20.82
22.79
24.49
24.46
21.31
14.30
3.95
-7.47
-16.16
-17.75
-9.02
10.56
38.00
67.37
91.67
105.22
105.44
93.40
72.78
48.08
23.02
-0.30
-21.12
-39.33
-54.75
-66.93
-75.41
-80.05
-81.25
-79.74
-76.33
-71.61
-65.88
-59.32
-52.23
-45.08
-38.55
-33.33
-29.96
-28.71
-29.42
-31.65
-34.73
-37.92
-40.65
-42.61
-43.88
-44.81
-45.95
-47.80
-50.69
-54.66
-59.52
-65.01
-70.94
-77.19
-83.59
-89.78
-95.08
-98.58
-99.31
-96.67
-90.63
-81.84
-71.39
-60.45
-49.94
-40.33
-31.69
-23.93
-17.01
-11.17
-6.75
-3.87
-1.96
0.26
4.50
12.18
23.72
38.24
53.81
68.06
79.01
85.57
87.74
86.48
83.51
80.93
80.88
84.89
93.41
105.48
118.93
130.90
138.63
140.12
134.25
120.82
100.37
74.03
43.53
11.07
-20.98
-50.40
-75.40
-94.65
-107.02
-111.42
-107.02
-93.82
-73.42
-49.18
-25.63
-6.83
5.35
12.31
18.32
28.65
46.96
73.41
104.11
132.53
151.94
157.89
149.53
129.39
102.04
72.23
43.57
17.96
-4.04
-22.48
-37.42
-48.76
-56.47
-60.98
-63.38
-65.20
-67.94
-72.49
-78.83
-86.04
-92.71
-97.49
-99.56
-98.93
-96.29
-92.80
-89.61
-87.61
-87.31
-88.86
-92.12
-96.53
-100.88
-103.19
-100.97
-92.02
-75.52
-52.72
-26.79
-1.78
19.04
34.47
45.84
56.30
69.29
86.95
109.15
133.41
155.74
171.81
178.31
173.71
158.55
135.02
106.25
75.43
45.23
17.55
-6.41
-25.91
-40.52
-50.21
-55.41
-57.18
-57.03
-56.61
-57.24
-59.63
-63.75
-69.01
-74.62
-79.87
-84.38
-88.06
-91.10
-93.75
-96.33
-99.17
-102.57
-106.70
-111.40
-115.94
-118.80
-117.76
-110.39
-94.95
-71.34
-41.71
-10.16
18.33
39.65
51.95
56.24
55.83
54.96
57.26
64.74
77.61
94.64
113.73
132.32
147.66
157.11
158.68
151.61
136.79
116.58
94.17
72.52
53.57
37.81
24.67
13.01
1.92
-9.04
-19.76
-29.81
-38.76
-46.34
-52.56
-57.72
-62.36
-67.18
-72.85
-79.86
-88.33
-97.87
-107.54
-116.05
-122.02
-124.41
-122.80
-117.56
-109.59
-99.84
-88.79
-76.12
-60.94
-42.46
-20.66
3.11
26.40
46.41
61.05
69.76
73.84
75.90
78.95
85.36
96.02
110.07
125.29
138.65
147.26
149.01
142.98
129.52
109.96
86.25
60.62
35.27
12.16
-7.23
-21.98
-31.81
-37.01
-38.20
-36.17
-31.78
-25.97
-19.79
-14.27
-10.16
-7.69
-6.52
-5.76
-4.38
-1.44
3.72
11.50
22.14
35.57
51.19
67.61
82.58
93.39
97.70
94.28
83.49
67.15
47.89
28.34
10.36
-5.15
-18.11
-28.86
-37.75
-44.99
-50.63
-54.70
-57.29
-58.44
-58.13
-56.29
-52.96
-48.50
-43.62
-39.28
-36.32
-35.16
-35.68
-37.36
-39.54
-41.79
-43.98
-46.24
-48.76
-51.77
-55.46
-60.02
-65.54
-71.87
-78.51
-84.56
-89.02
-91.07
-90.44
-87.35
-82.33
-75.84
-68.01
-58.62
-47.37
-34.20
-19.55
-4.35
10.17
22.86
32.99
40.37
45.30
48.41
50.36
51.72
52.92
54.24
55.83
57.69
59.63
61.26
62.05
61.46
59.08
54.72
48.50
40.90
32.74
24.99
18.51
13.76
10.55
8.05
5.07
0.52
-6.14
-14.69
-24.11
-32.92
-39.47
-42.34
-40.73
-34.62
-24.77
-12.58
0.44
13.02
24.44
34.58
43.70
52.17
60.23
67.92
75.03
81.34
86.57
90.46
92.75
93.23
91.87
88.99
85.25
81.57
78.75
77.14
76.45
75.85
74.38
71.46
67.13
61.99
56.65
51.23
45.03
36.67
24.64
7.82
-14.01
-40.19
-69.39
-99.98
-130.18
-158.21
-182.26
-200.57
-211.63
-214.44
-208.81
-195.48
-176.02
-152.48
-126.96
-101.15
-76.09
-52.18
-29.46
-7.93
12.14
30.26
45.78
58.20
67.35
73.38
76.81
78.30
78.72
78.97
79.94
82.22
85.95
90.67
95.51
99.53
102.09
103.17
103.33
103.43
104.19
105.83
107.81
108.96
107.85
103.34
95.22
84.37
72.69
62.55
55.98
54.02
56.28
60.95
65.17
65.77
60.12
46.82
26.16
-0.01
-28.75
-56.90
-81.77
-101.70
-116.03
-124.97
-129.19
-129.58
-127.08
-122.64
-117.13
-111.24
-105.34
-99.41
-93.15
-86.11
-77.99
-68.87
-59.26
-49.90
-41.58
-34.71
-29.24
-24.76
-20.79
-17.12
-13.99
-11.91
-11.31
-12.28
-14.44
-17.15
-19.86
-22.28
-24.44
-26.44
-28.28
-29.69
-30.28
-29.78
-28.19
-25.83
-23.16
-20.65
-18.60
-17.02
-15.66
-13.96
-11.14
-6.34
1.02
11.01
23.03
36.01
48.92
61.16
72.85
84.60
97.15
110.94
125.82
141.25
156.38
170.15
181.25
188.01
188.48
180.89
164.18
138.54
105.45
67.34
27.08
-12.37
-48.05
-77.07
-96.86
-105.89
-104.45
-94.93
-81.33
-67.78
-57.08
-49.75
-44.18
-37.86
-28.75
-16.33
-1.62
13.20
25.61
33.23
34.21
27.51
13.14
-7.48
-31.63
-55.83
-76.68
-91.72
-99.88
-101.39
-97.25
-88.78
-77.28
-64.01
-50.22
-37.10
-25.66
-16.39
-9.31
-4.04
-0.08
2.94
5.13
6.47
7.01
6.93
6.60
6.33
6.30
6.43
6.40
5.86
4.48
2.14
-1.09
-5.01
-9.41
-14.11
-19.06
-24.29
-29.87
-35.88
-42.27
-48.92
-55.59
-61.97
-67.76
-72.73
-76.77
-79.83
-81.92
-82.86
-82.20
-79.35
-73.69
-65.01
-53.70
-40.76
-27.54
-15.23
-4.51
4.61
12.63
20.16
27.55
34.62
40.74
45.11
47.20
47.07
45.48
43.70
43.02
44.23
47.34
51.53
55.62
58.52
59.68
59.16
57.43
55.05
52.42
49.72
46.96
44.07
40.92
37.27
32.75
27.10
20.36
13.17
6.77
2.75
2.50
6.74
15.13
26.35
38.45
49.51
58.25
64.32
68.38
71.72
75.78
81.69
90.00
100.56
112.50
124.26
133.77
138.68
136.90
127.13
109.34
84.92
56.27
26.26
-2.42
-27.79
-48.72
-64.78
-76.11
-83.13
-86.46
-86.90
-85.29
-82.43
-78.95
-75.28
-71.65
-68.21
-65.07
-62.42
-60.44
-59.28
-58.97
-59.36
-60.19
-61.08
-61.63
-61.58
-60.87
-59.82
-59.01
-59.19
-60.86
-64.06
-68.15
-72.05
-74.43
-74.27
-71.11
-65.05
-56.70
-46.79
-36.04
-25.06
-14.27
-3.97
5.66
14.46
22.28
28.92
34.19
38.00
40.46
41.83
42.43
42.53
42.18
41.28
39.75
37.68
35.43
33.45
32.02
31.05
30.09
28.55
26.12
22.81
19.03
15.20
11.53
7.85
3.87
-0.64
-5.61
-10.70
-15.55
-20.03
-24.38
-29.11
-34.71
-41.39
-48.97
-56.89
-64.34
-70.38
-74.12
-74.82
-72.12
-66.10
-57.37
-46.88
-35.65
-24.51
-13.95
-4.15
4.84
12.93
19.93
25.64
29.94
32.91
34.79
35.85
36.33
36.43
36.31
36.14
36.11
36.31
36.66
36.90
36.70
35.81
34.23
32.23
30.14
28.19
26.25
23.94
20.79
16.54
11.32
5.61
0.04
-4.93
-9.17
-12.96
-16.79
-21.18
-26.47
-32.75
-39.81
-47.18
-54.13
-59.75
-63.04
-63.12
-59.57
-52.55
-42.91
-31.89
-20.79
-10.54
-1.58
6.16
12.87
18.74
23.69
27.51
30.04
31.28
31.53
31.25
30.92
30.92
31.42
32.34
33.44
34.37
34.79
34.50
33.46
31.76
29.55
26.94
23.98
20.69
17.13
13.37
9.54
5.66
1.72
-2.37
-6.62
-10.95
-15.19
-19.19
-23.06
-27.10
-31.80
-37.53
-44.25
-51.40
-57.94
-62.57
-64.15
-62.03
-56.29
-47.61
-37.09
-25.86
-14.83
-4.49
4.95
13.43
20.83
26.91
31.39
34.07
35.08
34.78
33.72
32.37
31.02
29.71
28.36
26.80
24.93
22.73
20.19
17.31
13.99
10.15
5.76
0.98
-3.80
-7.98
-10.99
-12.46
-12.50
-11.66
-10.80
-10.71
-11.77
-13.78
-16.07
-17.82
-18.55
-18.28
-17.53
-17.00
-17.20
-18.33
-20.39
-23.26
-26.83
-30.77
-34.34
-36.38
-35.62
-31.18
-22.92
-11.43
2.51
18.50
36.90
58.62
84.49
114.47
147.19
180.02
209.54
232.18
244.98
246.06
234.99
212.93
182.37
146.58
108.99
72.54
39.34
10.60
-13.19
-32.04
-46.38
-56.85
-64.22
-69.16
-72.19
-73.57
-73.47
-72.17
-70.15
-68.03
-66.41
-65.64
-65.65
-66.08
-66.42
-66.37
-66.04
-65.93
-66.74
-68.99
-72.63
-76.84
-80.31
-81.69
-80.13
-75.59
-68.83
-60.84
-52.46
-44.03
-35.54
-26.90
-18.35
-10.49
-4.09
0.30
2.63
3.44
3.60
4.01
5.31
7.63
10.73
14.13
17.34
20.01
21.91
22.92
23.01
22.17
20.49
18.14
15.33
12.26
9.06
5.76
2.34
-1.18
-4.76
-8.34
-11.94
-15.64
-19.56
-23.79
-28.34
-33.20
-38.42
-44.19
-50.58
-57.30
-63.56
-68.09
-69.56
-67.04
-60.45
-50.65
-39.12
-27.44
-16.74
-7.41
0.73
8.11
14.96
21.21
26.47
30.41
33.00
34.57
35.70
36.85
38.15
39.33
39.99
39.94
39.33
38.61
38.14
37.98
37.79
37.01
35.15
32.14
28.22
23.84
19.32
14.72
9.91
4.72
-0.80
-6.34
-11.54
-16.13
-20.18
-24.07
-28.37
-33.59
-39.94
-47.28
-55.07
-62.37
-68.06
-71.01
-70.38
-65.88
-57.90
-47.44
-35.79
-24.09
-13.09
-3.03
6.14
14.56
22.19
28.87
34.37
38.58
41.54
43.41
44.40
44.69
44.47
43.92
43.24
42.62
42.16
41.83
41.48
40.84
39.63
37.66
34.88
31.40
27.47
23.32
19.07
14.70
10.10
5.21
0.15
-4.77
-9.23
-13.04
-16.35
-19.56
-23.16
-27.60
-33.11
-39.65
-46.87
-54.08
-60.28
-64.32
-65.21
-62.40
-56.05
-46.97
-36.36
-25.43
-15.08
-5.69
2.68
10.15
16.83
22.69
27.63
31.54
34.33
36.00
36.73
36.77
36.44
36.02
35.71
35.55
35.53
35.53
35.41
35.07
34.44
33.55
32.47
31.26
29.83
28.02
25.59
22.48
18.83
15.02
11.53
8.76
6.81
5.45
4.28
2.90
1.06
-1.27
-4.04
-7.05
-10.02
-12.42
-13.45
-12.11
-7.48
0.95
12.98
27.76
44.07
60.75
77.01
92.54
107.18
120.70
132.65
142.55
150.14
155.71
160.05
164.18
168.97
174.88
181.81
189.22
196.18
201.43
203.47
200.58
191.07
173.76
148.26
115.36
76.99
36.04
-4.25
-40.88
-71.82
-96.23
-114.52
-127.77
-137.19
-143.68
-147.61
-149.20
-148.85
-147.36
-145.94
-145.75
-147.43
-150.63
-154.10
-155.97
-154.54
-148.86
-139.13
-126.63
-113.27
-101.02
-91.23
-84.43
-80.32
-78.10
-76.84
-75.75
-74.37
-72.46
-70.00
-67.09
-64.00
-61.06
-58.68
-57.28
-57.24
-58.79
-61.92
-66.35
-71.55
-76.85
-81.71
-85.87
-89.44
-92.87
-96.77
-101.69
-108.04
-115.99
-125.42
-135.85
-146.38
-155.72
-162.29
-164.62
-161.69
-153.29
-140.02
-123.17
-104.42
-85.57
-68.39
-54.47
-45.00
-40.43
-40.17
-42.45
-44.71
-44.25
-39.20
-29.16
-15.37
-0.19
13.86
25.13
33.40
39.80
46.15
54.01
64.04
75.79
87.82
98.22
105.04
106.82
102.95
94.25
83.21
73.68
69.84
74.56
87.83
106.14
123.29
132.54
129.31
113.10
87.63
59.31
34.48
17.04
7.41
3.16
0.83
-2.16
-6.48
-11.00
-13.70
-12.71
-7.05
3.20
16.90
31.99
45.62
54.63
56.28
49.29
34.50
14.72
-6.03
-23.87
-36.00
-41.30
-40.04
-33.37
-22.84
-10.11
3.12
15.24
24.88
31.36
34.85
36.38
37.41
39.19
42.32
46.47
50.59
53.45
54.18
52.60
49.21
44.92
40.57
36.61
33.03
29.44
25.32
20.31
14.40
7.89
1.22
-5.18
-11.21
-17.15
-23.46
-30.59
-38.76
-47.87
-57.59
-67.49
-77.01
-85.46
-92.03
-95.83
-96.30
-93.38
-87.53
-79.27
-68.82
-55.92
-40.25
-22.08
-2.78
15.34
29.78
38.84
42.35
41.59
38.74
36.27
36.50
41.58
53.36
73.04
100.42
133.24
167.13
196.47
215.83
221.53
212.64
190.94
160.21
125.04
89.68
57.35
30.09
8.81
-6.40
-16.17
-21.55
-24.04
-25.36
-27.14
-30.61
-36.37
-44.32
-53.76
-63.64
-72.78
-80.06
-84.55
-85.63
-83.07
-77.12
-68.47
-58.08
-46.92
-35.70
-24.77
-14.18
-3.91
5.92
14.86
22.35
27.85
31.20
32.72
33.08
33.06
33.19
33.62
34.12
34.33
33.96
32.95
31.50
29.92
28.46
27.21
26.05
24.73
22.92
20.30
16.63
11.91
6.39
0.65
-4.68
-9.09
-12.51
-15.37
-18.39
-22.35
-27.70
-34.36
-41.82
-49.26
-55.84
-60.84
-63.76
-64.33
-62.50
-58.45
-52.59
-45.45
-37.61
-29.59
-21.81
-14.62
-8.33
-3.37
-0.28
0.40
-1.69
-6.33
-12.57
-18.65
-22.49
-22.16
-16.65
-6.20
7.75
23.03
37.38
49.15
57.53
62.52
64.67
64.66
63.17
60.71
57.79
54.90
52.44
50.67
49.49
48.42
46.75
43.75
39.01
32.53
24.78
16.53
8.66
1.99
-2.79
-5.14
-4.71
-1.40
4.62
12.83
22.53
32.90
43.24
53.14
62.49
71.40
80.03
88.50
96.77
104.80
112.53
120.01
127.36
134.85
142.71
151.15
160.26
170.02
180.35
191.12
202.25
213.65
225.18
236.57
247.40
257.16
265.43
271.97
276.79
279.94
281.18
279.88
275.04
265.73
251.58
233.14
211.81
189.34
167.25
146.29
126.37
106.75
86.69
65.75
44.04
22.01
0.19
-21.10
-41.90
-62.48
-83.21
-104.43
-126.44
-149.51
-173.77
-198.89
-223.86
-246.85
-265.58
-277.96
-282.91
-280.79
-273.30
-262.75
-251.25
-240.07
-229.50
-219.29
-209.13
-199.11
-189.67
-181.31
-174.26
-168.30
-163.00
-158.03
-153.49
-149.90
-147.85
-147.50
-148.27
-148.84
-147.68
-143.67
-136.60
-127.34
-117.44
-108.60
-102.08
-98.47
-97.73
-99.38
-102.69
-106.82
-110.82
-113.76
-114.71
-113.00
-108.34
-100.93
-91.43
-80.81
-70.07
-60.03
-51.18
-43.66
-37.46
-32.47
-28.70
-26.25
-25.19
-25.46
-26.70
-28.38
-29.84
-30.59
-30.39
-29.34
-27.74
-26.06
-24.77
-24.20
-24.53
-25.65
-27.18
-28.60
-29.41
-29.34
-28.39
-26.80
-24.83
-22.59
-19.98
-16.90
-13.43
-10.05
-7.46
-6.41
-7.39
-10.51
-15.47
-21.69
-28.31
-34.37
-38.80
-40.69
-39.47
-35.18
-28.47
-20.35
-11.95
-4.20
2.26
7.09
10.09
11.28
10.90
9.52
7.89
6.80
6.81
8.11
10.43
13.18
15.59
16.91
16.68
14.85
11.78
8.16
4.66
1.61
-1.10
-4.04
-7.89
-13.22
-20.18
-28.63
-38.16
-48.44
-59.19
-70.23
-81.36
-92.31
-102.79
-112.62
-121.73
-130.10
-137.76
-144.59
-150.49
-155.36
-159.21
-162.01
-163.59
-163.45
-160.79
-154.90
-145.45
-132.80
-117.85
-101.62
-84.72
-67.11
-48.26
-27.72
-5.55
17.38
39.75
60.26
78.15
93.32
106.18
117.14
126.40
133.90
139.54
143.45
146.04
147.82
149.14
150.08
150.42
149.96
148.68
146.73
144.26
141.31
137.55
132.55
125.92
117.59
107.80
97.07
85.91
74.76
63.97
53.82
44.62
36.50
29.36
22.68
15.74
7.83
-1.43
-11.86
-22.78
-33.24
-42.17
-48.67
-52.08
-52.05
-48.58
-42.04
-33.20
-23.05
-12.60
-2.57
6.59
14.71
21.78
27.84
32.92
37.16
40.63
43.36
45.15
45.64
44.46
41.63
37.68
33.65
30.70
29.57
30.21
31.72
32.71
31.82
28.27
22.06
14.13
5.94
-0.83
-4.67
-4.63
-0.57
6.55
14.56
20.30
20.44
12.54
-3.85
-26.87
-52.75
-77.13
-96.46
-108.86
-114.12
-112.91
-105.96
-93.60
-76.02
-53.93
-29.06
-3.93
18.92
37.83
52.55
63.88
73.09
80.99
87.55
92.14
94.06
93.27
90.54
87.21
84.55
83.12
82.48
81.39
78.37
72.27
62.75
50.35
36.25
21.79
7.98
-4.84
-17.10
-29.86
-44.51
-62.22
-83.37
-107.00
-130.58
-150.35
-162.27
-163.17
-151.72
-128.91
-97.67
-61.96
-25.61
8.50
38.93
65.67
89.55
111.64
132.47
151.59
167.67
179.08
184.76
184.93
181.26
176.37
172.95
172.95
177.19
185.36
196.19
207.79
217.87
224.09
224.64
218.82
207.42
192.66
177.34
163.94
153.72
146.43
140.61
134.38
126.25
115.63
103.06
89.85
77.61
67.52
59.85
53.77
47.67
39.98
29.92
18.16
6.70
-1.86
-5.29
-2.56
5.83
18.06
31.67
44.05
52.92
56.48
53.56
43.74
27.53
6.43
-17.36
-41.35
-63.41
-82.21
-97.36
-109.25
-118.62
-126.16
-132.27
-137.13
-140.78
-143.39
-145.21
-146.47
-147.25
-147.43
-146.99
-146.36
-146.61
-149.27
-155.82
-166.73
-180.88
-195.49
-206.92
-211.86
-208.63
-197.81
-182.01
-164.87
-149.87
-139.18
-133.38
-131.75
-133.01
-136.02
-140.09
-144.78
-149.52
-153.23
-154.29
-150.95
-141.88
-126.70
-106.16
-81.93
-56.05
-30.42
-6.46
14.97
33.35
48.33
59.59
66.97
70.51
70.71
68.53
65.15
61.68
58.80
56.59
54.73
52.84
50.86
49.13
48.20
48.39
49.47
50.71
51.17
50.17
47.56
43.58
38.57
32.68
25.88
18.20
10.18
2.95
-1.93
-2.98
0.53
8.29
19.03
30.93
42.28
51.76
58.53
61.98
61.44
56.31
46.27
31.87
14.72
-2.67
-17.64
-28.17
-33.50
-34.18
-31.61
-27.38
-22.81
-18.80
-15.82
-14.07
-13.34
-13.06
-12.28
-9.95
-5.21
2.29
12.43
24.69
38.44
53.06
67.85
81.99
94.57
104.75
112.14
117.00
120.17
122.76
125.66
129.11
132.60
135.05
135.09
131.55
123.90
112.32
97.68
80.89
62.50
42.16
18.78
-8.86
-41.37
-78.06
-116.85
-154.74
-188.58
-215.80
-234.67
-244.34
-244.49
-235.17
-216.80
-190.39
-157.68
-121.16
-83.75
-48.20
-16.54
10.45
33.20
52.94
71.00
88.15
104.31
118.73
130.44
138.79
143.64
145.38
144.70
142.42
139.45
136.66
134.86
134.48
135.53
137.57
140.02
142.46
144.93
147.89
152.13
158.49
167.73
180.60
197.71
219.29
244.69
271.99
297.96
318.75
331.00
332.96
325.12
309.78
290.07
268.66
246.96
225.01
202.16
177.85
152.15
125.72
99.33
73.25
47.08
19.95
-8.99
-40.17
-73.45
-108.16
-143.20
-177.10
-208.05
-234.16
-254.03
-267.28
-274.95
-279.15
-282.35
-286.19
-290.98
-295.70
-298.89
-299.56
-297.71
-294.19
-289.96
-285.44
-280.39
-274.34
-267.27
-260.06
-254.28
-251.57
-253.01
-258.52
-267.00
-276.56
-285.02
-290.26
-290.51
-284.64
-272.36
-254.42
-232.42
-208.47
-184.57
-162.28
-142.58
-126.06
-113.32
-104.90
-101.04
-101.26
-104.06
-106.96
-107.02
-101.56
-88.87
-68.63
-41.78
-10.28
23.31
56.11
85.09
107.27
120.17
122.48
114.49
98.34
77.47
55.83
36.75
22.30
13.06
8.54
7.89
10.76
17.71
30.04
49.13
75.30
106.92
140.16
169.72
190.25
197.80
190.90
170.68
140.34
104.31
67.41
34.28
8.94
-5.72
-8.37
0.52
18.91
43.70
71.62
99.74
125.97
149.12
168.85
185.54
199.90
212.67
224.27
234.78
244.16
252.58
260.47
268.20
275.46
280.71
281.25
274.01
256.75
229.11
192.97
151.97
110.36
72.00
39.50
14.07
-4.51
-17.85
-28.81
-41.23
-59.14
-85.70
-121.87
-165.88
-213.38
-258.74
-296.74
-323.99
-339.66
-345.08
-342.81
-335.45
-324.90
-312.21
-297.84
-282.04
-265.07
-247.20
-228.65
-209.61
-190.19
-170.45
-150.26
-128.97
-105.59
-78.90
-48.30
-14.33
20.98
54.36
81.98
100.14
105.76
96.65
71.93
32.61
-17.61
-72.21
-122.80
-161.16
-181.72
-183.28
-169.07
-145.03
-117.37
-90.19
-64.62
-39.52
-13.32
14.24
41.27
64.33
79.94
86.18
83.51
74.38
61.98
48.86
36.08
23.53
10.91
-1.31
-11.57
-17.74
-18.26
-12.96
-3.22
8.69
20.60
31.26
40.53
49.14
58.06
67.86
78.45
89.12
98.81
106.54
111.82
114.70
115.86
116.24
116.71
117.83
119.70
122.00
124.19
125.76
126.38
126.04
125.04
123.86
122.99
122.71
122.91
123.21
123.03
121.93
119.74
116.52
112.52
107.89
102.66
96.76
90.12
82.69
74.37
64.74
53.03
38.25
19.72
-2.53
-27.44
-53.22
-77.84
-99.65
-117.69
-131.55
-141.07
-146.14
-146.71
-143.02
-135.90
-126.73
-117.07
-108.20
-100.71
-94.23
-87.65
-79.35
-67.78
-52.00
-32.20
-9.82
12.66
32.59
47.96
58.10
63.72
66.26
67.09
66.78
65.20
61.87
56.79
50.64
44.67
39.92
36.66
34.21
31.27
26.70
20.00
11.62
2.69
-5.47
-11.80
-15.71
-17.11
-16.25
-13.55
-9.54
-4.77
0.34
5.46
10.44
15.09
19.16
22.32
24.30
25.04
24.85
24.31
24.00
24.27
25.00
25.76
25.97
25.26
23.60
21.36
19.10
17.32
16.28
15.85
15.54
14.77
13.05
10.22
6.45
2.16
-2.25
-6.50
-10.57
-14.57
-18.66
-22.91
-27.28
-31.72
-36.15
-40.55
-44.71
-48.05
-49.58
-48.00
-42.06
-31.00
-14.75
6.05
30.27
56.53
83.32
108.89
131.21
148.13
157.82
159.44
153.66
142.59
129.23
116.60
106.90
101.18
99.48
101.20
105.32
110.57
115.29
117.51
115.27
107.11
92.55
72.32
48.20
22.61
-1.82
-22.73
-38.12
-46.72
-48.24
-43.67
-35.34
-26.52
-20.72
-20.68
-27.46
-39.93
-54.73
-66.85
-70.87
-62.45
-39.87
-4.84
37.73
81.06
118.46
145.24
159.76
163.17
158.27
147.95
134.00
116.82
95.90
70.69
41.53
9.93
-21.62
-50.40
-74.30
-92.40
-105.03
-113.28
-118.42
-121.30
-122.22
-121.12
-118.03
-113.26
-107.41
-101.10
-94.68
-88.11
-81.20
-73.79
-66.21
-59.16
-53.65
-50.47
-49.89
-51.54
-54.65
-58.38
-62.22
-66.00
-69.79
-73.48
-76.57
-78.17
-77.29
-73.25
-66.00
-56.11
-44.63
-32.68
-21.23
-10.91
-2.08
5.03
10.35
13.88
15.84
16.67
17.01
17.46
18.35
19.56
20.66
21.14
20.74
19.62
18.29
17.30
16.96
17.17
17.43
17.17
15.89
13.35
9.55
4.73
-0.78
-6.60
-12.32
-17.63
-22.39
-26.73
-31.03
-35.80
-41.48
-48.26
-55.96
-63.99
-71.51
-77.59
-81.43
-82.48
-80.53
-75.74
-68.53
-59.56
-49.69
-39.87
-30.99
-23.74
-18.38
-14.70
-12.15
-10.08
-8.07
-6.13
-4.72
-4.53
-6.12
-9.61
-14.57
-20.14
-25.36
-29.46
-32.18
-33.85
-35.11
-36.63
-38.71
-41.11
-43.06
-43.56
-41.62
-36.57
-28.24
-17.16
-4.63
7.28
16.18
20.01
17.86
10.48
0.10
-10.18
-17.37
-19.41
-15.50
-5.93
8.40
26.48
47.45
70.68
95.59
121.45
147.08
170.76
190.35
203.76
209.59
207.75
199.63
187.77
175.05
163.79
155.33
150.11
148.08
149.29
154.00
162.50
174.65
189.55
205.67
221.31
235.07
246.03
253.62
257.12
255.37
246.96
230.84
206.93
176.47
141.65
104.87
67.94
31.78
-3.50
-38.01
-71.80
-104.65
-136.35
-166.99
-197.07
-227.47
-259.37
-294.19
-333.16
-376.71
-423.50
-469.68
-509.08
-534.50
-539.86
-522.18
-482.45
-425.08
-356.32
-282.58
-209.44
-141.50
-82.72
-36.48
-5.21
10.47
12.28
4.09
-9.12
-22.80
-34.03
-42.03
-47.76
-52.85
-58.36
-64.18
-69.08
-71.53
-70.77
-67.44
-63.47
-61.03
-61.44
-64.39
-68.06
-69.95
-68.07
-61.76
-51.83
-40.03
-28.26
-17.91
-9.46
-2.53
3.85
10.95
19.90
31.45
45.62
61.70
78.40
94.35
108.59
120.81
131.28
140.50
148.67
155.58
160.73
163.69
164.58
164.15
163.57
163.95
165.90
169.32
173.58
177.87
181.72
185.13
188.55
192.50
197.25
202.38
206.65
207.92
203.47
190.73
168.07
135.57
95.24
50.56
5.52
-36.51
-73.31
-104.02
-128.67
-147.76
-161.98
-172.15
-179.12
-183.63
-186.04
-186.26
-183.93
-178.79
-171.10
-161.64
-151.42
-141.22
-131.17
-120.85
-109.60
-97.01
-83.26
-69.23
-56.22
-45.50
-37.82
-33.17
-30.82
-29.64
-28.55
-26.88
-24.46
-21.53
-18.42
-15.36
-12.46
-9.77
-7.34
-5.45
-4.40
-4.44
-5.60
-7.63
-9.98
-11.96
-13.03
-13.01
-12.18
-11.19
-10.76
-11.35
-13.05
-15.61
-18.65
-21.87
-25.11
-28.18
-30.69
-32.02
-31.46
-28.49
-23.03
-15.51
-6.80
2.03
9.99
16.36
20.80
23.45
24.83
25.71
26.89
28.86
31.69
35.02
38.26
40.89
42.59
43.27
42.94
41.61
39.25
36.01
32.27
28.62
25.65
23.56
22.04
20.37
17.88
14.37
10.31
6.61
4.06
2.96
2.77
2.40
0.59
-3.46
-9.85
-17.82
-26.04
-32.96
-37.31
-38.34
-36.01
-30.88
-23.83
-15.80
-7.51
0.55
8.10
14.85
20.43
24.44
26.50
26.46
24.48
21.07
16.95
12.89
9.48
7.07
5.69
5.18
5.29
5.82
6.73
7.97
9.43
10.86
11.82
11.86
10.69
8.38
5.36
2.28
-0.27
-2.02
-3.17
-4.25
-5.91
-8.55
-12.21
-16.41
-20.35
-23.15
-23.98
-22.45
-18.55
-12.64
-5.31
2.89
11.48
20.17
28.69
36.78
44.09
50.23
54.92
58.04
59.72
60.16
59.65
58.35
56.42
54.10
51.75
49.78
48.52
47.94
47.69
47.17
45.87
43.57
40.42
36.80
33.09
29.45
25.84
22.22
18.68
15.51
13.00
11.25
10.11
9.28
8.48
7.61
6.66
5.47
3.58
0.36
-4.67
-11.39
-18.90
-25.81
-30.65
-32.46
-31.02
-26.75
-20.36
-12.54
-3.75
5.64
15.27
24.60
32.92
39.54
43.96
46.07
46.23
45.18
43.82
42.93
42.91
43.77
45.16
46.68
48.03
49.13
49.95
50.44
50.37
49.39
47.23
43.89
39.74
35.43
31.56
28.33
25.28
21.49
15.89
7.92
-2.14
-13.09
-23.24
-31.08
-35.82
-37.62
-37.45
-36.61
-36.12
-36.31
-36.76
-36.59
-34.96
-31.59
-26.97
-22.20
-18.47
-16.46
-16.03
-16.32
-16.25
-15.03
-12.44
-8.81
-4.60
-0.07
4.90
10.64
17.47
25.37
33.97
42.66
50.79
57.86
63.52
67.44
69.21
68.38
64.67
58.32
50.30
42.27
36.22
33.76
35.62
41.36
49.52
58.05
64.87
68.39
67.70
62.69
53.90
42.42
29.55
16.58
4.54
-5.98
-14.75
-21.79
-27.18
-30.95
-33.12
-33.93
-33.99
-34.21
-35.55
-38.54
-42.96
-47.81
-51.76
-53.66
-53.05
-50.22
-45.93
-40.95
-35.80
-30.80
-26.28
-22.84
-21.23
-22.08
-25.55
-31.11
-37.67
-43.91
-48.65
-51.11
-50.98
-48.27
-43.26
-36.42
-28.56
-20.84
-14.61
-11.09
-10.86
-13.56
-17.90
-22.04
-24.23
-23.49
-19.90
-14.47
-8.61
-3.70
-0.72
-0.25
-2.35
-6.59
-11.89
-16.54
-18.50
-16.02
-8.32
4.02
19.15
34.70
48.65
60.01
68.90
76.10
82.32
87.63
91.37
92.50
90.13
84.08
74.94
63.81
51.77
39.52
27.23
14.80
2.13
-10.54
-22.72
-33.84
-43.42
-51.13
-56.84
-60.37
-61.60
-60.51
-57.37
-52.81
-47.65
-42.77
-38.77
-35.83
-33.73
-31.99
-30.10
-27.76
-24.98
-22.04
-19.33
-17.13
-15.37
-13.62
-11.27
-7.83
-3.28
1.73
6.07
8.42
7.79
3.88
-2.71
-10.57
-17.84
-22.75
-24.25
-22.35
-18.12
-13.26
-9.36
-7.28
-6.85
-7.15
-7.08
-5.94
-3.73
-1.02
1.52
3.56
5.22
6.87
8.78
10.85
12.61
13.47
13.11
11.66
9.71
8.03
7.23
7.45
8.40
9.42
9.75
8.81
6.32
2.34
-2.80
-8.58
-14.33
-19.34
-22.89
-24.44
-23.68
-20.60
-15.49
-8.83
-1.27
6.62
14.38
21.79
28.81
35.50
41.77
47.32
51.62
54.16
54.63
53.23
50.60
47.67
45.32
44.01
43.67
43.72
43.37
41.92
39.02
34.84
29.81
24.36
18.59
12.21
4.71
-4.35
-14.93
-26.45
-37.94
-48.48
-57.50
-64.99
-71.31
-76.86
-81.70
-85.45
-87.53
-87.49
-85.44
-81.98
-78.11
-74.59
-71.65
-68.82
-65.19
-59.86
-52.29
-42.41
-30.42
-16.51
-0.84
16.13
33.24
48.50
59.61
64.89
64.22
59.23
52.64
47.10
44.03
43.22
43.25
42.31
39.02
32.70
23.30
11.26
-2.54
-16.74
-29.53
-39.08
-44.16
-44.65
-41.67
-37.04
-32.63
-29.64
-28.44
-28.69
-29.70
-30.82
-31.53
-31.58
-30.97
-30.01
-29.26
-29.38
-30.91
-33.91
-37.93
-42.06
-45.19
-46.45
-45.43
-42.31
-37.80
-32.95
-28.81
-26.16
-25.19
-25.44
-25.99
-25.85
-24.53
-22.23
-19.80
-18.11
-17.54
-17.61
-17.17
-15.05
-10.67
-4.47
2.30
8.21
12.27
14.38
15.18
15.68
16.68
18.46
20.78
23.11
24.86
25.57
25.01
23.11
19.99
15.94
11.46
7.17
3.69
1.44
0.51
0.66
1.39
2.11
2.21
1.27
-0.95
-4.30
-8.26
-11.92
-14.34
-14.85
-13.38
-10.50
-7.14
-4.15
-1.89
-0.16
1.61
3.95
7.02
10.61
14.30
17.62
20.29
22.21
23.47
24.26
24.85
25.49
26.42
27.64
28.97
29.96
30.09
28.94
26.34
22.49
17.84
13.05
8.73
5.25
2.63
0.57
-1.43
-3.87
-7.13
-11.26
-16.04
-21.00
-25.63
-29.54
-32.61
-34.99
-36.86
-38.23
-38.81
-38.04
-35.40
-30.78
-24.59
-17.73
-11.22
-5.79
-1.62
1.50
4.01
6.22
8.20
9.86
11.12
12.08
13.04
14.32
16.09
18.22
20.40
22.26
23.60
24.46
25.12
26.00
27.43
29.62
32.54
35.93
39.25
41.79
42.81
41.76
38.49
33.35
27.12
20.71
14.89
10.03
6.10
2.74
-0.49
-3.98
-7.93
-12.38
-17.19
-22.14
-26.91
-31.15
-34.47
-36.49
-36.98
-35.81
-33.13
-29.32
-24.84
-20.21
-15.79
-11.81
-8.30
-5.27
-2.63
-0.37
1.56
3.23
4.70
6.00
7.08
7.88
8.38
8.71
9.11
9.88
11.22
13.11
15.37
17.68
19.73
21.21
21.81
21.23
19.19
15.56
10.48
4.30
-2.40
-9.03
-15.10
-20.20
-24.18
-26.96
-28.69
-29.65
-30.29
-31.06
-32.28
-33.97
-35.77
-37.05
-37.08
-35.29
-31.46
-25.72
-18.50
-10.35
-1.76
6.85
15.12
22.66
29.02
33.76
36.63
37.58
36.89
35.08
32.84
30.91
29.92
30.24
31.81
34.14
36.39
37.78
37.75
36.17
33.29
29.58
25.49
21.38
17.51
14.07
11.24
9.08
7.45
6.03
4.35
2.03
-1.18
-5.24
-9.88
-14.73
-19.38
-23.60
-27.31
-30.60
-33.71
-36.80
-39.87
-42.67
-44.67
-45.32
-44.11
-40.75
-35.33
-28.15
-19.73
-10.60
-1.23
8.03
16.90
25.15
32.40
38.26
42.34
44.53
45.00
44.32
43.24
42.45
42.42
43.25
44.80
46.86
49.37
52.50
56.53
61.64
67.72
74.34
80.83
86.54
90.99
93.88
95.02
94.22
91.26
85.97
78.30
68.41
56.65
43.36
28.81
13.23
-3.08
-19.51
-35.15
-48.79
-59.44
-66.54
-70.28
-71.52
-71.36
-70.85
-70.59
-70.85
-71.58
-72.77
-74.46
-76.77
-79.78
-83.51
-87.84
-92.52
-97.08
-100.76
-102.61
-101.72
-97.62
-90.52
-81.31
-71.27
-61.60
-53.01
-45.76
-39.80
-35.11
-31.83
-30.13
-29.97
-30.87
-32.04
-32.58
-31.96
-30.21
-27.94
-25.92
-24.71
-24.35
-24.33
-23.97
-22.75
-20.68
-18.13
-15.60
-13.39
-11.41
-9.34
-6.88
-3.90
-0.45
3.44
7.94
13.39
20.14
28.28
37.52
47.20
56.46
64.49
70.71
74.82
76.68
76.23
73.45
68.35
61.19
52.67
43.95
36.44
31.28
28.85
28.40
28.38
27.06
23.38
17.40
10.14
2.92
-3.43
-9.06
-14.89
-22.10
-31.32
-42.19
-53.24
-62.38
-67.57
-67.48
-61.96
-52.07
-39.70
-26.89
-15.12
-4.86
4.34
13.41
23.00
32.85
41.81
48.13
50.22
47.31
39.78
29.08
17.30
6.48
-1.81
-6.90
-9.07
-9.29
-8.84
-8.80
-9.67
-11.25
-12.97
-14.27
-14.94
-15.11
-15.01
-14.61
-13.46
-10.89
-6.26
0.70
9.70
20.01
30.53
39.97
47.12
51.01
51.29
48.25
42.77
35.90
28.43
20.65
12.42
3.51
-5.97
-15.46
-24.09
-31.13
-36.21
-39.37
-40.87
-40.85
-39.17
-35.58
-30.01
-22.85
-15.05
-7.80
-2.14
1.36
2.79
2.65
1.61
0.19
-1.25
-2.52
-3.49
-4.04
-4.12
-3.84
-3.33
-2.79
-2.20
-1.38
0.02
2.30
5.56
9.60
13.98
18.12
21.51
23.81
24.95
25.13
24.67
23.99
23.40
23.10
23.12
23.27
23.23
22.61
20.99
18.06
13.72
8.19
1.99
-4.04
-9.04
-12.36
-13.80
-13.73
-12.87
-12.02
-11.66
-11.83
-12.12
-11.99
-11.02
-9.16
-6.61
-3.76
-0.98
1.38
3.03
3.68
3.18
1.61
-0.62
-2.84
-4.33
-4.56
-3.43
-1.29
1.11
2.89
3.28
1.83
-1.45
-6.14
-11.46
-16.51
-20.51
-23.04
-24.14
-24.29
-24.21
-24.62
-25.87
-27.95
-30.43
-32.79
-34.61
-35.72
-36.12
-35.81
-34.68
-32.64
-29.82
-26.72
-24.08
-22.52
-22.13
-22.27
-21.81
-19.66
-15.31
-9.02
-1.65
5.69
12.12
17.13
20.58
22.58
23.30
22.96
21.86
20.35
18.80
17.57
16.91
16.91
17.50
18.53
19.71
20.72
21.35
21.43
20.93
19.93
18.57
16.99
15.26
13.40
11.32
8.88
5.93
2.38
-1.79
-6.40
-11.22
-15.96
-20.28
-23.87
-26.30
-27.16
-26.14
-23.12
-18.29
-12.16
-5.39
1.39
7.73
13.49
18.73
23.58
28.01
31.86
34.87
36.85
37.77
37.84
37.41
36.80
36.24
35.76
35.31
34.76
34.02
32.97
31.59
29.89
27.97
25.89
23.72
21.37
18.63
15.40
11.66
7.66
3.74
0.21
-2.89
-5.74
-8.73
-12.22
-16.37
-21.06
-25.92
-30.42
-33.96
-35.98
-36.08
-34.12
-30.29
-24.98
-18.74
-12.11
-5.43
1.01
7.08
12.63
17.50
21.51
24.58
26.69
28.02
28.82
29.41
29.98
30.58
31.10
31.30
30.95
29.97
28.42
26.54
24.58
22.75
21.13
19.64
18.19
16.68
15.08
13.42
11.75
10.02
8.16
6.14
4.02
2.06
0.56
-0.30
-0.62
-0.85
-1.65
-3.48
-6.42
-10.03
-13.57
-16.24
-17.53
-17.31
-15.80
-13.37
-10.33
-6.87
-3.00
1.30
5.99
10.90
15.64
19.73
22.74
24.45
24.97
24.71
24.23
23.94
24.03
24.34
24.60
24.51
23.94
22.92
21.52
19.77
17.58
14.80
11.34
7.28
2.97
-1.19
-4.81
-7.63
-9.64
-10.97
-11.92
-12.80
-14.02
-15.98
-19.01
-23.15
-28.06
-33.00
-37.01
-39.19
-39.05
-36.64
-32.40
-26.97
-20.90
-14.51
-8.00
-1.50
4.80
10.64
15.73
19.86
22.97
25.13
26.55
27.49
28.24
28.99
29.84
30.69
31.29
31.26
30.28
28.25
25.34
22.01
18.73
15.81
13.29
10.99
8.66
6.14
3.38
0.42
-2.74
-6.09
-9.63
-13.28
-16.88
-20.29
-23.48
-26.59
-29.88
-33.57
-37.62
-41.68
-45.11
-47.12
-47.04
-44.46
-39.35
-32.11
-23.45
-14.21
-5.17
3.19
10.72
17.53
23.90
29.97
35.69
40.70
44.51
46.67
46.92
45.36
42.31
38.24
33.61
28.84
24.33
20.47
17.52
15.48
13.99
12.42
10.09
6.59
1.90
-3.63
-9.42
-14.97
-19.96
-24.30
-27.98
-31.04
-33.52
-35.52
-37.31
-39.24
-41.73
-45.00
-48.99
-53.27
-57.18
-59.98
-61.08
-60.08
-56.95
-51.89
-45.39
-38.04
-30.41
-22.91
-15.78
-9.07
-2.82
2.83
7.60
11.19
13.49
14.63
15.04
15.20
15.54
16.14
16.92
17.69
18.35
18.91
19.45
19.99
20.33
20.07
18.69
15.74
11.04
4.82
-2.30
-9.38
-15.41
-19.56
-21.43
-21.16
-19.37
-16.91
-14.65
-13.17
-12.74
-13.32
-14.67
-16.46
-18.33
-19.83
-20.51
-19.92
-17.77
-14.10
-9.24
-3.78
1.65
6.56
10.66
13.82
16.06
17.36
17.74
17.19
15.81
13.77
11.33
8.75
6.22
3.85
1.61
-0.57
-2.84
-5.31
-8.01
-10.86
-13.61
-15.96
-17.60
-18.41
-18.44
-17.95
-17.22
-16.48
-15.78
-15.05
-14.20
-13.20
-12.23
-11.60
-11.64
-12.51
-14.08
-15.88
-17.13
-17.04
-14.95
-10.57
-4.03
4.20
13.45
23.03
32.27
40.63
47.60
52.80
56.00
57.12
56.34
54.03
50.75
47.03
43.34
39.94
36.85
33.95
31.04
28.03
24.94
21.94
19.17
16.74
14.54
12.32
9.70
6.30
1.92
-3.43
-9.42
-15.54
-21.29
-26.34
-30.62
-34.32
-37.67
-40.79
-43.66
-46.21
-48.49
-50.68
-53.05
-55.66
-58.23
-60.01
-60.05
-57.63
-52.58
-45.45
-37.30
-29.20
-21.90
-15.57
-9.93
-4.57
0.74
5.85
10.39
13.96
16.38
17.75
18.44
18.83
19.15
19.46
19.63
19.48
18.96
18.23
17.58
17.37
17.75
18.54
19.26
19.31
18.27
16.05
13.02
9.70
6.56
3.74
1.06
-1.82
-5.16
-9.06
-13.47
-18.29
-23.46
-28.86
-34.14
-38.66
-41.56
-42.07
-39.86
-35.21
-28.91
-21.88
-14.83
-8.04
-1.46
5.09
11.66
18.09
24.11
29.42
33.78
37.12
39.44
40.85
41.53
41.69
41.54
41.24
40.83
40.23
39.36
38.15
36.58
34.70
32.52
29.98
26.98
23.40
19.20
14.36
9.07
3.60
-1.69
-6.48
-10.68
-14.48
-18.29
-22.58
-27.57
-33.05
-38.36
-42.56
-44.75
-44.41
-41.56
-36.68
-30.43
-23.42
-16.02
-8.32
-0.33
7.91
16.24
24.28
31.55
37.65
42.40
45.91
48.45
50.35
51.95
53.47
55.14
57.07
59.15
60.97
61.84
60.95
57.74
52.14
44.63
36.01
27.11
18.44
10.15
2.21
-5.42
-12.63
-19.23
-25.10
-30.31
-35.11
-39.87
-44.95
-50.65
-57.15
-64.46
-72.30
-80.08
-86.93
-91.78
-93.67
-92.10
-87.20
-79.70
-70.72
-61.35
-52.20
-43.33
-34.32
-24.65
-14.15
-3.17
7.43
16.67
23.77
28.36
30.54
30.75
29.70
28.21
27.15
27.17
28.54
31.07
34.13
36.94
38.94
39.89
39.86
39.00
37.36
34.89
31.54
27.40
22.77
17.95
13.18
8.42
3.42
-2.10
-8.33
-15.13
-21.91
-27.66
-31.13
-31.17
-27.16
-19.38
-9.02
2.00
11.68
18.48
21.69
21.49
18.67
14.31
9.45
4.90
1.25
-1.17
-2.30
-2.34
-1.76
-1.13
-0.97
-1.58
-2.93
-4.77
-6.76
-8.58
-10.04
-11.07
-11.68
-11.95
-12.07
-12.32
-13.07
-14.63
-17.15
-20.45
-24.08
-27.42
-29.90
-31.13
-31.01
-29.78
-27.97
-26.12
-24.49
-22.98
-21.02
-17.86
-12.79
-5.42
4.11
15.06
26.35
36.84
45.66
52.36
56.91
59.70
61.24
61.91
61.85
61.06
59.71
58.15
56.86
56.12
56.12
56.72
57.34
57.22
55.95
53.92
52.04
51.18
51.55
53.29
56.03
58.52
58.41
52.87
39.75
18.22
-10.60
-43.70
-75.44
-99.61
-111.98
-112.26
-103.45
-89.65
-74.44
-59.80
-46.19
-31.47
-12.51
13.17
46.38
86.92
134.45
187.47
242.56
284.13
295.61
270.01
216.89
155.29
101.66
63.93
41.49
29.34
21.81
16.97
16.04
19.99
27.29
34.63
38.96
38.25
32.49
23.06
13.30
6.60
4.26
2.50
-4.29
-16.06
-32.78
-53.34
-76.15
-98.71
-118.59
-134.63
-150.41
-169.15
-191.85
-218.43
-248.27
-280.93
-315.25
-349.09
-379.59
-407.54
-431.85
-449.04
-455.46
-448.72
-428.88
-397.90
-359.04
-292.53
-197.58
-89.65
9.77
86.32
136.76
163.94
172.64
168.25
156.61
139.34
119.36
100.43
85.55
76.36
72.80
73.87
78.39
85.06
89.92
91.49
89.78
86.31
84.39
87.76
99.45
121.17
152.50
190.00
230.33
270.77
301.63
314.07
304.38
275.70
234.99
188.10
138.92
91.11
48.08
12.34
-14.30
-33.58
-49.21
-65.50
-86.35
-112.20
-139.46
-162.47
-176.19
-177.65
-162.06
-131.47
-87.98
-41.25
-1.35
26.76
43.93
53.18
56.74
54.97
47.97
35.85
20.06
4.32
-7.63
-14.24
-16.80
-18.09
-19.74
-23.16
-28.57
-35.67
-43.53
-51.81
-61.41
-74.03
-90.62
-110.14
-129.98
-146.38
-156.05
-156.79
-148.20
-131.70
-109.82
-85.24
-59.98
-35.68
-13.48
5.73
21.53
33.87
42.96
49.14
52.82
54.53
54.72
53.84
52.28
50.34
48.21
45.98
43.71
41.51
39.50
37.72
36.02
34.17
31.90
29.05
25.60
21.63
17.27
12.69
8.08
3.61
-0.54
-4.29
-7.72
-11.03
-14.50
-18.34
-22.51
-26.71
-30.33
-32.59
-32.81
-30.72
-26.54
-20.98
-14.90
-9.04
-3.72
1.07
5.58
9.94
14.05
17.62
20.34
22.06
22.79
22.76
22.23
21.41
20.44
19.39
18.30
17.22
16.27
15.51
14.96
14.53
14.01
13.20
12.00
10.43
8.64
6.73
4.71
2.51
0.06
-2.69
-5.64
-8.65
-11.66
-14.68
-17.77
-20.81
-23.41
-24.94
-24.72
-22.38
-18.02
-12.18
-5.67
0.82
6.86
12.33
17.27
21.67
25.35
28.10
29.73
30.23
29.81
28.78
27.40
25.88
24.35
22.85
21.44
20.13
18.96
17.91
16.96
16.03
14.97
13.54
11.50
8.72
5.25
1.36
-2.53
-6.06
-9.07
-11.64
-14.09
-16.76
-19.90
-23.58
-27.61
-31.54
-34.75
-36.56
-36.38
-33.98
-29.54
-23.63
-16.92
-10.03
-3.20
3.56
10.35
17.10
23.44
28.85
32.90
35.49
36.92
37.76
38.56
39.56
40.63
41.42
41.59
40.99
39.82
38.45
37.32
36.62
36.29
36.06
35.67
34.96
34.05
33.19
32.58
32.27
32.11
31.79
31.05
29.77
27.99
25.88
23.57
21.18
18.92
17.14
16.31
16.97
19.38
23.44
28.61
34.04
38.81
42.14
43.57
42.97
40.45
36.17
30.32
23.09
14.77
5.88
-2.91
-10.91
-17.61
-22.82
-26.79
-29.94
-32.64
-35.02
-36.86
-37.81
-37.59
-36.13
-33.69
-30.70
-27.70
-25.18
-23.62
-23.45
-25.05
-28.76
-34.54
-41.89
-49.70
-56.43
-60.63
-61.39
-58.63
-53.04
-45.61
-37.16
-28.15
-18.76
-9.25
-0.19
7.59
13.38
16.99
18.93
20.15
21.59
23.78
26.61
29.55
31.95
33.28
33.30
32.07
29.82
26.87
23.56
20.11
16.68
13.41
10.38
7.75
5.65
4.11
2.97
1.88
0.49
-1.38
-3.58
-5.69
-7.16
-7.61
-7.06
-5.83
-4.43
-3.35
-2.92
-3.34
-4.64
-6.80
-9.61
-12.57
-14.94
-15.91
-14.92
-11.87
-7.27
-1.96
3.21
7.69
11.40
14.63
17.72
20.83
23.78
26.27
27.95
28.75
28.84
28.55
28.18
27.86
27.51
26.97
26.14
25.06
23.87
22.75
21.71
20.63
19.30
17.47
15.01
11.95
8.51
5.02
1.80
-0.96
-3.25
-5.28
-7.37
-9.81
-12.79
-16.38
-20.52
-25.07
-29.78
-34.16
-37.54
-39.15
-38.39
-35.05
-29.49
-22.50
-15.07
-8.02
-1.85
3.35
7.67
11.29
14.29
16.66
18.35
19.35
19.77
19.78
19.65
19.53
19.43
19.18
18.57
17.42
15.77
13.83
11.92
10.24
8.86
7.62
6.32
4.87
3.35
1.92
0.74
-0.18
-0.99
-1.92
-3.13
-4.71
-6.62
-8.83
-11.39
-14.29
-17.51
-20.77
-23.62
-25.52
-25.96
-24.64
-21.54
-16.97
-11.42
-5.52
0.19
5.26
9.47
12.78
15.23
16.85
17.69
17.71
16.94
15.56
13.85
12.10
10.50
9.03
7.48
5.59
3.10
-0.11
-3.99
-8.34
-12.83
-17.15
-21.09
-24.60
-27.77
-30.73
-33.56
-36.25
-38.75
-41.08
-43.41
-46.00
-49.05
-52.56
-56.25
-59.72
-62.66
-64.97
-66.66
-67.76
-68.18
-67.57
-65.56
-61.86
-56.43
-49.47
-41.49
-33.12
-25.05
-17.83
-11.75
-6.74
-2.40
1.72
5.93
10.20
14.28
17.88
20.89
23.52
26.07
28.72
31.32
33.45
34.72
34.94
34.26
33.11
31.99
31.21
30.86
30.72
30.47
29.76
28.43
26.45
24.04
21.45
18.89
16.46
14.13
11.80
9.46
7.10
4.77
2.42
0.01
-2.52
-5.01
-7.05
-8.03
-7.36
-4.69
-0.10
5.87
12.46
18.84
24.40
28.78
31.90
33.82
34.71
34.78
34.27
33.45
32.55
31.70
30.99
30.39
29.92
29.55
29.26
28.94
28.38
27.30
25.54
23.11
20.25
17.33
14.72
12.59
10.91
9.52
8.20
6.76
5.05
2.96
0.42
-2.59
-5.98
-9.62
-13.30
-16.83
-20.03
-22.74
-24.84
-26.12
-26.38
-25.45
-23.26
-19.97
-15.84
-11.31
-6.75
-2.45
1.56
5.36
9.14
13.01
16.97
20.83
24.32
27.17
29.24
30.59
31.46
32.19
32.99
33.88
34.65
34.96
34.51
33.21
31.17
28.61
25.70
22.42
18.64
14.17
8.96
3.13
-3.15
-9.71
-16.49
-23.52
-30.77
-38.16
-45.42
-52.21
-58.20
-63.19
-67.12
-70.00
-71.85
-72.60
-72.10
-70.22
-66.87
-62.09
-56.06
-49.15
-41.87
-34.77
-28.34
-22.83
-18.23
-14.31
-10.80
-7.57
-4.64
-2.20
-0.39
0.79
1.54
2.08
2.57
2.93
3.01
2.64
1.82
0.72
-0.44
-1.55
-2.64
-3.95
-5.75
-8.22
-11.31
-14.75
-18.05
-20.65
-22.06
-21.99
-20.40
-17.54
-13.85
-9.82
-5.96
-2.61
-0.07
1.38
1.53
0.27
-2.21
-5.28
-7.95
-9.07
-7.78
-3.84
2.31
9.62
17.00
23.61
29.15
33.75
37.72
41.25
44.29
46.60
47.99
48.46
48.35
48.17
48.44
49.46
51.16
53.12
54.71
55.34
54.69
52.94
50.62
48.44
46.93
46.15
45.67
44.77
42.81
39.62
35.48
30.99
26.69
22.70
18.75
14.47
9.71
4.52
-1.01
-7.09
-14.23
-22.84
-32.58
-42.07
-49.10
-51.66
-49.03
-42.26
-33.72
-25.84
-19.81
-15.18
-10.43
-4.20
3.61
11.78
18.50
22.48
23.75
23.57
23.70
25.46
29.12
33.97
38.83
42.57
44.54
44.60
42.99
40.02
35.90
30.67
24.30
16.90
8.86
0.80
-6.62
-13.05
-18.70
-24.31
-30.76
-38.68
-48.10
-58.45
-68.98
-79.21
-89.15
-99.19
-109.70
-120.59
-131.05
-139.74
-145.10
-145.93
-141.75
-133.02
-120.98
-107.28
-93.49
-80.64
-69.05
-58.49
-48.50
-38.78
-29.44
-20.94
-13.79
-8.24
-4.08
-0.82
2.08
4.87
7.44
9.46
10.62
10.92
10.70
10.42
10.44
10.80
11.22
11.27
10.58
9.09
7.03
4.84
3.02
1.91
1.59
1.83
2.20
2.20
1.49
-0.10
-2.50
-5.50
-8.81
-12.09
-14.90
-16.82
-17.42
-16.42
-13.82
-9.89
-5.03
0.31
5.75
11.01
15.89
20.22
23.80
26.47
28.09
28.68
28.41
27.66
26.94
26.86
27.94
30.49
34.49
39.49
44.77
49.60
53.47
56.28
58.26
59.70
60.74
61.18
60.62
58.78
55.76
52.09
48.48
45.46
43.18
41.29
39.18
36.25
32.14
26.85
20.77
14.56
8.88
4.25
0.90
-1.19
-2.12
-1.93
-0.57
1.90
5.27
9.04
12.63
15.65
18.01
19.85
21.20
21.71
20.76
17.79
12.72
6.08
-1.13
-7.97
-13.84
-18.55
-22.13
-24.67
-26.15
-26.40
-25.22
-22.45
-18.13
-12.55
-6.33
-0.41
4.15
6.45
6.04
3.02
-2.02
-8.30
-15.06
-21.53
-26.85
-29.94
-29.77
-25.85
-18.71
-10.15
-2.78
0.89
-0.57
-6.95
-16.62
-27.35
-37.40
-46.18
-54.24
-62.52
-71.59
-81.07
-89.67
-95.80
-98.16
-96.16
-90.00
-80.51
-68.90
-56.37
-43.89
-31.90
-20.29
-8.52
3.87
16.88
29.69
40.80
48.58
51.92
50.64
45.52
37.85
28.87
19.22
9.03
-1.78
-13.02
-23.82
-32.74
-38.11
-38.66
-34.05
-24.86
-12.34
2.01
16.73
30.41
41.65
49.24
52.47
51.60
47.96
43.65
40.96
41.59
46.19
54.22
64.36
74.88
83.99
90.02
91.58
87.82
78.79
65.57
50.11
34.79
21.71
12.15
6.16
2.72
0.15
-3.27
-8.59
-15.86
-24.20
-32.32
-39.17
-44.31
-48.01
-50.92
-53.79
-57.02
-60.71
-64.80
-69.16
-73.70
-78.18
-82.22
-85.28
-86.90
-86.84
-85.21
-82.40
-78.80
-74.63
-69.88
-64.46
-58.40
-51.89
-45.22
-38.63
-32.21
-25.87
-19.43
-12.80
-6.08
0.48
6.52
11.69
15.83
18.93
21.13
22.68
23.87
25.02
26.38
28.13
30.26
32.60
34.81
36.51
37.43
37.61
37.43
37.48
38.38
40.41
43.32
46.47
48.98
50.05
49.23
46.45
42.01
36.37
30.09
23.66
17.42
11.48
5.78
0.23
-4.99
-9.37
-12.00
-12.04
-9.09
-3.45
3.92
11.77
19.08
25.38
30.74
35.48
39.78
43.46
46.07
47.16
46.49
44.19
40.68
36.45
32.01
27.80
24.23
21.74
20.65
21.09
22.90
25.70
28.98
32.25
35.10
37.26
38.45
38.49
37.29
34.93
31.74
28.23
24.89
22.01
19.63
17.53
15.34
12.63
8.94
3.76
-3.41
-12.82
-24.27
-36.81
-48.81
-58.24
-63.34
-63.20
-58.12
-49.42
-39.02
-28.70
-19.65
-12.31
-6.55
-2.02
1.62
4.59
7.10
9.40
11.83
14.66
17.94
21.50
24.96
28.02
30.59
32.88
35.28
38.14
41.58
45.40
49.18
52.48
55.00
56.74
57.82
58.40
58.50
57.93
56.32
53.28
48.60
42.39
35.19
27.86
21.38
16.47
13.33
11.44
9.72
6.85
1.81
-5.75
-15.39
-26.08
-36.46
-45.24
-51.46
-54.64
-54.78
-52.29
-47.76
-41.77
-34.69
-26.73
-18.12
-9.31
-1.07
5.68
10.33
12.82
13.63
13.47
12.80
11.58
9.38
5.87
1.17
-4.00
-8.57
-11.69
-13.07
-13.09
-12.55
-12.26
-12.74
-14.08
-16.15
-18.79
-22.02
-26.03
-31.01
-36.94
-43.42
-49.75
-55.13
-58.96
-60.98
-61.37
-60.49
-58.73
-56.38
-53.50
-50.07
-46.08
-41.61
-36.88
-32.17
-27.69
-23.53
-19.57
-15.60
-11.36
-6.82
-2.13
2.33
6.18
9.19
11.39
13.02
14.37
15.64
16.85
17.87
18.53
18.75
18.58
18.21
17.81
17.47
17.14
16.71
16.07
15.25
14.36
13.53
12.81
12.11
11.18
9.81
7.90
5.49
2.74
-0.16
-3.08
-6.03
-9.05
-12.19
-15.36
-18.35
-20.79
-22.25
-22.40
-21.07
-18.37
-14.60
-10.25
-5.75
-1.42
2.60
6.25
9.49
12.20
14.25
15.52
16.02
15.96
15.64
15.43
15.57
16.16
17.12
18.26
19.31
20.08
20.45
20.38
19.85
18.87
17.38
15.34
12.81
9.93
6.98
4.26
2.00
0.25
-1.09
-2.18
-3.22
-4.36
-5.69
-7.32
-9.29
-11.57
-13.96
-16.13
-17.69
-18.37
-18.07
-16.84
-14.82
-12.10
-8.74
-4.83
-0.54
3.79
7.80
11.11
13.55
15.15
16.09
16.57
16.76
16.77
16.63
16.33
15.81
15.03
13.92
12.51
10.87
9.14
7.46
5.91
4.45
2.96
1.27
-0.77
-3.20
-5.88
-8.53
-10.82
-12.49
-13.48
-13.89
-13.98
-14.04
-14.27
-14.82
-15.73
-16.96
-18.35
-19.62
-20.36
-20.19
-18.92
-16.61
-13.58
-10.20
-6.72
-3.25
0.28
3.85
7.29
10.29
12.48
13.70
14.02
13.80
13.45
13.32
13.52
13.96
14.43
14.74
14.78
14.57
14.15
13.58
12.85
11.90
10.71
9.28
7.67
5.93
4.08
2.13
0.07
-2.06
-4.24
-6.40
-8.55
-10.79
-13.25
-16.07
-19.30
-22.83
-26.38
-29.59
-32.05
-33.45
-33.66
-32.68
-30.67
-27.80
-24.19
-19.97
-15.29
-10.39
-5.66
-1.51
1.80
4.21
5.90
7.20
8.37
9.53
10.63
11.58
12.25
12.64
12.78
12.73
12.49
12.07
11.54
11.02
10.61
10.33
10.09
9.69
8.98
7.87
6.41
4.74
3.02
1.37
-0.20
-1.72
-3.30
-5.09
-7.25
-9.83
-12.74
-15.69
-18.20
-19.80
-20.13
-19.12
-16.93
-13.86
-10.22
-6.21
-1.95
2.45
6.80
10.82
14.17
16.67
18.27
19.14
19.53
19.66
19.62
19.40
18.96
18.27
17.41
16.49
15.65
14.93
14.32
13.70
12.92
11.84
10.37
8.52
6.35
4.01
1.59
-0.83
-3.26
-5.71
-8.22
-10.81
-13.53
-16.45
-19.65
-23.14
-26.73
-30.07
-32.72
-34.22
-34.35
-33.05
-30.50
-26.99
-22.82
-18.23
-13.40
-8.48
-3.56
1.26
5.84
10.06
13.72
16.65
18.76
20.03
20.54
20.45
19.91
19.08
18.04
16.92
15.82
14.83
14.04
13.40
12.78
11.92
10.59
8.60
5.96
2.85
-0.48
-3.70
-6.59
-9.05
-11.12
-12.99
-14.93
-17.28
-20.31
-24.17
-28.78
-33.86
-38.90
-43.31
-46.48
-47.95
-47.38
-44.71
-40.12
-34.10
-27.39
-20.77
-14.91
-10.14
-6.39
-3.33
-0.52
2.28
5.17
8.04
10.78
13.37
15.81
18.14
20.31
22.30
24.16
26.02
28.02
30.19
32.25
33.75
34.14
33.05
30.46
26.66
22.09
17.19
12.28
7.59
3.30
-0.41
-3.46
-5.88
-7.88
-9.72
-11.63
-13.65
-15.63
-17.28
-18.28
-18.33
-17.31
-15.20
-12.14
-8.36
-4.13
0.29
4.73
9.03
13.09
16.78
19.93
22.39
24.08
25.05
25.43
25.42
25.18
24.83
24.42
23.96
23.43
22.80
22.04
21.12
20.06
18.90
17.67
16.35
14.83
12.93
10.52
7.54
4.16
0.73
-2.33
-4.69
-6.24
-7.13
-7.69
-8.35
-9.53
-11.46
-14.20
-17.60
-21.30
-24.76
-27.40
-28.69
-28.37
-26.42
-23.12
-18.94
-14.35
-9.75
-5.44
-1.58
1.80
4.73
7.32
9.69
11.87
13.75
15.18
15.96
16.03
15.51
14.60
13.55
12.55
11.70
11.04
10.54
10.13
9.70
9.09
8.14
6.69
4.73
2.31
-0.37
-3.10
-5.64
-7.87
-9.76
-11.46
-13.22
-15.28
-17.81
-20.79
-24.11
-27.54
-30.86
-33.77
-35.95
-37.02
-36.67
-34.76
-31.38
-26.88
-21.76
-16.50
-11.45
-6.80
-2.62
1.13
4.48
7.46
10.07
12.21
13.79
14.73
15.10
15.07
14.90
14.78
14.71
14.56
14.17
13.47
12.56
11.63
10.80
10.03
9.09
7.72
5.76
3.30
0.59
-2.03
-4.32
-6.22
-7.79
-9.16
-10.44
-11.74
-13.14
-14.68
-16.33
-17.84
-18.85
-18.96
-17.91
-15.72
-12.66
-9.12
-5.38
-1.56
2.33
6.21
9.92
13.16
15.72
17.55
18.78
19.64
20.32
20.90
21.41
21.82
22.12
22.23
22.06
21.49
20.50
19.19
17.77
16.45
15.31
14.25
13.03
11.48
9.51
7.14
4.51
1.75
-1.11
-4.02
-7.00
-10.06
-13.22
-16.50
-19.96
-23.66
-27.50
-31.27
-34.48
-36.59
-37.09
-35.73
-32.63
-28.21
-23.07
-17.68
-12.35
-7.13
-2.05
2.81
7.18
10.78
13.41
15.11
16.12
16.79
17.35
17.84
18.16
18.16
17.83
17.28
16.74
16.37
16.20
16.05
15.63
14.68
13.12
11.13
8.98
6.90
4.98
3.07
0.95
-1.52
-4.28
-7.12
-9.81
-12.26
-14.61
-17.14
-20.13
-23.65
-27.49
-31.18
-34.19
-36.06
-36.55
-35.59
-33.31
-29.88
-25.55
-20.53
-15.06
-9.40
-3.86
1.26
5.67
9.17
11.67
13.21
13.94
14.14
14.14
14.23
14.55
15.04
15.46
15.58
15.26
14.50
13.48
12.34
11.18
9.97
8.64
7.15
5.57
4.01
2.54
1.17
-0.23
-1.85
-3.83
-6.21
-8.88
-11.64
-14.26
-16.57
-18.59
-20.44
-22.33
-24.33
-26.29
-27.85
-28.47
-27.76
-25.55
-22.03
-17.61
-12.73
-7.75
-2.84
1.92
6.44
10.56
14.02
16.60
18.20
18.95
19.13
19.12
19.22
19.54
19.99
20.37
20.47
20.20
19.63
18.89
18.06
17.14
16.05
14.74
13.18
11.42
9.48
7.35
5.02
2.50
-0.15
-2.82
-5.43
-7.99
-10.60
-13.43
-16.65
-20.24
-23.98
-27.44
-30.02
-31.14
-30.43
-27.80
-23.49
-18.05
-12.09
-6.20
-0.79
3.93
7.95
11.38
14.30
16.79
18.85
20.45
21.54
22.11
22.25
22.08
21.79
21.46
21.11
20.62
19.85
18.72
17.27
15.67
14.06
12.52
10.95
9.15
6.96
4.36
1.55
-1.15
-3.54
-5.61
-7.61
-9.90
-12.72
-16.09
-19.78
-23.48
-26.93
-29.97
-32.56
-34.59
-35.78
-35.78
-34.27
-31.15
-26.64
-21.24
-15.52
-9.95
-4.71
0.19
4.80
9.11
12.94
16.08
18.37
19.81
20.55
20.76
20.55
19.99
19.14
18.10
17.10
16.35
15.96
15.83
15.74
15.39
14.60
13.30
11.56
9.47
7.15
4.67
2.07
-0.58
-3.20
-5.76
-8.23
-10.64
-13.00
-15.32
-17.57
-19.78
-22.06
-24.58
-27.44
-30.50
-33.31
-35.21
-35.57
-34.02
-30.66
-26.03
-20.83
-15.67
-10.84
-6.32
-2.02
2.12
5.93
9.17
11.60
13.18
14.06
14.47
14.67
14.78
14.90
15.02
15.18
15.41
15.75
16.20
16.72
17.22
17.56
17.60
17.14
16.02
14.11
11.46
8.30
4.99
1.95
-0.55
-2.45
-3.95
-5.34
-6.98
-9.17
-12.11
-15.82
-20.04
-24.26
-27.64
-29.35
-28.74
-25.65
-20.55
-14.28
-7.84
-1.93
3.10
7.27
10.74
13.69
16.18
18.20
19.76
20.92
21.78
22.43
22.89
23.08
22.85
22.10
20.80
19.13
17.42
16.03
15.20
14.91
14.83
14.47
13.41
11.52
8.94
6.02
3.10
0.28
-2.52
-5.51
-8.76
-12.21
-15.64
-18.87
-21.89
-24.92
-28.16
-31.64
-34.99
-37.60
-38.75
-37.99
-35.25
-30.87
-25.46
-19.65
-13.91
-8.45
-3.28
1.69
6.55
11.19
15.41
18.82
21.14
22.33
22.62
22.52
22.50
22.84
23.49
24.12
24.41
24.13
23.28
21.97
20.32
18.37
16.11
13.59
10.95
8.37
6.04
4.03
2.26
0.57
-1.26
-3.39
-5.89
-8.73
-11.76
-14.86
-17.91
-20.99
-24.15
-27.43
-30.60
-33.23
-34.76
-34.70
-32.87
-29.48
-25.04
-20.15
-15.29
-10.69
-6.37
-2.28
1.62
5.21
8.30
10.72
12.37
13.27
13.60
13.59
13.51
13.54
13.78
14.23
14.80
15.35
15.74
15.90
15.80
15.48
14.98
14.30
13.36
12.08
10.34
8.13
5.59
2.89
0.22
-2.24
-4.47
-6.54
-8.64
-11.04
-14.01
-17.66
-21.82
-25.96
-29.25
-30.85
-30.18
-27.19
-22.35
-16.40
-10.16
-4.18
1.23
5.96
9.96
13.21
15.71
17.60
19.08
20.34
21.46
22.35
22.86
22.89
22.51
21.93
21.41
21.07
20.88
20.69
20.31
19.66
18.71
17.50
15.98
14.07
11.64
8.64
5.23
1.71
-1.58
-4.38
-6.75
-8.91
-11.30
-14.26
-17.93
-22.18
-26.66
-30.95
-34.64
-37.40
-38.95
-39.07
-37.57
-34.40
-29.70
-23.82
-17.25
-10.54
-4.10
1.83
7.17
11.94
16.15
19.76
22.70
24.87
26.23
26.79
26.68
26.05
25.14
24.22
23.50
23.09
22.93
22.82
22.48
21.68
20.33
18.52
16.45
14.29
12.12
9.91
7.54
4.88
1.88
-1.42
-4.89
-8.41
-11.82
-15.05
-18.08
-20.98
-23.92
-27.09
-30.58
-34.31
-37.91
-40.83
-42.46
-42.35
-40.39
-36.78
-31.94
-26.36
-20.47
-14.60
-8.96
-3.77
0.82
4.70
7.85
10.38
12.39
13.95
15.08
15.78
16.05
15.99
15.71
15.33
14.93
14.55
14.24
14.06
14.04
14.13
14.17
13.88
13.06
11.61
9.65
7.42
5.19
3.16
1.31
-0.47
-2.35
-4.48
-6.96
-9.83
-13.07
-16.56
-20.04
-23.05
-25.02
-25.38
-23.81
-20.31
-15.27
-9.40
-3.45
1.96
6.55
10.33
13.49
16.21
18.60
20.56
21.95
22.69
22.85
22.66
22.41
22.33
22.50
22.79
22.99
22.86
22.30
21.40
20.30
19.16
18.00
16.68
15.01
12.81
10.07
6.92
3.61
0.38
-2.66
-5.54
-8.42
-11.55
-15.14
-19.31
-24.05
-29.16
-34.33
-39.11
-42.97
-45.38
-45.85
-44.06
-39.97
-33.93
-26.60
-18.81
-11.32
-4.64
1.08
5.93
10.15
13.88
17.13
19.81
21.80
23.09
23.75
23.94
23.83
23.58
23.32
23.04
22.71
22.27
21.62
20.73
19.61
18.26
16.67
14.78
12.54
9.92
6.98
3.84
0.66
-2.47
-5.51
-8.55
-11.67
-14.91
-18.29
-21.78
-25.40
-29.22
-33.27
-37.44
-41.44
-44.79
-46.86
-47.14
-45.36
-41.56
-36.14
-29.68
-22.77
-15.88
-9.33
-3.30
2.09
6.72
10.45
13.20
14.98
15.94
16.32
16.40
16.44
16.55
16.74
16.95
17.06
17.05
16.92
16.69
16.36
15.87
15.06
13.80
11.97
9.61
6.85
3.90
1.02
-1.58
-3.78
-5.60
-7.18
-8.81
-10.76
-13.18
-16.03
-19.00
-21.63
-23.43
-24.01
-23.13
-20.75
-16.94
-11.93
-6.08
0.17
6.31
11.92
16.70
20.58
23.60
25.91
27.57
28.63
29.04
28.79
27.96
26.71
25.25
23.80
22.56
21.60
20.87
20.23
19.43
18.28
16.68
14.67
12.39
10.00
7.53
4.88
1.89
-1.56
-5.44
-9.62
-13.91
-18.22
-22.58
-27.05
-31.65
-36.11
-39.99
-42.68
-43.67
-42.73
-39.96
-35.76
-30.60
-24.89
-18.88
-12.65
-6.22
0.33
6.81
12.91
18.24
22.45
25.37
27.03
27.70
27.75
27.56
27.36
27.14
26.76
26.06
25.01
23.71
22.40
21.22
20.11
18.87
17.22
14.97
12.14
8.91
5.59
2.38
-0.61
-3.46
-6.29
-9.27
-12.55
-16.22
-20.36
-24.96
-29.86
-34.68
-38.90
-41.86
-43.02
-42.07
-39.05
-34.33
-28.44
-21.90
-15.13
-8.40
-1.84
4.37
10.05
14.95
18.85
21.60
23.18
23.68
23.31
22.34
21.03
19.67
18.52
17.70
17.28
17.17
17.23
17.26
17.06
16.40
15.12
13.12
10.41
7.16
3.62
0.08
-3.23
-6.15
-8.68
-10.89
-12.93
-14.95
-17.10
-19.48
-22.15
-25.07
-28.08
-30.89
-33.02
-33.97
-33.32
-30.87
-26.70
-21.19
-14.82
-8.08
-1.31
5.22
11.29
16.59
20.82
23.74
25.37
25.95
25.94
25.75
25.62
25.60
25.49
25.10
24.33
23.26
22.05
20.87
19.75
18.58
17.15
15.28
12.90
10.11
7.12
4.11
1.21
-1.61
-4.44
-7.39
-10.55
-13.91
-17.43
-21.08
-24.83
-28.56
-31.97
-34.61
-35.91
-35.43
-33.01
-28.90
-23.62
-17.77
-11.79
-5.88
-0.06
5.70
11.28
16.41
20.73
23.92
25.88
26.73
26.80
26.54
26.30
26.25
26.32
26.24
25.74
24.67
23.11
21.31
19.58
18.07
16.75
15.37
13.65
11.37
8.54
5.29
1.84
-1.61
-4.96
-8.16
-11.20
-14.11
-16.97
-19.93
-23.24
-27.11
-31.58
-36.30
-40.61
-43.65
-44.64
-43.16
-39.30
-33.62
-26.91
-19.88
-13.01
-6.49
-0.29
5.60
11.09
15.96
19.95
22.92
24.92
26.10
26.69
26.84
26.64
26.12
25.33
24.38
23.39
22.41
21.37
20.16
18.70
16.95
15.01
12.99
10.96
8.85
6.48
3.66
0.37
-3.21
-6.72
-9.77
-12.17
-14.00
-15.61
-17.43
-19.79
-22.79
-26.33
-30.15
-33.91
-37.20
-39.54
-40.45
-39.54
-36.72
-32.21
-26.53
-20.26
-13.86
-7.61
-1.65
3.93
9.00
13.39
16.91
19.46
21.03
21.71
21.73
21.41
21.13
21.22
21.81
22.80
23.87
24.62
24.74
24.18
23.07
21.59
19.88
17.93
15.64
12.91
9.76
6.40
3.07
0.00
-2.68
-5.01
-7.23
-9.63
-12.44
-15.80
-19.60
-23.53
-27.13
-29.91
-31.43
-31.43
-29.83
-26.72
-22.37
-17.08
-11.26
-5.29
0.51
5.92
10.80
15.09
18.74
21.74
24.05
25.69
26.67
27.06
26.94
26.41
25.56
24.51
23.31
22.06
20.83
19.70
18.71
17.83
16.95
15.91
14.52
12.63
10.19
7.27
4.05
0.68
-2.70
-6.06
-9.42
-12.80
-16.21
-19.60
-22.98
-26.40
-29.95
-33.76
-37.75
-41.60
-44.67
-46.13
-45.32
-41.95
-36.34
-29.26
-21.67
-14.32
-7.59
-1.44
4.32
9.84
14.98
19.40
22.74
24.80
25.70
25.85
25.73
25.70
25.88
26.08
26.02
25.45
24.29
22.66
20.81
18.97
17.31
15.77
14.17
12.28
9.94
7.12
3.95
0.61
-2.73
-5.95
-9.06
-12.03
-14.86
-17.53
-20.06
-22.56
-25.21
-28.23
-31.69
-35.40
-38.87
-41.42
-42.40
-41.38
-38.27
-33.40
-27.32
-20.68
-14.08
-7.93
-2.45
2.30
6.30
9.54
12.04
13.79
14.93
15.63
16.14
16.67
17.37
18.18
18.90
19.33
19.31
18.86
18.17
17.46
16.83
16.27
15.58
14.62
13.29
11.62
9.69
7.58
5.39
3.15
0.90
-1.35
-3.63
-6.09
-8.97
-12.47
-16.62
-21.16
-25.55
-29.11
-31.19
-31.38
-29.59
-26.02
-21.10
-15.31
-9.12
-2.95
2.87
8.07
12.42
15.80
18.21
19.81
20.80
21.42
21.77
21.89
21.81
21.55
21.20
20.87
20.59
20.31
19.83
18.98
17.65
15.88
13.81
11.58
9.25
6.81
4.22
1.41
-1.55
-4.54
-7.39
-10.01
-12.44
-14.83
-17.45
-20.51
-24.15
-28.33
-32.84
-37.28
-41.11
-43.75
-44.67
-43.54
-40.32
-35.27
-28.87
-21.71
-14.33
-7.11
-0.32
5.86
11.33
16.06
20.00
23.18
25.64
27.38
28.42
28.81
28.65
28.10
27.36
26.59
25.90
25.25
24.56
23.70
22.56
21.10
19.35
17.36
15.17
12.78
10.14
7.21
3.99
0.60
-2.80
-6.08
-9.21
-12.30
-15.54
-19.11
-23.08
-27.37
-31.76
-35.98
-39.73
-42.72
-44.59
-45.02
-43.74
-40.66
-35.96
-30.08
-23.62
-17.17
-11.15
-5.79
-1.22
2.40
4.87
5.97
5.67
4.24
2.27
0.49
-0.57
-0.73
-0.23
0.45
0.88
0.92
0.74
0.69
1.07
1.94
3.13
4.26
4.95
4.82
3.61
1.20
-2.34
-6.72
-11.46
-15.91
-19.53
-22.08
-23.67
-24.73
-25.73
-26.96
-28.40
-29.74
-30.50
-30.20
-28.51
-25.30
-20.62
-14.72
-7.91
-0.60
6.73
13.58
19.48
24.09
27.22
28.89
29.32
28.85
27.91
26.92
26.22
26.03
26.44
27.36
28.56
29.75
30.66
31.19
31.44
31.73
32.47
33.93
36.11
38.58
40.60
41.22
39.72
35.76
29.64
22.17
14.52
7.78
2.76
-0.27
-1.52
-1.62
-1.33
-1.27
-1.72
-2.53
-3.24
-3.30
-2.33
-0.23
2.83
6.48
10.26
13.58
15.70
15.92
13.82
9.49
3.65
-2.70
-8.73
-14.20
-19.57
-25.56
-32.63
-40.46
-47.89
-53.36
-55.56
-54.10
-49.67
-43.71
-37.66
-32.25
-27.25
-21.83
-15.30
-7.90
-1.07
3.11
2.80
-2.58
-11.99
-23.14
-33.42
-40.80
-44.41
-44.36
-41.30
-35.87
-28.54
-19.75
-10.08
-0.46
8.02
14.47
18.52
20.58
21.54
22.39
23.70
25.39
26.84
27.32
26.48
24.60
22.44
20.84
20.30
20.77
21.75
22.62
23.07
23.18
23.35
23.84
24.57
24.96
24.27
22.00
18.17
13.49
9.07
6.00
4.97
6.01
8.42
11.01
12.51
11.97
9.08
4.25
-1.54
-7.23
-11.91
-15.10
-16.67
-16.62
-14.97
-11.79
-7.28
-1.95
3.65
9.22
15.00
21.76
30.45
41.60
54.97
69.54
83.91
96.78
107.28
115.05
119.99
122.07
121.22
117.39
110.73
101.65
90.83
79.00
66.83
54.80
43.09
31.66
20.36
9.05
-2.26
-13.36
-23.94
-33.83
-43.02
-51.78
-60.44
-69.22
-78.17
-87.26
-96.48
-105.77
-114.86
-122.94
-128.71
-130.69
-127.85
-120.18
-108.90
-96.08
-83.95
-74.07
-67.01
-62.31
-58.94
-55.71
-51.65
-46.28
-39.64
-32.20
-24.57
-17.18
-10.20
-3.53
2.93
9.09
14.63
19.20
22.74
25.46
27.75
29.85
31.66
32.77
32.68
31.13
28.16
24.13
19.50
14.72
10.14
6.01
2.40
-0.78
-3.77
-6.83
-10.08
-13.40
-16.45
-18.85
-20.23
-20.36
-19.15
-16.61
-12.93
-8.43
-3.60
1.07
5.21
8.64
11.34
13.41
14.95
16.04
16.80
17.40
18.13
19.26
20.96
23.21
25.78
28.37
30.70
32.65
34.23
35.55
36.73
37.73
38.39
38.44
37.57
35.56
32.26
27.67
21.87
15.07
7.62
-0.07
-7.50
-14.24
-19.98
-24.55
-27.86
-29.85
-30.44
-29.60
-27.34
-23.77
-19.09
-13.59
-7.59
-1.46
4.38
9.50
13.50
16.21
17.65
18.07
17.82
17.19
16.32
15.15
13.47
11.06
7.63
3.02
-2.81
-9.61
-16.71
-22.94
-26.93
-27.48
-24.07
-17.22
-8.26
0.99
8.91
14.49
17.47
18.10
16.86
14.23
10.62
6.45
2.15
-1.99
-6.10
-10.83
-17.12
-25.78
-36.95
-49.90
-63.09
-74.46
-81.93
-83.72
-78.74
-66.85
-49.13
-27.82
-5.96
13.37
27.90
36.73
40.49
40.79
39.43
37.73
36.27
35.00
33.65
31.99
29.97
27.59
24.79
21.43
17.43
13.04
8.88
5.87
4.93
6.59
10.60
15.98
21.24
24.94
26.13
24.60
20.83
15.69
9.99
4.32
-1.10
-6.24
-11.12
-15.76
-20.12
-24.08
-27.45
-30.00
-31.41
-31.42
-29.95
-27.22
-23.68
-19.93
-16.40
-13.33
-10.75
-8.59
-6.82
-5.52
-4.76
-4.48
-4.43
-4.18
-3.32
-1.65
0.73
3.45
6.03
8.03
9.24
9.68
9.52
8.93
8.00
6.71
4.95
2.67
-0.06
-2.99
-5.77
-8.11
-9.94
-11.43
-12.98
-15.01
-17.80
-21.44
-25.81
-30.63
-35.59
-40.30
-44.32
-47.13
-48.23
-47.25
-44.07
-38.89
-32.15
-24.30
-15.77
-6.92
1.84
9.95
16.73
21.64
24.50
25.65
25.84
25.91
26.47
27.71
29.54
31.74
34.16
36.81
39.56
42.09
43.90
44.48
43.59
41.45
38.54
35.39
32.26
29.08
25.54
21.36
16.48
11.06
5.38
-0.38
-6.18
-12.08
-17.97
-23.43
-27.76
-30.16
-30.05
-27.36
-22.50
-16.11
-8.85
-1.10
7.03
15.51
24.10
32.30
39.34
44.51
47.50
48.62
48.73
48.99
50.41
53.47
57.98
63.18
68.10
71.95
74.34
75.31
75.13
74.03
71.98
68.64
63.40
55.56
44.58
30.34
13.23
-5.74
-25.04
-43.03
-58.43
-70.69
-80.14
-87.77
-94.69
-101.62
-108.45
-114.08
-116.97
-115.85
-110.47
-101.87
-92.15
-83.62
-78.05
-75.80
-75.80
-76.15
-75.02
-71.37
-65.09
-56.70
-46.81
-36.02
-24.31
-11.02
4.75
23.28
43.89
64.96
84.48
100.67
111.58
116.18
114.40
106.87
94.20
77.02
56.26
33.36
10.08
-13.21
-36.36
-58.68
-78.76
-95.02
-106.29
-112.09
-112.88
-109.94
-106.52
-105.06
-105.87
-107.34
-107.44
-104.79
-98.55
-88.14
-63.73
-21.49
33.47
88.80
132.67
159.08
168.20
164.18
152.66
138.79
124.55
109.94
95.73
84.19
77.73
77.67
83.56
93.28
103.80
111.10
112.46
107.34
98.32
87.45
76.06
64.74
53.69
42.93
31.51
18.52
3.80
-11.80
-26.88
-39.73
-48.95
-54.12
-56.02
-56.69
-58.15
-61.23
-65.55
-70.24
-74.52
-78.09
-80.96
-83.09
-84.20
-83.81
-81.51
-77.37
-72.17
-66.88
-62.22
-58.31
-54.79
-51.14
-47.09
-42.71
-38.28
-34.06
-30.10
-26.30
-22.59
-19.13
-16.26
-14.23
-13.06
-12.35
-11.44
-9.66
-6.61
-2.30
2.83
8.05
12.53
15.60
16.88
16.32
14.25
11.35
8.49
6.67
6.63
8.69
12.45
16.91
20.53
21.75
19.33
12.76
2.51
-10.05
-23.07
-34.66
-43.36
-48.37
-49.45
-46.65
-39.93
-29.07
-13.77
5.90
29.04
53.76
77.17
95.97
107.02
108.00
98.19
78.90
53.70
27.74
6.43
-6.35
-9.67
-5.88
0.42
4.27
2.27
-6.43
-20.27
-36.59
-52.86
-67.45
-79.75
-89.70
-97.27
-102.36
-104.92
-105.21
-103.86
-101.84
-100.11
-99.31
-99.33
-99.10
-96.98
-91.32
-81.44
-68.09
-53.19
-38.74
-25.63
-13.01
1.23
19.08
41.18
66.19
91.51
114.80
135.21
153.90
173.33
196.02
223.21
254.37
287.28
318.58
344.74
362.84
371.32
370.23
361.02
345.85
326.40
303.79
278.74
251.83
223.91
196.34
170.80
148.67
130.28
114.16
97.95
79.45
57.60
32.86
6.98
-17.63
-39.03
-56.63
-72.50
-89.76
-111.56
-140.65
-178.98
-226.59
-280.22
-332.49
-372.58
-391.26
-380.73
-337.20
-263.44
-169.64
-70.63
19.19
90.07
138.55
161.13
159.45
139.92
110.71
77.91
44.64
12.52
-17.31
-44.14
-76.64
-120.77
-175.82
-236.25
-297.18
-356.97
-416.19
-475.86
-536.12
-606.26
-688.23
-772.78
-844.47
-891.63
-911.10
-906.58
-885.02
-785.07
-589.77
-336.11
-88.02
110.96
250.73
340.46
394.74
427.07
447.38
450.62
433.21
398.98
357.61
318.06
285.47
262.18
248.80
243.51
236.86
223.14
204.24
187.13
177.32
175.81
180.11
186.51
191.72
188.90
175.24
153.74
130.61
110.70
95.53
84.39
76.03
69.00
60.48
49.57
37.73
27.30
19.37
13.23
7.39
0.69
-7.06
-15.61
-22.85
-25.55
-21.10
-9.25
7.55
25.00
38.42
44.26
41.59
33.54
25.65
22.97
27.74
38.79
52.54
64.81
72.70
75.69
77.05
81.45
91.99
108.90
130.35
154.43
180.49
209.11
230.65
236.39
222.82
193.44
154.89
112.73
70.26
29.47
-8.25
-41.38
-69.14
-88.53
-96.29
-90.76
-72.56
-44.95
-13.61
14.15
31.79
34.78
23.13
1.30
-23.27
-42.67
-51.41
-48.69
-38.87
-29.81
-28.99
-40.57
-64.42
-96.18
-128.14
-151.03
-156.57
-140.17
-102.77
-50.40
7.71
61.54
103.20
128.89
139.18
137.54
128.40
115.56
101.70
88.63
77.22
67.42
58.27
48.12
35.00
17.22
-6.05
-34.52
-66.84
-101.09
-135.32
-168.07
-198.48
-226.02
-249.84
-268.11
-277.65
-274.52
-255.51
-219.85
-170.36
-113.22
-56.20
-6.34
32.16
58.58
75.04
85.10
92.30
99.34
107.77
117.92
128.99
138.95
144.75
143.08
131.36
108.90
77.53
41.41
5.90
-23.88
-44.56
-55.16
-56.89
-52.19
-43.57
-32.88
-21.20
-9.26
2.06
11.49
17.59
19.28
16.24
9.04
-1.04
-12.44
-23.78
-34.06
-42.83
-49.99
-55.66
-60.06
-63.28
-65.34
-66.08
-65.16
-62.03
-55.97
-46.46
-33.69
-19.11
-5.49
3.70
5.47
-1.41
-15.84
-34.83
-54.78
-72.85
-87.66
-99.10
-107.43
-112.57
-113.87
-110.75
-103.36
-92.99
-81.82
-72.19
-65.92
-64.07
-66.95
-74.33
-85.62
-99.74
-115.12
-129.80
-141.79
-149.38
-151.38
-147.10
-136.32
-119.11
-95.90
-67.27
-33.94
3.21
43.08
84.09
123.92
159.67
188.40
207.93
217.55
218.19
212.08
202.06
190.83
180.52
172.34
166.46
161.88
156.66
148.39
135.07
115.95
91.91
65.09
38.06
12.92
-9.10
-27.43
-41.62
-51.00
-54.85
-53.20
-47.57
-41.11
-37.85
-41.04
-51.73
-68.02
-85.67
-99.73
-106.51
-104.84
-96.23
-83.79
-70.67
-58.56
-47.14
-34.49
-18.32
2.68
28.16
56.14
83.76
108.41
128.47
143.51
153.94
160.45
163.67
164.25
163.27
162.27
163.08
167.04
174.41
184.09
193.94
201.33
203.62
198.63
184.73
161.23
128.62
88.99
45.88
3.56
-34.20
-65.22
-89.33
-107.87
-122.50
-134.29
-143.17
-148.38
-149.16
-145.34
-137.38
-126.08
-112.11
-95.73
-76.98
-56.05
-33.70
-11.53
8.21
23.00
30.89
31.23
25.13
15.45
5.80
-0.60
-2.08
1.13
7.24
13.86
18.90
21.17
20.34
16.82
11.35
4.75
-2.33
-9.58
-17.01
-24.60
-32.01
-38.40
-42.78
-44.65
-44.66
-44.62
-46.76
-52.61
-62.08
-73.44
-84.16
-92.06
-96.21
-96.93
-95.21
-91.96
-87.70
-82.70
-77.31
-72.30
-68.66
-66.96
-66.90
-67.17
-65.84
-61.23
-52.62
-40.57
-26.64
-12.73
-0.36
9.75
17.72
24.13
29.61
34.42
38.38
40.99
41.77
40.56
37.75
34.22
30.99
28.77
27.53
26.50
24.42
20.14
13.23
4.16
-5.77
-14.88
-21.70
-25.39
-25.94
-23.96
-20.40
-15.99
-11.05
-5.36
1.46
9.74
19.52
30.34
41.20
50.13
54.35
50.69
36.94
13.23
-16.96
-47.36
-70.80
-81.80
-78.51
-62.98
-39.75
-13.52
12.53
37.25
60.58
82.24
100.69
113.15
116.47
108.32
88.23
58.18
22.30
-14.14
-46.34
-71.27
-88.43
-99.19
-105.43
-107.84
-105.24
-95.00
-74.73
-43.84
-4.53
38.56
79.76
113.98
137.73
149.53
149.73
140.38
124.84
107.34
91.95
81.38
76.25
75.01
75.11
74.50
72.89
71.83
73.63
79.96
90.54
102.77
112.18
113.68
103.00
78.27
41.25
-2.20
-43.18
-72.38
-83.48
-75.67
-54.02
-27.44
-4.95
7.80
9.95
4.51
-4.17
-13.00
-21.17
-29.61
-39.38
-50.32
-60.66
-67.93
-70.18
-67.07
-59.91
-50.79
-41.45
-32.44
-23.02
-12.15
0.41
13.30
23.83
29.04
27.22
18.89
6.65
-5.92
-15.76
-21.56
-23.97
-24.97
-26.76
-30.80
-37.39
-45.91
-55.35
-64.94
-74.39
-83.84
-93.61
-103.87
-114.50
-125.26
-136.07
-147.20
-159.24
-172.67
-187.32
-201.88
-213.95
-220.60
-219.35
-209.17
-190.89
-166.97
-140.51
-114.22
-89.57
-66.59
-44.18
-20.72
5.32
34.82
67.49
101.70
134.49
162.23
181.69
191.09
190.76
182.93
170.81
157.36
144.52
133.08
123.21
115.15
109.49
106.94
107.69
111.02
115.13
117.76
116.92
111.64
102.42
90.95
79.52
70.17
63.92
60.54
58.66
56.43
52.24
45.24
35.60
24.39
13.12
3.39
-3.49
-6.70
-6.03
-1.76
5.40
14.51
24.57
34.68
44.05
52.10
58.46
63.03
65.93
67.45
67.88
67.38
65.92
63.37
59.76
55.36
50.84
46.98
44.31
42.79
41.66
39.64
35.39
27.99
17.40
4.63
-8.58
-20.26
-28.98
-34.27
-36.86
-38.21
-40.03
-43.67
-49.70
-57.92
-67.52
-77.29
-85.94
-92.26
-95.43
-95.15
-91.82
-86.33
-79.81
-73.16
-66.84
-60.87
-55.08
-49.41
-44.09
-39.62
-36.62
-35.61
-36.67
-39.40
-42.91
-46.18
-48.37
-49.14
-48.71
-47.57
-46.22
-44.78
-43.00
-40.45
-36.85
-32.28
-27.23
-22.33
-18.11
-14.71
-11.89
-9.10
-5.88
-2.06
1.91
5.02
5.96
3.73
-1.69
-9.13
-16.45
-21.23
-21.73
-17.42
-9.01
2.10
14.48
27.16
39.64
51.46
61.95
70.11
74.94
76.01
73.73
69.21
63.82
58.72
54.50
51.27
48.80
46.81
45.02
43.27
41.39
39.35
37.15
34.75
31.82
27.67
21.35
12.11
-0.02
-13.91
-27.59
-39.01
-46.98
-51.70
-54.70
-58.00
-63.05
-70.06
-77.85
-84.31
-87.09
-84.26
-74.83
-59.03
-38.60
-16.64
3.02
16.86
22.93
21.56
15.06
6.85
-0.02
-3.74
-4.00
-1.41
3.11
8.82
15.21
21.69
27.52
31.88
34.26
34.78
34.21
33.70
34.21
36.05
38.69
40.87
41.12
38.29
32.19
23.64
14.26
5.93
0.10
-2.73
-3.17
-2.70
-3.10
-5.73
-11.08
-18.49
-26.45
-33.10
-36.84
-36.79
-32.85
-25.65
-16.21
-5.71
4.81
14.50
22.82
29.59
34.92
39.10
42.44
45.15
47.26
48.71
49.43
49.36
48.64
47.48
46.26
45.39
45.24
45.97
47.42
49.01
49.97
49.53
47.23
43.08
37.53
31.27
25.06
19.49
14.87
11.23
8.34
5.78
3.09
-0.19
-4.37
-9.53
-15.52
-21.94
-28.18
-33.48
-37.11
-38.50
-37.51
-34.40
-29.77
-24.31
-18.53
-12.68
-6.78
-0.76
5.32
11.27
16.80
21.71
25.87
29.29
32.01
34.02
35.28
35.79
35.72
35.36
35.06
35.02
35.28
35.62
35.71
35.21
33.89
31.76
29.01
26.06
23.42
21.57
20.85
21.14
21.81
21.77
19.68
14.45
5.66
-6.24
-19.91
-33.55
-45.37
-54.04
-58.99
-60.41
-58.94
-55.31
-50.06
-43.41
-35.48
-26.48
-16.87
-7.44
0.92
7.50
12.03
14.72
16.14
16.92
17.57
18.31
19.13
19.93
20.61
21.20
21.89
22.91
24.45
26.51
28.80
30.80
31.86
31.39
29.12
25.25
20.41
15.51
11.39
8.46
6.45
4.46
1.25
-4.32
-12.72
-23.40
-34.85
-44.96
-51.76
-53.93
-51.27
-44.51
-35.05
-24.43
-13.93
-4.39
3.75
10.30
15.18
18.20
19.17
18.04
15.08
10.96
6.61
2.96
0.63
-0.15
0.55
2.49
5.43
9.05
12.93
16.55
19.43
21.33
22.34
22.79
22.99
23.04
22.81
22.13
20.98
19.56
18.08
16.57
14.76
12.22
8.61
3.88
-1.69
-7.82
-14.36
-21.39
-28.92
-36.62
-43.62
-48.80
-51.19
-50.50
-47.28
-42.65
-37.75
-33.37
-29.70
-26.58
-23.88
-21.65
-20.12
-19.42
-19.40
-19.64
-19.59
-18.92
-17.73
-16.65
-16.66
-18.74
-23.44
-30.56
-39.10
-47.43
-53.85
-57.12
-56.90
-53.77
-48.99
-43.91
-39.60
-36.56
-34.82
-34.10
-33.94
-33.88
-33.39
-32.07
-29.72
-26.55
-23.17
-20.39
-18.83
-18.52
-18.68
-17.89
-14.67
-8.06
1.86
13.91
26.13
36.42
43.29
46.23
45.83
43.43
40.44
37.82
35.71
33.71
31.19
27.85
23.87
19.63
15.42
11.08
6.08
-0.16
-7.81
-16.54
-25.58
-34.22
-42.07
-49.21
-56.01
-62.85
-69.89
-77.14
-84.56
-92.26
-100.42
-109.03
-117.69
-125.43
-131.09
-133.68
-132.88
-129.16
-123.63
-117.47
-111.42
-105.40
-98.66
-90.15
-79.08
-65.34
-49.55
-32.75
-16.08
-0.39
13.81
26.28
36.81
45.15
51.08
54.57
56.03
56.25
56.17
56.52
57.59
59.21
60.90
62.20
62.76
62.45
61.22
59.13
56.31
53.09
49.89
47.15
45.00
43.13
40.76
36.84
30.45
21.12
9.07
-4.70
-18.55
-30.50
-38.70
-42.02
-40.56
-35.66
-29.48
-24.29
-21.54
-21.39
-22.82
-24.16
-23.89
-21.18
-16.03
-9.03
-1.00
7.42
15.83
24.04
31.93
39.32
45.85
51.05
54.44
55.71
54.87
52.25
48.47
44.28
40.33
37.12
34.92
33.81
33.67
34.19
34.88
35.19
34.63
33.05
30.61
27.82
25.29
23.49
22.56
22.25
22.00
21.11
19.00
15.38
10.40
4.65
-0.97
-5.49
-8.14
-8.65
-7.26
-4.74
-2.05
-0.06
0.80
0.69
0.38
0.97
3.48
8.50
15.87
24.77
33.95
42.15
48.47
52.64
54.98
56.17
56.99
58.07
59.65
61.59
63.52
64.90
65.21
64.04
61.21
56.82
51.33
45.53
40.29
36.30
33.74
32.21
30.90
28.96
25.92
21.84
17.20
12.53
8.16
4.09
0.16
-3.55
-6.47
-7.63
-5.95
-0.87
7.33
17.47
27.89
37.16
44.56
50.04
53.98
56.58
57.69
56.91
54.08
49.55
44.22
39.08
34.78
31.49
29.04
27.36
26.71
27.51
29.92
33.40
36.82
38.84
38.58
35.96
31.71
26.89
22.35
18.30
14.34
9.68
3.56
-4.48
-14.56
-26.47
-39.78
-54.01
-68.67
-83.25
-97.17
-109.70
-119.97
-127.02
-130.10
-128.91
-123.85
-116.11
-107.32
-99.31
-93.53
-90.68
-90.57
-92.33
-94.80
-96.93
-98.17
-98.62
-98.89
-99.79
-101.90
-105.13
-108.67
-111.13
-111.00
-107.15
-99.31
-88.20
-75.37
-62.68
-51.79
-43.68
-38.51
-35.84
-34.93
-35.06
-35.73
-36.67
-37.82
-39.32
-41.42
-44.29
-47.51
-49.76
-48.83
-42.50
-29.86
-12.30
6.51
22.01
30.81
32.39
29.18
25.19
23.85
26.38
31.64
37.26
41.21
42.81
42.60
41.53
40.07
37.98
34.72
30.23
25.25
21.15
19.11
19.51
21.60
23.86
24.78
23.64
20.80
17.42
14.86
13.94
14.60
16.05
17.23
17.34
16.17
14.11
11.92
10.40
10.11
11.11
12.87
14.40
14.51
12.11
6.45
-2.67
-14.83
-28.96
-43.40
-56.13
-65.19
-69.42
-68.97
-65.31
-60.62
-56.90
-55.07
-54.68
-54.40
-52.76
-48.93
-42.95
-35.42
-27.06
-18.33
-9.50
-0.88
7.11
14.01
19.66
24.33
28.54
32.65
36.35
38.75
38.70
35.57
29.63
22.13
14.77
8.89
4.96
2.59
0.87
-0.98
-3.25
-5.76
-8.12
-10.07
-11.52
-12.40
-12.38
-10.96
-7.60
-2.13
5.01
12.86
20.36
26.81
32.17
36.94
41.80
47.12
52.71
57.88
61.81
63.95
64.27
63.32
61.94
60.95
60.83
61.51
62.49
63.04
62.59
60.92
58.25
55.07
51.83
48.76
45.82
42.78
39.48
35.90
32.12
28.13
23.63
18.08
10.91
1.79
-8.99
-20.60
-31.79
-41.32
-48.27
-52.28
-53.41
-52.04
-48.61
-43.51
-37.11
-29.82
-22.06
-14.25
-6.64
0.65
7.65
14.31
20.46
25.84
30.30
33.94
37.13
40.33
43.86
47.70
51.48
54.72
56.98
57.96
57.59
55.87
52.89
48.85
44.07
38.95
33.87
29.09
24.63
20.38
16.20
11.95
7.46
2.57
-2.92
-9.17
-16.20
-23.81
-31.60
-39.08
-45.79
-51.34
-55.43
-57.77
-58.11
-56.36
-52.66
-47.41
-41.21
-34.63
-28.11
-21.99
-16.53
-12.04
-8.86
-7.12
-6.43
-5.84
-3.97
0.46
8.11
18.53
30.19
40.89
48.41
51.42
49.85
45.07
39.29
34.79
33.04
34.12
36.81
39.21
39.62
37.24
32.44
26.50
20.96
17.01
15.19
15.25
16.43
17.61
17.63
15.42
10.20
1.52
-10.61
-25.62
-42.34
-59.11
-73.91
-84.81
-90.36
-89.98
-84.12
-74.08
-61.63
-48.42
-35.70
-24.17
-14.13
-5.70
1.08
6.23
9.93
12.54
14.56
16.45
18.53
20.80
23.00
24.78
25.85
26.09
25.54
24.40
22.81
20.95
18.87
16.62
14.18
11.57
8.86
6.17
3.64
1.42
-0.45
-2.07
-3.65
-5.46
-7.72
-10.54
-13.85
-17.43
-21.02
-24.31
-27.02
-28.89
-29.67
-29.07
-26.85
-22.79
-16.82
-9.16
-0.34
8.87
17.50
24.61
29.56
32.02
32.17
30.48
27.59
24.04
20.15
16.06
12.00
8.42
6.12
5.92
8.34
13.25
19.72
26.38
31.77
34.91
35.56
34.17
31.52
28.40
25.23
22.01
18.42
14.02
8.53
1.88
-5.71
-13.80
-21.87
-29.31
-35.49
-39.71
-41.34
-39.93
-35.53
-28.78
-20.86
-13.16
-6.78
-2.26
0.67
2.69
4.57
6.69
8.94
10.92
12.34
13.29
14.23
15.75
18.12
21.10
23.98
25.96
26.48
25.49
23.43
20.98
18.79
17.22
16.37
16.09
16.19
16.62
17.50
19.01
21.15
23.50
25.13
24.87
21.74
15.45
6.55
-3.76
-14.19
-23.84
-32.37
-39.76
-45.92
-50.45
-52.71
-52.32
-49.56
-45.48
-41.54
-39.01
-38.35
-39.10
-40.10
-40.04
-37.96
-33.64
-27.49
-20.35
-13.06
-6.23
-0.10
5.34
10.19
14.52
18.30
21.50
24.29
26.94
29.70
32.67
35.55
37.79
38.77
38.13
35.84
32.23
27.77
22.87
17.83
12.86
8.19
4.04
0.53
-2.51
-5.57
-9.37
-14.55
-21.32
-29.21
-37.15
-43.84
-48.13
-49.42
-47.79
-43.91
-38.65
-32.80
-26.81
-20.75
-14.41
-7.55
-0.16
7.48
14.72
20.76
24.90
26.75
26.41
24.36
21.36
18.14
15.25
12.95
11.27
10.15
9.51
9.40
9.94
11.19
13.14
15.55
18.07
20.26
21.85
22.80
23.45
24.35
26.05
28.85
32.50
36.28
39.16
40.13
38.50
34.11
27.33
18.92
9.89
1.41
-5.43
-9.76
-11.20
-10.03
-7.14
-3.72
-0.74
1.44
3.18
5.34
8.82
14.14
21.17
29.24
37.36
44.64
50.43
54.45
56.72
57.42
56.81
55.17
52.85
50.16
47.44
44.88
42.55
40.38
38.21
35.85
33.15
29.97
26.22
21.81
16.74
11.09
5.06
-1.12
-7.23
-13.22
-19.20
-25.36
-31.90
-38.83
-46.01
-53.05
-59.44
-64.57
-67.92
-69.01
-67.60
-63.71
-57.72
-50.37
-42.66
-35.69
-30.35
-27.12
-25.94
-26.16
-26.88
-27.18
-26.42
-24.50
-21.69
-18.49
-15.30
-12.34
-9.63
-7.25
-5.35
-4.16
-3.69
-3.59
-3.24
-2.17
-0.52
0.63
-0.42
-5.32
-14.96
-28.86
-45.32
-62.02
-76.86
-88.52
-96.64
-101.61
-104.08
-104.80
-104.46
-103.77
-103.43
-104.13
-106.26
-109.80
-114.13
-118.18
-120.52
-119.75
-114.82
-105.29
-91.59
-75.02
-57.58
-41.52
-28.79
-20.62
-17.26
-18.17
-22.03
-26.94
-30.55
-30.55
-25.28
-14.47
0.41
16.50
30.45
39.74
43.50
42.67
39.13
34.69
30.29
25.98
21.39
16.47
11.68
7.87
5.76
5.55
6.93
9.31
12.15
15.22
18.53
22.15
26.00
29.77
32.95
35.02
35.59
34.57
32.22
29.18
26.40
24.94
25.74
29.25
35.29
43.13
51.59
59.47
65.86
70.31
72.85
73.82
73.69
72.80
71.34
69.31
66.66
63.41
59.71
55.84
52.07
48.55
45.26
42.00
38.46
34.37
29.69
24.60
19.51
14.86
10.94
7.72
4.86
1.76
-2.12
-7.10
-13.23
-20.20
-27.59
-34.98
-42.07
-48.65
-54.63
-60.03
-64.88
-69.23
-72.99
-75.96
-77.70
-77.75
-75.67
-71.30
-64.71
-56.20
-46.23
-35.36
-24.25
-13.60
-4.08
3.88
10.26
15.50
20.41
25.82
32.37
40.20
48.96
57.93
66.25
73.13
77.99
80.50
80.66
78.75
75.33
71.15
66.90
63.05
59.67
56.49
53.07
49.10
44.58
39.82
35.28
31.36
28.28
26.02
24.45
23.48
23.04
23.12
23.66
24.39
24.86
24.47
22.65
19.09
13.88
7.60
1.21
-4.18
-7.62
-8.55
-6.92
-3.17
1.88
7.26
12.15
16.04
18.81
20.64
21.73
22.08
21.46
19.60
16.54
12.79
9.27
6.94
6.35
7.46
9.66
12.18
14.41
16.12
17.51
18.98
20.90
23.44
26.54
30.01
33.74
37.83
42.52
48.03
54.37
61.06
67.22
71.62
72.88
69.70
61.02
46.29
25.83
1.08
-25.41
-50.41
-70.76
-84.15
-89.56
-87.18
-77.92
-62.96
-43.62
-21.52
1.12
21.63
37.48
47.09
50.49
49.08
44.89
39.38
32.76
24.01
11.76
-4.70
-24.71
-46.43
-67.45
-85.84
-100.58
-111.53
-119.07
-123.65
-125.63
-125.41
-123.59
-121.02
-118.62
-117.10
-116.76
-117.59
-119.42
-122.19
-126.03
-131.09
-137.22
-143.80
-149.63
-153.23
-153.31
-149.18
-141.15
-130.36
-118.38
-106.68
-96.18
-87.17
-79.54
-73.05
-67.68
-63.66
-61.26
-60.57
-61.29
-62.73
-63.95
-63.98
-61.86
-56.81
-48.28
-36.08
-20.59
-2.76
15.98
34.04
50.11
63.46
74.05
82.35
88.99
94.57
99.47
104.04
108.62
113.57
118.85
123.82
127.12
127.07
122.36
112.82
99.71
85.41
72.64
63.34
58.08
55.96
55.13
53.54
49.62
42.65
32.88
21.24
9.16
-1.82
-10.36
-15.69
-17.85
-17.71
-16.72
-16.36
-17.56
-20.25
-23.45
-25.68
-25.70
-23.08
-18.38
-12.80
-7.55
-3.28
0.28
3.95
8.63
14.73
21.98
29.57
36.66
42.74
47.87
52.49
57.08
61.84
66.64
71.06
74.66
77.16
78.36
78.15
76.34
72.62
66.75
58.74
48.99
38.31
27.70
18.02
9.72
2.61
-4.00
-10.97
-18.99
-28.14
-37.88
-47.15
-54.83
-60.13
-62.83
-63.30
-62.20
-60.26
-58.02
-55.77
-53.55
-51.31
-48.96
-46.58
-44.30
-42.35
-40.98
-40.35
-40.36
-40.68
-40.72
-39.87
-37.72
-34.12
-29.31
-23.64
-17.61
-11.71
-6.48
-2.48
-0.27
-0.26
-2.56
-6.84
-12.43
-18.44
-24.09
-28.91
-32.85
-36.23
-39.54
-43.26
-47.83
-53.48
-60.16
-67.37
-74.04
-78.71
-79.82
-76.29
-67.94
-55.73
-41.44
-27.05
-14.05
-2.98
6.52
15.27
24.00
33.01
42.09
50.73
58.41
64.83
69.85
73.51
75.91
77.10
77.10
75.90
73.67
70.81
67.89
65.49
63.89
62.71
61.07
57.76
51.90
43.35
32.84
21.67
11.13
1.96
-5.91
-13.10
-20.45
-28.63
-37.83
-47.86
-58.33
-68.85
-79.29
-89.71
-100.21
-110.72
-120.80
-129.71
-136.58
-140.64
-141.32
-138.15
-130.55
-117.82
-99.49
-75.85
-48.48
-20.21
5.52
25.67
38.61
44.58
45.37
43.49
41.25
40.18
40.96
43.72
48.54
55.62
65.18
77.19
91.03
105.41
118.58
128.83
134.87
136.09
132.56
124.83
113.68
99.92
84.38
67.99
51.78
36.81
23.96
13.73
6.06
0.44
-4.00
-8.15
-12.69
-17.85
-23.35
-28.50
-32.45
-34.49
-34.25
-31.73
-27.17
-20.77
-12.56
-2.47
9.53
