1608955073.00
64.000000
-0.00
-0.00
-0.00
-0.00
-0.00
-0.00
-0.00
-0.00
-0.00
-0.00
0.00
0.01
0.01
-0.00
-0.03
-0.05
-0.05
0.00
0.13
0.36
0.66
1.01
1.37
1.72
2.06
2.40
2.79
3.24
3.80
4.42
5.06
5.66
6.20
6.68
7.15
7.68
8.31
9.15
10.09
11.05
11.89
12.56
13.13
13.75
14.66
15.99
17.97
20.38
22.93
25.31
27.36
29.16
31.06
33.54
36.93
41.59
47.16
53.07
58.70
63.69
68.12
72.52
77.62
83.96
92.04
101.30
110.86
119.76
127.44
133.98
140.12
147.29
154.24
163.15
174.47
188.10
202.67
215.27
221.71
217.63
199.93
167.87
123.70
70.94
13.48
-45.75
-105.24
-164.42
-222.88
-279.80
-334.07
-384.40
-430.45
-472.21
-509.63
-541.88
-567.10
-582.74
-586.29
-576.27
-552.61
-517.08
-472.53
-422.29
-369.62
-317.14
-266.46
-217.78
-169.84
-120.34
-67.12
-9.40
51.40
111.74
167.10
213.64
249.41
274.60
290.73
299.45
301.77
298.03
288.59
274.48
257.54
240.00
223.66
209.28
196.48
184.17
171.23
157.11
142.10
127.07
113.10
100.93
90.72
82.04
74.18
66.53
58.76
50.95
43.41
36.48
30.33
25.07
20.49
16.34
12.43
8.69
5.14
1.85
-1.05
-3.42
-5.15
-6.23
-6.78
-7.05
-7.35
-7.92
-8.81
-9.85
-10.72
-11.09
-10.80
-9.90
-8.64
-7.36
-6.36
-5.86
-5.96
-6.70
-8.04
-9.88
-11.97
-13.87
-14.95
-14.55
-12.28
-8.25
-3.16
1.89
5.82
7.95
8.25
7.20
5.49
3.64
1.86
0.11
-1.65
-3.27
-4.43
-4.81
-4.34
-3.34
-2.37
-2.01
-2.59
-4.00
-5.80
-7.39
-8.31
-8.44
-7.98
-7.37
-7.04
-7.28
-8.14
-9.43
-10.82
-11.93
-12.40
-11.97
-10.53
-8.15
-5.07
-1.67
1.71
4.72
7.19
8.99
10.12
10.64
10.68
10.48
10.31
10.48
11.18
12.49
14.24
16.15
17.82
18.87
19.01
18.15
16.33
13.69
10.52
6.94
3.02
-1.23
-5.85
-10.77
-15.66
-19.88
-22.61
-23.15
-21.18
-17.06
-11.69
-6.27
-1.86
0.98
2.20
2.15
1.25
-0.21
-2.01
-3.93
-5.60
-6.52
-6.27
-4.75
-2.28
0.42
2.50
3.36
2.87
1.39
-0.40
-1.75
-2.20
-1.71
-0.59
0.65
1.62
2.19
2.57
3.11
4.20
6.02
8.48
11.15
13.34
14.20
12.89
8.83
2.02
-6.72
-15.80
-23.15
-26.91
-25.97
-20.38
-11.30
-0.58
9.85
18.59
24.98
29.12
31.59
32.92
33.72
34.48
35.44
36.34
36.37
34.25
28.70
19.08
5.92
-8.93
-22.81
-33.27
-38.92
-40.00
-38.06
-35.22
-33.19
-32.63
-33.05
-33.39
-32.62
-30.35
-26.87
-22.91
-19.24
-16.29
-14.02
-12.00
-9.71
-6.73
-2.98
1.36
5.95
10.46
14.63
18.26
21.09
22.82
23.21
22.27
20.41
18.42
17.22
17.54
19.62
23.17
27.46
31.64
34.93
36.87
37.25
36.11
33.61
29.95
25.29
19.78
13.53
6.75
-0.17
-6.74
-12.36
-16.48
-18.75
-19.02
-17.29
-13.71
-8.60
-2.57
3.40
8.08
10.26
9.19
4.86
-1.94
-9.88
-17.52
-23.71
-27.80
-29.64
-29.40
-27.35
-23.75
-18.83
-12.85
-6.23
0.45
6.48
11.31
14.69
16.93
18.75
21.07
24.59
29.56
35.67
42.28
48.62
54.01
57.91
59.87
59.65
57.37
53.73
50.09
48.20
49.71
55.48
65.20
77.37
89.73
99.88
105.88
106.58
101.54
90.84
74.75
53.55
27.54
-2.81
-36.68
-72.62
-108.53
-141.80
-169.66
-189.71
-200.45
-201.52
-193.80
-179.25
-160.61
-141.09
-124.04
-112.35
-107.64
-109.50
-115.29
-120.81
-121.75
-115.42
-101.79
-83.40
-64.04
-46.97
-33.65
-23.54
-14.92
-6.11
3.62
14.01
24.31
33.94
42.81
51.10
58.89
65.73
70.72
72.89
71.63
67.12
60.36
52.76
45.59
39.43
34.02
28.54
22.21
14.95
7.73
2.25
0.31
2.89
9.59
18.63
27.54
33.95
36.41
34.59
29.05
20.85
11.15
1.10
-8.22
-15.69
-20.41
-21.91
-20.40
-16.90
-12.88
-9.75
-8.31
-8.39
-8.93
-8.51
-6.15
-1.83
3.32
7.33
8.23
4.81
-2.89
-13.56
-24.85
-33.84
-37.62
-33.99
-22.29
-3.84
18.03
38.85
54.42
62.21
62.05
55.88
46.76
37.62
30.48
26.28
25.20
27.05
31.45
37.80
45.21
52.60
58.97
63.79
67.08
69.38
71.40
73.58
75.78
77.23
76.77
73.31
66.31
56.02
43.49
30.31
18.12
8.22
1.27
-2.87
-5.10
-6.85
-9.84
-15.67
-25.44
-39.47
-57.21
-77.29
-97.90
-117.19
-133.70
-146.70
-156.16
-162.53
-166.22
-167.21
-164.84
-158.02
-145.81
-127.96
-105.39
-80.08
-54.62
-31.47
-12.31
2.30
12.72
19.80
24.45
27.41
29.22
30.40
31.58
33.39
36.20
39.92
43.91
47.20
48.91
48.65
46.64
43.65
40.58
38.20
36.84
36.34
36.22
35.81
34.49
31.85
27.81
22.60
16.75
10.89
5.63
1.40
-1.60
-3.36
-4.08
-4.07
-3.77
-3.71
-4.40
-6.16
-8.90
-12.07
-14.86
-16.49
-16.67
-15.78
-14.82
-15.04
-17.49
-22.59
-30.05
-39.01
-48.37
-57.08
-64.33
-69.59
-72.56
-73.26
-71.97
-69.31
-66.10
-63.10
-60.83
-59.32
-58.10
-56.38
-53.31
-48.31
-41.26
-32.52
-22.74
-12.58
-2.53
7.26
16.81
26.17
35.22
43.61
50.91
56.86
61.42
64.86
67.48
69.50
70.95
71.70
71.70
71.04
69.97
68.79
67.70
66.65
65.46
63.90
61.87
59.46
56.94
54.64
52.81
51.49
50.53
49.68
48.79
47.98
47.66
48.45
50.88
55.12
60.85
67.23
73.19
77.65
79.75
78.91
74.81
67.30
56.39
42.30
25.45
6.53
-13.60
-34.09
-54.05
-72.64
-88.86
-101.51
-109.22
-110.75
-105.51
-93.96
-77.86
-60.03
-43.71
-31.68
-25.57
-25.45
-29.94
-36.79
-43.57
-48.32
-49.91
-48.12
-43.51
-37.16
-30.26
-23.87
-18.60
-14.53
-11.21
-7.86
-3.63
2.07
9.37
17.87
26.78
35.16
42.26
47.74
51.80
55.03
58.24
62.06
66.81
72.21
77.53
81.64
83.25
81.21
74.89
64.46
51.02
36.47
23.02
12.62
6.39
4.33
5.40
7.88
9.90
9.91
7.00
0.98
-7.67
-18.04
-29.12
-40.00
-50.13
-59.24
-67.29
-74.27
-80.10
-84.69
-87.98
-89.92
-90.43
-89.26
-86.00
-80.26
-71.98
-61.71
-50.65
-40.36
-32.26
-27.14
-24.94
-24.76
-25.26
-25.10
-23.28
-19.38
-13.52
-6.29
1.50
8.97
15.41
20.38
23.78
25.86
27.11
28.13
29.58
32.02
35.88
41.46
48.83
57.83
67.99
78.61
88.91
98.25
106.33
113.23
119.25
124.66
129.42
133.17
135.29
135.25
132.77
128.00
121.48
113.97
106.37
99.59
94.49
91.75
91.73
94.32
98.79
103.85
107.79
108.78
105.16
95.84
80.52
59.73
34.62
6.62
-22.99
-53.31
-83.85
-114.24
-143.78
-171.22
-194.82
-212.80
-223.90
-227.73
-224.76
-216.15
-203.53
-188.71
-173.55
-160.01
-149.78
-143.77
-141.47
-140.77
-138.86
-133.72
-125.04
-114.28
-103.82
-95.51
-89.61
-84.62
-78.10
-68.43
-56.12
-43.14
-31.70
-22.93
-16.52
-11.46
-6.71
-1.82
2.43
4.19
2.28
-2.83
-8.90
-12.98
-13.15
-8.73
-0.08
11.04
21.56
29.06
32.57
32.70
30.70
26.82
20.89
12.82
7.73
8.25
13.57
20.15
25.05
28.03
29.76
28.58
26.60
24.94
22.72
18.30
10.32
-1.85
-16.14
-32.57
-50.53
-68.18
-83.62
-95.53
-102.84
-104.30
-98.19
-78.46
-45.39
-4.63
35.19
66.33
86.09
95.81
97.71
94.85
90.64
84.78
78.49
73.67
71.94
74.02
79.52
87.29
96.11
104.67
110.80
113.32
112.01
107.38
100.31
91.56
81.73
71.44
61.22
50.89
40.69
31.04
22.35
14.77
7.93
1.19
-5.91
-13.41
-21.13
-28.20
-33.61
-36.50
-36.48
-33.79
-29.11
-23.19
-16.65
-10.09
-3.97
1.15
4.52
5.34
2.92
-2.93
-11.72
-22.30
-33.03
-42.15
-48.12
-49.97
-47.45
-41.07
-32.05
-22.05
-12.87
-6.03
-2.49
-2.38
-5.12
-9.62
-14.65
-19.21
-22.74
-25.18
-26.71
-27.54
-27.68
-26.80
-24.42
-20.11
-13.74
-5.64
3.52
12.90
21.75
29.55
36.00
40.98
44.40
46.26
46.63
45.73
44.01
41.99
40.14
38.81
38.14
38.11
38.59
39.41
40.36
41.17
41.48
41.01
39.60
37.29
34.37
31.22
28.21
25.56
23.31
21.44
19.98
19.09
19.07
20.19
22.61
26.18
30.59
35.34
39.95
43.98
47.06
48.95
49.58
49.06
47.76
46.26
45.13
44.86
45.67
47.60
50.61
54.77
60.17
66.80
74.36
82.13
89.04
93.98
95.98
94.45
89.22
80.47
68.68
54.38
38.00
19.57
-1.34
-25.52
-53.75
-86.29
-122.42
-160.38
-197.63
-231.46
-259.56
-280.39
-293.17
-297.72
-294.20
-282.95
-264.54
-239.91
-210.45
-178.05
-144.90
-113.15
-84.46
-59.69
-38.76
-20.85
-4.71
10.92
26.95
43.88
61.69
79.80
97.03
111.76
122.26
127.31
126.74
121.67
114.14
106.40
100.02
95.40
91.82
88.04
82.98
76.29
68.40
60.34
53.33
48.45
46.36
47.14
50.23
54.58
58.96
62.38
64.48
65.62
66.81
69.27
74.03
81.66
92.16
104.97
119.18
133.61
147.01
158.16
166.03
169.93
169.60
165.12
156.88
145.45
131.52
115.80
99.02
81.84
64.79
48.21
32.18
16.54
0.89
-15.23
-32.21
-50.13
-68.64
-86.95
-104.09
-119.21
-131.95
-142.65
-152.15
-161.49
-171.46
-182.29
-193.61
-204.67
-214.57
-222.53
-227.98
-230.66
-230.60
-228.12
-223.67
-217.69
-210.36
-201.52
-190.79
-177.83
-162.57
-145.39
-127.01
-108.30
-89.94
-72.37
-55.80
-40.34
-26.13
-13.34
-2.12
7.42
15.33
21.80
27.15
31.83
36.38
41.29
46.92
53.35
60.38
67.63
74.67
81.15
86.83
91.56
95.16
97.45
98.28
97.66
95.83
93.16
90.06
86.74
83.22
79.32
74.89
69.87
64.36
58.56
52.65
46.73
40.82
34.91
29.06
23.37
17.91
12.76
7.93
3.43
-0.71
-4.42
-7.71
-10.57
-13.06
-15.22
-17.01
-18.31
-19.01
-19.00
-18.32
-17.09
-15.51
-13.83
-12.28
-11.08
-10.40
-10.37
-10.99
-12.17
-13.72
-15.40
-17.01
-18.37
-19.42
-20.22
-20.86
-21.48
-22.15
-22.89
-23.62
-24.26
-24.79
-25.31
-25.97
-26.94
-28.28
-29.92
-31.70
-33.52
-35.39
-37.42
-39.70
-42.15
-44.43
-45.97
-46.23
-44.90
-42.06
-38.12
-33.73
-29.52
-26.01
-23.57
-22.40
-22.63
-24.13
-26.53
-29.09
-30.88
-31.02
-28.93
-24.56
-18.36
-11.07
-3.50
3.70
10.05
15.19
18.84
20.77
20.97
19.70
17.50
15.02
12.80
11.07
9.72
8.41
6.78
4.63
2.06
-0.63
-2.98
-4.60
-5.30
-5.18
-4.61
-4.08
-3.98
-4.49
-5.52
-6.88
-8.43
-10.32
-12.88
-16.52
-21.43
-27.42
-33.90
-40.08
-45.30
-49.27
-52.16
-54.48
-56.85
-59.71
-63.18
-67.11
-71.23
-75.37
-79.61
-84.27
-89.82
-96.69
-105.23
-115.52
-127.40
-140.29
-153.16
-164.51
-172.59
-175.75
-172.99
-164.26
-150.53
-133.56
-115.34
-97.52
-81.09
-66.38
-53.32
-41.78
-31.82
-23.56
-16.98
-11.56
-6.33
-0.06
8.25
18.80
30.90
43.13
53.91
62.01
67.03
69.31
69.61
68.75
67.19
65.06
62.25
58.58
53.96
48.42
42.09
35.22
28.24
21.89
17.12
14.87
15.80
20.02
27.02
35.82
45.30
54.50
62.77
69.82
75.61
80.26
83.96
86.98
89.58
91.96
94.13
95.84
96.67
96.12
93.90
90.00
84.80
78.89
72.90
67.31
62.33
57.92
53.85
49.79
45.39
40.35
34.40
27.39
19.45
11.01
2.83
-4.16
-9.07
-11.29
-10.66
-7.49
-2.46
3.56
9.68
15.07
19.09
21.33
21.70
20.48
18.28
15.99
14.60
15.08
18.16
24.25
33.33
44.87
58.00
71.61
84.63
96.24
105.89
113.14
117.57
118.63
115.82
108.92
98.35
85.21
71.06
57.51
45.84
36.71
30.18
25.94
23.54
22.57
22.73
23.79
25.57
27.93
30.84
34.30
38.40
43.15
48.39
53.73
58.58
62.21
63.95
63.30
60.05
54.29
46.44
37.16
27.26
17.59
8.89
1.62
-4.04
-8.20
-11.10
-13.06
-14.35
-15.25
-16.03
-16.91
-17.99
-19.13
-19.95
-19.96
-18.81
-16.55
-13.70
-11.18
-9.99
-10.83
-13.93
-18.97
-25.29
-32.13
-38.80
-44.79
-49.76
-53.48
-55.87
-57.09
-57.49
-57.57
-57.66
-57.73
-57.25
-55.32
-51.10
-44.19
-34.90
-24.21
-13.43
-3.79
3.89
9.35
12.74
14.48
15.08
15.03
14.73
14.53
14.62
15.09
15.94
17.12
18.67
20.75
23.61
27.46
32.37
38.11
44.28
50.38
55.98
60.79
64.67
67.58
69.45
70.21
69.79
68.18
65.52
61.92
57.49
52.11
45.54
37.48
27.77
16.54
4.27
-8.28
-20.23
-30.71
-39.07
-44.92
-48.19
-49.10
-48.12
-45.89
-43.08
-40.28
-37.76
-35.45
-32.96
-29.69
-25.20
-19.37
-12.64
-5.82
0.15
4.60
7.37
8.84
9.68
10.58
11.88
13.54
15.18
16.27
16.33
14.98
11.99
7.27
0.93
-6.70
-15.00
-23.21
-30.60
-36.62
-41.06
-43.97
-45.53
-45.98
-45.47
-44.16
-42.23
-39.98
-37.72
-35.70
-33.95
-32.25
-30.24
-27.56
-24.03
-19.78
-15.15
-10.62
-6.54
-3.09
-0.24
2.12
4.07
5.61
6.63
7.04
6.85
6.18
5.28
4.40
3.72
3.33
3.23
3.36
3.64
4.00
4.37
4.66
4.83
4.81
4.55
3.99
3.08
1.77
0.04
-2.06
-4.39
-6.74
-8.85
-10.45
-11.29
-11.21
-10.13
-8.12
-5.34
-2.05
1.41
4.74
7.70
10.12
11.93
13.16
13.83
14.04
13.86
13.41
12.76
12.02
11.21
10.35
9.38
8.26
6.93
5.41
3.70
1.90
0.08
-1.60
-2.99
-3.93
-4.24
-3.87
-2.84
-1.33
0.44
2.21
3.76
4.95
5.76
6.27
6.62
6.99
7.53
8.31
9.33
10.50
11.67
12.65
13.33
13.73
14.04
14.62
15.87
18.06
21.19
24.95
28.78
32.05
34.28
35.19
34.71
32.87
29.80
25.63
20.61
15.01
9.16
3.29
-2.44
-7.96
-13.24
-18.19
-22.64
-26.42
-29.39
-31.56
-33.06
-34.05
-34.62
-34.64
-33.78
-31.63
-27.90
-22.61
-16.12
-9.04
-2.02
4.51
10.44
15.94
21.31
26.76
32.27
37.54
42.04
45.21
46.56
45.78
42.80
37.82
31.25
23.72
16.00
8.91
3.13
-1.00
-3.48
-4.66
-5.03
-5.03
-4.97
-5.01
-5.26
-5.87
-7.04
-8.86
-11.25
-13.90
-16.33
-18.04
-18.73
-18.30
-17.01
-15.28
-13.66
-12.60
-12.34
-12.82
-13.76
-14.85
-15.91
-17.04
-18.58
-20.91
-24.22
-28.35
-32.81
-36.94
-40.13
-42.01
-42.57
-42.15
-41.38
-41.02
-41.80
-44.08
-47.73
-52.04
-55.87
-58.09
-57.90
-55.16
-50.48
-44.95
-39.74
-35.68
-32.88
-30.72
-28.05
-23.69
-16.88
-7.63
3.38
15.07
26.42
36.82
46.06
54.11
60.86
65.98
68.95
69.35
67.11
62.58
56.39
49.23
41.68
34.10
26.64
19.45
12.63
6.37
0.80
-4.03
-8.16
-11.71
-14.75
-17.30
-19.33
-20.83
-21.85
-22.56
-23.21
-24.09
-25.47
-27.49
-30.10
-33.00
-35.61
-37.20
-37.08
-34.82
-30.52
-24.81
-18.69
-13.23
-9.21
-6.95
-6.32
-6.88
-8.01
-9.01
-9.13
-7.66
-4.13
1.51
8.75
16.62
23.99
29.98
34.14
36.57
37.61
37.61
36.72
34.87
31.88
27.65
22.25
15.91
9.08
2.32
-3.71
-8.44
-11.51
-12.84
-12.65
-11.36
-9.39
-7.10
-4.77
-2.62
-0.91
0.15
0.48
0.27
-0.08
-0.05
0.71
2.17
3.91
5.30
5.76
5.03
3.33
1.23
-0.54
-1.34
-0.86
0.83
3.24
5.68
7.42
7.87
6.71
3.83
-0.64
-6.48
-13.36
-20.76
-27.99
-34.16
-38.38
-39.99
-38.80
-35.16
-29.77
-23.50
-17.05
-10.87
-5.19
-0.22
3.79
6.56
7.97
8.17
7.59
6.84
6.38
6.45
6.98
7.78
8.71
9.73
10.90
12.22
13.53
14.54
14.94
14.49
13.11
10.86
7.78
3.87
-0.90
-6.48
-12.58
-18.71
-24.19
-28.43
-31.05
-32.04
-31.66
-30.30
-28.37
-26.23
-24.16
-22.26
-20.48
-18.46
-15.69
-11.64
-6.09
0.74
8.18
15.31
21.32
25.69
28.25
29.03
28.13
25.68
21.91
17.22
12.18
7.43
3.47
0.55
-1.41
-2.70
-3.63
-4.42
-5.12
-5.72
-6.18
-6.56
-6.95
-7.46
-8.13
-8.91
-9.70
-10.40
-10.95
-11.36
-11.66
-11.91
-12.16
-12.54
-13.16
-14.07
-15.10
-15.85
-15.79
-14.44
-11.61
-7.50
-2.66
2.22
6.58
10.08
12.66
14.42
15.47
15.87
15.67
14.91
13.74
12.37
11.07
10.06
9.45
9.16
9.01
8.82
8.41
7.77
6.97
6.10
5.25
4.47
3.74
3.04
2.39
1.80
1.25
0.70
0.07
-0.73
-1.78
-3.12
-4.68
-6.26
-7.54
-8.10
-7.53
-5.62
-2.44
1.61
5.95
9.96
13.22
15.57
17.05
17.80
17.95
17.59
16.82
15.79
14.67
13.61
12.62
11.67
10.62
9.41
7.99
6.39
4.62
2.67
0.54
-1.72
-3.97
-6.00
-7.58
-8.58
-9.00
-8.97
-8.73
-8.52
-8.56
-8.97
-9.78
-10.93
-12.25
-13.47
-14.27
-14.36
-13.46
-11.47
-8.40
-4.46
-0.00
4.58
8.86
12.49
15.21
16.97
17.88
18.21
18.35
18.67
19.45
20.78
22.53
24.36
25.84
26.46
25.84
23.79
20.35
15.88
10.96
6.27
2.43
-0.11
-1.17
-0.78
0.87
3.53
6.89
10.70
14.69
18.70
22.64
26.56
30.62
35.07
40.13
45.89
52.23
58.76
64.90
69.97
73.28
74.28
72.58
68.02
60.67
50.81
38.92
25.57
11.45
-2.71
-16.19
-28.31
-38.47
-46.23
-51.37
-53.93
-54.23
-52.83
-50.48
-47.91
-45.79
-44.59
-44.53
-45.64
-47.75
-50.61
-53.88
-57.24
-60.40
-63.16
-65.48
-67.50
-69.44
-71.52
-73.85
-76.29
-78.41
-79.59
-79.12
-76.48
-71.52
-64.56
-56.36
-47.90
-40.10
-33.60
-28.67
-25.22
-22.95
-21.49
-20.46
-19.50
-18.26
-16.41
-13.74
-10.15
-5.73
-0.73
4.51
9.59
14.16
17.92
20.68
22.34
22.92
22.54
21.33
19.45
17.02
14.21
11.18
8.14
5.28
2.79
0.72
-0.91
-2.14
-2.91
-3.07
-2.34
-0.48
2.61
6.83
11.80
17.16
22.58
28.00
33.55
39.42
45.66
51.98
57.79
62.33
64.86
64.93
62.45
57.72
51.32
44.04
36.72
30.18
25.12
22.01
21.08
22.25
25.13
29.13
33.56
37.76
41.24
43.80
45.51
46.66
47.57
48.48
49.36
49.97
49.93
48.85
46.53
42.92
38.21
32.66
26.56
20.10
13.41
6.62
-0.10
-6.45
-12.08
-16.71
-20.24
-22.84
-24.86
-26.65
-28.39
-29.93
-30.91
-30.85
-29.35
-26.24
-21.61
-15.83
-9.45
-3.22
1.94
5.08
5.37
2.36
-3.88
-12.62
-22.65
-32.55
-41.08
-47.52
-51.81
-54.51
-56.47
-58.48
-60.92
-63.62
-65.91
-66.93
-65.92
-62.44
-56.51
-48.52
-39.13
-29.17
-19.45
-10.72
-3.56
1.70
5.04
6.76
7.40
7.61
8.04
9.19
11.27
14.29
17.97
21.93
25.74
29.07
31.72
33.63
34.84
35.39
35.33
34.67
33.47
31.90
30.17
28.58
27.35
26.59
26.28
26.26
26.37
26.50
26.64
26.83
27.05
27.19
27.00
26.15
24.33
21.40
17.44
12.77
7.80
2.94
-1.53
-5.43
-8.67
-11.19
-12.89
-13.66
-13.32
-11.72
-8.69
-4.11
2.06
9.73
18.53
27.76
36.33
42.92
46.18
45.07
39.10
28.43
13.81
-3.61
-22.52
-41.57
-59.45
-74.96
-87.11
-95.21
-98.94
-98.38
-93.90
-85.99
-75.21
-62.18
-47.68
-32.70
-18.33
-5.56
4.94
13.04
19.20
24.31
29.51
35.85
44.03
54.05
65.07
75.49
83.36
86.89
85.03
77.79
66.23
52.15
37.65
24.63
14.46
7.70
4.09
2.62
1.85
0.42
-2.56
-7.20
-12.90
-18.70
-23.73
-27.59
-30.40
-32.64
-34.79
-37.14
-39.64
-42.07
-44.18
-45.95
-47.62
-49.66
-52.62
-56.98
-63.02
-70.73
-79.63
-88.74
-96.47
-100.93
-100.36
-93.69
-80.97
-63.52
-43.61
-23.83
-6.52
6.79
15.41
19.44
19.44
16.26
10.87
4.28
-2.51
-8.65
-13.51
-16.77
-18.41
-18.59
-17.66
-15.94
-13.73
-11.16
-8.17
-4.53
0.09
5.83
12.49
19.34
25.19
28.66
28.63
24.64
17.10
7.26
-3.18
-12.45
-19.23
-22.83
-23.25
-21.02
-16.94
-11.86
-6.51
-1.50
2.66
5.46
6.51
5.57
2.74
-1.51
-6.40
-11.05
-14.70
-16.95
-17.76
-17.42
-16.35
-14.97
-13.64
-12.63
-12.15
-12.28
-12.94
-13.82
-14.36
-13.92
-12.02
-8.50
-3.62
2.01
7.65
12.69
16.74
19.69
21.62
22.68
23.04
22.89
22.47
21.99
21.64
21.52
21.65
22.03
22.73
23.91
25.71
28.13
30.86
33.38
35.13
35.74
35.15
33.67
31.69
29.56
27.41
25.21
22.80
20.07
16.91
13.24
8.98
4.16
-0.97
-5.79
-9.48
-11.19
-10.39
-7.07
-1.78
4.54
10.88
16.36
20.42
22.80
23.55
22.95
21.43
19.54
17.79
16.58
16.12
16.43
17.34
18.64
20.08
21.45
22.64
23.53
24.08
24.23
23.92
23.08
21.69
19.70
17.17
14.23
11.10
8.02
5.23
2.90
1.09
-0.18
-0.96
-1.31
-1.30
-1.06
-0.75
-0.55
-0.53
-0.61
-0.49
0.23
1.94
4.81
8.69
13.13
17.55
21.34
24.03
25.38
25.37
24.22
22.45
20.72
19.78
20.23
22.30
25.77
30.04
34.28
37.77
40.10
41.25
41.55
41.46
41.34
41.32
41.26
40.89
40.02
38.80
37.75
37.77
39.93
45.23
54.35
67.28
83.01
99.25
112.55
118.89
114.67
97.77
68.23
28.19
-18.75
-68.54
-117.47
-162.66
-201.72
-232.49
-253.07
-262.26
-260.01
-247.59
-227.32
-201.89
-173.78
-144.64
-115.27
-86.04
-57.47
-30.61
-6.90
12.29
26.24
34.86
39.17
41.08
42.73
45.77
51.03
58.55
67.95
78.67
89.24
98.66
106.75
113.96
120.66
126.85
132.31
136.85
140.53
141.82
140.22
136.90
133.95
132.57
132.04
129.95
123.16
108.85
82.43
42.29
-9.10
-66.30
-123.91
-178.34
-227.97
-272.51
-312.38
-352.10
-394.39
-438.09
-478.60
-510.47
-529.31
-532.46
-519.07
-465.15
-364.10
-231.53
-97.12
15.02
95.68
146.80
175.36
189.48
193.79
187.78
172.49
152.45
134.54
123.40
121.73
129.78
146.34
169.08
192.16
210.10
219.48
219.25
210.09
194.15
174.42
154.07
135.24
117.33
99.02
79.47
58.65
37.47
17.72
1.09
-11.19
-18.72
-21.66
-20.22
-14.76
-6.39
4.06
16.65
31.03
46.02
59.32
69.38
75.68
78.87
79.72
80.23
83.03
88.31
92.79
85.86
60.63
18.19
-33.19
-85.01
-135.32
-182.24
-223.12
-250.76
-258.83
-242.65
-202.31
-138.78
-65.35
0.64
47.87
75.26
88.72
94.71
97.37
97.07
94.45
85.74
70.40
52.13
36.04
25.94
23.61
29.53
42.50
58.46
71.65
78.03
76.25
66.66
49.69
26.36
-3.15
-36.19
-68.14
-95.22
-115.68
-130.46
-142.10
-152.91
-164.54
-171.37
-166.46
-145.41
-108.71
-60.91
-8.64
42.58
83.06
107.47
117.76
120.24
121.12
123.13
125.38
124.83
120.99
110.99
94.32
72.47
47.44
21.43
-3.35
-24.49
-39.52
-46.38
-43.42
-30.08
-7.99
18.32
42.45
57.96
59.99
46.10
16.17
-28.42
-83.89
-144.00
-200.72
-245.03
-268.83
-267.27
-240.26
-192.25
-130.45
-61.74
8.67
76.82
138.64
188.96
222.10
233.91
224.05
196.75
159.72
121.27
87.32
60.22
39.31
22.54
8.37
-3.47
-12.32
-17.42
-18.67
-16.83
-13.31
-9.67
-7.19
-6.55
-7.90
-11.02
-15.53
-21.00
-27.00
-33.13
-39.01
-44.24
-48.36
-50.92
-51.55
-50.09
-46.73
-42.03
-36.75
-31.64
-27.16
-23.37
-20.09
-17.08
-14.25
-11.71
-9.69
-8.23
-7.21
-6.33
-5.33
-4.13
-2.86
-1.72
-0.87
-0.26
0.28
0.91
1.72
2.70
3.79
5.02
6.45
8.17
10.19
12.33
14.36
15.98
17.07
17.65
17.95
18.29
18.99
20.21
21.94
23.93
25.83
27.28
28.04
28.05
27.43
26.44
25.41
24.68
24.48
24.94
25.92
27.08
27.92
27.96
26.96
25.06
22.73
20.63
19.29
18.91
19.26
19.82
19.91
18.97
16.62
12.67
7.08
-0.12
-8.80
-18.69
-29.39
-40.29
-50.60
-59.36
-65.54
-68.18
-66.62
-60.76
-51.19
-39.14
-26.22
-13.93
-3.36
5.11
11.72
17.07
21.75
26.16
30.41
34.35
37.77
40.42
42.14
42.77
42.23
40.52
37.76
34.21
30.13
25.75
21.08
15.96
10.13
3.42
-4.07
-11.96
-19.59
-26.27
-31.46
-34.90
-36.60
-36.78
-35.79
-34.03
-31.94
-29.96
-28.46
-27.64
-27.46
-27.66
-27.87
-27.76
-27.15
-26.04
-24.51
-22.67
-20.58
-18.36
-16.23
-14.48
-13.44
-13.24
-13.75
-14.51
-14.95
-14.55
-13.01
-10.33
-6.73
-2.48
2.15
6.93
11.58
15.84
19.46
22.33
24.50
26.18
27.62
29.00
30.36
31.66
32.82
33.92
35.12
36.62
38.48
40.56
42.45
43.62
43.46
41.43
37.20
30.71
22.28
12.56
2.43
-7.17
-15.53
-22.33
-27.59
-31.62
-34.72
-37.10
-38.77
-39.64
-39.61
-38.70
-36.93
-34.40
-31.16
-27.34
-23.14
-18.89
-14.99
-11.79
-9.47
-8.03
-7.26
-6.91
-6.74
-6.63
-6.57
-6.59
-6.73
-7.00
-7.38
-7.83
-8.31
-8.75
-9.13
-9.41
-9.59
-9.68
-9.65
-9.50
-9.21
-8.77
-8.23
-7.66
-7.19
-6.91
-6.94
-7.31
-7.96
-8.75
-9.44
-9.77
-9.54
-8.63
-7.09
-5.12
-2.97
-0.88
0.93
2.38
3.44
4.17
4.69
5.09
5.39
5.60
5.66
5.52
5.23
4.89
4.61
4.44
4.34
4.21
3.96
3.60
3.24
3.01
3.00
3.17
3.38
3.46
3.30
2.87
2.19
1.33
0.32
-0.81
-1.98
-3.06
-3.86
-4.14
-3.73
-2.61
-0.90
1.14
3.18
4.91
6.15
6.87
7.15
7.14
6.99
6.84
6.72
6.61
6.45
6.13
5.58
4.84
4.01
3.27
2.78
2.57
2.58
2.65
2.61
2.38
1.97
1.45
0.86
0.22
-0.51
-1.36
-2.30
-3.28
-4.23
-5.11
-5.89
-6.50
-6.77
-6.51
-5.57
-3.94
-1.82
0.42
2.39
3.83
4.71
5.17
5.43
5.63
5.78
5.78
5.51
5.00
4.34
3.72
3.29
3.09
3.07
3.14
3.22
3.24
3.19
3.05
2.78
2.37
1.82
1.19
0.54
-0.05
-0.57
-1.02
-1.45
-1.94
-2.52
-3.17
-3.76
-4.15
-4.17
-3.75
-2.91
-1.78
-0.53
0.71
1.87
2.96
4.00
4.98
5.86
6.55
6.97
7.11
7.00
6.68
6.23
5.72
5.21
4.77
4.44
4.22
4.04
3.80
3.44
2.96
2.46
2.04
1.79
1.69
1.64
1.50
1.16
0.59
-0.15
-1.02
-1.95
-2.89
-3.81
-4.63
-5.21
-5.41
-5.11
-4.25
-2.85
-1.07
0.90
2.80
4.38
5.49
6.08
6.21
6.03
5.67
5.25
4.81
4.32
3.77
3.20
2.67
2.27
2.05
1.99
1.99
1.91
1.66
1.22
0.63
-0.03
-0.66
-1.20
-1.62
-1.90
-2.08
-2.21
-2.37
-2.68
-3.24
-4.08
-5.06
-5.99
-6.57
-6.61
-6.01
-4.84
-3.29
-1.58
0.07
1.50
2.64
3.46
4.01
4.38
4.64
4.82
4.94
4.94
4.79
4.48
4.07
3.65
3.26
2.92
2.58
2.21
1.81
1.45
1.24
1.27
1.52
1.85
2.08
2.02
1.58
0.82
-0.14
-1.18
-2.22
-3.23
-4.21
-5.12
-5.84
-6.23
-6.15
-5.53
-4.44
-3.06
-1.61
-0.23
0.98
2.05
3.00
3.85
4.55
5.02
5.22
5.16
4.95
4.67
4.38
4.05
3.64
3.11
2.52
2.02
1.73
1.75
2.05
2.53
3.00
3.29
3.28
2.96
2.40
1.72
1.05
0.46
-0.06
-0.61
-1.28
-2.15
-3.19
-4.30
-5.36
-6.21
-6.77
-6.96
-6.75
-6.16
-5.24
-4.13
-2.98
-1.93
-1.08
-0.42
0.08
0.46
0.74
0.87
0.79
0.48
-0.03
-0.63
-1.18
-1.61
-1.90
-2.11
-2.31
-2.56
-2.86
-3.25
-3.75
-4.43
-5.32
-6.35
-7.37
-8.17
-8.56
-8.47
-7.95
-7.16
-6.33
-5.62
-5.08
-4.67
-4.23
-3.58
-2.56
-1.11
0.73
2.82
4.98
7.00
8.70
9.95
10.68
10.88
10.59
9.93
9.06
8.13
7.28
6.59
6.09
5.72
5.44
5.18
4.89
4.55
4.13
3.58
2.86
1.99
1.04
0.13
-0.63
-1.17
-1.55
-1.88
-2.29
-2.83
-3.47
-4.19
-4.99
-5.97
-7.29
-9.04
-11.16
-13.40
-15.40
-16.81
-17.46
-17.33
-16.59
-15.43
-14.01
-12.44
-10.75
-9.03
-7.42
-6.18
-5.55
-5.75
-6.81
-8.60
-10.80
-13.08
-15.14
-16.80
-18.02
-18.88
-19.45
-19.78
-19.86
-19.64
-19.10
-18.24
-17.11
-15.78
-14.31
-12.73
-11.10
-9.47
-7.87
-6.32
-4.81
-3.29
-1.75
-0.20
1.28
2.60
3.69
4.54
5.23
5.88
6.62
7.53
8.60
9.80
11.02
12.20
13.25
14.13
14.73
14.94
14.67
13.90
12.73
11.42
10.32
9.75
9.90
10.73
12.04
13.52
14.94
16.20
17.30
18.28
19.16
19.90
20.42
20.69
20.72
20.60
20.38
20.11
19.75
19.31
18.84
18.40
18.03
17.70
17.35
16.91
16.41
16.01
15.92
16.32
17.23
18.56
20.13
21.78
23.47
25.25
27.18
29.23
31.23
32.89
33.87
33.81
32.49
29.86
26.12
21.70
17.19
13.20
10.19
8.40
7.82
8.23
9.35
10.91
12.71
14.64
16.68
18.90
21.40
24.24
27.34
30.40
32.97
34.50
34.49
32.67
29.05
23.94
17.90
11.54
5.35
-0.36
-5.55
-10.35
-14.90
-19.35
-23.72
-28.00
-32.17
-36.23
-40.16
-43.84
-47.07
-49.53
-50.89
-50.90
-49.48
-46.81
-43.28
-39.53
-36.28
-34.18
-33.57
-34.36
-36.01
-37.68
-38.42
-37.38
-33.93
-27.77
-18.94
-7.81
4.84
17.87
29.83
39.28
45.17
47.32
46.57
44.63
43.47
44.64
48.74
55.29
63.19
71.33
79.18
86.88
94.99
103.76
112.63
119.95
123.31
120.23
108.87
88.72
60.84
27.64
-7.54
-41.13
-69.96
-91.80
-105.66
-111.81
-111.65
-107.19
-100.54
-93.42
-86.86
-81.22
-76.36
-71.90
-67.44
-62.65
-57.32
-51.38
-44.94
-38.34
-32.06
-26.60
-22.24
-18.90
-16.20
-13.63
-10.79
-7.66
-4.51
-1.85
-0.04
0.83
1.05
1.16
1.74
3.13
5.38
8.22
11.15
13.61
15.09
15.18
13.66
10.51
5.93
0.35
-5.70
-11.67
-17.16
-21.95
-26.04
-29.55
-32.60
-35.18
-37.19
-38.52
-39.13
-39.10
-38.58
-37.63
-36.22
-34.26
-31.68
-28.59
-25.14
-21.50
-17.63
-13.31
-8.30
-2.52
3.80
10.12
15.91
20.83
24.97
28.74
32.60
36.83
41.31
45.60
49.03
51.07
51.49
50.55
48.94
47.67
47.70
49.61
53.34
58.15
62.85
66.22
67.51
66.70
64.57
62.44
61.66
63.09
66.52
70.36
71.75
66.94
52.28
25.43
-13.41
-60.70
-109.79
-152.33
-180.70
-190.44
-181.82
-159.57
-131.13
-103.94
-83.25
-71.27
-67.75
-71.34
-80.39
-92.85
-105.44
-113.31
-111.02
-94.71
-64.37
-24.64
16.61
51.32
74.47
85.58
88.02
86.60
85.02
84.47
83.94
81.64
76.48
68.82
60.11
52.14
46.14
42.39
40.28
38.71
36.62
33.42
29.21
24.68
20.83
18.44
17.77
18.44
19.62
20.26
19.44
16.47
10.99
3.06
-6.75
-17.29
-26.82
-33.43
-35.53
-32.41
-24.54
-13.36
-0.87
10.99
20.52
26.38
27.79
24.94
19.24
13.22
9.65
10.25
14.60
20.15
23.36
21.74
15.50
7.71
2.93
5.00
15.26
32.17
52.33
72.00
88.59
101.26
110.43
116.89
121.00
122.24
119.51
111.74
98.07
78.84
55.61
30.39
4.61
-21.48
-48.27
-75.55
-101.59
-124.31
-140.99
-149.65
-150.07
-144.43
-136.53
-130.25
-127.98
-130.17
-137.72
-150.49
-167.37
-186.15
-204.28
-219.62
-230.71
-236.61
-236.70
-233.20
-228.26
-223.25
-218.58
-214.49
-212.01
-212.69
-217.64
-211.20
-183.01
-131.03
-63.36
7.87
73.21
127.83
170.08
200.32
220.20
230.05
231.26
225.36
214.40
200.15
183.30
163.53
141.00
116.66
89.51
58.99
25.76
-7.92
-38.46
-61.38
-72.19
-66.40
-41.21
1.36
55.77
114.44
169.52
214.18
243.13
252.47
241.35
211.91
167.90
115.13
60.60
11.11
-28.08
-51.03
-59.38
-58.38
-50.81
-39.56
-26.84
-14.06
-2.02
8.83
18.12
24.98
29.24
31.22
30.92
28.44
24.05
18.12
11.25
4.18
-2.68
-8.62
-13.08
-16.50
-19.89
-24.33
-30.50
-38.13
-45.89
-52.25
-55.58
-55.04
-51.14
-45.28
-38.94
-33.26
-28.50
-24.16
-19.55
-14.06
-7.35
0.49
9.34
19.24
30.10
42.05
55.28
69.57
84.06
97.29
107.72
114.32
116.95
115.55
110.81
103.86
95.76
86.92
77.22
66.28
53.76
39.30
21.24
-1.50
-28.75
-58.99
-89.96
-119.27
-144.94
-165.77
-181.52
-194.22
-205.31
-214.63
-220.68
-221.83
-217.34
-207.47
-193.21
-165.90
-123.82
-72.83
-22.96
18.22
48.02
67.03
77.36
81.52
80.94
75.18
64.71
51.61
38.90
29.03
23.55
22.69
25.53
30.44
34.53
35.85
34.26
31.02
27.69
25.34
24.30
24.27
24.49
23.41
20.17
15.28
10.25
6.70
5.59
7.02
10.20
13.64
15.30
13.62
8.75
2.29
-3.55
-6.63
-5.41
0.48
9.78
19.66
26.72
29.48
28.53
26.08
25.28
29.46
40.96
59.46
81.27
99.47
107.45
100.03
75.07
35.22
-11.59
-53.72
-80.05
-83.95
-65.92
-30.69
13.86
59.19
94.81
111.51
107.89
91.32
76.82
66.31
57.57
48.37
35.86
20.31
3.95
-10.16
-20.21
-26.55
-31.84
-37.37
-43.31
-49.13
-53.64
-55.42
-53.48
-48.16
-41.36
-36.06
-33.43
-33.13
-34.17
-35.18
-35.04
-33.21
-30.18
-27.34
-26.54
-28.19
-31.69
-36.04
-40.18
-43.47
-45.80
-47.52
-49.20
-51.13
-52.63
-52.57
-50.13
-45.28
-38.87
-32.31
-27.02
-23.85
-22.75
-22.71
-22.43
-21.00
-18.16
-14.02
-8.97
-3.43
2.48
8.98
16.42
24.87
33.86
42.41
49.69
54.87
57.10
55.91
51.57
45.19
38.50
33.48
32.14
36.87
48.73
66.18
85.17
100.48
107.77
105.43
95.51
83.04
74.92
76.03
86.54
102.51
118.45
130.10
135.83
136.29
126.75
105.44
74.77
39.76
5.70
-23.47
-45.12
-57.95
-62.43
-60.97
-57.39
-53.82
-52.15
-53.05
-55.75
-58.55
-59.95
-59.65
-58.96
-59.80
-61.91
-66.40
-73.74
-82.99
-92.06
-98.40
-99.81
-94.89
-82.89
-64.27
-41.73
-19.17
-0.67
10.63
13.76
10.27
3.72
-1.51
-2.07
2.88
12.14
23.51
34.37
42.98
48.77
52.30
54.78
57.39
60.61
64.42
68.29
70.13
67.68
59.10
43.90
23.10
-0.82
-24.33
-43.42
-54.43
-56.73
-51.52
-41.99
-32.34
-27.79
-33.80
-54.41
-89.97
-135.48
-182.92
-221.78
-243.54
-245.02
-231.01
-212.13
-199.33
-198.08
-193.67
-171.45
-123.39
-55.28
17.83
80.30
123.52
148.12
160.76
168.67
173.23
173.44
163.29
139.15
101.39
54.66
6.56
-35.72
-67.57
-89.04
-102.11
-109.60
-109.23
-100.18
-83.38
-60.57
-34.79
-9.16
13.64
33.53
52.38
73.07
96.66
122.22
148.82
174.82
198.34
217.18
229.77
234.84
231.25
217.18
183.02
127.42
58.99
-7.52
-60.26
-95.23
-115.30
-126.03
-132.25
-135.38
-132.22
-119.46
-96.96
-68.72
-40.78
-18.05
-2.10
8.30
14.89
19.63
22.31
21.02
14.04
1.77
-12.83
-25.83
-34.38
-37.59
-35.56
-29.43
-20.78
-10.95
-1.61
5.76
9.96
10.15
6.50
0.25
-7.30
-15.28
-23.19
-30.70
-37.21
-41.90
-44.24
-43.73
-40.35
-34.80
-28.02
-20.40
-12.06
-3.06
6.10
14.00
19.44
21.34
19.07
13.17
5.64
-1.14
-5.35
-6.34
-5.01
-2.06
1.90
6.38
7.72
3.96
-4.02
-12.93
-15.89
-12.90
-5.15
6.61
19.46
32.06
44.09
55.18
64.60
71.20
73.34
70.73
64.01
54.36
43.76
34.50
28.13
25.30
25.70
27.92
30.83
33.37
34.48
33.90
31.77
27.88
22.30
15.49
7.91
0.65
-5.15
-8.70
-9.11
-6.22
-1.61
3.12
6.98
9.06
9.06
7.13
3.80
0.87
0.19
1.71
5.72
12.94
23.35
36.37
51.06
66.42
82.86
100.73
118.21
134.23
148.99
162.55
174.87
185.83
188.04
177.38
164.79
154.22
142.47
128.35
111.14
90.60
67.06
41.42
16.28
-5.76
-24.56
-39.87
-51.04
-58.48
-63.43
-67.37
-71.63
-76.11
-80.43
-85.69
-92.36
-99.90
-107.87
-115.78
-123.07
-129.23
-133.44
-135.45
-136.63
-138.25
-140.94
-144.99
-150.20
-155.87
-160.99
-164.30
-164.96
-163.27
-160.04
-156.24
-152.97
-150.85
-149.58
-147.71
-142.89
-132.76
-116.14
-93.54
-67.25
-40.71
-17.37
0.49
12.39
19.42
23.47
26.11
28.17
29.75
30.66
30.88
30.72
30.60
30.58
29.99
27.42
21.24
10.35
-5.00
-22.90
-40.01
-52.56
-57.56
-53.83
-42.33
-25.54
-6.29
13.12
31.30
47.59
61.73
73.49
82.59
88.73
92.27
94.46
96.87
100.59
105.64
110.98
114.84
115.28
110.27
98.91
81.85
60.72
37.46
13.96
-7.63
-25.11
-36.81
-42.96
-44.90
-44.33
-43.24
-43.64
-46.98
-53.08
-60.87
-69.55
-80.34
-94.78
-112.75
-132.63
-151.62
-166.38
-172.89
-168.06
-142.58
-95.12
-34.57
24.87
70.65
95.34
96.35
76.58
45.26
10.20
-21.26
-41.55
-43.44
-23.93
14.14
63.67
115.48
159.11
186.38
193.34
175.06
136.48
89.68
53.55
34.30
33.63
48.75
76.05
109.61
142.07
166.73
177.54
162.66
118.97
58.01
-0.80
-41.74
-60.29
-61.45
-53.51
-43.88
-36.03
-30.27
-25.19
-20.71
-18.56
-21.56
-31.23
-46.35
-62.41
-72.68
-71.21
-56.31
-33.13
-8.49
11.69
24.69
30.25
30.72
29.33
28.76
30.20
33.06
36.00
37.68
37.68
36.55
35.38
34.87
35.04
35.32
34.91
33.44
30.93
27.93
25.17
23.42
22.97
23.52
24.37
24.91
24.94
24.58
24.06
23.52
22.99
22.24
20.97
19.08
16.88
15.13
14.59
15.76
18.71
23.07
28.12
32.87
36.25
37.30
35.30
29.95
21.44
10.52
-1.57
-13.40
-23.65
-31.39
-36.16
-37.98
-37.22
-34.48
-30.54
-26.35
-22.91
-21.07
-21.31
-23.53
-27.06
-30.92
-34.16
-36.18
-36.92
-36.70
-35.96
-34.95
-33.57
-31.45
-28.15
-23.43
-17.34
-10.29
-2.95
3.90
9.42
12.91
13.84
12.00
7.47
0.80
-7.03
-14.81
-21.41
-26.05
-28.40
-28.46
-26.41
-22.50
-16.88
-9.69
-1.30
7.51
15.60
21.83
25.43
26.26
24.54
20.86
16.00
10.67
5.38
0.36
-4.46
-9.37
-14.87
-22.06
-31.48
-42.72
-54.55
-65.55
-74.72
-81.71
-86.82
-90.85
-96.09
-104.20
-115.32
-127.85
-139.17
-146.29
-146.58
-138.67
-123.32
-105.43
-90.40
-81.98
-81.21
-87.16
-97.71
-110.29
-122.39
-132.13
-140.88
-149.54
-157.43
-162.65
-163.72
-160.08
-151.71
-138.55
-105.05
-46.99
26.13
96.38
149.42
180.43
192.45
192.08
186.20
179.86
172.91
164.20
153.60
142.42
131.76
122.31
113.88
105.94
98.31
89.86
81.31
75.31
75.26
80.71
87.46
90.05
85.08
72.96
56.20
38.95
25.54
18.53
18.00
22.27
28.65
34.18
35.95
31.17
18.80
0.91
-18.33
-34.57
-44.76
-48.47
-47.59
-45.09
-43.80
-46.41
-53.11
-63.53
-76.36
-88.57
-95.68
-93.00
-77.79
-49.77
-15.18
18.26
43.89
58.62
63.61
62.50
59.12
55.43
51.65
46.97
41.55
36.70
34.51
36.79
43.65
53.42
61.98
64.74
58.22
41.83
18.12
-7.78
-29.52
-42.06
-43.29
-34.59
-19.73
-3.20
11.73
23.77
32.55
39.25
44.99
50.23
54.93
59.01
62.17
63.67
62.80
57.00
44.49
25.19
1.31
-22.99
-43.06
-55.52
-59.38
-55.85
-47.56
-36.90
-25.75
-15.33
-6.52
-0.04
3.72
4.96
4.60
3.87
4.06
5.85
9.09
13.00
16.54
18.76
19.10
17.49
14.21
9.86
5.05
0.18
-4.31
-8.08
-10.81
-12.20
-12.02
-10.12
-6.43
-1.02
5.79
13.48
21.28
28.24
33.37
35.83
35.05
30.93
23.79
14.35
3.59
-7.47
-17.89
-26.94
-34.17
-39.43
-42.85
-44.81
-45.78
-46.26
-46.62
-47.04
-47.48
-47.69
-47.37
-46.25
-44.24
-41.47
-38.21
-34.84
-31.73
-29.11
-26.97
-25.05
-22.88
-19.94
-15.86
-10.60
-4.53
1.76
7.55
12.31
15.73
17.76
18.52
18.18
16.95
14.99
12.51
9.69
6.72
3.73
0.85
-1.78
-4.02
-5.73
-6.75
-7.07
-6.80
-6.23
-5.71
-5.52
-5.81
-6.53
-7.46
-8.42
-9.29
-10.16
-11.22
-12.68
-14.61
-16.91
-19.29
-21.39
-22.79
-23.14
-22.17
-19.80
-16.13
-11.49
-6.34
-1.19
3.60
7.82
11.48
14.66
17.43
19.77
21.61
22.95
23.82
24.38
24.73
24.90
24.84
24.47
23.80
22.97
22.19
21.59
21.14
20.66
19.91
18.73
17.16
15.33
13.44
11.61
9.89
8.23
6.62
4.99
3.25
1.26
-1.10
-3.77
-6.44
-8.61
-9.73
-9.47
-7.88
-5.41
-2.67
-0.22
1.61
2.77
3.28
3.13
2.20
0.38
-2.29
-5.52
-8.84
-11.81
-14.16
-15.84
-16.90
-17.34
-17.04
-15.78
-13.52
-10.44
-7.01
-3.72
-0.96
1.15
2.68
3.70
4.24
4.21
3.57
2.38
0.82
-0.91
-2.77
-4.90
-7.55
-10.86
-14.67
-18.48
-21.57
-23.31
-23.41
-22.01
-19.59
-16.78
-14.10
-11.82
-9.92
-8.17
-6.27
-3.95
-1.07
2.39
6.32
10.54
14.86
19.08
23.06
26.64
29.71
32.14
33.88
34.93
35.44
35.60
35.61
35.52
35.25
34.65
33.56
32.00
30.16
28.30
26.66
25.32
24.15
22.86
21.16
18.84
15.97
12.83
9.91
7.75
6.81
7.27
9.00
11.52
14.16
16.23
17.22
16.92
15.38
12.86
9.70
6.22
2.71
-0.58
-3.44
-5.64
-7.09
-7.81
-7.99
-7.94
-7.98
-8.30
-8.93
-9.72
-10.47
-11.04
-11.34
-11.43
-11.37
-11.24
-11.10
-10.98
-10.94
-11.06
-11.45
-12.22
-13.51
-15.37
-17.76
-20.46
-23.11
-25.13
-25.98
-25.18
-22.56
-18.30
-12.89
-7.02
-1.39
3.32
6.68
8.43
8.60
7.48
5.58
3.51
1.83
0.92
0.86
1.51
2.63
4.03
5.66
7.54
9.72
12.13
14.65
17.09
19.32
21.27
22.97
24.48
25.87
27.16
28.35
29.41
30.27
30.88
31.11
30.84
29.94
28.35
26.09
23.34
20.40
17.67
15.57
14.43
14.37
15.31
16.90
18.61
19.74
19.60
17.59
13.48
7.41
-0.05
-8.11
-15.95
-22.94
-28.74
-33.26
-36.49
-38.42
-38.97
-38.15
-36.13
-33.29
-30.15
-27.25
-24.99
-23.64
-23.28
-23.95
-25.58
-28.13
-31.45
-35.38
-39.66
-43.96
-47.93
-51.24
-53.66
-55.05
-55.37
-54.58
-52.57
-49.17
-44.17
-37.52
-29.44
-20.49
-11.42
-2.99
4.21
9.86
13.91
16.48
17.79
18.08
17.64
16.74
15.62
14.42
13.16
11.85
10.52
9.28
8.28
7.67
7.43
7.45
7.53
7.49
7.29
7.06
6.95
7.10
7.46
7.84
7.97
7.60
6.66
5.25
3.64
2.19
1.26
1.18
2.10
4.07
6.90
10.29
13.80
17.01
19.59
21.36
22.34
22.66
22.53
22.13
21.58
20.95
20.21
19.33
18.24
16.83
15.03
12.74
9.93
6.59
2.75
-1.54
-6.25
-11.29
-16.54
-21.78
-26.71
-31.02
-34.45
-36.96
-38.81
-40.48
-42.65
-45.95
-50.82
-57.30
-64.99
-73.10
-80.62
-86.58
-90.37
-91.91
-91.63
-90.30
-88.68
-87.27
-86.14
-84.99
-83.33
-80.78
-77.18
-72.68
-67.56
-62.06
-56.25
-49.94
-42.74
-34.31
-24.46
-13.31
-1.24
11.23
23.56
35.30
46.14
55.81
64.08
70.74
75.63
78.76
80.39
81.02
81.34
82.08
83.87
87.07
91.72
97.48
103.69
109.55
114.22
117.09
117.82
116.37
112.96
107.90
101.60
94.46
86.93
79.40
72.22
65.63
59.70
54.38
49.51
44.88
40.34
35.78
31.18
26.56
21.93
17.26
12.44
7.32
1.78
-4.17
-10.43
-16.77
-23.04
-29.11
-34.88
-40.19
-44.75
-48.12
-49.83
-49.57
-47.34
-43.50
-38.71
-33.89
-30.00
-27.89
-28.08
-30.59
-34.77
-39.37
-42.85
-43.87
-41.66
-36.29
-28.57
-19.74
-11.05
-3.37
2.92
7.87
11.66
14.44
16.25
17.05
16.86
15.79
14.08
12.10
10.15
8.41
6.99
6.01
5.64
6.09
7.51
9.77
12.79
16.14
19.11
20.87
20.87
19.10
16.11
12.89
10.41
9.85
11.70
15.49
19.99
23.95
26.67
28.07
28.74
29.32
31.11
34.87
40.41
46.64
52.43
57.09
60.47
62.99
65.04
68.06
72.96
79.67
87.02
93.47
97.70
98.68
96.00
82.35
54.79
16.37
-24.70
-60.27
-85.98
-101.07
-108.96
-112.44
-113.56
-112.71
-110.27
-106.44
-102.24
-98.50
-95.25
-91.93
-87.53
-81.61
-73.58
-63.64
-52.74
-42.24
-33.04
-25.31
-18.75
-12.89
-7.92
-4.10
-2.01
-2.06
-4.19
-7.56
-10.80
-12.69
-12.50
-10.53
-7.68
-5.05
-3.42
-3.06
-3.67
-4.77
-5.79
-5.92
-4.33
-0.35
6.14
14.40
22.76
28.98
31.11
27.37
18.54
8.42
1.82
1.47
6.64
14.19
20.66
23.80
23.14
19.34
13.36
5.69
-3.39
-13.28
-22.93
-30.65
-34.45
-32.68
-24.99
-12.36
2.95
18.16
30.57
38.05
39.41
33.55
21.70
6.58
-8.17
-20.04
-27.50
-30.30
-29.44
-26.57
-23.21
-18.81
-13.21
-6.24
1.78
10.33
18.82
26.79
33.55
37.37
35.39
24.37
3.38
-24.21
-50.53
-66.09
-64.29
-44.93
-14.64
16.51
39.76
51.79
55.08
55.02
55.70
57.52
57.63
52.66
41.34
25.17
7.36
-9.13
-22.71
-33.07
-40.27
-43.83
-42.80
-36.39
-24.96
-10.26
5.04
18.20
27.16
30.78
28.70
21.09
8.61
-7.55
-25.51
-43.02
-57.93
-68.88
-75.58
-78.61
-78.93
-77.31
-74.06
-69.13
-62.49
-54.34
-45.30
-36.12
-27.44
-19.54
-12.37
-5.74
0.47
6.23
11.43
15.90
19.45
21.90
23.04
22.82
21.35
19.07
16.64
14.66
13.38
12.54
11.48
9.57
6.53
2.69
-1.08
-3.72
-4.41
-3.09
-0.29
3.17
6.67
9.92
12.90
15.80
18.86
22.43
26.68
31.91
38.54
47.10
57.54
68.97
79.71
88.05
92.89
93.81
91.55
87.69
84.26
82.43
82.37
83.17
83.46
81.87
76.22
64.50
45.05
19.35
-8.16
-31.47
-46.23
-51.21
-47.51
-38.78
-28.30
-17.95
-7.71
2.54
12.78
22.26
28.41
31.52
30.68
26.03
18.49
10.10
1.83
-6.09
-14.63
-24.90
-37.28
-53.85
-75.70
-104.06
-133.24
-160.18
-183.15
-202.54
-219.35
-221.72
-203.48
-165.11
-114.70
-61.56
-12.92
28.08
59.67
81.64
95.44
99.39
96.19
88.01
77.48
66.25
55.33
43.12
27.40
6.81
-20.76
-50.91
-80.85
-107.84
-130.00
-135.78
-119.98
-86.39
-44.45
-4.12
29.74
56.10
76.68
93.82
109.43
122.77
130.33
130.18
122.87
110.66
97.40
86.15
78.61
75.15
73.70
68.18
54.58
32.76
6.45
-19.82
-42.99
-62.36
-80.34
-95.75
-114.68
-142.12
-179.41
-224.50
-274.71
-327.98
-381.83
-431.71
-448.72
-415.09
-333.74
-227.46
-122.95
-38.36
19.73
53.67
71.13
80.16
82.07
76.05
62.21
43.38
24.00
9.01
1.26
2.09
9.19
15.95
16.86
10.28
-1.55
-14.72
-24.06
-26.87
-22.79
-14.21
-6.16
-2.17
-2.61
-4.87
-4.76
5.30
25.59
55.09
90.09
125.38
157.29
184.45
207.27
227.06
248.79
275.12
305.79
337.30
365.17
386.70
401.12
408.97
386.29
323.39
227.86
120.61
20.89
-61.97
-126.75
-176.33
-214.73
-245.07
-265.88
-276.69
-279.05
-275.24
-269.83
-265.56
-263.48
-263.84
-265.87
-265.87
-261.44
-252.05
-239.12
-224.47
-208.40
-189.50
-170.42
-151.60
-131.32
-108.54
-82.71
-54.67
-26.03
2.13
29.26
54.86
79.61
104.72
130.79
159.05
189.47
220.83
252.03
282.89
313.77
346.13
380.05
412.92
442.16
463.37
471.76
464.71
443.40
411.71
376.15
341.88
311.62
289.04
275.06
267.20
260.60
250.05
230.69
201.47
163.83
102.43
17.37
-77.83
-164.18
-229.29
-266.16
-284.67
-292.66
-294.30
-291.09
-281.62
-264.94
-242.77
-218.69
-195.65
-175.85
-158.73
-143.64
-130.58
-117.79
-104.72
-92.40
-82.44
-75.01
-69.65
-64.32
-57.77
-50.00
-40.50
-29.67
-18.99
-10.23
-3.92
-0.14
2.10
3.47
4.26
5.31
7.23
10.15
11.09
8.89
3.91
-2.07
-7.59
-12.16
-15.78
-18.63
-20.46
-21.90
-22.95
-23.72
-24.39
-25.42
-27.17
-29.88
-33.06
-35.83
-37.30
-36.40
-32.71
-26.58
-18.89
-10.70
-3.17
2.91
7.19
9.62
10.62
10.60
9.81
8.41
6.38
3.19
-1.43
-7.36
-14.15
-21.10
-27.77
-34.10
-40.22
-46.45
-53.49
-61.47
-69.73
-77.08
-82.27
-84.50
-83.52
-79.49
-69.11
-51.74
-29.62
-6.84
12.97
27.84
37.23
41.59
42.44
41.33
39.03
36.28
33.78
31.96
30.84
30.07
29.16
27.91
26.39
24.32
21.54
17.94
13.43
7.86
1.17
-6.42
-14.29
-21.65
-27.97
-32.87
-36.16
-37.88
-38.40
-38.27
-37.99
-37.74
-37.23
-35.87
-32.77
-27.08
-18.47
-7.36
5.00
17.01
27.07
34.12
37.75
38.36
36.95
34.90
33.57
33.76
35.26
36.72
36.07
31.45
22.15
9.12
-5.37
-18.68
-28.82
-35.04
-37.63
-37.26
-34.39
-29.15
-21.64
-12.48
-2.96
5.33
11.11
13.97
14.47
13.73
12.89
12.65
13.03
13.58
13.69
12.99
11.57
9.89
8.55
7.99
8.28
9.06
9.75
9.81
9.00
7.45
5.57
3.91
2.90
2.74
3.28
4.03
4.25
3.20
0.35
-4.36
-10.51
-17.21
-23.43
-28.28
-31.35
-32.66
-32.54
-31.29
-29.06
-25.72
-20.96
-14.40
-5.92
4.21
15.26
26.39
36.74
45.57
52.23
56.29
57.74
56.71
53.42
47.99
40.92
32.91
24.76
17.25
11.14
7.30
6.34
8.21
12.08
17.13
22.59
27.77
32.09
35.25
37.59
39.56
41.46
43.00
44.21
45.19
45.88
45.90
42.45
34.02
21.19
8.08
-4.43
-16.68
-29.17
-41.68
-53.65
-64.30
-72.44
-77.10
-77.93
-75.52
-70.43
-63.29
-54.80
-45.81
-37.15
-29.19
-22.20
-16.47
-12.55
-10.45
-9.81
-10.12
-10.96
-12.06
-13.22
-14.45
-16.00
-18.28
-21.29
-24.67
-27.91
-30.61
-32.53
-33.56
-33.66
-32.89
-31.29
-28.75
-25.06
-20.19
-14.39
-8.24
-2.49
2.12
5.05
6.15
5.74
4.47
3.11
2.36
2.78
4.70
8.28
13.37
19.54
26.06
32.14
37.07
40.43
42.19
42.57
41.90
40.40
38.15
35.15
31.42
27.12
22.58
18.17
14.24
10.98
8.42
6.45
4.93
3.68
2.54
1.38
0.21
-0.83
-1.43
-1.28
-0.17
1.78
4.14
6.21
7.30
6.96
5.06
1.75
-2.59
-7.57
-12.75
-17.70
-22.01
-25.36
-27.62
-28.90
-29.52
-29.80
-29.92
-29.80
-29.10
-27.43
-24.50
-20.32
-15.18
-9.56
-3.99
1.10
5.43
8.91
11.54
13.40
14.68
15.59
16.35
17.16
18.07
18.96
19.58
19.66
19.03
17.72
15.97
14.14
12.64
11.78
11.71
12.39
13.59
14.87
15.69
15.42
13.56
9.86
4.47
-2.09
-8.96
-15.23
-20.15
-23.30
-24.64
-24.36
-22.82
-20.30
-17.04
-13.21
-9.06
-4.94
-1.29
1.41
2.80
2.69
1.15
-1.52
-4.91
-8.52
-11.91
-14.69
-16.67
-17.74
-17.92
-17.31
-15.98
-14.07
-11.79
-9.38
-7.12
-5.16
-3.46
-1.90
-0.40
0.91
1.62
1.16
-0.88
-4.43
-8.84
-13.01
-15.74
-16.15
-13.96
-9.55
-3.81
2.23
7.64
11.85
14.62
16.00
16.17
15.38
13.89
11.98
10.00
8.31
7.19
6.77
6.98
7.59
8.35
9.02
9.51
9.76
9.75
9.48
8.90
7.97
6.65
4.93
2.84
0.38
-2.40
-5.46
-8.73
-12.07
-15.27
-17.99
-19.82
-20.36
-19.38
-16.94
-13.36
-9.20
-5.04
-1.28
1.88
4.40
6.36
7.75
8.53
8.63
8.07
7.00
5.73
4.57
3.75
3.32
3.13
2.93
2.53
1.88
1.10
0.44
0.08
0.06
0.28
0.53
0.64
0.52
0.20
-0.26
-0.78
-1.25
-1.54
-1.47
-0.87
0.35
2.11
4.16
6.20
7.92
9.10
9.64
9.56
8.98
8.05
6.96
5.92
5.06
4.45
4.04
3.74
3.47
3.22
3.05
3.09
3.45
4.21
5.39
6.94
8.72
10.58
12.32
13.69
14.47
14.42
13.38
11.23
7.98
3.72
-1.35
-6.95
-12.71
-18.14
-22.66
-25.62
-26.50
-24.98
-21.13
-15.40
-8.58
-1.56
4.83
10.00
13.64
15.75
16.52
16.26
15.36
14.18
12.97
11.89
10.92
9.92
8.72
7.18
5.28
3.18
1.11
-0.67
-1.96
-2.69
-2.89
-2.71
-2.31
-1.89
-1.65
-1.75
-2.29
-3.25
-4.48
-5.74
-6.72
-7.22
-7.14
-6.54
-5.54
-4.29
-2.87
-1.38
0.11
1.50
2.66
3.49
3.92
3.93
3.56
2.88
2.01
1.13
0.43
0.09
0.14
0.47
0.87
1.14
1.14
0.88
0.48
0.09
-0.14
-0.13
0.12
0.54
1.04
1.48
1.73
1.74
1.52
1.15
0.83
0.82
1.35
2.61
4.67
7.44
10.68
14.08
17.30
20.03
22.10
23.45
24.13
24.35
24.35
24.47
25.00
26.21
28.22
31.09
34.78
39.19
44.14
49.39
54.64
59.54
63.77
67.03
69.12
69.95
69.61
68.42
66.94
65.93
66.13
68.00
71.49
75.90
80.03
82.53
82.35
79.04
72.88
64.63
55.16
45.03
34.23
22.17
7.86
-9.76
-31.37
-56.84
-85.07
-113.94
-140.66
-162.36
-176.69
-182.32
-179.20
-168.44
-151.93
-131.89
-110.44
-89.29
-69.61
-52.09
-36.96
-24.15
-13.38
-4.18
4.08
12.10
20.52
29.66
39.32
48.68
56.47
61.36
62.28
58.75
50.98
39.76
26.27
11.78
-2.48
-15.56
-26.84
-36.19
-43.93
-50.69
-57.14
-63.56
-69.57
-74.09
-75.59
-72.61
-64.44
-51.49
-35.39
-18.60
-3.72
7.18
13.05
13.85
10.29
3.39
-5.86
-16.69
-28.52
-40.87
-53.19
-64.92
-75.49
-84.37
-90.98
-94.67
-94.64
-90.05
-80.23
-64.96
-44.79
-21.22
3.46
26.49
45.28
58.00
64.11
64.41
60.77
55.45
50.46
47.03
45.41
45.09
45.22
44.93
43.64
41.07
37.18
32.06
25.81
18.55
10.33
1.13
-9.18
-20.79
-33.81
-48.08
-62.95
-77.26
-89.45
-97.94
-101.58
-99.98
-93.74
-84.22
-73.14
-62.07
-52.05
-43.40
-35.89
-29.04
-22.37
-15.63
-8.73
-1.68
5.47
12.64
19.68
26.30
32.18
37.00
40.59
42.95
44.30
44.93
45.19
45.43
45.91
46.78
47.95
49.09
49.73
49.52
48.42
46.76
45.09
43.84
42.98
41.96
39.96
36.31
30.95
24.57
18.46
14.08
12.58
14.40
19.14
25.73
32.76
38.85
43.01
44.86
44.56
42.67
39.93
36.98
34.25
31.79
29.35
26.40
22.37
16.86
9.86
1.76
-6.81
-15.25
-23.21
-30.64
-37.61
-44.11
-49.81
-54.19
-56.65
-56.82
-54.69
-50.55
-44.87
-38.19
-30.98
-23.77
-17.01
-11.11
-6.22
-2.10
1.87
6.43
12.05
18.54
24.87
29.46
30.72
27.54
19.78
8.22
-5.62
-19.76
-32.12
-40.72
-44.07
-41.48
-33.40
-21.38
-7.79
4.92
14.95
21.59
25.15
26.53
26.65
26.05
24.82
22.86
20.17
17.01
13.86
11.23
9.45
8.61
8.65
9.48
11.09
13.46
16.44
19.65
22.42
24.00
23.76
21.36
16.80
10.38
2.62
-5.84
-14.21
-21.66
-27.36
-30.72
-31.48
-29.81
-26.18
-21.27
-15.80
-10.44
-5.71
-2.06
0.24
1.09
0.64
-0.70
-2.33
-3.61
-3.91
-2.82
-0.17
3.78
8.39
12.77
15.95
17.26
16.49
14.17
11.47
9.85
10.54
14.04
19.96
27.24
34.55
40.62
44.93
47.71
49.59
50.97
51.62
50.83
47.90
42.57
35.09
26.66
19.18
14.36
13.06
14.75
18.07
21.43
23.49
22.90
19.15
12.58
3.86
-6.52
-18.70
-32.82
-48.61
-65.36
-82.65
-99.37
-113.67
-123.59
-127.70
-125.99
-119.11
-108.09
-89.65
-64.44
-36.92
-12.70
4.17
15.08
21.56
24.77
25.38
24.20
21.43
17.78
14.42
12.56
12.90
14.90
17.60
20.09
21.72
21.86
20.82
19.95
20.97
25.04
31.80
39.73
46.75
50.90
50.69
46.10
38.50
29.89
21.99
15.38
9.88
5.03
0.59
-3.25
-5.72
-5.74
-2.43
4.40
14.00
24.96
35.56
44.18
49.53
51.01
48.80
43.65
36.49
28.02
18.48
7.65
-4.75
-18.70
-33.46
-47.53
-59.06
-66.39
-68.72
-66.20
-59.70
-50.39
-39.38
-27.56
-15.58
-3.96
6.83
16.43
24.72
31.90
38.16
43.42
47.14
48.57
47.16
42.94
36.39
28.46
20.27
12.77
6.53
1.99
-0.34
0.20
4.14
10.90
19.45
28.66
37.59
45.51
52.00
56.99
60.72
63.39
63.75
60.89
54.92
46.83
37.67
28.06
18.12
7.66
-3.86
-18.94
-39.00
-63.31
-89.49
-115.13
-138.82
-160.13
-179.21
-196.53
-215.04
-236.17
-258.66
-279.16
-294.20
-301.43
-299.77
-289.17
-254.19
-191.08
-110.30
-30.51
34.13
79.24
107.28
122.91
131.55
136.13
135.64
129.85
120.73
111.85
105.49
102.33
101.44
101.17
99.79
94.35
83.76
69.46
54.68
42.48
34.85
32.61
35.80
43.83
54.49
65.78
76.54
86.32
94.75
101.11
104.46
103.88
98.73
88.46
73.68
56.34
39.27
25.09
15.39
10.41
9.29
10.48
12.19
13.01
12.17
9.43
4.79
-1.64
-9.66
-18.93
-29.07
-39.78
-50.98
-62.79
-75.27
-88.01
-99.95
-109.39
-114.49
-113.84
-107.07
-94.91
-78.95
-61.12
-43.13
-26.32
-11.66
0.04
8.14
12.27
12.59
9.94
5.61
0.92
-3.34
-7.17
-11.23
-16.30
-22.75
-30.11
-37.23
-42.66
-45.19
-44.21
-39.80
-32.52
-23.17
-12.70
-2.06
7.76
15.87
21.63
24.80
25.64
24.73
22.80
20.49
18.26
16.46
15.48
15.86
18.18
22.84
29.76
38.18
46.76
53.85
57.96
58.17
54.28
46.79
36.63
24.88
12.48
0.02
-12.22
-24.19
-35.88
-47.09
-57.32
-65.83
-71.88
-75.02
-75.24
-72.95
-68.79
-63.28
-56.78
-49.39
-41.21
-32.46
-23.60
-15.20
-7.75
-1.35
4.41
10.41
17.73
27.22
38.98
52.19
65.19
76.03
83.12
85.72
84.19
79.68
73.75
67.82
62.88
59.37
57.24
56.12
55.48
54.72
53.31
50.84
47.01
41.65
34.77
26.62
17.75
9.04
1.50
-3.90
-6.59
-6.56
-4.39
-1.05
2.32
4.75
5.57
4.50
1.56
-3.04
-9.08
-16.37
-24.79
-34.24
-44.47
-55.02
-65.11
-73.81
-80.19
-83.62
-83.95
-81.53
-76.97
-70.86
-63.58
-55.29
-46.12
-36.44
-26.98
-18.68
-12.36
-8.38
-6.41
-5.59
-4.80
-2.98
0.49
5.71
12.28
19.50
26.56
32.81
37.97
42.25
46.35
51.21
57.64
65.83
75.02
83.59
89.50
91.02
87.43
79.18
67.59
54.27
40.42
26.64
13.10
0.10
-11.58
-20.69
-25.80
-25.94
-21.03
-11.97
-0.50
11.28
21.40
28.35
31.30
30.16
25.47
18.20
9.44
0.12
-9.20
-18.35
-27.35
-36.12
-44.22
-50.82
-54.94
-55.73
-52.82
-46.42
-37.20
-26.15
-14.39
-3.10
6.44
12.98
15.55
13.77
8.12
-0.08
-8.92
-16.43
-21.11
-22.35
-20.61
-17.17
-13.80
-12.14
-13.21
-17.14
-23.14
-29.77
-35.33
-38.32
-37.73
-33.31
-25.53
-15.45
-4.40
6.37
15.97
23.94
30.14
34.57
37.25
38.23
37.75
36.33
34.77
33.92
34.35
36.14
38.88
41.81
44.15
45.23
44.72
42.57
39.04
34.57
29.66
24.75
20.04
15.50
10.91
6.02
0.81
-4.50
-9.52
-13.82
-17.15
-19.53
-21.17
-22.35
-23.28
-23.96
-24.19
-23.62
-21.87
-18.62
-13.77
-7.50
-0.38
6.73
12.88
17.25
19.39
19.28
17.33
14.20
10.72
7.66
5.70
5.29
6.53
9.18
12.70
16.34
19.45
21.57
22.52
22.33
21.10
18.87
15.52
10.80
4.50
-3.47
-12.86
-23.00
-32.84
-41.16
-46.82
-49.15
-48.09
-44.30
-38.96
-33.47
-29.07
-26.55
-26.12
-27.40
-29.67
-32.13
-34.15
-35.52
-36.39
-37.16
-38.18
-39.55
-40.98
-41.87
-41.54
-39.46
-35.49
-29.88
-23.16
-15.98
-8.91
-2.38
3.31
7.91
11.27
13.38
14.51
15.18
16.05
17.63
20.06
23.03
25.88
27.84
28.33
27.05
24.10
19.88
15.12
10.84
8.17
8.16
11.29
17.20
24.66
31.82
36.86
38.51
36.42
31.15
23.83
15.74
7.98
1.28
-3.95
-7.55
-9.51
-9.94
-9.05
-7.16
-4.62
-1.78
1.08
3.72
5.97
7.66
8.66
8.82
8.11
6.57
4.30
1.40
-2.11
-6.21
-10.85
-15.80
-20.63
-24.83
-27.93
-29.72
-30.28
-29.90
-28.92
-27.65
-26.30
-25.01
-23.87
-23.02
-22.50
-22.34
-22.42
-22.51
-22.38
-21.95
-21.32
-20.76
-20.54
-20.70
-20.92
-20.55
-18.71
-14.64
-7.99
1.03
11.78
23.26
34.38
44.06
51.31
55.72
57.32
56.57
54.29
51.50
48.94
47.10
45.90
44.85
43.93
43.35
43.45
44.64
47.26
51.29
56.70
63.06
69.54
75.89
81.60
85.76
87.16
84.88
78.48
68.81
57.22
45.12
34.66
27.32
23.40
22.21
22.73
23.85
25.42
27.50
23.93
11.74
-7.79
-29.89
-49.76
-62.46
-69.75
-73.50
-74.95
-74.63
-72.39
-67.71
-60.83
-52.90
-45.51
-40.51
-38.75
-40.60
-45.93
-53.19
-60.29
-65.35
-66.95
-64.24
-57.31
-46.52
-33.09
-18.89
-5.47
6.00
14.82
20.86
24.64
26.82
28.32
29.60
30.51
30.85
30.42
29.11
27.03
24.45
21.70
19.16
17.10
15.58
14.57
13.89
13.13
11.65
8.77
3.92
-3.10
-11.99
-22.06
-32.37
-41.97
-50.14
-56.50
-61.07
-64.15
-66.09
-67.22
-67.63
-67.20
-65.65
-62.64
-58.02
-51.95
-44.91
-37.66
-31.06
-25.75
-22.05
-19.84
-18.73
-18.25
-17.97
-17.64
-17.20
-16.55
-15.57
-14.04
-11.72
-8.47
-4.34
0.48
5.75
11.25
16.80
22.24
27.29
31.58
34.70
36.38
36.61
35.68
33.98
31.85
29.40
26.48
22.85
18.48
13.66
9.00
5.29
3.15
2.87
4.32
7.01
10.34
13.70
16.65
18.95
20.50
21.24
21.13
20.03
17.74
14.12
9.18
3.20
-3.25
-9.41
-14.51
-18.02
-19.70
-19.72
-18.52
-16.71
-14.92
-13.71
-13.44
-14.28
-16.17
-18.82
-21.82
-24.64
-26.78
-27.78
-27.30
-25.16
-21.32
-15.90
-9.21
-1.71
6.05
13.52
20.23
25.99
30.87
35.17
39.24
43.29
47.24
50.73
53.34
54.75
54.99
54.32
53.10
51.55
49.60
46.91
43.11
38.10
32.22
26.26
21.26
18.13
17.39
19.03
22.54
27.09
31.81
35.88
38.68
39.80
39.03
36.38
32.05
26.38
19.69
12.26
4.30
-3.95
-12.12
-19.67
-25.96
-30.38
-32.53
-32.27
-29.66
-24.94
-18.46
-10.71
-2.30
6.09
13.79
20.25
25.09
28.07
28.93
27.29
22.62
14.37
2.13
-14.09
-33.69
-55.42
-77.41
-97.40
-112.96
-121.80
-122.29
-113.84
-97.26
-74.85
-50.00
-26.40
-7.17
5.91
12.67
14.26
12.47
9.08
5.32
1.82
-1.22
-3.69
-5.40
-6.11
-5.66
-4.21
-2.18
-0.21
1.17
1.71
1.56
1.05
0.51
0.01
-0.64
-1.86
-4.04
-7.49
-12.26
-18.22
-24.93
-31.66
-37.42
-41.12
-41.84
-39.17
-33.31
-25.00
-15.32
-5.30
4.20
12.66
19.74
25.19
28.77
30.28
29.63
26.95
22.52
16.75
10.14
3.20
-3.62
-9.93
-15.26
-19.00
-20.45
-19.10
-14.64
-7.15
2.85
14.44
26.41
37.48
46.54
52.79
55.72
55.36
52.34
47.69
42.39
36.96
31.27
25.09
18.18
10.26
1.35
-8.07
-17.21
-25.19
-31.33
-35.25
-38.65
-41.49
-43.79
-45.78
-47.82
-50.38
-53.83
-58.44
-64.28
-68.68
-69.88
-67.02
-60.05
-49.67
-37.16
-24.05
-11.78
-1.15
7.87
15.66
22.57
28.80
34.43
39.52
44.18
48.46
52.61
56.93
61.17
64.30
64.86
61.61
54.02
42.41
27.72
11.56
-4.02
-17.08
-26.08
-29.72
-26.83
-16.68
1.07
23.28
43.87
57.03
60.19
54.26
42.29
27.93
14.31
3.53
-3.49
-6.32
-4.95
-0.12
6.41
12.05
14.23
11.24
2.66
-10.67
-26.86
-43.62
-57.82
-67.39
-71.71
-71.28
-67.20
-60.90
-53.90
-47.17
-40.82
-34.10
-25.94
-15.51
-2.94
11.24
25.44
37.60
46.07
50.19
50.43
47.84
43.65
38.74
33.47
27.66
21.06
13.64
5.78
-1.89
-9.25
-15.85
-21.42
-25.76
-28.80
-30.32
-30.04
-27.68
-23.19
-16.93
-9.56
-1.95
5.17
11.23
16.02
19.49
21.60
22.32
21.60
19.67
16.88
13.84
11.20
9.49
8.90
9.29
10.27
11.45
12.69
13.96
15.43
17.27
19.57
22.15
24.53
26.21
26.78
26.22
24.57
22.09
18.93
15.13
10.53
4.90
-1.73
-9.06
-16.49
-23.68
-30.18
-35.51
-38.92
-39.46
-36.45
-29.66
-19.65
-7.37
5.98
19.60
32.28
43.39
52.82
59.77
62.07
56.88
44.38
24.82
0.88
-23.12
-42.82
-55.58
-61.61
-61.61
-57.77
-52.24
-46.63
-40.93
-34.36
-26.29
-17.18
-8.63
-2.32
0.91
2.42
3.86
6.71
11.55
18.42
27.21
37.60
48.60
58.49
65.32
66.38
60.39
48.39
34.04
22.25
16.91
19.19
27.10
36.59
43.04
43.10
35.00
19.12
-1.53
-22.82
-41.38
-55.45
-64.32
-68.04
-67.09
-62.21
-54.42
-44.97
-35.32
-26.99
-21.07
-17.80
-16.60
-16.25
-15.37
-12.91
-8.66
-3.38
1.53
4.90
6.30
6.16
5.48
5.44
6.83
9.62
12.87
15.25
15.59
13.54
9.09
3.55
-1.80
-6.21
-9.84
-13.64
-18.86
-26.36
-36.05
-45.67
-54.24
-60.67
-64.32
-65.59
-65.58
-65.64
-66.87
-70.06
-75.68
-83.72
-92.76
-99.72
-100.33
-90.64
-69.12
-38.07
-3.26
28.14
50.39
61.57
63.58
60.38
55.74
51.52
47.66
43.33
38.24
33.02
28.98
26.94
26.64
26.93
26.48
24.35
20.68
16.47
12.98
11.24
11.61
13.49
16.04
18.30
19.84
20.84
21.87
23.45
25.77
28.59
31.31
33.46
34.86
35.77
36.74
38.23
40.37
42.81
45.03
46.46
46.93
46.65
46.11
45.96
46.80
49.13
53.08
57.99
62.14
63.00
58.01
45.83
27.27
5.39
-15.56
-31.77
-41.29
-44.51
-43.40
-40.25
-36.60
-32.93
-29.12
-25.17
-21.61
-19.23
-18.57
-19.47
-21.06
-22.28
-22.20
-20.48
-17.43
-13.78
-10.36
-7.86
-6.66
-6.79
-8.02
-9.86
-11.75
-13.21
-14.06
-14.43
-14.70
-15.34
-16.22
-17.33
-18.68
-20.28
-22.23
-24.59
-27.27
-29.95
-32.13
-33.33
-33.31
-32.10
-29.95
-27.17
-24.03
-20.73
-17.40
-14.24
-11.45
-9.24
-7.69
-6.73
-6.21
-5.95
-5.87
-5.88
-5.93
-5.94
-5.87
-5.75
-5.69
-5.86
-6.41
-7.43
-8.91
-10.75
-12.79
-14.82
-16.56
-17.68
-17.86
-16.90
-14.84
-11.93
-8.62
-5.45
-2.91
-1.39
-1.03
-1.77
-3.24
-4.87
-5.99
-6.08
-4.99
-2.98
-0.68
1.11
1.77
1.03
-0.90
-3.49
-6.09
-8.15
-9.42
-9.97
-10.14
-10.34
-10.91
-11.95
-13.32
-14.54
-14.88
-13.54
-9.86
-3.65
4.56
13.50
21.36
26.32
27.13
23.62
16.81
8.55
0.96
-4.19
-5.95
-4.11
0.90
8.37
17.45
27.31
37.06
45.84
52.96
58.03
61.10
62.68
63.53
64.39
65.84
68.09
71.02
74.29
77.48
80.25
82.37
83.81
84.62
84.88
84.69
84.01
82.72
80.55
77.17
72.33
66.02
58.56
50.53
42.57
35.04
27.83
20.54
12.69
4.12
-4.80
-13.27
-20.42
-25.70
-29.17
-31.37
-33.03
-34.65
-36.37
-37.99
-39.21
-39.85
-39.94
-39.76
-39.57
-39.28
-38.55
-36.93
-34.05
-29.90
-24.76
-19.14
-13.77
-9.27
-5.88
-3.52
-1.90
-0.62
0.66
2.10
3.60
4.65
4.60
3.20
0.42
-3.53
-8.23
-13.33
-18.72
-23.30
-26.07
-26.97
-26.73
-26.47
-26.80
-27.51
-28.16
-28.39
-28.01
-27.12
-27.37
-28.16
-28.79
-28.98
-28.56
-27.51
-25.86
-23.70
-21.39
-19.58
-18.90
-18.35
-17.98
-17.84
-17.92
-18.10
-18.18
-18.12
-18.02
-17.85
-17.78
-18.26
-19.54
-21.60
-24.21
-26.96
-29.51
-31.62
-33.17
-34.25
-35.26
-36.44
-37.73
-38.98
-40.01
-40.75
-41.18
-41.25
-40.99
-40.76
-41.09
-42.23
-44.18
-46.34
-47.44
-45.75
-39.66
-28.47
-12.96
4.85
22.79
38.80
51.51
60.35
65.45
67.43
67.30
66.15
65.03
65.15
66.99
70.08
73.36
75.94
77.92
80.50
85.44
90.09
91.89
88.78
80.29
67.33
51.23
33.23
14.21
-5.30
-24.90
-43.19
-58.58
-69.58
-74.86
-74.03
-67.91
-58.47
-48.24
-39.58
-33.53
-30.01
-28.05
-26.48
-24.40
-21.41
-17.59
-13.59
-10.26
-8.00
-6.81
-6.22
-5.66
-4.83
-3.83
-3.03
-3.10
-4.62
-7.48
-11.00
-13.79
-14.46
-12.22
-7.04
0.34
8.46
15.58
20.53
22.79
23.03
22.37
21.75
21.73
22.33
22.88
22.33
20.06
15.91
10.88
6.33
3.45
1.28
-0.13
0.11
2.43
7.28
10.93
9.23
-0.36
-19.59
-45.71
-72.67
-94.04
-105.74
-107.46
-102.38
-94.53
-87.01
-81.09
-76.06
-70.55
-64.03
-57.13
-50.88
-45.99
-41.51
-35.84
-27.70
-16.39
-2.21
13.73
29.96
45.18
58.60
70.76
82.08
92.31
100.65
106.21
108.43
107.33
103.50
98.11
93.64
91.92
93.34
97.04
101.55
105.53
108.04
108.57
107.35
106.37
106.99
109.10
111.20
111.42
108.38
101.39
90.38
67.93
33.29
-7.42
-44.39
-70.40
-83.78
-87.23
-84.54
-80.69
-78.97
-79.41
-81.07
-82.83
-83.87
-84.08
-82.64
-79.06
-73.66
-67.27
-59.99
-52.30
-45.08
-39.30
-35.46
-33.21
-31.92
-31.02
-29.97
-27.77
-23.95
-18.71
-12.78
-6.90
-1.47
3.43
7.79
11.65
15.00
17.25
17.39
14.54
8.70
1.16
-6.00
-10.75
-11.79
-8.95
-3.11
4.40
12.44
20.45
28.28
35.78
42.49
47.77
51.06
52.33
52.16
51.47
51.10
51.55
52.69
54.00
54.86
54.87
54.03
52.75
51.68
51.44
52.35
54.21
56.30
57.50
56.60
52.70
45.54
35.59
23.91
11.79
0.42
-9.43
-17.50
-23.87
-28.78
-32.43
-34.99
-36.62
-37.64
-38.48
-39.72
-41.91
-45.41
-50.21
-55.90
-61.81
-67.33
-71.90
-75.18
-77.19
-78.28
-78.99
-79.70
-80.40
-80.63
-79.83
-77.27
-72.35
-64.98
-55.79
-45.86
-36.39
-28.31
-22.12
-18.19
-16.11
-14.60
-11.93
-6.67
1.57
11.67
21.09
26.77
26.16
19.15
8.53
-1.20
-5.94
-3.52
5.88
20.26
39.21
59.44
75.44
82.10
77.39
62.78
42.04
20.01
1.16
-11.87
-18.84
-21.09
-20.34
-17.80
-14.07
-9.44
-4.28
0.68
4.26
5.53
4.31
1.54
-1.17
-2.42
-1.60
0.92
3.87
4.60
2.02
-4.40
-13.97
-25.04
-35.69
-44.63
-51.45
-55.19
-57.85
-60.89
-65.32
-71.53
-79.65
-89.45
-99.70
-107.47
-108.44
-98.54
-75.71
-42.05
-3.56
31.87
57.71
71.32
74.50
71.83
67.82
65.11
63.76
62.37
59.68
55.62
51.24
47.99
46.76
47.51
49.49
51.42
52.30
51.61
49.71
47.41
45.87
45.98
48.40
52.72
58.64
66.27
75.76
86.50
96.10
100.47
94.47
75.97
46.53
11.69
-21.03
-45.24
-58.21
-61.39
-58.73
-54.27
-50.09
-46.41
-42.46
-37.86
-33.27
-29.96
-28.87
-29.65
-31.07
-31.51
-29.84
-26.03
-21.01
-16.19
-12.84
-11.48
-11.73
-12.57
-12.79
-11.59
-8.95
-5.43
-1.97
0.63
2.02
2.43
2.44
2.77
3.86
5.74
8.11
10.50
12.50
13.96
14.98
15.84
16.84
18.19
19.87
21.74
23.60
25.19
26.39
27.09
27.25
26.84
25.72
23.85
21.22
17.82
13.74
9.11
4.14
-0.94
-5.90
-10.12
-13.69
-16.54
-18.61
-19.92
-20.51
-20.49
-19.98
-19.13
-18.26
-17.31
-16.32
-15.31
-14.34
-13.42
-12.61
-11.94
-11.39
-10.94
-10.51
-10.09
-9.62
-9.13
-8.67
-8.29
-8.06
-8.00
-8.05
-8.13
-8.19
-8.18
-8.14
-8.15
-8.32
-8.76
-9.49
-10.42
-11.32
-12.06
-12.55
-12.85
-13.19
-13.89
-15.23
-17.23
-19.66
-21.99
-23.77
-24.68
-24.75
-24.34
-23.99
-24.20
-24.91
-25.92
-26.09
-24.58
-21.06
-15.96
-10.41
-5.86
-3.61
-3.98
-6.32
-9.29
-11.60
-12.44
-11.87
-10.77
-10.38
-12.05
-16.63
-24.74
-36.43
-50.76
-65.07
-75.23
-76.79
-65.99
-44.49
-17.28
8.77
27.54
36.14
35.57
29.45
21.75
14.77
8.56
2.27
-4.72
-11.98
-18.36
-22.80
-25.21
-26.46
-27.94
-30.96
-35.62
-40.93
-45.23
-46.89
-44.92
-39.21
-30.41
-19.68
-8.25
3.29
14.84
26.59
38.72
51.03
62.23
71.66
78.61
82.55
83.51
82.03
78.89
74.91
70.69
66.91
63.40
59.93
56.32
52.57
48.80
45.16
41.81
38.80
36.11
33.69
31.47
29.37
27.32
25.32
23.37
21.45
19.57
17.70
15.89
14.21
12.69
11.41
10.44
9.80
9.50
9.52
9.80
10.27
10.87
11.48
11.99
12.35
12.42
12.10
11.60
10.64
9.20
7.31
4.97
2.25
-0.74
-4.01
-7.54
-11.29
-15.21
-19.14
-22.95
-26.49
-30.01
-32.99
-35.26
-36.80
-37.63
-37.79
-37.33
-36.00
-34.11
-31.79
-29.18
-26.42
-23.73
-21.31
-19.25
-17.50
-15.92
-14.40
-12.80
-11.15
-9.39
-7.75
-6.38
-5.29
-4.29
-3.03
-1.23
1.33
4.53
8.32
12.30
16.09
19.62
23.12
27.03
31.74
37.44
42.48
47.03
50.68
53.01
53.85
53.42
52.18
50.70
50.59
51.54
53.78
56.91
59.80
60.54
56.90
47.22
31.39
11.22
-10.25
-29.28
-43.46
-52.10
-56.09
-57.01
-56.18
-54.18
-51.00
-46.71
-41.47
-36.01
-31.13
-27.26
-24.28
-21.68
-18.86
-15.40
-11.47
-7.45
-3.91
-1.32
0.16
0.64
0.42
-0.53
-2.18
-4.57
-7.52
-10.61
-13.16
-14.56
-14.39
-12.62
-9.61
-5.91
-2.26
0.74
2.74
3.68
3.57
2.50
0.70
-1.54
-3.92
-6.42
-9.11
-11.96
-14.78
-17.34
-19.25
-19.98
-18.89
-15.47
-9.77
-2.36
5.79
13.24
18.23
19.26
15.15
6.31
-4.93
-15.79
-25.07
-32.47
-37.21
-38.81
-37.01
-31.85
-23.77
-13.83
-3.61
5.26
11.80
15.81
17.57
17.68
16.72
15.13
13.06
10.45
7.29
3.91
0.80
-1.64
-3.12
-3.47
-2.64
-0.70
2.08
5.37
8.90
12.43
15.82
19.09
22.29
25.43
28.28
30.41
31.37
30.97
29.23
26.55
23.53
20.65
18.02
15.40
12.39
8.76
4.65
0.34
-3.60
-6.55
-8.23
-8.90
-9.27
-10.33
-13.04
-17.97
-25.35
-34.50
-43.81
-51.23
-54.99
-54.03
-48.25
-38.51
-24.58
-8.40
6.62
17.53
23.44
25.44
25.31
24.98
24.76
24.39
23.12
20.54
16.85
12.71
8.69
5.49
3.89
3.72
3.70
1.81
-2.70
-8.47
-13.08
-14.17
-10.79
-3.62
5.37
14.16
21.05
25.44
27.26
26.83
24.34
19.62
12.58
3.70
-5.33
-12.14
-13.66
-7.08
8.77
32.27
58.85
82.20
96.26
97.44
85.20
62.53
34.65
6.80
-17.53
-37.32
-53.56
-68.26
-79.82
-87.12
-90.20
-90.31
-88.76
-85.95
-81.78
-76.52
-70.99
-66.12
-62.76
-60.32
-57.34
-52.64
-46.17
-39.19
-33.52
-30.70
-31.67
-37.31
-48.12
-61.68
-74.21
-80.81
-76.71
-59.24
-29.39
9.06
46.29
74.01
88.60
91.57
87.80
82.43
78.40
75.81
73.12
68.72
62.94
57.46
54.09
53.58
55.38
58.30
61.16
63.58
65.48
67.43
68.19
65.69
57.85
43.85
24.93
4.29
-14.13
-27.25
-33.67
-34.06
-30.35
-24.69
-18.71
-13.31
-8.99
-6.15
-5.11
-5.82
-7.76
-9.97
-11.40
-11.24
-9.34
-6.22
-2.90
-0.43
0.58
0.08
-1.40
-3.07
-4.26
-4.69
-4.12
-2.72
-0.74
1.57
4.10
6.79
9.52
12.07
14.12
15.39
15.70
15.10
13.85
12.32
10.93
9.96
9.53
9.57
9.86
10.11
10.03
9.40
8.09
5.98
3.02
-0.75
-5.14
-9.79
-14.26
-18.13
-21.10
-23.08
-24.20
-24.63
-24.53
-23.94
-22.84
-21.18
-18.99
-16.44
-13.78
-11.30
-9.28
-7.87
-7.15
-7.08
-7.50
-8.12
-8.49
-8.06
-6.36
-3.10
1.65
7.50
13.83
20.05
25.74
30.65
34.65
37.59
39.29
39.48
38.03
34.99
30.66
25.57
20.28
15.25
10.75
6.75
3.05
-0.69
-4.75
-9.20
-13.93
-18.62
-22.92
-26.57
-29.51
-31.85
-33.78
-35.51
-37.21
-39.04
-41.05
-43.20
-45.18
-46.41
-46.18
-43.89
-39.35
-32.93
-25.47
-17.97
-11.26
-5.75
-1.49
1.71
3.99
5.35
5.72
5.07
3.56
1.57
-0.43
-2.00
-2.96
-3.43
-3.77
-4.39
-5.61
-7.47
-9.72
-11.89
-13.46
-14.05
-13.57
-12.18
-10.31
-8.44
-6.99
-6.27
-6.40
-7.30
-8.71
-10.14
-10.89
-10.25
-7.67
-3.00
3.40
10.73
17.99
24.33
29.24
32.64
34.77
35.92
36.38
36.28
35.66
34.55
33.00
31.11
29.03
26.86
24.70
22.61
20.66
18.87
17.31
16.00
14.90
13.96
13.08
12.15
11.08
9.80
8.18
6.01
2.97
-1.19
-6.51
-12.56
-18.54
-23.48
-26.67
-27.99
-27.99
-27.73
-28.29
-30.44
-34.44
-40.08
-46.84
-54.07
-61.05
-67.05
-71.47
-73.97
-74.61
-73.87
-72.47
-71.05
-70.02
-69.38
-68.89
-68.20
-67.00
-65.09
-62.32
-58.53
-53.62
-47.53
-40.39
-32.46
-24.05
-15.37
-6.51
2.60
11.97
21.48
30.79
39.48
47.21
53.94
59.86
65.28
70.38
75.07
79.08
82.09
83.97
84.75
84.60
83.61
81.68
78.60
74.13
68.14
60.69
51.99
42.35
32.13
21.70
11.43
1.54
-7.94
-17.21
-26.57
-36.33
-46.54
-56.98
-67.14
-76.40
-84.22
-90.27
-94.53
-97.21
-98.75
-99.64
-100.26
-100.72
-100.70
-99.43
-95.89
-89.16
-78.77
-65.05
-49.08
-32.45
-16.78
-3.25
7.67
16.15
22.79
28.22
32.78
36.34
38.49
38.81
37.17
34.00
30.21
26.86
24.88
24.74
26.34
29.15
32.41
35.36
37.36
37.99
37.10
34.79
31.42
27.60
24.08
21.53
20.47
21.07
23.18
26.28
29.65
32.61
34.68
35.73
36.01
35.97
36.02
36.43
37.23
38.35
39.71
41.36
43.36
45.72
48.33
50.96
53.33
55.26
56.75
57.93
58.95
59.88
60.63
60.97
60.62
59.34
57.11
54.04
50.38
46.44
42.47
38.65
35.01
31.56
28.24
25.04
21.92
18.87
15.90
13.10
10.71
9.17
8.98
10.58
14.12
19.37
25.60
31.77
36.68
39.42
39.46
36.77
31.71
24.99
17.53
10.31
4.08
-0.86
-4.64
-7.86
-11.38
-16.11
-22.53
-30.37
-38.65
-46.03
-51.23
-53.17
-51.45
-46.53
-39.76
-33.08
-28.13
-26.21
-27.95
-33.46
-41.52
-50.21
-57.46
-61.80
-62.51
-58.80
-50.64
-38.83
-25.50
-12.24
-0.43
8.82
14.48
16.09
15.19
13.68
13.06
12.93
13.68
15.64
19.10
23.72
29.06
36.31
46.26
58.61
70.51
80.59
88.29
93.91
97.75
91.02
69.91
37.36
9.87
-9.60
-21.99
-31.67
-40.11
-48.01
-55.67
-61.70
-65.12
-65.99
-66.60
-67.44
-68.15
-67.83
-66.22
-63.39
-58.49
-51.02
-41.34
-31.58
-22.63
-14.80
-8.03
-2.53
1.39
4.22
6.37
7.83
7.61
5.67
2.48
-1.08
-4.30
-6.66
-7.57
-6.92
-5.19
-3.59
-2.89
-3.49
-5.35
-8.33
-12.17
-16.41
-20.46
-23.69
-25.62
-25.79
-24.03
-20.56
-15.99
-10.97
-5.99
-1.23
3.30
7.59
11.50
14.77
17.19
18.75
19.63
20.18
20.71
21.36
22.14
22.93
23.58
23.96
23.97
23.53
22.54
20.89
18.48
15.19
10.99
5.90
0.11
-6.13
-12.49
-18.67
-24.53
-30.05
-35.31
-40.33
-44.89
-48.43
-50.15
-49.22
-45.11
-37.85
-28.12
-17.05
-5.91
4.30
12.96
19.84
24.96
28.32
29.88
29.60
27.51
23.77
18.68
12.63
6.12
-0.32
-6.07
-10.53
-13.22
-13.89
-12.60
-9.71
-5.76
-1.40
2.76
6.22
8.60
9.69
9.37
7.54
4.03
-1.36
-8.65
-17.44
-26.72
-34.83
-39.81
-39.93
-34.29
-23.22
-8.23
8.34
23.92
36.35
44.32
47.48
46.40
42.18
36.24
29.98
24.63
21.03
19.61
20.20
22.09
24.21
25.36
24.60
21.55
16.45
10.02
3.20
-3.20
-8.67
-12.98
-16.07
-17.92
-18.43
-17.49
-15.36
-12.57
-10.09
-8.90
-9.34
-11.12
-13.62
-16.32
-18.92
-21.65
-24.55
-27.34
-29.42
-30.03
-28.69
-25.35
-20.23
-14.27
-8.70
-4.60
-2.62
-2.75
-4.36
-6.47
-8.15
-8.77
-8.19
-6.65
-4.46
-1.83
1.20
4.71
8.64
12.63
16.04
18.02
17.87
15.27
10.35
3.60
-4.18
-12.06
-19.03
-24.12
-26.50
-25.65
-21.45
-14.20
-4.56
6.60
18.29
29.48
39.08
45.97
49.19
48.17
42.97
34.39
23.85
12.98
3.24
-4.49
-10.08
-13.98
-16.98
-19.82
-22.89
-26.13
-29.08
-31.10
-31.63
-30.43
-27.67
-23.92
-19.89
-16.19
-13.09
-10.48
-7.97
-5.14
-1.78
2.03
6.06
10.08
14.06
18.10
22.32
26.64
30.76
34.27
36.92
38.65
39.39
38.87
36.49
31.67
24.30
15.16
5.78
-2.04
-7.05
-9.06
-8.88
-7.74
-6.66
-5.93
-5.20
-3.89
-1.59
1.65
5.45
9.39
13.19
16.89
20.75
25.10
30.00
35.11
39.67
42.70
43.41
41.51
37.41
32.02
26.37
21.24
16.94
13.45
10.66
8.60
7.57
7.98
10.11
13.93
19.00
24.56
29.71
33.66
35.84
36.01
34.22
30.76
25.99
20.24
13.69
6.37
-1.88
-11.26
-21.86
-33.47
-45.46
-56.72
-65.93
-71.82
-73.60
-71.24
-65.60
-58.16
-50.71
-44.86
-41.55
-40.98
-42.58
-45.23
-47.59
-48.52
-47.58
-45.21
-42.77
-41.87
-43.81
-48.70
-55.22
-61.03
-63.69
-61.58
-54.49
-43.42
-29.86
-15.50
-1.56
11.08
21.67
29.43
33.74
34.49
32.40
29.14
26.24
25.04
26.01
28.57
31.40
32.86
31.68
27.31
20.59
12.67
5.30
0.11
-1.99
-1.44
-0.38
-2.33
-11.58
-27.06
-46.11
-63.84
-75.32
-77.78
-71.60
-59.75
-46.30
-35.19
-27.74
-23.73
-21.46
-19.25
-16.34
-13.07
-10.56
-9.88
-13.43
-20.49
-30.76
-44.10
-60.11
-77.32
-92.46
-100.91
-94.56
-72.14
-36.96
3.38
40.28
67.27
82.08
86.42
84.05
78.70
72.04
65.08
58.31
52.68
49.48
49.55
53.46
59.37
65.27
69.17
70.78
71.10
71.99
75.47
82.89
94.12
107.03
117.92
122.06
115.93
98.50
71.99
41.31
12.26
-10.51
-25.09
-32.20
-34.46
-34.47
-33.83
-32.88
-31.36
-29.21
-26.89
-25.34
-25.25
-26.80
-29.39
-31.95
-33.42
-33.32
-31.84
-29.68
-27.67
-26.27
-25.40
-24.55
-23.08
-20.59
-17.21
-13.48
-10.20
-7.99
-7.11
-7.37
-8.27
-9.21
-9.74
-9.66
-8.98
-7.82
-6.31
-4.57
-2.60
-0.42
1.98
4.55
7.19
9.77
12.13
14.12
15.65
16.71
17.34
17.59
17.50
17.07
16.25
15.01
13.36
11.32
8.97
6.43
3.86
1.49
-0.48
-1.88
-2.68
-2.97
-2.96
-2.95
-3.30
-4.33
-6.29
-9.30
-13.30
-18.05
-23.12
-28.07
-32.46
-36.01
-38.53
-40.01
-40.52
-40.24
-39.39
-38.12
-36.44
-34.17
-31.05
-26.84
-21.51
-15.44
-9.22
-3.56
0.97
4.16
6.09
7.03
7.33
7.24
6.95
6.55
6.13
5.75
5.47
5.28
5.11
4.89
4.53
3.95
3.11
1.94
0.41
-1.36
-3.11
-4.39
-4.63
-3.32
-0.16
4.80
11.18
18.39
25.83
32.98
39.50
45.23
50.14
54.34
57.99
61.28
64.40
67.46
70.49
73.40
75.99
78.04
79.36
79.73
78.92
76.67
72.72
66.85
58.91
48.90
37.05
23.81
9.80
-4.26
-17.59
-29.37
-38.78
-45.36
-48.87
-49.36
-47.19
-43.06
-37.94
-32.84
-28.55
-25.40
-23.61
-22.97
-22.83
-22.22
-20.16
-16.08
-10.08
-3.01
3.72
7.93
8.01
3.72
-3.70
-12.11
-19.51
-24.72
-27.57
-28.54
-29.20
-30.89
-34.19
-39.01
-44.83
-51.56
-59.77
-70.57
-79.85
-84.72
-84.35
-80.06
-73.85
-66.45
-58.04
-48.88
-39.39
-29.85
-21.03
-13.35
-7.08
-2.79
-0.69
-1.04
-3.44
-6.60
-8.88
-9.48
-8.51
-6.91
-7.30
-10.43
-17.32
-28.76
-44.62
-63.15
-80.98
-93.10
-91.79
-74.79
-44.05
-6.19
29.92
56.92
71.65
75.61
73.33
69.46
66.13
63.39
59.81
54.40
47.85
42.13
39.16
39.71
43.06
47.09
49.84
50.62
49.29
47.09
45.81
46.85
50.60
56.38
62.83
69.09
74.63
79.08
81.72
81.09
75.46
64.12
48.37
31.40
17.42
9.41
7.94
11.15
15.74
18.63
18.15
14.06
6.70
-3.61
-17.21
-34.04
-52.91
-71.38
-86.45
-95.68
-98.22
-95.25
-86.96
-75.39
-62.61
-50.09
-38.58
-28.40
-19.86
-12.55
-7.19
-4.58
-4.96
-7.16
-9.20
-9.23
-6.22
-0.28
7.03
14.57
21.25
26.04
28.50
28.66
26.86
23.53
18.96
13.36
7.03
0.37
-6.31
-12.55
-17.91
-22.06
-24.81
-26.07
-25.77
-23.81
-20.07
-14.58
-7.62
0.22
7.96
14.51
18.90
20.57
19.51
16.22
11.37
5.72
-0.16
-5.89
-11.24
-16.07
-20.21
-23.29
-24.67
-23.78
-20.29
-14.18
-5.82
4.02
14.40
24.21
32.60
39.23
43.78
46.02
45.98
43.96
40.46
36.02
30.83
25.11
19.44
14.04
8.97
4.43
0.61
-2.42
-4.88
-7.66
-11.51
-16.38
-22.01
-27.56
-31.38
-31.46
-26.24
-13.33
6.12
25.68
41.60
51.96
55.56
52.63
44.66
33.97
23.15
14.16
8.43
6.98
9.24
13.34
17.05
18.42
16.32
10.74
2.25
-8.02
-18.60
-28.84
-38.71
-48.23
-57.06
-64.30
-68.63
-68.97
-64.69
-55.75
-43.18
-28.73
-14.29
-1.48
8.55
15.23
18.47
18.74
17.17
15.04
13.63
13.98
16.62
21.45
27.75
34.35
39.92
43.45
44.30
42.35
37.95
31.70
24.19
15.89
7.12
-1.87
-10.77
-19.25
-26.92
-33.43
-38.50
-41.87
-43.38
-42.94
-40.64
-36.85
-32.27
-27.79
-24.37
-22.78
-23.31
-25.76
-29.48
-33.58
-37.18
-39.67
-40.70
-40.26
-38.44
-35.49
-31.70
-27.49
-23.39
-19.94
-17.61
-16.66
-17.04
-18.35
-19.97
-21.14
-21.18
-19.68
-16.59
-12.23
-7.20
-2.11
2.55
6.51
9.69
12.11
13.82
14.84
15.26
15.21
14.84
14.23
13.30
11.84
9.58
6.32
2.09
-2.81
-7.86
-12.45
-16.05
-18.40
-19.46
-19.44
-18.70
-17.61
-16.42
-15.26
-14.06
-12.72
-11.14
-9.31
-7.38
-5.52
-3.90
-2.56
-1.42
-0.30
0.92
2.27
3.68
5.00
6.13
7.08
7.96
8.93
10.20
11.92
14.21
17.09
20.47
24.09
27.57
30.52
32.61
33.68
33.74
32.89
31.31
29.15
26.55
23.69
20.75
17.95
15.44
13.31
11.51
9.92
8.35
6.64
4.70
2.54
0.26
-1.97
-3.96
-5.54
-6.62
-7.22
-7.45
-7.49
-7.50
-7.59
-7.72
-7.71
-7.28
-6.18
-4.31
-1.76
1.17
4.10
6.73
8.92
10.69
12.13
13.29
14.08
14.39
14.16
13.47
12.57
11.79
11.33
11.22
11.25
11.14
10.66
9.77
8.56
7.25
6.01
4.99
4.20
3.64
3.22
2.84
2.34
1.54
0.32
-1.37
-3.44
-5.63
-7.59
-8.95
-9.41
-8.83
-7.25
-4.92
-2.19
0.58
3.08
5.11
6.60
7.52
7.87
7.62
6.71
5.15
3.04
0.61
-1.80
-3.85
-5.31
-6.08
-6.21
-5.83
-5.09
-4.08
-2.89
-1.58
-0.24
1.03
2.18
3.23
4.25
5.28
6.31
7.19
7.65
7.42
6.34
4.45
2.02
-0.48
-2.52
-3.64
-3.59
-2.36
-0.22
2.40
5.03
7.21
8.68
9.34
9.28
8.73
7.98
7.31
6.91
6.83
7.02
7.29
7.43
7.20
6.48
5.23
3.58
1.74
-0.06
-1.61
-2.83
-3.77
-4.58
-5.42
-6.41
-7.52
-8.56
-9.25
-9.25
-8.35
-6.52
-4.00
-1.16
1.57
3.86
5.57
6.72
7.40
7.69
7.62
7.18
6.45
5.58
4.72
4.01
3.46
3.00
2.48
1.82
1.02
0.15
-0.76
-1.67
-2.63
-3.65
-4.71
-5.72
-6.61
-7.33
-7.98
-8.70
-9.63
-10.77
-11.94
-12.80
-12.95
-12.10
-10.18
-7.39
-4.11
-0.81
2.13
4.45
6.07
7.05
7.52
7.66
7.59
7.43
7.24
7.04
6.82
6.55
6.17
5.64
4.93
4.08
3.20
2.47
2.03
1.95
2.15
2.44
2.60
2.43
1.90
1.09
0.11
-0.92
-1.92
-2.85
-3.66
-4.20
-4.26
-3.66
-2.27
-0.19
2.33
4.91
7.16
8.88
10.03
10.76
11.25
11.64
11.92
12.00
11.82
11.40
10.88
10.41
10.11
9.94
9.79
9.45
8.83
7.94
6.89
5.85
4.93
4.12
3.34
2.44
1.32
-0.08
-1.75
-3.65
-5.71
-7.89
-10.10
-12.23
-14.09
-15.46
-16.14
-15.97
-14.90
-13.00
-10.48
-7.66
-4.86
-2.39
-0.42
0.99
1.89
2.38
2.54
2.42
2.02
1.38
0.56
-0.33
-1.22
-2.05
-2.86
-3.70
-4.62
-5.61
-6.59
-7.43
-8.03
-8.37
-8.57
-8.81
-9.23
-9.87
-10.65
-11.37
-11.85
-12.04
-11.99
-11.90
-11.91
-12.06
-12.22
-12.13
-11.55
-10.27
-8.28
-5.67
-2.68
0.41
3.31
5.79
7.66
8.83
9.28
9.01
8.08
6.57
4.57
2.21
-0.38
-3.05
-5.62
-7.96
-9.97
-11.59
-12.84
-13.74
-14.30
-14.48
-14.23
-13.48
-12.24
-10.66
-8.97
-7.43
-6.30
-5.75
-5.85
-6.54
-7.66
-8.95
-10.05
-10.61
-10.30
-8.96
-6.63
-3.54
-0.10
3.26
6.20
8.54
10.29
11.58
12.62
13.53
14.38
15.14
15.71
16.03
16.05
15.78
15.27
14.59
13.79
12.94
12.04
11.08
9.99
8.74
7.30
5.73
4.07
2.35
0.52
-1.56
-4.03
-7.01
-10.43
-14.07
-17.53
-20.29
-21.81
-21.55
-19.17
-14.60
-8.15
-0.49
7.49
14.89
21.04
25.55
28.37
29.61
29.47
28.18
25.99
23.16
19.91
16.44
12.90
9.34
5.83
2.44
-0.69
-3.42
-5.65
-7.37
-8.66
-9.68
-10.62
-11.61
-12.68
-13.86
-15.10
-16.39
-17.72
-19.08
-20.40
-21.55
-22.42
-22.94
-23.15
-23.15
-23.01
-22.67
-21.91
-20.48
-18.19
-15.04
-11.22
-7.07
-2.95
0.86
4.17
6.84
8.79
9.97
10.42
10.31
9.96
9.75
10.04
11.07
12.85
15.21
17.87
20.58
23.22
25.82
28.52
31.48
34.81
38.56
42.66
46.97
51.26
55.21
58.45
60.59
61.36
60.59
58.31
54.61
49.59
43.30
35.75
27.03
17.41
7.41
-2.27
-10.84
-17.61
-22.09
-24.08
-23.63
-21.01
-16.63
-11.02
-4.76
1.54
7.31
12.04
15.36
17.07
17.22
16.11
14.25
12.29
10.88
10.55
11.58
13.87
16.91
19.79
21.27
20.14
15.50
7.22
-3.96
-16.48
-28.33
-37.50
-42.53
-42.72
-38.20
-29.86
-19.05
-7.29
4.03
13.92
21.85
27.79
31.99
34.77
36.31
36.61
35.46
32.51
27.40
19.90
10.08
-1.61
-14.28
-26.77
-37.98
-47.27
-54.66
-60.75
-66.44
-72.38
-78.66
-84.71
-89.63
-92.52
-92.87
-90.68
-86.35
-80.38
-73.26
-65.35
-57.00
-48.64
-40.77
-33.89
-28.27
-23.87
-20.27
-16.84
-12.88
-7.89
-1.66
5.69
13.78
22.09
30.12
37.51
44.11
49.86
54.70
58.41
60.57
60.66
58.18
52.91
44.92
34.64
22.78
10.32
-1.55
-11.53
-18.43
-21.45
-20.49
-16.25
-10.04
-3.41
2.33
6.46
8.83
9.75
9.57
8.49
6.45
3.29
-1.11
-6.64
-12.96
-19.49
-25.61
-30.66
-34.11
-35.58
-35.01
-32.66
-29.20
-25.52
-22.50
-20.79
-20.56
-21.48
-22.88
-23.94
-23.98
-22.60
-19.75
-15.68
-10.79
-5.57
-0.47
4.11
7.87
10.61
12.23
12.71
12.15
10.73
8.75
6.62
4.85
3.95
4.38
6.40
10.01
15.00
20.96
27.48
34.24
41.03
47.70
54.03
59.59
63.73
65.74
65.07
61.52
55.47
47.76
39.55
32.05
26.22
22.58
21.19
21.66
23.34
25.53
27.68
29.48
30.90
32.03
32.90
33.27
32.51
29.72
23.94
14.53
1.49
-14.39
-31.58
-48.12
-62.14
-72.29
-78.02
-79.61
-77.98
-74.27
-69.55
-64.60
-59.86
-55.54
-51.67
-48.27
-45.28
-42.61
-40.04
-37.30
-34.07
-30.11
-25.35
-19.89
-13.98
-7.94
-2.02
3.63
8.99
14.07
18.87
23.32
27.34
30.90
34.09
37.04
39.88
42.63
45.14
47.16
48.40
48.65
47.83
45.94
43.06
39.28
34.81
29.94
25.11
20.86
17.65
15.79
15.36
16.28
18.33
21.33
25.06
29.28
33.69
37.94
41.69
44.71
46.96
48.55
49.69
50.57
51.31
51.97
52.53
52.89
52.89
52.24
50.58
47.60
43.07
37.05
29.89
22.12
14.36
7.12
0.71
-4.80
-9.61
-14.03
-18.36
-22.80
-27.37
-31.91
-36.15
-39.84
-42.82
-45.08
-46.74
-47.95
-48.87
-49.52
-49.84
-49.73
-49.12
-48.08
-46.73
-45.29
-43.93
-42.79
-41.95
-41.48
-41.48
-42.05
-43.23
-44.94
-46.96
-49.03
-50.91
-52.50
-53.73
-54.48
-54.50
-53.40
-50.77
-46.44
-40.59
-33.69
-26.41
-19.31
-12.75
-6.83
-1.58
2.97
6.66
9.27
10.58
10.53
9.25
7.07
4.41
1.74
-0.60
-2.43
-3.71
-4.47
-4.76
-4.56
-3.82
-2.52
-0.72
1.34
3.37
5.04
6.14
6.63
6.61
6.24
5.71
5.19
4.81
4.72
5.06
5.95
7.38
9.23
11.30
13.33
15.13
16.59
17.71
18.44
18.73
18.48
17.57
16.03
13.99
11.66
9.24
6.87
4.55
2.19
-0.32
-3.03
-5.92
-8.86
-11.65
-14.04
-15.76
-16.64
-16.61
-15.73
-14.21
-12.32
-10.37
-8.61
-7.22
-6.27
-5.70
-5.36
-5.07
-4.69
-4.19
-3.67
-3.32
-3.27
-3.55
-4.04
-4.53
-4.80
-4.80
-4.63
-4.47
-4.52
-4.85
-5.36
-5.87
-6.23
-6.38
-6.44
-6.56
-6.86
-7.33
-7.84
-8.19
-8.24
-7.97
-7.48
-6.97
-6.60
-6.48
-6.68
-7.21
-8.13
-9.45
-11.10
-12.84
-14.30
-15.02
-14.63
-12.99
-10.27
-6.92
-3.54
-0.71
1.19
2.07
2.05
1.39
0.33
-0.99
-2.57
-4.49
-6.85
-9.69
-12.91
-16.32
-19.66
-22.66
-25.09
-26.76
-27.49
-27.16
-25.70
-23.22
-19.98
-16.43
-13.03
-10.19
-8.11
-6.79
-6.07
-5.79
-5.85
-6.21
-6.78
-7.34
-7.53
-6.97
-5.43
-2.95
0.16
3.40
6.33
8.67
10.40
11.65
12.61
13.37
13.98
14.39
14.60
14.65
14.65
14.73
15.00
15.51
16.24
17.10
17.96
18.68
19.15
19.29
19.09
18.63
17.98
17.28
16.63
16.14
15.82
15.64
15.41
14.83
13.53
11.16
7.53
2.74
-2.85
-8.70
-14.20
-18.84
-22.23
-24.15
-24.47
-23.16
-20.32
-16.16
-11.03
-5.38
0.37
5.86
10.85
15.20
18.83
21.68
23.73
24.95
25.37
25.02
23.90
22.04
19.45
16.22
12.60
8.95
5.73
3.32
1.94
1.61
2.13
3.21
4.56
5.95
7.22
8.28
9.09
9.63
9.94
10.06
10.02
9.85
9.57
9.15
8.62
8.04
7.53
7.25
7.33
7.84
8.74
9.84
10.91
11.68
11.89
11.37
10.03
7.90
5.12
1.92
-1.40
-4.55
-7.28
-9.41
-10.87
-11.67
-11.94
-11.90
-11.84
-12.02
-12.65
-13.81
-15.46
-17.45
-19.60
-21.70
-23.52
-24.85
-25.49
-25.34
-24.41
-22.85
-20.87
-18.71
-16.56
-14.51
-12.57
-10.70
-8.84
-6.98
-5.17
-3.58
-2.42
-1.87
-1.95
-2.52
-3.27
-3.84
-4.02
-3.79
-3.35
-2.97
-2.91
-3.28
-4.02
-4.96
-5.84
-6.46
-6.63
-6.31
-5.55
-4.56
-3.64
-3.04
-2.90
-3.09
-3.30
-3.07
-2.09
-0.27
2.15
4.67
6.76
8.00
8.30
7.93
7.38
7.16
7.58
8.66
10.08
11.37
12.05
11.73
10.21
7.51
3.79
-0.58
-5.07
-9.04
-11.84
-13.00
-12.30
-9.85
-6.09
-1.62
2.92
6.96
10.11
12.16
13.10
13.02
12.11
10.55
8.57
6.41
4.38
2.78
1.85
1.71
2.29
3.37
4.64
5.82
6.77
7.51
8.17
8.85
9.57
10.21
10.56
10.39
9.63
8.34
6.78
5.24
4.01
3.33
3.37
4.25
6.07
8.82
12.35
16.34
20.27
23.53
25.54
25.95
24.69
22.00
18.40
14.46
10.71
7.46
4.85
2.83
1.26
0.01
-1.09
-2.22
-3.50
-4.85
-5.90
-6.03
-4.55
-1.09
4.06
9.89
14.99
18.05
18.40
16.27
12.60
8.64
5.47
3.68
3.45
4.64
7.02
10.38
14.50
19.09
23.78
28.19
31.99
35.02
37.21
38.55
38.94
38.16
35.99
32.33
27.38
21.71
16.07
11.17
7.34
4.34
1.45
-2.33
-7.82
-15.41
-24.83
-35.25
-45.42
-54.00
-59.82
-62.20
-61.03
-56.78
-50.40
-42.97
-35.52
-28.79
-23.23
-18.94
-15.85
-13.71
-12.23
-11.05
-9.86
-8.41
-6.63
-4.60
-2.50
-0.54
1.15
2.59
3.95
5.45
7.29
9.63
12.53
16.01
20.00
24.39
28.92
33.19
36.70
38.96
39.66
38.75
36.51
33.42
30.01
26.73
23.86
21.50
19.61
18.05
16.63
15.12
13.28
10.95
8.07
4.69
1.00
-2.64
-5.84
-8.19
-9.40
-9.44
-8.54
-7.13
-5.74
-4.73
-4.28
-4.32
-4.64
-5.09
-5.63
-6.35
-7.36
-8.71
-10.32
-12.02
-13.61
-14.96
-16.01
-16.76
-17.21
-17.31
-17.01
-16.29
-15.19
-13.83
-12.36
-10.90
-9.49
-8.12
-6.75
-5.37
-4.03
-2.81
-1.76
-0.96
-0.47
-0.33
-0.55
-1.08
-1.75
-2.35
-2.67
-2.61
-2.23
-1.75
-1.40
-1.37
-1.70
-2.33
-3.14
-3.97
-4.66
-5.09
-5.10
-4.57
-3.47
-1.89
-0.03
1.83
3.45
4.68
5.48
5.92
6.07
6.02
5.78
5.38
4.82
4.11
3.32
2.57
2.00
1.79
2.10
3.03
4.55
6.48
8.52
10.27
11.38
11.59
10.77
8.94
6.24
2.84
-1.03
-5.13
-9.19
-12.86
-15.78
-17.60
-18.08
-17.23
-15.25
-12.54
-9.58
-6.76
-4.27
-2.13
-0.25
1.41
2.83
3.88
4.46
4.55
4.30
3.93
3.65
3.55
3.58
3.62
3.53
3.28
2.91
2.48
2.08
1.71
1.37
1.01
0.61
0.13
-0.45
-1.16
-2.04
-3.09
-4.27
-5.49
-6.58
-7.31
-7.47
-6.94
-5.73
-3.96
-1.86
0.31
2.36
4.12
5.54
6.56
7.19
7.47
7.45
7.23
6.88
6.52
6.24
6.11
6.16
6.33
6.55
6.67
6.60
6.31
5.78
5.04
4.12
3.05
1.85
0.55
-0.79
-2.12
-3.41
-4.65
-5.83
-6.92
-7.85
-8.49
-8.69
-8.30
-7.23
-5.52
-3.31
-0.87
1.46
3.45
4.94
5.92
6.50
6.78
6.85
6.77
6.55
6.25
6.00
5.91
6.09
6.50
7.00
7.31
7.23
6.66
5.68
4.50
3.36
2.39
1.60
0.87
0.05
-0.94
-2.13
-3.49
-4.98
-6.58
-8.24
-9.91
-11.52
-13.00
-14.31
-15.44
-16.39
-17.14
-17.64
-17.87
-17.82
-17.51
-17.05
-16.51
-15.95
-15.37
-14.73
-14.01
-13.20
-12.32
-11.33
-10.18
-8.75
-6.96
-4.79
-2.36
0.14
2.43
4.26
5.46
5.98
5.84
5.17
4.13
2.91
1.67
0.57
-0.35
-1.08
-1.66
-2.08
-2.25
-2.01
-1.17
0.33
2.43
4.90
7.45
9.79
11.71
13.11
13.93
14.15
13.81
13.00
11.93
10.81
9.89
9.28
8.94
8.70
8.34
7.68
6.61
5.16
3.39
1.41
-0.63
-2.57
-4.14
-5.08
-5.22
-4.55
-3.32
-2.00
-1.16
-1.29
-2.62
-5.09
-8.29
-11.57
-14.20
-15.48
-14.94
-12.37
-7.91
-1.99
4.79
11.76
18.38
24.30
29.42
33.80
37.58
40.84
43.54
45.44
46.14
45.10
41.79
35.88
27.48
17.33
6.69
-2.86
-9.93
-13.75
-14.43
-12.82
-10.09
-7.34
-5.18
-3.70
-2.64
-1.61
-0.35
1.34
3.64
6.76
11.00
16.62
23.67
31.99
41.14
50.53
59.51
67.38
73.43
76.90
77.14
73.65
66.30
55.42
41.78
26.47
10.68
-4.47
-18.07
-29.51
-38.51
-45.12
-49.63
-52.43
-53.95
-54.50
-54.22
-53.17
-51.29
-48.56
-45.00
-40.67
-35.64
-29.98
-23.81
-17.29
-10.72
-4.53
0.77
4.78
7.34
8.68
9.38
10.20
11.82
14.59
18.39
22.76
27.15
31.14
34.59
37.57
40.22
42.62
44.71
46.38
47.53
48.05
47.75
46.22
42.83
36.90
28.00
16.14
1.90
-13.81
-30.15
-46.65
-63.36
-80.62
-98.67
-117.15
-134.87
-150.04
-160.74
-165.67
-164.65
-158.72
-149.66
-139.29
-128.79
-118.39
-107.56
-95.53
-81.77
-66.27
-49.45
-31.91
-14.21
3.19
19.81
35.07
48.27
58.77
66.24
70.86
73.29
74.50
75.40
76.49
77.68
78.31
77.44
74.24
68.41
60.31
50.85
41.13
32.02
23.79
16.05
7.99
-1.19
-11.92
-23.93
-36.31
-47.72
-56.83
-62.64
-64.69
-63.12
-58.52
-51.66
-43.35
-34.16
-24.50
-14.59
-4.68
4.85
13.39
20.14
24.27
25.11
22.33
16.08
6.99
-3.91
-15.24
-25.45
-32.98
-36.64
-35.84
-30.83
-22.66
-12.96
-3.61
3.67
7.54
7.32
2.92
-5.17
-15.99
-28.11
-39.87
-49.54
-55.61
-57.00
-53.22
-44.64
-32.42
-18.08
-3.15
11.26
24.59
36.71
47.81
58.17
67.75
76.15
82.88
87.78
91.02
93.04
94.31
95.22
96.12
96.83
96.74
95.17
91.79
86.58
79.79
71.82
63.34
55.47
49.07
44.34
40.65
36.65
30.14
18.67
0.32
-26.56
-59.38
-92.11
-118.74
-136.51
-145.67
-147.59
-143.06
-132.34
-115.87
-95.20
-73.40
-54.03
-39.86
-29.96
-21.94
-13.12
-1.77
12.42
28.03
42.40
52.71
57.17
55.83
50.10
42.23
32.67
22.99
14.79
9.15
6.61
7.21
10.62
15.84
21.46
25.90
28.19
27.88
25.20
20.97
16.30
12.23
9.23
7.14
5.29
3.17
0.39
-3.03
-6.66
-9.78
-11.68
-11.88
-10.19
-6.61
-1.15
5.77
13.26
19.95
24.41
25.60
23.28
18.18
11.94
6.72
4.30
5.52
10.06
16.64
23.43
28.54
30.35
28.12
22.23
13.68
3.45
-7.76
-19.54
-31.41
-42.52
-51.84
-57.93
-59.24
-54.96
-45.33
-31.48
-14.72
3.96
24.12
43.65
59.06
67.15
66.59
58.27
44.43
27.92
11.63
-2.08
-12.54
-21.21
-29.60
-38.86
-49.38
-60.50
-70.61
-77.82
-77.70
-68.78
-52.81
-33.69
-15.66
-1.56
7.77
13.15
15.13
13.94
9.36
1.81
-6.99
-14.42
-17.44
-14.22
-4.96
8.16
22.01
33.32
39.93
41.58
39.57
36.06
32.89
31.04
30.63
31.45
32.96
34.63
36.15
37.33
38.14
38.34
37.60
36.04
34.78
35.47
39.24
45.55
51.25
51.66
42.20
20.52
-12.11
-50.68
-85.62
-107.99
-115.52
-113.51
-108.90
-105.58
-103.56
-101.41
-98.83
-97.65
-101.80
-110.03
-117.88
-118.35
-105.03
-75.03
-30.80
21.93
70.14
103.23
117.93
117.59
109.26
99.21
91.00
85.29
81.52
79.22
79.00
81.08
83.56
84.40
79.33
65.75
44.24
18.35
-6.93
-26.69
-38.17
-41.79
-40.03
-36.05
-31.82
-27.97
-24.29
-20.56
-16.64
-12.69
-9.18
-6.28
-4.16
-2.44
-0.61
1.61
4.11
6.66
8.91
10.48
11.18
11.00
10.34
9.65
9.17
8.80
8.21
6.96
4.73
1.48
-2.58
-6.89
-10.84
-13.95
-15.98
-16.96
-17.14
-16.82
-16.25
-15.61
-14.90
-14.03
-12.91
-11.55
-10.02
-8.45
-6.94
-5.49
-4.01
-2.37
-0.52
1.50
3.49
5.15
6.17
6.29
5.37
3.48
0.87
-2.02
-4.70
-6.73
-7.88
-8.16
-7.82
-7.18
-6.54
-6.14
-6.10
-6.51
-7.41
-8.82
-10.66
-12.82
-15.13
-17.49
-19.87
-22.29
-24.73
-27.02
-28.80
-29.64
-29.18
-27.32
-24.28
-20.53
-16.62
-13.04
-10.01
-7.57
-5.63
-4.07
-2.79
-1.74
-0.90
-0.22
0.30
0.67
0.86
0.82
0.53
-0.01
-0.69
-1.41
-2.01
-2.39
-2.48
-2.35
-2.15
-2.06
-2.26
-2.81
-3.59
-4.41
-5.01
-5.18
-4.81
-3.85
-2.30
-0.14
2.63
5.98
9.78
13.88
18.08
22.25
26.28
30.12
33.70
36.91
39.63
41.74
43.17
43.91
43.98
43.47
42.48
41.14
39.58
37.90
36.11
34.18
32.01
29.56
26.84
23.91
20.90
17.95
15.15
12.56
10.16
7.86
5.54
3.11
0.56
-2.01
-4.39
-6.36
-7.76
-8.56
-8.77
-8.50
-7.83
-6.91
-5.91
-5.08
-4.65
-4.73
-5.26
-6.02
-6.73
-7.19
-7.46
-7.76
-8.42
-9.64
-11.42
-13.50
-15.46
-16.85
-17.38
-17.05
-16.10
-14.89
-13.75
-13.00
-12.84
-13.37
-14.65
-16.60
-18.95
-21.12
-22.30
-21.68
-18.84
-13.84
-7.09
0.82
9.40
18.24
26.96
34.98
41.42
45.13
45.12
41.09
33.69
24.28
14.50
5.78
-1.52
-6.81
-9.88
-11.03
-10.56
-8.39
-4.32
1.43
7.87
13.86
18.36
20.70
20.98
19.95
18.66
17.90
17.96
18.86
20.37
22.19
23.88
25.06
25.50
25.06
23.73
21.68
19.36
17.55
17.13
18.73
22.50
27.96
34.09
39.60
43.38
44.78
43.79
40.84
36.60
31.72
26.71
21.94
17.54
13.49
9.55
5.50
1.28
-2.84
-6.23
-8.18
-8.23
-6.44
-3.44
-0.23
2.13
2.88
1.64
-1.57
-6.45
-12.60
-19.58
-26.95
-34.35
-41.51
-48.25
-54.47
-60.17
-65.39
-70.25
-74.91
-79.53
-84.24
-89.00
-93.58
-97.54
-100.31
-101.30
-100.10
-96.56
-90.87
-83.51
-75.09
-66.13
-56.88
-47.30
-37.19
-26.38
-15.01
-3.71
6.45
14.16
18.32
18.41
14.79
8.68
1.87
-3.77
-6.83
-6.67
-3.57
1.37
6.58
10.41
11.67
10.08
6.47
2.54
0.14
0.41
3.11
6.64
8.81
7.83
3.22
-4.05
-12.04
-18.74
-22.88
-24.18
-23.09
-20.31
-16.45
-11.88
-6.94
-2.10
1.93
4.40
4.78
3.02
-0.34
-4.34
-7.88
-10.13
-10.75
-9.94
-8.28
-6.45
-4.95
-4.00
-3.53
-3.35
-3.24
-2.99
-2.46
-1.51
0.01
2.26
5.32
9.20
13.75
18.70
23.65
28.18
31.93
34.73
36.62
37.87
38.87
39.94
41.22
42.62
43.84
44.56
44.53
43.67
42.02
39.66
36.64
32.97
28.69
23.94
18.93
13.94
9.31
5.41
2.59
0.97
0.28
-0.16
-1.27
-3.80
-7.94
-13.00
-17.61
-20.20
-19.74
-16.30
-10.94
-5.23
-0.47
2.91
5.52
8.54
13.04
19.28
26.46
33.27
38.16
40.05
38.64
34.50
28.74
22.79
17.89
14.95
14.79
17.60
23.23
31.03
39.20
45.10
47.69
48.78
51.57
58.08
66.61
73.20
71.80
57.77
30.25
-7.43
-49.35
-90.00
-121.81
-139.75
-144.10
-139.52
-131.69
-123.93
-116.40
-107.67
-96.88
-84.58
-73.28
-68.14
-71.20
-83.62
-104.35
-129.33
-151.46
-162.69
-156.44
-130.56
-87.22
-32.55
25.43
78.96
119.32
139.70
135.90
106.79
54.58
-13.14
-85.13
-148.51
-191.07
-204.23
-185.33
-138.46
-72.26
3.38
81.73
156.51
220.49
265.89
286.78
282.41
259.61
232.24
216.51
225.94
260.84
307.66
345.66
357.19
335.28
284.57
216.99
131.34
38.89
-43.22
-101.98
-134.85
-146.41
-143.81
-134.84
-127.01
-125.61
-129.63
-136.12
-141.90
-145.23
-145.45
-143.01
-139.09
-134.94
-131.78
-128.88
-127.26
-126.48
-124.80
-118.18
-102.23
-75.34
-39.89
-1.94
31.59
54.34
64.51
64.07
57.35
48.58
40.42
33.99
29.66
28.22
29.86
33.97
38.76
42.22
43.11
41.10
37.11
32.78
30.23
31.01
35.58
42.40
48.25
49.21
42.16
26.36
4.15
-19.44
-39.47
-51.90
-55.44
-51.51
-42.95
-32.57
-22.04
-11.96
-2.57
5.50
11.25
13.45
11.46
5.75
-2.23
-10.55
-17.46
-22.00
-24.12
-24.30
-23.31
-21.79
-20.00
-17.93
-15.48
-12.72
-9.98
-7.78
-6.56
-6.50
-7.47
-9.01
-10.59
-11.76
-12.30
-12.28
-11.98
-11.68
-11.68
-12.02
-12.44
-12.52
-11.78
-9.94
-6.98
-3.15
1.10
5.24
8.91
11.90
14.21
15.99
17.38
18.49
19.32
19.80
19.79
19.22
18.12
16.67
15.14
13.78
12.77
12.17
11.94
11.95
12.07
12.31
12.72
13.30
13.96
14.54
14.97
15.21
15.28
15.17
15.03
15.02
15.32
16.07
17.46
19.85
23.49
28.44
34.44
41.32
48.87
56.88
65.00
72.79
80.00
86.37
91.67
95.65
98.51
100.71
102.91
105.77
108.41
110.84
113.48
117.65
122.37
126.19
127.28
124.71
118.29
108.47
96.29
82.67
68.26
53.39
38.68
24.94
13.00
3.09
-5.44
-14.02
-24.67
-39.18
-58.30
-80.90
-104.44
-125.74
-142.18
-152.41
-156.38
-155.19
-150.49
-143.98
-136.90
-130.08
-123.98
-118.81
-114.49
-110.67
-106.85
-102.52
-97.36
-91.21
-84.21
-76.70
-69.19
-62.19
-56.08
-51.02
-46.91
-43.47
-40.29
-37.02
-33.44
-29.55
-25.52
-21.54
-17.84
-14.55
-11.76
-9.46
-7.60
-6.11
-4.94
-4.07
-3.50
-3.19
-3.03
-2.88
-2.63
-2.25
-1.82
-1.53
-1.50
-1.76
-2.21
-2.70
-3.08
-3.30
-3.34
-3.20
-2.83
-2.20
-1.31
-0.25
0.77
1.55
1.93
1.97
1.81
1.67
1.72
1.98
2.34
2.67
2.87
2.90
2.80
2.64
2.43
2.14
1.72
1.11
0.31
-0.57
-1.40
-2.02
-2.38
-2.50
-2.50
-2.51
-2.60
-2.74
-2.86
-2.91
-2.94
-3.11
-3.59
-4.48
-5.68
-6.90
-7.79
-8.02
-7.49
-6.30
-4.67
-2.93
-1.35
-0.15
0.54
0.73
0.46
-0.21
-1.21
-2.43
-3.63
-4.59
-5.16
-5.30
-5.13
-4.85
-4.70
-4.84
-5.28
-5.91
-6.70
-7.76
-9.36
-11.67
-14.76
-18.54
-22.79
-27.10
-31.02
-34.50
-37.97
-42.03
-47.04
-52.96
-59.51
-66.23
-72.39
-77.27
-80.95
-84.56
-89.47
-96.39
-105.12
-114.70
-123.87
-131.25
-136.15
-139.73
-144.59
-152.63
-162.98
-171.80
-173.62
-163.34
-137.36
-94.40
-36.59
31.03
102.11
170.18
228.36
269.67
284.62
265.78
218.37
160.59
112.15
83.52
74.36
77.41
84.00
88.20
88.55
87.35
85.96
83.71
79.12
71.97
63.20
54.74
48.82
47.20
50.43
57.38
66.17
74.55
82.25
89.67
97.41
105.70
113.97
121.05
124.95
123.06
112.45
91.42
61.24
23.29
-17.67
-54.97
-82.52
-97.35
-100.52
-96.57
-86.12
-73.50
-61.61
-50.23
-37.77
-23.55
-10.12
1.09
8.64
12.09
11.63
8.62
4.89
1.26
-2.67
-7.05
-11.94
-17.38
-23.29
-29.65
-35.71
-40.31
-42.89
-43.76
-43.91
-44.10
-44.91
-46.87
-50.11
-53.81
-56.64
-57.96
-58.02
-57.86
-58.32
-60.01
-63.87
-70.35
-78.81
-87.50
-94.60
-98.30
-97.12
-89.29
-70.19
-40.34
-6.07
24.11
44.89
55.07
59.34
60.22
59.14
56.83
53.12
48.42
41.39
33.04
24.63
17.19
10.88
5.91
2.39
-0.25
-2.41
-4.05
-4.58
-3.94
-2.72
-2.23
-3.36
-6.51
-11.76
-18.46
-25.28
-30.28
-32.04
-29.84
-24.01
-15.25
-4.64
6.47
16.84
25.66
32.75
38.11
41.82
43.90
44.49
43.85
42.30
40.22
37.99
35.97
34.21
32.57
30.84
29.01
27.31
26.10
25.64
25.75
25.82
24.89
22.15
17.32
10.92
4.14
-1.61
-5.28
-6.49
-5.60
-3.46
-0.97
1.13
2.38
2.54
1.52
-0.52
-3.09
-5.32
-6.14
-4.67
-0.57
5.73
13.17
20.44
26.41
30.46
32.47
32.77
31.85
30.27
28.59
27.28
26.67
26.93
27.97
29.56
31.43
33.44
35.61
38.08
41.01
44.35
47.80
50.80
52.59
52.49
50.00
45.10
38.27
30.48
22.97
16.99
13.42
12.60
14.26
17.65
21.79
25.77
28.91
30.96
31.95
32.24
32.24
32.33
32.67
33.20
33.60
33.45
32.35
30.01
26.31
21.21
14.84
7.42
-0.66
-8.82
-16.41
-22.89
-28.10
-32.32
-36.24
-40.63
-45.95
-52.14
-58.61
-64.54
-69.34
-72.84
-75.31
-77.14
-78.47
-78.99
-78.15
-75.51
-71.17
-65.88
-60.81
-57.10
-55.46
-56.02
-58.55
-62.70
-67.98
-73.54
-77.86
-78.85
-74.51
-63.88
-47.76
-28.70
-10.16
4.82
14.64
19.44
20.54
19.48
17.34
14.56
11.25
7.76
4.80
3.30
3.90
6.57
10.54
14.64
17.82
19.60
20.27
20.70
21.98
24.77
29.05
34.13
39.02
42.95
45.70
47.57
49.16
51.15
53.80
56.91
59.92
62.31
63.85
64.69
65.28
66.16
68.03
71.23
75.56
80.38
84.93
88.71
91.68
94.22
97.04
101.29
107.63
115.77
124.36
131.24
133.89
130.03
118.11
97.94
71.60
42.35
13.89
-10.63
-29.21
-41.07
-46.49
-46.48
-46.22
-48.60
-53.85
-59.99
-65.13
-68.94
-72.18
-75.75
-80.02
-84.80
-88.85
-91.23
-91.72
-90.58
-88.44
-85.76
-82.75
-79.39
-75.69
-71.40
-66.65
-61.93
-56.98
-52.06
-47.32
-42.78
-38.45
-34.68
-31.92
-30.61
-30.56
-30.74
-29.79
-26.31
-19.45
-9.18
3.33
16.21
27.52
36.40
43.27
49.20
55.50
63.29
73.07
83.99
93.29
96.85
90.80
72.69
41.96
0.19
-49.18
-98.75
-137.60
-157.29
-157.33
-143.89
-124.61
-105.03
-87.96
-74.19
-63.51
-55.13
-48.74
-44.37
-41.65
-39.77
-38.10
-36.66
-36.28
-38.53
-45.43
-56.51
-69.50
-79.53
-80.45
-67.70
-40.90
-3.14
35.64
66.16
83.31
87.11
81.93
73.45
65.77
60.14
55.87
51.64
47.43
43.98
41.93
41.36
41.76
42.26
41.86
40.28
37.68
35.01
33.32
33.07
34.20
36.27
39.13
41.93
44.57
47.49
51.56
57.12
63.18
67.48
67.28
60.66
47.61
30.41
12.68
-2.05
-11.74
-16.41
-17.64
-17.36
-16.96
-16.82
-16.60
-15.87
-14.48
-12.63
-10.65
-8.70
-6.72
-4.60
-2.14
0.69
3.76
6.87
9.88
12.73
15.51
18.38
21.36
24.59
27.84
30.78
32.99
34.15
34.00
32.32
29.05
23.18
13.95
0.58
-17.18
-38.62
-61.85
-84.01
-101.81
-112.46
-114.49
-108.14
-95.54
-80.17
-66.02
-56.57
-53.85
-57.87
-66.58
-76.50
-83.61
-84.75
-78.35
-64.92
-46.48
-25.85
-5.70
11.99
26.14
36.38
42.73
45.45
44.81
41.26
35.44
28.03
19.66
10.78
1.78
-6.95
-14.74
-21.12
-25.64
-28.17
-29.10
-29.23
-29.47
-30.41
-31.96
-33.06
-32.41
-28.49
-20.26
-7.66
8.25
25.57
42.10
54.85
64.14
70.09
73.63
75.78
77.20
78.08
78.41
78.40
78.39
78.72
78.66
76.87
71.79
62.44
49.23
34.12
20.02
9.61
4.31
3.64
6.19
10.43
15.29
20.14
24.52
27.87
29.35
28.17
23.92
17.51
10.95
6.66
6.27
9.66
14.77
17.87
14.58
1.18
-22.65
-52.84
-81.40
-100.71
-107.70
-104.18
-94.54
-83.11
-72.76
-64.09
-56.54
-49.31
-42.27
-35.84
-30.51
-26.51
-23.88
-22.74
-22.57
-22.85
-23.00
-22.68
-21.91
-20.79
-19.62
-18.99
-20.56
-24.36
-30.75
-40.25
-53.15
-68.54
-83.40
-92.85
-89.88
-72.46
-42.46
-6.07
28.56
54.63
69.32
74.34
74.03
72.39
70.85
68.93
65.21
59.30
52.60
47.68
46.69
50.13
56.15
61.57
63.74
61.58
56.10
49.86
45.74
45.81
51.18
60.84
73.02
85.64
96.01
100.77
96.48
81.00
54.22
21.07
-11.63
-37.46
-52.83
-58.16
-56.87
-53.10
-49.52
-46.51
-43.03
-38.45
-33.30
-29.05
-27.05
-27.45
-28.99
-29.72
-28.03
-23.63
-17.90
-12.92
-10.47
-11.19
-14.36
-18.29
-21.53
-23.06
-23.29
-23.77
-26.24
-31.76
-40.08
-49.73
-58.79
-65.59
-68.98
-69.89
-69.84
-70.44
-73.09
-78.59
-86.87
-96.39
-103.94
-105.71
-97.40
-77.28
-47.33
-12.95
18.91
42.56
55.75
60.04
59.27
57.14
55.47
53.95
51.31
46.88
41.44
36.96
35.33
37.24
41.68
46.40
48.87
47.63
42.82
36.16
30.26
27.49
28.87
33.57
39.13
42.63
42.16
37.40
29.95
22.78
18.72
19.57
25.49
35.12
46.09
55.45
59.95
56.42
42.87
19.63
-9.84
-39.45
-62.06
-72.10
-67.60
-50.30
-26.34
-2.88
15.48
28.21
39.36
51.40
64.22
75.06
79.85
75.11
60.09
37.53
12.82
-10.14
-25.76
-31.76
-30.23
-25.60
-21.96
-20.85
-21.08
-20.27
-16.83
-10.93
-4.49
-0.21
0.47
-2.11
-6.12
-9.20
-9.72
-7.51
-3.56
0.21
2.05
1.31
-1.52
-5.16
-8.18
-9.79
-10.09
-9.90
-10.53
-13.01
-17.67
-24.17
-31.74
-39.44
-46.54
-52.52
-56.99
-59.66
-60.30
-58.66
-54.72
-48.71
-41.13
-32.57
-23.63
-14.69
-5.89
2.76
11.20
19.11
25.91
31.00
33.83
34.13
32.10
28.43
24.20
20.41
17.73
16.40
16.46
17.57
19.06
20.14
20.37
19.71
18.39
16.82
15.32
14.45
14.32
14.45
14.06
12.80
10.93
9.08
8.05
8.44
11.07
16.22
23.38
31.27
38.45
43.37
44.24
39.49
26.39
5.67
-18.02
-38.59
-53.37
-62.96
-68.51
-71.19
-70.20
-65.54
-57.23
-45.95
-33.28
-21.19
-11.07
-3.39
1.96
5.47
7.62
9.13
10.40
11.25
11.16
9.91
7.70
4.94
2.11
-0.42
-2.12
-2.61
-1.84
-0.05
2.57
5.99
10.06
14.55
19.03
23.16
26.67
29.36
31.19
32.35
33.26
34.25
35.51
37.03
38.69
40.42
42.16
43.86
45.49
47.02
48.34
49.19
49.21
47.87
44.87
40.18
33.95
26.54
18.39
9.91
1.40
-6.86
-14.74
-21.81
-27.45
-31.44
-33.94
-35.43
-36.49
-37.65
-39.12
-41.38
-44.66
-49.12
-55.37
-64.06
-75.37
-88.66
-102.44
-114.24
-121.74
-122.43
-114.43
-97.94
-75.07
-49.17
-23.86
-2.05
17.14
32.38
40.89
43.16
40.48
33.88
24.83
15.01
5.66
-2.84
-12.33
-22.74
-33.02
-41.38
-45.55
-43.53
-34.36
-20.97
-3.92
15.20
34.93
53.95
71.02
84.88
94.63
100.21
102.26
101.90
99.64
96.40
93.26
90.75
89.08
88.53
88.05
87.47
87.62
88.56
90.93
91.82
86.51
71.01
42.96
4.29
-40.03
-84.31
-125.14
-161.15
-186.60
-197.52
-193.35
-176.99
-152.76
-124.96
-97.63
-74.96
-58.81
-48.94
-43.74
-40.90
-38.14
-34.18
-29.18
-24.51
-24.15
-28.89
-38.94
-54.24
-73.24
-92.39
-106.32
-109.38
-93.93
-61.76
-19.65
22.83
56.89
78.12
87.18
88.24
85.90
82.83
78.63
72.76
65.45
58.08
52.93
51.61
54.06
58.45
62.29
62.91
60.04
55.90
52.58
52.47
57.12
66.76
80.15
94.60
106.02
110.54
105.37
89.92
66.64
40.19
16.00
-1.77
-11.60
-14.82
-14.18
-12.35
-10.84
-9.67
-8.26
-6.27
-4.09
-2.56
-2.52
-4.09
-6.79
-10.03
-13.00
-15.81
-19.15
-23.84
-30.33
-38.29
-46.67
-54.08
-59.35
-61.83
-61.72
-59.71
-56.77
-53.71
-51.03
-48.82
-46.81
-44.54
-41.53
-37.52
-32.55
-27.00
-21.43
-16.42
-12.32
-9.12
-6.48
-3.88
-0.90
2.66
6.75
11.08
15.29
19.03
22.08
24.32
25.79
26.59
26.90
26.89
26.65
26.16
25.28
23.80
21.55
18.49
14.77
10.75
6.89
3.61
1.18
-0.38
-1.26
-1.77
-2.23
-2.86
-3.80
-5.07
-6.59
-8.24
-9.83
-11.17
-12.10
-12.58
-12.71
-12.68
-12.75
-13.08
-13.70
-14.48
-15.18
-15.53
-15.39
-14.82
-14.16
-13.90
-14.65
-16.93
-21.06
-27.03
-34.46
-42.60
-50.47
-57.03
-61.40
-63.03
-61.85
-58.21
-52.81
-46.48
-39.96
-33.80
-28.29
-23.51
-19.36
-15.73
-12.51
-9.62
-7.00
-4.63
-2.47
-0.53
1.13
2.43
3.28
3.65
3.61
3.33
3.04
2.94
3.14
3.67
4.48
5.49
6.68
8.08
9.74
11.71
13.97
16.43
18.92
21.26
23.33
25.07
26.57
27.99
29.56
31.58
34.25
37.68
41.80
46.37
51.00
55.27
58.86
61.59
63.41
64.36
64.44
63.59
61.73
58.85
55.08
50.72
46.15
41.72
37.61
33.83
30.31
26.95
23.73
20.66
17.77
15.04
12.41
9.83
7.36
5.15
3.39
2.22
1.68
1.67
2.05
2.82
4.19
6.51
10.15
15.25
21.65
28.88
36.32
43.48
50.12
56.23
61.99
67.49
72.75
77.70
82.25
86.27
89.55
91.75
92.49
91.62
89.34
86.29
83.19
80.46
77.90
74.82
70.36
64.05
56.03
46.89
37.30
27.59
17.70
7.38
-3.48
-14.69
-25.78
-36.32
-46.04
-54.85
-62.83
-69.95
-76.09
-81.03
-84.57
-86.69
-87.53
-87.39
-86.69
-85.88
-85.30
-85.12
-85.31
-85.64
-85.84
-85.66
-85.05
-84.08
-82.98
-81.95
-81.17
-80.75
-80.64
-80.69
-80.66
-80.18
-78.90
-76.56
-73.11
-68.73
-63.83
-58.96
-54.62
-51.21
-48.88
-47.53
-46.84
-46.41
-45.88
-45.06
-43.89
-42.46
-40.80
-38.87
-36.53
-33.53
-29.61
-24.55
-18.22
-10.66
-2.12
6.96
15.99
24.39
31.64
37.45
41.65
44.23
45.24
44.86
43.47
41.68
40.18
39.62
40.35
42.34
45.18
48.23
50.81
52.39
52.58
51.22
48.38
44.37
39.74
35.24
31.60
29.33
28.60
29.10
30.24
31.29
31.61
30.83
28.88
25.90
22.16
17.93
13.34
8.46
3.39
-1.61
-6.12
-9.60
-11.65
-12.27
-11.87
-11.23
-11.14
-12.12
-14.25
-17.29
-20.82
-24.52
-28.19
-31.74
-34.99
-37.64
-39.36
-40.01
-39.75
-39.12
-38.81
-39.45
-41.28
-44.11
-47.39
-50.45
-52.79
-54.22
-54.90
-55.22
-55.58
-56.22
-57.13
-58.04
-58.48
-57.91
-55.87
-52.09
-46.60
-39.75
-32.13
-24.41
-17.10
-10.50
-4.66
0.53
5.19
9.45
13.34
16.88
20.02
22.66
24.66
25.85
26.05
25.23
23.52
21.21
18.58
15.79
12.93
10.07
7.35
4.96
3.07
1.71
0.67
-0.58
-2.76
-6.44
-11.81
-18.58
-25.95
-32.69
-37.13
-37.76
-33.68
-25.23
-13.61
-0.71
11.46
21.17
27.42
30.43
31.19
30.91
30.16
29.51
29.20
29.27
29.41
29.20
28.86
28.85
29.59
30.54
31.45
32.12
32.45
32.12
30.81
29.01
27.48
26.88
26.76
27.29
28.91
32.28
37.56
40.65
38.15
29.05
20.34
14.05
10.51
7.34
3.74
-0.51
-5.18
-9.08
-10.93
-10.08
-7.62
-4.50
-1.59
0.81
2.50
3.51
4.54
6.25
8.84
11.33
13.09
13.84
13.82
13.31
12.64
12.34
12.78
13.92
14.94
15.16
14.15
11.81
8.14
3.33
-2.10
-7.46
-11.99
-15.17
-16.42
-15.38
-12.06
-7.04
-1.44
3.43
6.37
6.61
3.98
-0.86
-6.59
-11.57
-14.25
-13.59
-9.22
-1.58
8.31
19.04
29.18
37.50
43.17
45.81
45.60
43.19
39.50
35.54
32.15
29.71
28.02
26.36
23.70
19.09
11.98
2.36
-9.23
-21.72
-33.76
-43.94
-51.06
-54.36
-53.49
-48.83
-41.49
-33.03
-25.00
-18.46
-13.67
-10.32
-7.80
-5.16
-1.87
1.99
5.86
9.18
11.73
13.79
15.77
17.92
20.78
24.36
28.11
31.16
32.90
33.29
33.10
33.18
34.09
36.81
41.58
47.83
54.34
59.85
63.38
64.64
63.37
54.59
36.05
9.49
-19.73
-46.34
-66.98
-82.98
-95.38
-104.52
-110.29
-110.43
-103.64
-90.15
-71.74
-51.07
-30.85
-12.83
1.85
12.76
20.56
25.89
29.11
30.20
29.15
26.14
21.87
16.99
12.04
7.77
4.61
2.65
1.68
1.37
1.35
1.43
1.34
0.93
0.24
-0.69
-1.85
-3.25
-4.73
-6.08
-7.00
-7.29
-6.73
-5.36
-3.66
-2.32
-1.90
-2.48
-3.76
-5.21
-6.18
-5.92
-4.11
-1.07
2.53
6.06
9.37
12.55
15.73
19.13
23.42
28.79
34.92
40.79
45.03
46.37
43.54
35.51
20.00
-1.94
-25.93
-46.20
-58.90
-64.54
-64.65
-60.34
-52.40
-41.51
-27.56
-11.89
3.21
15.30
22.68
25.16
23.58
19.28
13.77
8.60
4.64
2.09
0.63
-0.11
-0.14
0.47
1.56
2.90
4.50
6.27
8.16
10.07
11.92
13.75
15.29
16.09
15.75
14.37
12.31
10.27
8.83
8.36
8.95
10.09
10.98
11.04
10.22
8.99
8.20
8.40
9.78
12.11
14.47
15.69
14.96
12.10
7.35
1.39
-5.51
-13.05
-20.76
-28.44
-35.95
-43.00
-49.32
-54.95
-59.97
-65.04
-70.60
-73.63
-71.71
-64.58
-54.48
-44.48
-38.49
-35.14
-32.15
-27.52
-20.19
-9.59
3.00
15.72
26.89
35.28
40.47
41.94
39.61
34.09
26.25
17.21
8.38
1.11
-3.82
-6.26
-7.18
-7.74
-8.73
-10.38
-12.43
-14.03
-14.21
-12.24
-7.85
-1.69
5.23
11.82
17.20
20.69
21.94
20.96
18.22
14.51
10.61
7.29
5.19
4.77
5.99
8.18
10.39
11.97
12.70
12.59
11.95
11.26
11.21
12.12
13.75
15.49
17.09
18.58
19.84
20.89
21.91
23.65
26.74
31.19
36.17
40.68
43.26
41.99
35.31
20.70
-0.88
-24.58
-43.73
-56.27
-62.43
-62.53
-57.71
-49.64
-40.07
-30.13
-20.75
-12.89
-7.41
-4.31
-3.04
-3.07
-3.73
-4.32
-3.88
-1.88
1.53
5.63
9.82
13.68
16.71
18.66
19.62
20.11
20.67
21.53
22.59
23.85
25.36
27.11
29.06
31.23
33.69
36.34
38.83
40.69
41.61
41.50
40.39
38.35
35.65
32.65
29.65
26.73
23.73
20.35
16.35
11.58
5.90
-0.42
-6.88
-13.00
-18.61
-23.95
-29.51
-35.69
-42.62
-50.27
-57.96
-64.56
-69.13
-71.27
-71.44
-70.76
-70.33
-70.91
-72.75
-74.78
-74.90
-70.87
-61.25
-46.13
-26.99
-5.71
17.40
39.48
56.78
66.80
69.43
66.24
59.85
51.11
40.64
29.11
16.77
3.76
-9.64
-23.43
-36.41
-46.90
-52.74
-51.85
-43.28
-27.61
-6.37
18.17
42.73
65.37
83.60
95.09
98.85
95.60
87.64
78.46
70.88
67.72
70.42
78.37
88.87
98.19
102.62
100.25
92.29
82.50
75.68
73.49
74.33
73.96
66.87
48.29
16.68
-25.74
-73.44
-119.37
-157.32
-183.61
-197.73
-202.15
-201.56
-201.73
-208.53
-226.28
-256.03
-294.55
-334.40
-365.90
-380.23
-372.30
-341.79
-292.63
-231.03
-163.49
-95.83
-32.85
21.51
64.38
94.56
113.11
123.25
129.49
136.14
145.80
158.80
173.40
186.89
196.77
201.64
201.47
197.28
190.53
182.55
174.26
166.16
158.54
151.69
145.99
141.72
138.84
136.72
134.19
129.79
122.21
110.76
95.65
77.90
58.97
40.05
21.67
3.58
-14.84
-33.96
-53.38
-71.83
-87.59
-99.09
-105.40
-106.45
-102.89
-95.92
-86.94
-77.38
-68.55
-61.47
-56.77
-54.64
-54.89
-57.06
-60.52
-64.56
-68.43
-71.48
-73.25
-73.57
-72.55
-70.45
-67.46
-63.60
-58.68
-52.50
-44.95
-36.18
-26.54
-16.56
-6.81
2.12
9.73
15.64
19.70
22.02
23.02
23.31
23.51
24.11
25.34
27.14
29.31
31.66
34.10
36.66
39.41
42.37
45.43
48.38
50.99
53.10
54.71
55.96
57.05
58.12
59.23
60.27
61.07
61.44
61.30
60.70
59.85
59.06
58.61
58.71
59.40
60.61
62.16
63.84
65.37
66.37
66.42
65.11
62.20
57.72
52.02
45.70
39.34
33.37
27.85
22.56
17.25
11.76
6.24
0.98
-3.66
-7.40
-10.12
-11.82
-12.54
-12.28
-11.03
-8.81
-5.95
-2.96
-0.52
0.70
0.23
-2.19
-6.56
-12.72
-20.38
-29.26
-38.93
-48.78
-58.19
-66.79
-74.58
-81.88
-89.08
-96.29
-103.44
-109.87
-114.25
-114.93
-110.52
-100.44
-85.25
-66.73
-47.41
-30.23
-17.26
-8.90
-4.17
-1.53
0.21
1.49
1.96
1.02
-2.28
-8.24
-16.17
-24.72
-32.46
-38.24
-41.30
-41.30
-34.93
-21.48
-3.59
14.07
27.58
35.19
36.95
34.37
29.14
23.23
18.03
14.57
13.77
15.65
19.17
22.71
24.86
24.96
23.34
20.49
17.15
14.12
11.92
10.65
10.09
9.97
10.18
10.84
11.88
13.12
14.29
15.03
15.06
14.31
13.18
12.39
12.71
14.49
17.69
21.84
26.26
30.02
32.10
31.65
28.58
23.93
19.73
18.09
19.68
22.40
21.30
9.97
-17.04
-61.72
-121.27
-188.37
-252.91
-304.48
-334.76
-339.30
-318.40
-276.77
-222.28
-163.81
-108.88
-62.10
-24.73
4.44
27.48
46.06
61.00
72.47
80.70
86.27
90.07
92.82
94.82
95.80
95.29
92.99
89.09
84.10
78.58
72.83
66.72
59.82
51.81
42.75
33.31
24.67
18.25
15.40
17.01
23.21
33.18
45.23
57.03
66.23
71.11
71.06
66.87
60.34
53.73
48.95
47.03
47.96
50.97
55.07
59.47
63.85
68.21
72.60
76.77
80.17
82.14
82.23
80.45
77.19
72.90
67.79
61.71
54.45
46.20
37.78
30.49
25.64
23.89
24.96
27.84
31.35
34.58
36.91
37.64
35.63
29.44
17.89
0.94
-19.79
-41.36
-60.41
-74.41
-82.42
-85.26
-84.85
-83.26
-82.02
-81.72
-82.19
-82.72
-82.39
-80.17
-75.10
-66.51
-54.37
-39.41
-23.12
-7.40
6.02
16.09
22.64
26.24
27.82
28.30
28.38
28.53
29.06
30.11
31.50
32.64
32.60
30.41
25.53
18.07
8.83
-1.09
-10.77
-19.78
-28.21
-36.44
-44.78
-53.22
-61.34
-68.44
-73.70
-76.40
-76.06
-72.55
-66.04
-56.99
-45.91
-33.29
-19.51
-4.89
10.13
24.88
38.45
49.88
58.37
63.56
65.58
65.06
62.95
60.31
58.11
56.92
56.87
57.59
58.49
59.02
59.04
58.78
58.74
59.33
60.61
62.22
63.48
63.66
62.16
58.64
53.08
45.77
37.23
28.18
19.30
11.06
3.54
-3.57
-10.83
-18.79
-27.73
-37.60
-48.02
-58.42
-68.20
-76.91
-84.30
-90.41
-95.46
-99.70
-103.17
-105.51
-106.04
-104.03
-99.16
-91.91
-83.58
-75.89
-70.35
-67.67
-67.57
-68.96
-70.52
-71.15
-70.21
-67.50
-62.97
-56.66
-48.68
-39.35
-29.33
-19.51
-10.78
-3.67
1.80
6.13
10.09
14.40
19.49
25.31
31.36
36.80
40.69
42.30
41.35
38.11
33.36
28.13
23.47
20.13
18.46
18.36
19.34
20.66
21.43
20.90
18.59
14.45
8.93
2.77
-3.21
-8.33
-12.15
-14.38
-14.84
-13.31
-9.64
-3.93
3.37
11.36
18.91
24.97
28.94
30.86
31.34
31.21
31.19
31.55
32.15
32.60
32.58
32.06
31.27
30.54
30.04
29.63
28.91
27.46
25.08
21.92
18.41
15.03
12.07
9.51
7.09
4.48
1.44
-1.99
-5.61
-9.12
-12.35
-15.31
-18.12
-20.87
-23.48
-25.65
-26.96
-27.03
-25.67
-22.94
-19.15
-14.71
-10.06
-5.63
-1.70
1.55
4.07
5.94
7.32
8.32
8.94
9.09
8.68
7.70
6.34
4.92
3.78
3.13
2.96
3.07
3.20
3.07
2.55
1.57
0.21
-1.41
-3.07
-4.56
-5.67
-6.34
-6.59
-6.62
-6.62
-6.72
-6.91
-7.09
-7.09
-6.79
-6.15
-5.20
-4.02
-2.66
-1.14
0.51
2.32
4.26
6.30
8.35
10.32
12.10
13.58
14.67
15.29
15.38
14.91
13.90
12.41
10.59
8.67
6.94
5.68
5.11
5.25
5.91
6.67
7.01
6.42
4.57
1.32
-3.23
-8.83
-15.10
-21.58
-27.80
-33.34
-37.90
-41.34
-43.78
-45.42
-46.58
-47.56
-48.57
-49.76
-51.14
-52.60
-53.82
-54.28
-53.28
-50.13
-44.41
-36.20
-26.20
-15.56
-5.59
2.54
8.20
11.35
12.46
12.35
11.93
11.92
12.72
14.22
15.82
16.59
15.57
12.15
6.31
-1.28
-9.52
-17.18
-23.25
-27.14
-28.59
-27.56
-24.06
-18.21
-10.27
-0.74
9.70
20.36
30.85
41.11
51.37
61.81
72.20
81.77
89.36
93.80
94.40
91.23
85.11
77.29
69.08
61.48
55.00
49.75
45.47
41.80
38.35
34.84
31.07
26.98
22.56
17.86
12.93
7.85
2.68
-2.54
-7.77
-13.00
-18.11
-22.92
-27.14
-30.51
-32.87
-34.27
-34.93
-35.20
-35.32
-35.38
-35.26
-34.74
-33.64
-31.85
-29.37
-26.18
-22.30
-17.72
-12.55
-7.07
-1.74
3.00
6.79
9.53
11.36
12.51
13.18
13.50
13.43
12.93
11.99
10.64
8.97
7.11
5.12
3.06
0.95
-1.21
-3.42
-5.65
-7.78
-9.56
-10.67
-10.79
-9.77
-7.70
-4.95
-2.03
0.56
2.53
3.76
4.28
4.12
3.26
1.74
-0.27
-2.33
-3.84
-4.25
-3.29
-1.13
1.58
4.04
5.51
5.63
4.41
2.19
-0.58
-3.53
-6.41
-9.10
-11.50
-13.53
-15.12
-16.24
-17.00
-17.62
-18.31
-19.10
-19.76
-19.82
-18.67
-15.88
-11.39
-5.54
0.97
7.36
12.98
17.45
20.62
22.52
23.16
22.58
20.82
18.03
14.50
10.58
6.56
2.62
-1.19
-4.89
-8.44
-11.63
-14.17
-15.82
-16.47
-16.21
-15.26
-13.83
-11.97
-9.56
-6.40
-2.34
2.57
7.96
13.23
17.70
20.81
22.38
22.70
22.44
22.43
23.33
25.32
27.91
30.05
30.40
27.80
21.62
12.09
0.34
-11.73
-21.83
-27.87
-28.52
-23.70
-14.65
-3.60
6.96
15.12
20.15
22.53
23.52
24.27
25.24
25.95
25.39
22.61
17.35
10.12
1.90
-6.35
-14.08
-21.23
-27.94
-34.26
-39.91
-44.44
-47.47
-48.99
-49.40
-49.29
-49.09
-48.82
-48.06
-46.17
-42.64
-37.40
-30.91
-24.03
-17.74
-12.82
-9.58
-7.86
-7.08
-6.55
-5.66
-4.19
-2.23
-0.19
1.50
2.46
2.56
1.88
0.68
-0.71
-1.94
-2.72
-2.87
-2.32
-1.18
0.35
1.98
3.44
4.50
5.20
5.86
7.10
9.75
14.54
21.71
30.81
40.62
49.47
55.81
58.78
58.49
55.87
52.27
48.85
46.24
44.45
42.96
41.08
38.26
34.12
28.57
21.77
14.25
6.93
0.99
-2.44
-2.61
0.55
6.29
13.37
20.51
26.98
32.82
38.64
44.85
51.62
58.88
66.28
73.24
78.82
81.77
80.69
74.30
61.44
42.30
18.75
-6.33
-30.27
-51.55
-70.00
-86.20
-100.79
-114.70
-127.67
-138.36
-145.16
-147.40
-145.76
-141.77
-137.06
-132.67
-129.95
-128.92
-128.40
-126.85
-123.54
-118.95
-114.11
-109.87
-98.62
-76.56
-45.44
-11.37
20.31
47.59
70.72
90.08
104.95
112.92
108.97
89.37
53.98
7.05
-44.33
-92.92
-130.94
-153.19
-158.71
-151.36
-136.48
-118.25
-98.24
-76.03
-50.67
-21.90
8.83
38.77
64.47
83.75
96.38
103.70
107.39
108.50
107.38
103.67
97.16
88.08
77.63
67.70
60.08
55.72
54.44
55.21
56.53
56.96
55.53
51.96
46.66
40.41
33.98
27.92
22.43
17.46
12.89
8.77
5.49
3.58
3.55
5.60
9.53
14.78
20.58
26.20
31.05
34.70
36.81
37.08
35.27
31.32
25.52
18.53
11.30
4.87
0.10
-2.55
-3.10
-1.93
0.36
3.11
5.82
8.17
10.05
11.52
12.73
13.73
14.40
14.39
13.21
10.44
5.98
0.17
-6.29
-12.51
-17.72
-21.45
-23.52
-24.04
-23.22
-21.37
-18.75
-15.61
-12.11
-8.29
-4.07
0.59
5.53
10.29
14.12
16.16
15.78
12.82
7.72
1.45
-4.77
-9.81
-12.88
-13.71
-12.45
-9.58
-5.73
-1.50
2.57
6.07
8.67
10.14
10.24
8.85
5.99
1.93
-2.76
-7.30
-10.98
-13.41
-14.78
-15.85
-17.65
-20.95
-25.94
-32.08
-38.29
-43.40
-46.58
-47.47
-46.19
-43.14
-38.78
-33.54
-27.82
-22.04
-16.57
-11.70
-7.57
-4.16
-1.40
0.72
2.09
2.52
1.86
0.12
-2.43
-5.30
-7.87
-9.58
-10.06
-9.29
-7.52
-5.23
-2.98
-1.24
-0.18
0.31
0.65
1.37
2.98
5.71
9.52
14.09
18.90
23.44
27.31
30.30
32.45
33.96
35.16
36.32
37.54
38.67
39.24
38.60
36.03
31.02
23.44
13.68
2.58
-8.65
-18.79
-26.79
-31.98
-34.11
-33.32
-30.06
-25.02
-19.07
-13.17
-8.27
-5.10
-4.02
-4.93
-7.30
-10.31
-13.12
-14.98
-15.45
-14.33
-11.72
-7.90
-3.29
1.64
6.41
10.69
14.26
17.06
19.14
20.61
21.61
22.18
22.38
22.22
21.75
21.07
20.27
19.47
18.69
17.96
17.27
16.64
16.17
16.00
16.27
17.04
18.19
19.49
20.60
21.25
21.29
20.70
19.53
17.85
15.79
13.51
11.33
9.65
8.82
8.95
9.79
10.88
11.72
12.06
12.00
12.03
12.64
13.97
15.64
16.88
16.80
14.76
10.64
4.90
-1.43
-7.09
-11.00
-12.48
-11.43
-8.30
-3.98
0.50
4.29
7.24
9.74
12.29
15.25
18.51
21.43
23.06
22.48
19.25
14.45
9.97
7.57
8.63
13.73
22.42
33.36
44.51
53.87
61.60
69.05
77.46
87.93
100.69
114.81
128.17
137.51
139.39
133.51
121.29
104.58
86.31
69.89
57.82
50.38
44.23
33.32
13.86
-15.92
-56.13
-103.98
-154.83
-204.82
-247.12
-274.63
-299.01
-331.14
-369.53
-410.18
-445.81
-467.01
-466.36
-441.24
-395.49
-337.71
-275.04
-212.46
-152.55
-94.60
-34.85
29.37
97.64
165.74
227.36
278.43
316.42
340.11
350.21
350.79
345.95
338.19
327.74
313.59
296.21
276.86
257.52
229.06
188.76
140.40
91.59
48.02
11.01
-17.55
-40.39
-58.51
-72.02
-79.59
-81.56
-80.33
-78.90
-79.43
-82.01
-85.56
-88.02
-87.88
-83.33
-74.28
-62.34
-49.87
-38.74
-29.64
-22.40
-16.08
-9.97
-2.97
4.92
12.67
19.04
23.31
25.61
26.68
27.34
28.13
29.68
31.76
33.45
33.95
32.96
30.82
28.43
26.24
24.44
23.09
21.51
18.47
13.06
5.08
-5.08
-16.37
-28.31
-40.45
-48.72
-49.25
-40.81
-25.70
-8.02
5.73
15.38
21.59
24.91
25.50
24.44
21.61
17.05
11.16
4.58
-1.61
-7.07
-11.53
-14.68
-16.68
-18.30
-20.15
-22.58
-25.75
-29.40
-33.51
-37.86
-42.04
-45.90
-49.87
-54.16
-59.05
-64.97
-72.22
-80.84
-90.26
-99.29
-106.68
-111.83
-114.34
-114.60
-114.02
-114.47
-117.36
-123.06
-130.67
-137.83
-141.37
-136.96
-120.98
-92.37
-53.41
-8.85
35.38
73.87
104.77
124.53
132.65
132.52
129.66
125.45
119.17
110.24
98.38
84.81
71.07
59.04
49.68
42.50
35.87
28.47
19.66
9.54
-1.05
-10.98
-18.45
-21.89
-20.66
-15.22
-6.48
4.26
15.45
25.56
33.12
37.35
37.92
34.90
28.75
20.68
12.27
4.99
-0.24
-3.35
-4.77
-5.27
-5.65
-6.47
-7.67
-8.86
-9.58
-9.55
-8.82
-7.66
-6.38
-5.27
-4.47
-3.90
-3.35
-2.53
-1.15
0.97
3.92
7.58
11.76
16.26
20.99
26.12
31.95
38.87
47.14
56.74
67.19
77.56
86.61
92.97
95.46
93.51
87.44
78.44
68.23
58.41
49.90
42.64
35.70
27.76
17.83
5.64
-8.18
-22.36
-35.60
-46.81
-55.39
-61.42
-65.75
-69.91
-75.79
-84.85
-97.15
-110.75
-121.34
-123.26
-111.70
-84.95
-45.64
-0.34
42.29
74.17
89.47
86.74
68.74
40.84
8.94
-21.91
-47.82
-66.02
-74.58
-73.54
-64.01
-48.31
-30.16
-14.51
-6.20
-8.14
-20.55
-40.83
-66.01
-92.38
-116.03
-133.70
-143.40
-144.25
-136.03
-119.21
-88.51
-46.17
-1.62
33.97
54.37
59.56
53.16
40.93
26.40
12.13
-1.07
-12.14
-19.58
-22.05
-19.05
-11.75
-2.34
6.66
13.44
16.38
15.53
12.72
10.62
11.31
15.52
22.74
31.57
40.60
48.22
53.61
56.87
58.53
58.94
57.99
55.54
51.53
46.30
40.11
33.32
26.34
19.41
12.57
5.69
-1.20
-7.76
-13.41
-17.57
-19.77
-19.66
-17.08
-12.12
-5.08
3.49
12.79
21.82
29.53
35.10
38.15
38.81
37.61
35.18
32.02
28.39
24.43
20.30
16.32
12.89
10.34
8.76
7.98
7.62
7.33
6.93
6.37
5.67
4.78
3.59
2.04
0.21
-1.55
-2.79
-3.16
-2.63
-1.67
-0.99
-1.34
-3.04
-5.86
-9.03
-11.58
-12.72
-12.10
-9.85
-6.47
-2.51
1.56
5.45
8.98
12.01
14.41
16.08
17.02
17.36
17.35
17.26
17.28
17.47
17.70
17.71
17.18
15.86
13.68
10.79
7.57
4.46
1.86
-0.05
-1.28
-1.97
-2.31
-2.46
-2.57
-2.83
-3.41
-4.50
-6.14
-8.15
-10.14
-11.61
-12.05
-11.14
-8.81
-5.28
-0.98
3.54
7.76
11.24
13.71
15.05
15.25
14.39
12.61
10.14
7.32
4.55
2.24
0.69
-0.01
0.07
0.73
1.80
3.12
4.57
5.99
7.16
7.82
7.81
7.12
5.88
4.32
2.62
0.84
-1.13
-3.47
-6.27
-9.46
-12.70
-15.52
-17.39
-17.97
-17.14
-15.08
-12.08
-8.49
-4.61
-0.69
3.04
6.38
9.16
11.32
12.90
14.03
14.82
15.31
15.42
15.06
14.13
12.66
10.74
8.56
6.30
4.13
2.19
0.60
-0.61
-1.50
-2.15
-2.71
-3.30
-3.98
-4.79
-5.72
-6.81
-8.08
-9.49
-10.89
-12.04
-12.59
-12.26
-10.90
-8.62
-5.70
-2.50
0.64
3.50
5.97
7.99
9.52
10.45
10.74
10.37
9.47
8.29
7.11
6.18
5.62
5.37
5.25
5.00
4.39
3.28
1.68
-0.26
-2.27
-4.02
-5.20
-5.60
-5.11
-3.84
-2.00
0.09
2.12
3.82
5.04
5.83
6.34
6.81
7.46
8.46
9.82
11.48
13.33
15.31
17.41
19.66
22.05
24.53
26.99
29.33
31.47
33.40
35.19
36.91
38.63
40.46
42.47
44.67
46.91
48.81
49.79
49.16
46.43
41.43
34.37
25.80
16.35
6.57
-3.19
-12.74
-21.89
-30.43
-38.11
-44.71
-50.12
-54.35
-57.44
-59.42
-60.22
-59.74
-57.93
-54.87
-50.81
-46.07
-40.97
-35.81
-30.87
-26.46
-22.95
-20.69
-19.80
-20.14
-21.18
-22.22
-22.58
-21.87
-20.10
-17.62
-15.01
-12.83
-11.50
-11.21
-11.91
-13.38
-15.20
-16.93
-18.06
-18.21
-17.13
-14.81
-11.49
-7.63
-3.83
-0.69
1.34
2.01
1.31
-0.61
-3.51
-7.10
-11.05
-14.90
-18.18
-20.47
-21.52
-21.40
-20.35
-18.74
-16.84
-14.74
-12.42
-9.82
-7.02
-4.24
-1.86
-0.20
0.53
0.37
-0.45
-1.56
-2.56
-3.14
-3.12
-2.49
-1.38
-0.04
1.21
1.97
1.84
0.41
-2.63
-7.47
-14.07
-22.11
-30.92
-39.49
-46.59
-51.01
-51.86
-48.79
-42.07
-32.45
-20.85
-8.07
5.28
18.72
31.61
43.09
52.11
57.72
59.43
57.42
52.58
46.25
39.91
34.86
32.02
31.78
34.01
38.18
43.46
48.95
53.84
57.54
59.74
60.32
59.33
56.89
53.20
48.52
43.14
37.25
31.02
24.48
17.70
10.78
3.96
-2.46
-8.13
-12.80
-16.41
-19.17
-21.54
-24.14
-27.56
-32.17
-37.99
-44.58
-51.26
-57.23
-61.90
-64.97
-66.44
-66.54
-65.56
-63.77
-61.37
-58.50
-55.23
-51.61
-47.66
-43.41
-38.93
-34.38
-29.97
-25.97
-22.57
-19.94
-18.09
-16.87
-15.91
-14.63
-12.30
-8.23
-2.06
6.08
15.47
24.97
33.30
39.34
42.44
42.45
39.74
34.97
29.06
22.97
17.63
13.78
11.92
12.16
14.25
17.69
21.83
26.03
29.81
32.86
35.08
36.53
37.34
37.65
37.48
36.69
34.98
31.91
27.09
20.31
11.70
1.78
-8.57
-18.33
-26.55
-32.60
-36.31
-37.95
-38.08
-37.28
-35.99
-34.36
-32.35
-29.84
-26.75
-23.18
-19.34
-15.45
-11.66
-8.02
-4.44
-0.85
2.76
6.29
9.54
12.29
14.39
15.81
16.59
16.85
16.69
16.18
15.34
14.14
12.63
10.87
8.94
6.88
4.70
2.37
-0.08
-2.47
-4.48
-5.79
-6.23
-5.97
-5.52
-5.57
-6.77
-9.54
-13.98
-19.90
-26.92
-34.42
-41.56
-47.26
-50.35
-49.86
-45.30
-36.95
-25.80
-13.32
-1.07
9.70
18.26
24.41
28.38
30.61
31.64
31.97
31.97
31.90
31.91
32.03
32.27
32.61
33.07
33.78
34.94
36.80
39.57
43.30
47.85
52.87
57.89
62.46
66.26
69.13
71.09
72.28
72.88
73.04
72.86
72.29
71.24
69.62
67.48
65.09
62.90
61.44
61.13
62.18
64.54
67.98
72.20
76.80
81.34
85.29
88.14
89.54
89.36
87.73
84.84
80.88
75.85
69.76
62.72
55.09
47.51
40.68
35.06
30.81
27.67
25.21
23.00
20.73
18.20
15.16
11.21
5.84
-1.50
-11.19
-23.38
-38.13
-55.41
-75.17
-96.70
-118.20
-136.72
-148.91
-152.36
-146.80
-134.53
-119.80
-107.31
-100.41
-100.12
-105.24
-113.29
-121.65
-128.06
-130.69
-128.03
-119.49
-105.62
-88.40
-70.90
-56.34
-46.78
-42.04
-39.69
-36.16
-29.49
-19.67
-8.53
1.36
7.54
8.36
3.47
-6.10
-18.30
-32.36
-47.21
-60.74
-70.02
-73.10
-70.70
-66.12
-63.70
-66.86
-79.22
-100.91
-127.50
-151.21
-164.71
-164.22
-150.14
-125.83
-96.14
-70.02
-55.87
-58.67
-78.71
-113.53
-159.91
-214.46
-273.40
-308.89
-300.02
-244.60
-161.80
-75.93
-2.31
54.16
94.57
122.20
140.46
148.28
144.36
130.32
112.26
98.33
95.02
104.97
126.40
153.74
177.18
188.41
184.58
169.29
149.28
130.34
115.20
104.40
96.24
87.78
77.24
64.96
52.92
43.03
35.76
30.37
25.96
22.11
18.40
14.96
12.43
11.66
12.86
15.18
17.14
17.73
16.53
13.69
9.86
5.94
2.80
1.07
1.19
1.44
1.50
1.46
1.76
2.85
4.94
7.94
11.44
14.87
17.60
19.50
20.49
20.72
20.41
19.79
18.92
17.71
15.93
13.25
9.61
5.01
-0.38
-6.20
-11.82
-16.46
-19.33
-19.76
-17.50
-12.64
-5.80
2.06
9.87
16.76
22.15
25.77
27.63
27.87
26.76
24.62
21.84
18.89
16.26
14.38
13.53
13.76
14.99
16.98
19.44
22.00
24.25
25.83
26.50
26.15
24.87
22.79
20.05
16.73
12.84
8.39
3.46
-1.79
-7.10
-12.06
-16.24
-19.13
-20.33
-19.65
-17.21
-13.52
-9.30
-5.33
-2.23
-0.33
0.36
0.02
-1.07
-2.58
-4.22
-5.75
-7.01
-7.95
-8.62
-9.13
-9.62
-10.18
-10.85
-11.64
-12.59
-13.74
-15.13
-16.77
-18.60
-20.56
-22.61
-24.77
-27.15
-29.84
-32.85
-36.01
-39.04
-41.58
-43.27
-43.80
-42.87
-40.29
-36.00
-30.18
-23.28
-16.02
-9.19
-3.45
0.91
3.96
6.09
7.74
9.26
10.73
12.05
12.97
13.25
12.70
11.26
8.97
5.99
2.57
-1.03
-4.58
-7.85
-10.67
-12.84
-14.15
-14.42
-13.64
-11.98
-9.88
-7.93
-6.73
-6.66
-7.82
-10.01
-12.77
-15.61
-18.05
-19.74
-20.50
-20.27
-19.09
-16.99
-13.99
-10.02
-5.03
0.94
7.68
14.77
21.67
27.82
32.81
36.43
38.64
39.59
39.46
38.44
36.73
34.50
31.92
29.13
26.25
23.43
20.88
18.93
18.00
18.45
20.48
23.93
28.29
32.82
36.76
39.50
40.75
40.56
39.18
37.05
34.73
32.85
32.09
32.98
35.85
40.68
47.12
54.58
62.41
70.11
77.35
84.09
90.38
96.38
102.16
107.70
112.90
117.69
122.16
126.49
130.93
135.55
140.09
143.96
146.40
146.75
144.74
140.52
134.49
127.13
118.76
109.43
99.01
87.28
74.07
59.25
42.81
24.88
5.82
-13.68
-32.69
-50.18
-65.27
-77.41
-86.48
-92.64
-96.21
-97.42
-96.49
-93.60
-89.03
-83.23
-76.76
-70.14
-63.80
-57.99
-52.82
-48.31
-44.39
-40.94
-37.78
-34.69
-31.53
-28.32
-25.28
-22.83
-21.53
-21.92
-24.35
-28.96
-35.54
-43.60
-52.46
-61.45
-70.07
-78.10
-85.59
-92.71
-99.52
-105.84
-111.28
-115.47
-118.37
-120.46
-122.67
-126.11
-131.72
-139.94
-150.63
-163.00
-175.74
-187.13
-195.30
-198.61
-196.12
-187.90
-175.08
-159.42
-142.77
-126.44
-110.97
-96.20
-81.68
-67.13
-52.78
-39.35
-27.64
-18.10
-10.32
-2.99
5.61
16.87
31.17
47.58
64.27
79.23
90.88
98.46
101.86
101.40
97.64
91.49
84.23
77.48
72.73
70.88
71.86
74.73
78.06
80.53
81.30
80.17
77.50
74.01
70.57
67.99
66.75
66.93
68.16
69.81
71.33
72.44
73.22
74.00
75.08
76.52
77.99
78.84
78.20
75.25
69.45
60.67
49.25
35.92
21.64
7.36
-6.12
-18.25
-28.72
-37.46
-44.61
-50.57
-55.97
-61.55
-67.93
-75.44
-83.92
-92.72
-100.86
-107.30
-111.17
-111.97
-109.65
-104.46
-96.84
-87.28
-76.27
-64.33
-52.01
-39.95
-28.71
-18.72
-10.08
-2.68
3.78
9.50
14.48
18.45
21.03
21.93
21.04
18.61
15.11
11.14
7.31
4.05
1.65
0.33
0.23
1.56
4.46
8.92
14.57
20.68
26.25
30.35
32.36
32.30
30.75
28.70
27.11
26.57
27.11
28.18
28.90
28.28
25.54
20.36
12.92
3.83
-6.02
-15.77
-24.68
-32.30
-38.32
-42.53
-44.74
-44.72
-42.43
-38.01
-31.94
-24.98
-18.04
-11.92
-7.18
-4.00
-2.16
-1.18
-0.43
0.69
2.61
5.51
9.29
13.66
18.13
22.22
25.49
27.67
28.71
28.74
28.02
26.81
25.31
23.68
22.00
20.35
18.81
17.45
16.25
15.16
14.06
12.84
11.43
9.87
8.28
6.83
5.68
4.89
4.41
4.08
3.69
3.01
1.89
0.30
-1.67
-3.81
-5.82
-7.35
-8.02
-7.52
-5.66
-2.47
1.80
6.69
11.62
16.09
19.74
22.45
24.31
25.53
26.29
26.71
26.81
26.54
25.92
25.00
23.92
22.80
21.61
20.19
18.27
15.59
12.09
7.94
3.51
-0.78
-4.58
-7.72
-10.15
-11.91
-13.10
-13.89
-14.53
-15.33
-16.53
-18.12
-19.70
-20.59
-19.99
-17.32
-12.49
-5.89
1.69
9.39
16.50
22.59
27.51
31.21
33.68
34.85
34.66
33.09
30.25
26.37
21.80
16.95
12.19
7.87
4.25
1.49
-0.40
-1.54
-2.16
-2.53
-2.93
-3.62
-4.84
-6.85
-9.85
-13.99
-19.24
-25.40
-32.09
-38.74
-44.70
-49.24
-51.68
-51.52
-48.56
-43.04
-35.64
-27.33
-19.17
-11.99
-6.26
-2.06
0.81
2.64
3.66
3.95
3.49
2.23
0.25
-2.26
-5.00
-7.66
-10.03
-12.05
-13.80
-15.47
-17.28
-19.44
-22.13
-25.48
-29.50
-34.06
-38.73
-42.88
-45.72
-46.60
-45.15
-41.40
-35.71
-28.60
-20.52
-11.78
-2.55
7.01
16.67
26.07
34.78
42.44
48.75
53.55
56.70
58.12
57.81
55.99
53.09
49.78
46.76
44.56
43.35
42.95
42.87
42.60
41.69
39.94
37.32
33.98
30.12
25.95
21.66
17.44
13.40
9.62
6.08
2.62
-0.99
-4.98
-9.47
-14.32
-19.09
-23.16
-25.93
-27.03
-26.49
-24.61
-21.80
-18.42
-14.61
-10.49
-6.21
-2.10
1.42
3.95
5.32
5.64
5.23
4.43
3.49
2.54
1.64
0.86
0.28
-0.04
-0.17
-0.27
-0.62
-1.43
-2.81
-4.64
-6.63
-8.47
-9.90
-10.83
-11.36
-11.67
-11.98
-12.30
-12.46
-12.18
-11.18
-9.24
-6.34
-2.57
1.84
6.62
11.64
16.83
22.15
27.53
32.82
37.77
42.10
45.59
48.13
50.00
51.63
53.51
55.99
59.27
63.30
67.89
72.72
77.44
82.15
86.96
91.81
96.40
100.35
103.10
104.18
103.04
99.09
92.75
84.53
74.79
63.74
51.76
39.32
27.48
17.19
9.12
4.74
4.71
8.26
13.55
18.59
21.64
22.38
20.83
17.05
12.65
8.77
5.61
2.93
0.96
0.21
2.16
7.48
5.87
-8.31
-33.56
-62.68
-88.86
-105.67
-115.77
-121.45
-124.40
-125.91
-125.76
-123.43
-119.25
-114.24
-109.25
-105.02
-100.99
-96.65
-91.88
-85.55
-77.02
-66.62
-55.45
-44.51
-34.68
-25.62
-16.75
-7.44
3.54
16.68
30.88
43.50
51.21
51.02
41.98
25.28
4.01
-17.29
-34.43
-44.89
-48.14
-45.19
-37.95
-28.37
-18.34
-9.54
-3.19
-0.06
-0.28
-3.25
-7.62
-11.89
-14.87
-16.06
-15.59
-14.01
-12.00
-10.15
-8.72
-7.47
-6.05
-4.29
-2.20
0.22
3.03
6.27
9.88
13.74
17.98
22.41
26.46
29.46
31.08
31.55
31.52
31.64
32.66
35.55
40.61
47.26
54.25
60.33
64.62
66.54
65.52
57.60
41.33
19.13
-4.02
-23.96
-38.78
-48.25
-52.93
-55.08
-55.31
-53.33
-49.10
-43.27
-37.07
-31.63
-27.69
-24.43
-21.40
-17.85
-12.96
-6.48
0.99
8.31
14.49
19.15
22.52
25.10
27.72
31.24
36.04
41.90
48.10
53.87
58.57
61.87
63.68
64.46
64.99
66.06
68.09
71.02
74.38
77.52
79.90
81.23
81.81
82.23
83.19
85.04
87.53
89.76
90.32
87.66
80.53
68.61
52.63
34.29
15.71
-1.24
-15.45
-26.76
-35.70
-43.07
-49.54
-55.38
-60.56
-64.94
-68.41
-70.97
-72.65
-73.42
-73.17
-71.72
-68.98
-65.05
-60.25
-55.05
-49.95
-45.33
-41.33
-37.92
-34.95
-32.31
-30.00
-28.11
-26.78
-26.02
-25.67
-25.44
-24.91
-23.75
-21.72
-18.76
-14.99
-10.69
-6.13
-1.54
3.03
7.63
12.38
17.31
22.25
26.86
30.67
33.25
34.36
34.03
32.64
30.69
28.72
27.04
25.60
24.06
21.93
18.86
14.81
10.17
5.54
1.54
-1.57
-3.91
-6.02
-8.53
-11.90
-16.22
-21.16
-26.20
-30.90
-35.11
-39.08
-43.20
-47.77
-52.71
-57.55
-61.57
-64.23
-65.44
-65.61
-65.54
-65.97
-67.35
-69.63
-72.35
-74.86
-76.55
-77.09
-76.47
-75.00
-73.25
-71.94
-71.66
-72.74
-74.94
-77.33
-78.37
-76.26
-69.52
-57.64
-41.38
-22.66
-3.93
12.62
25.76
35.49
42.81
49.14
55.66
62.95
70.79
78.32
84.29
87.44
86.74
81.75
72.69
60.42
46.18
31.33
17.04
4.19
-6.62
-15.12
-21.32
-25.58
-28.53
-30.93
-33.41
-36.25
-39.31
-42.16
-44.30
-45.37
-45.32
-44.33
-42.75
-40.91
-39.09
-37.49
-36.27
-35.52
-35.14
-34.83
-34.06
-32.20
-28.66
-23.12
-15.61
-6.48
3.75
14.50
25.20
35.22
43.80
49.98
52.78
51.58
46.41
38.16
28.37
18.75
10.57
4.32
-0.31
-4.03
-7.52
-11.04
-14.49
-17.58
-20.16
-22.35
-24.48
-26.80
-29.37
-31.98
-34.29
-36.03
-37.15
-37.88
-38.61
-39.81
-41.77
-44.47
-47.42
-49.60
-49.61
-45.92
-37.31
-23.29
-4.36
17.91
41.23
63.09
81.26
94.25
101.38
102.67
98.62
90.10
78.25
64.43
50.12
36.64
24.93
15.36
7.76
1.65
-3.44
-7.77
-11.38
-14.18
-16.15
-17.38
-18.08
-18.45
-18.66
-18.85
-19.18
-19.77
-20.67
-21.77
-22.71
-22.98
-22.06
-19.62
-15.65
-10.49
-4.71
1.07
6.39
10.98
14.81
17.95
20.48
22.46
23.85
24.62
24.79
24.46
23.85
23.19
22.65
22.30
22.08
21.86
21.52
20.98
20.19
19.18
17.94
16.52
14.96
13.36
11.85
10.57
9.58
8.85
8.21
7.51
6.62
5.59
4.60
3.89
3.67
4.07
5.16
6.90
9.26
12.10
15.24
18.37
21.13
23.14
24.12
23.93
22.54
20.08
16.74
12.77
8.45
4.10
-0.05
-3.81
-7.12
-9.98
-12.46
-14.67
-16.79
-18.95
-21.27
-23.71
-26.11
-28.25
-29.89
-30.91
-31.34
-31.32
-31.03
-30.66
-30.36
-30.18
-30.05
-29.88
-29.57
-29.06
-28.40
-27.66
-26.95
-26.28
-25.60
-24.81
-23.98
-23.36
-23.28
-24.09
-25.92
-28.60
-31.76
-34.78
-37.15
-38.61
-39.24
-39.35
-39.31
-39.41
-39.80
-40.61
-41.65
-42.81
-44.21
-46.15
-48.80
-52.20
-56.04
-59.87
-63.25
-65.22
-65.09
-62.85
-59.25
-55.25
-51.78
-48.96
-46.26
-42.70
-36.27
-25.43
-10.06
8.61
28.83
48.79
67.56
84.57
99.38
112.87
125.88
138.39
149.63
158.86
165.44
169.72
172.34
167.41
152.12
129.20
104.89
83.63
68.65
56.91
46.45
36.80
28.23
21.95
19.25
19.95
22.47
24.99
25.79
24.27
20.14
11.88
-0.47
-15.03
-28.50
-37.38
-39.24
-34.14
-25.66
-16.92
-11.33
-10.71
-15.12
-23.48
-34.40
-45.70
-55.39
-61.75
-63.77
-61.72
-56.36
-48.99
-41.59
-36.31
-34.73
-37.49
-43.86
-52.00
-59.78
-65.05
-66.21
-62.75
-55.28
-45.17
-34.12
-23.64
-14.55
-7.20
-1.44
3.03
6.23
7.74
6.80
2.70
-4.66
-14.30
-24.31
-32.31
-36.22
-35.08
-29.33
-20.46
-10.35
-0.38
8.89
17.56
25.94
34.06
41.53
47.79
52.53
55.87
58.33
60.51
62.79
65.24
67.74
70.21
72.79
75.76
79.40
83.76
88.51
93.02
96.52
98.36
98.29
96.62
94.09
91.68
90.21
90.12
91.33
93.40
95.80
98.06
99.91
101.10
101.31
100.08
96.88
91.34
83.48
73.80
63.14
52.44
42.45
33.52
25.60
18.29
11.08
3.60
-4.25
-12.27
-19.98
-26.91
-32.78
-37.63
-41.81
-45.80
-50.02
-54.63
-59.51
-64.30
-68.58
-71.95
-74.12
-74.98
-74.60
-73.18
-71.02
-68.45
-65.78
-63.29
-61.18
-59.53
-58.36
-57.51
-56.70
-55.58
-53.91
-51.62
-48.94
-46.24
-43.90
-42.13
-40.94
-40.15
-39.56
-39.06
-38.60
-38.29
-38.26
-38.65
-39.64
-41.33
-43.75
-46.81
-50.30
-53.94
-57.52
-61.03
-64.64
-68.68
-73.51
-79.34
-86.15
-93.60
-101.09
-107.88
-113.17
-116.30
-116.84
-114.73
-110.22
-103.79
-95.93
-86.91
-76.66
-64.84
-51.18
-35.82
-19.62
-4.05
9.23
18.99
24.93
27.84
29.33
31.25
35.09
41.57
50.62
61.55
73.35
84.99
95.56
104.40
111.10
115.57
118.01
118.87
118.76
118.22
117.65
117.12
116.46
115.32
113.36
110.32
106.08
100.57
93.78
85.78
76.85
67.50
58.41
50.17
43.09
37.02
31.36
25.25
17.92
8.90
-1.87
-14.03
-26.99
-40.07
-52.46
-63.50
-72.72
-79.93
-85.04
-88.05
-88.97
-87.78
-84.35
-78.33
-69.44
-57.80
-44.03
-29.23
-14.87
-2.51
6.57
11.81
13.69
13.05
10.46
5.99
-0.39
-8.30
-16.48
-22.88
-25.24
-21.72
-12.35
0.59
13.46
22.99
27.63
27.85
25.63
20.91
14.87
10.32
10.52
17.04
28.80
42.38
52.79
55.15
46.77
29.11
7.03
-13.33
-27.26
-33.04
-31.97
-27.40
-22.24
-18.09
-14.88
-11.92
-8.73
-5.36
-1.98
1.65
5.83
10.67
15.84
20.86
25.15
28.25
30.18
29.66
27.23
24.11
21.62
20.75
21.81
24.15
26.15
25.72
21.02
11.53
-2.16
-18.44
-35.22
-50.48
-62.66
-70.80
-74.58
-74.24
-70.25
-63.49
-54.93
-45.32
-35.17
-24.95
-15.42
-7.88
-3.83
-4.27
-9.49
-18.79
-30.79
-43.98
-56.92
-68.21
-76.58
-81.29
-82.85
-83.33
-85.50
-90.91
-98.08
-101.97
-95.75
-74.10
-36.27
12.89
64.57
109.42
140.89
156.84
158.90
150.65
135.76
117.28
97.82
79.92
65.98
57.53
54.61
55.67
57.91
58.37
54.88
46.60
34.02
18.81
3.37
-9.69
-18.10
-20.58
-17.36
-10.06
-1.12
7.24
13.61
17.25
17.35
12.28
-0.17
-21.59
-51.26
-85.21
-116.96
-139.71
-149.07
-144.74
-130.25
-111.04
-91.94
-75.50
-61.66
-48.78
-34.93
-18.88
-0.34
20.25
42.02
63.77
84.11
101.40
113.95
120.39
120.02
113.03
100.51
84.34
66.75
50.04
36.06
26.02
20.25
18.35
