1605144876.00
64.000000
-0.00
-0.00
-0.00
-0.00
-0.00
-0.00
-0.00
-0.00
-0.00
-0.00
0.00
0.01
0.01
-0.00
-0.03
-0.05
-0.05
0.00
0.13
0.36
0.66
1.01
1.37
1.72
2.06
2.40
2.79
3.24
3.80
4.42
5.06
5.68
6.23
6.73
7.23
7.81
8.51
9.44
10.52
11.62
12.63
13.49
14.24
15.05
16.13
17.63
19.80
22.44
25.28
28.03
30.51
32.80
35.20
38.16
42.00
47.12
53.17
59.63
65.92
71.68
76.97
82.27
88.29
95.62
104.79
115.33
126.42
137.12
146.84
155.58
163.94
173.30
182.44
193.69
207.70
224.55
242.97
259.97
271.15
271.82
258.67
230.93
191.14
143.21
91.44
38.94
-12.85
-63.80
-114.13
-163.51
-210.96
-254.92
-294.47
-329.24
-359.14
-383.94
-402.96
-415.60
-421.03
-418.64
-408.21
-389.78
-364.10
-332.29
-295.64
-255.33
-212.44
-168.70
-125.57
-84.25
-45.84
-11.26
18.92
44.68
66.41
84.75
100.44
113.99
125.47
134.40
139.87
140.73
135.99
125.01
107.63
84.70
57.53
27.68
-3.12
-33.25
-61.39
-86.46
-107.89
-125.52
-139.61
-150.72
-159.63
-167.18
-174.07
-180.94
-187.97
-195.12
-202.05
-208.08
-212.31
-213.71
-211.21
-202.79
-187.00
-162.87
-130.38
-90.49
-45.10
3.10
50.80
94.51
131.08
157.01
170.74
171.95
161.45
140.84
112.31
78.33
41.56
4.65
-30.05
-59.72
-82.30
-96.42
-101.43
-96.66
-82.44
-59.95
-31.05
1.78
35.91
68.59
97.46
120.79
137.73
148.14
152.59
152.24
148.45
142.67
136.10
129.64
123.90
119.15
115.32
112.21
109.50
106.89
104.11
100.95
97.29
93.06
88.31
83.03
77.29
71.16
64.76
58.30
51.94
45.81
40.03
34.69
29.79
25.31
21.24
17.51
14.10
10.97
8.11
5.52
3.19
1.11
-0.74
-2.38
-3.82
-5.09
-6.18
-7.11
-7.88
-8.49
-8.93
-9.26
-9.46
-9.55
-9.55
-9.47
-9.32
-9.12
-8.89
-8.51
-8.07
-7.61
-7.14
-6.66
-6.18
-5.71
-5.25
-4.78
-4.29
-3.81
-3.33
-2.87
-2.47
-2.14
-1.88
-1.64
-1.38
-1.04
-0.61
-0.09
0.48
1.02
1.51
1.95
2.36
2.85
3.49
4.29
5.25
6.26
7.24
8.09
8.81
9.51
10.37
11.57
13.16
15.07
17.04
18.77
20.06
20.87
21.49
22.35
23.90
26.32
29.40
32.59
35.22
36.76
37.08
36.58
35.91
35.59
35.67
35.49
33.80
29.26
20.98
8.89
-6.02
-22.12
-37.89
-52.33
-65.33
-77.48
-89.54
-101.43
-113.87
-127.21
-141.23
-154.70
-164.84
-167.74
-159.77
-139.67
-110.24
-76.85
-46.35
-24.16
-12.13
-8.35
-8.79
-9.64
-8.92
-6.61
-3.53
-0.03
4.63
11.58
21.33
33.05
44.81
54.37
60.09
61.75
60.52
58.30
56.83
56.90
58.15
59.32
59.01
56.47
52.03
47.03
43.16
41.74
43.04
46.15
49.44
51.34
50.98
48.63
45.47
42.94
42.19
43.85
48.01
54.24
61.42
67.52
69.83
65.73
54.03
35.90
14.88
-4.42
-18.30
-25.50
-27.42
-26.92
-26.56
-27.28
-28.38
-28.40
-26.42
-22.77
-18.68
-15.51
-13.85
-13.29
-12.82
-11.47
-8.73
-4.80
-0.35
3.79
6.91
8.71
9.19
8.97
8.39
7.64
6.74
5.63
4.18
2.34
0.19
-1.92
-3.47
-4.00
-3.25
-1.40
0.93
2.91
3.80
3.29
1.52
-1.04
-3.96
-7.00
-10.13
-13.26
-16.05
-17.80
-17.75
-15.43
-11.01
-5.35
0.34
4.93
7.83
9.01
8.96
8.30
7.55
7.08
7.09
7.76
9.19
11.41
14.23
17.28
20.00
21.71
21.64
19.12
13.77
5.81
-3.89
-13.82
-22.27
-27.85
-29.90
-28.59
-24.80
-19.64
-14.17
-9.12
-4.90
-1.64
0.73
2.46
3.97
5.79
8.40
12.05
16.77
22.26
27.96
33.16
37.07
39.12
39.16
37.78
36.23
36.00
38.15
42.50
47.69
51.60
52.57
50.38
46.47
43.28
43.06
46.88
54.30
64.00
74.61
85.33
95.75
105.20
112.08
113.89
107.91
92.25
66.46
31.41
-11.41
-60.35
-113.56
-168.15
-219.54
-261.49
-287.58
-293.49
-279.04
-248.73
-210.25
-171.78
-139.26
-115.16
-98.84
-88.08
-80.66
-75.29
-71.62
-69.70
-69.50
-70.73
-73.00
-75.96
-79.53
-83.80
-88.58
-92.96
-95.34
-93.87
-87.57
-77.48
-67.10
-61.69
-66.63
-85.04
-116.08
-154.24
-190.39
-214.05
-216.36
-192.50
-143.01
-73.05
9.31
95.51
178.17
251.74
312.32
357.14
384.59
394.81
389.96
373.54
349.14
319.11
284.00
243.56
197.93
148.43
96.99
44.86
-8.89
-67.31
-134.05
-210.57
-293.79
-375.64
-444.86
-490.53
-505.77
-490.12
-449.65
-394.69
-336.34
-282.90
-238.04
-200.95
-168.26
-136.52
-103.92
-70.71
-38.40
-8.52
18.26
42.27
64.24
84.61
102.87
117.78
127.98
132.64
131.85
126.58
118.40
109.04
100.01
92.20
85.85
80.65
76.11
71.96
68.37
65.66
63.84
62.33
60.32
57.55
54.86
54.01
56.72
63.46
73.04
83.37
92.82
101.47
110.97
123.38
139.49
157.98
175.81
189.75
197.92
200.40
198.78
194.87
189.68
183.06
174.21
162.52
148.29
132.86
118.16
105.82
96.29
88.60
80.64
70.25
56.28
39.39
21.76
6.12
-5.58
-13.05
-17.63
-21.45
-26.25
-32.63
-40.07
-47.61
-54.71
-61.64
-69.06
-77.29
-85.60
-92.28
-95.28
-93.37
-86.92
-77.88
-68.99
-62.49
-59.13
-57.96
-56.87
-53.74
-47.37
-37.99
-26.86
-15.54
-5.10
4.33
13.37
22.98
33.85
46.13
59.45
73.11
86.33
98.36
108.49
116.02
120.36
121.16
118.58
113.28
106.28
98.67
91.20
84.07
77.09
69.83
62.01
53.58
44.71
35.64
26.66
18.14
10.63
4.70
0.75
-1.42
-2.71
-4.52
-8.20
-14.58
-23.60
-34.48
-46.08
-57.40
-67.84
-77.21
-85.64
-93.45
-100.97
-108.45
-115.84
-122.79
-128.67
-132.84
-134.85
-134.58
-132.19
-127.93
-121.97
-114.45
-105.52
-95.56
-85.20
-75.16
-66.14
-58.58
-52.62
-48.13
-44.83
-42.35
-40.35
-38.42
-36.21
-33.28
-29.26
-23.90
-17.24
-9.67
-1.97
4.91
10.14
13.33
14.65
14.67
14.12
13.47
12.94
12.56
12.48
13.16
15.31
19.60
26.26
34.76
43.81
51.76
57.08
58.89
57.20
52.85
47.18
41.63
37.37
35.11
35.08
37.11
40.77
45.46
50.40
54.82
57.95
59.37
59.10
57.73
56.18
55.38
55.92
57.75
60.33
62.93
65.08
66.90
68.94
71.86
75.96
80.92
85.92
89.97
92.38
92.89
91.63
88.77
84.26
77.61
67.93
54.27
36.02
13.42
-12.16
-38.32
-62.22
-81.33
-94.25
-100.98
-102.75
-101.38
-98.58
-95.54
-92.88
-90.91
-89.81
-89.68
-90.43
-91.68
-92.84
-93.26
-92.49
-90.39
-87.01
-82.51
-77.00
-70.55
-63.16
-54.85
-45.60
-35.47
-24.59
-13.32
-2.35
7.40
14.93
19.43
20.53
18.44
13.83
7.66
0.95
-5.41
-10.70
-14.30
-15.78
-14.82
-11.34
-5.61
1.72
9.63
16.97
22.68
26.16
27.38
26.88
25.51
24.17
23.50
23.80
24.98
26.75
28.78
30.94
33.36
36.32
40.04
44.47
49.21
53.61
57.18
59.80
61.77
63.57
65.41
67.01
67.70
66.89
64.58
61.52
58.93
57.81
58.40
59.95
61.17
60.80
58.29
53.88
48.29
42.13
35.49
27.93
18.87
8.06
-4.03
-16.34
-27.57
-36.71
-43.33
-47.68
-50.36
-52.16
-53.66
-55.20
-56.79
-58.26
-59.38
-60.02
-60.33
-60.60
-61.16
-62.04
-62.78
-62.65
-60.96
-57.66
-53.55
-50.05
-48.42
-49.17
-51.67
-54.47
-55.85
-54.43
-49.58
-41.42
-30.79
-19.09
-8.17
0.06
4.19
3.86
0.01
-5.39
-10.17
-12.85
-13.06
-11.36
-8.70
-5.79
-2.92
-0.13
2.36
4.07
4.31
2.54
-1.33
-6.85
-13.23
-19.68
-25.59
-30.63
-34.67
-37.57
-39.17
-39.19
-37.37
-33.65
-28.24
-21.71
-14.83
-8.38
-2.88
1.52
4.99
7.87
10.41
12.65
14.46
15.71
16.28
16.12
15.18
13.37
10.62
7.04
2.94
-1.18
-4.84
-7.83
-10.31
-12.74
-15.61
-19.16
-23.30
-27.61
-31.60
-34.86
-37.12
-38.32
-38.50
-37.86
-36.83
-36.09
-36.49
-38.75
-43.13
-49.08
-55.26
-59.80
-60.91
-57.50
-49.61
-38.30
-25.21
-11.91
0.75
12.71
24.47
36.67
49.72
63.49
77.25
89.51
98.28
101.57
98.14
88.24
73.75
57.79
43.50
33.02
26.86
24.03
22.83
21.66
19.53
16.08
11.32
5.41
-1.45
-8.88
-16.38
-23.41
-29.54
-34.50
-38.24
-40.96
-43.07
-45.07
-47.43
-50.32
-53.39
-55.92
-57.03
-56.22
-53.51
-49.53
-45.03
-40.52
-36.00
-30.98
-24.89
-17.56
-9.40
-1.35
5.50
10.43
13.33
14.67
15.20
15.48
15.66
15.52
14.70
13.08
10.92
8.78
7.24
6.55
6.47
6.28
5.07
1.96
-3.56
-11.64
-22.06
-34.37
-47.97
-62.17
-76.22
-89.31
-100.66
-109.55
-115.37
-117.70
-116.20
-110.70
-101.17
-87.83
-71.26
-52.50
-32.89
-13.91
3.16
17.54
29.00
37.80
44.43
49.39
53.03
55.58
57.18
57.96
58.13
57.83
57.21
56.36
55.45
54.77
54.76
55.89
58.41
62.18
66.50
70.31
72.49
72.31
69.70
65.26
59.98
54.80
50.27
46.47
43.20
40.18
37.31
34.57
31.93
29.19
26.06
22.34
18.16
14.08
10.85
9.14
9.29
11.21
14.50
18.70
23.47
28.67
34.28
40.33
46.91
54.16
62.25
71.36
81.51
92.50
103.82
114.70
124.17
131.25
135.14
135.46
132.47
127.02
120.43
114.13
109.18
106.00
104.39
103.64
102.90
101.40
98.45
93.47
86.04
76.02
63.69
49.78
35.29
21.20
8.36
-2.41
-10.26
-14.30
-13.92
-9.38
-2.01
6.09
12.92
17.69
21.47
26.91
37.21
54.73
79.93
110.90
143.67
173.14
194.28
203.37
198.84
181.42
153.66
118.76
79.43
37.13
-8.05
-57.07
-111.44
-172.46
-240.28
-312.55
-383.62
-444.68
-485.75
-499.03
-482.12
-439.27
-379.71
-313.71
-248.61
-186.89
-127.17
-67.24
-6.83
51.68
105.05
151.79
193.64
234.46
277.19
320.85
359.81
385.71
391.48
374.71
338.71
290.51
237.21
182.97
128.24
71.71
13.08
-44.90
-97.06
-138.10
-165.56
-181.08
-189.64
-197.15
-207.87
-223.41
-243.46
-267.54
-296.21
-330.44
-369.76
-410.32
-444.86
-464.92
-464.49
-442.75
-404.66
-358.65
-312.91
-272.17
-236.75
-203.63
-168.86
-129.83
-86.31
-40.41
4.49
44.83
77.98
102.84
120.04
131.61
139.96
147.13
154.20
161.47
168.98
177.16
186.80
198.69
212.84
228.19
243.08
255.98
266.62
276.25
287.17
301.64
320.36
341.58
361.23
374.23
376.36
365.86
344.13
315.11
283.68
253.94
227.85
204.97
183.30
160.57
135.61
108.87
82.24
57.99
37.62
20.98
6.30
-9.19
-28.08
-51.81
-80.23
-111.76
-144.31
-175.92
-205.41
-232.46
-257.28
-280.40
-302.74
-325.90
-352.10
-383.20
-419.14
-456.68
-489.35
-509.21
-509.99
-489.71
-451.69
-403.13
-352.17
-304.82
-263.65
-228.12
-196.25
-166.22
-136.91
-107.46
-76.42
-41.54
-0.54
47.38
100.30
153.45
200.25
234.62
253.12
256.15
247.48
232.55
216.33
201.76
189.41
178.16
166.43
153.06
137.77
121.00
103.63
86.57
70.65
56.43
44.00
33.01
22.58
11.54
-1.23
-16.33
-33.39
-50.92
-66.39
-76.85
-79.69
-73.80
-60.33
-42.90
-26.90
-17.90
-19.63
-32.41
-52.70
-74.27
-90.57
-97.11
-92.96
-80.34
-62.73
-42.72
-20.64
5.07
36.16
72.69
112.04
149.35
178.90
195.82
197.04
181.94
152.42
112.88
69.72
30.23
0.77
-15.01
-17.21
-9.30
3.51
16.25
25.58
30.05
29.51
24.27
14.86
2.23
-11.86
-24.92
-34.27
-38.10
-36.19
-29.97
-22.13
-15.50
-12.15
-12.71
-16.21
-20.67
-23.94
-24.52
-22.05
-17.36
-11.96
-7.47
-5.10
-5.44
-8.47
-13.86
-21.08
-29.60
-38.78
-47.82
-55.78
-61.69
-64.83
-64.87
-61.97
-56.65
-49.58
-41.55
-33.41
-26.05
-20.36
-16.94
-15.97
-17.01
-19.23
-21.72
-23.92
-25.73
-27.38
-29.04
-30.44
-30.78
-29.04
-24.48
-17.04
-7.49
2.90
12.78
21.26
28.11
33.63
38.35
42.59
46.26
48.91
50.07
49.54
47.63
45.03
42.55
40.72
39.59
38.82
37.99
37.01
36.36
36.84
39.17
43.48
49.10
54.68
58.64
59.73
57.39
51.73
43.39
33.19
21.99
10.53
-0.51
-10.56
-19.28
-26.70
-33.20
-39.43
-45.94
-52.88
-59.78
-65.63
-69.29
-69.86
-67.09
-61.44
-53.87
-45.44
-36.95
-28.83
-21.13
-13.76
-6.62
0.26
6.73
12.67
18.04
22.87
27.23
31.12
34.47
37.18
39.20
40.57
41.44
42.11
42.90
44.03
45.42
46.67
47.05
45.79
42.33
36.62
29.19
21.00
13.09
6.18
0.49
-4.21
-8.26
-11.77
-14.55
-16.16
-16.20
-14.53
-11.28
-6.79
-1.45
4.39
10.39
16.25
21.64
26.37
30.45
34.10
37.56
40.94
44.09
46.59
48.01
48.10
46.85
44.44
41.05
36.91
32.31
27.77
23.99
21.70
21.30
22.55
24.47
25.59
24.45
20.18
12.83
3.40
-6.70
-16.27
-24.88
-32.98
-41.59
-51.56
-62.90
-74.55
-84.57
-90.79
-91.61
-86.46
-75.94
-61.50
-44.91
-27.84
-11.78
2.03
12.72
20.43
26.68
34.23
45.88
62.74
82.81
101.01
111.03
108.18
91.79
65.72
36.73
11.53
-5.73
-14.41
-16.52
-14.86
-11.60
-7.75
-3.75
-0.15
2.07
1.72
-1.90
-8.54
-16.81
-24.73
-30.42
-32.73
-31.68
-28.28
-24.00
-20.12
-17.29
-15.47
-14.29
-13.60
-13.70
-15.23
-18.74
-24.17
-30.61
-36.60
-40.59
-41.62
-39.59
-35.19
-29.45
-23.41
-17.73
-12.74
-8.50
-5.00
-2.26
-0.29
0.97
1.72
2.33
3.17
4.46
6.08
7.61
8.42
7.91
5.75
1.98
-3.05
-8.75
-14.45
-19.39
-22.76
-23.70
-21.46
-15.66
-6.51
5.21
18.22
31.10
42.58
51.75
58.13
61.59
62.18
59.99
54.96
46.89
35.54
20.93
3.58
-15.25
-33.83
-50.39
-63.55
-72.70
-77.89
-79.66
-78.99
-77.24
-76.10
-77.14
-81.12
-87.52
-94.55
-99.98
-102.26
-101.37
-98.73
-96.20
-94.89
-94.38
-92.93
-88.37
-79.13
-64.79
-46.00
-24.00
-0.11
24.36
48.13
69.89
88.27
102.04
110.22
112.38
108.77
100.39
88.77
75.77
63.10
52.06
43.29
36.84
32.24
28.80
25.87
23.14
20.76
19.21
19.02
20.34
22.71
25.26
27.09
27.83
27.86
28.17
29.75
33.17
38.25
44.27
50.34
55.82
60.62
65.15
70.23
76.68
84.98
94.99
105.93
116.56
125.57
131.96
135.14
134.82
130.90
123.32
112.23
98.12
81.93
64.80
47.83
31.85
17.34
4.62
-6.00
-14.17
-19.54
-22.08
-22.19
-20.72
-18.81
-17.63
-18.15
-20.91
-25.90
-32.59
-39.99
-46.93
-52.30
-55.29
-55.51
-52.96
-48.02
-41.29
-33.57
-25.77
-18.79
-13.34
-9.92
-8.58
-9.03
-10.66
-12.65
-14.30
-15.12
-15.02
-14.28
-13.46
-13.14
-13.61
-14.91
-16.68
-18.50
-20.03
-21.16
-22.03
-22.94
-24.20
-26.01
-28.41
-31.33
-34.54
-37.81
-40.94
-43.81
-46.52
-49.35
-52.66
-56.59
-60.85
-64.61
-66.66
-65.90
-61.74
-54.41
-44.73
-33.85
-22.72
-11.89
-1.50
8.46
17.90
26.56
34.05
39.98
44.10
46.35
46.80
45.61
43.01
39.31
34.92
30.28
25.77
21.58
17.73
14.07
10.40
6.63
2.76
-1.12
-4.93
-8.69
-12.44
-16.26
-20.12
-23.87
-27.27
-30.16
-32.57
-34.66
-36.75
-39.17
-42.22
-46.12
-50.93
-56.49
-62.30
-67.53
-71.12
-72.08
-69.77
-64.14
-55.75
-45.61
-34.78
-24.10
-13.94
-4.30
5.05
14.25
23.22
31.59
38.82
44.41
48.10
49.94
50.26
49.46
47.95
46.02
43.80
41.41
38.95
36.50
34.13
31.84
29.48
26.89
23.93
20.59
16.99
13.28
9.61
6.02
2.45
-1.27
-5.26
-9.61
-14.30
-19.24
-24.33
-29.57
-35.07
-40.98
-47.34
-53.87
-59.87
-64.29
-65.97
-63.96
-57.87
-47.98
-35.21
-20.90
-6.52
6.62
17.62
26.09
32.15
36.25
39.03
41.12
43.07
45.27
47.88
50.75
53.41
55.12
55.17
53.17
49.31
44.33
39.26
34.98
31.86
29.64
27.65
25.14
21.61
16.97
11.46
5.54
-0.36
-6.02
-11.38
-16.62
-21.98
-27.71
-33.90
-40.45
-46.96
-52.78
-57.05
-58.93
-57.77
-53.32
-45.87
-36.23
-25.49
-14.69
-4.49
5.05
14.36
23.95
33.83
43.25
50.74
54.71
54.24
49.62
42.37
34.65
28.38
24.56
22.99
22.60
22.07
20.32
16.76
11.28
4.05
-4.45
-13.43
-21.84
-28.48
-32.47
-33.53
-32.26
-29.90
-27.99
-27.77
-29.86
-34.09
-39.73
-45.78
-51.40
-56.06
-59.68
-62.41
-64.36
-65.47
-65.33
-63.37
-59.07
-52.21
-43.06
-32.27
-20.71
-9.17
1.77
11.79
20.75
28.57
35.25
40.73
44.99
48.06
49.93
50.67
50.34
49.08
47.05
44.46
41.51
38.39
35.24
32.17
29.28
26.64
24.32
22.27
20.37
18.38
16.03
13.13
9.62
5.58
1.24
-3.13
-7.27
-11.02
-14.31
-17.22
-19.99
-23.01
-26.77
-31.64
-37.56
-43.93
-49.57
-53.08
-53.28
-49.67
-42.53
-32.83
-21.76
-10.38
0.59
10.82
20.22
28.78
36.46
43.16
48.73
53.06
56.08
57.84
58.55
58.54
58.21
57.85
57.51
56.98
55.79
53.43
49.55
44.12
37.45
30.14
22.84
16.12
10.33
5.61
1.89
-1.03
-3.37
-5.40
-7.39
-9.64
-12.38
-15.76
-19.78
-24.25
-28.88
-33.36
-37.47
-41.03
-43.86
-45.61
-45.79
-43.89
-39.58
-33.07
-25.00
-16.39
-8.19
-1.07
4.75
9.40
13.05
15.87
17.86
19.04
19.48
19.36
18.92
18.37
17.73
16.95
15.90
14.47
12.69
10.71
8.81
7.29
6.39
6.13
6.27
6.38
5.97
4.72
2.52
-0.43
-3.80
-7.27
-10.63
-13.86
-17.09
-20.54
-24.46
-29.02
-34.18
-39.54
-44.35
-47.52
-47.93
-44.73
-37.68
-27.17
-14.21
-0.08
13.96
26.95
38.38
48.12
56.29
63.03
68.34
72.04
73.89
73.75
71.74
68.22
63.67
58.56
53.16
47.63
42.07
36.67
31.63
27.14
23.26
19.84
16.62
13.27
9.58
5.47
1.07
-3.37
-7.58
-11.24
-14.26
-16.75
-19.06
-21.75
-25.36
-30.29
-36.54
-43.69
-50.89
-57.03
-61.04
-62.14
-60.10
-55.23
-48.34
-40.41
-32.42
-25.08
-18.84
-13.82
-9.95
-7.00
-4.66
-2.58
-0.50
1.75
4.16
6.60
8.88
10.77
12.05
12.48
11.83
9.98
7.01
3.24
-0.84
-4.70
-8.05
-10.86
-13.34
-15.76
-18.19
-20.42
-22.12
-23.03
-23.24
-23.18
-23.51
-24.78
-27.21
-30.58
-34.26
-37.43
-39.25
-39.07
-36.47
-31.31
-23.75
-14.25
-3.49
7.68
18.39
27.93
35.84
41.95
46.45
49.63
51.78
53.06
53.50
53.01
51.54
49.18
46.11
42.63
38.99
35.31
31.67
28.08
24.62
21.42
18.60
16.16
13.90
11.46
8.47
4.71
0.18
-4.84
-9.96
-14.82
-19.24
-23.24
-27.04
-30.92
-35.19
-40.04
-45.50
-51.37
-57.10
-61.92
-64.94
-65.39
-62.92
-57.65
-50.21
-41.46
-32.29
-23.29
-14.71
-6.48
1.50
9.21
16.38
22.67
27.76
31.61
34.46
36.70
38.70
40.57
42.15
43.09
43.08
42.03
40.11
37.68
35.04
32.32
29.34
25.70
20.96
14.80
7.05
-2.27
-13.04
-25.04
-37.94
-51.26
-64.40
-76.69
-87.60
-96.90
-104.69
-111.26
-116.85
-121.34
-124.22
-124.67
-121.90
-115.53
-105.77
-93.28
-78.89
-63.16
-46.19
-27.76
-7.70
13.69
35.53
56.53
75.47
91.63
104.94
115.81
124.90
132.67
139.30
144.64
148.19
149.13
146.29
138.39
124.46
104.36
79.17
51.05
22.67
-3.43
-25.47
-42.58
-54.58
-61.67
-64.31
-63.17
-59.32
-54.18
-49.30
-46.02
-45.17
-46.91
-50.92
-56.55
-62.94
-69.05
-73.62
-75.27
-72.84
-65.78
-54.41
-40.01
-24.44
-9.65
2.92
12.62
19.57
24.30
27.39
29.13
29.50
28.35
25.57
21.29
15.85
9.67
3.13
-3.47
-9.97
-16.25
-22.14
-27.47
-32.01
-35.60
-38.22
-40.04
-41.48
-43.13
-45.48
-48.69
-52.44
-55.98
-58.58
-59.96
-60.51
-61.23
-63.25
-67.21
-72.93
-79.53
-85.69
-90.18
-92.00
-90.45
-85.04
-75.52
-62.08
-45.53
-27.27
-9.06
7.54
21.59
33.07
42.65
51.31
59.78
68.25
76.30
83.13
87.91
90.16
89.87
87.47
83.62
78.95
73.90
68.72
63.59
58.67
54.20
50.37
47.23
44.61
42.15
39.32
35.70
31.07
25.51
19.32
12.92
6.72
1.04
-3.98
-8.35
-12.30
-16.23
-20.60
-25.66
-31.31
-36.92
-41.52
-44.03
-43.63
-40.06
-33.59
-24.99
-15.25
-5.35
3.90
12.01
18.81
24.41
29.08
33.06
36.48
39.33
41.51
42.94
43.61
43.56
42.83
41.42
39.36
36.75
33.81
30.86
28.11
25.58
23.00
19.90
15.84
10.61
4.39
-2.37
-9.08
-15.30
-20.88
-25.97
-30.93
-36.11
-41.67
-47.47
-53.04
-57.65
-60.47
-60.77
-58.13
-52.56
-44.55
-34.88
-24.38
-13.74
-3.38
6.58
16.14
25.32
34.07
42.14
49.20
54.89
58.94
61.26
61.99
61.46
60.04
58.09
55.83
53.42
51.01
48.80
46.93
45.46
44.14
42.49
39.91
35.96
30.55
24.01
16.90
9.84
3.25
-2.68
-8.01
-12.93
-17.76
-22.81
-28.35
-34.33
-40.30
-45.33
-48.31
-48.32
-45.01
-38.78
-30.58
-21.52
-12.45
-3.84
4.25
11.90
19.14
25.92
32.06
37.47
42.04
45.71
48.39
49.95
50.31
49.49
47.71
45.22
42.32
39.22
36.09
33.00
30.04
27.20
24.38
21.39
17.99
14.05
9.62
4.95
0.41
-3.70
-7.30
-10.55
-13.83
-17.58
-22.18
-27.82
-34.35
-41.28
-47.74
-52.67
-55.05
-54.20
-49.94
-42.65
-33.11
-22.27
-11.01
-0.02
10.26
19.49
27.47
34.04
39.12
42.75
45.10
46.46
47.11
47.27
46.95
46.10
44.59
42.40
39.69
36.84
34.31
32.46
31.34
30.66
29.84
28.30
25.60
21.58
16.35
10.09
2.97
-4.95
-13.61
-22.80
-32.17
-41.26
-49.60
-56.87
-62.80
-67.15
-69.59
-69.71
-67.20
-61.97
-54.34
-44.95
-34.64
-24.19
-14.29
-5.43
2.11
8.15
12.70
15.98
18.33
20.12
21.67
23.12
24.40
25.33
25.67
25.31
24.25
22.60
20.55
18.30
15.98
13.58
11.00
8.05
4.56
0.54
-3.87
-8.38
-12.81
-17.14
-21.58
-26.46
-32.00
-38.13
-44.53
-50.65
-55.88
-59.70
-61.74
-61.73
-59.56
-55.26
-49.03
-41.02
-31.25
-19.51
-5.57
10.47
27.78
44.72
59.20
69.42
74.58
75.18
72.83
69.50
66.72
65.16
64.62
64.47
64.14
63.45
62.57
61.76
61.12
60.51
59.62
58.20
56.22
53.90
51.61
49.66
48.10
46.70
44.92
42.14
37.89
31.97
24.58
16.20
7.48
-0.91
-8.35
-14.25
-17.89
-18.42
-14.95
-6.94
5.46
21.19
38.43
55.10
69.48
80.65
88.56
93.71
96.68
97.71
96.61
93.08
86.99
78.67
68.82
58.26
47.59
37.04
26.48
15.67
4.47
-6.99
-18.37
-29.17
-39.01
-47.64
-54.97
-60.96
-65.56
-68.71
-70.38
-70.64
-69.71
-67.96
-65.68
-63.06
-59.99
-56.21
-51.42
-45.57
-39.03
-32.58
-27.18
-23.61
-22.17
-22.58
-24.06
-25.67
-26.66
-26.61
-25.55
-23.75
-21.61
-19.58
-18.10
-17.61
-18.44
-20.66
-24.02
-27.90
-31.54
-34.29
-35.99
-36.99
-38.03
-39.95
-43.22
-47.83
-53.26
-58.73
-63.56
-67.32
-69.92
-71.41
-71.93
-71.59
-70.61
-69.27
-67.99
-67.11
-66.74
-66.53
-65.73
-63.34
-58.43
-50.44
-39.41
-26.14
-12.07
0.97
11.37
18.27
22.03
24.10
26.46
30.76
37.53
46.04
54.69
61.80
66.19
67.22
64.55
57.84
46.80
31.71
13.78
-4.87
-21.90
-35.68
-45.95
-53.71
-60.47
-67.25
-74.07
-80.11
-84.49
-87.01
-88.36
-89.74
-92.02
-95.13
-97.98
-98.90
-96.43
-89.95
-79.90
-67.45
-53.95
-40.33
-26.90
-13.53
0.06
13.89
27.68
40.89
53.01
63.60
72.38
79.14
83.69
85.91
85.93
84.09
81.04
77.56
74.35
71.85
70.07
68.62
66.91
64.38
60.74
56.07
50.85
45.72
41.26
37.78
35.31
33.55
32.03
30.27
27.95
24.95
21.36
17.54
13.93
10.99
9.07
8.45
9.31
11.81
16.09
22.16
29.89
38.89
48.57
58.20
66.98
74.17
79.24
81.90
82.19
80.46
77.22
73.12
68.82
64.89
61.58
58.69
55.44
50.73
43.48
33.28
20.72
7.35
-4.84
-14.14
-19.87
-22.68
-24.38
-27.32
-33.61
-44.32
-59.09
-76.10
-92.53
-105.34
-112.21
-112.25
-106.38
-97.24
-88.33
-82.87
-82.36
-85.68
-89.05
-87.36
-76.14
-53.62
-21.78
14.34
48.60
76.32
96.00
109.48
120.60
133.01
148.33
165.52
181.41
192.25
195.07
188.61
173.27
150.41
121.60
88.29
52.09
15.46
-18.07
-44.36
-59.98
-63.77
-57.93
-47.68
-39.78
-40.30
-52.82
-77.94
-114.01
-158.50
-208.80
-262.08
-314.34
-359.92
-391.89
-404.01
-392.84
-358.92
-306.38
-241.09
-168.79
-94.37
-22.37
42.04
92.92
124.88
135.32
126.33
104.60
79.21
58.09
45.24
39.91
38.31
36.30
31.76
25.13
18.29
12.61
7.75
1.85
-7.12
-19.60
-33.52
-44.80
-49.09
-43.73
-28.97
-7.99
14.17
32.16
41.89
41.61
32.19
16.71
-0.61
-15.50
-24.55
-25.75
-18.70
-4.45
14.63
35.44
54.82
70.31
80.61
85.67
86.36
84.01
79.88
74.83
69.16
62.63
54.73
45.07
33.79
21.80
10.74
2.60
-1.11
0.01
4.93
11.67
18.19
23.29
27.01
30.31
34.39
39.95
46.91
54.43
61.31
66.62
70.10
72.24
74.08
76.76
80.97
86.71
93.33
99.67
104.33
105.73
102.03
91.27
71.91
43.69
8.64
-29.03
-64.14
-92.83
-114.55
-132.40
-151.35
-175.23
-204.25
-234.52
-259.81
-274.65
-276.59
-266.75
-248.45
-225.05
-198.49
-169.28
-137.50
-104.05
-70.94
-40.84
-15.84
3.38
17.75
29.19
39.50
49.63
59.27
67.36
72.83
75.42
75.86
75.60
76.14
78.36
82.28
87.21
92.13
96.06
98.38
98.89
97.69
95.22
92.08
89.00
86.68
85.57
85.81
87.13
88.82
90.00
89.84
87.84
84.03
78.78
72.70
66.31
59.97
53.88
48.22
43.26
39.28
36.36
34.24
32.31
29.97
26.98
23.76
21.18
20.02
20.41
21.64
22.52
22.00
19.79
16.41
12.83
9.91
7.99
6.95
6.43
5.86
4.41
0.63
-7.38
-21.13
-40.64
-63.62
-85.77
-102.34
-110.11
-108.73
-100.68
-89.80
-79.51
-71.64
-66.35
-63.04
-61.20
-60.62
-60.90
-60.97
-59.10
-53.69
-44.23
-31.86
-18.89
-7.69
0.32
5.00
6.87
6.28
2.94
-3.82
-14.19
-27.01
-39.69
-49.01
-52.44
-49.26
-40.79
-29.82
-19.12
-10.71
-5.34
-2.91
-3.35
-6.91
-13.88
-23.78
-34.82
-44.28
-49.73
-50.39
-47.75
-44.92
-44.98
-49.29
-56.87
-65.09
-71.18
-73.60
-72.55
-69.36
-65.52
-61.70
-57.76
-53.06
-47.29
-40.98
-35.75
-33.83
-37.30
-47.16
-62.41
-80.09
-96.00
-106.06
-107.70
-100.49
-85.99
-66.80
-45.47
-23.84
-3.09
15.88
31.97
43.93
50.85
52.66
50.42
45.99
41.30
37.64
35.25
33.45
31.28
28.09
23.88
19.27
15.02
11.67
9.21
7.28
5.57
4.04
3.06
3.11
4.54
7.25
10.81
14.70
18.58
22.60
27.22
33.01
40.30
49.13
59.23
70.38
82.56
96.00
110.89
126.98
143.35
158.44
170.48
178.10
180.84
179.25
174.64
168.43
161.62
154.59
147.19
139.15
130.43
121.24
111.94
102.63
92.97
82.18
69.42
54.29
37.11
18.90
0.99
-15.52
-30.04
-42.57
-53.45
-63.01
-71.39
-78.59
-84.60
-89.53
-93.70
-97.45
-100.87
-103.79
-105.94
-107.20
-107.85
-108.42
-109.42
-111.10
-113.37
-115.95
-118.68
-121.44
-124.17
-126.65
-128.52
-129.42
-129.26
-128.28
-126.94
-125.62
-124.33
-122.67
-119.95
-115.15
-106.82
-93.04
-71.54
-40.12
2.60
56.23
117.92
182.20
241.62
288.29
315.96
321.93
308.00
279.81
244.85
209.76
178.26
150.62
124.55
96.67
63.93
24.21
-23.18
-76.84
-132.46
-182.73
-218.59
-231.97
-218.77
-180.81
-125.48
-63.20
-3.77
46.49
85.80
115.86
139.68
159.61
176.48
189.91
199.47
205.38
208.69
210.51
211.07
209.17
202.41
188.42
166.09
136.39
102.24
67.30
34.72
5.98
-19.39
-43.16
-67.35
-93.19
-120.45
-147.61
-172.87
-195.22
-215.18
-234.71
-256.04
-280.26
-306.47
-332.29
-355.39
-375.02
-392.29
-408.87
-424.97
-437.87
-442.35
-432.72
-405.66
-362.05
-306.98
-247.85
-191.69
-143.03
-103.20
-71.06
-44.35
-21.02
0.21
19.91
38.29
55.35
70.98
84.82
96.21
104.29
108.44
108.71
105.93
101.35
95.99
90.05
82.72
72.59
58.29
39.44
17.25
-5.07
-22.61
-29.93
-22.84
-0.19
35.05
76.10
114.10
140.87
151.44
145.67
128.21
106.95
90.59
86.23
97.75
125.37
166.02
214.31
263.72
307.83
341.27
360.69
365.44
357.89
342.78
325.86
311.58
301.12
291.95
279.71
261.50
238.68
217.10
204.44
205.69
219.86
239.79
255.45
258.76
247.26
224.30
196.18
168.06
141.32
113.66
81.80
44.50
4.28
-33.35
-62.29
-78.63
-82.14
-76.22
-66.28
-57.47
-52.95
-53.52
-58.30
-66.11
-76.68
-90.86
-110.01
-134.84
-164.46
-196.27
-226.71
-252.59
-272.30
-286.44
-297.37
-308.06
-320.63
-335.46
-351.39
-366.72
-380.45
-392.86
-404.96
-417.21
-428.43
-435.89
-436.37
-427.92
-410.67
-386.61
-358.21
-326.85
-292.13
-252.65
-207.35
-157.02
-104.69
-54.74
-11.22
23.69
50.13
70.01
85.62
98.45
108.70
115.66
118.65
117.80
114.27
109.75
105.52
101.71
97.25
90.42
79.91
65.60
48.69
31.30
15.60
2.95
-6.36
-12.95
-17.78
-21.54
-24.28
-25.36
-23.76
-18.45
-8.93
4.41
20.09
35.87
49.34
58.84
64.08
66.18
67.08
68.59
71.59
75.80
80.20
83.63
85.50
85.82
85.02
83.56
81.73
79.66
77.21
74.21
70.39
65.56
59.70
53.07
46.31
40.28
35.92
34.01
34.92
38.32
43.16
47.65
49.62
47.43
40.85
31.75
23.70
20.63
24.96
36.42
52.10
67.77
79.76
86.08
86.46
81.53
71.88
57.83
39.97
19.80
-0.27
-17.55
-30.12
-37.29
-39.37
-36.87
-29.96
-18.76
-4.06
12.16
27.02
37.81
43.32
44.31
43.03
41.87
42.21
43.91
45.87
47.03
47.21
47.35
49.07
53.84
62.25
73.72
86.68
99.24
109.89
118.17
124.72
130.97
138.14
146.40
154.33
159.15
157.61
146.98
125.67
93.22
50.18
-1.75
-59.06
-115.80
-163.94
-195.13
-203.61
-188.67
-155.47
-113.27
-72.14
-39.46
-18.18
-7.10
-2.93
-2.40
-3.62
-5.93
-9.14
-12.77
-15.88
-17.49
-17.23
-15.75
-14.81
-16.62
-22.96
-34.19
-48.77
-63.66
-75.39
-81.53
-81.48
-76.57
-69.11
-61.37
-54.76
-49.83
-46.66
-45.15
-45.19
-46.42
-48.11
-49.49
-50.14
-50.48
-51.65
-55.00
-61.32
-70.36
-80.62
-89.88
-95.75
-96.26
-90.37
-78.12
-60.71
-40.21
-19.22
-0.40
13.94
22.09
23.16
17.16
5.27
-10.23
-26.25
-39.62
-48.07
-50.85
-48.92
-44.26
-38.96
-34.31
-30.36
-26.17
-20.41
-12.00
-0.58
13.34
28.64
43.83
57.49
68.70
77.24
83.51
88.24
92.02
95.00
96.91
97.34
96.19
93.93
91.61
90.61
92.26
97.53
106.78
119.74
135.33
151.68
166.19
175.91
178.14
171.20
155.02
131.17
102.49
72.24
43.31
17.71
-3.38
-19.33
-29.87
-35.00
-35.23
-31.64
-25.91
-19.79
-14.64
-11.10
-9.15
-8.41
-8.57
-9.50
-11.08
-12.89
-13.94
-12.77
-7.97
1.18
14.22
29.42
44.30
56.45
64.26
67.35
66.38
62.60
57.29
51.32
45.07
38.40
30.71
20.96
7.82
-10.01
-33.19
-61.12
-91.65
-121.35
-146.45
-164.14
-173.67
-176.66
-176.41
-176.45
-179.16
-184.86
-192.05
-198.41
-202.09
-202.43
-199.80
-194.73
-186.94
-175.16
-157.87
-134.56
-106.44
-76.19
-46.51
-18.64
8.18
35.85
65.61
96.55
125.26
147.24
158.94
159.47
150.79
136.58
120.40
104.38
89.01
73.88
58.79
44.44
32.32
24.10
20.77
22.04
26.35
31.39
34.82
35.03
31.52
24.83
16.19
6.99
-1.52
-8.42
-13.13
-15.26
-14.60
-11.06
-4.80
3.77
13.81
24.08
33.17
39.92
44.14
46.82
49.85
54.88
62.22
70.16
75.38
74.51
65.79
50.00
30.21
10.30
-6.64
-19.19
-27.44
-32.01
-33.05
-30.07
-22.37
-9.92
6.22
23.97
40.84
54.53
63.36
66.40
63.37
54.77
41.96
27.28
13.73
4.43
1.68
6.22
17.15
32.21
48.74
64.34
77.36
86.78
91.99
92.69
88.88
80.95
69.75
56.30
41.39
25.42
8.39
-9.71
-28.64
-47.79
-66.21
-82.75
-96.12
-104.99
-108.23
-105.46
-97.70
-87.58
-78.87
-75.13
-78.34
-87.99
-101.37
-114.85
-125.46
-131.80
-133.87
-132.11
-126.37
-115.63
-98.55
-74.62
-45.02
-12.65
18.90
46.64
69.21
86.89
100.92
112.41
121.72
128.46
132.06
132.40
130.01
125.91
121.16
116.52
112.28
108.47
104.96
101.64
98.25
94.26
88.86
81.31
71.40
59.82
48.20
38.63
32.99
32.23
36.23
44.03
54.32
65.92
77.80
88.91
97.84
102.90
102.62
96.37
84.82
69.75
53.47
37.89
23.99
11.67
0.10
-11.77
-24.79
-39.36
-55.42
-72.39
-89.23
-104.56
-116.93
-125.21
-128.98
-128.76
-125.72
-121.12
-115.72
-109.55
-102.11
-92.95
-82.14
-70.56
-59.67
-51.12
-46.53
-47.31
-54.48
-68.30
-87.72
-109.98
-130.97
-146.35
-152.94
-149.81
-138.58
-122.75
-106.71
-94.69
-89.96
-94.06
-106.17
-122.98
-139.45
-150.51
-152.85
-146.08
-132.25
-114.19
-93.69
-70.74
-44.33
-14.10
18.59
50.79
79.36
102.61
121.02
136.55
151.21
165.82
179.62
191.08
199.05
203.51
205.73
207.73
211.37
217.59
226.12
235.57
243.86
248.78
248.37
241.18
226.53
204.70
177.12
146.19
115.04
86.91
64.35
48.58
38.96
33.02
26.87
16.35
-1.73
-28.27
-61.28
-95.95
-125.82
-144.52
-148.04
-136.47
-114.52
-90.62
-74.14
-71.95
-86.06
-113.14
-146.73
-180.55
-211.09
-237.80
-261.24
-280.74
-293.51
-296.13
-287.11
-268.72
-246.40
-225.78
-209.39
-195.07
-177.49
-151.59
-115.96
-74.20
-33.20
0.08
21.50
31.07
31.94
28.29
23.32
18.21
12.65
5.93
-2.01
-10.10
-16.62
-20.00
-19.45
-15.24
-8.45
-0.42
7.71
15.30
22.23
28.68
34.85
40.70
45.88
50.06
53.29
56.16
59.65
64.63
71.37
79.33
87.35
94.24
99.23
102.20
103.57
104.01
104.17
104.46
105.15
106.20
107.33
108.02
107.65
105.72
102.11
97.19
91.67
86.41
82.06
78.79
76.25
73.64
69.99
64.55
57.05
47.91
38.20
29.34
22.74
19.39
19.64
23.21
29.35
37.04
45.29
53.19
60.01
65.31
68.92
70.95
71.79
72.00
72.12
72.51
73.06
73.17
71.89
68.21
61.44
51.47
38.80
24.42
9.56
-4.60
-17.11
-27.39
-35.41
-41.65
-47.04
-52.47
-58.36
-64.34
-69.32
-72.18
-72.46
-70.77
-68.51
-67.04
-66.86
-67.30
-66.99
-64.57
-59.10
-49.60
-34.37
-10.80
23.53
68.87
121.54
173.75
215.72
239.13
240.33
221.56
189.64
152.78
117.57
87.18
61.43
38.24
15.09
-10.43
-40.59
-77.60
-122.74
-174.73
-228.23
-274.04
-301.50
-302.39
-274.82
-224.71
-164.10
-106.83
-63.46
-37.98
-27.60
-25.20
-23.18
-16.41
-3.34
14.78
35.52
56.46
75.75
91.85
103.25
108.46
106.40
97.16
82.26
64.46
47.05
32.55
22.00
14.64
8.30
0.36
-11.30
-27.48
-47.34
-68.66
-88.63
-104.95
-116.75
-124.76
-130.66
-135.89
-140.72
-143.83
-142.98
-136.26
-123.20
-105.22
-85.06
-65.84
-50.06
-39.56
-35.87
-40.59
-55.10
-79.65
-112.50
-150.02
-187.90
-222.73
-252.90
-278.20
-298.38
-311.76
-315.06
-304.65
-278.50
-237.52
-185.51
-127.69
-69.00
-12.77
39.43
87.20
130.48
169.05
202.47
230.33
252.68
270.13
283.90
295.70
307.36
320.27
335.02
351.24
367.91
383.63
396.86
406.07
409.78
406.73
396.22
378.42
354.39
325.89
295.10
264.17
235.01
208.94
186.29
166.13
146.58
125.58
102.10
76.91
52.57
32.53
19.58
14.58
16.19
21.46
26.84
29.36
27.21
19.82
7.59
-8.38
-26.72
-46.10
-65.59
-85.08
-105.35
-127.92
-154.28
-184.91
-218.51
-251.95
-280.98
-301.78
-312.44
-313.54
-307.72
-298.30
-287.81
-277.28
-266.55
-255.22
-243.53
-232.40
-222.84
-215.16
-208.83
-203.08
-197.68
-193.43
-191.56
-192.76
-196.25
-199.61
-199.54
-193.13
-179.08
-158.01
-132.15
-104.44
-77.66
-53.85
-34.20
-19.04
-8.04
-0.45
4.68
8.20
10.80
12.92
14.92
17.06
19.30
21.18
21.70
19.66
14.12
4.86
-7.23
-20.34
-32.15
-40.54
-44.24
-43.19
-38.45
-31.90
-25.46
-20.61
-18.08
-17.93
-19.93
-23.83
-29.31
-35.56
-40.98
-43.35
-40.64
-32.06
-18.67
-3.01
12.18
25.28
36.49
47.30
59.34
73.41
89.31
106.52
125.03
145.62
169.29
196.27
225.44
254.66
281.42
303.69
320.09
329.44
330.31
321.03
300.09
266.86
222.09
167.98
107.84
45.63
-14.49
-68.60
-113.53
-147.49
-170.56
-184.62
-192.93
-199.04
-205.60
-213.55
-221.94
-228.50
-230.77
-227.24
-218.18
-205.79
-193.69
-185.76
-184.90
-191.93
-205.36
-221.66
-236.07
-243.81
-241.24
-226.57
-200.14
-164.15
-122.05
-77.60
-34.33
4.90
38.12
64.16
82.70
94.22
100.05
102.23
103.28
105.56
110.58
118.32
127.18
134.44
137.28
133.82
123.80
108.69
90.92
72.95
56.47
42.26
30.39
20.73
13.23
7.93
4.71
3.09
2.33
1.61
0.35
-1.58
-4.01
-6.79
-10.04
-14.20
-19.80
-27.16
-36.17
-46.28
-56.68
-66.55
-75.19
-82.10
-86.99
-89.70
-90.25
-88.67
-84.90
-78.74
-70.00
-58.71
-45.38
-31.05
-16.95
-4.02
7.44
17.78
27.66
37.48
47.07
55.82
63.01
68.24
71.47
72.83
72.36
69.76
64.70
57.18
47.77
37.57
27.73
18.96
11.23
3.88
-3.87
-12.38
-21.22
-29.37
-35.57
-38.82
-38.72
-35.46
-29.58
-21.73
-12.54
-2.54
7.60
17.15
25.35
31.52
35.27
36.61
36.02
34.37
32.71
31.98
32.71
34.81
37.67
40.41
42.28
42.99
42.64
41.64
40.31
38.72
36.64
33.73
29.81
24.94
19.41
13.53
7.51
1.33
-5.07
-11.79
-18.74
-25.57
-31.66
-36.18
-38.29
-37.25
-32.66
-24.59
-13.54
-0.42
13.73
27.86
41.18
53.17
63.55
72.24
79.32
84.94
89.38
92.96
96.02
98.81
101.44
103.91
106.14
108.08
109.65
110.67
110.93
110.06
107.80
104.02
98.91
92.87
86.34
79.61
72.75
65.61
57.95
49.54
40.34
30.44
20.12
9.79
0.02
-8.53
-15.15
-19.23
-20.36
-18.47
-13.84
-7.07
1.21
10.49
20.62
31.68
43.82
56.95
70.51
83.62
95.37
105.21
113.23
120.06
126.48
133.09
140.01
146.95
153.39
158.84
162.90
165.26
165.62
163.66
159.20
152.29
143.25
132.56
120.68
107.92
94.34
79.83
64.16
47.16
28.78
9.28
-10.64
-29.85
-46.98
-60.75
-70.33
-75.52
-76.72
-74.68
-70.29
-64.39
-57.88
-51.74
-46.86
-43.89
-42.93
-43.42
-44.34
-44.60
-43.48
-40.82
-36.92
-32.30
-27.42
-22.46
-17.38
-12.01
-6.20
-0.04
6.12
11.69
16.05
18.67
19.36
18.26
15.83
12.70
9.43
6.43
3.80
1.41
-1.02
-3.67
-6.52
-9.25
-11.31
-12.15
-11.47
-9.41
-6.45
-3.23
-0.26
2.25
4.34
6.22
7.99
9.68
11.19
12.46
13.54
14.52
15.44
16.17
16.34
15.40
12.87
8.50
2.43
-4.80
-12.41
-19.57
-25.57
-29.99
-32.71
-33.93
-34.14
-33.95
-34.00
-34.66
-35.94
-37.41
-38.44
-38.43
-37.05
-34.33
-30.53
-26.01
-21.02
-15.75
-10.32
-4.97
0.03
4.39
7.95
10.75
12.95
14.73
16.13
17.06
17.34
16.82
15.51
13.61
11.33
8.82
6.07
2.89
-0.89
-5.35
-10.33
-15.54
-20.69
-25.65
-30.56
-35.63
-40.98
-46.51
-51.87
-56.62
-60.41
-63.07
-64.59
-65.00
-64.21
-62.03
-58.21
-52.66
-45.53
-37.21
-28.27
-19.26
-10.69
-2.97
3.51
8.48
11.78
13.41
13.59
12.71
11.24
9.56
7.95
6.48
5.22
4.11
3.15
2.24
1.18
-0.22
-2.18
-4.78
-7.89
-11.23
-14.46
-17.32
-19.71
-21.78
-23.86
-26.28
-29.17
-32.29
-35.03
-36.53
-35.97
-32.94
-27.62
-20.73
-13.28
-6.19
-0.04
4.99
8.98
12.11
14.51
16.34
17.77
18.91
19.75
20.04
19.35
17.28
13.69
8.80
3.11
-2.84
-8.58
-13.84
-18.39
-21.98
-24.35
-25.30
-24.89
-23.46
-21.61
-20.05
-19.38
-19.94
-21.75
-24.46
-27.38
-29.64
-30.37
-28.95
-25.14
-19.13
-11.51
-3.08
5.31
12.96
19.45
24.68
28.85
32.29
35.30
38.02
40.43
42.37
43.65
44.16
43.76
42.39
39.96
36.47
32.11
27.27
22.50
18.25
14.69
11.60
8.46
4.67
-0.11
-5.91
-12.46
-19.40
-26.50
-33.75
-41.31
-49.39
-58.21
-67.86
-78.23
-88.88
-98.83
-106.55
-110.30
-108.61
-100.81
-87.35
-69.67
-49.77
-29.63
-10.94
5.04
17.36
25.42
29.08
28.84
25.90
21.84
18.06
15.21
13.01
10.60
7.14
2.36
-3.14
-8.27
-11.95
-13.65
-13.63
-12.78
-12.19
-12.81
-15.13
-19.19
-24.53
-30.29
-35.32
-38.26
-37.89
-33.55
-25.43
-14.62
-2.91
7.80
16.00
21.02
23.15
23.53
23.71
25.14
28.66
34.17
40.71
46.79
50.96
52.36
50.98
47.50
42.95
38.18
33.73
29.73
26.19
23.16
20.74
18.89
17.39
15.79
13.54
10.34
6.24
1.70
-2.65
-6.22
-8.72
-10.27
-11.38
-12.82
-15.38
-19.54
-25.25
-31.82
-38.03
-42.48
-44.02
-42.06
-36.80
-29.05
-19.97
-10.78
-2.52
4.17
8.99
11.99
13.39
13.53
12.78
11.51
10.11
8.94
8.26
8.11
8.31
8.55
8.56
8.22
7.66
7.13
6.75
6.47
5.98
4.93
3.15
0.73
-1.94
-4.40
-6.34
-7.74
-8.91
-10.33
-12.47
-15.61
-19.77
-24.76
-30.22
-35.69
-40.64
-44.52
-46.81
-47.12
-45.33
-41.53
-36.04
-29.17
-21.20
-12.25
-2.39
8.22
19.19
29.89
39.48
47.15
52.29
54.68
54.54
52.46
49.23
45.67
42.40
39.75
37.77
36.25
34.85
33.18
30.87
27.62
23.20
17.46
10.35
2.01
-7.16
-16.55
-25.47
-33.41
-40.19
-46.05
-51.48
-56.97
-62.69
-68.34
-73.18
-76.25
-76.64
-73.82
-67.77
-58.98
-48.35
-36.91
-25.56
-14.92
-5.23
3.52
11.43
18.59
24.94
30.40
34.92
38.50
41.17
42.93
43.71
43.47
42.20
40.02
37.15
33.81
30.27
26.71
23.25
19.91
16.51
12.79
8.42
3.24
-2.65
-8.79
-14.56
-19.40
-23.06
-25.74
-27.96
-30.37
-33.55
-37.86
-43.32
-49.70
-56.43
-62.62
-67.20
-69.11
-67.64
-62.65
-54.63
-44.54
-33.45
-22.24
-11.48
-1.47
7.61
15.58
22.24
27.46
31.24
33.75
35.25
36.08
36.53
36.86
37.16
37.41
37.40
36.79
35.25
32.64
29.13
25.12
21.13
17.49
14.23
11.09
7.68
3.69
-0.94
-6.00
-11.17
-16.09
-20.54
-24.39
-27.64
-30.26
-32.23
-33.56
-34.34
-34.69
-34.75
-34.53
-33.85
-32.31
-29.47
-24.96
-18.74
-11.12
-2.69
5.86
13.97
21.39
28.17
34.49
40.46
46.00
50.86
54.70
57.32
58.65
58.85
58.10
56.57
54.34
51.48
48.09
44.38
40.68
37.22
34.17
31.51
29.08
26.74
24.40
22.07
19.77
17.55
15.40
13.26
11.08
8.81
6.41
3.82
0.95
-2.31
-6.05
-10.29
-14.85
-19.41
-23.39
-26.15
-27.08
-25.80
-22.30
-16.95
-10.39
-3.32
3.72
10.42
16.71
22.62
28.13
33.05
37.06
39.76
40.92
40.51
38.76
36.08
32.87
29.37
25.73
22.02
18.33
14.83
11.71
9.05
6.84
4.90
3.06
1.19
-0.76
-2.81
-5.05
-7.58
-10.52
-14.02
-18.17
-23.10
-28.91
-35.67
-43.27
-51.37
-59.44
-66.84
-73.02
-77.53
-80.12
-80.60
-78.88
-74.90
-68.74
-60.71
-51.30
-40.98
-30.03
-18.54
-6.49
5.86
17.87
28.64
37.34
43.67
47.89
50.52
51.74
51.10
47.69
40.73
30.40
17.96
5.44
-5.23
-12.96
-17.81
-20.59
-22.21
-23.24
-23.81
-23.93
-23.75
-23.61
-23.81
-24.33
-24.81
-24.77
-24.02
-22.95
-22.33
-22.96
-25.11
-28.28
-31.31
-32.73
-31.24
-26.12
-17.31
-5.50
8.05
21.73
33.94
43.44
49.66
52.86
53.90
53.93
53.95
54.53
55.75
57.26
58.51
58.89
57.91
55.30
50.99
45.26
38.53
31.38
24.49
18.49
13.82
10.60
8.56
7.02
5.20
2.46
-1.42
-6.09
-10.90
-15.14
-18.37
-20.64
-22.37
-24.16
-26.54
-29.61
-32.96
-35.73
-36.91
-35.71
-31.88
-25.79
-18.29
-10.37
-2.87
3.70
9.14
13.47
16.82
19.30
21.06
22.17
22.59
22.16
20.73
18.25
14.89
11.10
7.39
4.23
1.78
0.02
-1.22
-2.12
-2.79
-3.38
-4.06
-5.09
-6.66
-8.81
-11.35
-13.97
-16.36
-18.41
-20.25
-22.12
-24.32
-26.99
-30.18
-33.80
-37.72
-41.84
-46.04
-50.19
-54.12
-57.65
-60.55
-62.55
-63.33
-62.49
-59.70
-54.89
-48.32
-40.57
-32.38
-24.41
-17.13
-10.80
-5.60
-1.80
0.22
0.17
-1.99
-5.87
-10.62
-15.21
-18.66
-20.39
-20.43
-19.39
-18.40
-18.76
-21.62
-27.55
-36.42
-47.39
-59.12
-70.16
-79.30
-85.68
-88.84
-88.53
-84.68
-77.47
-67.47
-55.69
-43.52
-32.28
-22.85
-15.48
-9.73
-4.80
0.10
5.54
11.80
18.90
26.84
35.49
44.66
53.94
62.93
71.30
79.03
86.47
93.99
101.87
110.00
117.92
125.01
130.74
134.87
137.55
139.26
140.55
141.85
143.14
143.84
142.87
139.01
131.41
119.90
105.20
88.65
71.74
55.64
40.95
27.84
16.33
6.46
-1.63
-7.89
-12.56
-16.20
-19.53
-23.18
-27.42
-32.17
-37.13
-41.94
-46.48
-50.81
-55.11
-59.48
-63.74
-67.40
-69.74
-70.09
-67.95
-63.16
-55.92
-46.66
-36.02
-24.73
-13.58
-3.36
5.24
11.82
16.25
18.71
19.58
19.28
18.23
16.79
15.20
13.64
12.14
10.55
8.56
5.81
2.03
-2.77
-8.33
-14.16
-19.73
-24.69
-28.96
-32.73
-36.33
-40.16
-44.45
-49.26
-54.39
-59.48
-64.22
-68.46
-72.35
-76.18
-80.23
-84.38
-88.07
-90.25
-89.71
-85.42
-76.90
-64.45
-49.04
-32.11
-15.21
0.38
13.88
24.97
33.78
40.63
45.79
49.41
51.48
51.94
50.79
48.15
44.34
39.76
34.91
30.24
26.12
22.68
19.84
17.40
15.10
12.77
10.32
7.75
4.99
1.98
-1.42
-5.23
-9.31
-13.36
-17.07
-20.30
-23.13
-25.89
-28.86
-32.20
-35.66
-38.61
-40.22
-39.72
-36.65
-30.94
-22.95
-13.30
-2.76
7.94
18.04
26.86
33.85
38.61
41.11
41.60
40.58
38.61
36.13
33.36
30.40
27.31
24.23
21.36
18.81
16.55
14.33
11.83
8.81
5.30
1.56
-2.11
-5.50
-8.66
-11.81
-15.19
-18.91
-22.86
-26.84
-30.61
-34.09
-37.27
-40.25
-43.13
-45.97
-48.75
-51.30
-53.24
-53.95
-52.68
-48.85
-42.25
-33.21
-22.55
-11.26
-0.20
10.08
19.35
27.50
34.39
39.81
43.53
45.50
45.90
45.13
43.65
41.84
39.90
37.85
35.61
33.10
30.30
27.25
24.03
20.70
17.36
14.08
10.94
7.98
5.17
2.35
-0.66
-4.00
-7.62
-11.33
-14.80
-17.77
-20.14
-22.04
-23.75
-25.53
-27.59
-29.97
-32.53
-35.01
-36.95
-37.83
-37.14
-34.54
-29.95
-23.56
-15.71
-6.79
2.80
12.64
22.18
30.70
37.48
42.01
44.19
44.40
43.28
41.55
39.66
37.71
35.57
33.04
30.10
26.90
23.80
21.16
19.25
18.14
17.65
17.48
17.18
16.36
14.66
11.96
8.40
4.34
0.37
-2.94
-5.21
-6.40
-6.83
-7.00
-7.49
-8.70
-10.80
-13.73
-17.21
-20.99
-24.88
-28.85
-32.97
-37.24
-41.52
-45.40
-48.37
-50.03
-50.24
-49.16
-47.05
-43.98
-39.76
-34.05
-26.65
-17.82
-8.30
0.98
9.25
16.29
22.40
28.07
33.52
38.43
41.94
43.10
41.36
36.89
30.62
23.89
17.97
13.59
10.76
8.85
6.95
4.28
0.42
-4.53
-10.12
-15.70
-20.66
-24.64
-27.59
-29.74
-31.58
-33.67
-36.43
-39.94
-43.89
-47.59
-50.19
-50.88
-49.18
-44.97
-38.46
-30.10
-20.41
-9.97
0.68
10.89
20.02
27.50
32.96
36.34
37.86
37.88
36.71
34.56
31.43
27.39
22.61
17.54
12.81
9.10
6.96
6.63
8.10
11.08
15.11
19.62
23.98
27.52
29.64
29.95
28.36
25.15
20.85
16.14
11.55
7.36
3.54
-0.17
-4.16
-8.78
-14.28
-20.76
-28.01
-35.41
-41.88
-45.96
-46.25
-41.83
-32.71
-19.93
-5.23
9.57
22.98
34.19
43.00
49.51
53.89
56.26
56.74
55.53
52.94
49.21
44.59
39.19
33.14
26.68
20.18
14.15
9.17
5.77
4.19
4.36
5.76
7.46
8.42
7.75
5.05
0.53
-5.05
-10.73
-15.60
-19.23
-21.75
-23.78
-26.21
-29.89
-35.35
-42.59
-51.02
-59.61
-67.13
-72.40
-74.55
-73.18
-68.39
-60.66
-50.77
-39.58
-27.85
-16.14
-4.80
5.99
16.12
25.46
33.89
41.26
47.47
52.53
56.47
59.32
61.07
61.67
61.06
59.25
56.31
52.41
47.74
42.51
36.94
31.23
25.57
20.06
14.61
8.93
2.62
-4.65
-12.94
-21.92
-31.05
-39.78
-47.83
-55.21
-62.16
-69.00
-75.94
-83.01
-90.03
-96.61
-102.11
-105.71
-106.55
-103.90
-97.44
-87.35
-74.30
-59.26
-43.33
-27.46
-12.36
1.53
14.06
25.26
35.25
44.08
51.64
57.72
62.07
64.60
65.43
64.89
63.38
61.24
58.67
55.72
52.40
48.77
45.05
41.50
38.34
35.55
32.85
29.71
25.64
20.39
14.10
7.38
0.97
-4.48
-8.83
-12.48
-16.28
-21.13
-27.68
-36.12
-46.02
-56.61
-66.81
-75.61
-82.14
-86.02
-87.28
-86.41
-84.06
-80.72
-76.41
-70.66
-62.67
-51.77
-37.87
-21.73
-4.82
11.02
24.21
33.78
39.82
43.39
46.36
50.90
58.75
70.62
85.69
101.83
116.22
126.47
131.38
131.25
127.39
121.15
113.10
102.88
89.76
73.51
55.08
36.53
20.22
7.84
-0.37
-5.59
-9.77
-14.79
-21.67
-30.39
-40.17
-50.06
-59.36
-67.77
-75.13
-81.15
-85.22
-86.49
-84.12
-77.66
-67.19
-53.35
-37.19
-19.91
-2.66
13.61
28.29
41.05
51.75
60.38
66.96
71.48
74.02
74.81
74.28
73.00
71.50
70.16
69.06
68.04
66.79
65.01
62.53
59.38
55.79
52.12
48.67
45.52
42.46
39.07
34.96
29.93
24.09
17.87
11.75
6.14
1.13
-3.46
-8.01
-12.89
-18.35
-24.41
-30.87
-37.32
-43.27
-48.08
-51.13
-51.81
-49.79
-45.06
-38.05
-29.52
-20.35
-11.33
-2.92
4.72
11.56
17.57
22.60
26.36
28.59
29.21
28.43
26.68
24.51
22.33
20.42
18.78
17.35
16.02
14.84
13.86
13.17
12.68
12.11
11.03
8.98
5.64
0.97
-4.78
-11.15
-17.64
-23.90
-29.87
-35.79
-42.00
-48.85
-56.45
-64.64
-72.94
-80.69
-87.09
-91.32
-92.67
-90.63
-85.11
-76.48
-65.45
-52.93
-39.66
-26.12
-12.54
0.87
13.70
25.21
34.59
41.22
44.93
46.14
45.60
44.14
42.34
40.37
38.16
35.50
32.30
28.61
24.60
20.41
16.15
11.77
7.26
2.59
-2.19
-6.96
-11.63
-16.16
-20.59
-25.03
-29.61
-34.49
-39.80
-45.61
-51.91
-58.55
-65.26
-71.62
-77.03
-80.72
-81.82
-79.58
-73.62
-64.16
-52.05
-38.52
-24.84
-11.85
0.12
11.23
21.73
31.72
40.92
48.86
55.06
59.31
61.68
62.51
62.28
61.36
60.06
58.52
56.80
54.89
52.77
50.43
47.87
45.16
42.33
39.38
36.21
32.61
28.41
23.50
17.97
11.99
5.85
-0.23
-6.13
-11.87
-17.57
-23.34
-29.26
-35.38
-41.81
-48.59
-55.64
-62.48
-68.14
-71.30
-70.70
-65.65
-56.47
-44.43
-31.27
-18.56
-7.10
3.20
12.95
22.75
32.69
42.33
50.89
57.65
62.25
64.75
65.46
64.82
63.21
61.01
58.54
56.05
53.69
51.37
48.77
45.42
40.85
34.84
27.40
18.87
9.75
0.56
-8.37
-16.81
-24.60
-31.61
-37.69
-42.74
-46.85
-50.45
-54.17
-58.80
-64.91
-72.76
-82.15
-92.43
-102.73
-112.12
-119.79
-125.20
-128.16
-128.77
-127.32
-124.20
-119.80
-114.43
-108.24
-101.17
-92.97
-83.30
-72.02
-59.46
-46.53
-34.43
-24.16
-15.99
-9.28
-2.86
4.25
12.21
20.24
27.03
31.57
33.63
33.78
32.86
31.40
29.32
26.16
21.56
15.63
8.95
2.25
-4.00
-9.82
-15.61
-21.94
-29.26
-37.77
-47.35
-57.45
-67.19
-75.29
-80.45
-81.69
-78.69
-71.90
-62.29
-50.98
-38.73
-25.98
-12.89
0.29
13.05
24.64
34.31
41.69
46.84
50.26
52.56
54.17
55.23
55.67
55.32
54.19
52.43
50.28
47.95
45.51
42.95
40.15
37.07
33.65
29.81
25.46
20.53
15.06
9.27
3.45
-2.18
-7.63
-13.15
-19.17
-26.06
-34.00
-42.90
-52.23
-61.15
-68.62
-73.54
-75.05
-72.76
-66.71
-57.46
-45.72
-32.30
-17.82
-2.83
12.24
26.95
40.82
53.42
64.38
73.46
80.52
85.56
88.71
90.17
90.22
89.15
87.23
84.71
81.82
78.72
75.47
72.07
68.45
64.54
60.34
55.93
51.37
46.66
41.71
36.35
30.52
24.24
17.71
11.09
4.44
-2.42
-9.76
-17.89
-26.92
-36.63
-46.40
-55.29
-62.21
-66.17
-66.52
-63.06
-56.08
-46.22
-34.26
-21.05
-7.45
5.69
17.68
28.09
36.92
44.49
51.22
57.35
62.75
67.05
69.85
71.09
71.05
70.24
69.07
67.59
65.56
62.66
58.76
54.14
49.28
44.72
40.71
37.14
33.59
29.56
24.73
19.05
12.74
6.14
-0.50
-7.01
-13.36
-19.58
-25.73
-31.98
-38.57
-45.73
-53.41
-61.06
-67.54
-71.34
-71.17
-66.40
-57.34
-45.15
-31.29
-16.98
-2.88
10.80
24.11
36.99
49.28
60.76
71.35
81.06
89.95
97.81
104.22
108.68
110.96
111.29
110.45
109.42
108.95
109.17
109.58
109.29
107.48
103.83
98.62
92.62
86.73
81.70
77.89
75.36
73.98
73.61
74.15
75.50
77.45
79.63
81.66
83.37
85.09
87.74
92.56
100.67
112.51
127.59
144.52
161.46
176.50
187.92
194.28
194.37
187.46
173.56
153.79
130.42
106.40
84.58
66.91
53.88
44.61
37.35
30.13
21.45
10.56
-2.43
-16.73
-31.16
-44.48
-55.62
-63.91
-69.10
-71.48
-71.79
-71.24
-71.22
-73.02
-77.24
-83.37
-89.67
-93.65
-92.87
-85.98
-73.39
-57.35
-41.29
-28.66
-21.87
-21.70
-27.26
-36.67
-47.80
-59.05
-69.58
-79.23
-88.08
-96.06
-102.75
-107.44
-109.56
-108.93
-106.00
-101.63
-96.81
-92.17
-87.95
-83.99
-79.99
-75.57
-70.37
-63.87
-55.50
-44.97
-32.75
-20.43
-10.47
-5.44
-6.84
-14.34
-25.76
-37.90
-47.82
-53.93
-56.32
-56.22
-55.16
-54.10
-53.21
-52.21
-50.87
-49.40
-48.41
-48.52
-49.96
-52.41
-55.13
-57.36
-58.56
-58.64
-57.79
-56.25
-54.11
-51.26
-47.50
-42.69
-36.95
-30.61
-24.18
-18.12
-12.68
-7.86
-3.48
0.62
4.53
8.13
11.16
13.38
14.57
14.63
13.53
11.36
8.25
4.41
0.01
-4.88
-10.41
-16.82
-24.35
-32.93
-42.05
-50.82
-58.10
-62.95
-64.91
-64.17
-61.54
-58.17
-55.33
-54.04
-54.96
-58.28
-63.73
-70.66
-78.10
-84.89
-89.92
-92.33
-91.70
-88.16
-82.31
-75.05
-67.31
-59.88
-53.31
-47.85
-43.48
-39.90
-36.57
-32.95
-28.60
-23.44
-17.77
-12.19
-7.34
-3.71
-1.51
-0.75
-1.42
-3.62
-7.56
-13.25
-20.26
-27.62
-33.91
-37.80
-38.49
-36.02
-31.23
-25.45
-20.02
-15.95
-13.64
-12.86
-12.86
-12.62
-11.27
-8.55
-5.11
-2.48
-2.44
-6.24
-13.91
-24.25
-35.48
-45.99
-54.81
-61.58
-65.92
-67.13
-64.30
-56.99
-45.84
-32.69
-19.85
-9.11
-0.90
5.79
12.65
21.14
31.67
43.61
55.73
66.79
75.96
82.84
87.42
89.94
90.75
90.41
89.60
89.00
89.27
90.87
94.12
99.00
105.01
110.99
115.16
115.39
109.87
97.84
80.10
58.90
37.34
18.30
3.62
-6.33
-12.39
-16.08
-19.09
-22.95
-28.84
-37.48
-48.79
-61.69
-74.17
-83.79
-88.43
-87.10
-80.21
-69.29
-56.30
-42.90
-30.07
-18.17
-7.19
2.86
11.86
19.61
25.95
30.91
34.65
37.43
39.53
41.11
42.16
42.67
42.60
42.04
41.28
40.68
40.56
41.04
41.98
43.02
43.72
43.75
42.95
41.43
39.37
36.90
33.93
30.17
25.16
18.58
10.34
0.72
-9.75
-20.48
-31.10
-41.56
-52.03
-62.61
-72.95
-82.13
-88.85
-91.83
-90.45
-85.02
-76.67
-66.94
-57.13
-47.87
-39.08
-30.15
-20.39
-9.43
2.62
15.11
27.13
37.77
46.35
52.54
56.34
57.91
57.49
55.36
51.93
47.84
43.81
40.48
38.06
36.26
34.34
31.53
27.40
22.04
16.03
10.17
5.08
0.95
-2.44
-5.63
-9.20
-13.59
-18.97
-25.30
-32.45
-40.25
-48.38
-56.25
-62.84
-66.86
-67.15
-63.17
-55.31
-44.83
-33.30
-22.05
-11.70
-2.17
6.98
16.02
24.83
32.89
39.58
44.53
47.78
49.70
50.77
51.37
51.67
51.62
51.10
50.05
48.52
46.72
44.88
43.17
41.51
39.61
36.98
33.20
28.07
21.75
14.70
7.45
0.40
-6.33
-12.89
-19.54
-26.52
-33.90
-41.61
-49.37
-56.60
-62.50
-66.16
-66.78
-64.00
-58.08
-49.77
-40.05
-29.75
-19.32
-8.88
1.55
11.87
21.64
30.30
37.31
42.39
45.63
47.36
47.97
47.62
46.18
43.36
38.97
33.23
26.88
21.00
16.56
13.95
12.79
12.08
10.74
8.14
4.36
0.05
-4.00
-7.38
-10.26
-13.31
-17.42
-23.22
-30.89
-40.07
-49.97
-59.54
-67.65
-73.29
-75.70
-74.49
-69.69
-61.66
-50.89
-37.79
-22.61
-5.44
13.56
33.90
54.53
73.82
89.83
100.87
106.06
105.63
100.91
93.77
85.98
78.69
72.31
66.69
61.57
56.77
52.19
47.67
42.81
37.04
29.89
21.22
11.41
1.29
-8.22
-16.48
-23.35
-29.26
-34.89
-40.98
-48.00
-56.09
-65.04
-74.37
-83.43
-91.38
-97.32
-100.44
-100.23
-96.66
-90.16
-81.39
-70.98
-59.32
-46.60
-32.97
-18.78
-4.59
8.95
21.22
31.79
40.39
46.92
51.38
53.88
54.74
54.33
53.06
51.25
49.10
46.77
44.46
42.44
40.95
40.07
39.65
39.29
38.57
37.16
34.96
32.07
28.66
24.74
20.16
14.53
7.50
-1.16
-11.33
-22.68
-34.59
-46.29
-56.81
-64.92
-69.20
-68.40
-61.88
-50.23
-35.36
-20.07
-7.01
2.46
8.84
14.29
21.46
32.18
46.51
62.75
78.20
90.30
97.51
99.51
96.86
90.50
81.49
70.88
60.04
50.62
44.36
42.58
45.59
52.27
60.15
66.10
67.30
62.21
51.18
36.25
20.34
6.10
-5.00
-12.95
-18.88
-24.32
-30.49
-38.09
-47.33
-58.15
-70.41
-83.69
-97.12
-109.34
-118.76
-124.03
-124.52
-120.52
-113.09
-103.58
-93.10
-82.10
-70.23
-56.49
-39.64
-18.86
5.69
32.59
59.38
83.28
102.14
115.20
123.11
127.39
129.38
129.45
126.92
120.64
109.92
95.19
77.85
59.67
41.85
24.65
7.59
-9.75
-27.06
-43.09
-55.99
-64.27
-67.46
-66.47
-63.15
-59.60
-57.37
-57.10
-58.61
-61.22
-64.24
-67.15
-69.60
-71.26
-71.69
-70.30
-66.50
-59.89
-50.41
-38.36
-24.32
-9.05
6.77
22.57
37.98
52.77
66.72
79.45
90.31
98.42
102.98
103.56
100.38
94.37
86.93
79.42
72.71
66.99
61.86
56.70
51.11
45.03
38.72
32.45
26.32
20.14
13.54
6.12
-2.29
-11.61
-21.53
-31.52
-41.08
-49.84
-57.67
-64.76
-71.47
-78.10
-84.64
-90.57
-95.00
-96.93
-95.67
-91.05
-83.47
-73.66
-62.34
-49.97
-36.78
-22.90
-8.61
5.53
18.73
30.21
39.42
46.17
50.60
52.98
53.66
52.90
50.97
48.15
44.71
40.95
37.11
33.34
29.73
26.30
23.00
19.72
16.26
12.38
7.88
2.70
-3.01
-8.95
-14.77
-20.22
-25.26
-30.01
-34.67
-39.47
-44.56
-50.06
-56.06
-62.54
-69.31
-75.89
-81.47
-85.03
-85.68
-82.88
-76.70
-67.74
-56.89
-45.03
-32.76
-20.36
-7.95
4.32
16.13
26.95
36.20
43.39
48.30
51.00
51.86
51.39
50.14
48.53
46.88
45.31
43.84
42.38
40.80
38.88
36.39
33.12
28.96
23.98
18.41
12.56
6.70
1.02
-4.48
-9.84
-15.22
-20.78
-26.76
-33.38
-40.71
-48.53
-56.16
-62.60
-66.65
-67.36
-64.20
-57.25
-47.06
-34.50
-20.56
-6.17
7.85
20.81
32.13
41.39
48.39
53.10
55.80
56.92
56.97
56.43
55.56
54.37
52.72
50.43
47.44
43.80
39.64
35.06
30.04
24.54
18.50
11.99
5.28
-1.22
-7.11
-12.11
-16.26
-19.90
-23.65
-28.20
-34.04
-41.21
-49.16
-56.65
-62.09
-63.84
-60.76
-52.59
-40.23
-25.48
-10.58
2.52
12.79
20.30
26.01
31.15
36.61
42.53
48.32
52.99
55.61
55.71
53.37
49.05
43.34
36.76
29.67
22.35
15.05
8.13
1.91
-3.36
-7.54
-10.54
-12.24
-12.34
-10.50
-6.56
-0.83
5.79
11.98
16.40
18.12
16.79
12.62
6.05
-2.51
-12.72
-24.12
-35.75
-46.21
-53.85
-57.30
-56.03
-50.51
-42.01
-32.00
-21.62
-11.34
-1.15
9.05
19.10
28.47
36.45
42.56
46.85
49.84
52.39
55.26
58.81
62.93
67.10
70.66
72.93
73.39
71.67
67.64
61.45
53.61
44.95
36.34
28.46
21.51
15.21
8.95
2.29
-4.90
-12.34
-19.57
-26.23
-32.29
-38.02
-43.76
-49.76
-56.06
-62.50
-68.74
-74.16
-77.89
-78.78
-75.76
-68.22
-56.33
-41.25
-24.77
-8.82
5.14
16.43
25.08
31.63
36.59
40.18
42.29
42.63
41.05
37.77
33.32
28.36
23.37
18.47
13.47
8.14
2.54
-2.95
-7.72
-11.31
-13.72
-15.43
-17.22
-19.72
-23.15
-27.26
-31.55
-35.56
-39.04
-41.97
-44.46
-46.61
-48.41
-49.93
-51.41
-53.27
-56.09
-60.38
-66.19
-72.98
-79.55
-84.39
-86.09
-83.90
-77.98
-69.29
-59.20
-48.90
-39.04
-29.62
-20.26
-10.51
-0.16
10.63
21.41
31.53
40.30
47.11
51.51
53.47
53.35
51.93
50.16
48.94
48.89
50.19
52.59
55.49
57.99
59.05
57.76
53.51
46.31
36.71
25.74
14.51
3.96
-5.39
-13.36
-20.03
-25.54
-30.01
-33.51
-36.21
-38.41
-40.57
-43.24
-46.88
-51.62
-57.09
-62.35
-66.11
-67.09
-64.50
-58.26
-49.04
-37.87
-25.84
-13.65
-1.57
10.43
22.35
33.95
44.71
53.90
60.95
65.60
68.03
68.73
68.30
67.21
65.65
63.62
61.00
57.79
54.10
50.16
46.18
42.24
38.34
34.44
30.51
26.55
22.57
18.42
13.90
8.78
2.96
-3.43
-10.12
-16.80
-23.28
-29.56
-35.74
-42.00
-48.46
-55.20
-62.24
-69.56
-76.92
-83.89
-89.72
-93.55
-94.60
-92.45
-87.15
-79.17
-69.22
-58.01
-46.09
-33.80
-21.35
-8.91
3.29
14.89
25.42
34.39
41.35
46.11
48.78
49.79
49.81
49.50
49.42
49.97
51.44
53.97
57.52
61.71
65.70
68.30
68.29
64.81
57.68
47.47
35.26
22.28
9.59
-2.17
-12.72
-21.98
-29.95
-36.64
-42.07
-46.43
-50.08
-53.47
-57.12
-61.25
-65.71
-69.79
-72.44
-72.46
-68.93
-61.45
-50.38
-36.70
-21.87
-7.50
5.07
14.99
22.13
26.98
30.34
32.99
35.36
37.52
39.22
40.30
40.71
40.60
40.12
39.24
37.77
35.53
32.55
29.23
26.17
23.94
22.74
22.24
21.73
20.47
17.98
14.28
9.83
5.27
1.13
-2.37
-5.37
-8.28
-11.57
-15.61
-20.56
-26.37
-32.87
-39.69
-46.36
-52.22
-56.43
-58.18
-56.82
-52.11
-44.28
-33.97
-21.98
-9.15
3.84
16.47
28.30
39.01
48.31
55.97
61.81
65.70
67.58
67.60
66.15
63.81
61.21
58.75
56.48
54.14
51.39
48.05
44.26
40.39
36.77
33.49
30.31
26.82
22.72
17.94
12.69
7.30
2.01
-3.08
-8.06
-13.14
-18.56
-24.54
-31.27
-38.90
-47.39
-56.40
-65.16
-72.51
-77.05
-77.59
-73.48
-64.88
-52.78
-38.64
-23.97
-9.92
2.88
14.23
24.19
32.75
39.85
45.28
48.89
50.63
50.68
49.38
47.20
44.59
41.92
39.35
36.86
34.26
31.37
28.11
24.54
20.83
17.17
13.59
9.97
6.02
1.44
-3.93
-10.00
-16.42
-22.76
-28.67
-34.07
-39.14
-44.28
-49.92
-56.33
-63.53
-71.22
-78.93
-85.91
-91.29
-94.15
-93.70
-89.49
-81.58
-70.54
-57.32
-43.00
-28.50
-14.47
-1.26
10.91
21.86
31.35
39.10
44.89
48.61
50.41
50.65
49.85
48.49
46.98
45.44
43.82
41.97
39.77
37.23
34.40
31.36
28.07
24.48
20.46
16.02
11.24
6.28
1.27
-3.77
-8.87
-14.08
-19.34
-24.47
-29.30
-33.77
-38.03
-42.42
-47.39
-53.26
-60.12
-67.64
-75.06
-81.23
-84.93
-85.08
-81.08
-73.05
-61.69
-48.15
-33.66
-19.22
-5.45
7.38
19.22
30.03
39.61
47.65
53.83
57.94
60.03
60.43
59.66
58.24
56.53
54.67
52.63
50.29
47.68
44.88
42.05
39.27
36.51
33.62
30.41
26.75
22.55
17.78
12.45
6.65
0.54
-5.68
-11.77
-17.55
-22.96
-28.10
-33.18
-38.51
-44.44
-51.23
-58.96
-67.34
-75.62
-82.58
-86.81
-87.10
-82.83
-74.16
-61.99
-47.63
-32.37
-17.21
-2.70
10.93
23.63
35.25
45.53
54.15
60.87
65.62
68.47
69.63
69.27
67.58
64.78
61.21
57.33
53.59
50.32
47.50
44.84
41.84
38.08
33.35
27.78
21.71
15.53
9.48
3.62
-2.15
-7.96
-13.85
-19.70
-25.28
-30.37
-34.90
-39.08
-43.33
-48.15
-54.00
-61.03
-68.87
-76.65
-83.07
-86.69
-86.34
-81.51
-72.49
-60.30
-46.32
-31.93
-18.07
-5.18
6.69
17.62
27.53
36.12
42.96
47.72
50.36
51.19
50.70
49.40
47.60
45.32
42.48
39.04
35.17
31.24
27.72
24.91
22.76
20.88
18.72
15.79
11.82
6.97
1.61
-3.79
-8.90
-13.66
-18.27
-23.04
-28.26
-34.09
-40.62
-47.77
-55.32
-62.83
-69.54
-74.36
-76.19
-74.22
-68.25
-58.81
-46.97
-33.93
-20.70
-7.83
4.47
16.09
26.83
36.28
43.94
49.39
52.51
53.51
52.87
51.18
48.95
46.57
44.22
41.85
39.40
36.74
33.82
30.66
27.30
23.72
19.89
15.70
11.02
5.80
0.13
-5.82
-11.78
-17.53
-23.01
-28.28
-33.62
-39.40
-46.00
-53.62
-62.11
-70.88
-78.85
-84.68
-87.09
-85.21
-78.86
-68.59
-55.54
-41.07
-26.35
-12.20
1.07
13.48
25.12
35.96
45.75
54.06
60.45
64.69
66.86
67.30
66.47
64.81
62.60
59.98
56.97
53.57
49.87
46.00
42.13
38.41
34.84
31.27
27.39
22.86
17.45
11.23
4.51
-2.23
-8.54
-14.25
-19.49
-24.62
-30.08
-36.20
-43.15
-51.01
-59.74
-69.10
-78.56
-87.14
-93.51
-96.33
-94.67
-88.37
-78.15
-65.27
-51.08
-36.64
-22.49
-8.78
4.42
16.96
28.55
38.86
47.64
54.72
60.06
63.62
65.39
65.45
64.03
61.48
58.28
54.81
51.36
48.00
44.63
41.12
37.29
33.05
28.38
23.33
17.96
12.32
6.38
0.10
-6.57
-13.59
-20.88
-28.27
-35.63
-42.86
-50.01
-57.28
-64.95
-73.31
-82.54
-92.47
-102.49
-111.56
-118.47
-122.13
-121.97
-118.10
-111.22
-102.21
-91.77
-80.19
-67.49
-53.74
-39.36
-25.26
-12.64
-2.54
4.42
8.24
9.45
8.84
7.15
4.91
2.20
-1.55
-7.62
-17.56
-32.35
-51.27
-71.32
-87.59
-94.89
-89.83
-72.28
-45.57
-15.02
14.05
38.09
55.76
67.27
73.36
74.40
70.54
62.18
50.41
36.96
23.58
11.31
0.18
-10.49
-21.49
-33.13
-44.93
-55.80
-64.38
-69.37
-69.87
-65.52
-56.51
-43.47
-27.22
-8.57
11.94
34.03
57.45
81.56
105.09
126.21
142.89
153.67
158.13
156.85
151.03
141.88
130.28
116.80
101.94
86.32
70.70
55.76
41.99
29.72
19.31
11.31
6.45
5.39
8.24
14.49
23.13
33.02
43.14
52.72
61.09
67.53
71.23
71.55
68.27
61.68
52.61
42.17
31.48
21.45
12.75
5.85
1.09
-1.31
-1.39
0.53
3.78
7.55
11.20
14.44
17.48
20.81
24.94
29.96
35.52
40.92
45.47
48.78
50.87
52.08
52.86
53.50
54.09
54.48
54.44
53.78
52.42
50.40
47.96
45.46
43.28
41.65
40.52
39.40
37.53
34.11
28.68
21.37
12.91
4.36
-3.17
-8.96
-12.78
-14.87
-15.82
-16.45
-17.65
-20.24
-24.77
-31.33
-39.48
-48.41
-57.08
-64.39
-69.36
-71.17
-69.26
-63.52
-54.47
-43.23
-31.30
-20.05
-10.32
-2.25
4.63
10.90
16.96
22.88
28.54
33.93
39.17
44.49
49.97
55.32
59.90
62.88
63.67
62.15
58.90
54.99
51.60
49.56
49.01
49.46
50.08
50.16
49.47
48.31
47.38
47.47
49.18
52.77
58.02
64.23
70.12
74.00
74.11
69.23
59.00
43.96
25.14
3.44
-20.86
-47.88
-77.53
-108.64
-138.52
-163.38
-179.38
-184.17
-177.68
-162.14
-141.03
-117.59
-93.75
-69.94
-45.92
-21.98
0.39
18.84
31.28
37.13
37.68
35.36
32.41
29.64
26.32
20.89
12.07
-0.28
-15.28
-31.62
-48.32
-64.76
-80.13
-92.95
-101.12
-102.78
-97.66
-87.79
-77.08
-70.05
-69.90
-77.23
-89.82
-103.61
-114.49
-119.90
-119.78
-116.22
-112.25
-110.20
-110.52
-111.58
-110.57
-105.13
-94.66
-80.89
-66.99
-55.89
-48.82
-44.89
-41.84
-37.56
-31.30
-23.84
-16.75
-11.29
-7.70
-5.18
-2.50
1.23
6.17
11.83
17.56
22.91
28.01
33.45
40.11
48.75
59.77
72.93
87.42
101.97
115.29
126.37
134.71
140.27
143.26
143.96
142.45
138.79
133.07
125.50
116.44
106.20
95.00
82.94
70.15
56.86
43.43
30.17
17.18
4.34
-8.47
-21.02
-32.49
-41.67
-47.43
-49.39
-48.24
-45.53
-42.90
-41.29
-40.46
-39.21
-36.09
-30.17
-21.51
-11.06
-0.09
10.33
19.61
27.54
33.89
38.10
39.26
36.52
29.68
19.50
7.52
-4.55
-15.59
-25.50
-35.11
-45.56
-57.65
-71.34
-85.84
-99.96
-112.53
-122.60
-129.48
-132.56
-131.34
-125.73
-116.46
-105.19
-94.30
-86.29
-82.83
-84.13
-88.71
-93.76
-96.04
-92.94
-83.34
-67.81
-48.28
-27.19
-6.65
12.11
28.85
43.94
57.87
70.81
82.39
91.80
98.07
100.46
98.80
93.62
86.13
77.89
70.33
64.26
59.69
56.05
52.73
49.53
46.92
45.57
45.77
46.90
47.42
45.50
39.84
30.27
17.78
4.06
-9.21
-20.84
-30.18
-36.99
-41.12
-42.53
-41.24
-37.40
-31.36
-23.52
-14.27
-3.89
7.42
19.43
31.67
43.13
52.25
57.05
55.76
47.59
33.23
14.89
-4.44
-21.93
-35.81
-45.54
-51.42
-53.83
-52.85
-48.36
-40.67
-31.04
-21.59
-14.66
-11.70
-12.57
-15.59
-18.52
-19.59
-18.39
-15.81
-13.28
-11.73
-11.00
-9.94
-7.07
-1.42
7.05
17.54
28.93
40.34
51.41
62.26
73.13
84.10
94.83
104.60
112.48
117.60
119.42
117.93
113.66
107.50
100.48
93.47
87.03
81.41
76.61
72.48
68.74
65.08
61.16
56.71
51.57
45.76
39.43
32.80
26.10
19.46
12.98
6.74
0.84
-4.60
-9.44
-13.52
-16.73
-19.01
-20.33
-20.75
-20.35
-19.23
-17.50
-15.25
-12.55
-9.46
-6.05
-2.41
1.36
5.12
8.74
12.15
15.31
18.22
20.81
22.89
24.20
24.53
23.79
22.15
19.93
17.48
15.04
12.59
10.00
7.09
3.81
0.23
-3.55
-7.48
-11.68
-16.34
-21.64
-27.58
-34.00
-40.52
-46.75
-52.37
-57.16
-61.02
-63.89
-65.71
-66.45
-66.12
-64.87
-62.86
-60.26
-57.17
-53.61
-49.56
-45.12
-40.45
-35.85
-31.65
-28.10
-25.36
-23.49
-22.45
-22.12
-22.24
-22.44
-22.20
-21.03
-18.58
-14.78
-9.82
-4.10
1.96
8.06
14.05
19.92
25.59
30.87
35.35
38.56
40.01
39.42
36.76
32.23
26.22
19.26
11.97
5.09
-0.52
-4.06
-4.98
-3.16
0.96
6.58
12.85
19.18
25.38
31.57
37.92
44.46
50.98
57.30
63.33
69.14
74.70
79.49
82.33
81.42
75.07
62.55
44.89
25.18
7.97
-1.98
-1.30
10.66
31.30
55.40
76.66
89.71
91.72
82.97
66.31
45.69
24.61
5.10
-12.30
-27.85
-41.77
-53.79
-63.45
-70.66
-76.22
-81.67
-88.58
-97.66
-108.22
-118.39
-125.78
-128.51
-125.92
-118.61
-108.15
-96.36
-84.74
-74.17
-64.91
-56.76
-49.42
-42.63
-36.35
-30.66
-25.65
-21.32
-17.50
-13.99
-10.59
-7.25
-3.97
-0.80
2.24
5.25
8.37
11.65
15.07
18.40
21.41
23.92
25.93
27.65
29.42
31.63
34.58
38.43
43.19
48.78
55.07
61.93
69.10
76.17
82.47
87.13
89.27
88.29
84.28
78.05
71.10
64.92
60.23
56.44
51.62
43.32
29.78
11.07
-10.47
-30.95
-46.32
-54.03
-53.93
-48.24
-40.65
-35.02
-34.14
-39.02
-48.79
-60.74
-70.74
-73.85
-65.60
-43.83
-10.36
28.51
63.34
84.70
86.75
69.39
38.03
1.00
-33.95
-62.17
-82.49
-95.95
-103.80
-106.42
-103.57
-95.54
-83.95
-71.59
-61.26
-54.44
-50.82
-48.60
-45.68
-40.81
-34.22
-27.29
-21.87
-19.33
-19.99
-23.12
-27.26
-30.92
-33.03
-33.24
-31.87
-29.65
-27.35
-25.54
-24.47
-24.05
-24.05
-24.19
-24.33
-24.48
-24.74
-25.22
-25.95
-26.76
-27.30
-27.11
-25.79
-23.10
-19.14
-14.24
-8.79
-3.05
2.99
9.51
16.71
24.55
32.66
40.46
47.28
52.60
56.17
57.95
58.03
56.57
53.73
49.75
44.93
39.69
34.56
30.04
26.50
24.05
22.57
21.74
21.20
20.71
20.14
19.44
18.48
17.03
14.82
11.67
7.64
3.03
-1.82
-6.61
-11.31
-16.03
-20.91
-25.87
-30.54
-34.35
-36.60
-36.70
-34.34
-29.61
-23.00
-15.41
-7.86
-1.34
3.40
5.98
6.35
4.68
1.28
-3.45
-9.09
-15.15
-21.21
-26.90
-32.03
-36.57
-40.66
-44.55
-48.60
-53.16
-58.48
-64.69
-71.66
-79.04
-86.34
-93.09
-98.94
-103.77
-107.58
-110.45
-112.55
-114.02
-115.05
-115.81
-116.51
-117.29
-118.28
-119.48
-120.71
-121.49
-121.01
-118.27
-112.27
-102.40
-88.69
-71.88
-53.16
-33.84
-14.86
3.31
20.54
36.64
51.05
62.80
70.81
74.53
74.45
72.12
69.78
69.49
72.41
78.46
86.46
94.73
101.71
106.41
108.44
107.90
105.03
100.11
93.33
84.85
74.82
63.51
51.28
38.61
25.99
13.79
2.05
-9.47
-21.18
-33.45
-46.38
-59.81
-73.39
-86.74
-99.48
-111.14
-120.98
-128.08
-131.45
-130.50
-125.21
-116.17
-104.27
-90.28
-74.55
-57.04
-37.60
-16.32
6.20
28.92
50.57
70.02
86.48
99.68
109.76
117.22
122.76
127.15
131.01
134.56
137.30
137.89
134.32
124.50
106.79
80.66
46.90
7.60
-34.22
-75.17
-112.03
-142.31
-164.68
-179.33
-187.94
-193.25
-198.17
-204.65
-212.95
-221.44
-227.22
-227.26
-219.61
-204.03
-182.21
-157.10
-131.87
-108.85
-88.84
-71.17
-54.39
-37.14
-18.96
-0.44
17.13
32.46
44.90
54.66
62.49
69.46
76.34
83.49
90.59
96.82
101.06
102.26
99.78
93.72
85.10
75.78
68.15
64.53
66.54
74.52
87.24
102.12
115.84
125.16
127.63
121.97
108.02
86.42
58.20
24.69
-12.38
-50.67
-87.17
-118.67
-142.22
-155.81
-158.87
-152.10
-137.12
-115.78
-89.60
-59.78
-27.48
5.74
37.77
66.40
90.03
108.23
121.74
131.82
139.49
145.00
148.06
148.28
145.68
140.75
134.04
125.88
116.21
105.01
92.77
80.68
70.37
63.01
58.62
55.74
52.03
45.20
34.03
18.71
0.53
-18.90
-38.26
-56.69
-73.55
-87.89
-98.33
-103.32
-101.80
-93.73
-79.99
-61.83
-40.15
-15.43
11.91
40.60
68.05
90.58
104.48
107.45
99.49
82.87
61.19
38.15
16.55
-2.09
-17.20
-28.73
-36.64
-40.82
-41.20
-38.11
-32.32
-25.18
-18.23
-12.83
-9.72
-8.71
-8.89
-9.00
-8.12
-6.08
-3.61
-1.92
-2.12
-4.66
-9.02
-13.86
-17.49
-18.40
-15.70
-9.25
0.39
12.37
25.73
39.65
53.44
66.47
78.05
87.36
93.56
96.00
94.48
89.36
81.49
72.08
62.33
53.03
44.19
34.89
23.41
7.71
-13.76
-41.42
-73.99
-108.62
-141.44
-168.73
-188.09
-199.29
-204.00
-204.77
-203.42
-200.01
-192.67
-178.60
-155.50
-122.57
-80.63
-31.54
22.34
78.11
132.00
179.29
215.25
236.62
242.99
237.09
223.69
207.81
193.34
182.70
177.27
177.96
185.12
197.97
214.12
229.85
241.25
245.62
242.33
232.62
218.73
202.80
186.27
169.72
153.18
136.57
119.91
103.46
87.71
73.13
59.94
47.92
36.42
24.47
11.25
-3.67
-20.13
-37.42
-54.56
-70.55
-84.55
-95.92
-104.05
-108.41
-108.58
-104.57
-96.89
-86.60
-74.87
-62.62
-50.26
-37.83
-25.29
-13.00
-1.80
7.21
13.14
15.77
15.64
13.72
10.94
7.78
4.29
0.25
-4.35
-9.20
-13.68
-17.19
-19.52
-21.03
-22.53
-24.97
-29.02
-34.81
-42.00
-49.90
-57.70
-64.64
-70.00
-73.08
-73.26
-70.12
-63.55
-53.94
-42.03
-28.78
-15.12
-1.77
10.76
22.17
32.20
40.51
46.75
50.65
52.17
51.59
49.45
46.45
43.18
39.98
36.88
33.71
30.25
26.35
21.98
17.20
12.12
6.83
1.42
-4.05
-9.57
-15.19
-21.07
-27.40
-34.37
-41.96
-49.90
-57.52
-63.78
-67.54
-67.74
-63.85
-56.00
-44.99
-32.06
-18.54
-5.44
6.62
17.43
27.03
35.45
42.65
48.49
52.78
55.37
56.20
55.33
52.94
49.34
44.97
40.27
35.64
31.27
27.17
23.18
19.08
14.74
10.10
5.20
0.05
-5.44
-11.42
-18.07
-25.49
-33.68
-42.40
-51.17
-59.27
-65.69
-69.41
-69.60
-65.90
-58.55
-48.36
-36.38
-23.69
-11.08
0.91
12.04
22.18
31.18
38.87
45.00
49.36
51.79
52.34
51.25
48.98
46.02
42.75
39.40
35.94
32.24
28.15
23.61
18.71
13.61
8.55
3.67
-0.98
-5.46
-9.96
-14.70
-19.91
-25.84
-32.67
-40.49
-49.11
-57.94
-65.97
-71.90
-74.49
-72.98
-67.35
-58.31
-47.06
-34.83
-22.55
-10.71
0.57
11.30
21.36
30.48
38.22
44.19
48.18
50.23
50.61
49.65
47.69
45.02
41.86
38.41
34.93
31.66
28.72
26.07
23.42
20.34
16.45
11.51
5.60
-0.90
-7.52
-13.84
-19.66
-25.12
-30.62
-36.67
-43.65
-51.61
-60.08
-68.13
-74.53
-78.06
-77.89
-73.79
-66.14
-55.83
-43.89
-31.29
-18.78
-6.88
4.13
14.07
22.76
30.08
35.85
39.93
42.23
42.79
41.73
39.29
35.73
31.34
26.41
21.32
16.51
12.36
9.03
6.28
3.41
-0.46
-6.05
-13.44
-21.87
-29.90
-35.89
-38.67
-37.96
-34.50
-29.71
-25.09
-21.75
-20.20
-20.45
-22.27
-25.44
-29.65
-34.40
-38.86
-41.98
-42.85
-41.02
-36.66
-30.28
-22.39
-13.20
-2.67
9.14
21.74
34.04
44.61
52.21
56.17
56.60
54.09
49.41
43.20
35.96
28.17
20.45
13.48
7.86
3.84
1.23
-0.52
-2.12
-4.24
-7.31
-11.50
-16.74
-22.82
-29.45
-36.25
-42.83
-48.71
-53.47
-56.79
-58.56
-58.93
-58.25
-57.04
-55.76
-54.66
-53.64
-52.23
-49.74
-45.44
-38.88
-30.06
-19.42
-7.76
4.09
15.39
25.67
34.61
41.97
47.51
50.98
52.33
51.70
49.50
46.24
42.40
38.30
34.11
29.93
25.87
22.07
18.64
15.58
12.71
9.75
6.41
2.57
-1.75
-6.35
-11.04
-15.70
-20.34
-25.07
-30.09
-35.58
-41.75
-48.67
-56.18
-63.80
-70.66
-75.68
-77.89
-76.74
-72.26
-65.08
-56.20
-46.62
-37.12
-28.17
-20.00
-12.70
-6.41
-1.27
2.60
5.17
6.56
7.03
6.93
6.56
6.17
5.83
5.58
5.40
5.34
5.44
5.71
5.99
6.01
5.48
4.17
2.08
-0.58
-3.51
-6.48
-9.42
-12.48
-15.88
-19.85
-24.52
-29.87
-35.68
-41.46
-46.39
-49.49
-49.75
-46.48
-39.48
-29.14
-16.26
-1.90
12.97
27.56
41.38
54.21
66.00
76.79
86.62
95.52
103.45
110.37
116.16
120.70
123.79
125.13
124.50
121.75
117.06
110.95
104.22
97.75
92.25
88.11
85.37
83.86
83.28
83.38
83.96
84.77
85.53
85.78
85.01
82.77
78.75
72.93
65.61
57.50
49.57
42.94
38.56
36.89
37.67
39.99
42.57
44.20
44.19
42.45
39.39
35.56
31.35
26.83
21.95
16.70
11.28
6.01
1.16
-3.33
-7.87
-13.08
-19.49
-27.22
-35.81
-44.38
-51.85
-57.33
-60.32
-60.90
-59.61
-57.24
-54.65
-52.52
-51.23
-50.90
-51.44
-52.69
-54.50
-56.75
-59.33
-62.07
-64.73
-67.04
-68.79
-69.83
-70.10
-69.44
-67.46
-63.58
-57.18
-47.96
-36.18
-22.81
-9.35
2.59
11.69
17.36
19.70
19.36
17.13
13.63
9.19
3.91
-2.05
-8.39
-14.53
-19.86
-23.91
-26.59
-28.17
-29.02
-29.44
-29.37
-28.48
-26.39
-22.89
-18.18
-12.77
-7.33
-2.46
1.42
3.97
4.85
3.73
0.61
-3.75
-7.50
-7.97
-2.44
10.94
32.45
60.72
93.20
126.94
159.14
187.40
209.75
224.62
231.13
229.38
220.56
206.64
189.68
171.25
152.17
132.80
113.49
94.86
77.64
62.23
48.38
35.20
21.58
6.95
-8.44
-23.57
-37.23
-48.58
-57.60
-64.85
-71.17
-77.12
-82.84
-88.08
-92.45
-95.56
-97.13
-96.97
-94.92
-90.91
-84.96
-77.24
-68.20
-58.59
-49.45
-41.92
-37.04
-35.49
-37.70
-44.00
-54.91
-71.04
-92.80
-119.72
-150.00
-180.46
-207.13
-226.24
-235.26
-233.46
-221.91
-202.99
-179.64
-154.71
-130.45
-108.36
-89.18
-73.11
-60.00
-49.50
-41.17
-34.37
-28.43
-22.70
-16.76
-10.59
-4.58
0.66
4.48
6.55
6.99
6.41
5.74
5.94
7.71
11.25
16.37
22.70
30.09
38.87
49.76
63.55
80.56
100.32
121.51
142.37
161.13
176.41
187.41
193.82
195.72
193.47
187.77
179.62
170.31
161.20
153.48
147.82
144.22
142.01
139.99
136.75
131.14
122.56
111.14
97.56
82.82
67.73
52.84
38.40
24.50
11.32
-0.90
-11.86
-21.41
-29.49
-36.08
-41.05
-44.10
-44.83
-43.01
-38.84
-33.03
-26.82
-21.79
-19.70
-22.19
-30.45
-44.90
-64.92
-88.91
-114.55
-139.54
-162.04
-181.13
-196.57
-208.51
-217.02
-221.99
-223.29
-221.10
-215.98
-208.86
-200.61
-191.81
-182.67
-173.15
-163.26
-153.24
-143.57
-134.80
-127.38
-121.50
-117.10
-113.81
-111.15
-108.44
-105.06
-100.48
-94.45
-87.04
-78.54
-69.38
-59.92
-50.34
-40.66
-30.81
-20.76
-10.64
-0.70
8.76
17.48
25.34
32.28
38.25
43.14
46.78
48.99
49.76
49.20
47.59
45.16
42.05
38.24
33.61
27.98
21.26
13.43
4.65
-4.76
-14.24
-23.03
-30.41
-35.99
-39.99
-43.20
-46.66
-51.06
-56.25
-61.16
-64.25
-64.22
-60.77
-54.93
-48.71
-44.35
-43.30
-45.51
-49.26
-51.63
-49.42
-40.34
-23.82
-1.32
24.21
49.48
71.90
90.24
104.64
116.20
126.41
136.66
147.87
159.88
170.80
176.70
172.43
153.50
118.70
71.67
20.63
-24.31
-54.76
-67.09
-63.32
-49.57
-33.37
-21.12
-16.70
-21.43
-34.61
-54.35
-78.06
-102.89
-126.02
-145.14
-158.77
-166.29
-167.83
-164.15
-156.58
-146.75
-136.19
-125.73
-115.09
-102.79
-86.86
-65.69
-38.93
-7.88
24.85
55.96
82.32
101.62
112.65
115.35
110.44
99.23
83.50
65.44
47.43
31.48
18.56
8.15
-1.56
-12.74
-26.68
-42.88
-59.06
-72.18
-79.94
-81.81
-79.24
-74.83
-71.15
-69.80
-71.26
-75.22
-80.97
-87.73
-94.47
-99.92
-102.67
-101.50
-95.89
-86.20
-73.63
-59.69
-45.66
-32.20
-19.27
-6.48
6.59
20.03
33.49
46.27
57.55
66.68
73.28
77.39
79.32
79.59
78.79
77.37
75.71
73.89
71.81
69.16
65.57
60.73
54.59
47.37
39.53
31.57
23.89
16.64
9.68
2.67
-4.77
-13.03
-22.33
-32.63
-43.50
-54.03
-62.94
-68.84
-70.66
-67.97
-61.08
-50.89
-38.52
-24.96
-10.93
3.13
16.88
29.99
42.10
52.86
62.03
69.41
74.83
78.19
79.43
78.67
76.24
72.64
68.50
64.40
60.81
57.99
56.02
54.70
53.62
52.21
49.87
46.24
41.24
35.15
28.48
21.64
14.84
7.88
0.27
-8.52
-18.79
-30.27
-42.02
-52.58
-60.31
-63.86
-62.54
-56.50
-46.57
-34.04
-20.19
-6.04
7.81
21.10
33.79
45.84
57.19
67.60
76.81
84.51
90.50
94.70
97.16
97.99
97.38
95.47
92.47
88.63
84.27
79.72
75.19
70.68
65.94
60.61
54.41
47.28
39.48
31.45
23.63
16.31
9.44
2.72
-4.33
-12.23
-21.30
-31.50
-42.28
-52.62
-61.09
-66.34
-67.33
-63.73
-55.92
-44.86
-31.70
-17.52
-3.12
11.00
24.50
37.11
48.52
58.42
66.51
72.58
76.59
78.64
79.03
78.06
76.15
73.60
70.70
67.67
64.66
61.74
58.89
55.98
52.79
49.10
44.66
39.35
33.19
26.41
19.32
12.26
5.42
-1.26
-8.10
-15.56
-23.98
-33.41
-43.32
-52.71
-60.22
-64.52
-64.67
-60.37
-52.04
-40.69
-27.56
-13.86
-0.44
12.20
23.86
34.40
43.65
51.36
57.27
61.24
63.32
63.75
62.88
61.10
58.74
56.08
53.28
50.45
47.66
44.90
42.04
38.85
35.09
30.55
25.23
19.29
13.04
6.79
0.69
-5.36
-11.65
-18.61
-26.59
-35.65
-45.45
-55.16
-63.53
-69.22
-71.17
-68.83
-62.46
-52.89
-41.29
-28.73
-15.96
-3.38
8.82
20.47
31.29
40.84
48.73
54.66
58.55
60.53
60.86
59.89
57.97
55.46
52.68
49.88
47.22
44.73
42.28
39.61
36.45
32.54
27.73
22.03
15.63
8.84
1.99
-4.65
-10.98
-17.19
-23.68
-30.91
-39.18
-48.36
-57.74
-66.14
-72.18
-74.65
-72.92
-67.06
-57.78
-46.19
-33.42
-20.37
-7.61
4.59
16.17
27.06
37.12
46.10
53.63
59.35
63.02
64.60
64.36
62.74
60.22
57.19
53.86
50.30
46.60
42.86
39.23
35.74
32.25
28.44
24.00
18.76
12.82
6.57
0.39
-5.43
-10.88
-16.17
-21.67
-27.76
-34.73
-42.68
-51.33
-59.99
-67.57
-72.83
-74.72
-72.72
-66.99
-58.29
-47.70
-36.21
-24.52
-12.98
-1.73
9.19
19.61
29.29
37.85
44.92
50.26
53.77
55.58
55.93
55.16
53.56
51.32
48.58
45.45
42.09
38.71
35.45
32.38
29.36
26.12
22.36
17.86
12.64
6.88
0.91
-4.97
-10.57
-15.89
-21.06
-26.32
-31.93
-38.13
-45.04
-52.54
-60.15
-67.04
-72.12
-74.30
-72.86
-67.66
-59.22
-48.51
-36.64
-24.50
-12.66
-1.37
9.19
18.84
27.30
34.30
39.69
43.49
45.83
46.95
47.09
46.49
45.32
43.76
41.92
39.85
37.54
35.05
32.44
29.84
27.32
24.84
22.18
19.03
15.13
10.41
5.07
-0.53
-6.00
-11.11
-15.82
-20.32
-24.90
-29.87
-35.50
-41.92
-49.05
-56.47
-63.37
-68.74
-71.50
-70.94
-66.90
-59.77
-50.38
-39.69
-28.51
-17.44
-6.83
3.09
12.16
20.17
26.94
32.29
36.12
38.48
39.53
39.55
38.82
37.56
35.85
33.69
31.14
28.36
25.63
23.23
21.21
19.40
17.35
14.63
11.01
6.58
1.75
-3.00
-7.27
-10.97
-14.30
-17.64
-21.44
-26.02
-31.54
-37.90
-44.69
-51.18
-56.32
-59.06
-58.59
-54.67
-47.71
-38.66
-28.66
-18.67
-9.23
-0.47
7.73
15.46
22.60
28.83
33.74
37.02
38.67
38.90
38.15
36.83
35.20
33.31
31.13
28.63
25.93
23.24
20.81
18.71
16.79
14.68
12.01
8.55
4.35
-0.33
-5.12
-9.69
-13.89
-17.78
-21.60
-25.73
-30.56
-36.35
-43.07
-50.31
-57.29
-62.96
-66.29
-66.51
-63.37
-57.16
-48.58
-38.57
-28.03
-17.59
-7.58
1.89
10.83
19.18
26.76
33.29
38.51
42.22
44.46
45.32
45.02
43.74
41.66
38.96
35.90
32.75
29.80
27.27
25.19
23.38
21.55
19.31
16.34
12.52
7.95
2.91
-2.17
-6.93
-11.14
-14.83
-18.27
-21.90
-26.20
-31.54
-38.05
-45.47
-53.12
-59.95
-64.72
-66.38
-64.36
-58.79
-50.44
-40.46
-29.98
-19.79
-10.25
-1.36
7.01
14.91
22.26
28.80
34.26
38.42
41.18
42.55
42.73
41.97
40.57
38.81
36.88
34.90
32.96
31.09
29.30
27.57
25.80
23.84
21.54
18.75
15.42
11.59
7.33
2.77
-1.91
-6.55
-11.02
-15.26
-19.33
-23.38
-27.68
-32.51
-38.05
-44.26
-50.83
-57.11
-62.15
-64.97
-64.76
-61.20
-54.57
-45.67
-35.57
-25.29
-15.44
-6.30
2.18
10.10
17.47
24.10
29.69
33.96
36.75
38.16
38.42
37.88
36.87
35.61
34.18
32.61
30.87
28.94
26.86
24.71
22.59
20.55
18.55
16.47
14.11
11.25
7.76
3.65
-0.92
-5.67
-10.31
-14.68
-18.76
-22.70
-26.76
-31.22
-36.29
-42.00
-48.14
-54.18
-59.33
-62.63
-63.27
-60.79
-55.23
-47.17
-37.49
-27.21
-17.14
-7.81
0.60
8.18
15.13
21.55
27.42
32.52
36.57
39.33
40.76
40.99
40.32
39.11
37.63
36.01
34.32
32.54
30.68
28.74
26.74
24.63
22.34
19.74
16.76
13.34
9.55
5.56
1.57
-2.24
-5.78
-9.10
-12.30
-15.54
-18.94
-22.66
-26.82
-31.59
-37.06
-43.10
-49.19
-54.45
-57.78
-58.27
-55.51
-49.75
-41.81
-32.77
-23.56
-14.76
-6.59
1.01
8.12
14.72
20.68
25.80
29.93
32.95
34.81
35.58
35.35
34.29
32.57
30.40
27.97
25.52
23.28
21.36
19.80
18.46
17.05
15.28
12.92
9.90
6.27
2.21
-2.04
-6.24
-10.19
-13.83
-17.18
-20.44
-23.91
-27.90
-32.60
-38.02
-43.88
-49.58
-54.33
-57.27
-57.74
-55.44
-50.52
-43.55
-35.29
-26.53
-17.83
-9.50
-1.63
5.78
12.65
18.78
23.91
27.82
30.43
31.90
32.49
32.51
32.15
31.45
30.38
28.92
27.16
25.32
23.62
22.10
20.69
19.13
17.16
14.61
11.46
7.84
3.95
0.03
-3.73
-7.23
-10.56
-13.98
-17.89
-22.60
-28.20
-34.33
-40.24
-44.92
-47.43
-47.19
-44.12
-38.64
-31.45
-23.28
-14.76
-6.32
1.78
9.34
16.23
22.30
27.44
31.55
34.63
36.64
37.66
37.73
36.97
35.52
33.58
31.33
28.94
26.51
24.11
21.79
19.54
17.34
15.05
12.46
9.34
5.56
1.17
-3.59
-8.34
-12.80
-16.90
-20.87
-25.12
-30.06
-35.91
-42.53
-49.44
-55.84
-60.82
-63.50
-63.26
-59.90
-53.70
-45.38
-35.82
-25.89
-16.18
-6.99
1.64
9.71
17.15
23.75
29.25
33.48
36.36
38.05
38.75
38.72
38.11
36.98
35.34
33.19
30.61
27.78
24.94
22.30
19.93
17.76
15.58
13.10
10.10
6.47
2.27
-2.28
-6.88
-11.28
-15.35
-19.15
-22.93
-27.08
-31.91
-37.60
-43.91
-50.21
-55.57
-58.98
-59.64
-57.21
-51.90
-44.31
-35.28
-25.56
-15.72
-6.04
3.32
12.25
20.61
28.16
34.62
39.77
43.47
45.73
46.67
46.47
45.38
43.64
41.46
39.05
36.58
34.15
31.85
29.72
27.75
25.86
23.88
21.57
18.69
15.11
10.89
6.29
1.69
-2.64
-6.63
-10.43
-14.33
-18.57
-23.32
-28.61
-34.42
-40.71
-47.25
-53.56
-58.79
-61.90
-61.99
-58.71
-52.34
-43.77
-34.10
-24.25
-14.72
-5.67
2.97
11.26
19.12
26.33
32.66
37.87
41.78
44.29
45.39
45.15
43.80
41.66
39.09
36.47
34.05
31.98
30.21
28.61
26.92
24.95
22.50
19.53
16.08
12.28
8.31
4.28
0.31
-3.53
-7.25
-10.92
-14.63
-18.50
-22.66
-27.22
-32.29
-37.86
-43.76
-49.52
-54.43
-57.67
-58.50
-56.56
-51.95
-45.15
-36.81
-27.61
-18.06
-8.53
0.74
9.50
17.56
24.76
31.01
36.23
40.33
43.19
44.72
44.94
44.06
42.44
40.53
38.70
37.15
35.90
34.77
33.54
31.98
29.96
27.45
24.47
21.12
17.48
13.61
9.59
5.45
1.27
-2.84
-6.81
-10.59
-14.22
-17.85
-21.67
-25.85
-30.53
-35.73
-41.37
-47.17
-52.66
-57.15
-59.84
-60.05
-57.38
-51.93
-44.30
-35.37
-26.04
-16.96
-8.47
-0.62
6.64
13.27
19.16
24.11
28.01
30.86
32.79
33.92
34.40
34.24
33.47
32.16
30.46
28.57
26.72
25.05
23.56
22.18
20.67
18.84
16.51
13.64
10.30
6.62
2.80
-0.98
-4.61
-8.06
-11.36
-14.63
-18.04
-21.78
-26.01
-30.82
-36.09
-41.50
-46.43
-50.12
-51.78
-50.87
-47.27
-41.35
-33.85
-25.62
-17.36
-9.46
-2.04
4.94
11.46
17.37
22.41
26.32
28.93
30.28
30.53
29.99
28.95
27.71
26.47
25.32
24.31
23.41
22.55
21.65
20.55
19.11
17.16
14.58
11.42
7.86
4.19
0.66
-2.57
-5.52
-8.36
-11.29
-14.56
-18.39
-22.95
-28.26
-34.13
-40.00
-44.99
-48.09
-48.45
-45.76
-40.33
-32.98
-24.76
-16.54
-8.85
-1.76
4.88
11.19
17.15
22.52
26.95
30.16
32.06
32.74
32.49
31.64
30.43
29.00
27.39
25.60
23.66
21.70
19.88
18.30
16.97
15.68
14.10
11.85
8.74
4.79
0.35
-4.14
-8.28
-11.87
-15.03
-18.08
-21.45
-25.51
-30.43
-36.08
-42.01
-47.48
-51.57
-53.44
-52.51
-48.67
-42.35
-34.29
-25.41
-16.46
-7.97
-0.14
7.04
13.67
19.82
25.44
30.38
34.40
37.28
38.93
39.42
39.00
37.96
36.55
34.92
33.08
31.03
28.79
26.44
24.15
22.00
19.99
17.96
15.65
12.79
9.28
5.19
0.82
-3.49
-7.41
-10.83
-13.90
-16.88
-20.12
-23.87
-28.27
-33.27
-38.72
-44.23
-49.21
-52.87
-54.41
-53.24
-49.25
-42.85
-34.86
-26.24
-17.77
-9.89
-2.67
4.06
10.49
16.69
22.55
27.82
32.19
35.39
37.31
38.01
37.69
36.66
35.17
33.46
31.63
29.80
28.04
26.41
24.87
23.26
21.34
18.89
15.83
12.24
8.35
4.44
0.69
-2.85
-6.28
-9.71
-13.18
-16.69
-20.18
-23.68
-27.36
-31.46
-36.19
-41.48
-46.90
-51.64
-54.75
-55.41
-53.23
-48.35
-41.35
-33.06
-24.32
-15.75
-7.70
-0.34
6.40
12.62
18.44
23.88
28.81
32.95
35.93
37.53
37.71
36.76
35.13
33.28
31.53
30.02
28.67
27.37
25.98
24.44
22.70
20.75
18.54
16.05
13.23
10.07
6.57
2.84
-0.95
-4.60
-7.93
-10.90
-13.59
-16.26
-19.17
-22.58
-26.59
-31.17
-36.12
-41.08
-45.49
-48.66
-49.95
-48.91
-45.43
-39.83
-32.69
-24.71
-16.49
-8.45
-0.81
6.32
12.86
18.72
23.84
28.18
31.72
34.42
36.21
37.06
37.00
36.19
34.86
33.30
31.65
30.00
28.34
26.65
24.96
23.28
21.54
19.59
17.23
14.31
10.83
6.96
3.00
-0.81
-4.33
-7.54
-10.59
-13.63
-16.79
-20.11
-23.64
-27.45
-31.62
-36.20
-41.07
-45.88
-49.95
-52.49
-52.79
-50.54
-45.94
-39.61
-32.36
-24.87
-17.53
-10.43
-3.56
3.02
9.09
14.37
18.57
21.60
23.53
24.54
24.89
24.74
24.24
23.48
22.51
21.36
20.06
18.64
17.11
15.53
13.89
12.19
10.36
8.32
6.02
3.47
0.76
-1.97
-4.58
-7.01
-9.31
-11.64
-14.20
-17.19
-20.72
-24.76
-29.15
-33.58
-37.60
-40.69
-42.31
-41.98
-39.49
-34.94
-28.71
-21.46
-13.83
-6.33
0.77
7.42
13.61
19.28
24.21
28.09
30.72
32.03
32.23
31.68
30.77
29.76
28.72
27.59
26.25
24.66
22.92
21.25
19.81
18.64
17.55
16.18
14.15
11.24
7.49
3.24
-1.04
-4.93
-8.24
-11.07
-13.80
-16.89
-20.76
-25.63
-31.39
-37.62
-43.55
-48.28
-50.89
-50.78
-47.82
-42.44
-35.47
-27.85
-20.33
-13.27
-6.61
-0.15
6.30
12.68
18.68
23.88
27.91
30.61
32.07
32.53
32.29
31.54
30.37
28.83
26.94
24.85
22.76
20.91
19.42
18.24
17.12
15.72
13.70
10.89
7.29
3.11
-1.37
-5.83
-10.03
-13.81
-17.21
-20.41
-23.70
-27.42
-31.85
-37.06
-42.77
-48.33
-52.81
-55.22
-54.88
-51.64
-45.91
-38.50
-30.32
-22.04
-14.00
-6.24
1.31
8.64
15.61
21.98
27.48
31.92
35.24
37.46
38.69
39.06
38.76
37.95
36.80
35.44
33.97
32.46
30.94
29.38
27.70
25.78
23.48
20.70
17.44
13.83
10.07
6.34
2.78
-0.62
-3.93
-7.31
-10.84
-14.54
-18.37
-22.30
-26.43
-30.97
-36.14
-41.87
-47.70
-52.74
-55.90
-56.29
-53.52
-47.94
-40.34
-31.78
-23.07
-14.69
-6.73
0.92
8.35
15.49
22.12
27.92
32.58
35.90
37.90
38.74
38.73
38.17
37.26
36.07
34.62
32.93
31.11
29.31
27.65
26.12
24.55
22.70
20.37
17.45
14.01
10.18
6.16
2.13
-1.77
-5.43
-8.78
-11.86
-14.79
-17.83
-21.25
-25.30
-30.14
-35.72
-41.76
-47.69
-52.70
-55.94
-56.68
-54.58
-49.81
-42.96
-34.84
-26.28
-17.86
-9.86
-2.36
4.66
11.21
17.21
22.49
26.87
30.15
32.30
33.41
33.72
33.50
32.97
32.18
31.09
29.64
27.88
25.98
24.17
22.59
21.21
19.80
18.09
15.85
13.05
9.85
6.52
3.36
0.54
-1.95
-4.24
-6.60
-9.31
-12.59
-16.60
-21.37
-26.78
-32.44
-37.74
-41.86
-44.01
-43.64
-40.63
-35.34
-28.41
-20.58
-12.44
-4.38
3.42
10.86
17.81
24.09
29.46
33.70
36.66
38.33
38.83
38.46
37.54
36.40
35.22
34.04
32.81
31.42
29.84
28.08
26.18
24.18
22.04
19.72
17.12
14.17
10.84
7.16
3.17
-1.02
-5.30
-9.49
-13.48
-17.22
-20.82
-24.51
-28.58
-33.30
-38.70
-44.59
-50.43
-55.43
-58.69
-59.43
-57.22
-52.13
-44.74
-35.95
-26.68
-17.63
-9.14
-1.22
6.27
13.35
19.90
25.65
30.31
33.75
35.98
37.16
37.54
37.35
36.79
36.01
35.05
33.96
32.72
31.31
29.74
28.02
26.18
24.20
22.03
19.61
16.86
13.76
10.30
6.53
2.54
-1.57
-5.70
-9.70
-13.49
-17.05
-20.45
-23.88
-27.55
-31.73
-36.51
-41.83
-47.27
-52.14
-55.54
-56.63
-54.90
-50.32
-43.41
-35.05
-26.12
-17.31
-8.93
-1.03
6.44
13.49
20.00
25.81
30.76
34.79
37.87
40.03
41.25
41.56
41.01
39.77
38.11
36.33
34.66
33.17
31.81
30.36
28.63
26.48
23.89
20.99
17.97
14.98
12.13
9.34
6.49
3.40
-0.00
-3.71
-7.54
-11.29
-14.73
-17.84
-20.71
-23.62
-26.88
-30.79
-35.43
-40.67
-46.02
-50.72
-53.86
-54.61
-52.49
-47.54
-40.32
-31.69
-22.59
-13.78
-5.65
1.64
8.16
14.01
19.19
23.65
27.29
30.02
31.81
32.72
32.87
32.42
31.51
30.24
28.69
26.95
25.15
23.35
21.62
19.90
18.11
16.15
13.96
11.54
8.93
6.14
3.21
0.16
-2.94
-6.01
-8.98
-11.86
-14.70
-17.58
-20.59
-23.79
-27.26
-31.08
-35.34
-39.92
-44.47
-48.31
-50.63
-50.70
-48.12
-42.99
-35.88
-27.57
-18.86
-10.33
-2.32
4.99
11.57
17.32
22.17
26.01
28.79
30.55
31.40
31.56
31.24
30.64
29.85
28.92
27.83
26.58
25.22
23.83
22.43
20.98
19.37
17.44
15.03
12.09
8.72
5.15
1.71
-1.36
-4.01
-6.39
-8.86
-11.74
-15.27
-19.48
-24.25
-29.33
-34.37
-38.87
-42.23
-43.77
-43.00
-39.70
-34.15
-27.00
-19.08
-11.16
-3.71
3.08
9.23
14.82
19.92
24.44
28.23
31.06
32.81
33.46
33.17
32.27
31.09
29.88
28.70
27.46
26.00
24.27
22.33
20.35
18.46
16.62
14.67
12.31
9.37
5.81
1.83
-2.31
-6.32
-10.05
-13.48
-16.73
-20.01
-23.55
-27.61
-32.34
-37.70
-43.40
-48.82
-53.20
-55.78
-56.03
-53.76
-49.20
-42.88
-35.48
-27.63
-19.85
-12.42
-5.46
1.08
7.28
13.18
18.67
23.52
27.46
30.25
31.84
32.43
32.34
31.94
31.43
30.87
30.15
29.15
27.85
26.40
24.97
23.67
22.44
21.01
19.05
16.38
13.01
9.23
5.41
1.81
-1.49
-4.60
-7.75
-11.14
-14.88
-19.04
-23.68
-28.82
-34.39
-40.09
-45.30
-49.22
-51.03
-50.23
-46.82
-41.31
-34.53
-27.30
-20.24
-13.61
-7.46
-1.69
3.69
8.60
12.83
16.21
18.60
20.02
20.52
20.24
19.35
18.01
16.38
14.61
12.86
11.25
9.94
9.09
8.82
9.16
9.98
10.97
11.64
11.48
10.09
7.31
3.26
-1.72
-7.22
-12.90
-18.54
-24.07
-29.43
-34.60
-39.61
-44.60
-49.83
-55.46
-61.41
-67.10
-71.60
-73.84
-73.04
-69.07
-62.42
-54.08
-45.08
-36.19
-27.78
-19.79
-12.02
-4.28
3.44
11.00
18.05
24.27
29.36
33.23
35.94
37.75
38.91
39.65
40.02
40.01
39.56
38.71
37.55
36.23
34.83
33.37
31.75
29.84
27.56
24.93
22.08
19.14
16.24
13.42
10.68
7.97
5.26
2.44
-0.63
-4.21
-8.51
-13.62
-19.32
-25.01
-29.81
-32.75
-33.13
-30.76
-25.95
-19.43
-12.06
-4.57
2.60
9.31
15.59
21.53
27.16
32.38
37.01
40.82
43.67
45.51
46.46
46.75
46.64
46.34
45.92
45.35
44.53
43.39
41.91
40.13
38.15
36.04
33.84
31.51
29.00
26.21
23.12
19.75
16.19
12.58
9.03
5.58
2.14
-1.42
-5.31
-9.71
-14.71
-20.23
-25.96
-31.36
-35.74
-38.40
-38.81
-36.84
-32.73
-27.05
-20.41
-13.36
-6.28
0.63
7.24
13.39
18.87
23.48
27.10
29.73
31.46
32.49
33.00
33.19
33.17
33.03
32.77
32.34
31.71
30.90
30.01
29.12
28.31
27.51
26.56
25.24
23.35
20.85
17.76
14.24
10.47
6.61
2.77
-0.97
-4.61
-8.17
-11.80
-15.64
-19.87
-24.58
-29.63
-34.66
-39.07
-42.15
-43.28
-42.09
-38.59
-33.14
-26.34
-18.84
-11.21
-3.83
3.02
9.17
14.49
18.90
22.36
24.90
26.56
27.44
27.57
26.99
25.76
24.00
21.89
19.64
17.49
15.60
14.07
12.84
11.83
10.83
9.60
7.90
5.56
2.58
-0.88
-4.52
-8.03
-11.20
-14.07
-16.89
-20.03
-23.86
-28.54
-33.90
-39.42
-44.35
-47.79
-49.02
-47.65
-43.73
-37.78
-30.62
-23.12
-15.92
-9.36
-3.46
1.95
6.97
11.53
15.44
18.44
20.37
21.21
21.18
20.55
19.58
18.43
17.12
15.66
14.07
12.45
10.92
9.56
8.31
7.01
5.43
3.33
0.68
-2.44
-5.74
-8.95
-11.89
-14.59
-17.28
-20.28
-23.90
-28.28
-33.30
-38.58
-43.49
-47.23
-49.07
-48.51
-45.41
-40.12
-33.35
-25.98
-18.78
-12.25
-6.50
-1.33
3.51
8.26
12.88
17.15
20.70
23.19
24.51
24.78
24.33
23.58
22.83
22.12
21.30
20.10
18.35
16.05
13.32
10.29
6.93
3.04
-1.68
-7.42
-14.16
-21.70
-29.84
-38.54
-47.92
-58.06
-68.61
-78.70
-87.09
-92.69
-94.98
-94.20
-91.12
-86.48
-80.55
-72.98
-63.12
-50.51
-35.20
-17.80
0.91
20.30
40.15
60.44
81.13
101.78
121.60
139.63
155.14
167.81
177.76
185.27
190.48
193.09
192.38
187.51
177.92
163.78
146.21
127.01
108.20
91.36
77.13
65.19
54.53
43.96
32.54
19.92
6.15
-8.31
-22.80
-36.50
-48.48
-57.78
-63.80
-66.48
-66.44
-64.82
-62.82
-61.21
-60.15
-59.15
-57.44
-54.35
-49.57
-43.27
-35.92
-28.12
-20.38
-13.10
-6.51
-0.78
3.94
7.58
10.07
11.52
12.07
11.98
11.47
10.73
9.85
8.85
7.74
6.51
5.14
3.57
1.71
-0.59
-3.37
-6.54
-9.82
-12.83
-15.29
-17.15
-18.56
-19.85
-21.26
-22.82
-24.32
-25.47
-26.04
-25.96
-25.36
-24.49
-23.56
-22.74
-22.17
-21.95
-22.13
-22.58
-22.90
-22.46
-20.68
-17.34
-12.89
-8.32
-4.80
-3.03
-2.76
-2.79
-1.41
2.82
10.32
20.31
31.02
40.42
46.85
49.45
48.08
43.03
34.69
23.39
9.58
-6.06
-22.45
-38.25
-52.18
-63.36
-71.54
-77.10
-80.82
-83.46
-85.52
-87.05
-87.75
-87.14
-84.65
-79.75
-72.02
-61.27
-47.65
-31.83
-14.92
1.76
17.08
30.46
41.97
52.08
61.23
69.44
76.25
80.97
83.03
82.33
79.13
73.93
67.13
59.04
49.94
40.35
31.12
23.22
17.53
14.42
13.64
14.47
15.95
17.22
17.72
17.23
15.77
13.53
10.63
7.05
2.49
-3.49
-11.32
-21.13
-32.54
-44.59
-55.87
-64.81
-69.99
-70.51
-66.13
-57.41
-45.61
-32.37
-19.45
-8.29
0.24
5.88
8.87
9.64
8.68
6.45
3.35
-0.16
-3.66
-6.85
-9.58
-11.92
-14.02
-15.99
-17.75
-19.11
-19.86
-19.89
-19.30
-18.32
-17.19
-16.05
-14.96
-13.89
-12.85
-11.88
-11.05
-10.42
-10.03
-9.89
-9.98
-10.28
-10.77
-11.41
-12.18
-13.07
-14.13
-15.36
-16.71
-18.09
-19.32
-20.27
-20.88
-21.13
-21.02
-20.50
-19.50
-17.94
-15.85
-13.40
-10.85
-8.45
-6.34
-4.54
-3.01
-1.66
-0.44
0.61
1.44
2.00
2.27
2.28
2.21
2.26
2.67
3.56
4.94
6.64
8.35
9.82
10.88
11.55
11.95
12.21
12.39
12.41
12.10
11.29
9.86
7.82
5.34
2.65
0.03
-2.28
-4.23
-5.85
-7.21
-8.35
-9.17
-9.51
-9.24
-8.38
-7.08
-5.63
-4.28
-3.16
-2.28
-1.52
-0.79
-0.03
0.67
1.23
1.55
1.63
1.51
1.33
1.23
1.37
1.87
2.83
4.26
6.12
8.24
10.41
12.34
13.80
14.62
14.77
14.29
13.35
12.11
10.76
9.41
8.15
6.94
5.70
4.30
2.67
0.82
-1.14
-3.05
-4.81
-6.42
-8.00
-9.68
-11.53
-13.49
-15.40
-17.10
-18.53
-19.77
-20.99
-22.27
-23.55
-24.66
-25.38
-25.64
-25.59
-25.59
-26.00
-27.07
-28.81
-31.00
-33.37
-35.64
-37.71
-39.54
-41.11
-42.42
-43.38
-43.94
-44.13
-44.06
-43.89
-43.78
-43.75
-43.67
-43.29
-42.38
-40.93
-39.17
-37.51
-36.40
-36.02
-36.23
-36.59
-36.58
-35.84
-34.41
-32.61
-30.96
-29.79
-29.20
-28.97
-28.67
-27.99
-26.79
-25.29
-23.87
-22.95
-22.75
-23.29
-24.32
-25.47
-26.29
-26.26
-24.91
-21.87
-17.05
-10.76
-3.71
3.18
9.14
13.92
17.87
21.84
26.79
33.38
41.71
51.36
61.54
71.48
80.58
88.57
95.38
101.05
105.50
108.49
109.65
108.64
105.29
99.72
92.24
83.15
72.37
59.23
42.70
21.99
-2.72
-29.75
-56.08
-78.08
-92.63
-98.04
-94.51
-83.82
-68.80
-52.62
-38.25
-28.16
-24.03
-26.49
-34.89
-47.32
-61.12
-73.60
-82.83
-88.13
-89.94
-89.52
-88.29
-87.44
-87.75
-89.57
-93.03
-98.14
-104.69
-112.29
-120.22
-127.53
-133.20
-136.36
-136.53
-133.64
-127.98
-120.03
-110.21
-98.77
-85.79
-71.35
-55.68
-39.29
-22.97
-7.61
5.97
17.17
25.65
31.31
34.26
34.78
33.41
30.86
28.02
25.71
24.60
25.00
26.89
29.98
33.83
37.95
41.90
45.34
48.08
50.18
51.95
53.84
56.26
59.35
62.79
65.79
67.27
66.13
61.58
53.40
42.11
28.94
15.57
3.81
-4.87
-9.65
-10.48
-7.99
-3.15
3.00
9.68
16.40
22.96
29.20
35.01
40.19
44.58
48.09
50.72
52.51
53.51
53.69
52.99
51.41
49.08
46.31
43.47
40.96
38.97
37.39
35.82
33.75
30.69
26.37
20.80
14.13
6.62
-1.51
-10.13
-19.12
-28.36
-37.73
-47.11
-56.41
-65.52
-74.22
-82.03
-88.21
-91.90
-92.38
-89.35
-82.99
-73.94
-62.98
-50.86
-38.04
-24.80
-11.28
2.35
15.77
28.55
40.25
50.45
58.85
65.29
69.69
72.13
72.88
72.38
71.18
69.85
68.83
68.24
67.91
67.41
66.23
63.93
60.26
55.21
48.91
41.61
33.54
24.92
15.83
6.20
-4.24
-15.87
-29.05
-43.84
-59.71
-75.52
-89.59
-100.06
-105.42
-104.87
-98.48
-87.04
-71.79
-54.09
-35.13
-15.89
2.91
20.71
37.02
51.49
63.80
73.74
81.17
86.09
88.64
89.13
87.98
85.64
82.51
78.94
75.25
71.73
68.64
66.15
64.24
62.65
60.95
58.70
55.61
51.66
47.13
42.45
37.93
33.61
29.14
23.85
16.99
8.09
-2.81
-15.04
-27.39
-38.40
-46.75
-51.57
-52.64
-50.36
-45.55
-39.14
-31.85
-24.04
-15.67
-6.50
3.65
14.66
26.04
37.07
47.01
55.33
61.82
66.50
69.56
71.16
71.51
70.92
69.87
68.90
68.44
68.51
68.65
68.01
65.77
61.43
55.14
47.56
39.65
32.17
25.43
19.16
12.63
4.99
-4.47
-15.98
-29.16
-43.00
-56.03
-66.56
-73.19
-75.07
-72.16
-65.12
-55.13
-43.47
-31.22
-19.11
-7.44
3.75
14.49
24.76
34.42
43.30
51.20
57.98
63.54
67.81
70.75
72.46
73.11
73.08
72.80
72.63
72.74
73.02
73.11
72.57
71.09
68.57
65.14
61.08
56.72
52.31
47.98
43.69
39.22
34.21
28.28
21.24
13.25
4.87
-3.04
-9.65
-14.38
-17.04
-17.80
-17.03
-15.11
-12.29
-8.74
-4.63
-0.23
3.98
7.34
9.28
9.42
7.83
5.03
1.80
-1.23
-3.91
-6.61
-10.05
-14.77
-20.69
-27.06
-32.72
-36.66
-38.45
-38.41
-37.35
-36.12
-35.30
-35.11
-35.61
-36.95
-39.54
-43.80
-49.89
-57.30
-64.84
-70.87
-73.89
-73.07
-68.44
-60.83
-51.39
-41.22
-30.98
-20.86
-10.83
-0.86
8.91
18.10
26.17
32.64
37.18
39.68
40.34
39.56
37.84
35.67
33.37
31.11
28.86
26.49
23.86
20.88
17.52
13.82
9.81
5.54
0.98
-3.96
-9.35
-15.28
-21.83
-29.03
-36.77
-44.73
-52.24
-58.43
-62.33
-63.12
-60.45
-54.43
-45.72
-35.19
-23.79
-12.29
-1.21
9.20
18.81
27.61
35.51
42.31
47.73
51.47
53.35
53.46
52.09
49.73
46.83
43.74
40.61
37.49
34.35
31.11
27.71
24.00
19.84
15.16
9.99
4.51
-1.11
-6.72
-12.34
-18.16
-24.47
-31.51
-39.27
-47.36
-54.99
-61.09
-64.57
-64.69
-61.25
-54.66
-45.77
-35.56
-24.84
-14.14
-3.72
6.28
15.67
24.26
31.78
38.06
42.99
46.52
48.64
49.37
48.81
47.16
44.76
41.98
39.16
36.45
33.90
31.35
28.66
25.61
22.07
17.93
13.21
7.98
2.42
-3.28
-8.96
-14.54
-20.08
-25.74
-31.78
-38.45
-45.83
-53.73
-61.55
-68.33
-73.01
-74.71
-73.08
-68.40
-61.41
-53.11
-44.31
-35.51
-26.86
-18.35
-10.05
-2.16
4.95
10.99
15.91
20.07
24.14
28.82
34.53
41.23
48.34
55.05
60.61
64.59
67.02
68.20
68.54
68.23
67.26
65.48
62.74
59.05
54.62
49.73
44.67
39.57
34.42
29.14
23.72
18.22
12.75
7.33
1.95
-3.37
-8.41
-12.60
-15.14
-15.28
-12.66
-7.54
-0.66
7.06
14.86
22.29
29.20
35.48
40.91
45.14
47.84
48.88
48.35
46.61
44.07
41.12
38.14
35.40
33.07
31.21
29.67
28.16
26.39
24.15
21.52
18.72
16.07
13.78
11.82
9.95
7.82
5.11
1.63
-2.66
-7.74
-13.61
-20.19
-27.36
-34.73
-41.59
-47.03
-50.07
-49.99
-46.52
-39.98
-31.21
-21.36
-11.62
-3.03
3.73
8.38
10.98
11.82
11.25
9.56
7.00
3.80
0.27
-3.18
-6.06
-8.04
-8.98
-9.10
-8.76
-8.41
-8.36
-8.75
-9.56
-10.76
-12.32
-14.27
-16.61
-19.26
-22.07
-24.90
-27.72
-30.70
-34.07
-37.95
-42.19
-46.29
-49.52
-51.16
-50.71
-48.04
-43.28
-36.76
-28.80
-19.74
-9.95
0.03
9.52
17.78
24.19
28.39
30.38
30.48
29.16
26.91
24.15
21.13
18.01
14.95
12.18
10.06
8.90
8.90
9.89
11.36
12.53
12.57
10.86
7.18
1.70
-5.07
-12.49
-19.94
-27.01
-33.55
-39.58
-45.19
-50.30
-54.59
-57.49
-58.40
-56.88
-52.87
-46.64
-38.74
-29.81
-20.46
-11.16
-2.26
6.00
13.40
19.78
24.99
28.88
31.38
32.48
32.31
31.06
28.90
25.96
22.31
18.05
13.41
8.74
4.38
0.56
-2.76
-5.79
-8.77
-11.86
-15.00
-18.06
-20.91
-23.61
-26.34
-29.42
-33.11
-37.64
-43.04
-49.09
-55.28
-60.76
-64.47
-65.43
-63.03
-57.29
-48.86
-38.78
-28.11
-17.63
-7.70
1.59
10.20
17.99
24.74
30.16
34.08
36.53
37.63
37.55
36.38
34.20
31.16
27.50
23.64
19.97
16.79
14.18
12.05
10.10
8.02
5.52
2.40
-1.40
-5.76
-10.43
-15.06
-19.37
-23.29
-27.01
-30.94
-35.55
-41.07
-47.33
-53.68
-59.11
-62.49
-62.91
-59.96
-53.82
-45.23
-35.24
-24.87
-14.90
-5.69
2.73
10.45
17.56
24.01
29.58
34.01
37.10
38.80
39.15
38.34
36.59
34.16
31.31
28.34
25.59
23.27
21.43
19.86
18.16
15.87
12.66
8.48
3.55
-1.73
-6.94
-11.81
-16.28
-20.48
-24.65
-29.06
-33.99
-39.57
-45.73
-52.03
-57.71
-61.75
-63.22
-61.52
-56.64
-49.10
-39.80
-29.68
-19.50
-9.70
-0.43
8.24
16.21
23.32
29.30
33.91
37.02
38.70
39.12
38.56
37.23
35.31
32.93
30.20
27.31
24.49
21.95
19.79
17.99
16.38
14.64
12.47
9.61
5.96
1.61
-3.12
-7.87
-12.33
-16.42
-20.35
-24.55
-29.45
-35.27
-41.85
-48.55
-54.41
-58.34
-59.48
-57.41
-52.31
-44.84
-35.86
-26.21
-16.47
-6.97
2.07
10.44
17.91
24.26
29.36
33.28
36.16
38.12
39.17
39.24
38.25
36.26
33.53
30.44
27.41
24.71
22.42
20.39
18.40
16.24
13.74
10.88
7.67
4.16
0.43
-3.49
-7.51
-11.58
-15.73
-20.02
-24.62
-29.74
-35.46
-41.57
-47.51
-52.38
-55.20
-55.21
-52.14
-46.33
-38.57
-29.81
-20.88
-12.26
-4.15
3.36
10.27
16.50
21.94
26.49
30.02
32.40
33.53
33.39
32.10
29.97
27.39
24.75
22.32
20.22
18.45
16.92
15.47
13.87
11.88
9.28
5.97
2.05
-2.27
-6.70
-11.01
-15.13
-19.18
-23.40
-28.10
-33.50
-39.63
-46.20
-52.54
-57.76
-60.95
-61.46
-59.20
-54.60
-48.51
-41.87
-35.35
-29.23
-23.37
-17.49
-11.37
-5.04
1.23
7.07
12.09
15.89
18.05
18.03
15.33
9.71
1.47
-8.45
-18.59
-27.30
-33.06
-34.72
-31.70
-24.14
-13.06
-0.26
11.94
21.34
26.56
27.41
24.75
19.93
14.14
7.98
1.50
-5.43
-12.85
-20.55
-28.19
-35.37
-41.64
-46.44
-49.04
-48.83
-45.47
-39.11
-30.35
-19.99
-8.73
2.88
14.49
25.87
36.83
47.32
57.39
67.12
76.53
85.50
93.86
101.50
108.37
114.24
118.53
120.18
118.04
111.39
100.63
87.34
73.77
62.04
53.22
47.14
42.74
38.73
34.23
28.89
22.65
15.33
6.52
-4.09
-16.15
-28.32
-38.28
-43.56
-42.41
-34.60
-21.59
-5.96
9.44
22.36
31.48
36.28
36.77
33.09
25.64
15.17
3.04
-8.95
-18.95
-25.59
-28.47
-28.08
-25.50
-21.95
-18.36
-15.28
-12.96
-11.41
-10.52
-9.90
-8.74
-5.85
0.13
10.21
24.62
42.48
61.97
80.72
96.42
107.19
111.80
109.69
100.91
86.37
68.03
48.86
32.33
21.60
18.44
22.74
32.55
44.87
56.64
65.43
69.68
68.52
61.46
48.32
29.45
6.03
-19.85
-45.52
-68.37
-86.60
-99.55
-107.62
-111.88
-113.39
-112.88
-110.66
-106.87
-101.83
-96.16
-90.66
-85.92
-82.07
-78.66
-75.00
-70.53
-65.15
-59.31
-53.77
-49.30
-46.39
-45.23
-45.62
-47.15
-49.29
-51.39
-52.79
-52.90
-51.27
-47.73
-42.42
-35.72
-28.22
-20.52
-13.11
-6.31
-0.24
5.09
9.68
13.46
16.29
18.01
18.53
17.98
16.68
15.01
13.25
11.51
9.65
7.45
4.77
1.71
-1.44
-4.27
-6.51
-8.11
-9.31
-10.55
-12.24
-14.59
-17.55
-20.79
-23.89
-26.53
-28.55
-30.12
-31.63
-33.55
-36.29
-39.96
-44.21
-48.19
-50.59
-50.00
-45.33
-36.20
-23.19
-7.65
8.58
23.78
36.77
46.98
54.46
59.51
62.52
63.79
63.59
62.15
59.72
56.52
52.68
48.23
43.16
37.51
31.38
25.04
18.86
13.14
8.05
3.51
-0.79
-5.28
-10.27
-15.87
-21.94
-28.15
-34.14
-39.64
-44.61
-49.20
-53.69
-58.39
-63.45
-68.58
-72.99
-75.34
-74.10
-68.07
-56.92
-41.57
-23.96
-6.44
9.00
21.38
30.83
38.20
44.41
49.92
54.56
57.80
59.17
58.59
56.47
53.49
50.22
46.92
43.45
39.46
34.64
29.01
22.83
16.53
10.42
4.58
-1.16
-7.06
-13.31
-19.90
-26.60
-33.04
-38.88
-43.88
-47.91
-51.00
-53.22
-54.74
-55.71
-56.35
-56.83
-57.25
-57.68
-58.10
-58.41
-58.47
-58.05
-56.82
-54.35
-50.08
-43.63
-34.96
-24.69
-14.05
-4.53
2.59
6.90
8.89
9.78
10.93
13.23
17.07
22.47
29.57
38.76
50.38
64.22
79.04
92.78
103.14
108.52
108.53
103.95
96.27
86.88
76.77
66.40
56.04
46.00
36.67
28.33
21.01
14.40
8.06
1.66
-4.85
-11.12
-16.67
-21.14
-24.61
-27.66
-31.24
-36.24
-42.99
-51.09
-59.44
-66.63
-71.43
-73.20
-71.98
-68.40
-63.40
-57.92
-52.66
-47.87
-43.39
-38.86
-34.04
-29.08
-24.67
-21.64
-20.52
-21.15
-22.62
-23.75
-23.73
-22.50
-20.75
-19.44
-19.23
-20.13
-21.73
-23.46
-25.04
-26.52
-28.14
-30.11
-32.54
-35.50
-39.12
-43.61
-49.08
-55.36
-62.01
-68.55
-74.72
-80.68
-86.90
-93.77
-101.29
-108.86
-115.49
-120.03
-121.53
-119.28
-112.85
-102.14
-87.48
-69.85
-50.77
-31.97
-14.72
0.68
14.95
29.32
44.71
61.03
77.11
91.11
101.33
106.87
107.82
105.04
99.72
93.10
86.26
80.12
75.43
72.61
71.62
71.91
72.55
72.47
70.76
66.90
60.82
52.83
43.52
33.48
23.27
13.24
3.62
-5.55
-14.29
-22.71
-30.85
-38.69
-46.01
-52.39
-57.24
-59.91
-59.82
-56.62
-50.28
-41.09
-29.64
-16.71
-3.11
10.42
23.26
34.87
44.78
52.56
57.91
60.82
61.63
60.94
59.53
58.04
56.85
56.04
55.48
55.00
54.50
53.89
53.06
51.76
49.67
46.44
41.87
35.99
29.11
21.70
14.29
7.35
1.08
-4.61
-10.13
-16.04
-22.88
-30.87
-39.74
-48.69
-56.52
-61.95
-63.99
-62.16
-56.63
-48.10
-37.60
-26.14
-14.47
-3.03
8.07
18.79
29.02
38.47
46.68
53.18
57.72
60.35
61.37
61.20
60.18
58.52
56.27
53.51
50.40
47.18
44.12
41.40
38.95
36.55
33.82
30.41
26.11
20.96
15.21
9.24
3.42
-2.06
-7.24
-12.43
-18.06
-24.49
-31.94
-40.23
-48.86
-56.92
-63.27
-66.77
-66.61
-62.52
-54.89
-44.65
-32.95
-20.87
-9.15
1.86
12.09
21.57
30.27
38.09
44.82
50.30
54.44
57.22
58.70
58.99
58.26
56.67
54.43
51.77
48.96
46.20
43.64
41.20
38.66
35.69
32.00
27.49
22.28
16.64
10.88
5.23
-0.24
-5.60
-11.02
-16.77
-23.13
-30.38
-38.64
-47.70
-56.85
-64.96
-70.67
-72.82
-70.79
-64.74
-55.45
-44.10
-31.80
-19.37
-7.26
4.33
15.29
25.40
34.39
41.92
47.78
51.92
54.47
55.65
55.76
55.01
53.56
51.55
49.10
46.41
43.68
41.10
38.76
36.61
34.44
31.96
28.85
24.90
20.07
14.52
8.59
2.69
-2.86
-7.99
-12.88
-17.97
-23.82
-30.80
-38.98
-47.94
-56.76
-64.20
-69.00
-70.19
-67.36
-60.76
-51.18
-39.65
-27.18
-14.53
-2.17
9.58
20.51
30.34
38.78
45.58
50.63
53.98
55.87
56.63
56.53
55.70
54.16
51.84
48.81
45.34
41.87
38.81
36.35
34.31
32.24
29.66
26.26
22.00
17.06
11.70
6.13
0.51
-5.07
-10.47
-15.68
-20.78
-26.06
-31.90
-38.59
-46.04
-53.61
-60.22
-64.61
-65.69
-62.98
-56.68
-47.59
-36.79
-25.33
-13.95
-3.10
7.01
16.26
24.51
31.61
37.42
41.86
44.90
46.59
47.03
46.39
44.87
42.71
40.15
37.37
34.54
31.81
29.31
27.09
25.07
23.02
20.61
17.53
13.62
8.97
3.92
-1.12
-5.81
-10.15
-14.41
-19.13
-24.83
-31.80
-39.84
-48.22
-55.81
-61.33
-63.70
-62.32
-57.27
-49.15
-38.91
-27.57
-15.99
-4.78
5.69
15.17
23.48
30.46
35.97
39.95
42.47
43.69
43.83
43.11
41.68
39.69
37.24
34.51
31.72
29.06
26.64
24.40
22.11
19.44
16.11
12.04
7.33
2.28
-2.76
-7.55
-12.03
-16.38
-20.99
-26.27
-32.55
-39.82
-47.69
-55.35
-61.69
-65.60
-66.21
-63.19
-56.83
-47.92
-37.51
-26.55
-15.73
-5.41
4.31
13.33
21.55
28.75
34.71
39.28
42.47
44.37
45.14
44.92
43.85
42.06
39.71
37.04
34.29
31.69
29.39
27.32
25.26
22.85
19.73
15.71
10.85
5.45
-0.05
-5.27
-10.03
-14.42
-18.83
-23.72
-29.53
-36.45
-44.28
-52.37
-59.64
-64.91
-67.16
-65.84
-61.04
-53.38
-43.80
-33.26
-22.49
-11.92
-1.73
8.00
17.20
25.71
33.28
39.60
44.39
47.53
49.09
49.34
48.65
47.32
45.53
43.35
40.78
37.84
34.72
31.61
28.70
26.02
23.42
20.63
17.37
13.47
8.92
3.91
-1.31
-6.46
-11.38
-16.09
-20.78
-25.74
-31.31
-37.71
-44.93
-52.61
-59.99
-66.02
-69.62
-70.00
-66.92
-60.71
-52.11
-41.99
-31.14
-20.10
-9.21
1.31
11.24
20.34
28.31
34.93
39.98
43.39
45.24
45.77
45.31
44.23
42.78
41.10
39.19
37.04
34.74
32.43
30.28
28.38
26.60
24.64
22.11
18.71
14.36
9.29
3.92
-1.27
-5.97
-10.19
-14.24
-18.52
-23.42
-29.08
-35.49
-42.45
-49.61
-56.46
-62.27
-66.18
-67.35
-65.32
-60.10
-52.24
-42.63
-32.17
-21.51
-10.99
-0.74
9.16
18.49
26.89
33.99
39.49
43.30
45.53
46.45
46.38
45.61
44.31
42.52
40.29
37.66
34.85
32.13
29.79
27.92
26.34
24.65
22.40
19.24
15.14
10.32
5.18
0.10
-4.64
-8.96
-12.98
-16.92
-21.11
-25.88
-31.50
-38.04
-45.28
-52.56
-58.91
-63.23
-64.63
-62.71
-57.58
-49.86
-40.39
-30.00
-19.31
-8.76
1.36
10.81
19.33
26.63
32.46
36.69
39.34
40.57
40.64
39.87
38.51
36.74
34.69
32.44
30.10
27.83
25.75
23.92
22.32
20.76
18.94
16.58
13.42
9.37
4.61
-0.55
-5.72
-10.63
-15.22
-19.72
-24.56
-30.19
-36.85
-44.42
-52.29
-59.49
-64.84
-67.32
-66.34
-61.86
-54.43
-44.92
-34.30
-23.38
-12.70
-2.56
6.95
15.74
23.73
30.77
36.65
41.17
44.16
45.59
45.61
44.50
42.64
40.42
38.10
35.85
33.73
31.73
29.82
27.90
25.82
23.38
20.37
16.68
12.32
7.43
2.28
-2.82
-7.64
-12.07
-16.21
-20.41
-25.16
-30.89
-37.83
-45.73
-53.88
-61.25
-66.65
-69.15
-68.23
-63.95
-56.83
-47.72
-37.51
-26.91
-16.39
-6.07
4.01
13.78
22.96
31.11
37.77
42.62
45.67
47.21
47.66
47.39
46.56
45.18
43.20
40.67
37.81
34.94
32.34
30.08
28.01
25.83
23.24
20.04
16.14
11.64
6.72
1.60
-3.48
-8.32
-12.78
-16.89
-20.85
-25.07
-29.99
-35.99
-43.07
-50.74
-58.04
-63.76
-66.75
-66.35
-62.46
-55.60
-46.62
-36.42
-25.75
-15.10
-4.79
4.95
13.95
22.03
29.10
35.08
39.91
43.54
45.93
47.15
47.32
46.66
45.39
43.66
41.55
39.11
36.42
33.65
31.03
28.70
26.65
24.61
22.23
19.13
15.15
10.39
5.13
-0.25
-5.46
-10.32
-14.85
-19.18
-23.59
-28.45
-34.14
-40.92
-48.70
-56.89
-64.40
-69.91
-72.20
-70.62
-65.19
-56.63
-46.02
-34.51
-22.98
-11.97
-1.69
7.86
16.71
24.81
31.99
37.99
42.59
45.65
47.26
47.63
47.06
45.81
44.02
41.78
39.23
36.54
33.97
31.70
29.74
27.93
25.87
23.21
19.73
15.48
10.72
5.87
1.27
-2.95
-6.81
-10.57
-14.47
-18.72
-23.44
-28.73
-34.70
-41.35
-48.45
-55.37
-61.16
-64.66
-64.97
-61.76
-55.38
-46.71
-36.80
-26.55
-16.46
-6.74
2.60
11.46
19.65
26.84
32.71
37.10
39.99
41.55
42.01
41.58
40.41
38.63
36.32
33.70
31.05
28.66
26.71
25.18
23.79
22.10
19.72
16.38
12.11
7.17
2.01
-2.91
-7.31
-11.14
-14.64
-18.18
-22.19
-27.05
-32.90
-39.67
-46.91
-53.87
-59.56
-62.97
-63.33
-60.35
-54.27
-45.80
-35.87
-25.31
-14.75
-4.55
5.14
14.18
22.39
29.52
35.33
39.61
42.31
43.50
43.39
42.27
40.44
38.17
35.67
33.06
30.45
27.94
25.64
23.57
21.62
19.51
16.85
13.31
8.79
3.47
-2.21
-7.78
-12.93
-17.68
-22.35
-27.40
-33.24
-40.05
-47.67
-55.57
-62.88
-68.54
-71.53
-71.11
-67.06
-59.78
-50.10
-39.06
-27.58
-16.29
-5.47
4.79
14.44
23.33
31.21
37.81
42.95
46.59
48.82
49.77
49.58
48.36
46.20
43.28
39.88
36.34
32.96
29.93
27.26
24.81
22.30
19.43
15.90
11.59
6.52
0.94
-4.79
-10.30
-15.39
-20.12
-24.85
-30.04
-36.12
-43.21
-51.04
-58.89
-65.72
-70.35
-71.80
-69.59
-63.85
-55.30
-45.00
-33.97
-22.93
-12.20
-1.83
8.21
17.81
26.75
34.69
41.35
46.57
50.32
52.66
53.66
53.44
52.10
49.84
46.90
43.61
40.28
37.23
34.60
32.38
30.40
28.35
25.85
22.59
18.36
13.19
7.31
1.13
-4.88
-10.39
-15.28
-19.74
-24.21
-29.21
-35.21
-42.39
-50.54
-58.99
-66.69
-72.38
-74.97
-73.80
-68.89
-60.89
-50.82
-39.75
-28.48
-17.42
-6.68
3.72
13.70
23.04
31.37
38.35
43.73
47.44
49.62
50.53
50.48
49.73
48.46
46.76
44.69
42.31
39.77
37.23
34.83
32.59
30.36
27.90
24.90
21.20
16.76
11.72
6.36
0.96
-4.28
-9.28
-14.09
-18.84
-23.73
-28.97
-34.80
-41.38
-48.67
-56.33
-63.59
-69.38
-72.59
-72.42
-68.62
-61.60
-52.20
-41.41
-30.10
-18.82
-7.91
2.51
12.34
21.45
29.69
36.85
42.73
47.12
49.89
51.08
50.91
49.72
47.91
45.81
43.66
41.57
39.59
37.72
35.92
34.11
32.15
29.87
27.07
23.62
19.45
14.60
9.27
3.76
-1.60
-6.56
-11.03
-15.10
-19.06
-23.20
-27.82
-33.13
-39.27
-46.25
-53.77
-61.14
-67.32
-71.08
-71.43
-67.95
-60.94
-51.28
-40.14
-28.57
-17.25
-6.47
3.71
13.30
22.21
30.19
36.91
42.06
45.46
47.15
47.40
46.64
45.33
43.79
42.13
40.31
38.25
35.93
33.51
31.15
28.94
26.80
24.43
21.51
17.82
13.34
8.31
3.05
-2.12
-7.02
-11.67
-16.15
-20.63
-25.27
-30.29
-35.87
-42.12
-48.88
-55.61
-61.37
-65.06
-65.69
-62.80
-56.57
-47.76
-37.45
-26.60
-15.90
-5.65
4.10
13.30
21.80
29.22
35.16
39.25
41.38
41.75
40.85
39.28
37.52
35.83
34.22
32.51
30.57
28.42
26.24
24.24
22.54
20.98
19.26
16.99
13.88
9.88
5.12
-0.07
-5.38
-10.55
-15.51
-20.37
-25.41
-31.02
-37.52
-44.99
-53.10
-61.07
-67.79
-72.08
-73.05
-70.34
-64.19
-55.37
-44.85
-33.55
-22.12
-10.95
-0.22
9.95
19.37
27.80
34.93
40.58
44.66
47.25
48.55
48.84
48.36
47.27
45.66
43.57
41.06
38.18
35.09
31.93
28.86
25.93
23.10
20.18
16.95
13.23
8.95
4.22
-0.71
-5.58
-10.19
-14.56
-18.88
-23.52
-28.86
-35.19
-42.50
-50.43
-58.20
-64.77
-69.06
-70.23
-67.94
-62.37
-54.17
-44.21
-33.32
-22.21
-11.30
-0.84
9.05
18.26
26.67
34.07
40.20
44.81
47.75
49.09
49.04
48.00
46.34
44.39
42.35
40.32
38.38
36.51
34.69
32.82
30.76
28.29
25.23
21.39
16.73
11.37
5.59
-0.23
-5.70
-10.61
-14.96
-19.00
-23.11
-27.68
-33.06
-39.40
-46.61
-54.27
-61.60
-67.55
-71.04
-71.26
-67.96
-61.47
-52.59
-42.26
-31.29
-20.28
-9.56
0.66
10.17
18.77
26.30
32.64
37.76
41.63
44.27
45.69
45.97
45.25
43.73
41.63
39.18
36.65
34.23
32.10
30.28
28.60
26.77
24.37
21.10
16.89
11.91
6.58
1.33
-3.54
-7.99
-12.29
-16.84
-22.03
-28.06
-34.90
-42.24
-49.56
-56.20
-61.38
-64.34
-64.44
-61.34
-55.17
-46.48
-36.18
-25.19
-14.29
-3.87
6.01
15.49
24.78
34.01
43.20
52.27
61.07
69.43
77.04
83.57
88.70
92.31
94.62
96.15
97.56
99.42
101.90
104.79
107.53
109.51
110.24
109.60
107.75
105.13
102.14
98.90
95.06
89.73
81.68
69.85
53.94
34.80
14.57
-3.79
-17.29
-23.80
-22.65
-14.74
-2.14
12.70
27.69
41.61
54.27
66.22
78.24
90.81
103.63
115.51
124.52
128.45
125.40
114.35
95.32
69.30
37.98
3.39
-32.29
-66.81
-98.01
-124.12
-144.13
-158.20
-167.62
-174.40
-180.66
-187.90
-196.68
-206.64
-216.84
-226.19
-233.66
-238.45
-240.00
-238.06
-232.72
-224.48
-214.22
-202.98
-191.74
-181.07
-170.98
-160.90
-149.91
-137.00
-121.58
-103.60
-83.62
-62.55
-41.38
-20.93
-1.68
16.12
32.44
47.17
60.15
71.14
79.89
86.24
90.23
92.10
92.15
90.79
88.36
85.20
81.61
77.90
74.30
70.89
67.57
64.06
60.01
55.17
49.45
42.98
36.02
28.87
21.78
14.90
8.33
2.02
-4.12
-10.27
-16.66
-23.48
-30.87
-38.80
-47.02
-54.96
-61.77
-66.38
-67.81
-65.44
-59.23
-49.73
-37.94
-25.01
-11.96
0.50
11.94
22.06
30.64
37.47
42.41
45.54
47.19
47.89
48.17
48.39
48.58
48.50
47.82
46.38
44.29
41.94
39.81
38.22
37.18
36.37
35.30
33.54
30.87
27.44
23.66
20.03
16.97
14.63
12.89
11.47
10.05
8.39
6.36
4.00
1.54
-0.52
-1.37
0.10
4.99
14.11
27.66
45.14
65.48
87.33
109.38
130.61
150.37
168.37
184.57
198.98
211.49
221.69
228.71
231.35
228.28
218.41
201.29
177.33
147.82
114.77
80.50
47.22
16.53
-10.85
-35.27
-57.90
-80.30
-103.72
-128.52
-153.73
-177.16
-195.91
-207.25
-209.42
-202.16
-186.74
-165.52
-141.30
-116.71
-93.77
-73.79
-57.37
-44.58
-35.03
-28.07
-22.93
-19.02
-16.18
-14.79
-15.52
-19.00
-25.20
-33.20
-41.20
-46.99
-48.58
-44.91
-36.25
-24.13
-10.96
0.70
8.86
12.45
11.43
6.43
-1.73
-12.44
-25.54
-41.24
-59.81
-81.22
-104.90
-129.66
-153.89
-175.82
-193.88
-206.99
-214.79
-217.58
-216.23
-211.91
-205.88
-199.30
-193.12
-187.98
-184.09
-181.12
-178.08
-173.40
-165.35
-152.44
-134.08
-110.79
-84.14
-56.29
-29.29
-4.61
17.05
35.57
51.07
63.56
72.90
78.95
81.70
81.40
78.58
73.96
68.25
62.18
56.42
51.53
47.88
45.64
44.73
44.87
45.67
46.73
47.58
47.81
47.08
45.24
42.41
38.93
35.28
31.80
28.55
25.27
21.52
16.86
11.06
4.08
-3.98
-12.94
-22.49
-32.07
-40.73
-47.21
-50.28
-49.07
-43.45
-34.03
-21.92
-8.38
5.56
19.30
32.61
45.41
57.61
68.95
79.09
87.60
94.14
98.53
100.82
101.27
100.29
98.37
95.97
93.42
90.91
88.45
86.03
83.52
80.79
77.74
74.28
70.36
66.00
61.27
56.27
51.12
45.86
40.51
35.02
29.34
23.44
17.38
11.23
5.07
-1.17
-7.66
-14.68
-22.42
-30.77
-39.22
-46.82
-52.44
-55.17
-54.63
-51.09
-45.35
-38.46
-31.28
-24.28
-17.46
-10.61
-3.51
3.80
10.96
17.43
22.76
26.74
29.56
31.66
33.49
35.34
37.21
38.86
40.00
40.48
40.30
39.64
38.65
37.39
35.74
33.51
30.56
26.84
22.46
17.63
12.61
7.57
2.62
-2.28
-7.23
-12.45
-18.16
-24.62
-32.02
-40.39
-49.38
-58.27
-65.90
-71.02
-72.55
-69.94
-63.31
-53.39
-41.28
-28.12
-14.86
-2.11
9.87
20.99
31.20
40.35
48.20
54.45
58.92
61.62
62.81
62.87
62.20
61.12
59.70
57.96
55.90
53.61
51.28
49.12
47.19
45.34
43.24
40.44
36.64
31.78
26.12
20.14
14.34
9.03
4.20
-0.43
-5.31
-10.86
-17.35
-24.85
-33.24
-42.12
-50.84
-58.46
-63.86
-66.04
-64.44
-59.13
-50.80
-40.54
-29.41
-18.18
-7.23
3.34
13.47
22.97
31.51
38.74
44.41
48.52
51.26
52.90
53.67
53.72
53.12
51.89
50.08
47.84
45.37
42.87
40.53
38.36
36.19
33.68
30.48
26.34
21.22
15.35
9.16
3.14
-2.35
-7.14
-11.44
-15.67
-20.35
-25.96
-32.77
-40.67
-49.18
-57.41
-64.27
-68.65
-69.78
-67.32
-61.50
-53.02
-42.77
-31.64
-20.37
-9.41
0.96
10.57
19.24
26.81
33.05
37.78
40.95
42.62
42.99
42.42
41.26
39.80
38.22
36.60
34.97
33.37
31.81
30.24
28.49
26.27
23.32
19.48
14.81
9.57
4.10
-1.23
-6.27
-11.05
-15.83
-20.98
-26.90
-33.76
-41.41
-49.26
-56.31
-61.42
-63.57
-62.18
-57.29
-49.54
-39.89
-29.40
-18.86
-8.75
0.73
9.55
17.61
24.77
30.84
35.69
39.28
41.69
43.07
43.53
43.15
42.01
40.22
37.96
35.45
32.93
30.54
28.25
25.90
23.21
19.90
15.80
10.93
5.51
-0.13
-5.65
-10.85
-15.76
-20.64
-25.86
-31.83
-38.76
-46.53
-54.60
-61.99
-67.51
-70.01
-68.82
-63.91
-55.97
-46.13
-35.53
-24.97
-14.80
-4.97
4.59
13.85
22.53
30.19
36.48
41.25
44.58
46.68
47.70
47.76
46.87
45.09
42.55
39.57
36.53
33.73
31.29
29.08
26.77
23.98
20.42
16.05
11.03
5.65
0.21
-5.09
-10.21
-15.23
-20.40
-26.03
-32.43
-39.72
-47.71
-55.78
-62.91
-67.95
-69.89
-68.25
-63.18
-55.38
-45.86
-35.59
-25.26
-15.19
-5.49
3.83
12.69
20.87
28.13
34.28
39.17
42.78
45.09
46.15
46.03
44.87
42.87
40.35
37.63
35.05
32.84
31.08
29.64
28.18
26.24
23.41
19.46
14.45
8.76
2.91
-2.62
-7.60
-12.11
-16.52
-21.35
-27.03
-33.79
-41.50
-49.70
-57.54
-63.97
-67.94
-68.67
-65.91
-59.99
-51.73
-42.14
-32.11
-22.18
-12.54
-3.14
6.05
14.91
23.14
30.32
36.05
40.11
42.52
43.53
43.50
42.76
41.53
39.91
37.96
35.79
33.59
31.60
29.94
28.52
27.03
25.06
22.25
18.44
13.76
8.57
3.32
-1.58
-5.89
-9.64
-13.12
-16.81
-21.18
-26.58
-33.04
-40.30
-47.70
-54.34
-59.18
-61.31
-60.18
-55.75
-48.56
-39.51
-29.58
-19.60
-10.00
-0.92
7.70
15.85
23.37
29.96
35.34
39.35
42.04
43.63
44.37
44.45
43.96
42.90
41.26
39.14
36.71
34.22
31.90
29.84
27.97
26.04
23.73
20.77
17.06
12.69
7.96
3.23
-1.24
-5.38
-9.36
-13.46
-17.97
-23.10
-28.87
-35.23
-41.97
-48.71
-54.85
-59.53
-61.89
-61.29
-57.59
-51.24
-43.11
-34.15
-25.11
-16.32
-7.77
0.66
9.00
17.05
24.37
30.52
35.18
38.28
40.02
40.72
40.72
40.21
39.29
37.94
36.19
34.08
31.74
29.34
26.95
24.57
22.06
19.24
15.95
12.12
7.82
3.32
-1.01
-4.90
-8.21
-11.14
-14.08
-17.51
-21.81
-27.09
-33.24
-39.95
-46.75
-53.05
-58.09
-61.11
-61.46
-58.84
-53.42
-45.86
-37.07
-27.89
-18.90
-10.31
-2.09
5.85
13.46
20.46
26.46
31.12
34.28
36.02
36.65
36.53
35.95
35.05
33.86
32.36
30.62
28.76
26.96
25.32
23.88
22.51
21.01
19.10
16.58
13.32
9.39
5.02
0.57
-3.59
-7.32
-10.66
-13.92
-17.51
-21.84
-27.10
-33.28
-40.04
-46.78
-52.66
-56.78
-58.39
-57.07
-52.86
-46.29
-38.20
-29.45
-20.77
-12.54
-4.87
2.35
9.24
15.82
21.93
27.24
31.39
34.12
35.43
35.52
34.80
33.66
32.37
31.02
29.54
27.88
26.03
24.10
22.25
20.51
18.80
16.87
14.46
11.43
7.84
3.93
0.03
-3.63
-7.01
-10.27
-13.64
-17.37
-21.63
-26.51
-32.02
-38.05
-44.23
-49.92
-54.22
-56.23
-55.35
-51.47
-45.10
-37.09
-28.41
-19.79
-11.62
-3.92
3.41
10.46
17.13
23.15
28.16
31.85
34.16
35.23
35.41
35.07
34.49
33.75
32.84
31.69
30.31
28.77
27.12
25.39
23.44
21.09
18.21
14.75
10.84
6.68
2.53
-1.42
-5.07
-8.48
-11.81
-15.32
-19.26
-23.87
-29.23
-35.23
-41.42
-47.10
-51.31
-53.18
-52.10
-47.99
-41.36
-33.10
-24.25
-15.62
-7.62
-0.28
6.54
12.93
18.79
23.83
27.73
30.31
31.62
31.92
31.59
30.98
30.24
29.33
28.17
26.70
25.01
23.31
21.82
20.59
19.43
17.99
15.89
12.95
9.26
5.18
1.11
-2.68
-6.11
-9.36
-12.68
-16.34
-20.55
-25.42
-30.88
-36.67
-42.25
-46.84
-49.60
-49.88
-47.46
-42.59
-35.91
-28.24
-20.26
-12.46
-5.08
1.72
7.82
13.05
17.23
20.28
22.20
23.13
23.35
23.15
22.77
22.38
21.96
21.45
20.77
19.92
18.94
17.89
16.73
15.29
13.33
10.62
7.17
3.18
-0.96
-4.92
-8.49
-11.73
-14.91
-18.35
-22.34
-27.02
-32.35
-37.99
-43.32
-47.50
-49.64
-49.10
-45.71
-39.85
-32.36
-24.16
-16.02
-8.32
-1.13
5.60
11.81
17.29
21.70
24.81
26.59
27.30
27.29
26.91
26.37
25.67
24.73
23.46
21.84
19.98
18.00
15.97
13.89
11.63
9.04
6.04
2.65
-1.03
-4.84
-8.66
-12.47
-16.34
-20.43
-24.97
-30.19
-36.20
-42.84
-49.63
-55.73
-60.12
-61.87
-60.47
-55.97
-48.93
-40.26
-30.86
-21.45
-12.44
-3.97
3.91
11.21
17.85
23.75
28.78
32.84
35.85
37.77
38.61
38.46
37.43
35.71
33.52
31.14
28.85
26.87
25.26
23.91
22.50
20.62
17.91
14.24
9.75
4.83
-0.08
-4.69
-8.95
-13.12
-17.63
-22.95
-29.34
-36.69
-44.41
-51.54
-56.96
-59.65
-59.08
-55.25
-48.71
-40.35
-31.11
-21.72
-12.63
-4.01
4.15
11.86
19.16
25.92
31.97
37.05
40.89
43.35
44.44
44.35
43.36
41.84
40.04
38.16
36.30
34.51
32.77
31.03
29.12
26.83
23.90
20.19
15.71
10.69
5.51
0.54
-4.02
-8.22
-12.37
-16.88
-22.13
-28.27
-35.08
-42.05
-48.42
-53.34
-56.07
-56.12
-53.37
-48.08
-40.76
-32.10
-22.77
-13.28
-4.08
4.57
12.43
19.32
25.06
29.53
32.69
34.58
35.32
35.14
34.31
33.10
31.71
30.22
28.66
27.00
25.22
23.32
21.27
19.01
16.41
13.31
9.61
5.32
0.60
-4.31
-9.16
-13.82
-18.36
-23.05
-28.24
-34.19
-40.89
-47.93
-54.50
-59.57
-62.20
-61.78
-58.24
-52.04
-43.97
-34.89
-25.48
-16.12
-6.90
2.21
11.14
19.64
27.25
33.48
37.99
40.74
42.01
42.25
41.88
41.19
40.20
38.84
37.07
34.96
32.71
30.49
28.41
26.28
23.82
20.71
16.79
12.14
7.03
1.82
-3.22
-8.00
-12.62
-17.33
-22.47
-28.31
-34.95
-42.12
-49.17
-55.10
-58.78
-59.35
-56.49
-50.54
-42.42
-33.18
-23.69
-14.32
-4.97
4.67
14.76
25.14
35.24
44.25
51.46
56.54
59.69
61.57
62.99
64.54
66.33
68.01
68.96
68.69
67.24
65.25
63.74
63.68
65.49
68.85
72.78
76.01
77.47
76.62
73.69
69.72
66.42
65.74
69.26
77.45
88.99
100.80
108.70
108.91
99.57
81.76
59.25
37.30
20.82
12.75
13.38
20.70
31.50
42.75
52.68
61.34
69.98
80.03
91.64
102.89
109.91
108.20
94.09
66.00
24.82
-26.25
-82.21
-136.89
-183.83
-217.71
-235.88
-239.27
-232.22
-221.02
-211.90
-209.23
-214.49
-226.30
-241.09
-253.87
-258.99
-251.28
-227.44
-187.22
-134.00
-74.09
-15.00
36.49
75.70
100.48
110.91
108.83
97.29
80.12
61.26
44.11
31.00
22.97
19.77
20.26
22.88
26.15
29.09
31.38
33.35
35.58
38.63
42.65
47.41
52.47
57.40
61.84
65.44
67.77
68.31
66.70
62.85
57.06
49.93
42.03
33.82
25.59
17.63
10.24
3.75
-1.74
-6.46
-10.93
-15.66
-20.90
-26.47
-31.92
-36.82
-41.02
-44.73
-48.26
-51.81
-55.39
-58.79
-61.81
-64.41
-66.59
-68.26
-69.03
-68.23
-65.18
-59.54
-51.53
-41.95
-31.93
-22.42
-14.01
-6.81
-0.62
4.85
9.72
13.92
17.25
19.59
21.00
21.76
22.23
22.73
23.40
24.09
24.54
24.51
23.93
22.92
21.65
20.21
18.48
16.22
13.15
9.18
4.44
-0.73
-5.93
-10.87
-15.39
-19.52
-23.41
-27.30
-31.42
-35.95
-40.84
-45.81
-50.23
-53.26
-54.11
-52.21
-47.49
-40.36
-31.63
-22.22
-12.89
-4.07
4.11
11.74
18.93
25.60
31.51
36.22
39.37
40.77
40.52
39.01
36.75
34.26
31.91
29.86
28.13
26.67
25.44
24.38
23.39
22.31
20.93
19.04
16.52
13.35
9.69
5.73
1.67
-2.37
-6.33
-10.28
-14.40
-18.90
-23.95
-29.52
-35.32
-40.75
-45.03
-47.42
-47.46
-45.04
-40.49
-34.40
-27.44
-20.20
-13.05
-6.16
0.48
6.88
12.98
18.66
23.64
27.63
30.42
31.92
32.23
31.58
30.23
28.45
26.42
24.26
22.02
19.73
17.38
14.96
12.41
9.67
6.69
3.51
0.19
-3.14
-6.41
-9.59
-12.74
-15.98
-19.47
-23.37
-27.78
-32.73
-38.13
-43.67
-48.89
-53.15
-55.79
-56.30
-54.47
-50.40
-44.53
-37.39
-29.51
-21.30
-13.01
-4.83
3.09
10.61
17.59
23.89
29.45
34.22
38.13
41.12
43.17
44.30
44.64
44.40
43.80
42.99
42.03
40.92
39.61
38.04
36.14
33.83
31.03
27.70
23.84
19.63
15.33
11.32
7.89
5.17
3.07
1.30
-0.46
-2.50
-5.00
-8.02
-11.53
-15.32
-19.06
-22.23
-24.32
-24.88
-23.71
-20.92
-16.88
-12.01
-6.64
-0.93
5.09
11.36
17.67
23.69
29.04
33.46
36.80
39.00
40.07
40.04
38.99
37.17
34.96
32.84
31.19
30.16
29.60
29.16
28.40
26.90
24.40
20.76
16.04
10.53
4.72
-0.90
-5.94
-10.30
-14.18
-17.93
-21.91
-26.26
-30.98
-35.82
-40.45
-44.39
-47.11
-48.11
-47.07
-43.98
-39.19
-33.30
-26.99
-20.79
-14.98
-9.56
-4.43
0.60
5.59
10.45
14.90
18.60
21.18
22.43
22.31
21.00
18.84
16.21
13.46
10.91
8.75
7.07
5.77
4.61
3.22
1.25
-1.50
-4.98
-8.95
-13.05
-16.98
-20.61
-23.96
-27.22
-30.58
-34.22
-38.22
-42.54
-46.97
-51.13
-54.47
-56.37
-56.31
-54.00
-49.58
-43.50
-36.40
-28.85
-21.26
-13.77
-6.39
0.83
7.70
13.89
19.00
22.73
24.94
25.74
25.38
24.18
22.49
20.58
18.63
16.78
15.10
13.61
12.32
11.15
9.98
8.58
6.77
4.43
1.63
-1.44
-4.51
-7.36
-9.96
-12.49
-15.22
-18.39
-22.14
-26.43
-31.08
-35.79
-40.17
-43.67
-45.72
-45.83
-43.71
-39.51
-33.66
-26.80
-19.51
-12.09
-4.62
2.99
10.72
18.40
25.64
32.04
37.23
41.03
43.40
44.42
44.24
43.02
41.00
38.41
35.51
32.55
29.71
27.14
24.91
22.98
21.18
19.30
17.09
14.35
11.01
7.17
3.08
-0.95
-4.66
-7.95
-10.92
-13.83
-17.04
-20.89
-25.57
-30.99
-36.78
-42.29
-46.75
-49.45
-49.91
-48.02
-43.98
-38.24
-31.29
-23.61
-15.57
-7.46
0.51
8.09
15.14
21.48
27.03
31.68
35.35
37.97
39.49
40.00
39.64
38.60
37.08
35.16
32.83
30.00
26.62
22.77
18.68
14.68
11.06
7.95
5.19
2.46
-0.58
-4.15
-8.20
-12.43
-16.43
-19.90
-22.75
-25.14
-27.40
-29.89
-32.89
-36.53
-40.76
-45.29
-49.65
-53.15
-55.05
-54.75
-52.03
-47.10
-40.52
-32.98
-25.03
-16.93
-8.72
-0.36
8.10
16.42
24.27
31.29
37.14
41.57
44.36
45.45
44.99
43.34
41.03
38.59
36.39
34.54
32.87
31.07
28.90
26.18
22.94
19.28
15.34
11.25
7.08
2.86
-1.37
-5.62
-9.86
-14.05
-18.16
-22.22
-26.35
-30.70
-35.48
-40.85
-46.89
-53.52
-60.46
-67.17
-72.92
-76.99
-78.84
-78.30
-75.55
-71.02
-65.15
-58.23
-50.33
-41.44
-31.55
-20.79
-9.46
2.06
13.35
24.04
33.78
42.38
49.78
56.13
61.77
67.03
72.13
77.08
81.67
85.62
88.67
90.62
91.32
90.61
88.26
84.13
78.29
71.09
63.09
54.97
47.22
40.01
33.18
26.33
19.00
10.84
1.72
-8.22
-18.52
-28.42
-36.96
-43.21
-46.53
-46.73
-44.20
-39.66
-33.93
-27.67
-21.18
-14.50
-7.60
-0.54
6.39
12.69
17.90
21.69
23.96
24.79
24.40
23.05
20.95
18.37
15.58
12.83
10.34
8.23
6.56
5.30
4.38
3.60
2.70
1.30
-0.92
-4.07
-7.97
-12.15
-16.10
-19.42
-22.05
-24.29
-26.63
-29.59
-33.52
-38.45
-44.07
-49.76
-54.71
-58.08
-59.27
-57.99
-54.35
-48.79
-41.87
-34.15
-26.04
-17.78
-9.46
-1.12
7.21
15.48
23.52
31.13
38.07
44.17
49.38
53.81
57.62
60.98
63.95
66.48
68.47
69.89
70.83
71.44
71.89
72.17
72.12
71.44
69.81
67.03
63.01
57.86
51.74
44.76
36.99
28.40
18.93
8.56
-2.64
-14.44
-26.35
-37.69
-47.52
-54.90
-59.07
-59.71
-57.03
-51.68
-44.53
-36.45
-28.05
-19.69
-11.51
-3.63
3.79
10.48
16.12
20.44
23.26
24.52
24.25
22.57
19.67
15.88
11.69
7.69
4.52
2.67
2.31
3.25
4.94
6.65
7.73
7.73
6.48
4.07
0.71
-3.23
-7.36
-11.28
-14.65
-17.30
-19.29
-20.97
-22.85
-25.43
-28.95
-33.22
-37.57
-41.04
-42.70
-41.93
-38.64
-33.27
-26.54
-19.25
-11.99
-5.17
0.92
5.93
9.48
11.29
11.36
10.08
8.07
5.92
3.90
1.82
-0.84
-4.60
-9.63
-15.64
-21.94
-27.78
-32.71
-36.71
-40.26
-44.30
-49.94
-58.43
-70.74
-87.27
-107.52
-129.94
-152.16
-171.53
-185.84
-193.97
-196.09
-193.52
-188.16
-181.79
-175.57
-169.71
-163.51
-155.79
-145.34
-131.45
-114.19
-94.43
-73.47
-52.63
-32.76
-14.04
3.91
21.74
39.91
58.24
75.78
91.01
102.36
108.73
109.97
106.84
100.82
93.56
86.45
80.19
74.73
69.37
62.88
54.08
42.28
27.93
13.10
1.44
-2.63
4.62
24.36
54.14
88.02
118.32
138.27
144.25
136.73
119.44
97.42
74.95
54.63
37.54
24.20
15.25
11.42
12.85
18.40
25.65
31.51
33.46
30.41
22.88
12.56
1.50
-8.57
-16.60
-22.04
-24.57
-23.92
-19.91
-12.73
-3.17
7.37
17.21
24.87
29.53
31.25
30.75
29.17
27.63
26.97
27.62
29.46
31.80
33.39
32.74
28.59
20.53
9.33
-3.22
-14.90
-24.01
-29.95
-33.48
-36.26
-40.16
-46.50
-55.57
-66.59
-78.02
-88.00
-94.83
-97.31
-95.03
-88.42
-78.54
-66.84
-54.80
-43.62
-34.14
-26.88
-22.11
-19.85
-19.83
-21.39
-23.55
-25.18
-25.27
-23.27
-19.21
-13.58
-7.17
-0.72
5.24
10.39
14.53
17.58
19.56
20.52
20.58
19.87
18.39
16.01
12.51
7.77
1.98
-4.23
-9.83
-13.68
-14.84
-12.87
-7.91
-0.57
8.30
17.78
27.05
35.42
42.29
47.16
49.71
49.92
48.10
44.92
41.27
38.01
35.72
34.57
34.25
34.14
33.60
32.19
29.85
26.88
23.82
21.10
19.02
17.67
17.04
17.15
17.99
19.54
21.61
23.72
25.18
25.17
23.14
19.03
13.48
7.73
3.29
1.45
2.91
7.51
14.48
22.72
31.29
39.71
47.94
56.16
64.51
72.81
80.58
87.21
92.19
95.28
96.60
96.49
95.38
93.61
91.32
88.53
85.18
81.22
76.72
71.83
66.76
61.68
56.58
51.25
45.32
38.34
30.01
20.33
9.71
-1.24
-11.73
-21.02
-28.52
-33.77
-36.49
-36.60
-34.20
-29.65
-23.47
-16.29
-8.70
-1.09
6.35
13.61
20.77
27.89
34.94
41.76
48.14
53.80
58.41
61.59
62.98
62.31
59.52
54.80
48.47
40.90
32.33
22.98
13.08
2.96
-6.88
-16.07
-24.45
-32.24
-39.84
-47.60
-55.56
-63.46
-70.90
-77.58
-83.42
-88.42
-92.54
-95.48
-96.84
-96.21
-93.47
-88.89
-83.04
-76.62
-70.22
-64.19
-58.71
-53.90
-49.89
-47.01
-45.66
-46.12
-48.42
-52.10
-56.30
-59.92
-61.91
-61.62
-58.97
-54.40
-48.69
-42.66
-36.91
-31.68
-26.86
-22.19
-17.42
-12.51
-7.66
-3.18
0.57
3.44
5.41
6.64
7.37
7.86
8.38
9.27
10.85
13.41
17.08
21.75
27.06
32.50
37.60
42.07
45.81
48.80
51.01
52.24
52.23
50.82
48.01
44.05
39.40
34.51
29.70
25.13
20.79
16.67
12.81
9.34
6.37
3.95
2.02
0.40
-1.12
-2.77
-4.73
-7.18
-10.32
-14.39
-19.53
-25.69
-32.50
-39.19
-44.78
-48.36
-49.40
-47.94
-44.60
-40.26
-35.80
-31.84
-28.58
-25.95
-23.68
-21.50
-19.24
-16.88
-14.51
-12.32
-10.51
-9.20
-8.36
-7.81
-7.22
-6.31
-4.93
-3.21
-1.52
-0.38
-0.14
-0.78
-1.82
-2.46
-1.94
0.05
3.17
6.55
9.18
10.46
10.45
9.83
9.47
9.89
11.08
12.60
14.08
15.50
17.25
19.98
24.31
30.90
40.76
55.47
76.71
105.20
139.33
174.61
204.44
222.20
223.80
209.28
182.68
150.28
118.09
90.03
67.43
49.92
36.69
27.36
21.81
19.48
18.79
17.25
12.33
2.64
-11.36
-27.55
-43.01
-55.41
-63.82
-68.80
-71.69
-73.80
-75.65
-76.91
-76.83
-74.68
-70.32
-64.10
-56.80
-49.23
-42.05
-35.66
-30.23
-25.80
-22.34
-19.83
-18.23
-17.50
-17.51
-18.11
-19.04
-20.05
-20.93
-21.54
-21.90
-22.08
-22.18
-22.29
-22.47
-22.82
-23.45
-24.52
-26.12
-28.32
-31.08
-34.31
-37.88
-41.56
-44.98
-47.65
-48.99
-48.51
-45.98
-41.51
-35.51
-28.55
-21.12
-13.59
-6.14
1.08
7.85
13.79
18.46
21.46
22.61
22.09
20.40
18.20
16.13
14.57
13.60
13.03
12.53
11.80
10.65
9.00
6.86
4.27
1.30
-1.93
-5.26
-8.56
-11.85
-15.27
-19.14
-23.67
-28.76
-33.87
-38.11
-40.53
-40.46
-37.75
-32.84
-26.51
-19.61
-12.76
-6.26
-0.20
5.47
10.74
15.50
19.60
22.84
25.09
26.28
26.49
25.89
24.76
23.42
22.06
20.78
19.49
18.05
16.34
14.32
12.07
9.67
7.19
4.61
1.83
-1.27
-4.76
-8.69
-13.09
-17.96
-23.24
-28.67
-33.69
-37.50
-39.28
-38.47
-35.00
-29.35
-22.33
-14.80
-7.38
-0.38
6.13
12.15
17.60
22.39
26.44
29.78
32.46
34.50
35.83
36.31
35.83
34.43
32.36
29.89
27.29
24.69
22.09
19.42
16.64
13.78
10.90
8.07
5.23
2.26
-1.06
-4.93
-9.55
-15.00
-21.27
-28.13
-35.13
-41.51
-46.38
-48.92
-48.61
-45.45
-39.96
-32.99
-25.47
-18.10
-11.21
-4.81
1.28
7.23
13.10
18.72
23.78
27.88
30.71
32.17
32.38
31.61
30.20
28.42
26.39
24.18
21.87
19.54
17.31
15.24
13.24
11.10
8.58
5.48
1.81
-2.24
-6.38
-10.33
-14.01
-17.57
-21.40
-25.87
-31.12
-36.92
-42.58
-47.19
-49.88
-50.11
-47.79
-43.28
-37.20
-30.21
-22.86
-15.51
-8.32
-1.37
5.28
11.52
17.14
21.90
25.60
28.13
29.53
29.99
29.75
29.04
28.04
26.90
25.78
24.80
24.05
23.46
22.88
22.03
20.68
18.71
16.14
13.07
9.66
6.04
2.29
-1.49
-5.25
-8.94
-12.61
-16.43
-20.68
-25.57
-31.11
-36.99
-42.52
-46.83
-49.08
-48.79
-46.00
-41.21
-35.23
-28.75
-22.29
-15.98
-9.80
-3.69
2.28
7.90
12.91
17.06
20.22
22.36
23.55
23.92
23.64
22.88
21.79
20.47
19.00
17.47
16.00
14.70
13.61
12.59
11.39
9.75
7.53
4.86
2.02
-0.66
-3.03
-5.13
-7.27
-9.83
-13.13
-17.34
-22.36
-27.79
-32.98
-37.11
-39.40
-39.34
-36.79
-32.13
-26.01
-19.19
-12.28
-5.62
0.71
6.73
12.42
17.67
22.25
25.90
28.44
29.81
30.15
29.68
28.68
27.38
25.95
24.47
23.02
21.62
20.27
18.90
17.40
15.55
13.17
10.17
6.63
2.76
-1.18
-5.01
-8.70
-12.36
-16.23
-20.49
-25.28
-30.55
-36.13
-41.65
-46.57
-50.22
-51.91
-51.12
-47.67
-41.86
-34.44
-26.40
-18.56
-11.42
-4.98
1.07
7.03
12.91
18.38
22.92
26.09
27.76
28.17
27.79
27.05
26.19
25.20
23.99
22.50
20.82
19.13
17.58
16.16
14.70
12.88
10.45
7.32
3.65
-0.26
-4.08
-7.60
-10.82
-13.97
-17.35
-21.20
-25.65
-30.67
-36.08
-41.52
-46.50
-50.29
-52.17
-51.53
-48.15
-42.33
-34.80
-26.49
-18.21
-10.45
-3.37
3.08
8.96
14.25
18.90
22.85
26.05
28.51
30.20
31.08
31.14
30.43
29.13
27.50
25.79
24.21
22.85
21.71
20.74
19.78
18.61
17.03
14.84
12.01
8.65
4.97
1.19
-2.58
-6.37
-10.36
-14.73
-19.63
-25.05
-30.79
-36.44
-41.44
-45.13
-46.96
-46.57
-43.88
-39.15
-32.82
-25.43
-17.50
-9.44
-1.59
5.76
12.33
17.87
22.20
25.27
27.15
28.01
28.05
27.42
26.27
24.75
23.05
21.41
19.99
18.87
18.01
17.19
16.17
14.69
12.63
9.95
6.76
3.28
-0.25
-3.65
-6.86
-10.06
-13.54
-17.64
-22.53
-28.14
-34.06
-39.61
-43.96
-46.38
-46.41
-43.97
-39.43
-33.45
-26.76
-20.00
-13.53
-7.47
-1.80
3.51
8.36
12.53
15.75
17.80
18.57
18.13
16.73
14.69
12.37
10.02
7.76
5.56
3.28
0.73
-2.23
-5.70
-9.71
-14.18
-18.97
-23.83
-28.46
-32.59
-36.07
-38.93
-41.48
-44.21
-47.58
-51.84
-56.75
-61.44
-64.52
-64.37
-59.60
-49.48
-34.17
-14.66
7.52
30.74
53.58
74.97
94.20
110.87
124.72
135.61
143.46
148.27
150.04
148.85
144.81
138.14
129.20
118.44
106.43
93.75
81.05
68.90
57.80
48.03
39.59
32.20
25.37
18.60
11.57
4.25
-3.12
-10.15
-16.51
-22.01
-26.72
-30.88
-34.82
-38.84
-43.15
-47.79
-52.57
-57.03
-60.51
-62.15
-61.23
-57.33
-50.54
-41.48
-31.09
-20.32
-9.82
0.09
9.41
18.17
26.32
33.69
40.05
45.23
49.17
51.90
53.47
53.89
53.18
51.47
49.05
46.38
43.92
41.95
40.33
38.40
35.20
29.71
21.29
9.99
-3.45
-17.80
-31.80
-44.51
-55.60
-65.28
-74.16
-82.95
-92.27
-102.50
-113.67
-125.36
-136.67
-146.21
-152.44
-153.96
-149.95
-140.48
-126.46
-109.41
-91.04
-72.80
-55.74
-40.40
-26.97
-15.42
-5.65
2.48
9.15
14.51
18.68
21.83
24.08
25.56
26.36
26.52
26.06
24.99
23.47
21.76
20.18
18.97
18.11
17.25
15.88
13.53
10.08
5.80
1.24
-3.04
-6.73
-9.91
-12.99
-16.49
-20.85
-26.30
-32.75
-39.81
-46.77
-52.72
-56.65
-57.71
-55.41
-49.81
-41.50
-31.40
-20.45
-9.41
1.30
11.58
21.43
30.84
39.59
47.32
53.57
57.95
60.28
60.68
59.50
57.21
54.29
51.08
47.71
44.18
40.49
36.72
33.03
29.58
26.30
22.85
18.73
13.48
6.98
-0.50
-8.35
-15.92
-22.84
-29.13
-35.13
-41.26
-47.87
-55.09
-62.83
-70.76
-78.36
-84.86
-89.41
-91.15
-89.52
-84.41
-76.27
-65.94
-54.47
-42.78
-31.48
-20.83
-10.81
-1.30
7.73
16.21
23.93
30.73
36.51
41.30
45.19
48.26
50.53
51.99
52.69
52.75
52.35
51.66
50.83
49.85
48.68
47.23
45.36
42.90
39.69
35.68
30.94
25.74
20.46
15.41
10.67
6.02
1.04
