1595526948.00
64.000000
-0.00
-0.00
-0.00
-0.00
-0.00
-0.00
-0.00
-0.00
-0.00
-0.00
0.00
0.01
0.01
-0.00
-0.03
-0.05
-0.05
0.00
0.13
0.36
0.66
1.01
1.37
1.72
2.06
2.40
2.79
3.24
3.80
4.42
5.06
5.66
6.20
6.68
7.15
7.68
8.31
9.14
10.09
11.04
11.88
12.56
13.14
13.76
14.65
15.96
17.91
20.32
22.90
25.38
27.58
29.57
31.68
34.32
37.81
42.54
48.15
54.10
59.83
64.97
69.58
74.14
79.34
85.71
93.76
103.00
112.62
121.73
129.77
136.75
143.30
150.75
157.77
166.64
177.95
191.79
206.97
220.57
228.25
225.36
208.53
176.87
132.76
80.05
23.07
-34.94
-92.44
-149.16
-205.23
-260.37
-313.74
-363.87
-409.83
-450.91
-486.50
-515.74
-537.23
-549.22
-549.96
-538.37
-514.21
-478.67
-433.88
-382.45
-327.02
-269.84
-212.63
-156.66
-102.95
-52.37
-5.90
35.58
71.43
101.35
125.50
144.38
158.69
169.15
176.37
180.75
182.57
182.07
179.51
175.23
169.65
163.18
156.15
148.81
141.30
133.69
126.02
118.33
110.69
103.16
95.80
88.68
81.83
75.25
68.95
62.95
57.25
51.86
46.78
42.03
37.59
33.45
29.61
26.07
22.81
19.83
17.11
14.67
12.48
10.54
8.84
7.35
6.07
4.97
4.04
3.26
2.63
2.11
1.68
1.33
1.02
0.74
0.48
0.25
0.07
-0.06
-0.14
-0.18
-0.20
-0.23
-0.30
-0.39
-0.48
-0.55
-0.57
-0.53
-0.47
-0.41
-0.43
-0.53
-0.70
-0.91
-1.07
-1.11
-1.04
-0.90
-0.83
-0.91
-1.23
-1.75
-2.34
-2.81
-3.00
-2.90
-2.63
-2.43
-2.57
-3.18
-4.20
-5.36
-6.29
-6.70
-6.51
-5.97
-5.51
-5.57
-6.41
-7.91
-9.64
-11.05
-11.71
-11.49
-10.68
-9.77
-9.29
-9.63
-10.99
-13.40
-16.53
-19.57
-21.14
-19.65
-13.86
-3.61
9.83
24.09
36.52
45.24
49.78
51.01
50.36
49.05
47.46
45.25
41.86
37.15
31.33
25.12
19.21
14.01
9.50
5.34
1.20
-2.99
-7.02
-10.42
-12.74
-13.73
-13.51
-12.53
-11.39
-10.60
-10.40
-10.75
-11.30
-11.57
-11.22
-10.23
-8.92
-7.74
-7.09
-7.06
-7.41
-7.69
-7.51
-6.76
-5.64
-4.52
-3.75
-3.47
-3.57
-3.77
-3.83
-3.66
-3.32
-2.94
-2.67
-2.57
-2.64
-2.82
-3.00
-3.09
-3.03
-2.77
-2.30
-1.67
-0.93
-0.25
0.18
0.19
-0.28
-1.19
-2.27
-3.16
-3.50
-3.09
-1.97
-0.41
1.25
2.87
4.26
5.39
6.34
7.25
8.18
9.04
9.68
9.93
9.79
9.38
8.96
8.73
8.76
8.93
8.99
8.74
8.12
7.27
6.40
5.75
5.46
5.49
5.64
5.68
5.42
4.79
3.85
2.69
1.48
0.27
-0.94
-2.19
-3.51
-4.82
-6.05
-7.04
-7.73
-8.13
-8.35
-8.56
-8.94
-9.67
-10.88
-12.61
-14.75
-16.99
-18.88
-19.92
-19.75
-18.31
-15.86
-12.88
-9.90
-7.27
-5.18
-3.54
-2.12
-0.68
0.98
2.92
5.09
7.30
9.31
10.88
11.84
12.18
12.07
11.77
11.52
11.43
11.42
11.33
10.98
10.39
9.72
9.20
8.97
8.94
8.86
8.38
7.36
5.87
4.24
2.82
1.85
1.36
1.18
1.14
1.06
0.83
0.36
-0.45
-1.67
-3.23
-4.93
-6.48
-7.62
-8.33
-8.78
-9.32
-10.25
-11.74
-13.73
-16.03
-18.36
-20.38
-21.77
-22.24
-21.58
-19.83
-17.21
-14.15
-11.09
-8.34
-5.99
-3.97
-2.13
-0.37
1.38
3.17
5.02
6.99
9.02
10.95
12.47
13.34
13.48
13.05
12.41
11.95
11.90
12.24
12.81
13.34
13.66
13.68
13.42
12.95
12.34
11.65
10.91
10.18
9.44
8.69
7.94
7.21
6.58
6.08
5.66
5.18
4.49
3.52
2.35
1.20
0.26
-0.40
-0.86
-1.26
-1.69
-2.15
-2.56
-2.91
-3.30
-3.92
-4.94
-6.34
-7.92
-9.45
-10.72
-11.77
-12.78
-13.98
-15.53
-17.35
-19.27
-21.04
-22.39
-23.11
-23.00
-21.96
-20.00
-17.32
-14.26
-11.23
-8.54
-6.31
-4.45
-2.78
-1.09
0.73
2.70
4.75
6.82
8.77
10.47
11.75
12.48
12.63
12.33
11.80
11.34
11.20
11.47
12.11
12.94
13.72
14.20
14.23
13.76
12.91
11.89
10.93
10.18
9.63
9.11
8.48
7.59
6.50
5.35
4.37
3.69
3.33
3.15
2.88
2.28
1.25
-0.08
-1.45
-2.58
-3.35
-3.83
-4.29
-4.97
-5.98
-7.21
-8.42
-9.39
-10.04
-10.51
-11.01
-11.77
-12.93
-14.45
-16.19
-17.92
-19.31
-20.05
-19.89
-18.71
-16.63
-13.90
-10.91
-7.99
-5.37
-3.17
-1.39
0.06
1.25
2.30
3.27
4.18
5.01
5.74
6.34
6.86
7.34
7.81
8.26
8.62
8.81
8.78
8.55
8.24
7.98
7.89
8.01
8.28
8.51
8.48
8.00
7.03
5.69
4.23
2.91
1.86
1.07
0.38
-0.40
-1.38
-2.59
-3.90
-5.18
-6.31
-7.33
-8.34
-9.52
-10.96
-12.68
-14.57
-16.46
-18.16
-19.52
-20.43
-20.73
-20.32
-19.11
-17.14
-14.62
-11.91
-9.41
-7.36
-5.84
-4.67
-3.62
-2.49
-1.24
0.05
1.26
2.31
3.16
3.86
4.49
5.08
5.63
6.06
6.27
6.16
5.66
4.84
3.81
2.71
1.70
0.79
-0.09
-1.09
-2.39
-4.08
-6.07
-8.17
-10.04
-11.37
-11.83
-11.20
-9.32
-6.17
-1.88
3.24
8.77
14.37
19.79
25.02
30.14
35.28
40.37
45.25
49.62
53.21
55.87
57.54
58.18
57.67
55.76
52.16
46.60
39.07
29.76
19.19
8.08
-2.66
-12.15
-19.74
-25.15
-28.58
-30.60
-31.90
-32.99
-34.05
-34.90
-35.26
-34.99
-34.19
-33.18
-32.21
-31.29
-30.11
-28.30
-25.56
-21.97
-17.94
-14.03
-10.74
-8.25
-6.46
-5.00
-3.51
-1.75
0.27
2.28
3.99
5.10
5.51
5.22
4.32
2.84
0.74
-1.94
-5.07
-8.35
-11.47
-14.29
-17.00
-20.04
-23.91
-28.85
-34.82
-41.46
-48.26
-54.71
-60.26
-64.40
-66.67
-66.85
-65.00
-61.51
-56.87
-51.39
-45.15
-38.01
-29.95
-21.22
-12.45
-4.34
2.58
8.18
12.63
16.15
18.78
20.33
20.59
19.64
18.02
16.69
16.62
18.37
21.77
25.95
29.76
32.26
33.11
32.61
31.42
30.09
28.87
27.58
25.93
23.75
21.16
18.54
16.41
15.16
14.93
15.59
16.70
17.73
18.18
17.77
16.51
14.65
12.63
10.85
9.59
8.98
9.03
9.66
10.74
12.05
13.40
14.63
15.70
16.68
17.66
18.68
19.70
20.66
21.44
22.03
22.45
22.81
23.18
23.64
24.21
24.82
25.26
25.10
23.79
20.76
15.61
8.34
-0.62
-10.50
-20.25
-28.76
-35.08
-38.68
-39.63
-38.74
-37.43
-37.22
-39.08
-42.91
-47.43
-50.80
-51.48
-49.18
-45.18
-41.80
-41.37
-45.06
-52.18
-60.44
-66.98
-69.69
-68.15
-64.25
-61.53
-64.00
-74.78
-94.79
-121.82
-150.90
-175.47
-189.19
-188.01
-171.73
-144.52
-114.20
-89.61
-77.29
-78.75
-89.43
-99.99
-99.67
-80.33
-39.52
18.38
83.58
144.23
189.96
214.57
216.78
199.14
165.65
119.48
62.30
-4.40
-77.31
-149.66
-211.45
-252.51
-266.76
-254.78
-223.78
-184.22
-145.25
-111.27
-81.47
-51.85
-18.52
19.95
62.25
105.43
146.49
183.41
215.20
241.45
261.95
276.63
285.44
288.62
286.58
279.92
269.35
255.66
239.70
222.11
203.13
182.56
160.21
136.34
112.05
88.98
68.61
51.43
36.84
23.56
10.57
-1.98
-12.67
-19.41
-20.61
-16.21
-8.10
0.45
6.07
6.67
2.45
-4.40
-10.75
-14.12
-13.78
-10.96
-8.01
-7.15
-9.48
-14.82
-22.24
-31.01
-41.05
-52.84
-66.84
-82.81
-99.58
-115.39
-128.53
-138.13
-144.52
-149.12
-153.80
-160.00
-168.15
-177.67
-187.53
-197.17
-207.25
-219.62
-236.82
-261.02
-293.09
-331.97
-374.65
-416.67
-452.98
-479.10
-492.16
-491.49
-478.52
-455.94
-426.68
-392.85
-355.50
-314.92
-271.37
-225.62
-179.09
-133.49
-90.20
-50.02
-13.13
20.56
50.95
77.60
99.81
116.96
128.95
136.44
140.87
144.04
147.72
153.08
160.49
169.47
179.17
188.74
197.78
206.56
215.76
226.22
238.78
254.10
272.69
294.56
318.78
343.15
364.26
378.23
382.01
374.48
356.97
332.75
305.82
279.58
256.53
237.60
222.42
209.84
198.65
187.84
176.73
164.82
151.97
138.95
126.96
117.07
110.03
106.16
105.46
107.47
111.18
115.13
119.09
123.31
128.46
135.45
145.25
158.32
173.68
188.59
199.32
206.01
210.06
212.90
214.78
215.19
213.65
209.79
203.46
194.81
191.02
197.58
214.46
235.50
252.90
262.07
263.14
259.30
254.30
260.81
285.99
326.22
368.12
397.01
405.87
397.50
381.54
369.73
385.93
446.42
552.24
688.58
833.88
969.51
1082.96
1166.90
1132.65
933.25
588.51
182.26
-193.93
-488.63
-693.96
-825.70
-905.35
-951.47
-962.80
-937.21
-880.67
-809.33
-741.40
-688.23
-652.37
-630.99
-620.81
-607.03
-579.25
-536.69
-488.34
-445.77
-416.04
-400.03
-391.59
-387.39
-378.15
-357.56
-325.40
-287.63
-251.88
-223.00
-201.83
-187.04
-177.03
-166.62
-152.19
-133.21
-112.31
-92.98
-77.44
-65.82
-57.37
-51.28
-45.22
-37.39
-27.23
-15.39
-2.93
7.93
17.88
27.23
35.85
43.75
50.77
56.73
61.44
64.92
66.96
67.83
67.69
66.87
66.02
65.93
67.50
71.60
79.09
90.07
104.65
122.38
142.47
163.99
185.83
206.88
226.09
242.72
255.50
263.66
266.60
264.01
255.78
241.86
221.94
195.00
164.62
132.63
100.55
69.52
40.46
14.08
-9.06
-28.53
-44.04
-55.36
-63.14
-68.00
-70.60
-71.50
-71.09
-69.51
-66.73
-62.56
-56.85
-50.18
-43.25
-36.84
-31.61
-27.90
-25.65
-24.46
-23.82
-23.34
-23.41
-24.77
-28.30
-34.59
-43.68
-54.88
-66.98
-78.75
-89.47
-99.50
-109.99
-122.47
-138.14
-157.35
-179.33
-202.76
-226.15
-248.76
-270.84
-293.44
-318.06
-346.41
-380.37
-421.65
-470.91
-526.46
-583.32
-633.53
-668.13
-680.12
-667.13
-632.25
-582.60
-526.43
-470.30
-417.65
-369.08
-323.61
-280.00
-237.15
-194.03
-149.45
-102.27
-51.93
0.88
54.26
105.80
153.37
196.23
235.61
274.61
317.17
366.10
420.87
476.28
522.98
549.77
547.42
511.97
446.70
361.71
271.00
188.18
122.36
75.80
44.38
20.45
-3.79
-33.78
-71.98
-118.41
-171.55
-228.47
-284.60
-333.64
-368.56
-384.02
-378.76
-356.47
-324.42
-290.28
-259.19
-232.45
-208.59
-185.42
-161.90
-138.43
-116.03
-95.16
-75.03
-53.95
-30.23
-3.21
26.17
55.67
82.95
106.58
126.95
146.20
167.12
192.04
222.02
256.94
295.84
337.12
378.00
413.90
438.61
445.60
430.43
392.81
337.10
270.93
202.64
139.22
85.73
46.08
24.19
23.88
47.20
91.86
149.78
207.85
251.24
268.18
254.17
213.92
160.28
110.21
79.23
76.25
100.66
143.13
189.76
227.68
249.41
254.14
245.56
228.06
203.60
171.08
127.94
72.97
8.06
-61.75
-130.07
-191.26
-241.92
-280.87
-308.11
-323.66
-327.21
-319.00
-301.13
-278.50
-258.25
-247.58
-250.72
-266.56
-288.47
-306.55
-311.18
-296.30
-260.84
-208.45
-146.25
-83.52
-30.71
2.00
6.81
-19.21
-72.30
-142.26
-215.04
-276.90
-318.24
-335.56
-331.23
-311.24
-282.71
-251.64
-221.96
-195.33
-171.75
-150.22
-129.63
-109.27
-89.05
-69.35
-50.71
-33.44
-17.27
-1.44
15.21
33.62
54.10
76.07
98.28
119.35
138.27
154.90
169.88
184.53
200.57
219.94
244.12
273.13
304.29
331.55
346.57
341.33
311.87
260.99
198.60
138.91
95.67
77.31
84.28
109.61
142.19
170.99
188.34
191.24
180.46
158.53
128.12
91.61
51.64
12.02
-22.22
-45.96
-55.85
-51.69
-36.45
-14.69
9.74
35.24
62.27
91.69
122.78
152.15
174.45
184.35
178.66
157.58
124.74
85.98
48.03
16.99
-2.93
-10.45
-7.51
1.44
11.01
16.87
17.05
12.01
3.54
-6.67
-17.54
-28.24
-37.10
-41.25
-37.43
-23.76
-1.11
26.93
55.66
81.24
101.97
118.03
130.19
138.76
143.41
143.95
141.43
138.42
138.23
143.21
153.20
165.13
174.19
175.93
168.11
151.39
128.51
102.82
76.96
52.50
30.44
11.74
-2.75
-13.25
-22.03
-33.44
-52.11
-80.41
-116.37
-153.73
-184.29
-201.47
-202.91
-191.15
-171.80
-150.53
-130.54
-111.80
-92.27
-70.16
-45.86
-22.25
-3.44
7.41
10.01
7.17
3.84
5.15
14.70
34.05
63.44
103.02
153.43
214.99
285.79
360.23
429.00
481.41
508.92
508.27
482.52
439.45
388.18
335.90
286.20
239.52
194.87
151.46
109.35
68.95
30.15
-8.06
-47.17
-88.52
-132.98
-180.86
-231.81
-284.33
-335.32
-380.00
-412.90
-429.63
-428.64
-411.80
-383.40
-348.10
-309.12
-267.84
-224.95
-182.03
-142.39
-110.03
-87.62
-74.75
-67.71
-61.34
-51.64
-37.91
-23.09
-12.24
-9.75
-16.83
-30.61
-45.38
-55.28
-57.04
-51.29
-41.85
-33.31
-28.10
-24.88
-19.24
-6.17
16.85
47.86
80.74
107.28
120.18
115.31
92.29
53.43
1.87
-60.00
-130.62
-208.09
-288.51
-365.16
-429.27
-472.50
-489.83
-481.46
-452.64
-411.61
-366.55
-323.15
-283.67
-247.87
-214.73
-183.98
-156.61
-134.11
-117.07
-104.23
-92.92
-80.85
-68.18
-58.39
-56.93
-68.08
-91.92
-123.16
-152.99
-172.86
-178.32
-170.42
-154.37
-136.26
-120.01
-106.34
-93.76
-80.57
-66.32
-51.95
-38.79
-27.40
-17.04
-6.04
7.26
23.59
42.41
62.16
81.15
98.33
113.74
128.51
144.15
161.83
181.79
203.24
224.83
245.40
264.62
283.23
302.74
324.81
350.36
378.95
408.63
436.41
459.08
474.16
480.63
479.01
471.05
458.86
444.02
426.92
406.60
381.03
347.96
305.98
255.42
198.85
140.62
85.63
37.93
-0.66
-31.15
-56.85
-81.96
-109.86
-141.68
-175.94
-208.96
-236.28
-254.01
-260.06
-254.89
-241.54
-225.08
-211.51
-206.14
-211.98
-228.40
-251.01
-272.73
-285.83
-284.39
-265.87
-231.25
-183.98
-128.61
-69.84
-12.18
40.35
84.72
119.67
146.33
167.81
187.84
208.91
231.14
252.35
269.56
280.71
285.82
286.76
286.21
286.35
288.02
290.71
292.94
292.66
287.72
276.09
256.38
228.23
192.51
151.35
107.75
65.03
26.08
-7.40
-35.43
-59.67
-82.70
-106.75
-132.34
-157.77
-179.49
-193.45
-196.64
-188.31
-170.10
-145.33
-117.66
-89.70
-62.33
-34.63
-4.75
28.90
66.40
105.75
143.34
174.99
197.45
209.01
209.40
198.94
177.85
145.99
103.40
51.22
-7.97
-70.40
-132.14
-189.81
-240.80
-282.77
-313.05
-328.50
-326.20
-304.70
-264.79
-209.57
-143.29
-70.17
6.42
83.52
157.47
223.41
275.78
310.19
325.13
322.70
307.38
283.79
254.77
221.03
182.38
139.44
94.71
52.06
15.06
-14.69
-38.27
-58.78
-79.84
-103.95
-131.50
-160.31
-186.10
-203.57
-207.94
-196.41
-169.34
-130.56
-86.59
-45.19
-13.30
4.69
8.09
0.14
-12.75
-22.58
-21.88
-5.37
29.03
80.24
144.77
217.56
292.63
363.33
422.80
464.95
485.86
485.05
465.85
434.20
396.73
358.62
322.41
288.30
255.44
223.39
192.80
165.18
141.83
122.84
106.83
91.62
75.38
57.73
40.01
24.61
13.73
7.96
5.59
3.05
-3.72
-17.47
-38.38
-63.95
-90.34
-114.12
-134.16
-152.11
-171.64
-196.67
-229.80
-271.53
-320.22
-372.42
-422.91
-464.88
-491.06
-496.01
-478.79
-444.59
-403.39
-366.03
-339.21
-322.26
-307.91
-286.52
-251.74
-204.20
-151.35
-103.87
-70.68
-55.42
-55.71
-65.06
-76.07
-83.34
-85.09
-82.88
-79.86
-78.45
-78.76
-78.37
-74.01
-63.99
-50.09
-37.47
-32.50
-39.33
-57.40
-81.18
-102.60
-114.80
-115.23
-106.44
-94.38
-85.32
-83.23
-88.52
-98.91
-110.87
-121.27
-128.22
-131.02
-129.94
-126.10
-121.34
-117.78
-117.14
-119.56
-122.99
-123.33
-115.49
-95.35
-61.38
-15.69
36.01
85.31
123.09
141.90
138.37
114.86
79.37
43.48
18.80
13.22
28.32
59.07
95.77
127.18
144.20
142.56
124.26
96.89
71.06
56.66
59.19
77.84
106.36
136.24
160.70
177.08
186.67
192.30
195.80
197.12
195.35
190.80
186.11
185.41
192.10
206.76
226.41
245.61
258.54
260.92
250.96
229.33
198.43
161.41
121.43
80.78
40.31
-0.61
-43.73
-91.16
-144.60
-204.38
-268.74
-333.30
-391.25
-434.60
-456.29
-452.61
-424.47
-377.03
-317.49
-252.26
-184.84
-115.53
-42.94
33.72
112.87
190.30
260.24
317.25
357.68
380.37
386.19
377.20
355.60
323.10
281.25
231.97
178.14
123.44
71.49
24.63
-17.20
-56.45
-97.13
-143.39
-198.36
-263.36
-337.30
-416.39
-494.52
-563.71
-615.86
-645.01
-649.18
-631.00
-596.51
-552.84
-505.68
-458.24
-411.11
-363.70
-315.98
-269.35
-226.52
-190.54
-163.55
-145.52
-134.81
-127.78
-120.00
-107.49
-87.79
-60.28
-26.08
12.63
54.16
95.73
135.93
174.14
210.45
245.43
280.08
315.79
354.16
398.17
446.44
496.69
543.65
579.62
596.70
589.42
556.90
503.04
437.26
364.08
287.93
210.16
130.80
51.45
-22.77
-83.47
-121.95
-129.65
-110.12
-69.31
-15.92
42.51
102.57
165.41
234.05
289.48
351.07
406.09
443.00
452.83
433.20
388.98
329.62
265.38
203.54
149.79
99.91
51.47
2.69
-46.87
-97.23
-148.44
-199.91
-248.92
-287.34
-309.83
-309.24
-281.35
-225.76
-146.76
-52.35
47.60
142.43
223.32
280.25
307.60
305.35
280.92
244.90
206.96
173.73
147.46
127.58
110.71
92.83
71.78
50.50
31.36
14.09
-2.05
-17.83
-33.40
-48.97
-67.06
-89.66
-112.48
-132.77
-151.35
-168.92
-185.82
-201.86
-216.45
-232.69
-253.07
-271.88
-285.25
-293.96
-298.80
-300.41
-299.27
-271.19
-200.79
-125.55
-64.82
-12.13
33.31
71.98
104.43
131.36
153.74
168.76
174.32
176.61
180.07
184.44
189.33
194.30
198.99
203.15
203.69
198.14
190.53
183.70
177.03
170.01
162.29
153.83
144.90
134.14
120.61
107.29
96.06
86.24
76.88
67.06
56.24
44.52
31.70
18.05
5.57
-4.82
-14.18
-24.17
-36.35
-51.43
-68.73
-86.64
-103.03
-115.80
-124.62
-131.47
-139.52
-151.68
-169.22
-190.95
-213.73
-234.05
-249.73
-261.20
-271.38
-284.15
-302.51
-327.45
-357.98
-392.12
-427.56
-461.48
-489.46
-504.88
-500.24
-470.40
-416.66
-348.21
-279.77
-225.52
-192.69
-178.66
-173.84
-168.42
-158.90
-149.88
-149.76
-163.42
-186.61
-206.45
-208.24
-184.25
-139.03
-87.95
-49.29
-35.03
-45.77
-72.35
-102.63
-128.96
-151.31
-174.85
-204.06
-237.60
-267.37
-282.15
-273.54
-240.61
-190.93
-137.39
-92.63
-64.14
-51.99
-50.32
-51.49
-50.33
-46.34
-42.71
-42.98
-47.73
-53.26
-53.26
-42.47
-19.65
11.79
45.98
77.74
104.89
128.49
151.42
176.78
206.53
240.40
275.03
303.74
317.99
310.81
281.23
236.64
191.13
159.44
149.67
159.24
177.02
190.61
194.23
191.83
193.24
206.32
230.04
253.28
260.40
239.35
187.52
111.61
23.06
-67.93
-155.23
-235.76
-306.28
-361.26
-394.09
-400.80
-383.21
-349.46
-310.88
-277.37
-253.64
-238.50
-226.89
-213.36
-194.70
-170.82
-143.92
-116.83
-91.68
-69.25
-49.05
-29.55
-9.23
12.97
37.22
62.77
88.53
113.50
137.42
160.84
185.06
211.44
241.05
274.69
312.86
355.26
399.90
442.22
475.02
490.80
483.84
452.61
400.42
333.98
260.28
183.55
104.15
20.43
-66.40
-150.90
-224.06
-276.63
-303.33
-305.20
-289.17
-265.09
-241.75
-220.99
-200.13
-175.36
-145.44
-112.96
-82.59
-58.38
-41.83
-31.48
-19.19
3.09
39.60
88.64
143.75
197.77
246.03
287.37
323.58
364.19
418.43
491.40
581.64
682.57
786.75
889.09
987.52
1042.60
1024.10
920.76
750.22
549.23
352.80
181.59
42.15
-67.74
-153.50
-215.04
-251.95
-265.85
-262.15
-248.92
-233.74
-221.27
-213.70
-211.21
-208.80
-201.57
-187.12
-166.74
-144.33
-124.05
-105.93
-91.04
-78.42
-63.80
-44.48
-21.15
1.67
17.58
21.16
11.08
-9.79
-34.91
-55.63
-65.28
-61.18
-45.30
-22.95
-0.84
16.15
25.95
29.84
31.29
33.15
36.46
39.58
42.89
44.59
43.48
39.52
34.20
29.17
23.86
16.60
5.33
-11.33
-34.24
-62.96
-96.27
-132.79
-172.00
-215.62
-262.58
-306.67
-337.54
-346.43
-331.29
-298.68
-260.26
-227.66
-209.88
-206.24
-208.21
-206.02
-196.24
-183.92
-177.97
-183.74
-200.85
-228.01
-260.77
-293.97
-323.65
-348.55
-369.93
-388.67
-403.09
-378.75
-297.76
-167.20
-16.21
124.29
237.04
318.26
366.21
392.90
406.52
406.85
392.92
366.01
329.70
291.40
254.85
220.95
189.39
156.99
116.60
64.21
2.29
-59.60
-108.09
-131.29
-121.58
-76.82
-2.66
87.59
178.73
257.55
315.33
348.32
356.79
344.85
319.93
289.72
259.82
233.93
213.89
200.04
191.69
186.87
183.11
178.29
170.58
158.95
143.80
126.56
108.73
90.89
72.03
50.11
23.26
-9.43
-47.49
-89.17
-132.40
-175.66
-218.53
-261.94
-307.95
-359.17
-417.83
-484.30
-555.69
-625.13
-682.98
-719.60
-728.75
-710.00
-668.65
-613.34
-552.52
-491.61
-432.22
-373.58
-314.64
-255.68
-198.32
-144.17
-93.65
-45.79
1.44
50.30
102.69
159.59
220.47
282.69
341.37
389.58
419.28
423.85
400.26
350.30
280.14
198.97
117.30
45.14
-10.12
-45.91
-63.29
-65.31
-54.80
-33.62
-3.92
30.56
64.00
89.31
99.49
92.90
74.57
53.48
36.63
24.58
12.94
-1.97
-18.80
-33.05
-38.16
-30.64
-13.11
5.93
15.80
10.15
-9.13
-21.35
-10.02
28.69
82.53
134.16
173.21
198.05
209.83
215.24
217.16
211.70
194.06
162.04
116.83
65.08
11.17
-43.36
-98.99
-146.27
-179.19
-196.17
-200.09
-195.14
-183.35
-166.55
-147.25
-128.23
-112.86
-106.04
-110.58
-125.41
-145.69
-162.71
-167.42
-153.12
-118.38
-69.69
-22.24
4.90
1.94
-31.89
-85.97
-142.82
-184.89
-201.33
-191.65
-165.14
-134.57
-109.74
-94.94
-88.19
-85.41
-83.64
-82.28
-82.47
-85.07
-88.56
-88.52
-83.17
-71.05
-53.36
-33.81
-17.05
-6.75
-4.14
-7.51
-13.11
-17.33
-17.42
-12.92
-5.44
2.37
8.18
10.93
11.08
10.08
9.16
9.23
10.06
10.49
9.18
5.16
-1.61
-10.31
-19.61
-28.34
-35.59
-41.15
-45.39
-48.93
-52.29
-55.61
-58.72
-61.24
-62.88
-63.46
-63.06
-61.97
-60.34
-58.09
-54.80
-49.77
-42.31
-32.09
-19.24
-4.51
11.04
26.46
41.25
55.70
70.64
87.09
105.58
125.78
146.43
165.76
182.32
195.67
206.85
218.00
231.64
249.47
271.71
296.94
322.72
346.65
367.54
385.94
404.12
425.68
454.46
493.42
542.81
599.12
654.57
698.60
720.70
714.01
678.04
619.49
550.52
485.13
434.84
405.35
395.34
397.82
403.15
402.69
391.33
368.34
336.41
299.58
261.39
224.02
188.47
155.61
126.60
102.60
83.93
69.33
56.14
41.39
23.04
1.15
-22.42
-44.63
-62.66
-75.01
-81.79
-84.38
-84.60
-83.80
-82.34
-79.65
-74.73
-66.98
-56.61
-44.88
-33.70
-25.02
-20.30
-20.03
-23.79
-30.47
-38.76
-47.49
-55.89
-63.62
-70.62
-76.95
-82.67
-87.73
-92.03
-95.45
-97.92
-99.46
-100.13
-100.06
-99.28
-97.79
-95.47
-92.05
-87.19
-80.55
-71.84
-61.05
-48.42
-34.54
-20.21
-6.31
6.46
17.66
27.12
34.82
40.63
44.12
44.62
41.33
33.77
22.09
7.25
-9.13
-25.31
-40.02
-52.97
-64.88
-77.10
-90.83
-106.38
-122.80
-138.22
-150.65
-159.09
-164.26
-168.44
-174.71
-185.57
-201.96
-223.04
-246.87
-271.36
-294.83
-316.16
-334.67
-350.19
-363.69
-377.62
-395.12
-417.92
-444.17
-467.67
-480.07
-475.25
-453.48
-422.82
-396.61
-388.04
-404.65
-445.31
-501.08
-558.78
-605.70
-633.01
-637.10
-619.18
-583.63
-536.00
-481.50
-424.08
-366.29
-309.77
-256.04
-206.54
-162.32
-123.26
-87.86
-53.67
-18.15
20.68
64.05
112.43
165.07
219.14
268.95
306.43
323.53
315.74
285.33
242.18
201.37
178.33
183.25
217.30
272.08
332.50
381.58
405.50
396.88
355.83
289.02
207.84
126.02
57.03
11.19
-7.34
-2.60
13.66
25.54
19.38
-9.90
-55.64
-101.79
-130.35
-130.57
-104.81
-68.05
-40.79
-39.24
-67.79
-117.49
-170.96
-210.44
-224.72
-211.74
-176.60
-127.78
-73.55
-20.74
24.90
58.25
75.12
73.81
56.52
29.50
1.56
-18.70
-26.27
-21.69
-11.00
-3.43
-7.25
-25.90
-56.27
-90.14
-118.09
-133.89
-136.73
-130.24
-119.04
-105.29
-87.40
-61.64
-25.66
18.27
62.45
96.10
110.07
101.13
74.39
42.25
19.78
18.53
41.14
79.71
119.08
143.54
143.93
121.34
85.43
48.89
21.29
5.65
-0.60
-1.61
1.12
10.05
29.68
62.42
105.43
151.22
191.52
222.24
245.92
269.80
300.28
337.42
373.06
394.63
392.50
366.23
325.53
285.51
258.48
247.45
245.40
239.86
220.15
182.68
131.38
73.87
16.24
-40.05
-97.17
-157.20
-218.38
-274.06
-314.61
-331.60
-321.50
-286.65
-233.63
-169.66
-99.64
-26.10
48.56
118.91
175.72
208.93
212.91
191.31
157.88
132.38
132.77
167.90
234.00
316.50
396.53
458.22
493.69
503.61
494.52
474.13
448.10
418.93
386.97
352.22
315.80
280.06
247.77
221.10
200.32
183.90
169.07
152.94
133.62
110.80
86.03
61.99
41.30
25.36
13.75
4.62
-4.20
-13.90
-24.18
-33.69
-41.46
-47.88
-54.99
-65.43
-80.84
-100.80
-122.39
-141.43
-154.41
-160.08
-159.99
-157.50
-155.90
-156.61
-158.62
-159.20
-155.74
-147.57
-136.91
-128.29
-126.97
-137.31
-161.74
-199.97
-248.83
-302.39
-351.96
-387.43
-399.76
-384.41
-343.92
-287.58
-227.66
-173.57
-127.26
-82.88
-31.21
33.72
109.80
186.84
251.60
294.44
313.85
316.01
310.35
303.25
296.83
287.28
269.20
239.51
199.37
153.42
107.37
65.63
29.02
-2.80
-32.05
-61.02
-91.35
-124.18
-160.58
-201.21
-245.20
-290.63
-329.17
-352.20
-351.36
-321.36
-262.38
-181.03
-89.11
-0.90
66.02
107.75
121.66
111.28
84.30
49.67
14.75
-16.52
-43.51
-76.53
-107.69
-138.91
-171.22
-204.91
-239.75
-275.14
-310.37
-344.70
-391.84
-436.21
-479.90
-526.16
-578.23
-637.59
-702.11
-765.98
-820.46
-875.03
-903.97
-908.75
-896.12
-875.39
-854.83
-839.24
-830.57
-710.19
-624.65
-547.75
-478.33
-415.11
-355.86
-297.25
-235.80
-171.42
-104.98
-53.17
3.62
61.62
118.20
172.39
224.90
277.94
331.13
385.41
433.34
491.62
552.81
606.46
641.45
649.06
625.23
566.60
476.28
361.17
244.91
135.98
41.99
-31.79
-83.57
-85.89
-32.29
22.18
51.50
69.04
78.17
82.66
85.54
88.78
93.19
94.28
89.23
83.11
80.39
78.35
74.68
67.71
57.02
43.25
24.29
-0.22
-23.20
-40.83
-53.70
-62.55
-68.12
-70.83
-70.80
-70.20
-70.13
-67.09
-59.45
-48.27
-34.55
-19.20
-3.00
13.51
28.83
42.11
54.95
68.28
81.94
95.84
109.78
123.37
135.94
146.31
153.57
158.12
160.69
162.11
163.40
165.25
167.61
169.50
169.42
165.94
158.56
148.10
136.56
126.46
119.82
117.35
118.21
120.77
123.45
125.80
128.99
135.37
147.75
168.56
199.49
241.03
292.14
349.36
406.70
456.03
488.98
499.47
485.57
449.95
398.24
336.19
267.06
190.99
106.52
13.60
-83.85
-177.60
-257.39
-314.66
-345.84
-353.39
-344.20
-326.32
-305.90
-285.48
-264.86
-243.08
-220.29
-198.35
-179.82
-166.32
-157.34
-150.49
-142.73
-132.03
-118.27
-103.27
-89.70
-79.69
-73.76
-70.56
-67.56
-62.14
-52.76
-39.46
-23.71
-7.49
7.74
21.80
35.93
52.17
72.43
97.48
126.48
157.13
186.51
212.05
232.16
246.77
257.19
265.62
274.79
287.32
304.69
326.06
347.86
364.98
373.21
371.69
363.63
354.56
348.84
346.42
342.14
328.00
296.90
245.99
177.88
99.64
20.62
-49.09
-99.79
-123.41
-115.59
-78.41
-22.09
36.19
77.47
87.62
62.82
11.18
-50.46
-102.98
-131.28
-127.81
-92.92
-32.77
43.12
123.46
196.26
249.83
274.35
264.37
221.01
152.75
74.04
1.52
-51.20
-77.88
-81.63
-73.34
-67.37
-76.05
-105.70
-155.63
-219.91
-290.57
-360.05
-422.16
-471.47
-502.97
-512.75
-499.39
-465.16
-415.78
-358.71
-300.75
-246.59
-198.51
-156.67
-120.04
-86.68
-53.90
-18.22
23.78
74.10
131.76
191.71
245.28
282.02
293.08
274.29
227.85
161.84
87.61
16.33
-43.89
-89.30
-120.30
-140.23
-153.79
-165.57
-178.90
-194.87
-212.06
-227.07
-235.76
-234.74
-222.34
-198.53
-164.36
-121.55
-72.91
-23.30
20.10
49.28
58.48
47.33
22.21
-5.43
-23.17
-22.22
-0.49
37.18
81.14
120.34
145.42
150.69
134.67
99.66
50.65
-5.96
-63.68
-116.81
-160.92
-192.80
-210.49
-213.74
-204.51
-186.93
-166.39
-147.80
-133.68
-123.35
-113.59
-100.42
-81.12
-55.59
-26.36
2.59
27.51
46.47
60.09
71.36
84.37
102.69
127.84
158.43
190.46
218.52
237.79
245.76
243.26
234.14
223.83
217.39
217.66
224.42
234.55
243.37
246.40
241.17
228.03
210.08
191.97
178.18
171.52
172.19
177.74
183.73
184.99
177.01
157.35
126.54
88.23
48.53
14.23
-9.19
-19.38
-17.76
-8.73
2.07
9.72
11.27
6.13
-4.42
-17.98
-31.63
-42.54
-48.27
-47.13
-38.34
-22.25
-0.38
24.41
48.07
66.05
74.57
72.25
61.17
46.51
34.55
29.90
33.25
41.08
47.53
47.44
38.79
23.31
5.24
-10.84
-21.89
-27.06
-27.26
-24.17
-19.29
-13.40
-6.62
1.09
9.29
16.55
20.64
19.33
11.86
0.00
-11.93
-18.58
-15.91
-3.32
15.73
34.96
47.72
49.62
39.89
21.51
-0.08
-18.68
-29.06
-28.25
-16.24
3.88
26.55
45.21
54.28
51.06
36.72
15.89
-5.04
-20.17
-25.95
-22.01
-10.73
4.07
18.56
30.00
37.19
40.34
40.59
39.48
38.43
38.41
39.91
43.09
48.24
56.08
67.70
83.95
104.56
127.52
149.45
166.91
178.29
185.06
191.51
202.78
222.01
248.02
275.05
294.85
300.20
288.12
261.22
226.39
191.91
164.32
146.53
137.82
134.97
133.91
130.75
122.48
107.33
85.28
58.36
30.39
5.69
-12.77
-24.89
-33.59
-43.50
-58.79
-81.35
-110.39
-143.49
-178.34
-214.14
-251.88
-293.68
-341.14
-393.90
-448.71
-499.41
-538.09
-557.07
-551.40
-520.92
-470.98
-411.03
-351.61
-300.89
-262.38
-234.84
-214.10
-195.54
-175.75
-153.04
-126.90
-97.54
-66.11
-35.26
-9.24
7.08
10.28
0.57
-17.52
-36.56
-49.32
-51.97
-45.54
-34.92
-25.80
-21.55
-21.45
-21.46
-16.78
-4.81
13.33
33.30
49.86
59.51
61.93
59.77
56.84
56.11
58.51
63.03
67.94
72.04
75.36
78.84
83.23
88.03
91.09
89.33
80.27
63.56
41.71
19.31
1.16
-9.89
-14.05
-14.16
-13.97
-16.18
-21.31
-28.07
-34.55
-39.57
-43.12
-45.76
-47.77
-48.52
-46.75
-41.41
-32.53
-21.48
-10.40
-1.18
5.38
9.64
12.58
14.78
15.90
14.81
10.54
3.36
-4.87
-11.34
-13.87
-12.40
-9.55
-9.60
-16.40
-31.10
-51.10
-70.60
-82.83
-82.71
-68.87
-44.12
-14.25
14.13
35.72
47.95
50.95
46.83
38.39
28.39
19.39
13.85
14.12
21.72
36.34
55.08
72.82
83.75
83.63
71.57
50.52
26.16
4.82
-8.66
-12.11
-6.15
6.57
22.53
38.15
50.49
57.56
58.59
54.10
45.84
36.45
28.73
24.91
25.88
30.95
37.92
43.81
45.76
42.06
32.77
19.81
6.27
-4.64
-10.66
-11.13
-6.93
0.09
7.88
14.89
20.49
25.11
30.04
36.96
47.23
61.20
77.84
95.08
110.77
123.92
135.46
147.94
164.26
186.00
212.24
239.61
263.43
279.27
284.17
276.96
258.00
228.80
191.94
151.24
111.73
78.86
56.95
47.49
48.09
52.97
54.83
47.27
26.73
-6.94
-51.44
-103.65
-160.91
-221.05
-281.51
-338.54
-387.16
-422.48
-441.38
-443.82
-432.61
-411.87
-384.97
-353.25
-316.07
-272.17
-221.41
-165.97
-110.38
-60.45
-21.52
3.23
13.92
14.02
9.44
6.57
10.07
21.42
38.79
58.36
76.25
89.98
98.80
102.89
102.07
95.33
81.44
60.23
33.78
6.33
-16.93
-31.80
-36.54
-32.39
-22.92
-12.73
-6.25
-6.63
-15.04
-30.32
-49.13
-66.88
-79.21
-83.39
-79.13
-68.22
-53.29
-36.47
-18.75
-0.44
17.79
34.13
45.78
49.96
45.17
32.03
13.10
-7.89
-27.00
-40.86
-47.06
-44.52
-33.96
-18.08
-1.41
10.86
14.49
8.00
-6.52
-23.94
-38.00
-43.76
-39.54
-27.49
-12.47
0.04
6.28
5.33
-0.92
-9.12
-16.09
-20.04
-20.84
-19.42
-16.91
-13.90
-10.40
-6.06
-0.62
5.85
13.00
20.40
27.67
34.79
41.76
48.28
53.75
57.37
58.50
56.93
52.85
46.63
38.73
29.39
18.96
8.66
1.19
0.57
10.79
33.63
66.81
104.30
137.35
157.42
159.01
141.13
106.76
60.92
8.69
-45.41
-95.19
-133.89
-155.14
-155.05
-134.11
-97.60
-53.97
-11.80
23.64
55.65
91.11
136.00
190.97
250.36
304.62
344.31
363.19
359.69
341.85
319.15
298.41
281.53
267.30
255.05
246.95
247.44
260.77
295.63
355.45
436.31
527.52
616.44
694.18
758.13
810.36
809.48
728.21
561.40
333.98
87.90
-139.29
-325.66
-464.01
-556.93
-612.56
-634.42
-627.43
-598.70
-557.96
-515.34
-478.09
-449.28
-429.05
-416.49
-404.48
-388.18
-365.43
-337.81
-309.26
-283.63
-263.28
-249.13
-241.20
-235.39
-227.78
-216.00
-200.23
-182.67
-165.74
-150.96
-138.77
-128.92
-119.12
-106.86
-91.07
-72.47
-52.91
-34.37
-18.50
-6.85
-1.16
-2.46
-10.93
-25.20
-42.02
-56.82
-65.04
-63.96
-54.10
-39.29
-25.28
-17.47
-18.68
-27.96
-41.16
-52.77
-58.05
-54.72
-43.34
-26.59
-8.06
8.74
21.03
26.94
25.54
17.13
3.52
-12.05
-25.44
-32.93
-32.46
-24.43
-11.69
1.55
11.17
14.72
12.20
6.00
-0.23
-3.10
-1.01
5.37
13.53
20.60
24.82
26.51
27.78
31.17
38.14
48.02
58.22
65.52
67.73
64.82
58.87
52.99
49.59
49.22
50.38
50.41
47.02
39.49
29.10
18.62
11.18
9.12
13.34
23.20
36.89
52.15
66.99
80.25
91.94
102.97
114.44
126.61
138.15
146.04
146.46
136.37
114.98
84.45
49.34
15.01
-14.19
-36.29
-51.89
-63.25
-72.95
-82.61
-92.33
-100.97
-106.86
-108.67
-105.82
-98.66
-88.47
-77.41
-68.26
-63.70
-65.20
-71.98
-80.74
-86.80
-86.28
-78.21
-65.33
-52.86
-45.76
-46.04
-51.77
-58.23
-60.65
-56.93
-48.60
-39.95
-35.70
-38.88
-49.88
-66.81
-86.52
-105.59
-120.66
-128.39
-125.65
-110.25
-82.13
-44.15
-1.87
37.81
68.81
87.70
94.49
91.96
84.20
75.06
67.16
61.69
58.67
57.26
56.00
53.16
47.18
37.51
25.07
12.35
2.69
-0.83
3.40
15.02
31.86
50.70
68.38
82.62
92.57
98.86
103.25
107.91
114.57
123.95
135.64
148.43
161.03
172.70
183.36
193.26
202.37
210.10
215.41
217.03
213.99
205.62
191.26
170.10
141.13
103.38
56.53
1.61
-58.19
-117.42
-169.44
-208.61
-232.75
-245.01
-253.58
-268.84
-298.92
-345.51
-402.39
-457.73
-499.18
-518.98
-516.53
-497.12
-468.00
-434.18
-396.68
-353.52
-302.68
-244.57
-182.25
-119.79
-59.42
-0.35
59.71
121.36
180.76
229.41
257.15
256.61
226.72
173.47
107.40
39.76
-20.58
-68.18
-100.01
-113.96
-108.22
-82.12
-37.70
19.27
79.94
134.70
176.04
200.54
209.15
205.74
194.58
178.55
158.42
133.93
105.36
74.75
45.82
22.66
8.07
2.57
4.63
11.90
22.25
34.24
46.65
57.92
65.94
68.58
64.72
54.91
41.25
26.42
12.58
0.61
-9.71
-18.98
-27.32
-34.02
-37.91
-38.03
-34.30
-27.63
-19.61
-11.90
-5.65
-1.30
1.47
3.51
5.88
9.44
14.44
20.38
26.09
30.14
31.42
29.50
24.65
17.57
9.23
0.82
-6.05
-9.37
-7.30
0.86
13.81
28.18
39.74
45.39
44.78
40.63
37.37
38.71
45.57
55.56
64.11
66.84
61.55
49.01
32.16
14.62
-0.85
-12.86
-21.24
-26.33
-28.42
-27.55
-23.74
-17.15
-8.36
1.57
11.24
19.04
23.56
23.91
20.11
13.03
4.07
-5.42
-14.65
-23.39
-31.49
-38.33
-42.52
-42.32
-36.58
-25.69
-11.97
1.02
9.83
12.57
9.63
3.35
-3.14
-7.39
-8.41
-6.80
-4.06
-1.70
-0.47
-0.19
-0.05
0.75
2.43
4.29
4.85
2.51
-3.67
-13.15
-23.75
-32.09
-34.82
-30.13
-18.73
-3.89
9.68
17.59
17.53
10.03
-1.93
-14.24
-23.35
-27.42
-26.54
-22.18
-16.32
-10.48
-5.44
-1.23
2.38
5.52
7.84
8.57
6.70
1.48
-7.18
-18.51
-30.92
-42.30
-50.61
-54.28
-52.61
-46.02
-35.97
-24.57
-13.97
-5.62
0.18
4.10
7.20
10.09
12.42
13.17
11.32
6.68
0.33
-5.68
-9.13
-8.50
-3.63
4.22
12.69
19.00
20.67
16.18
5.49
-9.79
-26.57
-40.97
-49.26
-48.92
-39.41
-22.52
-2.00
17.29
30.70
35.08
29.58
15.91
-2.28
-20.38
-33.98
-39.93
-37.01
-26.25
-10.71
5.30
17.45
22.68
20.07
10.95
-1.90
-15.71
-28.93
-41.66
-54.94
-69.17
-82.73
-91.61
-90.57
-75.40
-45.31
-3.99
41.21
81.75
111.03
126.38
129.41
124.39
115.99
107.32
99.34
91.49
82.97
73.59
64.04
55.27
47.85
41.59
35.73
29.41
22.17
14.13
5.92
-1.53
-7.12
-9.78
-8.65
-3.53
4.83
14.70
23.79
30.11
32.69
31.82
28.76
24.92
21.34
18.59
17.21
18.19
22.95
32.87
48.35
68.39
90.64
112.19
130.54
144.12
152.44
155.71
154.64
150.46
145.09
141.02
140.68
145.22
153.57
162.39
167.19
164.29
152.65
134.38
113.68
94.78
80.02
69.19
60.38
51.53
41.51
30.19
17.69
3.75
-11.93
-28.79
-44.65
-56.33
-61.61
-61.41
-60.49
-65.51
-81.30
-107.47
-137.61
-162.19
-173.55
-170.20
-157.84
-146.46
-145.29
-158.41
-183.48
-213.64
-241.42
-261.90
-273.80
-278.37
-277.26
-271.11
-259.51
-242.15
-220.03
-195.82
-173.19
-155.15
-142.68
-134.13
-125.75
-113.32
-94.03
-67.79
-37.46
-7.72
16.82
33.47
42.44
46.37
48.87
52.64
58.22
64.03
67.52
66.92
62.36
55.76
49.50
44.65
40.00
32.57
19.41
-0.27
-23.96
-46.79
-63.74
-72.10
-72.67
-68.80
-64.08
-59.98
-55.19
-46.84
-32.97
-14.44
4.97
20.46
28.94
30.82
29.81
30.84
37.33
49.60
64.96
79.40
89.60
94.31
94.42
92.18
90.04
89.72
91.55
94.22
94.96
90.16
76.63
52.84
19.87
-18.54
-56.87
-89.29
-110.94
-119.03
-113.36
-96.21
-71.77
-44.68
-18.31
6.85
33.58
66.63
109.98
163.92
223.67
280.22
323.49
345.89
344.82
322.86
285.94
240.54
191.43
140.89
89.08
35.37
-20.72
-78.80
-137.48
-194.42
-246.33
-289.26
-319.14
-332.87
-329.45
-310.73
-281.25
-246.93
-213.27
-183.58
-158.07
-134.26
-108.50
-77.96
-42.32
-4.36
30.77
57.39
71.39
71.75
60.80
43.16
24.01
7.28
-5.26
-14.10
-21.21
-29.04
-39.63
-54.00
-71.80
-91.33
-109.77
-123.93
-131.05
-129.63
-119.72
-102.70
-80.62
-55.54
-29.11
-2.60
22.95
46.70
68.09
87.00
103.71
118.56
131.42
141.40
147.00
146.75
140.11
128.00
112.76
97.45
84.89
76.69
72.90
72.08
71.94
70.09
64.79
55.47
42.95
29.31
17.30
9.54
7.54
11.07
18.06
25.32
29.66
29.26
24.52
17.85
12.69
11.80
16.04
23.81
31.68
35.48
31.59
17.74
-6.53
-39.51
-77.20
-113.34
-140.35
-151.16
-141.53
-111.91
-67.71
-17.54
29.93
68.88
97.97
119.56
137.56
154.79
171.46
185.22
192.67
191.35
181.21
165.01
147.39
133.29
126.29
127.51
135.56
147.20
158.64
166.79
170.16
169.08
165.40
161.55
159.51
160.05
162.38
164.64
164.72
161.32
154.46
145.34
135.64
126.68
119.01
112.68
107.79
104.84
104.53
107.02
111.35
115.37
116.47
112.67
103.35
89.21
71.65
52.05
31.43
10.43
-10.54
-31.30
-52.10
-73.77
-97.50
-124.35
-154.64
-187.78
-222.27
-256.28
-288.18
-317.01
-342.88
-367.10
-391.99
-419.94
-452.09
-487.14
-521.00
-547.78
-561.85
-559.88
-541.88
-510.81
-471.02
-426.52
-379.81
-331.81
-282.42
-231.16
-177.45
-120.80
-61.11
0.60
61.46
116.70
160.64
188.65
199.05
193.87
178.02
157.15
135.33
113.89
91.86
67.56
40.31
11.17
-17.55
-43.49
-65.36
-83.11
-97.27
-108.06
-115.00
-117.39
-115.36
-110.71
-106.42
-105.16
-107.41
-110.45
-109.47
-100.23
-81.76
-57.52
-33.95
-17.11
-9.48
-8.80
-9.64
-6.65
2.64
16.99
33.13
48.19
61.51
74.49
88.86
104.51
118.82
127.52
126.91
115.68
95.01
66.85
31.49
-13.41
-71.39
-143.77
-226.46
-309.37
-379.24
-424.73
-440.86
-430.49
-402.06
-365.05
-326.09
-287.46
-248.53
-208.35
-167.67
-128.86
-94.40
-64.99
-38.91
-12.73
16.77
50.85
88.33
125.97
160.21
188.84
211.98
231.94
252.27
276.40
306.47
342.70
383.13
423.78
459.15
483.17
490.85
479.99
452.39
413.63
371.39
332.72
301.76
278.93
261.82
247.23
233.03
218.86
205.51
193.59
182.67
171.33
158.08
142.38
125.16
108.40
94.10
83.32
75.70
69.81
63.88
56.71
48.13
38.96
30.46
23.58
18.56
14.80
11.23
6.88
1.38
-4.93
-11.19
-16.46
-20.09
-21.98
-22.55
-22.50
-22.58
-23.35
-25.00
-27.42
-30.19
-32.83
-34.95
-36.35
-37.03
-37.16
-36.86
-36.11
-34.69
-32.28
-28.55
-23.39
-17.02
-10.09
-3.58
1.41
3.98
3.77
1.10
-3.10
-7.66
-11.48
-13.95
-14.98
-14.90
-14.22
-13.41
-12.80
-12.65
-13.15
-14.47
-16.62
-19.33
-22.06
-24.04
-24.52
-23.04
-19.58
-14.61
-8.95
-3.51
0.94
3.99
5.62
6.19
6.21
6.19
6.50
7.19
8.12
8.94
9.35
9.15
8.37
7.23
6.08
5.22
4.89
5.08
5.61
6.19
6.47
6.24
5.48
4.40
3.35
2.69
2.66
3.21
4.14
5.09
5.81
6.21
6.37
6.40
6.33
6.08
5.51
4.57
3.34
2.05
0.95
0.19
-0.22
-0.42
-0.56
-0.74
-0.94
-1.08
-1.07
-0.82
-0.33
0.37
1.20
2.02
2.70
3.11
3.17
2.88
2.30
1.55
0.81
0.19
-0.24
-0.50
-0.70
-0.99
-1.50
-2.28
-3.27
-4.33
-5.30
-6.06
-6.57
-6.93
-7.27
-7.71
-8.28
-8.87
-9.36
-9.66
-9.76
-9.79
-9.86
-10.04
-10.25
-10.30
-9.96
-9.11
-7.79
-6.21
-4.67
-3.43
-2.58
-2.04
-1.59
-0.99
-0.10
1.01
2.04
2.60
2.39
1.41
0.01
-1.17
-1.50
-0.67
1.07
2.96
4.02
3.57
1.61
-1.08
-3.24
-3.68
-1.89
1.65
5.79
9.22
11.01
10.94
9.36
6.94
4.61
3.83
6.63
15.08
29.98
49.66
69.66
84.04
87.88
79.72
62.34
41.40
22.58
9.00
0.41
-5.71
-11.81
-18.57
-24.70
-28.14
-27.75
-24.10
-19.14
-14.91
-12.44
-11.33
-10.11
-7.27
-2.06
5.15
13.09
20.23
25.46
28.52
30.06
31.16
32.78
35.35
38.60
41.90
44.65
46.64
48.07
49.37
50.89
52.65
54.36
55.57
55.84
54.86
52.56
49.21
45.47
41.97
39.06
36.56
33.73
29.56
23.34
15.17
6.08
-2.12
-8.08
-11.40
-12.65
-12.93
-13.35
-14.54
-16.58
-19.14
-21.48
-23.25
-24.14
-23.70
-21.30
-16.85
-11.19
-6.06
-3.49
-4.52
-9.56
-18.20
-29.60
-43.26
-59.59
-79.80
-105.05
-136.50
-170.22
-199.54
-218.35
-224.15
-218.61
-206.40
-193.74
-186.40
-190.33
-204.19
-222.82
-238.31
-242.07
-227.58
-193.16
-143.05
-86.33
-33.69
2.34
12.24
-6.25
-46.83
-96.72
-141.20
-168.62
-173.78
-158.59
-129.80
-95.70
-62.88
-34.57
-10.92
9.14
26.67
42.43
57.51
74.23
95.73
124.22
159.09
196.05
228.27
249.25
255.93
250.13
237.86
226.62
222.25
226.86
238.66
253.66
267.89
279.02
286.73
291.98
296.00
299.55
302.74
305.21
306.48
306.00
302.88
295.72
282.78
262.47
234.03
197.79
154.90
106.76
54.72
0.56
-52.95
-101.68
-140.98
-167.22
-179.52
-180.21
-173.92
-165.55
-158.23
-152.47
-146.96
-140.32
-132.75
-126.33
-123.76
-126.54
-133.77
-142.20
-147.80
-147.49
-140.48
-128.34
-114.22
-101.33
-91.86
-86.68
-85.60
-87.86
-92.31
-97.37
-100.92
-100.57
-94.31
-81.44
-63.02
-41.73
-21.12
-4.59
5.48
8.19
4.18
-4.46
-14.64
-22.87
-26.12
-22.68
-12.84
1.25
16.30
28.97
36.75
38.39
33.85
24.07
10.72
-3.83
-16.86
-25.79
-29.12
-26.96
-21.06
-14.20
-9.20
-8.14
-11.79
-19.70
-30.46
-42.19
-52.97
-61.30
-66.47
-68.70
-69.09
-69.09
-70.08
-73.01
-78.32
-86.00
-95.60
-106.32
-116.91
-125.83
-131.60
-133.24
-130.66
-124.67
-116.68
-108.26
-100.55
-93.96
-88.13
-82.12
-74.89
-65.70
-54.37
-41.36
-27.57
-14.11
-1.99
8.06
15.70
21.07
24.76
27.75
31.04
35.34
40.69
46.44
51.41
54.40
54.59
51.73
46.21
38.82
30.59
22.53
15.54
10.16
6.52
4.38
3.17
2.31
1.40
0.37
-0.56
-1.05
-0.79
0.37
2.30
4.63
6.70
7.86
7.63
6.00
3.51
1.12
-0.10
0.60
3.35
7.62
12.43
16.75
19.95
21.95
23.15
24.19
25.63
27.88
31.11
35.20
39.71
43.77
46.24
45.93
42.09
34.82
25.27
15.31
6.96
1.70
0.03
1.51
5.02
9.23
13.00
15.61
16.82
16.76
15.80
14.30
12.52
10.61
8.73
7.13
6.22
6.42
7.89
10.33
12.95
14.68
14.61
12.32
8.03
2.50
-3.33
-8.59
-12.72
-15.45
-16.61
-16.08
-13.76
-9.77
-4.52
1.29
6.85
11.53
15.06
17.57
19.44
21.05
22.57
23.91
24.80
24.88
23.93
21.84
18.57
14.11
8.40
1.36
-6.90
-16.04
-25.41
-34.23
-41.86
-47.83
-51.84
-53.52
-52.36
-47.84
-39.83
-29.04
-17.06
-5.95
2.49
7.49
9.64
10.49
11.82
14.92
20.14
27.04
34.79
42.62
50.02
56.71
62.52
67.24
70.71
72.81
73.57
73.15
71.76
69.51
66.36
62.17
56.75
50.02
42.06
33.11
23.51
13.41
2.51
-10.08
-25.65
-45.43
-69.86
-98.09
-127.81
-155.78
-178.54
-193.35
-198.98
-195.92
-186.21
-172.52
-157.02
-140.39
-121.58
-98.41
-68.89
-32.66
8.14
49.07
84.50
109.25
119.95
115.63
97.63
68.96
33.76
-3.15
-36.79
-62.92
-79.13
-85.42
-83.96
-77.86
-69.71
-60.34
-48.85
-33.50
-13.09
11.99
39.75
67.31
91.98
111.97
126.58
135.93
140.46
140.84
137.77
132.03
124.35
115.36
105.49
95.03
84.13
72.88
61.41
49.92
38.70
28.01
17.93
8.16
-1.88
-12.86
-25.17
-38.75
-53.23
-68.14
-83.15
-98.07
-112.59
-126.18
-138.14
-147.84
-154.87
-158.94
-159.47
-155.36
-145.11
-127.58
-102.86
-72.82
-40.84
-10.79
14.15
32.34
43.87
50.05
52.66
53.38
53.48
53.81
54.96
57.32
61.32
67.34
75.63
86.01
97.61
108.92
118.06
123.49
124.46
121.25
114.84
106.43
96.95
86.95
76.76
66.74
57.35
48.97
41.71
35.29
29.15
22.76
15.81
8.28
0.30
-7.92
-16.20
-24.28
-31.77
-38.19
-43.07
-46.18
-47.56
-47.49
-46.35
-44.46
-41.98
-38.97
-35.45
-31.50
-27.34
-23.29
-19.68
-16.70
-14.35
-12.40
-10.50
-8.37
-5.88
-3.15
-0.45
1.88
3.55
4.34
4.19
3.18
1.59
-0.15
-1.52
-2.09
-1.70
-0.50
1.13
2.70
3.85
4.39
4.34
3.86
3.15
2.38
1.68
1.10
0.58
0.02
-0.72
-1.78
-3.17
-4.81
-6.48
-7.91
-8.93
-9.52
-9.89
-10.41
-11.41
-13.00
-14.99
-16.90
-18.25
-18.78
-18.60
-18.21
-18.22
-19.08
-20.92
-23.53
-26.47
-29.22
-31.31
-32.31
-31.88
-29.88
-26.43
-22.00
-17.22
-12.74
-8.94
-5.84
-2.94
0.51
5.19
11.32
18.44
25.56
31.63
36.15
39.41
42.37
46.07
51.04
57.04
63.24
68.81
73.33
76.77
79.26
80.66
80.50
78.35
74.22
68.71
62.80
57.32
52.63
48.47
44.22
39.14
32.57
24.06
13.26
-0.10
-16.22
-35.30
-57.48
-82.66
-110.42
-139.78
-169.23
-196.90
-220.90
-239.61
-252.05
-258.00
-257.95
-252.79
-243.27
-229.59
-211.27
-187.57
-158.23
-124.17
-87.67
-51.86
-19.78
6.57
26.68
41.20
51.42
58.66
64.10
68.84
73.88
79.98
87.29
95.26
102.73
108.40
111.34
111.24
108.41
103.55
97.46
90.82
84.21
78.03
72.62
68.13
64.57
61.72
59.17
56.44
53.10
48.87
43.68
37.65
31.05
24.29
17.86
12.27
7.89
4.89
3.19
2.54
2.66
3.35
4.49
5.96
7.61
9.16
10.28
10.60
9.76
7.55
3.84
-1.18
-6.98
-12.68
-17.20
-19.57
-19.31
-16.63
-12.43
-8.02
-4.77
-3.74
-5.44
-9.72
-15.97
-23.23
-30.42
-36.41
-40.16
-40.80
-37.93
-31.70
-22.99
-13.11
-3.40
5.23
12.57
19.01
25.22
31.69
38.50
45.35
51.79
57.40
61.93
65.24
67.13
67.34
65.62
61.97
56.76
50.75
44.94
40.17
36.80
34.58
32.86
30.90
28.34
25.34
22.42
20.14
18.74
18.04
17.58
16.99
16.25
15.68
15.74
16.77
18.94
22.25
26.72
32.49
39.69
48.28
57.84
67.53
76.18
82.61
85.93
85.81
82.49
76.67
69.28
61.12
52.82
44.67
36.77
29.05
21.43
13.89
6.56
-0.25
-6.12
-10.62
-13.61
-15.27
-16.19
-17.07
-18.39
-20.14
-21.79
-22.41
-21.10
-17.23
-10.66
-1.79
8.45
18.54
26.61
30.77
29.73
23.32
12.66
-0.09
-12.45
-22.47
-29.34
-33.48
-36.12
-38.60
-41.84
-46.06
-50.95
-56.07
-61.07
-65.81
-70.22
-74.00
-76.58
-77.29
-75.68
-71.82
-66.42
-60.54
-55.11
-50.59
-46.82
-43.22
-39.19
-34.36
-28.75
-22.63
-16.36
-10.21
-4.36
0.97
5.48
8.80
10.56
10.48
8.43
4.63
-0.44
-5.99
-11.11
-14.94
-16.94
-17.01
-15.44
-12.82
-9.81
-7.03
-4.93
-3.84
-3.92
-5.12
-7.24
-9.86
-12.61
-15.14
-17.22
-18.69
-19.35
-18.99
-17.42
-14.70
-11.17
-7.42
-4.02
-1.37
0.55
2.03
3.47
5.15
7.03
8.90
10.39
11.25
11.43
11.01
10.19
9.08
7.75
6.19
4.49
2.84
1.50
0.78
0.81
1.53
2.64
3.75
4.50
4.69
4.30
3.44
2.27
0.91
-0.59
-2.21
-3.97
-5.84
-7.78
-9.72
-11.62
-13.39
-14.93
-16.10
-16.75
-16.76
-16.08
-14.83
-13.22
-11.52
-10.04
-9.02
-8.65
-9.03
-10.22
-12.20
-14.82
-17.81
-20.84
-23.60
-25.94
-27.97
-30.03
-32.46
-35.37
-38.47
-41.05
-42.25
-41.43
-38.49
-34.00
-29.09
-24.94
-22.48
-22.00
-23.17
-25.19
-27.12
-28.20
-27.95
-26.31
-23.63
-20.80
-19.10
-19.96
-24.37
-32.31
-42.42
-52.33
-59.44
-61.91
-59.40
-53.00
-44.63
-36.18
-28.90
-23.08
-18.37
-14.15
-9.84
-5.11
0.19
6.03
12.34
19.01
25.89
32.73
39.08
44.42
48.15
49.92
49.83
48.52
47.04
46.34
46.94
48.67
50.73
52.09
51.88
49.71
45.80
40.80
35.52
30.60
26.33
22.55
18.73
14.23
8.55
1.58
-6.35
-14.52
-22.05
-28.16
-32.40
-34.77
-35.64
-35.57
-35.16
-34.82
-34.80
-35.13
-35.73
-36.49
-37.30
-38.06
-38.73
-39.25
-39.50
-39.36
-38.64
-37.25
-35.19
-32.64
-29.79
-26.77
-23.60
-20.17
-16.42
-12.54
-8.93
-6.12
-4.54
-4.29
-5.05
-6.28
-7.43
-8.24
-8.80
-9.53
-10.89
-13.19
-16.38
-20.08
-23.70
-26.67
-28.71
-29.77
-30.00
-29.41
-27.76
-24.55
-19.26
-11.63
-1.78
9.94
23.16
37.64
53.12
69.15
84.88
99.13
110.75
119.04
123.89
125.59
124.46
120.52
113.52
103.31
90.32
75.74
61.36
49.04
40.06
34.72
32.28
31.28
30.16
27.72
23.55
18.03
12.08
6.76
2.92
1.04
1.10
2.73
5.37
8.35
11.00
12.69
13.00
11.72
9.03
5.46
1.75
-1.35
-3.39
-4.40
-4.79
-5.20
-6.17
-7.86
-10.00
-12.02
-13.30
-13.40
-12.23
-10.00
-7.11
-3.97
-0.80
2.39
5.80
9.61
13.97
18.83
23.95
29.06
33.89
38.22
41.86
44.59
46.18
46.51
45.75
44.32
42.90
42.13
42.42
43.71
45.54
47.26
48.24
48.17
47.01
44.96
42.22
38.91
35.05
30.64
25.83
20.90
16.18
11.85
7.85
3.84
-0.62
-5.89
-12.08
-18.99
-26.28
-33.59
-40.70
-47.47
-53.75
-59.24
-63.57
-66.43
-67.80
-68.09
-68.02
-68.40
-69.69
-71.89
-74.54
-76.96
-78.59
-79.18
-78.77
-77.59
-75.89
-73.77
-71.19
-68.03
-64.30
-60.19
-56.08
-52.33
-49.12
-46.27
-43.35
-39.96
-35.94
-31.48
-26.99
-22.85
-19.20
-15.93
-12.84
-9.85
-7.08
-4.70
-2.80
-1.21
0.46
2.64
5.56
9.17
13.15
17.09
20.69
23.85
26.70
29.49
32.40
35.40
38.13
40.06
40.47
38.75
34.46
27.48
18.03
6.71
-5.58
-17.77
-28.81
-37.89
-44.49
-48.32
-49.22
-47.12
-42.02
-34.16
-24.06
-12.57
-0.73
10.42
19.99
27.40
32.40
35.12
35.93
35.35
33.93
32.11
30.33
29.01
28.59
29.53
32.09
36.18
41.24
46.41
50.83
53.92
55.64
56.38
56.73
57.20
58.09
59.46
61.21
63.12
64.91
66.22
66.68
66.03
64.21
61.40
57.88
53.99
49.95
45.91
41.99
38.34
35.13
32.54
30.66
29.50
28.99
29.08
29.78
31.08
32.91
35.09
37.26
39.03
39.98
39.73
37.85
33.81
27.12
17.49
5.08
-9.35
-24.47
-38.72
-50.68
-59.46
-64.84
-67.27
-67.60
-66.90
-66.18
-66.33
-67.99
-71.35
-76.09
-81.35
-85.85
-88.15
-87.06
-81.95
-72.92
-60.87
-47.17
-33.38
-20.87
-10.63
-3.26
0.98
2.12
0.59
-2.74
-6.49
-9.00
-8.82
-5.11
2.03
11.66
22.41
32.97
42.48
50.65
57.56
63.45
68.51
72.90
76.72
80.08
83.02
85.48
87.30
88.28
88.24
87.11
84.91
81.62
77.19
71.55
64.71
56.95
48.79
40.94
34.08
28.61
24.55
21.55
19.06
16.55
13.70
10.56
7.42
4.67
2.57
0.99
-0.67
-3.31
-7.92
-15.29
-25.76
-39.14
-54.75
-71.66
-88.85
-105.43
-120.73
-134.33
-145.99
-155.56
-162.81
-167.36
-168.64
-166.15
-159.75
-149.87
-137.57
-124.31
-111.50
-100.16
-90.74
-83.22
-77.32
-72.59
-68.53
-64.47
-59.61
-53.16
-44.66
-34.21
-22.51
-10.65
0.29
9.63
17.15
23.07
27.76
31.51
34.49
36.77
38.42
39.59
40.46
41.19
41.89
42.61
43.33
44.04
44.65
45.01
44.91
44.17
42.73
40.77
38.64
36.70
35.17
34.07
33.21
32.38
31.51
30.68
30.11
29.93
30.15
30.60
30.99
31.02
30.52
29.48
28.03
26.39
24.80
23.41
22.28
21.33
20.39
19.28
17.90
16.33
14.79
13.60
13.03
13.18
13.93
14.89
15.54
15.37
14.10
11.83
9.10
6.68
5.36
5.58
7.24
9.70
12.03
13.45
13.68
13.02
12.13
11.69
11.94
12.57
12.86
12.07
9.75
5.88
0.86
-4.71
-10.06
-14.30
-16.49
-15.98
-12.87
-8.36
-4.54
-3.62
-6.84
-13.72
-22.06
-28.85
-31.60
-29.39
-23.11
-14.92
-7.09
-1.15
2.53
4.42
5.33
5.83
6.07
5.90
5.09
3.65
1.86
0.14
-1.12
-1.81
-2.10
-2.26
-2.56
-3.08
-3.76
-4.49
-5.22
-5.98
-6.83
-7.84
-8.97
-10.13
-11.13
-11.74
-11.76
-11.00
-9.48
-7.42
-5.24
-3.41
-2.24
-1.72
-1.52
-1.17
-0.34
1.02
2.62
4.04
4.92
5.15
4.92
4.63
4.66
5.23
6.34
7.79
9.29
10.52
11.32
11.61
11.49
11.15
10.79
10.61
10.68
10.99
11.43
11.92
12.37
12.78
13.11
13.30
13.20
12.71
11.78
10.48
9.04
7.66
6.49
5.55
4.73
3.90
3.02
2.15
1.39
0.82
0.42
0.10
-0.23
-0.53
-0.62
-0.21
0.96
2.92
5.42
7.96
9.96
10.91
10.53
8.76
5.72
1.60
-3.39
-8.99
-14.84
-20.39
-24.94
-27.76
-28.42
-26.91
-23.74
-19.76
-15.90
-12.92
-11.19
-10.71
-11.20
-12.20
-13.18
-13.59
-13.00
-11.21
-8.39
-5.07
-2.02
0.09
0.88
0.40
-0.93
-2.63
-4.30
-5.77
-7.14
-8.57
-10.10
-11.65
-12.90
-13.48
-13.13
-11.80
-9.65
-6.95
-3.87
-0.41
3.45
7.59
11.53
14.43
15.45
14.12
10.72
6.22
1.88
-1.36
-3.36
-4.97
-7.81
-13.71
-24.20
-40.21
-61.83
-88.30
-117.63
-146.35
-169.57
-181.68
-177.81
-155.66
-116.71
-66.23
-11.72
39.40
81.96
113.93
135.84
149.39
156.12
156.95
152.68
144.74
135.37
127.04
121.35
118.27
116.17
112.75
106.22
96.07
83.09
68.84
54.97
42.77
32.96
25.82
21.15
18.32
16.02
12.24
4.40
-9.92
-32.07
-61.47
-95.26
-128.88
-157.28
-176.54
-184.98
-183.38
-174.28
-160.74
-145.27
-129.34
-113.56
-98.07
-82.93
-68.25
-54.16
-40.70
-27.96
-16.10
-5.38
3.74
10.77
15.26
17.00
16.26
13.97
11.55
10.54
11.93
15.72
20.83
25.60
28.50
28.88
27.19
24.79
23.29
23.93
27.08
32.25
38.28
43.83
47.74
49.31
48.37
45.15
40.11
33.76
26.68
19.53
13.14
8.38
5.96
5.98
7.79
10.07
11.36
10.66
7.89
3.85
-0.23
-3.37
-5.31
-6.52
-7.97
-10.54
-14.65
-20.09
-26.11
-31.65
-35.62
-37.08
-35.45
-30.67
-23.32
-14.51
-5.72
1.63
6.56
8.70
8.33
6.14
3.03
-0.21
-2.92
-4.78
-5.73
-6.03
-6.17
-6.78
-8.31
-10.91
-14.24
-17.55
-19.92
-20.65
-19.48
-16.72
-13.14
-9.56
-6.62
-4.46
-2.82
-1.21
0.79
3.36
6.40
9.69
12.95
15.98
18.59
20.63
21.96
22.53
22.43
21.97
21.59
21.70
22.57
24.22
26.40
28.76
30.95
32.74
34.11
35.15
36.10
37.19
38.62
40.58
43.14
46.28
49.78
53.17
55.91
57.45
57.49
56.06
53.46
50.19
46.73
43.42
40.45
37.85
35.53
33.41
31.33
29.16
26.77
24.20
21.68
19.62
18.58
19.06
21.23
24.85
29.21
33.23
35.72
35.64
32.22
25.06
14.13
-0.23
-17.21
-35.55
-53.64
-69.81
-82.67
-91.60
-96.76
-99.06
-99.71
-99.70
-99.49
-98.84
-97.06
-93.37
-87.30
-79.01
-69.29
-59.41
-50.66
-43.92
-39.34
-36.37
-33.97
-31.19
-27.54
-23.18
-18.76
-15.02
-12.46
-11.08
-10.48
-10.06
-9.28
-7.86
-5.77
-3.15
-0.18
3.02
6.42
10.02
13.71
17.22
20.13
22.03
22.76
22.46
21.70
21.18
21.48
22.81
24.91
27.22
29.15
30.29
30.59
30.32
29.85
29.56
29.67
30.27
31.23
32.35
33.38
34.05
34.16
33.61
32.46
30.86
29.05
27.30
25.77
24.54
23.64
23.01
22.55
22.10
21.48
20.53
19.32
18.20
17.84
18.99
22.18
27.43
34.11
41.16
47.39
51.77
53.55
52.05
46.60
36.57
21.75
2.85
-18.13
-38.10
-53.65
-62.19
-62.81
-56.70
-46.58
-35.62
-26.34
-19.82
-15.75
-12.99
-10.37
-7.24
-3.71
-0.32
2.32
3.91
4.51
4.45
4.09
3.62
3.02
2.14
0.78
-1.19
-3.79
-7.03
-11.03
-16.04
-22.29
-29.69
-37.56
-44.70
-49.63
-51.29
-49.46
-44.95
-39.26
-33.96
-30.13
-28.14
-27.72
-28.39
-29.75
-31.54
-33.60
-35.58
-36.89
-36.78
-34.48
-29.61
-22.28
-13.27
-3.75
4.95
11.79
16.26
18.46
18.94
18.39
17.41
16.39
15.51
14.86
14.46
14.31
14.33
14.38
14.31
14.03
13.55
12.96
12.34
11.73
11.07
10.26
9.23
8.02
6.77
5.70
4.97
4.62
4.52
4.48
4.26
3.75
2.94
1.86
0.60
-0.81
-2.37
-4.03
-5.70
-7.25
-8.62
-9.86
-11.14
-12.66
-14.48
-16.46
-18.25
-19.38
-19.48
-18.34
-16.07
-12.91
-9.25
-5.46
-1.87
1.26
3.76
5.59
6.90
7.96
9.07
10.50
12.31
14.29
16.08
17.27
17.60
17.14
16.23
15.32
14.78
14.74
15.06
15.46
15.64
15.44
14.90
14.09
13.15
12.14
11.06
9.97
8.89
7.89
6.96
6.03
5.03
3.93
2.78
1.73
0.91
0.34
-0.07
-0.54
-1.22
-2.21
-3.43
-4.70
-5.86
-6.80
-7.56
-8.30
-9.21
-10.45
-12.10
-14.09
-16.24
-18.30
-20.07
-21.44
-22.47
-23.32
-24.14
-24.98
-25.70
-26.09
-25.92
-25.07
-23.62
-21.75
-19.66
-17.50
-15.27
-12.98
-10.65
-8.39
-6.30
-4.43
-2.67
-0.82
1.29
3.60
5.88
7.75
8.92
9.37
9.34
9.19
9.20
9.43
9.74
9.93
9.90
9.72
9.49
9.30
9.12
8.92
8.75
8.84
9.49
10.87
12.90
15.17
17.14
18.37
18.71
18.34
17.68
17.20
17.28
18.09
19.56
21.34
22.92
23.74
23.41
21.74
18.84
14.99
10.64
6.37
2.82
0.45
-0.80
-1.67
-3.45
-7.40
-13.94
-22.15
-29.92
-34.91
-35.69
-32.45
-26.92
-21.35
-17.26
-14.81
-12.90
-10.08
-5.53
0.45
6.65
11.72
14.88
16.30
16.82
17.48
18.90
21.06
23.43
25.29
26.23
26.27
25.87
25.65
26.06
27.16
28.62
29.92
30.60
30.44
29.52
28.21
26.93
26.06
25.72
25.79
25.93
25.70
24.84
23.31
21.33
19.28
17.39
15.69
13.94
11.85
9.30
6.44
3.62
1.20
-0.74
-2.35
-3.93
-5.72
-7.72
-9.77
-11.68
-13.48
-15.45
-18.06
-21.78
-27.00
-33.91
-42.54
-52.64
-63.60
-74.37
-83.64
-90.10
-92.86
-91.80
-87.50
-80.84
-72.59
-63.10
-52.39
-40.52
-27.95
-15.61
-4.58
4.34
10.95
15.61
18.96
21.46
23.29
24.32
24.44
23.78
22.78
22.02
22.07
23.18
25.24
27.81
30.21
31.75
31.88
30.40
27.49
23.69
19.71
16.18
13.42
11.40
9.77
8.07
5.81
2.66
-1.55
-6.84
-13.13
-20.21
-27.83
-35.68
-43.40
-50.66
-57.11
-62.54
-66.82
-70.03
-72.39
-74.22
-75.81
-77.37
-78.88
-80.02
-80.15
-78.29
-73.26
-63.89
-49.41
-29.75
-5.86
20.40
46.52
69.89
88.41
100.84
107.02
107.69
104.25
98.24
90.92
83.02
74.62
65.45
55.31
44.46
33.66
23.95
16.15
10.55
6.96
4.88
3.91
3.79
4.24
4.74
4.49
2.69
-0.98
-5.93
-10.77
-13.71
-13.43
-9.57
-2.96
4.74
11.67
16.34
18.06
17.01
14.07
10.42
7.14
4.93
4.01
4.22
5.17
6.48
7.79
8.80
9.22
8.75
7.14
4.31
0.45
-4.03
-8.60
-12.80
-16.32
-19.06
-20.99
-22.03
-22.06
-20.96
-18.79
-15.91
-12.90
-10.34
-8.59
-7.58
-6.91
-6.02
-4.51
-2.29
0.42
3.19
5.58
7.28
8.21
8.44
8.18
7.66
7.07
6.50
5.97
5.44
4.88
4.34
3.92
3.75
3.85
4.11
4.30
4.21
3.74
3.00
2.22
1.61
1.29
1.18
1.10
0.82
0.19
-0.84
-2.29
-4.08
-6.11
-8.22
-10.24
-12.07
-13.72
-15.32
-17.06
-19.06
-21.28
-23.51
-25.41
-26.62
-26.82
-25.85
-23.69
-20.54
-16.77
-12.86
-9.24
-6.21
-3.80
-1.81
0.18
2.55
5.55
9.22
13.40
17.76
21.93
25.55
28.33
30.12
30.99
31.21
31.27
31.74
33.08
35.46
38.66
42.11
45.18
47.36
48.54
48.97
49.16
49.57
50.42
51.58
52.60
52.92
52.16
50.31
47.85
45.59
44.29
44.15
44.60
44.45
42.57
38.55
33.13
27.84
24.14
22.46
21.87
20.53
16.42
8.08
-5.21
-23.38
-45.59
-69.93
-93.15
-110.94
-118.97
-114.54
-97.93
-72.69
-44.39
-18.28
2.86
19.72
35.71
54.78
79.02
107.29
135.26
157.02
167.27
163.19
145.10
115.94
79.94
41.31
3.54
-30.72
-59.33
-80.53
-93.09
-96.73
-92.49
-82.74
-70.59
-59.08
-50.31
-44.92
-42.23
-40.87
-39.65
-38.18
-37.02
-37.09
-39.00
-42.51
-46.55
-49.74
-51.11
-50.53
-48.64
-46.33
-44.22
-42.26
-39.74
-35.47
-28.04
-16.25
0.48
21.53
44.71
66.19
81.31
86.09
78.83
61.01
36.91
11.96
-9.28
-24.62
-34.45
-40.66
-45.16
-48.85
-51.65
-53.25
-53.86
-54.50
-56.45
-60.53
-66.31
-72.18
-76.02
-76.17
-72.18
-64.94
-56.26
-48.07
-41.82
-37.86
-35.53
-33.66
-31.30
-28.23
-24.92
-22.21
-20.63
-20.66
-22.04
-24.02
-25.80
-26.99
-27.59
-27.85
-27.92
-27.86
-28.69
-31.20
-35.62
-41.43
-47.74
-53.55
-58.18
-61.60
-64.59
-70.21
-81.04
-98.12
-120.29
-144.56
-166.81
-182.47
-187.82
-180.89
-164.08
-140.94
-114.78
-87.94
-62.38
-40.58
-25.54
-20.49
-14.42
-1.21
20.42
47.25
75.39
101.98
124.53
140.96
150.21
153.31
150.78
144.16
135.19
125.33
115.13
103.36
89.76
73.93
56.05
35.59
13.98
-5.08
-16.60
-16.94
-5.98
12.73
33.20
49.73
58.08
57.80
50.44
39.22
27.32
16.56
7.56
0.26
-5.18
-8.84
-10.77
-11.34
-10.99
-10.10
-8.80
-6.70
-3.33
1.53
7.31
12.93
17.24
19.61
19.99
18.77
16.59
14.06
11.67
9.81
8.77
8.80
10.12
12.75
16.26
19.89
22.87
24.63
25.05
24.31
22.88
21.32
20.12
19.52
19.50
19.86
20.35
20.74
20.81
20.43
19.72
18.99
18.65
19.10
20.61
23.07
25.95
28.12
28.61
27.32
25.34
24.51
26.44
31.88
40.28
50.13
59.18
65.87
70.22
73.53
77.34
82.53
89.50
98.33
108.93
120.08
130.38
138.99
145.97
151.51
155.00
155.25
150.38
138.04
115.17
80.21
34.34
-18.38
-72.76
-123.45
-164.66
-192.13
-197.36
-179.04
-149.23
-127.05
-126.18
-146.58
-179.51
-211.69
-229.94
-225.80
-198.78
-151.05
-89.82
-24.07
37.56
88.07
123.53
142.82
146.98
137.30
115.84
85.80
52.19
20.54
-4.54
-19.94
-24.64
-19.99
-9.90
1.14
9.56
14.06
15.16
14.07
11.92
9.22
5.79
0.91
-5.68
-13.21
-19.78
-23.35
-22.74
-18.20
-11.24
-4.01
1.63
5.00
6.76
8.40
11.30
15.92
21.70
27.50
32.25
35.39
36.99
37.44
37.10
36.02
34.24
32.17
30.82
31.65
35.78
43.47
53.87
65.03
74.47
80.18
81.37
78.50
72.77
65.22
56.60
47.57
38.29
28.15
16.15
1.46
-16.33
-37.11
-60.72
-86.61
-113.29
-139.11
-162.82
-183.30
-199.45
-210.79
-217.60
-221.43
-223.20
-221.44
-213.03
-195.09
-166.30
-127.55
-82.25
-34.73
9.62
41.09
54.36
53.10
44.97
35.46
26.53
17.98
12.46
9.39
9.45
14.70
26.43
43.55
63.25
83.09
97.38
104.86
106.88
107.08
109.50
115.90
124.65
132.31
136.22
135.88
133.34
130.29
127.32
123.65
117.78
108.65
96.88
84.52
73.51
64.77
56.78
47.02
33.62
16.34
-3.40
-23.25
-40.97
-55.36
-66.10
-73.87
-79.48
-83.44
-85.88
-86.80
-86.30
-84.65
-82.23
-79.33
-76.14
-72.64
-68.71
-64.19
-59.11
-53.62
-48.03
-42.63
-37.64
-33.15
-29.21
-25.80
-22.85
-20.18
-17.58
-14.91
-12.22
-9.79
-8.01
-7.20
-7.32
-7.94
-8.40
-8.05
-6.61
-4.17
-1.09
2.19
5.29
7.92
9.82
10.71
10.35
8.73
6.21
3.43
1.12
-0.23
-0.61
-0.47
-0.51
-1.41
-3.46
-6.39
-9.41
-11.38
-11.04
-7.42
-0.12
10.39
22.59
34.12
42.39
45.29
42.08
33.73
22.59
11.65
3.47
-0.65
-0.82
1.75
5.52
9.22
12.29
14.70
16.71
18.61
20.54
22.50
24.41
26.14
27.47
28.17
28.00
26.95
25.30
23.51
22.05
21.20
20.86
20.66
20.25
19.46
18.15
16.01
12.55
7.56
1.63
-3.61
-6.04
-4.30
1.07
7.60
11.81
11.12
5.22
-3.79
-12.71
-18.99
-21.92
-22.59
-22.71
-23.35
-24.42
-25.06
-24.58
-23.14
-21.64
-21.20
-22.41
-24.85
-27.29
-28.23
-26.55
-22.03
-15.46
-8.34
-2.33
1.36
2.35
1.08
-1.45
-4.22
-6.54
-8.21
-9.38
-10.24
-10.80
-10.77
-9.66
-6.98
-2.44
3.94
11.78
20.29
28.44
35.26
40.01
42.20
41.73
38.86
34.23
28.68
23.04
18.01
14.17
11.88
11.15
11.68
13.00
14.65
16.27
17.32
17.51
16.88
15.80
14.70
13.96
13.83
14.41
15.57
16.22
15.49
13.31
10.49
8.05
6.77
7.00
8.74
11.59
13.48
12.88
10.02
6.58
4.30
4.02
5.77
9.08
13.30
15.35
13.05
6.47
-2.63
-12.99
-24.69
-38.48
-54.83
-73.66
-97.55
-127.97
-163.56
-200.74
-236.06
-267.02
-291.36
-306.50
-291.01
-235.53
-151.28
-62.98
9.90
60.79
92.35
110.60
121.12
126.98
125.73
114.92
95.72
73.14
52.93
38.89
31.83
30.67
33.24
34.87
32.47
26.37
19.57
14.94
13.69
15.36
18.76
22.54
24.27
22.70
18.53
13.83
10.33
8.64
8.44
9.15
10.23
10.65
9.80
7.89
5.72
3.98
2.95
2.70
3.25
4.56
6.19
7.66
8.71
9.32
9.60
9.67
9.69
9.79
10.11
10.67
11.46
12.40
13.39
14.37
15.28
16.02
16.45
16.32
15.45
13.77
11.48
8.99
6.81
5.33
4.63
4.50
4.59
4.60
4.42
4.09
3.71
3.33
2.92
2.40
1.75
1.03
0.34
-0.31
-0.95
-1.68
-2.57
-3.59
-4.66
-5.66
-6.48
-7.12
-7.59
-7.92
-8.12
-8.22
-8.30
-8.53
-9.04
-9.96
-11.20
-12.51
-13.51
-13.85
-13.33
-11.97
-10.01
-7.77
-5.56
-3.61
-2.01
-0.79
0.11
0.79
1.36
1.98
2.77
3.75
4.88
6.02
7.02
7.74
8.13
8.20
8.05
7.82
7.61
7.49
7.46
7.46
7.46
7.44
7.47
7.59
7.75
7.84
7.67
7.12
6.23
5.19
4.27
3.69
3.45
3.36
3.20
2.77
2.08
1.27
0.59
0.19
0.08
0.13
0.16
0.01
-0.41
-1.11
-2.01
-3.02
-4.02
-4.89
-5.51
-5.86
-6.06
-6.31
-6.91
-8.01
-9.59
-11.36
-12.87
-13.69
-13.60
-12.60
-10.96
-8.98
-6.97
-5.13
-3.60
-2.45
-1.66
-1.13
-0.65
0.00
0.99
2.27
3.67
4.91
5.81
6.30
6.45
6.38
6.20
5.97
5.76
5.66
5.77
6.12
6.68
7.30
7.86
8.30
8.64
8.90
9.08
9.05
8.71
8.04
7.18
6.36
5.81
5.60
5.61
5.64
5.49
5.10
4.51
3.81
3.08
2.31
1.51
0.71
-0.05
-0.69
-1.17
-1.51
-1.80
-2.14
-2.62
-3.29
-4.12
-5.00
-5.81
-6.49
-7.06
-7.64
-8.37
-9.40
-10.67
-11.99
-13.01
-13.35
-12.78
-11.26
-8.96
-6.24
-3.53
-1.18
0.59
1.72
2.34
2.69
3.05
3.63
4.52
5.63
6.76
7.71
8.34
8.61
8.59
8.34
7.92
7.38
6.82
6.39
6.26
6.52
7.14
7.91
8.54
8.79
8.60
8.03
7.25
6.44
5.73
5.22
4.95
4.94
5.13
5.33
5.32
4.91
4.03
2.85
1.67
0.75
0.20
-0.11
-0.41
-0.94
-1.73
-2.65
-3.45
-3.99
-4.23
-4.32
-4.44
-4.73
-5.27
-6.06
-7.04
-8.12
-9.18
-10.02
-10.46
-10.38
-9.75
-8.66
-7.24
-5.65
-4.00
-2.36
-0.84
0.46
1.45
2.16
2.66
3.11
3.63
4.21
4.80
5.33
5.76
6.13
6.53
7.00
7.54
8.06
8.49
8.81
9.06
9.31
9.57
9.80
9.91
9.85
9.58
9.13
8.54
7.85
7.09
6.33
5.68
5.26
5.09
5.08
5.02
4.74
4.14
3.35
2.57
2.02
1.79
1.76
1.71
1.43
0.84
0.03
-0.79
-1.44
-1.81
-1.97
-2.11
-2.43
-3.10
-4.15
-5.50
-7.01
-8.47
-9.63
-10.27
-10.17
-9.22
-7.54
-5.42
-3.29
-1.51
-0.32
0.33
0.66
0.97
1.47
2.19
3.02
3.82
4.45
4.89
5.18
5.36
5.45
5.41
5.23
4.92
4.52
4.12
3.83
3.71
3.77
3.95
4.13
4.16
3.94
3.45
2.76
2.02
1.38
0.88
0.48
0.06
-0.47
-1.12
-1.83
-2.47
-2.99
-3.39
-3.78
-4.29
-5.00
-5.93
-7.00
-8.07
-9.04
-9.77
-10.18
-10.18
-9.70
-8.70
-7.26
-5.57
-3.93
-2.57
-1.60
-0.94
-0.38
0.30
1.20
2.25
3.29
4.15
4.74
5.05
5.16
5.13
4.99
4.77
4.55
4.38
4.30
4.32
4.33
4.25
4.03
3.69
3.32
2.99
2.71
2.41
1.98
1.35
0.57
-0.25
-0.97
-1.57
-2.10
-2.68
-3.37
-4.16
-4.97
-5.75
-6.51
-7.32
-8.24
-9.23
-10.14
-10.73
-10.85
-10.46
-9.65
-8.56
-7.32
-5.97
-4.54
-3.07
-1.67
-0.44
0.55
1.37
2.13
2.99
3.95
4.92
5.70
6.12
6.18
6.00
5.77
5.62
5.58
5.59
5.57
5.50
5.41
5.36
5.40
5.54
5.78
6.13
6.57
7.05
7.47
7.71
7.70
7.52
7.35
7.43
7.82
8.41
8.91
9.04
8.67
7.96
7.27
7.02
7.49
8.71
10.49
12.41
14.01
14.91
15.00
14.53
14.04
14.20
15.48
17.89
20.96
23.88
26.00
27.17
27.86
28.97
31.39
35.60
41.44
48.17
54.72
59.81
62.19
60.67
54.32
42.87
27.27
9.95
-5.36
-14.61
-14.91
-5.68
11.18
32.18
53.76
73.51
90.51
104.59
115.46
122.23
123.92
120.43
113.41
105.98
101.56
102.29
107.97
116.32
124.15
128.96
129.84
127.51
123.64
119.81
116.93
114.97
113.20
110.65
106.49
100.30
92.18
82.62
72.13
60.79
48.02
32.81
14.50
-6.38
-27.72
-46.51
-60.51
-69.73
-76.77
-85.55
-99.01
-117.19
-136.99
-153.68
-163.44
-165.25
-161.15
-154.82
-149.56
-146.83
-146.33
-146.94
-147.99
-149.73
-153.04
-158.48
-165.54
-172.43
-176.47
-174.94
-165.94
-149.10
-125.64
-98.08
-69.45
-42.49
-19.05
0.10
15.06
26.35
34.52
40.03
43.35
45.18
46.60
49.00
53.72
61.58
72.48
85.14
97.40
106.70
110.77
108.27
99.07
84.21
65.48
44.90
24.26
4.86
-12.54
-27.59
-40.17
-50.31
-58.01
-63.37
-66.64
-68.23
-68.73
-68.69
-68.54
-68.40
-68.24
-67.91
-67.37
-66.62
-65.75
-64.80
-63.72
-62.29
-60.21
-57.21
-53.12
-48.05
-42.39
-36.80
-31.97
-28.42
-26.23
-25.00
-24.07
-22.75
-20.71
-17.90
-14.53
-10.84
-6.97
-3.06
0.66
3.77
5.87
6.70
6.38
5.36
4.22
3.40
3.01
2.86
2.68
2.30
1.73
1.04
0.32
-0.50
-1.56
-2.98
-4.74
-6.70
-8.64
-10.32
-11.59
-12.38
-12.80
-13.02
-13.26
-13.74
-14.58
-15.77
-17.15
-18.48
-19.48
-20.05
-20.25
-20.36
-20.75
-21.77
-23.54
-25.92
-28.51
-30.75
-32.11
-32.21
-30.87
-28.21
-24.54
-20.28
-15.88
-11.78
-8.32
-5.69
-3.93
-2.86
-2.09
-1.17
0.31
2.52
5.30
8.20
10.63
12.11
12.38
11.57
10.04
8.31
6.82
5.88
5.55
5.74
6.27
6.89
7.40
7.62
7.45
6.81
5.75
4.47
3.21
2.25
1.74
1.66
1.80
1.90
1.70
1.15
0.32
-0.63
-1.54
-2.37
-3.18
-4.04
-5.04
-6.21
-7.50
-8.88
-10.33
-11.82
-13.35
-14.87
-16.32
-17.60
-18.75
-19.84
-21.06
-22.63
-24.67
-27.15
-29.74
-31.97
-33.22
-32.94
-30.87
-27.06
-22.01
-16.49
-11.36
-7.28
-4.53
-2.90
-1.82
-0.60
1.32
4.11
7.56
11.17
14.35
16.65
17.81
17.88
17.05
15.62
13.83
11.94
10.13
8.58
7.42
6.71
6.43
6.45
6.56
6.56
6.37
6.04
5.74
5.65
5.80
6.11
6.37
6.44
6.28
6.01
5.76
5.60
5.50
5.30
4.90
4.29
3.56
2.80
2.02
1.13
-0.03
-1.56
-3.43
-5.47
-7.47
-9.22
-10.66
-11.79
-12.71
-13.56
-14.48
-15.60
-17.03
-18.83
-20.87
-22.78
-23.95
-23.67
-21.41
-17.09
-11.27
-4.98
0.56
4.52
6.62
7.29
7.29
7.41
8.11
9.52
11.50
13.88
16.48
19.13
21.61
23.63
25.00
25.71
25.93
25.99
26.15
26.53
27.03
27.51
27.83
27.98
27.99
27.92
27.73
27.30
26.45
25.03
22.99
20.41
17.41
14.15
10.68
6.98
2.98
-1.33
-5.87
-10.34
-14.40
-17.71
-20.03
-21.31
-21.68
-21.45
-20.96
-20.53
-20.40
-20.63
-21.18
-21.90
-22.66
-23.43
-24.27
-25.29
-26.51
-27.78
-28.72
-28.83
-27.58
-24.68
-20.22
-14.68
-8.87
-3.70
0.19
2.57
3.76
4.36
5.07
6.39
8.41
10.95
13.58
15.86
17.48
18.27
18.27
17.67
16.76
15.84
15.09
14.58
14.19
13.82
13.38
12.91
12.54
12.37
12.31
12.17
11.65
10.54
8.90
6.99
5.24
3.97
3.27
2.94
2.60
1.85
0.53
-1.28
-3.25
-5.01
-6.37
-7.32
-8.08
-8.92
-10.10
-11.79
-14.12
-17.10
-20.65
-24.59
-28.48
-31.73
-33.63
-33.53
-31.09
-26.38
-19.96
-12.67
-5.43
1.07
6.45
10.72
14.07
16.71
18.77
20.24
21.06
21.16
20.56
19.30
17.54
15.50
13.50
11.92
11.08
11.20
12.26
14.00
15.98
17.70
18.74
18.85
17.98
16.24
13.86
11.11
8.29
5.66
3.51
2.03
1.28
1.18
1.42
1.62
1.42
0.61
-0.85
-2.83
-5.08
-7.40
-9.56
-11.45
-12.95
-14.08
-14.94
-15.76
-16.81
-18.32
-20.43
-23.01
-25.82
-28.41
-30.23
-30.73
-29.48
-26.30
-21.45
-15.51
-9.32
-3.70
0.82
4.17
6.68
8.89
11.28
14.09
17.21
20.34
23.07
25.10
26.23
26.44
25.81
24.56
22.99
21.41
20.09
19.16
18.58
18.13
17.57
16.73
15.64
14.48
13.46
12.69
12.09
11.44
10.50
9.12
7.35
5.34
3.31
1.41
-0.35
-2.09
-4.00
-6.17
-8.55
-10.95
-13.12
-14.96
-16.59
-18.36
-20.73
-24.00
-28.18
-32.95
-37.74
-42.03
-45.59
-48.66
-51.84
-55.86
-61.24
-67.99
-75.49
-82.84
-89.36
-95.00
-100.50
-106.88
-114.82
-124.14
-133.89
-142.81
-149.81
-154.04
-154.47
-149.53
-137.39
-116.92
-88.84
-56.09
-22.94
6.83
31.69
52.73
72.52
93.14
114.71
135.32
152.36
164.19
170.98
174.43
176.49
178.31
179.79
180.11
178.56
175.03
169.97
163.91
156.96
148.67
138.34
125.53
110.42
93.80
76.84
60.66
45.94
32.82
21.00
9.90
-1.08
-12.40
-24.32
-36.86
-49.94
-63.46
-77.28
-91.18
-104.83
-117.86
-129.90
-140.49
-148.92
-153.95
-153.80
-146.54
-130.86
-106.91
-76.65
-43.55
-11.40
16.82
39.84
57.98
72.44
84.15
93.23
99.03
100.78
98.29
92.36
84.51
76.34
68.94
62.51
56.66
50.88
45.05
39.52
34.79
31.15
28.21
25.07
20.81
14.96
7.99
1.06
-4.37
-7.29
-7.51
-5.72
-3.00
-0.32
1.91
3.87
5.97
8.51
11.34
13.98
15.85
16.63
16.42
15.58
14.49
13.27
11.68
9.26
5.60
0.61
-5.41
-11.83
-17.93
-23.04
-26.86
-29.35
-30.71
-31.08
-30.54
-29.01
-26.47
-23.14
-19.53
-16.31
-14.06
-13.04
-13.04
-13.47
-13.58
-12.74
-10.63
-7.30
-3.20
1.04
4.74
7.49
9.12
9.79
9.88
9.78
9.79
10.08
10.67
11.47
12.31
13.03
13.43
13.41
12.92
11.97
10.64
8.97
7.01
4.81
2.40
-0.14
-2.68
-5.15
-7.42
-9.41
-11.11
-12.59
-14.05
-15.83
-18.28
-21.58
-25.66
-30.09
-34.16
-37.10
-38.25
-37.29
-34.31
-29.80
-24.41
-18.85
-13.61
-8.84
-4.43
-0.05
4.58
9.55
14.66
19.49
23.54
26.41
27.93
28.25
27.77
26.95
26.19
25.65
25.25
24.77
24.02
22.89
21.41
19.62
17.46
14.79
11.52
7.80
4.15
1.27
-0.17
0.07
1.68
3.88
5.73
6.55
6.08
4.50
2.37
0.30
-1.16
-1.67
-1.14
0.25
2.10
3.93
5.28
5.91
5.77
5.01
3.76
2.08
-0.07
-2.71
-5.79
-9.14
-12.56
-15.94
-19.31
-22.78
-26.41
-30.14
-33.79
-37.18
-40.20
-42.78
-44.77
-45.83
-45.43
-43.12
-38.77
-32.81
-26.12
-19.67
-14.18
-9.78
-6.12
-2.62
1.18
5.42
9.87
14.23
18.24
21.77
24.83
27.40
29.40
30.69
31.22
31.06
30.44
29.62
28.83
28.15
27.52
26.82
25.95
24.82
23.43
21.81
20.03
18.24
16.59
15.25
14.31
13.74
13.42
13.18
12.93
12.64
12.35
12.07
11.73
11.20
10.37
9.18
7.74
6.25
4.87
3.71
2.76
1.93
1.13
0.25
-0.82
-2.13
-3.72
-5.55
-7.50
-9.43
-11.18
-12.71
-14.12
-15.59
-17.38
-19.65
-22.48
-25.75
-29.11
-32.02
-33.78
-33.72
-31.48
-27.07
-21.01
-14.12
-7.25
-0.97
4.56
9.56
14.38
19.30
24.43
29.62
34.70
39.52
43.97
47.97
51.36
54.01
55.85
56.96
57.62
58.25
59.20
60.69
62.72
65.02
67.26
69.05
70.02
69.86
68.28
65.17
60.57
54.82
48.43
42.05
36.22
31.21
27.01
23.36
19.94
16.60
13.39
10.46
7.95
5.78
3.67
1.26
-1.73
-5.35
-9.43
-13.66
-17.79
-21.70
-25.48
-29.38
-33.62
-38.32
-43.37
-48.47
-53.24
-57.43
-60.99
-64.14
-67.23
-70.51
-73.91
-76.91
-78.72
-78.47
-75.60
-70.05
-62.28
-53.09
-43.40
-34.06
-25.65
-18.54
-12.77
-8.26
-4.75
-1.92
0.57
2.98
5.42
7.83
10.04
11.79
12.90
13.35
13.32
13.10
13.02
13.28
13.88
14.53
14.81
14.30
12.70
10.04
6.56
2.74
-0.97
-4.32
-7.27
-10.04
-12.90
-16.01
-19.34
-22.65
-25.68
-28.26
-30.38
-32.22
-34.01
-35.93
-38.10
-40.54
-43.25
-46.15
-49.04
-51.44
-52.70
-52.13
-49.25
-44.13
-37.37
-30.08
-23.40
-18.19
-14.67
-12.49
-10.86
-8.93
-6.13
-2.28
2.37
7.37
12.17
16.36
19.65
21.94
23.27
23.77
23.66
23.18
22.58
22.02
21.59
21.22
20.79
20.13
19.08
17.54
15.48
12.95
10.09
7.07
4.12
1.36
-1.14
-3.47
-5.81
-8.38
-11.39
-14.94
-18.98
-23.35
-27.80
-32.04
-35.72
-38.45
-39.84
-39.46
-37.10
-32.78
-26.94
-20.22
-13.43
-7.22
-1.89
2.55
6.26
9.37
11.95
14.00
15.69
17.24
18.96
20.97
23.08
24.83
25.71
25.44
24.15
22.33
20.59
19.36
18.69
18.35
17.91
17.07
15.77
14.18
12.65
11.45
10.75
10.42
10.14
9.58
8.49
6.84
4.73
2.35
-0.15
-2.68
-5.17
-7.52
-9.63
-11.43
-12.94
-14.36
-15.94
-17.93
-20.43
-23.34
-26.34
-28.95
-30.69
-31.13
-30.05
-27.51
-23.89
-19.74
-15.56
-11.66
-8.06
-4.55
-0.85
3.18
7.50
11.86
15.93
19.42
22.17
24.19
25.58
26.53
27.20
27.78
28.39
29.07
29.78
30.35
30.56
30.20
29.14
27.50
25.52
23.56
21.89
20.55
19.37
18.08
16.47
14.56
12.61
10.94
9.77
9.10
8.71
8.28
7.55
6.38
4.79
2.86
0.70
-1.57
-3.86
-6.07
-8.12
-9.99
-11.66
-13.17
-14.61
-16.13
-17.88
-20.04
-22.63
-25.48
-28.24
-30.51
-31.98
-32.69
-33.11
-33.91
-35.74
-38.90
-43.05
-47.41
-50.93
-52.73
-52.42
-50.26
-47.08
-44.00
-42.00
-41.65
-42.92
-45.21
-47.68
-49.54
-50.43
-50.53
-50.57
-51.57
-54.47
-59.91
-68.07
-78.56
-90.65
-103.40
-115.94
-127.79
-139.09
-150.53
-162.93
-176.43
-189.81
-200.19
-203.48
-195.43
-172.89
-134.93
-83.65
-24.22
35.88
88.43
126.49
146.30
148.34
137.02
119.12
101.51
89.02
83.53
84.39
89.59
97.35
106.71
117.40
129.08
140.49
149.22
152.11
146.19
129.81
103.46
69.74
32.71
-3.13
-33.80
-56.43
-69.39
-72.31
-66.26
-54.04
-39.98
-28.91
-24.12
-25.28
-27.73
-24.10
-7.90
22.76
63.65
105.95
140.23
160.64
166.90
163.28
155.49
147.66
141.04
134.90
128.44
122.09
117.46
116.11
118.34
122.74
126.97
128.89
127.64
123.83
119.14
115.52
114.25
115.46
118.15
120.72
121.74
120.53
117.40
113.53
110.43
109.45
111.46
116.76
125.10
135.71
147.28
158.00
165.73
168.36
164.26
152.76
134.32
110.66
84.37
58.50
35.95
19.02
9.07
6.43
10.43
19.59
31.91
45.32
58.22
69.78
79.85
88.48
95.32
99.43
99.47
94.29
83.40
66.95
45.18
17.86
-15.62
-55.49
-100.45
-147.01
-189.88
-223.64
-244.71
-252.72
-250.49
-242.65
-233.69
-226.36
-221.08
-216.54
-210.91
-202.94
-192.52
-180.40
-167.52
-154.38
-140.86
-126.51
-111.06
-94.84
-78.97
-64.91
-54.04
-47.12
-43.99
-43.63
-44.51
-45.25
-45.14
-44.36
-43.69
-43.97
-45.43
-47.50
-49.00
-48.74
-46.14
-41.53
-36.03
-31.13
-28.18
-27.98
-30.59
-35.28
-40.79
-45.64
-48.60
-49.00
-46.90
-42.97
-38.20
-33.54
-29.54
-26.26
-23.39
-20.41
-16.91
-12.72
-7.97
-2.97
1.85
6.13
9.55
11.90
13.06
13.09
12.33
11.37
10.99
11.91
14.47
18.54
23.45
28.32
32.28
34.70
35.26
33.99
31.10
27.00
22.15
17.09
12.30
8.12
4.69
1.83
-0.96
-4.41
-9.19
-15.68
-23.77
-32.92
-42.48
-52.07
-61.79
-72.04
-83.07
-94.40
-104.82
-112.94
-118.00
-120.45
-121.85
-124.49
-130.54
-141.59
-158.32
-180.50
-207.00
-235.67
-263.31
-285.95
-299.62
-301.31
-289.88
-266.30
-233.24
-193.99
-151.50
-107.43
-61.80
-13.43
39.03
95.53
153.46
207.55
250.97
277.53
283.97
271.11
243.45
207.62
170.19
136.25
109.09
90.59
81.64
82.39
91.99
108.38
128.37
147.85
162.24
167.15
159.32
137.85
105.06
66.34
28.61
-1.73
-20.39
-25.45
-16.59
5.64
39.39
80.14
119.78
147.81
154.83
136.87
98.07
49.56
5.11
-24.12
-33.36
-24.62
-4.38
19.83
41.88
58.07
66.88
68.28
63.37
54.04
42.94
33.12
27.76
29.45
39.52
57.45
80.65
105.12
126.59
142.03
150.58
153.54
153.35
152.40
152.26
153.38
155.40
157.02
155.88
148.37
130.49
99.82
57.60
9.65
-35.05
-67.59
-82.87
-81.52
-69.09
-53.06
-39.29
-30.14
-24.82
-21.40
-18.72
-17.20
-17.95
-21.46
-26.75
-31.76
-34.53
-34.42
-32.56
-31.15
-32.45
-37.58
-46.03
-56.03
-65.36
-72.38
-76.55
-78.61
-80.05
-82.52
-87.10
-93.92
-102.15
-110.27
-116.56
-119.56
-118.45
-113.15
-104.27
-92.85
-80.08
-67.01
-54.37
-42.49
-31.41
-21.01
-11.18
-1.83
7.18
15.93
24.46
32.58
39.84
45.59
49.18
50.28
49.08
46.28
42.81
39.44
36.54
33.99
31.47
28.65
25.40
21.79
18.00
14.07
9.92
5.42
0.54
-4.51
-9.31
-13.37
-16.37
-18.30
-19.45
-20.33
-21.44
-23.09
-25.31
-27.92
-30.51
-32.76
-34.37
-35.28
-35.55
-35.40
-35.10
-34.83
-34.73
-34.78
-34.94
-35.10
-35.29
-35.60
-36.19
-37.29
-39.01
-41.35
-44.05
-46.63
-48.35
-48.48
-46.42
-42.01
-35.62
-28.13
-20.66
-14.19
-9.32
-5.99
-3.66
-1.51
1.20
4.75
8.95
13.17
16.67
18.95
19.91
19.87
19.31
18.65
18.09
17.63
17.24
16.93
16.75
16.75
16.81
16.71
16.24
15.33
14.08
12.65
11.23
9.89
8.62
7.42
6.25
5.14
4.01
2.80
1.44
-0.07
-1.60
-3.03
-4.28
-5.40
-6.44
-7.48
-8.46
-9.32
-10.00
-10.67
-11.52
-12.72
-14.26
-15.93
-17.45
-18.63
-19.55
-20.48
-21.80
-23.74
-26.28
-29.05
-31.49
-32.97
-32.93
-31.05
-27.27
-21.87
-15.41
-8.63
-2.30
3.03
7.10
10.00
12.05
13.58
14.84
15.89
16.70
17.19
17.35
17.22
16.92
16.47
15.92
15.29
14.66
14.17
13.94
13.97
14.14
14.23
14.07
13.64
13.08
12.62
12.39
12.29
12.03
11.22
9.66
7.42
4.88
2.45
0.44
-1.17
-2.62
-4.22
-6.15
-8.35
-10.59
-12.55
-14.01
-14.96
-15.54
-16.09
-16.99
-18.57
-20.93
-23.92
-27.05
-29.60
-30.85
-30.28
-27.82
-23.82
-18.98
-14.09
-9.77
-6.31
-3.62
-1.37
0.82
3.19
5.77
8.33
10.61
12.36
13.50
14.11
14.36
14.48
14.52
14.49
14.27
13.66
12.54
10.88
8.80
6.50
4.23
2.20
0.52
-0.78
-1.70
-2.25
-2.41
-2.20
-1.74
-1.28
-1.18
-1.77
-3.21
-5.39
-7.95
-10.43
-12.45
-13.78
-14.42
-14.59
-14.68
-15.16
-16.47
-18.86
-22.21
-25.91
-28.93
-30.16
-28.79
-24.67
-18.45
-11.34
-4.69
0.48
3.84
5.71
6.89
8.23
10.36
13.44
17.28
21.40
25.27
28.38
30.36
31.03
30.36
28.56
26.00
23.23
20.86
19.40
19.13
19.90
21.23
22.44
22.90
22.29
20.67
18.39
15.90
13.56
11.53
9.82
8.32
6.95
5.61
4.17
2.44
0.22
-2.56
-5.79
-9.08
-12.00
-14.18
-15.56
-16.46
-17.44
-19.16
-22.11
-26.44
-31.83
-37.53
-42.41
-45.29
-45.17
-41.65
-35.07
-26.44
-17.20
-8.68
-1.80
3.21
6.71
9.37
11.94
14.95
18.59
22.72
26.90
30.48
32.80
33.43
32.33
29.94
27.06
24.54
22.98
22.54
22.93
23.67
24.26
24.44
24.16
23.50
22.59
21.45
20.10
18.59
17.00
15.47
14.09
12.85
11.61
10.20
8.47
6.44
4.23
2.08
0.21
-1.24
-2.24
-2.93
-3.49
-4.09
-4.85
-5.75
-6.69
-7.59
-8.45
-9.39
-10.66
-12.39
-14.54
-16.84
-18.91
-20.36
-21.11
-21.37
-21.57
-22.25
-23.82
-26.53
-30.27
-34.63
-38.80
-41.70
-42.29
-39.86
-34.43
-26.74
-18.17
-10.17
-3.78
0.65
3.45
5.34
7.05
9.04
11.50
14.39
17.54
20.75
23.70
25.98
27.20
27.17
26.02
24.25
22.45
21.09
20.36
20.12
20.13
20.21
20.35
20.60
20.93
21.11
20.80
19.73
17.92
15.64
13.31
11.30
9.67
8.24
6.67
4.76
2.52
0.13
-2.07
-3.84
-5.10
-5.97
-6.70
-7.54
-8.66
-10.10
-11.76
-13.49
-15.08
-16.40
-17.40
-18.13
-18.77
-19.54
-20.70
-22.48
-24.94
-27.96
-31.11
-33.73
-35.01
-34.23
-31.06
-25.70
-18.93
-11.83
-5.46
-0.44
3.15
5.73
7.88
10.04
12.30
14.53
16.47
18.00
19.17
20.10
20.87
21.42
21.61
21.35
20.68
19.80
19.00
18.47
18.26
18.28
18.30
18.14
17.66
16.84
15.73
14.41
12.99
11.50
9.96
8.38
6.79
5.29
3.96
2.84
1.85
0.88
-0.21
-1.44
-2.78
-4.04
-5.10
-5.92
-6.63
-7.44
-8.56
-10.09
-11.95
-13.93
-15.75
-17.20
-18.19
-18.83
-19.47
-20.52
-22.40
-25.26
-28.92
-32.79
-35.95
-37.43
-36.47
-32.84
-26.95
-19.76
-12.47
-6.15
-1.36
1.91
4.17
6.10
8.26
10.86
13.77
16.70
19.31
21.44
23.02
24.07
24.54
24.45
23.80
22.73
21.53
20.51
19.90
19.76
19.95
20.16
20.13
19.62
18.58
17.15
15.49
13.82
12.28
10.94
9.75
8.60
7.39
6.05
4.57
3.03
1.53
0.14
-1.16
-2.41
-3.69
-5.04
-6.46
-7.90
-9.33
-10.72
-12.11
-13.50
-14.90
-16.27
-17.56
-18.73
-19.82
-20.91
-22.12
-23.59
-25.41
-27.62
-30.10
-32.56
-34.48
-35.23
-34.22
-31.14
-26.08
-19.59
-12.51
-5.74
0.02
4.37
7.26
8.95
9.86
10.53
11.43
12.89
14.94
17.33
19.61
21.35
22.25
22.26
21.59
20.54
19.46
18.58
18.05
17.91
18.09
18.44
18.77
18.91
18.77
18.35
17.67
16.75
15.53
13.99
12.17
10.19
8.28
6.59
5.15
3.84
2.50
0.99
-0.68
-2.37
-3.91
-5.18
-6.18
-7.00
-7.76
-8.57
-9.49
-10.59
-11.90
-13.43
-15.11
-16.88
-18.62
-20.34
-22.12
-24.21
-26.85
-30.04
-33.49
-36.43
-37.92
-36.99
-33.08
-26.25
-17.23
-7.29
2.10
9.65
14.55
16.65
16.45
14.89
13.07
11.88
11.82
12.87
14.59
16.37
17.62
17.99
17.43
16.13
14.41
12.71
11.43
10.84
11.11
12.11
13.57
15.09
16.30
16.96
16.99
16.50
15.69
14.79
13.95
13.28
12.73
12.12
11.22
9.87
8.02
5.86
3.69
1.78
0.33
-0.67
-1.34
-1.83
-2.32
-2.95
-3.90
-5.28
-7.19
-9.56
-12.20
-14.83
-17.18
-19.11
-20.58
-21.70
-22.67
-23.71
-25.09
-27.02
-29.55
-32.44
-35.08
-36.65
-36.38
-33.81
-29.08
-22.82
-16.02
-9.63
-4.31
-0.35
2.39
4.27
5.77
7.35
9.30
11.70
14.38
16.99
19.11
20.46
20.96
20.81
20.30
19.78
19.47
19.43
19.59
19.84
20.09
20.24
20.27
20.11
19.69
18.91
17.75
16.27
14.61
12.97
11.50
10.24
9.10
7.89
6.45
4.68
2.67
0.60
-1.30
-2.86
-3.98
-4.72
-5.24
-5.78
-6.59
-7.76
-9.28
-10.99
-12.64
-14.05
-15.15
-15.95
-16.64
-17.44
-18.60
-20.35
-22.82
-25.93
-29.33
-32.42
-34.38
-34.50
-32.44
-28.34
-22.81
-16.73
-10.93
-5.92
-1.87
1.33
3.92
6.08
7.95
9.66
11.31
12.98
14.66
16.22
17.41
17.97
17.80
17.00
15.84
14.64
13.65
13.03
12.77
12.89
13.27
13.83
14.39
14.76
14.79
14.41
13.64
12.53
11.10
9.37
7.31
5.01
2.64
0.43
-1.46
-2.98
-4.28
-5.53
-6.84
-8.24
-9.64
-10.93
-12.08
-13.13
-14.21
-15.52
-17.23
-19.50
-22.41
-25.96
-29.94
-33.91
-37.25
-39.24
-39.25
-36.99
-32.62
-26.76
-20.30
-14.17
-9.12
-5.49
-3.23
-1.90
-0.86
0.53
2.62
5.35
8.24
10.51
11.44
10.67
8.43
5.43
2.60
0.57
-0.64
-1.58
-3.14
-6.03
-10.40
-15.71
-21.05
-25.58
-29.05
-32.03
-35.61
-41.10
-49.31
-60.20
-72.91
-85.90
-97.44
-106.18
-111.65
-114.59
-117.08
-122.33
-133.85
-154.11
-183.09
-217.33
-250.44
-274.84
-284.46
-276.92
-254.21
-221.50
-184.56
-147.37
-110.80
-72.99
-31.13
16.33
68.09
119.73
164.89
197.31
212.85
210.86
194.36
169.17
142.15
119.52
105.55
101.90
107.64
119.76
133.94
145.61
150.98
147.98
136.75
119.51
99.85
81.78
68.69
62.70
64.04
71.11
80.83
89.57
94.14
92.84
85.80
74.94
63.15
53.44
48.08
48.00
52.66
60.17
67.86
72.97
73.52
68.79
59.47
47.32
34.29
21.98
11.26
2.38
-4.62
-9.57
-12.16
-12.18
-9.83
-5.81
-1.28
2.61
5.03
5.69
4.82
2.94
0.62
-1.70
-3.76
-5.48
-6.90
-8.17
-9.48
-11.10
-13.25
-16.14
-19.81
-24.20
-29.04
-33.88
-38.12
-41.13
-42.41
-41.72
-39.18
-35.21
-30.47
-25.57
-20.96
-16.83
-13.16
-9.72
-6.29
-2.67
1.16
5.08
8.76
11.80
13.86
14.81
14.87
14.51
14.31
14.78
16.15
18.32
20.86
23.22
24.83
25.28
24.36
22.15
18.96
15.25
11.54
8.12
4.96
1.72
-2.12
-6.85
-12.30
-17.74
-22.08
-24.30
-23.90
-21.21
-17.37
-14.11
-13.24
-16.13
-23.25
-33.98
-46.60
-58.76
-68.00
-72.46
-71.32
-65.05
-55.14
-43.65
-32.60
-23.40
-16.59
-11.77
-7.95
-4.00
0.86
6.74
13.06
18.86
23.26
25.98
27.47
28.86
31.57
36.88
45.56
57.68
72.59
88.93
104.91
118.73
129.10
135.66
138.94
139.85
139.07
136.64
132.07
125.00
115.75
105.48
95.81
88.02
82.36
78.04
73.77
68.50
61.89
54.31
46.45
38.91
32.10
26.32
21.94
19.27
18.42
19.04
20.20
20.56
18.70
13.54
4.72
-7.18
-20.79
-34.29
-45.99
-54.93
-61.11
-65.37
-68.77
-72.02
-75.06
-77.33
-78.33
-78.17
-77.56
-77.36
-77.94
-79.02
-80.02
-80.58
-80.78
-80.70
-79.83
-76.79
-69.79
-57.71
-41.07
-22.14
-4.04
10.65
21.00
27.82
32.78
37.18
41.25
44.19
45.00
43.34
40.05
37.03
36.54
40.33
48.85
61.05
74.81
87.64
97.51
103.17
104.04
99.79
90.00
74.32
52.92
27.01
-0.95
-27.62
-49.48
-63.69
-68.70
-64.43
-52.08
-33.81
-12.27
9.71
29.57
45.25
55.54
60.34
60.74
58.82
57.07
57.47
60.70
65.66
69.69
69.39
61.95
46.17
22.99
-4.90
-33.89
-60.55
-82.32
-97.89
-106.91
-109.74
-107.03
-99.62
-88.52
-75.01
-60.69
-47.18
-35.87
-27.52
-22.09
-18.81
-16.50
-13.98
-10.43
-5.65
-0.01
5.74
10.73
14.18
15.50
14.34
10.50
3.85
-5.61
-17.63
-31.58
-46.35
-60.50
-72.55
-81.46
-86.91
-89.37
-89.95
-89.88
-90.11
-90.98
-92.27
-93.35
-93.54
-92.39
-89.82
-86.14
-81.96
-77.99
-74.83
-72.79
-71.85
-71.73
-72.07
-72.67
-73.63
-75.32
-78.15
-82.33
-87.66
-93.52
-98.88
-102.47
-102.92
-98.97
-89.67
-74.70
-54.63
-31.06
-6.36
16.90
36.69
52.16
63.80
73.00
81.33
89.84
98.67
107.14
113.97
117.72
117.10
111.22
99.92
84.02
65.57
47.51
32.95
24.12
21.47
23.58
27.84
31.67
33.54
33.50
32.73
32.69
34.36
37.94
43.19
49.81
57.68
66.59
75.80
83.88
89.11
90.23
87.01
80.28
71.16
60.16
46.67
29.28
6.87
-20.22
-49.67
-77.58
-99.76
-113.04
-116.11
-109.46
-94.66
-73.32
-46.38
-14.17
22.84
63.33
104.57
142.61
173.11
192.37
198.33
190.84
171.31
142.12
106.16
66.68
27.43
-7.55
-34.61
-51.61
-58.69
-58.31
-54.37
-50.73
-50.01
-53.12
-59.58
-68.37
-78.47
-89.00
-98.94
-106.85
-111.14
-110.73
-105.61
-96.97
-86.69
-76.59
-67.75
-60.30
-53.64
-46.99
-39.78
-31.84
-23.37
-14.74
-6.28
1.77
9.24
16.02
21.96
26.93
30.84
33.68
35.54
36.54
36.91
36.89
36.76
36.76
37.03
37.61
38.36
39.06
39.44
39.26
38.39
36.72
34.24
30.99
27.08
22.63
17.82
12.84
7.89
3.17
-1.25
-5.43
-9.60
-14.06
-19.08
-24.83
-31.47
-39.29
-48.84
-60.87
-76.07
-94.68
-116.27
-139.64
-163.15
-184.95
-203.38
-217.21
-225.78
-229.10
-227.81
-222.94
-215.43
-205.82
-194.00
-179.54
-162.09
-141.91
-120.02
-97.98
-77.37
-59.44
-44.73
-33.06
-23.44
-13.93
-1.81
15.89
41.25
74.22
111.92
149.15
180.08
200.35
208.67
207.07
199.81
191.50
185.36
182.48
181.99
181.93
180.14
174.87
165.03
150.34
131.40
109.81
87.92
68.37
53.45
44.52
41.61
43.36
47.36
50.84
51.41
47.81
40.22
30.20
20.03
11.91
7.11
5.57
6.11
6.95
6.55
4.12
-0.23
-5.73
-11.36
-16.25
-19.96
-22.42
-23.88
-24.69
-25.18
-25.68
-26.54
-28.10
-30.55
-33.80
-37.27
-40.07
-41.19
-39.99
-36.52
-31.51
-26.14
-21.44
-17.88
-15.17
-12.52
-9.05
-4.27
1.79
8.61
15.51
21.93
27.58
32.47
36.74
40.57
44.06
47.23
50.03
52.41
54.26
55.45
55.86
55.42
54.17
52.24
49.77
46.88
43.58
39.93
36.12
32.54
29.63
27.68
26.51
25.45
23.52
19.81
13.94
6.29
-2.06
-9.63
-15.06
-17.54
-17.08
-14.37
-10.48
-6.34
-2.33
1.84
6.86
13.41
21.60
30.76
39.52
46.19
49.26
47.97
42.71
35.16
28.11
24.63
27.06
35.78
48.83
62.22
71.34
72.54
64.31
47.57
24.96
-0.11
-24.67
-46.57
-64.44
-77.22
-84.11
-85.04
-80.86
-73.18
-63.26
-51.31
-36.54
-18.24
2.55
22.20
35.11
36.22
23.68
0.77
-25.77
-48.79
-63.72
-69.63
-68.33
-62.33
-52.99
-40.35
-22.87
-0.73
23.11
44.06
58.40
65.03
65.49
62.83
60.03
61.55
69.11
80.82
92.43
99.96
101.46
97.02
88.25
77.49
71.54
74.83
87.39
105.67
125.78
145.61
164.71
183.55
202.65
227.82
261.62
300.93
338.14
365.67
379.25
378.40
365.81
311.33
205.83
65.30
-78.23
-199.58
-290.05
-351.39
-388.42
-405.98
-410.40
-400.56
-376.87
-343.39
-306.60
-271.68
-240.84
-215.66
-197.69
-188.42
-183.92
-180.51
-176.33
-171.39
-166.03
-160.15
-153.96
-148.20
-143.88
-138.71
-131.00
-120.74
-109.45
-98.68
-88.98
-80.16
-71.63
-62.91
-52.40
-39.52
-25.13
-10.99
1.22
10.65
17.09
20.83
22.48
23.35
24.47
26.20
28.20
29.71
30.04
28.85
26.41
23.60
21.63
21.70
24.50
29.99
37.35
45.14
51.60
55.03
54.23
48.79
39.28
27.03
13.87
1.51
-8.70
-15.90
-19.63
-19.58
-15.63
-7.97
2.72
15.19
27.92
39.59
49.49
57.53
63.99
69.07
72.77
75.01
76.08
76.72
77.99
80.68
84.82
89.64
93.91
96.59
97.32
96.48
94.92
93.47
92.53
91.93
91.02
88.99
85.08
78.83
70.04
58.70
44.92
28.94
11.20
-7.57
-26.29
-43.80
-59.01
-71.22
-80.17
-85.99
-89.13
-90.19
-89.74
-88.27
-85.96
-82.74
-78.40
-72.96
-66.84
-60.95
-56.36
-53.91
-53.78
-55.40
-57.59
-58.99
-58.49
-55.61
-50.58
-44.27
-37.89
-32.52
-28.77
-26.63
-25.49
-24.52
-23.00
-20.54
-17.06
-12.67
-7.53
-1.79
4.21
9.91
14.51
17.18
17.40
15.26
11.47
7.11
3.18
0.15
-2.11
-4.20
-6.62
-9.39
-11.99
-13.61
-13.69
-12.32
-10.27
-8.62
-8.17
-9.07
-10.64
-11.65
-10.70
-6.57
1.42
13.31
28.36
45.06
61.41
75.23
84.73
88.99
88.15
83.24
75.71
66.75
56.87
45.84
32.97
17.72
0.20
-18.68
-37.28
-53.80
-66.78
-75.57
-80.41
-82.26
-82.35
-81.68
-80.81
-79.78
-78.37
-76.33
-73.52
-69.99
-65.78
-60.85
-54.99
-47.99
-39.80
-30.83
-22.03
-14.70
-10.24
-9.52
-12.70
-19.05
-27.21
-35.57
-42.64
-47.25
-48.61
-46.29
-40.17
-30.54
-18.07
-3.79
11.17
25.84
39.47
51.58
61.77
69.65
74.80
76.92
75.94
72.07
65.79
57.76
48.70
39.31
30.26
22.12
15.39
10.37
7.21
5.87
6.13
7.58
9.66
11.74
13.21
13.63
12.79
10.82
8.12
5.23
2.74
1.12
0.65
1.35
3.08
5.53
8.46
11.64
14.96
18.33
21.71
25.09
28.43
31.65
34.52
36.79
38.22
38.78
38.84
39.12
40.39
43.17
47.28
51.89
55.79
57.99
58.25
57.39
57.20
59.94
67.65
81.36
100.48
122.55
143.48
158.46
163.27
155.75
136.66
109.58
79.43
50.45
24.40
0.04
-25.75
-55.70
-89.89
-124.72
-153.55
-168.83
-164.43
-137.40
-88.89
-24.24
47.69
115.87
169.39
200.29
205.67
188.42
155.74
116.45
77.99
44.90
18.68
-1.03
-15.28
-25.01
-31.03
-33.97
-34.28
-32.04
-27.20
-20.32
-13.25
-9.17
-11.41
-22.07
-40.82
-64.89
-90.37
-113.45
-131.57
-143.46
-148.63
-146.81
-137.91
-122.72
-103.56
-84.38
-69.54
-62.12
-62.38
-67.73
-73.99
-77.59
-77.35
-75.03
-74.21
-78.27
-88.44
-103.01
-118.14
-129.54
-134.17
-131.34
-122.61
-110.87
-98.88
-88.19
-78.84
-70.19
-61.66
-53.05
-44.54
-36.23
-27.80
-18.22
-6.33
8.35
23.88
36.62
43.03
41.50
33.03
20.70
8.36
-0.88
-5.40
-6.66
-7.59
-10.39
-15.32
-21.09
-25.99
-28.60
-28.06
-23.49
-16.32
-9.62
-6.80
-10.53
-22.56
-43.72
-73.49
-110.01
-138.20
-144.89
-126.30
-90.45
-50.00
-14.35
11.96
27.54
32.46
27.27
15.97
2.97
-6.35
-6.44
6.29
31.39
67.17
103.31
130.13
142.38
140.67
129.58
114.68
100.01
87.31
77.06
69.47
67.46
71.62
80.64
91.59
100.76
104.46
100.05
86.94
66.81
44.05
23.27
7.64
-1.99
-7.45
-10.69
-13.63
-17.07
-20.58
-22.33
-20.91
-16.34
-10.18
-4.59
-1.04
0.20
0.12
-0.08
0.46
1.49
1.97
0.92
-1.80
-5.14
-7.56
-7.77
-5.49
-1.47
2.79
5.78
6.67
5.44
2.78
-0.33
-2.96
-4.58
-5.16
-5.01
-4.49
-3.79
-2.97
-2.14
-1.61
-1.81
-3.06
-5.23
-7.71
-9.54
-9.78
-8.27
-5.72
-3.37
-2.28
-2.78
-4.47
-6.55
-8.38
-9.40
-9.60
-9.30
-8.64
-7.26
-4.59
-0.33
5.31
11.62
18.43
25.10
30.51
33.60
34.06
32.48
29.86
27.00
24.20
22.33
21.29
20.17
18.40
16.57
16.24
19.08
26.56
40.07
62.22
93.54
130.74
167.14
194.72
206.71
199.65
174.67
128.10
66.82
5.39
-42.91
-73.92
-91.26
-100.25
-104.15
-104.00
-100.15
-92.14
-81.39
-71.00
-63.86
-60.79
-60.42
-60.51
-59.26
-56.01
-50.13
-42.55
-35.39
-30.64
-28.80
-28.77
-28.94
-28.02
-25.62
-21.57
-16.63
-12.31
-9.84
-9.32
-9.79
-9.94
-8.90
-6.63
-3.53
-0.54
1.20
1.11
-0.41
-2.14
-2.75
-1.49
1.40
4.85
7.47
7.92
5.77
1.67
-2.85
-6.29
-7.75
-7.51
-7.14
-8.38
-13.06
-22.38
-36.54
-54.20
-72.23
-85.96
-89.95
-81.36
-60.59
-32.12
-2.95
20.25
33.96
39.00
39.56
40.49
44.70
52.20
60.12
64.91
63.96
56.31
42.41
23.77
2.57
-18.43
-36.03
-47.33
-50.57
-46.15
-36.62
-25.96
-17.81
-13.50
-11.54
-8.79
-3.13
4.57
10.60
10.86
3.99
-6.90
-15.57
-16.19
-7.07
8.13
22.25
28.86
25.91
16.44
6.17
-0.25
-1.62
-0.02
1.22
-0.09
-3.81
-8.09
-10.84
-10.75
-7.93
-3.66
0.60
4.07
6.37
8.03
9.83
12.26
15.35
18.68
21.88
24.85
27.86
31.27
35.28
39.55
43.32
45.87
46.89
46.80
46.56
47.24
49.57
53.94
60.20
67.66
74.92
79.64
78.83
69.73
51.10
24.45
-5.73
-33.57
-53.92
-64.19
-65.05
-59.37
-50.22
-39.12
-25.68
-8.57
12.03
33.45
51.11
60.43
59.04
47.93
30.81
11.43
-5.73
-18.05
-25.43
-29.45
-31.75
-32.60
-30.61
-23.73
-11.01
6.27
24.02
36.87
40.43
33.37
18.12
-0.24
-16.15
-25.76
-28.07
-24.87
-19.17
-13.45
-8.61
-4.15
0.87
6.79
12.87
17.69
19.76
18.43
14.29
8.95
4.28
1.56
0.93
1.43
1.54
-0.15
-4.28
-10.44
-17.53
-24.25
-29.80
-33.92
-36.67
-38.07
-37.87
-35.74
-31.65
-26.01
-19.61
-13.10
-6.49
0.84
9.60
19.62
29.29
35.75
36.15
29.06
15.52
-1.28
-17.32
-29.56
-37.09
-41.16
-44.08
-47.75
-52.66
-57.74
-61.12
-61.06
-56.75
-48.35
-36.83
-23.37
-9.07
5.17
18.69
30.90
41.31
49.42
54.83
57.27
56.78
53.79
49.07
43.65
38.47
34.14
30.87
28.54
26.91
25.81
25.17
25.00
25.25
25.71
25.99
25.64
24.33
22.01
18.86
15.33
11.87
8.76
6.00
3.32
0.27
-3.52
-8.22
-13.66
-19.39
-24.83
-29.38
-32.58
-34.17
-34.19
-32.92
-30.89
-28.69
-26.78
-25.28
-23.92
-22.23
-19.77
-16.43
-12.49
-8.50
-5.06
-2.57
-1.23
-1.09
-2.17
-4.44
-7.76
-11.70
-15.57
-18.50
-19.79
-19.06
-16.43
-12.43
-7.78
-3.25
0.57
3.34
4.93
5.49
5.29
4.70
4.07
3.69
3.68
4.06
4.81
5.88
7.26
8.91
10.82
12.96
15.31
17.93
20.88
24.18
27.75
31.42
34.85
37.68
39.61
40.55
40.74
40.80
41.70
44.46
49.90
58.24
69.03
81.22
93.53
104.79
114.29
121.84
127.69
132.29
136.14
139.69
143.19
146.68
149.85
152.08
152.49
150.09
143.99
133.61
118.84
100.09
78.30
54.69
30.55
6.88
-15.72
-37.07
-57.12
-75.80
-92.83
-107.81
-120.33
-130.18
-137.36
-142.15
-144.99
-146.49
-147.26
-147.90
-148.78
-150.06
-151.76
-153.88
-156.49
-159.76
-163.88
-168.84
-174.28
-179.39
-182.99
-183.71
-180.37
-172.25
-159.35
-142.39
-122.62
-101.51
-80.48
-60.75
-43.36
-29.18
-18.88
-12.69
-10.28
-10.78
-13.18
-16.65
-20.83
-25.71
-31.38
-37.80
-44.70
-51.75
-58.73
-65.68
-72.77
-80.09
-87.40
-94.07
-99.24
-102.03
-101.90
-98.88
-93.62
-87.24
-81.04
-76.12
-73.07
-71.84
-71.63
-71.09
-68.45
-61.81
-49.57
-30.97
-6.65
21.20
48.91
72.49
88.77
96.37
95.81
89.04
78.55
66.64
54.93
44.22
34.97
27.60
22.60
20.28
20.64
23.33
27.78
33.34
39.13
44.47
49.15
53.35
57.28
60.97
64.22
66.70
68.03
67.00
62.93
56.19
48.18
40.34
33.59
28.32
24.51
21.92
18.21
11.58
2.11
-8.37
-17.87
-25.21
-30.03
-32.44
-32.69
-34.19
-39.38
-48.00
-57.32
-64.78
-69.36
-71.40
-71.79
-71.45
-75.38
-87.28
-107.14
-131.63
-157.35
-182.76
-207.91
-233.50
-233.88
-195.18
-124.27
-43.69
27.35
81.78
121.01
149.22
170.31
186.79
195.63
193.91
182.51
166.09
149.87
137.28
129.66
126.71
126.93
125.09
116.53
99.68
76.85
50.92
24.34
-0.13
-18.80
-27.44
-22.42
-6.18
16.77
40.93
60.79
72.72
76.37
74.35
70.24
65.62
60.04
53.05
45.15
37.63
32.15
29.81
30.52
32.88
34.60
33.50
29.28
23.37
17.88
14.64
14.35
16.40
19.22
21.05
20.55
17.70
13.61
9.91
8.15
9.28
13.34
19.14
24.40
26.25
22.44
12.29
-2.72
-19.20
-33.29
-41.84
-43.67
-39.94
-33.27
-26.44
-21.17
-17.86
-15.88
-14.32
-12.53
-10.20
-7.40
-4.21
-0.66
3.18
7.14
10.74
13.30
14.03
12.29
7.69
0.64
-7.69
-15.46
-20.68
-21.98
-19.16
-13.35
-6.48
-0.89
2.31
3.77
5.67
10.77
21.24
37.76
58.86
81.31
100.12
110.39
108.60
93.51
66.66
31.93
-5.32
-40.35
-66.85
-82.15
-87.04
-84.66
-79.08
-74.15
-72.63
-74.97
-80.23
-83.99
-81.07
-66.76
-38.86
0.92
46.87
90.59
123.39
137.59
128.78
96.42
44.77
-17.55
-78.98
-127.70
-154.80
-153.48
-124.24
-75.59
-22.00
21.29
43.58
42.27
22.95
-3.69
-26.61
-39.36
-41.27
-35.95
-28.20
-21.04
-14.82
-8.18
0.15
9.84
18.44
22.87
21.04
13.13
1.80
-8.92
-15.48
-16.28
-12.60
-8.42
-8.58
-16.76
-34.03
-58.71
-87.54
-117.63
-147.26
-175.72
-202.22
-224.99
-241.92
-252.73
-260.85
-273.34
-297.87
-338.11
-390.26
-443.27
-482.77
-497.11
-481.91
-441.13
-384.17
-321.14
-259.06
-200.72
-146.00
-94.33
-46.14
-2.87
34.06
64.32
88.98
109.65
127.46
142.61
154.62
162.93
167.90
171.01
174.52
180.73
191.19
206.17
224.86
246.00
268.55
292.48
319.07
350.56
389.14
435.15
485.54
533.50
569.62
584.88
573.92
537.29
481.38
416.07
351.13
293.09
243.97
202.06
164.09
127.38
91.01
55.62
22.40
-8.09
-36.46
-64.19
-92.77
-122.73
-153.06
-181.67
-206.19
-224.98
-237.58
-244.58
-247.00
-245.71
-241.22
-233.86
-223.96
-211.85
-197.65
-181.22
-162.38
-141.40
-119.35
-97.80
-78.06
-60.40
-43.69
-25.96
-5.44
18.50
44.92
71.85
97.22
119.57
138.40
153.76
165.83
174.45
179.25
179.93
176.60
169.86
160.77
150.45
139.88
129.67
120.09
111.23
103.10
95.77
89.35
83.94
79.56
76.14
73.58
71.80
70.74
70.39
70.66
71.43
72.56
73.93
75.19
75.69
74.46
70.73
64.49
57.02
50.70
48.12
50.84
58.41
68.29
76.82
80.74
78.54
70.86
59.99
48.75
39.41
33.14
30.09
29.78
31.54
34.81
39.22
44.62
50.84
57.56
64.25
70.19
74.68
77.23
77.76
76.58
74.15
70.80
66.52
61.00
53.89
45.09
34.96
24.25
13.86
4.49
-3.63
-10.72
-17.34
-24.04
-31.27
-39.12
-47.45
-55.85
-63.81
-70.78
-76.34
-80.35
-83.02
-84.85
-86.42
-88.12
-89.98
-91.65
-92.61
-92.46
-91.08
-88.72
-85.81
-82.82
-80.09
-77.76
-75.82
-74.12
-72.36
-70.18
-67.19
-63.23
-58.49
-53.64
-49.74
-47.90
-48.81
-52.45
-57.92
-63.76
-68.41
-70.73
-70.38
-67.78
-63.82
-59.45
-55.28
-51.44
-47.72
-43.83
-39.67
-35.36
-31.21
-27.48
-24.27
-21.48
-18.98
-16.71
-14.74
-13.21
-12.15
-11.43
-10.67
-9.48
-7.54
-4.85
-1.71
1.36
3.80
5.30
5.83
5.72
5.47
5.52
6.08
7.09
8.26
9.25
9.90
10.22
10.42
10.74
11.29
11.93
12.26
11.66
9.50
5.31
-0.99
-8.95
-17.67
-26.05
-33.08
-38.18
-41.30
-42.86
-43.51
-43.86
-44.36
-45.15
-46.10
-46.80
-46.70
-45.19
-41.83
-36.57
-29.78
-22.28
-15.10
-9.12
-4.91
-2.53
-1.77
-2.36
-4.37
-8.36
-15.20
-25.69
-39.80
-56.22
-72.31
-84.86
-91.26
-90.73
-84.64
-75.83
-67.16
-60.19
-54.58
-48.75
-41.03
-30.86
-19.06
-7.52
1.58
6.03
3.39
-9.11
-34.12
-72.69
-122.58
-177.32
-227.01
-261.01
-271.46
-255.99
-218.49
-167.58
-113.46
-64.67
-26.06
1.47
19.74
31.65
40.10
47.65
56.74
69.72
88.16
111.76
137.80
161.35
176.93
180.67
171.98
153.86
131.63
110.94
95.80
87.74
85.98
88.47
92.95
97.70
102.07
106.55
112.48
121.38
134.05
149.78
166.03
178.72
182.94
174.09
148.88
106.23
47.79
-21.92
-95.91
-165.52
-221.70
-256.80
-266.57
-252.12
-220.54
-183.66
-154.44
-142.20
-148.76
-167.61
-186.88
-194.80
-184.91
-158.06
-120.58
-79.97
-41.17
-5.26
28.77
61.32
90.43
112.30
123.55
123.35
114.14
100.68
87.93
79.31
75.84
76.46
79.07
81.67
83.23
83.94
84.84
86.98
90.53
94.38
96.42
94.59
87.93
77.22
64.70
52.93
43.45
35.91
28.17
17.40
1.70
-18.70
-41.18
-61.60
-75.85
-81.37
-77.97
-67.54
-53.22
-38.33
-25.61
-16.97
-13.50
-15.56
-22.70
-33.60
-46.22
-58.15
-67.22
-72.07
-72.40
-68.93
-62.97
-55.96
-49.04
-42.92
-37.83
-33.69
-30.24
-27.19
-24.34
-21.60
-18.99
-16.67
-14.84
-13.80
-13.80
-14.99
-17.28
-20.26
-23.23
-25.33
-25.71
-23.76
-19.28
-12.43
-3.67
6.51
17.88
30.52
44.83
61.23
79.89
100.52
122.39
144.28
164.54
181.00
191.29
193.46
186.77
172.29
152.67
131.23
110.73
92.70
77.61
65.80
58.46
57.66
65.46
82.23
105.47
129.86
148.69
155.86
147.54
122.80
83.24
32.21
-25.56
-84.30
-137.38
-178.29
-202.27
-207.97
-198.12
-178.57
-155.97
-135.37
-118.98
-106.56
-97.02
-89.73
-85.15
-84.18
-87.43
-94.87
-106.14
-121.06
-139.59
-161.14
-183.41
-202.04
-211.40
-206.40
-184.45
-146.70
-97.85
-44.90
4.77
45.07
72.48
86.42
88.91
83.64
74.69
65.53
58.37
54.00
52.14
51.89
52.19
52.09
50.91
48.28
44.39
40.05
36.42
34.52
34.87
37.27
40.97
45.05
48.41
50.60
51.81
52.58
53.33
54.12
54.60
54.28
52.95
50.11
45.98
41.32
36.65
31.55
24.86
15.37
2.69
-11.99
-27.58
-42.44
-55.11
-65.09
-73.03
-79.84
-85.98
-91.46
-95.65
-99.60
-103.79
-107.46
-108.80
-106.12
-98.92
-88.84
-79.94
-65.65
-44.58
-19.23
6.26
29.43
49.60
66.61
80.04
88.97
94.41
96.52
95.67
91.96
85.08
73.45
58.00
40.63
22.41
5.52
-9.95
-24.81
-40.38
-58.17
-79.86
-106.98
-131.26
-150.83
-163.24
-165.20
-152.59
-123.13
-79.02
-27.50
21.64
59.85
82.04
90.05
89.50
86.42
84.28
83.25
81.41
77.30
71.25
64.46
59.78
59.32
63.27
70.18
77.66
83.77
87.68
89.80
89.83
88.06
84.81
80.10
74.20
67.68
61.30
55.61
50.19
44.20
37.19
29.33
21.15
13.86
8.63
5.94
5.31
4.46
1.70
-3.83
-11.73
-21.38
-31.96
-43.41
-56.69
-73.48
-97.08
-128.61
-167.57
-208.03
-244.13
-269.64
-279.32
-270.27
-242.44
-200.45
-148.43
-89.74
-25.87
42.96
117.42
194.21
262.77
320.21
349.68
340.46
293.78
223.31
147.76
82.99
36.92
9.01
-6.13
-16.36
-24.80
-31.04
-32.91
-29.63
-22.91
-16.30
-13.40
-15.83
-24.45
-37.03
-50.46
-62.43
-71.41
-77.63
-82.40
-87.28
-92.50
-97.25
-96.24
-86.83
-67.99
-41.78
-13.18
12.06
29.26
37.01
36.90
32.89
28.70
27.08
29.02
34.44
44.00
57.82
75.79
96.38
116.08
129.22
130.21
115.98
86.15
48.31
11.98
-14.96
-29.23
-32.73
-30.67
-28.03
-27.22
-27.79
-27.48
-25.06
-20.88
-16.66
-14.25
-14.65
-17.40
-21.10
-24.15
-25.60
-25.71
-25.42
-25.80
-27.55
-31.05
-36.94
-45.73
-57.93
-72.64
-86.94
-95.81
-93.90
-78.12
-49.68
-13.96
21.63
50.58
69.23
76.83
74.45
63.60
46.28
25.98
8.26
-0.40
4.43
22.17
46.40
67.20
75.31
66.49
42.93
11.67
-19.52
-45.64
-65.52
-80.11
-89.77
-93.13
-87.66
-71.54
-45.73
-14.77
14.76
36.08
44.93
42.69
34.49
26.02
20.98
20.16
22.36
25.83
29.46
33.10
37.42
43.61
51.46
60.36
69.56
78.69
88.01
98.42
110.96
125.71
140.72
151.88
154.22
144.16
121.43
89.55
54.55
22.64
-2.17
-19.32
-29.59
-34.90
-37.33
-38.13
-37.73
-36.31
-34.37
-32.74
-32.27
-33.18
-34.99
-36.67
-36.97
-35.19
-31.49
-26.83
-22.50
-19.57
-18.50
-19.13
-20.76
-22.46
-23.47
-23.49
-22.75
-21.85
-21.48
-22.21
-24.41
-28.05
-32.78
-38.04
-43.27
-48.09
-52.29
-55.77
-58.50
-60.46
-61.56
-61.70
-60.77
-58.64
-55.21
-50.45
-44.54
-37.97
-31.57
-26.22
-22.47
-20.23
-18.82
-17.30
-15.06
-12.20
-9.45
-7.62
-6.88
-6.43
-4.72
-0.28
7.33
17.13
27.00
34.66
38.63
38.70
35.63
30.39
23.42
14.65
4.10
-7.66
-19.80
-32.32
-46.77
-65.83
-91.24
-121.21
-149.19
-165.38
-160.78
-131.83
-82.59
-23.39
33.64
79.54
111.36
131.72
145.79
158.09
170.60
182.97
193.83
202.18
207.73
210.43
209.86
204.89
194.35
178.09
157.67
136.16
116.94
102.13
91.21
81.17
67.63
46.86
17.29
-20.20
-63.58
-111.36
-163.48
-220.42
-281.00
-340.66
-391.35
-423.85
-431.39
-412.30
-370.50
-313.31
-248.31
-181.10
-115.20
-53.48
0.23
41.17
65.37
72.03
64.75
50.55
37.03
29.43
29.05
33.78
39.77
43.76
44.29
41.81
37.90
34.23
31.88
31.11
31.57
32.69
34.06
35.47
36.82
37.91
38.26
37.23
34.26
29.14
22.13
14.00
5.73
-1.84
-8.23
-13.38
-17.38
-20.33
-22.32
-23.48
-24.19
-25.03
-26.64
-29.50
-33.66
-38.59
-43.48
-47.54
-50.53
-52.71
-54.79
-57.62
-62.14
-68.86
-77.28
-85.71
-91.48
-91.55
-82.99
-63.53
-32.13
10.24
61.02
116.78
173.96
228.88
277.74
317.13
344.54
358.72
359.04
346.45
324.00
296.46
268.31
241.52
215.40
187.45
154.88
115.11
67.80
15.63
-36.41
-83.59
-124.24
-158.83
-188.94
-208.22
-210.06
-193.04
-162.91
-127.56
-92.55
-61.97
-37.82
-20.87
-10.83
-7.58
-10.22
-17.76
-26.58
-33.62
-39.51
-46.07
-55.47
-69.24
-88.97
-115.81
-150.42
-192.58
-228.80
-250.31
-250.74
-227.71
-183.56
-125.79
-64.87
-10.92
30.18
58.07
75.04
85.51
92.79
97.28
96.56
88.61
72.51
50.52
27.07
5.40
-12.64
-26.89
-38.36
-48.19
-56.44
-62.17
-63.59
-59.16
-49.49
-36.68
-23.67
-12.79
-6.23
-4.80
-7.85
-12.83
-15.79
-12.68
-0.82
20.89
52.36
93.21
143.54
202.36
267.75
335.54
398.94
447.64
472.00
466.99
434.75
383.79
323.63
263.57
210.45
168.34
134.60
103.87
70.94
32.55
-12.76
-68.06
-132.75
-200.40
-258.23
-297.57
-314.39
-311.42
-297.81
-287.39
-297.98
-339.37
-407.90
-485.60
-555.43
-604.15
-625.69
-620.74
-568.87
-469.86
-344.36
-239.03
-156.53
-89.69
-28.95
27.16
77.68
120.68
150.27
163.71
163.72
159.74
156.34
155.45
156.43
157.73
157.20
150.34
136.47
120.10
110.37
110.42
118.53
129.51
138.16
141.14
136.18
124.88
111.95
103.81
101.94
104.29
106.96
106.79
102.36
93.36
81.48
69.59
60.89
55.63
52.34
48.98
44.40
38.60
32.02
25.61
20.17
16.26
13.25
10.09
5.86
0.36
-5.90
-11.95
-16.73
-19.66
-20.78
-20.70
-20.09
-19.31
-18.09
-15.75
-11.62
-5.50
2.07
9.91
16.69
21.45
24.00
24.91
25.24
25.96
27.49
29.57
31.47
32.45
32.22
31.05
29.57
28.43
27.91
27.78
27.43
26.16
23.42
19.11
13.57
7.45
1.50
-3.73
-7.98
-11.32
-13.87
-15.67
-16.59
-16.51
-15.46
-13.74
-11.84
-10.22
-9.15
-8.65
-8.68
-9.23
-10.31
-11.85
-13.50
-14.76
-15.13
-14.46
-13.07
-11.62
-10.80
-11.04
-12.29
-14.12
-15.96
-17.31
-17.97
-18.00
-17.73
-17.52
-17.63
-18.09
-18.68
-19.15
-19.32
-19.23
-18.95
-18.46
-17.49
-15.64
-12.69
-8.89
-4.99
-1.90
-0.19
0.27
0.12
0.16
0.81
1.97
3.19
4.07
4.48
4.46
3.95
2.80
0.86
-1.65
-4.04
-5.40
-5.21
-3.76
-2.04
-1.18
-1.72
-3.29
-4.92
-5.71
-5.38
-4.37
-3.33
-2.61
-2.09
-1.40
-0.38
0.74
1.48
1.67
1.60
1.96
3.26
5.47
7.96
9.97
11.09
11.50
11.61
11.57
11.00
9.20
5.83
1.30
-3.25
-6.57
-8.06
-8.02
-7.36
-6.96
-7.17
-7.70
-8.15
-8.33
-8.38
-8.51
-8.59
-8.20
-6.92
-4.78
-2.44
-0.77
-0.33
-0.95
-1.83
-2.13
-1.47
-0.08
1.49
2.90
4.25
5.89
7.95
10.10
11.72
12.31
11.92
11.06
10.30
9.77
9.10
7.72
5.51
2.96
1.03
0.48
1.28
2.67
3.64
3.64
2.97
2.44
2.68
3.52
4.03
3.14
0.45
-3.46
-7.31
-9.94
-10.87
-10.47
-9.42
-8.24
-7.10
-5.90
-4.80
-4.24
-4.72
-6.30
-8.37
-9.93
-10.13
-8.91
-6.89
-5.02
-3.84
-3.25
-2.68
-1.65
-0.19
1.27
2.23
2.60
2.77
3.32
4.54
6.17
7.62
8.34
8.24
7.68
7.20
7.09
7.25
7.31
7.00
6.36
5.67
5.15
4.74
4.03
2.69
0.75
-1.28
-2.68
-3.03
-2.52
-1.89
-1.89
-2.86
-4.51
-6.19
-7.42
-8.22
-9.02
-10.28
-11.96
-13.51
-14.16
-13.44
-11.53
-9.10
-6.88
-5.18
-3.88
-2.62
-1.20
0.21
1.26
1.77
1.91
2.19
3.03
4.48
6.12
7.34
7.73
7.35
6.64
6.09
5.93
6.03
6.14
6.14
6.22
6.68
7.65
8.80
9.49
9.05
7.26
4.48
1.45
-1.12
-2.86
-3.79
-4.13
-4.03
-3.47
-2.46
-1.13
0.13
0.89
0.97
0.56
0.14
0.19
0.78
1.49
1.62
0.55
-1.94
-5.53
-9.55
-13.23
-15.98
-17.55
-17.90
-17.20
-15.62
-13.36
-10.69
-7.96
-5.60
-3.97
-3.16
-2.95
-2.87
-2.45
-1.42
0.16
2.04
3.92
5.56
6.83
7.66
7.91
7.50
6.39
4.81
3.17
1.99
1.64
2.25
3.66
5.53
7.42
8.96
9.96
10.42
10.54
10.61
10.82
11.16
11.37
11.12
10.23
8.87
7.48
6.57
6.39
6.80
7.37
7.60
7.24
6.33
5.11
3.80
2.55
1.42
0.49
-0.05
-0.06
0.50
1.42
2.32
2.85
2.81
2.25
1.39
0.44
-0.49
-1.40
-2.26
-3.00
-3.41
-3.33
-2.69
-1.62
-0.47
0.38
0.63
0.18
-0.92
-2.47
-4.27
-6.06
-7.57
-8.54
-8.77
-8.17
-6.82
-4.88
-2.61
-0.28
1.82
3.41
4.28
4.37
3.85
3.06
2.40
2.21
2.54
3.22
3.95
4.42
4.51
4.22
3.68
3.10
2.64
2.47
2.65
3.14
3.83
4.49
4.95
5.06
4.83
4.30
3.53
2.60
1.55
0.50
-0.33
-0.75
-0.70
-0.34
-0.03
-0.17
-0.92
-2.07
-3.16
-3.73
-3.64
-3.13
-2.67
-2.70
-3.40
-4.70
-6.36
-8.13
-9.74
-10.79
-10.78
-9.32
-6.41
-2.66
0.93
3.32
4.09
3.54
2.50
1.76
1.64
1.90
2.13
2.15
2.19
2.68
3.75
5.00
5.66
5.08
3.23
0.81
-1.15
-1.89
-1.32
-0.07
1.05
1.49
1.22
0.59
-0.07
-0.71
-1.55
-2.73
-4.08
-5.10
-5.23
-4.25
-2.53
-0.84
0.02
-0.35
-1.75
-3.56
-5.07
-5.85
-5.87
-5.37
-4.65
-3.86
-3.03
-2.08
-0.99
0.22
1.48
2.71
3.90
5.00
5.98
6.73
7.15
7.21
6.98
6.64
6.33
6.12
5.97
5.79
5.49
5.13
4.76
4.43
4.10
3.67
3.06
2.24
1.32
0.39
-0.55
-1.57
-2.73
-3.97
-5.06
-5.70
-5.69
-5.15
-4.46
-4.16
-4.64
-5.96
-7.77
-9.47
-10.50
-10.58
-9.70
-8.09
-5.98
-3.61
-1.26
0.59
1.32
0.48
-1.87
-4.92
-7.39
-8.11
-6.73
-3.94
-1.16
0.37
0.38
-0.33
-0.39
1.18
4.35
8.09
11.09
12.58
12.70
12.28
12.14
12.60
13.31
13.66
13.34
12.62
12.12
12.40
13.51
14.91
15.82
15.64
14.28
12.16
9.89
7.93
6.35
4.92
3.30
1.33
-0.93
-3.19
-5.10
-6.44
-7.14
-7.27
-6.99
-6.47
-5.89
-5.39
-5.09
-5.01
-5.13
-5.38
-5.74
-6.27
-7.10
-8.28
-9.77
-11.30
-12.44
-12.76
-11.97
-10.06
-7.27
-4.02
-0.76
2.19
4.66
6.58
7.96
8.83
9.20
9.18
8.89
8.55
8.33
8.30
8.39
8.47
8.43
8.26
8.08
8.10
8.47
9.20
10.23
11.39
12.54
13.62
14.57
15.43
16.22
17.05
18.03
19.26
20.77
22.50
24.26
25.82
27.10
28.16
29.30
30.86
33.14
36.16
39.65
43.17
46.35
49.13
51.78
54.83
58.70
63.53
69.02
74.66
79.94
84.55
88.36
91.06
91.85
89.24
81.31
66.44
44.15
15.75
-15.74
-46.36
-72.38
-91.47
-103.22
-108.90
-110.79
-111.34
-112.59
-115.94
-122.08
-130.88
-141.07
-150.01
-153.99
-149.30
-133.96
-109.27
-80.16
-53.75
-36.68
-32.14
-38.50
-50.18
-60.35
-64.11
-60.33
-51.31
-40.81
-31.58
-24.25
-17.63
-10.25
-1.74
6.75
13.34
16.64
16.73
15.06
13.76
14.43
17.41
21.69
25.49
27.23
26.28
23.26
19.62
16.92
15.99
16.60
17.64
17.75
16.06
12.61
8.33
4.59
2.58
2.77
4.82
7.77
10.46
12.03
12.18
11.17
9.65
8.29
7.59
7.70
8.49
9.69
11.00
12.15
12.95
13.25
13.00
12.29
11.35
10.46
9.78
9.34
8.97
8.47
7.76
6.96
6.32
6.06
6.15
6.37
6.38
5.95
5.18
4.46
4.31
5.13
6.96
9.42
11.88
13.70
14.52
14.45
13.95
13.68
14.20
15.70
18.02
20.65
23.07
24.86
25.99
26.75
27.69
29.38
32.18
36.03
40.54
45.15
49.40
53.21
56.87
60.94
65.99
72.34
80.01
88.71
97.80
106.27
112.71
115.59
113.83
107.50
98.24
89.04
83.22
83.05
88.74
98.18
107.88
114.32
115.28
110.43
100.95
88.62
74.90
60.43
45.14
28.78
11.32
-6.86
-25.24
-43.48
-61.59
-79.74
-97.88
-115.48
-131.61
-145.41
-156.48
-165.18
-172.31
-178.64
-184.27
-188.47
-190.00
-187.63
-180.70
-169.49
-155.04
-139.03
-123.48
-110.40
-101.35
-97.01
-96.80
-99.07
-101.62
-102.62
-101.42
-98.85
-96.84
-97.50
-102.18
-110.89
-122.53
-135.59
-149.06
-162.90
-177.77
-194.26
-212.06
-229.43
-243.56
-251.38
-250.69
-240.88
-223.02
-199.27
-171.83
-142.36
-111.58
-79.55
-46.22
-11.72
23.81
60.60
99.18
139.72
180.84
218.90
248.58
264.95
265.97
253.97
234.96
215.89
201.39
191.96
184.64
175.63
163.06
148.18
134.31
124.33
118.70
115.13
110.10
101.14
88.21
73.61
60.60
51.45
46.33
43.48
40.43
35.38
28.25
20.51
14.24
10.94
10.65
12.05
13.11
12.22
8.92
4.04
-0.82
-4.09
-5.01
-3.90
-1.92
-0.43
-0.35
-1.75
-3.94
-5.87
-6.65
-5.92
-3.91
-1.19
1.60
3.96
5.50
5.87
4.78
2.19
-1.50
-5.31
-7.98
-8.52
-6.68
-3.20
0.52
3.08
3.76
2.83
1.30
0.37
0.77
2.50
4.89
7.07
8.47
9.07
9.37
10.05
11.64
14.24
17.60
21.23
24.70
27.78
30.42
32.74
34.91
37.13
39.60
42.50
45.99
50.05
54.53
59.14
63.58
67.64
71.30
74.75
78.32
82.45
87.50
93.51
99.93
105.53
108.67
107.96
102.98
94.76
85.58
78.21
74.76
75.87
80.67
87.25
93.50
97.66
98.39
94.43
84.43
66.94
40.95
6.64
-34.22
-78.29
-121.25
-158.80
-187.57
-205.86
-213.67
-212.45
-204.26
-191.03
-174.01
-153.77
-130.54
-104.91
-78.15
-52.22
-29.30
-11.30
0.37
4.64
0.29
-14.19
-40.26
-78.43
-127.13
-182.07
-236.62
-283.09
-314.65
-326.90
-318.71
-291.80
-249.82
-197.46
-139.99
-83.14
-32.75
6.29
31.53
44.01
48.15
50.01
54.77
64.51
77.78
90.82
100.01
103.83
103.42
101.53
100.65
101.77
104.08
105.92
106.07
104.52
102.53
101.81
103.59
107.83
113.33
118.35
121.53
122.55
122.39
122.69
124.89
129.41
135.34
140.73
143.32
141.27
133.74
121.17
105.22
88.61
74.63
66.51
66.59
75.44
91.61
111.94
132.49
149.71
161.28
166.33
165.08
158.36
147.28
133.09
117.10
100.42
83.56
66.03
46.43
22.85
-6.23
-41.33
-81.54
-124.73
-168.10
-208.82
-244.55
-273.73
-295.57
-309.95
-317.23
-318.04
-313.17
-303.44
-289.57
-272.14
-251.49
-227.70
-200.83
-171.21
-139.76
-107.99
-77.64
-50.09
-25.86
-4.56
14.46
31.36
45.11
53.63
54.42
45.68
27.15
-0.00
-33.54
-70.53
-107.36
-139.96
-164.40
-178.11
-180.91
-174.91
-163.21
-147.69
-127.44
-98.87
-57.73
-2.21
64.76
135.42
199.65
248.62
277.95
288.80
286.69
278.77
271.17
267.10
266.53
267.17
266.11
261.36
252.45
240.11
225.73
210.97
197.55
187.31
182.01
182.61
188.72
198.14
207.16
211.46
207.35
192.73
167.57
133.77
94.41
52.98
12.47
-25.26
-59.81
-92.23
-124.64
-159.42
-198.06
-240.33
-283.81
-324.49
-358.17
-382.16
-396.13
-402.23
-403.69
-403.06
-401.04
-396.08
-385.11
-364.77
-332.84
-289.05
-235.39
-175.59
-114.39
-56.70
-6.88
31.75
57.35
69.82
71.15
65.41
58.19
55.34
61.31
77.60
102.16
129.80
153.66
167.16
165.46
146.12
109.05
56.11
-8.98
-80.95
-153.45
-219.81
-274.43
-314.17
-339.18
-352.59
-359.14
-362.91
-365.65
-366.30
-362.04
-350.37
-330.77
-305.39
-278.21
-253.48
-233.95
-219.56
-208.10
-196.13
-180.35
-158.80
-131.40
-99.77
-66.61
-34.34
-3.11
28.49
62.99
102.62
148.15
198.53
251.58
304.82
355.87
403.50
444.83
475.61
491.86
492.72
482.71
470.77
465.84
471.36
483.87
492.24
483.96
452.30
400.66
341.36
289.51
255.71
229.87
201.48
162.02
111.24
56.97
9.21
-26.04
-49.20
-65.60
-81.29
-97.52
-112.13
-121.11
-121.71
-114.67
-104.33
-97.12
-98.97
-112.88
-136.57
-164.52
-189.53
-205.59
-209.33
-201.15
-185.45
-169.45
-160.50
-162.76
-176.24
-196.41
-215.98
-227.61
-226.73
-213.02
-189.91
-162.42
-135.01
-110.72
-90.71
-74.96
-62.78
-53.06
-43.89
-34.97
-24.23
-9.25
11.43
37.79
68.06
99.72
130.54
159.63
187.85
218.13
254.23
299.43
354.64
416.81
478.37
528.57
556.45
554.69
522.78
466.96
397.97
327.03
262.10
206.17
158.01
114.56
73.32
33.89
-2.59
-34.43
-60.47
-80.53
-95.08
-104.80
-110.31
-111.87
-109.67
-104.08
-95.74
-85.45
-73.90
-61.60
-48.80
-35.74
-22.94
-11.52
-3.31
-0.57
-5.31
-18.35
-38.51
-62.54
-85.80
-103.76
-113.49
-114.64
-109.27
-100.69
-92.11
-85.47
-81.29
-79.15
-78.46
-78.98
-80.81
-83.95
-87.98
-92.04
-95.24
-97.16
-98.11
-99.04
-100.98
-104.62
-109.94
-116.22
-122.38
-127.34
-130.42
-131.48
-130.93
-129.56
-128.35
-128.30
-130.25
-134.64
-141.12
-148.30
-153.56
-153.44
-144.36
-123.81
-91.44
-49.69
-3.45
41.08
78.20
104.25
118.33
122.17
118.93
111.97
103.85
96.00
88.95
82.82
77.71
73.76
70.94
68.87
66.82
64.01
59.96
54.78
49.13
43.99
40.16
37.91
36.92
36.43
35.75
34.57
33.15
32.07
31.94
32.97
34.88
37.05
38.86
39.94
40.30
40.24
40.15
40.37
41.13
42.52
44.56
47.17
50.16
53.26
56.19
58.74
60.85
62.63
64.12
65.19
65.30
63.57
59.02
50.89
38.90
23.32
4.89
-15.25
-35.54
-53.95
-68.12
-75.83
-75.70
-67.71
-53.46
-35.69
-17.46
-1.25
11.46
20.25
25.35
27.45
27.47
26.54
25.85
26.42
28.74
32.55
37.05
41.25
44.49
46.52
47.41
47.37
46.65
45.59
44.58
43.86
43.22
41.80
38.28
31.22
20.02
5.39
-10.75
-25.97
-38.31
-46.96
-52.23
-55.18
-57.55
-60.71
-65.30
-70.92
-76.43
-80.42
-81.76
-79.94
-75.24
-69.86
-66.20
-65.86
-68.73
-73.10
-76.73
-77.96
-76.35
-72.76
-71.03
-75.39
-89.25
-113.91
-148.11
-188.54
-230.17
-266.65
-291.15
-300.57
-294.88
-277.72
-255.28
-234.79
-222.70
-222.84
-235.25
-241.02
-224.14
-176.81
-105.07
-24.52
49.95
110.66
157.13
192.58
220.55
240.55
250.71
249.78
239.05
222.59
205.60
192.35
184.84
182.75
182.16
178.69
169.44
154.01
134.94
115.62
99.55
88.52
82.47
78.73
74.17
66.57
55.07
41.10
27.09
15.47
7.59
3.54
1.79
0.11
-3.90
-13.14
-29.25
-51.82
-77.78
-101.65
-116.72
-117.49
-101.72
-65.77
-13.35
48.24
110.81
167.47
213.39
245.39
261.13
258.92
238.50
201.14
151.35
96.03
42.30
-4.49
-42.23
-71.85
-96.31
-119.20
-144.57
-175.80
-215.16
-263.07
-316.93
-370.48
-414.72
-440.31
-440.96
-416.39
-372.31
-317.87
-261.91
-209.88
-162.98
-119.57
-77.51
-36.18
2.96
37.34
65.52
88.45
109.04
130.46
154.75
182.82
215.05
252.04
293.45
338.25
383.93
425.67
456.56
469.79
461.63
433.43
390.91
340.07
286.50
234.66
187.34
145.16
107.13
71.60
36.86
0.38
-43.48
-99.47
-168.24
-245.02
-321.10
-386.09
-430.88
-449.91
-430.20
-372.10
-292.10
-213.75
-152.51
-110.75
-82.92
-62.38
-43.93
-24.63
-5.16
14.92
38.71
70.25
110.98
158.25
201.26
229.35
234.99
214.80
172.52
117.59
60.69
8.55
-38.02
-82.23
-126.76
-171.31
-212.88
-245.50
-262.46
-259.38
-236.59
-199.01
-154.14
-108.74
-67.45
-32.94
-4.91
19.32
43.32
70.05
101.61
139.50
184.77
236.51
290.41
339.71
376.93
395.99
393.94
372.09
335.55
290.97
242.98
191.95
135.57
71.90
1.84
-69.81
-135.05
-185.32
-212.86
-212.49
-189.31
-157.56
-131.09
-115.59
-108.70
-104.84
-99.98
-93.65
-88.45
-87.75
-92.42
-99.82
-105.77
-107.16
-103.46
-96.47
-89.20
-84.48
-84.03
-87.26
-91.43
-93.30
-90.70
-83.32
-72.88
-61.88
-52.62
-46.54
-43.48
-41.83
-39.72
-35.71
-29.86
-23.41
-17.94
-14.72
-14.19
-15.66
-17.54
-18.22
-16.30
-11.61
-4.90
2.82
10.91
19.58
30.14
45.01
63.13
85.02
111.09
141.23
174.27
207.57
237.08
258.08
266.64
260.95
242.67
215.73
184.91
154.29
126.17
101.04
78.54
58.39
40.93
27.38
18.47
13.90
12.28
11.63
10.21
7.23
2.99
-1.51
-4.96
-6.80
-7.35
-7.57
-8.48
-10.61
-13.82
-17.42
-20.69
-23.06
-24.55
-25.58
-26.67
-28.17
-30.05
-31.96
-33.41
-34.01
-33.58
-32.25
-30.38
-28.42
-26.78
-25.74
-25.35
-25.49
-25.98
-26.64
-27.39
-28.28
-29.38
-30.72
-32.18
-33.61
-34.84
-35.88
-36.88
-38.08
-39.70
-41.76
-44.11
-46.53
-48.87
-51.16
-53.68
-56.77
-60.72
-65.59
-71.15
-77.04
-82.90
-88.46
-93.44
-97.37
-99.49
-98.91
-95.09
-88.27
-79.75
-71.49
-65.38
-62.31
-61.83
-62.35
-61.90
-58.91
-52.69
-43.31
-31.15
-16.54
0.38
19.43
40.14
61.65
82.81
102.57
120.17
135.13
146.92
154.87
158.32
157.14
152.28
145.86
140.70
139.16
141.84
146.81
149.68
144.86
127.34
94.67
48.27
-6.42
-61.08
-107.28
-139.33
-156.28
-161.74
-162.16
-164.00
-171.07
-183.30
-196.72
-205.24
-202.73
-184.90
-150.57
-102.33
-46.51
8.02
52.25
80.16
90.15
84.97
70.06
51.56
34.48
21.99
15.63
16.17
24.68
41.62
65.74
93.45
119.45
138.24
145.83
140.79
121.45
90.43
54.63
22.68
0.24
-12.33
-18.47
-22.01
-25.02
-27.37
-27.33
-23.66
-16.94
-9.37
-3.44
-0.60
-0.68
-2.40
-4.07
-4.01
-1.55
2.69
7.24
10.64
12.30
12.58
12.28
12.10
12.52
13.39
13.91
13.05
10.12
4.84
-2.12
-10.00
-18.33
-26.84
-35.51
-44.39
-53.27
-61.70
-68.92
-74.14
-76.93
-77.30
-75.51
-72.05
-67.63
-63.13
-59.41
-56.86
-54.98
-52.60
-48.20
-40.56
-29.37
-15.47
-0.55
13.42
25.14
34.26
40.74
44.43
45.01
42.36
36.55
28.81
20.98
15.11
12.72
13.62
16.19
18.37
18.60
15.97
10.03
0.29
-12.98
-27.97
-42.03
-51.98
-54.59
-47.58
-30.64
-5.29
21.99
43.30
54.77
56.79
51.62
41.76
29.63
18.13
10.73
11.90
23.90
47.24
78.11
108.53
128.54
130.12
110.85
75.78
35.98
2.68
-12.16
-3.41
24.46
59.25
86.15
93.46
76.79
40.12
-6.35
-50.02
-81.83
-99.08
-105.38
-108.06
-114.40
-127.40
-144.08
-156.59
-155.50
-134.49
-92.24
-31.72
41.51
120.39
197.28
263.84
311.35
332.53
323.61
286.99
231.95
172.59
122.41
91.30
83.09
95.36
121.09
151.16
177.57
195.60
204.12
201.81
188.72
166.36
137.72
106.22
74.65
45.02
18.71
-3.54
-25.88
-52.05
-82.93
-115.69
-146.01
-170.81
-189.18
-202.18
-212.18
-227.63
-255.59
-298.68
-353.94
-415.87
-480.04
-544.22
-607.92
-636.80
-608.92
-525.70
-412.65
-298.59
-200.03
-121.00
-59.17
-10.60
28.13
54.13
65.52
63.32
53.25
42.32
35.34
33.92
37.47
44.44
46.11
40.32
27.50
11.78
-1.72
-10.01
-12.89
-12.16
-10.59
-13.88
-26.52
-51.61
-87.78
-130.00
-171.28
-204.33
-223.58
-227.02
-218.27
-199.50
-177.29
-157.06
-141.28
-129.40
-119.12
-107.97
-94.60
-79.39
-62.89
-46.08
-28.55
-9.43
11.45
32.97
52.99
69.01
79.28
83.50
82.06
76.64
69.32
61.78
54.75
48.09
41.17
33.55
25.46
17.51
10.97
7.22
7.07
10.39
16.23
23.17
30.04
36.36
42.49
49.61
59.18
72.19
88.66
107.57
127.35
146.57
164.61
181.91
199.75
219.69
242.84
269.56
299.48
331.58
364.34
395.67
423.03
443.86
456.16
459.11
453.18
439.52
419.16
392.32
358.64
317.96
271.13
220.41
168.79
118.81
71.49
26.00
-19.96
-69.19
-123.72
-183.51
-245.37
-303.02
-348.37
-373.99
-375.99
-355.76
-319.78
-277.02
-235.63
-200.18
-171.18
-146.69
-124.79
-105.33
-89.91
-80.27
-76.49
-76.10
-74.94
-69.08
-56.76
-39.08
-19.45
-1.71
11.75
20.86
27.50
34.27
43.05
54.33
67.37
80.93
94.06
106.34
117.76
128.29
137.85
146.26
153.66
160.49
167.35
174.72
182.63
190.76
198.61
205.78
212.04
217.14
220.69
222.30
221.93
220.10
217.55
214.51
209.82
200.76
183.88
156.82
120.06
77.64
36.17
2.44
-19.29
-28.95
-30.50
-30.03
-33.10
-42.75
-58.73
-78.35
-98.08
-115.14
-128.35
-137.96
-144.88
-149.88
-153.34
-155.48
-156.69
-157.75
-159.60
-162.73
-166.87
-171.13
-174.69
-177.56
-180.58
-184.76
-190.08
-194.80
-195.73
-189.67
-174.95
-152.35
-124.75
-95.68
-67.93
-42.82
-20.50
-1.02
15.05
26.57
32.60
33.14
29.38
23.33
17.03
11.90
8.48
6.63
5.83
5.59
5.64
5.96
6.69
7.99
9.83
11.93
13.91
15.44
16.55
17.63
19.28
21.95
25.66
29.93
34.06
37.48
40.02
41.79
42.97
43.52
43.13
41.35
37.78
32.19
24.54
14.99
3.98
-7.72
-19.03
-28.75
-35.95
-40.29
-42.18
-42.52
-42.27
-42.03
-41.87
-41.52
-40.61
-39.05
-37.07
-35.05
-33.27
-31.78
-30.44
-29.11
-27.81
-26.75
-26.16
-26.07
-26.25
-26.39
-26.40
-26.48
-26.95
-27.93
-29.03
-29.44
-28.34
-25.38
-20.79
-15.23
-9.41
-3.91
0.65
3.22
2.23
-4.08
-17.05
-37.11
-63.75
-95.92
-132.50
-172.33
-213.67
-253.36
-286.67
-308.10
-313.01
-299.30
-268.14
-223.12
-168.54
-107.70
-42.56
24.88
90.64
147.83
187.98
204.32
195.09
164.80
122.36
77.19
35.32
-1.74
-35.12
-65.35
-89.90
-103.25
-99.61
-76.26
-35.27
17.36
74.00
127.78
173.64
208.50
230.75
240.36
239.02
229.95
217.17
203.94
191.25
177.09
157.51
128.95
91.01
48.20
9.29
-15.63
-19.31
-0.81
33.55
72.18
102.36
114.85
106.94
82.56
49.69
16.62
-10.93
-30.97
-44.28
-52.42
-56.08
-54.68
-47.11
-33.13
-14.59
4.85
20.97
30.82
33.98
32.52
29.62
27.87
28.11
29.41
29.92
28.07
23.39
16.62
9.32
3.10
-1.07
-3.14
-4.05
-5.23
-8.08
-13.32
-20.77
-29.37
-37.69
-44.60
-49.65
-53.22
-56.10
-58.87
-61.49
-63.25
-63.23
-60.93
-56.72
-51.79
-47.62
-45.23
-44.82
-45.78
-46.99
-47.26
-45.56
-40.99
-32.75
-20.28
-3.53
16.65
38.48
59.69
78.28
93.16
104.22
111.88
116.35
117.19
113.46
104.43
90.38
72.91
54.62
38.27
25.84
17.87
13.44
10.59
7.09
1.22
-7.83
-19.92
-34.30
-50.09
-66.70
-83.88
-101.56
-119.91
-139.21
-159.95
-182.49
-206.38
-229.60
-248.27
-257.62
-253.96
-236.90
-210.30
-181.21
-157.07
-142.64
-138.08
-139.43
-140.82
-137.18
-126.08
-107.93
-84.92
-59.56
-33.70
-8.30
16.27
39.80
62.04
82.75
101.85
119.50
136.19
152.60
169.58
187.89
208.20
231.28
258.39
291.47
332.54
382.21
437.98
493.33
538.74
564.46
564.14
537.23
489.20
429.04
365.68
304.89
248.08
193.35
137.65
78.96
17.50
-44.42
-103.39
-155.97
-199.73
-233.69
-258.42
-275.90
-289.10
-301.64
-316.88
-336.61
-359.86
-382.20
-396.42
-394.62
-371.07
-324.72
-260.09
-186.02
-112.90
-49.53
-1.18
30.99
48.98
56.47
57.53
55.70
53.65
53.06
54.60
58.11
62.84
67.70
71.56
73.64
73.67
71.94
69.15
66.16
63.62
61.75
60.24
58.48
55.88
52.23
47.87
43.53
40.00
37.77
36.72
36.25
35.46
33.56
30.26
25.82
20.97
16.56
13.15
10.83
9.26
7.97
6.54
4.78
2.55
-0.41
-4.55
-10.42
-18.50
-29.07
-42.13
-57.55
-75.00
-93.86
-112.89
-130.08
-142.85
-148.61
-145.66
-133.81
-114.58
-90.69
-65.22
-40.77
-18.96
-0.51
14.35
25.59
33.24
37.57
39.41
40.07
41.02
43.31
47.15
51.84
56.23
59.41
61.11
61.80
62.31
63.23
64.56
65.68
65.66
63.55
58.67
50.59
39.33
25.47
10.27
-4.39
-16.40
-24.04
-26.62
-24.63
-19.46
-12.54
-4.73
4.10
14.76
27.99
43.72
60.70
76.83
89.82
97.97
100.55
97.80
90.62
80.27
68.17
55.82
44.77
36.31
30.91
27.59
23.88
16.24
1.10
-23.58
-57.44
-97.59
-139.71
-179.65
-214.61
-243.06
-263.67
-274.27
-271.53
-252.24
-215.07
-161.69
-96.39
-24.45
49.86
123.83
195.29
260.77
314.56
350.20
363.75
356.21
333.84
305.76
279.91
260.17
245.49
231.17
212.13
185.93
153.05
115.83
76.90
37.36
-2.42
-41.95
-80.26
-115.47
-144.65
-161.92
-161.49
-140.88
-104.75
-61.97
-21.18
12.06
33.95
47.10
54.55
58.01
57.72
50.35
32.12
2.92
-36.03
-81.90
-130.61
-178.48
-222.71
-261.73
-298.29
-335.77
-376.67
-422.16
-471.93
-524.94
-581.14
-641.43
-686.02
-699.66
-673.20
-606.84
-508.96
-392.05
-269.62
-154.93
-58.58
13.80
59.79
82.17
87.09
81.23
70.02
57.00
44.33
33.86
27.25
24.16
23.02
21.73
18.58
12.76
4.61
-4.72
-13.59
-20.49
-25.55
-29.85
-34.79
-41.24
-49.13
-57.38
-64.12
-66.77
-66.13
-62.85
-58.01
-52.79
-48.10
-44.36
-41.51
-39.18
-36.99
-34.68
-32.06
-29.28
-26.56
-23.92
-21.08
-17.63
-13.24
-7.85
-1.84
4.58
11.04
17.39
23.87
31.04
39.48
49.43
60.52
71.78
82.29
91.35
99.00
106.15
114.27
124.75
138.21
154.15
171.07
187.36
201.80
214.27
225.74
237.85
252.29
270.39
292.87
319.64
349.38
379.04
403.88
418.31
417.68
400.16
367.74
325.77
280.92
238.80
202.21
171.02
143.56
118.65
96.97
80.96
73.37
75.15
84.25
95.72
103.49
102.70
91.57
71.90
47.65
22.95
0.41
-19.17
-35.71
-48.53
-55.74
-55.05
-45.48
-28.80
-9.65
5.98
13.03
9.36
-3.56
-21.56
-39.53
-53.26
-60.51
-61.16
-56.61
-48.99
-40.47
-32.80
-27.17
-24.20
-24.00
-26.25
-30.27
-35.07
-39.48
-42.43
-43.12
-41.26
-37.20
-31.77
-25.98
-20.68
-16.37
-13.11
-10.68
-8.71
-6.79
-4.56
-1.83
1.33
4.34
6.18
5.67
2.11
-4.13
-11.56
-18.22
-22.84
-25.74
-28.71
-33.89
-42.07
-51.84
-59.97
-62.84
-58.13
-45.49
-26.21
-2.20
24.63
51.90
75.91
91.68
94.27
81.27
54.70
20.87
-11.97
-37.08
-51.76
-57.56
-58.42
-58.06
-58.23
-58.64
-58.20
-56.37
-53.69
-51.27
-49.85
-49.18
-48.15
-45.57
-40.99
-35.05
-29.35
-25.73
-25.56
-29.09
-35.35
-42.47
-48.32
-51.13
-50.01
-45.09
-37.30
-28.07
-18.89
-10.95
-4.96
-1.05
1.10
2.03
2.27
2.17
1.97
1.86
2.06
2.81
4.22
6.11
8.03
9.35
9.58
8.61
6.77
4.71
3.13
2.53
3.05
4.50
6.51
8.70
10.84
12.81
14.70
16.61
18.62
20.70
22.69
24.32
25.32
25.64
25.52
25.58
26.65
29.40
33.99
39.71
45.09
48.20
47.32
41.58
31.28
17.90
3.73
-8.63
-16.81
-18.98
-14.22
-2.75
13.85
32.75
50.43
63.55
70.01
69.54
63.69
54.98
45.89
38.00
31.83
27.16
23.56
20.81
18.76
17.17
15.54
13.28
10.04
6.04
2.09
-0.78
-1.71
-0.52
2.26
5.51
7.98
8.71
7.35
4.25
0.34
-3.24
-5.50
-5.85
-4.16
-0.72
4.06
9.71
15.87
22.27
28.61
34.50
39.29
42.10
41.88
37.71
29.19
16.68
1.31
-15.32
-31.68
-46.58
-59.33
-69.53
-76.93
-81.35
-82.81
-81.68
-78.78
-75.17
-71.90
-69.62
-68.39
-67.70
-66.66
-64.29
-59.86
-53.14
-44.54
-35.04
-25.91
-18.38
-13.30
-11.00
-11.32
-13.71
-17.46
-21.74
-25.75
-28.82
-30.54
-30.93
-30.39
-29.61
-29.23
-29.65
-30.81
-32.38
-33.83
-34.79
-35.10
-34.92
-34.57
-34.43
-34.77
-35.71
-37.17
-38.96
-40.91
-43.00
-45.39
-48.33
-52.00
-56.29
-60.67
-64.29
-66.15
-65.41
-61.61
-54.77
-45.34
-34.08
-21.84
-9.49
2.22
12.65
21.29
27.78
31.95
33.79
33.50
31.47
28.15
24.13
20.04
16.52
14.12
13.17
13.75
15.59
18.22
21.10
23.72
25.73
26.89
27.01
26.00
23.82
20.61
16.65
12.36
8.16
4.44
1.37
-1.08
-3.11
-4.98
-6.95
-9.19
-11.77
-14.75
-18.07
-21.50
-24.60
-26.74
-27.25
-25.74
-22.30
-17.53
-12.34
-7.55
-3.62
-0.56
1.93
4.18
6.43
8.72
11.05
13.43
15.90
18.43
20.86
22.89
24.19
24.54
23.92
22.57
20.86
19.20
17.95
17.30
17.26
17.67
18.26
18.74
18.87
18.55
17.76
16.56
15.02
13.16
10.98
8.44
5.54
2.30
-1.17
-4.74
-8.20
-11.34
-14.04
-16.31
-18.37
-20.63
-23.54
-27.39
-32.18
-37.48
-42.49
-46.28
-47.97
-47.04
-43.47
-37.77
-30.83
-23.65
-17.09
-11.65
-7.40
-4.07
-1.24
1.49
4.35
7.39
10.50
13.51
16.22
18.48
20.24
21.50
22.37
22.97
23.41
23.75
23.97
23.99
23.71
22.98
21.77
20.11
18.15
16.08
14.05
12.14
10.32
8.51
6.62
4.68
2.73
0.86
-0.97
-2.87
-4.93
-7.15
-9.37
-11.26
-12.56
-13.19
-13.35
-13.44
-13.87
-14.85
-16.28
-17.73
-18.74
-18.97
-18.46
-17.62
-17.08
-17.41
-18.90
-21.41
-24.37
-26.98
-28.40
-28.03
-25.60
-21.32
-15.74
-9.67
-3.90
0.94
4.60
7.17
9.00
10.52
12.10
13.93
16.06
18.41
20.80
23.03
24.93
26.32
27.09
27.20
26.70
25.73
24.54
23.45
22.82
22.94
23.94
25.65
27.61
29.13
29.48
28.18
25.17
20.82
15.82
10.92
6.73
3.51
1.18
-0.54
-2.03
-3.58
-5.40
-7.60
-10.21
-13.18
-16.39
-19.55
-22.34
-24.48
-25.85
-26.55
-26.83
-27.05
-27.45
-28.12
-29.04
-30.18
-31.58
-33.33
-35.44
-37.68
-39.55
-40.32
-39.36
-36.37
-31.58
-25.70
-19.67
-14.38
-10.36
-7.65
-5.87
-4.38
-2.56
-0.06
3.14
6.69
10.02
12.56
13.96
14.18
13.47
12.31
11.12
10.26
9.84
9.84
10.11
10.49
10.75
10.69
10.15
9.06
7.50
5.67
3.84
2.23
0.98
0.04
-0.74
-1.59
-2.73
-4.25
-6.07
-7.96
-9.62
-10.77
-11.28
-11.29
-11.16
-11.43
-12.56
-14.80
-18.05
-21.78
-25.21
-27.44
-27.71
-25.65
-21.41
-15.61
-9.22
-3.22
1.68
5.18
7.48
9.00
10.29
11.71
13.40
15.28
17.17
18.83
20.05
20.67
20.60
19.87
18.61
17.10
15.64
14.50
13.82
13.54
13.56
13.71
13.89
14.03
14.07
13.95
13.55
12.81
11.69
10.27
8.65
6.98
5.35
3.82
2.42
1.13
-0.09
-1.33
-2.66
-4.11
-5.66
-7.22
-8.66
-9.90
-10.92
-11.86
-12.93
-14.43
-16.66
-19.73
-23.51
-27.49
-30.82
-32.49
-31.66
-28.00
-21.90
-14.45
-7.03
-0.96
3.01
4.80
4.89
4.00
2.81
1.75
1.01
0.61
0.53
0.76
1.28
2.07
3.13
4.49
6.21
8.33
10.91
13.88
17.12
20.44
23.58
26.30
28.28
29.24
28.99
27.48
24.92
21.72
18.41
15.44
13.11
11.47
10.42
9.75
9.28
8.88
8.50
8.01
7.26
6.07
4.29
1.91
-1.00
-4.23
-7.55
-10.70
-13.42
-15.45
-16.58
-16.70
-15.95
-14.71
-13.63
-13.47
-14.82
-17.79
-21.88
-25.98
-28.73
-28.96
-26.16
-20.66
-13.58
-6.44
-0.63
2.99
4.32
3.95
2.90
2.23
2.72
4.60
7.58
10.97
13.91
15.73
16.10
15.11
13.23
11.11
9.42
8.64
8.94
10.11
11.68
13.02
13.55
12.93
11.17
8.56
5.61
2.89
0.80
-0.39
-0.69
-0.32
0.36
0.91
0.97
0.34
-0.97
-2.70
-4.54
-6.14
-7.33
-8.11
-8.62
-9.07
-9.67
-10.60
-12.03
-14.12
-16.93
-20.29
-23.65
-26.14
-26.81
-25.01
-20.68
-14.46
-7.42
-0.71
4.90
9.17
12.29
14.63
16.51
18.02
19.10
19.66
19.64
19.16
18.40
17.58
16.89
16.36
15.95
15.50
14.88
14.06
13.16
12.36
11.79
11.41
10.98
10.14
8.57
6.17
3.07
-0.33
-3.56
-6.21
-8.05
-9.18
-9.92
-10.75
-12.10
-14.16
-16.70
-19.19
-20.96
-21.51
-20.73
-18.94
-16.77
-14.95
-14.16
-14.84
-17.21
-21.19
-26.27
-31.51
-35.58
-37.04
-34.76
-28.37
-18.48
-6.57
5.41
15.65
22.91
26.78
27.60
26.23
23.66
20.79
18.29
16.50
15.52
15.23
15.37
15.57
15.50
14.89
13.64
11.90
10.00
8.41
7.52
7.50
8.12
8.84
9.00
8.10
6.04
3.19
0.26
-2.09
-3.43
-3.77
-3.41
-2.76
-2.15
-1.71
-1.45
-1.29
-1.23
-1.26
-1.40
-1.62
-1.88
-2.14
-2.48
-3.04
-4.00
-5.47
-7.39
-9.63
-12.02
-14.50
-17.20
-20.35
-24.16
-28.59
-33.24
-37.27
-39.66
-39.53
-36.46
-30.69
-23.12
-14.99
-7.50
-1.50
2.72
5.33
6.87
7.98
9.27
11.16
13.78
16.95
20.18
22.91
24.63
25.18
24.72
23.69
22.62
21.93
21.80
22.23
23.07
24.09
24.99
25.47
25.26
24.22
22.38
19.94
17.13
14.19
11.28
8.56
6.13
4.11
2.57
1.47
0.67
0.01
-0.60
-1.16
-1.55
-1.71
-1.68
-1.69
-2.08
-3.16
-5.05
-7.65
-10.62
-13.49
-15.78
-17.18
-17.64
-17.43
-17.02
-16.98
-17.77
-19.60
-22.35
-25.55
-28.45
-30.15
-29.85
-27.03
-21.67
-14.32
-5.96
2.27
9.37
14.76
18.32
20.36
21.41
22.02
22.59
23.33
24.21
25.07
25.66
25.76
25.21
23.99
22.25
20.21
18.15
16.30
14.84
13.83
13.17
12.71
12.23
11.57
10.72
9.79
8.99
8.50
8.38
8.47
8.49
8.13
7.19
5.67
3.78
1.84
0.14
-1.11
-1.90
-2.39
-2.82
-3.44
-4.43
-5.85
-7.70
-9.91
-12.46
-15.42
-18.93
-23.17
-28.26
-34.15
-40.55
-46.99
-52.84
-57.49
-60.39
-61.19
-59.84
-56.48
-51.31
-44.30
-35.07
-22.99
-7.53
11.21
32.08
52.88
70.79
83.33
89.15
88.38
82.46
73.36
62.86
52.12
41.84
32.57
24.97
19.79
17.52
18.08
20.72
24.23
27.41
29.51
30.41
30.50
30.36
30.43
30.82
31.31
31.53
31.08
29.85
28.05
26.18
24.85
24.48
25.10
26.28
27.39
27.99
28.04
27.97
28.40
29.71
31.63
33.15
32.78
29.03
20.99
8.60
-7.31
-25.17
-42.87
-58.02
-68.34
-72.05
-68.43
-58.09
-43.02
-26.16
-10.65
0.98
7.35
8.37
5.00
-1.25
-8.86
-16.57
-23.52
-29.22
-33.41
-36.00
-37.12
-37.14
-36.63
-36.27
-36.56
-37.64
-39.23
-40.74
-41.60
-41.49
-40.52
-39.16
-38.07
-37.79
-38.60
-40.45
-43.01
-45.76
-48.26
-50.19
-51.48
-52.23
-52.54
-52.44
-51.80
-50.50
-48.60
-46.55
-45.14
-45.27
-47.63
-52.29
-58.56
-65.13
-70.35
-72.74
-71.35
-66.03
-57.39
-46.60
-35.06
-24.09
-14.61
-7.05
-1.32
3.06
6.71
10.24
14.02
18.03
21.93
25.08
26.84
26.82
25.16
22.71
20.92
21.51
25.90
34.68
47.31
62.31
77.74
91.95
104.09
114.24
123.08
131.43
139.73
147.87
155.16
160.48
162.48
159.88
151.74
137.96
119.44
97.96
75.49
53.37
31.81
9.88
-13.78
-39.97
-68.34
-97.31
-124.81
-149.18
-169.82
-187.24
-202.69
-217.44
-232.25
-246.93
-260.17
-269.68
-272.53
-265.90
-247.87
-218.06
-177.82
-129.60
-75.98
-18.75
41.38
104.12
168.38
231.35
288.55
334.90
366.51
382.06
383.18
373.46
356.90
336.40
313.15
287.02
257.43
224.12
187.33
147.48
104.79
59.25
11.08
-38.67
-87.91
-133.94
-174.29
-207.60
-233.79
-253.38
-266.48
-271.99
-267.67
-251.13
-221.01
-177.68
-122.86
-58.96
11.52
85.66
159.29
226.58
280.69
315.62
328.44
320.42
296.36
262.49
223.95
183.51
141.73
98.47
54.38
11.34
-28.16
-62.44
-91.59
-117.40
-142.51
-169.11
-198.15
-229.14
-260.80
-291.69
-320.38
-345.13
-363.39
-371.82
-367.25
-348.12
