1595953571.00
64.000000
-0.00
-0.00
-0.00
-0.00
-0.00
-0.00
-0.00
-0.00
-0.00
-0.00
0.00
0.01
0.01
-0.00
-0.03
-0.05
-0.05
0.00
0.13
0.36
0.66
1.01
1.37
1.72
2.06
2.40
2.79
3.24
3.80
4.42
5.06
5.66
6.20
6.68
7.15
7.68
8.31
9.14
10.09
11.04
11.88
12.56
13.14
13.76
14.65
15.96
17.91
20.32
22.90
25.38
27.58
29.57
31.68
34.32
37.81
42.54
48.15
54.10
59.83
64.97
69.58
74.14
79.34
85.71
93.76
103.00
112.62
121.73
129.77
136.75
143.30
150.75
157.77
166.64
177.95
191.79
206.97
220.57
228.25
225.36
208.53
176.87
132.76
80.05
23.07
-34.94
-92.44
-149.16
-205.23
-260.37
-313.74
-363.87
-409.83
-450.91
-486.50
-515.74
-537.23
-549.22
-549.96
-538.37
-514.21
-478.67
-433.88
-382.45
-327.02
-269.84
-212.63
-156.66
-102.95
-52.37
-5.90
35.58
71.43
101.35
125.50
144.38
158.69
169.15
176.37
180.75
182.57
182.07
179.51
175.23
169.65
163.18
156.15
148.81
141.30
133.69
126.02
118.33
110.69
103.16
95.80
88.68
81.83
75.25
68.95
62.95
57.25
51.86
46.78
42.03
37.59
33.45
29.61
26.07
22.81
19.83
17.11
14.67
12.48
10.54
8.84
7.35
6.07
4.97
4.04
3.26
2.63
2.11
1.69
1.33
1.02
0.73
0.46
0.22
0.03
-0.10
-0.17
-0.20
-0.23
-0.28
-0.36
-0.47
-0.59
-0.67
-0.69
-0.64
-0.55
-0.47
-0.46
-0.54
-0.69
-0.86
-0.98
-0.98
-0.85
-0.66
-0.55
-0.64
-1.00
-1.57
-2.21
-2.70
-2.88
-2.72
-2.38
-2.15
-2.30
-2.97
-4.08
-5.31
-6.25
-6.58
-6.24
-5.50
-4.86
-4.81
-5.61
-7.13
-8.88
-10.25
-10.73
-10.22
-8.99
-7.61
-6.65
-6.60
-7.75
-10.17
-13.45
-16.54
-17.76
-15.17
-7.45
5.33
21.36
37.62
51.07
59.95
64.30
65.67
66.00
66.62
67.68
68.49
68.22
66.10
61.87
55.55
47.14
36.66
24.25
10.40
-4.09
-18.18
-30.96
-41.65
-49.73
-54.89
-57.02
-56.28
-53.14
-48.27
-42.43
-36.26
-30.12
-24.20
-18.58
-13.42
-9.00
-5.66
-3.68
-3.08
-3.56
-4.55
-5.28
-5.01
-3.32
-0.13
4.06
8.47
12.29
14.87
15.91
15.56
14.25
12.61
11.26
10.63
10.94
12.16
14.00
15.91
17.35
17.99
17.86
17.42
17.42
18.65
21.63
26.43
32.32
38.10
42.46
44.35
43.31
39.55
33.71
26.43
19.32
13.16
8.09
3.79
-0.16
-3.92
-7.33
-9.97
-11.48
-11.76
-11.20
-10.39
-9.77
-9.56
-9.66
-9.82
-9.79
-9.45
-8.83
-8.25
-8.03
-8.38
-9.34
-10.69
-12.07
-13.06
-13.30
-12.66
-11.39
-9.99
-9.06
-9.18
-10.69
-13.63
-17.59
-21.77
-25.10
-26.58
-25.55
-21.95
-16.43
-10.07
-4.06
0.70
3.82
5.39
5.75
5.28
4.21
2.66
0.75
-1.36
-3.48
-5.35
-6.77
-7.51
-7.41
-6.42
-4.74
-2.78
-1.10
-0.14
-0.02
-0.45
-0.92
-0.98
-0.55
0.03
0.27
-0.16
-1.12
-2.05
-2.22
-1.08
1.48
5.04
8.98
12.62
15.41
16.94
16.86
14.81
10.66
4.70
-2.31
-9.32
-15.49
-20.60
-25.37
-31.13
-39.32
-50.81
-65.52
-82.46
-100.04
-116.69
-131.27
-143.29
-152.90
-160.59
-166.87
-171.97
-175.81
-177.98
-177.91
-174.87
-168.07
-156.69
-140.10
-118.23
-91.92
-63.06
-34.14
-7.77
14.12
30.44
40.96
45.92
45.78
41.19
33.19
23.26
13.19
4.60
-1.52
-5.12
-6.88
-7.97
-9.48
-12.12
-16.05
-20.85
-25.75
-29.97
-33.06
-35.21
-37.27
-40.51
-46.26
-55.47
-68.51
-85.02
-103.76
-122.59
-138.62
-148.77
-150.54
-142.91
-126.76
-104.66
-79.92
-55.55
-33.44
-14.25
2.06
15.54
25.81
32.11
33.89
31.35
25.63
18.56
11.94
6.95
4.01
2.86
3.10
4.51
7.01
10.32
13.66
15.72
15.03
10.68
2.72
-7.68
-18.80
-29.03
-37.51
-44.31
-50.19
-56.09
-62.70
-70.20
-78.39
-86.82
-95.02
-102.50
-108.65
-112.61
-113.35
-109.95
-101.93
-89.42
-73.06
-53.70
-31.83
-7.44
19.69
49.28
79.77
108.17
130.91
145.39
151.33
151.34
150.06
152.43
161.72
178.45
200.60
224.88
248.28
269.01
286.57
301.09
312.52
320.37
323.98
323.02
317.87
309.48
298.97
287.08
273.93
259.16
242.43
223.79
203.87
183.60
163.69
144.33
125.17
105.58
85.14
63.88
42.34
21.46
2.28
-14.24
-27.41
-36.95
-43.06
-46.40
-48.02
-49.07
-50.52
-52.78
-55.65
-58.37
-59.91
-59.51
-56.90
-52.48
-47.14
-41.93
-37.51
-34.21
-32.08
-31.05
-30.88
-31.27
-31.93
-32.56
-33.07
-33.31
-33.41
-33.62
-34.16
-34.77
-34.58
-32.31
-26.70
-17.20
-3.74
12.52
29.54
44.98
57.16
65.63
70.98
74.88
79.38
88.03
102.95
123.59
146.34
165.92
177.39
177.44
166.44
147.61
129.50
119.67
121.72
134.29
153.44
175.27
196.35
215.57
231.94
250.02
273.36
302.94
337.34
375.00
415.42
455.84
492.87
519.87
537.09
545.76
547.01
541.32
529.97
516.44
502.01
489.13
434.52
318.49
153.03
-24.20
-176.93
-288.91
-353.27
-389.29
-410.48
-426.13
-434.92
-435.81
-430.29
-424.03
-423.71
-431.88
-451.00
-467.80
-470.46
-447.70
-397.85
-328.80
-251.89
-187.66
-137.38
-100.40
-73.76
-57.24
-48.99
-40.63
-29.90
-17.68
-6.02
5.24
14.63
22.38
27.67
31.42
34.79
37.46
38.83
38.19
36.62
33.81
30.15
25.31
19.67
13.92
8.00
2.14
-3.40
-7.39
-9.64
-9.82
-8.01
-4.35
1.25
8.46
17.16
27.15
38.45
50.39
62.20
73.00
82.13
89.22
93.95
96.38
96.76
95.57
93.17
89.83
85.81
81.29
76.42
71.15
65.45
59.33
52.81
45.98
38.98
31.97
25.12
18.52
12.23
6.20
0.32
-5.61
-11.80
-18.45
-25.67
-33.54
-41.97
-50.83
-59.85
-68.76
-77.24
-85.02
-91.79
-97.28
-101.25
-103.46
-103.74
-102.07
-98.51
-93.28
-86.65
-78.94
-70.43
-61.34
-51.78
-41.87
-31.65
-21.27
-10.89
-0.74
9.02
18.27
27.06
35.50
43.69
51.59
58.90
65.10
69.54
71.67
71.22
68.33
63.48
57.27
50.09
41.87
32.09
19.92
4.75
-13.55
-34.41
-56.68
-79.12
-100.98
-122.40
-144.36
-168.39
-195.76
-226.87
-261.05
-296.86
-332.60
-367.09
-400.11
-432.24
-464.78
-499.49
-538.46
-583.72
-636.15
-694.11
-752.48
-803.21
-837.48
-848.92
-836.18
-803.53
-759.07
-711.37
-666.52
-626.72
-591.06
-557.31
-523.69
-489.42
-454.28
-417.90
-379.42
-337.80
-292.49
-243.80
-192.82
-141.00
-89.67
-39.46
9.75
58.16
105.78
151.96
195.49
235.32
271.46
305.47
340.23
378.58
421.15
464.68
502.00
523.85
521.68
490.34
429.36
343.60
242.27
137.19
40.44
-37.98
-92.15
-121.48
-130.61
-128.33
-123.44
-122.12
-126.72
-136.61
-150.00
-165.01
-180.10
-194.02
-206.67
-216.55
-221.18
-218.33
-207.53
-190.51
-170.06
-148.75
-128.56
-112.97
-103.15
-98.02
-95.47
-94.19
-94.68
-97.61
-102.74
-108.78
-116.33
-122.95
-123.60
-112.41
-85.47
-42.65
14.47
83.73
180.62
302.50
431.56
543.62
622.64
665.69
677.50
665.96
639.34
603.78
560.02
509.78
456.08
402.88
357.89
319.12
283.78
251.99
224.04
197.18
170.32
143.89
119.80
99.85
83.99
71.57
66.44
72.61
85.03
100.65
117.43
134.71
152.53
170.42
187.26
208.01
236.99
275.25
322.31
376.59
436.52
500.83
568.30
608.15
601.36
546.38
460.34
367.01
283.74
218.03
170.65
148.02
138.04
133.28
126.12
109.07
76.95
29.00
-32.30
-104.99
-182.18
-255.96
-311.32
-339.51
-341.74
-325.62
-298.73
-267.06
-234.06
-201.26
-171.69
-144.21
-117.57
-90.91
-68.31
-47.20
-26.49
-5.98
14.53
33.14
50.05
65.28
78.80
90.48
100.70
108.22
110.83
112.04
111.84
110.54
108.19
104.95
101.21
98.05
95.66
94.03
93.32
92.61
91.51
89.79
87.49
84.96
82.90
81.33
79.92
78.28
75.33
70.29
62.77
52.75
40.51
26.62
11.28
-5.45
-23.59
-43.45
-64.91
-87.39
-110.02
-131.84
-152.10
-170.65
-187.90
-204.57
-221.59
-239.47
-258.13
-277.11
-295.93
-314.29
-332.39
-350.86
-370.47
-392.15
-416.95
-445.97
-479.95
-518.39
-558.78
-596.54
-626.04
-642.36
-642.94
-628.29
-601.29
-565.65
-524.36
-479.21
-431.21
-381.49
-331.94
-284.89
-242.31
-205.05
-172.74
-144.27
-118.66
-95.55
-75.14
-57.72
-43.34
-31.38
-20.80
-10.52
0.09
11.07
21.97
32.24
41.71
50.84
60.60
71.99
85.48
100.70
116.51
131.52
144.90
156.91
168.90
182.86
200.45
222.08
246.70
272.18
296.26
317.58
336.28
353.96
373.15
396.62
426.65
464.33
508.61
555.62
598.78
629.96
641.91
630.52
596.36
544.24
481.14
413.71
346.26
280.07
213.96
145.85
74.50
1.09
-70.22
-132.84
-179.44
-204.24
-204.86
-182.63
-141.42
-85.65
-19.60
52.01
122.53
182.78
222.66
234.58
216.79
174.55
117.96
57.66
0.79
-50.88
-99.69
-149.35
-201.75
-255.56
-306.65
-349.74
-380.32
-395.84
-395.91
-381.95
-356.34
-321.35
-278.86
-230.39
-177.37
-121.51
-65.05
-10.45
40.01
84.96
124.39
159.75
193.42
227.66
263.46
299.86
334.06
362.20
380.59
386.75
379.92
360.83
331.09
292.40
245.96
192.34
131.84
65.79
-2.49
-67.00
-119.78
-153.23
-162.99
-150.11
-120.92
-84.93
-51.21
-25.32
-8.49
1.38
7.56
12.27
16.20
18.87
19.48
17.29
11.28
-0.26
-19.51
-47.69
-83.68
-122.79
-157.20
-178.14
-178.45
-154.60
-107.04
-39.50
42.10
130.32
216.47
291.12
345.57
374.08
375.83
355.42
321.19
282.08
244.76
212.27
184.53
159.88
136.82
114.41
91.94
68.36
42.25
12.37
-21.67
-59.10
-98.43
-138.02
-176.99
-215.60
-255.38
-298.81
-348.76
-407.15
-473.47
-543.48
-609.31
-661.19
-690.65
-693.59
-671.93
-632.68
-585.06
-537.03
-492.96
-453.43
-416.82
-381.42
-346.74
-313.50
-282.75
-254.84
-229.11
-204.16
-178.59
-151.65
-123.47
-94.95
-67.32
-41.65
-18.40
2.64
22.25
41.46
61.06
81.41
102.63
125.03
149.14
175.38
203.00
229.25
249.45
258.09
250.96
227.09
189.49
144.28
98.50
57.84
25.42
1.92
-13.24
-20.80
-21.20
-14.99
-3.33
11.92
28.73
45.81
63.13
81.58
102.26
125.50
150.37
175.19
198.44
219.85
240.67
263.42
291.09
326.21
369.79
420.41
473.84
523.36
561.16
580.45
577.48
552.78
510.45
456.55
396.69
334.56
271.49
207.61
143.39
80.88
23.64
-24.31
-60.26
-84.21
-99.07
-109.37
-119.13
-129.51
-138.15
-140.22
-131.04
-108.90
-76.56
-40.26
-7.16
17.67
33.09
41.52
47.06
52.88
59.65
65.39
66.41
59.25
41.98
14.95
-19.44
-57.25
-93.83
-124.43
-145.14
-153.39
-148.75
-133.39
-112.01
-90.82
-75.86
-70.85
-75.41
-84.79
-91.26
-86.69
-65.66
-27.82
21.79
74.07
118.82
147.97
157.61
148.67
126.09
96.98
68.75
47.51
36.90
37.44
46.93
61.30
76.25
88.79
98.28
106.39
115.79
128.59
145.00
163.47
181.62
197.84
211.80
223.88
234.05
240.79
241.36
233.01
214.66
187.64
155.56
122.61
91.78
64.05
38.25
12.22
-16.06
-47.68
-82.54
-119.34
-155.72
-188.49
-214.22
-230.09
-234.82
-229.36
-216.67
-201.27
-188.08
-181.37
-183.76
-195.16
-212.36
-229.19
-237.72
-230.29
-201.72
-150.96
-81.46
-0.27
83.59
160.95
224.02
267.45
288.86
289.10
271.78
242.30
206.50
169.42
134.45
103.36
76.48
53.23
32.36
12.06
-10.18
-36.97
-70.18
-109.57
-151.65
-189.60
-214.92
-218.70
-195.93
-147.00
-77.86
1.59
80.37
149.05
201.42
234.37
248.57
246.26
231.01
207.17
179.33
151.58
126.76
106.05
88.00
72.15
56.62
40.04
21.96
2.86
-16.37
-34.87
-52.40
-72.03
-91.45
-111.26
-131.43
-151.24
-169.58
-185.75
-199.88
-213.17
-232.90
-254.22
-277.58
-302.06
-325.89
-347.32
-365.65
-381.76
-397.76
-425.10
-456.09
-492.50
-535.09
-583.16
-633.87
-682.10
-720.76
-742.67
-754.28
-741.56
-708.06
-660.11
-604.11
-544.15
-481.42
-415.78
-276.09
-161.59
-64.88
5.90
45.21
52.99
35.22
2.07
-35.27
-67.53
-100.30
-117.65
-118.74
-103.71
-73.74
-31.84
16.84
65.65
108.30
132.20
147.32
156.89
166.31
181.15
205.37
240.00
282.27
325.11
352.68
360.42
340.73
292.93
224.69
149.96
84.22
39.09
18.90
18.09
32.71
55.51
81.70
109.35
137.84
166.21
192.61
215.05
231.95
246.21
262.05
284.78
318.37
363.08
414.00
461.59
494.09
501.51
479.16
429.39
360.67
284.41
211.03
147.29
95.77
55.97
26.14
4.53
-10.28
-19.57
-24.45
-25.39
-21.96
-13.13
1.47
20.45
39.83
53.81
56.38
43.21
13.17
-31.13
-83.69
-136.04
-178.68
-203.04
-203.94
-181.31
-140.57
-90.73
-40.71
4.40
45.19
86.71
134.42
189.72
247.83
298.99
332.55
341.59
325.59
289.56
240.94
186.27
129.53
73.06
19.55
-26.93
-61.65
-81.74
-88.37
-87.09
-85.81
-91.05
-105.05
-124.98
-144.64
-157.26
-158.35
-146.88
-124.64
-94.92
-61.10
-26.22
6.93
35.51
56.60
67.72
67.92
58.39
42.51
25.24
11.86
6.83
12.86
30.51
57.78
90.07
120.79
142.64
150.09
141.66
121.28
97.59
80.63
77.64
89.58
110.54
130.14
138.30
129.42
104.22
68.37
29.15
-8.11
-41.93
-74.02
-107.64
-145.36
-188.23
-235.71
-285.88
-335.79
-381.10
-416.63
-437.30
-440.49
-427.44
-403.56
-376.71
-354.10
-339.41
-331.61
-325.97
-316.50
-298.54
-270.28
-232.93
-189.86
-145.24
-102.88
-65.38
-33.74
-7.27
15.79
37.78
61.04
87.41
118.51
155.85
201.04
254.95
316.50
381.46
442.28
489.77
515.89
516.61
493.30
451.89
400.25
345.18
290.48
236.86
183.71
130.83
79.49
31.79
-10.94
-49.97
-89.66
-136.04
-193.71
-262.58
-336.03
-402.11
-447.50
-462.79
-446.31
-404.37
-347.89
-287.32
-229.04
-174.85
-124.32
-77.51
-35.82
-0.58
29.04
56.41
85.13
115.59
143.02
159.19
157.16
135.99
102.47
68.46
45.41
39.61
50.53
72.74
99.30
124.21
142.77
150.48
142.66
115.26
67.58
4.59
-62.66
-119.75
-153.55
-157.08
-132.29
-89.61
-44.51
-12.38
-3.48
-20.04
-56.34
-101.19
-142.26
-169.65
-177.80
-165.38
-133.92
-86.55
-27.82
36.01
96.81
145.68
175.03
181.02
164.95
132.78
93.40
55.61
25.74
5.91
-6.36
-17.64
-36.38
-69.94
-121.05
-185.57
-252.96
-309.61
-343.98
-351.00
-333.41
-299.62
-259.53
-220.39
-185.02
-152.48
-120.16
-85.80
-48.18
-6.99
37.01
81.37
121.24
149.61
159.07
144.74
106.78
51.23
-11.42
-69.42
-113.07
-136.92
-140.28
-126.22
-100.01
-67.45
-33.57
-1.57
27.54
54.88
82.60
112.62
145.20
178.28
207.48
227.21
231.86
217.44
182.81
130.23
65.09
-5.15
-72.49
-129.97
-172.73
-198.43
-207.04
-200.31
-181.13
-152.91
-119.20
-83.45
-48.70
-17.28
9.42
31.07
48.31
62.34
74.28
84.98
94.97
104.77
115.27
128.03
144.99
168.07
198.68
237.41
283.58
334.77
386.28
431.46
463.01
475.32
466.71
440.25
402.27
359.16
314.55
268.03
217.05
160.10
99.50
41.85
-4.26
-31.72
-37.73
-24.41
2.51
36.01
69.64
98.25
118.33
127.80
126.40
115.58
98.06
76.54
52.29
24.47
-9.10
-49.77
-95.98
-142.09
-179.62
-200.11
-198.12
-172.71
-126.69
-64.69
8.86
90.02
174.57
256.31
326.65
376.45
399.28
394.55
368.01
329.59
289.47
254.79
227.73
205.80
184.07
158.31
127.13
91.97
55.68
21.00
-10.17
-37.48
-62.36
-87.47
-115.59
-148.57
-187.61
-232.77
-282.05
-329.96
-368.35
-389.36
-388.77
-367.21
-329.60
-284.16
-239.49
-206.40
-192.51
-197.36
-213.13
-231.92
-249.59
-264.73
-277.04
-285.79
-289.77
-287.51
-278.32
-263.35
-246.15
-229.83
-214.23
-197.88
-178.99
-156.13
-128.20
-95.04
-58.02
-20.58
8.90
27.08
34.07
31.60
21.94
7.47
-10.02
-24.44
-38.53
-54.53
-72.69
-91.86
-110.93
-128.86
-144.61
-157.29
-166.24
-171.69
-172.24
-170.96
-168.19
-164.09
-158.87
-152.76
-146.06
-139.10
-133.01
-128.05
-124.01
-120.02
-115.73
-111.12
-106.26
-101.38
-96.71
-92.91
-89.54
-86.07
-81.87
-77.08
-72.12
-67.32
-62.79
-58.52
-54.63
-50.44
-45.38
-39.00
-31.61
-23.83
-16.23
-9.19
-3.00
2.10
7.49
14.28
22.79
32.12
41.01
48.52
54.28
58.24
60.55
65.52
76.53
94.27
116.13
138.34
158.07
173.96
185.63
193.30
205.77
230.13
267.75
313.42
359.50
400.34
433.18
457.31
473.29
495.55
535.91
597.00
670.88
745.68
812.61
867.63
910.20
941.72
981.74
1046.18
1138.67
1248.75
1361.33
1466.33
1560.66
1645.15
1614.83
1408.58
1036.28
578.82
130.00
-251.18
-544.48
-753.44
-892.44
-979.82
-1016.99
-1006.34
-957.21
-887.30
-814.58
-751.42
-704.11
-675.03
-663.70
-654.06
-631.51
-590.39
-536.43
-479.93
-429.03
-390.76
-369.37
-366.13
-371.28
-375.70
-371.71
-360.56
-347.29
-336.25
-333.76
-344.50
-370.04
-404.45
-440.98
-476.14
-511.54
-550.15
-570.04
-554.07
-497.17
-409.01
-304.28
-196.90
-98.57
-18.55
38.82
75.17
92.92
96.14
89.31
76.61
61.52
46.45
33.22
23.75
19.40
17.40
14.66
8.18
-2.90
-17.09
-32.18
-46.07
-57.01
-64.07
-69.17
-74.93
-83.43
-95.26
-109.14
-123.40
-136.32
-146.33
-152.30
-154.45
-153.12
-147.85
-141.52
-134.51
-126.64
-117.54
-106.89
-94.59
-81.23
-67.69
-54.97
-43.90
-34.39
-26.34
-19.51
-13.56
-8.14
-2.98
1.96
6.46
10.08
12.88
14.91
16.51
18.26
20.93
25.19
31.35
39.22
48.13
57.55
67.04
76.62
86.79
98.37
112.11
128.21
146.17
164.88
183.18
200.20
215.69
230.14
244.55
260.18
278.25
299.67
324.61
351.98
378.91
400.96
413.18
411.79
395.73
367.33
331.36
293.25
257.13
224.95
196.63
171.23
148.09
127.29
109.37
94.49
82.01
70.63
59.12
47.07
35.08
24.43
16.40
11.82
10.37
10.80
11.49
11.18
9.44
6.79
4.53
4.45
8.91
19.46
36.33
58.17
82.37
105.82
125.64
139.88
147.95
151.47
152.06
150.66
147.62
143.60
140.28
140.20
145.71
157.93
177.64
202.65
228.42
249.58
262.02
263.81
254.88
235.98
208.18
175.02
139.31
102.69
65.61
28.42
-8.19
-43.25
-76.05
-119.16
-174.33
-233.85
-285.28
-320.18
-337.02
-338.89
-329.95
-314.08
-294.51
-271.30
-244.79
-216.22
-188.08
-162.27
-140.67
-122.35
-106.19
-92.44
-79.56
-66.38
-52.33
-38.39
-25.61
-14.54
-4.98
3.11
7.04
5.35
-3.10
-14.15
-26.28
-38.94
-51.89
-64.45
-76.10
-90.36
-109.13
-131.84
-155.82
-179.21
-201.18
-221.69
-240.38
-257.25
-277.58
-305.12
-340.31
-380.54
-423.56
-468.38
-514.83
-562.11
-575.71
-537.15
-451.92
-345.37
-243.12
-159.19
-96.62
-52.93
-23.70
-5.37
0.65
-4.09
-12.61
-14.28
-0.68
30.17
71.05
116.41
159.54
191.81
209.69
215.77
216.54
217.82
222.41
226.94
230.11
231.57
229.53
223.24
213.09
200.13
185.06
167.88
152.27
137.81
124.37
111.09
97.34
82.78
67.33
50.79
29.41
5.07
-19.66
-42.39
-61.88
-77.71
-90.11
-99.81
-107.91
-114.03
-118.32
-120.99
-121.84
-120.70
-117.74
-113.59
-109.21
-105.64
-102.84
-100.09
-96.67
-91.59
-83.90
-72.88
-57.89
-37.90
-16.47
5.25
27.03
48.87
71.22
94.74
120.07
147.45
176.19
204.32
229.41
248.34
258.34
258.23
248.92
232.98
213.62
193.40
173.47
154.28
135.57
117.15
99.35
82.87
68.27
55.62
44.40
33.75
23.29
12.79
2.38
-7.66
-16.88
-24.69
-30.22
-32.40
-30.32
-23.52
-12.57
0.84
14.38
25.76
33.33
36.48
35.43
30.90
23.79
14.93
5.13
-4.81
-14.07
-22.10
-28.73
-34.22
-39.05
-43.50
-47.47
-50.45
-51.82
-51.19
-48.68
-44.87
-40.53
-36.38
-32.77
-29.74
-27.12
-24.75
-22.56
-20.57
-18.80
-17.23
-15.83
-14.63
-13.75
-13.39
-13.68
-14.60
-15.95
-17.42
-18.74
-19.79
-20.59
-21.25
-21.85
-22.36
-22.70
-22.83
-22.78
-22.64
-22.55
-22.50
-22.38
-22.00
-21.16
-19.79
-17.97
-15.89
-13.82
-11.96
-10.45
-9.33
-8.54
-8.01
-7.69
-7.54
-7.57
-7.77
-8.12
-8.53
-8.87
-8.98
-8.70
-7.90
-6.57
-4.76
-2.66
-0.50
1.46
3.00
4.01
4.49
4.56
4.37
4.04
3.62
3.05
2.25
1.13
-0.29
-1.91
-3.54
-5.02
-6.22
-7.06
-7.57
-7.76
-7.64
-7.26
-6.67
-6.00
-5.38
-4.95
-4.78
-4.86
-5.13
-5.51
-5.89
-6.17
-6.27
-6.13
-5.80
-5.41
-5.20
-5.39
-6.06
-7.09
-8.20
-9.02
-9.28
-8.89
-7.95
-6.68
-5.34
-4.10
-3.05
-2.18
-1.43
-0.77
-0.19
0.28
0.64
0.96
1.35
1.96
2.83
3.88
4.89
5.61
5.86
5.65
5.09
4.37
3.60
2.79
1.90
0.88
-0.23
-1.34
-2.39
-3.41
-4.50
-5.77
-7.26
-8.85
-10.37
-11.64
-12.53
-13.10
-13.46
-13.77
-14.21
-14.90
-15.90
-17.20
-18.70
-20.26
-21.70
-22.87
-23.58
-23.70
-23.16
-21.89
-19.92
-17.30
-14.16
-10.60
-6.72
-2.55
1.86
6.45
11.09
15.56
19.60
22.93
25.34
26.73
27.13
26.67
25.60
24.21
22.71
21.27
19.94
18.68
17.41
16.04
14.49
12.79
11.00
9.23
7.66
6.49
5.89
5.98
6.74
8.04
9.61
11.14
12.39
13.19
13.50
13.38
12.88
12.11
11.20
10.34
9.76
9.67
10.19
11.25
12.68
14.17
15.45
16.32
16.73
16.70
16.33
15.67
14.78
13.67
12.38
10.95
9.42
7.81
6.12
4.27
2.23
-0.02
-2.42
-4.79
-6.94
-8.70
-10.06
-11.17
-12.34
-13.88
-16.02
-18.76
-21.84
-24.87
-27.36
-28.96
-29.50
-29.07
-27.88
-26.24
-24.42
-22.61
-20.91
-19.42
-18.22
-17.35
-16.80
-16.38
-15.83
-14.87
-13.35
-11.31
-8.99
-6.72
-4.75
-3.17
-1.89
-0.72
0.56
2.10
4.01
6.27
8.80
11.41
13.86
15.89
17.30
18.00
18.05
17.65
17.06
16.51
16.15
15.97
15.87
15.61
14.94
13.65
11.68
9.13
6.27
3.38
0.74
-1.53
-3.39
-4.91
-6.16
-7.20
-8.05
-8.71
-9.19
-9.54
-9.83
-10.18
-10.70
-11.44
-12.34
-13.22
-13.78
-13.74
-12.92
-11.29
-9.02
-6.33
-3.47
-0.65
1.95
4.20
5.97
7.21
7.98
8.45
8.84
9.39
10.27
11.43
12.57
13.15
12.54
10.32
6.53
1.74
-3.10
-7.04
-9.43
-10.16
-9.59
-8.26
-6.65
-5.01
-3.44
-1.97
-0.66
0.40
1.18
1.73
2.19
2.70
3.30
3.97
4.61
5.07
5.28
5.17
4.76
4.19
3.68
3.56
4.09
5.42
7.45
9.93
12.45
14.70
16.55
18.03
19.31
20.54
21.73
22.81
23.64
24.21
24.63
25.18
26.17
27.90
30.46
33.73
37.34
40.74
43.33
44.60
44.27
42.35
39.06
34.78
29.88
24.70
19.48
14.46
9.84
5.79
2.38
-0.41
-2.69
-4.48
-5.71
-6.21
-5.85
-4.79
-3.50
-2.76
-3.31
-5.63
-9.67
-14.97
-20.83
-26.58
-31.81
-36.28
-39.92
-42.69
-44.56
-45.59
-45.94
-45.88
-45.69
-45.50
-45.31
-44.99
-44.37
-43.31
-41.82
-39.95
-37.85
-35.73
-33.77
-32.08
-30.67
-29.42
-28.11
-26.51
-24.45
-21.82
-18.65
-15.02
-11.05
-6.86
-2.54
1.81
6.08
10.11
13.75
16.87
19.37
21.24
22.47
23.03
22.86
21.89
20.11
17.72
15.09
12.69
10.97
10.16
10.22
10.88
11.74
12.44
12.74
12.60
12.09
11.39
10.64
9.97
9.39
8.86
8.28
7.61
6.86
6.16
5.67
5.51
5.68
6.01
6.26
6.21
5.74
4.93
3.98
3.11
2.42
1.89
1.36
0.70
-0.13
-1.04
-1.86
-2.39
-2.55
-2.33
-1.82
-1.15
-0.40
0.36
1.05
1.62
2.03
2.27
2.35
2.40
2.53
2.81
3.23
3.63
3.80
3.58
2.93
2.01
1.08
0.43
0.24
0.54
1.18
2.01
2.82
3.48
3.89
3.95
3.64
3.02
2.23
1.42
0.74
0.24
-0.12
-0.36
-0.51
-0.52
-0.37
-0.10
0.21
0.41
0.42
0.23
-0.14
-0.69
-1.50
-2.69
-4.32
-6.37
-8.70
-11.03
-13.11
-14.68
-15.53
-15.53
-14.64
-12.94
-10.64
-8.10
-5.66
-3.65
-2.24
-1.42
-1.06
-0.93
-0.79
-0.42
0.36
1.70
3.65
6.22
9.30
12.72
16.30
19.83
23.24
26.46
29.55
32.61
35.78
39.23
43.11
47.54
52.55
58.01
63.71
69.38
74.82
80.00
85.10
90.48
96.51
103.48
111.43
120.16
129.32
138.58
147.81
157.20
167.09
177.81
189.28
200.89
211.57
220.10
225.48
227.13
224.71
217.85
205.96
188.26
164.15
133.61
97.35
56.52
12.40
-33.77
-80.46
-125.40
-165.34
-196.48
-215.62
-221.32
-214.66
-198.93
-178.56
-157.73
-139.37
-124.89
-114.54
-108.10
-105.28
-105.79
-109.22
-114.77
-121.34
-127.77
-133.17
-137.25
-140.37
-143.32
-146.82
-151.01
-155.17
-157.82
-157.29
-152.35
-142.79
-129.45
-113.96
-98.03
-82.99
-69.47
-57.46
-46.65
-36.69
-27.39
-18.71
-10.70
-3.40
3.18
9.02
14.13
18.50
22.06
24.57
25.66
24.87
21.91
16.80
10.03
2.54
-4.56
-10.24
-13.91
-15.41
-15.04
-13.37
-11.05
-8.70
-6.81
-5.69
-5.46
-6.03
-7.13
-8.40
-9.47
-10.07
-10.11
-9.62
-8.81
-7.99
-7.51
-7.67
-8.61
-10.24
-12.25
-14.25
-15.94
-17.14
-17.79
-17.74
-16.67
-14.12
-9.74
-3.64
3.47
10.39
15.82
18.89
19.40
17.85
15.05
11.74
8.36
4.96
1.57
-1.69
-4.42
-6.04
-6.08
-4.34
-1.04
3.26
7.86
12.09
15.43
17.55
18.25
17.50
15.41
12.31
8.65
4.95
1.62
-1.10
-3.28
-5.19
-7.24
-9.87
-13.30
-17.54
-22.31
-27.16
-31.57
-35.13
-37.61
-38.99
-39.32
-38.74
-37.37
-35.40
-33.10
-30.80
-28.89
-27.65
-27.24
-27.63
-28.69
-30.21
-31.96
-33.73
-35.30
-36.46
-36.99
-36.66
-35.18
-32.31
-27.86
-21.84
-14.49
-6.33
1.96
9.63
16.04
20.80
23.78
25.16
25.34
24.86
24.21
23.75
23.57
23.49
23.15
22.18
20.24
17.26
13.38
9.06
4.94
1.69
-0.20
-0.60
0.20
1.58
2.91
3.82
4.34
4.84
5.81
7.54
9.98
12.78
15.53
17.87
19.70
21.03
21.95
22.49
22.63
22.32
21.55
20.43
19.13
17.89
16.99
16.64
17.05
18.24
20.13
22.45
24.85
26.97
28.48
29.18
28.97
27.84
25.91
23.44
20.81
18.49
16.82
15.84
15.21
14.27
12.31
8.97
4.43
-0.64
-5.30
-8.75
-10.62
-11.01
-10.36
-9.21
-8.07
-7.28
-7.02
-7.31
-8.00
-8.81
-9.41
-9.55
-9.23
-8.66
-8.23
-8.21
-8.68
-9.39
-9.92
-9.87
-8.97
-7.19
-4.74
-1.88
1.11
4.00
6.60
8.69
10.07
10.57
10.16
8.96
7.24
5.32
3.46
1.75
0.14
-1.55
-3.45
-5.53
-7.60
-9.31
-10.32
-10.42
-9.69
-8.48
-7.30
-6.62
-6.66
-7.37
-8.44
-9.49
-10.27
-10.67
-10.82
-10.88
-10.98
-11.05
-10.88
-10.05
-8.18
-4.95
-0.37
5.18
10.92
15.96
19.51
21.21
21.22
20.05
18.31
16.38
14.33
12.04
9.41
6.57
3.90
1.93
1.07
1.49
3.04
5.39
8.12
10.86
13.34
15.36
16.77
17.49
17.47
16.75
15.47
13.85
12.14
10.56
9.10
7.56
5.58
2.84
-0.76
-5.01
-9.49
-13.74
-17.49
-20.75
-23.78
-26.84
-30.08
-33.37
-36.40
-38.78
-40.26
-40.84
-40.79
-40.70
-41.31
-43.50
-48.04
-55.47
-65.92
-79.02
-93.96
-109.63
-124.96
-139.21
-152.21
-164.52
-177.25
-191.79
-209.25
-229.89
-252.75
-275.52
-294.98
-307.81
-311.44
-304.67
-287.86
-262.56
-230.89
-194.87
-156.09
-115.69
-74.56
-33.64
6.09
43.59
78.09
109.35
137.70
164.12
190.16
217.79
249.13
285.69
327.45
372.05
414.44
447.78
465.21
462.11
437.65
395.09
340.64
281.57
224.39
173.74
132.30
101.23
80.63
69.89
67.68
72.08
80.75
91.42
102.29
112.26
120.98
128.53
135.02
140.21
143.30
142.97
137.80
126.77
109.73
87.58
62.11
35.44
9.47
-14.50
-35.91
-54.67
-70.85
-84.34
-94.85
-102.03
-105.72
-106.05
-103.36
-97.91
-89.81
-79.03
-65.61
-50.00
-33.17
-16.48
-1.41
10.79
19.31
23.87
24.66
22.24
17.40
10.98
3.69
-4.06
-12.06
-20.30
-28.60
-36.55
-43.43
-48.43
-50.87
-50.46
-47.33
-41.92
-34.84
-26.68
-18.03
-9.46
-1.57
5.02
9.83
12.64
13.57
13.02
11.56
9.60
7.29
4.37
0.43
-4.92
-11.72
-19.55
-27.53
-34.55
-39.55
-41.77
-40.87
-36.87
-30.15
-21.26
-10.92
-0.00
10.54
19.74
26.79
31.20
32.92
32.32
29.97
26.39
21.75
15.88
8.37
-1.02
-12.15
-24.40
-36.85
-48.62
-59.09
-67.94
-74.97
-79.86
-82.05
-80.87
-75.85
-67.03
-55.10
-41.44
-27.57
-14.61
-3.14
6.63
14.61
20.73
24.80
26.83
26.89
25.49
23.60
22.50
23.39
27.22
34.91
47.39
65.81
90.60
121.69
158.11
197.56
236.17
268.86
290.74
298.18
290.00
266.15
229.20
184.22
137.42
94.05
56.79
26.19
0.54
-22.04
-45.80
-72.33
-98.55
-117.54
-122.28
-109.78
-81.47
-44.75
-9.14
11.36
7.52
-20.76
-65.45
-115.70
-164.00
-205.80
-241.91
-273.87
-309.31
-353.07
-403.79
-455.47
-502.23
-543.05
-578.15
-610.81
-598.92
-517.08
-373.20
-204.67
-48.72
76.94
158.39
209.00
237.56
249.82
242.96
213.95
168.62
114.80
68.47
39.38
31.37
39.02
55.31
69.99
76.84
75.88
71.44
68.63
68.86
72.38
76.81
81.03
81.86
77.54
69.08
59.43
51.83
47.03
44.92
43.81
42.90
40.61
36.10
29.87
23.31
17.98
14.23
11.81
9.87
8.13
6.26
4.29
2.74
2.45
2.91
5.23
9.71
16.12
24.27
34.00
45.05
57.04
69.45
81.84
93.60
104.04
112.77
119.83
125.48
130.20
134.57
139.25
144.96
151.87
159.89
168.79
178.26
187.84
197.07
205.48
212.71
218.67
222.81
224.79
224.48
221.86
216.95
209.53
199.02
184.03
167.67
151.17
135.33
120.69
107.49
95.74
85.22
75.62
66.64
58.12
49.42
40.14
30.14
19.44
8.14
-3.57
-15.52
-27.42
-38.84
-49.80
-60.07
-69.33
-77.34
-84.07
-89.82
-95.15
-100.62
-106.53
-113.08
-119.87
-126.10
-130.96
-133.98
-135.31
-135.64
-135.85
-136.53
-137.76
-138.80
-138.43
-135.51
-129.66
-121.61
-113.04
-105.99
-102.09
-101.90
-104.71
-109.02
-113.25
-116.64
-119.36
-122.60
-128.07
-137.74
-153.71
-177.65
-209.47
-245.68
-278.77
-298.94
-297.90
-273.42
-231.82
-186.52
-153.17
-143.86
-163.34
-208.93
-273.05
-346.46
-420.20
-486.03
-536.36
-564.92
-568.56
-548.84
-512.07
-467.08
-421.90
-381.50
-347.05
-317.16
-289.36
-261.56
-232.56
-201.83
-169.43
-135.54
-100.95
-66.95
-34.97
-6.18
18.99
40.87
60.22
77.97
95.53
113.75
132.66
151.47
169.21
185.27
199.65
212.86
225.93
240.90
259.30
281.20
305.09
328.49
348.96
364.59
374.55
379.48
382.19
385.58
391.15
398.33
405.05
408.72
406.99
398.68
375.83
335.35
281.07
222.49
169.03
125.59
92.02
65.89
44.75
28.79
20.41
23.09
39.13
68.57
109.97
161.01
219.85
277.00
321.67
344.02
338.28
305.30
252.25
190.34
133.95
86.17
45.00
7.81
-27.08
-60.45
-93.17
-127.82
-166.06
-211.50
-259.44
-304.38
-340.70
-364.68
-373.94
-365.75
-337.39
-288.18
-232.47
-176.84
-130.07
-99.29
-86.80
-88.77
-97.19
-104.42
-97.89
-73.63
-33.54
13.30
57.87
95.23
125.14
149.67
170.02
186.12
196.13
200.02
197.16
189.15
178.51
167.69
157.95
149.33
140.18
128.29
113.37
94.33
71.68
46.53
20.16
-6.84
-34.77
-63.77
-94.08
-118.02
-134.06
-142.30
-143.99
-146.90
-151.19
-155.40
-157.30
-154.68
-145.56
-131.03
-112.98
-95.02
-68.87
-33.32
8.38
50.75
88.52
118.55
137.52
145.86
142.51
126.41
95.75
48.54
-15.24
-93.54
-175.61
-246.43
-289.60
-296.51
-268.76
-217.04
-155.17
-94.80
-42.75
-1.34
26.04
40.45
40.32
24.89
-4.05
-41.21
-79.82
-114.08
-141.13
-162.59
-176.60
-182.39
-178.68
-164.80
-142.41
-116.57
-93.67
-78.69
-77.25
-88.19
-104.45
-118.38
-124.71
-120.75
-105.40
-77.24
-35.56
18.02
76.75
129.81
166.14
179.76
171.23
144.90
107.32
75.17
49.65
30.53
17.50
10.30
9.47
16.98
26.03
35.23
44.47
54.62
67.94
85.58
106.85
130.10
153.62
175.66
196.13
214.83
233.66
254.74
278.28
302.15
323.66
341.06
353.46
361.81
367.20
374.01
385.41
401.13
417.55
430.17
436.14
434.17
424.77
381.16
292.64
167.69
29.43
-99.45
-206.76
-289.67
-350.98
-394.74
-423.94
-436.67
-432.25
-413.16
-385.51
-355.35
-325.10
-295.46
-265.83
-234.33
-196.34
-149.49
-94.41
-34.84
24.39
81.04
133.94
175.69
202.41
215.21
217.50
213.94
207.66
189.63
156.47
108.98
51.90
-6.87
-58.43
-95.77
-114.33
-113.08
-96.61
-69.61
-38.58
-11.15
6.54
11.38
-0.12
-23.83
-50.96
-72.31
-81.50
-78.71
-68.87
-57.40
-48.15
-42.98
-42.34
-47.86
-60.88
-80.90
-104.59
-125.85
-137.61
-135.02
-117.99
-89.12
-58.17
-35.47
-26.56
-30.85
-43.30
-57.67
-69.53
-77.51
-81.93
-84.55
-86.49
-87.72
-87.65
-85.74
-81.69
-75.46
-67.17
-56.52
-43.36
-27.61
-9.34
11.15
33.46
57.10
81.56
104.02
123.64
139.53
150.93
157.60
159.72
158.16
154.18
149.10
144.07
140.50
139.36
141.16
145.04
148.08
145.57
132.65
106.78
69.69
27.70
-11.02
-39.64
-55.29
-59.64
-57.05
-51.87
-46.58
-41.33
-35.12
-27.61
-19.75
-13.25
-9.38
-8.00
-7.59
-6.30
-2.79
2.95
9.46
14.44
15.84
12.56
5.18
-4.36
-13.94
-21.99
-28.22
-33.59
-39.84
-47.79
-57.98
-69.30
-79.23
-85.41
-86.47
-82.84
-76.45
-70.25
-66.62
-66.50
-69.58
-72.58
-72.93
-69.29
-62.45
-54.76
-49.36
-48.57
-52.49
-60.91
-71.74
-81.83
-86.96
-83.23
-65.97
-33.85
9.76
56.60
96.02
119.19
122.73
110.16
89.82
70.70
58.13
52.31
49.46
45.22
38.02
29.10
20.70
13.67
6.74
-3.25
-19.58
-43.56
-72.73
-102.86
-127.50
-139.91
-135.49
-113.09
-75.80
-30.02
15.50
53.95
79.64
89.68
84.49
67.42
44.36
22.01
6.48
1.11
5.57
16.11
27.57
35.15
35.39
26.78
8.96
-16.77
-47.20
-77.03
-99.89
-109.99
-103.68
-83.26
-55.02
-26.60
-4.06
11.39
21.97
31.74
44.55
61.18
78.68
91.43
92.69
78.67
51.00
16.89
-13.55
-31.46
-33.24
-22.24
-6.36
6.03
10.25
6.26
-1.84
-9.43
-14.35
-17.46
-20.80
-25.07
-28.42
-27.13
-17.96
-0.01
24.29
50.33
73.00
88.67
96.32
97.49
95.28
93.02
93.25
97.04
103.75
111.15
116.08
115.19
106.45
90.13
68.84
46.64
27.48
13.87
6.21
4.30
6.48
11.27
17.99
26.53
36.54
46.96
56.10
62.41
65.10
63.99
60.16
55.55
52.29
51.82
54.31
58.73
63.16
65.68
64.38
58.81
49.82
38.83
26.97
14.26
-0.83
-21.24
-46.46
-77.09
-113.26
-154.66
-200.36
-248.19
-294.01
-331.54
-353.75
-355.30
-335.77
-300.07
-257.13
-216.65
-185.78
-167.39
-160.60
-162.69
-171.02
-183.91
-198.96
-212.12
-217.59
-209.19
-182.71
-137.85
-78.92
-13.80
47.97
98.17
131.94
148.89
152.62
148.89
143.22
138.79
135.79
132.35
126.58
118.18
108.73
100.77
96.58
97.23
102.57
111.64
122.85
133.94
141.60
141.70
129.81
102.67
60.03
5.74
-52.28
-103.87
-139.66
-154.47
-149.11
-129.92
-105.68
-83.38
-65.44
-49.19
-29.31
-1.35
35.32
76.71
115.56
144.01
156.10
148.93
122.88
80.85
27.49
-31.73
-91.22
-145.69
-190.32
-220.57
-233.48
-228.51
-208.17
-177.48
-142.60
-109.00
-79.93
-55.82
-33.67
-10.24
16.18
44.69
72.40
96.12
113.48
124.09
129.68
135.40
146.37
166.07
195.69
234.86
281.86
332.90
381.98
421.35
446.10
453.49
444.06
421.32
390.94
358.78
328.42
301.34
262.35
205.18
134.04
62.09
2.28
-40.09
-67.80
-87.98
-106.26
-124.85
-140.50
-149.51
-150.14
-145.77
-141.89
-144.03
-157.12
-183.30
-221.33
-264.53
-304.06
-331.48
-341.62
-334.18
-307.49
-267.19
-222.35
-181.79
-149.43
-124.33
-101.95
-77.01
-45.70
-7.06
35.97
78.91
117.29
148.37
170.81
184.30
188.92
184.90
172.44
151.04
120.79
82.60
38.59
-8.59
-56.08
-101.18
-140.97
-172.18
-191.90
-197.74
-188.96
-167.03
-135.40
-98.28
-59.52
-21.76
13.54
45.22
72.38
94.53
112.18
127.07
141.62
157.48
174.13
188.23
194.40
187.47
164.78
127.38
79.61
27.78
-21.67
-63.41
-93.82
-111.05
-114.82
-106.54
-89.44
-68.34
-48.86
-36.20
-33.98
-43.29
-62.51
-87.57
-112.75
-131.89
-139.81
-133.56
-113.29
-82.13
-45.05
-7.35
26.94
55.79
79.11
97.77
112.30
121.91
124.53
117.78
100.46
73.79
41.49
8.71
-19.96
-42.04
-57.58
-68.19
-75.42
-79.57
-79.40
-73.15
-59.98
-41.06
-19.43
0.88
16.35
25.08
27.26
24.67
19.42
12.94
5.26
-4.62
-17.64
-33.69
-51.15
-67.40
-80.08
-88.03
-91.51
-91.79
-90.20
-87.66
-84.85
-82.49
-81.36
-81.75
-82.95
-82.87
-78.57
-67.51
-48.70
-23.14
6.30
35.72
61.21
79.88
90.44
93.28
90.15
83.35
74.98
66.44
58.15
50.10
41.99
33.39
23.70
12.16
-1.71
-17.41
-33.13
-46.14
-53.75
-54.60
-49.22
-39.71
-28.35
-16.49
-4.18
9.24
23.97
39.02
52.43
62.56
69.16
73.69
78.41
84.84
92.71
100.13
104.73
105.37
103.08
100.93
102.75
111.88
129.95
156.53
188.98
222.72
252.03
271.25
276.37
266.34
243.60
213.10
180.54
150.38
124.77
103.56
85.27
68.24
51.27
33.71
15.29
-3.95
-23.75
-43.64
-63.12
-81.97
-100.57
-120.19
-142.83
-170.68
-204.95
-244.67
-285.79
-321.54
-344.26
-348.29
-332.53
-301.02
-261.32
-221.06
-184.94
-153.65
-125.16
-97.35
-69.93
-44.92
-25.38
-13.72
-10.73
-15.54
-26.15
-39.72
-52.62
-60.63
-59.80
-47.79
-24.98
5.51
39.09
71.42
99.69
122.85
140.80
153.29
159.48
158.35
149.52
133.98
114.10
92.90
73.16
56.47
42.87
31.04
19.11
5.56
-9.82
-25.49
-38.49
-45.37
-43.62
-32.91
-15.67
3.67
20.41
31.47
36.69
38.51
40.37
44.39
50.56
56.86
60.83
60.50
55.41
46.42
35.27
23.82
13.77
7.26
6.75
14.30
29.59
49.51
68.60
81.16
83.20
73.47
54.37
30.89
8.90
-8.15
-19.49
-26.66
-31.54
-36.02
-42.53
-51.62
-61.59
-68.21
-70.11
-68.27
-65.67
-64.01
-64.49
-70.13
-81.48
-96.50
-109.21
-118.45
-124.67
-128.87
-127.79
-119.18
-107.84
-99.35
-97.40
-98.50
-104.09
-115.84
-136.30
-162.78
-195.13
-240.73
-303.44
-379.20
-451.01
-508.67
-546.84
-567.57
-570.91
-517.90
-395.79
-223.71
-76.39
37.88
126.65
217.34
291.73
350.69
389.47
399.15
378.62
336.64
293.24
257.43
229.21
199.50
163.17
114.75
49.29
-29.53
-109.40
-170.30
-203.06
-208.00
-194.49
-169.88
-142.20
-118.64
-100.78
-84.94
-62.42
-30.40
9.88
53.66
98.68
141.65
177.76
202.21
210.91
202.47
175.36
130.72
72.97
11.33
-44.46
-86.83
-111.91
-120.09
-114.69
-101.57
-86.50
-73.80
-65.03
-60.18
-58.25
-57.91
-58.05
-57.87
-56.73
-53.91
-48.56
-39.83
-27.23
-11.00
8.01
28.51
49.25
69.63
89.83
110.65
133.36
159.27
189.52
224.66
264.15
305.88
346.12
379.99
402.74
411.11
404.29
383.92
353.09
314.93
271.59
224.10
173.02
119.57
66.10
15.95
-27.48
-61.62
-85.41
-99.24
-104.51
-102.94
-96.21
-85.72
-72.62
-57.81
-41.98
-25.72
-9.63
5.56
18.93
29.49
36.66
40.61
42.32
42.96
43.29
43.33
42.85
41.92
41.28
41.97
44.55
48.56
52.48
54.52
53.46
49.04
41.88
32.97
23.32
13.86
5.26
-2.19
-8.95
-16.32
-25.72
-37.45
-49.55
-57.94
-58.13
-47.42
-26.55
0.60
28.61
52.61
69.71
79.08
81.21
77.14
68.11
55.62
41.31
26.61
12.24
-1.85
-15.97
-29.64
-41.22
-48.12
-47.82
-39.14
-22.98
-2.08
20.10
40.79
58.72
73.88
86.56
96.26
101.08
98.22
85.23
61.51
28.89
-8.86
-47.37
-83.28
-114.76
-141.16
-161.91
-175.81
-181.21
-177.06
-164.33
-146.45
-128.52
-115.52
-110.47
-113.17
-120.35
-127.08
-128.57
-121.88
-106.89
-86.07
-63.55
-43.54
-28.77
-19.90
-15.84
-14.70
-14.97
-15.99
-17.75
-20.28
-23.07
-25.01
-24.78
-21.79
-16.62
-10.90
-6.68
-5.52
-7.92
-12.74
-17.33
-18.36
-13.34
-2.47
10.78
20.65
21.53
10.63
-9.99
-33.49
-50.76
-53.63
-38.51
-6.83
35.81
81.32
120.14
142.85
142.29
115.19
64.66
-0.97
-68.66
-124.24
-156.15
-159.27
-135.55
-92.37
-40.89
6.93
38.71
45.17
22.89
-24.04
-85.65
-148.42
-199.67
-232.53
-237.83
-215.07
-174.10
-130.63
-95.72
-71.06
-52.77
-31.19
-0.79
39.08
83.92
128.06
165.53
192.38
201.69
190.13
161.61
125.24
90.50
60.27
30.83
-3.49
-42.24
-82.31
-116.47
-137.09
-140.43
-127.72
-105.16
-80.14
-57.93
-39.66
-23.84
-7.33
12.74
37.60
67.28
100.93
137.57
176.19
217.62
260.58
301.64
335.93
358.86
367.90
362.99
346.22
306.76
244.21
168.24
94.82
36.90
-1.57
-23.93
-36.65
-45.49
-53.48
-58.68
-58.69
-52.64
-41.87
-29.62
-19.29
-13.31
-13.10
-18.60
-26.65
-34.12
-39.04
-42.08
-45.66
-51.98
-62.60
-78.35
-99.34
-124.05
-150.92
-178.13
-199.21
-209.99
-206.25
-185.77
-150.58
-107.08
-63.53
-27.38
-2.57
11.27
17.10
18.93
19.33
18.76
16.63
12.89
8.54
5.25
4.25
5.13
6.75
7.52
6.11
2.31
-2.99
-8.24
-11.93
-13.28
-12.83
-11.66
-11.09
-12.12
-14.97
-19.10
-23.52
-27.25
-29.73
-31.21
-32.30
-33.74
-36.11
-39.55
-43.77
-48.24
-52.41
-55.88
-58.58
-60.53
-61.72
-61.98
-60.97
-58.16
-53.03
-45.43
-35.07
-22.12
-7.16
8.99
25.33
40.86
54.66
66.03
74.52
79.96
82.44
82.20
79.66
75.28
69.52
62.82
55.55
48.09
40.69
33.58
26.84
20.51
14.48
8.70
3.16
-2.04
-6.69
-10.51
-13.18
-14.62
-14.97
-14.61
-14.09
-13.83
-14.04
-14.60
-15.23
-15.40
-14.86
-13.87
-13.00
-12.97
-14.25
-16.80
-20.00
-22.95
-24.40
-23.74
-21.20
-17.67
-14.22
-11.60
-9.81
-8.17
-5.76
-1.14
6.61
17.86
32.53
50.02
68.99
87.59
104.03
113.55
114.79
109.14
100.07
91.73
87.05
86.73
89.36
92.62
94.57
95.33
96.16
98.46
102.71
107.70
110.61
108.17
98.23
80.86
59.16
37.57
19.91
7.79
0.20
-5.38
-10.93
-16.64
-20.81
-20.88
-15.49
-5.15
8.05
21.59
33.19
41.55
46.04
46.37
42.38
33.91
21.16
5.16
-12.43
-30.21
-46.87
-61.78
-74.79
-86.28
-97.14
-108.19
-119.30
-129.18
-136.55
-139.80
-137.81
-130.20
-117.75
-102.48
-87.15
-74.45
-66.39
-65.18
-72.08
-87.30
-109.47
-136.02
-163.81
-189.71
-211.13
-218.95
-207.07
-174.67
-127.73
-75.61
-26.40
15.73
50.18
78.16
101.22
119.26
131.60
137.40
137.24
132.91
126.72
120.73
116.30
113.93
112.29
109.42
103.08
92.62
78.78
63.18
47.61
33.43
21.33
10.41
-0.98
-15.34
-33.60
-55.34
-79.22
-103.42
-125.82
-143.84
-154.91
-151.63
-133.43
-103.17
-66.60
-30.93
-2.53
15.01
21.78
20.66
15.55
8.65
1.22
-6.47
-14.36
-21.87
-28.04
-32.10
-34.11
-34.89
-36.24
-39.35
-44.31
-50.22
-55.31
-57.95
-57.07
-52.42
-44.74
-35.24
-24.97
-14.69
-4.82
4.78
13.86
21.89
28.15
31.85
32.30
29.48
24.08
17.45
11.65
8.37
8.76
13.40
22.24
34.70
49.88
66.85
81.70
93.54
102.01
107.08
108.92
107.82
104.24
98.68
91.70
83.81
75.92
68.38
61.39
55.01
49.17
43.81
38.82
34.09
29.55
25.49
21.84
18.62
15.78
13.23
10.92
8.79
6.79
4.87
3.23
1.74
0.44
-0.73
-1.88
-3.14
-4.62
-6.44
-8.73
-10.61
-12.82
-15.53
-18.77
-22.48
-26.58
-30.85
-35.07
-39.04
-42.54
-45.60
-48.08
-50.01
-51.48
-52.66
-53.56
-54.23
-54.72
-55.10
-55.59
-56.22
-57.10
-58.37
-60.20
-62.35
-64.68
-67.05
-69.37
-71.74
-74.23
-77.01
-80.35
-84.50
-89.07
-93.72
-98.15
-102.15
-105.72
-109.03
-112.42
-116.30
-120.96
-125.73
-129.86
-132.52
-132.99
-130.76
-125.51
-116.82
-103.65
-89.07
-73.54
-56.79
-38.24
-17.44
5.55
30.10
55.20
79.79
103.06
125.44
147.58
170.34
194.64
221.40
251.26
283.97
317.82
349.24
373.92
387.39
386.82
372.17
346.31
313.79
279.11
245.23
213.16
182.97
154.39
127.69
103.71
83.24
66.44
52.59
40.48
28.93
17.43
6.00
-4.88
-14.63
-22.86
-29.49
-34.75
-38.96
-42.28
-44.63
-45.70
-45.11
-42.64
-38.52
-33.42
-28.22
-23.60
-19.69
-16.46
-13.68
-11.14
-8.69
-6.26
-3.91
-1.63
0.77
3.57
6.31
8.21
8.70
7.89
6.60
5.98
7.15
10.91
17.57
25.67
32.96
37.31
37.45
33.09
24.32
11.43
-4.99
-23.86
-45.15
-69.07
-95.67
-124.53
-155.09
-187.26
-221.28
-257.14
-285.28
-295.78
-283.51
-252.25
-211.49
-170.04
-132.80
-101.06
-74.07
-50.47
-30.53
-15.31
-5.58
-0.75
1.04
1.92
3.53
6.85
12.14
18.09
22.91
25.28
25.16
23.60
21.92
21.13
21.76
23.88
26.59
28.73
29.44
28.70
27.15
25.56
24.54
24.35
25.01
26.02
26.72
26.67
25.78
24.31
22.61
20.91
19.30
17.80
15.93
13.57
10.63
7.08
2.99
-1.56
-6.47
-11.62
-16.86
-21.96
-26.68
-30.60
-33.30
-34.43
-33.79
-31.31
-27.09
-21.40
-13.78
-5.45
2.85
10.65
17.58
23.47
28.26
32.02
34.91
37.03
38.54
39.70
40.69
41.54
42.23
42.66
42.68
42.14
40.54
37.85
34.10
29.32
23.61
17.14
10.15
2.94
-3.56
-9.48
-14.65
-18.86
-22.00
-24.08
-25.16
-25.39
-24.95
-23.99
-22.81
-21.52
-20.18
-18.87
-17.60
-16.37
-15.20
-14.07
-12.93
-11.88
-10.88
-9.92
-9.01
-8.14
-7.30
-6.50
-6.01
-5.55
-5.19
-4.87
-4.61
-4.41
-4.28
-4.21
-4.21
-4.27
-4.33
-4.46
-4.64
-4.91
-5.31
-5.89
-6.62
-7.49
-8.43
-9.35
-10.27
-11.16
-12.11
-13.21
-14.51
-16.01
-17.65
-19.32
-20.87
-22.28
-23.54
-24.78
-26.14
-27.63
-29.09
-30.20
-30.55
-29.75
-27.99
-25.06
-21.28
-17.14
-13.12
-9.41
-5.86
-2.10
2.31
7.43
13.03
18.36
22.52
24.90
25.56
25.19
24.93
25.79
27.95
30.82
32.83
32.25
27.97
20.23
10.52
1.09
-6.19
-10.77
-13.50
-16.58
-22.37
-32.54
-47.53
-66.79
-88.82
-109.60
-126.18
-134.71
-131.89
-116.42
-90.35
-58.63
-27.46
-1.55
17.66
32.35
47.33
66.35
89.90
114.32
133.86
142.88
138.89
123.11
102.02
83.19
71.77
68.75
71.11
74.52
75.74
74.13
71.27
69.10
68.05
66.56
62.32
53.46
40.33
25.17
10.95
0.30
-5.73
-7.92
-8.18
-8.55
-10.18
-12.83
-15.27
-16.17
-14.56
-10.48
-4.91
0.64
4.89
7.36
8.55
9.61
11.32
14.16
17.99
22.06
25.52
27.85
29.18
30.31
32.34
35.39
39.14
42.66
44.63
43.92
40.03
33.36
25.07
16.58
7.94
-1.35
-12.54
-27.20
-46.66
-71.58
-102.03
-138.35
-174.69
-208.82
-240.08
-269.07
-297.22
-326.48
-358.96
-396.26
-438.44
-482.70
-523.91
-554.31
-566.02
-554.18
-519.07
-466.25
-404.33
-341.75
-283.97
-233.54
-190.11
-152.46
-119.98
-92.77
-71.03
-54.06
-40.09
-26.86
-13.13
1.24
15.32
27.52
36.60
42.26
45.37
47.49
50.35
54.81
60.89
67.80
74.35
79.55
83.02
85.04
86.36
87.86
89.95
92.62
95.41
97.68
98.96
99.09
98.36
97.25
96.29
95.74
95.53
95.18
93.96
91.06
85.73
77.45
65.99
51.41
34.05
14.48
-6.54
-28.08
-49.03
-68.18
-84.16
-95.61
-101.20
-99.89
-91.18
-75.35
-53.50
-27.42
0.72
28.90
55.67
80.29
102.52
122.20
138.81
151.20
157.94
157.83
150.84
138.58
124.20
111.64
104.64
105.26
113.21
126.09
141.29
157.08
173.44
191.92
214.75
244.20
281.46
326.52
378.06
434.17
491.64
545.58
589.49
616.78
623.59
609.25
576.48
529.36
472.54
409.24
341.08
269.83
199.95
141.56
106.06
101.39
126.32
173.21
228.49
277.15
307.47
315.11
307.45
294.92
285.15
277.04
270.00
263.27
257.63
254.43
255.82
269.30
297.54
335.73
368.42
387.54
390.32
378.92
356.54
326.90
301.13
285.92
280.64
272.76
259.38
242.81
228.90
221.78
174.08
67.02
-83.86
-197.86
-265.39
-294.45
-307.20
-311.88
-314.04
-318.11
-319.82
-317.61
-315.08
-326.26
-355.13
-400.59
-458.18
-524.87
-598.39
-671.01
-738.34
-801.25
-868.75
-940.67
-1010.26
-1065.86
-1096.76
-1095.87
-1058.53
-988.38
-896.84
-801.70
-713.22
-634.54
-562.94
-494.45
-425.78
-353.55
-276.57
-195.15
-111.55
-25.61
62.67
151.45
235.83
309.56
367.82
407.83
428.85
430.65
413.83
379.02
328.12
265.99
202.06
148.90
118.46
117.34
143.56
186.78
231.95
264.74
275.86
263.29
231.34
188.02
142.46
103.54
79.02
74.49
91.86
127.75
173.78
217.81
247.28
253.26
233.43
192.28
138.47
81.84
30.53
-8.94
-33.63
-44.55
-46.41
-46.33
-51.98
-70.05
-103.02
-148.09
-194.87
-230.41
-243.94
-230.47
-191.76
-134.74
-70.06
-7.70
45.05
88.12
124.68
157.72
187.97
214.29
235.82
251.33
260.99
247.88
204.77
138.08
64.33
-1.86
-54.27
-88.34
-110.24
-124.70
-135.16
-140.60
-139.44
-131.81
-119.12
-102.72
-80.53
-50.11
-9.63
39.14
92.66
144.00
183.98
204.56
193.27
151.06
92.61
38.78
3.21
-11.30
-10.66
-3.60
3.77
7.72
8.83
7.94
4.79
-2.43
-14.95
-33.30
-57.45
-86.65
-120.90
-159.60
-202.99
-251.65
-304.70
-357.41
-401.30
-426.97
-428.49
-406.36
-366.69
-318.63
-271.31
-230.47
-197.08
-168.38
-140.75
-112.68
-85.04
-59.68
-36.58
-15.13
5.24
24.39
41.97
58.01
72.72
87.65
104.73
127.77
158.03
192.81
225.93
250.77
263.26
262.80
253.97
243.81
242.41
255.92
283.97
320.25
356.66
387.14
408.47
421.97
409.13
360.74
280.79
184.99
89.61
4.49
-60.89
-110.75
-147.36
-170.99
-178.38
-168.22
-143.16
-109.21
-73.92
-44.45
-26.74
-26.07
-42.87
-68.12
-88.87
-95.81
-88.54
-73.31
-58.81
-51.15
-51.47
-57.77
-65.38
-71.37
-73.33
-70.54
-63.24
-52.29
-38.14
-19.81
3.08
29.10
53.35
67.80
63.61
35.70
-14.59
-77.82
-139.02
-183.44
-201.37
-190.45
-155.48
-106.40
-50.83
-0.70
33.30
47.46
45.41
33.17
15.48
-5.77
-30.36
-56.60
-81.27
-99.49
-107.49
-104.81
-95.96
-84.87
-74.45
-66.10
-57.73
-44.65
-20.45
19.93
76.95
142.16
202.29
247.83
268.58
259.32
222.27
167.54
109.73
63.43
37.12
37.13
62.71
103.79
145.23
172.12
174.98
152.08
108.98
55.76
2.83
-36.84
-55.21
-52.24
-33.84
-6.78
24.18
55.94
85.62
110.63
129.26
139.68
141.41
136.20
127.30
117.55
108.21
98.81
87.92
73.49
54.64
30.98
3.37
-26.34
-56.20
-84.67
-110.84
-134.07
-153.97
-170.89
-185.63
-198.87
-211.30
-224.27
-239.90
-260.30
-285.98
-314.29
-339.35
-353.40
-349.34
-323.78
-278.94
-221.77
-161.29
-105.28
-57.97
-19.98
10.42
35.81
58.77
81.55
106.14
134.03
165.56
199.40
232.75
262.19
284.56
297.56
299.84
291.44
273.93
250.23
223.73
197.26
172.20
148.44
125.06
100.99
76.83
54.79
37.23
24.72
15.48
6.21
-6.19
-23.36
-46.47
-74.41
-104.48
-133.95
-161.19
-185.95
-208.72
-230.10
-250.61
-273.07
-298.87
-327.59
-357.31
-385.35
-408.43
-422.90
-425.97
-416.95
-400.90
-382.46
-363.26
-341.46
-313.77
-277.77
-233.71
-185.09
-119.05
-38.91
40.98
105.15
147.20
169.75
178.31
177.03
168.45
154.44
133.93
108.46
81.95
58.73
41.01
28.33
18.74
9.75
1.49
-7.02
-14.52
-17.85
-14.09
-2.63
14.41
33.40
51.51
67.01
77.99
84.76
89.69
96.22
108.01
128.84
156.64
190.22
226.58
259.36
281.16
286.25
272.61
242.34
200.38
152.29
103.11
55.82
12.03
-26.01
-54.64
-69.96
-69.90
-55.91
-32.89
-6.67
17.50
36.77
50.67
60.40
67.33
72.20
75.58
78.80
85.16
98.97
123.77
160.03
203.77
246.51
277.75
288.37
273.50
234.69
179.46
119.53
68.03
36.69
33.29
59.87
111.93
178.98
246.89
301.41
331.95
334.37
311.41
270.89
222.55
175.04
133.81
100.96
76.10
57.62
43.70
32.57
22.30
10.89
-3.29
-20.91
-41.27
-62.51
-82.43
-99.34
-113.01
-124.74
-137.04
-152.43
-172.44
-196.72
-223.06
-248.24
-269.12
-283.66
-291.19
-292.23
-287.93
-279.71
-269.03
-257.19
-245.31
-234.00
-223.44
-213.68
-205.10
-198.75
-195.97
-197.34
-201.59
-205.16
-203.03
-190.78
-166.64
-132.41
-92.91
-54.16
-21.23
3.34
19.83
30.81
39.98
51.17
67.47
90.58
120.04
152.74
183.18
204.84
212.40
203.94
181.90
152.28
122.12
96.66
77.47
62.35
47.29
29.25
8.10
-12.99
-29.19
-36.62
-34.51
-25.72
-15.82
-10.61
-13.72
-25.21
-41.66
-57.60
-67.80
-69.05
-61.02
-46.06
-27.92
-10.43
3.74
13.56
19.41
22.32
23.17
22.12
18.72
12.48
3.19
-8.92
-23.32
-39.45
-56.51
-73.01
-86.69
-94.72
-94.95
-87.18
-73.70
-58.41
-44.86
-34.39
-25.49
-15.20
-1.52
14.93
30.97
42.93
49.02
50.27
49.72
49.99
51.55
52.53
50.29
43.18
31.82
18.55
5.91
-4.72
-13.66
-22.17
-31.08
-39.80
-46.09
-46.86
-39.90
-25.45
-6.76
10.74
21.83
24.04
18.83
10.62
4.17
1.85
2.84
4.51
4.97
4.79
6.63
13.06
24.27
37.25
47.25
50.49
46.52
38.20
29.77
24.30
21.98
20.63
17.63
12.09
5.60
1.06
0.53
3.43
6.35
4.81
-3.91
-18.62
-34.17
-43.35
-40.05
-22.04
7.83
42.61
73.58
93.36
98.22
89.08
70.58
48.82
29.11
14.61
6.25
3.75
6.82
15.41
29.26
47.09
66.26
83.49
96.14
103.27
105.95
106.44
106.94
108.62
111.15
113.08
112.38
107.17
96.06
78.42
54.47
25.26
-7.52
-41.80
-75.73
-108.18
-139.06
-169.02
-198.53
-227.15
-253.03
-273.33
-285.33
-287.20
-278.58
-260.01
-232.27
-195.89
-151.70
-101.84
-50.44
-3.23
34.26
58.57
69.43
69.13
60.99
47.52
30.00
8.91
-15.04
-40.14
-63.75
-82.95
-95.45
-100.03
-96.70
-86.70
-72.21
-56.01
-40.58
-27.21
-15.42
-3.41
10.67
27.50
45.84
63.21
77.04
85.78
89.28
88.22
83.31
74.86
63.06
48.47
32.57
17.46
5.00
-4.15
-10.93
-17.58
-26.44
-38.76
-53.74
-68.34
-78.09
-78.62
-67.14
-43.39
-9.77
29.48
69.46
105.73
135.32
156.94
170.90
178.64
182.00
182.68
181.58
178.55
172.51
162.09
146.22
124.89
99.34
71.82
45.03
21.47
2.62
-11.25
-21.08
-28.70
-35.81
-43.39
-51.19
-58.05
-62.38
-63.06
-59.80
-53.14
-44.08
-33.84
-23.91
-16.51
-14.61
-21.52
-39.73
-69.39
-107.51
-148.22
-184.32
-209.64
-221.02
-218.87
-206.24
-186.99
-164.05
-138.46
-109.72
-76.89
-39.87
0.31
42.14
84.31
125.64
164.33
197.08
218.93
224.77
211.73
180.79
138.07
92.79
53.42
24.16
3.99
-11.43
-26.63
-43.98
-64.38
-86.74
-109.61
-132.18
-154.08
-174.18
-189.75
-196.88
-192.76
-179.37
-161.21
-144.13
-133.70
-133.91
-145.93
-167.78
-194.61
-220.60
-242.52
-257.01
-260.98
-252.49
-231.79
-201.47
-165.61
-128.60
-80.38
-22.00
37.22
85.69
117.11
131.95
134.32
127.91
118.19
109.13
101.14
94.80
91.17
91.13
94.73
100.61
107.48
114.98
123.23
130.80
136.81
140.68
141.36
137.30
126.87
109.78
87.89
64.39
42.40
25.86
19.26
26.44
49.02
84.79
127.71
169.41
202.09
221.46
229.26
232.09
237.38
249.05
265.38
280.51
288.06
284.42
269.92
248.01
222.92
197.71
173.81
151.75
132.07
115.51
102.19
91.23
80.63
67.95
51.28
29.92
4.65
-22.40
-48.28
-69.78
-84.27
-90.66
-89.83
-84.72
-79.73
-79.66
-88.34
-107.17
-134.09
-163.40
-187.33
-198.50
-192.70
-170.64
-137.64
-101.62
-70.27
-48.67
-38.28
-37.38
-42.31
-48.78
-53.15
-53.06
-47.97
-39.19
-29.34
-21.33
-17.34
-17.93
-22.20
-28.36
-34.73
-40.30
-44.94
-49.09
-53.43
-58.40
-63.96
-69.52
-74.18
-76.87
-76.79
-73.44
-66.74
-56.73
-43.52
-27.44
-9.31
9.21
25.79
37.90
43.65
42.41
34.91
23.16
9.74
-2.82
-12.41
-17.62
-17.87
-13.58
-6.29
1.54
7.04
7.94
3.62
-4.42
-13.00
-18.60
-18.86
-13.59
-4.72
4.77
12.16
16.12
16.75
15.22
13.01
11.47
11.37
12.58
13.53
11.30
2.41
-15.42
-41.64
-71.78
-98.54
-114.46
-115.11
-101.20
-78.13
-53.33
-32.70
-18.26
-8.06
1.66
13.62
27.88
42.01
52.79
58.33
59.08
57.36
55.86
56.12
57.99
60.20
61.41
61.03
59.28
56.58
52.99
47.93
40.68
31.23
20.82
11.95
7.51
9.76
19.33
35.01
54.07
73.28
89.75
101.59
108.23
110.24
108.85
105.15
99.33
90.25
75.71
53.67
23.74
-11.66
-47.57
-77.95
-98.01
-105.93
-103.24
-93.72
-81.36
-68.77
-56.61
-44.20
-30.81
-16.66
-3.01
8.40
16.35
20.68
22.15
21.70
19.82
16.31
10.79
3.34
-5.07
-12.81
-18.44
-21.56
-23.18
-25.32
-29.99
-38.02
-48.40
-58.51
-64.88
-64.55
-56.05
-39.85
-18.27
5.24
26.91
43.48
52.63
53.45
46.57
34.17
19.69
6.83
-1.65
-5.04
-4.67
-3.17
-2.95
-5.04
-8.92
-13.08
-16.19
-17.83
-18.45
-18.84
-19.43
-20.06
-20.24
-19.67
-18.49
-17.39
-17.15
-18.43
-21.60
-26.70
-33.50
-41.46
-49.80
-57.53
-63.72
-67.71
-69.34
-69.30
-68.95
-70.12
-74.53
-83.22
-95.63
-109.74
-122.04
-128.48
-125.86
-112.92
-90.98
-63.65
-35.65
-11.54
5.56
14.69
17.08
15.57
13.70
14.63
20.28
31.16
46.64
65.75
87.85
112.45
138.55
163.77
183.95
193.96
189.33
168.15
132.15
86.33
37.32
-8.69
-46.96
-74.96
-91.82
-97.95
-95.20
-87.02
-78.71
-76.71
-86.89
-112.21
-150.88
-195.96
-236.91
-262.69
-265.31
-242.50
-198.41
-142.28
-85.28
-37.02
-2.77
17.62
28.71
36.95
47.79
63.69
84.02
106.00
126.41
142.68
153.20
157.16
154.48
145.86
133.16
119.26
107.34
99.77
97.32
99.20
103.73
109.32
114.84
119.39
121.68
119.91
112.55
99.35
81.87
63.12
46.31
33.48
24.88
19.22
14.53
9.32
3.04
-4.02
-11.23
-18.13
-24.49
-30.02
-34.24
-36.42
-35.82
-32.00
-25.16
-16.18
-6.72
1.05
4.88
3.48
-2.58
-10.41
-15.57
-13.84
-3.32
14.19
33.66
48.88
55.25
51.81
41.44
29.14
19.52
14.84
14.47
15.97
16.94
16.37
15.11
15.05
17.76
23.54
31.29
39.12
45.43
49.66
52.13
53.69
54.90
55.84
56.22
55.92
55.26
54.93
55.44
56.55
57.13
55.46
50.01
40.22
26.81
11.69
-2.53
-13.32
-19.12
-19.89
-17.17
-13.74
-12.56
-15.46
-22.13
-29.83
-33.97
-29.78
-14.28
12.26
46.05
80.94
110.29
129.08
134.93
128.34
112.10
90.29
67.16
46.12
29.17
16.47
6.56
-3.11
-15.34
-32.11
-54.07
-80.16
-107.70
-132.88
-151.59
-160.59
-158.26
-145.17
-124.03
-98.93
-74.19
-53.23
-37.86
-27.91
-21.74
-17.07
-12.08
-6.53
-2.30
-2.74
-10.97
-27.93
-51.24
-75.72
-95.83
-108.11
-113.03
-114.99
-120.25
-133.99
-158.16
-190.68
-226.14
-257.51
-277.11
-279.10
-262.07
-230.21
-192.10
-157.42
-132.66
-118.35
-109.68
-98.01
-75.60
-39.47
7.69
59.59
108.86
148.60
172.74
176.19
158.17
123.77
83.17
48.76
31.16
35.22
58.41
95.33
132.11
154.29
156.08
141.81
119.25
93.97
68.15
42.55
18.28
-3.11
-19.16
-28.12
-30.66
-30.00
-30.06
-33.85
-42.36
-54.60
-68.80
-82.25
-92.32
-97.76
-99.86
-99.07
-95.58
-88.94
-78.17
-62.49
-41.08
-13.65
18.98
53.49
86.48
115.17
137.80
153.62
162.62
165.74
164.42
159.97
153.29
145.11
135.98
126.83
119.21
114.65
113.22
112.66
108.05
93.85
66.94
28.60
-15.63
-58.07
-91.98
-113.59
-121.90
-117.34
-100.76
-73.41
-38.15
-0.72
31.23
50.52
53.35
40.81
18.30
-7.33
-30.47
-47.82
-58.81
-64.22
-65.18
-62.97
-59.04
-55.00
-52.82
-54.37
-60.91
-72.72
-88.93
-107.84
-127.37
-145.69
-161.02
-172.46
-179.87
-183.74
-184.97
-184.51
-183.35
-182.53
-183.13
-185.49
-189.81
-196.00
-203.51
-211.39
-218.23
-222.17
-221.10
-217.28
-211.41
-204.33
-196.92
-189.93
-183.91
-179.13
-175.50
-172.77
-170.63
-168.06
-164.25
-158.66
-150.89
-140.77
-128.47
-114.41
-99.24
-83.79
-68.45
-53.68
-39.91
-27.40
-16.22
-6.36
2.32
10.04
17.07
24.02
31.50
40.07
50.18
62.17
76.20
92.12
109.46
127.40
145.00
161.09
174.46
184.01
188.91
188.68
183.27
173.06
158.77
141.40
122.09
101.97
82.04
63.15
45.86
30.55
17.33
6.18
-3.01
-10.42
-16.21
-20.58
-23.69
-25.74
-26.94
-27.50
-27.59
-27.32
-26.64
-25.37
-23.28
-20.03
-15.42
-9.28
-1.62
7.40
17.54
28.47
39.81
51.05
61.58
70.67
77.53
81.52
82.35
80.20
75.84
70.45
65.40
61.88
60.62
61.85
65.37
70.85
78.12
87.35
98.97
113.42
130.79
150.61
171.86
193.32
213.93
233.22
251.35
269.04
287.30
307.30
330.16
356.68
386.64
418.27
447.99
471.03
482.82
480.56
464.36
437.11
403.31
367.34
332.24
299.34
268.85
240.71
215.13
192.40
172.37
154.02
135.55
115.11
91.66
65.45
38.09
11.86
-11.27
-30.34
-45.61
-58.36
-70.17
-82.36
-95.58
-109.64
-123.71
-136.48
-146.55
-152.70
-154.40
-151.92
-146.34
-139.16
-131.75
-124.99
-119.09
-113.74
-108.40
-102.60
-96.03
-88.65
-80.73
-72.76
-65.53
-59.89
-56.35
-54.81
-54.57
-54.56
-53.78
-51.79
-48.73
-45.17
-41.79
-39.12
-37.19
-35.45
-32.54
-26.37
-14.64
4.31
30.05
59.23
85.77
102.44
103.38
86.30
53.34
10.19
-35.90
-78.35
-112.50
-135.60
-146.27
-143.82
-128.40
-101.57
-66.84
-29.36
5.09
31.63
47.68
53.27
50.59
42.84
32.99
23.06
13.94
5.76
-1.58
-8.00
-13.18
-16.73
-18.51
-18.73
-17.98
-17.00
-16.34
-16.16
-16.27
-16.25
-15.77
-14.76
-13.36
-11.81
-10.23
-8.48
-6.18
-2.86
1.74
7.56
14.05
20.30
25.17
27.68
27.29
24.04
18.59
11.97
5.28
-0.58
-5.09
-8.16
-9.93
-10.68
-10.70
-10.28
-9.69
-9.21
-9.07
-9.35
-10.02
-10.85
-11.51
-11.67
-11.14
-9.91
-8.21
-6.37
-4.72
-3.42
-2.40
-1.42
-0.19
1.41
3.28
5.15
6.74
7.88
8.60
9.10
9.64
10.43
11.55
12.92
14.42
15.86
17.17
18.34
19.52
20.93
22.83
25.33
28.36
31.70
35.04
38.16
41.07
43.97
47.17
50.86
54.92
58.95
62.27
64.26
64.56
63.26
60.82
57.86
54.85
51.72
47.87
42.31
34.11
22.89
9.11
-6.02
-20.77
-33.21
-41.47
-43.84
-38.95
-26.03
-5.19
22.40
54.50
88.25
120.94
150.74
176.87
199.06
216.64
227.82
229.71
219.31
194.81
156.66
107.47
50.98
-9.51
-72.24
-136.73
-202.45
-267.18
-326.56
-375.06
-408.38
-425.60
-430.21
-429.16
-430.05
-438.18
-454.52
-475.71
-495.83
-508.88
-510.67
-499.41
-475.27
-439.41
-393.39
-339.09
-279.05
-216.50
-155.08
-97.91
-46.65
-1.04
40.97
81.96
123.64
165.69
205.48
238.87
261.82
272.02
269.78
257.99
240.75
221.88
203.95
187.88
173.53
160.50
148.64
138.03
128.75
120.54
112.86
105.12
97.01
88.60
80.36
72.89
66.61
61.57
57.43
53.59
49.59
45.24
40.73
36.59
33.31
31.16
30.02
29.39
28.63
27.29
25.14
22.30
19.12
16.02
13.40
11.61
10.83
11.11
12.39
14.47
17.10
20.05
23.19
26.43
29.82
33.30
36.81
40.19
43.23
45.86
48.20
50.58
53.42
57.05
61.43
66.12
70.38
73.43
74.88
74.80
73.78
72.56
71.71
71.31
71.01
70.16
68.20
64.87
60.34
55.03
49.47
44.11
39.43
36.02
34.66
35.93
39.53
43.64
44.97
39.51
23.87
-3.38
-41.39
-87.90
-140.68
-198.46
-260.27
-323.84
-383.90
-432.31
-460.13
-461.00
-433.67
-382.40
-314.96
-239.85
-164.18
-93.20
-31.01
18.68
52.87
70.39
73.28
66.88
58.48
54.88
60.16
74.71
95.80
119.14
140.83
158.61
172.10
182.28
190.32
196.79
201.08
201.62
196.68
185.12
167.03
143.70
117.33
90.54
65.85
45.26
30.07
20.78
17.10
18.06
22.13
27.49
32.27
34.86
34.06
29.24
20.20
7.21
-8.86
-26.42
-43.14
-56.31
-63.56
-63.73
-57.23
-45.98
-32.65
-19.65
-8.39
0.86
8.60
15.42
21.50
26.57
30.22
32.39
33.54
34.44
35.76
37.62
39.38
39.73
37.21
30.63
19.58
4.55
-13.28
-32.39
-51.29
-68.86
-84.45
-97.70
-108.42
-116.35
-121.10
-122.35
-120.02
-114.42
-106.28
-96.54
-86.13
-75.81
-66.13
-57.47
-50.21
-44.65
-41.01
-39.24
-38.99
-39.62
-40.36
-40.46
-39.34
-36.71
-32.60
-27.35
-21.53
-15.74
-10.48
-6.07
-2.58
0.12
2.19
3.76
4.95
5.82
6.47
7.00
7.41
7.67
7.65
7.31
6.75
6.17
5.81
5.78
6.03
6.39
6.68
6.80
6.76
6.71
6.74
6.90
7.15
7.43
7.65
7.75
7.64
7.30
6.73
6.07
5.44
5.03
4.94
5.20
5.74
6.40
7.03
7.50
7.77
7.89
8.00
8.28
8.91
9.98
11.49
13.37
15.48
17.68
19.86
21.98
23.99
25.87
27.63
29.26
30.79
32.28
33.83
35.54
37.49
39.72
42.19
44.82
47.49
50.17
52.84
55.57
58.46
61.50
64.66
67.79
70.68
73.05
74.65
75.24
74.62
72.69
69.35
64.51
58.08
49.98
40.16
28.81
16.31
3.25
-9.59
-21.41
-31.49
-39.34
-44.66
-47.45
-47.91
-46.42
-43.51
-39.68
-35.48
-31.30
-27.49
-24.27
-21.85
-20.33
-19.74
-19.96
-20.66
-21.41
-21.72
-21.24
-19.88
-17.85
-15.61
-13.72
-12.65
-12.62
-13.68
-15.59
-18.02
-20.63
-23.14
-25.34
-27.10
-28.42
-29.39
-30.28
-31.39
-32.94
-34.97
-37.22
-39.30
-40.80
-41.52
-41.46
-40.81
-39.72
-38.23
-36.31
-33.92
-31.15
-28.18
-25.27
-22.59
-20.23
-18.25
-16.75
-15.91
-15.89
-16.80
-18.53
-20.85
-23.37
-25.71
-27.48
-28.41
-28.30
-27.04
-24.69
-21.54
-18.04
-14.73
-12.09
-10.38
-9.57
-9.41
-9.56
-9.73
-9.86
-10.10
-10.73
-11.99
-14.02
-16.70
-19.71
-22.63
-25.09
-26.87
-27.95
-28.45
-28.56
-28.44
-28.09
-27.34
-25.90
-23.46
-19.84
-15.11
-9.63
-4.09
0.77
4.27
6.03
6.10
4.92
3.14
1.47
0.45
0.33
1.12
2.66
4.71
7.01
9.26
11.16
12.39
12.74
12.12
10.63
8.53
6.11
3.64
1.34
-0.62
-2.10
-2.92
-3.02
-2.38
-1.19
0.29
1.72
2.77
3.19
2.76
1.43
-0.68
-3.24
-5.77
-7.76
-8.83
-8.89
-8.08
-6.75
-5.24
-3.82
-2.64
-1.79
-1.33
-1.28
-1.64
-2.33
-3.18
-4.01
-4.74
-5.37
-5.97
-6.64
-7.38
-8.16
-8.91
-9.60
-10.23
-10.85
-11.48
-12.11
-12.66
-13.02
-13.07
-12.69
-11.73
-10.12
-7.80
-4.89
-1.62
1.68
4.65
7.00
8.66
9.71
10.42
11.03
11.67
12.28
12.59
12.28
11.08
8.89
5.78
1.96
-2.34
-6.92
-11.63
-16.38
-21.02
-25.35
-29.11
-32.04
-33.91
-34.51
-33.66
-31.21
-27.14
-21.58
-15.00
-8.13
-1.85
3.00
5.88
6.72
5.80
3.71
1.06
-1.66
-4.19
-6.42
-8.34
-9.98
-11.31
-12.27
-12.82
-13.00
-12.90
-12.70
-12.53
-12.49
-12.63
-12.89
-13.18
-13.30
-13.00
-12.03
-10.26
-7.68
-4.42
-0.70
3.37
7.61
11.77
15.41
17.99
19.13
18.95
18.15
17.85
19.14
22.56
27.89
34.34
40.95
47.04
52.33
56.87
60.72
63.76
65.70
66.20
65.16
62.75
59.31
55.29
51.09
47.04
43.45
40.59
38.66
37.75
37.68
38.09
38.48
38.37
37.46
35.73
33.31
30.49
27.61
24.94
22.66
20.88
19.54
18.42
17.23
15.67
13.50
10.65
7.20
3.30
-0.82
-5.02
-9.18
-13.22
-17.06
-20.64
-23.91
-26.90
-29.69
-32.33
-34.85
-37.14
-39.05
-40.36
-40.87
-40.48
-39.22
-37.24
-34.76
-32.06
-29.38
-26.90
-24.72
-22.87
-21.28
-19.89
-18.60
-17.31
-15.97
-14.58
-13.23
-12.09
-11.29
-10.89
-10.75
-10.62
-10.15
-9.12
-7.46
-5.29
-2.82
-0.28
2.13
4.26
5.95
7.06
7.51
7.35
6.80
6.12
5.58
5.33
5.34
5.49
5.61
5.61
5.46
5.17
4.75
4.21
3.57
2.84
2.14
1.62
1.43
1.71
2.55
3.89
5.60
7.43
9.07
10.28
10.88
10.88
10.40
9.64
8.72
7.66
6.37
4.69
2.58
0.10
-2.52
-5.03
-7.16
-8.72
-9.63
-9.84
-9.43
-8.51
-7.30
-6.05
-4.98
-4.19
-3.66
-3.28
-2.85
-2.25
-1.41
-0.32
1.02
2.59
4.30
6.02
7.54
8.62
9.05
8.75
7.88
6.71
5.62
4.91
4.80
5.29
6.28
7.55
8.87
9.97
10.58
10.48
9.50
7.65
5.03
1.87
-1.61
-5.28
-9.03
-12.84
-16.59
-20.02
-22.76
-24.42
-24.73
-23.59
-21.18
-17.80
-13.92
-9.96
-6.30
-3.18
-0.76
0.92
1.93
2.36
2.33
1.96
1.36
0.65
-0.02
-0.54
-0.82
-0.85
-0.73
-0.59
-0.58
-0.76
-1.08
-1.44
-1.73
-1.88
-1.84
-1.64
-1.28
-0.81
-0.25
0.34
0.89
1.31
1.56
1.64
1.59
1.53
1.54
1.70
2.03
2.46
2.93
3.35
3.65
3.83
3.95
4.04
4.09
3.99
3.64
2.98
2.13
1.33
0.91
1.09
1.93
3.22
4.63
5.86
6.72
7.21
7.42
7.49
7.50
7.49
7.45
7.41
7.45
7.65
8.08
8.68
9.34
9.95
10.51
11.09
11.82
12.83
14.18
15.79
17.51
19.16
20.54
21.48
21.87
21.60
20.60
18.86
16.48
13.65
10.68
7.84
5.33
3.22
1.42
-0.24
-1.92
-3.66
-5.41
-7.05
-8.51
-9.73
-10.74
-11.56
-12.22
-12.73
-13.11
-13.45
-13.86
-14.47
-15.36
-16.51
-17.87
-19.28
-20.69
-22.06
-23.33
-24.44
-25.26
-25.66
-25.56
-24.98
-23.98
-22.68
-21.16
-19.42
-17.52
-15.51
-13.51
-11.64
-9.98
-8.53
-7.22
-5.98
-4.75
-3.53
-2.27
-0.92
0.58
2.25
4.06
5.85
7.45
8.72
9.55
9.97
10.05
9.89
9.56
9.11
8.56
7.93
7.24
6.49
5.68
4.79
3.82
2.77
1.68
0.59
-0.40
-1.21
-1.82
-2.21
-2.45
-2.60
-2.70
-2.73
-2.67
-2.47
-2.10
-1.61
-1.03
-0.43
0.22
0.93
1.74
2.67
3.70
4.78
5.81
6.71
7.40
7.83
7.99
7.84
7.35
6.54
5.46
4.18
2.82
1.47
0.25
-0.75
-1.44
-1.75
-1.65
-1.16
-0.39
0.52
1.34
1.85
1.88
1.31
0.13
-1.58
-3.63
-5.82
-7.93
-9.81
-11.33
-12.46
-13.16
-13.42
-13.26
-12.65
-11.60
-10.12
-8.25
-6.09
-3.82
-1.66
0.18
1.57
2.52
3.12
3.46
3.62
3.61
3.40
3.04
2.63
2.28
2.01
1.72
1.31
0.77
0.20
-0.20
-0.26
0.04
0.58
1.11
1.43
1.52
1.45
1.34
1.23
1.06
0.73
0.25
-0.32
-0.81
-1.10
-1.20
-1.21
-1.31
-1.66
-2.29
-3.14
-4.02
-4.73
-5.05
-4.88
-4.18
-3.05
-1.71
-0.42
0.59
1.28
1.77
2.25
2.87
3.67
4.55
5.32
5.87
6.17
6.33
6.45
6.57
6.66
6.69
6.58
6.37
6.09
5.81
5.53
5.24
4.90
4.44
3.85
3.14
2.35
1.56
0.85
0.29
-0.10
-0.34
-0.49
-0.64
-0.77
-0.89
-0.98
-1.06
-1.21
-1.51
-2.02
-2.72
-3.49
-4.18
-4.63
-4.76
-4.54
-3.96
-3.08
-2.01
-0.93
-0.02
0.58
0.81
0.74
0.50
0.20
-0.11
-0.42
-0.74
-1.00
-1.07
-0.88
-0.37
0.36
1.10
1.67
1.95
1.98
1.87
1.75
1.71
1.78
1.93
2.10
2.27
2.37
2.38
2.27
2.03
1.70
1.31
0.89
0.42
-0.10
-0.67
-1.24
-1.72
-2.02
-2.08
-1.91
-1.51
-0.94
-0.20
0.70
1.73
2.85
3.94
4.85
5.43
5.59
5.32
4.71
3.90
3.02
2.21
1.52
0.93
0.42
-0.01
-0.35
-0.57
-0.65
-0.61
-0.51
-0.43
-0.50
-0.80
-1.40
-2.32
-3.47
-4.71
-5.87
-6.78
-7.34
-7.54
-7.41
-7.07
-6.65
-6.24
-5.88
-5.60
-5.42
-5.36
-5.46
-5.65
-5.81
-5.73
-5.18
-4.05
-2.40
-0.47
1.46
3.08
4.27
5.01
5.39
5.52
5.47
5.25
4.85
4.30
3.56
2.70
1.83
1.06
0.55
0.41
0.62
1.07
1.57
1.90
1.95
1.67
1.10
0.36
-0.44
-1.10
-1.44
-1.24
-0.41
1.02
2.79
4.48
5.68
6.10
5.70
4.65
3.20
1.62
0.13
-1.17
-2.19
-2.87
-3.13
-2.95
-2.37
-1.50
-0.54
0.29
0.78
0.71
-0.01
-1.34
-3.13
-5.06
-6.79
-8.07
-8.74
-8.84
-8.45
-7.69
-6.63
-5.30
-3.77
-2.14
-0.61
0.60
1.32
1.52
1.25
0.68
-0.02
-0.67
-1.16
-1.46
-1.58
-1.59
-1.54
-1.46
-1.32
-1.09
-0.72
-0.20
0.48
1.31
2.27
3.39
4.67
6.07
7.49
8.83
9.99
10.90
11.59
12.07
12.38
12.53
12.53
12.47
12.51
12.81
13.45
14.39
15.48
16.50
17.36
18.01
18.52
18.88
19.02
18.75
17.91
16.44
14.45
12.15
9.70
7.22
4.74
2.23
-0.22
-2.51
-4.55
-6.33
-7.89
-9.34
-10.69
-11.95
-13.06
-14.04
-14.94
-15.85
-16.85
-17.93
-19.08
-20.32
-21.76
-23.55
-25.80
-28.48
-31.41
-34.28
-36.77
-38.66
-39.79
-40.08
-39.48
-37.89
-35.27
-31.71
-27.47
-23.06
-19.11
-16.22
-14.84
-15.04
-16.53
-18.73
-20.88
-22.26
-22.29
-20.62
-17.18
-12.20
-6.15
0.27
6.36
11.48
15.30
17.75
19.00
19.28
18.76
17.51
15.55
12.98
10.06
7.25
5.02
3.81
3.82
5.04
7.25
10.15
13.44
16.85
20.11
22.91
24.92
25.89
25.68
24.35
22.15
19.44
16.56
13.77
11.21
8.93
6.97
5.34
4.02
2.97
2.11
1.37
0.70
0.14
-0.25
-0.41
-0.35
-0.17
-0.05
-0.08
-0.30
-0.64
-0.97
-1.20
-1.33
-1.42
-1.51
-1.55
-1.37
-0.77
0.30
1.74
3.30
4.73
5.85
6.63
7.13
7.44
7.56
7.41
6.98
6.32
5.56
4.81
4.12
3.49
2.85
2.21
1.64
1.30
1.30
1.67
2.34
3.12
3.87
4.40
4.67
4.72
4.66
4.61
4.60
4.63
4.61
4.47
4.19
3.85
3.57
3.45
3.52
3.72
3.98
4.23
4.49
4.78
5.13
5.53
5.93
6.29
6.60
6.90
7.23
7.59
7.94
8.20
8.30
8.17
7.75
7.05
6.08
4.90
3.57
2.18
0.81
-0.51
-1.84
-3.22
-4.70
-6.20
-7.53
-8.48
-8.85
-8.59
-7.85
-6.89
-6.00
-5.36
-5.04
-4.95
-4.98
-5.02
-5.02
-5.06
-5.21
-5.59
-6.30
-7.36
-8.70
-10.16
-11.54
-12.68
-13.53
-14.07
-14.32
-14.27
-13.85
-12.93
-11.39
-9.20
-6.38
-3.03
0.80
5.07
9.87
15.38
21.78
29.23
37.67
46.85
56.23
65.21
73.24
80.10
86.04
91.73
97.99
105.48
114.36
124.25
134.54
144.66
154.48
164.34
174.92
186.88
200.72
216.61
234.29
252.85
270.32
283.62
289.08
283.63
266.21
238.50
204.68
169.90
138.50
112.77
92.83
77.62
66.08
57.80
52.81
50.93
51.28
52.55
53.69
54.76
56.98
62.13
71.58
85.22
101.30
116.85
128.71
134.55
133.55
126.27
114.24
99.36
83.76
69.72
59.53
55.10
57.16
64.72
75.09
84.64
90.19
90.06
84.53
75.22
64.09
52.48
40.89
29.23
17.45
5.88
-4.98
-14.64
-23.03
-30.38
-37.07
-43.37
-49.32
-54.75
-59.52
-63.65
-67.27
-70.62
-73.85
-76.93
-79.73
-82.07
-84.05
-86.01
-88.50
-91.93
-96.29
-101.03
-105.16
-107.69
-108.02
-106.41
-103.89
-101.92
-101.61
-103.17
-105.74
-107.66
-107.41
-104.10
-97.97
-90.28
-82.67
-76.65
-73.52
-74.34
-79.61
-88.46
-97.89
-102.94
-98.49
-81.74
-54.42
-22.70
5.13
22.37
26.82
21.25
11.40
2.68
-2.22
-3.73
-3.84
-4.11
-4.61
-4.34
-2.48
0.60
3.30
3.65
0.20
-7.08
-16.80
-26.79
-35.03
-40.38
-42.92
-43.66
-43.90
-44.57
-45.81
-46.94
-46.92
-44.90
-40.67
-34.79
-28.40
-22.80
-18.96
-17.30
-17.65
-19.48
-22.15
-25.23
-28.48
-31.92
-35.53
-39.28
-42.95
-46.25
-48.89
-50.72
-51.80
-52.38
-52.83
-53.46
-54.57
-56.30
-58.68
-61.60
-64.94
-68.58
-72.40
-76.33
-80.33
-84.40
-88.52
-92.67
-96.75
-100.61
-104.01
-106.65
-108.16
-108.16
-106.36
-102.54
-96.68
-89.02
-80.02
-70.44
-61.21
-53.29
-47.53
-44.50
-44.31
-46.66
-50.94
-56.35
-62.12
-67.64
-72.53
-76.52
-79.33
-80.61
-79.86
-76.64
-70.73
-62.31
-52.08
-41.07
-30.44
-21.06
-13.28
-6.98
-1.68
2.98
6.89
9.30
8.98
4.71
-4.19
-17.41
-33.54
-50.61
-66.54
-79.81
-89.99
-100.26
-113.06
-128.90
-147.35
-167.86
-188.58
-205.18
-211.44
-201.32
-174.38
-133.66
-84.79
-35.51
5.65
32.36
42.54
38.50
25.47
4.11
-21.33
-42.01
-49.86
-43.19
-26.37
-6.67
9.01
16.44
-1.23
-47.65
-108.48
-165.00
-208.12
-237.76
-257.03
-268.93
-275.70
-312.73
-393.88
-498.29
-594.87
-668.72
-720.17
-754.62
-777.12
-791.48
-854.20
-987.01
-1155.93
-1310.69
-1427.40
-1506.90
-1558.26
-1589.88
-1607.53
-1684.55
-1848.81
-2056.08
-2241.86
-2376.91
-2465.06
-2521.48
-2560.27
-2153.02
-1224.95
-103.48
837.21
1470.73
1845.86
2051.16
2158.80
2215.64
2248.44
2201.28
2055.37
1859.93
1682.77
1555.84
1477.40
1433.75
1411.73
1402.51
1347.86
1226.88
1075.35
944.58
857.62
810.70
790.70
785.56
787.41
758.18
683.29
583.47
489.72
417.06
366.01
332.89
314.44
307.94
293.47
260.71
216.35
173.30
138.13
111.39
91.75
78.13
70.46
63.54
56.12
51.68
52.74
55.75
53.16
38.55
10.67
-25.39
-60.46
-85.61
-96.62
-94.96
-86.15
-75.88
-66.62
-57.21
-44.95
-29.18
-12.43
-0.20
2.39
-6.02
-21.73
-37.58
-46.56
-45.23
-35.11
-21.15
-8.95
-1.45
1.78
3.60
7.20
14.16
23.82
33.98
42.33
47.66
50.24
51.25
51.83
52.63
53.16
52.57
50.17
46.01
40.82
35.65
31.34
28.01
25.29
22.45
19.02
14.98
10.70
6.69
3.26
0.57
-1.54
-3.27
-4.91
-6.65
-8.60
-10.81
-13.21
-15.79
-18.40
-21.02
-23.72
-26.61
-29.79
-33.33
-37.37
-42.04
-47.65
-54.38
-62.57
-72.38
-83.83
-96.63
-110.12
-123.54
-136.11
-147.43
-157.20
-165.65
-173.15
-179.80
-185.22
-188.36
-187.66
-181.17
-169.16
-151.88
-130.24
-105.46
-78.47
-49.77
-19.45
12.59
46.41
81.70
118.68
158.04
200.73
246.99
295.20
341.78
382.40
414.01
435.86
449.69
457.44
459.63
455.09
441.94
419.76
390.91
360.58
333.90
314.21
300.71
289.90
278.11
263.22
245.52
226.65
208.91
192.55
176.60
157.80
132.82
100.29
60.72
16.93
-27.30
-67.07
-100.42
-127.07
-150.10
-173.66
-200.91
-234.22
-273.69
-318.68
-366.89
-418.84
-462.74
-487.34
-488.15
-470.82
-447.42
-426.80
-425.11
-437.30
-456.12
-473.87
-486.11
-491.93
-481.56
-454.43
-414.33
-367.73
-319.00
-272.29
-228.51
-187.87
-150.34
-115.89
-86.17
-61.73
-42.30
-25.22
-8.98
7.88
25.47
43.18
60.36
75.46
88.07
98.66
109.28
121.18
135.75
153.49
174.33
198.16
224.31
252.47
281.54
309.33
331.62
343.95
343.36
329.76
306.03
276.02
243.28
209.73
176.05
142.75
111.83
87.00
72.50
71.42
84.30
109.27
142.71
179.82
215.01
241.96
254.29
247.31
219.61
173.76
115.71
52.49
-10.40
-70.59
-128.14
-183.29
-234.12
-275.90
-303.00
-312.15
-304.79
-287.14
-267.37
-251.67
-241.47
-233.32
-221.73
-202.63
-175.56
-143.40
-110.16
-78.12
-46.60
-13.16
23.61
61.72
95.53
117.75
122.71
108.97
80.05
43.22
7.05
-20.96
-35.80
-35.21
-19.07
11.38
53.90
105.16
160.57
214.04
258.75
288.26
298.52
289.59
266.38
236.91
209.20
188.12
173.94
163.58
152.66
137.98
119.56
101.16
88.38
86.85
100.85
131.59
176.99
230.42
281.71
320.21
339.22
336.89
315.94
282.03
240.68
197.08
154.48
114.67
79.32
51.02
31.07
18.41
9.97
1.30
-9.40
-21.70
-33.20
-50.74
-75.81
-104.26
-128.71
-138.59
-137.11
-128.33
-114.50
-97.87
-78.80
-58.67
-40.44
-28.14
-25.39
-35.04
-56.39
-86.81
-122.97
-161.09
-200.17
-240.68
-283.53
-328.70
-376.30
-425.67
-477.14
-531.55
-568.96
-571.89
-532.09
-455.40
-356.76
-253.42
-159.22
-83.49
-29.89
4.12
22.12
28.43
26.61
19.42
8.28
-5.59
-20.49
-34.16
-44.09
-50.96
-56.48
-63.52
-71.21
-77.23
-78.46
-71.80
-54.80
-26.22
11.86
55.59
98.95
137.44
168.08
189.63
202.52
208.57
210.35
209.51
206.97
202.82
197.19
189.80
180.62
170.09
159.27
149.59
141.85
136.28
132.79
131.75
133.09
135.74
136.98
132.71
118.95
94.17
60.69
24.59
-6.10
-25.08
-30.13
-23.39
-9.72
5.94
20.56
33.24
43.29
49.89
51.36
45.86
32.55
12.22
-12.77
-39.09
-63.55
-84.62
-101.91
-116.03
-127.81
-137.68
-145.48
-151.61
-154.38
-153.16
-148.18
-140.24
-130.47
-119.71
-108.32
-96.02
-82.19
-66.01
-47.56
-27.56
-7.37
11.07
26.07
36.63
42.50
43.95
41.66
36.19
28.15
18.02
5.80
-7.96
-21.89
-34.01
-42.36
-45.65
-43.95
-38.56
-31.93
-27.59
-28.36
-35.62
-48.92
-66.66
-86.52
-106.18
-124.07
-139.60
-154.03
-169.10
-186.86
-208.53
-233.88
-260.70
-284.08
-298.82
-294.99
-269.07
-222.91
-163.42
-99.25
-38.21
14.80
59.98
99.64
135.61
166.95
191.76
207.91
215.93
217.74
215.71
213.96
214.87
218.08
220.36
218.88
211.94
201.99
192.89
188.40
194.04
212.56
242.46
278.28
313.59
342.10
361.89
372.72
355.95
302.46
216.84
115.69
17.09
-59.34
-116.89
-159.81
-190.46
-209.41
-214.68
-205.02
-182.69
-153.23
-123.11
-98.72
-82.26
-77.69
-87.20
-107.95
-134.54
-162.03
-187.74
-211.09
-232.53
-252.57
-270.93
-286.52
-296.98
-300.88
-298.66
-291.82
-282.43
-272.64
-262.72
-252.19
-240.27
-225.78
-208.34
-188.73
-168.65
-149.91
-134.08
-121.54
-111.94
-104.56
-98.45
-93.00
-88.12
-84.16
-81.56
-80.65
-81.29
-83.04
-85.29
-87.50
-89.24
-90.19
-90.15
-88.96
-86.28
-81.70
-74.65
-64.48
-50.61
-32.63
-10.41
15.83
45.35
77.02
109.32
140.42
168.41
191.46
208.09
217.40
219.13
213.65
201.85
185.06
164.76
142.40
119.27
96.37
74.38
53.64
34.19
15.77
-2.02
-19.61
-37.27
-54.92
-72.10
-88.02
-101.67
-112.09
-118.57
-120.77
-118.83
-113.01
-103.61
-90.72
-74.17
-53.76
-29.52
-2.01
27.51
57.28
85.49
110.77
132.58
151.29
167.92
183.47
198.47
212.61
224.95
234.42
240.55
243.94
246.19
249.65
256.74
269.30
287.97
311.71
337.59
361.14
377.33
382.14
374.11
354.81
328.49
300.29
274.14
251.35
230.24
207.48
180.15
147.51
111.67
76.73
46.99
25.17
11.45
3.70
-1.28
-6.14
-11.71
-16.77
-18.61
-14.49
-3.09
14.38
34.04
49.95
55.87
47.17
22.55
-15.00
-59.08
-101.80
-136.15
-158.13
-167.21
-165.65
-156.98
-144.37
-129.68
-113.64
-96.62
-79.24
-62.84
-49.07
-39.40
-34.57
-34.55
-38.66
-45.91
-55.35
-66.13
-77.54
-88.93
-99.57
-108.50
-114.47
-115.90
-111.09
-98.69
-78.05
-49.70
-15.28
22.87
62.16
100.46
136.28
168.84
198.03
224.60
249.97
275.53
301.48
325.69
343.58
349.37
338.50
310.03
267.62
218.45
170.38
129.23
97.05
72.58
53.12
36.20
20.48
5.31
-10.42
-29.04
-53.57
-86.40
-127.56
-174.09
-220.53
-260.77
-290.06
-306.20
-309.57
-301.87
-284.92
-260.15
-229.13
-194.32
-159.72
-130.30
-110.56
-102.93
-106.86
-119.05
-134.75
-148.99
-157.34
-156.29
-143.47
-118.14
-81.69
-38.02
7.11
47.39
77.77
96.15
104.11
106.39
109.11
117.24
132.24
150.94
166.54
171.07
158.55
127.16
79.65
22.06
-38.49
-95.48
-143.84
-179.78
-200.77
-206.19
-198.20
-181.98
-164.82
-153.90
-153.69
-164.23
-180.92
-196.25
-202.10
-192.49
-165.25
-122.51
-69.78
-14.25
37.31
80.18
112.52
135.15
150.34
160.37
166.48
168.57
165.64
156.49
140.28
116.70
85.97
49.08
7.70
-35.43
-76.44
-110.56
-132.92
-139.49
-128.20
-99.50
-56.43
-3.92
52.63
108.47
160.59
207.83
250.12
287.22
318.00
340.51
352.98
355.03
347.93
334.17
316.32
296.44
276.22
257.48
242.68
234.32
233.54
238.67
244.93
245.96
236.45
214.52
182.48
145.47
109.04
76.74
49.39
26.36
7.40
-6.33
-12.88
-11.37
-3.30
7.74
17.98
25.55
31.15
36.79
43.54
50.07
53.01
49.06
37.36
20.15
1.70
-14.14
-25.87
-34.41
-41.63
-48.45
-54.17
-56.80
-54.87
-48.83
-41.60
-37.79
-42.14
-57.65
-84.34
-118.52
-153.08
-179.07
-188.25
-176.04
-144.06
-100.44
-57.47
-27.37
-17.41
-26.99
-47.71
-66.74
-72.19
-58.01
-26.29
13.71
49.70
71.12
72.97
57.23
31.64
6.62
-8.60
-8.77
6.25
32.20
62.08
88.39
104.83
107.28
94.12
66.05
25.73
-22.75
-74.28
-123.09
-163.67
-192.14
-207.48
-212.31
-212.16
-213.75
-222.64
-241.47
-269.32
-302.46
-336.04
-366.09
-390.63
-409.77
-425.02
-438.47
-452.27
-468.20
-487.02
-507.67
-526.72
-538.62
-537.31
-518.68
-482.70
-433.98
-380.28
-329.43
-286.71
-253.36
-227.41
-205.67
-185.53
-165.88
-146.52
-127.22
-107.02
-84.76
-60.02
-34.16
-10.30
8.06
18.93
23.24
24.54
27.28
34.65
47.27
63.30
79.94
95.31
109.26
122.88
137.11
151.53
164.34
173.23
176.87
175.70
172.20
169.87
172.30
181.69
198.04
218.95
240.03
256.18
263.15
258.97
244.94
225.59
207.57
197.59
199.93
214.55
236.69
258.28
270.67
268.00
249.61
220.21
188.08
161.96
147.84
147.09
156.31
168.59
175.84
170.98
149.76
111.93
61.44
5.47
-47.22
-88.48
-112.81
-118.32
-106.74
-82.25
-49.89
-14.30
20.99
53.54
81.87
105.15
123.28
136.90
147.12
155.35
162.56
168.86
173.72
176.35
176.24
173.63
169.15
163.11
155.22
144.43
129.63
110.43
87.34
61.34
33.30
3.54
-28.07
-61.25
-94.92
-127.50
-157.73
-185.40
-210.84
-233.30
-249.52
-253.90
-240.67
-207.31
-156.93
-97.82
-40.38
7.09
41.07
62.62
74.75
79.44
76.04
62.15
35.91
-2.24
-49.22
-100.93
-154.26
-208.01
-261.92
-314.80
-363.15
-401.14
-422.84
-424.87
-408.47
-379.59
-346.75
-318.28
-299.62
-292.15
-293.44
-298.52
-301.57
-297.33
-282.51
-256.66
-222.42
-184.50
-147.85
-115.47
-87.34
-60.87
-32.70
-0.81
34.27
69.49
100.81
125.00
140.83
149.15
152.18
152.49
152.18
152.73
155.44
161.67
172.79
189.33
210.42
233.70
256.29
276.28
293.80
310.83
329.57
350.26
369.92
383.08
384.09
369.85
341.29
302.85
260.29
218.20
178.53
141.12
105.46
72.18
43.54
22.76
12.54
13.86
25.36
43.38
62.71
77.81
84.28
80.02
66.01
45.38
21.85
-2.30
-27.13
-54.05
-83.34
-112.18
-134.42
-143.14
-134.51
-110.12
-76.53
-42.18
-13.83
5.13
14.04
12.96
1.10
-23.17
-60.65
-109.67
-165.38
-220.58
-267.80
-300.71
-315.34
-310.54
-288.47
-254.35
-215.29
-178.12
-147.01
-122.49
-102.22
-83.48
-65.80
-52.21
-47.74
-56.58
-79.14
-111.26
-145.86
-175.82
-196.51
-206.36
-205.77
-195.27
-174.82
-144.19
-104.24
-57.93
-9.98
34.45
71.65
100.40
121.92
138.60
152.70
165.66
177.96
189.71
200.95
212.12
224.05
237.50
252.65
268.50
282.72
292.05
293.41
284.84
266.48
240.57
210.65
180.46
152.81
128.80
107.83
88.27
68.29
46.82
23.91
0.69
-21.04
-39.57
-53.70
-62.90
-66.90
-65.35
-57.67
-43.48
-23.33
0.85
25.82
47.81
63.73
72.12
73.54
70.04
64.34
58.75
54.70
52.59
52.22
53.30
55.62
58.51
60.42
58.70
50.53
34.41
11.39
-14.89
-39.68
-59.26
-72.80
-82.42
-91.77
-103.82
-119.31
-136.80
-153.69
-167.80
-178.21
-185.16
-189.29
-190.77
-188.79
-181.72
-167.55
-145.03
-114.40
-77.85
-39.22
-2.66
28.65
53.25
71.23
83.25
89.57
89.88
83.96
72.72
58.78
45.92
37.61
35.66
39.42
46.30
52.96
56.61
56.04
51.70
45.44
39.84
37.53
40.67
50.21
65.42
83.69
101.21
114.19
119.94
117.63
107.93
92.08
70.86
44.67
14.44
-17.14
-45.44
-65.27
-73.12
-69.29
-58.08
-46.19
-39.64
-41.23
-49.60
-60.52
-69.13
-72.23
-69.06
-60.64
-48.54
-33.83
-17.03
1.19
19.29
34.87
45.25
48.19
43.01
30.60
13.00
-7.16
-27.00
-43.07
-51.22
-47.04
-27.35
8.37
56.58
109.95
159.13
195.41
213.31
211.82
194.21
165.67
131.94
97.37
64.40
34.22
7.76
-13.54
-27.69
-32.33
-27.54
-14.10
5.30
27.04
47.59
64.10
74.64
77.93
74.42
62.99
46.18
27.59
11.12
-0.78
-8.29
-14.34
-22.75
-34.41
-51.51
-69.72
-82.84
-84.31
-68.91
-33.77
20.45
89.51
167.89
242.45
304.53
347.58
369.37
372.39
362.95
349.17
323.41
309.66
291.67
257.04
195.86
106.40
-2.75
-116.02
-217.61
-297.12
-348.88
-378.51
-389.76
-386.59
-371.92
-348.68
-321.21
-295.84
-279.45
-274.92
-284.44
-301.91
-317.38
-319.79
-301.55
-261.15
-205.45
-146.60
-95.13
-59.26
-38.31
-26.73
-17.90
-7.84
3.62
13.72
19.40
20.58
18.17
15.02
13.27
13.60
15.19
16.48
16.31
14.23
11.72
10.57
12.73
19.05
29.38
42.34
55.93
69.78
81.79
90.98
96.84
98.76
95.93
87.97
74.84
57.24
37.05
16.59
-1.11
-13.36
-18.61
-16.67
-8.28
4.98
21.19
38.92
56.43
72.85
87.74
100.26
109.42
114.60
115.68
112.98
108.13
101.73
94.79
88.57
83.28
79.30
77.76
79.56
83.77
88.82
90.43
84.77
69.84
43.39
4.95
-42.69
-94.65
-146.18
-191.58
-228.12
-254.59
-259.70
-237.89
-191.74
-130.15
-63.24
-9.19
31.66
61.40
82.13
95.03
102.59
104.87
102.65
97.93
90.02
80.20
69.56
60.60
56.07
56.13
58.93
62.53
65.17
60.25
44.09
15.91
-20.69
-60.77
-102.07
-145.33
-192.05
-243.08
-304.16
-376.82
-457.42
-537.62
-609.24
-668.50
-716.13
-754.53
-744.73
-666.20
-527.47
-362.88
-207.30
-79.17
18.64
90.90
144.79
186.97
216.26
231.50
235.00
233.17
232.68
237.67
249.31
266.93
289.00
309.35
322.36
325.83
321.43
311.81
298.36
281.21
260.08
233.42
200.87
162.86
121.78
82.09
47.85
21.36
2.97
-8.20
-13.48
-15.62
-17.41
-20.29
-23.71
-26.82
-29.01
-30.15
-30.26
-29.47
-28.34
-27.74
-28.33
-29.70
-31.84
-34.99
-39.64
-46.23
-55.22
-66.62
-80.29
-97.19
-114.72
-130.71
-142.93
-149.13
-147.45
-136.62
-116.07
-84.16
-44.28
0.94
48.21
94.24
135.64
170.43
196.68
212.80
218.08
212.25
196.85
173.57
144.08
111.54
78.55
47.27
18.91
-5.83
-27.41
-45.95
-62.24
-77.09
-91.14
-106.23
-121.06
-134.36
-144.37
-149.37
-147.31
-137.04
-118.06
-91.02
-57.68
-20.29
18.23
55.01
87.60
114.50
134.31
146.56
151.52
149.92
143.41
133.93
123.77
115.30
110.50
109.67
112.28
116.85
121.04
122.54
119.36
110.52
96.22
77.59
55.06
29.28
0.68
-30.63
-64.71
-101.42
-140.50
-182.36
-219.95
-250.28
-272.27
-286.70
-296.05
-304.11
-314.71
-331.33
-355.42
-384.95
-414.66
-435.51
-437.99
-416.29
-371.23
-308.82
-238.95
-171.56
-113.40
-67.05
-30.67
-0.50
26.84
53.68
83.81
119.54
160.04
200.32
232.38
249.60
250.19
238.50
223.66
218.73
232.70
267.16
316.26
370.87
423.46
470.19
510.05
523.21
496.10
427.24
329.65
221.32
116.31
22.10
-58.86
-127.35
-185.78
-234.15
-274.21
-306.02
-329.27
-342.99
-345.59
-335.51
-312.44
-277.47
-227.64
-166.44
-100.97
-39.84
10.16
45.80
67.30
76.59
75.88
68.41
57.19
44.96
33.54
23.99
17.00
12.87
10.99
13.62
17.32
18.81
15.51
5.35
-12.69
-38.60
-70.83
-106.92
-144.19
-179.75
-210.63
-234.29
-249.00
-253.79
-248.61
-232.67
-205.07
-170.29
-132.88
-97.02
-66.13
-42.02
-24.45
-11.65
2.00
22.22
52.71
94.23
144.69
199.97
255.07
305.89
348.88
385.95
419.26
449.25
473.61
487.88
487.20
468.32
432.29
382.99
332.50
292.62
270.72
267.99
280.45
302.49
329.94
362.60
371.38
336.66
252.35
131.58
-0.55
-118.51
-203.08
-245.32
-243.15
-211.95
-164.17
-110.26
-56.08
-2.63
52.50
113.02
161.31
185.14
175.62
136.32
78.95
18.64
-32.77
-71.17
-99.79
-125.70
-157.50
-198.68
-243.63
-283.36
-309.49
-317.94
-310.96
-296.61
-279.23
-264.23
-254.76
-247.65
-235.98
-212.75
-175.83
-131.20
-91.87
-73.48
-87.56
-135.99
-209.14
-289.81
-359.61
-405.06
-421.22
-410.96
-381.86
-343.25
-303.95
-271.86
-253.90
-254.77
-274.35
-306.82
-341.11
-364.35
-367.22
-347.26
-309.43
-263.72
-220.88
-187.97
-167.50
-157.80
-155.58
-157.91
-162.21
-165.91
-166.44
-161.56
-150.08
-132.46
-110.51
-86.77
-64.02
-44.03
-27.01
-12.03
2.39
17.73
34.54
52.27
69.99
86.40
100.73
113.12
124.42
135.88
148.89
163.98
180.60
197.66
213.38
226.44
236.20
243.25
249.26
256.56
267.23
282.75
303.98
330.93
362.84
397.79
432.57
462.81
483.92
492.23
486.41
468.03
440.91
409.76
378.48
349.17
322.06
296.44
271.60
247.48
224.60
203.28
183.44
164.48
145.66
126.60
107.61
89.77
74.48
63.02
55.84
52.43
51.33
50.66
48.83
45.16
40.07
34.74
30.70
29.14
30.86
36.15
44.90
56.44
69.29
80.91
87.97
87.16
76.20
54.79
24.78
-10.42
-46.91
-81.28
-111.12
-135.00
-152.05
-161.73
-163.79
-158.51
-146.89
-130.56
-111.51
-91.57
-72.04
-53.57
-36.34
-20.35
-5.89
6.42
15.86
21.87
24.33
23.57
20.31
15.34
9.50
3.27
-3.23
-10.28
-18.39
-28.18
-40.12
-54.18
-69.59
-84.85
-98.14
-107.77
-112.80
-113.37
-110.52
-105.82
-100.79
-96.29
-92.07
-86.87
-78.67
-65.61
-47.01
-24.04
0.25
21.71
36.55
42.96
41.74
35.93
29.48
25.42
24.97
27.47
31.03
33.58
33.67
30.60
24.25
14.64
1.78
-14.10
-32.16
-50.67
-67.14
-78.99
-84.41
-83.23
-77.07
-68.84
-61.67
-57.75
-57.80
-61.13
-66.24
-71.53
-75.95
-79.18
-81.60
-84.03
-87.30
-91.77
-96.98
-101.48
-103.22
-100.28
-91.73
-78.30
-62.24
-46.67
-34.37
-26.77
-23.59
-23.21
-23.45
-22.41
-19.05
-13.19
-5.27
3.93
13.56
22.73
30.51
35.94
38.21
36.80
31.68
23.52
13.67
4.08
-3.01
-5.64
-2.64
6.01
18.99
34.17
49.17
62.02
71.68
78.04
81.63
83.28
83.79
83.75
83.48
82.98
81.95
79.79
75.70
68.83
58.62
45.20
29.73
14.46
2.35
-3.70
-1.80
8.24
24.69
44.39
63.68
79.27
88.88
91.38
86.52
74.75
57.09
35.14
11.01
-12.83
-33.92
-50.25
-60.69
-65.23
-65.06
-62.24
-59.25
-58.20
-60.26
-65.38
-72.46
-80.00
-86.71
-91.77
-94.76
-95.28
-92.73
-86.40
-75.83
-61.17
-43.24
-23.42
-3.22
16.00
33.10
47.11
57.30
63.27
65.17
63.68
59.81
54.60
48.87
43.15
37.76
32.88
28.69
25.45
23.45
22.78
23.25
24.21
24.67
23.54
19.87
13.10
3.29
-8.87
-22.27
-35.67
-47.95
-58.12
-65.28
-68.56
-67.22
-60.80
-49.34
-33.54
-14.82
4.95
23.98
41.04
55.85
68.85
80.86
92.35
103.22
112.86
120.47
125.51
127.95
128.11
126.07
121.18
111.55
94.35
66.51
25.66
-28.90
-95.27
-168.74
-242.32
-308.11
-358.85
-389.44
-397.91
-385.58
-356.64
-317.06
-273.24
-230.44
-191.32
-155.03
-117.68
-74.37
-21.89
39.01
103.22
162.83
210.24
240.82
254.12
253.16
242.45
226.27
207.83
189.38
172.64
158.97
149.24
143.42
140.53
139.15
137.68
134.62
128.59
118.33
102.83
81.34
53.12
17.25
-27.10
-79.63
-137.63
-194.84
-241.98
-268.97
-268.35
-238.49
-184.54
-117.00
-48.29
11.02
54.61
80.99
92.40
92.96
86.87
77.60
67.62
58.58
51.57
47.32
46.10
47.61
50.92
54.50
56.73
56.51
53.63
48.83
43.38
38.32
33.88
29.48
24.07
16.91
8.05
-1.62
-10.67
-17.73
-21.97
-23.31
-22.12
-18.93
-13.99
-7.22
1.56
12.41
24.94
38.16
50.55
60.28
65.68
65.68
60.12
49.72
35.92
20.34
4.40
-10.68
-23.88
-34.17
-40.71
-43.12
-42.05
-39.08
-36.31
-35.52
-37.34
-41.19
-45.74
-49.63
-52.00
-52.53
-51.05
-47.33
-41.06
-32.22
-21.37
-9.76
1.16
10.19
16.78
21.03
23.38
24.34
24.24
23.27
21.46
18.88
15.57
11.68
7.39
2.96
-1.31
-4.95
-7.41
-8.01
-6.02
-1.01
6.91
16.78
26.71
34.22
37.05
33.83
24.72
11.33
-3.68
-17.45
-27.61
-32.92
-33.37
-30.00
-24.46
-18.57
-13.85
-11.25
-10.92
-12.30
-14.41
-16.27
-17.21
-17.02
-15.72
-13.28
-9.53
-4.18
2.83
11.06
19.41
26.41
30.65
31.34
28.54
23.10
16.19
8.67
0.65
-8.47
-19.61
-33.29
-48.94
-64.85
-78.49
-87.43
-90.12
-86.33
-77.00
-63.66
-47.79
-30.46
-12.48
5.26
21.56
34.80
43.40
46.28
43.21
34.94
22.89
8.87
-5.24
-17.65
-26.80
-31.63
-31.78
-27.87
-21.39
-14.26
-8.36
-4.86
-3.96
-5.04
-7.02
-8.84
-9.72
-9.28
-7.43
-4.30
-0.09
4.91
10.33
15.80
20.97
25.57
29.55
32.95
35.97
38.87
41.89
45.20
48.86
52.65
56.21
59.03
60.65
60.94
60.19
59.13
58.57
59.23
61.41
65.02
69.64
74.84
80.26
85.81
91.55
97.69
104.40
111.69
119.25
126.41
132.14
135.20
134.38
128.90
118.71
104.76
88.73
72.65
58.33
46.75
37.85
30.57
23.23
14.01
1.41
-15.36
-35.99
-58.93
-81.53
-100.70
-113.80
-119.54
-118.40
-112.31
-103.79
-95.01
-87.27
-80.97
-76.00
-72.17
-69.36
-67.51
-66.45
-65.86
-65.35
-64.61
-63.38
-61.35
-58.23
-53.73
-47.71
-40.27
-31.76
-22.63
-13.32
-4.04
5.34
15.25
26.42
39.40
54.28
70.24
85.48
97.60
104.32
104.33
97.58
85.27
69.16
50.95
31.78
12.19
-7.64
-27.69
-47.86
-68.41
-89.91
-113.54
-140.89
-173.43
-212.28
-258.02
-310.90
-370.67
-435.90
-502.84
-564.80
-612.87
-638.20
-635.35
-604.63
-552.40
-488.62
-423.09
-362.15
-307.53
-257.65
-210.04
-163.38
-117.79
-73.96
-31.99
8.84
49.31
89.22
126.96
160.38
187.82
209.45
227.31
244.48
263.62
285.85
310.11
333.53
352.50
363.77
365.44
357.40
341.15
319.28
294.75
270.19
247.43
227.43
210.38
195.97
183.69
172.95
163.19
153.97
145.09
136.51
128.38
120.91
114.23
108.38
103.19
98.41
93.74
88.95
83.98
78.93
74.10
69.76
66.01
62.49
58.37
52.61
44.56
34.48
23.76
14.62
9.31
9.28
14.53
23.64
34.36
44.36
51.84
55.70
55.34
50.50
41.14
27.57
10.56
-8.52
-27.98
-46.07
-61.20
-72.08
-77.91
-78.40
-74.13
-66.87
-59.55
-55.70
-58.16
-67.56
-81.24
-93.48
-97.50
-88.03
-63.91
-28.69
10.88
47.45
75.34
91.40
94.73
85.91
67.12
42.63
18.75
2.23
-2.36
5.51
22.30
42.69
61.98
77.84
89.73
97.11
97.85
88.55
66.35
30.93
-14.59
-64.54
-111.73
-149.13
-171.72
-178.57
-174.27
-167.56
-167.74
-179.81
-202.16
-226.00
-239.09
-231.67
-201.37
-153.76
-98.10
-41.60
13.53
66.29
114.91
155.19
181.38
188.53
175.22
145.78
109.56
77.45
53.78
37.40
25.30
17.19
16.41
27.45
52.50
88.37
125.30
143.84
124.22
55.54
-58.96
-204.40
-362.04
-515.35
-653.33
-739.43
-744.58
-664.15
-524.80
-365.73
-216.57
-91.94
4.62
75.10
124.27
153.29
163.88
160.79
152.46
148.05
152.45
166.61
188.37
214.24
236.86
250.19
250.77
238.90
217.45
187.61
150.59
107.74
61.38
12.51
-36.76
-82.92
-121.35
-138.78
-132.32
-104.40
-60.50
-6.91
49.14
100.21
144.76
181.29
208.99
225.82
231.06
224.85
208.22
178.56
139.58
96.89
55.17
18.13
-13.09
-37.91
-56.29
-68.69
-75.46
-77.08
-74.35
-68.98
-62.38
-56.31
-51.70
-49.03
-48.43
-49.22
-50.79
-52.45
-54.17
-55.90
-57.95
-60.30
-62.76
-66.70
-69.77
-70.20
-66.40
-57.83
-44.98
-29.64
-14.40
-2.10
4.93
7.78
5.57
-0.71
-9.45
-19.00
-28.42
-37.52
-46.50
-55.60
-64.92
-75.16
-86.35
-97.52
-106.03
-107.83
-98.74
-76.87
-44.24
-6.74
27.31
51.10
61.46
59.41
48.59
33.10
15.32
-4.27
-25.83
-48.92
-71.86
-91.33
-104.24
-108.77
-104.71
-92.98
-75.14
-52.58
-26.44
2.43
32.27
61.25
87.32
108.61
123.78
132.41
134.99
132.73
127.34
120.39
113.16
106.36
100.40
95.41
91.39
88.00
84.75
81.34
77.37
73.03
68.83
65.85
65.20
67.99
73.64
80.89
88.15
93.46
96.01
94.87
90.18
82.65
73.00
62.16
51.40
41.88
33.80
25.87
15.21
-1.68
-25.45
-53.94
-82.04
-103.51
-113.87
-112.54
-102.51
-88.80
-75.85
-65.39
-57.20
-49.92
-42.77
-36.09
-31.23
-28.78
-28.31
-28.64
-27.91
-24.83
-19.02
-10.95
-1.57
8.10
17.81
27.98
39.26
52.18
66.45
81.05
94.10
103.51
107.54
105.38
97.19
83.95
67.22
48.60
29.46
11.14
-5.62
-20.32
-32.54
-42.05
-48.76
-52.61
-53.97
-53.72
-52.24
-50.09
-47.77
-45.51
-43.51
-41.79
-40.14
-38.55
-37.05
-35.66
-34.38
-33.25
-32.30
-31.62
-31.19
-30.98
-31.07
-31.44
-32.07
-32.95
-34.09
-35.45
-37.29
-39.58
-42.54
-46.48
-51.66
-58.31
-66.47
-76.30
-86.85
-97.28
-106.20
-112.06
-113.49
-109.46
-99.60
-83.93
-63.06
-37.10
-8.67
20.24
48.27
74.32
97.83
118.34
135.83
150.51
162.65
171.84
177.72
179.59
176.69
168.57
154.99
136.29
113.64
88.51
62.62
38.03
16.46
-0.99
-13.87
-22.64
-28.19
-31.70
-34.66
-38.20
-42.91
-48.90
-55.82
-63.04
-69.81
-75.25
-78.69
-79.94
-78.70
-74.66
-67.83
-58.48
-46.90
-33.99
-20.51
-7.34
3.99
12.26
16.33
14.71
6.07
-8.82
-30.57
-58.43
-92.45
-129.94
-166.82
-199.02
-223.08
-236.42
-237.28
-225.55
-202.01
-163.71
-115.72
-63.00
-9.90
39.95
83.52
118.89
144.65
160.51
167.10
165.46
157.90
146.78
134.03
120.81
107.79
95.29
84.03
75.21
69.96
69.82
75.25
85.26
97.37
108.21
114.58
115.16
110.00
100.80
90.70
82.44
77.24
74.43
71.78
66.32
55.23
36.73
10.27
-22.12
-55.72
-84.00
-100.39
-101.28
-88.57
-70.08
-56.89
-59.50
-80.21
-113.92
-149.43
-174.01
-178.36
-160.09
-123.67
-77.48
-30.23
11.71
44.22
64.98
73.17
69.75
57.68
41.83
27.89
19.22
15.87
14.73
11.82
4.56
-7.37
-22.33
-38.00
-52.93
-66.68
-79.02
-89.96
-99.41
-107.25
-114.35
-122.09
-131.58
-143.06
-156.36
-168.10
-174.54
-172.41
-159.76
-136.55
-104.39
-66.15
-25.09
15.56
52.96
85.32
111.93
132.56
147.22
156.05
159.45
157.91
152.36
144.21
134.75
125.28
116.59
108.94
102.26
96.29
90.47
84.64
78.88
73.45
69.01
65.94
64.33
64.10
64.95
66.28
67.28
68.11
67.05
63.26
56.12
45.35
31.09
14.03
-4.83
-24.13
-42.52
-58.67
-71.35
-79.70
-83.38
-82.49
-77.41
-68.79
-57.27
-44.35
-30.39
-15.64
-0.19
15.84
32.26
48.78
64.97
81.54
96.89
109.69
118.79
123.30
122.56
116.31
104.57
87.88
65.69
40.43
13.76
-13.04
-38.84
-62.82
-84.49
-103.51
-119.59
-132.60
-142.37
-148.94
-152.59
-153.15
-150.52
-144.87
-136.50
-125.64
-112.97
-99.14
-85.02
-71.24
-58.25
-46.11
-34.65
-23.58
-12.06
-0.14
11.93
23.55
34.02
42.57
48.48
51.34
51.13
49.08
45.51
41.08
36.71
33.77
33.67
37.52
46.24
60.08
79.82
103.59
128.57
151.55
169.45
179.70
180.38
170.68
144.53
107.17
62.94
15.48
-31.98
-76.04
-112.69
-140.32
-156.73
-160.07
-147.84
-121.51
-84.62
-42.00
1.75
42.69
77.70
104.62
115.53
110.19
89.90
57.21
14.94
-32.92
-81.70
-126.41
-165.32
-196.47
-216.28
-222.97
-214.87
-192.43
-157.48
-114.30
-70.08
-32.95
-8.85
1.88
-0.84
-12.54
-27.29
-38.54
-41.68
-34.82
-17.66
9.94
48.72
97.48
152.39
195.70
210.06
187.24
132.45
59.55
-17.42
-88.97
-151.26
-203.99
-247.43
-283.05
-309.87
-327.10
-335.11
-335.89
-332.10
-326.10
-319.08
-311.85
-303.29
-290.79
-272.32
-247.38
-216.96
-182.76
-146.81
-111.23
-78.12
-48.67
-23.38
-2.90
11.55
18.79
18.45
11.31
-0.96
-15.88
-30.34
-41.26
-46.34
-44.54
-35.85
-20.86
-0.43
24.43
52.68
83.19
114.67
145.46
173.64
197.45
215.60
227.76
234.71
238.02
239.63
241.38
244.48
249.21
254.94
260.32
264.12
266.11
267.40
270.08
276.24
286.46
298.67
308.30
309.47
297.21
269.25
226.90
175.13
121.78
76.38
48.47
45.59
70.93
121.69
188.85
259.14
318.77
357.36
370.49
360.01
332.12
294.69
254.93
218.36
188.43
167.12
154.91
151.03
153.45
159.18
164.59
166.15
161.14
147.89
126.03
95.81
57.87
12.95
-38.06
-93.81
-152.33
-211.08
-267.34
-318.76
-364.08
-403.19
-436.61
-464.48
-485.41
-496.17
-492.25
-469.34
-425.19
-361.02
-281.81
-195.29
-110.25
-34.59
26.14
69.60
96.83
111.62
119.47
126.10
135.92
150.89
170.03
189.98
206.49
216.14
217.44
211.08
199.27
184.50
168.65
152.47
135.85
118.43
100.13
81.39
63.25
47.19
34.86
27.82
27.11
32.84
43.98
58.45
73.50
86.37
94.76
97.17
92.90
81.96
65.05
43.47
19.06
-6.00
-29.55
-49.88
-66.05
-77.98
-86.24
-91.65
-94.88
-96.26
-95.85
-93.82
-90.63
-87.30
-85.23
-85.85
-90.19
-98.46
-110.02
-123.51
-137.31
-150.02
-160.73
-169.25
-175.93
-181.40
-186.28
-191.03
-195.77
-200.25
-203.78
-205.26
-203.42
-197.34
-186.84
-172.79
-156.93
-141.29
-127.55
-116.44
-107.61
-99.85
-91.62
-81.57
-68.90
-53.52
-35.83
-16.47
3.98
25.16
46.66
67.61
86.20
99.81
105.67
102.10
89.23
69.21
45.44
21.49
0.19
-16.65
-27.94
-33.24
-32.80
-27.97
-21.28
-15.81
-13.86
-15.58
-18.60
-19.02
-13.20
0.31
19.88
41.40
59.95
71.57
74.15
67.17
50.89
25.73
-7.55
-47.17
-89.68
-130.13
-163.11
-184.33
-191.81
-186.28
-170.53
-148.16
-122.45
-95.69
-69.23
-43.89
-20.28
1.07
19.78
35.70
48.95
60.05
69.81
79.19
88.94
99.26
109.63
118.91
125.77
129.18
128.80
124.97
118.46
110.12
100.55
90.05
78.70
66.63
54.21
42.06
30.92
21.42
13.99
8.70
5.38
3.66
2.97
2.80
2.77
2.80
3.09
4.07
6.16
9.59
14.25
19.74
25.55
31.32
36.94
42.58
48.42
54.44
60.39
65.94
70.93
75.62
80.64
86.75
94.34
103.10
111.85
118.89
122.66
122.37
118.31
111.68
104.07
96.71
89.97
83.13
74.73
63.19
47.53
27.84
5.48
-17.22
-37.55
-53.43
-64.31
-71.74
-79.30
-91.69
-113.12
-145.29
-185.73
-227.35
-259.92
-273.22
-260.73
-222.35
-164.67
-98.69
-36.09
14.33
48.46
66.48
71.09
65.59
52.93
35.79
17.16
0.53
-10.78
-14.63
-10.81
-1.04
11.65
24.18
34.41
41.56
46.13
49.24
51.76
53.94
55.26
54.82
51.92
46.42
38.94
30.64
22.82
16.49
12.10
9.46
7.88
6.47
4.50
1.65
-1.90
-5.63
-8.95
-11.45
-13.07
-14.05
-14.75
-15.50
-16.43
-17.49
-18.56
-19.54
-20.41
-21.26
-22.17
-23.19
-24.28
-25.33
-26.26
-27.02
-27.56
-27.88
-28.01
-27.94
-27.70
-27.23
-26.49
-25.38
-23.78
-21.59
-18.83
-15.65
-12.29
-9.01
-5.92
-3.09
-0.46
1.99
4.23
6.11
7.44
8.02
7.78
6.76
5.14
3.20
1.23
-0.53
-1.92
-2.84
-3.33
-3.47
-3.39
-3.23
-3.15
-3.22
-3.49
-3.86
-4.12
-3.96
-3.09
-1.29
1.39
4.64
8.02
11.02
13.41
15.31
17.23
19.87
23.82
29.19
35.48
41.63
46.30
48.24
46.74
41.72
33.72
23.54
11.93
-0.89
-15.44
-32.98
-55.13
-83.07
-116.75
-154.19
-191.49
-223.35
-244.34
-250.21
-239.06
-211.83
-172.11
-125.30
-77.18
-32.63
5.44
36.28
60.63
79.75
94.34
104.27
108.90
107.85
101.67
91.75
79.84
67.42
55.30
43.87
33.46
24.68
18.32
15.08
15.05
17.62
21.72
26.17
30.06
32.88
34.57
35.30
35.32
34.70
33.31
30.86
26.99
21.46
14.35
5.96
-3.27
-12.93
-22.81
-32.93
-43.42
-54.40
-65.83
-77.25
-87.93
-96.79
-102.77
-105.03
-103.17
-97.31
-88.02
-76.03
-62.09
-46.85
-30.82
-14.53
1.48
16.59
30.27
42.09
51.85
59.50
65.07
68.70
70.55
70.86
69.92
68.11
65.77
63.14
60.30
57.22
53.84
50.26
46.75
43.65
41.31
39.92
39.46
39.76
40.52
41.38
41.92
41.64
40.08
36.95
32.25
26.36
19.90
13.42
7.28
1.62
-3.54
-8.05
-11.51
-13.36
-13.00
-10.07
-4.71
2.48
10.59
18.63
25.57
30.58
33.04
32.76
29.97
25.28
19.60
13.97
9.32
6.26
5.15
6.17
9.51
15.06
22.19
29.89
37.14
43.12
47.36
49.95
51.47
53.18
55.85
59.43
63.02
65.51
65.84
63.41
58.59
53.11
50.13
52.06
59.29
69.80
80.62
88.49
91.06
87.62
79.30
68.91
58.42
47.83
35.27
19.00
-2.71
-31.41
-68.26
-116.91
-173.31
-226.83
-265.84
-284.40
-281.95
-262.43
-231.75
-196.30
-161.39
-129.52
-101.36
-74.32
-46.00
-12.67
27.81
74.60
123.48
168.58
205.34
232.34
251.58
258.04
252.88
238.89
218.90
194.58
167.64
140.22
115.33
94.45
76.03
57.84
36.49
9.30
-25.71
-67.63
-113.52
-157.23
-193.83
-221.70
-241.24
-255.31
-267.42
-282.66
-303.04
-326.29
-341.35
-335.60
-299.20
-227.66
-123.91
2.96
137.15
262.48
353.83
396.66
391.71
350.56
284.81
202.78
116.96
27.48
-62.35
-146.91
-216.87
-271.34
-317.86
-359.31
-398.21
-417.52
-403.67
-352.42
-293.22
-233.27
-174.37
-110.89
-43.38
27.70
103.48
181.06
250.65
297.04
311.52
292.11
245.92
184.57
119.99
61.29
12.68
-30.16
-68.51
-96.66
-110.02
-107.31
-91.96
-70.22
-48.57
-34.62
-32.51
-39.92
-48.27
-49.70
-39.80
-19.12
8.58
38.38
65.30
86.21
101.15
112.68
122.72
131.93
139.62
144.82
146.84
145.33
140.39
133.01
124.52
115.46
105.70
94.76
82.52
69.41
56.22
43.74
32.73
23.44
15.63
8.88
2.80
-2.76
-7.71
-11.95
-15.44
-18.27
-20.67
-22.92
-25.20
-27.65
-30.20
-32.75
-35.16
-37.30
-39.11
-40.56
-41.75
-42.75
-43.57
-44.11
-44.12
-43.29
-41.33
-38.01
-33.25
-27.17
-20.04
-12.28
-4.49
2.68
8.68
13.14
16.01
17.46
17.86
17.56
16.91
16.12
15.35
14.72
14.34
14.18
14.07
13.69
12.73
11.02
8.64
5.85
2.93
0.02
-2.94
-6.10
-9.58
-13.21
-16.66
-19.45
-21.26
-22.03
-21.99
-21.50
-20.88
-20.34
-20.00
-19.91
-20.15
-20.77
-21.74
-22.84
-23.78
-24.27
-24.25
-23.94
-23.82
-24.35
-25.72
-27.71
-29.66
-30.78
-30.35
-28.08
-24.10
-18.83
-12.81
-6.44
0.06
6.54
12.83
18.70
23.86
28.12
31.52
34.28
36.72
39.10
41.45
43.55
45.12
45.88
45.73
44.70
42.86
40.21
36.70
32.21
26.67
20.11
12.67
4.56
-3.91
-12.39
-20.48
-27.76
-33.88
-38.63
-41.93
-43.92
-44.78
-44.73
-43.95
-42.57
-40.62
-38.09
-34.92
-31.04
-26.46
-21.18
-15.22
-8.53
-1.01
7.46
16.88
27.00
37.28
46.95
55.26
61.64
65.79
67.69
67.48
65.28
61.27
55.68
48.87
41.36
33.72
26.46
19.87
14.06
8.95
4.42
0.45
-2.99
-5.88
-8.23
-10.10
-11.53
-12.54
-13.09
-13.16
-12.81
-12.23
-11.70
-11.49
-11.75
-12.50
-13.53
-14.59
-15.40
-15.81
-15.82
-15.53
-15.05
-14.45
-13.72
-12.80
-11.72
-10.56
-9.43
-8.43
-7.57
-6.77
-5.97
-5.19
-4.54
-4.21
-4.36
-4.97
-5.91
-6.94
-7.78
-8.23
-8.17
-7.59
-6.60
-5.42
-4.32
-3.53
-3.07
-2.83
-2.49
-1.71
-0.32
1.70
4.13
6.65
8.86
10.42
11.08
10.70
9.36
7.31
4.90
2.53
0.50
-1.07
-2.21
-3.02
-3.56
-3.84
-3.82
-3.50
-3.03
-2.62
-2.52
-2.91
-3.76
-4.98
-6.31
-7.47
-8.21
-8.28
-7.51
-5.83
-3.35
-0.30
2.95
6.05
8.76
10.95
12.62
13.80
14.49
14.71
14.64
14.47
14.43
14.68
15.17
15.60
15.40
13.85
10.21
4.03
-4.94
-16.73
-31.06
-47.32
-64.59
-81.64
-97.04
-109.33
-117.18
-119.66
-116.35
-107.39
-93.54
-75.99
-56.30
-36.12
-16.93
0.13
14.38
25.66
34.18
40.23
44.10
46.02
46.06
44.31
40.99
36.48
31.37
26.33
21.88
18.34
15.94
14.72
14.70
15.88
18.32
22.10
27.37
34.37
43.31
54.25
66.68
79.46
90.80
98.70
101.48
98.34
89.57
76.37
60.42
43.36
26.48
10.66
-3.51
-15.56
-25.15
-32.18
-36.83
-39.58
-41.09
-41.98
-42.66
-43.33
-43.89
-44.20
-44.08
-43.40
-42.16
-40.39
-38.17
-35.58
-32.64
-29.28
-25.45
-21.13
-16.47
-11.84
-7.72
-4.52
-2.42
-1.27
-0.70
-0.34
0.02
0.37
0.43
-0.08
-1.38
-3.44
-6.03
-8.79
-11.33
-13.29
-14.41
-14.53
-13.58
-11.56
-8.53
-4.60
0.01
5.01
9.98
14.47
18.03
20.38
21.42
21.32
20.37
18.94
17.30
15.60
13.87
12.12
10.37
8.66
7.07
5.62
4.30
3.08
1.98
1.02
0.28
-0.19
-0.34
-0.17
0.38
1.31
2.59
4.12
5.63
6.89
7.68
7.88
7.58
6.93
6.14
5.31
4.49
3.64
2.73
1.77
0.85
0.07
-0.44
-0.59
-0.33
0.28
1.17
2.22
3.35
4.47
5.60
6.71
7.82
8.94
10.01
10.96
11.67
11.98
11.72
10.83
9.32
7.36
5.21
3.12
1.25
-0.35
-1.78
-3.13
-4.43
-5.58
-6.42
-6.81
-6.73
-6.27
-5.65
-5.06
-4.61
-4.31
-4.05
-3.73
-3.31
-2.78
-2.16
-1.44
-0.61
0.39
1.55
2.82
4.09
5.24
6.18
6.82
7.09
6.93
6.34
5.35
4.05
2.56
0.98
-0.64
-2.29
-3.98
-5.68
-7.29
-8.72
-9.84
-10.62
-10.99
-10.93
-10.45
-9.62
-8.50
-7.23
-5.96
-4.78
-3.77
-2.93
-2.27
-1.81
-1.61
-1.68
-2.09
-2.77
-3.58
-4.29
-4.68
-4.58
-3.95
-2.82
-1.31
0.50
2.56
4.85
7.33
9.89
12.36
14.54
16.38
17.91
19.26
20.53
21.76
22.90
23.95
24.82
25.37
25.39
24.55
22.41
18.53
12.54
4.26
-6.18
-18.52
-32.39
-47.20
-62.12
-76.08
-87.94
-96.66
-101.49
-101.99
-98.07
-89.94
-78.07
-63.32
-46.79
-29.83
-13.81
0.11
11.20
19.20
24.24
26.81
27.45
26.84
25.68
24.52
23.70
23.36
23.43
23.72
24.04
24.13
23.81
22.99
21.61
19.69
17.31
14.65
11.94
9.39
7.15
5.26
3.56
1.76
-0.38
-2.91
-5.62
-7.95
-9.24
-8.94
-6.73
-2.80
2.27
7.64
12.44
15.94
17.79
17.92
16.54
14.05
10.86
7.36
3.89
0.67
-2.09
-4.22
-5.64
-6.46
-6.86
-7.14
-7.47
-7.84
-8.12
-8.13
-7.71
-6.87
-5.69
-4.26
-2.65
-0.84
1.17
3.37
5.69
8.02
10.26
12.32
14.16
15.71
16.96
17.93
18.66
19.17
19.44
19.35
18.80
17.73
16.14
14.11
11.68
8.86
5.62
2.01
-1.80
-5.45
-8.56
-10.78
-11.95
-12.06
-11.17
-9.29
-6.45
-2.73
1.68
6.45
11.20
15.57
19.34
22.41
24.79
26.50
27.58
28.08
28.04
27.56
26.64
25.22
23.14
20.21
16.38
11.76
6.68
1.56
-3.21
-7.29
-10.55
-12.89
-14.35
-14.93
-14.73
-13.88
-12.60
-11.12
-9.65
-8.32
-7.12
-5.99
-4.84
-3.60
-2.26
-0.89
0.40
1.45
2.07
2.09
1.37
-0.10
-2.25
-4.93
-8.03
-11.40
-14.89
-18.32
-21.36
-23.65
-24.81
-24.54
-22.70
-19.31
-14.53
-8.61
-1.92
5.09
11.83
17.64
21.79
23.64
22.75
18.98
12.58
4.13
-5.51
-15.39
-24.61
-32.51
-38.62
-42.71
-44.55
-43.89
-40.40
-33.92
-24.54
-12.72
0.76
14.92
28.72
41.23
51.54
58.92
62.78
62.85
59.23
52.41
43.14
32.18
20.27
7.98
-4.13
-15.47
-25.39
-33.35
-39.06
-42.59
-44.41
-45.18
-45.59
-46.14
-46.93
-47.68
-47.76
-46.32
-42.62
-36.19
-27.13
-16.18
-4.48
6.65
16.10
23.19
27.80
30.17
30.81
30.20
28.82
27.08
25.32
23.77
22.53
21.51
20.46
19.16
17.42
15.26
12.81
10.30
7.94
5.90
4.29
3.11
2.28
1.67
1.14
0.64
0.19
-0.08
0.00
0.52
1.39
2.42
3.28
3.76
3.88
3.84
3.92
4.47
5.66
7.40
9.28
10.56
10.33
7.80
2.34
-6.36
-18.09
-32.21
-47.65
-63.04
-76.87
-87.64
-94.07
-95.28
-90.97
-81.38
-67.36
-50.12
-31.16
-12.01
5.89
21.42
33.87
43.03
49.14
52.66
54.13
54.13
53.02
51.09
48.56
45.62
42.48
39.34
36.20
33.05
29.94
26.88
23.97
21.33
19.10
17.39
16.28
15.74
15.60
15.61
15.43
14.80
13.66
12.10
10.38
8.72
7.20
5.76
4.26
2.56
0.70
-1.18
-2.89
-4.28
-5.32
-6.03
-6.48
-6.62
-6.42
-5.79
-4.74
-3.36
-1.80
-0.24
1.09
1.99
2.32
2.01
1.09
-0.21
-1.57
-2.65
-3.26
-3.42
-3.29
-3.08
-2.93
-2.83
-2.70
-2.45
-2.08
-1.71
-1.45
-1.37
-1.42
-1.47
-1.38
-1.08
-0.59
0.06
0.81
1.70
2.78
4.08
5.59
7.22
8.78
10.06
10.87
11.07
10.64
9.56
7.80
5.31
2.02
-2.17
-7.19
-12.72
-18.33
-23.45
-27.60
-30.42
-31.75
-31.55
-29.86
-26.81
-22.53
-17.34
-11.58
-5.74
-0.25
4.49
8.18
10.61
11.68
11.41
9.97
7.73
5.13
2.68
0.77
-0.36
-0.63
-0.12
1.07
2.74
4.70
6.72
8.59
10.15
11.31
12.07
12.43
12.36
11.72
10.40
8.30
5.43
1.99
-1.77
-5.53
-9.03
-12.06
-14.50
-16.30
-17.42
-17.83
-17.54
-16.57
-14.95
-12.82
-10.37
-7.83
-5.47
-3.46
-1.88
-0.68
0.21
0.91
1.43
1.73
1.71
1.30
0.52
-0.59
-1.92
-3.48
-5.28
-7.43
-9.98
-12.93
-16.18
-19.71
-23.60
-28.03
-33.09
-38.53
-43.56
-46.94
-47.28
-43.56
-35.51
-23.72
-9.51
5.44
19.54
31.52
40.53
46.11
48.08
46.55
41.89
34.78
26.17
17.17
8.93
2.34
-2.01
-3.92
-3.59
-1.46
1.92
5.91
9.92
13.41
15.99
17.48
17.90
17.46
16.39
14.92
13.20
11.31
9.37
7.49
5.87
4.64
3.82
3.33
3.09
3.05
3.24
3.74
4.59
5.78
7.21
8.75
10.32
11.87
13.41
14.96
16.42
17.56
18.17
18.02
16.87
14.49
10.61
4.94
-2.55
-11.75
-22.37
-33.91
-45.63
-56.62
-65.84
-72.18
-74.63
-72.38
-65.00
-52.66
-36.13
-16.77
3.61
23.07
39.81
52.50
60.51
63.96
63.52
60.25
55.18
49.21
43.09
37.27
31.94
27.11
22.63
18.25
13.77
8.95
3.66
-1.96
-7.72
-13.37
-18.61
-23.20
-26.99
-29.90
-31.91
-33.07
-33.38
-32.86
-31.46
-29.11
-25.78
-21.57
-16.65
-11.31
-5.83
-0.40
4.82
9.73
14.22
18.14
21.28
23.48
24.61
24.63
23.61
21.70
19.13
16.20
13.21
10.44
8.13
6.34
5.06
4.20
3.67
3.46
3.58
4.02
4.73
5.61
6.36
6.54
5.57
2.87
-2.01
-9.31
-19.08
-31.02
-44.47
-58.52
-72.01
-83.65
-92.15
-96.43
-95.79
-89.99
-79.41
-64.93
-47.85
-29.69
-11.99
3.95
17.18
27.17
33.85
37.47
38.56
37.79
35.87
33.45
31.00
28.81
26.99
25.56
24.43
23.41
22.35
21.19
19.95
18.70
17.52
16.38
15.24
13.98
12.59
11.12
9.67
8.43
7.48
6.86
6.48
6.25
6.11
6.04
6.09
6.24
6.50
6.76
6.92
6.89
6.60
6.05
5.30
4.43
3.50
2.56
1.56
0.44
-0.85
-2.22
-3.52
-4.50
-4.92
-4.70
-3.86
-2.54
-0.96
0.70
2.23
3.43
4.13
4.25
3.73
2.67
1.24
-0.33
-1.79
-2.91
-3.52
-3.46
-2.73
-1.40
0.39
2.47
4.78
7.35
10.26
13.49
16.89
20.11
22.63
23.94
23.65
21.66
18.10
13.30
7.68
1.70
-4.27
-9.93
-14.99
-19.23
-22.44
-24.47
-25.40
-25.41
-24.77
-23.83
-22.81
-21.86
-21.04
-20.32
-19.64
-19.00
-18.30
-17.42
-16.23
-14.64
-12.69
-10.57
-8.59
-6.98
-5.91
-5.25
-4.76
-4.12
-3.08
-1.50
0.56
3.02
5.82
8.91
12.25
15.74
19.08
21.98
24.06
25.07
25.00
24.04
22.45
20.51
18.38
16.11
13.74
11.29
8.85
6.50
4.32
2.26
0.25
-1.79
-3.89
-5.96
-7.87
-9.44
-10.53
-11.11
-11.22
-10.93
-10.31
-9.45
-8.35
-7.06
-5.56
-3.90
-2.20
-0.60
0.78
1.82
2.51
2.89
3.09
3.22
3.35
3.45
3.46
3.35
3.07
2.70
2.31
2.02
1.81
1.62
1.30
0.72
-0.08
-1.01
-1.84
-2.38
-2.52
-2.27
-1.75
-1.08
-0.32
0.48
1.33
2.23
3.18
4.11
4.94
5.58
5.95
6.00
5.69
5.06
4.15
3.04
1.78
0.43
-0.93
-2.17
-3.18
-3.81
-4.02
-3.77
-3.19
-2.45
-1.76
-1.25
-0.98
-0.91
-0.95
-1.04
-1.15
-1.29
-1.48
-1.66
-1.73
-1.57
-1.15
-0.55
0.10
0.60
0.84
0.80
0.54
0.09
-0.56
-1.48
-2.61
-3.84
-4.90
-5.50
-5.45
-4.74
-3.54
-2.11
-0.70
0.53
1.46
2.03
2.20
1.98
1.46
0.80
0.18
-0.22
-0.29
0.06
0.85
2.10
3.77
5.72
7.70
9.38
10.50
10.91
10.63
9.76
8.46
6.81
4.84
2.62
0.25
-2.06
-4.00
-5.33
-5.90
-5.70
-4.90
-3.73
-2.43
-1.20
-0.19
0.47
0.69
0.44
-0.24
-1.24
-2.43
-3.62
-4.68
-5.52
-6.11
-6.40
-6.44
-6.26
-5.87
-5.29
-4.47
-3.38
-2.10
-0.80
0.28
0.87
0.89
0.38
-0.41
-1.17
-1.64
-1.69
-1.31
-0.63
0.18
0.99
1.71
2.31
2.77
3.08
3.20
3.11
2.78
2.24
1.58
0.87
0.15
-0.60
-1.41
-2.30
-3.15
-3.78
-4.05
-3.89
-3.43
-2.89
-2.47
-2.26
-2.15
-1.96
-1.52
-0.76
0.22
1.26
2.18
2.87
3.29
3.49
3.49
3.26
2.82
2.17
1.36
0.57
-0.05
-0.32
-0.19
0.28
0.86
1.30
1.36
0.95
0.18
-0.73
-1.52
-2.04
-2.33
-2.52
-2.78
-3.18
-3.69
-4.25
-4.83
-5.45
-6.19
-7.10
-8.12
-9.09
-9.87
-10.37
-10.69
-10.92
-11.14
-11.17
-10.60
-9.00
-6.09
-1.91
3.09
8.23
12.81
16.27
18.38
19.14
18.75
17.48
15.56
13.22
10.65
8.04
5.56
3.34
1.49
0.07
-0.91
-1.47
-1.60
-1.33
-0.64
0.41
1.73
3.17
4.55
5.72
6.57
7.02
7.09
6.84
6.34
5.71
5.01
4.25
3.39
2.38
1.13
-0.31
-1.86
-3.33
-4.52
-5.26
-5.54
-5.40
-4.95
-4.33
-3.64
-2.97
-2.39
-2.01
-1.89
-2.07
-2.54
-3.22
-3.95
-4.62
-5.06
-5.15
-4.77
-3.88
-2.56
-1.01
0.51
1.78
2.71
3.37
3.93
4.51
5.10
5.63
5.99
6.17
6.31
6.56
7.05
7.69
8.30
8.61
8.44
7.75
6.61
5.15
3.50
1.82
0.18
-1.32
-2.67
-3.85
-4.93
-5.99
-7.11
-8.34
-9.61
-10.84
-11.90
-12.69
-13.15
-13.30
-13.20
-12.98
-12.71
-12.43
-12.13
-11.76
-11.22
-10.42
-9.28
-7.80
-5.99
-3.83
-1.29
1.60
4.76
8.11
11.54
14.96
18.36
21.68
24.82
27.63
29.73
30.77
30.58
29.23
27.04
24.39
21.59
18.87
16.48
14.36
12.37
10.39
8.38
6.30
4.05
1.54
-1.20
-3.82
-6.43
-9.00
-11.10
-11.73
-9.53
-3.46
6.94
21.56
39.61
58.59
75.71
88.74
96.56
99.21
96.78
89.27
76.77
59.27
35.35
4.26
-33.03
-73.98
-114.89
-153.53
-189.29
-222.67
-246.35
-253.19
-238.92
-205.43
-159.41
-107.58
-56.40
-11.10
23.52
46.58
55.84
49.76
28.89
-3.87
-43.37
-85.88
-127.28
-160.56
-180.05
-184.96
-177.88
-161.27
-140.28
-107.79
-56.17
18.56
115.69
228.36
342.48
443.01
517.95
560.45
570.09
549.89
505.93
445.99
377.02
303.37
227.03
148.26
66.99
-14.93
-94.76
-168.43
-231.89
-282.77
-320.90
-347.27
-363.36
-370.78
-370.94
-365.63
-355.80
-340.92
-319.09
-288.32
-247.89
-200.09
-150.14
-104.22
-67.63
-42.35
-26.59
-15.96
-5.80
7.33
24.58
44.93
66.18
85.66
101.37
112.69
120.45
126.35
131.59
136.01
137.83
134.84
125.96
112.27
96.93
83.31
73.35
66.37
60.31
53.36
45.47
38.00
31.96
26.00
15.66
-4.46
-37.72
-82.57
-132.17
-176.60
-207.09
-219.15
-214.00
-197.35
-176.28
-156.56
-141.03
-129.57
-120.41
-111.57
-101.49
-89.10
-73.57
-54.02
-30.07
-2.83
24.84
48.71
65.03
72.17
72.02
69.10
68.39
72.76
81.36
90.65
96.84
98.96
99.57
103.59
115.18
135.07
159.81
183.22
199.41
205.02
200.45
188.83
173.98
158.77
144.16
129.74
114.75
99.19
83.99
70.77
60.98
55.00
51.87
49.39
45.13
37.17
25.08
9.79
-6.76
-22.39
-35.21
-43.87
-47.45
-45.31
-37.01
-22.33
-1.64
23.70
51.02
76.28
94.83
102.62
97.64
80.46
54.03
22.21
-11.96
-47.22
-84.40
-125.62
-173.30
-228.99
-292.15
-359.33
-423.96
-477.31
-510.52
-517.58
-497.42
-454.55
-397.37
-335.00
-274.32
-218.58
-167.88
-120.83
-76.18
-33.24
8.44
49.81
92.17
136.32
181.33
224.01
259.64
283.26
291.72
284.85
265.55
238.76
209.68
182.22
158.19
137.64
119.69
103.60
89.28
77.29
68.24
62.18
58.34
55.35
51.80
46.87
40.80
34.62
29.65
26.90
26.60
28.25
30.95
33.79
36.13
37.71
38.42
38.15
36.62
33.44
28.32
21.28
12.92
4.28
-3.24
-8.28
-9.93
-8.04
-3.31
2.93
9.12
13.92
16.53
16.75
14.84
11.29
6.69
1.71
-3.04
-7.07
-10.21
-12.62
-14.67
-16.66
-18.47
-19.59
-19.28
-17.02
-12.82
-7.22
-1.08
4.80
9.78
13.39
15.24
14.92
12.29
7.51
1.23
-5.51
-11.67
-16.45
-19.63
-21.43
-22.46
-23.39
-24.72
-26.57
-28.62
-30.21
-30.51
-28.84
-24.88
-18.79
-11.15
-2.84
5.18
12.06
17.21
20.38
21.68
21.53
20.59
19.49
18.72
18.46
18.59
18.69
18.27
16.77
13.73
8.89
2.04
-6.86
-17.80
-30.62
-45.05
-60.39
-75.50
-88.72
-98.08
-101.77
-98.58
-88.44
-72.50
-52.90
-32.14
-12.49
4.55
18.39
29.12
37.13
42.79
46.25
47.63
47.26
45.83
44.24
43.37
43.69
45.02
46.63
47.51
46.83
44.32
40.41
36.12
32.74
31.44
32.78
36.48
41.49
46.30
49.45
50.01
47.84
43.53
38.00
32.12
26.46
21.24
16.47
12.13
8.26
4.87
1.95
-0.71
-3.35
-6.16
-9.09
-11.88
-14.10
-15.34
-15.41
-14.46
-12.94
-11.45
-10.54
-10.41
-10.92
-11.69
-12.33
-12.62
-12.60
-12.44
-12.33
-12.34
-12.40
-12.38
-12.26
-12.12
-12.08
-12.19
-12.39
-12.52
-12.42
-12.02
-11.38
-10.62
-9.81
-8.90
-7.74
-6.19
-4.18
-1.91
0.29
2.11
3.33
3.96
4.15
4.13
4.03
3.92
3.81
3.66
3.60
3.66
3.84
4.08
4.16
3.95
3.47
2.89
2.50
2.57
3.25
4.40
5.83
7.16
8.16
8.65
8.58
8.00
6.97
5.56
3.85
1.89
-0.31
-2.68
-5.18
-7.68
-10.03
-11.97
-13.27
-13.81
-13.63
-13.01
-12.24
-11.57
-11.13
-10.89
-10.80
-10.83
-11.06
-11.62
-12.59
-13.86
-15.15
-16.15
-16.63
-16.60
-16.21
-15.66
-15.06
-14.44
-13.65
-12.51
-10.96
-8.99
-6.84
-4.78
-3.13
-2.13
-1.85
-2.13
-2.57
-2.71
-2.11
-0.56
1.98
5.35
9.29
13.58
18.05
22.54
26.76
30.30
32.50
32.75
30.68
26.39
20.48
13.89
7.54
2.10
-2.08
-5.03
-6.90
-7.72
-7.53
-6.41
-4.57
-2.42
-0.45
0.98
1.69
1.70
1.23
0.54
-0.12
-0.56
-0.65
-0.37
0.24
1.05
1.90
2.72
3.50
4.27
5.04
5.75
6.29
6.55
6.45
6.02
5.34
4.52
3.67
2.83
2.05
1.34
0.74
0.23
-0.18
-0.43
-0.44
-0.06
0.80
2.14
3.81
5.56
7.11
8.20
8.68
8.46
7.50
5.81
3.45
0.61
-2.45
-5.40
-7.97
-9.98
-11.35
-12.06
-12.08
-11.36
-9.85
-7.57
-4.63
-1.28
2.19
5.42
8.11
9.98
10.83
10.55
9.20
7.07
4.58
2.22
0.42
-0.64
-0.94
-0.67
-0.11
0.48
0.91
0.92
0.40
-0.77
-2.56
-4.76
-7.02
-8.91
-10.13
-10.49
-10.06
-8.97
-7.41
-5.52
-3.41
-1.14
1.15
3.27
5.07
6.50
7.77
9.23
11.15
13.63
16.44
19.12
21.07
21.80
20.89
18.12
13.40
6.73
-1.65
-11.37
-21.84
-32.48
-42.72
-52.09
-59.99
-65.59
-67.95
-66.06
-59.27
-47.56
-31.61
-12.64
7.79
28.15
47.19
63.81
77.19
86.75
92.28
94.14
93.20
90.67
87.73
85.11
82.89
80.66
78.01
74.89
71.87
69.84
69.57
71.21
74.11
77.03
78.74
78.54
76.50
73.40
70.21
67.56
65.59
63.88
61.71
58.52
54.15
48.78
42.92
37.16
32.08
28.25
25.96
24.66
22.52
16.26
1.74
-24.78
-65.05
-117.90
-179.00
-241.67
-298.50
-342.85
-370.48
-380.36
-375.01
-359.74
-341.15
-324.96
-314.05
-307.55
-301.27
-289.53
-267.16
-231.29
-182.09
-122.81
-59.01
2.41
54.58
92.08
112.15
115.35
105.29
87.49
67.94
51.79
42.69
42.43
50.96
66.38
85.35
103.94
118.71
127.70
130.92
129.85
126.47
122.38
118.25
114.03
109.63
105.53
102.87
103.17
107.47
115.82
127.00
138.95
149.47
157.04
161.37
163.23
163.96
164.70
165.93
167.35
168.25
168.07
166.53
163.67
159.58
154.05
146.65
136.94
124.77
110.50
94.79
78.20
60.84
42.26
21.67
-1.47
-26.95
-53.66
-79.72
-103.08
-122.32
-137.32
-149.55
-161.73
-176.65
-195.90
-219.27
-244.63
-268.84
-288.66
-301.16
-303.31
-292.11
-265.22
-222.54
-167.45
-106.44
-47.17
4.25
45.04
75.47
97.04
110.63
116.04
112.93
102.80
89.38
77.38
70.13
67.74
67.35
64.75
56.64
42.35
24.66
8.69
-0.14
1.73
13.94
32.17
49.80
60.77
61.96
54.27
41.28
26.70
12.53
-1.50
-16.48
-32.70
-48.94
-63.30
-74.76
-84.01
-92.65
-101.41
-109.13
-112.74
-108.79
-95.23
-72.66
-44.45
-15.39
10.18
29.94
43.86
53.47
60.37
65.18
67.24
65.43
59.29
49.66
38.47
27.66
18.11
9.26
-0.31
-11.85
-25.41
-39.71
-52.70
-62.49
-67.99
-69.05
-66.19
-60.18
-51.85
-41.96
-31.26
-20.63
-11.11
-3.83
0.30
0.88
-1.43
-4.93
-7.19
-5.96
-0.07
9.91
21.83
32.79
40.15
42.43
39.52
32.36
22.42
11.36
0.74
-8.01
-13.71
-15.72
-14.11
-9.73
-3.96
1.75
6.39
9.64
11.72
13.10
14.12
14.79
14.89
14.16
12.60
10.47
8.23
6.27
4.80
3.77
3.02
2.30
1.37
0.07
-1.61
-3.55
-5.45
-6.79
-7.06
-5.79
-2.76
1.92
7.72
13.91
19.56
23.78
25.83
25.30
22.24
17.29
11.48
5.91
1.31
-2.21
-5.12
-8.06
-11.46
-15.23
-18.81
-21.49
-22.70
-22.20
-20.05
-16.39
-11.38
-5.38
1.00
6.76
10.72
12.02
10.58
7.22
3.34
0.47
-0.50
0.35
2.04
3.13
2.52
-0.12
-4.16
-8.60
-12.55
-15.69
-18.30
-20.87
-23.70
-26.66
-29.37
-31.62
-33.73
-36.48
-40.69
-46.58
-53.40
-59.52
-63.05
-62.61
-57.94
-49.78
-39.41
-27.80
-15.17
-1.02
15.14
33.02
51.21
67.32
78.86
84.11
82.74
75.75
65.01
52.45
39.54
27.21
16.04
6.60
-0.55
-4.95
-6.55
-5.84
-3.77
-1.40
0.59
2.06
3.43
5.33
8.07
11.39
14.48
16.47
16.86
15.82
14.04
12.33
11.26
10.85
10.73
10.44
9.72
8.59
7.29
6.04
4.93
3.98
3.23
2.84
2.99
3.74
4.96
6.28
7.26
7.50
6.82
5.23
2.99
0.48
-1.86
-3.66
-4.77
-5.32
-5.71
-6.32
-7.37
-8.69
-9.88
-10.50
-10.39
-9.69
-8.90
-8.52
-8.89
-10.02
-11.58
-13.08
-14.08
-14.27
-13.57
-12.13
-10.27
-8.41
-6.91
-6.04
-5.85
-6.20
-6.80
-7.34
-7.57
-7.39
-6.91
-6.30
-5.87
-5.80
-6.11
-6.58
-6.77
-6.16
-4.41
-1.55
1.99
5.42
7.90
8.80
7.92
5.55
2.42
-0.62
-2.79
-3.66
-3.21
-1.86
-0.19
1.19
1.82
1.59
0.65
-0.64
-1.73
-2.18
-1.75
-0.44
1.45
3.60
5.78
7.95
10.17
12.46
14.61
16.22
16.95
16.73
15.88
14.93
14.37
14.38
14.66
14.71
14.00
12.26
9.56
6.30
3.11
0.59
-0.80
-0.97
-0.21
0.96
1.92
2.30
1.99
1.19
0.14
-1.01
-2.31
-3.93
-5.90
-8.11
-10.25
-12.04
-13.38
-14.49
-15.69
-17.27
-19.32
-21.65
-23.86
-25.50
-26.27
-26.05
-25.04
-23.52
-21.73
-19.73
-17.29
-14.02
-9.55
-3.81
2.93
10.10
17.10
23.48
29.04
33.64
37.10
39.05
39.12
37.08
33.12
27.72
21.52
14.97
8.30
1.52
-5.39
-12.26
-18.84
-24.72
-29.53
-32.85
-34.31
-33.55
-30.44
-25.18
-18.43
-11.23
-4.73
0.08
2.64
2.74
0.57
-3.53
-9.08
-15.52
-22.23
-28.53
-33.85
-37.76
-40.10
-40.84
-40.02
-37.56
-33.28
-27.12
-19.26
-10.55
-2.04
5.28
11.25
16.45
22.10
29.32
38.16
47.70
56.07
61.58
63.38
61.62
57.20
51.18
44.45
37.68
31.52
26.70
23.97
23.66
25.48
28.49
31.34
32.76
31.95
28.67
23.17
16.12
8.51
1.41
-3.97
-6.87
-7.04
-5.11
-2.20
0.16
0.72
-0.97
-4.62
-9.06
-13.00
-15.37
-15.75
-14.41
-12.05
-9.47
-7.11
-5.06
-3.03
-0.80
1.76
4.39
6.70
8.33
9.07
9.02
8.34
7.28
5.95
4.53
3.18
2.17
1.71
1.80
2.22
2.56
2.44
1.77
0.78
-0.20
-0.77
-0.82
-0.46
-0.02
0.21
0.03
-0.63
-1.72
-3.22
-5.13
-7.53
-10.58
-14.47
-19.33
-25.13
-31.56
-38.01
-43.60
-47.37
-48.53
-46.66
-41.76
-34.26
-24.83
-14.39
-3.85
5.89
14.09
20.26
24.16
25.91
25.79
24.20
21.54
18.16
14.34
10.36
6.50
3.01
0.18
-1.83
-2.90
-3.12
-2.68
-1.83
-0.81
0.27
1.39
2.59
3.85
5.05
6.04
6.64
6.81
6.58
6.10
5.49
4.82
4.12
3.38
2.62
1.80
0.91
-0.04
-0.86
-1.26
-0.88
0.54
2.95
6.03
9.15
11.68
13.21
13.71
13.46
12.80
11.97
11.01
9.84
8.36
6.53
4.51
2.46
0.54
-1.15
-2.61
-3.88
-5.00
-5.98
-6.84
-7.56
-8.18
-8.63
-8.75
-8.40
-7.44
-5.90
-3.96
-1.95
-0.20
0.99
1.52
1.49
1.07
0.47
-0.17
-0.85
-1.55
-2.32
-3.09
-3.74
-4.06
-3.91
-3.17
-1.88
-0.21
1.59
3.18
4.26
4.59
4.12
2.93
1.35
-0.22
-1.38
-1.84
-1.48
-0.42
1.13
2.85
4.42
5.53
6.00
5.70
4.75
3.36
1.85
0.46
-0.72
-1.80
-3.03
-4.58
-6.48
-8.44
-10.03
-10.81
-10.54
-9.26
-7.18
-4.66
-1.95
0.72
3.23
5.35
6.83
7.42
6.95
5.52
3.38
0.86
-1.78
-4.36
-6.79
-8.97
-10.73
-11.91
-12.48
-12.53
-12.27
-11.80
-11.08
-9.85
-7.92
-5.29
-2.30
0.56
2.86
4.43
5.39
5.95
6.27
6.23
5.62
4.26
2.21
-0.24
-2.60
-4.43
-5.47
-5.70
-5.33
-4.66
-4.02
-3.61
-3.51
-3.68
-3.93
-4.02
-3.74
-2.98
-1.82
-0.42
0.92
1.92
2.32
2.05
1.26
0.32
-0.37
-0.49
0.10
1.26
2.66
3.96
4.92
5.44
5.61
5.61
5.51
5.30
4.90
4.13
2.92
1.31
-0.51
-2.30
-3.78
-4.77
-5.18
-4.96
-4.09
-2.55
-0.37
2.29
5.22
8.09
10.59
12.47
13.60
13.90
13.42
12.24
10.52
8.42
6.04
3.50
0.90
-1.67
-4.10
-6.16
-7.68
-8.55
-8.71
-8.21
-7.11
-5.54
-3.70
-1.90
-0.47
0.32
0.35
-0.19
-0.95
-1.55
-1.76
-1.58
-1.17
-0.78
-0.60
-0.68
-0.93
-1.29
-1.78
-2.43
-3.24
-4.06
-4.67
-4.87
-4.59
-3.92
-3.05
-2.02
-0.76
0.95
3.28
6.19
9.34
12.24
14.45
15.64
15.74
14.76
12.77
9.91
6.42
2.68
-0.81
-3.57
-5.34
-6.13
-6.18
-5.90
-5.73
-6.07
-7.12
-8.88
-11.05
-13.19
-14.79
-15.52
-15.27
-14.22
-12.68
-10.98
-9.39
-8.18
-7.54
-7.67
-8.65
-10.33
-12.30
-14.04
-14.98
-14.78
-13.37
-10.99
-8.04
-5.01
-2.32
-0.26
1.07
1.75
2.02
2.34
3.15
4.86
7.58
11.08
14.74
17.78
19.48
19.49
17.87
15.07
11.62
8.02
4.61
1.54
-1.01
-2.89
-3.94
-4.08
-3.34
-1.88
0.04
2.25
4.54
6.80
8.92
10.78
12.25
13.18
13.42
12.83
11.33
8.94
5.85
2.33
-1.23
-4.48
-7.18
-9.24
-10.68
-11.59
-12.02
-12.04
-11.70
-11.13
-10.54
-10.13
-10.05
-10.24
-10.44
-10.32
-9.57
-8.11
-6.14
-4.05
-2.31
-1.19
-0.72
-0.60
-0.29
0.77
2.97
6.42
10.78
15.46
19.65
22.62
23.85
23.17
20.79
17.11
12.65
7.78
2.78
-2.24
-7.18
-11.94
-16.39
-20.40
-23.93
-27.01
-29.71
-31.95
-33.58
-34.48
-34.71
-34.71
-35.20
-36.94
-40.48
-45.94
-52.83
-60.31
-67.35
-72.95
-76.11
-75.88
-71.43
-62.22
-48.26
-30.13
-8.80
14.70
39.88
66.98
96.61
129.06
163.47
197.58
228.06
251.40
265.00
267.80
260.18
243.50
219.51
190.02
156.87
122.03
87.58
55.46
27.34
4.24
-13.43
-25.71
-33.00
-36.01
-35.65
-33.00
-29.28
-25.48
-22.42
-20.61
-20.19
-21.01
-22.74
-25.10
-28.20
-32.59
-39.04
-48.02
-59.27
-71.48
-82.80
-91.46
-96.45
-97.90
-96.82
-94.49
-91.97
-89.73
-87.74
-85.74
-83.49
-80.88
-77.88
-74.46
-70.37
-65.42
-59.53
-52.94
-46.26
-40.27
-35.65
-32.64
-30.83
-29.30
-27.04
-23.41
-18.49
-12.98
-7.88
-3.98
-1.52
-0.17
0.61
1.21
1.67
1.64
0.66
-1.50
-4.64
-8.26
-11.78
-14.94
-17.80
-20.56
-23.21
-25.36
-26.18
-24.81
-20.64
-13.60
-4.13
7.04
19.01
30.63
40.51
47.05
48.86
45.43
37.48
26.85
15.83
6.25
-1.26
-7.08
-12.07
-16.76
-20.85
-23.49
-23.87
-21.73
-17.60
-12.50
-7.32
-2.47
2.20
7.05
12.22
17.39
21.67
23.88
22.88
18.12
9.82
-1.02
-12.94
-24.56
-34.88
-43.32
-49.51
-52.95
-52.82
-48.37
-39.36
-26.45
-11.33
3.81
16.84
26.16
30.90
30.87
26.43
18.35
7.77
-4.11
-16.27
-28.13
-39.55
-50.62
-61.30
-71.13
-79.36
-85.11
-87.83
-87.32
-83.71
-77.19
-67.92
-56.08
-42.03
-26.42
-10.14
5.78
20.46
33.35
44.29
53.45
61.26
68.17
74.42
79.97
84.38
87.00
87.30
85.09
80.79
75.34
70.00
65.98
64.24
65.11
68.26
72.66
76.79
79.14
78.81
75.90
71.41
66.86
63.42
61.44
60.38
59.33
57.59
55.10
52.23
49.33
46.42
42.98
38.37
32.15
24.39
15.56
6.24
-3.12
-12.38
-21.55
-30.58
-39.20
-46.82
-52.81
-56.73
-58.56
-58.78
-58.15
-57.43
-57.09
-57.16
-57.26
-56.82
-55.26
-52.24
-47.75
-42.04
-35.55
-28.75
-22.09
-15.90
-10.44
-5.85
-2.24
0.37
2.00
2.76
2.86
2.54
2.01
1.36
0.57
-0.56
-2.16
-4.31
-6.91
-9.73
-12.49
-14.90
-16.74
-17.77
-17.76
-16.43
-13.58
-9.29
-3.93
1.80
7.03
10.98
13.15
13.42
12.10
9.77
6.99
4.29
1.94
-0.02
-1.68
-3.13
-4.38
-5.30
-5.73
-5.64
-5.06
-4.10
-2.82
-1.15
1.01
3.69
6.77
10.07
13.37
16.66
19.99
23.27
26.15
27.84
27.50
24.51
18.96
11.61
3.72
-3.57
-9.65
-14.52
-18.72
-22.76
-26.81
-30.55
-33.29
-34.25
-32.95
-29.45
-24.22
-18.12
-12.00
-6.51
-1.84
2.21
6.20
10.86
16.76
24.07
32.19
39.71
44.63
44.89
39.28
28.06
13.21
-2.08
-14.46
-21.56
-22.78
-19.21
-13.08
-6.76
-2.06
0.09
-0.37
-2.97
-6.99
-11.62
-15.92
-19.15
-20.62
-19.95
-17.06
-12.24
-6.01
0.86
7.45
12.84
16.24
17.24
15.77
12.16
6.91
0.58
-6.28
-13.10
-19.20
-23.86
-26.45
-26.73
-24.98
-21.97
-18.73
-16.16
-14.72
-14.37
-14.72
-15.26
-15.51
-15.15
-14.00
-12.08
-9.59
-6.83
-4.13
-1.76
0.10
1.40
2.19
2.57
2.65
2.65
2.90
3.77
5.57
8.43
12.35
17.16
22.81
29.28
36.67
45.02
54.14
63.46
71.97
78.46
81.70
80.86
75.75
66.88
55.23
42.04
28.41
15.17
2.84
-8.34
-18.17
-26.49
-33.08
-37.87
-40.90
-42.35
-42.46
-41.45
-39.60
-37.12
-34.33
-31.47
-28.71
-26.16
-23.83
-21.73
-19.93
-18.56
-17.73
-17.36
-17.19
-16.81
-15.81
-13.99
-11.35
-8.16
-4.80
-1.65
0.98
2.88
3.95
4.23
3.87
3.14
2.34
1.75
1.53
1.70
2.25
3.24
4.83
7.29
10.90
15.82
22.06
29.33
37.16
45.07
52.70
59.88
66.45
72.08
76.10
77.63
75.73
69.77
59.70
46.06
29.81
12.15
-5.73
-22.71
-37.68
-49.69
-58.05
-62.53
-63.50
-61.77
-58.24
-53.70
-48.61
-43.12
-37.31
-31.24
-25.07
-19.07
-13.44
-8.27
-3.60
0.49
3.85
6.30
7.73
8.11
7.59
6.38
4.67
2.60
0.30
-2.04
-4.19
-5.88
-6.99
-7.54
-7.70
-7.68
-7.66
-7.63
-7.46
-6.93
-5.90
-4.41
-2.60
-0.72
1.04
2.48
3.60
4.36
4.80
4.93
4.76
4.36
3.84
3.40
3.18
3.32
3.79
4.48
5.18
5.62
5.58
4.89
3.49
1.41
-1.28
-4.48
-8.04
-11.73
-15.29
-18.39
-20.65
-21.74
-21.40
-19.47
-15.96
-11.01
-4.94
1.71
8.34
14.30
19.06
22.32
23.98
24.05
22.65
19.83
15.67
10.30
3.97
-2.95
-9.91
-16.26
-21.35
-24.58
-25.57
-24.20
-20.72
-15.70
-10.01
-4.57
-0.17
2.74
4.17
4.55
4.52
4.68
5.35
6.43
7.43
7.73
6.78
4.38
0.75
-3.60
-7.93
-11.53
-13.81
-14.40
-13.20
-10.40
-6.38
-1.72
2.94
7.07
10.30
12.53
13.82
14.33
14.16
13.33
11.73
9.30
6.08
2.33
-1.47
-4.86
-7.40
-8.92
-9.40
-8.98
-7.83
-6.14
-4.02
-1.48
1.51
5.02
9.06
13.52
18.01
21.90
24.41
24.85
22.94
18.95
13.60
7.89
2.73
-1.37
-4.40
-6.71
-8.72
-10.67
-12.44
-13.64
-13.77
-12.48
-9.74
-5.87
-1.47
2.66
5.76
7.18
6.58
4.01
-0.08
-5.01
-9.99
-14.25
-17.22
-18.47
-17.79
-15.10
-10.51
-4.40
2.60
9.60
15.60
19.64
21.05
19.60
15.66
10.04
3.80
-2.07
-6.90
-10.44
-12.73
-14.01
-14.52
-14.43
-13.82
-12.67
-10.83
-8.10
-4.37
0.23
5.34
10.38
14.81
18.44
21.39
23.97
26.33
28.22
29.06
28.14
25.07
20.03
13.68
7.02
0.93
-3.97
-7.41
-9.30
-9.59
-8.25
-5.19
-0.46
5.66
12.59
19.56
25.73
30.41
33.11
33.58
31.82
28.01
22.32
14.98
6.28
-3.44
-13.65
-23.67
-32.75
-40.08
-44.96
-46.92
-45.69
-41.28
-33.98
-24.34
-13.17
-1.49
9.69
19.37
26.76
31.39
33.05
31.83
28.04
22.13
14.56
5.84
-3.49
-12.83
-21.45
-28.60
-33.71
-36.47
-37.00
-35.78
-33.43
-30.57
-27.67
-24.96
-22.59
-20.71
-19.41
-18.69
-18.34
-17.91
-16.89
-14.94
-11.97
-8.31
-4.44
-0.82
2.29
4.82
6.79
8.20
8.95
8.94
8.19
6.86
5.24
3.72
2.55
1.94
2.04
2.85
4.36
6.37
8.61
10.74
12.50
13.71
14.38
14.55
14.34
13.85
13.17
12.39
11.60
10.82
10.01
9.06
7.88
6.37
4.53
2.44
0.30
-1.60
-2.93
-3.42
-2.91
-1.47
0.68
3.14
5.43
7.15
8.05
8.04
7.16
5.57
3.48
1.17
-1.08
-3.03
-4.48
-5.38
-5.72
-5.63
-5.25
-4.76
-4.29
-3.91
-3.59
-3.21
-2.71
-2.00
-1.18
-0.46
-0.16
-0.60
-1.86
-3.86
-6.21
-8.37
-9.71
-9.74
-8.32
-5.65
-2.16
1.72
5.53
8.86
11.40
13.01
13.71
13.72
13.40
13.21
13.53
14.35
15.21
15.50
14.75
12.79
9.83
6.48
3.59
2.25
2.89
5.25
8.80
12.92
16.99
20.47
23.15
25.58
29.08
34.13
40.05
45.68
50.09
52.81
53.62
52.70
50.84
49.33
48.35
47.73
48.93
55.68
71.73
97.62
128.86
157.27
173.79
169.98
140.51
85.74
11.19
-75.85
-169.77
-267.50
-366.59
-447.81
-487.69
-472.74
-408.46
-313.78
-208.21
-105.07
-12.04
67.11
128.84
175.86
209.89
234.41
255.16
277.39
303.02
328.87
349.18
352.23
329.19
276.38
198.77
108.85
21.42
-50.89
-102.14
-131.69
-144.61
-147.58
-146.69
-145.11
-143.58
-141.91
-138.51
-132.22
-120.86
-106.06
-92.72
-87.86
-97.49
-124.17
-166.44
-217.57
-270.20
-297.93
-282.19
-224.40
-144.83
-66.20
-0.16
44.07
74.71
96.29
110.39
114.85
106.40
89.70
72.98
65.28
70.65
87.17
106.23
119.23
118.60
98.55
59.01
5.20
-55.15
-116.41
-175.48
-232.48
-287.33
-321.18
-321.01
-288.01
-237.04
-183.47
-135.69
-94.75
-59.26
-26.84
3.21
27.18
41.20
44.43
40.15
33.03
27.24
25.16
28.73
37.82
47.82
52.71
48.23
33.17
8.20
-24.64
-61.32
-93.41
-113.17
-117.88
-110.14
-95.38
-79.19
-65.94
-57.84
-53.18
-43.24
-24.63
2.44
33.96
65.70
95.56
123.42
149.64
175.75
207.86
248.50
295.11
341.42
382.53
417.09
446.07
470.12
454.58
384.63
273.27
150.26
37.96
-55.74
-131.37
-186.59
-229.76
-264.50
-286.28
-291.75
-281.49
-258.82
-227.41
-188.63
-143.48
-95.05
-46.25
3.39
52.67
97.81
134.00
158.52
171.68
175.21
169.82
157.34
142.34
128.98
119.78
115.89
118.36
128.84
148.66
176.49
210.17
247.28
283.08
310.21
320.96
310.79
280.75
237.30
187.10
137.19
93.91
60.70
37.02
19.66
5.80
-4.83
-9.97
-10.60
-8.53
-5.75
-4.93
-10.26
-25.96
-53.39
-90.26
-132.10
-179.80
-235.04
-297.01
-361.52
-423.50
-478.87
-525.36
-562.91
-562.29
-509.40
-416.20
-311.98
-219.54
-146.41
-90.86
-48.30
-14.03
15.59
37.96
50.48
53.80
52.21
50.29
50.89
55.20
63.78
76.54
89.12
97.82
101.82
103.59
105.92
109.97
115.37
121.44
127.53
130.59
128.85
123.02
116.31
111.95
112.03
116.81
126.02
139.01
153.25
166.29
176.77
184.27
188.39
189.02
185.15
176.66
164.48
149.34
133.05
118.27
107.45
101.41
99.89
100.19
99.65
95.84
85.52
67.70
43.17
11.92
-29.77
-74.40
-119.51
-162.43
-199.99
-232.10
-255.52
-265.12
-258.04
-236.52
-206.07
-175.20
-151.19
-139.09
-147.23
-175.97
-218.09
-265.35
-312.85
-358.07
-400.85
-441.04
-478.53
-520.36
-564.88
-601.04
-615.88
-600.70
-551.83
-471.59
-367.15
-204.50
-5.91
172.47
291.25
350.24
369.31
367.79
356.85
341.06
322.15
294.50
260.73
230.47
211.10
202.38
198.72
193.19
181.34
162.05
131.91
95.08
61.18
37.35
24.89
20.41
19.29
18.97
18.83
16.73
14.84
17.95
28.84
46.56
67.82
88.10
104.98
116.33
117.71
106.73
84.33
54.41
23.30
-2.09
-16.87
-19.63
-13.39
-3.48
7.38
20.14
37.87
62.61
92.61
119.14
135.04
135.00
118.73
91.45
61.06
34.59
15.26
2.12
-8.11
-17.68
-27.34
-36.11
-42.36
-45.23
-45.25
-43.86
-43.02
-43.92
-45.84
-47.42
-47.10
-43.93
-38.18
-31.65
-26.68
-25.46
-28.77
-35.19
-42.02
-46.07
-44.89
-37.72
-25.82
-11.62
1.72
12.05
19.39
25.42
32.38
41.78
53.44
65.04
73.41
74.85
67.43
52.79
35.58
21.61
16.12
22.51
40.56
66.98
94.82
116.60
127.31
125.48
113.08
94.98
77.89
63.12
53.22
46.67
38.20
20.59
-13.25
-67.43
-140.93
-227.28
-310.03
-364.37
-374.68
-344.50
-289.60
-224.74
-157.54
-94.00
-30.29
31.51
85.17
122.78
139.58
137.66
119.96
89.77
57.94
38.35
38.05
53.77
73.70
85.39
82.92
68.34
49.51
34.90
29.08
30.19
33.40
33.83
29.48
21.81
13.96
9.08
8.69
11.99
15.66
16.62
12.94
4.56
-7.25
-20.81
-34.58
-47.40
-58.79
-69.00
-77.80
-84.02
-86.03
-82.38
-72.50
-56.87
-36.82
-14.22
8.83
30.90
51.48
70.74
88.98
105.84
119.98
129.26
131.51
125.55
112.03
93.23
72.33
52.11
34.16
18.77
5.41
-6.41
-16.85
-25.70
-32.70
-37.62
-39.99
-39.39
-35.84
-30.45
-25.76
-25.30
-32.15
-47.45
-69.65
-95.05
-119.49
-139.95
-155.45
-166.62
-174.64
-180.38
-184.15
-186.06
-186.39
-185.51
-183.27
-178.38
-168.42
-150.61
-122.96
-85.35
-39.80
9.85
58.88
102.64
137.41
161.02
173.29
176.11
173.01
168.26
165.72
167.78
174.75
184.91
195.20
202.29
203.57
197.70
184.68
165.55
142.04
116.09
89.62
64.36
41.74
22.80
8.02
-2.73
-10.12
-15.09
-18.51
-20.88
-22.29
-22.56
-21.57
-19.43
-16.49
-13.22
-10.01
-7.07
-4.39
-1.86
0.72
3.47
6.52
9.89
13.49
17.13
20.51
23.37
25.45
26.79
27.74
28.92
30.79
33.41
36.30
38.71
39.92
39.46
37.36
34.17
30.76
27.95
26.24
25.70
26.15
27.37
28.91
30.49
32.18
34.35
37.42
41.42
45.86
49.82
52.11
50.64
43.53
29.78
9.54
-16.30
-46.81
-81.12
-117.82
-154.55
-189.57
-220.35
-243.01
-252.76
-245.85
-221.51
-182.24
-132.73
-78.28
-26.31
17.08
49.57
73.35
92.71
110.80
128.06
142.17
149.15
140.94
110.11
53.69
-24.88
-118.23
-218.71
-320.38
-419.09
-488.79
