1587393366.00
64.000000
-0.00
-0.00
-0.00
-0.00
-0.00
-0.00
-0.00
-0.00
-0.00
-0.00
0.00
0.01
0.01
-0.00
-0.03
-0.05
-0.05
0.00
0.13
0.36
0.66
1.01
1.37
1.72
2.06
2.40
2.79
3.24
3.80
4.42
5.06
5.66
6.20
6.68
7.15
7.68
8.31
9.14
10.09
11.04
11.88
12.56
13.14
13.76
14.65
15.96
17.91
20.32
22.90
25.38
27.58
29.57
31.68
34.32
37.81
42.54
48.15
54.10
59.83
64.97
69.58
74.14
79.34
85.71
93.76
103.00
112.62
121.73
129.77
136.75
143.30
150.75
157.77
166.64
177.95
191.79
206.97
220.57
228.25
225.36
208.53
176.87
132.76
80.05
23.07
-34.94
-92.44
-149.16
-205.23
-260.37
-313.74
-363.87
-409.83
-450.91
-486.50
-515.74
-537.23
-549.22
-549.96
-538.37
-514.21
-478.67
-433.88
-382.45
-327.02
-269.84
-212.63
-156.66
-102.95
-52.37
-5.90
35.58
71.43
101.35
125.50
144.38
158.69
169.15
176.37
180.75
182.57
182.07
179.51
175.23
169.65
163.18
156.15
148.81
141.30
133.69
126.02
118.33
110.69
103.16
95.80
88.68
81.83
75.25
68.95
62.95
57.25
51.86
46.78
42.03
37.59
33.45
29.61
26.07
22.81
19.83
17.11
14.67
12.48
10.54
8.83
7.35
6.07
4.97
4.05
3.27
2.62
2.09
1.65
1.30
1.01
0.79
0.61
0.48
0.37
0.28
0.22
0.17
0.14
0.11
0.10
0.09
0.09
0.10
0.11
0.12
0.15
0.18
0.21
0.24
0.28
0.33
0.37
0.41
0.46
0.51
0.55
0.60
0.66
0.71
0.77
0.84
0.91
0.99
1.08
1.18
1.29
1.41
1.55
1.71
1.88
2.07
2.29
2.52
2.78
3.07
3.39
3.73
4.11
4.52
4.97
5.45
5.97
6.53
7.14
7.78
8.47
9.20
9.97
10.79
11.66
12.57
13.53
14.54
15.62
16.76
17.96
19.20
20.46
21.69
22.80
23.72
24.31
24.46
24.04
22.96
21.18
18.67
15.49
11.71
7.48
2.98
-1.60
-6.03
-10.11
-13.62
-16.43
-18.46
-19.70
-20.23
-20.16
-19.64
-18.80
-17.75
-16.55
-15.25
-13.90
-12.53
-11.17
-9.91
-8.79
-7.78
-6.80
-5.76
-4.51
-3.04
-1.34
0.51
2.27
3.74
4.90
5.86
6.82
7.98
9.45
11.16
13.00
14.41
15.09
14.99
14.38
13.67
13.32
13.55
14.32
15.45
16.08
15.73
14.36
12.30
10.10
8.34
7.28
6.84
6.79
6.03
3.58
-1.40
-9.55
-21.10
-35.59
-52.03
-69.47
-82.21
-87.70
-85.52
-77.44
-66.62
-56.42
-49.16
-45.72
-45.91
-48.96
-54.84
-63.23
-73.06
-82.39
-88.61
-89.32
-83.29
-70.86
-53.67
-34.65
-16.32
-0.16
13.44
24.98
35.35
45.33
55.30
65.16
73.98
80.71
84.58
85.30
83.32
79.70
75.82
72.78
71.28
71.03
71.23
71.00
69.64
67.05
63.60
59.81
55.99
52.11
47.76
42.55
36.43
29.67
22.82
16.36
10.50
5.12
-0.00
-5.20
-10.67
-16.53
-22.83
-29.53
-36.45
-43.34
-49.94
-56.21
-62.41
-69.01
-76.49
-85.18
-94.84
-104.71
-113.45
-119.43
-121.19
-117.78
-108.98
-95.37
-78.19
-58.93
-39.08
-19.82
-1.94
14.21
28.56
41.22
52.36
61.98
69.84
75.53
78.59
78.89
76.87
73.45
69.75
66.69
64.71
63.66
63.02
62.23
60.94
59.13
57.04
54.94
52.93
50.85
48.31
44.89
40.39
34.95
29.02
23.14
17.66
12.49
7.07
0.74
-6.97
-15.96
-25.65
-35.17
-43.79
-51.06
-57.01
-62.02
-66.63
-71.61
-77.78
-85.88
-96.34
-108.76
-121.73
-132.96
-139.77
-140.02
-132.87
-119.16
-101.11
-81.40
-62.18
-44.42
-27.97
-12.15
3.35
18.04
30.71
40.11
45.54
47.25
46.33
44.06
41.28
38.12
33.99
28.08
19.79
9.10
-3.35
-16.31
-28.30
-37.84
-43.96
-46.34
-45.42
-42.18
-37.87
-33.64
-30.26
-27.99
-26.57
-25.34
-23.46
-20.31
-15.63
-9.90
-4.12
0.35
2.20
0.78
-3.71
-10.27
-17.42
-23.85
-28.76
-32.09
-34.38
-36.55
-39.37
-43.14
-47.38
-50.80
-51.75
-48.70
-40.86
-28.62
-13.50
2.41
17.06
29.12
38.31
45.15
50.65
55.71
60.75
65.43
68.61
68.64
64.00
54.36
41.07
27.28
16.96
13.40
17.88
29.19
44.29
59.66
72.71
82.31
88.59
92.04
92.77
90.34
84.01
73.38
58.76
41.23
22.30
3.57
-13.64
-28.49
-40.70
-50.36
-57.70
-62.92
-65.98
-66.81
-65.33
-61.64
-56.13
-49.37
-41.91
-34.39
-27.57
-22.41
-20.07
-21.60
-27.34
-36.45
-46.69
-54.86
-57.71
-53.05
-40.41
-21.06
2.49
27.71
52.60
76.03
97.45
116.30
131.86
143.24
149.87
151.83
149.78
144.71
137.44
128.24
116.99
103.53
88.11
71.63
55.55
41.42
30.29
22.40
17.16
13.41
10.02
6.30
2.24
-1.57
-4.34
-5.56
-5.32
-4.35
-3.79
-4.70
-7.57
-12.18
-17.70
-23.18
-27.92
-31.78
-35.00
-37.93
-40.64
-42.87
-44.19
-44.38
-43.67
-42.87
-43.07
-45.30
-50.18
-57.63
-66.82
-76.24
-83.94
-87.98
-86.88
-80.03
-67.79
-51.41
-32.73
-13.51
4.84
21.63
36.85
50.93
64.31
77.14
89.07
99.44
107.70
113.67
117.67
120.18
121.45
121.24
119.01
114.37
107.63
99.94
92.90
87.81
85.11
84.19
83.89
83.17
81.61
79.40
77.00
74.82
72.88
70.84
68.19
64.57
59.88
54.17
47.63
40.39
32.88
25.45
18.29
11.30
4.06
-3.93
-13.25
-24.35
-37.33
-51.36
-65.28
-78.20
-89.81
-100.14
-109.19
-116.47
-120.96
-121.35
-115.75
-103.17
-84.46
-62.35
-40.50
-22.13
-9.39
-3.03
-2.54
-5.23
-7.74
-7.13
-1.74
8.79
23.87
42.06
61.25
72.73
69.98
52.27
25.25
-3.73
-29.89
-51.54
-68.81
-82.35
-92.74
-99.39
-101.84
-100.50
-96.92
-93.06
-90.29
-89.15
-89.54
-91.01
-92.27
-92.24
-90.72
-88.46
-86.58
-85.80
-86.28
-87.67
-89.33
-90.08
-88.90
-85.35
-79.61
-72.33
-64.19
-55.50
-46.56
-37.77
-29.39
-21.78
-15.58
-11.38
-9.81
-11.27
-15.82
-23.27
-33.21
-44.96
-57.85
-71.31
-84.43
-96.62
-107.43
-116.55
-123.84
-129.36
-133.30
-135.95
-137.82
-138.88
-139.36
-139.56
-139.79
-140.27
-140.94
-141.28
-140.07
-139.28
-139.03
-138.96
-138.52
-137.11
-134.11
-128.98
-121.17
-110.26
-96.04
-78.05
-56.44
-31.96
-5.79
20.60
45.88
69.10
89.84
108.20
125.11
141.37
157.49
173.57
189.32
204.30
218.18
230.96
243.13
255.89
270.59
288.19
308.58
330.07
349.38
362.36
365.35
356.38
336.17
307.67
275.12
242.65
213.22
188.14
167.23
149.31
132.90
116.85
100.65
84.53
69.38
56.34
46.29
39.31
34.42
29.74
23.21
13.40
0.30
-14.68
-29.32
-41.71
-51.16
-58.41
-65.03
-72.40
-80.89
-89.64
-97.11
-102.01
-103.78
-102.50
-98.50
-91.84
-82.52
-70.80
-57.48
-43.98
-31.90
-22.55
-16.59
-13.98
-13.92
-14.99
-15.29
-12.80
-6.09
5.01
19.06
33.33
44.84
51.52
53.09
50.87
47.04
43.48
41.15
39.95
39.31
38.65
37.63
36.04
33.57
29.67
23.74
15.51
5.30
-5.91
-16.74
-25.86
-32.48
-36.46
-38.31
-38.85
-38.88
-39.04
-39.73
-41.18
-43.50
-46.66
-50.57
-55.06
-60.02
-65.53
-71.79
-78.98
-86.97
-95.19
-102.66
-108.26
-110.99
-110.10
-105.10
-95.76
-82.12
-64.59
-43.99
-21.41
2.02
25.43
48.30
70.38
91.40
110.87
127.99
141.66
150.67
153.79
150.08
139.25
121.86
99.47
74.41
49.18
25.83
5.41
-12.14
-27.57
-41.71
-54.88
-66.81
-76.87
-84.68
-90.36
-94.48
-97.56
-99.64
-100.05
-97.89
-92.62
-84.72
-75.65
-67.31
-61.19
-57.77
-56.46
-56.21
-56.05
-55.55
-54.72
-53.71
-52.44
-50.46
-47.05
-41.60
-33.77
-23.71
-11.92
0.75
13.38
25.10
35.40
44.31
52.29
60.00
67.82
75.54
82.45
87.71
90.87
92.10
92.01
91.26
90.15
88.60
86.34
83.39
80.22
77.48
75.64
74.52
73.30
70.89
66.48
59.85
51.40
41.82
31.89
22.52
14.76
9.77
8.40
10.74
15.73
21.38
25.41
26.11
23.02
16.91
9.11
0.79
-7.48
-15.75
-24.17
-32.53
-40.15
-46.06
-49.50
-50.25
-48.67
-45.42
-41.08
-35.65
-28.67
-19.54
-8.13
4.72
17.24
27.31
33.34
35.12
33.90
31.84
31.06
32.54
35.83
39.29
40.93
39.46
35.10
29.66
25.91
26.28
31.60
40.76
51.11
59.69
64.50
65.18
62.72
58.74
54.89
52.50
52.72
56.31
62.84
70.06
74.03
70.56
57.49
36.23
11.40
-11.41
-28.73
-41.39
-53.98
-71.92
-97.79
-129.15
-159.46
-181.40
-190.59
-187.60
-177.46
-166.63
-159.54
-156.35
-153.48
-146.29
-132.07
-111.57
-88.30
-67.14
-52.07
-44.46
-42.58
-42.66
-40.57
-33.05
-18.68
2.29
27.43
52.46
72.45
83.44
83.71
74.19
57.81
36.28
14.28
-2.48
-10.52
-10.55
-6.04
-0.21
5.75
12.24
21.06
32.45
44.83
55.52
61.94
62.75
58.38
50.60
41.31
30.01
16.50
-0.38
-22.42
-50.26
-81.99
-112.85
-134.76
-140.34
-127.05
-98.52
-63.20
-30.08
-4.20
14.45
29.21
43.59
59.64
76.70
93.55
109.77
125.39
141.28
157.93
174.43
188.11
195.36
190.33
170.37
136.81
92.86
43.28
-7.00
-54.25
-96.57
-133.44
-165.96
-196.70
-229.02
-267.75
-314.92
-367.07
-414.74
-444.90
-444.86
-407.86
-335.86
-229.59
-101.51
28.57
140.19
219.22
261.33
271.47
264.26
249.55
233.57
218.18
203.51
189.10
174.51
155.21
130.35
102.25
74.81
50.87
27.11
-3.66
-44.93
-93.80
-142.29
-177.43
-188.32
-170.27
-126.37
-68.12
-10.54
33.20
55.34
55.28
38.86
14.02
-10.23
-26.28
-32.28
-32.05
-31.42
-34.63
-42.01
-50.30
-54.36
-50.78
-37.74
-16.27
10.97
41.00
70.69
97.83
118.59
130.30
133.93
133.01
130.58
127.39
121.67
109.74
90.08
61.84
27.22
-9.31
-43.08
-70.99
-91.76
-101.31
-98.93
-86.64
-67.71
-45.00
-21.03
1.20
18.60
29.30
32.81
31.67
30.26
33.11
44.53
66.93
99.58
137.70
174.14
201.83
216.38
217.98
210.95
200.56
193.03
192.16
197.19
203.81
206.70
202.16
189.57
170.29
147.35
124.09
103.41
85.92
71.15
58.58
48.33
40.87
34.60
27.63
18.80
9.63
-0.01
-10.45
-21.88
-33.39
-43.94
-56.61
-74.17
-96.83
-118.24
-135.78
-148.48
-157.03
-161.28
-161.26
-163.51
-173.59
-192.67
-211.13
-225.31
-234.76
-241.89
-247.71
-253.07
-266.78
-296.22
-343.38
-396.81
-452.72
-509.79
-567.96
-622.90
-621.00
-531.97
-364.27
-210.19
-94.26
-19.96
32.25
67.30
88.30
98.16
93.20
73.30
45.05
27.80
29.16
47.86
74.75
102.72
128.50
146.93
155.93
156.87
158.87
161.79
161.17
149.90
126.03
91.48
45.88
-10.67
-75.84
-139.54
-193.36
-229.14
-242.77
-232.20
-199.46
-153.08
-103.75
-60.15
-24.43
3.13
33.33
68.82
106.49
140.44
165.90
182.16
191.76
198.69
205.34
212.42
218.05
221.59
225.32
233.38
250.25
278.50
317.02
360.43
400.41
427.71
431.94
411.31
371.70
323.65
277.62
240.11
212.08
190.05
167.73
140.09
105.41
63.88
16.68
-33.88
-83.13
-123.57
-146.51
-146.35
-123.53
-85.34
-44.66
-15.29
-6.80
-21.25
-53.20
-92.80
-130.49
-159.16
-174.31
-173.54
-155.77
-121.30
-72.53
-15.04
42.71
89.67
116.65
120.07
103.28
75.09
46.00
24.34
13.45
11.39
9.90
1.00
-18.85
-47.57
-79.58
-109.24
-133.07
-150.75
-164.65
-182.84
-212.19
-255.23
-309.61
-370.81
-434.26
-494.87
-545.99
-578.68
-589.72
-578.67
-548.63
-506.43
-462.35
-427.15
-407.16
-402.50
-371.06
-285.92
-148.07
12.58
160.43
275.16
354.56
406.99
441.37
463.04
471.09
462.92
439.18
405.18
367.96
332.98
302.58
273.47
243.13
204.26
151.84
85.29
8.35
-73.56
-155.86
-219.62
-252.64
-254.19
-237.06
-214.60
-191.68
-164.43
-126.50
-75.31
-14.61
44.72
91.70
118.93
126.36
119.97
107.71
95.65
86.35
79.76
73.27
65.35
55.99
46.61
38.74
32.68
27.69
22.43
16.26
8.39
-0.92
-10.44
-18.58
-24.22
-27.38
-28.85
-29.56
-29.86
-29.99
-29.92
-28.72
-25.73
-20.80
-14.62
-8.36
-3.24
-0.01
0.89
-0.49
-3.71
-8.30
-13.56
-19.09
-24.69
-30.19
-35.37
-39.97
-43.79
-46.82
-49.41
-51.64
-53.91
-56.72
-60.53
-65.72
-72.53
-81.04
-91.28
-103.21
-116.10
-129.25
-141.96
-153.48
-162.95
-169.44
-171.73
-168.18
-161.32
-151.82
-140.24
-127.12
-113.13
-98.95
-85.32
-72.92
-62.41
-54.42
-48.76
-45.37
-44.10
-44.75
-47.07
-50.77
-55.52
-61.06
-67.17
-73.21
-78.76
-83.55
-87.40
-90.19
-91.83
-92.26
-91.41
-89.29
-85.63
-80.37
-73.64
-65.70
-56.85
-47.31
-37.17
-26.31
-14.46
-1.18
13.79
30.48
48.64
67.83
87.59
107.53
127.47
147.32
167.07
186.57
205.38
222.91
238.44
251.40
261.56
269.13
274.80
279.75
285.51
293.62
305.02
319.41
334.93
348.38
356.25
355.92
346.58
329.63
307.99
285.13
264.04
246.59
233.47
224.38
218.25
213.54
208.36
200.91
189.83
174.63
155.79
134.60
112.72
91.65
72.28
54.73
38.56
23.21
8.43
-5.62
-18.49
-29.89
-39.76
-48.30
-55.67
-61.79
-66.46
-69.68
-72.02
-74.59
-78.57
-84.56
-92.19
-100.12
-106.63
-110.30
-110.55
-107.71
-102.84
-97.11
-91.40
-85.86
-79.96
-72.75
-63.33
-51.34
-37.20
-22.03
-7.22
5.92
16.57
24.42
29.68
32.96
35.17
37.27
40.03
43.75
48.16
52.56
56.14
58.24
58.54
57.05
54.00
49.82
45.09
40.54
36.86
34.51
33.47
33.18
32.74
31.24
28.10
23.24
16.99
9.91
2.59
-4.54
-11.21
-17.27
-22.66
-27.34
-31.31
-34.57
-37.15
-39.08
-40.40
-41.14
-41.44
-41.63
-42.21
-43.78
-46.75
-50.91
-55.14
-57.47
-55.67
-48.13
-34.69
-16.93
2.38
20.32
34.84
45.34
52.34
56.80
59.46
60.57
60.14
58.23
55.13
51.20
46.53
40.88
33.87
25.50
16.36
7.52
0.23
-4.51
-6.01
-4.01
1.28
9.29
19.26
30.19
40.97
50.66
58.61
64.75
69.24
72.05
72.77
70.97
66.24
58.53
48.38
36.69
24.85
14.12
5.08
-2.30
-7.75
-11.34
-13.60
-15.53
-18.77
-23.79
-30.20
-37.05
-42.89
-44.72
-40.49
-30.10
-15.55
-1.05
11.39
21.63
30.73
40.44
54.48
74.73
100.17
127.26
149.98
166.56
178.02
186.59
194.78
207.37
227.05
253.15
281.53
303.72
315.60
316.31
307.30
270.94
199.83
99.61
-11.94
-101.76
-170.29
-226.59
-278.84
-333.19
-388.16
-435.17
-464.98
-471.56
-450.84
-407.89
-351.88
-295.59
-249.89
-218.70
-197.06
-177.85
-156.55
-133.44
-114.29
-102.23
-97.65
-98.83
-103.10
-107.12
-109.08
-108.77
-107.36
-107.52
-109.06
-110.05
-108.00
-100.92
-87.68
-68.99
-47.14
-25.25
-6.79
6.61
14.91
19.02
20.51
21.02
21.86
23.89
26.60
29.49
32.26
34.57
36.11
36.99
37.34
37.30
36.69
35.07
32.08
27.80
23.08
19.65
19.87
25.48
36.68
51.73
67.74
81.89
92.34
98.72
99.32
93.74
82.57
67.22
49.43
31.08
13.96
-0.65
-12.35
-21.71
-29.77
-37.70
-45.35
-51.91
-56.21
-57.34
-55.16
-50.47
-44.59
-38.45
-32.53
-26.80
-21.15
-15.48
-9.79
-4.17
1.26
6.36
11.24
15.99
20.71
25.28
29.54
33.16
35.76
36.94
35.96
32.61
26.85
19.07
10.04
0.83
-7.49
-13.95
-18.06
-19.80
-19.53
-17.64
-14.24
-9.13
-1.86
7.76
19.69
33.32
47.55
60.94
71.99
79.42
82.44
81.03
76.29
71.25
70.15
77.03
93.85
119.04
147.53
172.25
188.44
192.51
184.96
169.98
153.18
138.78
127.86
118.51
107.72
93.42
75.43
55.66
36.17
17.41
-2.55
-26.39
-55.47
-88.27
-120.31
-146.22
-161.69
-165.22
-158.22
-143.76
-125.11
-105.26
-87.34
-74.77
-70.46
-74.44
-82.43
-86.36
-77.56
-51.22
-9.55
38.15
79.01
101.51
99.83
75.58
37.12
-3.40
-34.09
-47.15
-41.27
-21.92
0.44
14.26
11.10
-10.74
-45.62
-83.52
-115.00
-135.66
-147.57
-157.10
-170.34
-188.93
-207.69
-216.24
-203.81
-164.92
-102.95
-29.36
40.78
95.00
127.04
138.67
137.07
130.06
122.17
113.44
101.32
83.92
61.94
35.50
5.22
-28.15
-63.62
-99.67
-133.66
-161.41
-177.85
-178.66
-167.33
-149.50
-130.12
-111.90
-96.61
-86.28
-82.51
-85.14
-91.50
-106.04
-131.44
-166.16
-204.75
-241.68
-274.19
-301.87
-324.99
-343.76
-370.25
-414.74
-480.49
-562.81
-654.40
-750.15
-847.24
-942.38
-968.24
-883.67
-692.91
-445.48
-199.23
8.97
166.20
275.50
344.11
393.53
427.77
446.75
452.93
453.46
456.26
466.11
480.73
496.71
513.48
524.72
528.52
527.48
525.94
525.79
525.95
526.28
531.23
548.33
576.18
607.00
628.48
628.56
600.47
545.55
472.63
394.29
321.81
259.03
206.85
166.02
137.51
121.04
112.34
103.26
85.08
53.25
9.45
-37.35
-75.62
-99.11
-109.54
-115.64
-128.62
-157.03
-203.56
-264.67
-332.59
-398.52
-457.63
-507.17
-545.09
-569.15
-577.14
-567.52
-539.65
-494.61
-436.47
-375.90
-325.09
-293.23
-282.69
-288.86
-302.30
-312.71
-313.08
-283.56
-220.28
-136.41
-54.72
8.08
48.95
74.27
91.80
105.85
116.73
119.63
111.32
93.12
70.43
49.72
35.33
27.87
25.82
26.11
23.49
14.71
0.08
-17.27
-33.26
-45.07
-52.43
-56.82
-60.51
-66.66
-76.82
-89.63
-101.45
-109.32
-110.54
-104.68
-93.64
-80.56
-68.96
-61.44
-57.78
-56.43
-52.20
-40.69
-20.77
4.99
31.77
54.95
70.81
80.08
85.12
94.31
115.16
150.73
198.51
252.37
306.25
354.44
396.87
434.76
476.53
529.50
596.47
674.66
757.67
838.83
909.66
965.97
957.19
849.23
639.70
364.65
78.40
-174.40
-355.59
-475.72
-547.79
-582.83
-583.34
-552.08
-499.02
-438.17
-384.15
-346.52
-329.94
-328.77
-334.20
-333.14
-316.34
-281.61
-233.82
-181.99
-134.54
-98.31
-72.43
-51.58
-27.12
6.87
50.88
100.40
148.46
189.00
217.10
233.06
241.61
248.59
257.76
269.77
283.27
296.27
307.39
314.82
319.00
324.17
333.85
349.00
367.73
386.75
403.04
414.78
420.34
395.95
330.47
228.47
108.83
-7.28
-106.86
-186.37
-243.46
-285.19
-314.92
-329.52
-326.70
-307.64
-277.79
-244.38
-213.84
-189.49
-171.99
-158.89
-144.81
-126.60
-104.37
-80.80
-59.46
-43.28
-34.13
-33.75
-42.67
-58.88
-79.38
-99.59
-112.74
-112.67
-97.54
-70.90
-39.21
-7.52
22.71
51.98
80.51
107.61
131.60
150.69
163.70
171.13
174.56
176.04
177.22
178.49
179.62
179.81
178.10
173.80
166.56
156.03
141.16
124.73
107.75
90.86
74.24
57.64
40.53
22.27
2.21
-20.13
-44.64
-71.14
-98.62
-125.72
-151.19
-174.30
-194.92
-213.69
-231.76
-250.65
-272.20
-297.12
-324.17
-349.76
-368.59
-375.28
-366.53
-342.68
-307.68
-267.97
-229.55
-196.19
-168.89
-146.60
-127.78
-111.72
-98.83
-89.83
-84.78
-82.10
-78.79
-71.74
-58.74
-39.57
-16.47
6.36
23.89
31.71
27.62
12.66
-9.08
-30.69
-44.01
-42.24
-22.51
12.54
54.85
93.03
115.97
115.58
91.50
51.88
10.82
-17.11
-22.18
-2.34
37.32
87.55
136.39
174.95
198.73
206.39
197.48
171.84
130.77
78.42
21.79
-34.79
-87.44
-133.79
-173.43
-207.74
-238.70
-267.17
-292.54
-313.96
-336.00
-362.14
-392.16
-421.58
-443.91
-453.88
-449.27
-431.64
-376.96
-280.38
-156.55
-31.34
75.18
156.11
213.30
250.92
272.74
282.05
277.60
260.61
235.86
210.08
188.63
173.55
164.00
157.79
152.88
144.60
131.19
114.47
98.55
86.95
81.47
81.86
86.82
94.62
101.19
103.52
100.30
91.88
79.40
64.43
48.65
33.78
21.16
10.36
1.02
-6.89
-12.92
-16.71
-18.00
-17.26
-15.41
-13.45
-13.69
-16.49
-20.74
-24.52
-26.16
-24.02
-17.55
-7.75
3.17
12.88
20.54
27.35
36.29
50.86
74.65
107.97
146.28
181.12
203.55
208.42
196.57
174.13
149.60
132.29
128.36
139.21
162.22
192.93
226.90
259.89
287.26
292.76
265.82
208.05
134.85
66.55
16.86
-12.05
-26.23
-34.25
-42.69
-51.63
-57.78
-58.33
-53.94
-48.35
-45.97
-48.32
-54.11
-60.91
-64.45
-61.62
-51.81
-37.38
-22.24
-11.01
-6.12
-8.67
-19.79
-38.96
-65.30
-98.03
-137.54
-180.81
-225.21
-266.64
-292.34
-292.50
-262.66
-206.73
-135.24
-61.92
0.58
40.24
57.49
56.56
42.49
21.11
-2.79
-26.17
-45.22
-53.95
-49.15
-29.66
1.66
38.26
73.15
98.07
112.10
116.83
115.15
110.07
105.28
104.96
110.90
122.97
139.14
156.86
173.41
187.17
197.71
206.08
213.19
218.82
222.20
222.64
220.61
217.24
214.09
212.22
212.13
213.20
214.02
213.03
208.84
200.63
187.61
169.42
146.30
119.34
90.26
60.83
32.46
5.72
-19.65
-44.61
-70.08
-96.26
-122.40
-147.15
-169.14
-187.73
-203.38
-217.46
-232.07
-249.61
-272.47
-302.32
-339.11
-379.82
-417.96
-444.66
-451.39
-433.41
-392.14
-335.23
-274.00
-219.56
-179.22
-155.13
-145.15
-145.00
-150.47
-158.51
-167.23
-175.46
-182.28
-186.98
-188.99
-187.74
-182.17
-170.83
-152.05
-124.83
-89.83
-49.73
-8.88
27.96
57.21
77.74
91.24
101.46
112.85
128.61
149.49
173.36
195.40
209.23
208.49
188.77
149.77
97.12
41.96
-1.81
-22.51
-16.06
11.42
45.13
67.48
65.66
37.08
-10.05
-61.19
-102.16
-124.85
-128.75
-118.87
-101.59
-81.51
-60.83
-40.72
-23.24
-11.81
-10.19
-20.05
-39.44
-62.92
-83.31
-94.62
-94.42
-84.64
-70.57
-58.77
-54.45
-59.59
-72.48
-88.54
-102.31
-109.29
-107.40
-97.14
-80.75
-60.93
-39.56
-17.41
5.59
29.56
54.16
78.43
101.19
121.34
138.10
151.02
159.60
163.11
160.53
151.04
134.68
113.08
89.65
68.93
55.31
51.36
56.94
69.54
85.21
100.29
112.56
121.36
126.98
130.16
131.62
132.20
132.68
133.35
133.57
131.72
125.83
114.61
98.49
79.62
61.16
46.11
36.29
31.93
31.96
34.46
37.16
37.91
34.94
26.95
13.58
-4.37
-24.68
-43.51
-55.82
-56.44
-42.17
-13.89
22.72
58.59
84.58
95.33
91.20
77.60
61.44
47.46
35.87
23.32
5.68
-18.93
-48.67
-78.80
-103.94
-120.37
-127.09
-125.62
-118.68
-109.01
-98.75
-89.26
-81.36
-75.61
-72.24
-70.70
-69.51
-66.28
-58.24
-43.47
-22.06
3.08
26.66
42.53
46.29
36.83
16.62
-9.66
-37.23
-63.10
-86.99
-110.69
-136.43
-164.62
-193.14
-217.60
-232.98
-236.00
-226.74
-209.43
-190.81
-177.63
-172.95
-175.85
-182.75
-189.56
-193.30
-192.37
-186.21
-173.93
-154.15
-123.57
-80.11
-25.17
35.58
94.12
143.13
177.93
198.20
206.97
212.20
221.46
238.17
260.06
281.66
298.08
306.56
308.30
306.51
308.88
322.98
353.00
397.91
452.97
511.77
566.58
610.93
616.40
565.08
463.43
341.70
232.09
150.76
101.88
72.09
51.40
34.86
22.53
15.09
10.97
5.57
-5.96
-25.92
-52.78
-82.54
-110.78
-134.08
-150.31
-159.17
-162.88
-163.85
-163.49
-160.66
-154.78
-145.83
-136.84
-131.25
-131.76
-141.12
-160.51
-189.99
-226.73
-269.80
-292.56
-276.60
-220.43
-139.84
-56.00
18.39
64.92
92.68
109.49
119.26
118.37
100.52
71.34
33.67
-8.77
-52.88
-94.36
-133.08
-170.11
-209.98
-256.69
-311.77
-375.72
-447.07
-523.64
-600.10
-671.20
-729.47
-768.55
-783.72
-773.40
-741.15
-693.45
-638.00
-579.87
-522.64
-467.07
-413.54
-362.45
-314.32
-269.99
-229.23
-190.87
-152.87
-114.57
-76.52
-40.80
-10.03
13.81
29.97
39.67
45.56
51.04
58.77
70.28
85.79
104.63
125.91
149.05
174.36
202.79
235.25
271.94
311.88
353.15
393.23
429.98
462.32
490.51
515.98
540.78
566.95
595.89
627.80
661.41
694.00
721.72
740.34
746.17
736.94
712.24
673.52
623.48
565.35
502.39
437.57
373.77
313.54
259.13
211.85
171.53
136.44
103.52
68.90
28.70
-19.71
-76.21
-137.35
-196.74
-246.85
-281.60
-298.93
-301.58
-295.78
-288.44
-284.19
-283.85
-285.07
-284.21
-278.23
-265.63
-246.27
-220.71
-189.73
-154.20
-115.34
-75.01
-35.69
-0.23
28.29
47.21
54.62
49.68
32.68
5.15
-30.03
-68.79
-106.11
-136.53
-155.22
-159.39
-149.30
-128.49
-102.72
-77.91
-58.18
-44.85
-36.81
-31.89
-28.13
-24.51
-20.69
-16.33
-10.64
-2.66
7.99
20.50
32.69
41.78
45.33
41.92
31.00
12.17
-15.15
-51.02
-93.62
-138.34
-178.10
-205.47
-215.70
-208.87
-189.88
-166.26
-144.90
-129.46
-119.75
-112.81
-104.74
-91.99
-71.85
-42.65
-4.49
39.69
83.46
117.82
134.23
128.17
101.61
62.80
23.26
-6.63
-21.07
-19.76
-6.39
14.30
38.64
64.64
91.10
116.51
138.51
154.58
163.08
164.06
159.08
150.36
139.57
127.15
112.40
94.32
72.62
48.44
24.22
2.76
-13.91
-25.47
-33.40
-40.29
-48.74
-60.36
-75.36
-92.88
-111.59
-130.22
-147.54
-162.10
-171.91
-174.85
-169.34
-155.32
-134.56
-110.20
-85.68
-63.57
-45.07
-30.23
-18.58
-9.81
-3.94
-0.96
-0.41
-1.00
-0.80
2.27
9.73
21.91
37.86
55.60
72.84
87.85
99.92
109.45
117.39
124.31
129.86
132.68
131.09
124.13
112.45
98.38
85.07
75.26
70.01
68.34
67.70
64.96
57.54
43.85
23.48
-2.83
-33.04
-63.62
-90.02
-108.18
-116.82
-118.96
-121.39
-131.65
-153.85
-185.79
-219.35
-244.04
-252.03
-241.59
-217.05
-185.62
-153.22
-121.95
-90.44
-56.37
-19.23
18.78
53.96
83.51
107.48
128.99
152.88
183.70
224.29
275.20
334.78
399.49
464.14
522.41
567.89
595.61
603.54
593.13
568.56
534.89
496.24
454.76
410.87
364.31
314.98
263.12
208.76
151.07
88.17
17.84
-61.07
-147.31
-236.52
-321.68
-394.81
-449.43
-482.64
-495.99
-494.73
-485.61
-474.42
-464.23
-455.12
-445.18
-432.16
-414.73
-392.89
-367.45
-339.12
-307.92
-273.17
-234.05
-190.43
-143.47
-95.76
-50.66
-11.32
20.29
43.78
60.12
71.03
78.11
82.47
84.61
84.72
82.94
79.65
75.48
71.15
67.37
64.55
62.66
61.20
59.40
56.56
52.35
46.98
41.12
35.58
30.94
27.39
24.76
22.72
21.09
19.90
19.31
19.40
19.97
20.54
20.41
18.98
15.78
10.62
3.52
-5.31
-15.44
-26.12
-36.24
-44.36
-49.01
-49.05
-44.11
-34.71
-22.09
-7.85
6.62
20.46
33.41
45.60
57.19
68.05
77.65
85.26
90.32
92.76
93.14
92.51
91.96
92.24
93.55
95.64
98.14
100.87
103.98
107.73
112.18
116.92
121.12
123.85
124.50
123.12
120.40
117.36
114.87
113.29
112.33
111.21
109.04
105.14
99.14
90.94
80.50
67.71
52.48
34.89
15.40
-5.12
-25.61
-45.08
-62.89
-78.78
-92.56
-103.94
-112.22
-116.49
-115.96
-110.35
-100.16
-86.57
-71.13
-55.28
-40.01
-25.84
-12.95
-1.44
8.47
16.52
22.45
26.29
28.37
29.22
29.34
29.00
28.25
26.97
25.10
22.86
20.70
19.22
18.87
19.82
21.81
24.27
26.47
27.86
28.16
27.54
26.53
25.77
25.73
26.53
27.91
29.34
30.30
30.50
29.97
29.02
28.16
27.89
28.61
30.40
32.94
35.46
36.82
35.78
31.47
23.72
13.17
1.19
-10.64
-20.94
-28.92
-34.43
-37.76
-39.40
-39.74
-39.04
-37.53
-35.60
-33.89
-33.27
-34.55
-38.13
-43.71
-50.20
-55.87
-58.93
-58.06
-52.85
-43.92
-32.62
-20.61
-9.37
-0.02
6.84
10.93
12.26
11.05
7.78
3.21
-1.77
-6.30
-9.81
-12.09
-13.40
-14.27
-15.27
-16.82
-18.98
-21.51
-23.99
-26.12
-27.86
-29.57
-31.69
-34.42
-37.42
-39.77
-40.45
-38.75
-34.85
-29.75
-24.81
-20.97
-18.13
-15.02
-9.77
-0.82
12.16
28.00
44.39
58.81
69.53
76.25
79.99
82.56
85.65
90.17
95.98
102.19
107.48
110.40
109.56
103.75
92.52
76.91
59.81
45.69
39.16
42.85
55.65
72.38
85.45
87.95
76.70
53.72
25.21
-1.28
-20.21
-29.98
-32.82
-32.75
-33.18
-35.24
-37.87
-39.07
-37.58
-33.74
-29.16
-25.45
-23.10
-21.19
-18.15
-13.19
-7.36
-3.60
-5.62
-16.07
-34.97
-59.33
-84.06
-103.91
-115.35
-117.62
-112.49
-102.96
-91.78
-80.44
-69.03
-56.90
-43.53
-29.04
-14.26
-0.28
12.03
22.27
30.41
36.56
40.62
42.37
41.61
38.41
33.29
27.19
21.18
16.26
13.00
11.40
10.98
10.94
10.45
8.98
6.44
3.17
-0.32
-3.57
-6.35
-8.64
-10.50
-11.97
-12.98
-13.47
-13.55
-13.54
-13.92
-15.20
-17.67
-21.31
-25.85
-30.82
-35.77
-40.37
-44.51
-48.25
-51.78
-55.38
-59.34
-63.83
-68.90
-74.26
-79.37
-83.49
-85.91
-86.18
-84.29
-80.58
-75.57
-69.77
-63.51
-57.02
-50.55
-44.39
-38.78
-33.80
-29.26
-24.75
-19.94
-14.78
-9.59
-4.97
-1.46
0.70
1.65
1.80
1.66
1.55
1.62
1.84
2.11
2.29
2.24
1.84
1.18
0.59
0.81
2.76
7.22
14.45
24.01
34.76
45.34
54.59
61.80
66.75
69.47
69.98
68.20
64.12
57.90
50.02
41.17
31.98
22.93
14.23
6.04
-1.53
-8.27
-14.03
-18.83
-22.93
-26.68
-30.28
-33.55
-35.88
-36.45
-34.54
-29.83
-22.60
-13.59
-3.70
6.29
15.91
24.97
33.42
41.21
48.21
54.25
59.23
63.12
65.92
67.69
68.40
68.09
66.80
64.68
61.96
58.87
55.64
52.41
49.21
45.91
42.31
38.16
33.36
28.02
22.52
17.37
12.99
9.56
6.91
4.66
2.46
0.20
-1.92
-3.58
-4.55
-4.91
-5.09
-5.69
-7.21
-9.81
-13.24
-16.94
-20.33
-23.00
-24.93
-26.43
-28.07
-30.38
-33.75
-38.30
-43.83
-49.80
-55.36
-59.37
-60.68
-58.41
-52.20
-42.38
-29.94
-16.23
-2.58
9.93
20.68
29.51
36.66
42.61
47.90
52.95
57.92
62.72
67.14
70.98
74.24
77.07
79.65
82.12
84.54
86.91
89.24
91.46
93.34
94.44
94.28
92.53
89.36
85.50
82.07
80.15
80.35
82.36
84.80
85.40
81.48
70.51
50.82
22.21
-13.95
-54.86
-96.76
-135.77
-168.54
-192.84
-207.82
-214.00
-212.89
-206.61
-197.31
-186.84
-176.52
-167.12
-158.90
-151.60
-144.45
-136.21
-125.54
-111.45
-93.77
-73.42
-52.13
-31.88
-14.15
0.50
12.52
22.98
32.99
43.30
53.97
64.48
73.95
81.47
86.46
88.87
89.31
88.80
88.45
89.07
90.88
93.58
96.66
99.78
103.04
106.98
112.18
118.96
127.06
135.69
143.86
150.83
156.45
161.27
166.20
172.11
179.40
187.91
196.94
205.47
212.23
215.74
214.31
206.38
191.03
168.60
140.79
110.13
79.00
48.63
18.91
-10.95
-41.43
-71.85
-100.56
-126.13
-148.84
-171.31
-197.57
-230.91
-271.22
-313.81
-350.21
-370.94
-368.75
-340.78
-289.00
-219.18
-139.27
-58.02
15.86
74.50
111.81
124.61
113.46
82.48
38.18
-12.36
-63.20
-110.11
-150.62
-183.66
-209.47
-229.76
-247.83
-268.20
-295.22
-331.09
-374.33
-419.44
-458.33
-483.24
-489.57
-477.33
-451.28
-419.09
-388.61
-365.33
-350.84
-342.64
-335.44
-323.33
-301.90
-269.93
-229.58
-185.25
-141.62
-101.96
-67.44
-37.87
-13.06
6.75
20.84
29.26
33.91
38.62
48.27
67.23
98.10
141.03
194.55
254.91
316.46
372.34
416.27
444.64
457.56
458.37
451.68
443.06
435.52
428.99
421.09
409.33
393.07
373.56
352.77
331.96
313.91
300.21
291.20
285.52
280.97
275.91
269.36
260.60
249.04
237.85
230.60
230.58
239.27
256.78
283.36
318.90
361.94
386.48
372.07
310.12
208.85
85.60
-43.14
-164.53
-268.87
-349.30
-402.75
-427.55
-430.34
-419.41
-404.60
-395.05
-395.01
-403.29
-415.04
-424.77
-426.07
-415.56
-393.58
-360.66
-322.40
-285.47
-255.74
-237.31
-231.69
-235.08
-239.72
-235.78
-215.27
-175.42
-119.01
-53.88
9.08
59.58
92.24
107.88
112.52
113.95
118.83
131.95
155.37
187.95
225.20
260.25
285.59
294.61
283.35
252.08
206.38
155.23
107.40
68.22
38.74
18.67
7.93
6.95
15.63
31.95
51.15
66.62
72.70
60.86
30.94
-7.81
-41.73
-61.83
-68.36
-68.08
-68.28
-72.59
-77.76
-79.79
-75.67
-65.29
-51.42
-37.89
-27.40
-20.45
-15.21
-11.79
-7.82
-1.06
8.90
20.40
30.77
37.94
41.30
41.71
40.68
40.26
41.69
44.81
48.41
51.17
52.44
52.30
51.13
49.14
46.73
44.09
41.11
37.57
33.32
28.50
23.43
18.36
13.31
8.27
2.93
-3.14
-10.29
-18.52
-27.39
-36.24
-44.41
-51.58
-57.35
-61.09
-61.92
-59.09
-52.38
-42.25
-29.76
-16.12
-2.67
9.65
20.29
29.21
36.96
44.86
55.04
70.04
91.94
120.66
153.96
188.00
218.41
241.43
254.70
257.62
251.17
237.41
217.41
192.86
166.75
143.30
126.40
117.80
116.37
118.58
119.94
113.56
95.22
65.53
29.78
-5.21
-34.46
-56.27
-71.82
-83.95
-100.82
-128.91
-169.61
-218.47
-268.31
-313.35
-350.66
-380.07
-403.23
-429.22
-466.10
-516.97
-579.17
-647.67
-718.44
-788.31
-852.98
-864.68
-790.54
-630.00
-419.07
-205.85
-24.96
109.73
200.32
257.42
293.69
312.75
315.08
302.37
280.31
256.81
238.27
227.86
225.54
229.28
231.38
225.39
209.87
189.05
169.71
156.91
153.02
157.60
168.83
181.48
191.67
198.79
205.11
213.65
224.81
235.79
241.79
238.26
221.12
189.33
145.48
94.58
42.99
-3.52
-40.60
-65.74
-78.85
-83.42
-85.65
-90.20
-102.09
-123.50
-153.05
-186.30
-217.47
-241.36
-254.57
-255.68
-244.22
-220.46
-184.64
-138.42
-85.62
-32.01
15.80
52.67
77.29
91.06
99.71
111.71
132.19
158.92
183.74
197.81
196.74
182.27
162.63
142.26
122.47
102.00
79.17
54.31
30.78
14.32
10.73
23.43
53.00
94.96
140.49
178.74
200.51
201.27
182.69
151.37
115.70
82.23
53.59
28.13
1.55
-30.03
-67.59
-108.08
-144.92
-170.03
-176.75
-162.41
-129.80
-86.48
-41.74
-3.03
26.41
47.13
61.11
69.11
69.74
60.82
41.76
15.33
-12.77
-36.17
-50.74
-56.15
-55.51
-53.75
-55.11
-61.61
-72.91
-87.10
-101.85
-115.24
-126.05
-133.42
-136.48
-133.82
-123.61
-104.54
-76.96
-43.56
-9.05
21.27
43.06
54.31
55.58
49.33
38.62
25.92
12.48
-1.66
-17.16
-34.69
-54.20
-74.55
-93.67
-109.04
-118.49
-121.05
-117.34
-109.37
-99.87
-91.31
-85.30
-82.26
-81.41
-80.92
-78.18
-70.51
-56.41
-37.17
-17.64
-5.16
-6.56
-24.32
-54.17
-85.76
-106.41
-106.25
-82.08
-38.01
16.96
72.95
122.44
161.41
188.66
204.38
209.23
204.24
191.32
173.34
153.59
134.72
117.63
101.13
82.56
59.13
29.60
-4.66
-39.77
-70.71
-93.39
-106.30
-110.98
-111.11
-110.79
-112.99
-118.74
-127.37
-137.27
-146.53
-153.35
-156.11
-153.50
-144.73
-129.94
-110.58
-89.22
-68.88
-52.02
-39.79
-31.75
-26.30
-21.43
-15.66
-8.63
-1.17
5.17
8.88
9.04
5.60
-0.76
-8.80
-17.33
-25.43
-32.41
-37.63
-40.26
-39.47
-34.80
-26.39
-14.50
0.29
17.23
35.35
53.55
70.78
86.13
98.84
108.70
117.02
125.36
134.39
142.93
148.31
147.91
140.63
127.25
110.84
96.80
89.80
91.47
99.31
108.14
113.02
111.68
104.78
96.16
92.69
100.82
124.38
163.32
214.43
272.93
333.38
389.07
419.70
408.00
349.14
256.93
155.96
66.98
-1.24
-47.24
-80.72
-108.16
-129.41
-141.47
-142.46
-134.82
-124.42
-117.94
-120.20
-133.27
-155.15
-180.31
-202.94
-219.29
-229.21
-235.43
-241.54
-250.13
-262.34
-276.79
-289.78
-297.01
-295.09
-283.18
-262.64
-236.49
-208.26
-181.31
-157.64
-137.54
-120.19
-104.39
-89.49
-75.71
-63.82
-54.53
-47.95
-42.98
-37.37
-28.44
-13.97
6.92
33.18
61.69
87.62
105.26
109.38
96.86
68.22
28.41
-13.83
-48.10
-65.40
-60.77
-34.49
8.44
60.27
112.78
159.04
194.32
216.30
224.88
222.01
211.26
197.15
184.14
175.66
173.36
177.07
185.04
194.51
202.26
205.09
200.61
187.84
167.71
142.97
117.44
94.74
77.06
64.45
54.82
44.66
30.22
8.68
-20.87
-57.06
-96.56
-134.90
-167.73
-191.89
-206.14
-211.02
-208.29
-199.83
-186.98
-170.23
-149.66
-125.60
-99.28
-72.85
-48.98
-29.97
-16.75
-8.45
-2.49
4.48
15.36
31.36
51.41
72.49
90.71
102.58
106.26
101.91
91.43
77.50
62.80
49.26
38.01
29.47
23.51
19.53
16.33
12.08
4.68
-7.44
-24.34
-43.92
-62.15
-74.32
-76.94
-69.29
-53.98
-36.00
-20.78
-12.02
-10.57
-14.52
-20.74
-26.50
-30.68
-33.74
-36.77
-40.34
-43.81
-45.49
-43.47
-36.61
-25.11
-10.48
5.02
19.04
29.62
35.46
36.14
32.16
25.12
17.53
12.37
12.25
18.64
31.28
48.24
66.49
82.77
94.53
100.47
100.82
96.97
90.97
84.82
79.85
76.39
73.76
70.64
65.58
57.49
45.96
31.49
15.38
-0.48
-14.14
-24.10
-29.82
-31.71
-31.00
-29.04
-26.84
-24.87
-23.29
-22.49
-23.37
-27.28
-35.29
-47.35
-61.84
-75.81
-85.96
-89.77
-86.21
-75.76
-59.83
-40.04
-17.69
6.22
30.55
53.64
73.44
88.34
97.94
103.43
107.23
111.96
119.35
129.46
140.59
150.29
156.45
158.27
156.15
151.36
145.50
140.37
137.81
139.12
144.84
154.55
166.60
178.07
185.48
186.11
179.13
165.65
147.35
125.95
103.19
80.91
60.60
43.25
29.11
17.57
6.99
-6.11
-25.97
-56.03
-97.86
-150.88
-212.10
-275.74
-332.84
-368.80
-372.12
-343.01
-293.85
-241.26
-197.76
-168.05
-150.14
-138.96
-130.02
-122.34
-117.37
-116.15
-117.57
-119.08
-118.26
-114.04
-106.88
-98.04
-89.19
-80.91
-71.83
-59.16
-40.31
-14.41
16.72
48.68
75.58
91.10
91.51
78.07
57.06
37.36
26.63
28.24
37.85
48.86
53.48
46.95
30.00
8.07
-12.00
-24.02
-27.37
-24.20
-17.04
-8.30
0.10
6.54
9.14
6.03
-5.31
-24.05
-45.60
-62.82
-69.36
-62.10
-41.94
-12.78
20.92
55.88
90.10
120.98
143.33
149.01
130.11
83.70
15.55
-59.78
-123.36
-158.73
-158.44
-126.55
-76.16
-23.13
20.40
49.45
65.60
73.41
76.72
76.50
71.29
59.59
42.17
22.88
7.03
-1.06
-0.14
7.98
19.28
29.52
35.97
38.37
38.50
38.89
41.33
46.05
52.35
59.00
64.96
69.67
72.95
74.55
73.64
68.71
55.51
32.21
0.88
-32.61
-61.43
-81.00
-90.32
-91.02
-85.87
-77.43
-67.29
-56.72
-47.05
-39.65
-35.33
-33.88
-34.06
-34.31
-33.41
-30.96
-27.88
-26.07
-27.56
-33.57
-43.85
-57.00
-70.94
-83.58
-93.41
-99.99
-103.99
-106.93
-110.69
-116.57
-124.30
-131.40
-133.08
-123.98
-100.85
-64.45
-19.94
24.91
62.78
89.71
103.32
105.40
100.37
92.92
86.40
82.33
80.99
82.13
85.36
90.05
95.51
100.76
104.82
107.02
107.48
106.90
106.21
106.08
106.53
107.36
107.87
107.15
104.40
99.30
92.09
83.50
74.31
64.86
55.08
44.40
32.29
19.00
5.92
-4.75
-10.89
-11.58
-7.61
-1.21
4.83
8.23
7.96
4.26
-1.82
-9.10
-16.68
-23.97
-30.48
-35.81
-39.70
-42.25
-43.98
-45.61
-47.66
-50.11
-52.37
-53.46
-52.45
-48.87
-42.87
-35.17
-26.83
-18.95
-12.40
-7.74
-5.09
-4.26
-4.82
-6.36
-8.64
-11.59
-15.25
-19.64
-24.59
-29.78
-34.77
-39.16
-42.66
-45.17
-46.77
-47.77
-48.68
-50.05
-52.34
-55.61
-59.36
-62.55
-63.82
-61.97
-56.30
-46.90
-34.67
-20.97
-7.32
5.02
15.33
23.41
29.53
34.14
37.76
40.75
43.31
45.42
46.91
47.49
46.80
44.59
40.79
35.69
29.97
24.59
20.51
18.49
18.83
21.31
25.21
29.51
33.07
34.89
34.35
31.38
26.47
20.64
15.08
10.82
8.40
7.65
7.78
7.60
5.96
2.11
-4.08
-12.12
-21.25
-30.73
-40.16
-49.49
-58.72
-67.57
-75.21
-80.34
-81.55
-77.85
-69.11
-56.17
-40.59
-24.20
-8.65
4.85
15.66
23.64
29.10
32.64
35.00
36.92
38.83
40.68
41.80
41.02
37.06
29.18
17.59
3.69
-10.23
-21.75
-29.14
-31.88
-30.73
-27.29
-23.32
-20.22
-18.72
-18.93
-20.53
-23.09
-26.03
-28.69
-30.39
-30.59
-28.99
-25.58
-20.48
-13.96
-6.55
1.04
7.81
12.60
14.33
12.32
6.66
-1.69
-11.15
-20.18
-27.52
-32.45
-34.84
-35.13
-34.13
-32.57
-30.93
-29.22
-27.78
-26.51
-24.92
-22.40
-18.81
-14.78
-11.32
-9.37
-9.22
-11.57
-15.88
-20.37
-22.84
-22.16
-18.93
-15.07
-12.65
-12.79
-17.08
-25.03
-34.07
-40.92
-43.89
-43.85
-43.55
-46.28
-54.93
-74.37
-107.60
-153.98
-208.56
-263.31
-309.16
-338.50
-347.78
-322.05
-260.71
-177.90
-94.98
-26.99
23.13
59.89
87.93
108.56
120.88
121.77
111.71
95.66
80.87
72.44
71.82
76.79
83.30
87.82
86.44
78.22
65.32
51.38
39.04
28.85
19.82
11.21
3.76
-2.51
-6.04
-4.78
2.50
15.34
31.54
48.30
63.40
75.97
85.63
92.90
98.57
102.93
105.39
104.77
100.27
92.56
84.04
77.40
74.75
76.55
81.38
86.75
90.37
91.06
89.07
85.45
81.14
76.58
71.55
65.82
59.41
52.84
46.97
42.74
40.69
40.76
42.54
45.64
50.21
56.26
63.15
69.39
73.27
73.55
70.30
65.03
60.14
58.34
60.60
65.76
71.37
75.50
77.78
79.41
82.10
87.00
94.77
104.12
112.09
114.82
108.73
91.58
63.08
25.29
-21.50
-71.16
-114.28
-142.52
-153.07
-149.63
-139.18
-128.07
-119.79
-114.95
-110.56
-103.63
-92.39
-76.75
-58.16
-39.36
-23.89
-15.03
-15.34
-24.46
-39.56
-56.07
-69.20
-75.41
-73.03
-62.55
-45.81
-25.43
-3.97
15.54
29.83
36.25
33.94
24.61
11.99
0.67
-5.97
-7.07
-4.74
-2.82
-4.66
-11.51
-22.10
-33.86
-43.38
-47.50
-44.05
-32.45
-14.54
5.26
20.08
22.48
7.01
-25.59
-67.50
-106.46
-130.69
-134.26
-119.01
-92.94
-62.48
-34.28
-11.53
6.36
20.47
31.21
36.85
36.09
30.09
23.16
20.21
24.39
34.94
47.09
54.67
53.02
41.42
23.18
4.10
-10.45
-17.17
-15.71
-8.55
0.50
8.08
12.96
16.33
20.83
28.59
40.31
54.88
69.92
83.13
93.21
99.87
103.07
101.95
94.64
79.33
55.72
25.84
-6.11
-35.21
-57.57
-71.72
-78.61
-80.60
-79.83
-77.43
-73.69
-68.72
-63.06
-57.69
-53.71
-51.86
-52.07
-53.37
-54.36
-53.99
-51.98
-48.85
-45.56
-42.90
-41.12
-39.41
-35.87
-28.17
-14.69
4.67
28.33
53.48
77.19
97.14
110.34
114.49
109.16
96.04
77.84
56.95
35.01
14.05
-5.35
-22.51
-36.62
-47.35
-55.18
-61.17
-65.48
-68.03
-68.16
-64.93
-57.00
-42.94
-21.82
6.16
39.17
73.78
105.65
130.92
147.23
154.44
154.28
149.35
142.15
134.44
127.18
120.48
113.81
106.04
95.78
81.84
63.74
42.01
18.08
-6.17
-29.02
-49.14
-65.58
-77.56
-84.64
-86.88
-85.17
-81.16
-76.79
-73.58
-72.25
-72.75
-74.51
-77.00
-79.98
-83.54
-87.86
-93.06
-98.97
-105.13
-110.87
-115.62
-118.95
-120.62
-120.42
-118.01
-112.93
-104.86
-93.83
-80.36
-65.51
-50.50
-36.26
-23.12
-10.70
1.67
14.52
27.97
41.64
54.50
65.61
74.48
81.24
86.77
91.76
96.52
100.93
104.53
106.33
105.59
102.25
96.92
91.15
85.84
81.24
77.05
72.67
66.79
58.52
47.72
34.95
21.57
7.69
-7.77
-26.31
-49.23
-77.85
-112.04
-149.86
-187.82
-221.09
-246.31
-262.12
-268.71
-261.42
-238.02
-199.93
-153.06
-111.03
-76.92
-47.18
-15.29
26.58
82.48
150.52
223.70
292.44
347.85
385.38
405.17
410.81
407.48
399.39
388.03
372.91
353.38
328.93
294.07
245.16
181.17
105.43
26.22
-53.83
-134.65
-216.32
-294.55
-364.31
-421.02
-462.05
-486.93
-497.36
-486.62
-452.25
-396.41
-326.12
-251.03
-179.05
-114.92
-60.23
-15.09
20.72
46.74
63.35
72.14
75.54
76.88
79.03
83.60
90.58
98.75
105.61
109.32
109.32
106.23
101.81
97.91
95.65
95.03
95.02
93.58
89.11
81.15
70.14
57.61
45.30
34.48
25.45
17.47
8.97
-1.41
-14.14
-28.53
-42.85
-55.22
-64.29
-69.94
-73.60
-77.95
-85.67
-98.15
-114.51
-131.47
-144.36
-148.32
-140.16
-119.98
-91.63
-62.03
-39.52
-31.60
-42.73
-72.93
-117.12
-165.38
-205.61
-227.47
-225.81
-202.19
-163.62
-119.33
-77.17
-41.25
-11.93
12.77
35.24
57.14
79.14
101.25
123.09
143.62
160.95
172.52
175.73
168.99
152.34
127.48
97.39
65.42
34.56
7.02
-15.98
-34.25
-48.40
-59.45
-68.29
-75.02
-78.72
-77.51
-68.95
-50.67
-21.01
19.99
69.82
123.20
172.97
211.91
235.08
241.51
234.35
219.24
201.90
185.93
172.16
159.66
147.31
135.14
124.42
116.47
111.43
107.69
102.53
93.55
80.05
63.37
46.27
31.68
21.21
14.69
10.53
6.75
2.09
-3.60
-9.55
-14.67
-18.14
-19.73
-19.71
-18.61
-16.93
-15.07
-13.33
-12.06
-11.68
-12.65
-15.33
-19.95
-26.51
-34.83
-44.55
-55.05
-65.25
-73.60
-78.39
-78.62
-74.99
-70.56
-70.32
-79.54
-101.65
-136.33
-179.10
-222.34
-257.30
-276.55
-275.55
-253.10
-210.96
-153.12
-85.29
-14.42
52.00
106.86
144.48
161.51
157.24
133.62
94.82
46.52
-5.04
-54.34
-97.52
-132.81
-160.05
-179.67
-192.28
-198.95
-202.36
-207.41
-220.03
-244.27
-279.20
-317.52
-347.85
-359.50
-347.37
-314.15
-268.46
-220.29
-176.39
-138.12
-102.58
-65.87
-26.22
14.70
52.59
82.65
101.76
109.65
108.82
103.46
97.95
95.19
96.21
100.33
106.29
113.30
121.47
131.52
143.88
157.96
172.04
183.91
191.88
195.39
195.32
193.38
191.29
189.99
189.21
187.75
184.04
176.84
165.72
151.11
133.90
115.02
95.04
74.09
52.08
29.17
5.99
-16.29
-36.18
-52.17
-63.02
-67.91
-66.47
-58.91
-46.15
-29.97
-12.93
2.07
12.55
17.15
16.08
10.86
3.78
-3.02
-8.01
-10.66
-11.28
-10.87
-10.74
-12.21
-16.24
-23.02
-31.88
-41.32
-49.41
-54.28
-54.67
-50.10
-40.91
-28.09
-12.97
2.99
18.56
32.97
46.13
58.60
71.32
85.03
99.95
115.51
130.65
144.24
155.64
165.07
173.63
182.93
194.56
209.52
227.80
248.40
269.63
289.70
307.41
322.52
335.73
348.39
361.89
377.11
394.02
411.37
426.71
436.78
438.24
428.65
407.20
374.68
332.83
283.60
228.50
168.46
104.37
37.37
-30.84
-98.13
-162.85
-224.60
-284.39
-344.25
-406.30
-471.71
-539.70
-606.78
-666.27
-709.74
-729.11
-719.22
-679.57
-614.62
-532.45
-442.38
-352.60
-267.46
-188.90
-117.59
-54.04
1.44
49.25
90.64
127.06
159.05
188.06
213.65
234.23
247.92
254.19
254.78
252.92
251.49
251.77
256.95
268.15
284.46
303.14
321.07
336.36
348.72
358.64
366.72
378.17
396.86
423.80
456.02
487.98
514.85
534.68
548.93
531.16
468.62
364.43
237.31
108.95
-7.87
-108.76
-192.10
-255.87
-298.55
-315.48
-309.93
-288.59
-260.40
-235.34
-219.56
-214.37
-217.85
-227.45
-238.31
-245.70
-248.33
-248.29
-252.00
-264.32
-286.14
-314.55
-345.28
-372.57
-393.13
-406.36
-414.15
-423.31
-439.63
-465.82
-501.25
-543.37
-587.32
-626.76
-653.79
-636.53
-557.85
-424.31
-265.81
-118.41
-5.89
66.99
109.55
136.54
159.66
179.85
193.02
195.92
190.02
180.55
172.37
166.51
159.88
147.48
123.57
88.84
51.42
23.09
12.59
20.91
40.58
63.66
84.01
98.02
106.23
111.20
114.55
115.33
110.75
98.33
79.68
59.71
43.41
34.01
31.49
33.29
35.86
36.74
35.51
33.78
33.37
34.84
37.42
39.47
39.50
37.01
32.69
28.02
24.84
24.13
25.86
29.11
32.54
35.07
36.20
36.22
35.92
36.20
37.42
39.30
41.08
41.85
40.95
38.01
33.16
26.87
19.82
12.44
5.18
-1.56
-7.35
-11.74
-14.47
-15.49
-14.97
-13.29
-11.09
-8.63
-5.81
-2.25
2.37
7.93
13.84
19.18
23.12
24.74
24.23
22.70
21.66
22.22
24.37
26.93
27.96
25.70
18.36
6.04
-9.38
-25.41
-39.77
-51.65
-61.83
-72.25
-85.01
-103.12
-127.91
-158.65
-192.33
-223.91
-247.59
-258.70
-256.38
-236.14
-203.85
-170.56
-147.65
-141.43
-149.74
-162.55
-166.50
-151.04
-112.99
-58.45
2.11
58.77
105.65
141.50
167.91
186.93
200.09
208.54
213.07
215.25
216.32
215.57
210.01
195.80
170.46
134.31
90.39
42.30
-6.78
-55.14
-102.40
-148.44
-192.33
-231.88
-263.96
-285.14
-292.77
-285.52
-264.11
-231.70
-193.43
-154.74
-119.81
-90.27
-65.09
-41.80
-17.71
8.83
37.75
67.30
94.74
117.15
132.78
141.40
143.78
141.10
134.21
123.71
110.69
97.48
87.63
85.00
91.84
107.06
126.62
145.33
159.39
167.95
173.11
178.48
187.41
201.62
219.98
239.82
258.28
273.37
283.87
289.33
289.98
286.81
281.23
272.59
259.53
241.23
218.50
193.27
167.59
142.74
119.05
96.04
69.94
37.35
-2.22
-45.11
-85.92
-120.44
-147.39
-168.30
-186.20
-208.42
-241.95
-290.56
-353.04
-425.22
-501.86
-577.01
-643.60
-674.69
-650.55
-571.92
-463.03
-354.00
-264.66
-200.15
-155.79
-125.31
-99.70
-77.74
-61.16
-50.14
-39.12
-20.91
9.81
52.88
104.45
159.47
210.02
249.97
277.12
296.07
312.83
331.22
351.38
371.09
387.81
397.54
397.51
373.21
320.47
244.96
159.33
76.08
2.66
-58.45
-109.06
-151.77
-188.49
-217.51
-237.15
-247.33
-250.12
-248.61
-245.17
-242.51
-241.29
-241.39
-240.44
-236.60
-229.45
-220.15
-210.50
-201.47
-193.41
-185.81
-177.83
-167.31
-152.43
-132.17
-106.19
-77.85
-49.51
-22.96
0.55
20.20
36.19
48.95
59.11
67.57
75.52
84.79
96.52
110.59
125.39
138.68
148.46
153.59
154.04
150.24
142.97
132.59
119.34
103.90
87.72
72.70
60.25
50.63
42.90
35.98
29.30
23.35
19.17
17.44
17.86
19.10
19.63
18.62
16.63
15.36
16.89
22.68
32.87
46.13
59.95
71.29
77.32
76.28
68.01
54.00
37.03
20.27
6.50
-2.46
-5.85
-3.77
3.03
13.38
25.51
37.39
47.17
53.88
57.78
60.25
62.86
66.25
69.68
71.52
70.53
66.86
62.08
58.10
55.75
53.80
49.33
39.52
23.50
3.47
-16.07
-30.48
-37.28
-37.00
-33.02
-29.70
-30.37
-36.02
-45.46
-56.53
-67.47
-77.56
-85.95
-91.87
-94.23
-91.64
-82.90
-67.69
-46.98
-23.03
1.17
24.69
47.27
69.21
90.94
112.81
135.00
157.23
178.38
196.70
213.27
229.42
246.44
265.10
285.53
307.33
329.71
351.47
371.18
391.10
412.72
435.63
457.12
473.37
481.36
480.03
470.31
430.84
350.85
231.95
89.88
-52.24
-174.52
-266.72
-328.35
-365.30
-386.35
-396.11
-397.47
-392.22
-382.18
-369.05
-353.30
-333.75
-308.20
-275.98
-237.19
-196.52
-161.97
-141.37
-137.94
-146.62
-158.95
-165.03
-158.36
-136.86
-104.65
-69.43
-39.01
-18.06
-7.08
-3.71
-4.48
-7.00
-9.62
-12.15
-14.64
-16.87
-18.26
-18.40
-17.89
-18.08
-20.87
-27.55
-38.49
-51.58
-64.07
-73.28
-77.60
-77.01
-72.72
-66.67
-60.89
-56.80
-54.71
-54.11
-53.80
-52.64
-50.03
-46.10
-41.71
-38.09
-36.34
-36.96
-39.76
-43.86
-48.27
-51.94
-53.54
-51.45
-44.24
-31.64
-15.29
1.12
13.01
16.43
9.98
-4.04
-20.23
-32.08
-34.49
-25.29
-5.36
22.09
52.30
80.23
101.80
114.50
117.73
112.72
102.12
87.81
72.75
58.87
45.76
31.61
15.57
-0.65
-13.51
-20.68
-20.71
-13.60
-1.14
13.63
27.22
36.10
37.26
28.42
9.33
-15.68
-38.42
-50.50
-47.07
-28.60
0.20
33.11
63.66
85.78
96.46
94.44
80.91
60.13
39.15
26.16
28.48
51.67
93.09
141.27
179.34
192.09
172.47
123.98
58.52
-7.94
-62.50
-99.00
-117.68
-122.92
-119.95
-112.35
-102.18
-94.06
-86.64
-79.23
-72.01
-65.00
-57.47
-47.99
-35.18
-19.74
-3.77
11.36
24.32
34.18
40.38
42.38
39.45
30.41
14.68
-9.18
-40.49
-77.23
-116.70
-156.80
-196.67
-236.47
-276.71
-320.78
-371.79
-429.86
-491.74
-550.64
-597.27
-621.26
-613.58
-552.55
-432.50
-267.71
-87.98
75.34
203.05
291.55
347.51
380.22
397.36
400.60
390.25
368.70
341.30
314.69
293.87
280.92
274.72
272.91
270.51
263.60
251.14
235.03
218.72
204.93
197.46
194.64
195.21
197.29
199.96
203.07
205.99
206.31
199.10
179.61
145.82
101.47
54.24
13.56
-13.17
-23.50
-20.56
-12.13
-6.35
-9.03
-21.07
-39.56
-58.97
-73.02
-76.44
-61.54
-25.99
27.01
88.75
147.09
189.43
206.40
194.73
158.08
105.66
48.72
-2.02
-39.20
-60.19
-67.42
-67.10
-66.95
-73.46
-89.53
-114.15
-142.70
-169.80
-192.44
-211.69
-231.71
-256.72
-288.08
-323.08
-356.78
-384.66
-405.41
-421.43
-437.06
-455.40
-475.79
-493.45
-501.48
-494.03
-468.23
-424.92
-368.07
-303.62
-238.79
-181.71
-140.84
-123.23
-132.10
-164.47
-210.59
-256.22
-287.11
-293.85
-274.75
-235.44
-185.73
-135.46
-91.39
-56.28
-29.88
-10.68
2.90
12.25
18.98
25.16
33.09
44.37
59.18
76.14
92.93
107.18
117.54
124.22
128.65
132.91
138.88
147.56
158.88
171.96
185.64
199.20
212.84
227.46
243.97
262.31
280.81
296.40
305.59
305.86
296.79
280.19
259.29
237.36
216.82
198.59
182.51
168.12
155.37
144.76
136.87
131.91
129.35
128.19
127.18
125.23
121.74
116.76
110.88
104.85
99.37
94.70
91.15
88.64
86.79
85.13
83.33
81.42
79.55
78.06
77.16
78.12
81.70
87.78
95.38
103.30
110.77
117.31
123.31
129.09
137.32
149.64
165.83
183.78
200.87
215.34
226.04
233.74
239.31
247.48
261.40
281.10
303.30
323.57
338.86
347.40
351.25
353.21
361.26
380.61
411.09
446.78
479.12
501.17
508.40
502.51
453.07
347.13
193.81
22.41
-135.22
-260.79
-342.69
-394.93
-428.84
-451.33
-460.80
-455.73
-437.47
-410.55
-381.32
-355.36
-337.91
-330.33
-333.14
-342.14
-353.61
-366.04
-380.53
-398.77
-420.60
-444.39
-465.01
-477.52
-476.18
-458.60
-426.64
-385.67
-341.55
-298.39
-258.48
-221.28
-186.09
-151.61
-117.83
-86.02
-58.24
-35.39
-17.01
-2.18
10.46
21.41
30.80
38.19
42.72
43.55
41.47
38.01
34.50
31.64
29.49
28.11
28.08
30.42
36.27
48.20
68.35
97.48
134.35
176.21
219.99
262.92
302.82
328.01
329.16
303.53
257.45
201.98
146.59
96.33
52.68
15.34
-16.49
-41.72
-59.00
-67.85
-69.63
-67.36
-64.77
-65.24
-70.91
-82.61
-98.15
-113.88
-126.10
-132.56
-132.89
-128.18
-120.21
-110.81
-101.49
-92.49
-83.62
-74.87
-66.88
-60.59
-56.53
-54.97
-55.39
-56.89
-58.28
-58.76
-58.22
-57.20
-56.46
-56.29
-56.27
-55.35
-52.40
-46.56
-37.76
-26.75
-14.94
-3.77
5.74
13.25
19.06
23.77
27.90
31.72
35.28
38.46
41.19
43.39
45.08
46.22
46.73
46.51
45.55
44.01
42.17
40.31
38.66
37.23
35.96
34.78
33.67
32.68
31.80
30.88
29.66
27.83
25.24
21.96
18.24
14.40
10.70
7.36
4.66
2.94
2.57
3.71
6.24
9.68
13.26
16.20
17.87
17.99
16.62
14.13
11.11
8.35
6.64
6.62
8.58
12.31
17.30
22.89
28.44
33.53
38.02
42.02
45.73
49.32
52.83
56.40
59.96
63.10
65.21
65.72
64.43
61.64
58.07
54.52
52.20
51.80
53.14
55.16
56.58
56.53
54.94
52.41
49.89
49.04
50.89
55.27
60.84
65.75
68.51
68.33
65.26
60.17
56.02
56.33
63.74
78.59
98.25
117.54
130.10
130.52
108.99
63.11
-0.35
-67.57
-124.70
-164.53
-187.75
-199.61
-205.50
-208.81
-209.63
-206.99
-200.81
-192.62
-184.96
-180.15
-179.52
-183.23
-190.70
-200.66
-212.22
-224.79
-237.38
-247.50
-251.06
-243.71
-222.53
-188.40
-145.53
-100.13
-58.10
-23.02
4.69
27.40
44.56
57.33
67.14
75.87
85.99
100.36
121.68
151.84
191.32
238.78
291.33
343.99
390.54
425.00
443.25
444.27
430.26
405.56
374.86
342.20
309.90
279.11
250.80
226.50
207.96
196.35
191.24
190.58
191.66
191.98
190.35
187.23
184.59
184.87
190.14
201.26
217.62
237.26
257.14
273.89
284.62
287.71
283.20
272.53
257.83
241.03
223.22
204.50
184.41
162.57
138.96
114.03
88.30
62.06
35.28
7.82
-20.13
-47.79
-73.88
-97.02
-116.04
-130.48
-140.50
-146.78
-150.29
-151.91
-152.26
-151.69
-150.42
-148.67
-146.80
-145.30
-144.64
-145.22
-147.18
-150.50
-154.98
-160.31
-166.14
-172.17
-178.18
-183.83
-188.85
-192.93
-195.78
-197.08
-196.46
-193.52
-188.09
-180.29
-170.85
-161.10
-152.31
-145.15
-139.15
-132.72
-123.95
-111.53
-95.27
-76.06
-55.19
-33.78
-12.78
6.59
22.43
32.30
34.22
27.84
15.01
-0.84
-15.97
-27.65
-34.53
-36.16
-32.15
-21.78
-4.47
19.42
47.88
77.22
102.85
120.44
126.92
120.92
102.87
74.70
39.22
-0.50
-41.74
-82.76
-123.06
-163.34
-204.95
-248.89
-294.87
-340.62
-381.99
-413.82
-431.34
-431.60
-414.26
-381.72
-338.36
-289.52
-240.60
-196.39
-160.62
-135.61
-121.89
-118.02
-121.00
-127.17
-133.26
-137.15
-137.92
-135.46
-130.05
-122.01
-111.70
-99.72
-86.78
-73.45
-59.77
-45.09
-28.42
-9.22
11.93
33.09
51.43
64.38
70.54
70.27
65.30
57.90
49.84
41.90
34.02
25.86
17.47
9.51
3.04
-1.06
-2.63
-2.36
-1.52
-1.42
-2.94
-6.25
-10.91
-16.13
-21.11
-25.27
-28.41
-30.70
-32.67
-34.93
-38.00
-42.09
-47.16
-52.94
-59.16
-65.54
-71.87
-77.86
-83.14
-87.28
-89.93
-91.05
-90.89
-89.84
-88.02
-84.69
-77.98
-65.08
-43.23
-10.95
30.84
78.75
127.77
173.05
211.34
241.80
265.52
284.42
299.87
311.79
318.47
317.12
305.10
281.16
246.67
205.80
164.72
129.68
104.85
90.83
84.81
82.36
79.66
75.10
69.20
63.15
57.21
50.02
39.37
23.84
4.08
-17.17
-36.48
-51.56
-62.52
-71.72
-82.61
-98.13
-119.78
-147.58
-180.66
-217.99
-258.59
-301.30
-344.52
-386.03
-423.54
-455.35
-480.96
-500.88
-515.81
-525.48
-528.13
-521.00
-501.83
-470.49
-429.96
-385.82
-344.43
-310.68
-286.39
-270.17
-258.69
-248.35
-236.62
-222.24
-204.49
-182.53
-155.18
-121.69
-82.64
-40.29
2.01
41.29
76.29
107.88
138.11
168.51
198.72
226.33
248.10
261.70
266.91
265.51
260.06
252.51
243.67
233.65
222.89
212.79
205.39
202.27
203.43
206.87
209.22
207.11
198.51
183.48
164.00
143.04
123.35
106.53
92.63
80.47
68.47
55.47
41.32
26.79
13.05
0.97
-9.22
-17.84
-25.27
-31.34
-35.15
-35.40
-31.08
-22.14
-9.83
3.64
15.72
24.42
28.84
29.37
27.31
24.30
21.76
20.52
20.87
22.88
26.71
32.74
41.45
53.11
67.44
83.42
99.52
114.00
125.38
132.80
136.18
136.07
133.51
129.68
125.66
122.19
119.57
117.67
116.04
114.20
111.89
109.08
106.02
103.02
100.27
97.79
95.47
93.20
90.96
88.77
86.67
84.59
82.38
79.94
77.27
74.53
71.91
69.50
67.16
64.45
60.79
55.61
48.68
40.16
30.64
20.92
11.70
3.30
-4.45
-12.07
-20.12
-28.96
-38.58
-48.71
-58.97
-68.95
-78.22
-86.18
-92.05
-94.97
-94.31
-89.94
-82.29
-72.18
-60.49
-47.85
-34.48
-20.41
-5.74
9.26
24.11
38.27
51.31
62.82
72.45
79.83
84.58
86.56
86.01
83.58
80.19
76.72
73.72
71.31
69.22
67.11
64.74
62.15
59.59
57.40
55.88
55.21
55.44
56.55
58.42
60.90
63.79
66.74
69.28
70.84
70.88
69.02
65.23
59.80
53.32
46.37
39.41
32.56
25.68
18.61
11.30
3.93
-3.19
-9.81
-15.90
-21.72
-27.63
-34.03
-41.05
-48.49
-55.80
-62.26
-67.12
-69.81
-70.16
-68.35
-64.89
-60.31
-54.98
-48.92
-41.79
-33.09
-22.28
-9.09
6.25
22.97
40.14
56.77
71.94
84.97
95.45
103.33
108.70
111.62
112.01
109.99
105.79
99.78
92.40
84.07
75.37
66.77
58.51
50.56
43.20
36.93
32.26
29.44
28.36
29.18
31.57
34.61
36.57
36.85
35.68
33.81
31.90
30.39
30.75
33.71
38.86
43.81
47.83
51.23
55.02
59.87
66.07
75.53
88.98
105.27
120.02
131.63
140.37
147.90
155.84
165.82
182.08
207.25
240.63
275.62
307.10
331.07
345.44
349.91
329.50
280.80
213.41
160.14
127.44
111.82
103.70
98.26
92.65
85.49
78.79
73.74
69.41
60.83
46.69
28.14
7.97
-11.40
-28.17
-39.31
-43.58
-42.41
-41.22
-43.38
-50.63
-63.21
-80.88
-102.68
-125.74
-147.52
-166.83
-185.28
-203.65
-222.36
-241.22
-260.02
-278.19
-294.62
-308.68
-321.05
-334.22
-350.36
-371.24
-398.19
-432.50
-474.97
-524.94
-579.42
-632.34
-675.64
-700.79
-702.16
-679.43
-638.13
-587.40
-536.65
-492.49
-457.32
-430.38
-409.31
-392.16
-377.91
-366.04
-355.54
-344.55
-331.11
-313.56
-291.75
-265.85
-237.17
-207.47
-178.56
-151.72
-127.43
-106.15
-87.32
-70.67
-53.91
-34.58
-10.68
18.87
54.34
95.70
141.16
189.93
239.90
291.41
344.40
397.76
448.90
494.54
532.39
559.48
577.12
587.21
596.15
610.26
633.87
667.92
710.77
760.89
815.25
875.67
912.70
900.11
823.78
690.87
523.21
343.94
188.11
56.30
-51.36
-133.84
-186.76
-208.95
-205.60
-186.72
-165.26
-151.37
-152.52
-166.36
-186.79
-203.70
-208.81
-198.35
-174.49
-142.99
-108.92
-78.02
-51.27
-28.43
-6.57
17.79
47.89
84.81
123.76
158.47
179.79
180.73
156.36
106.55
36.61
-42.77
-120.34
-188.97
-243.01
-281.24
-305.56
-320.77
-332.65
-346.98
-361.34
-375.95
-390.12
-400.41
-402.04
-389.85
-360.75
-315.58
-259.13
-198.89
-143.61
-99.20
-66.89
-44.26
-26.92
-10.41
8.38
30.56
55.36
79.86
101.12
117.35
128.14
134.71
139.61
146.51
159.41
181.70
214.48
256.08
301.53
342.61
369.54
373.79
350.99
302.59
235.63
160.08
85.63
18.79
-38.37
-87.47
-131.83
-174.37
-216.88
-260.58
-306.76
-356.51
-409.63
-463.46
-512.83
-551.41
-574.04
-578.67
-566.79
-542.08
-508.43
-468.54
-423.94
-375.94
-326.60
-278.87
-235.70
-198.84
-168.06
-141.46
-116.38
-90.55
-62.77
-32.92
-1.63
30.16
61.79
93.38
125.47
158.86
194.26
231.96
271.85
313.32
355.05
394.78
429.29
455.00
469.27
471.63
464.12
450.45
434.35
417.98
401.42
383.33
362.35
338.24
312.05
285.33
258.94
232.24
203.18
169.25
128.72
81.79
31.07
-18.58
-61.17
-91.12
-104.98
-102.55
-86.88
-63.17
-37.00
-12.79
6.92
21.23
30.08
33.48
31.35
23.73
11.37
-4.26
-21.21
-37.77
-53.09
-67.24
-80.80
-94.10
-106.75
-117.41
-124.26
-125.54
-120.13
-107.84
-89.43
-66.31
-40.35
-13.51
12.31
35.48
54.80
69.56
79.62
85.31
87.30
86.35
83.19
78.36
72.26
65.23
57.64
49.88
42.39
35.44
29.13
23.41
18.16
13.32
8.96
5.24
2.31
0.13
-1.48
-2.89
-4.37
-6.06
-7.87
-9.49
-10.61
-11.04
-10.80
-10.06
-9.07
-7.96
-6.71
-5.26
-3.54
-1.63
0.30
2.07
3.69
5.36
7.52
10.59
14.80
20.06
25.92
31.72
36.79
40.67
43.16
44.39
44.64
44.31
43.69
42.90
41.84
40.22
37.71
34.06
29.32
23.87
18.41
13.71
10.47
9.10
9.71
12.09
15.90
20.66
25.81
30.82
35.15
38.50
40.81
42.33
43.40
44.35
45.26
45.97
46.25
45.95
45.17
44.31
43.91
44.41
45.89
48.00
49.91
50.58
48.94
44.23
36.23
25.39
12.79
-0.14
-12.00
-21.73
-28.82
-33.27
-35.35
-35.40
-33.72
-30.64
-26.60
-22.29
-18.53
-16.05
-15.23
-15.97
-17.64
-19.34
-20.23
-19.88
-18.61
-17.56
-18.47
-23.07
-32.34
-45.86
-61.66
-76.57
-87.08
-90.42
-85.28
-72.19
-53.27
-31.56
-10.33
7.68
20.67
27.86
29.53
26.67
20.69
13.07
5.05
-2.45
-8.98
-14.41
-18.77
-22.09
-24.32
-25.27
-24.74
-22.65
-19.17
-14.66
-9.65
-4.72
-0.41
2.94
5.17
6.34
6.67
6.48
6.02
5.51
5.03
4.58
4.11
3.56
2.83
1.74
0.02
-2.58
-6.13
-10.34
-14.58
-18.08
-20.21
-20.77
-19.99
-18.42
-16.66
-15.16
-14.02
-13.15
-12.33
-11.37
-10.19
-8.78
-7.16
-5.36
-3.33
-0.91
2.09
5.86
10.42
15.55
20.80
25.53
29.23
31.59
32.62
32.52
31.57
30.00
27.91
25.38
22.48
19.45
16.61
14.28
12.65
11.64
10.98
10.17
8.72
6.23
2.53
-2.35
-8.23
-14.92
-22.20
-29.78
-37.24
-44.09
-50.02
-55.07
-59.77
-64.81
-70.63
-77.02
-83.10
-87.66
-89.77
-89.26
-86.72
-83.09
-79.05
-74.64
-69.36
-62.56
-53.94
-43.77
-32.77
-21.86
-11.75
-2.77
5.03
11.81
17.67
22.65
26.71
29.85
32.22
34.13
35.98
38.10
40.63
43.43
46.20
48.53
50.10
50.73
50.47
49.53
48.20
46.79
45.51
44.42
43.46
42.50
41.44
40.40
39.64
39.56
40.53
42.77
46.25
50.78
56.09
61.68
66.82
70.65
72.35
71.79
70.14
69.95
74.35
85.74
104.42
128.21
153.32
175.99
193.97
206.93
215.59
220.51
221.20
216.34
204.79
186.54
162.81
135.27
105.07
72.69
38.80
5.47
-23.44
-43.17
-50.11
-43.63
-26.70
-5.06
15.15
29.70
37.33
39.21
37.56
34.43
31.07
28.00
25.44
23.87
24.06
26.76
32.13
39.53
47.71
55.47
62.14
67.41
71.84
76.60
82.83
90.82
99.39
106.29
109.46
107.86
100.74
89.26
76.29
65.52
59.85
59.92
64.25
70.60
76.07
75.01
63.09
38.85
4.23
-36.59
-79.63
-121.91
-160.66
-194.87
-229.20
-267.85
-311.94
-358.42
-401.64
-437.71
-465.66
-485.97
-502.26
-524.99
-562.87
-618.91
-688.63
-761.95
-829.87
-886.58
-928.49
-911.48
-807.14
-616.19
-373.52
-126.77
91.30
267.75
394.09
486.27
555.58
601.48
620.58
612.35
581.77
540.98
498.82
459.80
424.60
389.49
352.11
312.46
273.68
226.32
171.95
113.11
59.66
15.21
-21.30
-54.98
-91.06
-132.32
-178.23
-223.36
-262.71
-291.90
-308.66
-311.71
-301.60
-280.59
-252.32
-221.14
-189.22
-158.30
-129.44
-105.12
-86.79
-74.67
-67.61
-63.45
-59.93
-54.09
-44.07
-30.37
-17.98
-12.13
-16.21
-30.83
-54.13
-83.00
-113.15
-139.73
-141.65
-105.84
-32.43
63.54
161.67
247.32
314.82
361.61
395.04
419.59
434.03
436.18
425.51
404.25
377.46
349.85
324.57
303.30
284.82
264.94
240.02
208.82
173.13
136.51
101.74
69.74
39.63
8.23
-28.94
-74.99
-130.75
-195.01
-265.74
-340.88
-417.70
-491.15
-554.25
-599.22
-619.26
-610.98
-575.37
-517.00
-441.94
-355.69
-262.68
-167.79
-77.71
-0.61
55.87
87.79
96.61
88.55
71.61
51.78
30.51
4.69
-30.96
-80.09
-141.62
-208.83
-271.12
-317.64
-341.28
-340.97
-321.49
-290.94
-257.16
-224.99
-195.72
-168.48
-142.37
-117.96
-97.14
-81.83
-72.48
-67.56
-64.31
-60.23
-54.32
-47.41
-41.80
-39.91
-43.19
-51.65
-63.94
-78.12
-92.55
-106.57
-120.42
-134.84
-150.27
-166.28
-181.45
-193.56
-200.34
-199.98
-191.66
-175.60
-152.83
-124.78
-92.95
-58.75
-23.49
11.59
45.17
75.90
102.50
123.97
139.77
149.86
154.72
155.18
152.28
147.07
140.56
133.55
126.68
120.44
115.16
111.09
108.37
107.08
107.20
108.65
111.22
114.64
118.51
122.34
125.67
128.11
129.43
129.65
129.01
127.98
127.14
127.12
128.48
131.64
136.87
144.23
153.64
164.95
177.94
192.35
207.93
224.34
241.13
257.82
273.98
289.50
304.82
321.03
339.58
361.73
387.77
416.62
445.79
471.89
491.33
501.12
499.46
486.05
462.18
430.60
395.20
360.50
330.87
309.75
298.93
298.33
306.13
319.51
335.39
351.16
364.84
375.09
380.90
381.44
376.14
364.90
348.48
328.29
306.11
283.37
260.65
237.74
214.03
189.20
163.57
138.07
113.77
91.30
70.59
50.95
31.61
12.19
-6.98
-25.08
-41.37
-55.77
-69.14
-82.98
-98.91
-117.99
-140.19
-164.29
-188.45
-211.05
-231.46
-250.29
-269.06
-289.43
-312.42
-338.01
-365.07
-391.63
-415.29
-433.65
-444.89
-448.48
-446.28
-442.55
-442.69
-450.37
-464.71
-479.13
-483.05
-465.98
-421.47
-350.71
-262.75
-171.77
-92.53
-36.36
-9.16
-11.15
-37.66
-79.12
-123.60
-159.50
-178.37
-176.58
-155.86
-122.23
-83.92
-48.85
-20.90
-1.09
10.97
15.79
14.25
8.40
1.48
-2.78
-1.41
9.31
31.20
63.51
103.15
146.34
190.18
232.77
272.49
293.28
282.90
239.53
174.26
103.01
37.50
-17.17
-60.52
-93.92
-119.09
-135.25
-141.98
-140.25
-133.40
-125.78
-120.80
-120.32
-124.61
-132.61
-140.86
-146.31
-147.02
-143.25
-136.90
-129.18
-120.52
-110.46
-97.97
-80.85
-57.93
-28.99
4.69
39.91
74.37
106.10
132.56
150.21
158.68
154.89
138.19
111.06
78.83
47.84
23.04
6.82
-0.87
-1.35
3.29
11.74
21.25
30.00
36.10
37.55
33.12
22.92
8.32
-8.82
-25.78
-40.01
-49.65
-54.14
-54.35
-51.71
-46.74
-39.53
-30.74
-21.97
-16.34
-17.59
-28.29
-48.16
-72.61
-92.82
-99.67
-88.12
-59.29
-19.53
22.20
59.85
89.59
109.86
120.58
122.26
115.77
102.54
84.97
66.20
49.47
36.97
29.42
26.07
24.89
23.71
20.87
15.81
9.10
1.97
-4.59
-10.18
-14.93
-19.42
-24.16
-29.27
-34.49
-39.56
-44.71
-50.59
-57.70
-65.86
-74.14
-81.30
-86.31
-89.08
-90.61
-92.62
-96.63
-102.86
-109.66
-113.92
-112.17
-101.60
-81.34
-52.62
-18.80
15.44
45.12
65.98
75.23
72.05
58.58
39.44
21.69
11.70
12.10
20.92
33.64
46.03
54.50
59.31
61.15
59.93
54.40
43.14
25.13
-0.15
-31.50
-67.40
-105.19
-141.17
-170.50
-188.45
-191.41
-178.34
-151.22
-114.32
-72.67
-30.06
11.31
51.26
86.62
113.06
127.08
128.03
118.24
101.85
83.49
66.51
52.47
41.09
31.56
23.18
15.83
9.60
4.29
-0.72
-6.55
-14.26
-24.28
-35.41
-45.65
-52.45
-54.09
-50.56
-43.38
-34.93
-27.39
-22.00
-18.59
-16.19
-13.81
-11.14
-8.63
-6.91
-6.41
-7.08
-8.49
-10.02
-11.16
-11.63
-11.50
-11.61
-12.38
-13.93
-16.17
-19.03
-22.54
-26.78
-31.60
-36.40
-40.09
-41.26
-38.89
-32.96
-24.55
-15.48
-7.49
-1.39
3.16
7.18
11.63
16.65
21.51
25.20
27.13
27.54
27.20
26.87
26.68
26.10
24.21
20.34
14.55
7.77
1.45
-2.96
-4.60
-3.35
0.18
4.92
9.87
14.48
18.85
23.45
28.68
34.44
40.07
44.53
46.83
46.49
43.71
39.33
34.62
31.02
29.83
31.96
37.40
44.94
52.38
57.25
57.70
53.23
44.75
34.05
23.43
14.56
8.23
4.40
2.59
2.28
3.06
4.65
6.79
9.95
14.51
20.33
26.54
31.87
35.31
36.70
36.90
37.34
40.28
46.93
56.60
66.90
74.94
78.77
78.35
75.51
73.27
76.33
88.55
111.26
142.46
177.02
208.10
229.34
236.61
220.73
179.15
117.20
46.94
-18.49
-70.92
-109.07
-135.54
-153.18
-163.18
-164.44
-156.18
-139.98
-120.00
-101.55
-89.10
-85.15
-90.19
-103.24
-121.19
-140.01
-155.21
-162.75
-158.45
-141.66
-116.13
-88.76
-66.64
-53.42
-48.75
-49.55
-52.36
-55.19
-58.13
-61.90
-66.41
-69.92
-69.39
-62.33
-48.18
-28.89
-8.20
9.04
18.84
19.26
10.96
-2.93
-18.17
-30.83
-38.60
-41.14
-39.74
-36.05
-30.95
-25.08
-18.13
-9.73
-0.06
10.03
19.31
26.64
31.57
34.47
36.21
37.75
39.52
41.27
42.34
42.11
40.36
37.48
34.19
31.19
28.82
26.85
24.69
21.60
17.10
11.06
3.73
-4.34
-12.51
-20.18
-27.03
-33.14
-38.96
-44.94
-51.18
-56.99
-60.85
-60.75
-54.94
-42.72
-24.99
-4.12
16.63
34.12
46.09
51.51
50.50
43.91
32.85
18.49
2.12
-14.72
-30.15
-42.22
-49.35
-50.84
-47.14
-39.60
-29.95
-19.65
-9.45
0.69
11.17
22.34
34.09
45.81
56.58
65.53
72.09
76.12
77.78
77.40
75.31
71.87
67.39
62.25
56.84
51.61
47.03
43.50
41.17
39.96
39.66
39.90
40.34
40.74
41.04
41.34
41.81
42.56
43.55
44.82
46.21
47.33
47.68
46.86
44.84
41.95
38.81
36.06
34.63
34.90
36.54
38.65
40.18
40.51
39.72
38.48
37.84
39.56
44.65
52.99
63.31
73.95
83.56
91.55
97.89
102.96
108.26
114.85
122.78
130.69
136.06
135.90
127.59
109.61
76.74
29.83
-24.14
-74.41
-111.81
-132.84
-139.65
-136.92
-128.97
-118.21
-104.33
-86.90
-66.52
-45.25
-25.68
-9.68
2.08
9.62
13.44
14.82
15.12
16.07
19.93
29.15
45.53
69.00
96.86
124.57
147.81
163.61
171.01
170.73
164.28
153.02
139.31
125.43
113.51
105.58
102.97
105.77
112.80
122.08
131.61
140.00
146.49
150.99
153.88
155.52
155.88
154.38
150.04
141.78
128.81
110.68
87.44
59.68
28.35
-5.39
-40.31
-75.08
-108.23
-138.12
-163.18
-182.03
-193.81
-198.21
-195.57
-186.78
-173.00
-155.42
-135.13
-113.17
-90.74
-69.24
-50.24
-35.16
-24.95
-19.76
-18.83
-20.71
-23.77
-26.86
-29.73
-33.02
-37.93
-45.59
-56.58
-70.83
-87.84
-107.17
-128.96
-154.05
-183.64
-218.88
-260.60
-309.37
-365.39
-427.94
-494.29
-558.73
-612.89
-647.66
-656.08
-636.08
-591.35
-529.65
-459.60
-387.65
-316.98
-248.66
-184.07
-126.34
-80.00
-48.76
-33.29
-30.38
-34.33
-39.59
-42.87
-43.91
-44.44
-46.20
-49.55
-53.36
-56.04
-56.70
-55.62
-53.78
-51.82
-49.24
-44.44
-35.49
-21.39
-2.74
18.31
38.94
56.66
70.19
79.59
85.84
90.07
92.99
94.67
94.77
92.79
88.38
81.42
72.01
60.51
47.74
35.04
24.16
16.91
14.67
17.92
26.18
38.22
52.56
67.87
83.22
98.13
112.43
126.10
139.14
151.45
162.74
172.60
180.60
186.46
190.23
192.23
192.91
192.63
191.63
189.95
187.65
184.87
181.85
178.85
176.01
173.28
170.49
167.42
163.77
159.20
153.34
145.84
136.62
125.97
114.64
103.50
93.22
83.98
75.47
67.28
59.40
52.51
47.88
46.86
50.22
57.65
67.71
78.19
86.69
91.25
91.02
86.50
79.46
72.36
67.23
64.73
63.57
60.95
53.81
40.46
21.47
-0.35
-21.13
-37.51
-47.86
-52.48
-53.02
-51.48
-49.31
-47.09
-44.78
-42.10
-39.03
-35.96
-33.51
-32.21
-32.12
-32.58
-32.60
-31.25
-28.35
-24.72
-21.76
-20.89
-22.82
-27.26
-33.25
-39.70
-45.92
-51.77
-57.39
-62.83
-67.87
-72.08
-75.13
-76.96
-77.84
-78.18
-78.37
-78.73
-79.50
-80.96
-83.39
-86.96
-91.57
-96.82
-101.99
-106.29
-109.01
-109.56
-107.55
-102.66
-94.73
-83.83
-70.36
-55.07
-38.98
-23.15
-8.47
4.46
15.38
24.32
31.43
36.91
40.92
43.62
45.14
45.67
45.42
44.61
43.43
41.96
40.25
38.30
36.16
33.95
31.83
30.04
28.73
28.03
27.90
28.12
28.26
27.74
25.99
22.63
17.70
11.62
5.09
-1.15
-6.69
-11.59
-16.41
-21.95
-28.84
-37.27
-46.79
-56.51
-65.46
-73.07
-79.41
-85.21
-91.55
-99.43
-109.42
-121.45
-134.72
-147.90
-159.24
-167.01
-169.81
-166.88
-158.37
-145.26
-129.12
-111.57
-93.83
-76.31
-58.63
-39.84
-19.00
4.34
29.80
56.25
82.08
105.64
125.54
140.75
150.69
155.26
154.93
150.79
144.39
137.42
131.19
126.29
122.52
119.20
115.54
111.14
105.99
100.40
94.72
89.19
83.96
79.21
75.25
72.45
71.20
71.60
73.33
75.61
77.34
77.38
74.78
69.01
60.17
48.85
36.06
23.02
10.89
0.72
-6.67
-10.66
-10.90
-7.35
-0.40
9.10
20.07
31.38
42.21
52.12
61.04
68.97
75.81
81.32
85.21
87.42
88.13
87.69
86.40
84.37
81.42
77.33
72.07
66.01
59.90
54.55
50.64
48.30
47.13
46.24
44.64
41.54
36.66
30.31
23.22
16.24
9.96
4.51
-0.45
-5.52
-11.21
-17.83
-25.38
-33.63
-42.21
-50.64
-58.45
-65.22
-70.74
-75.23
-79.42
-84.26
-90.55
-98.41
-106.91
-114.21
-118.07
-116.69
-109.41
-97.00
-81.33
-64.59
-48.56
-34.09
-21.18
-9.39
1.59
11.82
21.09
29.27
36.49
43.07
49.24
54.92
59.67
62.94
64.41
64.17
62.67
60.50
58.18
56.01
54.10
52.47
51.05
49.71
48.23
46.40
44.19
41.77
39.56
37.93
37.01
36.59
36.24
35.56
34.38
32.85
31.31
30.05
29.14
28.48
27.92
27.49
27.45
28.23
30.24
33.64
38.22
43.38
48.43
52.92
56.94
61.34
67.63
77.55
92.48
112.96
138.47
167.40
197.19
224.60
246.05
258.26
258.96
247.58
225.43
195.40
161.18
126.32
93.59
64.77
40.77
21.82
7.38
-4.02
-14.74
-27.62
-44.99
-67.82
-95.45
-126.00
-157.29
-187.89
-217.72
-248.09
-281.12
-319.16
-363.87
-415.37
-471.23
-526.02
-571.91
-600.52
-605.68
-585.67
-543.88
-487.37
-423.99
-359.70
-297.37
-237.47
-179.86
-125.09
-74.80
-30.54
7.58
41.63
75.35
113.05
158.40
213.58
278.39
349.69
421.36
485.24
533.29
560.13
564.91
551.43
525.95
494.88
462.62
431.00
400.33
370.45
342.08
316.71
295.48
277.75
261.40
243.86
223.50
200.67
176.90
154.44
135.04
118.93
103.93
87.13
66.31
41.06
13.35
-14.47
-40.00
-61.68
-79.56
-97.58
-119.88
-148.90
-184.37
-222.57
-261.35
-298.99
-334.20
-366.80
-402.23
-445.23
-498.02
-559.73
-624.63
-690.66
-754.41
-809.24
-847.28
-868.88
-875.94
-870.81
-855.33
-827.03
-791.55
-754.56
-718.52
-684.47
-661.16
-653.08
-657.20
-663.48
-654.89
-629.88
-595.37
-561.55
-476.43
-315.17
-87.56
164.87
357.52
492.26
583.58
641.77
682.14
707.25
707.47
675.53
610.85
520.68
423.30
328.50
244.87
181.20
142.41
121.61
108.82
95.53
78.19
62.54
49.01
37.93
30.46
26.36
20.55
9.40
-6.98
-24.39
-34.22
-34.30
-25.72
-10.83
6.86
22.68
34.04
41.24
47.09
56.40
70.41
88.26
108.12
127.67
144.61
158.10
168.97
179.19
191.26
205.75
221.75
237.59
251.38
261.96
269.16
273.63
276.62
279.26
282.37
286.19
290.24
293.18
292.76
286.24
271.43
247.69
216.32
180.15
142.39
105.31
69.61
34.60
-0.87
-37.23
-73.38
-107.37
-137.24
-161.81
-181.11
-196.07
-208.04
-218.22
-226.76
-231.55
-229.78
-219.05
-198.46
-169.14
-133.75
-95.57
-57.74
-21.70
14.43
52.59
93.24
134.67
173.52
206.39
231.12
246.42
253.51
257.84
264.16
275.12
290.55
308.48
326.86
344.54
360.21
374.86
394.12
422.25
460.69
507.37
557.84
607.58
653.01
690.29
690.02
634.16
519.55
361.50
186.12
17.95
-127.06
-233.03
-306.48
-355.43
-382.90
-392.59
-390.19
-383.28
-380.63
-386.72
-401.28
-421.84
-442.43
-454.62
-453.32
-437.76
-411.07
-378.43
-344.46
-312.37
-285.01
-262.54
-242.41
-222.54
-202.03
-181.30
-161.64
-144.16
-129.68
-119.46
-113.58
-110.81
-109.67
-108.44
-105.28
-98.70
-87.78
-72.83
-55.77
-38.76
-23.36
-10.37
0.50
10.25
19.99
30.36
41.10
51.05
58.82
63.25
63.68
60.18
53.31
43.80
32.51
20.27
7.90
-4.09
-15.93
-28.59
-42.98
-59.04
-74.96
-87.45
-92.92
-89.05
-75.74
-54.87
-29.30
-1.68
25.98
52.01
74.66
91.89
101.78
103.21
96.14
81.48
60.41
34.28
4.79
-25.46
-53.07
-74.44
-87.04
-90.25
-85.37
-74.83
-60.94
-45.14
-27.98
-9.80
8.77
26.39
41.45
52.80
60.36
65.22
69.13
73.59
79.20
85.82
92.66
98.73
103.30
105.94
106.68
105.82
103.87
101.40
99.48
98.88
99.82
101.88
104.22
106.04
107.04
107.45
107.94
110.26
115.50
123.41
132.38
140.26
145.62
148.50
150.18
152.34
157.66
167.22
180.08
193.93
206.36
215.99
222.40
225.43
224.86
223.00
222.74
226.71
235.80
248.13
259.20
263.23
255.39
220.80
154.84
64.10
-35.35
-125.94
-196.78
-246.02
-277.40
-295.72
-304.47
-303.70
-293.60
-276.10
-255.01
-234.67
-218.08
-205.90
-196.96
-189.35
-179.88
-166.73
-150.06
-131.84
-114.63
-100.17
-88.73
-79.38
-70.84
-61.01
-48.80
-34.43
-19.41
-5.68
5.30
12.98
17.59
19.62
20.22
20.22
20.09
19.90
19.59
19.39
19.90
21.57
24.87
30.23
37.65
46.76
56.90
67.34
77.55
87.32
96.29
104.41
111.90
119.03
126.03
133.11
140.39
147.96
155.90
163.60
170.61
176.52
180.91
183.24
182.80
178.58
169.02
157.17
144.25
131.32
119.21
108.45
99.14
90.96
83.31
75.63
67.69
58.91
49.18
38.62
27.21
14.60
0.11
-17.08
-37.46
-60.77
-86.51
-113.57
-140.75
-167.44
-194.01
-221.75
-252.38
-287.10
-325.82
-367.17
-408.48
-446.48
-478.28
-502.18
-517.84
-526.31
-529.82
-531.56
-535.27
-543.87
-558.15
-575.57
-590.34
-595.23
-584.41
-555.91
-512.59
-460.65
-406.86
-356.19
-310.69
-270.12
-233.50
-200.30
-170.63
-144.57
-121.17
-98.48
-74.46
-48.03
-19.47
9.92
38.58
65.96
92.71
120.82
152.68
189.28
229.82
272.23
313.83
352.33
386.82
417.09
444.19
470.41
497.62
527.44
561.01
597.96
635.24
667.52
687.23
688.82
671.56
637.97
593.22
543.43
493.58
445.80
400.18
353.35
302.46
246.40
183.07
110.50
28.42
-60.53
-151.24
-236.17
-310.51
-370.15
-397.27
-377.71
-310.46
-210.99
-102.03
-10.71
61.91
119.09
164.15
199.34
224.44
236.73
234.79
220.13
196.63
170.26
144.01
119.94
99.46
81.32
62.92
42.33
19.45
-4.34
-26.19
-45.37
-61.60
-74.93
-87.11
-100.92
-118.77
-141.70
-169.39
-200.02
-232.56
-265.97
-299.33
-332.77
-367.11
-403.14
-441.20
-481.48
-523.96
-568.98
-615.60
-660.41
-697.38
-719.10
-719.13
-694.62
-647.91
-585.99
-518.26
-453.17
-395.99
-348.23
-308.82
-275.67
-246.75
-220.34
-194.72
-167.98
-138.35
-104.84
-67.56
-27.51
13.98
56.00
98.43
141.76
186.47
232.37
278.28
322.17
361.87
395.79
423.68
447.14
469.40
494.54
525.62
562.66
601.28
633.05
647.91
637.90
600.40
539.15
462.74
380.86
300.71
225.16
153.13
81.40
6.70
-72.96
-157.45
-244.26
-328.29
-402.41
-458.98
-492.24
-500.46
-486.72
-457.72
-421.33
-384.04
-349.71
-319.87
-294.84
-274.71
-259.52
-248.78
-241.06
-234.18
-226.09
-215.74
-203.07
-189.19
-176.51
-166.47
-158.75
-151.95
-144.17
-133.85
-120.39
-103.88
-85.43
-67.35
-51.23
-37.37
-25.27
-14.00
-2.75
8.80
21.55
35.68
48.90
60.00
69.47
78.14
86.86
96.12
105.90
118.94
136.81
154.73
170.13
184.26
198.38
213.32
229.24
245.55
267.87
299.82
332.09
359.73
385.35
411.24
438.83
468.36
499.00
539.82
596.58
653.95
702.92
746.08
785.82
824.48
864.23
906.48
964.44
1044.23
1121.13
1176.50
1207.38
1214.11
1201.63
1178.49
1068.44
835.55
613.16
454.63
329.76
228.59
144.42
72.91
10.70
-45.49
-85.25
-101.84
-115.38
-137.32
-163.89
-191.90
-219.32
-245.48
-270.95
-286.39
-285.66
-283.63
-288.69
-297.74
-308.17
-318.23
-327.12
-334.80
-335.17
-324.33
-311.77
-303.11
-296.87
-291.93
-287.68
-283.93
-280.82
-275.46
-266.02
-257.23
-251.83
-249.10
-248.34
-248.83
-250.06
-251.34
-250.71
-246.53
-239.83
-231.34
-221.10
-209.46
-196.81
-183.68
-170.46
-157.40
-144.86
-133.53
-124.32
-118.28
-115.97
-116.99
-120.45
-124.54
-126.96
-125.77
-120.33
-111.45
-101.67
-94.00
-90.96
-95.65
-109.83
-133.58
-166.10
-206.76
-255.11
-312.19
-379.12
-456.48
-547.19
-651.25
-763.60
-873.86
-968.82
-1034.98
-1065.21
-1058.67
-1020.36
-964.18
-902.84
-842.95
-784.57
-724.63
-659.09
-589.66
-519.98
-453.13
-397.15
-355.91
-327.24
-304.99
-283.45
-257.97
-231.60
-208.62
-150.25
-40.40
110.95
273.41
416.46
508.09
559.04
581.88
586.45
580.53
568.05
552.04
538.39
534.54
545.47
573.25
610.67
647.94
675.85
682.48
660.81
611.58
542.19
462.88
384.72
312.47
247.53
189.17
132.18
72.01
7.53
-58.65
-121.95
-176.45
-219.09
-248.10
-262.75
-264.93
-257.12
-241.32
-218.86
-191.18
-159.83
-127.79
-97.79
-71.35
-49.04
-30.08
-12.85
4.20
21.79
39.29
54.59
65.23
69.36
66.30
56.49
41.16
21.99
1.19
-19.09
-37.01
-51.22
-60.88
-65.52
-65.09
-60.07
-51.26
-38.82
-23.09
-4.87
14.42
32.93
48.77
60.41
66.79
67.35
64.55
61.09
58.85
57.99
57.25
55.07
50.50
43.43
34.30
29.25
34.24
52.63
83.42
122.01
162.71
200.89
233.77
259.68
286.89
323.73
374.85
438.32
506.73
571.30
625.46
665.94
691.67
715.65
751.31
807.41
884.50
976.56
1075.67
1175.08
1268.90
1291.76
1198.19
975.73
658.97
311.90
-5.97
-260.11
-442.16
-553.60
-623.14
-664.35
-683.54
-683.98
-670.34
-649.06
-625.58
-602.64
-578.94
-554.53
-523.96
-487.68
-450.90
-420.25
-399.51
-387.13
-377.53
-365.09
-348.78
-325.11
-293.68
-256.56
-217.83
-182.36
-154.08
-135.03
-125.84
-126.84
-133.69
-141.12
-144.21
-140.17
-129.01
-113.07
-95.90
-81.17
-72.01
-68.34
-68.13
-68.13
-65.14
-57.24
-44.40
-28.51
-12.79
-0.76
5.53
6.02
2.59
-1.82
-4.51
-4.05
-0.48
5.23
10.87
15.14
17.67
18.90
19.66
20.67
22.25
24.28
26.29
27.83
28.72
28.98
28.86
28.73
28.96
29.70
30.82
32.02
33.07
33.96
34.68
35.17
35.49
35.62
35.40
34.68
33.52
32.38
31.84
32.08
32.68
33.10
32.73
31.02
27.78
23.59
19.79
17.59
17.40
18.49
19.81
20.24
18.88
15.54
11.45
8.96
10.12
15.49
23.39
30.84
34.08
29.43
14.42
-12.78
-49.12
-87.19
-116.93
-133.35
-134.88
-121.51
-95.57
-62.11
-26.91
4.64
28.86
45.09
55.99
67.14
84.31
110.30
139.99
165.52
178.65
174.50
153.51
119.79
78.81
35.17
-6.24
-45.19
-80.13
-108.36
-127.83
-138.46
-142.56
-143.53
-143.25
-143.11
-143.58
-143.29
-140.52
-134.17
-124.03
-110.71
-95.16
-78.29
-61.39
-46.09
-33.27
-23.25
-15.78
-9.97
-4.68
1.08
7.86
15.26
22.19
27.88
31.98
34.67
36.67
38.88
42.01
46.42
51.67
56.67
60.41
62.29
62.40
61.43
60.31
59.73
59.99
60.59
60.69
60.01
59.06
58.76
59.59
60.91
61.33
60.01
57.05
54.03
53.48
57.79
67.82
82.31
98.37
113.06
124.96
133.39
137.51
135.53
124.60
101.98
66.57
20.02
-34.45
-87.88
-129.19
-150.34
-150.34
-134.92
-112.00
-87.78
-65.22
-44.59
-24.82
-5.63
12.13
27.32
39.04
47.83
55.20
62.82
71.94
83.10
95.52
107.11
115.49
118.36
114.99
106.01
92.97
77.82
62.52
48.21
35.06
22.62
9.46
-5.26
-21.79
-39.90
-59.25
-79.57
-101.42
-126.67
-152.53
-178.78
-205.84
-234.66
-266.41
-301.50
-338.45
-373.18
-399.37
-410.11
-401.13
-371.70
-325.26
-268.25
-207.98
-150.51
-99.56
-56.66
-21.79
5.21
25.21
39.66
50.41
59.12
66.64
72.65
76.07
76.15
72.66
66.83
60.87
57.05
56.88
60.75
67.88
76.75
85.55
92.25
95.20
93.28
86.17
74.60
60.45
46.32
34.77
27.43
24.20
23.36
22.14
17.84
8.79
-5.14
-22.70
-41.89
-60.67
-77.34
-90.68
-99.64
-103.48
-101.83
-94.89
-83.51
-68.96
-52.75
-36.34
-20.78
-6.63
6.10
17.86
29.31
40.95
52.74
63.92
73.31
79.84
83.04
83.27
81.33
78.07
73.90
68.84
62.73
55.59
47.76
39.80
32.24
25.30
18.82
12.36
5.50
-2.02
-10.11
-18.33
-25.99
-32.31
-36.71
-39.00
-39.37
-38.16
-35.53
-31.28
-24.97
-16.26
-5.31
7.03
19.37
30.33
39.09
45.61
50.54
54.73
58.77
62.82
66.69
70.10
72.88
74.83
75.46
73.71
68.08
57.20
40.66
19.66
-3.06
-23.93
-39.73
-48.57
-50.44
-46.83
-40.04
-32.21
-24.86
-18.73
-14.00
-10.69
-8.86
-8.61
-9.99
-12.75
-16.25
-19.61
-22.02
-23.10
-23.17
-23.12
-23.93
-26.20
-29.79
-33.95
-37.73
-40.58
-42.50
-43.84
-44.85
-45.23
-44.09
-40.37
-33.48
-23.79
-12.56
-1.48
8.04
15.41
20.93
25.46
29.90
34.81
40.35
46.37
52.58
58.65
64.11
68.39
70.94
71.51
70.44
68.66
67.31
67.26
68.64
70.72
72.32
72.39
70.46
66.89
62.57
58.52
55.48
53.67
52.80
52.36
51.84
50.82
49.08
46.48
42.98
38.65
33.70
28.52
23.57
19.24
15.69
12.84
10.35
7.80
4.93
1.69
-1.73
-4.99
-7.64
-9.30
-9.56
-8.05
-4.49
1.26
9.15
18.88
29.99
41.92
54.12
66.18
77.87
89.11
99.91
110.24
119.97
128.84
136.60
143.06
148.09
151.50
152.87
151.59
147.03
139.04
128.34
116.62
106.05
98.53
94.78
94.06
94.55
94.24
91.75
86.89
80.50
73.77
67.59
62.24
57.56
53.28
49.28
45.47
41.66
37.38
32.04
25.09
16.35
6.21
-4.40
-14.34
-22.78
-29.44
-34.61
-39.06
-43.73
-49.15
-55.05
-60.24
-63.00
-62.33
-57.91
-50.09
-39.75
-28.04
-16.24
-5.45
3.37
9.58
12.05
10.49
5.84
-0.24
-6.63
-13.69
-23.07
-36.69
-55.39
-79.69
-107.85
-136.17
-160.35
-177.59
-187.70
-192.75
-195.96
-200.94
-213.25
-237.20
-273.79
-319.43
-366.43
-404.81
-425.00
-420.84
-380.24
-303.98
-206.90
-111.68
-36.39
12.92
40.37
53.90
59.98
61.98
58.96
50.07
36.86
22.75
11.84
7.23
10.16
20.47
37.62
59.88
86.36
117.12
151.77
185.13
208.58
213.69
196.82
161.50
116.24
71.73
36.98
16.54
9.83
13.07
21.67
32.21
42.80
52.23
59.68
65.16
69.41
73.20
77.45
81.89
85.28
85.81
81.46
70.21
51.11
25.03
-4.68
-32.03
-49.84
-52.35
-38.13
-11.50
18.20
40.98
50.35
45.62
31.36
14.25
-0.60
-11.93
-18.55
-21.96
-23.25
-21.52
-14.39
0.07
21.25
45.23
65.89
77.19
75.21
60.45
37.31
12.18
-9.24
-23.76
-31.12
-32.99
-31.51
-28.70
-25.69
-23.02
-21.14
-20.56
-21.79
-25.09
-30.24
-36.36
-42.46
-47.35
-50.31
-51.30
-51.10
-50.82
-51.39
-52.93
-54.48
-54.41
-50.87
-42.70
-30.07
-14.46
1.83
16.50
27.97
35.67
39.73
40.61
38.67
34.11
27.15
18.27
8.42
-1.09
-8.93
-14.24
-16.84
-17.18
-16.11
-14.47
-12.91
-11.66
-10.69
-9.85
-9.19
-9.03
-9.89
-12.22
-16.06
-20.97
-25.97
-29.77
-31.15
-29.50
-25.25
-20.02
-15.93
-14.38
-14.68
-13.62
-6.27
12.00
43.25
85.72
133.98
180.76
219.15
244.44
254.65
250.12
232.69
204.90
169.64
129.83
88.08
46.31
5.57
-33.57
-70.37
-103.45
-130.87
-150.69
-161.93
-165.15
-162.41
-156.53
-149.93
-143.87
-138.40
-133.00
-127.41
-122.16
-118.43
-117.25
-118.81
-122.11
-125.41
-126.82
-124.93
-119.29
-110.56
-100.43
-91.18
-85.10
-83.47
-85.99
-90.67
-94.57
-95.20
-91.73
-85.28
-78.07
-72.05
-67.78
-64.38
-60.39
-54.87
-47.97
-40.63
-33.61
-26.91
-19.71
-10.97
-0.16
12.21
24.70
35.52
43.23
47.38
48.61
48.41
48.57
50.47
54.59
60.34
66.36
71.09
73.38
72.80
69.63
64.61
58.54
52.09
45.73
39.74
34.27
29.36
24.98
21.16
18.06
15.92
14.96
15.19
16.33
17.81
18.90
18.76
16.38
10.77
1.19
-12.32
-28.60
-45.46
-60.39
-71.50
-78.23
-81.38
-82.30
-81.89
-79.81
-74.77
-65.42
-51.46
-34.18
-16.18
-0.38
10.99
17.13
18.73
17.53
15.61
14.72
15.87
19.28
24.43
30.24
35.41
38.56
38.53
34.85
28.07
19.92
12.94
9.59
11.25
17.52
26.20
34.19
38.66
38.04
32.40
23.11
12.16
1.49
-7.32
-13.19
-15.58
-14.76
-11.97
-9.33
-9.23
-13.50
-22.57
-35.29
-49.45
-62.61
-72.84
-79.15
-81.24
-79.19
-73.18
-63.68
-51.65
-38.60
-26.20
-15.54
-6.53
2.08
12.05
24.67
40.19
57.79
76.23
94.44
111.77
127.66
141.22
151.00
155.35
153.19
144.66
131.23
115.19
98.98
84.40
72.45
63.44
57.22
53.34
50.97
48.84
45.35
38.97
28.82
15.07
-0.89
-16.94
-30.96
-41.70
-49.10
-54.10
-57.87
-61.10
-63.58
-64.51
-63.20
-59.65
-54.76
-49.79
-45.81
-43.24
-42.01
-41.98
-43.09
-45.29
-47.95
-49.53
-47.99
-41.80
-31.06
-18.03
-6.52
-0.39
-2.00
-11.26
-25.97
-43.03
-59.64
-74.06
-85.35
-92.85
-95.64
-92.74
-83.42
-67.63
-45.88
-18.92
12.45
47.11
82.97
116.57
143.45
159.68
163.62
157.09
145.08
133.84
128.19
129.48
135.08
139.70
137.75
125.58
102.84
72.44
39.17
8.10
-17.01
-34.56
-44.94
-50.01
-52.25
-53.95
-56.79
-61.72
-69.01
-78.51
-89.90
-102.77
-116.57
-130.46
-143.24
-153.53
-159.96
-161.66
-158.36
-150.49
-139.05
-125.20
-109.92
-93.83
-77.24
-60.27
-43.01
-25.70
-8.84
6.90
20.81
32.35
41.27
47.47
50.85
50.97
47.33
39.77
29.07
17.06
6.29
-0.85
-2.98
-0.14
6.44
14.98
23.51
29.85
31.49
26.10
12.77
-6.46
-26.14
-38.54
-36.45
-16.08
21.72
72.54
131.14
193.62
257.84
321.52
380.23
426.90
453.74
455.71
433.43
393.37
345.41
298.90
259.40
227.53
200.19
173.07
143.03
109.17
72.50
34.81
-2.42
-38.34
-72.46
-104.24
-132.69
-156.46
-174.57
-186.70
-193.15
-194.33
-190.29
-180.80
-165.91
-146.77
-125.77
-106.02
-90.37
-80.50
-76.71
-78.57
-85.69
-98.15
-116.18
-139.32
-165.64
-191.57
-212.39
-223.40
-221.17
-204.47
-174.56
-134.82
-89.81
-44.24
-2.11
33.54
60.54
77.37
83.25
78.46
64.70
45.20
24.06
5.18
-9.03
-18.30
-24.25
-29.39
-35.76
-44.08
-53.54
-62.49
-69.30
-73.24
-74.70
-74.77
-74.68
-75.19
-76.53
-78.55
-81.03
-83.86
-86.91
-89.72
-91.35
-90.54
-86.16
-77.76
-65.78
-51.34
-35.61
-19.33
-2.51
15.17
33.93
53.31
72.30
89.59
104.22
115.82
124.59
130.96
135.16
137.17
136.83
134.08
129.11
122.23
113.47
102.37
87.89
68.76
44.09
13.90
-20.53
-56.72
-91.39
-121.11
-142.98
-155.16
-157.26
-150.51
-137.70
-122.84
-110.46
-104.44
-106.74
-116.54
-130.35
-143.09
-149.94
-148.09
-137.68
-121.55
-103.93
-88.92
-79.24
-75.84
-78.00
-83.80
-90.52
-94.85
-93.51
-83.75
-64.17
-35.15
1.23
41.75
82.94
121.81
156.28
185.15
207.96
224.86
236.46
243.74
247.79
249.41
248.76
245.30
237.96
225.48
206.95
182.12
151.58
116.93
81.21
49.13
26.69
19.48
30.21
56.83
92.30
126.89
151.95
163.40
163.02
156.77
151.12
149.56
151.12
151.68
146.70
133.75
113.37
88.01
60.27
31.50
1.52
-30.61
-65.75
-104.23
-146.15
-191.70
-240.86
-292.29
-342.38
-385.18
-414.02
-424.14
-414.97
-390.67
-358.59
-326.24
-298.49
-276.45
-258.12
-240.22
-219.80
-195.16
-165.81
-132.32
-96.38
-60.78
-29.24
-5.48
7.93
10.40
3.71
-8.47
-21.72
-32.28
-38.03
-38.92
-36.69
-33.99
-33.43
-36.61
-43.76
-53.88
-65.27
-75.93
-84.05
-88.10
-87.09
-80.90
-70.56
-58.23
-46.83
-39.13
-36.70
-39.40
-45.46
-52.28
-57.62
-60.41
-61.00
-60.78
-61.52
-64.75
-71.58
-82.62
-97.88
-116.50
-136.40
-154.17
-165.78
-167.68
-157.99
-137.22
-107.93
-73.77
-38.27
-3.91
28.07
57.33
83.93
107.89
128.90
146.29
159.00
165.91
166.11
159.36
146.46
129.24
110.27
92.34
77.81
68.27
64.26
65.28
69.78
75.43
79.55
79.78
74.78
64.76
51.47
37.58
25.80
17.93
14.33
13.99
15.11
15.90
15.13
12.42
8.12
2.96
-2.32
-7.19
-11.47
-15.29
-19.01
-23.25
-28.75
-36.25
-46.16
-58.12
-70.77
-81.70
-88.07
-87.37
-78.34
-61.39
-38.45
-12.15
14.98
41.26
65.95
89.06
110.91
131.73
151.49
169.85
186.09
199.30
208.50
213.09
213.19
209.97
205.39
201.69
200.58
202.65
207.18
212.55
216.85
218.59
217.01
212.19
204.84
195.98
186.71
177.87
169.59
160.81
149.27
132.00
106.53
72.16
30.79
-13.41
-55.33
-90.62
-117.26
-135.90
-149.09
-159.54
-168.58
-175.39
-177.58
-172.58
-159.54
-140.28
-118.87
-99.71
-85.22
-74.31
-62.85
-45.84
-20.09
14.12
53.21
91.94
125.37
150.14
164.77
169.44
165.80
156.86
146.66
139.32
137.47
140.89
146.28
148.59
143.22
128.00
103.71
73.24
40.01
6.78
-24.66
-52.84
-75.89
-91.27
-96.49
-90.09
-72.67
-46.94
-17.02
12.98
40.07
62.70
80.17
91.74
96.16
92.19
79.59
60.05
37.08
14.96
-2.91
-15.10
-22.23
-26.00
-27.79
-27.98
-26.32
-22.81
-18.54
-15.73
-16.89
-23.65
-36.11
-52.66
-70.37
-85.35
-93.22
-89.67
-71.53
-37.95
8.66
62.80
117.48
166.35
205.70
235.02
255.99
270.73
280.24
284.02
280.80
269.78
251.54
228.24
203.12
179.59
160.33
146.68
138.18
132.72
127.07
117.99
103.39
83.23
59.56
35.61
14.14
-3.88
-19.78
-36.32
-56.07
-79.78
-105.65
-129.86
-148.01
-156.78
-155.13
-144.34
-127.38
-107.76
-88.52
-71.83
-58.95
-50.57
-47.09
-48.67
-54.96
-64.79
-76.11
-86.26
-92.83
-94.75
-92.81
-89.35
-87.11
-87.67
-90.58
-93.44
-93.47
-89.16
-81.48
-73.45
-68.48
-68.34
-72.07
-76.52
-78.17
-75.12
-67.99
-59.33
-52.09
-48.10
-47.50
-49.28
-52.17
-55.23
-57.76
-58.84
-57.19
-51.67
-42.01
-29.40
-16.28
-5.42
1.17
3.04
1.10
-3.04
-8.06
-13.39
-19.25
-26.21
-34.66
-44.49
-55.09
-65.55
-74.83
-82.01
-86.38
-87.54
-85.45
-80.51
-73.56
-65.84
-58.75
-53.57
-51.11
-51.59
-54.73
-59.97
-66.74
-74.64
-83.32
-92.32
-100.84
-107.72
-111.71
-111.88
-107.94
-100.36
-90.10
-78.28
-65.92
-53.83
-42.76
-33.45
-26.45
-21.84
-18.93
-16.24
-11.96
-4.65
6.03
18.91
31.60
41.28
45.77
44.40
38.32
30.15
23.04
19.67
21.49
28.19
37.81
47.16
52.45
50.45
39.65
21.33
0.04
-17.03
-21.96
-8.79
24.02
72.49
128.27
181.38
223.62
250.99
264.13
266.67
262.67
254.35
241.29
221.21
191.79
152.39
104.81
52.74
0.31
-49.50
-95.67
-138.83
-179.93
-218.96
-254.22
-282.83
-301.99
-310.17
-307.44
-294.98
-274.37
-247.60
-217.36
-187.45
-161.91
-143.04
-129.46
-115.58
-93.88
-58.91
-10.86
43.61
94.31
132.66
156.19
169.71
182.66
204.08
238.06
281.96
328.17
368.07
396.02
411.47
418.39
422.54
428.26
436.19
443.06
443.40
432.28
407.58
370.82
326.06
277.83
228.99
179.91
129.14
75.02
17.29
-42.43
-101.25
-156.44
-206.60
-251.92
-293.44
-331.86
-366.77
-396.84
-420.59
-437.36
-447.68
-452.81
-453.71
-450.05
-439.97
-420.78
-390.26
-348.06
-296.49
-240.27
-185.36
-137.29
-99.58
-72.85
-54.93
-41.86
-29.45
-14.94
2.10
20.02
36.07
47.80
54.18
55.95
55.34
55.34
58.99
68.52
84.62
105.61
127.11
142.87
147.04
137.26
116.92
95.02
82.66
87.87
111.32
145.40
177.28
194.57
190.66
166.99
131.51
94.44
63.71
42.43
29.21
20.56
13.56
7.48
3.52
3.37
7.45
14.10
19.97
21.53
16.84
6.59
-6.40
-18.80
-28.77
-37.14
-46.96
-61.69
-82.96
-108.87
-134.15
-152.00
-156.99
-147.53
-126.72
-101.17
-78.21
-62.98
-56.49
-55.72
-55.26
-49.90
-36.78
-16.38
7.79
30.33
45.55
48.98
38.85
17.22
-9.70
-32.80
-42.98
-34.87
-9.73
24.19
54.77
71.33
69.54
53.28
32.45
17.72
15.33
24.56
39.16
51.35
56.17
53.47
47.18
42.47
42.86
48.67
57.72
67.30
76.16
85.42
97.78
115.61
138.90
164.22
185.33
195.23
188.73
164.48
125.41
77.57
27.85
-18.18
-57.48
-89.30
-113.93
-131.55
-141.82
-144.59
-140.84
-133.27
-125.72
-121.66
-122.75
-128.31
-135.99
-142.86
-146.50
-145.24
-137.92
-123.58
-101.81
-73.44
-41.06
-8.69
19.35
39.93
52.05
56.67
55.74
50.92
42.88
31.50
16.71
-0.60
-18.26
-33.26
-42.89
-45.83
-42.84
-36.56
-30.49
-27.64
-29.60
-36.11
-45.45
-55.21
-63.18
-68.02
-69.66
-69.26
-68.77
-70.29
-75.28
-84.11
-95.97
-109.16
-121.78
-132.26
-139.88
-145.06
-149.36
-154.88
-163.42
-175.05
-187.26
-194.96
-191.78
-172.19
-133.72
-78.09
-11.11
58.76
122.46
172.23
203.07
213.42
205.17
183.18
154.24
125.53
102.97
89.90
86.50
90.40
97.96
105.72
111.39
114.04
113.65
110.43
104.58
96.21
85.86
74.87
65.20
58.88
57.16
59.88
65.59
72.31
78.28
82.38
84.22
83.77
81.29
77.55
73.96
72.81
76.46
86.04
100.10
114.33
122.69
119.90
103.90
76.84
44.63
14.56
-7.81
-20.97
-27.72
-33.58
-44.07
-62.34
-88.58
-119.71
-150.35
-174.60
-187.76
-187.49
-174.32
-151.97
-127.02
-108.71
-104.57
-116.54
-138.92
-159.76
-165.28
-145.58
-99.16
-34.02
33.50
87.09
117.00
122.62
109.96
86.75
58.49
27.01
-8.57
-52.07
-104.93
-163.81
-221.29
-268.96
-300.64
-314.06
-310.77
-279.63
-219.73
-142.66
-67.40
-8.57
30.22
53.57
68.28
79.19
86.48
87.20
78.71
61.02
36.85
9.46
-19.00
-47.59
-75.56
-99.36
-115.82
-120.92
-110.47
-81.81
-35.47
24.60
92.71
163.22
231.41
291.98
339.94
371.61
385.33
381.81
363.85
335.66
301.92
266.80
232.71
200.98
172.47
147.95
127.85
112.14
100.36
92.00
86.67
83.69
82.16
80.88
78.49
73.32
63.62
47.91
25.37
-3.87
-38.81
-77.78
-118.57
-158.37
-193.68
-220.50
-235.42
-237.12
-227.80
-213.34
-201.46
-198.37
-205.54
-218.65
-229.45
-229.62
-214.64
-185.44
-147.37
-107.37
-71.28
-42.50
-22.28
-10.72
-7.17
-10.14
-16.83
-23.37
-25.82
-21.55
-9.97
7.53
28.49
50.21
70.12
85.93
95.84
99.13
96.55
90.14
82.59
75.85
70.36
65.03
58.10
47.98
33.76
15.36
-6.73
-31.20
-55.74
-77.14
-91.94
-97.67
-93.89
-82.39
-66.44
-49.69
-35.04
-24.15
-17.56
-14.91
-15.09
-16.36
-16.58
-13.73
-6.69
4.34
18.15
33.18
48.32
63.04
77.12
90.04
100.76
108.05
111.19
110.49
107.18
102.78
98.40
94.43
90.95
88.46
88.36
92.61
102.59
117.80
135.22
149.79
155.86
148.93
126.87
90.16
41.60
-14.47
-72.60
-126.62
-170.05
-196.88
-202.87
-187.04
-152.78
-107.93
-63.41
-30.64
-18.30
-29.70
-61.39
-104.07
-145.64
-175.40
-187.91
-184.87
-174.01
-165.52
-167.57
-182.80
-207.77
-234.71
-254.93
-262.01
-253.32
-229.70
-193.88
-149.33
-99.91
-50.19
-5.64
28.25
47.77
52.74
47.25
38.46
33.91
38.36
52.29
72.21
93.02
110.77
124.52
136.31
149.58
166.81
187.94
210.15
228.95
240.16
241.48
233.40
218.43
199.94
180.72
162.13
144.22
126.29
107.70
88.34
68.65
49.32
31.06
14.48
0.18
-11.30
-19.65
-24.88
-27.42
-28.01
-27.42
-26.27
-25.04
-24.19
-24.19
-25.57
-28.67
-33.57
-40.13
-48.11
-57.26
-67.27
-77.44
-86.37
-92.04
-92.22
-85.25
-70.82
-50.37
-26.80
-3.66
15.97
30.33
39.41
44.70
48.65
53.92
62.65
75.94
93.62
114.00
134.13
150.39
159.55
159.89
151.96
138.35
122.76
108.54
97.59
90.06
84.80
80.08
74.35
66.51
56.14
43.61
30.43
19.04
12.45
13.14
21.85
37.01
54.93
71.05
81.38
83.69
77.85
65.53
49.43
32.63
18.07
8.25
4.83
8.21
17.27
29.40
41.02
48.28
48.15
39.57
24.40
7.61
-3.58
-1.88
17.27
53.43
100.44
148.21
186.12
206.80
208.37
194.27
170.85
144.27
118.26
93.65
69.60
45.59
22.68
3.49
-9.18
-14.20
-13.16
-9.90
-8.57
-11.36
-17.08
-21.91
-21.67
-14.71
-3.09
8.30
14.43
12.82
4.78
-5.61
-13.86
-17.37
-16.30
-12.82
-9.54
-8.16
-9.10
-11.96
-16.51
-23.18
-33.03
-47.18
-66.03
-88.77
-113.30
-136.67
-155.99
-169.32
-176.29
-178.10
-177.04
-175.67
-176.17
-179.82
-186.90
-196.56
-206.98
-215.59
-219.65
-216.94
-206.53
-189.10
-166.66
-141.67
-116.09
-90.72
-65.37
-39.52
-13.13
12.91
37.03
57.77
74.43
87.51
98.29
108.06
117.55
126.65
134.72
141.23
146.19
150.20
154.09
158.43
163.26
168.02
171.73
173.31
171.79
166.53
157.34
144.55
129.16
112.85
97.82
86.44
80.65
81.31
87.67
97.34
106.83
112.58
112.08
104.57
91.01
73.52
54.46
35.78
18.83
4.43
-6.91
-15.18
-21.04
-25.98
-32.05
-41.25
-54.74
-72.47
-93.38
-115.73
-137.53
-156.92
-172.40
-183.14
-189.47
-193.23
-197.53
-205.31
-217.36
-231.05
-240.87
-241.12
-229.17
-207.35
-182.02
-160.24
-145.86
-137.66
-130.45
-118.29
-97.89
-70.16
-39.51
-11.51
9.42
21.10
23.44
17.49
4.65
-13.43
-34.72
-56.57
-75.59
-88.37
-92.62
-88.04
-76.78
-62.38
-47.93
-34.38
-19.94
-1.32
23.89
55.15
88.56
118.33
139.26
148.70
146.97
136.33
119.40
98.37
75.02
51.70
31.58
18.20
13.85
17.90
26.29
32.50
30.14
15.70
-9.67
-40.52
-69.32
-89.29
-96.90
-92.69
-80.62
-65.98
-53.22
-44.59
-40.05
-38.13
-36.82
-34.34
-29.49
-22.28
-14.13
-8.04
-7.90
-16.87
-35.71
-60.74
-83.96
-94.96
-85.37
-52.14
0.67
62.82
120.75
160.66
173.31
156.01
113.37
53.79
-12.33
-74.74
-124.67
-156.37
-169.93
-168.83
-159.50
-149.06
-147.61
-163.96
-201.75
-256.18
-314.70
-363.68
-389.74
-384.94
-348.00
-290.79
-232.39
-192.03
-180.95
-199.15
-240.04
-289.34
-330.76
-348.77
-340.18
-310.98
-272.00
-232.46
-173.64
-89.37
13.82
98.56
156.73
188.61
204.06
209.63
212.63
219.89
232.10
248.39
267.50
291.79
319.76
348.87
375.93
398.81
415.70
422.33
416.95
401.46
383.06
366.03
351.66
337.97
321.92
300.63
270.86
232.26
187.29
141.42
97.94
58.67
24.55
-2.99
-22.39
-33.55
-37.38
-35.96
-31.53
-27.56
-26.93
-30.84
-38.16
-46.23
-52.71
-56.65
-59.06
-62.23
-69.14
-81.62
-99.36
-119.97
-140.23
-157.13
-168.38
-172.04
-166.47
-150.77
-125.87
-95.27
-64.50
-39.11
-22.11
-12.62
-6.79
-0.61
7.07
13.72
15.00
8.45
-3.64
-13.93
-13.10
5.18
40.31
84.14
124.05
148.35
151.18
134.47
106.15
75.68
49.73
29.94
13.69
-3.19
-23.62
-47.97
-74.61
-101.47
-127.43
-152.49
-177.02
-200.91
-223.22
-242.60
-257.81
-268.05
-272.81
-271.58
-263.48
-247.34
-222.20
-187.78
-144.87
-95.42
-42.38
10.70
60.46
104.42
141.53
171.99
196.45
214.92
226.21
228.36
220.28
203.21
181.49
161.54
149.55
149.21
160.60
180.56
204.45
227.75
246.86
258.96
261.57
252.59
230.97
197.57
155.47
109.55
65.28
27.54
-0.28
-16.68
-22.20
-19.21
-11.25
-1.98
5.96
11.75
15.99
19.88
23.82
26.81
26.90
22.39
13.11
0.87
-10.99
-18.92
-20.32
-14.50
-2.86
11.47
24.59
32.85
33.96
27.49
14.77
-1.89
-20.29
-38.91
-56.88
-73.59
-88.17
-99.45
-106.44
-108.87
-107.24
-102.38
-94.75
-84.18
-70.36
-53.92
-37.27
-24.66
-21.04
-30.22
-53.38
-88.40
-130.35
-172.74
-208.90
-232.96
-240.57
-229.40
-199.73
-154.85
-100.86
-45.46
4.06
42.93
69.97
87.41
99.39
110.02
121.99
136.10
151.74
167.72
183.01
196.93
209.16
219.35
226.95
231.14
231.02
225.92
215.69
200.94
182.85
162.86
142.15
121.34
100.59
79.86
59.37
39.81
22.33
8.07
-2.20
-8.49
-11.56
-12.59
-12.93
-13.79
-16.14
-20.66
-27.71
-37.25
-48.82
-61.60
-74.54
-86.56
-96.67
-104.24
-109.06
-111.48
-112.32
-112.72
-113.90
-116.79
-121.77
-128.37
-135.30
-140.75
-142.83
-140.19
-132.50
-120.54
-105.98
-90.79
-76.57
-64.20
-53.87
-45.41
-38.64
-33.58
-30.33
-28.79
-28.74
-29.87
-32.09
-35.49
-40.09
-45.42
-50.45
-53.85
-54.57
-52.40
-48.05
-42.80
-37.90
-34.03
-31.15
-28.80
-26.38
-23.61
-20.62
-17.81
-15.75
-14.91
-15.50
-17.28
-19.66
-21.91
-23.43
-24.16
-24.53
-25.33
-27.28
-30.80
-35.78
-41.76
-48.19
-54.62
-60.90
-67.18
-73.82
-81.31
-90.27
-101.10
-113.71
-127.08
-139.23
-147.49
-149.31
-143.13
-129.03
-108.72
-85.05
-61.04
-38.92
-19.70
-3.11
11.94
26.83
42.72
60.13
78.88
98.09
116.52
133.01
146.96
158.55
168.57
178.10
187.92
198.23
208.66
218.67
227.88
236.23
243.96
251.23
258.03
264.14
269.48
274.21
278.49
281.95
283.08
279.19
267.14
244.63
211.42
169.72
123.42
76.54
31.70
-10.41
-50.32
-88.59
-124.76
-157.34
-184.64
-205.57
-220.16
-229.13
-233.34
-233.43
-230.11
-224.68
-219.42
-217.18
-220.29
-229.27
-242.16
-254.89
-262.70
-261.99
-251.72
-233.83
-212.62
-193.26
-180.21
-175.84
-180.17
-191.18
-205.86
-221.09
-234.52
-244.94
-252.45
-258.41
-264.97
-274.36
-287.76
-304.30
-320.78
-332.35
-334.14
-322.97
-298.59
-263.63
-222.50
-179.68
-138.52
-100.73
-66.83
-36.85
-10.81
11.24
29.63
45.41
60.35
76.54
95.70
118.50
144.19
170.60
194.57
212.76
222.54
222.70
213.75
197.63
177.04
154.62
132.30
111.09
91.16
72.23
53.81
35.49
17.16
-0.84
-17.54
-31.48
-40.92
-44.48
-41.47
-32.22
-17.97
-0.52
18.14
36.11
51.71
63.62
71.03
73.87
73.01
70.15
67.59
67.74
72.63
83.45
100.32
122.08
146.58
171.08
192.93
210.23
222.17
229.03
231.73
231.39
228.91
224.93
219.92
214.23
208.21
202.03
195.68
188.92
181.55
173.55
165.24
157.11
149.66
143.17
137.56
132.39
127.10
121.23
114.60
107.48
100.53
94.60
90.45
88.41
88.20
89.04
89.88
89.85
88.65
86.75
85.32
85.90
89.88
97.95
109.74
123.64
137.18
147.68
153.27
153.62
150.25
146.11
144.64
148.71
159.79
177.72
201.04
227.60
255.17
281.69
305.33
324.50
338.08
345.84
348.69
348.67
348.35
350.00
354.73
362.07
370.13
376.26
377.87
373.08
360.87
341.11
314.24
281.30
243.63
202.80
160.22
116.88
73.22
29.17
-15.59
-61.51
-108.79
-157.20
-205.77
-252.62
-294.92
-329.25
-352.51
-363.01
-361.47
-351.17
-337.09
-324.30
-316.23
-313.62
-314.72
-316.54
-316.43
-313.10
-306.56
-297.10
-284.21
-266.18
-240.96
-207.75
-168.29
-126.79
-88.41
-57.08
-34.02
-17.57
-4.63
7.33
19.00
29.22
36.37
39.90
40.96
41.64
43.44
45.97
46.71
42.21
29.97
9.83
-15.69
-42.47
-66.62
-86.13
-101.35
-113.92
-125.11
-134.54
-140.20
-139.79
-132.41
-119.44
-104.11
-89.93
-78.91
-70.76
-63.63
-55.75
-46.74
-38.05
-31.89
-29.86
-32.03
-36.86
-42.09
-45.88
-47.40
-46.98
-45.96
-45.98
-48.45
-53.93
-61.80
-70.22
-76.65
-78.74
-75.30
-67.00
-56.16
-45.81
-38.31
-34.15
-31.45
-26.65
-15.92
3.10
30.18
62.39
95.21
124.26
146.85
162.55
172.65
178.81
181.96
181.83
177.49
168.15
153.66
134.67
112.07
86.53
58.84
30.53
4.18
-17.14
-31.00
-37.03
-37.54
-36.95
-40.12
-50.44
-68.81
-93.67
-122.82
-153.73
-184.12
-211.74
-234.38
-250.30
-258.87
-261.00
-259.13
-258.01
-262.16
-274.58
-295.63
-322.78
-351.48
-376.28
-392.22
-396.00
-389.23
-376.08
-361.77
-350.20
-342.56
-337.46
-331.91
-322.41
-305.65
-282.06
-253.20
-221.61
-190.38
-163.25
-144.84
-139.85
-150.81
-158.65
-146.22
-102.32
-28.93
60.75
150.91
230.20
293.35
339.86
371.78
388.89
391.24
380.03
358.64
332.21
305.93
283.23
265.07
250.59
235.56
216.34
191.01
161.17
131.37
108.42
97.90
102.42
121.26
148.89
178.47
200.62
208.42
201.19
183.93
163.17
142.61
123.15
100.85
72.61
37.91
-0.49
-38.26
-72.29
-99.89
-121.68
-140.38
-159.84
-182.90
-210.61
-241.28
-270.83
-294.17
-306.87
-306.65
-293.64
-270.25
-240.11
-207.24
-174.72
-144.28
-116.35
-90.51
-66.20
-42.77
-19.79
2.96
25.14
46.00
64.48
79.40
89.86
95.40
96.48
94.47
91.52
89.94
91.67
97.67
107.57
119.79
131.80
140.95
145.12
143.27
135.56
123.27
108.32
92.77
78.10
64.89
52.76
40.85
28.31
14.86
0.83
-13.06
-26.14
-38.08
-48.88
-58.57
-67.00
-73.89
-79.14
-83.21
-87.27
-92.91
-101.47
-113.41
-127.81
-142.43
-154.15
-159.75
-156.72
-144.00
-122.21
-93.52
-61.05
-28.04
2.85
30.14
53.48
73.55
91.57
108.77
125.86
142.67
158.06
170.38
178.22
181.09
179.74
175.73
170.73
165.84
161.45
157.66
154.76
153.34
153.63
154.52
153.09
145.36
127.92
99.67
62.49
20.45
-22.12
-62.42
-99.83
-135.14
-168.78
-199.46
-224.19
-239.63
-244.00
-238.27
-225.82
-210.76
-196.16
-182.85
-169.62
-154.51
-136.10
-114.46
-90.91
-67.28
-45.01
-24.81
-6.81
9.06
22.99
35.37
47.22
60.40
77.32
100.22
130.05
165.70
203.95
240.21
269.86
289.51
297.80
295.27
283.78
265.79
243.63
219.38
194.63
170.29
146.38
122.21
97.02
70.98
45.66
23.62
7.30
-2.34
-6.26
-6.88
-6.68
-7.22
-8.79
-11.12
-14.40
-19.74
-28.86
-43.12
-62.62
-86.12
-111.73
-137.72
-163.17
-187.86
-211.72
-234.29
-254.42
-270.50
-281.10
-285.61
-284.61
-279.92
-274.24
-270.34
-270.16
-273.96
-279.88
-284.31
-282.92
-272.20
-250.77
-219.86
-182.81
-143.70
-105.85
-70.88
-38.80
-8.51
21.31
51.73
83.22
115.62
147.85
177.87
202.85
219.97
227.55
225.84
217.19
205.17
193.24
183.45
176.04
169.82
163.05
154.40
143.36
130.27
116.04
101.67
87.97
75.35
63.74
52.81
42.18
31.65
21.23
11.01
0.93
-9.36
-20.35
-32.55
-46.10
-60.81
-76.15
-91.36
-105.36
-116.63
-123.09
-122.29
-111.92
-90.70
-58.93
-18.83
25.90
71.01
112.77
148.90
178.77
203.23
224.05
243.08
261.83
281.29
301.94
323.93
347.15
370.93
393.68
412.63
423.92
423.58
408.80
379.20
337.28
287.75
235.89
185.82
139.32
95.78
53.16
9.17
-37.77
-88.07
-140.91
-194.37
-245.74
-291.95
-330.22
-358.67
-376.80
-385.56
-386.79
-382.79
-375.73
-367.48
-359.51
-352.76
-347.47
-343.07
-338.00
-330.11
-317.11
-297.14
-269.29
-233.97
-193.13
-149.97
-108.05
-69.90
-36.12
-5.26
25.23
57.48
91.77
126.15
157.13
181.19
196.68
203.86
204.38
200.20
192.75
182.76
170.69
157.31
144.06
133.93
129.34
131.06
137.74
146.67
155.13
161.53
165.79
169.06
175.27
187.36
205.91
228.73
252.20
272.99
289.25
300.69
308.28
317.41
333.09
357.83
390.53
427.13
462.15
489.85
505.20
505.04
493.59
477.14
461.05
447.49
435.77
424.07
411.00
396.21
350.79
260.54
129.87
-18.72
-157.65
-268.62
-346.42
-394.62
-420.08
-427.92
-421.00
-400.90
-370.75
-336.33
-304.36
-279.80
-264.65
-258.57
-258.69
-258.41
-252.33
-238.70
-220.00
-200.94
-185.53
-175.24
-168.77
-163.03
-152.73
-134.07
-106.56
-73.07
-38.01
-5.28
22.67
44.48
59.29
67.29
69.11
65.58
57.84
47.28
35.37
23.17
11.08
-0.89
-12.50
-23.37
-33.33
-42.77
-52.54
-63.49
-76.07
-90.09
-104.79
-119.04
-131.39
-140.23
-144.07
-141.99
-134.07
-121.83
-107.86
-95.06
-85.52
-79.68
-76.11
-72.15
-65.02
-52.96
-35.98
-16.07
3.92
21.40
35.24
46.18
56.41
68.50
83.86
101.69
118.48
129.51
130.73
120.59
100.73
75.36
49.62
27.72
11.85
1.21
-6.42
-13.46
-21.74
-33.07
-49.86
-75.00
-110.39
-154.70
-203.92
-249.99
-283.53
-298.07
-293.80
-277.78
-260.62
-251.39
-254.19
-271.80
-303.28
-345.46
-394.10
-445.13
-494.63
-538.37
-571.77
-591.09
-600.39
-603.78
-602.44
-593.81
-574.52
-543.69
-504.14
-460.87
-419.01
-390.45
-383.29
-399.00
-432.38
-475.23
-519.24
-557.17
-582.63
-542.31
-411.13
-201.95
38.15
257.91
427.23
541.19
609.26
645.07
660.29
655.27
630.23
589.79
543.87
501.03
467.82
445.22
430.05
417.41
397.18
363.41
317.23
268.64
228.32
203.98
197.44
205.63
222.61
238.56
246.75
245.45
237.41
226.20
214.00
200.50
185.39
167.43
144.54
116.75
85.89
54.75
25.27
-1.98
-28.06
-54.79
-83.84
-116.34
-150.63
-182.12
-204.26
-211.14
-199.49
-170.12
-127.37
-75.19
-20.51
30.31
73.01
105.63
128.01
141.03
146.10
144.78
138.66
128.90
116.82
103.57
89.95
76.31
62.44
47.68
31.19
12.38
-8.77
-30.89
-51.79
-69.19
-81.58
-88.66
-91.32
-91.37
-91.14
-92.88
-98.03
-106.53
-116.48
-124.16
-124.57
-112.57
-83.98
-36.94
27.06
102.49
180.09
248.43
296.89
318.83
313.76
287.17
248.35
207.07
170.11
139.87
114.70
90.63
62.96
27.51
-18.17
-73.58
-133.41
-189.08
-231.18
-252.76
-251.97
-232.77
-203.73
-174.30
-151.83
-137.60
-129.96
-126.59
-125.42
-124.00
-118.33
-103.80
-76.42
-36.65
12.29
61.69
100.64
122.14
127.79
128.12
136.60
164.61
215.67
289.22
377.81
469.40
551.29
612.91
648.02
653.94
633.80
569.83
463.47
336.80
223.35
148.64
116.86
122.04
142.53
161.31
168.63
166.22
159.72
149.52
137.37
124.06
110.07
95.00
79.73
65.08
55.00
51.84
54.73
60.79
66.20
68.62
66.76
61.27
52.64
42.49
30.82
15.61
-5.53
-34.39
-70.43
-111.24
-152.41
-189.40
-217.66
-234.62
-240.15
-235.75
-224.02
-207.41
-187.90
-166.56
-144.15
-121.01
-97.90
-76.14
-57.22
-42.56
-32.92
-28.36
-28.11
-31.11
-36.40
-43.56
-53.00
-65.63
-82.55
-104.35
-130.77
-160.62
-192.05
-223.11
-252.51
-279.79
-305.46
-330.63
-356.67
-384.81
-415.72
-449.00
-482.80
-513.69
-537.36
-549.53
-547.46
-530.84
-501.87
-464.37
-422.28
-378.36
-333.81
-288.95
-244.40
-201.99
-164.61
-135.18
-115.14
-103.55
-97.24
-92.08
-84.78
-74.12
-61.25
-48.76
-39.40
-34.91
-35.58
-40.51
-48.13
-56.91
-65.62
-73.64
-81.16
-89.07
-98.83
-111.56
-127.23
-143.77
-157.94
-166.53
-168.19
-163.48
-154.75
-145.05
-136.83
-130.93
-126.26
-120.92
-113.28
-102.92
-89.74
-73.74
-54.80
-32.90
-8.31
18.89
47.57
75.49
98.79
114.57
121.03
117.58
104.55
83.45
58.88
35.82
18.08
5.56
-0.71
0.18
8.80
24.37
45.60
75.45
116.19
167.32
221.29
275.09
328.68
384.11
441.59
498.96
557.89
616.24
666.91
693.74
692.04
666.40
628.29
588.43
554.97
541.04
554.51
595.18
646.65
700.11
750.34
794.85
828.58
793.73
659.49
436.53
226.97
62.12
-52.40
-136.10
-196.49
-241.56
-280.13
-311.79
-335.28
-350.62
-368.21
-387.71
-405.00
-415.85
-422.24
-428.97
-433.37
-431.19
-419.69
-406.42
-393.12
-379.60
-363.92
-345.97
-325.49
-297.45
-257.58
-204.87
-146.40
-86.13
-26.57
31.27
85.41
134.17
178.84
221.21
261.94
297.53
325.35
343.26
350.40
346.89
334.47
316.77
297.19
277.62
257.53
236.74
215.92
196.78
180.72
167.98
157.15
145.66
131.18
113.05
92.94
74.36
61.24
56.20
59.46
68.55
79.23
86.89
88.05
81.42
68.02
50.59
32.42
16.35
4.06
-4.04
-8.50
-10.56
-11.77
-13.84
-18.26
-26.03
-37.34
-51.64
-67.95
-85.33
-103.09
-120.74
-137.61
-152.50
-163.77
-169.86
-170.09
-165.27
-157.64
-150.24
-145.79
-145.83
-150.41
-158.49
-168.79
-180.59
-193.95
-209.23
-226.53
-245.00
-262.72
-276.98
-284.81
-283.63
-271.75
-248.77
-215.62
-174.46
-128.30
-80.44
-33.76
9.84
49.68
85.77
117.85
144.55
163.26
171.06
166.24
149.68
125.16
98.32
74.73
58.04
49.12
46.44
47.46
49.67
51.12
50.15
44.93
33.56
14.82
-10.71
-40.13
-68.61
-91.06
-104.08
-107.53
-104.86
-102.04
-105.57
-120.25
-147.62
-185.30
-227.58
-266.53
-293.94
-303.24
-291.13
-258.38
-209.41
-150.94
-90.20
-33.62
13.60
47.24
63.99
61.88
41.27
5.55
-39.70
-88.86
-138.58
-188.93
-242.24
-300.11
-360.47
-416.88
-460.40
-483.35
-482.70
-461.14
-425.56
-383.95
-342.44
-304.10
-269.43
-237.85
-208.94
-182.75
-159.34
-138.17
-117.91
-96.83
-73.61
-47.93
-20.56
7.03
33.48
58.16
81.34
103.83
126.47
149.50
172.44
194.22
213.84
230.90
245.90
260.19
275.69
294.35
317.32
344.27
372.98
399.77
420.49
431.78
432.24
422.62
405.29
383.16
358.71
333.64
309.31
287.46
270.62
261.76
263.03
274.46
293.19
313.64
328.73
331.58
317.19
283.66
232.69
169.11
99.68
31.63
-28.98
-78.57
-116.48
-144.39
-164.96
-180.21
-190.37
-194.01
-189.01
-174.09
-149.69
-117.98
-81.72
-43.00
-2.48
40.15
85.01
130.77
174.41
212.16
241.22
261.15
274.01
283.18
291.34
299.06
304.69
305.73
300.76
290.59
277.90
265.68
255.58
247.21
238.68
227.91
213.73
196.25
176.33
154.89
132.51
109.73
87.41
66.96
49.86
36.94
27.85
21.03
14.30
5.47
-6.91
-22.94
-40.98
-57.82
-69.44
-72.49
-65.86
-51.50
-33.90
-18.40
-8.88
-6.42
-9.30
-14.49
-19.55
-23.80
-28.08
-33.52
-40.29
-47.07
-51.77
-52.77
-49.73
-43.52
-35.32
-25.65
-14.16
-0.42
15.08
30.42
42.78
49.82
50.74
46.50
38.98
29.77
19.51
8.40
-2.84
-12.23
-16.90
-14.56
-5.10
8.84
22.69
32.09
34.67
30.93
23.56
15.92
10.38
7.57
6.57
5.77
3.88
0.34
-4.72
-10.97
-18.20
-26.45
-36.01
-47.15
-60.11
-74.97
-91.74
-110.33
-130.46
-151.64
-173.21
-194.46
-214.98
-234.80
-254.51
-274.99
-296.99
-320.74
-345.64
-370.68
-394.69
-417.04
-437.81
-457.87
-478.62
-501.82
-529.47
-563.34
-603.92
-649.17
-693.62
-729.02
-746.54
-739.94
-708.03
-655.19
-589.42
-519.27
-450.84
-386.76
-326.85
-269.97
-215.47
-163.49
-114.32
-67.61
-22.17
23.44
70.12
117.68
165.14
210.83
253.21
290.98
322.99
348.14
365.23
373.06
370.80
358.32
336.16
305.26
266.92
222.93
175.57
127.34
80.20
34.69
-10.49
-57.86
-109.37
-164.56
-219.74
-268.71
-305.04
-324.64
-327.22
-316.07
-296.39
-273.12
-249.60
-227.50
-207.42
-189.70
-174.74
-162.83
-153.80
-146.77
-140.19
-132.45
-122.51
-110.21
-96.10
-81.21
-66.36
-51.79
-37.09
-21.34
-3.79
15.84
37.04
58.75
79.69
98.93
116.22
131.99
147.09
162.26
177.78
193.35
208.28
221.83
233.58
243.66
252.67
261.54
271.31
283.00
297.37
314.43
333.11
351.06
365.15
372.31
370.65
360.09
342.36
320.15
296.06
271.84
248.15
225.05
202.53
180.77
160.13
140.82
122.68
105.28
88.22
71.46
55.42
40.64
27.49
15.69
4.22
-8.36
-23.32
-41.22
-61.35
-81.75
-99.58
-111.85
-116.21
-111.64
-98.68
-79.30
-56.37
-32.76
-10.68
8.84
26.04
41.96
57.94
74.79
92.36
109.54
124.85
137.09
145.83
151.53
155.34
158.73
162.90
168.41
175.09
182.34
189.51
196.13
202.08
207.53
212.98
218.72
224.47
229.25
231.66
230.19
223.48
210.49
190.89
165.89
137.20
106.30
73.82
39.96
4.99
-30.11
-63.72
-93.35
-115.26
-127.06
-129.22
-125.21
-119.49
-115.40
-114.26
-116.02
-119.07
-118.93
-111.31
-93.67
-66.38
-32.28
3.39
33.46
49.86
47.84
31.41
10.52
-2.94
-0.60
19.94
54.76
95.88
133.94
142.68
106.79
29.46
-68.74
-165.60
-249.53
-319.61
-375.76
-424.31
-466.49
-497.06
-510.55
-504.94
-483.12
-449.95
-410.47
-368.14
-325.32
-282.00
-235.22
-182.68
-124.79
-65.37
-9.87
36.65
70.98
91.74
100.57
102.33
102.56
105.93
115.51
133.34
160.51
196.23
236.09
272.17
294.79
295.08
268.97
219.57
157.07
95.18
45.86
15.07
1.88
0.73
5.01
10.15
14.47
18.23
22.02
24.81
24.79
20.32
11.14
-1.38
-14.68
-26.38
-34.80
-38.56
-36.82
-28.44
-13.05
7.52
28.21
41.31
39.06
17.16
-21.96
-70.98
-118.86
-155.46
-174.85
-176.22
-162.74
-139.09
-109.55
-75.24
-39.31
-3.20
31.25
61.76
85.98
101.99
108.86
107.14
103.09
97.71
94.42
94.74
97.99
102.11
105.01
105.77
104.85
110.50
119.99
132.58
144.74
152.04
151.95
145.50
137.08
132.31
145.54
174.42
217.65
270.06
325.62
380.94
436.22
493.19
513.38
543.70
571.35
587.59
585.89
566.30
537.15
511.44
500.17
474.39
419.17
318.18
178.97
22.15
-130.12
-262.07
-366.92
-445.60
-503.19
-535.55
-548.26
-545.20
-531.86
-516.10
-505.38
-504.30
-513.42
-529.26
-539.02
-536.68
-516.77
-475.91
-417.42
-348.65
-278.64
-216.17
-167.93
-133.59
-113.10
-103.55
-101.80
-105.94
-114.56
-126.30
-139.72
-153.31
-163.60
-168.49
-165.98
-154.82
-135.21
-108.40
-76.74
-43.59
-12.72
13.08
32.23
44.73
52.00
55.97
58.66
61.45
64.74
67.99
70.11
70.10
67.66
63.38
58.56
54.91
54.13
57.32
64.59
74.90
86.27
96.37
103.13
105.33
102.97
97.11
89.38
81.41
74.27
68.30
63.12
57.91
51.93
44.94
37.41
30.48
25.36
22.76
22.44
23.23
23.72
22.88
20.60
17.46
14.15
10.82
6.86
1.32
-6.38
-15.90
-25.94
-34.88
-41.51
-45.42
-46.97
-46.77
-44.99
-41.13
-34.03
-22.35
-5.12
17.77
45.47
76.34
108.40
139.83
169.35
196.23
220.17
240.98
258.28
271.36
279.08
279.93
272.29
254.77
226.94
189.88
146.53
101.17
58.48
22.28
-5.41
-24.51
-36.53
-43.69
-48.30
-52.41
-57.76
-65.73
-77.19
-92.16
-109.68
-127.90
-144.59
-157.65
-165.69
-168.30
-166.03
-160.26
-152.90
-145.78
-140.17
-136.32
-133.31
-129.47
-123.21
-113.90
-102.35
-90.68
-81.53
-77.07
-78.23
-84.49
-94.19
-105.05
-114.75
-121.30
-123.32
-120.15
-112.02
-99.91
-85.30
-69.71
-54.22
-39.34
-25.07
-11.18
2.57
16.44
30.73
45.69
61.31
77.08
91.92
104.61
114.40
121.42
126.77
131.93
137.95
144.91
151.81
157.24
160.16
160.50
159.10
157.13
155.50
154.54
154.24
154.43
154.84
154.86
153.21
148.13
138.11
122.98
104.48
85.88
70.50
60.06
53.87
49.39
43.96
36.40
27.53
19.06
11.96
5.17
-4.42
-20.49
-45.40
-78.84
-117.67
-156.77
-190.49
-213.96
-224.17
-220.73
-206.14
-185.06
-162.69
-142.68
-125.40
-107.70
-84.57
-51.84
-8.82
40.84
90.34
132.42
162.03
177.69
181.24
176.24
166.40
154.24
140.68
125.19
106.29
82.27
51.89
15.07
-26.76
-70.70
-112.81
-148.73
-174.37
-186.66
-184.29
-168.12
-140.97
-106.68
-68.63
-28.74
12.59
55.25
97.77
136.24
165.01
178.72
174.74
154.51
122.96
86.32
49.67
15.34
-17.07
-49.43
-83.60
-120.19
-158.16
-194.91
-226.97
-250.76
-263.36
-262.96
-249.07
-222.36
-184.44
-137.71
-85.38
-31.53
18.98
60.98
89.82
102.41
98.00
78.52
48.28
12.98
-21.42
-49.93
-69.34
-78.56
-78.41
-70.98
-58.91
-44.66
-29.93
-15.39
-0.77
14.62
31.04
47.70
62.63
73.28
77.58
75.05
67.13
56.57
46.41
38.68
33.93
31.42
29.85
28.08
25.57
22.43
19.08
16.09
13.90
12.74
12.34
11.60
8.47
0.29
-15.25
-38.63
-67.36
-95.99
-117.43
-125.42
-116.86
-92.89
-58.26
-19.21
18.82
52.60
80.76
102.82
117.99
125.01
123.07
112.94
97.48
80.85
66.96
57.74
52.43
48.21
41.83
31.44
17.50
2.44
-10.68
-19.71
-24.28
-25.69
-25.99
-26.98
-29.42
-33.19
-37.73
-42.67
-47.93
-53.57
-59.42
-64.87
-69.09
-71.50
-72.29
-72.47
-73.60
-76.74
-81.58
-86.17
-87.49
-82.71
-70.44
-51.43
-28.40
-5.09
15.00
29.76
38.74
42.77
43.01
40.11
33.87
23.82
10.14
-5.65
-20.60
-30.93
-33.28
-25.70
-8.21
17.45
48.42
81.45
113.06
139.51
156.98
162.24
153.40
130.77
97.21
57.48
17.06
-19.39
-49.16
-71.67
-87.79
-98.94
-106.31
-110.78
-113.42
-115.78
-119.54
-125.79
-134.10
-142.41
-147.76
-147.53
-140.63
-127.75
-110.83
-92.05
-73.01
-54.39
-36.29
-18.85
-2.80
10.48
19.34
22.76
21.12
16.43
11.88
10.72
14.93
24.47
37.30
49.96
58.54
59.36
49.62
28.30
-2.98
-39.55
-74.25
-99.25
-108.57
-100.07
-75.97
-41.72
-3.89
31.76
61.15
81.81
92.33
92.27
82.62
66.31
47.89
32.44
23.67
22.56
27.19
33.80
38.67
39.79
37.62
34.48
33.14
35.11
39.65
43.77
43.35
34.86
16.85
-9.35
-40.08
-70.60
-96.64
-115.49
-126.37
-130.13
-128.59
-123.87
-118.06
-113.02
-110.33
-111.09
-115.60
-123.09
-131.76
-139.27
-143.55
-143.73
-140.71
-136.96
-135.53
-138.64
-146.52
-157.03
-166.41
-170.71
-166.95
-153.86
-131.98
-103.35
-71.61
-42.13
-21.77
-17.45
-33.38
-68.40
-114.57
-158.77
-186.87
-188.55
-160.46
-106.11
-33.19
49.62
134.42
213.84
280.09
324.89
341.30
326.74
284.98
225.80
162.01
105.22
62.49
35.35
21.15
15.50
14.53
15.67
16.93
15.95
9.69
-4.40
-26.48
-52.55
-74.63
-83.45
-72.31
-40.08
8.16
63.27
115.15
154.99
176.29
174.85
149.08
101.11
37.78
-29.71
-88.34
-127.09
-140.26
-128.45
-96.88
-52.63
-2.36
48.62
96.06
136.29
166.67
186.13
195.67
197.88
195.84
192.06
187.95
183.82
178.99
171.98
160.58
142.23
114.86
77.89
33.09
-15.51
-62.61
-103.23
-134.04
-154.03
-164.31
-166.90
-163.77
-156.06
-144.01
-127.19
-105.14
-77.90
-46.69
-14.24
15.32
36.99
46.14
40.18
20.18
-8.25
-36.00
-53.07
-51.79
-29.71
9.63
58.31
107.11
148.66
178.84
196.26
201.26
195.05
179.32
156.43
129.92
104.21
83.70
71.57
68.55
73.02
82.19
93.00
103.17
111.65
118.19
123.21
126.74
127.72
124.35
116.13
103.46
87.85
71.27
54.46
38.54
24.27
11.82
1.41
-4.10
-1.87
10.03
31.49
58.29
87.64
117.66
147.19
176.34
209.39
249.92
298.99
353.91
405.81
449.13
480.70
498.77
503.58
500.53
494.48
488.37
482.43
471.22
455.00
436.75
419.24
374.62
285.43
148.96
-17.43
-158.12
-256.65
-311.26
-326.25
-316.33
-293.14
-263.88
-235.61
-214.70
-206.27
-217.16
-245.42
-284.60
-327.46
-367.01
-395.26
-407.66
-403.92
-388.23
-370.98
-358.84
-355.12
-360.01
-369.60
-373.97
-362.68
-330.15
-279.84
-225.15
-178.61
-147.56
-132.72
-129.18
-129.21
-126.74
-120.36
-111.83
-105.01
-101.38
-100.17
-99.49
-97.27
-91.96
-83.37
-72.52
-61.11
-51.43
-44.48
-40.22
-37.95
-36.61
-35.37
-34.26
-34.29
-36.90
-43.07
-51.67
-60.08
-65.11
-64.52
-58.03
-47.47
-36.00
-26.48
-20.40
-16.30
-11.74
-4.64
6.09
20.48
38.05
58.27
80.60
104.52
131.14
161.33
195.38
232.52
271.06
308.94
344.37
375.88
392.07
384.68
350.51
293.78
224.25
152.87
88.00
34.09
-8.47
-41.96
-68.34
-89.25
-105.10
-115.53
-120.60
-121.92
-123.02
-129.05
-143.14
-163.88
-186.44
-204.41
-212.59
-209.18
-196.23
-175.94
-153.38
-132.22
-112.49
-92.03
-68.65
-42.33
-15.69
7.19
22.81
29.57
28.87
24.10
18.30
12.83
7.45
1.57
-4.45
-9.05
-10.74
-8.88
-4.41
0.44
3.52
4.07
2.98
1.82
1.47
1.30
0.09
-2.61
-5.43
-5.33
0.76
13.81
31.64
49.41
61.69
64.97
59.12
47.15
33.44
21.72
13.69
9.04
6.51
5.00
4.26
4.76
7.25
12.07
18.63
25.54
30.92
32.93
30.34
22.78
11.02
-3.23
-17.82
-30.83
-40.96
-47.72
-51.22
-51.79
-49.76
-45.44
-39.21
-31.84
-24.43
-18.14
-13.98
-12.32
-12.75
-14.14
-15.24
-15.20
-13.98
-12.27
-10.98
-10.87
-12.10
-13.98
-15.48
-15.77
-14.66
-12.77
-11.26
-11.14
-12.90
-16.22
-19.99
-22.83
-23.74
-22.17
-18.29
-12.81
-6.46
0.02
5.74
9.68
11.00
9.85
8.02
8.75
15.37
29.42
49.15
69.56
84.71
90.12
84.87
71.70
55.28
39.96
28.17
19.91
14.31
10.87
9.70
11.02
14.17
17.09
16.84
11.06
-0.95
-17.30
-34.10
-47.21
-53.92
-53.92
-49.24
-42.67
-36.56
-31.64
-27.03
-21.13
-12.74
-1.91
10.09
21.34
30.09
35.33
37.00
35.86
32.94
29.27
25.70
22.79
20.70
19.03
16.73
12.41
4.94
-5.77
-18.39
-30.44
-39.24
-43.00
-41.47
-35.89
-28.21
-20.32
-13.29
-7.50
-2.84
0.83
3.35
4.60
4.81
4.65
5.01
6.74
10.15
15.07
20.85
26.42
30.85
33.55
34.44
33.70
31.70
28.70
24.88
20.36
15.21
9.71
4.25
-0.60
-4.30
-6.46
-7.13
-6.63
-5.55
-4.59
-4.27
-5.00
-6.86
-9.55
-12.52
-15.28
-17.29
-18.12
-17.46
-15.03
-10.90
-5.29
1.52
9.29
17.37
25.22
32.30
38.17
42.43
44.81
45.28
44.04
41.67
38.40
34.74
31.16
28.03
25.51
23.63
22.45
22.22
23.52
26.15
30.15
35.37
41.34
47.29
52.31
55.74
57.43
57.91
56.99
54.83
51.43
46.42
38.91
27.73
11.30
-12.99
-40.77
-71.21
-103.73
-137.13
-168.93
-195.57
-213.38
-220.08
-215.53
-201.28
-180.48
-154.99
-125.11
-90.61
-52.28
-13.03
22.61
50.32
68.08
76.13
77.50
76.26
75.76
77.92
83.33
91.77
102.55
114.63
126.02
134.63
138.61
136.63
128.14
113.50
94.16
72.72
52.52
36.64
27.10
23.98
25.16
27.11
26.23
20.11
8.14
-8.83
-29.30
-51.70
-74.55
-96.25
-114.91
-128.68
-136.61
-139.38
-139.57
-140.67
-145.54
-154.64
-165.40
-172.89
-172.10
-160.31
-138.47
-111.16
-84.55
-64.13
-52.52
-48.85
-49.57
-50.24
-47.27
-39.02
-25.93
-9.94
6.19
19.58
27.65
28.52
21.40
7.08
-11.97
-32.03
-49.11
-60.29
-64.64
-63.26
-58.67
-53.54
-49.82
-48.53
-50.25
-55.43
-64.63
-78.18
-95.55
-115.26
-135.13
-153.18
-168.38
-181.08
-192.58
-204.35
-217.17
-230.82
-244.25
-256.09
-265.10
-270.45
-271.72
-268.92
-262.57
-253.56
-242.98
-231.72
-220.20
-208.21
-195.28
-181.01
-165.44
-149.06
-132.52
-116.30
-100.49
-84.95
-69.61
-54.72
-40.89
-28.82
-19.08
-11.82
-6.81
-3.54
-1.46
-0.05
1.07
2.31
4.13
7.07
11.66
18.35
27.31
38.37
51.18
65.21
80.06
95.42
111.16
127.17
143.31
159.36
175.04
190.10
204.38
217.87
230.66
242.97
255.28
268.29
282.72
298.76
315.54
330.83
341.51
344.45
337.80
321.55
297.64
269.05
238.76
209.03
181.09
155.52
132.49
111.86
92.96
74.56
55.20
33.97
11.20
-11.15
-29.94
-41.92
-44.90
-38.65
-24.96
-6.90
12.29
30.23
46.06
60.23
74.01
88.66
104.74
121.97
139.33
155.39
168.91
179.25
186.71
192.42
198.03
205.11
214.58
226.34
239.37
252.13
263.16
271.59
277.18
280.15
280.57
278.02
271.48
259.60
241.26
215.93
184.02
146.86
106.45
64.95
24.18
-14.93
-52.69
-90.63
-130.86
-174.55
-220.42
-263.97
-298.11
-315.47
-311.47
-286.61
-246.95
-201.90
-161.25
-131.97
-116.54
-113.11
-117.51
-125.22
-132.73
-137.64
-138.03
-132.16
-118.65
-96.78
-66.93
-30.92
8.30
47.53
84.42
118.59
150.94
182.94
215.86
250.49
286.64
323.47
359.84
394.37
426.32
453.18
470.68
474.78
464.16
441.22
411.25
380.55
354.17
336.58
327.19
320.61
310.25
291.85
264.20
227.97
184.37
134.63
83.65
33.76
-16.09
-67.16
-117.55
-162.49
-196.76
-216.79
-221.54
-207.67
-177.52
-139.73
-104.48
-78.77
-66.20
-68.99
-88.43
-154.06
-262.39
-377.42
-459.22
-492.07
-483.46
-450.90
-411.98
-378.82
-356.05
-337.24
-316.74
-294.53
-274.18
-258.28
-246.95
-238.85
-232.23
-225.74
-215.13
-199.27
-180.96
-163.61
-147.29
-128.89
-104.95
-74.34
-39.68
-6.46
17.06
22.79
7.84
-21.70
-52.68
-70.53
-65.60
-36.54
11.93
69.30
122.47
160.51
177.98
175.21
156.50
127.47
93.69
59.91
29.25
2.85
-19.38
-38.26
-55.05
-69.40
-79.89
-84.12
-79.66
-65.31
-42.53
-15.61
9.32
26.42
32.54
27.29
12.02
-11.27
-40.32
-72.66
-105.27
-134.95
-158.70
-173.68
-178.91
-175.86
-167.66
-157.07
-145.41
-132.32
-116.67
-96.92
-70.78
-36.95
3.69
48.25
93.20
135.44
173.22
205.84
225.71
226.72
209.31
179.96
145.19
108.70
72.10
38.82
8.12
-19.82
-43.63
-62.54
-77.26
-89.93
-99.83
-106.55
-109.30
-107.66
-101.22
-89.50
-73.05
-53.97
-35.47
-20.02
-8.53
0.35
8.84
18.85
31.03
44.02
54.81
59.95
57.60
48.23
34.77
20.89
9.17
0.64
-4.98
-8.67
-11.54
-13.52
-13.18
-7.63
5.96
27.74
54.91
82.28
103.21
110.74
100.60
73.08
34.35
-5.75
-39.11
-62.06
-75.96
-82.43
-84.74
-87.43
-93.51
-102.59
-105.12
-92.95
-63.08
-14.38
49.95
122.34
194.50
252.63
282.88
280.66
253.67
215.88
178.24
144.07
108.05
65.40
10.84
-53.01
-118.19
-176.82
-224.41
-260.99
-275.55
-265.86
-237.11
-198.62
-157.06
-115.12
-74.08
-35.97
-3.65
20.49
33.66
36.11
30.93
23.70
19.56
20.88
26.99
35.54
44.16
49.89
51.57
50.05
47.82
47.26
49.30
53.32
57.83
61.46
62.38
59.56
53.20
44.52
34.97
25.64
17.13
9.77
3.86
-0.82
-4.96
-9.02
-13.21
-17.66
-22.28
-26.77
-30.59
-33.03
-33.66
-33.15
-32.42
-32.84
-36.01
-43.36
-55.75
-73.27
-95.62
-117.10
-134.26
-144.75
-147.95
-145.10
-138.90
-132.70
-129.42
-130.49
-135.28
-142.08
-147.79
-149.27
-144.45
-132.99
-116.28
-96.75
-76.84
-58.13
-41.68
-27.48
-15.07
-3.86
6.79
17.60
29.28
42.30
56.63
71.07
84.02
93.95
100.04
102.65
103.15
103.40
104.87
108.14
112.46
116.46
118.58
117.78
113.72
106.72
97.54
87.27
77.11
68.19
61.33
56.82
54.31
53.02
52.33
52.40
54.35
59.74
69.53
83.05
97.63
109.33
114.61
111.87
102.15
88.52
74.48
62.39
52.59
43.75
33.93
21.80
7.21
-9.07
-26.10
-43.33
-60.77
-78.49
-96.07
-112.32
-125.68
-134.98
-140.12
-142.08
-142.29
-141.74
-140.31
-137.09
-131.21
-122.78
-113.15
-104.47
-98.65
-96.81
-99.17
-105.70
-116.59
-132.25
-152.85
-177.69
-204.89
-231.71
-255.06
-272.22
-281.05
-280.32
-269.73
-250.09
-223.35
-192.34
-160.06
-128.91
-100.18
-73.97
-49.61
-26.19
-3.06
19.99
42.66
64.26
83.87
100.34
112.61
119.74
121.21
116.94
107.40
93.55
76.72
58.38
40.03
23.15
9.24
-0.24
-4.03
-1.49
7.01
19.94
35.03
49.97
63.32
74.85
85.30
95.78
106.89
118.37
129.18
138.16
144.41
147.74
148.53
147.42
145.06
141.80
137.78
133.05
127.80
122.38
117.21
112.64
108.74
105.32
102.09
98.92
95.90
93.24
91.12
89.38
87.62
85.29
81.99
77.67
73.05
68.77
64.66
60.73
57.18
53.94
50.79
47.47
43.76
40.00
36.49
32.94
29.62
27.08
25.50
24.51
23.27
20.77
17.25
12.94
6.80
-0.63
-7.66
-12.74
-14.77
-13.21
-8.09
2.82
19.74
37.41
53.38
68.26
82.78
97.71
113.54
130.18
152.57
181.97
208.60
228.60
244.11
257.05
269.12
281.47
294.56
317.31
352.92
386.71
412.56
432.85
448.91
461.69
472.07
480.91
500.48
535.45
566.24
583.41
588.27
581.56
565.21
542.82
445.10
258.53
106.53
15.67
-45.52
-87.41
-117.15
-139.63
-158.35
-175.95
-182.81
-175.61
-173.25
-182.60
-198.84
-218.20
-237.81
-255.67
-270.72
-273.67
-260.98
-247.03
-237.53
-229.70
-221.84
-213.06
-202.99
-191.76
-174.14
-148.33
-123.56
-103.50
-86.35
-70.99
-56.73
-43.25
-30.57
-16.18
0.71
15.53
26.40
34.18
39.42
42.58
44.01
43.98
43.75
43.99
43.38
41.60
39.22
36.58
33.82
30.91
27.71
23.94
19.37
13.75
6.82
-1.65
-11.93
-24.33
-39.13
-56.41
-76.02
-97.37
-119.44
-140.88
-160.21
-176.12
-187.68
-194.45
-196.50
-194.23
-188.26
-179.25
-167.95
-155.23
-142.25
-130.46
-121.46
-116.76
-117.39
-123.64
-135.01
-150.50
-168.88
-189.13
-210.67
-233.37
-257.53
-283.82
-313.03
-345.78
-381.89
-419.70
-455.92
-486.18
-506.22
-513.35
-507.40
-490.66
-467.07
-440.93
-415.68
-393.34
-374.44
-358.39
-344.05
-330.14
-315.42
-298.52
-277.96
-252.34
-220.74
-183.45
-142.42
-101.31
-64.77
-37.17
-21.21
-17.15
-22.67
-33.62
-45.02
-52.03
-50.91
-39.84
-19.49
6.93
34.37
57.21
70.88
72.89
63.27
44.07
18.83
-8.29
-33.24
-52.91
-65.99
-73.55
-78.73
-85.43
-96.47
-111.81
-128.23
-140.43
-143.18
-133.44
-111.10
-78.52
-38.98
4.57
50.09
95.99
140.45
181.20
216.02
243.70
264.64
280.79
294.50
307.12
318.05
324.90
324.65
315.35
297.32
273.38
247.89
225.05
207.45
195.28
186.67
178.50
167.54
151.14
127.65
96.68
59.31
17.99
-23.60
-61.28
-91.36
-111.89
-123.27
-128.09
-129.59
-130.10
-129.62
-125.74
-114.99
-94.45
-62.88
-20.85
29.80
86.13
143.67
195.90
234.93
253.88
250.12
227.58
196.16
168.17
153.26
154.81
169.72
191.40
213.99
235.11
255.85
278.58
304.32
331.48
356.25
374.24
382.05
378.02
362.56
337.52
305.68
270.03
233.08
196.53
161.21
127.31
94.69
63.30
33.24
4.70
-22.19
-47.17
-69.64
-88.52
-102.57
-111.01
-114.24
-114.10
-113.48
-115.30
-121.60
-133.14
-149.61
-170.20
-193.96
-219.67
-245.54
-269.12
-287.63
-299.06
-303.21
-302.00
-299.02
-298.17
-302.32
-312.42
-327.56
-345.37
-362.90
-376.93
-384.11
-381.37
-366.61
-339.79
-303.47
-262.51
-222.53
-187.91
-160.18
-137.77
-117.43
-96.23
-73.20
-49.43
-26.72
-5.91
14.23
36.54
63.72
96.45
132.42
166.76
193.69
208.74
210.44
200.93
185.11
168.75
156.36
149.68
147.30
145.67
140.82
130.16
113.65
93.44
72.82
54.85
41.32
32.68
28.44
27.64
28.82
29.76
27.50
19.33
4.50
-14.23
-30.38
-35.48
-22.29
11.78
62.98
122.23
178.29
221.77
248.16
258.48
257.65
251.85
246.06
243.07
243.83
248.57
257.50
270.74
287.47
305.01
318.81
323.74
315.98
294.65
262.16
222.91
181.33
139.99
99.29
58.40
16.98
-23.62
-60.38
-89.89
-109.99
-120.78
-124.62
-124.77
-124.01
-123.71
-123.79
-123.53
-122.43
-120.65
-119.13
-119.39
-123.10
-131.81
-146.54
-167.40
-193.38
-222.51
-252.34
-280.71
-306.24
-328.35
-346.64
-360.22
-367.56
-367.12
-358.54
-343.48
-325.49
-308.95
-297.43
-292.64
-294.28
-300.80
-310.43
-321.62
-332.89
-342.20
-346.71
-343.40
-330.24
-307.31
-277.01
-243.29
-210.20
-180.67
-155.93
-135.80
-119.39
-105.82
-94.39
-84.60
-75.91
-67.65
-59.24
-50.26
-40.66
-30.74
-20.88
-11.30
-1.90
7.81
18.48
30.62
44.45
59.72
75.87
92.34
108.81
125.44
142.80
161.65
182.52
205.60
230.48
256.27
281.84
306.19
328.75
349.85
370.82
393.67
420.26
451.05
484.20
515.27
538.18
546.77
536.56
506.12
457.38
395.21
326.21
257.27
194.12
140.10
95.74
59.03
26.48
-5.40
-38.81
-73.98
-109.12
-141.08
-166.26
-181.31
-183.87
-173.08
-149.73
-116.09
-75.25
-30.36
16.12
62.73
108.75
153.76
197.27
238.56
276.88
311.78
343.27
371.69
397.25
419.52
436.94
447.03
447.20
435.79
413.15
381.85
345.96
309.80
276.57
247.58
222.39
199.66
178.08
157.07
136.64
116.87
97.37
77.01
54.20
27.46
-4.04
-40.35
-80.89
-124.77
-170.90
-217.81
-263.45
-305.34
-341.06
-369.07
-389.16
-402.34
-410.20
-414.22
-415.22
-413.21
-407.57
-397.45
-382.46
-363.48
-342.76
-323.21
-306.92
-293.49
-279.37
-258.61
-225.13
-175.16
-108.49
-28.11
61.04
153.27
242.31
320.98
381.44
416.79
423.52
403.39
363.26
312.58
259.92
210.36
164.88
121.69
78.36
33.39
-13.28
-60.58
-106.82
-150.17
-188.94
-222.08
-249.58
-272.24
-290.92
-305.45
-313.77
-312.25
-297.11
-266.45
-221.73
-168.02
-112.73
-63.36
-25.53
-1.96
7.59
5.40
-5.10
-19.97
-35.39
-47.85
-54.80
-55.09
-49.44
-40.52
-32.82
-31.84
-43.02
-70.15
-114.11
-172.03
-237.64
-302.52
-358.29
-398.47
-419.56
-421.02
-404.28
-371.64
-325.63
-269.14
-205.59
-138.91
-73.11
-11.34
44.66
94.73
139.78
181.00
219.13
253.96
284.26
308.21
324.00
330.41
327.35
315.94
298.19
276.51
253.22
230.26
209.14
190.97
176.48
165.95
159.07
154.93
152.04
148.68
143.21
134.42
121.90
106.18
88.92
72.72
60.64
55.51
59.27
72.50
94.53
123.75
158.17
195.68
233.83
269.46
298.72
317.50
322.70
313.45
291.87
262.62
231.47
203.21
180.20
161.89
145.72
128.70
108.98
86.60
63.08
40.43
19.96
1.75
-15.13
-32.10
-50.31
-70.49
-93.16
-118.78
-147.54
-178.57
-209.10
-234.61
-250.01
-251.61
-238.97
-215.31
-186.28
-157.64
-133.19
-113.82
-98.35
-85.13
-73.33
-63.18
-55.25
-49.53
-45.03
-40.31
-34.50
-28.05
-22.75
-20.99
-24.49
-33.33
-45.78
-58.91
-69.76
-76.47
-78.89
-78.27
-76.34
-74.27
-72.10
-68.86
-63.46
-55.58
-46.06
-36.55
-28.55
-22.59
-17.99
-13.41
-7.79
-1.01
6.17
12.68
17.93
22.02
25.59
29.11
32.43
34.80
35.32
33.78
30.97
28.41
27.38
28.02
29.37
30.21
30.50
32.16
38.62
53.12
76.66
106.87
138.70
166.48
186.18
196.59
198.72
194.45
185.34
172.50
157.39
142.23
129.61
121.20
116.75
113.74
108.41
97.47
79.35
54.79
26.30
-2.45
-27.38
-44.49
-50.93
-46.25
-33.19
-17.32
-5.13
-1.53
-7.98
-22.09
-39.19
-54.77
-66.43
-74.42
-80.85
-88.12
-98.07
-111.55
-128.97
-150.80
-177.45
-208.90
-244.46
-282.79
-322.05
-360.24
-395.45
-425.86
-450.04
-467.11
-476.83
-479.21
-474.11
-460.65
-437.75
-405.24
-365.25
-322.47
-283.03
-252.03
-231.52
-219.68
-211.89
-202.94
-189.02
-168.45
-141.52
-109.85
-76.05
-43.19
-14.60
7.17
21.40
29.70
35.10
40.39
46.57
52.36
55.25
53.37
46.79
37.54
28.29
21.00
15.80
11.59
7.00
1.35
-5.02
-11.29
-17.07
