1589113150.00
64.000000
-0.00
-0.00
-0.00
-0.00
-0.00
-0.00
-0.00
-0.00
-0.00
-0.00
0.00
0.01
0.01
-0.00
-0.03
-0.05
-0.05
0.00
0.13
0.36
0.66
1.01
1.37
1.72
2.06
2.40
2.79
3.24
3.80
4.42
5.06
5.66
6.20
6.68
7.15
7.68
8.31
9.14
10.09
11.04
11.88
12.56
13.14
13.76
14.65
15.96
17.91
20.32
22.90
25.38
27.58
29.57
31.68
34.32
37.81
42.54
48.15
54.10
59.83
64.97
69.58
74.14
79.34
85.71
93.76
103.00
112.62
121.73
129.77
136.75
143.30
150.75
157.77
166.64
177.95
191.79
206.97
220.57
228.25
225.36
208.53
176.87
132.76
80.05
23.07
-34.94
-92.44
-149.16
-205.23
-260.37
-313.74
-363.87
-409.83
-450.91
-486.50
-515.74
-537.23
-549.22
-549.96
-538.37
-514.21
-478.67
-433.88
-382.45
-327.02
-269.84
-212.63
-156.66
-102.95
-52.37
-5.90
35.58
71.43
101.35
125.50
144.38
158.70
169.15
176.37
180.75
182.57
182.07
179.51
175.25
169.68
163.20
156.15
148.77
141.20
133.52
125.80
118.08
110.43
102.90
95.54
88.37
81.44
74.75
68.35
62.28
56.56
51.20
46.17
41.43
36.94
32.68
28.65
24.91
21.51
18.49
15.83
13.47
11.30
9.20
7.13
5.13
3.31
1.82
0.75
0.06
-0.41
-0.93
-1.72
-2.86
-4.26
-5.64
-6.67
-7.15
-7.11
-6.88
-6.87
-7.48
-8.83
-10.71
-12.60
-13.99
-14.58
-14.43
-13.96
-13.74
-14.23
-15.60
-17.77
-20.51
-23.45
-26.00
-27.30
-26.36
-22.44
-15.55
-6.72
2.28
9.68
14.58
17.42
19.64
22.82
27.68
33.64
39.16
42.54
42.92
40.58
36.67
32.48
28.84
25.83
23.01
19.95
16.58
13.25
10.56
8.92
8.30
8.27
8.18
7.54
6.21
4.49
2.87
1.75
1.29
1.30
1.40
1.25
0.73
0.05
-0.32
0.13
1.63
4.02
6.70
8.84
9.77
9.12
7.03
4.05
0.97
-1.32
-2.02
-0.74
2.43
6.84
11.37
14.68
15.72
14.17
10.53
5.87
1.36
-2.27
-4.93
-7.01
-8.98
-11.00
-12.82
-14.00
-14.23
-13.59
-12.52
-11.58
-11.16
-11.23
-11.47
-11.43
-10.89
-9.98
-9.15
-8.96
-9.77
-11.50
-13.60
-15.28
-15.81
-14.94
-13.04
-10.91
-9.41
-9.17
-10.31
-12.53
-15.14
-17.22
-17.73
-15.71
-10.50
-2.10
8.60
19.94
29.99
37.18
40.87
41.46
40.04
37.77
35.38
32.96
30.27
27.06
23.47
19.98
17.17
15.34
14.32
13.70
12.97
11.77
10.06
8.13
6.39
5.08
4.13
3.10
1.43
-1.40
-5.59
-10.90
-16.73
-22.31
-27.01
-30.65
-33.51
-36.21
-39.52
-43.99
-49.80
-56.66
-63.96
-70.73
-75.79
-77.92
-76.01
-69.48
-58.40
-43.73
-27.07
-10.24
5.26
18.52
29.20
37.35
43.14
46.78
48.52
48.73
47.91
46.68
45.50
44.43
43.11
41.05
37.96
33.99
29.70
25.86
23.26
22.03
21.33
19.64
15.66
9.05
0.68
-7.86
-14.91
-19.13
-20.38
-20.23
-21.04
-24.72
-31.74
-41.22
-51.52
-60.85
-66.90
-67.99
-64.20
-56.98
-48.25
-39.53
-31.57
-23.98
-14.97
-0.45
23.90
59.52
104.02
151.85
195.84
229.18
247.33
242.80
214.75
172.18
128.83
94.84
72.42
58.60
49.63
43.53
40.26
40.36
45.02
52.42
58.96
61.32
57.98
49.29
36.76
22.17
7.49
-1.92
-3.87
1.95
14.53
32.01
51.78
70.82
86.46
97.65
104.92
108.79
110.04
109.70
109.14
110.05
114.24
123.08
136.99
154.67
172.20
184.63
187.79
179.99
162.68
139.66
115.54
94.01
76.84
63.35
51.69
39.97
27.10
13.02
-1.67
-16.23
-30.28
-43.94
-58.02
-73.55
-91.40
-112.11
-135.84
-162.49
-191.61
-222.10
-251.90
-278.10
-297.55
-307.85
-308.23
-299.67
-284.39
-264.99
-243.88
-223.14
-204.80
-191.03
-183.91
-184.86
-194.03
-209.72
-228.40
-245.06
-254.13
-250.80
-232.62
-200.73
-160.05
-117.91
-81.57
-55.78
-41.55
-36.77
-38.16
-43.31
-51.51
-63.04
-77.85
-94.33
-109.53
-120.23
-124.48
-122.39
-115.87
-107.52
-99.48
-92.63
-86.72
-80.91
-74.52
-67.38
-59.96
-53.17
-48.17
-46.03
-47.65
-53.32
-62.46
-73.28
-83.02
-88.47
-86.84
-76.69
-58.33
-33.70
-5.58
23.34
51.11
76.71
99.64
119.42
135.43
147.21
154.85
159.38
162.44
165.54
169.33
173.30
176.01
175.99
172.51
165.93
157.58
149.10
141.86
136.59
133.18
130.72
127.72
122.43
113.39
100.06
83.10
64.26
45.74
29.35
15.90
5.04
-4.37
-13.79
-24.41
-36.80
-50.62
-64.42
-75.82
-81.93
-80.37
-70.21
-52.61
-30.51
-7.77
12.34
28.02
39.28
47.33
53.65
59.17
64.02
67.83
70.14
70.83
70.21
68.91
67.62
66.88
67.04
68.34
70.95
74.82
79.51
83.95
86.48
85.37
79.43
68.62
54.09
37.68
21.06
5.00
-10.72
-26.90
-44.15
-62.58
-81.74
-101.08
-120.27
-139.02
-156.49
-170.84
-179.34
-179.12
-168.48
-147.85
-119.92
-88.80
-58.46
-31.54
-8.89
10.01
26.06
39.73
50.79
58.71
63.07
64.25
63.40
61.86
60.50
59.48
58.35
56.59
53.96
50.40
46.43
42.77
39.84
37.36
34.55
30.49
24.58
16.68
6.46
-5.45
-17.62
-28.51
-37.38
-44.48
-50.91
-58.19
-67.88
-82.03
-100.56
-120.96
-139.23
-151.51
-155.42
-150.67
-139.16
-124.27
-110.98
-101.53
-94.73
-87.23
-75.81
-58.71
-36.02
-9.03
28.45
73.86
118.13
151.44
169.12
171.65
162.05
144.09
121.85
98.63
75.03
53.11
35.83
25.63
22.98
26.17
32.16
37.41
41.70
42.39
38.56
31.89
25.92
23.83
26.59
32.79
39.59
43.82
43.38
39.33
34.63
32.08
32.48
34.35
35.05
31.87
22.25
4.86
-19.08
-46.21
-71.59
-89.85
-96.73
-90.03
-67.13
-34.69
-2.83
19.87
29.33
26.48
16.41
3.12
-10.69
-23.72
-36.31
-48.21
-58.41
-65.76
-69.67
-70.72
-70.71
-71.75
-75.10
-81.83
-91.38
-101.94
-111.45
-118.49
-122.98
-126.32
-130.57
-137.74
-149.43
-165.51
-184.28
-202.99
-218.49
-227.94
-229.37
-221.82
-205.63
-182.53
-154.77
-124.42
-92.74
-59.88
-25.24
11.67
50.60
90.16
128.27
163.21
194.37
222.24
247.67
270.86
290.71
305.26
312.63
312.25
305.33
294.48
282.48
271.07
260.28
248.69
234.30
215.57
191.92
163.89
132.65
99.61
66.02
32.82
0.58
-30.49
-60.54
-89.99
-119.22
-148.31
-176.54
-202.21
-222.80
-235.53
-238.19
-229.95
-211.75
-186.11
-156.37
-125.61
-95.80
-67.48
-40.18
-13.23
13.48
39.16
62.48
82.27
98.18
110.96
122.05
132.84
143.95
155.02
165.08
173.27
179.33
183.72
187.14
189.94
191.75
191.73
189.13
183.99
177.23
170.20
163.91
158.36
152.56
144.97
134.33
120.10
102.56
82.49
60.71
37.93
14.83
-7.86
-29.25
-48.47
-65.01
-78.83
-90.33
-100.07
-108.48
-115.64
-121.29
-124.96
-126.22
-124.90
-121.15
-115.48
-108.62
-101.43
-94.75
-89.21
-85.19
-82.75
-81.62
-81.35
-81.40
-81.37
-81.16
-80.96
-81.22
-82.38
-84.64
-87.80
-91.27
-94.29
-96.25
-96.89
-96.50
-95.79
-95.70
-97.08
-100.35
-105.07
-109.72
-111.87
-108.65
-97.67
-77.94
-50.38
-17.68
16.50
48.76
76.87
100.14
119.02
134.36
146.67
155.95
161.85
164.20
163.24
159.70
154.53
148.55
142.25
135.84
129.42
123.19
117.52
112.83
109.31
106.79
104.76
102.51
99.46
95.23
89.84
83.49
76.40
68.66
60.17
50.67
39.81
27.26
12.74
-3.82
-22.14
-41.29
-59.63
-74.91
-84.80
-87.52
-82.53
-70.80
-54.60
-36.72
-19.62
-4.72
7.70
18.18
27.31
35.33
41.84
46.18
47.84
46.73
43.34
38.40
32.64
26.57
20.45
14.46
8.85
4.07
0.67
-0.92
-0.66
0.98
3.14
4.79
5.08
3.65
0.67
-3.35
-7.85
-12.54
-17.46
-22.87
-29.12
-36.46
-44.96
-54.43
-64.25
-73.16
-79.36
-80.86
-76.14
-64.83
-48.12
-28.43
-8.70
8.70
22.57
32.96
40.69
46.53
50.70
52.82
52.35
49.09
43.58
36.93
30.53
25.52
22.51
21.50
22.08
23.65
25.63
27.54
29.04
29.87
29.77
28.52
25.87
21.71
16.18
9.75
3.10
-3.05
-8.34
-12.99
-17.73
-23.50
-31.12
-40.83
-52.24
-64.37
-75.88
-85.42
-91.80
-94.28
-92.59
-86.97
-78.08
-66.89
-54.49
-41.91
-30.03
-19.52
-10.79
-4.08
0.63
3.50
4.81
4.92
4.24
3.17
2.03
1.00
0.06
-0.95
-2.11
-3.42
-4.67
-5.63
-6.26
-6.84
-7.94
-10.23
-14.11
-19.55
-26.01
-32.73
-39.08
-44.78
-50.00
-55.35
-61.60
-69.56
-79.77
-92.23
-106.03
-119.29
-129.38
-133.59
-130.12
-118.71
-100.78
-78.84
-55.58
-32.97
-11.98
7.14
24.21
38.69
49.74
56.68
59.55
59.31
57.55
55.81
54.95
54.87
54.77
53.69
51.14
47.31
43.00
39.06
35.91
33.29
30.35
26.06
19.78
11.55
2.12
-7.39
-15.92
-22.94
-28.57
-33.46
-38.53
-44.69
-52.62
-62.66
-74.59
-87.48
-99.57
-108.42
-111.51
-107.02
-94.52
-75.30
-52.06
-27.94
-5.54
13.77
29.88
43.43
54.99
64.64
71.90
76.22
77.56
76.58
74.48
72.43
71.11
70.36
69.49
67.73
64.76
60.87
56.81
53.26
50.40
47.73
44.26
39.00
31.53
22.21
12.07
2.33
-6.15
-13.22
-19.41
-25.63
-32.77
-41.42
-51.79
-63.75
-76.82
-90.00
-101.71
-109.85
-112.32
-107.71
-95.90
-78.22
-57.06
-35.08
-14.43
3.57
18.48
30.31
39.24
45.37
48.83
49.99
49.51
48.33
47.31
47.01
47.48
48.22
48.51
47.70
45.53
42.21
38.32
34.48
31.00
27.62
23.69
18.45
11.55
3.22
-5.78
-14.47
-22.11
-28.48
-33.99
-39.46
-45.86
-53.95
-64.11
-76.11
-88.92
-100.75
-109.22
-111.97
-107.37
-95.18
-76.75
-54.55
-31.43
-9.69
9.40
25.53
38.86
49.49
57.17
61.49
62.38
60.33
56.51
52.25
48.62
45.98
43.97
41.69
38.15
32.63
24.74
14.55
2.36
-11.27
-25.68
-40.14
-53.97
-66.57
-77.47
-86.24
-92.44
-95.63
-95.39
-91.37
-83.44
-71.68
-56.51
-38.67
-19.35
-0.05
17.52
31.84
41.87
47.37
48.99
48.10
46.42
45.47
46.10
48.31
51.35
54.12
55.63
55.34
53.16
49.34
44.19
38.00
31.12
24.13
17.88
13.25
10.85
10.66
11.97
13.64
14.60
14.23
12.60
10.28
8.09
6.64
6.13
6.29
6.48
5.91
3.94
0.35
-4.56
-10.07
-15.26
-19.38
-22.14
-23.80
-25.13
-27.08
-30.39
-35.15
-40.61
-45.25
-47.21
-44.80
-37.09
-24.22
-7.17
12.58
33.67
55.08
76.12
96.15
114.34
129.68
141.40
149.30
153.97
156.50
158.05
159.34
160.51
161.19
160.84
159.09
155.90
151.57
146.67
141.81
137.37
133.28
128.80
122.74
114.00
102.22
88.12
73.38
59.91
49.08
41.16
35.20
29.42
21.81
10.75
-4.82
-25.38
-50.95
-80.93
-113.80
-147.21
-178.35
-204.36
-223.03
-233.33
-235.66
-231.68
-223.47
-212.67
-200.07
-185.90
-170.03
-152.30
-132.88
-112.06
-90.43
-68.58
-47.18
-27.55
-12.11
-3.69
-4.06
-12.95
-25.90
-37.30
-43.12
-42.06
-33.95
-21.39
-8.02
3.09
10.55
14.53
15.78
14.97
12.36
7.94
1.43
-7.09
-17.18
-28.40
-40.56
-53.86
-68.12
-82.07
-93.30
-99.02
-96.81
-85.59
-66.20
-41.20
-14.09
11.92
34.78
53.85
69.22
81.28
90.23
96.05
98.68
98.35
95.86
92.41
89.22
86.98
85.68
84.72
83.19
80.27
75.57
69.23
61.83
54.08
46.45
39.02
31.44
23.16
13.74
3.09
-8.39
-19.94
-30.81
-40.52
-49.10
-57.01
-65.02
-73.86
-84.14
-96.13
-109.61
-123.54
-135.91
-144.00
-144.95
-136.79
-119.21
-93.95
-64.22
-33.63
-4.99
20.26
42.04
60.84
77.00
90.34
100.22
106.16
108.21
107.08
103.98
100.16
96.55
93.57
91.10
88.73
86.00
82.55
78.30
73.36
67.96
62.27
56.15
49.28
41.15
31.43
20.18
7.96
-4.28
-15.65
-25.65
-34.34
-42.35
-50.50
-59.55
-70.06
-82.30
-96.26
-111.40
-126.33
-138.59
-145.10
-143.03
-130.96
-109.59
-81.66
-51.03
-21.28
5.32
28.07
47.30
63.52
76.71
86.33
91.72
92.81
90.40
86.07
81.53
78.04
75.92
74.56
72.88
69.90
65.25
59.33
52.98
47.02
41.83
37.15
32.25
26.32
18.79
9.62
-0.74
-11.53
-21.96
-31.53
-40.17
-48.23
-56.31
-65.01
-74.76
-85.78
-98.03
-111.15
-124.21
-135.48
-142.58
-142.88
-134.46
-116.91
-91.79
-62.26
-32.04
-4.28
19.25
38.17
52.97
64.19
72.03
76.38
77.31
75.42
71.94
68.41
66.04
65.25
65.57
65.92
65.17
62.74
58.77
53.92
48.96
44.32
39.86
34.94
28.73
20.61
10.52
-0.98
-12.82
-23.91
-33.57
-41.71
-48.95
-56.35
-65.04
-75.87
-89.11
-104.31
-120.18
-134.52
-144.26
-146.21
-138.15
-119.74
-92.90
-61.35
-29.28
-0.20
24.13
44.08
60.96
75.91
89.01
99.39
105.90
107.91
105.60
100.05
93.35
87.42
83.38
81.20
80.06
78.82
76.65
72.83
66.97
59.48
50.77
41.43
32.32
25.10
22.03
25.38
35.93
46.66
49.44
38.31
13.41
-20.29
-56.73
-91.42
-120.82
-145.90
-166.88
-182.15
-189.59
-187.63
-176.36
-156.34
-130.53
-102.70
-76.56
-54.44
-36.75
-22.84
-11.64
-2.33
5.50
11.89
17.10
21.44
25.61
30.56
36.89
44.65
53.21
61.48
68.35
73.23
76.07
77.32
77.52
76.88
75.17
71.93
66.80
59.71
51.07
41.42
31.38
21.49
12.21
3.99
-2.84
-8.30
-12.97
-17.96
-24.69
-34.36
-47.46
-63.31
-79.99
-94.57
-103.80
-104.91
-96.45
-78.72
-53.76
-24.80
4.64
31.59
54.19
71.76
84.43
92.70
97.11
98.18
96.66
93.71
90.88
89.79
91.65
96.65
103.84
111.29
116.77
118.53
115.95
109.60
100.97
91.73
83.12
75.62
68.98
62.59
55.90
48.70
41.17
33.64
26.26
18.81
10.73
1.34
-9.83
-22.81
-37.13
-51.97
-66.35
-79.31
-89.89
-97.07
-99.75
-96.94
-88.05
-73.20
-53.43
-30.63
-7.29
13.94
30.81
41.87
46.74
46.08
41.29
34.04
25.89
17.99
10.99
5.07
0.03
-4.59
-9.25
-14.25
-19.43
-24.12
-27.33
-28.17
-26.37
-22.65
-18.54
-15.98
-16.58
-21.01
-28.74
-38.26
-47.69
-55.46
-60.85
-64.13
-66.31
-68.63
-72.15
-77.37
-84.13
-91.49
-97.85
-101.24
-99.81
-92.43
-79.17
-61.34
-41.12
-20.79
-2.02
14.44
28.64
40.84
51.12
59.18
64.66
67.56
68.50
68.58
68.99
70.48
72.97
75.75
77.64
77.76
75.75
71.91
66.91
61.34
55.36
48.63
40.49
30.45
18.63
5.81
-6.74
-17.81
-26.81
-34.00
-40.32
-46.91
-54.62
-63.80
-74.38
-86.12
-98.64
-111.31
-122.94
-131.64
-135.16
-131.60
-120.22
-101.85
-78.82
-54.03
-30.15
-8.74
9.78
25.78
39.73
51.68
61.20
67.72
71.00
71.41
69.93
67.75
65.78
64.31
62.98
61.17
58.33
54.43
49.87
45.26
41.08
37.36
33.76
29.58
24.18
17.14
8.56
-1.05
-10.87
-20.11
-28.28
-35.36
-41.81
-48.31
-55.57
-64.05
-73.79
-84.39
-94.94
-104.02
-109.94
-111.03
-106.11
-94.97
-78.60
-58.87
-38.03
-17.98
0.10
15.81
29.14
40.17
48.73
54.47
57.18
57.10
55.02
52.04
49.22
47.11
45.66
44.28
42.33
39.47
35.85
32.00
28.49
25.53
22.84
19.82
15.76
10.20
3.12
-5.11
-13.82
-22.27
-29.90
-36.43
-42.07
-47.46
-53.45
-60.85
-70.07
-80.85
-92.05
-101.85
-108.06
-108.67
-102.51
-89.63
-71.37
-50.02
-28.08
-7.61
10.23
25.22
37.63
47.75
55.53
60.71
63.00
62.64
60.36
57.34
54.66
52.96
52.14
51.58
50.46
48.19
44.81
40.81
36.91
33.58
30.81
28.01
24.32
19.05
11.98
3.51
-5.65
-14.74
-23.33
-31.34
-39.00
-46.74
-55.03
-64.39
-75.24
-87.67
-101.04
-113.79
-123.56
-127.76
-124.53
-113.39
-95.49
-73.24
-49.41
-26.30
-5.16
13.68
30.43
45.26
57.99
68.03
74.90
78.49
79.31
78.42
76.96
75.71
74.82
73.79
71.87
68.53
63.76
58.10
52.35
47.14
42.55
38.09
32.87
26.01
16.99
5.89
-6.67
-19.70
-32.14
-43.22
-52.65
-60.74
-68.33
-76.51
-86.29
-98.10
-111.44
-124.78
-135.77
-141.76
-140.60
-131.23
-114.11
-91.08
-64.74
-37.78
-12.18
10.98
31.42
49.11
63.99
75.68
83.76
88.06
89.07
87.84
85.70
83.78
82.55
81.84
81.04
79.51
76.91
73.33
69.14
64.71
60.15
55.25
49.52
42.43
33.67
23.34
11.99
0.42
-10.55
-20.39
-29.02
-36.89
-44.76
-53.52
-63.89
-76.29
-90.52
-105.55
-119.50
-129.80
-133.87
-129.87
-117.40
-97.72
-73.34
-47.15
-21.52
2.16
23.38
42.01
57.77
70.03
78.07
81.57
80.96
77.48
72.75
68.31
65.08
63.26
62.42
61.85
60.89
59.11
56.43
52.91
48.68
43.72
37.86
30.83
22.47
12.79
2.10
-9.05
-20.13
-30.71
-40.57
-49.75
-58.43
-67.07
-76.38
-87.15
-99.93
-114.48
-129.31
-141.67
-148.00
-144.97
-130.77
-105.79
-72.78
-36.03
-0.23
30.86
54.99
71.66
81.64
86.27
86.84
84.15
78.39
69.23
56.06
38.24
15.45
-11.87
-42.07
-71.99
-97.30
-113.42
-116.91
-106.85
-85.36
-57.13
-27.81
-2.26
16.82
29.10
35.96
39.35
40.97
42.04
43.54
46.48
51.83
59.97
70.09
80.05
86.82
87.48
80.32
65.48
44.88
21.73
-0.48
-18.61
-30.43
-34.74
-31.29
-20.69
-4.13
16.78
40.24
64.25
86.74
105.68
119.39
126.99
128.79
126.10
120.68
113.92
106.25
97.19
85.95
72.28
57.01
41.82
28.62
18.76
12.50
9.10
7.32
5.99
4.41
2.42
0.20
-2.05
-4.31
-6.79
-9.86
-13.98
-19.56
-26.97
-36.40
-47.85
-60.84
-74.19
-85.93
-93.64
-94.98
-88.51
-74.31
-53.99
-30.26
-6.05
16.30
35.41
50.75
62.22
69.84
73.59
73.75
71.09
66.90
62.60
59.15
56.66
54.43
51.38
46.84
41.03
35.03
30.34
27.89
27.45
27.27
24.54
16.12
-0.39
-25.81
-59.05
-97.17
-136.08
-171.55
-200.10
-219.72
-230.08
-232.28
-228.11
-219.30
-206.80
-190.48
-169.48
-142.86
-110.45
-73.40
-34.15
4.22
38.91
68.25
91.96
110.78
125.67
137.14
145.01
148.84
148.56
144.88
139.27
133.36
128.24
124.08
120.22
115.70
109.88
102.74
94.79
86.66
78.68
70.71
62.23
52.67
41.73
29.54
16.71
4.10
-7.54
-17.85
-27.07
-35.99
-45.68
-57.08
-70.62
-85.88
-101.46
-115.09
-124.06
-125.92
-119.15
-103.75
-81.43
-55.04
-27.78
-2.21
20.32
39.61
56.05
69.96
81.26
89.45
94.13
95.42
94.07
91.27
88.10
85.13
82.32
79.18
75.20
70.26
64.68
59.02
53.71
48.69
43.43
37.11
29.10
19.39
8.61
-2.12
-11.79
-19.81
-26.34
-32.13
-38.20
-45.52
-54.73
-65.99
-78.93
-92.57
-105.22
-114.66
-118.57
-115.21
-104.03
-86.00
-63.31
-38.67
-14.46
7.80
27.47
44.45
58.64
69.66
77.04
80.56
80.55
78.01
74.25
70.49
67.42
65.07
62.95
60.43
57.07
52.87
48.23
43.67
39.55
35.85
32.00
27.21
20.73
12.32
2.34
-8.24
-18.29
-26.98
-34.08
-40.05
-45.77
-52.14
-59.86
-69.25
-80.20
-92.14
-103.90
-113.74
-119.52
-119.23
-111.69
-97.03
-76.86
-53.75
-30.43
-9.05
9.27
24.25
36.03
44.78
50.54
53.40
53.74
52.34
50.25
48.33
46.93
45.78
44.24
41.77
38.30
34.32
30.58
27.65
25.54
23.61
20.83
16.22
9.29
0.19
-10.23
-20.81
-30.43
-38.37
-44.56
-49.63
-54.77
-61.33
-70.34
-82.00
-95.36
-108.33
-118.18
-122.26
-118.88
-107.81
-90.30
-68.60
-45.19
-22.04
-0.33
19.50
37.26
52.69
65.25
74.28
79.47
81.12
80.25
78.26
76.46
75.55
75.45
75.49
74.94
73.40
71.17
68.99
67.60
67.24
67.39
66.90
64.53
59.56
52.17
43.43
34.86
27.81
22.99
20.18
18.53
16.82
13.87
8.77
1.10
-8.77
-19.38
-28.06
-31.51
-26.69
-12.28
10.46
37.67
63.86
83.70
93.59
92.50
81.67
63.68
41.31
16.83
-7.99
-31.59
-52.39
-68.84
-79.88
-85.44
-86.68
-85.66
-84.67
-85.34
-88.08
-92.15
-96.12
-98.74
-99.62
-99.39
-99.51
-101.52
-106.38
-114.02
-123.31
-132.55
-140.02
-144.66
-146.36
-145.84
-144.15
-142.02
-139.52
-135.81
-129.52
-119.29
-104.14
-83.87
-59.01
-30.66
-0.22
30.74
60.62
87.91
111.37
130.23
144.40
154.35
160.89
164.70
166.04
164.62
159.72
150.54
136.54
117.60
94.07
66.68
36.58
5.39
-24.75
-51.38
-72.35
-86.38
-93.68
-95.82
-95.19
-93.94
-93.20
-92.81
-91.83
-89.30
-85.03
-79.74
-74.82
-71.65
-71.16
-73.62
-78.67
-85.47
-92.67
-98.45
-100.68
-97.38
-87.40
-70.93
-49.56
-25.81
-2.28
19.16
37.67
53.30
66.40
77.13
85.22
90.20
91.89
90.67
87.56
83.91
80.82
78.78
77.47
76.11
73.93
70.63
66.52
62.17
57.96
53.70
48.64
41.92
33.07
22.40
10.84
-0.39
-10.42
-19.05
-26.84
-34.69
-43.53
-53.98
-66.22
-80.00
-94.47
-108.13
-118.95
-124.70
-123.52
-114.50
-97.97
-75.25
-48.15
-18.43
12.55
43.61
73.41
100.20
122.02
137.16
144.88
145.69
141.21
133.62
124.91
116.50
108.99
102.43
96.65
91.47
86.77
82.30
77.64
72.11
64.99
55.78
44.45
31.56
18.28
6.05
-3.80
-10.60
-14.77
-18.02
-23.03
-32.80
-49.68
-74.54
-106.31
-142.10
-177.77
-208.83
-231.32
-242.54
-241.48
-228.88
-206.87
-178.40
-146.42
-113.40
-81.00
-50.33
-22.21
2.59
23.38
39.78
52.08
61.24
68.61
75.47
82.58
89.99
97.21
103.56
108.59
112.30
115.15
117.84
120.96
124.74
128.98
132.97
135.70
135.92
132.47
124.52
111.72
94.36
73.26
49.58
24.49
-0.91
-25.79
-49.40
-70.89
-89.10
-102.65
-110.29
-111.48
-106.96
-98.81
-89.88
-82.79
-78.83
-77.41
-76.43
-73.41
-66.72
-56.40
-43.92
-31.30
-20.05
-10.50
-2.01
6.42
15.31
24.38
32.59
38.76
42.11
42.60
40.90
38.02
34.95
32.43
30.87
30.40
30.96
32.26
33.72
34.43
33.29
29.23
21.59
10.26
-4.31
-21.23
-39.43
-57.70
-74.70
-88.90
-98.80
-103.18
-101.61
-94.58
-83.36
-69.60
-54.66
-39.26
-23.45
-6.99
10.18
27.52
43.94
58.03
68.66
75.42
78.72
79.60
79.24
78.40
77.26
75.48
72.64
68.63
63.83
58.88
54.28
50.00
45.45
39.75
32.24
22.85
12.18
1.11
-9.56
-19.53
-28.98
-38.53
-48.86
-60.58
-74.13
-89.49
-105.97
-121.88
-134.61
-141.12
-138.95
-127.10
-106.62
-80.21
-51.28
-22.79
3.51
27.00
47.71
65.61
80.31
91.17
97.84
100.55
100.25
98.28
95.82
93.54
91.33
88.61
84.70
79.30
72.73
65.74
59.05
52.90
46.84
39.86
30.96
19.71
6.57
-7.25
-20.15
-30.84
-38.75
-44.17
-48.20
-52.35
-58.12
-66.49
-77.52
-90.04
-101.73
-109.63
-110.93
-103.89
-88.45
-66.32
-40.41
-13.92
10.56
31.49
48.40
61.43
70.88
76.94
79.77
79.64
77.19
73.31
68.93
64.63
60.46
56.02
50.85
44.78
38.13
31.68
26.16
21.88
18.52
15.29
11.37
6.37
0.56
-5.29
-10.37
-14.22
-17.06
-19.71
-23.36
-29.26
-38.34
-50.97
-66.58
-83.45
-98.78
-109.16
-111.50
-104.09
-87.30
-63.53
-36.33
-9.27
15.25
36.25
53.87
68.55
80.38
88.96
93.77
94.71
92.49
88.47
84.17
80.65
78.16
76.24
73.98
70.73
66.39
61.51
56.97
53.41
50.83
48.38
44.71
38.57
29.42
17.80
5.11
-6.92
-17.00
-24.77
-30.90
-36.71
-43.66
-52.84
-64.69
-78.70
-93.44
-106.55
-115.18
-116.68
-109.41
-93.45
-70.62
-44.00
-16.91
8.08
29.66
47.66
62.51
74.53
83.65
89.58
92.23
92.06
90.04
87.41
85.05
83.26
81.66
79.56
76.39
72.08
67.08
62.05
57.52
53.54
49.59
44.84
38.49
30.10
19.90
8.67
-2.46
-12.49
-20.88
-27.79
-33.95
-40.37
-48.01
-57.50
-68.98
-81.87
-94.86
-105.95
-112.71
-112.95
-105.50
-90.64
-70.21
-46.96
-23.63
-2.14
16.63
32.61
45.86
56.21
63.23
66.61
66.70
64.55
61.65
59.30
58.12
57.87
57.72
56.83
54.87
52.15
49.45
47.41
46.12
44.94
42.75
38.52
31.85
23.23
13.86
5.15
-1.91
-7.02
-10.70
-13.98
-18.16
-24.53
-34.27
-48.13
-66.11
-86.93
-107.91
-125.44
-136.03
-137.44
-129.49
-113.94
-93.57
-71.06
-48.23
-26.14
-5.74
11.40
23.18
27.61
23.96
13.40
-1.17
-16.18
-28.72
-37.35
-42.17
-44.00
-43.63
-41.21
-36.44
-29.09
-19.61
-9.20
0.37
7.44
10.94
10.68
7.32
1.93
-4.31
-10.56
-16.40
-21.88
-27.29
-33.02
-39.37
-46.60
-54.93
-64.46
-74.90
-85.26
-93.67
-97.73
-95.24
-85.19
-68.24
-46.59
-23.27
-0.95
18.68
35.12
48.59
59.45
67.78
73.49
76.61
77.53
77.03
75.96
74.89
73.91
72.72
70.85
68.03
64.36
60.25
56.24
52.74
49.81
47.07
43.85
39.37
32.99
24.59
14.55
3.80
-6.58
-15.63
-22.98
-28.92
-34.37
-40.51
-48.37
-58.48
-70.48
-83.13
-94.42
-101.98
-103.75
-98.59
-86.68
-69.53
-49.47
-28.88
-9.50
7.82
22.96
36.08
47.16
55.90
61.91
65.06
65.69
64.55
62.55
60.39
58.42
56.53
54.39
51.63
48.11
43.99
39.67
35.60
31.99
28.71
25.29
21.08
15.62
8.79
0.92
-7.42
-15.61
-23.28
-30.36
-37.04
-43.68
-50.70
-58.47
-67.27
-76.98
-86.93
-95.72
-101.41
-102.05
-96.43
-84.54
-67.77
-48.31
-28.46
-9.89
6.54
20.57
32.15
41.05
46.86
49.34
48.80
46.21
43.04
40.67
39.90
40.67
42.10
43.04
42.59
40.52
37.30
33.72
30.38
27.32
23.98
19.54
13.46
5.79
-2.78
-11.26
-18.93
-25.55
-31.46
-37.26
-43.56
-50.75
-59.03
-68.37
-78.40
-88.20
-96.15
-100.14
-98.12
-88.91
-72.81
-51.59
-27.91
-4.31
17.59
37.30
55.10
71.36
86.02
98.45
107.84
113.62
115.82
114.99
111.99
107.62
102.39
96.40
89.45
81.22
71.54
60.59
48.97
37.52
26.95
17.51
8.79
-0.04
-9.77
-20.77
-32.71
-44.82
-56.31
-66.85
-76.73
-86.62
-97.24
-109.11
-122.37
-136.71
-151.19
-164.21
-173.52
-176.75
-172.15
-159.31
-139.47
-115.10
-89.03
-63.58
-40.08
-19.01
-0.51
15.14
27.38
35.67
39.99
41.13
40.53
39.80
40.06
41.54
43.55
44.83
44.25
41.28
36.35
30.62
25.56
22.34
21.39
22.36
24.34
26.36
27.77
28.40
28.52
28.48
28.43
28.08
26.73
23.42
17.22
7.44
-6.04
-22.61
-40.63
-57.50
-70.08
-75.49
-72.03
-59.79
-40.68
-17.77
5.76
27.47
46.11
61.35
73.38
82.34
88.18
90.83
90.52
87.96
84.25
80.55
77.66
75.73
74.36
72.77
70.37
67.03
63.20
59.60
56.84
54.92
53.11
50.27
45.40
38.27
29.73
21.45
15.28
12.35
12.43
13.88
14.13
10.50
1.02
-15.21
-37.89
-65.58
-95.81
-125.39
-150.81
-169.01
-178.10
-177.91
-169.84
-156.18
-139.21
-120.59
-101.25
-81.95
-63.64
-47.62
-34.96
-25.88
-19.27
-13.07
-5.08
6.12
20.56
37.00
53.51
68.29
80.26
89.21
95.70
100.56
104.40
107.23
108.32
106.37
100.13
89.03
73.60
55.45
36.68
19.12
3.70
-9.68
-21.90
-34.17
-47.62
-62.93
-79.97
-97.53
-113.20
-123.76
-126.08
-118.27
-100.57
-75.41
-46.60
-17.92
8.04
30.23
48.89
64.51
77.21
86.51
91.76
92.78
90.30
85.79
80.95
77.05
74.43
72.55
70.47
67.43
63.25
58.39
53.55
49.24
45.45
41.62
36.90
30.57
22.28
12.20
0.95
-10.62
-21.66
-31.59
-40.30
-48.21
-56.16
-65.19
-76.25
-89.71
-105.11
-120.89
-134.52
-142.98
-143.54
-134.64
-116.52
-91.24
-62.10
-32.52
-5.11
18.96
39.64
57.36
72.21
83.71
91.07
93.89
92.71
89.02
84.75
81.39
79.49
78.47
77.19
74.63
70.50
65.32
60.09
55.60
51.96
48.50
44.14
37.85
29.13
18.25
6.08
-6.27
-17.84
-28.13
-37.21
-45.61
-54.11
-63.44
-74.19
-86.66
-100.74
-115.63
-129.73
-140.53
-145.14
-141.08
-127.24
-104.52
-75.66
-44.38
-14.11
13.03
36.56
57.24
76.15
94.09
111.31
127.71
143.26
158.18
172.76
187.06
200.59
212.24
220.67
224.74
223.99
218.89
210.52
200.07
188.26
174.97
159.24
139.83
115.92
87.68
56.52
24.60
-5.88
-33.43
-57.65
-79.12
-98.88
-117.82
-136.39
-154.62
-172.17
-188.39
-202.03
-211.24
-213.71
-207.42
-191.64
-167.57
-138.26
-107.71
-79.53
-56.04
-38.00
-25.08
-16.57
-11.87
-10.54
-11.96
-15.14
-18.80
-21.70
-23.09
-22.81
-21.26
-19.13
-17.03
-15.40
-14.43
-14.07
-14.15
-14.50
-15.12
-16.34
-18.72
-22.87
-29.03
-36.87
-45.42
-53.41
-59.84
-64.41
-67.78
-71.22
-76.14
-83.58
-93.92
-106.80
-121.06
-134.77
-145.36
-149.91
-145.95
-132.32
-109.79
-80.99
-49.64
-19.37
7.39
29.64
47.37
60.65
69.10
72.00
68.95
60.59
48.75
35.96
24.42
15.25
8.30
2.60
-2.75
-7.99
-12.48
-15.14
-15.05
-12.08
-7.08
-1.82
1.52
0.98
-4.53
-14.82
-28.38
-42.88
-55.93
-65.77
-71.79
-74.48
-74.98
-74.68
-74.85
-76.42
-79.81
-84.65
-89.50
-91.97
-89.26
-79.11
-60.83
-35.67
-6.51
23.16
50.50
73.96
93.38
109.26
122.00
131.46
137.05
138.31
135.46
129.52
121.89
113.78
105.59
97.04
87.49
76.70
65.23
54.32
45.32
38.95
34.89
31.92
28.66
24.34
19.35
15.06
13.19
14.84
19.91
26.79
32.69
34.42
29.28
15.92
-5.42
-32.76
-62.45
-89.50
-108.59
-115.42
-108.01
-87.41
-57.32
-23.01
10.20
38.35
59.61
73.75
81.17
82.46
78.23
69.92
59.55
49.48
41.81
38.47
40.00
45.20
51.62
56.41
58.39
57.63
55.06
51.97
50.82
52.99
57.75
62.39
63.24
59.31
51.27
40.88
30.43
24.28
25.51
34.20
47.49
60.54
71.93
81.85
91.33
102.22
119.62
147.89
188.03
236.77
287.00
334.16
374.16
403.48
401.98
359.54
284.17
198.64
133.59
88.30
56.31
31.42
8.58
-14.02
-34.19
-49.94
-61.87
-73.34
-89.54
-111.06
-136.72
-164.95
-194.39
-222.16
-246.59
-268.28
-289.36
-312.16
-334.12
-350.70
-357.68
-352.76
-335.25
-307.44
-274.27
-241.79
-215.54
-197.20
-186.55
-182.83
-185.27
-192.24
-201.25
-208.98
-211.66
-206.23
-190.38
-164.36
-131.14
-95.06
-60.00
-28.20
-0.26
24.20
45.36
63.11
76.83
85.94
90.75
92.61
93.44
94.76
97.02
99.45
100.67
99.62
96.24
91.43
86.51
82.42
79.10
75.64
70.77
63.59
54.00
42.71
30.84
19.41
8.96
-0.57
-9.68
-19.07
-29.38
-41.04
-54.00
-67.54
-80.07
-89.37
-93.06
-89.35
-77.74
-59.30
-36.41
-11.96
11.50
32.36
49.94
64.15
74.97
82.25
85.89
86.18
84.01
80.69
77.50
75.23
73.78
72.47
70.41
67.13
62.84
58.33
54.44
51.47
48.96
45.82
40.95
33.85
24.92
15.25
6.08
-1.82
-8.48
-14.65
-21.44
-29.77
-40.21
-52.74
-66.67
-80.53
-92.13
-98.98
-98.91
-90.88
-75.53
-55.00
-32.18
-9.62
11.15
29.91
47.25
63.87
79.90
94.73
107.29
116.62
122.43
125.16
125.87
125.61
124.92
123.60
120.78
115.45
106.96
95.52
82.13
68.21
55.03
43.17
32.50
22.44
12.58
2.97
-5.77
-12.85
-17.87
-21.19
-23.92
-27.47
-33.00
-40.97
-51.07
-62.34
-73.20
-81.69
-85.60
-83.02
-72.77
-55.03
-31.23
-3.50
26.18
56.47
86.70
116.44
144.96
171.16
193.95
212.78
227.92
240.11
249.91
257.08
260.44
258.25
249.01
232.15
208.27
179.02
146.46
112.50
78.37
44.44
10.13
-25.73
-64.42
-106.66
-151.96
-198.23
-241.92
-278.91
-305.81
-321.22
-326.20
-323.96
-318.56
-313.42
-310.23
-308.63
-306.61
-301.50
-290.82
-273.03
-247.71
-215.59
-178.23
-137.79
-96.65
-57.24
-21.81
7.76
30.19
45.27
53.96
58.33
60.90
63.78
67.84
72.62
76.69
78.52
77.28
73.20
67.34
60.92
54.86
49.38
44.18
38.70
32.48
25.35
17.54
9.52
1.90
-4.79
-10.33
-14.91
-19.09
-23.78
-29.92
-38.29
-49.15
-61.95
-75.06
-85.88
-91.39
-89.08
-77.89
-58.81
-34.55
-8.67
15.63
36.46
53.30
66.55
76.78
84.22
88.77
90.30
89.14
86.15
82.58
79.63
77.95
77.44
77.39
76.85
75.15
72.14
68.18
63.69
58.75
52.82
45.00
34.58
21.61
7.20
-6.93
-19.05
-28.27
-34.83
-40.00
-45.43
-52.53
-62.06
-73.99
-87.51
-101.19
-112.93
-120.23
-120.68
-112.64
-95.96
-72.28
-44.51
-15.85
11.23
35.65
57.45
77.14
94.88
110.21
122.35
130.90
136.38
140.30
144.61
151.04
160.59
173.37
188.74
205.45
221.86
235.86
245.29
248.28
243.98
232.92
216.97
198.80
181.10
165.81
153.80
144.86
137.96
131.45
123.35
111.66
94.71
71.69
42.87
9.63
-26.02
-62.08
-97.37
-131.88
-166.87
-204.25
-245.60
-290.87
-337.46
-380.20
-412.51
-428.48
-425.02
-403.17
-367.78
-325.82
-283.94
-246.66
-215.57
-190.03
-168.43
-149.36
-132.22
-116.90
-103.32
-91.04
-79.33
-67.47
-55.15
-42.67
-30.86
-20.81
-13.46
-9.28
-8.10
-9.12
-11.25
-13.54
-15.62
-17.76
-20.74
-25.31
-31.81
-40.06
-49.58
-59.91
-70.59
-80.93
-89.45
-93.88
-91.71
-81.25
-62.53
-37.57
-9.71
17.67
42.17
62.79
79.54
92.73
102.38
108.29
110.51
109.73
107.47
105.57
105.51
107.86
112.03
116.62
120.09
121.37
120.22
117.20
113.08
108.40
103.07
96.36
87.47
76.03
62.57
48.39
35.12
23.89
14.92
7.43
0.06
-8.50
-19.00
-31.35
-44.56
-56.80
-65.72
-68.85
-64.19
-51.01
-30.20
-4.12
24.12
51.67
76.67
98.47
117.19
133.13
146.29
156.39
163.20
166.95
168.38
168.61
168.69
169.28
170.60
172.51
174.76
177.14
179.44
181.29
181.85
179.74
173.20
160.49
140.58
113.58
80.90
44.93
8.49
-25.98
-56.89
-83.67
-106.61
-126.45
-144.04
-160.02
-174.78
-188.28
-200.08
-209.25
-214.52
-214.52
-208.21
-195.17
-175.98
-152.11
-125.71
-99.14
-74.42
-52.81
-34.78
-20.18
-8.61
0.22
6.36
9.78
10.65
9.62
7.77
6.26
5.97
7.13
9.40
12.18
14.94
17.45
19.61
21.15
21.34
19.04
12.96
2.13
-13.88
-34.92
-60.44
-89.45
-120.56
-151.77
-180.69
-204.93
-222.87
-234.24
-240.07
-242.00
-241.15
-237.43
-229.59
-215.99
-195.63
-168.89
-137.36
-103.26
-68.79
-35.82
-5.93
19.38
38.90
52.03
59.26
62.20
63.09
63.96
65.95
69.08
72.61
75.65
77.59
78.30
77.97
76.72
74.43
70.84
65.56
58.43
49.61
39.59
29.08
18.73
8.85
-0.63
-10.05
-19.82
-30.23
-41.41
-53.42
-66.26
-79.56
-92.29
-102.43
-107.27
-104.30
-92.21
-71.60
-44.89
-15.50
13.37
39.56
62.11
80.80
95.53
106.13
112.43
114.64
113.67
110.95
107.97
105.74
104.48
103.68
102.46
100.08
96.34
91.61
86.56
81.73
77.10
72.04
65.64
57.21
46.70
34.88
22.92
11.85
2.12
-6.65
-15.39
-25.24
-37.17
-51.61
-68.32
-86.14
-102.97
-116.01
-122.29
-119.57
-107.17
-86.27
-59.60
-30.59
-2.17
23.79
46.62
66.30
82.88
96.02
105.27
110.38
111.78
110.61
108.28
105.91
103.89
101.88
99.09
94.86
89.03
82.04
74.71
67.85
61.81
56.40
50.85
44.19
35.71
25.32
13.63
1.75
-9.27
-18.88
-27.34
-35.51
-44.48
-55.08
-67.63
-81.83
-96.72
-110.67
-121.35
-126.16
-122.89
-110.57
-90.01
-63.68
-34.88
-6.59
19.26
41.97
61.55
78.02
91.03
99.98
104.51
105.02
102.72
99.24
96.04
93.87
92.54
91.24
89.00
85.23
80.07
74.19
68.53
63.71
59.68
55.73
50.84
44.17
35.51
25.33
14.56
4.15
-5.30
-13.77
-21.72
-29.83
-38.71
-48.79
-60.25
-72.97
-86.36
-99.10
-109.10
-113.85
-111.15
-100.03
-81.28
-57.37
-31.68
-7.28
13.90
31.31
45.31
56.37
64.48
69.20
70.18
67.68
62.84
57.35
52.75
49.83
48.37
47.41
45.90
43.25
39.63
35.77
32.43
29.89
27.76
25.06
20.82
14.54
6.47
-2.53
-11.44
-19.54
-26.65
-33.07
-39.40
-46.22
-54.07
-63.35
-74.19
-86.05
-97.48
-106.07
-109.03
-104.24
-91.10
-70.95
-46.54
-21.02
3.20
25.02
44.47
61.99
77.69
91.10
101.47
108.29
111.83
113.05
113.29
113.67
114.78
116.55
118.56
120.35
121.71
122.72
123.55
124.42
125.47
126.87
128.88
131.75
135.72
140.82
146.96
154.03
162.04
171.10
181.26
192.21
203.13
212.56
218.74
220.07
215.54
205.20
190.17
172.45
154.60
139.08
127.82
121.75
120.72
123.65
128.88
134.62
139.22
141.39
140.16
134.89
125.28
111.48
94.12
74.28
53.16
31.81
10.77
-9.95
-30.77
-52.04
-73.75
-95.31
-115.73
-134.11
-150.07
-164.04
-177.31
-191.50
-208.08
-227.85
-250.78
-276.29
-303.66
-332.48
-362.66
-394.05
-425.96
-456.86
-484.50
-506.45
-520.85
-526.79
-524.18
-513.21
-493.83
-465.71
-428.72
-383.65
-332.61
-278.80
-225.65
-175.80
-130.52
-89.78
-52.99
-19.71
9.87
35.12
55.47
71.01
82.52
91.33
98.64
105.16
111.02
115.88
119.45
121.61
122.63
122.93
122.81
122.34
121.27
119.10
115.32
109.62
102.16
93.64
85.12
77.69
72.03
68.13
65.24
62.18
57.78
51.30
42.51
31.72
19.54
6.88
-5.18
-15.31
-22.29
-25.22
-23.93
-19.04
-11.75
-3.59
4.12
10.34
14.46
16.30
16.03
14.12
11.22
7.99
4.99
2.52
0.69
-0.47
-0.92
-0.62
0.37
1.77
3.09
3.70
3.16
1.33
-1.50
-4.81
-8.12
-11.12
-13.79
-16.17
-18.26
-19.81
-20.47
-19.94
-18.31
-16.17
-14.46
-14.17
-15.96
-19.85
-25.19
-30.73
-35.00
-36.60
-34.73
-29.28
-20.88
-10.72
-0.07
10.07
19.16
26.91
33.11
37.34
39.04
37.81
33.67
27.33
19.95
12.83
6.89
2.36
-1.36
-5.48
-11.65
-21.65
-37.06
-58.83
-86.85
-119.55
-153.98
-186.32
-212.88
-231.13
-240.22
-240.98
-235.18
-224.81
-211.43
-196.28
-180.53
-165.69
-153.53
-145.65
-142.89
-144.87
-149.84
-155.02
-157.22
-153.61
-142.31
-122.87
-96.32
-64.69
-30.43
4.23
37.64
68.63
96.29
119.65
137.76
150.05
156.78
159.26
159.46
159.38
160.22
162.01
163.80
164.33
162.79
159.29
154.80
150.52
147.31
145.19
143.39
140.75
136.30
129.58
120.77
110.42
99.14
87.40
75.39
63.11
50.39
36.99
22.62
7.00
-9.92
-27.61
-44.61
-58.63
-67.02
-67.68
-59.96
-45.02
-25.46
-4.40
15.57
33.00
47.51
59.22
68.16
73.94
75.98
73.90
67.85
58.43
46.48
32.84
18.15
3.02
-11.84
-25.59
-37.34
-46.34
-52.20
-55.03
-55.40
-54.27
-52.79
-51.98
-52.60
-54.95
-58.98
-64.41
-71.01
-78.74
-87.75
-98.35
-110.87
-125.51
-142.20
-160.22
-177.95
-192.76
-201.43
-201.05
-189.96
-168.43
-138.64
-103.90
-67.59
-32.24
0.69
30.55
56.89
79.12
96.53
108.74
116.04
119.54
120.79
121.24
121.66
122.03
121.85
120.57
118.11
114.87
111.49
108.38
105.44
102.04
97.20
90.18
80.68
69.16
56.63
44.27
32.99
23.14
14.32
5.60
-4.17
-16.03
-30.49
-47.27
-65.05
-81.39
-93.00
-96.44
-89.26
-70.96
-43.50
-10.70
23.11
54.60
82.29
106.44
128.03
147.69
165.21
179.70
190.30
196.90
200.16
201.18
200.96
200.10
198.78
197.02
194.86
192.47
190.02
187.53
184.82
181.36
176.25
168.37
156.70
140.69
120.55
96.95
70.55
41.52
9.48
-25.89
-64.06
-103.22
-140.64
-173.81
-201.37
-223.57
-241.58
-256.32
-267.61
-274.10
-274.06
-266.51
-251.86
-231.70
-208.07
-182.69
-156.62
-130.61
-105.44
-82.19
-62.01
-45.56
-32.66
-22.21
-12.74
-3.11
6.91
16.56
24.60
30.06
32.73
33.24
32.57
31.55
30.47
29.12
27.18
24.50
21.32
18.07
15.10
12.37
9.41
5.52
0.11
-7.05
-15.83
-25.86
-36.72
-47.96
-58.90
-68.45
-75.04
-76.93
-72.91
-62.80
-47.77
-29.78
-10.75
8.25
27.14
46.27
65.60
84.01
99.56
110.36
115.67
116.40
114.72
113.03
112.79
113.97
115.37
115.47
113.39
109.29
104.17
99.17
94.86
90.93
86.43
80.33
72.12
62.16
51.40
40.91
31.29
22.37
13.35
3.30
-8.36
-21.59
-35.87
-50.47
-64.66
-77.68
-88.50
-95.78
-98.03
-94.15
-84.04
-68.69
-49.97
-29.87
-9.95
8.95
26.47
42.34
56.00
66.68
73.72
76.94
76.89
74.67
71.59
68.73
66.73
65.68
65.25
64.95
64.26
62.90
60.81
58.15
55.09
51.66
47.66
42.66
36.27
28.32
19.07
9.24
-0.27
-8.72
-15.88
-22.07
-28.05
-34.68
-42.71
-52.47
-63.79
-75.94
-87.64
-97.11
-102.42
-101.98
-95.03
-82.00
-64.41
-44.40
-24.14
-5.18
11.65
26.18
38.47
48.61
56.50
62.03
65.24
66.48
66.39
65.70
64.89
64.10
63.06
61.34
58.66
55.10
51.12
47.39
44.44
42.34
40.75
38.99
36.41
32.62
27.53
21.33
14.22
6.38
-2.09
-11.06
-20.34
-29.66
-38.88
-48.08
-57.69
-68.20
-79.85
-92.19
-103.91
-113.01
-117.44
-115.79
-107.85
-94.72
-78.35
-60.84
-43.74
-27.77
-13.09
0.21
11.81
21.05
27.32
30.49
31.21
30.65
30.06
30.23
31.21
32.46
33.25
33.06
31.84
29.91
27.77
25.79
24.08
22.41
20.34
17.41
13.22
7.66
0.92
-6.47
-13.89
-20.81
-27.08
-32.97
-39.09
-46.15
-54.68
-64.72
-75.71
-86.43
-95.18
-100.17
-99.98
-94.00
-82.66
-67.29
-49.64
-31.41
-13.80
2.47
16.96
29.22
38.62
44.57
46.74
45.47
41.81
37.37
33.89
32.78
34.67
39.40
46.11
53.63
60.83
66.84
71.19
73.61
73.91
71.86
67.25
60.04
50.53
39.33
27.19
14.84
2.67
-9.25
-21.16
-33.35
-46.07
-59.46
-73.45
-87.83
-102.19
-115.81
-127.54
-135.97
-139.66
-137.54
-129.36
-115.73
-97.98
-77.72
-56.41
-35.05
-14.32
5.22
22.84
37.68
48.97
56.47
60.76
63.18
65.46
68.98
74.27
80.82
87.36
92.49
95.27
95.64
94.28
92.22
90.23
88.47
86.48
83.38
78.34
70.80
60.66
48.06
33.33
16.86
-0.78
-18.68
-35.65
-50.40
-62.08
-70.69
-77.23
-83.33
-90.51
-99.37
-109.14
-117.99
-123.66
-124.51
-120.09
-111.29
-99.78
-87.28
-75.00
-63.51
-53.04
-43.82
-36.24
-30.75
-27.37
-25.46
-23.74
-20.72
-15.30
-7.22
2.86
13.68
23.88
32.48
39.08
43.80
46.94
48.76
49.27
48.34
45.82
41.76
36.47
30.40
23.98
17.43
10.75
3.89
-3.14
-10.20
-17.19
-24.21
-31.70
-40.16
-49.84
-60.22
-69.84
-76.61
-78.56
-74.60
-64.91
-50.95
-34.78
-18.29
-2.66
11.65
24.65
36.28
46.19
53.86
58.88
61.34
61.73
60.79
59.05
56.73
53.78
50.12
45.91
41.60
37.73
34.75
32.75
31.48
30.35
28.65
25.64
20.73
13.73
4.95
-4.81
-14.52
-23.20
-30.41
-36.31
-41.69
-47.48
-54.55
-63.40
-74.01
-85.77
-97.38
-106.91
-112.15
-111.14
-102.85
-87.54
-66.90
-43.42
-19.62
2.68
22.67
40.32
55.82
69.18
80.08
87.96
92.45
93.79
93.01
91.50
90.38
90.04
90.17
90.11
89.04
86.42
82.36
77.71
73.63
70.91
69.63
69.25
69.04
67.71
64.06
57.67
49.43
41.16
34.52
30.07
27.21
24.58
19.69
10.16
-5.35
-26.36
-51.15
-78.00
-106.00
-134.68
-160.45
-177.55
-181.30
-172.35
-155.99
-137.96
-121.38
-105.92
-90.27
-69.63
-42.11
-9.59
23.30
51.90
74.11
91.61
106.79
123.89
146.71
175.14
204.96
229.60
243.47
244.60
235.28
220.81
207.57
200.40
200.28
204.52
208.47
207.88
200.61
186.99
169.03
149.43
130.29
112.12
94.48
76.99
59.93
44.10
29.83
16.58
3.36
-10.31
-23.59
-34.08
-38.68
-35.36
-24.75
-10.70
0.83
3.90
-5.50
-28.43
-63.15
-106.20
-153.62
-201.81
-247.64
-288.45
-321.98
-346.74
-362.52
-370.48
-372.79
-371.71
-368.36
-362.30
-351.70
-334.62
-310.43
-280.69
-248.90
-219.28
-195.16
-177.80
-166.32
-158.41
-151.70
-144.68
-137.02
-129.43
-123.03
-118.82
-117.18
-117.46
-117.80
-115.31
-106.79
-89.80
-63.71
-30.11
7.64
45.58
80.34
109.86
133.42
151.07
163.10
169.75
171.45
169.04
163.95
157.74
151.73
146.52
141.95
137.44
132.41
126.71
120.57
114.54
108.98
103.83
98.49
92.07
83.66
72.75
59.44
44.42
28.78
13.67
-0.09
-12.24
-23.23
-33.97
-45.61
-59.05
-74.64
-91.90
-109.30
-124.50
-134.66
-137.13
-130.11
-113.39
-88.50
-58.51
-27.11
2.49
28.34
50.09
68.38
84.09
97.58
108.42
115.87
119.53
119.85
118.10
115.85
114.22
113.31
112.27
109.94
105.56
99.28
92.13
85.41
79.96
75.71
71.73
66.81
60.19
51.91
42.74
33.68
25.30
17.44
9.34
0.08
-10.90
-23.78
-38.45
-54.82
-72.70
-91.45
-109.53
-124.38
-133.02
-133.10
-123.86
-106.58
-84.09
-59.78
-36.43
-15.54
2.60
18.19
31.33
41.65
48.57
51.82
51.99
50.47
49.05
49.10
51.00
54.03
56.80
58.10
57.49
55.50
53.06
50.85
48.73
45.77
40.79
33.07
22.81
11.07
-0.75
-11.60
-21.20
-30.09
-39.22
-49.48
-61.41
-75.04
-90.04
-105.61
-120.40
-132.34
-138.77
-136.96
-125.04
-102.76
-71.93
-35.98
1.00
35.42
64.92
88.48
106.00
117.77
124.24
126.00
124.00
119.52
114.02
108.57
103.61
98.87
93.75
87.77
80.88
73.50
66.22
59.35
52.79
45.98
38.18
28.81
17.78
5.53
-7.06
-18.99
-29.58
-38.77
-47.22
-56.19
-67.03
-80.53
-96.35
-112.64
-126.37
-134.03
-132.74
-121.15
-99.96
-71.68
-39.86
-8.11
20.77
45.14
64.39
78.54
87.86
92.70
93.59
91.43
87.41
82.88
78.89
75.84
73.50
71.19
68.35
64.82
60.95
57.23
53.90
50.57
46.31
40.12
31.37
20.27
7.70
-5.11
-17.22
-28.15
-38.10
-47.59
-57.33
-68.05
-80.15
-93.52
-107.11
-118.73
-125.36
-123.98
-112.73
-91.77
-63.49
-31.80
-0.86
26.13
47.52
63.09
73.39
79.11
80.82
79.06
74.61
68.61
62.43
57.25
53.66
51.44
49.72
47.44
43.90
39.09
33.64
28.32
23.50
18.83
13.34
6.06
-3.47
-14.82
-26.77
-37.85
-47.05
-54.20
-60.06
-65.98
-73.38
-83.17
-95.33
-108.58
-120.47
-127.86
-127.77
-118.37
-99.62
-73.38
-42.73
-11.13
18.59
44.45
65.36
80.76
90.40
94.36
93.30
88.56
81.96
75.37
70.13
66.60
64.23
61.90
58.49
53.47
46.96
39.60
32.13
24.92
17.76
10.08
1.38
-8.42
-18.81
-28.93
-37.98
-45.67
-52.35
-58.86
-66.28
-75.64
-87.50
-101.71
-116.96
-130.85
-140.16
-141.67
-133.31
-114.92
-88.47
-57.48
-25.90
2.96
27.05
45.72
59.25
68.35
73.80
76.25
76.24
74.27
70.86
66.57
61.83
57.06
52.51
48.42
44.94
42.20
40.17
38.54
36.72
33.86
29.12
21.86
12.02
0.09
-12.90
-25.73
-37.38
-47.30
-55.65
-63.29
-71.48
-81.51
-94.00
-108.49
-123.14
-135.01
-140.78
-137.70
-124.57
-102.19
-73.28
-41.56
-10.68
16.84
40.00
59.01
74.52
86.89
95.89
100.96
101.84
99.07
94.02
88.34
83.24
78.96
74.85
69.89
63.34
55.22
46.16
36.97
28.11
19.31
9.76
-1.65
-15.76
-32.81
-52.41
-73.47
-94.69
-114.76
-132.72
-147.97
-160.30
-169.70
-176.35
-180.48
-182.29
-181.70
-178.22
-170.95
-158.77
-141.07
-118.11
-91.36
-63.00
-35.16
-9.23
14.43
36.04
55.79
73.37
88.09
99.42
107.53
113.43
118.54
123.97
129.95
135.74
140.17
142.26
141.75
139.21
135.62
131.87
128.37
124.90
120.76
115.13
107.51
97.93
87.01
75.87
65.78
57.86
52.71
50.21
49.50
49.11
47.34
42.70
34.36
22.50
8.41
-5.80
-17.72
-25.31
-27.46
-24.17
-16.42
-5.74
6.22
17.95
28.21
36.11
41.01
42.68
41.29
37.46
32.12
26.32
20.97
16.63
13.52
11.53
10.35
9.55
8.71
7.40
5.36
2.42
-1.52
-6.53
-12.72
-20.23
-29.01
-38.77
-48.87
-58.39
-66.61
-73.11
-78.20
-82.67
-87.52
-93.62
-101.39
-110.66
-120.66
-130.03
-136.82
-138.83
-134.12
-121.70
-101.97
-76.91
-49.39
-22.42
1.79
22.06
38.11
50.00
57.82
61.63
61.69
58.81
54.35
49.86
46.60
45.09
45.13
45.94
46.63
46.58
45.54
43.59
40.98
37.78
33.75
28.36
21.08
11.66
0.45
-11.55
-23.07
-33.01
-40.97
-47.48
-53.84
-61.72
-72.54
-86.83
-103.84
-121.37
-136.12
-144.42
-143.34
-131.67
-110.43
-82.49
-51.58
-21.17
6.46
30.40
50.57
67.10
79.86
88.52
92.96
93.68
91.83
88.91
86.13
84.07
82.49
80.72
78.16
74.61
70.41
66.14
62.27
58.87
55.48
51.37
45.80
38.38
29.16
18.67
7.63
-3.25
-13.57
-23.26
-32.62
-42.13
-52.37
-63.96
-77.40
-92.88
-109.82
-126.62
-140.58
-148.49
-147.67
-136.97
-117.46
-91.92
-63.92
-36.42
-11.09
11.66
31.91
49.48
63.50
72.83
76.78
75.72
71.17
65.23
59.72
55.47
52.18
48.89
44.66
39.31
33.62
28.91
26.38
26.31
27.81
29.12
28.43
24.65
17.94
9.47
0.76
-7.05
-13.64
-19.40
-25.02
-30.98
-37.51
-44.79
-53.26
-63.60
-76.20
-90.32
-103.67
-112.58
-113.14
-102.68
-81.02
-50.74
-16.35
17.16
45.72
67.06
80.67
87.31
88.32
85.16
79.21
71.76
64.00
56.97
51.45
47.77
45.72
44.57
43.23
40.68
36.34
30.42
23.82
17.68
12.76
8.94
5.21
0.13
-7.41
-17.45
-28.84
-39.74
-48.47
-54.31
-57.87
-60.93
-65.59
-73.51
-85.20
-99.96
-116.17
-131.63
-143.95
-150.72
-149.92
-140.23
-121.55
-95.20
-63.77
-30.63
0.94
28.50
50.83
67.72
79.46
86.49
89.68
90.08
88.73
86.52
84.14
81.99
80.24
78.71
76.99
75.49
74.74
74.95
75.67
76.01
74.99
71.83
65.91
56.83
46.15
35.88
27.51
21.38
17.02
13.77
11.41
9.79
8.62
9.58
14.21
23.34
36.69
53.72
74.26
98.65
126.48
146.82
150.56
134.73
105.42
72.37
42.80
19.43
1.76
-10.83
-23.00
-35.88
-48.74
-60.09
-69.02
-75.50
-80.24
-83.65
-87.20
-93.45
-101.38
-108.85
-112.34
-108.19
-93.94
-71.98
-43.43
-10.62
23.17
56.30
86.69
111.74
128.95
136.45
133.81
122.68
105.59
85.29
64.85
46.20
29.93
15.45
1.67
-12.01
-24.84
-35.46
-42.37
-44.20
-40.62
-32.31
-20.63
-7.20
6.67
20.27
32.92
43.78
51.93
56.44
56.77
53.01
45.81
36.29
25.89
15.85
6.98
-0.43
-6.75
-12.74
-19.19
-26.61
-34.98
-43.70
-51.93
-58.76
-63.59
-66.14
-66.52
-65.26
-63.23
-61.51
-61.20
-63.09
-67.43
-73.89
-81.78
-90.36
-99.19
-108.40
-118.57
-130.43
-144.39
-160.03
-175.83
-189.23
-197.24
-197.35
-188.31
-170.61
-146.26
-118.15
-89.20
-61.82
-37.60
-17.46
-1.74
9.67
17.31
22.14
25.41
28.44
32.22
37.29
43.50
50.20
56.40
61.03
63.36
63.20
61.05
57.76
54.20
50.79
47.29
42.89
36.76
28.45
18.30
7.32
-3.22
-12.31
-19.62
-25.63
-31.48
-38.59
-48.25
-61.14
-76.83
-93.56
-108.17
-116.74
-115.66
-102.96
-79.17
-47.51
-12.81
20.15
48.21
70.81
89.71
107.87
127.93
150.99
176.04
200.33
220.30
232.67
235.49
228.60
213.64
193.34
170.71
148.39
128.20
111.18
97.67
87.49
79.83
73.19
65.55
54.75
39.14
18.30
-6.75
-33.73
-59.92
-83.03
-101.91
-116.64
-128.28
-138.22
-147.70
-157.56
-168.29
-179.95
-192.16
-203.73
-212.55
-215.91
-211.25
-197.19
-174.22
-144.68
-111.94
-79.24
-48.67
-20.97
3.99
26.38
45.82
61.29
71.71
76.62
76.65
73.49
69.23
65.66
63.65
62.87
62.26
60.56
57.01
51.62
45.11
38.42
32.15
26.24
19.94
12.11
1.72
-11.63
-27.21
-42.93
-55.69
-62.03
-59.34
-46.85
-26.03
-0.27
26.18
49.40
66.56
76.13
77.72
71.90
60.34
46.03
33.07
25.97
28.28
41.38
63.97
92.47
122.20
148.73
168.76
180.51
183.61
178.73
167.26
150.91
131.42
110.32
88.75
67.53
47.46
29.43
14.47
3.50
-3.07
-5.56
-5.01
-2.89
-0.71
0.35
-0.38
-2.96
-6.72
-10.33
-11.97
-9.90
-3.20
7.44
19.40
28.70
31.16
23.85
5.98
-20.86
-53.55
-88.49
-122.45
-152.73
-176.82
-192.05
-195.85
-186.68
-165.22
-134.88
-101.13
-69.68
-44.38
-25.89
-11.96
0.92
15.44
32.14
49.45
64.81
76.24
83.17
86.37
87.03
85.93
82.97
77.48
68.92
57.47
44.28
31.24
20.43
13.52
11.18
12.78
16.42
19.29
18.44
11.54
-2.44
-22.85
-47.66
-74.10
-99.53
-122.26
-141.86
-158.94
-174.44
-188.92
-201.84
-211.57
-215.84
-212.63
-201.07
-181.91
-157.30
-129.97
-102.37
-75.90
-51.00
-27.51
-5.45
14.59
31.44
43.90
51.41
54.42
54.44
53.50
53.42
55.25
58.91
63.32
66.95
68.49
67.42
64.17
59.82
55.44
51.50
47.53
42.40
34.90
24.39
11.17
-3.66
-18.65
-32.65
-45.07
-56.06
-66.17
-76.21
-86.94
-99.02
-112.86
-128.31
-144.33
-158.72
-168.44
-170.40
-162.52
-144.66
-118.77
-88.24
-56.61
-26.52
0.84
25.42
47.44
66.74
82.59
94.07
100.86
103.61
103.82
103.22
103.07
103.73
104.81
105.57
105.45
104.36
102.60
100.55
98.48
96.37
94.01
91.10
87.29
82.23
75.60
67.27
57.38
46.51
35.47
24.98
15.32
6.17
-3.29
-13.93
-26.35
-40.61
-56.21
-72.15
-86.89
-98.46
-104.55
-103.11
-93.02
-74.68
-50.18
-22.73
4.37
28.66
48.98
65.22
77.71
86.62
91.79
93.12
90.98
86.56
81.59
77.84
76.34
77.03
78.81
80.09
79.49
76.42
71.33
65.33
59.68
55.17
51.66
48.15
43.25
35.84
25.58
13.35
1.04
-8.92
-14.24
-13.56
-6.91
4.29
17.47
29.74
38.63
42.97
43.43
42.60
44.39
52.87
70.82
98.50
133.20
169.76
202.03
224.73
234.91
232.55
220.04
200.81
178.06
154.00
129.89
106.59
85.10
66.59
51.88
40.68
31.33
21.34
8.47
-8.03
-27.15
-46.58
-64.06
-78.49
-90.33
-101.04
-111.97
-123.54
-134.95
-144.76
-151.63
-155.10
-155.71
-154.75
-153.72
-153.91
-156.19
-161.12
-169.13
-180.58
-195.48
-213.07
-231.31
-246.83
-255.38
-252.97
-237.07
-207.45
-166.30
-117.40
-65.06
-13.07
35.69
79.12
115.35
142.57
159.11
163.99
157.42
141.03
117.69
90.88
64.03
39.93
20.48
6.58
-1.64
-4.68
-3.50
0.53
5.53
9.08
8.40
0.81
-15.28
-39.60
-69.43
-100.08
-125.99
-142.55
-147.59
-141.99
-129.33
-114.58
-102.47
-96.17
-96.61
-102.39
-110.41
-116.75
-117.72
-110.88
-95.64
-73.23
-46.15
-17.29
10.99
37.40
61.54
83.53
103.35
120.68
134.91
145.63
152.94
157.50
160.27
161.96
162.72
162.01
158.94
152.75
143.23
130.93
116.93
102.40
88.17
74.45
60.99
47.36
33.44
19.58
6.69
-4.16
-12.13
-16.96
-19.18
-20.05
-21.16
-23.99
-29.55
-38.13
-49.37
-62.40
-75.92
-88.26
-97.40
-101.14
-97.59
-85.84
-66.58
-42.12
-15.88
8.71
29.31
45.21
57.07
66.13
73.30
78.79
82.41
84.07
84.34
84.26
84.94
86.85
89.56
92.01
93.06
92.11
89.39
85.67
81.79
78.23
74.81
70.95
66.02
59.71
52.11
43.63
34.70
25.48
15.72
4.78
-8.20
-24.12
-43.52
-66.29
-91.47
-117.19
-141.01
-160.29
-172.70
-176.65
-171.46
-157.56
-136.43
-110.62
-83.26
-57.54
-35.85
-19.19
-7.09
1.92
9.35
16.10
22.08
26.66
29.35
30.31
30.41
30.83
32.55
35.85
40.35
45.21
49.51
52.52
53.74
52.84
49.66
44.18
36.75
28.32
20.31
14.32
11.50
11.88
14.22
16.29
15.74
11.00
1.85
-10.64
-24.80
-39.20
-53.25
-67.13
-81.10
-94.70
-106.30
-113.43
-113.74
-106.13
-91.37
-71.89
-50.83
-30.78
-12.95
2.90
17.70
32.14
46.08
58.62
68.70
75.83
80.44
83.58
86.49
89.99
94.31
99.22
104.36
109.37
113.90
117.35
118.85
117.38
112.22
103.40
91.88
79.36
67.72
58.47
52.36
49.28
48.57
49.29
50.63
52.04
53.26
54.20
54.74
54.67
53.52
50.60
45.18
36.80
25.68
12.82
-0.03
-10.90
-18.09
-20.84
-19.37
-14.75
-8.37
-1.55
4.80
10.10
13.89
15.75
15.23
12.13
6.66
-0.50
-8.29
-15.60
-21.57
-25.87
-28.74
-30.73
-32.45
-34.32
-36.41
-38.42
-39.97
-40.84
-41.15
-41.36
-41.99
-43.43
-45.68
-48.42
-51.21
-53.74
-55.97
-58.14
-60.63
-63.73
-67.55
-72.04
-77.09
-82.70
-88.94
-95.73
-102.56
-108.47
-112.03
-111.85
-107.04
-97.64
-84.70
-69.85
-54.73
-40.45
-27.43
-15.61
-4.94
4.34
11.62
16.32
18.29
17.92
16.12
13.88
11.95
10.57
9.58
8.66
7.54
6.11
4.41
2.50
0.46
-1.74
-4.13
-6.83
-9.91
-13.44
-17.51
-22.15
-27.39
-33.21
-39.45
-45.81
-51.83
-57.07
-61.31
-64.75
-68.04
-72.12
-77.87
-85.51
-94.35
-102.76
-108.63
-110.04
-105.92
-96.40
-82.73
-66.74
-50.30
-34.64
-20.32
-7.27
4.73
15.71
25.32
33.00
38.27
41.02
41.63
40.89
39.66
38.53
37.64
36.76
35.60
34.05
32.30
30.70
29.44
28.38
27.04
24.80
21.24
16.40
10.70
4.71
-1.15
-6.76
-12.33
-18.07
-24.06
-30.06
-35.73
-40.80
-45.32
-49.72
-54.71
-60.95
-68.78
-78.03
-87.83
-96.69
-102.74
-104.11
-99.43
-88.30
-71.50
-50.91
-29.00
-8.12
10.07
24.90
36.59
45.86
53.38
59.38
63.68
65.94
65.95
64.04
60.94
57.54
54.50
51.95
49.50
46.44
42.23
36.72
30.26
23.47
16.85
10.56
4.34
-2.35
-10.02
-18.93
-28.99
-39.91
-51.33
-62.93
-74.60
-86.34
-98.18
-110.23
-122.60
-135.51
-149.24
-163.93
-179.28
-194.26
-207.09
-215.46
-217.26
-211.22
-197.47
-177.55
-153.87
-128.87
-104.33
-81.08
-59.29
-38.93
-20.24
-3.86
9.38
18.89
24.70
27.38
27.98
27.60
27.17
27.29
28.14
29.57
31.16
32.48
33.19
33.26
33.05
33.04
33.63
34.80
36.04
36.62
35.83
33.48
30.06
26.50
23.75
22.23
21.58
20.71
18.22
12.90
4.09
-7.98
-22.21
-36.64
-48.60
-55.16
-53.82
-43.32
-24.13
1.52
30.36
59.05
85.35
108.55
129.18
148.15
165.88
181.90
195.04
204.11
208.52
208.50
204.82
198.24
189.11
177.30
162.57
145.02
125.47
105.38
86.53
70.45
57.94
48.84
42.03
35.73
28.04
17.49
3.54
-13.19
-31.34
-49.19
-65.40
-79.39
-91.39
-102.22
-112.81
-123.99
-136.29
-149.94
-164.74
-179.77
-193.20
-202.27
-203.91
-195.58
-176.32
-147.27
-111.42
-72.74
-34.95
-0.58
29.35
54.90
76.45
94.22
108.05
117.74
123.51
126.13
126.78
126.63
126.35
126.02
125.26
123.53
120.57
116.45
111.56
106.33
101.05
95.73
90.14
83.92
76.69
68.19
58.39
47.52
36.01
24.44
13.29
2.82
-7.01
-16.56
-26.34
-36.86
-48.59
-61.86
-76.56
-91.98
-106.43
-117.35
-121.78
-117.25
-102.70
-79.11
-49.24
-16.82
14.59
42.58
66.12
85.23
100.36
111.82
119.67
123.92
124.95
123.54
120.86
117.96
115.45
113.32
111.11
108.31
104.64
100.24
95.51
90.79
86.19
81.49
76.31
70.25
63.03
54.52
44.72
33.79
21.95
9.60
-2.86
-15.06
-26.86
-38.28
-49.59
-61.11
-73.26
-86.37
-100.57
-115.56
-130.25
-142.77
-150.59
-151.25
-143.05
-125.89
-101.35
-72.34
-42.23
-13.78
11.44
33.16
51.94
68.42
82.88
95.14
104.91
112.27
117.90
122.84
127.98
133.52
138.86
142.95
144.92
144.79
143.46
142.42
143.02
145.84
150.38
155.35
159.24
160.94
160.10
157.00
152.08
145.40
136.25
123.23
104.79
79.85
48.31
11.19
-29.63
-71.68
-112.19
-148.12
-176.34
-194.10
-199.72
-193.50
-178.00
-157.51
-136.73
-119.16
-105.93
-95.62
-85.22
-71.69
-53.44
-31.05
-7.04
15.10
32.15
42.07
44.38
40.01
30.80
18.90
6.29
-5.44
-15.07
-21.82
-25.28
-25.50
-23.06
-19.10
-15.11
-12.63
-12.79
-15.98
-21.81
-29.24
-37.05
-44.29
-50.53
-55.89
-60.87
-66.11
-72.31
-80.06
-89.71
-100.92
-112.27
-120.99
-123.45
-116.08
-96.77
-65.85
-26.37
16.63
57.25
90.24
111.94
120.75
117.07
102.99
81.82
57.63
34.63
16.53
5.95
3.87
9.43
20.09
32.21
42.01
46.63
44.95
37.86
27.62
16.96
7.98
1.67
-2.04
-3.87
-4.57
-4.79
-4.92
-5.37
-6.42
-8.24
-10.63
-13.12
-15.10
-16.28
-16.88
-17.65
-19.66
-23.72
-29.90
-37.18
-43.43
-45.94
-42.24
-30.94
-12.37
11.51
37.85
63.96
88.21
110.24
130.51
149.35
166.12
178.98
185.24
182.34
168.70
144.34
110.90
71.28
29.13
-11.77
-47.85
-76.10
-94.35
-101.65
-98.71
-87.94
-73.17
-58.79
-48.65
-45.01
-48.22
-56.95
-69.10
-82.60
-95.96
-108.25
-118.66
-126.23
-129.90
-129.00
-123.80
-115.75
-107.20
-100.66
-97.80
-98.79
-102.13
-105.08
-104.46
-97.68
-83.53
-62.51
-36.57
-8.43
19.20
44.27
65.55
82.39
94.37
101.03
101.88
96.69
85.85
70.65
53.33
36.82
24.17
17.73
18.30
24.57
33.24
39.87
40.40
32.64
17.07
-3.43
-24.93
-44.01
-59.03
-70.28
-79.26
-87.53
-95.77
-103.52
-109.47
-112.29
-111.30
-106.88
-100.44
-94.20
-90.45
-90.85
-95.73
-103.81
-112.34
-117.92
-117.46
-109.17
-92.96
-70.41
-44.11
-17.10
7.84
28.56
43.71
52.83
56.26
55.07
50.80
45.35
40.65
38.35
39.40
43.71
50.08
56.51
60.89
61.89
59.48
54.92
50.10
46.62
45.03
44.57
43.64
40.55
34.40
25.34
14.53
3.48
-6.51
-14.94
-22.09
-28.84
-36.19
-44.96
-55.50
-67.73
-80.94
-93.70
-103.90
-109.06
-107.10
-97.14
-79.97
-57.91
-34.01
-10.95
9.62
27.27
42.30
54.92
64.92
71.68
74.73
74.20
71.07
66.90
63.24
61.09
60.62
61.16
61.71
61.36
59.72
56.99
53.79
50.71
47.99
45.32
42.08
37.57
31.39
23.54
14.47
4.84
-4.73
-13.72
-21.92
-29.39
-36.38
-43.34
-50.74
-59.10
-68.83
-80.10
-92.51
-104.84
-115.01
-120.35
-118.52
-108.35
-90.51
-67.41
-42.33
-18.35
2.70
20.36
35.02
47.11
56.58
62.94
65.81
65.50
63.11
60.17
57.94
56.96
56.86
56.70
55.56
52.97
49.06
44.40
39.71
35.51
31.98
28.82
25.36
20.83
14.61
6.54
-2.89
-12.84
-22.37
-31.00
-38.78
-46.34
-54.42
-63.66
-74.33
-86.36
-99.32
-112.28
-123.58
-130.81
-131.31
-122.98
-105.28
-79.71
-49.43
-18.21
10.91
36.45
58.50
77.94
95.49
111.12
124.05
133.41
138.87
140.97
141.01
140.57
140.98
142.97
146.52
150.82
154.34
154.97
150.28
137.86
115.90
83.65
41.88
-6.95
-58.71
-108.16
-149.90
-179.55
-194.89
-196.56
-187.88
-173.93
-160.09
-150.60
-147.85
-152.29
-163.07
-178.47
-196.22
-213.27
-225.83
-229.80
-221.82
-200.58
-167.53
-126.69
-83.25
-41.79
-4.98
26.72
54.27
78.77
100.49
118.76
132.52
141.15
145.04
145.48
144.21
142.69
141.71
141.17
140.38
138.52
135.01
129.92
123.77
117.39
111.40
105.89
100.35
93.95
85.89
75.90
64.38
52.20
40.41
29.71
20.31
11.81
3.50
-5.47
-15.87
-28.26
-42.75
-58.76
-74.74
-88.10
-95.76
-94.90
-83.91
-62.93
-33.79
0.53
36.82
72.22
104.58
132.38
154.43
169.69
177.26
176.30
166.29
147.13
119.37
84.38
44.40
2.35
-38.64
-75.73
-106.63
-129.73
-144.00
-148.87
-144.52
-132.23
-114.68
-95.75
-79.67
-69.81
-67.56
-71.94
-80.13
-88.81
-95.42
-98.97
-99.97
-99.77
-99.69
-100.64
-103.12
-107.41
-113.57
-121.08
-128.36
-132.66
-130.73
-119.85
-99.10
-69.81
-35.20
0.79
34.79
64.77
90.15
111.08
127.86
140.48
148.69
152.44
152.15
148.84
143.89
138.63
133.97
130.14
126.78
123.15
118.67
113.07
106.68
100.13
94.00
88.33
82.50
75.39
65.93
53.63
38.87
22.85
7.06
-7.27
-19.65
-30.42
-40.52
-51.08
-63.04
-76.91
-92.79
-110.14
-127.67
-143.13
-153.46
-155.46
-146.79
-127.01
-98.05
-63.78
-28.70
3.55
31.16
54.20
73.72
90.62
104.89
115.70
122.14
124.03
122.29
118.65
114.89
112.14
110.47
109.16
107.27
104.24
100.14
95.49
90.87
86.60
82.55
78.19
72.97
66.45
58.49
49.26
39.11
28.47
17.70
7.02
-3.49
-13.84
-24.13
-34.43
-45.02
-56.38
-69.14
-83.66
-99.56
-115.12
-127.32
-132.65
-128.28
-113.54
-90.47
-63.43
-37.62
-17.36
-4.75
0.58
0.82
-1.06
-2.38
-1.22
3.41
11.66
22.97
36.10
49.24
60.41
67.96
70.99
69.63
64.72
57.39
48.69
39.38
30.02
21.13
13.25
6.76
1.59
-2.83
-7.46
-13.14
-20.22
-28.26
-36.34
-43.54
-49.43
-54.27
-58.90
-64.40
-71.59
-80.98
-92.46
-105.30
-118.03
-128.45
-133.86
-131.78
-120.84
-101.30
-75.21
-45.77
-16.36
10.38
33.03
51.28
65.45
75.97
83.13
87.24
88.72
88.37
87.19
86.18
85.87
86.25
86.72
86.51
84.96
81.83
77.41
72.27
67.04
62.00
56.98
51.42
44.55
35.82
25.19
13.27
1.06
-10.31
-20.10
-28.13
-34.80
-40.91
-47.26
-54.51
-63.01
-72.83
-83.51
-93.89
-101.98
-105.17
-100.99
-87.98
-66.41
-38.34
-7.06
24.07
52.53
77.06
97.42
113.84
126.54
135.66
141.66
145.61
148.97
152.93
157.43
160.75
159.70
150.80
131.53
101.53
62.94
19.83
-22.78
-60.29
-89.44
-108.89
-119.05
-121.71
-119.26
-114.07
-108.13
-102.96
-99.83
-99.75
-103.56
-111.50
-123.19
-137.55
-153.27
-169.16
-184.37
-198.17
-209.43
-216.30
-216.33
-207.28
-188.11
-159.69
-124.82
-87.29
-50.75
-17.60
11.34
36.46
58.42
77.49
93.30
105.15
112.69
116.26
117.00
116.31
115.34
114.50
113.50
111.62
108.26
103.32
97.25
90.73
84.30
78.10
71.83
64.97
57.06
47.90
37.59
26.44
14.88
3.33
-7.73
-17.99
-27.35
-35.98
-44.40
-53.32
-63.47
-75.26
-88.50
-102.12
-114.22
-122.36
-124.20
-118.31
-104.62
-84.67
-61.03
-36.50
-13.35
7.14
24.63
39.27
51.23
60.50
66.94
70.50
71.53
70.77
69.19
67.65
66.58
65.92
65.21
63.88
61.52
58.05
53.76
49.02
44.22
39.49
34.72
29.56
23.53
16.21
7.40
-2.69
-13.39
-23.74
-32.89
-40.44
-46.64
-52.33
-58.66
-66.60
-76.61
-88.39
-100.79
-111.88
-119.34
-120.90
-115.06
-101.59
-81.69
-57.73
-32.59
-8.72
12.31
29.98
44.39
55.79
64.18
69.41
71.48
70.90
68.71
66.23
64.49
63.81
63.68
63.08
61.10
57.40
52.42
47.10
42.37
38.64
35.59
32.32
27.72
20.97
11.86
0.86
-10.98
-22.50
-32.80
-41.52
-49.03
-56.10
-63.65
-72.38
-82.63
-94.28
-106.75
-118.99
-129.36
-135.79
-136.16
-129.00
-114.12
-92.80
-67.52
-41.17
-16.07
6.58
26.68
44.60
60.53
74.06
84.31
90.48
92.52
91.28
88.38
85.48
83.56
82.61
81.75
79.96
76.64
72.08
67.15
62.83
59.55
56.99
54.20
50.15
44.13
36.12
26.72
16.84
7.32
-1.35
-9.09
-16.10
-22.75
-29.49
-36.93
-45.85
-57.02
-70.80
-86.59
-102.42
-115.12
-121.18
-117.91
-104.52
-82.45
-54.96
-25.98
1.07
24.00
41.93
54.79
62.82
66.23
65.24
60.29
52.35
42.78
33.12
24.65
18.07
13.46
10.35
8.03
5.86
3.49
0.94
-1.52
-3.52
-4.69
-4.94
-4.41
-3.57
-3.02
-3.35
-4.87
-7.61
-11.41
-16.07
-21.52
-27.84
-35.10
-43.28
-52.20
-61.69
-71.66
-82.14
-93.06
-103.79
-112.95
-118.45
-118.09
-110.43
-95.38
-74.40
-50.01
-24.96
-1.40
19.47
37.33
52.21
64.17
72.95
78.22
79.92
78.55
75.16
71.12
67.57
65.10
63.62
62.56
61.26
59.35
56.83
54.03
51.29
48.70
45.96
42.45
37.52
30.78
22.36
12.92
3.46
-5.14
-12.44
-18.73
-24.87
-32.02
-41.23
-53.12
-67.86
-85.14
-104.17
-123.58
-141.27
-154.58
-160.86
-158.21
-146.34
-126.65
-101.88
-75.02
-48.46
-23.55
-0.72
19.90
38.04
53.15
64.56
71.95
75.63
76.55
75.99
75.15
74.81
75.19
75.98
76.51
76.13
74.40
71.34
67.30
62.83
58.25
53.45
47.87
40.79
31.72
20.73
8.46
-4.08
-15.92
-26.61
-36.25
-45.43
-54.89
-65.24
-76.88
-90.04
-104.61
-119.93
-134.42
-145.53
-150.20
-145.88
-131.60
-108.55
-79.77
-49.08
-19.68
6.71
29.99
50.91
70.15
87.57
102.37
113.49
120.38
123.54
124.32
124.58
125.99
129.49
135.09
141.95
148.89
154.76
158.87
161.03
161.42
160.31
157.74
153.38
146.47
136.06
121.35
102.02
78.42
51.69
23.37
-4.81
-31.32
-54.93
-74.88
-90.93
-103.47
-113.73
-123.64
-135.30
-150.17
-168.04
-186.69
-202.32
-210.88
-209.62
-198.18
-178.62
-154.43
-129.13
-104.99
-82.72
-61.93
-42.13
-23.35
-6.44
7.51
17.88
24.97
30.01
34.55
39.85
46.28
53.36
60.07
65.45
69.04
70.93
71.55
71.39
70.72
69.49
67.46
64.27
59.54
53.03
44.69
34.78
23.86
12.63
1.65
-8.86
-19.06
-29.27
-39.81
-50.92
-62.79
-75.53
-88.99
-102.35
-113.78
-120.59
-120.02
-110.38
-91.93
-66.97
-39.07
-11.73
12.79
33.83
51.80
67.29
80.25
89.94
95.44
96.48
93.85
89.34
85.02
82.41
81.87
82.66
83.35
82.76
80.38
76.58
72.25
68.25
64.93
62.05
58.88
54.58
48.53
40.59
31.08
20.73
10.41
0.88
-7.49
-14.78
-21.56
-28.65
-36.91
-46.99
-59.13
-72.80
-86.44
-97.35
-102.13
-97.51
-81.71
-55.42
-22.19
12.32
41.79
61.07
67.52
61.45
45.57
23.67
-0.57
-24.50
-46.53
-65.71
-81.02
-91.01
-94.05
-88.88
-75.50
-55.54
-31.97
-8.23
12.82
29.68
42.23
51.24
57.55
61.48
62.74
60.75
55.15
46.29
35.16
23.22
11.79
1.77
-6.66
-13.91
-20.74
-27.98
-36.23
-45.83
-56.85
-69.01
-81.70
-93.78
-103.55
-108.95
-108.04
-99.73
-84.33
-63.69
-40.71
-18.43
0.97
16.70
29.18
39.34
47.85
54.69
59.28
61.04
59.96
56.78
52.78
49.28
47.08
46.26
46.31
46.53
46.27
45.22
43.34
40.75
37.52
33.68
29.15
23.85
17.71
10.71
2.91
-5.58
-14.54
-23.66
-32.53
-40.80
-48.27
-55.01
-61.32
-67.60
-74.33
-81.93
-90.66
-100.45
-110.56
-119.40
-124.60
-123.51
-114.13
-96.07
-70.87
-41.68
-12.15
14.67
37.19
55.19
69.20
79.74
86.85
90.34
90.22
87.18
82.61
78.17
75.15
73.92
73.95
74.08
73.26
70.90
67.11
62.44
57.57
52.90
48.40
43.66
38.13
31.40
23.22
13.77
3.45
-7.12
-17.35
-26.79
-35.28
-43.00
-50.38
-58.07
-66.77
-77.05
-89.10
-102.28
-114.96
-124.63
-128.38
-123.93
-110.50
-89.19
-62.73
-34.52
-7.47
16.64
37.29
54.64
68.90
79.93
87.32
90.81
90.69
87.98
84.12
80.53
78.08
76.85
76.17
75.08
72.71
68.72
63.38
57.44
51.64
46.42
41.62
36.58
30.44
22.60
12.94
2.01
-9.33
-20.20
-30.11
-39.15
-47.85
-56.87
-66.67
-77.41
-89.05
-101.55
-114.62
-127.46
-138.33
-144.66
-143.70
-133.65
-114.56
-88.56
-59.12
-29.80
-3.01
20.36
40.61
58.38
73.89
86.71
96.06
101.41
102.86
101.32
98.16
94.82
92.24
90.61
89.33
87.45
84.15
79.24
73.29
67.29
62.16
58.12
54.58
50.37
44.35
35.93
25.36
13.55
1.70
-9.24
-18.90
-27.44
-35.45
-43.58
-52.41
-62.39
-73.85
-86.90
-101.18
-115.53
-127.90
-135.54
-135.84
-127.26
-110.04
-86.23
-59.07
-31.80
-6.76
15.02
33.57
49.26
62.25
72.30
78.94
81.97
81.78
79.33
75.94
72.77
70.47
69.03
67.87
66.29
63.71
60.06
55.63
50.90
46.22
41.50
36.38
30.31
22.95
14.29
4.73
-5.09
-14.47
-22.87
-30.15
-36.54
-42.62
-49.10
-56.55
-65.36
-75.60
-87.09
-99.23
-110.95
-120.47
-125.60
-124.18
-114.89
-97.90
-74.99
-49.05
-23.08
0.66
21.13
38.28
52.43
63.71
71.90
76.66
77.92
76.18
72.53
68.31
64.68
62.28
61.04
60.36
59.45
57.66
54.77
51.00
46.75
42.32
37.64
32.32
25.74
17.53
7.73
-3.03
-13.84
-23.80
-32.43
-39.81
-46.57
-53.63
-61.86
-71.86
-83.74
-97.00
-110.44
-122.17
-129.86
-131.27
-124.88
-110.53
-89.55
-64.47
-38.19
-13.10
9.48
29.25
46.50
61.45
73.92
83.33
89.17
91.45
90.91
88.79
86.35
84.36
82.86
81.38
79.26
76.12
72.07
67.58
63.19
59.20
55.44
51.38
46.30
39.70
31.46
21.93
11.82
1.84
-7.51
-16.15
-24.35
-32.60
-41.35
-50.84
-61.19
-72.49
-84.75
-97.66
-110.23
-120.56
-126.14
-124.58
-114.64
-96.91
-73.68
-48.23
-23.58
-1.58
17.35
33.75
48.21
60.77
70.78
77.37
80.12
79.53
76.89
73.79
71.47
70.35
70.01
69.51
68.00
65.05
60.83
55.88
50.73
45.58
40.25
34.22
27.08
18.68
9.36
-0.19
-9.20
-17.16
-24.06
-30.33
-36.64
-43.63
-51.61
-60.58
-70.41
-80.97
-92.17
-103.61
-114.31
-122.45
-125.76
-122.22
-110.95
-92.73
-69.86
-45.31
-21.78
-0.84
17.02
32.05
44.43
53.96
60.17
62.78
62.17
59.46
56.16
53.46
51.90
51.13
50.35
48.78
46.13
42.70
39.12
35.96
33.31
30.74
27.48
22.82
16.43
8.54
-0.26
-9.26
-17.88
-25.85
-33.14
-39.87
-46.34
-52.94
-60.26
-68.95
-79.44
-91.48
-103.80
-114.10
-119.56
-117.79
-107.71
-90.05
-67.05
-41.76
-16.98
5.56
25.29
42.38
57.03
69.02
77.68
82.39
83.04
80.44
76.03
71.47
67.86
65.48
63.84
62.04
59.36
55.59
51.02
46.19
41.56
37.17
32.74
27.71
21.61
14.22
5.71
-3.48
-12.80
-21.81
-30.32
-38.37
-46.21
-54.14
-62.46
-71.46
-81.44
-92.63
-104.83
-117.07
-127.42
-133.31
-132.18
-122.52
-104.61
-80.54
-53.52
-26.77
-2.42
18.87
37.53
54.26
69.22
81.80
90.94
95.86
96.64
94.30
90.46
86.64
83.67
81.48
79.37
76.48
72.29
66.87
60.76
54.65
49.05
44.10
39.54
34.94
29.82
23.84
16.88
9.04
0.55
-8.29
-17.17
-25.91
-34.43
-42.77
-51.17
-60.08
-70.07
-81.59
-94.64
-108.24
-120.33
-128.01
-128.38
-119.52
-101.25
-75.35
-44.90
-13.32
16.64
43.29
66.00
84.72
99.50
110.40
117.52
121.24
122.23
121.37
119.46
117.02
114.22
110.84
106.51
100.82
93.44
84.35
73.87
62.55
51.08
39.98
29.39
19.04
8.51
-2.36
-13.03
-22.08
-27.51
-27.58
-21.75
-11.33
0.53
9.70
12.16
5.10
-12.52
-39.95
-74.78
-113.25
-150.24
-179.87
-196.28
-195.19
-175.48
-139.98
-95.06
-48.76
-8.48
21.10
38.65
45.67
45.02
39.49
31.02
20.76
9.70
-0.80
-8.96
-13.07
-12.38
-7.53
-0.55
5.97
9.86
10.20
7.53
3.43
-0.27
-2.27
-2.25
-0.84
0.83
1.55
0.58
-2.22
-6.37
-11.01
-15.13
-17.96
-19.22
-19.31
-19.42
-21.38
-27.38
-39.25
-57.59
-81.07
-106.27
-128.22
-141.84
-143.43
-131.84
-108.62
-77.24
-41.76
-5.75
28.08
57.60
80.78
95.61
100.57
95.45
81.92
63.40
44.23
28.49
18.85
16.06
19.19
26.31
35.20
43.99
51.25
56.01
57.62
55.81
50.87
43.86
36.39
30.13
26.18
24.37
23.30
20.79
14.77
4.07
-11.17
-29.76
-50.09
-70.76
-90.85
-109.67
-126.34
-139.30
-146.38
-145.30
-134.60
-114.34
-86.25
-53.25
-18.43
15.79
48.12
78.15
105.64
130.05
150.45
165.81
175.73
180.92
183.20
185.04
188.61
194.69
202.07
207.60
207.15
196.83
174.37
139.93
96.13
47.32
-1.39
-45.21
-80.36
-104.51
-116.86
-118.10
-110.25
-96.40
-80.29
-65.86
-56.52
-54.55
-60.57
-73.39
-90.45
-108.78
-125.88
-140.28
-151.26
-158.04
-159.19
-152.48
-135.76
-108.15
-70.94
-27.54
17.60
60.33
97.73
128.14
150.42
163.09
164.19
151.88
125.67
87.31
41.02
-7.33
-51.49
-86.13
-107.75
-115.08
-109.13
-92.75
-70.23
-46.43
-26.02
-12.64
-8.27
-13.14
-26.02
-44.70
-66.54
-88.86
-109.34
-126.23
-138.69
-146.90
-151.92
-155.28
-158.59
-163.01
-169.02
-176.30
-183.69
-189.20
-190.26
-184.28
-169.36
-145.13
-113.01
-76.02
-37.72
-1.23
31.66
60.41
85.28
106.55
124.00
136.94
144.78
147.57
146.33
142.84
139.05
136.32
134.97
134.29
132.98
129.91
124.54
117.24
108.93
100.62
92.91
85.72
78.33
69.77
59.34
46.98
33.36
19.64
6.92
-4.24
-14.11
-23.70
-34.31
-47.01
-62.24
-79.54
-97.48
-113.82
-125.75
-130.48
-125.95
-111.57
-88.47
-59.33
-27.49
4.06
33.35
59.64
82.91
103.31
120.65
134.36
143.97
149.48
151.64
151.77
151.24
150.98
151.17
151.32
150.71
148.91
146.11
142.97
140.31
138.54
137.53
136.63
134.97
131.86
126.95
120.43
112.94
105.55
99.47
95.61
94.02
93.64
92.25
87.22
76.32
58.36
33.53
2.91
-31.94
-69.39
-107.63
-144.52
-177.65
-204.66
-223.80
-234.09
-235.29
-227.35
-210.20
-183.98
-149.87
-110.89
-71.98
-39.06
-17.18
-8.82
-13.04
-25.99
-42.64
-58.54
-71.06
-79.62
-84.88
-87.77
-88.86
-88.15
-85.61
-81.51
-76.55
-71.58
-67.11
-63.06
-58.78
-53.45
-46.59
-38.40
-29.78
-22.09
-16.69
-14.53
-15.93
-20.67
-28.13
-37.49
-47.52
-56.51
-62.22
-62.25
-54.72
-39.01
-16.28
10.81
38.99
65.42
88.53
107.91
123.73
135.94
143.88
146.70
144.19
137.41
128.72
121.01
116.34
115.03
115.35
114.38
109.33
98.81
83.27
64.61
45.13
26.64
9.94
-5.04
-18.73
-31.48
-43.29
-53.92
-63.14
-70.87
-77.24
-82.55
-87.25
-91.85
-96.96
-103.19
-111.03
-120.69
-131.84
-143.34
-153.24
-159.02
-158.16
-148.96
-131.20
-106.26
-76.80
-45.83
-15.87
11.61
36.10
57.60
76.05
91.09
102.13
108.91
111.74
111.63
110.03
108.18
106.73
105.47
103.57
100.08
94.53
87.27
79.32
71.95
65.95
61.29
57.10
52.13
45.39
36.53
25.91
14.35
2.64
-8.76
-19.71
-30.25
-40.36
-49.89
-58.75
-67.15
-75.77
-85.41
-96.43
-108.07
-118.24
-123.89
-122.13
-111.36
-92.04
-66.60
-38.52
-11.13
13.49
34.65
52.72
68.29
81.52
91.97
98.96
102.07
101.58
98.50
94.20
89.93
86.37
83.51
80.81
77.62
73.56
68.70
63.48
58.42
53.81
49.53
45.02
39.64
32.92
24.79
15.59
5.90
-3.73
-12.92
-21.53
-29.66
-37.49
-45.25
-53.12
-61.28
-69.94
-79.39
-89.80
-101.01
-112.18
-121.63
-127.03
-126.17
-117.65
-101.64
-79.92
-55.20
-30.10
-6.24
16.07
37.29
57.90
77.72
95.79
110.95
122.38
130.01
134.23
135.46
133.61
128.15
118.66
105.64
90.96
77.59
68.59
65.86
69.18
75.98
82.16
83.33
76.28
59.78
34.84
4.14
-28.84
-60.81
-89.31
-113.10
-131.90
-146.22
-156.89
-164.89
-171.20
-176.75
-182.21
-187.60
-191.91
-193.04
-188.29
-175.32
-153.17
-122.81
-86.97
-49.16
-12.52
20.95
50.61
76.67
99.56
119.50
136.47
150.51
161.92
171.28
179.16
185.93
191.58
195.78
197.99
197.55
193.75
185.78
172.87
154.52
130.64
101.77
69.09
34.40
-0.06
-31.76
-58.14
-77.19
-87.93
-90.90
-88.31
-83.66
-80.88
-83.41
-93.24
-110.48
-133.52
-159.72
-186.32
-211.05
-232.18
-248.19
-257.24
-257.19
-246.32
-224.24
-192.72
-155.53
-117.22
-81.55
-50.34
-23.35
0.73
22.93
43.17
60.26
72.74
79.84
82.03
80.92
78.52
76.50
75.62
75.72
76.04
75.72
74.18
71.30
67.28
62.41
56.94
50.99
44.61
37.90
30.98
23.84
16.30
8.07
-1.11
-11.29
-22.25
-33.65
-45.13
-56.39
-67.00
-76.36
-83.80
-88.95
-91.92
-93.37
-94.07
-94.15
-92.88
-88.82
-80.61
-67.78
-51.01
-31.61
-10.76
11.11
34.18
58.35
82.34
103.53
118.48
124.32
120.08
107.12
88.68
68.60
50.06
34.62
22.35
12.29
3.53
-4.10
-9.80
-12.23
-10.25
-3.72
6.22
17.47
27.56
34.44
36.88
34.56
27.92
18.02
6.39
-5.06
-14.39
-20.25
-22.45
-22.43
-23.14
-28.13
-40.28
-60.49
-86.90
-115.14
-139.58
-155.13
-158.84
-150.66
-133.04
-109.64
-83.75
-57.46
-31.62
-6.64
16.71
36.98
52.50
62.25
66.53
66.90
65.58
64.46
64.40
65.09
65.63
65.11
63.23
60.34
57.11
54.11
51.39
48.41
44.29
38.24
29.80
19.18
7.08
-5.47
-17.60
-28.73
-38.79
-48.14
-57.34
-66.94
-77.41
-89.19
-102.65
-117.90
-134.29
-150.06
-162.24
-167.35
-162.53
-146.67
-121.03
-88.84
-54.14
-20.49
9.98
36.63
59.64
79.25
95.24
106.95
113.85
116.06
114.60
111.11
107.30
104.37
102.54
101.23
99.45
96.47
92.16
87.26
82.97
80.48
80.48
82.76
86.27
89.29
89.87
86.34
77.70
63.92
45.88
25.18
3.80
-16.27
-33.35
-46.36
-55.05
-60.33
-64.20
-69.28
-77.88
-90.86
-106.87
-122.59
-133.85
-137.31
-131.82
-118.54
-100.14
-79.30
-57.62
-35.43
-12.56
10.72
33.02
52.26
66.47
74.93
78.45
79.05
78.89
79.39
80.78
82.23
82.65
81.31
78.29
74.34
70.41
67.12
64.43
61.65
57.78
51.92
43.63
33.09
21.03
8.53
-3.36
-13.92
-23.00
-31.08
-38.95
-47.49
-57.33
-68.77
-81.74
-95.84
-110.26
-123.53
-133.53
-137.73
-133.82
-120.46
-97.79
-67.47
-32.21
5.03
41.57
75.21
104.14
126.62
141.16
146.89
144.15
134.92
122.62
111.30
104.44
103.81
108.89
117.12
124.90
128.72
126.26
116.83
101.25
81.23
58.70
35.24
11.90
-10.61
-31.63
-50.26
-65.37
-75.98
-81.73
-83.25
-82.16
-80.62
-80.62
-83.48
-89.53
-98.11
-107.74
-116.19
-120.71
-118.30
-106.28
-82.96
-48.31
-4.18
45.95
97.58
145.96
186.68
216.03
231.27
230.80
214.45
183.60
141.27
91.96
41.18
-5.15
-41.66
-64.57
-72.73
-67.98
-54.83
-39.09
-26.16
-19.49
-20.05
-26.82
-38.09
-52.57
-69.81
-89.58
-111.01
-131.99
-149.48
-160.65
-164.18
-161.01
-154.04
-147.00
-143.12
-144.16
-150.08
-159.21
-168.68
-175.12
-175.28
-166.81
-148.85
-122.37
-89.82
-54.32
-18.67
15.34
46.93
75.93
102.05
124.61
142.77
155.97
164.45
169.23
171.69
173.12
174.21
175.05
175.30
174.60
172.71
169.60
165.49
160.83
156.43
153.36
152.64
154.59
158.20
160.88
159.01
149.14
129.24
99.56
62.45
21.52
-19.54
-57.70
-90.78
-117.34
-136.69
-149.12
-156.24
-160.75
-165.49
-172.15
-180.27
-187.19
-189.18
-183.09
-167.70
-143.97
-114.37
-81.74
-48.39
-15.88
14.66
42.08
65.20
83.12
95.84
104.58
111.60
119.40
129.69
142.35
155.12
164.06
164.72
153.57
129.35
93.50
49.78
3.10
-41.83
-81.50
-113.97
-138.50
-154.95
-163.27
-163.46
-155.89
-141.76
-123.27
-103.36
-85.15
-71.23
-63.21
-61.60
-65.86
-74.48
-84.99
-94.19
-98.58
-95.23
-82.66
-61.29
-33.36
-2.21
28.69
56.55
79.46
96.38
106.73
110.43
107.94
100.50
90.10
79.17
69.93
63.74
60.87
60.54
61.43
62.26
62.27
61.34
59.74
57.86
55.86
53.62
50.74
46.73
41.24
34.07
25.32
15.42
5.01
-5.19
-14.58
-22.97
-30.67
-38.31
-46.70
-56.50
-68.08
-81.23
-95.05
-107.71
-116.58
-118.79
-112.09
-95.87
-71.54
-42.25
-11.67
17.16
42.68
64.80
84.08
100.81
114.49
123.98
128.05
126.13
118.66
106.97
92.84
77.99
63.69
50.59
38.80
28.15
18.37
9.31
0.94
-6.71
-13.68
-20.08
-26.08
-31.89
-37.59
-43.27
-48.94
-54.73
-60.85
-67.61
-75.30
-84.00
-93.51
-103.44
-113.31
-122.88
-132.17
-141.48
-150.93
-160.00
-167.17
-170.15
-166.61
-154.98
-135.30
-109.21
-79.34
-48.42
-18.48
9.41
34.81
57.36
76.33
90.71
99.65
103.18
102.44
99.52
96.64
95.44
96.29
98.42
100.36
100.78
99.03
95.37
90.68
85.91
81.68
78.03
74.51
70.33
64.75
57.28
47.86
37.05
25.86
15.51
6.91
0.35
-4.73
-9.46
-15.23
-23.18
-33.73
-46.31
-59.18
-69.56
-74.15
-69.92
-55.20
-30.27
2.54
39.59
76.97
111.44
140.75
163.26
177.40
181.31
173.21
152.21
119.27
77.65
32.58
-9.63
-43.08
-63.49
-69.24
-61.68
-44.79
-24.12
-5.36
7.07
10.88
6.05
-5.83
-22.46
-41.71
-61.96
-81.98
-100.70
-116.98
-129.77
-138.50
-143.30
-145.06
-145.11
-144.70
-144.72
-145.64
-147.67
-151.06
-155.93
-162.03
-168.19
-172.22
-171.28
-162.84
-145.66
-120.42
-89.60
-56.59
-24.52
4.54
29.80
51.40
69.72
84.94
96.88
105.18
109.76
110.99
109.76
107.21
104.40
101.92
99.84
97.83
95.44
92.47
89.05
85.49
82.01
78.50
74.45
69.24
62.41
53.86
43.94
33.20
22.17
11.32
0.94
-8.77
-17.71
-25.88
-33.50
-40.93
-48.72
-57.56
-68.00
-80.11
-93.04
-104.88
-112.85
-114.04
-106.40
-89.60
-65.20
-36.24
-6.16
22.21
47.28
68.59
86.34
100.82
112.13
120.29
125.61
128.88
131.49
135.15
141.54
151.69
165.48
181.33
196.21
206.31
207.95
198.62
177.56
145.56
104.50
56.72
5.02
-47.17
-95.53
-135.23
-162.03
-173.70
-170.92
-157.36
-138.56
-120.41
-107.72
-103.59
-109.30
-124.70
-148.35
-177.60
-208.42
-235.65
-253.75
-258.06
-246.05
-218.22
-178.08
-131.18
-83.49
-39.76
-2.49
28.12
53.30
74.59
92.90
108.26
120.24
128.51
133.34
135.70
136.94
138.31
140.65
144.24
149.13
155.34
163.05
172.37
182.89
193.27
201.10
203.30
196.92
180.03
152.23
114.83
70.39
22.13
-26.65
-72.92
-113.98
-147.64
-172.46
-188.30
-196.66
-200.50
-203.46
-208.41
-216.19
-225.12
-231.61
-231.69
-222.71
-204.49
-179.24
-150.55
-121.79
-95.07
-70.80
-48.25
-26.63
-5.81
13.34
29.46
41.48
49.41
54.49
58.70
63.84
70.69
78.77
86.93
94.29
101.10
108.77
119.09
132.90
149.32
165.43
177.28
181.12
174.61
157.32
130.40
95.90
56.05
13.03
-30.80
-72.58
-108.96
-136.83
-154.49
-162.59
-164.31
-164.19
-166.14
-171.68
-179.25
-185.13
-185.43
-178.04
-163.42
-144.01
-122.61
-101.07
-79.93
-59.05
-38.75
-20.24
-5.15
5.66
13.24
20.48
31.07
47.66
70.38
96.56
121.61
140.96
151.82
154.14
150.31
143.90
138.13
134.71
133.40
132.41
129.19
121.27
107.10
86.40
60.20
30.59
0.06
-29.16
-55.58
-78.73
-99.00
-117.36
-135.04
-153.02
-171.60
-189.90
-205.69
-215.63
-216.29
-205.39
-182.90
-151.33
-114.92
-78.18
-44.33
-14.42
12.41
37.87
63.19
88.29
111.76
131.62
146.15
154.66
157.55
156.02
151.49
145.22
138.19
131.27
125.32
120.96
118.19
115.94
112.10
104.15
90.10
69.39
43.15
13.83
-15.72
-43.18
-67.25
-87.60
-104.42
-118.16
-129.43
-139.25
-149.03
-160.19
-173.12
-186.37
-196.29
-197.89
-186.65
-160.36
-120.31
-71.09
-19.00
30.14
72.72
107.90
136.85
161.33
182.43
200.01
213.24
221.52
225.29
226.20
226.48
228.07
231.93
237.78
244.49
250.69
255.43
258.37
259.66
259.64
258.61
256.69
254.01
250.74
247.06
242.87
237.60
230.13
219.15
203.64
183.44
159.37
132.94
105.73
78.72
52.07
25.26
-2.52
-31.90
-62.97
-95.11
-126.88
-156.28
-181.11
-199.64
-211.19
-216.49
-217.30
-215.71
-213.30
-210.64
-207.56
-203.72
-199.16
-194.38
-189.86
-185.45
-180.10
-172.24
-160.63
-145.19
-127.27
-109.31
-93.82
-82.50
-75.64
-72.30
-70.93
-70.10
-69.15
-68.22
-67.99
-69.25
-72.44
-77.54
-84.16
-91.76
-99.88
-108.32
-117.07
-126.35
-136.49
-147.98
-161.33
-177.05
-195.37
-215.81
-236.87
-255.82
-269.03
-272.88
-264.89
-244.78
-214.85
-179.26
-142.76
-109.13
-80.27
-56.28
-36.31
-19.57
-5.94
4.22
10.73
14.29
16.66
20.27
27.34
39.06
55.23
74.42
94.60
113.87
130.93
145.23
156.70
165.42
171.36
174.35
174.32
171.38
165.88
158.12
147.99
134.79
117.34
94.37
65.18
29.89
-10.37
-53.81
-98.36
-141.92
-182.28
-216.92
-243.05
-257.96
-259.87
-248.69
-226.21
-195.59
-160.24
-122.78
-84.66
-46.52
-9.14
25.95
56.44
80.04
95.49
103.21
105.12
103.90
102.10
101.44
102.60
105.43
109.20
113.09
116.33
118.40
119.07
118.39
116.45
113.24
108.54
101.98
93.25
82.37
69.90
56.82
44.38
33.60
25.01
18.45
13.10
7.73
1.01
-8.26
-20.86
-36.82
-55.05
-73.16
-87.62
-94.65
-91.47
-77.40
-54.33
-26.00
3.50
31.22
56.14
78.87
100.57
121.91
142.58
161.71
178.59
193.29
206.48
218.91
230.85
241.96
251.56
259.13
264.48
267.58
268.12
265.30
257.96
245.08
226.12
201.15
170.61
135.03
95.08
52.00
8.18
-32.84
-67.00
-91.11
-104.28
-108.40
-107.64
-106.83
-109.84
-118.58
-133.02
-151.87
-173.27
-194.98
-214.18
-227.40
-231.14
-222.96
-202.76
-173.17
-138.77
-104.41
-73.56
-47.41
-25.15
-5.05
14.27
33.25
51.38
67.84
82.08
94.25
105.01
115.26
125.63
136.21
146.60
156.12
164.30
171.10
177.01
182.80
189.13
196.25
203.78
210.86
216.34
219.14
218.44
213.89
205.55
193.84
179.35
162.70
144.49
125.25
105.51
85.70
66.14
46.93
27.86
8.56
-11.14
-30.80
-49.26
-64.77
-75.58
-80.71
-80.32
-75.70
-68.75
-61.31
-54.61
-49.30
-45.60
-43.73
-43.91
-46.32
-50.78
-56.65
-62.98
-68.79
-73.50
-77.02
-79.72
-82.12
-84.59
-87.21
-89.70
-91.67
-92.86
-93.26
-93.15
-93.02
-93.41
-94.64
-96.81
-99.71
-102.96
-106.13
-108.88
-111.12
-113.09
-115.33
-118.44
-122.95
-128.98
-136.03
-143.04
-148.45
-150.58
-147.87
-139.31
-124.63
-104.51
-80.46
-54.51
-28.75
-4.85
16.17
33.95
48.39
59.39
66.74
70.32
70.39
67.81
63.92
60.13
57.32
55.55
54.08
51.87
48.06
42.51
35.74
28.66
22.06
16.27
11.01
5.68
-0.48
-7.96
-16.96
-27.31
-38.53
-49.92
-60.79
-70.57
-79.05
-86.48
-93.60
-101.36
-110.49
-121.16
-132.61
-143.07
-150.17
-151.39
-144.88
-130.08
-108.06
-81.22
-52.56
-24.81
0.28
22.02
40.52
56.07
68.78
78.50
85.05
88.41
88.86
86.97
83.32
78.47
72.89
67.11
61.62
56.81
52.87
49.64
46.71
43.57
39.80
35.22
29.81
23.62
16.60
8.66
-0.21
-9.77
-19.44
-28.45
-36.20
-42.56
-47.92
-53.15
-59.19
-66.74
-75.98
-86.67
-98.15
-109.41
-119.06
-125.24
-125.95
-119.50
-105.26
-84.15
-58.53
-31.63
-6.31
15.62
33.81
48.87
61.57
72.21
80.37
85.42
87.01
85.51
82.04
77.90
74.22
71.56
69.92
68.89
67.94
66.58
64.48
61.51
57.60
52.67
46.51
38.80
29.28
18.02
5.48
-7.42
-19.59
-30.13
-38.60
-45.15
-50.39
-55.09
-59.91
-65.32
-71.53
-78.62
-86.51
-94.82
-102.88
-109.52
-113.22
-112.46
-106.20
-94.26
-77.51
-57.72
-37.04
-17.55
-0.86
12.05
20.78
25.35
26.20
24.13
20.33
16.17
12.78
10.60
9.07
6.71
1.88
-6.26
-16.82
-26.89
-32.00
-27.24
-8.74
25.08
72.77
129.69
188.63
241.00
278.58
295.38
289.03
261.29
217.25
163.61
106.78
51.37
-0.42
-48.38
-93.73
-138.58
-185.48
-236.92
-294.27
-356.47
-419.18
-475.10
-515.87
-534.92
-529.92
-503.70
-463.14
-416.55
-370.89
-330.15
-295.25
-265.31
-239.10
-215.93
-195.67
-178.15
-162.70
-148.06
-132.83
-115.98
-97.28
-77.10
-55.96
-34.01
-10.96
13.53
39.20
64.62
87.43
104.94
115.24
117.89
114.04
105.90
95.89
85.92
77.10
69.71
63.48
57.62
50.99
42.19
29.87
13.38
-6.58
-27.66
-46.11
-57.67
-58.93
-48.34
-26.72
3.02
36.99
71.53
104.01
133.16
158.59
180.27
198.00
211.40
220.21
224.70
225.80
224.90
223.35
222.18
221.73
221.78
221.81
221.23
219.57
216.53
211.99
206.01
198.77
190.53
181.58
172.05
161.92
151.06
139.35
126.83
113.75
100.45
87.25
74.32
61.74
49.45
37.32
25.09
12.33
-1.45
-16.61
-32.90
-49.02
-62.58
-70.49
-69.93
-59.31
-39.03
-11.30
20.50
53.00
83.64
111.11
135.03
155.39
172.09
184.80
193.45
198.61
201.75
204.95
210.15
218.40
229.31
241.14
251.25
256.96
256.18
247.78
231.57
208.03
178.16
143.15
104.37
63.28
21.57
-18.90
-56.18
-88.63
-115.43
-137.01
-154.91
-171.34
-188.30
-206.99
-227.66
-249.81
-272.48
-294.25
-312.85
-325.04
-326.93
-315.12
-287.86
-245.90
-192.25
-131.33
-67.97
-6.79
48.07
93.07
125.72
145.22
153.03
152.59
148.33
144.19
142.56
143.91
147.33
151.52
155.42
158.55
160.73
161.82
161.34
158.65
152.96
143.61
130.29
113.07
92.32
68.69
43.01
16.33
-10.10
-34.90
-56.88
-75.44
-90.99
-104.85
-118.83
-134.60
-153.12
-174.44
-197.73
-221.49
-243.57
-261.24
-271.41
-271.32
-259.44
-236.26
-204.40
-167.94
-131.13
-97.19
-67.87
-43.71
-24.78
-11.28
-3.35
-0.53
-1.21
-2.53
-1.00
6.49
21.61
44.31
72.75
103.96
134.36
160.38
178.92
187.70
185.54
172.41
149.15
117.10
77.82
32.99
-15.31
-64.54
-111.76
-154.06
-189.20
-215.93
-234.16
-244.62
-248.57
-247.62
-243.68
-238.82
-234.79
-232.30
-230.37
-226.39
-216.86
-198.91
-171.80
-137.43
-99.83
-63.63
-32.39
-7.50
11.74
27.12
40.19
51.38
60.01
65.10
66.32
64.62
62.12
61.26
63.85
70.39
79.98
90.89
101.39
110.38
117.61
123.42
128.12
131.65
133.48
132.97
129.81
124.38
117.82
111.65
107.13
104.84
104.43
104.92
105.20
104.49
102.37
98.46
92.14
82.45
68.59
50.69
30.17
9.56
-8.36
-21.83
-30.62
-35.95
-39.54
-42.59
-45.10
-46.09
-44.38
-39.41
-31.75
-22.91
-14.59
-7.90
-2.68
2.49
9.87
21.58
38.62
60.22
83.99
106.59
124.82
136.51
140.95
138.78
131.47
120.77
108.30
95.19
81.81
67.56
50.99
30.07
2.98
-31.07
-71.28
-115.27
-159.68
-201.04
-236.49
-263.99
-282.10
-289.64
-285.61
-269.67
-242.78
-207.59
-168.10
-128.52
-91.91
-59.25
-29.55
-0.85
28.36
58.11
86.97
112.90
134.35
151.07
164.09
175.10
185.70
196.91
209.14
222.44
236.79
252.17
268.48
285.39
302.33
318.41
332.71
344.38
352.70
357.13
357.23
352.63
343.09
328.61
309.54
286.75
261.54
235.34
209.43
184.50
160.59
137.15
113.49
89.13
64.02
38.58
13.42
-10.95
-34.34
-57.01
-79.59
-103.00
-128.43
-157.07
-189.63
-225.55
-262.48
-296.25
-321.77
-334.60
-332.30
-315.18
-285.84
-247.95
-204.85
-158.90
-111.52
-63.89
-17.66
24.96
61.57
90.19
109.90
121.04
124.94
123.49
118.41
110.68
100.29
86.52
68.52
46.09
19.99
-8.22
-36.84
-64.77
-91.95
-119.27
-148.03
-179.45
-214.36
-253.15
-295.57
-340.46
-385.42
-426.89
-460.72
-483.32
-492.66
-488.77
-473.64
-450.27
-421.83
-390.91
-359.20
-327.59
-296.41
-265.70
-235.48
-205.88
-177.09
-149.21
-122.32
-96.41
-71.88
-49.75
-31.76
-19.71
-14.72
-16.49
-23.13
-31.90
-40.25
-46.73
-51.38
-55.24
-59.44
-64.38
-69.54
-73.81
-76.27
-76.81
-76.28
-76.18
-78.00
-82.72
-90.57
-101.02
-112.93
-124.58
-133.72
-137.85
-134.68
-122.86
-102.44
-74.83
-42.21
-6.79
29.70
66.00
100.80
132.56
159.44
179.88
193.29
200.36
202.83
202.84
202.11
201.52
201.13
200.57
199.42
197.48
194.79
191.50
187.78
183.69
179.18
174.02
167.85
160.27
151.04
140.32
128.68
117.03
106.28
97.00
89.32
82.76
76.53
69.64
61.23
51.02
39.74
29.47
23.68
26.40
41.03
69.12
109.66
159.17
212.64
264.85
311.32
348.94
375.90
391.41
395.39
388.28
371.08
345.39
313.42
277.74
240.85
204.59
169.63
135.34
100.03
61.76
19.43
-26.47
-73.46
-117.53
-154.29
-180.28
-194.12
-197.00
-192.29
-184.47
-177.63
-174.19
-174.25
-175.94
-176.45
-173.39
-165.70
-154.01
-140.24
-126.63
-114.92
-105.56
-97.68
-89.41
-78.58
-63.65
-44.40
-22.39
-0.74
16.47
25.42
23.55
10.27
-12.99
-43.26
-76.76
-109.50
-137.77
-158.50
-169.52
-170.01
-160.68
-143.77
-122.60
-100.66
-80.79
-64.41
-51.42
-40.71
-30.92
-21.31
-12.07
-4.27
0.74
1.97
-0.74
-6.66
-14.37
-22.34
-29.37
-34.82
-38.72
-41.62
-44.48
-48.49
-54.78
-63.89
-75.21
-86.59
-94.65
-95.63
-86.70
-67.19
-38.87
-5.41
28.95
60.88
88.71
112.32
132.30
149.07
162.39
171.60
176.28
176.87
174.87
172.41
171.47
173.19
177.62
183.76
190.14
195.23
197.77
196.87
191.98
182.87
169.63
152.74
132.98
111.31
88.77
66.51
45.77
27.81
13.80
4.33
-0.81
-2.71
-3.12
-3.92
-6.69
-12.35
-20.93
-31.45
-41.88
-49.34
-50.72
-43.52
-26.74
-1.25
30.58
65.65
101.08
134.72
165.03
190.56
209.69
220.66
222.10
213.73
196.62
172.94
145.29
115.86
85.91
55.60
24.25
-9.16
-45.49
-84.81
-126.09
-167.17
-205.26
-237.79
-263.28
-281.67
-294.13
-302.16
-306.65
-307.56
-304.01
-295.25
-281.45
-264.17
-246.05
-230.16
-219.06
-214.09
-214.77
-218.63
-221.44
-217.90
-202.97
-173.50
-129.51
-74.63
-15.46
40.31
85.87
117.05
132.96
135.51
128.19
114.78
98.34
80.97
63.87
47.74
32.85
18.80
4.32
-12.61
-33.93
-60.37
-90.42
-120.30
-144.86
-159.53
-162.06
-153.45
-137.46
-119.07
-102.72
-91.14
-85.18
-84.49
-88.43
-96.56
-108.69
-124.38
-142.73
-162.52
-182.42
-201.27
-217.97
-231.06
-238.44
-237.66
-226.66
-204.67
-172.77
-133.53
-90.24
-45.89
-2.61
38.24
75.60
108.38
135.48
156.14
170.41
179.10
183.60
185.39
185.65
185.13
184.07
182.31
179.51
175.31
169.63
162.79
155.55
148.71
142.81
137.78
133.01
127.70
121.23
113.53
105.00
96.25
87.76
79.64
71.63
63.28
54.03
43.48
31.44
18.15
4.49
-7.84
-16.42
-18.43
-11.19
7.19
37.42
78.73
129.00
185.14
243.66
301.18
354.76
401.92
440.64
469.34
487.06
493.80
490.69
479.94
464.28
446.26
427.58
408.86
389.96
370.48
350.26
329.51
308.61
287.76
266.82
245.45
223.31
200.44
177.33
154.67
133.12
112.92
93.79
75.06
55.98
36.08
15.40
-5.58
-26.19
-46.02
-65.20
-84.42
-104.65
-126.77
-151.09
-177.25
-204.38
-231.42
-257.65
-282.88
-307.53
-332.50
-359.02
-388.35
-421.23
-457.25
-494.35
-528.60
-554.75
-567.49
-562.95
-540.04
-500.79
-449.72
-392.35
-333.66
-277.25
-225.29
-179.20
-140.20
-109.52
-87.97
-75.39
-70.41
-70.72
-73.86
-77.94
-82.11
-86.52
-91.74
-98.31
-106.36
-115.52
-125.16
-134.70
-143.76
-152.33
-160.45
-167.82
-173.30
-174.97
-170.62
-158.77
-139.42
-114.36
-86.59
-59.29
-34.80
-14.29
1.98
13.94
21.27
23.33
19.51
9.82
-4.96
-23.28
-43.30
-63.13
-81.07
-95.54
-105.04
-108.14
-103.79
-91.61
-72.28
-47.67
-20.67
5.26
26.79
41.36
47.71
46.08
38.00
25.75
11.60
-2.71
-16.30
-29.04
-41.38
-54.06
-67.81
-83.03
-99.35
-115.20
-127.81
-133.69
-129.74
-114.45
-88.60
-55.13
-18.21
18.20
51.43
80.40
105.24
126.47
144.32
158.58
168.86
175.09
177.83
178.15
177.37
176.49
175.94
175.70
175.65
175.98
177.38
180.65
186.17
193.53
201.44
208.18
212.25
213.12
211.54
209.28
208.49
210.98
217.77
229.02
244.14
262.08
281.55
301.10
318.98
333.17
341.65
342.98
336.82
324.15
306.71
286.56
265.35
243.90
222.11
199.40
175.27
149.65
122.91
94.83
65.19
33.86
1.07
-32.78
-67.11
-101.21
-134.25
-165.29
-194.52
-221.52
-244.82
-262.28
-272.33
-274.73
-270.66
-261.90
-250.28
-239.07
-230.35
-224.61
-221.36
-220.51
-222.81
-229.19
-239.68
-253.24
-270.49
-290.74
-311.75
-330.55
-345.30
-356.05
-363.81
-368.99
-355.47
-315.09
-252.11
-181.43
-118.16
-70.75
-41.01
-26.26
-20.74
-18.31
-17.85
-19.70
-23.86
-29.10
-33.49
-34.85
-33.30
-28.28
-19.56
-9.46
-0.09
7.63
14.11
20.24
26.64
33.70
42.14
52.56
64.20
76.56
89.64
103.56
117.61
129.93
138.03
140.12
135.50
124.29
107.90
88.58
68.55
49.23
30.97
13.45
-3.49
-19.45
-33.38
-43.30
-46.67
-41.25
-26.10
-2.26
27.45
59.53
90.89
119.81
146.05
170.18
192.61
212.90
229.73
241.53
247.36
247.34
242.65
235.01
226.02
216.67
207.21
197.28
186.35
173.99
160.07
144.85
128.79
112.38
95.83
78.92
61.13
41.88
21.00
-1.00
-22.95
-43.37
-61.02
-75.39
-86.72
-95.71
-103.11
-109.24
-113.97
-116.73
-116.63
-112.38
-102.29
-84.50
-57.69
-21.97
20.52
65.65
108.34
143.96
169.77
185.44
192.58
193.65
190.68
184.65
175.57
163.09
147.16
128.39
107.79
86.38
64.61
42.42
19.56
-3.87
-27.03
-48.39
-66.40
-80.03
-89.32
-95.26
-99.32
-102.79
-106.32
-109.77
-112.53
-113.89
-113.55
-111.76
-109.28
-107.16
-106.32
-107.20
-109.47
-111.93
-112.74
-109.91
-101.83
-87.77
-68.03
-43.86
-17.21
9.71
34.63
55.63
71.37
81.32
85.86
86.05
83.27
78.91
74.07
69.62
66.25
64.35
63.77
63.69
62.67
59.34
53.08
44.60
35.82
28.98
25.49
25.06
25.72
24.56
19.05
8.01
-8.03
-27.26
-47.47
-66.72
-83.72
-97.73
-108.47
-116.14
-121.59
-126.41
-132.46
-140.97
-151.41
-161.10
-165.85
-161.67
-146.66
-121.99
-91.44
-59.80
-30.88
-6.48
13.37
29.35
41.88
50.84
56.17
58.64
60.10
62.80
68.13
75.63
83.01
87.10
85.45
77.56
65.13
51.32
39.48
31.79
28.70
28.94
30.33
30.59
28.12
22.26
13.17
1.53
-11.79
-25.77
-39.39
-51.62
-61.69
-69.29
-74.90
-79.67
-84.95
-91.56
-99.01
-105.41
-107.92
-103.92
-92.04
-72.85
-48.68
-22.74
1.84
22.90
39.41
51.43
59.67
65.20
69.27
73.08
77.50
82.84
88.62
93.77
97.01
97.39
94.64
89.21
82.01
74.18
66.65
59.98
54.27
49.15
43.92
37.74
29.90
20.14
8.79
-3.31
-15.12
-25.93
-35.66
-44.88
-54.50
-65.26
-77.40
-90.58
-104.13
-117.35
-129.48
-139.61
-146.43
-148.39
-144.20
-133.54
-117.46
-98.24
-78.52
-60.26
-44.32
-30.63
-19.03
-9.83
-4.00
-2.46
-5.26
-11.10
-17.70
-22.74
-24.98
-24.72
-23.43
-22.87
-24.05
-26.82
-30.18
-33.00
-34.74
-35.76
-37.16
-40.05
-45.04
-51.93
-59.86
-67.71
-74.65
-80.31
-84.77
-88.32
-91.26
-93.83
-96.22
-98.84
-102.12
-106.21
-110.59
-113.84
-114.10
-109.88
-100.89
-88.19
-73.78
-59.64
-46.79
-35.08
-23.53
-11.22
1.93
14.96
26.46
35.35
41.48
45.72
49.58
54.69
62.16
72.23
84.33
97.43
110.52
122.89
134.29
144.65
154.22
162.81
169.68
173.81
174.54
171.94
166.79
160.18
153.11
146.79
141.74
137.62
133.57
128.81
122.92
115.79
107.43
97.91
88.46
80.31
74.13
70.12
68.38
68.91
71.37
74.85
78.17
81.71
85.92
90.73
95.31
98.41
98.71
94.73
85.22
61.85
22.86
-25.31
-71.02
-104.92
-124.23
-131.31
-130.51
-125.74
-119.33
-110.89
-99.81
-86.69
-73.33
-61.81
-53.21
-47.49
-43.76
-40.74
-36.27
-29.17
-19.74
-9.51
-0.10
7.59
13.39
17.68
21.10
24.84
29.45
34.50
39.14
42.50
44.36
44.74
44.13
43.24
43.02
44.09
46.56
50.20
54.70
60.05
65.84
71.96
78.44
85.43
92.95
100.93
109.25
117.83
126.85
135.72
144.17
151.95
158.80
164.28
167.72
168.07
163.35
156.98
149.73
142.02
134.09
126.10
118.10
110.16
102.41
95.00
88.32
81.96
75.77
69.70
63.68
57.67
51.67
45.71
39.99
34.86
30.09
25.65
21.52
17.62
13.80
9.97
6.08
2.25
-1.16
-4.13
-6.53
-8.36
-9.83
-11.30
-13.18
-15.68
-18.66
-21.60
-23.96
-25.21
-25.12
-23.96
-22.37
-21.08
-20.51
-20.49
-20.27
-18.95
-15.92
-11.40
-6.66
-3.79
-5.15
-12.61
-26.97
-48.01
-74.85
-106.55
-142.68
-183.56
-229.95
-282.76
-342.85
-410.70
-485.84
-565.90
-645.80
-717.78
-772.96
-803.92
-807.44
-785.89
-746.40
-698.11
-648.95
-603.55
-563.00
-526.25
-491.87
-459.07
-427.60
-396.98
-365.97
-332.71
-295.71
-254.65
-210.71
-166.23
-123.79
-85.13
-50.54
-18.96
11.56
43.04
76.83
113.05
150.39
186.39
217.91
242.12
257.15
262.62
259.58
250.10
236.45
220.55
203.78
187.06
171.15
156.79
144.78
135.67
129.62
126.23
124.67
123.94
123.18
121.84
119.83
117.40
114.83
112.13
109.07
104.96
99.29
91.88
83.30
74.66
67.46
63.25
63.23
68.19
78.19
92.47
109.50
127.27
143.68
156.93
165.94
170.67
172.19
172.16
172.30
173.62
176.26
179.35
181.51
181.39
178.21
172.28
164.70
156.85
149.99
145.19
143.13
143.53
145.19
146.06
144.69
140.26
132.74
122.78
111.79
101.09
91.13
81.39
70.59
58.87
46.80
34.52
21.63
8.06
-5.94
-20.29
-35.31
-52.28
-70.90
-90.95
-112.71
-136.07
-158.79
-176.67
-185.33
-182.01
-167.44
-142.67
-110.68
-76.23
-52.14
-50.51
-74.13
-114.16
-150.51
-179.79
-202.35
-218.73
-231.24
-239.40
-240.93
-233.31
-215.69
-189.75
-159.92
-128.71
-97.74
-68.14
-40.13
-12.85
14.92
43.45
71.44
95.96
115.89
131.11
141.99
149.27
153.91
156.53
156.84
153.72
145.45
132.05
114.61
94.52
73.32
52.39
32.85
15.40
0.23
-13.05
-24.53
-34.48
-43.61
-52.75
-62.51
-72.91
-83.12
-91.52
-96.08
-94.55
-85.41
-68.39
-44.69
-16.64
12.90
41.35
66.80
88.14
104.87
116.78
123.83
126.17
124.43
119.79
113.84
108.20
104.08
101.85
101.03
100.54
99.30
96.72
92.84
88.32
83.86
79.86
76.11
71.89
66.38
59.11
50.19
40.35
30.49
21.34
13.07
5.38
-2.41
-11.08
-21.14
-32.58
-44.64
-55.76
-63.87
-66.86
-63.19
-52.45
-35.46
-14.10
9.24
32.25
53.24
71.16
85.59
96.42
103.67
107.48
108.17
106.32
102.84
98.63
94.52
90.92
87.78
84.75
81.44
77.69
73.59
69.40
65.30
61.30
57.12
52.36
46.69
40.02
32.55
24.79
17.26
10.27
3.71
-3.05
-10.86
-20.48
-32.06
-44.88
-57.31
-67.05
-71.81
-69.89
-60.80
-45.54
-26.32
-5.99
12.84
28.51
40.54
49.36
55.79
60.38
63.20
63.98
62.47
58.82
53.69
48.12
43.05
39.05
36.14
33.91
31.80
29.29
26.18
22.55
18.65
14.65
10.46
5.79
0.34
-5.95
-12.71
-19.29
-25.07
-29.90
-34.31
-39.35
-46.10
-55.03
-65.52
-75.85
-83.61
-86.50
-83.04
-73.08
-57.69
-38.82
-18.70
0.78
18.15
32.56
43.60
51.16
55.42
56.84
56.11
53.98
51.16
48.10
45.02
41.91
38.73
35.42
32.11
28.91
25.92
23.14
20.31
17.06
12.86
7.32
0.38
-7.57
-15.73
-23.23
-29.47
-34.37
-38.45
-42.61
-47.79
-54.47
-62.52
-71.09
-78.79
-83.97
-85.10
-81.10
-71.68
-57.52
-40.13
-21.60
-3.94
11.28
23.32
32.14
38.24
42.15
44.30
44.86
43.86
41.44
37.86
33.56
28.99
24.55
20.50
16.97
13.90
11.08
8.23
4.99
1.11
-3.57
-8.95
-14.74
-20.51
-25.81
-30.27
-33.83
-36.74
-39.54
-42.98
-47.70
-53.90
-61.15
-68.32
-73.73
-75.60
-72.59
-64.13
-50.81
-34.15
-16.24
0.82
15.45
26.84
34.89
39.97
42.56
43.02
41.64
38.67
34.54
29.82
25.20
21.25
18.28
16.24
14.78
13.38
11.54
8.91
5.45
1.29
-3.35
-8.24
-13.25
-18.34
-23.44
-28.44
-33.21
-37.67
-41.88
-46.08
-50.61
-55.52
-60.42
-64.33
-65.87
-63.74
-57.24
-46.56
-32.83
-17.70
-2.80
10.65
21.94
30.83
37.24
41.16
42.69
42.08
39.87
36.70
33.20
29.83
26.85
24.31
22.17
20.34
18.59
16.63
14.03
10.46
5.82
0.33
-5.63
-11.59
-17.23
-22.42
-27.23
-31.73
-36.08
-40.47
-45.16
-50.46
-56.43
-62.62
-67.90
-70.69
-69.42
-63.20
-52.16
-37.50
-21.03
-4.63
10.27
22.94
33.15
40.93
46.25
48.96
49.08
46.96
43.38
39.42
35.97
33.45
31.66
29.99
27.80
24.86
21.41
17.97
14.97
12.44
9.97
6.93
2.88
-2.25
-8.05
-13.91
-19.27
-23.84
-27.78
-31.61
-35.97
-41.40
-48.07
-55.56
-62.83
-68.42
-70.73
-68.57
-61.44
-49.73
-34.65
-17.87
-1.12
14.18
27.10
37.17
44.31
48.67
50.56
50.38
48.60
45.70
42.15
38.35
34.60
31.10
27.94
25.15
22.70
20.47
18.23
15.68
12.44
8.20
2.83
-3.55
-10.53
-17.55
-24.17
-30.19
-35.69
-40.95
-46.30
-52.03
-58.43
-65.70
-73.85
-82.42
-90.18
-95.32
-95.81
-90.21
-78.27
-61.12
-40.90
-20.06
-0.57
16.44
30.62
42.03
50.79
56.95
60.42
61.18
59.49
55.93
51.37
46.81
43.02
40.39
38.76
37.62
36.38
34.72
32.62
30.31
27.87
25.01
21.11
15.51
7.96
-1.15
-10.79
-19.76
-27.25
-33.17
-38.17
-43.28
-49.46
-57.24
-66.54
-76.77
-86.89
-95.45
-100.81
-101.33
-95.80
-83.97
-66.63
-45.64
-23.25
-1.60
17.83
34.28
47.59
57.77
64.85
68.84
69.90
68.42
65.09
60.73
56.21
52.14
48.76
45.97
43.37
40.56
37.29
33.53
29.44
25.22
20.91
16.36
11.18
4.99
-2.45
-11.04
-20.21
-29.18
-37.11
-43.56
-48.59
-52.88
-57.44
-63.18
-70.61
-79.63
-89.55
-99.19
-107.02
-111.32
-110.35
-102.88
-88.60
-68.49
-44.69
-19.99
2.92
22.15
36.92
47.42
54.20
57.84
58.67
56.96
53.20
48.31
43.49
39.92
38.30
38.57
40.03
41.64
42.58
42.52
41.64
40.29
38.62
36.40
33.05
28.08
21.32
13.17
4.46
-3.77
-10.62
-15.49
-18.10
-18.52
-17.08
-14.43
-11.53
-9.71
-10.36
-14.55
-22.36
-32.47
-42.22
-48.16
-47.24
-37.95
-21.01
0.86
23.96
45.00
62.15
75.10
84.55
91.22
95.37
96.71
95.01
90.66
84.73
78.63
73.51
69.90
67.81
67.10
67.84
70.29
74.55
80.19
86.06
90.66
92.79
91.94
88.36
82.75
75.73
67.58
58.26
47.73
36.19
24.06
11.73
-0.67
-13.22
-26.06
-39.07
-51.81
-63.54
-73.55
-81.12
-85.59
-86.17
-82.03
-72.82
-59.02
-42.18
-24.49
-7.99
6.25
18.31
29.03
39.15
48.58
56.37
61.19
62.14
59.28
53.55
46.36
38.98
32.12
25.94
20.32
15.00
9.95
5.18
0.91
-2.59
-5.12
-6.73
-7.79
-9.06
-11.54
-16.09
-23.10
-32.28
-42.74
-53.29
-62.87
-70.85
-77.03
-81.59
-84.88
-87.26
-89.16
-90.97
-92.98
-95.04
-96.36
-95.51
-90.63
-80.14
-63.35
-40.77
-14.12
14.20
41.92
67.25
89.21
107.48
122.10
133.26
141.28
146.69
150.30
153.17
156.24
160.07
164.54
169.01
172.53
174.17
173.21
169.22
161.99
151.64
138.53
123.35
107.03
90.47
74.29
58.63
43.16
27.33
10.68
-6.86
-24.77
-42.04
-57.44
-69.96
-79.31
-86.16
-92.13
-99.42
-110.00
-124.78
-142.98
-162.11
-178.59
-188.96
-190.96
-184.43
-171.40
-155.50
-140.95
-131.39
-128.95
-133.75
-144.01
-156.55
-167.76
-174.64
-175.66
-171.08
-162.62
-152.60
-142.97
-134.65
-127.63
-121.37
-115.54
-110.21
-105.73
-102.23
-99.22
-95.70
-90.61
-83.55
-75.17
-66.97
-60.49
-56.62
-55.12
-54.99
-55.10
-54.96
-54.88
-55.76
-58.40
-63.14
-69.86
-78.10
-87.37
-96.88
-105.45
-111.22
-112.02
-106.08
-92.68
-72.50
-47.38
-19.62
8.55
35.34
59.34
79.36
94.33
103.54
106.89
105.16
99.88
93.00
86.39
81.37
78.53
77.67
78.14
79.00
79.33
78.46
76.06
72.12
66.93
60.93
54.56
48.06
41.40
34.31
26.53
18.05
9.16
0.39
-7.84
-15.42
-22.68
-30.32
-39.10
-49.66
-62.34
-76.98
-92.71
-107.88
-120.07
-126.55
-124.95
-113.93
-93.74
-66.21
-34.33
-1.42
29.58
56.67
78.98
96.48
109.57
118.69
124.05
125.83
124.36
120.45
115.32
110.29
106.24
103.28
100.74
97.61
93.10
87.10
80.22
73.39
67.39
62.35
57.78
52.74
46.25
37.82
27.57
16.29
5.09
-5.07
-13.70
-20.96
-27.58
-34.50
-42.48
-51.96
-62.98
-75.13
-87.55
-98.80
-106.85
-109.32
-104.14
-90.40
-68.83
-41.78
-12.57
15.60
40.51
61.23
77.79
90.53
99.62
104.91
106.29
104.04
99.05
92.69
86.36
81.11
77.34
74.82
72.94
70.96
68.39
64.99
60.81
56.04
50.80
45.09
38.74
31.56
23.45
14.45
4.81
-5.11
-14.93
-24.25
-32.79
-40.39
-47.22
-53.82
-61.05
-69.84
-80.62
-92.81
-104.56
-113.05
-115.18
-108.65
-92.81
-68.95
-39.95
-9.45
19.20
43.67
62.93
77.06
86.72
92.67
95.47
95.49
93.22
89.33
84.81
80.60
77.36
75.12
73.35
71.22
68.04
63.68
58.52
53.31
48.65
44.62
40.67
35.79
29.04
19.91
8.67
-3.79
-16.28
-27.82
-37.96
-46.89
-55.23
-63.68
-72.82
-83.00
-94.31
-106.47
-118.62
-129.17
-135.82
-136.06
-127.95
-110.97
-86.36
-56.95
-26.21
2.69
27.71
48.21
64.45
77.07
86.42
92.55
95.35
95.03
92.37
88.58
84.93
82.18
80.31
78.60
76.11
72.26
67.08
61.26
55.63
50.78
46.67
42.64
37.70
31.05
22.47
12.40
1.76
-8.48
-17.73
-26.01
-33.76
-41.62
-50.03
-59.07
-68.69
-78.85
-89.60
-100.80
-111.67
-120.37
-124.35
-121.04
-108.94
-88.47
-61.98
-32.96
-4.96
19.52
39.40
54.82
66.48
74.96
80.47
83.00
82.65
79.93
75.74
71.24
67.39
64.66
62.95
61.65
60.13
57.83
54.59
50.57
46.06
41.26
36.24
30.86
24.83
17.89
9.89
0.95
-8.52
-17.90
-26.59
-34.26
-41.04
-47.47
-54.30
-62.18
-71.40
-81.90
-93.15
-104.26
-113.72
-119.58
-119.73
-112.48
-97.34
-75.38
-49.06
-21.59
4.09
26.09
43.60
56.69
65.70
70.83
72.16
69.94
64.89
58.30
51.85
47.09
44.86
45.01
46.39
47.39
46.64
43.68
39.02
33.84
29.21
25.44
21.96
17.57
11.27
2.76
-7.27
-17.53
-26.81
-34.49
-40.73
-46.32
-52.24
-59.29
-67.87
-78.00
-89.26
-100.75
-111.03
-118.16
-120.05
-115.06
-102.53
-83.18
-59.04
-32.88
-7.45
15.21
34.04
48.91
60.17
68.27
73.56
76.24
76.56
74.90
71.94
68.45
65.08
62.18
59.64
56.99
53.70
49.49
44.54
39.49
35.01
31.43
28.48
25.27
20.77
14.20
5.52
-4.69
-15.43
-25.71
-34.84
-42.60
-49.25
-55.37
-61.78
-69.35
-78.82
-90.48
-103.71
-116.82
-127.10
-131.49
-127.57
-114.33
-92.75
-65.50
-36.06
-7.74
17.14
37.54
53.40
65.03
72.78
76.87
77.64
75.73
72.20
68.19
64.66
62.03
60.15
58.55
56.69
54.24
51.14
47.54
43.61
39.53
35.42
31.22
26.79
21.81
15.87
8.67
0.15
-9.31
-19.00
-28.16
-36.28
-43.33
-49.75
-56.25
-63.47
-71.84
-81.45
-92.01
-102.83
-112.64
-119.62
-121.70
-117.04
-104.76
-85.46
-61.18
-34.83
-9.29
13.38
32.32
47.54
59.42
68.18
73.75
75.99
75.12
71.83
67.28
62.71
59.09
56.77
55.59
54.96
54.16
52.62
50.00
46.31
41.79
36.80
31.59
26.18
20.30
13.53
5.55
-3.62
-13.53
-23.42
-32.49
-40.25
-46.66
-52.16
-57.51
-63.57
-71.05
-80.25
-90.77
-101.40
-110.05
-114.17
-111.50
-100.76
-82.31
-58.10
-31.14
-4.54
19.28
39.09
54.73
66.58
75.12
80.62
83.14
82.91
80.44
76.61
72.41
68.71
65.93
64.00
62.43
60.64
58.08
54.52
50.04
44.97
39.73
34.52
29.29
23.63
17.07
9.24
0.10
-9.96
-20.30
-30.22
-39.27
-47.35
-54.81
-62.32
-70.65
-80.50
-92.14
-105.13
-118.18
-129.13
-135.50
-135.06
-126.61
-110.33
-87.80
-61.55
-34.34
-8.47
14.57
34.17
50.35
63.35
73.33
80.28
84.11
84.91
83.10
79.53
75.27
71.33
68.25
66.00
64.06
61.75
58.59
54.50
49.83
45.05
40.46
36.01
31.27
25.65
18.64
10.09
0.27
-10.17
-20.46
-30.00
-38.52
-46.13
-53.23
-60.38
-68.19
-77.24
-88.01
-100.53
-114.08
-126.95
-136.48
-139.72
-134.28
-119.33
-96.06
-67.41
-37.18
-8.82
15.46
35.04
50.43
62.54
71.94
78.69
82.44
82.97
80.59
76.29
71.55
67.70
65.47
64.74
64.71
64.35
62.94
60.25
56.56
52.32
47.75
42.73
36.88
29.81
21.51
12.29
2.79
-6.38
-14.77
-22.26
-29.00
-35.34
-41.77
-48.86
-57.08
-66.80
-78.06
-90.41
-102.77
-113.50
-120.47
-121.54
-115.09
-100.55
-78.77
-51.96
-23.09
4.81
29.44
49.61
65.15
76.44
84.02
88.30
89.59
88.35
85.33
81.60
78.16
75.70
74.27
73.42
72.33
70.26
66.83
62.13
56.53
50.56
44.53
38.45
31.98
24.57
15.78
5.52
-5.79
-17.33
-28.13
-37.55
-45.48
-52.46
-59.38
-67.17
-76.44
-87.42
-99.87
-113.16
-126.11
-136.91
-143.28
-142.81
-133.82
-115.98
-90.68
-60.68
-29.31
0.46
26.65
48.37
65.53
78.49
87.63
93.33
95.94
95.91
93.81
90.36
86.35
82.54
79.48
77.31
75.67
73.85
71.11
67.00
61.60
55.46
49.19
43.19
37.38
31.29
24.34
16.05
6.35
-4.54
-16.09
-27.68
-38.64
-48.44
-56.89
-64.18
-71.05
-78.57
-87.84
-99.37
-112.66
-125.90
-136.10
-139.90
-134.55
-119.02
-94.48
-64.04
-31.82
-1.59
24.22
44.87
60.85
73.10
82.20
88.13
90.63
89.73
86.16
81.28
76.61
73.24
71.40
70.53
69.63
67.84
64.82
60.78
56.16
51.35
46.44
41.16
35.15
28.11
20.00
10.94
1.17
-9.05
-19.41
-29.58
-39.15
-47.77
-55.35
-62.13
-68.73
-75.94
-84.40
-94.40
-105.58
-116.83
-126.28
-131.53
-130.21
-120.61
-102.45
-77.06
-47.33
-16.80
11.34
34.99
53.46
67.08
76.66
82.84
85.93
86.08
83.72
79.65
75.08
71.16
68.62
67.52
67.21
66.73
65.17
62.08
57.60
52.27
46.74
41.36
35.95
29.91
22.55
13.52
3.07
-8.05
-18.89
-28.75
-37.47
-45.46
-53.48
-62.25
-72.32
-83.96
-97.11
-111.28
-125.35
-137.32
-144.55
-144.35
-134.85
-115.84
-89.05
-57.68
-25.44
4.56
30.49
51.74
68.53
81.24
90.15
95.40
97.28
96.41
93.74
90.32
87.02
84.34
82.44
81.07
79.75
77.87
74.83
70.30
64.34
57.39
50.18
43.19
36.41
29.30
21.05
11.06
-0.66
-13.38
-25.95
-37.23
-46.66
-54.38
-61.21
-68.26
-76.61
-87.01
-99.62
-113.90
-128.40
-140.85
-148.34
-148.09
-138.28
-118.84
-91.60
-59.87
-27.43
2.63
28.46
49.66
66.67
80.13
90.42
97.51
101.13
101.21
98.15
92.84
86.56
80.62
76.05
73.22
71.86
71.18
70.17
68.10
64.62
59.92
54.39
48.31
41.67
34.11
25.17
14.56
2.50
-10.36
-22.97
-34.36
-43.99
-51.90
-58.75
-65.52
-73.13
-82.21
-93.00
-105.19
-117.95
-129.75
-138.44
-141.46
-136.66
-122.97
-101.00
-73.12
-42.67
-13.05
13.28
35.18
52.61
66.06
76.00
82.68
86.12
86.45
84.19
80.17
75.49
71.23
68.07
66.18
65.11
64.08
62.39
59.68
56.11
52.18
48.32
44.53
40.35
35.04
28.07
19.43
9.68
-0.34
-9.89
-18.69
-26.84
-34.67
-42.54
-50.55
-58.68
-67.05
-75.90
-85.65
-96.37
-107.33
-116.67
-121.68
-119.56
-108.53
-88.65
-61.96
-31.91
-2.20
24.35
46.34
63.69
77.02
86.92
93.57
96.91
97.05
94.54
90.49
86.16
82.52
79.83
77.69
75.25
71.85
67.22
61.61
55.54
49.46
43.48
37.35
30.71
23.24
14.96
6.02
-3.32
-12.87
-22.56
-32.30
-41.99
-51.40
-60.44
-69.18
-78.05
-87.61
-98.32
-110.17
-122.36
-133.25
-140.58
-142.03
-135.85
-121.58
-100.19
-73.92
-45.74
-18.47
5.80
26.01
41.95
53.92
62.40
67.75
70.37
70.71
69.52
67.65
66.01
65.27
65.62
66.73
67.77
67.74
65.85
61.85
56.09
49.44
42.86
37.06
32.26
28.10
23.83
18.64
12.03
3.97
-5.14
-14.63
-23.91
-32.71
-41.14
-49.61
-58.59
-68.49
-79.49
-91.45
-103.66
-114.77
-122.75
-125.25
-120.35
-107.20
-86.60
-60.89
-33.20
-6.49
17.25
37.27
53.71
66.96
77.18
84.09
87.31
86.86
83.43
78.34
73.09
68.93
66.37
65.16
64.48
63.33
60.96
57.09
51.96
46.15
40.28
34.71
29.41
23.96
17.79
10.49
1.95
-7.59
-17.65
-27.73
-37.36
-46.15
-53.94
-60.82
-67.27
-74.09
-82.15
-91.96
-103.17
-114.30
-122.88
-126.02
-121.43
-108.14
-87.04
-60.60
-32.18
-5.05
18.52
37.61
52.42
63.70
72.06
77.68
80.39
80.10
77.25
72.90
68.42
64.98
63.12
62.58
62.52
62.05
60.52
57.87
54.33
50.29
45.90
41.06
35.37
28.41
19.89
9.81
-1.43
-13.16
-24.63
-35.22
-44.68
-53.27
-61.52
-70.15
-79.83
-90.99
-103.69
-117.29
-130.29
-140.31
-144.46
-140.24
-126.50
-104.03
-75.51
-44.76
-15.40
10.09
30.83
47.17
59.94
69.80
76.95
81.33
82.94
82.15
79.69
76.47
73.36
70.85
69.06
67.71
66.36
64.51
61.86
58.40
54.32
49.88
45.19
40.09
34.17
26.98
18.29
8.20
-2.79
-14.04
-24.88
-34.92
-44.03
-52.48
-60.75
-69.54
-79.55
-91.23
-104.43
-118.13
-130.32
-138.26
-139.30
-131.66
-115.18
-91.49
-63.54
-34.72
-7.88
15.16
33.82
48.35
59.35
67.32
72.49
74.90
74.70
72.35
68.71
64.82
61.55
59.23
57.59
55.91
53.48
49.93
45.46
40.58
35.82
31.42
27.23
22.79
17.56
11.18
3.54
-5.14
-14.37
-23.55
-32.16
-39.92
-46.88
-53.38
-59.96
-67.15
-75.45
-85.22
-96.51
-108.86
-120.99
-130.72
-135.31
-132.25
-120.17
-99.52
-72.59
-42.87
-13.86
11.77
32.87
49.58
62.66
72.85
80.43
85.28
87.24
86.55
84.00
80.77
78.01
76.37
75.83
75.71
75.13
73.36
70.15
65.78
60.85
55.97
51.34
46.66
41.22
34.15
24.86
13.37
0.33
-13.11
-25.70
-36.51
-45.23
-52.25
-58.53
-65.34
-73.94
-85.11
-98.87
-114.16
-128.87
-140.04
-144.54
-140.01
-125.60
-102.43
-73.40
-42.34
-12.92
12.36
32.66
48.60
61.48
72.45
81.87
89.26
93.78
94.86
92.69
88.25
82.97
78.18
74.64
72.37
70.81
69.22
67.07
64.14
60.52
56.37
51.75
46.49
40.27
32.73
23.79
13.73
3.32
-6.45
-14.63
-20.74
-24.93
-28.00
-31.00
-35.02
-40.88
-48.95
-59.13
-70.64
-81.95
-90.74
-94.22
-89.88
-76.38
-54.17
-25.60
5.86
36.63
64.03
86.82
104.86
118.57
128.27
134.13
136.36
135.75
133.59
131.49
130.73
131.67
133.69
135.44
135.51
133.07
127.99
120.77
112.16
102.78
93.08
83.47
74.48
66.71
60.70
56.59
53.88
51.57
48.48
43.71
37.16
29.43
21.58
14.57
8.92
4.60
1.25
-1.45
-3.61
-4.98
-5.09
-3.43
0.29
5.81
12.00
16.76
17.43
11.48
-2.46
-24.02
-51.00
-80.11
-107.92
-131.71
-149.88
-161.80
-167.51
-167.42
-162.22
-152.97
-141.06
-128.03
-115.21
-103.47
-93.10
-83.85
-75.26
-66.79
-58.24
-49.80
-42.26
-36.67
-33.96
-34.38
-37.27
-41.16
-44.35
-45.65
-44.92
-43.25
-42.57
-45.05
-52.25
-64.50
-80.43
-96.98
-109.89
-114.76
-108.34
-89.66
-60.38
-24.24
14.33
51.76
86.30
118.01
147.99
177.20
205.71
232.52
256.09
275.00
288.22
295.23
295.63
289.22
276.21
257.83
236.41
215.03
196.64
182.85
173.29
165.83
157.37
145.08
127.33
103.90
75.83
44.93
13.39
-16.40
-42.08
-61.59
-73.67
-78.27
-76.73
-71.58
-65.86
-62.49
-63.41
-69.03
-78.10
-87.89
-94.90
-95.79
-88.34
-72.00
-48.06
-19.08
11.66
40.90
65.92
84.81
96.41
100.40
97.06
87.16
71.84
52.50
30.84
8.76
-11.71
-28.80
-41.35
-49.12
-52.76
-53.49
-52.67
-51.41
-50.51
-50.67
-52.57
-56.90
-64.04
-73.92
-85.83
-98.70
-111.38
-123.10
-133.73
-143.54
-153.20
-163.39
-174.84
-188.27
-204.43
-223.77
-246.05
-269.88
-292.55
-310.52
-320.30
-319.60
-308.06
-287.25
-260.14
-230.14
-200.29
-172.89
-149.42
-130.73
-117.09
-108.21
-103.21
-100.88
-99.74
-98.34
-95.34
-89.58
-80.20
-66.84
-49.90
-30.45
-10.03
9.83
28.08
44.34
58.80
71.80
83.42
93.39
101.03
105.62
106.65
104.02
98.01
89.21
78.36
66.13
52.97
39.08
24.54
9.59
-5.19
-18.80
-29.84
-36.99
-39.33
-36.77
-30.05
-20.52
-9.67
1.34
11.90
21.76
30.76
38.42
43.92
46.38
45.34
41.16
34.99
28.45
23.02
19.51
17.83
17.26
16.90
16.04
14.40
12.08
9.30
6.22
2.86
-0.89
-5.21
-10.24
-16.09
-22.83
-30.45
-38.85
-47.88
-57.33
-66.85
-76.11
-84.85
-93.08
-101.08
-109.42
-118.57
-128.43
-138.01
-145.16
-147.04
-140.78
-124.41
-97.68
-62.40
-22.16
18.46
55.04
84.27
104.55
115.96
119.86
118.15
112.86
105.77
98.35
91.79
86.83
83.67
81.93
80.72
79.00
75.90
70.98
64.19
55.85
46.51
36.82
27.36
18.53
10.36
2.51
-5.59
-14.41
-24.02
-33.96
-43.49
-51.99
-59.41
-66.37
-73.98
-83.33
-94.98
-108.51
-122.45
-134.49
-141.89
-142.21
-134.01
-117.39
-94.12
-67.32
-40.70
-17.68
-0.56
10.00
15.11
17.27
19.72
25.42
36.14
51.83
70.57
89.47
105.74
117.78
125.61
130.49
134.07
137.53
141.22
144.81
147.83
150.02
151.51
152.62
153.66
154.63
155.14
154.44
151.36
144.64
133.10
116.04
93.52
66.48
36.88
7.55
-18.08
-36.74
-46.16
-45.92
-37.79
-25.25
-12.37
-2.40
3.23
5.08
4.89
4.52
4.99
6.31
7.85
9.05
9.79
10.36
11.14
12.20
13.25
13.87
13.85
13.48
13.45
14.60
17.28
21.12
25.00
27.47
27.32
24.12
18.42
11.43
4.50
-1.61
-7.11
-13.19
-21.59
-33.85
-50.63
-71.28
-93.65
-114.34
-129.35
-134.98
-128.97
-111.26
-84.19
-51.88
-18.97
10.74
35.12
53.82
67.68
77.79
84.86
89.08
90.33
88.59
84.06
77.10
68.16
57.58
45.71
33.16
20.92
10.32
2.92
0.01
2.07
8.58
17.88
27.67
35.59
39.87
39.62
34.89
26.20
14.08
-1.33
-20.39
-43.84
-72.27
-105.60
-142.58
-180.56
-215.54
-242.84
-258.16
-258.70
-244.15
-216.81
-181.20
-142.60
-105.88
-74.34
-49.52
-31.53
-19.88
-14.00
-13.38
-17.31
-24.47
-32.81
-39.88
-43.48
-42.38
-36.75
-27.99
-18.06
-8.90
-1.75
3.00
5.58
6.46
5.91
3.79
-0.46
-7.43
-17.40
-29.81
-43.35
-56.25
-66.80
-74.03
-78.03
-79.94
-81.50
-84.44
-89.82
-97.58
-106.49
-114.27
-118.08
-115.14
-103.36
-81.99
-52.06
-16.16
22.13
59.12
92.04
119.44
141.07
157.34
168.65
175.08
176.64
173.74
167.53
159.80
152.37
146.37
141.79
137.73
132.96
126.72
119.02
110.53
102.00
93.78
85.53
76.36
65.25
51.53
35.23
17.10
-1.56
-19.27
-34.84
-47.74
-58.34
-67.86
-77.97
-90.25
-105.48
-123.11
-141.02
-155.87
-163.90
-162.01
-148.79
-124.95
-93.10
-56.88
-19.97
14.78
45.65
71.79
92.89
108.80
119.53
125.42
127.31
126.56
124.61
122.58
120.81
118.90
115.95
111.24
104.71
97.11
89.68
83.37
78.38
73.85
68.33
60.43
49.54
36.01
21.03
6.06
-7.76
-19.96
-30.78
-41.12
-52.21
-65.21
-80.78
-98.48
-116.50
-131.72
-140.44
-139.37
-126.78
-103.11
-70.99
-34.40
2.46
36.25
65.07
88.48
106.89
120.85
130.65
136.20
137.49
135.02
130.07
124.32
119.29
115.65
112.97
110.15
106.14
100.63
94.26
88.15
83.21
79.48
75.97
71.20
63.74
53.04
39.55
24.59
9.80
-3.46
-14.58
-23.93
-32.58
-42.05
-53.67
-68.19
-85.31
-103.56
-120.23
-131.84
-134.93
-127.13
-107.98
-79.31
-44.81
-8.93
24.43
52.83
75.50
92.93
105.98
115.31
121.12
123.45
122.51
119.02
114.13
109.15
105.08
102.21
100.05
97.57
93.77
88.19
81.18
73.61
66.42
59.98
53.89
47.10
38.60
27.94
15.56
2.52
-9.93
-21.02
-30.67
-39.36
-47.79
-56.57
-66.06
-76.53
-88.23
-101.25
-115.09
-128.27
-138.09
-141.33
-135.24
-118.76
-93.23
-61.98
-29.31
0.98
26.57
46.94
62.67
74.61
83.15
88.17
89.44
87.11
82.14
76.04
70.45
66.46
64.26
63.15
61.99
59.83
56.36
51.97
47.46
43.54
40.34
37.34
33.62
28.32
21.02
11.96
1.81
-8.61
-18.64
-27.95
-36.49
-44.41
-52.03
-59.75
-68.08
-77.57
-88.58
-100.95
-113.72
-124.98
-132.10
-132.34
-123.76
-106.05
-80.84
-51.39
-21.55
5.39
27.58
44.70
57.38
66.47
72.35
74.93
74.05
70.10
64.20
58.04
53.25
50.68
50.25
50.90
51.26
50.16
47.15
42.49
36.85
30.97
25.28
19.83
14.33
8.46
1.90
-5.38
-13.35
-21.82
-30.58
-39.43
-48.18
-56.69
-64.80
-72.53
-80.06
-87.78
-96.16
-105.37
-114.82
-122.92
-127.21
-125.04
-114.64
-95.95
-70.81
-42.42
-14.29
10.81
31.42
47.20
58.45
65.53
68.64
68.12
64.66
59.50
54.17
50.07
47.86
47.36
47.62
47.44
45.92
42.79
38.40
33.50
28.72
24.23
19.66
14.24
7.22
-1.77
-12.59
-24.54
-36.64
-47.90
-57.69
-65.88
-72.89
-79.67
-87.33
-96.88
-108.86
-122.90
-137.47
-150.01
-157.39
-156.82
-146.80
-127.72
-101.87
-72.73
-43.88
-17.98
3.71
21.23
35.32
46.68
55.63
62.13
65.98
67.27
66.53
64.58
62.31
60.35
58.85
57.47
55.69
53.11
49.71
45.84
41.92
38.10
34.00
28.78
21.43
11.39
-1.17
-15.26
-29.35
-41.98
-52.29
-60.30
-66.91
-73.41
-81.16
-91.14
-103.61
-117.84
-132.03
-143.41
-148.79
-145.49
-132.19
-109.58
-80.25
-47.84
-15.92
12.96
37.69
58.26
75.08
88.42
98.17
104.13
106.37
105.52
102.65
99.05
95.76
93.26
91.41
89.60
87.17
83.74
79.30
74.19
68.84
63.39
57.54
50.69
42.20
31.73
19.50
6.29
-6.90
-19.09
-29.66
-38.52
-46.09
-53.16
-60.64
-69.47
-80.29
-93.32
-107.97
-122.65
-134.70
-140.88
-138.29
-125.41
-102.86
-73.41
-41.09
-9.85
17.57
40.26
58.61
73.43
85.13
93.36
97.53
97.46
93.95
88.70
83.61
80.00
78.07
77.01
75.52
72.63
68.12
62.48
56.48
50.58
44.72
38.32
30.79
21.68
11.00
-0.95
-13.75
-27.02
-40.43
-53.63
-66.27
-78.09
-89.06
-99.51
-110.04
-121.22
-133.29
-145.78
-157.34
-165.80
-168.63
-163.56
-149.36
-126.42
-96.82
-63.83
-30.97
-1.08
24.25
44.73
60.75
72.87
81.30
85.99
87.09
85.19
81.55
77.72
75.03
74.16
74.86
76.18
76.92
76.04
73.07
68.13
61.72
54.46
46.82
38.98
30.80
22.09
12.67
2.63
-7.65
-17.59
-26.63
-34.41
-40.88
-46.34
-51.34
-56.56
-62.74
-70.47
-80.10
-91.40
-103.24
-113.51
-119.30
-117.64
-106.52
-85.74
-57.32
-24.99
6.96
34.91
56.99
73.11
84.36
92.02
96.89
99.15
98.76
96.07
92.08
88.24
85.79
85.17
85.81
86.44
85.68
82.69
77.43
70.57
63.07
55.75
48.98
42.62
36.15
28.99
20.69
11.24
1.02
-9.28
-19.03
-27.77
-35.52
-42.64
-49.69
-57.34
-66.15
-76.62
-88.89
-102.49
-115.95
-126.83
-132.00
-128.64
-115.20
-92.21
-62.25
-29.24
2.79
30.83
53.41
70.46
82.61
90.59
94.76
95.38
92.89
88.22
82.82
78.13
75.05
73.63
73.02
72.06
69.80
65.99
61.07
55.84
50.88
46.35
41.84
36.69
30.31
22.43
13.28
3.41
-6.47
-15.71
-23.94
-31.17
-37.77
-44.27
-51.26
-59.24
-68.61
-79.50
-91.52
-103.39
-112.78
-116.73
-112.36
-98.11
-74.53
-44.30
-11.50
19.78
46.62
67.80
83.52
94.60
101.69
105.03
104.69
101.10
95.39
89.32
84.68
82.59
83.10
85.12
86.95
87.08
84.63
79.72
73.13
65.86
58.57
51.42
44.05
35.95
26.77
16.54
5.67
-5.14
-15.18
-23.97
-31.41
-37.85
-43.95
-50.52
-58.21
-67.40
-77.96
-89.11
-99.38
-106.73
-108.88
-104.05
-91.59
-72.39
-48.73
-23.59
0.15
20.49
36.46
48.03
55.52
59.27
59.60
56.97
52.11
46.17
40.33
35.59
32.42
30.64
29.62
28.58
26.86
24.15
20.60
16.61
12.58
8.59
4.34
-0.68
-6.91
-14.47
-22.95
-31.57
-39.55
-46.42
-52.27
-57.57
-62.99
-69.09
-76.28
-84.66
-93.95
-103.29
-111.08
-115.23
-113.58
-104.79
-88.92
-67.65
-43.70
-20.00
1.30
19.12
33.26
43.72
50.36
52.90
51.38
46.68
40.52
34.95
31.51
30.59
31.36
32.34
32.21
30.51
27.64
24.45
21.54
18.87
15.71
11.09
4.30
-4.73
-15.30
-26.25
-36.31
-44.70
-51.35
-56.90
-62.53
-69.52
-78.77
-90.39
-103.56
-116.51
-126.72
-131.43
-128.27
-116.03
-95.15
-67.79
-37.28
-7.24
19.45
41.20
57.74
69.54
77.22
81.19
81.66
79.09
74.36
68.80
63.77
60.18
58.09
56.80
55.24
52.57
48.56
43.62
38.55
33.98
29.91
25.71
20.32
12.85
3.07
-8.45
-20.55
-31.95
-41.81
-50.08
-57.35
-64.72
-73.34
-84.07
-97.06
-111.45
-125.20
-135.34
-138.71
-132.91
-117.30
-93.28
-64.04
-33.46
-4.93
19.47
39.12
54.42
66.12
74.71
80.33
83.01
82.97
80.98
78.12
75.39
73.26
71.56
69.64
66.78
62.78
57.94
53.00
48.58
44.84
41.34
37.22
31.61
23.94
14.21
2.93
-9.08
-20.85
-31.58
-40.94
-49.18
-57.10
-65.81
-76.28
-89.00
-103.48
-118.20
-130.60
-137.60
-136.48
-125.77
-105.98
-79.49
-49.94
-20.98
4.90
26.81
45.23
61.01
74.63
85.70
93.33
96.75
96.02
92.23
87.13
82.50
79.38
77.81
76.89
75.40
72.37
67.63
61.71
55.53
49.86
44.84
39.96
34.27
26.89
17.41
6.15
-6.06
-18.13
-29.12
-38.70
-47.13
-55.20
-63.83
-73.82
-85.60
-99.05
-113.43
-127.26
-138.40
-144.26
-142.50
-131.76
-112.24
-85.91
-56.03
-26.15
0.83
23.32
41.06
54.60
64.67
71.71
75.79
76.97
75.55
72.31
68.42
65.14
63.28
62.99
63.62
64.11
63.47
61.16
57.36
52.73
48.01
43.51
38.91
33.40
26.09
16.57
5.20
-7.03
-18.94
-29.60
-38.81
-46.97
-54.89
-63.44
-73.29
-84.77
-97.73
-111.38
-124.06
-133.35
-136.48
-131.16
-116.40
-93.13
-64.02
-32.76
-2.93
23.06
44.36
61.42
75.22
86.44
95.07
100.53
102.32
100.59
96.38
91.32
86.96
84.21
82.94
82.29
81.11
78.54
74.27
68.59
62.10
55.40
48.81
42.25
35.22
27.12
17.45
6.18
-6.13
-18.55
-30.14
-40.37
-49.38
-57.83
-66.62
-76.49
-87.89
-100.87
-115.19
-130.08
-144.03
-154.69
-159.21
-154.99
-140.72
-117.06
-86.64
-53.29
-20.77
8.31
32.90
53.26
70.10
83.95
94.77
102.18
105.97
106.52
104.81
102.11
99.56
97.70
96.42
95.16
93.32
90.50
86.62
81.81
76.26
70.13
63.56
56.69
49.59
42.25
34.44
25.81
16.06
5.15
-6.59
-18.53
-30.03
-40.67
-50.44
-59.70
-68.99
-78.87
-89.82
-102.08
-115.52
-129.30
-141.66
-150.00
-151.36
-143.39
-125.35
-98.69
-66.84
-34.10
-4.30
20.39
39.73
54.81
66.97
76.88
84.30
88.53
89.13
86.53
82.05
77.36
73.83
72.02
71.57
71.55
71.01
69.36
66.47
62.58
58.04
52.97
47.35
41.08
34.09
26.44
18.26
9.53
0.12
-10.02
-20.80
-31.74
-42.17
-51.55
-59.68
-66.94
-74.08
-82.02
-91.47
-102.61
-114.91
-126.89
-136.23
-140.00
-135.58
-121.49
-98.17
-68.12
-35.19
-3.39
24.27
46.41
63.12
75.25
83.59
88.50
90.06
88.45
84.40
79.25
74.56
71.65
71.03
72.27
74.16
75.25
74.32
70.85
65.09
57.90
50.35
43.22
36.68
30.21
22.88
13.86
2.90
-9.49
-22.25
-34.22
-44.72
-53.77
-62.01
-70.36
-79.60
-90.19
-102.21
-115.43
-129.09
-141.72
-151.00
-154.04
-148.18
-132.06
-106.39
-73.94
-38.81
-5.04
24.60
49.17
69.23
85.95
100.19
112.10
121.33
127.52
130.87
132.21
132.70
133.34
134.65
136.61
138.91
141.30
143.70
146.10
148.35
149.96
150.32
148.92
145.74
141.26
136.19
131.05
125.82
119.90
112.34
102.30
89.22
72.90
53.41
30.87
5.43
-22.67
-53.12
-85.68
-120.34
-157.16
-195.62
-233.88
-268.30
-294.06
-306.48
-302.95
-284.04
-253.56
-217.06
-179.90
-145.62
-115.61
-89.93
-68.55
-52.11
-41.80
-38.47
-41.66
-49.21
-57.59
-63.03
-62.69
-55.70
-43.32
-28.43
-14.31
-3.54
2.80
5.11
4.66
2.76
0.04
-3.64
-8.82
-15.88
-24.56
-33.93
-42.76
-50.08
-55.52
-59.56
-63.28
-67.88
-74.38
-83.15
-93.90
-105.59
-116.55
-124.52
-127.00
-121.78
-107.57
-84.73
-55.27
-22.49
10.02
39.37
64.01
83.67
98.75
109.79
117.01
120.54
120.70
118.31
114.64
111.09
108.69
107.82
108.04
108.35
107.59
104.95
100.23
94.01
87.23
80.75
74.73
68.52
60.90
50.76
37.75
22.64
7.00
-7.50
-19.81
-30.01
-39.12
-48.66
-59.94
-73.62
-89.52
-106.59
-122.99
-136.24
-143.59
-142.56
-131.73
-111.35
-83.47
-51.44
-19.00
10.80
36.21
56.77
72.85
84.99
93.47
98.29
99.53
97.75
94.03
89.82
86.39
84.39
83.66
83.31
82.17
79.36
74.59
68.30
61.35
54.50
48.08
41.78
34.85
26.50
16.36
4.68
-7.72
-19.83
-30.91
-40.84
-50.20
-60.08
-71.71
-86.02
-103.30
-122.90
-143.03
-160.82
-172.77
-175.58
-167.16
-147.44
-118.60
-84.45
-49.27
-16.59
11.67
35.22
54.79
71.26
85.03
95.83
103.07
106.53
106.58
104.32
101.13
98.13
95.82
94.04
92.22
89.87
86.86
83.44
80.01
76.72
73.29
69.06
63.26
55.32
45.09
32.90
19.41
5.54
-7.85
-20.07
-30.78
-40.09
-48.58
-57.18
-66.95
-78.69
-92.57
-107.75
-122.25
-133.13
-137.14
-131.70
-115.77
-90.49
-58.87
-24.96
7.43
35.77
59.07
77.56
91.86
102.29
108.74
110.97
109.21
104.49
98.51
93.12
89.60
88.24
88.29
88.41
87.35
84.50
79.98
74.42
68.51
62.59
56.50
49.77
41.90
32.64
22.12
10.81
-0.68
-11.82
-22.22
-31.80
-40.72
-49.29
-57.96
-67.24
-77.54
-89.17
-101.96
-114.99
-126.34
-133.28
-132.87
-122.97
-103.21
-75.41
-43.11
-10.52
18.77
42.69
60.85
73.96
82.96
88.46
90.62
89.56
85.84
80.60
75.43
71.75
70.30
70.75
71.90
72.26
70.71
66.96
61.56
55.52
49.67
44.25
38.86
32.70
25.11
15.76
4.92
-6.76
-18.44
-29.38
-39.10
-47.52
-54.96
-62.01
-69.48
-78.12
-88.38
-100.14
-112.53
-123.83
-131.65
-133.43
-127.14
-112.10
-89.34
-61.46
-31.99
-4.23
19.43
37.91
51.13
59.46
63.28
62.92
59.01
52.72
45.82
40.16
37.05
36.77
38.48
40.68
41.81
40.90
37.81
33.16
27.87
22.71
17.84
12.88
7.04
-0.33
-9.43
-19.81
-30.49
-40.42
-48.86
-55.75
-61.63
-67.45
-74.11
-82.21
-91.90
-102.77
-113.80
-123.29
-129.06
-128.72
-120.45
-103.64
-79.40
-50.39
-20.20
7.78
31.21
49.07
61.55
69.30
73.00
73.16
70.40
65.67
60.36
55.96
53.49
53.04
53.82
54.47
53.80
51.35
47.42
42.77
38.09
33.50
28.47
22.08
13.58
2.86
-9.44
-22.07
-33.68
-43.36
-51.10
-57.75
-64.74
-73.60
-85.24
-99.54
-114.96
-128.74
-137.43
-137.83
-127.96
-107.93
-79.96
-47.78
-15.52
13.54
37.65
56.61
71.13
82.07
89.85
94.44
95.75
94.06
90.27
85.65
81.37
78.08
75.66
73.30
70.15
65.75
60.18
54.17
48.40
43.16
38.08
32.22
24.58
14.62
2.60
-10.52
-23.39
-34.94
-44.78
-53.30
-61.55
-70.83
-82.30
-96.45
-112.88
-129.93
-144.88
-154.35
-155.09
-145.12
-124.41
-95.13
-61.13
-26.78
4.36
30.29
50.77
66.67
79.04
88.45
94.84
97.88
97.63
94.87
91.04
87.64
85.65
84.98
84.74
83.78
81.29
77.33
72.63
68.10
64.27
60.87
56.92
51.20
42.88
31.95
19.31
6.37
-5.43
-15.20
-22.82
-28.97
-34.81
-41.54
-50.19
-61.25
-74.45
-88.48
-100.90
-108.47
-107.92
-97.04
-75.80
-46.66
-14.00
17.19
42.91
61.19
72.35
78.18
80.90
82.22
82.97
83.34
83.37
83.31
83.62
84.82
87.22
90.64
94.53
98.25
101.37
103.86
106.01
108.27
111.01
114.35
118.27
122.72
127.82
133.80
140.85
148.83
157.09
164.55
170.09
173.16
174.14
174.45
176.00
180.49
188.56
199.43
210.86
219.86
223.51
219.90
208.67
191.00
169.03
145.15
121.21
98.10
75.96
54.49
33.54
13.24
-6.04
-24.15
-41.43
-58.86
-77.88
-100.28
-128.03
-162.63
-204.10
-249.59
-292.81
-324.65
-335.55
-318.80
-273.18
-203.81
-120.57
-34.93
43.17
107.19
154.05
183.23
195.61
193.15
178.88
156.98
132.27
108.99
89.65
74.46
61.79
49.28
35.44
20.49
6.39
-4.16
-9.16
-8.25
-3.16
3.03
6.91
6.02
-0.61
-12.52
-28.34
-46.37
-65.03
-82.89
-98.61
-111.01
-119.21
-123.18
-123.77
-122.74
-122.10
-123.49
-127.62
-134.15
-141.94
-149.57
-155.78
-159.76
-161.31
-160.79
-159.07
-157.34
-156.86
-158.59
-162.93
-169.62
-178.04
-187.49
-197.46
-207.71
-218.17
-228.81
-239.69
-250.93
-262.65
-274.89
-287.32
-298.97
-308.17
-312.90
-311.02
-300.80
-281.31
-252.78
-216.73
-175.91
-133.91
-94.53
-61.01
-35.47
-18.62
-9.95
-8.11
-11.23
-17.35
-24.49
-30.85
-34.95
-35.93
-33.58
-28.25
-20.62
-11.55
-2.02
6.74
13.23
16.07
14.44
8.49
-0.48
-10.64
-20.32
-28.77
-36.40
-44.49
-54.51
-67.51
-83.94
-103.69
-126.30
-150.93
-176.26
-200.38
-220.82
-234.96
-240.52
-236.09
-221.54
-197.91
-167.25
-132.06
-94.71
-56.98
-19.72
17.22
54.83
94.33
136.41
180.47
224.23
264.00
295.71
316.22
324.29
320.99
309.12
292.02
272.57
252.45
232.31
212.17
192.06
172.26
153.15
134.97
117.56
100.53
83.43
66.02
48.40
30.84
13.46
-3.87
-21.53
-39.88
-58.88
-78.03
-96.47
-113.44
-128.59
-142.19
-155.04
-168.25
-182.92
-199.68
-218.06
-236.04
-249.99
-255.38
-248.13
-226.10
-189.97
-143.21
-90.96
-38.36
10.63
53.74
89.99
119.13
141.12
156.10
164.63
167.93
167.84
166.42
165.43
165.74
167.29
169.16
170.21
169.51
166.73
162.02
155.84
148.59
140.60
132.22
123.99
116.55
110.27
104.73
98.54
89.56
75.84
56.52
32.43
5.84
-20.29
-43.49
-62.68
-78.43
-92.56
-107.27
-124.42
-144.90
-168.29
-192.65
-214.63
-229.90
-234.10
-224.04
-198.82
-160.36
-112.95
-61.98
-12.46
32.19
70.54
102.65
129.21
150.93
168.13
181.08
190.24
196.43
200.60
203.58
205.72
206.88
206.63
204.59
200.73
195.36
188.90
181.53
172.98
162.58
149.56
133.60
115.04
94.96
74.78
55.69
38.22
22.01
6.09
-10.56
-28.37
-47.04
-65.50
-82.48
-97.12
-109.23
-119.53
-129.36
-140.30
-153.61
-169.69
-187.55
-204.54
-216.72
-219.73
-210.30
-187.49
-153.20
-111.66
-67.98
-26.45
10.49
42.25
69.37
92.38
111.30
125.60
134.94
139.66
141.06
140.88
140.60
140.88
141.43
141.47
140.21
137.40
133.26
128.26
122.76
116.71
109.83
101.77
92.43
81.95
70.69
59.05
47.26
35.38
23.37
11.19
-1.12
-13.38
-25.36
-36.86
-47.86
-58.54
-69.35
-80.90
-93.70
-107.88
-122.74
-136.68
-147.14
-151.30
-146.77
-132.50
-109.26
-79.45
-46.46
-13.71
16.27
42.07
63.28
79.95
92.08
99.48
102.00
99.85
93.86
85.49
76.39
67.98
61.03
55.47
50.58
45.37
39.00
31.14
22.10
12.55
3.24
-5.48
-13.81
-22.48
-32.39
-44.22
-58.12
-73.60
-89.83
-106.00
-121.65
-136.74
-151.47
-166.10
-180.83
-195.78
-211.09
-226.65
-241.59
-253.85
-260.18
-256.85
-240.80
-211.02
-169.04
-118.59
-64.56
-11.58
36.82
78.45
112.30
138.08
156.09
167.04
172.13
172.84
170.86
167.81
164.99
163.19
162.26
161.02
157.43
149.19
134.66
113.73
88.07
60.65
34.71
12.62
-4.80
-18.15
-28.64
-37.12
-43.33
-46.09
-43.98
-36.26
-23.55
-7.66
9.11
24.79
38.09
48.19
54.09
54.18
46.76
31.07
8.66
-15.96
-35.97
-44.26
-35.80
-9.36
32.20
83.26
137.33
188.99
234.95
274.03
306.55
333.58
356.33
375.73
392.36
406.10
416.26
421.64
420.82
412.70
396.72
373.12
342.84
307.50
269.14
230.16
193.03
159.91
132.33
110.83
94.86
82.86
72.74
62.34
50.04
35.00
17.14
-3.11
-25.21
-48.57
-72.56
-96.27
-118.53
-138.19
-154.44
-167.20
-176.97
-184.49
-190.23
-194.06
-195.28
-193.04
-186.73
-176.11
-161.26
-142.42
-120.02
-94.90
-68.70
-43.98
-23.77
-10.82
-6.68
-11.14
-22.36
-37.59
-54.04
-69.63
-83.20
-94.31
-103.00
-109.53
-114.25
-117.64
-120.31
-122.93
-126.08
-130.26
-135.65
-142.15
-149.33
-156.40
-162.39
-166.46
-168.30
-168.35
-167.79
-168.10
-170.73
-176.55
-185.62
-197.30
-210.31
-223.09
-234.07
-242.00
-246.13
-246.26
-242.63
-235.76
-226.21
-214.54
-201.26
-186.86
-171.85
-156.71
-141.82
-127.67
-114.79
-103.86
-95.44
-89.76
-86.47
-84.78
-83.72
-82.57
-81.03
-79.12
-76.81
-73.78
-69.36
-62.77
-53.46
-41.47
-27.39
-12.15
3.25
18.00
31.44
42.98
51.97
57.72
59.76
58.08
53.26
46.41
38.74
31.12
23.71
16.07
7.58
-2.05
-12.39
-22.38
-30.68
-36.04
-37.42
-33.84
-24.22
-7.61
16.30
46.48
80.35
114.27
144.63
169.08
187.14
200.00
209.54
217.32
223.96
229.19
232.33
232.79
230.33
224.96
216.82
205.91
192.28
176.18
158.15
139.05
119.83
101.43
84.44
69.05
54.89
41.19
26.97
11.32
-6.20
-25.42
-45.39
-64.73
-82.04
-96.38
-107.64
-116.53
-124.22
-131.67
-139.17
-145.94
-150.47
-150.99
-146.09
-135.08
-118.08
-95.81
-69.38
-40.25
-10.31
18.17
42.70
61.25
72.85
77.98
78.48
76.82
75.11
74.37
74.31
73.76
71.46
66.75
59.82
51.37
42.10
32.21
21.37
9.05
-4.99
-20.41
-36.30
-51.53
-65.24
-77.18
-87.78
-97.93
-108.69
-120.95
-135.42
-152.41
-171.56
-191.45
-209.24
-220.78
-221.53
-207.83
-178.39
-135.14
-82.87
-27.95
23.50
66.94
99.87
121.33
131.19
129.72
117.78
97.34
71.72
45.12
21.62
4.10
-6.45
-10.75
-10.31
-6.49
0.11
9.58
22.12
37.42
54.33
71.06
85.59
96.25
102.02
102.66
98.61
90.82
80.63
69.45
58.49
48.52
39.57
31.09
22.31
12.81
3.09
-5.11
-9.17
-6.31
5.39
26.24
54.78
88.12
122.82
155.59
183.89
206.04
221.07
228.68
229.14
223.45
213.26
200.60
187.35
174.73
163.13
152.27
141.62
130.84
119.89
108.93
97.97
86.75
74.66
61.05
45.52
28.22
9.71
-9.32
-28.29
-46.99
-65.49
-83.91
-102.00
-119.12
-134.31
-146.80
-156.57
-164.74
-173.33
-184.47
-199.40
-217.48
-236.14
-251.54
-259.92
-258.73
-247.26
-226.38
-197.89
-163.89
-126.44
-87.73
-50.24
-16.70
10.37
29.21
39.34
41.61
37.92
30.58
21.81
13.38
6.34
1.03
-2.82
-5.89
-8.97
-12.74
-17.68
-24.14
-32.23
-41.78
-52.02
-61.61
-68.78
-71.84
-70.18
-64.57
-57.29
-51.33
-49.36
-52.94
-62.34
-77.05
-96.36
-119.57
-145.26
-170.58
-190.83
-200.39
-194.44
-170.85
-131.09
-79.53
-21.85
36.91
93.25
145.15
191.39
230.90
262.66
286.02
301.12
308.84
310.59
307.81
301.84
294.05
285.89
278.71
273.32
269.49
265.94
260.73
252.07
238.98
221.67
201.26
179.36
157.43
136.49
117.03
99.05
82.22
65.99
49.71
32.74
14.68
-4.48
-24.43
-44.58
-64.41
-83.54
-101.67
-118.30
-132.51
-142.79
-147.33
-144.55
-133.74
-115.67
-92.51
-67.44
-43.57
-23.13
-6.84
5.90
16.44
26.07
35.47
44.58
52.88
59.63
64.14
65.79
64.05
58.56
49.38
37.05
22.61
7.37
-7.50
-21.19
-33.38
-44.21
-54.10
-63.64
-73.52
-84.40
-96.79
-110.89
-126.40
-142.50
-157.97
-171.57
-182.53
-190.83
-197.33
-203.57
-211.24
-221.57
-234.91
-250.48
-266.43
-279.99
-287.84
-286.57
-273.28
-246.48
-206.61
-156.30
-99.88
-42.46
11.20
57.52
94.38
121.11
138.11
