1592926305.00
64.000000
-0.00
-0.00
-0.00
-0.00
-0.00
-0.00
-0.00
-0.00
-0.00
-0.00
0.00
0.01
0.01
-0.00
-0.03
-0.05
-0.05
0.00
0.13
0.36
0.66
1.01
1.37
1.72
2.06
2.40
2.79
3.24
3.80
4.42
5.06
5.66
6.20
6.68
7.15
7.68
8.31
9.14
10.09
11.04
11.88
12.56
13.14
13.76
14.65
15.96
17.91
20.32
22.90
25.38
27.58
29.57
31.68
34.32
37.81
42.54
48.15
54.10
59.83
64.97
69.58
74.14
79.34
85.71
93.76
103.00
112.62
121.73
129.77
136.75
143.30
150.75
157.77
166.64
177.95
191.79
206.97
220.57
228.25
225.36
208.53
176.87
132.76
80.05
23.07
-34.94
-92.44
-149.16
-205.23
-260.37
-313.74
-363.87
-409.83
-450.91
-486.50
-515.74
-537.23
-549.22
-549.96
-538.37
-514.21
-478.67
-433.88
-382.45
-327.02
-269.84
-212.63
-156.66
-102.95
-52.37
-5.90
35.58
71.43
101.35
125.50
144.38
158.69
169.15
176.37
180.75
182.57
182.07
179.51
175.23
169.65
163.18
156.15
148.81
141.30
133.69
126.02
118.33
110.69
103.16
95.80
88.68
81.83
75.25
68.95
62.95
57.25
51.86
46.78
42.03
37.59
33.45
29.61
26.07
22.81
19.83
17.11
14.67
12.48
10.54
8.83
7.35
6.07
4.97
4.05
3.27
2.62
2.09
1.65
1.30
1.01
0.79
0.61
0.47
0.37
0.29
0.23
0.19
0.17
0.16
0.16
0.17
0.18
0.21
0.23
0.27
0.30
0.34
0.38
0.42
0.46
0.50
0.54
0.59
0.64
0.69
0.75
0.81
0.88
0.96
1.05
1.15
1.26
1.39
1.53
1.68
1.85
2.04
2.26
2.49
2.74
3.03
3.34
3.68
4.05
4.46
4.90
5.37
5.87
6.42
7.00
7.62
8.29
8.99
9.74
10.52
11.36
12.22
13.14
14.13
15.16
16.27
17.42
18.60
19.77
20.89
21.86
22.58
22.94
22.81
22.08
20.70
18.62
15.87
12.54
8.73
4.67
0.56
-3.42
-7.05
-10.17
-12.66
-14.43
-15.45
-15.76
-15.45
-14.68
-13.62
-12.48
-11.40
-10.48
-9.73
-9.09
-8.46
-7.71
-6.80
-5.78
-4.67
-3.54
-2.42
-1.28
-0.04
1.40
3.13
5.01
6.80
8.27
9.25
9.71
9.84
9.98
10.51
11.82
13.67
15.72
17.47
18.57
18.85
18.52
18.11
18.30
19.69
21.98
24.58
26.71
27.63
26.94
24.83
21.91
19.13
17.39
16.52
15.96
14.59
10.84
2.86
-10.92
-31.32
-58.17
-84.97
-106.30
-117.45
-115.82
-101.78
-78.45
-50.45
-22.45
2.08
21.46
34.83
42.69
46.41
47.95
49.42
52.47
57.72
64.66
72.11
78.45
83.09
86.41
89.37
92.67
96.35
99.80
102.32
103.82
104.65
105.78
108.05
111.60
115.71
119.36
121.94
123.58
124.78
125.45
124.59
120.30
110.73
95.11
74.26
50.20
24.93
-0.63
-26.96
-55.45
-87.53
-124.02
-164.77
-208.48
-252.52
-292.79
-324.34
-342.75
-345.93
-335.25
-315.10
-291.07
-267.59
-246.41
-226.81
-207.33
-187.55
-168.92
-153.87
-144.20
-139.80
-138.56
-137.66
-135.30
-131.50
-127.88
-126.43
-128.13
-132.35
-137.40
-141.76
-145.25
-149.10
-154.82
-162.56
-169.94
-172.46
-165.23
-145.46
-113.97
-75.17
-35.16
0.62
29.17
50.37
66.12
78.83
90.16
100.72
110.60
120.54
132.69
150.48
177.20
214.02
258.17
302.92
339.60
360.84
363.75
351.03
329.45
306.47
286.74
270.52
254.66
235.29
210.52
181.58
152.03
125.60
104.33
87.75
73.76
60.19
46.24
32.94
22.41
16.30
14.57
15.19
15.03
11.56
4.19
-5.50
-14.63
-20.79
-23.46
-24.29
-25.97
-30.47
-37.64
-45.10
-49.42
-48.13
-41.06
-30.37
-19.39
-10.70
-5.05
-1.24
2.70
8.03
14.52
20.61
24.43
25.01
22.77
19.20
15.99
14.06
13.23
12.51
10.92
8.17
4.92
2.36
1.46
2.30
3.85
4.51
2.92
-1.14
-6.63
-11.72
-14.71
-15.13
-14.02
-13.37
-15.11
-19.94
-26.98
-34.23
-39.67
-42.38
-42.97
-43.13
-44.62
-48.29
-53.68
-59.35
-63.61
-65.45
-64.80
-62.43
-59.29
-55.86
-51.89
-46.57
-39.13
-29.62
-19.24
-10.04
-4.09
-2.42
-4.43
-8.05
-10.73
-10.69
-7.70
-3.03
1.49
4.54
6.03
6.95
8.66
11.91
16.38
20.82
23.78
24.39
22.69
19.61
16.37
13.84
12.11
10.57
8.42
5.26
1.38
-2.32
-4.94
-6.31
-7.16
-8.89
-12.69
-18.78
-26.24
-33.40
-38.85
-42.33
-44.80
-47.86
-52.53
-58.39
-63.50
-65.34
-62.03
-53.47
-41.42
-28.69
-17.84
-10.07
-4.88
-0.56
4.71
11.81
20.27
28.56
34.94
38.34
38.81
37.32
35.11
32.91
30.62
27.59
23.29
17.93
12.52
8.46
6.66
6.89
7.89
7.96
6.00
2.15
-2.35
-5.82
-7.18
-6.59
-5.27
-4.87
-6.41
-9.75
-13.65
-16.50
-17.25
-15.99
-13.95
-12.84
-13.90
-17.41
-22.60
-28.19
-33.00
-36.48
-38.68
-39.84
-40.03
-38.95
-36.12
-31.25
-24.70
-17.50
-11.04
-6.43
-3.97
-2.97
-2.08
-0.02
3.72
8.48
12.70
14.70
13.62
9.90
5.25
1.74
0.78
2.34
5.00
6.82
6.47
4.01
0.85
-1.11
-0.60
2.22
5.97
8.89
9.93
9.21
7.89
7.20
7.62
8.53
8.65
6.91
3.20
-1.47
-5.50
-7.54
-7.34
-5.90
-4.99
-6.22
-10.11
-15.70
-20.85
-23.23
-21.56
-16.17
-8.91
-2.10
2.63
5.16
6.66
8.69
11.91
15.54
17.74
16.81
12.41
5.99
0.21
-2.45
-0.95
3.83
9.65
14.16
16.06
15.61
14.22
13.52
14.33
16.34
18.40
19.26
18.45
16.41
14.32
13.34
13.86
15.34
16.69
17.10
16.64
16.42
17.90
21.95
28.04
34.35
38.52
38.92
35.52
29.86
24.34
20.92
20.09
20.83
21.25
19.80
16.11
11.18
6.82
4.66
5.21
7.79
10.87
13.07
13.79
13.43
12.97
13.11
13.77
13.98
12.57
8.91
3.55
-2.02
-6.01
-7.28
-6.14
-4.07
-3.13
-4.64
-8.54
-13.35
-16.86
-17.46
-15.02
-11.09
-8.07
-8.01
-11.55
-17.66
-24.23
-29.22
-31.72
-32.20
-32.07
-32.66
-34.44
-36.75
-38.17
-37.58
-34.82
-31.04
-28.24
-28.19
-31.49
-37.13
-42.76
-45.87
-44.89
-39.86
-32.25
-23.92
-16.20
-9.30
-2.59
4.46
11.49
17.12
19.63
18.08
13.10
6.75
1.61
-0.54
0.39
2.93
4.98
5.09
3.22
0.67
-0.78
-0.11
2.32
4.97
5.98
4.39
0.62
-3.67
-6.63
-7.32
-6.29
-5.27
-6.10
-9.64
-15.19
-20.83
-24.39
-24.68
-22.10
-18.44
-16.00
-16.39
-19.77
-24.85
-29.56
-32.13
-31.93
-29.57
-26.39
-23.53
-21.24
-18.66
-14.46
-7.77
1.15
10.80
19.20
24.85
27.37
27.60
26.96
26.54
26.57
26.43
25.28
22.82
19.56
16.71
15.40
15.98
17.75
19.30
19.35
17.52
14.56
12.01
11.20
12.37
14.42
15.40
13.62
8.69
1.79
-4.81
-9.01
-10.00
-8.64
-6.99
-7.04
-9.64
-14.12
-18.68
-21.52
-21.94
-20.66
-19.35
-19.50
-21.47
-24.12
-25.38
-23.38
-17.60
-9.19
-0.50
6.17
9.68
10.50
10.32
10.93
13.19
16.56
19.57
20.81
19.90
17.74
16.12
16.55
19.31
23.17
25.92
25.69
21.96
15.92
9.91
6.18
5.65
7.58
9.97
10.81
9.09
5.27
0.88
-2.50
-4.13
-4.47
-4.76
-6.20
-9.13
-12.83
-15.90
-17.13
-16.26
-14.22
-12.73
-13.25
-16.26
-20.93
-25.65
-28.90
-30.16
-30.01
-29.66
-29.89
-30.46
-30.12
-27.33
-21.41
-13.19
-4.85
1.07
2.96
0.92
-3.20
-6.82
-7.83
-5.75
-1.79
1.81
3.10
1.47
-1.99
-5.05
-5.57
-2.68
2.78
8.74
13.04
14.48
13.31
10.82
8.31
6.22
4.13
1.52
-1.16
-2.18
0.89
9.79
24.05
40.70
55.26
63.70
64.32
58.50
49.89
42.58
39.07
39.26
40.84
40.76
36.93
29.23
19.44
10.30
4.06
1.47
1.61
2.49
2.29
0.19
-3.25
-6.61
-8.68
-9.20
-8.95
-9.14
-10.38
-12.17
-13.01
-11.41
-6.85
-0.34
6.13
10.69
12.64
12.74
12.61
13.59
15.77
17.87
17.93
14.45
7.38
-1.75
-10.43
-16.29
-18.28
-17.05
-14.64
-13.35
-14.52
-18.01
-22.29
-25.48
-26.51
-25.76
-24.81
-25.44
-28.52
-33.50
-38.70
-42.44
-44.12
-44.68
-46.16
-50.41
-57.91
-67.19
-75.26
-78.95
-76.45
-68.03
-55.85
-42.62
-30.25
-18.94
-7.49
5.50
20.29
35.39
48.06
55.77
57.61
54.85
50.28
46.73
45.54
46.06
46.32
44.48
40.07
34.35
29.70
28.18
30.41
35.25
40.38
43.65
44.14
42.49
40.48
39.82
41.19
43.85
46.04
46.04
43.02
37.46
30.77
24.46
19.27
14.96
10.70
5.92
0.86
-3.46
-5.82
-5.77
-4.10
-2.64
-3.36
-7.22
-13.66
-20.76
-26.19
-28.35
-27.13
-23.73
-19.99
-17.19
-15.49
-13.94
-11.07
-5.98
1.11
8.87
15.56
19.85
21.47
21.16
20.21
19.61
19.60
19.62
18.83
16.72
13.52
10.11
7.63
6.81
7.55
9.02
10.11
10.07
8.92
7.35
6.29
6.13
6.40
5.93
3.60
-0.86
-6.55
-11.73
-14.70
-14.81
-12.87
-10.75
-10.31
-12.35
-16.18
-19.98
-21.99
-21.55
-19.59
-18.15
-19.23
-23.56
-30.21
-36.84
-40.94
-41.01
-37.16
-30.90
-24.15
-18.20
-13.17
-8.28
-2.58
4.15
11.15
17.02
20.54
21.44
20.54
19.36
19.24
20.65
22.98
24.96
25.42
23.95
21.11
18.09
16.14
15.80
16.69
17.73
17.80
16.41
13.94
11.51
10.32
10.87
12.67
14.41
14.75
13.07
9.79
6.13
3.30
1.69
0.61
-1.23
-4.81
-10.01
-15.53
-19.46
-20.43
-18.45
-15.00
-12.37
-12.38
-15.52
-20.78
-26.32
-30.47
-32.58
-33.06
-32.81
-32.39
-31.47
-28.98
-23.71
-15.22
-4.39
6.85
16.23
22.24
24.73
24.84
24.37
24.68
25.97
27.24
26.98
24.16
19.02
12.99
8.06
5.60
5.69
7.10
8.12
7.61
5.69
3.57
2.73
3.90
6.37
8.38
7.96
4.11
-2.61
-10.35
-16.83
-20.58
-21.54
-21.05
-20.89
-22.26
-25.08
-28.07
-29.52
-28.38
-24.94
-20.77
-17.94
-17.82
-20.44
-24.43
-27.89
-29.52
-29.33
-28.58
-28.86
-30.95
-34.18
-36.62
-36.03
-31.12
-22.35
-11.62
-1.42
6.55
12.05
16.28
21.05
27.70
36.59
47.19
58.71
70.77
83.45
96.82
110.27
122.00
129.38
129.89
122.24
107.10
87.01
65.48
45.76
29.82
17.95
9.24
2.43
-3.26
-7.79
-10.52
-10.92
-9.24
-6.68
-4.91
-5.27
-7.99
-12.15
-16.11
-18.44
-18.87
-18.37
-18.66
-21.15
-26.17
-32.68
-38.95
-43.44
-45.78
-46.84
-48.09
-50.54
-53.97
-56.77
-56.78
-52.44
-43.82
-32.68
-21.71
-13.21
-8.04
-5.34
-3.24
-0.02
4.77
10.12
14.16
15.41
13.65
10.09
6.78
5.41
6.45
9.00
11.43
12.42
11.71
10.16
9.18
9.80
11.90
14.32
15.38
13.91
9.89
4.54
-0.27
-3.02
-3.37
-2.28
-1.55
-2.70
-6.14
-10.97
-15.47
-18.11
-18.44
-17.36
-16.58
-17.57
-20.81
-25.43
-29.73
-32.15
-32.04
-29.94
-27.07
-24.47
-22.29
-19.79
-15.82
-9.74
-2.02
5.86
12.16
15.85
17.12
17.26
17.93
20.06
23.38
26.52
27.88
26.58
23.03
18.73
15.52
14.52
15.56
17.29
17.91
16.25
12.35
7.49
3.39
1.26
1.06
1.56
1.06
-1.62
-6.42
-12.08
-16.83
-19.47
-20.05
-19.82
-20.60
-23.58
-28.77
-34.98
-40.57
-44.44
-46.72
-48.54
-51.44
-56.39
-63.26
-71.01
-78.26
-84.18
-88.76
-92.69
-96.69
-100.89
-104.73
-107.19
-107.58
-106.14
-104.09
-103.24
-105.06
-109.97
-117.08
-124.56
-130.44
-133.59
-134.13
-133.29
-132.64
-133.37
-135.59
-138.27
-139.67
-138.09
-132.54
-123.01
-110.26
-95.25
-78.72
-60.94
-42.02
-22.40
-3.06
14.58
29.42
41.25
51.00
60.34
70.68
82.32
94.18
104.33
111.06
113.83
113.48
111.81
110.54
110.44
111.02
110.90
108.59
103.31
95.38
86.02
76.87
69.46
64.83
63.65
66.22
72.56
82.19
93.97
106.01
115.96
121.80
122.52
118.68
112.15
105.29
100.03
97.07
95.82
94.93
93.03
89.50
84.54
78.89
73.37
68.39
63.87
59.40
54.66
49.70
44.92
40.95
38.32
37.06
36.59
35.85
33.72
29.60
23.78
17.40
12.03
8.77
7.73
7.84
7.48
5.37
1.30
-3.73
-8.11
-10.63
-11.23
-11.05
-11.76
-14.49
-19.09
-24.08
-27.38
-27.42
-23.97
-18.25
-12.28
-7.70
-5.00
-3.30
-1.02
2.99
8.66
14.70
19.26
21.08
20.18
17.84
15.85
15.42
16.55
18.05
18.43
16.79
13.39
9.52
6.74
5.91
6.81
8.23
8.79
7.72
5.35
2.80
1.32
1.43
2.55
3.33
2.43
-0.73
-5.59
-10.77
-14.86
-17.29
-18.52
-19.81
-22.40
-26.77
-32.42
-38.20
-43.08
-46.87
-50.34
-54.70
-60.80
-68.43
-76.24
-82.30
-85.08
-84.30
-81.13
-77.70
-75.98
-76.86
-79.76
-82.95
-84.65
-83.89
-80.86
-76.60
-72.07
-67.44
-61.95
-54.39
-43.92
-30.93
-16.85
-3.63
7.47
16.64
25.73
37.60
54.91
78.88
108.81
142.37
176.63
209.14
238.56
264.67
287.63
307.31
323.15
334.55
341.60
345.55
348.44
352.15
357.10
361.69
362.90
357.79
345.31
327.01
306.41
287.05
270.52
255.52
238.54
215.77
185.21
147.55
105.62
62.88
21.73
-17.19
-54.71
-92.16
-130.49
-169.98
-210.23
-250.36
-289.15
-325.12
-356.60
-382.03
-400.26
-410.71
-413.26
-408.07
-395.39
-375.64
-349.65
-318.86
-285.18
-250.51
-216.36
-183.58
-152.76
-124.57
-100.01
-80.11
-65.22
-54.61
-46.55
-38.99
-30.67
-21.65
-13.25
-7.16
-4.43
-4.90
-7.32
-10.22
-12.92
-15.95
-20.84
-29.04
-40.85
-54.99
-68.86
-79.78
-86.17
-88.27
-87.80
-86.90
-86.92
-87.77
-88.10
-86.12
-80.60
-71.23
-58.54
-43.33
-26.20
-7.38
13.05
34.63
56.12
75.58
90.80
100.27
103.87
103.01
100.19
97.78
96.89
96.99
96.35
93.37
87.69
80.64
74.47
70.94
70.09
70.01
67.79
61.15
49.67
35.08
20.27
7.73
-1.72
-9.10
-16.37
-24.84
-34.15
-42.12
-45.85
-43.31
-34.62
-22.09
-9.16
1.23
8.00
12.11
15.70
20.55
26.98
33.78
39.22
42.43
44.17
46.50
51.61
60.35
71.64
82.97
91.67
96.26
96.97
95.40
93.45
92.30
92.02
91.93
91.33
90.12
88.88
88.44
89.30
90.97
92.04
90.71
85.61
76.62
65.11
53.61
44.84
40.44
40.33
42.76
45.29
46.12
44.96
43.12
42.65
44.99
50.16
56.77
62.92
67.25
69.40
69.82
68.86
66.05
60.11
49.64
34.15
14.72
-6.19
-25.57
-41.05
-51.76
-58.67
-63.88
-69.79
-77.94
-88.50
-100.15
-110.74
-118.36
-122.07
-122.34
-120.39
-117.37
-113.53
-108.15
-100.29
-89.78
-77.79
-66.37
-57.36
-51.30
-47.25
-43.39
-38.26
-31.79
-25.15
-19.91
-16.81
-15.17
-13.19
-8.94
-1.54
8.16
17.91
24.92
27.07
23.85
16.37
7.01
-1.74
-8.39
-12.94
-16.77
-21.75
-29.16
-38.94
-49.79
-59.94
-68.27
-74.96
-81.50
-89.68
-100.45
-113.01
-124.76
-132.68
-134.99
-132.44
-128.10
-125.71
-127.51
-132.71
-137.67
-137.86
-130.50
-116.38
-99.91
-87.23
-83.67
-91.46
-109.09
-132.36
-156.31
-176.93
-191.94
-200.37
-201.52
-194.29
-177.12
-149.27
-112.32
-70.89
-31.96
-2.64
12.43
12.79
2.10
-13.64
-28.57
-38.75
-42.66
-40.45
-33.07
-21.69
-7.97
5.57
15.85
20.34
18.50
12.60
6.82
5.56
11.17
22.64
35.82
44.87
44.33
30.81
3.82
-34.51
-80.40
-129.88
-179.83
-228.30
-273.91
-314.77
-347.76
-368.86
-374.46
-363.32
-337.61
-302.58
-264.58
-228.72
-197.26
-169.61
-143.65
-117.48
-90.48
-63.38
-37.48
-13.62
8.17
28.82
49.61
71.57
95.12
120.08
146.14
173.30
201.95
232.42
264.08
294.70
320.64
337.98
344.08
338.93
325.38
308.14
291.84
279.34
271.05
265.42
260.25
253.95
246.05
236.88
226.74
215.34
201.90
185.75
167.16
147.70
129.92
116.31
108.12
104.65
103.52
101.78
97.33
89.83
80.66
72.01
65.36
60.58
56.00
49.53
40.00
28.04
15.83
5.95
-0.03
-2.37
-2.82
-3.49
-5.48
-8.34
-10.33
-9.54
-5.24
1.61
8.73
13.72
15.50
14.82
13.82
14.67
18.10
22.76
25.94
25.15
19.72
11.37
3.41
-1.13
-1.23
1.41
3.24
0.75
-7.61
-20.69
-35.17
-47.23
-54.32
-56.02
-53.74
-49.56
-44.87
-39.78
-33.35
-24.38
-12.52
1.33
15.23
27.10
35.57
40.53
43.09
44.94
47.35
50.59
53.76
55.50
54.85
51.99
48.23
45.23
43.92
43.83
43.42
41.14
36.59
30.99
26.70
25.71
28.35
32.82
35.98
34.89
28.24
16.81
2.91
-10.86
-22.67
-31.86
-38.64
-43.40
-46.37
-47.53
-46.95
-45.15
-43.15
-42.14
-42.88
-45.31
-48.41
-50.74
-50.92
-48.28
-43.13
-36.47
-29.64
-23.66
-18.89
-15.01
-11.30
-7.12
-2.40
2.28
5.95
7.79
7.64
6.13
4.44
3.60
3.92
4.91
5.55
5.04
3.22
0.74
-1.46
-2.80
-3.47
-4.32
-6.21
-9.43
-13.32
-16.63
-18.15
-17.60
-15.86
-14.56
-15.23
-18.30
-22.82
-26.84
-28.41
-26.72
-22.60
-18.12
-15.58
-16.35
-20.22
-25.60
-30.30
-32.68
-32.21
-29.50
-25.67
-21.52
-17.22
-12.34
-6.35
0.63
7.66
13.32
16.41
16.72
15.21
13.70
13.91
16.62
21.30
26.45
30.44
32.38
32.45
31.63
31.00
31.05
31.38
31.09
29.44
26.54
23.41
21.51
21.89
24.44
27.80
29.98
29.38
25.68
19.94
14.05
9.63
7.13
5.70
3.83
0.38
-4.64
-10.09
-14.46
-16.81
-17.46
-17.69
-18.96
-21.87
-25.78
-29.08
-30.08
-27.94
-23.08
-16.93
-11.14
-6.76
-3.84
-1.49
1.51
6.01
11.92
18.19
23.22
25.58
24.75
21.25
16.52
12.16
9.16
7.56
6.57
5.16
2.73
-0.49
-3.57
-5.47
-5.65
-4.35
-2.41
-0.67
0.45
1.22
2.21
3.72
5.37
6.21
5.27
2.37
-1.55
-4.74
-5.51
-3.20
1.34
6.15
9.06
8.75
5.25
-0.25
-6.14
-11.32
-15.62
-19.64
-24.18
-29.47
-34.84
-38.92
-40.28
-38.14
-32.84
-25.61
-17.98
-10.98
-4.79
1.17
7.63
14.77
21.89
27.73
31.14
31.69
29.95
27.10
24.42
22.56
21.40
20.28
18.55
15.99
13.00
10.38
8.84
8.55
8.96
9.05
7.86
5.08
1.20
-2.67
-5.43
-6.64
-6.73
-6.75
-7.72
-10.00
-13.11
-15.92
-17.41
-17.25
-16.06
-15.09
-15.48
-17.66
-21.07
-24.50
-26.81
-27.73
-28.03
-29.08
-31.87
-36.24
-40.71
-43.04
-41.46
-35.58
-26.62
-16.83
-8.37
-2.35
1.39
3.95
6.52
9.56
12.65
14.77
15.03
13.29
10.33
7.56
6.17
6.49
7.72
8.44
7.46
4.69
1.21
-1.21
-1.25
1.16
4.77
7.77
8.95
8.38
7.30
7.31
9.17
12.35
15.19
15.91
13.58
8.60
2.41
-3.26
-7.32
-9.72
-11.18
-12.63
-14.46
-16.46
-17.96
-18.47
-18.10
-17.59
-17.91
-19.54
-22.12
-24.42
-24.91
-22.47
-17.02
-9.57
-1.84
4.58
8.82
11.07
12.38
14.01
16.73
20.38
23.93
26.07
25.99
23.83
20.65
17.85
16.28
15.87
15.68
14.66
12.42
9.45
6.98
6.10
7.09
9.16
10.78
10.55
7.88
3.27
-1.85
-5.99
-8.29
-8.92
-8.99
-9.80
-12.10
-15.59
-18.95
-20.68
-20.01
-17.40
-14.38
-12.66
-13.12
-15.36
-18.08
-20.03
-20.91
-21.52
-23.05
-26.00
-29.44
-31.29
-29.37
-22.70
-12.27
-0.64
9.21
15.38
17.79
18.03
18.35
20.34
24.12
28.36
31.08
30.83
27.44
22.12
16.85
13.37
12.35
13.21
14.71
15.71
15.86
15.57
15.67
16.58
17.89
18.52
17.33
13.94
9.04
4.22
1.17
0.67
2.18
4.00
4.14
1.40
-4.00
-10.58
-16.39
-20.11
-21.68
-22.19
-23.09
-25.26
-28.60
-32.21
-35.13
-37.10
-38.66
-40.71
-43.68
-46.94
-48.92
-47.76
-42.33
-32.92
-21.23
-9.65
-0.32
5.79
9.08
10.94
12.89
15.77
19.34
22.62
24.48
24.46
23.02
21.36
20.75
21.81
24.18
26.74
28.24
27.99
26.20
23.89
22.28
22.08
23.08
24.25
24.38
22.74
19.53
15.76
12.58
10.52
9.11
7.19
3.73
-1.53
-7.66
-13.09
-16.51
-17.71
-17.70
-18.18
-20.46
-24.73
-29.95
-34.49
-37.10
-37.64
-36.96
-36.29
-36.29
-36.56
-35.83
-32.67
-26.47
-17.93
-8.78
-0.97
4.36
7.36
9.28
11.64
15.23
19.61
23.37
24.97
23.75
20.26
16.10
13.03
12.02
12.76
13.97
14.12
12.38
9.06
5.42
3.04
2.90
4.83
7.66
9.73
9.78
7.49
3.52
-0.98
-4.98
-8.14
-10.80
-13.60
-16.89
-20.41
-23.39
-25.09
-25.41
-25.22
-26.02
-29.07
-34.54
-41.13
-46.39
-47.86
-44.29
-36.32
-26.21
-16.66
-9.57
-5.19
-2.33
0.75
5.16
10.82
16.59
21.08
23.54
24.21
24.15
24.37
25.11
25.57
24.40
20.61
14.38
7.26
1.55
-0.82
0.61
4.56
8.66
10.70
9.78
6.68
3.31
1.45
1.70
3.20
4.21
3.32
0.32
-3.69
-6.97
-8.27
-7.63
-6.40
-6.47
-9.08
-14.02
-19.62
-23.36
-23.14
-18.20
-9.46
1.01
11.03
19.25
25.61
31.12
36.99
43.89
51.55
58.97
65.19
69.79
73.10
75.90
78.85
82.03
85.06
87.46
89.13
90.45
91.98
94.16
96.97
99.96
102.66
105.11
108.19
113.45
122.51
135.94
152.24
167.43
175.50
169.71
144.68
98.59
34.81
-38.12
-108.53
-165.05
-200.28
-213.20
-209.20
-197.62
-188.10
-187.08
-196.08
-212.29
-230.75
-246.77
-257.44
-261.65
-259.34
-250.47
-234.88
-212.78
-185.47
-155.63
-126.79
-102.25
-83.73
-70.74
-61.06
-51.93
-41.43
-29.20
-16.33
-4.54
4.83
11.49
16.07
19.70
23.38
27.66
32.57
37.73
42.61
46.60
49.08
49.60
48.01
44.68
40.47
36.48
33.57
32.08
31.52
30.95
29.30
25.98
21.21
16.02
11.87
10.02
10.93
14.14
18.48
22.73
26.30
29.39
32.79
37.14
42.27
47.12
50.10
50.09
47.03
42.07
37.06
33.51
31.88
31.45
30.79
28.76
25.09
20.54
16.42
13.77
12.67
12.29
11.32
8.81
4.68
-0.20
-4.52
-7.33
-8.65
-9.37
-10.74
-13.59
-17.79
-22.34
-25.86
-27.48
-27.28
-26.29
-25.91
-27.18
-30.32
-34.70
-39.30
-43.36
-46.62
-49.34
-51.86
-54.25
-56.20
-57.31
-57.53
-57.45
-58.15
-60.68
-65.45
-71.90
-78.85
-85.11
-90.34
-95.29
-101.59
-110.84
-123.75
-139.70
-156.77
-172.26
-183.45
-188.49
-186.90
-179.80
-169.49
-158.45
-148.20
-138.52
-127.48
-112.36
-91.16
-63.62
-31.27
3.41
38.39
73.13
108.54
145.95
185.57
225.57
262.21
291.18
309.33
316.03
313.29
304.88
294.49
284.42
275.06
265.48
254.57
242.20
229.63
218.98
212.18
209.73
209.83
208.47
200.63
182.04
151.06
109.34
60.97
10.77
-37.29
-80.75
-118.42
-149.96
-176.23
-199.78
-224.90
-256.02
-295.02
-338.94
-379.81
-407.29
-412.93
-393.82
-353.19
-298.18
-236.22
-172.39
-109.06
-47.25
11.74
65.62
111.69
148.09
174.53
192.18
202.96
208.68
210.53
209.00
204.52
198.01
191.39
187.46
188.86
196.45
207.77
216.92
216.64
201.98
173.77
140.05
113.94
108.85
132.98
185.42
256.05
329.01
388.37
423.26
430.56
414.31
382.54
343.45
302.30
260.56
216.62
167.71
112.20
51.83
-7.19
-55.31
-82.60
-83.09
-58.34
-18.20
22.29
48.31
50.78
28.69
-12.07
-62.14
-112.35
-155.25
-185.02
-197.17
-189.44
-163.31
-125.45
-86.22
-55.87
-40.57
-40.50
-51.25
-67.47
-86.13
-107.59
-133.66
-164.34
-195.82
-221.36
-234.48
-232.52
-218.22
-198.22
-179.57
-166.55
-159.59
-156.44
-154.75
-153.78
-154.35
-157.42
-162.20
-165.73
-163.89
-153.44
-133.80
-107.67
-79.69
-54.78
-36.45
-25.73
-21.32
-20.47
-20.30
-18.86
-15.70
-11.56
-7.58
-4.46
-2.03
0.53
3.98
8.40
13.03
16.74
18.73
19.08
18.73
18.89
20.32
22.74
25.12
26.23
25.57
23.69
22.01
21.97
24.04
27.37
30.05
30.08
26.48
19.75
11.66
4.30
-0.99
-4.17
-6.25
-8.39
-10.96
-13.28
-13.89
-11.51
-5.96
1.62
9.23
15.00
18.08
18.89
18.75
19.02
20.23
21.82
22.44
20.92
16.96
11.40
5.94
2.22
1.01
1.82
3.30
4.07
3.52
2.04
0.77
0.77
2.25
4.45
6.01
5.83
3.70
0.43
-2.51
-3.90
-3.43
-1.87
-0.69
-1.16
-3.67
-7.52
-11.29
-13.68
-14.30
-13.86
-13.80
-15.41
-19.06
-23.98
-28.59
-31.39
-31.76
-30.21
-27.95
-26.00
-24.59
-23.03
-20.26
-15.64
-9.57
-3.40
1.27
3.51
3.59
2.87
3.02
5.00
8.51
12.16
14.25
13.86
11.32
8.10
5.98
6.04
8.11
10.88
12.70
12.52
10.52
7.87
6.11
6.11
7.64
9.45
10.00
8.48
5.16
1.36
-1.36
-2.12
-1.25
-0.04
-0.03
-2.01
-5.59
-9.41
-11.93
-12.47
-11.58
-10.81
-11.80
-15.24
-20.46
-25.68
-28.88
-28.92
-26.06
-21.68
-17.46
-14.40
-12.33
-10.17
-6.67
-1.42
4.86
10.58
14.20
15.06
13.81
12.02
11.26
12.30
14.64
16.95
17.83
16.78
14.32
11.83
10.61
11.15
12.84
14.37
14.52
12.94
10.32
8.01
7.19
8.14
10.07
11.51
11.18
8.76
5.02
1.49
-0.43
-0.24
1.41
3.10
3.52
2.19
-0.34
-2.80
-4.06
-3.86
-2.99
-2.78
-4.25
-7.36
-10.87
-12.91
-12.02
-7.99
-2.08
3.63
7.36
8.52
7.97
7.38
8.20
10.73
14.03
16.50
16.91
15.16
12.31
10.02
9.44
10.64
12.55
13.73
13.22
11.16
8.68
7.21
7.59
9.50
11.68
12.69
11.74
9.21
6.45
4.90
5.17
6.62
7.68
6.73
3.11
-2.47
-8.29
-12.57
-14.48
-14.63
-14.64
-16.22
-20.16
-25.89
-31.74
-35.83
-37.03
-35.47
-32.36
-29.25
-27.17
-26.16
-25.28
-23.21
-19.08
-12.92
-5.68
1.37
7.30
11.98
16.07
20.44
25.43
30.50
34.44
36.05
34.87
31.59
27.69
24.71
23.37
23.25
23.10
21.69
18.52
14.14
9.89
7.07
6.12
6.48
6.86
6.07
3.66
0.22
-3.01
-4.93
-5.31
-4.91
-5.08
-6.88
-10.49
-15.10
-19.34
-22.12
-23.30
-23.69
-24.47
-26.34
-28.93
-30.92
-30.67
-27.24
-21.08
-13.88
-7.81
-4.39
-3.73
-4.55
-4.90
-3.36
0.21
4.61
8.05
9.25
8.15
5.96
4.38
4.56
6.48
8.97
10.45
9.88
7.44
4.33
2.20
2.00
3.54
5.56
6.44
5.24
2.19
-1.45
-4.02
-4.61
-3.48
-1.98
-1.72
-3.58
-7.15
-10.95
-13.27
-13.20
-11.19
-8.82
-7.92
-9.54
-13.41
-18.01
-21.42
-22.27
-20.40
-16.75
-12.75
-9.41
-6.82
-4.28
-0.82
3.94
9.43
14.35
17.41
18.08
16.97
15.50
15.12
16.40
18.77
20.80
21.11
19.19
15.67
12.09
10.03
10.19
12.08
14.21
15.02
13.69
10.59
7.05
4.56
3.84
4.47
5.17
4.57
2.14
-1.56
-5.17
-7.37
-7.74
-6.96
-6.44
-7.40
-10.23
-14.31
-18.44
-21.62
-23.64
-25.07
-26.80
-29.29
-32.14
-34.19
-33.99
-30.74
-24.72
-17.32
-10.30
-4.97
-1.58
0.72
3.26
6.97
11.75
16.51
19.76
20.59
19.16
16.68
14.81
14.68
16.32
18.70
20.36
20.31
18.55
16.14
14.48
14.48
15.98
17.77
18.28
16.51
12.60
7.83
3.88
1.87
1.67
2.03
1.27
-1.63
-6.40
-11.60
-15.43
-16.78
-15.94
-14.39
-14.02
-15.96
-19.99
-24.60
-27.83
-28.33
-26.05
-22.16
-18.28
-15.49
-13.83
-12.30
-9.63
-5.11
0.87
6.94
11.55
13.80
13.92
13.17
13.06
14.48
17.16
19.91
21.34
20.74
18.48
15.85
14.30
14.55
16.23
18.05
18.58
17.04
13.78
9.97
7.00
5.55
5.37
5.35
4.37
1.96
-1.32
-4.24
-5.59
-5.00
-3.21
-1.71
-1.88
-4.19
-7.95
-11.62
-13.78
-13.91
-12.76
-11.88
-12.71
-15.80
-20.37
-24.74
-27.22
-26.92
-24.20
-20.38
-16.89
-14.57
-13.23
-11.85
-9.36
-5.34
-0.35
4.34
7.47
8.61
8.26
7.70
8.08
9.71
11.93
13.46
13.29
11.36
8.69
6.87
7.10
9.55
13.20
16.40
17.86
17.30
15.54
13.97
13.70
14.85
16.58
17.65
17.27
15.57
13.55
12.47
13.05
15.02
17.37
18.98
19.49
19.50
20.24
22.86
27.49
33.18
38.32
41.57
42.78
43.03
44.26
48.23
55.80
66.67
79.82
94.18
109.19
124.99
142.24
161.82
184.43
210.22
238.36
266.72
291.95
310.02
317.44
312.33
295.14
268.40
235.75
200.60
165.26
130.48
95.85
60.31
22.75
-17.64
-61.12
-107.30
-155.17
-203.23
-249.88
-293.86
-334.61
-372.42
-408.60
-445.42
-485.57
-530.91
-580.87
-631.26
-674.39
-701.03
-703.74
-679.80
-632.45
-569.51
-500.18
-431.60
-367.07
-306.48
-248.52
-192.91
-141.41
-96.97
-62.02
-36.92
-19.77
-7.37
3.31
14.22
26.17
39.65
55.73
76.07
102.03
133.50
168.20
202.07
230.69
250.98
262.15
265.67
264.11
259.95
254.71
248.86
242.25
234.65
226.14
217.00
207.46
197.36
186.17
173.21
158.23
141.74
125.16
110.26
98.28
89.32
82.28
75.65
68.54
61.33
55.56
52.81
53.47
56.13
58.06
56.69
50.91
41.77
31.82
23.64
18.43
15.50
12.85
8.53
1.81
-6.36
-13.92
-18.97
-20.80
-20.28
-19.23
-19.23
-20.64
-22.38
-22.52
-19.57
-13.50
-5.85
0.98
5.04
5.75
4.13
1.96
0.65
0.48
0.67
0.17
-1.39
-3.27
-4.00
-2.33
1.76
7.00
11.36
13.16
12.13
9.57
7.83
9.06
14.13
22.18
31.01
38.24
42.35
43.32
42.37
41.03
40.21
39.59
37.94
34.03
27.47
19.20
11.10
5.05
1.77
0.49
-0.79
-4.16
-10.66
-19.65
-29.14
-36.69
-40.73
-41.29
-39.80
-38.22
-37.85
-38.70
-39.47
-38.58
-35.16
-29.68
-23.80
-19.34
-17.35
-17.49
-18.25
-17.91
-15.59
-11.78
-8.08
-6.10
-6.49
-8.38
-9.77
-8.67
-4.35
2.26
9.05
14.02
16.44
17.21
18.27
21.17
25.95
31.03
34.11
33.63
29.76
24.31
19.73
17.53
17.51
17.86
16.30
11.58
4.26
-3.54
-9.21
-11.02
-9.02
-4.77
-0.45
2.46
3.87
4.88
7.03
11.16
16.78
22.23
25.64
25.89
23.30
19.44
16.32
15.30
16.35
18.10
18.56
16.28
11.09
4.27
-2.11
-6.29
-7.67
-7.02
-5.84
-5.47
-6.28
-7.61
-8.31
-7.72
-6.19
-5.02
-5.66
-8.72
-13.50
-18.11
-20.45
-19.32
-15.19
-9.97
-6.14
-5.48
-8.12
-12.46
-15.87
-16.05
-12.03
-4.65
4.09
12.01
17.75
21.32
23.65
25.76
27.98
29.70
30.05
28.66
26.35
24.94
26.40
31.58
39.61
48.12
54.45
57.05
56.17
53.59
51.42
50.78
51.28
51.35
49.51
45.37
39.88
34.92
32.11
31.86
33.22
34.46
34.20
32.29
29.97
29.39
32.37
39.38
49.12
59.05
66.60
70.28
70.29
68.23
65.96
64.41
63.04
60.08
53.96
44.91
35.82
31.75
37.81
56.51
85.79
119.05
147.21
161.86
157.91
134.84
96.06
47.12
-5.84
-57.33
-102.66
-138.36
-162.29
-174.15
-175.78
-170.77
-163.52
-157.75
-155.17
-154.50
-151.77
-141.76
-120.56
-88.05
-49.20
-13.09
10.56
15.50
1.87
-24.23
-54.00
-80.60
-102.07
-121.05
-141.58
-165.30
-189.60
-208.63
-216.63
-211.23
-194.62
-172.08
-149.08
-128.92
-111.80
-96.10
-80.07
-62.75
-43.87
-23.36
-0.99
23.55
50.15
77.82
104.38
126.41
139.10
136.90
115.15
72.71
14.14
-50.15
-106.64
-143.40
-154.54
-141.82
-112.56
-75.22
-35.07
7.33
54.65
109.58
172.24
239.86
308.19
373.43
433.56
487.89
535.62
574.74
601.91
613.55
607.50
584.41
548.08
504.45
459.69
418.28
381.99
350.00
320.13
290.41
260.07
229.63
200.26
172.75
146.80
121.02
93.47
62.48
27.43
-11.01
-51.12
-90.93
-128.99
-164.96
-199.58
-234.19
-269.84
-306.74
-343.90
-379.74
-412.69
-442.03
-468.24
-492.82
-517.83
-545.57
-578.34
-617.98
-664.99
-717.26
-769.29
-812.76
-838.75
-840.83
-817.61
-773.29
-715.88
-654.00
-594.01
-538.81
-488.61
-442.66
-400.72
-363.29
-330.90
-303.22
-278.76
-255.62
-232.43
-209.11
-186.74
-167.00
-151.09
-139.00
-129.48
-120.49
-110.19
-97.61
-83.02
-67.58
-52.63
-38.87
-25.89
-12.40
3.20
21.90
43.60
67.06
90.53
112.61
133.07
153.01
174.41
199.18
228.21
260.92
295.62
330.24
363.49
395.49
427.77
462.87
503.62
552.46
610.59
676.96
747.53
815.30
871.64
908.75
922.37
913.20
886.28
848.61
806.15
762.05
716.78
669.77
621.27
573.05
527.50
485.92
447.30
408.29
364.32
311.39
247.29
172.66
91.70
12.23
-55.65
-102.32
-122.22
-116.23
-91.45
-58.24
-25.81
0.93
21.57
37.88
50.50
57.36
54.55
39.03
10.83
-26.81
-68.81
-109.85
-144.71
-167.85
-173.75
-158.65
-123.02
-73.27
-20.54
23.15
49.41
56.82
50.49
38.69
28.38
22.39
19.30
15.79
9.43
0.19
-9.91
-18.61
-25.04
-30.25
-36.53
-45.79
-58.27
-72.02
-83.88
-91.12
-92.66
-89.62
-84.48
-79.75
-76.73
-74.85
-72.01
-65.68
-54.03
-36.66
-14.81
9.19
32.77
53.87
71.37
84.96
94.73
100.73
102.68
100.07
92.42
79.69
62.51
42.16
20.34
-1.31
-21.42
-39.13
-53.98
-65.80
-74.55
-80.24
-82.95
-83.01
-80.95
-77.47
-73.32
-68.97
-64.58
-59.97
-54.93
-49.49
-44.17
-39.97
-38.13
-39.70
-45.11
-54.01
-65.40
-78.13
-91.50
-105.67
-121.70
-141.13
-165.32
-194.75
-228.81
-266.07
-304.85
-343.97
-383.13
-422.85
-464.24
-508.78
-558.15
-613.77
-675.85
-742.00
-806.43
-860.52
-895.07
-903.46
-884.17
-841.44
-783.43
-718.96
-654.62
-593.49
-535.78
-480.70
-427.93
-378.04
-331.93
-289.88
-251.31
-215.19
-180.79
-148.19
-118.20
-91.98
-70.20
-52.72
-38.59
-26.43
-15.00
-3.59
7.99
19.65
31.38
43.57
57.01
72.60
91.12
112.74
137.02
163.13
190.11
217.60
246.48
279.17
318.69
367.02
422.76
479.69
527.38
553.80
548.99
508.03
432.29
328.67
207.73
81.55
-38.13
-141.42
-221.71
-276.69
-308.70
-323.68
-328.98
-330.87
-332.86
-335.52
-337.54
-337.24
-333.18
-324.43
-310.31
-290.25
-264.05
-232.32
-196.46
-158.36
-119.94
-82.66
-47.25
-13.88
17.41
46.40
72.41
94.42
111.36
122.43
127.53
127.33
123.08
116.34
108.60
101.01
94.25
88.59
84.04
80.50
77.91
76.25
75.48
75.42
75.75
75.97
75.47
73.69
70.15
64.66
57.24
48.17
37.97
27.25
16.60
6.53
-2.59
-10.57
-17.42
-23.15
-27.70
-30.89
-32.35
-31.69
-28.67
-23.47
-16.74
-9.52
-2.96
2.03
5.13
6.65
7.38
8.17
9.57
11.62
13.93
16.14
18.38
21.64
27.76
38.90
56.84
82.33
114.78
152.69
194.21
237.91
283.26
330.60
380.85
435.32
495.49
562.50
636.21
713.83
789.25
853.61
897.64
914.79
903.80
869.18
819.31
763.16
707.34
654.93
606.25
560.70
518.29
479.84
446.27
417.60
392.59
369.36
346.43
323.48
301.40
281.90
266.48
255.64
248.63
243.75
239.03
233.05
225.38
216.61
207.94
200.37
194.16
188.59
182.13
173.02
159.84
142.10
120.27
95.54
69.26
42.34
14.98
-13.37
-43.56
-76.18
-111.12
-147.42
-183.51
-217.82
-249.43
-278.43
-305.94
-333.58
-362.68
-393.63
-425.66
-457.22
-486.64
-512.94
-536.27
-557.86
-579.69
-604.17
-633.91
-671.17
-716.76
-768.71
-821.44
-866.39
-894.24
-898.20
-876.55
-833.16
-775.78
-712.76
-650.22
-590.89
-534.89
-481.57
-430.97
-384.11
-342.16
-305.42
-272.96
-243.10
-214.45
-186.62
-160.31
-136.93
-117.60
-102.56
-90.92
-80.99
-71.01
-59.73
-46.96
-33.41
-20.36
-8.97
0.15
7.07
12.45
17.06
21.40
25.53
29.03
31.29
31.85
30.60
27.87
24.27
20.49
17.08
14.35
12.31
10.80
9.68
8.82
8.24
7.98
8.13
8.71
9.67
10.92
12.35
13.87
15.39
16.88
18.28
19.58
20.68
21.49
21.88
21.68
20.71
18.75
15.61
11.11
5.13
-2.38
-11.32
-21.49
-32.54
-44.03
-55.44
-66.18
-75.71
-83.51
-89.15
-92.32
-92.84
-90.71
-86.07
-79.20
-70.49
-60.40
-49.38
-37.82
-26.03
-14.21
-2.48
9.13
20.62
31.96
43.16
54.17
64.95
75.50
85.82
95.93
105.83
115.43
124.63
133.29
141.39
149.00
156.39
163.97
172.21
181.49
192.04
203.90
216.95
231.04
246.10
262.17
279.35
297.68
317.05
337.14
357.45
377.51
396.98
415.71
433.72
451.02
467.65
483.83
500.27
518.20
539.00
563.37
590.51
617.89
641.80
658.71
666.57
665.53
657.59
645.67
632.51
619.98
609.13
600.26
592.86
585.27
574.53
556.54
527.19
483.94
427.32
361.34
292.52
227.86
172.57
128.53
94.31
66.39
41.08
16.10
-8.80
-32.36
-52.92
-69.50
-82.21
-92.02
-100.05
-106.94
-112.71
-116.97
-119.35
-119.96
-119.46
-118.99
-119.74
-122.35
-126.56
-131.23
-134.56
-134.89
-131.39
-124.65
-116.68
-110.36
-108.47
-112.72
-123.16
-138.27
-156.00
-174.75
-194.32
-216.06
-242.12
-274.34
-313.73
-360.38
-413.75
-472.78
-534.97
-595.32
-646.20
-679.23
-688.73
-674.88
-644.38
-607.61
-573.81
-546.74
-523.69
-497.99
-463.48
-417.97
-363.69
-305.03
-245.48
-185.96
-125.43
-62.89
0.92
63.57
122.16
175.29
224.31
273.19
327.04
389.84
461.78
537.85
608.48
662.25
689.91
687.94
659.80
614.32
561.89
510.48
463.40
419.71
376.52
331.63
284.98
238.43
194.22
153.50
115.61
78.54
40.02
-1.45
-45.90
-92.02
-137.90
-182.00
-223.82
-264.07
-304.24
-345.81
-389.60
-435.89
-484.94
-537.46
-594.17
-654.51
-715.15
-769.48
-808.97
-825.98
-816.71
-782.97
-731.37
-670.79
-609.27
-551.84
-500.16
-453.70
-411.20
-371.60
-334.19
-297.98
-261.37
-222.55
-180.84
-138.05
-98.79
-69.33
-54.84
-56.52
-70.33
-88.10
-100.75
-101.98
-90.49
-69.64
-45.06
-21.62
-1.58
15.35
30.68
45.67
60.59
75.01
88.57
101.48
114.40
128.15
143.21
159.46
176.34
193.24
209.99
227.18
246.20
268.65
295.30
325.12
355.04
380.72
398.13
405.25
402.89
394.13
382.66
371.21
360.53
349.86
338.06
324.85
311.29
299.36
291.00
287.28
288.22
293.01
300.59
309.94
320.12
330.22
339.16
345.82
349.19
348.63
343.88
334.86
321.43
303.22
279.71
250.50
216.05
177.84
138.01
98.69
61.07
24.90
-11.35
-49.43
-89.87
-130.79
-167.97
-196.19
-211.32
-212.19
-201.18
-183.02
-162.81
-143.94
-127.17
-111.07
-93.41
-72.49
-47.42
-17.59
18.01
60.57
110.31
164.86
218.69
264.41
295.26
307.72
302.94
286.05
263.83
242.03
223.79
209.48
197.93
187.80
178.41
169.68
161.58
153.73
145.43
136.08
125.45
113.96
102.45
91.77
82.43
74.34
67.03
59.80
52.18
44.14
36.15
28.91
23.03
18.69
15.60
13.09
10.41
7.04
2.84
-1.94
-6.97
-12.12
-17.56
-23.81
-31.39
-40.54
-50.95
-61.82
-72.01
-80.60
-87.16
-91.97
-95.81
-99.57
-103.79
-108.47
-113.10
-117.11
-120.47
-123.99
-129.35
-138.63
-153.58
-174.93
-202.13
-233.73
-267.95
-303.44
-339.81
-377.54
-417.77
-462.05
-512.13
-569.51
-634.39
-704.37
-773.64
-833.61
-875.18
-891.86
-882.35
-850.97
-805.86
-755.67
-706.65
-661.49
-620.05
-581.28
-544.69
-510.65
-479.74
-451.73
-425.29
-398.56
-370.18
-340.00
-309.11
-279.45
-252.73
-229.75
-210.09
-192.44
-175.17
-157.11
-137.92
-118.08
-98.59
-80.27
-63.47
-47.84
-32.59
-16.85
-0.14
17.47
35.39
52.74
68.73
82.87
95.11
105.67
114.84
122.83
129.60
134.94
138.57
140.28
140.02
137.97
134.44
129.77
124.28
118.22
111.76
105.07
98.28
91.57
85.10
78.99
73.32
68.11
63.33
58.93
54.87
51.14
47.77
44.83
42.34
40.32
38.72
37.42
36.34
35.40
34.65
34.25
34.39
35.28
36.97
39.39
42.29
45.41
48.56
51.78
55.32
59.55
64.81
71.21
78.57
86.46
94.44
102.28
110.11
118.47
128.04
139.39
152.71
167.70
183.77
200.34
217.10
234.13
251.82
270.62
290.96
313.33
338.38
366.68
398.02
430.71
461.31
485.31
498.60
499.17
487.88
468.02
443.63
417.87
392.06
366.12
339.69
313.20
287.97
265.35
245.60
227.43
208.51
186.85
161.92
135.12
109.54
88.09
72.02
60.44
51.00
41.35
30.39
18.60
7.62
-0.39
-4.46
-5.25
-4.82
-5.30
-7.75
-11.68
-15.52
-17.71
-16.73
-12.66
-7.22
-2.68
-0.45
-0.16
-0.04
1.80
6.02
14.88
28.88
46.79
66.18
84.90
102.32
118.98
135.30
150.93
171.08
199.50
236.50
278.30
319.21
354.57
381.93
400.54
410.82
424.39
451.24
495.37
552.32
612.67
667.48
711.57
743.53
765.13
793.53
843.71
921.35
1019.06
1121.06
1211.52
1280.12
1323.42
1260.77
1049.88
700.16
275.65
-142.56
-498.13
-771.62
-967.92
-1101.17
-1185.89
-1221.23
-1207.87
-1153.77
-1076.17
-994.94
-924.94
-871.39
-832.58
-804.14
-771.98
-726.38
-665.93
-598.25
-534.02
-480.68
-439.94
-409.89
-387.98
-366.54
-341.20
-309.49
-275.05
-243.16
-216.94
-196.31
-179.74
-165.95
-151.54
-134.42
-114.17
-92.41
-70.91
-50.60
-31.72
-14.66
-0.40
11.04
19.97
27.02
32.62
37.21
40.95
43.52
44.20
42.55
39.02
35.18
33.11
34.14
38.15
43.51
47.81
49.35
48.05
45.48
43.76
44.13
45.65
45.53
40.29
27.64
7.80
-16.34
-40.21
-59.49
-71.82
-77.52
-79.12
-79.68
-81.25
-84.00
-86.45
-86.74
-84.10
-79.42
-74.95
-72.82
-73.80
-76.78
-79.36
-79.32
-75.95
-70.49
-65.46
-63.12
-64.27
-67.80
-71.41
-72.93
-71.60
-68.35
-65.25
-64.22
-65.95
-69.69
-73.63
-76.10
-76.59
-75.95
-75.93
-78.05
-82.59
-88.33
-93.02
-94.49
-91.79
-85.57
-77.71
-70.19
-64.07
-59.07
-53.86
-47.21
-39.00
-30.51
-23.88
-20.96
-22.11
-25.94
-29.90
-31.59
-30.17
-27.02
-25.12
-27.39
-34.84
-45.52
-55.18
-59.33
-55.48
-44.55
-30.51
-18.51
-13.06
-17.10
-32.35
-60.03
-100.85
-153.65
-213.62
-271.68
-316.08
-335.82
-324.62
-283.35
-219.84
-146.06
-74.10
-12.92
33.63
66.38
89.17
106.70
122.68
138.86
154.90
169.16
179.62
184.88
184.62
179.21
169.31
155.56
138.69
120.10
102.37
89.03
83.67
88.33
102.08
120.75
138.17
148.43
148.25
138.24
122.28
105.57
92.23
83.85
79.46
76.75
73.68
69.53
65.09
61.86
61.10
63.19
67.67
73.77
80.72
87.77
93.72
96.18
91.52
75.76
46.53
4.79
-44.28
-92.46
-131.10
-154.41
-161.44
-156.11
-145.10
-134.82
-129.06
-128.14
-130.02
-132.12
-132.78
-131.62
-128.84
-124.37
-117.55
-107.57
-94.39
-79.33
-64.76
-53.21
-46.14
-43.29
-42.80
-42.15
-39.27
-33.34
-24.90
-15.27
-5.80
2.83
10.79
18.88
28.07
39.04
52.06
67.26
84.96
105.92
131.32
162.38
199.65
242.41
288.29
333.29
372.60
401.59
416.99
417.79
405.37
382.86
354.07
322.17
289.06
255.36
220.94
185.70
150.02
114.61
80.05
46.22
12.19
-23.41
-61.80
-103.36
-147.35
-192.17
-235.97
-277.40
-316.07
-352.68
-388.58
-425.42
-464.79
-507.99
-555.49
-606.14
-656.34
-699.91
-729.29
-737.78
-722.12
-683.94
-629.27
-566.26
-502.29
-441.76
-385.72
-333.06
-282.29
-232.80
-185.01
-139.71
-97.19
-56.90
-17.69
21.70
62.28
104.62
148.96
195.08
242.15
288.39
331.20
367.58
394.88
411.60
417.81
415.03
405.65
392.19
376.60
359.87
341.99
322.30
300.03
275.04
248.34
222.31
200.19
184.88
177.63
177.05
179.38
179.74
174.14
161.00
141.57
119.02
96.52
75.75
56.43
37.13
16.77
-4.27
-23.96
-39.64
-49.46
-53.37
-53.13
-51.33
-50.09
-50.18
-50.91
-50.91
-49.31
-46.53
-44.29
-44.75
-49.30
-57.56
-67.16
-74.79
-77.75
-75.38
-69.46
-63.39
-60.61
-63.05
-70.43
-80.62
-90.85
-98.73
-102.98
-103.42
-100.66
-95.82
-90.29
-85.87
-84.66
-88.57
-98.40
-112.64
-126.99
-134.96
-129.92
-108.00
-70.58
-24.65
19.33
51.53
66.63
65.89
56.06
45.75
41.40
44.83
53.46
62.79
69.23
71.80
71.90
71.62
71.93
71.99
69.76
63.60
53.50
41.47
30.58
23.27
20.05
19.17
17.69
13.30
5.67
-3.26
-10.25
-12.62
-9.76
-3.43
3.14
7.04
7.04
4.05
0.40
-1.71
-1.42
0.51
2.31
2.51
0.76
-1.97
-4.07
-4.45
-3.20
-1.58
-1.23
-3.05
-6.69
-10.57
-12.75
-12.10
-8.91
-4.76
-1.67
-0.96
-2.55
-5.06
-6.61
-6.00
-3.43
-0.39
1.20
0.20
-3.12
-7.12
-9.74
-9.82
-7.76
-5.44
-4.98
-7.49
-12.23
-16.96
-19.13
-17.40
-12.32
-6.12
-1.31
0.69
0.26
-0.68
0.07
3.59
9.20
14.90
18.54
19.13
17.37
15.24
14.79
16.83
20.50
23.68
24.35
21.76
16.90
12.06
9.48
10.04
12.81
15.56
16.13
13.67
9.04
4.34
1.64
1.67
3.49
5.03
4.44
1.15
-3.71
-7.99
-9.83
-8.83
-6.33
-4.66
-5.67
-9.62
-14.91
-18.85
-19.20
-15.45
-9.08
-2.78
1.12
1.86
0.54
-0.53
0.68
4.68
10.22
14.98
17.00
15.88
12.89
10.37
10.21
12.72
16.51
19.21
19.06
15.86
11.21
7.68
7.19
9.98
14.39
17.79
18.18
15.23
10.40
6.13
4.29
5.08
7.08
7.98
6.08
1.19
-5.27
-11.10
-14.55
-15.28
-14.36
-13.54
-14.03
-15.72
-17.26
-16.82
-13.27
-6.97
0.30
6.20
9.16
9.15
7.73
7.16
9.03
13.31
18.35
21.79
21.95
18.77
13.90
9.80
8.26
9.50
12.08
13.85
13.36
10.67
7.36
5.54
6.51
9.87
13.81
15.97
14.98
11.09
6.07
2.23
0.98
2.10
3.90
4.25
1.86
-2.99
-8.55
-12.65
-13.94
-12.64
-10.39
-9.22
-10.35
-13.51
-17.10
-19.17
-18.68
-16.07
-13.03
-11.39
-11.95
-13.97
-15.46
-14.34
-9.75
-2.59
4.89
10.29
12.44
11.94
10.76
11.09
13.96
18.62
23.03
25.07
23.83
20.08
15.94
13.61
14.06
16.57
19.14
19.75
17.55
13.38
9.30
7.39
8.45
11.57
14.60
15.42
13.20
8.87
4.65
2.71
3.92
7.30
10.64
11.82
10.02
6.15
2.28
0.35
0.94
2.96
4.33
3.25
-0.67
-6.22
-11.19
-13.71
-13.37
-11.46
-10.20
-11.36
-15.25
-20.37
-24.25
-24.72
-21.23
-15.06
-8.70
-4.35
-2.84
-3.23
-3.41
-1.46
3.22
9.53
15.36
18.82
19.37
18.06
16.87
17.51
20.27
23.88
26.21
25.59
21.84
16.50
11.97
10.20
11.49
14.41
16.64
16.42
13.60
9.74
7.21
7.67
11.05
15.55
18.67
18.70
15.71
11.47
8.46
8.31
10.85
14.19
15.83
14.17
9.39
3.34
-1.41
-3.13
-1.82
0.84
2.43
1.29
-2.65
-7.83
-12.02
-13.64
-12.70
-10.65
-9.44
-10.18
-12.48
-14.64
-14.61
-11.40
-5.70
0.41
4.61
5.66
4.03
1.60
0.61
2.24
6.05
10.18
12.53
11.96
8.95
5.30
3.10
3.41
5.67
8.02
8.44
5.97
1.30
-3.57
-6.50
-6.42
-3.96
-1.06
0.17
-1.30
-4.95
-8.94
-11.20
-10.69
-7.89
-4.59
-2.75
-3.42
-6.12
-9.03
-10.15
-8.45
-4.57
-0.47
1.69
0.87
-2.26
-5.70
-7.23
-5.85
-2.34
1.12
2.29
0.04
-4.88
-10.38
-14.12
-14.80
-12.82
-9.90
-7.97
-8.01
-9.53
-10.84
-10.15
-6.75
-1.46
3.70
6.78
7.00
5.20
3.38
3.50
6.20
10.46
14.19
15.49
13.86
10.49
7.61
7.21
9.81
14.22
18.16
19.61
17.95
14.22
10.54
8.83
9.67
12.02
13.83
13.36
10.15
5.29
0.84
-1.45
-1.14
0.63
1.84
0.83
-2.71
-7.53
-11.46
-12.71
-10.91
-7.36
-4.28
-3.47
-5.36
-8.71
-11.42
-11.77
-9.59
-6.37
-4.40
-5.31
-9.09
-13.96
-17.38
-17.44
-13.98
-8.57
-3.61
-0.86
-0.54
-1.44
-1.60
0.33
4.29
8.80
11.85
12.20
10.07
7.12
5.39
6.21
9.41
13.34
15.77
15.24
11.97
7.81
5.22
5.59
8.60
12.36
14.39
13.09
8.70
3.26
-0.44
-0.51
2.26
5.55
6.79
4.61
-0.55
-6.56
-10.61
-10.68
-6.64
-1.78
0.46
-1.69
-7.67
-15.12
-20.99
-22.91
-19.96
-12.98
-6.17
-2.69
-3.76
-9.62
-21.50
-42.42
-75.76
-122.84
-180.61
-243.76
-302.34
-345.04
-364.00
-358.43
-334.46
-301.32
-267.10
-216.53
-145.49
-62.02
18.62
84.15
129.60
155.78
167.24
170.53
172.33
175.37
182.03
194.30
213.30
238.19
265.64
290.67
308.07
308.16
286.27
246.75
200.45
159.03
129.40
111.71
101.51
93.51
84.70
73.59
61.29
48.84
35.73
19.72
-1.79
-29.93
-63.55
-94.82
-119.29
-134.88
-141.79
-142.27
-139.72
-137.32
-136.97
-139.17
-143.49
-149.51
-155.68
-159.15
-155.92
-142.07
-115.68
-78.53
-36.14
4.04
35.26
54.52
63.03
64.69
63.52
61.84
59.81
56.62
51.95
46.46
41.93
39.94
40.87
43.70
46.56
47.50
45.58
41.09
35.24
29.86
26.53
25.92
27.60
30.16
31.91
31.52
28.71
24.15
19.31
15.64
13.93
14.09
15.47
17.40
19.60
21.77
23.00
21.41
14.59
0.81
-19.32
-42.57
-63.96
-78.71
-84.42
-82.14
-74.74
-65.60
-56.74
-48.13
-38.49
-26.83
-13.63
-0.90
8.98
14.61
16.39
16.20
16.47
18.73
22.77
26.96
29.19
28.19
24.35
19.49
15.92
15.31
17.65
21.46
24.67
25.73
24.54
22.25
20.41
20.01
20.82
21.56
21.02
18.97
16.43
15.18
16.64
20.94
26.59
31.23
32.65
30.14
25.11
20.47
19.56
24.97
37.24
54.33
72.10
85.48
90.91
87.96
79.44
70.21
64.88
65.87
72.85
84.34
97.50
110.37
122.68
135.12
147.78
159.11
166.36
166.86
159.61
145.49
127.60
109.93
95.75
86.47
81.31
77.61
71.84
63.21
50.90
35.03
16.14
-5.38
-30.06
-59.30
-94.92
-138.48
-190.96
-253.20
-325.04
-404.72
-488.08
-567.99
-635.23
-680.74
-698.63
-688.39
-655.44
-608.57
-556.65
-505.72
-458.03
-413.08
-369.63
-327.38
-287.01
-249.55
-215.09
-182.25
-148.84
-113.06
-74.35
-33.65
6.97
45.41
80.29
111.57
140.40
168.52
197.72
229.32
263.91
301.17
339.61
376.45
407.98
430.32
440.62
437.92
423.44
400.14
371.53
340.77
310.07
280.86
254.23
230.96
211.38
195.10
180.86
167.05
152.49
137.01
121.50
107.23
95.05
84.82
75.56
66.14
56.04
45.74
36.44
29.18
24.14
20.43
16.50
11.17
4.29
-3.11
-9.38
-13.31
-14.90
-15.35
-16.36
-19.05
-23.30
-27.71
-30.46
-30.44
-28.04
-25.07
-23.82
-25.79
-30.85
-37.29
-42.77
-45.64
-45.90
-45.14
-45.63
-48.95
-55.15
-62.76
-69.65
-74.38
-77.00
-78.95
-82.18
-87.85
-95.65
-103.99
-110.89
-115.35
-117.98
-120.75
-126.02
-135.04
-147.34
-160.85
-173.07
-182.60
-189.95
-197.34
-207.53
-222.15
-240.65
-260.45
-277.81
-289.41
-293.27
-289.08
-277.69
-260.25
-237.76
-210.93
-180.40
-146.95
-111.50
-74.94
-37.97
-1.04
35.53
71.46
106.62
141.01
175.05
209.46
245.19
283.29
324.73
369.96
418.17
466.67
510.90
545.41
565.73
570.31
561.36
543.99
523.80
504.24
485.14
463.24
434.25
395.54
347.50
293.39
237.54
183.48
132.73
84.80
38.09
-8.95
-57.21
-106.62
-156.28
-204.50
-248.84
-286.27
-313.63
-328.50
-330.03
-319.18
-298.60
-271.84
-242.41
-213.09
-185.62
-160.67
-138.09
-117.22
-97.32
-77.97
-59.35
-42.16
-27.25
-15.11
-5.64
1.84
8.04
13.12
16.60
17.61
15.57
10.82
4.69
-1.03
-4.85
-6.41
-6.51
-6.65
-8.01
-10.73
-13.80
-15.63
-15.09
-12.34
-8.84
-6.73
-7.49
-11.15
-16.18
-20.27
-21.65
-20.11
-17.16
-15.16
-15.93
-19.65
-24.78
-28.80
-29.72
-27.18
-22.68
-18.76
-17.45
-19.18
-22.53
-24.90
-23.88
-18.41
-9.01
2.61
14.76
26.39
37.37
47.98
58.08
66.56
71.61
71.46
65.49
54.80
41.94
30.02
21.35
16.56
14.58
13.45
11.58
8.61
5.52
3.94
4.92
8.21
12.29
15.07
15.27
12.99
9.64
7.16
6.73
8.15
10.00
10.50
8.71
5.04
1.10
-1.29
-1.19
0.85
3.08
3.56
1.34
-2.96
-7.47
-10.13
-9.94
-7.57
-4.98
-4.30
-6.47
-10.64
-14.57
-15.89
-13.56
-8.56
-3.36
-0.52
-1.01
-3.60
-5.35
-3.15
4.40
16.10
28.64
38.25
42.81
43.12
42.68
46.12
56.94
75.85
100.55
126.86
150.51
168.39
178.72
180.34
172.19
153.72
126.07
92.96
60.06
32.80
13.65
0.48
-12.79
-33.18
-65.13
-108.34
-158.17
-208.09
-252.48
-287.93
-312.93
-326.25
-326.13
-310.50
-278.41
-231.38
-173.65
-111.26
-50.31
4.62
51.19
89.03
119.04
142.67
161.59
177.19
189.92
198.87
201.89
196.82
183.17
163.16
141.48
123.40
112.34
108.37
108.44
108.44
105.67
100.26
94.81
92.61
95.63
103.61
114.38
125.35
134.78
142.22
148.26
153.60
158.19
161.08
160.86
156.60
148.59
138.57
129.24
123.18
121.77
124.77
130.49
136.75
141.75
144.53
144.85
142.70
137.81
129.45
116.64
98.65
75.55
48.61
20.57
-4.79
-23.28
-31.32
-26.77
-9.46
18.71
54.09
91.81
126.68
153.99
170.52
175.18
169.31
156.08
139.54
123.22
109.37
98.61
90.42
83.86
78.00
72.09
65.51
57.78
48.87
39.46
31.02
25.38
23.88
26.63
32.21
38.04
41.41
40.50
34.95
25.63
13.94
0.99
-12.72
-27.15
-42.21
-57.37
-71.64
-84.18
-94.84
-104.46
-114.65
-127.17
-143.05
-162.11
-183.08
-204.20
-224.26
-243.19
-262.30
-283.70
-309.26
-339.74
-374.45
-411.64
-449.08
-484.80
-517.40
-546.20
-571.45
-594.66
-618.78
-647.64
-684.19
-728.19
-774.76
-814.92
-838.50
-838.07
-812.01
-764.99
-705.71
-643.04
-583.03
-527.86
-477.10
-429.74
-385.75
-346.11
-311.82
-282.73
-257.16
-232.71
-207.47
-180.95
-154.16
-129.17
-107.91
-91.21
-78.59
-68.42
-58.81
-48.35
-36.69
-24.55
-13.24
-3.97
2.67
6.96
9.83
12.42
15.61
19.67
24.30
28.78
32.44
34.87
36.10
36.52
36.71
37.18
38.24
39.93
42.08
44.45
46.85
49.21
51.65
54.39
57.75
62.07
67.59
74.51
82.87
92.65
103.81
116.24
129.88
144.61
160.39
177.32
195.75
216.36
239.63
265.23
291.54
315.96
335.73
349.24
356.58
359.38
359.70
358.91
357.31
354.53
350.56
346.09
342.12
338.99
335.65
329.94
319.85
304.78
286.11
266.31
247.44
230.06
213.21
195.37
175.67
154.59
133.63
114.30
97.12
81.39
65.81
49.50
32.77
17.17
4.88
-2.38
-4.26
-1.90
2.47
6.59
9.12
9.98
10.25
11.28
13.80
17.60
21.64
24.86
26.96
28.59
31.03
35.31
41.40
48.04
53.35
55.87
55.44
53.31
51.48
51.57
53.92
57.39
60.07
60.36
57.86
53.46
48.81
45.36
43.54
42.69
41.56
39.21
35.61
31.67
28.72
27.64
28.22
29.35
29.43
27.45
23.47
18.62
14.49
12.14
11.56
11.67
10.95
8.44
4.30
-0.18
-3.23
-3.57
-1.17
2.82
6.52
8.48
8.33
7.01
6.21
7.37
10.87
15.79
20.39
23.18
23.68
22.74
22.09
23.45
27.55
34.03
41.75
49.66
57.40
65.48
74.75
85.66
97.76
109.82
120.45
129.00
135.89
142.45
149.98
158.59
166.58
170.72
167.35
154.11
131.04
100.83
67.92
36.76
10.29
-10.73
-27.34
-41.15
-53.19
-63.34
-70.69
-74.56
-75.35
-74.59
-74.34
-75.97
-79.47
-83.44
-85.92
-85.63
-82.79
-79.05
-76.55
-76.64
-79.14
-82.37
-84.16
-83.07
-79.22
-74.23
-70.26
-68.84
-70.10
-72.75
-74.92
-75.18
-73.30
-70.16
-67.08
-64.91
-63.42
-61.50
-57.81
-51.72
-43.82
-35.77
-29.39
-25.74
-24.57
-24.50
-23.77
-21.32
-17.23
-12.66
-9.03
-7.18
-6.90
-7.06
-6.33
-4.01
-0.47
3.05
5.20
5.31
3.82
2.08
1.58
2.99
5.74
8.28
8.96
7.07
3.25
-0.76
-3.12
-3.01
-1.06
0.97
1.24
-1.12
-5.50
-10.21
-13.41
-14.23
-13.14
-11.64
-11.28
-12.81
-15.80
-19.00
-21.20
-22.03
-22.18
-22.93
-25.21
-28.93
-32.82
-35.02
-34.03
-29.62
-22.91
-15.88
-10.38
-7.14
-5.63
-4.37
-1.90
2.31
7.54
12.20
14.74
14.51
12.18
9.31
7.54
7.61
9.11
10.70
11.08
9.81
7.55
5.74
5.70
7.76
11.01
13.74
14.45
12.69
9.34
6.15
4.74
5.64
7.99
10.06
10.29
8.16
4.53
1.11
-0.55
-0.02
1.84
3.27
2.79
-0.04
-4.31
-8.34
-10.67
-10.99
-10.30
-10.37
-12.66
-17.36
-23.33
-28.49
-31.06
-30.43
-27.45
-23.92
-21.45
-20.64
-20.80
-20.42
-18.15
-13.68
-7.97
-2.71
0.63
1.62
1.10
0.63
1.50
3.96
7.01
9.07
8.95
6.63
3.39
1.12
1.28
4.05
8.26
11.97
13.62
12.78
10.40
8.19
7.64
9.11
11.69
13.71
13.81
11.71
8.37
5.48
4.37
5.27
7.13
8.20
7.16
3.80
-0.79
-4.86
-7.06
-7.16
-6.15
-5.68
-6.98
-10.23
-14.48
-18.25
-20.50
-21.17
-21.16
-21.72
-23.41
-25.71
-27.13
-26.06
-21.78
-14.98
-7.51
-1.49
1.82
2.59
2.22
2.48
4.40
7.69
10.98
12.60
11.73
8.84
5.59
3.89
4.80
7.99
11.87
14.45
14.49
12.10
8.62
5.87
5.04
6.09
7.81
8.61
7.49
4.65
1.35
-0.80
-0.90
0.68
2.50
2.85
0.80
-3.27
-7.86
-11.17
-12.24
-11.43
-10.24
-10.47
-13.16
-18.06
-23.77
-28.55
-31.33
-32.33
-32.87
-34.60
-38.55
-44.45
-50.89
-55.98
-58.39
-58.05
-56.10
-54.27
-53.86
-55.19
-57.50
-59.61
-60.75
-61.04
-61.29
-62.41
-64.51
-66.72
-67.53
-65.56
-60.52
-53.38
-45.94
-39.86
-35.72
-32.74
-29.15
-23.08
-13.63
-1.13
13.14
27.79
42.08
56.16
70.56
85.41
99.87
112.13
120.22
123.00
120.95
115.90
110.27
105.77
102.42
98.50
91.34
78.74
60.11
36.84
11.84
-11.50
-30.48
-43.49
-50.17
-51.34
-48.97
-46.03
-46.00
-51.84
-64.94
-84.46
-107.62
-130.82
-150.97
-166.21
-175.85
-179.67
-177.42
-168.90
-154.60
-136.26
-116.59
-98.41
-83.40
-71.33
-60.27
-47.61
-31.44
-11.44
10.85
32.56
50.78
63.72
71.20
74.58
75.85
76.76
78.14
80.00
81.94
83.75
85.48
87.27
89.04
90.41
90.89
90.35
89.14
87.94
87.32
87.40
87.77
87.87
87.38
86.52
85.87
86.09
87.37
89.47
91.86
94.06
96.10
98.53
102.22
107.92
115.80
125.43
135.91
146.46
156.85
167.65
179.93
194.50
211.10
228.05
242.66
252.43
256.07
254.16
248.71
242.17
236.11
230.75
225.07
217.68
207.50
193.83
176.34
154.92
129.80
102.13
74.13
48.82
28.87
15.34
6.30
-2.24
-14.66
-33.64
-59.01
-87.78
-115.67
-138.99
-156.05
-169.10
-182.65
-202.09
-231.42
-271.08
-317.05
-360.97
-392.01
-399.43
-378.57
-331.65
-268.05
-201.89
-147.57
-116.22
-112.50
-133.81
-171.45
-217.04
-263.76
-308.19
-349.70
-387.81
-421.59
-448.45
-464.89
-455.32
-410.69
-330.38
-224.61
-110.86
-4.68
84.67
155.53
207.97
246.38
268.78
269.99
245.48
194.02
120.06
28.97
-70.12
-166.34
-247.00
-302.17
-325.83
-317.92
-293.37
-260.29
-224.26
-188.52
-154.44
-121.63
-89.23
-58.46
-31.02
-7.80
13.33
34.68
58.67
86.65
118.67
152.43
184.68
212.77
235.81
256.05
276.38
299.75
327.90
360.60
394.98
426.72
452.18
469.88
481.35
488.44
491.50
488.24
474.50
446.52
403.69
349.96
292.72
239.94
196.33
161.83
132.62
103.61
70.74
31.85
-13.82
-66.56
-125.57
-187.85
-247.29
-295.50
-324.86
-332.26
-320.88
-298.80
-274.81
-254.10
-236.47
-217.89
-194.32
-164.97
-133.02
-103.59
-80.60
-64.83
-54.25
-45.98
-38.37
-31.73
-27.59
-27.48
-31.68
-39.11
-47.71
-55.28
-60.38
-62.41
-61.36
-57.44
-50.70
-41.09
-28.89
-15.15
-1.86
8.62
14.51
15.37
12.37
7.71
3.53
0.99
0.05
-0.07
-0.04
0.20
1.39
4.40
9.38
15.56
21.50
25.86
28.17
29.00
29.54
30.81
32.86
34.68
34.82
32.25
27.24
21.33
16.71
15.13
16.89
20.69
24.22
25.33
23.14
18.36
12.87
8.66
6.83
7.10
8.17
8.52
7.30
4.75
1.91
-0.03
-0.54
-0.06
0.28
-0.60
-3.02
-6.24
-8.76
-9.11
-6.64
-1.95
3.41
7.80
10.28
11.08
11.39
12.58
15.23
18.92
22.43
24.57
25.05
24.52
23.99
23.81
23.10
20.20
13.78
3.98
-7.36
-17.65
-24.87
-28.76
-30.89
-33.73
-39.27
-48.05
-59.07
-70.41
-80.13
-86.94
-90.49
-91.20
-90.06
-88.20
-86.53
-85.61
-85.41
-85.60
-86.03
-86.97
-89.11
-93.15
-99.25
-106.71
-114.05
-119.41
-121.25
-118.75
-111.80
-100.43
-84.37
-63.02
-35.90
-3.59
31.70
66.36
96.59
119.92
136.14
147.03
155.16
162.18
167.90
170.54
167.88
158.82
144.12
126.22
108.08
91.82
77.93
65.42
52.56
38.15
22.36
6.68
-6.72
-16.12
-21.14
-22.79
-22.91
-23.02
-23.57
-23.87
-22.68
-19.27
-14.08
-8.74
-5.23
-4.89
-7.66
-12.09
-16.04
-17.87
-17.26
-15.40
-14.24
-15.33
-18.88
-23.56
-27.14
-27.70
-24.68
-19.11
-13.05
-8.36
-5.72
-4.41
-2.86
0.25
5.07
10.53
14.88
16.83
16.26
14.32
12.74
12.84
14.74
17.38
19.11
18.81
16.57
13.65
11.83
12.30
15.00
18.59
21.21
21.59
19.66
16.59
14.12
13.45
14.60
16.36
17.03
15.42
11.57
6.73
2.73
0.86
1.18
2.50
3.00
1.38
-2.51
-7.54
-12.01
-14.65
-15.36
-15.13
-15.42
-17.11
-19.95
-22.61
-23.39
-21.31
-16.60
-10.73
-5.62
-2.54
-1.57
-1.59
-1.00
1.27
5.09
9.28
12.18
12.71
11.05
8.41
6.51
6.49
8.28
10.76
12.30
11.84
9.36
5.93
3.04
1.75
2.09
3.04
3.14
1.42
-2.10
-6.36
-9.80
-11.34
-11.01
-9.91
-9.66
-11.37
-15.04
-19.47
-23.06
-24.71
-24.54
-23.87
-24.43
-27.30
-32.12
-37.16
-40.16
-39.51
-35.16
-28.64
-22.28
-17.95
-16.18
-15.95
-15.44
-13.18
-8.98
-4.00
-0.08
1.47
0.69
-0.98
-1.50
0.59
5.23
10.90
15.41
17.22
16.20
13.80
12.13
12.71
15.64
19.60
22.66
23.51
22.24
20.25
19.36
20.67
23.88
27.36
29.18
28.26
24.94
20.84
17.88
17.10
18.13
19.35
18.92
15.85
10.53
4.56
-0.19
-2.63
-2.91
-2.29
-2.22
-3.41
-5.39
-6.77
-6.03
-2.58
2.90
8.62
12.70
14.14
13.27
11.58
10.79
11.75
14.09
16.37
17.03
15.38
12.00
8.46
6.46
6.71
8.66
10.71
11.24
9.53
6.21
2.84
1.07
1.57
3.73
5.94
6.60
4.98
1.61
-2.02
-4.34
-4.70
-3.62
-2.52
-2.81
-5.07
-8.70
-12.28
-14.42
-14.62
-13.48
-12.35
-12.36
-13.72
-15.44
-15.88
-13.68
-8.71
-2.11
4.14
8.34
9.93
9.67
9.18
9.94
12.42
15.87
18.77
19.79
18.48
15.61
12.66
11.05
11.26
12.69
13.93
13.72
11.63
8.34
5.26
3.70
4.06
5.60
6.83
6.40
3.89
0.01
-3.68
-5.78
-5.82
-4.48
-3.27
-3.54
-5.78
-9.40
-13.01
-15.28
-15.69
-14.67
-13.30
-12.52
-12.60
-12.92
-12.40
-10.14
-6.09
-1.13
3.29
5.97
6.55
5.66
4.58
4.48
5.70
7.62
9.04
8.92
7.10
4.34
1.99
1.17
2.04
3.81
5.15
5.04
3.41
1.14
-0.38
-0.16
1.72
4.19
5.64
4.99
2.31
-1.18
-3.69
-3.94
-1.91
1.13
3.32
3.30
1.00
-2.31
-4.69
-4.61
-1.80
2.72
7.27
10.57
12.44
13.89
16.43
21.06
27.58
34.66
40.46
43.68
44.17
42.80
40.91
39.46
38.47
37.20
34.63
30.08
23.52
15.54
7.06
-0.98
-7.82
-12.87
-15.73
-16.16
-14.06
-9.58
-3.01
5.13
13.86
21.79
27.23
28.75
25.69
18.60
9.04
-1.11
-10.49
-18.77
-26.38
-33.97
-41.53
-48.31
-53.01
-54.73
-53.54
-50.55
-47.32
-44.97
-43.58
-42.24
-39.68
-35.17
-29.10
-22.82
-17.98
-15.55
-15.25
-15.71
-15.21
-12.69
-8.45
-3.98
-1.29
-1.64
-4.95
-9.76
-13.96
-16.00
-15.62
-13.97
-12.96
-14.19
-18.27
-24.58
-31.66
-37.88
-41.96
-43.17
-41.17
-35.81
-27.11
-15.39
-1.42
13.40
27.28
38.43
45.49
47.99
46.40
42.09
36.90
32.63
30.58
31.24
34.27
38.81
43.83
48.53
52.40
54.94
55.40
52.60
45.38
33.46
18.30
3.14
-7.80
-11.09
-5.67
6.58
21.72
35.67
46.09
53.09
58.58
64.43
71.02
76.90
79.65
77.49
70.37
60.02
48.82
38.42
28.98
19.30
7.95
-5.50
-19.90
-32.90
-42.02
-46.02
-45.51
-42.69
-40.23
-39.92
-41.91
-44.90
-46.92
-46.61
-43.95
-40.20
-37.12
-35.96
-36.79
-38.52
-39.58
-38.87
-36.41
-33.23
-30.82
-30.20
-31.33
-33.21
-34.39
-33.89
-31.67
-28.59
-25.83
-24.11
-23.27
-22.36
-20.19
-16.22
-10.88
-5.49
-1.56
0.07
-0.35
-1.61
-2.23
-1.33
0.90
3.29
4.47
3.74
1.45
-1.12
-2.54
-2.13
-0.40
1.24
1.35
-0.73
-4.43
-8.27
-10.73
-11.18
-10.23
-9.44
-10.43
-13.91
-19.25
-24.76
-28.53
-29.52
-28.11
-25.87
-24.82
-26.42
-30.94
-37.42
-44.04
-48.89
-50.39
-47.62
-40.32
-28.80
-13.92
3.12
20.98
38.32
54.09
67.64
78.82
88.05
96.17
104.18
112.73
121.50
128.82
131.95
128.00
115.31
94.48
68.53
41.86
18.52
0.84
-11.19
-19.19
-25.03
-29.76
-33.19
-34.50
-33.23
-30.02
-26.48
-24.38
-24.63
-26.78
-29.24
-30.25
-28.92
-25.71
-22.16
-19.96
-19.94
-21.67
-23.68
-24.38
-22.97
-19.91
-16.60
-14.60
-14.66
-16.40
-18.47
-19.32
-18.17
-15.32
-12.05
-9.79
-9.38
-10.57
-12.24
-13.07
-12.38
-10.50
-8.59
-7.88
-8.84
-10.89
-12.64
-12.69
-10.51
-6.71
-2.79
-0.18
0.50
-0.20
-0.92
-0.31
2.08
5.62
8.83
10.31
9.49
6.98
4.24
2.73
3.12
4.92
6.80
7.43
6.27
3.89
1.59
0.61
1.34
3.09
4.45
4.20
1.99
-1.40
-4.51
-6.07
-5.67
-4.05
-2.58
-2.48
-4.07
-6.61
-8.75
-9.28
-7.97
-5.64
-3.76
-3.57
-5.42
-8.54
-11.49
-12.90
-12.24
-10.02
-7.43
-5.60
-4.95
-5.01
-4.68
-2.96
0.35
4.51
8.15
10.02
9.73
7.98
6.24
5.91
7.47
10.22
12.62
13.22
11.49
8.15
4.80
2.96
3.28
5.13
7.01
7.50
6.04
3.24
0.55
-0.64
0.17
2.35
4.48
5.27
4.23
1.96
-0.20
-1.02
-0.10
1.87
3.51
3.65
1.97
-0.77
-3.17
-4.07
-3.28
-1.76
-1.05
-2.32
-5.62
-9.76
-12.82
-13.24
-10.67
-6.11
-1.42
1.71
2.62
1.96
1.19
1.71
3.94
7.15
9.88
10.89
9.91
7.79
6.03
5.86
7.50
10.01
11.86
11.85
9.81
6.75
4.28
3.65
5.04
7.47
9.33
9.36
7.36
4.26
1.56
0.44
1.06
2.47
3.12
1.83
-1.50
-5.88
-9.63
-11.41
-10.91
-9.01
-7.37
-7.43
-9.71
-13.52
-17.28
-19.46
-19.26
-17.06
-14.13
-11.83
-10.89
-11.05
-11.23
-10.35
-8.09
-5.12
-2.78
-2.24
-3.73
-6.38
-8.67
-9.37
-8.32
-6.56
-5.69
-6.92
-10.23
-14.40
-17.58
-18.38
-16.72
-13.98
-12.37
-13.61
-17.87
-23.36
-26.96
-25.77
-18.63
-6.87
6.29
17.25
23.83
26.13
26.19
26.69
29.39
34.40
40.43
45.96
50.32
53.88
57.56
61.66
65.16
65.86
61.40
50.61
34.37
15.49
-2.28
-15.91
-24.26
-28.34
-30.52
-33.10
-37.11
-41.86
-45.63
-46.76
-44.84
-40.99
-37.35
-35.88
-37.29
-40.79
-44.47
-46.58
-46.47
-44.94
-43.66
-44.11
-46.75
-50.83
-54.98
-58.19
-60.36
-62.05
-63.62
-64.35
-62.37
-55.45
-42.30
-23.48
-1.43
20.59
39.85
55.32
67.66
78.40
88.87
99.32
108.86
116.07
119.75
119.64
116.45
111.52
106.15
100.76
94.66
86.30
74.15
57.77
38.35
18.54
1.33
-11.22
-18.94
-23.45
-27.13
-31.73
-37.46
-42.95
-46.24
-46.08
-42.76
-38.05
-34.37
-33.41
-35.36
-38.85
-41.72
-42.24
-40.01
-36.15
-32.69
-31.46
-33.26
-37.50
-42.52
-46.58
-48.64
-48.78
-48.04
-47.70
-48.68
-51.07
-54.36
-57.96
-61.78
-66.34
-72.23
-78.92
-84.28
-85.01
-78.37
-64.18
-45.72
-28.67
-18.25
-16.23
-19.57
-21.64
-15.48
2.84
32.56
69.16
106.91
141.52
171.50
197.55
221.18
243.04
262.36
277.28
285.86
287.18
281.90
272.23
260.87
249.74
238.93
226.64
210.06
187.17
158.00
124.87
91.22
59.80
31.16
3.36
-26.94
-62.78
-105.44
-153.74
-204.10
-251.17
-288.83
-311.35
-314.86
-298.72
-266.31
-224.46
-181.54
-144.56
-116.66
-96.03
-77.06
-52.99
-18.75
27.13
82.35
141.79
198.81
246.30
277.69
288.53
278.31
251.68
217.82
187.78
170.44
169.40
182.26
202.61
223.45
239.79
249.35
251.31
244.81
228.46
201.28
164.22
120.67
75.64
33.78
-2.51
-33.74
-62.54
-92.27
-125.39
-162.42
-201.84
-240.69
-275.68
-304.33
-325.59
-339.98
-349.07
-354.68
-358.16
-359.93
-359.47
-355.59
-346.90
-332.17
-310.65
-282.25
-247.52
-207.74
-164.85
-121.13
-78.70
-38.86
-1.61
34.19
70.13
107.19
144.70
180.27
210.48
232.33
244.47
247.64
244.10
236.53
227.08
217.00
206.86
196.78
186.42
174.61
159.28
137.62
107.05
66.37
16.63
-38.55
-93.54
-141.91
-177.88
-197.53
-199.78
-186.49
-161.98
-131.75
-100.95
-73.04
-49.19
-28.64
-9.85
8.31
25.61
40.37
50.00
51.83
43.90
25.48
-2.93
-39.59
-81.81
-126.16
-168.73
-205.69
-233.68
-250.42
-255.15
-248.58
-232.47
-208.77
-178.96
-143.94
-104.69
-63.13
-22.77
11.86
36.66
49.69
52.08
47.52
40.72
35.41
33.10
33.13
33.80
33.87
33.69
35.42
42.47
58.06
83.89
118.92
158.98
197.34
226.30
238.85
230.28
199.41
149.00
85.32
16.73
-48.31
-103.27
-144.64
-171.87
-186.25
-189.82
-184.58
-172.73
-156.96
-140.42
-125.94
-114.81
-106.19
-97.82
-87.44
-74.33
-59.73
-46.01
-35.14
-27.60
-22.47
-18.29
-13.97
-9.23
-4.46
-0.07
3.86
7.69
11.83
16.31
20.72
24.33
26.55
27.35
27.37
27.67
29.11
31.67
34.34
35.51
33.84
29.17
22.76
16.89
13.62
13.69
16.06
18.41
18.50
15.50
10.41
5.58
3.27
4.43
8.20
12.48
15.21
15.51
14.04
12.58
12.83
15.32
19.13
22.38
23.40
21.71
18.30
15.10
13.84
14.97
17.46
19.37
19.07
16.15
11.73
7.80
6.09
7.05
9.63
11.89
12.15
9.93
6.15
2.54
0.70
1.10
2.95
4.66
4.86
3.16
0.36
-2.06
-2.87
-1.85
0.01
1.16
0.40
-2.36
-6.04
-8.94
-9.71
-8.16
-5.30
-2.85
-2.29
-4.06
-7.40
-10.71
-12.46
-11.99
-9.75
-7.03
-5.13
-4.57
-4.83
-4.70
-3.01
0.54
5.14
9.23
11.44
11.34
9.71
8.14
8.02
9.76
12.51
14.66
14.84
12.72
9.26
6.18
5.01
6.15
8.74
11.13
11.91
10.67
8.22
6.04
5.42
6.56
8.55
9.83
9.19
6.50
2.86
0.03
-0.55
1.36
4.62
7.28
7.67
5.38
1.40
-2.28
-3.90
-2.90
-0.22
2.21
2.61
0.39
-3.54
-7.30
-9.19
-8.63
-6.52
-4.57
-4.23
-5.71
-7.86
-8.76
-6.93
-2.31
3.64
8.61
10.81
9.87
7.02
4.39
3.76
5.53
8.64
11.13
11.44
9.26
5.70
2.67
1.72
3.13
5.82
7.94
8.10
6.12
3.16
1.08
1.23
3.68
7.11
9.53
9.43
6.59
2.27
-1.59
-3.42
-2.95
-1.23
-0.09
-0.89
-3.85
-7.88
-11.18
-12.36
-11.19
-8.69
-6.52
-6.02
-7.45
-9.97
-12.13
-12.85
-11.95
-10.23
-8.96
-8.94
-10.10
-11.43
-11.63
-9.91
-6.56
-2.86
-0.40
-0.12
-1.74
-3.82
-4.51
-2.66
1.49
6.38
9.91
10.76
9.03
6.17
4.21
4.40
6.58
9.28
10.65
9.62
6.51
2.87
0.55
0.60
2.72
5.42
6.91
6.25
3.81
1.12
-0.03
1.34
4.81
8.77
11.28
11.25
8.95
5.92
4.03
4.46
6.95
10.05
11.91
11.41
8.69
5.03
2.14
1.05
1.62
2.64
2.57
0.57
-3.03
-6.80
-8.97
-8.44
-5.41
-1.26
2.21
3.73
3.27
1.90
1.23
2.25
4.83
7.71
9.27
8.54
5.80
2.50
0.45
0.78
3.25
6.43
8.48
8.30
6.12
3.37
1.84
2.55
5.20
8.27
10.00
9.39
6.81
3.71
1.85
2.10
4.07
6.26
6.97
5.39
2.02
-1.59
-3.68
-3.34
-1.04
1.66
2.98
1.94
-1.17
-4.96
-7.77
-8.66
-7.87
-6.71
-6.65
-8.38
-11.40
-14.16
-14.98
-13.04
-8.88
-4.13
-0.61
0.71
0.22
-0.63
-0.20
2.23
6.07
9.66
11.32
10.34
7.40
4.22
2.64
3.46
6.14
9.03
10.41
9.45
6.68
3.69
2.17
2.92
5.42
8.10
9.26
8.13
5.22
2.11
0.46
1.06
3.39
5.90
6.93
5.71
2.71
-0.57
-2.53
-2.40
-0.68
1.12
1.44
-0.46
-4.03
-7.73
-9.91
-9.84
-8.09
-6.19
-5.75
-7.39
-10.41
-13.04
-13.56
-11.21
-6.66
-1.69
1.90
3.22
2.75
2.00
2.59
5.16
9.09
12.75
14.55
13.81
11.20
8.32
6.81
7.40
9.58
11.90
12.96
12.18
10.15
8.23
7.75
9.16
11.81
14.23
15.07
13.81
11.08
8.28
6.83
7.21
8.81
10.14
9.82
7.34
3.40
-0.46
-2.77
-2.96
-1.70
-0.43
-0.54
-2.49
-5.61
-8.47
-9.79
-9.25
-7.62
-6.37
-6.65
-8.57
-11.13
-12.63
-11.71
-8.17
-3.11
1.62
4.43
4.81
3.57
2.35
2.59
4.71
7.88
10.43
10.98
9.17
5.89
2.87
1.65
2.70
5.19
7.50
8.19
6.86
4.35
2.26
1.96
3.71
6.54
8.76
8.98
6.91
3.50
0.43
-0.91
-0.17
1.70
3.09
2.65
0.10
-3.61
-6.84
-8.20
-7.38
-5.27
-3.54
-3.57
-5.72
-9.17
-12.37
-13.96
-13.57
-11.92
-10.40
-10.10
-11.16
-12.61
-12.97
-11.15
-7.20
-2.37
1.50
3.10
2.25
0.12
-1.49
-1.14
1.39
5.03
8.01
8.93
7.56
4.98
2.93
2.85
4.99
8.32
11.08
11.87
10.35
7.47
4.82
3.71
4.34
5.71
6.17
4.50
0.61
-4.35
-8.58
-10.64
-10.24
-8.34
-6.61
-6.42
-8.09
-10.80
-13.09
-13.78
-12.78
-11.01
-9.95
-10.63
-12.90
-15.51
-16.70
-15.29
-11.37
-6.32
-2.03
0.17
0.36
-0.16
0.45
3.32
8.17
13.36
16.78
17.10
14.44
10.43
7.25
6.52
8.41
11.66
14.31
14.90
13.23
10.43
8.27
8.08
9.87
12.36
13.66
12.41
8.61
3.64
-0.42
-2.03
-0.99
1.46
3.43
3.46
1.42
-1.56
-3.81
-4.16
-2.68
-0.60
0.41
-0.69
-3.74
-7.53
-10.49
-11.66
-11.20
-10.33
-10.52
-12.50
-15.80
-18.86
-19.87
-17.83
-13.18
-7.62
-3.23
-1.29
-1.60
-2.70
-2.71
-0.56
3.40
7.58
10.11
9.99
7.66
4.80
3.29
4.21
7.19
10.71
12.95
12.93
10.91
8.36
6.99
7.81
10.54
13.76
15.71
15.27
12.60
8.98
6.13
5.22
6.21
7.94
8.81
7.76
4.89
1.36
-1.23
-1.88
-0.77
0.81
1.21
-0.58
-4.32
-8.69
-12.00
-13.23
-12.60
-11.39
-11.13
-12.60
-15.35
-17.85
-18.34
-15.91
-11.04
-5.30
-0.63
1.85
2.25
1.83
2.19
4.22
7.60
10.97
12.73
12.05
9.35
6.11
4.04
4.02
5.65
7.50
7.97
6.32
3.11
-0.05
-1.46
-0.26
2.98
6.62
8.86
8.73
6.57
3.79
2.09
2.35
4.19
6.15
6.56
4.55
0.52
-4.06
-7.49
-8.80
-8.30
-7.22
-6.99
-8.28
-10.71
-13.01
-13.94
-13.01
-10.88
-8.95
-8.59
-10.24
-13.14
-15.65
-16.10
-13.74
-9.22
-4.26
-0.75
0.30
-0.74
-2.34
-2.66
-0.74
2.98
6.88
9.07
8.56
5.79
2.39
0.25
0.37
2.40
4.78
5.81
4.63
1.70
-1.46
-3.21
-2.76
-0.64
1.61
2.36
0.92
-2.09
-5.04
-6.14
-4.60
-1.02
2.89
5.20
4.93
2.55
-0.26
-1.57
-0.38
2.86
6.43
8.37
7.60
4.50
0.70
-1.88
-2.19
-0.54
1.57
2.48
1.36
-1.25
-3.70
-4.17
-1.76
2.98
8.32
12.28
13.80
13.22
12.10
12.22
14.52
18.45
22.33
24.29
23.38
20.14
16.30
13.83
13.78
15.74
18.11
19.12
17.90
14.94
11.84
10.31
11.07
13.43
15.56
15.68
13.02
8.31
3.43
0.29
-0.25
1.17
2.83
3.00
0.97
-2.63
-6.15
-8.09
-7.90
-6.32
-4.88
-4.87
-6.59
-9.09
-10.73
-10.14
-7.09
-2.59
1.57
3.91
4.01
2.74
1.68
2.17
4.38
7.28
9.17
8.76
5.95
1.90
-1.62
-3.29
-3.07
-2.26
-2.78
-6.08
-12.31
-20.11
-27.13
-30.97
-30.17
-24.62
-15.53
-4.69
6.15
15.81
23.84
30.09
34.29
35.74
33.53
27.14
17.02
4.72
-7.38
-17.08
-23.33
-26.61
-28.55
-30.79
-33.99
-37.29
-38.73
-36.38
-29.51
-19.16
-7.65
2.53
9.96
14.78
18.34
22.10
26.52
30.82
33.37
32.98
29.69
25.05
21.39
20.57
22.97
27.33
31.38
33.20
32.20
29.43
26.91
26.45
28.61
32.41
35.86
37.20
35.77
32.37
28.72
26.41
25.94
26.58
26.87
25.68
22.97
19.81
17.76
17.85
19.80
22.22
23.20
21.45
16.93
10.88
5.09
0.97
-1.18
-2.20
-3.54
-6.27
-10.51
-15.29
-19.08
-20.65
-19.81
-17.47
-15.26
-14.50
-15.56
-17.62
-19.16
-18.89
-16.57
-13.18
-10.42
-9.66
-11.19
-14.00
-16.33
-16.71
-14.84
-11.76
-9.24
-8.65
-10.21
-12.77
-14.50
-14.03
-11.24
-7.35
-4.29
-3.43
-4.87
-7.38
-9.10
-8.70
-6.16
-2.79
-0.48
-0.57
-3.06
-6.64
-9.41
-9.99
-8.30
-5.62
-3.80
-4.19
-6.87
-10.60
-13.50
-14.16
-12.34
-9.12
-6.19
-4.87
-5.33
-6.64
-7.21
-5.94
-2.78
1.15
4.19
5.17
4.02
1.85
0.32
0.61
2.76
5.62
7.48
7.17
4.70
1.35
-1.02
-1.09
1.15
4.42
6.77
6.82
4.50
1.09
-1.52
-1.92
-0.08
2.68
4.44
3.87
0.98
-2.84
-5.62
-5.96
-3.89
-0.80
1.32
1.12
-1.45
-5.03
-7.72
-8.24
-6.62
-4.18
-2.72
-3.32
-5.73
-8.45
-9.58
-7.98
-3.96
0.91
4.59
5.80
4.62
2.45
1.14
1.89
4.56
7.78
9.72
9.21
6.38
2.60
-0.26
-1.01
0.29
2.36
3.53
2.78
0.35
-2.42
-3.86
-3.10
-0.52
2.35
3.72
2.64
-0.53
-4.26
-6.73
-6.92
-5.12
-2.79
-1.68
-2.76
-5.74
-9.17
-11.30
-11.12
-8.96
-6.30
-4.91
-5.85
-8.82
-12.42
-14.87
-15.12
-13.35
-10.84
-9.13
-9.03
-10.21
-11.36
-10.99
-8.47
-4.38
-0.33
1.99
1.77
-0.48
-3.21
-4.61
-3.78
-1.08
2.04
3.91
3.67
1.71
-0.58
-1.67
-0.80
1.50
3.80
4.60
3.31
0.55
-2.14
-3.24
-2.19
0.33
2.72
3.42
1.86
-1.25
-4.28
-5.61
-4.54
-1.75
1.14
2.42
1.32
-1.63
-4.81
-6.47
-5.78
-3.31
-0.68
0.31
-1.25
-4.86
-8.92
-11.57
-11.83
-9.98
-7.43
-5.82
-5.97
-7.53
-9.14
-9.30
-7.34
-3.77
-0.11
2.05
1.95
0.10
-2.01
-2.73
-1.27
1.85
5.08
6.73
5.97
3.22
-0.01
-2.08
-2.12
-0.57
1.14
1.47
-0.31
-3.66
-7.06
-8.90
-8.44
-6.24
-3.80
-2.74
-3.74
-6.28
-8.81
-9.72
-8.31
-5.22
-2.07
-0.45
-1.11
-3.39
-5.72
-6.47
-4.98
-1.92
1.07
2.38
1.34
-1.41
-4.29
-5.68
-4.92
-2.61
-0.27
0.59
-0.59
-3.10
-5.30
-5.58
-3.38
0.49
4.30
6.32
5.89
3.68
1.34
0.48
1.69
4.23
6.41
6.71
4.58
0.82
-2.89
-4.96
-4.80
-3.14
-1.64
-1.84
-4.35
-8.56
-12.95
-16.03
-17.30
-17.49
-18.22
-21.00
-26.36
-33.49
-40.58
-45.69
-47.81
-47.23
-45.25
-43.37
-42.39
-42.05
-41.25
-38.89
-34.68
-29.42
-24.63
-21.67
-20.97
-21.76
-22.48
-21.69
-19.00
-15.18
-11.81
-10.21
-10.65
-12.14
-12.92
-11.47
-7.46
-1.92
3.28
6.54
7.34
6.52
5.76
6.53
9.17
12.74
15.51
16.05
14.11
10.74
7.83
7.01
8.65
11.77
14.48
15.19
13.46
10.25
7.33
6.26
7.40
9.76
11.53
11.25
8.65
4.84
1.68
0.73
2.25
5.11
7.41
7.61
5.39
1.80
-1.33
-2.44
-1.19
1.47
3.78
4.28
2.54
-0.55
-3.38
-4.58
-3.80
-1.88
-0.36
-0.45
-2.30
-4.85
-6.35
-5.38
-1.73
3.42
8.08
10.50
10.11
7.83
5.60
5.25
7.46
11.44
15.29
17.18
16.35
13.53
10.54
9.14
10.02
12.47
14.73
15.22
13.40
10.19
7.36
6.49
7.99
10.84
13.11
13.16
10.57
6.39
2.61
1.03
2.20
5.17
7.94
8.76
7.01
3.66
0.64
-0.29
1.37
4.55
7.19
7.45
4.79
0.23
-4.18
-6.66
-6.66
-5.18
-4.10
-4.93
-7.89
-11.64
-14.09
-13.58
-9.93
-4.57
0.22
2.65
2.33
0.50
-0.77
0.17
3.60
8.27
12.13
13.61
12.47
9.92
7.88
7.88
10.06
13.21
15.38
15.11
12.30
8.24
4.98
4.10
5.88
9.10
11.81
12.44
10.64
7.46
4.69
3.79
5.05
7.43
9.22
9.05
6.73
3.32
0.53
-0.39
0.57
2.13
2.36
-0.12
-5.36
-12.02
-18.07
-21.94
-23.35
-23.38
-23.81
-25.88
-29.57
-33.60
-36.04
-35.52
-31.98
-26.67
-21.59
-18.28
-17.12
-17.19
-16.89
-14.94
-11.23
-6.82
-3.39
-2.10
-2.93
-4.60
-5.27
-3.65
0.29
5.23
9.18
10.77
9.91
7.91
6.66
7.52
10.52
14.34
17.06
17.32
15.04
11.46
8.42
7.24
8.05
9.65
10.31
8.76
4.98
0.16
-3.93
-6.00
-6.01
-5.17
-5.26
-7.51
-11.90
-17.13
-21.25
-22.85
-21.72
-18.97
-16.34
-15.08
-15.36
-16.15
-15.95
-13.76
-9.73
-5.15
-1.70
-0.46
-1.29
-2.88
-3.43
-1.81
1.92
6.44
9.96
11.25
10.36
8.58
7.63
8.69
11.67
15.30
17.83
18.16
16.44
13.98
12.50
13.11
15.61
18.65
20.44
19.85
16.99
13.22
10.33
9.54
10.76
12.65
13.42
11.92
8.33
4.04
0.90
-0.02
1.00
2.42
2.34
-0.22
-4.78
-9.54
-12.33
-11.88
-8.45
-3.65
0.41
2.38
2.29
1.46
1.69
4.15
8.68
13.88
17.85
19.30
18.21
15.80
13.88
13.70
15.27
17.42
18.40
17.10
13.66
9.47
6.44
5.87
7.71
10.56
12.48
12.10
9.36
5.58
2.65
1.91
3.43
5.95
7.62
7.19
4.66
1.25
-1.29
-1.83
-0.51
1.36
2.04
0.49
-3.07
-7.25
-10.29
-11.14
-10.03
-8.38
-7.91
-9.60
-13.07
-16.71
-18.49
-17.16
-12.88
-7.22
-2.25
0.59
1.15
0.63
0.73
2.63
6.20
10.15
12.74
12.90
10.82
7.87
5.86
5.86
7.69
10.02
11.18
10.20
7.37
4.12
2.18
2.53
4.84
7.64
9.10
8.22
5.27
1.70
-0.70
-0.92
0.73
2.79
3.52
1.93
-1.63
-5.69
-8.50
-9.13
-7.97
-6.51
-6.51
-8.87
-13.20
-17.94
-21.23
-21.91
-20.09
-16.93
-13.98
-12.17
-11.38
-10.58
-8.50
-4.59
0.62
5.67
8.98
9.79
8.54
6.71
5.92
7.04
9.70
12.51
13.92
13.09
10.43
7.35
5.54
5.87
8.00
10.53
11.83
10.99
8.34
5.23
3.25
3.22
4.73
6.36
6.55
4.53
0.79
-3.18
-5.74
-6.13
-4.84
-3.40
-3.46
-5.83
-10.01
-14.44
-17.33
-17.63
-15.58
-12.51
-10.01
-9.00
-9.22
-9.44
-8.21
-4.84
0.13
5.17
8.62
9.64
8.65
7.08
6.52
7.77
10.39
13.00
14.08
12.95
10.14
7.09
5.42
5.91
8.14
10.69
11.97
11.14
8.54
5.52
3.60
3.61
5.17
6.88
7.19
5.27
1.53
-2.59
-5.45
-6.22
-5.35
-4.35
-4.93
-7.89
-12.69
-17.59
-20.60
-20.55
-17.71
-13.56
-9.93
-7.99
-7.68
-7.84
-6.98
-4.24
0.09
4.68
7.96
9.03
8.10
6.44
5.56
6.39
8.76
11.53
13.23
12.98
10.95
8.27
6.39
6.17
7.44
9.06
9.65
8.41
5.54
2.16
-0.39
-1.37
-1.04
-0.50
-0.99
-3.09
-6.36
-9.58
-11.41
-11.26
-9.69
-8.21
-8.50
-11.39
-16.44
-21.87
-25.41
-25.32
-21.19
-14.10
-5.99
1.30
6.80
10.71
13.94
17.19
20.37
22.46
22.09
18.43
11.94
4.36
-1.90
-4.91
-4.16
-0.65
3.58
6.65
7.74
7.39
6.93
7.47
9.18
11.06
11.69
10.16
6.70
2.68
-0.16
-0.79
0.61
2.72
3.88
3.11
0.59
-2.39
-4.27
-4.09
-2.10
0.46
2.13
2.06
0.58
-1.04
-1.27
0.72
4.58
8.97
12.26
13.49
12.86
11.60
11.22
12.61
15.49
18.53
20.19
19.60
17.15
14.28
12.70
13.31
15.72
18.43
19.72
18.70
15.76
12.43
10.39
10.51
12.30
14.22
14.58
12.60
8.84
4.91
2.56
2.65
4.62
6.86
7.57
5.87
2.25
-1.68
-4.10
-4.10
-2.15
0.16
1.03
-0.46
-3.90
-7.78
-10.35
-10.72
-9.31
-7.61
-7.19
-8.80
-11.86
-14.81
-16.09
-15.13
-12.74
-10.72
-10.78
-13.44
-17.69
-21.38
-22.38
-19.86
-14.67
-8.93
-4.81
-3.36
-4.04
-5.07
-4.57
-1.66
2.99
7.55
10.11
9.78
7.16
4.01
2.24
2.79
5.20
7.88
9.10
8.01
5.15
2.10
0.60
1.45
4.07
6.78
7.79
6.26
2.70
-1.22
-3.61
-3.51
-1.34
1.27
2.49
1.29
-1.90
-5.54
-7.81
-7.76
-5.80
-3.54
-2.71
-4.15
-7.38
-10.86
-12.99
-13.12
-11.89
-10.90
-11.63
-14.42
-18.19
-20.89
-20.62
-16.74
-10.31
-3.58
1.13
2.69
1.59
-0.33
-0.98
0.74
4.36
8.13
10.13
9.39
6.44
3.04
1.14
1.74
4.44
7.66
9.68
9.68
8.13
6.57
6.65
9.15
13.52
18.14
21.28
22.01
20.78
19.15
18.81
20.35
22.77
23.83
21.49
15.18
6.33
-2.29
-8.15
-10.43
-10.41
-10.69
-13.47
-19.31
-26.83
-33.62
-37.67
-38.50
-37.16
-35.41
-34.52
-34.48
-34.14
-31.95
-26.90
-19.26
-10.52
-2.71
2.64
5.21
5.97
6.62
8.62
12.30
16.73
20.22
21.37
19.91
16.84
13.97
12.87
13.96
16.36
18.35
18.45
16.25
12.62
9.29
7.82
8.71
11.15
13.44
13.95
12.06
8.48
4.85
2.79
2.98
4.78
6.60
6.89
5.04
1.70
-1.57
-3.28
-2.91
-1.21
0.25
0.02
-2.35
-6.08
-9.64
-11.64
-11.71
-10.65
-9.93
-10.74
-13.16
-16.12
-17.85
-16.95
-13.22
-7.81
-2.66
0.57
1.36
0.55
-0.17
0.75
3.76
7.99
11.70
13.33
12.37
9.62
6.76
5.38
6.06
8.07
9.87
10.05
8.20
5.15
2.53
1.76
3.17
5.83
8.00
8.17
5.95
2.25
-1.14
-2.65
-1.79
0.62
2.86
3.38
1.65
-1.59
-4.80
-6.54
-6.37
-5.04
-4.04
-4.62
-7.14
-10.78
-14.11
-15.90
-15.94
-15.12
-14.91
-16.36
-19.39
-22.76
-24.58
-23.42
-19.13
-12.96
-7.00
-3.01
-1.60
-1.95
-2.32
-1.13
2.09
6.49
10.30
12.03
11.23
8.84
6.59
6.01
7.51
10.19
12.31
12.45
10.30
6.86
3.93
2.98
4.33
6.96
9.09
9.21
6.97
3.29
-0.09
-1.70
-1.16
0.69
2.21
2.06
-0.09
-3.32
-6.06
-7.00
-5.93
-3.86
-2.44
-2.97
-5.63
-9.40
-12.62
-13.95
-13.29
-11.75
-11.13
-12.72
-16.60
-21.44
-25.17
-26.14
-23.96
-19.67
-15.21
-12.22
-11.20
-11.34
-11.04
-8.96
-4.88
0.16
4.42
6.47
6.01
4.02
2.23
2.08
3.92
6.84
9.18
9.56
7.66
4.39
1.44
0.21
1.05
3.12
4.83
4.88
3.02
0.17
-2.03
-2.28
-0.40
2.57
4.88
5.14
3.10
-0.19
-2.92
-3.56
-1.80
1.35
4.00
4.57
2.59
-1.05
-4.62
-6.59
-6.50
-5.17
-4.18
-4.82
-7.36
-10.91
-13.90
-15.14
-14.49
-12.95
-12.10
-12.97
-15.47
-18.28
-19.55
-17.97
-13.58
-7.76
-2.55
0.46
0.98
0.07
-0.47
0.80
4.14
8.48
12.08
13.57
12.69
10.45
8.58
8.44
10.31
13.23
15.53
15.94
14.28
11.58
9.49
9.29
11.07
13.72
15.51
15.12
12.47
8.66
5.49
4.31
5.31
7.43
8.94
8.54
6.04
2.42
-0.65
-1.92
-1.24
0.36
1.22
0.12
-3.01
-7.04
-10.20
-11.20
-9.97
-7.76
-6.50
-7.61
-11.22
-16.03
-19.96
-21.32
-19.67
-15.99
-12.11
-9.58
-8.85
-9.11
-8.78
-6.59
-2.37
2.83
7.26
9.53
9.41
7.86
6.51
6.66
8.53
11.16
13.00
12.95
10.97
8.18
6.20
6.14
7.95
10.44
11.93
11.33
8.73
5.35
2.89
2.53
4.18
6.63
8.16
7.58
4.90
1.26
-1.63
-2.58
-1.53
0.44
1.67
0.97
-1.74
-5.41
-8.44
-9.64
-8.93
-7.41
-6.68
-7.89
-11.09
-15.15
-18.39
-19.59
-18.71
-16.88
-15.73
-16.30
-18.37
-20.57
-21.11
-18.91
-14.27
-8.68
-4.09
-1.68
-1.37
-1.82
-1.30
1.27
5.68
10.59
14.25
15.57
14.64
12.63
11.11
11.09
12.45
14.06
14.46
12.82
9.48
5.77
3.36
3.22
5.12
7.73
9.33
8.84
6.45
3.44
1.52
1.74
3.91
6.65
8.19
7.42
4.49
0.77
-1.99
-2.64
-1.35
0.48
1.08
-0.65
-4.50
-9.03
-12.44
-13.56
-12.59
-10.90
-10.31
-11.97
-15.77
-20.33
-23.77
-24.72
-23.04
-19.77
-16.51
-14.40
-13.52
-12.90
-11.17
-7.49
-2.19
3.46
7.90
10.30
11.04
11.53
13.38
17.29
22.55
27.27
29.35
27.70
22.78
16.52
11.30
8.76
8.97
10.56
11.59
10.68
7.82
4.21
1.55
0.85
1.86
3.17
3.13
0.88
-3.08
-7.17
-9.58
-9.43
-7.24
-4.66
-3.57
-4.89
-8.22
-12.01
-14.50
-14.78
-13.29
-11.53
-11.24
-13.28
-17.22
-21.54
-24.47
-25.07
-23.72
-21.89
-21.30
-22.87
-26.15
-29.47
-30.85
-29.06
-24.28
-18.03
-12.29
-8.47
-6.69
-5.83
-4.30
-1.04
3.77
8.86
12.56
13.87
13.01
11.39
10.82
12.34
15.70
19.44
21.73
21.51
19.07
15.91
13.91
14.16
16.43
19.25
20.86
20.21
17.54
14.20
11.87
11.49
12.74
14.27
14.45
12.43
8.56
4.21
0.97
-0.32
-0.05
0.41
-0.42
-3.22
-7.43
-11.62
-14.21
-14.54
-13.18
-11.71
-11.79
-14.25
-18.64
-23.46
-26.92
-27.93
-26.58
-24.02
-21.70
-20.50
-20.20
-19.65
-17.50
-13.12
-7.06
-0.81
3.98
6.46
7.01
6.99
7.92
10.48
14.12
17.37
18.74
17.63
14.70
11.56
9.88
10.38
12.54
14.83
15.67
14.32
11.28
7.97
5.91
5.78
7.05
8.33
8.18
6.00
2.39
-1.15
-3.06
-2.64
-0.44
2.00
3.01
1.72
-1.50
-5.27
-7.95
-8.64
-7.67
-6.39
-6.34
-8.34
-12.05
-16.14
-19.07
-20.12
-19.69
-19.10
-19.63
-21.62
-24.21
-25.69
-24.48
-20.09
-13.48
-6.59
-1.32
1.45
2.23
2.52
3.87
6.91
11.00
14.62
16.32
15.62
13.30
11.04
10.44
12.14
15.40
18.53
19.88
18.72
15.66
12.33
10.49
10.96
13.29
15.97
17.31
16.46
13.76
10.55
8.36
7.97
8.94
9.96
9.58
7.14
3.16
-0.89
-3.51
-3.97
-2.85
-1.69
-2.07
-4.68
-8.90
-13.14
-15.77
-16.18
-15.11
-14.30
-15.45
-19.16
-24.56
-29.68
-32.40
-31.71
-28.01
-22.94
-18.31
-15.11
-13.07
-10.95
-7.44
-2.11
4.23
9.92
13.44
14.24
13.12
11.74
11.69
13.43
16.21
18.40
18.57
16.37
12.72
9.37
7.91
8.87
11.48
14.10
15.22
14.31
12.06
10.02
9.66
11.43
14.51
17.17
17.77
15.66
11.49
6.90
3.60
2.38
2.82
3.52
3.00
0.48
-3.73
-8.42
-12.23
-14.41
-15.17
-15.62
-17.09
-20.53
-26.13
-33.43
-41.78
-50.95
-61.25
-73.25
-86.95
-101.05
-112.89
-119.18
-117.45
-107.39
-91.24
-73.08
-57.00
-45.48
-38.63
-34.70
-31.61
-28.46
-26.16
-26.81
-32.16
-42.22
-54.79
-66.30
-73.61
-75.62
-73.98
-72.31
-74.24
-81.47
-92.80
-104.75
-113.44
-116.83
-115.66
-112.75
-110.89
-110.74
-110.16
-105.23
-92.80
-72.40
-46.70
-20.00
4.08
24.30
41.72
58.26
74.77
89.98
101.26
106.16
104.13
97.01
88.26
81.29
77.98
77.98
79.16
78.80
74.88
66.95
56.13
44.55
34.39
26.88
22.07
19.04
16.76
14.70
13.05
12.50
13.53
15.85
18.49
20.30
20.85
20.84
21.95
25.98
33.81
44.57
55.97
65.11
70.01
70.50
68.27
65.99
65.75
67.92
71.02
72.60
70.75
65.20
57.46
49.81
43.92
39.75
35.78
30.09
22.02
12.96
6.02
4.56
10.23
21.92
35.96
47.67
53.49
52.45
46.25
38.32
31.92
28.70
28.40
29.38
30.04
29.80
29.26
29.63
31.67
34.97
38.02
38.99
36.81
31.84
25.77
20.87
18.80
19.79
22.66
25.45
26.63
25.83
24.06
23.07
24.35
28.23
33.74
39.12
42.77
44.06
43.52
42.48
42.21
43.26
45.26
47.26
48.59
49.25
50.09
52.30
56.53
62.26
67.75
70.70
69.52
64.31
57.09
51.08
49.15
52.39
59.59
67.74
73.68
75.54
73.37
68.79
63.61
58.72
53.79
47.86
40.48
32.25
24.64
19.13
16.19
15.07
14.36
13.00
11.12
9.98
11.14
15.59
22.93
31.50
38.97
43.21
43.12
38.95
32.13
24.92
19.63
17.96
20.64
27.24
36.50
46.73
56.27
63.85
68.71
70.65
70.09
68.09
66.35
66.83
71.06
79.46
90.91
103.04
113.12
119.22
120.97
119.57
117.13
115.53
115.46
116.01
114.80
108.52
93.96
69.26
35.58
-1.72
-33.47
-49.07
-40.78
-7.91
41.43
92.44
129.00
139.77
122.02
81.34
27.71
-29.44
-84.67
-136.85
-187.22
-236.80
-285.48
-332.69
-378.86
-425.68
-474.81
-525.40
-572.58
-607.93
-622.41
-609.99
-570.31
-508.77
-434.18
-355.42
-278.94
-208.05
-144.06
-87.92
-41.09
-5.33
18.50
31.21
35.30
34.03
30.12
25.08
19.14
12.15
4.59
-1.87
-4.87
-2.44
5.71
17.68
29.73
37.76
38.91
32.65
21.04
7.99
-2.15
-5.85
-1.49
10.33
26.98
44.78
60.23
71.46
79.11
86.41
98.03
118.23
148.81
187.85
229.74
266.55
290.24
295.11
279.65
247.20
205.30
163.73
131.82
115.83
117.10
131.90
153.08
172.68
184.82
187.12
180.79
169.26
156.39
145.28
137.94
135.77
139.98
151.45
170.29
195.17
223.20
250.53
273.46
289.56
298.12
299.81
295.88
287.35
274.64
257.70
236.53
211.59
184.12
155.75
128.07
102.04
77.84
54.89
32.22
9.08
-14.81
-39.12
-63.21
-86.43
-108.39
-128.98
-148.24
-165.89
-181.10
-192.42
-198.18
-197.03
-188.48
-173.18
-152.72
-129.16
-104.45
-80.03
-57.06
-36.72
-20.74
-11.65
-12.44
-26.28
-56.01
-103.95
-171.29
-257.09
-357.12
-463.16
-563.93
-647.65
-705.51
-734.43
-737.66
-722.86
-698.69
-671.59
-644.55
-617.73
-590.47
-562.96
-536.57
-513.06
-493.32
-476.69
-461.20
-444.58
-425.26
-402.83
-378.32
-353.40
-329.63
-307.76
-287.37
-266.99
-244.64
-218.62
-188.13
-153.78
-117.32
-80.92
-46.37
-14.40
15.42
44.30
73.75
105.19
139.84
178.99
223.53
272.49
321.37
361.86
384.15
381.18
352.98
307.76
259.69
223.47
209.09
219.10
249.58
293.32
342.73
391.06
431.41
456.75
461.06
441.74
401.44
347.83
291.15
240.73
205.07
188.33
190.03
205.56
228.14
251.02
268.91
278.59
278.61
270.37
255.52
235.63
211.84
184.45
152.94
115.81
71.75
19.15
-43.15
-115.30
-194.52
-274.30
-345.19
-397.47
-424.76
-426.52
-408.41
-379.56
-349.00
-321.95
-298.66
-275.63
-248.58
-215.00
-175.08
-131.08
-85.40
-39.55
6.48
53.58
102.43
152.94
204.11
255.07
305.54
355.58
404.30
448.52
482.21
497.96
489.57
454.87
397.12
323.61
242.81
161.26
82.19
6.39
-65.42
-130.81
-185.88
-227.24
-254.32
-269.95
-278.69
-283.66
-284.32
-276.53
-254.76
-215.79
-161.09
-96.98
-32.48
24.08
67.78
98.23
118.39
132.85
146.07
161.29
179.78
200.96
222.71
242.40
258.04
268.57
273.80
273.56
266.88
252.02
227.29
192.03
147.33
95.99
42.31
-8.10
-48.94
-74.16
-79.57
-64.98
-35.29
0.07
30.09
46.20
45.15
29.23
3.88
-25.27
-54.86
-83.89
-112.30
-139.51
-164.21
-185.27
-203.34
-221.62
-245.17
-279.16
-326.12
-383.77
-444.50
-497.12
-530.48
-537.56
-518.14
-478.63
-429.26
-379.86
-336.43
-300.02
-268.10
-237.25
-205.54
-173.32
-142.48
-114.83
-90.87
-69.41
-48.13
-24.63
2.61
33.64
67.19
101.30
134.23
165.18
194.59
223.93
254.94
288.96
326.76
368.82
415.48
466.47
519.80
570.88
612.64
637.10
638.15
613.81
566.98
504.08
432.56
358.38
285.03
213.92
145.71
81.23
21.44
-33.29
-83.90
-132.99
-184.25
-241.19
-305.44
-375.25
-444.60
-504.34
-544.73
-558.85
-545.37
-509.07
-458.98
-404.73
-353.23
-307.00
-264.85
-224.11
-182.72
-140.39
-98.13
-57.17
-17.86
20.46
59.07
98.99
140.53
183.24
226.76
271.74
319.98
373.32
431.73
491.40
544.66
582.00
595.52
582.06
544.25
488.92
423.66
354.11
283.41
213.37
146.19
85.17
33.69
-6.48
-36.09
-57.53
-72.95
-82.92
-86.53
-82.88
-72.72
-59.15
-46.92
-41.05
-45.57
-62.94
-93.95
-137.51
-190.05
-245.36
-295.26
-331.70
-349.02
-345.76
-325.01
-293.06
-257.30
-223.69
-195.52
-173.08
-154.19
-135.52
-114.01
-87.97
-57.45
-24.06
9.85
42.04
70.99
95.93
116.49
132.40
143.49
149.95
152.59
152.74
151.71
150.05
147.16
141.43
131.16
115.68
96.06
75.00
55.95
41.63
32.90
28.60
26.25
23.21
17.76
9.60
-0.27
-10.31
-19.00
-25.24
-28.38
-28.05
-24.05
-16.45
-5.80
6.66
19.13
29.69
36.94
40.57
41.36
40.83
40.52
41.14
42.30
42.72
40.97
36.25
28.84
19.90
10.87
2.60
-5.07
-13.22
-23.20
-35.72
-50.44
-66.00
-80.69
-93.36
-103.91
-113.22
-122.48
-132.35
-142.59
-152.18
-160.04
-165.80
-170.06
-173.90
-178.12
-182.37
-185.12
-184.28
-178.26
-167.04
-152.22
-136.55
-122.56
-111.48
-102.89
-95.21
-86.71
-76.54
-65.08
-53.61
-43.53
-35.55
-29.32
-23.79
-17.95
-11.63
-5.60
-1.04
1.40
2.22
3.02
5.91
12.40
22.52
34.95
47.72
59.36
69.54
78.90
88.29
98.69
110.38
122.99
135.70
147.57
157.84
165.95
171.65
175.01
178.22
184.92
198.64
220.66
248.23
274.54
290.37
287.25
259.92
209.98
144.57
72.64
1.79
-63.13
-118.87
-161.70
-185.95
-186.26
-157.45
-97.20
-8.41
101.66
224.32
352.77
483.81
617.19
730.36
796.85
794.02
712.92
564.46
375.32
177.42
-1.47
-142.01
-230.73
-272.83
-276.98
-253.04
-211.57
-163.31
-117.82
-88.54
-81.40
-96.23
-126.91
-163.27
-195.70
-216.96
-223.17
-213.70
-190.96
-159.08
-124.19
-92.56
-68.33
-53.22
-46.19
-44.06
-42.61
-38.26
-28.65
-13.98
3.24
19.94
33.31
41.70
44.93
44.03
40.55
36.35
32.29
27.99
22.46
14.31
2.34
-14.17
-35.31
-60.57
-89.04
-120.04
-153.48
-189.56
-228.42
-269.70
-312.11
-353.33
-390.38
-420.22
-440.32
-449.16
-446.03
-430.74
-403.46
-364.90
-316.66
-261.41
-202.65
-143.83
-87.26
-33.31
19.31
72.25
125.48
176.06
218.36
245.85
253.98
242.25
214.71
178.36
140.30
105.05
73.77
45.12
17.47
-9.28
-33.37
-52.10
-63.59
-67.94
-67.17
-64.11
-61.01
-58.66
-56.18
-51.95
-44.67
-34.13
-21.40
-8.23
3.99
14.84
24.94
35.28
46.15
56.55
64.40
67.52
64.92
57.52
47.78
38.63
32.15
28.73
27.28
26.13
24.09
21.00
17.63
15.03
13.84
13.97
14.70
15.17
14.92
14.10
13.32
13.34
14.48
16.38
18.13
18.67
17.40
14.51
10.88
7.74
5.95
5.62
6.06
6.10
4.83
2.13
-1.22
-3.83
-4.52
-2.96
0.13
3.36
5.55
6.33
6.32
6.67
8.24
10.91
13.68
15.27
15.12
13.89
13.21
14.89
19.83
27.40
35.68
42.43
46.29
47.51
47.85
49.73
54.90
63.53
74.12
84.34
92.30
97.61
101.59
106.68
115.14
127.94
144.36
162.31
179.20
192.91
202.45
208.10
211.04
212.65
213.92
215.12
215.78
214.88
210.98
202.40
187.34
164.17
132.03
91.49
45.14
-2.51
-45.97
-80.32
-102.83
-113.87
-116.44
-114.65
-111.85
-109.53
-107.38
-104.39
-100.33
-96.55
-95.39
-98.86
-107.09
-117.90
-127.63
-133.06
-133.02
-129.01
-124.29
-122.00
-123.38
-127.11
-130.19
-129.50
-123.56
-113.25
-101.14
-90.18
-82.13
-77.01
-73.43
-69.69
-64.94
-59.67
-55.19
-52.74
-52.40
-52.90
-52.21
-48.60
-41.82
-33.36
-25.85
-21.72
-21.88
-25.20
-28.95
-30.07
-26.66
-18.76
-8.26
2.11
10.07
14.64
16.30
16.53
16.85
18.14
20.32
22.60
24.03
24.04
22.72
20.87
19.47
19.14
19.87
20.96
21.55
21.09
19.65
17.89
16.49
15.52
14.32
11.93
8.10
4.00
2.23
5.64
15.15
28.15
38.47
38.37
22.19
-10.70
-54.96
-101.23
-139.98
-165.07
-175.37
-173.62
-163.75
-148.43
-128.32
-103.10
-73.40
-41.80
-12.33
11.20
27.22
36.89
43.34
49.77
57.58
65.67
71.23
71.45
65.40
54.82
43.56
35.87
34.29
38.46
45.41
51.08
52.52
49.23
43.31
38.07
36.15
38.11
42.40
46.40
48.20
47.62
46.18
45.97
48.10
51.90
55.23
55.71
52.39
46.32
40.29
37.36
39.23
45.22
52.54
57.54
57.49
51.69
41.67
30.17
19.57
10.82
3.14
-5.20
-15.49
-27.71
-40.27
-50.90
-57.84
-60.76
-60.84
-59.92
-59.32
-59.07
-57.94
-54.25
-47.09
-37.02
-25.93
-16.13
-9.06
-4.70
-1.63
1.95
6.92
12.66
17.27
18.68
16.06
10.39
4.12
-0.04
-0.70
1.64
4.86
6.58
5.61
2.47
-0.94
-2.68
-2.12
-0.31
0.56
-1.37
-6.37
-12.82
-18.07
-19.94
-18.16
-14.72
-12.81
-15.11
-21.99
-31.14
-38.45
-40.09
-34.68
-24.20
-13.18
-6.55
-6.96
-13.38
-21.45
-25.62
-22.06
-10.60
5.15
19.47
27.30
26.32
17.71
5.63
-4.11
-5.63
5.80
32.34
72.57
121.05
168.90
205.86
223.10
216.25
187.47
145.51
103.44
74.37
66.82
81.30
110.00
139.64
156.43
151.10
121.66
72.84
12.89
-50.45
-112.88
-173.88
-234.91
-296.28
-355.02
-404.37
-435.43
-440.14
-413.97
-357.29
-274.49
-172.03
-56.65
65.10
186.06
297.55
389.89
454.65
487.74
491.40
473.57
444.85
414.59
388.05
366.09
346.83
327.80
307.61
286.25
264.36
242.29
219.82
196.32
171.38
145.14
118.37
91.83
65.61
38.74
9.48
-23.69
-61.04
-100.97
-140.66
-177.13
-208.76
-236.09
-261.50
-288.34
-319.75
-357.93
-403.39
-454.45
-506.61
-552.66
-584.00
-593.18
-576.88
-537.73
-483.80
-425.53
-371.69
-326.30
-288.01
-252.02
-213.31
-169.04
-119.17
-65.31
-8.87
50.20
113.27
181.69
255.17
330.77
402.85
464.63
510.05
535.44
540.38
527.18
499.68
461.88
417.02
367.63
315.78
263.58
213.06
165.74
122.20
81.78
43.00
4.23
-35.64
-76.67
-118.11
-158.59
-196.96
-233.02
-267.88
-303.92
-343.84
-389.27
-439.09
-488.78
-530.94
-557.11
-560.40
-537.74
-491.20
-427.66
-357.21
-290.43
-235.48
-196.20
-171.36
-155.66
-141.99
-123.78
-96.64
-58.84
-11.18
43.20
98.67
147.27
179.77
188.29
169.36
126.19
68.48
9.65
-37.43
-64.10
-67.49
-50.07
-17.31
24.28
68.73
110.91
146.47
171.72
184.16
183.19
170.59
150.55
128.89
111.48
102.76
104.70
116.41
134.74
155.06
172.03
180.74
177.67
162.09
137.01
108.65
84.42
69.73
65.34
66.78
66.36
56.80
34.34
0.04
-41.08
-82.44
-118.04
-143.45
-155.49
-151.81
-131.39
-96.05
-51.85
-8.74
22.08
32.32
20.15
-9.06
-45.27
-78.52
-103.11
-119.11
-130.88
-143.15
-157.96
-173.46
-185.66
-191.68
-192.15
-191.25
-194.25
-204.22
-220.02
-236.59
-247.67
-249.08
-240.54
-225.31
-207.79
-190.89
-174.90
-158.16
-139.21
-118.58
-99.05
-84.16
-76.13
-74.40
-75.91
-76.52
-72.98
-64.38
-52.09
-38.74
-26.60
-16.26
-6.38
5.54
21.80
43.28
68.99
96.59
123.10
145.65
162.04
170.95
172.66
169.81
167.22
170.49
183.64
206.48
233.80
257.20
268.86
265.07
248.13
226.99
211.79
210.10
223.28
246.18
270.83
291.12
304.04
311.81
316.72
318.92
316.87
308.63
293.42
272.65
249.41
227.01
207.93
192.60
179.79
167.53
154.11
138.85
122.45
106.62
93.09
83.04
76.45
72.33
69.47
66.87
63.95
60.64
56.87
52.20
45.77
36.42
23.35
6.61
-12.86
-33.75
-54.97
-76.13
-97.62
-120.17
-144.22
-169.43
-194.84
-219.29
-242.19
-263.93
-285.85
-310.01
-338.85
-374.92
-420.24
-475.22
-537.36
-600.56
-655.97
-694.43
-709.79
-701.26
-673.78
-635.75
-595.53
-558.36
-525.32
-494.52
-463.31
-430.29
-395.72
-360.67
-325.63
-289.74
-250.99
-207.24
-157.24
-101.22
-41.04
20.80
81.76
140.12
195.21
247.21
296.85
345.23
393.63
442.92
492.68
539.77
577.77
597.77
590.59
549.89
474.57
369.78
246.07
117.36
-1.70
-98.15
-162.55
-190.21
-181.44
-141.00
-76.56
3.37
91.24
181.46
270.45
355.91
436.37
511.32
581.31
647.79
712.25
774.84
833.29
882.77
916.72
928.68
914.29
872.78
807.28
723.91
629.86
531.52
433.17
336.87
243.22
152.43
64.77
-19.61
-100.95
-179.63
-255.13
-325.06
-384.73
-428.22
-450.48
-449.17
-425.39
-382.81
-326.14
-259.99
-189.14
-119.39
-58.05
-12.85
10.84
13.06
0.24
-16.60
-25.94
-19.96
3.19
39.76
82.70
124.58
159.47
183.59
194.96
193.04
178.75
154.59
124.36
92.41
62.29
35.62
11.93
-10.91
-35.57
-64.25
-97.98
-136.63
-179.02
-223.59
-269.07
-314.81
-360.90
-408.30
-458.64
-513.55
-573.46
-636.16
-696.00
-744.53
-772.83
-774.61
-748.70
-699.55
-635.46
-565.41
-496.31
-431.81
-372.85
-319.12
-270.14
-225.46
-184.14
-144.45
-104.17
-61.66
-16.79
29.11
73.95
116.02
155.08
192.37
230.04
270.38
315.25
365.60
420.95
478.68
533.72
579.05
607.20
612.53
593.13
551.34
492.71
424.11
351.75
280.18
212.46
150.41
94.77
44.82
-2.07
-50.33
-105.22
-170.76
-247.58
-331.15
-411.89
-476.81
-513.16
-512.85
-476.42
-414.42
-344.98
-287.75
-256.45
-253.60
-270.03
-289.57
-296.61
-282.62
-248.55
-202.29
-153.35
-107.82
-66.65
-27.20
13.39
55.24
95.57
130.41
157.35
176.77
191.69
206.13
223.14
243.97
268.50
296.67
329.54
368.72
414.58
464.29
511.06
545.67
559.88
549.84
517.66
470.28
416.17
361.89
310.18
260.44
210.74
159.99
108.85
59.12
12.51
-30.65
-71.66
-112.81
-156.48
-204.69
-258.67
-318.98
-384.94
-453.85
-520.54
-577.93
-618.83
-638.36
-635.70
-614.03
-578.87
-535.55
-487.48
-436.07
-382.15
-327.44
-274.83
-227.39
-186.41
-150.22
-114.69
-75.03
-27.73
28.30
91.56
158.35
223.04
278.72
318.24
336.38
332.55
312.57
288.19
273.58
279.84
310.05
357.72
409.20
449.31
467.09
458.67
426.41
375.38
310.26
234.68
153.19
73.56
7.04
-34.71
-44.97
-26.44
8.28
40.75
53.67
36.88
-10.31
-80.93
-164.00
-248.37
-324.51
-384.75
-423.11
-435.73
-421.82
-384.37
-329.60
-265.28
-198.56
-134.34
-74.76
-19.79
31.88
82.09
133.08
187.43
247.67
314.97
387.76
460.77
525.64
572.98
595.62
591.26
563.29
519.34
468.19
416.93
369.34
326.26
287.05
251.09
218.15
188.06
159.85
131.74
101.69
68.50
32.50
-4.60
-40.43
-73.47
-104.15
-135.48
-172.17
-218.56
-275.92
-340.32
-402.56
-450.55
-473.40
-465.10
-426.23
-363.24
-285.90
-204.53
-128.46
-65.25
-20.75
1.19
-0.61
-24.34
-65.95
-120.59
-184.08
-253.02
-323.53
-389.82
-444.11
-478.66
-488.73
-474.82
-442.40
-399.20
-351.71
-302.79
-251.85
-197.05
-138.09
-77.29
-18.91
33.32
78.42
118.78
159.12
204.45
258.18
320.95
390.05
459.78
522.34
569.56
595.13
596.55
575.83
538.66
492.01
441.62
390.62
339.61
287.99
235.40
182.82
132.89
89.71
57.99
41.72
42.46
57.88
81.75
105.38
120.68
122.78
110.90
87.00
53.27
10.77
-39.89
-95.93
-150.30
-192.01
-209.41
-194.52
-146.16
-70.13
23.09
121.52
214.30
292.57
350.09
383.03
390.64
375.71
343.96
302.48
257.63
213.74
173.15
137.12
106.54
81.68
61.72
44.29
26.17
4.76
-20.53
-48.16
-75.45
-100.32
-122.77
-145.06
-170.65
-201.85
-237.57
-271.99
-295.53
-298.07
-273.42
-223.11
-157.00
-90.56
-38.79
-10.87
-7.52
-22.60
-47.68
-76.57
-107.43
-141.40
-179.62
-220.92
-261.67
-297.91
-327.97
-353.60
-379.45
-411.26
-453.69
-508.88
-575.29
-647.67
-717.70
-775.66
-812.94
-824.63
-810.95
-776.76
-729.32
-675.31
-618.79
-560.83
-501.02
-439.31
-377.10
-316.90
-260.97
-210.08
-163.17
-118.13
-73.24
-28.04
16.46
58.22
95.27
126.48
151.88
172.51
189.85
205.32
219.86
233.78
247.02
259.35
270.65
281.11
291.21
301.69
313.40
327.14
343.60
363.56
388.05
418.25
455.01
497.86
544.17
588.94
625.69
648.11
651.97
636.37
603.72
558.78
507.02
453.37
401.42
353.36
310.27
272.18
238.27
207.19
177.54
148.38
119.42
90.78
62.51
34.47
6.19
-22.79
-52.38
-81.93
-110.48
-137.31
-162.28
-185.56
-207.17
-227.22
-246.64
-267.56
-293.22
-326.73
-369.03
-417.43
-465.07
-502.25
-520.41
-515.73
-489.82
-448.33
-397.97
-343.71
-288.32
-232.91
-177.43
-123.65
-75.63
-37.28
-10.04
8.23
22.53
37.78
57.54
85.31
121.94
164.88
210.05
252.32
286.18
306.81
310.17
295.12
266.43
230.32
190.65
148.87
103.75
52.63
3.25
-33.53
-61.15
-76.34
-66.93
-29.31
30.50
98.10
155.82
189.60
192.95
169.08
130.38
89.45
52.68
20.62
-9.96
-42.49
-78.30
-118.01
-162.25
-210.83
-264.59
-324.61
-388.26
-448.65
-496.48
-523.54
-526.86
-509.43
-477.36
-438.27
-398.99
-363.09
-331.17
-302.19
-274.81
-248.34
-222.19
-194.83
-164.60
-130.48
-92.18
-50.40
-7.03
34.79
70.89
97.00
110.23
110.26
99.84
84.38
70.06
61.59
60.69
66.17
75.35
86.02
97.52
110.45
125.55
142.45
159.55
175.12
188.56
201.31
216.30
236.64
264.11
298.70
339.31
384.91
434.84
487.88
540.90
587.88
620.78
631.98
617.10
576.24
513.45
434.75
346.53
255.64
170.52
101.97
61.64
57.93
91.33
152.36
223.73
286.52
327.17
341.69
335.24
318.02
299.52
284.82
274.14
265.07
255.43
244.80
234.16
224.39
215.01
203.83
188.20
166.58
139.48
109.28
79.20
51.65
27.17
4.37
-19.23
-45.91
-76.57
-110.51
-145.99
-181.19
-215.18
-248.28
-281.92
-317.99
-358.54
-405.47
-459.91
-521.14
-585.76
-648.03
-701.49
-741.39
-766.45
-778.76
-781.86
-778.22
-767.75
-748.30
-717.93
-676.99
-628.78
-578.22
-529.48
-484.31
-441.92
-400.50
-358.80
-317.12
-276.94
-239.87
-206.99
-178.49
-153.80
-132.04
-112.62
-95.21
-79.76
-66.34
-54.88
-45.13
-36.67
-28.96
-21.51
-13.81
-5.27
4.79
17.10
32.23
50.38
71.21
93.97
117.76
141.96
166.52
192.02
219.34
249.14
281.36
315.10
349.00
381.66
412.35
441.28
469.54
498.84
531.27
569.03
613.76
665.48
721.31
775.02
818.04
841.91
841.34
816.28
771.93
716.50
658.10
602.16
550.72
503.44
459.40
418.33
380.71
347.00
316.79
288.66
260.85
232.21
202.75
173.61
146.50
122.82
102.97
86.30
71.47
57.05
42.21
27.02
12.31
-0.78
-11.33
-19.07
-24.45
-28.35
-31.70
-35.11
-38.67
-42.03
-44.68
-46.25
-46.68
-46.29
-45.63
-45.26
-45.55
-46.63
-48.45
-50.80
-53.49
-56.47
-59.77
-63.53
-67.83
-72.75
-78.30
-84.43
-91.10
-98.29
-106.00
-114.28
-123.19
-132.80
-143.16
-154.29
-166.18
-178.74
-191.81
-205.13
-218.35
-230.99
-242.52
-252.30
-259.68
-264.01
-264.71
-261.29
-253.43
-241.03
-224.26
-203.58
-179.74
-153.70
-126.60
-99.61
-73.86
-50.34
-29.87
-13.04
-0.21
8.52
13.30
14.56
12.97
9.41
4.86
0.29
-3.45
-5.75
-6.26
-4.91
-1.83
2.76
8.59
15.37
22.79
30.37
37.43
43.15
46.72
47.54
45.46
40.86
34.55
27.48
20.38
13.49
6.49
-1.33
-10.60
-21.55
-33.73
-46.17
-57.81
-68.06
-77.18
-86.29
-96.95
-110.48
-127.34
-146.88
-167.75
-188.43
-208.06
-226.91
-246.21
-267.91
-294.36
-328.09
-371.16
-424.21
-485.05
-547.86
-603.89
-643.58
-659.96
-651.11
-620.77
-576.55
-526.73
-477.36
-431.13
-388.17
-347.79
-310.07
-275.99
-246.73
-222.57
-202.53
-184.90
-168.21
-152.00
-136.89
-124.26
-115.25
-110.11
-108.05
-107.48
-106.74
-104.68
-101.13
-96.78
-92.76
-90.04
-88.95
-89.09
-89.52
-89.16
-87.30
-83.82
-79.15
-74.05
-69.27
-65.26
-62.09
-59.51
-57.18
-54.83
-52.32
-49.71
-47.13
-44.64
-42.21
-39.63
-36.67
-33.08
-28.75
-23.66
-17.93
-11.73
-5.13
1.85
9.16
16.67
24.18
31.49
38.41
44.88
50.86
56.56
62.21
68.03
74.09
80.38
86.86
93.44
100.12
106.95
114.39
122.87
132.75
144.04
156.36
169.10
181.56
193.08
203.10
212.10
220.75
229.48
238.16
245.92
251.55
253.90
252.22
246.16
237.71
229.21
222.58
218.46
215.97
213.40
209.15
202.27
192.56
183.45
178.83
181.68
192.78
210.31
231.04
251.94
271.23
288.57
308.93
338.31
381.87
442.03
517.76
605.85
702.77
805.87
887.16
922.04
893.69
801.91
663.78
504.47
346.05
201.95
77.38
-27.83
-112.24
-174.91
-215.92
-237.67
-245.22
-244.93
-242.54
-242.01
-245.43
-250.22
-252.73
-249.83
-240.51
-226.32
-210.40
-195.96
-185.12
-178.88
-175.12
-171.02
-164.13
-153.43
-139.75
-125.10
-111.64
-100.92
-93.64
-88.53
-83.72
-77.46
-68.87
-58.29
-46.99
-36.51
-28.05
-22.18
-18.08
-14.34
-9.56
-2.92
5.35
14.19
22.09
28.72
32.76
34.35
34.30
33.65
33.35
34.21
36.91
41.59
47.24
51.20
49.90
39.94
19.96
-8.04
-39.00
-66.48
-85.29
-93.50
-92.70
-86.34
-77.86
-69.15
-60.43
-51.20
-41.43
-31.99
-24.27
-19.07
-15.73
-12.60
-7.91
-0.73
8.42
18.00
26.27
32.06
35.45
37.62
40.10
44.16
50.29
58.23
67.29
76.70
85.58
93.44
100.16
105.86
110.71
114.66
117.25
117.43
115.85
112.42
107.35
101.36
95.50
90.74
87.54
85.57
83.91
81.46
77.11
70.45
61.67
51.31
39.83
27.70
15.51
4.49
-3.53
-6.75
-3.86
5.15
18.88
34.76
50.31
63.71
74.40
82.81
89.48
94.54
97.55
98.08
96.66
95.18
96.32
102.09
112.30
123.88
131.88
131.52
120.45
99.75
73.44
46.48
22.61
3.10
-13.18
-28.55
-45.16
-63.85
-84.06
-104.24
-122.65
-138.03
-150.13
-159.60
-167.37
-174.11
-179.81
-183.93
-186.06
-186.43
-185.91
-185.52
-185.85
-186.96
-189.00
-192.92
-200.70
-214.37
-234.52
-259.02
-283.20
-301.47
-309.83
-307.79
-298.59
-287.63
-279.85
-277.77
-280.94
-286.95
-293.37
-299.06
-304.56
-311.26
-320.23
-331.12
-342.00
-349.89
-351.68
-344.83
-327.80
-300.08
-262.09
-215.29
-162.22
-106.50
-52.36
-3.79
36.20
66.15
86.11
97.18
101.06
99.81
95.64
90.66
86.43
83.17
79.47
72.51
59.12
37.30
7.68
-26.10
-58.28
-82.94
-96.37
-98.59
-93.20
-85.64
-80.59
-80.06
-83.10
-87.14
-90.00
-90.91
-90.04
-86.98
-79.83
-65.73
-42.72
-11.50
24.38
60.37
93.61
124.54
156.21
191.56
230.64
269.44
301.52
321.16
326.25
319.13
305.18
290.05
277.36
267.82
260.05
252.21
243.30
233.53
223.67
214.08
204.08
192.28
177.49
159.60
139.91
120.72
104.26
91.70
82.64
75.29
67.39
57.16
44.01
28.72
12.94
-1.48
-13.29
-22.13
-28.51
-33.45
-38.01
-42.98
-48.79
-55.58
-63.30
-71.78
-80.51
-88.69
-95.24
-99.18
-100.00
-97.77
-93.12
-86.87
-79.65
-71.78
-63.40
-54.61
-45.59
-36.36
-26.41
-14.64
0.30
19.23
41.68
65.59
87.78
105.08
115.34
118.15
114.61
106.74
96.55
85.52
74.42
63.53
52.91
42.61
32.74
23.40
14.68
6.62
-0.72
-7.26
-12.89
-17.51
-21.09
-23.72
-25.68
-27.39
-29.35
-31.93
-35.12
-38.44
-41.04
-41.93
-40.44
-36.44
-30.45
-23.44
-16.62
-11.23
-8.39
-9.03
-13.67
-22.19
-33.73
-46.72
-59.31
-69.85
-77.32
-81.42
-82.39
-80.61
-76.45
-70.35
-62.98
-55.28
-48.31
-42.63
-38.00
-33.42
-27.65
-20.02
-10.93
-1.74
6.02
11.51
15.11
18.25
22.61
29.25
38.18
48.50
58.93
68.41
76.43
82.95
88.22
92.59
96.40
99.98
103.46
106.54
108.46
108.13
104.51
97.09
86.14
72.60
57.71
42.61
28.20
15.13
4.04
-4.35
-9.40
-10.83
-9.04
-5.12
-0.52
3.36
5.64
6.14
5.17
3.19
0.46
-3.06
-7.51
-12.78
-18.31
-23.16
-26.32
-27.17
-25.68
-22.39
-18.15
-13.75
-9.83
-6.73
-4.56
-3.11
-1.76
0.55
5.16
13.43
26.17
43.39
64.15
86.66
108.61
127.52
141.27
148.49
148.97
143.72
134.77
124.59
115.28
108.06
103.01
99.36
95.99
92.03
87.16
81.61
75.90
70.46
65.50
60.98
56.69
52.41
48.02
43.48
38.83
34.03
28.93
23.10
15.83
6.17
-6.67
-22.95
-42.03
-62.45
-82.41
-100.48
-116.23
-130.15
-143.10
-155.39
-166.39
-174.46
-177.78
-175.10
-166.29
-152.20
-134.22
-113.77
-92.12
-70.58
-50.62
-33.91
-21.92
-15.43
-14.25
-17.21
-22.60
-28.64
-33.86
-37.27
-38.29
-36.66
-32.33
-25.48
-16.71
-6.95
2.60
10.90
17.55
23.16
29.41
38.52
52.53
72.27
96.79
123.22
147.40
165.01
172.90
170.14
158.27
140.78
121.89
105.17
92.52
83.86
77.77
72.38
66.39
59.45
52.06
44.87
38.18
31.66
24.61
16.48
7.34
-1.96
-10.21
-16.37
-20.25
-22.70
-25.35
-29.98
-37.80
-48.90
-62.21
-75.65
-86.63
-92.66
-92.23
-85.38
-73.98
-61.28
-50.79
-45.11
-44.93
-48.92
-54.35
-58.25
-58.39
-53.88
-45.05
-33.14
-19.76
-6.57
5.02
13.96
19.78
22.64
23.19
22.40
21.19
20.17
19.54
19.03
18.09
16.24
13.30
9.58
5.81
2.91
1.53
1.80
3.24
4.92
5.96
6.07
5.81
6.72
10.84
20.01
35.00
54.79
76.50
95.90
108.64
111.62
104.06
87.68
66.08
43.44
23.31
7.71
-2.91
-9.25
-12.52
-13.86
-14.18
-14.13
-14.19
-14.67
-15.75
-17.43
-19.56
-21.97
-24.55
-27.29
-30.33
-33.91
-38.41
-44.20
-51.69
-61.30
-73.44
-88.32
-105.74
-124.73
-143.51
-159.86
-171.83
-178.50
-180.39
-179.26
-177.43
-177.05
-179.65
-185.90
-195.59
-207.45
-218.98
-226.57
-226.31
-215.20
-192.54
-160.42
-123.17
-85.71
-51.83
-23.15
0.87
22.00
42.05
62.04
82.12
101.84
120.60
138.03
153.91
168.08
180.28
190.11
197.25
201.69
203.80
204.37
204.38
204.82
206.58
210.56
217.80
229.38
246.24
268.56
295.38
324.37
352.21
375.29
390.51
395.81
390.25
373.75
346.86
310.70
267.20
219.19
170.30
124.40
84.64
52.72
28.48
10.14
-4.85
-18.86
-33.25
-48.07
-62.34
-74.79
-84.59
-91.91
-97.91
-104.24
-112.42
-123.29
-136.95
-152.88
-170.27
-188.29
-206.25
-223.84
-241.46
-260.48
-282.98
-310.77
-343.94
-379.76
-412.60
-435.42
-442.40
-431.19
-403.86
-365.91
-323.79
-282.32
-243.33
-205.90
-167.92
-127.99
-86.57
-46.11
-10.16
17.88
35.90
43.59
42.38
34.87
23.86
11.62
-0.50
-11.87
-21.97
-29.94
-34.39
-34.02
-28.39
-18.52
-6.87
3.37
9.42
9.88
5.26
-2.06
-8.31
-9.17
-0.76
19.26
50.76
90.63
133.14
171.23
198.44
210.79
207.80
192.35
169.21
143.17
117.42
92.99
69.41
46.14
23.77
4.44
-8.82
-13.46
-8.60
4.41
22.61
42.48
61.28
77.72
91.99
104.95
117.10
127.68
134.42
134.00
122.96
98.69
60.11
8.08
-54.46
-122.57
-189.61
-248.08
-291.12
-314.16
-316.24
-300.21
-271.76
-237.49
-202.96
-171.09
-141.59
-111.67
-77.80
-37.91
6.81
51.57
89.33
113.62
121.21
113.52
95.77
74.42
54.48
38.11
25.04
14.27
5.53
-0.33
-2.27
-0.15
4.59
9.45
11.90
10.57
5.75
-0.72
-5.94
-6.74
-0.28
15.40
40.92
75.24
115.45
156.98
194.17
221.45
234.60
232.03
215.29
188.67
157.93
128.33
103.06
82.52
64.93
47.88
30.03
11.87
-4.51
-16.63
-22.93
-23.52
-20.23
-15.80
-12.99
-13.86
-19.42
-29.74
-44.19
-61.64
-80.67
-99.69
-117.26
-132.43
-145.13
-156.15
-166.76
-177.92
-189.54
-200.05
-206.90
-207.43
-199.77
-183.51
-159.62
-130.33
-98.45
-66.89
-38.07
-13.36
7.19
24.93
41.87
59.77
79.08
98.50
115.41
126.84
130.71
126.56
115.77
101.02
85.46
71.80
61.64
55.36
52.42
51.94
53.46
57.06
63.11
71.77
82.37
93.39
102.86
109.28
112.53
114.20
117.22
124.67
138.42
157.91
180.01
199.76
212.01
213.05
201.79
179.90
151.12
120.05
90.66
65.45
45.00
28.23
13.15
-2.22
-19.18
-37.90
-57.40
-76.03
-92.11
-104.61
-113.49
-119.77
-125.09
-131.02
-138.51
-147.63
-157.73
-167.79
-176.79
-183.95
-188.54
-189.88
-187.35
-180.81
-170.77
-158.41
-145.18
-132.27
-120.27
-109.18
-98.88
-89.24
-80.02
-70.19
-57.55
-38.89
-11.23
26.43
71.97
120.05
163.74
196.91
216.54
223.58
222.25
218.31
216.91
221.32
232.28
248.18
265.37
279.01
284.04
277.02
258.03
231.69
206.63
193.49
201.78
236.79
297.68
377.27
463.68
543.31
604.15
638.62
645.05
627.20
592.35
548.47
501.91
456.27
412.63
370.64
329.63
289.05
248.37
207.05
164.67
121.45
78.66
38.19
1.82
-29.59
-56.67
-81.37
-106.06
-132.51
-161.19
-191.18
-220.81
-248.65
-274.31
-298.72
-323.71
-351.01
-381.31
-413.96
-447.08
-478.53
-506.86
-532.00
-555.48
-580.24
-609.90
-647.51
-694.02
-746.65
-798.55
-839.95
-861.05
-855.35
-822.08
-766.37
-697.21
-624.08
-553.85
-489.45
-430.35
-374.45
-319.90
-265.89
-212.48
-159.78
-107.32
-54.13
0.78
58.16
118.45
181.67
247.33
313.63
376.50
429.66
465.74
478.82
466.89
432.89
383.14
324.33
260.84
194.40
126.43
60.81
5.42
-29.76
-36.69
-13.06
36.80
104.46
181.42
261.86
342.37
419.66
488.11
539.74
566.99
566.44
540.94
498.83
450.34
403.63
362.49
326.66
293.80
262.02
230.95
201.50
174.64
150.37
127.58
104.60
80.08
53.70
26.44
0.04
-23.88
-44.68
-63.26
-81.78
-102.94
-128.86
-160.12
-195.50
-232.66
-269.04
-303.02
-334.54
-364.95
-396.39
-431.21
-471.35
-517.84
-569.97
-624.41
-674.87
-713.11
-731.10
-723.92
-691.69
-639.53
-575.34
-506.67
-438.28
-371.59
-306.05
-241.16
-177.59
-117.05
-60.93
-9.08
40.46
90.66
144.46
204.05
270.44
342.77
417.82
489.58
549.85
590.20
604.77
592.48
557.55
507.92
452.18
396.78
344.72
295.99
249.25
203.21
157.42
112.01
67.06
21.94
-24.19
-71.95
-121.45
-172.26
-223.85
-276.45
-331.46
-391.25
-457.87
-530.83
-605.59
-673.78
-725.56
-753.34
-754.72
-733.03
-695.85
-651.75
-606.91
-563.82
-522.08
-480.43
-438.91
-398.73
-360.50
-324.02
-288.14
-250.86
-210.52
-166.89
-121.37
-77.46
-38.53
-4.73
25.60
54.83
85.98
121.35
161.31
204.09
245.19
280.04
308.37
331.64
351.55
370.94
392.90
420.17
454.56
494.16
534.69
573.20
604.66
622.14
621.53
603.15
571.79
545.41
538.58
538.00
533.51
526.23
515.21
501.14
485.78
470.43
454.17
431.49
396.25
348.03
289.59
224.88
159.94
100.44
49.80
7.78
-32.12
-77.68
-132.53
-197.22
-269.81
-344.20
-410.61
-456.81
-471.88
-453.32
-404.75
-333.52
-250.92
-171.10
-107.28
-68.12
-54.88
-63.29
-90.64
-131.48
-177.54
-220.34
-254.90
-280.85
-300.90
-317.38
-333.54
-358.72
-398.82
-453.07
-514.14
-572.23
-619.24
-650.05
-661.77
-611.57
-481.13
-285.06
-66.20
132.54
289.18
402.45
474.90
523.97
557.23
568.40
550.97
504.64
436.56
358.92
281.08
207.70
147.34
103.79
72.15
45.40
18.63
-7.97
-30.76
-45.99
-50.70
-41.70
-18.99
12.37
46.51
78.42
105.00
124.98
138.79
148.75
158.38
168.00
172.66
164.77
137.68
89.90
27.35
-37.61
-89.73
-116.31
-113.40
-87.19
-50.65
-17.33
4.15
12.44
11.77
8.19
5.70
4.31
1.59
-4.55
-13.69
-22.78
-27.54
-25.63
-16.88
-4.14
8.23
16.31
18.41
15.34
9.61
4.08
0.36
-1.61
-3.48
-7.29
-14.36
-24.60
-36.49
-47.67
-55.83
-59.80
-59.86
-57.44
-54.39
-52.15
-51.41
-52.11
-53.67
-55.20
-56.36
-57.40
-59.06
-62.09
-66.95
-73.64
-81.85
-90.87
-99.60
-107.52
-114.65
-121.38
-127.98
-134.17
-138.94
-140.47
-138.68
-132.27
-120.55
-103.96
-83.91
-62.02
-39.41
-16.48
6.94
32.81
63.11
97.92
134.99
170.46
200.62
223.37
238.77
248.61
258.06
272.46
294.34
322.48
352.92
381.33
405.20
424.59
441.67
463.08
496.35
546.46
613.72
693.39
776.98
854.20
915.21
928.08
872.47
747.55
574.37
386.46
213.63
71.29
-39.43
-125.10
-188.83
-234.89
-264.06
-277.85
-281.65
-284.51
-295.69
-321.49
-364.20
-420.80
-484.74
-549.39
-610.37
-665.04
-710.64
-743.24
-758.94
-756.44
-738.61
-710.40
-676.06
-637.54
-594.19
-544.40
-487.86
-426.89
-365.84
-308.91
-257.64
-210.43
-164.94
-120.40
-78.41
-41.61
-11.09
15.25
42.67
77.43
123.76
180.33
239.10
287.17
310.94
300.83
254.80
179.21
86.80
-7.07
-88.64
-148.86
-184.51
-197.31
-191.84
-173.37
-146.11
-112.77
-75.22
-35.89
1.37
31.38
49.38
53.77
47.36
37.33
32.66
40.72
64.39
100.77
141.88
177.02
196.01
192.31
165.41
121.07
69.58
22.29
-12.12
-29.93
-32.47
-24.03
-8.95
10.83
35.58
66.37
103.01
142.79
181.27
213.70
236.53
248.41
250.90
246.88
239.27
230.18
219.67
207.38
193.07
177.36
162.48
153.42
155.49
172.60
205.51
249.85
299.31
346.57
385.03
410.83
425.35
432.34
435.93
438.90
439.97
438.24
432.95
423.44
409.55
393.41
376.36
358.58
339.44
316.05
289.16
261.83
237.67
203.93
153.06
82.87
-1.51
-75.00
-132.17
-174.40
-204.51
-228.41
-248.43
-264.09
-276.19
-287.59
-302.39
-327.23
-365.18
-415.43
-473.24
-529.83
-572.87
-591.32
-579.14
-536.51
-471.24
-392.95
-310.11
-227.67
-146.12
-62.51
27.66
121.44
208.48
278.89
325.24
344.02
337.07
311.01
274.91
236.87
201.32
169.72
141.33
115.31
92.09
73.20
60.15
53.29
51.25
51.30
51.51
51.43
52.10
55.54
63.70
77.28
95.20
114.83
132.73
146.15
153.77
155.37
151.72
144.04
133.32
119.97
103.84
84.50
61.90
36.70
10.16
-16.03
-40.10
-60.54
-76.63
-88.49
-97.05
-103.62
-109.51
-115.71
-122.63
-130.12
-137.63
-144.70
-151.35
-158.22
-166.45
-177.33
-191.67
-209.48
-230.02
-251.81
-273.19
-292.80
-309.88
-324.64
-338.58
-354.45
-375.78
-405.27
-442.78
-483.93
-520.08
-540.31
-534.74
-498.34
-433.16
-348.66
-259.40
-181.04
-126.30
-102.17
-109.36
-143.50
-197.05
-260.82
-325.05
-380.07
-417.20
-430.18
-416.59
-378.70
-323.13
-258.93
-195.01
-138.04
-91.13
-54.07
-24.19
2.56
30.53
63.35
103.37
151.39
206.66
266.52
326.16
378.70
416.83
435.66
435.92
425.47
417.31
424.17
452.26
497.57
547.11
584.79
598.74
586.10
553.00
510.23
467.50
429.81
397.32
367.98
340.60
316.19
297.23
285.52
280.45
278.63
275.35
266.70
251.10
229.73
205.74
182.50
162.05
144.39
127.67
109.18
86.55
58.72
26.22
-9.09
-44.85
-78.86
-109.74
-137.06
-161.28
-183.38
-204.50
-225.59
-247.10
-268.93
-290.48
-311.16
-330.64
-349.18
-367.67
-387.40
-409.75
-436.16
-468.20
-507.25
-553.60
-605.11
-656.36
-699.21
-724.97
-727.60
-706.18
-665.44
-613.79
-560.01
-510.35
-467.30
-430.40
-398.19
-369.73
-345.00
-324.19
-306.83
-291.39
-275.89
-258.84
-240.00
-220.29
-201.46
-184.99
-171.40
-160.05
-149.41
-137.77
-123.92
-107.67
-89.69
-71.24
-53.48
-37.08
-22.01
-7.77
6.25
20.32
34.24
47.55
59.60
69.79
77.79
83.63
87.70
90.60
92.98
95.36
98.27
102.05
106.84
112.56
118.97
125.71
132.41
138.67
144.14
149.08
153.77
158.40
162.85
166.78
169.75
171.52
172.03
171.37
171.26
173.25
178.14
185.48
193.66
200.71
205.03
205.72
202.57
199.16
199.17
205.16
217.39
234.01
252.37
270.34
286.83
301.49
319.53
345.78
382.76
429.02
479.65
528.70
571.53
605.86
631.50
656.44
689.05
735.33
796.48
869.23
948.62
1030.75
1113.92
1155.36
1122.92
1001.41
802.93
561.79
316.53
94.72
-91.13
-239.78
-356.03
-440.09
-492.59
-515.92
-516.02
-501.79
-482.28
-464.02
-450.37
-442.33
-434.74
-422.38
-402.30
-375.21
-344.92
-315.82
-290.78
-270.64
-255.09
-240.51
-223.71
-203.27
-180.00
-156.35
-134.78
-116.51
-101.45
-88.69
-75.55
-59.31
-38.86
-15.84
5.16
18.13
18.13
3.82
-20.76
-49.51
-74.71
-90.79
-96.42
-94.29
-88.91
-83.95
-80.66
-78.11
-74.89
-70.04
-64.05
-58.47
-54.68
-52.99
-52.44
-51.25
-47.55
-40.83
-31.51
-21.06
-11.54
-4.62
-0.96
0.04
-0.04
0.80
3.71
9.52
18.29
29.23
41.02
51.97
60.52
65.82
68.15
67.92
66.37
64.56
62.65
59.72
53.92
42.85
23.81
-0.90
-29.39
-57.72
-80.01
-89.98
-83.50
-61.06
-28.32
5.80
32.85
47.67
50.81
47.05
42.36
40.89
43.67
49.40
56.05
62.26
66.98
69.60
69.33
65.23
56.87
44.63
29.82
14.29
-0.26
-13.08
-24.12
-33.99
-43.46
-52.92
-62.15
-69.81
-73.86
-72.04
-62.68
-45.29
-21.21
6.37
33.11
54.97
69.90
78.63
84.26
90.54
99.86
111.96
124.13
132.86
135.84
133.17
126.91
119.61
112.74
106.33
100.02
94.26
90.86
91.93
98.27
107.98
116.68
119.19
111.54
92.87
65.15
32.29
-1.91
-34.96
-66.06
-95.74
-125.28
-156.07
-188.61
-222.19
-254.67
-283.38
-306.27
-322.92
-334.28
-341.12
-342.69
-336.27
-318.89
-289.85
-252.62
-214.33
-182.93
-163.83
-157.60
-160.65
-167.66
-174.51
-179.75
-183.98
-188.01
-191.24
-191.81
-187.38
-176.89
-161.31
-143.03
-124.22
-105.20
-84.07
-57.72
-24.22
15.28
55.98
91.10
114.74
124.40
121.97
112.57
102.43
96.87
99.35
111.33
132.40
160.27
190.74
218.38
237.91
245.90
242.05
228.93
210.51
190.32
170.40
151.13
131.98
111.96
89.51
62.39
28.03
-15.12
-65.89
-119.37
-167.92
-203.54
-221.15
-220.43
-205.70
-183.85
-161.55
-143.36
-130.95
-123.72
-119.70
-116.46
-111.83
-104.49
-94.30
-82.21
-69.70
-57.94
-47.30
-37.60
-28.95
-22.43
-19.96
-23.16
-31.74
-42.73
-51.21
-52.32
-43.70
-26.78
-6.32
11.61
22.23
24.09
19.73
14.73
15.62
27.38
51.50
85.00
121.36
152.79
173.19
180.51
177.44
170.01
165.00
167.21
177.96
194.93
213.49
228.17
234.27
229.17
213.14
189.27
162.68
138.52
119.86
106.22
93.82
77.14
51.31
14.18
-32.78
-85.05
-136.60
-181.60
-215.89
-237.65
-247.14
-246.00
-236.18
-219.32
-196.80
-170.18
-141.59
-113.48
-87.82
-65.08
-44.04
-22.43
1.71
28.90
57.98
86.80
113.33
136.31
155.40
170.75
182.63
191.20
196.68
199.65
201.27
203.28
207.61
215.80
228.13
243.15
257.57
267.03
267.34
255.72
231.62
196.67
153.98
107.29
60.12
15.19
-25.97
-63.07
-97.13
-130.00
-163.64
-199.48
-238.07
-279.46
-323.49
-369.69
-416.36
-459.84
-494.18
-512.51
-509.17
-481.88
-432.28
-364.79
-284.90
-198.09
-110.46
-29.88
33.33
68.19
67.01
29.58
-34.71
-108.65
-172.36
-209.74
-213.37
-185.89
-137.83
-82.70
-32.11
7.70
36.53
58.37
78.31
99.77
123.32
147.48
170.71
192.84
215.28
239.72
266.12
291.44
309.95
315.18
302.50
271.25
224.54
167.65
105.80
42.69
-19.92
-81.57
-142.23
-201.44
-257.86
-310.06
-356.96
-398.08
-432.89
-460.13
-477.70
-483.28
-475.57
-454.71
-423.52
-386.97
-350.47
-317.67
-289.25
-263.60
-238.26
-211.58
-181.52
-147.92
-112.63
-78.35
-46.84
-18.26
8.04
32.36
54.29
76.89
101.95
128.05
151.00
167.13
175.48
177.50
175.72
172.64
176.54
193.04
221.77
257.05
293.33
328.76
364.72
403.84
448.61
509.24
592.51
696.29
809.01
915.46
1002.23
1059.72
1083.17
1021.87
856.17
613.80
357.04
138.79
-21.58
-130.19
-201.70
-248.98
-280.28
-292.05
-282.09
-255.43
-223.55
-197.29
-181.63
-175.98
-176.89
-180.76
-178.77
-165.67
-143.37
-119.78
-103.24
-98.20
-105.04
-121.65
-144.93
-166.22
-179.60
-183.95
-182.47
-179.55
-177.95
-178.41
-180.55
-183.85
-186.20
-186.45
-184.32
-179.38
-169.68
-151.96
-124.03
-87.14
-46.37
-8.05
22.10
41.35
50.50
52.87
52.12
50.50
48.33
45.11
40.87
36.66
34.15
34.45
37.26
40.91
43.32
42.87
39.50
34.58
30.19
28.22
29.42
33.10
37.40
40.28
40.37
37.81
34.03
31.10
30.76
33.56
38.63
44.04
47.88
48.87
47.15
43.92
40.87
39.52
40.95
45.75
53.61
62.90
70.19
70.85
60.47
36.99
2.43
-37.36
-74.61
-102.88
-119.43
-125.78
-126.16
-124.91
-124.38
-124.42
-123.91
-121.05
-115.49
-108.07
-100.05
-92.20
-84.47
-76.29
-66.83
-55.87
-43.94
-32.36
-22.65
-15.96
-12.64
-12.15
-13.71
-16.89
-21.91
-28.91
-36.94
-43.04
-42.71
-31.43
-7.03
28.91
71.19
112.49
145.47
164.51
166.57
151.40
121.38
81.04
36.36
-6.45
-42.33
-68.28
-83.51
-89.04
-86.89
-79.49
-69.77
-60.89
-55.53
-54.87
-57.76
-60.89
-60.63
-54.92
-44.26
-31.09
-17.90
-5.19
8.84
26.96
50.08
74.72
93.45
98.56
86.24
59.79
29.18
6.84
2.06
19.52
57.40
109.20
167.13
224.34
275.43
315.53
339.10
341.93
323.73
289.32
247.90
209.61
181.68
166.02
159.51
154.93
145.08
125.35
94.18
52.55
2.67
-52.69
-110.64
-168.30
-224.49
-277.87
-326.56
-368.61
-402.32
-427.09
-443.22
-451.75
-443.90
-413.89
-360.49
-288.27
-206.38
-124.22
-48.87
15.67
67.68
106.91
132.96
146.81
151.30
149.37
144.74
138.19
128.78
114.64
93.84
63.79
22.73
-29.06
-88.04
-147.23
-197.64
-230.04
-238.15
-221.30
-185.80
-145.44
-108.04
-78.54
-58.32
-46.02
-38.97
-35.19
-34.13
-36.37
-42.16
-49.97
-58.09
-64.96
-70.66
-75.78
-81.09
-86.94
-92.62
-96.31
-95.38
-88.38
-75.34
-57.69
-37.50
-16.73
3.52
23.41
44.04
66.84
92.13
119.11
146.16
171.75
195.03
216.22
236.59
258.07
283.02
313.42
350.33
392.98
437.94
478.90
507.81
517.42
503.94
469.04
419.27
363.66
310.40
264.40
227.00
197.34
174.29
157.14
145.00
135.57
124.66
107.36
80.19
43.01
-0.79
-45.65
-86.48
-120.74
-149.05
-174.33
-200.25
-229.82
-264.40
-303.08
-342.43
-376.91
-400.05
-406.62
-394.51
-365.57
-324.86
-278.44
-231.08
-185.12
-141.10
-99.29
-61.12
-29.17
-5.88
8.19
15.04
18.58
22.75
29.66
38.98
48.38
54.92
56.51
52.59
44.27
33.97
25.07
21.46
26.84
43.75
72.33
109.56
149.58
185.09
209.57
219.31
214.41
198.48
177.06
155.84
139.15
129.20
126.08
128.08
132.29
135.05
132.81
122.84
104.12
77.62
45.99
12.64
-19.56
-49.06
-75.85
-101.13
-126.42
-153.15
-182.64
-216.31
-255.63
-301.07
-350.53
-398.38
-436.04
-454.70
-448.81
-418.59
-369.84
-311.23
-250.60
-192.30
-136.92
-83.07
-29.75
22.14
69.84
109.79
138.90
155.24
158.36
149.26
130.59
106.45
81.51
59.82
43.64
33.02
26.40
21.71
17.36
12.85
8.76
6.83
9.76
20.65
41.91
73.98
114.14
156.42
193.03
216.87
224.10
215.79
197.50
177.24
162.61
158.32
164.91
179.21
195.93
209.68
216.64
215.10
205.17
187.75
163.73
133.76
98.66
60.02
20.18
-18.29
-53.69
-85.98
-116.85
-148.94
-184.68
-225.58
-271.82
-321.96
-372.60
-418.24
-452.00
-467.63
-462.08
-437.25
-399.68
-357.86
-318.71
-284.97
-255.30
-226.42
-196.04
-164.40
-133.83
-106.84
-84.62
-66.72
-52.06
-40.26
-31.72
-26.55
-23.21
-17.76
-4.34
23.19
68.97
133.05
210.27
290.42
360.14
406.22
419.63
398.83
350.82
288.98
228.61
181.67
153.49
142.72
144.23
153.10
166.95
185.63
208.73
233.11
252.42
259.14
248.08
218.96
176.98
130.29
86.56
50.03
20.66
-4.65
-30.07
-58.96
-93.24
-133.39
-178.66
-227.07
-275.20
-318.40
-351.48
-370.19
-372.54
-359.82
-336.33
-308.37
-282.31
-262.73
-250.98
-245.09
-240.83
-233.59
-220.48
-201.36
-178.57
-155.40
-134.23
-115.44
-97.55
-78.77
-58.28
-36.89
-16.55
1.05
15.45
27.69
39.67
53.14
68.85
86.19
103.34
117.77
127.07
129.94
126.98
121.02
116.37
117.36
126.47
143.21
164.25
184.98
201.66
213.15
221.43
230.48
244.15
263.96
287.63
309.41
321.94
319.02
298.07
261.11
213.61
161.94
110.71
60.99
10.68
-43.26
-102.18
-164.11
-224.01
-275.96
-315.53
-341.17
-353.78
-355.33
-347.47
-331.39
-308.66
-282.23
-256.28
-234.61
-218.49
-205.36
-189.95
-167.15
-135.19
-96.96
-58.64
-26.57
-4.38
8.03
13.40
15.20
16.07
17.61
21.15
28.43
41.39
61.06
86.11
112.30
133.42
143.49
139.52
123.20
101.05
82.53
76.55
88.07
115.88
153.02
189.68
217.44
232.84
238.64
242.08
250.75
268.54
293.34
317.93
333.27
332.53
313.65
279.51
235.85
188.09
139.50
90.96
42.32
-6.06
-52.65
-95.91
-135.91
-175.02
-216.75
-263.15
-312.79
-360.46
-399.11
-422.69
-428.16
-415.94
-388.89
-351.06
-307.17
-262.46
-222.40
-191.30
-170.37
-156.70
-144.25
-126.65
-100.46
-66.75
-30.19
3.68
31.23
51.56
65.67
74.72
78.99
78.00
71.85
62.27
52.65
46.92
47.73
55.22
66.55
76.87
81.11
76.27
63.01
46.11
33.19
31.93
46.88
77.25
116.85
156.43
187.65
206.26
213.46
214.40
214.96
218.59
224.81
230.03
229.91
221.82
205.86
184.10
158.84
130.90
99.11
61.11
14.78
-40.34
-102.25
-166.48
-226.80
-276.32
-308.88
-320.45
-310.61
-283.26
-245.80
-206.72
-172.80
-147.18
-129.34
-117.12
-108.98
-106.00
-111.38
-127.81
-154.31
-184.98
-210.61
-222.28
-215.22
-190.42
-154.71
-118.32
-91.19
-79.42
-83.47
-98.58
-116.62
-128.54
-125.96
-103.55
-60.67
-1.54
65.99
132.25
188.14
227.99
247.00
246.37
233.96
219.76
210.11
205.95
204.61
203.03
199.74
194.66
188.42
181.00
171.28
158.09
141.75
124.18
108.25
96.80
91.28
91.64
96.38
102.70
107.34
107.95
103.93
95.37
83.37
69.02
52.55
32.72
7.19
-25.60
-63.21
-99.62
-126.69
-137.22
-128.24
-102.40
-66.71
-29.82
0.35
18.09
20.19
6.11
-22.05
-58.17
-93.67
-119.01
-126.86
-115.21
-88.17
-54.26
-22.66
0.13
11.78
13.73
10.83
10.08
17.99
37.61
66.99
99.15
124.46
134.72
126.35
102.70
72.76
46.15
28.16
18.27
11.05
-0.61
-18.98
-44.33
-75.41
-106.84
-127.72
-131.38
-118.07
-94.92
-72.17
-57.51
-53.86
-58.94
-67.24
-74.43
-79.09
-81.06
-79.93
-75.94
-65.36
-46.24
-20.23
6.81
25.55
27.39
9.61
-22.73
-58.95
-86.51
-98.32
-94.10
-76.84
-56.86
-45.37
-48.43
-65.10
-90.55
-118.38
-145.84
-172.40
-196.13
-213.07
-216.88
-201.26
-163.10
-105.88
-36.42
32.94
89.87
124.58
133.77
124.36
110.52
107.63
122.91
156.81
198.50
235.82
258.56
262.58
252.61
238.12
229.40
221.81
228.99
247.66
274.96
305.78
324.04
316.91
278.55
229.79
180.70
137.14
92.96
48.97
8.91
-21.73
-37.10
-39.97
-37.38
-42.88
-65.61
-109.37
-167.60
-229.73
-285.64
-327.60
-352.67
-362.76
-363.77
-359.26
-352.59
-344.28
-334.59
-323.43
-309.94
-293.33
-272.89
-250.70
-228.60
-208.76
-191.64
-176.90
-163.33
-148.81
-131.49
-110.41
-86.81
-62.58
-39.86
-19.77
-2.14
14.55
32.81
55.30
83.97
118.80
157.61
195.58
226.34
243.91
245.47
233.46
215.63
202.79
204.62
225.33
261.37
302.17
333.73
343.19
322.97
272.81
199.52
114.99
33.05
-33.72
-76.72
-92.87
-84.66
-58.60
-22.93
14.35
47.27
72.55
89.54
99.85
106.60
113.71
125.42
145.62
177.10
220.40
272.79
327.88
376.65
410.00
421.88
411.30
382.18
341.10
294.12
244.82
194.60
144.63
97.89
59.66
35.58
28.73
37.41
55.29
73.71
84.90
84.45
71.90
49.77
21.82
-8.53
-38.87
-67.67
-93.78
-116.29
-134.52
-148.67
-160.18
-171.47
-185.54
-205.04
-231.57
-265.17
-304.11
-344.81
-382.27
-411.21
-427.86
-431.89
-426.84
-418.86
-413.68
-413.47
-415.54
-413.78
-402.08
-377.83
-343.33
-304.31
-266.87
-234.36
-206.40
-180.02
-152.18
-121.73
-89.71
-58.53
-29.78
-3.45
22.08
49.38
80.94
118.52
162.74
212.69
265.70
317.71
363.08
395.73
410.77
405.81
381.70
342.28
293.52
242.33
196.37
161.89
142.74
139.69
150.36
170.21
193.84
216.19
232.92
241.34
238.92
223.54
194.60
154.08
106.94
60.18
20.64
-12.59
-40.41
-64.65
-86.89
-107.54
-125.90
-140.53
-149.65
-152.07
-147.98
-138.07
-124.93
-112.08
-102.75
-99.17
-102.17
-111.15
-123.25
-136.27
-145.85
-146.71
-134.54
-108.94
-75.59
-45.12
-28.64
-32.62
-55.19
-85.73
-110.41
-118.61
-107.36
-81.57
-49.54
-18.44
8.06
30.24
50.63
70.63
89.03
102.74
108.56
101.99
83.07
55.34
24.29
-4.97
-29.90
-50.74
-67.65
-83.02
-97.31
-108.24
-112.59
-107.60
-92.02
-66.78
-33.99
3.76
43.74
83.61
121.19
153.56
177.22
188.80
186.08
169.09
140.20
103.65
65.06
30.19
3.24
-14.06
-22.66
-25.42
-25.48
-24.91
-23.87
-20.43
-11.74
4.25
27.59
56.23
86.48
113.98
133.84
141.27
132.72
107.22
67.66
20.97
-23.36
-56.33
-72.81
-74.18
-67.70
-63.15
-68.44
-86.45
-114.69
-147.32
-178.24
-200.74
-210.22
-205.30
-187.86
-161.64
-130.27
-96.44
-62.21
-29.79
-1.41
20.92
36.32
45.51
50.70
54.67
59.38
65.49
72.29
78.26
81.78
82.00
79.30
75.26
72.03
71.17
73.35
77.98
83.55
88.24
90.64
90.26
87.62
84.26
80.60
76.47
70.76
61.69
47.47
27.04
0.75
-29.55
-60.14
-88.13
-111.50
-129.66
-143.22
-153.46
-161.78
-169.45
-177.55
-186.67
-196.27
-203.80
-205.05
-195.67
-173.44
-140.07
-101.30
-64.82
-37.25
-21.57
-16.26
-16.92
-18.89
-19.34
-18.05
-15.55
-12.30
-7.84
-1.28
7.95
19.26
30.86
40.52
46.30
47.64
45.17
40.50
35.33
30.78
27.03
23.42
18.92
12.70
4.69
-4.51
-13.56
-21.22
-26.70
-29.97
-31.69
-32.91
-34.59
-37.23
-40.81
-44.43
-47.19
-48.47
-48.26
-47.14
-46.14
-46.25
-48.03
-51.47
-55.34
-58.24
-58.90
-56.64
-51.46
-43.86
-34.25
-22.29
-10.04
2.65
16.63
32.80
51.73
73.38
97.05
121.32
144.05
162.61
175.09
180.36
178.85
172.42
163.57
154.15
144.42
133.08
118.31
99.69
78.59
57.98
41.15
29.95
23.72
19.57
13.90
4.20
-9.07
-22.66
-31.68
-31.25
-18.17
8.21
45.69
89.45
132.61
167.59
187.89
190.38
176.99
154.44
131.89
117.30
114.49
122.38
136.93
154.27
173.10
194.79
221.28
252.37
284.32
310.75
325.10
323.37
305.44
274.62
236.13
194.79
153.64
113.52
73.64
32.68
-9.84
-52.99
-94.46
-131.59
-162.62
-187.72
-209.07
-230.08
-253.99
-282.71
-316.57
-354.47
-394.25
-432.66
-464.92
-484.73
-485.18
-461.32
-413.01
-346.76
-275.11
-212.95
-172.37
-158.51
-168.58
-194.44
-227.13
-260.25
-290.77
-317.19
-336.97
-345.58
-337.99
-311.50
-267.98
-213.94
-157.75
-106.20
-62.11
-24.46
9.75
42.95
75.52
106.09
132.84
154.87
173.19
190.47
210.19
235.12
265.61
298.82
328.97
349.16
353.87
341.28
314.02
278.07
240.15
205.24
175.40
150.24
128.67
110.37
96.11
86.84
82.39
80.94
79.64
76.28
70.58
64.44
60.96
62.65
69.94
80.81
91.61
98.52
98.94
92.28
79.89
64.41
48.77
35.26
24.89
17.05
9.81
0.48
-13.34
-32.77
-57.06
-83.49
-108.09
-126.72
-136.29
-135.60
-125.59
-108.83
-88.79
-69.08
-53.01
-43.22
-41.26
-47.00
-58.14
-70.29
-78.03
-76.62
-63.87
-40.93
-11.77
18.63
46.28
69.35
88.02
103.36
115.97
125.37
129.95
127.80
117.48
98.69
72.37
40.77
7.19
-24.56
-50.71
-68.37
-75.97
-73.64
-63.00
-46.78
-28.07
-9.53
7.30
22.64
38.16
56.32
78.86
105.47
133.11
156.79
171.58
174.33
164.82
144.85
117.46
85.80
52.69
21.21
-4.82
-20.53
-22.19
-8.40
17.50
49.09
78.89
100.96
112.46
113.18
105.09
89.20
66.03
34.34
-6.28
-54.52
-107.38
-160.88
-211.74
-256.91
-296.25
-330.32
-362.17
-394.81
-430.53
-470.24
-512.93
-556.50
-596.59
-630.62
-639.72
-609.36
-533.29
-418.16
-281.75
-144.79
-34.07
46.35
98.13
125.11
130.24
118.15
97.01
75.28
62.81
63.92
77.28
94.16
105.61
105.84
95.44
79.40
62.71
49.15
39.58
34.45
32.64
34.15
39.31
49.12
63.98
83.22
105.43
128.14
149.31
166.59
179.06
187.34
193.89
202.28
216.08
237.54
265.66
295.96
320.31
329.29
314.89
273.32
206.80
123.81
37.69
-36.78
-87.18
-107.18
-98.25
-68.89
-31.52
2.07
24.80
36.39
41.96
48.56
61.02
79.51
99.99
116.84
125.97
126.85
122.31
116.48
112.55
111.44
112.15
113.01
112.93
111.60
108.81
103.18
91.95
71.84
40.94
0.56
-44.18
-85.40
-115.27
-128.95
-126.79
-114.52
-101.11
-95.80
-105.33
-132.18
-174.51
-226.62
-279.56
-322.19
-343.09
-333.59
-291.47
-223.30
-143.85
-72.07
-24.61
-9.76
-24.42
-55.97
-87.89
-106.35
-104.79
-84.70
-53.18
-19.25
8.74
24.41
23.45
4.27
-31.34
-77.16
-123.15
-157.87
-171.84
-160.74
-126.41
-75.43
-16.52
42.03
93.96
135.55
165.72
185.91
199.34
209.74
219.60
229.05
236.28
239.18
237.22
231.93
225.86
220.50
214.98
206.27
190.95
167.31
136.35
101.18
65.32
31.37
0.38
-27.56
-52.27
-73.04
-88.55
-97.59
-99.73
-95.60
-86.74
-75.07
-62.30
-49.90
-39.74
-34.56
-37.70
-51.63
-75.80
-105.24
-131.21
-144.26
-138.41
-114.10
-78.32
-41.60
-13.65
0.21
-0.14
-11.15
-28.15
-47.09
-64.88
-78.69
-85.97
-85.48
-78.57
-69.71
-64.90
-68.71
-81.40
-97.98
-109.72
-107.62
-85.97
-44.25
12.50
75.31
133.79
178.65
203.95
208.27
195.00
171.25
145.84
126.66
118.47
121.82
133.57
148.59
161.65
168.86
168.21
159.58
144.18
124.13
101.99
80.34
61.40
46.65
36.55
30.65
28.04
27.88
29.81
34.05
40.97
50.83
63.34
77.45
91.19
101.59
104.93
97.40
76.00
39.70
-9.54
-66.44
-123.18
-171.36
-204.78
-221.75
-225.86
-224.67
-226.59
-237.33
-257.50
-282.48
-304.67
-316.81
-314.67
-298.16
-270.54
-236.97
-203.25
-175.03
-157.19
-152.80
-161.64
-179.44
-198.40
-209.50
-205.39
-182.92
-143.90
-93.72
-38.99
14.81
64.72
110.29
152.67
193.48
233.91
274.08
312.78
347.43
374.38
389.73
390.43
375.53
346.78
308.46
266.47
226.75
193.78
169.49
152.99
141.17
129.87
115.43
96.11
73.09
50.40
33.77
28.81
38.86
63.57
98.72
137.25
171.33
194.33
202.21
194.04
171.41
137.50
96.04
50.52
3.91
-41.49
-84.06
-122.83
-157.59
-188.94
-218.23
-247.55
-279.21
-315.21
-356.42
-402.00
-448.97
-492.23
-525.60
-543.21
-541.26
-519.20
-479.86
-428.43
-370.75
-311.75
-254.61
-200.94
-151.34
-106.04
-64.97
-27.76
6.57
39.35
71.89
105.17
139.64
175.57
213.19
252.49
292.73
332.21
368.77
400.49
426.38
446.22
459.72
465.57
461.40
444.84
415.09
374.04
325.72
274.54
223.12
171.71
119.52
67.24
18.74
-19.33
-40.05
-39.34
-17.83
19.20
63.69
107.06
142.13
164.00
170.21
160.62
137.23
103.81
65.18
26.05
-9.97
-40.97
-66.72
-88.37
-108.10
-128.67
-152.52
-180.44
-210.45
-237.67
-255.76
-259.80
-248.77
-226.85
-202.29
-184.38
-180.33
-193.38
-223.02
-266.23
-318.67
-374.86
-427.84
-469.28
-491.00
-487.55
-458.55
-409.28
-348.82
-286.75
-229.82
-180.40
-137.20
-97.27
-58.19
-18.96
20.23
59.28
99.13
141.75
189.11
241.46
296.31
348.29
390.97
419.13
430.52
426.29
409.90
385.57
357.26
328.75
304.00
287.25
281.91
288.77
304.71
323.00
335.50
335.59
320.54
291.85
254.02
212.55
172.01
135.22
103.51
77.31
56.62
41.01
29.17
18.56
5.57
-13.42
-40.55
-75.09
-113.40
-150.34
-181.58
-205.74
-225.01
-244.00
-267.58
-299.25
-340.23
-389.31
-443.17
-496.43
-541.97
-572.04
-580.22
-563.74
-525.45
-472.95
-415.80
-361.83
-314.64
-273.75
-236.55
-200.81
-166.01
-133.87
-106.49
-84.67
-67.04
-50.52
-31.68
-7.88
22.14
57.97
96.26
131.17
155.17
161.09
144.71
106.38
51.30
-11.85
-66.98
-99.23
-99.32
-67.73
-13.79
49.69
112.29
168.21
215.20
252.48
278.58
292.19
293.20
283.77
267.85
250.09
234.27
222.74
216.01
212.22
208.44
201.82
190.99
175.84
157.96
138.43
118.31
97.91
76.36
51.97
23.15
-10.42
-47.19
-85.36
-123.51
-160.20
-193.35
-219.60
-234.12
-234.77
-217.30
-181.58
-132.41
-78.08
-27.05
14.76
45.46
66.51
80.92
91.32
98.24
100.98
99.01
93.03
84.66
75.66
65.11
52.97
39.29
23.65
6.01
-12.82
-31.40
-48.18
-62.19
-73.29
-82.04
-89.46
-96.64
-104.20
-112.03
-119.47
-126.03
-131.11
-134.63
-136.86
-138.55
-140.22
-142.25
-144.53
-146.65
-148.13
-148.60
-148.04
-146.60
-144.75
-142.51
-139.86
-136.69
-132.72
-127.65
-121.03
-112.37
-100.90
-88.48
-76.04
-64.39
-54.27
-46.26
-40.76
-37.84
-37.31
-38.67
-41.32
-43.96
-45.55
-45.40
-43.12
-38.65
-31.99
-23.22
-12.49
-0.13
14.38
31.05
49.36
68.35
86.96
104.53
120.92
136.49
151.63
168.27
187.49
209.21
232.27
