1593006542.00
64.000000
-0.00
-0.00
-0.00
-0.00
-0.00
-0.00
-0.00
-0.00
-0.00
-0.00
0.00
0.01
0.01
-0.00
-0.03
-0.05
-0.05
0.00
0.13
0.36
0.66
1.01
1.37
1.72
2.06
2.40
2.79
3.24
3.80
4.42
5.06
5.66
6.20
6.68
7.15
7.68
8.31
9.14
10.09
11.04
11.88
12.56
13.14
13.76
14.65
15.96
17.91
20.32
22.90
25.38
27.58
29.57
31.68
34.32
37.81
42.54
48.15
54.10
59.83
64.97
69.58
74.14
79.34
85.71
93.76
103.00
112.62
121.73
129.77
136.75
143.30
150.75
157.77
166.64
177.95
191.79
206.97
220.57
228.25
225.36
208.53
176.87
132.76
80.05
23.07
-34.94
-92.44
-149.16
-205.23
-260.37
-313.74
-363.87
-409.83
-450.91
-486.50
-515.74
-537.23
-549.22
-549.96
-538.37
-514.21
-478.67
-433.88
-382.45
-327.02
-269.84
-212.63
-156.66
-102.95
-52.37
-5.90
35.58
71.43
101.35
125.50
144.38
158.69
169.15
176.37
180.75
182.57
182.07
179.51
175.23
169.65
163.18
156.15
148.81
141.30
133.69
126.02
118.33
110.69
103.16
95.80
88.68
81.83
75.25
68.95
62.95
57.25
51.86
46.78
42.03
37.59
33.46
29.63
26.10
22.86
19.90
17.22
14.82
12.69
10.81
9.18
7.77
6.58
5.58
4.76
4.08
3.54
3.11
2.78
2.56
2.44
2.39
2.37
2.35
2.29
2.19
2.07
2.00
2.03
2.18
2.45
2.78
3.12
3.41
3.64
3.87
4.17
4.61
5.25
6.05
6.92
7.74
8.42
8.93
9.39
9.97
10.86
12.16
13.78
15.47
16.92
17.90
18.35
18.53
18.91
19.95
21.87
24.48
27.23
29.37
30.33
29.92
28.56
26.95
25.78
25.25
24.85
23.40
19.58
12.37
1.63
-11.73
-26.14
-40.11
-52.65
-63.70
-73.92
-84.18
-94.54
-105.84
-118.56
-132.64
-146.81
-158.12
-162.21
-154.85
-134.04
-102.06
-64.25
-27.92
0.65
18.59
26.99
29.42
29.60
29.63
29.57
28.52
25.93
22.24
18.78
16.75
16.49
17.36
18.47
18.97
18.89
18.86
19.76
22.23
26.28
31.26
36.22
40.39
43.41
45.46
46.97
48.35
49.74
50.96
51.80
52.21
52.49
53.15
54.71
57.30
60.51
63.64
65.89
66.83
66.57
65.65
64.94
65.53
68.62
75.08
84.47
94.23
99.57
94.76
75.50
41.17
-4.42
-54.25
-100.74
-138.11
-163.43
-176.26
-177.78
-170.25
-157.05
-142.80
-132.67
-131.12
-140.45
-160.21
-187.80
-219.61
-251.70
-279.70
-298.37
-302.22
-287.27
-253.17
-204.14
-147.79
-92.32
-43.24
-2.71
30.24
58.69
85.76
113.15
141.19
169.85
199.64
231.58
265.87
300.68
331.55
352.26
357.25
344.39
316.39
279.94
242.99
211.64
188.30
171.69
158.97
147.86
138.13
131.14
127.59
125.87
121.69
110.09
88.59
58.83
26.08
-3.97
-28.92
-50.86
-74.25
-101.62
-129.83
-149.98
-151.44
-126.57
-74.37
-0.84
83.49
167.26
240.79
296.99
331.40
341.14
326.51
291.51
243.08
188.81
134.95
84.91
39.67
-0.92
-38.72
-75.11
-111.11
-147.51
-185.10
-224.28
-264.78
-305.64
-345.49
-384.87
-423.80
-460.96
-493.23
-516.53
-527.54
-525.40
-512.33
-480.74
-428.70
-358.49
-276.16
-189.44
-105.49
-29.84
33.65
83.04
118.71
141.28
153.01
156.87
155.72
151.66
146.02
139.77
133.83
129.58
126.82
125.31
124.63
124.48
124.49
124.14
122.94
120.59
117.20
112.10
104.78
94.76
82.12
67.06
50.01
31.60
12.81
-5.13
-21.39
-35.20
-46.11
-53.50
-56.91
-56.19
-51.47
-42.98
-31.06
-16.57
0.58
18.10
34.14
47.39
57.29
63.63
66.99
68.34
68.52
67.87
66.09
62.77
57.56
50.45
41.44
31.69
22.81
16.01
11.59
8.66
5.95
2.15
-3.49
-11.53
-20.69
-29.18
-35.51
-39.42
-41.82
-44.21
-48.16
-55.15
-67.36
-85.13
-107.00
-129.58
-147.86
-156.38
-151.14
-131.63
-95.49
-52.30
-13.61
12.59
24.56
25.65
21.21
15.44
10.01
4.64
-2.36
-10.60
-18.27
-23.43
-25.49
-25.40
-24.92
-25.91
-29.17
-34.97
-41.66
-46.94
-48.88
-46.87
-41.46
-33.81
-24.98
-15.58
-5.72
5.40
18.71
34.76
52.95
71.78
89.42
104.15
114.79
120.53
121.40
117.80
110.43
99.46
85.04
67.53
47.63
26.33
4.66
-16.20
-37.04
-56.44
-73.51
-87.79
-99.02
-106.86
-111.01
-111.02
-106.90
-99.24
-88.73
-76.46
-63.34
-49.75
-35.48
-20.09
-3.29
15.35
35.47
56.59
77.91
98.83
119.27
139.89
162.48
185.36
209.89
238.61
273.99
316.18
361.20
400.93
425.54
426.98
402.20
355.27
295.01
231.49
172.29
119.78
71.50
22.63
-31.52
-93.94
-165.06
-244.45
-331.30
-418.73
-495.05
-546.33
-561.13
-535.57
-474.96
-391.38
-300.16
-215.28
-145.28
-92.17
-52.33
-19.14
14.06
49.60
85.67
117.44
139.16
146.84
139.53
116.97
85.58
54.15
29.40
13.90
6.19
2.98
1.88
2.26
4.55
9.29
15.26
19.83
20.61
16.76
9.41
1.10
-5.40
-8.42
-7.53
-4.03
-0.26
1.57
0.19
-4.38
-10.94
-17.71
-22.96
-25.47
-25.28
-23.45
-21.48
-20.73
-21.84
-24.72
-29.08
-34.85
-41.98
-49.76
-55.97
-56.88
-48.66
-29.55
-1.59
29.45
56.56
73.71
78.45
72.34
59.55
44.50
30.10
17.34
6.20
-3.30
-10.60
-14.82
-15.56
-13.39
-9.77
-6.35
-4.33
-4.12
-5.54
-8.23
-11.88
-16.36
-21.62
-27.44
-33.39
-38.39
-41.70
-43.25
-43.87
-44.90
-47.52
-52.01
-57.41
-61.89
-62.70
-58.29
-49.06
-37.28
-26.06
-18.08
-14.36
-13.73
-13.47
-9.32
1.98
21.65
48.19
77.09
101.76
115.84
116.19
98.44
67.94
36.20
16.77
19.60
46.35
89.10
133.23
163.34
169.11
150.02
113.68
72.53
39.22
22.70
25.87
45.26
72.50
97.26
111.82
112.54
100.65
81.00
59.58
41.16
28.23
21.29
20.06
24.82
35.44
50.61
67.17
80.70
87.01
83.74
71.02
51.00
26.96
2.01
-21.32
-40.94
-55.34
-63.98
-67.48
-67.48
-65.91
-63.74
-60.58
-55.13
-46.34
-34.68
-22.60
-13.62
-10.83
-15.42
-26.25
-40.58
-55.35
-68.32
-78.30
-84.70
-87.02
-84.92
-78.74
-70.10
-61.73
-56.39
-55.41
-58.00
-61.72
-64.00
-63.68
-61.39
-58.80
-57.21
-56.64
-56.03
-54.40
-51.76
-49.07
-47.34
-46.30
-44.49
-40.10
-31.98
-20.46
-7.29
5.07
14.50
19.88
21.51
20.11
16.38
11.19
6.02
2.73
2.98
7.50
15.68
25.86
34.71
38.04
32.61
17.75
-3.95
-26.80
-42.77
-43.31
-22.11
21.13
79.29
139.93
189.76
218.98
224.28
209.12
176.87
135.98
97.45
68.21
48.16
33.89
23.47
17.45
16.92
19.85
22.64
20.44
8.69
-14.25
-46.29
-83.17
-121.61
-161.86
-195.51
-218.71
-230.91
-235.18
-235.35
-233.20
-228.18
-219.06
-205.77
-189.79
-174.94
-164.44
-160.92
-165.25
-175.85
-188.42
-197.17
-196.01
-180.13
-152.35
-113.75
-68.95
-24.69
13.14
42.52
64.25
80.16
91.44
96.63
95.63
89.15
79.28
69.46
64.96
68.81
80.12
94.77
106.89
111.77
110.04
105.25
102.41
108.63
128.92
163.98
209.48
255.83
295.17
320.48
325.85
294.27
220.20
113.29
-5.44
-107.07
-191.31
-265.26
-336.45
-409.80
-484.21
-551.44
-601.00
-624.69
-619.98
-591.72
-543.73
-481.62
-412.50
-342.94
-275.70
-211.38
-150.73
-96.07
-51.26
-11.99
27.08
68.78
112.37
156.35
199.56
241.16
280.14
315.35
355.41
407.26
471.22
540.82
607.58
665.82
713.46
750.86
779.54
812.71
861.31
928.33
1007.58
1088.06
1159.21
1212.06
1239.46
1175.49
991.13
710.30
400.35
126.66
-80.32
-221.55
-312.74
-370.87
-408.01
-421.11
-408.09
-373.71
-330.00
-292.12
-269.09
-262.14
-267.32
-279.15
-286.04
-281.58
-268.48
-251.42
-241.41
-244.82
-261.08
-284.69
-308.98
-324.41
-325.52
-312.78
-291.32
-272.83
-264.97
-268.70
-279.74
-292.58
-301.33
-303.11
-298.72
-291.21
-290.97
-305.09
-334.31
-373.95
-418.04
-461.91
-503.52
-543.32
-544.62
-489.26
-384.94
-260.22
-142.82
-46.05
28.57
85.45
129.25
164.47
187.85
197.08
194.13
185.01
176.70
173.29
176.92
183.25
192.55
199.91
201.37
196.96
190.16
185.46
184.54
188.10
193.32
197.35
194.77
181.35
156.39
121.66
79.68
29.77
-16.17
-51.16
-70.98
-76.07
-70.36
-57.33
-49.84
-47.28
-47.49
-47.40
-48.14
-52.64
-56.18
-57.53
-56.00
-42.30
-12.63
15.39
33.39
41.55
38.35
23.54
-3.27
-41.74
-91.41
-151.65
-209.28
-249.73
-265.70
-259.55
-238.42
-210.83
-182.73
-157.39
-136.62
-121.49
-112.35
-110.22
-115.16
-123.14
-127.85
-122.09
-101.05
-65.14
-19.90
26.07
64.03
88.95
102.21
108.85
114.38
122.94
135.33
150.35
166.20
181.49
195.47
208.34
219.27
226.50
227.93
221.58
206.94
184.82
157.22
124.24
89.60
56.46
26.64
0.69
-21.69
-40.96
-57.56
-71.50
-82.77
-91.00
-96.42
-99.48
-100.60
-100.33
-99.14
-97.44
-95.13
-92.19
-87.99
-82.04
-74.08
-63.31
-49.52
-33.19
-15.34
3.37
22.03
40.60
59.36
78.93
100.08
123.37
149.08
174.27
197.52
216.17
226.33
223.68
205.54
172.60
129.34
82.94
40.74
8.17
-13.30
-25.35
-31.17
-33.48
-33.58
-31.74
-28.13
-23.64
-19.58
-17.58
-18.49
-21.82
-25.91
-28.41
-27.83
-23.90
-17.96
-12.15
-8.78
-9.24
-13.49
-20.12
-27.07
-32.89
-37.21
-40.99
-46.04
-53.94
-65.48
-80.51
-98.05
-116.39
-132.69
-143.11
-143.00
-128.37
-97.91
-54.43
-4.73
42.53
79.88
103.59
113.90
113.91
107.22
96.23
81.70
63.67
42.74
19.85
-1.76
-19.76
-33.33
-43.11
-50.45
-56.64
-62.16
-66.56
-68.61
-67.09
-61.55
-52.35
-40.69
-28.22
-16.26
-5.73
3.15
11.15
19.17
27.77
36.86
45.66
52.82
57.05
57.14
52.42
43.61
31.89
18.77
5.64
-6.68
-19.19
-31.23
-42.41
-52.44
-59.18
-61.44
-57.84
-47.67
-31.46
-10.77
12.65
37.18
58.87
76.09
87.04
90.24
85.46
74.51
60.99
48.90
42.77
41.19
41.72
41.44
38.70
33.54
27.19
20.93
15.33
10.67
6.61
4.35
5.73
12.97
27.79
50.97
82.15
114.89
143.59
161.24
161.55
140.94
101.03
49.09
-4.15
-48.46
-77.95
-91.70
-93.95
-90.31
-85.25
-80.75
-76.93
-73.33
-69.88
-67.29
-65.38
-63.82
-61.75
-58.45
-53.94
-49.76
-48.45
-52.12
-60.97
-71.66
-78.86
-76.64
-61.53
-34.26
0.02
33.42
57.57
65.15
54.12
27.54
-7.26
-40.81
-64.55
-73.56
-67.56
-50.20
-26.76
-0.55
25.88
50.12
68.34
75.09
65.72
38.80
-0.14
-41.25
-74.07
-91.67
-92.42
-78.79
-55.10
-25.93
5.07
34.47
59.48
78.18
90.50
98.64
105.51
112.39
116.00
113.59
98.88
68.46
24.15
-26.67
-73.22
-105.18
-116.29
-106.26
-80.53
-48.08
-17.30
5.05
17.36
21.75
21.52
19.11
15.50
10.99
5.83
1.30
-0.68
1.26
6.87
14.12
20.31
23.62
23.91
22.74
22.66
26.10
33.64
44.37
56.18
66.89
75.20
81.17
85.81
91.07
98.99
110.66
125.39
140.08
149.76
149.19
135.18
108.17
72.95
36.93
7.06
-12.57
-21.66
-22.66
-18.71
-11.91
-3.22
7.45
19.97
32.85
44.04
51.98
56.55
58.95
61.10
64.17
68.69
74.22
78.41
78.94
74.51
65.03
50.68
35.96
22.81
12.13
3.97
-4.47
-15.45
-29.30
-44.34
-58.27
-69.49
-78.18
-85.14
-91.49
-101.90
-119.71
-144.88
-174.14
-203.37
-229.52
-251.64
-269.65
-283.87
-299.38
-319.92
-345.24
-371.46
-393.95
-409.85
-418.69
-421.20
-388.32
-306.79
-185.04
-48.62
77.39
180.19
258.30
315.74
357.99
387.49
404.34
408.00
400.57
387.08
372.63
359.98
349.19
338.45
328.82
316.35
297.90
273.75
247.24
222.20
200.94
184.04
171.18
161.82
152.04
138.88
122.30
104.74
88.89
76.12
66.48
59.34
54.04
46.05
32.33
13.20
-8.28
-29.10
-47.87
-64.55
-79.61
-93.25
-111.51
-137.89
-170.73
-204.63
-234.75
-259.18
-278.24
-292.94
-303.85
-320.01
-346.56
-381.24
-416.48
-445.90
-467.74
-483.69
-496.48
-508.17
-531.59
-574.40
-634.13
-700.88
-765.51
-824.15
-877.06
-926.43
-901.42
-772.61
-565.62
-339.72
-139.20
24.96
161.27
280.77
388.33
482.78
547.84
573.68
565.16
538.78
512.74
497.47
496.27
508.56
533.14
557.63
571.76
571.50
558.45
535.22
503.44
465.34
421.07
375.84
327.95
275.71
219.21
160.89
102.79
44.98
-13.69
-74.43
-126.37
-162.47
-180.19
-183.34
-177.47
-166.48
-152.27
-135.78
-117.75
-98.40
-81.08
-68.13
-60.70
-57.54
-56.16
-54.22
-50.15
-43.12
-32.40
-22.77
-13.47
-4.44
4.61
14.33
25.54
38.51
53.09
68.96
84.59
99.02
110.81
118.79
122.64
123.48
122.66
121.62
121.59
122.40
126.59
133.62
140.77
144.13
141.09
129.37
107.51
75.14
32.22
-20.66
-73.31
-115.07
-139.85
-146.72
-140.24
-125.98
-107.09
-84.97
-60.02
-32.75
-4.61
13.88
24.12
28.86
30.40
31.02
31.66
31.83
29.91
23.09
5.80
-25.85
-67.65
-117.40
-172.91
-232.83
-296.68
-364.55
-419.51
-450.46
-452.43
-429.00
-387.81
-333.73
-268.00
-191.21
-106.54
-21.10
53.48
108.57
140.95
153.22
152.44
146.00
138.74
132.59
127.65
121.81
114.51
106.59
99.10
92.96
88.13
83.59
78.35
72.24
64.83
56.70
49.21
43.36
40.02
39.41
41.31
45.54
52.27
61.55
72.60
86.15
102.06
119.31
136.12
150.34
160.01
163.83
161.12
152.21
138.15
120.25
100.02
78.95
58.33
39.28
22.70
9.20
-0.83
-7.36
-10.86
-12.01
-11.55
-10.13
-8.21
-6.17
-4.15
-2.15
-0.12
1.96
4.06
6.15
8.22
10.24
12.20
14.12
16.06
18.04
19.98
21.85
23.58
25.13
26.45
27.52
27.76
27.31
26.27
24.66
22.44
19.58
16.03
11.76
6.78
1.07
-5.34
-12.49
-20.46
-29.35
-39.23
-50.19
-62.30
-75.62
-90.23
-106.18
-123.54
-142.39
-162.73
-184.44
-207.25
-230.71
-253.98
-276.14
-296.25
-313.35
-326.51
-335.04
-338.49
-336.80
-330.72
-320.61
-306.88
-289.85
-269.95
-247.44
-222.48
-195.25
-165.84
-134.53
-101.64
-67.87
-34.35
-2.35
26.85
51.94
71.77
85.40
92.13
91.51
83.38
67.90
45.51
16.81
-17.13
-54.74
-94.02
-132.41
-166.76
-193.72
-209.88
-212.17
-198.24
-166.84
-118.25
-54.05
22.72
107.96
197.29
286.08
370.11
445.78
510.45
562.64
601.61
627.51
641.17
643.60
635.92
619.03
593.72
560.45
519.65
471.92
418.11
359.33
297.17
233.50
170.22
109.34
52.61
1.69
-42.26
-78.63
-107.82
-130.33
-147.12
-159.38
-168.48
-175.82
-182.54
-189.53
-197.23
-205.82
-215.16
-224.90
-234.70
-244.28
-253.37
-262.07
-270.52
-279.05
-288.08
-297.98
-309.08
-321.62
-335.62
-351.02
-367.48
-384.55
-401.85
-418.88
-435.25
-450.67
-464.89
-477.68
-488.84
-498.22
-505.74
-511.24
-514.70
-516.21
-515.85
-513.76
-509.96
-504.46
-497.16
-487.90
-476.62
-463.41
-448.51
-432.30
-415.22
-397.63
-379.59
-360.71
-340.23
-317.29
-290.96
-260.75
-226.64
-188.96
-148.17
-104.30
-57.08
-5.81
50.09
110.64
174.93
241.11
307.00
370.89
432.14
491.40
550.07
609.43
669.65
729.03
784.05
830.79
866.05
888.55
898.91
899.19
891.90
879.37
863.48
845.40
826.18
806.04
783.45
755.07
716.62
664.76
599.66
525.30
447.09
370.70
299.59
234.38
174.80
122.79
84.07
67.41
79.20
117.38
171.22
224.79
262.84
276.76
267.91
245.84
224.02
213.45
217.95
236.05
263.58
295.02
324.34
345.39
346.80
320.54
272.49
209.21
134.71
55.29
-22.77
-93.54
-151.66
-192.58
-212.83
-212.58
-198.27
-179.70
-166.45
-165.04
-176.46
-196.50
-218.52
-236.08
-245.55
-247.65
-244.43
-237.58
-228.49
-218.62
-209.48
-201.40
-191.61
-173.65
-140.40
-86.81
-12.84
75.77
170.00
261.30
344.00
415.78
475.96
522.48
552.14
562.29
553.02
528.55
496.62
466.08
440.85
422.68
410.42
401.12
391.23
377.23
355.77
324.03
280.16
223.42
154.63
75.60
-10.94
-101.26
-191.09
-276.10
-352.48
-417.50
-469.79
-509.16
-536.64
-553.88
-562.65
-564.46
-560.42
-551.31
-537.76
-520.54
-500.37
-478.11
-454.62
-430.66
-406.75
-383.21
-360.12
-337.50
-315.41
-293.86
-272.93
-252.72
-233.36
-214.92
-197.49
-181.06
-165.62
-151.13
-137.55
-124.84
-112.99
-101.99
-91.85
-82.56
-74.09
-66.37
-59.33
-52.90
-47.05
-41.72
-36.89
-32.53
-28.63
-25.18
-22.15
-19.51
-17.16
-15.09
-13.31
-11.79
-10.49
-9.39
-8.45
-7.64
-6.93
-6.30
-5.74
-5.27
-4.92
-4.69
-4.58
-4.54
-4.50
-4.36
-4.10
-3.71
-3.29
-2.93
-2.71
-2.68
-2.78
-2.92
-2.97
-2.86
-2.61
-2.33
-2.19
-2.30
-2.71
-3.31
-3.86
-4.13
-3.96
-3.44
-2.84
-2.59
-3.01
-4.17
-5.79
-7.26
-7.97
-7.55
-6.17
-4.50
-3.53
-4.03
-6.19
-9.44
-12.60
-14.38
-14.02
-11.73
-8.72
-6.68
-7.06
-10.23
-15.31
-20.44
-23.69
-23.83
-20.94
-16.36
-12.04
-9.72
-10.53
-14.88
-22.15
-30.39
-36.17
-34.95
-22.56
2.68
37.94
75.69
105.55
118.24
109.43
81.61
42.84
3.25
-28.93
-49.68
-59.06
-59.35
-52.95
-41.44
-25.95
-8.09
9.64
24.43
34.03
38.25
39.08
39.90
43.85
52.27
63.95
75.21
81.59
79.44
67.72
48.37
25.51
3.71
-13.83
-26.22
-34.55
-40.72
-46.22
-51.29
-55.23
-57.03
-56.18
-53.11
-49.09
-45.79
-44.41
-45.44
-48.37
-51.91
-54.62
-55.67
-54.67
-52.35
-49.87
-48.09
-47.53
-48.22
-49.85
-51.70
-52.19
-48.26
-36.23
-13.26
20.86
62.50
105.00
140.52
162.93
169.85
162.77
145.34
121.46
93.97
64.64
35.39
8.82
-11.80
-23.73
-26.05
-20.36
-10.07
0.94
9.47
14.47
16.84
18.47
21.12
25.24
29.51
31.64
29.41
21.53
8.54
-7.54
-23.87
-37.60
-46.60
-49.73
-46.56
-38.24
-27.17
-16.61
-9.74
-7.66
-8.26
-7.13
0.11
15.72
37.47
60.37
78.64
88.16
87.90
79.13
64.16
43.79
20.16
-5.88
-33.15
-59.73
-83.57
-102.99
-116.59
-123.06
-120.51
-107.17
-82.91
-49.95
-13.03
21.69
48.86
65.80
73.23
74.15
72.01
68.91
65.63
62.40
59.96
59.97
64.00
71.73
79.85
82.72
74.72
53.20
20.70
-15.78
-47.49
-67.66
-74.29
-70.31
-61.53
-53.45
-48.88
-47.49
-46.89
-45.02
-41.28
-36.78
-33.41
-33.12
-36.92
-44.81
-55.55
-67.84
-80.53
-92.83
-104.78
-115.54
-124.18
-129.02
-127.92
-119.09
-102.09
-77.92
-48.25
-14.43
22.89
62.96
103.60
140.32
167.14
178.67
173.03
153.08
124.90
95.39
68.94
46.00
24.27
0.92
-25.19
-52.68
-78.38
-99.40
-113.58
-119.85
-117.60
-106.11
-84.66
-52.89
-11.78
35.97
85.55
131.31
167.67
190.66
198.31
191.13
171.56
142.10
107.63
71.81
37.23
5.47
-22.23
-45.15
-62.66
-74.34
-80.29
-81.51
-79.96
-77.82
-77.10
-78.63
-82.78
-88.99
-96.19
-103.44
-110.34
-117.27
-124.45
-133.57
-142.51
-149.37
-152.13
-149.44
-141.18
-128.91
-115.49
-104.00
-97.19
-96.71
-103.60
-117.33
-135.38
-152.95
-163.71
-161.65
-143.21
-109.53
-66.25
-22.23
14.16
37.88
48.12
47.21
38.35
24.19
5.65
-16.95
-43.13
-71.23
-98.61
-122.94
-143.21
-159.97
-173.99
-186.45
-197.59
-206.74
-212.28
-212.20
-204.62
-187.89
-165.83
-140.93
-116.27
-93.55
-73.48
-55.53
-38.59
-21.63
-4.45
12.08
27.36
39.56
47.77
52.19
54.13
55.85
59.52
66.31
75.60
86.72
96.06
101.47
102.18
99.24
95.10
92.55
93.55
98.69
110.18
123.36
135.34
142.15
139.16
122.25
89.65
43.54
-9.61
-54.81
-88.39
-103.31
-96.79
-70.14
-27.30
27.05
88.67
153.81
227.14
293.66
347.00
381.10
392.43
381.94
355.66
323.22
294.79
288.97
295.49
312.20
334.88
360.24
388.13
421.25
462.65
439.97
439.16
435.18
415.19
369.38
294.84
196.96
87.42
-20.18
-114.98
-179.91
-226.55
-256.06
-269.17
-265.20
-243.35
-204.71
-153.63
-96.80
-32.40
24.82
72.07
107.81
130.65
138.97
132.25
112.59
85.63
64.93
52.39
53.55
70.29
101.06
141.86
187.05
229.59
261.39
277.24
268.80
235.42
182.21
118.67
55.59
1.82
-38.31
-65.67
-84.19
-101.92
-125.30
-157.64
-197.39
-238.14
-270.68
-286.86
-283.65
-264.99
-240.63
-221.93
-216.54
-225.02
-240.64
-252.40
-249.61
-225.69
-180.06
-118.31
-50.20
13.59
64.49
98.42
116.45
123.50
125.44
126.09
124.84
117.73
100.61
71.96
33.89
-9.33
-53.40
-95.83
-135.45
-172.48
-206.30
-233.93
-250.97
-254.14
-243.54
-222.60
-196.82
-170.76
-148.55
-132.20
-120.18
-107.97
-90.03
-62.26
-22.60
27.66
84.25
137.47
174.36
183.53
158.99
101.65
18.23
-79.22
-184.10
-277.26
-338.23
-359.27
-349.07
-323.02
-293.97
-269.32
-249.63
-230.79
-208.14
-179.72
-144.48
-102.38
-54.12
-0.45
49.69
89.95
118.07
135.34
142.61
142.12
134.99
121.64
103.29
83.40
67.13
60.03
63.26
71.78
82.25
92.07
100.08
106.76
114.56
125.60
143.35
168.41
198.68
237.73
288.52
350.06
417.19
483.95
543.99
596.17
638.80
629.24
545.93
400.18
228.46
66.08
-52.58
-136.64
-195.46
-236.43
-265.65
-283.37
-288.05
-281.74
-269.80
-256.65
-246.02
-235.33
-222.20
-205.40
-179.53
-140.95
-91.33
-41.40
-4.73
7.91
-0.97
-21.47
-42.85
-55.45
-56.36
-50.31
-45.91
-49.36
-62.23
-78.88
-92.46
-98.48
-94.40
-81.25
-62.88
-43.72
-26.03
-9.83
7.82
28.04
49.66
70.54
87.87
99.51
104.78
105.16
103.09
100.75
98.08
92.74
82.00
64.77
43.27
22.82
9.34
6.65
14.54
28.85
43.67
55.68
62.72
64.96
64.13
62.25
61.07
61.77
64.77
69.57
74.46
76.45
72.43
60.47
40.99
17.10
-6.90
-27.14
-41.76
-51.40
-58.50
-65.62
-74.06
-83.17
-90.71
-94.18
-92.41
-86.38
-79.08
-74.31
-74.68
-80.47
-89.94
-100.58
-111.12
-122.60
-138.16
-161.56
-195.12
-238.16
-286.53
-333.93
-374.07
-402.61
-418.05
-421.43
-415.04
-400.62
-378.93
-349.86
-313.49
-271.16
-225.34
-178.70
-132.97
-88.24
-43.31
2.89
49.72
94.25
131.81
157.80
169.74
168.51
158.13
144.18
131.46
122.23
115.69
109.21
100.41
88.69
75.99
66.08
63.38
71.36
91.60
123.56
164.57
210.41
256.01
296.18
326.43
343.60
346.22
334.47
310.21
276.69
238.14
199.15
163.51
133.47
109.27
89.72
73.29
59.35
48.80
43.74
46.76
59.44
81.14
108.38
134.95
152.82
153.91
132.46
87.09
21.74
-55.32
-134.26
-207.23
-270.85
-326.30
-376.55
-422.97
-463.05
-490.77
-499.70
-486.47
-452.86
-404.93
-350.28
-295.02
-242.40
-193.86
-150.86
-116.07
-92.37
-80.56
-77.46
-75.75
-66.49
-43.24
-5.21
41.89
87.72
121.56
136.88
133.84
119.45
104.69
100.28
112.69
142.14
182.57
223.95
255.71
269.92
263.59
239.36
204.34
167.85
138.77
122.95
122.05
133.80
153.79
177.59
202.35
226.99
251.28
274.49
294.69
309.48
317.32
319.11
318.19
319.03
324.96
336.76
351.73
364.68
370.14
364.26
345.58
314.24
271.02
217.13
155.31
90.67
30.62
-17.00
-46.90
-58.75
-57.66
-52.41
-51.18
-58.11
-72.83
-92.50
-114.28
-136.92
-160.46
-185.29
-212.20
-240.21
-266.34
-287.35
-301.78
-310.12
-314.52
-317.02
-319.12
-323.84
-331.93
-340.50
-345.46
-345.08
-340.17
-333.46
-326.71
-320.81
-319.56
-324.48
-331.17
-333.61
-329.06
-318.45
-305.96
-295.03
-288.99
-295.57
-319.03
-352.44
-383.93
-403.83
-406.41
-390.47
-354.25
-266.55
-127.24
25.96
149.05
220.28
244.83
244.65
246.79
272.70
330.30
408.40
486.59
555.49
616.89
662.26
689.03
669.64
597.25
486.42
381.86
284.07
192.60
105.00
27.11
-35.87
-83.64
-114.45
-129.91
-136.82
-137.66
-127.63
-106.11
-78.53
-50.82
-25.99
1.37
37.40
84.19
136.98
192.45
246.12
293.48
332.24
351.68
350.45
331.62
299.50
255.67
202.49
142.60
80.80
25.10
-15.54
-32.95
-27.93
-11.41
-1.25
-13.32
-56.21
-129.54
-225.98
-334.97
-444.03
-542.43
-620.98
-671.97
-689.59
-671.33
-620.36
-543.93
-450.56
-347.06
-238.76
-128.95
-18.26
94.18
210.25
327.00
439.12
539.98
622.92
681.13
710.55
713.18
695.68
667.66
630.24
582.16
524.11
459.82
392.35
322.93
252.49
179.60
104.79
20.39
-74.10
-166.70
-238.45
-277.52
-287.08
-281.31
-282.77
-308.91
-381.92
-509.08
-677.84
-862.31
-1039.29
-1195.65
-1323.76
-1423.43
-1399.75
-1203.41
-871.01
-501.31
-175.34
75.60
240.67
354.73
439.04
506.54
550.34
564.95
552.59
525.97
497.42
472.59
454.08
437.43
419.36
386.33
333.46
267.45
202.10
147.74
107.64
82.62
68.52
62.81
49.56
23.72
-13.58
-55.69
-95.70
-129.47
-154.34
-171.98
-185.84
-190.37
-186.88
-178.47
-167.12
-154.43
-141.75
-129.20
-117.00
-104.62
-92.59
-82.75
-76.76
-74.99
-76.88
-81.31
-86.75
-91.95
-95.41
-95.03
-89.13
-75.65
-52.43
-18.50
24.59
72.11
116.99
152.28
173.79
180.99
177.49
169.33
161.86
157.60
155.70
153.39
148.19
139.32
127.64
114.85
102.39
90.11
76.27
58.31
34.26
3.80
-31.94
-70.44
-107.97
-139.60
-160.12
-164.97
-151.78
-121.90
-80.58
-37.79
-5.45
6.88
-3.87
-33.44
-71.79
-106.97
-129.55
-133.79
-121.10
-97.47
-69.00
-38.49
-6.30
27.69
61.98
92.86
118.68
137.69
150.68
163.32
185.27
224.19
281.20
349.50
416.64
472.64
507.67
514.61
491.69
442.82
373.39
288.72
194.04
75.42
-53.43
-163.22
-232.01
-257.91
-251.46
-226.91
-195.76
-165.41
-139.54
-115.23
-91.10
-68.03
-47.13
-25.75
-4.66
14.18
28.03
34.13
33.00
23.29
2.46
-33.55
-77.00
-117.36
-144.53
-152.48
-141.26
-115.18
-83.55
-56.49
-39.91
-33.07
-32.28
-33.12
-33.02
-31.91
-30.21
-28.91
-28.43
-27.95
-25.58
-21.00
-14.98
-9.01
-4.75
-2.73
-2.70
-3.87
-5.05
-4.77
-2.72
0.71
4.52
7.58
9.05
8.76
7.20
5.19
3.71
3.09
3.14
3.36
3.36
3.16
3.13
2.95
1.07
-5.39
-19.50
-42.55
-72.60
-104.50
-132.31
-150.52
-157.12
-153.70
-143.80
-130.40
-114.25
-94.23
-69.00
-38.93
-6.57
24.23
50.28
70.04
83.30
90.11
90.23
83.64
71.90
58.87
49.82
49.34
58.59
74.36
90.05
98.63
95.57
80.46
56.72
29.82
5.76
-10.53
-16.08
-10.65
3.08
19.75
32.66
35.77
25.91
3.93
-25.41
-55.85
-82.05
-101.20
-113.10
-118.80
-119.10
-113.61
-101.21
-81.10
-54.45
-24.64
3.86
27.54
45.26
58.67
71.37
84.21
98.49
114.39
130.58
144.14
151.12
147.58
130.89
100.83
59.93
13.04
-34.92
-80.55
-122.29
-159.51
-191.29
-215.83
-231.39
-237.78
-236.97
-232.73
-228.46
-225.05
-219.94
-208.50
-186.72
-153.79
-112.99
-70.23
-31.69
-1.09
21.41
38.58
54.21
71.22
90.27
109.89
127.56
140.94
148.91
151.74
150.83
148.14
145.87
145.89
149.50
157.24
168.48
181.30
192.75
199.46
198.35
187.57
167.00
138.36
104.83
70.35
38.59
12.02
-8.75
-25.16
-39.98
-56.34
-76.21
-99.14
-121.76
-138.19
-142.23
-129.62
-99.74
-55.56
-2.11
55.40
112.68
166.12
212.04
246.34
265.27
266.83
251.65
222.65
183.52
137.30
85.60
29.31
-30.08
-89.99
-147.22
-198.80
-242.34
-275.44
-295.22
-298.76
-284.58
-254.22
-212.75
-167.49
-125.93
-93.23
-71.48
-60.14
-57.25
-60.44
-66.95
-73.47
-76.13
-71.59
-58.24
-37.46
-13.15
10.20
29.76
46.03
62.47
84.05
114.67
155.48
204.35
256.74
306.76
348.24
375.61
385.09
376.26
352.98
322.74
293.87
271.90
256.82
242.97
222.24
188.32
139.95
81.18
19.07
-39.79
-91.49
-134.84
-169.93
-196.45
-213.22
-219.16
-214.55
-201.65
-184.35
-167.39
-154.88
-149.76
-153.79
-167.98
-193.12
-229.88
-278.40
-337.58
-404.72
-475.59
-544.93
-606.73
-654.54
-681.69
-682.10
-651.73
-590.16
-501.47
-393.67
-276.86
-160.57
-51.74
46.03
131.96
206.52
270.41
324.19
368.75
405.99
439.26
473.36
513.20
561.90
618.75
677.93
729.45
762.35
768.71
747.05
702.94
646.47
588.24
535.37
489.73
448.73
407.68
362.03
308.41
244.77
170.61
87.93
2.46
-76.05
-135.51
-165.22
-160.36
-125.04
-72.26
-20.42
12.41
14.32
-17.25
-75.58
-147.93
-220.29
-281.37
-324.54
-347.62
-351.40
-337.96
-310.07
-271.28
-226.10
-179.15
-133.61
-89.96
-46.31
-0.60
46.99
92.30
128.05
146.74
143.98
120.75
82.84
38.53
-4.44
-41.01
-69.32
-89.66
-103.45
-112.50
-118.94
-125.43
-134.94
-149.97
-171.43
-197.80
-225.14
-247.83
-260.07
-257.92
-240.80
-211.93
-177.24
-143.43
-115.78
-97.13
-87.78
-86.21
-90.28
-98.25
-109.39
-123.34
-139.65
-157.04
-173.93
-188.51
-198.94
-203.66
-202.10
-195.37
-185.00
-172.16
-156.81
-138.78
-117.76
-93.31
-65.19
-33.74
-1.27
29.71
56.61
77.05
86.39
79.79
54.79
12.57
-42.40
-105.51
-170.30
-229.13
-273.55
-300.03
-309.31
-304.79
-291.68
-275.94
-264.98
-261.92
-264.11
-263.24
-253.77
-232.72
-197.68
-146.04
-58.83
67.55
218.05
355.91
467.73
550.19
601.18
621.15
614.84
589.00
546.84
490.45
421.54
344.03
259.33
168.96
76.18
-15.17
-102.52
-187.41
-271.57
-355.19
-434.95
-507.88
-569.13
-610.78
-623.14
-598.22
-534.49
-436.58
-314.31
-179.30
-44.11
81.89
194.43
293.29
379.88
454.65
517.62
568.78
608.80
637.50
654.06
657.38
646.65
622.34
586.24
542.18
495.11
449.81
409.24
374.16
343.69
316.14
289.98
264.47
239.81
216.42
194.10
171.15
144.31
109.34
62.49
2.29
-69.72
-148.88
-228.88
-303.51
-368.14
-420.53
-460.75
-491.05
-515.04
-537.14
-561.23
-589.47
-621.33
-653.20
-679.37
-693.59
-690.95
-669.32
-629.85
-576.26
-513.84
-448.15
-384.00
-324.77
-271.87
-224.70
-181.09
-138.33
-93.97
-46.54
3.99
56.56
109.01
158.68
202.60
238.08
262.83
275.36
275.13
262.64
239.44
208.04
171.62
133.76
97.95
67.19
43.73
28.83
22.81
25.25
35.10
51.01
71.72
96.30
124.30
155.51
189.36
224.37
257.97
286.68
307.03
316.61
314.71
302.43
282.11
256.58
228.48
200.08
173.31
149.86
131.07
117.63
109.28
104.95
103.07
102.11
101.13
99.79
98.31
97.08
96.33
95.99
95.86
95.43
94.11
91.26
86.37
79.35
70.95
62.78
57.09
56.09
61.31
72.93
89.87
110.35
132.61
155.35
177.52
198.09
216.02
230.65
242.08
251.13
258.75
265.34
270.34
272.65
271.44
266.90
260.01
251.79
241.98
228.56
208.33
178.12
136.21
83.07
21.16
-46.05
-114.81
-181.52
-242.99
-296.56
-339.93
-371.40
-390.19
-396.92
-394.11
-386.01
-377.62
-373.26
-375.09
-382.39
-391.74
-398.69
-399.63
-393.31
-381.28
-367.20
-355.29
-348.78
-349.24
-356.27
-367.90
-381.15
-392.53
-398.42
-395.96
-384.42
-366.47
-348.53
-338.63
-342.87
-361.63
-387.93
-409.14
-411.75
-386.74
-333.09
-257.31
-169.98
-81.23
2.43
78.50
146.94
208.13
261.55
305.65
338.81
360.00
369.08
366.85
354.94
335.62
311.43
285.22
259.84
238.17
222.78
215.73
217.95
228.75
245.47
263.90
279.44
288.25
288.45
280.27
265.73
247.79
229.27
211.99
196.65
182.89
169.83
156.89
144.12
132.25
122.25
114.64
109.07
104.41
99.31
92.88
85.25
77.22
69.60
62.55
55.31
46.55
35.14
20.82
4.35
-12.78
-29.07
-43.65
-56.16
-66.61
-74.94
-80.75
-83.49
-82.77
-78.77
-72.33
-64.77
-57.43
-51.37
-46.99
-43.95
-41.48
-38.67
-34.88
-29.90
-23.97
-17.64
-11.57
-6.24
-1.94
1.14
2.85
3.07
1.82
-0.67
-3.84
-6.95
-9.25
-10.30
-10.11
-9.02
-7.52
-6.05
-4.89
-4.20
-4.09
-4.76
-6.53
-9.73
-14.55
-21.04
-29.04
-38.11
-47.53
-56.34
-63.44
-67.92
-69.25
-67.39
-62.69
-55.68
-46.70
-35.75
-22.60
-7.10
10.55
29.50
48.49
65.99
80.75
91.98
99.40
102.98
102.74
98.64
90.63
78.95
64.25
47.82
31.46
17.03
6.12
-0.27
-1.90
0.86
7.26
16.42
27.44
39.42
51.30
61.93
70.09
74.68
74.92
70.60
62.10
50.46
37.16
23.80
11.94
2.80
-3.02
-5.60
-5.63
-4.09
-1.60
2.34
9.55
23.04
45.77
79.27
122.80
173.12
225.13
273.10
311.84
337.49
347.98
343.35
325.64
298.70
267.32
235.91
207.44
182.73
160.74
139.77
118.61
97.14
76.20
56.60
38.43
20.83
2.43
-18.02
-40.88
-65.53
-90.76
-115.20
-137.79
-157.87
-174.90
-188.30
-197.70
-203.06
-205.08
-205.10
-204.58
-204.50
-204.96
-205.25
-204.37
-201.60
-196.98
-191.32
-186.03
-182.56
-181.88
-184.10
-188.36
-193.14
-196.67
-197.78
-196.30
-193.42
-191.04
-191.15
-194.98
-202.40
-212.40
-223.46
-234.37
-244.45
-253.85
-263.11
-272.87
-283.44
-294.37
-304.17
-310.26
-309.42
-298.44
-275.59
-241.60
-199.89
-155.81
-114.92
-81.44
-57.18
-41.52
-32.28
-26.50
-21.44
-14.66
-4.24
11.50
33.50
61.82
95.56
132.77
170.70
205.89
234.73
253.65
260.39
254.55
238.07
214.73
189.00
164.55
143.33
125.62
110.52
97.20
85.40
75.37
67.29
60.75
54.63
47.58
38.66
27.75
15.69
3.79
-6.66
-14.76
-20.16
-22.93
-23.29
-21.49
-17.75
-12.28
-5.40
2.34
10.35
17.87
24.23
28.91
31.73
32.75
32.31
31.01
29.39
27.90
26.73
25.82
24.93
23.89
22.66
21.39
20.38
19.77
19.55
19.38
18.86
17.66
15.74
13.34
10.75
8.20
5.67
3.02
0.06
-3.26
-6.80
-10.41
-13.96
-17.30
-20.13
-21.96
-22.18
-20.26
-16.10
-10.02
-2.77
4.74
11.66
17.55
22.25
25.83
28.48
30.35
31.60
32.30
32.55
32.36
31.80
30.81
29.38
27.54
25.41
23.19
21.16
19.51
18.33
17.44
16.45
14.85
12.33
8.76
4.37
-0.48
-5.38
-10.06
-14.36
-18.36
-22.17
-25.83
-29.26
-32.24
-34.41
-35.38
-34.76
-32.14
-27.33
-20.34
-11.58
-1.88
7.75
16.24
22.75
26.86
28.75
28.99
28.30
27.33
26.42
25.65
24.90
23.99
22.78
21.31
19.70
18.16
16.82
15.67
14.56
13.27
11.62
9.47
6.97
4.32
1.75
-0.60
-2.74
-4.77
-6.81
-8.89
-11.14
-13.71
-16.74
-20.21
-23.74
-26.68
-28.18
-27.56
-24.57
-19.50
-13.10
-6.16
0.60
6.87
12.47
17.37
21.54
24.98
27.60
29.34
30.21
30.12
29.16
27.45
25.28
23.05
21.17
19.83
19.03
18.58
18.06
17.16
15.68
13.50
10.68
7.28
3.44
-0.72
-4.98
-9.14
-12.95
-16.23
-19.05
-21.65
-24.32
-27.15
-29.88
-31.80
-32.06
-29.93
-25.23
-18.43
-10.44
-2.28
5.27
11.80
17.19
21.43
24.56
26.60
27.61
27.83
27.57
27.12
26.63
26.03
25.17
23.88
22.16
20.10
17.98
15.98
14.25
12.79
11.45
10.04
8.33
6.22
3.71
0.97
-1.78
-4.31
-6.53
-8.55
-10.60
-12.94
-15.73
-19.05
-22.77
-26.56
-29.84
-31.79
-31.64
-28.85
-23.41
-15.93
-7.45
0.91
8.28
14.24
18.80
22.13
24.48
25.98
26.76
26.98
26.85
26.54
26.08
25.45
24.55
23.28
21.68
19.83
17.90
15.93
13.86
11.57
8.96
6.05
2.93
-0.16
-2.96
-5.24
-6.94
-8.13
-9.02
-9.93
-11.22
-13.21
-16.06
-19.64
-23.51
-26.97
-29.16
-29.26
-26.84
-21.91
-15.10
-7.37
0.29
7.08
12.66
17.04
20.46
23.10
25.05
26.22
26.57
26.20
25.44
24.70
24.19
23.94
23.65
23.02
21.77
19.97
17.92
15.97
14.37
13.07
11.73
9.93
7.42
4.21
0.70
-2.54
-5.09
-6.80
-7.89
-8.85
-10.16
-12.08
-14.70
-17.89
-21.41
-24.91
-27.84
-29.51
-29.26
-26.74
-22.02
-15.73
-8.73
-1.85
4.32
9.65
14.18
17.98
20.99
23.04
23.95
23.75
22.68
21.13
19.53
18.18
17.14
16.35
15.64
14.84
13.95
12.96
11.90
10.85
9.70
8.38
6.78
4.83
2.55
0.10
-2.37
-4.69
-6.71
-8.63
-10.74
-13.38
-16.80
-20.91
-25.18
-28.78
-30.80
-30.53
-27.87
-23.10
-16.89
-9.98
-2.96
3.71
9.70
14.70
18.46
20.68
21.41
20.92
19.67
18.25
17.02
16.15
15.54
15.03
14.46
13.87
13.39
13.09
13.04
13.06
12.92
12.40
11.37
9.72
7.51
4.74
1.41
-2.33
-6.34
-10.34
-14.12
-17.66
-21.13
-24.73
-28.53
-32.27
-35.20
-36.49
-35.36
-31.52
-25.34
-17.63
-9.40
-1.49
5.56
11.65
16.83
21.19
24.75
27.42
29.14
29.95
30.06
29.67
28.97
27.94
26.49
24.48
21.93
19.07
16.26
13.77
11.65
9.67
7.43
4.67
1.38
-2.11
-5.34
-7.95
-9.91
-11.53
-13.24
-15.42
-18.19
-21.38
-24.74
-27.98
-30.80
-32.83
-33.62
-32.64
-29.57
-24.47
-17.80
-10.41
-3.14
3.42
9.05
13.83
17.99
21.61
24.63
26.83
27.99
28.08
27.24
25.78
23.99
22.14
20.31
18.55
16.85
15.24
13.82
12.60
11.55
10.55
9.38
7.78
5.59
2.84
-0.26
-3.34
-6.14
-8.55
-10.63
-12.65
-15.01
-17.99
-21.62
-25.59
-29.24
-31.79
-32.45
-30.74
-26.69
-20.86
-14.07
-7.22
-0.99
4.27
8.42
11.54
13.71
15.08
15.85
16.30
16.68
17.18
17.80
18.39
18.73
18.66
18.15
17.38
16.61
16.05
15.77
15.66
15.46
14.93
13.88
12.22
10.09
7.56
4.78
1.86
-1.07
-3.97
-6.77
-9.53
-12.38
-15.45
-18.83
-22.46
-25.92
-28.62
-29.91
-29.27
-26.53
-21.97
-16.13
-9.77
-3.59
1.96
6.67
10.46
13.40
15.45
16.59
16.89
16.46
15.58
14.61
13.80
13.24
12.93
12.79
12.79
13.02
13.53
14.27
15.09
15.66
15.70
15.01
13.49
11.16
8.12
4.51
0.57
-3.38
-6.96
-9.92
-12.20
-14.00
-15.69
-17.58
-19.81
-22.24
-24.49
-26.01
-26.32
-25.00
-21.92
-17.31
-11.55
-5.37
0.53
5.60
9.62
12.60
14.76
16.33
17.41
18.04
18.14
17.65
16.60
15.11
13.32
11.41
9.59
7.95
6.71
5.88
5.51
5.49
5.65
5.76
5.61
5.04
3.91
2.28
0.20
-2.18
-4.69
-7.31
-10.04
-12.84
-15.71
-18.64
-21.53
-24.30
-26.86
-28.91
-30.06
-29.82
-27.78
-23.82
-18.19
-11.42
-4.24
2.58
8.50
13.12
16.33
18.19
18.93
18.81
18.15
17.04
15.55
13.74
11.78
10.00
8.74
8.19
8.36
8.99
9.71
10.18
10.21
9.73
8.80
7.50
5.73
3.38
0.41
-3.11
-6.90
-10.53
-13.74
-16.37
-18.49
-20.43
-22.44
-24.60
-26.74
-28.39
-28.92
-27.85
-24.97
-20.45
-14.81
-8.65
-2.57
2.97
7.76
11.68
14.63
16.54
17.44
17.50
17.11
16.65
16.40
16.45
16.64
16.73
16.47
15.75
14.55
12.94
11.05
8.99
6.92
4.93
3.05
1.21
-0.69
-2.80
-5.08
-7.38
-9.44
-11.08
-12.28
-13.20
-14.12
-15.28
-16.90
-18.88
-21.10
-23.21
-24.84
-25.67
-25.34
-23.65
-20.55
-16.23
-11.09
-5.70
-0.63
3.79
7.40
10.23
12.29
13.63
14.24
14.18
13.63
12.87
12.28
12.02
12.10
12.32
12.47
12.46
12.28
12.06
11.74
11.20
10.20
8.58
6.33
3.69
0.96
-1.61
-3.96
-6.19
-8.37
-10.50
-12.34
-13.69
-14.43
-14.68
-14.77
-15.08
-15.93
-17.32
-18.96
-20.29
-20.73
-19.88
-17.57
-13.95
-9.34
-4.32
0.67
5.25
9.20
12.47
15.11
17.17
18.73
19.90
20.71
21.20
21.37
21.22
20.76
19.96
18.81
17.29
15.51
13.59
11.64
9.74
7.95
6.26
4.56
2.79
0.85
-1.31
-3.65
-6.11
-8.55
-10.81
-12.68
-14.03
-14.83
-15.28
-15.73
-16.58
-18.03
-19.96
-21.87
-22.98
-22.61
-20.34
-16.27
-10.93
-5.01
0.77
5.89
10.10
13.35
15.69
17.31
18.36
19.01
19.35
19.40
19.03
18.16
16.77
14.96
13.05
11.33
10.12
9.51
9.45
9.79
10.41
11.31
12.56
14.22
16.21
18.32
20.27
21.84
23.01
23.79
24.14
23.87
22.73
20.70
18.28
16.51
16.50
18.78
22.92
27.70
31.79
34.63
36.82
40.05
46.22
56.51
70.80
87.89
105.97
123.06
137.14
146.18
148.05
141.00
124.30
98.83
67.24
33.48
1.77
-24.46
-43.21
-53.97
-57.46
-54.94
-47.68
-36.88
-23.69
-9.34
4.72
16.96
26.05
31.18
32.38
30.61
27.41
24.70
24.08
26.59
32.33
40.65
50.29
59.95
68.62
75.67
80.86
83.94
84.51
82.08
76.15
66.52
53.32
37.02
18.10
-2.87
-25.42
-48.95
-72.63
-95.38
-115.93
-132.99
-145.46
-152.76
-154.90
-152.48
-146.50
-138.05
-128.04
-117.07
-105.85
-95.26
-86.49
-80.51
-77.50
-76.55
-75.71
-72.83
-66.24
-55.47
-41.22
-24.99
-8.46
7.11
20.94
32.69
42.10
48.80
52.15
51.49
46.60
38.11
27.74
17.79
10.35
6.39
5.50
6.38
8.01
10.64
15.78
25.51
40.76
60.57
81.98
101.08
114.55
120.75
119.86
113.25
102.55
88.71
72.18
53.15
32.00
9.57
-12.96
-34.25
-52.82
-66.89
-74.49
-74.02
-65.31
-50.59
-34.65
-23.65
-23.09
-35.53
-59.31
-88.79
-116.15
-133.68
-135.71
-119.68
-86.28
-39.13
15.86
71.10
118.37
150.32
162.03
152.04
122.53
78.43
26.07
-28.22
-78.86
-121.69
-154.14
-175.49
-187.11
-191.99
-193.79
-195.43
-198.06
-200.98
-202.68
-202.16
-199.83
-197.30
-196.27
-197.39
-199.76
-201.41
-200.20
-194.61
-183.93
-168.24
-148.28
-125.63
-102.56
-81.26
-62.75
-46.13
-28.76
-7.55
19.35
51.28
85.42
118.11
146.74
170.61
190.63
207.99
223.07
234.98
242.15
243.35
238.25
227.52
212.37
194.04
173.65
151.97
129.63
107.04
84.50
61.99
39.35
16.11
-8.17
-33.90
-61.40
-90.47
-120.09
-148.15
-171.86
-188.37
-196.01
-194.96
-187.49
-177.30
-168.07
-162.29
-160.43
-161.33
-163.00
-163.75
-162.75
-159.90
-155.37
-149.02
-140.42
-129.10
-115.12
-99.27
-82.89
-67.40
-53.61
-41.58
-30.81
-20.82
-11.66
-3.95
1.52
4.42
5.33
5.87
8.10
13.83
23.80
37.43
52.81
67.39
78.57
84.29
83.50
76.30
64.00
48.99
34.27
22.73
16.49
16.45
22.20
32.50
45.75
60.49
75.49
89.79
102.64
113.58
122.53
129.62
134.97
138.21
138.39
134.25
124.97
110.82
93.45
75.53
59.85
48.50
42.26
40.65
42.37
46.00
50.38
54.86
59.41
64.37
70.35
77.84
86.88
96.74
105.94
112.63
115.26
113.45
108.37
102.46
98.57
98.70
102.96
109.45
114.97
115.93
109.61
94.63
71.33
41.34
7.19
-28.44
-63.22
-95.43
-123.96
-147.84
-165.92
-176.71
-178.80
-171.51
-155.54
-133.07
-107.08
-80.60
-55.74
-33.71
-15.14
-0.57
9.23
13.47
11.82
4.67
-6.76
-20.44
-34.07
-45.52
-53.06
-55.81
-53.94
-48.57
-41.35
-33.92
-27.24
-21.49
-16.17
-10.63
-4.73
0.86
4.74
5.44
2.00
-5.42
-15.65
-26.92
-37.55
-46.46
-53.27
-57.96
-60.44
-60.44
-57.57
-51.86
-43.81
-34.20
-23.58
-11.71
2.10
18.16
35.56
51.97
64.23
69.78
67.90
60.04
49.22
38.84
31.33
27.72
27.81
30.86
36.10
43.04
51.13
59.55
67.18
72.82
75.55
75.10
71.87
66.71
60.44
53.51
46.03
38.03
30.00
22.84
17.68
15.30
15.59
17.33
18.47
16.94
11.20
1.26
-11.12
-22.48
-28.61
-25.71
-11.96
11.52
40.81
70.22
94.08
108.52
112.29
106.70
94.80
80.28
66.60
56.31
50.44
48.23
47.19
43.97
35.85
22.14
4.65
-13.08
-27.73
-38.07
-45.75
-54.19
-66.56
-83.78
-104.14
-124.06
-139.95
-149.59
-152.22
-147.70
-135.33
-114.12
-83.75
-46.52
-8.02
23.72
40.87
38.85
18.42
-14.51
-51.11
-82.74
-104.05
-114.09
-115.96
-115.01
-116.44
-123.45
-136.58
-154.21
-173.60
-192.11
-207.51
-217.69
-220.09
-211.92
-191.28
-158.63
-117.58
-73.96
-33.72
-0.61
25.35
47.10
68.53
92.17
117.94
143.65
166.65
185.22
198.98
208.31
213.30
213.48
208.17
197.59
183.61
169.48
158.73
153.58
153.85
156.86
158.76
156.17
148.06
136.42
125.96
122.41
130.45
151.55
182.94
218.01
247.99
264.39
261.18
236.17
190.86
129.49
57.60
-19.02
-94.70
-164.06
-222.13
-265.03
-290.95
-300.72
-297.63
-286.26
-270.73
-253.15
-233.73
-211.80
-187.81
-164.56
-146.67
-138.84
-143.59
-159.60
-181.87
-203.26
-216.76
-217.60
-204.63
-180.37
-150.22
-121.08
-99.45
-89.71
-92.79
-105.59
-121.57
-132.29
-129.49
-107.58
-65.62
-8.25
55.12
112.49
152.80
168.90
159.36
128.72
86.21
43.49
11.79
-0.78
8.29
35.51
72.52
109.22
137.24
152.30
154.47
146.63
132.66
116.13
100.84
91.42
93.26
111.13
147.01
198.75
260.26
323.36
379.86
423.01
448.01
451.74
433.12
393.32
336.42
268.84
198.08
130.82
71.46
21.57
-19.80
-55.16
-87.71
-120.25
-154.36
-189.55
-222.82
-248.99
-262.36
-258.97
-238.71
-206.22
-169.74
-138.57
-120.04
-117.33
-128.83
-149.27
-172.07
-191.72
-205.19
-212.08
-213.16
-208.91
-198.74
-181.35
-156.05
-123.44
-85.38
-43.69
0.63
47.14
94.41
138.12
170.83
184.14
172.52
136.27
81.85
19.03
-43.15
-98.85
-145.40
-181.24
-204.34
-212.25
-204.21
-183.09
-155.60
-130.25
-113.74
-108.17
-110.29
-113.56
-111.21
-98.98
-76.26
-45.25
-9.21
29.42
69.80
112.62
158.83
208.28
258.81
306.05
344.18
367.12
370.28
352.11
315.60
268.50
221.76
186.23
168.52
168.12
177.37
184.95
180.58
158.95
120.74
70.99
16.07
-38.57
-88.99
-132.25
-165.67
-187.25
-196.72
-196.46
-191.11
-185.89
-184.78
-189.17
-197.94
-208.51
-218.26
-225.22
-228.38
-227.44
-222.57
-214.49
-204.43
-194.01
-184.73
-177.58
-172.64
-169.19
-166.30
-163.54
-161.23
-160.49
-162.70
-168.88
-179.64
-195.17
-215.10
-238.55
-263.44
-286.28
-302.42
-307.04
-296.35
-268.73
-225.25
-169.65
-108.03
-47.84
3.31
39.38
57.53
59.13
49.39
35.93
26.30
25.81
36.49
57.45
86.22
120.05
156.66
194.12
230.50
263.61
291.20
311.58
324.15
329.48
329.21
325.32
319.39
312.23
303.80
293.40
280.05
262.72
240.56
213.35
182.10
149.34
118.83
94.60
79.22
72.49
71.17
70.32
65.47
54.51
38.47
20.69
5.14
-5.08
-8.25
-3.77
8.34
27.43
51.51
76.88
98.58
111.78
113.60
104.26
86.94
66.17
45.88
28.19
13.23
0.07
-12.14
-23.68
-34.39
-43.93
-52.01
-58.09
-61.37
-61.06
-57.13
-50.81
-44.54
-40.86
-40.94
-43.65
-45.72
-43.21
-33.21
-15.17
8.97
35.79
61.36
82.10
95.14
98.48
91.20
73.97
49.34
21.53
-4.41
-23.88
-34.09
-34.75
-28.02
-17.54
-7.27
-0.33
1.48
-2.33
-11.35
-24.77
-41.63
-60.76
-81.00
-101.37
-121.26
-140.18
-156.97
-169.00
-172.26
-162.51
-137.51
-98.69
-51.50
-3.62
37.84
68.83
88.94
100.33
105.63
106.25
102.07
92.39
76.99
56.60
32.51
5.96
-22.24
-51.32
-79.75
-104.65
-121.77
-126.26
-114.36
-85.21
-42.09
7.77
55.02
91.19
111.93
118.68
117.83
117.35
122.72
134.38
148.12
158.09
160.56
156.12
148.84
143.19
140.76
138.73
131.29
112.87
81.50
40.57
-2.42
-39.31
-65.55
-82.47
-96.61
-116.14
-146.26
-185.86
-226.99
-257.87
-268.04
-252.91
-215.33
-163.56
-107.10
-53.04
-5.28
34.92
66.91
89.05
98.65
93.37
73.30
42.11
6.21
-29.01
-59.67
-83.89
-101.36
-112.67
-118.59
-119.23
-113.63
-100.51
-83.15
-66.25
-54.52
-51.33
-58.63
-77.54
-108.32
-149.51
-197.70
-253.32
-313.53
-370.68
-413.31
-431.22
-421.40
-390.14
-350.21
-316.66
-309.43
-340.44
-409.51
-505.05
-610.23
-709.91
-793.90
-855.65
-847.96
-743.38
-545.46
-292.84
-36.63
186.47
362.73
494.53
590.81
666.14
719.44
744.81
738.48
703.68
649.85
588.82
525.46
467.10
419.22
377.82
337.67
296.17
255.32
219.70
192.28
172.57
158.60
147.78
134.84
117.88
98.88
82.38
72.54
70.43
74.17
81.16
88.78
93.19
92.32
86.46
78.17
70.86
67.00
66.94
69.35
71.50
69.59
61.14
45.75
24.97
1.28
-22.92
-45.83
-65.91
-82.16
-94.07
-101.50
-104.81
-104.57
-101.47
-96.12
-88.92
-79.99
-69.53
-57.77
-45.04
-31.69
-17.89
-3.61
11.65
28.75
48.65
71.79
97.56
123.99
147.93
165.79
174.32
171.36
156.13
129.21
92.45
48.78
2.12
-42.94
-81.79
-110.59
-127.05
-130.89
-123.87
-109.10
-90.36
-71.25
-54.49
-41.61
-33.09
-28.57
-27.22
-28.13
-30.54
-34.12
-38.83
-44.79
-52.04
-60.26
-68.80
-76.75
-83.36
-88.27
-91.64
-93.90
-95.18
-95.09
-92.54
-86.24
-75.21
-59.45
-39.83
-17.89
4.85
27.38
49.14
69.92
89.51
107.38
122.89
135.60
145.75
154.23
162.32
170.97
180.55
190.65
200.37
209.06
216.62
223.76
231.75
241.84
254.78
270.66
288.89
308.33
327.73
345.77
361.23
373.08
380.71
384.09
383.75
380.56
375.03
366.79
354.03
333.78
302.83
259.23
203.63
139.60
72.90
9.71
-44.88
-88.27
-120.33
-142.81
-158.44
-170.00
-179.75
-189.25
-199.04
-208.59
-216.81
-222.71
-226.05
-227.88
-229.80
-233.06
-237.61
-241.91
-243.71
-241.19
-233.77
-221.78
-205.86
-186.11
-162.23
-134.38
-104.22
-75.20
-51.52
-36.58
-31.21
-33.57
-39.99
-46.80
-51.81
-54.68
-56.27
-57.50
-58.59
-58.82
-57.28
-53.42
-47.56
-40.91
-35.00
-31.20
-30.30
-32.46
-37.07
-43.12
-49.36
-54.54
-57.87
-58.98
-58.05
-55.45
-51.67
-46.91
-41.44
-35.54
-29.55
-23.76
-18.19
-12.52
-6.27
0.79
8.34
15.35
20.25
21.63
18.63
11.36
0.90
-10.97
-22.28
-31.15
-36.32
-37.32
-34.51
-28.99
-22.17
-15.28
-9.17
-4.13
-0.06
3.21
5.67
7.06
6.83
4.58
0.26
-5.75
-12.74
-19.93
-26.71
-32.66
-37.38
-40.38
-41.01
-38.85
-34.04
-27.35
-19.92
-12.84
-6.56
-0.85
4.68
10.22
15.18
18.39
18.74
15.72
9.86
2.55
-4.49
-9.93
-13.11
-14.04
-13.19
-11.10
-8.17
-4.69
-0.93
2.80
6.15
8.65
9.94
9.80
8.25
5.52
1.99
-1.95
-6.11
-10.47
-15.20
-20.38
-25.82
-30.95
-35.08
-37.54
-37.95
-36.47
-33.69
-30.49
-27.64
-25.64
-24.54
-23.95
-23.22
-21.63
-18.62
-13.93
-7.72
-0.35
7.37
14.54
20.37
24.32
26.29
26.52
25.59
24.08
22.60
21.55
21.31
22.13
24.08
27.01
30.54
34.19
37.46
39.89
41.06
40.62
38.12
33.14
25.59
15.95
5.42
-4.38
-11.78
-15.76
-16.29
-14.51
-12.28
-11.50
-13.36
-17.95
-24.45
-31.43
-37.63
-42.32
-45.27
-46.52
-46.12
-44.13
-40.63
-35.98
-30.72
-25.57
-20.98
-17.02
-13.37
-9.57
-5.37
-0.81
3.78
8.07
11.80
14.89
17.36
19.19
20.21
20.23
19.21
17.24
14.79
12.49
10.96
10.67
11.67
13.48
15.21
15.91
14.90
12.03
7.77
2.75
-2.39
-7.42
-12.32
-17.25
-22.11
-26.57
-30.14
-32.38
-33.18
-32.82
-31.82
-30.71
-29.90
-29.46
-29.22
-28.75
-27.68
-25.78
-23.12
-19.97
-16.69
-13.56
-10.71
-8.31
-6.63
-6.19
-7.55
-10.98
-16.23
-22.31
-27.89
-31.78
-33.40
-32.96
-31.37
-29.79
-29.09
-29.60
-30.82
-31.63
-30.52
-26.04
-17.37
-4.68
10.51
25.62
37.59
43.68
42.30
33.66
19.56
2.90
-13.28
-26.72
-36.40
-42.39
-45.30
-45.79
-44.27
-41.00
-36.46
-31.44
-26.84
-23.47
-21.51
-20.51
-19.60
-18.05
-15.50
-12.22
-8.93
-6.44
-5.34
-5.60
-6.45
-6.57
-4.79
-0.73
4.79
9.91
12.58
11.47
6.70
-0.23
-7.27
-12.80
-16.54
-19.59
-24.02
-31.93
-44.74
-62.80
-85.36
-111.11
-138.50
-166.14
-192.94
-218.13
-241.38
-263.00
-284.14
-306.29
-330.22
-354.75
-375.96
-387.92
-384.82
-363.55
-325.57
-276.80
-225.55
-179.55
-143.63
-118.94
-103.94
-96.11
-93.26
-93.92
-97.03
-101.29
-105.20
-107.19
-106.15
-101.77
-94.40
-84.78
-73.48
-60.56
-45.49
-27.54
-6.10
18.89
46.80
76.39
106.34
135.70
164.28
192.46
220.53
247.77
272.01
290.04
298.68
296.16
283.04
262.14
237.52
213.08
191.38
173.29
158.34
145.45
133.71
122.57
111.93
102.08
93.61
87.44
84.62
85.93
91.50
100.54
111.35
121.90
130.44
136.16
139.38
141.20
142.83
145.01
147.63
149.94
150.89
149.77
146.36
141.04
134.67
128.26
122.93
119.51
118.12
117.81
116.50
111.37
100.00
81.61
57.51
31.04
6.29
-13.47
-26.83
-34.41
-38.17
-40.23
-42.18
-44.85
-48.49
-53.21
-58.88
-64.81
-69.64
-71.57
-69.11
-61.81
-50.74
-38.03
-25.95
-16.11
-8.64
-2.73
2.88
8.99
15.75
22.59
28.75
33.66
36.96
38.70
38.93
37.78
35.42
32.18
28.52
24.89
21.61
18.60
15.53
11.87
7.36
2.17
-3.24
-8.14
-12.07
-14.90
-16.98
-18.85
-21.06
-23.95
-27.56
-32.02
-37.46
-44.04
-51.56
-59.49
-66.94
-73.03
-77.39
-80.32
-82.92
-86.55
-92.29
-100.34
-109.96
-119.72
-127.78
-132.12
-130.30
-119.62
-97.41
-62.10
-14.20
43.24
104.98
165.12
218.70
262.87
296.79
320.86
335.63
341.40
338.71
329.04
315.19
300.55
287.95
278.62
271.94
265.91
258.02
246.14
228.71
204.88
174.47
138.01
97.02
53.91
11.48
-27.94
-63.04
-94.12
-122.65
-150.45
-178.76
-207.29
-234.04
-255.81
-269.21
-271.75
-262.96
-244.61
-220.25
-194.20
-170.34
-151.30
-138.27
-131.22
-129.30
-131.16
-134.96
-138.42
-139.25
-135.77
-127.86
-117.37
-107.77
-102.70
-104.28
-111.36
-119.32
-121.40
-111.46
-86.83
-49.89
-7.55
31.26
58.81
71.38
69.97
59.37
45.75
34.21
27.55
26.15
29.00
34.86
43.04
53.27
65.19
78.04
90.35
100.53
107.29
110.23
109.97
107.70
104.52
100.80
96.17
89.86
81.43
71.08
59.57
47.74
35.63
22.53
7.29
-10.58
-30.37
-50.00
-66.90
-78.90
-84.97
-85.49
-81.61
-74.75
-66.08
-56.71
-47.74
-40.46
-36.15
-35.52
-38.34
-43.18
-47.76
-49.70
-47.30
-40.07
-28.82
-15.24
-1.25
11.61
22.59
31.65
39.15
45.72
51.86
57.92
63.96
69.81
75.12
79.60
83.03
85.43
87.01
88.03
88.63
88.72
88.05
86.36
83.66
80.13
75.99
71.41
66.20
60.00
52.39
43.09
32.14
20.01
7.37
-5.06
-16.68
-27.21
-36.72
-45.52
-54.05
-62.44
-70.34
-76.87
-80.85
-81.16
-77.29
-69.53
-58.86
-46.62
-34.15
-22.33
-11.62
-2.10
6.30
13.56
19.63
24.40
27.99
30.60
32.54
34.10
35.48
36.69
37.59
38.00
37.80
37.15
36.26
35.46
35.05
35.13
35.58
35.97
35.69
34.19
31.12
26.44
20.41
13.51
6.20
-1.09
-8.06
-14.56
-20.50
-25.83
-30.54
-34.70
-38.22
-40.88
-42.15
-41.30
-37.62
-30.82
-21.28
-10.04
1.46
11.84
20.08
25.82
29.18
30.56
30.50
29.37
27.48
25.15
22.72
20.51
18.81
17.68
17.06
16.84
16.89
17.11
17.45
17.77
17.93
17.76
17.19
16.19
14.81
13.02
10.74
7.75
3.86
-0.92
-6.43
-12.14
-17.40
-21.55
-24.14
-25.23
-25.48
-26.07
-28.19
-32.46
-38.40
-44.32
-47.70
-45.87
-37.01
-20.55
2.41
29.59
57.96
84.34
105.74
119.81
125.13
121.42
109.73
92.11
71.24
49.74
29.74
12.49
-1.45
-12.02
-19.53
-24.53
-27.91
-30.79
-34.22
-38.72
-44.03
-48.99
-52.12
-52.19
-48.86
-42.93
-36.14
-30.42
-27.34
-27.57
-30.84
-36.21
-42.43
-48.26
-52.73
-55.31
-55.93
-55.04
-53.62
-53.14
-55.20
-60.91
-70.30
-81.89
-92.80
-99.54
-98.91
-89.07
-69.99
-43.44
-12.29
20.50
52.51
82.49
109.90
134.33
154.68
169.06
175.01
170.57
155.35
131.06
101.30
70.58
42.99
21.13
5.89
-3.23
-7.45
-8.17
-6.57
-3.52
0.32
4.43
8.38
11.83
14.57
16.56
17.97
19.10
20.33
21.78
23.29
24.39
24.60
23.71
21.97
19.97
18.38
17.50
17.20
17.11
16.96
16.80
16.79
17.04
17.19
16.61
14.59
10.81
5.51
-0.57
-6.64
-12.18
-16.93
-20.76
-23.47
-24.76
-24.72
-24.10
-24.46
-27.64
-34.95
-46.28
-59.90
-72.93
-82.19
-85.46
-82.21
-73.74
-62.58
-51.73
-43.51
-39.06
-38.14
-39.36
-40.85
-40.92
-38.55
-33.56
-26.54
-18.46
-10.26
-2.80
3.32
7.54
9.35
8.49
5.00
-0.62
-7.57
-14.93
-21.91
-27.96
-32.88
-36.63
-39.27
-40.81
-41.22
-40.34
-38.02
-34.01
-27.93
-19.44
-8.36
5.15
20.55
36.95
53.20
67.87
79.58
87.38
91.01
90.97
88.38
84.50
80.30
76.30
72.54
68.96
65.63
62.78
60.56
58.88
57.27
55.08
51.92
47.87
43.50
39.66
37.06
36.03
36.49
37.86
39.32
40.04
39.32
36.76
32.35
26.35
19.27
11.82
4.64
-1.71
-6.86
-10.70
-13.31
-14.87
-15.73
-16.23
-16.68
-17.30
-18.20
-19.22
-20.14
-20.59
-20.25
-19.06
-17.22
-15.21
-13.58
-12.70
-12.59
-13.09
-13.86
-14.70
-15.59
-16.70
-18.36
-21.01
-25.09
-30.94
-38.78
-48.46
-59.39
-70.46
-80.25
-87.37
-90.85
-90.37
-86.28
-79.45
-70.93
-61.67
-52.43
-43.72
-35.96
-29.48
-24.57
-21.45
-20.24
-20.87
-23.05
-26.24
-29.67
-32.56
-34.21
-34.17
-32.23
-28.38
-22.69
-15.30
-6.45
3.58
14.34
25.30
35.82
45.11
52.40
57.01
58.52
57.02
53.22
48.31
43.68
40.42
39.02
39.26
40.34
41.18
40.79
38.51
34.07
27.60
19.66
11.13
3.02
-3.59
-7.99
-9.83
-9.33
-7.19
-4.44
-2.07
-0.82
-1.00
-2.42
-4.65
-7.09
-9.10
-10.20
-9.98
-7.94
-3.61
3.40
13.22
25.37
38.71
51.52
61.85
68.14
69.67
66.73
60.47
52.46
44.13
36.49
30.03
24.83
20.82
17.85
15.71
14.19
13.04
12.00
10.90
9.62
8.22
6.81
5.42
4.01
2.41
0.37
-2.35
-5.91
-10.23
-15.04
-19.98
-24.57
-28.51
-31.66
-34.04
-35.90
-37.40
-38.56
-39.15
-38.77
-37.03
-33.71
-28.91
-23.01
-16.67
-10.57
-5.34
-1.37
1.19
2.43
2.64
2.14
1.27
0.27
-0.78
-1.88
-2.98
-3.96
-4.64
-4.97
-5.06
-5.16
-5.58
-6.53
-7.98
-9.73
-11.42
-12.81
-13.77
-14.40
-14.81
-15.01
-14.97
-14.60
-14.04
-13.68
-14.14
-15.99
-19.57
-24.76
-30.94
-37.11
-42.15
-45.10
-45.37
-42.92
-38.09
-31.60
-24.32
-17.05
-10.47
-5.06
-1.20
0.98
1.46
0.48
-1.55
-4.12
-6.74
-9.11
-11.06
-12.63
-13.98
-15.23
-16.58
-18.08
-19.78
-21.66
-23.77
-26.09
-28.67
-31.59
-34.83
-38.34
-41.91
-45.33
-48.28
-50.56
-52.02
-52.68
-52.67
-52.17
-51.29
-49.97
-47.88
-44.43
-38.91
-30.76
-19.81
-6.19
9.78
27.64
46.93
67.03
86.97
105.43
120.93
132.26
138.74
140.44
137.94
132.04
123.52
112.84
100.36
86.42
71.55
56.45
41.90
28.44
16.30
5.37
-4.73
-14.13
-22.69
-29.87
-35.15
-38.27
-39.44
-39.08
-37.49
-34.63
-30.07
-23.46
-15.11
-6.26
1.23
5.60
6.03
3.06
-1.65
-5.96
-8.23
-7.83
-5.18
-1.24
3.11
7.53
12.21
17.43
23.31
29.40
34.83
38.55
39.71
37.88
33.25
26.59
18.93
11.36
4.62
-0.98
-5.48
-9.15
-12.20
-14.69
-16.53
-17.61
-17.91
-17.62
-16.95
-16.03
-14.93
-13.70
-12.52
-11.91
-12.55
-14.89
-19.08
-24.69
-30.85
-36.69
-41.56
-45.16
-47.47
-48.61
-48.61
-47.62
-45.94
-44.01
-42.42
-41.46
-40.97
-40.39
-38.96
-36.20
-32.27
-27.90
-24.14
-22.00
-21.97
-23.89
-27.12
-30.79
-34.05
-36.37
-37.42
-37.00
-35.03
-31.27
-25.56
-17.73
-7.81
4.07
17.51
31.90
46.35
59.65
70.52
77.92
81.27
80.67
76.77
70.42
62.38
53.11
42.74
31.54
20.02
9.08
-0.15
-6.63
-9.87
-10.00
-7.75
-4.21
-0.37
2.92
5.07
5.77
4.88
2.48
-1.17
-5.48
-9.70
-12.93
-14.41
-13.89
-11.73
-9.04
-7.35
-7.99
-11.58
-17.68
-24.87
-31.32
-35.53
-36.75
-35.23
-31.72
-26.99
-21.50
-15.40
-8.70
-1.58
5.56
12.22
17.94
22.44
25.64
27.54
28.16
27.57
25.92
23.62
21.18
19.17
17.98
17.71
18.13
18.83
19.30
18.99
17.55
14.76
10.74
5.85
0.71
-4.04
-7.75
-9.97
-10.72
-10.40
-9.85
-10.04
-11.77
-15.27
-20.09
-25.09
-28.86
-30.24
-28.77
-24.81
-19.42
-13.73
-8.71
-4.80
-2.18
-0.92
-1.17
-3.14
-6.91
-12.29
-18.55
-24.74
-29.68
-32.49
-32.71
-30.39
-26.00
-20.34
-14.32
-8.72
-4.16
-0.92
0.95
1.55
1.13
0.02
-1.38
-2.56
-3.04
-2.52
-0.99
1.23
3.57
5.53
6.77
7.23
6.99
6.17
4.86
3.09
0.97
-1.28
-3.37
-5.06
-6.23
-6.92
-7.14
-6.84
-5.98
-4.73
-3.71
-3.92
-6.41
-11.62
-18.84
-26.32
-31.79
-33.24
-29.69
-21.34
-9.39
4.38
18.12
30.18
39.09
43.81
44.00
40.14
33.60
26.16
19.54
14.81
12.35
11.90
12.90
14.91
17.61
20.69
23.76
26.38
28.18
29.04
29.06
28.33
26.83
24.29
20.41
15.03
8.41
1.19
-5.79
-11.84
-16.58
-19.99
-22.27
-23.71
-24.75
-25.91
-27.81
-30.84
-34.85
-39.04
-42.09
-42.71
-40.21
-34.76
-27.33
-19.27
-11.78
-5.69
-1.40
0.95
1.35
-0.09
-3.03
-6.81
-10.68
-13.84
-15.71
-16.10
-15.12
-13.07
-10.28
-7.00
-3.31
0.75
5.20
10.09
15.31
20.58
25.36
28.91
30.54
29.93
27.30
23.49
19.63
16.74
15.28
15.18
16.03
17.42
19.30
21.86
25.44
30.13
35.67
41.55
47.13
51.98
55.92
58.94
61.10
62.25
62.04
59.89
55.27
47.81
37.53
24.87
10.64
-4.23
-18.85
-32.46
-44.51
-54.50
-62.00
-66.60
-68.06
-66.33
-61.74
-54.99
-47.24
-39.82
-34.04
-30.72
-30.04
-31.60
-34.50
-37.59
-39.65
-39.59
-36.45
-29.83
-19.98
-8.03
4.20
14.60
21.53
24.46
24.02
21.69
19.13
17.46
17.12
17.96
19.59
21.55
23.60
25.49
26.94
27.60
27.19
25.69
23.38
20.76
18.31
16.28
14.65
13.18
11.60
9.78
7.85
6.04
4.68
3.95
3.81
3.91
3.77
2.83
0.66
-3.01
-8.21
-14.62
-21.75
-29.01
-35.92
-42.09
-47.09
-50.44
-51.60
-50.22
-46.23
-40.14
-32.84
-25.39
-18.68
-13.13
-8.74
-5.19
-2.15
0.67
3.41
6.16
9.00
11.99
15.18
18.62
22.28
26.13
30.17
34.36
38.76
43.30
47.80
51.79
54.55
55.18
52.96
47.66
39.71
30.19
20.51
12.06
5.67
1.53
-0.75
-1.86
-2.44
-2.93
-3.50
-4.17
-4.91
-5.77
-6.75
-7.77
-8.62
-8.98
-8.62
-7.49
-5.81
-4.16
-3.13
-3.23
-4.46
-6.54
-8.93
-11.10
-12.72
-13.77
-14.44
-14.94
-15.35
-15.49
-15.14
-14.11
-12.43
-10.39
-8.47
-7.07
-6.42
-6.47
-6.98
-7.71
-8.44
-9.09
-9.72
-10.46
-11.47
-12.88
-14.71
-16.86
-19.03
-20.76
-21.62
-21.25
-19.56
-16.71
-13.01
-8.85
-4.63
-0.67
2.76
5.42
7.20
8.13
8.38
8.25
8.01
7.83
7.71
7.54
7.23
6.72
6.12
5.58
5.18
4.89
4.55
3.96
3.02
1.74
0.24
-1.39
-3.13
-4.99
-7.14
-9.60
-12.28
-15.04
-17.67
-20.03
-22.14
-24.11
-26.07
-28.04
-29.83
-31.06
-31.26
-30.11
-27.51
-23.70
-19.07
-14.19
-9.42
-5.03
-1.17
2.12
4.87
7.11
8.92
10.36
11.45
12.17
12.48
12.36
11.80
10.90
9.75
8.45
7.14
5.93
5.06
4.66
4.72
5.06
5.30
5.07
4.11
2.46
0.32
-1.96
-4.11
-6.09
-7.94
-9.83
-11.83
-13.91
-15.92
-17.78
-19.41
-20.78
-21.81
-22.26
-21.90
-20.63
-18.57
-16.06
-13.53
-11.23
-9.25
-7.55
-6.09
-4.92
-4.23
-4.20
-4.91
-6.37
-8.50
-11.20
-14.47
-18.20
-22.18
-26.13
-29.68
-32.61
-34.93
-36.87
-38.73
-40.83
-43.26
-45.93
-48.58
-50.81
-52.23
-52.67
-52.09
-50.75
-48.93
-46.83
-44.59
-42.20
-39.58
-36.59
-33.21
-29.31
-24.72
-19.19
-12.37
-4.10
5.64
16.63
28.60
41.18
54.24
67.78
81.95
96.67
111.50
125.45
137.22
145.66
150.06
150.48
147.45
141.74
133.85
123.99
112.23
98.71
83.85
68.32
52.84
37.89
23.64
10.06
-2.90
-15.01
-25.80
-34.72
-41.36
-45.78
-48.50
-50.38
-52.25
-54.59
-57.22
-59.41
-60.21
-58.88
-55.34
-50.17
-44.29
-38.61
-33.56
-29.02
-24.57
-19.71
-14.07
-7.44
0.33
9.27
19.19
29.45
38.92
46.16
49.80
49.16
44.48
36.88
28.05
19.73
13.37
9.78
9.01
10.44
13.17
16.08
18.30
19.26
18.75
16.81
13.57
9.19
3.96
-1.61
-6.78
-10.77
-12.98
-13.36
-12.30
-10.52
-8.66
-7.00
-5.55
-4.11
-2.62
-1.18
-0.01
0.68
0.87
0.77
0.69
0.87
1.46
2.43
3.84
5.67
7.88
10.32
12.77
15.04
17.11
19.08
21.05
22.91
24.24
24.32
22.41
18.18
11.81
3.96
-4.45
-12.57
-19.69
-25.18
-28.52
-29.40
-28.01
-25.29
-22.81
-22.20
-24.55
-29.80
-36.69
-43.33
-47.69
-48.35
-44.92
-37.84
-28.25
-17.74
-7.96
-0.48
3.53
3.74
0.69
-4.32
-9.59
-13.56
-15.29
-14.61
-12.05
-8.51
-4.84
-1.64
0.75
2.33
3.31
4.03
4.90
6.10
7.58
8.92
9.64
9.28
7.92
5.97
4.18
3.34
3.90
6.07
9.77
14.76
20.56
26.41
31.17
33.67
33.17
29.71
24.31
18.55
14.01
11.60
11.44
12.94
15.19
17.47
19.19
19.88
19.03
16.19
11.21
4.48
-2.99
-9.90
-15.04
-17.74
-18.03
-16.56
-14.11
-11.29
-8.41
-5.45
-2.30
0.98
4.07
6.45
7.54
6.87
4.40
0.34
-4.75
-10.19
-15.37
-19.82
-23.41
-26.11
-28.12
-29.54
-30.54
-31.22
-31.61
-31.64
-31.03
-29.43
-26.43
-21.90
-16.23
-10.33
-5.41
-2.60
-2.45
-4.90
-9.40
-15.21
-21.57
-27.91
-33.60
-37.93
-40.24
-40.26
-38.34
-35.55
-33.20
-32.25
-32.90
-34.45
-35.63
-35.02
-31.68
-25.24
-15.92
-4.39
8.37
21.31
33.49
44.12
52.73
59.15
63.29
65.28
65.30
63.77
61.35
58.79
56.63
54.88
53.16
50.78
47.29
42.77
37.80
33.23
29.82
27.80
26.89
26.46
25.74
24.09
21.11
16.67
10.95
4.34
-2.56
-9.14
-14.85
-19.20
-21.81
-22.45
-21.21
-18.56
-15.39
-12.80
-11.84
-13.05
-16.32
-21.04
-26.35
-31.62
-36.61
-41.36
-45.83
-49.77
-52.65
-53.97
-53.53
-51.52
-48.43
-44.75
-40.76
-36.56
-32.18
-27.72
-23.35
-19.20
-15.20
-11.07
-6.43
-0.88
5.71
13.30
21.70
30.59
39.46
47.45
53.43
56.19
54.91
49.52
40.83
30.53
20.52
12.48
7.35
5.19
5.36
7.03
9.42
12.05
14.55
16.55
17.55
17.25
15.69
13.42
11.49
10.98
12.55
16.23
21.27
26.49
30.81
33.44
34.22
33.47
31.74
29.59
27.32
24.81
21.61
17.39
12.07
6.18
0.70
-3.40
-5.65
-6.31
-6.40
-7.13
-9.30
-12.97
-17.53
-22.10
-26.08
-29.27
-31.80
-33.84
-35.36
-36.07
-35.71
-34.15
-31.48
-27.95
-23.71
-18.88
-13.51
-7.90
-2.66
1.41
3.63
3.64
1.70
-1.35
-4.32
-6.06
-5.83
-3.60
-0.08
3.58
6.22
7.04
5.92
3.33
0.10
-2.93
-5.15
-6.08
-5.52
-3.39
0.11
4.42
8.69
11.97
13.54
13.16
11.13
8.06
4.51
0.83
-2.99
-7.07
-11.44
-15.93
-20.28
-24.32
-28.08
-31.66
-35.13
-38.19
-40.14
-40.14
-37.56
-32.36
-25.22
-17.29
-9.71
-3.34
1.48
4.82
6.85
7.64
7.25
5.76
3.47
0.83
-1.62
-3.55
-4.93
-5.94
-6.85
-7.89
-9.05
-10.18
-11.12
-11.78
-12.18
-12.39
-12.36
-11.86
-10.60
-8.37
-5.18
-1.38
2.54
6.14
9.14
11.53
13.62
15.86
18.80
22.82
28.00
33.95
39.74
44.07
45.54
43.27
37.24
28.54
18.86
10.00
3.28
-0.89
-2.84
-3.45
-3.61
-4.05
-5.14
-7.09
-10.11
-14.46
-20.32
-27.53
-35.47
-43.11
-49.30
-53.10
-54.16
-52.58
-48.77
-43.10
-35.64
-26.21
-14.62
-0.95
14.42
30.81
47.43
63.42
77.79
89.48
97.64
101.83
102.24
99.56
94.61
87.92
79.65
69.66
58.00
45.23
32.39
20.73
11.10
3.72
-1.77
-5.94
-9.36
-12.38
-15.26
-18.17
-21.24
-24.47
-27.64
-30.35
-32.21
-33.03
-33.00
-32.63
-32.55
-33.28
-34.95
-37.13
-38.97
-39.52
-38.21
-35.23
-31.66
-29.09
-29.02
-32.07
-37.65
-44.12
-49.48
-52.04
-50.97
-46.32
-38.76
-29.33
-19.22
-9.72
-2.14
2.50
3.90
2.65
0.16
-1.80
-1.72
1.23
7.08
15.04
23.85
32.12
38.58
42.33
43.03
40.84
36.45
30.82
24.83
19.16
14.20
10.05
6.68
4.03
2.06
0.76
0.12
-0.02
0.05
-0.13
-1.07
-3.18
-6.55
-10.91
-15.65
-19.88
-22.75
-23.52
-21.85
-17.88
-12.22
-5.78
0.48
5.86
10.12
13.40
16.14
18.64
20.81
22.20
22.14
20.18
16.42
11.54
6.53
2.34
-0.58
-2.35
-3.35
-3.87
-3.82
-2.77
-0.34
3.33
7.30
10.15
10.44
7.52
1.93
-4.78
-10.70
-14.30
-14.96
-13.03
-9.51
-5.47
-1.69
1.42
3.71
5.07
5.31
4.41
2.58
0.34
-1.65
-2.84
-3.00
-2.35
-1.36
-0.42
0.39
1.38
3.10
5.92
9.78
14.11
17.95
20.36
20.89
19.56
16.83
13.28
9.38
5.54
2.11
-0.47
-1.85
-1.91
-1.01
0.11
0.55
-0.45
-3.14
-7.27
-12.12
-16.75
-20.18
-21.80
-21.41
-19.38
-16.63
-14.21
-12.94
-13.08
-14.28
-15.72
-16.59
-16.31
-14.80
-12.48
-9.96
-7.95
-7.02
-7.52
-9.51
-12.89
-17.41
-22.64
-28.13
-33.19
-37.05
-38.93
-38.24
-34.71
-28.55
-20.30
-10.60
-0.06
10.78
21.30
30.72
38.14
42.82
44.34
42.95
39.41
34.70
29.69
24.84
20.23
15.70
11.07
6.29
1.46
-3.26
-7.77
-11.94
-15.67
-18.80
-21.08
-22.30
-22.34
-21.19
-19.04
-16.20
-12.92
-9.36
-5.46
-0.98
4.31
10.34
16.61
22.23
26.18
27.71
26.63
23.36
18.75
13.81
9.32
5.75
3.22
1.58
0.51
-0.48
-1.88
-4.07
-7.19
-10.88
-14.44
-17.00
-17.92
-16.97
-14.44
-10.91
-7.00
-3.26
0.04
2.79
4.90
6.29
6.95
6.87
6.21
5.29
4.45
3.97
4.00
4.48
5.21
6.02
6.73
7.27
7.71
8.12
8.55
8.93
9.17
9.19
8.97
8.61
8.27
8.11
8.11
8.12
7.89
7.17
5.91
4.30
2.76
1.60
0.93
0.30
-0.94
-3.32
-6.87
-10.94
-14.46
-16.42
-16.46
-14.83
-12.34
-9.71
-7.23
-4.84
-2.35
0.06
1.95
2.77
2.35
1.00
-0.67
-2.13
-3.12
-3.76
-4.25
-4.50
-4.06
-2.11
2.25
9.62
20.25
33.88
49.69
66.36
82.09
94.95
103.31
106.31
104.04
97.49
88.02
76.96
65.30
53.57
42.11
31.10
20.88
11.77
4.02
-2.41
-7.77
-12.43
-16.71
-20.80
-24.73
-28.49
-32.04
-35.42
-38.73
-42.16
-45.70
-49.25
-52.51
-55.03
-56.41
-56.42
-55.17
-53.10
-50.90
-49.15
-48.30
-48.42
-49.27
-50.39
-51.26
-51.57
-51.15
-50.03
-48.27
-45.89
-42.69
-38.32
-32.27
-24.07
-13.46
-0.56
13.91
28.72
42.43
53.77
62.03
67.14
69.56
69.90
68.64
65.84
61.33
54.98
46.95
37.77
28.15
18.94
10.94
4.80
0.87
-0.88
-0.97
-0.39
-0.42
-2.17
-6.14
-12.02
-18.83
-25.34
-30.58
-34.18
-36.46
-38.08
-39.70
-41.63
-43.68
-45.27
-45.73
-44.52
-41.39
-36.57
-30.50
-23.83
-17.29
-11.52
-6.97
-3.86
-2.13
-1.53
-1.80
-2.66
-4.01
-5.89
-8.35
-11.38
-14.83
-18.48
-22.04
-25.29
-28.05
-30.14
-31.43
-31.72
-30.87
-28.95
-26.22
-23.13
-20.18
-17.67
-15.50
-13.28
-10.38
-6.34
-1.14
4.78
10.67
15.76
19.60
22.24
24.08
25.80
28.07
31.38
35.95
41.62
47.84
53.86
58.88
62.21
63.46
62.47
59.19
53.65
46.02
36.53
25.74
14.37
3.11
-7.52
-17.19
-25.70
-32.79
-37.97
-40.90
-41.42
-39.98
-37.58
-35.60
-35.14
-36.76
-40.15
-44.23
-47.67
-49.21
-48.09
-44.10
-37.52
-28.96
-19.41
-9.95
-1.64
4.77
9.15
12.08
14.61
17.80
22.17
27.36
32.32
35.84
37.07
36.13
34.00
32.15
31.96
34.06
38.14
43.13
47.67
50.57
51.26
49.74
46.47
42.09
37.19
32.29
27.77
24.10
21.61
20.50
20.61
21.28
21.47
20.11
16.43
10.35
2.50
-6.15
-14.50
-21.84
-27.94
-32.96
-37.27
-40.98
-43.94
-45.72
-45.90
-44.23
-40.90
-36.35
-31.18
-26.03
-21.37
-17.53
-14.63
-12.69
-11.58
-11.03
-10.71
-10.20
-9.21
-7.68
-5.71
-3.33
-0.57
2.69
6.59
10.98
15.45
19.33
21.95
22.88
22.08
19.73
16.07
11.35
5.71
-0.58
-7.04
-12.90
-17.38
-19.86
-20.24
-19.07
-17.30
-16.10
-16.18
-17.52
-19.33
-20.34
-19.24
-15.30
-8.58
0.08
9.36
18.11
25.60
31.75
36.86
41.24
44.75
46.68
46.08
42.24
35.33
26.42
17.16
9.09
3.04
-1.04
-3.72
-5.47
-6.41
-6.19
-4.48
-1.38
2.42
5.82
7.77
7.68
5.54
1.77
-2.98
-8.13
-13.29
-18.17
-22.63
-26.52
-29.73
-32.11
-33.44
-33.41
-31.66
-27.92
-22.13
-14.66
-6.15
2.41
10.00
15.64
18.68
18.93
16.74
12.84
8.14
3.46
-0.75
-4.36
-7.35
-9.51
-10.48
-9.79
-7.43
-4.02
-0.77
0.89
0.00
-3.43
-8.40
-13.38
-16.89
-18.08
-16.82
-13.52
-8.93
-3.92
0.56
3.47
3.82
1.16
-4.20
-10.96
-17.16
-20.87
-20.80
-16.63
-8.99
1.01
12.20
23.48
33.79
42.11
47.45
49.14
47.01
41.66
34.30
26.47
19.52
14.33
11.23
9.96
9.97
10.61
11.35
11.86
12.15
12.36
12.71
13.36
14.19
14.92
15.18
14.55
12.77
9.72
5.49
0.41
-4.99
-10.21
-14.83
-18.67
-21.75
-24.16
-25.96
-27.06
-27.33
-26.65
-25.06
-22.76
-20.05
-17.24
-14.50
-11.96
-9.75
-7.96
-6.75
-6.23
-6.33
-6.90
-7.66
-8.32
-8.64
-8.53
-7.88
-6.60
-4.56
-1.68
1.88
5.74
9.46
12.51
14.65
15.87
16.38
16.52
16.53
16.43
16.04
15.20
13.69
11.54
8.89
5.99
3.12
0.59
-1.38
-2.65
-3.21
-3.20
-2.92
-2.75
-3.09
-4.17
-5.99
-8.41
-11.08
-13.67
-15.96
-17.90
-19.54
-21.14
-22.81
-24.54
-26.14
-27.32
-27.87
-27.79
-27.28
-26.56
-25.83
-25.01
-23.94
-22.44
-20.48
-18.29
-16.37
-15.24
-15.27
-16.58
-19.05
-22.41
-26.47
-31.09
-36.16
-41.46
-46.41
-50.21
-51.92
-50.86
-46.79
-40.07
-31.36
-21.38
-10.72
0.36
11.72
23.21
34.65
45.77
56.39
66.33
75.39
83.08
88.70
91.48
90.83
86.82
80.11
71.88
63.42
55.81
49.68
45.23
42.21
40.08
38.30
36.34
33.88
30.86
27.33
23.37
18.94
13.90
8.07
1.57
-5.18
-11.62
-17.12
-21.35
-24.12
-25.40
-25.09
-23.06
-19.20
-13.73
-7.34
-1.10
3.73
6.26
6.12
3.64
-0.33
-4.71
-8.66
-11.64
-13.50
-14.38
-14.44
-13.88
-12.98
-12.06
-11.54
-11.76
-12.90
-14.83
-17.13
-19.31
-20.85
-21.54
-21.40
-20.68
-19.76
-19.11
-19.06
-19.80
-21.25
-23.08
-24.76
-25.83
-26.01
-25.21
-23.57
-21.27
-18.47
-15.27
-11.67
-7.68
-3.44
0.86
4.94
8.58
11.59
13.82
15.17
15.67
15.49
14.79
13.83
12.75
11.74
10.93
10.34
9.93
9.61
9.24
8.65
7.79
6.60
5.15
3.58
2.06
0.68
-0.50
-1.43
-2.21
-2.92
-3.72
-4.77
-6.08
-7.48
-8.58
-8.93
-8.10
-5.91
-2.45
1.87
6.40
10.55
13.77
15.85
16.80
16.83
16.27
15.47
14.62
13.76
12.83
11.65
10.15
8.28
6.07
3.60
0.93
-1.91
-4.85
-7.75
-10.53
-13.05
-15.31
-17.40
-19.41
-21.38
-23.24
-24.76
-25.68
-25.94
-25.60
-24.86
-23.95
-22.94
-21.66
-19.80
-17.03
-13.25
-8.63
-3.61
1.17
5.16
7.97
9.54
10.01
9.66
8.71
7.37
5.94
4.55
3.40
2.66
2.42
2.69
3.44
4.53
5.75
6.90
7.74
8.10
7.96
7.38
6.45
5.23
3.68
1.75
-0.55
-3.10
-5.73
-8.23
-10.52
-12.58
-14.42
-15.90
-16.81
-16.82
-15.67
-13.22
-9.55
-5.07
-0.23
4.43
8.51
11.76
14.09
15.53
16.20
16.19
15.58
14.44
12.89
11.05
9.18
7.57
6.49
6.05
6.18
6.63
7.05
7.15
6.74
5.84
4.64
3.37
2.19
1.13
0.16
-0.79
-1.77
-2.87
-4.11
-5.56
-7.22
-8.97
-10.59
-11.67
-11.80
-10.76
-8.55
-5.46
-1.87
1.82
5.45
8.95
12.30
15.40
18.04
19.93
20.84
20.74
19.80
18.29
16.55
14.72
12.94
11.29
9.82
8.61
7.63
6.74
5.75
4.45
2.66
0.45
-2.02
-4.54
-6.95
-9.17
-11.26
-13.23
-15.08
-16.83
-18.39
-19.60
-20.30
-20.30
-19.36
-17.49
-14.82
-11.61
-8.26
-5.06
-2.11
0.51
2.85
4.88
6.51
7.71
8.40
8.56
8.24
7.63
6.88
6.24
5.86
5.74
5.85
6.03
6.06
5.85
5.34
4.49
3.32
1.81
-0.14
-2.52
-5.20
-8.07
-10.86
-13.32
-15.30
-16.77
-17.78
-18.44
-18.77
-18.65
-17.98
-16.59
-14.48
-11.81
-8.85
-5.91
-3.20
-0.85
1.19
2.95
4.53
5.93
7.14
8.15
8.86
9.26
9.34
9.20
8.92
8.62
8.30
7.91
7.39
6.73
5.97
5.25
4.68
4.26
3.87
3.33
2.38
0.97
-0.87
-3.02
-5.36
-7.74
-10.03
-12.05
-13.47
-14.01
-13.36
-11.44
-8.42
-4.71
-0.75
3.07
6.53
9.64
12.46
15.04
17.33
19.21
20.48
21.06
20.96
20.36
19.52
18.67
17.96
17.39
16.90
16.36
15.69
14.77
13.50
11.78
9.47
6.55
3.18
-0.30
-3.44
-5.92
-7.67
-8.99
-10.34
-12.12
-14.42
-16.88
-18.87
-19.75
-19.20
-17.28
-14.48
-11.36
-8.37
-5.74
-3.47
-1.48
0.24
1.66
2.68
3.12
2.83
1.65
-0.49
-3.51
-7.22
-11.25
-15.18
-18.57
-21.19
-23.03
-24.16
-24.87
-25.46
-26.32
-27.77
-30.07
-33.25
-37.18
-41.64
-46.23
-50.61
-54.44
-57.38
-58.95
-58.67
-55.98
-50.56
-42.44
-32.00
-19.88
-6.82
6.53
19.70
32.25
43.90
54.36
63.28
70.62
76.35
80.64
83.75
85.93
87.32
88.18
88.90
89.96
91.98
95.13
99.12
102.96
105.27
104.65
100.34
92.42
81.71
69.63
57.39
45.83
35.12
24.88
14.50
3.57
-7.81
-19.02
-28.84
-36.13
-40.15
-40.87
-39.20
-36.53
-34.28
-33.36
-34.01
-35.67
-37.54
-38.81
-38.97
-37.97
-35.99
-33.35
-30.19
-26.57
-22.33
-17.40
-11.77
-5.53
1.02
7.45
13.24
17.79
20.63
21.39
20.00
16.68
12.03
6.72
1.37
-3.52
-7.77
-11.45
-14.75
-17.85
-20.78
-23.19
-24.57
-24.26
-21.76
-17.09
-10.80
-3.78
2.98
8.69
12.85
15.27
15.97
15.05
12.74
9.44
5.82
2.65
0.52
-0.34
-0.21
0.24
0.31
-0.46
-2.14
-4.45
-6.89
-9.08
-10.80
-11.96
-12.70
-13.16
-13.45
-13.67
-13.89
-14.21
-14.80
-15.76
-17.10
-18.72
-20.43
-21.82
-22.48
-22.14
-20.61
-18.07
-14.87
-11.45
-8.19
-5.32
-2.86
-0.73
1.13
2.80
4.24
5.39
6.23
6.71
6.87
6.75
6.30
5.54
4.58
3.51
2.48
1.54
0.61
-0.37
-1.47
-2.70
-3.97
-5.09
-6.01
-6.67
-7.18
-7.70
-8.40
-9.32
-10.51
-11.96
-13.53
-15.03
-16.11
-16.28
-15.21
-12.77
-9.17
-4.98
-0.82
2.80
5.61
7.57
8.89
9.65
9.90
9.67
9.11
8.49
8.20
8.46
9.22
10.27
11.25
11.81
11.91
11.62
11.05
10.34
9.49
8.47
7.29
5.97
4.48
2.86
1.10
-0.79
-2.71
-4.54
-6.18
-7.64
-8.99
-10.29
-11.41
-12.10
-11.97
-10.64
-8.05
-4.44
-0.33
3.69
7.12
9.72
11.48
12.45
12.78
12.48
11.53
10.04
8.19
6.28
4.64
3.44
2.68
2.23
1.85
1.32
0.57
-0.40
-1.53
-2.76
-4.07
-5.46
-6.86
-8.17
-9.28
-10.10
-10.64
-11.02
-11.38
-11.81
-12.34
-12.83
-13.04
-12.80
-11.94
-10.45
-8.39
-5.85
-2.87
0.44
3.93
7.45
10.71
13.42
15.41
16.61
17.08
17.02
16.58
15.94
15.21
14.59
14.18
14.11
14.29
14.45
14.19
13.06
10.75
7.25
2.85
-1.94
-6.58
-10.68
-14.12
-17.05
-19.86
-22.93
-26.51
-30.71
-35.31
-39.90
-43.99
-47.09
-48.80
-48.97
-47.71
-45.43
-42.74
-40.26
-38.26
-36.68
-35.02
-32.58
-28.91
-23.89
-17.76
-11.14
-4.59
1.55
7.18
12.52
17.93
23.44
28.70
32.94
35.17
34.60
30.95
24.65
16.76
8.68
1.64
-3.52
-6.58
-7.74
-7.44
-6.07
-3.97
-1.38
1.46
4.19
6.56
8.38
9.70
10.83
12.12
13.65
15.25
16.42
16.61
15.69
13.88
11.67
9.70
8.51
8.41
9.59
12.16
15.90
20.21
24.06
26.10
25.25
21.22
14.60
6.63
-1.32
-8.31
-14.08
-18.83
-23.01
-26.94
-30.74
-34.46
-38.12
-41.84
-45.58
-49.05
-51.72
-52.81
-51.61
-47.59
-40.54
-30.52
-17.82
-2.98
13.14
29.29
43.84
55.17
62.00
63.85
61.16
55.18
47.57
39.95
33.64
29.33
27.11
26.47
26.54
26.39
25.36
23.27
20.53
17.84
15.89
15.02
15.11
15.74
16.31
16.26
15.11
12.49
8.26
2.58
-3.95
-10.35
-15.38
-18.09
-17.94
-14.99
-9.82
-3.29
3.68
10.31
16.04
20.44
23.23
24.25
23.45
20.90
16.73
11.10
4.31
-3.18
-10.82
-17.98
-24.16
-29.11
-32.83
-35.46
-37.27
-38.52
-39.42
-40.20
-41.03
-41.89
-42.68
-43.20
-43.20
-42.61
-41.56
-40.26
-38.86
-37.30
-35.17
-31.95
-27.08
-20.09
-10.90
0.09
12.09
23.90
34.30
42.21
46.97
48.47
47.16
43.75
38.99
33.42
27.45
21.35
15.38
9.83
5.00
1.15
-1.64
-3.31
-4.06
-4.19
-4.21
-4.65
-5.89
-7.97
-10.46
-12.72
-13.84
-13.05
-9.91
-4.44
2.99
11.82
21.36
31.01
40.17
48.51
55.87
62.29
67.86
72.54
76.12
78.03
77.71
74.65
68.74
60.32
50.08
38.89
27.51
16.47
6.00
-3.76
-12.69
-20.70
-27.79
-34.11
-39.87
-45.28
-50.40
-55.12
-59.06
-61.83
-63.12
-62.93
-61.53
-59.31
-56.63
-53.69
-50.39
-46.40
-41.20
-34.17
-24.81
-12.92
1.21
16.77
32.51
47.09
59.39
68.64
74.61
77.42
77.31
74.47
68.98
61.06
51.16
40.07
28.73
18.09
8.73
0.80
-5.82
-11.45
-16.32
-20.49
-23.95
-26.65
-28.60
-29.97
-31.04
-32.03
-33.10
-34.21
-35.14
-35.68
-35.70
-35.28
-34.72
-34.28
-34.04
-33.86
-33.30
-31.97
-29.70
-26.74
-23.73
-21.39
-20.22
-20.28
-21.23
-22.43
-23.34
-23.75
-23.67
-23.32
-23.00
-22.82
-22.63
-22.14
-20.83
-18.23
-14.11
-8.65
-2.63
2.51
4.92
2.91
-4.41
-16.53
-31.62
-46.95
-59.67
-67.74
-70.17
-67.11
-59.38
-48.05
-34.14
-18.53
-2.06
14.71
31.34
47.69
63.63
78.78
92.33
103.18
110.27
112.82
110.72
104.34
94.48
82.25
68.76
55.19
42.56
31.62
22.65
15.41
9.38
3.88
-1.45
-6.81
-12.21
-17.70
-23.32
-29.08
-34.81
-40.10
-44.47
-47.24
-48.01
-46.66
-43.54
-39.45
-35.33
-32.13
-30.36
-30.10
-30.74
-31.34
-30.86
-28.37
-23.40
-15.85
-6.17
4.75
15.69
25.30
32.31
35.80
35.58
32.00
26.08
19.06
12.25
6.63
2.67
0.38
-0.70
-1.22
-1.80
-2.83
-4.46
-6.49
-8.65
-10.78
-12.76
-14.67
-16.53
-18.21
-19.51
-20.23
-20.26
-19.72
-18.88
-17.92
-16.80
-15.29
-12.97
-9.57
-5.09
0.35
6.52
13.32
20.76
28.70
36.51
43.06
46.83
46.51
41.80
33.54
23.58
14.01
6.30
0.94
-2.47
-4.82
-6.75
-8.36
-9.44
-9.69
-9.05
-7.94
-7.00
-6.68
-7.20
-8.37
-9.76
-11.06
-12.15
-13.13
-14.27
-15.84
-17.78
-19.56
-20.20
-18.63
-14.27
-7.39
0.75
8.31
13.44
15.07
13.25
8.95
3.54
-1.77
-6.14
-9.11
-10.35
-9.68
-7.20
-3.65
-0.34
1.28
0.25
-3.26
-7.97
-11.83
-12.98
-10.32
-4.05
4.57
13.79
21.77
27.12
29.02
27.36
22.57
15.61
7.71
0.11
-6.03
-10.08
-11.75
-11.14
-8.69
-4.90
-0.24
4.76
9.61
13.76
16.53
17.29
15.55
11.20
4.57
-3.40
-11.45
-18.35
-23.19
-25.71
-26.30
-25.76
-24.92
-24.30
-23.98
-23.75
-23.40
-22.85
-22.18
-21.44
-20.41
-18.80
-16.21
-12.53
-8.04
-3.28
1.28
5.42
9.34
13.41
17.81
22.32
26.40
29.32
30.69
30.68
29.80
28.83
28.44
29.01
30.58
32.95
35.63
37.97
39.38
39.33
37.61
34.47
30.56
26.63
23.35
21.06
19.81
19.40
19.46
19.60
19.46
18.71
17.16
14.76
11.64
8.00
4.12
0.20
-3.57
-7.08
-10.41
-13.68
-16.98
-20.17
-22.81
-24.23
-23.88
-21.46
-17.24
-12.02
-6.78
-2.47
0.39
1.69
1.74
0.95
-0.28
-1.69
-3.25
-4.91
-6.66
-8.30
-9.51
-9.95
-9.40
-7.96
-6.00
-4.13
-2.94
-2.88
-4.10
-6.51
-9.80
-13.47
-17.06
-20.15
-22.62
-24.53
-26.24
-28.09
-30.26
-32.65
-34.75
-36.04
-36.13
-35.01
-32.97
-30.44
-27.74
-25.05
-22.47
-20.07
-18.14
-16.95
-16.69
-17.18
-17.77
-17.60
-15.84
-12.08
-6.40
0.80
9.23
18.90
30.17
43.32
58.00
72.97
86.30
95.94
100.64
100.47
96.73
91.49
86.51
82.64
79.63
76.54
72.21
65.84
57.07
45.93
32.56
17.20
0.41
-16.76
-32.62
-45.35
-53.56
-56.85
-56.07
-52.86
-48.93
-45.39
-42.43
-39.55
-36.19
-32.17
-27.77
-23.62
-20.34
-18.30
-17.53
-17.82
-18.92
-20.54
-22.49
-24.66
-27.00
-29.44
-31.89
-34.09
-35.64
-36.31
-36.05
-35.16
-34.10
-33.35
-33.08
-33.11
-33.00
-32.30
-30.71
-28.25
-25.16
-21.86
-18.73
-16.07
-14.03
-12.77
-12.40
-12.94
-14.20
-15.73
-16.96
-17.24
-16.20
-13.84
-10.61
-7.17
-4.00
-1.14
1.87
5.72
10.94
17.44
24.35
30.30
33.96
34.73
32.89
29.56
26.06
23.42
22.06
21.86
22.64
24.24
26.60
29.37
31.77
32.59
30.71
25.69
18.17
9.78
2.62
-1.56
-1.92
1.19
6.53
12.38
17.25
20.14
20.80
19.64
17.40
14.90
12.79
11.50
10.98
10.96
10.88
10.25
8.87
7.00
5.32
4.67
5.75
8.76
13.32
18.60
23.41
26.66
27.55
25.74
21.46
15.40
8.45
1.46
-4.96
-10.70
-15.93
-20.95
-25.94
-30.80
-35.23
-38.81
-41.11
-41.81
-40.88
-38.50
-35.10
-31.20
-27.22
-23.34
-19.44
-15.14
-10.07
-4.17
2.23
8.50
13.85
17.79
20.11
21.01
20.87
20.12
19.09
17.91
16.71
15.34
13.70
11.51
8.55
4.63
-0.15
-5.56
-11.18
-16.53
-21.39
-25.60
-29.20
-32.20
-34.58
-36.12
-36.51
-35.33
-32.22
-27.09
-19.98
-11.24
-1.40
8.80
18.45
26.50
31.97
34.09
32.59
27.96
21.37
14.41
8.57
4.77
3.08
2.88
3.34
3.82
4.22
4.83
6.05
8.05
10.63
13.16
14.88
15.11
13.40
9.75
4.62
-1.20
-6.80
-11.47
-14.95
-17.37
-19.09
-20.41
-21.32
-21.57
-20.73
-18.60
-15.20
-10.70
-5.30
0.90
7.76
15.04
22.12
28.32
32.77
34.98
34.88
32.71
28.98
24.12
18.34
11.78
4.63
-2.71
-9.51
-15.02
-18.70
-20.49
-20.80
-20.42
-20.15
-20.39
-21.12
-21.85
-21.86
-20.57
-17.65
-13.24
-7.95
-2.76
1.31
3.34
2.83
-0.18
-5.19
-11.28
-17.44
-22.70
-26.22
-27.40
-26.06
-22.37
-16.94
-10.55
-3.97
2.20
7.76
12.68
17.08
21.00
24.39
27.11
29.01
29.95
29.85
28.65
26.35
23.17
19.41
15.43
11.46
7.47
3.34
-1.07
-5.73
-10.44
-14.86
-18.75
-22.01
-24.67
-26.74
-28.09
-28.51
-27.89
-26.36
-24.22
-21.89
-19.61
-17.34
-14.88
-12.08
-9.00
-5.91
-3.16
-0.93
0.80
2.28
3.78
5.31
6.76
7.86
8.37
8.28
7.78
7.18
6.82
6.97
7.61
8.58
9.56
10.14
10.03
9.07
7.40
5.26
3.03
0.95
-0.84
-2.31
-3.57
-4.73
-5.88
-7.04
-8.18
-9.14
-9.71
-9.61
-8.69
-7.02
-4.85
-2.56
-0.45
1.33
2.88
4.31
5.82
7.45
9.06
10.48
11.52
12.13
12.31
12.21
11.93
11.56
11.17
10.70
10.08
9.24
8.18
6.99
5.80
4.70
3.65
2.60
1.43
0.06
-1.47
-3.07
-4.58
-5.91
-7.07
-8.17
-9.28
-10.35
-11.22
-11.66
-11.46
-10.49
-8.74
-6.30
-3.38
-0.20
2.98
5.88
8.24
9.84
10.58
10.51
9.75
8.53
7.11
5.79
4.80
4.31
4.34
4.80
5.43
5.88
5.88
5.30
4.28
3.13
2.21
1.74
1.62
1.56
1.19
0.20
-1.46
-3.66
-6.16
-8.69
-11.02
-13.05
-14.58
-15.43
-15.43
-14.45
-12.59
-10.07
-7.26
-4.44
-1.85
0.50
2.73
4.82
6.73
8.30
9.34
9.68
9.39
8.55
7.43
6.28
5.24
4.42
3.88
3.63
3.60
3.65
3.55
3.15
2.38
1.25
-0.06
-1.43
-2.79
-4.17
-5.60
-7.17
-8.85
-10.57
-12.23
-13.66
-14.68
-15.10
-14.71
-13.35
-11.09
-8.14
-4.95
-1.98
0.53
2.47
3.93
5.10
6.08
6.79
7.05
6.73
5.73
4.18
2.36
0.61
-0.74
-1.38
-1.20
-0.19
1.49
3.51
5.52
7.15
8.22
8.64
8.54
8.10
7.56
7.04
6.59
6.14
5.55
4.69
3.48
1.92
0.12
-1.65
-3.06
-3.76
-3.50
-2.22
-0.10
2.54
5.25
7.63
9.50
10.81
11.68
12.24
12.58
12.67
12.52
12.15
11.65
11.18
10.78
10.51
10.24
9.91
9.44
8.84
8.24
7.69
7.16
6.53
5.65
4.40
2.78
0.88
-1.17
-3.21
-5.15
-6.93
-8.62
-10.26
-11.91
-13.60
-15.25
-16.72
-17.73
-18.12
-17.65
-16.26
-13.98
-10.92
-7.31
-3.38
0.49
3.98
6.70
8.48
9.31
9.33
8.79
7.94
7.05
6.27
5.71
5.39
5.29
5.36
5.55
5.85
6.23
6.71
7.18
7.46
7.36
6.66
5.30
3.37
1.14
-1.17
-3.33
-5.28
-7.13
-8.98
-10.95
-12.94
-14.74
-15.95
-16.26
-15.54
-13.89
-11.54
-8.73
-5.71
-2.54
0.65
3.75
6.57
8.85
10.45
11.33
11.67
11.53
11.00
10.11
8.89
7.51
6.17
5.15
4.56
4.47
4.69
4.90
4.88
4.46
3.76
3.02
2.56
2.45
2.63
2.90
2.91
2.41
1.28
-0.47
-2.77
-5.51
-8.55
-11.67
-14.42
-16.42
-17.29
-16.88
-15.21
-12.51
-9.15
-5.46
-1.78
1.67
4.67
7.08
8.76
9.76
10.23
10.41
10.50
10.56
10.48
10.09
9.30
8.13
6.82
5.71
5.06
4.86
4.92
4.92
4.60
3.89
2.93
1.88
0.91
0.03
-0.86
-1.88
-3.19
-4.79
-6.76
-9.03
-11.50
-13.89
-15.75
-16.53
-15.82
-13.49
-9.74
-5.18
-0.50
3.66
6.89
9.14
10.56
11.35
11.63
11.40
10.57
9.16
7.36
5.46
3.82
2.62
1.89
1.48
1.23
0.99
0.68
0.34
-0.08
-0.53
-0.99
-1.34
-1.49
-1.41
-1.23
-1.24
-1.69
-2.74
-4.33
-6.18
-7.96
-9.38
-10.31
-10.76
-10.78
-10.39
-9.49
-7.95
-5.74
-2.99
0.09
3.13
5.90
8.22
9.98
11.13
11.66
11.55
10.91
9.96
8.91
7.97
7.22
6.57
5.95
5.34
4.85
4.62
4.74
5.10
5.46
5.48
4.93
3.76
2.10
0.22
-1.69
-3.49
-5.11
-6.52
-7.73
-8.71
-9.45
-10.02
-10.52
-10.98
-11.37
-11.49
-11.09
-9.93
-7.97
-5.37
-2.51
0.23
2.56
4.40
5.88
7.14
8.28
9.23
9.95
10.39
10.65
10.88
11.20
11.64
12.13
12.50
12.62
12.55
12.45
12.53
12.84
13.28
13.60
13.54
12.97
11.98
10.88
10.04
9.69
9.78
10.10
10.34
10.27
9.91
9.53
9.46
10.13
11.76
14.48
18.22
22.72
27.52
32.04
35.80
38.47
40.02
40.74
41.03
41.12
40.84
39.69
36.97
32.16
25.17
16.47
6.98
-2.23
-10.15
-16.11
-19.77
-21.17
-20.61
-18.53
-15.34
-11.44
-7.28
-3.30
-0.09
1.86
2.26
1.17
-0.94
-3.47
-5.85
-8.00
-10.18
-12.95
-16.65
-21.34
-26.58
-31.68
-35.93
-38.81
-40.07
-39.65
-37.70
-34.50
-30.52
-26.31
-22.39
-19.15
-16.80
-15.33
-14.64
-14.51
-14.74
-15.07
-15.37
-15.52
-15.50
-15.33
-15.08
-14.71
-14.14
-13.28
-12.10
-10.72
-9.31
-8.10
-7.25
-6.86
-6.96
-7.52
-8.55
-9.97
-11.72
-13.67
-15.73
-17.77
-19.67
-21.28
-22.43
-22.97
-22.79
-21.86
-20.22
-18.06
-15.57
-12.88
-10.04
-7.07
-3.97
-0.83
2.15
4.74
6.72
7.97
8.64
8.90
8.94
8.91
8.84
8.68
8.43
8.16
7.94
7.84
7.79
7.66
7.34
6.80
6.04
5.20
4.34
3.48
2.63
1.76
0.87
-0.03
-0.99
-2.01
-3.06
-4.00
-4.59
-4.48
-3.43
-1.35
1.65
5.12
8.55
11.50
13.70
15.08
15.82
16.13
16.20
16.26
16.31
16.38
16.38
16.14
15.46
14.17
12.24
9.82
7.15
4.32
1.18
-2.85
-8.50
-16.44
-26.78
-38.99
-51.96
-64.39
-75.34
-84.45
-92.10
-99.07
-106.09
-113.59
-121.45
-129.16
-135.91
-140.83
-143.05
-141.89
-136.93
-127.99
-115.27
-99.23
-80.54
-59.97
-38.36
-16.45
5.09
25.67
44.83
62.20
77.47
90.62
101.84
111.54
120.32
128.80
137.47
146.70
156.69
167.56
179.37
192.10
205.75
220.20
235.38
251.13
267.30
283.51
299.20
313.53
325.48
334.08
338.51
338.28
333.22
323.61
310.14
293.78
275.79
257.34
239.31
221.95
204.87
187.16
167.78
146.07
122.11
96.86
71.94
49.12
29.77
14.29
2.19
-7.70
-16.55
-25.07
-33.23
-40.62
-46.82
-51.72
-55.65
-59.04
-62.08
-64.57
-66.09
-66.32
-65.50
-64.38
-64.07
-65.56
-69.37
-75.35
-82.72
-90.49
-97.86
-104.64
-111.31
-118.75
-127.69
-138.17
-149.46
-160.30
-169.66
-177.31
-183.96
-190.99
-199.65
-210.54
-223.56
-238.09
-253.56
-269.61
-286.06
-302.64
-318.99
-334.81
-350.32
-366.48
-384.63
-405.42
-427.69
-447.78
-460.07
-458.64
-439.30
-401.18
-347.02
-282.08
-212.32
-143.02
-78.03
-20.05
28.87
67.13
93.71
108.85
114.23
112.65
107.27
100.56
93.74
86.81
79.30
70.79
61.44
52.13
43.98
38.17
35.60
36.62
41.03
48.14
56.89
66.06
74.53
81.31
85.88
88.12
88.19
86.37
82.90
77.89
71.53
64.21
56.50
49.19
43.00
38.26
34.83
32.19
29.79
27.24
24.60
22.19
20.40
19.44
19.10
18.96
18.46
17.20
15.02
11.93
8.05
3.52
-1.52
-6.93
-12.60
-18.76
-26.13
-35.88
-49.33
-67.29
-89.57
-114.61
-139.76
-161.60
-176.57
-181.43
-173.61
-151.66
-115.66
-67.55
-11.01
48.83
106.48
157.11
197.51
226.46
244.51
253.23
254.50
249.95
240.47
226.38
207.69
184.49
157.38
127.55
96.47
65.66
36.36
9.23
-15.39
-37.17
-55.80
-70.75
-81.63
-88.52
-91.94
-92.74
-91.80
-89.62
-86.26
-81.56
-75.21
-67.00
-56.88
-44.96
-31.63
-17.72
-4.36
7.12
15.57
20.55
22.39
22.16
21.26
20.77
21.22
22.54
24.41
26.29
27.87
28.93
29.36
29.25
28.89
28.80
29.62
31.67
34.51
36.83
36.92
33.34
25.86
15.68
5.05
-3.49
-8.24
-8.70
-5.66
-0.57
5.06
10.21
14.38
17.50
19.78
21.41
22.51
23.19
23.47
23.26
22.38
20.51
17.20
12.17
5.41
-2.59
-10.73
-17.67
-22.19
-23.79
-22.82
-20.47
-18.18
-17.13
-17.82
-20.07
-23.36
-27.15
-31.08
-34.79
-37.85
-39.65
-39.41
-36.37
-30.04
-20.21
-6.85
10.09
30.59
54.50
81.15
109.36
137.41
163.40
185.57
202.72
214.40
220.79
222.49
220.10
213.98
204.18
190.57
173.17
152.19
128.16
101.74
73.91
46.02
19.93
-1.88
-16.59
-21.43
-14.39
5.41
37.44
79.88
129.63
182.38
232.73
274.57
302.08
310.71
298.41
266.00
216.82
155.66
87.67
17.43
-51.38
-115.81
-173.34
-221.67
-258.80
-283.44
-295.44
-295.97
-287.31
-272.58
-254.91
-236.84
-219.86
-204.21
-189.25
-173.96
-157.54
-139.67
-120.49
-100.35
-79.72
-59.26
-40.30
-24.64
-13.92
-8.25
-5.06
0.76
14.92
40.54
75.55
112.40
140.60
151.09
139.80
109.11
66.26
20.38
-20.51
-50.93
-68.03
-71.22
-62.03
-44.35
-24.09
-8.19
-2.54
-10.45
-31.94
-64.63
-105.20
-150.65
-198.93
-248.61
-298.70
-348.01
-394.57
-435.05
-464.45
-476.66
-466.25
-430.73
-372.12
-297.26
-215.73
-136.83
-66.82
-7.78
41.56
83.82
120.84
153.12
180.23
201.86
218.43
230.64
238.59
241.18
236.54
222.86
200.19
171.03
140.04
112.47
91.94
79.17
71.79
65.80
57.57
45.70
31.26
16.91
5.23
-2.99
-8.84
-14.76
-22.89
-34.07
-47.23
-59.83
-68.28
-68.34
-55.91
-28.29
13.85
65.28
116.67
157.53
180.02
182.16
168.24
146.15
123.16
102.34
82.05
58.18
27.62
-9.25
-48.50
-84.54
-112.89
-131.60
-141.33
-144.09
-141.67
-134.97
-123.89
-108.28
-88.58
-66.32
-43.81
-23.56
-7.48
3.69
10.49
14.72
18.92
25.65
36.62
52.06
70.46
89.00
104.45
114.31
117.60
115.03
108.38
99.76
90.81
82.40
74.71
67.45
60.24
52.73
44.87
36.86
29.23
22.70
17.89
14.90
13.09
11.08
7.21
0.13
-10.50
-24.02
-38.98
-53.70
-67.08
-78.89
-90.00
-102.09
-117.20
-136.88
-161.41
-189.02
-215.55
-234.98
-240.78
-227.93
-194.91
-144.76
-84.63
-23.95
28.40
66.54
89.18
99.81
105.13
112.66
128.23
154.02
188.06
225.02
257.88
279.98
286.78
276.73
251.29
214.56
172.37
131.41
98.17
77.79
73.00
83.26
104.75
131.30
156.23
174.19
182.22
180.03
169.17
152.10
131.31
108.79
85.71
62.34
38.05
11.76
-17.02
-47.24
-75.52
-96.64
-105.07
-96.96
-71.76
-32.59
14.59
62.75
105.43
137.98
158.01
165.32
161.50
148.99
130.73
109.45
87.69
67.68
51.41
40.24
34.58
33.73
35.79
38.38
39.18
36.82
31.19
23.40
15.09
7.58
1.02
-5.91
-15.31
-28.96
-47.00
-67.43
-86.59
-100.60
-107.01
-105.76
-99.18
-90.66
-83.39
-79.18
-78.25
-79.73
-82.33
-85.11
-87.86
-91.37
-97.08
-106.58
-120.86
-139.70
-161.69
-184.58
-206.11
-224.84
-240.30
-252.69
-262.39
-269.18
-272.29
-270.58
-263.04
-249.11
-228.68
-201.79
-168.75
-130.55
-89.60
-49.98
-16.65
6.09
16.24
15.05
6.34
-5.43
-17.49
-30.23
-46.67
-70.58
-104.00
-145.74
-191.50
-235.25
-271.58
-297.33
-312.30
-318.72
-319.61
-317.21
-311.88
-301.70
-282.97
-251.83
-205.48
-143.35
-67.88
16.04
101.58
180.74
245.46
288.90
307.19
301.26
277.64
247.07
221.18
207.96
208.63
217.58
225.56
224.62
211.93
190.71
167.60
148.95
137.88
134.00
135.35
140.89
151.34
168.38
192.24
219.90
245.61
262.64
266.23
255.40
232.99
203.82
172.52
141.56
110.86
78.84
43.96
6.05
-33.41
-71.88
-107.00
-137.48
-163.67
-187.21
-210.17
-233.95
-258.53
-282.33
-302.96
-318.48
-328.27
-333.24
-335.16
-335.43
-334.15
-329.87
-320.34
-303.50
-278.43
-245.52
-205.97
-161.34
-113.06
-62.59
-11.71
37.36
82.29
121.31
153.80
180.24
201.60
218.70
231.75
240.88
247.00
252.56
260.97
274.94
294.66
316.89
336.21
347.19
346.73
334.98
314.51
288.18
257.49
221.99
180.01
130.16
72.52
9.45
-54.34
-112.10
-155.98
-178.33
-173.76
-140.90
-83.36
-9.27
70.66
145.55
206.64
248.28
268.35
267.77
249.83
219.47
182.36
144.05
109.12
80.80
61.05
50.95
51.07
61.49
81.41
108.62
139.29
168.20
189.55
198.29
191.28
168.49
133.14
91.01
49.01
13.12
-13.12
-29.49
-38.55
-44.22
-50.12
-58.45
-69.67
-83.11
-97.95
-113.79
-130.79
-149.19
-168.64
-187.90
-205.22
-219.14
-229.44
-237.51
-245.65
-255.77
-267.83
-279.29
-285.73
-282.47
-266.49
-237.66
-199.23
-156.88
-117.26
-86.37
-68.16
-63.81
-71.68
-87.55
-105.72
-120.33
-126.69
-122.64
-109.40
-91.32
-74.60
-64.99
-65.25
-74.52
-89.39
-106.11
-122.50
-138.51
-155.46
-174.46
-194.99
-214.94
-231.09
-240.33
-240.39
-230.08
-209.43
-179.83
-144.15
-106.30
-70.36
-39.46
-14.99
3.45
17.27
28.19
38.07
48.81
62.25
79.48
100.38
123.71
147.64
170.31
190.53
207.76
221.55
231.13
235.25
232.81
223.73
209.64
194.06
181.58
176.63
181.76
196.41
216.83
236.96
250.20
251.31
237.84
210.75
174.11
134.02
97.21
69.52
54.44
52.13
59.14
69.20
74.96
70.18
51.33
18.11
-27.06
-80.19
-136.73
-192.16
-242.19
-282.88
-311.28
-325.99
-327.66
-319.03
-304.27
-287.84
-273.15
-261.81
-253.11
-244.44
-232.20
-213.04
-185.14
-149.25
-108.48
-67.26
-29.92
0.73
23.89
40.21
50.70
55.94
56.11
51.76
44.49
36.82
31.16
28.32
27.08
24.91
19.91
12.63
6.41
5.81
14.05
31.01
52.80
73.40
87.20
91.15
85.24
71.62
52.92
31.08
7.64
-15.65
-36.20
-50.81
-56.75
-53.11
-41.32
-24.70
-7.12
8.61
21.84
33.99
47.42
63.95
83.74
105.02
124.91
140.73
151.08
156.24
157.70
156.87
154.08
148.47
138.86
125.30
110.23
98.25
94.54
102.36
121.22
146.40
170.38
185.18
184.54
165.58
129.11
79.33
22.70
-33.46
-82.70
-121.18
-148.53
-167.18
-180.76
-191.87
-200.66
-205.10
-202.41
-191.07
-172.11
-149.49
-129.05
-117.13
-118.88
-136.33
-166.93
-203.08
-233.43
-246.47
-235.08
-199.81
-149.28
-97.27
-57.52
-38.73
-42.21
-62.28
-89.08
-111.80
-121.17
-111.16
-79.69
-28.86
35.03
102.74
164.21
211.67
242.63
261.28
277.15
301.48
342.38
400.96
470.24
537.73
590.17
618.56
620.76
600.87
566.24
523.80
477.79
429.62
379.56
328.22
277.18
228.15
181.71
136.46
89.38
37.13
-22.22
-87.85
-155.83
-220.07
-274.23
-314.07
-338.87
-351.63
-357.79
-363.09
-371.44
-383.68
-397.41
-407.67
-408.51
-394.53
-362.06
-310.04
-240.45
-158.38
-71.86
9.06
74.35
116.15
130.61
118.42
83.96
33.04
-29.06
-98.83
-173.79
-250.42
-322.72
-382.47
-421.53
-435.25
-424.73
-396.67
-360.93
-326.56
-298.58
-277.06
-258.23
-237.24
-210.89
-178.83
-143.17
-107.10
-72.99
-41.78
-13.46
11.98
33.52
48.96
55.71
52.13
38.50
17.45
-6.58
-28.93
-45.62
-54.12
-53.40
-43.55
-25.12
1.19
34.71
74.53
119.15
166.53
214.24
260.10
302.77
341.87
377.47
409.21
435.58
453.85
461.00
455.03
436.10
406.71
370.75
332.07
293.30
255.22
217.03
177.45
135.77
92.91
51.41
14.62
-14.77
-35.52
-48.78
-58.07
-67.90
-81.99
-101.54
-125.11
-149.46
-171.28
-187.44
-196.49
-199.45
-199.30
-199.69
-202.43
-206.29
-206.55
-197.50
-173.73
-134.18
-84.39
-35.95
-3.34
1.29
-28.43
-90.53
-176.47
-271.94
-351.90
-390.54
-372.32
-302.33
-202.86
-100.08
-10.61
56.84
110.49
158.58
205.32
251.57
296.68
341.47
383.23
420.56
442.51
440.28
410.48
357.89
292.82
225.50
167.86
120.71
85.12
62.05
53.41
58.72
74.60
96.28
118.82
139.29
156.16
170.12
180.70
187.07
187.24
179.64
164.02
141.62
115.16
87.46
61.97
40.82
25.28
14.72
6.78
-2.22
-16.19
-37.59
-66.43
-99.42
-132.02
-159.96
-181.03
-194.85
-201.98
-202.95
-197.97
-187.89
-174.69
-161.97
-153.81
-153.12
-160.06
-171.91
-184.39
-193.49
-197.00
-194.85
-188.70
-181.07
-174.75
-172.51
-176.70
-188.96
-208.85
-232.93
-254.67
-265.97
-259.47
-231.57
-183.96
-123.53
-61.08
-8.09
26.14
36.79
24.04
-7.55
-50.85
-97.61
-139.72
-170.07
-183.43
-177.92
-156.05
-125.04
-95.12
-76.01
-72.76
-82.99
-97.11
-101.69
-84.84
-41.13
26.38
107.54
189.42
261.29
318.18
361.38
396.11
427.41
456.60
480.57
493.53
490.37
469.64
434.49
391.21
346.59
305.49
270.03
240.31
215.75
195.96
180.43
168.18
157.47
146.15
132.34
115.22
95.26
73.79
52.25
31.38
11.32
-7.66
-24.50
-37.64
-45.73
-48.62
-47.90
-46.66
-48.46
-55.80
-68.97
-85.84
-103.45
-119.12
-130.93
-137.99
-140.73
-141.37
-143.87
-152.73
-170.40
-196.54
-226.26
-250.52
-258.77
-243.05
-201.94
-141.64
-74.03
-12.10
32.44
52.72
49.14
27.92
1.44
-17.73
-23.88
-24.00
-23.31
-24.04
-25.72
-26.98
-25.45
-22.58
-22.89
-31.67
-51.93
-82.03
-117.60
-153.11
-183.54
-205.44
-217.34
-219.80
-214.79
-205.35
-195.00
-188.61
-191.17
-205.89
-232.54
-267.13
-302.98
-332.44
-348.64
-346.93
-326.33
-288.93
-238.41
-178.48
-111.86
-40.17
35.21
112.58
189.61
263.63
332.29
394.17
448.58
494.78
531.62
557.91
573.37
579.17
577.60
570.47
557.69
537.13
505.94
463.16
411.84
359.11
313.67
281.97
264.76
256.07
245.64
223.14
182.34
122.92
49.55
-31.20
-113.79
-195.65
-276.60
-356.86
-434.66
-504.90
-559.57
-589.63
-588.10
-552.64
-487.82
-404.69
-317.97
-241.74
-184.79
-148.22
-126.42
-110.65
-93.04
-69.66
-40.66
-8.08
26.58
63.34
102.99
145.06
186.70
223.83
252.47
270.35
277.76
276.90
270.21
259.23
244.04
224.33
201.49
178.37
158.00
142.25
131.00
122.24
113.35
102.44
85.02
61.79
38.32
21.89
17.00
24.83
41.27
61.83
82.61
100.51
111.92
114.02
104.42
81.56
45.28
-3.00
-60.04
-121.98
-185.13
-246.18
-302.47
-351.45
-389.16
-409.07
-403.19
-365.01
-293.70
-196.43
-86.97
18.16
104.47
163.08
191.56
191.94
168.14
124.24
64.60
-4.99
-77.05
-144.08
-201.11
-247.18
-284.91
-318.05
-348.44
-374.36
-391.09
-393.46
-378.64
-347.77
-305.23
-256.66
-206.75
-157.91
-110.19
-62.43
-13.06
39.23
95.46
156.31
222.18
292.87
367.28
442.68
514.38
576.44
623.08
650.15
656.16
642.31
611.31
566.54
511.34
449.24
384.25
320.59
261.32
207.20
156.45
105.83
52.80
-2.80
-58.57
-110.88
-156.74
-195.28
-227.40
-254.29
-276.39
-292.89
-301.87
-301.38
-290.20
-268.59
-238.61
-204.06
-169.66
-139.89
-117.38
-102.04
-91.91
-84.88
-80.87
-82.79
-95.29
-122.19
-163.83
-215.84
-270.36
-319.04
-355.92
-379.07
-390.09
-392.01
-387.18
-376.24
-358.18
-331.31
-294.36
-246.84
-189.17
-123.51
-54.66
9.37
58.44
83.30
79.45
49.81
4.13
-44.90
-87.08
-118.22
-140.22
-157.63
-173.38
-186.30
-191.86
-184.98
-163.08
-127.30
-81.12
-28.65
26.21
78.79
122.53
149.63
153.96
135.01
99.03
56.81
18.28
-12.43
-38.15
-65.32
-98.19
-135.01
-168.16
-188.73
-191.84
-179.16
-157.06
-131.95
-106.48
-78.91
-46.18
-7.40
34.08
71.66
98.29
109.64
105.64
90.02
68.67
47.53
31.45
23.51
25.43
38.29
63.01
100.47
150.56
210.88
275.70
336.54
384.30
412.14
417.89
404.50
378.49
347.30
316.87
290.44
268.84
251.55
237.52
225.61
214.78
204.17
193.57
183.82
176.67
174.22
178.03
188.34
203.41
219.75
232.99
239.25
236.83
227.23
214.79
204.77
200.60
201.61
202.84
197.34
179.79
149.59
111.59
74.04
44.97
28.89
25.62
31.50
41.56
51.33
57.50
58.03
52.31
41.99
31.58
27.56
35.51
56.24
83.55
106.14
112.97
99.49
70.45
37.22
11.16
-2.54
-7.01
-10.30
-19.10
-34.20
-50.26
-60.03
-59.62
-51.65
-44.13
-46.58
-65.65
-102.51
-152.85
-208.07
-257.59
-291.46
-303.13
-291.42
-260.89
-219.97
-177.11
-137.87
-103.64
-72.84
-44.00
-18.14
1.01
9.27
5.61
-5.73
-16.50
-18.40
-7.93
10.89
27.61
29.85
8.94
-36.03
-97.54
-163.07
-220.05
-260.27
-281.86
-288.13
-284.73
-276.93
-267.78
-258.30
-248.52
-238.38
-228.19
-218.62
-209.91
-201.59
-193.00
-183.86
-175.03
-168.36
-165.71
-167.87
-173.67
-179.90
-182.50
-178.09
-165.53
-146.51
-124.77
-104.41
-87.97
-75.15
-62.83
-46.18
-20.30
18.63
72.60
141.25
221.76
308.46
393.46
468.39
526.56
565.10
585.84
594.02
595.73
595.26
593.60
588.71
577.23
556.07
523.61
479.95
426.41
364.79
297.11
225.53
152.81
82.55
19.00
-33.84
-73.70
-100.83
-118.09
-129.59
-138.86
-147.65
-155.71
-161.78
-164.96
-165.68
-165.67
-167.33
-172.85
-183.68
-200.14
-221.54
-246.16
-271.63
-295.65
-316.59
-333.95
-347.98
-359.02
-366.79
-370.26
-368.36
-360.80
-348.81
-334.94
-322.25
-313.15
-308.45
-307.38
-308.01
-308.19
-306.41
-302.05
-295.27
-286.68
-277.07
-267.23
-258.01
-249.97
-242.83
-235.26
-224.79
-208.43
-183.70
-149.57
-106.62
-56.79
-2.47
54.13
111.00
166.01
216.67
260.32
294.54
318.02
330.67
333.61
328.60
317.63
302.71
285.78
268.60
252.38
237.42
223.01
207.75
190.35
170.17
147.45
123.03
97.79
72.42
47.41
23.40
1.49
-16.81
-30.15
-37.80
-40.05
-37.94
-32.54
-24.52
-13.92
-0.69
14.77
31.35
47.43
61.46
72.59
80.83
86.79
91.08
94.00
95.59
95.92
95.31
94.33
93.31
92.16
90.21
86.39
79.57
69.02
54.66
37.15
17.82
-1.60
-18.96
-32.02
-38.93
-38.58
-30.94
-17.12
0.83
20.42
39.21
55.74
70.08
83.31
97.21
113.61
133.77
157.53
183.38
207.69
226.41
236.59
236.31
225.98
208.33
188.16
170.83
161.44
161.60
170.15
183.84
196.44
201.14
193.11
171.83
140.98
107.58
75.88
46.48
15.99
-23.68
-80.76
-159.18
-255.88
-362.10
-465.65
-558.73
-637.50
-688.61
-699.35
-663.68
-587.47
-485.42
-383.60
-288.32
-203.36
-133.04
-80.93
-50.68
-44.18
-58.52
-85.42
-113.63
-131.39
-133.75
-121.75
-100.51
-78.31
-62.53
-56.51
-58.59
-63.99
-66.68
-64.81
-59.31
-52.11
-45.80
-42.15
-41.46
-42.71
-44.38
-44.41
-42.30
-38.06
-31.54
-22.83
-12.27
-0.05
13.72
28.95
45.70
63.31
80.98
98.20
114.49
129.13
141.08
149.08
151.99
149.51
142.23
131.81
120.47
110.18
101.86
95.23
89.21
82.64
75.05
66.87
59.07
52.69
48.19
45.33
43.27
40.90
37.23
31.79
24.50
15.66
5.72
-4.75
-14.90
-23.43
-28.66
-28.89
-22.89
-10.68
6.26
25.40
43.92
59.68
71.82
80.75
87.55
93.36
98.76
103.80
108.37
112.56
116.73
121.38
127.06
134.11
142.63
152.34
162.48
171.79
178.97
183.21
184.87
185.83
189.07
197.43
211.98
230.74
248.50
258.13
252.67
227.58
182.32
120.88
51.06
-16.90
-72.54
-107.28
-116.18
-98.81
-58.99
-3.59
59.23
121.88
178.30
224.08
256.07
271.88
269.78
249.24
211.54
159.83
99.02
35.13
-25.75
-78.40
-119.48
-148.08
-165.61
-175.31
-181.19
-186.79
-194.36
-204.52
-216.64
-229.60
-242.51
-254.66
-265.49
-273.88
-278.15
-276.46
-267.68
-252.13
-231.90
-210.30
-190.63
-175.08
-163.92
-155.78
-148.39
-139.86
-129.33
-117.50
-106.18
-97.63
-93.74
-95.39
-102.18
-112.51
-124.11
-134.55
-142.02
-145.61
-145.37
-142.37
-138.27
-135.08
-134.65
-138.22
-145.90
-156.63
-168.36
-178.60
-184.90
-185.28
-178.33
-163.37
-140.57
-110.99
-76.48
-39.27
-1.22
36.81
74.97
113.84
153.18
190.76
222.05
240.80
240.28
215.11
163.14
87.19
-4.10
-96.65
-173.51
-219.28
-225.07
-191.86
-129.94
-54.52
21.25
91.64
160.13
236.26
329.48
442.76
569.58
694.88
799.41
865.67
883.18
851.54
780.20
684.86
581.65
481.53
387.28
294.38
195.53
86.09
-32.74
-154.45
-270.27
-372.63
-456.45
-518.33
-555.39
-564.97
-546.44
-503.63
-445.83
-385.80
-334.90
-298.57
-274.37
-253.62
-225.90
-184.16
-127.74
-62.10
3.96
62.33
108.74
143.57
170.28
192.46
211.29
224.81
229.29
221.78
201.75
171.14
132.88
88.88
39.28
-16.71
-78.55
-142.49
-201.31
-246.43
-271.06
-272.57
-252.69
-215.50
-164.99
-103.41
-31.64
49.38
137.02
226.39
311.07
384.58
441.93
480.05
497.87
495.49
473.43
431.90
371.32
293.46
202.64
106.31
13.71
-66.53
-129.11
-173.01
-200.54
-214.59
-216.28
-204.95
-180.17
-144.44
-103.56
-64.74
-33.20
-9.86
7.88
22.84
34.68
39.22
30.89
6.70
-30.85
-73.69
-110.75
-131.92
-131.01
-107.05
-63.74
-7.97
51.77
107.10
151.25
180.23
193.15
191.87
179.59
159.97
136.41
111.47
86.71
62.37
37.63
11.13
-17.57
-47.07
-74.05
-94.22
-104.07
-102.28
-90.20
-71.30
-49.72
-29.19
-12.40
-1.05
3.83
1.54
-8.23
-25.31
-48.93
-77.80
-110.40
-145.30
-181.32
-217.74
-254.24
-290.93
-328.41
-367.72
-409.97
-455.44
-502.52
-546.95
-582.39
-602.08
-601.33
-579.13
-538.37
-484.12
-421.29
-352.87
-279.58
-200.96
-116.95
-29.13
59.14
143.32
218.94
282.48
332.05
367.65
391.11
405.81
415.94
425.48
437.03
450.95
465.38
477.09
482.55
479.19
465.82
442.23
408.24
363.03
305.18
234.05
151.21
61.39
-28.26
-110.16
-178.77
-232.12
-271.61
-300.28
-320.76
-334.14
-340.10
-338.00
-327.90
-310.97
-289.06
-264.00
-236.90
-208.14
-177.34
-143.71
-106.43
-65.16
-20.56
25.60
70.63
111.89
147.69
177.71
202.54
222.73
238.11
247.67
250.43
246.45
237.45
226.57
217.72
214.81
220.64
236.35
260.80
290.22
318.69
339.78
349.34
347.58
339.57
332.62
332.18
338.15
344.44
341.66
321.96
283.07
229.18
168.70
110.15
59.01
17.03
-16.27
-41.62
-59.23
-69.48
-74.31
-77.90
-85.85
-103.18
-132.56
-173.25
-221.51
-272.32
-320.90
-363.70
-398.34
-423.11
-436.68
-438.18
-427.88
-407.47
-379.67
-347.16
-311.74
-274.04
-234.32
-193.74
-155.13
-122.52
-99.42
-86.94
-83.00
-83.28
-83.30
-80.56
-75.46
-70.77
-69.97
-75.40
-87.19
-103.06
-119.16
-131.20
-136.01
-132.98
-124.58
-115.84
-112.43
-118.21
-133.20
-153.42
-172.25
-183.06
-181.25
-165.07
-134.81
-91.67
-37.10
26.85
96.71
167.25
232.33
286.50
326.26
350.13
357.88
349.27
323.65
280.67
221.48
149.74
71.22
-7.71
-81.93
-148.54
-206.73
-256.73
-298.47
-331.02
-352.63
-361.52
-356.82
-339.28
-311.46
-277.14
-240.32
-203.81
-168.48
-133.29
-96.62
-57.76
-18.59
16.06
39.68
46.32
32.88
0.09
-47.68
-103.56
-159.36
-206.37
-236.28
-242.16
-219.96
-169.96
-97.30
-11.07
78.16
160.92
231.00
285.73
325.27
351.11
365.23
369.98
368.32
363.86
360.12
359.61
362.80
368.25
373.14
374.88
372.42
366.62
359.57
353.08
347.38
340.82
330.88
315.70
294.93
270.10
243.54
217.30
192.46
169.19
146.89
124.77
102.06
78.27
53.77
30.27
10.83
-0.76
-1.09
11.72
37.66
75.06
121.19
172.84
226.32
277.03
319.70
348.96
360.58
352.70
326.05
283.55
229.10
166.74
99.81
31.17
-37.00
-103.03
-165.58
-223.76
-276.99
-325.15
-368.51
-407.55
-441.78
-469.41
-487.08
-490.57
-476.19
-442.42
-391.15
-327.74
-260.15
-197.05
-146.23
-113.45
-101.85
-112.01
-141.85
-186.90
-240.74
-295.71
-344.05
-379.50
-399.19
-404.44
-400.35
-393.31
-388.77
-389.16
-393.34
-396.87
-394.41
-382.26
-360.04
-330.46
-297.09
-263.34
-231.47
-202.66
-175.67
-147.76
-116.04
-78.66
-35.16
14.85
70.39
129.07
186.24
238.58
284.51
324.56
360.70
396.07
435.27
480.83
531.42
580.05
619.39
643.77
651.15
642.87
613.07
562.01
495.57
433.45
380.54
335.60
293.10
250.48
206.01
157.95
106.99
55.22
7.09
-34.32
-64.27
-79.20
-78.36
-65.50
-48.60
-33.97
-24.76
-18.95
-16.13
-16.16
-21.41
-35.81
-63.92
-110.66
-175.69
-253.59
-333.25
-407.71
-472.97
-528.49
-574.69
-612.32
-644.56
-672.20
-693.72
-702.92
-698.90
-683.80
-661.92
-636.42
-589.46
-513.01
-410.92
-319.34
-247.55
-192.69
-139.45
-77.14
1.21
96.60
200.57
301.42
388.72
459.71
512.04
544.48
556.27
549.08
526.87
493.64
455.58
419.88
395.55
385.37
387.05
394.51
401.32
401.64
389.54
361.55
317.95
264.74
209.05
158.15
117.28
89.19
73.54
67.33
67.73
73.73
86.87
107.97
135.57
165.37
191.68
209.54
216.52
213.84
205.65
197.23
192.25
191.77
194.07
195.38
190.94
175.72
145.51
98.11
34.68
-39.76
-117.04
-187.76
-243.59
-279.37
-293.99
-289.83
-272.01
-247.10
-222.10
-202.79
-191.93
-187.77
-184.37
-173.68
-149.34
-110.30
-62.22
-15.79
17.35
29.02
17.46
-12.81
-53.16
-93.88
-127.00
-147.90
-155.45
-151.04
-136.88
-114.32
-83.21
-42.37
8.57
67.22
127.87
183.07
226.23
254.08
267.30
268.60
260.00
240.81
207.89
158.53
93.71
19.95
-51.79
-109.33
-143.55
-151.46
-137.17
-110.41
-83.09
-65.30
-62.23
-72.95
-91.34
-109.07
-119.19
-118.70
-109.12
-94.71
-79.99
-67.55
-57.54
-48.44
-39.03
-29.64
-22.32
-19.56
-22.43
-30.11
-40.31
-50.79
-60.87
-72.12
-88.04
-112.67
-147.67
-190.59
-234.93
-271.73
-293.15
-294.77
-276.70
-243.11
-201.40
-158.68
-120.36
-90.15
-70.17
-62.65
-68.48
-85.50
-107.87
-128.44
-139.34
-135.17
-115.78
-86.04
-56.42
-38.10
-37.98
-56.42
-89.27
-127.33
-159.84
-178.07
-176.46
-156.63
-124.25
-85.88
-32.43
37.38
118.08
198.68
257.99
293.26
308.11
308.95
305.76
305.61
309.65
315.40
317.43
309.23
286.98
248.51
195.51
133.60
69.86
8.63
-47.85
-99.38
-146.69
-189.24
-226.58
-257.62
-280.43
-293.22
-295.74
-288.51
-273.32
-254.03
-235.82
-223.87
-221.38
-227.14
-235.64
-239.58
-233.01
-214.95
-190.92
-170.47
-160.71
-164.66
-179.85
-200.35
-219.49
-232.02
-235.39
-229.92
-216.83
-192.36
-152.26
-93.56
-17.16
72.43
168.81
265.91
359.18
446.67
534.99
631.05
738.67
855.24
972.72
1081.21
1172.27
1240.60
1247.95
1172.35
1015.01
803.77
577.17
365.61
183.55
32.78
-91.18
-193.68
-270.77
-322.40
-348.36
-351.33
-336.59
-309.98
-276.62
-241.20
-208.14
-176.77
-146.40
-116.93
-89.45
-65.12
-43.95
-25.26
-8.90
4.06
14.40
22.13
26.77
26.61
19.46
3.98
-19.29
-47.89
-78.28
-105.49
-125.67
-135.75
-133.91
-119.14
-91.55
-53.58
-10.89
28.31
56.24
68.15
64.32
49.29
29.31
9.19
-9.67
-29.30
-53.17
-84.03
-122.23
-165.30
-208.92
-247.89
-277.33
-293.66
-295.57
-284.09
-262.15
-233.62
-202.13
-170.36
-139.76
-111.04
-84.56
-60.61
-39.34
-20.43
-3.21
13.12
29.01
44.37
58.53
70.73
80.50
87.87
93.17
96.63
98.00
96.39
90.97
81.43
68.57
54.13
39.96
26.99
14.83
2.13
-12.47
-29.35
-47.77
-66.41
-84.38
-101.81
-119.60
-138.69
-159.13
-179.67
-197.73
-210.19
-213.99
-206.80
-187.70
-157.57
-119.20
-76.97
-36.01
-0.70
25.97
42.51
47.99
41.20
20.97
-12.08
-53.55
-94.40
-122.70
-127.78
-104.80
-57.33
3.64
63.99
111.68
140.48
150.30
144.93
128.84
105.33
76.32
43.75
10.49
-19.75
-43.50
-58.64
-64.93
-63.75
-57.04
-46.49
-33.04
-16.75
2.90
26.59
54.54
85.85
118.37
149.18
175.82
197.70
216.63
235.88
258.08
282.87
306.14
321.45
323.14
309.39
283.62
253.10
225.70
206.40
195.40
188.69
180.32
165.39
141.77
110.15
72.84
32.33
-9.45
-50.78
-89.31
-121.74
-144.27
-153.81
-149.24
-132.24
-106.91
-78.67
-53.04
-34.65
-27.09
-32.57
-51.94
-84.55
-128.41
-180.74
-238.51
-298.90
-358.79
-414.13
-459.37
-487.84
-492.98
-470.13
-417.99
-339.36
-240.91
-132.23
-24.32
72.07
148.21
198.89
223.50
225.61
211.48
187.80
159.69
129.86
98.97
66.97
34.36
3.02
-24.04
-43.87
-54.66
-56.58
-51.56
-42.58
-32.40
-22.85
-14.70
-7.98
-2.72
0.71
1.68
-0.36
-5.56
-13.31
-22.63
-32.49
-42.22
-51.84
-62.09
-74.06
-88.52
-105.29
-122.63
-137.64
-147.20
-149.17
-143.07
-130.00
-111.75
-89.55
-63.58
-33.25
1.65
39.84
78.32
113.25
141.48
162.09
176.67
188.49
201.39
218.54
242.11
273.47
313.11
360.17
411.66
461.88
503.18
527.73
529.76
507.18
461.77
397.62
319.47
231.84
139.58
48.46
-34.52
-102.56
-151.14
-179.69
-191.94
-194.78
-196.13
-202.87
-219.35
-246.50
-281.86
-320.23
-355.08
-380.56
-393.21
-392.75
-381.79
-364.45
-344.52
-324.36
-304.63
-284.72
-263.33
-239.13
-210.99
-178.04
-139.71
-95.42
-44.29
14.59
81.46
154.65
230.13
302.34
366.15
418.82
460.81
494.50
522.01
543.32
555.89
556.02
541.05
510.54
466.49
412.12
350.45
283.53
212.80
139.75
66.57
-3.89
-68.84
-126.16
-174.52
-213.51
-243.49
-265.22
-279.92
-288.84
-293.05
-292.98
-288.37
-278.28
-261.60
-237.78
-207.14
-171.12
-131.89
-91.94
-53.66
-19.40
8.51
27.64
36.01
32.82
18.90
-3.36
-30.70
-59.86
-88.32
-114.50
-137.43
-156.30
-170.19
-178.20
-179.78
-174.97
-164.33
-148.71
-129.06
-106.53
-82.96
-61.09
-44.18
-35.33
-36.20
-46.34
-63.11
-82.63
-101.00
-115.55
-125.11
-129.54
-129.02
-123.66
-113.69
-100.27
-85.60
-72.57
-63.42
-58.43
-55.49
-51.11
-42.35
-28.51
-11.63
4.53
16.59
22.77
23.24
18.87
9.92
-4.53
-25.60
-53.01
-83.89
-113.05
-134.87
-145.21
-142.80
-128.85
-105.91
-76.22
-41.12
-1.08
43.75
93.10
146.40
202.29
258.38
310.63
353.60
381.41
389.55
376.73
345.58
302.03
253.32
205.79
163.19
126.27
93.43
61.90
29.14
-6.39
-44.96
-85.63
-126.58
-165.60
-200.38
-228.73
-248.69
-258.63
-257.70
-246.26
-226.20
-200.73
-173.60
-147.80
-124.78
-104.29
-85.00
-65.43
-44.36
-20.78
6.46
38.65
76.56
119.52
164.75
207.85
244.16
270.45
285.83
291.55
289.78
282.10
268.73
248.87
221.53
186.48
144.73
98.75
52.30
10.08
-23.30
-44.21
-50.96
-44.50
-28.14
-6.37
16.59
38.35
58.86
79.63
102.39
127.29
151.85
171.04
178.75
169.81
142.17
97.77
42.20
-16.73
-71.11
-114.58
-143.19
-155.41
-151.54
-133.07
-102.19
-61.80
-15.66
31.48
74.15
107.06
126.26
130.65
122.81
108.54
94.85
87.30
87.68
93.64
100.11
101.76
94.99
78.66
53.23
19.44
-22.36
-71.98
-128.16
-187.82
-246.21
-298.15
-339.36
-367.42
-381.73
-382.68
-370.83
-346.57
-310.30
-263.24
-208.52
-151.60
-99.90
-61.34
-41.84
-43.28
-62.23
-90.75
-118.94
-138.29
-144.25
-136.90
-119.81
-97.62
-73.96
-50.27
-25.88
0.87
31.71
67.74
109.13
154.71
201.77
245.69
280.46
300.04
300.01
279.14
239.80
187.21
128.01
69.34
17.99
-19.72
-38.19
-33.78
-6.50
38.75
92.53
143.67
183.26
207.59
218.65
221.69
221.06
217.11
205.56
180.00
135.73
73.50
0.67
-70.24
-125.13
-152.76
-148.19
-114.09
-59.89
1.19
56.54
97.10
119.29
124.82
118.73
107.01
93.70
81.15
67.06
47.48
18.54
-21.06
-68.77
-118.59
-163.28
-197.36
-219.04
-231.05
-238.46
-246.95
-260.48
-279.72
-301.75
-320.64
-329.11
-320.26
-289.95
-237.90
-169.22
-92.77
-18.71
44.62
92.80
125.68
146.50
159.64
169.21
176.32
180.08
179.26
174.60
168.88
165.79
167.89
174.78
183.91
189.56
186.23
171.16
146.01
114.45
79.63
42.69
2.28
-42.36
-93.09
-151.18
-216.94
-288.22
-361.88
-433.79
-497.94
-546.99
-555.64
-502.78
-383.66
-216.66
-32.78
139.48
283.71
402.75
498.80
570.96
614.37
626.48
602.43
549.70
482.32
414.42
355.10
305.59
263.22
222.42
178.92
131.74
84.71
42.60
8.65
-16.99
-37.58
-56.89
-79.33
-108.55
-146.49
-191.40
-238.78
-281.93
-313.65
-328.82
-325.43
-306.27
-277.77
-246.84
-216.90
-187.35
-155.27
-118.95
-81.20
-49.15
-32.18
-37.75
-68.28
-120.17
-185.64
-254.86
-317.55
-363.69
-383.62
-370.12
-321.11
-241.78
-144.43
-45.61
38.86
98.15
128.69
134.00
122.67
105.77
93.73
92.92
103.39
118.44
127.18
119.90
93.50
54.04
14.89
-8.95
-7.36
21.96
74.56
143.17
221.37
304.22
386.20
459.30
513.26
538.28
529.70
490.58
431.14
365.59
307.52
266.05
244.54
241.00
249.75
263.95
277.33
285.40
286.08
279.44
266.84
250.22
231.21
210.80
189.10
164.90
135.58
97.53
47.11
-18.01
-97.54
-188.56
-286.24
-384.90
-479.23
-564.87
-638.40
-697.46
-741.13
-770.33
-788.20
-798.61
-804.14
-804.85
-798.01
-779.31
-745.06
-693.87
-627.19
-549.62
-466.71
-383.57
-305.56
-239.29
-192.64
-172.39
-180.42
-210.63
-250.41
-283.03
-292.64
-270.40
-217.44
-143.13
-60.02
22.07
99.45
172.03
241.31
308.12
370.07
422.27
459.92
478.20
473.04
453.59
429.66
403.03
373.41
339.40
301.06
261.39
226.21
202.32
194.90
203.45
222.30
243.33
257.75
259.21
245.87
221.46
194.80
177.60
179.11
203.40
247.91
302.82
354.12
388.13
396.34
378.11
340.23
292.66
245.09
204.61
174.28
153.39
138.47
124.39
105.42
76.62
35.00
-18.82
-80.12
-141.48
-195.38
-236.78
-264.36
-280.26
-288.41
-292.85
-296.29
-299.75
-302.50
-302.22
-295.36
-277.95
-246.99
-202.04
-145.97
-84.60
-25.17
25.85
64.25
88.51
99.28
98.45
88.60
72.92
55.36
40.34
32.03
33.12
44.01
62.88
86.42
111.08
133.89
152.74
166.14
173.05
173.06
166.56
154.92
139.78
122.20
102.04
78.23
49.75
17.07
-17.34
-49.77
-77.06
-98.68
-117.46
-138.47
-166.45
-203.47
-247.65
-294.08
-336.75
-370.52
-391.96
-399.05
-390.64
-366.24
-326.68
-274.94
-216.24
-157.12
-103.38
-58.39
-22.39
6.62
30.97
51.88
68.79
80.23
84.83
82.41
74.18
62.14
48.16
33.05
16.45
-2.96
-26.45
-54.48
-85.81
-117.50
-145.34
-165.05
-173.57
-169.98
-155.65
-133.90
-109.50
-88.13
-75.36
-75.35
-89.26
-114.63
-145.87
-175.99
-198.59
-209.51
-207.26
-192.50
-166.93
-132.45
-90.93
-44.23
5.72
57.30
109.29
160.66
209.78
253.60
287.78
308.22
313.12
304.85
290.21
278.66
278.86
294.59
322.36
352.24
371.81
371.63
349.23
309.51
261.58
214.24
172.57
137.48
107.83
83.03
64.22
53.42
51.63
57.74
69.18
83.82
101.75
125.65
159.26
205.09
261.81
323.19
378.46
414.54
419.40
385.54
312.40
206.47
79.99
-51.39
-170.73
-261.64
-310.09
-306.78
-250.02
-147.64
-16.73
120.05
240.16
326.80
372.50
379.67
358.41
322.78
286.31
258.12
240.43
228.33
212.23
182.20
132.55
64.19
-16.32
-100.02
-179.08
-248.19
-303.92
-342.92
-361.25
-355.94
-327.67
-282.54
-231.12
-185.17
-153.68
-140.30
-143.30
-157.54
-177.17
-197.45
-215.11
-228.07
-235.31
-237.02
-234.91
-231.58
-229.37
-229.01
-229.18
-227.04
-219.73
-205.50
-184.04
-155.82
-121.46
-81.64
-38.02
5.68
43.65
69.32
77.89
68.53
45.17
14.96
-14.60
-38.40
-55.06
-66.29
-75.00
-83.54
-92.90
-102.95
-113.28
-123.62
-133.70
-142.74
-149.27
-151.78
-150.07
-146.23
-144.68
-150.92
-169.56
-202.52
-248.03
-300.94
-353.92
-399.14
-430.01
-442.49
-435.99
-413.57
-381.46
-347.50
-318.92
-300.06
-290.96
-287.88
-285.18
-278.10
-264.83
-246.86
-228.17
-212.93
-203.59
-199.55
-198.07
-195.26
-187.70
-173.06
-149.42
-114.47
-65.32
0.30
82.57
177.66
278.36
376.16
464.52
541.24
607.78
665.93
714.45
748.17
760.24
746.23
707.14
649.14
580.78
508.96
436.84
364.93
293.96
226.70
167.46
119.61
83.06
55.22
32.06
10.81
-8.59
-23.15
-29.61
-26.69
-16.19
-3.05
9.24
18.89
25.89
31.53
39.30
51.70
68.59
86.43
97.98
99.86
92.63
80.04
67.56
62.91
70.56
89.07
111.05
123.63
121.30
105.84
84.45
67.50
69.33
101.85
170.95
274.34
398.29
530.57
658.92
770.91
827.95
801.15
684.42
500.77
315.76
148.98
0.93
-133.78
-263.46
-385.79
-488.64
-558.25
-585.78
-572.12
-531.64
-477.29
-419.50
-365.39
-317.80
-274.01
-230.74
-187.46
-147.85
-121.24
-111.00
-115.42
-129.70
-147.71
-162.76
-170.60
-170.60
-165.36
-160.81
-158.99
-159.03
-158.82
-156.14
-149.12
-137.24
-121.45
-103.81
-87.63
-74.19
-63.65
-56.09
-52.09
-52.61
-58.63
-70.43
-86.88
-105.71
-123.11
-135.00
-138.38
-131.90
-115.83
-91.74
-61.96
-29.20
3.63
33.76
59.01
78.30
91.80
100.84
107.16
112.12
116.11
118.48
118.01
113.65
105.20
93.38
79.58
65.24
51.35
38.32
26.05
14.34
3.05
-7.98
-19.11
-30.88
-43.81
-57.96
-72.50
-85.83
-95.96
-101.25
-101.08
-96.01
-87.51
-77.31
-66.91
-57.21
-48.79
-42.05
-37.44
-35.63
-37.48
-43.97
-56.24
-75.40
-102.08
-136.06
-175.68
-217.51
-256.72
-287.85
-305.97
-307.59
-291.02
-256.26
-205.02
-140.56
-67.72
7.34
77.94
138.38
185.39
219.24
243.29
262.28
280.19
298.52
316.00
330.08
338.91
343.08
345.62
350.41
359.67
372.16
382.88
384.83
372.06
342.07
296.78
241.30
181.64
122.61
66.95
15.89
-29.55
-67.50
-95.34
-110.61
-112.34
-101.57
-80.97
-53.70
-22.31
11.48
46.31
80.01
109.25
130.02
139.24
136.47
124.45
108.75
95.83
90.85
95.88
109.04
125.09
136.87
137.39
121.82
89.25
42.84
-11.34
-66.58
-117.77
-162.32
-199.61
-229.09
-248.86
-255.11
-243.81
-213.44
-167.19
-113.12
-61.75
-22.70
-1.70
0.29
-13.81
-39.02
-69.57
-99.18
-121.15
-128.98
-118.28
-89.20
-47.75
-4.78
27.51
39.99
29.72
0.16
-41.04
-85.41
-126.31
-160.00
-185.13
-201.59
-209.35
-208.10
-197.84
-179.01
-152.82
-121.13
-85.76
-48.22
-9.56
29.52
68.05
104.04
134.76
157.91
172.31
179.21
181.51
182.25
183.87
187.20
191.17
193.72
192.87
186.49
173.73
154.50
129.30
100.12
69.95
41.41
16.20
-5.22
-24.06
-40.39
-52.73
-63.58
-72.14
-75.67
-72.08
-62.04
-43.58
-23.31
-8.83
-5.14
-12.46
-30.12
-51.54
-68.60
-74.75
-67.29
-49.10
-25.66
-3.57
11.52
16.79
12.70
1.51
-13.16
-26.67
-34.84
-33.58
-20.86
2.00
30.87
60.47
85.88
104.48
116.28
122.36
124.04
121.47
113.87
101.03
84.52
67.42
53.15
43.65
37.71
31.58
20.37
0.29
-29.36
-66.02
-105.47
-143.98
-180.00
-214.68
-250.51
-289.17
-329.99
-368.93
-399.39
-414.10
-407.23
-376.23
-322.62
-251.79
-171.59
-90.38
-14.77
51.63
108.26
156.84
200.00
240.30
279.56
318.34
355.43
387.98
412.10
424.10
422.12
406.63
380.06
345.73
306.70
265.46
224.38
186.07
152.91
126.50
106.46
90.57
75.72
59.26
39.83
17.29
-8.01
-35.93
-66.57
-100.22
-136.88
-175.99
-216.30
-255.66
-291.04
-319.01
-336.55
-342.17
-336.80
-323.65
-307.37
-292.48
-282.27
-278.12
-279.85
-286.01
-294.19
-301.19
-303.47
-298.07
-283.49
-259.88
-228.60
-191.10
-148.07
-99.34
-44.69
15.18
78.01
140.28
198.04
247.76
286.74
313.03
325.25
322.53
305.00
274.36
233.93
188.29
142.27
100.01
64.28
36.31
15.89
1.99
-6.75
-11.51
-13.17
-12.27
-9.27
-4.65
0.87
6.57
11.84
16.22
19.44
21.26
21.45
20.00
17.12
13.18
8.30
2.05
-6.67
-19.17
-36.09
-56.64
-78.48
-98.46
-113.99
-124.34
-131.00
-136.96
-145.07
-156.74
-171.22
-186.05
-198.05
-204.39
-203.24
-194.01
-177.07
-153.54
-125.14
-93.89
-61.71
-29.85
1.69
33.83
67.53
102.89
138.44
171.10
197.14
213.84
221.09
222.20
222.44
226.85
238.39
257.12
280.22
302.57
317.99
320.27
305.75
273.64
226.91
172.33
119.33
77.44
53.47
49.97
64.56
92.26
125.43
154.66
170.37
164.98
134.69
80.69
9.87
-72.30
-151.38
-208.80
-230.06
-212.68
-167.56
-113.22
-67.05
-35.50
-16.60
-2.35
14.99
38.35
64.38
85.94
96.46
89.31
64.46
25.60
-21.36
-70.98
-118.41
-158.06
-183.02
-186.64
-166.10
-124.73
-72.82
-22.67
16.55
42.24
58.39
72.35
90.26
114.11
142.06
169.39
191.26
203.51
202.36
184.60
148.17
93.02
21.50
-61.54
-149.85
-236.11
-312.24
-370.68
-406.05
-416.96
-407.45
-385.76
-360.97
-339.26
-321.64
-304.22
-280.82
-245.86
-196.18
-131.70
-54.84
29.96
116.56
197.86
267.02
319.23
352.92
369.40
371.50
361.86
341.91
312.11
273.21
226.98
176.17
123.32
69.45
13.89
-44.68
-106.03
-166.77
-220.26
-258.36
-274.51
-266.73
-238.76
-198.92
-157.24
-122.14
-98.13
-85.38
-80.70
-79.56
-77.64
-72.18
-62.35
-49.43
-36.30
-26.49
-23.08
-27.39
-38.68
-54.16
-70.07
-82.50
-88.19
-84.43
-69.00
-40.64
0.14
49.79
101.57
146.71
177.19
188.94
184.17
171.21
161.35
164.06
182.32
210.97
238.83
254.09
249.67
226.19
190.71
152.53
118.49
90.53
66.54
43.46
20.47
0.07
-13.69
-18.13
-14.16
-6.05
0.80
2.78
-0.67
-7.75
-16.45
-26.48
-39.41
-57.21
-80.16
-105.76
-129.35
-146.02
-152.71
-149.12
-137.36
-120.56
-101.91
-83.94
-68.58
-57.16
-50.28
-47.69
-48.47
-51.78
-57.51
-66.54
-79.83
-97.27
-116.89
-135.40
-149.58
-157.79
-160.75
-160.86
-160.77
-162.11
-164.99
-168.29
-170.55
-170.97
-170.12
-170.08
-173.59
-182.55
-196.51
-211.71
-221.94
-220.76
-204.59
-174.64
-136.51
-97.29
-61.64
-29.03
5.88
50.02
107.36
175.94
248.24
314.44
366.87
403.13
426.20
441.83
454.79
465.89
471.69
466.45
445.37
406.81
352.98
288.84
220.26
152.62
90.35
37.08
-4.49
-33.11
-49.81
-58.18
-63.43
-70.42
-81.53
-95.40
-107.23
-110.48
-98.98
-68.84
-19.62
45.25
118.77
191.53
253.30
295.37
312.68
305.11
277.33
237.13
192.66
149.74
110.48
73.61
36.27
-3.41
-44.64
-83.91
-116.51
-138.82
-150.02
-152.57
-151.02
-150.20
-153.45
-161.74
-173.58
-185.37
-191.97
-187.86
-168.55
-132.44
-82.20
-24.77
30.01
72.24
94.91
95.79
78.00
48.60
16.08
-12.47
-33.46
-47.17
-56.00
-61.70
-63.20
-56.38
-36.59
-2.22
42.42
87.42
120.62
133.19
123.71
98.67
69.43
47.40
40.21
50.48
76.74
114.47
157.33
197.16
224.46
230.17
208.22
158.12
85.81
1.66
-83.35
-159.91
-221.90
-266.52
-293.30
-303.82
-300.98
-288.41
-270.22
-251.12
-234.03
-219.72
-207.93
-198.12
-191.80
-191.66
-200.39
-219.78
-251.24
-292.07
-335.68
-373.40
-396.66
-402.04
-391.23
-369.95
-345.84
-327.13
-315.84
-306.98
-291.09
-258.23
-205.27
-136.16
-59.85
27.75
120.47
207.18
276.75
316.77
333.67
336.61
333.16
330.77
332.74
336.03
335.07
323.13
294.33
246.90
181.95
105.59
27.77
-41.38
-96.44
-135.58
-160.10
-173.08
-176.73
-173.58
-164.79
-150.60
-132.06
-112.79
-97.20
-89.28
-91.32
-102.66
-121.39
-144.57
-169.39
-194.30
-219.26
-243.89
-266.22
-282.51
-287.86
-278.71
-253.92
-214.87
-164.39
-105.11
-38.28
35.36
113.52
190.63
257.69
305.14
326.91
323.39
301.76
273.11
248.16
233.66
231.21
238.73
253.16
272.48
295.96
323.15
352.40
380.66
404.51
421.74
432.45
438.95
444.18
449.68
454.07
453.06
441.01
413.12
367.09
303.65
225.79
137.61
43.55
-51.69
-142.94
-224.45
-290.65
-337.41
-363.11
-369.17
-359.11
-337.21
-307.35
-272.28
-233.65
-192.26
-148.32
-101.75
-52.65
-1.64
49.56
97.83
139.14
169.60
187.21
193.00
191.29
188.32
190.44
202.23
224.99
256.46
291.27
322.45
343.22
348.98
338.52
314.35
281.73
246.72
214.26
186.85
164.37
145.01
126.54
106.94
84.18
55.72
19.05
-26.38
-77.39
-126.42
-163.44
-179.73
-171.94
-144.15
-106.65
-71.94
-49.89
-44.71
-54.77
-74.87
-99.22
-123.84
-147.07
-168.68
-188.70
-206.48
-220.86
-230.77
-235.88
-236.63
-234.26
-229.94
-224.17
-216.80
-207.53
-196.48
-184.55
-173.24
-164.13
-158.57
-157.69
-163.01
-176.74
-201.09
-236.38
-279.24
-321.90
-353.97
-365.89
-352.47
-314.61
-258.26
-191.47
-121.28
-52.28
12.98
72.30
122.96
162.02
187.71
200.61
203.91
202.16
199.33
197.41
196.21
194.22
190.00
183.21
174.83
166.44
159.28
153.53
148.22
141.85
133.08
121.42
107.20
91.21
74.12
56.10
36.88
16.19
-5.51
-27.05
-46.90
-64.21
-79.53
-95.01
-113.92
-139.32
-172.67
-212.83
-256.05
-296.67
-328.50
-346.27
-347.04
-331.57
-304.87
-275.53
-253.03
-244.24
-250.45
-266.48
-282.50
-287.83
-275.00
-242.36
-194.36
-139.07
-85.99
-44.44
-22.43
-25.20
-53.53
-102.55
-162.73
-222.57
-270.90
-300.17
-308.22
-297.88
-274.18
-241.42
-201.68
-155.69
-104.05
-46.05
19.88
95.58
182.24
279.89
386.80
499.01
609.47
702.38
757.92
761.48
713.04
626.91
522.86
416.94
317.83
229.49
146.28
65.43
-11.43
-79.70
-134.98
-175.09
-200.47
-208.67
-200.03
-176.75
-140.66
-94.64
-43.49
5.80
45.81
71.53
82.60
82.66
78.05
76.63
84.40
103.74
133.04
168.06
203.94
236.71
263.08
280.59
288.02
284.84
271.38
248.78
218.89
184.11
146.74
108.14
68.88
29.44
-9.43
-46.32
-79.40
-106.81
-127.22
-140.15
-146.00
-145.51
-139.32
-128.10
-112.78
-95.13
-77.84
-64.06
-56.52
-56.68
-64.20
-77.24
-93.10
-108.90
-122.07
-130.47
-132.68
-128.32
-118.41
-105.48
-93.16
-85.03
-83.24
-87.52
-94.93
-100.82
-100.58
-91.51
-74.02
-51.47
-28.86
-10.43
2.21
10.94
20.16
34.70
57.64
88.69
124.46
159.37
187.63
204.59
207.46
195.74
171.06
136.89
97.90
59.51
26.93
4.49
-5.24
-1.98
12.43
34.44
59.64
83.39
101.83
112.24
113.36
105.23
88.58
65.07
37.19
7.78
-20.37
-44.80
-63.79
-76.28
-82.39
-84.53
-85.78
-88.73
-95.14
-105.72
-120.59
-139.99
-163.91
-192.49
-226.92
-266.13
-305.44
-338.80
-361.12
-370.46
-368.94
-360.46
-349.50
-341.94
-339.90
-340.02
-336.44
-322.62
-293.06
-244.45
-174.38
-82.83
23.83
137.86
252.72
361.36
456.92
533.68
576.87
575.27
546.88
505.28
450.58
384.77
309.82
228.76
146.53
69.52
5.95
-37.65
-62.25
-71.87
-70.12
-60.48
-45.24
-25.65
-3.31
20.30
42.43
56.70
58.04
45.31
19.78
-15.53
-56.62
-98.91
-136.29
-162.26
-172.89
-166.18
-142.35
-105.06
-60.44
-15.11
25.75
59.69
86.13
104.21
112.88
111.28
99.10
77.72
50.68
22.95
-0.48
-16.19
-23.34
-22.64
-15.06
-1.06
19.46
46.12
76.86
107.54
132.78
147.81
150.32
141.35
124.91
106.34
90.43
79.99
75.24
74.22
74.07
72.38
68.05
61.65
54.57
48.21
43.03
38.33
32.57
24.30
12.88
-1.31
-17.18
-33.50
-49.24
-63.62
-75.87
-85.21
-90.97
-92.94
-91.48
-87.33
-81.28
-73.99
-66.07
-58.53
-53.04
-51.71
-56.39
-67.72
-84.59
-104.19
-122.93
-137.50
-145.95
-148.11
-145.17
-138.62
-129.23
-116.61
-99.70
-77.93
-52.22
-25.29
-1.08
16.63
25.64
25.85
19.05
7.96
-4.70
-16.60
-25.85
-30.91
-30.59
-24.25
-11.97
5.62
27.69
53.34
81.75
112.07
143.17
173.66
201.80
225.63
243.33
253.56
255.77
250.46
239.18
224.04
207.18
190.01
172.86
155.08
135.32
111.93
83.35
48.60
7.80
-37.23
-82.78
-123.74
-154.67
-171.50
-173.03
-161.65
-142.64
-122.40
-106.20
-96.48
-92.42
-90.88
-88.34
-82.66
-73.90
-64.02
-55.49
-49.94
-47.38
-46.42
-45.17
-42.30
-37.59
-31.71
-25.72
-20.53
-16.59
-14.03
-12.88
-13.33
-15.78
-20.66
-28.20
-38.08
-49.45
-60.82
-70.34
-76.17
-76.92
-72.15
-62.67
-50.44
-38.00
-27.50
-19.79
-14.06
-8.18
0.48
14.04
33.55
58.57
87.44
117.47
145.48
168.20
183.09
189.27
188.07
182.97
178.22
177.06
179.96
184.25
185.04
177.33
158.19
127.86
89.62
48.46
9.52
-23.38
-48.19
-64.55
-73.42
-76.66
-76.79
-76.59
-78.80
-85.46
-97.44
-114.07
-133.22
-151.79
-166.40
-174.49
-174.84
-167.93
-155.48
-139.78
-122.91
-106.21
-90.22
-74.79
-59.75
-45.31
-32.33
-22.33
-16.97
-17.36
-23.54
-34.25
-47.05
-58.78
-66.37
-67.42
-60.68
-46.30
-25.85
-2.05
21.72
42.10
56.44
63.38
63.08
57.03
47.67
37.71
29.64
25.09
24.69
28.28
35.38
45.86
60.15
79.07
103.08
131.45
161.84
190.55
213.29
226.29
227.07
214.78
190.23
155.74
114.84
72.06
32.43
0.50
-20.67
-30.34
-30.29
-24.22
-16.62
-11.57
-11.83
-18.41
-30.96
-48.33
-69.10
-91.62
-114.02
-133.92
-148.77
-156.41
-155.83
-147.55
-133.20
-114.79
-93.65
-70.20
-44.12
-15.41
14.60
42.92
65.23
77.30
76.55
63.10
39.97
12.43
-13.60
-33.15
-43.35
-44.17
-37.86
-28.11
-18.78
-12.91
-12.04
-16.14
-23.88
-33.16
-41.68
-47.52
-49.55
-47.73
-43.04
-37.10
-31.46
-26.82
-22.42
-16.14
-5.26
12.17
36.03
63.57
90.13
110.62
121.41
121.46
112.30
97.03
78.74
59.43
39.80
19.67
-1.16
-22.30
-42.82
-61.57
-77.70
-90.90
-101.34
-109.31
-114.84
-117.70
-117.36
-113.58
-106.62
-97.35
-86.91
-76.23
-65.73
-55.20
-44.24
-32.49
-19.90
-6.50
7.84
23.40
40.35
58.20
75.53
90.07
99.37
101.47
95.43
81.57
61.21
36.37
9.51
-16.72
-39.72
-57.30
-68.03
-71.61
-68.68
-60.44
-48.20
-33.06
-15.96
2.07
19.88
36.17
49.69
59.53
65.14
66.50
64.19
59.43
53.91
49.67
48.48
51.27
57.66
66.03
74.05
79.58
81.36
79.24
74.05
67.03
59.47
52.46
46.71
42.52
39.71
37.46
34.36
28.61
18.45
2.80
-18.19
-43.00
-69.14
-93.66
-114.12
-129.02
-138.02
-141.83
-141.57
-138.38
-132.97
-125.48
-115.53
-102.72
-87.15
-70.09
-54.01
-42.17
-37.56
-41.72
-53.87
-70.86
-87.92
-99.81
-102.19
-92.56
-70.92
-40.01
-4.84
28.25
53.28
66.53
67.98
61.66
54.50
54.12
66.23
92.42
129.20
168.56
200.18
214.81
207.62
180.47
141.70
103.25
76.41
67.46
75.63
94.13
113.48
125.45
125.81
114.76
95.56
72.42
48.85
26.94
7.59
-9.03
-22.99
-34.61
-44.49
-53.59
-63.17
-74.46
-87.96
-102.92
-117.20
-127.81
-132.15
-129.23
-120.37
-108.87
-98.74
-92.96
-92.25
-95.02
-98.26
-99.10
-96.06
-89.59
-81.60
-74.69
-71.07
-71.79
-76.59
-83.90
-91.14
-95.24
-93.26
-83.14
-64.37
-38.37
-8.17
22.22
49.04
69.61
82.88
89.42
90.99
89.91
88.28
87.30
86.62
84.18
76.92
62.12
39.17
10.80
-17.07
-37.04
-43.11
-33.32
-10.69
17.85
44.18
62.24
70.04
69.84
66.52
65.19
69.01
78.36
91.21
104.13
113.50
116.43
110.86
95.79
71.40
39.28
2.49
-34.72
-67.87
-93.26
-108.92
-115.11
-114.01
-108.89
-102.84
-97.82
-94.05
-90.14
-83.65
-72.27
-55.03
-33.00
-9.41
11.19
24.38
27.37
20.00
4.78
-13.82
-30.75
-41.58
-43.49
-35.86
-20.24
0.00
20.24
35.57
42.12
38.02
24.24
4.43
-15.97
-31.28
-37.30
-32.78
-19.96
-3.76
9.78
16.00
13.61
5.64
-1.35
0.20
15.56
45.14
83.97
123.36
154.09
169.82
168.94
154.42
131.85
107.07
84.33
65.84
52.28
43.70
40.04
40.91
45.05
49.87
51.65
46.45
31.26
5.12
-30.25
-70.77
-111.11
-146.07
-172.04
-187.86
-194.87
-196.09
-194.75
-193.00
-191.11
-187.80
-181.19
-170.13
-155.12
-138.45
-123.55
-113.85
-111.70
-117.93
-131.53
-150.09
-170.16
-187.60
-198.29
-198.88
-187.71
-165.47
-135.31
-101.97
-70.60
-45.34
-28.34
-19.45
-16.51
-16.18
-14.86
-9.79
0.10
13.58
27.16
36.02
35.37
22.15
-3.75
-39.05
-77.84
-112.93
-137.84
-148.42
-143.77
-126.40
-101.24
-74.22
-50.64
-34.04
-25.75
-25.09
-30.02
-37.51
-43.82
-44.65
-35.89
-14.83
18.35
59.90
103.31
141.30
168.48
183.17
187.47
185.71
182.16
179.23
177.02
174.30
169.77
162.93
154.12
143.89
132.50
119.85
105.87
90.94
76.07
62.47
51.28
43.06
37.86
35.31
34.87
35.83
37.40
38.93
40.01
40.81
41.99
44.33
48.26
53.45
58.73
62.57
63.74
61.80
57.26
51.34
45.32
40.20
36.49
34.16
32.81
31.86
30.68
28.92
26.62
24.35
23.15
24.06
27.62
33.54
40.78
47.91
53.75
57.80
60.18
61.38
61.75
61.32
59.89
57.35
53.88
49.94
46.14
42.76
39.74
36.80
33.65
30.32
27.00
23.91
21.11
18.55
16.08
13.78
11.93
10.88
10.79
11.31
11.59
10.68
8.04
3.77
-1.05
-4.91
-6.36
-4.69
-0.34
5.26
10.22
12.91
12.52
9.33
4.39
-0.88
-5.23
-7.86
-8.55
-7.44
-4.98
-1.77
1.59
4.53
6.59
7.59
7.60
6.97
6.22
5.90
6.45
8.01
10.31
12.64
14.18
14.21
12.58
9.74
6.82
5.06
5.43
8.29
13.24
19.47
25.96
31.80
36.27
38.83
39.05
36.73
32.07
25.75
18.88
12.43
6.77
1.28
-5.47
-15.09
-28.47
-45.20
-63.59
-81.46
-97.01
-109.42
-118.73
-125.26
-129.13
-130.18
-128.39
-124.12
-118.04
-110.41
-100.38
-85.89
-64.63
-35.52
0.20
38.93
76.00
107.44
131.33
148.01
159.08
166.34
171.18
174.65
177.79
181.58
186.08
189.72
189.29
180.70
160.93
129.55
89.28
44.79
0.72
-40.16
-77.11
-110.21
-138.72
-159.85
-169.49
-163.93
-141.83
-104.96
-57.56
-4.62
49.92
103.72
155.89
206.02
253.54
297.53
336.75
369.60
393.86
406.68
405.30
388.41
357.21
315.53
268.64
221.62
178.13
140.31
109.41
86.34
71.28
62.83
57.63
51.40
41.06
26.61
11.10
-1.29
-8.27
-11.40
-15.67
-27.01
-49.12
-81.56
-120.17
-159.13
-193.25
-219.32
-236.07
-243.43
-241.99
-232.97
-218.61
-202.40
-188.46
-180.57
-180.94
-189.35
-203.13
-218.12
-230.10
-236.20
-235.85
-230.52
-222.95
-215.98
-211.56
-210.89
-215.17
-226.52
-247.79
-281.32
-326.65
-379.07
-429.67
-467.66
-484.01
-474.53
-441.11
-390.30
-330.59
-269.13
-210.30
-155.72
-105.41
-59.28
-17.57
19.21
50.94
78.02
101.37
121.72
139.06
152.57
160.90
163.14
159.41
151.31
141.44
132.79
127.84
127.80
132.40
139.95
148.12
154.49
157.39
156.30
151.80
145.22
138.07
131.56
126.25
122.12
118.83
116.09
113.81
112.16
111.36
111.47
112.24
113.13
113.41
112.41
109.74
105.46
100.02
94.05
88.10
82.34
76.55
70.25
62.97
54.42
44.70
34.09
22.95
11.59
0.16
-11.12
-21.81
-31.24
-38.55
-42.97
-44.19
-42.47
-38.63
-33.77
-28.87
-24.58
-21.11
-18.47
-16.51
-15.16
-14.29
-13.68
-13.07
-12.25
-11.20
-10.24
-9.94
-10.94
-13.71
-18.31
-24.54
-32.08
-40.76
-50.55
-61.54
-73.81
-87.28
-101.74
-116.90
-132.45
-148.00
-162.91
-176.21
-186.53
-192.46
-192.91
-187.51
-176.73
-161.73
-143.94
-124.57
-104.41
-83.78
-62.73
-41.49
-20.70
-1.38
15.34
28.57
37.93
43.61
46.18
46.34
44.72
41.79
37.90
33.43
28.88
24.78
21.59
19.63
18.99
19.59
21.28
23.85
27.19
31.12
35.51
39.94
43.90
46.85
48.48
48.94
48.88
49.30
51.13
54.97
60.77
67.98
75.78
83.61
91.50
100.03
110.01
121.94
135.64
150.21
164.46
177.44
188.90
199.31
209.36
219.41
229.01
237.00
242.05
243.34
241.06
236.41
231.23
227.28
225.84
227.29
231.01
235.37
237.81
235.29
224.99
205.37
176.94
142.20
104.44
66.06
27.07
-14.90
-63.25
-120.14
-184.88
-253.66
-320.53
-379.11
-423.80
-450.38
-456.19
-440.47
-404.93
-354.02
-294.37
-233.00
-175.37
-124.36
-80.68
-44.80
-18.48
-4.96
-7.33
-26.20
-58.27
-96.78
-133.81
-163.14
-181.96
-190.75
-191.76
-186.94
-176.90
-161.15
-139.26
-111.82
-80.89
-49.46
-20.35
4.73
25.63
43.37
59.49
75.07
90.28
104.28
115.65
122.93
125.31
122.97
117.00
109.02
100.53
92.37
84.57
76.51
67.33
56.56
44.40
31.82
20.34
