1587228286.00
64.000000
-0.00
-0.00
-0.00
-0.00
-0.00
-0.00
-0.00
-0.00
-0.00
-0.00
0.00
0.01
0.01
-0.00
-0.03
-0.05
-0.05
0.00
0.13
0.36
0.66
1.01
1.37
1.72
2.06
2.40
2.79
3.24
3.80
4.42
5.06
5.66
6.20
6.68
7.15
7.68
8.31
9.14
10.09
11.04
11.88
12.56
13.14
13.76
14.65
15.96
17.91
20.32
22.90
25.38
27.58
29.57
31.68
34.32
37.81
42.54
48.15
54.10
59.83
64.97
69.58
74.14
79.34
85.71
93.76
103.00
112.62
121.73
129.77
136.75
143.30
150.75
157.77
166.64
177.95
191.79
206.97
220.57
228.25
225.36
208.53
176.87
132.76
80.05
23.07
-34.94
-92.44
-149.16
-205.23
-260.37
-313.74
-363.87
-409.83
-450.91
-486.50
-515.74
-537.23
-549.22
-549.96
-538.37
-514.21
-478.67
-433.88
-382.45
-327.02
-269.84
-212.63
-156.66
-102.95
-52.37
-5.90
35.58
71.43
101.35
125.50
144.38
158.69
169.15
176.37
180.75
182.57
182.07
179.51
175.23
169.65
163.18
156.15
148.81
141.30
133.69
126.02
118.33
110.69
103.16
95.80
88.68
81.83
75.25
68.95
62.95
57.25
51.86
46.78
42.03
37.59
33.45
29.61
26.07
22.81
19.83
17.11
14.67
12.48
10.54
8.83
7.35
6.07
4.97
4.05
3.27
2.62
2.09
1.65
1.30
1.01
0.79
0.61
0.48
0.37
0.30
0.24
0.21
0.19
0.18
0.18
0.20
0.22
0.25
0.29
0.32
0.36
0.40
0.45
0.50
0.57
0.63
0.69
0.72
0.72
0.68
0.64
0.62
0.64
0.70
0.82
0.95
1.07
1.17
1.24
1.31
1.41
1.58
1.82
2.12
2.43
2.69
2.88
3.00
3.13
3.33
3.71
4.25
4.93
5.60
6.13
6.43
6.51
6.54
6.71
7.21
8.10
9.25
10.39
11.21
11.52
11.36
11.00
10.80
11.08
11.83
12.74
13.20
12.55
10.38
6.66
1.84
-3.44
-8.62
-13.44
-17.98
-22.58
-27.58
-33.23
-39.60
-46.67
-54.11
-61.07
-66.04
-67.05
-62.49
-51.90
-36.60
-19.44
-3.79
7.76
14.25
16.43
15.93
14.30
12.32
10.08
7.51
4.87
2.97
2.83
5.06
9.54
15.37
21.27
26.01
28.93
30.02
29.74
28.72
27.37
25.75
23.62
20.59
16.45
11.34
5.77
0.40
-4.08
-7.24
-8.98
-9.52
-9.32
-8.83
-8.36
-8.06
-7.95
-7.99
-8.26
-8.81
-9.71
-10.89
-12.16
-13.25
-13.98
-14.31
-14.40
-14.56
-15.05
-16.01
-17.42
-19.01
-20.48
-21.64
-22.43
-23.04
-23.80
-25.07
-27.14
-30.08
-33.63
-37.14
-39.69
-40.19
-37.71
-31.72
-22.28
-10.08
3.69
17.73
30.95
42.62
52.53
60.80
67.59
72.92
76.54
78.03
77.03
73.52
67.91
60.98
53.63
46.62
40.34
34.85
29.99
25.59
21.57
17.97
14.89
12.34
10.23
8.33
6.38
4.14
1.50
-1.51
-4.69
-7.75
-10.26
-11.76
-11.82
-10.09
-6.45
-1.06
5.58
12.66
19.23
24.39
27.45
28.06
26.30
22.58
17.58
12.14
7.10
3.12
0.58
-0.49
-0.45
0.16
0.74
0.87
0.38
-0.61
-1.85
-3.09
-4.11
-4.88
-5.37
-5.64
-5.81
-6.06
-6.61
-7.59
-8.99
-10.56
-11.98
-12.97
-13.48
-13.76
-14.17
-15.02
-16.38
-18.02
-19.59
-20.79
-21.57
-22.17
-22.92
-24.10
-25.76
-27.70
-29.67
-31.49
-33.19
-34.93
-36.91
-39.22
-41.82
-44.67
-47.73
-51.05
-54.61
-58.19
-61.18
-62.62
-61.49
-56.97
-48.81
-37.42
-23.79
-9.16
5.20
18.37
29.90
39.78
48.33
55.91
62.70
68.51
72.81
74.97
74.60
71.83
67.40
62.57
58.60
56.50
56.67
58.94
62.63
66.70
69.93
71.05
69.24
64.57
58.43
53.27
51.70
55.29
63.36
72.82
79.05
77.74
66.56
46.12
19.73
-8.04
-32.98
-52.61
-66.60
-76.41
-84.27
-92.12
-100.74
-109.61
-117.19
-121.76
-122.20
-118.40
-111.16
-101.55
-90.36
-77.82
-63.74
-48.07
-31.31
-14.56
0.83
13.87
24.27
32.47
39.28
45.34
50.70
54.91
57.31
57.58
56.02
53.59
51.50
50.70
51.44
53.23
55.16
56.35
56.34
55.15
53.18
50.95
48.93
47.46
46.75
46.92
47.91
49.48
51.25
52.76
53.49
52.98
50.87
46.93
41.23
34.20
26.59
19.23
12.73
7.22
2.24
-2.92
-8.92
-16.02
-24.11
-32.88
-42.09
-51.64
-61.44
-71.13
-79.91
-86.73
-90.72
-91.51
-89.39
-85.05
-79.16
-72.14
-64.17
-55.48
-46.49
-37.84
-30.12
-23.64
-18.29
-13.68
-9.47
-5.51
-1.90
1.08
3.14
3.98
3.37
1.12
-2.77
-7.98
-13.90
-19.72
-24.82
-28.85
-31.95
-34.53
-37.11
-40.03
-43.37
-46.98
-50.66
-54.34
-58.18
-62.63
-68.08
-74.69
-82.12
-89.44
-95.38
-98.71
-98.63
-94.99
-88.29
-79.46
-69.61
-59.78
-50.87
-43.51
-37.97
-33.94
-30.48
-26.32
-20.26
-11.76
-1.37
9.43
18.83
25.49
29.02
30.16
30.23
30.47
31.53
33.31
35.24
36.72
37.45
37.44
36.87
35.90
34.52
32.70
30.46
28.01
25.64
23.52
21.53
19.30
16.38
12.51
7.76
2.53
-2.72
-7.74
-12.63
-17.78
-23.63
-30.45
-38.10
-46.06
-53.48
-59.27
-62.32
-61.69
-56.86
-47.98
-35.85
-21.71
-6.88
7.56
21.02
33.25
44.21
53.74
61.57
67.42
71.10
72.81
72.92
72.09
70.91
69.91
69.41
69.51
70.12
70.95
71.67
71.95
71.52
70.25
68.06
64.93
60.88
56.04
50.58
44.64
38.26
31.26
23.35
14.29
4.17
-6.62
-17.50
-27.99
-37.92
-47.56
-57.44
-68.01
-79.39
-91.11
-102.24
-111.52
-117.73
-119.99
-117.93
-111.83
-102.44
-90.79
-77.81
-64.05
-49.58
-34.07
-17.19
1.03
19.94
38.31
54.85
68.57
79.22
87.15
92.90
96.71
98.44
97.68
94.24
88.32
80.38
70.77
59.50
46.39
31.53
15.63
0.04
-13.72
-24.54
-32.12
-36.81
-39.26
-39.98
-39.24
-37.26
-34.42
-31.25
-28.26
-25.63
-23.25
-20.89
-18.60
-16.88
-16.52
-18.27
-22.39
-28.44
-35.38
-41.88
-46.75
-49.23
-49.01
-46.11
-40.74
-33.12
-23.56
-12.47
-0.51
11.39
22.23
31.10
37.52
41.48
43.38
43.83
43.33
42.14
40.24
37.50
33.82
29.19
23.63
17.17
9.91
2.24
-5.01
-10.68
-13.67
-13.38
-9.98
-4.35
2.37
9.26
15.90
22.32
28.64
34.82
40.51
45.24
48.58
50.23
49.99
47.65
43.03
36.16
27.41
17.52
7.41
-2.10
-10.33
-16.71
-20.55
-20.99
-17.17
-8.59
4.77
22.68
45.17
72.82
106.40
146.05
190.39
236.26
279.32
315.27
340.98
355.07
357.72
350.11
333.85
310.66
282.40
251.04
218.35
185.59
153.04
120.03
85.12
46.69
3.74
-43.37
-92.54
-140.28
-182.65
-216.58
-240.75
-255.75
-263.86
-268.28
-272.22
-277.98
-286.47
-297.10
-307.98
-316.63
-320.59
-318.48
-310.58
-298.54
-284.45
-270.02
-256.27
-243.56
-231.96
-220.91
-209.62
-197.18
-182.63
-165.01
-143.60
-118.33
-89.30
-56.54
-19.47
22.29
67.96
115.33
161.31
202.81
237.04
262.93
277.20
278.54
269.42
254.45
237.61
221.26
206.72
193.51
181.31
169.55
157.72
144.86
129.35
108.93
81.11
47.43
9.60
-29.54
-66.61
-98.14
-121.92
-137.82
-148.22
-156.97
-167.34
-180.71
-195.29
-207.19
-212.15
-207.69
-194.04
-174.26
-152.85
-133.19
-116.69
-102.36
-88.20
-72.23
-52.79
-28.04
3.55
42.24
87.00
134.82
181.07
220.35
247.00
255.39
246.15
226.82
205.97
188.65
175.33
163.67
151.76
138.22
122.05
102.34
80.02
55.04
27.92
0.42
-24.64
-44.50
-57.67
-64.21
-65.16
-62.36
-58.34
-55.01
-53.25
-52.92
-53.30
-53.55
-52.80
-50.07
-45.06
-38.71
-32.58
-28.11
-25.97
-25.99
-27.62
-30.43
-34.37
-39.92
-47.85
-58.40
-71.03
-84.73
-98.68
-112.65
-126.89
-141.41
-155.41
-167.11
-174.06
-174.14
-166.53
-152.40
-134.65
-116.92
-102.07
-91.22
-83.49
-76.64
-68.33
-57.30
-44.00
-30.04
-17.33
-7.22
-0.33
3.21
3.54
1.08
-3.34
-8.56
-13.12
-15.63
-15.16
-11.52
-5.37
2.10
9.89
17.03
22.42
25.13
24.76
21.68
17.02
12.07
7.90
6.09
7.56
11.86
17.41
22.35
25.33
25.63
23.02
17.75
12.90
11.29
13.50
17.31
19.47
17.60
11.23
1.75
-8.02
-10.86
-0.95
22.67
55.35
90.14
121.14
145.55
163.77
178.86
200.48
237.13
291.43
358.67
430.60
498.99
558.06
604.40
604.90
540.26
418.54
273.37
139.26
34.18
-40.65
-91.73
-127.31
-154.24
-171.53
-176.97
-171.29
-159.98
-150.30
-148.58
-157.21
-175.70
-202.14
-230.30
-254.84
-273.58
-287.56
-290.71
-280.66
-256.20
-218.91
-173.99
-126.26
-82.31
-43.60
-11.67
13.03
30.43
41.75
48.22
50.51
51.04
52.75
54.07
54.19
52.22
45.44
31.33
10.11
-17.36
-46.16
-69.65
-82.29
-82.19
-69.49
-49.26
-28.14
-12.00
-4.46
-5.64
-13.35
-24.36
-35.49
-44.63
-51.28
-55.24
-56.19
-53.98
-48.56
-40.50
-31.03
-21.55
-13.47
-8.13
-6.06
-6.84
-9.47
-12.52
-14.85
-15.94
-15.99
-15.76
-16.20
-17.62
-19.45
-20.63
-20.18
-18.00
-15.13
-13.17
-13.77
-17.90
-25.35
-35.01
-45.13
-53.74
-58.91
-58.95
-52.84
-40.65
-23.79
-4.68
14.06
30.58
44.47
56.63
68.49
80.88
93.42
104.64
112.67
116.30
115.49
111.28
105.22
98.67
92.39
86.62
81.27
76.29
71.72
67.75
64.34
61.19
57.74
53.34
47.65
40.76
33.22
25.68
18.60
11.94
5.23
-2.13
-10.47
-19.64
-29.04
-37.86
-45.50
-51.85
-57.32
-62.69
-68.83
-76.34
-85.25
-94.91
-103.98
-110.74
-113.50
-111.02
-102.91
-89.52
-71.81
-50.90
-27.74
-2.96
23.22
50.87
80.10
110.62
141.32
170.03
193.78
209.63
215.59
211.45
198.80
180.32
158.66
135.41
110.85
84.51
56.29
27.35
0.32
-21.51
-35.49
-40.93
-39.58
-35.06
-31.66
-32.81
-40.18
-53.51
-71.23
-91.25
-111.59
-130.49
-146.19
-157.08
-161.90
-160.57
-154.55
-146.73
-140.43
-137.96
-139.54
-143.18
-145.66
-144.01
-136.62
-123.54
-105.85
-84.92
-61.90
-37.87
-14.02
8.46
28.93
47.83
66.68
87.12
109.57
132.36
151.95
164.47
167.57
161.60
149.41
134.88
121.17
109.52
99.36
89.44
79.23
69.57
62.41
59.37
60.52
63.84
65.83
63.10
53.82
38.45
19.18
-1.37
-21.29
-39.86
-57.03
-72.63
-85.85
-95.51
-100.75
-101.83
-100.23
-98.25
-98.08
-101.08
-107.46
-116.32
-126.08
-134.77
-140.38
-141.06
-135.44
-123.02
-104.27
-80.68
-54.35
-27.51
-2.02
20.97
41.01
58.30
73.37
86.76
98.72
109.04
117.00
121.71
122.54
119.59
113.91
107.27
101.62
98.39
98.01
99.76
102.20
103.74
103.22
100.22
94.95
88.02
80.01
71.28
61.87
51.72
40.81
29.23
17.10
4.41
-9.03
-23.39
-38.55
-53.82
-68.02
-80.05
-89.50
-96.89
-103.45
-110.22
-117.22
-123.07
-125.55
-122.57
-113.20
-97.97
-78.46
-56.52
-33.44
-9.93
13.60
36.55
57.87
76.24
90.60
100.51
106.30
108.89
109.40
108.68
107.11
104.63
101.01
96.28
91.19
87.32
86.85
91.87
103.43
120.82
141.25
160.41
173.41
176.16
166.40
144.45
113.09
76.82
40.58
8.31
-17.85
-37.91
-53.31
-65.94
-77.16
-87.40
-96.43
-104.03
-110.55
-117.00
-124.39
-132.99
-141.75
-148.43
-150.47
-146.06
-134.86
-118.19
-98.29
-77.42
-56.99
-37.31
-17.94
1.51
20.78
38.77
53.79
64.32
69.50
69.56
65.61
59.26
52.08
45.19
39.10
33.76
28.89
24.26
19.85
15.89
12.66
10.24
8.38
6.51
3.93
0.15
-4.97
-11.20
-18.10
-25.31
-32.62
-40.04
-47.59
-55.22
-62.69
-69.69
-75.89
-81.17
-85.68
-89.85
-94.25
-99.42
-105.66
-112.84
-120.36
-127.24
-132.28
-134.29
-132.35
-125.99
-115.30
-100.92
-83.93
-65.58
-47.03
-29.10
-12.22
3.53
18.12
31.38
42.82
51.84
58.04
61.56
63.09
63.66
64.22
65.30
66.84
68.26
68.87
68.16
66.09
63.08
59.85
57.14
55.39
54.54
53.86
52.39
49.33
44.51
38.59
32.82
28.58
26.71
26.91
27.50
26.19
21.25
12.39
1.12
-9.85
-17.89
-21.34
-20.18
-15.70
-9.24
-1.40
7.35
15.17
18.25
12.30
-4.25
-28.48
-54.00
-74.27
-86.33
-92.84
-100.03
-112.62
-129.00
-140.32
-135.47
-108.47
-62.81
-10.06
35.85
65.20
76.25
71.87
58.90
46.12
38.96
36.53
34.51
30.06
23.82
18.64
17.23
20.71
27.76
35.09
39.19
38.42
33.57
27.14
22.01
20.05
21.92
26.66
31.87
35.19
35.51
33.41
30.46
28.31
27.97
29.59
32.48
35.36
36.89
36.40
34.14
30.87
27.39
24.20
21.35
18.82
16.30
13.54
10.54
7.58
5.02
3.10
1.93
1.39
1.56
2.59
4.47
7.07
10.17
13.49
16.65
19.43
21.17
22.14
23.32
25.25
27.81
30.79
33.80
36.40
38.36
38.36
36.43
34.44
32.91
31.06
28.13
23.33
15.76
4.08
-16.56
-44.07
-75.44
-109.86
-146.81
-183.32
-214.75
-236.53
-246.03
-246.44
-241.39
-230.91
-217.14
-202.98
-189.59
-177.56
-167.22
-139.92
-91.13
-47.50
-10.89
28.26
69.88
108.83
136.90
146.68
135.17
102.62
56.48
11.73
-20.68
-35.72
-32.74
-15.15
11.63
42.27
70.08
90.81
104.75
108.24
100.23
85.61
70.85
60.45
55.83
54.47
53.25
51.52
47.80
40.73
30.11
16.41
0.91
-14.71
-29.67
-43.64
-54.76
-63.58
-71.69
-80.91
-93.45
-111.26
-135.24
-164.80
-196.96
-226.30
-247.12
-254.93
-248.14
-229.00
-202.46
-173.96
-147.40
-124.01
-102.74
-81.81
-59.97
-37.48
-16.10
1.94
15.04
22.75
25.86
25.84
24.19
22.09
20.31
19.57
20.74
24.87
32.68
44.11
58.03
72.71
86.53
98.81
109.85
120.36
130.57
139.66
146.16
148.89
147.73
143.73
138.21
131.68
123.25
111.18
93.88
71.07
43.93
14.46
-15.32
-43.80
-69.48
-90.54
-104.79
-110.51
-107.35
-96.95
-82.34
-66.62
-51.58
-37.27
-22.58
-6.42
11.22
29.23
45.98
60.15
71.21
79.20
84.24
86.19
84.81
80.13
72.92
64.76
57.68
53.56
53.18
55.83
59.43
61.22
58.83
51.26
39.27
25.20
12.12
2.91
-0.44
2.76
12.02
25.78
41.69
56.78
67.85
72.12
67.84
54.90
34.85
10.42
-15.15
-38.80
-58.18
-71.81
-79.04
-79.99
-75.35
-66.26
-54.01
-39.88
-24.94
-10.07
4.04
16.80
27.69
36.46
43.08
47.73
50.56
51.62
50.95
48.79
45.72
42.64
40.43
39.47
39.49
39.68
39.08
37.05
33.53
28.94
23.95
19.18
14.97
11.35
8.11
4.78
0.79
-4.55
-11.76
-21.03
-31.94
-43.54
-54.54
-63.72
-70.40
-74.70
-77.54
-80.18
-83.67
-88.32
-93.41
-97.45
-98.65
-95.60
-87.66
-75.16
-59.14
-40.90
-21.68
-2.34
16.63
34.92
52.21
67.89
81.16
91.15
97.28
99.49
98.33
94.82
90.14
85.25
80.76
76.90
73.62
70.81
68.31
65.95
63.49
60.64
57.09
52.70
47.43
41.44
34.96
28.26
21.61
15.18
9.11
3.39
-2.10
-7.56
-13.20
-19.10
-25.17
-31.26
-37.33
-43.56
-50.24
-57.49
-64.90
-71.32
-75.01
-74.25
-67.91
-55.81
-38.98
-19.34
1.01
20.41
38.00
53.51
66.90
78.08
87.04
93.68
97.87
99.71
99.56
98.08
95.97
93.79
91.91
91.01
91.39
92.88
94.84
96.47
97.12
96.34
94.01
90.39
87.43
86.54
87.77
89.87
91.22
90.76
88.13
83.55
77.72
74.40
76.10
82.72
91.94
100.98
107.87
111.39
110.80
106.18
103.43
107.78
121.87
145.35
176.69
213.82
253.48
290.77
320.03
342.53
359.16
369.36
371.31
364.60
351.08
333.51
314.19
257.00
148.88
5.38
-138.04
-252.54
-328.86
-372.21
-393.00
-401.12
-403.69
-399.19
-387.27
-370.68
-354.85
-343.51
-336.16
-328.89
-317.33
-299.16
-268.33
-228.91
-189.96
-160.27
-143.21
-136.42
-135.19
-135.82
-136.12
-132.46
-123.40
-109.33
-93.02
-78.87
-71.98
-75.64
-91.52
-117.67
-146.90
-170.88
-182.54
-178.60
-159.77
-129.56
-92.75
-54.27
-18.49
11.62
34.05
48.41
55.57
57.01
53.61
45.67
33.73
20.21
9.91
8.49
20.02
43.68
73.18
98.73
111.56
107.49
87.46
55.62
16.98
-23.22
-59.35
-85.43
-96.96
-92.90
-77.31
-58.67
-46.56
-47.04
-57.41
-69.01
-70.73
-57.46
-33.72
-9.51
6.57
11.16
6.16
-3.16
-10.25
-10.05
-0.58
17.52
41.48
67.14
90.02
106.73
111.77
104.85
90.83
75.41
62.08
50.41
37.95
22.22
2.34
-20.02
-42.06
-60.95
-75.99
-88.54
-101.63
-117.25
-135.59
-155.31
-174.14
-189.37
-198.14
-200.26
-193.56
-178.81
-156.36
-126.09
-88.67
-46.40
-2.58
41.20
82.96
119.89
148.38
166.08
172.11
166.89
152.87
135.54
125.59
132.30
158.65
199.43
244.74
283.71
307.84
313.51
284.81
221.45
141.32
68.19
14.62
-19.87
-41.31
-54.95
-63.56
-67.81
-65.40
-56.33
-44.38
-34.96
-31.10
-32.26
-35.53
-38.42
-39.34
-36.47
-30.45
-24.50
-22.36
-25.50
-32.88
-42.03
-51.53
-60.72
-68.82
-76.62
-86.54
-101.19
-121.42
-145.08
-164.24
-173.45
-167.64
-144.41
-106.79
-62.81
-22.26
7.68
25.21
34.29
39.48
44.70
51.32
57.70
61.07
59.91
55.00
48.09
42.50
39.50
39.05
40.26
41.98
43.40
44.01
42.44
36.99
26.63
11.80
-4.13
-16.01
-19.77
-14.51
-3.01
9.66
18.92
22.87
22.16
18.43
14.50
11.43
8.29
4.08
-0.61
-3.38
-1.67
5.12
15.03
24.37
29.20
27.54
20.24
10.18
0.52
-6.64
-11.28
-15.07
-20.39
-29.40
-43.11
-61.14
-81.88
-102.59
-119.36
-127.72
-123.31
-104.00
-71.26
-30.08
11.70
45.90
66.87
72.99
66.48
50.06
27.72
3.75
-17.47
-32.59
-38.56
-32.28
-11.30
24.18
70.11
116.45
152.00
169.44
166.33
145.63
113.93
78.56
42.00
10.72
-15.59
-42.13
-65.69
-79.30
-76.54
-55.52
-20.86
16.83
44.73
49.33
25.11
-21.98
-79.21
-132.76
-172.05
-192.04
-193.66
-168.59
-122.10
-71.52
-31.79
-6.33
9.38
20.31
28.36
32.58
31.69
23.69
10.44
-2.00
-7.55
-3.29
10.22
30.14
52.25
71.70
81.98
78.77
62.27
36.47
7.44
-18.87
-35.23
-38.80
-32.22
-22.10
-14.32
-11.03
-11.27
-13.34
-16.38
-20.35
-25.47
-30.82
-34.24
-33.27
-26.30
-13.43
3.10
19.99
34.39
44.86
51.21
54.14
54.04
50.97
45.21
37.62
29.69
20.64
11.83
2.79
-4.94
-10.83
-16.40
-23.43
-32.39
-42.55
-52.70
-61.59
-68.86
-74.36
-78.50
-81.57
-82.79
-80.48
-74.34
-65.59
-56.07
-47.40
-39.93
-33.39
-27.21
-19.96
-9.28
5.05
21.08
36.53
50.46
64.28
81.34
100.82
123.97
153.47
188.79
225.41
256.78
276.72
281.33
269.33
242.22
190.79
120.34
46.89
-13.29
-53.01
-74.09
-82.13
-82.80
-80.36
-77.03
-71.93
-65.16
-58.29
-53.09
-50.05
-48.41
-47.11
-45.56
-43.60
-40.22
-36.35
-34.52
-36.84
-42.90
-49.04
-49.59
-39.34
-15.84
20.23
63.87
107.85
145.88
174.71
194.06
204.87
207.72
202.40
189.36
170.30
148.48
128.14
112.94
104.38
101.03
100.65
100.58
98.85
95.00
89.90
85.11
81.88
80.53
80.28
79.84
78.00
74.44
69.92
65.74
62.98
61.98
62.31
63.14
63.87
64.28
64.71
65.75
67.74
70.38
72.80
73.86
72.72
69.23
63.99
58.13
52.88
48.98
46.30
43.83
40.14
33.98
24.79
13.00
-0.29
-13.77
-26.72
-39.45
-53.38
-70.49
-92.49
-120.03
-152.37
-187.74
-223.94
-259.39
-293.69
-327.72
-363.30
-402.76
-448.38
-501.76
-562.77
-628.40
-692.34
-745.85
-780.26
-790.09
-775.03
-739.92
-692.34
-639.67
-586.40
-533.82
-481.19
-427.68
-373.45
-319.27
-265.58
-212.11
-158.40
-104.44
-51.20
0.02
48.25
93.10
134.87
174.13
210.71
243.51
271.35
293.72
311.58
325.96
336.46
340.75
336.17
320.84
295.35
263.53
231.08
204.38
187.04
178.37
174.65
172.88
171.46
170.61
171.60
175.23
182.73
193.62
205.41
214.89
220.61
221.83
218.39
210.90
200.39
190.43
183.86
181.39
171.21
146.12
108.45
67.95
39.84
23.18
15.50
14.35
15.16
16.12
18.27
23.34
31.81
42.47
52.48
61.05
67.27
69.40
65.77
56.93
45.77
35.71
29.28
26.75
28.36
32.50
36.00
36.28
33.36
30.07
29.26
32.43
39.49
51.62
69.69
92.86
119.05
137.89
141.59
129.49
107.93
83.34
58.37
30.50
-3.09
-47.33
-102.06
-160.61
-215.01
-260.63
-298.38
-323.67
-324.59
-295.53
-237.52
-157.31
-63.41
32.90
117.75
178.35
208.42
210.08
192.54
172.95
160.65
161.58
175.43
195.55
212.79
220.24
215.02
197.89
172.70
143.41
112.78
84.49
60.28
40.79
26.80
18.66
15.33
14.29
11.40
3.04
-13.13
-37.70
-68.70
-102.04
-133.53
-160.85
-183.91
-204.90
-226.43
-250.66
-278.74
-309.88
-341.33
-369.33
-390.25
-401.24
-400.81
-388.26
-363.74
-328.23
-283.44
-231.63
-175.32
-116.92
-57.94
0.79
58.68
114.36
165.11
207.56
239.40
260.80
274.40
283.49
289.31
289.66
279.66
254.96
214.85
163.99
110.98
65.16
32.45
13.29
3.47
-2.96
-10.04
-19.26
-30.53
-43.91
-59.61
-78.20
-99.50
-121.65
-141.17
-153.58
-156.87
-153.08
-148.07
-146.61
-150.75
-158.45
-164.84
-164.48
-152.11
-126.41
-90.49
-51.25
-13.70
19.25
47.99
74.97
103.09
136.00
173.87
212.75
245.04
266.53
276.30
277.64
275.51
259.84
227.85
187.80
162.53
150.53
144.55
132.29
106.44
63.81
5.91
-58.97
-120.42
-170.05
-197.39
-194.21
-165.93
-127.97
-94.25
-70.67
-55.16
-44.82
-35.29
-26.43
-18.30
-12.04
-8.99
-11.40
-22.10
-43.80
-76.65
-116.02
-154.07
-180.71
-188.48
-174.63
-142.01
-97.59
-48.99
-2.04
40.26
76.29
105.55
127.65
142.96
152.65
158.54
162.39
165.11
166.46
164.83
158.57
146.95
131.25
114.37
99.40
88.02
80.00
73.46
65.86
55.55
43.12
31.95
27.60
36.08
61.54
104.36
160.22
220.68
275.48
315.71
336.56
338.52
326.54
307.77
288.92
274.48
265.84
262.69
264.16
269.04
275.45
280.83
282.31
277.42
264.82
244.23
216.85
184.75
149.78
112.59
72.72
29.20
-18.50
-69.66
-123.10
-175.37
-221.39
-256.45
-278.37
-288.17
-289.32
-286.38
-283.43
-286.22
-296.22
-310.11
-323.03
-332.20
-337.60
-340.86
-343.69
-346.68
-355.68
-370.86
-385.75
-393.03
-390.46
-381.02
-369.71
-360.72
-355.96
-365.90
-392.51
-427.44
-460.00
-485.75
-506.23
-524.82
-543.54
-562.20
-592.61
-636.06
-680.16
-708.83
-713.70
-695.04
-657.63
-607.52
-462.76
-215.69
66.32
303.52
463.45
554.22
597.16
612.32
614.70
613.56
599.28
568.36
529.32
494.14
467.58
446.51
424.92
399.01
369.99
333.30
293.68
263.25
250.32
250.69
251.24
239.68
211.95
173.35
127.63
82.03
44.62
19.43
4.26
-5.56
-12.93
-17.99
-20.10
-23.06
-30.59
-44.21
-62.59
-82.15
-97.29
-101.54
-90.16
-63.28
-27.75
6.74
31.92
43.77
43.46
35.85
26.84
20.55
17.75
16.76
15.34
12.53
9.26
7.44
8.47
12.29
17.44
21.62
23.02
21.57
18.52
15.92
15.39
17.19
20.44
24.17
28.20
33.58
41.62
52.27
62.99
69.51
67.85
56.33
37.93
18.09
2.07
-7.42
-10.84
-9.76
-4.73
5.38
21.54
42.00
60.47
68.06
57.70
28.82
-10.75
-47.36
-67.68
-64.71
-40.87
-6.42
26.10
47.43
54.77
51.04
41.79
31.60
21.99
12.97
3.32
-7.23
-17.26
-24.22
-26.27
-23.23
-16.67
-9.00
-2.08
4.05
11.56
23.55
41.75
64.19
84.94
95.93
90.66
67.67
31.77
-7.56
-40.21
-59.27
-63.49
-56.55
-44.52
-33.01
-25.53
-23.61
-27.45
-35.79
-45.72
-52.41
-49.93
-33.33
-1.24
42.50
88.92
126.22
144.28
138.20
109.97
67.39
20.90
-20.22
-50.40
-68.47
-77.08
-80.02
-80.64
-81.05
-82.25
-84.76
-89.28
-96.72
-104.79
-111.95
-116.49
-117.18
-113.82
-107.68
-101.21
-97.04
-96.64
-99.34
-102.93
-104.06
-100.06
-90.25
-76.43
-62.08
-51.03
-46.04
-48.05
-56.51
-69.14
-82.38
-91.91
-93.49
-84.10
-63.18
-33.09
1.58
35.35
64.00
85.67
100.85
111.24
118.40
122.88
124.31
122.07
115.95
106.70
95.77
84.67
74.41
65.17
56.39
47.30
37.41
26.83
16.31
6.88
-0.64
-6.03
-9.81
-13.00
-16.73
-21.75
-28.18
-35.50
-42.73
-48.86
-53.10
-55.21
-55.57
-55.09
-55.01
-56.57
-60.60
-67.17
-75.47
-83.89
-90.45
-93.31
-91.21
-83.73
-71.27
-54.84
-35.67
-15.00
6.10
26.66
45.85
62.89
77.08
88.00
95.50
99.80
101.37
100.75
98.44
94.73
89.84
83.96
77.42
70.67
64.20
58.32
53.08
48.17
43.04
37.14
30.05
21.63
12.05
1.67
-9.05
-19.66
-29.82
-39.34
-48.16
-56.37
-64.21
-72.09
-80.45
-89.70
-99.85
-110.33
-119.92
-126.86
-129.43
-126.36
-117.31
-102.82
-84.05
-62.36
-38.91
-14.62
9.84
33.71
56.12
76.11
92.75
105.44
114.04
118.86
120.61
120.23
118.60
116.43
114.08
111.66
109.08
106.20
102.97
99.35
95.35
90.86
85.76
79.84
72.97
65.13
56.45
47.21
37.75
28.47
19.69
11.54
4.04
-3.02
-9.95
-17.17
-25.07
-33.86
-43.36
-52.82
-60.89
-65.87
-66.09
-60.44
-48.69
-31.51
-10.20
13.77
39.14
65.11
91.31
117.58
143.84
169.59
194.14
216.55
235.84
251.15
261.90
267.77
268.74
265.14
257.43
246.44
233.19
218.57
202.89
185.87
166.82
145.39
122.41
99.43
78.70
61.89
49.17
38.93
28.57
15.74
-0.61
-19.42
-40.03
-61.17
-82.14
-102.71
-122.70
-141.67
-159.17
-175.05
-188.40
-200.99
-212.84
-223.13
-230.33
-232.81
-229.52
-220.42
-206.44
-187.11
-166.27
-145.39
-125.44
-106.80
-89.47
-73.42
-59.10
-47.40
-36.51
-29.03
-23.21
-16.23
-5.43
9.94
28.16
45.78
43.09
39.42
33.92
31.29
36.31
51.08
73.17
95.83
110.27
109.21
92.74
61.49
23.48
-12.18
-39.04
-55.40
-63.67
-67.98
-71.34
-72.33
-72.08
-69.87
-66.56
-64.28
-65.15
-69.75
-76.60
-82.71
-83.05
-75.10
-55.25
-20.86
28.35
88.28
149.90
201.22
231.33
235.63
216.17
182.43
146.52
118.45
103.19
100.68
107.80
120.47
134.96
146.84
151.44
143.80
119.80
77.83
19.77
-49.12
-121.30
-188.27
-242.24
-277.23
-289.95
-280.51
-252.44
-211.97
-166.90
-125.01
-92.26
-71.83
-63.63
-64.48
-69.84
-75.59
-79.35
-80.72
-80.55
-79.70
-78.41
-76.00
-70.76
-61.62
-49.01
-34.72
-20.84
-8.43
2.80
13.78
25.16
37.55
50.11
60.62
66.30
65.45
58.39
47.37
35.47
26.03
23.30
30.34
47.79
73.65
104.34
136.09
165.95
191.81
205.63
202.42
182.68
151.74
115.06
75.08
32.40
-11.67
-54.47
-94.23
-127.34
-151.36
-166.71
-176.71
-185.97
-198.56
-212.78
-226.92
-238.30
-242.94
-237.92
-222.72
-199.13
-170.16
-138.58
-106.40
-75.73
-48.48
-25.71
-8.27
3.33
9.33
11.00
10.40
9.70
9.97
11.47
14.13
17.34
20.20
21.87
21.99
20.87
19.36
18.24
18.39
20.78
26.10
34.41
44.90
55.84
65.01
70.38
70.81
66.75
60.06
53.14
47.80
44.48
42.24
39.45
34.76
27.75
19.25
10.93
4.44
0.50
-1.44
-2.84
-5.02
-8.31
-11.60
-12.62
-9.00
0.33
14.42
30.64
46.10
59.09
69.61
78.80
88.15
98.53
109.73
120.53
129.49
135.87
140.04
142.70
143.96
143.55
141.60
139.08
137.64
138.63
142.11
146.02
145.67
134.60
107.60
63.35
5.34
-59.48
-123.16
-178.71
-218.75
-235.56
-226.32
-195.68
-153.03
-107.42
-64.91
-29.17
-1.72
17.78
30.43
37.21
39.32
38.42
36.41
34.59
32.91
30.50
27.66
25.30
23.85
23.20
23.03
23.17
23.25
21.18
15.62
6.95
-3.57
-15.21
-28.54
-45.15
-64.58
-87.06
-115.80
-153.93
-202.06
-257.40
-313.86
-363.27
-397.30
-410.11
-385.58
-323.47
-240.65
-161.33
-102.91
-69.34
-55.17
-52.14
-53.26
-54.68
-53.95
-48.68
-36.25
-15.79
10.43
36.26
54.06
53.69
31.56
-7.79
-51.78
-84.15
-96.14
-84.77
-52.56
-5.21
48.41
99.69
140.75
166.35
174.93
168.00
149.61
124.58
97.91
74.90
61.96
64.41
84.77
121.27
167.13
212.11
244.75
256.20
243.61
212.17
172.90
138.35
118.03
115.44
128.35
150.60
174.93
194.84
205.33
202.22
182.00
142.70
85.62
16.40
-56.34
-124.15
-181.87
-228.63
-266.31
-295.84
-314.44
-315.74
-292.98
-243.85
-173.65
-95.13
-24.54
23.78
42.02
30.81
-2.21
-45.71
-87.99
-119.23
-132.95
-126.47
-101.33
-63.44
-22.32
11.07
27.34
21.98
-2.16
-35.72
-65.58
-79.10
-68.32
-32.25
23.23
87.99
151.24
205.52
247.19
275.94
293.01
299.62
296.35
283.46
261.75
233.40
203.36
176.60
156.60
144.06
137.26
133.21
129.02
122.40
112.21
100.06
87.54
75.70
64.94
55.44
47.82
43.42
43.01
37.56
21.92
-5.10
-39.12
-73.46
-102.56
-123.37
-135.32
-140.80
-145.78
-153.84
-167.11
-184.87
-204.21
-221.55
-234.93
-242.43
-245.70
-247.88
-246.09
-237.98
-222.17
-199.46
-172.55
-147.14
-122.98
-98.00
-69.06
-31.97
14.76
68.52
123.59
172.99
210.73
233.41
239.38
229.08
205.47
172.40
134.27
95.70
60.87
33.16
14.92
5.70
2.58
1.55
-1.76
-10.27
-24.29
-41.58
-58.13
-68.96
-70.62
-63.31
-50.20
-35.29
-21.52
-9.13
1.58
9.25
11.87
6.75
-7.36
-28.48
-52.22
-73.89
-90.40
-101.23
-107.42
-109.91
-108.54
-101.97
-87.52
-63.22
-29.72
9.31
47.98
80.24
101.79
110.99
105.70
88.22
65.45
46.03
35.94
36.14
43.65
54.16
63.99
70.01
71.64
69.93
66.06
61.00
55.91
50.39
43.85
35.43
22.63
3.63
-22.24
-54.15
-89.17
-122.36
-147.94
-161.21
-152.72
-123.09
-80.70
-37.44
-3.36
16.90
24.39
23.41
18.84
13.65
7.60
-0.13
-9.99
-21.69
-34.13
-45.69
-52.71
-52.28
-43.02
-26.91
-7.89
9.33
21.05
25.93
25.39
22.79
21.80
24.94
32.53
43.78
57.72
73.64
90.78
107.78
122.36
131.55
132.69
123.96
105.26
78.14
45.19
9.28
-26.99
-61.16
-90.88
-114.02
-129.36
-136.94
-138.25
-135.84
-132.95
-132.51
-136.05
-143.02
-150.71
-155.00
-151.38
-136.07
-107.19
-66.24
-18.53
27.75
63.85
83.26
83.85
68.73
44.89
22.55
11.59
16.38
33.64
55.25
73.28
83.03
83.90
79.36
74.87
75.39
83.93
100.23
120.47
138.39
147.36
143.00
122.79
89.23
48.57
8.23
-26.36
-53.23
-72.98
-86.91
-95.28
-96.82
-89.55
-73.04
-50.07
-26.83
-11.57
-10.88
-27.10
-57.68
-96.37
-134.54
-163.08
-173.95
-162.44
-128.93
-78.68
-21.07
32.67
72.53
93.33
94.80
84.84
75.42
74.45
82.62
95.34
107.34
115.07
117.82
116.61
112.78
107.43
99.45
88.51
75.16
60.38
43.93
24.36
-0.55
-33.01
-74.13
-123.41
-177.76
-227.58
-255.30
-248.43
-206.43
-142.67
-78.28
-31.62
-14.21
-21.21
-42.91
-68.82
-91.40
-106.78
-110.09
-99.68
-76.06
-41.47
1.42
48.98
97.33
141.44
176.41
198.85
207.50
204.15
192.42
176.84
160.67
145.72
131.93
118.17
103.47
87.08
69.03
49.69
29.79
10.08
-8.21
-23.70
-35.60
-43.10
-45.79
-43.53
-36.89
-27.22
-16.66
-7.29
-0.73
1.50
-0.52
-5.72
-12.69
-20.80
-30.46
-42.52
-57.34
-74.36
-93.66
-114.60
-136.11
-156.55
-173.64
-184.72
-187.22
-180.00
-157.04
-120.00
-77.27
-40.03
-15.88
-5.66
-5.18
-8.50
-10.35
-7.04
0.95
13.85
30.87
49.39
65.07
73.36
71.65
60.65
44.03
25.78
9.72
-0.50
-3.24
0.55
8.70
19.34
31.55
44.70
57.24
68.03
77.09
85.61
95.03
105.52
115.28
121.39
121.27
114.12
101.54
86.61
71.63
56.87
41.61
24.63
7.50
-5.40
-9.00
-0.41
19.63
46.52
73.67
95.10
106.97
107.99
98.56
79.77
52.76
19.90
-15.06
-47.28
-72.08
-86.59
-90.70
-87.64
-79.89
-73.47
-74.57
-87.26
-111.36
-141.33
-167.58
-179.39
-168.78
-133.08
-76.20
-6.27
66.68
133.01
184.93
217.17
227.56
217.33
191.01
154.95
116.09
79.64
47.82
19.96
-5.79
-30.57
-53.70
-72.84
-85.66
-91.28
-91.36
-89.76
-91.15
-99.19
-115.06
-137.66
-164.87
-195.21
-228.19
-263.59
-299.96
-333.69
-359.50
-372.41
-369.86
-352.69
-324.71
-290.64
-254.34
-217.86
-181.81
-146.45
-112.60
-81.76
-55.59
-35.27
-20.83
-11.03
-3.45
5.52
20.31
45.11
81.97
129.07
179.73
223.66
250.13
251.96
228.10
183.70
127.57
68.98
15.15
-29.07
-60.15
-74.97
-71.06
-48.13
-9.59
37.56
85.05
126.82
161.24
190.76
218.86
246.26
268.82
278.99
269.75
239.30
192.77
140.12
91.48
53.14
26.26
9.16
0.63
1.61
13.57
34.89
58.33
72.35
66.26
36.30
-11.22
-62.01
-100.01
-114.53
-104.30
-76.62
-42.87
-13.42
5.56
12.34
7.75
-6.94
-30.85
-62.93
-100.67
-139.20
-172.27
-194.38
-203.02
-199.71
-189.32
-177.38
-167.25
-158.35
-146.39
-125.63
-91.85
-44.68
11.99
71.69
127.85
176.14
215.22
246.25
271.54
293.18
312.09
328.08
340.19
347.11
347.51
340.26
324.76
301.82
273.25
241.64
209.76
180.12
154.35
132.90
115.11
99.73
86.54
75.47
66.31
58.66
52.11
46.39
41.37
36.86
32.68
30.39
30.83
33.47
36.44
37.73
36.25
32.29
27.12
22.38
21.57
26.44
36.18
47.95
58.81
67.32
73.84
79.63
71.83
44.41
-0.37
-53.10
-104.04
-147.75
-182.72
-209.24
-228.24
-240.78
-245.82
-243.21
-234.41
-222.26
-209.69
-198.65
-189.85
-183.26
-178.37
-172.68
-164.15
-151.94
-136.53
-119.27
-102.32
-87.27
-75.97
-70.01
-68.86
-71.11
-74.95
-78.77
-81.57
-82.98
-83.23
-83.03
-82.90
-82.23
-80.07
-75.84
-69.84
-63.32
-57.98
-55.16
-55.36
-57.84
-60.72
-61.87
-60.22
-55.70
-49.27
-42.18
-35.24
-28.53
-21.50
-13.27
-3.10
9.51
24.64
42.09
61.38
81.73
101.96
120.53
135.99
147.41
154.78
158.77
160.36
160.55
159.97
158.80
156.87
154.10
150.69
147.33
144.56
142.55
141.06
139.54
137.22
133.21
126.67
116.88
103.37
85.45
62.54
34.72
3.08
-30.31
-62.81
-91.76
-115.90
-132.53
-139.44
-136.32
-125.09
-108.80
-90.35
-71.96
-54.96
-40.04
-27.35
-17.00
-9.10
-3.43
0.59
3.73
6.53
9.31
12.10
14.79
16.97
18.08
17.59
15.24
11.41
5.41
-3.43
-15.59
-31.14
-49.81
-71.00
-93.70
-116.20
-136.52
-152.85
-163.78
-168.91
-168.78
-165.24
-160.88
-157.91
-156.49
-154.38
-147.78
-132.70
-106.80
-69.69
-23.54
27.91
77.68
118.77
145.92
156.32
150.03
129.71
101.24
71.75
47.73
33.33
30.01
36.51
49.45
64.77
79.00
91.59
103.46
115.71
128.64
142.00
155.32
167.96
179.36
181.17
168.26
140.92
104.56
65.68
28.63
-4.58
-33.23
-56.84
-74.97
-86.05
-89.32
-85.92
-78.93
-72.25
-69.19
-72.33
-81.20
-93.49
-104.89
-111.15
-109.76
-100.27
-83.93
-62.68
-38.72
-14.06
9.49
30.90
49.40
64.36
75.75
83.18
87.20
88.64
87.19
83.05
77.24
72.32
68.59
64.76
57.63
44.13
21.92
-9.59
-49.16
-94.19
-141.57
-188.14
-229.82
-261.70
-278.50
-276.41
-254.72
-216.67
-168.85
-119.16
-74.55
-39.01
-13.77
1.96
9.75
11.54
9.33
5.14
1.15
-0.81
1.05
7.49
18.40
32.97
50.26
69.44
89.83
110.94
131.76
150.88
165.25
170.81
164.11
144.09
113.00
76.07
39.96
8.57
-13.35
-23.47
-23.32
-17.30
-9.77
-2.72
4.14
11.96
21.10
30.98
39.19
42.97
40.54
31.74
17.75
1.02
-14.09
-24.11
-25.21
-15.06
6.09
34.94
65.32
89.48
100.40
94.45
73.01
42.20
10.08
-16.49
-33.62
-40.94
-40.56
-34.60
-25.03
-12.83
1.32
15.43
25.38
26.52
15.90
-5.59
-32.91
-58.69
-74.15
-73.24
-57.01
-33.94
-14.11
-3.31
-1.05
-2.53
-2.15
3.59
13.70
25.31
34.66
39.30
38.84
34.72
29.33
24.82
22.26
21.00
20.18
18.31
14.74
10.09
5.52
1.65
-2.00
-6.59
-13.13
-21.12
-28.49
-31.89
-28.59
-18.55
-5.57
3.78
2.97
-11.31
-36.79
-65.84
-87.98
-94.06
-80.21
-49.75
-11.62
23.48
46.91
54.31
45.48
22.70
-10.36
-49.32
-89.16
-123.51
-145.13
-147.52
-127.31
-85.80
-29.40
32.44
89.20
130.71
149.31
141.91
111.20
65.36
16.19
-25.29
-50.97
-57.87
-49.26
-32.51
-16.10
-7.22
-10.02
-24.93
-49.93
-79.69
-101.44
-103.92
-83.00
-43.91
3.16
45.66
80.31
103.56
110.57
96.05
56.92
-3.09
-71.40
-130.17
-163.39
-163.48
-135.44
-92.51
-50.92
-23.58
-15.32
-20.28
-28.63
-30.59
-20.95
-4.53
14.66
33.04
47.47
55.87
56.08
46.95
29.35
6.54
-16.01
-30.28
-30.89
-17.92
3.69
27.13
47.13
61.38
69.66
72.01
70.57
64.69
53.22
36.42
16.24
-4.90
-25.78
-46.68
-67.94
-87.07
-99.75
-102.03
-92.82
-75.51
-57.15
-44.59
-39.82
-37.00
-23.33
11.73
69.44
139.72
205.44
250.06
264.70
250.91
210.32
154.69
100.27
59.56
35.33
22.13
12.15
1.13
-13.74
-33.20
-55.38
-78.00
-98.55
-114.29
-121.16
-116.35
-100.60
-79.43
-61.19
-53.27
-60.66
-84.05
-118.58
-154.30
-178.39
-179.11
-150.08
-92.89
-16.84
62.86
129.98
173.17
189.14
183.58
167.97
154.04
149.30
155.69
170.42
188.88
207.39
223.14
235.13
243.23
246.78
244.11
233.48
214.06
186.66
153.53
115.56
74.05
31.04
-11.21
-50.96
-86.89
-117.67
-142.51
-162.20
-182.18
-208.09
-242.35
-282.42
-321.85
-352.32
-366.73
-362.05
-325.90
-260.68
-182.91
-113.17
-62.99
-32.46
-15.99
-7.93
-4.58
-3.57
-5.37
-9.14
-12.66
-13.59
-11.90
-9.52
-8.80
-10.66
-13.80
-16.75
-16.15
-9.04
7.00
29.62
52.04
66.03
66.08
52.50
29.97
8.19
-3.11
0.93
17.85
40.08
59.32
70.34
72.18
66.57
57.65
50.61
50.91
62.15
84.29
112.31
137.10
150.38
145.56
122.43
87.02
48.77
15.90
-7.68
-22.72
-32.45
-39.98
-47.26
-54.91
-63.20
-71.98
-80.28
-85.74
-85.14
-75.60
-56.28
-29.27
1.56
32.00
58.86
79.99
92.86
94.17
81.03
53.43
15.42
-25.35
-60.79
-83.99
-91.09
-82.74
-62.56
-34.59
-1.50
34.84
71.87
103.24
119.95
116.18
93.58
60.00
24.53
-6.23
-29.80
-46.71
-58.75
-66.99
-71.47
-72.16
-69.68
-65.45
-61.19
-58.33
-57.53
-58.57
-60.04
-59.84
-56.22
-48.52
-37.77
-24.20
-8.24
9.55
27.84
44.70
57.74
64.55
63.68
55.33
41.58
25.21
8.66
-6.88
-20.91
-32.84
-41.76
-46.61
-46.93
-43.35
-37.69
-30.70
-23.72
-17.00
-9.32
0.97
14.61
30.41
45.65
57.37
63.94
65.50
63.78
61.38
60.40
61.67
64.54
67.45
68.54
66.05
58.43
44.92
28.14
12.27
3.61
7.65
25.99
54.17
82.48
99.52
96.42
71.52
29.90
-19.32
-67.10
-107.04
-135.57
-151.08
-148.60
-129.61
-99.50
-66.43
-38.72
-22.29
-18.68
-25.06
-36.27
-47.61
-57.07
-63.98
-68.69
-71.48
-72.46
-71.82
-69.71
-66.83
-64.06
-62.56
-61.92
-60.94
-58.56
-53.18
-44.31
-31.90
-17.17
-2.06
11.30
22.25
30.89
38.02
44.29
50.25
57.31
66.80
79.93
96.98
117.33
137.27
151.02
152.02
131.86
92.37
41.93
-6.09
-43.04
-62.68
-63.23
-46.27
-16.37
21.09
61.24
98.47
126.54
140.54
138.60
116.74
76.80
24.76
-30.15
-79.70
-116.49
-139.47
-151.90
-154.17
-145.56
-124.41
-91.32
-49.51
-5.17
32.07
51.34
48.24
28.42
3.12
-14.93
-24.56
-29.89
-36.60
-48.97
-68.69
-92.35
-112.71
-122.25
-115.56
-92.11
-55.00
-10.39
34.71
74.79
107.87
134.75
156.42
172.49
180.64
179.01
167.75
150.12
131.91
119.20
114.90
116.08
114.39
99.54
65.29
12.57
-50.53
-112.08
-160.67
-188.97
-195.41
-183.87
-161.23
-134.09
-107.38
-83.88
-64.55
-48.45
-32.56
-12.54
14.70
49.53
89.54
130.10
165.91
193.03
204.76
198.88
180.47
158.25
138.60
122.16
105.28
84.88
61.19
40.27
24.79
14.50
4.88
-11.32
-40.30
-83.88
-137.96
-194.19
-240.63
-268.22
-269.23
-245.08
-206.66
-168.89
-143.19
-132.63
-135.60
-144.34
-152.98
-158.13
-157.96
-151.35
-135.30
-109.03
-74.70
-37.19
-1.63
28.17
52.32
75.64
104.38
142.40
188.54
236.63
278.14
305.90
315.78
299.58
257.47
198.98
138.57
87.70
49.34
19.72
-4.38
-26.47
-46.43
-59.38
-59.53
-44.17
-15.12
20.92
54.45
77.05
88.31
90.22
83.39
68.05
43.18
8.17
-36.45
-86.40
-132.44
-162.72
-170.93
-159.39
-136.57
-113.76
-91.42
-65.44
-30.61
16.23
73.45
131.21
175.66
194.80
183.66
147.47
96.83
43.32
-5.33
-47.97
-89.10
-133.53
-181.52
-228.02
-258.41
-260.35
-230.44
-176.83
-114.73
-58.03
-13.31
20.28
46.62
70.05
91.13
107.46
116.92
118.91
114.83
107.59
100.80
94.40
86.87
74.61
54.45
27.78
-0.08
-21.81
-30.58
-20.61
5.83
40.33
75.09
103.15
120.91
126.03
117.36
96.15
65.92
31.12
-2.31
-30.58
-53.64
-72.92
-92.02
-113.28
-134.56
-150.06
-153.75
-134.27
-89.65
-38.40
7.83
44.07
64.63
65.98
47.04
8.97
-44.06
-106.38
-170.63
-226.68
-266.19
-284.03
-278.52
-252.09
-211.04
-162.82
-114.06
-68.05
-23.42
21.53
66.20
106.68
137.45
153.22
151.41
136.31
118.37
108.33
110.02
119.62
129.50
133.94
131.73
125.49
118.87
114.60
111.08
104.61
91.68
69.96
40.22
6.12
-27.28
-55.53
-76.81
-92.60
-106.63
-114.70
-114.72
-105.96
-89.60
-68.33
-45.59
-25.27
-11.13
-5.19
-7.30
-16.04
-28.06
-39.14
-45.50
-44.55
-35.57
-20.28
-2.46
11.48
16.15
8.69
-9.51
-32.51
-51.57
-58.10
-47.08
-19.11
18.82
55.58
80.36
86.71
74.36
48.41
16.92
-12.33
-30.94
-34.83
-25.53
-8.12
12.37
33.07
52.75
70.55
85.01
94.52
97.67
94.82
88.28
81.57
77.85
78.16
81.59
86.01
89.11
89.14
85.81
80.20
74.27
69.95
66.57
62.79
57.36
49.90
40.90
31.67
23.90
19.23
18.14
18.69
18.60
16.54
13.00
9.64
8.36
10.49
16.50
25.09
31.95
33.04
26.59
13.95
-1.83
-18.17
-34.50
-48.32
-60.41
-75.73
-99.10
-133.21
-177.82
-231.05
-290.31
-352.05
-410.84
-441.49
-425.66
-361.69
-267.32
-168.06
-83.84
-23.42
14.48
36.92
51.45
60.30
62.58
57.32
46.09
32.77
21.75
16.15
16.99
22.95
29.19
30.94
26.14
16.37
5.58
-2.09
-3.71
1.85
13.14
27.19
40.55
51.23
59.27
66.28
74.14
84.39
98.03
115.39
135.31
155.59
173.21
184.47
185.57
173.72
148.25
111.54
68.49
24.67
-14.95
-47.16
-70.85
-86.60
-95.79
-99.75
-99.55
-95.28
-88.75
-83.21
-82.22
-87.94
-99.94
-115.00
-128.84
-138.17
-141.89
-140.59
-134.33
-120.96
-96.74
-59.35
-10.81
42.11
90.84
129.55
157.86
180.14
201.09
221.24
235.49
236.00
217.27
180.38
133.28
87.31
52.06
31.39
22.64
19.08
13.99
3.82
-10.75
-25.73
-36.46
-39.95
-36.11
-27.49
-17.55
-8.86
-2.24
2.86
7.28
11.27
14.53
17.24
20.77
28.11
42.77
66.82
98.92
133.33
160.77
171.24
158.09
121.02
66.87
7.50
-44.40
-79.71
-95.58
-95.40
-86.62
-77.34
-74.73
-84.25
-109.44
-151.52
-208.26
-273.51
-337.40
-388.46
-416.04
-414.68
-385.75
-336.25
-275.65
-212.50
-152.74
-99.42
-53.54
-13.52
22.30
55.15
85.68
114.28
141.18
166.51
190.84
215.37
243.34
276.28
312.08
344.83
367.04
372.78
360.34
333.05
287.06
226.58
161.40
102.64
57.17
25.88
5.91
-6.32
-13.67
-18.35
-20.44
-20.35
-19.02
-17.63
-16.63
-15.70
-14.50
-13.13
-12.77
-14.15
-18.70
-26.56
-37.97
-50.31
-58.88
-59.20
-49.61
-32.68
-14.03
-0.68
2.33
-5.99
-22.21
-41.04
-58.03
-71.18
-80.80
-87.52
-91.63
-92.88
-91.09
-86.60
-80.83
-75.38
-71.50
-69.41
-68.25
-66.67
-63.56
-59.05
-53.20
-47.14
-42.51
-40.70
-41.89
-44.65
-46.14
-43.13
-33.42
-16.79
4.59
27.11
47.23
62.98
74.30
82.44
89.09
95.83
104.04
114.67
127.40
139.67
146.75
142.46
121.64
83.47
33.35
-17.97
-58.51
-80.01
-81.38
-68.07
-49.82
-36.73
-35.64
-49.60
-77.56
-116.04
-159.95
-202.45
-233.44
-242.99
-225.81
-184.80
-131.58
-83.14
-56.02
-60.66
-98.05
-157.50
-223.07
-279.23
-314.10
-320.36
-294.75
-237.81
-153.68
-49.10
71.29
201.69
333.62
455.65
555.43
622.83
653.51
650.35
602.29
512.44
397.81
282.27
183.53
106.64
47.56
1.22
-34.91
-61.14
-74.48
-74.57
-65.57
-54.84
-48.51
-51.87
-66.43
-91.03
-122.36
-153.07
-175.37
-183.16
-173.63
-147.35
-108.07
-61.56
-14.80
26.70
59.13
80.78
92.36
95.76
92.65
83.08
65.54
37.77
-0.59
-45.97
-91.58
-129.79
-154.92
-164.71
-159.97
-142.74
-115.75
-81.11
-41.01
1.65
43.14
79.28
106.68
123.64
130.35
123.75
103.53
73.01
39.44
11.60
-3.96
-4.78
6.12
23.48
40.37
50.44
49.07
33.73
5.31
-31.40
-68.80
-97.93
-107.96
-93.38
-58.04
-14.11
25.40
53.62
71.01
81.13
87.78
93.47
97.04
96.61
91.25
81.95
70.95
59.97
47.88
32.92
15.20
-5.00
-27.05
-50.16
-73.36
-96.10
-119.21
-146.69
-181.11
-221.14
-261.76
-295.12
-313.55
-311.95
-290.22
-241.33
-172.31
-99.62
-39.65
-0.17
20.84
29.31
30.72
28.31
23.93
17.50
10.75
7.19
8.70
17.06
31.23
48.45
65.69
80.94
92.00
98.73
102.56
103.48
101.00
93.66
80.30
60.71
36.27
8.88
-18.19
-41.00
-56.14
-61.79
-59.67
-52.21
-42.67
-34.18
-29.16
-27.93
-28.66
-28.26
-24.06
-15.49
-4.23
6.32
12.67
12.60
6.19
-5.37
-19.06
-31.43
-40.12
-44.95
-48.57
-55.80
-71.98
-100.23
-139.17
-182.00
-218.45
-238.09
-233.68
-203.70
-152.16
-86.82
-16.52
50.85
109.51
155.73
187.52
204.49
207.61
198.91
180.93
156.24
127.23
96.59
67.08
41.18
20.58
5.83
-4.17
-12.13
-21.70
-35.84
-54.52
-74.27
-89.22
-93.09
-81.23
-52.03
-7.32
48.24
108.16
166.19
215.62
249.68
262.74
252.53
221.44
175.96
124.17
72.80
27.64
-7.99
-32.08
-43.15
-40.23
-23.99
1.90
31.05
57.22
80.42
106.00
141.39
190.94
251.95
314.52
365.26
393.10
379.38
320.12
227.68
126.01
37.78
-26.45
-69.02
-98.23
-121.44
-142.20
-158.86
-169.34
-173.13
-170.98
-162.79
-146.45
-119.10
-81.34
-38.35
1.85
29.26
35.81
19.03
-16.27
-59.72
-99.68
-127.81
-140.98
-139.58
-126.14
-103.44
-73.68
-38.97
-3.55
26.29
43.96
45.86
33.58
12.44
-11.02
-31.64
-46.89
-56.30
-59.67
-56.95
-47.09
-30.06
-8.42
12.44
25.96
27.08
14.38
-8.67
-34.83
-55.90
-65.54
-62.44
-51.34
-41.71
-44.99
-70.79
-123.42
-200.04
-290.46
-380.07
-453.88
-499.49
-510.01
-485.73
-433.27
-362.91
-285.41
-208.56
-136.98
-72.92
-15.29
38.55
89.87
137.04
176.59
204.69
220.46
225.73
223.70
221.00
225.08
240.53
267.30
302.61
341.94
381.45
416.00
437.65
441.47
426.38
394.23
349.03
297.99
239.05
174.68
120.75
80.81
51.36
33.41
29.73
41.17
67.01
102.78
141.84
175.00
186.06
166.88
121.18
68.62
19.24
-23.69
-61.84
-94.84
-122.35
-145.51
-163.63
-176.04
-184.51
-194.21
-209.32
-231.49
-258.33
-285.09
-306.68
-317.35
-313.55
-296.17
-270.96
-244.17
-220.45
-201.38
-186.42
-174.34
-163.11
-151.25
-138.45
-125.73
-113.20
-99.97
-84.66
-66.49
-45.98
-24.29
-3.06
16.09
31.76
43.82
53.11
60.90
68.31
75.77
82.82
88.26
90.77
89.51
84.82
78.08
71.06
65.55
62.45
61.24
60.13
57.05
50.86
42.01
32.42
24.59
21.20
23.69
31.47
42.08
52.28
59.58
62.89
62.33
58.82
54.93
54.64
62.42
81.46
111.92
149.91
187.88
216.82
223.90
202.40
156.73
101.80
54.72
25.55
13.88
12.18
11.60
7.35
-1.43
-12.60
-23.76
-34.17
-44.91
-57.50
-72.56
-89.14
-104.05
-114.19
-118.37
-118.07
-116.45
-115.93
-116.08
-113.77
-105.29
-89.63
-69.54
-49.96
-35.17
-26.27
-20.73
-14.24
-3.93
9.34
20.42
22.62
12.32
-7.97
-29.98
-43.02
-38.85
-15.27
22.53
63.07
92.63
100.73
83.73
44.93
-7.94
-65.91
-120.95
-162.75
-181.18
-171.85
-138.82
-92.00
-41.64
4.76
41.80
65.30
73.13
66.99
51.78
36.07
29.81
39.95
67.17
105.13
141.75
165.46
169.23
151.75
115.97
67.08
10.99
-45.22
-94.28
-129.93
-148.96
-153.44
-149.73
-144.17
-138.86
-132.54
-119.44
-96.98
-68.57
-42.40
-27.51
-28.85
-44.35
-65.96
-83.83
-90.14
-82.55
-63.42
-37.01
-6.74
26.28
62.95
104.32
147.65
187.62
216.72
228.12
218.85
191.39
153.16
113.58
80.07
55.12
36.32
18.69
-1.12
-21.62
-36.43
-37.54
-19.59
16.87
65.37
116.64
162.19
196.94
219.77
231.62
233.09
223.65
202.07
167.91
122.84
70.69
17.23
-30.34
-64.02
-76.56
-64.09
-29.08
18.43
62.63
86.77
79.54
39.98
-21.74
-88.07
-140.60
-166.75
-163.34
-136.10
-95.89
-53.32
-15.12
17.00
44.42
68.65
88.61
100.60
100.25
84.99
55.87
16.84
-27.21
-72.56
-117.21
-159.98
-198.97
-230.86
-251.90
-259.76
-255.11
-241.64
-224.57
-208.68
-196.92
-189.97
-186.96
-186.35
-186.58
-186.22
-183.96
-178.69
-169.87
-157.71
-143.24
-127.86
-112.70
-98.01
-83.16
-66.92
-48.33
-27.30
-4.78
17.49
37.55
53.89
65.81
73.46
77.57
79.06
78.69
77.15
75.01
72.69
70.42
68.15
65.55
62.27
57.94
52.39
45.97
39.15
32.03
24.10
14.48
2.29
-12.44
-28.87
-45.59
-60.35
-71.45
-78.52
-82.54
-84.90
-86.42
-85.70
-80.09
-66.99
-44.20
-12.09
25.75
63.55
95.81
119.15
134.53
145.37
155.58
169.74
190.94
219.60
253.30
287.55
316.44
335.93
343.74
330.71
293.62
237.62
174.77
117.13
74.73
41.91
11.08
-22.33
-58.59
-93.90
-121.81
-137.40
-139.92
-133.50
-126.24
-125.54
-136.05
-157.68
-183.76
-204.07
-209.07
-193.50
-157.81
-107.89
-51.57
2.86
48.39
81.24
100.45
106.71
101.32
86.18
63.92
39.23
17.46
3.15
-1.25
3.68
14.80
28.11
40.86
52.58
64.66
77.95
90.93
99.52
98.26
82.54
50.76
5.49
-46.68
-96.73
-135.98
-158.56
-163.08
-152.43
-132.05
-107.20
-80.98
-53.83
-24.87
6.17
37.45
64.69
82.34
85.51
71.82
42.61
3.03
-39.12
-75.35
-98.80
-106.08
-97.56
-76.61
-47.99
-16.48
13.84
39.70
58.43
68.12
67.79
57.98
40.73
19.00
-4.34
-27.51
-50.13
-72.79
-96.07
-119.62
-141.48
-158.28
-165.98
-161.23
-142.79
-112.47
-74.84
-35.99
-1.71
24.58
42.79
56.32
70.60
91.36
122.80
166.20
219.29
276.23
328.93
368.62
388.87
387.22
365.51
328.65
282.71
233.13
183.32
134.85
87.50
40.74
-6.71
-56.40
-109.11
-163.35
-214.90
-258.59
-290.59
-310.58
-319.58
-318.33
-305.58
-278.53
-235.46
-179.04
-117.95
-60.39
-17.30
5.89
13.07
15.17
23.09
41.34
67.86
96.88
123.23
143.42
157.13
163.70
161.33
148.69
126.40
98.14
69.61
47.57
37.09
44.01
67.63
98.76
123.71
130.23
116.15
87.02
53.67
27.47
15.82
21.97
41.08
64.22
83.88
97.95
109.06
121.15
134.42
143.05
136.68
105.77
47.54
-32.46
-123.24
-213.74
-296.13
-366.64
-424.16
-468.95
-501.55
-522.33
-531.64
-529.53
-515.53
-488.64
-448.22
-395.16
-332.34
-263.67
-191.98
-118.36
-43.01
32.22
101.81
156.76
187.81
190.11
167.10
130.39
94.98
72.86
68.06
75.88
86.63
93.33
92.74
87.79
85.51
91.61
106.27
124.34
139.30
147.23
148.35
145.57
142.52
141.15
140.64
138.59
132.93
123.40
111.59
100.34
92.21
88.61
89.04
91.19
91.98
88.78
80.52
68.48
54.69
42.24
34.21
32.34
36.13
42.96
49.21
51.72
48.76
40.62
29.45
18.23
9.73
5.76
7.15
13.87
25.16
39.07
53.20
65.52
74.77
80.52
82.96
82.56
79.67
75.03
68.17
58.91
47.75
35.43
22.03
6.69
-11.87
-34.31
-59.78
-87.60
-115.76
-141.57
-162.92
-179.28
-191.62
-201.44
-209.78
-216.80
-224.24
-233.02
-242.69
-251.80
-258.52
-261.14
-258.27
-249.08
-221.19
-171.44
-106.64
-40.23
15.38
54.10
76.15
85.32
86.51
84.15
79.42
72.84
65.27
57.65
50.61
44.19
38.30
33.22
29.96
28.52
28.87
32.97
42.25
56.14
71.29
82.12
82.86
69.88
42.47
4.46
-36.73
-73.01
-98.57
-111.40
-113.31
-108.29
-100.64
-94.22
-91.29
-92.50
-97.02
-103.52
-110.08
-114.51
-114.72
-109.10
-97.04
-78.72
-54.99
-27.41
1.80
30.02
54.50
73.00
84.22
88.14
85.82
78.80
68.27
54.48
36.79
14.23
-13.60
-45.51
-78.43
-108.06
-130.40
-143.66
-149.20
-150.98
-153.47
-159.16
-167.08
-172.94
-171.59
-159.64
-137.74
-110.73
-85.34
-66.95
-57.13
-53.40
-51.29
-47.28
-40.76
-33.62
-28.23
-25.04
-21.54
-13.24
3.88
31.14
66.35
105.01
142.37
175.23
202.53
224.49
241.47
253.10
258.53
256.96
248.61
235.02
218.77
202.93
189.83
180.52
174.49
170.01
164.83
156.95
145.10
128.92
108.87
86.02
61.85
37.92
15.46
-4.82
-22.73
-38.23
-50.86
-59.58
-63.05
-60.43
-52.13
-39.88
-26.11
-12.88
-1.04
9.84
20.71
32.08
43.48
53.65
61.30
65.77
67.26
66.46
64.06
60.50
56.15
51.62
47.77
45.49
45.04
45.89
46.94
47.23
46.48
45.18
44.03
43.20
41.89
38.44
31.07
18.66
1.57
-18.36
-38.02
-53.76
-62.24
-61.37
-50.87
-32.62
-10.41
10.97
27.05
35.01
34.55
27.98
19.34
12.77
10.79
13.03
16.09
14.44
2.28
-24.47
-66.90
-122.92
-188.05
-256.60
-322.55
-380.06
-423.59
-448.51
-452.05
-434.38
-399.29
-353.58
-305.15
-260.70
-223.80
-194.20
-168.68
-142.45
-110.54
-68.67
-13.55
56.40
140.09
232.85
326.50
411.06
477.52
520.60
540.16
540.47
527.92
508.44
485.93
462.16
437.55
412.11
385.72
357.88
327.47
293.08
253.74
209.88
163.60
118.01
76.40
41.02
12.63
-9.50
-27.02
-41.80
-55.35
-68.44
-81.13
-92.94
-103.24
-111.64
-118.20
-123.46
-128.13
-132.81
-137.63
-142.16
-145.49
-146.58
-144.62
-139.27
-130.72
-119.57
-106.61
-92.55
-78.02
-63.49
-49.39
-36.22
-24.53
-14.80
-7.29
-1.92
1.66
4.03
5.72
7.13
8.43
9.64
10.76
11.73
12.50
13.01
13.15
12.82
12.04
10.93
9.71
8.58
7.60
6.70
5.67
4.28
2.41
0.08
-2.48
-4.85
-6.47
-6.74
-5.21
-1.71
3.57
10.20
17.65
25.49
33.61
41.84
49.72
56.27
60.08
59.77
54.57
44.70
31.46
17.06
3.84
-6.43
-12.83
-15.44
-15.17
-13.42
-11.88
-12.15
-15.03
-20.72
-28.74
-38.05
-47.34
-55.41
-61.47
-65.47
-68.00
-69.04
-68.84
-67.87
-66.69
-65.57
-64.18
-61.58
-56.64
-48.68
-35.86
-17.89
3.63
25.80
45.83
62.50
76.49
89.61
103.66
122.83
149.56
184.01
224.23
266.99
309.02
347.81
381.93
411.29
440.95
474.67
512.23
548.49
575.40
586.26
579.03
557.21
501.46
405.19
273.83
124.51
-21.70
-148.89
-249.24
-321.43
-368.18
-394.68
-403.41
-398.02
-383.22
-364.04
-344.32
-325.38
-306.53
-286.90
-266.72
-244.69
-221.41
-199.00
-179.76
-165.70
-156.86
-152.02
-150.00
-150.99
-154.61
-161.42
-171.24
-184.14
-200.18
-218.29
-235.83
-248.54
-251.09
-237.68
-205.69
-158.15
-104.16
-56.42
-26.30
-19.30
-33.27
-59.97
-88.59
-110.61
-124.02
-129.56
-129.85
-126.72
-119.65
-106.33
-84.61
-54.05
-16.72
23.27
61.54
94.69
121.18
140.93
154.14
159.78
155.51
138.69
108.46
67.26
21.07
-21.91
-54.16
-71.94
-77.26
-76.51
-77.34
-84.85
-98.90
-114.22
-122.65
-116.78
-90.72
-45.69
11.31
70.08
120.99
157.84
178.91
186.24
183.83
176.00
165.65
154.57
143.46
131.72
117.20
96.17
64.06
17.45
-43.05
-111.76
-178.02
-229.43
-256.35
-255.89
-232.76
-197.33
-161.38
-133.58
-117.21
-110.05
-106.80
-102.29
-93.66
-80.52
-64.15
-46.08
-27.04
-7.12
13.79
35.09
55.07
71.45
83.02
90.19
94.95
99.93
106.76
115.14
122.68
125.94
122.38
112.70
100.51
90.91
87.99
92.80
102.93
113.63
119.76
114.23
94.59
64.23
31.53
5.31
-9.73
-14.39
-13.03
-10.55
-9.89
-10.68
-10.61
-7.46
-0.73
7.99
15.93
20.77
21.29
17.26
10.22
0.67
-10.71
-22.72
-33.17
-39.11
-37.85
-28.59
-13.22
3.21
15.04
18.95
14.85
5.16
-7.12
-19.89
-32.32
-44.34
-55.43
-64.03
-67.75
-64.64
-54.33
-38.94
-23.31
-12.69
-11.85
-22.89
-43.80
-68.30
-88.19
-95.31
-86.68
-64.98
-36.62
-8.61
14.48
31.86
45.33
57.00
67.54
75.56
78.95
76.45
68.30
56.49
43.52
31.85
22.96
16.93
12.48
7.96
2.24
-4.70
-11.72
-16.79
-17.76
-13.55
-4.88
5.52
13.99
17.07
12.88
1.73
-14.21
-31.94
-48.97
-63.48
-74.03
-78.60
-74.68
-60.91
-38.65
-12.93
9.17
21.75
23.29
17.00
8.67
3.41
2.42
2.29
-2.26
-13.69
-28.29
-36.85
-29.44
-1.40
43.06
92.33
132.44
152.99
150.69
128.74
93.53
51.31
6.96
-35.40
-71.02
-93.66
-96.66
-75.49
-30.98
29.27
92.59
144.97
175.81
180.79
161.85
124.82
76.62
23.09
-31.00
-80.39
-118.49
-138.58
-136.51
-113.56
-76.90
-37.07
-4.21
15.06
18.32
5.58
-21.79
-61.04
-106.46
-148.31
-174.05
-172.54
-139.00
-78.03
-2.92
69.27
122.98
148.28
142.07
106.87
49.59
-18.67
-83.35
-129.19
-144.39
-125.51
-79.47
-21.30
31.76
66.22
77.17
67.60
43.88
11.44
-26.12
-64.87
-97.95
-116.34
-112.79
-85.23
-39.50
12.13
55.40
80.13
83.20
67.44
37.85
-1.48
-45.83
-88.56
-120.94
-134.43
-123.55
-89.01
-38.23
21.30
74.73
108.07
116.47
105.74
85.78
64.76
46.56
32.65
23.54
18.60
17.22
16.49
13.80
5.90
-9.08
-30.01
-52.61
-71.72
-84.45
-90.36
-91.42
-90.87
-92.19
-95.13
-98.84
-101.48
-101.54
-99.01
-94.32
-87.73
-79.01
-68.15
-55.37
-41.79
-28.96
-18.70
-12.68
-11.19
-12.93
-15.40
-15.95
-12.45
-3.86
9.71
26.84
45.16
62.31
76.81
88.53
98.39
107.73
117.76
128.70
139.47
147.95
151.91
149.92
141.67
127.83
109.55
88.94
68.15
48.65
31.01
15.02
0.22
-13.85
-27.66
-41.34
-53.03
-60.01
-59.91
-52.15
-38.47
-22.31
-7.61
2.55
7.40
10.93
19.50
38.93
71.61
115.31
164.53
212.73
254.03
273.43
260.75
215.60
149.09
76.42
8.35
-51.06
-101.55
-143.62
-176.67
-197.57
-203.63
-195.12
-175.26
-149.85
-124.97
-104.37
-89.03
-77.80
-67.16
-53.45
-32.99
-3.85
33.69
75.35
115.65
147.95
165.91
166.80
147.15
111.38
70.20
35.42
13.88
4.98
2.70
0.78
-3.02
-7.07
-7.25
-1.17
9.92
21.93
30.66
33.22
28.44
17.69
1.83
-16.94
-35.59
-51.00
-60.26
-61.12
-52.50
-36.90
-20.27
-9.83
-10.46
-23.09
-44.66
-69.13
-89.27
-99.41
-97.29
-85.81
-71.95
-64.02
-66.21
-78.93
-98.25
-117.70
-130.93
-132.56
-119.46
-90.33
-45.41
12.62
76.89
136.94
181.02
196.29
179.96
140.02
91.39
49.23
23.17
14.57
18.91
29.41
40.31
49.05
54.65
56.71
54.70
48.87
39.12
26.49
12.57
-1.38
-13.93
-25.80
-38.24
-52.58
-69.30
-87.66
-105.24
-118.98
-125.87
-123.37
-112.72
-97.37
-82.28
-71.53
-66.21
-63.56
-59.22
-49.17
-29.67
-2.63
27.74
56.44
80.40
99.93
118.05
136.83
151.99
165.98
172.85
168.01
149.40
118.63
80.29
40.33
2.56
-30.82
-58.37
-78.71
-88.27
-85.90
-74.41
-61.53
-45.79
-21.62
17.99
78.19
154.82
236.59
307.45
352.76
365.02
346.08
305.02
255.59
209.00
168.96
133.79
98.91
61.06
20.10
-22.95
-67.79
-114.15
-156.03
-187.90
-206.47
-213.35
-212.40
-205.56
-193.34
-186.03
-180.40
-174.27
-168.83
-166.51
-169.87
-180.71
-190.06
-193.81
-189.98
-176.88
-156.23
-132.38
-110.10
-93.93
-86.40
-88.34
-101.20
-125.68
-160.14
-202.28
-247.88
-289.51
-319.48
-330.64
-319.67
-289.65
-247.51
-200.52
-154.86
-113.54
-75.67
-40.55
-7.09
24.46
52.23
75.11
94.12
111.56
130.01
152.01
175.90
199.11
218.24
230.10
233.31
228.78
218.88
199.89
182.61
166.96
152.94
139.91
127.19
114.74
103.46
95.01
91.15
94.40
104.35
121.04
143.68
170.49
198.45
223.32
240.50
246.26
240.19
223.47
201.33
180.50
167.17
164.98
174.13
191.81
213.51
235.34
253.76
267.67
277.01
281.63
279.68
267.36
240.05
194.60
131.88
56.67
-22.75
-97.58
-160.96
-209.92
-245.38
-270.70
-290.23
-308.39
-330.12
-360.67
-404.64
-463.62
-534.82
-610.82
-681.40
-736.92
-771.42
-784.15
-778.55
-759.67
-730.05
-690.06
-639.14
-577.62
-507.88
-433.84
-359.86
-289.51
-225.02
-164.71
-106.94
-51.87
-1.93
39.39
69.80
89.32
100.26
106.28
115.87
136.15
170.31
216.79
271.32
329.87
390.42
452.77
517.60
591.24
677.91
776.73
880.87
980.37
1066.04
1131.82
1174.98
1158.13
1059.12
879.33
646.79
400.93
173.49
-19.59
-175.10
-296.69
-390.16
-455.46
-492.87
-505.48
-500.82
-487.86
-473.79
-462.63
-455.70
-452.33
-446.59
-433.35
-410.63
-380.47
-347.24
-314.99
-285.89
-262.46
-245.66
-232.91
-221.77
-211.32
-202.61
-197.64
-197.76
-202.96
-211.92
-222.30
-230.15
-232.07
-226.18
-212.44
-192.10
-166.94
-138.61
-108.42
-76.90
-43.79
-8.71
28.15
65.82
102.58
136.43
165.54
188.47
204.59
213.88
217.01
215.26
210.60
205.48
202.24
202.14
204.50
206.73
205.37
197.78
183.04
162.09
137.20
111.12
86.66
66.36
52.07
44.74
44.63
50.20
58.57
66.82
73.60
80.00
89.04
103.95
127.05
160.30
202.70
249.72
293.70
325.66
338.80
331.69
309.10
281.99
265.85
272.21
304.51
357.01
417.73
473.72
515.12
535.90
535.66
520.96
499.30
477.34
459.33
446.83
439.62
436.25
433.13
403.34
330.35
211.52
62.20
-91.54
-227.00
-333.09
-402.25
-444.70
-467.55
-468.88
-444.79
-394.24
-322.63
-244.53
-176.42
-132.55
-122.22
-144.16
-186.43
-234.20
-275.37
-304.61
-323.22
-335.16
-343.81
-351.64
-356.95
-355.16
-343.10
-320.39
-289.28
-252.97
-213.38
-169.22
-122.82
-78.46
-40.89
-13.54
2.88
9.60
8.30
0.80
-11.50
-28.61
-49.69
-73.37
-97.68
-120.99
-142.30
-160.92
-175.44
-180.58
-174.29
-156.64
-130.20
-98.68
-66.09
-35.73
-9.49
12.32
31.15
47.75
63.03
77.68
92.79
108.93
125.62
138.97
146.19
145.38
136.09
121.81
102.67
77.84
46.59
9.30
-31.59
-71.30
-106.41
-133.13
-147.90
-149.80
-140.60
-124.57
-106.61
-91.30
-76.19
-58.02
-34.15
-3.36
32.79
71.20
107.87
137.46
155.93
168.08
176.92
178.98
169.37
142.98
98.15
38.75
-27.04
-89.19
-135.95
-159.69
-158.30
-134.66
-96.69
-57.00
-23.71
-1.39
9.85
14.78
19.75
29.09
44.70
63.54
78.86
84.10
76.19
57.58
34.31
11.76
-8.50
-26.56
-42.66
-55.29
-60.72
-55.10
-36.38
-5.93
31.76
70.00
104.47
134.11
159.99
181.02
193.85
194.35
179.45
153.90
118.96
75.45
24.45
-32.59
-91.72
-147.78
-194.93
-228.78
-242.70
-234.67
-207.01
-166.41
-121.89
-81.29
-51.97
-33.28
-22.59
-17.11
-15.54
-16.14
-15.80
-11.91
-3.10
9.70
23.29
32.14
30.70
15.40
-12.52
-46.87
-78.67
-99.05
-102.16
-86.10
-53.10
-7.34
46.09
102.56
157.51
205.63
241.68
262.07
267.13
261.55
252.61
246.74
246.59
249.52
248.52
236.31
209.01
168.40
121.37
75.49
36.21
5.45
-18.37
-39.57
-62.60
-91.21
-127.96
-172.95
-226.02
-284.73
-342.87
-390.84
-418.93
-419.74
-392.17
-342.90
-283.02
-227.32
-187.71
-168.64
-158.90
-145.41
-117.40
-72.46
-26.40
12.08
37.80
49.06
49.45
41.77
27.76
9.59
-9.42
-25.28
-27.34
-10.57
22.11
61.31
96.79
122.69
139.16
148.99
152.70
148.44
131.29
97.82
49.65
-6.24
-60.31
-104.09
-127.37
-126.71
-104.82
-69.97
-30.96
6.53
40.62
71.25
98.11
119.89
134.04
139.44
136.63
128.08
117.48
108.20
102.31
100.37
101.81
104.86
107.90
109.84
110.29
108.96
105.50
99.52
90.88
79.97
67.17
52.75
37.32
21.29
4.58
-13.35
-33.40
-56.43
-82.49
-110.31
-137.41
-159.50
-172.18
-172.82
-162.30
-145.35
-129.43
-122.40
-125.68
-139.68
-160.85
-182.72
-198.57
-204.21
-199.33
-186.66
-169.75
-150.67
-129.77
-105.93
-78.72
-49.61
-21.82
1.95
21.71
40.78
64.07
94.61
131.60
169.90
202.34
222.66
227.77
218.36
197.83
170.79
141.61
113.95
90.56
73.31
62.77
58.38
58.90
62.33
65.76
67.98
68.33
64.88
56.47
42.93
24.74
2.35
-24.15
-54.65
-87.23
-116.87
-136.04
-137.79
-120.35
-89.07
-54.27
-25.85
-8.30
1.22
10.35
26.44
52.06
82.73
108.38
118.96
110.87
88.56
60.35
32.96
8.92
-12.07
-30.93
-47.54
-61.40
-70.36
-72.66
-68.47
-59.77
-49.71
-41.28
-36.36
-35.32
-34.99
-32.08
-24.24
-13.25
-2.66
2.62
-1.46
-16.00
-37.88
-60.53
-76.30
-78.26
-65.01
-42.17
-19.95
-7.32
-7.33
-16.68
-28.68
-37.40
-40.56
-38.40
-31.96
-22.11
-9.37
5.28
19.83
31.50
37.69
36.12
27.02
12.67
-3.57
-18.35
-29.18
-34.77
-35.17
-31.68
-26.12
-19.76
-13.43
-7.50
-1.91
3.63
9.46
15.28
19.87
22.00
21.87
21.54
24.58
35.01
55.67
86.75
124.36
161.25
185.60
188.18
166.27
125.05
75.40
29.46
-2.76
-13.73
-3.03
26.71
70.30
119.66
164.43
195.00
201.92
183.22
143.82
92.82
40.33
-7.44
-45.08
-70.05
-85.40
-94.88
-100.83
-104.86
-108.30
-111.97
-116.03
-119.83
-122.68
-124.06
-123.39
-120.21
-114.90
-108.73
-103.04
-98.76
-95.85
-93.94
-92.41
-90.39
-87.12
-82.53
-77.25
-72.12
-67.84
-64.63
-62.42
-60.95
-59.65
-58.00
-55.89
-53.67
-52.01
-51.71
-53.35
-57.13
-62.54
-68.13
-71.72
-70.97
-64.16
-50.74
-31.60
-8.67
15.58
39.00
60.34
79.51
97.26
114.70
132.65
151.24
169.91
187.42
202.09
212.08
216.00
213.34
204.59
191.20
175.23
159.07
144.61
132.59
122.07
111.24
98.03
80.89
59.39
34.44
8.56
-15.52
-35.91
-52.84
-67.34
-80.65
-93.46
-105.73
-116.76
-124.76
-128.25
-126.58
-121.01
-112.39
-101.16
-87.29
-70.84
-51.79
-28.69
0.20
35.83
75.97
117.25
155.12
185.12
203.89
204.66
185.11
148.11
108.64
74.17
48.04
29.68
19.92
19.02
25.25
35.10
43.05
43.38
31.21
6.66
-25.84
-59.72
-89.51
-112.62
-128.80
-139.88
-148.37
-157.22
-167.17
-176.88
-183.53
-184.03
-175.99
-158.04
-131.01
-98.04
-64.77
-36.78
-17.75
-9.73
-11.78
-19.61
-26.82
-27.27
-17.18
3.48
31.55
61.43
86.48
101.17
103.01
93.74
78.51
63.95
55.34
55.79
63.86
75.72
86.83
93.48
93.84
88.30
79.28
69.92
61.60
56.08
52.36
46.64
34.18
11.81
-20.26
-57.80
-94.44
-123.77
-141.68
-147.81
-144.90
-137.11
-128.15
-121.26
-115.64
-109.71
-102.33
-92.96
-81.91
-69.65
-56.29
-41.61
-25.53
-8.24
9.03
24.38
35.86
41.68
41.01
34.53
24.57
14.71
8.65
8.59
14.25
23.40
32.31
38.06
39.56
37.75
34.40
29.83
23.70
15.74
7.35
1.49
1.39
8.35
20.57
33.59
42.68
45.33
42.14
36.73
33.30
34.89
42.32
54.65
69.75
85.34
100.85
113.45
120.08
117.90
105.96
86.26
63.89
44.95
34.49
34.65
42.44
52.84
59.00
54.94
37.61
8.02
-29.89
-70.23
-106.92
-135.70
-154.46
-163.64
-165.00
-162.31
-156.00
-146.54
-135.23
-124.33
-116.45
-112.71
-111.85
-110.22
-103.49
-88.82
-67.25
-43.22
-22.62
-10.36
-8.26
-14.87
-26.32
-38.00
-45.50
-45.83
-37.34
-19.60
5.50
33.62
58.66
74.86
79.22
73.05
61.33
50.39
45.04
46.40
51.99
57.55
59.60
57.10
51.62
46.11
43.34
44.87
50.73
60.04
71.63
84.52
97.89
110.90
122.24
130.12
132.72
128.82
118.46
103.12
85.21
67.11
50.28
34.75
19.42
2.91
-15.66
-36.24
-58.10
-80.22
-101.62
-121.22
-137.80
-149.94
-156.20
-155.55
-147.85
-133.92
-115.30
-93.70
-70.59
-47.44
-25.81
-7.16
7.53
18.09
25.28
30.55
35.54
41.53
48.46
55.11
59.89
61.89
61.56
60.66
61.64
66.65
76.65
89.99
102.49
108.81
104.53
87.80
60.15
25.96
-9.98
-40.03
-57.28
-59.11
-48.64
-32.32
-16.27
-4.08
2.94
6.10
8.20
11.28
16.24
23.01
30.96
39.23
47.04
53.53
58.77
64.32
71.75
81.36
90.87
95.59
89.63
67.78
27.17
-29.29
-92.56
-150.46
-191.57
-209.31
-203.67
-180.42
-142.45
-97.94
-55.87
-21.55
4.60
24.32
36.86
38.41
24.41
-7.18
-54.52
-110.35
-164.02
-208.28
-236.52
-245.85
-237.06
-214.04
-183.13
-152.21
-127.85
-113.69
-109.98
-113.43
-119.12
-121.85
-115.40
-96.60
-66.30
-28.30
11.74
47.79
75.24
91.57
97.33
96.08
93.23
94.32
103.41
121.60
146.62
173.91
198.02
214.46
220.46
214.69
196.76
167.20
127.92
82.79
37.75
-0.44
-26.09
-36.44
-32.80
-19.85
-4.01
8.35
12.22
4.74
-14.51
-43.08
-75.69
-104.91
-122.66
-122.69
-102.73
-65.85
-19.74
25.52
60.77
80.45
83.92
74.86
59.48
43.94
32.61
27.54
28.99
36.71
50.19
68.60
90.25
112.29
130.74
141.59
141.97
131.20
111.51
86.66
60.57
36.31
15.72
-0.27
-10.96
-15.34
-12.24
-0.39
18.93
40.75
57.51
62.37
52.87
32.94
11.54
-1.20
2.31
22.71
53.79
85.98
110.92
123.92
123.85
111.30
81.10
33.40
-24.77
-81.33
-125.09
-150.62
-159.47
-157.79
-152.59
-149.02
-148.03
-148.18
-147.25
-144.27
-137.31
-124.30
-103.83
-76.42
-45.46
-16.45
3.80
9.71
-0.83
-25.17
-57.33
-90.76
-120.96
-145.46
-163.76
-176.94
-186.53
-193.73
-199.00
-202.20
-202.61
-198.97
-189.74
-173.85
-151.72
-125.75
-99.57
-76.65
-59.06
-46.94
-39.09
-34.18
-31.79
-32.63
-37.82
-47.89
-62.10
-78.44
-94.01
-105.70
-110.73
-107.16
-93.90
-70.98
-39.63
-2.48
36.73
74.00
106.06
131.16
149.19
161.17
168.57
172.74
174.85
176.03
177.55
180.70
186.28
194.21
203.47
212.61
220.34
226.15
230.31
233.43
235.98
238.09
239.59
240.39
240.43
239.58
237.18
231.80
221.13
202.51
173.76
134.30
86.06
33.63
-16.64
-58.54
-88.18
-105.39
-113.83
-119.38
-127.70
-141.79
-160.84
-180.65
-195.46
-200.30
-192.64
-173.00
-144.17
-110.13
-75.00
-42.61
-16.29
1.37
9.11
7.88
1.06
-6.13
-8.22
-1.27
16.01
42.05
73.12
104.41
131.13
149.46
157.53
155.92
147.49
136.24
125.39
115.73
105.28
90.65
69.37
41.76
11.29
-16.97
-38.60
-51.65
-56.98
-57.20
-55.04
-52.13
-48.67
-43.93
-37.34
-29.06
-20.10
-12.01
-6.09
-3.00
-2.20
-2.02
-0.14
5.60
15.97
29.59
42.85
51.06
50.38
39.82
22.18
3.28
-10.49
-14.96
-10.04
0.36
10.41
15.19
12.98
5.69
-2.43
-6.94
-5.10
3.35
16.55
31.50
44.73
52.96
53.49
44.79
27.45
4.51
-18.98
-37.71
-48.44
-51.69
-51.66
-54.13
-63.42
-79.96
-99.78
-116.33
-123.53
-118.46
-102.35
-79.45
-54.80
-32.06
-12.71
3.33
16.48
26.45
32.41
34.05
32.76
31.94
36.07
48.57
69.71
95.62
119.19
132.55
130.07
110.49
77.41
38.14
1.33
-25.42
-37.63
-34.79
-20.23
-0.22
17.75
26.85
22.73
4.61
-24.91
-60.84
-97.22
-128.25
-149.01
-155.97
-147.46
-124.35
-90.14
-50.64
-12.58
18.16
38.14
47.13
47.77
44.46
41.82
43.31
50.17
61.19
73.22
82.56
86.42
84.22
77.70
69.94
63.91
60.88
59.97
58.81
55.14
48.13
38.86
29.58
20.57
11.95
3.58
-4.58
-12.35
-19.58
-26.86
-36.07
-49.99
-71.43
-101.48
-138.29
-177.62
-214.42
-244.68
-266.72
-281.12
-289.71
-290.24
-281.76
-263.87
-237.18
-203.88
-167.91
-134.19
-107.36
-90.35
-83.21
-83.49
-86.25
-85.72
-77.24
-58.56
-30.44
3.80
39.48
71.72
95.80
108.31
107.41
93.34
68.74
38.43
8.30
-16.26
-31.90
-38.14
-36.42
-29.01
-18.05
-5.41
6.83
15.96
19.32
15.55
5.84
-5.72
-13.52
-13.00
-2.71
15.09
35.82
54.97
70.14
81.69
91.95
103.42
117.15
132.04
145.43
154.35
156.91
152.95
143.89
131.68
117.92
103.29
87.88
71.90
56.24
42.34
31.31
23.11
16.33
8.93
-0.52
-11.81
-22.92
-31.00
-33.71
-30.32
-22.05
-11.56
-1.87
4.54
6.25
3.11
-4.09
-13.84
-24.25
-33.45
-39.92
-42.77
-41.85
-37.61
-30.84
-22.51
-13.43
-4.07
5.39
15.02
24.84
34.56
43.54
50.80
55.29
56.28
53.61
47.90
40.38
32.69
26.26
21.96
19.83
19.05
18.28
16.07
11.38
3.87
-5.91
-16.71
-26.97
-35.32
-41.04
-44.23
-45.71
-46.69
-48.32
-51.34
-55.92
-61.68
-67.83
-73.29
-76.89
-77.46
-74.17
-66.70
-55.39
-41.07
-24.86
-7.84
9.08
25.24
40.19
53.61
65.30
75.23
83.56
90.55
96.30
100.57
102.78
102.38
99.11
93.39
86.46
80.09
76.01
75.19
77.32
80.85
84.12
85.77
85.28
83.13
80.40
78.47
78.42
80.73
85.12
91.46
98.21
101.63
96.07
75.66
37.51
-15.84
-76.20
-132.09
-171.29
-186.67
-178.59
-153.83
-121.56
-88.27
-55.70
-22.08
14.60
56.15
101.59
148.29
193.75
236.69
277.61
317.14
354.25
371.66
354.81
297.70
208.40
106.19
11.40
-62.61
-112.23
-141.55
-158.15
-167.17
-171.46
-171.60
-165.94
-156.07
-144.45
-133.76
-126.48
-124.08
-124.97
-126.07
-123.82
-115.70
-101.31
-81.66
-58.62
-35.70
-15.77
0.11
12.14
21.51
29.62
37.15
44.48
51.63
58.29
64.30
69.54
73.61
75.44
73.38
65.88
53.06
37.44
23.08
14.12
11.98
15.27
20.65
24.62
24.91
20.83
12.45
-0.65
-19.28
-44.93
-76.90
-111.35
-142.21
-163.72
-173.02
-171.12
-162.26
-151.10
-142.41
-138.18
-137.21
-136.14
-131.10
-119.11
-98.93
-71.91
-34.62
9.82
53.21
86.03
102.94
105.06
98.06
88.46
77.73
67.01
55.38
42.35
28.69
15.87
4.82
-5.30
-13.33
-20.47
-27.60
-36.14
-46.42
-57.71
-68.68
-78.09
-85.28
-89.95
-92.53
-92.92
-91.59
-88.93
-85.12
-80.31
-74.83
-69.29
-64.42
-61.19
-59.87
-60.48
-62.42
-64.46
-65.08
-62.93
-57.21
-47.88
-35.64
-21.25
-5.52
10.96
27.68
43.99
58.84
70.96
79.20
82.90
82.37
78.63
73.07
66.84
60.57
54.32
47.83
40.90
33.59
26.25
19.30
13.05
7.52
2.57
-1.94
-6.05
-9.75
-13.08
-16.28
-19.78
-24.03
-29.29
-35.61
-42.87
-50.95
-59.68
-68.73
-77.32
-84.26
-88.14
-87.92
-83.34
-75.11
-64.58
-53.11
-41.52
-29.81
-17.39
-3.58
11.85
28.35
44.58
58.79
69.35
75.28
76.65
74.59
71.00
67.90
66.82
68.37
72.18
77.18
82.07
85.68
87.22
86.23
82.58
76.45
68.39
59.30
50.20
41.90
34.69
28.18
21.47
13.58
3.94
-7.28
-19.13
-30.15
-38.83
-44.07
-45.47
-43.33
-38.42
-31.67
-23.86
-15.43
-6.50
2.92
12.82
22.89
32.56
41.05
47.55
51.36
52.05
49.54
44.10
36.30
27.01
17.32
8.40
1.21
-3.65
-6.19
-6.97
-6.97
-7.20
-8.50
-11.25
-15.41
-20.58
-26.18
-31.66
-36.63
-40.98
-44.83
-48.54
-52.44
-56.72
-61.18
-65.21
-67.90
-68.28
-65.58
-59.54
-50.49
-39.19
-26.61
-13.69
-1.08
10.78
21.65
31.31
39.52
46.03
50.58
52.99
53.25
51.53
48.20
43.84
39.12
34.66
30.90
27.99
25.76
23.91
22.05
19.88
17.21
13.94
10.09
5.82
1.43
-2.65
-6.03
-8.58
-10.58
-12.73
-15.86
-20.51
-26.55
-33.00
-38.28
-40.70
-39.13
-33.35
-24.12
-12.79
-0.78
10.78
21.12
29.66
35.87
39.22
39.57
37.33
33.65
29.99
27.48
26.45
26.27
25.80
24.07
20.82
16.65
12.57
9.43
7.41
6.04
4.59
2.60
0.09
-2.39
-4.32
-5.50
-6.33
-7.51
-9.77
-13.50
-18.67
-24.92
-31.68
-38.17
-43.41
-46.21
-45.29
-39.75
-29.49
-15.39
0.80
16.97
31.20
42.24
49.65
53.67
55.03
54.66
53.42
51.97
50.68
49.58
48.32
46.34
42.94
37.52
29.73
19.65
7.79
-4.92
-17.45
-28.89
-38.68
-46.76
-53.38
-58.88
-63.51
-67.29
-70.15
-72.12
-73.53
-74.97
-77.11
-80.35
-84.54
-88.79
-91.68
-91.68
-87.63
-79.08
-66.42
-50.68
-33.19
-15.17
2.43
18.96
33.97
47.07
57.88
66.11
71.67
74.71
75.61
74.80
72.64
69.24
64.55
58.40
50.73
41.69
31.76
21.49
11.38
1.54
-8.30
-18.57
-29.59
-41.18
-52.62
-62.81
-70.65
-75.50
-77.43
-77.15
-75.82
-74.64
-74.46
-75.54
-77.39
-78.93
-78.77
-75.68
-69.03
-58.98
-46.34
-32.19
-17.52
-3.04
10.87
23.95
35.86
46.17
54.38
60.16
63.44
64.47
63.69
61.59
58.60
55.00
50.95
46.58
42.03
37.52
33.39
29.90
27.18
25.15
23.48
21.80
19.82
17.46
14.74
11.68
8.12
3.77
-1.69
-8.40
-16.25
-24.94
-34.07
-43.19
-51.81
-59.29
-64.78
-67.36
-66.29
-61.24
-52.49
-40.83
-27.40
-13.38
0.25
12.79
23.85
33.23
40.79
46.30
49.49
50.10
48.14
43.94
38.10
31.38
24.45
17.72
11.33
5.27
-0.63
-6.64
-13.14
-20.52
-29.03
-38.51
-48.34
-57.53
-65.14
-70.65
-74.21
-76.58
-78.76
-81.58
-85.32
-89.57
-93.35
-95.43
-94.75
-90.72
-83.29
-72.88
-60.11
-45.51
-29.31
-11.48
8.11
29.34
51.65
73.93
94.68
112.31
125.44
133.27
135.80
133.73
128.32
121.02
113.10
105.38
98.20
91.45
84.68
77.33
68.87
58.93
47.51
35.00
22.16
9.90
-0.97
-10.00
-17.19
-23.01
-28.28
-34.02
-41.14
-50.25
-61.24
-73.19
-84.43
-92.92
-96.84
-95.13
-87.82
-75.89
-60.89
-44.50
-28.09
-12.65
1.25
13.34
23.56
31.93
38.49
43.16
45.74
46.08
44.29
40.94
37.05
33.71
31.66
30.97
30.96
30.61
29.14
26.27
22.44
18.41
14.93
12.41
10.84
9.92
9.18
8.13
6.24
2.95
-2.23
-9.57
-18.82
-29.11
-38.91
-46.42
-49.95
-48.44
-41.69
-30.43
-16.08
-0.40
14.93
28.59
39.79
48.29
54.22
57.94
59.80
60.01
58.71
55.98
52.04
47.30
42.26
37.42
33.12
29.49
26.56
24.25
22.34
20.48
18.15
14.74
9.76
3.04
-5.22
-14.52
-24.32
-34.23
-44.10
-54.01
-64.09
-74.24
-84.08
-92.87
-99.64
-103.41
-103.33
-98.86
-89.88
-76.61
-59.56
-39.38
-16.84
7.24
31.86
55.86
78.01
97.15
112.34
123.01
129.02
130.66
128.54
123.47
116.40
108.28
100.01
92.37
85.87
80.73
76.78
73.45
69.80
64.61
56.71
45.32
30.31
12.41
-7.00
-26.29
-44.12
-59.79
-73.40
-85.70
-97.65
-109.94
-122.55
-134.57
-144.30
-149.69
-148.91
-141.08
-126.67
-107.61
-86.78
-67.14
-50.80
-38.28
-28.61
-19.90
-10.29
1.24
14.67
29.14
43.51
56.65
67.68
75.75
80.27
81.14
79.11
75.67
72.45
70.33
68.75
65.91
59.65
48.79
33.97
17.54
2.53
-8.74
-15.66
-19.31
-21.65
-24.42
-28.45
-33.62
-39.39
-45.30
-51.19
-56.87
-61.63
-64.14
-62.88
-57.03
-47.20
-35.38
-24.17
-15.60
-10.11
-6.52
-2.63
3.60
13.10
25.42
38.97
51.75
61.95
68.36
70.58
68.84
64.00
57.26
49.95
43.27
38.06
34.58
32.57
31.25
29.47
26.16
20.57
12.67
3.30
-6.11
-14.06
-19.65
-23.13
-26.07
-30.74
-39.24
-52.40
-69.17
-86.67
-101.04
-108.75
-107.83
-98.52
-82.88
-63.92
-44.45
-26.26
-10.03
4.25
16.72
27.23
35.45
41.23
44.92
47.35
49.51
51.90
54.26
55.53
54.45
50.17
42.85
33.60
24.02
15.59
9.12
4.62
1.57
-0.77
-2.97
-5.29
-7.68
-9.79
-11.19
-11.53
-10.82
-9.51
-8.52
-8.89
-11.44
-16.50
-23.83
-32.72
-42.13
-50.88
-57.83
-62.27
-64.08
-63.88
-62.68
-61.27
-59.70
-57.15
-52.36
-44.33
-32.84
-18.64
-2.92
13.22
29.09
44.32
58.71
71.95
83.69
93.76
102.18
108.95
113.80
115.85
113.79
106.40
93.27
75.59
56.45
40.58
33.32
39.18
60.17
94.44
135.90
175.06
201.23
205.74
184.67
140.39
80.89
17.28
-39.60
-82.13
-107.22
-115.95
-111.99
-99.83
-83.44
-65.76
-48.91
-34.43
-23.53
-16.95
-14.69
-15.72
-18.09
-19.50
-18.09
-13.34
-6.38
0.41
4.63
5.04
2.30
-1.50
-3.91
-3.43
-0.23
4.19
7.87
9.41
8.51
5.89
2.73
-0.02
-1.97
-3.38
-4.95
-7.50
-11.74
-18.09
-26.59
-36.89
-48.34
-60.13
-71.61
-82.21
-91.52
-99.03
-104.02
-105.67
-103.26
-96.56
-86.00
-72.63
-57.79
-42.77
-28.49
-15.54
-4.22
5.27
12.71
17.87
20.56
20.71
18.41
13.98
7.98
1.16
-5.70
-11.98
-17.44
-22.14
-26.39
-30.45
-34.42
-38.22
-41.74
-44.98
-48.05
-51.10
-54.00
-56.29
-57.37
-56.97
-55.57
-54.52
-55.53
-59.79
-67.01
-74.95
-79.87
-77.73
-65.62
-42.87
-11.22
25.87
64.44
101.06
133.48
160.61
182.08
197.90
208.08
212.66
211.82
205.92
195.60
181.54
164.36
144.57
122.62
99.08
74.68
50.44
27.49
6.87
-10.69
-25.04
-36.55
-45.96
-54.19
-61.97
-69.71
-77.47
-85.04
-92.13
-98.56
-104.34
-109.57
-114.45
-119.15
-123.87
-128.88
-134.55
-141.10
-148.36
-155.44
-160.75
-162.37
-158.64
-148.84
-133.36
-113.60
-91.38
-68.37
-45.64
-23.75
-2.90
16.61
34.29
49.38
61.12
69.01
72.96
73.36
70.93
66.61
61.32
55.82
50.60
45.82
41.46
37.41
33.62
30.10
26.87
23.79
20.54
16.62
11.60
5.28
-2.18
-10.32
-18.58
-26.56
-34.13
-41.46
-48.92
-56.92
-65.76
-75.41
-85.28
-94.17
-100.36
-102.02
-97.80
-87.29
-71.24
-51.35
-29.71
-8.33
11.25
28.09
41.79
52.36
60.26
66.29
71.39
76.33
81.56
87.05
92.42
97.20
100.92
103.20
103.81
102.73
100.26
97.16
94.41
92.79
92.43
92.59
91.86
88.88
82.91
74.22
63.76
52.52
40.86
28.27
13.65
-3.97
-24.71
-47.47
-70.11
-90.08
-105.07
-113.53
-114.87
-109.32
-97.77
-81.57
-62.40
-42.09
-22.30
-4.15
11.94
26.26
39.29
51.27
61.95
70.59
76.44
79.19
79.07
76.74
72.90
68.16
63.05
58.16
54.15
51.48
50.04
48.99
47.02
42.98
36.51
28.18
19.19
10.66
3.11
-3.68
-10.27
-17.18
-24.54
-32.25
-40.34
-49.09
-58.98
-70.14
-82.04
-93.22
-101.64
-105.30
-102.91
-94.31
-80.43
-62.99
-43.84
-24.53
-6.14
10.80
26.04
39.42
50.77
59.87
66.48
70.44
71.74
70.62
67.49
62.95
57.59
51.88
46.11
40.45
34.99
29.90
25.35
21.42
17.97
14.58
10.67
5.74
-0.34
-7.28
-14.49
-21.31
-27.31
-32.45
-37.05
-41.69
-46.99
-53.45
-61.28
-70.18
-79.32
-87.30
-92.49
-93.42
-89.20
-79.86
-66.24
-49.77
-31.97
-14.09
3.07
19.02
33.45
46.02
56.35
64.10
69.08
71.40
71.44
69.71
66.75
63.02
58.86
54.57
50.45
46.75
43.72
41.46
39.87
38.66
37.37
35.51
32.68
28.66
23.46
17.31
10.55
3.58
-3.27
-9.83
-16.10
-22.22
-28.51
-35.32
-43.00
-51.70
-61.11
-70.44
-78.40
-83.52
-84.58
-80.98
-72.96
-61.49
-47.86
-33.26
-18.44
-3.71
10.91
25.34
39.23
51.88
62.35
69.78
73.62
73.87
71.12
66.43
60.92
55.54
50.73
46.40
42.21
37.78
33.04
28.22
23.74
19.86
16.54
13.39
9.86
5.55
0.38
-5.40
-11.38
-17.20
-22.81
-28.37
-34.17
-40.41
-47.10
-54.11
-61.21
-68.22
-74.88
-80.72
-84.95
-86.51
-84.40
-78.04
-67.53
-53.72
-37.91
-21.47
-5.44
9.55
23.24
35.49
46.13
54.81
61.18
64.96
66.11
64.87
61.78
57.52
52.76
48.02
43.62
39.65
36.07
32.78
29.69
26.71
23.77
20.71
17.34
13.37
8.63
3.08
-3.13
-9.67
-16.14
-22.18
-27.63
-32.51
-37.07
-41.67
-46.76
-52.73
-59.88
-68.22
-77.29
-86.07
-93.09
-96.73
-95.72
-89.57
-78.78
-64.65
-48.90
-33.12
-18.44
-5.36
6.05
15.86
24.05
30.45
34.77
36.82
36.70
34.84
31.89
28.54
25.30
22.45
20.04
18.13
16.82
16.28
16.65
17.92
19.78
21.73
23.29
24.14
24.21
23.62
22.55
21.18
19.67
18.17
16.87
15.91
15.27
14.65
13.46
10.97
6.54
-0.02
-8.28
-17.17
-25.17
-30.73
-32.64
-30.37
-24.22
-15.04
-3.92
8.21
20.75
33.34
45.65
57.08
66.75
73.66
76.96
76.20
71.50
63.49
53.25
42.04
31.00
21.00
12.39
5.10
-1.14
-6.54
-11.17
-14.96
-17.91
-20.30
-22.67
-25.64
-29.66
-34.75
-40.49
-46.21
-51.25
-55.24
-58.21
-60.54
-62.87
-65.81
-69.83
-75.13
-81.60
-88.73
-95.60
-100.95
-103.36
-101.62
-95.06
-83.87
-69.04
-52.11
-34.66
-17.97
-2.79
10.52
21.76
30.77
37.36
41.41
43.05
42.61
40.54
37.24
33.00
27.94
22.17
15.82
9.14
2.50
-3.68
-9.05
-13.38
-16.67
-19.18
-21.39
-23.89
-27.05
-30.89
-34.95
-38.47
-40.74
-41.38
-40.60
-39.07
-37.70
-37.27
-38.20
-40.49
-43.65
-46.82
-48.89
-48.75
-45.55
-38.93
-29.14
-16.90
-3.09
11.56
26.61
41.85
56.98
71.52
84.73
95.89
104.56
110.79
115.04
117.97
120.10
121.61
122.41
122.34
121.36
119.73
117.80
115.85
113.85
111.48
108.37
104.23
99.08
93.04
86.15
78.19
68.80
57.72
45.19
32.01
19.34
8.27
-0.59
-7.29
-12.29
-16.17
-19.27
-21.66
-23.31
-24.30
-25.01
-25.96
-27.57
-29.84
-32.31
-34.17
-34.61
-33.18
-29.93
-25.38
-20.23
-15.07
-10.19
-5.61
-1.25
2.85
6.41
8.97
10.04
9.32
6.89
3.16
-1.26
-5.77
-10.02
-14.09
-18.42
-23.68
-30.49
-39.12
-49.40
-60.74
-72.21
-82.85
-91.88
-98.90
-103.97
-107.70
-111.09
-115.35
-121.51
-129.93
-140.01
-150.04
-157.57
-160.09
-155.82
-144.32
-126.62
-104.75
-80.99
-57.15
-34.16
-12.21
8.84
28.95
47.67
64.28
78.10
88.80
96.45
101.38
104.00
104.61
103.44
100.78
97.11
93.05
89.30
86.36
84.39
83.16
82.07
80.45
77.76
73.73
68.50
62.46
56.03
49.53
42.96
36.02
28.20
18.92
7.67
-5.78
-21.32
-38.32
-55.62
-71.58
-84.38
-92.35
-94.44
-90.44
-81.09
-67.86
-52.47
-36.50
-20.99
-6.37
7.39
20.54
33.14
44.89
55.08
62.77
67.21
68.04
65.48
60.24
53.29
45.64
38.15
31.48
26.07
22.17
19.81
18.73
18.41
18.18
17.41
15.58
12.45
8.00
2.37
-4.18
-11.34
-18.81
-26.34
-33.79
-41.21
-48.77
-56.59
-64.44
-71.60
-76.99
-79.31
-77.55
-71.17
-60.35
-45.85
-28.97
-11.36
5.13
18.72
28.13
32.99
34.00
32.71
30.90
29.76
29.48
29.37
28.40
25.87
21.83
16.91
11.97
7.67
4.23
1.67
-0.05
-0.88
-0.84
-0.32
-0.07
-1.04
-3.87
-8.57
-14.40
-20.27
-25.25
-29.01
-32.01
-35.25
-39.90
-46.72
-55.86
-66.64
-77.61
-86.82
-92.18
-91.98
-85.36
-72.57
-54.84
-34.18
-12.67
7.90
26.36
42.15
55.17
65.49
73.21
78.39
81.11
81.47
79.71
76.12
71.05
64.88
58.03
50.97
44.25
38.37
33.64
30.05
27.14
24.13
20.13
14.49
7.06
-1.77
-11.15
-20.15
-28.04
-34.61
-40.25
-45.74
-52.10
-60.06
-69.82
-80.69
-91.13
-99.06
-102.32
-99.37
-89.72
-74.14
-54.36
-32.55
-10.67
9.92
28.58
45.18
59.70
71.98
81.54
87.85
90.61
90.05
86.99
82.65
78.28
74.73
72.35
70.98
70.32
70.05
70.04
70.28
70.70
71.18
71.53
71.62
71.48
71.28
71.19
71.27
71.37
71.20
70.39
68.70
66.12
62.87
59.31
55.79
52.55
49.64
46.87
43.90
40.32
35.86
30.46
24.42
18.15
12.09
6.51
1.43
-3.25
-7.70
-12.02
-16.29
-20.58
-25.02
-29.74
-34.70
-39.59
-43.94
-47.26
-49.23
-49.88
-49.42
-48.15
-46.29
-44.01
-41.56
-39.42
-38.27
-38.82
-41.59
-46.67
-53.69
-61.98
-70.75
-79.30
-87.22
-94.29
-100.57
-106.29
-111.83
-117.64
-124.05
-130.98
-137.79
-143.17
-145.42
-142.95
-134.81
-121.10
-102.90
-81.96
-60.12
-38.76
-18.62
0.14
17.57
33.60
47.92
60.01
69.31
75.50
78.56
78.83
76.84
73.18
68.38
62.90
57.13
51.41
46.06
41.26
37.02
33.18
29.44
25.49
21.06
16.03
10.39
4.23
-2.21
-8.70
-14.94
-20.79
-26.28
-31.69
-37.46
-44.01
-51.51
-59.61
-67.44
-73.80
-77.44
-77.48
-73.57
-65.96
-55.32
-42.47
-28.19
-13.06
2.49
18.10
33.31
47.51
59.94
69.85
76.67
80.32
81.16
79.88
77.12
73.22
68.14
61.73
54.08
45.80
37.98
31.71
27.59
25.35
23.85
21.64
17.58
11.30
3.26
-5.58
-14.26
-22.29
-29.66
-36.81
-44.22
-52.25
-61.00
-70.34
-79.93
-89.24
-97.46
-103.50
-106.23
-104.65
-98.23
-87.08
-71.96
-54.07
-34.79
-15.38
3.22
20.39
35.80
49.22
60.48
69.36
75.68
79.37
80.54
79.52
76.83
73.09
68.85
64.52
60.33
56.34
52.59
49.10
45.96
43.21
40.77
38.34
35.41
31.38
25.82
18.56
9.79
-0.09
-10.63
-21.45
-32.33
-43.07
-53.56
-63.68
-73.29
-82.18
-89.94
-95.89
-99.10
-98.58
-93.63
-84.17
-70.86
-54.89
-37.58
-20.03
-2.87
13.60
29.20
43.53
55.82
65.10
70.49
71.50
68.30
61.75
53.10
43.67
34.49
26.09
18.50
11.40
4.41
-2.83
-10.44
-18.34
-26.29
-34.07
-41.58
-48.90
-56.25
-63.75
-71.28
-78.37
-84.42
-89.00
-92.21
-94.74
-97.65
-101.95
-108.22
-116.35
-125.57
-134.63
-141.93
-145.77
-144.58
-137.26
-123.48
-103.85
-79.75
-52.98
-25.24
2.10
28.16
52.29
73.86
92.21
106.73
117.13
123.52
126.48
126.80
125.30
122.65
119.31
115.61
111.80
108.09
104.57
101.24
97.97
94.52
90.58
85.80
79.87
72.56
63.88
54.11
43.85
33.80
24.54
16.20
8.45
0.57
-8.26
-18.60
-30.52
-43.51
-56.56
-68.24
-76.90
-80.96
-79.20
-71.11
-57.03
-38.17
-16.25
6.86
29.54
50.64
69.43
85.44
98.24
107.48
112.86
114.37
112.46
107.94
101.90
95.34
88.97
83.04
77.45
71.96
66.39
60.71
54.97
49.29
43.67
38.04
32.21
25.92
18.94
11.17
2.75
-5.97
-14.46
-22.29
-29.31
-35.71
-42.01
-48.83
-56.73
-65.99
-76.55
-87.92
-99.03
-108.31
-113.81
-113.66
-106.64
-92.63
-72.71
-48.89
-23.47
1.57
24.97
46.24
65.35
82.40
97.19
109.20
117.66
121.94
121.91
118.12
111.78
104.36
97.15
90.84
85.49
80.64
75.77
70.51
64.84
58.98
53.25
47.87
42.92
38.29
33.70
28.82
23.33
17.09
10.35
3.62
-2.37
-7.11
-10.64
-13.69
-17.65
-24.22
-34.89
-50.53
-71.00
-95.14
-120.77
-145.09
-165.12
-178.30
-183.03
-178.94
-166.79
-148.01
-124.22
-96.85
-67.14
-36.35
-6.01
22.03
45.89
64.11
76.03
81.94
82.90
80.36
75.77
70.35
64.91
59.88
55.39
51.33
47.49
43.65
39.66
35.41
30.85
25.92
20.61
14.95
9.02
2.94
-3.25
-9.59
-16.16
-23.00
-29.99
-36.95
-43.69
-50.31
-57.21
-65.07
-74.47
-85.45
-97.21
-108.12
-116.06
-119.02
-115.72
-105.92
-90.43
-70.82
-48.90
-26.30
-4.17
16.83
36.49
54.66
71.15
85.54
97.19
105.47
109.90
110.46
107.56
101.97
94.66
86.56
78.49
71.10
64.89
60.18
57.01
55.09
53.73
52.05
49.22
44.75
38.55
30.91
22.24
12.86
2.88
-7.66
-18.64
-29.72
-40.41
-50.22
-58.82
-66.24
-72.74
-78.83
-85.10
-92.08
-100.16
-109.35
-119.05
-128.00
-134.36
-136.15
-131.85
-120.86
-103.75
-82.04
-57.77
-32.85
-8.71
13.88
34.60
53.34
69.87
83.79
94.51
101.56
104.75
104.35
101.02
95.65
89.19
82.37
75.77
69.76
64.50
60.07
56.31
52.96
49.53
45.55
40.59
34.49
27.43
19.86
12.37
5.39
-1.01
-7.13
-13.56
-20.80
-29.07
-38.11
-47.36
-56.14
-63.98
-70.79
-76.86
-82.79
-89.25
-96.78
-105.53
-115.03
-124.04
-130.77
-133.23
-129.84
-119.91
-103.94
-83.37
-60.21
-36.35
-13.14
8.73
29.04
47.74
64.52
78.80
89.85
97.06
100.26
99.83
96.59
91.60
85.77
79.78
74.02
68.73
64.09
60.21
57.07
54.40
51.69
48.38
44.05
38.59
32.26
25.52
18.87
12.55
6.50
0.43
-6.06
-13.26
-21.23
-29.71
-38.24
-46.28
-53.46
-59.67
-65.15
-70.50
-76.40
-83.46
-91.93
-101.48
-111.19
-119.63
-125.07
-125.93
-121.11
-110.28
-93.93
-73.22
-49.61
-24.54
0.89
25.95
50.21
73.31
94.80
114.01
130.16
142.56
150.78
154.81
155.02
152.10
146.82
140.02
132.40
124.59
117.05
110.01
103.43
96.94
90.00
82.11
73.07
63.08
52.57
42.05
31.72
21.40
10.66
-0.93
-13.46
-26.54
-39.43
-51.32
-61.66
-70.33
-77.61
-84.11
-90.54
-97.44
-104.89
-112.33
-118.54
-121.98
-121.33
-116.12
-106.95
-95.40
-83.37
-72.43
-63.13
-54.79
-45.81
-34.33
-19.16
-0.39
20.25
39.74
54.58
61.89
60.40
50.83
35.76
18.77
3.51
-7.25
-12.14
-11.28
-6.00
1.67
9.62
16.10
20.00
20.79
18.35
12.87
4.85
-4.84
-14.98
-24.21
-31.45
-36.39
-39.63
-42.42
-46.07
-51.40
-58.40
-66.43
-74.73
-82.92
-91.06
-99.38
-107.65
-114.87
-119.33
-119.21
-113.27
-101.47
-84.88
-65.28
-44.49
-23.83
-4.11
14.31
31.11
45.93
58.33
68.05
75.02
79.38
81.38
81.24
79.23
75.72
71.32
66.77
62.79
59.70
57.23
54.62
50.96
45.68
38.79
30.91
22.86
15.29
8.37
1.81
-4.94
-12.24
-20.26
-28.99
-38.49
-48.96
-60.67
-73.63
-87.45
-101.26
-113.99
-124.72
-132.88
-138.28
-140.99
-141.16
-138.95
-134.53
-127.90
-118.82
-106.68
-90.62
-69.82
-44.01
-13.89
18.85
51.87
82.74
109.47
130.76
145.91
154.73
157.44
154.80
148.13
139.29
130.26
122.59
116.95
113.02
109.74
105.87
100.52
93.36
84.58
74.62
63.82
52.43
40.67
28.78
17.18
6.31
-3.51
-12.24
-20.04
-27.30
-34.54
-42.34
-51.31
-61.95
-74.33
-87.78
-100.83
-111.42
-117.55
-117.90
-112.30
-101.60
-87.24
-70.56
-52.50
-33.51
-13.95
5.57
24.10
40.52
53.95
64.00
70.77
74.59
75.78
74.52
70.91
65.22
58.05
50.31
42.98
36.87
32.36
29.36
27.29
25.31
22.49
18.02
11.38
2.44
-8.46
-20.59
-32.93
-44.39
-54.05
-61.40
-66.57
-70.34
-73.92
-78.49
-84.77
-92.62
-101.11
-108.85
-114.49
-117.11
-116.25
-111.75
-103.46
-91.17
-74.72
-54.44
-31.31
-6.88
17.10
39.18
58.58
75.24
89.48
101.63
111.67
119.24
123.81
125.05
123.03
118.31
111.82
104.50
97.20
90.40
84.25
78.70
73.63
68.96
64.77
61.09
57.90
54.93
51.68
47.54
42.11
35.45
28.17
21.20
15.37
10.97
7.63
4.48
0.59
-4.67
-11.47
-19.86
-30.00
-42.33
-57.31
-74.82
-93.68
-111.50
-125.21
-131.99
-130.22
-119.96
-102.87
-81.50
-58.46
-35.87
-15.16
2.85
17.70
29.28
37.89
44.25
49.44
54.42
59.63
64.74
68.87
71.07
70.94
68.92
66.12
63.80
62.78
63.07
63.98
64.42
63.46
60.49
55.38
48.24
39.35
29.08
17.84
6.06
-5.76
-17.11
-27.53
-36.60
-44.08
-50.05
-54.99
-59.75
-65.27
-72.09
-79.93
-87.60
-93.38
-95.69
-93.70
-87.56
-78.09
-66.26
-52.58
-37.10
-19.63
-0.35
19.82
39.25
56.06
68.76
76.70
80.25
80.36
78.18
74.54
69.81
64.10
57.48
50.32
43.21
36.81
31.57
27.62
24.82
22.84
21.29
19.68
17.46
14.02
8.84
1.64
-7.47
-18.07
-29.46
-40.90
-51.84
-62.03
-71.59
-80.97
-90.73
-101.22
-112.15
-122.40
-130.11
-133.19
-130.01
-120.03
-104.00
-83.67
-61.23
-38.62
-17.08
2.87
21.16
37.86
52.80
65.55
75.51
82.17
85.32
85.12
82.13
77.08
70.78
63.91
56.98
50.37
44.35
39.13
34.82
31.35
28.40
25.41
21.72
16.74
10.25
2.39
-6.32
-15.20
-23.63
-31.25
-37.99
-44.05
-49.77
-55.49
-61.63
-68.54
-76.48
-85.39
-94.67
-103.08
-108.90
-110.40
-106.37
-96.57
-81.87
-63.89
-44.48
-25.21
-7.01
9.81
25.27
39.47
52.28
63.40
72.31
78.58
81.93
82.40
80.46
76.84
72.41
67.87
63.57
59.43
55.11
50.20
44.61
38.58
32.70
27.52
23.24
19.54
15.64
10.63
3.90
-4.51
-13.90
-23.12
-31.11
-37.40
-42.35
-47.11
-53.10
-61.47
-72.55
-85.61
-98.93
-110.32
-117.59
-118.98
-113.17
-99.48
-78.33
-51.72
-23.47
1.73
19.74
29.16
32.46
35.20
43.16
59.12
81.26
104.19
122.60
133.99
140.01
144.65
150.90
158.22
162.46
158.41
142.97
117.86
88.21
60.45
39.64
27.94
24.70
27.87
35.48
46.11
59.49
74.43
88.43
98.01
100.07
93.35
79.71
64.19
47.66
33.08
21.29
9.36
-8.50
-37.29
-78.02
-126.36
-174.41
-214.51
-241.38
-256.07
-261.11
-258.49
-249.15
-234.12
-214.58
-192.36
-170.49
-151.52
-137.08
-126.67
-117.58
-106.73
-92.76
-75.76
-56.87
-38.14
-21.07
-6.38
3.60
7.63
11.75
20.38
33.53
51.00
71.38
92.31
110.77
124.14
131.27
132.62
128.88
121.33
111.51
100.15
87.37
73.11
57.47
41.06
24.48
7.40
-10.27
-27.70
-43.32
-54.77
-59.48
-55.39
-41.63
-19.19
8.52
36.95
61.78
79.87
90.12
93.67
93.18
91.85
92.04
94.30
97.61
100.21
100.36
97.16
90.83
82.55
74.02
66.86
62.02
59.59
58.79
58.21
56.46
52.68
46.94
40.11
33.21
26.81
20.67
13.96
5.94
-3.37
-13.09
-21.89
-28.76
-33.54
-36.99
-40.24
-44.13
-48.88
-53.96
-58.49
-61.64
-62.95
-62.36
-60.13
-56.57
-51.89
-46.10
-38.99
-30.33
-19.99
-8.08
4.99
18.53
31.67
43.41
52.78
59.00
61.70
61.04
57.75
52.90
47.52
42.32
37.51
32.90
28.15
23.04
17.53
11.79
5.98
0.14
-5.85
-12.13
-18.77
-25.69
-32.71
-39.60
-46.20
-52.44
-58.33
-63.95
-69.38
-74.71
-79.89
-84.90
-89.67
-94.25
-98.95
-104.23
-110.49
-117.69
-125.02
-130.91
-133.41
-130.86
-122.57
-109.05
-91.73
-72.38
-52.49
-32.94
-14.12
3.65
19.83
33.57
44.01
50.73
53.92
54.33
52.97
50.76
48.38
46.15
44.26
42.80
41.91
41.68
42.23
43.64
45.88
48.57
50.86
51.46
49.08
42.96
33.52
22.24
11.29
2.65
-2.74
-5.22
-6.25
-7.63
-10.67
-15.79
-22.55
-30.12
-37.75
-45.04
-51.90
-58.11
-63.13
-65.93
-65.22
-59.93
-49.59
-34.55
-15.91
4.71
25.36
44.16
59.65
71.19
79.06
84.29
88.15
91.53
94.53
96.43
96.07
92.52
85.62
76.23
66.12
57.43
52.20
51.61
55.45
61.83
67.60
69.31
64.58
53.10
36.71
18.51
1.39
-13.17
-25.38
-36.51
-47.78
-59.49
-71.00
-81.45
-90.65
-99.37
-108.90
-120.08
-132.48
-144.18
-152.43
-154.67
-149.54
-137.21
-119.13
-97.31
-73.54
-49.08
-24.63
-0.62
22.44
43.81
62.65
78.20
90.04
98.23
103.31
106.06
107.27
107.57
107.31
106.66
105.71
104.55
103.26
101.85
100.23
98.40
96.62
95.50
95.78
97.74
100.67
102.79
101.84
95.95
84.63
68.99
51.35
34.23
19.40
7.20
-3.44
-14.59
-28.66
-47.59
-72.40
-102.76
-136.76
-171.22
-202.18
-225.53
-237.86
-237.08
-223.19
-198.60
-167.82
-136.20
-108.23
-85.92
-68.36
-52.72
-36.33
-18.42
-0.89
12.84
19.87
19.41
13.29
4.93
-2.38
-6.91
-8.58
-8.31
-6.93
-4.69
-1.30
3.51
9.38
15.11
19.04
19.72
16.53
10.10
2.05
-5.59
-11.27
-14.54
-16.29
-18.21
-22.05
-28.74
-38.14
-49.28
-60.91
-71.99
-81.84
-89.81
-95.05
-96.43
-92.93
-84.09
-70.36
-52.92
-33.29
-12.70
8.08
28.70
48.91
68.17
85.68
100.40
111.47
118.47
121.56
121.36
118.75
114.46
108.99
102.54
95.17
87.10
78.78
70.89
64.18
59.23
56.23
54.84
54.20
53.12
50.42
45.32
37.63
27.80
16.74
5.48
-5.13
-14.49
-22.37
-28.90
-34.59
-40.19
-46.55
-54.21
-63.12
-72.46
-80.74
-86.24
-87.44
-83.44
-74.15
-60.22
-42.90
-23.65
-3.92
15.22
33.19
49.81
65.05
78.78
90.63
100.03
106.63
110.46
111.96
111.69
110.00
106.78
101.57
93.98
84.07
72.53
60.54
49.27
39.48
31.23
24.00
17.12
10.29
3.77
-1.70
-5.39
-7.07
-7.37
-7.68
-9.64
-14.53
-22.71
-33.52
-45.53
-57.22
-67.42
-75.57
-81.66
-85.92
-88.65
-90.06
-90.24
-88.97
-85.67
-79.51
-69.59
-55.46
-37.59
-17.39
3.03
21.53
36.70
48.26
56.92
63.80
69.68
74.67
78.19
79.40
77.70
73.02
65.94
57.50
48.95
41.45
35.83
32.48
31.24
31.51
32.29
32.39
30.72
26.63
20.19
12.25
4.21
-2.55
-7.10
-9.51
-10.78
-12.46
-15.93
-21.78
-29.63
-38.26
-46.25
-52.55
-56.90
-59.82
-62.29
-65.21
-68.95
-73.16
-76.86
-78.83
-77.93
-73.50
-65.31
-53.49
-38.40
-20.59
-1.01
18.99
37.69
53.41
64.99
72.04
74.90
74.21
70.56
64.31
55.84
45.96
36.11
28.16
23.69
23.17
25.59
28.67
29.86
27.47
21.52
13.66
6.47
2.12
1.40
3.46
6.36
8.10
7.55
4.78
0.70
-3.55
-7.22
-10.11
-12.55
-15.03
-18.13
-22.51
-28.95
-38.06
-49.74
-62.63
-73.99
-80.44
-79.12
-69.09
-51.90
-31.34
-12.11
1.80
8.45
8.33
3.82
-2.04
-6.68
-8.80
-8.36
-6.17
-3.23
-0.34
2.09
3.88
4.83
4.65
3.02
-0.10
-4.37
-8.99
-13.00
-15.67
-16.84
-17.12
-17.57
-19.34
-23.11
-28.77
-35.42
-41.77
-46.63
-49.35
-50.03
-49.36
-48.40
-48.19
-49.61
-53.12
-58.70
-65.76
-73.06
-79.00
-81.93
-80.70
-75.01
-65.43
-53.22
-39.84
-26.35
-13.17
-0.06
13.64
28.49
44.45
60.61
75.35
86.84
93.82
96.03
94.32
90.20
85.14
80.02
74.93
69.38
62.79
54.90
45.95
36.55
27.52
19.62
13.47
9.41
7.39
6.94
7.16
6.80
4.57
-0.51
-8.92
-20.36
-33.69
-47.22
-59.09
-67.90
-73.32
-76.22
-78.25
-81.13
-85.61
-90.93
-95.08
-95.55
-90.43
-79.18
-62.67
-42.75
-21.51
-0.62
18.70
35.59
49.34
59.37
65.50
68.23
68.80
68.82
69.73
72.16
75.75
79.28
81.35
80.92
77.80
72.58
66.32
60.01
54.25
48.97
43.68
37.71
30.48
21.81
11.98
1.57
-8.74
-18.37
-27.07
-34.90
-42.10
-49.02
-55.97
-63.25
-71.17
-79.98
-89.74
-100.13
-110.31
-119.11
-125.43
-128.64
-128.79
-126.42
-121.99
-115.48
-106.31
-93.74
-77.46
-58.11
-37.17
-16.48
2.36
18.41
31.40
41.29
48.06
51.66
52.26
50.50
47.44
44.22
41.66
39.97
38.73
37.27
35.01
31.73
27.57
22.88
17.92
12.79
7.38
1.49
-5.09
-12.44
-20.53
-29.20
-38.15
-47.10
-55.84
-64.39
-73.07
-82.43
-92.91
-104.55
-116.59
-127.53
-135.37
-138.23
-134.87
-125.15
-110.02
-91.25
-70.89
-50.67
-31.65
-14.02
2.81
19.86
38.26
58.86
81.89
106.63
131.40
153.63
170.51
179.72
180.25
172.74
159.38
143.08
126.52
111.53
98.81
88.34
79.88
73.14
67.79
63.20
58.34
52.14
43.91
33.73
22.43
11.26
1.31
-6.89
-13.48
-19.06
-24.39
-30.19
-37.00
-45.06
-54.21
-63.74
-72.47
-78.98
-81.92
-80.42
-74.19
-63.51
-49.04
-31.68
-12.41
7.72
27.67
46.46
63.23
77.33
88.25
95.75
99.80
100.77
99.31
96.39
92.94
89.71
87.00
84.71
82.47
79.70
75.86
70.47
63.27
54.31
44.08
33.48
23.64
15.53
9.65
5.72
2.80
-0.34
-4.72
-10.74
-18.03
-25.72
-32.93
-39.20
-44.70
-50.14
-56.30
-63.61
-71.81
-79.90
-86.48
-90.08
-89.63
-84.67
-75.41
-62.62
-47.41
-30.95
-14.21
2.17
17.87
32.75
46.58
59.01
69.46
77.39
82.42
84.63
84.48
82.71
80.12
77.30
74.52
71.77
68.84
65.53
61.80
57.79
53.80
50.05
46.46
42.62
37.91
31.76
24.00
14.93
5.16
-4.58
-13.84
-22.55
-31.01
-39.73
-49.21
-59.67
-70.89
-82.17
-92.42
-100.35
-104.76
-104.70
-99.68
-89.76
-75.56
-58.24
-39.39
-20.73
-3.71
10.86
23.03
33.54
43.40
53.38
63.59
73.44
81.87
87.71
90.16
89.03
84.79
78.57
71.68
65.27
59.90
55.45
51.36
47.05
42.26
37.15
32.06
27.14
22.07
16.27
9.27
1.08
-7.72
-16.31
-24.09
-31.05
-37.74
-44.94
-53.21
-62.60
-72.65
-82.69
-92.02
-100.05
-106.20
-109.88
-110.42
-107.26
-100.10
-89.12
-74.97
-58.65
-41.24
-23.77
-7.05
8.40
22.19
34.08
43.82
51.23
56.19
58.76
59.18
57.96
55.70
53.00
50.31
47.84
45.56
43.32
40.93
38.30
35.43
32.33
28.95
25.13
20.64
15.25
8.99
2.20
-4.55
-10.65
-15.76
-19.96
-23.66
-27.47
-31.89
-37.14
-43.15
-49.69
-56.45
-63.04
-68.99
-73.64
-76.19
-75.91
-72.23
-64.84
-53.67
-38.93
-21.17
-1.50
18.30
35.94
48.96
55.41
54.42
46.64
34.20
20.40
8.98
3.27
5.27
14.94
29.89
45.98
58.46
63.44
59.16
46.54
28.85
10.64
-3.59
-10.68
-9.54
-1.44
10.44
21.96
29.35
30.40
25.11
15.39
3.92
-6.98
-16.02
-22.92
-27.89
-31.05
-32.41
-32.04
-30.48
-28.88
-28.31
-28.96
-29.96
-29.67
-26.36
-19.14
-7.92
6.81
23.95
42.50
61.53
79.50
93.87
101.87
101.46
93.13
80.50
68.36
61.04
60.37
64.39
67.97
65.57
53.16
30.34
-0.04
-34.61
-70.49
-105.32
-136.84
-162.40
-178.45
-182.69
-175.15
-153.05
-120.13
-85.42
-58.53
-44.75
-47.22
-61.78
-84.34
-112.34
-144.46
-176.78
-205.17
-224.79
-231.89
-225.30
-206.23
-178.15
-144.66
-108.57
-72.67
-39.70
-11.73
10.04
25.71
37.30
47.47
58.67
71.74
84.66
93.10
92.60
80.61
57.99
29.61
2.77
-14.72
-17.04
-2.32
26.83
64.56
103.51
136.51
158.09
165.05
157.05
136.54
108.26
78.22
52.47
35.49
29.01
31.72
39.72
47.99
51.99
48.94
38.36
22.06
3.44
-13.63
-25.96
-32.08
-32.63
-30.16
-28.09
-29.57
-36.35
-48.23
-63.19
-78.08
-89.44
-94.35
-90.91
-78.54
-58.17
-32.01
-3.20
24.95
49.63
69.19
83.20
92.39
98.00
101.18
102.67
102.78
101.68
99.46
96.19
92.01
87.63
84.10
82.44
83.25
86.41
91.23
96.43
100.62
102.56
102.24
100.25
97.31
93.63
88.94
82.92
75.14
65.20
52.74
38.56
24.09
10.89
-0.08
-8.71
-15.66
-22.74
-32.77
-52.12
-84.22
-128.22
-178.32
-226.26
-266.29
-293.58
-304.74
-296.45
-270.22
-231.31
-187.47
-146.44
-113.70
-91.32
-77.83
-69.90
-63.75
-56.36
-44.75
-26.82
-1.88
28.67
61.46
92.26
116.95
132.73
138.54
135.82
127.41
116.61
106.23
98.29
94.02
93.54
95.81
98.79
100.30
98.21
91.25
79.32
63.60
46.25
29.71
15.76
5.11
-2.39
-7.44
-10.85
-13.43
-16.02
-19.45
-24.41
-31.25
-39.73
-48.94
-57.42
-63.42
-65.09
-60.99
-50.40
-33.70
-12.62
9.96
30.66
46.53
56.20
60.22
60.63
59.95
60.01
61.23
62.77
63.18
61.32
56.91
50.65
43.75
37.48
32.88
30.54
30.65
32.87
36.21
39.11
39.72
36.49
28.96
18.31
7.15
-1.57
-5.98
-6.31
-4.79
-4.60
-8.42
-17.00
-28.72
-40.59
-49.83
-55.44
-58.38
-60.45
-63.01
-66.24
-69.00
-69.23
-65.05
-55.67
-42.08
-26.38
-10.82
2.68
12.15
15.68
12.06
1.56
-13.45
-29.11
-40.85
-44.54
-36.62
-17.29
7.71
29.42
40.36
38.42
26.76
8.68
-14.10
-41.22
-73.02
-109.68
-148.40
-185.15
-212.47
-224.20
-217.44
-193.83
-159.21
-121.41
-87.54
-61.58
-44.07
-32.88
-25.15
-18.06
-9.63
0.90
13.50
27.15
40.75
53.70
66.39
79.47
93.50
108.71
122.15
131.78
136.26
135.56
131.01
124.92
119.41
115.68
113.84
113.21
113.29
113.63
113.99
114.08
113.31
110.70
105.23
96.30
84.10
70.10
56.51
45.87
40.55
41.91
49.41
60.20
69.49
71.95
63.92
44.72
16.85
-15.26
-47.30
-76.80
-103.48
-128.25
-151.76
-173.46
-191.85
-205.55
-214.16
-218.49
-219.81
-218.82
-215.13
-207.42
-194.32
-175.39
-151.55
-124.90
-97.91
-72.48
-49.36
-28.02
-7.30
13.69
34.87
54.92
71.73
83.26
88.40
87.59
82.68
76.35
71.17
68.88
70.08
74.26
80.20
86.30
90.91
92.51
89.83
82.09
69.19
51.90
31.81
11.08
-8.12
-24.11
-36.13
-44.42
-50.00
-54.16
-58.04
-62.32
-67.11
-72.08
-76.60
-79.97
-81.46
-80.45
-76.46
-69.27
-58.96
-45.87
-30.59
-13.81
3.78
21.56
38.95
55.36
70.20
82.93
93.23
101.05
106.63
110.29
112.31
112.70
111.27
107.76
102.24
95.25
87.80
81.13
76.25
73.59
72.89
73.20
73.21
71.59
67.41
60.30
50.59
39.12
26.95
14.96
3.58
-7.31
-18.25
-29.93
-42.82
-56.82
-71.14
-84.42
-94.94
-101.13
-101.93
-97.10
-87.19
-73.26
-56.53
-38.07
-18.80
0.52
19.04
35.89
50.24
61.58
69.82
75.27
78.40
79.62
79.15
77.05
73.38
68.38
62.46
56.22
50.24
44.88
40.22
35.97
31.58
26.47
20.30
13.05
5.07
-3.16
-11.17
-18.73
-25.82
-32.55
-39.04
-45.35
-51.60
-58.04
-65.05
-73.07
-82.30
-92.42
-102.50
-111.04
-116.34
-117.00
-112.29
-102.45
-88.50
-71.88
-54.00
-35.87
-18.01
-0.62
16.04
31.47
44.86
55.29
62.11
65.21
65.07
62.59
58.82
54.61
50.44
46.44
42.51
38.55
34.57
30.66
26.90
23.23
19.38
15.01
9.73
3.38
-3.86
-11.59
-19.24
-26.33
-32.58
-38.06
-43.06
-48.01
-53.41
-59.59
-66.77
-74.75
-82.91
-90.10
-94.86
-95.77
-91.86
-83.01
-69.94
-53.98
-36.59
-18.93
-1.70
14.82
30.55
45.27
58.48
69.51
77.62
82.33
83.53
81.64
77.44
71.90
65.84
59.80
54.06
48.63
43.54
38.87
34.69
30.98
27.52
23.89
19.60
14.35
8.05
0.96
-6.46
-13.75
-20.57
-26.80
-32.55
-38.04
-43.50
-49.18
-55.20
-61.70
-68.67
-75.86
-82.66
-88.01
-90.63
-89.32
-83.39
-72.93
-58.77
-42.25
-24.67
-7.07
9.93
25.91
40.49
53.11
63.13
70.02
73.60
74.21
72.56
69.60
66.17
62.83
59.73
56.76
53.61
50.02
45.92
41.38
36.62
31.87
27.19
22.52
17.67
12.45
6.77
0.69
-5.60
-11.87
-17.94
-23.75
-29.36
-34.99
-40.86
-47.26
-54.37
-62.27
-70.72
-79.11
-86.37
-91.20
-92.32
-88.89
-80.78
-68.62
-53.62
-37.14
-20.35
-4.02
11.43
25.65
38.19
48.43
55.78
59.85
60.76
59.10
55.79
51.78
47.80
44.23
41.04
38.08
35.14
32.16
29.17
26.25
23.40
20.41
16.97
12.70
7.38
1.10
-5.69
-12.38
-18.38
-23.42
-27.66
-31.63
-36.03
-41.51
-48.33
-56.30
-64.74
-72.57
-78.51
-81.32
-79.99
-74.06
-63.69
-49.69
-33.31
-15.93
1.25
17.39
31.98
44.76
55.52
64.05
70.20
74.07
76.08
76.82
76.85
76.25
74.57
70.92
64.41
54.74
42.43
28.80
15.38
3.30
-7.13
-16.36
-25.13
-33.81
-42.02
-48.83
-53.37
-55.49
-56.12
-56.97
-59.77
-65.52
-74.02
-84.10
-94.32
-103.58
-111.56
-118.58
-125.22
-131.71
-137.60
-141.75
-142.63
-138.73
-129.02
-113.24
-92.04
-67.04
-40.82
-16.92
0.80
9.23
7.73
-0.68
-9.57
-11.12
0.58
26.54
62.03
98.43
127.04
142.74
145.81
140.88
134.01
129.63
128.89
129.97
129.56
124.57
113.10
94.87
71.08
44.08
16.68
-8.75
-31.22
-51.43
-71.44
-93.24
-117.28
-141.46
-161.49
-172.45
-170.92
-156.34
-131.10
-99.25
-64.79
-30.31
3.08
34.97
64.59
90.27
109.93
122.19
127.24
127.08
124.59
122.15
120.62
119.15
116.00
109.69
99.82
87.29
73.81
61.01
49.87
40.38
31.84
23.27
13.91
3.36
-8.37
-20.97
-33.92
-46.57
-58.26
-68.51
-77.23
-84.83
-92.21
-100.40
-110.16
-121.51
-133.47
-144.10
-150.89
-151.47
-144.32
-129.27
-107.62
-81.65
-53.98
-26.74
-1.21
22.14
43.26
61.96
77.81
90.30
99.29
105.28
109.34
112.60
115.65
118.10
118.60
115.27
106.37
91.11
70.26
46.23
22.60
3.05
-9.68
-14.70
-13.02
-7.03
0.34
6.50
9.64
8.78
3.71
-5.05
-16.34
-28.53
-40.03
-49.78
-57.63
-64.11
-69.79
-74.66
-77.85
-78.17
-74.85
-67.99
-58.56
-47.70
-36.05
-23.41
-9.19
6.81
23.72
39.53
51.75
58.46
59.13
54.83
47.66
39.84
32.87
27.21
22.55
18.41
14.66
11.63
9.86
9.61
10.50
11.61
11.81
10.32
7.03
2.42
-2.78
-8.04
-13.24
-18.60
-24.46
-30.95
-38.00
-45.35
-52.75
-59.97
-66.68
-72.25
-75.68
-75.81
-71.76
-63.35
-51.22
-36.57
-20.71
-4.50
11.74
28.02
44.25
59.92
74.10
85.74
94.04
98.73
100.03
98.50
94.77
89.38
82.81
75.50
67.93
60.55
53.79
47.92
43.03
38.94
35.32
31.68
27.56
22.66
16.94
10.61
4.04
-2.33
-8.20
-13.45
-18.18
-22.70
-27.43
-32.82
-39.13
-46.25
-53.51
-59.80
-63.75
-64.18
-60.42
-52.55
-41.27
-27.66
-12.83
2.33
17.18
31.30
44.32
55.83
65.35
72.42
76.77
78.37
77.49
74.60
70.25
64.95
59.09
52.97
46.89
41.15
36.09
31.96
28.82
26.43
24.36
22.04
18.98
14.89
9.78
3.94
-2.16
-8.03
-13.29
-17.77
-21.55
-24.87
-28.14
-31.77
-36.06
-41.09
-46.52
-51.62
-55.34
-56.56
-54.42
-48.58
-39.30
-27.35
-13.74
0.58
14.87
28.59
41.35
52.77
62.35
69.58
74.02
75.45
74.05
70.34
65.13
59.26
53.41
48.02
43.22
39.01
35.32
32.13
29.43
27.18
25.27
23.47
21.51
19.16
16.21
12.65
8.59
4.30
0.03
-4.06
-7.98
-11.91
-16.07
-20.60
-25.49
-30.67
-36.01
-41.42
-46.72
-51.52
-55.13
-56.65
-55.25
-50.47
-42.44
-31.83
-19.61
-6.72
6.06
18.23
29.38
39.12
47.01
52.64
55.71
56.23
54.49
51.06
46.65
41.91
37.31
33.07
29.16
25.44
21.78
18.22
14.93
12.11
9.84
8.02
6.34
4.42
1.94
-1.24
-5.06
-9.27
-13.57
-17.69
-21.43
-24.77
-27.78
-30.67
-33.70
-37.13
-41.18
-45.87
-50.97
-55.89
-59.75
-61.53
-60.36
-55.82
-48.01
-37.57
-25.50
-12.86
-0.59
10.65
20.47
28.68
35.17
39.85
42.64
43.57
42.80
40.72
37.82
34.63
31.50
28.59
25.85
23.17
20.50
17.86
15.40
13.25
11.43
9.86
8.30
6.49
4.18
1.17
-2.55
-6.87
-11.52
-16.17
-20.52
-24.40
-27.79
-30.81
-33.67
-36.57
-39.69
-43.13
-46.88
-50.73
-54.21
-56.60
-57.07
-54.92
-49.83
-41.98
-32.03
-20.88
-9.45
1.56
11.67
20.65
28.25
34.27
38.43
40.59
40.81
39.38
36.82
33.68
30.44
27.34
24.43
21.65
18.90
16.23
13.72
11.47
9.54
7.85
6.29
4.65
2.78
0.50
-2.29
-5.61
-9.41
-13.47
-17.50
-21.14
-24.13
-26.36
-27.97
-29.32
-30.86
-33.04
-36.16
-40.23
-44.96
-49.72
-53.64
-55.77
-55.28
-51.66
-44.94
-35.64
-24.67
-13.11
-1.89
8.32
17.16
24.49
30.25
34.41
36.96
37.93
37.51
35.98
33.71
31.07
28.35
25.77
23.44
21.42
19.69
18.16
16.73
15.27
13.65
11.80
9.68
7.29
4.64
1.72
-1.50
-5.01
-8.80
-12.76
-16.68
-20.36
-23.62
-26.40
-28.77
-30.90
-33.04
-35.49
-38.50
-42.24
-46.65
-51.34
-55.56
-58.37
-58.80
-56.24
-50.61
-42.37
-32.38
-21.60
-10.86
-0.76
8.35
16.21
22.63
27.47
30.64
32.18
32.22
30.99
28.80
26.03
23.08
20.32
18.04
16.36
15.26
14.56
14.08
13.63
13.11
12.43
11.49
10.17
8.38
6.09
3.35
0.35
-2.73
-5.72
-8.55
-11.26
-13.90
-16.53
-19.18
-21.91
-24.85
-28.21
-32.16
-36.73
-41.60
-46.09
-49.28
-50.29
-48.52
-43.86
-36.68
-27.69
-17.70
-7.48
2.43
11.60
19.74
26.58
31.84
35.30
36.85
36.57
34.74
31.83
28.36
24.81
21.54
18.72
16.41
14.55
13.07
11.83
10.71
9.56
8.27
6.76
4.96
2.87
0.52
-2.01
-4.63
-7.19
-9.60
-11.82
-13.95
-16.26
-19.11
-22.80
-27.48
-33.07
-39.15
-45.07
-49.98
-52.98
-53.29
-50.43
-44.37
-35.52
-24.69
-12.80
-0.76
10.74
21.18
30.13
37.21
42.09
44.56
44.67
42.71
39.22
34.80
30.03
25.34
21.02
17.24
14.09
11.60
9.73
8.34
7.20
6.03
4.53
2.45
-0.36
-3.94
-8.25
-13.09
-18.17
-23.11
-27.52
-31.14
-33.99
-36.32
-38.58
-41.29
-44.79
-49.16
-54.10
-59.02
-63.11
-65.52
-65.50
-62.60
-56.68
-48.02
-37.14
-24.74
-11.52
1.85
14.83
26.95
37.84
47.20
54.78
60.40
63.92
65.34
64.81
62.66
59.40
55.64
51.96
48.79
46.34
44.59
43.40
42.53
41.81
41.09
40.23
39.15
37.77
36.06
34.08
31.95
29.79
27.71
25.77
23.90
22.03
20.08
17.99
15.72
13.33
10.91
8.64
6.72
5.25
4.24
3.49
2.80
1.94
0.85
-0.36
-1.54
-2.56
-3.43
-4.25
-5.18
-6.28
-7.45
-8.56
-9.45
-10.11
-10.65
-11.27
-12.11
-13.27
-14.75
-16.47
-18.40
-20.49
-22.69
-24.94
-27.19
-29.42
-31.72
-34.30
-37.36
-41.05
-45.35
-50.04
-54.76
-59.14
-62.84
-65.69
-67.76
-69.36
-70.99
-73.24
-76.53
-80.89
-85.77
-90.04
-92.29
-91.19
-85.95
-76.47
-63.42
-47.85
-30.96
-13.82
2.74
18.10
31.74
43.22
52.22
58.59
62.43
64.08
64.00
62.64
60.37
57.39
53.84
49.84
45.56
41.27
37.22
33.68
30.80
28.54
26.72
25.03
23.04
20.36
16.75
12.15
6.78
1.05
-4.64
-9.99
-14.95
-19.66
-24.42
-29.48
-35.02
-41.08
-47.44
-53.62
-58.87
-62.21
-62.72
-59.76
-53.17
-43.38
-31.24
-17.78
-3.92
9.61
22.32
33.87
43.94
52.19
58.25
61.86
62.93
61.68
58.58
54.29
49.49
44.71
40.24
36.15
32.43
29.06
26.03
23.38
20.99
18.62
15.90
12.52
8.26
3.18
-2.48
-8.32
-13.96
-19.15
-23.84
-28.20
-32.55
-37.29
-42.68
-48.75
-55.13
-61.02
-65.39
-67.12
-65.40
-59.88
-50.83
-38.94
-25.15
-10.38
4.55
18.99
32.35
44.10
53.77
60.96
65.46
67.29
66.68
64.11
60.12
55.30
50.16
45.04
40.18
35.72
31.82
28.62
26.19
24.39
22.79
20.73
17.53
12.75
6.36
-1.20
-9.20
-16.84
-23.51
-28.91
-33.12
-36.47
-39.50
-42.71
-46.50
-50.85
-55.28
-58.80
-60.15
-58.20
-52.31
-42.64
-30.05
-15.74
-0.83
13.94
28.31
42.29
55.74
68.18
78.78
86.55
90.76
91.29
88.70
84.19
79.20
75.04
72.47
71.55
71.74
72.11
71.70
69.77
66.05
60.95
55.46
50.81
47.94
46.97
46.90
45.77
41.58
33.27
21.61
8.94
-1.73
-8.17
-9.97
-8.75
-7.57
-9.56
-16.50
-28.01
-41.74
-54.07
-61.26
-60.57
-51.15
-35.08
-16.77
-2.16
3.84
-0.45
-12.72
-28.11
-41.20
-47.46
-44.06
-30.52
-7.99
20.87
51.50
78.16
95.60
100.85
94.37
79.69
61.98
45.46
33.68
27.73
26.28
26.59
25.96
22.72
16.51
8.06
-1.25
-9.80
-16.32
-20.16
-21.24
-20.37
-19.00
-18.83
-21.26
-26.73
-34.58
-43.42
-51.57
-57.42
-59.80
-58.07
-52.11
-42.31
-29.35
-14.03
2.81
20.37
37.72
53.55
66.09
73.40
73.99
67.43
54.62
37.41
17.93
-2.06
-21.44
-39.56
-55.97
-70.17
-81.67
-90.27
-96.28
-100.49
-103.97
-107.58
-111.79
-116.45
-120.93
-124.33
-125.82
-124.90
-121.59
-116.48
-110.37
-104.07
-98.10
-92.73
-88.10
-84.42
-82.00
-81.00
-81.16
-81.56
-80.83
-77.48
-70.48
-59.51
-45.00
-27.78
-8.63
11.85
33.28
55.06
76.14
94.85
109.33
118.07
120.46
117.13
109.65
99.97
89.77
80.01
70.93
62.34
54.05
46.02
38.44
31.44
24.99
18.87
12.84
6.76
0.67
-5.22
-10.80
-16.02
-21.06
-26.16
-31.59
-37.63
-44.43
-52.15
-60.86
-70.52
-80.83
-91.16
-100.45
-107.32
-110.28
-108.04
-99.91
-85.99
-67.25
-45.30
-22.02
0.80
21.79
40.09
55.19
66.82
74.86
79.32
80.54
79.23
76.41
73.17
70.32
68.14
66.39
64.58
62.29
59.43
56.29
53.36
51.01
49.30
47.97
46.51
44.48
41.71
38.40
35.13
32.70
31.77
32.52
34.28
35.46
33.91
27.52
15.09
-2.96
-24.50
-46.16
-64.24
-75.78
-79.22
-74.51
-62.81
-45.85
-25.37
-2.84
20.83
45.29
70.70
97.33
124.97
152.19
176.07
192.58
197.74
189.24
167.48
135.72
99.08
62.79
30.80
5.03
-14.25
-27.71
-36.17
-40.38
-41.22
-40.04
-38.57
-38.65
-41.48
-47.23
-54.94
-63.11
-70.39
-76.14
-80.61
-84.56
-88.89
-94.02
-99.84
-105.83
-111.52
-116.71
-121.40
-125.60
-128.93
-130.74
-130.09
-126.03
-118.00
-106.10
-91.23
-74.73
-58.06
-42.37
-28.65
-17.29
-8.10
-0.58
5.65
10.50
13.49
14.22
12.68
8.87
3.30
-3.08
-9.27
-14.75
-19.85
-25.47
-32.53
-41.44
-52.59
-65.50
-78.75
-90.40
-98.73
-102.94
-103.24
-100.59
-91.47
-75.06
-53.65
-31.65
-12.48
3.71
19.43
37.12
56.62
74.08
84.41
83.37
70.12
48.25
24.57
6.38
-1.04
4.13
20.90
45.15
71.55
95.77
115.53
130.62
142.06
151.30
159.58
167.79
175.96
183.58
189.94
194.22
195.50
192.98
186.35
176.22
164.19
152.24
142.20
135.25
131.60
130.46
130.48
130.46
129.87
128.98
128.59
129.44
131.85
135.20
137.64
136.22
127.48
108.70
79.17
41.15
-0.34
-38.99
-69.39
-89.08
-99.10
-102.94
-104.37
-105.30
-104.98
-100.79
-90.01
-71.55
-46.47
-17.42
12.74
41.83
68.59
91.89
110.13
121.00
122.24
112.64
93.01
66.13
35.83
5.52
-23.08
-50.23
-77.38
-105.67
-134.75
-162.41
-185.36
-200.76
-207.41
-206.20
-199.53
-190.23
-180.69
-172.52
-166.77
-164.21
-165.46
-170.61
-178.87
-188.62
-197.90
-205.07
-209.60
-212.20
-214.51
-218.41
-224.89
-233.25
-240.68
-242.84
-235.13
-214.50
-180.90
-137.65
-90.29
-44.69
-5.07
26.93
51.93
71.52
87.05
98.97
107.07
111.19
111.76
109.88
106.93
103.98
101.41
98.93
95.85
91.54
85.78
78.86
71.51
64.67
59.08
55.01
52.09
49.49
46.27
41.76
35.83
28.81
21.28
13.70
6.20
-1.38
-9.27
-17.53
-26.10
-35.01
-44.54
-55.09
-66.73
-78.50
-88.15
-92.48
-88.42
-74.29
-50.59
-19.94
13.83
46.92
76.62
101.62
121.74
137.37
149.05
157.36
162.97
166.68
169.06
170.01
168.53
162.98
151.92
135.15
114.30
92.27
72.13
55.59
41.94
28.10
9.80
-16.62
-52.37
-95.30
-140.01
-179.11
-204.99
-211.83
-197.09
-162.59
-114.71
-63.53
-20.88
2.63
0.58
-27.21
-74.55
-130.72
-183.86
-224.50
-247.72
-253.58
-245.76
-229.41
-209.43
-189.34
-171.01
-154.85
-140.20
-125.58
-109.45
-90.71
-69.09
-45.13
-19.86
5.78
30.96
54.93
76.76
95.12
108.81
117.31
121.22
122.15
122.03
122.19
122.85
123.42
123.23
122.46
122.32
124.34
129.29
136.21
142.49
144.93
141.38
131.77
118.09
103.24
89.42
77.22
65.56
52.47
36.24
16.02
-8.16
-35.60
-64.98
-94.19
-120.20
-139.49
-149.11
-147.78
-136.42
-117.65
-94.52
-69.31
-43.06
-16.22
10.54
35.65
56.96
72.62
81.90
85.51
85.00
81.91
77.17
71.08
63.84
55.99
48.58
42.83
39.46
38.31
38.36
38.17
36.49
32.76
27.08
20.12
12.80
6.04
0.58
-3.12
-5.03
-5.72
-6.38
-8.65
-14.09
-23.65
-37.19
-53.43
-70.31
-85.50
-96.99
-103.23
-103.24
-96.56
-83.25
-64.14
-40.83
-15.51
9.53
32.56
52.78
70.29
85.65
99.17
110.57
119.07
123.75
124.11
120.28
113.19
104.20
94.75
85.99
78.55
72.46
67.22
62.17
56.74
50.70
44.19
37.47
30.70
23.72
16.18
7.68
-1.90
-12.32
-23.04
-33.43
-42.96
-51.36
-58.70
-65.31
-71.83
-78.99
-87.52
-97.76
-109.38
-121.11
-130.86
-136.16
-134.80
-125.56
-108.54
-85.14
-57.63
-28.50
0.04
26.46
49.91
70.10
86.96
100.48
110.60
117.19
120.18
119.68
116.14
110.25
102.97
95.23
87.84
81.26
75.62
70.76
66.34
62.03
57.53
52.64
47.25
41.28
34.62
27.16
18.88
9.89
0.55
-8.61
-17.04
-24.37
-30.62
-36.23
-42.00
-48.82
-57.42
-68.04
-80.30
-93.14
-104.81
-113.21
-116.21
-112.18
-100.56
-82.07
-58.66
-33.01
-7.80
14.95
34.26
50.13
63.15
74.01
83.14
90.61
96.17
99.42
100.03
97.93
93.35
86.91
79.51
72.17
65.80
60.93
57.65
55.56
53.95
52.02
49.20
45.22
40.28
34.95
29.90
25.71
22.51
19.91
17.15
13.31
7.69
0.09
-9.08
-18.99
-28.63
-37.19
-44.40
-50.68
-56.95
-64.33
-73.48
-84.04
-94.48
-102.35
-105.10
-101.00
-89.81
-72.88
-52.54
-31.30
-11.15
6.83
22.25
35.15
45.61
53.57
58.99
61.97
62.84
62.08
60.22
57.72
54.89
51.91
48.87
45.93
43.22
40.92
39.13
37.77
36.58
35.16
33.10
30.04
25.81
20.43
14.03
6.84
-0.87
-8.82
-16.76
-24.45
-31.80
-38.77
-45.47
-52.09
-58.86
-66.02
-73.84
-82.49
-91.94
-101.76
-110.92
-117.96
-121.15
-119.07
-111.06
-97.57
-80.02
-60.32
-40.36
-21.42
-4.06
11.66
25.84
38.31
48.59
56.08
60.40
61.61
60.34
57.53
54.15
50.99
48.47
46.75
45.82
45.54
45.67
45.92
45.91
45.32
43.97
41.82
38.98
35.56
31.61
27.10
22.00
16.35
10.31
4.11
-2.05
-8.04
-13.84
-19.54
-25.30
-31.37
-38.05
-45.71
-54.58
-64.56
-75.03
-84.74
-92.01
-95.14
-92.94
-85.12
-72.41
-56.27
-38.46
-20.55
-3.63
11.79
25.52
37.52
47.58
55.38
60.50
62.71
62.13
59.30
55.12
50.60
46.59
43.57
41.56
40.25
39.18
37.96
36.41
34.59
32.68
30.79
28.87
26.65
23.73
19.81
14.80
8.91
2.62
-3.48
-8.89
-13.36
-17.11
-20.80
-25.52
-32.62
-43.37
-58.50
-77.72
-99.48
-121.03
-139.13
-150.80
-154.22
-149.11
-136.65
-118.96
-98.32
-76.65
-55.22
-34.83
-16.00
0.68
14.65
25.39
32.72
36.89
38.54
38.50
37.64
36.64
35.95
35.75
36.04
36.69
37.52
38.26
38.66
38.49
37.58
35.84
33.24
29.80
25.55
20.56
14.88
8.62
1.89
-5.13
-12.27
-19.36
-26.30
-33.10
-39.90
-46.96
-54.62
-63.11
-72.33
-81.57
-89.47
-94.24
-94.18
-88.24
-76.44
-59.98
-40.74
-20.73
-1.43
16.40
32.66
47.45
60.74
72.19
81.25
87.47
90.68
91.10
89.29
85.94
81.70
77.14
72.66
68.57
65.04
62.07
59.41
56.58
52.95
47.94
41.24
32.88
23.25
12.86
2.13
-8.72
-19.62
-30.54
-41.30
-51.60
-61.12
-69.75
-77.71
-85.52
-93.90
-103.44
-114.34
-126.14
-137.55
-146.66
-151.32
-149.71
-140.97
-125.43
-104.54
-80.32
-54.78
-29.51
-5.46
16.89
37.26
55.38
70.92
83.50
92.79
98.55
100.72
99.43
95.10
88.51
80.67
72.71
65.64
60.13
56.33
53.85
51.95
49.75
46.53
41.97
36.11
29.31
21.95
14.26
6.29
-2.05
-10.79
-19.77
-28.68
-37.19
-45.22
-53.06
-61.27
-70.54
-81.35
-93.72
-107.04
-120.11
-131.26
-138.64
-140.62
-136.15
-124.97
-107.75
-85.88
-61.07
-35.04
-9.16
15.63
38.71
59.63
77.92
93.05
104.55
112.10
115.74
115.78
112.88
107.80
101.38
94.35
87.24
80.36
73.81
67.61
61.69
56.04
50.60
45.28
39.81
33.75
26.61
18.04
7.97
-3.22
-14.91
-26.32
-36.82
-46.07
-54.11
-61.32
-68.35
-76.00
-84.97
-95.73
-108.18
-121.42
-133.71
-142.79
-146.28
-142.49
-130.87
-112.13
-88.03
-60.80
-32.55
-4.84
21.37
45.53
67.25
86.06
101.39
112.69
119.62
122.19
120.85
116.42
109.95
102.47
94.92
87.99
82.08
77.33
73.54
70.32
67.11
63.32
58.51
52.45
45.21
37.00
28.07
18.63
8.83
-1.25
-11.44
-21.56
-31.37
-40.66
-49.39
-57.66
-65.81
-74.40
-84.00
-95.04
-107.43
-120.32
-132.07
-140.51
-143.41
-139.17
-127.23
-108.23
-83.76
-55.93
-26.82
1.85
28.87
53.49
75.21
93.68
108.62
119.73
126.79
129.72
128.72
124.35
117.54
109.44
101.19
93.73
87.53
82.61
78.63
75.10
71.46
67.33
62.43
56.58
49.78
42.07
33.64
24.73
15.54
6.16
-3.38
-13.09
-22.92
-32.72
-42.25
-51.28
-59.75
-67.87
-76.12
-85.11
-95.33
-106.72
-118.41
-128.68
-135.25
-135.90
-129.10
-114.57
-93.30
-67.31
-38.99
-10.56
16.35
40.76
62.24
80.61
95.76
107.49
115.60
119.99
120.78
118.39
113.51
106.99
99.65
92.19
85.19
79.03
73.95
69.93
66.64
63.52
59.94
55.39
49.64
42.82
35.27
27.30
19.06
10.49
1.45
-8.11
-18.01
-27.88
-37.29
-45.96
-53.86
-61.21
-68.48
-76.25
-85.08
-95.28
-106.65
-118.27
-128.49
-135.14
-136.15
-130.11
-116.82
-97.27
-73.38
-47.40
-21.29
3.58
26.52
47.18
65.28
80.43
92.15
100.04
104.04
104.47
102.04
97.59
91.93
85.69
79.41
73.58
68.61
64.80
62.15
60.27
58.48
56.01
52.28
47.18
41.03
34.39
27.79
21.46
15.28
8.91
2.00
-5.54
-13.41
-21.08
-27.95
-33.68
-38.38
-42.63
-47.25
-53.07
-60.49
-69.27
-78.31
-85.72
-89.17
-86.41
-75.91
-57.47
-32.55
-4.13
23.91
47.84
65.11
75.01
78.68
78.48
76.93
75.82
75.82
76.65
77.66
78.27
78.14
77.05
74.66
70.56
64.53
56.99
49.07
42.35
38.20
37.21
38.93
42.02
44.77
45.63
43.56
38.06
29.07
16.86
1.98
-14.75
-32.17
-49.01
-64.04
-76.36
-85.60
-92.02
-96.35
-99.61
-102.82
-106.83
-112.15
-118.74
-125.91
-132.27
-135.98
-135.12
-128.33
-115.27
-96.84
-74.86
-51.54
-28.72
-7.64
11.19
27.59
41.40
52.28
59.83
63.82
64.47
62.52
59.00
54.94
51.14
47.89
45.09
42.41
39.51
36.21
32.55
28.68
24.76
20.87
17.05
13.20
9.18
4.80
-0.14
-5.78
-12.10
-18.90
-25.84
-32.59
-38.97
-45.05
-51.05
-57.25
-63.85
-70.94
-78.37
-85.71
-92.15
-96.41
-97.04
-92.75
-82.98
-68.13
-49.57
-29.16
-8.68
10.51
27.66
42.39
54.47
63.70
69.94
73.21
73.67
71.64
67.46
61.54
54.44
46.85
39.57
33.27
28.27
24.48
21.47
18.73
15.88
12.76
9.33
5.46
0.87
-4.78
-11.69
-19.70
-28.32
-36.83
-44.59
-51.26
-56.96
-62.16
-67.48
-73.58
-80.94
-89.77
-99.83
-110.33
-119.95
-126.90
-129.41
-126.08
-116.44
-101.00
-81.24
-59.08
-36.44
-14.77
5.09
22.81
38.33
51.61
62.54
71.02
77.12
81.21
83.91
85.93
87.73
89.41
90.69
91.14
90.46
88.66
86.02
82.99
79.96
77.05
74.07
70.50
65.52
58.21
47.78
33.97
17.29
-0.93
-18.89
-34.92
-48.09
-58.53
-67.25
-75.65
-84.93
-95.61
-107.46
-119.50
-130.24
-137.84
-140.51
-136.84
-126.30
-109.49
-88.09
-64.41
-40.70
-18.57
1.20
18.51
33.56
46.45
57.06
65.16
70.58
73.35
73.69
71.95
68.53
63.80
58.20
52.22
46.41
41.26
37.05
33.72
30.86
27.82
23.89
18.49
11.44
3.02
-6.14
-15.16
-23.22
-29.91
-35.33
-40.13
-45.30
-51.81
-60.20
-70.44
-81.77
-92.87
-102.06
-107.65
-108.24
-103.11
-92.41
-77.18
-59.14
-40.24
-22.24
-6.21
7.57
19.57
30.68
41.81
53.45
65.53
77.47
88.28
97.00
102.88
105.51
104.79
100.89
94.20
85.33
75.18
64.80
55.08
46.53
39.03
31.98
24.60
16.36
7.24
-2.19
-11.08
-18.66
-24.56
-29.02
-32.87
-37.28
-43.40
-52.08
-63.62
-77.82
-94.04
-111.34
-128.52
-143.95
-155.67
-161.54
-159.74
-149.33
-130.64
-105.27
-75.64
-44.41
-13.72
15.05
41.27
64.69
85.06
101.87
114.35
121.82
123.99
121.29
114.86
106.24
96.98
88.24
80.57
74.05
68.49
63.60
59.17
54.98
50.77
46.21
40.96
34.74
27.53
19.53
11.10
2.68
-5.42
-13.04
-20.18
-26.90
-33.32
-39.60
-46.04
-53.16
-61.54
-71.73
-83.72
-96.72
-108.97
-117.98
-121.09
-116.18
-102.34
-80.10
-51.38
-19.00
13.99
44.90
71.82
93.69
110.22
121.65
128.49
131.28
130.55
126.81
120.55
112.41
103.09
93.33
83.76
74.77
66.44
58.52
50.70
42.67
34.34
25.88
17.57
9.69
2.27
-4.88
-12.10
-19.66
-27.63
-35.80
-43.80
-51.20
-57.73
-63.41
-68.49
-73.47
-78.92
-85.39
-93.19
-102.22
-111.72
-120.24
-125.76
-126.17
-119.89
-106.41
-86.54
-62.17
-35.74
-9.55
14.77
36.36
54.87
70.14
81.92
89.86
93.79
93.93
91.01
86.14
80.44
74.78
69.54
64.81
60.49
56.57
53.15
50.36
48.18
46.38
44.45
41.79
37.77
31.92
24.06
14.43
3.57
-7.68
-18.43
-28.03
-36.22
-43.21
-49.59
-56.12
-63.50
-72.19
-82.19
-92.96
-103.26
-111.28
-114.96
-112.56
-103.22
-87.30
-66.30
-42.35
-17.66
6.08
27.89
47.41
64.47
78.82
90.00
97.45
100.78
100.04
95.87
89.34
81.71
74.11
67.23
61.35
56.37
52.05
48.15
44.52
41.04
37.56
33.85
29.59
24.44
18.12
10.57
1.98
-7.27
-16.68
-25.79
-34.29
-42.13
-49.48
-56.70
-64.24
-72.51
-81.70
-91.59
-101.41
-109.80
-115.03
-115.47
-110.02
-98.51
-81.75
-61.27
-38.88
-16.12
5.88
26.48
45.26
61.87
75.82
86.59
93.72
97.07
96.87
93.81
88.82
82.90
76.83
70.98
65.42
59.99
54.54
49.11
43.89
39.10
34.83
30.90
26.88
22.18
16.34
9.19
0.93
-7.92
-16.75
-25.04
-32.57
-39.41
-45.88
-52.43
-59.52
-67.51
-76.59
-86.62
-96.91
-106.19
-112.72
-114.69
-110.79
-100.64
-84.99
-65.41
-43.75
-21.64
-0.12
20.24
39.13
56.09
70.51
81.63
88.94
92.40
92.46
89.93
85.76
80.75
75.43
70.09
64.88
59.92
55.28
51.00
47.01
43.12
39.07
34.60
29.57
23.92
17.67
10.85
3.45
-4.50
-12.88
-21.49
-29.97
-38.00
-45.39
-52.23
-58.89
-66.01
-74.13
-83.47
-93.63
-103.44
-111.21
-115.09
-113.68
-106.41
-93.72
-76.77
-57.09
-36.10
-14.86
5.91
25.66
43.78
59.59
72.36
81.54
86.86
88.45
86.81
82.67
76.91
70.40
63.93
58.12
53.32
49.54
46.55
43.93
41.20
38.02
34.28
30.00
25.30
20.22
14.61
8.28
1.06
-6.96
-15.41
-23.78
-31.52
-38.33
-44.21
-49.48
-54.68
-60.34
-66.95
-74.74
-83.52
-92.50
-100.32
-105.25
-105.58
-100.25
-89.12
-73.07
-53.70
-32.80
-11.89
7.98
26.22
42.50
56.58
68.15
76.87
82.50
84.95
84.39
81.27
76.30
70.33
64.20
58.62
53.97
50.38
47.67
45.44
43.29
40.79
37.71
33.93
29.47
24.40
18.76
12.59
5.88
-1.32
-8.88
-16.58
-24.16
-31.40
-38.15
-44.40
-50.27
-56.06
-62.23
-69.29
-77.58
-87.00
-96.71
-105.18
-110.40
-110.54
-104.45
-92.14
-74.75
-54.18
-32.46
-11.27
8.31
25.78
40.95
53.69
63.82
71.18
75.67
77.42
76.78
74.26
70.47
65.98
61.34
56.93
53.04
49.76
47.03
44.69
42.46
40.01
37.06
33.39
28.91
23.70
17.96
11.90
5.72
-0.54
-6.94
-13.59
-20.52
-27.60
-34.52
-40.97
-46.78
-52.09
-57.34
-63.16
-70.19
-78.69
-88.37
-98.22
-106.60
-111.53
-111.30
-104.90
-92.40
-74.99
-54.54
-33.08
-12.27
6.89
24.00
38.94
51.58
61.60
68.62
72.38
73.02
71.07
67.36
62.81
58.16
53.87
50.19
47.24
45.03
43.53
42.51
41.56
40.13
37.72
34.07
29.24
23.59
17.59
11.55
5.61
-0.36
-6.52
-12.97
-19.62
-26.26
-32.71
-38.90
-44.95
-51.13
-57.80
-65.30
-73.81
-83.19
-92.79
-101.36
-107.22
-108.62
-104.27
-93.78
-77.89
-58.23
-36.88
-15.66
4.13
21.86
37.28
50.22
60.37
67.31
70.77
70.82
68.08
63.57
58.52
53.93
50.37
47.89
46.19
44.79
43.32
41.59
39.57
37.25
34.57
31.37
27.42
22.56
16.76
10.12
2.86
-4.76
-12.47
-20.01
-27.17
-33.88
-40.19
-46.35
-52.74
-59.71
-67.58
-76.45
-86.01
-95.50
-103.59
-108.59
-108.80
-103.05
-91.11
-73.88
-53.16
-31.02
-9.28
10.91
29.03
44.88
58.22
68.67
75.75
79.17
79.13
76.29
71.67
66.36
61.26
56.87
53.38
50.67
48.48
46.51
44.44
42.00
39.02
35.41
31.15
26.28
20.85
14.88
8.36
1.27
-6.35
-14.37
-22.53
-30.52
-38.03
-44.88
-51.08
-56.88
-62.71
-69.10
-76.54
-85.31
-95.20
-105.30
-114.00
-119.24
-119.02
-112.08
-98.34
-78.93
-55.88
-31.44
-7.47
14.84
34.93
52.57
67.52
79.41
87.83
92.53
93.60
91.59
87.37
82.04
76.58
71.70
67.75
64.73
62.39
60.35
58.23
55.68
52.52
48.69
44.30
39.54
34.60
29.47
23.98
17.79
10.62
2.51
-6.13
-14.54
-21.95
-27.87
-32.36
-36.15
-40.36
-46.14
-54.18
-64.33
-75.41
-85.42
-92.10
-93.56
-88.89
-78.42
-63.37
-45.26
-25.29
-4.18
17.64
39.52
60.32
78.54
92.77
102.14
106.32
105.07
97.91
84.23
64.07
39.06
12.55
-11.28
-29.03
-39.35
-43.12
-42.47
-39.22
-34.07
-27.07
-19.07
-13.06
-13.96
-26.73
-53.55
-91.96
-135.24
-175.01
-204.64
-221.73
-228.25
-228.48
-226.10
-222.04
-214.02
-197.93
-170.23
-130.09
-80.59
-28.14
19.62
56.65
80.83
94.81
104.49
115.89
131.98
151.04
167.78
176.47
174.22
162.37
145.53
128.62
114.17
101.37
87.37
69.68
48.09
24.98
3.98
-11.97
-22.25
-28.67
-34.34
-41.82
-51.79
-62.82
-72.29
-77.87
-78.81
-76.30
-72.78
-70.75
-71.62
-75.23
-80.23
-84.98
-88.50
-90.93
-93.40
-97.26
-103.18
-110.58
-117.54
-121.27
-119.01
-108.75
-89.79
-62.88
-30.02
5.84
41.27
72.99
98.40
116.28
127.23
133.62
138.86
146.20
157.41
171.90
186.81
198.03
201.71
195.76
180.45
158.11
132.07
105.43
80.17
56.98
35.67
15.78
-2.97
-20.70
-37.47
-53.34
-68.30
-81.89
-93.24
-101.66
-107.55
-112.97
-121.33
-135.69
-156.88
-182.25
-206.23
-222.14
-224.70
-211.65
-183.82
-144.18
-96.32
-43.79
10.09
61.84
107.97
145.62
173.40
191.91
203.40
210.74
216.15
220.56
223.52
223.91
220.71
213.65
203.35
190.99
177.87
164.96
152.75
141.25
130.32
119.82
109.73
100.18
91.27
82.94
74.91
66.73
57.88
47.94
36.83
24.77
12.32
-0.08
-12.41
-25.31
-40.00
-57.82
-79.61
-105.18
-133.10
-160.89
-185.51
-203.89
-213.56
-213.04
-202.13
-182.00
-154.90
-123.75
-91.39
-60.09
-31.35
-6.13
14.80
30.71
41.05
45.89
46.15
43.59
40.34
38.14
37.93
39.66
42.66
46.12
49.50
52.58
55.37
57.87
59.86
60.89
60.33
57.55
52.09
43.79
32.86
19.84
5.46
-9.56
-24.75
-39.88
-54.92
-69.82
-84.35
-98.10
-110.61
-121.52
-130.54
-137.28
-140.98
-140.40
-134.17
-121.29
-101.75
-76.76
-48.59
-19.86
7.13
30.82
50.44
65.77
76.89
84.07
87.83
88.97
88.56
87.67
87.10
87.16
87.69
88.21
88.21
87.39
85.70
83.32
80.42
77.17
73.56
69.48
64.90
59.95
55.01
50.59
47.15
44.86
43.45
42.22
40.20
36.47
30.40
21.86
11.29
-0.23
-11.16
-19.74
-24.36
-23.99
-18.39
-8.27
4.96
19.58
33.95
46.84
57.46
65.37
70.30
72.16
70.99
67.15
61.33
54.47
47.55
41.30
36.06
31.73
28.01
24.54
21.16
17.93
15.02
12.57
10.49
8.47
6.09
2.95
-1.14
-6.04
-11.43
-16.87
-22.06
-26.89
-31.46
-35.95
-40.60
-45.62
-51.15
-57.12
-63.16
-68.44
-71.75
-71.81
-67.63
-58.93
-46.29
-31.00
-14.69
1.09
15.14
26.64
35.13
40.37
42.33
41.29
37.86
32.92
27.47
22.37
18.11
14.83
12.36
10.41
8.71
7.14
5.68
4.27
2.80
1.05
-1.27
-4.35
-8.25
-12.86
-17.92
-23.07
-27.97
-32.33
-36.03
-39.18
-42.17
-45.53
-49.77
-55.10
-61.16
-66.98
-71.07
-71.87
-68.23
-59.79
-47.10
-31.47
-14.60
1.87
16.58
28.67
37.64
43.31
45.79
45.40
42.79
38.87
34.55
30.66
27.64
25.49
23.85
22.23
20.24
17.76
14.96
12.08
9.28
6.51
3.54
0.08
-4.05
-8.80
-13.91
-18.97
-23.60
-27.52
-30.71
-33.41
-36.05
-39.18
-43.21
-48.22
-53.71
-58.64
-61.61
-61.22
-56.58
-47.56
-34.90
-20.02
-4.60
9.75
21.76
30.67
36.10
38.02
36.75
32.90
27.37
21.16
15.28
10.39
6.80
4.39
2.76
1.50
0.34
-0.78
-1.79
-2.61
-3.34
-4.22
-5.58
-7.67
-10.47
-13.71
-16.98
-19.84
-22.11
-23.88
-25.49
-27.45
-30.21
-34.03
-38.87
-44.32
-49.58
-53.55
-55.05
-53.07
-47.10
-37.31
-24.61
-10.40
3.71
16.33
26.48
33.67
37.84
39.21
38.25
35.52
31.77
27.74
24.09
21.24
19.27
17.99
17.02
15.99
14.68
13.01
10.98
8.62
5.91
2.81
-0.72
-4.61
-8.69
-12.72
-16.43
-19.67
-22.46
-24.99
-27.65
-30.88
-34.98
-40.01
-45.50
-50.47
-53.62
-53.63
-49.56
-41.26
-29.41
-15.34
-0.65
13.15
24.97
34.14
40.44
43.96
44.95
43.78
40.91
36.87
32.31
27.92
24.38
22.23
21.72
22.64
24.23
25.34
24.83
21.96
16.75
9.92
2.83
-3.20
-7.52
-10.49
-13.38
-17.67
-24.29
-33.07
-42.76
-51.41
-57.20
-59.55
-59.39
-58.64
-59.05
-61.02
-63.43
-64.23
-60.92
-51.28
-34.09
-9.31
21.76
56.19
88.98
113.15
121.62
111.09
84.84
52.50
26.49
16.53
25.32
47.40
72.54
88.33
86.70
68.79
43.71
22.29
10.68
7.50
7.66
5.83
-1.84
-16.98
-39.61
-69.00
-102.03
-134.54
-160.80
-174.78
-172.87
-156.15
-130.14
-102.92
-82.16
-72.29
-73.34
-81.41
-90.99
-97.82
-100.42
-99.53
-96.70
-93.07
-88.73
-83.22
-75.85
-66.34
-55.22
-43.73
-33.34
-25.34
-20.63
-19.53
-21.60
-25.51
-29.36
-31.45
-30.92
-27.89
-23.14
-17.41
-10.90
-3.29
5.92
16.61
27.71
37.52
44.53
48.28
49.53
49.73
49.97
50.31
49.77
46.90
41.01
32.82
24.44
18.59
17.40
21.54
30.04
40.77
51.38
60.11
66.08
69.31
70.28
69.68
68.11
66.08
63.97
61.99
60.30
58.93
57.93
57.40
57.39
57.82
58.50
59.06
59.09
58.22
56.08
52.38
46.92
39.67
30.90
21.25
11.54
2.53
-5.34
-12.13
-18.17
-23.80
-28.96
-33.01
-34.90
-33.55
-28.31
-19.27
-7.15
6.63
20.58
33.31
43.77
51.26
55.46
56.46
54.72
51.13
46.61
42.17
38.50
35.89
34.18
32.90
31.59
30.00
28.34
26.75
25.48
24.50
23.41
21.55
18.36
13.74
8.25
3.37
-0.26
-2.09
-2.48
-2.60
-3.93
-7.58
-13.75
-21.80
-29.82
-38.03
-46.52
-56.19
-68.34
-84.31
-105.15
-131.55
-163.49
-198.28
-234.25
-266.17
-287.40
-291.61
-275.07
-238.35
-186.48
-127.21
-66.18
-9.99
40.30
86.04
128.64
167.59
200.28
223.55
224.17
217.79
206.73
195.84
188.29
184.46
182.51
179.91
174.99
167.40
159.50
149.82
138.17
123.76
105.83
84.17
59.54
33.70
9.01
-10.59
-24.63
-32.24
-33.91
-31.19
-26.14
-20.61
-15.75
-12.00
-8.41
-5.80
-4.16
-3.62
-4.28
-5.95
-8.23
-10.47
-12.13
-12.43
-11.86
-10.80
-9.79
-9.38
-9.91
-11.46
-13.83
-16.74
-19.70
-22.71
-25.74
-28.92
-32.41
-36.38
-40.93
-46.10
-51.87
-58.14
-64.70
-71.02
-76.29
-79.33
-78.88
-73.95
-64.15
-49.98
-32.70
-14.05
4.21
20.73
34.77
46.21
55.24
62.14
66.98
69.59
69.71
67.20
62.31
55.82
48.89
42.75
38.30
35.77
34.53
33.37
30.88
26.00
18.57
9.35
-0.19
-8.44
-14.33
-17.75
-19.64
-21.69
-25.76
-33.25
-44.62
-59.03
-74.44
-88.02
-97.13
-100.25
-97.82
-92.14
-86.61
-84.05
-85.27
-88.11
-87.76
-78.14
-54.29
-14.65
37.65
95.16
148.23
188.14
209.96
213.92
204.64
188.67
171.69
156.56
143.33
130.79
118.22
106.46
97.42
92.79
92.98
96.97
102.88
108.72
112.76
113.14
107.22
91.35
61.33
13.40
-54.62
-142.30
-245.83
-357.40
-465.50
-556.49
-617.40
-639.28
-619.72
-563.39
-480.50
-383.71
-284.86
-192.73
-112.00
-43.70
13.71
63.11
107.10
146.65
180.45
205.56
219.04
220.00
210.39
194.19
176.19
160.02
146.97
136.12
125.86
115.05
103.91
93.44
84.28
76.73
70.18
63.23
53.91
40.73
22.99
1.25
-23.56
-50.55
-77.93
-102.90
-122.17
-133.20
-134.77
-128.37
-117.88
-106.40
-99.08
-99.20
-104.78
-108.36
-101.04
-76.90
-38.48
9.71
61.11
108.73
147.78
176.42
195.23
202.14
197.38
182.66
161.13
136.43
112.08
91.40
76.59
67.88
63.33
60.29
56.08
49.43
40.42
30.10
20.26
12.40
6.90
2.80
-1.21
-6.45
-13.37
-21.62
-30.30
-38.18
-44.23
-48.15
-50.44
-51.89
-53.52
-56.05
-59.81
-64.69
-70.01
-74.77
-77.85
-78.26
-75.24
-68.43
-57.98
-44.51
-29.05
-12.85
2.84
16.87
28.43
37.02
42.46
44.82
44.46
41.99
38.24
34.12
30.45
27.76
26.21
25.56
25.39
25.23
24.74
23.75
22.23
20.20
17.71
14.72
11.17
7.01
2.25
-3.05
-8.68
-14.38
-19.81
-24.71
-28.97
-32.66
-36.06
-39.55
-43.54
-48.38
-54.16
-60.71
-67.36
-73.04
-76.40
-76.11
-71.32
-61.92
-48.71
-33.12
-16.81
-1.19
12.84
24.86
34.78
42.54
48.01
51.03
51.56
49.88
46.55
42.30
37.81
33.60
29.89
26.77
24.20
22.21
20.88
20.27
20.32
20.81
21.31
21.27
20.18
17.70
13.76
8.59
2.64
-3.60
-9.76
-15.69
-21.49
-27.42
-33.76
-40.73
-48.39
-56.64
-65.08
-73.05
-79.53
-83.28
-83.11
-78.19
-68.40
-54.43
-37.57
-19.40
-1.34
15.53
30.55
43.31
53.48
60.80
65.14
66.63
65.73
63.18
59.82
56.33
53.17
50.47
48.18
46.13
44.12
42.00
39.67
37.08
34.20
30.96
27.26
22.92
17.74
11.61
4.65
-2.76
-10.06
-16.68
-22.30
-27.00
-31.17
-35.34
-40.03
-45.53
-51.89
-58.95
-66.27
-73.12
-78.40
-80.85
-79.26
-72.90
-61.81
-46.85
-29.49
-11.33
6.27
22.37
36.37
47.88
56.54
62.07
64.35
63.69
60.85
56.93
52.99
49.81
47.65
46.26
45.09
43.60
41.47
38.68
35.39
31.76
27.82
23.43
18.37
12.50
5.86
-1.24
-8.38
-15.11
-21.18
-26.56
-31.51
-36.47
-41.97
-48.53
-56.50
-65.93
-76.38
-86.78
-95.53
-100.78
-100.95
-95.19
-83.70
-67.67
-48.82
-28.91
-9.26
9.32
26.41
41.67
54.60
64.56
70.96
73.56
72.61
68.83
63.19
56.66
50.02
43.76
38.19
33.49
29.83
27.25
25.66
24.74
23.92
22.45
19.66
15.12
8.80
1.08
-7.32
-15.64
-23.24
-29.84
-35.55
-40.81
-46.22
-52.43
-59.82
-68.39
-77.55
-86.15
-92.64
-95.46
-93.45
-86.23
-74.30
-58.82
-41.28
-23.04
-5.11
11.89
27.66
41.95
54.42
64.69
72.38
77.28
79.47
79.36
77.57
74.70
71.23
67.36
63.14
58.59
53.80
48.99
44.45
40.28
36.39
32.40
27.75
21.95
14.77
6.30
-2.95
-12.28
-20.98
-28.52
-34.70
-39.74
-44.12
-48.50
-53.50
-59.56
-66.76
-74.75
-82.64
-89.10
-92.60
-91.72
-85.67
-74.52
-59.23
-41.31
-22.35
-3.62
14.13
30.49
45.21
57.87
67.92
74.75
78.08
78.06
75.34
70.90
65.81
60.91
56.69
53.23
50.33
47.66
44.96
42.14
39.20
36.18
32.98
29.31
24.81
19.21
12.48
4.94
-2.87
-10.32
-16.96
-22.62
-27.48
-31.94
-36.51
-41.65
-47.71
-54.76
-62.55
-70.45
-77.40
-82.08
-83.20
-79.76
-71.44
-58.64
-42.47
-24.41
-5.97
11.57
27.31
40.74
51.53
59.53
64.64
66.99
66.90
64.94
61.86
58.39
55.12
52.42
50.33
48.71
47.26
45.72
43.85
41.48
38.55
34.99
30.77
25.86
20.28
14.12
7.54
0.79
-5.79
-11.89
-17.26
-21.77
-25.48
-28.64
-31.64
-34.89
-38.76
-43.42
-48.81
-54.59
-60.12
-64.47
-66.59
-65.47
-60.46
-51.51
-39.25
-24.88
-9.85
4.50
17.16
27.56
35.50
40.99
44.21
45.44
45.09
43.70
41.82
39.92
38.32
37.04
35.93
34.71
33.15
31.07
28.47
25.40
21.97
