1595515035.00
64.000000
-0.00
-0.00
-0.00
-0.00
-0.00
-0.00
-0.00
-0.00
-0.00
-0.00
0.00
0.01
0.01
-0.00
-0.03
-0.05
-0.05
0.00
0.13
0.36
0.66
1.01
1.37
1.72
2.06
2.40
2.79
3.24
3.80
4.42
5.06
5.66
6.20
6.68
7.15
7.68
8.31
9.14
10.09
11.04
11.88
12.56
13.14
13.76
14.65
15.96
17.91
20.32
22.90
25.38
27.58
29.57
31.68
34.32
37.82
42.54
48.15
54.10
59.83
64.97
69.59
74.16
79.37
85.72
93.75
102.93
112.48
121.52
129.50
136.43
142.94
150.35
157.32
166.12
177.34
191.09
206.20
219.76
227.43
224.56
207.75
176.07
131.89
79.06
21.92
-36.26
-93.88
-150.69
-206.80
-261.99
-315.48
-365.85
-412.19
-453.76
-489.87
-519.55
-541.36
-553.56
-554.48
-543.15
-519.48
-484.69
-440.84
-390.38
-335.79
-279.18
-222.31
-166.58
-113.23
-63.35
-17.99
22.04
56.30
84.75
107.73
125.83
139.69
149.85
156.65
160.12
160.14
156.77
150.56
142.81
135.41
130.29
128.61
130.26
133.83
137.33
139.22
139.14
137.90
136.86
136.89
137.63
137.50
134.54
127.37
115.89
101.22
85.15
69.39
55.16
43.10
33.59
26.67
22.22
19.73
18.25
16.51
13.62
9.70
6.19
5.49
9.77
19.62
33.20
46.50
55.02
55.77
48.85
37.44
26.16
18.68
15.89
15.62
14.09
8.13
-3.02
-17.46
-31.64
-42.19
-47.29
-46.94
-42.39
-35.11
-26.31
-17.03
-8.39
-1.82
1.32
0.46
-3.51
-8.22
-10.81
-9.03
-2.59
6.67
15.56
21.00
21.32
16.87
9.87
3.49
0.59
2.52
8.66
16.46
22.42
23.55
18.54
8.35
-4.15
-15.40
-22.43
-23.80
-19.87
-12.32
-3.26
5.41
12.45
17.28
19.83
20.23
18.60
14.90
8.78
0.33
-9.73
-19.65
-27.11
-30.19
-28.25
-22.24
-13.96
-4.94
4.43
14.64
26.06
37.93
48.02
53.50
52.38
44.61
31.96
17.00
1.67
-13.25
-27.77
-41.88
-54.59
-64.00
-68.07
-65.69
-57.06
-43.73
-27.92
-11.97
1.88
11.83
16.61
15.81
10.27
2.16
-5.60
-10.33
-10.62
-6.85
-0.91
4.79
8.37
9.33
8.57
7.54
7.43
8.66
11.01
14.04
17.42
21.03
24.79
28.69
32.69
36.84
41.09
44.87
46.71
44.27
35.11
17.90
-6.37
-34.02
-59.30
-76.19
-80.48
-71.53
-52.57
-29.69
-9.67
2.51
5.21
0.25
-8.34
-16.50
-21.84
-24.23
-25.14
-26.31
-28.52
-31.34
-33.65
-34.62
-33.93
-32.09
-29.93
-28.08
-26.65
-25.20
-23.15
-20.19
-16.50
-12.68
-9.47
-7.22
-5.73
-4.26
-1.96
1.58
6.07
10.55
13.84
14.98
13.71
10.58
6.73
3.47
1.79
2.11
4.15
7.11
9.92
11.62
11.59
9.76
6.56
2.78
-0.67
-3.10
-4.21
-4.12
-3.16
-1.67
0.22
2.53
5.35
8.59
11.97
15.10
17.61
19.40
20.54
21.24
21.63
21.65
21.07
19.60
17.05
13.43
8.92
3.87
-1.40
-6.63
-11.57
-16.03
-19.73
-22.39
-23.84
-24.08
-23.43
-22.44
-21.70
-21.69
-22.51
-23.92
-25.42
-26.50
-26.85
-26.43
-25.42
-23.97
-22.12
-19.66
-16.31
-11.93
-6.69
-1.04
4.66
10.36
16.47
23.55
31.83
40.73
48.92
54.77
57.14
55.91
52.06
47.16
42.61
39.10
36.58
34.61
32.84
31.16
29.47
27.37
24.16
19.27
12.93
6.46
1.91
0.98
3.96
9.21
13.79
14.87
11.22
3.95
-3.80
-8.20
-6.27
2.87
17.55
34.24
48.84
58.17
60.91
57.78
50.75
42.12
33.63
26.10
19.44
12.95
5.70
-3.02
-13.27
-24.12
-33.68
-39.54
-39.70
-33.44
-21.84
-7.55
6.21
16.71
22.43
23.14
19.55
12.75
3.99
-5.51
-14.41
-21.32
-24.96
-24.67
-20.75
-14.74
-8.90
-5.31
-4.81
-6.41
-7.87
-6.82
-2.18
5.24
12.89
17.69
17.31
11.05
-0.02
-13.95
-28.73
-42.87
-55.37
-65.29
-71.64
-73.68
-71.79
-68.02
-65.90
-68.92
-78.63
-93.27
-108.02
-117.05
-116.36
-106.01
-90.22
-75.51
-67.72
-69.62
-80.11
-94.92
-108.67
-116.69
-116.30
-106.95
-89.73
-66.48
-39.23
-9.86
20.17
49.71
77.99
104.37
128.15
148.34
163.52
172.11
172.90
165.76
151.96
134.00
114.98
97.61
83.57
73.29
66.27
61.44
57.64
53.73
48.81
42.26
33.86
23.81
12.69
1.32
-9.39
-18.67
-26.06
-31.54
-35.57
-39.02
-42.82
-47.59
-53.27
-59.04
-63.60
-65.66
-64.48
-60.13
-53.42
-45.50
-37.38
-29.62
-22.31
-15.28
-8.38
-1.61
4.86
10.84
16.27
21.29
26.06
30.61
34.78
38.23
40.62
41.79
41.91
41.30
40.35
39.26
38.09
36.74
35.13
33.26
31.22
29.07
26.81
24.31
21.47
18.25
14.76
11.25
7.95
4.95
2.18
-0.50
-3.23
-6.05
-8.85
-11.43
-13.55
-14.99
-15.53
-14.98
-13.23
-10.35
-6.61
-2.52
1.40
4.79
7.53
9.75
11.63
13.21
14.36
14.87
14.61
13.65
12.30
10.94
9.83
9.07
8.59
8.24
7.94
7.64
7.35
7.07
6.80
6.50
6.18
5.81
5.37
4.84
4.18
3.39
2.49
1.51
0.45
-0.75
-2.15
-3.80
-5.63
-7.46
-9.05
-10.15
-10.62
-10.44
-9.74
-8.74
-7.64
-6.62
-5.76
-5.00
-4.25
-3.40
-2.36
-1.12
0.27
1.77
3.34
4.95
6.58
8.18
9.62
10.80
11.63
12.11
12.30
12.29
12.12
11.74
11.05
9.97
8.54
6.91
5.23
3.60
1.96
0.18
-1.82
-3.95
-5.93
-7.37
-7.99
-7.69
-6.64
-5.16
-3.55
-2.02
-0.64
0.61
1.77
2.89
4.00
5.13
6.27
7.33
8.20
8.75
8.89
8.65
8.12
7.44
6.73
6.03
5.36
4.70
4.04
3.41
2.81
2.26
1.70
1.06
0.30
-0.61
-1.66
-2.82
-4.05
-5.32
-6.66
-8.07
-9.55
-11.01
-12.29
-13.17
-13.49
-13.18
-12.32
-11.10
-9.73
-8.35
-6.98
-5.60
-4.19
-2.82
-1.61
-0.70
-0.16
0.02
-0.06
-0.30
-0.66
-1.11
-1.66
-2.25
-2.82
-3.29
-3.67
-4.05
-4.56
-5.28
-6.18
-7.15
-8.07
-8.89
-9.67
-10.50
-11.48
-12.62
-13.89
-15.18
-16.42
-17.48
-18.21
-18.40
-17.86
-16.45
-14.21
-11.30
-7.95
-4.39
-0.78
2.77
6.18
9.34
12.14
14.43
16.12
17.19
17.71
17.82
17.66
17.35
16.90
16.31
15.51
14.50
13.37
12.26
11.30
10.57
9.99
9.43
8.77
7.92
6.90
5.77
4.58
3.39
2.24
1.20
0.31
-0.47
-1.30
-2.40
-3.98
-6.03
-8.29
-10.35
-11.80
-12.39
-12.12
-11.18
-9.77
-8.02
-6.01
-3.81
-1.62
0.32
1.75
2.55
2.86
2.94
3.10
3.48
4.05
4.58
4.83
4.65
4.10
3.38
2.67
2.13
1.74
1.41
1.03
0.55
-0.03
-0.64
-1.22
-1.79
-2.37
-2.96
-3.55
-4.06
-4.45
-4.76
-5.10
-5.64
-6.48
-7.60
-8.85
-9.98
-10.73
-10.93
-10.53
-9.58
-8.25
-6.70
-5.05
-3.36
-1.64
0.15
2.00
3.86
5.62
7.19
8.46
9.39
9.95
10.12
9.89
9.24
8.23
6.96
5.62
4.42
3.52
2.97
2.68
2.48
2.12
1.43
0.35
-1.10
-2.74
-4.45
-6.11
-7.71
-9.28
-10.86
-12.43
-13.95
-15.39
-16.75
-18.04
-19.34
-20.68
-22.02
-23.23
-24.09
-24.30
-23.63
-21.96
-19.37
-16.12
-12.55
-8.96
-5.50
-2.21
0.94
3.96
6.81
9.40
11.64
13.49
14.92
15.87
16.31
16.18
15.52
14.47
13.24
12.10
11.22
10.64
10.27
9.90
9.35
8.52
7.41
6.19
5.03
4.06
3.32
2.75
2.25
1.69
0.98
0.03
-1.24
-2.88
-4.87
-7.04
-9.09
-10.67
-11.46
-11.33
-10.37
-8.81
-6.95
-5.02
-3.15
-1.38
0.30
1.86
3.29
4.58
5.70
6.66
7.47
8.14
8.65
9.03
9.28
9.43
9.48
9.42
9.22
8.81
8.17
7.35
6.45
5.61
4.94
4.45
4.04
3.55
2.84
1.86
0.68
-0.53
-1.65
-2.64
-3.60
-4.67
-5.95
-7.42
-8.92
-10.24
-11.18
-11.62
-11.52
-10.90
-9.84
-8.43
-6.75
-4.91
-3.04
-1.27
0.31
1.65
2.74
3.62
4.32
4.85
5.18
5.29
5.15
4.78
4.29
3.80
3.44
3.27
3.30
3.42
3.55
3.59
3.49
3.24
2.83
2.25
1.49
0.57
-0.47
-1.53
-2.52
-3.38
-4.16
-4.97
-5.94
-7.17
-8.65
-10.23
-11.70
-12.85
-13.49
-13.51
-12.90
-11.72
-10.08
-8.16
-6.13
-4.16
-2.34
-0.68
0.83
2.24
3.54
4.65
5.45
5.89
5.96
5.80
5.57
5.48
5.64
6.04
6.57
7.00
7.14
6.84
6.15
5.22
4.25
3.40
2.75
2.23
1.71
1.14
0.50
-0.11
-0.61
-1.00
-1.40
-1.96
-2.82
-3.98
-5.37
-6.80
-8.06
-8.99
-9.44
-9.30
-8.50
-7.05
-5.07
-2.77
-0.45
1.65
3.36
4.62
5.52
6.16
6.67
7.07
7.38
7.53
7.43
7.02
6.27
5.25
4.07
2.90
1.90
1.17
0.69
0.36
0.04
-0.41
-1.02
-1.79
-2.62
-3.46
-4.23
-4.88
-5.39
-5.78
-6.14
-6.63
-7.47
-8.80
-10.63
-12.72
-14.66
-16.01
-16.46
-15.93
-14.56
-12.65
-10.52
-8.40
-6.41
-4.56
-2.78
-1.02
0.74
2.45
3.96
5.15
5.92
6.30
6.42
6.42
6.39
6.32
6.14
5.75
5.18
4.55
4.02
3.70
3.63
3.73
3.86
3.91
3.82
3.54
3.04
2.31
1.33
0.16
-1.13
-2.47
-3.80
-5.08
-6.34
-7.56
-8.69
-9.62
-10.24
-10.44
-10.21
-9.58
-8.62
-7.42
-6.04
-4.52
-2.93
-1.38
0.01
1.14
1.95
2.50
2.82
2.96
2.86
2.45
1.68
0.62
-0.52
-1.48
-2.03
-2.06
-1.62
-0.84
0.12
1.17
2.25
3.33
4.36
5.28
6.04
6.60
6.94
7.06
6.92
6.48
5.68
4.47
2.88
1.02
-0.91
-2.64
-3.92
-4.56
-4.48
-3.78
-2.62
-1.25
0.15
1.50
2.79
4.04
5.23
6.25
6.98
7.38
7.50
7.50
7.56
7.72
7.93
8.00
7.81
7.33
6.65
5.95
5.31
4.79
4.32
3.83
3.29
2.67
1.93
1.06
0.02
-1.15
-2.34
-3.41
-4.31
-5.07
-5.84
-6.80
-8.08
-9.62
-11.25
-12.67
-13.61
-13.91
-13.55
-12.65
-11.40
-9.94
-8.35
-6.64
-4.75
-2.70
-0.57
1.49
3.33
4.85
6.04
6.94
7.62
8.09
8.33
8.31
8.05
7.64
7.23
6.97
6.95
7.13
7.38
7.47
7.27
6.68
5.71
4.46
3.07
1.68
0.40
-0.66
-1.45
-1.99
-2.39
-2.83
-3.52
-4.61
-6.08
-7.79
-9.45
-10.77
-11.52
-11.58
-10.95
-9.68
-7.89
-5.73
-3.37
-1.01
1.17
3.03
4.51
5.61
6.41
6.94
7.25
7.30
7.09
6.66
6.10
5.54
5.07
4.74
4.50
4.25
3.94
3.57
3.19
2.83
2.43
1.90
1.14
0.18
-0.84
-1.70
-2.23
-2.42
-2.41
-2.46
-2.76
-3.37
-4.24
-5.24
-6.22
-7.09
-7.77
-8.16
-8.15
-7.65
-6.66
-5.28
-3.67
-2.02
-0.46
0.99
2.31
3.55
4.65
5.58
6.23
6.58
6.63
6.44
6.14
5.80
5.49
5.21
4.93
4.60
4.20
3.73
3.17
2.51
1.73
0.83
-0.15
-1.14
-2.02
-2.70
-3.14
-3.40
-3.58
-3.84
-4.32
-5.13
-6.25
-7.60
-9.00
-10.17
-10.84
-10.83
-10.07
-8.68
-6.87
-4.87
-2.88
-1.00
0.72
2.29
3.72
5.00
6.14
7.12
7.92
8.48
8.78
8.80
8.59
8.22
7.77
7.32
6.86
6.37
5.85
5.32
4.81
4.38
3.98
3.52
2.88
1.99
0.87
-0.32
-1.35
-2.06
-2.43
-2.63
-2.94
-3.64
-4.86
-6.50
-8.33
-10.02
-11.33
-12.10
-12.26
-11.78
-10.68
-9.02
-6.92
-4.60
-2.30
-0.22
1.51
2.87
3.92
4.74
5.33
5.70
5.79
5.61
5.22
4.73
4.27
3.93
3.74
3.66
3.61
3.51
3.30
3.01
2.64
2.23
1.72
1.08
0.28
-0.61
-1.50
-2.29
-2.91
-3.41
-3.91
-4.54
-5.36
-6.38
-7.50
-8.57
-9.44
-9.91
-9.82
-9.10
-7.80
-6.10
-4.24
-2.43
-0.73
0.92
2.62
4.35
5.96
7.23
7.99
8.21
8.04
7.70
7.33
6.98
6.61
6.17
5.65
5.11
4.62
4.21
3.79
3.28
2.59
1.76
0.87
0.05
-0.68
-1.33
-1.98
-2.63
-3.23
-3.68
-3.95
-4.17
-4.58
-5.42
-6.74
-8.32
-9.74
-10.57
-10.58
-9.81
-8.53
-7.04
-5.52
-3.97
-2.31
-0.49
1.41
3.22
4.78
5.96
6.72
7.12
7.23
7.13
6.88
6.53
6.15
5.80
5.55
5.42
5.41
5.46
5.43
5.20
4.69
3.92
3.00
2.05
1.18
0.37
-0.44
-1.32
-2.26
-3.17
-3.93
-4.50
-4.99
-5.59
-6.47
-7.66
-8.93
-9.90
-10.17
-9.52
-7.99
-5.90
-3.66
-1.66
-0.10
1.04
1.87
2.55
3.18
3.79
4.40
5.00
5.57
6.09
6.46
6.57
6.36
5.85
5.16
4.49
3.98
3.69
3.52
3.35
3.05
2.57
1.92
1.16
0.30
-0.62
-1.58
-2.50
-3.32
-3.99
-4.56
-5.17
-6.01
-7.18
-8.63
-10.13
-11.33
-11.86
-11.50
-10.28
-8.44
-6.35
-4.38
-2.75
-1.48
-0.46
0.49
1.48
2.50
3.47
4.27
4.83
5.13
5.26
5.32
5.40
5.53
5.68
5.75
5.68
5.44
5.11
4.79
4.55
4.39
4.21
3.94
3.54
3.07
2.57
2.05
1.46
0.67
-0.35
-1.58
-2.93
-4.33
-5.76
-7.19
-8.54
-9.63
-10.18
-9.98
-9.00
-7.43
-5.57
-3.71
-1.99
-0.42
1.08
2.50
3.80
4.90
5.75
6.39
6.88
7.27
7.54
7.61
7.43
6.97
6.31
5.57
4.89
4.37
4.04
3.84
3.67
3.42
3.00
2.44
1.82
1.31
1.00
0.88
0.83
0.63
0.11
-0.79
-2.01
-3.42
-4.91
-6.45
-8.02
-9.52
-10.74
-11.37
-11.12
-9.90
-7.90
-5.53
-3.27
-1.46
-0.13
0.88
1.83
2.88
4.00
5.01
5.72
6.01
5.91
5.52
4.94
4.30
3.64
3.06
2.64
2.41
2.35
2.35
2.28
2.05
1.64
1.11
0.50
-0.16
-0.86
-1.60
-2.35
-3.06
-3.72
-4.40
-5.21
-6.28
-7.62
-9.11
-10.47
-11.37
-11.61
-11.17
-10.22
-9.00
-7.70
-6.36
-4.90
-3.19
-1.22
0.91
3.00
4.82
6.21
7.13
7.62
7.74
7.59
7.27
6.89
6.56
6.34
6.21
6.10
5.92
5.62
5.19
4.66
4.06
3.41
2.66
1.78
0.77
-0.34
-1.46
-2.51
-3.40
-4.12
-4.71
-5.27
-5.91
-6.75
-7.82
-9.06
-10.27
-11.20
-11.61
-11.37
-10.52
-9.27
-7.90
-6.66
-5.66
-4.86
-4.14
-3.37
-2.58
-1.95
-1.73
-2.11
-3.08
-4.40
-5.72
-6.68
-7.15
-7.17
-6.94
-6.68
-6.48
-6.32
-6.04
-5.55
-4.81
-3.93
-3.13
-2.64
-2.66
-3.29
-4.54
-6.25
-8.19
-10.07
-11.63
-12.74
-13.44
-13.83
-13.95
-13.63
-12.35
-9.29
-3.56
5.60
18.51
34.98
54.17
74.51
93.67
108.75
116.95
116.52
107.63
92.59
75.14
59.10
47.00
39.54
36.00
35.24
36.54
39.70
44.39
49.50
53.00
52.74
47.66
38.58
27.91
18.40
11.66
7.28
3.30
-2.47
-11.14
-22.06
-33.36
-43.03
-50.10
-55.02
-59.16
-63.77
-69.05
-73.90
-76.49
-75.35
-70.31
-62.68
-54.70
-48.56
-45.53
-45.67
-48.12
-51.65
-55.18
-58.00
-59.59
-59.38
-56.73
-51.22
-42.93
-32.59
-21.41
-10.58
-0.92
7.29
14.13
19.81
24.47
28.09
30.65
32.21
33.06
33.69
34.54
35.89
37.62
39.36
40.56
40.84
40.05
38.32
35.85
32.70
28.74
23.68
17.31
9.74
1.42
-6.84
-14.21
-20.05
-24.34
-27.76
-31.54
-37.11
-45.49
-56.85
-70.36
-84.34
-96.78
-105.94
-110.81
-111.41
-108.82
-104.81
-101.29
-99.52
-99.60
-100.47
-100.51
-98.47
-94.12
-88.24
-81.88
-75.55
-68.86
-61.05
-51.80
-41.94
-33.17
-27.03
-23.80
-21.88
-18.31
-10.09
4.43
24.79
48.63
72.52
93.28
108.89
119.10
125.18
129.30
133.58
139.15
145.78
152.09
156.32
157.23
154.66
149.44
142.81
135.71
128.40
120.55
111.74
101.86
91.28
80.56
70.09
59.78
49.06
37.21
23.74
8.70
-7.23
-22.89
-36.92
-48.02
-55.24
-58.15
-56.94
-52.42
-45.87
-38.78
-32.65
-28.86
-28.47
-31.99
-39.08
-48.33
-57.55
-64.37
-67.15
-65.65
-61.13
-55.67
-51.23
-48.84
-48.26
-48.12
-46.56
-41.87
-33.03
-19.99
-3.66
14.23
31.63
46.67
58.21
66.06
70.83
73.42
74.30
73.07
68.46
58.96
43.69
23.14
-0.51
-23.97
-43.84
-57.72
-64.85
-66.07
-63.26
-58.57
-54.00
-51.31
-51.85
-56.35
-64.44
-74.35
-83.19
-88.04
-87.13
-80.74
-71.02
-60.97
-52.98
-47.95
-45.26
-43.51
-41.52
-38.74
-35.14
-30.89
-26.27
-22.07
-19.96
-22.19
-30.49
-44.49
-60.76
-73.32
-75.72
-63.58
-36.50
1.86
45.35
87.70
124.31
152.62
171.42
179.72
176.39
160.65
133.21
97.09
57.51
20.72
-7.75
-24.52
-29.08
-23.30
-10.41
6.21
23.91
41.14
57.29
72.30
86.23
98.88
109.72
117.98
122.94
124.32
122.39
117.86
111.58
104.24
96.25
87.87
79.44
71.62
65.36
61.60
60.94
63.42
68.54
75.61
83.96
93.00
101.99
109.62
113.88
112.35
103.05
85.38
60.84
32.78
5.38
-17.89
-35.41
-47.77
-57.16
-66.02
-75.80
-86.30
-95.80
-101.91
-102.63
-97.12
-85.77
-69.77
-50.31
-28.12
-3.43
23.61
52.51
82.14
110.90
137.16
159.80
178.29
192.70
203.22
210.01
213.16
212.82
209.19
202.30
191.68
176.16
154.12
124.03
85.28
38.71
-13.46
-68.04
-121.90
-172.86
-220.20
-264.95
-309.73
-358.24
-413.97
-478.34
-548.73
-617.75
-674.48
-707.92
-711.09
-683.99
-633.41
-570.02
-503.87
-440.72
-381.19
-322.42
-260.79
-194.14
-122.61
-48.47
24.31
90.26
142.95
176.44
187.80
179.45
159.31
138.79
128.44
133.88
154.08
182.76
212.03
236.02
252.62
262.67
267.76
268.32
263.15
250.76
231.01
206.08
180.07
157.09
139.21
125.65
113.28
98.34
78.61
54.54
29.17
6.68
-9.54
-18.27
-20.77
-19.94
-18.84
-19.35
-21.62
-24.40
-25.95
-25.00
-21.33
-15.64
-9.10
-2.81
2.58
6.82
9.87
11.70
12.12
10.90
7.91
3.21
-2.90
-10.04
-17.80
-25.86
-33.96
-41.83
-49.20
-55.66
-60.81
-64.25
-65.77
-65.41
-63.51
-60.64
-57.42
-54.36
-51.71
-49.39
-47.11
-44.56
-41.57
-38.27
-34.96
-31.92
-29.23
-26.66
-23.76
-20.08
-15.42
-9.87
-3.76
2.54
8.83
15.12
21.54
28.16
34.82
41.08
46.44
50.48
53.11
54.63
55.55
56.45
57.86
60.21
63.93
69.35
76.48
84.52
91.76
95.72
94.10
85.64
70.59
50.62
28.07
4.95
-17.67
-39.54
-60.67
-80.50
-97.97
-111.94
-121.74
-127.56
-130.16
-130.38
-128.52
-124.14
-116.20
-104.11
-88.60
-71.88
-57.05
-46.98
-43.18
-45.04
-49.81
-52.82
-49.83
-38.65
-19.52
5.49
33.63
62.18
89.03
112.73
133.60
151.58
165.79
175.00
178.89
178.40
175.04
170.22
164.83
161.17
160.02
159.91
158.23
153.30
145.61
137.39
131.86
131.97
141.88
162.00
187.87
212.00
227.63
231.25
222.53
203.60
161.31
94.45
15.73
-55.91
-108.39
-140.34
-156.73
-164.57
-169.95
-176.45
-181.84
-182.34
-175.26
-160.31
-140.50
-118.52
-98.25
-83.15
-74.50
-68.64
-60.81
-48.07
-31.37
-13.87
0.67
9.55
12.91
12.91
12.47
11.23
5.37
-8.93
-30.97
-53.96
-69.20
-69.68
-54.09
-27.34
1.18
22.18
30.77
28.15
19.71
11.02
5.25
2.65
2.22
3.52
7.50
16.01
30.15
49.06
69.30
84.74
88.52
75.43
43.40
-6.59
-71.22
-145.48
-222.85
-294.86
-351.26
-381.79
-379.08
-341.36
-273.47
-185.62
-90.62
-0.69
74.86
130.81
166.33
184.61
191.80
195.04
200.09
209.21
220.31
228.00
226.20
211.09
182.63
144.42
101.80
59.06
17.60
-23.90
-67.54
-113.24
-156.76
-189.83
-203.52
-192.76
-159.69
-113.77
-67.85
-32.72
-12.83
-5.68
-4.62
-3.27
1.39
8.46
14.69
17.70
17.46
16.17
16.21
18.35
21.01
20.84
15.86
6.55
-4.06
-11.77
-12.21
-3.23
15.18
39.77
64.85
84.22
89.73
77.38
49.87
16.17
-13.30
-31.48
-37.20
-34.16
-27.92
-22.74
-19.23
-15.03
-6.87
7.77
28.62
53.34
78.81
101.93
119.51
128.69
123.08
101.50
67.33
27.42
-10.35
-39.97
-59.27
-69.98
-75.57
-79.05
-81.26
-81.64
-79.22
-73.61
-65.39
-56.28
-48.44
-44.65
-44.65
-47.03
-49.88
-50.87
-47.63
-38.51
-23.95
-6.59
9.36
19.79
22.21
16.74
6.19
-5.10
-12.89
-15.55
-13.59
-8.43
-0.90
9.36
23.71
43.71
69.40
99.26
128.49
152.02
167.22
175.47
181.16
189.30
202.54
219.34
234.33
237.29
220.00
180.80
125.64
64.67
7.37
-41.26
-81.13
-115.19
-151.05
-194.21
-245.12
-299.42
-351.36
-396.97
-435.55
-467.87
-474.70
-445.14
-382.23
-302.83
-226.28
-165.33
-124.50
-102.47
-95.76
-92.20
-84.73
-69.73
-46.54
-16.59
16.99
51.32
80.57
98.46
103.97
97.81
83.02
63.01
41.13
20.29
6.05
-0.99
-0.86
6.14
16.56
26.96
35.97
45.83
56.46
69.78
86.46
107.00
131.76
159.33
187.49
213.61
234.85
248.11
251.28
243.00
224.36
198.26
167.28
132.96
95.97
57.12
18.44
-16.09
-42.28
-56.99
-60.00
-54.93
-47.89
-44.70
-48.13
-56.54
-64.47
-65.60
-55.53
-33.65
-3.16
30.67
62.91
90.57
112.82
130.20
143.10
151.31
154.28
151.96
145.27
136.06
126.54
118.70
114.02
113.19
116.11
121.86
129.11
136.68
144.19
152.23
161.75
172.75
183.17
188.90
185.04
167.97
137.06
94.90
45.62
-7.36
-62.88
-121.61
-183.95
-247.71
-307.26
-354.84
-383.64
-390.48
-376.80
-347.46
-308.49
-265.28
-222.42
-184.72
-157.99
-148.43
-159.95
-191.33
-234.89
-277.97
-306.98
-311.92
-289.01
-240.32
-171.68
-90.29
-3.53
80.46
151.91
199.88
215.20
194.58
143.93
77.97
15.99
-24.71
-34.69
-14.72
25.83
74.03
118.51
152.87
175.16
185.62
184.80
173.16
152.19
125.20
97.72
75.57
63.00
60.26
63.19
65.43
61.59
50.17
33.34
16.01
3.20
-0.85
4.96
17.78
31.67
39.47
35.40
15.55
-20.56
-70.66
-123.75
-162.26
-170.65
-143.78
-88.59
-18.65
49.81
108.59
153.45
184.50
204.52
217.24
225.99
227.39
220.69
205.42
181.54
148.81
108.26
62.13
13.74
-32.46
-72.43
-101.23
-115.72
-115.75
-105.04
-89.37
-74.47
-64.37
-60.71
-64.45
-74.10
-87.68
-103.64
-121.76
-142.25
-164.44
-186.60
-206.64
-224.92
-241.20
-254.91
-264.61
-268.41
-264.19
-249.28
-222.11
-172.95
-105.93
-36.24
18.75
50.26
60.53
58.08
53.27
54.27
65.00
83.38
105.77
128.57
148.11
161.06
161.75
145.72
112.71
67.95
20.41
-17.53
-34.32
-24.00
12.82
63.37
110.34
141.03
151.67
145.53
129.86
111.26
93.44
77.31
63.20
50.78
41.51
36.75
36.05
37.68
39.32
39.44
37.83
34.87
31.58
29.13
27.90
27.20
25.74
21.58
14.42
5.90
-1.38
-4.78
-2.69
4.34
13.75
21.71
23.50
17.06
4.03
-11.65
-25.98
-36.76
-44.51
-51.85
-62.57
-81.39
-109.75
-144.80
-180.57
-210.53
-229.82
-236.54
-231.87
-208.94
-169.83
-123.89
-81.38
-46.65
-18.56
4.73
21.51
30.88
31.77
23.48
8.86
-6.66
-18.06
-22.77
-22.27
-20.28
-20.09
-23.39
-30.91
-41.27
-52.06
-61.37
-68.44
-73.17
-74.95
-72.49
-65.44
-56.19
-48.66
-46.48
-51.00
-60.16
-69.13
-72.23
-65.64
-49.42
-27.47
-4.79
15.12
31.47
45.39
58.15
69.89
79.35
84.73
84.83
80.15
72.74
65.24
59.74
57.06
56.74
57.59
58.28
58.02
56.93
56.10
57.24
61.96
70.99
83.70
98.09
111.55
121.87
128.14
131.06
132.42
134.03
136.60
139.31
140.23
137.44
130.14
118.81
104.53
87.68
67.32
41.91
11.01
-23.17
-55.63
-80.41
-93.34
-94.17
-86.57
-76.02
-66.82
-60.17
-54.29
-46.35
-34.74
-20.18
-5.10
7.92
17.58
24.22
28.97
32.73
35.46
36.39
34.85
30.99
26.01
21.64
19.32
19.52
21.60
24.22
26.02
26.10
24.23
20.73
16.21
11.44
7.22
4.31
3.28
4.24
6.76
9.95
12.83
14.66
15.19
14.51
12.79
9.96
5.91
0.85
-4.11
-6.95
-5.30
2.47
16.26
34.01
52.29
67.60
77.63
81.86
81.29
77.65
72.57
67.01
61.20
54.92
47.70
39.08
28.88
17.54
6.39
-2.27
-5.86
-2.58
7.23
20.25
30.33
29.97
12.90
-23.25
-75.23
-134.65
-190.39
-232.24
-253.99
-254.99
-239.50
-214.47
-187.10
-162.92
-144.89
-133.48
-127.08
-122.64
-116.61
-106.08
-89.87
-69.16
-47.02
-27.10
-11.99
-2.08
4.35
10.01
17.08
26.18
36.28
45.61
52.80
57.58
60.65
63.07
65.51
67.92
69.76
70.42
69.93
68.82
67.80
67.16
66.70
65.58
62.83
57.77
50.28
41.32
32.60
25.95
22.65
23.26
27.08
32.45
37.38
40.04
40.31
39.52
39.70
42.62
49.20
58.78
69.36
78.46
83.68
84.73
82.96
80.23
77.73
75.67
72.80
67.32
58.13
45.25
31.87
22.80
22.18
27.43
33.81
35.47
28.38
15.48
-5.42
-36.84
-80.30
-135.86
-198.90
-260.29
-308.38
-332.02
-324.43
-286.78
-226.90
-157.41
-91.56
-38.86
-2.44
20.10
34.00
44.01
51.89
57.73
60.95
61.60
60.99
61.12
63.27
67.01
69.95
68.59
60.81
46.82
29.18
11.83
-1.57
-9.12
-11.30
-10.42
-9.44
-10.23
-12.86
-15.82
-16.93
-14.43
-7.95
1.20
10.56
17.50
20.49
19.80
17.29
15.54
16.59
21.08
28.14
36.00
42.97
48.04
51.07
52.39
52.41
51.27
48.93
45.39
40.83
35.58
29.94
24.01
17.64
10.60
2.84
-5.28
-13.11
-19.96
-25.55
-30.16
-34.64
-39.93
-46.50
-53.85
-60.50
-64.35
-63.48
-56.90
-45.04
-29.73
-13.55
0.96
12.14
19.58
24.05
27.08
30.37
35.41
43.06
53.42
65.63
77.82
87.27
91.08
87.23
75.50
57.81
37.67
18.74
3.31
-8.55
-18.74
-29.75
-42.96
-57.46
-70.20
-77.19
-75.57
-65.17
-49.04
-32.47
-21.00
-18.34
-24.96
-38.11
-53.05
-64.80
-69.87
-66.97
-56.93
-41.95
-25.07
-9.61
1.11
4.44
-0.82
-13.48
-29.77
-44.26
-51.82
-49.81
-39.24
-24.15
-9.50
1.44
8.43
13.88
20.74
30.31
41.25
50.46
55.10
54.47
50.51
46.44
44.82
45.94
47.58
46.38
39.70
27.05
10.08
-8.29
-25.55
-40.51
-53.37
-64.67
-74.35
-81.40
-84.36
-82.60
-77.19
-71.07
-67.91
-70.47
-79.26
-92.71
-108.39
-124.38
-139.72
-153.61
-164.11
-167.75
-160.66
-140.61
-109.32
-72.79
-39.36
-16.38
-7.19
-10.25
-20.45
-32.06
-40.82
-45.69
-48.21
-50.44
-52.91
-53.88
-50.16
-39.16
-20.60
4.31
32.39
59.97
84.58
105.90
125.27
144.17
162.57
178.41
190.80
198.93
202.68
203.00
201.79
201.37
203.49
208.33
214.35
221.89
230.14
237.18
241.09
241.50
240.62
243.15
253.81
260.16
252.73
226.16
181.64
124.12
58.93
-8.66
-72.20
-123.97
-162.92
-186.04
-192.97
-187.02
-174.61
-163.95
-162.99
-174.15
-193.69
-212.94
-217.75
-198.21
-154.42
-96.76
-41.76
-6.32
3.07
-13.33
-49.01
-92.07
-131.32
-159.19
-167.99
-148.39
-100.13
-34.63
28.30
70.27
82.31
65.34
28.39
-14.79
-50.50
-69.66
-69.07
-51.80
-25.00
2.93
24.44
35.63
36.81
30.87
21.70
13.61
9.98
12.94
22.85
38.54
57.69
75.55
86.72
85.96
70.32
40.91
3.78
-31.76
-56.38
-64.21
-55.03
-33.67
-7.59
16.59
35.05
46.67
51.69
49.95
41.13
26.02
7.74
-8.70
-18.33
-18.66
-10.58
0.07
6.26
3.52
-8.42
-26.01
-44.15
-58.49
-66.59
-67.74
-62.50
-52.07
-38.38
-24.31
-12.87
-6.18
-4.43
-5.93
-7.98
-8.32
-6.17
-1.64
4.14
9.79
14.13
16.46
16.68
15.30
13.29
11.90
12.16
14.25
17.57
21.11
24.16
26.67
29.24
32.64
37.28
42.93
48.56
52.80
54.38
52.48
46.93
38.41
28.60
20.02
15.45
16.91
24.75
37.05
49.98
58.90
59.48
49.55
30.13
5.40
-18.73
-36.69
-45.37
-45.17
-39.63
-33.80
-31.77
-34.76
-40.60
-44.98
-43.73
-35.22
-21.57
-8.11
-1.16
-4.86
-18.93
-38.29
-54.99
-61.39
-53.16
-30.83
0.65
33.83
61.72
79.93
87.50
86.13
78.36
66.26
50.74
32.02
10.16
-13.48
-36.00
-53.68
-63.65
-65.40
-60.89
-53.22
-44.99
-37.97
-31.94
-25.24
-16.01
-3.74
9.66
21.23
28.69
31.77
30.75
26.88
21.66
16.37
11.63
6.76
1.53
-3.39
-7.05
-11.51
-20.64
-38.87
-68.82
-109.96
-160.26
-214.85
-267.90
-301.92
-303.92
-272.81
-221.60
-167.58
-121.94
-90.29
-72.13
-64.38
-62.47
-65.29
-68.37
-67.07
-57.18
-35.85
-6.01
28.35
63.50
98.25
133.31
167.92
201.56
227.03
250.27
263.38
259.33
233.64
186.82
124.33
55.77
-8.67
-59.65
-90.81
-103.93
-104.10
-98.07
-91.35
-86.24
-82.55
-81.03
-81.17
-81.32
-82.52
-84.05
-82.56
-72.11
-45.30
1.58
61.96
124.76
176.80
203.18
194.79
152.31
86.71
17.48
-35.91
-64.60
-64.67
-37.86
6.92
58.81
109.53
142.51
147.37
146.79
152.75
164.07
182.92
210.21
245.58
287.72
333.75
380.03
420.01
419.90
361.61
254.23
127.42
12.32
-72.87
-124.72
-148.06
-152.18
-149.04
-142.03
-130.57
-115.58
-100.46
-89.17
-84.31
-85.18
-89.75
-97.41
-104.15
-106.10
-102.75
-96.78
-91.88
-90.55
-92.75
-96.74
-100.90
-101.79
-96.95
-86.74
-73.88
-61.64
-52.14
-45.73
-41.62
-38.94
-36.08
-31.94
-26.54
-20.81
-15.82
-12.19
-10.02
-9.12
-9.10
-9.25
-9.08
-8.46
-7.61
-6.82
-6.23
-5.80
-5.41
-5.00
-4.64
-4.53
-4.92
-5.94
-7.45
-9.10
-10.43
-11.03
-10.70
-9.50
-7.68
-5.59
-3.58
-1.88
-0.59
0.28
0.84
1.23
1.58
1.99
2.46
2.89
3.16
3.08
2.60
1.75
0.67
-0.45
-1.48
-2.35
-3.08
-3.70
-4.24
-4.74
-5.24
-5.83
-6.57
-7.47
-8.37
-9.02
-9.23
-8.93
-8.33
-7.78
-7.61
-7.92
-8.59
-9.26
-9.56
-9.28
-8.39
-7.01
-5.29
-3.38
-1.40
0.52
2.23
3.56
4.45
4.93
5.17
5.30
5.42
5.52
5.52
5.35
4.97
4.37
3.60
2.70
1.72
0.67
-0.39
-1.38
-2.22
-2.82
-3.16
-3.29
-3.32
-3.41
-3.69
-4.22
-4.91
-5.57
-5.97
-5.97
-5.57
-4.92
-4.18
-3.48
-2.81
-2.11
-1.31
-0.40
0.52
1.33
1.96
2.40
2.73
3.07
3.53
4.14
4.81
5.41
5.77
5.78
5.42
4.76
3.98
3.26
2.72
2.42
2.28
2.16
1.90
1.39
0.61
-0.36
-1.41
-2.49
-3.59
-4.79
-6.10
-7.45
-8.62
-9.34
-9.37
-8.62
-7.22
-5.40
-3.42
-1.40
0.59
2.59
4.55
6.32
7.64
8.28
8.12
7.29
6.13
5.08
4.45
4.41
4.84
5.51
6.12
6.50
6.55
6.27
5.67
4.78
3.64
2.34
1.02
-0.20
-1.26
-2.18
-3.10
-4.12
-5.29
-6.52
-7.64
-8.48
-8.87
-8.76
-8.18
-7.19
-5.93
-4.50
-3.04
-1.63
-0.31
0.93
2.10
3.21
4.23
5.09
5.71
6.07
6.19
6.14
6.01
5.85
5.68
5.45
5.17
4.85
4.53
4.30
4.21
4.23
4.31
4.34
4.22
3.89
3.39
2.79
2.17
1.60
1.06
0.50
-0.13
-0.82
-1.50
-2.03
-2.28
-2.15
-1.61
-0.67
0.67
2.38
4.41
6.59
8.69
10.40
11.55
12.08
12.13
11.92
11.60
11.19
10.60
9.71
8.53
7.18
5.89
4.87
4.19
3.79
3.48
3.11
2.60
1.96
1.21
0.40
-0.53
-1.65
-2.97
-4.46
-5.94
-7.24
-8.21
-8.81
-9.12
-9.26
-9.35
-9.42
-9.40
-9.18
-8.64
-7.74
-6.50
-5.04
-3.49
-2.02
-0.72
0.33
1.12
1.71
2.18
2.64
3.13
3.65
4.09
4.33
4.28
3.99
3.59
3.29
3.24
3.46
3.88
4.35
4.73
4.94
4.90
4.56
3.86
2.85
1.68
0.60
-0.15
-0.47
-0.54
-0.67
-1.24
-2.44
-4.12
-5.77
-6.75
-6.54
-4.95
-2.19
1.24
4.78
7.88
10.29
12.03
13.22
13.95
14.18
13.82
12.83
11.33
9.37
7.15
4.85
2.57
0.27
-2.14
-4.65
-7.16
-9.47
-11.73
-14.08
-16.60
-19.34
-22.35
-25.66
-29.20
-32.82
-36.25
-39.49
-42.17
-43.49
-42.54
-38.81
-32.63
-25.34
-19.03
-13.36
-8.80
-5.64
-3.38
-0.93
2.71
7.52
12.64
17.10
20.39
22.07
21.88
19.36
14.03
6.02
-3.45
-12.03
-17.06
-16.92
-12.04
-4.38
3.48
9.49
12.82
13.79
13.27
12.35
11.77
11.80
12.41
13.41
14.39
14.91
14.62
13.51
11.86
9.93
7.82
5.71
4.28
4.90
9.32
18.49
31.23
43.84
51.42
50.19
39.65
23.27
6.83
-4.55
-8.96
-8.34
-6.79
-7.89
-12.65
-19.36
-24.98
-27.21
-25.73
-22.10
-18.57
-16.66
-16.69
-17.23
-16.81
-14.56
-10.61
-5.93
-1.81
0.64
0.90
-0.72
-3.16
-5.08
-5.31
-3.35
0.43
4.96
8.92
11.33
11.85
10.82
8.93
6.90
5.39
4.91
5.80
8.06
11.30
14.76
17.54
18.98
19.17
18.82
19.46
22.83
30.02
40.51
51.96
60.73
63.08
56.61
41.18
18.89
-6.74
-32.07
-54.24
-71.60
-83.55
-90.19
-92.16
-90.49
-86.66
-82.37
-79.10
-77.65
-77.93
-79.18
-80.62
-81.86
-83.05
-84.56
-86.63
-89.05
-91.24
-92.36
-91.50
-87.75
-80.11
-67.47
-48.85
-23.90
6.50
40.13
73.71
103.71
127.20
142.40
148.85
147.11
138.47
124.89
108.81
93.00
80.10
71.83
68.44
68.44
69.10
67.40
60.98
48.81
31.37
10.46
-11.17
-30.21
-43.42
-48.34
-44.07
-31.70
-14.15
4.66
21.04
32.53
38.35
39.20
36.44
31.48
25.12
17.47
8.16
-3.15
-16.39
-30.83
-45.17
-57.87
-67.41
-72.65
-72.94
-68.14
-58.71
-45.82
-31.27
-17.27
-5.89
1.54
4.85
5.01
3.59
2.12
1.40
1.49
1.93
2.19
2.04
1.58
1.17
1.28
2.34
4.67
8.45
13.56
19.52
25.64
31.17
35.63
38.95
41.40
43.26
44.62
45.37
45.41
44.85
43.99
43.09
42.04
40.33
37.28
32.59
26.68
20.59
15.59
12.57
11.71
12.51
14.14
15.71
16.52
15.93
13.24
7.82
-0.67
-11.93
-24.78
-37.28
-47.11
-52.34
-52.23
-47.65
-40.89
-34.87
-31.79
-32.12
-34.22
-35.12
-32.04
-24.00
-12.48
-1.10
5.99
5.92
-1.57
-13.84
-26.54
-35.18
-37.00
-31.84
-21.99
-11.16
-3.03
-0.17
-3.56
-12.24
-23.16
-31.49
-31.84
-20.46
1.98
28.96
48.98
49.75
23.75
-27.36
-92.19
-153.48
-194.60
-205.46
-185.09
-140.28
-81.49
-18.81
40.31
91.24
131.21
158.60
172.77
174.78
167.74
156.47
146.41
142.00
145.23
154.95
166.82
174.29
170.50
150.48
112.92
60.80
0.56
-59.95
-113.84
-156.80
-187.36
-206.09
-214.37
-213.56
-205.19
-191.46
-175.79
-162.36
-154.83
-154.58
-159.50
-164.14
-161.51
-145.76
-114.82
-71.47
-22.43
24.16
61.76
87.38
101.70
107.55
107.94
104.67
98.36
89.42
79.06
69.45
62.98
60.98
62.95
66.74
69.64
69.70
66.55
61.42
56.25
52.57
50.77
49.98
48.50
44.62
37.17
25.73
10.39
-8.69
-31.32
-56.65
-82.34
-104.03
-116.27
-114.53
-97.58
-68.78
-35.23
-5.11
15.63
25.14
25.63
21.23
15.59
10.47
5.97
1.81
-1.49
-2.62
-0.62
4.23
10.16
14.77
16.41
15.15
12.53
10.61
10.65
12.68
15.95
19.84
24.48
30.54
38.28
46.75
53.82
57.15
55.68
50.47
44.35
40.42
40.29
43.13
46.12
46.03
40.89
30.99
18.56
6.46
-3.21
-9.92
-14.75
-19.46
-25.52
-33.27
-42.05
-50.75
-58.37
-64.33
-68.32
-70.25
-70.10
-67.90
-63.67
-57.80
-51.21
-45.22
-41.06
-39.16
-39.04
-39.35
-38.36
-34.25
-26.26
-15.12
-2.88
7.86
15.39
19.13
19.63
18.34
18.03
20.77
26.85
34.84
42.11
47.09
48.67
46.01
38.71
29.26
20.59
14.99
13.84
17.16
26.36
41.57
60.89
81.29
103.25
127.22
152.40
176.72
197.20
215.30
232.93
250.68
267.74
287.21
311.36
340.07
370.52
397.02
417.66
429.79
429.65
386.39
287.55
146.75
-2.92
-119.49
-203.52
-261.94
-300.26
-320.09
-320.49
-297.93
-253.74
-195.79
-135.94
-86.55
-51.40
-30.47
-23.21
-30.14
-49.21
-78.83
-117.90
-164.42
-214.95
-260.02
-290.16
-299.89
-289.82
-264.00
-229.87
-195.45
-166.00
-142.99
-122.21
-99.44
-73.78
-47.79
-24.25
-4.47
12.51
28.93
46.04
63.86
79.91
90.11
91.05
82.02
65.04
43.74
21.97
2.41
-13.40
-25.61
-35.60
-44.82
-53.47
-59.79
-60.71
-53.77
-39.19
-20.79
-4.83
2.81
-0.37
-12.16
-26.75
-37.77
-41.40
-37.93
-30.90
-24.70
-22.00
-22.41
-23.11
-20.71
-13.14
-0.73
14.26
28.90
40.96
49.70
55.72
60.26
64.29
68.16
71.67
74.36
75.91
76.23
75.32
73.18
69.80
65.29
60.05
54.84
50.47
47.33
45.20
43.26
40.62
36.83
32.08
27.05
22.38
18.22
14.09
9.44
4.16
-0.97
-4.63
-6.20
-6.10
-5.77
-6.86
-10.25
-15.29
-20.42
-23.67
-23.57
-20.63
-16.57
-13.73
-14.53
-21.29
-35.34
-57.30
-85.47
-115.45
-142.56
-162.35
-172.18
-172.26
-165.65
-156.31
-148.63
-144.52
-142.67
-141.49
-139.17
-134.70
-128.36
-122.07
-117.75
-118.38
-125.24
-126.79
-114.24
-84.93
-43.92
0.18
34.43
59.75
78.59
93.21
105.19
114.43
119.21
118.56
113.14
104.57
95.51
86.65
78.03
69.57
60.00
48.51
35.95
24.90
18.27
18.85
26.53
39.56
55.47
71.27
84.45
93.32
98.41
101.64
105.03
108.20
109.90
109.31
106.11
100.66
93.72
87.11
80.31
73.14
65.41
57.59
50.72
45.67
42.66
41.03
39.15
34.27
24.65
8.92
-12.65
-37.74
-62.60
-83.18
-96.30
-100.59
-96.88
-87.35
-74.79
-61.34
-47.97
-34.59
-20.86
-6.96
6.03
16.12
21.41
20.76
14.56
4.51
-7.13
-18.44
-28.37
-36.55
-42.70
-46.06
-45.56
-40.27
-30.21
-16.88
-2.89
8.82
16.08
18.30
16.58
12.93
9.24
6.29
3.51
-0.53
-6.97
-15.70
-25.16
-33.06
-37.73
-39.08
-38.72
-39.09
-42.04
-47.72
-54.69
-60.69
-64.03
-64.26
-62.11
-58.75
-54.97
-50.83
-46.12
-40.87
-35.59
-30.89
-26.73
-22.07
-15.28
-5.11
8.21
22.67
35.19
43.10
45.34
42.90
38.16
33.57
30.63
29.70
30.40
32.41
35.74
40.53
46.54
52.96
58.62
62.62
64.81
65.92
67.15
69.59
73.79
79.48
85.71
91.05
93.93
93.03
87.81
78.79
67.60
56.33
46.65
39.00
32.27
24.38
13.43
-1.24
-18.68
-36.79
-53.33
-66.71
-76.08
-80.84
-80.19
-73.34
-60.37
-43.16
-25.47
-11.84
-5.68
-7.61
-15.18
-24.12
-30.49
-32.42
-30.70
-27.83
-26.53
-28.43
-33.58
-40.80
-48.39
-54.75
-58.90
-60.60
-60.40
-59.41
-58.83
-59.53
-61.63
-64.26
-65.75
-64.02
-57.40
-45.32
-28.74
-10.04
7.82
22.40
32.76
39.62
44.64
49.19
53.45
56.23
55.70
50.62
41.21
29.13
16.80
6.43
-0.67
-4.15
-4.42
-2.32
1.10
4.67
7.27
8.12
7.07
4.73
2.18
0.62
0.94
3.45
7.82
13.31
19.05
24.28
28.23
30.01
28.65
23.34
13.75
0.34
-15.40
-31.08
-43.97
-51.73
-53.25
-48.89
-40.37
-30.19
-20.95
-14.50
-11.45
-11.14
-12.06
-13.04
-13.40
-13.24
-13.39
-15.13
-19.48
-26.46
-34.79
-42.13
-46.56
-46.39
-40.72
-30.09
-16.78
-4.07
5.14
9.45
9.45
6.08
1.37
-2.30
-3.28
-1.75
0.18
-0.34
-5.74
-16.75
-33.38
-53.13
-71.81
-85.38
-91.88
-91.89
-87.16
-79.68
-61.20
-29.84
8.36
43.17
67.53
80.06
82.95
79.44
72.75
64.83
55.31
44.15
32.34
21.04
12.09
5.71
4.08
8.06
17.30
28.88
39.78
47.99
52.71
54.03
52.32
48.86
43.16
34.44
21.51
4.29
-15.86
-36.59
-55.69
-72.01
-82.70
-86.02
-80.90
-67.91
-48.94
-26.72
-3.67
19.18
42.51
67.78
94.57
119.81
138.23
145.31
140.27
127.37
113.87
106.23
106.76
112.35
117.12
116.32
109.08
98.14
87.17
77.75
68.36
55.80
37.58
13.84
-12.09
-35.56
-52.89
-63.14
-68.56
-73.48
-82.43
-98.82
-123.77
-155.28
-188.24
-215.89
-231.98
-232.79
-217.82
-189.11
-150.42
-106.14
-60.04
-14.80
27.51
64.80
93.38
107.45
104.37
87.62
64.60
42.73
26.97
18.78
16.53
16.67
16.09
13.85
11.11
9.66
10.93
15.15
21.43
28.50
35.58
42.73
50.70
58.93
65.21
67.30
64.31
57.24
48.31
39.41
31.28
23.24
13.79
1.40
-13.53
-28.73
-41.19
-48.47
-49.28
-43.25
-30.92
-11.35
10.89
28.29
34.03
25.49
5.37
-19.78
-42.35
-57.21
-63.12
-62.57
-58.73
-53.53
-47.22
-39.32
-30.48
-21.09
-12.83
-7.51
-6.13
-7.81
-10.18
-10.86
-8.66
-4.15
1.38
6.11
8.81
9.26
8.78
9.55
12.94
19.28
27.59
36.96
46.20
54.43
61.06
66.02
69.47
71.36
71.48
66.43
55.32
39.92
23.48
8.45
-4.08
-13.73
-20.15
-23.03
-22.75
-19.48
-14.30
-9.17
-6.09
-5.94
-8.19
-11.53
-14.62
-16.63
-16.91
-15.94
-15.22
-16.31
-19.50
-23.55
-26.47
-26.80
-24.55
-20.15
-14.61
-8.93
-3.65
1.60
6.71
10.57
10.89
5.72
-5.32
-18.79
-29.57
-35.21
-37.66
-41.96
-51.56
-64.75
-75.00
-74.74
-59.82
-32.41
0.37
31.11
56.24
75.03
89.16
101.14
112.63
123.63
132.51
132.13
121.59
102.26
77.03
49.65
23.64
1.36
-16.33
-30.04
-40.91
-48.91
-53.95
-55.82
-54.44
-50.34
-44.86
-39.66
-36.30
-35.57
-36.52
-37.76
-37.67
-34.95
-28.98
-20.17
-8.96
3.33
14.57
22.55
24.81
19.79
7.78
-8.97
-26.20
-39.87
-47.54
-49.07
-45.89
-40.23
-34.01
-28.88
-26.66
-28.65
-34.98
-43.32
-48.60
-44.59
-27.41
3.90
45.56
89.80
127.86
152.30
158.65
146.08
117.17
77.36
33.34
-5.59
-33.17
-47.24
-50.26
-47.95
-47.14
-51.28
-59.84
-68.67
-71.49
-62.99
-40.66
-5.93
35.92
76.94
108.24
122.78
116.87
91.79
53.17
9.56
-30.34
-60.05
-75.56
-78.43
-75.34
-71.57
-70.87
-75.53
-86.34
-102.52
-121.25
-137.59
-145.71
-135.49
-106.62
-65.25
-21.15
16.07
40.52
51.53
52.59
48.52
43.39
38.77
35.13
32.82
32.56
35.05
40.25
47.78
55.42
61.52
64.92
66.09
66.77
69.15
74.92
84.62
97.36
110.85
122.10
127.70
125.07
113.72
95.66
74.56
54.45
38.18
26.35
17.34
8.41
-3.08
-17.95
-34.32
-48.84
-58.49
-61.89
-59.52
-53.32
-42.37
-27.56
-10.88
5.61
19.82
29.31
31.67
25.84
12.23
-6.28
-26.08
-43.62
-56.45
-64.36
-70.10
-78.01
-87.54
-96.82
-101.32
-96.40
-79.59
-52.27
-20.67
4.26
10.43
-10.28
-58.70
-126.50
-198.92
-258.66
-290.15
-283.84
-239.90
-167.71
-81.19
5.08
79.33
133.19
157.50
146.12
107.03
60.54
26.30
12.39
14.06
19.95
19.98
11.46
0.86
-0.46
12.79
37.83
66.58
90.09
103.41
106.77
104.53
103.08
107.92
121.64
140.61
163.92
185.93
200.01
197.63
172.58
127.17
72.10
20.81
-14.84
-36.09
-47.65
-54.52
-60.19
-65.74
-69.92
-70.95
-69.85
-69.97
-75.43
-88.19
-106.71
-122.84
-129.02
-121.73
-103.23
-79.64
-57.66
-42.51
-36.12
-37.80
-43.78
-50.18
-53.57
-51.96
-45.48
-36.11
-26.77
-19.61
-15.80
-14.88
-15.65
-16.35
-15.49
-12.23
-6.11
3.16
16.09
32.86
52.81
73.79
93.05
108.18
118.17
123.71
126.74
129.30
132.32
134.99
134.99
129.99
118.93
103.02
85.59
71.08
63.31
64.00
72.32
85.33
99.35
110.69
116.35
114.67
105.55
90.25
70.78
48.95
25.61
0.13
-30.49
-70.22
-121.15
-180.57
-240.52
-289.60
-316.65
-314.49
-282.83
-230.84
-175.20
-133.78
-118.19
-129.20
-156.75
-184.82
-197.99
-186.16
-148.47
-91.53
-23.72
48.81
122.62
194.76
253.29
281.35
273.71
241.35
200.75
162.56
128.72
96.56
64.23
33.82
4.76
-22.85
-49.98
-78.33
-107.43
-133.69
-151.13
-154.03
-135.11
-95.97
-42.69
16.77
74.60
125.02
159.60
168.00
147.58
107.83
62.84
23.13
-8.78
-39.66
-74.71
-115.36
-157.85
-194.81
-213.62
-200.76
-154.58
-87.94
-21.62
28.03
54.36
60.12
53.30
41.80
29.27
16.26
3.75
-7.50
-15.07
-18.23
-18.65
-18.93
-20.44
-23.37
-26.50
-27.22
-22.74
-10.97
7.04
27.33
45.25
57.62
62.89
61.03
53.73
44.07
36.09
33.06
36.75
47.18
63.02
81.27
97.91
109.23
113.28
110.28
101.78
89.74
75.93
62.32
50.35
40.94
34.76
32.65
35.37
43.03
54.64
64.51
67.18
59.50
42.44
19.85
-3.50
-23.61
-37.80
-45.26
-47.13
-45.29
-42.49
-40.97
-42.34
-45.24
-47.65
-47.84
-44.90
-38.71
-29.01
-16.55
-2.76
10.72
22.37
30.82
35.34
36.11
34.15
31.42
28.19
22.82
12.80
-3.96
-28.15
-58.55
-92.69
-127.82
-154.61
-165.10
-157.35
-136.33
-109.40
-81.66
-54.70
-28.99
-5.75
13.12
24.61
24.69
14.32
-2.87
-21.78
-36.01
-39.63
-28.99
-4.71
26.82
55.37
71.02
67.59
41.84
-2.63
-55.49
-102.73
-131.51
-134.74
-111.60
-65.39
-1.42
72.33
147.06
213.45
262.65
287.38
283.38
251.96
200.75
141.06
81.06
24.43
-29.41
-83.00
-138.97
-199.42
-264.97
-334.41
-388.60
-408.63
-385.73
-326.63
-246.50
-160.43
-80.41
-14.45
34.10
66.49
84.40
90.02
85.91
75.13
61.15
47.32
37.09
33.50
38.49
49.88
62.47
70.60
68.49
53.19
25.71
-7.76
-37.60
-54.08
-52.72
-35.72
-10.47
14.16
31.80
40.45
43.03
44.52
49.32
59.09
73.52
92.04
115.04
143.98
175.56
206.05
230.53
244.21
243.98
229.76
204.37
172.34
138.21
105.15
75.09
48.28
23.85
0.58
-22.45
-45.10
-65.93
-82.41
-92.14
-93.84
-88.77
-80.37
-72.71
-68.70
-69.04
-72.52
-77.49
-83.25
-90.23
-99.59
-111.74
-125.35
-137.51
-145.06
-146.09
-140.72
-130.53
-117.01
-100.48
-79.99
-54.38
-23.76
9.45
40.92
65.90
81.07
85.69
81.59
72.05
60.47
49.52
40.80
35.20
33.05
34.03
37.13
40.72
43.07
42.90
39.72
33.74
25.49
15.70
5.20
-4.82
-13.04
-18.46
-20.92
-21.39
-21.65
-23.36
-27.18
-32.43
-37.60
-41.20
-42.65
-42.25
-40.77
-38.74
-36.07
-32.31
-27.22
-21.21
-15.27
-10.54
-7.68
-6.59
-6.47
-6.22
-5.05
-2.73
0.44
4.05
7.87
12.12
17.16
23.15
29.83
36.46
42.14
46.32
49.16
51.62
55.05
60.55
68.38
77.80
87.32
95.42
101.11
104.18
105.12
104.69
103.53
101.97
99.97
97.23
93.36
88.06
81.24
73.20
64.54
56.05
48.39
41.78
35.92
30.31
24.78
19.88
17.13
18.62
26.31
41.18
62.55
87.97
113.89
136.63
153.69
164.59
170.84
175.19
180.45
188.53
200.08
214.75
231.45
248.38
262.94
271.68
270.83
257.36
230.04
189.92
139.94
83.76
24.69
-34.91
-93.40
-149.61
-202.32
-250.59
-294.28
-334.38
-372.97
-412.93
-457.35
-508.65
-567.34
-630.72
-692.47
-743.62
-775.06
-780.75
-760.07
-718.02
-663.02
-603.58
-545.46
-490.81
-439.32
-390.25
-343.97
-301.94
-265.63
-235.15
-208.82
-183.84
-157.65
-129.09
-98.71
-68.45
-40.24
-15.24
6.88
27.71
49.37
73.75
102.23
135.60
174.00
216.77
261.98
306.26
345.19
374.41
390.98
394.32
386.29
370.31
350.22
329.25
309.77
293.36
281.12
273.62
270.46
269.96
269.39
265.68
256.55
241.26
220.71
196.92
172.28
148.61
126.92
107.52
90.40
75.49
62.76
52.00
42.72
34.21
25.84
17.37
9.07
1.56
-4.55
-8.99
-11.92
-13.86
-15.42
-17.20
-19.49
-22.27
-25.18
-27.53
-28.45
-27.10
-23.04
-16.46
-8.29
-0.03
6.85
11.40
13.66
14.54
15.29
16.77
18.91
20.83
21.36
19.88
16.69
12.88
9.62
7.46
6.12
4.74
2.62
-0.37
-3.67
-6.51
-8.39
-9.48
-10.41
-11.91
-14.29
-17.34
-20.44
-22.97
-24.61
-25.46
-25.88
-26.13
-26.15
-25.55
-23.84
-20.78
-16.62
-12.15
-8.36
-6.17
-6.06
-7.98
-11.46
-15.63
-19.58
-22.48
-23.96
-24.27
-24.32
-25.48
-28.95
-35.10
-43.11
-50.99
-56.26
-56.74
-51.47
-41.14
-27.89
-14.60
-3.83
3.10
6.34
7.37
8.14
10.18
14.00
19.04
24.10
28.10
30.61
31.85
32.19
31.92
31.26
30.60
31.01
34.03
41.07
52.39
66.34
79.28
86.87
85.93
76.04
59.57
40.08
20.11
-0.14
-22.22
-47.59
-75.56
-102.74
-124.25
-136.18
-137.50
-130.41
-119.03
-107.34
-97.60
-90.27
-84.93
-81.32
-79.64
-80.30
-83.10
-86.88
-89.84
-89.72
-84.55
-72.96
-54.55
-30.02
-1.20
29.31
58.78
85.04
107.19
125.58
141.47
156.11
170.08
182.76
192.56
197.59
196.42
188.79
175.67
158.95
140.76
122.83
106.06
90.59
76.14
62.49
49.71
37.95
26.94
15.71
2.92
-12.38
-29.67
-46.44
-58.99
-64.03
-60.53
-50.31
-37.02
-24.14
-13.26
-3.93
4.75
12.18
15.62
11.61
-1.37
-20.87
-40.93
-55.11
-59.98
-56.83
-50.56
-46.17
-45.71
-47.20
-46.32
-39.45
-26.09
-9.17
6.47
16.47
18.84
14.44
6.38
-1.18
-4.55
-1.62
7.33
19.88
32.33
41.16
44.50
42.58
37.31
30.93
25.01
20.06
15.70
11.14
5.63
-1.16
-8.99
-17.06
-24.30
-29.79
-33.26
-35.01
-36.10
-37.80
-40.79
-44.59
-47.64
-48.21
-45.37
-39.63
-32.07
-24.59
-19.29
-17.50
-18.81
-21.01
-21.00
-16.09
-5.26
11.61
31.93
50.86
63.29
66.46
61.21
51.32
41.75
37.08
43.03
62.67
95.02
134.89
174.50
205.32
220.31
216.65
198.17
177.97
170.38
183.57
215.35
254.64
286.89
300.51
291.81
247.06
169.50
77.56
-6.61
-72.73
-124.88
-171.32
-215.16
-252.41
-276.39
-280.62
-266.17
-241.84
-219.24
-206.18
-203.38
-206.49
-210.01
-210.25
-203.43
-188.04
-164.89
-136.58
-106.35
-77.54
-53.54
-36.89
-27.73
-21.75
-13.61
-0.01
19.38
41.53
63.08
81.01
92.57
95.29
87.92
69.88
42.20
8.21
-26.72
-56.15
-74.97
-80.75
-73.79
-55.59
-28.98
1.95
31.56
52.73
60.38
54.14
38.30
19.42
2.95
-9.68
-20.63
-33.15
-48.65
-65.14
-78.73
-85.83
-86.22
-80.41
-70.15
-56.73
-40.32
-20.63
1.81
24.33
42.53
52.06
50.64
38.84
20.03
-0.74
-18.72
-31.00
-37.36
-39.48
-39.34
-37.48
-33.00
-24.33
-10.35
8.78
31.64
55.34
74.65
84.20
81.50
67.99
48.02
26.72
7.86
-7.41
-20.14
-32.50
-45.74
-58.62
-68.17
-71.40
-67.04
-56.42
-42.67
-29.04
-15.74
-1.43
16.06
37.60
61.80
85.54
105.11
114.81
113.69
102.63
83.07
56.90
26.19
-6.24
-36.25
-59.17
-71.11
-70.12
-57.93
-40.10
-21.96
-8.58
-3.20
-5.89
-14.29
-24.93
-34.14
-39.50
-39.66
-33.70
-20.56
-1.57
20.14
39.54
51.13
51.21
39.44
19.29
-3.33
-22.86
-36.80
-45.65
-51.65
-56.38
-58.71
-54.68
-39.78
-12.60
24.35
63.48
95.28
111.92
109.97
91.12
61.86
30.85
5.69
-9.29
-14.27
-12.35
-7.71
-3.51
-0.65
3.25
11.67
25.93
43.09
56.06
57.26
42.40
12.99
-24.72
-60.86
-86.64
-98.37
-94.52
-77.84
-52.83
-23.75
8.35
36.24
53.04
57.38
53.95
49.18
46.38
44.50
39.41
26.34
2.01
-30.46
-64.02
-91.37
-108.64
-116.82
-120.09
-125.00
-132.45
-141.92
-149.67
-152.59
-149.44
-140.38
-125.50
-103.70
-72.58
-31.51
16.62
69.24
122.78
173.69
219.27
258.41
285.01
295.69
287.86
251.24
187.68
110.51
37.99
-17.49
-54.64
-81.87
-104.58
-123.91
-137.90
-138.93
-123.86
-95.72
-62.59
-33.39
-13.67
-3.25
0.64
0.71
-1.07
-5.76
-15.47
-30.79
-49.38
-66.63
-77.23
-78.19
-68.94
-49.47
-21.09
13.54
49.88
82.09
104.84
115.84
116.80
112.98
110.98
114.28
121.22
125.69
120.29
100.13
65.00
18.41
-34.86
-91.15
-149.15
-208.74
-268.82
-325.55
-372.33
-401.92
-409.29
-393.69
-358.89
-311.31
-257.21
-200.59
-142.94
-84.70
-27.19
26.49
72.21
106.79
129.41
141.78
146.92
147.88
147.03
146.28
147.67
153.20
163.74
177.75
190.95
197.90
194.59
180.75
160.05
138.17
119.80
106.62
97.21
88.70
79.06
68.44
58.90
52.91
51.76
54.74
59.49
63.22
64.13
62.08
58.31
54.53
52.11
51.37
51.56
51.32
49.32
44.94
38.57
31.45
25.07
20.41
17.45
15.29
12.75
9.07
4.40
-0.43
-4.42
-7.08
-8.63
-9.79
-11.21
-13.00
-14.65
-15.42
-14.80
-12.94
-10.44
-7.87
-5.50
-3.18
-0.54
2.72
6.52
10.42
13.66
15.60
16.01
15.21
13.90
12.95
13.17
14.89
17.70
20.14
20.20
16.14
7.20
-6.04
-21.32
-35.13
-43.69
-43.92
-35.27
-19.39
0.62
20.82
36.90
45.68
45.86
38.47
26.88
14.02
2.42
-6.02
-10.77
-13.16
-14.97
-17.68
-22.13
-28.15
-37.84
-53.53
-75.91
-103.85
-134.93
-165.49
-191.98
-211.93
-224.61
-234.75
-248.74
-271.17
-293.60
-306.36
-304.22
-288.62
-272.50
-252.89
-226.76
-193.84
-150.12
-97.65
-40.83
15.77
69.32
121.70
177.26
234.83
288.00
327.51
342.70
327.93
284.92
223.57
162.31
120.95
109.56
127.14
165.20
210.90
255.09
293.10
307.73
291.27
251.23
201.95
153.31
116.82
85.40
55.15
25.64
-2.27
-29.19
-53.54
-76.13
-98.87
-121.52
-141.97
-154.53
-155.07
-143.34
-120.70
-90.44
-58.61
-33.31
-22.73
-31.04
-53.75
-82.03
-107.04
-121.09
-121.80
-109.60
-87.72
-60.52
-32.08
-4.27
22.02
44.98
60.84
66.89
63.50
53.64
41.13
28.32
15.82
2.88
-11.46
-26.43
-39.25
-46.64
-47.15
-41.90
-34.00
-27.92
-25.80
-28.36
-34.38
-41.32
-46.77
-49.83
-50.89
-49.14
-44.71
-37.85
-29.96
-23.52
-21.40
-25.40
-35.17
-48.18
-60.97
-70.76
-75.94
-76.52
-72.80
-64.51
-50.77
-31.24
-6.90
19.08
42.28
59.91
70.77
77.24
83.96
95.47
113.88
138.14
163.46
182.51
188.20
176.02
145.69
101.34
50.99
5.58
-23.06
-26.81
-4.73
36.73
86.28
132.69
168.96
194.07
205.35
203.93
192.18
170.30
136.37
91.16
42.45
3.64
-16.25
-14.16
5.52
31.59
50.81
53.63
38.40
9.12
-26.54
-61.63
-92.28
-118.15
-141.84
-166.55
-193.79
-222.94
-252.89
-283.35
-315.19
-348.46
-380.54
-406.23
-419.39
-415.57
-394.10
-358.65
-315.55
-271.61
-231.81
-198.69
-173.08
-154.72
-142.33
-133.30
-123.78
-109.29
-86.49
-54.48
-15.46
25.78
63.27
91.58
107.41
110.38
103.34
91.30
79.82
73.20
73.00
77.92
84.58
88.79
86.72
76.15
56.84
30.98
3.27
-19.79
-31.41
-26.37
-2.49
38.82
93.66
155.79
217.56
270.93
308.96
327.43
325.71
307.02
277.34
244.86
216.53
196.18
184.11
178.25
175.60
173.16
168.62
160.80
151.92
144.92
141.85
142.53
144.89
145.97
143.10
135.00
122.14
108.85
98.97
93.79
92.04
92.18
94.69
102.00
116.40
121.60
104.78
61.49
-1.19
-69.60
-130.14
-173.21
-195.43
-200.05
-194.71
-185.13
-173.73
-160.52
-145.07
-127.95
-111.18
-97.98
-91.41
-92.62
-97.81
-101.47
-98.67
-87.29
-68.38
-45.04
-20.75
1.34
18.90
31.41
37.40
35.04
23.75
6.04
-12.95
-27.69
-35.24
-37.92
-39.54
-44.93
-57.07
-75.24
-94.72
-108.82
-112.11
-103.75
-88.83
-73.14
-66.74
-78.28
-110.31
-157.43
-208.55
-251.46
-277.33
-282.90
-268.64
-238.90
-198.18
-149.09
-92.32
-28.38
41.16
113.19
183.23
247.30
299.65
334.53
347.74
338.06
307.88
263.46
214.51
164.92
124.82
100.74
89.10
78.15
57.30
24.38
-14.25
-48.97
-72.99
-84.49
-87.96
-89.49
-92.19
-94.91
-94.40
-88.50
-77.85
-65.13
-52.55
-42.21
-34.91
-29.96
-25.85
-21.36
-16.13
-10.35
-4.16
3.01
11.06
19.33
26.85
32.80
36.49
37.55
35.27
28.72
17.44
0.31
-21.76
-45.39
-65.28
-76.30
-75.85
-64.98
-47.56
-27.93
-9.17
8.06
24.43
40.62
56.06
69.05
77.64
80.86
79.34
74.98
69.91
65.09
59.90
52.81
42.37
28.21
11.58
-4.72
-17.31
-23.38
-22.35
-15.87
-7.03
0.65
4.25
2.40
-4.13
-13.49
-22.59
-28.76
-31.30
-31.93
-34.25
-42.00
-57.13
-78.09
-97.68
-106.81
-100.33
-81.35
-58.23
-38.29
-24.45
-16.30
-11.75
-8.69
-6.18
-4.06
-3.40
-4.56
-6.52
-7.34
-5.78
-0.38
10.70
28.77
53.99
84.44
114.92
140.27
156.86
162.07
156.49
143.70
127.59
110.46
90.97
65.94
30.37
-12.34
-54.70
-87.95
-105.46
-108.46
-98.14
-78.41
-55.27
-34.93
-19.57
-13.81
-19.09
-31.85
-45.38
-52.57
-49.67
-37.18
-19.48
-3.36
1.64
-10.08
-37.37
-73.42
-108.60
-134.10
-143.76
-135.27
-101.21
-47.93
6.81
47.92
72.39
85.55
93.38
99.14
103.20
104.37
99.38
86.99
68.90
48.00
26.76
6.99
-9.56
-21.44
-28.30
-32.37
-35.84
-39.30
-41.98
-42.45
-39.23
-31.68
-19.95
-6.10
6.05
13.72
16.78
17.32
17.87
19.27
20.96
20.58
15.36
3.95
-11.63
-26.63
-36.08
-37.56
-31.93
-22.05
-10.76
0.63
12.32
24.99
37.86
48.16
52.07
46.99
33.57
15.88
-0.24
-9.74
-10.56
-4.17
5.44
13.79
17.84
16.73
11.28
2.78
-7.85
-20.12
-33.16
-45.57
-55.33
-60.17
-58.52
-50.11
-36.61
-21.15
-6.97
4.15
11.27
14.01
12.69
7.85
0.25
-9.52
-20.48
-30.41
-35.54
-32.46
-20.08
-0.26
22.37
42.60
56.09
61.04
55.48
42.26
28.53
20.91
22.93
31.01
41.12
50.32
55.31
54.67
49.02
40.01
29.38
18.89
9.98
3.97
1.10
0.62
1.69
4.10
7.74
11.68
14.80
16.32
16.69
16.57
16.08
14.66
11.44
5.62
-3.63
-15.87
-29.07
-40.30
-48.02
-52.89
-56.91
-61.39
-65.66
-68.51
-68.86
-66.79
-63.91
-63.54
-68.81
-80.35
-94.68
-100.22
-87.49
-55.51
-12.62
29.42
60.45
76.06
76.36
64.28
45.52
25.99
10.81
3.36
6.85
22.08
46.74
73.90
94.87
103.99
99.55
82.81
56.81
25.94
-4.79
-30.48
-48.09
-57.07
-59.26
-58.41
-57.68
-57.48
-55.59
-50.58
-42.09
-32.57
-25.46
-22.75
-24.03
-26.63
-27.12
-23.50
-16.59
-9.37
-5.31
-5.86
-9.36
-12.09
-10.03
-0.74
15.05
34.37
53.12
67.56
75.90
78.72
78.34
77.69
78.65
81.15
83.27
82.21
75.30
61.05
39.54
12.45
-16.81
-44.29
-66.60
-81.65
-88.75
-88.43
-81.94
-70.69
-55.91
-37.92
-17.01
5.80
28.71
49.84
67.93
82.77
94.85
100.50
96.79
83.21
61.96
36.09
8.50
-17.92
-40.23
-56.14
-64.77
-66.29
-62.19
-54.81
-46.58
-39.20
-33.36
-28.88
-25.28
-22.29
-19.77
-18.12
-18.21
-20.96
-26.16
-32.70
-38.91
-43.30
-45.10
-43.86
-39.45
-31.85
-21.17
-7.97
6.20
18.75
26.65
27.79
22.03
11.36
-1.01
-11.81
-18.71
-21.01
-19.36
-14.92
-9.00
-2.80
2.77
7.18
10.40
12.89
15.26
18.08
21.48
25.58
30.32
35.43
40.54
45.21
49.12
51.97
53.64
51.73
45.19
34.88
23.26
13.03
5.98
2.63
2.33
4.26
6.70
8.76
10.17
10.91
10.96
10.07
7.89
3.36
-3.65
-12.67
-22.13
-29.45
-32.78
-32.12
-29.31
-26.65
-26.17
-28.20
-32.52
-38.37
-45.09
-52.48
-59.83
-66.31
-70.76
-71.84
-68.60
-61.13
-50.19
-36.88
-22.31
-7.19
8.01
22.87
36.71
48.42
56.77
61.21
62.19
60.86
58.52
55.86
52.80
48.87
43.43
36.15
27.59
18.83
11.04
5.16
1.81
0.32
0.81
3.14
6.20
8.01
6.83
2.32
-4.13
-10.01
-12.94
-11.65
-6.89
-0.78
4.36
7.27
8.20
8.52
9.61
11.90
15.18
17.36
16.54
11.93
4.44
-3.54
-9.06
-9.96
-5.59
3.17
13.94
23.74
29.54
29.09
21.49
7.35
-11.23
-31.23
-49.51
-62.74
-68.03
-64.52
-53.39
-37.14
-18.64
-0.37
15.78
28.36
36.15
38.26
34.52
25.96
14.88
4.16
-3.92
-8.52
-10.41
-11.26
-12.75
-15.51
-18.87
-21.03
-20.04
-14.91
-6.19
4.29
14.22
21.53
25.21
25.16
22.17
17.52
12.51
8.35
6.15
6.56
9.16
12.28
12.73
7.66
-2.92
-15.94
-27.31
-34.24
-36.34
-36.58
-37.20
-39.47
-43.15
-46.86
-49.04
-48.93
-46.76
-42.28
-36.03
-28.28
-19.21
-8.94
2.06
12.50
20.32
23.49
21.03
13.44
3.00
-7.38
-15.19
-18.97
-18.38
-13.63
-4.76
8.56
26.28
47.48
69.74
89.69
104.07
110.65
108.75
99.10
83.35
63.54
41.93
20.74
2.10
-12.34
-21.94
-27.27
-29.75
-30.76
-30.89
-29.55
-25.54
-17.71
-5.74
9.21
24.60
37.28
44.55
45.18
39.64
29.59
17.31
5.12
-5.17
-12.53
-16.70
-18.62
-20.29
-24.65
-35.03
-53.72
-78.46
-102.08
-114.34
-108.03
-84.45
-52.13
-22.01
-2.52
3.68
0.29
-5.14
-5.43
3.37
20.48
41.76
61.84
76.12
82.11
79.63
69.70
50.71
25.37
-2.10
-27.36
-46.75
-57.53
-58.29
-49.64
-34.47
-17.22
-1.95
8.28
12.53
11.99
9.06
6.08
4.37
3.94
3.84
3.19
1.00
-3.05
-8.42
-14.11
-18.34
-19.57
-17.04
-10.98
-2.35
7.09
15.51
21.65
25.26
27.06
28.07
29.09
30.21
30.98
30.70
28.77
25.20
20.66
16.20
12.67
10.42
9.09
7.91
5.80
1.56
-6.51
-20.07
-40.08
-66.17
-96.35
-127.24
-154.47
-173.32
-180.38
-174.29
-155.82
-127.38
-92.37
-54.43
-17.23
16.48
45.26
68.33
85.34
96.43
102.38
104.60
104.88
104.71
102.35
97.09
89.09
79.16
68.15
56.71
45.54
36.95
30.28
24.37
18.31
11.10
2.13
-8.44
-19.91
-30.39
-37.85
-41.19
-40.10
-34.99
-27.02
-17.46
-7.02
4.35
17.32
32.33
48.79
65.27
79.77
90.01
94.25
92.04
84.65
74.72
65.26
58.37
54.63
52.94
50.93
46.15
37.32
24.99
11.20
-1.85
-13.29
-24.10
-36.57
-52.61
-71.93
-91.34
-105.79
-110.76
-104.40
-88.30
-66.32
-42.52
-19.65
1.02
18.47
30.79
35.31
29.99
15.29
-5.13
-25.72
-41.65
-51.21
-56.25
-60.45
-66.62
-74.80
-82.35
-85.84
-83.45
-76.32
-67.93
-61.90
-59.68
-59.46
-57.09
-48.59
-32.70
-11.95
8.29
22.56
28.16
26.64
22.90
22.59
29.21
42.27
57.81
70.64
77.10
76.56
71.02
63.51
56.27
50.03
44.37
38.81
33.69
30.24
29.49
31.22
33.57
33.95
30.26
21.76
9.22
-5.74
-20.98
-35.43
-49.51
-64.76
-82.62
-103.20
-125.03
-145.44
-161.52
-170.26
-170.18
-161.69
-146.63
-127.02
-104.00
-77.82
-48.51
-16.69
17.15
51.56
84.64
114.36
139.43
159.56
175.13
186.72
187.76
174.40
148.30
116.94
88.14
65.82
49.75
37.63
27.13
16.84
8.66
2.53
-2.09
-6.41
-11.32
-17.10
-23.39
-29.43
-34.38
-36.54
-35.12
-29.79
-21.38
-11.23
-1.22
6.73
11.40
12.80
12.70
13.28
16.49
23.02
32.64
43.67
53.62
59.93
60.59
54.68
42.30
25.05
3.55
-17.27
-31.52
-36.65
-34.92
-30.77
-27.51
-26.02
-25.37
-24.26
-21.93
-18.91
-16.19
-13.93
-11.07
-6.10
1.83
11.97
22.38
31.21
37.09
39.66
39.78
38.97
38.50
38.64
38.67
37.46
34.38
29.38
23.08
16.70
11.60
8.70
8.06
8.82
9.38
7.71
1.42
-11.69
-32.81
-61.16
-93.64
-125.17
-150.05
-163.73
-164.35
-153.45
-135.14
-114.38
-95.17
-79.47
-67.30
-57.66
-49.57
-42.78
-37.73
-35.08
-35.07
-37.15
-40.04
-42.08
-41.83
-38.48
-31.93
-22.73
-11.65
0.60
13.61
27.29
41.71
56.86
72.45
87.89
102.27
114.58
123.89
129.67
131.85
130.79
127.04
120.98
112.70
102.03
88.91
73.78
57.64
41.87
27.72
15.85
6.12
-2.27
-10.41
-19.35
-29.79
-41.92
-55.37
-69.13
-81.55
-90.61
-94.46
-92.01
-83.30
-69.44
-52.23
-33.53
-14.91
2.49
17.80
30.32
39.50
45.22
47.94
48.67
48.51
48.04
47.12
45.18
41.79
37.13
32.13
28.13
26.32
27.30
30.75
35.61
40.32
42.93
41.18
32.99
17.37
-4.77
-30.23
-54.36
-72.36
-80.63
-77.84
-65.20
-45.41
-21.50
3.76
28.04
48.68
62.97
68.80
65.63
54.69
39.11
23.02
9.30
0.72
-2.26
-1.74
-0.51
-0.15
-1.21
-4.25
-10.03
-19.65
-33.72
-51.98
-72.94
-94.28
-111.46
-121.31
-122.41
-115.24
-101.79
-84.78
-67.08
-50.84
-37.03
-25.67
-16.80
-10.77
-8.24
-9.95
-16.01
-25.64
-36.98
-47.41
-54.31
-55.93
-51.46
-41.03
-25.56
-6.52
14.29
35.12
54.66
72.17
87.29
99.84
109.55
115.81
117.65
113.92
103.74
87.11
65.29
40.70
16.51
-4.25
-19.64
-29.44
-34.95
-38.26
-41.14
-44.41
-47.93
-51.21
-54.03
-56.66
-59.52
-62.68
-65.45
-66.65
-65.26
-61.05
-54.89
-48.37
-43.07
-39.79
-38.14
-36.85
-34.43
-30.01
-23.77
-16.93
-11.13
-7.66
-6.88
-8.17
-10.40
-12.71
-15.00
-17.77
-21.53
-25.97
-29.68
-30.52
-26.56
-16.96
-2.26
16.03
36.37
57.81
80.12
103.20
126.39
148.17
166.50
179.68
187.08
189.43
188.27
185.25
181.30
176.29
169.17
158.43
142.58
120.67
92.65
59.73
24.40
-9.76
-38.92
-60.08
-72.09
-76.07
-74.92
-72.20
-70.85
-72.26
-76.27
-81.67
-87.00
-91.01
-92.90
-92.14
-88.39
-81.55
-71.94
-60.48
-48.62
-38.04
-30.24
-26.11
-25.69
-28.23
-32.46
-37.14
-41.40
-45.02
-48.31
-51.72
-55.53
-59.61
-63.47
-66.52
-68.09
-67.54
-64.21
-57.62
-47.86
-35.87
-23.33
-12.07
-3.10
4.06
11.16
20.34
32.87
48.29
64.55
79.03
89.88
96.75
100.72
103.39
105.80
107.91
108.80
107.34
102.85
95.31
85.17
72.96
59.23
44.68
30.43
17.89
8.32
2.29
-0.74
-2.22
-3.92
-7.27
-12.92
-20.78
-30.36
-41.04
-52.18
-62.91
-72.12
-78.54
-81.05
-79.18
-73.27
-64.49
-54.46
-44.80
-36.74
-30.93
-27.42
-25.79
-25.36
-25.44
-25.52
-25.41
-25.35
-25.91
-27.84
-31.75
-37.76
-45.27
-52.94
-59.05
-61.96
-60.66
-54.92
-45.23
-32.41
-17.24
-0.22
18.26
37.68
57.06
75.03
90.07
101.14
108.04
111.58
113.22
114.49
116.41
119.08
121.84
123.50
122.86
118.99
111.37
100.05
85.64
69.33
52.71
37.32
24.23
13.62
4.77
-3.59
-12.70
-23.20
-34.91
-46.93
-58.05
-67.20
-73.77
-77.66
-79.09
-78.39
-75.82
-71.56
-65.87
-59.26
-52.51
-46.55
-42.09
-39.35
-37.96
-37.13
-36.11
-34.54
-32.61
-30.89
-29.99
-30.35
-32.07
-35.06
-39.00
-43.39
-47.41
-49.92
-49.66
-45.88
-38.73
-29.43
-19.65
-10.61
-2.34
6.29
16.79
29.82
44.56
58.93
70.59
78.24
82.13
83.73
84.70
85.82
86.66
85.95
82.56
76.27
67.98
59.38
52.09
46.89
43.34
39.85
34.34
25.10
11.53
-5.61
-24.41
-42.52
-57.88
-69.21
-76.11
-78.80
-77.82
-73.81
-67.45
-59.45
-50.64
-41.96
-34.40
-28.88
-25.97
-25.68
-27.29
-29.58
-31.26
-31.72
-31.30
-31.25
-33.03
-37.56
-44.71
-53.44
-62.22
-69.69
-74.88
-77.16
-76.01
-70.92
-61.63
-48.45
-32.37
-14.87
2.53
18.73
33.12
45.42
55.38
62.77
67.46
69.75
70.45
70.76
71.82
74.37
78.55
83.93
89.66
94.66
97.83
98.23
95.41
89.63
81.86
73.35
65.05
57.08
48.78
39.20
27.99
15.83
4.35
-4.72
-10.46
-13.29
-14.68
-16.34
-19.28
-23.33
-27.38
-30.08
-30.63
-29.14
-26.51
-23.84
-21.79
-20.29
-18.68
-16.13
-12.21
-7.27
-2.42
0.80
0.90
-3.18
-11.67
-23.90
-38.31
-52.72
-64.73
-72.32
-74.44
-71.23
-63.86
-53.93
-42.92
-31.73
-20.85
-10.67
-1.76
5.10
9.41
11.35
11.97
12.81
15.31
20.15
27.05
34.92
42.34
48.06
51.36
52.20
51.12
49.09
47.17
46.14
46.14
46.60
46.43
44.49
40.16
33.69
26.06
18.67
12.62
8.41
5.78
4.00
2.28
0.14
-2.46
-5.19
-7.72
-9.95
-12.13
-14.85
-18.77
-24.30
-31.42
-39.59
-47.95
-55.62
-61.99
-66.94
-70.72
-73.77
-76.42
-78.69
-80.30
-80.74
-79.51
-76.24
-70.81
-63.39
-54.42
-44.41
-33.81
-22.89
-11.74
-0.47
10.61
20.81
29.31
35.44
39.11
40.96
42.10
43.68
46.39
50.30
54.92
59.52
63.44
66.19
67.47
67.04
64.78
60.79
55.49
49.75
44.60
41.01
39.44
39.67
40.75
41.30
39.91
35.57
28.02
17.73
5.79
-6.45
-17.74
-27.11
-34.00
-38.26
-40.09
-39.95
-38.45
-36.29
-34.09
-32.35
-31.30
-30.90
-30.80
-30.48
-29.47
-27.62
-25.25
-23.30
-23.03
-25.58
-31.43
-39.93
-49.42
-57.59
-62.27
-62.19
-57.27
-48.53
-37.45
-25.44
-13.48
-2.20
7.88
16.22
22.32
26.00
27.65
28.19
28.82
30.46
33.50
37.68
42.35
46.80
50.50
53.16
54.72
55.20
54.69
53.36
51.48
49.34
47.27
45.51
44.14
43.08
41.94
40.15
37.00
31.84
24.36
14.78
3.90
-7.08
-16.87
-24.46
-29.34
-31.55
-31.59
-30.18
-28.18
-26.45
-25.71
-26.49
-28.87
-32.38
-36.09
-38.84
-39.63
-38.07
-34.50
-30.05
-26.27
-24.68
-26.18
-30.69
-37.00
-43.12
-46.95
-47.04
-43.05
-35.82
-26.77
-17.32
-8.39
-0.22
7.22
13.91
19.59
23.83
26.41
27.53
27.83
28.09
28.96
30.63
32.92
35.42
37.68
39.36
40.35
40.71
40.63
40.40
40.26
40.26
40.28
40.01
39.10
37.35
34.83
31.86
28.86
26.10
23.55
20.82
17.35
12.65
6.59
-0.53
-7.96
-14.81
-20.28
-23.89
-25.68
-26.05
-25.57
-24.85
-24.38
-24.59
-25.89
-28.60
-32.82
-38.23
-44.04
-49.22
-52.92
-54.89
-55.63
-56.05
-56.88
-58.12
-58.95
-58.14
-54.78
-48.76
-40.86
-32.16
-23.47
-14.89
-6.04
3.48
13.44
22.91
30.57
35.41
37.26
36.91
35.76
35.11
35.70
37.50
39.85
41.85
42.66
41.70
38.79
34.18
28.64
23.32
19.50
18.13
19.49
23.00
27.44
31.34
33.51
33.32
30.80
26.38
20.70
14.41
8.11
2.41
-2.16
-5.28
-6.91
-7.40
-7.40
-7.64
-8.62
-10.47
-12.87
-15.23
-17.00
-17.95
-18.29
-18.64
-19.70
-22.15
-26.45
-32.79
-40.96
-50.27
-59.42
-66.67
-70.34
-69.34
-63.75
-54.73
-44.03
-33.23
-23.20
-13.99
-5.36
2.80
10.15
16.08
20.22
22.71
24.27
25.84
28.13
31.32
34.98
38.28
40.27
40.22
37.86
33.60
28.55
24.24
22.07
22.78
26.02
30.41
34.11
35.53
33.95
29.67
23.73
17.37
11.50
6.53
2.44
-0.95
-3.70
-5.72
-6.83
-7.01
-6.59
-6.19
-6.58
-8.43
-12.02
-17.09
-22.87
-28.25
-32.13
-33.74
-32.86
-29.90
-25.81
-21.90
-19.62
-20.24
-24.41
-31.86
-41.25
-50.36
-56.72
-58.38
-54.58
-45.94
-34.21
-21.51
-9.64
0.39
8.35
14.45
19.02
22.25
24.22
25.07
25.19
25.18
25.73
27.34
30.10
33.59
37.01
39.41
40.07
38.85
36.21
33.13
30.77
29.96
30.96
33.33
36.12
38.28
39.01
37.85
34.73
29.78
23.25
15.50
7.09
-1.17
-8.30
-13.34
-15.70
-15.41
-13.23
-10.47
-8.55
-8.55
-10.89
-15.17
-20.38
-25.32
-28.99
-30.87
-31.11
-30.36
-29.67
-30.19
-32.90
-38.23
-45.75
-54.04
-60.95
-64.31
-62.68
-55.98
-45.44
-33.04
-20.66
-9.45
0.42
9.34
17.67
25.36
31.90
36.70
39.53
40.80
41.33
42.03
43.48
45.71
48.32
50.71
52.21
52.21
50.16
45.73
38.98
30.54
21.60
13.58
7.58
4.05
2.63
2.55
3.07
3.79
4.62
5.50
6.11
5.87
4.19
0.85
-3.79
-8.88
-13.48
-16.91
-19.01
-20.17
-20.99
-22.08
-23.69
-25.73
-27.82
-29.53
-30.57
-30.91
-30.72
-30.32
-30.03
-30.19
-31.15
-33.21
-36.51
-40.70
-44.78
-47.20
-46.34
-41.19
-31.93
-20.00
-7.54
3.55
12.33
19.05
24.69
30.21
35.93
41.47
46.21
49.79
52.38
54.45
56.27
57.50
57.18
54.27
48.23
39.35
28.66
17.44
6.69
-3.03
-11.55
-18.81
-24.58
-28.49
-30.18
-29.53
-26.91
-23.14
-19.40
-17.10
-17.61
-21.95
-30.54
-42.77
-56.96
-70.54
-80.75
-85.46
-83.92
-77.01
-66.90
-56.22
-47.16
-40.72
-36.62
-33.68
-30.44
-25.82
-19.44
-11.55
-2.80
6.23
15.13
23.78
32.21
40.51
48.81
57.20
65.68
73.91
80.88
85.01
84.63
79.00
69.10
57.74
48.62
44.56
46.09
50.92
54.99
54.33
46.84
33.06
15.51
-2.64
-18.92
-32.03
-41.58
-47.51
-49.66
-47.91
-42.61
-34.89
-26.50
-19.26
-14.28
-11.41
-9.25
-5.75
0.88
11.38
25.01
39.85
53.48
63.80
69.55
70.56
67.49
61.45
53.64
45.10
36.66
28.88
22.13
16.58
12.30
9.25
7.31
6.26
5.82
5.72
5.78
6.03
6.68
8.02
10.31
13.63
17.85
22.62
27.43
31.71
34.92
36.72
36.97
35.79
33.53
30.64
27.61
24.80
22.40
20.46
18.91
17.57
16.24
14.64
12.44
9.18
4.42
-2.19
-10.68
-20.69
-31.47
-42.08
-51.76
-60.18
-67.54
-74.29
-80.77
-86.84
-91.90
-95.24
-96.43
-95.68
-93.66
-91.16
-88.59
-85.78
-82.12
-77.08
-70.78
-63.81
-56.86
-50.18
-43.58
-36.77
-29.82
-23.46
-18.75
-16.56
-16.77
-18.05
-18.31
-15.75
-9.75
-1.09
8.48
17.05
23.11
26.14
26.53
25.15
22.88
20.13
16.95
13.19
8.83
3.71
-1.93
-7.48
-12.20
-15.35
-17.01
-17.60
-17.70
-17.73
-18.25
-19.27
-20.19
-20.06
-18.02
-14.60
-11.17
-9.88
-10.09
-12.11
-16.91
-25.22
-36.13
-46.45
-52.87
-52.46
-43.99
-28.28
-8.21
12.65
31.66
47.43
61.89
75.75
89.19
101.41
110.54
113.58
107.29
89.94
60.09
23.78
-13.65
-46.17
-68.63
-78.64
-75.15
-61.58
-44.08
-29.09
-20.42
-19.18
-22.77
-26.45
-25.97
-20.05
-11.43
-3.81
1.38
6.02
11.25
16.96
21.72
22.49
17.86
8.49
-2.55
-11.22
-14.26
-11.24
-3.90
4.75
11.59
14.86
14.46
12.21
10.88
13.04
19.72
30.61
44.31
58.83
72.32
83.22
90.45
93.32
91.47
84.78
73.80
59.81
44.54
29.82
17.19
7.64
1.58
-1.16
-1.32
-0.05
1.40
1.98
1.31
-0.27
-1.83
-2.48
-1.94
-0.78
-0.06
-0.69
-2.86
-5.92
-8.63
-9.77
-8.43
-4.16
3.20
13.58
26.55
41.17
55.82
68.42
76.80
79.28
75.02
64.31
48.43
29.39
9.53
-9.03
-24.75
-36.84
-45.19
-50.19
-52.31
-52.01
-49.64
-45.50
-39.98
-33.63
-27.15
-21.36
-17.12
-15.14
-15.81
-19.08
-24.46
-31.36
-39.40
-48.65
-59.47
-72.06
-85.78
-98.75
-108.09
-110.73
-104.59
-89.58
-67.87
-43.28
-20.08
-1.69
10.27
16.01
17.12
15.66
13.39
11.41
10.15
9.68
9.99
11.10
13.01
15.48
17.91
19.47
19.37
17.22
13.28
8.42
3.74
0.18
-1.77
-2.15
-1.32
0.30
2.35
4.66
7.29
10.52
14.85
20.73
28.26
36.81
44.89
50.51
51.89
48.29
40.49
30.60
21.15
14.07
9.91
7.83
6.19
3.52
-0.78
-6.23
-11.74
-16.29
-19.45
-21.59
-23.60
-26.52
-31.21
-38.22
-47.75
-59.61
-72.94
-86.05
-96.43
-101.31
-98.55
-87.52
-69.54
-47.46
-24.84
-4.76
10.88
21.56
27.90
31.04
32.14
32.03
31.20
29.84
28.13
26.36
25.00
24.56
25.35
27.30
29.96
32.68
34.91
36.41
37.21
37.43
37.09
36.08
34.33
32.02
29.79
28.50
28.85
30.91
33.71
35.51
34.39
29.09
19.72
7.93
-3.71
-12.56
-16.94
-16.55
-12.53
-6.76
-1.24
2.52
3.73
2.22
-1.76
-7.72
-14.98
-22.74
-30.18
-36.73
-42.32
-47.49
-53.22
-60.35
-68.79
-77.20
-83.13
-83.94
-77.85
-64.89
-46.93
-26.99
-8.08
7.74
19.74
28.22
33.85
37.16
38.49
38.14
36.78
35.45
35.30
37.06
40.78
45.68
50.62
54.47
56.60
56.96
55.97
54.29
52.61
51.50
51.40
52.58
54.87
57.53
59.09
57.64
51.43
39.63
22.87
3.25
-16.27
-32.79
-44.42
-50.56
-51.80
-49.34
-44.43
-38.14
-31.36
-24.95
-19.70
-16.24
-14.79
-15.09
-16.56
-18.59
-20.83
-23.42
-27.04
-32.66
-41.18
-52.82
-66.61
-80.11
-89.86
-92.36
-85.43
-69.17
-46.23
-20.91
2.36
20.50
32.62
39.77
43.84
46.43
48.13
48.66
47.47
44.57
40.83
37.75
36.81
38.68
42.95
48.30
53.12
56.18
57.14
56.40
54.66
52.33
49.27
44.93
38.88
31.32
23.24
15.99
10.54
6.85
3.79
-0.38
-7.06
-16.66
-28.40
-40.74
-52.06
-61.15
-67.32
-70.34
-70.21
-67.20
-61.94
-55.44
-48.95
-43.54
-39.78
-37.55
-36.21
-34.86
-32.71
-29.25
-24.38
-18.35
-11.64
-4.86
1.43
6.87
11.34
14.98
18.09
20.96
23.76
26.47
28.92
30.92
32.35
33.35
34.23
35.40
37.14
39.40
41.78
43.72
44.79
44.85
44.10
42.85
41.38
39.81
38.16
36.51
35.08
34.16
33.90
34.14
34.33
33.61
31.13
26.38
19.42
10.94
2.06
-6.10
-12.75
-17.71
-21.33
-24.30
-27.27
-30.67
-34.68
-39.23
-44.10
-48.90
-53.06
-55.91
-56.83
-55.54
-52.27
-47.72
-42.82
-38.40
-34.90
-32.40
-30.63
-29.29
-28.11
-27.01
-25.98
-25.01
-24.00
-22.81
-21.37
-19.79
-18.30
-17.12
-16.16
-14.90
-12.55
-8.47
-2.61
4.37
11.39
17.48
22.36
26.47
30.63
35.39
40.62
45.51
49.07
50.63
50.25
48.65
46.83
45.60
45.23
45.46
45.65
45.14
43.51
40.77
37.26
33.58
30.29
27.80
26.26
25.52
25.07
24.11
21.68
16.92
9.38
-0.70
-12.49
-24.78
-36.38
-46.41
-54.41
-60.16
-63.55
-64.51
-63.12
-59.79
-55.22
-50.18
-45.19
-40.34
-35.45
-30.45
-25.73
-22.13
-20.57
-21.44
-24.23
-27.62
-30.04
-30.34
-28.15
-23.77
-17.83
-10.84
-3.16
4.75
12.12
17.95
21.33
22.00
20.63
18.67
17.70
18.79
22.07
26.71
31.42
34.95
36.59
36.31
34.70
32.60
30.74
29.51
28.84
28.39
27.70
26.51
24.75
22.52
19.96
17.16
14.23
11.33
8.74
6.78
5.60
4.95
4.22
2.56
-0.72
-5.80
-12.20
-18.88
-24.59
-28.27
-29.34
-27.82
-24.25
-19.53
-14.60
-10.22
-6.74
-4.05
-1.71
0.83
3.87
7.20
10.09
11.46
10.30
6.11
-0.84
-9.56
-18.64
-26.67
-32.63
-36.08
-37.07
-36.04
-33.55
-30.08
-25.97
-21.29
-15.96
-9.80
-2.75
4.98
12.80
19.87
25.31
28.61
29.83
29.73
29.47
30.21
32.65
36.74
41.73
46.48
49.89
51.34
50.83
48.94
46.52
44.34
42.86
42.16
41.88
41.30
39.46
35.30
28.07
17.65
4.90
-8.50
-20.43
-29.09
-33.53
-33.85
-30.99
-26.31
-21.05
-16.13
-12.12
-9.34
-7.89
-7.65
-8.24
-9.06
-9.49
-9.10
-7.91
-6.49
-5.96
-7.73
-13.16
-23.11
-37.46
-54.89
-72.97
-88.69
-99.18
-102.44
-97.73
-85.74
-68.22
-47.62
-26.59
-7.56
7.64
17.98
23.45
24.90
23.79
21.77
20.20
19.90
21.06
23.39
26.29
29.07
31.17
32.27
32.41
31.95
31.36
31.11
31.35
31.87
32.23
32.02
31.09
29.66
28.24
27.36
27.38
28.32
29.83
31.28
31.93
31.01
27.98
22.69
15.54
7.39
-0.61
-7.34
-12.07
-14.60
-15.29
-14.88
-14.21
-13.94
-14.42
-15.58
-17.10
-18.68
-20.24
-22.10
-24.92
-29.45
-36.22
-45.30
-56.21
-67.87
-78.73
-86.95
-90.66
-88.42
-79.73
-65.35
-47.27
-28.16
-10.57
3.74
14.20
21.13
25.32
27.50
28.13
27.53
26.11
24.55
23.65
24.01
25.76
28.43
31.20
33.23
34.12
33.98
33.37
32.91
32.96
33.42
33.83
33.67
32.65
30.82
28.56
26.35
24.56
23.37
22.71
22.34
21.86
20.80
18.65
15.03
9.87
3.57
-3.05
-8.91
-13.02
-14.80
-14.34
-12.38
-10.07
-8.64
-9.01
-11.47
-15.67
-20.75
-25.63
-29.32
-31.20
-31.20
-29.82
-28.14
-27.52
-29.22
-33.85
-41.00
-49.03
-55.43
-57.58
-53.66
-43.42
-28.35
-11.21
4.88
17.52
25.58
29.32
29.92
28.81
27.16
25.58
24.20
22.93
21.59
20.10
18.43
16.64
14.80
13.03
11.47
10.28
9.62
9.58
10.19
11.38
12.91
14.37
15.31
15.35
14.37
12.52
10.21
7.88
5.90
4.52
3.89
4.05
4.99
6.56
8.45
10.18
11.23
11.13
9.66
6.91
3.29
-0.54
-3.91
-6.33
-7.75
-8.53
-9.33
-10.78
-13.04
-15.66
-17.60
-17.69
-15.13
-9.99
-3.41
2.59
5.65
3.79
-3.85
-16.61
-32.33
-47.82
-59.70
-65.31
-63.41
-54.44
-40.32
-23.81
-7.77
5.51
14.76
19.72
20.96
19.55
16.70
13.52
10.81
8.97
7.94
7.33
6.61
5.44
3.82
2.22
1.35
1.93
4.34
8.50
13.89
19.69
24.98
28.98
31.15
31.29
29.65
26.83
23.63
20.82
18.86
17.79
17.27
16.78
15.87
14.25
11.78
8.39
4.01
-1.32
-7.36
-13.50
-18.92
-22.81
-24.71
-24.65
-23.04
-20.46
-17.31
-13.72
-9.63
-5.06
-0.32
4.00
7.13
8.36
7.19
3.36
-3.18
-12.21
-23.04
-34.25
-43.77
-49.19
-48.63
-41.54
-29.12
-14.11
0.18
11.05
17.36
19.70
19.81
19.59
20.19
21.66
23.21
23.81
22.82
20.20
16.40
11.98
7.40
2.87
-1.46
-5.30
-8.19
-9.59
-9.15
-6.92
-3.43
0.48
4.00
6.55
8.01
8.64
8.92
9.34
10.16
11.35
12.65
13.70
14.23
14.14
13.61
12.94
12.43
12.15
11.86
11.03
9.04
5.55
0.71
-4.74
-9.68
-13.01
-14.13
-13.17
-10.87
-8.24
-6.07
-4.64
-3.69
-2.72
-1.34
0.42
2.06
2.75
1.53
-2.43
-9.60
-19.87
-32.20
-44.51
-53.89
-57.30
-52.69
-40.03
-21.67
-1.79
15.02
25.40
28.31
25.12
18.72
12.14
7.42
5.26
5.23
6.44
8.06
9.53
10.46
10.54
9.48
7.18
3.91
0.36
-2.50
-3.76
-2.88
0.03
4.21
8.51
11.73
13.08
12.35
9.98
6.88
4.03
2.19
1.63
2.14
3.23
4.35
5.09
5.31
5.06
4.46
3.58
2.39
0.78
-1.32
-3.83
-6.46
-8.80
-10.39
-10.90
-10.22
-8.44
-5.80
-2.61
0.80
4.15
7.11
9.34
10.37
9.65
6.59
0.75
-7.95
-18.93
-30.84
-41.71
-49.33
-51.89
-48.64
-40.16
-28.29
-15.48
-4.01
4.72
10.46
13.86
15.87
17.22
18.11
18.28
17.44
15.62
13.30
11.24
10.04
9.86
10.31
10.73
10.56
9.65
8.31
7.11
6.54
6.81
7.70
8.82
9.72
10.15
10.02
9.42
8.47
7.33
6.18
5.20
4.55
4.27
4.32
4.53
4.72
4.73
4.45
3.88
3.02
1.92
0.54
-1.19
-3.35
-5.90
-8.64
-11.09
-12.61
-12.60
-10.74
-7.23
-2.75
1.75
5.35
7.52
8.21
7.71
6.36
4.31
1.46
-2.35
-7.18
-12.84
-18.98
-25.28
-31.48
-37.27
-42.09
-45.04
-45.03
-41.31
-33.89
-23.77
-12.63
-2.27
6.06
11.95
15.70
17.87
18.95
19.19
18.69
17.66
16.48
15.63
15.41
15.79
16.43
16.88
16.78
16.06
14.93
13.74
12.80
12.27
12.14
12.28
12.45
12.38
11.76
10.34
8.03
5.04
1.85
-0.91
-2.73
-3.39
-3.12
-2.46
-2.02
-2.21
-3.13
-4.59
-6.31
-8.13
-10.05
-12.21
-14.70
-17.41
-19.97
-21.83
-22.54
-21.88
-20.01
-17.36
-14.50
-11.91
-9.87
-8.44
-7.47
-6.78
-6.25
-5.93
-6.08
-7.09
-9.29
-12.69
-16.79
-20.64
-23.10
-23.27
-20.87
-16.35
-10.74
-5.18
-0.53
2.87
5.17
6.77
8.05
9.22
10.28
11.18
11.89
12.49
13.10
13.85
14.75
15.68
16.45
16.89
16.94
16.67
16.23
15.79
15.39
14.98
14.42
13.63
12.66
11.73
11.17
11.21
11.90
13.01
14.12
14.78
14.64
13.61
11.81
9.46
6.85
4.20
1.76
-0.27
-1.65
-2.25
-2.10
-1.43
-0.64
-0.09
0.02
-0.19
-0.44
-0.42
0.00
0.71
1.40
1.78
1.67
1.15
0.43
-0.25
-0.70
-0.87
-0.75
-0.39
0.12
0.72
1.37
2.11
3.06
4.35
6.02
7.88
9.57
10.69
10.93
10.28
8.94
7.27
5.62
4.25
3.30
2.77
2.63
2.71
2.76
2.44
1.48
-0.19
-2.48
-5.07
-7.56
-9.58
-10.86
-11.20
-10.59
-9.18
-7.34
-5.55
-4.26
-3.69
-3.73
-4.06
-4.29
-4.22
-3.86
-3.40
-3.07
-2.95
-2.94
-2.85
-2.57
-2.08
-1.45
-0.76
-0.01
0.84
1.86
3.08
4.42
5.76
6.93
7.74
8.04
7.76
6.96
5.82
4.63
3.68
3.17
3.12
3.35
3.59
3.56
3.09
2.15
0.84
-0.62
-2.00
-3.08
-3.72
-3.89
-3.65
-3.16
-2.65
-2.40
-2.57
-3.19
-4.08
-4.91
-5.38
-5.35
-4.92
-4.46
-4.40
-5.07
-6.56
-8.73
-11.30
-13.99
-16.59
-19.03
-21.26
-23.22
-24.77
-25.70
-25.72
-24.63
-22.31
-18.86
-14.51
-9.58
-4.35
0.98
6.27
11.40
16.15
20.18
23.12
24.64
24.63
23.26
20.95
18.23
15.67
13.69
12.45
11.87
11.65
11.42
10.84
9.76
8.28
6.61
5.00
3.56
2.21
0.76
-0.96
-3.02
-5.34
-7.77
-10.16
-12.40
-14.43
-16.12
-17.31
-17.80
-17.48
-16.42
-14.86
-13.17
-11.67
-10.60
-9.97
-9.68
-9.54
-9.37
-9.02
-8.41
-7.46
-6.12
-4.35
-2.16
0.34
2.97
5.43
7.46
8.89
9.66
9.90
9.76
9.37
8.78
7.94
6.86
5.62
4.46
3.71
3.70
4.59
6.32
8.59
10.97
13.03
14.52
15.41
15.87
16.17
16.50
16.92
17.38
17.78
18.04
18.12
17.99
17.57
16.75
15.45
13.69
11.67
9.68
8.02
6.83
6.05
5.46
4.80
3.94
2.87
1.75
0.73
-0.11
-0.85
-1.62
-2.54
-3.62
-4.74
-5.75
-6.60
-7.35
-8.14
-9.08
-10.13
-11.14
-11.93
-12.34
-12.37
-12.08
-11.56
-10.85
-9.96
-8.92
-7.84
-6.95
-6.56
-6.88
-7.95
-9.56
-11.32
-12.79
-13.60
-13.66
-13.06
-12.11
-11.17
-10.53
-10.32
-10.45
-10.67
-10.64
-10.10
-8.94
-7.30
-5.53
-4.02
-3.09
-2.84
-3.20
-3.94
-4.80
-5.58
-6.19
-6.57
-6.74
-6.71
-6.52
-6.28
-6.08
-6.00
-6.05
-6.12
-6.02
-5.60
-4.81
-3.78
-2.85
-2.37
-2.63
-3.64
-5.13
-6.64
-7.65
-7.83
-7.11
-5.68
-3.84
-1.93
-0.18
1.24
2.25
2.81
3.00
2.99
3.03
3.34
4.02
5.04
6.22
7.37
8.38
9.26
10.00
10.47
10.32
9.10
6.42
2.23
-3.03
-8.50
-13.08
-15.73
-15.75
-12.92
-7.52
-0.25
7.79
15.34
21.20
24.46
24.79
22.52
18.52
13.86
9.47
6.01
3.80
3.08
4.03
6.83
11.40
17.24
23.41
28.77
32.34
33.67
32.97
30.97
28.57
26.52
25.16
24.38
23.88
23.32
22.52
21.52
20.48
19.59
19.03
19.00
19.82
21.86
25.44
30.56
36.69
42.74
47.33
49.27
47.96
43.71
37.56
30.96
25.21
21.02
18.40
16.81
15.55
14.13
12.41
10.61
9.05
7.91
7.19
6.76
6.51
6.41
6.52
6.83
7.23
7.48
7.28
6.34
4.45
1.50
-2.44
-7.05
-11.77
-15.97
-19.14
-21.23
-22.67
-24.24
-26.61
-30.09
-34.40
-38.88
-42.80
-45.68
-47.39
-48.07
-47.89
-46.94
-45.18
-42.54
-39.11
-35.20
-31.24
-27.66
-24.71
-22.43
-20.62
-19.00
-17.36
-15.64
-13.99
-12.58
-11.55
-10.86
-10.35
-9.80
-9.07
-8.09
-6.94
-5.74
-4.65
-3.89
-3.59
-3.83
-4.50
-5.34
-6.02
-6.33
-6.26
-6.04
-6.00
-6.31
-6.88
-7.32
-7.17
-6.22
-4.65
-2.99
-1.88
-1.73
-2.51
-3.80
-5.05
-5.83
-6.03
-5.87
-5.66
-5.66
-6.05
-6.94
-8.55
-11.16
-15.00
-20.05
-25.98
-32.31
-38.64
-44.77
-50.61
-56.00
-60.45
-63.25
-63.75
-61.83
-58.24
-54.35
-51.57
-50.83
-52.15
-54.82
-57.80
-59.97
-60.42
-58.60
-54.18
-47.17
-37.95
-27.25
-15.95
-4.74
6.19
17.12
27.85
37.70
45.22
48.62
46.48
38.45
25.52
9.95
-5.24
-17.49
-24.82
-26.36
-22.52
-15.08
-6.92
-1.33
-0.77
-2.80
-4.17
-1.55
5.69
15.03
22.82
26.84
27.70
28.48
32.99
42.74
56.40
70.16
80.08
84.38
84.31
82.86
82.30
82.88
80.94
72.56
56.26
34.79
14.39
1.83
1.02
11.04
26.83
41.50
49.88
50.25
44.27
35.17
25.69
16.83
8.15
-0.94
-10.19
-18.44
-24.16
-26.36
-25.06
-21.46
-17.39
-14.48
-13.47
-14.19
-15.60
-16.48
-15.91
-13.61
-10.06
-6.12
-2.64
-0.13
1.34
2.07
2.50
2.94
3.45
3.84
3.86
3.34
2.34
1.09
-0.07
-0.87
-1.18
-1.08
-0.79
-0.53
-0.43
-0.50
-0.63
-0.71
-0.64
-0.42
-0.11
0.15
0.24
0.08
-0.35
-0.94
-1.60
-2.24
-2.81
-3.34
-3.89
-4.51
-5.22
-5.96
-6.65
-7.22
-7.72
-8.23
-8.89
-9.80
-10.94
-12.17
-13.25
-13.88
-13.86
-13.07
-11.62
-9.66
-7.45
-5.16
-2.97
-1.01
0.61
1.78
2.50
2.83
2.98
3.16
3.50
4.00
4.50
4.75
4.53
3.74
2.45
0.88
-0.66
-1.91
-2.71
-3.09
-3.20
-3.28
-3.53
-4.05
-4.80
-5.64
-6.40
-6.94
-7.21
-7.17
-6.81
-6.10
-5.01
-3.59
-1.96
-0.26
1.33
2.71
3.83
4.71
5.36
5.80
6.05
6.13
6.08
6.02
6.02
6.16
6.44
6.78
7.05
7.15
7.00
6.63
6.15
5.69
5.43
5.47
5.79
6.23
6.57
6.62
6.28
5.63
4.82
4.00
3.22
2.42
1.50
0.40
-0.85
-2.14
-3.34
-4.40
-5.29
-6.01
-6.51
-6.68
-6.41
-5.62
-4.33
-2.67
-0.85
0.81
2.04
2.57
2.34
1.44
0.13
-1.19
-2.15
-2.51
-2.22
-1.38
-0.26
0.84
1.66
2.03
1.88
1.24
0.18
-1.18
-2.71
-4.22
-5.43
-6.00
-5.66
-4.33
-2.18
0.38
2.85
4.81
6.04
6.57
6.57
6.24
5.69
4.95
4.00
2.86
1.62
0.44
-0.56
-1.30
-1.76
-1.98
-2.03
-2.00
-1.96
-2.03
-2.32
-2.88
-3.69
-4.63
-5.53
-6.27
-6.74
-6.88
-6.59
-5.80
-4.45
-2.61
-0.50
1.57
3.26
4.40
4.94
5.01
4.80
4.47
4.11
3.69
3.21
2.66
2.13
1.69
1.40
1.22
1.03
0.69
0.09
-0.75
-1.72
-2.67
-3.47
-4.07
-4.48
-4.73
-4.83
-4.76
-4.50
-4.05
-3.47
-2.79
-1.99
-0.97
0.39
2.11
4.04
5.89
7.30
7.97
7.81
6.95
5.67
4.29
3.11
2.26
1.75
1.48
1.30
1.06
0.69
0.19
-0.39
-0.97
-1.47
-1.90
-2.25
-2.57
-2.87
-3.17
-3.47
-3.81
-4.20
-4.64
-5.01
-5.11
-4.74
-3.75
-2.15
-0.16
1.89
3.69
5.04
5.92
6.45
6.80
7.12
7.43
7.69
7.79
7.62
7.14
6.41
5.57
4.87
4.47
4.44
4.69
4.97
4.98
4.48
3.37
1.68
-0.45
-2.81
-5.08
-6.87
-7.73
-7.39
-5.84
-3.43
-0.73
1.62
3.25
4.10
4.39
4.39
4.22
3.78
2.84
1.16
-1.29
-4.30
-7.47
-10.35
-12.58
-13.96
-14.44
-14.07
-12.88
-10.93
-8.28
-5.13
-1.84
1.07
3.08
3.91
3.62
2.61
1.47
0.69
0.46
0.65
0.92
1.03
0.89
0.72
0.79
1.34
2.35
3.66
5.00
6.18
7.20
8.13
9.06
9.93
10.53
10.55
9.80
8.27
6.26
4.21
2.54
1.47
0.98
0.81
0.69
0.42
-0.02
-0.47
-0.75
-0.75
-0.52
-0.21
-0.06
-0.18
-0.58
-1.11
-1.58
-1.85
-1.89
-1.76
-1.55
-1.24
-0.73
0.13
1.40
2.99
4.66
6.06
6.95
7.25
7.06
6.56
5.94
5.28
4.58
3.85
3.06
2.28
1.52
0.83
0.18
-0.43
-0.99
-1.46
-1.81
-2.02
-2.13
-2.20
-2.32
-2.55
-2.93
-3.45
-4.05
-4.66
-5.14
-5.35
-5.22
-4.74
-4.00
-3.10
-2.14
-1.16
-0.18
0.78
1.69
2.46
3.05
3.40
3.54
3.51
3.39
3.24
3.08
2.90
2.66
2.35
1.99
1.58
1.17
0.78
0.40
0.03
-0.35
-0.73
-1.10
-1.46
-1.82
-2.19
-2.58
-2.95
-3.22
-3.33
-3.27
-3.07
-2.79
-2.43
-1.98
-1.38
-0.59
0.35
1.35
2.27
2.97
3.39
3.52
3.40
3.12
2.78
2.47
2.29
2.27
2.33
2.39
2.30
1.97
1.44
0.79
0.17
-0.27
-0.49
-0.54
-0.57
-0.73
-1.10
-1.65
-2.30
-2.90
-3.34
-3.56
-3.54
-3.26
-2.70
-1.89
-0.87
0.24
1.25
2.02
2.48
2.65
2.63
2.55
2.52
2.55
2.61
2.60
2.45
2.11
1.65
1.19
0.87
0.78
0.91
1.15
1.34
1.34
1.09
0.60
-0.02
-0.69
-1.32
-1.86
-2.29
-2.62
-2.85
-2.96
-2.95
-2.77
-2.40
-1.83
-1.06
-0.11
0.98
2.09
3.10
3.81
4.11
3.97
3.48
2.83
2.26
1.88
1.72
1.69
1.66
1.56
1.40
1.23
1.06
0.86
0.58
0.14
-0.45
-1.10
-1.71
-2.19
-2.55
-2.85
-3.16
-3.50
-3.77
-3.79
-3.40
-2.56
-1.32
0.11
1.52
2.74
3.67
4.29
4.59
4.57
4.24
3.69
3.08
2.63
2.47
2.57
2.78
2.88
2.70
2.22
1.58
0.94
0.46
0.14
-0.09
-0.35
-0.74
-1.23
-1.76
-2.24
-2.65
-3.02
-3.41
-3.84
-4.24
-4.44
-4.25
-3.58
-2.49
-1.23
-0.11
0.69
1.18
1.53
1.92
2.38
2.80
2.97
2.79
2.34
1.87
1.63
1.71
1.98
2.20
2.12
1.71
1.05
0.36
-0.18
-0.52
-0.69
-0.79
-0.92
-1.15
-1.52
-2.03
-2.64
-3.24
-3.66
-3.72
-3.33
-2.50
-1.40
-0.24
0.80
1.63
2.21
2.58
2.78
2.80
2.65
2.36
2.00
1.67
1.42
1.30
1.23
1.14
0.99
0.75
0.47
0.21
0.02
-0.09
-0.18
-0.34
-0.66
-1.17
-1.83
-2.55
-3.22
-3.75
-4.08
-4.15
-3.92
-3.35
-2.44
-1.27
-0.02
1.08
1.86
2.22
2.26
2.13
2.00
1.91
1.79
1.55
1.16
0.68
0.31
0.16
0.27
0.52
0.69
0.66
0.41
0.05
-0.26
-0.43
-0.49
-0.53
-0.65
-0.90
-1.24
-1.61
-1.95
-2.22
-2.38
-2.37
-2.14
-1.64
-0.93
-0.07
0.79
1.52
2.05
2.32
2.35
2.20
1.91
1.57
1.23
0.93
0.69
0.53
0.42
0.36
0.34
0.35
0.40
0.45
0.50
0.51
0.47
0.37
0.21
0.04
-0.13
-0.31
-0.54
-0.88
-1.33
-1.78
-2.11
-2.11
-1.71
-0.96
-0.05
0.80
1.38
1.65
1.68
1.62
1.59
1.61
1.61
1.50
1.22
0.83
0.44
0.18
0.09
0.14
0.21
0.21
0.12
-0.03
-0.18
-0.30
-0.41
-0.55
-0.73
-0.92
-1.08
-1.20
-1.31
-1.49
-1.77
-2.12
-2.39
-2.43
-2.16
-1.59
-0.81
0.05
0.88
1.60
2.13
2.42
2.41
2.12
1.62
1.04
0.54
0.21
0.09
0.13
0.23
0.31
0.31
0.19
-0.04
-0.32
-0.59
-0.76
-0.80
-0.71
-0.59
-0.56
-0.74
-1.17
-1.80
-2.49
-3.07
-3.37
-3.31
-2.88
-2.15
-1.23
-0.26
0.64
1.38
1.92
2.24
2.35
2.31
2.15
1.93
1.70
1.49
1.31
1.15
0.99
0.78
0.47
0.02
-0.56
-1.18
-1.65
-1.80
-1.55
-0.95
-0.26
0.25
0.33
-0.08
-0.84
-1.75
-2.58
-3.18
-3.46
-3.42
-3.07
-2.48
-1.75
-1.05
-0.51
-0.19
-0.05
0.03
0.10
0.17
0.17
0.04
-0.20
-0.42
-0.49
-0.32
0.07
0.55
0.97
1.20
1.19
0.92
0.43
-0.22
-0.93
-1.52
-1.85
-1.82
-1.48
-0.99
-0.58
-0.43
-0.57
-0.90
-1.25
-1.48
-1.50
-1.32
-0.98
-0.50
0.12
0.86
1.62
2.28
2.65
2.68
2.34
1.77
1.11
0.50
0.05
-0.20
-0.25
-0.15
0.07
0.35
0.63
0.86
1.00
1.01
0.85
0.53
0.06
-0.49
-1.00
-1.37
-1.55
-1.53
-1.41
-1.28
-1.16
-1.06
-0.89
-0.59
-0.15
0.39
0.91
1.38
1.75
2.06
2.32
2.49
2.51
2.33
1.95
1.44
0.94
0.56
0.36
0.33
0.40
0.48
0.48
0.34
0.03
-0.48
-1.10
-1.69
-2.07
-2.13
-1.92
-1.62
-1.50
-1.76
-2.42
-3.31
-4.11
-4.51
-4.33
-3.61
-2.53
-1.38
-0.39
0.29
0.68
0.82
0.82
0.74
0.63
0.48
0.27
-0.02
-0.31
-0.51
-0.54
-0.38
-0.12
0.11
0.15
-0.14
-0.78
-1.66
-2.59
-3.40
-4.00
-4.33
-4.43
-4.41
-4.43
-4.68
-5.14
-5.65
-6.01
-6.08
-5.76
-5.07
-4.10
-3.07
-2.23
-1.46
-0.52
0.67
2.02
3.42
4.96
6.95
9.73
13.51
18.69
25.23
32.34
38.59
42.54
43.44
41.60
38.05
34.10
31.60
31.88
35.26
41.15
48.52
56.53
64.52
71.34
71.02
58.90
34.40
1.99
-31.59
-60.60
-81.61
-93.37
-97.01
-95.31
-90.64
-84.52
-77.44
-69.30
-59.93
-49.17
-37.33
-24.10
-9.61
6.26
23.38
40.71
56.00
66.30
67.18
58.69
43.75
26.53
11.02
-0.24
-6.84
-10.08
-12.17
-14.77
-18.40
-23.12
-29.19
-37.17
-47.31
-59.01
-68.97
-74.01
-71.14
-58.73
-39.17
-15.23
8.86
29.14
43.35
51.45
54.79
55.40
52.93
48.19
41.45
32.35
21.16
9.32
-1.05
-8.40
-12.25
-13.40
-13.15
-12.86
-13.37
-14.51
-15.47
-15.42
-14.34
-12.33
-9.65
-6.54
-3.47
-1.13
-0.00
-0.12
-0.88
-1.28
-0.27
2.83
7.94
14.09
20.09
25.21
29.53
33.55
37.50
39.31
36.62
27.41
10.99
-11.26
-36.21
-60.01
-79.21
-91.55
-96.02
-92.43
-81.40
-64.34
-43.39
-21.43
-1.52
13.63
22.45
24.89
22.49
17.93
13.07
9.23
6.77
5.29
3.57
0.27
-5.39
-12.93
-20.66
-26.18
-27.05
-22.08
-11.69
1.85
15.40
26.19
32.94
35.90
36.40
36.10
34.66
32.33
29.43
26.70
25.31
26.44
30.42
36.35
42.30
46.16
46.85
44.49
40.30
35.82
32.16
29.49
27.22
24.55
20.96
16.66
12.18
8.13
4.94
2.75
1.40
0.58
-0.05
-0.72
-1.44
-2.15
-2.79
-3.37
-4.03
-5.02
-6.61
-8.93
-11.81
-14.80
-17.34
-18.96
-19.42
-18.86
-17.69
-16.48
-15.75
-15.79
-16.58
-17.88
-19.33
-20.60
-21.50
-21.97
-22.04
-21.80
-21.40
-21.07
-21.19
-22.15
-24.12
-26.90
-29.94
-32.57
-34.38
-35.28
-35.58
-35.73
-35.91
-35.89
-35.06
-32.95
-29.59
-25.67
-21.92
-18.98
-16.96
-15.46
-13.71
-11.05
-7.39
-3.39
-0.16
1.61
1.86
1.19
0.80
2.06
6.00
12.75
21.36
30.15
37.85
43.83
48.16
51.48
54.60
58.12
62.13
66.35
67.66
64.42
57.42
49.34
42.32
36.54
30.84
24.22
16.78
9.70
4.85
3.63
5.45
8.79
11.94
13.69
13.61
11.90
8.98
5.52
1.97
-1.71
-5.81
-10.40
-15.40
-20.52
-25.37
-29.59
-32.70
-34.43
-34.87
-34.38
-33.35
-32.07
-30.62
-28.98
-27.20
-25.33
-23.55
-22.10
-21.07
-20.37
-19.80
-19.13
-18.33
-17.61
-17.31
-17.75
-18.99
-20.67
-22.06
-22.22
-20.28
-15.73
-8.61
0.54
10.80
21.14
30.65
38.69
44.89
49.09
51.32
51.71
50.54
48.25
45.42
42.63
40.27
38.39
36.61
34.26
30.63
25.28
18.13
9.51
0.01
-9.67
-18.91
-27.24
-34.41
-40.42
-45.47
-49.80
-53.56
-56.69
-58.94
-59.93
-59.32
-56.92
-52.72
-46.82
-39.34
-30.28
-19.54
-6.92
7.82
24.76
43.57
63.29
82.24
98.22
109.13
113.50
111.05
102.70
90.19
75.51
60.31
45.68
32.19
20.14
9.75
1.15
-5.70
-11.11
-15.52
-19.32
-22.54
-24.81
-25.52
-24.24
-21.06
-16.74
-12.54
-9.71
-9.00
-10.39
-13.07
-15.81
-17.46
-17.41
-15.70
-13.00
-10.20
-8.10
-7.08
-7.09
-7.75
-8.61
-9.39
-9.99
-10.53
-11.10
-11.72
-12.24
-12.48
-12.33
-11.88
-11.38
-11.19
-11.58
-12.54
-13.80
-14.88
-15.30
-14.87
-13.75
-12.38
-11.30
-10.88
-11.14
-11.71
-12.08
-11.78
-10.62
-8.74
-6.54
-4.45
-2.85
-1.91
-1.56
-1.60
-1.76
-1.83
-1.72
-1.49
-1.25
-1.12
-1.11
-1.15
-1.12
-0.94
-0.65
-0.36
-0.25
-0.40
-0.76
-1.19
-1.48
-1.52
-1.36
-1.19
-1.24
-1.70
-2.54
-3.61
-4.61
-5.32
-5.66
-5.71
-5.61
-5.50
-5.40
-5.23
-4.86
-4.22
-3.29
-2.12
-0.84
0.44
1.55
2.29
2.51
2.12
1.23
0.07
-0.99
-1.67
-1.84
-1.56
-1.05
-0.55
-0.25
-0.23
-0.52
-1.10
-1.93
-2.95
-4.08
-5.15
-5.99
-6.48
-6.59
-6.37
-5.94
-5.45
-4.93
-4.38
-3.70
-2.81
-1.67
-0.34
1.01
2.18
2.96
3.28
3.18
2.78
2.27
1.79
1.41
1.16
1.02
0.94
0.90
0.85
0.77
0.69
0.65
0.71
0.90
1.11
1.24
1.18
0.95
0.60
0.25
-0.01
-0.09
0.05
0.37
0.86
1.56
2.47
3.55
4.66
5.61
6.23
6.42
6.07
5.26
4.34
3.74
3.84
4.74
6.24
7.92
9.28
9.68
8.95
7.45
5.88
4.72
4.01
3.45
2.77
1.78
-0.17
-3.34
-7.40
-11.71
-15.66
-18.84
-20.88
-21.24
-19.83
-18.02
-17.15
-17.83
-20.00
-23.45
-28.27
-34.42
-41.25
-47.97
-54.86
-61.55
-66.84
-69.36
-68.53
-65.05
-60.06
-54.53
-41.41
-19.26
6.82
28.77
42.38
49.24
53.59
56.86
61.61
67.95
73.20
75.16
73.39
68.89
64.39
60.63
57.32
54.16
50.52
45.22
38.20
30.81
25.11
22.68
23.62
27.02
31.69
35.88
37.35
34.55
27.08
15.74
1.90
-13.01
-27.35
-39.46
-48.58
-55.28
-60.95
-67.18
-74.85
-84.13
-94.54
-105.08
-114.54
-122.33
-128.76
-134.59
-140.23
-144.82
-146.63
-143.53
-133.45
-114.94
-87.96
-54.30
-17.55
17.73
47.60
68.94
80.17
81.89
77.03
69.95
64.92
64.85
70.73
82.45
98.23
115.03
129.52
139.03
141.77
136.87
124.41
101.28
69.86
37.51
11.96
-3.41
-9.53
-9.14
-4.74
1.90
9.54
17.83
25.80
31.94
34.69
33.47
29.07
23.73
20.24
21.08
28.14
41.13
57.39
73.03
84.77
89.02
84.50
72.12
54.34
34.48
15.03
-2.94
-19.53
-35.02
-49.26
-61.30
-69.94
-74.28
-73.97
-69.76
-63.25
-56.35
-50.63
-46.87
-44.86
-43.78
-42.68
-40.69
-37.33
-32.47
-26.24
-18.89
-10.79
-2.32
5.91
13.07
18.27
20.76
20.33
17.39
12.85
7.72
2.87
-1.20
-4.42
-7.05
-9.52
-12.36
-16.22
-21.77
-29.44
-39.02
-49.42
-58.94
-65.82
-68.72
-66.95
-60.35
-49.28
-34.73
-18.57
-3.20
8.80
15.59
17.01
14.75
11.39
8.68
6.52
3.07
-3.55
-14.03
-27.27
-40.76
-51.68
-58.19
-59.92
-57.38
-50.88
-39.59
-22.50
0.16
26.10
51.47
71.95
84.15
86.69
78.31
60.71
38.69
17.49
-0.25
-14.38
-25.39
-33.16
-36.93
-36.16
-30.70
-21.42
-10.19
0.93
10.51
17.86
22.61
24.90
24.34
21.08
15.72
9.12
2.18
-4.27
-9.74
-14.30
-18.48
-23.02
-28.13
-33.61
-39.06
-43.98
-47.81
-49.98
-50.17
-48.32
-44.79
-40.05
-34.68
-29.34
-24.61
-20.83
-17.94
-15.49
-12.62
-8.30
-1.49
8.35
20.92
34.99
48.67
60.00
67.46
70.47
69.38
65.30
59.60
53.45
47.59
42.38
37.94
34.37
31.73
29.94
28.67
27.38
25.46
22.58
18.84
14.73
10.84
7.58
5.03
2.94
0.92
-1.37
-4.11
-7.33
-10.91
-14.64
-18.12
-20.86
-22.31
-22.08
-20.10
-16.68
-12.37
-7.84
-3.63
-0.07
2.70
4.63
5.76
6.13
5.86
5.17
4.36
3.73
3.49
3.62
3.94
4.11
3.87
3.11
1.93
0.59
-0.68
-1.79
-2.81
-3.89
-5.17
-6.67
-8.27
-9.79
-11.06
-11.95
-12.32
-12.04
-10.99
-9.15
-6.65
-3.74
-0.77
1.98
4.36
6.29
7.78
8.82
9.37
9.43
9.06
8.39
7.59
6.80
6.05
5.31
4.47
3.51
2.44
1.36
0.38
-0.44
-1.13
-1.78
-2.51
-3.45
-4.74
-6.45
-8.58
-10.88
-12.93
-14.17
-14.13
-12.64
-9.89
-6.39
-2.74
0.66
3.66
6.32
8.74
10.85
12.47
13.32
13.28
12.49
11.32
10.22
9.49
9.17
9.06
8.83
8.24
7.24
5.98
4.77
3.87
3.33
3.02
2.65
1.94
0.74
-0.92
-2.85
-4.77
-6.41
-7.52
-7.93
-7.54
-6.39
-4.60
-2.40
-0.04
2.33
4.62
6.86
9.04
11.03
12.57
13.39
13.35
12.53
11.21
9.76
8.47
7.47
6.76
6.25
5.84
5.44
4.97
4.39
3.69
2.92
2.18
1.55
1.01
0.39
-0.53
-1.94
-3.80
-5.82
-7.57
-8.57
-8.55
-7.50
-5.64
-3.30
-0.79
1.70
4.05
6.21
8.06
9.42
10.11
10.05
9.34
8.22
7.06
6.15
5.70
5.73
6.14
6.76
7.34
7.67
7.56
6.91
5.76
4.26
2.65
1.17
-0.02
-0.85
-1.36
-1.70
-2.03
-2.46
-3.01
-3.63
-4.14
-4.34
-4.06
-3.24
-1.93
-0.28
1.50
3.25
4.81
6.09
7.04
7.61
7.79
7.58
7.02
6.17
5.18
4.22
3.48
3.10
3.04
3.19
3.30
3.18
2.78
2.17
1.53
1.01
0.63
0.27
-0.24
-1.04
-2.21
-3.65
-5.16
-6.45
-7.24
-7.30
-6.56
-5.10
-3.11
-0.88
1.34
3.34
4.99
6.23
7.01
7.39
7.42
7.23
6.92
6.59
6.30
6.09
5.99
5.98
5.98
5.89
5.59
5.04
4.33
3.61
3.03
2.62
2.29
1.92
1.38
0.66
-0.21
-1.21
-2.34
-3.58
-4.85
-5.94
-6.57
-6.48
-5.57
-3.94
-1.87
0.28
2.20
3.72
4.83
5.57
6.02
6.23
6.21
5.99
5.64
5.29
5.05
4.94
4.86
4.68
4.26
3.61
2.85
2.16
1.64
1.31
1.04
0.70
0.22
-0.37
-0.98
-1.58
-2.17
-2.81
-3.54
-4.28
-4.83
-4.98
-4.56
-3.59
-2.22
-0.68
0.81
2.13
3.27
4.25
5.05
5.63
5.92
5.90
5.66
5.32
5.01
4.81
4.70
4.62
4.49
4.26
3.91
3.43
2.83
2.10
1.33
0.60
0.05
-0.26
-0.34
-0.32
-0.37
-0.66
-1.26
-2.11
-3.04
-3.85
-4.32
-4.35
-3.95
-3.18
-2.18
-1.06
0.09
1.21
2.24
3.10
3.70
3.94
3.81
3.35
2.71
2.07
1.60
1.41
1.49
1.79
2.15
2.45
2.54
2.35
1.87
1.16
0.34
-0.42
-0.99
-1.34
-1.51
-1.64
-1.89
-2.31
-2.87
-3.49
-4.02
-4.37
-4.44
-4.18
-3.58
-2.64
-1.43
-0.07
1.26
2.38
3.14
3.50
3.50
3.27
2.93
2.58
2.30
2.07
1.89
1.69
1.43
1.07
0.63
0.16
-0.26
-0.53
-0.60
-0.44
-0.13
0.26
0.61
0.80
0.75
0.37
-0.38
-1.45
-2.71
-3.93
-4.86
-5.26
-5.04
-4.24
-3.02
-1.61
-0.23
0.93
1.73
2.11
2.07
1.75
1.30
0.93
0.77
0.86
1.13
1.45
1.69
1.75
1.63
1.36
0.98
0.56
0.15
-0.21
-0.48
-0.64
-0.73
-0.81
-0.94
-1.15
-1.41
-1.66
-1.87
-2.11
-2.48
-3.08
-3.88
-4.69
-5.23
-5.22
-4.53
-3.26
-1.68
-0.16
1.06
1.89
2.38
2.70
2.96
3.16
3.21
3.01
2.52
1.86
1.25
0.89
0.91
1.25
1.70
1.99
1.88
1.28
0.26
-0.96
-2.13
-3.02
-3.55
-3.77
-3.81
-3.87
-4.02
-4.27
-4.48
-4.48
-4.11
-3.28
-2.01
-0.42
1.31
2.96
4.31
5.19
5.60
5.60
5.31
4.83
4.22
3.55
2.89
2.28
1.77
1.41
1.20
1.10
1.02
0.89
0.72
0.50
0.24
0.01
-0.00
0.35
1.08
1.99
2.78
3.29
3.37
2.95
2.30
1.94
2.41
3.99
6.59
9.87
13.81
18.01
21.94
25.33
28.36
31.43
35.03
39.46
45.04
52.52
61.73
71.76
81.64
90.89
99.58
108.20
117.20
126.84
137.32
146.67
151.31
147.59
133.57
109.66
78.47
43.64
3.58
-37.26
-71.85
-95.12
-106.35
-107.60
-101.75
-91.66
-81.76
-74.44
-70.55
-70.66
-74.32
-79.60
-83.72
-84.98
-81.37
-73.72
-64.28
-55.13
-48.11
-43.98
-42.34
-42.38
-44.41
-49.24
-57.68
-69.05
-81.03
-91.10
-97.54
-99.82
-98.58
-95.96
-93.75
-92.69
-92.12
-90.71
-87.83
-83.87
-79.93
-72.09
-58.92
-41.41
-22.37
-4.09
12.36
26.11
36.14
41.78
43.12
40.58
35.82
30.97
27.69
26.48
26.29
25.99
25.56
25.43
25.71
26.51
27.96
30.49
35.05
41.66
49.85
58.84
66.41
69.69
66.64
56.64
40.78
21.34
0.01
-21.56
-41.31
-58.82
-75.18
-92.21
-111.31
-132.01
-145.90
-146.12
-133.03
-105.22
-65.15
-18.73
27.59
68.49
99.49
119.34
128.49
128.72
122.61
111.71
97.32
81.14
65.30
51.86
42.42
36.73
33.55
31.63
29.40
25.88
21.10
15.84
11.16
8.07
6.48
5.63
4.87
3.31
0.49
-3.48
-8.14
-12.88
-17.08
-20.45
-22.95
-24.43
-25.00
-24.81
-23.99
-22.64
-20.87
-18.74
-16.48
-14.37
-12.65
-11.51
-10.98
-10.87
-10.90
-10.76
-10.25
-9.35
-8.15
-6.81
-5.55
-4.50
-3.74
-3.30
-3.10
-3.01
-2.88
-2.61
-2.19
-1.69
-1.27
-1.06
-1.15
-1.56
-2.21
-3.00
-3.75
-4.24
-4.26
-3.64
-2.42
-0.77
0.98
2.52
3.68
4.44
4.92
5.26
5.57
5.86
6.09
6.22
6.23
6.15
6.00
5.87
5.85
6.08
6.63
7.49
8.44
9.17
9.36
8.83
7.60
5.85
3.82
1.69
-0.41
-2.42
-4.25
-5.76
-6.79
-7.23
-7.07
-6.41
-5.42
-4.27
-3.06
-1.90
-0.78
0.32
1.49
2.80
4.28
5.78
7.04
7.71
7.51
6.46
4.83
3.13
1.82
1.21
1.30
1.85
2.55
3.13
3.45
3.47
3.26
2.88
2.42
1.95
1.48
1.01
0.46
-0.26
-1.20
-2.35
-3.55
-4.61
-5.25
-5.32
-4.71
-3.54
-2.00
-0.36
1.15
2.40
3.38
4.15
4.77
5.24
5.51
5.54
5.32
4.94
4.49
4.05
3.61
3.11
2.50
1.75
0.93
0.12
-0.61
-1.23
-1.77
-2.29
-2.83
-3.45
-4.20
-5.11
-6.18
-7.40
-8.65
-9.83
-10.76
-11.30
-11.37
-10.97
-10.17
-9.07
-7.80
-6.45
-5.04
-3.58
-2.06
-0.52
0.92
2.07
2.80
3.03
2.85
2.44
2.02
1.75
1.68
1.75
1.84
1.81
1.58
1.15
0.60
0.04
-0.41
-0.70
-0.84
-0.97
-1.27
-1.87
-2.79
-3.89
-4.95
-5.72
-6.05
-5.96
-5.53
-4.88
-4.07
-3.10
-2.02
-0.90
0.16
1.06
1.79
2.39
2.93
3.37
3.66
3.67
3.35
2.75
2.05
1.45
1.07
0.93
0.95
1.01
1.02
0.94
0.77
0.52
0.17
-0.30
-0.91
-1.67
-2.54
-3.44
-4.33
-5.15
-5.91
-6.56
-7.06
-7.29
-7.11
-6.44
-5.32
-3.88
-2.27
-0.68
0.82
2.16
3.30
4.15
4.61
4.60
4.17
3.41
2.52
1.68
1.04
0.68
0.63
0.82
1.11
1.30
1.24
0.85
0.20
-0.53
-1.19
-1.66
-1.92
-2.00
-1.96
-1.90
-1.91
-2.11
-2.61
-3.41
-4.37
-5.23
-5.70
-5.58
-4.85
-3.64
-2.19
-0.74
0.57
1.68
2.62
3.46
4.21
4.89
5.45
5.82
5.93
5.75
5.30
4.64
3.85
2.98
2.10
1.26
0.56
0.08
-0.13
-0.11
0.05
0.19
0.18
-0.05
-0.50
-1.10
-1.79
-2.51
-3.26
-4.00
-4.69
-5.22
-5.45
-5.25
-4.57
-3.46
-2.10
-0.70
0.56
1.62
2.49
3.24
3.88
4.30
4.38
4.05
3.36
2.56
1.91
1.62
1.70
1.94
2.06
1.82
1.13
0.09
-1.06
-2.08
-2.84
-3.34
-3.66
-3.89
-4.08
-4.24
-4.41
-4.64
-5.00
-5.50
-6.03
-6.35
-6.19
-5.40
-4.00
-2.25
-0.47
1.06
2.17
2.90
3.31
3.50
3.52
3.41
3.20
2.94
2.69
2.51
2.41
2.38
2.39
2.43
2.42
2.34
2.15
1.82
1.42
1.03
0.73
0.54
0.42
0.25
-0.10
-0.72
-1.57
-2.56
-3.52
-4.27
-4.71
-4.79
-4.52
-3.96
-3.17
-2.23
-1.19
-0.08
1.05
2.13
3.05
3.71
4.01
3.94
3.53
2.92
2.24
1.64
1.24
1.06
1.07
1.15
1.17
1.03
0.74
0.35
-0.02
-0.30
-0.48
-0.64
-0.87
-1.20
-1.64
-2.15
-2.69
-3.25
-3.79
-4.24
-4.47
-4.32
-3.71
-2.67
-1.38
-0.07
1.07
1.94
2.58
3.10
3.55
3.89
3.99
3.77
3.25
2.60
2.03
1.74
1.77
1.98
2.10
1.94
1.41
0.59
-0.31
-1.05
-1.47
-1.56
-1.41
-1.17
-1.01
-1.01
-1.20
-1.57
-2.09
-2.74
-3.44
-4.09
-4.48
-4.39
-3.69
-2.40
-0.73
1.00
2.52
3.71
4.63
5.41
6.11
6.69
7.03
7.05
6.81
6.50
6.35
6.45
6.69
6.83
6.61
5.96
5.02
4.09
3.44
3.15
3.08
2.94
2.47
1.54
0.27
-1.11
-2.39
-3.42
-4.20
-4.81
-5.27
-5.52
-5.43
-4.90
-3.94
-2.69
-1.38
-0.17
0.86
1.73
2.52
3.23
3.84
4.24
4.35
4.19
3.81
3.35
2.96
2.77
2.81
3.06
3.40
3.67
3.70
3.44
2.87
2.13
1.35
0.67
0.19
-0.14
-0.41
-0.78
-1.37
-2.23
-3.29
-4.31
-5.01
-5.10
-4.45
-3.09
-1.28
0.66
2.42
3.78
4.66
5.12
5.28
5.28
5.20
5.09
4.93
4.68
4.29
3.75
3.04
2.22
1.34
0.52
-0.12
-0.47
-0.58
-0.67
-1.12
-2.33
-4.49
-7.51
-10.98
-14.32
-16.99
-18.65
-19.16
-18.53
-16.82
-14.09
-10.46
-6.16
-1.49
3.27
7.90
12.30
16.42
20.18
23.45
26.00
27.64
28.23
27.78
26.46
24.58
22.51
20.61
19.06
17.83
16.69
15.31
13.46
11.10
8.43
5.74
3.37
1.63
0.80
1.06
2.38
4.37
6.32
7.46
7.23
5.67
3.58
2.19
2.69
5.70
10.97
17.60
24.34
30.03
33.84
35.34
34.37
30.85
24.75
16.17
5.69
-5.61
-16.26
-24.68
-29.58
-30.38
-27.50
-22.31
-16.73
-12.26
-9.87
-9.83
-11.88
-15.35
-19.42
-23.28
-26.40
-28.39
-28.58
-26.54
-22.46
-17.16
-11.77
-7.29
-4.21
-2.50
-1.57
0.14
4.09
10.75
19.40
28.34
35.45
38.81
36.89
26.22
6.63
-17.55
-39.21
-52.44
-55.27
-49.95
-39.56
-26.83
-13.86
-1.44
10.21
19.87
26.32
28.83
27.50
23.33
17.55
11.31
5.82
1.68
-1.37
-4.03
-6.95
-10.35
-13.91
-17.15
-19.67
-21.01
-20.95
-19.80
-18.13
-16.58
-15.54
-15.06
-14.98
-15.05
-14.91
-14.27
-13.07
-11.36
-9.26
-6.89
-4.31
-1.65
0.98
3.66
6.60
10.06
14.09
18.44
22.48
25.40
26.54
25.54
22.54
18.04
12.63
6.90
1.38
-3.40
-6.89
-8.72
-8.95
-8.16
-7.29
-7.24
-8.55
-11.07
-14.11
-16.75
-18.31
-18.65
-18.06
-16.96
-15.67
-14.33
-12.87
-11.15
-9.07
-6.73
-4.40
-2.37
-0.83
0.05
-0.02
-1.32
-4.21
-8.43
-12.85
-16.16
-17.52
-16.44
-12.53
-6.09
1.98
10.48
18.20
24.18
27.77
28.81
27.54
24.44
20.03
14.86
9.46
4.35
-0.03
-3.45
-5.78
-7.05
-7.37
-7.01
-6.21
-5.21
-4.11
-3.02
-2.08
-1.39
-1.01
-0.86
-0.83
-0.76
-0.56
-0.31
-0.25
-0.72
-1.93
-3.78
-5.84
-7.51
-8.25
-7.86
-6.61
-5.07
-3.90
-3.51
-3.88
-4.62
-5.26
-5.38
-4.76
-3.27
-0.95
1.88
4.52
5.92
5.08
1.67
-3.50
-8.51
-11.15
-9.88
-4.73
2.77
10.33
16.05
19.25
20.51
21.05
21.89
23.27
24.71
25.39
24.72
22.60
19.33
15.38
11.18
7.00
3.03
-0.49
-3.36
-5.53
-7.32
-9.33
-12.23
-16.34
-21.23
-25.75
-28.45
-28.19
-24.75
-18.93
-12.21
-6.04
-1.34
1.77
3.75
5.29
6.95
9.01
11.50
14.34
17.34
20.21
22.56
24.00
24.19
23.11
21.01
18.42
15.94
14.07
13.01
12.65
12.63
12.56
12.18
11.48
10.64
9.90
9.39
9.04
8.63
7.87
6.55
4.60
2.01
-1.18
-4.93
-9.16
-13.62
-17.81
-21.03
-22.54
-21.89
-19.12
-14.81
-9.97
-5.71
-2.83
-1.61
-1.70
-2.33
-2.64
-2.01
-0.27
2.29
5.10
7.56
9.24
9.91
9.51
8.06
5.66
2.50
-1.02
-4.26
-6.51
-7.13
-5.82
-2.69
1.73
6.67
11.39
15.33
18.16
19.72
19.90
18.63
16.01
12.53
9.23
7.39
8.16
11.87
17.69
23.70
27.51
27.08
21.53
11.39
-1.63
-15.26
-27.31
-36.26
-41.54
-43.55
-43.42
-42.59
-42.38
-43.59
-46.32
-50.01
-53.53
-55.62
-55.14
-51.50
-44.80
-35.85
-26.02
-16.94
-9.83
-4.98
-1.69
1.29
5.10
10.18
16.02
21.44
24.81
25.18
22.71
18.61
14.45
11.43
9.96
9.75
10.08
9.77
8.09
5.08
1.38
-2.28
-5.44
-7.96
-9.92
-11.60
-13.92
-17.59
-22.59
-28.10
-32.99
-36.28
-37.39
-36.35
-30.12
-18.15
-3.09
10.52
19.38
22.87
22.32
19.71
16.76
14.42
12.04
8.33
2.36
-5.85
-15.24
-24.02
-30.09
-31.80
-28.52
-21.17
-11.33
-0.40
10.65
21.01
29.77
35.95
38.87
38.44
35.06
29.48
22.88
16.52
11.30
7.68
5.81
5.94
8.35
13.06
19.65
27.05
33.61
37.46
37.20
32.61
24.87
16.22
8.93
4.44
2.94
3.71
5.69
8.18
11.06
14.48
18.41
22.28
25.36
26.72
25.94
23.32
19.74
16.19
13.25
10.87
8.53
5.60
1.66
-3.20
-8.47
-13.43
-17.39
-19.92
-20.89
-20.45
-18.94
-16.80
-14.39
-11.92
-9.50
-7.13
-4.84
-2.70
-0.90
0.37
0.97
0.92
0.38
-0.41
-1.22
-1.89
-2.37
-2.69
-2.90
-3.07
-3.24
-3.47
-3.83
-4.36
-5.09
-5.95
-6.80
-7.45
-7.75
-7.64
-7.22
-6.73
-6.44
-6.61
-7.31
-8.42
-9.62
-10.50
-10.72
-10.13
-8.83
-7.10
-5.31
-3.71
-2.40
-1.31
-0.33
0.61
1.48
2.16
2.57
2.73
2.76
2.81
2.98
3.25
3.51
3.54
3.21
2.49
1.52
0.51
-0.26
-0.58
-0.37
0.30
1.20
2.05
2.59
2.69
2.35
1.68
0.81
-0.11
-1.00
-1.82
-2.51
-3.00
-3.18
-2.96
-2.30
-1.26
0.00
1.37
2.74
4.08
5.40
6.62
7.60
8.15
8.17
7.73
7.07
6.47
6.13
6.08
6.14
6.12
5.85
5.28
4.45
3.47
2.39
1.28
0.19
-0.86
-1.81
-2.67
-3.44
-4.16
-4.85
-5.55
-6.24
-6.92
-7.61
-8.28
-8.90
-9.36
-9.54
-9.30
-8.54
-7.28
-5.67
-3.94
-2.34
-1.04
-0.10
0.51
0.82
0.78
0.31
-0.69
-2.14
-3.83
-5.39
-6.48
-6.89
-6.65
-5.97
-5.19
-4.63
-4.52
-4.94
-5.79
-6.86
-7.86
-8.55
-8.79
-8.61
-8.21
-7.85
-7.78
-8.15
-8.96
-10.15
-11.54
-12.91
-14.00
-14.54
-14.26
-13.04
-10.97
-8.29
-5.42
-2.75
-0.55
1.09
2.24
3.06
3.68
4.19
4.57
4.84
5.00
5.05
4.98
4.74
4.23
3.43
2.41
1.33
0.43
-0.13
-0.31
-0.21
0.02
0.26
0.47
0.66
0.82
0.85
0.59
-0.09
-1.27
-2.86
-4.70
-6.54
-8.11
-9.14
-9.37
-8.72
-7.25
-5.21
-2.96
-0.80
1.10
2.68
3.94
4.88
5.44
5.61
5.41
4.99
4.49
4.04
3.69
3.49
3.44
3.55
3.80
4.08
4.21
4.04
3.46
2.55
1.40
0.17
-1.04
-2.19
-3.26
-4.21
-5.01
-5.62
-6.11
-6.60
-7.25
-8.14
-9.18
-10.11
-10.56
-10.24
-9.07
-7.22
-5.03
-2.92
-1.15
0.22
1.29
2.23
3.11
3.86
4.35
4.41
4.02
3.23
2.22
1.17
0.26
-0.45
-0.93
-1.24
-1.51
-1.84
-2.33
-3.00
-3.83
-4.73
-5.59
-6.28
-6.70
-6.84
-6.80
-6.80
-7.09
-7.88
-9.24
-10.97
-12.68
-13.89
-14.23
-13.56
-12.02
-9.90
-7.54
-5.15
-2.86
-0.72
1.27
3.03
4.48
5.56
6.22
6.49
6.44
6.19
5.94
5.86
6.07
6.55
7.17
7.72
8.01
8.00
7.76
7.41
7.05
6.68
6.24
5.67
4.95
4.16
3.36
2.56
1.63
0.45
-1.11
-2.93
-4.74
-6.09
-6.54
-5.85
-4.05
-1.50
1.30
3.84
5.79
7.08
7.85
8.33
8.70
8.97
9.03
8.72
7.97
6.83
5.52
4.34
3.55
3.23
3.27
3.42
3.38
3.01
2.32
1.42
0.48
-0.43
-1.30
-2.12
-2.86
-3.50
-4.03
-4.56
-5.31
-6.41
-7.85
-9.32
-10.34
-10.45
-9.36
-7.14
-4.14
-0.86
2.26
4.93
7.10
8.79
10.12
11.16
11.92
12.42
12.66
12.69
12.59
12.44
12.31
12.18
11.94
11.50
10.73
9.64
8.31
6.90
5.55
4.33
3.18
2.00
0.64
-0.85
-2.37
-3.73
-4.84
-5.79
-6.76
-7.91
-9.20
-10.37
-10.99
-10.74
-9.52
-7.54
-5.22
-2.95
-0.95
0.70
2.06
3.16
3.96
4.39
4.45
4.23
3.92
3.67
3.53
3.44
3.27
2.92
2.37
1.69
0.96
0.24
-0.50
-1.26
-2.06
-2.90
-3.74
-4.62
-5.60
-6.72
-8.02
-9.48
-11.03
-12.63
-14.24
-15.78
-17.10
-17.95
-18.04
-17.18
-15.36
-12.84
-10.00
-7.26
-4.93
-3.11
-1.78
-0.82
-0.11
0.40
0.73
0.85
0.76
0.50
0.16
-0.15
-0.33
-0.33
-0.20
0.00
0.14
0.16
0.01
-0.32
-0.80
-1.38
-2.01
-2.64
-3.30
-4.00
-4.85
-5.92
-7.29
-8.91
-10.60
-12.04
-12.83
-12.59
-11.05
-8.16
-4.18
0.47
5.23
9.57
13.13
15.74
17.42
18.36
18.81
19.09
19.48
20.18
21.23
22.48
23.63
24.34
24.28
23.25
21.12
17.90
13.64
8.53
2.87
-2.90
-8.31
-12.97
-16.67
-19.39
-21.25
-22.35
-22.80
-22.64
-21.91
-20.66
-18.87
-16.41
-13.09
-8.75
-3.45
2.39
8.06
12.81
16.12
17.91
18.57
18.67
18.74
18.99
19.34
19.50
19.21
18.34
16.93
15.07
12.82
10.12
6.94
3.36
-0.31
-3.53
-5.76
-6.70
-6.40
-5.27
-3.93
-2.95
-2.68
-3.22
-4.47
-6.16
-7.99
-9.56
-10.47
-10.35
-9.03
-6.59
-3.37
0.10
3.30
5.82
7.48
8.28
8.38
8.03
7.53
7.21
7.27
7.82
8.76
9.91
11.00
11.89
12.57
13.13
13.70
14.30
14.84
15.17
15.18
14.88
14.39
13.91
13.47
12.99
12.24
10.97
9.10
6.77
4.35
2.27
0.88
0.38
0.78
1.95
3.74
5.95
8.40
10.89
13.21
15.16
16.57
17.35
17.47
16.99
16.03
14.74
13.30
11.88
10.64
9.64
8.90
8.34
7.82
7.22
6.45
5.47
4.37
3.22
2.09
0.98
-0.18
-1.49
-2.99
-4.64
-6.28
-7.76
-9.03
-10.17
-11.31
-12.48
-13.59
-14.36
-14.44
-13.61
-11.90
-9.68
-7.53
-5.93
-5.15
-5.20
-5.87
-6.86
-7.82
-8.53
-8.99
-9.45
-10.03
-10.83
-12.02
-13.77
-16.03
-18.53
-20.89
-22.93
-24.80
-26.43
-27.82
-29.27
-31.23
-33.87
-36.87
-39.70
-42.09
-44.26
-46.06
-47.46
-48.86
-51.03
-54.35
-58.36
-61.81
-63.04
-60.50
-52.16
-36.91
-15.57
9.45
35.74
62.39
90.14
120.52
147.21
163.13
165.51
157.23
142.77
125.13
106.05
86.57
67.34
48.71
31.92
18.23
7.93
0.08
-6.73
-13.50
-20.65
-28.15
-35.82
-42.60
-47.51
-50.70
-53.56
-57.75
-63.64
-69.46
-71.38
-64.94
-47.07
-18.94
13.17
39.83
53.06
49.96
33.27
9.80
-13.14
-30.87
-42.72
-51.04
-57.98
-65.14
-71.67
-75.23
-73.76
-66.77
-55.41
-41.82
-27.90
-14.69
-2.33
9.74
22.06
34.46
45.89
54.64
59.05
58.26
52.56
43.25
32.26
21.37
11.79
4.19
-1.08
-3.73
-3.64
-0.88
3.94
9.69
14.80
17.58
16.67
11.52
2.65
-8.20
-18.59
-26.02
-28.67
-26.15
-19.58
-11.15
-3.13
2.95
6.78
8.94
10.29
11.20
11.36
9.98
6.53
1.15
-5.19
-11.12
-15.46
-17.64
-17.71
-16.18
-13.56
-10.33
-6.90
-3.87
-1.98
-1.98
-4.24
-8.33
-12.95
-16.17
-16.25
-12.36
-4.97
4.38
13.58
20.74
24.61
24.79
21.68
16.21
9.88
4.17
0.53
-0.34
0.95
2.53
2.16
-1.57
-8.30
-15.86
-21.22
-22.03
-17.60
-9.14
1.31
11.46
20.13
27.00
32.07
35.15
35.88
34.02
29.73
23.67
16.59
9.18
1.77
-5.46
-12.24
-18.09
-22.49
-25.03
-25.61
-24.53
-21.92
-17.98
-13.08
-7.79
-2.84
1.09
3.52
4.44
4.15
3.21
2.16
1.31
0.78
0.49
0.36
0.38
0.64
1.12
1.76
2.37
2.71
2.61
2.18
1.83
2.27
4.26
8.10
13.39
18.78
22.13
21.04
13.74
-0.09
-18.76
-38.20
-53.83
-61.93
-60.90
-51.55
-36.60
-19.50
-3.32
10.15
20.18
26.60
29.47
28.98
25.55
20.08
14.08
8.79
5.53
4.75
5.70
6.85
6.57
3.77
-1.57
-8.35
-14.80
-18.61
-17.97
-12.50
-3.17
7.70
16.93
21.55
19.48
10.13
-4.65
-21.27
-35.41
-42.89
-40.91
-29.00
-8.93
16.49
40.93
59.51
70.65
75.93
78.63
81.41
84.60
86.12
82.24
69.55
47.30
18.58
-13.44
-44.54
-71.28
-92.57
-109.11
-122.70
-133.88
-140.52
-138.51
-123.53
-93.86
-52.10
-5.56
37.01
67.94
83.69
85.48
75.09
57.28
38.37
24.58
19.67
25.90
43.03
68.19
95.54
119.34
136.06
142.99
137.24
115.29
80.07
33.05
-20.19
-71.99
-115.77
-148.08
-169.98
-175.57
-166.26
-146.77
-122.79
-97.57
-72.71
-49.33
-28.69
-12.25
-0.73
5.08
6.77
6.95
8.64
13.30
20.31
27.86
33.94
37.73
38.72
37.89
36.43
35.24
34.36
32.85
30.13
26.35
22.42
18.79
16.00
14.03
12.52
10.78
8.17
4.59
0.58
-2.76
-4.64
-4.45
-2.24
1.32
5.11
7.92
8.99
8.24
6.23
3.60
1.47
0.61
1.28
3.32
6.19
9.36
12.38
14.96
16.92
18.12
18.34
17.52
15.84
13.73
11.84
10.71
10.58
11.21
12.01
12.25
11.44
9.56
7.03
4.49
2.55
1.40
0.84
0.35
-0.68
-2.56
-5.28
-8.45
-11.52
-14.01
-15.69
-16.61
-17.04
-17.28
-17.49
-17.59
-17.32
-16.37
-14.59
-12.14
-9.43
-6.95
-5.10
-3.99
-3.40
-2.93
-2.14
-0.71
1.48
4.37
7.68
10.99
13.73
15.34
15.39
13.76
10.79
7.17
3.80
1.44
0.48
0.86
2.12
3.59
4.59
4.63
3.46
1.09
-2.24
-6.17
-10.32
-14.31
-17.85
-20.62
-22.34
-22.74
-21.65
-19.08
-15.29
-10.70
-5.73
-0.74
4.04
8.44
12.19
14.94
16.29
16.05
14.29
11.45
8.17
5.12
2.75
1.27
0.56
0.32
0.13
-0.41
-1.60
-3.55
-6.08
-8.86
-11.45
-13.54
-15.01
-16.01
-16.85
-17.93
-19.48
-21.51
-23.70
-25.46
-26.17
-25.34
-22.87
-19.10
-14.69
-10.36
-6.62
-3.58
-1.04
1.34
3.72
6.01
7.92
9.15
9.65
9.60
9.36
9.18
9.13
8.98
8.42
7.25
5.49
3.45
1.51
0.01
-0.90
-1.32
-1.50
-1.79
-2.51
-3.86
-5.85
-8.38
-11.27
-14.28
-17.17
-19.64
-21.32
-21.88
-21.05
-18.85
-15.52
-11.52
-7.37
-3.42
0.19
3.51
6.65
9.63
12.31
14.49
15.94
16.59
16.50
15.85
14.90
13.96
13.25
12.87
12.72
12.56
12.11
11.21
9.88
8.32
6.72
5.14
3.50
1.63
-0.58
-3.07
-5.70
-8.38
-11.21
-14.40
-18.03
-21.76
-24.84
-26.38
-25.78
-23.06
-18.86
-14.11
-9.56
-5.55
-2.00
1.34
4.67
7.97
11.13
14.02
16.53
18.57
19.97
20.52
20.05
18.57
16.33
13.73
11.17
9.01
7.42
6.44
5.88
5.50
4.93
3.84
2.08
-0.29
-2.98
-5.63
-7.96
-9.87
-11.49
-13.09
-15.01
-17.47
-20.53
-24.02
-27.48
-30.26
-31.64
-31.08
-28.39
-23.90
-18.32
-12.53
-7.23
-2.79
0.79
3.80
6.52
9.13
11.60
13.78
15.56
16.84
17.62
17.91
17.72
17.10
16.12
14.93
13.70
12.54
11.50
10.59
9.76
8.95
8.08
7.02
5.64
3.86
1.72
-0.54
-2.61
-4.20
-5.27
-6.05
-6.95
-8.40
-10.62
-13.51
-16.70
-19.66
-21.86
-22.91
-22.61
-21.01
-18.29
-14.74
-10.68
-6.37
-2.01
2.22
6.22
9.89
13.22
16.18
18.74
20.85
22.41
23.36
23.67
23.43
22.80
21.97
21.06
20.17
19.26
18.33
17.29
15.97
14.20
11.77
8.65
5.02
1.29
-2.05
-4.62
-6.37
-7.50
-8.40
-9.52
-11.17
-13.56
-16.70
-20.41
-24.24
-27.45
-29.22
-28.87
-26.18
-21.55
-15.84
-10.05
-4.94
-0.78
2.60
5.55
8.38
11.15
13.66
15.61
16.77
17.10
16.73
15.89
14.84
13.70
12.53
11.30
10.00
8.68
7.44
6.34
5.39
4.51
3.58
2.48
1.18
-0.21
-1.57
-2.76
-3.74
-4.60
-5.51
-6.67
-8.21
-10.15
-12.40
-14.84
-17.29
-19.54
-21.30
-22.20
-21.85
-20.02
-16.75
-12.41
-7.62
-2.96
1.13
4.49
7.24
9.59
11.76
13.83
15.73
17.23
18.11
18.22
17.58
16.36
14.86
13.29
11.78
10.32
8.92
7.64
6.60
5.89
5.42
5.02
4.40
3.37
1.90
0.10
-1.87
-3.88
-5.82
-7.61
-9.18
-10.46
-11.50
-12.45
-13.58
-15.10
-17.01
-19.01
-20.59
-21.23
-20.59
-18.66
-15.73
-12.25
-8.62
-5.03
-1.51
2.04
5.62
9.13
12.25
14.62
16.03
16.43
16.02
15.15
14.13
13.17
12.30
11.45
10.56
9.62
8.71
7.91
7.23
6.53
5.64
4.41
2.87
1.18
-0.46
-1.92
-3.21
-4.43
-5.71
-7.09
-8.55
-10.02
-11.50
-13.07
-14.79
-16.61
-18.30
-19.48
-19.72
-18.77
-16.59
-13.41
-9.56
-5.43
-1.30
2.64
6.27
9.52
12.34
14.61
16.21
17.05
17.15
16.61
15.67
14.54
13.40
12.29
11.21
10.11
9.02
8.01
7.12
6.34
5.51
4.42
2.94
1.08
-0.96
-2.93
-4.63
-6.00
-7.14
-8.25
-9.53
-11.15
-13.09
-15.26
-17.39
-19.19
-20.36
-20.69
-20.07
-18.50
-16.09
-12.96
-9.25
-5.11
-0.72
3.70
7.90
11.62
14.69
16.95
18.34
18.85
18.54
17.62
16.39
15.14
14.09
13.30
12.67
12.01
11.15
9.99
8.52
6.83
5.03
3.26
1.62
0.19
-1.05
-2.16
-3.30
-4.61
-6.12
-7.73
-9.28
-10.64
-11.88
-13.14
-14.56
-16.08
-17.41
-18.09
-17.71
-16.03
-13.16
-9.42
-5.22
-0.94
3.08
6.63
9.53
11.69
13.11
13.90
14.17
14.03
13.54
12.68
11.49
10.02
8.43
6.90
5.55
4.45
3.57
2.77
1.89
0.81
-0.53
-2.04
-3.59
-5.03
-6.26
-7.26
-8.09
-8.80
-9.46
-10.18
-11.11
-12.37
-14.07
-16.16
-18.36
-20.26
-21.35
-21.15
-19.41
-16.16
-11.71
-6.61
-1.52
2.99
6.56
9.09
10.73
11.75
12.39
12.81
13.04
13.06
12.84
12.36
11.62
10.65
9.46
8.11
6.66
5.19
3.74
2.35
0.96
-0.47
-2.01
-3.69
-5.49
-7.41
-9.44
-11.52
-13.59
-15.60
-17.55
-19.53
-21.70
-24.12
-26.59
-28.60
-29.48
-28.58
-25.65
-20.91
-15.05
-8.87
-3.00
2.23
6.76
10.60
13.73
16.04
17.45
18.05
18.07
17.87
17.70
17.62
17.50
17.05
16.00
14.26
11.95
9.35
6.82
4.64
2.92
1.65
0.74
0.14
-0.12
-0.02
0.34
0.72
0.69
-0.15
-2.03
-4.88
-8.31
-11.71
-14.42
-15.90
-15.76
-13.87
-10.42
-5.84
-0.76
4.15
8.35
11.56
13.75
15.01
15.45
15.16
14.20
12.71
10.98
9.46
8.58
8.57
9.32
10.41
11.24
11.31
10.30
8.31
5.66
2.85
0.30
-1.69
-3.07
-3.96
-4.58
-5.23
-6.17
-7.59
-9.61
-12.19
-15.13
-18.09
-20.61
-22.23
-22.56
-21.45
-19.01
-15.61
-11.71
-7.74
-3.94
-0.37
2.98
6.03
8.51
10.12
10.64
10.16
9.08
7.95
7.15
6.71
6.30
5.52
4.12
2.23
0.35
-1.00
-1.50
-1.23
-0.60
-0.11
-0.08
-0.54
-1.28
-2.02
-2.60
-3.10
-3.80
-5.10
-7.29
-10.42
-14.18
-17.91
-20.67
-21.53
-19.83
-15.44
-8.85
-1.01
6.95
14.06
19.73
23.75
26.12
26.93
26.34
24.58
22.08
19.34
16.87
15.00
13.81
13.22
13.07
13.26
13.72
14.32
14.86
15.03
14.60
13.46
11.72
9.62
7.37
5.07
2.77
0.51
-1.55
-3.23
-4.46
-5.38
-6.35
-7.78
-9.81
-12.10
-13.89
-14.21
-12.39
-8.28
-2.38
4.38
10.94
16.42
20.30
22.42
22.90
22.06
20.29
17.96
15.47
13.12
11.20
9.83
9.05
8.74
8.63
8.44
7.94
6.97
5.58
3.93
2.24
0.70
-0.58
-1.68
-2.72
-3.89
-5.32
-6.99
-8.83
-10.73
-12.64
-14.60
-16.59
-18.49
-19.93
-20.44
-19.59
-17.21
-13.50
-8.95
-4.19
0.27
4.12
7.20
9.47
10.86
11.29
10.77
9.48
7.72
5.94
4.50
3.61
3.25
3.25
3.35
3.34
3.08
2.54
1.68
0.50
-0.98
-2.66
-4.40
-5.99
-7.31
-8.32
-9.16
-10.02
-11.18
-12.82
-14.93
-17.26
-19.34
-20.60
-20.48
-18.65
-15.13
-10.24
-4.60
1.08
6.18
10.31
13.36
15.37
16.45
16.69
16.17
14.96
13.26
11.36
9.54
8.01
6.84
5.99
5.33
4.72
4.05
3.18
1.99
0.40
-1.58
-3.84
-6.20
-8.52
-10.68
-12.67
-14.55
-16.37
-18.21
-20.04
-21.75
-23.04
-23.52
-22.77
-20.53
-16.77
-11.85
-6.32
-0.80
4.25
8.59
12.16
14.97
17.03
18.27
18.62
18.07
16.76
14.94
12.95
11.13
9.65
8.47
7.42
6.24
4.76
2.98
1.10
-0.69
-2.26
-3.69
-5.21
-7.04
-9.28
-11.85
-14.56
-17.30
-20.05
-22.81
-25.44
-27.54
-28.49
-27.68
-24.84
-20.14
-14.19
-7.78
-1.61
3.91
8.64
12.59
15.77
18.14
19.69
20.40
20.33
19.62
18.44
16.99
15.50
14.16
13.07
12.20
11.32
10.21
8.66
6.61
4.20
1.68
-0.68
-2.76
-4.58
-6.27
-7.97
-9.79
-11.80
-14.06
-16.72
-19.80
-23.22
-26.61
-29.35
-30.73
-30.20
-27.60
-23.14
-17.42
-11.09
-4.78
1.09
6.25
10.59
14.05
16.56
18.09
18.60
18.19
17.07
15.59
14.10
12.84
11.84
10.95
9.94
8.64
7.08
5.38
3.71
2.11
0.47
-1.39
-3.56
-6.00
-8.50
-10.84
-12.88
-14.69
-16.51
-18.64
-21.24
-24.31
-27.51
-30.31
-32.07
-32.19
-30.35
-26.48
-20.90
-14.18
-6.96
0.15
6.70
12.40
17.05
20.53
22.77
23.80
23.79
23.07
21.96
20.79
19.71
18.77
17.88
16.95
15.90
14.73
13.47
12.14
10.73
9.18
7.41
5.38
3.16
0.92
-1.16
-3.04
-4.80
-6.67
-8.89
-11.60
-14.80
-18.31
-21.86
-25.06
-27.38
-28.17
-26.89
-23.28
-17.63
-10.67
-3.41
3.25
8.82
13.20
16.55
19.03
20.66
21.44
21.40
20.76
19.87
19.05
18.52
18.24
18.04
17.69
17.00
15.89
14.41
12.66
10.74
8.70
6.51
4.13
1.55
-1.10
-3.58
-5.69
-7.36
-8.77
-10.25
-12.17
-14.77
-18.04
-21.72
-25.30
-28.12
-29.47
-28.80
-25.88
-20.89
-14.38
-7.14
0.04
6.58
12.11
16.47
19.62
21.62
22.57
22.66
22.20
21.49
20.74
20.05
19.37
18.65
17.82
16.92
16.06
15.33
14.75
14.24
13.58
12.57
11.08
9.14
6.88
4.40
1.77
-1.02
-3.94
-6.86
-9.64
-12.17
-14.53
-16.97
-19.75
-22.90
-26.09
-28.60
-29.64
-28.58
-25.26
-19.99
-13.46
-6.50
0.16
6.01
10.78
14.40
16.95
18.59
19.46
19.69
19.38
18.63
17.54
16.28
15.03
13.93
13.04
12.31
11.63
10.88
9.98
8.92
7.74
6.46
5.08
3.55
1.85
-0.05
-2.06
-4.08
-6.01
-7.88
-9.82
-12.03
-14.68
-17.80
-21.22
-24.57
-27.33
-28.96
-28.94
-26.97
-23.00
-17.30
-10.51
-3.43
3.12
8.58
12.70
15.55
17.34
18.25
18.41
17.89
16.88
15.64
14.51
13.71
13.27
13.00
12.66
12.05
11.17
10.11
9.00
7.87
6.63
5.12
3.24
1.02
-1.41
-3.84
-6.16
-8.32
-10.40
-12.53
-14.80
-17.19
-19.68
-22.15
-24.48
-26.46
-27.74
-27.81
-26.18
-22.58
-17.16
-10.55
-3.66
2.69
7.96
12.09
15.23
17.58
19.19
19.98
19.90
19.05
17.77
16.45
15.40
14.68
14.15
13.58
12.86
12.02
11.22
10.56
9.96
9.11
7.72
5.61
2.87
-0.16
-3.09
-5.68
-7.98
-10.23
-12.73
-15.60
-18.76
-21.94
-24.81
-26.99
-28.12
-27.84
-25.88
-22.11
-16.72
-10.22
-3.31
3.32
9.15
13.93
17.56
20.05
21.35
21.50
20.62
19.06
17.32
15.84
14.86
14.32
13.91
13.32
12.35
11.04
9.57
8.12
6.73
5.33
3.82
2.09
0.16
-1.93
-4.08
-6.27
-8.52
-10.82
-13.18
-15.61
-18.08
-20.59
-23.10
-25.43
-27.22
-28.00
-27.27
-24.72
-20.38
-14.68
-8.31
-2.03
3.62
8.33
12.06
14.89
16.84
17.91
18.10
17.51
16.39
15.09
13.91
12.99
12.30
11.62
10.72
9.42
7.67
5.57
3.30
1.04
-1.06
-2.95
-4.69
-6.36
-7.99
-9.54
-10.94
-12.21
-13.53
-15.19
-17.48
-20.52
-24.10
-27.68
-30.61
-32.17
-31.91
-29.62
-25.37
-19.43
-12.27
-4.50
3.12
9.80
14.84
17.88
18.94
18.42
16.90
14.95
13.02
11.34
9.98
8.93
8.17
7.62
7.23
6.86
6.39
5.72
4.81
3.64
2.23
0.59
-1.25
-3.22
-5.27
-7.40
-9.63
-12.05
-14.80
-17.92
-21.36
-24.87
-28.00
-30.23
-31.03
-30.09
-27.39
-23.19
-17.91
-12.09
-6.25
-0.83
3.77
7.24
9.40
10.26
10.03
9.03
7.62
6.08
4.61
3.34
2.38
1.81
1.62
1.64
1.62
1.33
0.63
-0.46
-1.79
-3.19
-4.54
-5.76
-6.80
-7.61
-8.16
-8.53
-8.95
-9.74
-11.19
-13.45
-16.43
-19.76
-22.88
-25.09
-25.70
-24.20
-20.39
-14.53
-7.30
0.41
7.68
13.95
18.97
22.83
25.75
27.93
29.49
30.54
31.21
31.67
32.03
32.28
32.26
31.78
30.74
29.24
27.54
25.82
24.10
22.14
19.60
16.30
12.40
8.39
4.88
2.36
0.90
0.26
0.02
-0.27
-0.87
-1.89
-3.31
-5.01
-6.73
-8.04
-8.43
-7.40
-4.80
-0.92
3.54
7.77
11.08
13.20
14.26
14.59
14.50
14.11
13.36
12.16
10.58
8.93
7.61
6.94
6.99
7.55
8.23
8.66
8.65
8.18
7.33
6.13
4.50
2.28
-0.66
-4.23
-8.13
-11.89
-15.03
-17.26
-18.56
-19.16
-19.45
-19.75
-20.19
-20.61
-20.61
-19.82
-18.02
-15.35
-12.19
-9.01
-6.17
-3.74
-1.55
0.68
3.08
5.63
8.11
10.25
11.95
13.30
14.57
16.08
17.96
20.05
21.91
22.98
22.81
21.26
18.57
15.28
12.02
9.24
7.10
5.49
4.21
3.08
2.04
1.07
0.10
-1.09
-2.80
-5.28
-8.55
-12.34
-16.03
-18.87
-20.20
-19.60
-17.07
-13.01
-8.01
-2.72
2.31
6.71
10.23
12.73
14.07
14.21
13.20
11.32
9.04
6.89
5.30
4.47
4.30
4.45
4.50
4.14
3.17
1.60
-0.47
-2.86
-5.42
-7.95
-10.29
-12.28
-13.81
-14.96
-16.05
-17.54
-19.87
-23.19
-27.13
-30.82
-33.11
-33.05
-30.23
-25.03
-18.41
-11.48
-5.09
0.42
5.10
9.16
12.66
15.43
17.22
17.85
17.41
16.26
14.86
13.55
12.45
11.46
10.35
8.92
7.04
4.75
2.24
-0.24
-2.42
-4.16
-5.48
-6.60
-7.76
-9.16
-10.84
-12.71
-14.64
-16.61
-18.70
-20.96
-23.22
-25.02
-25.61
-24.27
-20.62
-14.88
-7.82
-0.56
5.92
11.03
14.74
17.37
19.37
21.00
22.21
22.73
22.33
20.99
19.03
16.88
14.95
13.37
11.95
10.40
8.46
6.11
3.52
0.98
-1.31
-3.27
-4.94
-6.46
-7.94
-9.49
-11.25
-13.32
-15.82
-18.74
-21.91
-24.96
-27.35
-28.47
-27.84
-25.27
-20.91
-15.27
-8.99
-2.66
3.29
8.65
13.31
17.18
20.13
21.98
22.62
22.10
20.67
18.70
16.63
14.82
13.45
12.50
11.77
10.94
9.71
7.90
5.50
2.69
-0.26
-3.11
-5.70
-8.04
-10.22
-12.37
-14.53
-16.70
-18.85
-21.03
-23.29
-25.57
-27.57
-28.69
-28.21
-25.63
-20.97
-14.80
-8.04
-1.51
4.36
9.60
14.45
19.03
23.08
26.10
27.63
27.59
26.39
24.75
23.37
22.57
22.25
22.04
21.54
20.62
19.41
18.16
17.05
15.98
14.60
12.54
9.61
5.99
2.14
-1.39
-4.27
-6.55
-8.60
-10.95
-13.98
-17.71
-21.78
-25.52
-28.16
-29.09
-27.91
-24.67
-19.74
-13.83
-7.73
-2.17
2.37
5.73
7.98
9.34
10.00
10.12
9.81
9.12
8.16
7.06
5.92
4.84
3.89
3.10
2.52
2.23
2.26
2.62
3.24
3.99
4.74
5.38
5.82
6.03
5.98
5.63
4.97
3.95
2.48
0.51
-2.01
-5.01
-8.32
-11.58
-14.32
-16.06
-16.40
-15.14
-12.35
-8.33
-3.48
1.69
6.70
11.11
14.59
16.99
18.31
18.73
18.46
17.74
16.72
15.49
14.09
12.52
10.87
9.24
7.76
6.45
5.32
4.25
3.10
1.77
0.23
-1.39
-2.99
-4.43
-5.75
-7.05
-8.53
-10.30
-12.31
-14.41
-16.39
-18.19
-19.90
-21.65
-23.39
-24.79
-25.22
-23.99
-20.71
-15.54
-9.20
-2.72
2.98
7.36
10.38
12.34
13.59
14.39
14.84
15.01
15.03
15.07
15.29
15.66
16.00
16.06
15.69
14.86
13.71
12.47
11.31
10.35
9.59
8.97
8.36
7.63
6.61
5.20
3.41
1.29
-1.05
-3.57
-6.24
-9.05
-11.81
-14.16
-15.62
-15.73
-14.28
-11.37
-7.37
-2.87
1.56
5.38
8.23
9.90
10.32
9.61
8.01
5.86
3.54
1.40
-0.29
-1.36
-1.79
-1.74
-1.46
-1.27
-1.44
-2.01
-2.87
-3.76
-4.45
-4.85
-5.07
-5.32
-5.79
-6.54
-7.46
-8.36
-9.11
-9.73
-10.40
-11.35
-12.67
-14.12
-15.18
-15.17
-13.56
-10.25
-5.61
-0.44
4.44
8.36
11.04
12.54
13.11
13.01
12.46
11.66
10.81
10.11
9.63
9.24
8.63
7.46
5.56
3.08
0.38
-2.09
-4.05
-5.47
-6.54
-7.48
-8.41
-9.31
-10.09
-10.73
-11.29
-11.92
-12.82
-14.19
-16.19
-18.87
-22.07
-25.35
-28.00
-29.14
-28.11
-24.66
-19.13
-12.27
-5.03
1.82
7.77
12.56
16.07
18.20
18.92
18.38
16.93
15.08
13.31
11.88
10.74
9.64
8.30
6.56
4.50
2.32
0.27
-1.51
-3.04
-4.47
-5.99
-7.74
-9.71
-11.77
-13.67
-15.15
-16.10
-16.55
-16.73
-16.95
-17.55
-18.67
-20.25
-21.96
-23.29
-23.64
-22.51
-19.69
-15.31
-9.88
-4.13
1.18
5.53
8.68
10.75
11.97
12.60
12.81
12.68
12.28
11.74
11.21
10.76
10.36
9.86
9.13
8.14
7.01
5.84
4.71
3.50
2.08
0.34
-1.72
-3.97
-6.29
-8.61
-10.93
-13.31
-15.74
-18.16
-20.48
-22.58
-24.32
-25.51
-25.85
-25.05
-22.86
-19.25
-14.44
-8.83
-2.91
2.93
8.36
13.18
17.22
20.31
22.35
23.37
23.53
23.13
22.45
21.67
20.88
20.01
19.03
17.92
16.72
15.45
14.08
12.57
10.86
8.94
6.81
4.51
2.01
-0.67
-3.54
-6.55
-9.69
-12.92
-16.22
-19.50
-22.44
-24.56
-25.28
-24.17
-21.12
-16.47
-10.90
-5.19
0.04
4.50
8.19
11.24
13.76
15.69
16.90
17.29
16.97
16.22
15.41
14.79
14.40
14.08
13.62
12.93
12.09
11.26
10.52
9.77
8.74
7.20
5.07
2.55
-0.08
-2.53
-4.70
-6.70
-8.75
-11.13
-13.97
-17.21
-20.59
-23.60
-25.57
-25.90
-24.20
-20.49
-15.19
-9.02
-2.74
3.10
8.23
12.62
16.31
19.29
21.50
22.87
23.36
23.05
22.13
20.84
19.42
18.08
16.92
15.94
15.07
14.15
13.06
11.73
10.23
8.64
7.08
5.56
3.97
2.16
-0.02
-2.67
-5.79
-9.34
-13.23
-17.31
-21.31
-24.78
-27.15
-27.91
-26.73
-23.64
-19.02
-13.45
-7.52
-1.68
3.77
8.61
12.65
15.69
17.63
18.52
18.55
18.03
17.19
16.22
15.22
14.28
13.50
12.94
12.58
12.23
11.64
10.56
8.91
6.83
4.62
2.57
0.81
-0.76
-2.41
-4.44
-7.01
-10.20
-13.92
-18.03
-22.26
-26.16
-29.13
-30.45
-29.60
-26.42
-21.29
-14.99
-8.44
-2.35
2.90
7.28
10.88
13.74
15.76
16.86
17.08
16.67
15.98
15.30
14.73
14.14
13.30
12.11
10.63
9.09
7.73
6.67
5.83
4.96
3.77
2.11
0.01
-2.32
-4.65
-6.77
-8.66
-10.44
-12.31
-14.45
-16.89
-19.40
-21.55
-22.79
-22.60
-20.70
-17.17
-12.33
-6.71
-0.84
4.84
10.07
14.64
18.39
21.17
22.85
23.43
23.06
21.98
20.50
18.85
17.21
15.68
14.31
13.10
12.00
10.90
9.69
8.25
6.52
4.51
2.29
-0.02
-2.26
-4.30
-6.05
-7.54
-8.96
-10.63
-12.86
-15.80
-19.27
-22.77
-25.52
-26.73
-25.87
-22.77
-17.70
-11.28
-4.28
2.51
8.44
13.05
16.15
17.77
18.18
17.83
17.20
16.67
16.41
16.35
16.20
15.68
14.64
13.17
11.55
10.08
8.95
8.11
7.34
6.33
4.86
2.86
0.43
-2.25
-5.00
-7.64
-10.08
-12.28
-14.29
-16.24
-18.31
-20.56
-22.86
-24.74
-25.60
-24.85
-22.21
-17.84
-12.27
-6.23
-0.38
4.84
9.21
12.67
15.18
16.72
17.32
17.13
16.44
15.60
14.90
14.49
14.28
14.05
13.58
12.78
11.72
10.56
9.48
8.47
7.41
6.11
4.47
2.53
0.45
-1.59
-3.53
-5.42
-7.44
-9.75
-12.40
-15.26
-17.95
-19.92
-20.58
-19.54
-16.69
-12.32
-7.04
-1.56
3.54
7.89
11.40
14.15
16.25
17.71
18.53
18.70
18.34
17.72
17.15
16.86
16.91
17.08
17.08
16.66
15.72
14.37
12.81
11.14
9.34
7.30
4.95
2.34
-0.40
-3.14
-5.85
-8.70
-11.85
-15.39
-19.12
-22.56
-25.13
-26.26
-25.66
-23.33
-19.55
-14.81
-9.60
-4.37
0.54
4.85
8.35
10.88
12.34
12.73
12.17
10.87
9.09
7.08
5.14
3.48
2.27
1.53
1.17
0.95
0.58
-0.22
-1.58
-3.45
-5.61
-7.81
-9.81
-11.56
-13.12
-14.63
-16.19
-17.86
-19.62
-21.47
-23.37
-25.25
-26.89
-27.86
-27.60
-25.63
-21.85
-16.58
-10.57
-4.63
0.64
5.00
8.57
11.57
14.07
15.95
16.95
16.87
15.73
13.78
11.48
9.34
7.81
7.16
7.44
8.44
9.69
10.68
10.94
10.26
8.68
6.39
3.56
0.30
-3.35
-7.35
-11.53
-15.72
-19.75
-23.62
-27.36
-30.91
-33.93
-35.87
-36.06
-34.12
-30.13
-24.70
-18.71
-12.99
-8.13
-4.27
-1.33
0.86
2.41
3.28
3.41
2.87
1.88
0.89
0.34
0.52
1.36
2.49
3.36
3.52
2.84
1.56
0.15
-1.02
-1.84
-2.60
-3.76
-5.77
-8.74
-12.47
-16.49
-20.29
-23.45
-25.64
-26.64
-26.20
-24.17
-20.57
-15.64
-9.87
-3.80
2.14
7.70
12.80
17.38
21.32
24.44
26.56
27.61
27.71
27.14
26.21
25.18
24.16
23.14
22.10
21.04
19.97
18.93
17.87
16.69
15.28
13.58
11.65
9.64
7.74
6.05
4.52
2.93
0.97
-1.60
-4.88
-8.73
-12.79
-16.48
-19.11
-20.01
-18.68
-15.00
-9.29
-2.31
5.00
11.75
17.36
21.64
24.66
26.58
27.48
27.36
26.23
24.24
21.74
19.16
16.83
14.84
13.01
10.98
8.48
5.39
1.88
-1.76
-5.22
-8.33
-11.10
-13.64
-16.13
-18.65
-21.19
-23.69
-26.04
-28.26
-30.48
-32.90
-35.66
-38.71
-41.66
-43.89
-44.66
-43.41
-40.00
-34.76
-28.39
-21.69
-15.32
-9.65
-4.85
-0.95
2.06
4.22
5.63
6.57
7.41
8.46
9.82
11.27
12.48
13.13
13.15
12.76
12.30
12.08
12.21
12.60
13.03
13.32
13.37
13.13
12.56
11.61
10.20
8.34
6.04
3.42
0.57
-2.30
-4.90
-6.82
-7.59
-6.79
-4.24
-0.07
5.20
10.82
16.00
20.09
22.75
23.91
23.76
22.55
20.54
17.93
14.92
11.67
8.39
5.22
2.21
-0.72
-3.73
-6.88
-10.06
-12.94
-15.17
-16.54
-17.18
-17.53
-18.27
-20.09
-23.50
-28.69
-35.45
-43.15
-50.93
-57.85
-63.09
-66.18
-67.00
-65.68
-62.47
-57.58
-51.19
-43.54
-35.08
-26.48
-18.42
-11.40
-5.57
-0.73
3.54
7.64
11.83
16.06
20.06
23.47
25.91
27.20
27.37
26.78
25.96
25.52
25.94
27.51
30.19
33.80
37.95
42.11
45.66
47.95
48.45
46.97
43.80
39.61
35.30
31.56
28.71
26.60
24.88
23.29
21.98
21.43
22.13
24.19
27.18
30.24
32.53
33.54
33.31
32.26
30.84
29.29
27.50
25.22
22.38
19.15
15.99
13.41
11.77
11.12
11.26
11.80
12.32
12.50
12.13
11.17
9.70
7.87
5.79
3.50
0.97
-1.91
-5.23
-9.08
-13.49
-18.41
-23.68
-29.02
-34.03
-38.17
-40.86
-41.63
-40.21
-36.74
-31.71
-25.91
-20.17
-15.17
-11.29
-8.60
-6.97
-6.24
-6.30
-7.07
-8.45
-10.19
-11.98
-13.47
-14.42
-14.86
-14.97
-15.06
-15.40
-16.11
-17.20
-18.56
-20.03
-21.50
-22.92
-24.25
-25.53
-26.80
-28.20
-29.97
-32.34
-35.51
-39.49
-43.96
-48.28
-51.61
-53.19
-52.49
-49.41
-44.21
-37.39
-29.47
-20.96
-12.26
-3.82
3.85
10.26
15.08
18.25
20.10
21.17
22.02
22.99
24.12
25.19
25.95
26.17
25.80
24.81
23.22
21.04
18.30
15.13
11.76
8.39
5.10
1.79
-1.78
-5.81
-10.37
-15.21
-19.89
-23.82
-26.48
-27.54
-26.95
-24.91
-21.76
-17.88
-13.53
-8.83
-3.75
1.80
7.81
14.18
20.62
26.81
32.46
37.34
41.37
44.55
46.84
48.15
48.35
47.27
44.80
40.99
36.10
30.61
25.12
20.21
16.29
13.41
11.34
9.63
7.86
5.79
3.49
1.22
-0.64
-1.71
-1.75
-0.68
1.37
4.12
7.17
10.17
12.89
15.24
17.25
18.89
19.96
20.15
19.08
16.56
12.69
7.81
2.42
-3.01
-8.15
-12.88
-17.20
-21.23
-25.12
-28.98
-32.78
-36.37
-39.43
-41.56
-42.43
-41.89
-40.13
-37.65
-35.09
-33.05
-31.73
-30.87
-29.82
-27.81
-24.30
-19.20
-12.87
-6.01
0.69
6.63
11.47
15.01
17.23
18.23
18.32
17.95
17.66
17.84
18.63
19.79
20.77
20.96
19.89
17.44
13.98
10.18
6.87
4.80
4.42
5.88
9.01
13.44
18.62
23.83
28.28
31.11
31.64
29.66
25.57
20.49
15.99
13.66
14.62
19.07
26.25
34.66
42.63
48.78
52.46
53.73
53.02
50.85
47.51
43.08
37.61
31.34
24.79
18.60
13.26
8.83
4.94
0.88
-4.00
-9.90
-16.43
-22.67
-27.52
-30.21
-30.57
-29.17
-27.08
-25.54
-25.57
-27.74
-32.06
-38.05
-44.81
-51.11
-55.62
-57.19
-55.12
-49.52
-41.27
-31.80
-22.57
-14.66
-8.49
-3.83
-0.14
3.15
6.34
9.43
12.24
14.51
16.00
16.58
16.16
14.74
12.49
9.77
7.06
4.79
3.16
2.13
1.35
0.42
-1.05
-3.25
-6.26
-10.08
-14.64
-19.84
-25.59
-31.78
-38.35
-45.19
-52.06
-58.43
-63.37
-65.71
-64.33
-58.63
-48.81
-35.91
-21.51
-7.25
5.65
16.59
25.57
32.93
39.18
44.83
50.31
55.96
61.97
68.25
74.43
79.91
84.07
86.45
86.97
85.88
83.67
80.88
77.91
74.85
71.55
67.62
62.65
56.29
48.38
39.00
28.46
17.31
6.33
-3.57
-11.47
-16.65
-18.79
-18.09
-15.18
-10.96
-6.32
-1.97
1.63
4.25
5.71
5.79
4.37
1.50
-2.48
-7.11
-11.86
-16.23
-19.67
-21.58
-21.47
-19.11
-14.71
-8.95
-2.92
2.35
6.12
8.37
9.46
9.64
8.90
7.00
3.69
-1.09
-7.11
-13.90
-20.41
-25.81
-29.87
-32.91
-35.16
-36.64
-37.04
-35.97
-33.09
-27.23
-17.91
-5.98
6.62
17.99
26.91
32.83
35.80
36.16
36.11
37.32
40.00
43.01
45.40
46.82
47.22
46.54
44.50
42.94
43.34
45.90
49.88
55.37
63.34
74.96
90.83
97.02
85.82
60.53
32.18
8.93
-7.44
-19.45
-30.63
-43.35
-58.16
-71.84
-81.27
-84.51
-84.11
-82.47
-81.10
-80.62
-81.18
-82.70
-83.44
-82.12
-78.76
-74.58
-70.31
-65.85
-60.67
-54.32
-46.75
-37.27
-25.76
-13.06
-0.85
9.51
17.07
21.38
22.36
20.31
16.24
11.25
6.11
1.10
-3.50
-7.41
-10.23
-11.52
-10.57
-7.14
-2.07
3.13
7.11
9.73
11.38
12.66
14.04
15.64
17.15
17.95
17.78
16.76
15.32
13.90
12.83
12.17
11.75
11.18
10.09
8.35
6.00
3.20
0.11
-3.04
-6.03
-8.66
-10.92
-12.90
-14.76
-16.71
-18.83
-21.06
-23.14
-24.72
-25.59
-25.85
-25.96
-26.47
-27.80
-29.97
-32.48
-34.53
-35.26
-34.18
-31.26
-26.91
-21.74
-16.33
-11.18
-6.69
-3.17
-0.87
0.19
0.21
-0.40
-1.19
-1.84
-2.19
-2.16
-1.62
-0.35
1.82
4.80
8.09
10.89
12.42
12.29
10.69
8.27
5.79
3.69
1.94
0.07
-2.49
-6.00
-10.22
-14.48
-17.85
-19.64
-19.56
-17.86
-15.08
-11.73
-8.02
-3.76
1.30
7.22
13.58
19.53
24.09
26.64
27.12
26.15
24.64
23.53
23.39
24.41
26.41
29.02
31.80
34.24
35.91
36.44
35.72
33.93
31.55
29.22
27.38
26.08
24.70
22.10
17.03
8.75
-2.42
-14.91
-26.35
-34.39
-37.61
-36.11
-31.28
-25.17
-19.54
-15.34
-12.55
-10.71
-9.33
-8.28
-7.67
-7.63
-8.08
-8.68
-9.02
-8.84
-8.15
-7.26
-6.57
-6.36
-6.73
-7.56
-8.64
-9.78
-10.87
-11.88
-12.84
-13.74
-14.54
-15.20
-15.68
-15.99
-16.27
-16.68
-17.37
-18.43
-19.76
-21.13
-22.17
-22.47
-21.67
-19.63
-16.41
-12.28
-7.62
-2.83
1.77
6.06
10.06
13.94
17.85
21.88
25.90
29.59
32.54
34.40
35.02
34.54
33.31
31.83
30.54
29.78
29.68
30.14
30.78
30.84
29.34
25.29
18.07
7.78
-4.60
-17.43
-28.84
-37.31
-42.11
-43.34
-41.74
-38.22
-33.54
-28.14
-22.20
-15.83
-9.21
-2.64
3.57
9.15
13.88
17.57
20.03
21.02
20.44
18.43
15.45
12.22
9.49
7.74
6.98
6.69
6.06
4.27
0.95
-3.72
-9.06
-14.18
-18.31
-21.14
-22.84
-23.88
-24.76
-25.79
-27.02
-28.32
-29.57
-30.72
-31.81
-32.84
-33.66
-33.98
-33.40
-31.58
-28.43
-24.11
-19.02
-13.69
-8.62
-4.11
-0.23
3.13
6.20
9.09
11.79
14.13
15.90
17.08
17.87
18.65
19.85
21.75
24.31
27.22
29.97
32.10
33.24
33.23
31.94
29.32
25.31
20.00
13.68
6.96
0.62
-4.59
-8.33
-10.71
-12.32
-13.91
-15.92
-18.34
-20.67
-22.19
-22.31
-20.80
-17.84
-13.85
-9.32
-4.70
-0.38
3.31
6.03
7.56
7.86
7.19
5.98
4.79
4.07
4.07
4.75
5.87
7.03
7.84
8.00
7.36
6.05
4.33
2.59
1.12
0.02
-0.82
-1.68
-2.85
-4.44
-6.39
-8.47
-10.35
-11.74
-12.43
-12.34
-11.49
-10.05
-8.28
-6.53
-5.14
-4.30
-3.99
-3.90
-3.61
-2.74
-1.22
0.68
2.47
3.64
3.88
3.31
2.35
1.57
1.48
2.25
3.76
5.65
7.48
8.96
10.00
10.70
11.24
11.81
12.41
12.89
12.89
12.02
9.94
6.55
2.12
-2.67
-6.85
-9.44
-9.81
-7.93
-4.40
-0.18
3.80
6.95
9.22
10.91
12.42
13.93
15.32
16.14
15.88
14.12
10.65
5.54
-0.89
-8.10
-15.43
-22.09
-27.30
-30.34
-30.66
-28.10
-22.94
-15.97
-8.42
-1.74
2.77
4.32
2.81
-1.04
-5.93
-10.45
-13.47
-14.50
-13.72
-11.81
-9.54
-7.49
-5.94
-4.89
-4.27
-4.05
-4.31
-5.10
-6.40
-8.05
-9.90
-11.88
-14.10
-16.61
-19.19
-21.29
-22.06
-20.76
-17.17
-11.83
-5.93
-0.92
2.03
2.55
1.11
-1.12
-2.85
-3.20
-2.07
0.02
2.15
3.63
4.19
4.09
3.79
3.64
3.60
3.28
2.29
0.46
-1.93
-4.30
-6.03
-6.71
-6.34
-5.28
-4.07
-3.21
-2.91
-3.02
-3.08
-2.63
-1.33
0.79
3.39
5.93
7.93
9.13
9.51
9.26
8.64
7.85
6.91
5.72
4.14
2.15
-0.10
-2.31
-4.14
-5.41
-6.15
-6.56
-6.84
-7.04
-6.99
-6.48
-5.37
-3.73
-1.83
0.02
1.65
3.07
4.46
6.00
7.71
9.43
10.87
11.80
12.17
12.17
12.14
12.35
12.83
13.34
13.49
12.99
11.83
10.28
8.71
7.42
6.46
5.67
4.81
3.76
2.56
1.35
0.21
-0.92
-2.17
-3.62
-5.19
-6.55
-7.27
-7.00
-5.64
-3.39
-0.77
1.66
3.44
4.43
4.82
4.98
5.29
5.87
6.60
7.14
7.16
6.48
5.20
3.58
1.95
0.54
-0.54
-1.34
-1.96
-2.48
-2.91
-3.24
-3.44
-3.52
-3.56
-3.61
-3.71
-3.83
-3.91
-3.86
-3.67
-3.34
-2.95
-2.56
-2.21
-1.92
-1.68
-1.48
-1.29
-1.04
-0.70
-0.25
0.24
0.67
0.93
0.95
0.81
0.63
0.56
0.63
0.77
0.87
0.84
0.70
0.65
0.89
1.62
2.85
4.43
6.06
7.42
8.22
8.33
7.74
6.59
5.07
3.38
1.72
0.31
-0.62
-0.91
-0.50
0.51
1.97
3.67
5.43
7.13
8.69
10.07
11.23
12.14
12.79
13.28
13.71
14.11
14.42
14.53
14.34
13.79
12.84
11.51
10.11
9.00
8.35
8.18
8.43
9.04
9.89
10.76
11.36
11.71
11.69
10.85
8.52
4.39
-1.19
-7.35
-13.04
-17.26
-18.68
-16.60
-11.45
-4.64
2.12
7.56
11.07
12.98
14.62
19.01
28.96
45.47
67.03
90.09
110.06
122.31
123.23
106.21
70.29
22.28
-26.16
-65.09
-90.49
-103.50
-107.79
-107.32
-105.27
-102.76
-100.07
-97.35
-94.09
-88.38
-77.11
-57.48
-28.77
6.46
43.57
77.51
102.54
114.64
113.06
100.52
81.57
60.96
42.16
27.68
18.29
13.55
12.48
13.92
16.49
18.22
17.19
11.95
2.60
-9.89
-23.34
-35.20
-43.77
-49.08
-52.65
-55.29
-59.25
-62.00
-61.10
-55.85
-47.79
-40.13
-34.13
-31.75
-33.31
-37.33
-40.78
-41.20
-37.67
-31.48
-26.01
-25.33
-32.89
-49.02
-70.37
-90.32
-101.45
-97.49
-74.97
-34.02
21.39
83.65
142.90
188.67
212.52
210.30
183.93
140.92
91.74
45.92
8.79
-19.16
-40.88
-59.94
-78.50
-96.53
-112.61
-125.19
-133.36
-136.85
-135.27
-127.82
-113.67
-92.64
-66.05
-36.82
-8.86
14.06
29.42
36.73
37.38
33.83
28.49
22.84
17.22
11.38
5.12
-1.12
-6.24
-8.86
-7.97
-3.47
3.75
12.15
20.29
27.08
31.86
34.32
34.42
32.33
28.21
22.51
15.77
9.25
4.10
0.98
-0.13
0.26
1.65
3.68
6.72
11.40
19.18
30.82
45.83
62.36
77.82
89.96
97.14
99.55
98.26
95.96
94.85
95.82
98.49
102.07
106.49
112.20
120.54
124.56
118.91
102.07
77.93
52.51
30.12
15.02
3.97
-6.62
-19.58
-34.97
-51.83
-69.00
-84.95
-99.01
-111.26
-122.62
-133.02
-141.80
-146.65
-146.26
-140.07
-129.06
-115.27
-100.88
-87.82
-76.77
-67.86
-59.78
-52.42
-45.27
-38.18
-31.00
-23.00
-12.84
1.53
21.70
48.63
79.51
110.26
135.55
150.44
151.65
138.17
111.65
71.71
29.77
-9.81
-42.26
-64.22
-74.26
-73.23
-64.04
-50.50
-36.16
-22.79
-12.43
-4.95
-0.43
1.73
2.73
3.88
6.26
10.32
16.55
23.82
31.41
37.66
41.26
41.20
36.70
27.25
12.69
-6.06
-27.64
-48.95
-66.05
-75.08
-73.75
-62.35
-43.67
-22.12
-2.12
12.70
20.80
22.45
19.27
13.28
6.20
-0.79
-6.94
-11.73
-14.86
-16.09
-15.40
-12.98
-9.44
-5.61
-2.33
-0.10
1.17
1.97
