1603972494.00
64.000000
-0.00
-0.00
-0.00
-0.00
-0.00
-0.00
-0.00
-0.00
-0.00
-0.00
0.00
0.01
0.01
-0.00
-0.03
-0.05
-0.05
0.00
0.13
0.36
0.66
1.01
1.37
1.72
2.06
2.40
2.79
3.24
3.80
4.42
5.06
5.66
6.20
6.68
7.15
7.68
8.31
9.14
10.09
11.04
11.88
12.56
13.14
13.76
14.65
15.96
17.92
20.32
22.91
25.38
27.57
29.56
31.67
34.33
37.85
42.60
48.20
54.10
59.72
64.70
69.13
73.53
78.62
84.93
92.97
102.21
111.79
120.82
128.71
135.53
141.95
149.34
156.38
165.30
176.62
190.38
205.31
218.54
225.81
222.60
205.61
173.98
129.98
77.28
20.02
-38.67
-97.18
-155.05
-212.08
-267.77
-321.22
-371.18
-417.11
-458.72
-495.64
-526.89
-550.66
-564.62
-566.54
-555.23
-530.81
-495.14
-451.04
-401.54
-349.14
-295.44
-241.33
-187.37
-134.39
-83.57
-36.58
4.88
39.44
66.23
85.20
97.36
105.03
111.62
120.94
135.79
156.86
182.21
207.83
229.25
243.20
248.68
246.79
239.72
229.54
217.49
204.08
189.53
174.34
159.35
145.45
133.18
122.50
112.84
103.39
93.56
83.21
72.70
62.69
53.85
46.52
40.71
35.83
31.21
26.38
21.27
16.21
11.70
8.13
5.61
3.87
2.46
0.97
-0.78
-2.68
-4.44
-5.77
-6.53
-6.82
-6.88
-6.96
-7.16
-7.45
-7.71
-7.82
-7.76
-7.59
-7.39
-7.23
-7.17
-7.23
-7.33
-7.23
-6.65
-5.34
-3.32
-0.96
1.05
2.07
1.81
0.50
-1.23
-2.68
-3.42
-3.52
-3.32
-3.22
-3.36
-3.62
-3.73
-3.51
-3.03
-2.52
-2.21
-2.18
-2.39
-2.59
-2.62
-2.42
-2.09
-1.86
-1.87
-2.19
-2.72
-3.20
-3.40
-3.13
-2.41
-1.39
-0.31
0.61
1.23
1.58
1.75
1.88
2.10
2.44
2.87
3.35
3.84
4.29
4.70
5.04
5.33
5.59
5.83
6.07
6.33
6.55
6.69
6.63
6.31
5.66
4.66
3.40
1.90
0.24
-1.50
-3.22
-4.83
-6.22
-7.30
-8.03
-8.43
-8.56
-8.48
-8.25
-7.90
-7.45
-6.96
-6.48
-6.08
-5.80
-5.59
-5.40
-5.14
-4.78
-4.33
-3.86
-3.41
-3.05
-2.76
-2.56
-2.45
-2.39
-2.36
-2.30
-2.18
-1.96
-1.69
-1.42
-1.21
-1.09
-1.05
-1.06
-1.08
-1.08
-1.01
-0.88
-0.70
-0.51
-0.34
-0.18
-0.04
0.10
0.22
0.31
0.32
0.28
0.23
0.27
0.46
0.81
1.26
1.72
2.06
2.23
2.21
2.01
1.68
1.33
1.04
0.86
0.78
0.74
0.68
0.59
0.50
0.48
0.58
0.74
0.79
0.56
-0.03
-0.92
-1.88
-2.66
-3.07
-3.08
-2.79
-2.35
-1.87
-1.37
-0.78
-0.04
0.85
1.79
2.63
3.27
3.72
4.11
4.65
5.55
6.84
8.44
10.14
11.73
13.12
14.32
15.44
16.63
17.96
19.49
21.19
23.07
25.15
27.57
30.55
34.36
39.15
44.71
50.39
55.21
58.12
58.41
55.98
51.25
44.92
37.61
29.63
21.06
11.94
2.54
-6.64
-14.95
-21.88
-27.22
-31.01
-33.44
-34.71
-34.98
-34.35
-33.05
-31.40
-29.82
-28.71
-28.24
-28.36
-28.78
-29.19
-29.35
-29.13
-28.52
-27.50
-26.06
-24.23
-22.12
-19.94
-17.86
-15.89
-13.86
-11.47
-8.55
-5.16
-1.72
1.21
3.08
3.67
3.07
1.68
0.01
-1.47
-2.46
-2.88
-2.88
-2.79
-3.09
-4.22
-6.39
-9.49
-13.05
-16.42
-19.05
-20.80
-22.15
-24.09
-27.91
-34.75
-45.15
-58.71
-73.83
-87.77
-97.23
-99.26
-92.49
-77.82
-58.39
-38.54
-22.30
-12.00
-7.75
-7.88
-10.12
-12.57
-14.25
-14.92
-14.55
-13.00
-10.01
-5.54
-0.05
5.60
10.41
13.69
15.24
15.46
15.02
14.58
14.60
15.16
16.07
16.91
17.28
16.84
15.51
13.50
11.20
9.10
7.50
6.42
5.51
4.24
2.18
-0.78
-4.31
-7.82
-10.70
-12.63
-13.73
-14.45
-15.39
-16.99
-19.39
-22.43
-25.73
-28.79
-31.07
-32.02
-31.19
-28.32
-23.55
-17.43
-10.90
-4.96
-0.40
2.48
3.86
4.23
4.14
4.03
4.19
4.84
6.22
8.52
11.82
15.96
20.58
25.23
29.59
33.51
37.01
40.07
42.58
44.27
44.88
44.26
42.48
39.77
36.36
32.42
28.08
23.47
18.85
14.55
10.86
7.91
5.63
3.82
2.36
1.22
0.46
0.10
0.03
-0.04
-0.38
-1.12
-2.15
-3.21
-4.04
-4.49
-4.59
-4.42
-4.05
-3.51
-2.85
-2.16
-1.60
-1.35
-1.49
-1.97
-2.68
-3.51
-4.48
-5.72
-7.42
-9.74
-12.73
-16.33
-20.26
-24.06
-27.03
-28.40
-27.45
-23.82
-17.67
-9.66
-0.86
7.63
14.94
20.59
24.52
26.92
28.07
28.17
27.35
25.68
23.29
20.42
17.34
14.35
11.60
9.13
6.89
4.86
3.11
1.85
1.36
1.80
3.15
5.07
7.03
8.39
8.70
7.79
5.83
3.26
0.57
-1.86
-3.87
-5.47
-6.70
-7.54
-7.79
-7.18
-5.49
-2.68
1.06
5.41
9.98
14.41
18.43
21.87
24.55
26.31
27.02
26.69
25.58
24.22
23.30
23.38
24.59
26.54
28.44
29.38
28.79
26.57
23.10
19.07
15.11
11.71
9.09
7.26
6.06
5.17
4.19
2.83
1.02
-1.02
-2.81
-3.92
-4.17
-3.76
-3.21
-3.01
-3.44
-4.33
-5.22
-5.54
-4.91
-3.25
-0.71
2.38
5.68
8.86
11.57
13.46
14.30
14.02
12.87
11.31
9.86
8.88
8.44
8.36
8.34
8.19
7.81
7.20
6.36
5.21
3.75
2.06
0.40
-0.93
-1.75
-2.07
-2.12
-2.15
-2.28
-2.50
-2.70
-2.78
-2.79
-2.82
-2.92
-3.00
-2.84
-2.29
-1.37
-0.31
0.54
0.93
0.78
0.24
-0.44
-1.07
-1.59
-2.02
-2.43
-2.80
-3.06
-3.13
-3.01
-2.78
-2.56
-2.39
-2.18
-1.78
-1.01
0.14
1.54
2.94
4.08
4.81
5.11
5.08
4.84
4.48
4.08
3.66
3.23
2.77
2.22
1.48
0.49
-0.74
-2.07
-3.29
-4.18
-4.62
-4.62
-4.28
-3.70
-3.00
-2.22
-1.38
-0.51
0.31
1.05
1.71
2.34
3.07
4.01
5.16
6.42
7.56
8.29
8.49
8.20
7.67
7.24
7.18
7.56
8.23
8.95
9.48
9.74
9.73
9.56
9.26
8.84
8.26
7.51
6.60
5.66
4.76
3.97
3.29
2.61
1.84
0.88
-0.31
-1.68
-3.10
-4.40
-5.46
-6.26
-6.88
-7.48
-8.23
-9.21
-10.40
-11.64
-12.74
-13.51
-13.86
-13.82
-13.57
-13.34
-13.31
-13.53
-13.90
-14.20
-14.24
-13.93
-13.35
-12.70
-12.17
-11.86
-11.77
-11.80
-11.89
-12.01
-12.19
-12.48
-12.89
-13.37
-13.83
-14.13
-14.20
-14.08
-13.93
-13.99
-14.48
-15.42
-16.55
-17.40
-17.45
-16.35
-14.01
-10.70
-6.86
-3.01
0.38
3.01
4.79
5.87
6.65
7.62
9.23
11.71
14.91
18.41
21.64
24.07
25.43
25.71
25.13
24.02
22.75
21.61
20.76
20.22
19.81
19.26
18.27
16.68
14.50
12.02
9.60
7.61
6.24
5.46
5.09
4.87
4.61
4.16
3.43
2.35
0.90
-0.89
-2.87
-4.77
-6.29
-7.21
-7.53
-7.45
-7.32
-7.53
-8.32
-9.73
-11.52
-13.31
-14.69
-15.37
-15.28
-14.62
-13.78
-13.10
-12.79
-12.80
-12.84
-12.57
-11.74
-10.33
-8.52
-6.65
-5.00
-3.74
-2.88
-2.33
-1.95
-1.59
-1.12
-0.45
0.51
1.73
3.13
4.53
5.78
6.76
7.44
7.93
8.33
8.77
9.34
10.08
11.02
12.18
13.54
15.13
16.94
19.01
21.38
24.04
26.99
30.10
33.14
35.79
37.69
38.60
38.50
37.60
36.24
34.61
32.50
29.24
23.93
15.82
4.67
-8.95
-23.84
-38.41
-51.14
-60.78
-66.47
-67.75
-64.55
-57.32
-47.04
-35.21
-23.55
-13.56
-6.12
-1.32
1.48
3.32
5.19
7.75
11.12
15.02
18.91
22.23
24.51
25.44
24.89
22.84
19.48
15.23
10.83
7.31
5.71
6.75
10.44
16.10
22.44
28.14
32.30
34.76
35.94
36.31
35.84
33.73
28.82
20.09
7.31
-8.50
-25.20
-40.04
-50.52
-54.98
-52.89
-44.53
-31.06
-14.48
2.74
18.25
30.36
38.36
42.54
43.92
44.07
43.97
43.49
41.68
37.61
31.25
23.63
16.46
11.54
10.63
14.38
21.88
30.87
38.58
42.54
41.03
33.36
17.28
-5.48
-28.79
-44.93
-49.32
-42.60
-29.08
-14.12
-1.81
6.50
11.37
13.92
14.96
14.50
12.04
6.97
-1.13
-12.11
-25.21
-38.88
-51.56
-62.68
-72.94
-83.67
-95.63
-108.20
-119.40
-126.63
-127.74
-122.18
-111.35
-97.86
-84.03
-70.70
-57.46
-43.95
-30.88
-20.13
-13.76
-12.91
-16.98
-23.73
-29.83
-32.21
-29.12
-20.31
-6.51
11.02
30.41
49.35
62.89
66.08
57.53
40.94
23.16
10.64
6.78
11.05
19.87
28.51
33.50
33.63
29.57
23.62
17.95
14.55
15.06
20.24
29.46
40.80
51.37
56.73
53.89
42.90
26.84
10.08
-3.58
-12.34
-16.29
-16.69
-15.03
-12.22
-8.78
-5.14
-2.13
-0.52
-0.95
-3.28
-6.50
-9.12
-9.75
-7.87
-3.95
0.79
5.04
7.85
9.01
8.93
8.26
7.66
7.46
7.65
7.90
7.98
7.52
6.29
4.15
1.12
-2.53
-6.39
-9.98
-12.94
-15.05
-16.35
-16.99
-17.24
-17.37
-17.56
-17.93
-18.41
-18.80
-18.74
-17.88
-15.95
-12.94
-9.07
-4.81
-0.72
2.71
5.18
6.63
7.21
7.27
7.18
7.31
7.89
8.98
10.45
12.00
13.24
13.85
13.65
12.68
11.13
9.30
7.45
5.73
4.23
2.95
1.91
1.15
0.73
0.74
1.25
2.33
3.91
5.82
7.70
9.10
9.61
9.05
7.48
5.14
2.37
-0.57
-3.52
-6.31
-8.78
-10.72
-12.00
-12.59
-12.64
-12.36
-11.91
-11.33
-10.54
-9.48
-8.19
-6.80
-5.52
-4.53
-3.92
-3.64
-3.58
-3.64
-3.71
-3.67
-3.40
-2.83
-1.98
-0.94
0.22
1.45
2.70
3.95
5.14
6.18
6.95
7.34
7.42
7.44
7.68
8.28
9.21
10.28
11.22
11.77
11.67
10.94
9.86
8.86
8.23
8.09
8.39
8.91
9.27
8.70
6.86
3.78
-0.35
-5.49
-11.74
-19.12
-27.47
-36.37
-45.71
-54.60
-61.86
-66.46
-67.99
-66.67
-63.03
-57.89
-52.60
-49.79
-51.11
-56.72
-64.80
-71.75
-72.91
-63.82
-41.81
-4.80
42.07
88.75
124.78
144.11
145.54
130.90
103.73
69.06
34.62
3.48
-21.33
-37.80
-46.03
-48.29
-47.62
-46.30
-45.34
-44.39
-43.97
-44.16
-45.32
-48.01
-52.65
-58.99
-65.77
-71.16
-73.51
-72.46
-67.82
-59.72
-48.45
-34.43
-18.27
-0.85
16.49
32.10
44.08
51.54
54.72
54.90
53.88
53.32
54.21
56.60
59.82
62.74
64.53
64.76
63.39
60.67
57.21
53.87
51.61
51.07
52.15
53.98
55.13
54.30
50.95
45.59
39.70
35.10
33.27
34.86
39.50
45.99
52.62
57.70
59.97
59.04
55.45
50.53
45.89
42.75
41.58
41.97
43.04
43.85
43.86
43.01
41.67
40.49
40.44
42.76
48.60
58.31
70.55
81.80
86.89
80.66
60.19
26.47
-15.43
-57.90
-93.39
-116.90
-127.11
-125.96
-117.20
-104.68
-91.20
-78.32
-66.59
-56.16
-47.24
-40.15
-35.34
-33.10
-33.36
-35.84
-40.57
-48.65
-62.40
-84.38
-115.40
-152.78
-189.95
-218.27
-230.44
-223.65
-200.80
-168.89
-135.69
-106.35
-81.99
-60.69
-40.08
-19.63
-1.00
13.43
22.83
29.10
36.05
47.28
63.90
83.66
101.73
113.41
116.43
111.99
103.68
95.21
88.87
84.72
81.32
77.02
71.18
64.48
58.38
54.14
51.82
51.04
51.23
51.97
52.83
53.14
51.72
46.95
37.25
21.37
0.36
-22.79
-43.97
-59.40
-66.52
-64.15
-52.07
-30.54
-2.48
27.79
54.99
75.29
87.29
91.02
86.52
73.58
56.15
33.60
6.89
-21.33
-47.67
-69.42
-85.31
-95.28
-99.74
-99.08
-94.96
-88.77
-81.89
-74.99
-67.67
-58.34
-45.04
-26.68
-4.10
19.16
39.12
52.51
57.82
55.33
46.52
33.32
17.76
2.09
-11.56
-20.58
-22.91
-17.87
-6.67
7.99
22.91
35.46
44.38
49.57
51.91
52.57
52.55
52.56
53.09
54.45
56.73
59.79
62.90
64.96
64.86
62.02
56.57
49.23
41.03
32.93
25.80
19.87
14.69
9.51
3.81
-2.44
-8.92
-15.11
-20.54
-24.67
-27.53
-29.79
-32.04
-34.20
-35.33
-34.20
-29.86
-21.92
-10.18
4.71
21.11
36.68
48.70
54.30
50.63
35.53
6.52
-33.31
-75.68
-111.72
-136.96
-151.62
-157.39
-154.70
-142.42
-119.48
-86.54
-47.72
-9.79
20.53
39.40
47.01
46.55
42.13
37.07
33.30
31.04
29.38
27.30
24.40
21.01
17.73
15.03
13.19
12.43
12.36
12.41
12.03
11.08
9.80
8.57
7.63
7.00
6.55
5.94
4.75
2.73
-0.05
-3.16
-6.15
-8.68
-10.73
-12.43
-13.93
-15.32
-16.50
-17.24
-17.39
-16.96
-16.20
-15.48
-15.14
-15.06
-15.05
-14.78
-13.91
-12.32
-10.13
-7.64
-5.21
-3.15
-1.64
-0.78
-0.58
-0.99
-1.86
-2.97
-4.01
-4.66
-4.69
-4.00
-2.69
-1.00
0.79
2.45
3.82
4.92
5.87
6.86
8.10
9.66
11.51
13.45
15.21
16.52
17.17
17.10
16.35
15.07
13.44
11.64
9.86
8.24
6.91
5.99
5.55
5.59
6.04
6.76
7.54
8.22
8.61
8.62
8.25
7.61
6.87
6.28
5.96
5.95
6.14
6.35
6.44
6.32
6.01
5.54
4.98
4.41
3.93
3.61
3.44
3.30
3.00
2.38
1.47
0.49
-0.28
-0.67
-0.77
-0.83
-1.13
-1.77
-2.70
-3.82
-5.10
-6.67
-8.67
-11.08
-13.59
-15.65
-16.69
-16.34
-14.61
-11.83
-8.51
-5.14
-2.07
0.49
2.46
3.87
4.83
5.51
6.13
6.84
7.77
8.87
10.05
11.17
12.16
12.96
13.59
14.06
14.39
14.64
14.86
15.18
15.72
16.56
17.72
19.22
21.09
23.38
26.09
29.06
31.88
34.05
35.21
35.29
34.57
33.50
32.49
31.70
30.91
29.58
27.04
22.81
16.82
9.48
1.54
-6.04
-12.42
-17.13
-20.34
-22.60
-24.52
-26.47
-28.54
-30.55
-32.19
-33.24
-33.59
-33.69
-33.94
-34.31
-34.32
-33.55
-31.89
-29.52
-26.77
-23.97
-22.05
-21.44
-21.56
-21.17
-19.45
-16.55
-13.51
-11.63
-11.87
-15.57
-22.74
-31.32
-38.14
-40.93
-39.50
-35.45
-31.16
-28.81
-31.41
-40.54
-55.48
-73.86
-93.20
-111.44
-126.25
-134.82
-124.78
-91.08
-41.83
6.04
39.58
55.98
60.23
60.02
61.38
66.41
71.88
73.37
68.73
59.15
47.42
36.10
27.02
21.33
19.65
20.86
23.49
26.53
29.62
32.39
34.37
35.73
37.15
39.39
41.85
43.40
42.99
40.28
35.11
27.41
17.89
8.01
0.06
-3.49
-0.06
11.73
30.85
52.79
70.19
75.96
66.21
42.46
10.78
-20.55
-44.73
-58.70
-62.31
-60.19
-56.85
-54.93
-54.81
-56.86
-59.76
-62.16
-61.74
-55.96
-43.64
-26.40
-9.16
2.33
3.04
-8.89
-31.90
-61.44
-91.73
-116.67
-130.14
-126.80
-103.10
-60.24
-4.94
51.62
98.15
126.80
136.32
131.90
116.69
97.25
79.56
67.20
61.35
62.46
66.88
70.17
67.85
58.21
43.23
26.27
11.15
-4.07
-21.71
-44.12
-72.62
-107.30
-144.02
-175.82
-194.20
-192.78
-169.78
-128.11
-75.12
-19.84
30.19
71.28
103.68
129.94
150.59
163.14
164.44
153.07
131.91
107.99
89.93
76.91
68.96
62.94
53.30
36.57
14.26
-8.15
-24.95
-33.55
-35.49
-33.76
-32.06
-32.61
-35.40
-38.54
-40.12
-39.17
-35.86
-31.43
-26.55
-22.23
-19.13
-17.09
-15.41
-13.55
-11.47
-9.65
-8.75
-8.59
-8.96
-9.41
-9.26
-7.94
-5.50
-2.54
0.11
1.84
2.84
3.53
4.42
5.98
8.43
11.52
14.72
17.41
19.19
20.07
20.09
19.35
18.16
17.00
16.41
16.74
18.14
20.30
22.41
22.76
19.57
12.24
2.09
-8.16
-15.56
-18.28
-16.60
-12.83
-11.09
-14.88
-24.46
-36.26
-44.98
-46.50
-39.69
-26.89
-12.15
-0.46
5.21
6.06
6.60
10.99
20.03
31.29
40.67
45.39
42.98
31.71
11.26
-17.34
-52.85
-93.69
-135.53
-171.17
-181.44
-151.79
-88.41
-16.45
39.88
69.70
74.80
66.92
54.35
41.14
26.09
5.89
-20.93
-51.24
-77.50
-93.20
-94.69
-82.14
-58.09
-27.98
4.65
34.02
55.23
67.65
74.94
82.12
92.02
104.39
115.42
119.82
113.13
94.37
66.70
36.00
9.30
-7.35
-10.60
-3.00
9.53
19.32
20.28
10.64
-7.19
-28.07
-46.02
-55.88
-54.36
-40.09
-12.28
23.54
58.59
84.38
95.65
91.82
76.07
52.80
25.66
-2.95
-30.31
-51.27
-59.42
-52.11
-31.15
-4.47
16.48
21.97
8.45
-20.10
-54.04
-81.81
-96.32
-97.53
-90.32
-80.19
-70.04
-59.75
-48.06
-34.28
-19.42
-6.05
3.37
7.96
8.78
8.20
8.49
10.77
14.80
19.49
23.47
26.08
27.35
27.71
27.61
27.13
25.84
23.08
18.07
10.34
0.18
-11.16
-22.01
-30.72
-36.25
-38.11
-35.78
-28.48
-15.66
1.80
21.19
37.67
46.31
44.63
34.22
20.30
8.96
4.09
5.48
9.77
12.77
12.15
8.40
4.00
1.50
1.81
4.04
6.43
7.66
7.55
7.07
7.58
10.12
14.77
20.54
25.80
28.83
28.49
24.70
18.56
12.05
7.31
5.73
7.31
10.82
14.31
16.13
15.47
12.59
8.57
4.71
2.18
1.70
3.49
7.33
12.36
17.17
18.90
13.85
-1.25
-27.40
-62.08
-99.50
-132.35
-154.52
-163.07
-158.73
-144.50
-123.90
-99.43
-72.37
-43.42
-13.57
15.59
42.07
64.29
81.34
92.56
97.38
95.55
87.54
74.92
59.99
44.96
31.69
21.17
13.45
8.09
4.71
3.03
2.70
2.96
2.51
0.77
-1.95
-5.03
-8.16
-11.52
-16.12
-23.68
-35.92
-53.69
-74.93
-95.05
-108.91
-112.68
-104.74
-85.85
-58.35
-23.34
12.87
43.15
64.34
77.27
83.55
84.23
80.32
73.40
65.57
58.45
53.63
51.87
52.53
53.97
54.63
53.68
51.28
48.22
45.17
43.36
43.95
47.26
52.34
57.24
59.43
56.46
46.92
31.01
11.33
-8.17
-23.96
-34.24
-39.25
-40.47
-39.78
-38.51
-37.35
-36.45
-35.91
-36.14
-37.53
-40.01
-42.31
-42.72
-39.84
-33.34
-24.20
-14.38
-6.11
-1.14
-0.33
-3.54
-9.91
-18.08
-26.29
-32.52
-34.95
-32.58
-25.89
-16.84
-8.08
-1.78
1.49
2.91
4.63
8.36
14.20
20.46
24.49
24.14
18.81
9.76
-0.42
-9.05
-14.23
-15.45
-13.45
-9.68
-5.48
-1.66
1.76
5.19
8.99
12.91
16.32
18.37
18.26
15.56
10.47
3.93
-2.62
-7.75
-10.58
-10.99
-9.74
-7.98
-6.70
-6.22
-6.06
-5.37
-3.43
-0.24
3.48
6.57
8.01
7.44
5.27
2.49
0.12
-1.23
-1.61
-1.63
-1.98
-2.98
-4.38
-5.50
-5.67
-4.70
-2.95
-1.14
0.11
0.66
0.87
1.35
2.53
4.33
6.12
6.95
6.06
3.22
-1.04
-5.60
-9.21
-10.95
-10.59
-8.69
-6.24
-4.21
-3.25
-3.51
-4.78
-6.66
-8.71
-10.47
-11.49
-11.38
-9.95
-7.36
-4.09
-0.80
1.93
3.81
4.89
5.51
5.96
6.38
6.64
6.43
5.50
3.83
1.70
-0.32
-1.69
-2.02
-1.36
-0.13
1.10
1.83
1.93
1.62
1.34
1.51
2.26
3.43
4.60
5.36
5.43
4.75
3.46
1.78
-0.05
-1.83
-3.32
-4.29
-4.56
-4.05
-2.82
-1.13
0.68
2.26
3.29
3.62
3.24
2.34
1.19
0.15
-0.49
-0.60
-0.21
0.48
1.19
1.73
2.02
2.19
2.38
2.74
3.27
3.82
4.19
4.19
3.75
2.99
2.17
1.58
1.42
1.73
2.37
3.06
3.52
3.58
3.23
2.62
1.97
1.47
1.26
1.36
1.72
2.26
2.88
3.57
4.37
5.42
6.81
8.53
10.38
12.07
13.24
13.67
13.28
12.08
10.20
7.71
4.74
1.53
-1.56
-4.01
-5.36
-5.37
-4.17
-2.25
-0.29
1.05
1.39
0.67
-0.90
-2.92
-5.00
-6.85
-8.26
-9.09
-9.26
-8.75
-7.70
-6.47
-5.58
-5.56
-6.71
-8.88
-11.52
-13.89
-15.32
-15.57
-14.78
-13.38
-11.75
-10.07
-8.27
-6.20
-3.85
-1.42
0.71
2.14
2.72
2.56
2.04
1.54
1.28
1.13
0.76
-0.22
-1.95
-4.25
-6.68
-8.75
-10.21
-11.18
-12.11
-13.50
-15.67
-18.50
-21.54
-24.08
-25.55
-25.66
-24.53
-22.65
-20.75
-19.65
-20.08
-22.50
-26.96
-32.95
-39.43
-44.95
-48.03
-47.55
-43.11
-35.19
-24.98
-13.96
-3.44
5.83
13.68
20.33
26.07
30.97
34.84
37.46
38.87
39.51
40.12
41.36
43.50
46.26
48.96
50.93
51.76
51.49
50.43
48.93
47.12
44.91
42.08
38.48
34.18
29.48
24.77
20.44
16.68
13.48
10.63
7.88
5.04
2.12
-0.71
-3.23
-5.25
-6.73
-7.74
-8.45
-8.99
-9.43
-9.76
-9.87
-9.69
-9.21
-8.51
-7.70
-6.93
-6.25
-5.67
-5.15
-4.64
-4.20
-3.90
-3.82
-3.94
-4.13
-4.19
-3.97
-3.42
-2.68
-1.97
-1.51
-1.43
-1.68
-2.13
-2.58
-2.92
-3.11
-3.22
-3.31
-3.44
-3.65
-3.91
-4.23
-4.56
-4.87
-5.07
-5.06
-4.76
-4.17
-3.38
-2.55
-1.87
-1.45
-1.30
-1.35
-1.42
-1.39
-1.17
-0.77
-0.32
0.05
0.27
0.34
0.37
0.54
0.99
1.75
2.74
3.76
4.61
5.16
5.41
5.51
5.63
5.93
6.48
7.30
8.34
9.58
10.97
12.42
13.72
14.66
15.05
14.90
14.43
14.05
14.11
14.82
16.11
17.76
19.54
21.29
22.98
24.59
25.98
26.84
26.79
25.56
23.17
20.03
16.84
14.38
13.24
13.62
15.17
17.14
18.50
18.19
15.43
9.87
1.72
-8.21
-18.66
-28.21
-35.62
-40.18
-41.84
-41.19
-39.10
-36.38
-33.62
-31.13
-29.09
-27.67
-27.07
-27.31
-28.12
-28.97
-29.23
-28.54
-26.96
-24.86
-22.71
-20.66
-18.51
-15.84
-12.34
-8.09
-3.65
0.13
2.46
2.91
1.67
-0.60
-2.98
-4.68
-5.32
-5.01
-4.21
-3.46
-3.14
-3.33
-3.86
-4.46
-4.88
-5.01
-4.83
-4.37
-3.61
-2.48
-0.91
1.13
3.58
6.28
9.05
11.61
13.70
15.00
15.16
13.85
10.85
6.21
0.37
-5.89
-11.62
-15.95
-18.35
-18.71
-17.30
-14.58
-11.06
-7.20
-3.43
-0.10
2.46
4.16
5.10
5.59
5.99
6.49
7.03
7.32
7.09
6.29
5.17
4.16
3.61
3.54
3.66
3.52
2.82
1.58
0.11
-1.23
-2.20
-2.84
-3.39
-4.04
-4.85
-5.65
-6.19
-6.29
-5.88
-5.01
-3.81
-2.41
-1.03
0.03
0.34
-0.38
-2.10
-4.31
-6.19
-6.91
-6.13
-4.25
-2.23
-1.20
-1.87
-4.20
-7.45
-10.59
-12.72
-13.44
-12.82
-11.25
-9.22
-7.27
-5.95
-5.77
-7.01
-9.49
-12.51
-15.06
-16.28
-15.89
-14.36
-12.68
-11.84
-12.30
-13.90
-15.93
-17.57
-18.15
-17.26
-14.72
-10.49
-4.67
2.45
10.32
18.21
25.33
30.99
34.76
36.53
36.54
35.30
33.48
31.75
30.58
30.13
30.31
30.83
31.37
31.70
31.69
31.27
30.41
29.11
27.41
25.39
23.17
20.90
18.72
16.78
15.20
14.02
13.11
12.21
11.01
9.31
7.14
4.78
2.71
1.38
1.02
1.59
2.82
4.36
5.83
6.97
7.64
7.80
7.51
6.90
6.21
5.81
6.07
7.10
8.70
10.40
11.63
11.99
11.34
9.89
8.34
7.45
7.67
8.92
10.68
12.23
12.88
12.19
10.06
7.22
4.75
3.57
4.05
5.97
8.68
11.40
13.54
14.94
16.55
19.66
25.11
32.77
41.63
50.44
58.29
64.77
66.21
59.56
43.49
19.33
-9.67
-39.80
-67.67
-90.62
-107.41
-118.36
-124.20
-125.32
-121.06
-110.02
-91.15
-65.44
-36.69
-10.88
5.75
9.71
1.52
-14.85
-33.81
-50.09
-60.11
-62.52
-57.93
-48.13
-35.02
-20.44
-6.20
5.89
14.28
18.14
17.79
14.73
11.20
9.42
10.64
14.37
18.55
20.53
18.32
11.72
2.48
-6.29
-11.50
-11.38
-6.29
1.43
8.07
9.72
3.90
-9.55
-28.09
-47.00
-60.87
-65.24
-58.07
-40.52
-16.53
8.58
29.86
44.18
50.52
50.64
47.18
42.59
38.48
35.49
33.83
33.51
34.49
36.59
39.28
41.60
42.61
41.92
39.83
37.48
36.54
38.12
42.35
47.91
52.12
51.92
45.13
31.57
13.34
-5.87
-22.15
-32.80
-37.14
-36.44
-32.93
-28.61
-24.56
-20.86
-17.21
-13.65
-10.83
-9.82
-11.35
-15.25
-20.17
-24.08
-25.18
-23.01
-18.68
-14.46
-12.62
-14.23
-18.51
-23.34
-26.24
-25.58
-21.32
-14.61
-7.30
-1.09
2.83
3.79
1.49
-3.82
-11.08
-18.50
-23.62
-24.73
-21.86
-17.11
-14.12
-16.50
-26.01
-41.23
-57.73
-69.33
-70.34
-57.96
-33.40
-1.45
31.37
59.14
77.96
86.07
84.41
75.03
60.41
43.20
26.26
11.73
1.31
-4.55
-6.70
-6.62
-5.66
-4.37
-2.63
-0.26
2.48
4.93
6.31
6.27
5.18
3.64
2.16
0.95
-0.29
-2.00
-4.34
-7.02
-9.34
-10.35
-9.45
-6.53
-2.15
2.70
7.00
10.01
11.43
11.37
10.38
8.86
7.28
6.07
5.50
5.58
6.05
6.46
6.33
5.39
3.61
1.25
-1.36
-3.95
-6.37
-8.52
-10.26
-11.40
-11.77
-11.38
-10.46
-9.42
-8.73
-8.66
-9.17
-9.90
-10.35
-10.08
-8.96
-7.18
-5.19
-3.54
-2.65
-2.75
-3.73
-5.30
-7.08
-8.75
-10.08
-10.93
-11.20
-10.87
-9.94
-8.39
-6.23
-3.47
-0.17
3.52
7.36
11.01
14.04
16.08
16.91
16.56
15.38
13.92
12.76
12.30
12.64
13.58
14.76
15.88
16.79
17.49
18.07
18.55
18.94
19.21
19.44
19.77
20.27
20.84
21.10
20.44
18.27
14.27
8.47
1.29
-6.70
-14.89
-22.69
-29.51
-34.73
-37.82
-38.50
-36.97
-33.96
-30.63
-28.18
-27.39
-28.36
-30.51
-32.81
-34.20
-34.01
-32.21
-29.33
-26.25
-23.68
-21.91
-20.67
-19.39
-17.55
-15.15
-12.68
-10.85
-10.29
-11.02
-12.46
-13.87
-14.66
-14.46
-12.78
-8.70
-1.08
10.53
25.05
39.62
50.63
55.22
52.75
45.02
35.23
26.26
19.31
13.84
8.45
2.27
-4.27
-9.69
-12.44
-11.90
-8.69
-4.30
-0.23
2.54
3.82
4.17
4.22
4.36
4.58
4.60
4.22
3.63
3.31
3.78
5.23
7.36
9.64
11.63
13.20
14.41
15.30
15.59
14.83
12.64
9.07
4.72
0.51
-2.79
-4.85
-5.86
-6.23
-6.34
-6.30
-6.11
-5.80
-5.43
-5.05
-4.49
-3.44
-1.60
0.96
3.71
5.87
6.86
6.63
5.68
4.63
3.74
2.77
1.16
-1.39
-4.50
-7.20
-8.43
-7.60
-5.03
-1.69
1.27
3.10
3.57
3.00
1.95
1.02
0.78
1.70
4.00
7.44
11.31
14.67
16.74
17.27
16.57
15.21
13.55
11.57
9.03
5.81
2.28
-0.73
-2.40
-2.32
-0.80
1.30
3.07
3.95
3.87
3.17
2.35
1.88
2.11
3.26
5.40
8.39
11.81
15.08
17.68
19.39
20.34
20.89
21.43
22.12
22.85
23.40
23.58
23.44
23.20
23.08
23.16
23.26
22.94
21.67
19.03
14.91
9.62
3.83
-1.76
-6.62
-10.62
-14.04
-17.27
-20.63
-24.24
-28.07
-31.98
-35.82
-39.37
-42.35
-44.30
-44.72
-43.15
-39.44
-33.88
-27.20
-20.41
-14.48
-10.09
-7.49
-6.46
-6.53
-7.15
-7.97
-8.84
-9.76
-10.73
-11.62
-12.18
-12.15
-11.41
-9.98
-8.10
-6.04
-4.04
-2.20
-0.46
1.34
3.27
5.23
6.94
8.08
8.47
8.21
7.60
7.04
6.79
6.89
7.22
7.59
7.83
7.90
7.79
7.54
7.16
6.67
6.08
5.47
4.87
4.33
3.84
3.34
2.81
2.22
1.56
0.87
0.18
-0.47
-1.05
-1.54
-1.90
-2.12
-2.20
-2.17
-2.09
-2.07
-2.21
-2.55
-2.99
-3.35
-3.38
-2.93
-2.03
-0.88
0.21
1.00
1.44
1.66
1.90
2.28
2.75
3.12
3.19
2.94
2.57
2.36
2.47
2.80
3.04
2.85
2.10
0.97
-0.15
-0.85
-0.94
-0.48
0.28
1.07
1.79
2.47
3.19
3.96
4.57
4.74
4.22
2.98
1.27
-0.47
-1.79
-2.43
-2.36
-1.80
-1.01
-0.23
0.51
1.24
2.06
3.00
3.96
4.76
5.16
4.99
4.16
2.77
1.00
-0.87
-2.58
-3.91
-4.74
-5.04
-4.80
-4.03
-2.74
-0.95
1.21
3.48
5.51
6.96
7.57
7.29
6.25
4.69
2.92
1.17
-0.44
-1.85
-3.01
-3.89
-4.36
-4.33
-3.79
-2.80
-1.56
-0.28
0.85
1.72
2.29
2.58
2.55
2.16
1.41
0.38
-0.69
-1.49
-1.79
-1.51
-0.79
0.11
0.95
1.64
2.20
2.76
3.38
4.03
4.58
4.88
4.83
4.42
3.74
2.92
2.12
1.50
1.17
1.21
1.64
2.42
3.46
4.65
5.84
6.92
7.74
8.25
8.39
8.17
7.61
6.75
5.65
4.39
3.05
1.63
0.14
-1.46
-3.11
-4.68
-5.89
-6.54
-6.62
-6.37
-6.24
-6.56
-7.36
-8.28
-8.73
-8.24
-6.70
-4.48
-2.17
-0.36
0.67
0.97
0.81
0.46
0.01
-0.55
-1.30
-2.22
-3.18
-3.97
-4.45
-4.64
-4.71
-4.92
-5.39
-5.98
-6.33
-5.96
-4.52
-1.96
1.40
4.98
8.13
10.35
11.33
11.05
9.61
7.23
4.21
0.91
-2.32
-5.17
-7.45
-9.14
-10.33
-11.18
-11.78
-12.15
-12.23
-11.93
-11.19
-9.95
-8.23
-6.05
-3.54
-0.87
1.65
3.74
5.13
5.76
5.72
5.24
4.59
3.90
3.19
2.35
1.20
-0.33
-2.16
-3.92
-4.98
-4.57
-2.11
2.52
8.68
15.00
19.70
21.20
18.80
12.95
5.20
-2.25
-7.31
-8.45
-5.17
1.91
11.17
20.29
26.86
29.08
26.30
19.41
10.53
2.31
-3.06
-4.55
-2.45
1.99
7.20
11.89
15.33
17.22
17.48
16.16
13.39
9.48
4.96
0.44
-3.56
-6.78
-9.25
-11.22
-12.98
-14.73
-16.55
-18.40
-20.10
-21.45
-22.23
-22.31
-21.67
-20.49
-19.06
-17.69
-16.57
-15.74
-15.12
-14.55
-13.91
-13.12
-12.15
-10.98
-9.60
-8.05
-6.41
-4.79
-3.30
-1.95
-0.68
0.61
2.00
3.51
5.05
6.51
7.81
8.91
9.86
10.71
11.45
11.95
12.00
11.40
10.12
8.36
6.54
5.16
4.67
5.23
6.75
8.89
11.23
13.37
15.01
15.94
16.07
15.36
13.91
11.86
9.46
6.95
4.55
2.40
0.60
-0.81
-1.79
-2.35
-2.52
-2.35
-1.93
-1.40
-0.92
-0.65
-0.76
-1.31
-2.31
-3.65
-5.19
-6.77
-8.26
-9.57
-10.62
-11.31
-11.58
-11.39
-10.83
-10.05
-9.29
-8.74
-8.49
-8.52
-8.71
-8.87
-8.89
-8.74
-8.44
-8.06
-7.68
-7.34
-7.04
-6.72
-6.34
-5.83
-5.19
-4.44
-3.65
-2.89
-2.19
-1.55
-0.94
-0.38
0.06
0.26
0.11
-0.43
-1.23
-2.06
-2.68
-2.90
-2.69
-2.12
-1.33
-0.43
0.53
1.55
2.61
3.65
4.56
5.25
5.70
5.97
6.13
6.23
6.22
5.98
5.42
4.54
3.47
2.38
1.40
0.50
-0.46
-1.69
-3.29
-5.23
-7.26
-9.01
-10.13
-10.36
-9.70
-8.37
-6.73
-5.15
-3.89
-3.00
-2.38
-1.91
-1.53
-1.29
-1.28
-1.50
-1.84
-2.06
-1.96
-1.51
-0.86
-0.31
-0.15
-0.55
-1.49
-2.84
-4.42
-6.08
-7.72
-9.31
-10.83
-12.22
-13.43
-14.38
-15.02
-15.30
-15.23
-14.81
-14.08
-13.05
-11.71
-10.06
-8.13
-5.98
-3.75
-1.62
0.23
1.69
2.75
3.51
4.18
4.97
6.06
7.51
9.25
11.09
12.80
14.19
15.16
15.74
16.05
16.19
16.20
16.06
15.70
15.07
14.22
13.28
12.41
11.76
11.39
11.21
11.08
10.78
10.17
9.23
8.03
6.75
5.56
4.61
3.95
3.60
3.54
3.73
4.10
4.58
5.04
5.37
5.50
5.38
5.04
4.54
3.95
3.32
2.70
2.08
1.47
0.84
0.23
-0.34
-0.81
-1.16
-1.42
-1.63
-1.83
-2.02
-2.17
-2.21
-2.15
-2.04
-2.01
-2.15
-2.45
-2.82
-3.11
-3.20
-3.09
-2.91
-2.81
-2.92
-3.21
-3.56
-3.81
-3.85
-3.66
-3.31
-2.86
-2.35
-1.80
-1.22
-0.71
-0.35
-0.24
-0.37
-0.62
-0.80
-0.80
-0.61
-0.35
-0.20
-0.27
-0.59
-1.08
-1.60
-2.04
-2.33
-2.44
-2.37
-2.18
-1.91
-1.65
-1.47
-1.42
-1.50
-1.66
-1.79
-1.84
-1.82
-1.76
-1.77
-1.88
-2.09
-2.28
-2.37
-2.25
-1.91
-1.43
-0.90
-0.41
0.02
0.39
0.73
1.02
1.19
1.17
0.91
0.44
-0.09
-0.52
-0.72
-0.66
-0.42
-0.16
-0.01
-0.06
-0.26
-0.52
-0.72
-0.77
-0.70
-0.60
-0.57
-0.69
-0.96
-1.29
-1.62
-1.90
-2.15
-2.43
-2.73
-2.97
-3.05
-2.89
-2.55
-2.19
-2.03
-2.20
-2.66
-3.20
-3.56
-3.60
-3.29
-2.77
-2.17
-1.58
-1.00
-0.44
0.06
0.43
0.56
0.43
0.17
-0.04
-0.01
0.30
0.81
1.33
1.71
1.86
1.77
1.50
1.12
0.69
0.28
-0.04
-0.19
-0.19
-0.09
-0.00
-0.01
-0.14
-0.35
-0.59
-0.84
-1.10
-1.41
-1.77
-2.14
-2.46
-2.67
-2.78
-2.81
-2.78
-2.67
-2.44
-2.05
-1.57
-1.07
-0.65
-0.31
0.01
0.43
1.02
1.70
2.34
2.73
2.79
2.55
2.15
1.75
1.47
1.32
1.25
1.18
1.06
0.89
0.66
0.41
0.14
-0.11
-0.34
-0.54
-0.67
-0.73
-0.75
-0.76
-0.83
-0.97
-1.20
-1.45
-1.67
-1.82
-1.90
-1.99
-2.15
-2.41
-2.73
-3.01
-3.11
-2.96
-2.54
-1.95
-1.36
-0.91
-0.70
-0.71
-0.82
-0.87
-0.76
-0.46
-0.05
0.34
0.60
0.72
0.74
0.75
0.85
1.06
1.41
1.83
2.28
2.66
2.92
3.02
2.91
2.63
2.20
1.70
1.22
0.84
0.60
0.49
0.47
0.45
0.40
0.29
0.15
0.01
-0.13
-0.30
-0.56
-0.94
-1.42
-1.93
-2.35
-2.61
-2.67
-2.57
-2.36
-2.10
-1.83
-1.53
-1.20
-0.81
-0.38
0.10
0.61
1.12
1.62
2.10
2.56
2.99
3.37
3.69
3.89
3.95
3.90
3.81
3.76
3.87
4.20
4.72
5.30
5.82
6.16
6.28
6.24
6.17
6.18
6.34
6.61
6.91
7.13
7.24
7.28
7.34
7.51
7.79
8.10
8.32
8.34
8.17
7.86
7.56
7.44
7.58
7.96
8.46
8.92
9.20
9.27
9.22
9.23
9.46
9.96
10.60
11.15
11.36
11.12
10.50
9.65
8.76
7.88
6.99
6.01
4.93
3.86
2.94
2.27
1.81
1.33
0.57
-0.65
-2.30
-4.09
-5.66
-6.70
-7.16
-7.22
-7.19
-7.33
-7.67
-8.06
-8.25
-8.08
-7.58
-6.98
-6.53
-6.38
-6.48
-6.62
-6.59
-6.32
-5.96
-5.79
-6.10
-7.00
-8.36
-9.85
-11.08
-11.82
-12.06
-12.03
-12.04
-12.34
-12.93
-13.65
-14.22
-14.47
-14.36
-14.03
-13.66
-13.41
-13.27
-13.15
-12.89
-12.38
-11.59
-10.61
-9.58
-8.68
-8.00
-7.56
-7.27
-6.96
-6.55
-6.02
-5.46
-4.96
-4.58
-4.23
-3.78
-3.08
-2.11
-1.02
-0.01
0.70
1.00
0.94
0.63
0.24
-0.10
-0.33
-0.45
-0.48
-0.46
-0.42
-0.33
-0.17
0.11
0.48
0.89
1.25
1.49
1.62
1.72
1.92
2.32
2.91
3.55
4.06
4.26
4.07
3.58
2.94
2.35
1.94
1.75
1.71
1.74
1.79
1.84
1.93
2.09
2.28
2.44
2.49
2.41
2.24
2.05
1.89
1.76
1.64
1.48
1.30
1.17
1.13
1.18
1.28
1.33
1.28
1.12
0.92
0.75
0.68
0.74
0.89
1.10
1.30
1.45
1.53
1.57
1.62
1.75
1.98
2.28
2.62
2.95
3.24
3.52
3.79
4.07
4.33
4.53
4.63
4.60
4.45
4.20
3.91
3.63
3.39
3.22
3.09
2.98
2.80
2.53
2.18
1.77
1.35
0.95
0.58
0.21
-0.16
-0.50
-0.80
-1.05
-1.24
-1.39
-1.50
-1.57
-1.57
-1.48
-1.29
-1.01
-0.65
-0.24
0.17
0.53
0.82
1.05
1.31
1.65
2.12
2.66
3.11
3.34
3.26
2.91
2.45
2.05
1.80
1.74
1.80
1.90
1.99
2.03
2.04
2.01
1.91
1.68
1.29
0.73
0.05
-0.61
-1.11
-1.34
-1.27
-1.00
-0.71
-0.60
-0.77
-1.21
-1.79
-2.35
-2.77
-3.03
-3.18
-3.32
-3.48
-3.62
-3.62
-3.38
-2.86
-2.17
-1.48
-1.01
-0.85
-0.93
-1.05
-0.98
-0.60
0.02
0.69
1.23
1.50
1.54
1.46
1.37
1.30
1.20
1.03
0.80
0.62
0.61
0.79
1.09
1.35
1.40
1.18
0.79
0.42
0.27
0.45
0.89
1.39
1.74
1.78
1.51
1.00
0.42
-0.14
-0.65
-1.11
-1.55
-1.95
-2.27
-2.43
-2.39
-2.15
-1.80
-1.40
-1.04
-0.79
-0.64
-0.61
-0.68
-0.82
-1.03
-1.28
-1.53
-1.71
-1.73
-1.53
-1.11
-0.55
0.04
0.53
0.87
1.06
1.13
1.11
0.99
0.75
0.37
-0.07
-0.48
-0.72
-0.73
-0.56
-0.35
-0.26
-0.41
-0.81
-1.36
-1.90
-2.32
-2.56
-2.69
-2.78
-2.89
-3.03
-3.17
-3.25
-3.24
-3.12
-2.87
-2.51
-2.06
-1.53
-0.97
-0.43
0.03
0.38
0.62
0.78
0.90
1.01
1.16
1.35
1.55
1.68
1.65
1.38
0.86
0.13
-0.73
-1.68
-2.73
-3.96
-5.41
-7.04
-8.62
-9.71
-9.74
-8.23
-4.94
-0.07
5.83
11.93
17.31
21.23
23.16
22.89
20.57
16.67
11.93
7.21
3.26
0.47
-1.19
-2.19
-3.12
-4.44
-6.30
-8.47
-10.47
-11.84
-12.29
-11.82
-10.65
-9.12
-7.46
-5.69
-3.68
-1.33
1.32
3.90
5.98
7.18
7.42
6.98
6.36
5.99
6.13
6.81
7.87
9.10
10.28
11.22
11.73
11.69
11.12
10.15
8.99
7.85
6.82
5.93
5.13
4.45
3.92
3.59
3.49
3.54
3.65
3.76
3.84
3.95
4.12
4.38
4.66
4.85
4.79
4.39
3.65
2.68
1.69
0.89
0.44
0.35
0.43
0.33
-0.39
-2.06
-4.74
-8.15
-11.65
-14.49
-16.00
-15.88
-14.30
-11.78
-8.98
-6.45
-4.51
-3.25
-2.66
-2.72
-3.42
-4.66
-6.20
-7.67
-8.69
-9.01
-8.63
-7.81
-6.97
-6.49
-6.57
-7.19
-8.12
-9.08
-9.85
-10.34
-10.67
-11.07
-11.83
-13.19
-15.20
-17.73
-20.44
-22.87
-24.60
-25.32
-24.90
-23.31
-20.52
-16.52
-11.37
-5.37
0.93
6.72
11.20
13.81
14.48
13.58
11.78
9.77
8.08
6.95
6.41
6.33
6.53
6.85
7.18
7.48
7.85
8.52
9.80
11.89
14.76
17.97
20.72
22.12
21.58
19.05
15.18
11.01
7.60
5.64
5.24
6.08
7.71
9.82
12.39
15.61
19.64
24.47
29.81
35.01
39.20
41.53
41.53
39.36
35.82
32.11
29.35
28.21
28.53
29.50
30.15
29.82
28.39
26.25
23.98
22.01
20.48
19.00
16.90
13.69
9.49
5.06
1.46
-0.46
-0.60
0.25
0.40
-2.16
-8.75
-19.35
-32.59
-46.24
-57.73
-64.62
-64.89
-57.67
-43.85
-26.11
-8.69
3.27
5.04
-5.30
-26.70
-53.25
-76.62
-90.98
-95.63
-93.67
-89.35
-85.73
-83.72
-82.35
-79.32
-72.32
-59.85
-41.67
-19.21
4.21
24.19
36.96
41.04
37.98
31.26
24.39
19.37
16.51
14.99
14.14
14.20
16.11
20.72
27.84
35.98
43.13
47.66
48.84
47.01
43.28
39.02
35.27
32.18
29.12
24.52
17.39
7.79
-2.93
-12.56
-18.90
-20.60
-17.65
-11.37
-3.84
2.84
6.99
7.80
5.50
1.24
-3.33
-6.64
-7.84
-7.18
-5.65
-4.47
-4.36
-5.23
-6.43
-7.28
-7.41
-6.87
-5.91
-4.58
-2.67
0.17
4.05
8.33
11.71
12.55
9.78
3.40
-5.23
-13.79
-20.17
-22.21
-19.07
-11.61
-2.07
6.86
13.23
16.51
17.60
18.09
19.39
21.78
24.48
26.24
26.11
24.00
20.65
17.22
14.60
13.04
11.86
9.93
6.10
-0.12
-8.38
-17.52
-25.84
-31.62
-33.43
-30.55
-23.07
-11.82
1.76
15.89
28.83
39.23
46.33
49.90
49.88
46.18
38.69
27.66
14.07
-0.19
-12.87
-22.17
-27.69
-30.67
-33.40
-38.18
-46.04
-56.21
-66.25
-73.01
-73.74
-67.02
-53.20
-34.26
-13.17
6.89
23.28
34.28
39.19
38.20
32.07
22.00
9.47
-3.90
-16.48
-26.89
-34.22
-38.25
-39.39
-38.47
-36.48
-34.23
-32.17
-30.32
-28.40
-25.93
-22.44
-17.67
-11.62
-4.70
2.43
8.95
14.11
17.39
18.60
17.87
15.66
12.72
10.00
8.49
9.00
11.82
16.60
22.36
27.87
32.06
34.42
35.09
34.76
34.25
34.28
35.24
37.21
40.03
43.36
46.73
49.48
50.87
50.25
47.24
41.92
34.92
27.25
19.93
13.76
9.07
5.70
3.19
1.01
-1.23
-3.66
-6.19
-8.47
-10.05
-10.51
-9.55
-7.23
-3.98
-0.63
1.89
2.83
1.93
-0.51
-3.77
-6.97
-9.36
-10.55
-10.50
-9.50
-8.07
-6.79
-6.13
-6.22
-6.81
-7.32
-7.23
-6.22
-4.53
-2.78
-1.80
-2.16
-3.90
-6.47
-8.93
-10.31
-9.90
-7.50
-3.41
1.60
6.57
10.58
12.99
13.42
11.87
8.57
3.95
-1.53
-7.37
-13.08
-17.98
-21.40
-23.15
-23.53
-23.33
-23.64
-25.42
-29.12
-34.32
-39.44
-42.30
-41.50
-36.72
-29.03
-20.47
-13.35
-9.71
-10.44
-14.56
-19.76
-23.97
-25.57
-23.49
-17.40
-7.54
4.63
16.55
25.59
29.72
27.61
20.46
12.40
9.39
16.80
35.97
60.61
80.19
90.66
91.40
84.28
72.41
56.25
37.67
18.06
-1.26
-18.09
-29.32
-32.94
-28.67
-18.35
-5.74
5.08
10.61
9.57
3.62
-3.56
-8.77
-10.24
-7.99
-3.41
1.76
5.89
8.05
8.40
7.74
6.44
4.51
1.79
-1.90
-6.33
-11.19
-15.97
-20.04
-22.81
-24.29
-24.92
-25.38
-26.35
-28.04
-30.35
-32.83
-34.89
-36.04
-36.18
-35.45
-34.13
-32.44
-30.46
-28.19
-25.50
-22.08
-17.39
-10.82
-2.04
8.54
19.50
28.63
33.63
33.08
27.08
17.34
6.47
-2.94
-9.17
-11.74
-11.20
-8.70
-5.51
-2.72
-1.15
-1.27
-3.20
-6.70
-11.24
-16.11
-20.65
-24.33
-26.81
-27.88
-27.45
-25.54
-22.28
-17.87
-12.46
-6.03
1.62
10.85
21.83
34.35
47.53
59.92
69.75
75.35
75.74
70.88
61.70
49.74
36.66
23.82
12.27
2.84
-3.78
-7.09
-7.09
-4.61
-1.25
1.05
0.71
-2.87
-9.19
-16.94
-24.71
-31.41
-36.52
-39.83
-41.22
-40.51
-37.54
-32.38
-25.45
-17.55
-9.69
-2.93
1.90
4.29
4.20
2.02
-1.53
-5.61
-9.53
-12.88
-15.54
-17.56
-18.98
-19.71
-19.55
-18.37
-16.28
-13.70
-11.31
-9.78
-9.58
-10.72
-12.85
-15.38
-17.81
-19.80
-21.17
-21.80
-21.64
-20.83
-19.96
-19.83
-20.84
-22.33
-22.15
-17.34
-5.52
13.50
37.09
60.55
79.02
89.49
91.67
87.37
79.00
68.27
55.90
42.25
28.13
14.81
3.21
-7.04
-17.66
-30.62
-46.36
-62.81
-75.72
-80.40
-73.95
-56.51
-31.06
-2.12
25.83
49.43
66.82
77.36
81.39
79.93
74.50
66.84
58.44
50.14
41.97
33.28
23.17
10.99
-3.24
-18.55
-33.10
-44.51
-50.26
-48.37
-37.92
-19.32
5.53
33.30
59.43
78.93
87.54
83.07
66.31
40.79
11.59
-16.35
-39.59
-56.69
-67.62
-72.91
-72.89
-67.51
-56.57
-40.33
-19.97
2.14
22.56
37.36
43.11
37.91
22.32
-0.62
-26.12
-49.15
-65.73
-73.71
-72.81
-64.06
-49.38
-31.07
-11.75
5.95
19.81
28.52
31.87
30.65
26.06
19.09
10.04
-1.46
-15.85
-32.81
-50.70
-66.74
-77.79
-81.50
-77.04
-65.23
-48.05
-28.06
-7.83
10.24
24.13
32.40
34.54
31.27
24.44
16.47
9.52
4.80
2.36
1.40
0.75
-0.61
-3.33
-7.57
-13.06
-19.00
-24.24
-27.46
-27.55
-24.03
-17.26
-8.38
0.99
9.18
15.00
18.09
18.98
18.95
19.51
21.87
26.54
33.09
40.39
46.99
51.57
53.30
51.95
47.86
41.76
34.63
27.55
21.50
17.16
14.71
13.81
13.82
14.01
13.90
13.35
12.61
12.20
12.90
15.69
21.49
30.95
44.00
59.57
75.55
89.09
97.22
97.61
89.27
72.95
51.01
26.86
4.11
-14.37
-27.07
-33.95
-36.17
-35.43
-33.46
-31.53
-30.32
-29.97
-30.24
-30.75
-31.19
-31.45
-31.71
-32.28
-33.44
-35.29
-37.68
-40.29
-42.74
-44.67
-45.87
-46.25
-45.87
-44.98
-43.93
-43.12
-42.81
-43.02
-43.46
-43.59
-42.73
-40.22
-35.57
-28.60
-19.48
-8.84
2.32
12.70
21.03
26.49
29.10
29.88
30.45
32.27
35.71
39.68
42.01
40.49
34.05
23.29
10.16
-3.04
-14.67
-24.15
-31.39
-36.09
-37.24
-33.63
-24.88
-12.46
0.33
9.60
12.58
8.97
0.94
-8.00
-14.73
-17.81
-17.55
-15.31
-12.31
-8.98
-4.99
0.06
6.04
12.21
17.53
21.26
23.29
24.06
24.12
23.79
23.00
21.39
18.72
15.04
10.81
6.76
3.52
1.45
0.42
-0.02
-0.44
-1.29
-2.70
-4.53
-6.47
-8.20
-9.46
-10.09
-10.04
-9.35
-8.27
-7.20
-6.61
-6.86
-7.94
-9.49
-10.91
-11.70
-11.69
-11.05
-10.09
-9.03
-7.87
-6.42
-4.58
-2.53
-0.66
0.49
0.62
-0.26
-1.86
-3.74
-5.50
-6.83
-7.44
-7.00
-5.15
-1.62
3.56
9.95
16.75
23.09
28.35
32.33
35.25
37.49
39.36
40.89
41.83
41.86
40.77
38.61
35.59
31.93
27.71
22.81
17.08
10.54
3.59
-3.02
-8.38
-11.75
-12.89
-12.16
-10.40
-8.58
-7.41
-7.19
-7.82
-9.01
-10.44
-11.88
-13.16
-14.20
-14.91
-15.21
-15.02
-14.37
-13.30
-11.98
-10.56
-9.21
-8.00
-6.84
-5.48
-3.56
-0.81
2.89
7.28
11.70
15.19
16.71
15.55
11.62
5.59
-1.26
-7.58
-12.44
-15.70
-17.92
-19.96
-22.42
-25.38
-28.46
-31.10
-32.96
-34.01
-34.38
-34.15
-33.19
-31.25
-28.23
-24.27
-19.74
-15.09
-10.68
-6.63
-2.90
0.56
3.76
6.67
9.34
11.95
14.71
17.81
21.24
24.84
28.34
31.47
34.05
35.95
36.99
36.95
35.62
32.90
28.94
24.19
19.24
14.73
11.14
8.65
7.14
6.23
5.47
4.45
2.96
0.97
-1.35
-3.70
-5.79
-7.32
-8.15
-8.29
-7.90
-7.24
-6.55
-5.95
-5.42
-4.85
-4.17
-3.40
-2.74
-2.42
-2.66
-3.50
-4.86
-6.59
-8.53
-10.57
-12.63
-14.60
-16.34
-17.64
-18.28
-18.12
-17.18
-15.68
-13.95
-12.40
-11.36
-10.96
-11.14
-11.71
-12.43
-13.18
-13.93
-14.74
-15.70
-16.82
-18.05
-19.26
-20.26
-20.84
-20.80
-20.14
-19.00
-17.81
-17.11
-17.40
-18.96
-21.75
-25.44
-29.56
-33.64
-37.17
-39.66
-40.56
-39.36
-35.77
-29.94
-22.38
-13.87
-5.14
3.46
11.91
20.42
29.14
37.94
46.34
53.68
59.26
62.49
63.03
60.81
56.08
49.48
41.93
34.44
27.90
22.74
18.83
15.51
11.90
7.21
1.10
-6.14
-13.55
-19.74
-23.28
-23.20
-19.41
-12.83
-5.19
1.49
5.55
6.16
3.54
-1.28
-6.85
-11.79
-15.14
-16.36
-15.33
-12.19
-7.27
-1.09
5.70
12.27
17.89
21.97
24.29
24.98
24.46
23.22
21.70
20.18
18.72
17.25
15.57
13.51
10.98
8.06
5.01
2.25
0.21
-0.75
-0.46
1.02
3.53
6.78
10.48
14.29
17.81
20.55
22.05
22.03
20.48
17.80
14.63
11.67
9.45
8.16
7.70
7.75
7.97
8.07
7.88
7.25
6.03
4.14
1.54
-1.66
-5.20
-8.79
-12.16
-15.16
-17.79
-20.20
-22.63
-25.38
-28.58
-32.07
-35.28
-37.31
-37.24
-34.55
-29.43
-22.86
-16.24
-10.87
-7.49
-6.04
-5.85
-6.01
-5.78
-4.81
-3.14
-1.05
1.14
3.15
4.83
6.06
6.75
6.83
6.27
5.14
3.66
2.15
0.95
0.28
0.14
0.30
0.36
-0.04
-1.04
-2.51
-4.05
-5.21
-5.62
-5.15
-3.84
-1.79
0.91
4.18
7.83
11.41
14.23
15.51
14.68
11.74
7.33
2.55
-1.34
-3.40
-3.27
-1.18
2.21
6.09
9.73
12.60
14.41
15.05
14.59
13.26
11.37
9.31
7.42
5.90
4.74
3.76
2.63
1.05
-1.16
-3.96
-7.08
-10.15
-12.79
-14.76
-15.97
-16.46
-16.33
-15.68
-14.59
-13.11
-11.34
-9.33
-7.10
-4.60
-1.72
1.61
5.29
9.02
12.35
14.85
16.28
16.67
16.28
15.45
14.50
13.56
12.63
11.68
10.71
9.80
9.04
8.53
8.25
8.16
8.25
8.49
8.92
9.49
10.12
10.62
10.84
10.68
10.15
9.36
8.45
7.53
6.61
5.68
4.67
3.52
2.21
0.77
-0.62
-1.76
-2.38
-2.33
-1.59
-0.37
0.93
1.86
2.06
1.38
-0.06
-1.87
-3.53
-4.59
-4.79
-4.16
-3.00
-1.73
-0.69
-0.03
0.32
0.57
0.89
1.34
1.78
2.00
1.86
1.38
0.84
0.60
0.99
2.14
3.89
5.92
7.80
9.21
9.98
10.08
9.47
8.12
5.97
3.03
-0.55
-4.52
-8.59
-12.54
-16.19
-19.31
-21.54
-22.42
-21.52
-18.65
-14.03
-8.35
-2.52
2.51
6.08
7.96
8.29
7.54
6.25
4.93
3.84
2.99
2.18
1.20
0.00
-1.23
-2.15
-2.42
-1.92
-0.84
0.39
1.28
1.49
0.87
-0.45
-2.21
-4.08
-5.77
-7.05
-7.80
-7.95
-7.53
-6.63
-5.39
-3.96
-2.45
-0.91
0.63
2.15
3.63
5.06
6.48
7.95
9.52
11.15
12.74
14.16
15.39
16.58
18.03
19.99
22.51
25.28
27.74
29.28
29.46
28.18
25.64
22.17
18.15
13.87
9.51
5.14
0.83
-3.40
-7.45
-11.14
-14.20
-16.39
-17.62
-18.00
-17.86
-17.60
-17.52
-17.70
-18.03
-18.32
-18.42
-18.32
-18.08
-17.78
-17.37
-16.70
-15.57
-13.86
-11.66
-9.29
-7.19
-5.71
-4.97
-4.81
-4.89
-4.88
-4.69
-4.45
-4.46
-5.00
-6.10
-7.57
-9.02
-10.09
-10.62
-10.68
-10.55
-10.58
-10.99
-11.88
-13.12
-14.48
-15.66
-16.42
-16.65
-16.35
-15.64
-14.61
-13.31
-11.75
-9.92
-7.91
-5.86
-3.95
-2.27
-0.81
0.58
2.13
4.02
6.35
9.09
12.09
15.04
17.56
19.24
19.80
19.17
17.53
15.30
12.94
10.78
8.98
7.51
6.23
5.05
3.96
3.03
2.38
2.05
2.00
2.05
1.96
1.52
0.62
-0.71
-2.23
-3.64
-4.59
-4.88
-4.42
-3.35
-1.98
-0.71
0.05
0.03
-0.82
-2.31
-4.04
-5.53
-6.34
-6.20
-5.04
-3.02
-0.48
2.14
4.39
5.98
6.78
6.94
6.72
6.40
6.05
5.50
4.39
2.45
-0.35
-3.68
-6.93
-9.52
-11.05
-11.45
-10.94
-9.90
-8.71
-7.70
-7.06
-6.88
-7.09
-7.51
-7.92
-8.14
-8.13
-8.05
-8.13
-8.56
-9.43
-10.64
-11.98
-13.23
-14.19
-14.73
-14.80
-14.47
-13.89
-13.36
-13.18
-13.61
-14.70
-16.32
-18.21
-20.13
-21.92
-23.59
-25.23
-26.90
-28.57
-30.10
-31.27
-31.92
-32.00
-31.54
-30.62
-29.19
-27.15
-24.30
-20.52
-15.88
-10.67
-5.27
-0.00
5.03
9.95
15.03
20.43
26.04
31.43
36.00
39.20
40.79
40.90
39.96
38.45
36.72
34.94
33.12
31.24
29.34
27.50
25.77
24.07
22.26
20.24
18.09
16.03
14.39
13.41
13.12
13.33
13.76
14.05
13.85
12.87
10.90
7.90
4.09
-0.11
-4.15
-7.57
-10.11
-11.81
-12.94
-13.84
-14.74
-15.71
-16.61
-17.19
-17.19
-16.39
-14.75
-12.35
-9.42
-6.21
-2.93
0.30
3.47
6.58
9.61
12.53
15.27
17.78
20.06
22.13
23.99
25.55
26.66
27.17
27.01
26.21
24.94
23.39
21.73
19.99
18.18
16.25
14.22
12.15
10.10
8.13
6.22
4.33
2.44
0.55
-1.30
-3.05
-4.65
-6.01
-7.05
-7.69
-7.93
-7.89
-7.76
-7.75
-8.00
-8.50
-9.14
-9.74
-10.19
-10.37
-10.23
-9.70
-8.76
-7.46
-5.95
-4.46
-3.22
-2.35
-1.84
-1.58
-1.42
-1.26
-1.06
-0.80
-0.51
-0.17
0.25
0.74
1.29
1.92
2.61
3.42
4.38
5.46
6.59
7.64
8.46
8.97
9.16
9.08
8.79
8.37
7.83
7.19
6.46
5.65
4.78
3.88
2.92
1.88
0.70
-0.63
-2.06
-3.50
-4.82
-5.93
-6.82
-7.57
-8.27
-9.02
-9.89
-10.88
-11.94
-13.00
-13.93
-14.59
-14.81
-14.49
-13.59
-12.29
-10.83
-9.58
-8.83
-8.78
-9.47
-10.75
-12.33
-13.85
-14.97
-15.49
-15.38
-14.81
-14.12
-13.71
-13.91
-14.90
-16.65
-18.95
-21.52
-24.07
-26.36
-28.29
-29.77
-30.69
-30.88
-30.08
-28.13
-25.08
-21.35
-17.62
-14.71
-13.22
-13.45
-15.22
-17.90
-20.49
-21.71
-20.16
-14.58
-4.49
9.60
25.93
41.94
55.06
63.36
65.94
63.09
55.97
46.01
34.60
22.77
11.23
0.68
-8.37
-15.45
-20.09
-21.65
-19.70
-13.88
-4.43
7.67
20.54
31.09
35.42
29.86
14.57
-7.45
-29.82
-46.34
-54.19
-54.07
-49.15
-42.99
-38.06
-34.96
-33.03
-31.13
-28.92
-26.85
-25.47
-25.23
-25.84
-26.47
-26.50
-26.57
-28.18
-32.69
-40.29
-47.49
-49.95
-44.24
-29.60
-8.45
14.62
35.18
50.22
59.33
64.67
68.17
70.27
70.22
67.29
61.94
55.93
51.39
49.72
50.85
53.20
54.80
54.32
51.54
47.38
43.35
40.71
40.13
41.67
44.72
48.41
51.63
52.97
50.84
43.90
31.88
16.06
-0.84
-15.70
-26.10
-31.15
-31.52
-28.77
-24.49
-19.63
-14.61
-9.80
-6.05
-4.62
-6.54
-12.00
-19.87
-28.08
-34.16
-36.14
-33.39
-26.93
-19.13
-12.88
-10.42
-12.37
-17.49
-23.32
-27.38
-28.32
-26.35
-22.76
-18.93
-15.50
-12.23
-8.60
-4.53
-0.75
1.74
2.48
2.07
1.86
3.11
6.05
9.70
12.46
13.13
11.52
8.44
5.03
2.16
0.10
-1.26
-1.97
-1.85
-0.58
1.96
5.40
8.96
11.77
13.23
13.24
12.10
10.25
8.21
6.54
5.82
6.51
8.83
12.44
16.57
20.18
22.45
22.66
20.97
18.20
15.34
13.09
11.58
10.61
10.01
10.00
11.14
13.99
18.54
24.05
29.25
32.97
34.63
34.27
32.17
28.20
21.70
11.90
-1.29
-16.60
-31.51
-43.23
-50.01
-52.12
-51.62
-51.30
-53.14
-57.38
-62.59
-66.72
-68.46
-67.92
-66.42
-65.30
-64.85
-63.88
-60.44
-53.07
-41.90
-28.82
-16.60
-7.39
-1.60
2.26
6.58
13.17
22.06
31.48
38.76
41.81
40.27
35.53
29.94
25.51
23.01
21.94
21.25
20.42
19.91
20.80
23.89
28.96
34.70
39.42
41.93
42.30
41.76
41.94
43.87
47.41
51.20
53.13
51.06
43.59
30.53
13.37
-5.15
-21.87
-34.34
-41.45
-43.38
-41.03
-35.24
-26.69
-15.52
-2.03
12.62
26.43
37.36
44.18
46.70
45.43
40.53
32.94
24.38
16.92
12.11
10.58
11.52
12.77
11.71
5.80
-4.39
-15.64
-24.51
-29.71
-32.99
-38.61
-51.63
-75.46
-110.76
-152.04
-189.22
-212.04
-214.03
-194.14
-156.07
-106.01
-43.65
21.90
78.03
116.86
137.66
142.59
133.85
113.94
86.73
57.31
29.63
8.04
-4.02
-5.75
0.63
11.07
21.30
27.98
30.11
27.56
22.68
18.93
18.69
22.04
27.50
33.12
37.42
39.62
38.87
35.33
29.69
22.43
13.66
3.46
-7.55
-18.07
-26.88
-33.53
-37.89
-40.05
-40.54
-40.20
-39.90
-40.23
-41.33
-43.00
-44.85
-46.20
-46.26
-44.40
-40.30
-34.01
-25.96
-16.91
-7.88
0.13
6.50
11.12
14.36
16.69
18.40
19.40
19.26
17.53
13.97
8.75
2.42
-4.26
-10.51
-15.62
-19.06
-20.47
-19.71
-16.84
-12.19
-6.31
0.08
6.16
11.31
15.21
17.96
19.96
21.68
23.50
25.49
27.53
29.31
30.50
30.79
29.99
28.01
24.91
21.00
16.71
12.55
8.89
5.93
3.67
2.03
0.97
0.49
0.56
1.06
1.67
2.03
1.79
0.80
-0.84
-2.84
-4.79
-6.34
-7.27
-7.51
-7.17
-6.44
-5.56
-4.74
-4.12
-3.73
-3.50
-3.28
-2.89
-2.26
-1.44
-0.60
0.02
0.29
0.23
0.01
-0.13
-0.03
0.29
0.68
0.94
0.94
0.68
0.25
-0.21
-0.66
-1.11
-1.60
-2.15
-2.65
-2.97
-2.94
-2.47
-1.58
-0.41
0.83
1.92
2.73
3.22
3.47
3.61
3.78
4.03
4.32
4.56
4.64
4.50
4.19
3.78
3.40
3.11
2.90
2.74
2.59
2.43
2.25
2.03
1.77
1.43
1.01
0.52
-0.05
-0.68
-1.42
-2.27
-3.23
-4.20
-5.05
-5.63
-5.86
-5.73
-5.36
-4.90
-4.49
-4.21
-4.05
-3.92
-3.66
-3.15
-2.33
-1.32
-0.33
0.42
0.79
0.82
0.69
0.61
0.71
0.95
1.19
1.32
1.30
1.22
1.19
1.22
1.24
1.09
0.67
0.01
-0.70
-1.25
-1.47
-1.35
-0.99
-0.57
-0.26
-0.13
-0.17
-0.30
-0.45
-0.56
-0.58
-0.53
-0.40
-0.18
0.13
0.52
0.99
1.48
1.97
2.42
2.81
3.08
3.19
3.10
2.85
2.56
2.42
2.56
2.99
3.54
3.93
3.89
3.31
2.31
1.19
0.34
0.04
0.37
1.14
1.99
2.51
2.39
1.50
-0.03
-1.87
-3.50
-4.42
-4.34
-3.28
-1.62
0.05
1.20
1.66
1.73
2.17
3.81
7.23
12.42
18.73
25.11
30.47
34.03
35.50
35.11
33.42
31.10
28.65
26.23
23.47
19.54
13.46
4.66
-6.47
-18.42
-28.92
-35.72
-37.59
-34.85
-29.17
-22.85
-17.83
-15.04
-14.35
-15.00
-16.23
-17.68
-19.36
-21.43
-23.75
-25.77
-26.64
-25.68
-22.74
-18.35
-13.46
-8.89
-4.84
-0.77
4.11
10.26
17.19
23.56
27.65
28.26
25.29
19.77
13.37
7.76
3.99
2.41
2.71
4.14
5.73
6.53
5.76
3.26
-0.40
-3.90
-5.64
-4.49
-0.38
5.57
11.46
15.34
15.96
13.06
7.28
-0.24
-8.23
-15.63
-21.71
-26.22
-29.39
-31.79
-34.02
-36.32
-38.34
-39.29
-38.39
-35.45
-31.07
-26.43
-22.76
-20.82
-20.62
-21.58
-22.83
-23.57
-23.22
-21.46
-18.10
-13.12
-6.68
0.87
8.93
16.78
23.66
28.92
32.23
33.68
33.76
33.22
32.81
33.03
33.95
35.18
36.08
35.96
34.39
31.38
27.36
22.98
18.87
15.38
12.52
10.06
7.70
5.31
2.98
0.95
-0.55
-1.49
-2.01
-2.30
-2.53
-2.69
-2.64
-2.22
-1.41
-0.36
0.66
1.40
1.74
1.70
1.42
1.07
0.74
0.43
0.08
-0.36
-0.89
-1.46
-1.94
-2.19
-2.12
-1.72
-1.12
-0.56
-0.33
-0.59
-1.34
-2.34
-3.23
-3.67
-3.49
-2.71
-1.54
-0.26
0.88
1.68
2.04
1.94
1.44
0.70
-0.03
-0.50
-0.49
0.08
1.12
2.36
3.39
3.77
3.20
1.60
-0.80
-3.49
-5.85
-7.32
-7.63
-6.79
-5.15
-3.21
-1.48
-0.32
0.13
-0.07
-0.67
-1.34
-1.75
-1.58
-0.66
1.01
3.20
5.50
7.40
8.49
8.67
8.21
7.65
7.53
8.15
9.37
10.71
11.57
11.47
10.20
7.82
4.61
0.90
-2.89
-6.40
-9.30
-11.37
-12.59
-13.09
-13.10
-12.78
-12.17
-11.17
-9.59
-7.29
-4.25
-0.59
3.41
7.40
11.01
13.94
15.94
16.92
16.91
16.04
14.56
12.80
11.17
10.02
9.55
9.65
9.87
9.58
8.29
5.99
3.28
1.04
0.04
0.46
1.79
3.05
3.42
2.67
1.32
0.26
0.24
1.36
3.01
4.23
4.13
2.23
-1.40
-6.38
-12.19
-18.30
-24.14
-29.10
-32.55
-33.99
-33.23
-30.45
-26.13
-20.82
-14.94
-8.75
-2.39
3.98
10.01
15.11
18.50
19.36
17.05
11.43
3.05
-6.83
-16.42
-23.95
-28.14
-28.61
-25.86
-21.04
-15.42
-10.04
-5.50
-2.03
0.32
1.49
1.46
0.37
-1.45
-3.43
-4.98
-5.70
-5.51
-4.76
-4.07
-4.08
-5.09
-6.97
-9.18
-11.02
-11.97
-11.83
-10.94
-10.10
-10.21
-11.90
-15.25
-19.80
-24.75
-29.18
-32.19
-33.39
-33.07
-32.06
-31.34
-31.78
-33.99
-38.00
-43.07
-47.11
-47.74
-43.11
-32.33
-15.62
5.70
29.39
52.77
73.35
89.88
101.30
106.63
105.43
98.63
88.76
79.23
73.24
72.97
79.77
92.52
107.64
120.34
126.29
122.66
108.44
84.25
47.15
1.24
-43.24
-75.48
-90.91
-92.05
-84.67
-73.91
-62.89
-52.55
-41.91
-30.82
-20.73
-13.95
-11.99
-14.50
-19.03
-23.00
-23.80
-18.79
-7.23
9.19
26.78
41.36
48.09
45.08
33.36
16.50
-0.46
-13.50
-20.84
-23.10
-22.42
-20.41
-17.89
-15.28
-12.75
-10.44
-8.97
-9.31
-12.25
-18.03
-25.82
-33.95
-40.17
-42.10
-37.91
-27.97
-12.16
8.51
32.25
56.50
77.60
91.35
94.03
83.56
60.40
27.86
-9.16
-44.40
-70.58
-84.70
-88.63
-86.77
-82.96
-78.87
-74.13
-67.91
-60.04
-51.66
-44.91
-41.47
-41.81
-45.18
-50.06
-54.35
-55.87
-52.40
-42.49
-26.44
-6.40
14.00
30.62
40.22
41.66
36.28
27.40
18.96
13.96
13.92
18.83
27.45
37.87
48.03
56.11
60.91
61.86
58.87
52.26
42.77
31.53
20.01
9.90
2.36
-1.97
-3.47
-3.44
-3.47
-4.65
-7.12
-9.91
-11.51
-10.69
-7.06
-1.38
4.79
9.68
12.07
11.61
8.89
5.06
1.44
-0.81
-1.06
0.68
3.83
7.43
10.47
12.21
12.46
11.55
10.25
9.35
9.36
10.28
11.62
12.71
12.98
12.24
10.79
9.35
8.77
9.67
12.22
16.05
20.36
24.17
26.56
26.51
23.19
16.21
5.83
-7.07
-21.14
-34.83
-46.71
-55.79
-61.68
-64.40
-64.27
-61.70
-57.09
-50.90
-43.61
-35.80
-27.98
-20.44
-13.16
-5.85
1.83
10.00
18.43
26.58
33.75
39.22
42.26
42.22
38.49
30.68
18.98
4.46
-10.87
-24.37
-33.51
-36.66
-33.70
-26.13
-16.52
-7.73
-2.02
-0.47
-2.89
-8.08
-14.40
-20.14
-23.97
-25.04
-23.04
-18.17
-11.09
-2.91
5.00
11.21
14.61
14.68
11.71
6.71
1.13
-3.57
-6.33
-6.76
-5.11
-2.11
1.42
4.78
7.53
9.53
10.77
11.36
11.42
11.11
10.60
10.06
9.65
9.47
9.52
9.74
10.00
10.13
9.99
9.47
8.63
7.60
6.58
5.71
5.04
4.52
4.04
3.55
3.06
2.64
2.32
2.05
1.71
1.19
0.46
-0.29
-0.77
-0.68
0.10
1.42
2.87
3.93
4.26
3.81
2.89
2.00
1.58
1.78
2.43
3.11
3.43
3.22
2.54
1.64
0.72
-0.15
-1.04
-2.06
-3.26
-4.56
-5.79
-6.84
-7.72
-8.53
-9.42
-10.43
-11.38
-11.94
-11.74
-10.58
-8.55
-6.02
-3.53
-1.62
-0.64
-0.62
-1.32
-2.25
-2.92
-3.01
-2.46
-1.53
-0.62
-0.08
0.02
-0.12
-0.12
0.28
1.13
2.17
3.07
3.61
3.80
3.80
3.82
3.93
3.98
3.82
3.35
2.66
1.99
1.60
1.58
1.81
1.97
1.78
1.10
0.03
-1.10
-1.93
-2.25
-2.07
-1.62
-1.26
-1.25
-1.67
-2.34
-2.94
-3.15
-2.79
-1.90
-0.69
0.52
1.52
2.21
2.68
3.08
3.46
3.79
3.93
3.76
3.32
2.82
2.50
2.56
2.90
3.27
3.34
2.92
2.09
1.21
0.68
0.79
1.52
2.56
3.46
3.82
3.50
2.59
1.40
0.23
-0.72
-1.43
-2.04
-2.74
-3.60
-4.61
-5.58
-6.25
-6.38
-5.86
-4.73
-3.16
-1.43
0.25
1.71
2.93
3.89
4.56
4.91
4.88
4.51
3.94
3.42
3.13
3.15
3.33
3.48
3.41
3.13
2.85
2.79
3.08
3.65
4.23
4.50
4.24
3.47
2.43
1.42
0.71
0.38
0.36
0.45
0.43
0.18
-0.33
-0.98
-1.58
-1.92
-1.90
-1.50
-0.88
-0.29
0.03
0.02
-0.25
-0.56
-0.71
-0.57
-0.22
0.07
-0.01
-0.64
-1.68
-2.83
-3.76
-4.31
-4.53
-4.68
-5.14
-6.24
-8.11
-10.51
-13.01
-15.09
-16.26
-16.20
-15.08
-13.62
-12.92
-14.06
-17.34
-22.61
-29.16
-35.79
-40.89
-42.85
-40.74
-35.20
-29.05
-26.45
-32.33
-49.98
-78.10
-109.71
-134.21
-141.31
-124.87
-84.66
-24.99
45.66
117.03
179.51
225.86
251.62
255.39
239.31
209.07
174.08
142.66
119.38
104.66
96.24
90.74
85.31
78.93
64.05
42.10
20.60
4.73
-7.14
-19.15
-33.08
-46.91
-56.51
-58.49
-50.98
-37.04
-21.31
-7.99
1.33
7.38
12.02
16.92
22.76
30.24
38.65
46.41
51.82
54.51
55.06
54.40
53.37
52.55
52.92
54.73
57.53
60.46
62.55
62.25
57.19
44.80
23.47
-5.78
-39.55
-72.82
-100.75
-120.27
-131.07
-135.23
-135.80
-135.19
-134.18
-132.41
-129.15
-124.14
-117.64
-110.26
-102.49
-94.47
-86.02
-77.00
-67.49
-57.86
-48.67
-40.40
-33.36
-27.56
-22.81
-18.80
-15.21
-11.79
-8.51
-5.47
-2.92
-1.10
-0.07
0.37
0.60
1.04
2.03
3.64
5.71
7.86
9.68
10.81
11.11
10.63
9.65
8.46
7.33
6.35
5.51
4.72
3.93
3.16
2.45
1.88
1.45
1.15
0.91
0.69
0.52
0.43
0.52
0.84
1.39
2.06
2.70
3.17
3.38
3.35
3.19
2.99
2.82
2.66
2.46
2.18
1.88
1.63
1.51
1.48
1.47
1.36
1.07
0.57
-0.08
-0.77
-1.37
-1.77
-1.96
-2.04
-2.18
-2.55
-3.24
-4.19
-5.25
-6.24
-7.12
-8.00
-9.04
-10.35
-11.83
-13.24
-14.25
-14.61
-14.39
-13.91
-13.69
-14.27
-15.96
-18.70
-22.06
-25.34
-27.94
-29.58
-30.50
-31.35
-32.89
-35.61
-39.52
-44.17
-48.99
-53.57
-57.85
-62.13
-66.76
-72.06
-78.17
-84.94
-91.82
-97.80
-101.42
-101.03
-95.26
-83.72
-67.63
-49.77
-33.75
-22.71
-18.23
-19.73
-24.84
-30.33
-33.13
-31.33
-24.39
-12.87
2.07
18.98
36.30
52.52
66.51
78.25
88.37
97.95
108.22
120.08
133.55
147.51
159.94
168.69
172.99
172.56
167.59
159.01
148.45
137.68
128.05
119.92
112.83
107.02
101.71
95.57
87.94
79.65
72.50
68.51
68.61
72.33
79.26
86.97
91.88
91.21
84.60
74.11
63.58
57.17
46.34
29.16
9.46
-9.34
-29.00
-53.16
-82.23
-110.11
-131.35
-140.21
-132.24
-108.29
-73.93
-36.31
-1.54
21.48
25.09
9.58
-15.49
-36.90
-46.09
-41.49
-27.05
-9.19
6.04
15.60
18.10
13.61
3.54
-10.59
-27.22
-44.61
-61.02
-72.21
-75.34
-69.98
-58.35
-44.51
-32.87
-26.01
-23.43
-21.78
-16.59
-4.62
14.62
38.56
62.45
81.18
91.20
91.40
82.96
68.18
49.12
27.26
3.57
-21.14
-45.57
-67.95
-86.48
-99.81
-107.41
-109.56
-106.91
-100.14
-90.04
-77.85
-65.47
-55.15
-48.54
-45.65
-44.55
-41.90
-34.61
-21.63
-4.68
12.31
24.99
30.54
28.69
21.45
11.77
2.08
-6.52
-13.96
-20.37
-25.32
-27.71
-26.66
-22.12
-15.46
-9.20
-5.90
-6.91
-11.75
-18.33
-23.97
-26.74
-26.18
-23.38
-20.44
-19.33
-20.88
-24.49
-28.55
-31.22
-31.24
-28.33
-23.02
-16.65
-10.71
-6.23
-3.41
-1.87
-0.96
-0.11
1.09
3.07
5.83
9.34
14.06
20.91
30.65
43.24
57.45
71.10
81.87
87.33
85.86
77.51
63.94
47.44
30.02
13.10
-4.02
-18.16
-24.50
-20.56
-7.67
10.35
29.01
44.50
54.88
60.43
63.21
64.84
65.32
63.23
56.78
45.07
29.13
11.98
-2.62
-11.71
-15.14
-15.61
-16.98
-21.84
-30.42
-40.46
-48.51
-51.77
-49.28
-42.56
-34.64
-28.31
-24.86
-23.93
-24.15
-24.10
-22.96
-20.65
-17.69
-14.87
-12.83
-11.89
-12.16
-13.53
-15.64
-17.77
-19.35
-19.18
-16.15
-9.83
-0.76
9.60
19.46
27.37
32.59
35.11
35.29
33.36
29.34
23.35
15.95
8.21
1.38
-3.68
-6.91
-9.03
-11.23
-14.51
-19.26
-25.06
-30.90
-35.46
-37.56
-36.35
-31.62
-24.09
-15.37
-7.60
-2.56
-1.07
-2.58
-5.50
-7.99
-8.89
-8.09
-6.45
-5.06
-4.65
-5.33
-6.75
-8.36
-9.65
-10.20
-9.61
-7.43
-3.22
3.34
12.05
21.99
31.55
38.69
41.46
38.63
30.36
18.39
5.91
-3.78
-8.30
-6.82
-0.07
10.00
20.87
30.21
36.50
39.56
39.72
37.60
34.35
31.75
31.71
35.59
43.71
55.14
68.44
80.75
88.60
89.54
83.52
72.99
62.06
55.30
56.38
67.40
86.35
107.25
122.46
125.49
112.90
84.88
44.75
-6.56
-60.89
-106.95
-137.53
-153.23
-159.31
-160.77
-160.18
-157.75
-152.27
-141.53
-124.79
-103.31
-79.65
-56.60
-36.52
-20.85
-9.70
-1.85
4.91
11.46
16.76
18.98
17.24
12.44
7.02
3.87
5.06
11.11
19.89
27.52
30.30
26.71
17.87
7.08
-2.29
-7.68
-8.03
-3.99
2.99
11.60
20.94
29.64
35.12
34.50
26.50
13.39
0.67
-5.53
-2.21
8.21
18.64
21.12
11.61
-7.28
-27.67
-40.59
-40.92
-31.13
-18.78
-11.19
-11.08
-15.72
-19.73
-18.76
-12.47
-3.83
3.07
5.73
4.30
1.19
-0.62
0.85
5.66
11.58
15.41
14.88
9.82
1.89
-5.98
-11.04
-11.87
-8.54
-3.86
-1.68
-4.91
-14.33
-28.68
-44.70
-58.56
-67.22
-66.61
-56.83
-42.44
-28.91
-18.53
-9.96
0.41
15.29
35.46
59.87
85.12
106.50
119.72
122.79
110.82
80.74
34.01
-21.35
-71.71
-103.63
-109.38
-88.74
-49.37
-3.93
35.64
60.04
63.39
49.77
31.78
15.36
2.25
-7.93
-15.51
-19.68
-19.33
-13.85
-3.89
7.35
14.76
14.84
7.02
-6.77
-22.87
-37.75
-48.98
-55.57
-58.46
-59.87
-60.91
-61.47
-60.93
-58.81
-55.28
-50.91
-46.01
-40.83
-35.69
-30.32
-24.48
-18.51
-13.36
-10.24
-9.87
-12.01
-15.74
-19.93
-23.47
-25.78
-27.15
-28.70
-31.92
-37.92
-46.50
-55.71
-61.82
-60.19
-47.10
-21.82
12.59
49.96
82.96
105.18
112.47
103.35
78.93
43.05
2.22
-34.95
-59.73
-66.04
-52.95
-25.24
8.51
39.45
61.77
73.96
77.97
76.90
73.14
67.91
61.77
55.40
49.89
46.19
44.58
44.40
44.27
42.82
39.32
33.99
27.91
22.55
19.09
17.98
18.71
20.15
21.03
20.53
18.56
15.73
12.91
10.88
9.95
9.93
10.25
10.29
9.63
8.22
6.32
4.36
2.82
1.95
1.80
2.16
2.66
2.97
2.87
2.29
1.37
0.27
-0.84
-1.86
-2.75
-3.54
-4.25
-4.85
-5.31
-5.59
-5.68
-5.59
-5.35
-4.96
-4.40
-3.66
-2.75
-1.73
-0.72
0.19
0.97
1.65
2.27
2.86
3.38
3.74
3.86
3.79
3.66
3.70
4.06
4.78
5.77
6.83
7.79
8.58
9.22
9.79
10.41
11.13
11.94
12.82
13.71
14.56
15.38
16.22
17.16
18.30
19.67
21.22
22.81
24.31
25.69
27.05
28.50
29.99
31.23
31.73
30.95
28.63
24.86
20.03
14.59
8.70
2.20
-5.27
-13.93
-23.55
-33.34
-42.22
-49.18
-53.65
-55.64
-55.61
-54.17
-51.87
-49.09
-46.21
-43.66
-42.11
-41.91
-42.64
-42.87
-40.27
-32.60
-19.05
-1.32
16.65
30.21
36.05
33.54
24.71
12.94
1.37
-7.95
-13.97
-15.96
-13.14
-5.09
7.40
21.82
34.61
42.51
44.13
40.50
34.36
28.66
25.20
24.12
24.34
24.65
23.97
21.85
18.36
13.72
8.29
2.60
-2.64
-6.54
-8.31
-7.56
-4.47
0.20
5.36
9.93
13.24
15.11
15.80
15.84
15.74
15.93
16.64
17.91
19.60
21.44
23.02
23.85
23.48
21.48
17.68
12.21
5.50
-1.75
-8.83
-15.18
-20.62
-25.34
-29.67
-33.86
-37.83
-41.18
-43.36
-43.98
-43.06
-41.08
-38.82
-37.01
-36.11
-36.16
-36.88
-37.84
-38.66
-39.16
-39.27
-39.02
-38.41
-37.34
-35.67
-33.32
-30.33
-26.96
-23.61
-20.71
-18.49
-16.90
-15.65
-14.30
-12.54
-10.30
-7.83
-5.53
-3.77
-2.73
-2.40
-2.58
-3.06
-3.72
-4.47
-5.29
-6.10
-6.83
-7.31
-7.41
-7.03
-6.15
-4.85
-3.31
-1.73
-0.36
0.56
0.83
0.29
-1.15
-3.38
-6.14
-9.02
-11.55
-13.35
-14.26
-14.39
-14.09
-13.78
-13.86
-14.55
-15.89
-17.76
-19.90
-21.93
-23.40
-23.78
-22.53
-19.27
-14.02
-7.31
-0.03
6.90
12.90
17.85
21.80
24.54
25.32
23.13
17.37
8.57
-1.32
-9.58
-13.76
-12.73
-7.10
1.31
10.39
18.55
25.05
29.63
32.13
32.33
30.19
26.17
21.47
17.72
16.40
18.17
22.58
28.28
33.65
37.48
39.33
39.53
38.71
37.41
35.75
33.52
30.45
26.52
21.95
17.17
12.49
8.01
3.69
-0.43
-4.06
-6.68
-7.74
-7.07
-5.02
-2.55
-0.86
-1.03
-3.63
-8.68
-15.74
-24.09
-32.86
-40.98
-47.22
-50.35
-49.66
-45.36
-38.77
-32.00
-27.07
-25.10
-25.83
-27.94
-29.76
-30.15
-28.87
-26.32
-23.00
-19.04
-14.19
-8.14
-1.00
6.55
13.47
18.81
22.16
23.77
24.36
24.67
25.08
25.46
25.31
24.09
21.57
17.99
13.93
10.14
7.20
5.42
4.79
5.10
6.09
7.44
8.80
9.80
10.08
9.45
7.99
6.08
4.22
2.89
2.28
2.34
2.81
3.46
4.16
4.89
5.67
6.46
7.14
7.60
7.77
7.70
7.49
7.26
7.08
6.99
7.03
7.21
7.53
7.93
8.30
8.50
8.38
7.80
6.68
4.97
2.69
-0.00
-2.82
-5.42
-7.51
-8.98
-9.90
-10.48
-10.89
-11.19
-11.29
-11.06
-10.41
-9.36
-8.05
-6.68
-5.38
-4.21
-3.18
-2.25
-1.44
-0.79
-0.33
-0.04
0.14
0.30
0.52
0.79
1.04
1.13
0.99
0.64
0.23
-0.06
-0.03
0.36
1.05
1.84
2.53
2.94
3.01
2.78
2.35
1.89
1.55
1.40
1.45
1.63
1.79
1.83
1.69
1.47
1.30
1.28
1.44
1.68
1.83
1.75
1.41
0.90
0.39
0.03
-0.09
0.02
0.28
0.65
1.08
1.53
1.99
2.39
2.64
2.67
2.44
1.98
1.43
0.91
0.56
0.40
0.42
0.52
0.57
0.46
0.11
-0.45
-1.13
-1.74
-2.09
-2.05
-1.66
-1.05
-0.40
0.14
0.52
0.73
0.80
0.68
0.32
-0.28
-1.03
-1.74
-2.20
-2.31
-2.11
-1.80
-1.62
-1.76
-2.31
-3.27
-4.57
-6.08
-7.57
-8.77
-9.41
-9.31
-8.50
-7.18
-5.67
-4.25
-3.06
-2.07
-1.16
-0.21
0.79
1.76
2.57
3.15
3.48
3.64
3.74
3.81
3.88
3.89
3.78
3.49
2.95
2.17
1.17
0.03
-1.17
-2.34
-3.36
-4.13
-4.54
-4.53
-4.10
-3.37
-2.49
-1.65
-0.99
-0.59
-0.50
-0.68
-1.06
-1.55
-1.97
-2.20
-2.13
-1.83
-1.44
-1.19
-1.22
-1.56
-2.12
-2.71
-3.18
-3.45
-3.53
-3.54
-3.65
-4.01
-4.72
-5.75
-6.95
-8.13
-9.13
-9.93
-10.68
-11.61
-12.85
-14.36
-15.85
-16.94
-17.34
-17.03
-16.34
-15.81
-16.04
-17.44
-20.04
-23.51
-27.10
-29.76
-30.33
-27.71
-21.25
-10.98
2.16
16.53
30.15
41.28
48.90
52.84
53.65
52.29
49.69
46.59
43.51
40.83
38.73
37.24
36.10
34.82
32.79
29.57
25.02
19.42
13.37
7.61
2.82
-0.61
-2.59
-3.39
-3.45
-3.24
-3.10
-3.14
-3.31
-3.47
-3.60
-3.76
-4.18
-5.01
-6.28
-7.75
-9.07
-9.81
-9.75
-8.90
-7.49
-5.89
-4.37
-3.11
-2.17
-1.59
-1.47
-1.91
-2.98
-4.57
-6.37
-7.96
-8.95
-9.13
-8.59
-7.63
-6.65
-6.01
-5.88
-6.20
-6.67
-6.94
-6.72
-5.99
-5.02
-4.30
-4.30
-5.18
-6.71
-8.31
-9.32
-9.39
-8.63
-7.55
-6.84
-6.91
-7.83
-9.37
-11.17
-12.89
-14.19
-14.51
-13.10
-9.23
-2.63
6.24
16.30
26.41
36.00
45.38
55.28
66.04
76.80
85.36
88.85
84.98
73.00
54.12
31.01
6.79
-15.90
-35.39
-50.95
-62.41
-69.81
-73.18
-72.57
-68.28
-60.91
-51.46
-41.08
-30.84
-21.49
-13.34
-6.30
-0.08
5.61
10.80
15.24
18.47
20.11
20.05
18.66
16.65
14.83
13.71
13.34
13.34
13.12
12.25
10.68
8.69
6.74
5.15
4.10
3.49
3.17
2.89
2.48
1.78
0.80
-0.37
-1.51
-2.36
-2.76
-2.70
-2.25
-1.47
-0.33
1.28
3.47
6.14
8.97
11.49
13.27
14.11
14.09
13.47
12.48
11.25
9.71
7.76
5.37
2.71
0.08
-2.19
-3.84
-4.78
-5.00
-4.60
-3.67
-2.30
-0.55
1.51
3.78
6.09
8.26
10.03
11.23
11.79
11.83
11.62
11.47
11.55
11.84
12.08
11.93
11.12
9.55
7.33
4.76
2.18
-0.09
-1.86
-3.12
-4.00
-4.73
-5.57
-6.72
-8.24
-10.08
-12.08
-14.03
-15.70
-16.86
-17.31
-16.92
-15.65
-13.64
-11.17
-8.62
-6.31
-4.47
-3.15
-2.26
-1.59
-0.90
0.05
1.36
3.00
4.75
6.34
7.51
8.26
8.82
9.59
10.95
13.04
15.68
18.48
21.08
23.29
25.21
27.00
28.73
30.17
30.84
30.24
28.10
24.57
19.99
14.71
8.76
1.96
-5.73
-13.84
-21.25
-26.69
-29.34
-29.49
-28.43
-27.86
-29.07
-32.31
-36.88
-41.63
-45.59
-48.31
-49.69
-49.78
-48.50
-45.79
-41.79
-37.00
-32.09
-27.63
-23.83
-20.53
-17.42
-14.31
-11.28
-8.65
-6.74
-5.65
-5.25
-5.18
-5.02
-4.42
-3.20
-1.35
0.99
3.54
5.90
7.65
8.37
7.75
5.66
2.19
-2.37
-7.52
-12.67
-17.14
-20.26
-21.56
-20.80
-18.08
-13.85
-8.71
-3.37
1.50
5.32
7.74
8.80
9.03
9.35
10.77
13.79
18.12
22.58
25.64
26.10
23.71
19.28
14.23
9.89
6.91
5.14
3.93
2.65
1.09
-0.54
-1.86
-2.64
-2.99
-3.24
-3.70
-4.46
-5.32
-5.84
-5.59
-4.26
-1.65
2.30
7.61
14.13
21.55
29.25
36.39
42.00
45.30
45.85
43.69
39.28
33.34
26.63
19.88
13.66
8.41
4.39
1.65
-0.01
-0.99
-1.76
-2.70
-4.05
-5.82
-7.86
-10.01
-12.14
-14.21
-16.15
-17.86
-19.13
-19.76
-19.62
-18.77
-17.45
-16.01
-14.81
-14.07
-13.83
-13.92
-14.01
-13.74
-12.77
-10.91
-8.16
-4.74
-1.04
2.47
5.32
7.26
8.26
8.49
8.30
8.06
8.03
8.37
9.04
9.86
10.53
10.76
10.31
9.10
7.22
4.94
2.62
0.66
-0.66
-1.21
-1.10
-0.64
-0.22
-0.23
-0.89
-2.24
-4.15
-6.37
-8.67
-10.88
-12.94
-14.82
-16.46
-17.78
-18.62
-18.86
-18.49
-17.55
-16.19
-14.55
-12.74
-10.88
-9.07
-7.46
-6.23
-5.47
-5.13
-4.99
-4.78
-4.26
-3.41
-2.46
-1.80
-1.82
-2.71
-4.34
-6.32
-8.13
-9.44
-10.20
-10.68
-11.23
-12.05
-13.01
-13.80
-14.16
-14.26
-14.62
-15.92
-18.46
-21.74
-24.52
-25.23
-22.74
-16.96
-9.01
-0.85
5.50
8.71
8.57
6.03
2.67
0.18
-0.19
2.11
6.91
13.40
20.27
25.92
28.78
27.97
23.80
18.00
13.14
11.63
14.52
21.14
29.40
37.01
42.60
46.15
48.56
50.54
51.86
51.25
47.21
39.03
27.53
14.85
3.42
-4.95
-9.57
-10.64
-8.69
-4.46
0.54
3.30
-0.54
-14.85
-40.23
-72.19
-101.88
-119.70
-119.99
-103.96
-78.90
-54.07
-35.80
-24.90
-17.80
-10.30
-0.93
8.32
14.27
15.72
15.12
17.39
26.76
43.83
64.77
83.19
93.23
92.38
82.36
67.90
54.31
45.12
41.08
40.48
40.54
38.91
34.62
28.13
20.76
13.96
8.74
5.53
4.19
4.16
4.51
4.19
2.39
-1.13
-5.72
-10.00
-12.27
-11.10
-5.88
2.85
13.45
23.54
30.63
32.86
29.59
21.66
11.12
0.49
-8.09
-13.56
-16.11
-16.83
-17.10
-17.96
-19.85
-22.66
-25.95
-29.22
-31.97
-33.80
-34.36
-33.42
-30.96
-27.31
-23.15
-19.38
-16.80
-15.85
-16.49
-18.24
-20.53
-22.91
-25.27
-27.71
-30.35
-33.10
-35.70
-37.81
-39.36
-40.56
-41.85
-43.61
-45.85
-48.23
-50.09
-50.74
-49.68
-46.67
-41.77
-35.26
-27.69
-19.80
-12.46
-6.44
-2.20
0.30
1.53
2.24
3.21
4.97
7.69
11.20
15.06
18.78
21.91
24.29
26.00
27.40
28.86
30.73
33.17
36.20
39.76
43.72
47.89
51.96
55.57
58.38
60.26
61.40
62.15
62.97
64.06
65.27
66.04
65.60
63.27
58.73
52.19
44.40
36.39
29.21
23.59
19.74
17.38
15.84
14.31
12.02
8.49
3.61
-2.20
-8.00
-12.56
-14.73
-13.93
-10.49
-5.63
-1.03
1.74
1.74
-1.13
-6.26
-12.66
-19.37
-25.70
-31.25
-35.94
-39.78
-42.83
-45.06
-46.37
-46.72
-46.22
-45.21
-44.21
-43.62
-43.43
-43.15
-41.98
-39.22
-34.75
-29.09
-23.24
-18.09
-14.04
-10.78
-7.53
-3.44
1.97
8.63
15.86
22.69
28.10
31.26
31.77
29.76
25.97
21.65
18.34
17.31
19.10
23.07
27.49
30.10
28.94
23.22
13.61
2.01
-9.27
-18.36
-24.33
-27.27
-27.87
-26.92
-24.98
-22.41
-19.53
-16.83
-15.05
-14.97
-17.22
-22.00
-28.99
-37.27
-45.41
-51.71
-54.59
-52.98
-46.78
-37.03
-25.74
-15.30
-7.75
-4.13
-4.11
-6.17
-8.19
-8.26
-5.45
-0.03
6.70
13.14
18.16
21.54
23.76
25.40
26.40
25.92
22.74
16.08
6.23
-5.47
-17.25
-27.69
-36.11
-42.33
-46.12
-46.92
-44.05
-37.30
-27.56
-16.70
-6.80
0.93
6.78
12.30
19.48
29.46
41.96
55.23
66.92
75.10
79.00
79.09
76.59
72.74
68.20
63.02
56.86
49.57
41.43
33.10
25.27
18.37
12.45
7.30
2.77
-1.04
-3.79
-5.15
-5.06
-3.86
-2.20
-0.89
-0.52
-1.37
-3.31
-5.85
-8.37
-10.28
-11.24
-11.18
-10.39
-9.32
-8.41
-7.96
-8.00
-8.40
-8.94
-9.44
-9.85
-10.22
-10.59
-10.89
-11.02
-10.91
-10.68
-10.69
-11.39
-13.04
-15.57
-18.54
-21.44
-23.94
-26.11
-28.26
-30.70
-33.34
-35.64
-36.80
-36.19
-33.77
-30.06
-25.69
-20.98
-15.70
-9.32
-1.56
7.09
15.25
21.11
23.06
20.45
13.90
5.17
-3.44
-9.63
-11.64
-8.53
-0.38
11.68
25.69
39.25
50.17
57.10
59.88
59.46
57.55
56.14
56.91
60.81
67.62
75.78
82.44
84.08
77.52
61.14
35.74
4.55
-27.69
-56.26
-77.95
-91.57
-97.73
-97.93
-93.60
-85.77
-75.10
-62.32
-48.42
-34.56
-21.77
-10.64
-1.29
6.50
12.92
17.94
21.34
22.85
22.41
20.34
17.24
13.92
11.12
9.32
8.64
8.86
9.50
10.08
10.21
9.78
8.88
7.80
6.81
6.13
5.83
5.82
5.91
5.87
5.54
4.86
3.95
3.00
2.23
1.76
1.53
1.27
0.62
-0.78
-3.08
-6.14
-9.47
-12.36
-14.04
-13.93
-11.91
-8.37
-4.18
-0.43
1.89
2.20
0.51
-2.68
-6.54
-10.16
-12.84
-14.20
-14.20
-13.13
-11.38
-9.38
-7.50
-5.96
-4.86
-4.19
-3.88
-3.77
-3.67
-3.33
-2.54
-1.15
0.77
2.99
5.13
6.79
7.69
7.76
7.18
6.27
5.44
4.94
4.89
5.15
5.51
5.74
5.74
5.54
5.21
4.83
4.35
3.66
2.67
1.38
-0.07
-1.44
-2.53
-3.24
-3.61
-3.80
-3.95
-4.12
-4.28
-4.36
-4.29
-4.11
-3.91
-3.78
-3.78
-3.90
-4.07
-4.21
-4.25
-4.22
-4.16
-4.12
-4.13
-4.23
-4.38
-4.57
-4.74
-4.85
-4.82
-4.61
-4.23
-3.67
-2.97
-2.14
-1.19
-0.19
0.78
1.61
2.20
2.52
2.60
2.57
2.57
2.68
2.93
3.27
3.64
3.97
4.25
4.43
4.48
4.34
3.96
3.34
2.57
1.79
1.13
0.67
0.35
0.03
-0.43
-1.10
-1.96
-2.86
-3.67
-4.24
-4.51
-4.50
-4.26
-3.89
-3.49
-3.11
-2.79
-2.48
-2.12
-1.66
-1.10
-0.49
0.08
0.53
0.81
0.89
0.78
0.49
0.05
-0.50
-1.09
-1.62
-2.02
-2.21
-2.17
-1.96
-1.66
-1.38
-1.23
-1.30
-1.65
-2.28
-3.14
-4.10
-5.05
-5.89
-6.60
-7.23
-7.80
-8.34
-8.80
-9.16
-9.52
-10.08
-11.07
-12.49
-13.96
-14.73
-13.88
-10.79
-5.47
1.27
8.11
13.67
16.98
17.83
16.63
14.22
11.47
9.14
7.80
7.84
9.36
12.04
14.99
16.94
16.76
14.09
9.76
5.53
3.38
4.55
8.87
14.88
20.48
23.95
24.54
22.63
19.35
15.98
13.53
12.49
12.85
14.18
15.90
17.47
18.66
19.66
20.96
23.11
26.38
30.57
35.18
39.64
43.51
46.59
48.78
49.88
49.57
47.53
43.62
37.96
30.81
22.40
12.74
1.75
-10.58
-23.89
-37.26
-49.36
-58.75
-64.34
-65.74
-63.40
-58.45
-52.32
-46.32
-41.35
-37.78
-35.53
-34.27
-33.61
-33.20
-32.74
-31.96
-30.73
-28.98
-26.85
-24.61
-22.59
-20.96
-19.70
-18.54
-17.13
-15.22
-12.77
-10.02
-7.40
-5.37
-4.21
-3.87
-3.99
-3.97
-3.21
-1.30
1.79
5.75
10.01
13.94
16.99
18.80
19.22
18.25
15.98
12.63
8.53
4.08
-0.30
-4.24
-7.53
-10.10
-11.96
-13.18
-13.87
-14.20
-14.41
-14.75
-15.40
-16.35
-17.44
-18.34
-18.74
-18.42
-17.24
-15.12
-11.98
-7.80
-2.66
3.15
9.09
14.50
18.69
21.12
21.49
19.76
16.10
10.89
4.68
-1.80
-7.77
-12.51
-15.52
-16.66
-16.19
-14.71
-13.01
-11.83
-11.65
-12.62
-14.55
-17.00
-19.50
-21.70
-23.48
-24.95
-26.39
-28.04
-29.99
-32.07
-33.85
-34.79
-34.36
-32.32
-28.75
-24.05
-18.82
-13.69
-9.18
-5.56
-2.73
-0.30
2.38
5.95
10.71
16.49
22.62
28.19
32.51
35.45
37.58
40.00
43.91
50.08
58.56
68.50
78.32
86.02
89.70
88.16
81.28
70.19
56.97
43.97
33.08
25.21
20.26
17.46
15.92
15.04
14.64
14.66
14.99
15.29
15.06
13.91
11.69
8.50
4.54
-0.09
-5.38
-11.34
-17.78
-24.25
-29.98
-34.18
-36.25
-36.03
-33.81
-30.26
-26.13
-22.19
-18.95
-16.69
-15.46
-15.11
-15.35
-15.83
-16.19
-16.10
-15.35
-13.90
-11.88
-9.55
-7.22
-5.14
-3.40
-2.00
-0.86
0.08
0.78
1.18
1.20
0.87
0.35
-0.19
-0.56
-0.69
-0.60
-0.40
-0.23
-0.18
-0.21
-0.21
-0.06
0.29
0.74
0.94
0.44
-1.24
-4.36
-8.85
-14.10
-19.12
-22.69
-23.77
-21.82
-16.99
-10.09
-2.32
5.18
11.58
16.55
20.14
22.57
24.01
24.50
23.96
22.27
19.35
15.19
9.88
3.63
-3.20
-10.06
-16.29
-21.25
-24.49
-25.85
-25.48
-23.77
-21.12
-17.93
-14.47
-11.02
-7.82
-5.15
-3.18
-1.87
-1.05
-0.43
0.19
0.86
1.48
2.00
2.52
3.34
4.88
7.38
10.80
14.69
18.39
21.15
22.48
22.22
20.51
17.72
14.19
10.19
5.89
1.45
-2.89
-6.74
-9.62
-11.11
-10.98
-9.32
-6.54
-3.23
0.01
2.66
4.39
5.10
4.83
3.75
2.03
-0.16
-2.74
-5.60
-8.60
-11.53
-14.15
-16.28
-17.87
-19.04
-19.94
-20.64
-21.05
-20.93
-20.01
-18.19
-15.63
-12.73
-10.00
-7.86
-6.50
-5.86
-5.62
-5.38
-4.72
-3.37
-1.26
1.48
4.56
7.58
10.16
12.06
13.15
13.50
13.31
12.81
12.28
11.93
11.89
12.20
12.81
13.59
14.37
14.98
15.32
15.38
15.28
15.17
15.21
15.42
15.75
15.99
15.89
15.21
13.78
11.54
8.59
5.17
1.59
-1.86
-4.98
-7.75
-10.26
-12.59
-14.72
-16.42
-17.33
-17.02
-15.26
-12.08
-7.85
-3.19
1.23
4.86
7.39
8.80
9.26
9.00
8.21
7.06
5.69
4.29
3.11
2.36
2.20
2.63
3.50
4.52
5.37
5.73
5.36
4.13
2.04
-0.76
-4.06
-7.56
-10.90
-13.68
-15.48
-15.97
-15.00
-12.72
-9.63
-6.40
-3.66
-1.82
-0.92
-0.71
-0.79
-0.84
-0.70
-0.40
-0.14
-0.15
-0.60
-1.50
-2.65
-3.70
-4.17
-3.74
-2.27
0.05
2.75
5.29
7.20
8.23
8.41
7.95
7.14
6.22
5.31
4.46
3.69
3.01
2.53
2.37
2.57
3.05
3.58
3.86
3.68
2.95
1.73
0.16
-1.60
-3.29
-4.54
-4.93
-4.05
-1.83
1.38
4.79
7.50
8.79
8.46
6.86
4.70
2.70
1.38
0.97
1.49
2.87
5.03
7.81
11.00
14.25
17.20
19.57
21.23
22.19
22.50
22.18
21.12
19.14
16.02
11.61
5.87
-1.12
-9.11
-17.73
-26.40
-34.34
-40.63
-44.40
-45.20
-43.19
-39.19
-34.40
-29.90
-26.19
-23.01
-19.63
-15.40
-10.25
-4.77
0.09
3.63
5.82
7.31
9.04
11.63
15.05
18.63
21.45
22.81
22.55
21.05
18.99
17.03
15.56
14.62
13.99
13.35
12.44
11.16
9.64
8.12
6.92
6.34
6.46
7.16
8.02
8.50
8.10
6.52
3.81
0.41
-3.05
-5.84
-7.37
-7.30
-5.52
-2.20
2.29
7.47
12.77
17.70
21.84
24.85
26.37
26.02
23.43
18.52
11.64
3.70
-4.04
-10.47
-15.14
-18.52
-21.62
-25.28
-29.36
-32.42
-32.19
-26.61
-14.97
1.52
20.00
37.04
49.83
57.04
58.86
56.65
52.23
47.44
43.99
43.26
45.84
50.87
55.59
55.81
47.47
28.64
0.91
-30.69
-59.63
-80.75
-92.65
-98.18
-102.92
-112.27
-128.87
-151.45
-175.71
-196.16
-208.04
-208.36
-195.99
-171.23
-135.58
-91.71
-43.45
4.59
47.72
82.25
106.25
119.66
123.84
120.69
111.91
98.71
81.99
62.82
42.77
23.96
8.66
-1.17
-4.40
-1.06
7.72
19.81
32.55
43.01
48.42
46.63
36.76
19.73
-1.42
-21.93
-36.59
-41.50
-35.58
-21.14
-3.01
13.23
23.42
26.10
22.59
16.01
9.71
6.13
6.26
9.82
15.71
22.46
28.68
33.27
35.64
35.82
34.25
31.50
27.96
23.72
18.78
13.30
7.72
2.65
-1.40
-4.30
-6.18
-7.31
-7.77
-7.45
-6.16
-3.88
-0.91
2.18
4.76
6.45
7.20
7.34
7.34
7.57
8.05
8.33
7.71
5.47
1.33
-4.32
-10.54
-16.20
-20.47
-23.09
-24.38
-24.87
-25.00
-24.85
-24.23
-22.93
-20.96
-18.54
-15.95
-13.24
-10.17
-6.31
-1.42
4.37
10.44
16.02
20.42
23.40
25.12
25.90
25.95
25.14
23.14
19.65
14.70
8.71
2.39
-3.48
-8.34
-11.96
-14.44
-16.07
-17.20
-18.15
-19.14
-20.26
-21.50
-22.79
-24.05
-25.19
-26.16
-26.82
-27.01
-26.54
-25.28
-23.21
-20.46
-17.32
-14.06
-10.91
-7.94
-5.10
-2.33
0.39
2.90
4.95
6.30
6.85
6.72
6.24
5.81
5.78
6.26
7.06
7.83
8.22
8.04
7.34
6.36
5.38
4.58
3.91
3.14
2.01
0.32
-1.95
-4.65
-7.53
-10.31
-12.77
-14.69
-15.90
-16.24
-15.58
-13.91
-11.46
-8.72
-6.27
-4.47
-3.21
-2.02
-0.32
2.09
4.78
6.95
7.85
7.32
5.95
4.78
4.79
6.35
9.10
12.24
15.04
17.21
18.92
20.58
22.37
24.09
25.18
25.09
23.54
20.86
17.82
15.23
13.53
12.47
11.26
9.03
5.32
0.40
-4.90
-9.58
-12.92
-14.66
-14.92
-13.91
-11.85
-8.88
-5.26
-1.45
1.97
4.53
6.08
6.92
7.62
8.67
10.21
11.98
13.58
14.78
15.81
17.24
19.77
23.81
29.30
35.77
42.58
49.05
54.54
58.30
59.34
56.56
49.20
37.48
23.05
8.75
-2.36
-8.16
-8.47
-5.12
-1.07
0.86
-0.79
-5.69
-12.19
-18.24
-22.33
-23.98
-23.60
-21.92
-19.54
-16.73
-13.49
-9.92
-6.32
-3.11
-0.67
1.01
2.42
4.38
7.76
13.07
20.22
28.50
36.59
42.88
45.83
44.44
38.55
28.96
17.14
4.73
-6.95
-17.09
-25.28
-31.23
-34.68
-35.42
-33.60
-29.84
-25.07
-20.19
-15.64
-11.27
-6.59
-1.07
5.49
12.75
19.86
25.46
27.92
25.66
17.66
4.07
-13.40
-31.64
-46.97
-56.29
-58.26
-53.66
-45.03
-35.57
-27.87
-23.17
-21.29
-21.17
-21.66
-22.08
-22.36
-22.84
-23.98
-26.06
-29.12
-32.99
-37.20
-41.01
-43.43
-43.45
-40.43
-34.50
-26.67
-18.58
-11.94
-7.90
-6.60
-7.19
-8.18
-8.06
-5.77
-0.99
5.88
14.03
22.52
30.54
37.50
42.95
46.61
48.25
47.79
45.30
41.14
35.92
30.43
25.51
21.89
20.04
20.08
21.68
24.12
26.35
27.31
26.14
22.50
16.60
9.16
1.20
-6.24
-12.31
-16.44
-18.35
-18.08
-15.97
-12.62
-8.86
-5.58
-3.54
-3.14
-4.29
-6.51
-9.05
-11.19
-12.42
-12.50
-11.47
-9.57
-7.14
-4.55
-2.17
-0.26
1.11
2.01
2.64
3.16
3.64
4.04
4.22
4.08
3.63
2.94
2.16
1.52
1.40
2.27
4.62
8.61
13.87
19.40
23.89
26.26
26.12
23.95
20.84
17.99
16.20
15.67
16.05
16.83
17.63
18.33
19.03
19.83
20.82
21.93
23.07
24.08
24.87
25.44
25.86
26.30
26.90
27.70
28.45
28.72
27.92
25.53
21.29
15.34
8.19
0.56
-6.79
-13.36
-19.01
-23.91
-28.37
-32.64
-36.76
-40.63
-44.11
-47.17
-49.87
-52.18
-53.82
-54.13
-52.25
-47.59
-40.21
-31.04
-21.58
-13.42
-7.71
-4.74
-4.00
-4.46
-5.12
-5.29
-4.68
-3.32
-1.41
0.74
2.82
4.54
5.70
6.06
5.66
5.02
5.08
6.73
10.08
14.01
16.54
15.64
9.88
-0.68
-14.31
-28.06
-38.98
-45.13
-45.93
-41.74
-33.30
-22.11
-10.21
0.13
7.08
9.80
8.72
5.60
3.06
3.61
7.56
12.88
16.07
13.79
3.97
-13.92
-39.30
-71.03
-102.05
-124.14
-131.05
-122.35
-102.52
-77.53
-52.86
-32.76
-19.35
-11.85
-7.86
-4.54
-0.25
4.86
9.25
11.42
11.67
12.74
18.54
30.85
47.80
64.38
75.26
77.48
71.95
63.00
56.41
56.89
65.78
81.07
97.65
110.01
113.45
105.07
84.57
54.81
21.78
-7.04
-25.23
-30.06
-23.53
-11.59
-1.36
1.94
-3.16
-14.16
-26.50
-36.32
-42.82
-47.64
-52.84
-58.48
-62.72
-63.05
-58.28
-49.61
-40.36
-34.52
-35.05
-43.02
-57.25
-73.38
-86.08
-89.93
-81.04
-58.80
-26.58
9.81
41.49
62.77
72.50
73.58
70.80
68.18
67.18
66.82
65.44
62.35
58.96
57.42
58.70
61.66
63.28
60.26
50.60
35.12
16.93
0.33
-11.38
-17.21
-18.42
-17.37
-16.23
-16.06
-16.69
-17.43
-17.58
-17.03
-16.23
-15.71
-15.78
-16.37
-17.11
-17.48
-17.17
-15.97
-14.00
-11.63
-9.27
-7.14
-5.24
-3.40
-1.47
0.46
2.12
3.09
3.04
2.03
0.49
-0.96
-1.77
-1.71
-0.96
0.04
0.81
1.01
0.57
-0.38
-1.54
-2.58
-3.24
-3.37
-3.00
-2.29
-1.49
-0.79
-0.26
0.16
0.66
1.36
2.35
3.60
5.02
6.51
7.92
8.96
9.30
8.58
6.66
3.68
0.13
-3.35
-6.20
-8.12
-9.13
-9.41
-9.11
-8.25
-6.78
-4.68
-2.11
0.60
3.08
4.89
5.79
5.64
4.36
1.74
-2.52
-8.64
-16.60
-25.96
-35.92
-45.59
-54.19
-61.19
-66.26
-69.15
-69.61
-67.54
-63.18
-57.04
-49.75
-41.66
-32.76
-22.74
-11.34
1.21
14.13
26.28
36.64
44.59
49.95
52.84
53.42
51.99
49.08
45.60
42.62
41.14
41.54
43.36
45.40
46.35
45.45
42.80
39.38
36.44
35.16
35.92
38.03
39.92
39.92
37.15
32.00
26.30
22.10
21.34
24.56
30.50
36.20
38.37
35.08
26.63
15.96
6.61
2.01
3.61
10.30
18.02
21.48
16.30
0.12
-26.90
-64.95
-109.31
-149.33
-171.19
-165.86
-133.46
-83.59
-34.23
3.25
22.17
23.87
17.21
15.40
28.31
56.80
94.32
129.33
151.21
153.90
138.78
105.07
59.85
14.14
-24.30
-54.79
-79.82
-100.14
-115.26
-124.55
-128.99
-129.63
-129.46
-127.40
-120.78
-105.95
-80.15
-44.18
-2.27
38.71
69.98
87.51
92.73
89.58
82.36
74.38
67.34
62.11
59.02
58.30
59.01
58.66
54.17
44.10
29.48
13.19
-1.62
-13.02
-20.40
-24.22
-25.48
-25.18
-23.68
-20.95
-17.23
-13.27
-10.20
-8.49
-7.84
-7.46
-6.69
-5.11
-2.83
-0.51
0.83
0.31
-2.41
-6.68
-11.01
-13.53
-12.72
-8.15
-0.90
6.57
11.44
11.57
6.59
-1.69
-9.86
-14.52
-13.64
-7.55
1.14
8.65
11.71
7.72
-4.38
-23.74
-47.31
-69.79
-84.26
-83.84
-64.40
-27.64
18.28
61.06
88.98
95.62
82.35
56.81
28.66
5.09
-12.24
-25.94
-39.68
-54.81
-68.96
-77.33
-75.49
-62.94
-41.70
-17.16
4.70
19.93
27.84
30.63
31.54
32.71
33.37
31.96
25.98
14.63
-0.03
-13.36
-20.27
-17.79
-6.46
9.99
26.61
38.92
44.59
43.74
38.64
32.33
27.21
24.31
23.49
23.98
24.63
24.68
23.64
21.61
18.76
15.03
10.25
4.44
-2.13
-9.34
-17.18
-26.44
-37.75
-51.26
-66.20
-80.30
-90.20
-93.07
-88.23
-74.06
-52.67
-27.40
-1.30
24.26
46.84
64.66
76.95
83.32
83.60
77.70
66.94
54.99
43.03
31.93
22.44
14.77
8.23
2.04
-4.66
-11.36
-17.39
-22.73
-27.79
-33.15
-39.04
-45.46
-51.28
-54.73
-53.81
-47.65
-36.90
-22.87
-6.62
11.43
30.28
48.76
65.27
77.93
84.39
82.32
70.63
50.02
23.14
-7.34
-38.48
-67.54
-92.30
-112.04
-127.27
-138.75
-146.53
-142.37
-121.01
-83.97
-39.44
2.90
35.84
56.57
67.24
70.53
69.17
64.13
55.71
43.21
27.92
12.08
-1.76
-11.38
-15.69
-14.71
-10.52
-5.67
-1.98
0.20
1.36
2.25
3.45
4.97
6.66
7.71
7.63
6.59
5.52
5.34
6.61
9.27
12.76
16.47
19.70
22.00
23.41
24.33
25.16
26.09
27.06
27.77
27.89
27.00
24.81
21.34
17.06
12.75
9.28
7.25
6.67
6.98
7.24
6.56
4.51
1.24
-2.65
-6.49
-9.92
-12.95
-15.91
-19.03
-22.28
-25.19
-27.17
-27.73
-26.87
-25.15
-23.45
-22.61
-22.95
-24.10
-25.10
-24.91
-22.87
-19.04
-14.19
-9.47
-5.98
-4.38
-4.83
-7.10
-10.63
-14.56
-17.71
-18.69
-16.12
-9.07
2.62
17.99
34.97
50.68
62.15
67.28
65.52
58.11
47.76
37.70
30.42
26.64
25.01
22.93
17.72
7.70
-7.37
-26.29
-47.00
-66.85
-83.24
-93.64
-95.68
-87.74
-69.97
-45.31
-19.10
2.40
14.56
16.27
10.70
3.89
1.89
7.80
19.17
30.03
34.40
31.65
27.17
27.91
36.91
51.58
65.71
73.43
72.69
66.04
58.67
54.95
56.72
62.97
71.15
78.57
82.90
82.35
75.81
64.47
48.69
30.23
11.91
-3.37
-13.77
-19.37
-21.91
-23.61
-26.77
-32.67
-40.94
-50.35
-59.61
-67.82
-74.38
-78.72
-80.18
-78.37
-73.62
-66.99
-60.30
-55.42
-53.44
-54.14
-56.11
-57.35
-56.27
-52.51
-46.86
-41.11
-37.30
-37.02
-40.78
-47.55
-54.61
-57.75
-52.51
-36.12
-9.26
23.83
56.53
82.53
98.22
103.87
102.89
99.53
96.54
93.70
88.38
77.35
59.01
34.60
7.92
-16.22
-34.19
-44.79
-49.64
-51.86
-54.30
-58.13
-62.84
-67.32
-70.87
-73.01
-72.82
-68.42
-58.03
-41.48
-21.17
-1.38
13.43
21.34
23.82
24.49
26.58
30.85
35.19
36.99
34.98
30.42
26.35
25.36
27.78
31.58
33.97
33.06
29.15
24.33
21.14
21.18
24.55
29.53
33.86
35.76
34.76
31.85
28.89
27.64
28.91
32.34
36.82
41.14
44.42
46.02
45.32
41.53
34.06
23.07
9.84
-3.64
-15.60
-25.47
-34.22
-43.40
-53.65
-63.62
-70.16
-69.92
-61.57
-47.04
-30.97
-18.52
-12.78
-13.32
-16.94
-19.71
-19.39
-16.41
-13.05
-11.63
-12.80
-15.28
-16.78
-15.62
-11.65
-6.20
-1.06
2.64
4.79
6.03
7.04
7.98
8.54
8.25
6.84
4.42
1.46
-1.43
-3.69
-4.87
-4.80
-3.54
-1.34
1.41
4.29
6.85
8.67
9.40
8.77
6.69
3.36
-0.69
-4.60
-7.38
-8.21
-6.70
-3.16
1.39
5.44
7.44
6.37
2.21
-3.83
-9.61
-12.68
-11.25
-4.91
5.05
16.05
25.24
30.46
31.05
27.80
22.34
16.37
10.95
6.36
2.39
-1.23
-4.50
-7.20
-9.08
-10.14
-10.64
-10.94
-11.31
-11.77
-12.10
-12.04
-11.33
-9.90
-7.94
-5.76
-3.67
-1.84
-0.29
1.07
2.42
3.87
5.47
7.11
8.68
10.02
11.05
11.72
12.06
12.16
12.10
12.02
12.05
12.33
12.91
13.71
14.45
14.74
14.17
12.47
9.64
5.96
1.91
-1.94
-5.07
-7.14
-7.93
-7.44
-5.84
-3.46
-0.80
1.68
3.66
5.11
6.36
7.86
9.89
12.32
14.62
16.05
16.05
14.54
11.93
8.94
6.26
4.38
3.54
3.75
4.92
6.68
8.42
9.25
8.35
5.20
-0.19
-7.43
-16.08
-25.82
-36.39
-47.20
-57.09
-64.47
-67.96
-67.08
-62.64
-56.34
-49.95
-44.48
-39.86
-35.45
-30.84
-26.45
-23.36
-22.65
-24.48
-27.82
-30.81
-31.70
-29.64
-24.95
-18.62
-11.60
-4.20
3.96
13.44
24.27
35.62
46.00
53.88
58.47
59.99
59.49
58.24
57.04
55.97
54.46
51.73
47.22
40.81
32.90
24.21
15.63
7.96
1.81
-2.51
-5.02
-6.03
-6.00
-5.36
-4.40
-3.25
-1.93
-0.49
0.95
2.20
3.14
3.74
4.14
4.52
5.00
5.53
5.88
5.75
4.88
3.26
1.05
-1.47
-4.06
-6.70
-9.51
-12.63
-16.02
-19.37
-22.19
-23.98
-24.49
-23.75
-22.04
-19.73
-17.08
-14.14
-10.84
-7.05
-2.78
1.77
6.26
10.29
13.53
15.83
17.18
17.65
17.27
15.97
13.68
10.42
6.35
1.81
-2.71
-6.71
-9.66
-11.12
-10.75
-8.44
-4.43
0.69
6.04
10.72
14.09
15.89
16.24
15.48
13.94
11.83
9.25
6.33
3.25
0.28
-2.37
-4.63
-6.62
-8.61
-10.85
-13.41
-16.11
-18.58
-20.45
-21.46
-21.58
-20.97
-19.91
-18.72
-17.72
-17.16
-17.15
-17.62
-18.24
-18.51
-17.91
-16.18
-13.41
-10.02
-6.60
-3.61
-1.30
0.36
1.44
1.98
1.81
0.64
-1.80
-5.54
-10.15
-14.62
-17.45
-17.09
-12.42
-3.30
9.22
23.16
36.17
46.31
52.48
54.55
53.09
48.97
43.02
35.94
28.34
20.79
13.79
7.68
2.58
-1.67
-5.28
-8.36
-10.85
-12.52
-13.12
-12.51
-10.82
-8.38
-5.65
-3.08
-1.04
0.24
0.73
0.52
-0.21
-1.20
-2.20
-2.99
-3.48
-3.72
-3.90
-4.18
-4.67
-5.32
-5.97
-6.40
-6.51
-6.31
-5.96
-5.64
-5.48
-5.50
-5.63
-5.73
-5.66
-5.30
-4.57
-3.46
-2.11
-0.75
0.24
0.50
-0.20
-1.88
-4.28
-7.01
-9.58
-11.62
-12.87
-13.26
-12.86
-11.86
-10.46
-8.86
-7.21
-5.61
-4.15
-2.87
-1.85
-1.11
-0.67
-0.51
-0.60
-0.89
-1.35
-1.89
-2.39
-2.61
-2.33
-1.37
0.30
2.48
4.82
6.84
8.06
8.21
7.22
5.32
2.94
0.48
-1.74
-3.61
-5.09
-6.18
-6.79
-6.80
-6.23
-5.32
-4.49
-4.23
-4.80
-6.13
-7.86
-9.55
-10.89
-11.78
-12.28
-12.45
-12.30
-11.89
-11.40
-11.19
-11.64
-12.88
-14.61
-16.08
-16.40
-14.93
-11.57
-6.74
-1.11
4.71
10.42
16.00
21.52
26.88
31.73
35.66
38.29
39.49
39.36
38.12
36.00
33.16
29.71
25.82
21.69
17.51
13.37
9.28
5.19
1.14
-2.75
-6.25
-9.10
-11.18
-12.46
-13.03
-12.97
-12.41
-11.44
-10.18
-8.80
-7.47
-6.31
-5.32
-4.35
-3.20
-1.68
0.32
2.72
5.34
7.93
10.26
12.20
13.70
14.80
15.60
16.27
16.95
17.77
18.78
19.91
21.00
21.85
22.33
22.34
21.90
21.05
19.87
18.42
16.75
14.97
13.20
11.52
9.94
8.37
6.63
4.66
2.54
0.57
-0.90
-1.62
-1.61
-1.14
-0.61
-0.39
-0.67
-1.45
-2.57
-3.85
-5.20
-6.54
-7.85
-9.04
-10.08
-10.98
-11.88
-13.01
-14.60
-16.72
-19.20
-21.66
-23.58
-24.49
-24.09
-22.34
-19.38
-15.57
-11.35
-7.26
-3.81
-1.44
-0.34
-0.43
-1.33
-2.55
-3.62
-4.26
-4.41
-4.21
-3.84
-3.50
-3.32
-3.38
-3.75
-4.41
-5.27
-6.13
-6.79
-7.15
-7.26
-7.36
-7.67
-8.34
-9.32
-10.36
-11.19
-11.60
-11.52
-11.03
-10.28
-9.43
-8.52
-7.56
-6.46
-5.15
-3.57
-1.76
0.14
1.94
3.48
4.64
5.42
5.85
5.98
5.85
5.45
4.81
4.03
3.30
2.86
2.87
3.38
4.23
5.15
5.81
6.02
5.73
5.03
4.10
3.09
2.13
1.27
0.57
0.09
-0.10
0.05
0.50
1.11
1.76
2.32
2.71
2.92
2.95
2.80
2.43
1.80
0.91
-0.19
-1.35
-2.40
-3.23
-3.82
-4.26
-4.68
-5.18
-5.74
-6.24
-6.54
-6.56
-6.34
-5.98
-5.56
-5.11
-4.59
-3.87
-2.88
-1.66
-0.34
0.86
1.76
2.28
2.52
2.69
3.03
3.68
4.62
5.67
6.56
7.04
6.99
6.42
5.46
4.24
2.91
1.58
0.35
-0.65
-1.35
-1.71
-1.80
-1.74
-1.72
-1.89
-2.35
-3.09
-4.03
-5.00
-5.78
-6.15
-5.95
-5.16
-3.86
-2.25
-0.54
1.12
2.70
4.22
5.67
6.92
7.76
7.97
7.49
6.47
5.26
4.22
3.54
3.21
3.05
2.87
2.60
2.32
2.15
2.09
2.02
1.71
1.02
-0.02
-1.16
-2.07
-2.48
-2.32
-1.72
-0.92
-0.16
0.38
0.66
0.74
0.71
0.69
0.81
1.15
1.75
2.56
3.46
4.30
4.95
5.36
5.58
5.66
5.67
5.62
5.53
5.46
5.54
5.94
6.74
7.91
9.25
10.49
11.37
11.71
11.44
10.56
9.09
7.08
4.60
1.81
-1.06
-3.69
-5.81
-7.23
-7.93
-8.05
-7.83
-7.54
-7.40
-7.49
-7.71
-7.89
-7.77
-7.20
-6.16
-4.73
-3.10
-1.48
-0.02
1.11
1.79
1.91
1.39
0.31
-1.09
-2.44
-3.34
-3.55
-3.02
-1.96
-0.75
0.25
0.82
0.89
0.56
-0.02
-0.65
-1.20
-1.58
-1.74
-1.69
-1.45
-1.07
-0.59
-0.06
0.51
1.09
1.71
2.35
3.03
3.71
4.35
4.91
5.34
5.60
5.70
5.66
5.50
5.24
4.95
4.69
4.57
4.64
4.88
5.17
5.31
5.09
4.36
3.14
1.56
-0.11
-1.58
-2.57
-2.92
-2.65
-1.94
-1.10
-0.43
-0.16
-0.36
-0.97
-1.85
-2.84
-3.79
-4.55
-5.02
-5.11
-4.83
-4.24
-3.50
-2.77
-2.19
-1.85
-1.74
-1.82
-1.95
-1.98
-1.81
-1.38
-0.76
-0.11
0.38
0.60
0.53
0.25
-0.12
-0.48
-0.75
-0.85
-0.70
-0.22
0.61
1.72
2.94
4.11
5.11
5.89
6.46
6.84
7.00
6.89
6.48
5.81
4.97
4.12
3.38
2.81
2.39
2.04
1.71
1.40
1.15
1.02
1.03
1.15
1.27
1.31
1.21
0.98
0.68
0.39
0.15
-0.04
-0.22
-0.42
-0.69
-1.03
-1.45
-1.91
-2.33
-2.61
-2.63
-2.33
-1.73
-0.97
-0.23
0.35
0.71
0.89
0.94
0.93
0.83
0.65
0.38
0.11
-0.05
-0.00
0.23
0.52
0.68
0.57
0.16
-0.45
-1.09
-1.58
-1.81
-1.80
-1.63
-1.41
-1.25
-1.20
-1.24
-1.34
-1.45
-1.60
-1.81
-2.11
-2.49
-2.87
-3.13
-3.18
-3.04
-2.84
-2.74
-2.86
-3.14
-3.44
-3.56
-3.39
-2.95
-2.39
-1.87
-1.53
-1.41
-1.46
-1.58
-1.71
-1.79
-1.85
-1.89
-1.92
-1.93
-1.89
-1.79
-1.66
-1.54
-1.46
-1.45
-1.47
-1.46
-1.38
-1.22
-1.00
-0.81
-0.67
-0.61
-0.56
-0.47
-0.28
0.00
0.33
0.64
0.87
0.98
1.00
1.01
1.08
1.26
1.54
1.84
2.05
2.08
1.92
1.61
1.26
0.96
0.77
0.69
0.68
0.66
0.59
0.45
0.24
-0.06
-0.45
-0.96
-1.59
-2.29
-3.00
-3.60
-4.02
-4.25
-4.32
-4.31
-4.27
-4.25
-4.23
-4.14
-3.92
-3.55
-3.05
-2.51
-2.05
-1.79
-1.78
-1.99
-2.33
-2.69
-2.97
-3.11
-3.09
-2.90
-2.50
-1.88
-1.04
-0.07
0.91
1.78
2.46
2.94
3.24
3.43
3.56
3.64
3.69
3.72
3.77
3.85
3.94
4.00
3.95
3.76
3.44
3.05
2.69
2.42
2.27
2.22
2.19
2.13
2.01
1.84
1.64
1.40
1.14
0.85
0.57
0.35
0.22
0.15
0.10
-0.01
-0.24
-0.57
-0.93
-1.20
-1.32
-1.28
-1.14
-0.98
-0.84
-0.73
-0.65
-0.60
-0.58
-0.63
-0.76
-0.93
-1.13
-1.29
-1.41
-1.47
-1.48
-1.45
-1.40
-1.34
-1.33
-1.41
-1.60
-1.88
-2.18
-2.43
-2.57
-2.62
-2.62
-2.64
-2.76
-3.00
-3.36
-3.82
-4.35
-4.91
-5.51
-6.12
-6.75
-7.35
-7.87
-8.27
-8.58
-8.88
-9.25
-9.77
-10.41
-11.08
-11.62
-11.90
-11.81
-11.28
-10.22
-8.58
-6.36
-3.68
-0.80
1.94
4.20
5.78
6.68
7.14
7.49
8.06
9.01
10.34
11.89
13.41
14.66
15.45
15.67
15.34
14.54
13.44
12.29
11.36
10.93
11.20
12.22
13.90
16.05
18.38
20.63
22.56
23.99
24.79
24.89
24.27
23.03
21.33
19.43
17.53
15.74
13.99
12.12
9.91
7.24
4.12
0.69
-2.86
-6.39
-9.77
-12.93
-15.76
-18.12
-19.94
-21.25
-22.24
-23.15
-24.20
-25.37
-26.37
-26.76
-26.16
-24.41
-21.74
-18.65
-15.74
-13.46
-12.02
-11.30
-11.04
-10.89
-10.55
-9.75
-8.29
-6.06
-3.09
0.41
4.05
7.36
9.88
11.32
11.61
10.91
9.49
7.69
5.78
3.96
2.31
0.82
-0.51
-1.74
-2.90
-3.96
-4.87
-5.48
-5.60
-5.09
-3.91
-2.25
-0.49
0.85
1.34
0.81
-0.56
-2.32
-3.98
-5.16
-5.78
-5.94
-5.83
-5.56
-5.12
-4.45
-3.52
-2.37
-1.16
-0.04
0.90
1.71
2.49
3.33
4.21
5.05
5.70
6.06
6.14
6.00
5.77
5.53
5.28
4.99
4.59
4.02
3.26
2.32
1.28
0.21
-0.77
-1.59
-2.19
-2.56
-2.72
-2.69
-2.49
-2.12
-1.58
-0.92
-0.21
0.45
0.98
1.32
1.43
1.22
0.59
-0.60
-2.44
-4.81
-7.41
-9.73
-11.31
-11.88
-11.49
-10.44
-9.15
-7.93
-6.91
-6.06
-5.29
-4.58
-3.97
-3.51
-3.15
-2.80
-2.33
-1.67
-0.88
-0.10
0.53
0.93
1.11
1.14
1.10
1.08
1.12
1.23
1.41
1.61
1.77
1.84
1.80
1.68
1.53
1.45
1.50
1.70
2.04
2.49
3.03
3.63
4.31
5.03
5.76
6.41
6.90
7.15
7.14
6.89
6.44
5.86
5.19
4.46
3.72
3.01
2.38
1.91
1.63
1.54
1.60
1.74
1.85
1.87
1.76
1.56
1.38
1.32
1.42
1.67
1.95
2.16
2.26
2.29
2.39
2.65
3.07
3.54
3.86
3.88
3.57
3.03
2.45
2.04
1.94
2.21
2.82
3.66
4.55
5.28
5.69
5.69
5.33
4.79
4.26
3.86
3.60
3.42
3.27
3.14
3.04
2.97
2.86
2.62
2.15
1.45
0.61
-0.28
-1.17
-2.04
-2.92
-3.77
-4.49
-4.94
-5.03
-4.80
-4.37
-3.90
-3.50
-3.23
-3.07
-3.04
-3.16
-3.45
-3.90
-4.43
-4.92
-5.25
-5.36
-5.28
-5.11
-4.93
-4.80
-4.67
-4.50
-4.23
-3.85
-3.41
-2.98
-2.55
-2.09
-1.48
-0.67
0.36
1.53
2.72
3.77
4.56
4.99
5.01
4.60
3.79
2.70
1.53
0.47
-0.28
-0.65
-0.67
-0.47
-0.24
-0.12
-0.21
-0.53
-1.05
-1.66
-2.24
-2.63
-2.69
-2.34
-1.58
-0.51
0.68
1.78
2.61
3.08
3.21
3.06
2.69
2.18
1.55
0.87
0.27
-0.12
-0.20
-0.00
0.31
0.50
0.43
0.06
-0.44
-0.88
-1.08
-1.02
-0.80
-0.57
-0.48
-0.61
-0.96
-1.51
-2.22
-3.03
-3.83
-4.48
-4.88
-4.96
-4.76
-4.40
-4.03
-3.78
-3.63
-3.51
-3.28
-2.82
-2.09
-1.15
-0.09
0.97
1.96
2.85
3.62
4.23
4.62
4.71
4.51
4.08
3.55
3.07
2.70
2.44
2.25
2.12
2.09
2.22
2.54
2.99
3.42
3.63
3.51
3.08
2.52
2.03
1.79
1.83
2.07
2.35
2.51
2.46
2.24
1.95
1.74
1.72
1.90
2.16
2.30
2.12
1.52
0.57
-0.54
-1.55
-2.25
-2.53
-2.38
-1.90
-1.22
-0.51
0.10
0.53
0.74
0.74
0.56
0.24
-0.19
-0.70
-1.22
-1.66
-1.91
-1.88
-1.60
-1.14
-0.67
-0.37
-0.34
-0.64
-1.26
-2.11
-3.09
-4.03
-4.81
-5.36
-5.67
-5.78
-5.73
-5.52
-5.10
-4.40
-3.40
-2.19
-0.91
0.29
1.40
2.51
3.74
5.17
6.72
8.15
9.20
9.69
9.63
9.14
8.40
7.61
6.86
6.23
5.78
5.58
5.68
6.07
6.66
7.34
7.96
8.44
8.71
8.79
8.66
8.34
7.84
7.15
6.24
5.07
3.63
1.98
0.24
-1.38
-2.72
-3.71
-4.39
-4.93
-5.52
-6.25
-7.08
-7.85
-8.40
-8.63
-8.55
-8.27
-7.91
-7.56
-7.23
-6.92
-6.61
-6.38
-6.27
-6.30
-6.42
-6.49
-6.40
-6.07
-5.55
-4.92
-4.28
-3.68
-3.16
-2.74
-2.42
-2.15
-1.86
-1.44
-0.81
0.01
0.88
1.58
1.91
1.84
1.45
0.97
0.59
0.40
0.37
0.46
0.57
0.70
0.85
1.06
1.34
1.70
2.17
2.73
3.31
3.80
4.05
3.97
3.55
2.94
2.30
1.79
1.50
1.38
1.37
1.36
1.26
1.02
0.65
0.15
-0.42
-0.99
-1.48
-1.85
-2.04
-2.07
-1.97
-1.78
-1.55
-1.33
-1.14
-1.03
-1.02
-1.13
-1.36
-1.64
-1.89
-2.00
-1.89
-1.54
-1.01
-0.41
0.14
0.57
0.84
1.00
1.06
1.08
1.08
1.10
1.12
1.13
1.04
0.73
0.12
-0.78
-1.87
-2.96
-3.80
-4.27
-4.30
-3.99
-3.50
-3.01
-2.61
-2.34
-2.16
-2.05
-1.99
-1.98
-1.99
-1.96
-1.79
-1.40
-0.79
-0.07
0.57
0.93
0.86
0.37
-0.44
-1.34
-2.13
-2.63
-2.75
-2.48
-1.90
-1.15
-0.47
-0.04
-0.03
-0.47
-1.21
-1.99
-2.50
-2.52
-1.98
-0.99
0.28
1.64
2.98
4.26
5.50
6.73
7.94
9.13
10.26
11.28
12.10
12.61
12.67
12.19
11.14
9.65
7.89
6.13
4.57
3.30
2.32
1.56
0.92
0.34
-0.21
-0.76
-1.38
-2.15
-3.12
-4.24
-5.34
-6.19
-6.62
-6.63
-6.40
-6.19
-6.23
-6.57
-7.07
-7.51
-7.64
-7.36
-6.67
-5.72
-4.69
-3.78
-3.14
-2.82
-2.79
-2.90
-2.95
-2.80
-2.42
-1.89
-1.31
-0.74
-0.18
0.41
1.05
1.66
2.12
2.30
2.20
1.94
1.74
1.80
2.24
3.03
3.99
4.89
5.45
5.49
4.95
3.91
2.56
1.13
-0.16
-1.18
-1.86
-2.19
-2.18
-1.84
-1.21
-0.39
0.47
1.18
1.59
1.61
1.30
0.78
0.24
-0.22
-0.52
-0.69
-0.76
-0.77
-0.76
-0.74
-0.79
-0.93
-1.15
-1.37
-1.49
-1.41
-1.19
-0.93
-0.79
-0.83
-0.98
-1.05
-0.89
-0.48
0.03
0.42
0.48
0.17
-0.41
-1.04
-1.55
-1.83
-1.91
-1.86
-1.78
-1.75
-1.79
-1.91
-2.09
-2.31
-2.53
-2.71
-2.85
-2.94
-3.03
-3.12
-3.22
-3.27
-3.22
-3.04
-2.72
-2.26
-1.69
-1.02
-0.30
0.42
1.05
1.51
1.75
1.77
1.65
1.47
1.32
1.27
1.37
1.63
2.05
2.56
3.08
3.48
3.67
3.62
3.41
3.16
3.01
3.01
3.15
3.38
3.65
3.92
4.15
4.27
4.14
3.63
2.66
1.32
-0.16
-1.46
-2.26
-2.41
-1.96
-1.12
-0.19
0.51
0.80
0.64
0.16
-0.42
-0.87
-1.07
-1.02
-0.86
-0.76
-0.84
-1.04
-1.23
-1.23
-0.99
-0.56
-0.12
0.16
0.18
-0.07
-0.52
-1.09
-1.68
-2.23
-2.68
-2.97
-3.07
-3.02
-2.89
-2.75
-2.64
-2.54
-2.39
-2.24
-2.18
-2.30
-2.65
-3.08
-3.34
-3.11
-2.22
-0.65
1.40
3.66
5.82
7.67
9.11
10.10
10.67
10.90
10.86
10.61
10.21
9.67
9.05
8.40
7.85
7.52
7.53
7.94
8.71
9.72
10.76
11.60
12.05
12.04
11.62
10.93
10.09
9.11
7.92
6.44
4.69
2.85
1.16
-0.17
-1.05
-1.58
-1.93
-2.21
-2.43
-2.51
-2.40
-2.13
-1.84
-1.67
-1.75
-2.12
-2.74
-3.57
-4.62
-5.93
-7.57
-9.56
-11.76
-13.87
-15.47
-16.20
-15.86
-14.57
-12.70
-10.71
-8.97
-7.66
-6.75
-6.14
-5.72
-5.46
-5.37
-5.49
-5.85
-6.40
-7.06
-7.68
-8.07
-8.00
-7.35
-6.07
-4.33
-2.35
-0.38
1.41
2.97
4.28
5.29
5.91
6.02
5.62
4.85
3.95
3.19
2.71
2.50
2.40
2.27
2.04
1.82
1.74
1.88
2.19
2.43
2.36
1.81
0.77
-0.54
-1.83
-2.77
-3.17
-2.97
-2.28
-1.32
-0.39
0.31
0.60
0.45
-0.08
-0.86
-1.74
-2.55
-3.15
-3.42
-3.35
-2.99
-2.47
-1.95
-1.53
-1.23
-0.99
-0.73
-0.45
-0.24
-0.22
-0.50
-1.06
-1.80
-2.56
-3.15
-3.48
-3.51
-3.26
-2.83
-2.33
-1.93
-1.75
-1.81
-2.06
-2.33
-2.46
-2.34
-1.95
-1.38
-0.70
0.03
0.83
1.69
2.55
3.27
3.68
3.66
3.22
2.47
1.62
0.83
0.17
-0.35
-0.79
-1.13
-1.31
-1.22
-0.82
-0.17
0.57
1.17
1.49
1.50
1.34
1.19
1.20
1.43
1.80
2.20
2.51
2.72
2.88
3.06
3.30
3.56
3.77
3.87
3.89
3.89
4.01
4.28
4.73
5.29
5.90
6.52
7.10
7.61
7.97
8.07
7.77
7.03
5.89
4.52
3.16
2.01
1.18
0.64
0.25
-0.17
-0.72
-1.41
-2.14
-2.80
-3.30
-3.65
-3.90
-4.13
-4.35
-4.51
-4.52
-4.31
-3.89
-3.34
-2.79
-2.42
-2.32
-2.51
-2.90
-3.35
-3.71
-3.90
-3.98
-4.06
-4.28
-4.72
-5.35
-6.05
-6.65
-7.01
-7.08
-6.84
-6.32
-5.53
-4.48
-3.23
-1.90
-0.69
0.23
0.79
1.08
1.30
1.69
2.38
3.38
4.56
5.72
6.68
7.33
7.60
7.50
7.05
6.33
5.46
4.59
3.86
3.40
3.25
3.37
3.67
4.02
4.30
4.40
4.26
3.90
3.37
2.75
2.12
1.48
0.82
0.10
-0.70
-1.52
-2.30
-2.93
-3.38
-3.65
-3.82
-4.00
-4.26
-4.67
-5.25
-5.98
-6.79
-7.61
-8.30
-8.78
-8.96
-8.80
-8.28
-7.38
-6.11
-4.54
-2.83
-1.23
-0.04
0.50
0.33
-0.40
-1.38
-2.23
-2.64
-2.49
-1.82
-0.81
0.27
1.16
1.70
1.85
1.68
1.38
1.10
0.96
0.98
1.07
1.17
1.23
1.26
1.30
1.39
1.51
1.56
1.47
1.18
0.74
0.24
-0.23
-0.60
-0.87
-1.11
-1.40
-1.76
-2.18
-2.57
-2.82
-2.87
-2.73
-2.47
-2.20
-2.00
-1.87
-1.79
-1.67
-1.47
-1.15
-0.71
-0.20
0.35
0.87
1.32
1.69
1.99
2.26
2.54
2.85
3.16
3.45
3.64
3.69
3.57
3.31
2.96
2.60
2.30
2.12
2.07
2.12
2.17
2.11
1.83
1.30
0.59
-0.17
-0.80
-1.13
-1.10
-0.74
-0.16
0.52
1.18
1.78
2.34
2.91
3.54
4.22
4.86
5.31
5.38
4.95
4.00
2.70
1.31
0.10
-0.81
-1.48
-2.13
-3.06
-4.48
-6.48
-9.02
-11.88
-14.77
-17.26
-18.90
-19.31
-18.30
-15.99
-12.81
-9.34
-6.15
-3.61
-1.79
-0.56
0.31
1.00
1.63
2.24
2.86
3.53
4.27
5.03
5.70
6.13
6.25
6.06
5.66
5.24
4.94
4.87
5.02
5.33
5.71
6.09
6.42
6.67
6.85
6.97
7.05
7.11
7.18
7.22
7.18
6.98
6.59
6.01
5.29
4.52
3.79
3.10
2.38
1.51
0.41
-0.93
-2.40
-3.81
-4.94
-5.65
-5.88
-5.66
-5.12
-4.44
-3.79
-3.32
-3.12
-3.23
-3.67
-4.38
-5.28
-6.24
-7.10
-7.71
-7.96
-7.89
-7.60
-7.26
-7.03
-6.97
-7.07
-7.26
-7.50
-7.75
-8.00
-8.15
-8.08
-7.65
-6.78
-5.51
-3.99
-2.43
-1.05
0.04
0.85
1.44
1.95
2.49
3.12
3.86
4.64
5.36
5.92
6.25
6.29
6.03
5.48
4.66
3.63
2.48
1.36
0.44
-0.16
-0.43
-0.47
-0.46
-0.64
-1.19
-2.16
-3.48
-4.96
-6.40
-7.62
-8.53
-9.09
-9.27
-8.97
-8.13
-6.70
-4.81
-2.73
-0.82
0.67
1.67
2.36
3.04
3.93
5.08
6.29
7.27
7.83
7.93
7.71
7.33
6.90
6.39
5.69
4.76
3.68
2.63
1.85
1.48
1.51
1.77
2.02
2.05
1.82
1.41
1.02
0.87
1.04
1.53
2.19
2.86
3.42
3.78
3.92
3.79
3.36
2.63
1.70
0.77
0.16
0.07
0.58
1.54
2.65
3.59
4.18
4.34
4.13
3.66
3.01
2.29
1.58
1.04
0.80
0.93
1.42
2.10
2.79
3.30
3.55
3.54
3.34
3.00
2.61
2.22
1.96
1.96
2.31
3.06
4.07
5.13
5.92
6.19
5.78
4.79
3.45
2.14
1.17
0.74
0.84
1.33
1.97
2.57
3.01
3.24
3.27
3.06
2.57
1.75
0.68
-0.44
-1.34
-1.75
-1.56
-0.89
-0.03
0.69
1.02
0.93
0.55
0.10
-0.32
-0.71
-1.13
-1.63
-2.11
-2.39
-2.29
-1.80
-1.05
-0.32
0.18
0.38
0.38
0.34
0.38
0.45
0.42
0.12
-0.44
-1.10
-1.58
-1.59
-1.04
-0.08
0.98
1.78
2.13
2.04
1.71
1.37
1.14
0.99
0.83
0.59
0.31
0.16
0.27
0.68
1.23
1.71
1.92
1.80
1.47
1.08
0.74
0.46
0.17
-0.20
-0.63
-0.98
-1.12
-1.01
-0.69
-0.36
-0.18
-0.21
-0.38
-0.56
-0.64
-0.59
-0.46
-0.31
-0.15
0.07
0.38
0.79
1.18
1.41
1.37
1.06
0.57
0.04
-0.41
-0.77
-1.06
-1.28
-1.41
-1.34
-1.00
-0.40
0.36
1.06
1.51
1.57
1.25
0.65
-0.05
-0.67
-1.07
-1.18
-0.96
-0.44
0.29
1.11
1.86
2.39
2.58
2.40
1.87
1.11
0.24
-0.60
-1.28
-1.74
-1.96
-1.97
-1.87
-1.77
-1.77
-1.91
-2.17
-2.45
-2.64
-2.64
-2.44
-2.11
-1.76
-1.49
-1.32
-1.20
-1.05
-0.81
-0.45
-0.05
0.32
0.58
0.66
0.57
0.33
-0.01
-0.39
-0.81
-1.23
-1.65
-2.02
-2.26
-2.30
-2.10
-1.68
-1.14
-0.62
-0.16
0.22
0.60
1.00
1.35
1.53
1.40
0.94
0.30
-0.27
-0.56
-0.47
-0.12
0.25
0.45
0.37
0.12
-0.11
-0.16
0.04
0.43
0.87
1.22
1.45
1.56
1.59
1.53
1.34
0.98
0.51
0.09
-0.06
0.19
0.85
1.75
2.61
3.22
3.52
3.62
3.74
4.08
4.74
5.67
6.75
7.80
8.62
9.04
8.95
8.32
7.28
6.13
5.28
5.12
5.88
7.54
9.80
12.13
13.98
14.92
14.77
13.63
11.79
9.61
7.37
5.20
3.12
1.14
-0.70
-2.31
-3.57
-4.46
-5.05
-5.52
-6.04
-6.69
-7.45
-8.16
-8.69
-8.94
-8.98
-8.92
-8.95
-9.19
-9.63
-10.15
-10.53
-10.60
-10.26
-9.59
-8.76
-7.97
-7.39
-7.04
-6.88
-6.80
-6.73
-6.66
-6.67
-6.82
-7.11
-7.44
-7.65
-7.59
-7.24
-6.66
-6.00
-5.37
-4.84
-4.38
-3.94
-3.52
-3.17
-2.94
-2.85
-2.82
-2.72
-2.44
-2.00
-1.51
-1.14
-1.02
-1.14
-1.37
-1.53
-1.42
-0.94
-0.06
1.18
2.65
4.19
5.59
6.66
7.32
7.60
7.63
7.55
7.47
7.43
7.39
7.32
7.22
7.12
7.02
6.86
6.53
5.96
5.15
4.18
3.18
2.24
1.43
0.75
0.25
-0.01
-0.00
0.22
0.49
0.58
0.31
-0.36
-1.30
-2.27
-3.07
-3.61
-3.93
-4.13
-4.27
-4.34
-4.30
-4.10
-3.78
-3.39
-3.01
-2.69
-2.43
-2.26
-2.17
-2.19
-2.32
-2.54
-2.78
-3.01
-3.16
-3.25
-3.27
-3.22
-3.05
-2.75
-2.31
-1.81
-1.38
-1.15
-1.18
-1.43
-1.80
-2.14
-2.33
-2.33
-2.16
-1.86
-1.51
-1.15
-0.83
-0.62
-0.59
-0.75
-1.05
-1.34
-1.44
-1.26
-0.84
-0.33
0.05
0.21
0.15
0.01
-0.04
0.07
0.30
0.50
0.54
0.39
0.12
-0.14
-0.28
-0.29
-0.22
-0.15
-0.12
-0.09
-0.04
0.07
0.22
0.35
0.43
0.43
0.39
0.32
0.24
0.11
-0.09
-0.36
-0.64
-0.81
-0.77
-0.49
-0.06
0.36
0.60
0.54
0.20
-0.29
-0.74
-0.98
-0.92
-0.61
-0.20
0.10
0.15
-0.10
-0.59
-1.17
-1.67
-1.96
-1.99
-1.80
-1.51
-1.25
-1.16
-1.29
-1.67
-2.25
-2.97
-3.74
-4.47
-5.08
-5.51
-5.69
-5.61
-5.30
-4.84
-4.34
-3.89
-3.55
-3.29
-3.13
-3.06
-3.13
-3.38
-3.83
-4.44
-5.14
-5.85
-6.49
-6.98
-7.23
-7.18
-6.81
-6.19
-5.46
-4.77
-4.25
-3.93
-3.78
-3.69
-3.56
-3.32
-2.91
-2.29
-1.46
-0.37
0.97
2.49
4.06
5.51
6.67
7.42
7.78
7.89
7.94
8.10
8.44
8.85
9.10
8.90
8.05
6.45
4.20
1.56
-1.11
-3.43
-5.11
-6.00
-6.14
-5.78
-5.20
-4.66
-4.25
-3.95
-3.67
-3.34
-2.98
-2.63
-2.29
-1.85
-1.13
0.01
1.52
3.17
4.62
5.58
5.96
5.89
5.64
5.45
5.41
5.47
5.50
5.37
5.08
4.71
4.38
4.18
4.09
4.02
3.79
3.27
2.39
1.24
-0.02
-1.14
-1.92
-2.25
-2.17
-1.81
-1.36
-0.97
-0.74
-0.66
-0.63
-0.52
-0.21
0.35
1.09
1.85
2.42
2.62
2.35
1.67
0.73
-0.30
-1.25
-1.99
-2.41
-2.44
-2.06
-1.31
-0.39
0.47
1.08
1.38
1.44
1.44
1.51
1.67
1.83
1.87
1.73
1.46
1.18
0.99
0.93
0.95
0.98
0.99
0.98
1.02
1.15
1.40
1.74
2.14
2.58
3.08
3.66
4.32
4.98
5.51
5.79
5.70
5.28
4.60
3.81
3.03
2.33
1.74
1.29
1.03
1.05
1.43
2.15
3.09
4.06
4.81
5.12
4.84
3.96
2.59
0.96
-0.68
-2.09
-3.15
-3.84
-4.22
-4.38
-4.41
-4.33
-4.14
-3.85
-3.51
-3.17
-2.91
-2.75
-2.71
-2.79
-2.97
-3.23
-3.47
-3.58
-3.43
-3.00
-2.38
-1.78
-1.41
-1.39
-1.65
-1.97
-2.16
-2.12
-1.95
-1.84
-1.92
-2.15
-2.31
-2.18
-1.70
-1.05
-0.53
-0.42
-0.77
-1.40
-1.98
-2.25
-2.09
-1.62
-1.04
-0.55
-0.26
-0.23
-0.41
-0.74
-1.12
-1.43
-1.55
-1.38
-0.89
-0.12
0.81
1.71
2.39
2.66
2.44
1.76
0.78
-0.28
-1.18
-1.80
-2.10
-2.13
-1.99
-1.73
-1.36
-0.85
-0.19
0.62
1.52
2.36
2.95
3.15
2.89
2.30
1.59
1.03
0.78
0.85
1.09
1.31
1.37
1.30
1.23
1.28
1.55
1.99
2.48
2.89
3.19
3.41
3.70
4.13
4.75
5.47
6.20
6.83
7.33
7.73
8.09
8.46
8.83
9.16
9.38
9.41
9.16
8.60
7.77
6.80
5.91
5.38
5.43
6.14
7.43
9.05
10.72
12.14
13.11
13.51
13.30
12.50
11.17
9.46
7.54
5.55
3.63
1.81
0.07
-1.61
-3.24
-4.78
-6.15
-7.27
-8.07
-8.53
-8.69
-8.60
-8.37
-8.10
-7.91
-7.91
-8.14
-8.60
-9.18
-9.72
-10.05
-10.05
-9.69
-9.09
-8.42
-7.88
-7.59
-7.57
-7.72
-7.89
-7.92
-7.73
-7.32
-6.77
-6.20
-5.70
-5.34
-5.12
-4.99
-4.85
-4.65
-4.34
-3.93
-3.47
-3.00
-2.55
-2.14
-1.78
-1.48
-1.28
-1.17
-1.12
-1.07
-0.94
-0.67
-0.26
0.21
0.65
0.95
1.05
0.95
0.71
0.44
0.21
0.09
0.07
0.13
0.25
0.42
0.67
0.96
1.24
1.39
1.31
1.01
0.57
0.16
-0.06
-0.03
0.18
0.46
0.71
0.89
1.02
1.10
1.13
1.07
0.91
0.72
0.62
0.74
1.11
1.63
2.10
2.34
2.27
1.94
1.53
1.20
1.04
1.01
0.97
0.83
0.56
0.25
0.05
0.06
0.27
0.59
0.87
1.02
1.04
0.96
0.85
0.74
0.60
0.36
0.01
-0.42
-0.83
-1.09
-1.13
-0.90
-0.45
0.07
0.56
0.88
1.00
0.96
0.86
0.80
0.86
1.06
1.36
1.68
1.93
2.02
1.95
1.73
1.44
1.15
0.91
0.76
0.68
0.65
0.62
0.54
0.39
0.19
-0.04
-0.26
-0.46
-0.67
-0.90
-1.15
-1.38
-1.49
-1.42
-1.20
-0.94
-0.80
-0.85
-1.09
-1.33
-1.39
-1.16
-0.65
-0.02
0.55
0.90
1.01
0.94
0.79
0.65
0.54
0.46
0.41
0.43
0.54
0.74
0.91
0.92
0.69
0.24
-0.31
-0.75
-0.96
-0.91
-0.71
-0.52
-0.45
-0.53
-0.69
-0.86
-1.00
-1.19
-1.50
-1.97
-2.58
-3.20
-3.73
-4.08
-4.29
-4.41
-4.53
-4.68
-4.82
-4.88
-4.80
-4.59
-4.33
-4.12
-4.01
-4.03
-4.10
-4.13
-3.99
-3.61
-2.95
-2.02
-0.88
0.37
1.61
2.74
3.68
4.37
4.80
5.00
5.00
4.82
4.51
4.10
3.64
3.18
2.76
2.42
2.16
1.96
1.80
1.64
1.48
1.29
1.05
0.76
0.39
-0.00
-0.36
-0.60
-0.64
-0.46
-0.09
0.37
0.79
1.08
1.18
1.10
0.92
0.71
0.52
0.38
0.27
0.19
0.13
0.12
0.18
0.26
0.26
0.03
-0.53
-1.43
-2.59
-3.81
-4.96
-5.93
-6.73
-7.41
-8.01
-8.51
-8.88
-9.06
-9.02
-8.75
-8.22
-7.43
-6.36
-5.09
-3.80
-2.68
-1.84
-1.22
-0.65
0.10
1.10
2.26
3.32
4.07
4.46
4.60
4.75
5.09
5.64
6.28
6.82
7.12
7.20
7.17
7.16
7.20
7.21
7.01
6.49
5.67
4.74
3.96
3.55
3.52
3.71
3.88
3.86
3.64
3.37
3.24
3.30
3.46
3.50
3.22
2.60
1.78
1.01
0.47
0.23
0.20
0.23
0.20
0.12
0.08
0.20
0.51
0.93
1.25
1.29
0.95
0.29
-0.52
-1.28
-1.80
-2.06
-2.09
-2.00
-1.87
-1.73
-1.54
-1.21
-0.69
-0.00
0.75
1.38
1.68
1.52
0.94
0.13
-0.62
-1.06
-1.10
-0.85
-0.49
-0.23
-0.13
-0.14
-0.13
-0.01
0.22
0.47
0.64
0.69
0.66
0.69
0.91
1.37
2.01
2.64
3.06
3.13
2.89
2.58
2.53
3.01
4.07
5.53
7.01
8.15
8.71
8.71
8.30
7.67
6.98
6.32
5.75
5.38
5.29
5.53
6.06
6.72
7.30
7.69
7.87
7.92
7.93
7.95
7.89
7.61
7.00
6.01
4.73
3.32
1.94
0.71
-0.33
-1.19
-1.90
-2.51
-3.06
-3.60
-4.16
-4.80
-5.50
-6.24
-6.97
-7.64
-8.23
-8.72
-9.13
-9.47
-9.73
-9.89
-9.89
-9.73
-9.39
-8.90
-8.30
-7.66
-7.00
-6.35
-5.71
-5.06
-4.37
-3.66
-2.99
-2.44
-2.06
-1.87
-1.79
-1.71
-1.56
-1.26
-0.83
-0.30
0.24
0.75
1.14
1.40
1.48
1.40
1.16
0.85
0.53
0.30
0.22
0.29
0.48
0.72
0.93
1.06
1.10
1.05
0.89
0.60
0.18
-0.31
-0.77
-1.08
-1.17
-1.06
-0.87
-0.73
-0.75
-0.93
-1.25
-1.67
-2.15
-2.65
-3.10
-3.41
-3.50
-3.33
-2.97
-2.56
-2.22
-2.03
-1.97
-1.98
-1.99
-1.97
-1.92
-1.87
-1.85
-1.85
-1.84
-1.80
-1.68
-1.47
-1.16
-0.81
-0.48
-0.24
-0.12
-0.13
-0.22
-0.34
-0.46
-0.55
-0.59
-0.56
-0.45
-0.26
-0.02
0.21
0.35
0.38
0.29
0.16
0.06
0.04
0.11
0.26
0.46
0.68
0.88
1.01
1.02
0.85
0.55
0.20
-0.07
-0.14
0.02
0.34
0.71
0.99
1.10
1.05
0.90
0.76
0.70
0.72
0.79
0.83
0.81
0.71
0.61
0.56
0.60
0.71
0.82
0.90
0.94
0.95
0.95
0.95
0.92
0.84
0.71
0.54
0.36
0.20
0.07
-0.01
-0.03
0.02
0.16
0.38
0.67
0.95
1.17
1.24
1.12
0.83
0.46
0.13
-0.00
0.09
0.37
0.68
0.83
0.72
0.36
-0.13
-0.62
-0.97
-1.20
-1.33
-1.43
-1.55
-1.65
-1.67
-1.58
-1.38
-1.17
-1.04
-1.07
-1.26
-1.53
-1.78
-1.92
-1.94
-1.88
-1.81
-1.80
-1.87
-1.99
-2.11
-2.19
-2.23
-2.24
-2.26
-2.30
-2.36
-2.38
-2.31
-2.09
-1.72
-1.28
-0.86
-0.59
-0.51
-0.62
-0.82
-0.97
-0.99
-0.85
-0.64
-0.45
-0.36
-0.38
-0.43
-0.41
-0.27
-0.04
0.19
0.32
0.32
0.24
0.15
0.14
0.19
0.21
0.11
-0.18
-0.62
-1.11
-1.56
-1.91
-2.15
-2.33
-2.47
-2.62
-2.77
-2.95
-3.18
-3.50
-3.86
-4.19
-4.41
-4.39
-4.08
-3.47
-2.61
-1.60
-0.55
0.42
1.27
1.98
2.57
3.06
3.48
3.78
3.96
4.04
4.07
4.12
4.23
4.34
4.33
4.09
3.60
2.93
2.25
1.71
1.40
1.28
1.26
1.25
1.19
1.07
0.89
0.61
0.18
-0.41
-1.11
-1.79
-2.30
-2.53
-2.52
-2.40
-2.32
-2.41
-2.66
-2.98
-3.24
-3.30
-3.07
-2.50
-1.57
-0.30
1.21
2.77
4.15
5.15
5.66
5.74
5.58
5.38
5.31
5.38
5.52
5.59
5.47
5.14
4.63
4.03
3.41
2.81
2.31
1.97
1.84
1.93
2.11
2.17
1.85
0.95
-0.57
-2.56
-4.74
-6.78
-8.41
-9.51
-10.05
-10.09
-9.71
-8.99
-8.04
-6.95
-5.85
-4.84
-3.99
-3.29
-2.69
-2.09
-1.37
-0.52
0.42
1.32
2.06
2.51
2.67
2.59
2.36
2.08
1.80
1.54
1.30
1.05
0.81
0.60
0.43
0.31
0.24
0.22
0.22
0.23
0.22
0.20
0.14
0.07
-0.00
-0.05
-0.07
-0.09
-0.16
-0.32
-0.53
-0.68
-0.64
-0.32
0.25
0.92
1.49
1.75
1.61
1.11
0.38
-0.42
-1.15
-1.70
-1.97
-1.87
-1.35
-0.43
0.73
1.90
2.87
3.48
3.71
3.62
3.35
2.96
2.50
1.96
1.32
0.63
-0.03
-0.57
-0.89
-0.96
-0.83
-0.55
-0.19
0.16
0.50
0.81
1.09
1.31
1.41
1.33
1.04
0.55
-0.03
-0.53
-0.83
-0.88
-0.72
-0.50
-0.35
-0.34
-0.43
-0.51
-0.43
-0.08
0.56
1.42
2.39
3.33
4.13
4.74
5.15
5.36
5.39
5.24
4.95
4.60
4.27
4.08
4.14
4.47
5.05
5.76
6.51
7.21
7.83
8.34
8.69
8.82
8.62
8.00
6.94
5.58
4.18
3.02
2.23
1.82
1.65
1.57
1.44
1.20
0.92
0.69
0.45
-0.07
-1.15
-2.89
-5.11
-7.48
-9.60
-11.14
-11.89
-11.90
-11.60
-11.38
-11.54
-12.15
-13.17
-14.43
-15.46
-15.67
-14.54
-12.03
-8.27
-3.56
1.80
7.40
12.22
15.06
15.28
14.42
13.45
12.92
12.61
12.49
12.44
12.22
11.70
10.92
10.03
8.94
7.69
6.33
5.00
3.74
2.57
1.63
1.07
0.94
0.97
0.90
0.52
-0.14
-1.00
-1.88
-2.56
-2.82
-2.59
-2.03
-1.34
-0.71
-0.21
0.09
0.12
-0.10
-0.59
-1.30
-2.25
-3.34
-4.39
-5.14
-5.43
-5.24
-4.76
-4.34
-4.42
-5.29
-7.02
-9.34
-11.82
-13.95
-15.39
-16.01
-15.92
-15.40
-14.82
-14.53
-14.83
-15.75
-17.02
-18.05
-18.05
-16.32
-12.54
-6.95
-0.26
6.58
12.72
17.63
21.12
23.23
24.13
24.01
23.12
21.80
20.45
19.45
19.00
19.07
19.38
19.60
19.45
18.84
17.88
16.78
15.70
14.72
13.77
12.75
11.54
10.11
8.44
6.56
4.50
2.27
-0.08
-2.46
-4.80
-7.08
-9.33
-11.58
-13.82
-15.96
-17.85
-19.36
-20.42
-21.03
-21.26
-21.16
-20.76
-20.10
-19.22
-18.19
-17.08
-15.94
-14.79
-13.66
-12.56
-11.51
-10.48
-9.41
-8.23
-6.85
-5.24
-3.41
-1.41
0.66
2.76
4.80
6.72
8.43
9.84
10.86
11.47
11.71
11.67
11.43
11.07
10.52
9.69
8.40
6.57
4.18
1.38
-1.59
-4.48
-7.03
-9.03
-10.31
-10.74
-10.24
-8.86
-6.76
-4.20
-1.50
1.07
3.31
5.09
6.33
7.04
7.24
7.00
6.49
5.88
5.31
4.83
4.31
3.57
2.43
0.84
-1.10
-3.19
-5.19
-6.91
-8.28
-9.33
-10.10
-10.66
-10.99
-11.07
-10.83
-10.22
-9.23
-7.89
-6.31
-4.64
-3.01
-1.53
-0.24
0.90
1.94
2.90
3.74
4.42
4.88
5.13
5.27
5.41
5.66
6.06
6.51
6.84
6.82
6.27
5.11
3.37
1.20
-1.23
-3.69
-5.97
-7.87
-9.20
-9.80
-9.61
-8.69
-7.13
-5.09
-2.70
-0.08
2.65
5.29
7.58
9.30
10.29
10.56
10.28
9.70
9.03
8.41
7.85
7.31
6.72
6.02
5.13
3.97
2.47
0.64
-1.45
-3.64
-5.71
-7.47
-8.76
-9.48
-9.63
-9.29
-8.60
-7.75
-6.90
-6.20
-5.70
-5.35
-5.06
-4.72
-4.27
-3.67
-2.97
-2.24
-1.59
-1.10
-0.81
-0.73
-0.80
-0.92
-0.97
-0.83
-0.45
0.15
0.86
1.51
1.91
1.98
1.73
1.33
0.99
0.88
0.99
1.19
1.21
0.82
-0.10
-1.45
-3.01
-4.49
-5.61
-6.18
-6.09
-5.31
-3.88
-1.87
0.56
3.18
5.74
8.02
9.87
11.24
12.16
12.66
12.81
12.60
12.05
11.20
10.15
9.07
8.06
7.15
6.23
5.13
3.72
1.92
-0.19
-2.46
-4.68
-6.68
-8.32
-9.55
-10.40
-10.99
-11.49
-12.05
-12.72
-13.43
-14.00
-14.27
-14.17
-13.74
-13.09
-12.35
-11.54
-10.68
-9.77
-8.92
-8.28
-7.96
-7.94
-7.99
-7.68
-6.50
-4.06
-0.26
4.60
9.80
14.39
17.39
18.18
16.59
12.96
7.91
2.11
-3.80
-9.17
-13.22
-15.12
-14.30
-10.82
-5.63
-0.27
3.69
5.39
5.01
3.49
1.97
1.13
0.96
1.03
0.93
0.65
0.56
1.07
2.31
3.96
5.45
6.25
6.19
5.48
4.58
3.94
3.80
4.14
4.76
5.40
5.86
6.05
6.00
5.82
5.64
5.59
5.73
6.07
6.50
6.88
7.07
7.00
6.71
6.33
6.06
6.07
6.41
7.05
7.90
8.84
9.76
10.60
11.27
11.71
11.84
11.63
11.11
10.35
9.49
8.63
7.87
7.20
6.59
5.96
5.27
4.51
3.69
2.86
2.03
1.18
0.29
-0.61
-1.43
-2.07
-2.45
-2.58
-2.59
-2.64
-2.87
-3.35
-4.02
-4.79
-5.53
-6.13
-6.58
-6.90
-7.11
-7.26
-7.35
-7.42
-7.47
-7.53
-7.64
-7.77
-7.87
-7.83
-7.59
-7.12
-6.52
-5.95
-5.52
-5.27
-5.11
-4.93
-4.65
-4.33
-4.07
-4.00
-4.12
-4.32
-4.45
-4.44
-4.33
-4.24
-4.27
-4.43
-4.62
-4.72
-4.60
-4.25
-3.69
-2.96
-2.10
-1.12
-0.10
0.85
1.58
2.00
2.09
1.98
1.82
1.77
1.90
2.17
2.49
2.73
2.84
2.80
2.64
2.42
2.22
2.14
2.24
2.55
2.99
3.47
3.87
4.16
4.40
4.71
5.18
5.86
6.64
7.34
7.76
7.83
7.56
7.14
6.83
6.89
7.52
8.68
10.15
11.51
12.29
12.18
11.17
9.61
8.10
7.27
7.54
8.94
11.07
13.21
14.55
14.42
12.48
8.87
4.14
-0.86
-5.19
-8.03
-8.90
-7.71
-4.83
-1.00
2.94
6.21
8.36
9.41
9.76
9.96
10.46
11.40
12.50
13.25
13.10
11.64
8.76
4.57
-0.54
-6.09
-11.47
-16.12
-19.60
-21.78
-22.82
-23.21
-23.49
-24.06
-25.02
-26.16
-27.07
-27.39
-26.91
-25.71
-24.05
-22.31
-20.78
-19.58
-18.68
-17.88
-16.93
-15.65
-14.04
-12.23
-10.48
-9.02
-7.95
-7.16
-6.38
-5.27
-3.55
-1.06
2.16
5.94
10.03
14.15
18.01
21.37
24.06
26.03
27.34
28.15
28.59
28.71
28.35
27.33
25.52
23.04
20.30
17.83
16.05
15.11
14.73
14.43
13.68
12.15
9.74
6.54
2.74
-1.45
-5.72
-9.63
-12.66
-14.39
-14.68
-13.86
-12.61
-11.72
-11.72
-12.66
-14.13
-15.47
-16.16
-16.01
-15.23
-14.25
-13.48
-13.18
-13.35
-13.88
-14.52
-15.03
-15.19
-14.86
-14.01
-12.74
-11.27
-9.86
-8.69
-7.80
-7.13
-6.59
-6.11
-5.68
-5.29
-4.86
-4.21
-3.19
-1.72
0.12
2.05
3.76
4.96
5.54
5.59
5.36
5.09
4.91
4.79
4.59
4.18
3.60
3.03
2.73
2.87
3.43
4.18
4.82
5.09
4.93
4.42
3.78
3.18
2.75
2.49
2.38
2.35
2.36
2.39
2.44
2.51
2.59
2.66
2.69
2.62
2.47
2.27
2.11
2.03
2.05
2.07
1.99
1.72
1.23
0.61
0.02
-0.43
-0.65
-0.68
-0.60
-0.54
-0.55
-0.64
-0.78
-0.91
-1.03
-1.14
-1.28
-1.44
-1.55
-1.56
-1.45
-1.28
-1.15
-1.16
-1.31
-1.53
-1.67
-1.61
-1.31
-0.80
-0.19
0.40
0.91
1.29
1.54
1.65
1.66
1.59
1.48
1.35
1.21
1.08
0.99
0.99
1.15
1.45
1.80
2.07
2.19
2.15
2.04
1.93
1.85
1.76
1.55
1.18
0.67
0.13
-0.36
-0.74
-1.04
-1.32
-1.55
-1.70
-1.71
-1.56
-1.36
-1.28
-1.45
-1.87
-2.39
-2.76
-2.82
-2.52
-2.03
-1.59
-1.39
-1.45
-1.60
-1.64
-1.40
-0.91
-0.32
0.15
0.37
0.32
0.09
-0.20
-0.48
-0.68
-0.77
-0.71
-0.50
-0.17
0.17
0.39
0.40
0.23
-0.03
-0.25
-0.37
-0.40
-0.40
-0.41
-0.38
-0.21
0.14
0.63
1.07
1.25
1.07
0.57
-0.09
-0.68
-1.04
-1.15
-1.06
-0.87
-0.60
-0.24
0.28
0.98
1.80
2.61
3.23
3.51
3.40
2.96
2.32
1.62
0.98
0.47
0.13
-0.05
-0.06
0.09
0.33
0.56
0.67
0.56
0.22
-0.27
-0.76
-1.13
-1.31
-1.34
-1.33
-1.35
-1.47
-1.66
-1.93
-2.26
-2.67
-3.17
-3.66
-4.03
-4.10
-3.78
-3.07
-2.05
-0.80
0.59
2.04
3.45
4.65
5.45
5.69
5.34
4.49
3.33
2.08
0.90
-0.10
-0.85
-1.28
-1.35
-1.05
-0.47
0.26
0.97
1.52
1.85
1.92
1.74
1.33
0.74
0.04
-0.64
-1.16
-1.40
-1.29
-0.87
-0.28
0.31
0.73
0.88
0.76
0.43
0.00
-0.40
-0.68
-0.78
-0.68
-0.39
0.03
0.50
0.93
1.24
1.38
1.35
1.22
1.02
0.84
0.72
0.71
0.81
1.04
1.33
1.62
1.81
1.87
1.82
1.71
1.63
1.65
1.77
1.92
1.99
1.89
1.60
1.15
0.66
0.26
0.03
0.00
0.12
0.25
0.27
0.13
-0.14
-0.41
-0.54
-0.49
-0.32
-0.16
-0.16
-0.42
-0.91
-1.52
-2.12
-2.57
-2.83
-2.89
-2.80
-2.60
-2.33
-2.01
-1.63
-1.22
-0.82
-0.51
-0.33
-0.23
-0.07
0.27
0.87
1.63
2.31
2.65
2.51
1.97
1.32
0.87
0.85
1.28
1.98
2.70
3.24
3.50
3.49
3.29
2.94
2.47
1.88
1.18
0.40
-0.42
-1.27
-2.11
-2.91
-3.60
-4.08
-4.27
-4.11
-3.65
-3.02
-2.38
-1.83
-1.38
-0.99
-0.55
-0.04
0.49
0.91
1.13
1.12
0.95
0.77
0.68
0.72
0.83
0.90
0.91
0.85
0.82
0.89
1.09
1.33
1.52
1.53
1.33
0.94
0.45
-0.02
-0.40
-0.63
-0.72
-0.70
-0.62
-0.57
-0.59
-0.69
-0.84
-1.00
-1.18
-1.39
-1.64
-1.95
-2.27
-2.51
-2.61
-2.51
-2.22
-1.79
-1.33
-0.93
-0.64
-0.50
-0.52
-0.65
-0.84
-1.04
-1.21
-1.34
-1.42
-1.45
-1.37
-1.14
-0.67
0.04
0.95
1.96
2.89
3.58
3.92
3.89
3.57
3.08
2.56
2.07
1.64
1.26
0.89
0.54
0.22
-0.07
-0.30
-0.48
-0.58
-0.56
-0.36
-0.03
0.40
0.81
1.11
1.26
1.23
1.03
0.64
0.05
-0.73
-1.59
-2.35
-2.82
-2.88
-2.56
-2.02
-1.46
-1.04
-0.81
-0.73
-0.75
-0.82
-0.99
-1.26
-1.62
-1.97
-2.19
-2.16
-1.81
-1.19
-0.37
0.57
1.55
2.52
3.38
3.99
4.20
3.94
3.28
2.45
1.72
1.31
1.30
1.59
1.99
2.31
2.43
2.33
2.04
1.59
1.01
0.35
-0.30
-0.83
-1.10
-1.04
-0.65
-0.04
0.62
1.15
1.44
1.48
1.33
1.09
0.83
0.61
0.40
0.14
-0.21
-0.67
-1.21
-1.74
-2.15
-2.35
-2.29
-1.95
-1.36
-0.60
0.21
0.92
1.44
1.72
1.80
1.77
1.72
1.65
1.54
1.28
0.85
0.28
-0.32
-0.83
-1.20
-1.44
-1.65
-1.86
-2.02
-2.01
-1.66
-0.93
0.03
0.99
1.64
1.79
1.39
0.59
-0.42
-1.43
-2.29
-2.91
-3.19
-3.09
-2.58
-1.69
-0.56
0.67
1.83
2.79
3.43
3.70
3.57
3.09
2.39
1.67
1.09
0.72
0.51
0.31
-0.02
-0.51
-1.09
-1.59
-1.86
-1.82
-1.51
-1.04
-0.55
-0.12
0.19
0.39
0.47
0.46
0.35
0.15
-0.11
-0.42
-0.72
-1.00
-1.21
-1.38
-1.56
-1.78
-2.06
-2.34
-2.53
-2.54
-2.31
-1.83
-1.16
-0.36
0.51
1.46
2.50
3.66
4.90
6.16
7.32
8.25
8.84
9.02
8.78
8.19
7.42
6.75
6.46
6.79
7.76
9.16
10.62
11.75
12.29
12.19
11.61
10.81
9.97
9.14
8.29
7.31
6.14
4.81
3.42
2.12
1.05
0.26
-0.27
-0.61
-0.86
-1.07
-1.26
-1.40
-1.51
-1.63
-1.85
-2.25
-2.83
-3.52
-4.19
-4.75
-5.16
-5.48
-5.83
-6.28
-6.84
-7.44
-7.96
-8.31
-8.46
-8.44
-8.33
-8.21
-8.15
-8.19
-8.35
-8.62
-8.97
-9.34
-9.66
-9.89
-10.05
-10.19
-10.40
-10.70
-11.03
-11.29
-11.33
-11.13
-10.71
-10.20
-9.71
-9.31
-8.98
-8.65
-8.24
-7.74
-7.16
-6.59
-6.11
-5.74
-5.45
-5.15
-4.71
-3.99
-2.93
-1.53
0.10
1.81
3.41
4.69
5.53
5.86
5.74
5.34
4.86
4.45
4.19
4.03
3.87
3.56
3.08
2.48
1.91
1.53
1.50
1.89
2.67
3.71
4.81
5.77
6.40
6.61
6.39
5.83
5.05
4.22
3.47
2.92
2.60
2.50
2.53
2.60
2.62
2.60
2.59
2.68
2.95
3.37
3.91
4.48
4.98
5.34
5.55
5.61
5.57
5.50
5.47
5.47
5.46
5.38
5.14
4.72
4.11
3.35
2.53
1.71
0.99
0.44
0.07
-0.17
-0.42
-0.82
-1.46
-2.29
-3.17
-3.88
-4.27
-4.27
-3.93
-3.38
-2.77
-2.20
-1.74
-1.44
-1.33
-1.35
-1.43
-1.45
-1.33
-1.05
-0.69
-0.38
-0.21
-0.22
-0.32
-0.35
-0.20
0.19
0.77
1.41
1.97
2.34
2.50
2.52
2.47
2.42
2.40
2.41
2.42
2.43
2.46
2.54
2.68
2.84
2.94
2.96
2.89
2.79
2.74
2.82
3.04
3.39
3.83
4.28
4.66
4.93
5.06
5.06
5.00
4.95
4.97
5.07
5.19
5.22
5.09
4.75
4.22
3.58
2.94
2.42
2.12
2.06
2.16
2.30
2.34
2.19
1.85
1.38
0.88
0.41
-0.05
-0.52
-0.99
-1.43
-1.77
-1.98
-2.08
-2.15
-2.26
-2.42
-2.54
-2.51
-2.24
-1.76
-1.16
-0.58
-0.13
0.14
0.25
0.24
0.16
0.06
-0.01
0.00
0.16
0.44
0.81
1.15
1.38
1.42
1.27
0.97
0.62
0.31
0.12
0.05
0.08
0.13
0.09
-0.13
-0.56
-1.18
-1.95
-2.78
-3.58
-4.27
-4.78
-5.12
-5.32
-5.52
-5.87
-6.47
-7.34
-8.31
-9.13
-9.54
-9.36
-8.62
-7.51
-6.30
-5.25
-4.45
-3.89
-3.45
-3.01
-2.51
-1.98
-1.43
-0.86
-0.27
0.33
0.85
1.15
1.07
0.58
-0.17
-0.88
-1.20
-0.95
-0.17
0.82
1.62
1.89
1.52
0.63
-0.46
-1.39
-1.94
-2.08
-1.92
-1.65
-1.42
-1.27
-1.16
-1.00
-0.72
-0.36
0.00
0.26
0.36
0.30
0.11
-0.15
-0.44
-0.73
-0.98
-1.15
-1.23
-1.26
-1.35
-1.61
-2.09
-2.78
-3.55
-4.23
-4.72
-4.95
-4.97
-4.82
-4.56
-4.24
-3.88
-3.55
-3.33
-3.25
-3.30
-3.40
-3.44
-3.34
-3.06
-2.64
-2.14
-1.61
-1.10
-0.61
-0.20
0.10
0.27
0.30
0.24
0.15
0.05
-0.04
-0.12
-0.16
-0.12
0.08
0.41
0.82
1.17
1.33
1.25
0.97
0.62
0.34
0.18
0.14
0.13
0.08
-0.07
-0.32
-0.64
-0.97
-1.24
-1.39
-1.40
-1.29
-1.11
-0.94
-0.83
-0.79
-0.79
-0.76
-0.66
-0.50
-0.32
-0.15
-0.00
0.13
0.26
0.40
0.52
0.58
0.58
0.52
0.44
0.39
0.42
0.53
0.70
0.89
1.06
1.20
1.31
1.43
1.59
1.77
1.95
2.05
2.05
1.96
1.86
1.83
1.94
2.14
2.34
2.43
2.31
2.00
1.57
1.12
0.74
0.47
0.34
0.35
0.51
0.81
1.17
1.48
1.61
1.50
1.15
0.68
0.21
-0.14
-0.31
-0.33
-0.24
-0.14
-0.10
-0.17
-0.37
-0.66
-1.02
-1.38
-1.68
-1.90
-2.03
-2.06
-1.99
-1.83
-1.57
-1.24
-0.89
-0.56
-0.28
-0.05
0.14
0.30
0.43
0.51
0.56
0.62
0.74
0.95
1.23
1.55
1.86
2.13
2.38
2.66
2.99
3.38
3.78
4.15
4.44
4.67
4.85
5.04
5.22
5.38
5.49
5.54
5.54
5.54
5.59
5.71
5.88
6.01
6.05
5.94
5.70
5.40
5.05
4.66
4.16
3.50
2.69
1.84
1.11
0.63
0.48
0.62
0.95
1.33
1.69
1.97
2.18
2.35
2.54
2.77
3.01
3.20
3.28
3.21
3.02
2.80
2.60
2.45
2.31
2.15
1.96
1.78
1.63
1.50
1.30
0.96
0.45
-0.16
-0.74
-1.10
-1.12
-0.77
-0.14
0.60
1.21
1.50
1.39
0.91
0.20
-0.57
-1.31
-1.99
-2.71
-3.50
-4.37
-5.23
-5.96
-6.51
-6.91
-7.22
-7.52
-7.82
-8.05
-8.13
-7.99
-7.61
-7.06
-6.44
-5.86
-5.44
-5.21
-5.18
-5.34
-5.63
-5.98
-6.29
-6.46
-6.41
-6.12
-5.65
-5.12
-4.66
-4.37
-4.23
-4.17
-4.09
-3.94
-3.70
-3.38
-3.03
-2.66
-2.29
-1.98
-1.79
-1.80
-2.03
-2.46
-3.02
-3.57
-3.95
-4.06
-3.81
-3.21
-2.32
-1.31
-0.34
0.46
1.06
1.53
1.92
2.30
2.61
2.78
2.70
2.34
1.76
1.08
0.43
-0.06
-0.35
-0.42
-0.30
-0.04
0.31
0.69
1.08
1.49
1.94
2.44
3.00
3.54
3.99
4.26
4.30
4.14
3.84
3.49
3.14
2.78
2.30
1.61
0.63
-0.57
-1.79
-2.79
-3.35
-3.41
-3.08
-2.57
-2.07
-1.71
-1.47
-1.24
-0.90
-0.38
0.30
1.07
1.83
2.50
3.00
3.32
3.50
3.60
3.71
3.89
4.14
4.39
4.57
4.64
4.57
4.40
4.20
4.03
3.93
3.91
3.94
4.04
4.21
4.52
5.00
5.66
6.43
7.15
7.66
7.87
7.78
7.49
7.16
6.93
6.83
6.81
6.77
6.61
6.27
5.74
5.06
4.31
3.59
2.99
2.56
2.27
1.99
1.55
0.81
-0.23
-1.47
-2.71
-3.79
-4.62
-5.22
-5.64
-5.93
-6.08
-6.07
-5.92
-5.71
-5.54
-5.49
-5.55
-5.61
-5.55
-5.29
-4.88
-4.43
-4.09
-3.95
-4.03
-4.27
-4.59
-4.90
-5.14
-5.30
-5.36
-5.37
-5.38
-5.46
-5.65
-5.95
-6.30
-6.62
-6.83
-6.89
-6.81
-6.60
-6.28
-5.92
-5.58
-5.39
-5.44
-5.79
-6.37
-7.01
-7.48
-7.60
-7.35
-6.86
-6.33
-5.94
-5.78
-5.74
-5.65
-5.35
-4.74
-3.91
-3.06
-2.42
-2.22
-2.55
-3.34
-4.42
-5.54
-6.42
-6.89
-6.87
-6.48
-5.93
-5.49
-5.30
-5.33
-5.39
-5.23
-4.71
-3.92
-3.14
-2.72
-2.93
-3.83
-5.38
-7.45
-9.88
-12.42
-14.67
-16.10
-16.25
-15.01
-12.75
-10.17
-8.00
-6.57
-5.64
-4.53
-2.48
0.90
5.50
10.83
16.26
21.36
25.95
30.02
33.50
36.15
37.65
37.70
36.25
33.54
30.11
26.58
23.44
20.92
18.93
17.23
15.57
13.84
12.12
10.61
9.47
8.79
8.48
8.37
8.26
8.05
7.71
7.32
6.95
6.65
6.42
6.22
5.98
5.67
5.23
4.66
3.95
3.11
2.19
1.23
0.31
-0.50
-1.10
-1.45
-1.51
-1.31
-0.98
-0.68
-0.64
-1.03
-1.95
-3.33
-4.99
-6.64
-7.96
-8.76
-9.00
-8.82
-8.50
-8.26
-8.24
-8.42
-8.69
-8.91
-8.99
-8.87
-8.49
-7.77
-6.65
-5.17
-3.48
-1.89
-0.73
-0.21
-0.34
-0.89
-1.49
-1.79
-1.63
-1.05
-0.29
0.35
0.64
0.51
0.05
-0.53
-1.08
-1.50
-1.79
-2.02
-2.25
-2.57
-3.02
-3.72
-4.74
-6.12
-7.75
-9.40
-10.73
-11.49
-11.56
-11.07
-10.26
-9.36
-8.47
-7.47
-6.10
-4.18
-1.65
1.30
4.35
7.20
9.66
11.71
13.42
14.87
16.00
16.73
16.95
16.63
15.88
14.89
13.87
12.98
12.26
11.71
11.33
11.12
11.16
11.51
12.23
13.24
14.36
15.24
15.51
14.87
13.17
10.47
7.09
3.46
0.07
-2.72
-4.77
-6.21
-7.38
-8.71
-10.51
-12.82
-15.41
-17.85
-19.72
-20.76
-20.94
-20.42
-19.46
-18.35
-17.25
-16.26
-15.37
-14.50
-13.52
-12.35
-10.90
-9.10
-6.93
-4.41
-1.65
1.10
3.54
5.35
6.36
6.72
6.81
7.16
8.22
10.22
13.08
16.47
19.96
23.08
25.41
26.57
26.34
24.71
21.92
18.46
14.94
11.87
9.50
7.81
6.53
5.40
4.23
2.95
1.57
0.11
-1.43
-3.01
-4.52
-5.80
-6.67
-7.11
-7.27
-7.40
-7.73
-8.36
-9.18
-9.98
-10.58
-10.93
-11.14
-11.42
-11.95
-12.76
-13.70
-14.51
-14.86
-14.52
-13.38
-11.56
-9.38
-7.27
-5.71
-5.00
-5.22
-6.14
-7.36
-8.42
-8.98
-8.87
-8.19
-7.16
-6.08
-5.17
-4.55
-4.26
-4.24
-4.35
-4.44
-4.32
-3.82
-2.89
-1.60
-0.15
1.19
2.15
2.59
2.55
2.20
1.77
1.47
1.33
1.21
0.88
0.03
-1.48
-3.57
-5.91
-7.95
-9.09
-8.85
-7.07
-3.93
0.06
4.24
7.88
10.45
11.59
11.24
9.58
7.03
4.07
1.20
-1.29
-3.30
-4.97
-6.51
-8.09
-9.75
-11.41
-12.85
-13.91
-14.49
-14.62
-14.42
-14.04
-13.61
-13.22
-12.83
-12.35
-11.65
-10.65
-9.41
-8.12
-7.06
-6.50
-6.55
-7.09
-7.84
-8.40
-8.37
-7.48
-5.61
-2.81
0.63
4.31
7.70
10.43
12.33
13.61
14.69
16.09
18.07
20.55
23.11
25.19
26.32
26.29
25.18
23.23
20.70
17.84
14.84
11.88
9.17
6.88
5.10
3.79
2.82
2.00
1.18
0.23
-0.86
-2.04
-3.18
-4.02
-4.35
-4.05
-3.23
-2.20
-1.36
-0.96
-1.01
-1.20
-1.12
-0.45
0.86
2.50
4.03
5.03
5.34
5.04
4.35
3.50
2.56
1.48
0.13
-1.52
-3.36
-5.13
-6.54
-7.37
-7.63
-7.46
-7.11
-6.82
-6.69
-6.68
-6.65
-6.48
-6.09
-5.50
-4.84
-4.28
-3.92
-3.81
-3.86
-3.95
-3.94
-3.79
-3.50
-3.15
-2.80
-2.54
-2.38
-2.31
-2.31
-2.36
-2.43
-2.52
-2.63
-2.77
-2.92
-3.00
-2.95
-2.67
-2.12
-1.33
-0.40
0.56
1.52
2.57
3.87
5.66
8.07
11.07
14.48
17.96
21.07
23.37
24.50
24.22
22.54
19.77
16.49
13.42
11.15
9.93
9.56
9.53
9.30
8.54
7.32
6.00
4.97
4.48
4.53
4.90
5.35
5.70
5.92
6.04
6.11
6.09
5.90
5.44
4.64
3.52
2.16
0.71
-0.69
-1.97
-3.17
-4.39
-5.76
-7.35
-9.10
-10.85
-12.36
-13.45
-14.03
-14.19
-14.08
-13.86
-13.59
-13.21
-12.61
-11.69
-10.52
-9.26
-8.10
-7.18
-6.52
-6.03
-5.58
-5.10
-4.60
-4.16
-3.86
-3.75
-3.81
-3.98
-4.19
-4.39
-4.53
-4.62
-4.71
-4.84
-5.08
-5.41
-5.79
-6.16
-6.50
-6.89
-7.42
-8.14
-9.03
-9.93
-10.65
-11.08
-11.18
-11.05
-10.75
-10.29
-9.55
-8.39
-6.70
-4.55
-2.11
0.30
2.41
4.02
5.11
5.78
6.25
6.73
7.37
8.18
9.06
9.84
10.40
10.71
10.82
10.85
10.87
10.85
10.71
10.35
9.76
9.02
8.28
7.63
7.13
6.74
6.45
6.30
6.36
6.71
7.33
8.09
8.76
9.16
9.21
8.93
8.45
7.88
7.27
6.55
5.65
4.54
3.23
1.86
0.55
-0.60
-1.53
-2.23
-2.75
-3.19
-3.66
-4.27
-5.10
-6.12
-7.24
-8.34
-9.28
-10.01
-10.49
-10.73
-10.79
-10.72
-10.61
-10.53
-10.48
-10.35
-9.90
-8.82
-6.97
-4.45
-1.71
0.55
1.75
1.59
0.28
-1.53
-3.05
-3.69
-3.29
-2.12
-0.62
0.82
2.01
2.88
3.34
3.20
2.28
0.54
-1.75
-4.08
-5.94
-7.02
-7.36
-7.24
-6.97
-6.72
-6.50
-6.24
-5.90
-5.54
-5.24
-5.06
-4.97
-4.93
-4.93
-5.00
-5.22
-5.58
-6.05
-6.55
-7.02
-7.44
-7.81
-8.14
-8.37
-8.45
-8.33
-8.08
-7.79
-7.56
-7.43
-7.34
-7.18
-6.89
-6.46
-5.96
-5.43
-4.79
-3.92
-2.65
-0.91
1.22
3.52
5.70
7.55
8.94
9.88
10.49
10.94
11.37
11.82
12.27
12.59
12.68
12.53
12.20
11.87
11.68
11.69
11.81
11.90
11.86
11.68
11.45
11.26
11.07
10.77
10.18
9.19
7.88
6.43
5.09
4.01
3.25
2.73
2.34
2.01
1.73
1.56
1.58
1.84
2.33
2.99
3.69
4.31
4.75
5.00
5.04
4.89
4.51
3.86
2.93
1.81
0.66
-0.33
-1.01
-1.37
-1.47
-1.41
-1.27
-1.06
-0.77
-0.43
-0.14
-0.02
-0.20
-0.64
-1.20
-1.64
-1.74
-1.42
-0.81
-0.21
0.03
-0.29
-1.20
-2.46
-3.71
-4.61
-4.98
-4.89
-4.55
-4.24
-4.19
-4.54
-5.36
-6.60
-8.08
-9.52
-10.51
-10.65
-9.69
-7.69
-5.05
-2.36
-0.19
1.07
1.38
0.94
0.14
-0.60
-0.96
-0.74
0.07
1.36
2.86
4.27
5.28
5.69
5.42
4.58
3.39
2.18
1.25
0.80
0.90
1.42
2.15
2.79
3.08
2.88
2.16
1.08
-0.12
-1.15
-1.81
-2.04
-1.92
-1.63
-1.32
-1.11
-0.97
-0.83
-0.59
-0.22
0.23
0.73
1.21
1.68
2.14
2.57
2.95
3.26
3.50
3.73
4.00
4.39
4.91
5.53
6.20
6.83
7.36
7.75
7.99
8.06
7.97
7.73
7.35
6.85
6.25
5.57
4.86
4.17
3.51
2.88
2.28
1.74
1.30
1.03
0.96
1.09
1.38
1.78
2.27
2.86
3.57
4.36
5.13
5.78
6.25
6.53
6.69
6.82
6.95
7.10
7.21
7.25
7.18
6.96
6.61
6.14
5.63
5.15
4.75
4.41
4.05
3.54
2.78
1.76
0.56
-0.67
-1.80
-2.72
-3.39
-3.82
-4.02
-4.00
-3.80
-3.50
-3.20
-2.99
-2.89
-2.89
-2.91
-2.92
-2.92
-2.99
-3.23
-3.65
-4.18
-4.67
-5.01
-5.13
-5.10
-5.07
-5.21
-5.65
-6.43
-7.50
-8.70
-9.84
-10.75
-11.30
-11.43
-11.21
-10.74
-10.13
-9.48
-8.80
-8.05
-7.21
-6.34
-5.53
-4.91
-4.57
-4.45
-4.41
-4.27
-3.94
-3.45
-2.92
-2.51
-2.29
-2.23
-2.23
-2.15
-1.91
-1.51
-1.06
-0.71
-0.61
-0.83
-1.34
-2.03
-2.68
-3.09
-3.14
-2.81
-2.21
-1.52
-0.92
-0.54
-0.42
-0.52
-0.73
-0.94
-1.07
-1.05
-0.88
-0.58
-0.23
0.11
0.32
0.32
0.07
-0.37
-0.87
-1.26
-1.42
-1.37
-1.24
-1.21
-1.45
-1.97
-2.71
-3.56
-4.46
-5.41
-6.40
-7.35
-8.07
-8.33
-7.95
-6.94
-5.50
-3.98
-2.74
-1.98
-1.74
-1.92
-2.29
-2.65
-2.89
-2.96
-2.88
-2.72
-2.53
-2.33
-2.14
-1.94
-1.78
-1.72
-1.78
-1.96
-2.22
-2.46
-2.61
-2.59
-2.38
-1.95
-1.29
-0.42
0.59
1.61
2.50
3.20
3.74
4.28
4.94
5.77
6.68
7.52
8.19
8.68
9.05
9.36
9.62
9.72
9.55
9.03
8.23
7.26
6.29
5.42
4.67
3.99
3.28
2.46
1.52
0.46
-0.67
-1.82
-2.96
-4.05
-5.10
-6.05
-6.83
-7.30
-7.31
-6.79
-5.76
-4.41
-3.00
-1.81
-1.01
-0.67
-0.69
-0.95
-1.29
-1.61
-1.81
-1.86
-1.67
-1.17
-0.31
0.86
2.18
3.41
4.30
4.70
4.63
4.35
4.27
4.75
6.01
7.93
10.14
12.10
13.37
13.69
13.04
11.63
9.75
7.66
5.63
3.84
2.45
1.56
1.15
1.09
1.13
0.99
0.49
-0.44
-1.66
-2.96
-4.12
-5.00
-5.59
-5.96
-6.25
-6.60
-7.11
-7.82
-8.66
-9.47
-9.99
-9.95
-9.20
-7.76
-5.87
-3.98
-2.52
-1.76
-1.70
-2.07
-2.45
-2.42
-1.72
-0.32
1.66
3.99
6.39
8.61
10.39
11.51
11.87
11.50
10.62
9.60
8.88
8.75
9.28
10.24
11.18
11.59
11.03
9.27
6.30
2.34
-2.18
-6.70
-10.57
-13.14
-13.96
-12.95
-10.48
-7.34
-4.53
-2.90
-2.85
-4.21
-6.38
-8.60
-10.26
-11.13
-11.31
-11.04
-10.55
-9.93
-9.13
-8.07
-6.71
-5.06
-3.21
-1.28
0.56
2.15
3.39
4.23
4.80
5.37
6.20
7.42
8.96
10.50
11.67
12.19
12.00
11.19
9.97
8.56
7.10
5.74
4.56
3.66
3.06
2.71
2.49
2.32
2.21
2.27
2.64
3.39
4.45
5.56
6.43
6.77
6.44
5.48
4.03
2.35
0.72
-0.62
-1.53
-2.02
-2.24
-2.40
-2.65
-3.04
-3.42
-3.58
-3.34
-2.62
-1.52
-0.26
0.86
1.52
1.42
0.39
-1.56
-4.18
-7.04
-9.57
-11.21
-11.52
-10.32
-7.72
-4.09
-0.05
3.69
6.41
7.54
6.80
4.22
0.20
-4.63
-9.49
-13.61
-16.36
-17.40
-16.74
-14.78
-12.15
-9.51
-7.33
-5.79
-4.81
-4.16
-3.64
-3.12
-2.56
-1.94
-1.21
-0.30
0.80
2.00
3.15
4.05
4.59
4.77
4.70
4.56
4.53
4.72
5.18
5.90
6.80
7.77
8.60
9.05
8.90
8.06
6.61
4.80
2.94
1.25
-0.17
-1.33
-2.28
-2.97
-3.34
-3.28
-2.79
-2.01
-1.17
-0.51
-0.19
-0.21
-0.47
-0.84
-1.19
-1.44
-1.56
-1.54
-1.34
-0.96
-0.41
0.22
0.73
0.89
0.57
-0.17
-1.08
-1.81
-2.03
-1.59
-0.61
0.51
1.31
1.43
0.74
-0.65
-2.49
-4.45
-6.17
-7.38
-8.10
-8.52
-8.83
-9.20
-9.64
-10.05
-10.24
-10.10
-9.66
-9.42
-9.90
-11.46
-14.02
-17.14
-20.20
-22.65
-24.21
-24.90
-25.38
-26.23
-27.62
-29.19
-30.26
-30.17
-28.73
-26.09
-20.58
-11.75
-0.32
11.98
23.35
32.70
39.74
44.57
47.60
49.31
49.61
48.07
43.89
36.08
23.87
7.51
-11.27
-28.85
-40.59
-42.80
-34.27
-17.01
4.28
23.95
38.47
46.15
47.52
44.44
38.64
31.14
22.41
12.85
3.35
-4.29
-8.68
-9.18
-6.23
-1.41
3.23
6.24
7.02
5.93
4.01
2.27
1.48
2.01
3.67
5.93
8.21
10.03
11.12
11.52
11.35
10.84
10.24
9.69
9.23
8.88
8.75
9.07
10.05
11.60
13.35
14.56
14.35
12.02
7.34
0.70
-6.94
-14.32
-20.19
-23.64
-24.22
-22.06
-17.81
-12.46
-7.17
-2.86
-0.04
1.32
1.71
1.77
1.97
2.48
3.20
3.94
4.58
5.10
5.49
5.66
5.37
4.39
2.59
0.08
-2.87
-5.92
-8.75
-11.17
-13.03
-14.28
-14.96
-15.21
-15.22
-15.17
-15.10
-14.86
-14.23
-12.99
-11.16
-8.92
-6.56
-4.32
-2.34
-0.74
0.27
0.36
-0.80
-3.29
-6.75
-10.40
-13.32
-14.71
-14.26
-12.17
-8.94
-5.17
-1.27
2.52
6.06
9.09
11.16
11.75
10.58
7.77
3.93
0.06
-2.81
-3.91
-2.96
-0.26
3.45
7.19
10.02
11.25
10.62
8.24
4.62
0.47
-3.43
-6.46
-8.19
-8.54
-7.63
-5.83
-3.58
-1.36
0.43
1.53
1.81
1.31
0.22
-1.03
-1.94
-2.05
-1.12
0.71
2.95
4.97
6.30
6.79
6.62
6.14
5.66
5.30
4.95
4.44
3.62
2.49
1.18
-0.11
-1.18
-1.91
-2.29
-2.42
-2.45
-2.51
-2.62
-2.63
-2.25
-1.20
0.67
3.27
6.28
9.29
11.89
13.86
15.08
15.58
15.47
14.82
13.70
12.14
10.19
7.91
5.45
3.02
0.87
-0.82
-1.97
-2.68
-3.14
-3.59
-4.19
-5.00
-5.95
-6.93
-7.83
-8.65
-9.41
-10.14
-10.84
-11.43
-11.80
-11.86
-11.60
-11.09
-10.49
-9.90
-9.40
-8.99
-8.63
-8.26
-7.81
-7.20
-6.31
-5.02
-3.27
-1.16
1.05
2.96
4.19
4.46
3.73
2.23
0.33
-1.54
-2.96
-3.68
-3.57
-2.70
-1.30
0.32
1.79
2.82
3.23
3.02
2.33
1.41
0.47
-0.34
-0.97
-1.52
-2.12
-2.89
-3.83
-4.80
-5.58
-5.98
-5.91
-5.45
-4.84
-4.33
-4.07
-4.02
-4.00
-3.80
-3.25
-2.36
-1.27
-0.18
0.72
1.38
1.86
2.27
2.71
3.23
3.77
4.28
4.71
5.07
5.36
5.56
5.58
5.26
4.51
3.33
1.85
0.27
-1.21
-2.47
-3.50
-4.31
-4.95
-5.40
-5.63
-5.58
-5.23
-4.58
-3.66
-2.49
-1.09
0.51
2.20
3.78
5.01
5.71
5.82
5.48
4.93
4.45
4.23
4.29
4.52
4.72
4.73
4.47
4.00
3.44
2.91
2.46
2.09
1.74
1.38
1.00
0.67
0.48
0.46
0.58
0.70
0.70
0.49
0.07
-0.46
-1.00
-1.46
-1.83
-2.14
-2.39
-2.57
-2.64
-2.53
-2.22
-1.73
-1.17
-0.66
-0.32
-0.25
-0.46
-0.94
-1.62
-2.40
-3.20
-3.92
-4.48
-4.82
-4.86
-4.61
-4.10
-3.41
-2.62
-1.75
-0.76
0.41
1.77
3.25
4.68
5.88
6.67
6.92
6.56
5.59
4.12
2.36
0.65
-0.63
-1.18
-0.91
0.00
1.21
2.33
3.07
3.31
3.12
2.62
2.00
1.37
0.78
0.20
-0.43
-1.17
-2.02
-2.90
-3.67
-4.20
-4.42
-4.37
-4.13
-3.81
-3.46
-3.06
-2.61
-2.08
-1.56
-1.11
-0.77
-0.51
-0.24
0.11
0.50
0.79
0.83
0.48
-0.21
-1.05
-1.74
-2.04
-1.80
-1.07
0.01
1.25
2.46
3.55
4.43
5.04
5.34
5.28
4.88
4.19
3.35
2.47
1.68
1.01
0.48
0.04
-0.36
-0.75
-1.14
-1.50
-1.77
-1.84
-1.64
-1.13
-0.40
0.39
1.10
1.58
1.82
1.87
1.78
1.56
1.18
0.55
-0.36
-1.48
-2.65
-3.64
-4.21
-4.21
-3.62
-2.59
-1.40
-0.31
0.49
1.07
1.71
2.83
4.76
7.62
11.19
14.99
18.44
20.99
22.31
22.32
21.17
19.17
16.69
14.10
11.66
9.52
7.71
6.23
5.06
4.21
3.71
3.56
3.69
4.00
4.39
4.78
5.14
5.48
5.74
5.81
5.52
4.70
3.24
1.10
-1.60
-4.65
-7.72
-10.41
-12.30
-13.18
-13.03
-12.15
-10.98
-9.95
-9.25
-8.79
-8.29
-7.48
-6.27
-4.80
-3.34
-2.13
-1.28
-0.79
-0.54
-0.46
-0.50
-0.62
-0.78
-0.87
-0.81
-0.57
-0.19
0.24
0.62
0.91
1.06
1.07
0.90
0.52
-0.06
-0.75
-1.40
-1.85
-2.01
-1.89
-1.63
-1.41
-1.38
-1.62
-2.10
-2.76
-3.45
-4.05
-4.41
-4.43
-4.05
-3.33
-2.40
-1.46
-0.66
-0.05
0.41
0.83
1.25
1.64
1.90
1.96
1.84
1.61
1.38
1.15
0.85
0.40
-0.23
-0.91
-1.43
-1.58
-1.26
-0.57
0.27
1.02
1.45
1.48
1.10
0.43
-0.35
-1.04
-1.47
-1.56
-1.37
-1.03
-0.73
-0.58
-0.62
-0.79
-1.03
-1.31
-1.60
-1.87
-2.04
-1.97
-1.57
-0.84
0.06
0.92
1.56
1.92
2.09
2.21
2.41
2.72
3.13
3.59
4.08
4.58
5.03
5.35
5.50
5.51
5.52
5.72
6.24
7.06
7.99
8.72
8.98
8.57
7.46
5.76
3.68
1.47
-0.59
-2.26
-3.39
-3.98
-4.13
-3.97
-3.69
-3.39
-3.14
-3.02
-3.06
-3.28
-3.68
-4.16
-4.60
-4.93
-5.10
-5.14
-5.10
-4.98
-4.77
-4.44
-4.02
-3.56
-3.16
-2.85
-2.63
-2.41
-2.09
-1.62
-1.04
-0.46
-0.01
0.21
0.14
-0.18
-0.69
-1.25
-1.65
-1.73
-1.36
-0.54
0.60
1.79
2.73
3.18
3.05
2.40
1.44
0.41
-0.50
-1.11
-1.34
-1.15
-0.57
0.27
1.15
1.87
2.22
2.18
1.82
1.33
0.84
0.40
-0.00
-0.42
-0.84
-1.18
-1.32
-1.20
-0.83
-0.32
0.21
0.64
0.94
1.12
1.24
1.33
1.40
1.42
1.36
1.19
0.95
0.70
0.53
0.51
0.62
0.77
0.83
0.74
0.50
0.27
0.21
0.44
0.92
1.46
1.83
1.87
1.62
1.23
0.93
0.84
0.97
1.21
1.43
1.62
1.82
2.14
2.66
3.34
4.05
4.62
4.92
4.88
4.53
3.93
3.21
2.48
1.86
1.41
1.11
0.93
0.79
0.64
0.41
0.06
-0.42
-1.06
-1.80
-2.57
-3.23
-3.71
-3.96
-4.06
-4.13
-4.28
-4.58
-4.95
-5.28
-5.45
-5.36
-5.06
-4.64
-4.25
-4.00
-3.91
-3.94
-3.98
-3.97
-3.86
-3.68
-3.43
-3.13
-2.75
-2.28
-1.73
-1.17
-0.64
-0.21
0.11
0.30
0.36
0.32
0.24
0.23
0.38
0.74
1.24
1.73
2.03
2.05
1.83
1.50
1.22
1.05
0.97
0.90
0.80
0.67
0.55
0.49
0.47
0.45
0.41
0.36
0.34
0.34
0.33
0.27
0.15
0.03
-0.05
-0.09
-0.15
-0.35
-0.73
-1.19
-1.56
-1.66
-1.45
-1.02
-0.58
-0.28
-0.13
-0.03
0.16
0.49
0.86
1.11
1.15
0.96
0.65
0.36
0.22
0.23
0.32
0.38
0.37
0.30
0.26
0.31
0.45
0.61
0.68
0.58
0.36
0.12
-0.02
0.01
0.14
0.28
0.28
