1587643240.00
64.000000
-0.00
-0.00
-0.00
-0.00
-0.00
-0.00
-0.00
-0.00
-0.00
-0.00
0.00
0.01
0.01
-0.00
-0.03
-0.05
-0.05
0.00
0.13
0.36
0.66
1.01
1.37
1.72
2.06
2.40
2.79
3.24
3.80
4.42
5.06
5.66
6.20
6.68
7.15
7.68
8.31
9.14
10.09
11.04
11.88
12.56
13.14
13.76
14.65
15.96
17.91
20.32
22.90
25.38
27.58
29.57
31.68
34.32
37.81
42.54
48.15
54.10
59.83
64.97
69.58
74.14
79.34
85.71
93.76
103.00
112.62
121.73
129.77
136.75
143.30
150.75
157.77
166.64
177.95
191.79
206.97
220.57
228.25
225.36
208.53
176.87
132.76
80.05
23.07
-34.94
-92.44
-149.16
-205.23
-260.37
-313.74
-363.87
-409.83
-450.91
-486.50
-515.74
-537.23
-549.22
-549.96
-538.37
-514.21
-478.67
-433.88
-382.45
-327.02
-269.84
-212.63
-156.66
-102.95
-52.37
-5.90
35.58
71.43
101.35
125.50
144.38
158.69
169.15
176.37
180.75
182.57
182.07
179.51
175.23
169.65
163.18
156.15
148.81
141.30
133.69
126.02
118.33
110.69
103.16
95.80
88.68
81.83
75.25
68.95
62.95
57.25
51.86
46.78
42.03
37.59
33.45
29.61
26.07
22.81
19.83
17.11
14.67
12.48
10.54
8.83
7.35
6.07
4.97
4.05
3.27
2.62
2.09
1.65
1.30
1.01
0.79
0.61
0.47
0.37
0.29
0.23
0.19
0.16
0.15
0.15
0.16
0.18
0.20
0.23
0.27
0.31
0.35
0.40
0.44
0.49
0.54
0.59
0.65
0.71
0.77
0.83
0.90
0.98
1.06
1.15
1.26
1.37
1.50
1.64
1.80
1.98
2.19
2.41
2.66
2.93
3.23
3.57
3.93
4.33
4.77
5.24
5.76
6.31
6.91
7.55
8.23
8.96
9.73
10.56
11.43
12.35
13.30
14.32
15.39
16.53
17.73
19.00
20.30
21.63
22.92
24.09
25.05
25.68
25.84
25.42
24.32
22.47
19.85
16.52
12.52
8.04
3.27
-1.59
-6.31
-10.66
-14.47
-17.59
-19.94
-21.50
-22.29
-22.41
-21.96
-21.05
-19.75
-18.16
-16.35
-14.39
-12.35
-10.25
-8.18
-6.19
-4.26
-2.35
-0.40
1.64
3.79
6.05
8.41
10.72
12.89
14.91
16.83
18.73
20.67
22.66
24.69
26.75
28.52
29.90
30.96
31.91
33.03
34.51
36.43
38.70
41.18
43.27
44.72
45.59
46.24
47.07
48.40
50.20
52.17
53.89
54.32
52.92
49.67
44.86
38.78
31.34
21.68
7.89
-7.88
-25.65
-45.65
-68.00
-92.50
-118.39
-144.22
-167.94
-187.30
-200.62
-208.10
-211.15
-211.99
-212.66
-214.07
-215.46
-214.84
-209.81
-198.68
-181.48
-159.30
-133.71
-106.23
-78.03
-50.04
-23.34
0.68
20.55
34.90
43.56
47.83
50.29
54.07
62.01
75.91
96.18
121.89
150.81
179.96
205.99
225.78
237.06
238.97
232.16
218.41
199.95
178.69
156.15
133.62
112.36
93.58
78.00
65.43
54.54
43.40
30.24
14.34
-3.55
-21.46
-36.93
-47.84
-52.97
-52.38
-47.26
-39.74
-32.28
-27.21
-25.94
-28.56
-33.69
-38.91
-41.39
-38.47
-28.15
-9.32
18.12
52.85
91.99
130.94
164.05
185.72
191.83
180.85
154.01
114.64
67.13
16.18
-33.95
-79.64
-118.34
-148.92
-171.84
-188.78
-201.85
-212.69
-222.30
-231.32
-240.72
-251.82
-265.62
-281.83
-298.20
-311.05
-316.55
-312.09
-297.01
-272.35
-240.19
-203.08
-163.98
-126.03
-92.21
-64.44
-42.59
-24.00
-4.07
21.81
55.89
96.46
138.00
173.30
196.57
206.03
204.57
198.05
192.35
190.54
192.00
193.60
192.17
186.53
178.01
168.91
160.43
151.33
138.41
118.61
91.43
60.09
30.96
11.21
5.70
15.00
34.97
58.58
78.62
90.65
94.77
95.55
99.95
114.29
141.55
180.06
224.18
266.54
300.80
323.54
334.77
336.87
332.83
324.81
313.60
299.02
280.64
258.56
233.37
206.03
177.24
146.88
113.85
76.52
33.72
-14.35
-65.81
-117.63
-166.58
-210.10
-246.52
-274.74
-293.78
-302.71
-301.46
-291.74
-277.70
-265.37
-260.78
-267.64
-285.73
-311.04
-337.57
-359.86
-374.88
-382.20
-382.83
-377.25
-364.27
-341.67
-308.07
-264.95
-217.35
-172.41
-136.62
-112.98
-99.71
-91.14
-80.20
-61.34
-32.06
7.13
54.04
106.34
162.27
220.24
277.83
331.03
374.71
403.92
415.88
411.07
393.17
367.66
339.96
313.91
291.13
271.27
252.78
233.86
213.06
189.70
163.99
136.77
109.12
82.01
55.79
30.16
4.12
-23.90
-55.85
-93.74
-138.90
-191.01
-247.20
-301.85
-347.54
-377.42
-387.65
-379.12
-357.12
-329.11
-301.57
-277.59
-256.42
-234.97
-210.40
-181.93
-151.19
-121.06
-94.02
-71.19
-52.43
-37.27
-25.52
-17.47
-13.17
-11.86
-11.93
-11.55
-9.56
-5.86
-1.07
4.37
10.82
19.27
30.41
43.37
55.30
61.92
59.23
45.23
20.96
-9.65
-41.00
-67.51
-85.03
-91.57
-87.20
-73.61
-53.49
-30.05
-6.56
14.08
29.86
40.07
45.40
47.60
48.96
51.45
56.30
63.84
73.54
84.09
93.26
97.98
94.74
80.59
54.46
17.93
-24.78
-68.18
-107.11
-138.21
-160.22
-173.36
-178.25
-175.19
-164.19
-145.51
-120.34
-91.01
-60.66
-32.37
-8.24
11.23
27.14
41.42
55.55
69.37
80.74
86.40
83.68
72.26
54.73
35.71
19.85
9.86
5.63
4.63
3.44
-0.79
-9.33
-21.87
-36.74
-51.33
-62.40
-66.50
-60.75
-43.87
-16.97
16.35
51.05
82.15
106.37
122.85
132.69
137.83
139.64
138.31
133.11
123.27
108.88
91.13
71.95
53.27
36.49
22.26
10.60
1.14
-6.71
-13.56
-20.01
-26.43
-32.75
-38.31
-42.06
-42.89
-40.09
-33.65
-24.19
-12.69
0.08
13.80
28.62
44.80
62.20
80.08
97.10
111.76
123.01
130.58
134.96
137.01
137.57
137.20
136.18
134.56
132.19
128.81
124.12
118.03
110.85
103.34
96.43
90.75
86.11
81.43
75.32
66.84
56.23
44.89
34.65
26.79
21.31
17.10
12.71
7.37
1.64
-2.73
-3.35
1.73
13.13
29.79
48.98
66.94
79.81
84.67
80.35
67.75
49.59
29.42
10.56
-4.82
-16.07
-23.90
-29.74
-35.12
-41.09
-48.03
-55.67
-63.32
-70.12
-75.21
-77.76
-77.12
-73.09
-66.05
-57.13
-47.90
-39.75
-33.19
-27.56
-21.43
-13.59
-3.97
5.89
13.28
15.33
10.18
-2.50
-21.45
-44.51
-69.22
-93.45
-115.71
-135.24
-151.91
-166.07
-178.29
-189.03
-198.44
-206.31
-212.17
-215.76
-217.18
-216.97
-215.76
-213.94
-211.33
-207.31
-200.93
-191.34
-178.10
-161.31
-141.54
-119.54
-95.89
-70.97
-45.16
-19.38
4.59
24.36
37.81
44.24
45.03
43.07
41.44
42.01
45.02
49.89
56.72
66.73
81.39
100.66
122.02
141.54
156.62
168.37
181.68
202.28
232.68
269.72
305.81
333.32
349.24
356.76
362.87
373.32
388.52
402.77
407.39
395.23
363.81
315.77
257.04
195.02
137.35
91.50
63.93
58.32
73.38
101.96
132.91
154.83
160.23
147.72
121.06
86.38
49.36
14.09
-16.33
-38.91
-50.92
-51.29
-42.17
-29.16
-19.41
-18.68
-28.97
-47.94
-70.23
-90.32
-104.62
-112.57
-116.16
-118.71
-123.45
-132.39
-145.68
-161.44
-176.21
-185.76
-186.38
-176.20
-156.19
-130.21
-104.18
-84.53
-76.37
-82.00
-100.03
-125.75
-152.68
-175.05
-190.18
-199.78
-209.20
-224.93
-251.57
-289.50
-334.66
-380.36
-419.69
-447.91
-463.30
-466.65
-459.81
-444.51
-421.92
-392.73
-357.73
-318.23
-276.07
-233.49
-192.55
-154.58
-120.10
-89.17
-61.92
-38.83
-20.15
-5.04
8.99
25.49
47.11
73.62
100.98
122.60
132.33
127.58
110.71
87.59
64.41
44.46
27.14
9.40
-11.10
-33.67
-54.23
-67.31
-68.74
-57.59
-36.13
-8.20
22.82
55.13
88.19
121.32
152.68
179.13
197.28
204.92
201.89
190.01
172.07
150.79
127.81
103.77
78.69
52.69
26.49
1.44
-20.81
-38.78
-51.65
-59.43
-62.79
-62.69
-59.94
-54.91
-47.59
-37.70
-25.00
-9.47
8.59
28.59
49.78
71.36
92.83
114.09
135.48
157.39
179.66
200.88
218.08
227.35
225.18
210.09
183.63
150.21
115.57
84.82
60.87
44.03
32.87
25.56
20.88
18.56
18.96
22.32
28.54
37.26
48.08
60.77
75.15
91.08
108.55
127.41
147.08
166.12
182.35
193.45
197.94
195.68
187.90
176.55
162.89
146.32
124.71
95.84
59.20
17.29
-25.09
-62.29
-89.36
-103.78
-106.16
-99.64
-88.45
-76.56
-66.53
-60.03
-58.06
-60.20
-64.95
-70.34
-74.54
-76.20
-75.30
-72.86
-71.28
-73.03
-77.91
-82.60
-82.40
-73.54
-54.86
-28.79
0.37
27.31
41.88
37.01
14.27
-16.69
-45.23
-62.45
-69.62
-68.87
-62.15
-51.36
-39.40
-29.40
-24.86
-28.41
-40.09
-57.44
-75.72
-91.04
-101.76
-107.52
-108.49
-105.08
-97.71
-86.74
-72.96
-57.00
-40.04
-23.42
-7.67
7.35
21.64
34.58
45.14
52.18
55.36
54.73
50.74
44.45
37.34
30.84
25.92
22.76
20.63
18.30
14.37
8.00
-0.32
-8.82
-14.99
-16.53
-12.09
-1.91
12.17
26.92
38.72
44.74
43.83
36.87
26.46
16.16
9.51
8.98
15.22
26.73
40.24
51.66
57.41
55.63
46.89
33.98
20.91
11.44
7.96
10.82
18.54
28.53
37.89
44.20
45.94
42.77
35.50
25.70
15.17
5.32
-3.18
-10.61
-18.07
-27.01
-38.41
-51.94
-65.55
-75.71
-78.58
-71.57
-54.65
-30.80
-5.14
16.72
30.50
34.36
29.07
17.45
3.02
-11.06
-22.74
-31.02
-35.46
-35.67
-31.20
-21.97
-8.94
5.52
18.09
25.78
27.07
22.48
14.25
5.24
-1.99
-5.48
-3.64
5.26
22.91
50.34
87.17
131.53
180.47
230.86
280.14
326.09
366.38
398.15
418.19
423.88
414.27
390.72
356.73
317.00
276.08
237.23
201.68
168.73
136.32
101.78
62.17
14.77
-42.27
-109.00
-182.58
-256.94
-323.70
-374.12
-402.03
-406.25
-391.15
-364.65
-334.95
-307.77
-285.53
-268.01
-253.03
-237.59
-219.18
-196.87
-171.24
-143.93
-117.03
-92.27
-69.79
-46.86
-18.83
17.35
59.57
100.19
128.97
137.23
121.39
84.79
38.03
-4.09
-27.84
-25.31
4.39
56.54
122.94
193.60
254.13
287.98
287.66
261.51
226.19
194.47
170.74
153.65
140.53
129.02
120.36
117.35
120.86
127.67
131.56
126.31
110.43
85.50
55.52
25.96
1.96
-14.10
-23.79
-31.28
-40.86
-55.17
-75.34
-100.97
-129.81
-157.74
-179.47
-189.78
-184.52
-161.67
-122.35
-71.53
-16.81
34.11
75.63
105.56
124.74
135.93
142.20
145.63
146.57
144.00
136.74
124.32
107.32
87.05
65.02
42.56
20.83
0.89
-16.14
-29.27
-38.27
-44.33
-49.94
-58.38
-72.97
-95.57
-125.82
-161.28
-198.26
-233.04
-262.61
-285.19
-300.22
-308.44
-310.96
-308.54
-301.33
-289.07
-271.71
-249.92
-225.30
-200.11
-177.24
-157.99
-141.12
-123.56
-102.69
-78.21
-52.17
-27.42
-5.56
11.90
25.97
39.34
54.27
70.53
85.99
99.02
109.77
119.33
123.07
115.98
96.50
68.00
36.50
7.97
-13.69
-27.87
-37.29
-53.83
-85.76
-131.55
-181.25
-224.60
-256.99
-279.97
-298.60
-318.65
-354.77
-416.65
-502.86
-602.31
-701.91
-792.09
-867.21
-924.98
-900.72
-766.38
-549.17
-312.82
-108.88
45.44
155.49
232.74
286.23
318.42
326.17
307.94
270.69
228.15
193.49
172.47
164.14
164.31
168.43
165.60
149.56
122.67
93.99
75.20
72.77
87.00
114.09
149.24
183.15
210.87
232.95
253.88
281.85
320.42
367.08
415.66
460.22
493.86
515.50
527.47
533.47
541.80
556.60
576.11
594.61
606.51
606.34
594.83
574.55
513.55
400.18
246.92
83.35
-63.36
-167.44
-238.45
-285.51
-314.04
-326.71
-321.92
-298.80
-262.05
-221.57
-188.57
-173.58
-179.07
-202.44
-237.17
-270.14
-289.81
-290.81
-274.35
-245.39
-211.06
-175.67
-143.94
-121.54
-111.69
-116.44
-135.94
-166.72
-201.14
-229.91
-243.22
-235.80
-208.22
-164.16
-109.16
-49.18
11.04
68.76
122.79
173.92
222.71
268.49
309.70
344.06
369.54
385.48
392.57
391.86
384.00
368.17
342.54
305.73
258.06
201.50
138.97
73.48
7.77
-55.11
-111.32
-156.53
-187.28
-202.73
-205.51
-200.50
-192.70
-185.26
-178.61
-171.49
-162.38
-150.65
-136.44
-119.84
-100.04
-75.26
-43.66
-4.60
40.75
89.45
137.39
180.25
214.29
237.19
248.24
248.41
239.81
224.71
204.44
178.67
145.84
104.45
54.63
-1.24
-58.83
-113.14
-159.84
-195.80
-218.56
-225.64
-214.79
-185.39
-140.54
-87.90
-38.05
-0.98
17.45
17.28
3.04
-19.34
-45.09
-71.18
-94.89
-112.56
-120.11
-115.28
-100.14
-81.50
-68.34
-67.45
-79.92
-100.88
-122.62
-138.91
-147.81
-151.44
-153.41
-155.82
-157.89
-156.85
-150.09
-136.91
-118.99
-99.21
-79.89
-61.52
-42.43
-19.74
8.92
43.74
82.02
118.80
148.66
167.84
175.64
173.93
165.57
152.42
134.53
111.19
83.15
54.65
33.12
26.33
38.28
66.38
102.04
134.57
156.19
165.29
166.05
165.00
166.82
171.99
177.54
180.05
178.66
175.83
175.63
180.68
190.02
199.36
203.46
198.83
185.44
166.31
145.67
126.76
110.35
94.48
75.54
49.62
13.56
-34.46
-94.64
-165.18
-241.60
-316.72
-381.75
-428.36
-451.35
-450.40
-429.90
-396.88
-358.28
-319.04
-281.70
-247.46
-217.19
-191.65
-170.63
-152.17
-132.83
-109.35
-80.74
-49.48
-20.78
-0.13
8.98
6.62
-4.00
-18.27
-32.15
-43.38
-51.59
-57.56
-62.28
-66.32
-69.66
-71.97
-73.06
-73.23
-73.27
-74.15
-76.42
-79.68
-82.26
-81.63
-74.99
-60.35
-37.44
-8.16
23.60
53.07
76.12
90.49
96.34
95.75
91.39
85.54
79.38
73.23
67.27
62.08
58.71
58.21
60.89
65.94
71.59
75.85
77.30
75.55
71.15
65.12
58.36
51.45
44.60
37.97
31.96
27.36
25.29
26.89
32.93
43.61
58.55
76.83
97.02
117.14
134.67
146.87
151.40
147.10
134.60
116.34
95.87
76.71
61.27
50.33
43.28
38.88
36.18
34.87
35.28
37.66
41.71
46.32
49.88
50.87
48.51
43.08
35.87
28.91
24.53
24.87
31.33
44.13
62.16
83.02
103.62
120.81
132.17
136.55
134.16
126.21
114.49
100.90
87.21
75.05
65.94
61.23
62.13
69.32
82.48
99.77
117.70
131.57
136.84
130.73
113.27
87.40
57.56
27.85
0.39
-24.98
-49.75
-74.84
-99.48
-121.04
-136.26
-143.06
-141.64
-134.53
-125.46
-117.89
-113.63
-112.47
-112.66
-111.72
-107.59
-99.40
-87.92
-75.32
-64.30
-56.89
-53.52
-52.79
-52.24
-49.71
-44.47
-37.64
-31.39
-27.81
-27.95
-31.65
-38.12
-46.52
-56.20
-66.39
-75.64
-81.67
-81.91
-74.62
-59.80
-39.53
-17.47
2.18
15.82
21.44
18.97
10.14
-2.19
-14.94
-25.65
-33.01
-36.78
-37.34
-35.23
-30.90
-24.70
-17.21
-9.38
-2.48
2.38
4.69
4.74
3.43
1.76
0.37
-0.56
-1.05
-0.93
0.48
4.20
11.15
21.65
35.07
50.05
64.85
77.94
88.38
95.81
100.36
102.35
102.15
100.12
96.56
91.77
86.04
79.71
73.10
66.53
60.15
53.94
47.75
41.40
34.82
28.20
21.83
15.96
10.58
5.36
-0.17
-6.27
-12.56
-17.81
-20.18
-17.89
-10.06
2.75
18.59
34.76
48.92
59.90
68.05
74.71
81.34
88.58
95.91
101.93
105.11
104.58
100.51
94.01
86.62
79.81
74.56
71.08
68.47
64.44
55.34
36.93
5.86
-38.57
-93.32
-151.72
-205.26
-246.17
-269.67
-275.11
-265.37
-245.13
-218.91
-189.93
-159.95
-130.12
-101.90
-77.41
-58.99
-48.06
-44.11
-44.45
-45.09
-42.26
-34.03
-21.07
-6.29
6.52
14.40
16.33
13.37
7.85
2.15
-2.11
-4.39
-4.90
-4.22
-2.85
-1.16
0.82
3.26
6.48
10.79
16.42
23.37
31.21
39.04
45.68
50.17
52.12
51.87
50.22
47.90
45.25
42.04
37.80
32.30
25.81
19.16
13.33
8.85
5.39
1.76
-3.47
-11.12
-20.79
-31.03
-40.02
-46.55
-50.46
-52.61
-54.00
-54.87
-54.31
-50.67
-42.57
-29.91
-14.13
2.31
16.97
28.36
36.20
41.16
44.17
46.01
47.20
48.12
49.19
50.73
52.75
54.71
55.59
54.35
50.38
43.96
36.13
28.26
21.43
16.04
11.60
7.07
1.38
-5.93
-14.47
-23.00
-29.86
-33.68
-33.73
-30.04
-23.18
-13.85
-2.68
9.60
22.00
33.14
41.54
46.34
47.74
46.78
44.34
40.26
33.20
21.66
5.50
-13.12
-30.22
-41.68
-45.32
-41.93
-34.64
-27.14
-21.75
-18.71
-16.83
-14.94
-13.06
-12.41
-14.44
-19.60
-26.66
-33.12
-36.27
-34.50
-27.99
-18.75
-9.64
-3.12
-0.33
-0.75
-2.67
-3.99
-3.09
0.66
6.72
13.70
19.76
23.14
22.78
18.79
12.64
7.00
4.86
8.43
18.14
32.25
47.28
59.22
64.91
63.21
55.28
44.18
33.74
27.37
27.16
33.50
45.26
60.37
76.62
92.34
106.70
119.72
132.11
144.73
158.11
171.90
184.51
193.33
195.63
189.99
177.38
161.18
145.67
133.97
126.40
120.42
112.30
99.43
81.89
62.26
43.78
28.09
14.11
-1.34
-21.68
-48.43
-80.13
-112.56
-139.93
-157.05
-161.10
-152.79
-136.73
-120.38
-111.77
-116.51
-135.24
-162.81
-189.70
-205.50
-202.68
-178.80
-136.37
-81.00
-19.24
42.68
98.97
144.11
173.45
184.54
178.38
159.29
133.41
105.80
78.42
49.88
16.96
-23.23
-71.76
-127.62
-188.02
-249.15
-306.51
-354.77
-388.29
-402.34
-395.02
-368.49
-328.83
-284.28
-242.40
-207.92
-181.83
-162.33
-146.89
-133.89
-123.33
-116.04
-112.15
-109.97
-106.04
-96.29
-77.73
-49.97
-15.08
23.03
59.74
91.02
114.24
128.74
135.82
138.19
139.04
141.02
145.46
152.29
160.48
168.86
176.58
183.18
188.31
191.48
191.87
188.41
179.87
164.99
142.72
112.55
75.01
31.94
-13.63
-58.14
-98.65
-133.62
-162.93
-187.23
-207.10
-222.60
-233.65
-240.78
-245.55
-250.34
-257.30
-267.20
-278.86
-289.54
-296.03
-295.80
-287.87
-272.80
-252.00
-227.00
-199.19
-169.78
-139.89
-110.63
-82.82
-56.88
-32.73
-9.79
12.71
35.38
58.45
81.90
105.47
128.89
151.51
171.89
188.29
198.99
202.67
198.92
188.53
173.53
157.34
143.46
134.19
131.03
134.31
142.54
152.73
161.28
165.28
164.46
160.34
154.34
148.84
146.20
146.91
149.55
151.52
150.21
145.48
138.27
128.77
119.76
116.37
123.05
141.75
170.47
203.10
232.93
253.02
256.55
243.03
218.39
190.47
165.99
148.37
125.67
90.52
56.62
27.46
-1.74
-30.73
-56.53
-74.15
-78.31
-66.01
-36.92
3.09
40.75
63.65
65.00
44.30
7.47
-35.67
-75.06
-102.28
-114.14
-114.69
-110.37
-107.73
-113.04
-130.23
-159.33
-195.88
-230.81
-254.18
-259.79
-245.53
-214.23
-173.38
-132.12
-97.87
-74.11
-59.78
-51.29
-45.44
-39.79
-33.06
-25.05
-16.15
-7.05
1.15
6.88
8.07
2.58
-10.50
-30.15
-53.65
-77.20
-97.11
-110.74
-117.17
-117.17
-112.64
-105.84
-98.67
-92.26
-87.14
-83.64
-82.24
-83.57
-87.90
-94.72
-102.58
-109.43
-113.31
-112.96
-107.99
-98.69
-85.66
-69.48
-50.40
-28.37
-3.13
25.41
56.51
88.35
118.07
142.45
158.92
166.54
166.40
161.25
154.56
149.20
146.54
146.06
145.69
142.52
133.71
117.24
92.45
60.11
22.14
-18.93
-60.47
-100.05
-135.32
-163.96
-183.85
-193.39
-192.17
-181.21
-162.62
-138.95
-112.27
-83.77
-53.99
-23.54
6.35
33.75
56.54
73.19
83.33
87.65
87.58
84.61
80.05
74.78
69.29
63.59
57.38
50.29
42.26
33.97
26.72
22.03
20.84
22.93
26.76
30.13
31.18
29.32
25.54
21.97
20.94
23.98
31.23
41.64
53.55
65.51
76.60
86.43
94.67
100.78
104.03
103.85
100.32
94.21
86.68
78.69
70.48
61.41
50.42
36.58
19.72
0.68
-18.82
-36.71
-51.25
-61.39
-66.93
-68.22
-65.73
-59.62
-49.76
-35.98
-18.43
2.27
25.12
49.11
73.52
97.88
121.72
144.25
164.23
180.16
190.63
194.74
192.24
183.53
169.64
152.15
133.28
115.60
101.65
93.12
90.20
91.37
93.79
94.29
90.38
81.10
67.10
50.19
32.60
16.28
2.52
-8.18
-15.94
-21.29
-24.93
-27.46
-29.23
-30.23
-30.18
-28.82
-26.25
-23.19
-20.90
-20.69
-23.35
-28.61
-35.22
-41.57
-46.51
-50.13
-53.80
-59.67
-69.67
-84.60
-103.50
-123.80
-142.03
-154.88
-160.23
-157.68
-148.46
-134.82
-119.24
-103.75
-89.58
-77.21
-66.50
-56.90
-47.60
-37.71
-26.64
-14.50
-2.15
9.04
17.95
24.20
28.34
31.50
34.69
38.39
42.34
45.86
48.19
48.50
45.92
39.42
28.24
12.42
-6.69
-26.59
-44.43
-58.12
-67.22
-73.05
-77.98
-84.25
-93.01
-103.87
-115.27
-125.29
-132.68
-137.31
-140.14
-142.61
-145.79
-149.88
-153.90
-156.10
-154.60
-148.07
-136.18
-119.54
-99.43
-77.38
-54.81
-32.89
-12.40
6.26
23.00
37.60
49.41
56.89
57.97
50.64
34.02
9.00
-21.63
-54.03
-84.47
-110.48
-131.19
-146.86
-157.91
-164.10
-164.50
-158.19
-145.20
-127.06
-106.48
-86.49
-69.30
-55.59
-44.64
-34.85
-24.57
-12.75
0.94
15.96
31.13
44.78
55.10
60.63
60.63
55.26
45.54
32.84
18.51
3.61
-11.02
-24.60
-36.33
-45.34
-50.96
-52.93
-51.53
-47.53
-41.92
-35.73
-29.81
-24.69
-20.66
-17.79
-15.97
-14.75
-13.20
-9.64
-1.78
12.73
35.39
65.93
101.68
137.90
168.87
189.42
196.47
189.70
171.55
146.38
119.40
95.47
78.16
69.08
67.66
71.30
76.33
79.19
77.63
71.39
61.99
51.93
43.78
39.56
40.33
46.12
55.61
66.07
73.84
75.42
68.96
55.21
37.38
19.90
6.69
-0.15
-0.54
4.19
12.28
22.12
32.20
41.03
47.27
50.21
50.19
48.54
46.82
45.93
45.64
44.84
42.40
37.91
31.99
25.71
19.92
14.55
8.93
2.50
-4.27
-9.69
-11.47
-7.95
0.75
12.48
23.89
31.93
35.24
34.49
31.78
29.21
27.74
26.86
25.26
21.91
16.84
11.06
5.89
1.99
-1.06
-4.56
-9.86
-17.63
-27.42
-37.87
-47.25
-54.11
-57.53
-57.21
-53.30
-46.24
-36.76
-25.79
-14.48
-3.81
5.67
13.96
21.37
27.92
32.92
34.92
32.31
24.18
10.98
-5.53
-22.96
-39.24
-53.34
-65.26
-75.43
-83.96
-90.28
-93.45
-93.02
-89.64
-85.31
-82.71
-84.11
-90.44
-100.77
-112.70
-123.36
-130.64
-133.88
-133.84
-131.90
-129.04
-125.21
-119.29
-109.84
-95.87
-77.51
-56.00
-33.27
-11.42
7.76
22.94
33.21
38.11
37.65
32.49
24.07
14.45
5.92
0.42
-1.09
1.10
5.49
9.86
11.95
10.22
4.32
-4.83
-15.18
-24.19
-29.39
-29.05
-22.58
-10.55
5.48
23.57
41.88
59.05
74.26
87.01
96.93
103.66
107.06
107.37
105.27
101.68
97.41
92.74
87.48
81.12
73.30
64.10
54.05
43.89
34.14
24.83
15.55
5.72
-4.98
-16.21
-26.98
-35.87
-41.54
-43.25
-41.16
-36.27
-30.08
-23.90
-18.29
-12.92
-6.73
1.32
11.53
23.12
34.37
43.29
48.42
49.34
46.70
41.72
35.57
28.94
21.96
14.52
6.60
-1.51
-9.32
-16.37
-22.51
-28.00
-33.36
-39.09
-45.21
-51.16
-55.77
-57.74
-56.12
-50.77
-42.47
-32.52
-22.15
-12.04
-2.27
7.38
17.03
26.51
35.45
43.63
51.17
58.40
65.45
71.89
76.75
78.84
77.42
72.54
65.00
56.01
46.75
38.05
30.39
23.96
18.75
14.51
10.81
7.20
3.56
0.28
-1.66
-1.01
3.16
11.04
21.88
34.32
46.95
58.75
69.30
78.53
86.28
92.14
95.48
95.84
93.27
88.36
82.08
75.30
68.57
62.07
55.91
50.29
45.61
42.22
40.19
39.08
38.12
36.53
33.74
29.67
24.68
19.47
15.03
12.45
12.80
16.89
25.14
37.45
53.25
71.58
91.17
110.56
128.22
142.92
154.17
162.49
169.32
176.41
184.99
194.99
204.93
212.40
215.07
211.51
201.76
187.02
169.07
149.41
128.73
106.74
82.32
54.04
20.73
-17.64
-59.45
-101.34
-138.87
-167.70
-184.96
-190.08
-184.82
-172.43
-156.34
-139.16
-122.32
-106.39
-91.82
-79.29
-69.64
-63.24
-59.46
-56.56
-52.26
-44.74
-33.46
-19.67
-6.04
4.33
8.94
6.64
-2.33
-16.96
-36.17
-59.36
-86.24
-116.44
-148.92
-181.76
-212.32
-237.48
-254.12
-259.51
-251.86
-231.03
-198.98
-159.93
-119.72
-84.51
-59.10
-45.55
-42.69
-46.81
-53.28
-58.21
-59.68
-57.81
-54.07
-50.04
-46.72
-44.39
-42.97
-42.66
-44.03
-47.64
-53.44
-60.41
-66.65
-70.22
-69.83
-65.19
-56.92
-45.94
-32.97
-18.31
-1.99
15.84
34.53
52.82
69.02
81.49
89.19
92.04
90.99
87.58
83.39
79.47
76.16
73.19
70.02
66.11
61.06
54.63
46.70
37.34
26.86
15.93
5.58
-3.03
-8.83
-11.33
-10.68
-7.74
-3.63
0.76
5.17
10.08
16.47
25.37
37.29
52.01
68.64
85.99
103.06
119.39
135.07
150.49
165.98
181.37
195.92
208.38
217.34
221.72
220.96
215.07
204.36
189.01
168.91
143.64
113.06
77.86
40.02
2.62
-30.87
-57.69
-76.41
-87.17
-91.20
-90.28
-86.26
-80.98
-76.21
-73.40
-73.33
-75.70
-79.31
-82.65
-84.74
-85.57
-85.85
-86.34
-87.27
-88.32
-89.06
-89.28
-89.07
-88.36
-86.56
-82.66
-75.74
-65.83
-54.07
-42.41
-32.69
-25.86
-21.78
-19.58
-18.36
-17.65
-17.33
-17.25
-16.96
-15.82
-13.42
-9.98
-6.45
-4.07
-3.76
-5.68
-9.24
-13.65
-18.57
-24.36
-31.93
-42.05
-54.80
-69.31
-84.15
-97.91
-109.71
-119.32
-126.97
-133.09
-138.09
-142.36
-146.12
-149.24
-151.16
-150.90
-147.57
-140.89
-131.54
-120.78
-109.86
-99.11
-87.81
-74.66
-58.69
-40.06
-20.14
-0.93
16.02
30.11
41.71
51.45
59.48
65.23
67.71
66.20
60.90
53.02
44.38
36.63
30.71
26.50
23.15
19.59
15.05
9.30
2.50
-5.00
-13.00
-21.29
-29.68
-37.81
-45.23
-51.51
-56.32
-59.46
-60.68
-59.64
-55.93
-49.29
-39.80
-28.11
-15.32
-2.84
8.08
16.64
22.69
26.67
29.38
31.60
33.73
35.64
36.59
35.41
30.79
21.65
7.85
-9.29
-26.66
-39.95
-45.03
-39.77
-25.12
-4.94
15.70
32.67
44.27
51.25
55.43
58.20
59.69
59.16
56.00
50.56
44.10
37.86
32.31
26.76
19.87
10.52
-1.58
-15.81
-31.01
-45.88
-59.38
-70.84
-79.93
-86.71
-91.60
-95.27
-98.34
-101.19
-103.72
-105.56
-106.43
-106.50
-106.39
-106.84
-108.01
-109.06
-108.23
-103.42
-93.21
-77.45
-57.24
-34.40
-10.64
12.96
35.88
57.74
77.99
95.82
110.50
121.84
130.40
137.27
143.59
149.99
156.32
161.80
165.38
166.24
164.06
159.06
151.73
142.53
131.69
119.28
105.58
91.25
77.39
65.24
55.74
49.18
45.29
43.68
44.22
47.32
53.47
62.80
74.49
86.84
97.61
104.74
106.68
102.50
91.75
74.40
51.13
23.59
-5.49
-32.77
-55.27
-71.39
-81.64
-88.32
-94.68
-103.42
-115.58
-129.96
-143.65
-153.21
-156.02
-151.31
-140.14
-124.64
-106.91
-88.23
-69.03
-49.52
-30.35
-12.86
1.45
11.77
18.50
23.10
27.15
31.34
35.05
36.64
34.54
28.09
17.99
6.00
-5.85
-15.98
-23.73
-29.32
-33.54
-37.31
-41.27
-45.53
-49.74
-53.46
-56.66
-59.96
-64.48
-71.16
-79.83
-88.83
-95.29
-96.27
-90.01
-76.74
-58.55
-38.48
-19.27
-2.50
11.46
22.98
32.47
39.96
45.22
48.06
48.56
47.17
44.41
40.59
35.70
29.66
22.62
15.32
8.99
5.02
4.36
7.15
12.48
18.60
23.38
24.94
22.36
16.13
8.34
2.21
1.13
7.59
22.24
43.77
69.38
95.89
120.65
142.10
159.61
173.04
182.28
187.14
187.45
183.28
175.05
163.50
149.47
133.87
117.53
101.31
85.89
71.69
58.67
46.45
34.47
22.46
10.61
-0.28
-9.04
-14.46
-15.65
-12.23
-4.49
6.68
19.83
33.19
44.97
53.57
57.86
57.22
51.45
40.75
25.51
6.46
-15.15
-37.32
-57.22
-71.56
-77.46
-73.38
-59.91
-39.71
-16.74
5.22
23.71
38.24
50.09
61.45
74.43
90.12
108.24
127.22
145.05
160.36
173.29
185.59
199.94
218.69
242.61
270.33
298.46
322.54
338.21
342.28
333.28
311.64
279.49
240.07
197.12
154.10
113.76
77.84
47.28
22.47
3.29
-10.79
-20.80
-27.88
-32.76
-35.43
-35.19
-31.27
-23.47
-12.72
-1.16
8.40
13.38
12.18
4.68
-8.00
-24.00
-41.55
-59.53
-77.62
-95.98
-114.71
-133.38
-150.95
-166.05
-177.46
-184.69
-188.33
-190.27
-193.69
-202.63
-221.00
-250.68
-289.52
-330.46
-362.73
-375.21
-360.72
-319.23
-257.90
-188.27
-121.89
-66.91
-26.55
0.16
16.77
27.82
37.76
49.95
65.63
83.14
97.93
103.81
95.34
70.23
30.69
-16.90
-63.70
-101.00
-122.61
-126.22
-113.55
-89.20
-58.76
-26.84
3.87
32.16
56.96
76.14
86.71
86.02
73.48
51.20
23.41
-5.22
-31.16
-52.68
-69.44
-81.65
-89.50
-93.43
-94.72
-95.88
-100.29
-111.18
-130.65
-158.89
-194.15
-232.88
-270.10
-300.14
-317.80
-319.88
-306.45
-281.18
-250.13
-219.31
-192.47
-170.13
-150.02
-129.03
-105.22
-78.98
-52.92
-30.89
-16.52
-12.08
-17.95
-32.49
-52.49
-73.72
-91.85
-103.29
-106.03
-99.95
-86.84
-69.96
-53.17
-40.06
-33.23
-33.70
-40.78
-52.68
-67.47
-83.61
-100.35
-117.21
-133.28
-146.60
-154.15
-152.65
-139.69
-114.78
-79.57
-37.21
8.81
55.46
100.35
141.33
176.13
202.39
218.37
223.84
220.49
211.73
201.70
194.18
191.56
194.36
201.33
209.91
216.95
219.49
215.57
204.64
187.70
167.01
145.55
126.22
111.16
101.17
95.42
91.67
87.10
79.35
67.47
51.88
33.93
14.95
-4.58
-24.93
-46.50
-69.07
-91.66
-112.72
-130.63
-144.07
-151.72
-151.73
-141.72
-119.90
-87.07
-48.09
-11.06
15.87
28.38
28.41
23.43
22.65
32.69
54.56
83.61
112.87
136.45
151.20
155.86
149.47
130.57
98.15
53.50
0.14
-55.36
-105.10
-142.47
-164.62
-173.20
-173.03
-169.40
-165.82
-165.30
-167.66
-169.60
-166.03
-153.12
-130.20
-100.11
-67.72
-38.16
-19.19
-16.05
-29.12
-53.41
-81.34
-106.45
-125.38
-138.26
-147.86
-162.61
-189.54
-230.13
-279.66
-330.69
-377.35
-416.81
-448.57
-440.68
-373.49
-250.27
-98.26
49.11
169.51
255.57
310.80
344.67
367.50
386.49
404.48
422.27
440.02
456.87
470.55
478.78
480.95
473.17
452.00
416.42
369.43
317.84
269.64
230.78
203.62
186.75
175.78
163.37
142.47
109.72
66.73
18.81
-27.39
-65.99
-93.26
-108.53
-114.71
-116.93
-119.84
-125.66
-133.72
-141.39
-145.42
-143.28
-133.86
-117.53
-95.99
-71.23
-45.14
-19.69
2.77
19.31
26.45
20.55
-1.28
-40.21
-94.02
-155.95
-215.42
-260.44
-281.32
-274.12
-241.55
-191.30
-132.62
-73.21
-17.93
30.35
69.34
96.46
109.42
107.34
91.55
65.23
32.19
-4.10
-40.86
-75.52
-105.67
-129.13
-144.52
-151.93
-153.16
-151.12
-149.03
-149.31
-152.82
-158.46
-163.00
-161.78
-149.83
-123.86
-83.87
-33.91
18.83
66.10
101.19
120.91
126.38
122.09
114.00
107.31
104.70
105.78
108.06
109.08
108.21
107.23
109.39
117.42
131.84
150.60
170.14
187.14
199.85
208.40
213.98
217.71
220.10
221.10
220.35
217.29
211.15
200.92
185.89
166.10
142.48
116.40
89.10
61.70
35.69
13.37
-2.53
-10.33
-11.04
-9.04
-10.56
-20.86
-41.32
-68.32
-94.84
-113.89
-121.71
-119.20
-111.03
-103.11
-100.01
-103.53
-112.47
-123.47
-132.32
-135.03
-128.52
-110.91
-81.86
-43.31
-0.05
40.36
68.84
77.22
60.85
20.57
-37.19
-101.89
-161.67
-206.22
-229.09
-229.01
-209.69
-178.46
-143.90
-113.20
-90.16
-74.64
-63.57
-53.05
-40.23
-24.10
-5.09
15.98
38.61
62.37
86.14
107.48
122.96
129.72
127.19
118.04
107.36
100.31
99.48
103.53
107.83
106.96
97.67
80.67
60.29
42.26
30.93
27.09
27.80
27.99
23.09
11.22
-5.81
-23.36
-35.81
-38.70
-30.28
-11.90
12.61
38.18
59.83
73.87
78.63
74.69
64.65
52.11
40.28
30.80
23.31
16.13
7.55
-2.96
-14.54
-25.55
-34.65
-41.60
-47.33
-53.63
-62.47
-75.42
-93.06
-114.30
-136.17
-154.27
-163.99
-162.19
-148.28
-124.13
-92.74
-56.60
-16.47
28.32
78.34
132.41
186.89
236.54
276.63
304.86
322.03
331.00
334.48
332.95
324.21
304.55
271.11
224.03
166.91
105.50
45.07
-11.81
-65.57
-117.93
-169.25
-216.59
-253.97
-274.78
-274.85
-254.41
-218.06
-172.76
-125.26
-80.51
-41.40
-9.25
15.58
33.79
47.21
58.52
70.12
82.92
95.51
104.64
106.62
98.81
80.52
53.07
19.36
-16.61
-50.08
-76.18
-90.59
-90.63
-75.96
-48.88
-13.93
23.09
56.08
79.67
89.91
85.15
66.54
37.95
5.46
-24.06
-44.54
-52.13
-45.91
-27.38
0.68
35.42
74.57
116.33
158.45
197.44
228.77
247.99
252.34
242.07
220.20
191.37
160.30
130.51
104.10
81.98
64.43
51.15
40.89
31.06
18.06
-1.35
-28.26
-60.39
-92.35
-117.61
-131.27
-132.13
-123.07
-109.46
-96.65
-87.85
-83.41
-81.66
-80.41
-78.20
-74.63
-69.96
-64.53
-58.47
-52.02
-45.59
-39.86
-35.65
-33.47
-33.29
-34.31
-35.11
-34.11
-30.17
-23.32
-15.08
-8.04
-5.08
-8.11
-17.26
-30.81
-45.86
-59.36
-69.18
-74.44
-75.33
-72.62
-67.27
-60.32
-53.04
-47.02
-44.00
-45.27
-51.06
-60.17
-70.32
-78.97
-84.42
-86.60
-87.15
-88.63
-93.25
-101.66
-112.32
-121.78
-125.88
-121.22
-106.37
-82.37
-52.48
-21.33
6.11
25.41
33.55
29.54
14.97
-6.03
-27.62
-43.72
-49.90
-44.74
-30.23
-10.75
8.54
23.58
32.53
35.81
35.41
33.77
32.73
33.06
34.53
36.26
37.33
37.12
35.58
33.10
30.40
28.25
27.26
27.62
28.78
29.27
26.77
18.84
3.96
-17.38
-42.20
-65.56
-81.98
-87.22
-79.70
-60.93
-34.91
-6.86
18.26
36.75
46.72
48.11
42.46
32.38
21.02
11.34
5.49
4.24
6.74
10.76
13.36
11.84
4.80
-7.28
-22.15
-36.59
-47.62
-53.54
-54.48
-52.12
-48.83
-46.71
-46.81
-48.92
-51.77
-53.58
-52.65
-47.85
-38.90
-26.40
-11.64
3.74
18.16
30.42
39.83
46.17
49.54
50.31
48.94
46.01
42.11
37.79
33.50
29.43
25.55
21.62
17.30
12.37
6.89
1.20
-4.28
-9.35
-14.26
-19.64
-26.09
-33.64
-41.32
-47.32
-49.54
-46.56
-38.24
-25.74
-11.01
4.14
18.56
31.81
43.62
53.28
59.73
62.03
60.12
54.89
47.72
39.19
28.58
14.33
-4.54
-27.27
-51.27
-73.37
-91.48
-105.51
-116.99
-127.62
-137.87
-146.70
-152.31
-153.39
-149.68
-141.61
-129.52
-113.05
-91.55
-64.89
-34.32
-2.33
27.93
53.53
72.13
82.03
82.30
73.06
55.98
34.35
12.89
-3.57
-11.54
-9.99
-0.68
12.67
25.88
35.89
41.55
43.45
43.01
41.38
38.85
35.05
29.61
22.71
15.24
8.34
2.77
-1.26
-3.75
-4.34
-1.64
6.56
22.38
46.54
77.28
110.14
138.96
158.10
164.68
159.96
148.86
137.71
131.55
132.13
137.75
144.71
149.45
150.13
146.72
140.08
130.83
118.94
104.12
86.27
65.58
42.08
15.46
-14.72
-48.35
-84.16
-119.89
-153.11
-181.99
-205.43
-222.53
-232.15
-233.13
-225.29
-210.51
-192.71
-176.25
-163.74
-154.56
-145.44
-132.59
-114.07
-90.83
-65.97
-42.97
-24.08
-9.78
0.75
8.81
15.71
22.80
31.44
42.80
57.13
73.26
88.71
100.45
106.22
105.54
100.33
94.44
92.50
98.03
111.74
130.87
150.20
164.30
170.07
168.16
162.36
157.57
157.28
162.00
169.23
174.59
173.28
161.06
135.05
94.51
41.90
-16.62
-71.83
-114.02
-136.38
-137.77
-123.30
-102.14
-83.52
-73.18
-71.82
-76.26
-82.17
-86.58
-88.76
-89.44
-89.25
-87.67
-82.99
-73.20
-56.91
-34.07
-5.98
25.02
56.11
84.64
108.73
127.48
140.95
149.73
154.47
155.59
153.55
149.31
144.69
142.01
143.15
148.44
156.17
163.07
165.65
161.73
151.36
136.85
121.67
108.90
100.09
95.05
92.67
91.94
92.71
95.43
100.43
107.00
113.11
116.00
113.06
102.72
84.51
58.90
26.80
-10.38
-50.59
-90.82
-127.22
-155.74
-173.14
-177.75
-169.93
-151.89
-127.18
-99.85
-73.55
-50.80
-32.80
-19.58
-10.42
-4.48
-1.16
-0.20
-1.73
-5.97
-13.12
-22.99
-34.74
-46.82
-57.31
-64.52
-67.60
-66.91
-63.75
-59.67
-55.55
-51.06
-44.85
-35.06
-20.31
-0.41
23.30
48.31
71.57
90.31
102.58
107.33
104.22
93.58
76.79
56.81
38.01
25.03
20.53
23.13
26.78
22.66
2.89
-35.24
-87.03
-141.49
-185.48
-208.83
-207.76
-185.23
-148.44
-105.23
-61.39
-20.14
16.68
46.96
67.68
75.75
69.62
50.85
24.19
-3.69
-26.40
-39.75
-42.73
-37.37
-27.64
-18.05
-12.56
-14.27
-25.50
-47.60
-80.26
-120.34
-161.33
-194.24
-210.24
-204.16
-176.90
-135.07
-87.90
-43.27
-5.25
25.54
49.43
65.41
70.83
63.43
44.05
17.78
-7.55
-24.94
-31.40
-29.18
-24.23
-22.98
-29.21
-42.52
-58.87
-72.44
-77.89
-72.12
-55.34
-30.90
-4.48
17.30
28.47
25.12
6.20
-26.11
-66.44
-107.00
-139.01
-154.99
-151.25
-129.41
-96.02
-60.18
-30.04
-9.98
0.25
4.18
6.09
8.62
11.85
14.01
13.05
8.20
0.25
-8.99
-17.77
-25.03
-30.49
-34.00
-34.96
-32.14
-24.21
-11.03
5.33
20.77
30.43
30.96
22.26
7.80
-6.89
-16.60
-18.56
-13.03
-2.40
10.49
23.55
35.64
46.14
54.27
59.01
59.44
55.17
46.50
34.20
19.27
2.74
-14.54
-31.90
-48.41
-62.62
-72.42
-75.41
-69.71
-54.82
-32.28
-5.51
21.02
43.01
57.37
62.71
59.00
47.23
29.28
7.97
-13.05
-29.91
-39.53
-40.65
-34.43
-23.90
-12.62
-3.19
3.42
7.66
10.25
11.28
10.13
6.75
3.23
4.20
15.59
41.51
80.98
126.58
166.58
189.57
189.56
168.59
135.30
100.31
71.02
49.15
31.39
12.82
-9.54
-34.61
-57.67
-72.84
-75.92
-66.60
-48.81
-29.53
-16.05
-13.16
-20.90
-34.38
-45.91
-48.51
-39.54
-21.93
-2.72
10.66
13.95
7.59
-4.85
-19.87
-36.39
-55.90
-80.64
-111.35
-145.91
-179.88
-208.29
-227.22
-234.39
-229.00
-211.49
-183.41
-147.74
-108.33
-68.83
-31.40
3.86
38.01
71.52
102.93
129.00
146.28
152.98
149.84
139.56
125.50
110.41
95.91
82.74
71.14
61.11
52.37
44.54
37.57
32.11
29.31
30.41
36.05
45.87
58.37
71.48
83.00
91.12
94.84
94.04
89.38
81.98
73.15
64.11
55.96
49.82
46.94
48.62
55.79
68.50
85.59
104.80
123.29
138.29
147.82
150.65
146.30
134.79
116.43
91.74
61.69
27.95
-6.84
-39.08
-64.77
-80.63
-85.40
-80.69
-70.59
-60.44
-55.01
-57.22
-67.52
-84.18
-104.12
-123.78
-139.92
-150.15
-153.31
-149.50
-139.99
-126.67
-111.40
-95.46
-79.44
-63.56
-48.05
-33.60
-21.19
-11.60
-4.79
0.24
5.12
11.35
19.43
28.44
36.38
41.12
41.40
37.47
30.93
23.87
17.96
13.65
10.26
6.40
0.63
-8.20
-20.70
-36.91
-56.17
-77.07
-97.59
-115.51
-128.98
-136.86
-138.82
-135.04
-125.92
-111.87
-93.44
-71.69
-48.43
-26.12
-7.37
5.90
13.06
14.98
13.58
11.04
8.98
7.93
7.53
7.01
5.84
3.96
1.67
-0.80
-3.67
-7.60
-13.33
-21.14
-30.52
-40.22
-48.70
-54.72
-57.75
-58.01
-56.32
-53.61
-50.48
-46.91
-42.33
-35.86
-26.78
-14.81
-0.28
15.94
32.73
48.97
63.76
76.54
87.06
95.26
101.14
104.66
105.73
104.38
100.78
95.49
89.27
82.91
76.90
71.22
65.53
59.41
52.75
45.87
39.43
33.97
29.69
26.32
23.31
20.29
17.35
15.04
14.12
15.16
18.19
22.64
27.61
32.07
35.21
36.57
36.08
33.90
30.38
25.94
20.93
15.66
10.39
5.39
0.92
-2.85
-5.91
-8.41
-10.64
-12.80
-14.86
-16.59
-17.60
-17.72
-17.17
-16.56
-16.66
-17.97
-20.37
-23.12
-25.06
-25.12
-22.72
-18.02
-11.77
-5.02
1.26
6.40
10.11
12.39
13.37
13.21
12.05
10.04
7.36
4.24
0.95
-2.24
-5.13
-7.58
-9.60
-11.34
-13.04
-15.01
-17.44
-20.30
-23.32
-26.06
-28.11
-29.25
-29.62
-29.68
-30.13
-31.69
-34.92
-40.05
-46.86
-54.71
-62.59
-69.35
-73.98
-75.85
-74.78
-70.94
-64.63
-56.09
-45.49
-33.03
-19.22
-4.92
8.70
20.59
30.07
37.03
41.78
44.83
46.59
47.28
47.03
46.03
44.57
43.02
41.58
40.26
38.80
36.90
34.36
31.21
27.71
24.15
20.70
17.25
13.42
8.75
2.91
-4.04
-11.52
-18.48
-23.66
-25.92
-24.55
-19.47
-11.24
-0.83
10.61
22.00
32.48
41.38
48.25
52.87
55.26
55.76
54.95
53.49
51.95
50.66
49.68
48.88
48.02
46.90
45.38
43.30
40.56
37.12
33.05
28.54
23.84
19.11
14.31
9.19
3.33
-3.59
-11.60
-20.30
-28.94
-36.54
-42.13
-45.01
-44.83
-41.59
-35.63
-27.53
-18.09
-8.33
0.58
7.50
11.55
12.42
10.46
6.60
2.06
-2.11
-5.32
-7.59
-9.34
-11.08
-13.05
-15.05
-16.54
-16.82
-15.28
-11.49
-5.16
3.89
15.56
29.19
43.51
56.85
68.00
76.86
84.77
93.81
105.66
120.52
136.80
151.74
162.63
167.89
167.43
162.36
154.15
143.93
132.21
118.83
103.26
84.93
63.62
39.82
14.89
-9.21
-30.51
-47.86
-61.38
-72.35
-82.61
-93.61
-105.87
-118.83
-131.35
-142.25
-150.92
-157.49
-162.60
-167.12
-171.58
-176.06
-180.14
-183.10
-184.34
-183.61
-181.10
-177.12
-171.89
-165.19
-156.54
-145.58
-132.68
-118.92
-105.30
-91.71
-76.49
-56.91
-30.83
1.83
38.54
75.20
108.08
135.50
158.11
177.55
194.68
208.63
217.20
218.66
213.33
203.95
194.47
188.01
185.25
184.30
181.92
175.31
163.60
148.18
131.75
116.88
104.76
94.85
85.50
75.01
62.60
48.83
35.21
23.49
14.93
9.79
7.36
6.32
5.25
3.24
0.26
-2.67
-3.98
-2.19
3.31
11.81
21.30
29.10
32.59
29.96
20.58
5.43
-12.67
-29.23
-38.78
-36.44
-19.72
10.21
48.42
87.75
121.19
144.00
154.77
154.90
147.21
134.56
119.16
102.51
85.81
69.95
55.40
41.81
28.03
12.56
-5.73
-26.96
-49.98
-72.79
-93.46
-111.26
-127.20
-143.81
-163.88
-188.82
-217.45
-245.94
-269.16
-282.83
-285.27
-278.01
-264.76
-249.47
-234.61
-220.49
-205.75
-188.86
-169.16
-147.26
-124.36
-101.43
-78.61
-55.47
-31.79
-8.33
12.97
29.74
40.23
44.11
42.45
37.00
29.16
19.55
8.14
-5.00
-19.12
-32.69
-44.07
-52.24
-57.25
-60.14
-62.16
-64.12
-65.87
-66.51
-64.88
-60.23
-52.65
-43.16
-33.46
-25.29
-19.86
-17.41
-17.15
-17.56
-16.74
-13.07
-5.44
6.33
21.46
38.16
53.96
66.19
72.69
72.31
65.21
52.68
36.71
19.43
2.70
-12.15
-24.37
-33.81
-40.81
-46.06
-50.19
-53.62
-56.30
-57.87
-58.00
-56.67
-54.30
-51.67
-49.47
-47.95
-46.66
-44.41
-39.60
-30.76
-17.14
0.87
21.73
43.13
62.70
78.61
89.94
96.61
98.98
97.60
93.06
86.28
78.57
71.52
66.46
63.95
63.47
63.67
63.02
60.40
55.48
48.49
40.02
30.65
20.86
11.16
2.10
-5.81
-12.31
-17.46
-21.60
-25.02
-27.64
-28.96
-28.24
-25.01
-19.41
-12.32
-5.01
1.27
5.82
8.67
10.41
11.88
13.67
15.95
18.36
20.18
20.63
19.11
15.49
10.10
3.73
-2.59
-7.86
-11.37
-12.92
-12.81
-11.72
-10.47
-9.74
-9.88
-10.94
-12.73
-15.02
-17.70
-20.71
-23.89
-26.85
-28.92
-29.32
-27.57
-23.63
-18.01
-11.48
-4.68
2.09
8.83
15.68
22.57
29.10
34.70
38.93
41.65
43.04
43.36
42.69
40.86
37.52
32.45
25.80
18.15
10.45
3.66
-1.54
-4.99
-7.05
-8.47
-10.20
-13.07
-17.58
-23.68
-30.76
-37.76
-43.41
-46.55
-46.45
-42.91
-36.25
-27.18
-16.55
-5.28
5.69
15.41
22.94
27.47
28.49
26.00
20.55
13.22
5.34
-1.81
-7.36
-11.09
-13.46
-15.34
-17.53
-20.41
-23.69
-26.67
-28.71
-29.79
-30.60
-32.35
-36.19
-42.60
-51.17
-60.64
-69.38
-75.89
-79.14
-78.78
-74.98
-68.35
-59.76
-50.27
-41.02
-32.99
-26.75
-22.14
-18.25
-13.78
-7.54
0.94
11.37
22.79
34.08
44.28
52.62
58.44
61.06
59.94
55.01
46.85
36.69
25.84
15.26
5.19
-4.73
-15.08
-26.21
-37.96
-49.68
-60.44
-69.14
-74.81
-76.83
-75.16
-70.39
-63.61
-55.97
-48.27
-40.79
-33.42
-26.06
-18.92
-12.59
-7.70
-4.67
-3.37
-3.28
-3.73
-4.21
-4.65
-5.27
-6.41
-8.31
-10.91
-13.96
-17.12
-20.14
-22.95
-25.74
-28.84
-32.74
-37.88
-44.64
-53.21
-63.37
-74.42
-85.04
-93.46
-97.69
-96.10
-87.81
-73.08
-53.22
-30.24
-6.35
16.54
37.03
54.19
67.37
76.20
80.50
80.54
77.16
71.67
65.61
60.22
56.08
52.86
49.55
44.97
38.39
29.90
20.38
11.06
2.94
-3.69
-9.36
-15.11
-21.99
-30.63
-40.88
-51.85
-61.93
-69.08
-71.24
-66.74
-54.78
-35.71
-11.00
17.07
45.93
73.20
97.04
116.25
130.19
138.72
142.09
140.92
136.09
128.70
119.88
110.60
101.50
92.77
84.21
75.38
65.90
55.71
45.13
34.79
25.27
16.77
8.99
1.13
-7.78
-18.51
-31.24
-45.27
-59.11
-70.67
-77.76
-78.70
-72.72
-60.21
-42.54
-21.71
0.16
21.19
39.89
55.27
66.72
74.06
77.55
77.89
76.15
73.54
71.18
69.85
69.79
70.79
72.22
73.40
73.82
73.36
72.32
71.07
69.75
67.90
64.56
58.54
49.04
36.01
20.47
4.24
-10.45
-21.45
-27.09
-26.35
-19.01
-5.54
12.90
34.60
57.59
79.86
99.65
115.70
127.29
134.29
137.12
136.57
133.65
129.32
124.32
119.01
113.40
107.27
100.34
92.51
83.91
74.86
65.81
57.21
49.42
42.60
36.73
31.64
27.05
22.74
18.63
14.73
11.21
8.14
5.49
3.07
0.66
-1.88
-4.57
-7.27
-9.82
-12.14
-14.26
-16.32
-18.47
-20.75
-23.01
-25.04
-26.56
-27.43
-27.63
-27.33
-26.78
-26.25
-25.91
-25.85
-26.00
-26.24
-26.38
-26.33
-26.05
-25.60
-25.13
-24.81
-24.81
-25.22
-26.08
-27.33
-28.83
-30.31
-31.33
-31.35
-29.84
-26.45
-21.10
-14.00
-5.60
3.55
12.99
22.35
31.44
40.05
47.86
54.40
58.99
61.03
60.26
57.03
52.43
47.99
45.31
45.54
49.03
55.29
63.17
71.21
77.95
82.22
83.37
81.30
76.55
70.03
62.68
55.17
47.77
40.38
32.96
25.81
19.62
15.29
13.52
14.72
19.06
26.54
36.84
48.89
60.50
68.66
70.71
65.73
55.43
43.60
34.15
28.99
27.02
24.89
19.23
8.83
-4.64
-17.97
-28.60
-36.48
-44.09
-54.78
-70.72
-91.66
-115.35
-139.11
-161.36
-182.12
-202.14
-221.57
-239.00
-251.60
-256.31
-251.25
-236.81
-215.56
-191.30
-167.79
-147.64
-131.93
-120.45
-112.17
-105.74
-99.70
-92.49
-82.56
-68.71
-50.33
-27.75
-2.13
24.99
52.10
77.95
101.51
121.63
136.92
145.85
147.26
140.68
126.54
106.00
80.62
52.14
22.43
-6.65
-33.40
-56.70
-76.40
-93.35
-108.87
-124.08
-139.20
-153.45
-165.53
-174.28
-179.21
-180.46
-178.31
-172.71
-163.13
-148.95
-130.31
-108.58
-86.41
-66.96
-52.81
-44.87
-41.86
-40.41
-35.74
-22.77
2.25
40.21
87.85
137.95
181.11
208.92
217.18
207.46
186.08
161.25
139.57
124.08
114.53
109.10
106.24
105.46
106.86
109.99
113.19
113.93
110.05
100.93
87.89
73.77
61.87
54.92
54.31
59.60
68.42
76.89
80.37
74.60
56.70
26.06
-15.34
-63.18
-111.59
-154.45
-187.11
-207.78
-218.14
-222.54
-226.21
-233.12
-244.51
-258.72
-272.34
-282.07
-285.83
-283.04
-273.90
-258.78
-238.11
-212.84
-184.76
-156.13
-128.50
-101.62
-73.12
-39.85
0.12
45.70
92.28
133.10
161.85
175.05
173.19
159.75
139.17
114.86
88.35
59.82
29.30
-2.33
-33.34
-62.13
-88.40
-113.56
-139.92
-168.86
-199.23
-227.04
-246.97
-254.73
-249.17
-232.67
-209.58
-184.01
-157.95
-130.80
-100.49
-65.26
-24.96
18.88
63.47
105.19
139.73
162.35
168.99
158.20
133.00
100.92
71.48
51.98
44.04
42.88
40.11
28.26
4.51
-28.50
-64.97
-99.44
-129.38
-155.27
-178.73
-200.13
-217.55
-227.39
-225.99
-211.70
-185.78
-151.90
-114.79
-78.65
-45.98
-17.21
8.66
33.14
57.47
82.38
108.39
135.99
165.40
195.72
224.12
245.60
254.28
245.41
217.68
174.40
122.70
71.39
27.99
-3.43
-22.92
-33.73
-40.45
-47.13
-56.15
-67.92
-81.24
-93.93
-103.39
-107.15
-103.26
-90.77
-70.14
-43.31
-13.47
15.65
40.77
59.88
72.67
80.30
84.72
87.70
90.16
91.93
92.08
89.63
84.22
76.58
68.31
61.33
57.06
55.84
56.75
57.95
57.42
53.63
46.07
35.52
23.88
13.89
8.46
10.00
19.72
37.28
60.69
86.85
112.25
133.78
149.37
158.22
160.75
158.20
152.19
144.25
135.37
125.82
115.13
102.38
86.58
67.32
44.98
20.89
-3.13
-25.31
-44.47
-60.35
-73.45
-84.82
-95.54
-106.48
-118.07
-130.06
-141.35
-149.93
-153.16
-148.42
-134.01
-109.76
-77.18
-38.97
1.81
42.40
80.61
114.66
142.94
163.96
176.57
180.28
175.63
164.03
147.57
128.75
110.11
93.86
81.52
73.54
69.31
67.50
66.59
65.62
64.46
63.63
63.71
64.65
65.72
66.02
65.25
64.09
63.89
65.80
69.99
75.53
81.12
86.04
90.70
96.25
103.76
113.60
125.11
137.11
148.32
157.59
164.00
167.17
167.65
166.90
167.11
170.43
178.30
190.94
207.31
225.42
242.61
255.89
262.49
260.56
249.95
232.60
212.05
192.16
175.60
163.04
153.59
145.90
139.28
133.90
130.32
128.80
129.01
130.32
132.07
133.93
135.97
138.57
142.02
146.30
151.09
155.74
159.40
161.33
161.09
158.61
154.15
148.04
140.47
131.30
120.03
105.94
88.32
66.87
41.78
13.88
-15.52
-45.07
-73.58
-100.39
-125.36
-148.76
-170.96
-192.28
-212.91
-233.03
-252.78
-272.14
-290.68
-307.53
-321.45
-331.39
-336.87
-338.20
-336.43
-332.92
-328.90
-325.26
-322.52
-321.01
-320.87
-322.00
-323.85
-325.32
-325.01
-321.65
-314.62
-304.44
-292.80
-282.07
-274.43
-270.59
-268.89
-265.46
-255.26
-234.03
-199.81
-153.92
-100.87
-47.29
-0.24
34.74
54.97
61.25
57.17
47.58
36.73
26.77
17.58
7.69
-4.05
-17.39
-30.55
-41.43
-48.93
-53.58
-57.14
-61.21
-66.23
-71.06
-73.75
-72.44
-66.48
-56.85
-45.70
-35.30
-26.82
-19.65
-11.51
0.53
18.71
43.61
73.80
106.42
137.98
165.16
185.06
195.28
194.11
181.14
158.10
129.30
100.95
79.33
68.63
69.27
78.01
89.47
98.58
102.67
102.09
99.31
96.87
95.61
94.07
89.30
78.77
62.01
41.18
20.18
2.84
-8.59
-14.23
-15.86
-15.70
-15.14
-14.38
-12.62
-8.85
-2.43
6.67
17.89
30.34
42.88
54.27
63.24
68.82
70.58
68.94
65.17
61.09
58.50
58.40
60.50
63.09
63.39
58.50
46.55
27.51
3.51
-21.88
-44.76
-62.13
-72.61
-76.48
-75.07
-70.03
-62.79
-54.42
-45.66
-37.09
-29.07
-21.55
-14.10
-5.97
3.36
13.65
23.66
31.33
34.47
31.72
23.11
10.14
-4.75
-19.09
-31.12
-40.20
-46.62
-51.13
-54.42
-56.86
-58.56
-59.63
-60.33
-61.10
-62.18
-63.39
-64.26
-64.23
-63.11
-61.01
-57.75
-52.29
-42.78
-27.48
-6.41
17.50
38.87
51.88
53.04
42.99
26.10
7.73
-8.70
-23.43
-39.55
-60.39
-87.05
-117.67
-148.86
-178.03
-204.64
-229.51
-252.86
-272.75
-285.14
-286.09
-274.20
-252.03
-225.38
-200.87
-183.32
-174.35
-172.53
-174.60
-176.94
-176.49
-171.21
-160.25
-144.05
-124.27
-103.47
-84.35
-68.79
-57.35
-49.27
-42.89
-36.18
-27.15
-14.25
3.18
24.43
47.28
68.21
83.35
89.54
85.33
71.37
50.18
25.39
0.83
-20.24
-35.49
-43.79
-45.04
-39.98
-29.91
-16.42
-1.48
12.51
22.96
27.70
26.12
19.90
12.90
9.80
14.30
27.46
47.38
70.30
92.48
111.84
128.36
143.20
157.24
170.04
179.84
184.52
182.85
175.18
163.20
149.29
135.45
122.67
110.89
99.33
87.18
74.07
60.27
46.54
33.82
22.68
13.12
4.44
-4.37
-14.28
-25.82
-38.94
-53.13
-67.57
-81.40
-93.60
-103.05
-108.61
-109.43
-105.26
-96.67
-85.00
-71.97
-59.27
-48.26
-39.79
-34.28
-31.85
-32.44
-35.92
-42.06
-50.65
-61.46
-74.30
-88.93
-105.00
-121.99
-139.20
-155.90
-171.54
-186.00
-199.63
-213.17
-227.36
-242.50
-258.05
-272.50
-283.50
-288.40
-284.95
-271.83
-249.12
-218.15
-181.15
-140.57
-98.54
-56.51
-15.25
24.98
64.09
101.92
138.05
171.65
201.65
226.95
246.83
261.15
270.38
275.24
276.28
273.57
266.77
255.61
240.40
222.38
203.45
185.52
169.75
156.15
143.61
130.66
116.15
99.92
82.89
66.78
53.50
44.65
41.14
43.19
50.57
62.79
79.17
98.75
120.10
141.31
160.31
175.37
185.50
190.64
191.35
188.51
183.02
175.68
167.21
158.13
148.73
138.92
128.42
116.97
104.62
91.81
79.14
67.20
56.27
46.32
36.94
27.47
17.00
4.82
-9.07
-23.50
-36.06
-43.73
-43.87
-35.35
-19.05
2.38
25.38
46.59
63.56
75.18
81.62
84.18
84.71
84.84
85.20
85.06
82.81
77.18
68.38
58.37
49.74
43.93
39.79
33.69
21.22
-0.48
-31.14
-67.33
-104.13
-137.32
-164.69
-185.94
-201.55
-211.52
-215.05
-211.15
-199.65
-181.87
-160.33
-137.93
-116.98
-98.87
-84.14
-72.94
-65.33
-61.35
-60.69
-62.58
-65.75
-68.94
-71.24
-72.35
-72.34
-71.42
-69.65
-66.98
-63.44
-59.17
-54.21
-48.19
-40.30
-29.65
-15.97
-0.13
15.82
29.50
39.21
44.80
47.62
49.77
53.08
58.38
65.44
73.38
81.35
88.93
96.14
103.19
110.20
117.10
123.75
130.19
136.56
142.91
148.98
154.07
157.26
157.83
155.54
150.70
143.92
135.70
126.09
114.66
100.64
83.31
62.28
37.66
10.00
-19.86
-50.90
-81.99
-111.74
-138.57
-160.61
-176.09
-183.55
-182.23
-172.37
-155.24
-132.96
-108.14
-83.30
-60.43
-40.62
-24.13
-10.70
0.02
8.08
13.27
15.42
14.65
11.54
6.83
0.99
-6.02
-14.58
-24.88
-36.40
-47.77
-57.18
-63.04
-64.61
-62.26
-57.26
-51.25
-45.61
-41.11
-37.71
-34.68
-30.97
-25.61
-18.11
-8.67
1.95
12.71
22.66
31.27
38.45
44.42
49.45
53.72
57.30
60.17
62.38
64.10
65.61
67.36
69.89
73.69
79.06
85.77
92.92
98.88
101.57
99.05
90.26
75.45
56.35
35.56
15.79
-1.06
-14.33
-24.56
-32.87
-40.20
-46.77
-52.03
-54.96
-54.63
-50.57
-42.94
-32.42
-19.98
-6.67
6.44
18.32
28.04
34.79
38.11
38.04
35.20
30.69
25.80
21.60
18.59
16.54
14.72
12.20
8.32
2.94
-3.48
-10.13
-16.17
-20.96
-24.30
-26.43
-28.09
-30.35
-34.39
-40.99
-50.12
-60.53
-69.88
-75.31
-74.39
-65.95
-50.46
-29.79
-6.45
17.30
39.88
60.41
78.34
93.18
104.54
112.36
117.15
119.90
121.59
122.33
121.02
115.80
105.36
90.13
72.71
56.73
45.06
38.20
34.01
28.88
19.76
5.76
-11.38
-28.14
-40.59
-45.40
-40.15
-23.29
5.72
45.63
92.70
140.56
181.74
209.98
222.49
220.73
209.59
194.81
180.48
167.60
154.07
135.97
109.33
71.61
22.88
-33.60
-91.54
-142.81
-179.38
-195.90
-191.44
-169.77
-137.74
-102.80
-70.55
-43.92
-23.95
-11.06
-6.31
-11.29
-27.25
-53.51
-86.39
-119.24
-144.11
-154.35
-146.95
-124.20
-92.51
-59.95
-32.93
-13.83
-0.68
11.03
25.36
43.57
63.47
80.84
91.75
94.58
90.51
82.63
74.11
66.66
60.10
52.78
42.96
30.08
14.70
-2.21
-20.44
-40.67
-63.49
-87.90
-110.55
-126.42
-131.01
-122.64
-103.62
-79.43
-56.43
-39.49
-30.43
-28.16
-30.12
-33.81
-37.57
-40.11
-39.87
-34.60
-22.21
-1.80
25.33
55.51
83.42
103.80
113.43
112.06
102.28
87.51
71.04
55.27
41.43
30.13
22.02
18.27
19.98
27.64
38.95
50.81
60.58
66.89
69.57
69.30
67.86
66.94
68.36
69.96
69.14
64.04
53.63
37.14
13.80
-15.55
-49.76
-86.14
-126.64
-172.26
-221.29
-269.85
-314.19
-352.94
-385.97
-416.18
-445.91
-482.72
-530.41
-586.37
-643.14
-692.32
-728.21
-746.59
-747.57
-690.70
-559.62
-371.21
-168.98
4.81
130.12
199.02
232.08
246.67
254.56
256.14
251.08
246.94
252.94
276.38
317.56
370.29
421.16
457.37
466.28
444.43
398.60
341.31
284.53
234.59
192.99
156.43
122.09
86.34
48.94
13.40
-14.85
-30.60
-30.96
-14.95
15.20
55.73
99.72
139.23
166.52
175.17
161.52
125.74
72.79
11.09
-49.08
-99.04
-133.59
-151.94
-156.78
-152.40
-143.02
-131.12
-117.56
-102.02
-84.06
-64.18
-44.20
-26.90
-14.96
-10.02
-12.08
-19.65
-30.76
-43.88
-58.74
-75.89
-95.16
-114.05
-126.98
-126.82
-107.92
-69.72
-18.54
33.67
73.35
90.49
82.43
54.86
19.04
-12.83
-32.53
-38.74
-36.61
-34.66
-40.20
-56.09
-79.91
-105.84
-127.93
-142.89
-150.56
-152.51
-149.79
-141.92
-128.07
-109.16
-89.38
-75.17
-72.28
-82.35
-101.48
-121.75
-134.84
-135.73
-124.60
-106.25
-87.62
-75.10
-72.52
-80.43
-96.54
-116.54
-135.08
-146.90
-147.88
-135.92
-111.34
-76.74
-36.41
4.84
42.71
74.20
97.95
114.22
124.44
130.76
135.38
139.95
145.08
150.17
153.67
153.81
149.48
140.98
130.03
119.23
110.92
106.28
104.90
105.20
105.22
103.53
99.56
93.54
86.05
77.76
69.28
61.42
55.25
51.92
52.30
56.52
63.77
72.54
81.08
88.02
92.79
95.40
96.02
94.65
90.97
84.63
75.52
64.03
51.06
37.89
25.70
15.26
6.87
0.53
-3.86
-6.48
-7.71
-8.27
-8.85
-10.34
-13.56
-18.94
-26.23
-34.66
-43.31
-51.51
-58.90
-63.91
-64.74
-59.69
-47.70
-28.69
-3.57
25.94
57.84
90.40
124.93
162.75
203.84
246.00
285.56
318.94
343.95
360.29
369.39
377.27
388.81
405.60
425.09
442.23
452.04
451.29
438.96
415.93
389.28
365.45
348.22
337.66
331.88
329.28
329.42
332.37
308.37
240.41
128.76
-7.05
-140.76
-253.26
-336.98
-392.97
-427.02
-446.92
-455.06
-455.40
-450.97
-444.04
-434.76
-420.29
-396.44
-360.89
-315.49
-262.39
-206.17
-154.53
-114.55
-89.33
-76.77
-71.62
-68.92
-66.48
-62.85
-58.92
-56.48
-56.98
-60.60
-66.28
-72.53
-78.52
-84.40
-89.43
-92.58
-92.26
-86.66
-74.59
-56.23
-33.35
-8.77
14.88
36.61
56.60
75.38
92.68
106.88
115.62
117.00
110.65
98.38
83.86
71.43
64.72
65.61
73.86
87.51
103.71
119.68
133.28
143.31
149.37
151.48
149.79
144.26
134.53
119.89
99.50
72.89
40.45
3.81
-34.04
-69.11
-97.27
-115.07
-120.73
-114.79
-100.27
-82.01
-65.70
-56.53
-57.92
-70.72
-92.88
-120.05
-146.77
-168.13
-181.18
-185.63
-183.57
-178.32
-173.08
-169.81
-169.03
-170.07
-171.75
-172.96
-172.89
-171.16
-167.97
-164.09
-160.63
-158.49
-157.36
-155.18
-148.60
-134.20
-110.17
-77.59
-40.42
-4.31
25.37
45.17
54.36
54.67
49.14
40.74
30.97
19.22
3.15
-19.65
-49.72
-84.20
-116.97
-140.78
-150.37
-144.94
-128.43
-107.34
-87.46
-71.44
-58.81
-47.84
-37.73
-29.35
-24.22
-22.84
-23.99
-25.50
-25.98
-25.82
-26.77
-30.32
-36.18
-42.24
-45.69
-44.88
-40.18
-33.56
-27.28
-22.69
-19.89
-18.17
-16.70
-14.90
-12.31
-8.53
-3.21
3.77
12.15
21.34
30.54
38.93
45.83
50.79
53.69
54.82
54.68
53.69
51.92
49.01
44.52
38.38
31.29
24.66
20.33
19.87
24.00
32.35
43.52
55.50
66.23
74.04
78.04
78.16
75.03
69.66
63.17
56.48
50.25
44.85
40.39
36.75
33.60
30.58
27.45
24.29
21.47
19.45
18.43
18.10
17.72
16.35
13.31
8.51
2.53
-3.58
-8.76
-12.23
-13.61
-12.91
-10.33
-6.11
-0.57
5.84
12.48
18.57
23.30
26.11
26.82
25.73
23.46
20.73
18.11
15.89
14.08
12.61
11.54
11.18
12.10
14.89
19.92
27.07
35.56
44.00
50.57
53.53
51.73
45.28
35.78
26.03
19.22
17.82
22.68
32.89
46.37
60.91
75.04
88.26
100.85
113.38
126.32
139.75
153.02
164.43
171.18
169.93
158.15
135.64
105.31
72.56
43.33
21.89
9.27
3.48
0.99
-1.48
-5.61
-11.43
-17.93
-23.97
-28.72
-31.92
-33.72
-34.46
-34.41
-33.49
-31.18
-26.64
-19.25
-9.19
2.32
13.41
22.43
28.75
33.02
36.58
40.48
44.70
48.08
48.98
46.19
39.64
30.45
20.39
11.10
3.52
-2.32
-7.10
-11.69
-16.83
-22.73
-29.01
-34.72
-38.67
-39.82
-37.87
-33.56
-28.52
-24.76
-23.77
-25.82
-29.70
-33.21
-34.11
-31.23
-24.95
-17.02
-9.78
-5.15
-3.96
-5.82
-9.52
-13.66
-17.26
-20.00
-22.06
-23.83
-25.43
-26.58
-26.68
-25.25
-22.28
-18.48
-14.98
-12.84
-12.63
-14.15
-16.63
-19.23
-21.42
-23.09
-24.40
-25.41
-25.90
-25.38
-23.22
-18.92
-12.13
-2.70
9.26
23.35
38.70
53.93
67.27
76.75
80.53
77.38
67.08
50.75
30.76
10.32
-7.39
-20.18
-27.46
-30.37
-31.11
-31.85
-33.80
-36.87
-39.98
-41.98
-42.32
-41.41
-40.33
-40.16
-41.37
-43.68
-46.26
-48.03
-48.13
-45.98
-41.24
-33.82
-23.95
-12.33
-0.11
11.33
20.72
27.23
30.54
30.82
28.62
24.71
19.91
14.85
9.74
4.37
-1.75
-8.93
-16.84
-24.72
-31.93
-38.82
-47.09
-59.30
-77.48
-101.60
-128.89
-154.59
-173.68
-182.73
-180.90
-169.42
-150.33
-125.32
-95.34
-60.92
-22.74
18.25
61.12
105.15
149.47
192.42
230.97
261.11
279.24
283.87
276.44
260.74
240.97
219.66
196.66
169.81
136.78
96.98
52.49
7.66
-32.43
-63.78
-84.73
-96.20
-100.96
-102.18
-102.21
-101.92
-100.97
-98.70
-95.09
-91.05
-87.98
-86.76
-86.77
-85.85
-81.20
-70.80
-54.72
-35.30
-16.32
-1.41
7.28
9.76
7.68
3.32
-1.58
-6.25
-10.81
-15.60
-20.81
-26.35
-32.19
-38.81
-47.13
-58.20
-72.46
-89.34
-107.33
-124.59
-139.79
-152.66
-163.99
-174.95
-186.34
-198.13
-209.60
-219.81
-228.10
-234.14
-237.46
-237.11
-231.47
-218.69
-197.36
-167.18
-129.08
-85.05
-37.63
10.58
57.06
99.55
136.24
166.10
188.93
205.25
216.06
222.37
225.12
224.97
222.09
216.07
206.06
191.43
172.55
151.26
130.39
112.58
99.11
89.67
83.28
79.56
79.24
83.10
90.25
97.14
98.70
91.46
76.32
59.00
47.23
46.40
56.28
71.14
83.14
86.72
81.14
69.92
57.87
48.13
40.84
34.28
26.92
18.89
11.93
8.01
7.76
9.89
11.78
10.67
4.77
-6.24
-21.38
-38.86
-56.61
-72.76
-85.83
-94.79
-99.24
-99.33
-95.70
-89.47
-81.93
-74.28
-67.27
-61.09
-55.43
-49.90
-44.44
-39.67
-36.80
-37.29
-42.17
-51.70
-65.19
-81.20
-97.84
-112.92
-124.21
-129.66
-127.79
-118.27
-102.25
-81.97
-59.76
-36.96
-13.48
11.50
38.06
64.42
87.02
101.90
106.64
101.68
90.11
76.06
62.71
51.02
39.79
27.02
11.40
-6.68
-25.20
-41.43
-52.87
-58.15
-57.15
-50.78
-40.50
-27.82
-13.87
0.49
14.50
27.14
37.03
42.61
42.66
36.79
25.71
11.13
-4.83
-20.26
-34.14
-46.38
-57.58
-68.39
-78.75
-87.73
-93.61
-94.56
-89.17
-76.99
-58.61
-35.41
-9.40
17.14
41.69
61.85
75.52
81.52
79.74
71.27
58.13
42.78
27.74
15.24
7.22
5.15
9.88
21.35
38.37
58.63
79.05
96.55
108.68
114.32
113.73
108.15
99.09
87.70
74.51
59.67
43.53
26.99
11.46
-1.74
-12.12
-20.48
-28.76
-39.13
-53.00
-70.23
-89.10
-106.96
-121.11
-129.64
-131.76
-127.78
-118.74
-106.10
-91.38
-76.04
-61.29
-48.09
-37.14
-28.85
-23.53
-21.44
-22.77
-27.52
-35.29
-45.20
-56.02
-66.60
-76.20
-84.70
-92.32
-98.94
-103.48
-103.66
-96.58
-79.82
-52.84
-17.59
21.70
59.92
92.84
118.37
136.67
149.25
157.55
162.00
162.01
156.80
146.41
132.16
116.33
101.13
87.79
76.20
65.38
54.25
42.27
29.61
16.72
3.86
-9.21
-22.99
-37.78
-53.37
-68.92
-83.42
-96.12
-106.92
-116.20
-124.42
-131.61
-136.99
-139.06
-136.04
-126.56
-110.36
-88.65
-64.02
-39.70
-18.47
-1.75
10.63
19.86
27.04
32.35
35.18
35.06
32.76
30.57
31.40
37.19
47.83
61.26
74.66
85.85
93.83
98.18
98.13
92.46
80.48
63.61
46.06
33.63
31.08
39.66
56.44
75.89
92.86
104.98
113.12
119.89
127.45
136.15
144.66
151.18
154.74
155.67
155.03
153.64
151.45
147.46
140.41
129.63
115.62
100.23
86.14
75.67
69.63
66.69
63.84
57.80
46.78
31.50
14.99
1.12
-7.14
-8.71
-4.33
4.17
14.84
26.01
36.20
43.97
48.09
48.04
44.43
38.89
33.28
28.74
25.18
21.47
16.21
8.64
-1.08
-12.01
-22.95
-32.92
-41.26
-47.50
-51.30
-52.52
-51.42
-48.80
-45.70
-42.97
-40.85
-38.90
-36.24
-31.92
-25.33
-16.31
-5.27
7.01
19.52
31.10
40.68
47.34
50.45
49.72
45.32
37.72
27.75
16.24
3.81
-9.24
-22.94
-37.21
-51.54
-64.94
-76.29
-84.94
-91.21
-96.27
-101.49
-107.66
-114.67
-121.68
-127.64
-131.91
-134.32
-134.87
-133.43
-129.62
-123.14
-114.04
-102.89
-90.71
-78.85
-68.84
-62.21
-60.38
-64.18
-73.53
-87.29
-103.54
-120.21
-135.57
-148.51
-158.57
-165.74
-170.46
-173.45
-175.49
-176.88
-177.07
-174.44
-166.84
-152.75
-132.23
-107.33
-81.49
-58.40
-40.92
-30.54
-27.48
-31.08
-40.12
-52.88
-67.27
-81.00
-92.14
-99.45
-102.56
-101.94
-98.57
-93.51
-87.58
-81.14
-74.08
-66.03
-56.72
-46.32
-35.64
-25.81
-17.85
-12.05
-7.80
-3.85
0.99
7.13
13.94
20.05
23.97
24.82
22.44
17.20
9.58
0.05
-10.64
-21.02
-28.83
-31.59
-27.77
-17.75
-3.91
10.30
22.00
30.11
35.53
40.11
45.06
49.91
52.77
51.53
45.52
36.19
26.50
19.48
16.59
17.16
19.09
20.16
19.38
17.48
16.21
17.18
20.90
26.56
32.85
39.05
45.65
53.94
64.92
77.98
90.55
98.95
100.17
93.59
81.64
68.85
59.88
57.52
61.73
70.13
79.61
87.99
94.97
101.61
109.05
117.11
123.94
126.78
123.66
114.68
102.46
91.14
84.68
85.33
92.88
105.02
118.34
129.60
136.50
138.07
134.46
126.51
115.34
101.90
86.87
70.57
53.17
34.91
16.24
-2.16
-19.42
-34.66
-47.02
-55.79
-60.44
-60.74
-56.87
-49.36
-39.16
-27.44
-15.43
-4.34
4.87
11.62
15.82
17.80
18.23
17.79
17.07
16.35
15.62
14.57
12.77
9.83
5.72
0.84
-4.05
-8.15
-10.97
-12.63
-13.80
-15.36
-17.94
-21.66
-26.17
-30.81
-34.92
-37.96
-39.44
-38.92
-35.96
-30.23
-21.77
-11.00
1.25
13.85
25.59
35.38
42.44
46.45
47.59
46.50
43.98
40.79
37.42
34.09
30.82
27.61
24.48
21.47
18.60
15.84
13.16
10.53
7.92
5.30
2.50
-0.78
-4.87
-9.97
-15.96
-22.28
-27.99
-31.95
-33.15
-30.94
-25.28
-16.72
-6.20
5.12
16.15
25.99
33.99
39.74
43.13
44.31
43.66
41.74
39.06
36.02
32.81
29.47
26.03
22.58
19.28
16.29
13.63
11.13
8.49
5.33
1.37
-3.55
-9.42
-16.15
-23.59
-31.43
-39.13
-45.87
-50.62
-52.39
-50.58
-45.17
-36.75
-26.32
-14.89
-3.25
8.10
18.88
28.76
37.24
43.72
47.80
49.54
49.54
48.74
48.03
47.85
48.05
48.10
47.48
46.05
44.10
42.12
40.43
38.94
37.30
35.25
33.00
31.18
30.52
31.41
33.55
36.06
37.86
38.13
36.50
32.96
27.58
20.38
11.35
0.86
-10.12
-20.09
-27.48
-31.26
-31.40
-28.90
-25.37
-22.48
-21.43
-22.61
-25.65
-29.64
-33.42
-35.90
-36.40
-34.86
-31.93
-28.77
-26.35
-24.79
-22.81
-18.07
-8.00
8.95
32.32
59.47
86.16
107.67
119.94
120.32
107.92
83.67
50.15
11.36
-27.83
-62.48
-88.56
-103.78
-108.01
-103.04
-91.92
-78.07
-64.46
-53.09
-44.86
-39.67
-36.83
-35.46
-34.83
-34.53
-34.52
-34.85
-35.56
-36.49
-37.37
-37.86
-37.70
-36.81
-35.23
-33.09
-30.57
-27.79
-24.88
-21.90
-18.84
-15.50
-11.51
-6.26
0.96
10.76
23.28
38.02
53.79
69.05
82.37
93.15
101.75
109.35
117.20
125.77
134.41
141.73
146.57
148.88
149.97
151.81
155.96
162.81
171.68
181.65
192.40
204.36
217.96
232.58
246.03
254.99
256.42
248.85
232.86
210.38
183.26
151.95
115.21
71.21
19.66
-36.36
-90.16
-133.21
-158.40
-163.05
-150.12
-126.90
-101.85
-81.32
-67.90
-60.67
-57.20
-55.54
-55.25
-57.25
-62.92
-73.10
-87.85
-106.61
-128.75
-153.86
-181.75
-212.11
-243.78
-274.31
-300.01
-316.86
-322.03
-315.17
-298.67
-276.58
-252.81
-229.62
-207.19
-184.42
-159.88
-132.82
-103.40
-72.62
-42.02
-13.19
12.68
35.18
54.68
71.90
87.31
100.49
110.00
113.80
109.85
96.89
74.55
43.41
5.10
-37.37
-79.46
-115.64
-140.88
-152.42
-150.91
-140.07
-125.13
-110.73
-99.54
-91.81
-86.36
-81.61
-76.59
-71.00
-64.90
-58.05
-49.78
-39.27
-26.22
-11.35
3.46
15.63
22.77
23.62
18.52
9.26
-1.67
-11.97
-20.24
-26.20
-30.35
-33.55
-36.55
-39.83
-43.63
-48.08
-53.16
-58.68
-64.24
-69.29
-73.37
-76.21
-77.87
-78.58
-78.76
-78.85
-79.37
-80.98
-84.28
-89.58
-96.65
-104.70
-112.56
-119.30
-124.51
-128.45
-131.67
-134.54
-137.01
-138.69
-139.12
-138.02
-135.31
-130.88
-124.38
-115.09
-101.98
-83.96
-60.14
-30.29
4.72
42.48
79.13
110.12
131.48
141.35
140.62
132.46
120.86
108.88
97.62
86.38
73.83
59.35
43.78
29.27
18.38
12.99
13.67
19.49
28.55
38.74
48.41
57.05
65.42
75.29
88.60
106.47
128.33
151.79
173.30
189.48
198.56
201.00
199.20
196.21
194.41
194.72
196.78
199.44
201.11
199.72
192.49
176.49
149.89
113.53
71.53
30.30
-3.87
-27.46
-40.88
-47.77
-52.54
-57.86
-63.51
-66.99
-65.36
-57.09
-42.69
-24.27
-4.37
15.16
33.52
50.64
66.39
80.17
90.76
96.84
97.76
93.95
86.87
78.33
69.65
60.97
51.14
38.26
20.63
-2.48
-30.45
-61.68
-94.20
-126.43
-157.40
-186.61
-213.48
-236.88
-254.97
-265.62
-267.13
-258.89
-241.77
-217.85
-189.87
-160.55
-132.03
-105.77
-82.73
-63.72
-49.62
-41.20
-38.37
-39.47
-41.21
-39.45
-30.86
-14.32
8.54
33.99
57.81
76.78
89.39
95.70
96.40
92.19
83.68
71.91
58.75
46.94
39.19
37.14
40.40
46.57
52.13
53.77
49.67
40.21
27.77
15.81
7.73
5.85
11.10
23.03
40.09
59.90
79.53
95.95
106.75
110.75
108.33
101.23
91.86
82.43
74.47
68.76
65.51
64.59
65.41
66.87
67.34
65.15
59.12
49.16
36.30
22.28
8.92
-2.29
-10.38
-14.73
-14.90
-10.72
-2.37
9.51
23.92
39.78
56.17
72.35
87.60
101.09
111.76
118.56
120.82
118.56
112.54
104.13
94.82
85.72
77.23
68.93
59.85
49.02
35.98
21.16
5.76
-8.66
-20.86
-30.47
-38.11
-45.03
-52.46
-60.95
-70.06
-78.46
-84.34
-86.13
-82.89
-74.65
-62.28
-47.24
-31.22
-15.67
-1.47
11.27
23.07
34.64
46.35
57.74
67.52
74.02
75.83
72.46
64.57
53.84
42.38
32.12
24.38
19.66
17.78
18.14
19.91
22.33
24.72
26.53
27.27
26.47
23.72
18.73
11.56
2.71
-6.81
-15.63
-22.40
-26.08
-26.20
-22.85
-16.52
-7.85
2.52
13.91
25.51
36.19
44.60
49.51
50.12
46.38
38.98
29.13
18.09
6.88
-3.87
-13.89
-23.08
-31.39
-38.70
-44.82
-49.48
-52.32
-53.01
-51.37
-47.71
-42.88
-38.18
-34.84
-33.45
-33.67
-34.32
-33.95
-31.44
-26.41
-19.13
-10.30
-0.71
8.87
17.68
24.87
29.74
32.03
32.12
31.02
29.89
29.50
29.90
30.45
30.30
28.92
26.40
23.39
20.74
19.06
18.47
18.58
18.69
17.97
15.65
11.11
4.07
-5.30
-16.25
-27.45
-37.32
-44.37
-47.73
-47.35
-43.99
-38.91
-33.44
-28.70
-25.31
-23.37
-22.60
-22.42
-22.24
-21.73
-20.93
-20.21
-20.09
-20.89
-22.41
-23.88
-24.26
-22.67
-18.98
-13.81
-8.26
-3.30
0.82
4.55
8.70
13.73
19.40
24.64
28.01
28.12
24.12
15.89
4.02
-10.17
-24.71
-37.20
-45.23
-46.99
-41.82
-30.48
-14.84
2.66
19.72
34.75
47.03
56.56
63.71
68.91
72.37
74.05
73.67
70.89
65.36
56.86
45.46
31.65
16.56
1.76
-11.02
-20.47
-26.27
-29.25
-31.12
-33.85
-38.96
-47.04
-57.67
-69.66
-81.50
-91.74
-99.20
-103.15
-103.25
-99.58
-92.51
-82.51
-69.90
-54.89
-37.65
-18.67
0.94
19.54
35.32
47.00
54.33
58.25
60.40
62.33
64.71
67.05
68.05
66.28
60.93
52.07
40.61
27.78
14.81
2.67
-7.90
-16.33
-22.24
-25.52
-26.47
-25.66
-23.77
-21.24
-18.11
-14.01
-8.41
-0.97
8.21
18.47
28.76
37.83
44.50
47.87
47.40
43.10
35.56
26.03
16.23
7.99
2.72
0.77
1.30
2.51
2.41
-0.41
-6.24
-14.34
-23.50
-32.66
-41.30
-49.45
-57.41
-65.32
-73.05
-80.13
-85.83
-89.32
-89.73
-86.41
-79.16
-68.45
-55.34
-41.16
-27.04
-13.49
-0.43
12.45
25.19
37.29
47.75
55.52
59.95
60.94
58.89
54.39
48.04
40.46
32.47
25.13
19.61
16.83
17.01
19.50
22.92
25.69
26.49
24.68
20.30
13.91
6.34
-1.51
-8.75
-14.53
-18.17
-19.28
-17.93
-14.60
-10.08
-5.10
-0.13
4.79
9.75
14.71
19.18
22.23
22.70
19.73
13.22
4.12
-5.66
-13.87
-18.55
-18.69
-14.42
-6.84
2.47
12.00
20.60
27.41
31.74
33.00
30.70
24.74
15.52
4.01
-8.51
-20.67
-31.13
-38.64
-41.96
-40.08
-32.46
-19.29
-1.64
18.76
39.86
59.68
76.66
89.76
98.49
102.87
103.50
101.31
97.41
92.70
87.66
82.37
76.79
71.19
66.52
64.37
66.39
73.58
85.58
100.40
114.81
125.05
127.78
121.03
104.94
81.95
56.45
33.76
18.73
14.42
21.14
36.56
56.58
76.79
93.90
106.49
114.96
120.72
125.28
129.46
133.21
135.85
136.60
135.10
131.61
126.92
121.94
117.37
113.58
110.75
109.08
108.96
110.80
114.67
120.02
125.50
129.30
129.68
125.48
116.68
104.39
90.40
76.20
62.55
49.02
34.55
18.19
-0.53
-20.91
-41.21
-59.28
-73.46
-83.22
-89.52
-94.14
-98.89
-105.32
-113.70
-123.03
-131.78
-138.89
-144.39
-149.84
-157.51
-169.67
-189.66
-219.63
-259.31
-305.27
-351.13
-388.14
-408.70
-408.06
-386.50
-352.99
-319.35
-295.38
-285.38
-288.14
-298.06
-311.03
-324.23
-336.43
-352.14
-374.06
-400.23
-424.70
-441.55
-446.64
-443.20
-436.62
-431.37
-435.69
-453.07
-480.35
-509.46
-532.22
-541.83
-539.75
-529.71
-475.59
-361.55
-197.88
-16.95
147.58
261.84
335.29
379.67
403.77
413.60
409.29
390.00
358.41
320.92
284.56
256.75
238.51
229.45
229.09
231.72
232.26
228.85
222.90
217.02
214.84
215.67
218.41
222.49
224.56
221.79
213.27
200.08
184.26
169.01
155.44
144.49
137.05
131.78
126.72
120.41
112.25
102.29
91.23
78.72
64.43
48.31
30.09
10.13
-10.24
-28.85
-43.38
-51.86
-53.77
-49.64
-40.75
-28.72
-15.14
-1.32
11.75
23.22
32.24
38.01
39.99
38.21
33.48
27.20
20.85
15.47
11.31
8.03
5.03
2.02
-0.84
-3.18
-4.89
-6.46
-8.97
-13.57
-20.79
-30.05
-39.79
-48.03
-53.13
-54.32
-51.79
-46.25
-38.47
-28.83
-17.32
-3.74
12.01
29.66
48.74
68.53
88.27
106.91
123.04
134.84
140.47
138.55
128.84
112.51
91.96
70.20
49.92
32.90
19.72
10.07
3.40
-0.65
-2.23
-1.78
-0.57
-0.81
-5.03
-14.84
-29.87
-47.66
-64.55
-77.33
-84.54
-86.63
-85.25
-81.95
-77.25
-70.63
-61.16
-48.26
-32.03
-13.25
7.01
27.51
46.77
63.11
74.93
81.29
82.24
78.89
72.96
66.12
59.56
53.97
49.71
46.97
45.75
45.66
46.00
46.06
45.55
44.74
44.00
43.02
40.22
33.02
19.06
-2.11
-28.07
-53.80
-73.48
-82.68
-79.92
-66.90
-47.07
-24.03
-0.16
23.45
46.26
67.39
85.32
98.30
105.27
106.52
103.69
99.14
94.94
92.20
90.86
90.04
88.72
86.36
83.14
79.82
77.28
76.04
75.91
75.91
74.44
69.76
60.63
46.96
30.33
13.96
2.15
-0.78
8.24
30.14
63.45
104.78
149.70
193.67
232.57
262.97
282.19
288.43
281.12
261.14
230.75
193.08
151.30
107.98
64.84
22.87
-17.14
-54.30
-87.66
-116.43
-140.50
-160.39
-177.22
-192.13
-205.71
-217.80
-227.53
-233.33
-233.02
-224.04
-204.15
-172.68
-131.28
-83.75
-34.77
11.92
54.72
94.03
130.84
165.02
194.47
215.75
225.88
223.94
211.66
192.41
169.52
144.76
117.99
87.87
53.10
13.36
-30.12
-74.31
-115.13
-148.38
-171.15
-182.74
-185.13
-182.38
-179.19
-179.30
-184.32
-193.79
-205.70
-217.77
-228.03
-235.04
-237.70
-235.16
-227.15
-214.15
-197.46
-178.73
-159.65
-141.86
-127.42
-119.07
-119.85
-131.89
-154.54
-183.41
-211.03
-229.64
-234.43
-225.69
-208.57
-190.07
-175.51
-166.07
-158.95
-149.65
-134.86
-114.22
-90.34
-67.51
-49.74
-39.55
-37.58
-42.53
-51.33
-59.48
-61.76
-53.90
-34.16
-4.15
31.66
67.67
98.91
122.20
136.44
142.56
143.43
143.50
147.92
160.55
181.76
207.22
228.55
236.53
225.06
194.01
149.22
99.82
54.37
18.12
-7.49
-23.62
-32.42
-35.87
-35.89
-34.85
-35.28
-39.18
-46.74
-55.91
-62.82
-63.27
-54.54
-36.62
-12.47
12.97
34.42
47.85
51.69
46.84
35.93
22.08
7.74
-5.66
-17.49
-27.50
-35.72
-42.87
-50.75
-62.10
-79.62
-104.41
-134.72
-165.92
-192.31
-209.11
-214.18
-208.68
-195.90
-179.67
-163.05
-147.99
-135.83
-127.87
-125.07
-127.00
-130.65
-130.29
-118.98
-91.07
-44.58
17.61
88.59
159.69
222.65
271.53
303.15
316.77
313.64
296.77
270.78
241.55
215.23
196.63
187.72
187.26
191.87
198.06
203.79
208.55
212.10
213.11
208.66
195.61
172.87
142.85
111.17
84.22
66.32
57.95
55.98
55.29
50.74
38.33
15.75
-17.16
-57.91
-101.07
-139.34
-165.76
-176.28
-171.13
-154.09
-130.16
-103.05
-74.26
-44.13
-14.03
12.26
29.38
33.02
22.71
2.66
-20.08
-39.28
-52.49
-61.57
-70.32
-81.12
-92.85
-101.48
-102.95
-96.16
-84.06
-72.18
-65.59
-66.42
-73.19
-82.05
-88.97
-91.29
-88.33
-80.91
-70.59
-59.14
-48.27
-39.27
-32.73
-28.56
-26.02
-24.21
-22.22
-19.15
-14.04
-6.15
4.52
16.55
27.12
32.67
30.17
18.46
-1.31
-25.97
-51.57
-74.62
-92.68
-104.42
-109.28
-107.16
-98.53
-84.79
-68.58
-53.77
-44.59
-44.16
-52.76
-67.13
-81.21
-88.53
-84.76
-69.43
-45.75
-18.71
7.17
29.36
47.32
61.21
70.57
73.76
68.70
54.17
31.01
2.33
-27.33
-53.41
-72.98
-85.72
-93.90
-101.21
-110.97
-124.11
-138.61
-150.15
-153.96
-147.01
-129.00
-102.08
-69.50
-34.23
1.54
36.12
68.11
96.58
121.65
144.72
167.78
192.00
216.57
238.65
254.40
261.11
258.11
246.98
230.03
208.72
182.96
151.50
113.66
71.01
28.34
-7.21
-28.57
-31.57
-17.24
8.27
35.87
57.22
67.85
67.94
60.71
49.48
35.63
18.41
-3.13
-28.30
-54.13
-76.75
-93.32
-103.28
-108.04
-109.14
-107.24
-101.50
-90.78
-74.62
-53.98
-30.67
-5.82
20.68
49.64
80.70
110.52
132.42
138.09
120.56
77.44
12.52
-65.20
-144.29
-214.51
-269.32
-306.16
-324.88
-325.98
-310.18
-279.38
-238.26
-194.38
-156.00
-128.43
-111.17
-98.01
-80.15
-51.09
-10.18
37.09
82.25
118.18
142.08
155.76
163.73
170.68
179.89
192.89
209.64
228.80
247.43
261.10
264.80
254.80
230.92
197.71
163.18
135.84
121.14
119.51
126.58
135.80
141.35
140.12
131.83
117.60
98.46
74.91
47.80
19.77
-4.31
-18.74
-19.61
-7.32
12.95
33.30
46.78
50.88
48.99
48.61
57.07
77.09
104.17
127.35
133.37
112.19
61.29
-12.50
-95.28
-170.79
-225.76
-254.01
-257.19
-242.70
-220.20
-197.35
-177.39
-158.85
-137.36
-109.13
-73.62
-34.16
3.54
34.11
55.04
67.25
74.28
80.56
90.05
105.40
127.86
156.92
189.64
220.37
241.59
246.09
229.68
193.11
141.45
81.94
20.86
-38.54
-96.18
-153.95
-213.49
-274.24
-332.75
-382.83
-417.20
-429.99
-418.64
-385.19
-336.02
-280.05
-226.44
-182.44
-151.86
-134.61
-127.29
-124.53
-120.83
-112.34
-97.81
-78.42
-56.75
-35.48
-16.75
-2.39
5.95
7.02
0.97
-9.64
-19.87
-24.11
-18.82
-4.80
12.65
26.50
32.09
30.67
29.72
39.44
67.34
113.79
171.13
227.03
269.91
293.44
297.68
286.85
265.69
237.38
204.04
168.70
136.80
115.47
110.78
124.69
153.51
188.92
220.85
240.90
244.50
231.43
205.14
170.68
132.66
93.90
55.26
16.93
-20.01
-52.97
-78.40
-93.78
-99.53
-99.21
-98.23
-101.67
-112.86
-133.32
-163.33
-202.04
-246.86
-292.52
-331.19
-354.42
-356.50
-336.92
-300.93
-257.05
-213.33
-174.39
-140.67
-109.33
-76.25
-37.98
6.90
56.90
107.49
151.77
182.10
192.69
182.08
153.91
115.83
76.69
43.33
18.69
1.88
-10.15
-20.25
-29.76
-38.51
-45.88
-51.81
-56.88
-61.83
-66.87
-71.72
-75.98
-79.89
-84.43
-90.79
-99.38
-109.18
-118.05
-123.35
-122.87
-115.29
-100.14
-77.78
-49.38
-17.24
15.13
43.63
64.79
76.77
79.79
75.45
65.72
52.05
35.19
15.53
-6.37
-29.38
-51.83
-71.73
-87.05
-95.93
-96.96
-89.36
-73.32
-50.12
-22.13
7.56
35.76
59.83
78.21
90.61
97.83
101.26
102.36
102.28
101.70
100.96
100.19
99.36
98.27
96.40
93.00
87.35
79.13
68.64
56.82
44.96
34.43
26.20
20.52
16.74
13.44
9.00
2.44
-5.76
-13.24
-16.30
-11.48
2.51
23.59
46.72
65.87
76.78
78.79
74.71
68.79
64.04
60.79
57.05
50.54
40.63
29.01
18.50
11.38
8.36
9.01
13.03
20.78
32.44
46.24
57.49
59.66
47.40
19.89
-17.59
-54.96
-81.27
-89.13
-77.46
-51.43
-19.87
8.41
27.76
36.91
38.34
36.34
34.78
35.70
39.06
43.63
48.49
54.07
62.05
74.24
91.02
110.62
129.56
144.35
152.97
155.71
154.53
151.60
147.92
142.72
133.96
119.42
97.99
70.33
39.11
8.50
-16.86
-33.35
-39.80
-38.15
-32.68
-28.11
-27.35
-30.43
-35.25
-39.43
-41.81
-42.70
-42.92
-42.62
-41.40
-39.30
-37.98
-40.50
-49.57
-65.17
-83.51
-98.45
-104.60
-100.41
-88.95
-76.03
-66.95
-64.11
-66.63
-71.88
-77.30
-81.07
-81.63
-76.71
-63.22
-38.79
-3.84
37.12
76.31
105.27
118.16
114.11
97.23
74.81
54.47
41.92
39.98
48.66
65.90
88.31
111.85
132.46
146.77
152.81
150.57
141.90
129.77
117.15
105.92
96.45
87.83
78.63
67.83
55.45
42.32
29.71
18.84
10.78
6.74
8.00
15.48
28.69
44.84
58.71
63.87
54.91
29.81
-8.74
-53.75
-96.22
-128.33
-146.03
-150.02
-144.71
-135.72
-127.34
-121.08
-115.91
-109.83
-101.66
-91.98
-82.82
-76.36
-73.54
-73.64
-74.79
-75.28
-74.42
-72.85
-71.92
-72.75
-75.59
-79.63
-83.55
-86.17
-86.98
-86.31
-84.85
-83.28
-81.67
-79.42
-75.48
-68.74
-58.67
-45.58
-30.63
-15.56
-2.07
8.77
16.86
23.07
28.74
35.07
42.62
51.14
59.75
67.48
73.61
77.87
80.34
81.18
80.48
78.13
73.92
67.62
59.16
48.68
36.68
24.08
12.14
2.26
-4.29
-6.79
-5.18
0.06
8.10
18.10
29.25
40.59
50.92
58.79
62.81
62.10
56.78
47.99
37.71
28.13
20.98
17.13
16.43
18.04
20.85
23.99
26.88
29.27
30.97
31.77
31.53
30.37
28.75
27.33
26.62
26.58
26.57
25.66
23.09
18.72
13.07
7.08
1.85
-1.75
-3.07
-1.78
2.08
7.99
14.99
21.81
27.21
30.29
30.62
28.24
23.53
17.17
9.97
2.81
-3.60
-8.82
-12.84
-15.88
-18.21
-20.00
-21.33
-22.38
-23.43
-24.86
-26.92
-29.47
-31.95
-33.46
-33.16
-30.47
-25.21
-17.62
-8.27
1.99
12.05
20.65
26.63
29.20
28.21
24.17
18.09
11.08
4.08
-2.39
-8.22
-13.51
-18.44
-23.10
-27.58
-31.96
-36.37
-40.86
-45.38
-49.68
-53.39
-56.20
-58.02
-58.97
-59.24
-58.95
-58.00
-56.11
-53.03
-48.63
-42.98
-36.33
-28.95
-21.16
-13.29
-5.63
1.63
8.48
15.08
21.67
28.28
34.64
40.20
44.37
46.81
47.63
47.21
46.02
44.28
42.00
39.11
35.62
31.68
27.42
22.78
17.41
10.87
3.06
-5.52
-13.63
-19.61
-22.01
-20.11
-14.09
-4.69
7.24
21.15
36.56
52.57
67.38
78.58
84.24
84.18
80.11
74.31
67.66
58.78
45.25
26.13
3.98
-15.84
-28.08
-31.06
-28.21
-26.34
-31.74
-46.42
-67.24
-88.22
-104.19
-113.26
-116.67
-116.37
-112.87
-104.85
-90.81
-70.99
-48.34
-27.54
-12.80
-5.91
-5.36
-7.18
-7.09
-2.60
5.78
15.01
21.54
23.28
20.91
17.25
15.54
17.36
21.63
25.20
24.73
18.41
6.74
-8.10
-23.62
-38.17
-51.31
-63.31
-74.48
-84.79
-93.97
-101.84
-108.37
-113.47
-116.73
-117.37
-114.64
-108.27
-98.74
-87.31
-75.63
-65.29
-57.47
-52.66
-50.58
-50.25
-50.07
-48.09
-42.53
-32.50
-18.77
-4.15
6.95
9.87
1.62
-17.30
-42.29
-65.51
-78.13
-73.23
-48.38
-6.86
42.75
89.00
121.29
133.86
127.97
111.05
93.01
81.15
76.78
75.32
69.96
56.48
36.25
15.51
1.57
-1.40
5.59
17.75
29.82
39.04
45.89
52.49
60.31
68.88
76.12
79.98
79.87
77.20
74.50
73.96
76.14
79.70
82.19
81.58
77.62
72.35
69.12
70.81
78.20
89.30
100.04
105.88
103.24
90.49
68.04
38.34
5.42
-25.71
-50.24
-65.02
-69.80
-67.33
-62.04
-58.01
-57.07
-58.38
-59.63
-58.96
-56.38
-53.71
-53.30
-56.62
-63.45
-72.24
-81.22
-89.31
-96.35
-102.68
-108.39
-113.05
-115.78
-115.91
-113.46
-109.24
-104.36
-99.54
-94.65
-88.65
-80.09
-67.81
-51.58
-32.23
-11.46
8.71
26.55
41.10
52.42
61.56
70.18
79.94
91.70
105.07
118.43
129.65
137.00
139.82
138.51
134.02
127.26
119.01
110.21
102.33
97.25
96.46
100.09
106.62
113.72
119.75
124.99
131.40
140.96
153.80
167.47
178.44
184.62
187.14
189.99
197.65
211.95
230.55
247.87
257.96
257.42
246.69
229.03
208.25
186.48
163.56
137.92
107.99
73.19
34.11
-7.95
-51.58
-95.53
-138.54
-179.08
-215.11
-244.11
-263.67
-272.47
-271.07
-262.16
-249.73
-237.79
-229.06
-224.31
-222.60
-221.95
-219.54
-212.02
-196.02
-169.30
-132.08
-87.92
-43.32
-5.70
19.05
28.26
22.87
6.63
-15.19
-37.06
-54.39
-64.29
-66.01
-60.68
-50.16
-35.89
-18.40
2.17
24.80
46.78
64.38
74.93
78.86
79.91
83.12
91.65
104.42
116.08
119.39
108.46
80.72
37.34
-17.50
-77.59
-135.46
-183.36
-214.83
-226.73
-220.81
-203.74
-184.89
-172.41
-169.68
-174.07
-178.81
-177.25
-166.92
-151.25
-137.83
-134.17
-143.42
-162.27
-181.98
-192.07
-184.44
-156.70
-113.26
-63.91
-20.79
5.57
9.63
-7.43
-38.29
-72.51
-100.67
-117.68
-123.86
-123.22
-120.06
-116.14
-110.00
-98.77
-81.18
-59.31
-37.89
-21.66
-12.48
-8.16
-3.55
6.87
26.67
56.53
94.83
138.87
186.03
233.73
279.22
319.26
350.39
369.62
375.06
366.25
344.01
310.33
268.42
222.57
177.54
137.58
105.25
80.76
62.29
46.99
32.32
17.08
1.46
-13.41
-26.27
-36.48
-44.27
-50.51
-56.33
-62.68
-70.03
-78.20
-86.49
-93.89
-99.39
-102.35
-102.65
-100.72
-97.26
-92.99
-88.31
-83.27
-77.68
-71.41
-64.61
-57.68
-51.04
-44.83
-38.69
-31.97
-24.07
-14.93
-5.14
4.14
11.67
16.57
18.44
17.43
14.02
8.78
2.41
-4.16
-9.74
-12.96
-12.83
-9.46
-4.67
-1.89
-5.14
-17.26
-38.21
-64.31
-89.18
-106.01
-110.30
-101.30
-81.79
-56.45
-29.94
-5.96
12.53
22.57
21.31
7.16
-18.18
-48.64
-74.23
-83.96
-69.69
-29.37
31.81
102.75
169.74
220.33
246.67
247.21
226.67
194.10
159.84
132.27
115.57
109.22
109.22
110.45
108.89
102.90
93.11
81.69
71.57
66.10
68.70
82.12
107.06
141.00
178.30
211.85
235.86
248.03
249.93
245.29
237.26
226.60
211.67
190.12
160.91
125.22
85.65
44.42
2.15
-41.98
-88.74
-137.33
-184.86
-227.30
-261.48
-286.47
-303.90
-316.71
-327.18
-335.63
-340.22
-338.16
-327.45
-308.25
-282.97
-255.17
-228.04
-203.41
-181.82
-163.41
-148.64
-138.15
-131.95
-128.80
-126.52
-123.31
-119.10
-115.79
-116.02
-121.08
-129.41
-136.84
-138.39
-130.49
-112.16
-84.80
-50.83
-12.76
26.86
64.78
96.81
118.75
127.96
124.84
112.85
97.15
82.52
71.74
65.07
60.98
57.40
52.70
46.04
37.27
26.75
15.30
4.19
-4.80
-9.70
-9.00
-2.16
10.20
26.59
45.38
65.29
85.60
105.89
125.82
145.35
165.02
186.04
209.62
235.79
262.28
284.62
297.53
297.16
282.64
255.98
220.31
177.70
128.54
72.98
13.39
-44.30
-92.05
-123.41
-137.14
-138.13
-134.74
-133.98
-138.04
-143.91
-146.24
-141.32
-129.45
-114.30
-100.26
-89.98
-83.38
-78.83
-74.87
-71.23
-68.74
-68.36
-70.40
-74.20
-78.55
-82.17
-84.13
-84.15
-82.67
-80.62
-79.04
-78.30
-77.80
-76.28
-72.77
-67.57
-62.41
-59.38
-59.17
-59.78
-57.14
-47.33
-29.42
-6.75
14.33
27.62
30.45
24.82
15.81
8.37
4.79
4.70
6.55
9.51
13.60
18.40
21.81
20.81
13.95
3.82
-2.90
1.55
21.57
55.41
96.01
134.83
166.02
188.25
203.42
213.78
219.87
220.56
214.67
202.50
185.68
165.97
143.92
118.87
90.26
59.51
30.99
10.99
5.11
15.38
38.06
64.15
82.45
83.80
64.85
29.59
-12.51
-50.44
-76.21
-87.60
-88.06
-84.33
-83.21
-89.10
-102.98
-122.83
-144.39
-162.20
-170.67
-165.31
-144.14
-108.64
-63.80
-16.88
24.56
54.85
71.75
76.84
74.45
69.54
65.85
65.01
66.82
70.31
74.75
79.83
85.06
89.09
89.65
84.51
72.78
55.90
37.58
22.60
14.98
16.62
26.74
42.19
58.68
72.25
80.88
85.31
88.43
93.35
101.05
109.26
113.51
109.94
98.01
81.13
64.68
52.74
45.71
40.66
33.76
23.18
10.23
-1.87
-10.36
-14.66
-15.98
-15.69
-13.72
-8.21
3.23
21.90
46.76
74.59
101.40
123.94
140.97
153.40
163.54
173.75
184.75
194.85
200.17
196.13
179.50
149.81
109.29
61.38
8.81
-47.19
-106.11
-166.49
-224.49
-274.34
-310.14
-328.25
-328.98
-316.48
-297.25
-278.32
-266.12
-266.03
-282.06
-315.83
-365.09
-422.89
-478.44
-520.16
-539.74
-535.18
-511.02
-475.87
-438.35
-403.64
-372.21
-340.96
-305.47
-262.10
-209.20
-147.48
-80.06
-11.91
50.81
102.02
137.59
156.76
162.43
160.37
157.44
159.15
168.13
183.17
199.61
211.32
213.35
204.54
188.51
172.52
164.52
169.70
188.00
214.15
240.09
258.20
263.84
256.14
237.21
210.65
180.54
151.06
126.40
110.37
104.99
109.51
119.98
130.15
133.33
124.67
102.85
70.68
34.36
0.98
-24.00
-38.92
-46.61
-52.99
-63.99
-82.22
-105.20
-126.16
-137.12
-132.44
-110.98
-76.15
-33.81
10.38
52.49
90.28
122.12
146.21
160.87
165.64
162.28
154.76
147.91
145.47
148.47
154.96
160.95
162.20
155.86
141.43
120.78
97.27
74.29
53.96
36.37
19.55
0.47
-23.12
-51.09
-80.03
-104.10
-117.33
-116.11
-100.99
-76.43
-49.24
-26.51
-14.04
-15.52
-31.94
-60.87
-95.76
-126.44
-141.75
-133.47
-100.05
-47.59
12.65
69.16
114.67
148.01
172.33
191.50
207.07
217.68
220.83
215.48
203.34
188.14
173.58
161.24
150.01
136.86
118.80
94.38
64.41
31.62
-0.18
-27.02
-45.61
-54.06
-52.52
-43.46
-31.34
-21.52
-18.71
-25.65
-42.66
-68.17
-99.68
-134.49
-169.75
-202.05
-227.38
-242.02
-244.07
-234.70
-218.14
-200.09
-185.41
-176.50
-173.31
-174.58
-179.49
-188.16
-200.89
-216.90
-233.83
-248.62
-259.34
-266.65
-273.54
-283.34
-297.32
-313.06
-325.03
-326.82
-313.84
-284.83
-241.79
-188.72
-130.22
-70.88
-15.16
32.42
67.79
88.53
95.26
92.35
87.00
86.75
96.48
116.15
141.06
164.46
181.35
191.13
197.17
203.74
212.26
219.74
220.63
210.57
189.64
162.74
136.62
116.38
103.34
95.61
90.32
85.74
81.67
78.49
75.82
72.01
65.00
53.45
37.62
19.32
1.45
-12.58
-19.73
-18.33
-9.30
3.33
13.49
15.09
4.34
-18.98
-51.91
-89.62
-126.76
-158.24
-179.76
-188.58
-184.73
-171.86
-156.95
-147.98
-150.46
-164.50
-183.98
-198.61
-198.01
-175.98
-132.84
-74.97
-11.87
47.24
96.11
132.05
155.10
166.50
167.52
159.38
143.71
123.02
100.55
79.39
61.46
46.98
34.99
24.45
15.33
8.94
7.20
11.29
20.72
33.04
44.43
50.70
48.78
37.65
18.99
-3.17
-23.37
-36.45
-39.07
-30.82
-14.32
5.63
23.62
35.17
37.85
31.89
19.76
5.34
-7.14
-14.20
-13.95
-6.63
5.71
20.40
35.66
51.71
70.57
94.43
123.44
154.36
180.85
195.76
193.95
174.24
139.58
95.69
49.23
6.32
-27.99
-50.04
-58.15
-53.52
-40.74
-27.35
-21.91
-31.47
-59.24
-103.17
-156.24
-208.18
-247.87
-266.23
-258.36
-224.60
-170.13
-103.65
-35.28
25.21
70.03
94.85
99.85
90.05
73.98
60.54
55.59
59.70
68.56
75.99
77.56
72.56
63.33
52.68
41.49
28.09
10.00
-13.52
-40.02
-64.64
-82.78
-92.74
-96.83
-99.95
-106.42
-117.42
-130.41
-140.88
-144.86
-141.03
-130.54
-115.25
-95.91
-71.50
-40.39
-2.34
40.13
82.08
118.15
144.91
162.02
171.46
175.56
175.16
169.16
155.63
133.65
104.59
71.87
39.68
11.16
-12.66
-32.65
-50.26
-66.26
-80.34
-91.65
-99.99
-106.56
-113.60
-123.13
-135.33
-147.78
-155.79
-154.03
-138.47
-107.86
-64.09
-11.44
44.80
99.75
149.74
192.24
225.30
246.84
254.81
248.13
227.80
197.33
161.74
125.66
91.55
59.30
27.51
-4.51
-35.31
-61.55
-79.68
-88.07
-87.86
-82.44
-75.73
-70.73
-69.14
-71.95
-80.26
-94.96
-115.51
-138.64
-158.33
-167.55
-161.02
-137.17
-98.56
-50.62
0.09
47.17
84.94
108.65
115.26
104.36
78.98
45.13
10.06
-20.16
-42.09
-54.85
-59.31
-57.31
-51.15
-43.82
-38.65
-38.39
-43.78
-52.98
-62.28
-68.07
-69.10
-67.04
-65.69
-68.93
-78.87
-95.13
-115.40
-136.72
-156.59
-173.35
-185.82
-192.72
-192.19
-182.00
-160.21
-126.57
-83.48
-35.60
11.18
51.52
82.02
101.83
112.69
118.52
124.64
136.36
157.28
187.77
224.51
261.04
289.56
303.42
299.13
277.77
244.92
208.93
177.88
156.45
144.09
135.51
123.51
102.73
72.40
36.22
-0.33
-33.76
-64.54
-96.14
-131.62
-170.25
-207.11
-235.65
-251.37
-254.32
-248.74
-240.43
-233.61
-229.16
-225.05
-218.09
-205.93
-188.07
-165.55
-140.03
-112.95
-85.29
-57.95
-31.87
-8.18
12.18
28.72
41.63
51.60
59.54
66.12
71.46
75.12
76.13
73.45
66.40
54.95
39.77
22.15
3.93
-12.75
-25.65
-32.92
-33.57
-27.83
-17.05
-3.37
10.86
23.67
33.66
40.17
43.11
42.85
40.04
35.43
29.66
23.02
15.47
6.75
-3.14
-13.58
-23.13
-29.93
-32.32
-29.52
-22.06
-11.58
-0.34
9.57
16.81
21.15
23.36
25.02
28.03
34.25
44.95
60.33
79.27
99.54
118.43
133.75
144.61
151.77
157.17
163.05
170.77
180.10
189.27
195.71
197.23
193.03
184.02
172.30
160.23
149.10
138.67
127.42
113.63
96.71
78.02
60.69
48.50
44.43
49.28
61.25
76.33
89.68
97.12
96.29
87.12
71.76
53.98
38.41
29.96
32.98
50.36
82.36
125.63
173.15
215.27
242.17
246.79
227.30
187.84
137.07
85.06
40.08
6.31
-16.25
-30.20
-38.54
-43.51
-46.98
-51.45
-60.35
-76.71
-100.94
-129.44
-155.26
-171.01
-172.59
-161.40
-143.80
-127.87
-119.57
-120.19
-125.95
-130.00
-125.76
-110.19
-85.74
-59.56
-40.57
-35.43
-44.79
-62.71
-79.26
-85.24
-76.12
-53.45
-23.07
8.70
38.10
65.03
91.27
117.74
142.51
160.73
166.53
155.67
127.30
84.38
32.69
-21.15
-71.39
-114.02
-146.64
-167.85
-176.70
-172.81
-156.77
-130.50
-97.12
-60.13
-22.58
13.28
46.37
76.62
104.74
131.74
157.99
182.40
202.30
214.27
215.69
206.03
187.08
162.07
134.05
104.73
74.49
43.18
11.16
-20.61
-51.11
-80.03
-107.89
-134.92
-159.51
-177.28
-182.18
-169.42
-138.88
-96.87
-54.58
-23.62
-11.02
-16.06
-31.28
-46.84
-55.61
-56.03
-51.35
-46.00
-41.83
-36.71
-26.12
-6.36
22.63
56.76
89.21
112.95
122.71
115.95
93.20
57.90
15.89
-25.83
-61.14
-86.87
-103.84
-115.95
-127.66
-141.01
-153.97
-160.94
-155.11
-131.39
-88.97
-32.46
28.65
82.09
116.27
124.05
105.45
67.91
23.66
-14.73
-38.56
-45.01
-36.34
-17.36
7.00
32.56
55.57
72.07
78.10
71.36
52.41
24.76
-6.56
-37.16
-64.16
-85.62
-99.10
-100.96
-87.51
-57.21
-12.34
41.00
94.78
141.87
178.06
202.30
215.32
217.94
210.18
191.53
162.12
123.33
77.74
28.39
-21.86
-70.44
-114.76
-151.84
-178.63
-192.53
-192.36
-178.74
-154.11
-122.27
-87.44
-53.61
-23.88
-0.15
17.13
28.83
36.72
42.85
48.73
54.88
60.77
65.24
66.93
64.92
59.10
50.45
40.99
33.66
31.81
38.21
53.83
76.78
102.20
123.29
133.56
129.23
110.71
82.53
51.44
23.86
3.50
-9.39
-17.16
-22.75
-27.91
-32.57
-35.59
-36.27
-35.56
-35.95
-40.35
-50.65
-66.71
-86.44
-106.94
-125.73
-141.47
-153.82
-162.71
-167.77
-168.53
-165.03
-158.48
-151.18
-145.68
-143.69
-145.28
-149.07
-152.99
-155.31
-155.20
-152.64
-147.94
-141.18
-132.03
-119.90
-104.36
-85.35
-63.46
-39.81
-15.99
6.27
25.38
40.29
50.60
56.53
58.52
56.93
51.81
43.18
31.45
17.78
3.93
-8.24
-17.40
-23.26
-26.49
-28.45
-30.68
-34.60
-41.25
-51.06
-63.61
-77.39
-89.91
-98.25
-99.98
-94.17
-81.67
-64.76
-46.10
-27.66
-10.09
7.02
24.39
42.13
59.33
74.35
85.59
92.23
94.61
94.04
92.22
90.51
89.65
89.76
90.45
90.94
89.99
86.03
77.66
64.35
46.97
27.82
9.83
-4.66
-14.78
-21.24
-25.57
-29.05
-31.94
-33.54
-32.92
-29.68
-24.31
-17.81
-11.14
-4.65
1.82
8.60
15.71
22.55
28.06
31.24
31.65
29.77
26.92
24.79
24.85
27.75
33.15
39.90
46.50
51.60
54.44
54.87
53.19
49.82
45.02
38.86
31.28
22.32
12.26
1.66
-8.86
-18.80
-27.82
-35.73
-42.31
-47.15
-49.74
-49.59
-46.45
-40.55
-32.54
-23.37
-14.15
-5.94
0.35
4.16
5.42
4.75
3.31
2.52
3.47
6.38
10.31
13.48
13.98
10.67
3.87
-4.78
-12.97
-18.66
-21.08
-20.85
-19.56
-18.95
-20.02
-22.63
-25.65
-27.50
-26.78
-22.73
-15.28
-4.84
7.94
22.39
37.82
53.52
68.76
82.86
95.24
105.57
113.66
119.48
123.06
124.34
123.02
118.36
109.24
94.49
73.72
47.98
20.02
-6.40
-27.91
-42.92
-52.24
-58.64
-65.46
-75.18
-88.53
-104.56
-121.19
-136.06
-146.99
-152.20
-150.48
-141.34
-125.21
-103.44
-77.95
-50.68
-23.12
3.82
29.51
53.24
74.02
90.64
102.05
107.80
108.27
104.63
98.53
91.54
84.82
78.84
73.54
68.55
63.49
58.03
51.86
44.74
36.76
28.47
20.91
14.99
10.79
7.12
1.79
-7.29
-20.71
-36.78
-51.96
-62.33
-65.39
-60.95
-50.92
-38.01
-24.41
-11.07
1.94
14.74
26.97
37.75
46.05
51.16
53.01
52.14
49.51
46.27
43.46
41.81
41.52
42.09
42.59
41.96
39.49
35.10
29.16
22.19
14.54
6.35
-2.26
-10.80
-18.35
-23.86
-26.52
-26.26
-23.78
-20.36
-17.34
-15.72
-15.92
-17.85
-21.11
-25.15
-29.50
-33.74
-37.47
-40.34
-42.06
-42.51
-41.85
-40.52
-39.15
-38.34
-38.41
-39.13
-39.78
-39.34
-36.85
-31.84
-24.61
-16.11
-7.66
-0.46
4.86
8.34
10.64
12.73
15.56
19.87
26.09
34.38
44.61
56.40
69.08
81.79
93.56
103.51
110.97
115.60
117.31
116.26
112.71
106.97
99.39
90.31
80.09
69.09
57.71
46.37
35.40
24.95
14.95
5.04
-5.25
-16.29
-28.08
-40.24
-51.86
-61.74
-68.63
-71.41
-69.42
-62.56
-51.41
-37.14
-21.40
-5.92
7.89
19.30
28.30
35.41
41.32
46.60
51.57
56.21
60.10
62.26
61.09
54.60
41.17
20.44
-6.01
-34.67
-61.10
-81.30
-93.01
-96.26
-92.93
-85.84
-77.74
-70.66
-65.72
-63.22
-62.76
-63.44
-64.01
-63.21
-60.08
-54.29
-46.10
-36.20
-25.37
-14.14
-2.80
8.52
19.60
30.02
39.21
46.65
51.97
55.03
55.91
54.81
52.07
48.20
43.91
40.09
37.60
37.02
38.50
41.73
45.99
50.38
53.91
55.71
55.12
51.87
46.06
38.13
28.58
17.80
5.92
-7.01
-20.82
-34.96
-48.45
-60.10
-68.77
-73.65
-74.37
-71.00
-64.05
-54.55
-44.04
-34.42
-27.58
-24.81
-26.35
-31.34
-38.09
-44.79
-50.06
-53.36
-54.90
-55.28
-55.07
-54.45
-53.08
-50.27
-45.35
-38.07
-28.87
-18.89
-9.65
-2.50
1.83
3.53
3.51
3.09
3.45
5.25
8.52
12.76
17.24
21.22
24.09
25.52
25.41
24.03
21.94
19.92
18.83
19.34
21.76
25.94
31.30
37.02
42.28
46.43
49.10
50.16
49.60
47.42
43.54
37.80
30.04
20.33
8.98
-3.34
-15.75
-27.28
-37.03
-44.25
-48.48
-49.57
-47.84
-44.05
-39.30
-34.69
-31.07
-28.80
-27.70
-27.21
-26.69
-25.64
-23.91
-21.72
-19.54
-17.85
-16.78
-15.86
-14.13
-10.47
-4.18
4.61
14.89
25.21
34.30
41.57
47.14
51.41
54.60
56.54
56.81
55.28
52.44
49.40
47.52
47.74
50.27
54.67
60.40
67.33
75.99
87.15
101.00
116.22
129.82
137.76
136.45
124.36
102.83
75.73
48.01
23.93
5.81
-6.20
-13.26
-16.71
-17.18
-14.55
-8.43
1.06
12.80
24.82
35.07
42.23
46.18
47.93
48.99
50.48
52.79
55.72
59.21
63.66
69.41
75.61
79.24
75.35
58.97
28.23
-13.37
-57.48
-94.14
-116.03
-121.27
-113.29
-98.11
-81.17
-65.46
-51.96
-41.24
-34.89
-35.16
-43.41
-58.52
-76.71
-93.24
-104.83
-111.18
-114.59
-117.99
-122.72
-127.78
-130.50
-127.91
-118.22
-101.48
-79.54
-55.56
-33.31
-16.83
-9.50
-12.19
-21.31
-28.70
-24.35
-1.05
41.17
93.77
142.62
174.03
180.68
164.55
134.77
102.27
74.98
55.65
42.86
33.80
26.58
19.63
13.13
8.39
6.69
8.23
11.31
13.43
13.03
10.72
9.01
10.55
17.18
27.36
37.17
41.93
38.33
25.64
5.48
-19.15
-45.30
-67.73
-83.41
-91.05
-91.38
-86.85
-80.78
-75.75
-72.31
-68.44
-60.53
-45.78
-23.49
4.39
34.03
61.26
83.16
98.87
109.48
117.27
124.18
131.39
138.71
144.76
147.50
145.12
137.03
124.04
107.89
89.92
70.68
49.99
27.76
4.77
-17.21
-36.11
-50.65
-61.09
-69.26
-77.52
-87.47
-99.11
-110.70
-119.51
-123.08
-120.32
-112.11
-101.00
-90.21
-82.18
-77.57
-74.77
-70.70
-61.94
-46.31
-23.66
4.06
33.70
62.01
86.48
105.76
119.89
130.78
142.24
159.11
185.06
219.88
257.75
287.92
298.31
280.59
234.33
167.78
94.52
27.83
-24.48
-62.14
-90.65
-117.19
-146.84
-180.84
-217.48
-254.03
-288.15
-318.12
-342.05
-357.27
-360.89
-351.53
-331.05
-304.71
-279.33
-260.23
-248.92
-242.94
-237.88
-230.33
-219.86
-208.61
-199.29
-192.67
-186.64
-177.28
-161.21
-137.70
-109.24
-80.32
-55.15
-35.79
-21.59
-10.14
0.93
12.62
24.23
34.02
40.51
43.48
43.91
43.27
42.44
41.11
37.97
31.53
20.91
6.24
-11.55
-31.15
-51.18
-70.21
-86.72
-99.25
-106.90
-109.62
-108.29
-104.19
-98.27
-90.57
-80.24
-65.93
-46.59
-22.16
6.15
36.00
64.51
89.03
108.08
121.68
131.23
138.61
145.08
150.56
153.75
153.11
148.07
139.63
129.89
120.75
112.74
104.78
95.07
82.36
66.90
50.23
34.43
21.32
12.11
7.59
8.21
13.84
23.21
33.72
41.89
44.62
40.42
29.96
15.62
0.08
-14.91
-28.96
-42.56
-56.20
-69.67
-82.04
-92.17
-99.33
-103.55
-105.70
-107.11
-109.00
-112.15
-116.52
-121.30
-125.21
-126.96
-125.85
-122.11
-116.90
-111.89
-108.42
-106.72
-105.50
-102.37
-94.74
-81.02
-61.40
-37.76
-12.88
10.81
32.03
50.76
67.56
82.86
96.38
107.30
114.97
119.51
122.11
124.51
128.29
134.10
141.41
148.74
154.36
156.87
155.61
150.71
142.81
132.76
121.34
109.22
96.89
84.72
72.99
61.90
51.73
42.82
35.66
30.81
28.78
29.87
34.00
40.59
48.57
56.61
63.36
67.77
69.30
68.06
64.68
60.09
55.17
50.46
46.09
41.80
37.15
31.77
25.54
18.52
10.91
2.81
-5.73
-14.72
-24.12
-33.85
-43.79
-53.86
-63.92
-73.67
-82.52
-89.69
-94.47
-96.53
-95.97
-93.10
-87.94
-80.02
-68.66
-53.72
-36.29
-18.72
-3.72
6.97
13.35
16.84
19.08
20.58
20.46
17.37
10.79
1.65
-8.38
-18.39
-29.40
-43.98
-64.74
-92.45
-125.28
-159.65
-192.02
-220.42
-244.77
-265.82
-283.58
-296.53
-301.99
-297.31
-281.22
-254.56
-219.88
-180.48
-139.26
-97.95
-57.18
-17.04
21.98
58.43
90.14
115.06
132.31
142.67
148.22
151.37
153.66
155.31
155.52
153.27
148.20
141.03
133.31
126.72
122.18
119.36
116.60
111.46
101.70
86.22
65.84
43.18
22.00
5.88
-3.00
-4.60
-0.83
5.24
10.46
12.42
9.71
1.90
-10.81
-27.84
-48.32
-70.94
-93.87
-114.73
-131.00
-140.54
-142.33
-136.76
-125.62
-111.47
-96.67
-82.53
-69.01
-55.17
-40.22
-24.61
-10.19
0.38
5.23
4.57
1.15
-0.77
2.87
14.14
32.49
55.23
79.00
101.32
121.52
140.83
161.67
186.39
215.91
248.90
281.59
308.55
324.56
326.53
314.89
293.76
269.32
247.43
231.51
221.54
214.74
207.26
196.03
180.03
160.58
140.53
122.81
109.02
98.42
88.01
73.53
51.13
19.15
-20.77
-63.74
-102.91
-131.46
-144.74
-141.73
-125.32
-101.93
-80.04
-68.17
-72.38
-93.90
-128.06
-165.07
-193.20
-203.16
-191.83
-163.36
-126.99
-92.75
-67.31
-52.19
-44.77
-41.20
-38.98
-37.78
-38.31
-40.71
-43.71
-45.33
-44.38
-41.34
-38.09
-36.50
-37.00
-38.00
-36.65
-30.36
-17.96
-0.35
19.98
39.98
56.96
69.33
76.82
80.19
80.87
80.41
79.95
79.99
80.19
79.70
77.48
72.77
65.39
55.86
45.18
34.48
24.52
15.47
6.85
-2.10
-12.03
-23.10
-34.83
-46.26
-56.32
-64.16
-69.40
-72.07
-72.37
-70.45
-66.20
-59.44
-50.22
-39.15
-27.49
-16.87
-8.71
-3.67
-1.37
-0.50
0.47
2.70
6.47
11.29
16.18
20.19
22.74
23.67
23.09
21.24
18.48
15.22
11.98
9.26
7.38
6.27
5.53
4.71
3.63
2.73
3.02
5.60
11.16
19.50
29.47
39.35
47.41
52.42
53.85
51.86
47.10
40.58
33.47
27.02
22.17
19.27
17.84
16.68
14.21
9.20
1.22
-9.17
-20.61
-31.47
-40.36
-46.45
-49.63
-50.34
-49.45
-48.02
-47.05
-47.21
-48.59
-50.55
-51.86
-51.11
-47.21
-39.85
-29.60
-17.68
-5.48
5.79
15.36
22.81
27.89
30.36
30.03
26.95
21.66
15.23
9.04
4.45
2.37
3.09
6.19
10.83
15.98
20.72
24.40
26.68
27.51
27.00
25.43
23.10
20.37
17.61
15.23
13.66
13.23
14.02
15.75
17.89
19.89
21.53
23.01
24.88
27.51
30.76
33.70
34.96
33.17
27.64
18.58
7.09
-5.32
-17.21
-27.57
-36.00
-42.64
-47.98
-52.64
-57.14
-61.70
-66.06
-69.59
-71.53
-71.34
-69.03
-65.17
-60.62
-56.15
-52.10
-48.16
-43.66
-37.86
-30.29
-21.00
-10.49
0.42
10.77
19.60
26.16
30.03
31.35
30.81
29.65
29.24
30.74
34.73
40.99
48.56
55.99
61.85
65.17
65.76
64.23
61.73
59.47
58.30
58.38
59.11
59.26
57.33
51.99
42.60
29.74
15.28
2.01
-7.24
-10.71
-8.43
-2.30
4.69
9.55
10.36
6.76
-0.31
-9.18
-18.25
-26.29
-32.64
-37.06
-39.68
-41.02
-42.02
-43.80
-47.30
-52.66
-58.90
-64.14
-66.30
-64.01
-57.31
-47.62
-37.13
-27.90
-21.16
-17.29
-16.08
-17.12
-20.02
-24.17
-28.69
-32.36
-33.99
-32.88
-29.02
-23.01
-15.64
-7.53
1.05
10.03
19.29
28.46
37.03
44.54
50.81
55.97
60.24
63.71
66.26
67.66
67.78
66.70
64.70
62.01
58.59
54.25
48.77
42.26
35.15
27.95
20.94
13.99
6.74
-1.08
-9.27
-17.21
-24.12
-29.58
-33.65
-36.77
-39.37
-41.56
-43.23
-44.30
-45.12
-46.43
-48.94
-52.72
-56.86
-59.58
-59.05
-54.31
-45.90
-35.72
-26.19
-19.17
-15.27
-13.78
-13.29
-12.60
-11.26
-9.61
-8.49
-8.74
-10.87
-14.99
-20.76
-27.51
-34.06
-38.90
-40.44
-37.46
-29.56
-17.38
-2.43
13.39
28.30
41.12
51.30
58.92
64.43
68.42
71.44
73.91
76.08
77.93
79.10
78.88
76.31
70.50
60.98
48.05
32.77
16.79
1.75
-11.18
-21.59
-29.81
-36.54
-42.55
-48.26
-53.70
-58.57
-62.44
-64.97
-66.12
-66.08
-65.19
-63.59
-60.96
-56.49
-49.11
-38.16
-23.88
-7.75
7.88
20.61
28.92
32.78
33.52
33.08
32.99
33.71
34.70
34.97
33.91
31.65
28.84
25.99
22.97
18.94
12.96
4.73
-4.86
-13.91
-20.18
-22.06
-19.14
-12.30
-3.13
6.77
16.30
25.07
33.25
41.13
48.78
55.79
61.42
64.81
65.38
63.05
58.28
51.91
44.83
37.75
31.02
24.59
18.11
11.09
3.06
-6.27
-16.84
-28.24
-39.79
-50.78
-60.64
-69.21
-76.67
-83.49
-90.00
-96.01
-100.61
-102.17
-98.79
-88.98
-72.37
-50.07
-24.48
1.37
24.72
43.86
58.36
68.73
75.92
80.71
83.44
84.02
82.08
77.27
69.48
59.06
46.96
34.62
23.77
15.97
12.21
12.62
16.59
23.01
30.66
38.39
45.29
50.66
54.13
55.79
56.27
56.69
58.32
62.23
68.92
78.23
89.39
101.27
112.81
123.21
132.18
139.80
146.41
152.45
158.27
164.19
170.33
176.45
181.69
184.55
183.18
176.13
162.79
143.65
120.06
93.65
65.79
37.36
8.89
-19.22
-46.68
-73.53
-100.33
-127.73
-155.45
-181.28
-200.84
-208.63
-199.82
-172.03
-126.52
-68.01
-3.40
59.88
115.16
157.41
183.15
191.27
183.45
163.71
137.35
109.48
84.02
62.79
45.81
31.06
16.65
1.96
-12.62
-26.49
-39.56
-51.93
-64.13
-76.28
-89.45
-103.67
-117.50
-129.11
-137.57
-143.61
-148.57
-154.88
-165.15
-183.90
-214.12
-255.36
-303.36
-350.43
-387.86
-408.22
-409.57
-382.11
-327.70
-259.40
-194.40
-143.59
-107.46
-85.86
-72.52
-64.41
-60.11
-59.87
-62.03
-60.26
-50.46
-32.36
-9.90
11.77
27.85
36.62
37.86
33.61
27.28
21.90
18.98
18.40
20.02
23.35
28.25
33.88
39.60
45.12
50.18
54.64
58.26
61.17
63.25
64.38
63.88
61.24
56.44
49.89
42.36
34.59
27.32
20.80
15.03
9.72
4.64
-0.23
-4.80
-8.95
-12.69
-16.08
-19.39
-22.86
-26.58
-30.40
-33.94
-36.67
-37.97
-37.40
-34.75
-30.17
-24.08
-17.01
-9.41
-1.63
6.20
13.99
21.60
28.78
35.21
40.64
44.96
48.26
50.68
52.38
53.42
53.82
53.58
52.72
51.36
49.69
48.01
46.73
46.23
46.83
48.63
51.33
54.33
56.95
58.67
59.45
59.88
60.91
63.61
68.83
76.50
85.89
95.86
105.35
113.75
121.39
128.83
136.72
145.47
153.99
160.27
161.88
156.93
144.94
127.91
108.95
91.79
79.40
71.35
64.55
54.26
36.20
8.30
-27.99
-70.14
-114.82
-158.30
-198.05
-231.24
-254.73
-266.15
-265.44
-254.76
-240.06
-227.66
-211.87
-187.21
-149.86
-100.89
-46.82
-2.94
26.58
40.59
40.32
29.34
13.87
0.51
-4.56
2.08
19.04
41.00
58.84
64.87
56.64
36.59
10.68
-14.84
-36.44
-53.95
-68.35
-81.41
-93.58
-104.11
-113.63
-124.65
-140.98
-165.81
-199.34
-236.97
-271.14
-293.23
-296.75
-280.11
-246.90
-203.76
-157.35
-111.84
-68.19
-25.99
14.67
51.91
82.37
102.94
112.74
113.85
110.18
105.43
101.16
96.52
89.64
79.38
66.52
53.52
43.21
37.31
35.54
36.01
36.23
34.35
29.88
23.74
17.64
13.37
12.03
13.79
18.09
24.07
31.01
38.65
46.98
55.98
65.27
73.89
80.60
84.27
84.43
81.48
76.48
70.66
64.91
59.58
54.61
50.02
46.38
44.81
46.45
51.64
59.20
66.62
70.95
70.10
63.87
54.19
44.29
37.63
36.86
43.32
57.00
76.57
99.40
121.81
139.65
149.37
149.22
139.93
124.47
106.81
90.32
76.60
65.16
54.18
41.67
26.64
9.53
-7.97
-23.70
-35.83
-43.64
-47.61
-49.22
-50.25
-51.94
-54.63
-57.68
-59.98
-60.42
-58.31
-53.34
-45.53
-34.99
-22.03
-7.32
8.25
23.75
38.76
53.55
68.79
84.84
100.81
114.40
122.71
123.64
117.29
106.28
94.58
85.52
80.02
75.84
68.62
53.75
28.58
-6.36
-47.27
-88.35
-123.50
-148.11
-160.21
-160.54
-151.87
-137.81
-121.63
-105.58
-90.96
-78.58
-69.14
-63.21
-60.76
-60.70
-60.90
-58.94
-53.24
-43.88
-32.77
-22.86
-17.06
-17.26
-23.98
-36.55
-53.59
-73.47
-94.49
-114.98
-133.21
-147.59
-156.66
-159.46
-155.74
-146.22
-132.65
-117.39
-102.40
-88.17
-73.22
-54.81
-30.84
-1.77
28.48
53.51
67.19
66.65
53.88
35.21
18.48
9.79
10.91
19.16
29.06
34.91
33.06
22.74
5.78
-14.56
-34.61
-50.98
-60.73
-61.77
-53.53
-37.56
-17.61
1.66
16.78
27.29
36.03
47.45
64.73
87.42
111.05
128.92
135.29
127.86
108.47
81.82
53.14
26.47
4.25
-11.92
-20.38
-19.28
-7.34
14.89
44.25
75.36
102.19
120.07
127.14
124.60
115.52
103.19
89.60
75.02
58.63
39.47
17.39
-6.69
-31.23
-54.62
-75.68
-93.70
-108.32
-119.25
-126.25
-128.94
-126.74
-118.96
-104.93
-84.46
-58.45
-29.28
-0.67
23.09
38.42
43.58
39.21
27.95
13.58
-0.26
-10.96
-17.31
-19.48
-18.61
-16.25
-13.97
-13.15
-14.97
-20.41
-30.02
-43.40
-58.80
-73.19
-83.03
-85.74
-80.82
-70.20
-57.44
-46.19
-38.65
-35.15
-34.58
-35.61
-37.47
-40.06
-43.37
-46.72
-48.61
-47.15
-41.02
-29.95
-14.87
2.50
20.30
37.02
51.53
63.08
71.30
76.13
77.94
77.44
75.37
72.16
67.61
61.10
52.08
40.61
27.60
14.55
2.85
-6.86
-14.91
-22.34
-30.22
-39.14
-48.98
-58.92
-67.78
-74.12
-76.42
-73.31
-63.89
-48.11
-27.02
-2.61
22.68
46.71
68.03
85.94
100.16
110.56
116.91
118.95
116.57
110.00
99.78
86.74
71.93
56.53
41.62
27.78
14.93
2.33
-10.88
-25.12
-39.89
-53.86
-65.49
-73.82
-78.98
-82.07
-84.36
-86.44
-87.74
-86.63
-81.28
-70.55
-54.64
-35.15
-14.42
5.29
22.60
37.25
49.91
61.51
72.62
83.20
92.77
100.77
106.87
111.04
113.33
113.45
110.70
104.21
93.48
79.03
62.57
46.58
33.28
23.62
16.97
11.62
5.91
-0.88
-8.36
-15.52
-21.64
-26.78
-31.46
-35.95
-39.60
-41.03
-38.79
-32.20
-21.72
-8.78
4.78
17.23
27.08
33.17
34.73
31.82
25.72
18.79
14.02
13.96
19.81
30.93
45.04
58.93
69.33
73.70
70.81
61.16
46.98
31.71
19.07
11.80
10.65
13.89
17.94
18.60
12.86
0.18
-17.27
-35.47
-50.26
-58.92
-61.22
-59.18
-56.15
-55.28
-58.43
-65.66
-75.65
-86.40
-95.70
-101.12
-100.06
-90.21
-70.66
-43.06
-11.88
16.62
36.60
44.91
42.15
31.95
18.89
6.39
-4.39
-14.05
-23.59
-33.23
-42.07
-48.69
-52.04
-51.95
-49.06
-44.36
-38.75
-32.83
-26.98
-21.57
-17.01
-13.58
-11.04
-8.52
-4.59
2.25
12.89
27.15
43.59
59.84
73.24
81.41
82.78
76.78
63.84
45.26
22.98
-0.83
-24.11
-45.25
-63.32
-78.01
-89.54
-98.42
-105.26
-110.53
-114.46
-116.71
-116.32
-111.72
-101.14
-83.44
-58.80
-29.10
2.35
31.71
55.79
72.96
83.38
88.63
90.84
91.76
92.31
92.67
92.75
92.63
92.70
93.51
95.30
97.79
100.11
101.28
100.69
98.47
95.52
92.94
91.41
90.78
89.99
87.64
82.49
73.98
62.47
49.14
35.74
24.06
15.55
10.80
9.28
9.28
8.22
3.24
-7.98
-26.65
-52.38
-83.24
-115.85
-145.87
-168.71
-180.59
-179.57
-166.42
-144.70
-119.98
-98.16
-83.69
-78.35
-81.08
-88.88
-98.30
-106.76
-113.17
-117.58
-120.45
-121.87
-121.36
-118.22
-112.06
-103.20
-92.60
-81.47
-70.77
-61.10
-52.65
-45.50
-39.77
-35.53
-32.62
-30.60
-28.91
-27.25
-26.00
-26.32
-29.66
-37.00
-48.09
-61.24
-73.85
-83.33
-88.01
-87.54
-82.65
-74.50
-64.14
-52.33
-39.72
-27.02
-15.07
-4.54
4.20
11.26
17.08
22.32
27.67
33.89
41.63
51.25
62.52
74.53
85.89
95.28
101.98
106.13
108.36
109.30
108.95
106.61
101.19
91.81
78.38
61.78
43.56
25.40
8.51
-6.48
-19.51
-30.47
-38.90
-43.71
-43.49
-37.06
-23.99
-5.12
17.34
40.15
59.60
72.37
76.29
71.21
59.22
44.28
30.99
23.05
21.92
26.32
32.89
37.62
37.48
31.43
20.43
6.62
-7.75
-21.09
-32.73
-42.71
-51.41
-59.38
-67.06
-74.76
-82.53
-90.07
-96.90
-102.61
-106.91
-109.64
-110.68
-109.74
-106.24
-99.32
-88.10
-71.93
-50.75
-25.23
3.18
32.31
59.55
82.07
97.17
102.90
98.65
85.76
67.86
50.56
39.91
40.08
51.23
68.85
85.67
95.04
94.19
85.36
74.20
66.35
64.43
67.04
70.42
71.27
69.04
66.44
67.98
77.85
98.23
128.92
167.73
211.18
255.07
294.84
326.15
345.39
350.06
339.11
313.39
275.87
231.58
187.03
148.61
120.80
104.56
97.37
94.49
91.35
85.43
76.90
67.78
60.34
55.83
53.97
53.47
52.70
50.31
45.26
36.76
24.41
8.63
-8.93
-25.27
-36.73
-40.12
-34.02
-19.41
0.42
20.84
37.30
46.47
46.96
39.38
25.87
9.42
-6.92
-21.18
-33.41
-45.84
-62.11
-85.18
-115.28
-148.89
-179.53
-200.33
-206.92
-199.39
-182.26
-162.62
-147.46
-141.45
-146.09
-160.19
-180.95
-204.90
-228.33
-247.31
-257.86
-256.44
-240.92
-211.67
-171.94
-127.39
-84.56
-49.00
-23.73
-8.89
-2.32
-0.76
-0.93
-0.08
3.80
11.86
24.03
38.98
54.20
66.69
73.93
74.89
70.65
64.59
61.37
65.45
79.24
101.67
127.96
150.80
163.02
160.52
144.29
120.57
98.75
87.70
92.15
110.57
135.66
157.08
165.34
155.15
127.10
86.85
42.62
2.38
-28.15
-46.14
-51.14
-44.50
-28.96
-8.46
12.26
28.56
37.03
36.15
26.02
7.62
-17.79
-48.44
-81.64
-113.50
-140.04
-158.89
-170.58
-178.07
-184.43
-190.05
-191.65
-184.07
-163.88
-132.15
-94.41
-57.84
-27.67
-5.51
9.44
17.73
17.75
6.22
-19.26
-57.71
-103.86
-149.69
-187.17
-210.69
-217.83
-208.96
-186.29
-153.34
-114.64
-75.37
-40.44
-13.38
4.26
12.80
13.62
8.40
-1.38
-14.31
-28.82
-42.90
-54.26
-60.77
-60.91
-54.17
-40.90
-22.09
1.01
27.03
54.54
82.04
108.00
130.93
149.54
162.76
169.67
169.71
162.97
150.54
134.75
118.96
106.81
101.03
102.16
107.94
113.64
113.42
102.41
78.68
44.16
4.16
-34.48
-65.97
-87.79
-101.44
-111.28
-122.11
-136.73
-154.48
-171.94
-184.67
-189.28
-184.78
-172.62
-155.91
-137.71
-120.36
-105.15
-92.86
-83.98
-78.59
-75.97
-74.28
-71.18
-64.95
-55.81
-46.00
-38.78
-36.67
-39.91
-46.28
-52.24
-54.93
-53.71
-50.20
-46.96
-45.55
-45.59
-45.15
-42.48
-37.22
-30.69
-24.69
-19.81
-14.73
-6.91
5.34
21.52
38.60
52.68
61.42
65.71
69.35
76.77
90.24
108.47
127.43
142.86
152.54
156.92
157.93
157.15
154.77
150.06
142.84
134.53
127.93
125.67
128.50
134.51
140.39
143.93
145.87
149.89
160.25
178.77
203.12
227.53
245.68
253.99
253.15
247.28
241.15
237.34
235.14
231.60
223.93
211.47
196.03
180.35
166.06
152.41
136.74
116.11
89.16
56.98
22.73
-9.74
-37.51
-59.73
-77.50
-93.15
-109.21
-127.67
-149.64
-174.92
-201.42
-224.92
-239.77
-240.88
-226.48
-200.05
-170.02
-146.76
-138.26
-146.85
-168.72
-196.36
-222.28
-241.99
-254.61
-261.67
-265.15
-266.42
-266.42
-266.33
-267.73
-271.89
-278.62
-285.71
-289.16
-284.76
-269.93
-245.06
-213.51
-180.45
-150.89
-127.92
-111.74
-100.01
-89.19
-76.21
-59.64
-40.00
-19.10
0.96
18.72
33.71
46.34
57.42
67.76
77.88
88.05
98.45
109.39
121.40
135.07
150.58
167.40
184.35
200.04
213.45
224.19
232.17
237.04
237.56
231.92
218.83
198.81
174.57
149.86
127.66
108.83
92.61
78.36
67.20
61.73
63.84
71.87
79.71
79.01
63.59
33.28
-5.33
-41.94
-67.56
-78.39
-76.28
-66.09
-52.08
-36.03
-17.81
2.65
23.78
42.42
55.33
60.88
59.66
53.86
45.83
37.14
28.52
20.20
12.48
5.70
-0.06
-5.36
-11.21
-18.40
-26.65
-34.37
-39.18
-39.14
-34.07
-26.31
-20.32
-21.46
-33.95
-58.92
-93.36
-130.52
-161.72
-179.13
-178.16
-158.76
-125.18
-84.42
-44.19
-11.12
10.40
18.79
15.34
3.78
-10.82
-23.83
-32.59
-36.92
-38.49
-39.42
-41.13
-44.08
-48.46
-54.88
-64.27
-76.72
-90.41
-101.39
-105.05
-98.45
-82.28
-60.84
-40.01
-24.27
-14.43
-7.72
0.43
13.69
33.09
56.91
81.79
104.49
122.70
135.09
140.89
139.87
132.88
122.45
112.26
105.77
104.53
107.23
110.61
111.40
108.13
101.54
93.48
85.48
78.12
71.41
65.56
61.10
58.18
55.67
51.04
41.70
26.76
7.93
-11.14
-26.83
-37.26
-42.74
-44.80
-44.46
-41.50
-34.91
-24.25
-10.59
3.56
15.35
22.84
25.54
24.21
19.88
13.27
4.77
-5.00
-14.73
-22.52
-26.59
-26.15
-21.80
-15.29
-8.57
-2.98
1.25
4.76
8.50
13.32
19.75
27.95
37.75
48.52
59.24
68.80
76.63
83.27
90.42
100.43
115.42
136.27
162.04
190.12
216.87
238.75
253.38
260.09
259.75
254.25
245.62
235.47
224.66
213.47
201.76
189.04
174.41
156.47
133.54
104.05
67.44
24.69
-21.67
-68.17
-111.78
-151.13
-187.09
-222.07
-258.18
-295.55
-331.80
-363.05
-385.93
-398.82
-401.58
-394.06
-374.93
-342.32
-296.58
-242.92
-191.58
-153.95
-136.79
-137.88
-146.65
-149.66
-137.54
-109.55
-72.92
-37.79
-11.85
2.24
5.97
2.06
-7.67
-22.45
-41.48
-62.83
-83.86
-102.47
-117.94
-130.38
-139.35
-142.67
-137.11
-120.17
-92.18
-56.99
-20.67
11.19
35.75
53.29
65.79
74.76
80.02
80.23
74.57
64.05
51.84
41.75
35.78
32.73
28.56
18.39
-0.78
-28.46
-60.90
-92.72
-119.04
-136.96
-145.84
-146.89
-142.28
-134.59
-126.16
-118.76
-113.18
-109.16
-105.33
-99.64
-89.99
-74.89
-53.98
-28.23
0.38
29.41
56.67
80.73
101.19
118.57
133.88
148.14
161.69
173.69
182.08
184.05
177.17
160.65
136.06
107.29
79.42
57.23
43.90
40.45
46.05
58.82
76.72
98.02
121.27
145.07
167.80
187.50
202.29
210.81
212.86
209.59
203.35
196.91
192.44
190.76
190.94
190.61
186.76
176.62
158.57
132.63
100.74
66.78
36.27
15.59
10.63
24.72
56.67
99.90
143.49
175.09
184.78
168.18
127.47
69.92
4.79
-59.97
-119.36
-171.50
-216.57
-255.75
-290.83
-324.58
-360.79
-403.43
-454.50
-511.81
-568.02
-612.24
-633.45
-625.08
-587.76
-529.13
-460.50
-392.35
-330.77
-276.74
-228.07
-182.67
-140.59
-104.29
-76.66
-58.68
-48.18
-40.12
-28.18
-6.50
28.68
77.57
136.36
197.42
250.74
286.41
297.88
284.52
252.48
212.91
178.16
157.63
154.95
167.73
189.65
213.57
233.98
247.94
254.88
255.68
252.00
245.70
238.38
230.86
222.68
211.90
195.49
170.09
133.00
82.95
20.75
-50.20
-123.59
-190.82
-242.56
-271.40
-274.62
-255.76
-224.06
-191.46
-168.44
-160.39
-166.26
-179.90
-193.09
-199.02
-194.47
-180.02
-158.74
-134.29
-109.51
-85.94
-64.09
-44.00
-25.47
-8.01
9.18
26.93
45.67
64.98
83.42
98.89
109.19
112.55
108.25
96.79
80.04
60.98
43.06
29.21
20.88
17.60
17.33
17.41
15.70
11.23
4.27
-4.12
-12.55
-19.74
-24.67
-26.67
-25.52
-21.54
-15.46
-8.11
0.13
9.63
21.26
35.66
52.28
69.06
83.06
91.86
95.14
95.18
95.84
100.49
109.92
121.42
129.72
129.33
116.83
92.44
59.85
24.93
-6.24
-28.98
-40.98
-42.69
-37.12
-29.09
-23.73
-24.61
-32.05
-42.86
-51.67
-53.40
-45.56
-29.20
-7.96
14.08
34.28
52.17
68.78
85.24
101.70
117.14
129.73
137.69
139.91
136.31
127.98
116.94
105.27
93.91
81.90
66.60
45.31
17.35
-14.63
-45.04
-67.55
-78.02
-76.35
-66.40
-53.99
-44.27
-39.90
-40.69
-44.52
-48.83
-51.47
-50.77
-45.29
-33.45
-13.72
14.86
51.90
95.16
140.66
183.64
219.78
246.33
262.57
269.47
268.89
262.64
252.06
237.89
220.48
199.98
176.10
147.82
113.47
71.67
23.17
-27.31
-71.10
-98.18
-101.68
-82.16
-48.98
-17.48
-3.06
-14.79
-52.03
-105.41
-161.27
-207.03
-234.68
-241.48
-228.76
-200.51
-162.67
-122.75
-88.64
-66.62
-59.05
-63.53
-73.85
-82.80
-85.32
-80.10
-69.38
-57.06
-46.48
-39.15
-34.77
-32.01
-29.61
-26.94
-23.96
-20.95
-18.35
-16.72
-16.89
-19.77
-25.95
-35.05
-45.42
-54.32
-58.93
-57.60
-50.69
-40.42
-29.93
-21.76
-16.89
-14.59
-13.21
-11.09
-7.32
-1.74
5.37
13.68
22.95
32.90
43.03
52.65
61.12
68.16
74.01
79.17
83.76
87.07
87.47
82.98
72.19
55.07
33.11
8.91
-14.64
-35.01
-50.40
-59.77
-62.75
-59.65
-51.47
-39.80
-26.43
-12.88
-0.02
11.95
23.14
33.55
42.77
50.13
55.10
57.76
58.94
60.02
62.36
66.74
72.90
79.60
85.11
87.98
87.69
85.00
81.51
78.97
78.34
79.27
80.17
78.89
73.68
63.90
50.22
34.28
17.97
2.83
-10.11
-20.32
-27.62
-31.95
-33.49
-32.70
-30.23
-26.25
-19.87
-9.05
8.47
33.48
63.93
95.03
120.80
136.81
141.95
138.52
130.41
120.30
107.95
90.02
62.33
23.01
-25.24
-74.73
-114.77
-135.00
-129.02
-96.97
-46.11
11.09
61.06
93.56
104.59
96.29
74.30
43.84
7.46
-34.83
-83.11
-134.81
-183.72
-221.70
-241.94
-241.57
-222.87
-191.84
-155.87
-121.27
-91.70
-67.58
-46.25
-23.34
5.19
40.64
80.22
117.71
145.94
160.27
160.64
151.03
136.60
120.46
102.18
79.35
50.67
18.36
-11.91
-33.87
-43.98
-43.43
-37.22
-31.31
-29.35
-31.28
-34.21
-34.73
-31.01
-23.46
-14.02
-4.84
2.51
6.98
7.53
2.96
-7.57
-23.76
-43.71
-64.41
-82.98
-97.97
-109.80
-120.09
-130.32
-140.65
-149.77
-155.62
-156.58
-152.17
-143.21
-131.41
-118.82
-107.39
-98.56
-92.75
-88.80
-83.91
-74.11
-55.75
-27.25
9.48
49.09
84.31
108.44
117.55
111.43
93.09
67.23
38.54
10.59
-14.67
-36.50
-54.75
-69.18
-79.22
-84.21
-83.92
-78.96
-70.88
-61.86
-54.03
-48.99
-47.38
-49.15
-53.91
-61.28
-70.94
-82.23
-93.91
-104.03
-110.48
-111.48
-106.13
-94.50
-77.44
-56.37
-32.98
-9.22
12.87
31.45
45.29
54.14
58.79
60.74
61.69
62.98
65.27
68.60
72.49
76.24
79.18
80.79
80.82
79.25
76.28
72.19
67.20
61.45
54.88
47.27
38.17
27.23
14.45
0.53
-13.16
-24.80
-32.72
-35.90
-34.21
-28.32
-19.21
-7.75
5.61
20.64
36.98
53.72
69.36
82.16
90.70
94.27
93.10
88.17
80.82
72.46
64.26
57.11
51.50
47.41
44.40
42.02
40.71
42.30
49.51
64.45
87.01
114.15
140.96
162.77
176.93
183.35
183.20
176.94
163.33
140.29
107.08
65.91
21.82
-19.25
-52.65
-76.31
-90.22
-95.15
-91.78
-80.98
-64.78
-46.67
-31.02
-21.46
-19.45
-23.79
-31.32
-38.50
-42.77
-43.27
-40.55
-36.03
-31.25
-27.43
-24.99
-23.37
-21.31
-17.52
-11.31
-2.99
6.12
14.30
20.08
22.61
21.69
17.32
9.51
-1.92
-16.87
-34.66
-53.82
-72.38
-88.42
-100.67
-108.70
-112.78
-113.55
-111.72
-107.91
-102.69
-96.45
-89.37
-81.67
-73.78
-66.65
-61.69
-60.32
-63.25
-70.02
-79.05
-88.23
-95.62
-99.69
-99.20
-93.21
-81.41
-64.71
-45.56
-27.26
-12.75
-3.35
1.94
5.77
10.98
19.41
31.20
45.52
61.44
78.47
96.16
113.90
130.59
144.84
155.69
162.70
166.25
167.27
166.35
162.63
154.83
142.32
125.69
106.80
86.88
66.34
44.98
22.56
-1.13
-24.63
-45.32
-60.99
-70.84
-77.13
-82.97
-90.04
-97.86
-105.42
-111.06
-113.56
-112.69
-108.32
-101.80
-94.22
-85.90
-69.01
-40.27
-2.13
38.37
68.99
88.76
98.52
98.68
91.31
77.72
58.84
37.35
17.43
3.47
-1.05
3.27
13.33
25.57
37.28
46.74
53.96
59.58
63.47
64.65
60.22
47.85
27.53
1.71
-25.95
-51.42
-71.65
-85.40
-92.94
-96.40
-98.12
-99.61
-101.31
-102.76
-102.57
-98.62
-88.57
-70.37
-43.44
-8.86
30.59
70.85
107.65
137.53
158.73
171.16
175.91
174.34
167.60
156.53
141.89
124.61
106.02
87.58
70.61
55.93
43.65
33.22
23.76
14.43
4.76
-5.15
-14.68
-22.88
-28.79
-31.81
-31.82
-29.32
-25.17
-20.36
-15.68
-11.58
-8.18
-5.46
-3.55
-2.73
-3.33
-5.43
-8.65
-12.14
-14.90
-16.40
-16.86
-17.42
-19.54
-24.37
-32.09
-41.53
-50.56
-56.89
-58.94
-56.32
-49.85
-41.07
-31.61
-22.97
-16.43
-13.14
-13.98
-19.07
-27.33
-36.59
-44.26
-48.34
-48.21
-44.62
-39.17
-33.45
-28.62
-25.39
-24.34
-25.97
-30.39
-36.91
-44.10
-50.44
-55.28
-59.33
-64.30
-71.65
-81.37
-91.59
-99.47
-102.55
-100.01
-92.98
-83.79
-74.67
-66.82
-60.15
-53.79
-46.87
-39.02
-30.39
-21.37
-12.37
-3.79
3.68
8.95
10.98
9.52
6.06
4.08
8.11
21.76
45.95
77.98
112.02
140.90
158.36
160.97
149.02
126.12
97.73
69.13
43.51
21.22
0.40
-21.47
-45.77
-71.94
-97.88
-121.11
-139.81
-153.00
-160.06
-160.25
-152.98
-138.60
-119.24
-98.61
-80.70
-68.29
-62.00
-60.48
-61.26
-61.91
-60.53
-55.97
-48.06
-38.07
-28.73
-23.57
-25.45
-35.23
-51.40
-70.93
-90.87
-109.47
-126.37
-141.91
-156.16
-168.60
-178.39
-184.93
-188.10
-188.03
-184.77
-178.07
-167.68
-153.80
-137.10
-118.57
-99.07
-79.39
-60.42
-43.37
-29.53
-19.59
-13.01
-7.99
-2.17
6.25
17.71
31.06
44.22
55.18
62.80
67.03
68.54
68.06
65.79
61.37
54.22
44.22
32.20
20.01
10.04
4.45
4.41
9.80
19.44
31.71
45.19
59.00
72.64
85.69
97.41
106.72
112.49
114.01
111.38
105.53
97.93
89.97
82.50
75.63
68.94
61.85
54.08
45.85
37.71
30.32
24.02
18.69
13.73
8.35
1.77
-6.50
-16.44
-27.48
-38.39
-47.54
-53.16
-53.83
-48.89
-38.70
-24.45
-7.73
9.92
27.36
43.81
58.63
71.10
80.42
85.99
87.85
86.75
83.92
80.62
77.59
74.92
72.20
69.00
65.24
61.30
57.76
55.09
53.33
52.11
50.90
49.15
46.48
42.60
37.25
30.23
21.69
12.42
3.92
-1.85
-3.08
1.25
10.94
24.65
40.41
56.34
71.05
83.78
94.18
101.91
106.52
107.58
105.08
99.88
93.66
88.47
85.84
86.01
87.74
88.95
87.81
83.77
77.84
72.06
68.33
67.49
68.93
71.07
72.16
70.93
66.76
59.61
49.75
37.89
25.25
13.57
4.81
0.53
1.33
6.52
14.44
23.02
30.51
35.94
39.16
40.54
40.76
40.42
40.03
40.19
41.86
46.64
56.55
73.16
96.51
124.43
152.79
176.92
193.40
201.44
203.02
201.73
200.92
202.13
204.64
206.11
203.91
196.35
183.32
166.23
147.58
130.24
116.65
108.14
104.29
102.97
101.08
95.72
85.31
70.21
52.35
34.39
18.55
5.80
-4.24
-12.93
-21.98
-32.76
-45.92
-60.93
-75.65
-86.40
-88.83
-79.53
-58.04
-28.14
2.80
26.27
36.00
30.43
13.00
-10.03
-32.74
-52.06
-68.27
-83.44
-99.15
-115.13
-129.41
-139.79
-145.42
-147.60
-149.31
-153.80
-163.23
-177.73
-195.29
-212.45
-225.38
-231.01
-227.89
-216.49
-198.83
-177.76
-156.12
-136.34
-120.22
-108.77
-102.21
-99.72
-99.64
-100.04
-99.67
-98.56
-97.77
-98.06
-98.37
-95.65
-86.31
-68.68
-44.89
-20.57
-2.11
6.74
6.94
3.38
1.90
6.27
16.97
32.28
50.33
70.30
91.90
113.57
131.40
139.91
134.71
115.08
84.79
50.68
19.61
-4.02
-19.23
-27.50
-31.21
-32.38
-32.37
-32.13
-32.34
-33.40
-35.47
-38.71
-43.63
-51.43
-63.59
-80.79
-101.87
-123.44
-140.79
-149.71
-148.16
-136.78
-118.24
-95.73
-71.92
-48.42
-26.21
-6.05
11.32
25.27
35.56
42.27
45.64
45.95
43.76
40.21
37.11
36.41
39.45
46.21
55.27
64.43
71.70
76.15
78.09
78.70
79.34
81.00
84.09
88.52
93.81
99.31
104.16
107.35
107.71
104.27
96.44
84.50
69.80
54.61
41.59
32.94
29.63
31.18
36.09
42.68
49.99
58.20
68.23
80.71
94.96
108.37
116.82
115.93
102.68
76.79
41.13
1.00
-37.44
-68.80
-89.69
-98.76
-96.36
-83.81
-63.03
-36.45
-7.17
21.37
46.02
64.67
76.86
83.54
85.95
84.22
76.95
62.39
40.68
15.62
-5.77
-16.11
-11.55
5.60
27.37
43.71
47.10
35.52
12.07
-18.13
-51.36
-86.70
-124.66
-164.49
-202.43
-232.53
-249.45
-251.38
-241.12
-224.53
-207.57
-193.44
-181.54
-168.61
-151.32
-128.49
-101.88
-75.34
-52.89
-37.03
-27.88
-23.63
-21.61
-19.42
-15.65
-9.88
-2.33
6.61
16.61
27.31
38.19
48.51
57.42
64.26
68.89
71.70
73.48
75.04
76.79
78.56
79.79
79.83
78.32
75.47
71.90
68.35
65.29
62.73
60.17
56.85
51.98
44.94
35.44
23.50
9.41
-6.16
-22.23
-37.66
-51.52
-63.54
-74.35
-85.21
-97.42
-111.53
-126.99
-142.28
-155.66
-165.96
-172.97
-177.15
-179.00
-178.38
-174.35
-165.66
-151.49
-132.08
-108.83
-83.87
-59.20
-36.01
-14.23
7.32
30.40
56.43
85.50
115.74
143.38
163.60
171.85
165.19
142.78
105.76
56.69
-0.75
-61.38
-118.14
-162.52
-186.37
-184.80
-158.70
-115.34
-66.41
-23.83
4.16
15.14
11.83
-0.55
-17.20
-35.04
-52.52
-68.23
-79.94
-85.03
-81.82
-71.26
-57.17
-44.86
-38.68
-39.65
-44.94
-49.29
-47.66
-37.76
-20.84
-0.51
19.49
37.27
53.26
69.03
85.57
101.98
115.57
123.24
122.82
114.18
99.27
81.54
65.05
53.57
49.73
54.29
65.67
80.08
92.56
98.30
94.13
79.18
54.77
23.75
-10.09
-42.66
-69.92
-88.80
-98.10
-99.14
-95.55
-91.96
-92.11
-97.27
-105.88
-114.54
-119.70
-119.22
-113.06
-102.90
-91.20
-80.16
-71.09
-64.08
-58.07
-51.11
-40.82
-24.99
-2.27
27.17
61.39
97.06
130.38
158.17
178.73
191.80
198.08
198.42
193.64
184.79
173.68
162.86
154.82
150.77
149.64
148.11
142.00
128.00
105.11
75.06
41.67
9.54
-16.98
-34.71
-42.38
-41.03
-34.15
-26.96
-24.69
-30.44
-43.73
-60.16
-73.26
-77.19
-69.46
-52.01
-30.28
-10.56
2.65
8.13
7.77
4.86
2.38
1.93
3.95
8.56
16.22
27.46
41.87
57.15
69.01
72.64
64.64
44.67
15.26
-19.86
-57.82
-97.31
-137.74
-177.37
-212.40
-237.96
-250.88
-252.04
-246.55
-241.07
-239.84
-242.18
-243.25
-237.41
-222.24
-200.07
-176.33
-155.82
-139.64
-124.88
-106.98
-83.07
-53.87
-23.16
4.62
26.82
43.39
56.14
66.88
76.21
83.45
87.70
88.85
87.91
86.57
86.23
87.59
90.65
95.11
100.48
105.98
110.40
112.49
111.59
108.27
104.27
101.70
101.90
104.79
109.06
113.03
115.73
117.47
119.67
124.10
131.85
142.62
154.59
165.09
171.52
172.42
168.02
160.07
150.95
142.57
135.46
128.94
121.94
114.08
106.05
99.32
95.10
93.48
93.20
92.21
88.77
82.08
72.34
60.33
46.91
32.86
18.96
6.34
-3.43
-8.73
-8.42
-2.30
8.82
23.38
39.61
55.97
71.29
84.78
95.99
104.67
110.72
114.18
115.08
113.46
109.53
103.95
97.94
93.09
90.67
90.81
92.02
91.48
86.10
73.85
54.77
30.94
5.60
-18.33
-39.32
-57.59
-74.59
-92.38
-113.09
-138.75
-170.79
-209.07
-250.81
-290.07
-318.91
-329.84
-318.78
-286.84
-239.74
-185.33
-130.42
-79.01
-32.32
9.53
45.70
74.18
92.79
100.83
100.02
93.97
86.51
80.04
74.91
69.83
63.10
53.96
43.03
32.18
23.79
19.96
21.99
30.09
43.36
60.03
77.64
93.21
103.61
106.02
98.68
81.67
57.58
31.25
8.66
-5.44
-9.61
-6.66
-2.65
-4.29
-16.10
-38.59
-68.30
-99.43
-126.10
-144.18
-151.94
-149.93
-140.48
-127.06
-113.98
-105.61
-105.53
-115.37
-133.99
-157.62
-180.77
-197.84
-204.67
-199.53
-183.28
-158.67
-129.36
-98.89
-70.00
-44.43
-22.86
-5.20
8.96
19.79
26.82
29.09
25.75
16.87
4.04
-9.82
-21.46
-28.41
-30.00
-27.39
-22.84
-18.60
-16.06
-15.42
-15.99
-16.82
-17.32
-17.52
-17.93
-18.98
-20.52
-21.48
-20.30
-15.77
-7.96
1.54
10.13
15.37
16.15
13.23
8.82
5.55
5.34
8.80
15.29
23.48
32.00
39.90
46.75
52.68
58.15
63.65
69.40
75.13
79.98
82.51
81.00
73.89
60.46
41.35
18.81
-3.69
-22.53
-35.12
-41.03
-42.14
-41.77
-43.15
-48.08
-56.34
-66.07
-74.73
-80.05
-80.65
-76.67
-69.83
-63.45
-61.59
-67.47
-81.53
-100.36
-117.00
-123.27
-113.59
-87.95
-52.56
-17.37
8.27
19.75
18.57
10.70
3.11
0.26
2.71
8.36
15.09
22.79
33.41
49.03
69.34
90.37
105.56
108.72
97.25
73.98
46.48
23.96
13.40
16.53
29.33
44.15
53.63
53.87
45.70
33.44
21.92
13.89
9.20
6.00
2.84
0.28
0.61
5.99
16.87
31.37
46.02
57.48
63.73
64.53
61.04
55.01
48.36
42.75
39.32
38.39
39.22
40.26
39.55
35.36
26.82
14.40
-0.04
-13.71
-23.82
-28.78
-29.29
-28.16
-29.13
-34.76
-44.75
-55.61
-62.15
-59.80
-46.68
-24.20
3.92
33.27
60.01
81.35
95.59
102.14
101.89
97.79
94.77
98.40
112.70
137.97
170.03
201.51
224.66
234.22
229.18
212.44
188.91
163.11
137.73
113.59
90.59
68.86
49.12
32.30
18.79
7.99
-1.29
-10.07
-18.58
-26.31
-32.54
-37.16
-41.14
-46.37
-54.84
-67.77
-85.01
-105.19
-126.26
-146.26
-163.82
-178.25
-189.43
-197.52
-202.70
-205.21
-205.22
-202.80
-197.81
-190.03
-179.30
-165.86
-150.41
-134.02
-117.93
-103.20
-90.58
-80.49
-73.10
-68.34
-65.86
-64.96
-64.61
-63.65
-61.18
-56.87
-50.99
-44.17
-37.01
-29.72
-22.14
-13.84
-4.51
5.85
17.02
28.61
40.30
51.74
62.52
72.13
80.05
85.93
89.74
91.65
91.90
90.59
87.64
83.08
77.22
70.90
65.34
61.76
60.98
63.11
67.63
73.54
79.89
86.00
91.51
96.21
99.75
101.50
100.74
97.07
90.89
83.55
77.10
73.59
74.42
79.93
89.61
102.35
117.08
132.96
149.44
166.00
181.94
196.20
207.42
214.06
214.62
208.07
194.00
172.85
145.85
114.96
82.70
51.97
25.77
6.60
-4.15
-6.94
-4.12
0.69
3.66
2.21
-4.39
-14.84
-26.83
-38.10
-47.70
-56.29
-65.38
-75.58
-84.79
-87.65
-77.12
-48.01
-0.66
57.43
113.30
153.32
168.39
157.34
126.18
84.44
40.53
-1.09
-39.75
-76.45
-111.53
-143.95
-172.12
-195.44
-214.98
-233.01
-251.60
-271.30
-290.86
-307.61
-318.73
-322.26
-317.76
-306.28
-289.94
-271.12
-251.67
-232.49
-213.77
-195.73
-179.30
-166.06
-157.28
-152.78
-150.47
-147.15
-140.44
-130.23
-119.09
-110.57
-106.73
-106.29
-104.89
-97.38
-80.86
-56.61
-29.66
-6.50
8.04
12.72
9.93
4.28
0.34
0.97
6.58
15.54
25.13
32.78
36.84
37.01
34.17
29.79
25.07
20.42
15.55
10.25
5.25
2.40
4.02
11.56
24.53
40.34
55.08
65.06
68.02
63.72
53.60
40.15
26.30
14.88
7.93
5.79
6.53
6.38
1.36
-10.40
-27.07
-43.59
-54.28
-56.16
-50.91
-44.18
-42.43
-49.36
-63.80
-80.40
-92.62
-96.25
-91.67
-83.75
-79.80
-86.59
-107.58
-141.39
-181.97
-220.31
-247.28
-256.56
-246.37
-219.33
-180.39
-134.31
-84.16
-31.71
20.82
69.33
108.27
132.81
141.64
138.31
129.94
123.64
122.80
125.47
125.86
118.09
99.93
74.32
47.74
26.50
13.37
6.38
0.80
-7.19
-17.77
-27.29
-31.22
-27.83
-19.93
-13.38
-13.05
-19.40
-27.87
-31.87
-27.11
-14.49
0.49
11.31
14.50
11.37
6.58
4.65
6.98
11.32
13.61
10.77
2.50
-8.77
-19.24
-25.66
-26.50
-22.32
-15.10
-7.47
-1.79
0.44
-1.31
-6.82
-15.50
-26.66
-39.61
-53.45
-66.96
-78.44
-85.99
-88.05
-83.98
-74.30
-60.46
-44.30
-27.33
-10.45
6.12
22.43
38.40
53.61
67.34
78.84
87.62
93.62
97.20
98.93
99.34
98.75
97.21
94.67
91.21
87.13
82.87
78.89
75.35
72.00
68.38
63.99
58.64
52.33
45.20
37.26
28.36
18.48
8.03
-1.92
-9.75
-13.80
-13.02
-7.33
2.25
14.05
26.35
37.91
48.28
57.63
66.40
74.78
82.54
89.06
93.67
96.12
96.64
95.98
94.93
94.00
93.17
92.05
90.21
87.46
84.03
80.44
77.22
74.62
72.50
70.32
67.36
63.06
57.27
50.42
43.50
37.76
34.39
34.23
37.62
44.36
53.91
65.53
78.40
91.73
104.68
116.45
126.30
133.72
138.55
140.98
141.49
140.71
139.23
137.45
135.60
133.77
132.01
130.47
129.33
128.81
129.00
129.76
130.63
130.98
130.07
127.41
123.03
117.56
112.12
107.91
105.75
105.77
107.60
110.71
114.76
119.68
125.23
130.58
134.11
133.67
127.37
114.39
95.62
73.63
52.11
34.83
24.71
22.99
28.98
40.21
53.09
63.65
68.38
64.78
51.95
30.78
3.82
-25.46
-53.88
-79.62
-102.68
-124.16
-144.95
-164.68
-181.82
-195.11
-205.10
-214.45
-226.35
-241.95
-258.46
-269.63
-268.76
-252.72
-224.35
-191.73
-164.49
-149.47
-147.83
-155.19
-164.25
-168.03
-162.09
-144.88
-117.10
-81.05
-40.58
-1.22
30.47
48.82
51.57
41.31
24.57
8.66
-2.05
-7.93
-13.09
-22.12
-36.51
-53.06
-65.21
-66.34
-53.46
-28.77
1.35
29.35
49.78
61.19
65.87
67.63
69.05
69.75
66.97
57.89
42.60
25.48
13.81
13.99
27.48
49.12
68.89
76.57
66.54
40.16
4.73
-30.36
-57.91
-75.14
-83.09
-84.24
-79.91
-69.47
-51.53
-26.06
4.00
32.88
53.88
62.06
56.27
39.57
17.78
-2.81
-17.67
-25.10
-25.90
-22.00
-14.85
-4.66
9.60
29.18
54.36
83.54
113.07
137.93
152.97
154.69
142.62
120.00
92.90
68.19
50.99
42.59
40.18
38.18
30.79
14.35
-11.48
-43.92
-78.08
-108.21
-128.81
-135.75
-127.52
-106.14
-77.32
-48.99
-28.63
-20.15
-21.88
-27.00
-26.31
-12.43
16.93
57.97
102.67
142.39
171.28
187.74
193.50
191.64
184.45
172.83
157.09
138.32
118.88
101.50
87.81
77.37
68.13
57.82
45.21
30.44
14.15
-3.23
-21.55
-40.08
-56.80
-68.46
-71.99
-66.44
-53.96
-39.12
-26.67
-19.15
-16.11
-15.26
-14.91
-15.85
-21.29
-34.66
-57.05
-85.47
-113.60
-134.62
-144.57
-144.38
-139.33
-136.30
-140.04
-150.69
-163.58
-171.33
-167.30
-148.36
-116.28
-77.03
-38.64
-8.49
8.85
12.52
4.78
-10.61
-30.12
-51.88
-75.84
-103.19
-134.86
-170.18
-206.31
-238.81
-263.27
-276.68
-278.39
-269.87
-253.79
-232.72
-208.27
-181.13
-151.83
-121.92
-93.98
-71.11
-55.61
-48.27
-47.72
-51.01
-54.39
-54.72
-50.89
-43.59
-34.94
-26.85
-20.56
-15.66
-10.23
-1.48
12.91
33.20
57.99
84.63
110.60
133.29
150.70
161.21
164.22
163.21
160.61
158.65
155.12
149.46
139.74
124.83
102.67
72.73
37.26
1.10
-28.87
-45.93
-45.32
-26.82
5.30
43.23
78.28
103.31
113.99
110.03
94.53
73.04
51.15
33.34
22.02
17.86
20.11
26.79
35.56
43.82
49.27
49.93
44.78
34.06
19.46
3.61
-10.98
-22.71
-31.31
-37.48
-42.37
-46.47
-49.28
-49.31
-45.00
-35.83
-22.97
-9.15
2.05
7.36
4.57
-7.16
-27.49
-55.25
-88.40
-123.68
-156.25
-180.09
-189.63
-181.92
-158.36
-124.68
-88.96
-58.49
-36.96
-23.59
-14.31
-4.42
8.98
26.03
44.63
62.05
76.35
86.94
94.38
99.80
104.42
109.53
116.67
127.50
143.28
164.11
188.18
211.68
229.62
237.42
232.81
217.13
195.03
172.68
155.28
145.10
141.03
139.84
138.07
133.77
127.20
120.35
115.86
115.73
120.61
129.48
140.04
149.33
154.58
153.90
146.70
133.54
115.71
94.53
70.97
45.75
19.55
-6.76
-32.26
-56.51
-79.81
-103.47
-129.41
-159.28
-193.35
-229.85
-265.06
-294.46
-314.32
-322.91
-320.56
-308.62
-288.25
-259.71
-222.92
-178.62
-129.45
-79.85
-34.61
2.83
31.59
53.20
70.23
84.73
97.34
107.42
113.77
115.66
113.16
107.01
98.23
87.82
76.60
65.41
55.23
47.11
41.86
39.49
38.92
38.20
35.24
28.79
19.13
8.15
-1.47
-7.36
-8.63
-6.15
-2.29
0.17
-0.88
-6.11
-14.61
-24.28
-32.64
-37.59
-38.09
-34.46
-28.44
-22.84
-20.87
-25.21
-37.16
-55.91
-78.62
-101.10
-118.95
-128.91
-129.47
-120.85
-104.26
-81.12
-52.68
-20.23
14.41
48.84
80.49
107.36
128.49
143.86
153.50
156.89
152.65
139.15
115.43
81.87
40.15
-7.21
-57.44
-107.57
-154.28
-193.87
-222.72
-238.37
-240.62
-231.84
-216.29
-198.64
-182.47
-169.57
-160.26
-154.06
-150.35
-148.09
-145.45
-139.51
-126.82
-104.93
-73.87
-37.02
-0.35
29.48
47.35
51.20
42.07
23.21
-1.41
-28.14
-53.91
-76.26
-93.17
-103.36
-106.59
-103.81
-96.81
-87.50
-77.03
-65.19
-50.65
-32.06
-9.56
14.06
33.53
42.85
37.99
19.33
-7.85
-35.40
-55.62
-64.26
-61.38
-49.95
-33.29
-13.07
10.78
38.59
69.31
100.18
128.10
151.83
173.15
195.94
223.72
256.94
291.83
321.63
339.49
341.37
327.57
302.18
270.97
239.00
209.15
181.90
156.26
130.69
103.77
74.15
40.56
2.16
-40.82
-86.56
-131.68
-171.90
-202.95
-221.55
-226.24
-217.83
-199.63
-176.97
-155.92
-141.42
-135.53
-136.65
-140.31
-141.24
-135.67
-122.68
-103.95
-82.40
-60.65
-40.23
-21.76
-5.71
7.20
16.08
20.41
20.56
17.63
13.17
8.48
4.22
0.42
-3.28
-7.15
-11.18
-14.77
-16.80
-15.84
-10.57
-0.29
14.60
32.40
50.43
65.77
76.48
82.45
85.66
89.28
96.06
106.79
119.81
131.76
139.40
141.45
139.27
135.83
133.95
134.67
136.90
138.33
137.22
133.49
128.62
124.32
120.95
116.81
108.66
93.55
70.47
41.33
10.39
-17.19
-37.20
-47.66
-49.00
-43.48
-34.00
-23.10
-12.33
-2.27
7.19
16.16
24.48
31.51
36.04
36.67
32.10
21.55
4.93
-17.09
-43.21
-71.86
-101.43
-130.61
-158.36
-183.84
-206.09
-223.90
-235.96
-241.18
-239.14
-230.36
-216.40
-199.40
-181.67
-165.13
-151.04
-139.93
-131.57
-125.07
-118.84
-110.76
-98.47
-79.95
-54.24
-22.14
13.70
49.42
81.11
106.27
124.55
137.53
147.55
156.29
164.01
169.95
173.34
174.45
174.60
175.32
176.97
178.11
175.99
168.02
153.34
133.48
111.71
91.58
75.51
64.28
57.26
53.24
51.11
50.24
50.29
50.94
51.74
51.95
50.83
48.11
44.31
41.11
41.04
46.73
59.79
79.76
103.69
126.75
143.63
150.20
144.70
128.18
103.93
76.49
50.66
30.45
18.57
15.83
20.90
30.52
40.03
44.61
40.62
26.53
3.15
-26.98
-60.82
-95.99
-131.45
-167.60
-205.75
-247.31
-292.82
-341.24
-389.48
-432.71
-465.21
-481.88
-479.76
-458.90
-422.10
