1593094946.00
64.000000
-0.00
-0.00
-0.00
-0.00
-0.00
-0.00
-0.00
-0.00
-0.00
-0.00
0.00
0.01
0.01
-0.00
-0.03
-0.05
-0.05
0.00
0.13
0.36
0.66
1.01
1.37
1.72
2.06
2.40
2.79
3.24
3.80
4.42
5.06
5.66
6.20
6.68
7.15
7.68
8.31
9.14
10.09
11.04
11.88
12.56
13.14
13.76
14.65
15.96
17.91
20.32
22.90
25.38
27.58
29.57
31.68
34.32
37.81
42.54
48.15
54.10
59.83
64.97
69.58
74.14
79.34
85.71
93.76
103.00
112.62
121.73
129.77
136.75
143.30
150.75
157.77
166.64
177.95
191.79
206.97
220.57
228.25
225.36
208.53
176.87
132.76
80.05
23.07
-34.94
-92.44
-149.16
-205.23
-260.37
-313.74
-363.87
-409.83
-450.91
-486.50
-515.74
-537.23
-549.22
-549.96
-538.37
-514.21
-478.67
-433.88
-382.45
-327.02
-269.84
-212.63
-156.66
-102.95
-52.37
-5.90
35.58
71.43
101.35
125.50
144.38
158.69
169.15
176.37
180.75
182.57
182.07
179.51
175.23
169.65
163.18
156.15
148.81
141.30
133.69
126.02
118.33
110.69
103.16
95.80
88.68
81.83
75.25
68.95
62.95
57.25
51.86
46.78
42.03
37.59
33.45
29.61
26.07
22.81
19.83
17.11
14.67
12.48
10.54
8.83
7.35
6.07
4.97
4.05
3.27
2.62
2.09
1.65
1.30
1.01
0.79
0.61
0.47
0.37
0.29
0.23
0.19
0.16
0.15
0.14
0.15
0.17
0.19
0.22
0.25
0.29
0.33
0.37
0.41
0.46
0.51
0.56
0.61
0.67
0.72
0.78
0.85
0.92
1.00
1.09
1.19
1.30
1.42
1.56
1.72
1.89
2.08
2.29
2.53
2.79
3.08
3.40
3.75
4.13
4.55
5.00
5.49
6.02
6.59
7.20
7.85
8.54
9.28
10.07
10.90
11.78
12.70
13.67
14.70
15.79
16.95
18.17
19.43
20.73
21.99
23.16
24.14
24.83
25.09
24.80
23.88
22.26
19.92
16.90
13.26
9.16
4.77
0.30
-4.06
-8.08
-11.60
-14.48
-16.66
-18.12
-18.92
-19.15
-18.92
-18.33
-17.45
-16.34
-15.04
-13.57
-11.97
-10.25
-8.52
-6.82
-5.18
-3.57
-1.96
-0.29
1.44
3.24
5.10
6.86
8.44
9.87
11.24
12.71
14.46
16.56
19.03
21.81
24.51
26.91
28.98
30.91
32.99
35.50
38.58
42.17
46.04
49.45
51.93
53.43
54.26
54.96
56.09
57.88
60.19
62.56
63.76
62.94
59.81
54.55
47.58
39.09
28.60
14.41
-1.37
-19.05
-39.37
-63.12
-90.68
-121.38
-153.07
-182.10
-204.01
-214.87
-213.38
-200.70
-180.21
-156.33
-132.98
-112.46
-95.27
-80.73
-67.88
-56.65
-47.29
-40.12
-35.16
-31.99
-29.81
-27.75
-25.06
-21.24
-16.43
-10.92
-5.00
1.07
7.20
13.40
19.68
25.94
31.85
36.76
40.06
41.44
41.04
39.48
37.54
35.89
34.85
34.34
34.01
33.54
32.81
31.89
30.99
30.32
30.03
30.16
30.61
31.08
31.09
30.07
27.69
23.92
19.27
14.48
10.15
6.38
2.67
-1.81
-7.69
-14.94
-22.62
-29.23
-33.33
-34.17
-32.01
-27.99
-23.60
-20.45
-20.06
-23.92
-33.12
-47.62
-65.33
-82.07
-92.61
-92.73
-81.24
-60.59
-35.78
-11.97
7.54
22.13
33.03
41.70
48.70
53.69
56.37
57.30
57.97
60.03
64.13
69.48
74.24
76.36
74.57
68.83
60.11
49.84
39.43
29.81
21.49
14.62
9.27
5.54
3.52
3.26
4.51
6.82
9.59
12.33
14.72
16.70
18.28
19.40
19.92
19.64
18.54
16.84
15.02
13.55
12.68
12.31
12.06
11.52
10.40
8.74
6.81
4.97
3.55
2.65
2.19
1.91
1.53
0.77
-0.41
-1.93
-3.53
-4.92
-5.99
-6.75
-7.45
-8.34
-9.62
-11.32
-13.37
-15.63
-17.98
-20.24
-22.12
-23.31
-23.47
-22.37
-19.99
-16.52
-12.27
-7.60
-2.87
1.62
5.60
8.83
11.16
12.49
12.85
12.40
11.46
10.41
9.62
9.25
9.24
9.32
9.16
8.57
7.57
6.32
5.08
3.97
2.99
2.03
0.98
-0.18
-1.34
-2.32
-3.03
-3.46
-3.77
-4.20
-4.98
-6.19
-7.78
-9.60
-11.56
-13.64
-15.93
-18.50
-21.20
-23.62
-25.17
-25.26
-23.67
-20.55
-16.46
-12.00
-7.66
-3.64
0.05
3.42
6.37
8.61
9.89
10.06
9.32
8.08
6.80
5.80
5.10
4.56
4.05
3.68
3.83
4.98
7.36
10.65
13.89
15.69
14.77
10.53
3.32
-5.67
-14.93
-23.30
-30.37
-36.52
-42.54
-49.23
-57.17
-66.70
-77.93
-90.70
-104.18
-116.62
-125.62
-129.09
-126.23
-118.25
-107.99
-98.53
-91.58
-86.54
-80.83
-71.45
-56.53
-36.26
-12.61
11.66
34.18
53.45
68.88
80.51
88.61
93.58
95.85
95.84
93.87
90.22
85.13
79.01
72.47
66.21
60.81
56.46
52.97
50.00
47.33
44.86
42.59
40.51
38.46
36.24
33.59
30.36
26.47
22.02
17.28
12.65
8.56
5.27
2.79
0.85
-0.98
-3.04
-5.48
-8.26
-11.29
-14.48
-17.80
-21.01
-23.68
-25.07
-24.52
-21.68
-16.80
-10.72
-4.44
1.16
5.67
9.09
11.69
13.73
15.37
16.65
17.61
18.36
18.98
19.54
20.06
20.47
20.83
21.24
21.84
22.63
23.45
23.95
23.80
22.87
21.28
19.37
17.49
15.86
14.38
12.79
10.86
8.58
6.25
4.30
3.08
2.59
2.47
2.14
1.15
-0.54
-2.63
-4.60
-6.11
-7.15
-8.05
-9.24
-10.94
-13.11
-15.41
-17.41
-18.71
-19.07
-18.35
-16.55
-13.77
-10.31
-6.58
-3.04
-0.07
2.13
3.58
4.45
4.97
5.27
5.41
5.39
5.21
4.87
4.45
3.94
3.37
2.78
2.24
1.94
2.15
3.08
4.71
6.72
8.50
9.31
8.58
6.16
2.37
-2.09
-6.39
-9.82
-12.01
-12.97
-12.99
-12.53
-12.08
-11.97
-12.31
-13.06
-14.01
-15.03
-16.08
-17.20
-18.49
-20.02
-21.82
-23.85
-26.03
-28.10
-29.58
-29.75
-27.83
-23.37
-16.52
-8.19
0.33
7.78
13.42
17.18
19.40
20.59
21.16
21.36
21.39
21.48
21.85
22.60
23.53
24.34
24.70
24.50
23.93
23.29
22.85
22.64
22.56
22.39
21.99
21.38
20.63
19.90
19.28
18.78
18.39
18.16
18.22
18.71
19.74
21.23
22.86
24.22
25.08
25.57
26.15
27.23
28.63
29.26
27.31
21.19
10.53
-3.22
-17.22
-28.37
-34.75
-36.28
-34.40
-31.05
-27.48
-23.84
-19.58
-14.29
-8.38
-2.96
0.74
2.26
2.18
1.78
2.28
4.06
6.62
8.86
9.87
9.51
8.44
7.77
8.41
10.51
13.33
15.49
15.50
12.29
5.66
-3.65
-14.10
-23.82
-31.11
-34.90
-35.05
-32.43
-28.45
-24.69
-22.31
-21.76
-22.74
-24.37
-25.58
-25.47
-23.64
-20.25
-15.92
-11.44
-7.38
-4.00
-1.09
1.72
4.80
8.13
11.20
13.13
13.05
10.60
6.17
0.87
-3.88
-6.90
-7.78
-6.93
-5.30
-3.80
-2.84
-2.21
-1.38
0.02
1.90
3.64
4.51
4.10
2.62
0.70
-0.78
-1.23
-0.62
0.60
1.78
2.43
2.43
2.02
1.52
1.23
1.21
1.30
1.33
1.13
0.65
-0.02
-0.66
-1.08
-1.13
-0.95
-0.82
-1.11
-2.03
-3.44
-4.91
-5.97
-6.35
-6.14
-5.75
-5.60
-5.84
-6.31
-6.63
-6.47
-5.80
-4.87
-4.08
-3.76
-3.97
-4.55
-5.22
-5.74
-6.01
-6.20
-6.54
-7.26
-8.48
-10.13
-12.00
-13.93
-15.79
-17.54
-19.08
-20.23
-20.67
-20.03
-18.14
-15.06
-11.20
-7.08
-3.26
-0.10
2.28
4.04
5.45
6.72
7.93
8.88
9.28
8.84
7.58
5.79
3.95
2.50
1.65
1.33
1.35
1.60
2.08
2.87
3.97
5.10
5.82
5.69
4.50
2.41
-0.19
-2.78
-5.05
-6.89
-8.41
-9.85
-11.40
-13.11
-14.91
-16.57
-17.77
-18.21
-17.61
-15.92
-13.25
-9.97
-6.52
-3.34
-0.75
1.18
2.50
3.38
3.99
4.45
4.87
5.28
5.66
5.94
6.04
5.86
5.42
4.80
4.17
3.70
3.44
3.33
3.23
2.98
2.48
1.72
0.77
-0.31
-1.48
-2.75
-4.13
-5.67
-7.40
-9.29
-11.19
-12.80
-13.78
-13.83
-12.84
-10.95
-8.47
-5.75
-3.02
-0.39
2.16
4.56
6.74
8.57
10.04
11.27
12.39
13.49
14.42
14.92
14.71
13.76
12.32
10.81
9.66
9.04
8.86
8.82
8.57
7.85
6.63
5.04
3.39
1.98
0.93
0.14
-0.72
-1.94
-3.64
-5.65
-7.63
-9.24
-10.29
-10.71
-10.45
-9.31
-7.02
-3.40
1.35
6.67
11.72
15.91
19.07
21.62
24.21
27.33
30.96
34.64
37.78
40.02
41.53
42.81
44.34
46.24
48.20
49.81
50.76
50.95
50.06
47.11
40.56
28.92
11.84
-9.16
-30.90
-49.68
-62.88
-70.05
-72.73
-73.41
-74.12
-75.65
-77.74
-79.79
-81.63
-83.53
-85.95
-88.90
-91.82
-93.91
-94.62
-93.99
-92.50
-90.71
-88.56
-85.12
-78.68
-67.48
-50.79
-29.60
-6.84
13.58
28.31
36.01
38.01
37.56
38.23
42.20
49.46
58.23
66.26
72.19
75.99
78.64
81.18
83.93
86.37
87.55
86.74
83.83
79.34
74.06
68.63
63.27
57.88
52.28
46.50
40.92
35.98
31.92
28.51
25.20
21.48
17.46
14.03
12.54
14.11
18.88
25.82
33.07
38.78
41.98
42.96
43.05
43.78
46.17
50.26
55.26
60.13
64.26
67.84
71.69
77.14
85.69
98.96
118.63
145.97
181.10
221.98
263.96
300.31
323.97
329.73
315.96
284.86
241.20
190.23
135.92
80.46
24.94
-29.22
-79.60
-123.07
-157.03
-180.60
-195.02
-203.05
-207.64
-210.62
-212.36
-212.26
-209.61
-204.40
-197.49
-190.10
-183.17
-176.84
-170.47
-163.07
-153.84
-142.62
-130.04
-117.27
-105.50
-95.44
-87.09
-79.93
-73.33
-67.03
-61.25
-56.50
-53.12
-50.95
-49.34
-47.44
-44.64
-40.83
-36.32
-31.61
-27.16
-23.21
-19.86
-17.12
-14.95
-13.28
-12.00
-10.97
-10.06
-9.27
-8.62
-8.19
-8.02
-8.09
-8.36
-8.84
-9.47
-10.20
-10.92
-11.48
-11.80
-11.95
-12.17
-12.81
-14.08
-15.94
-18.00
-19.68
-20.33
-19.61
-17.44
-14.11
-10.04
-5.67
-1.36
2.58
5.86
8.28
9.68
10.18
10.08
9.83
9.82
10.15
10.67
11.03
11.03
10.60
10.00
9.54
9.42
9.66
10.01
10.21
10.03
9.44
8.46
7.23
5.86
4.41
2.98
1.60
0.35
-0.75
-1.69
-2.49
-3.20
-3.89
-4.66
-5.55
-6.54
-7.51
-8.35
-9.04
-9.71
-10.65
-12.08
-14.06
-16.34
-18.36
-19.47
-19.04
-16.76
-12.70
-7.40
-1.67
3.58
7.74
10.58
12.35
13.55
14.56
15.54
16.35
16.77
16.65
16.12
15.45
14.90
14.61
14.53
14.55
14.57
14.63
14.83
15.30
16.03
16.82
17.38
17.40
16.71
15.44
13.96
12.73
12.13
12.24
12.81
13.43
13.76
13.68
13.29
12.83
12.44
12.06
11.48
10.48
9.03
7.29
5.60
4.33
3.68
3.63
3.91
4.21
4.20
3.81
3.14
2.45
2.01
1.90
2.01
2.14
2.11
1.86
1.52
1.22
1.01
0.80
0.38
-0.40
-1.54
-2.84
-4.01
-4.79
-5.13
-5.21
-5.30
-5.67
-6.42
-7.43
-8.47
-9.29
-9.77
-9.99
-10.15
-10.45
-10.96
-11.57
-11.94
-11.82
-11.07
-9.90
-8.69
-7.92
-7.91
-8.73
-10.21
-12.02
-13.86
-15.58
-17.16
-18.58
-19.72
-20.25
-19.70
-17.73
-14.31
-9.93
-5.41
-1.58
1.10
2.70
3.76
4.89
6.37
8.06
9.51
10.34
10.49
10.31
10.38
11.08
12.45
14.11
15.52
16.29
16.34
15.90
15.34
14.90
14.65
14.44
14.04
13.36
12.47
11.53
10.75
10.15
9.62
8.96
8.03
6.85
5.55
4.38
3.54
3.13
3.07
3.16
3.19
3.02
2.63
2.14
1.76
1.61
1.67
1.71
1.45
0.71
-0.42
-1.57
-2.31
-2.40
-1.96
-1.39
-1.14
-1.46
-2.24
-3.13
-3.75
-3.94
-3.82
-3.67
-3.74
-4.07
-4.56
-5.00
-5.29
-5.41
-5.42
-5.47
-5.64
-5.96
-6.41
-6.92
-7.36
-7.65
-7.77
-7.86
-8.13
-8.87
-10.23
-12.13
-14.32
-16.45
-18.26
-19.64
-20.64
-21.23
-21.35
-20.79
-19.33
-16.91
-13.74
-10.29
-7.09
-4.50
-2.55
-0.99
0.49
2.07
3.61
4.83
5.39
5.25
4.64
4.04
3.87
4.28
5.07
5.75
5.97
5.53
4.60
3.51
2.61
2.04
1.78
1.65
1.52
1.37
1.24
1.14
1.06
0.92
0.69
0.39
0.18
0.26
0.78
1.71
2.86
3.95
4.67
4.80
4.26
3.19
1.85
0.52
-0.50
-1.12
-1.38
-1.45
-1.43
-1.35
-1.10
-0.59
0.13
0.93
1.51
1.71
1.52
1.11
0.67
0.33
0.05
-0.34
-0.97
-1.93
-3.15
-4.52
-5.97
-7.49
-9.09
-10.78
-12.50
-14.12
-15.51
-16.58
-17.34
-17.95
-18.59
-19.40
-20.37
-21.26
-21.73
-21.43
-20.13
-17.84
-14.79
-11.29
-7.62
-4.03
-0.62
2.48
5.11
7.09
8.36
8.96
9.09
9.04
8.99
9.05
9.17
9.27
9.20
8.96
8.53
7.96
7.35
6.72
6.07
5.32
4.35
3.05
1.40
-0.52
-2.54
-4.43
-6.09
-7.50
-8.79
-10.15
-11.71
-13.48
-15.35
-17.04
-18.18
-18.46
-17.69
-15.86
-13.16
-9.92
-6.48
-3.13
-0.08
2.56
4.76
6.50
7.87
8.87
9.53
9.82
9.74
9.23
8.34
7.19
5.91
4.67
3.60
2.76
2.15
1.72
1.32
0.85
0.15
-0.80
-1.99
-3.33
-4.70
-6.09
-7.51
-9.10
-10.89
-12.87
-14.93
-16.88
-18.54
-19.76
-20.44
-20.39
-19.43
-17.41
-14.33
-10.48
-6.35
-2.52
0.61
2.94
4.69
6.20
7.73
9.26
10.52
11.21
11.13
10.39
9.33
8.31
7.58
7.16
6.94
6.75
6.48
6.13
5.71
5.23
4.57
3.60
2.20
0.37
-1.74
-3.92
-5.99
-7.91
-9.83
-12.08
-14.89
-18.31
-22.04
-25.47
-27.89
-28.68
-27.64
-24.98
-21.23
-16.96
-12.59
-8.33
-4.17
-0.21
3.38
6.30
8.42
9.78
10.70
11.59
12.71
14.10
15.42
16.31
16.49
15.95
14.99
14.04
13.50
13.54
14.06
14.73
15.18
15.06
14.25
12.73
10.68
8.29
5.76
3.22
0.77
-1.55
-3.70
-5.73
-7.71
-9.83
-12.33
-15.46
-19.25
-23.49
-27.60
-30.78
-32.29
-31.67
-28.93
-24.53
-19.08
-13.12
-7.02
-0.92
5.06
10.69
15.66
19.62
22.40
24.08
24.97
25.40
25.64
25.77
25.73
25.44
24.89
24.12
23.34
22.69
22.32
22.20
22.22
22.17
21.84
21.08
19.87
18.33
16.68
15.18
13.99
13.06
12.22
11.18
9.73
7.72
5.26
2.48
-0.41
-3.26
-5.96
-8.48
-10.82
-13.02
-15.19
-17.50
-20.17
-23.29
-26.71
-30.06
-32.66
-33.86
-33.15
-30.52
-26.32
-21.26
-16.02
-11.01
-6.28
-1.61
3.25
8.40
13.62
18.51
22.62
25.68
27.69
28.85
29.44
29.62
29.48
29.01
28.30
27.55
27.03
26.96
27.34
27.93
28.29
28.07
27.17
25.79
24.28
22.95
21.84
20.74
19.31
17.38
15.02
12.52
10.24
8.42
7.02
5.83
4.51
2.89
0.93
-1.20
-3.32
-5.32
-7.15
-8.93
-10.83
-13.02
-15.66
-18.72
-22.06
-25.30
-27.99
-29.61
-29.81
-28.46
-25.65
-21.66
-16.84
-11.62
-6.36
-1.43
2.94
6.58
9.55
12.03
14.21
16.22
18.01
19.43
20.27
20.43
19.98
19.19
18.45
18.06
18.18
18.76
19.61
20.42
20.93
20.97
20.54
19.74
18.67
17.42
16.01
14.39
12.60
10.70
8.85
7.24
5.99
5.03
4.16
3.08
1.58
-0.31
-2.38
-4.25
-5.64
-6.51
-7.09
-7.74
-8.81
-10.46
-12.63
-15.22
-18.09
-21.17
-24.25
-26.99
-28.86
-29.29
-27.90
-24.71
-20.18
-14.98
-9.83
-5.19
-1.20
2.28
5.50
8.62
11.64
14.37
16.54
17.92
18.43
18.20
17.51
16.65
15.83
15.18
14.65
14.20
13.79
13.46
13.31
13.38
13.61
13.75
13.54
12.76
11.43
9.83
8.31
7.20
6.57
6.23
5.84
5.15
4.04
2.63
1.12
-0.41
-1.95
-3.64
-5.54
-7.62
-9.71
-11.63
-13.35
-14.97
-16.73
-18.75
-20.94
-22.95
-24.30
-24.56
-23.49
-21.18
-17.88
-13.95
-9.71
-5.40
-1.18
2.82
6.44
9.57
12.11
14.10
15.69
17.02
18.26
19.36
20.22
20.61
20.41
19.61
18.39
17.08
16.03
15.47
15.43
15.74
16.04
15.96
15.24
13.81
11.86
9.63
7.41
5.33
3.47
1.83
0.43
-0.71
-1.59
-2.32
-3.08
-4.06
-5.30
-6.69
-8.01
-9.08
-9.87
-10.48
-11.13
-12.01
-13.21
-14.73
-16.54
-18.52
-20.52
-22.24
-23.32
-23.37
-22.16
-19.67
-16.14
-11.96
-7.58
-3.41
0.29
3.35
5.74
7.52
8.88
10.05
11.23
12.51
13.83
14.99
15.77
16.02
15.81
15.37
14.96
14.78
14.79
14.79
14.53
13.83
12.67
11.23
9.72
8.33
7.12
6.05
5.08
4.22
3.54
3.08
2.79
2.52
2.03
1.13
-0.22
-1.90
-3.67
-5.32
-6.79
-8.20
-9.80
-11.84
-14.44
-17.51
-20.72
-23.66
-25.85
-26.91
-26.62
-24.92
-21.97
-18.05
-13.60
-9.03
-4.75
-0.98
2.16
4.70
6.75
8.44
9.91
11.16
12.09
12.50
12.27
11.41
10.17
8.95
8.17
8.09
8.68
9.69
10.71
11.45
11.80
11.83
11.69
11.44
10.96
10.12
8.80
7.13
5.39
3.89
2.81
2.05
1.25
0.04
-1.77
-4.06
-6.46
-8.52
-10.04
-11.15
-12.22
-13.73
-15.96
-18.81
-21.83
-24.36
-25.75
-25.59
-23.84
-20.74
-16.75
-12.31
-7.79
-3.47
0.48
3.93
6.76
8.86
10.22
10.92
11.12
11.04
10.90
10.81
10.75
10.63
10.34
9.89
9.41
9.09
9.02
9.07
9.01
8.58
7.72
6.64
5.65
5.05
4.83
4.70
4.25
3.12
1.27
-1.04
-3.38
-5.41
-7.02
-8.33
-9.63
-11.13
-12.95
-15.03
-17.26
-19.45
-21.47
-23.14
-24.23
-24.40
-23.36
-20.96
-17.32
-12.87
-8.19
-3.89
-0.39
2.12
3.72
4.68
5.27
5.76
6.25
6.72
7.10
7.33
7.43
7.52
7.80
8.30
8.92
9.33
9.18
8.31
6.86
5.30
4.15
3.72
3.88
4.16
3.97
2.93
1.07
-1.20
-3.31
-4.89
-5.95
-6.86
-8.13
-10.16
-12.99
-16.36
-19.74
-22.55
-24.33
-24.79
-23.87
-21.66
-18.40
-14.47
-10.23
-6.08
-2.26
1.05
3.81
6.05
7.80
9.11
10.01
10.56
10.83
10.88
10.74
10.45
10.11
9.82
9.73
9.83
10.00
9.98
9.53
8.61
7.41
6.28
5.45
4.94
4.48
3.68
2.28
0.33
-1.79
-3.65
-4.95
-5.77
-6.48
-7.62
-9.58
-12.41
-15.83
-19.24
-22.02
-23.66
-23.95
-22.93
-20.86
-18.01
-14.66
-10.93
-6.99
-2.98
0.88
4.38
7.36
9.76
11.66
13.15
14.26
14.99
15.30
15.23
14.94
14.65
14.56
14.73
15.03
15.19
14.98
14.24
13.05
11.62
10.19
8.90
7.75
6.62
5.31
3.70
1.80
-0.27
-2.38
-4.40
-6.35
-8.36
-10.60
-13.19
-16.12
-19.23
-22.25
-24.81
-26.61
-27.37
-26.92
-25.20
-22.26
-18.30
-13.61
-8.60
-3.68
0.83
4.73
8.00
10.72
13.01
14.93
16.48
17.60
18.22
18.34
17.98
17.20
16.16
15.02
13.96
13.17
12.73
12.56
12.45
12.17
11.50
10.48
9.29
8.17
7.24
6.42
5.46
4.14
2.40
0.36
-1.75
-3.81
-5.84
-8.02
-10.50
-13.35
-16.43
-19.51
-22.38
-24.86
-26.82
-28.04
-28.32
-27.52
-25.63
-22.85
-19.50
-15.84
-12.12
-8.54
-5.37
-2.95
-1.52
-1.15
-1.64
-2.58
-3.63
-4.79
-6.44
-9.15
-13.32
-18.82
-24.86
-30.19
-33.70
-34.94
-34.54
-34.10
-35.68
-40.86
-50.01
-61.90
-74.36
-85.19
-93.38
-99.58
-105.89
-114.62
-127.26
-144.05
-164.30
-187.17
-212.09
-238.60
-265.56
-290.50
-309.73
-319.08
-315.15
-296.61
-264.76
-222.70
-174.15
-122.54
-71.07
-23.38
16.10
43.18
55.72
55.72
49.97
48.14
59.18
87.78
132.53
187.00
242.88
292.91
332.63
360.46
376.30
380.18
372.07
352.50
323.21
287.93
251.39
219.34
197.93
192.23
203.96
230.08
263.26
294.08
315.07
321.84
314.72
298.83
282.20
272.70
275.73
293.37
324.22
365.28
410.08
450.44
479.45
493.27
490.80
472.79
441.26
398.49
348.27
292.10
229.84
161.50
87.94
9.68
-73.44
-161.39
-261.71
-363.01
-446.06
-498.59
-521.13
-521.03
-506.47
-483.50
-455.38
-424.70
-391.80
-358.63
-327.75
-300.14
-274.50
-249.07
-226.79
-204.33
-180.52
-155.16
-130.39
-108.72
-90.85
-75.26
-60.52
-45.47
-29.30
-13.30
-0.03
6.79
4.54
-7.05
-21.36
-34.87
-45.89
-53.90
-59.52
-64.75
-71.10
-78.23
-84.27
-87.68
-89.26
-90.08
-90.13
-89.38
-91.72
-103.74
-131.28
-176.60
-237.42
-308.22
-381.00
-448.10
-482.54
-468.24
-409.52
-327.10
-241.99
-164.80
-97.19
-37.53
15.28
58.36
90.91
111.85
123.65
132.56
146.09
170.37
209.74
266.96
339.30
419.18
495.61
558.09
599.32
616.41
610.99
588.70
557.07
522.60
487.58
450.30
408.36
361.14
310.32
258.70
208.77
161.51
115.88
69.38
19.21
-35.74
-94.72
-155.65
-216.30
-274.48
-327.80
-373.59
-409.11
-432.53
-443.32
-442.67
-433.25
-418.49
-401.62
-385.01
-370.34
-358.67
-351.05
-348.34
-350.97
-358.73
-370.78
-385.74
-401.67
-416.06
-425.84
-427.96
-420.22
-401.96
-374.38
-340.04
-301.93
-262.57
-223.67
-186.36
-151.72
-120.98
-95.45
-75.98
-62.58
-54.42
-50.24
-48.96
-50.01
-53.31
-58.95
-66.79
-76.03
-85.33
-93.08
-97.75
-98.43
-94.90
-87.65
-77.39
-64.81
-50.23
-33.65
-15.04
5.41
26.98
48.48
68.46
85.62
99.19
109.07
115.68
119.59
121.13
120.15
116.12
108.51
97.31
83.42
68.70
55.41
45.55
40.23
39.27
41.51
45.57
50.60
56.77
65.35
78.09
96.38
120.79
150.81
184.68
219.34
250.60
273.98
286.05
286.04
276.54
262.88
250.99
245.04
245.95
251.71
259.29
266.87
275.28
287.38
306.43
334.28
370.86
413.73
458.12
497.63
525.59
537.17
530.77
508.41
474.57
435.21
395.46
358.50
325.46
296.33
271.68
251.76
235.56
219.44
198.99
169.25
125.67
64.98
-13.17
-102.89
-194.35
-276.07
-339.82
-378.55
-389.92
-376.88
-347.04
-308.62
-263.14
-209.60
-147.31
-82.28
-17.23
46.64
110.48
175.81
244.59
324.03
415.55
511.25
589.16
635.30
644.88
623.36
580.71
528.78
486.61
466.63
470.73
482.87
494.93
504.23
512.93
521.66
475.63
346.57
143.99
-35.10
-167.55
-255.38
-324.45
-386.09
-449.14
-520.12
-593.23
-660.43
-714.73
-760.40
-792.50
-804.54
-792.07
-758.70
-712.57
-654.98
-586.16
-507.32
-428.75
-353.38
-280.89
-208.52
-135.37
-61.93
13.73
89.56
157.99
203.63
217.65
198.72
154.06
94.50
31.79
-22.58
-61.65
-83.77
-93.27
-93.82
-89.27
-84.05
-85.24
-100.38
-133.30
-181.97
-238.03
-289.52
-324.22
-334.75
-320.49
-287.45
-243.60
-194.53
-141.32
-82.26
-16.26
54.34
119.15
168.15
192.45
188.78
160.13
113.55
56.78
-4.20
-65.92
-126.44
-183.15
-233.16
-272.99
-299.35
-309.48
-301.59
-275.85
-236.35
-192.49
-157.67
-145.73
-164.35
-210.53
-270.56
-325.53
-359.46
-365.77
-348.57
-318.12
-284.81
-254.31
-226.74
-199.17
-169.48
-138.58
-109.69
-86.08
-68.60
-55.26
-42.13
-25.61
-4.16
21.22
47.69
72.31
93.44
111.31
127.70
144.60
163.23
183.57
204.39
224.42
243.29
262.02
282.39
305.62
331.45
357.45
379.83
394.46
397.94
388.31
365.59
331.91
291.29
249.03
209.96
176.58
147.66
119.15
86.88
49.79
11.86
-19.76
-38.73
-43.54
-38.65
-31.86
-29.54
-33.55
-41.11
-47.72
-50.94
-51.91
-53.82
-58.71
-65.03
-67.75
-60.58
-39.41
-3.95
43.08
97.29
154.20
209.32
257.26
291.18
304.11
291.96
256.27
204.81
149.12
99.48
60.08
27.71
-6.20
-50.53
-109.76
-181.81
-259.30
-332.83
-394.32
-438.66
-463.83
-469.84
-458.17
-431.37
-393.02
-347.47
-299.20
-252.27
-210.00
-174.84
-147.81
-128.17
-113.35
-99.37
-82.27
-59.44
-30.71
2.05
35.85
67.92
96.85
122.59
145.87
167.17
186.20
201.88
212.90
218.56
219.17
216.27
212.17
209.46
210.10
214.86
222.97
232.34
240.37
244.92
245.13
241.45
235.22
227.79
219.54
209.87
197.51
181.63
162.67
142.50
123.65
108.02
95.98
86.16
76.64
66.07
54.63
43.73
34.97
29.10
25.47
22.66
19.34
15.45
12.28
11.79
15.39
23.23
34.14
46.04
56.89
65.09
70.05
72.04
72.13
71.91
72.95
76.46
82.67
90.64
98.61
104.63
107.60
107.85
106.95
106.54
107.11
107.23
104.13
94.95
78.20
54.10
23.72
-12.13
-53.64
-101.14
-153.56
-207.20
-256.24
-294.63
-318.43
-327.10
-322.84
-309.16
-289.15
-264.65
-236.62
-206.10
-174.93
-145.54
-120.22
-100.04
-84.62
-72.46
-61.90
-52.00
-42.59
-33.86
-25.47
-16.08
-3.49
13.95
35.91
59.25
78.69
88.99
87.35
74.93
56.28
37.39
23.08
15.50
13.95
15.87
18.36
18.99
16.08
8.32
-4.84
-22.66
-42.21
-58.67
-66.80
-63.28
-48.94
-29.06
-11.44
-3.01
-6.49
-18.97
-33.18
-40.98
-36.78
-20.01
5.28
32.58
56.02
72.47
82.24
88.13
93.59
100.92
109.91
117.65
119.44
110.51
87.68
51.23
5.23
-43.43
-86.41
-116.06
-127.01
-117.19
-88.21
-45.45
2.47
45.19
73.41
82.25
72.93
52.17
28.67
8.89
-5.19
-14.91
-21.60
-23.93
-18.07
-1.29
24.12
49.69
64.00
58.62
32.62
-7.16
-50.13
-87.57
-116.52
-139.01
-158.50
-176.29
-189.85
-194.23
-185.23
-161.99
-127.82
-89.07
-52.83
-24.81
-7.79
-0.90
-0.37
-1.01
1.89
10.69
24.86
41.57
57.26
69.13
76.03
78.47
77.98
76.22
74.28
72.57
70.92
68.97
66.40
62.99
58.60
53.12
46.63
39.28
31.56
24.16
18.04
14.19
13.24
15.19
19.14
23.54
26.76
27.89
27.29
26.56
27.79
32.41
40.43
50.14
58.65
62.99
61.10
52.44
38.25
21.31
5.48
-5.31
-8.42
-3.44
7.40
20.16
30.88
37.24
39.37
39.10
38.58
38.71
38.72
36.85
31.70
23.33
13.44
4.57
-1.24
-3.47
-3.39
-3.32
-5.47
-10.90
-19.11
-28.50
-37.29
-44.44
-49.97
-54.67
-59.32
-64.04
-68.25
-70.94
-71.39
-69.34
-64.94
-58.24
-49.14
-37.51
-23.75
-9.21
4.12
14.22
19.96
21.51
20.17
17.60
15.03
13.03
11.65
11.06
11.79
14.64
20.03
27.45
35.31
41.39
43.71
41.37
35.09
26.96
19.65
15.33
14.73
16.83
19.56
20.89
19.81
16.91
13.73
11.92
12.36
15.04
19.49
25.48
33.13
42.39
52.39
60.99
65.36
63.18
53.95
39.32
22.32
5.92
-8.56
-21.72
-35.23
-50.23
-65.83
-79.06
-85.85
-83.15
-70.54
-50.84
-29.18
-11.27
-1.70
-2.75
-14.12
-33.35
-56.46
-78.96
-96.85
-107.62
-110.90
-108.56
-103.86
-100.17
-99.42
-101.42
-104.06
-104.52
-100.52
-91.34
-77.66
-60.77
-41.76
-21.01
1.42
25.06
48.34
68.64
83.13
89.92
89.00
82.21
72.37
62.04
52.55
43.83
35.28
26.58
18.37
12.42
10.79
14.91
24.88
39.16
55.03
69.28
79.17
83.17
81.37
75.22
66.76
57.73
48.91
39.96
30.05
18.71
6.44
-5.28
-14.72
-20.80
-23.58
-24.13
-23.83
-23.74
-24.04
-24.24
-23.65
-21.91
-19.13
-15.86
-12.91
-10.92
-10.17
-10.47
-11.33
-12.13
-12.39
-11.94
-10.95
-9.76
-8.57
-7.36
-5.91
-4.00
-1.72
0.51
2.17
3.03
3.34
3.86
5.47
8.77
13.85
20.31
27.48
34.57
40.82
45.37
47.33
45.98
41.08
33.22
23.84
14.91
8.21
4.74
4.31
5.74
7.36
7.69
6.03
2.64
-1.55
-5.51
-8.53
-10.48
-11.71
-12.58
-13.17
-13.20
-12.30
-10.32
-7.68
-5.28
-4.09
-4.71
-6.89
-9.61
-11.52
-11.63
-9.76
-6.71
-3.64
-1.43
-0.11
1.06
3.03
6.16
9.78
12.51
12.95
10.51
5.78
0.25
-4.46
-7.04
-7.24
-5.32
-1.86
2.41
6.53
9.25
8.99
4.40
-4.79
-17.45
-30.60
-40.30
-43.15
-37.78
-25.65
-10.63
2.49
10.21
10.75
5.20
-3.70
-12.90
-20.07
-23.88
-23.51
-18.29
-6.84
9.71
29.94
51.19
70.57
86.03
97.17
105.18
111.60
118.95
124.65
127.31
125.65
119.75
110.85
100.55
89.44
76.27
60.76
35.80
-1.67
-51.78
-110.07
-167.62
-213.10
-236.34
-231.85
-197.11
-143.21
-79.76
-15.45
45.66
104.60
165.60
232.62
282.07
338.27
388.18
422.02
431.18
412.60
369.10
308.32
239.44
169.56
105.59
42.74
-21.11
-89.59
-163.62
-241.34
-318.09
-387.14
-441.05
-470.50
-474.83
-453.38
-411.84
-357.33
-296.83
-234.69
-171.71
-106.01
-33.42
37.55
111.17
179.24
232.67
263.60
268.21
247.91
207.73
154.86
93.96
31.60
-28.60
-82.02
-124.38
-152.93
-167.45
-170.03
-162.58
-145.17
-113.63
-66.88
-7.73
55.08
109.63
145.76
159.50
154.27
133.36
105.46
78.39
57.17
41.70
29.33
18.78
10.87
6.51
6.22
8.85
9.15
2.08
-15.25
-42.88
-77.75
-116.27
-157.08
-199.84
-238.01
-268.74
-291.17
-305.55
-312.55
-311.41
-301.67
-293.65
-289.10
-289.47
-296.37
-308.55
-320.36
-324.54
-313.64
-277.56
-217.50
-141.10
-60.09
14.31
75.57
124.19
163.97
202.11
245.17
296.52
358.27
429.72
507.20
583.67
651.48
685.39
665.59
588.45
470.93
342.13
226.54
140.94
77.21
24.60
-25.69
-76.64
-128.80
-181.52
-235.56
-289.04
-339.82
-386.11
-423.61
-447.05
-448.65
-422.32
-367.37
-291.10
-207.35
-131.71
-76.58
-45.37
-33.82
-32.32
-31.08
-23.65
-7.01
18.70
51.88
89.63
129.36
167.68
200.06
217.11
212.69
186.18
142.90
92.08
43.75
0.55
-38.78
-78.05
-121.60
-170.81
-223.07
-272.46
-306.88
-318.96
-308.20
-280.81
-246.94
-216.64
-195.33
-182.83
-175.75
-169.15
-161.75
-155.18
-151.48
-151.23
-153.14
-154.19
-151.39
-143.31
-130.38
-115.04
-99.42
-87.16
-78.56
-71.99
-64.91
-55.23
-42.35
-27.16
-12.13
0.25
8.52
13.02
15.02
16.14
17.67
20.05
22.95
25.32
26.13
24.94
22.31
19.16
16.45
14.84
14.49
15.12
16.06
16.69
16.58
15.97
15.33
15.20
15.99
17.85
20.66
24.11
27.89
31.91
36.53
42.35
50.01
60.03
72.43
86.63
101.70
116.60
130.72
144.45
159.15
176.51
197.45
221.22
245.19
265.60
278.80
282.37
275.57
259.00
234.21
203.58
170.58
139.88
116.78
105.62
107.98
121.80
142.06
163.13
181.05
194.60
204.51
211.48
214.75
212.28
202.29
185.12
163.96
143.48
127.29
116.10
107.37
97.18
82.73
64.01
43.54
24.97
11.32
4.16
3.76
9.32
19.08
30.13
38.50
40.14
32.55
16.15
-5.69
-28.19
-47.37
-61.46
-70.62
-75.66
-76.65
-72.78
-63.30
-48.87
-31.87
-15.73
-3.40
3.57
5.15
2.43
-3.24
-10.57
-18.54
-26.30
-33.26
-39.12
-43.77
-46.92
-47.77
-45.19
-38.51
-28.24
-16.25
-5.21
2.71
6.78
7.71
7.05
6.10
5.39
4.95
4.77
5.17
6.49
8.60
10.48
10.53
7.25
0.14
-9.90
-21.16
-31.94
-41.33
-49.34
-56.39
-62.72
-68.09
-72.04
-74.33
-75.17
-75.04
-74.26
-72.82
-70.43
-66.88
-62.33
-57.31
-52.42
-47.99
-43.96
-39.98
-35.75
-31.24
-26.62
-22.02
-17.44
-12.79
-8.07
-3.66
-0.27
1.40
1.13
-0.61
-2.75
-4.03
-3.57
-1.22
2.35
6.07
8.88
10.15
9.82
8.20
5.74
2.85
-0.14
-2.93
-5.21
-6.60
-6.88
-6.09
-4.74
-3.74
-4.05
-6.24
-10.07
-14.39
-17.56
-18.21
-15.84
-11.09
-5.40
-0.20
3.64
6.15
7.93
9.56
11.23
12.65
13.41
13.40
12.92
12.64
13.18
14.83
17.40
20.24
22.58
23.69
23.17
21.01
17.58
13.48
9.33
5.50
2.04
-1.23
-4.43
-7.51
-10.14
-11.96
-12.76
-12.70
-12.25
-11.94
-12.13
-12.82
-13.75
-14.62
-15.24
-15.59
-15.68
-15.45
-14.68
-13.14
-10.77
-7.75
-4.54
-1.64
0.53
1.79
2.15
1.69
0.55
-1.02
-2.51
-3.26
-2.71
-0.69
2.43
5.98
9.34
12.33
15.30
18.80
23.15
28.12
33.08
37.32
40.50
42.77
44.58
46.28
47.94
49.37
50.50
51.57
53.18
55.95
60.18
65.81
72.57
80.59
90.68
104.23
122.45
145.52
172.04
199.21
223.65
242.49
254.01
257.64
253.61
242.65
226.11
206.39
186.78
170.73
160.34
155.28
152.53
147.65
136.62
117.58
91.28
60.30
27.47
-5.28
-37.48
-69.60
-102.24
-135.66
-169.85
-205.04
-242.14
-282.76
-328.63
-380.54
-437.14
-494.13
-544.55
-580.32
-594.63
-584.38
-551.28
-501.35
-442.76
-382.82
-326.07
-273.47
-223.40
-173.42
-121.72
-67.46
-10.20
50.71
115.80
184.22
252.19
312.69
357.11
378.03
372.21
341.89
293.56
234.94
171.60
105.66
36.92
-34.02
-103.48
-164.30
-208.24
-229.49
-227.03
-204.31
-166.57
-118.12
-61.34
1.71
66.39
123.91
162.50
171.40
145.20
86.42
5.06
-84.44
-167.40
-232.17
-271.78
-284.71
-274.25
-247.83
-215.35
-186.33
-166.86
-157.79
-155.34
-154.27
-151.19
-145.98
-140.99
-137.93
-135.14
-127.53
-108.97
-76.00
-30.24
21.68
71.20
111.15
138.20
153.13
159.16
160.56
161.93
167.90
182.68
209.08
247.12
293.35
341.67
384.85
416.47
432.31
430.19
409.35
369.91
313.41
244.32
170.89
103.73
52.31
20.73
5.73
-1.11
-8.49
-20.65
-36.24
-51.06
-62.71
-73.16
-87.10
-107.45
-131.04
-148.63
-149.34
-126.73
-82.56
-25.42
33.98
87.97
133.41
169.69
195.27
205.54
194.61
159.67
105.19
43.75
-7.19
-32.42
-25.67
7.00
49.53
82.71
92.24
73.51
30.72
-26.20
-86.62
-143.02
-191.28
-228.60
-251.53
-255.29
-235.93
-194.04
-134.02
-62.92
10.33
76.33
126.44
154.03
156.65
135.74
93.86
35.95
-30.96
-100.09
-165.26
-220.45
-259.43
-275.41
-263.89
-227.39
-172.58
-107.25
-39.32
25.85
86.56
135.25
165.64
189.61
211.85
223.34
217.46
191.83
149.94
99.71
49.48
5.35
-30.90
-62.67
-91.09
-111.01
-114.55
-96.18
-57.59
-9.19
34.75
62.02
65.99
50.02
26.28
8.89
8.34
28.26
65.40
112.59
161.49
203.83
234.17
250.47
251.85
237.58
207.05
160.58
101.17
35.61
-26.48
-73.90
-96.88
-91.39
-61.63
-19.91
17.48
36.59
31.78
7.75
-23.04
-47.46
-59.51
-63.46
-70.25
-89.23
-120.62
-153.42
-171.43
-163.06
-129.38
-84.68
-49.50
-39.92
-60.03
-101.62
-150.43
-194.72
-229.92
-257.62
-280.09
-295.03
-295.04
-272.36
-225.82
-164.65
-106.14
-67.87
-58.97
-75.37
-101.70
-118.79
-112.29
-77.75
-19.95
51.62
128.05
203.49
274.12
335.76
382.44
407.67
407.55
383.29
340.73
287.54
229.46
168.36
103.84
36.90
-26.98
-78.40
-107.68
-109.84
-87.25
-48.89
-6.38
30.23
54.69
64.71
61.04
46.94
28.35
13.41
10.23
23.32
50.48
82.64
107.47
114.81
100.91
68.76
24.91
-25.17
-79.70
-139.62
-205.38
-273.60
-336.17
-382.72
-405.00
-400.13
-371.00
-324.04
-265.87
-201.13
-132.85
-64.77
-3.36
42.20
62.47
51.22
8.25
-60.00
-141.90
-223.51
-291.61
-336.13
-351.91
-339.25
-303.38
-252.56
-195.60
-139.42
-87.77
-41.44
0.69
40.83
82.17
128.48
182.61
244.57
309.42
367.35
406.39
417.03
395.70
346.00
277.01
199.71
124.36
59.57
12.70
-10.23
-6.26
22.01
65.89
113.20
153.40
182.24
202.50
220.09
238.25
254.39
261.39
252.92
228.51
194.58
160.46
132.56
110.76
89.04
60.35
21.39
-25.86
-76.66
-127.50
-178.07
-230.23
-284.78
-338.39
-383.57
-411.21
-414.68
-392.51
-348.84
-291.43
-229.20
-169.71
-118.06
-77.08
-47.41
-27.53
-13.66
-0.58
16.59
39.44
64.40
83.46
87.96
73.37
42.70
6.11
-23.98
-38.68
-36.39
-21.90
-2.28
17.54
36.43
55.15
73.33
87.72
93.34
86.24
65.77
35.01
-0.60
-34.78
-61.30
-74.16
-68.48
-42.78
-1.18
46.26
86.60
109.31
111.11
97.02
76.75
58.99
47.08
38.64
28.94
15.44
0.31
-10.67
-11.85
-1.37
17.33
37.34
52.05
58.38
57.87
55.30
55.85
62.30
73.98
87.30
97.62
101.33
97.29
87.10
74.22
62.55
55.10
53.20
56.46
63.27
71.60
79.58
86.01
90.34
92.61
93.09
92.00
89.58
86.27
83.06
81.31
82.31
86.52
92.86
98.76
100.85
96.22
83.34
62.54
35.49
4.13
-30.08
-66.88
-106.96
-151.44
-200.78
-253.58
-305.68
-350.48
-380.61
-390.52
-379.02
-349.83
-310.02
-266.70
-224.06
-181.99
-137.34
-86.93
-30.49
28.29
83.03
127.44
158.20
176.35
186.63
194.98
205.58
218.69
230.16
233.69
224.01
199.54
163.43
121.33
77.80
33.38
-15.54
-73.51
-141.59
-214.51
-281.51
-330.47
-353.37
-349.73
-326.18
-292.66
-257.78
-225.34
-193.74
-158.24
-113.56
-56.44
13.26
92.23
173.76
248.23
304.53
332.95
328.79
295.45
244.67
193.91
161.10
158.52
188.64
243.70
308.94
368.07
408.49
424.25
415.96
388.52
348.15
300.39
249.63
199.57
153.86
115.68
86.64
65.72
49.22
31.81
8.89
-21.34
-57.37
-95.17
-130.39
-160.46
-185.87
-209.99
-238.05
-275.50
-326.15
-390.59
-464.95
-541.02
-607.93
-655.19
-676.21
-670.44
-643.32
-603.68
-560.19
-518.34
-479.66
-442.88
-406.15
-368.76
-331.45
-295.50
-261.54
-228.96
-196.25
-162.00
-125.64
-87.67
-49.40
-12.03
24.17
59.99
96.71
135.13
174.58
212.67
245.89
270.98
286.15
291.72
289.62
282.43
272.33
260.72
248.44
236.25
225.17
216.33
210.47
207.44
206.10
204.63
201.14
194.33
183.85
170.47
155.82
141.79
129.95
121.10
115.12
111.06
107.59
103.46
97.76
90.13
80.87
70.81
61.08
52.67
45.80
39.68
32.81
23.77
12.27
-0.33
-11.44
-18.42
-19.86
-16.27
-9.63
-2.45
3.47
7.52
10.06
11.68
12.58
12.52
11.10
8.36
4.85
1.47
-1.08
-2.63
-3.54
-4.31
-5.23
-6.20
-6.90
-7.08
-6.78
-6.26
-5.83
-5.63
-5.63
-5.81
-6.31
-7.40
-9.19
-11.46
-13.58
-14.83
-14.90
-14.15
-13.48
-13.94
-16.00
-19.27
-22.55
-24.37
-23.74
-20.59
-15.86
-11.02
-7.42
-5.64
-5.35
-5.63
-5.53
-4.54
-2.76
-0.75
0.94
1.99
2.46
2.62
2.79
3.23
4.07
5.29
6.72
7.94
8.42
7.71
5.70
2.83
-0.11
-2.27
-3.17
-2.88
-1.95
-1.08
-0.75
-1.05
-1.75
-2.48
-3.02
-3.43
-3.90
-4.57
-5.33
-5.84
-5.64
-4.47
-2.40
0.12
2.55
4.46
5.84
7.10
8.71
10.99
13.79
16.60
18.79
19.92
19.88
18.89
17.34
15.62
14.04
12.82
12.07
11.74
11.61
11.37
10.71
9.63
8.39
7.49
7.22
7.48
7.66
6.96
4.87
1.50
-2.38
-5.75
-7.76
-8.24
-7.70
-6.96
-6.76
-7.43
-8.83
-10.58
-12.32
-13.78
-14.78
-15.12
-14.57
-12.92
-10.21
-6.77
-3.13
0.07
2.40
3.76
4.35
4.60
4.96
5.72
6.94
8.48
10.09
11.52
12.60
13.25
13.48
13.31
12.75
11.82
10.55
9.03
7.35
5.57
3.65
1.51
-0.90
-3.42
-5.73
-7.37
-8.02
-7.63
-6.54
-5.34
-4.62
-4.78
-5.91
-7.79
-9.95
-11.82
-12.82
-12.52
-10.85
-8.13
-5.06
-2.42
-0.80
-0.34
-0.67
-1.20
-1.42
-1.17
-0.65
-0.27
-0.30
-0.67
-1.02
-0.89
-0.01
1.55
3.42
5.19
6.58
7.53
8.17
8.67
9.08
9.35
9.36
8.96
8.11
6.77
5.03
3.08
1.27
-0.00
-0.45
-0.01
1.02
2.13
2.82
2.77
1.99
0.82
-0.26
-0.86
-0.81
-0.22
0.65
1.55
2.42
3.44
4.88
6.89
9.32
11.68
13.34
13.81
13.10
11.60
9.94
8.59
7.61
6.82
5.91
4.62
2.77
0.20
-3.40
-8.24
-14.25
-20.76
-26.53
-30.24
-31.10
-29.25
-25.66
-21.57
-17.88
-14.88
-12.37
-10.05
-7.94
-6.35
-5.71
-6.25
-7.86
-10.00
-11.87
-12.73
-12.10
-10.00
-6.89
-3.61
-0.95
0.60
1.12
1.10
1.09
1.43
2.03
2.63
2.96
2.96
2.73
2.38
1.93
1.29
0.42
-0.57
-1.45
-2.05
-2.36
-2.61
-3.09
-4.03
-5.39
-6.88
-8.08
-8.62
-8.34
-7.31
-5.76
-4.04
-2.40
-1.03
0.03
0.79
1.31
1.52
1.35
0.70
-0.38
-1.60
-2.56
-2.82
-2.20
-0.80
0.97
2.60
3.75
4.34
4.63
5.04
5.94
7.45
9.42
11.41
12.90
13.50
13.12
12.04
10.75
9.75
9.33
9.49
9.99
10.52
10.91
11.11
11.14
11.00
10.59
9.73
8.30
6.37
4.22
2.26
0.86
0.21
0.25
0.66
0.96
0.65
-0.57
-2.64
-5.03
-6.95
-7.62
-6.72
-4.56
-1.92
0.27
1.44
1.60
1.25
1.03
1.41
2.48
4.03
5.81
7.59
9.26
10.69
11.61
11.76
10.94
9.23
6.90
4.33
1.78
-0.68
-3.11
-5.54
-7.85
-9.75
-10.95
-11.38
-11.21
-10.80
-10.46
-10.25
-10.00
-9.47
-8.55
-7.34
-6.13
-5.23
-4.86
-5.06
-5.67
-6.39
-6.80
-6.56
-5.45
-3.49
-0.98
1.64
3.97
5.75
6.94
7.57
7.52
6.54
4.31
0.77
-3.70
-8.16
-11.49
-12.76
-11.72
-8.95
-5.61
-2.86
-1.32
-0.82
-0.53
0.39
2.32
4.93
7.48
9.26
10.02
10.06
9.87
9.77
9.72
9.36
8.45
7.10
5.79
5.05
5.08
5.43
5.21
3.50
-0.03
-4.82
-9.61
-13.00
-14.15
-13.13
-10.85
-8.48
-6.82
-5.90
-5.18
-3.96
-1.98
0.42
2.53
3.69
3.71
3.03
2.41
2.60
3.95
6.30
9.05
11.44
12.81
12.91
11.89
10.24
8.61
7.58
7.45
8.21
9.51
10.83
11.64
11.59
10.68
9.23
7.85
7.17
7.58
8.99
10.72
11.79
11.28
8.87
5.00
0.75
-2.71
-4.72
-5.46
-5.72
-6.35
-7.62
-8.90
-8.90
-6.38
-0.92
6.70
14.66
20.81
23.64
22.92
19.93
16.93
16.26
19.33
26.03
34.72
42.90
48.09
48.72
44.52
36.49
26.47
16.66
9.17
5.60
6.52
11.09
17.04
21.37
21.81
18.05
12.25
7.93
7.84
11.71
15.44
12.37
-3.96
-36.50
-82.65
-134.61
-181.78
-214.30
-226.05
-215.95
-187.38
-146.34
-99.04
-50.37
-3.52
39.38
76.02
102.96
116.15
112.88
93.88
64.14
31.76
4.91
-11.44
-17.51
-18.11
-20.29
-29.84
-48.52
-73.10
-96.76
-112.03
-113.95
-102.10
-80.48
-55.33
-32.04
-12.74
4.34
23.47
49.08
83.79
127.90
180.19
238.57
299.98
359.58
410.69
445.94
459.74
450.63
422.18
381.52
336.31
292.12
251.04
211.93
171.98
128.99
83.26
38.67
1.72
-20.92
-25.88
-15.40
2.42
16.47
16.61
-2.84
-41.65
-94.44
-152.79
-207.51
-250.04
-273.12
-271.50
-243.17
-190.90
-122.93
-52.05
7.59
44.28
51.81
30.91
-11.82
-67.01
-126.18
-183.78
-237.17
-285.26
-327.34
-362.87
-392.38
-418.07
-442.63
-467.17
-489.04
-502.01
-498.71
-474.39
-429.58
-370.06
-304.34
-239.55
-179.42
-124.05
-71.51
-19.85
31.72
83.08
134.38
186.39
242.00
303.26
369.83
437.32
497.42
540.11
557.25
545.79
508.17
453.73
392.42
332.34
277.63
228.64
183.36
139.40
95.03
47.70
-2.20
-56.62
-117.66
-186.02
-259.25
-331.06
-391.99
-432.49
-448.11
-436.08
-401.71
-353.65
-300.14
-245.58
-189.85
-130.49
-54.97
17.52
80.77
124.28
140.38
127.52
91.01
39.95
-17.27
-76.11
-137.80
-200.30
-261.25
-314.64
-353.01
-371.10
-368.87
-351.34
-325.77
-299.48
-273.12
-245.81
-215.31
-180.27
-140.91
-98.53
-54.46
-9.50
34.85
79.06
122.48
165.01
207.31
250.02
292.85
334.42
373.38
408.86
442.55
475.78
507.65
533.19
544.63
535.25
503.95
457.25
406.63
363.26
331.61
308.05
284.18
253.06
213.91
172.30
135.84
108.38
87.50
65.76
35.62
-6.11
-57.10
-111.76
-165.80
-219.05
-274.63
-334.99
-398.23
-456.60
-499.17
-516.89
-506.80
-473.22
-425.14
-372.14
-320.77
-273.60
-230.28
-189.56
-150.33
-110.98
-68.82
-20.42
36.25
99.01
159.90
207.37
230.91
225.87
195.80
150.31
100.56
54.93
17.44
-11.01
-29.90
-37.79
-32.94
-15.08
13.43
48.78
87.85
129.75
174.86
222.00
266.10
298.51
310.10
295.72
256.67
199.38
131.78
59.87
-13.30
-85.44
-152.02
-205.19
-236.37
-240.66
-220.81
-186.69
-150.73
-121.58
-99.86
-79.00
-50.21
-8.75
42.84
96.45
143.38
178.79
203.08
219.41
229.67
232.38
223.41
198.69
156.97
100.71
34.94
-34.13
-100.12
-156.91
-198.19
-217.98
-211.97
-179.19
-123.28
-52.44
22.02
87.80
133.64
151.43
137.88
95.78
34.27
-32.56
-88.73
-120.24
-118.84
-84.25
-24.07
48.31
117.43
170.02
197.97
199.56
178.49
141.31
94.42
41.92
-14.84
-75.63
-138.65
-198.75
-247.53
-276.35
-279.88
-258.67
-218.89
-169.24
-116.71
-63.95
-9.59
48.87
111.78
176.16
236.99
289.83
332.71
366.12
391.18
407.65
413.56
406.32
384.55
349.53
304.68
254.04
200.69
146.64
94.04
46.55
9.18
-13.81
-21.94
-20.47
-19.46
-29.94
-58.41
-102.78
-152.79
-194.96
-219.40
-224.08
-214.54
-199.19
-184.17
-171.19
-159.03
-146.57
-134.43
-124.04
-115.04
-104.73
-89.49
-68.42
-45.89
-30.91
-33.38
-59.21
-107.28
-169.70
-234.88
-290.89
-328.13
-340.69
-326.75
-288.13
-229.41
-156.61
-76.20
5.16
80.26
141.39
181.14
194.44
179.95
140.57
82.60
14.36
-55.11
-116.41
-160.28
-179.22
-168.91
-129.56
-65.78
14.89
103.73
191.61
269.16
327.45
360.11
366.80
354.65
336.57
325.82
329.61
345.57
363.48
371.37
361.80
335.51
299.60
262.52
229.20
198.93
166.83
127.40
78.21
21.75
-34.81
-82.38
-113.63
-126.36
-125.04
-119.20
-119.58
-133.49
-162.13
-201.49
-245.70
-290.51
-334.27
-376.10
-413.55
-442.41
-459.34
-465.58
-468.29
-477.66
-501.02
-537.64
-578.01
-608.09
-616.14
-598.29
-559.51
-510.08
-460.14
-415.56
-377.21
-342.79
-309.41
-275.25
-239.52
-201.63
-160.73
-116.40
-70.62
-28.78
1.36
12.66
2.67
-24.03
-56.91
-83.67
-95.41
-90.06
-72.17
-49.07
-26.49
-5.62
16.47
43.90
78.47
117.67
155.12
183.25
196.80
195.42
184.24
172.53
170.24
184.39
216.50
261.63
309.47
347.30
363.42
350.85
309.89
248.37
179.88
119.73
80.49
68.12
80.60
109.46
143.84
174.74
197.31
211.24
218.85
222.75
224.05
222.09
215.21
202.40
184.33
163.46
143.10
125.84
112.47
102.22
94.16
88.18
85.25
86.03
89.30
91.90
89.80
80.40
64.32
45.55
29.70
21.30
21.96
30.13
42.58
55.92
67.59
75.74
78.78
75.56
66.21
52.79
38.72
27.33
19.99
15.56
11.35
5.18
-2.99
-10.96
-15.72
-15.36
-10.37
-3.39
2.47
5.41
5.89
5.94
7.59
11.44
16.21
19.55
19.45
15.56
9.58
4.54
3.46
7.97
17.73
30.66
44.02
55.49
63.94
69.43
72.86
75.36
77.84
80.76
83.96
86.62
87.56
85.80
81.18
74.79
68.92
66.49
70.02
80.96
99.28
123.65
151.69
180.15
205.26
223.15
230.72
226.49
211.10
187.10
157.92
126.66
95.15
63.86
32.46
0.65
-31.51
-63.65
-95.64
-128.09
-162.26
-199.74
-242.10
-290.65
-346.10
-407.72
-472.56
-535.09
-587.97
-623.90
-638.06
-629.66
-601.96
-560.76
-512.09
-460.52
-408.66
-357.73
-308.52
-261.92
-218.59
-178.51
-140.51
-102.52
-62.22
-17.98
30.41
81.16
130.49
173.54
205.91
225.18
231.89
229.28
221.80
213.22
205.23
197.38
188.18
176.63
163.15
149.39
137.22
127.64
120.37
114.34
108.56
102.84
97.70
93.76
91.01
88.54
85.01
79.42
71.71
62.75
53.74
45.37
37.56
29.69
21.18
11.72
1.14
-11.20
-26.55
-46.24
-70.95
-100.57
-134.82
-174.22
-220.05
-272.99
-330.94
-387.74
-434.16
-461.16
-463.91
-444.05
-408.81
-367.44
-326.94
-289.77
-254.37
-217.77
-178.27
-136.69
-95.40
-56.58
-20.74
13.48
48.43
86.11
127.38
171.78
218.16
265.34
312.08
356.79
397.02
429.55
451.11
459.52
454.61
438.37
414.20
385.84
356.49
328.48
303.52
282.96
267.79
258.19
253.25
251.02
249.20
246.07
241.19
235.41
230.37
227.57
227.66
230.16
233.69
236.54
237.23
235.02
230.24
224.52
220.72
222.27
231.87
249.96
273.75
297.55
314.58
319.42
310.11
288.67
259.91
229.23
200.53
175.22
152.55
130.70
107.98
83.45
56.85
28.40
-1.38
-31.85
-62.35
-92.44
-122.44
-153.57
-187.75
-226.51
-269.79
-315.05
-357.28
-389.88
-406.37
-402.15
-375.79
-329.59
-269.38
-203.37
-140.43
-87.84
-49.21
-23.43
-5.37
11.68
32.69
58.49
85.38
107.10
117.77
114.49
97.81
70.63
36.33
-2.63
-44.80
-89.00
-133.36
-175.40
-213.02
-245.65
-275.08
-305.37
-341.77
-388.82
-448.11
-516.55
-586.11
-645.54
-683.88
-694.32
-676.74
-637.54
-586.71
-533.71
-483.99
-438.13
-393.42
-346.68
-296.69
-244.74
-193.58
-145.67
-101.99
-61.86
-23.60
14.68
54.67
97.73
144.72
195.15
246.30
292.96
328.90
349.32
352.90
342.31
322.77
299.72
277.12
256.87
239.01
222.06
203.08
178.19
144.12
100.75
53.17
11.37
-13.14
-12.59
12.93
54.96
100.42
137.15
158.03
161.90
151.60
131.14
104.20
73.96
43.73
17.17
-2.09
-11.47
-10.04
1.56
21.34
46.53
73.91
99.87
120.50
132.07
131.88
119.43
97.04
69.55
42.99
22.80
12.00
10.10
13.50
17.02
16.30
9.60
-1.68
-14.09
-24.09
-29.61
-30.63
-28.60
-25.14
-21.17
-16.70
-11.21
-4.41
3.25
10.64
16.51
20.05
21.09
19.98
17.33
13.79
9.91
6.10
2.61
-0.34
-2.49
-3.42
-2.55
0.55
5.82
12.43
18.79
23.11
24.10
21.70
17.12
12.32
9.02
7.81
7.90
7.63
5.42
0.70
-5.73
-12.20
-17.01
-19.27
-19.00
-16.81
-13.29
-8.88
-3.94
0.98
4.96
6.99
6.56
4.22
1.64
1.00
3.57
9.28
16.74
23.97
29.40
32.49
33.78
34.46
35.80
38.24
41.93
47.35
55.44
66.90
80.98
94.59
102.85
100.65
83.98
52.16
8.22
-42.24
-93.15
-139.98
-180.64
-214.88
-238.31
-246.43
-236.11
-208.29
-168.28
-123.30
-79.77
-41.87
-11.13
12.63
29.64
40.78
47.28
50.57
51.88
51.81
50.14
46.54
40.54
30.86
17.08
-0.37
-20.54
-42.35
-65.20
-89.20
-114.24
-137.76
-160.15
-182.44
-205.25
-227.63
-246.05
-254.69
-250.75
-228.78
-187.26
-130.86
-67.91
-7.35
44.58
85.99
118.86
146.84
169.72
187.77
200.23
206.44
206.73
202.56
195.93
188.46
180.91
173.68
166.56
159.15
151.29
143.26
135.67
128.98
123.46
118.91
115.15
111.99
109.78
109.08
110.42
113.10
114.49
110.45
96.81
72.99
39.33
0.06
-38.84
-71.69
-95.33
-109.77
-117.27
-120.79
-122.46
-123.13
-122.36
-119.83
-115.44
-109.55
-102.85
-95.91
-89.11
-82.62
-76.27
-68.29
-59.24
-49.64
-40.12
-31.37
-24.16
-19.18
-16.88
-16.88
-18.00
-19.10
-19.17
-17.85
-15.98
-14.61
-15.18
-19.20
-27.47
-40.23
-57.29
-77.03
-96.08
-109.29
-111.74
-98.61
-72.09
-38.47
-5.79
19.11
33.51
39.09
40.67
42.78
46.72
51.40
55.29
57.69
59.30
61.92
67.53
78.05
93.52
112.54
132.08
148.44
157.57
156.21
143.10
116.07
81.06
45.08
13.45
-11.52
-30.13
-44.34
-55.11
-62.49
-66.38
-66.74
-65.39
-64.46
-65.27
-67.76
-70.94
-73.99
-77.30
-82.48
-89.16
-98.01
-108.39
-117.84
-122.52
-118.59
-103.61
-77.74
-43.91
-6.55
29.04
59.11
82.39
99.86
113.62
125.40
135.49
143.43
149.40
154.45
160.46
168.73
178.55
186.91
189.95
184.99
172.43
155.85
139.78
127.53
119.58
113.75
106.79
96.07
79.87
57.67
29.83
-2.60
-37.57
-71.90
-101.57
-122.56
-132.05
-130.39
-118.73
-96.86
-62.45
-12.82
52.07
127.17
202.39
265.27
302.03
305.46
278.14
230.73
176.26
124.72
80.60
44.06
13.58
-16.96
-51.26
-88.37
-123.90
-154.02
-177.71
-197.01
-214.50
-231.91
-256.16
-292.22
-340.13
-395.54
-453.73
-511.98
-570.65
-630.63
-650.18
-603.05
-492.70
-350.21
-209.48
-89.42
6.19
80.27
138.23
185.68
220.86
241.69
250.04
251.96
249.59
249.26
253.59
263.20
277.95
292.39
301.07
302.31
298.26
292.17
286.54
281.31
275.40
266.97
255.82
239.41
216.67
188.53
156.54
122.17
85.60
47.04
7.10
-34.89
-80.27
-129.49
-182.74
-240.90
-305.51
-377.98
-456.94
-536.74
-608.08
-660.65
-685.69
-679.21
-643.43
-585.71
-516.39
-445.82
-382.44
-331.73
-296.17
-274.56
-262.60
-254.23
-243.64
-227.36
-205.13
-179.10
-151.96
-125.31
-99.05
-72.17
-44.12
-15.30
13.28
41.32
69.79
100.84
136.81
179.67
230.74
290.20
356.90
427.67
496.86
556.41
597.88
615.31
607.60
579.02
537.35
490.90
445.92
405.61
369.99
337.67
307.65
280.01
255.42
234.11
215.54
198.89
184.04
170.44
157.33
144.00
129.93
114.75
98.01
79.12
57.85
34.53
8.22
-23.00
-61.39
-108.32
-164.02
-228.35
-301.82
-385.28
-468.14
-534.32
-568.17
-562.96
-522.26
-455.89
-376.33
-296.74
-228.09
-175.72
-140.48
-119.13
-107.01
-99.86
-95.58
-92.21
-88.57
-83.28
-73.60
-58.54
-38.93
-17.74
1.62
16.77
27.25
34.04
39.26
47.41
58.13
70.52
82.03
89.68
91.53
87.63
79.60
70.15
64.56
67.44
82.05
108.92
146.66
193.17
247.05
307.31
359.10
389.20
389.73
362.84
317.92
265.53
212.91
164.06
120.24
81.22
48.23
22.43
4.35
-7.12
-14.23
-19.67
-24.80
-30.34
-36.83
-43.27
-48.45
-51.77
-53.76
-52.93
-51.76
-51.05
-50.89
-51.43
-52.27
-52.87
-53.22
-53.51
-53.59
-53.01
-50.17
-43.82
-33.92
-21.44
-7.49
6.46
19.56
32.29
46.18
64.11
89.15
124.17
166.80
215.65
267.93
318.86
361.85
389.68
397.33
383.84
353.14
312.70
271.29
234.82
204.94
179.96
157.52
137.49
122.70
117.19
123.15
138.98
158.39
172.89
175.49
163.44
139.13
108.21
76.09
46.05
19.02
-5.93
-30.02
-53.51
-75.29
-93.33
-105.64
-111.46
-111.24
-106.10
-97.71
-87.98
-78.76
-71.31
-66.06
-62.70
-61.90
-64.22
-69.75
-77.95
-87.90
-98.48
-108.50
-117.01
-123.77
-132.49
-146.67
-167.23
-191.87
-216.48
-236.93
-250.10
-254.58
-251.00
-247.95
-253.18
-268.83
-290.73
-312.28
-328.29
-336.39
-336.97
-332.34
-335.46
-356.10
-394.28
-440.69
-483.95
-516.61
-536.33
-544.40
-543.75
-550.71
-577.86
-626.57
-687.72
-750.59
-809.46
-863.91
-915.96
-886.07
-735.38
-484.69
-200.62
55.60
256.86
403.57
507.66
582.62
630.09
648.52
635.33
594.66
538.81
480.44
426.13
375.80
324.80
285.74
254.95
226.31
197.13
170.16
149.65
137.86
134.88
139.95
152.54
157.17
148.50
127.59
101.23
77.39
61.34
55.02
58.03
68.89
91.90
123.57
158.39
192.25
222.61
247.92
267.44
281.22
290.05
293.63
290.78
281.09
266.22
248.93
231.39
215.29
201.99
192.55
186.83
185.36
187.97
194.66
205.46
219.69
236.35
254.33
272.71
290.35
305.50
316.52
322.46
323.07
317.36
305.10
287.13
265.17
240.96
215.36
188.60
160.98
133.10
102.73
69.27
34.79
3.42
-21.15
-37.58
-46.82
-50.99
-52.38
-59.21
-76.47
-103.17
-133.60
-162.07
-186.52
-208.50
-231.39
-258.50
-302.12
-368.72
-455.16
-550.30
-642.53
-725.27
-797.22
-859.91
-915.76
-980.74
-1065.25
-1167.90
-1275.85
-1372.49
-1444.89
-1485.77
-1493.64
-1387.80
-1139.48
-784.67
-405.49
-74.69
176.98
353.08
471.15
548.83
599.13
617.23
601.16
558.67
505.92
458.46
423.82
402.17
389.69
382.58
367.97
338.91
298.03
254.24
218.75
196.91
188.22
189.01
195.41
197.74
189.97
172.22
149.71
128.27
110.51
96.02
82.94
70.05
53.52
31.52
5.34
-21.20
-43.97
-60.43
-69.28
-73.55
-74.73
-74.98
-75.65
-76.92
-78.02
-78.01
-76.62
-74.13
-71.14
-67.71
-63.98
-60.08
-56.10
-52.08
-48.03
-44.03
-40.22
-36.78
-33.48
-30.22
-26.97
-23.69
-20.37
-16.98
-13.54
-10.09
-6.74
-3.34
0.16
3.77
7.45
11.21
15.04
18.92
22.84
26.77
30.80
34.90
38.99
42.91
46.42
49.22
51.00
51.43
50.25
47.32
42.64
36.34
28.71
20.15
11.11
2.09
-6.50
-14.28
-20.99
-26.49
-30.71
-33.73
-35.66
-36.73
-37.18
-37.32
-37.41
-37.68
-38.30
-39.33
-40.76
-42.50
-44.47
-46.60
-48.86
-51.24
-53.76
-56.34
-58.83
-61.00
-62.56
-63.33
-63.22
-62.29
-60.67
-58.48
-55.76
-52.37
-48.07
-42.62
-35.99
-28.41
-20.51
-13.13
-7.15
-3.24
-1.67
-2.30
-4.73
-8.53
-13.43
-19.38
-26.36
-34.09
-41.91
-48.56
-52.35
-51.42
-43.85
-28.00
-2.74
31.88
73.98
119.79
164.24
202.68
232.53
254.26
270.84
285.97
302.10
319.11
334.82
346.27
351.55
350.55
345.16
338.78
335.08
337.50
348.38
368.13
393.90
419.54
436.77
437.93
418.95
379.88
324.11
256.89
184.42
113.36
50.25
0.05
-35.63
-58.06
-71.79
-81.96
-91.29
-98.39
-98.81
-88.34
-66.44
-37.14
-3.35
32.41
69.23
106.93
145.23
183.13
219.22
252.44
282.73
318.54
367.11
430.87
504.79
578.20
639.86
682.39
704.24
709.11
714.89
737.17
783.23
849.09
923.25
994.03
1054.66
1104.01
1144.37
1193.14
1262.55
1354.06
1456.54
1552.35
1627.18
1675.48
1699.98
1614.55
1369.93
963.54
450.26
-84.21
-565.28
-952.19
-1236.61
-1430.50
-1554.60
-1615.92
-1621.24
-1580.14
-1506.87
-1420.92
-1338.23
-1268.86
-1217.73
-1186.54
-1163.78
-1139.24
-1105.99
-1065.23
-1022.94
-983.18
-945.08
-903.87
-854.88
-790.06
-707.81
-614.05
-520.43
-438.79
-375.68
-331.39
-302.22
-283.68
-268.82
-252.33
-230.48
-201.92
-167.14
-127.62
-85.74
-44.39
-6.24
26.72
54.85
79.73
102.70
124.09
143.18
158.34
167.89
170.71
167.06
158.86
148.84
139.68
133.57
131.84
134.41
139.22
142.05
137.43
120.81
90.72
50.13
6.03
-33.19
-61.05
-75.46
-78.76
-75.80
-70.94
-66.38
-62.03
-56.89
-50.56
-43.89
-38.41
-35.25
-34.28
-34.13
-33.06
-29.65
-23.69
-16.11
-8.46
-2.19
1.96
4.12
5.17
6.10
7.50
9.30
10.84
11.17
9.57
6.00
1.02
-4.32
-8.91
-11.98
-13.23
-12.94
-11.68
-10.15
-8.79
-7.88
-7.46
-7.50
-7.98
-8.87
-10.16
-11.67
-13.22
-14.13
-13.74
-11.38
-6.47
0.93
10.54
21.91
34.39
46.86
58.80
69.24
77.37
82.65
84.37
82.25
76.56
68.02
57.02
45.79
35.72
28.27
24.87
25.75
30.99
40.54
54.25
70.64
90.52
113.11
137.62
163.43
188.05
209.47
226.51
238.86
245.01
246.53
242.62
231.89
215.87
191.68
157.11
111.61
66.42
11.22
-48.67
-110.10
-169.72
-223.99
-275.07
-324.38
-371.79
-415.01
-452.95
-482.42
-503.29
-515.93
-521.09
-526.68
-539.19
-562.04
-594.33
-634.40
-678.75
-727.01
-779.82
-798.10
-759.41
-662.73
-528.00
-379.61
-235.58
-105.21
4.76
90.17
150.69
181.54
188.30
178.66
161.51
143.74
129.75
121.01
118.30
122.65
130.45
137.03
139.23
136.76
130.53
121.75
111.13
99.39
87.15
71.58
50.21
21.62
-13.49
-53.19
-95.27
-137.52
-177.67
-213.53
-244.70
-270.79
-291.22
-304.63
-309.58
-305.08
-290.89
-267.53
-236.19
-199.08
-158.44
-116.13
-73.17
-30.02
13.14
56.03
98.06
138.49
176.45
211.39
243.24
272.53
299.98
326.11
350.80
373.04
391.30
404.09
410.46
410.34
404.61
394.67
382.13
368.89
356.79
347.31
340.57
334.54
325.34
308.68
281.80
244.90
201.54
156.94
116.38
83.07
57.22
36.61
18.04
-0.89
-20.85
-40.89
-59.54
-75.69
-88.93
-99.02
-105.06
-105.17
-96.85
-78.09
-48.91
-12.15
27.21
63.97
94.85
119.81
141.60
164.23
190.91
222.50
257.03
290.53
318.67
338.29
348.55
350.15
344.46
332.47
314.48
290.78
262.20
230.05
195.28
157.64
115.63
67.84
14.80
-39.90
-90.39
-130.97
-158.93
-176.04
-187.55
-199.55
-215.85
-236.25
-257.03
-272.94
-279.69
-275.71
-262.18
-241.94
-217.86
-191.62
-163.44
-132.73
-99.13
-63.23
-26.67
8.80
42.32
74.61
107.91
144.71
186.11
230.55
273.64
309.45
332.71
340.80
334.22
315.77
288.86
256.33
220.41
183.54
149.24
122.03
105.74
101.41
105.88
112.32
112.91
101.60
76.23
38.64
-6.89
-56.10
-106.31
-156.00
-203.35
-244.27
-272.36
-280.78
-265.27
-226.57
-171.55
-111.45
-58.06
-20.19
-0.60
2.90
-5.35
-21.67
-43.30
-68.79
-96.26
-121.93
-141.21
-148.26
-139.72
-116.85
-84.78
-47.43
-6.65
38.69
90.95
148.90
209.76
266.85
310.98
335.43
342.44
339.61
336.01
337.18
340.20
342.26
340.45
332.87
320.28
308.88
303.62
306.01
314.26
322.13
331.14
346.13
370.49
374.64
336.91
251.40
133.45
33.74
-40.00
-93.51
-136.68
-186.24
-249.44
-322.03
-394.41
-456.05
-500.40
-530.35
-547.88
-556.28
-559.79
-561.30
-559.51
-553.12
-542.84
-532.35
-529.71
-536.85
-550.89
-565.89
-573.83
-566.34
-539.12
-493.47
-435.76
-376.33
-321.63
-274.32
-234.30
-199.48
-166.97
-135.07
-103.61
-73.60
-46.90
-22.96
0.42
25.83
54.71
85.75
114.22
133.39
137.61
125.13
100.11
70.94
46.80
34.54
36.25
49.89
71.31
96.52
123.05
149.80
176.18
201.13
223.52
242.92
260.74
280.14
304.65
336.20
373.37
411.17
442.64
461.53
464.83
453.71
432.64
407.09
381.51
358.27
337.94
320.12
303.91
288.03
270.52
249.05
221.65
187.78
148.95
108.09
68.28
31.27
-3.00
-35.95
-68.92
-102.15
-134.51
-164.35
-190.49
-212.89
-232.49
-250.39
-267.25
-283.34
-299.32
-316.78
-337.81
-363.43
-391.85
-417.81
-433.86
-433.46
-413.95
-377.90
-331.75
-282.71
-235.97
-193.75
-156.51
-124.79
-99.96
-83.08
-72.93
-65.08
-53.38
-33.40
-5.78
22.90
42.32
42.83
19.78
-24.34
-81.29
-140.65
-193.71
-235.80
-266.01
-285.29
-294.19
-291.76
-276.17
-246.59
-204.71
-155.13
-104.04
-56.87
-16.38
17.93
49.02
80.58
115.43
154.62
197.19
240.41
280.25
312.25
332.59
339.52
334.10
320.28
303.42
288.35
277.78
271.75
268.23
264.37
257.91
247.86
234.80
220.03
204.68
189.76
176.52
166.59
161.44
161.58
165.52
170.17
171.25
164.38
147.03
119.32
83.62
42.43
-2.68
-51.23
-101.56
-149.67
-189.71
-214.67
-219.02
-201.04
-165.01
-119.72
-75.93
-42.03
-22.60
-18.94
-28.98
-48.60
-72.81
-96.72
-114.09
-126.57
-138.01
-148.18
-157.12
-164.44
-169.74
-167.61
-155.67
-134.71
-108.87
-81.89
-55.34
-29.16
-2.17
24.67
51.74
75.75
91.77
95.34
84.92
61.47
26.21
-18.54
-68.38
-116.10
-153.88
-174.30
-172.96
-149.98
-110.49
-63.72
-19.38
15.47
38.27
49.31
50.72
44.87
33.89
19.86
5.18
-6.54
-11.90
-8.05
3.98
19.80
32.44
34.42
20.86
-8.65
-49.55
-94.08
-134.14
-164.87
-185.47
-198.55
-208.03
-216.66
-224.79
-230.82
-232.91
-227.93
-216.25
-199.99
-181.35
-161.60
-140.57
-117.46
-91.92
-65.14
-39.67
-18.89
-5.10
1.76
3.81
4.44
6.71
12.87
24.06
40.11
59.09
77.40
91.03
96.66
93.52
84.20
74.01
68.39
69.89
76.33
82.15
82.57
76.07
65.83
57.62
57.86
70.38
95.49
130.43
171.53
216.12
260.58
299.21
323.45
327.15
309.71
277.77
242.71
216.47
208.97
222.94
253.90
290.56
322.44
342.12
346.41
334.26
306.63
268.82
227.32
188.38
153.50
124.46
102.84
91.08
90.35
85.72
66.16
25.59
-16.58
-55.67
-90.50
-125.96
-159.29
-185.11
-198.38
-194.34
-172.30
-135.71
-93.80
-54.19
-22.16
0.09
11.49
11.74
3.24
-10.68
-26.33
-42.53
-56.89
-67.12
-71.00
-67.93
-59.57
-47.88
-35.95
-26.86
-23.86
-26.60
-31.86
-34.87
-32.52
-26.08
-20.11
-20.57
-31.85
-55.27
-87.72
-123.49
-156.35
-178.29
-183.72
-171.14
-144.05
-108.90
-71.69
-36.34
-5.22
18.85
37.40
52.56
67.28
84.84
107.44
134.87
163.85
188.97
203.93
205.10
191.96
167.32
136.07
102.64
70.01
39.41
11.04
-15.44
-40.78
-67.28
-97.93
-135.28
-180.63
-233.67
-292.43
-353.29
-410.32
-455.38
-479.57
-476.26
-444.91
-393.36
-336.21
-289.23
-262.28
-254.53
-255.24
-249.76
-227.21
-185.80
-132.79
-79.47
-34.71
-1.27
24.68
49.79
79.82
117.03
160.45
206.82
252.19
292.39
322.92
339.58
338.95
320.15
286.16
243.25
199.04
159.72
128.11
103.26
81.83
59.63
34.91
9.77
-10.16
-19.40
-16.69
-5.25
10.36
27.47
45.20
64.29
85.09
106.26
124.80
137.86
143.19
140.18
130.71
116.43
98.97
79.07
56.09
29.61
0.40
-30.13
-59.66
-85.00
-104.96
-118.99
-127.55
-131.85
-133.33
-133.23
-132.59
-135.35
-139.34
-143.49
-146.62
-147.53
-145.03
-137.84
-124.90
-106.01
-81.37
-45.66
-2.30
43.29
86.16
122.76
150.37
169.77
181.37
185.18
181.13
168.22
145.84
114.38
75.56
32.25
-12.37
-56.41
-94.74
-123.49
-132.64
-115.86
-73.33
-12.17
57.00
124.71
184.79
233.61
270.46
296.80
315.01
326.38
331.58
331.00
325.25
314.94
297.93
272.62
240.14
202.15
159.98
114.21
65.05
13.02
-40.65
-98.69
-161.78
-227.25
-291.52
-352.00
-408.06
-460.50
-510.54
-559.43
-613.72
-676.05
-742.35
-803.10
-847.03
-864.96
-853.18
-814.27
-720.16
-570.73
-390.64
-215.94
-73.16
29.91
98.61
141.49
165.80
176.92
173.67
157.73
134.99
113.25
96.91
89.48
90.98
100.27
116.42
134.97
154.16
175.54
200.90
229.50
258.80
284.92
304.60
316.24
317.15
307.34
289.47
267.58
245.26
224.80
206.67
190.54
175.96
161.33
145.94
130.08
114.67
100.59
88.50
78.32
69.73
62.37
55.65
49.13
42.71
36.54
30.86
26.11
22.55
20.21
19.00
18.82
19.08
18.89
18.64
16.95
13.55
9.03
4.47
0.93
-0.48
0.64
4.01
7.58
11.61
16.27
21.96
30.39
40.95
53.08
65.42
75.90
82.36
83.33
78.42
68.46
54.99
39.66
24.43
11.08
1.02
-5.29
-8.82
-12.32
-19.31
-32.55
-52.32
-75.03
-93.87
-102.51
-97.79
-80.90
-56.58
-30.37
-6.22
14.37
31.85
46.93
59.10
66.67
68.00
62.45
50.88
35.29
17.98
1.37
-13.47
-26.72
-39.08
-51.03
-62.43
-72.39
-79.62
-83.01
-82.14
-77.73
-71.50
-65.46
-61.23
-59.54
-60.03
-61.44
-62.27
-61.26
-58.19
-53.90
-49.88
-47.61
-47.95
-50.72
-54.73
-58.29
-60.14
-59.75
-57.72
-55.28
-53.73
-54.05
-56.82
-62.34
-70.32
-79.42
-86.67
-87.94
-79.30
-59.13
-29.58
3.63
33.33
53.81
62.91
62.58
56.80
49.41
42.43
35.91
28.97
21.27
13.50
6.91
2.48
-0.02
-1.84
-4.51
-9.30
-16.46
-25.24
-34.41
-42.90
-50.12
-56.34
-62.26
-68.46
-74.95
-81.08
-85.24
-85.63
-80.82
-70.17
-54.00
-33.47
-10.23
13.97
37.17
58.04
75.74
89.78
99.92
106.16
108.76
108.23
105.20
100.93
95.81
90.29
84.68
79.16
73.90
69.09
64.96
61.56
58.84
56.51
54.17
51.46
48.22
44.70
41.43
39.02
37.98
38.21
39.07
39.70
39.37
37.77
35.41
33.36
32.78
34.59
38.78
44.35
49.90
54.28
56.81
57.69
57.99
58.14
58.63
59.55
60.97
62.79
64.28
63.46
57.32
42.89
18.66
-12.14
-43.53
-68.48
-81.85
-82.12
-71.77
-55.44
-37.92
-22.18
-9.27
0.53
6.74
8.55
5.54
-1.62
-11.07
-20.45
-28.11
-33.53
-37.89
-42.77
-49.81
-59.13
-69.30
-78.16
-83.61
-84.85
-82.56
-78.79
-75.87
-75.91
-80.12
-87.62
-95.87
-100.61
-97.12
-81.89
-54.80
-19.32
17.77
49.44
70.91
81.27
83.44
82.25
82.09
84.79
88.82
90.02
83.50
65.68
36.11
-1.81
-41.88
-76.81
-100.56
-110.52
-107.58
-95.10
-76.93
-56.03
-34.27
-13.29
4.91
18.12
24.58
23.85
17.06
6.66
-4.44
-14.05
-21.19
-25.92
-28.72
-30.65
-32.69
-35.86
-41.10
-48.85
-59.92
-74.54
-94.01
-118.54
-146.66
-174.23
-195.00
-203.88
-195.73
-170.38
-132.48
-89.79
-49.62
-16.34
9.80
31.54
51.48
71.29
90.14
106.13
117.59
124.45
127.90
129.38
129.62
128.34
125.09
119.14
110.65
100.53
90.41
81.78
75.42
71.20
68.11
65.11
61.24
56.19
50.27
44.36
39.29
35.52
33.03
31.35
30.00
28.48
26.96
25.20
23.46
22.10
21.34
21.40
22.33
24.11
26.66
29.84
33.29
36.80
40.42
43.68
46.41
48.52
49.91
50.44
49.84
47.74
43.97
38.65
32.17
25.18
18.35
12.24
7.34
4.16
3.38
5.55
10.42
16.49
21.13
21.34
15.12
2.51
-14.34
-32.16
-47.95
-60.03
-67.97
-71.86
-71.55
-66.54
-56.58
-42.46
-26.25
-10.72
1.74
10.07
14.50
16.04
15.78
14.70
13.64
13.65
15.66
20.18
26.81
33.91
39.43
41.78
40.94
38.44
37.04
39.83
48.83
64.31
84.30
105.33
123.42
135.06
137.86
131.56
118.69
104.37
98.14
108.56
140.34
191.26
251.47
305.53
338.31
340.60
312.10
260.51
197.24
132.72
73.66
22.51
-22.37
-62.65
-98.23
-127.69
-150.12
-166.35
-179.86
-194.18
-211.19
-233.32
-259.92
-287.05
-309.30
-322.63
-325.13
-319.22
-308.31
-295.56
-287.98
-290.30
-302.76
-321.88
-343.41
-362.72
-378.91
-390.59
-395.12
-395.42
-393.55
-388.96
-380.20
-368.28
-355.15
-347.05
-347.17
-316.48
-234.44
-108.77
30.88
155.81
237.90
287.50
314.10
324.57
323.70
312.59
290.25
258.81
223.05
186.78
152.76
117.45
77.48
32.31
-19.17
-72.86
-118.13
-141.72
-134.32
-93.65
-29.64
41.81
103.78
140.38
144.14
119.02
78.29
38.45
14.37
12.60
32.45
67.42
106.38
138.24
155.12
153.01
131.16
92.52
42.78
-8.76
-50.85
-74.18
-74.29
-53.26
-18.89
18.18
48.69
67.24
73.43
70.34
62.49
54.22
48.70
48.00
52.79
62.51
75.34
88.52
98.89
104.55
106.00
105.49
106.05
109.77
117.61
129.55
144.82
161.74
178.99
196.29
213.20
229.23
242.79
252.29
256.29
253.02
239.29
212.42
172.15
120.31
61.45
0.77
-56.02
-102.50
-128.59
-130.10
-112.21
-84.44
-58.99
-38.28
-23.48
-15.89
-17.08
-27.07
-47.41
-78.63
-113.58
-143.96
-163.36
-171.11
-170.13
-163.68
-154.11
-143.68
-133.42
-122.94
-112.15
-100.91
-89.84
-79.66
-70.52
-62.26
-55.27
-49.57
-44.44
-39.77
-35.45
-31.61
-28.48
-25.86
-23.35
-20.87
-18.24
-14.94
-10.97
-8.37
-5.88
-2.93
0.88
5.83
11.86
18.79
26.49
34.33
41.83
49.14
56.49
64.41
73.56
84.53
97.74
113.50
130.68
148.12
165.35
182.18
198.31
213.21
225.95
235.38
240.39
237.83
224.96
200.34
165.92
124.41
78.74
31.69
-14.09
-55.98
-94.70
-130.68
-162.62
-187.49
-202.55
-206.70
-200.92
-187.71
-170.47
-156.93
-153.87
-164.70
-188.98
-224.40
-268.62
-320.10
-377.90
-414.64
-412.10
-368.33
-298.30
-221.64
-151.76
-93.79
-47.64
-11.05
18.64
39.88
51.23
53.47
49.97
44.78
40.78
39.05
39.52
41.70
42.35
38.85
30.77
20.11
9.51
0.57
-6.52
-12.31
-17.58
-24.23
-33.55
-45.28
-57.67
-68.63
-76.90
-82.18
-84.65
-87.32
-89.70
-91.22
-90.17
-83.37
-66.97
-38.07
3.87
56.16
113.52
167.27
210.22
239.30
255.42
262.36
264.08
262.79
260.18
253.68
241.48
222.19
195.15
160.35
118.91
73.52
27.92
-11.94
-42.57
-63.11
-76.31
-86.65
-97.51
-109.82
-121.44
-128.93
-129.47
-123.51
-111.39
-94.85
-76.10
-57.39
-40.96
-28.72
-21.44
-17.91
-16.04
-12.62
-6.40
1.69
9.13
13.58
14.49
13.38
13.32
17.27
27.82
44.97
66.51
88.46
105.98
114.36
110.59
94.80
68.01
38.60
15.57
4.40
5.20
14.22
26.24
37.35
46.15
52.90
58.81
63.46
65.56
63.86
58.50
50.80
42.61
35.67
30.39
26.38
21.97
16.05
6.50
-7.11
-23.76
-41.50
-58.19
-72.63
-83.83
-91.40
-94.55
-91.62
-79.57
-56.69
-23.53
16.57
57.86
94.67
122.85
140.88
149.67
151.62
149.09
143.73
137.91
130.44
120.68
108.00
91.45
70.07
43.51
12.43
-21.52
-54.63
-84.04
-107.81
-125.42
-137.65
-146.01
-152.07
-157.18
-161.87
-165.72
-167.71
-166.17
-159.83
-148.69
-134.43
-119.73
-107.59
-100.03
-97.41
-98.85
-102.75
-107.67
-112.60
-117.04
-120.51
-122.18
-120.86
-115.87
-106.02
-91.24
-72.23
-50.01
-25.63
0.18
26.94
54.21
80.55
104.95
125.94
141.91
151.83
155.48
153.75
148.44
141.72
135.52
130.94
127.67
124.45
119.92
113.27
104.75
95.81
88.27
83.78
82.92
85.11
87.78
88.57
86.30
81.27
75.31
70.56
68.83
70.78
75.84
82.85
90.42
96.21
96.51
87.44
65.76
32.55
-6.14
-41.09
-63.90
-70.99
-65.46
-55.32
-49.11
-51.59
-61.79
-74.87
-85.92
-92.78
-96.61
-100.15
-105.06
-110.58
-114.42
-114.12
-108.68
-99.41
-88.84
-79.52
-72.67
-67.34
-61.10
-51.46
-36.98
-18.02
2.97
22.68
38.30
48.77
54.89
58.80
62.64
67.81
74.70
83.10
93.22
105.93
121.59
138.38
151.79
155.32
143.42
114.32
71.11
20.67
-29.21
-72.86
-107.61
-131.97
-145.85
-148.63
-139.74
-120.77
-96.01
-71.20
-51.83
-40.01
-33.76
-28.56
-20.23
-6.89
7.94
17.12
14.10
-4.07
-33.99
-66.39
-89.91
-95.90
-82.40
-54.63
-23.98
-1.12
8.33
5.07
-6.04
-19.81
-33.18
-45.55
-57.38
-68.29
-76.34
-79.27
-75.82
-66.91
-54.76
-41.77
-29.21
-16.67
-2.08
17.29
43.28
74.97
108.78
138.33
155.99
155.95
136.82
102.77
62.59
26.00
-0.16
-14.19
-19.36
-21.46
-25.40
-32.79
-41.36
-46.36
-43.04
-29.18
-6.23
21.00
45.96
63.13
69.86
67.05
57.72
44.97
30.34
13.65
-5.49
-26.09
-44.66
-56.39
-57.08
-45.46
-23.57
3.85
31.89
55.52
70.07
71.86
59.62
36.28
9.15
-12.24
-19.74
-11.68
7.38
28.59
43.24
46.96
41.04
30.38
19.98
11.84
4.80
-3.45
-13.90
-24.92
-32.97
-34.87
-29.59
-18.98
-6.73
3.13
8.15
8.21
5.16
2.03
1.24
3.58
8.06
12.54
15.04
14.23
10.25
4.34
-1.40
-5.05
-4.92
0.41
11.79
28.56
47.57
63.29
67.47
56.30
30.84
-3.27
-38.19
-67.13
-86.30
-96.08
-97.58
-90.97
-75.48
-51.49
-22.23
6.13
26.78
35.77
33.49
24.82
16.41
12.46
12.53
11.73
4.04
-15.66
-44.39
-75.01
-100.39
-117.39
-127.43
-133.02
-135.12
-132.02
-120.10
-96.25
-61.37
-19.76
23.78
63.39
95.21
118.54
135.39
149.08
162.82
177.73
186.86
185.16
170.68
145.81
115.01
82.12
49.80
23.11
2.16
-12.09
-16.67
-9.06
12.37
47.37
91.81
136.08
167.74
175.48
155.12
113.59
64.20
20.95
-7.41
-19.55
-20.03
-15.14
-9.19
-3.65
3.66
13.77
25.59
35.57
39.71
35.38
22.03
1.87
-22.78
-45.82
-64.23
-77.67
-88.09
-97.71
-107.68
-122.42
-139.46
-155.76
-165.78
-166.60
-158.07
-142.90
-124.75
-107.27
-94.41
-78.85
-67.30
-58.44
-50.94
-41.48
-31.35
-23.35
-20.52
-27.16
-45.55
-76.81
-116.80
-159.94
-199.32
-228.01
-239.86
-221.45
-171.22
-101.64
-34.02
16.62
46.03
59.35
64.61
67.95
71.19
71.38
65.15
52.96
40.85
35.67
42.36
62.50
95.04
137.18
184.09
226.85
256.38
266.29
253.83
221.61
177.37
131.29
92.24
63.69
44.33
29.27
15.86
3.05
-9.77
-24.20
-43.13
-69.11
-99.91
-128.63
-145.98
-144.72
-124.28
-90.01
-50.60
-14.36
13.00
28.01
27.50
8.47
-29.97
-84.58
-145.48
-197.80
-227.06
-225.51
-195.49
-148.74
-101.93
-64.69
-40.66
-27.35
-19.18
-11.38
-2.38
6.58
12.96
15.25
14.28
11.75
9.14
6.60
2.77
-4.13
-14.92
-28.54
-41.77
-49.87
-48.60
-34.98
-7.92
30.63
74.87
118.12
154.11
178.96
192.15
195.46
191.71
183.06
170.99
156.21
139.29
120.95
102.39
85.17
70.65
59.67
52.04
47.17
44.06
41.67
39.02
35.62
31.84
28.50
28.93
32.44
38.26
45.06
51.14
54.54
53.89
49.23
42.07
34.98
30.36
30.59
37.12
50.21
67.97
86.56
101.30
107.81
103.69
89.17
67.73
44.66
25.00
10.67
-1.43
-15.24
-35.05
-63.66
-101.38
-145.61
-192.13
-231.47
-253.89
-254.49
-235.75
-205.24
-170.31
-135.30
-101.78
-70.44
-42.10
-18.64
-1.99
7.39
10.99
11.83
13.16
17.22
24.72
35.02
46.19
56.07
63.30
67.81
70.27
71.98
73.48
74.40
73.79
70.19
62.31
49.70
34.03
17.04
0.68
-13.52
-24.72
-32.66
-37.71
-40.61
-42.02
-42.31
-41.76
-40.42
-38.42
-35.93
-33.15
-30.34
-27.77
-25.59
-23.76
-22.26
-20.98
-19.81
-18.67
-17.47
-16.20
-14.86
-13.53
-12.24
-11.10
-10.14
-9.33
-8.60
-7.84
-7.03
-6.20
-5.47
-4.92
-4.69
-4.75
-5.04
-5.38
-5.52
-5.40
-5.14
-5.01
-5.32
-6.36
-8.15
-10.47
-13.28
-15.78
-17.68
-19.14
-20.73
-23.13
-26.89
-32.05
-38.15
-44.28
-49.46
-53.25
-55.98
-58.62
-62.35
-68.17
-76.17
-85.56
-94.91
-102.83
-108.47
-112.06
-114.48
-116.73
-120.29
-125.49
-132.53
-141.03
-149.32
-154.08
-150.70
-134.54
-103.09
-58.21
-5.77
46.00
89.82
121.95
142.91
155.93
164.08
170.25
174.99
177.64
177.59
175.35
172.14
170.07
168.02
164.21
156.70
143.62
124.46
100.16
72.58
43.86
15.78
-10.60
-34.55
-55.54
-73.09
-86.28
-93.88
-94.78
-88.38
-75.17
-56.88
-35.72
-14.25
4.92
19.77
28.96
31.76
28.02
17.89
1.60
-19.86
-45.20
-72.95
-101.35
-128.55
-152.91
-172.91
-187.81
-197.97
-203.84
-206.29
-206.47
-205.44
-203.99
-202.49
-200.32
-196.82
-191.63
-184.00
-173.56
-159.96
-142.85
-121.71
-95.90
-63.10
-20.99
27.15
78.37
129.28
176.60
217.76
251.19
276.27
295.71
312.09
327.08
341.63
355.48
368.00
378.81
388.01
396.01
406.44
421.89
442.79
467.54
492.53
513.56
526.92
530.50
505.80
445.38
352.68
240.83
126.52
22.58
-64.87
-135.49
-191.35
-235.00
-265.15
-280.69
-282.01
-271.66
-253.76
-231.23
-206.87
-182.52
-160.60
-142.38
-129.90
-124.49
-125.08
-127.59
-126.47
-118.99
-105.26
-90.62
-81.32
-81.36
-89.59
-100.53
-107.91
-108.37
-103.14
-96.02
-90.91
-88.35
-86.23
-81.70
-73.25
-61.68
-49.47
-39.62
-33.73
-31.77
-31.97
-31.79
-29.26
-23.78
-16.27
-8.53
-2.43
1.11
2.19
1.85
1.65
2.76
5.58
9.63
13.92
17.39
19.52
20.35
20.41
20.43
20.94
22.04
23.41
24.44
24.53
23.39
21.04
17.73
14.08
10.65
7.66
5.10
2.63
-0.09
-3.32
-7.06
-10.94
-14.34
-16.69
-17.92
-18.34
-18.72
-20.03
-22.99
-27.79
-33.88
-40.02
-44.87
-47.70
-48.55
-48.19
-48.01
-49.24
-52.33
-56.59
-60.58
-62.98
-63.33
-62.38
-61.87
-64.03
-70.74
-83.12
-101.30
-124.42
-147.50
-166.73
-177.39
-174.76
-156.50
-124.36
-84.14
-43.48
-8.78
16.97
36.15
52.40
68.69
85.94
103.19
118.98
132.94
146.26
158.62
171.60
185.90
200.94
214.88
224.60
226.31
216.46
193.03
157.06
113.38
69.03
31.07
4.07
-11.41
-18.10
-19.99
-20.16
-19.60
-17.58
-13.60
-8.29
-3.47
-1.21
-2.55
-6.78
-11.98
-15.78
-16.47
-13.82
-8.96
-3.66
0.69
3.26
4.37
4.94
6.22
8.79
12.62
16.70
19.80
20.83
19.35
15.68
10.48
4.79
-0.63
-5.55
-10.35
-15.66
-22.15
-30.17
-38.19
-46.20
-53.37
-58.86
-62.14
-63.41
-63.30
-62.90
-63.15
-64.42
-66.59
-68.72
-69.77
-69.10
-66.96
-64.18
-62.16
-61.96
-63.66
-66.42
-68.54
-68.47
-65.41
-60.72
-54.85
-49.15
-44.94
-42.96
-43.86
-47.75
-53.85
-60.01
-62.53
-56.52
-38.00
-5.87
36.22
80.16
115.50
133.27
129.49
106.19
70.26
30.01
-7.79
-38.56
-58.93
-65.51
-54.66
-25.21
18.36
65.41
101.64
114.09
96.94
54.41
-0.76
-51.99
-85.30
-93.63
-78.12
-45.99
-7.58
27.13
51.15
60.29
54.92
39.59
20.14
2.06
-10.01
-12.97
-5.03
13.81
40.20
67.41
86.98
91.88
77.69
49.34
17.65
-6.64
-17.32
-14.97
-5.20
4.92
9.73
6.29
-5.73
-24.78
-49.49
-77.00
-102.64
-120.83
-126.88
-119.85
-102.10
-81.24
-65.19
-58.45
-60.46
-66.96
-72.53
-73.31
-68.08
-57.28
-41.72
-21.47
3.69
33.59
66.80
97.14
121.15
136.75
143.88
144.33
141.38
138.18
136.65
136.75
136.70
134.60
129.04
120.03
109.22
99.34
92.71
90.29
91.52
95.04
99.59
103.39
103.94
98.14
83.13
57.86
24.17
-13.18
-48.12
-75.69
-94.59
-107.43
-118.57
-130.59
-142.52
-150.09
-148.20
-134.18
-109.82
-81.13
-55.51
-39.20
-33.66
-36.06
-41.38
-45.37
-46.22
-44.40
-41.18
-37.32
-32.32
-25.12
-15.35
-3.95
7.18
16.31
22.67
27.05
31.10
36.37
43.36
51.41
58.65
63.18
64.02
61.78
58.66
57.85
62.44
73.86
90.78
108.17
118.22
112.83
87.27
43.20
-10.88
-61.58
-95.13
-102.15
-81.41
-39.42
12.89
65.24
111.57
150.65
185.44
218.11
251.44
287.70
327.86
370.92
413.55
450.23
473.56
477.48
459.83
423.87
376.48
325.35
276.53
233.20
196.01
161.75
127.55
92.16
56.20
20.66
-14.06
-47.59
-78.68
-105.02
-128.62
-150.57
-170.29
-185.56
-194.71
-198.26
-198.48
-197.72
-197.75
-206.95
-231.00
-270.22
-319.55
-372.36
-423.94
-472.23
-516.36
-556.39
-602.36
-661.78
-735.53
-817.89
-900.67
-977.95
-1047.19
-1107.55
-1097.89
-985.82
-780.10
-527.84
-282.61
-76.64
81.71
197.71
282.17
345.26
385.83
403.86
404.25
395.46
386.01
380.46
374.69
369.72
366.70
360.01
346.16
325.74
301.50
277.15
255.20
235.59
218.08
201.53
179.23
144.82
104.17
61.63
21.58
-12.85
-41.19
-62.62
-75.07
-77.07
-65.79
-38.33
5.18
56.76
115.05
176.60
236.72
289.27
326.47
341.89
332.78
300.81
253.46
202.13
156.04
119.69
93.82
74.37
55.70
33.54
5.28
-29.13
-67.35
-106.48
-141.49
-165.57
-172.61
-160.48
-133.65
-103.91
-86.16
-91.84
-124.16
-175.42
-229.87
-271.37
-290.57
-288.68
-275.73
-264.44
-263.40
-273.69
-289.63
-302.91
-307.45
-301.76
-288.29
-271.02
-252.94
-235.15
-217.74
-200.76
-184.64
-169.82
-155.97
-142.08
-127.01
-110.11
-91.31
-70.78
-48.56
-24.69
0.31
25.19
48.15
67.52
82.65
94.22
103.91
113.74
125.41
139.83
157.01
176.19
196.24
216.17
235.28
253.47
271.25
289.56
309.67
333.18
362.02
397.98
441.57
490.63
539.42
579.30
601.00
597.66
567.48
514.60
447.92
378.32
315.39
264.97
228.32
202.71
183.27
164.94
144.11
119.40
91.54
62.55
34.77
10.04
-10.61
-26.66
-38.04
-45.14
-48.90
-50.88
-52.87
-56.33
-61.78
-68.92
-76.97
-85.28
-93.79
-103.03
-113.77
-126.52
-141.46
-158.25
-176.57
-196.30
-217.78
-241.83
-269.88
-303.94
-346.10
-397.32
-455.91
-516.51
-570.54
-608.46
-622.97
-611.76
-578.05
-529.03
-472.72
-415.06
-358.83
-304.36
-251.17
-199.44
-150.09
-103.69
-59.31
-14.29
34.55
88.74
146.28
201.34
245.70
271.76
275.53
258.06
225.12
185.16
146.79
116.83
99.32
95.44
103.95
121.66
144.02
165.93
182.95
192.35
193.53
187.74
176.91
162.83
146.85
130.03
113.82
100.29
91.82
90.28
96.04
107.37
120.83
132.42
138.93
139.26
134.76
128.68
124.89
126.14
132.65
141.39
146.45
140.45
116.92
73.05
11.75
-57.79
-121.60
-164.64
-175.28
-149.60
-93.34
-20.57
50.36
102.04
122.67
108.66
64.87
2.90
-61.90
-114.15
-142.32
-141.98
-117.05
-78.38
-39.59
-12.03
-1.02
-4.99
-17.49
-30.96
-39.97
-42.62
-39.69
-33.32
-25.64
-18.32
-12.68
-9.71
-10.03
-13.79
-20.40
-28.34
-35.33
-38.35
-34.03
-19.48
7.00
45.20
92.85
146.07
199.84
248.60
286.64
308.78
311.00
291.65
252.45
199.11
140.70
87.60
48.65
28.33
25.42
33.53
43.80
48.23
42.31
25.61
0.45
-30.49
-65.74
-105.07
-148.21
-192.83
-234.00
-265.09
-279.85
-274.41
-248.39
-204.83
-149.37
-89.17
-31.79
15.77
48.07
62.31
58.92
41.50
15.88
-11.40
-34.63
-50.05
-56.15
-53.48
-44.15
-31.21
-18.17
-8.50
-4.93
-8.96
-20.39
-37.26
-56.30
-73.82
-86.62
-92.84
-92.21
-85.82
-75.73
-64.32
-53.78
-45.63
-40.31
-37.00
-33.86
-28.76
-20.34
-8.67
4.64
17.22
27.05
33.34
36.66
38.08
38.32
37.16
33.75
27.39
18.35
8.22
-0.59
-5.71
-5.84
-1.27
6.23
14.13
20.02
22.54
21.66
18.49
14.62
11.47
9.75
9.50
10.17
10.97
11.05
9.68
6.54
2.01
-2.56
-4.96
-2.67
6.12
21.65
42.24
64.68
85.22
100.75
109.56
111.42
107.26
98.36
85.92
70.87
54.06
36.53
19.77
5.44
-5.01
-10.92
-12.66
-11.50
-9.10
-6.90
-5.66
-5.43
-5.88
-6.77
-8.36
-11.37
-16.62
-24.41
-33.96
-43.29
-49.58
-50.12
-43.46
-30.20
-13.02
4.28
18.13
26.49
29.39
28.34
25.41
22.19
19.48
17.45
16.23
16.14
17.56
20.52
24.35
27.84
29.79
29.51
27.08
23.15
18.46
13.50
8.45
3.42
-1.33
-5.47
-8.83
-11.87
-15.81
-22.16
-31.94
-44.62
-57.72
-67.25
-69.34
-61.96
-46.07
-25.56
-5.89
7.88
12.83
8.81
-1.69
-14.73
-26.20
-32.99
-33.74
-28.92
-20.45
-10.82
-2.24
3.90
7.13
7.37
4.62
-1.06
-9.09
-17.96
-25.33
-29.05
-28.30
-24.25
-19.70
-17.70
-20.07
-26.58
-35.10
-42.76
-47.10
-46.88
-42.03
-33.42
-22.31
-10.35
0.62
8.63
11.91
9.50
1.53
-10.65
-24.74
-37.96
-47.71
-52.01
-49.96
-41.95
-29.73
-16.16
-4.59
2.05
2.17
-4.00
-14.44
-26.11
-36.00
-42.02
-43.43
-40.80
-35.55
-29.41
-24.09
-20.97
-20.96
-24.10
-29.35
-34.59
-37.15
-34.81
-26.76
-14.17
0.25
13.11
21.61
24.40
21.73
15.03
6.24
-2.74
-10.33
-15.37
-17.11
-15.46
-11.10
-5.48
-0.41
2.59
2.81
0.48
-3.27
-7.05
-9.68
-10.46
-9.24
-6.27
-2.19
2.16
5.76
7.79
8.16
7.85
8.85
13.29
22.45
35.86
51.28
65.76
76.94
84.08
88.10
90.64
92.93
95.14
96.63
96.71
95.28
92.87
90.12
87.09
83.07
76.98
68.26
57.46
46.21
36.64
30.44
28.22
29.22
31.70
33.42
32.40
27.44
18.43
6.42
-6.70
-18.64
-27.20
-30.89
-29.22
-22.92
-13.72
-3.91
4.31
9.28
10.36
7.91
3.20
-2.07
-6.19
-7.93
-6.88
-3.45
1.27
5.85
8.87
9.24
6.47
0.77
-6.97
-15.14
-21.83
-25.33
-24.82
-20.80
-15.05
-9.83
-7.05
-7.49
-10.55
-14.87
-18.95
-21.73
-22.68
-21.78
-19.15
-15.22
-10.63
-6.25
-2.92
-1.18
-0.96
-1.80
-3.21
-5.07
-7.63
-11.17
-15.53
-19.86
-22.93
-23.75
-22.40
-20.03
-18.43
-19.11
-22.48
-27.60
-32.67
-35.90
-36.30
-34.14
-30.60
-27.26
-25.50
-26.13
-29.17
-33.98
-39.02
-42.21
-41.37
-35.17
-23.88
-9.62
4.36
15.09
20.92
22.03
19.80
15.82
11.04
5.71
-0.17
-6.14
-11.11
-13.85
-13.70
-11.05
-7.24
-3.79
-1.66
-0.92
-0.86
-0.69
-0.03
0.77
0.76
-1.13
-5.55
-12.31
-20.45
-28.51
-34.96
-38.60
-38.63
-34.79
-27.47
-17.74
-7.33
1.78
8.04
10.86
10.84
9.27
7.36
5.61
3.82
1.48
-1.57
-4.81
-7.40
-8.82
-9.35
-10.03
-11.96
-15.60
-20.39
-25.03
-28.13
-28.88
-27.26
-23.90
-19.72
-15.65
-12.53
-11.16
-12.20
-15.88
-21.77
-28.41
-33.43
-34.22
-28.83
-16.95
-0.24
18.14
34.52
46.06
51.58
51.70
48.22
43.28
38.50
34.84
32.64
32.16
33.65
37.33
43.05
49.97
56.74
61.98
64.79
65.17
63.91
62.21
60.99
60.53
60.26
59.18
56.16
50.38
41.76
31.06
20.03
11.10
6.67
7.97
14.40
23.46
31.80
36.82
37.70
35.54
32.23
28.97
25.53
20.68
13.39
3.93
-5.84
-13.55
-17.70
-18.50
-17.68
-17.29
-18.46
-20.84
-23.06
-23.69
-22.18
-19.06
-15.42
-12.26
-10.01
-8.60
-7.97
-8.42
-10.37
-13.78
-17.46
-19.10
-16.33
-8.09
4.19
16.89
25.71
27.81
23.18
14.60
6.04
0.50
-1.23
-0.62
-0.04
-1.22
-4.31
-8.18
-11.39
-13.19
-13.90
-14.55
-16.26
-19.69
-24.72
-30.62
-36.35
-40.92
-43.64
-44.39
-43.69
-42.60
-42.32
-43.71
-46.82
-50.76
-53.85
-54.20
-50.57
-42.87
-32.39
-21.31
-11.71
-4.90
-0.99
0.71
1.04
0.18
-2.27
-6.84
-13.39
-20.70
-26.80
-29.80
-28.90
-24.72
-19.01
-13.69
-10.04
-8.37
-8.20
-8.84
-9.74
-10.59
-11.16
-11.16
-10.39
-9.17
-8.69
-10.78
-17.06
-27.88
-41.50
-54.29
-62.01
-61.51
-52.28
-36.66
-18.92
-3.58
6.16
9.15
6.24
-0.57
-8.85
-16.41
-21.53
-23.24
-21.22
-15.89
-8.33
0.04
7.58
12.69
14.25
11.86
6.06
-1.59
-9.03
-14.33
-16.34
-15.13
-11.78
-7.99
-5.46
-5.34
-7.94
-12.48
-17.22
-19.91
-18.51
-11.91
-0.39
14.48
30.69
46.64
61.54
75.23
87.50
97.61
104.30
106.53
104.12
98.13
90.51
83.32
77.89
74.64
73.16
72.67
72.37
71.47
69.30
65.19
58.82
50.48
41.23
32.53
25.59
20.69
16.96
12.82
6.88
-0.98
-9.27
-15.43
-17.05
-13.35
-5.78
2.52
8.26
9.58
6.96
2.59
-1.09
-2.82
-3.15
-3.75
-6.15
-10.66
-16.26
-21.45
-25.16
-27.25
-27.97
-27.33
-24.63
-18.85
-9.51
2.89
17.10
31.99
47.33
63.66
81.40
99.65
115.89
127.02
131.26
129.61
125.84
124.69
129.56
140.90
156.32
172.18
185.58
195.60
203.12
209.66
215.94
221.34
224.12
222.25
214.50
200.89
182.74
162.04
140.82
120.46
101.39
83.27
65.45
47.69
30.51
14.92
1.88
-8.51
-17.26
-26.19
-37.14
-51.07
-67.68
-85.56
-102.96
-118.74
-133.03
-147.27
-163.62
-183.99
-209.15
-238.27
-269.50
-300.58
-329.90
-357.06
-382.86
-408.95
-437.42
-470.54
-510.17
-556.82
-608.37
-659.33
-701.49
-726.11
-727.02
-703.14
-658.85
-602.22
-541.71
-483.31
-429.28
-379.14
-331.75
-286.81
-245.05
-207.46
-174.18
-144.19
-115.84
-87.69
-59.47
-32.15
-7.61
12.50
27.53
38.14
45.94
52.82
60.67
70.35
81.45
92.67
102.61
110.47
116.37
121.09
125.63
132.15
141.89
154.71
169.16
183.33
195.84
206.29
215.11
223.14
234.06
250.53
273.08
299.88
327.90
354.54
378.42
399.24
417.32
437.69
464.08
497.21
534.24
570.65
602.55
627.96
646.72
659.65
673.87
694.76
723.68
757.25
789.53
815.20
831.27
836.98
795.10
685.65
510.86
296.62
78.19
-117.25
-277.29
-401.01
-493.32
-560.80
-603.78
-623.10
-622.08
-607.30
-586.72
-566.80
-551.11
-540.99
-535.68
-529.26
-517.06
-497.62
-473.17
-447.93
-425.70
-408.56
-396.63
-389.09
-381.87
-371.74
-357.32
-339.49
-320.20
-300.90
-283.60
-268.74
-256.04
-243.57
-229.80
-214.18
-197.25
-180.24
-164.25
-149.93
-137.20
-125.72
-114.64
-103.30
-91.45
-79.30
-67.31
-55.92
-45.40
-35.63
-26.42
-17.61
-9.09
-0.83
7.14
14.78
22.04
28.86
35.32
41.45
47.19
52.39
56.87
60.45
63.05
64.73
65.71
66.34
66.93
67.67
68.57
69.42
70.01
70.25
70.26
70.42
71.29
73.31
76.62
80.94
85.62
89.94
93.47
96.36
99.34
103.48
109.69
118.20
128.35
138.78
147.96
154.97
160.04
164.58
170.67
180.12
193.60
210.30
228.31
245.44
260.35
273.24
285.81
300.78
320.91
348.28
383.53
425.40
470.18
511.99
543.50
557.74
550.34
521.24
475.30
420.98
367.58
322.02
286.97
260.93
240.47
223.26
209.91
203.70
208.04
223.37
245.29
265.47
274.80
267.36
242.93
206.57
165.79
126.90
92.51
61.41
30.52
-2.67
-38.58
-75.44
-110.83
-143.03
-171.89
-198.52
-224.11
-248.86
-271.62
-290.32
-302.96
-308.68
-307.93
-302.12
-292.86
-281.56
-269.67
-259.17
-252.75
-253.25
-262.11
-277.84
-295.41
-307.22
-305.70
-286.45
-250.40
-203.79
-155.78
-114.84
-85.44
-66.71
-53.40
-38.45
-15.81
17.78
62.36
115.43
172.88
229.89
281.46
323.10
351.68
366.03
367.03
357.07
339.01
315.37
288.01
258.43
228.13
198.52
170.51
144.14
118.44
92.15
64.54
36.08
8.41
-16.40
-36.87
-52.89
-65.78
-77.86
-91.46
-107.97
-127.39
-148.49
-169.48
-188.89
-206.28
-222.49
-239.27
-258.77
-282.88
-312.90
-349.19
-390.95
-435.86
-479.95
-517.86
-543.78
-553.02
-543.61
-517.59
-480.84
-441.52
-407.40
-383.20
-369.21
-361.64
-354.75
-343.03
-323.52
-296.54
-265.02
-232.86
-203.36
-178.07
-156.63
-137.29
-116.82
-91.08
-55.70
-7.11
55.59
128.84
203.55
266.15
302.02
301.93
265.91
204.66
136.20
79.21
46.14
39.61
53.18
75.95
99.79
122.07
145.76
176.12
216.99
268.86
329.59
396.40
458.15
504.68
527.77
524.26
497.06
453.04
399.53
342.81
287.65
237.00
192.38
152.07
111.51
65.40
10.80
-50.57
-112.28
-166.10
-205.93
-229.17
-237.66
-235.71
-227.76
-217.27
-206.79
-198.65
-194.94
-196.46
-200.50
-201.10
-191.03
-165.44
-124.70
-75.23
-26.92
11.04
33.67
41.87
40.56
35.63
31.15
28.38
26.67
25.16
23.88
23.58
25.09
28.28
31.88
34.25
33.97
30.93
26.46
22.75
21.81
24.68
30.64
37.50
42.54
43.78
40.90
35.35
30.33
27.82
29.08
33.84
40.48
46.70
50.00
48.19
39.99
25.68
7.55
-10.01
-21.92
-24.58
-17.67
-4.73
8.29
15.56
14.11
5.00
-7.47
-18.41
-25.08
-28.00
-30.27
-35.49
-45.80
-61.07
-79.12
-96.31
-108.54
-112.13
-104.48
-85.36
-57.49
-26.72
-0.65
14.26
14.84
1.86
-20.95
-48.57
-76.11
-99.05
-112.67
-112.69
-95.99
-62.51
-16.46
34.22
80.05
112.73
126.76
119.97
93.26
50.99
0.59
-48.57
-87.41
-109.67
-113.99
-104.00
-84.22
-61.83
-42.35
-28.00
-17.98
-10.54
-4.99
-1.73
-0.78
-0.00
4.77
18.44
42.56
72.12
96.14
102.31
83.63
43.46
-4.81
-43.41
-57.52
-41.11
1.82
60.85
124.55
184.21
233.95
268.81
283.09
271.58
232.27
168.60
90.88
14.53
-44.29
-73.53
-68.69
-33.56
21.33
81.60
130.81
154.94
146.19
105.24
41.08
-31.05
-92.92
-128.00
-126.75
-91.86
-36.28
22.46
68.60
92.65
92.86
74.18
44.78
11.63
-24.07
-64.38
-110.27
-159.34
-207.05
-249.47
-284.98
-314.42
-323.33
-301.64
-251.67
-187.35
-122.92
-64.73
-13.11
33.29
74.78
107.37
128.20
134.46
126.71
109.31
87.71
65.36
42.68
23.81
9.99
-0.80
-11.70
-23.86
-35.56
-43.95
-47.18
-44.84
-37.73
-27.92
-18.81
-13.25
-11.95
-13.37
-15.21
-16.02
-15.09
-12.41
-8.80
-6.01
-5.51
-7.48
-10.74
-13.69
-15.53
-15.68
-16.10
-16.29
-16.81
-18.08
-19.83
-21.04
-20.63
-18.65
-15.62
-12.99
-12.24
-15.27
-23.13
-35.46
-50.77
-64.28
-75.43
-84.44
-92.28
-99.66
-107.86
-118.08
-130.98
-146.24
-162.08
-175.19
-180.18
-174.54
-153.93
-118.48
-73.15
-25.09
19.06
55.83
84.96
109.14
131.08
150.12
165.11
174.31
177.27
175.67
172.69
171.05
171.84
173.68
173.97
170.01
160.39
146.30
130.84
117.69
109.43
107.13
109.93
115.66
120.90
121.18
112.39
91.97
60.46
21.66
-17.82
-51.29
-74.58
-87.57
-94.36
-100.02
-108.82
-122.37
-139.22
-155.39
-165.99
-167.17
-156.85
-137.54
-114.05
-92.12
-75.03
-63.53
-56.22
-50.68
-45.20
-39.74
-35.72
-34.26
-35.25
-37.16
-37.72
-35.52
-30.77
-25.07
-20.44
-18.53
-19.52
-22.40
-25.77
-28.31
-29.84
-31.38
-34.70
-41.42
-52.32
-66.84
-83.29
-99.49
-112.90
-121.98
-126.34
-126.45
-123.12
-116.78
-106.93
-91.81
-73.42
-52.03
-28.01
-2.14
24.49
50.76
75.82
99.28
121.40
142.87
165.21
189.44
215.72
243.24
270.23
293.86
310.77
318.02
313.96
299.53
277.71
253.14
230.90
215.06
206.73
204.17
204.12
203.56
201.23
197.27
192.50
187.50
182.39
176.13
167.64
157.07
145.86
135.55
126.16
115.98
102.73
85.15
62.82
36.53
7.75
-22.30
-53.53
-86.95
-123.32
-163.52
-200.65
-225.12
-231.08
-219.86
-197.08
-168.43
-137.71
-106.72
-76.11
-46.31
-19.39
2.85
20.02
32.79
43.14
52.63
61.67
69.93
75.85
76.43
69.69
55.60
36.14
14.76
-4.59
-18.74
-26.94
-26.88
-22.36
-18.68
-20.12
-28.55
-43.04
-60.43
-76.75
-88.96
-99.92
-114.16
-133.31
-155.23
-176.12
-193.06
-204.94
-212.39
-216.94
-225.26
-242.77
-269.66
-301.87
-334.67
-365.82
-395.44
-425.09
-423.60
-376.24
-291.82
-195.32
-108.48
-39.88
10.97
48.29
76.52
99.25
113.94
118.42
114.30
105.99
98.15
92.58
89.34
87.96
88.31
86.79
80.78
71.03
57.83
45.61
36.08
29.61
26.34
26.71
28.76
30.51
31.69
32.78
34.06
33.70
28.87
16.64
-5.05
-32.95
-63.93
-90.84
-104.80
-99.17
-74.19
-36.90
1.77
31.65
47.34
49.50
44.33
38.87
38.32
43.85
54.45
68.87
86.24
105.92
124.99
138.68
141.43
129.67
103.17
65.99
24.52
-15.75
-51.12
-80.99
-105.93
-125.92
-137.04
-134.45
-114.27
-76.68
-27.26
25.87
74.34
112.84
140.47
160.10
175.45
189.04
201.00
202.91
189.18
159.74
120.55
79.69
42.73
10.73
-17.84
-44.68
-70.08
-91.55
-106.08
-112.24
-111.11
-105.81
-100.10
-96.57
-94.96
-93.08
-86.95
-72.68
-47.72
-11.75
32.86
78.71
116.02
134.57
127.30
95.13
47.85
1.80
-26.36
-26.56
0.69
45.91
95.63
138.43
168.58
185.02
188.23
177.68
152.17
112.33
63.33
14.43
-24.35
-46.08
-50.06
-41.24
-27.22
-14.52
-6.49
-2.89
-1.53
-0.15
2.49
6.34
10.60
14.24
16.16
15.83
13.22
8.71
2.97
-3.28
-9.58
-15.48
-20.61
-24.62
-27.18
-28.00
-26.91
-23.86
-18.89
-12.48
-4.95
3.49
12.65
22.36
32.41
42.49
52.30
61.61
69.80
76.58
81.94
86.01
89.15
91.76
94.29
97.26
101.19
105.73
110.62
115.56
120.17
124.05
126.72
127.41
124.73
121.81
118.78
114.95
109.25
100.59
88.40
72.77
54.46
34.73
14.87
-4.97
-24.90
-45.24
-66.27
-87.74
-108.76
-127.99
-143.99
-155.77
-163.86
-169.48
-174.54
-181.42
-192.55
-209.87
-233.87
-262.58
-291.33
-313.93
-324.35
-319.30
-299.75
-270.81
-239.95
-214.22
-198.08
-192.55
-195.84
-204.19
-213.03
-217.61
-213.56
-197.55
-167.99
-125.52
-72.91
-14.52
44.67
99.47
145.02
177.15
193.14
192.58
177.71
152.87
123.21
93.30
66.16
43.29
25.33
12.68
5.60
3.69
5.34
7.72
7.51
2.24
-8.57
-22.99
-37.14
-46.39
-47.00
-37.19
-17.96
7.14
32.80
53.06
62.40
56.57
33.49
-5.83
-56.34
-109.40
-154.38
-181.52
-185.07
-164.87
-125.44
-73.20
-13.59
50.15
115.56
178.48
231.53
265.19
271.01
245.29
191.22
118.33
39.95
-30.14
-80.29
-102.71
-94.69
-59.07
-4.07
58.29
115.14
156.03
175.56
173.86
155.23
125.83
92.17
60.12
34.76
20.00
17.85
27.54
45.35
65.55
82.11
90.85
90.35
81.75
67.46
49.74
30.00
8.93
-12.75
-33.61
-51.32
-63.24
-67.51
-64.06
-55.17
-45.00
-38.41
-39.20
-48.88
-66.35
-88.95
-113.91
-139.41
-164.74
-189.46
-212.33
-230.94
-242.42
-244.77
-238.07
-224.77
-208.72
-193.76
-182.47
-175.83
-173.52
-174.65
-178.09
-182.50
-186.18
-187.05
-183.16
-173.20
-156.98
-135.40
-110.20
-83.37
-56.82
-32.42
-11.95
2.82
10.47
10.64
4.47
-5.33
-15.20
-21.95
-23.93
-21.46
-16.55
-11.76
-8.78
-7.54
-6.12
-1.58
8.96
27.21
53.04
84.61
118.52
150.53
176.26
192.71
198.83
195.57
185.26
170.79
154.98
139.84
126.66
116.00
108.54
104.93
105.40
109.38
115.63
123.08
130.54
136.82
140.10
139.18
133.29
122.29
106.48
86.70
65.66
46.12
30.42
19.13
14.27
17.92
30.98
51.69
76.28
103.01
130.35
156.67
177.53
192.17
200.99
204.68
202.50
193.80
183.59
177.34
178.35
182.33
188.37
196.37
206.65
217.15
224.83
232.69
243.73
258.92
271.73
282.91
296.26
316.44
343.19
337.10
274.57
158.66
51.95
-29.00
-80.94
-114.83
-131.27
-130.60
-114.13
-79.25
-27.29
33.81
85.44
116.59
123.76
111.58
85.94
52.29
18.41
-11.54
-38.72
-72.51
-117.30
-175.87
-240.18
-299.32
-345.42
-373.98
-385.24
-382.30
-372.19
-358.36
-342.47
-324.61
-306.44
-290.11
-275.80
-262.59
-249.54
-237.76
-227.38
-218.16
-209.62
-203.06
-200.60
-202.88
-208.04
-211.68
-208.50
-193.62
-165.18
-125.68
-82.22
-43.47
-15.64
-0.28
5.09
5.73
5.94
7.78
11.32
15.36
18.80
21.63
24.42
27.49
30.46
32.46
32.58
30.42
26.20
20.58
14.76
9.67
5.59
2.12
-0.89
-3.54
-5.98
-8.52
-11.72
-15.65
-20.34
-25.60
-31.10
-34.57
-33.51
-25.95
-10.90
7.82
27.37
45.61
61.46
74.54
87.91
104.73
126.47
152.26
178.64
202.22
220.71
233.87
242.68
252.96
270.79
300.20
343.19
398.85
464.78
537.12
609.82
655.86
653.13
591.44
479.51
343.25
210.97
102.34
24.41
-22.79
-52.46
-72.33
-86.19
-97.36
-108.30
-123.88
-149.80
-187.61
-234.05
-284.36
-329.26
-360.67
-384.91
-404.92
-423.97
-445.25
-471.14
-495.08
-514.12
-523.95
-509.78
-464.71
-388.69
-290.87
-185.07
-83.65
5.07
75.55
127.30
162.42
182.45
190.94
191.83
187.22
178.19
164.75
145.15
118.34
83.90
40.42
-9.68
-62.63
-113.41
-155.62
-182.36
-188.97
-174.22
-141.71
-100.00
-58.53
-25.08
-3.57
6.20
7.19
2.55
-5.21
-14.26
-23.09
-29.09
-29.73
-21.59
-3.02
24.61
56.52
85.51
104.38
108.56
97.07
75.33
52.34
36.01
29.79
31.85
37.08
40.63
40.49
38.12
36.58
37.83
40.93
42.91
40.84
33.59
22.63
11.24
2.88
-0.28
1.64
6.22
10.26
11.30
8.11
0.69
-9.76
-20.90
-29.27
-30.92
-23.02
-5.72
17.74
41.30
58.03
62.91
54.54
34.28
7.88
-19.54
-44.94
-67.19
-86.04
-100.83
-110.02
-111.65
-104.66
-89.50
-68.54
-44.80
-21.03
1.22
20.74
37.87
53.28
67.08
78.91
87.82
92.97
94.22
92.29
88.54
84.47
81.39
79.72
79.18
78.94
78.16
76.47
73.94
71.90
70.00
68.08
65.67
62.12
56.92
50.00
42.04
34.18
27.55
22.78
20.09
19.00
18.80
19.08
19.85
21.55
24.83
29.90
36.65
45.22
55.83
68.48
82.04
93.89
100.54
99.15
88.81
71.67
52.08
34.50
21.53
13.30
8.41
5.61
5.12
7.83
14.80
25.99
39.64
53.22
64.66
73.46
80.59
87.62
94.83
101.81
107.48
110.53
110.18
106.40
99.52
89.35
79.68
71.07
62.76
53.34
41.66
27.60
12.26
-2.45
-14.69
-23.62
-30.59
-38.07
-48.77
-64.59
-85.61
-110.13
-135.21
-157.87
-176.22
-190.69
-203.39
-217.71
-237.49
-265.66
-302.65
-344.93
-384.58
-410.70
-413.08
-385.72
-329.98
-255.03
-175.11
-104.81
-54.30
-26.70
-18.54
-22.93
-33.22
-45.76
-60.61
-80.38
-108.31
-146.57
-195.03
-250.82
-308.43
-360.64
-399.84
-419.91
-417.94
-395.14
-356.21
-307.82
-256.55
-207.36
-163.34
-126.12
-96.65
-75.20
-60.96
-51.34
-42.11
-28.47
-6.70
24.35
63.10
106.02
149.35
190.74
230.18
269.66
312.13
360.14
415.12
477.13
544.88
615.59
684.65
745.78
791.90
816.98
818.04
796.08
755.66
702.98
643.65
581.50
518.57
456.13
395.58
338.65
286.54
239.15
194.79
150.88
105.29
57.32
8.47
-37.83
-76.85
-103.90
-115.94
-112.73
-97.38
-75.60
-54.02
-38.17
-31.08
-33.11
-42.92
-58.76
-79.38
-103.83
-130.85
-158.58
-184.79
-207.74
-226.90
-243.02
-257.47
-271.70
-286.95
-304.18
-323.57
-343.86
-361.85
-372.97
-373.59
-363.98
-349.83
-340.69
-345.52
-367.14
-399.32
-428.60
-440.09
-423.87
-378.76
-311.54
-232.88
-153.16
-80.22
-19.46
24.76
48.65
49.98
29.28
-9.78
-61.49
-120.01
-180.42
-238.30
-288.68
-325.64
-343.60
-339.66
-315.36
-276.36
-230.04
-182.18
-134.96
-87.32
-36.95
17.04
73.11
127.97
178.63
224.27
266.64
309.12
355.24
407.49
466.57
530.77
595.79
654.68
698.88
720.50
715.12
683.73
632.58
570.77
506.76
445.56
388.12
332.87
278.27
224.54
173.76
128.46
89.77
56.63
26.47
-3.25
-33.67
-63.94
-92.01
-116.28
-136.88
-155.94
-176.24
-199.00
-222.13
-240.32
-247.01
-237.40
-210.82
-171.27
-126.10
-83.60
-50.83
-32.58
-31.38
-47.84
-80.06
-122.34
-164.59
-193.83
-198.06
-171.46
-117.93
-50.69
12.12
53.97
65.67
47.77
9.08
-37.03
-76.91
-99.40
-96.97
-66.56
-10.34
63.57
142.34
210.64
255.03
267.71
248.26
202.70
140.63
72.01
4.47
-56.92
-110.18
-155.56
-194.97
-231.57
-269.33
-312.49
-364.14
-424.96
-490.50
-552.41
-599.69
-622.36
-615.62
-582.66
-534.12
-484.17
-445.85
-422.41
-409.89
-398.53
-378.08
-342.85
-293.91
-237.71
-182.46
-136.67
-99.47
-68.59
-39.43
-7.21
31.49
78.17
132.03
189.64
240.82
281.04
300.78
293.20
257.41
200.21
134.72
76.04
36.07
14.68
14.77
28.87
49.26
71.30
94.45
120.93
152.83
221.27
281.96
335.58
375.82
397.97
400.63
386.11
359.29
325.41
288.12
243.67
197.07
147.24
94.08
39.18
-14.03
-60.64
-95.46
-113.69
-116.36
-100.21
-71.17
-39.11
-14.58
-4.96
-12.44
-35.20
-68.69
-110.23
-153.00
-193.96
-229.87
-256.03
-266.19
-255.01
-222.68
-173.82
-117.11
-59.32
-7.27
34.72
66.52
92.74
119.59
148.92
179.28
206.33
225.98
234.03
227.20
205.27
172.21
132.82
86.96
32.92
-30.52
-102.29
-179.82
-261.17
-343.75
-422.60
-462.34
-437.05
-345.16
-212.93
-74.89
44.96
135.31
188.97
214.56
217.09
194.35
144.31
69.41
-22.27
-113.46
-188.22
-234.16
-243.63
-217.10
-164.64
-100.03
-35.73
21.11
69.16
110.19
148.18
188.03
231.82
277.31
320.32
356.81
384.14
400.67
404.58
395.07
373.65
342.85
305.47
264.71
223.98
186.75
155.98
132.73
116.13
103.40
89.87
70.32
41.26
2.79
-40.94
-83.05
-116.86
-138.51
-148.25
-150.09
-149.37
-150.18
-153.67
-158.02
-159.90
-156.42
-146.42
-130.51
-110.33
-87.43
-62.78
-37.13
-11.61
11.71
30.17
41.26
43.43
36.83
23.26
5.74
-12.17
-27.22
-37.32
-42.20
-43.70
-44.98
-49.27
-58.20
-70.80
-83.92
-93.49
-96.53
-92.46
-83.27
-72.32
-62.82
-56.62
-54.07
-54.74
-58.16
-64.11
-72.09
-80.66
-87.17
-88.62
-83.03
-70.82
-54.88
-39.71
-29.45
-26.00
-28.41
-33.63
-38.29
-40.43
-40.26
-39.66
-40.85
-45.21
-52.79
-62.58
-73.16
-83.33
-92.37
-99.91
-105.78
-109.85
-111.99
-112.05
-109.92
-105.66
-99.61
-92.35
-84.61
-77.12
-70.44
-65.05
-61.58
-60.91
-63.87
-70.51
-79.50
-87.91
-91.89
-87.96
-74.28
-51.08
-20.21
15.86
54.74
94.28
132.24
165.85
192.08
208.44
214.01
210.06
199.67
186.74
174.62
165.20
158.71
154.30
150.81
147.48
144.16
141.05
138.30
135.72
132.79
128.89
123.60
117.00
109.56
102.06
95.21
89.39
84.44
79.75
74.51
68.00
60.00
51.07
42.60
36.74
35.68
40.87
52.22
67.83
84.37
98.09
106.11
107.31
102.56
94.09
84.36
74.91
66.05
57.13
47.38
36.65
25.65
15.68
8.11
3.86
3.19
5.66
10.34
15.75
20.20
21.87
19.43
12.50
1.87
-10.86
-23.71
-34.76
-42.42
-45.51
-43.37
-36.14
-24.89
-12.00
-0.54
6.92
9.58
9.00
8.56
11.83
20.81
35.35
52.82
69.33
81.35
86.96
86.08
79.84
69.66
56.74
42.79
29.10
16.54
5.82
-2.13
-6.34
-6.35
-2.63
3.66
12.62
23.66
35.09
44.85
52.08
57.68
63.69
71.93
83.20
99.28
119.23
139.62
156.44
167.49
172.85
173.77
171.27
167.42
168.85
181.10
205.50
237.79
270.16
294.08
303.51
296.85
256.72
183.29
93.43
10.89
-49.47
-86.43
-106.30
-112.40
-111.42
-107.90
-102.27
-96.62
-95.95
-106.40
-131.86
-170.47
-214.59
-255.49
-286.26
-301.88
-302.35
-291.98
-276.35
-258.74
-240.49
-221.38
-201.49
-180.92
-158.61
-134.38
-109.81
-91.49
-77.86
-66.53
-55.09
-42.09
-26.86
-8.99
10.90
30.36
46.89
59.58
67.84
71.86
71.75
67.07
56.32
42.28
24.44
1.92
-24.97
-55.50
-88.17
-121.22
-153.25
-183.69
-212.79
-242.29
-274.02
-309.55
-350.74
-398.48
-451.51
-505.49
-553.16
-585.86
-597.14
-584.53
-550.75
-502.96
-449.87
-398.61
-352.90
-313.27
-278.47
-247.64
-220.58
-197.45
-178.09
-161.40
-145.58
-129.01
-110.97
-92.01
-73.82
-58.18
-46.19
-37.81
-32.03
-27.34
-22.45
-16.71
-10.35
-4.24
0.77
4.21
6.31
7.81
9.68
12.66
16.99
22.36
28.09
33.44
37.93
41.43
44.16
46.53
48.86
51.31
53.81
56.14
58.03
59.32
59.96
60.02
59.64
58.94
58.00
56.83
55.46
53.90
52.12
50.20
48.12
45.90
43.52
40.97
38.18
35.13
31.85
28.35
24.70
20.99
17.36
13.91
10.77
8.03
5.77
4.06
2.91
2.36
2.39
3.05
4.34
6.28
8.88
12.11
15.94
20.23
24.84
29.55
34.12
38.34
41.98
44.85
46.88
48.04
48.39
48.05
47.20
46.02
44.71
43.41
42.22
41.20
40.34
39.56
38.78
37.85
36.68
35.20
33.35
31.16
28.70
26.09
23.52
21.19
19.32
18.11
17.73
18.28
19.78
22.17
25.29
28.93
32.74
36.38
39.46
41.61
42.49
41.85
39.54
35.56
30.03
23.23
15.55
7.47
-0.50
-7.82
-14.00
-18.62
-21.40
-22.19
-20.96
-17.84
-13.06
-7.00
-0.06
7.29
14.58
21.36
27.25
31.94
35.23
37.04
37.44
36.60
34.79
32.32
29.55
26.80
24.38
22.54
21.48
21.35
22.22
24.08
26.83
30.29
34.21
38.30
42.28
45.89
48.94
51.32
52.94
53.75
53.77
52.97
51.44
49.28
46.74
44.21
42.08
40.76
40.52
41.44
43.39
46.16
49.52
53.37
57.79
62.95
69.01
75.96
83.56
91.34
98.84
105.72
112.07
118.35
125.30
133.67
143.91
156.07
169.81
184.63
200.02
215.72
231.76
248.32
265.83
284.87
306.12
330.04
356.21
382.82
406.67
423.79
430.74
425.89
409.99
385.82
356.98
326.62
296.69
268.07
241.08
216.19
194.11
175.29
159.57
145.97
133.11
119.96
106.33
92.94
81.00
71.33
63.78
57.26
50.21
41.39
30.54
18.38
6.27
-4.34
-12.52
-17.95
-20.86
-21.81
-21.47
-20.58
-19.88
-19.97
-21.15
-23.36
-26.20
-29.09
-31.54
-33.26
-34.13
-34.23
-33.62
-32.26
-30.09
-27.06
-23.22
-18.88
-14.52
-10.76
-8.12
-6.83
-6.76
-7.48
-8.29
-8.54
-7.81
-6.05
-3.65
-1.30
0.32
0.60
-0.77
-3.67
-7.76
-12.59
-17.75
-22.82
-27.35
-30.76
-32.39
-31.72
-28.60
-23.53
-17.66
-12.51
-9.57
-9.78
-13.17
-18.77
-24.92
-29.90
-32.38
-31.87
-28.74
-23.90
-18.45
-13.34
-9.17
-6.14
-4.28
-3.58
-3.92
-5.17
-6.97
-8.73
-9.70
-9.26
-7.17
-3.87
-0.40
1.93
2.04
-0.38
-4.76
-9.98
-14.74
-18.15
-19.88
-20.12
-19.32
-17.91
-16.14
-14.23
-12.47
-11.23
-10.88
-11.57
-13.20
-15.45
-18.10
-21.01
-24.17
-27.48
-30.59
-32.94
-33.93
-33.29
-31.34
-28.88
-26.86
-25.88
-25.86
-26.12
-25.80
-24.28
-21.54
-18.14
-14.85
-12.31
-10.76
-10.02
-9.73
-9.58
-9.39
-9.13
-8.92
-8.89
-9.24
-10.08
-11.36
-12.77
-13.88
-14.24
-13.74
-12.66
-11.54
-10.89
-10.88
-11.21
-11.31
-10.70
-9.36
-7.74
-6.59
-6.50
-7.61
-9.59
-11.88
-14.02
-15.82
-17.34
-18.69
-19.85
-20.56
-20.61
-19.92
-18.65
-17.21
-15.95
-15.02
-14.33
-13.67
-12.93
-12.31
-12.10
-12.59
-13.70
-15.04
-15.93
-15.86
-14.70
-12.76
-10.65
-8.89
-7.61
-6.47
-4.90
-2.41
1.01
4.81
8.08
9.98
10.04
8.43
5.87
3.39
1.90
1.76
2.65
3.73
4.16
3.72
2.93
2.85
4.41
7.83
12.29
16.24
18.00
16.46
11.52
3.89
-5.20
-14.44
-22.65
-28.92
-32.67
-33.68
-32.33
-29.42
-26.03
-23.05
-20.78
-18.82
-16.44
-13.06
-8.72
-4.27
-1.07
-0.37
-2.70
-7.46
-13.11
-17.75
-19.83
-18.70
-14.70
-9.01
-3.14
1.32
3.18
1.75
-2.89
-9.91
-17.85
-24.94
-29.56
-30.53
-27.56
-21.22
-12.82
-4.11
3.17
7.62
8.45
5.73
0.34
-6.29
-12.62
-17.36
-19.85
-20.06
-18.58
-16.30
-14.10
-12.62
-12.06
-12.22
-12.56
-12.48
-11.54
-9.60
-6.94
-4.08
-1.66
-0.22
-0.07
-1.26
-3.65
-6.80
-10.19
-13.33
-15.90
-17.77
-18.90
-19.28
-18.78
-17.34
-15.08
-12.38
-9.92
-8.32
-7.91
-8.59
-9.95
-11.61
-13.35
-15.14
-17.00
-18.76
-20.10
-20.65
-20.31
-19.31
-18.13
-17.28
-17.05
-17.49
-18.48
-19.83
-21.38
-23.01
-24.59
-25.93
-26.80
-27.03
-26.46
-25.09
-23.02
-20.46
-17.75
-15.12
-12.77
-10.77
-9.18
-8.06
-7.39
-7.09
-6.88
-6.27
-4.75
-2.07
1.61
5.64
9.10
11.22
11.59
10.33
7.95
5.04
2.12
-0.54
-2.71
-4.35
-5.45
-6.20
-6.87
-7.71
-8.87
-10.27
-11.57
-12.45
-12.75
-12.56
-12.24
-12.17
-12.59
-13.43
-14.34
-14.98
-15.07
-14.62
-13.74
-12.58
-11.17
-9.34
-6.97
-4.13
-1.21
1.30
3.09
4.34
5.71
7.94
11.54
16.37
21.76
26.78
30.77
33.50
35.16
36.04
36.33
35.95
34.73
32.59
29.74
26.62
23.71
21.31
19.44
17.85
16.12
13.90
11.08
7.86
4.66
1.90
-0.16
-1.58
-2.69
-3.90
-5.56
-7.77
-10.34
-12.91
-15.06
-16.46
-17.01
-16.83
-16.33
-16.01
-16.36
-17.54
-19.28
-20.88
-21.53
-20.71
-18.45
-15.35
-12.31
-10.16
-9.35
-9.88
-11.37
-13.35
-15.35
-16.98
-17.98
-18.22
-17.76
-16.80
-15.61
-14.42
-13.26
-11.99
-10.53
-8.93
-7.50
-6.60
-6.54
-7.27
-8.59
-10.12
-11.49
-12.28
-12.05
-10.38
-7.14
-2.66
2.16
5.96
7.53
6.22
2.56
-1.82
-4.66
-3.95
1.12
9.68
19.40
27.33
31.00
29.44
23.21
13.96
3.60
-6.45
-15.44
-23.00
-28.81
-32.43
-33.49
-32.04
-28.76
-24.83
-21.55
-19.96
-20.44
-22.78
-26.20
-29.61
-32.13
-33.38
-33.49
-33.00
-32.48
-32.04
-31.25
-29.30
-25.52
-19.99
-13.54
-7.61
-3.62
-2.23
-3.15
-5.27
-7.11
-7.47
-5.85
-2.48
1.83
6.01
9.12
10.58
10.21
8.22
5.13
1.60
-1.65
-4.12
-5.58
-6.05
-5.77
-5.11
-4.35
-3.67
-3.06
-2.28
-1.09
0.69
3.00
5.42
7.37
8.23
7.54
5.26
1.83
-2.05
-5.52
-7.87
-8.69
-8.04
-6.29
-3.91
-1.19
1.89
5.63
10.34
16.11
22.61
29.23
35.25
40.09
43.34
44.79
44.16
41.29
36.18
29.29
21.41
13.47
6.12
-0.49
-6.75
-13.16
-20.03
-27.22
-34.15
-40.13
-44.70
-47.70
-49.25
-49.47
-48.39
-45.77
-41.47
-35.46
-28.08
-20.07
-12.33
-5.85
-1.32
1.05
1.63
1.20
0.70
0.71
1.21
1.76
1.64
0.39
-2.10
-5.50
-9.34
-13.15
-16.64
-19.64
-21.97
-23.43
-23.72
-22.59
-19.92
-15.83
-10.68
-5.03
0.45
5.19
8.60
10.32
10.25
8.64
6.09
3.41
1.54
1.28
3.11
6.88
11.76
16.55
19.98
21.23
20.01
16.58
11.61
6.16
1.19
-2.39
-3.81
-2.41
2.22
10.05
20.42
32.19
44.60
56.50
66.45
72.83
74.57
72.15
68.39
68.65
79.27
106.40
151.05
207.42
263.78
306.39
324.25
312.70
274.31
217.66
156.70
105.09
73.93
70.56
98.07
154.94
234.29
323.91
407.76
471.82
504.35
499.15
457.07
385.72
297.27
204.72
118.57
28.84
-67.34
-166.91
-260.76
-338.41
-393.77
-426.88
-442.21
-445.59
-442.00
-432.05
-415.95
-394.27
-368.84
-342.32
-317.23
-295.30
-277.21
-262.71
-248.92
-233.61
-215.83
-196.18
-176.29
-157.83
-141.96
-129.10
-119.01
-109.72
-99.73
-88.39
-76.06
-63.71
-52.34
-42.57
-34.55
-28.05
-21.91
-15.26
-7.67
0.72
9.42
17.82
25.38
31.72
36.55
39.88
41.82
42.34
41.31
38.72
34.70
29.54
23.71
17.75
12.21
7.58
4.03
1.60
0.30
0.06
0.82
2.60
5.43
9.45
14.84
21.31
28.56
36.31
44.29
52.29
60.23
68.12
76.16
84.59
92.92
100.76
107.70
113.47
117.96
121.42
124.38
127.50
131.43
135.59
139.18
141.14
140.38
135.99
127.41
114.16
95.05
74.39
53.21
31.51
8.75
-15.66
-41.75
-68.65
-94.85
-118.70
-138.98
-156.41
-172.29
-188.26
-205.63
-225.12
-246.88
-270.63
-295.51
-319.60
-340.36
-353.95
-356.47
-345.63
-322.06
-289.24
-252.13
-214.85
-179.12
-144.59
-109.55
-72.89
-35.21
1.58
35.77
67.48
99.29
135.15
178.07
228.25
282.24
333.77
376.29
405.45
420.62
424.56
421.48
414.72
405.39
392.55
374.49
350.52
321.77
290.73
260.07
231.39
204.74
179.13
153.52
127.67
102.35
78.91
58.47
41.30
26.60
12.84
-1.52
-17.48
-35.10
-53.67
-72.15
-89.76
-106.24
-121.99
-137.82
-154.75
-173.83
-195.81
-220.61
-246.76
-271.25
-289.80
-298.18
-293.69
-276.25
-248.49
-215.00
-180.76
-149.94
-125.25
-108.00
-98.57
-96.41
-99.83
-105.54
-108.91
-105.04
-90.52
-65.09
-32.23
1.60
29.12
44.69
46.02
34.39
13.61
-11.75
-37.74
-61.61
-81.53
-96.17
-104.44
-105.84
-100.88
-91.41
-80.24
-70.33
-63.71
-60.82
-60.48
-60.55
-58.90
-54.14
-45.90
-34.62
-21.19
-6.58
8.05
21.31
31.68
37.98
40.18
39.77
39.45
42.07
49.30
60.68
73.76
85.08
91.59
91.62
85.11
73.13
57.15
38.58
18.75
-1.08
-19.48
-35.03
-46.58
-53.63
-56.52
-56.36
-54.83
-53.62
-54.02
-56.37
-60.10
-63.94
-66.64
-67.46
-66.49
-64.59
-62.77
-61.76
-61.86
-62.98
-64.77
-66.60
-67.40
-65.71
-60.15
-50.16
-36.63
-21.90
-9.02
-0.44
2.93
1.73
-2.54
-8.76
-16.89
-27.75
-41.94
-58.80
-75.85
-89.48
-96.28
-94.48
-84.74
-69.90
-54.00
-40.75
-32.41
-29.28
-30.06
-32.67
-35.28
-36.88
-37.45
-37.68
-38.47
-40.58
-44.40
-49.88
-56.42
-62.66
-66.69
-66.52
-60.97
-50.58
-37.83
-26.38
-19.80
-20.13
-27.27
-39.46
-54.23
-69.47
-83.59
-95.17
-102.48
-103.42
-96.18
-80.26
-57.04
-29.69
-2.27
21.52
39.28
50.32
55.45
56.27
54.38
50.73
45.33
37.57
26.84
13.23
-2.04
-16.99
-29.55
-38.40
-43.19
-44.08
-41.00
-33.37
-20.48
-2.55
18.50
39.04
54.90
63.05
62.81
55.93
45.46
34.20
23.62
13.78
4.05
-5.91
-15.49
-23.27
-27.59
-27.40
-22.82
-15.16
-6.55
0.78
5.13
5.72
2.73
-2.92
-10.01
-17.20
-23.23
-27.03
-27.88
-25.74
-21.46
-16.50
-12.22
-8.79
-4.43
4.41
21.74
50.00
88.33
132.13
174.23
207.33
226.64
231.33
224.44
211.17
196.79
184.95
177.15
173.50
173.68
177.70
185.86
198.03
212.91
227.84
239.38
244.50
241.68
231.26
215.07
195.43
174.18
152.26
129.86
106.73
82.55
57.01
29.91
1.45
-27.13
-53.13
-72.50
-81.00
-75.98
-57.82
-30.53
-0.76
24.28
39.13
41.70
33.65
19.41
4.35
-7.09
-12.89
-13.75
-12.23
-11.40
-13.39
-18.61
-26.26
-35.24
-45.25
-56.90
-71.06
-87.56
-104.50
-118.57
-126.42
-126.26
-118.76
-106.83
-94.32
-84.60
-79.52
-79.31
-82.86
-88.15
-92.56
-93.14
-87.33
-73.74
-52.96
-27.67
-1.90
20.43
36.87
47.10
52.46
54.79
55.32
54.44
52.05
48.46
44.76
42.53
42.97
45.98
50.03
52.82
52.36
48.00
40.82
32.91
26.33
22.08
19.67
17.69
14.69
9.96
3.90
-2.48
-8.36
-13.78
-19.49
-26.34
-34.17
-41.38
-45.39
-43.91
-36.36
-24.47
-11.69
-1.73
2.93
1.73
-4.26
-13.29
-23.91
-35.30
-46.91
-57.94
-67.06
-72.62
-73.34
-68.92
-60.30
-49.38
-38.37
-29.01
-22.05
-17.13
-13.28
-9.62
-6.06
-3.35
-2.62
-4.51
-8.56
-13.28
-16.87
-18.34
-17.97
-16.96
-16.30
-15.81
-13.89
-8.37
2.00
16.55
32.64
46.63
55.38
57.24
52.15
41.04
25.13
5.61
-16.02
-37.58
-56.20
-69.04
-74.48
-73.11
-67.87
-63.25
-63.74
-72.09
-88.36
-109.80
-131.84
-149.51
-158.99
-158.63
-149.20
-133.46
-115.25
-98.42
-86.04
-79.94
-80.46
-86.26
-94.37
-100.54
-100.09
-89.33
-67.09
-35.43
0.63
34.77
61.49
77.76
83.65
81.56
74.83
66.36
58.15
51.34
46.69
44.93
46.52
51.34
58.29
65.39
70.15
70.37
64.75
53.24
37.04
18.15
-1.17
-18.96
-33.81
-44.96
-52.13
-55.56
-56.07
-55.18
-54.87
-56.82
-61.45
-67.18
-70.65
-67.94
-56.48
-36.35
-10.55
16.23
39.65
57.35
69.31
77.10
82.36
85.83
87.40
86.91
85.16
84.11
86.29
93.50
105.81
121.22
136.41
148.12
154.39
155.28
152.52
148.46
144.90
142.29
139.81
136.03
129.81
120.77
109.19
95.51
79.93
62.79
45.15
29.50
19.39
18.14
27.04
44.30
65.22
83.90
95.46
97.71
91.38
79.04
63.53
46.73
29.52
12.40
-3.65
-16.81
-24.89
-26.34
-21.14
-11.19
0.14
9.24
13.42
11.81
5.38
-3.92
-14.22
-24.43
-34.37
-44.07
-53.14
-60.59
-65.27
-66.87
-66.28
-65.36
-65.49
-66.46
-65.94
-60.54
-47.58
-26.91
-1.37
24.24
45.19
58.80
65.12
66.30
65.05
63.25
61.54
59.71
57.62
55.84
55.59
58.12
64.09
73.22
84.38
95.79
105.23
110.16
107.83
95.69
71.97
36.44
-8.80
-58.95
-107.11
-145.83
-169.60
-177.10
-172.07
-162.16
-155.83
-158.77
-171.24
-188.02
-200.68
-201.15
-185.01
-153.16
-111.57
-69.24
-35.40
-16.84
-16.07
-31.03
-56.16
-84.58
-110.28
-129.64
-141.62
-146.99
-146.91
-141.89
-131.21
-112.94
-84.49
-43.88
8.72
69.49
130.49
181.12
211.31
215.26
194.01
155.39
111.67
75.65
56.92
59.32
80.43
112.70
145.94
170.30
179.09
170.42
147.35
116.29
84.27
56.42
34.73
18.46
5.67
-5.38
-15.57
-25.18
-34.62
-44.50
-55.27
-66.70
-77.79
-87.26
-94.56
-100.32
-106.20
-114.09
-125.09
-139.02
-154.48
-169.48
-181.97
-190.21
-192.80
-188.78
-178.03
-161.55
-141.65
-121.59
-104.85
-94.23
-91.31
-96.05
-106.79
-120.28
-132.23
-138.18
-134.82
-121.37
-100.16
-76.18
-55.34
-42.27
-38.63
-42.84
-51.23
-60.05
-67.05
-71.99
-76.13
-81.07
-87.84
-96.60
-106.88
-117.97
-129.25
-140.05
-149.60
-156.88
-160.68
-159.79
-153.26
-140.57
-121.74
-97.32
-68.25
-35.53
-0.12
37.13
75.12
112.09
145.41
172.13
190.06
199.17
202.47
205.51
214.61
234.13
264.24
300.24
334.06
357.27
364.40
355.02
333.51
307.03
282.49
264.28
253.48
248.70
247.69
248.53
249.78
249.99
246.90
237.47
218.84
189.78
151.41
107.03
60.79
16.33
-23.98
-59.00
-88.27
-111.73
-129.70
-143.10
-153.24
-161.21
-167.07
-169.36
-165.56
-153.22
-131.06
-99.53
-60.52
-16.91
27.85
69.83
104.84
129.11
140.48
139.29
128.26
111.59
93.39
76.70
63.18
53.42
47.35
44.28
42.82
40.91
36.51
28.64
17.89
6.37
-3.76
-11.46
-17.59
-24.57
-35.52
-53.22
-79.30
-113.66
-154.06
-196.13
-233.97
-261.34
-273.32
-267.47
-244.22
-206.38
-158.16
-104.39
-50.33
-1.26
38.00
64.25
77.04
78.99
74.85
69.62
66.85
67.72
71.40
76.04
79.54
80.51
78.35
73.63
68.00
63.80
63.08
66.24
71.20
73.56
68.18
51.33
22.60
-14.60
-54.32
-90.48
-119.16
-139.57
-153.52
-163.74
-172.30
-180.05
-186.94
-192.95
-198.39
-203.57
-208.03
-210.16
-207.74
-199.28
-184.98
-166.82
-147.25
-127.54
-107.02
-83.54
-55.31
-22.31
13.26
48.02
78.99
104.65
124.95
140.46
151.88
159.86
165.56
170.83
177.85
188.20
201.97
217.63
232.64
244.42
250.88
250.36
241.03
220.87
188.34
143.48
88.94
29.83
-27.49
-77.18
-115.47
-141.03
-154.43
-156.95
-149.83
-134.11
-111.11
-83.02
-52.90
-24.10
0.63
19.84
33.41
41.99
46.49
47.89
47.50
47.35
49.92
57.21
69.53
84.78
98.79
106.90
105.84
94.83
75.94
52.92
29.98
10.69
-2.55
-8.58
-7.58
-1.07
8.16
16.66
21.18
19.58
11.40
-2.17
-18.59
-34.44
-46.06
-50.32
-45.70
-33.28
-17.03
-2.83
3.73
-0.31
-13.74
-31.67
-47.65
-56.41
-55.92
-47.60
-35.01
-21.99
-11.12
-3.41
1.28
3.36
3.03
0.37
-4.32
-10.17
-15.97
-20.54
-23.38
-24.90
-26.18
-28.40
-32.27
-37.56
-43.15
-47.55
-49.55
-48.86
-46.26
-43.18
-40.75
-38.87
-35.95
-29.51
-17.68
-0.62
18.80
35.92
46.27
47.84
42.23
34.01
28.70
30.21
39.26
53.30
67.84
78.36
81.90
77.61
66.40
50.10
30.75
10.27
-9.59
-27.27
-41.45
-51.34
-56.73
-58.16
-56.70
-53.68
-50.28
-47.14
-44.20
-40.81
-36.15
-29.89
-22.62
-15.88
-11.40
-9.96
-10.55
-10.47
-6.40
3.75
19.56
37.94
54.26
64.28
65.59
58.06
42.97
21.84
-4.41
-35.06
-68.59
-101.77
-129.79
-147.72
-152.44
-144.07
-125.81
-102.56
-78.86
-57.38
-38.76
-22.45
-7.63
6.51
21.09
37.92
58.97
84.85
113.17
137.87
150.45
143.12
112.38
61.56
0.71
-55.98
-94.47
-105.01
-84.90
-38.93
22.36
85.68
138.38
171.13
179.30
162.87
125.38
72.53
10.99
-52.23
-110.23
-156.73
-186.99
-198.82
-193.31
-174.76
-149.44
-123.70
-102.21
-87.27
-79.19
-77.45
-81.87
-93.00
-111.51
-137.10
-167.67
-199.18
-226.55
-245.00
-251.71
-246.75
-232.75
-213.53
-192.34
-170.45
-147.01
-119.98
-87.73
-50.69
-11.96
23.46
50.26
64.54
64.72
51.61
28.16
-0.81
-29.44
-51.82
-62.75
-58.81
-39.16
-6.00
35.87
80.48
123.09
160.11
189.18
209.26
221.03
226.78
229.65
232.42
237.18
246.50
260.87
277.85
292.72
300.44
297.51
282.71
257.10
224.88
195.02
175.60
170.14
176.24
187.87
198.53
203.13
198.15
184.21
167.77
155.02
149.18
150.33
157.93
172.32
193.64
219.64
221.67
180.76
97.79
-6.24
-107.89
-194.34
-263.00
-312.35
-349.79
-374.43
-378.90
-358.92
-316.99
-261.23
-201.45
-144.02
-91.31
-43.85
4.92
63.97
137.66
224.30
316.63
406.16
484.92
545.94
557.42
503.37
394.35
263.09
145.49
61.39
13.37
-7.99
-14.42
-18.83
-22.45
-22.41
-17.95
-11.64
-10.43
-21.42
-47.03
-83.29
-123.71
-156.96
-174.82
-184.91
-190.42
-195.78
-205.31
-226.16
-253.84
-286.70
-320.08
-350.43
-377.24
-401.32
-425.82
-431.83
-409.43
-360.35
-298.32
-236.93
-184.39
-143.21
-111.16
-85.45
-63.08
-44.62
-30.56
-21.63
-16.54
-13.70
-12.65
-13.23
-15.99
-20.06
-24.60
-25.85
-18.90
0.36
31.89
70.44
108.13
137.36
154.40
158.73
153.52
143.21
131.97
122.50
115.74
111.70
108.89
104.37
93.40
71.75
37.65
-6.92
-56.84
-104.78
-142.70
-163.53
-162.71
-140.17
-100.93
-54.48
-12.38
15.44
24.25
16.28
-0.70
-17.14
-25.68
-23.42
-11.78
5.95
25.20
40.75
47.31
41.00
21.46
-6.75
-35.06
-53.88
-57.25
-45.59
-25.73
-6.88
4.21
6.57
4.39
4.39
11.72
26.78
45.34
59.74
62.13
48.70
22.07
-9.24
-33.71
-41.99
-31.41
-7.28
19.75
39.39
47.04
45.70
42.98
46.84
61.10
82.47
106.20
126.46
138.09
136.99
122.56
93.32
51.06
1.86
-45.21
-81.00
-100.56
-104.77
-99.21
-90.98
-85.20
-82.71
-81.22
-77.69
-70.07
-58.35
-43.34
-25.17
-4.86
17.99
43.77
71.10
96.73
116.71
127.66
128.37
120.32
107.28
93.84
83.77
78.68
77.76
78.61
78.33
74.91
67.90
58.61
49.52
43.03
40.47
41.61
44.93
48.24
49.81
48.73
45.28
40.68
36.37
33.57
33.30
36.40
43.07
52.06
59.86
61.26
51.22
27.50
-7.46
-46.63
-81.05
-103.57
-111.59
-107.81
-98.09
-88.32
-82.13
-80.54
-83.22
-89.58
-98.75
-108.82
-116.25
-116.62
-106.73
-86.52
-59.56
-31.84
-8.97
6.17
14.09
17.63
19.98
22.93
26.63
30.57
34.70
39.87
47.37
57.65
69.80
81.78
91.44
97.10
98.76
97.88
96.74
97.77
102.65
112.39
126.80
143.87
159.47
167.94
163.87
144.63
112.25
72.92
35.53
7.98
-5.93
-7.53
-1.76
5.70
11.32
14.90
17.94
22.48
29.23
36.94
43.07
44.98
40.66
28.60
11.80
-8.60
-31.41
-54.22
-72.68
-80.90
-73.63
-49.07
-10.84
32.72
70.85
95.43
103.81
99.03
87.44
75.19
65.76
59.72
56.15
53.87
52.96
54.10
57.53
62.36
66.76
68.89
68.09
65.43
62.95
63.21
67.92
77.15
89.26
101.49
111.00
115.92
115.94
111.97
105.73
98.63
91.13
82.44
71.01
55.33
34.84
10.27
-16.58
-43.59
-69.23
-93.28
-116.88
-141.80
-169.39
-199.73
-231.31
-261.79
-289.12
-312.71
-333.54
-353.24
-372.90
-391.98
-408.16
-418.15
-418.79
-407.73
-383.62
-346.25
-296.64
-237.89
-175.82
-118.68
-75.83
-54.95
-58.58
-82.39
-116.13
-147.68
-168.19
-175.34
-172.76
-166.12
-158.76
-149.48
-134.40
-110.94
-81.13
-51.57
-30.02
-21.15
-24.09
-33.46
-42.86
-48.26
-48.67
-44.84
-37.42
-26.51
-12.55
2.50
15.76
25.08
30.70
35.60
43.49
56.21
72.45
88.60
101.52
111.11
120.58
134.34
154.68
179.74
204.30
223.00
233.91
240.00
247.54
262.34
286.57
317.75
350.44
379.25
400.96
414.66
420.35
417.55
404.87
381.34
348.02
308.17
266.87
229.25
198.75
176.26
160.98
151.96
148.85
151.65
158.81
167.10
172.21
170.53
160.63
143.92
123.89
104.10
86.23
68.16
46.55
19.50
-11.72
-43.41
-71.44
-93.20
-109.04
-122.12
-139.99
-168.02
-205.97
-248.12
-287.19
-318.11
-339.35
-352.89
-362.86
-380.56
-414.16
-463.91
-522.44
-579.95
-628.01
-659.50
-668.35
-650.41
-616.04
-577.47
-542.37
-512.19
-486.67
-466.02
-449.20
-433.78
-418.07
-417.78
-448.22
-513.83
-605.40
-708.06
-808.26
-895.60
-963.77
-923.66
-733.87
-428.97
-98.71
182.22
388.10
527.35
619.07
679.92
720.61
733.30
712.49
664.85
608.71
562.25
534.82
526.74
532.71
545.50
547.60
528.05
486.94
434.97
383.67
338.37
298.84
262.96
230.32
196.30
160.04
126.35
103.03
94.94
100.25
112.58
124.75
131.00
124.46
101.17
61.36
7.95
-52.07
-110.13
-157.00
-184.42
-188.10
-170.74
-140.13
-106.39
-78.24
-60.26
-52.82
-53.13
-57.89
-65.41
-76.10
-90.57
-107.54
-122.85
-130.03
-123.44
-100.91
-64.78
-21.12
23.33
64.05
99.91
132.70
165.23
199.48
235.37
270.75
302.11
325.83
339.64
343.49
339.82
332.22
323.11
312.24
296.91
274.18
244.35
212.31
185.76
170.64
167.25
169.32
167.24
153.45
126.86
93.81
63.81
43.00
30.40
19.19
1.35
-27.24
-65.36
-108.49
-151.69
-192.16
-230.38
-268.28
-305.87
-339.56
-363.36
-371.99
-363.37
-337.41
-294.76
-236.83
-166.25
-86.85
-3.28
78.49
151.36
201.93
216.05
192.30
146.55
100.38
68.53
55.80
59.46
73.02
89.73
106.69
124.47
144.35
166.65
187.69
202.57
207.74
201.96
185.99
163.46
139.45
117.84
99.61
82.54
61.60
31.47
-6.98
-51.32
-96.82
-137.82
-169.91
-191.23
-203.47
-212.42
-223.31
-238.97
-260.24
-286.15
-315.48
-346.96
-378.50
-406.80
-429.18
-440.50
-435.70
-413.61
-378.76
-340.80
-310.00
-292.36
-266.39
-218.94
-150.11
-73.97
-8.30
35.01
53.20
50.05
39.15
31.11
29.87
33.79
37.47
36.06
30.27
22.92
18.72
22.43
35.62
57.43
84.00
109.98
132.06
151.26
171.34
196.82
231.35
275.74
331.25
394.98
459.28
514.07
550.54
562.58
548.10
510.21
429.50
311.06
182.54
75.21
3.34
-35.88
-52.27
-54.70
-47.41
-34.04
-14.51
7.89
26.79
36.02
33.28
19.58
-5.79
-43.73
-90.79
-137.82
-178.94
-213.91
-244.56
-269.63
-283.72
-279.94
-253.82
-207.15
-146.67
-84.60
-33.78
-1.98
11.11
11.82
8.30
6.61
8.63
13.73
19.30
22.78
23.33
21.86
19.78
18.27
17.98
18.90
20.94
22.45
19.99
9.16
-13.37
-48.45
-91.32
-133.23
-164.30
-176.53
-167.02
-138.57
-97.73
-52.11
-8.18
29.59
58.16
75.49
80.99
76.20
64.79
51.48
40.36
32.13
25.79
19.79
14.09
11.21
14.99
28.26
50.48
76.75
100.25
115.30
119.95
116.11
107.66
98.11
88.83
79.30
67.43
52.30
34.63
16.68
0.92
-11.29
-19.84
-25.41
-28.39
-29.41
-28.83
-27.31
-26.10
-27.57
-34.90
-51.56
-80.89
-119.02
-160.18
-196.95
-222.20
-229.96
-216.75
-183.25
-135.05
-81.87
-33.74
1.72
22.09
29.58
29.07
24.97
19.49
13.32
6.49
-0.13
-5.49
-8.87
-10.92
-13.43
-18.45
-27.28
-39.47
-52.75
-63.69
-70.74
-72.27
-68.74
-61.88
-53.46
-44.33
-34.00
-20.89
-3.18
20.19
49.23
82.93
118.40
151.64
177.88
192.02
190.51
173.14
143.91
109.95
79.24
57.75
47.57
47.28
53.28
62.55
73.19
85.19
96.70
104.56
104.46
92.29
65.85
26.49
-19.89
-64.88
-98.57
-115.39
-116.28
-108.24
-100.88
-101.69
-113.49
-131.54
-147.77
-154.80
-148.88
-130.21
-101.37
-65.44
-24.68
16.54
53.23
79.79
91.53
86.91
68.71
43.38
18.35
-0.85
-11.90
-14.99
-12.09
-5.28
3.81
13.70
22.80
29.28
31.37
28.16
20.46
11.22
3.57
1.40
7.47
21.94
41.75
61.43
75.23
79.78
75.14
64.35
51.59
40.03
30.53
22.42
14.61
7.21
1.83
0.27
3.27
10.19
19.32
28.24
34.37
35.57
30.81
21.15
9.59
0.41
-2.20
4.08
18.26
36.63
54.64
69.24
80.79
91.73
104.27
118.05
129.26
131.81
120.53
94.24
54.72
10.35
-28.19
-51.81
-56.43
-43.60
-19.05
10.09
37.68
59.25
72.11
73.91
62.70
37.78
0.87
-43.75
-90.28
-133.13
-168.73
-195.72
-214.94
-228.27
-237.34
-243.14
-246.09
-246.64
-245.73
-244.67
-244.40
-245.18
-246.38
-246.72
-244.89
-240.28
-232.99
-223.41
-211.58
-196.75
-177.85
-154.62
-128.15
-100.90
-75.74
-54.44
-37.08
-22.46
-9.40
2.33
11.74
17.58
19.48
18.32
15.79
13.19
10.56
6.63
-0.01
-9.75
-21.28
-31.89
-38.87
-40.82
-38.29
-33.44
-29.01
-27.16
-28.98
-34.59
-43.68
-56.00
-71.23
-88.55
-106.15
-121.15
-130.40
-131.40
-123.31
-107.16
-85.69
-62.34
-40.44
-22.46
-9.63
-2.02
1.22
1.46
0.26
-1.03
-1.12
0.98
5.65
12.23
18.91
23.00
21.94
14.79
2.92
-9.96
-19.31
-21.49
-15.24
-1.85
15.69
34.23
51.45
66.19
77.96
86.39
91.24
92.66
91.77
90.56
91.45
96.24
105.44
118.07
132.12
145.52
157.01
166.68
175.95
187.25
203.24
225.72
254.38
286.05
314.64
332.61
333.51
314.59
278.29
231.83
184.87
146.22
121.21
110.45
110.48
115.70
120.43
120.58
114.28
101.71
84.43
64.60
44.41
25.68
9.75
-2.62
-11.50
-17.84
-23.44
-30.27
-39.59
-51.01
-62.36
-70.12
-70.94
-62.98
-46.99
-26.26
-5.47
10.99
20.64
23.54
22.05
19.29
17.68
17.94
18.93
18.81
16.06
10.48
3.16
-4.10
-9.60
-12.31
-11.91
-8.60
-2.90
4.42
12.08
18.35
21.37
19.72
13.12
2.95
-8.11
-16.89
-21.08
-20.07
-15.33
-9.56
-5.47
-4.57
-6.49
-9.47
-11.43
-10.84
-7.43
-1.94
4.45
10.58
15.53
18.74
19.80
18.58
15.42
11.14
6.78
3.23
0.75
-1.03
-2.76
-4.99
-7.62
-10.00
-11.46
-11.94
-12.23
-13.62
-17.06
-22.23
-27.43
-30.11
-28.04
-20.56
-8.79
4.87
18.01
29.10
37.61
43.28
45.44
42.97
34.90
21.67
5.65
-9.37
-19.56
-22.64
-18.72
-10.18
-0.42
7.43
11.65
11.98
9.42
5.32
0.78
-3.65
-7.96
-12.15
-15.95
-18.48
-18.62
-15.38
-8.55
1.09
11.85
21.62
28.63
31.81
31.02
26.79
19.99
11.39
1.58
-8.97
-19.85
-30.24
-39.05
-45.11
-47.66
-46.82
-43.75
-40.20
-37.67
-36.60
-35.88
-33.31
-26.65
-14.90
0.91
17.90
32.28
40.90
42.26
37.00
27.48
16.87
8.26
3.82
4.47
9.81
18.51
28.63
38.19
45.56
49.64
50.05
46.91
40.94
33.19
25.00
17.53
11.46
6.75
2.57
-2.30
-8.89
-17.54
-27.72
-38.24
-47.75
-55.35
-60.80
-64.58
-67.56
-70.50
-73.58
-76.12
-76.51
-72.57
-62.31
-44.67
-20.30
8.25
37.05
61.93
79.62
88.76
89.91
85.00
76.62
67.23
58.90
53.12
50.77
51.83
55.43
59.97
63.69
65.36
64.56
61.66
57.34
52.14
46.20
39.41
31.86
24.02
16.77
11.02
7.40
6.05
6.71
8.91
12.14
15.83
19.29
21.61
21.88
19.55
14.85
8.94
3.78
1.32
2.79
8.08
15.78
23.67
29.66
32.48
31.85
28.38
23.06
16.84
10.47
4.54
-0.35
-3.68
-4.99
-4.30
-2.17
0.37
2.13
2.25
0.56
-2.44
-5.94
-9.21
-12.03
-14.71
-17.82
-21.73
-26.41
-31.49
-36.45
-41.00
-45.13
-48.90
-52.34
-55.40
-58.09
-60.67
-63.53
-66.64
-69.16
-69.23
-64.61
-53.84
-37.32
-17.61
1.36
15.80
23.66
25.19
22.46
18.10
14.10
11.25
9.57
9.04
9.93
12.80
17.71
23.84
29.63
33.46
34.71
34.25
34.00
35.75
40.04
45.44
49.25
48.65
42.19
30.52
15.92
1.28
-11.23
-20.78
-27.88
-33.68
-39.25
-45.09
-50.85
-55.75
-58.62
-58.48
-54.74
-47.61
-38.12
-27.94
-18.95
-12.55
-9.50
-9.71
-12.60
-17.23
-22.59
-27.55
-31.01
-32.03
-30.02
-25.09
-18.03
-10.22
-3.07
2.26
5.13
5.51
3.80
0.79
-2.70
-5.82
-7.89
-8.51
-7.48
-4.90
-1.03
3.47
7.45
9.34
7.67
1.72
-7.68
-18.15
-26.44
-29.67
-26.75
-18.85
-9.02
-0.64
3.80
3.72
0.19
-4.88
-9.66
-13.11
-14.74
-14.43
-12.08
-7.68
-1.44
6.14
14.27
22.18
29.26
35.09
39.24
41.12
40.08
35.83
28.90
20.81
13.78
10.03
10.78
15.77
23.05
29.69
32.71
30.16
21.82
9.43
-3.68
-13.55
-16.90
-12.74
-3.18
6.65
10.14
1.76
-20.22
-52.28
-86.40
-112.53
-122.42
-112.49
-85.03
-47.08
-7.71
24.79
45.06
51.41
45.62
31.95
15.96
3.19
-2.16
1.88
14.63
33.21
53.39
70.98
82.79
87.20
84.28
75.44
62.90
49.12
36.31
26.17
19.83
17.96
20.82
28.30
39.57
53.03
66.32
76.95
83.08
84.01
80.27
72.94
63.01
50.90
36.70
20.65
3.65
-12.68
-26.36
-35.90
-40.88
-42.03
-40.90
-39.19
-38.10
-38.06
-38.79
-39.73
-40.63
-41.84
-44.28
-49.00
-56.53
-66.46
-77.38
-87.58
-95.83
-102.04
-107.21
-112.67
-119.00
-125.40
-129.72
-129.47
-122.84
-109.56
-90.73
-68.31
-44.43
-20.93
0.53
18.51
31.73
39.32
41.15
37.96
31.12
22.12
12.49
3.54
-3.33
-6.81
-5.88
-0.36
8.99
20.58
32.51
43.17
51.49
56.99
59.46
58.90
55.38
49.29
41.19
31.55
20.47
7.49
-7.89
-25.53
-44.10
-60.91
-72.71
-76.97
-73.05
-62.51
-48.69
-35.25
-24.87
-18.49
-15.42
-14.39
-14.43
-15.39
-17.63
-21.37
-25.99
-30.02
-31.66
-29.56
-23.54
-14.63
-4.74
4.22
10.93
15.01
16.91
17.45
17.40
17.12
16.56
15.54
14.12
12.58
11.44
11.01
11.03
10.76
9.28
6.08
1.55
-2.96
-5.80
-5.83
-2.98
1.53
5.82
8.16
7.62
4.38
-0.66
-6.48
-12.43
-18.31
-24.19
-29.93
-35.12
-39.11
-41.45
-42.15
-41.78
-41.22
-41.31
-42.60
-45.14
-48.64
-52.66
-56.80
-60.82
-64.70
-68.53
-72.43
-76.47
-80.36
-83.58
-85.51
-85.64
-83.88
-80.43
-75.63
-69.71
-62.84
-55.27
-47.77
-41.71
-38.82
-40.45
-46.82
-56.72
-67.81
-77.48
-83.86
-86.28
-85.07
-81.03
-74.64
-65.85
-54.21
-39.48
-21.92
-2.39
17.97
38.05
57.05
74.35
89.41
101.74
110.93
117.00
120.46
122.39
124.06
126.58
130.35
134.81
138.50
139.56
136.48
128.84
117.77
105.69
95.43
89.19
87.57
89.36
92.39
94.34
93.80
90.52
85.14
78.40
70.76
62.28
52.96
43.16
33.72
25.78
20.19
17.13
15.86
15.19
13.99
11.77
8.88
6.08
4.17
3.40
3.43
3.70
3.70
3.26
2.53
1.84
1.40
1.37
1.78
2.43
3.07
3.30
2.74
1.42
-0.03
-0.56
1.04
5.49
12.50
20.95
29.26
35.93
40.05
41.35
40.03
36.58
31.70
26.21
21.12
17.19
14.78
13.56
12.73
11.28
8.61
4.75
0.34
-3.81
-7.19
-9.72
-11.72
-13.62
-15.80
-18.40
-21.37
-24.39
-27.03
-29.01
-30.38
-31.56
-33.38
-36.68
-41.78
-48.30
-55.04
-60.31
-62.56
-60.85
-55.18
-46.53
-36.55
-27.00
-19.38
-14.43
-11.93
-10.90
-10.00
-8.10
-4.61
0.36
6.30
12.49
18.36
23.49
27.57
30.31
31.37
30.32
26.97
21.46
14.38
6.73
-0.37
-6.11
-10.16
-12.77
-14.58
-16.20
-17.95
-19.78
-21.45
-22.86
-24.24
-26.09
-28.83
-32.27
-35.39
-36.58
-34.24
-27.57
-16.99
-4.12
8.82
19.81
27.76
32.66
35.30
36.60
37.19
37.23
36.62
35.36
33.78
32.42
31.72
31.72
31.96
31.76
30.60
28.36
25.38
22.19
19.18
16.36
13.62
10.71
7.62
4.44
1.25
-1.99
-5.56
-9.81
-15.07
-21.46
-28.99
-37.34
-45.75
-52.93
-57.13
-56.70
-50.70
-39.53
-24.94
-9.49
4.35
15.08
22.60
27.82
32.00
36.01
39.98
43.52
46.19
47.89
49.03
50.08
51.27
52.30
52.47
51.11
48.09
44.02
40.05
37.37
36.64
37.70
39.63
41.22
41.40
39.63
36.02
31.10
25.64
20.36
15.75
11.93
8.88
6.58
5.30
5.68
8.38
13.75
21.38
30.07
38.12
43.96
46.69
46.30
43.43
38.81
32.83
25.40
16.26
5.37
-6.80
-19.42
-31.46
-42.06
-50.64
-57.00
-61.11
-63.14
-63.30
-61.92
-59.35
-55.95
-52.03
-47.80
-43.44
-39.07
-34.91
-31.23
-28.51
-27.47
-29.19
-34.83
-45.19
-60.03
-77.51
-94.42
-106.84
-111.53
-107.09
-94.46
-76.47
-56.79
-38.65
-24.07
-13.90
-8.04
-5.85
-6.38
-8.35
-10.24
-10.65
-8.70
-4.25
1.99
8.85
15.10
19.74
22.09
21.83
19.18
14.81
9.80
5.20
1.59
-1.04
-3.27
-5.62
-8.19
-10.53
-12.12
-12.75
-12.88
-13.26
-14.32
-15.62
-15.78
-13.04
-6.23
4.67
18.43
33.02
46.32
56.72
63.39
66.29
66.14
64.21
62.04
61.03
62.03
64.95
68.86
72.40
74.33
74.14
72.21
69.67
67.83
67.64
69.08
70.91
70.55
64.65
50.00
24.66
-10.72
-52.42
-94.04
-128.02
-147.64
-148.88
-131.42
-98.33
-55.14
-8.27
35.96
72.32
97.09
108.70
107.78
97.06
80.81
63.71
49.95
42.30
41.79
47.56
57.15
66.97
73.10
72.56
64.22
49.45
31.47
14.18
0.56
-8.22
-12.81
-14.79
-15.64
-16.10
-16.00
-14.67
-11.39
-5.74
2.15
11.47
20.73
27.96
31.05
28.44
19.77
6.26
-9.55
-24.33
-34.93
-39.08
-36.06
-26.68
-12.99
2.24
16.29
27.01
33.20
34.64
31.90
25.72
16.76
5.37
-8.34
-24.23
-41.83
-60.32
-78.53
-95.16
-109.15
-119.82
-126.99
-130.95
-132.27
-131.61
-129.81
-128.01
-127.42
-129.07
-133.27
-139.17
-144.98
-148.46
-147.87
-142.55
-133.07
-120.62
-106.25
-90.32
-72.76
-53.70
-34.06
-15.75
-1.01
8.61
13.01
13.60
12.65
12.25
13.50
16.32
19.91
23.34
26.26
28.89
31.79
35.48
40.09
45.13
49.76
53.00
54.06
52.63
48.83
43.18
36.30
28.72
20.59
11.76
2.05
-8.59
-19.81
-30.86
-40.62
-47.74
-50.79
-48.52
-40.27
-26.20
-7.59
13.51
34.60
53.35
68.04
77.72
82.15
81.75
77.38
70.23
61.72
53.31
46.21
41.14
38.18
36.73
35.76
34.01
30.31
24.02
15.14
4.26
-7.52
-19.04
-29.30
-37.71
-44.13
-48.82
-52.33
-55.31
-58.41
-62.02
-66.05
-69.69
-71.61
-70.29
-64.63
-54.59
-41.26
-26.49
-12.14
0.60
11.38
20.43
28.02
34.10
38.29
40.19
39.84
37.97
35.76
34.47
35.05
37.70
41.99
46.94
51.37
54.15
54.57
52.42
47.90
41.52
33.73
24.88
15.31
5.47
-4.00
-12.38
-19.04
-23.73
-26.54
-27.83
-27.85
-26.71
-24.37
-20.96
-17.01
-13.44
-11.23
-11.05
-12.93
-16.21
-19.72
-22.32
-23.29
-22.63
-20.93
-19.02
-17.59
-16.90
-16.80
-16.95
-17.13
-17.29
-17.54
-17.93
-18.33
-18.40
-17.85
-16.64
-15.15
-13.98
-13.69
-14.56
-16.52
-19.20
-22.05
-24.42
-25.60
-24.97
-22.03
-16.59
-8.93
0.15
9.46
17.74
23.96
27.72
29.07
28.65
27.20
25.39
23.64
22.11
20.81
19.72
18.98
18.64
18.85
19.62
20.83
22.26
23.54
24.23
23.96
22.68
20.70
18.68
17.38
17.24
18.14
19.30
19.55
17.80
13.55
7.01
-0.87
-8.73
-15.24
-19.28
-20.40
-18.68
-14.76
-9.65
-4.51
-0.41
1.82
1.62
-1.14
-6.27
-13.12
-20.69
-27.76
-33.18
-36.12
-36.28
-33.97
-29.91
-25.01
-20.17
-16.03
-12.85
-10.53
-8.66
-6.68
-4.12
-0.78
3.13
7.05
10.34
12.48
13.29
12.85
11.58
10.08
9.09
9.36
11.35
14.99
19.56
23.82
26.48
26.83
24.98
21.89
18.82
16.70
15.66
15.07
13.92
11.38
7.10
1.42
-4.96
-11.25
-16.76
-21.06
-23.91
-25.17
-24.93
-23.48
-21.35
-19.15
-17.44
-16.45
-15.99
-15.55
-14.43
-12.15
-8.58
-3.99
1.16
6.50
11.85
17.21
22.47
27.37
31.47
34.36
35.89
36.29
36.01
35.48
34.77
33.51
31.14
26.96
20.47
11.60
0.69
-11.39
-23.43
-34.07
-42.20
-47.18
-49.17
-48.95
-47.59
-46.09
-45.01
-44.55
-44.69
-45.50
-47.16
-49.86
-53.47
-57.37
-60.64
-62.27
-61.38
-57.35
-49.79
-38.49
-23.54
-5.53
14.22
33.55
49.87
60.80
64.75
61.26
51.08
35.78
17.36
-2.05
-20.51
-36.31
-47.89
-53.89
-53.08
-44.62
-28.31
-4.93
23.74
55.04
85.93
113.73
136.68
154.02
165.71
171.88
172.35
166.64
154.25
135.17
110.19
80.97
49.74
18.85
-9.68
-34.51
-55.08
-71.60
-85.01
-96.89
-109.33
-124.58
-144.60
-170.52
-201.98
-236.77
-270.93
-299.48
-317.57
-321.92
-311.62
-288.32
-255.94
-219.58
-184.50
-155.14
-134.41
-123.31
-120.88
-124.57
-130.74
-135.52
-135.52
-128.56
-113.86
-92.19
-65.42
-35.93
-5.81
23.73
52.41
80.48
107.90
133.88
156.93
175.52
188.99
197.98
204.21
209.60
215.25
220.93
225.25
226.57
223.85
217.14
207.30
195.51
182.63
169.13
155.18
141.08
127.46
115.18
104.96
96.97
90.75
85.45
80.24
74.64
68.59
62.24
55.69
48.75
41.01
32.09
21.96
11.19
0.95
-7.27
-12.04
-12.44
-8.33
-0.45
9.69
20.08
28.75
34.19
35.68
33.40
28.22
21.39
14.24
7.79
2.70
-0.74
-2.55
-2.91
-2.16
-0.74
0.98
2.69
4.18
5.36
6.18
6.49
6.17
5.19
3.66
2.08
1.08
1.27
2.94
5.76
8.65
9.98
8.12
2.19
-7.37
-18.75
-29.23
-36.19
-38.11
-35.22
-29.35
-23.22
-19.31
-18.97
-21.99
-26.77
-30.91
-32.09
-28.65
-20.05
-6.96
8.87
25.07
39.09
48.74
52.73
50.89
44.47
35.98
28.83
26.42
31.27
44.04
63.00
84.06
101.75
110.59
106.62
88.77
59.13
22.55
-14.77
-46.90
-69.69
-81.23
-81.80
-73.15
-57.95
-39.64
-22.22
-9.89
-6.11
-12.41
-27.47
-47.12
-65.61
-77.48
-79.48
-71.49
-56.11
-37.38
-19.24
-4.61
5.07
9.50
9.40
6.05
1.27
-2.93
-4.74
-2.91
2.73
11.18
20.49
28.44
33.15
33.83
30.98
26.11
21.21
17.89
16.82
17.45
18.49
18.39
16.08
11.33
4.63
-3.19
-11.31
-19.28
-26.79
-33.45
-38.70
-41.89
-42.64
-41.18
-38.47
-35.81
-34.39
-34.77
-36.73
-39.55
-42.24
-44.04
-44.50
-43.41
-40.72
-36.61
-31.57
-26.45
-22.39
-20.34
-20.62
-22.77
-25.56
-27.50
-27.42
-24.86
-20.19
-14.43
-8.62
-3.57
0.43
3.42
5.53
6.66
6.58
5.05
2.16
-1.44
-4.72
-6.58
-6.36
-4.06
-0.34
3.89
7.71
10.48
11.89
11.86
10.62
8.63
6.64
5.47
5.64
7.02
8.87
10.09
9.77
7.75
4.78
2.13
1.03
2.11
5.02
8.83
12.52
15.49
17.68
19.53
21.41
23.43
25.39
27.12
28.54
29.71
30.49
30.30
28.11
22.79
13.67
0.99
-14.11
-29.98
-44.94
-57.65
-67.08
-72.54
-73.70
-70.74
-64.39
-56.08
-47.50
-40.15
-34.94
-31.91
-30.52
-30.11
-30.24
-30.77
-31.77
-33.05
-33.92
-33.43
-30.42
-24.19
-14.74
-3.00
9.41
20.63
28.92
33.12
32.78
28.45
21.46
13.78
7.36
3.70
3.39
6.07
10.70
15.96
20.73
24.11
25.57
24.83
21.90
16.93
10.39
2.86
-4.97
-12.33
-18.55
-23.11
-25.67
-26.36
-25.79
-24.86
-24.44
-24.78
-25.41
-25.20
-23.06
-18.47
-11.99
-5.07
0.59
3.85
4.51
3.43
1.96
1.38
2.47
5.25
9.27
13.82
18.23
21.86
24.18
24.78
23.52
20.68
16.81
12.65
8.82
5.60
2.97
0.70
-1.40
-3.46
-5.49
-7.47
-9.39
-11.11
-12.42
-12.98
-12.49
-10.87
-8.31
-5.16
-1.79
1.61
