1607131158.00
64.000000
-0.00
-0.00
-0.00
-0.00
-0.00
-0.00
-0.00
-0.00
-0.00
-0.00
0.00
0.01
0.01
-0.00
-0.03
-0.05
-0.05
0.00
0.13
0.36
0.66
1.01
1.37
1.72
2.06
2.40
2.79
3.24
3.80
4.42
5.06
5.66
6.20
6.68
7.15
7.68
8.31
9.14
10.09
11.04
11.88
12.56
13.14
13.76
14.65
15.96
17.91
20.32
22.90
25.38
27.58
29.57
31.68
34.32
37.81
42.54
48.15
54.10
59.83
64.97
69.58
74.14
79.34
85.71
93.76
103.00
112.62
121.73
129.77
136.75
143.30
150.75
157.77
166.64
177.95
191.79
206.97
220.57
228.25
225.36
208.53
176.87
132.76
80.05
23.07
-34.94
-92.44
-149.16
-205.23
-260.37
-313.74
-363.87
-409.83
-450.91
-486.50
-515.74
-537.23
-549.22
-549.96
-538.37
-514.21
-478.67
-433.88
-382.45
-327.02
-269.84
-212.63
-156.66
-102.95
-52.37
-5.90
35.58
71.43
101.35
125.50
144.38
158.69
169.15
176.37
180.75
182.57
182.07
179.51
175.23
169.65
163.18
156.15
148.81
141.30
133.69
126.02
118.33
110.69
103.16
95.80
88.68
81.83
75.25
68.95
62.95
57.25
51.86
46.78
42.03
37.59
33.45
29.61
26.07
22.81
19.83
17.11
14.67
12.48
10.54
8.83
7.35
6.07
4.97
4.05
3.27
2.62
2.09
1.65
1.30
1.01
0.79
0.61
0.48
0.37
0.29
0.24
0.20
0.18
0.17
0.17
0.19
0.21
0.24
0.27
0.31
0.35
0.39
0.44
0.48
0.53
0.58
0.63
0.69
0.75
0.81
0.88
0.95
1.03
1.12
1.23
1.34
1.47
1.61
1.77
1.95
2.15
2.37
2.61
2.89
3.19
3.51
3.88
4.27
4.70
5.17
5.67
6.21
6.79
7.41
8.08
8.79
9.54
10.35
11.19
12.09
13.03
14.01
15.06
16.18
17.36
18.60
19.89
21.18
22.44
23.58
24.51
25.10
25.22
24.77
23.63
21.76
19.15
15.85
11.93
7.58
2.98
-1.65
-6.08
-10.12
-13.58
-16.36
-18.39
-19.66
-20.18
-20.07
-19.41
-18.31
-16.88
-15.22
-13.41
-11.54
-9.65
-7.77
-5.95
-4.20
-2.50
-0.84
0.83
2.48
4.12
5.78
7.51
9.25
11.04
12.94
15.00
17.28
19.78
22.48
25.37
28.52
31.75
35.04
38.43
42.01
45.78
49.68
53.59
57.44
61.31
64.95
68.46
72.06
76.00
80.36
85.01
89.66
94.01
97.95
101.04
103.31
104.97
106.15
106.58
105.40
101.13
91.60
78.93
63.71
46.70
28.76
10.64
-7.31
-25.18
-43.39
-62.46
-82.90
-105.75
-131.49
-159.74
-188.83
-215.77
-236.74
-248.20
-248.17
-236.99
-217.67
-194.18
-170.21
-148.11
-128.74
-112.03
-97.75
-86.00
-76.98
-70.91
-67.25
-64.82
-62.33
-59.01
-54.95
-51.04
-48.52
-48.37
-50.94
-55.70
-61.38
-66.38
-69.25
-69.07
-65.58
-59.02
-49.94
-38.92
-26.41
-12.75
1.65
16.17
29.99
42.25
52.26
59.68
64.57
67.28
68.36
68.36
67.72
66.75
65.50
63.90
61.82
59.12
55.86
52.24
48.55
45.06
41.96
39.26
36.85
34.47
31.87
28.78
24.99
20.43
15.17
9.41
3.42
-2.62
-8.66
-14.82
-21.12
-27.38
-33.01
-37.12
-38.77
-37.30
-32.59
-25.02
-15.38
-4.48
6.99
18.48
29.42
39.14
46.88
52.07
54.58
54.77
53.40
51.20
48.58
45.52
41.77
37.18
31.99
26.83
22.38
19.05
16.79
15.05
13.15
10.52
6.94
2.51
-2.45
-7.56
-12.49
-17.00
-20.97
-24.56
-28.12
-32.13
-36.98
-42.63
-48.54
-53.65
-56.70
-56.61
-52.82
-45.41
-34.97
-22.42
-8.67
5.44
19.19
31.88
42.87
51.56
57.57
60.76
61.39
60.00
57.31
54.04
50.74
47.75
45.05
42.46
39.61
36.17
31.88
26.65
20.58
13.93
7.05
0.22
-6.32
-12.50
-18.41
-24.23
-30.21
-36.64
-43.68
-51.28
-59.01
-66.05
-71.29
-73.61
-72.26
-67.06
-58.47
-47.42
-35.01
-22.21
-9.70
2.12
13.07
22.95
31.54
38.66
44.16
48.00
50.30
51.29
51.28
50.55
49.33
47.84
46.21
44.58
43.00
41.45
39.70
37.44
34.33
30.11
24.71
18.36
11.43
4.36
-2.57
-9.23
-15.76
-22.42
-29.51
-37.17
-45.23
-53.13
-59.94
-64.57
-66.01
-63.69
-57.61
-48.33
-36.84
-24.18
-11.31
1.10
12.58
22.81
31.48
38.28
43.05
45.83
46.90
46.70
45.70
44.14
42.11
39.55
36.48
33.04
29.53
26.22
23.21
20.29
17.07
13.18
8.45
3.02
-2.78
-8.60
-14.18
-19.48
-24.64
-29.86
-35.40
-41.42
-48.03
-55.15
-62.47
-69.34
-74.94
-78.32
-78.66
-75.53
-68.94
-59.42
-47.80
-35.14
-22.44
-10.56
-0.08
8.68
15.61
20.74
24.15
25.94
26.27
25.36
23.56
21.31
19.07
17.17
15.78
14.80
14.02
13.15
11.93
10.17
7.77
4.71
1.05
-3.09
-7.51
-12.00
-16.44
-20.83
-25.38
-30.32
-35.75
-41.46
-46.92
-51.26
-53.57
-53.03
-49.16
-41.89
-31.58
-18.90
-4.76
9.80
23.80
36.34
46.74
54.57
59.69
62.25
62.61
61.28
58.76
55.53
51.96
48.34
44.89
41.77
39.04
36.60
34.21
31.56
28.38
24.46
19.77
14.37
8.40
2.04
-4.56
-11.19
-17.70
-24.04
-30.37
-36.93
-43.97
-51.38
-58.65
-64.80
-68.62
-69.10
-65.72
-58.60
-48.45
-36.27
-23.12
-9.90
2.72
14.33
24.65
33.53
40.82
46.42
50.23
52.25
52.62
51.61
49.63
47.04
44.11
40.97
37.67
34.20
30.56
26.73
22.64
18.17
13.19
7.65
1.60
-4.84
-11.57
-18.54
-25.71
-33.00
-40.31
-47.57
-54.85
-62.37
-70.35
-78.73
-86.94
-93.90
-98.28
-98.95
-95.40
-87.93
-77.46
-65.27
-52.56
-40.26
-28.96
-19.01
-10.70
-4.27
-0.03
1.72
0.76
-2.96
-9.22
-17.44
-26.52
-34.86
-40.57
-41.91
-37.77
-28.06
-13.74
3.48
21.56
38.68
53.49
65.23
73.62
78.83
81.30
81.66
80.44
77.89
73.86
67.92
59.72
49.33
37.44
25.18
13.73
3.83
-4.41
-11.35
-17.47
-22.94
-27.40
-30.12
-30.31
-27.46
-21.59
-13.17
-2.98
8.14
19.49
30.51
40.71
49.63
56.79
61.81
64.49
64.98
63.72
61.36
58.50
55.55
52.65
49.70
46.59
43.21
39.68
36.16
32.84
29.79
26.94
24.12
21.12
17.74
13.92
9.73
5.42
1.36
-2.13
-4.84
-6.85
-8.51
-10.36
-12.89
-16.35
-20.55
-24.80
-27.96
-28.63
-25.48
-17.50
-4.26
13.92
35.95
60.10
84.29
106.42
124.73
138.08
146.13
149.20
148.17
144.13
138.14
131.06
123.48
115.75
108.00
100.17
92.01
83.14
73.25
62.28
50.63
39.12
28.72
20.21
13.81
9.06
4.99
0.59
-4.87
-11.55
-19.08
-26.96
-34.83
-42.79
-51.27
-60.78
-71.51
-83.03
-94.22
-103.59
-109.70
-111.66
-109.36
-103.41
-94.79
-84.46
-73.09
-60.99
-48.35
-35.39
-22.51
-10.27
0.73
9.98
17.09
21.81
24.07
23.98
21.92
18.55
14.70
11.10
8.23
6.14
4.46
2.64
0.09
-3.67
-8.92
-15.69
-23.82
-32.92
-42.46
-51.82
-60.40
-67.70
-73.37
-77.28
-79.40
-79.91
-79.17
-77.71
-76.11
-74.86
-74.20
-73.96
-73.68
-72.76
-70.55
-66.54
-60.37
-51.71
-40.38
-26.28
-9.68
8.67
27.55
45.46
60.97
73.07
81.46
86.47
88.88
89.57
89.18
88.03
86.11
83.22
79.11
73.59
66.52
57.87
47.67
36.04
23.14
9.17
-5.66
-21.16
-37.12
-53.41
-69.95
-86.72
-103.75
-120.98
-138.21
-155.04
-171.02
-185.75
-199.03
-210.68
-220.40
-227.57
-231.28
-230.67
-225.35
-215.59
-202.27
-186.41
-168.88
-150.22
-130.86
-111.37
-92.48
-74.91
-59.07
-44.86
-31.82
-19.34
-6.94
5.83
19.55
35.06
53.33
74.89
99.46
125.71
151.53
174.78
193.86
208.08
217.48
222.47
223.20
219.43
210.54
196.02
175.99
151.59
124.75
97.67
72.09
48.79
27.70
8.28
-9.78
-26.28
-40.51
-51.54
-58.73
-61.82
-60.98
-56.60
-49.16
-39.31
-27.81
-15.65
-3.88
6.58
15.07
21.29
25.24
27.20
27.60
27.06
26.25
25.83
26.29
27.85
30.33
33.20
35.66
36.89
36.32
33.79
29.62
24.42
18.92
13.67
8.90
4.55
0.27
-4.38
-9.81
-16.27
-23.70
-31.71
-39.56
-46.42
-51.46
-54.08
-54.02
-51.33
-46.32
-39.50
-31.35
-22.19
-12.04
-0.57
12.63
27.65
43.91
59.98
73.93
83.87
88.71
88.40
83.99
77.06
69.03
60.81
52.64
44.41
35.97
27.36
18.76
10.41
2.35
-5.62
-13.79
-22.37
-31.35
-40.49
-49.51
-58.26
-66.82
-75.49
-84.45
-93.66
-102.67
-110.73
-116.87
-120.27
-120.27
-116.63
-109.52
-99.54
-87.57
-74.60
-61.51
-48.88
-36.98
-25.95
-15.95
-7.26
-0.19
5.12
8.89
11.64
14.03
16.53
19.20
21.72
23.65
24.71
25.00
24.88
24.81
25.02
25.40
25.52
24.79
22.71
19.07
13.97
7.82
1.10
-5.70
-12.35
-18.86
-25.47
-32.49
-40.22
-48.74
-57.97
-67.60
-77.10
-85.79
-92.84
-97.43
-98.79
-96.49
-90.52
-81.20
-69.17
-54.97
-38.89
-20.87
-0.96
20.08
40.28
56.74
66.49
67.85
61.37
49.78
36.91
26.19
19.44
16.69
16.85
18.77
21.89
26.19
31.61
37.49
42.53
45.28
44.91
41.59
36.38
30.66
25.57
21.41
17.62
13.09
6.68
-2.27
-13.59
-26.32
-39.03
-50.20
-58.59
-63.40
-64.20
-60.86
-53.44
-42.23
-27.79
-11.04
6.82
24.58
41.20
56.13
69.26
80.70
90.55
98.68
104.85
108.89
111.01
111.75
111.77
111.54
111.04
109.80
107.22
103.00
97.34
90.88
84.32
78.04
71.97
65.70
58.80
51.17
43.05
34.84
26.78
18.70
10.04
0.07
-11.73
-25.28
-39.82
-54.01
-66.22
-74.99
-79.37
-79.10
-74.61
-66.81
-56.85
-45.75
-34.27
-22.95
-12.09
-2.06
6.76
13.88
18.92
21.70
22.33
21.20
18.85
15.81
12.46
8.98
5.41
1.70
-2.06
-5.74
-9.18
-12.33
-15.32
-18.48
-22.12
-26.37
-31.11
-35.95
-40.46
-44.34
-47.53
-50.27
-53.01
-56.24
-60.32
-65.25
-70.60
-75.48
-78.75
-79.31
-76.52
-70.34
-61.40
-50.67
-39.19
-27.76
-16.79
-6.33
3.85
13.95
24.04
33.81
42.62
49.75
54.68
57.35
58.20
57.98
57.37
56.83
56.48
56.34
56.42
56.80
57.40
57.80
57.28
54.92
50.18
43.15
34.72
26.25
19.04
13.85
10.61
8.63
6.87
4.40
0.66
-4.37
-10.22
-16.01
-20.59
-22.79
-21.73
-16.99
-8.73
2.44
15.75
30.59
46.53
63.28
80.37
97.01
112.19
124.94
134.72
141.48
145.57
147.54
147.93
147.25
146.09
145.23
145.56
147.88
152.65
159.80
168.72
178.51
188.13
196.64
203.23
207.10
207.45
203.60
195.03
181.65
163.69
141.40
114.65
82.73
44.65
-0.04
-50.16
-102.46
-152.03
-193.80
-224.24
-242.54
-250.56
-251.70
-249.28
-245.37
-240.66
-235.02
-228.49
-221.92
-216.94
-215.26
-218.13
-225.76
-237.32
-250.98
-264.26
-274.49
-279.32
-277.31
-268.36
-253.73
-235.46
-215.87
-196.68
-178.72
-161.95
-145.78
-129.57
-113.05
-96.74
-81.86
-70.10
-62.86
-60.43
-61.44
-62.85
-60.76
-51.67
-33.50
-5.88
30.12
72.62
119.44
168.20
216.32
261.02
299.79
330.87
353.63
368.57
376.94
380.20
379.65
376.24
370.49
362.48
351.89
338.08
320.43
298.60
272.85
244.14
214.17
185.17
159.47
138.86
123.81
113.13
104.16
93.62
78.67
57.84
31.27
0.23
-33.56
-68.43
-102.94
-135.79
-165.80
-192.20
-214.81
-234.22
-251.33
-266.78
-280.55
-291.90
-299.80
-303.42
-302.48
-297.17
-288.02
-275.57
-260.32
-242.78
-223.49
-203.07
-182.13
-161.21
-140.77
-121.18
-102.72
-85.55
-69.65
-54.87
-40.93
-27.59
-14.69
-2.17
9.91
21.36
31.89
41.09
48.53
53.88
56.95
57.82
56.63
53.58
48.82
42.53
34.92
26.35
17.14
7.59
-2.20
-12.19
-22.34
-32.46
-42.31
-51.66
-60.50
-69.00
-77.23
-84.87
-91.06
-94.50
-93.88
-88.44
-78.17
-63.65
-45.74
-25.31
-3.48
18.15
37.34
51.71
59.54
60.71
56.85
50.77
45.20
41.77
40.59
40.72
41.06
41.10
40.95
41.04
41.44
41.73
41.12
38.99
35.21
30.24
24.81
19.71
15.27
11.44
7.77
3.73
-1.06
-6.69
-13.01
-19.78
-26.78
-33.90
-41.09
-48.10
-54.40
-59.14
-61.37
-60.32
-55.68
-47.73
-37.25
-25.29
-12.88
-0.82
10.35
20.29
28.70
35.36
40.03
42.66
43.38
42.63
41.01
39.15
37.56
36.56
36.18
36.30
36.67
37.01
37.09
36.69
35.67
33.85
31.11
27.29
22.34
16.30
9.39
1.88
-6.01
-14.30
-23.20
-32.99
-43.74
-55.07
-66.04
-75.38
-81.80
-84.41
-82.93
-77.73
-69.60
-59.50
-48.18
-36.20
-23.77
-10.96
2.10
15.25
28.37
41.47
54.54
67.28
78.80
87.72
92.69
93.13
89.78
84.57
80.00
77.93
78.99
82.38
86.54
90.00
92.00
92.55
92.09
90.88
88.67
84.80
78.50
69.38
57.73
44.52
31.21
19.10
8.99
0.93
-5.61
-11.22
-16.23
-20.55
-23.81
-25.77
-26.49
-26.15
-24.72
-21.90
-17.52
-12.09
-7.25
-5.41
-8.78
-18.11
-31.91
-46.83
-58.92
-65.32
-65.30
-60.18
-52.34
-43.94
-36.13
-28.98
-22.02
-14.89
-7.70
-1.10
4.18
7.68
9.49
10.33
11.07
12.25
13.71
14.40
12.73
7.24
-2.82
-17.02
-33.91
-51.41
-67.43
-80.42
-89.64
-95.15
-97.49
-97.36
-95.23
-91.21
-85.06
-76.44
-65.20
-51.54
-36.01
-19.32
-2.26
14.49
30.21
44.10
55.28
62.93
66.62
66.49
63.38
58.74
54.34
51.92
52.70
57.22
65.20
75.91
88.48
102.38
117.51
133.94
151.59
169.83
187.49
203.15
215.62
224.18
228.69
229.31
226.20
219.55
209.83
198.16
186.34
176.50
170.30
168.27
169.51
171.90
172.77
169.66
160.98
146.27
126.24
102.57
77.41
52.92
30.80
11.91
-3.73
-16.76
-27.96
-37.90
-46.70
-54.20
-60.25
-64.95
-68.82
-72.59
-76.96
-82.33
-88.63
-95.44
-102.20
-108.51
-114.34
-119.99
-125.89
-132.44
-139.88
-148.27
-157.56
-167.41
-177.12
-185.51
-191.08
-192.42
-188.68
-179.83
-166.69
-150.55
-132.70
-114.17
-95.74
-78.09
-61.96
-48.15
-37.27
-29.56
-24.69
-21.95
-20.53
-19.81
-19.51
-19.66
-20.39
-21.77
-23.73
-26.11
-28.75
-31.62
-34.77
-38.30
-42.24
-46.56
-51.12
-55.82
-60.64
-65.66
-70.98
-76.70
-82.74
-88.89
-94.77
-99.87
-103.51
-105.00
-103.62
-98.83
-90.25
-77.86
-61.94
-43.03
-21.93
0.46
23.06
44.58
63.59
78.66
88.66
93.13
92.51
88.09
81.74
75.32
70.27
67.45
67.32
70.22
76.53
86.55
100.17
116.51
133.94
150.36
163.67
172.25
175.28
172.63
164.86
152.94
138.15
121.89
105.35
89.34
74.11
59.51
45.21
31.08
17.24
4.06
-8.24
-19.72
-30.77
-41.99
-53.77
-66.08
-78.31
-89.41
-98.15
-103.37
-104.27
-100.61
-92.75
-81.54
-68.23
-54.05
-40.04
-26.81
-14.54
-3.19
7.35
17.07
25.76
33.17
39.08
43.41
46.19
47.46
47.22
45.37
41.85
36.72
30.26
22.99
15.61
8.76
2.95
-1.68
-5.34
-8.57
-12.01
-16.20
-21.38
-27.36
-33.63
-39.62
-44.91
-49.42
-53.40
-57.31
-61.59
-66.48
-71.99
-77.89
-83.71
-88.79
-92.29
-93.30
-91.00
-85.05
-75.65
-63.60
-50.00
-35.99
-22.36
-9.58
2.14
12.61
21.54
28.52
33.21
35.50
35.62
34.11
31.67
28.96
26.42
24.23
22.36
20.64
18.96
17.27
15.58
13.92
12.17
10.14
7.64
4.58
1.09
-2.56
-6.07
-9.30
-12.28
-15.15
-18.13
-21.43
-25.24
-29.77
-35.28
-41.92
-49.55
-57.63
-65.17
-70.90
-73.66
-72.64
-67.64
-59.09
-47.85
-34.99
-21.62
-8.70
3.04
13.12
21.29
27.63
32.36
35.80
38.25
39.93
41.03
41.77
42.42
43.17
44.02
44.68
44.66
43.54
41.17
37.82
33.97
30.12
26.53
23.12
19.61
15.72
11.32
6.43
1.15
-4.49
-10.47
-16.83
-23.50
-30.34
-37.11
-43.59
-49.52
-54.68
-58.76
-61.37
-62.03
-60.20
-55.56
-48.07
-38.13
-26.50
-14.12
-1.86
9.60
19.86
28.73
36.09
41.87
45.98
48.48
49.50
49.27
48.05
46.03
43.36
40.17
36.67
33.12
29.75
26.66
23.77
20.86
17.67
14.04
9.97
5.52
0.85
-3.99
-8.98
-14.07
-19.18
-24.16
-28.88
-33.36
-37.76
-42.36
-47.36
-52.74
-58.06
-62.58
-65.37
-65.66
-62.99
-57.46
-49.57
-40.16
-30.14
-20.27
-11.11
-2.94
4.11
9.93
14.25
16.68
16.70
13.98
8.56
1.03
-7.59
-16.10
-23.60
-29.81
-35.15
-40.56
-47.02
-55.04
-64.43
-74.13
-82.51
-87.78
-88.51
-84.26
-75.99
-66.05
-57.74
-54.37
-58.30
-70.07
-87.99
-108.30
-125.95
-135.74
-133.75
-118.35
-90.48
-53.03
-9.76
36.00
81.90
126.52
168.79
207.40
240.84
267.97
288.61
303.72
314.69
322.52
327.02
327.02
320.91
307.48
286.27
257.68
222.74
183.00
140.61
98.18
58.34
23.12
-6.64
-31.38
-52.23
-70.28
-85.85
-98.58
-107.94
-113.90
-117.25
-119.23
-120.91
-122.56
-123.57
-122.90
-119.63
-113.45
-104.75
-94.29
-82.90
-71.07
-59.09
-47.02
-34.93
-23.01
-11.52
-0.80
8.77
16.84
23.16
27.73
30.74
32.44
32.93
32.15
30.09
27.02
23.79
21.69
21.86
24.65
29.24
33.72
35.89
34.14
28.02
18.32
6.56
-5.74
-17.56
-28.44
-38.37
-47.42
-55.61
-62.80
-68.82
-73.47
-76.54
-77.80
-76.97
-73.83
-68.28
-60.39
-50.42
-38.81
-26.14
-13.14
-0.60
10.67
20.06
27.21
32.09
34.93
36.07
35.91
34.73
32.77
30.12
26.83
22.86
18.14
12.73
6.82
0.77
-4.97
-10.07
-14.47
-18.37
-22.12
-26.08
-30.36
-34.79
-39.01
-42.69
-45.62
-47.78
-49.35
-50.51
-51.39
-52.00
-52.21
-51.85
-50.62
-48.07
-43.73
-37.14
-28.05
-16.61
-3.43
10.57
24.38
37.17
48.37
57.63
64.73
69.60
72.25
73.00
72.27
70.63
68.53
66.25
63.94
61.59
59.15
56.52
53.50
49.86
45.49
40.43
35.05
29.80
25.00
20.61
16.27
11.47
5.87
-0.49
-7.25
-13.94
-20.16
-25.75
-30.84
-35.68
-40.58
-45.78
-51.28
-56.80
-61.76
-65.35
-66.81
-65.63
-61.69
-55.22
-46.66
-36.56
-25.47
-13.94
-2.65
7.69
16.40
23.07
27.57
30.16
31.29
31.42
30.89
29.88
28.44
26.62
24.56
22.42
20.36
18.34
16.13
13.41
9.95
5.86
1.63
-1.99
-4.32
-5.01
-4.25
-2.65
-1.00
0.01
-0.01
-1.20
-3.50
-6.79
-10.94
-15.80
-21.08
-26.40
-31.22
-34.99
-37.23
-37.65
-36.17
-32.90
-28.12
-22.17
-15.40
-8.15
-0.77
6.42
13.08
18.91
23.59
26.96
29.01
29.83
29.66
28.76
27.37
25.67
23.78
21.77
19.72
17.78
16.10
14.78
13.82
13.06
12.23
11.05
9.27
6.81
3.70
0.07
-3.93
-8.13
-12.39
-16.57
-20.57
-24.37
-28.05
-31.79
-35.80
-40.19
-44.92
-49.76
-54.28
-57.96
-60.25
-60.67
-58.90
-54.82
-48.58
-40.54
-31.28
-21.47
-11.78
-2.82
4.94
11.26
16.11
19.70
22.45
24.86
27.40
30.37
33.71
37.06
39.89
41.78
42.61
42.65
42.42
42.43
42.89
43.60
44.04
43.63
42.01
39.19
35.44
31.10
26.47
21.61
16.51
11.11
5.52
-0.04
-5.25
-9.84
-13.75
-17.09
-20.04
-22.68
-24.83
-26.08
-25.94
-24.05
-20.39
-15.33
-9.56
-3.80
1.32
5.47
8.45
10.27
10.97
10.67
9.47
7.58
5.18
2.40
-0.65
-3.99
-7.59
-11.40
-15.31
-19.18
-22.84
-26.20
-29.24
-31.94
-34.33
-36.38
-38.04
-39.17
-39.69
-39.55
-38.93
-38.19
-37.83
-38.23
-39.46
-41.11
-42.42
-42.49
-40.54
-36.23
-29.68
-21.39
-12.02
-2.29
7.19
15.95
23.59
29.87
34.63
37.81
39.55
40.07
39.70
38.73
37.39
35.73
33.67
31.17
28.28
25.12
21.89
18.70
15.56
12.37
9.03
5.53
1.92
-1.77
-5.50
-9.28
-13.08
-16.84
-20.43
-23.83
-27.05
-30.18
-33.17
-35.78
-37.55
-37.94
-36.53
-33.15
-27.94
-21.23
-13.53
-5.41
2.55
9.76
15.72
20.02
22.50
23.11
22.01
19.41
15.62
10.98
5.80
0.43
-4.80
-9.54
-13.45
-16.25
-17.84
-18.43
-18.50
-18.71
-19.52
-21.08
-23.08
-24.94
-26.16
-26.48
-25.97
-24.93
-23.66
-22.33
-21.04
-19.88
-19.02
-18.67
-18.84
-19.24
-19.21
-17.97
-14.94
-9.93
-3.20
4.70
13.29
22.28
31.55
40.98
50.20
58.54
65.25
69.73
71.92
72.28
71.61
70.71
70.08
69.78
69.56
69.08
68.11
66.53
64.33
61.47
57.86
53.42
48.29
42.79
37.40
32.55
28.44
24.93
21.66
18.17
14.14
9.37
3.82
-2.52
-9.64
-17.51
-25.91
-34.38
-42.21
-48.56
-52.59
-53.69
-51.59
-46.43
-38.79
-29.61
-19.95
-10.81
-2.83
3.75
9.10
13.60
17.64
21.40
24.97
28.31
31.37
34.18
36.72
38.93
40.77
42.18
43.22
43.94
44.39
44.39
43.61
41.61
38.04
32.89
26.61
20.02
14.06
9.44
6.19
3.61
0.45
-4.65
-12.47
-22.90
-34.97
-47.24
-58.30
-67.10
-73.09
-75.98
-75.63
-72.01
-65.35
-56.31
-45.93
-35.35
-25.49
-16.72
-8.90
-1.68
5.14
11.34
16.33
19.37
19.99
18.23
14.55
9.72
4.50
-0.47
-4.77
-8.14
-10.49
-12.04
-13.34
-15.20
-18.40
-23.44
-30.26
-38.34
-46.93
-55.39
-63.43
-71.13
-78.83
-86.80
-94.97
-102.79
-109.24
-113.13
-113.31
-109.08
-100.25
-87.09
-70.12
-50.13
-28.04
-5.01
17.57
38.23
55.57
68.61
76.96
80.91
81.51
80.36
79.39
80.33
84.25
91.05
99.51
107.65
113.43
115.57
113.84
108.94
101.93
93.61
84.22
73.45
60.83
46.19
30.04
13.43
-2.32
-16.14
-27.68
-37.38
-46.28
-55.55
-65.84
-76.88
-87.38
-95.37
-98.73
-96.00
-86.90
-72.46
-54.79
-36.44
-19.76
-6.39
2.99
8.54
11.13
12.17
13.36
16.41
22.61
32.31
44.67
57.68
68.81
75.73
77.18
73.28
65.42
55.65
45.94
37.65
31.16
26.05
21.48
16.62
11.06
4.88
-1.42
-7.32
-12.52
-17.10
-21.46
-26.06
-31.28
-37.33
-44.32
-52.25
-61.05
-70.38
-79.45
-87.04
-91.64
-91.88
-86.99
-77.17
-63.61
-48.18
-32.91
-19.45
-8.71
-0.79
4.76
8.70
11.80
14.76
18.06
21.89
26.12
30.21
33.36
34.81
34.19
31.69
28.05
24.24
21.05
18.87
17.53
16.58
15.45
13.77
11.43
8.44
4.93
1.01
-3.27
-7.83
-12.57
-17.41
-22.47
-27.95
-34.13
-41.04
-48.31
-55.12
-60.35
-62.98
-62.39
-58.47
-51.51
-42.01
-30.44
-17.29
-3.13
11.22
24.68
36.13
44.63
49.69
51.37
50.23
47.17
43.30
39.70
37.33
36.80
38.35
41.83
46.64
51.90
56.59
59.64
60.23
57.85
52.60
45.13
36.62
28.29
21.10
15.43
10.98
7.00
2.62
-2.82
-9.66
-17.76
-26.60
-35.24
-42.53
-47.28
-48.61
-46.23
-40.50
-32.38
-23.06
-13.64
-4.96
2.56
8.81
13.84
17.77
20.64
22.30
22.50
21.14
18.39
14.94
11.79
9.85
9.64
11.14
13.97
17.52
21.06
23.56
23.83
20.73
13.84
3.91
-7.15
-16.87
-23.27
-25.74
-25.19
-23.58
-22.85
-24.22
-28.00
-33.87
-41.35
-50.00
-59.24
-68.14
-75.24
-78.92
-77.97
-71.91
-61.51
-48.47
-34.95
-22.88
-13.39
-6.55
-1.57
2.71
7.27
12.36
17.55
21.89
24.48
24.83
23.14
20.13
16.71
13.60
11.16
9.45
8.39
8.04
8.50
9.86
12.00
14.54
16.88
18.44
18.89
18.16
16.48
14.16
11.40
8.19
4.34
-0.42
-6.25
-13.00
-20.17
-26.88
-32.05
-34.56
-33.38
-27.84
-17.64
-2.99
15.34
36.00
57.21
76.94
93.33
105.04
111.41
112.67
109.72
103.92
96.75
89.59
83.36
78.42
74.58
71.24
67.70
63.40
58.10
51.93
45.14
38.00
30.62
23.05
15.26
7.32
-0.63
-8.49
-16.28
-24.19
-32.49
-41.46
-51.26
-61.89
-73.16
-84.78
-96.34
-107.39
-117.44
-126.06
-132.86
-137.53
-139.79
-139.28
-135.61
-128.44
-117.64
-103.34
-86.01
-66.59
-46.39
-27.06
-10.29
2.59
11.03
15.59
17.69
19.15
21.39
24.97
29.38
33.58
36.53
37.78
37.63
36.83
36.08
35.65
35.19
33.92
31.03
26.06
19.12
10.99
2.75
-4.63
-10.76
-15.99
-21.36
-28.06
-36.73
-47.23
-58.43
-68.71
-76.50
-80.54
-79.94
-73.88
-61.74
-43.61
-20.99
3.07
24.60
40.09
47.99
49.18
46.38
42.64
39.95
38.72
38.25
37.79
37.23
37.13
38.04
39.88
41.76
42.48
41.24
38.15
34.13
30.40
27.92
26.81
26.36
25.39
22.81
18.09
11.53
4.01
-3.36
-9.82
-15.29
-20.35
-25.96
-33.02
-41.91
-52.28
-63.08
-72.84
-80.02
-83.47
-82.65
-77.71
-69.20
-57.99
-44.92
-30.68
-15.90
-1.00
13.75
28.33
42.70
56.53
68.86
78.16
82.88
82.18
76.60
67.96
58.74
50.99
45.61
42.23
39.75
37.18
34.17
30.95
27.86
24.88
21.49
16.92
10.71
3.01
-5.42
-13.55
-20.49
-26.00
-30.47
-34.75
-39.78
-46.17
-53.93
-62.38
-70.35
-76.49
-79.65
-79.11
-74.77
-67.09
-56.85
-45.03
-32.50
-20.03
-8.24
2.29
11.04
17.63
21.90
24.05
24.63
24.37
23.95
23.83
24.14
24.72
25.32
25.78
26.14
26.60
27.35
28.40
29.47
30.03
29.59
27.88
25.05
21.63
18.27
15.48
13.35
11.44
9.11
5.51
0.10
-7.31
-16.46
-26.62
-36.50
-44.36
-48.38
-47.28
-40.99
-30.79
-18.98
-7.87
1.17
8.18
14.29
20.86
28.61
37.18
45.48
52.36
57.24
60.32
62.24
63.62
64.67
65.19
64.81
63.32
60.82
57.63
54.26
50.99
47.78
44.33
40.19
35.09
29.08
22.59
16.22
10.58
5.95
2.27
-0.80
-3.73
-6.91
-10.59
-14.91
-19.91
-25.59
-31.85
-38.37
-44.61
-49.80
-53.18
-54.17
-52.54
-48.44
-42.31
-34.72
-26.26
-17.43
-8.67
-0.35
7.17
13.64
18.91
23.01
26.14
28.58
30.66
32.57
34.36
35.89
36.90
37.12
36.38
34.68
32.21
29.28
26.18
23.09
19.93
16.52
12.56
7.82
2.25
-3.99
-10.55
-17.06
-23.22
-28.97
-34.51
-40.17
-46.16
-52.28
-57.91
-62.09
-63.75
-62.11
-56.75
-47.63
-34.98
-19.25
-1.36
17.20
34.44
48.34
57.54
61.87
62.36
60.70
58.50
56.61
55.07
53.42
51.22
48.41
45.22
41.97
38.76
35.38
31.48
26.82
21.41
15.45
9.28
3.23
-2.55
-8.09
-13.58
-19.24
-25.32
-31.91
-39.04
-46.50
-53.91
-60.66
-66.04
-69.32
-69.92
-67.61
-62.50
-55.05
-45.85
-35.54
-24.68
-13.69
-3.00
6.96
15.73
22.90
28.22
31.64
33.41
33.87
33.45
32.47
31.09
29.38
27.36
25.07
22.64
20.20
17.83
15.53
13.20
10.72
7.96
4.86
1.40
-2.39
-6.45
-10.75
-15.30
-20.16
-25.50
-31.45
-38.04
-44.98
-51.65
-57.13
-60.46
-60.92
-58.25
-52.67
-44.81
-35.40
-25.12
-14.47
-3.76
6.77
16.85
26.16
34.36
41.19
46.52
50.45
53.27
55.32
56.86
57.95
58.46
58.17
56.93
54.82
52.11
49.22
46.40
43.72
40.93
37.62
33.45
28.31
22.43
16.23
10.19
4.58
-0.61
-5.65
-10.91
-16.78
-23.42
-30.78
-38.49
-45.94
-52.34
-56.85
-58.83
-57.95
-54.29
-48.27
-40.43
-31.30
-21.26
-10.61
0.36
11.27
21.63
30.90
38.70
44.81
49.30
52.41
54.41
55.53
55.86
55.39
54.11
52.10
49.61
46.91
44.25
41.68
39.08
36.16
32.70
28.58
23.89
18.87
13.76
8.75
3.88
-0.98
-5.99
-11.30
-16.93
-22.79
-28.80
-34.93
-41.24
-47.84
-54.59
-61.07
-66.52
-70.05
-70.96
-68.95
-64.25
-57.40
-49.03
-39.63
-29.51
-18.93
-8.26
1.96
11.06
18.47
23.93
27.59
29.95
31.62
33.14
34.67
36.12
37.17
37.53
37.09
35.97
34.44
32.77
31.07
29.28
27.22
24.73
21.72
18.25
14.44
10.43
6.36
2.27
-1.81
-5.93
-10.20
-14.75
-19.66
-24.93
-30.34
-35.45
-39.62
-42.23
-42.79
-41.05
-37.11
-31.29
-24.04
-15.86
-7.23
1.45
9.78
17.41
24.04
29.43
33.47
36.20
37.78
38.46
38.48
38.05
37.28
36.22
34.88
33.35
31.76
30.27
28.93
27.63
26.07
23.84
20.59
16.20
10.80
4.81
-1.34
-7.29
-12.97
-18.57
-24.43
-30.81
-37.73
-44.92
-51.77
-57.59
-61.71
-63.68
-63.33
-60.76
-56.18
-49.92
-42.31
-33.71
-24.58
-15.42
-6.74
1.01
7.50
12.62
16.41
19.03
20.70
21.58
21.78
21.35
20.32
18.83
17.09
15.38
13.92
12.76
11.79
10.70
9.15
6.91
3.85
0.05
-4.36
-9.18
-14.19
-19.21
-24.07
-28.71
-33.16
-37.58
-42.18
-47.19
-52.66
-58.42
-64.01
-68.75
-71.88
-72.81
-71.24
-67.22
-61.11
-53.39
-44.55
-35.04
-25.25
-15.61
-6.48
1.76
8.92
14.95
19.90
23.94
27.18
29.72
31.66
33.07
34.05
34.66
34.93
34.90
34.57
33.98
33.15
32.02
30.53
28.57
26.06
22.98
19.38
15.37
11.07
6.65
2.25
-1.99
-6.05
-9.99
-14.05
-18.48
-23.46
-28.90
-34.38
-39.22
-42.61
-43.78
-42.20
-37.76
-30.76
-21.88
-11.97
-1.86
7.82
16.77
24.89
32.20
38.60
43.87
47.74
50.06
50.93
50.74
50.03
49.25
48.61
48.01
47.15
45.72
43.55
40.77
37.64
34.42
31.21
27.88
24.12
19.68
14.53
8.84
3.01
-2.63
-7.91
-12.85
-17.57
-22.22
-26.79
-31.26
-35.62
-39.89
-44.14
-48.30
-52.08
-54.94
-56.30
-55.69
-53.01
-48.52
-42.70
-36.06
-28.96
-21.53
-13.82
-5.98
1.65
8.64
14.54
19.14
22.50
24.86
26.47
27.47
27.85
27.56
26.64
25.26
23.68
22.04
20.39
18.56
16.34
13.59
10.33
6.72
2.99
-0.67
-4.17
-7.54
-10.89
-14.38
-18.16
-22.40
-27.17
-32.40
-37.80
-42.87
-46.97
-49.49
-50.04
-48.52
-45.08
-40.07
-33.84
-26.70
-18.91
-10.76
-2.58
5.25
12.33
18.35
23.14
26.66
29.02
30.40
30.96
30.84
30.13
28.90
27.27
25.36
23.31
21.21
19.08
16.87
14.48
11.81
8.85
5.62
2.16
-1.46
-5.14
-8.82
-12.42
-15.93
-19.50
-23.37
-27.82
-33.03
-38.90
-44.94
-50.38
-54.29
-55.93
-54.96
-51.49
-46.04
-39.25
-31.68
-23.66
-15.32
-6.75
1.84
10.03
17.29
23.20
27.59
30.60
32.59
33.91
34.77
35.20
35.13
34.51
33.44
32.11
30.76
29.54
28.44
27.31
25.99
24.30
22.18
19.60
16.56
13.16
9.49
5.72
1.97
-1.72
-5.44
-9.39
-13.79
-18.76
-24.23
-29.98
-35.64
-40.73
-44.81
-47.40
-48.13
-46.78
-43.43
-38.34
-31.99
-24.88
-17.38
-9.70
-1.99
5.55
12.61
18.80
23.81
27.53
30.13
31.92
33.23
34.21
34.86
35.02
34.57
33.47
31.85
29.91
27.87
25.83
23.71
21.35
18.49
15.00
10.92
6.50
2.14
-1.79
-5.16
-8.08
-10.91
-14.10
-17.98
-22.71
-28.21
-34.15
-40.08
-45.38
-49.43
-51.68
-51.79
-49.69
-45.60
-39.99
-33.37
-26.20
-18.84
-11.54
-4.48
2.13
8.09
13.23
17.47
20.88
23.62
25.91
27.94
29.78
31.35
32.44
32.84
32.38
31.01
28.74
25.63
21.80
17.33
12.38
7.12
1.71
-3.73
-9.19
-14.73
-20.48
-26.51
-32.86
-39.49
-46.26
-52.95
-59.25
-64.68
-68.71
-70.84
-70.74
-68.36
-64.01
-58.23
-51.58
-44.48
-37.07
-29.29
-21.02
-12.35
-3.62
4.61
11.75
17.43
21.66
24.73
27.04
28.85
30.16
30.78
30.57
29.63
28.33
27.15
26.38
25.93
25.28
23.80
21.06
17.13
12.48
7.86
3.80
0.45
-2.54
-5.83
-9.99
-15.40
-21.95
-29.11
-36.00
-41.55
-44.54
-43.77
-38.41
-28.41
-14.81
0.43
14.99
27.03
35.87
42.12
47.12
52.17
57.85
63.91
69.62
74.39
78.12
81.14
83.91
86.69
89.42
91.96
94.32
96.81
99.94
104.03
109.06
114.37
118.77
120.85
119.45
113.99
104.72
92.66
79.19
65.63
52.91
41.30
30.61
20.43
10.47
0.77
-8.30
-16.15
-22.20
-26.13
-27.96
-28.03
-26.84
-24.86
-22.44
-19.79
-17.13
-14.77
-13.08
-12.42
-12.90
-14.32
-16.14
-17.82
-18.89
-19.19
-18.83
-18.07
-17.08
-15.92
-14.47
-12.66
-10.50
-8.17
-5.94
-4.10
-2.87
-2.38
-2.71
-4.06
-6.69
-11.04
-17.45
-26.02
-36.44
-47.92
-59.31
-69.33
-76.86
-81.14
-81.88
-79.28
-73.90
-66.52
-57.90
-48.69
-39.32
-30.10
-21.28
-13.24
-6.43
-1.27
2.03
3.55
3.73
3.15
2.35
1.66
1.16
0.77
0.34
-0.30
-1.26
-2.68
-4.66
-7.29
-10.59
-14.49
-18.75
-23.03
-27.05
-30.61
-33.77
-36.81
-40.14
-44.13
-48.99
-54.61
-60.60
-66.31
-70.98
-73.84
-74.36
-72.19
-67.37
-60.24
-51.32
-41.19
-30.33
-19.11
-7.86
3.01
13.05
21.77
28.84
34.24
38.22
41.17
43.46
45.24
46.46
47.01
46.84
46.07
44.92
43.64
42.33
41.00
39.51
37.73
35.58
33.02
30.03
26.60
22.69
18.32
13.58
8.61
3.56
-1.53
-6.78
-12.42
-18.73
-25.83
-33.54
-41.38
-48.62
-54.47
-58.28
-59.65
-58.50
-55.02
-49.62
-42.81
-35.08
-26.89
-18.59
-10.49
-2.87
3.96
9.70
14.15
17.31
19.37
20.69
21.62
22.44
23.26
24.03
24.69
25.21
25.63
26.05
26.52
27.03
27.46
27.62
27.27
26.20
24.28
21.45
17.80
13.47
8.67
3.60
-1.50
-6.52
-11.42
-16.23
-21.16
-26.43
-32.21
-38.52
-45.09
-51.40
-56.72
-60.27
-61.43
-59.89
-55.68
-49.18
-41.04
-32.05
-22.93
-14.26
-6.36
0.59
6.52
11.37
15.07
17.52
18.79
19.07
18.73
18.12
17.50
16.89
16.14
15.10
13.74
12.27
11.07
10.53
10.82
11.85
13.19
14.28
14.60
13.79
11.75
8.55
4.41
-0.41
-5.68
-11.27
-17.13
-23.23
-29.62
-36.42
-43.80
-51.97
-61.04
-70.96
-81.25
-91.09
-99.31
-104.78
-106.66
-104.65
-99.02
-90.45
-79.71
-67.45
-54.07
-39.86
-25.20
-10.60
3.24
15.62
26.09
34.48
40.96
45.90
49.61
52.31
54.07
54.86
54.70
53.68
52.03
49.95
47.65
45.15
42.39
39.22
35.50
31.16
26.25
20.88
15.23
9.50
3.86
-1.50
-6.46
-11.00
-15.21
-19.30
-23.45
-27.82
-32.33
-36.74
-40.55
-43.07
-43.48
-40.98
-35.06
-25.62
-13.13
1.60
17.62
34.14
50.65
66.78
82.05
95.70
106.79
114.45
118.24
118.35
115.56
110.87
105.17
99.03
92.73
86.32
79.86
73.47
67.32
61.60
56.43
51.84
47.72
43.85
39.90
35.53
30.52
24.78
18.44
11.73
4.82
-2.24
-9.57
-17.35
-25.66
-34.26
-42.65
-50.02
-55.60
-58.74
-59.19
-57.04
-52.71
-46.78
-39.80
-32.24
-24.43
-16.65
-9.12
-2.11
4.12
9.37
13.47
16.39
18.14
18.80
18.45
17.22
15.29
12.95
10.53
8.32
6.50
5.01
3.60
1.90
-0.46
-3.73
-7.98
-13.11
-18.89
-25.01
-31.18
-37.18
-42.99
-48.79
-54.85
-61.35
-68.17
-74.78
-80.31
-83.86
-84.81
-83.06
-78.99
-73.30
-66.62
-59.37
-51.73
-43.76
-35.63
-27.68
-20.37
-14.10
-9.06
-5.20
-2.29
-0.06
1.70
3.09
4.17
5.02
5.75
6.49
7.27
8.01
8.47
8.36
7.48
5.79
3.39
0.55
-2.49
-5.53
-8.56
-11.69
-15.18
-19.25
-23.94
-28.93
-33.56
-36.93
-38.20
-36.81
-32.67
-26.13
-17.84
-8.53
1.13
10.64
19.60
27.72
34.75
40.49
44.79
47.61
49.01
49.15
48.21
46.41
43.94
40.94
37.48
33.62
29.44
25.03
20.56
16.13
11.80
7.50
3.10
-1.53
-6.43
-11.54
-16.75
-21.99
-27.37
-33.10
-39.38
-46.10
-52.80
-58.54
-62.24
-62.92
-60.05
-53.73
-44.58
-33.54
-21.58
-9.49
2.25
13.36
23.65
32.90
40.89
47.45
52.48
56.07
58.42
59.71
60.09
59.53
57.95
55.26
51.52
46.89
41.68
36.16
30.55
24.99
19.49
14.08
8.76
3.64
-1.21
-5.72
-9.89
-13.84
-17.78
-21.96
-26.53
-31.43
-36.29
-40.46
-43.14
-43.67
-41.68
-37.23
-30.75
-22.85
-14.15
-5.09
4.03
12.95
21.37
28.88
35.01
39.40
41.87
42.58
41.97
40.59
38.98
37.50
36.30
35.35
34.51
33.67
32.69
31.46
29.86
27.78
25.19
22.09
18.62
14.93
11.17
7.42
3.70
-0.11
-4.19
-8.74
-13.94
-19.84
-26.29
-32.91
-39.05
-43.93
-46.74
-46.94
-44.32
-39.14
-31.94
-23.42
-14.14
-4.50
5.31
15.07
24.43
32.86
39.78
44.74
47.65
48.83
48.86
48.41
47.99
47.88
48.13
48.64
49.22
49.66
49.68
48.99
47.36
44.59
40.72
35.92
30.48
24.72
18.82
12.84
6.72
0.36
-6.31
-13.25
-20.40
-27.72
-35.13
-42.58
-49.83
-56.39
-61.59
-64.68
-65.15
-62.89
-58.28
-51.98
-44.63
-36.61
-27.96
-18.66
-8.80
1.19
10.67
18.89
25.37
29.97
32.94
34.78
36.11
37.48
39.30
41.70
44.53
47.43
50.01
51.98
53.28
53.96
54.06
53.56
52.38
50.60
48.49
46.44
44.67
43.10
41.22
38.30
33.69
27.06
18.45
8.17
-3.22
-15.03
-26.34
-36.17
-43.63
-48.16
-49.73
-48.91
-46.50
-43.31
-39.89
-36.43
-32.89
-29.18
-25.28
-21.28
-17.33
-13.55
-10.03
-6.79
-3.80
-1.04
1.54
3.98
6.37
8.80
11.34
14.07
16.99
20.08
23.22
26.28
29.06
31.36
32.96
33.68
33.39
32.05
29.76
26.67
23.01
18.93
14.48
9.66
4.53
-0.64
-5.39
-9.07
-11.15
-11.31
-9.59
-6.30
-1.83
3.47
9.35
15.58
21.85
27.67
32.52
35.93
37.70
37.94
36.93
35.04
32.56
29.65
26.39
22.87
19.22
15.53
11.85
8.12
4.19
-0.10
-4.82
-9.97
-15.47
-21.25
-27.28
-33.56
-40.16
-47.06
-54.17
-61.38
-68.58
-75.75
-82.87
-89.88
-96.54
-102.40
-106.90
-109.51
-109.93
-108.07
-104.01
-97.92
-89.98
-80.46
-69.77
-58.55
-47.59
-37.68
-29.37
-22.87
-18.06
-14.61
-12.16
-10.45
-9.28
-8.52
-8.02
-7.57
-6.97
-6.09
-4.95
-3.72
-2.63
-1.95
-1.86
-2.43
-3.63
-5.30
-7.30
-9.46
-11.69
-14.01
-16.49
-19.26
-22.43
-25.99
-29.86
-33.86
-37.73
-41.13
-43.70
-44.99
-44.62
-42.34
-38.08
-32.01
-24.45
-15.84
-6.67
2.59
11.48
19.56
26.49
32.06
36.22
39.11
41.00
42.24
43.14
43.90
44.61
45.19
45.46
45.25
44.50
43.25
41.60
39.66
37.49
35.08
32.36
29.36
26.08
22.62
19.06
15.41
11.67
7.75
3.62
-0.76
-5.41
-10.40
-15.74
-21.31
-26.77
-31.55
-34.96
-36.40
-35.54
-32.38
-27.26
-20.66
-13.12
-5.09
3.04
10.89
18.10
24.37
29.52
33.52
36.54
38.84
40.65
42.09
43.15
43.75
43.79
43.28
42.30
41.00
39.47
37.77
35.87
33.75
31.40
28.90
26.31
23.69
21.03
18.30
15.43
12.39
9.13
5.63
1.82
-2.39
-7.12
-12.44
-18.23
-24.19
-29.77
-34.33
-37.30
-38.34
-37.38
-34.67
-30.59
-25.52
-19.80
-13.70
-7.48
-1.47
3.98
8.59
12.20
14.85
16.67
17.90
18.78
19.50
20.17
20.84
21.47
21.92
22.04
21.62
20.51
18.56
15.72
12.05
7.78
3.29
-0.98
-4.61
-7.46
-9.61
-11.41
-13.22
-15.31
-17.76
-20.58
-23.68
-26.98
-30.29
-33.20
-35.15
-35.50
-33.79
-29.94
-24.26
-17.33
-9.77
-2.08
5.36
12.25
18.29
23.16
26.63
28.58
29.17
28.69
27.59
26.27
25.12
24.38
24.17
24.40
24.79
24.94
24.46
23.06
20.66
17.44
13.69
9.75
5.86
2.10
-1.58
-5.32
-9.32
-13.78
-18.83
-24.51
-30.64
-36.79
-42.30
-46.46
-48.64
-48.56
-46.28
-42.15
-36.65
-30.28
-23.41
-16.34
-9.33
-2.69
3.25
8.21
11.94
14.41
15.67
15.97
15.53
14.60
13.37
11.96
10.48
9.02
7.67
6.46
5.36
4.24
2.90
1.23
-0.83
-3.20
-5.79
-8.54
-11.55
-14.99
-19.04
-23.80
-29.20
-35.05
-41.06
-46.88
-52.07
-56.15
-58.64
-59.12
-57.41
-53.57
-47.86
-40.68
-32.41
-23.42
-14.10
-4.87
3.80
11.45
17.79
22.77
26.49
29.17
30.95
31.90
32.07
31.59
30.66
29.59
28.53
27.49
26.29
24.64
22.33
19.33
15.74
11.80
7.67
3.48
-0.70
-4.82
-8.81
-12.60
-16.20
-19.74
-23.47
-27.64
-32.36
-37.43
-42.33
-46.36
-48.82
-49.24
-47.50
-43.78
-38.45
-31.84
-24.22
-15.81
-6.86
2.27
11.14
19.22
26.08
31.43
35.18
37.37
38.17
37.74
36.26
33.88
30.78
27.17
23.35
19.63
16.21
13.20
10.48
7.76
4.74
1.22
-2.83
-7.23
-11.67
-15.84
-19.59
-22.98
-26.28
-29.82
-33.83
-38.23
-42.55
-46.02
-47.82
-47.31
-44.22
-38.72
-31.17
-21.99
-11.49
0.03
12.22
24.46
35.97
45.85
53.31
57.78
59.04
57.24
52.96
47.16
41.17
36.36
33.76
33.65
35.51
38.02
39.65
39.17
35.97
30.31
23.00
15.18
7.83
1.57
-3.58
-8.19
-13.21
-19.72
-28.50
-39.78
-52.98
-66.70
-78.96
-87.61
-90.85
-87.76
-78.54
-64.49
-47.60
-30.01
-13.48
0.98
13.08
23.05
31.30
38.20
43.98
48.80
52.80
56.19
59.21
62.14
65.23
68.65
72.36
76.09
79.36
81.56
82.12
80.73
77.42
72.51
66.53
60.03
53.47
47.37
42.31
39.00
38.17
40.36
45.73
54.03
64.70
77.11
90.79
105.34
120.33
135.07
148.56
159.57
166.95
169.87
168.08
161.86
151.91
139.18
124.67
109.21
93.53
78.13
63.40
49.56
36.67
24.66
13.30
2.33
-8.42
-18.86
-28.59
-37.02
-43.58
-48.03
-50.58
-51.94
-53.07
-54.90
-58.08
-62.80
-68.92
-76.13
-84.11
-92.78
-102.19
-112.49
-123.72
-135.63
-147.69
-159.06
-168.81
-175.94
-179.56
-179.03
-174.13
-165.30
-153.59
-140.58
-127.97
-117.12
-108.71
-102.75
-98.75
-96.13
-94.42
-93.41
-92.95
-92.93
-93.23
-93.71
-94.31
-94.87
-95.02
-94.08
-91.19
-85.60
-76.98
-65.53
-51.93
-37.01
-21.51
-5.99
9.15
23.43
36.24
46.78
54.34
58.57
59.64
58.29
55.54
52.35
49.37
46.79
44.56
42.60
41.05
40.15
40.20
41.28
43.14
45.34
47.40
48.97
49.91
50.23
49.99
49.26
48.03
46.27
43.92
40.97
37.51
33.75
30.04
26.72
24.05
22.12
20.76
19.68
18.58
17.21
15.50
13.45
11.13
8.58
5.83
2.88
-0.24
-3.51
-6.90
-10.44
-14.20
-18.16
-22.18
-25.88
-28.71
-30.09
-29.58
-27.08
-22.83
-17.31
-11.07
-4.61
1.71
7.63
12.87
17.20
20.41
22.44
23.39
23.58
23.39
23.15
23.03
23.03
23.00
22.84
22.45
21.92
21.32
20.72
20.11
19.42
18.50
17.23
15.57
13.54
11.20
8.63
5.83
2.84
-0.34
-3.72
-7.35
-11.28
-15.50
-19.84
-23.94
-27.22
-29.07
-29.02
-26.91
-22.89
-17.39
-10.93
-3.97
3.08
9.89
16.09
21.34
25.38
28.11
29.62
30.16
30.05
29.55
28.85
28.03
27.09
26.04
24.95
23.89
22.94
22.09
21.18
19.94
18.12
15.56
12.34
8.68
4.93
1.31
-2.08
-5.35
-8.69
-12.33
-16.44
-21.09
-26.24
-31.65
-36.91
-41.37
-44.35
-45.26
-43.83
-40.12
-34.53
-27.64
-20.09
-12.39
-4.96
1.91
8.01
13.18
17.25
20.18
21.97
22.77
22.84
22.45
21.86
21.21
20.55
19.82
18.97
17.96
16.70
15.09
12.95
10.11
6.51
2.23
-2.49
-7.29
-11.84
-15.87
-19.34
-22.35
-25.13
-28.03
-31.35
-35.25
-39.63
-44.15
-48.20
-51.10
-52.27
-51.37
-48.40
-43.60
-37.42
-30.34
-22.79
-15.15
-7.71
-0.74
5.51
10.90
15.31
18.71
21.17
22.75
23.62
23.92
23.83
23.51
23.08
22.62
22.14
21.59
20.83
19.71
18.06
15.82
13.02
9.83
6.44
3.07
-0.19
-3.32
-6.46
-9.80
-13.56
-17.95
-23.03
-28.63
-34.26
-39.19
-42.57
-43.72
-42.35
-38.63
-33.09
-26.43
-19.21
-11.79
-4.34
3.05
10.24
17.00
23.00
27.99
31.85
34.64
36.57
37.88
38.75
39.28
39.46
39.24
38.56
37.38
35.65
33.29
30.18
26.24
21.51
16.25
10.84
5.63
0.85
-3.54
-7.80
-12.29
-17.32
-23.04
-29.37
-36.01
-42.47
-48.16
-52.43
-54.75
-54.77
-52.50
-48.21
-42.38
-35.54
-28.11
-20.36
-12.50
-4.75
2.65
9.37
15.11
19.70
23.10
25.46
27.03
28.08
28.82
29.39
29.84
30.17
30.36
30.40
30.24
29.82
29.07
27.96
26.53
24.87
23.08
21.20
19.14
16.72
13.73
10.02
5.54
0.35
-5.35
-11.27
-16.93
-21.76
-25.15
-26.66
-26.13
-23.76
-20.01
-15.46
-10.60
-5.65
-0.69
4.32
9.35
14.20
18.54
21.99
24.28
25.37
25.50
25.14
24.93
25.46
27.15
30.09
34.07
38.63
43.31
47.88
52.46
57.55
63.79
71.66
81.28
92.23
103.56
113.85
121.41
124.47
121.64
112.34
97.19
78.10
57.84
39.37
24.89
15.32
10.26
8.44
8.36
8.93
9.50
9.92
10.11
9.97
9.33
8.13
6.43
4.39
2.14
-0.38
-3.36
-6.89
-10.76
-14.33
-16.80
-17.65
-16.98
-15.58
-14.64
-15.13
-17.37
-20.91
-24.77
-27.96
-29.89
-30.54
-30.30
-29.72
-29.33
-29.49
-30.44
-32.33
-35.20
-38.89
-43.04
-47.14
-50.60
-52.78
-53.11
-51.22
-47.04
-40.85
-33.27
-25.22
-17.82
-12.43
-10.41
-13.03
-21.08
-34.42
-51.64
-69.99
-85.88
-95.76
-97.12
-89.40
-74.13
-54.55
-34.54
-17.67
-6.38
-1.71
-3.41
-10.35
-20.86
-33.07
-45.02
-54.80
-60.73
-61.57
-56.81
-46.78
-32.70
-16.32
0.49
16.30
30.41
42.93
54.38
65.19
75.34
84.20
90.99
95.17
96.86
96.71
95.52
93.77
91.37
87.83
82.56
75.22
65.91
55.04
43.19
30.94
18.85
7.43
-2.98
-12.29
-20.77
-28.98
-37.55
-46.97
-57.41
-68.72
-80.54
-92.36
-103.49
-113.05
-119.99
-123.35
-122.58
-117.77
-109.69
-99.54
-88.58
-77.73
-67.47
-57.95
-49.19
-41.31
-34.59
-29.35
-25.79
-23.79
-22.91
-22.49
-21.91
-20.80
-19.15
-17.24
-15.48
-14.19
-13.49
-13.27
-13.34
-13.51
-13.74
-14.12
-14.81
-15.97
-17.71
-20.05
-22.97
-26.32
-29.82
-33.05
-35.47
-36.45
-35.47
-32.22
-26.75
-19.48
-11.09
-2.32
6.25
14.26
21.55
28.02
33.46
37.55
40.01
40.72
39.90
38.06
35.79
33.58
31.65
30.02
28.51
26.99
25.37
23.61
21.66
19.43
16.82
13.75
10.19
6.18
1.75
-3.03
-8.13
-13.44
-18.82
-24.01
-28.70
-32.52
-35.11
-36.13
-35.41
-32.92
-28.88
-23.66
-17.69
-11.41
-5.14
0.94
6.68
11.88
16.25
19.47
21.32
21.79
21.14
19.85
18.40
17.13
16.18
15.45
14.74
13.80
12.50
10.78
8.74
6.55
4.40
2.40
0.50
-1.53
-4.01
-7.21
-11.20
-15.79
-20.65
-25.42
-29.84
-33.74
-36.97
-39.23
-40.06
-38.93
-35.42
-29.46
-21.34
-11.67
-1.10
9.70
20.18
29.94
38.52
45.54
50.70
53.89
55.34
55.59
55.35
55.17
55.14
54.69
52.80
48.50
41.41
32.12
21.94
12.43
4.69
-1.01
-5.21
-8.76
-12.40
-16.40
-20.70
-25.16
-29.78
-34.67
-39.84
-44.98
-49.33
-52.00
-52.23
-49.64
-44.45
-37.27
-28.90
-20.05
-11.18
-2.53
5.81
13.69
20.82
26.83
31.38
34.32
35.73
35.94
35.33
34.30
33.11
31.92
30.78
29.67
28.52
27.20
25.55
23.46
20.89
17.89
14.59
11.08
7.40
3.48
-0.78
-5.57
-11.00
-17.09
-23.69
-30.40
-36.60
-41.50
-44.36
-44.62
-42.11
-37.03
-29.90
-21.38
-12.08
-2.50
6.99
16.09
24.50
31.93
38.07
42.71
45.76
47.33
47.71
47.29
46.43
45.40
44.28
43.06
41.69
40.13
38.40
36.53
34.45
32.00
29.03
25.38
21.09
16.36
11.51
6.76
2.23
-2.21
-6.81
-11.84
-17.46
-23.61
-30.04
-36.27
-41.68
-45.64
-47.59
-47.17
-44.37
-39.44
-32.85
-25.16
-16.84
-8.25
0.30
8.48
15.93
22.29
27.27
30.78
32.92
33.93
34.10
33.69
32.86
31.69
30.25
28.62
26.94
25.31
23.78
22.26
20.55
18.39
15.56
12.06
8.02
3.75
-0.44
-4.37
-8.01
-11.56
-15.27
-19.37
-24.03
-29.21
-34.70
-40.10
-44.86
-48.41
-50.22
-49.95
-47.44
-42.83
-36.42
-28.65
-20.02
-10.95
-1.83
7.03
15.34
22.83
29.25
34.46
38.49
41.55
43.96
45.96
47.69
49.09
49.96
50.14
49.59
48.46
47.03
45.60
44.28
43.03
41.59
39.66
36.97
33.53
29.53
25.37
21.44
18.00
15.05
12.37
9.68
6.68
3.20
-0.83
-5.33
-10.17
-15.12
-19.92
-24.21
-27.65
-29.90
-30.73
-30.06
-27.95
-24.53
-20.05
-14.73
-8.87
-2.76
3.26
8.85
13.72
17.65
20.54
22.42
23.33
23.38
22.65
21.23
19.24
16.87
14.30
11.72
9.27
7.07
5.19
3.74
2.75
2.23
2.12
2.31
2.71
3.27
3.99
4.88
5.89
6.81
7.36
7.25
6.25
4.25
1.21
-2.83
-7.85
-13.79
-20.45
-27.39
-33.99
-39.54
-43.42
-45.24
-44.94
-42.75
-39.04
-34.23
-28.73
-22.84
-16.85
-11.01
-5.57
-0.72
3.39
6.72
9.33
11.37
12.99
14.30
15.33
16.06
16.45
16.51
16.31
15.91
15.32
14.48
13.31
11.72
9.70
7.34
4.74
2.04
-0.67
-3.30
-5.86
-8.34
-10.81
-13.28
-15.81
-18.40
-21.07
-23.91
-27.04
-30.61
-34.75
-39.45
-44.44
-49.24
-53.20
-55.67
-56.20
-54.64
-51.14
-46.06
-39.79
-32.68
-24.99
-16.90
-8.64
-0.48
7.22
14.09
19.86
24.37
27.69
29.99
31.49
32.40
32.83
32.82
32.34
31.44
30.21
28.83
27.49
26.26
25.07
23.70
21.92
19.60
16.80
13.76
10.79
8.09
5.71
3.48
1.14
-1.51
-4.60
-8.03
-11.74
-15.66
-19.87
-24.44
-29.34
-34.25
-38.62
-41.75
-43.09
-42.39
-39.74
-35.50
-30.10
-23.91
-17.23
-10.33
-3.59
2.63
7.98
12.31
15.71
18.40
20.64
22.55
24.02
24.83
24.79
23.89
22.32
20.42
18.53
16.82
15.28
13.71
11.99
10.01
7.78
5.39
2.91
0.38
-2.24
-4.90
-7.57
-10.19
-12.74
-15.29
-18.03
-21.14
-24.72
-28.67
-32.63
-36.07
-38.44
-39.28
-38.37
-35.77
-31.78
-26.80
-21.23
-15.38
-9.43
-3.48
2.35
7.93
13.02
17.36
20.76
23.14
24.57
25.23
25.31
24.97
24.29
23.35
22.24
21.03
19.81
18.57
17.24
15.78
14.17
12.49
10.84
9.27
7.74
6.07
4.10
1.68
-1.24
-4.66
-8.55
-12.93
-17.69
-22.61
-27.32
-31.29
-34.06
-35.32
-35.00
-33.24
-30.33
-26.54
-22.11
-17.19
-11.96
-6.61
-1.42
3.32
7.40
10.67
13.14
14.92
16.13
16.88
17.24
17.25
16.94
16.37
15.60
14.67
13.57
12.26
10.64
8.69
6.35
3.62
0.57
-2.67
-5.92
-8.99
-11.75
-14.21
-16.52
-18.94
-21.72
-24.97
-28.56
-32.12
-35.07
-36.81
-36.77
-34.68
-30.57
-24.82
-18.01
-10.78
-3.63
3.16
9.45
15.17
20.19
24.34
27.42
29.40
30.42
30.74
30.69
30.53
30.43
30.46
30.62
30.80
30.79
30.37
29.38
27.89
26.09
24.26
22.59
20.98
19.05
16.27
12.15
6.47
-0.65
-8.77
-17.25
-25.32
-32.23
-37.30
-40.06
-40.30
-38.12
-33.88
-28.19
-21.68
-14.98
-8.49
-2.43
3.11
8.09
12.43
16.01
18.71
20.50
21.55
22.13
22.58
23.18
24.10
25.34
26.86
28.52
30.21
31.77
33.03
33.88
34.18
33.86
32.89
31.24
28.84
25.54
21.09
15.25
7.94
-0.63
-9.85
-18.83
-26.67
-32.70
-36.59
-38.44
-38.53
-37.24
-34.84
-31.52
-27.42
-22.67
-17.44
-11.94
-6.40
-1.18
3.35
6.86
9.15
10.24
10.39
9.99
9.39
8.79
8.16
7.33
6.06
4.14
1.52
-1.79
-5.63
-9.87
-14.39
-19.12
-24.06
-29.22
-34.64
-40.31
-46.14
-51.93
-57.33
-61.90
-65.16
-66.68
-66.22
-63.74
-59.41
-53.55
-46.53
-38.70
-30.39
-21.92
-13.61
-5.75
1.38
7.56
12.69
16.75
19.80
21.99
23.46
24.31
24.64
24.55
24.16
23.60
22.96
22.29
21.51
20.45
18.90
16.73
13.92
10.60
6.90
3.00
-1.05
-5.31
-9.88
-14.82
-20.08
-25.32
-30.03
-33.49
-35.06
-34.28
-31.09
-25.76
-18.89
-11.12
-2.98
5.13
12.96
20.26
26.77
32.24
36.47
39.46
41.33
42.30
42.53
42.13
41.13
39.62
37.77
35.82
33.98
32.33
30.84
29.38
27.82
26.05
24.03
21.69
18.96
15.75
12.08
8.05
3.82
-0.47
-4.82
-9.37
-14.22
-19.40
-24.59
-29.25
-32.65
-34.16
-33.40
-30.37
-25.41
-19.03
-11.77
-4.08
3.67
11.18
18.16
24.34
29.53
33.68
36.86
39.18
40.69
41.42
41.31
40.40
38.83
36.83
34.66
32.41
30.05
27.47
24.51
21.15
17.43
13.47
9.39
5.33
1.36
-2.43
-5.97
-9.27
-12.39
-15.48
-18.66
-21.94
-25.11
-27.77
-29.41
-29.54
-27.88
-24.42
-19.42
-13.29
-6.43
0.82
8.27
15.71
22.86
29.28
34.42
37.81
39.20
38.69
36.71
33.88
30.81
28.04
25.91
24.59
24.14
24.50
25.47
26.74
27.93
28.61
28.52
27.51
25.70
23.38
20.98
18.96
17.71
17.45
18.19
19.71
21.52
22.97
23.42
22.37
19.77
16.10
12.38
9.91
9.74
12.38
17.50
24.17
31.19
37.53
42.65
46.51
49.31
51.25
52.37
52.52
51.49
49.16
45.56
40.80
35.01
28.26
20.63
12.26
3.43
-5.45
-13.94
-21.73
-28.73
-35.10
-41.19
-47.31
-53.63
-60.11
-66.48
-72.49
-77.94
-82.80
-87.20
-91.38
-95.53
-99.80
-104.18
-108.56
-112.72
-116.30
-118.80
-119.65
-118.30
-114.39
-107.89
-99.21
-89.04
-78.25
-67.53
-57.34
-47.83
-39.02
-30.91
-23.63
-17.35
-12.20
-8.16
-5.02
-2.52
-0.41
1.44
3.02
4.27
5.09
5.40
5.15
4.30
2.91
1.12
-0.79
-2.54
-3.91
-4.89
-5.70
-6.60
-7.82
-9.40
-11.25
-13.18
-15.01
-16.42
-16.96
-16.12
-13.33
-8.32
-1.23
7.41
16.84
26.38
35.65
44.65
53.46
62.11
70.27
77.34
82.57
85.34
85.34
82.71
78.00
72.03
65.73
59.85
54.89
50.89
47.65
44.78
41.94
38.94
35.73
32.35
28.79
24.99
20.83
16.29
11.47
6.56
1.81
-2.67
-6.82
-10.61
-13.81
-15.95
-16.41
-14.62
-10.39
-4.02
3.78
12.06
20.01
27.12
33.22
38.38
42.72
46.24
48.80
50.16
50.05
48.24
44.71
39.62
33.40
26.56
19.56
12.71
6.18
0.00
-5.73
-10.84
-15.09
-18.32
-20.62
-22.30
-23.85
-25.73
-28.24
-31.39
-35.05
-38.94
-42.74
-46.11
-48.63
-49.86
-49.41
-47.04
-42.74
-36.74
-29.44
-21.28
-12.65
-3.91
4.63
12.68
19.92
26.11
31.10
34.84
37.41
38.95
39.63
39.65
39.19
38.42
37.49
36.41
35.09
33.32
30.85
27.48
23.20
18.16
12.60
6.71
0.58
-5.78
-12.45
-19.46
-26.78
-34.29
-41.89
-49.42
-56.58
-62.91
-67.75
-70.44
-70.52
-67.98
-63.26
-57.16
-50.49
-43.86
-37.54
-31.57
-25.90
-20.60
-15.85
-11.96
-9.08
-7.23
-6.22
-5.76
-5.50
-5.22
-4.79
-4.16
-3.38
-2.52
-1.72
-1.14
-0.97
-1.32
-2.26
-3.75
-5.69
-7.94
-10.36
-12.89
-15.63
-18.78
-22.55
-27.02
-31.91
-36.56
-40.07
-41.64
-40.80
-37.60
-32.49
-26.14
-19.14
-11.95
-4.87
1.79
7.63
12.24
15.33
16.83
17.04
16.42
15.52
14.74
14.24
13.93
13.58
12.91
11.79
10.20
8.27
6.17
4.00
1.74
-0.72
-3.57
-6.94
-10.92
-15.51
-20.69
-26.39
-32.49
-38.75
-44.78
-50.05
-53.92
-55.87
-55.60
-53.12
-48.70
-42.87
-36.18
-29.10
-22.03
-15.22
-8.92
-3.38
1.12
4.37
6.28
7.01
6.90
6.40
5.88
5.49
5.14
4.60
3.65
2.18
0.33
-1.66
-3.57
-5.36
-7.13
-9.13
-11.56
-14.52
-18.01
-21.98
-26.43
-31.33
-36.55
-41.72
-46.17
-49.05
-49.60
-47.41
-42.59
-35.68
-27.45
-18.66
-9.87
-1.46
6.33
13.31
19.27
24.10
27.73
30.21
31.66
32.24
32.07
31.25
29.84
27.82
25.14
21.76
17.69
13.01
7.88
2.47
-3.07
-8.72
-14.56
-20.68
-27.20
-34.20
-41.73
-49.79
-58.28
-66.90
-75.16
-82.42
-88.00
-91.31
-91.88
-89.32
-83.37
-73.89
-61.07
-45.41
-27.67
-8.66
10.93
30.58
49.87
68.32
85.38
100.52
113.46
124.30
133.41
141.25
148.06
153.74
157.97
160.36
160.68
158.93
155.23
149.76
142.71
134.29
124.74
114.34
103.39
92.25
81.22
70.49
60.19
50.23
40.45
30.74
21.18
12.17
4.30
-1.79
-5.70
-7.41
-7.27
-5.86
-3.74
-1.28
1.26
3.77
6.04
7.83
8.91
9.18
8.73
7.81
6.73
5.63
4.50
3.17
1.45
-0.69
-3.12
-5.55
-7.76
-9.61
-11.19
-12.74
-14.51
-16.69
-19.38
-22.52
-26.02
-29.72
-33.48
-37.12
-40.53
-43.65
-46.54
-49.38
-52.45
-55.99
-60.06
-64.44
-68.56
-71.64
-72.88
-71.73
-68.00
-61.91
-53.96
-44.78
-34.91
-24.80
-14.75
-5.06
3.92
11.78
18.19
22.99
26.26
28.33
29.63
30.51
31.15
31.48
31.35
30.65
29.42
27.85
26.18
24.50
22.73
20.63
17.94
14.52
10.48
6.12
1.77
-2.39
-6.34
-10.24
-14.31
-18.65
-23.23
-27.94
-32.68
-37.42
-42.09
-46.51
-50.31
-52.97
-53.98
-53.01
-49.98
-45.05
-38.45
-30.43
-21.19
-11.03
-0.40
10.04
19.52
27.39
33.29
37.22
39.53
40.76
41.45
41.98
42.53
43.04
43.28
42.98
41.95
40.18
37.78
34.98
31.99
28.96
25.96
22.94
19.84
16.58
13.15
9.54
5.82
2.10
-1.49
-4.83
-7.84
-10.55
-13.10
-15.73
-18.68
-22.15
-26.23
-30.86
-35.80
-40.64
-44.86
-47.89
-49.27
-48.73
-46.32
-42.31
-37.12
-31.17
-24.82
-18.34
-12.02
-6.18
-1.16
2.75
5.46
7.12
8.08
8.76
9.51
10.50
11.73
13.04
14.26
15.22
15.84
16.09
16.02
15.66
15.08
14.36
13.55
12.71
11.82
10.88
9.79
8.50
6.97
5.23
3.38
1.55
-0.20
-1.85
-3.46
-5.14
-7.01
-9.11
-11.39
-13.60
-15.34
-16.13
-15.52
-13.30
-9.54
-4.60
1.05
6.96
12.81
18.46
23.82
28.82
33.32
37.15
40.08
41.92
42.53
41.89
40.11
37.47
34.35
31.22
28.41
26.08
24.08
22.13
19.98
17.54
14.95
12.42
10.12
8.00
5.86
3.46
0.69
-2.38
-5.55
-8.62
-11.59
-14.62
-17.87
-21.43
-25.20
-29.02
-32.84
-36.74
-40.89
-45.38
-49.98
-54.13
-57.00
-57.83
-56.15
-51.96
-45.71
-38.07
-29.75
-21.30
-13.03
-5.16
2.08
8.40
13.49
17.13
19.38
20.58
21.24
21.84
22.57
23.30
23.69
23.42
22.39
20.78
18.90
17.03
15.25
13.45
11.39
8.86
5.78
2.17
-1.81
-5.98
-10.14
-14.11
-17.75
-21.00
-23.92
-26.69
-29.55
-32.72
-36.27
-40.06
-43.69
-46.62
-48.25
-48.18
-46.23
-42.51
-37.37
-31.19
-24.39
-17.30
-10.27
-3.62
2.32
7.28
11.15
14.02
16.17
17.89
19.42
20.77
21.82
22.38
22.35
21.77
20.86
19.80
18.75
17.64
16.28
14.43
11.93
8.77
5.14
1.34
-2.32
-5.60
-8.44
-10.89
-13.12
-15.39
-17.92
-20.92
-24.42
-28.22
-31.85
-34.61
-35.79
-34.90
-31.83
-26.85
-20.50
-13.33
-5.83
1.68
8.90
15.50
21.13
25.53
28.67
30.75
32.10
32.94
33.23
32.72
31.14
28.52
25.16
21.65
18.55
16.11
14.28
12.73
11.07
9.05
6.58
3.68
0.39
-3.35
-7.57
-12.31
-17.51
-23.04
-28.75
-34.42
-39.85
-44.71
-48.63
-51.13
-51.71
-49.96
-45.65
-38.84
-29.92
-19.55
-8.60
2.06
11.74
20.05
26.88
32.25
36.16
38.46
38.88
37.19
33.42
27.89
21.17
13.92
6.76
0.24
-5.08
-8.60
-9.96
-9.25
-7.41
-6.01
-6.65
-10.29
-16.67
-24.48
-31.98
-37.90
-41.98
-44.98
-48.02
-51.81
-56.21
-60.30
-62.95
-63.32
-61.26
-57.12
-51.49
-44.76
-37.15
-28.72
-19.49
-9.73
0.09
9.40
17.69
24.59
30.01
34.10
37.11
39.37
41.09
42.36
43.15
43.37
43.00
42.17
41.07
39.93
38.86
37.77
36.41
34.50
31.83
28.40
24.36
20.00
15.56
11.22
6.99
2.79
-1.59
-6.40
-11.94
-18.36
-25.54
-33.04
-40.10
-45.80
-49.33
-50.25
-48.56
-44.62
-39.03
-32.34
-24.93
-17.04
-8.82
-0.45
7.77
15.45
22.21
27.79
32.17
35.51
38.09
40.17
41.84
43.07
43.73
43.72
43.09
42.04
40.87
39.91
39.31
39.00
38.74
38.16
36.93
34.91
32.20
29.08
25.92
22.92
20.10
17.19
13.83
9.79
4.97
-0.40
-5.88
-10.87
-14.65
-16.38
-15.13
-10.23
-1.57
10.00
22.76
34.69
44.28
51.12
56.05
60.52
65.79
72.17
78.99
85.11
89.57
92.07
92.84
92.24
90.31
86.67
80.85
72.69
62.58
51.40
40.08
29.33
19.31
9.65
-0.20
-10.71
-21.99
-33.68
-45.13
-55.58
-64.41
-71.21
-75.85
-78.33
-78.85
-77.68
-75.27
-72.15
-68.80
-65.43
-61.87
-57.59
-51.89
-44.13
-34.04
-21.74
-7.79
7.07
22.00
36.23
49.14
60.26
69.30
76.17
80.99
84.14
86.08
87.27
87.96
88.07
87.23
84.87
80.50
73.95
65.47
55.62
45.21
34.93
25.23
16.19
7.58
-1.02
-10.03
-19.67
-29.84
-40.13
-49.91
-58.62
-65.92
-71.84
-76.68
-80.90
-84.94
-89.03
-93.23
-97.37
-101.11
-103.96
-105.36
-104.71
-101.58
-95.84
-87.75
-77.90
-67.09
-56.05
-45.31
-35.20
-25.87
-17.43
-9.99
-3.70
1.37
5.28
8.19
10.35
12.03
13.41
14.60
15.62
16.42
16.90
16.95
16.45
15.33
13.63
11.47
8.97
6.29
3.51
0.67
-2.22
-5.19
-8.26
-11.53
-15.18
-19.40
-24.28
-29.70
-35.21
-40.07
-43.47
-44.66
-43.27
-39.34
-33.27
-25.68
-17.18
-8.32
0.55
9.18
17.35
24.79
31.24
36.54
40.65
43.64
45.72
47.03
47.68
47.67
46.96
45.52
43.34
40.42
36.76
32.43
27.51
22.20
16.71
11.27
6.04
1.14
-3.29
-7.09
-10.18
-12.62
-14.70
-16.85
-19.39
-22.30
-25.07
-26.86
-26.83
-24.47
-19.76
-13.17
-5.38
2.94
11.27
19.31
26.85
33.71
39.55
43.96
46.55
47.03
45.39
41.92
37.12
31.57
25.75
19.99
14.43
9.18
4.37
0.22
-3.10
-5.59
-7.46
-9.09
-11.03
-13.77
-17.64
-22.70
-28.69
-35.04
-41.11
-46.33
-50.48
-53.65
-56.09
-57.98
-59.15
-59.05
-56.94
-52.27
-44.95
-35.46
-24.70
-13.68
-3.19
6.40
15.04
22.96
30.33
37.20
43.34
48.39
51.94
53.72
53.69
52.05
49.17
45.56
41.68
37.90
34.44
31.28
28.25
25.06
21.47
17.39
12.93
8.36
3.95
-0.21
-4.23
-8.43
-13.14
-18.59
-24.72
-31.17
-37.34
-42.46
-45.81
-46.84
-45.35
-41.42
-35.49
-28.17
-20.12
-11.92
-3.95
3.51
10.34
16.48
21.89
26.53
30.33
33.15
34.81
35.16
34.13
31.86
28.70
25.16
21.74
18.70
16.01
13.37
10.36
6.69
2.27
-2.73
-8.06
-13.50
-18.94
-24.34
-29.69
-34.94
-40.02
-44.89
-49.62
-54.30
-58.93
-63.20
-66.52
-68.14
-67.41
-64.04
-58.33
-50.96
-42.82
-34.70
-27.07
-20.04
-13.51
-7.29
-1.28
4.43
9.62
13.98
17.32
19.61
21.06
22.01
22.81
23.72
24.77
25.81
26.62
26.99
26.79
25.97
24.54
22.61
20.36
18.10
16.22
14.97
14.38
14.19
13.86
12.76
10.40
6.59
1.54
-4.12
-9.56
-13.90
-16.46
-16.92
-15.36
-12.15
-7.73
-2.47
3.48
10.04
17.09
24.38
31.47
37.92
43.36
47.71
50.98
53.36
54.93
55.73
55.68
54.69
52.69
49.79
46.21
42.28
38.33
34.62
31.22
28.04
24.90
21.54
17.80
13.62
9.12
4.52
0.05
-4.16
-8.21
-12.36
-16.92
-22.11
-27.90
-34.09
-40.32
-46.31
-51.82
-56.61
-60.33
-62.49
-62.53
-60.14
-55.35
-48.57
-40.44
-31.60
-22.50
-13.47
-4.79
3.14
9.79
14.67
17.46
18.23
17.34
15.33
12.65
9.57
6.11
2.14
-2.45
-7.61
-13.07
-18.45
-23.26
-27.13
-29.80
-31.23
-31.57
-31.13
-30.26
-29.23
-28.09
-26.54
-24.08
-20.12
-14.30
-6.70
2.12
11.17
19.32
25.63
29.65
31.51
31.92
31.81
32.13
33.54
36.31
40.35
45.34
50.75
55.98
60.34
63.20
64.13
63.02
60.19
56.28
52.02
47.95
44.32
40.99
37.69
34.15
30.22
25.98
21.64
17.52
13.89
10.94
8.66
6.78
4.83
2.25
-1.39
-6.27
-12.21
-18.79
-25.52
-32.00
-38.07
-43.80
-49.37
-55.01
-60.76
-66.48
-71.75
-75.96
-78.31
-78.14
-74.96
-68.77
-59.96
-49.30
-37.71
-26.08
-15.09
-5.18
3.43
10.66
16.53
21.08
24.41
26.64
27.94
28.44
28.26
27.45
26.02
24.01
21.50
18.64
15.59
12.45
9.16
5.58
1.55
-2.97
-7.85
-12.83
-17.64
-22.13
-26.23
-29.96
-33.32
-36.32
-38.98
-41.44
-43.92
-46.60
-49.48
-52.29
-54.49
-55.43
-54.54
-51.55
-46.45
-39.54
-31.23
-21.99
-12.21
-2.29
7.35
16.24
23.91
29.96
34.22
36.80
38.04
38.40
38.24
37.77
37.01
35.93
34.52
32.86
31.10
29.31
27.49
25.54
23.32
20.72
17.72
14.39
10.83
7.18
3.52
-0.11
-3.71
-7.31
-10.99
-14.78
-18.77
-23.03
-27.66
-32.72
-38.13
-43.67
-48.88
-53.08
-55.55
-55.67
-53.16
-48.08
-40.89
-32.14
-22.41
-12.17
-1.76
8.51
18.26
27.05
34.39
39.90
43.43
45.12
45.40
44.82
43.95
43.20
42.75
42.62
42.63
42.58
42.29
41.64
40.57
39.01
36.96
34.40
31.37
27.95
24.20
20.26
16.17
11.98
7.65
3.10
-1.82
-7.29
-13.45
-20.31
-27.78
-35.61
-43.51
-51.16
-58.25
-64.42
-69.28
-72.35
-73.20
-71.54
-67.42
-61.21
-53.55
-45.03
-36.07
-26.80
-17.19
-7.27
2.69
12.15
20.45
27.10
31.94
35.18
37.21
38.46
39.19
39.46
39.23
38.48
37.24
35.69
34.00
32.32
30.66
28.90
26.78
24.02
20.47
16.20
11.46
6.64
2.07
-2.12
-5.99
-9.70
-13.46
-17.41
-21.65
-26.27
-31.26
-36.49
-41.53
-45.71
-48.22
-48.37
-45.83
-40.73
-33.56
-24.99
-15.62
-5.88
3.90
13.37
22.06
29.42
34.97
38.47
40.10
40.34
39.81
39.04
38.32
37.63
36.83
35.74
34.29
32.49
30.40
27.98
25.09
21.53
17.19
12.15
6.68
1.18
-3.99
-8.65
-12.91
-17.09
-21.59
-26.77
-32.75
-39.39
-46.33
-52.98
-58.68
-62.76
-64.68
-64.21
-61.42
-56.67
-50.46
-43.24
-35.33
-26.90
-18.08
-9.09
-0.29
7.78
14.67
20.08
24.00
26.68
28.48
29.63
30.22
30.16
29.35
27.87
25.93
23.89
22.04
20.47
19.03
17.46
15.50
13.01
9.95
6.38
2.32
-2.15
-6.92
-11.85
-16.80
-21.80
-27.01
-32.65
-38.81
-45.18
-51.09
-55.65
-58.03
-57.80
-54.94
-49.78
-42.84
-34.60
-25.44
-15.64
-5.50
4.62
14.19
22.63
29.34
33.93
36.26
36.55
35.27
33.07
30.52
28.01
25.68
23.44
21.08
18.36
15.09
11.11
6.36
0.89
-5.15
-11.56
-18.09
-24.49
-30.53
-35.97
-40.54
-43.99
-46.19
-47.13
-47.02
-46.21
-45.12
-44.17
-43.65
-43.63
-44.01
-44.40
-44.20
-42.72
-39.32
-33.54
-25.34
-15.05
-3.34
8.92
20.90
31.95
41.63
49.69
56.07
60.75
63.82
65.42
65.72
64.92
63.13
60.40
56.73
52.16
46.80
40.89
34.68
28.40
22.27
16.50
11.33
7.06
3.93
2.00
1.14
0.97
1.03
1.03
0.87
0.69
0.74
1.17
1.90
2.63
2.91
2.27
0.36
-2.97
-7.60
-13.17
-19.02
-24.27
-27.95
-29.20
-27.49
-22.73
-15.29
-5.87
4.78
15.92
26.90
37.07
45.77
52.39
56.58
58.43
58.43
57.35
55.84
54.31
52.82
51.22
49.36
47.12
44.48
41.36
37.66
33.27
28.23
22.79
17.33
12.26
7.75
3.72
-0.17
-4.32
-9.01
-14.26
-19.85
-25.43
-30.62
-35.23
-39.36
-43.31
-47.49
-52.16
-57.24
-62.29
-66.52
-69.06
-69.17
-66.45
-60.96
-53.11
-43.57
-33.02
-22.09
-11.27
-0.95
8.52
16.76
23.49
28.58
32.13
34.46
35.97
37.02
37.72
38.02
37.76
36.90
35.51
33.81
32.00
30.12
28.07
25.63
22.65
19.04
14.87
10.25
5.35
0.34
-4.61
-9.34
-13.81
-18.15
-22.68
-27.81
-33.89
-41.02
-48.94
-57.12
-64.73
-70.91
-74.94
-76.35
-75.04
-71.21
-65.31
-57.84
-49.26
-39.90
-30.02
-19.84
-9.68
0.08
8.99
16.66
22.82
27.40
30.58
32.62
33.85
34.52
34.73
34.44
33.57
32.04
29.89
27.26
24.30
21.17
17.90
14.49
10.93
7.28
3.71
0.45
-2.27
-4.40
-6.16
-8.04
-10.79
-15.14
-21.60
-30.24
-40.53
-51.42
-61.60
-69.74
-74.87
-76.54
-74.86
-70.33
-63.55
-55.11
-45.39
-34.66
-23.13
-11.05
1.26
13.43
25.11
35.96
45.71
54.10
60.96
66.24
70.01
72.44
73.77
74.17
73.70
72.36
70.17
67.23
63.74
59.93
56.01
52.02
47.91
43.54
38.84
33.87
28.84
24.08
19.92
16.63
14.22
12.41
10.57
7.82
3.24
-3.82
-13.57
-25.66
-39.19
-52.94
-65.61
-76.03
-83.37
-87.25
-87.70
-85.07
-79.86
-72.55
-63.53
-53.08
-41.41
-28.84
-15.84
-3.07
8.69
18.77
26.71
32.44
36.29
38.86
40.80
42.64
44.56
46.51
48.27
49.66
50.63
51.25
51.59
51.61
51.10
49.72
47.08
42.87
37.02
29.66
21.22
12.27
3.38
-5.04
-12.81
-19.90
-26.35
-32.22
-37.61
-42.71
-47.87
-53.36
-59.21
-64.94
-69.62
-72.03
-71.18
-66.62
-58.61
-48.02
-35.94
-23.38
-11.12
0.37
10.76
19.79
27.16
32.63
36.11
37.73
37.87
37.03
35.65
34.02
32.17
30.01
27.44
24.40
20.92
17.05
12.80
8.10
2.89
-2.90
-9.18
-15.72
-22.23
-28.28
-33.49
-37.51
-40.16
-41.50
-41.84
-41.65
-41.36
-41.17
-40.89
-40.09
-38.16
-34.58
-28.96
-21.16
-11.23
0.60
13.99
28.51
43.66
58.97
73.96
88.14
100.91
111.59
119.52
124.20
125.59
124.05
120.27
115.03
109.00
102.62
96.14
89.61
82.99
76.17
69.00
61.38
53.35
45.06
36.76
28.69
20.98
13.53
6.12
-1.54
-9.65
-18.25
-27.15
-36.04
-44.60
-52.61
-60.10
-67.26
-74.41
-81.76
-89.30
-96.74
-103.53
-109.03
-112.63
-113.91
-112.66
-108.89
-102.86
-94.96
-85.70
-75.66
-65.37
-55.27
-45.64
-36.59
-28.05
-19.82
-11.66
-3.43
4.88
13.09
20.86
27.82
33.63
38.09
41.15
43.00
43.97
44.47
44.90
45.45
46.10
46.59
46.61
45.87
44.24
41.72
38.35
34.16
29.15
23.37
16.99
10.29
3.49
-3.28
-10.13
-17.25
-24.77
-32.55
-40.07
-46.54
-51.03
-52.80
-51.38
-46.82
-39.59
-30.52
-20.63
-10.84
-1.92
5.68
11.78
16.44
19.82
22.11
23.56
24.41
24.92
25.28
25.61
25.82
25.74
25.11
23.77
21.77
19.42
17.24
15.77
15.32
15.90
17.15
18.57
19.73
20.43
20.74
20.91
21.13
21.40
21.48
20.94
19.30
16.10
11.08
4.21
-4.22
-13.59
-23.02
-31.46
-37.93
-41.65
-42.20
-39.62
-34.35
-27.20
-19.15
-11.16
-3.99
1.92
6.47
9.79
12.11
13.71
14.78
15.53
16.02
16.31
16.33
15.98
15.18
13.92
12.29
10.41
8.41
6.26
3.88
1.11
-2.19
-6.08
-10.52
-15.41
-20.54
-25.73
-30.76
-35.55
-40.13
-44.79
-49.91
-55.83
-62.63
-69.97
-77.08
-82.89
-86.41
-86.95
-84.31
-78.71
-70.67
-60.76
-49.53
-37.47
-25.01
-12.62
-0.74
10.18
19.76
27.71
33.85
38.19
40.92
42.42
43.13
43.46
43.63
43.68
43.55
43.21
42.73
42.26
41.84
41.36
40.46
38.72
35.78
31.57
26.32
20.46
14.48
8.70
3.29
-1.76
-6.56
-11.27
-16.03
-21.04
-26.40
-32.16
-38.09
-43.72
-48.36
-51.24
-51.79
-49.68
-44.96
-38.01
-29.40
-19.87
-10.24
-1.25
6.46
12.50
16.75
19.33
20.52
20.69
20.23
19.53
19.00
18.95
19.53
20.61
21.78
22.51
22.36
21.16
19.07
16.45
13.57
10.43
6.72
2.05
-3.92
-11.16
-19.37
-27.97
-36.36
-43.99
-50.52
-55.75
-59.70
-62.61
-64.92
-67.16
-69.69
-72.52
-75.12
-76.59
-75.93
-72.42
-65.92
-56.85
-46.02
-34.34
-22.51
-10.99
0.00
10.29
19.67
27.91
34.80
40.34
44.69
48.18
51.16
53.87
56.38
58.59
60.36
61.57
62.20
62.29
61.85
60.80
59.00
56.28
52.51
47.74
42.18
36.15
29.97
23.84
17.74
11.45
4.57
-3.27
-12.26
-22.27
-32.86
-43.30
-52.76
-60.42
-65.61
-67.93
-67.29
-63.93
-58.38
-51.34
-43.45
-35.13
-26.57
-17.78
-8.86
-0.10
8.02
14.97
20.39
24.29
26.93
28.68
29.82
30.40
30.36
29.60
28.22
26.42
24.46
22.54
20.62
18.57
16.15
13.24
9.76
5.85
1.70
-2.44
-6.42
-10.23
-14.09
-18.39
-23.54
-29.78
-37.10
-45.14
-53.29
-60.72
-66.57
-70.08
-70.62
-67.88
-61.92
-53.14
-42.19
-29.82
-16.69
-3.36
9.80
22.43
34.16
44.56
53.28
60.17
65.37
69.29
72.52
75.58
78.78
82.04
84.98
87.07
87.86
87.13
84.93
81.50
77.04
71.63
65.27
57.93
49.77
41.15
32.47
24.04
15.88
7.74
-0.73
-9.71
-19.12
-28.67
-38.04
-47.07
-55.73
-64.09
-71.93
-78.75
-83.75
-86.13
-85.39
-81.42
-74.61
-65.60
-55.06
-43.58
-31.61
-19.49
-7.63
3.49
13.33
21.40
27.47
31.62
34.22
35.81
36.85
37.59
38.03
38.08
37.67
36.89
35.96
35.06
34.24
33.30
31.92
29.79
26.75
22.86
18.35
13.52
8.67
3.96
-0.51
-4.79
-9.05
-13.48
-18.27
-23.54
-29.29
-35.37
-41.43
-46.98
-51.39
-53.96
-54.12
-51.55
-46.28
-38.77
-29.65
-19.66
-9.40
0.69
10.26
18.96
26.39
32.10
35.78
37.32
36.99
35.19
32.49
29.35
26.12
23.02
20.14
17.48
14.91
12.18
8.95
4.82
-0.51
-7.10
-14.74
-22.97
-31.22
-38.99
-46.02
-52.40
-58.51
-64.98
-72.47
-81.35
-91.54
-102.38
-112.72
-121.14
-126.30
-127.29
-123.79
-116.10
-104.96
-91.26
-75.89
-59.55
-42.76
-25.85
-9.04
7.48
23.46
38.56
52.32
64.28
74.12
81.74
87.36
91.45
94.62
97.37
99.98
102.46
104.64
106.24
107.11
107.13
106.26
104.45
101.59
97.59
92.46
86.32
79.43
72.10
64.55
56.88
49.02
40.83
32.16
22.92
13.07
2.61
-8.41
-19.87
-31.52
-42.89
-53.28
-61.87
-67.79
-70.41
-69.46
-65.15
-58.01
-48.78
-38.17
-26.74
-14.88
-2.87
8.96
20.22
30.45
39.24
46.35
51.71
55.45
57.80
59.11
59.66
59.66
59.22
58.33
56.92
54.90
52.20
48.82
44.79
40.22
35.25
30.03
24.74
19.46
14.23
9.01
3.76
-1.51
-6.77
-11.93
-16.95
-21.90
-26.93
-32.21
-37.92
-44.11
-50.69
-57.38
-63.71
-69.02
-72.57
-73.64
-71.74
-66.69
-58.67
-48.18
-35.82
-22.27
-8.13
6.01
19.60
32.05
42.81
51.46
57.85
62.03
64.33
65.16
64.97
64.07
62.68
60.87
58.64
55.94
52.73
49.03
44.94
40.59
36.16
31.76
27.41
23.02
18.47
13.64
8.53
3.18
-2.29
-7.74
-13.06
-18.15
-22.96
-27.47
-31.73
-35.87
-40.12
-44.69
-49.67
-54.90
-59.92
-64.04
-66.52
-66.80
-64.64
-60.12
-53.52
-45.20
-35.54
-24.92
-13.85
-2.97
7.04
15.56
22.24
27.04
30.20
32.14
33.27
33.96
34.44
34.77
34.91
34.74
34.13
33.03
31.50
29.58
27.28
24.47
20.93
16.45
11.00
4.74
-1.99
-8.86
-15.64
-22.29
-28.84
-35.31
-41.65
-47.76
-53.56
-59.00
-64.00
-68.36
-71.61
-73.11
-72.26
-68.71
-62.56
-54.31
-44.63
-34.15
-23.26
-12.16
-1.06
9.72
19.68
28.21
34.80
39.26
41.73
42.70
42.75
42.39
41.92
41.41
40.80
39.99
38.93
37.69
36.32
34.80
32.98
30.63
27.57
23.74
19.28
14.46
9.54
4.68
-0.17
-5.20
-10.65
-16.66
-23.23
-30.18
-37.19
-43.84
-49.68
-54.25
-57.14
-57.98
-56.55
-52.82
-46.97
-39.39
-30.61
-21.12
-11.35
-1.60
7.88
16.79
24.73
31.26
36.05
39.05
40.53
40.93
40.70
40.10
39.18
37.87
36.15
34.14
32.03
30.00
28.05
25.95
23.38
20.04
15.83
10.85
5.38
-0.26
-5.80
-11.12
-16.21
-21.25
-26.50
-32.30
-39.02
-46.83
-55.66
-64.98
-73.91
-81.38
-86.40
-88.32
-86.94
-82.50
-75.50
-66.52
-56.06
-44.54
-32.37
-20.01
-7.98
3.16
12.97
21.14
27.57
32.31
35.53
37.45
38.23
38.00
36.83
34.80
32.06
28.82
25.38
21.96
18.68
15.44
11.98
8.06
3.65
-0.95
-5.23
-8.62
-10.92
-12.43
-13.93
-16.35
-20.48
-26.59
-34.39
-43.04
-51.27
-57.60
-60.45
-58.62
-51.78
-40.81
-27.70
-14.92
-4.38
3.27
8.80
13.78
19.51
26.28
33.30
39.35
43.56
45.96
47.29
48.46
49.93
51.50
52.58
52.63
51.54
49.66
47.51
45.54
43.81
42.00
39.62
36.19
31.54
25.80
19.42
12.89
6.61
0.70
-5.00
-10.85
-17.23
-24.42
-32.41
-40.85
-49.10
-56.22
-61.30
-63.67
-63.06
-59.68
-54.07
-46.88
-38.67
-29.84
-20.68
-11.44
-2.50
5.64
12.51
17.75
21.25
23.10
23.57
22.98
21.60
19.65
17.22
14.43
11.41
8.34
5.38
2.61
-0.06
-2.83
-5.91
-9.39
-13.15
-16.98
-20.63
-24.07
-27.50
-31.23
-35.60
-40.73
-46.49
-52.52
-58.22
-62.98
-66.12
-67.05
-65.33
-60.85
-53.81
-44.75
-34.39
-23.48
-12.57
-2.02
7.95
17.14
25.32
32.23
37.65
41.52
43.96
45.20
45.56
45.33
44.69
43.77
42.69
41.54
40.40
39.30
38.17
36.94
35.49
33.79
31.93
30.02
28.19
26.52
25.05
23.79
22.72
21.76
20.73
19.28
17.11
14.11
10.54
7.12
4.77
4.36
6.35
10.59
16.47
23.10
29.68
35.65
40.84
45.27
49.05
52.23
54.72
56.27
56.59
55.38
52.50
47.99
42.05
35.06
27.54
20.18
13.75
9.07
6.80
7.25
10.21
15.03
20.76
26.47
31.43
35.17
37.38
37.77
36.06
32.09
25.97
18.15
9.35
0.25
-8.71
-17.49
-26.29
-35.30
-44.39
-52.96
-60.10
-64.92
-66.86
-65.91
-62.55
-57.56
-51.58
-44.99
-37.82
-29.95
-21.40
-12.46
-3.74
3.99
10.12
14.37
16.83
17.90
18.07
17.73
17.11
16.29
15.33
14.32
13.39
12.59
11.84
10.95
9.65
7.79
5.39
2.67
-0.03
-2.48
-4.58
-6.39
-8.09
-9.90
-12.02
-14.55
-17.61
-21.27
-25.67
-30.95
-37.15
-44.06
-51.12
-57.43
-61.91
-63.60
-61.99
-57.17
-49.82
-40.84
-31.08
-21.16
-11.39
-2.00
6.71
14.34
20.48
24.91
27.68
29.12
29.69
29.80
29.64
29.23
28.42
27.08
25.16
22.81
20.32
18.02
16.11
14.58
13.11
11.28
8.73
5.32
1.19
-3.35
-8.00
-12.66
-17.39
-22.37
-27.75
-33.60
-39.88
-46.51
-53.29
-59.97
-66.05
-70.94
-74.08
-75.08
-73.99
-71.25
-67.54
-63.53
-59.62
-55.93
-52.32
-48.72
-45.16
-41.85
-39.02
-36.69
-34.66
-32.55
-29.99
-26.85
-23.20
-19.21
-14.90
-10.10
-4.43
2.42
10.48
19.38
28.47
37.01
44.45
50.52
55.22
58.71
61.22
62.97
64.18
65.05
65.72
66.20
66.39
66.13
65.30
63.96
62.22
60.21
57.91
55.18
51.84
47.87
43.62
39.73
37.03
36.19
37.55
40.92
45.74
51.23
56.66
61.50
65.37
68.02
69.24
68.86
66.85
63.41
58.95
54.02
49.09
44.37
39.84
35.33
30.67
25.85
20.96
16.18
11.61
7.30
3.12
-1.07
-5.50
-10.31
-15.57
-21.10
-26.57
-31.57
-35.82
-39.33
-42.36
-45.37
-48.84
-53.11
-58.37
-64.67
-71.90
-79.75
-87.68
-94.97
-100.85
-104.73
-106.34
-105.77
-103.33
-99.35
-94.12
-87.80
-80.55
-72.58
-64.27
-56.07
-48.42
-41.57
-35.45
-29.72
-23.85
-17.30
-9.79
-1.33
7.76
17.02
26.02
34.51
42.32
49.30
55.22
59.72
62.48
63.35
62.44
60.14
56.96
53.33
49.43
45.17
40.28
34.44
27.46
19.34
10.27
0.56
-9.42
-19.19
-28.19
-35.74
-41.14
-43.83
-43.53
-40.40
-34.95
-27.94
-20.15
-12.31
-4.95
1.53
6.83
10.72
13.09
14.00
13.70
12.63
11.25
9.92
8.81
7.86
6.87
5.57
3.71
1.25
-1.70
-4.89
-8.01
-10.79
-13.12
-14.95
-16.35
-17.39
-18.10
-18.49
-18.58
-18.44
-18.29
-18.43
-19.20
-20.90
-23.68
-27.47
-31.92
-36.41
-40.16
-42.36
-42.31
-39.64
-34.33
-26.72
-17.43
-7.17
3.33
13.49
22.83
30.97
37.60
42.55
45.86
47.85
49.12
50.33
51.97
54.12
56.48
58.46
59.53
59.44
58.36
56.75
55.10
53.70
52.49
51.18
49.37
46.84
43.56
39.70
35.46
30.92
26.03
20.66
14.70
8.21
1.29
-6.01
-13.75
-22.09
-31.05
-40.20
-48.67
-55.27
-58.91
-59.04
-55.78
-49.87
-42.33
-34.08
-25.72
-17.59
-9.84
-2.64
3.83
9.32
13.71
16.98
19.26
20.69
21.37
21.34
20.60
19.18
17.21
14.95
12.69
10.69
9.03
7.58
6.07
4.16
1.60
-1.66
-5.50
-9.64
-13.81
-17.81
-21.59
-25.26
-28.98
-32.95
-37.34
-42.20
-47.49
-52.96
-58.15
-62.41
-65.00
-65.26
-62.89
-57.96
-50.93
-42.46
-33.22
-23.72
-14.32
-5.33
2.99
10.31
16.37
21.01
24.25
26.29
27.43
27.91
27.90
27.43
26.51
25.16
23.45
21.50
19.45
17.39
15.27
12.95
10.26
7.04
3.28
-0.90
-5.30
-9.69
-13.97
-18.18
-22.55
-27.45
-33.23
-40.10
-47.84
-55.81
-62.97
-68.15
-70.37
-69.15
-64.59
-57.26
-47.99
-37.57
-26.63
-15.61
-4.90
5.13
14.07
21.56
27.44
31.80
34.90
37.11
38.69
39.72
40.06
39.45
37.71
34.87
31.23
27.24
23.33
19.74
16.40
12.98
9.11
4.44
-1.13
-7.44
-14.22
-21.14
-27.89
-34.30
-40.34
-46.13
-51.81
-57.47
-62.96
-67.86
-71.49
-73.09
-72.04
-68.09
-61.38
-52.46
-42.03
-30.81
-19.41
-8.22
2.46
12.36
21.18
28.62
34.44
38.57
41.18
42.61
43.30
43.58
43.62
43.36
42.67
41.45
39.72
37.61
35.31
32.98
30.62
28.12
25.26
21.86
17.87
13.37
8.54
3.56
-1.45
-6.52
-11.76
-17.36
-23.55
-30.48
-38.15
-46.27
-54.21
-61.01
-65.60
-67.07
-64.96
-59.37
-50.97
-40.66
-29.39
-17.86
-6.56
4.18
14.11
23.02
30.75
37.31
42.84
47.54
51.56
54.86
57.27
58.54
58.57
57.48
55.61
53.40
51.19
49.11
47.06
44.79
41.96
38.39
34.00
28.92
23.43
17.81
12.34
7.08
1.91
-3.36
-8.99
-15.15
-21.90
-29.24
-37.04
-44.96
-52.41
-58.51
-62.19
-62.56
-59.13
-52.01
-41.89
-29.76
-16.66
-3.48
9.07
20.32
29.71
36.78
41.30
43.48
43.88
43.31
42.60
42.32
42.71
43.61
44.57
45.07
44.60
42.87
39.81
35.55
30.33
24.52
18.43
12.34
6.41
0.67
-4.98
-10.69
-16.57
-22.66
-28.90
-35.33
-42.13
-49.54
-57.63
-66.11
-74.15
-80.49
-83.81
-83.08
-77.72
-67.64
-53.18
-35.27
-15.46
4.17
21.37
34.36
42.47
46.29
47.32
47.23
47.13
47.31
47.44
47.02
45.87
44.15
42.23
40.39
38.62
36.74
34.53
31.90
28.89
25.67
22.39
19.13
15.78
12.16
8.08
3.51
-1.34
-6.03
-10.18
-13.66
-16.88
-20.63
-25.84
-33.09
-42.24
-52.30
-61.60
-68.22
-70.52
-67.52
-59.13
-46.12
-29.89
-12.13
5.47
21.42
34.55
44.05
49.65
51.65
51.11
49.68
49.22
51.31
56.69
65.06
75.15
85.21
93.40
98.28
98.99
95.29
87.65
77.10
65.13
53.32
42.97
34.62
27.85
21.46
13.84
3.62
-9.88
-26.38
-44.80
-63.62
-81.24
-96.27
-107.64
-114.66
-116.95
-114.59
-108.06
-98.33
-86.61
-74.07
-61.54
-49.27
-37.08
-24.53
-11.35
2.38
16.15
29.16
40.59
49.86
56.71
61.27
63.85
64.88
64.76
63.84
62.48
61.03
59.66
58.33
56.61
53.78
49.00
41.67
31.64
19.38
5.92
-7.37
-19.08
-28.08
-33.81
-36.44
-36.91
-36.71
-37.44
-40.30
-45.63
-52.72
-60.06
-65.81
-68.39
-66.94
-61.48
-52.68
-41.53
-28.95
-15.59
-1.89
11.84
25.18
37.65
48.78
58.26
66.00
72.15
76.88
80.27
82.24
82.62
81.34
78.53
74.63
70.24
65.91
61.95
58.28
54.50
50.02
44.35
37.25
28.87
19.69
10.40
1.73
-5.79
-11.97
-16.99
-21.34
-25.67
-30.62
-36.60
-43.79
-52.06
-61.03
-70.08
-78.38
-85.03
-89.16
-90.19
-87.95
-82.68
-75.00
-65.68
-55.45
-44.84
-34.15
-23.58
-13.31
-3.62
5.08
12.46
18.42
23.10
26.84
29.92
32.40
34.08
34.71
34.21
32.82
30.98
29.15
27.51
25.93
24.09
21.69
18.63
15.00
11.00
6.78
2.38
-2.21
-7.07
-12.20
-17.61
-23.28
-29.21
-35.37
-41.64
-47.82
-53.54
-58.32
-61.60
-62.90
-61.82
-58.26
-52.34
-44.44
-35.01
-24.54
-13.45
-2.16
8.83
18.94
27.55
34.21
38.70
41.18
41.98
41.48
39.95
37.46
34.00
29.65
24.58
19.10
13.52
8.03
2.65
-2.74
-8.24
-13.89
-19.61
-25.32
-30.97
-36.71
-42.76
-49.35
-56.59
-64.40
-72.48
-80.46
-87.93
-94.56
-99.98
-103.75
-105.31
-104.08
-99.57
-91.57
-80.19
-65.88
-49.25
-30.89
-11.29
9.16
30.02
50.66
70.25
87.81
102.49
113.84
121.91
127.19
130.33
131.82
131.81
130.14
126.52
120.77
112.94
103.36
92.48
80.77
68.61
56.22
43.69
31.03
18.27
5.60
-6.63
-17.84
-27.43
-35.04
-40.68
-44.87
-48.40
-52.13
-56.58
-61.75
-67.13
-71.89
-75.18
-76.44
-75.37
-71.98
-66.38
-58.73
-49.26
-38.33
-26.55
-14.75
-3.77
5.68
13.22
18.89
23.03
26.12
28.63
30.92
33.15
35.31
37.21
38.57
39.18
38.94
37.98
36.53
34.89
33.18
31.38
29.33
26.81
23.74
20.24
16.55
12.89
9.40
5.98
2.38
-1.68
-6.42
-11.92
-18.11
-24.74
-31.41
-37.53
-42.39
-45.28
-45.62
-43.14
-37.93
-30.43
-21.26
-11.04
-0.31
10.51
21.07
31.00
39.85
47.17
52.62
56.11
57.86
58.26
57.82
56.93
55.86
54.73
53.61
52.53
51.48
50.35
48.93
46.94
44.10
40.27
35.44
29.81
23.68
17.40
11.21
5.25
-0.55
-6.39
-12.47
-18.96
-25.87
-33.07
-40.28
-47.07
-52.89
-57.16
-59.33
-59.03
-56.19
-51.09
-44.25
-36.29
-27.81
-19.22
-10.83
-2.91
4.25
10.40
15.38
19.16
21.86
23.70
24.80
25.20
24.84
23.67
21.80
19.48
17.02
14.63
12.24
9.52
6.06
1.61
-3.75
-9.58
-15.36
-20.68
-25.54
-30.31
-35.57
-41.80
-49.15
-57.20
-65.20
-72.19
-77.32
-80.00
-79.97
-77.18
-71.71
-63.74
-53.54
-41.53
-28.24
-14.24
-0.12
13.58
26.33
37.60
46.98
54.27
59.64
63.51
66.45
68.85
70.80
72.12
72.59
72.18
71.12
69.72
68.15
66.33
63.87
60.36
55.60
49.78
43.40
37.10
31.41
26.54
22.38
18.53
14.54
10.06
4.98
-0.46
-5.77
-10.35
-13.65
-15.36
-15.42
-14.05
-11.59
-8.35
-4.59
-0.43
4.04
8.65
13.12
17.05
20.05
21.87
22.48
21.99
20.57
18.27
15.10
11.06
6.28
1.19
-3.65
-7.65
-10.58
-12.64
-14.43
-16.68
-19.91
-24.26
-29.49
-35.06
-40.43
-45.24
-49.36
-52.95
-56.40
-60.14
-64.57
-69.90
-75.96
-82.18
-87.70
-91.50
-92.69
-90.78
-85.72
-77.99
-68.32
-57.56
-46.44
-35.48
-24.96
-14.94
-5.46
3.48
11.81
19.48
26.41
32.60
38.11
42.98
47.29
51.06
54.36
57.23
59.72
61.80
63.33
64.09
63.76
62.10
58.99
54.49
48.82
42.30
35.22
27.73
19.82
11.36
2.18
-7.83
-18.63
-30.02
-41.58
-52.74
-62.79
-70.97
-76.64
-79.40
-79.18
-76.27
-71.20
-64.61
-57.09
-49.09
-40.93
-32.92
-25.40
-18.76
-13.35
-9.38
-6.90
-5.70
-5.43
-5.64
-5.91
-5.84
-5.14
-3.67
-1.44
1.31
4.18
6.68
8.35
8.89
8.30
6.80
4.82
2.81
1.08
-0.28
-1.46
-2.82
-4.79
-7.74
-11.82
-16.92
-22.63
-28.23
-32.77
-35.33
-35.17
-32.05
-26.27
-18.50
-9.62
-0.42
8.53
16.83
24.21
30.38
35.11
38.28
40.04
40.68
40.60
40.12
39.36
38.26
36.75
34.82
32.60
30.24
27.85
25.39
22.66
19.45
15.61
11.17
6.27
1.14
-4.05
-9.25
-14.54
-20.03
-25.80
-31.88
-38.18
-44.48
-50.35
-55.24
-58.54
-59.70
-58.46
-54.79
-48.89
-41.08
-31.67
-21.04
-9.63
1.98
13.08
22.97
31.17
37.52
42.13
45.31
47.41
48.74
49.55
49.98
50.07
49.77
48.90
47.28
44.73
41.17
36.59
31.04
24.59
17.33
9.42
1.06
-7.51
-15.98
-24.11
-31.66
-38.50
-44.70
-50.51
-56.29
-62.37
-68.80
-75.20
-80.72
-84.36
-85.23
-82.95
-77.70
-70.09
-60.93
-50.87
-40.32
-29.48
-18.52
-7.73
2.45
11.48
18.94
24.65
28.76
31.65
33.78
35.51
37.05
38.43
39.59
40.49
41.15
41.58
41.78
41.61
40.86
39.32
36.88
33.59
29.72
25.62
21.62
17.86
14.30
10.70
6.74
2.15
-3.22
-9.42
-16.38
-23.90
-31.60
-38.92
-45.14
-49.56
-51.67
-51.30
-48.60
-43.96
-37.79
-30.50
-22.38
-13.75
-4.98
3.48
11.14
17.61
22.71
26.51
29.33
31.58
33.62
35.61
37.42
38.75
39.30
38.93
37.80
36.20
34.47
32.78
31.10
29.23
26.98
24.26
21.08
17.55
13.76
9.77
5.65
1.42
-2.90
-7.37
-12.12
-17.38
-23.30
-29.88
-36.78
-43.39
-48.84
-52.29
-53.09
-50.92
-45.87
-38.29
-28.68
-17.63
-5.72
6.43
18.18
28.89
38.04
45.29
50.55
53.88
55.38
55.08
52.91
48.76
42.60
34.54
24.77
13.56
1.21
-11.84
-24.91
-36.94
-46.75
-53.30
-56.09
-55.37
-52.08
-47.52
-42.79
-38.65
-35.34
-32.79
-30.92
-29.72
-29.19
-29.06
-28.74
-27.52
-24.91
-20.92
-16.11
-11.18
-6.50
-1.80
3.78
11.16
20.86
32.65
45.67
58.81
71.15
82.11
91.36
98.66
103.74
106.35
106.40
104.13
100.04
94.77
89.06
83.50
78.50
74.21
70.44
66.82
62.84
58.16
52.64
46.43
39.71
32.58
25.02
16.92
8.36
-0.35
-8.75
-16.50
-23.59
-30.39
-37.39
-44.81
-52.30
-58.91
-63.46
-64.94
-62.90
-57.56
-49.69
-40.31
-30.41
-20.81
-12.03
-4.28
2.45
8.34
13.60
18.36
22.62
26.25
29.10
31.05
32.03
32.07
31.18
29.48
27.12
24.29
21.19
17.94
14.49
10.66
6.19
0.83
-5.52
-12.78
-20.74
-29.04
-37.34
-45.35
-52.94
-60.07
-66.76
-72.94
-78.53
-83.41
-87.52
-90.90
-93.58
-95.47
-96.21
-95.23
-92.01
-86.23
-78.05
-67.99
-56.77
-45.02
-33.17
-21.50
-10.27
0.15
9.30
16.82
22.55
26.63
29.44
31.39
32.79
33.78
34.36
34.50
34.23
33.68
32.94
32.14
31.24
30.11
28.51
26.15
22.84
18.57
13.52
8.07
2.59
-2.72
-7.94
-13.39
-19.47
-26.44
-34.20
-42.29
-49.96
-56.40
-60.94
-63.19
-63.15
-61.16
-57.78
-53.64
-49.24
-44.88
-40.67
-36.66
-32.99
-29.99
-28.11
-27.71
-28.88
-31.26
-34.04
-36.25
-37.14
-36.40
-34.24
-31.15
-27.62
-24.00
-20.52
-17.35
-14.65
-12.40
-10.21
-7.19
-2.26
5.37
15.74
27.92
40.34
51.33
59.81
65.46
68.73
70.30
70.81
70.61
69.87
68.87
68.19
68.77
71.61
77.29
85.53
95.12
104.30
111.36
115.38
116.49
115.62
114.00
112.50
111.29
109.95
107.81
104.35
99.44
93.26
86.18
78.56
70.72
62.92
55.41
48.39
41.99
36.15
30.61
24.95
18.70
11.49
3.30
-5.58
-14.55
-23.05
-30.76
-37.71
-44.24
-50.80
-57.66
-64.79
-71.83
-78.22
-83.29
-86.53
-87.61
-86.45
-83.24
-78.31
-71.98
-64.47
-55.83
-46.05
-35.35
-24.33
-13.93
-5.17
1.25
5.20
7.16
7.92
8.22
8.50
8.83
9.12
9.28
9.40
9.60
9.94
10.25
10.26
9.61
8.11
5.76
2.71
-0.79
-4.56
-8.49
-12.57
-16.81
-21.20
-25.67
-30.14
-34.53
-38.84
-43.11
-47.33
-51.36
-54.83
-57.16
-57.71
-55.94
-51.61
-44.82
-36.05
-25.93
-15.19
-4.51
5.55
14.54
22.10
27.99
32.14
34.66
35.86
36.13
35.87
35.29
34.38
33.00
31.01
28.44
25.51
22.53
19.65
16.80
13.63
9.73
4.84
-1.02
-7.49
-14.05
-20.19
-25.57
-30.05
-33.69
-36.69
-39.37
-42.08
-45.11
-48.55
-52.16
-55.39
-57.45
-57.60
-55.35
-50.60
-43.65
-35.01
-25.23
-14.81
-4.17
6.26
15.97
24.40
31.03
35.54
37.93
38.51
37.83
36.47
34.88
33.30
31.71
30.02
28.17
26.21
24.26
22.36
20.42
18.16
15.23
11.39
6.57
0.96
-5.08
-11.20
-17.12
-22.78
-28.26
-33.81
-39.70
-46.16
-53.28
-60.83
-68.35
-75.13
-80.40
-83.51
-84.11
-82.22
-78.16
-72.45
-65.62
-58.08
-50.07
-41.74
-33.31
-25.18
-17.94
-12.28
-8.66
-7.10
-6.99
-7.12
-6.04
-2.44
4.34
14.09
25.81
38.01
49.19
58.29
64.86
69.02
71.25
72.09
72.03
71.41
70.49
69.54
68.74
68.20
67.80
67.24
66.09
63.94
60.54
55.94
50.44
44.52
38.80
33.95
30.51
28.82
28.87
30.31
32.57
35.05
37.38
39.54
41.80
44.48
47.65
50.99
53.88
55.59
55.66
54.02
51.06
47.38
43.54
39.82
36.16
32.24
27.81
22.75
17.26
11.72
6.51
1.84
-2.29
-6.04
-9.64
-13.20
-16.69
-20.07
-23.28
-26.39
-29.56
-32.92
-36.55
-40.39
-44.28
-48.16
-52.05
-56.15
-60.63
-65.46
-70.19
-74.07
-76.14
-75.62
-72.12
-65.74
-57.05
-46.83
-35.92
-25.02
-14.71
-5.39
2.64
9.22
14.31
18.04
20.67
22.52
23.87
24.87
25.55
25.81
25.58
24.89
23.97
23.10
22.53
22.34
22.37
22.28
21.75
20.52
18.54
15.82
12.39
8.14
2.82
-3.82
-11.97
-21.51
-32.09
-43.06
-53.60
-62.88
-70.12
-74.73
-76.39
-75.09
-71.17
-65.21
-57.87
-49.79
-41.48
-33.35
-25.73
-18.94
-13.20
-8.57
-4.98
-2.21
-0.09
1.42
2.20
2.10
1.08
-0.62
-2.59
-4.31
-5.39
-5.66
-5.23
-4.43
-3.71
-3.50
-4.14
-5.79
-8.38
-11.62
-15.12
-18.47
-21.47
-24.16
-26.82
-29.74
-33.03
-36.42
-39.28
-40.80
-40.23
-37.18
-31.68
-24.16
-15.26
-5.62
4.12
13.41
21.78
28.79
34.11
37.62
39.41
39.83
39.39
38.60
37.82
37.18
36.51
35.51
33.84
31.34
28.05
24.20
20.14
16.24
12.72
9.65
6.86
4.02
0.65
-3.74
-9.50
-16.75
-25.28
-34.51
-43.63
-51.70
-57.97
-62.03
-64.01
-64.45
-64.12
-63.65
-63.16
-62.26
-60.15
-56.01
-49.33
-40.15
-28.96
-16.50
-3.46
9.63
22.43
34.63
45.85
55.66
63.69
69.77
74.00
76.72
78.34
79.24
79.63
79.57
79.03
78.00
76.44
74.39
71.94
69.15
66.12
62.90
59.51
55.96
52.21
48.13
43.58
38.39
32.46
25.83
18.69
11.33
4.08
-2.88
-9.59
-16.25
-23.24
-30.80
-39.03
-47.68
-56.28
-64.10
-70.33
-74.25
-75.30
-73.27
-68.30
-60.82
-51.46
-40.93
-29.93
-19.02
-8.70
0.70
8.98
16.09
22.04
26.94
30.91
34.07
36.60
38.65
40.36
41.81
42.97
43.73
44.02
43.82
43.18
42.19
40.87
39.18
36.94
34.03
30.44
26.28
21.73
16.96
11.99
6.76
1.11
-5.06
-11.75
-18.95
-26.62
-34.79
-43.45
-52.49
-61.51
-69.89
-76.85
-81.65
-83.81
-83.18
-79.88
-74.22
-66.58
-57.31
-46.83
-35.65
-24.40
-13.81
-4.50
3.11
8.90
12.97
15.60
17.09
17.76
17.90
17.79
17.62
17.55
17.59
17.72
17.87
17.95
17.90
17.59
16.88
15.61
13.68
11.12
8.11
4.93
1.80
-1.19
-4.10
-7.11
-10.42
-14.12
-18.24
-22.72
-27.36
-31.79
-35.53
-37.97
-38.56
-36.90
-32.91
-26.83
-19.19
-10.56
-1.44
7.83
17.05
25.93
34.10
41.04
46.25
49.46
50.73
50.44
49.12
47.28
45.24
43.15
41.03
38.86
36.65
34.38
31.98
29.26
26.01
22.02
17.26
11.85
6.05
0.15
-5.63
-11.19
-16.56
-21.86
-27.23
-32.90
-39.06
-45.87
-53.30
-61.04
-68.42
-74.52
-78.38
-79.30
-76.97
-71.59
-63.64
-53.77
-42.62
-30.81
-18.90
-7.44
3.07
12.25
19.92
26.06
30.84
34.55
37.49
39.91
42.02
43.90
45.54
46.89
47.83
48.31
48.31
47.88
47.06
45.88
44.28
42.16
39.40
35.92
31.78
27.12
22.11
16.87
11.40
5.66
-0.29
-6.16
-11.36
-15.15
-16.82
-15.99
-12.69
-7.31
-0.44
7.30
15.40
23.45
31.11
38.05
43.95
48.61
51.96
54.11
55.29
55.78
55.83
55.59
55.09
54.27
52.99
51.14
48.66
45.56
41.91
37.85
33.55
29.13
24.70
20.29
15.86
11.34
6.62
1.66
-3.62
-9.24
-15.17
-21.23
-27.12
-32.35
-36.32
-38.51
-38.58
-36.48
-32.40
-26.72
-19.91
-12.44
-4.81
2.49
8.98
14.21
17.89
19.89
20.37
19.64
18.15
16.35
14.58
12.96
11.47
9.98
8.37
6.57
4.56
2.32
-0.23
-3.27
-6.94
-11.31
-16.25
-21.46
-26.54
-31.15
-35.13
-38.57
-41.77
-45.13
-49.11
-53.91
-59.44
-65.24
-70.51
-74.39
-76.13
-75.39
-72.27
-67.20
-60.73
-53.29
-45.20
-36.65
-27.95
-19.50
-11.83
-5.38
-0.40
3.18
5.60
7.21
8.31
9.10
9.73
10.28
10.88
11.57
12.35
13.12
13.66
13.70
13.02
11.48
9.14
6.20
3.01
-0.08
-2.86
-5.32
-7.61
-9.96
-12.56
-15.50
-18.80
-22.42
-26.24
-30.07
-33.54
-36.11
-37.23
-36.47
-33.69
-29.11
-23.20
-16.52
-9.58
-2.68
4.02
10.41
16.34
21.62
26.03
29.44
31.86
33.47
34.57
35.50
36.46
37.55
38.75
40.02
41.32
42.67
44.03
45.30
46.30
46.79
46.65
45.87
44.58
43.04
41.42
39.76
37.88
35.41
31.89
26.95
20.39
12.32
3.21
-6.19
-14.97
-22.26
-27.44
-30.26
-30.80
-29.49
-26.83
-23.31
-19.34
-15.16
-10.98
-6.94
-3.23
0.00
2.62
4.58
5.92
6.76
7.26
7.59
7.89
8.24
8.71
9.29
9.96
10.59
11.04
11.14
10.73
9.74
8.16
6.08
3.57
0.68
-2.58
-6.27
-10.44
-15.08
-20.13
-25.48
-30.92
-36.14
-40.73
-44.21
-46.08
-46.01
-43.88
-39.88
-34.39
-27.92
-20.92
-13.73
-6.57
0.36
6.81
12.47
17.01
20.22
22.07
22.76
22.59
21.93
21.10
20.32
19.66
19.09
18.45
17.56
16.26
14.50
12.36
10.03
7.75
5.69
4.06
2.97
2.54
2.75
3.38
3.95
3.85
2.48
-0.40
-4.60
-9.61
-14.78
-19.58
-23.69
-26.96
-29.29
-30.53
-30.48
-29.05
-26.30
-22.48
-17.96
-13.11
-8.19
-3.36
1.26
5.57
9.37
12.37
14.31
14.98
14.41
12.87
10.85
8.92
7.59
7.11
7.47
8.35
9.32
9.93
9.86
8.90
7.03
4.35
1.05
-2.62
-6.34
-9.83
-12.86
-15.37
-17.42
-19.25
-21.17
-23.52
-26.58
-30.53
-35.41
-40.97
-46.78
-52.14
-56.32
-58.67
-58.81
-56.70
-52.61
-47.01
-40.44
-33.41
-26.40
-19.88
-14.29
-9.98
-7.11
-5.57
-5.02
-4.95
-4.88
-4.46
-3.62
-2.42
-1.00
0.49
1.99
3.48
4.98
6.50
8.10
9.86
11.82
13.96
16.19
18.40
20.51
22.55
24.60
26.76
29.00
31.19
33.10
34.65
35.93
37.23
38.89
41.14
43.94
47.08
50.23
53.16
55.72
57.89
59.69
61.15
62.26
63.00
63.34
63.20
62.43
60.84
58.15
54.19
48.91
42.40
34.88
26.65
18.00
9.24
0.68
-7.40
-14.74
-21.15
-26.59
-31.15
-35.04
-38.53
-41.86
-45.15
-48.43
-51.58
-54.40
-56.73
-58.52
-59.83
-60.87
-61.93
-63.29
-65.15
-67.54
-70.21
-72.67
-74.22
-74.21
-72.25
-68.23
-62.41
-55.30
-47.42
-39.22
-30.96
-22.78
-14.74
-6.88
0.67
7.69
13.94
19.20
23.37
26.47
28.68
30.17
31.06
31.44
31.40
31.04
30.49
29.79
28.82
27.36
25.15
22.08
18.17
13.66
8.86
4.04
-0.60
-5.00
-9.21
-13.41
-17.84
-22.73
-28.16
-34.00
-39.92
-45.39
-49.86
-52.82
-53.83
-52.61
-49.03
-43.21
-35.55
-26.66
-17.21
-7.84
0.95
8.82
15.49
20.80
24.71
27.32
28.93
29.87
30.43
30.74
30.80
30.49
29.75
28.58
27.01
25.07
22.84
20.39
17.87
15.45
13.22
11.10
8.86
6.23
3.05
-0.69
-4.78
-9.00
-13.22
-17.47
-21.97
-26.92
-32.41
-38.22
-43.83
-48.45
-51.26
-51.59
-49.15
-44.12
-37.07
-28.76
-19.93
-11.09
-2.55
5.53
13.01
19.68
25.34
29.86
33.28
35.81
37.80
39.58
41.39
43.41
45.80
48.71
52.24
56.29
60.47
64.10
66.29
66.32
63.81
58.90
52.13
44.24
35.89
27.55
19.45
11.64
4.10
-3.29
-10.66
-18.29
-26.53
-35.71
-45.95
-57.05
-68.33
-78.79
-87.37
-93.24
-96.12
-96.27
-94.34
-91.08
-86.99
-82.25
-76.86
-70.78
-64.22
-57.58
-51.31
-45.71
-40.76
-36.19
-31.63
-26.85
-21.89
-16.97
-12.40
-8.40
-4.97
-1.94
0.92
3.77
6.54
9.01
10.85
11.79
11.73
10.81
9.34
7.60
5.77
3.86
1.74
-0.71
-3.63
-7.09
-11.16
-15.89
-21.14
-26.49
-31.17
-34.17
-34.60
-31.91
-26.14
-17.86
-7.92
2.76
13.42
23.49
32.54
40.32
46.72
51.86
56.02
59.56
62.83
65.95
68.84
71.27
72.97
73.87
74.15
74.25
74.85
76.53
79.47
83.23
86.70
88.25
86.36
80.08
69.47
55.62
40.29
25.34
12.16
1.31
-7.49
-15.11
-22.56
-30.58
-39.44
-48.75
-57.65
-65.08
-70.07
-72.06
-70.95
-67.10
-61.06
-53.44
-44.69
-35.15
-24.97
-14.28
-3.16
8.25
19.75
31.02
41.69
51.42
59.91
66.87
71.90
74.59
74.62
72.00
67.29
61.49
55.79
51.02
47.35
44.30
40.99
36.67
31.02
24.25
16.85
9.31
1.94
-5.21
-12.15
-19.00
-25.83
-32.80
-40.05
-47.72
-55.77
-63.83
-71.27
-77.24
-80.91
-81.72
-79.51
-74.52
-67.35
-58.73
-49.32
-39.64
-30.01
-20.63
-11.67
-3.35
4.05
10.27
15.18
18.84
21.48
23.42
24.92
26.08
26.88
27.24
27.11
26.59
25.87
25.17
24.63
24.18
23.55
22.40
20.42
17.55
13.97
10.07
6.23
2.67
-0.69
-4.12
-8.01
-12.66
-18.24
-24.68
-31.71
-38.78
-45.13
-49.88
-52.27
-51.80
-48.44
-42.57
-34.84
-26.00
-16.71
-7.46
1.35
9.47
16.68
22.89
28.09
32.37
35.87
38.78
41.25
43.41
45.29
46.79
47.65
47.53
46.15
43.38
39.35
34.40
28.97
23.50
18.23
13.31
8.76
4.52
0.46
-3.63
-8.02
-13.04
-18.95
-25.85
-33.55
-41.59
-49.34
-56.04
-61.01
-63.71
-63.81
-61.19
-55.97
-48.49
-39.30
-29.00
-18.16
-7.15
3.77
14.36
24.30
33.15
40.44
45.87
49.50
51.62
52.69
53.08
53.00
52.52
51.63
50.37
48.77
46.82
44.34
41.12
36.97
31.84
25.88
19.36
12.57
5.68
-1.26
-8.40
-15.94
-24.06
-32.76
-41.86
-50.93
-59.36
-66.55
-71.91
-74.88
-74.98
-71.86
-65.39
-55.80
-43.68
-29.79
-14.84
0.62
16.05
30.70
43.61
53.75
60.58
64.42
66.44
68.20
70.92
75.04
80.17
85.49
90.41
94.78
98.84
102.83
106.63
109.65
111.15
110.48
107.47
102.39
95.91
88.94
82.32
76.62
71.99
68.09
64.21
59.49
53.27
45.24
35.59
24.94
14.24
4.49
-3.41
-8.88
-11.75
-12.25
-10.89
-8.34
-5.24
-2.10
0.69
2.89
4.35
5.02
4.97
4.32
3.29
2.00
0.52
-1.18
-3.17
-5.54
-8.34
-11.59
-15.35
-19.69
-24.74
-30.68
-37.63
-45.56
-54.15
-62.81
-70.77
-77.39
-82.36
-85.87
-88.52
-91.07
-94.02
-97.44
-100.81
-103.19
-103.44
-100.48
-93.53
-82.25
-66.83
-47.93
-26.56
-3.91
18.77
40.26
59.48
75.53
87.65
95.25
97.94
95.57
88.33
76.91
62.50
46.70
31.32
17.85
7.29
-0.08
-4.58
-6.77
-7.13
-5.97
-3.43
0.26
4.57
8.68
11.80
13.35
13.28
12.07
10.34
8.60
6.91
4.91
2.05
-2.16
-8.02
-15.62
-24.96
-36.03
-48.66
-62.38
-76.24
-88.91
-98.82
-104.66
-105.60
-101.55
-93.32
-82.38
-70.56
-59.70
-51.19
-45.64
-42.80
-41.69
-40.79
-38.44
-33.34
-25.06
-14.53
-3.83
4.37
7.81
5.57
-1.57
-11.57
-22.03
-31.19
-38.42
-43.91
-48.19
-51.52
-53.78
-54.84
-54.93
-54.76
-55.35
-57.51
-61.47
-66.84
-72.79
-78.21
-82.13
-83.74
-82.51
-78.21
-70.90
-60.91
-48.74
-34.90
-19.87
-4.02
12.27
28.49
43.98
58.00
70.00
79.76
87.46
93.54
98.38
102.01
104.04
103.90
101.14
95.81
88.45
79.95
71.16
62.61
54.34
46.13
37.74
29.14
20.57
12.38
4.97
-1.40
-6.49
-10.12
-12.19
-12.84
-12.57
-12.21
-12.64
-14.31
-16.93
-19.43
-20.30
-18.27
-12.75
-4.09
6.60
17.96
28.82
38.37
46.16
51.84
54.98
55.14
51.98
45.49
36.08
24.55
11.97
-0.39
-11.22
-19.30
-23.74
-24.26
-21.35
-16.20
-10.38
-5.45
-2.47
-1.90
-3.58
-6.94
-11.23
-15.71
-19.73
-22.95
-25.36
-27.41
-29.86
-33.45
-38.50
-44.65
-50.87
-55.77
-58.05
-56.89
-52.05
-43.75
-32.40
-18.38
-2.07
15.97
34.83
53.17
69.42
82.21
90.69
94.77
95.06
92.57
88.40
83.41
78.22
73.23
68.73
64.93
61.82
59.09
56.13
52.14
46.45
38.80
29.46
19.20
8.97
-0.47
-8.81
-16.24
-23.37
-30.84
-39.08
-47.97
-56.86
-64.65
-70.17
-72.47
-71.12
-66.28
-58.55
-48.80
-37.82
-26.22
-14.39
-2.58
8.87
19.57
28.92
36.41
41.68
44.73
45.83
45.51
44.34
42.80
41.15
39.42
37.52
35.33
32.78
29.86
26.62
23.10
19.32
15.22
10.72
5.81
0.52
-5.02
-10.66
-16.34
-22.13
-28.28
-35.10
-42.80
-51.34
-60.31
-68.92
-76.16
-80.97
-82.57
-80.55
-75.00
-66.35
-55.25
-42.44
-28.63
-14.52
-0.85
11.61
22.16
30.29
35.85
39.03
40.31
40.35
39.67
38.60
37.22
35.36
32.78
29.28
24.82
19.61
14.04
8.58
3.53
-1.04
-5.40
-9.98
-15.17
-21.15
-27.79
-34.77
-41.76
-48.62
-55.39
-62.27
-69.44
-76.97
-84.76
-92.61
-100.24
-107.25
-113.06
-116.96
-118.15
-116.01
-110.27
-101.19
-89.46
-76.02
-61.86
-47.88
-34.81
-23.22
-13.42
-5.49
0.81
5.92
10.40
14.77
19.33
24.18
29.18
33.99
38.22
41.58
43.96
45.55
46.60
47.31
47.55
46.87
44.71
40.66
34.82
27.82
20.64
14.27
9.40
6.28
4.71
4.23
4.31
4.48
4.58
4.85
5.92
8.68
13.88
21.76
31.88
43.22
54.48
64.58
73.05
80.01
85.89
91.05
95.42
98.54
99.74
98.52
94.80
89.03
81.94
74.31
66.75
59.56
52.83
46.58
40.86
35.73
31.13
26.84
22.44
17.47
11.67
5.03
-2.14
-9.34
-16.10
-22.18
-27.56
-32.45
-37.17
-42.04
-47.35
-53.30
-59.96
-67.09
-74.08
-79.98
-83.61
-83.93
-80.36
-72.95
-62.41
-49.85
-36.46
-23.14
-10.49
1.19
11.67
20.70
27.95
33.23
36.50
38.01
38.20
37.48
36.13
34.14
31.33
27.47
22.36
15.96
8.41
-0.09
-9.32
-19.10
-29.27
-39.66
-50.06
-60.20
-69.74
-78.41
-86.08
-92.91
-99.26
-105.69
-112.67
-120.40
-128.79
-137.41
-145.64
-152.70
-157.78
-160.03
-158.67
-153.14
-143.24
-129.28
-111.88
-91.92
-70.21
-47.54
-24.63
-2.25
18.68
37.21
52.60
64.46
72.87
78.27
81.18
82.02
80.95
77.96
73.05
66.51
58.98
51.43
44.81
39.77
36.40
34.23
32.65
31.16
29.66
28.40
27.61
27.20
26.64
25.14
22.05
17.18
10.88
3.84
-3.41
-10.74
-18.47
-27.02
-36.44
-46.11
-54.80
-60.99
-63.40
-61.37
-55.06
-45.25
-33.02
-19.37
-4.98
9.69
24.32
38.49
51.65
63.23
72.95
80.94
87.63
93.39
98.09
101.06
101.32
98.24
92.09
84.13
76.19
69.91
66.04
64.24
63.42
62.35
60.18
56.67
52.08
46.82
41.15
35.17
28.79
21.92
14.55
6.83
-0.92
-8.36
-15.05
-20.52
-24.18
-25.35
-23.31
-17.49
-7.73
5.57
21.37
38.28
54.85
69.93
82.91
93.59
102.03
108.30
112.38
114.21
113.88
111.74
108.41
104.51
100.47
96.28
91.66
86.23
79.80
72.51
64.70
56.72
48.69
40.51
31.90
22.69
12.93
2.94
-6.83
-15.87
-23.84
-30.64
-36.45
-41.68
-46.92
-52.72
-59.27
-66.25
-72.70
-77.27
-78.61
-75.87
-68.93
-58.48
-45.68
-31.76
-17.65
-3.90
9.21
21.46
32.59
42.42
51.08
59.11
67.25
76.12
85.74
95.35
103.64
109.25
111.26
109.50
104.33
96.16
85.04
70.56
52.29
30.29
5.60
-19.87
-43.79
-64.23
-80.17
-91.82
-100.28
-107.11
-113.76
-121.22
-129.99
-140.08
-151.18
-162.61
-173.39
-182.16
-187.38
-187.66
-182.09
-170.62
-154.14
-134.26
-112.91
-91.76
-72.02
-54.27
-38.66
-25.09
-13.38
-3.34
5.27
12.65
18.95
24.18
28.26
31.10
32.65
33.00
32.29
30.63
28.06
24.51
19.94
14.47
8.48
2.54
-2.68
-6.67
-9.19
-10.37
-10.69
-10.85
-11.60
-13.55
-16.97
-21.86
-27.86
-34.45
-41.02
-46.94
-51.63
-54.55
-55.24
-53.38
-48.74
-41.24
-30.93
-18.04
-3.09
13.15
29.56
44.92
58.05
68.19
75.08
79.06
80.97
81.92
82.96
84.84
87.70
91.04
93.87
95.17
94.37
91.59
87.49
82.82
77.86
72.29
65.40
56.69
46.29
35.06
24.17
14.45
6.04
-1.69
-9.55
-18.12
-27.27
-36.20
-43.78
-49.00
-51.34
-50.88
-48.18
-43.99
-38.98
-33.57
-27.99
-22.38
-16.97
-12.12
-8.26
-5.66
-4.24
-3.55
-2.94
-1.88
-0.17
2.00
4.18
5.99
7.32
8.39
9.71
11.77
14.77
18.52
22.41
25.55
27.06
26.28
23.07
17.89
11.75
5.85
1.27
-1.40
-2.14
-1.35
0.27
2.05
3.39
3.93
3.67
3.07
2.97
4.43
8.37
15.21
24.69
35.78
46.86
56.13
62.05
63.86
61.89
57.48
52.54
48.89
47.60
48.76
51.66
55.13
57.94
58.98
57.32
52.27
43.59
31.75
17.87
3.56
-9.78
-21.43
-31.55
-40.94
-50.48
-60.57
-70.83
-80.23
-87.49
-91.51
-91.64
-87.78
-80.20
-69.41
-56.02
-40.75
-24.41
-7.87
8.07
22.81
36.04
47.54
57.12
64.50
69.46
71.97
72.33
71.15
69.17
67.11
65.67
65.51
67.12
70.78
76.26
82.84
89.41
94.85
98.45
100.12
100.37
99.94
99.38
98.66
97.05
93.40
86.63
76.30
63.09
48.82
35.95
26.79
22.70
23.67
28.48
35.17
41.76
46.71
49.05
48.36
44.65
38.22
29.62
19.64
9.10
-1.33
-11.36
-21.14
-31.17
-42.12
-54.61
-69.08
-85.66
-104.20
-124.18
-144.77
-164.82
-183.14
-198.67
-210.79
-219.53
-225.51
-229.70
-233.00
-235.92
-238.43
-240.03
-239.92
-237.22
-231.03
-220.60
-205.39
-185.34
-161.17
-134.44
-107.33
-82.11
-60.53
-43.27
-29.96
-19.45
-10.17
-0.44
11.34
26.44
45.51
68.17
92.92
117.47
139.34
156.70
168.71
175.46
177.49
175.32
169.45
160.52
149.64
138.31
127.94
119.18
111.59
103.82
94.29
81.89
66.19
47.30
25.52
1.17
-25.18
-52.14
-77.28
-97.55
-110.25
-114.06
-109.42
-98.18
-82.53
-64.08
-43.63
-21.66
1.02
22.69
41.00
53.78
59.90
59.74
55.02
48.13
41.22
35.55
31.18
27.03
21.43
12.74
0.23
-15.53
-32.68
-48.52
-60.32
-66.12
-65.11
-57.66
-44.90
-28.17
-8.59
12.89
35.44
57.93
79.01
97.31
111.87
122.36
128.99
132.15
131.91
127.90
119.54
106.50
89.10
68.36
45.55
21.69
-2.82
-28.12
-54.52
-82.09
-110.31
-138.06
-163.86
-186.14
-203.75
-216.28
-224.13
-228.21
-229.45
-228.27
-224.58
-217.99
-208.53
-196.94
-184.78
-173.77
-165.16
-159.19
-155.03
-151.09
-145.70
-137.65
-126.33
-111.78
-94.53
-75.47
-55.80
-36.85
-19.92
-5.84
5.19
13.52
19.73
23.97
25.77
24.10
18.13
7.88
-5.23
-18.77
-30.05
-37.15
-39.61
-38.34
-35.26
-32.40
-31.48
-33.49
-38.70
-46.49
-55.29
-62.75
-66.29
-64.14
-56.34
-45.08
-34.11
-27.21
-26.63
-32.07
-40.92
-49.64
-55.34
-56.94
-55.05
-51.25
-46.86
-42.32
-37.36
-31.47
-24.37
-16.05
-6.73
3.14
12.86
21.58
28.47
33.22
36.37
39.13
42.77
47.72
53.14
57.19
57.98
54.63
47.69
38.87
30.17
23.17
18.67
16.82
17.11
18.41
18.90
16.50
9.80
-1.26
-14.92
-28.16
-37.73
-41.40
-38.55
-30.03
-17.48
-2.62
13.11
28.48
42.34
53.65
61.69
66.36
68.31
68.59
68.29
68.16
68.35
68.55
68.26
67.08
64.97
62.28
59.74
58.23
58.42
60.35
63.28
65.74
66.06
63.05
56.41
46.94
36.04
25.12
15.03
6.02
-1.97
-8.80
-13.90
-16.38
-15.53
-11.21
-4.11
4.58
13.64
22.19
29.85
36.56
42.36
47.08
50.43
52.07
51.90
50.13
47.25
43.82
40.35
37.10
34.07
31.18
28.29
25.39
22.53
19.74
16.92
13.85
10.23
5.82
0.69
-4.80
-10.08
-14.56
-17.82
-19.68
-20.21
-19.67
-18.50
-17.10
-15.69
-14.06
-11.65
-7.77
-1.98
5.55
13.97
22.04
28.58
32.86
34.69
34.26
31.96
28.19
23.47
18.55
14.35
11.77
11.24
12.60
15.16
17.79
19.41
19.17
16.71
12.19
6.33
0.16
-5.27
-9.25
-11.74
-13.38
-15.25
-18.36
-23.15
-29.15
-35.14
-39.56
-41.11
-39.18
-34.06
-26.62
-17.95
-9.08
-0.66
6.90
13.36
18.64
22.93
26.73
30.74
35.36
40.23
44.09
45.16
42.03
34.45
23.60
11.61
0.66
-7.91
-13.92
-18.01
-21.03
-23.41
-25.17
-26.18
-26.58
-26.94
-28.08
-30.62
-34.54
-39.14
-43.12
-45.01
-43.68
-38.65
-30.26
-19.53
-7.76
3.82
14.41
23.70
31.67
38.32
43.53
47.04
48.65
48.46
47.00
45.13
43.73
43.41
44.27
45.98
47.90
49.40
49.98
49.39
47.53
44.38
39.95
34.31
27.63
20.23
12.56
5.04
-1.98
-8.26
-13.63
-17.89
-20.76
-21.93
-21.23
-18.68
-14.54
-9.17
-2.91
3.93
11.02
17.85
23.79
28.12
30.49
31.02
30.42
29.70
29.84
31.51
34.79
39.22
43.82
47.42
48.90
47.72
44.10
39.09
34.22
30.84
29.70
30.61
32.69
34.80
36.05
36.04
34.79
32.59
29.77
26.73
23.92
21.92
21.35
22.74
26.44
32.35
39.96
48.30
56.15
62.24
65.69
66.11
63.78
59.44
54.03
48.40
43.13
38.51
34.61
31.41
28.78
26.46
24.03
20.95
16.68
10.81
3.09
-6.51
-17.86
-30.60
-44.10
-57.38
-69.19
-78.35
-84.11
-86.44
-86.05
-84.15
-81.86
-79.85
-78.13
-76.20
-73.44
-69.44
-64.15
-57.80
-50.69
-43.11
-35.23
-27.24
-19.46
-12.31
-6.21
-1.47
1.84
3.96
5.25
6.11
6.75
7.18
7.21
6.68
5.50
3.69
1.40
-1.21
-3.93
-6.47
-8.43
-9.32
-8.80
-6.76
-3.49
0.50
4.63
8.52
12.06
15.43
18.98
23.16
28.44
35.23
43.67
53.49
63.98
74.14
82.99
89.93
94.88
98.12
99.99
100.72
100.39
99.13
97.38
95.89
95.47
96.59
99.03
101.84
103.71
103.40
100.24
94.32
86.36
77.40
68.42
60.20
53.17
47.60
43.65
41.50
41.31
43.17
46.99
52.35
58.45
64.25
68.72
71.11
71.08
68.66
64.02
57.25
48.38
37.55
25.20
12.25
-0.03
-10.09
-16.33
-17.29
-11.93
-0.01
17.52
38.24
58.38
73.22
78.07
69.45
46.29
10.67
-32.29
-75.44
-111.63
-135.75
-146.37
-145.80
-138.87
-130.87
-125.50
-124.07
-125.76
-128.94
-132.28
-135.32
-138.28
-141.36
-144.32
-146.35
-146.49
-144.07
-139.05
-132.01
-123.74
-114.81
-105.27
-94.73
-82.64
-68.88
-54.05
-39.56
-27.23
-18.64
-14.43
-14.04
-15.78
-17.51
-17.39
-14.53
-9.15
-2.27
4.88
11.44
17.10
22.02
26.45
30.42
33.56
35.38
35.49
33.89
31.07
27.75
24.58
21.88
19.59
17.35
14.83
11.85
8.54
5.22
2.20
-0.36
-2.51
-4.50
-6.60
-9.03
-11.85
-14.98
-18.11
-20.87
-22.80
-23.50
-22.76
-20.58
-17.18
-12.96
-8.31
-3.63
0.77
4.59
7.55
9.39
10.05
9.59
8.28
6.51
4.59
2.72
0.85
-1.15
-3.46
-6.08
-8.81
-11.37
-13.43
-14.82
-15.64
-16.19
-16.83
-17.90
-19.49
-21.49
-23.55
-25.25
-26.16
-25.87
-24.10
-20.73
-15.79
-9.55
-2.46
4.95
12.06
18.30
23.26
26.66
28.50
28.91
28.21
26.78
24.99
23.14
21.43
19.99
18.78
17.67
16.45
14.85
12.66
9.77
6.23
2.19
-2.23
-6.98
-12.07
-17.43
-22.82
-27.63
-31.15
-32.64
-31.69
-28.35
-23.04
-16.35
-8.85
-0.88
7.34
15.58
23.44
30.36
35.76
39.33
41.15
41.67
41.45
40.94
40.30
39.44
38.16
36.36
34.19
31.95
30.04
28.70
27.96
27.58
27.16
26.23
24.33
21.19
16.81
11.64
6.58
3.02
2.54
6.43
15.19
28.19
43.66
59.26
72.69
82.35
87.50
88.10
84.35
76.48
64.78
49.92
33.17
16.47
1.95
-8.56
-13.99
-14.19
-9.79
-1.78
8.73
20.70
33.17
45.17
55.58
63.21
66.77
65.14
57.70
44.61
26.93
6.59
-13.87
-31.67
-44.17
-49.34
-46.18
-34.88
-16.82
5.98
31.54
58.42
85.53
111.57
134.10
149.45
153.43
142.70
116.12
75.16
23.43
-34.40
-93.35
-148.42
-194.69
-227.64
-244.12
-243.54
-228.53
-204.43
-177.65
-153.72
-135.85
-124.77
-119.50
-118.46
-120.22
-123.59
-127.26
-129.56
-128.54
-122.49
-110.58
-93.24
-72.07
-49.32
-27.17
-7.29
9.44
22.82
33.04
40.52
45.79
49.40
51.87
53.62
54.88
55.65
55.84
55.28
53.77
51.08
47.01
41.48
34.66
27.01
19.20
11.92
5.62
0.50
-3.54
-6.71
-9.22
-11.25
-12.95
-14.55
-16.34
-18.61
-21.48
-24.82
-28.24
-31.22
-33.30
-34.21
-33.94
-32.59
-30.27
-26.90
-22.29
-16.27
-8.92
-0.71
7.54
14.85
20.30
23.34
23.87
22.31
19.48
16.29
13.51
11.42
9.74
7.76
4.72
0.20
-5.55
-11.74
-17.38
-21.76
-24.78
-26.99
-29.23
-32.31
-36.79
-42.82
-50.21
-58.46
-66.74
-73.97
-79.02
-80.97
-79.40
-74.46
-66.80
-57.27
-46.74
-35.94
-25.35
-15.17
-5.29
4.66
15.19
26.64
38.98
51.77
64.35
76.22
87.14
97.13
106.14
113.75
119.14
121.32
119.63
114.13
105.69
95.72
85.64
76.40
68.32
61.15
54.38
47.61
40.64
33.61
26.85
20.81
15.94
12.62
11.02
11.07
12.58
15.40
19.64
25.69
34.01
44.68
56.95
69.08
78.72
83.50
81.87
73.33
58.52
38.83
15.96
-8.56
-33.46
-57.66
-80.12
-99.79
-115.84
-127.82
-135.88
-140.67
-143.05
-143.79
-143.45
-142.38
-140.89
-139.38
-138.27
-137.80
-137.74
-137.40
-135.77
-131.94
-125.41
-116.26
-105.12
-92.87
-80.36
-68.03
-55.55
-42.00
-26.43
-8.78
9.55
25.94
37.40
42.01
39.76
32.46
22.64
12.21
1.72
-9.34
-21.46
-34.04
-45.25
-52.76
-55.05
-52.23
-46.05
-38.78
-32.27
-27.26
-23.46
-20.40
-17.94
-16.62
-17.18
-19.98
-24.34
-28.56
-30.37
-27.71
-19.39
-5.44
12.86
33.35
53.52
71.04
84.18
91.96
94.13
90.84
82.51
69.78
53.58
35.19
16.34
-1.07
-15.29
-25.30
-31.18
-34.06
-35.67
-37.43
-39.70
-41.52
-41.35
-38.14
-32.36
-26.17
-22.48
-23.59
-29.90
-39.80
-50.45
-59.24
-64.84
-67.49
-68.34
-68.45
-68.07
-66.50
-62.58
-55.42
-44.89
-31.83
-17.80
-4.55
6.66
15.37
22.02
27.57
32.92
38.56
44.36
49.78
54.21
57.33
59.10
59.61
58.98
57.12
53.97
49.53
44.02
37.76
31.06
24.01
16.35
7.71
-2.16
-13.04
-24.01
-33.56
-39.98
-41.85
-38.52
-30.35
-18.52
-4.81
9.01
21.50
31.78
39.61
45.19
48.99
51.56
53.43
55.03
56.59
58.13
59.47
60.34
60.59
60.44
60.51
61.68
64.67
69.67
76.03
82.37
87.07
88.75
86.82
81.58
74.08
65.63
57.30
49.39
41.39
32.27
21.07
7.58
-7.23
-21.21
-31.47
-35.08
-29.81
-14.61
10.02
41.87
77.29
111.71
140.55
160.45
170.13
170.76
165.26
157.11
149.00
141.97
135.29
127.18
115.77
99.93
79.57
55.60
29.46
2.72
-23.19
-47.13
-68.31
-86.29
-100.98
-112.49
-121.05
-126.81
-129.81
-129.84
-126.56
-119.63
-109.04
-95.46
-80.42
-66.18
-55.34
-50.28
-52.40
-61.75
-76.95
-95.42
-114.06
-129.84
-140.48
-144.72
-142.53
-134.87
-123.53
-110.71
-98.59
-89.01
-83.09
-81.14
-82.58
-86.20
-90.56
-94.44
-97.25
-99.20
-101.02
-103.83
-108.50
-115.38
-124.05
-133.25
-140.93
-144.54
-141.74
-131.32
-113.92
-92.03
-69.12
-48.27
-30.84
-16.17
-2.27
12.84
29.86
48.01
65.58
81.11
94.16
105.41
115.99
126.49
136.52
144.84
150.10
151.66
150.00
146.60
143.45
141.99
142.45
143.63
143.19
138.64
128.33
112.15
91.70
69.75
49.25
32.33
19.77
10.79
3.80
-3.00
-11.00
-20.86
-32.39
-44.50
-55.04
-61.13
-60.04
-50.54
-34.04
-14.66
2.09
11.54
11.90
4.84
-5.60
-15.27
-21.93
-25.83
-28.80
-32.46
-36.93
-40.63
-41.33
-37.55
-29.61
-19.62
-10.61
-5.24
-4.76
-8.76
-15.63
-23.37
-30.50
-36.41
-41.18
-45.09
-48.02
-49.30
-47.93
-43.09
-34.74
-23.71
-11.58
-0.13
9.32
16.29
21.19
25.05
29.01
33.85
39.94
47.30
55.76
64.93
74.01
81.78
86.80
87.90
84.70
77.78
68.42
58.02
47.45
36.87
25.90
14.12
1.49
-11.57
-24.29
-35.72
-44.85
-50.46
-51.21
-45.84
-33.70
-15.19
8.03
33.34
57.74
78.80
95.19
107.03
115.62
123.05
131.51
142.62
156.92
173.59
190.61
205.49
216.27
222.40
225.04
226.70
230.28
237.98
250.58
267.30
286.06
303.96
317.92
325.09
323.27
311.32
289.16
257.82
219.03
174.81
127.25
78.38
30.37
-14.65
-54.99
-90.29
-122.44
-155.74
-195.90
-247.66
-312.00
-384.24
-454.48
-510.49
-541.68
-543.00
-516.37
-469.40
-412.21
-354.20
-301.81
-258.19
-223.98
-198.22
-179.04
-163.76
-148.90
-130.74
-106.18
-73.72
-34.00
10.38
55.71
98.10
134.56
163.28
183.46
195.15
199.52
199.50
199.81
206.10
222.72
250.37
284.85
317.85
340.32
346.26
335.21
312.16
285.08
261.40
245.59
238.56
238.71
243.47
250.32
256.97
261.19
260.79
254.04
240.13
219.43
193.31
163.71
132.22
99.27
63.76
23.14
-25.36
-82.82
-146.90
-211.40
-267.68
-307.41
-325.47
-321.38
-298.80
-263.61
-221.98
-179.35
-140.39
-109.04
-88.08
-78.06
-76.37
-77.75
-76.43
-68.73
-55.11
-39.98
-29.69
-29.83
-43.47
-70.82
-110.10
-158.45
-212.19
-266.56
-315.43
-352.21
-371.54
-371.36
-353.83
-324.69
-291.17
-259.49
-233.56
-214.99
-204.27
-201.89
-208.30
-222.96
-243.27
-264.37
-280.54
-287.41
-283.63
-271.24
-254.49
-237.59
-222.93
-210.61
-199.25
-187.36
-174.55
-161.64
-150.03
-140.78
-133.83
-127.66
-119.56
-106.35
-85.48
-56.24
-20.34
18.17
54.30
83.87
105.05
118.66
127.26
133.46
138.69
143.02
146.12
148.45
151.87
159.02
171.91
190.51
212.26
232.89
247.81
253.90
250.50
239.64
225.20
211.87
204.02
204.51
213.88
230.18
249.27
265.95
275.36
274.19
261.49
238.86
210.24
181.27
158.26
146.70
149.36
164.94
187.82
209.59
221.96
219.80
202.82
174.95
142.00
108.64
76.55
44.51
9.86
-29.64
-74.57
-123.87
-175.54
-227.25
-276.20
-318.61
-349.51
-363.43
-356.08
-326.38
-277.50
-216.48
-152.38
-93.79
-46.82
-14.33
3.80
9.92
7.74
1.78
-3.29
-3.23
4.80
21.63
45.85
74.28
102.82
127.52
145.45
155.29
157.59
154.44
148.68
142.72
137.69
132.95
126.41
115.44
98.16
74.34
45.99
17.22
-6.49
-19.58
-17.98
-0.36
31.23
71.43
112.51
145.92
164.13
162.19
138.91
97.11
42.91
-15.78
-71.29
-117.97
-153.15
-176.80
-190.48
-195.92
-194.31
-186.35
-172.87
-155.51
-136.75
-119.54
-106.63
-100.23
-101.78
-112.01
-131.01
-157.90
-190.68
-226.11
-260.17
-288.78
-308.64
-317.82
-315.96
-304.17
-284.52
-259.69
-232.27
-204.21
-176.47
-148.92
-120.83
-91.52
-61.06
-30.52
-1.69
23.54
43.92
59.20
70.04
77.59
82.97
86.89
89.66
91.23
91.50
90.48
88.36
85.47
82.10
78.48
74.60
70.23
64.98
58.57
50.75
41.64
31.70
21.70
12.71
6.13
3.63
6.72
16.03
30.69
48.29
65.47
79.20
87.99
92.33
94.21
95.91
98.79
102.87
107.13
110.51
112.52
113.45
113.95
114.40
114.75
114.60
113.58
111.59
108.78
105.24
101.06
96.14
90.37
83.77
76.54
68.91
61.01
52.68
43.43
32.63
19.60
3.84
-14.73
-35.67
-57.83
-79.40
-98.21
-112.10
-119.75
-121.05
-117.20
-110.26
-102.32
-94.65
-87.21
-79.05
-69.15
-57.47
-45.28
-34.68
-27.56
-24.50
-24.49
-25.57
-25.94
-24.85
-22.87
-21.14
-20.47
-20.75
-21.12
-20.76
-19.55
-18.40
-18.73
-21.72
-27.61
-35.57
-44.01
-51.04
-55.16
-55.56
-52.13
-45.42
-36.26
-25.37
-13.22
0.22
15.27
32.28
51.16
71.03
90.08
106.02
116.87
121.77
121.40
117.83
113.66
110.99
110.73
112.59
115.53
118.60
121.35
123.96
126.83
130.21
134.05
138.19
142.62
147.58
153.39
160.03
166.88
172.66
175.69
174.46
168.10
156.66
141.14
123.22
104.91
88.14
74.40
64.61
58.94
56.84
57.09
58.06
58.02
55.65
50.32
42.35
32.85
23.31
15.13
9.10
5.24
2.90
1.16
-0.73
-3.15
-6.05
-9.14
-12.22
-15.33
-18.79
-23.05
-28.50
-35.25
-43.11
-51.63
-60.20
-68.17
-74.82
-79.43
-81.30
-79.96
-75.34
-67.95
-58.79
-49.08
-39.84
-31.66
-24.51
-18.00
-11.65
-5.22
1.10
6.86
11.49
14.61
16.14
16.29
15.36
13.65
11.38
8.68
5.67
2.48
-0.74
-3.86
-6.79
-9.48
-12.05
-14.80
-18.27
-23.16
-30.28
-40.34
-53.81
-70.84
-91.16
-113.95
-137.79
-160.65
-180.19
-194.29
-201.62
-202.04
-196.63
-187.28
-176.08
-164.68
-153.89
-143.59
-132.81
-120.24
-104.63
-85.43
-62.98
-38.41
-13.31
10.83
32.81
51.90
67.47
79.09
86.62
90.46
91.73
92.00
92.70
94.62
97.68
101.25
104.85
108.57
113.03
118.97
126.54
135.11
143.36
149.77
153.04
152.26
146.81
136.26
120.60
100.63
78.43
57.31
40.91
31.91
30.64
34.56
38.68
37.16
24.93
-0.85
-40.13
-90.05
-145.55
-200.19
-247.29
-281.01
-297.61
-296.36
-279.72
-252.63
-221.04
-190.37
-164.15
-143.77
-128.83
-118.07
-110.13
-103.99
-99.00
-94.59
-90.12
-84.83
-78.13
-69.96
-60.89
-52.01
-44.51
-39.25
-36.44
-35.77
-36.66
-38.66
-41.50
-45.04
-48.97
-52.60
-55.01
-55.23
-52.73
-47.61
-40.70
-33.18
-26.25
-20.74
-16.94
-14.59
-13.04
-11.49
-9.20
-5.71
-0.87
5.15
12.05
19.41
26.85
33.97
40.44
45.97
50.52
54.30
57.82
61.67
66.33
71.96
78.41
85.21
91.81
97.69
102.42
105.75
107.81
109.15
110.66
113.19
116.93
121.17
124.42
125.10
122.23
115.91
107.16
97.35
87.53
78.26
69.74
62.24
56.27
52.40
50.89
51.33
52.78
54.18
54.73
54.12
52.33
49.36
45.14
39.62
33.13
26.51
21.07
18.11
18.48
22.25
28.69
36.65
44.87
52.32
58.22
62.05
63.49
62.44
59.17
54.22
48.27
41.86
35.17
27.95
19.81
10.37
-0.40
-12.20
-24.37
-36.12
-46.66
-55.35
-61.89
-66.31
-69.03
-70.73
-72.21
-74.17
-76.97
-80.59
-84.47
-87.65
-88.90
-87.03
-81.30
-71.63
-58.67
-43.55
-27.56
-11.79
2.96
16.09
27.07
35.42
40.82
43.33
43.50
42.26
40.63
39.43
39.15
39.89
41.54
43.85
46.49
49.11
51.43
53.25
54.53
55.33
55.65
55.34
54.12
51.78
48.36
44.30
40.42
37.64
36.82
38.64
43.60
52.16
64.73
81.51
102.26
125.98
150.90
174.58
194.47
208.43
215.34
215.45
210.45
202.92
195.66
190.83
189.26
190.30
192.23
192.95
190.90
185.46
176.94
166.15
153.81
140.19
125.18
108.68
91.00
72.84
55.12
38.41
22.61
6.80
-10.43
-30.78
-55.97
-87.34
-125.22
-168.01
-211.69
-250.20
-277.00
-287.17
-279.25
-255.92
-222.90
-186.98
-153.96
-127.66
-109.79
-100.70
-100.01
-106.78
-119.38
-135.60
-153.12
-170.37
-187.16
-204.68
-224.82
-249.15
-277.70
-308.43
-337.41
-359.83
-371.45
-369.95
-355.67
-331.35
-301.07
-268.56
-235.99
-203.46
-169.52
-132.31
-90.83
-45.64
1.16
46.40
86.61
118.49
139.28
147.03
140.82
120.95
89.17
48.52
2.91
-43.43
-86.57
-123.28
-151.22
-169.01
-176.17
-173.05
-160.85
-141.47
-117.36
-91.22
-65.64
-42.83
-24.16
-10.13
-0.31
6.39
11.35
15.83
20.88
27.35
36.02
47.40
61.61
78.27
96.75
116.60
137.90
161.01
185.77
210.64
232.43
247.08
251.29
244.01
226.88
203.39
177.09
150.01
122.12
91.98
58.02
19.69
-22.06
-65.06
-106.36
-142.90
-171.97
-191.79
-201.95
-203.69
-199.60
-192.94
-186.54
-182.00
-179.35
-177.24
-173.71
-166.90
-155.46
-138.84
-117.15
-91.08
-61.79
-31.00
-0.87
26.20
48.01
63.26
71.81
74.85
74.40
72.66
71.19
70.56
70.39
69.87
68.30
65.48
61.81
57.86
54.05
50.38
46.36
41.41
35.15
27.83
20.11
12.77
6.19
0.26
-5.43
-11.03
-15.98
-19.06
-18.85
-14.33
-5.31
7.63
23.47
41.15
59.64
77.71
93.79
106.01
112.70
113.05
107.43
97.34
84.89
72.03
60.17
49.91
41.20
33.60
26.51
19.33
11.60
3.12
-6.10
-15.70
-25.06
-33.53
-40.56
-45.85
-49.43
-51.71
-53.44
-55.59
-59.00
-63.90
-69.66
-74.70
-76.97
-74.62
-66.70
-53.52
-36.52
-17.69
1.00
18.01
32.26
42.99
49.74
52.43
51.61
48.46
44.59
41.53
40.11
40.31
41.17
41.42
40.09
36.95
32.57
27.99
24.17
21.50
19.66
17.95
15.50
11.71
6.35
-0.56
-8.72
-17.37
-25.10
-30.00
-30.34
-25.45
-16.22
-4.84
6.35
16.09
24.82
34.16
45.64
59.45
73.99
86.61
94.97
98.16
96.91
92.99
88.15
83.44
79.07
74.78
70.26
65.36
60.00
54.19
47.74
40.43
32.08
22.80
12.98
3.32
-5.44
-12.76
-18.52
-23.16
-27.55
-32.61
-38.93
-46.45
-54.29
-61.10
-65.37
-65.99
-62.51
-55.20
-44.82
-32.23
-18.20
-3.28
12.08
27.38
41.93
54.86
65.27
72.43
75.95
75.84
72.43
66.33
58.28
49.06
39.43
30.08
21.62
14.44
8.75
4.42
1.07
-1.89
-4.92
-8.14
-11.24
-13.56
-14.51
-13.98
-12.57
-11.37
-11.71
-14.50
-19.78
-26.66
-33.42
-37.93
-38.16
-32.71
-21.19
-4.48
15.50
36.44
56.42
74.62
91.43
107.97
125.24
143.34
161.27
177.34
189.93
198.21
202.42
203.67
203.42
202.86
202.55
202.25
201.14
198.16
192.36
183.35
171.31
156.99
141.48
126.06
111.93
99.89
90.13
81.74
72.83
60.94
44.21
22.61
-1.48
-23.80
-39.78
-46.33
-43.09
-32.21
-17.11
-0.88
14.74
29.16
42.11
52.63
59.04
59.58
53.41
41.35
25.54
8.46
-8.22
-24.33
-40.86
-59.18
-80.05
-103.03
-126.58
-148.79
-167.94
-183.05
-193.85
-200.57
-203.58
-203.20
-199.63
-193.18
-184.31
-173.80
-162.54
-151.37
-140.80
-130.89
-121.35
-111.67
-101.42
-90.37
-78.46
-65.63
-51.74
-36.61
-20.18
-2.80
14.64
30.84
44.42
54.37
60.34
62.72
62.40
60.48
57.96
55.62
54.06
53.73
54.91
57.50
60.86
63.81
64.85
62.62
56.44
46.49
33.63
18.91
3.19
-13.09
-29.75
-46.60
-63.23
-78.84
-92.35
-102.48
-107.80
-106.96
-99.00
-83.75
-62.18
-36.46
-9.57
15.46
36.39
52.27
63.33
70.55
74.97
77.25
77.72
76.52
73.83
70.06
65.56
60.38
54.12
45.93
34.96
20.78
3.72
-15.04
-33.75
-50.64
-64.33
-74.34
-81.12
-85.88
-89.98
-94.36
-99.11
-103.41
-106.13
-106.48
-104.60
-101.48
-98.45
-96.34
-95.08
-93.71
-91.01
-86.31
-79.87
-72.88
-66.85
-62.89
-61.28
-61.39
-62.13
-62.46
-61.88
-60.50
-59.00
-58.20
-58.81
-61.10
-64.78
-69.07
-73.00
-75.68
-76.71
-76.27
-74.96
-73.54
-72.50
-71.90
-71.45
-70.86
-70.10
-69.42
-68.97
-68.41
-66.69
-62.30
-53.96
-41.14
-24.41
-5.14
15.03
34.71
53.01
69.45
83.67
95.27
103.75
108.72
110.23
108.81
105.45
101.40
97.78
95.29
93.96
93.05
91.19
86.77
78.35
65.18
47.43
26.25
3.51
-18.68
-38.52
-55.02
-68.29
-79.43
-90.07
-101.63
-114.66
-128.40
-141.00
-150.14
-154.05
-152.34
-146.31
-138.46
-131.48
-127.14
-125.76
-126.24
-126.79
-125.59
-121.22
-112.65
-99.22
-80.87
-58.73
-35.39
-14.74
-0.73
4.17
0.23
-9.53
-20.57
-28.80
-32.24
-31.42
-28.61
-26.30
-25.94
-27.60
-30.35
-33.34
-36.43
-40.40
-46.23
-54.49
-64.64
-75.05
-83.57
-88.20
-87.66
-81.55
-70.33
-55.17
-37.81
-20.25
-4.33
8.73
18.68
26.14
32.14
37.59
42.78
47.55
51.57
54.75
57.38
59.91
62.61
65.46
68.20
70.56
72.47
73.99
75.23
76.22
77.12
78.15
79.54
81.39
83.38
84.74
84.52
82.11
77.72
72.61
68.78
68.25
72.33
81.04
93.18
106.87
120.28
132.28
142.57
151.32
158.62
164.12
166.95
166.20
161.46
153.06
142.06
129.64
116.55
102.78
87.70
70.53
50.90
29.21
6.71
-14.67
-32.64
-44.94
-49.95
-47.16
-37.53
-23.51
-8.42
4.34
12.27
14.36
11.03
3.67
-6.02
-16.46
-26.29
-34.21
-38.90
-39.10
-33.88
-22.81
-6.01
15.94
42.12
71.14
100.95
128.87
152.01
168.17
176.78
179.35
179.00
179.12
181.83
186.94
191.79
192.18
184.08
165.20
136.18
100.53
63.59
30.79
5.94
-9.81
-17.79
-20.76
-21.55
-21.96
-22.74
-23.96
-25.75
-28.42
-32.24
-37.02
-41.88
-45.61
-47.22
-46.51
-44.21
-41.72
-40.47
-41.45
-44.82
-50.00
-55.89
-61.40
-65.76
-68.73
-70.57
-71.77
-72.69
-73.36
-73.53
-72.83
-71.08
-68.51
-65.66
-63.20
-61.61
-60.97
-61.00
-61.30
-61.64
-62.14
-63.22
-65.34
-68.72
-73.15
-77.99
-82.35
-85.35
-86.25
-84.55
-79.99
-72.58
-62.66
-50.94
-38.43
-26.31
-15.65
-7.20
-1.26
2.36
4.13
4.72
4.77
4.86
5.37
6.45
8.02
9.81
11.40
12.37
12.40
11.30
9.05
5.68
1.30
-3.98
-9.89
-16.08
-22.13
-27.70
-32.66
-37.07
-41.00
-44.36
-46.71
-47.45
-46.06
-42.42
-36.89
-30.17
-22.96
-15.77
-8.82
-2.24
3.71
8.57
11.80
13.09
12.55
10.79
8.57
6.56
5.05
3.85
2.58
0.86
-1.45
-4.15
-6.86
-9.25
-11.17
-12.77
-14.36
-16.29
-18.75
-21.76
-25.24
-28.96
-32.61
-35.72
-37.65
-37.72
-35.44
-30.77
-24.21
-16.68
-9.16
-2.43
3.20
7.81
11.65
14.95
17.71
19.82
21.12
21.51
21.02
19.75
17.87
15.55
12.97
10.29
7.62
5.00
2.50
0.12
-2.04
-3.92
-5.41
-6.49
-7.16
-7.60
-8.02
-8.65
-9.59
-10.70
-11.68
-11.99
-11.19
-8.98
-5.39
-0.71
4.66
10.30
15.92
21.24
25.87
29.31
30.97
30.48
27.90
23.72
18.81
14.09
10.14
7.12
4.69
2.27
-0.74
-4.67
-9.55
-15.16
-21.12
-27.15
-33.03
-38.68
-43.97
-48.68
-52.41
-54.69
-55.14
-53.64
-50.33
-45.57
-39.79
-33.38
-26.59
-19.62
-12.60
-5.59
1.26
7.84
13.94
19.22
23.27
25.69
26.30
25.22
22.82
19.66
16.16
12.61
9.10
5.64
2.27
-0.89
-3.68
-6.02
-7.92
-9.51
-10.92
-12.33
-13.85
-15.56
-17.52
-19.84
-22.50
-25.36
-28.05
-30.08
-30.83
-29.82
-26.81
-21.86
-15.30
-7.60
0.78
9.42
17.88
25.64
32.08
36.59
38.75
38.51
36.26
32.69
28.62
24.67
21.19
18.26
15.78
13.60
11.61
9.72
7.82
5.86
3.80
1.65
-0.61
-3.08
-6.05
-9.91
-15.02
-21.59
-29.43
-37.96
-46.16
-52.87
-56.99
-57.77
-54.97
-48.92
-40.39
-30.27
-19.44
-8.54
1.94
11.51
19.61
25.60
28.97
29.50
27.47
23.54
18.54
13.21
8.05
3.18
-1.47
-6.08
-10.86
-15.95
-21.46
-27.44
-33.81
-40.36
-46.71
-52.51
-57.61
-62.24
-66.99
-72.58
-79.45
-87.37
-95.40
-102.16
-106.33
-107.14
-104.61
-99.28
-92.07
-83.87
-75.44
-67.42
-60.28
-54.05
-48.08
-41.19
-32.27
-20.95
-8.04
4.76
15.71
23.99
29.95
34.72
39.25
43.49
46.35
46.56
43.53
38.11
32.08
27.08
23.70
21.22
18.30
13.52
6.36
-2.94
-13.49
-24.08
-33.39
-39.76
-41.08
-35.76
-23.78
-7.20
10.16
24.80
35.02
41.43
46.33
52.56
61.12
70.56
78.10
81.09
79.77
76.47
73.71
72.62
73.39
74.54
73.98
70.16
61.91
50.96
39.87
30.17
22.17
16.97
15.12
16.50
20.60
25.57
32.84
44.58
61.97
85.16
115.34
152.23
193.47
234.81
269.68
296.48
316.60
332.47
329.23
296.52
233.30
150.11
76.45
17.21
-27.33
-56.74
-74.47
-81.52
-77.42
-63.12
-41.42
-16.60
4.60
19.46
26.87
26.05
17.09
2.59
-14.14
-30.43
-45.47
-62.10
-81.98
-106.58
-137.11
-173.14
-211.54
-248.13
-279.11
-302.24
-318.04
-326.67
-328.52
-324.43
-315.18
-301.03
-282.13
-258.56
-230.55
-198.95
-164.29
-127.62
-91.05
-57.21
-28.36
-5.70
11.14
23.87
34.75
46.15
59.66
75.52
92.84
109.99
125.26
137.41
145.91
151.01
153.51
154.42
154.52
154.22
153.45
151.77
148.43
142.49
132.93
118.97
100.39
77.91
53.16
28.45
6.04
-12.33
-25.76
-34.03
-37.31
-35.90
-30.27
-21.14
-9.71
2.56
14.14
23.92
31.42
36.63
39.92
41.87
43.18
44.78
47.70
52.93
60.89
71.24
82.78
93.99
103.55
110.91
116.42
121.01
125.68
131.04
137.09
143.32
149.02
153.56
156.61
158.29
159.22
160.44
163.17
168.49
176.78
187.61
199.57
210.51
217.99
219.69
213.84
199.53
176.76
146.49
110.56
71.53
32.28
-4.33
-36.04
-61.49
-80.22
-92.39
-98.52
-99.14
-94.88
-86.77
-76.59
-66.94
-60.83
-60.73
-67.54
-80.28
-96.52
-113.61
-130.03
-145.95
-162.80
-182.15
-204.43
-228.37
-251.27
-270.04
-282.16
-286.15
-281.50
-268.43
-247.84
-221.59
-192.72
-165.26
-143.19
-129.15
-123.15
-122.42
-122.26
-117.78
-105.55
-84.65
-56.50
-23.75
10.86
45.33
78.38
109.01
136.06
158.29
174.90
186.16
193.52
199.06
204.45
210.04
214.62
216.00
211.82
200.41
181.13
154.42
121.68
85.36
48.79
15.93
-9.47
-24.85
-29.67
-25.52
-15.54
-3.34
8.13
17.03
22.63
24.97
24.34
21.28
16.48
10.89
5.48
0.99
-2.37
-4.96
-7.53
-10.84
-15.24
-20.62
-26.40
-31.95
-36.91
-41.29
-45.54
-50.28
-56.09
-63.24
-71.64
-80.79
-89.82
-97.58
-102.94
-104.98
-103.32
-98.24
-90.54
-81.23
-71.27
-61.30
-51.71
-42.79
-34.82
-28.13
-23.00
-19.51
-17.49
-16.62
-16.57
-17.13
-18.32
-20.27
-23.22
-27.34
-32.68
-39.12
-46.43
-54.30
-62.50
-70.93
-79.61
-88.61
-97.92
-107.37
-116.68
-125.56
-133.74
-141.01
-147.10
-151.47
-153.42
-152.13
-147.07
-138.25
-126.35
-112.51
-98.02
-83.75
-70.02
-56.59
-43.15
-29.75
-17.13
-6.54
0.67
3.64
2.35
-2.36
-8.98
-15.75
-20.98
-23.35
-22.35
-18.49
-13.35
-9.10
-7.63
-9.55
-13.72
-17.47
-17.70
-12.04
0.18
17.85
38.66
59.94
79.52
96.02
108.93
118.36
124.89
129.38
132.82
136.25
140.62
146.64
154.50
163.57
172.43
179.10
181.77
179.63
173.41
165.21
157.70
153.05
152.06
154.01
157.08
159.27
159.03
155.73
149.45
140.83
130.70
119.95
109.32
99.34
90.19
81.72
73.63
65.61
57.58
49.71
42.23
35.30
28.77
22.13
14.59
5.31
-6.38
-20.53
-36.38
-52.09
-64.98
-72.14
-71.35
-62.07
-45.82
-25.89
-6.28
9.61
20.05
25.26
26.96
27.47
28.76
32.00
37.35
44.23
51.50
57.73
61.49
61.70
57.83
49.95
38.61
24.61
8.89
-7.52
-23.46
-37.93
-50.40
-61.27
-71.92
-84.15
-99.19
-116.79
-134.95
-150.48
-160.16
-161.77
-154.42
-138.29
-113.90
-81.98
-43.62
-0.85
43.06
83.85
117.05
139.02
147.62
142.74
126.24
101.88
75.05
52.10
39.18
40.54
57.11
85.97
121.16
155.56
183.05
200.11
206.08
202.53
191.98
176.80
158.60
138.37
116.84
94.86
73.42
53.35
34.74
16.56
-2.90
-25.07
-49.42
-72.51
-88.16
-89.38
-71.25
-33.27
19.79
79.48
136.42
183.16
215.65
232.94
236.01
226.31
205.23
174.26
135.34
90.94
43.60
-4.69
-52.83
-100.55
-147.88
-194.38
-238.64
-278.22
-310.03
-331.19
-340.03
-336.83
-323.97
-305.18
-284.12
-263.01
-242.02
-219.96
-196.10
-171.77
-150.81
-138.00
-136.59
-146.30
-163.32
-182.50
-200.16
-215.86
-231.65
-249.30
-267.63
-281.71
-284.74
-271.46
-240.95
-196.96
-145.75
-92.86
-40.97
9.92
60.59
110.36
156.22
193.81
219.72
233.51
238.61
241.18
247.84
263.40
289.46
324.31
363.89
403.30
438.14
465.44
483.95
493.84
495.97
491.11
479.50
460.90
435.15
402.85
365.67
326.18
286.98
249.76
214.77
180.87
146.35
109.79
70.86
30.41
-9.91
-48.34
-83.74
-116.00
-146.09
-175.63
-206.53
-240.74
-280.17
-326.37
-379.71
-438.27
-497.06
-548.45
-584.26
-598.78
-591.15
-566.01
-531.62
-496.29
-465.35
-439.78
-417.31
-394.72
-369.91
-342.48
-312.88
-281.25
-246.86
-208.80
-167.28
-124.27
-83.32
-48.25
-21.54
-3.43
7.87
15.25
21.36
27.85
35.19
42.97
50.60
57.67
64.13
70.13
75.97
81.83
87.76
93.65
99.20
104.14
108.40
112.29
116.32
120.86
125.62
129.63
131.59
130.68
127.16
122.47
118.70
117.61
119.94
125.17
131.91
138.66
144.20
147.87
149.40
148.80
146.23
142.03
136.62
130.28
123.13
115.22
106.95
99.24
93.45
90.49
89.73
88.25
80.97
62.09
27.16
-25.07
-92.16
-168.78
-248.44
-325.16
-394.19
-451.88
-495.31
-522.37
-532.36
-526.78
-509.41
-485.43
-459.82
-435.67
-413.56
-392.01
-368.85
-342.48
-312.67
-280.45
-247.56
-215.55
-185.50
-157.70
-131.85
-107.44
-83.75
-59.88
-34.71
-7.31
22.32
52.60
80.37
101.74
113.64
115.42
109.23
99.13
89.35
82.41
78.43
75.67
71.93
65.70
56.84
46.09
34.35
22.29
10.53
0.17
-7.01
-9.11
-4.98
5.12
19.22
34.62
49.00
61.33
71.90
81.57
90.76
98.88
104.75
107.18
105.97
101.97
96.66
91.43
87.23
84.55
83.65
84.55
86.74
89.02
89.74
87.29
80.96
71.28
59.71
47.96
37.10
27.27
17.97
8.67
-0.72
-9.65
-17.16
-22.49
-25.22
-25.35
-23.14
-18.77
-12.03
-2.20
11.74
30.26
52.48
75.89
96.78
111.64
118.68
118.58
114.08
108.59
104.60
102.83
102.41
101.88
100.23
97.35
93.76
90.04
86.31
82.22
77.27
71.17
64.03
56.16
48.01
39.74
31.20
22.00
11.84
0.81
-10.29
-20.02
-26.44
-27.59
-22.22
-10.30
6.72
26.14
44.81
60.19
71.06
77.74
81.60
84.13
86.20
87.82
88.41
87.55
85.33
82.48
79.86
77.95
76.58
75.09
72.68
68.91
63.81
57.79
51.42
45.09
38.91
32.74
26.36
19.55
12.15
4.09
-4.74
-14.43
-24.88
-35.66
-45.91
-54.41
-59.93
-61.53
-58.89
-52.34
-42.72
-31.06
-18.38
-5.43
7.15
18.82
29.08
37.51
43.95
48.61
52.03
54.91
57.84
61.08
64.48
67.56
69.80
70.77
70.32
68.57
65.78
62.30
58.38
54.13
49.46
44.27
38.41
31.91
24.96
17.73
10.37
2.96
-4.31
-11.05
-16.72
-20.82
-23.17
-23.95
-23.53
-22.15
-19.72
-15.79
-9.99
-2.31
6.66
15.88
24.29
31.10
36.05
39.22
40.87
41.32
40.83
39.73
38.41
37.19
36.23
35.44
34.42
32.57
29.42
24.71
18.63
11.70
4.64
-1.96
-7.70
-12.55
-16.74
-20.64
-24.77
-29.63
-35.56
-42.55
-50.06
-57.05
-62.22
-64.40
-62.93
-57.79
-49.57
-39.17
-27.51
-15.34
-3.23
8.38
18.96
28.02
35.03
39.62
41.68
41.33
38.88
34.72
29.20
22.68
15.58
8.47
2.03
-3.10
-6.55
-8.35
-8.98
-9.22
-9.85
-11.42
-14.13
-17.87
-22.44
-27.67
-33.55
-40.23
-47.89
-56.68
-66.62
-77.49
-88.76
-99.48
-108.30
-113.69
-114.29
-109.31
-98.81
-83.70
-65.41
-45.47
-25.09
-5.05
14.20
32.29
48.79
63.24
75.41
85.49
93.98
101.33
107.51
111.92
113.59
111.88
106.93
99.83
92.13
85.15
79.34
74.24
68.91
62.61
55.20
47.16
39.21
31.84
25.10
18.67
12.11
5.12
-2.34
-10.20
-18.28
-26.41
-34.40
-41.90
-48.34
-52.99
-55.17
-54.46
-50.87
-44.88
-37.32
-29.04
-20.74
-12.77
-5.19
2.07
9.01
15.44
20.96
25.13
27.67
28.60
28.35
27.60
27.07
27.22
28.17
29.64
31.25
32.64
33.74
34.70
35.82
37.45
39.92
43.55
48.63
55.45
64.02
73.94
84.28
93.87
101.80
108.02
113.49
119.69
127.64
136.97
145.68
150.82
149.69
141.00
125.33
104.64
81.36
57.62
34.88
14.11
-3.97
-18.85
-30.48
-39.47
-47.05
-54.53
-62.78
-71.91
-81.30
-89.97
-97.05
-101.95
-104.47
-104.65
-102.72
-99.16
-94.81
-90.79
-88.36
-88.52
-91.68
-97.50
-105.01
-112.92
-119.85
-124.50
-125.70
-122.72
-115.63
-105.59
-94.64
-84.82
-76.87
-69.25
-58.37
-40.17
-12.49
23.14
61.49
95.44
118.85
128.75
125.71
112.40
91.51
64.53
32.20
-4.00
-40.67
-72.47
-93.84
-101.39
-95.30
-79.29
-58.82
-38.80
-22.01
-8.83
1.78
11.05
19.42
26.47
31.42
33.82
33.80
31.95
29.06
25.64
21.78
17.16
11.38
4.16
-4.44
-13.97
-23.62
-32.44
-39.51
-44.09
-45.78
-44.57
-40.80
-35.07
-28.03
-20.24
-12.11
-3.89
4.18
11.87
18.87
24.88
29.65
33.07
35.21
36.26
36.46
36.00
35.00
33.53
31.61
29.38
26.98
24.57
22.19
19.73
17.03
14.05
11.02
8.53
7.38
8.28
11.50
16.70
22.96
29.07
34.02
37.46
39.92
42.82
48.19
58.10
73.99
95.85
121.89
148.57
171.53
186.82
192.28
188.11
176.53
160.75
143.58
126.53
109.69
92.16
72.49
49.07
20.30
-14.86
-55.98
-100.19
-142.11
-175.06
-193.25
-194.11
-179.26
-153.83
-124.35
-96.60
-74.47
-60.11
-54.67
-58.75
-72.10
-92.84
-117.24
-140.52
-158.52
-169.19
-173.14
-172.71
-170.25
-166.59
-160.49
-149.42
-131.00
-104.38
-70.91
-33.84
2.78
35.40
62.00
82.46
98.21
111.29
123.11
133.77
142.02
146.00
144.34
136.88
124.62
108.95
90.69
69.62
44.74
15.38
-17.80
-52.49
-85.29
-113.14
-134.50
-149.90
-161.37
-171.24
-180.97
-190.70
-199.55
-206.41
-210.51
-211.58
-209.45
-203.64
-193.23
-177.27
-155.51
-128.79
-99.17
-69.26
-41.39
-16.94
3.78
21.36
36.61
50.08
61.80
71.26
77.61
80.09
78.34
72.65
64.07
54.27
45.10
38.15
34.23
33.18
33.87
34.64
33.90
30.59
24.52
16.27
6.93
-2.35
-10.63
-17.29
-21.97
-24.42
-24.42
-21.84
-16.75
-9.57
-1.03
8.06
17.02
25.52
33.59
41.41
49.03
56.17
62.20
66.32
67.99
67.11
64.14
59.96
55.43
51.20
47.47
44.08
40.79
37.43
34.02
30.72
27.71
25.02
22.56
20.13
17.52
14.56
11.19
7.39
3.16
-1.47
-6.44
-11.52
-16.28
-20.03
-21.98
-21.42
-18.02
-12.01
-4.14
4.54
13.02
20.57
26.74
31.19
33.61
33.65
31.19
26.59
20.72
14.80
9.96
6.83
5.37
5.05
5.20
5.29
5.04
4.39
3.37
1.99
0.30
-1.51
-3.13
-4.22
-4.56
-4.20
-3.53
-3.11
-3.48
-4.88
-7.17
-9.68
-11.44
-11.37
-8.60
-2.77
5.84
16.34
27.42
37.75
46.34
52.77
57.22
60.37
63.08
66.14
70.14
75.40
81.89
89.16
96.17
101.38
103.20
100.85
95.15
88.74
85.20
87.38
95.72
107.36
116.79
117.71
105.00
75.97
30.64
-28.67
-97.56
-169.75
-237.41
-292.49
-328.71
-343.61
-339.46
-322.24
-299.35
-276.90
-257.96
-242.20
-226.93
-208.68
-184.85
-154.62
-119.16
-80.93
-42.57
-6.09
27.33
56.72
80.19
94.60
96.69
85.41
63.96
39.82
22.29
18.31
29.11
49.62
71.03
85.17
88.09
81.05
68.86
56.83
48.03
42.72
39.28
36.14
33.02
30.97
31.46
35.30
42.29
51.49
61.90
72.95
84.56
96.80
109.50
122.07
133.80
144.23
153.41
161.81
169.97
178.03
185.55
191.75
196.06
198.65
200.53
203.21
207.91
214.72
222.17
227.30
226.24
215.21
191.51
154.58
106.69
53.20
1.73
-39.45
-63.99
-69.72
-59.76
-41.83
-25.90
-21.06
-32.78
-61.67
-103.63
-151.50
-197.09
-233.12
-254.48
-258.92
-246.94
-221.24
-185.85
-145.04
-102.49
-60.73
-20.98
16.67
52.87
88.50
124.25
160.10
195.04
227.00
253.14
270.62
277.34
272.83
258.35
236.47
210.14
181.64
152.18
121.97
90.90
59.14
27.38
-3.36
-32.13
-58.28
-81.35
-100.76
-115.60
-124.56
-126.39
-120.49
-107.37
-88.86
-67.98
-48.31
-33.11
-24.24
-21.52
-22.50
-23.08
-18.68
-5.83
16.34
45.36
75.59
99.80
111.27
105.85
82.94
45.23
-2.68
-55.82
-110.08
-162.96
-213.61
-262.51
-310.67
-358.26
-403.32
-441.46
-467.31
-477.29
-472.66
-460.19
-449.78
-449.52
-461.25
-479.27
-493.12
-492.88
-474.03
-438.65
-392.91
-342.77
-290.87
-236.39
-177.92
-116.67
-57.67
-8.25
25.64
42.51
46.11
43.63
42.16
45.51
53.10
61.30
65.99
65.17
59.78
53.00
48.37
48.13
52.40
59.79
68.22
76.03
82.51
87.75
92.45
97.58
104.12
112.61
122.75
133.03
141.04
144.37
141.70
133.65
122.52
111.31
102.33
96.31
92.52
89.69
87.04
84.68
83.19
82.82
82.89
81.95
78.53
71.91
62.41
51.07
39.00
27.10
15.72
4.99
-4.85
-13.30
-19.59
-22.98
-23.05
-19.88
-13.96
-6.24
2.17
10.18
16.86
21.62
24.32
25.22
24.87
23.97
23.16
22.95
23.62
25.30
28.04
31.85
36.73
42.52
48.80
54.86
59.86
63.09
64.14
62.90
59.51
54.16
47.09
38.81
30.19
22.57
17.35
15.54
17.27
21.68
27.35
32.88
37.49
41.13
44.12
46.71
48.65
49.24
47.66
43.53
37.06
29.07
20.60
12.55
5.41
-0.67
-5.77
-9.94
-13.12
-15.24
-16.26
-16.35
-15.90
-15.49
-15.71
-17.09
-19.93
-24.26
-29.87
-36.26
-42.77
-48.59
-52.90
-54.98
-54.30
-50.71
-44.40
-35.96
-26.14
-15.78
-5.61
3.78
11.97
18.69
23.81
27.34
29.47
30.57
31.07
31.36
31.68
32.03
32.21
31.95
30.95
28.99
25.97
21.92
16.95
11.26
5.02
-1.64
-8.60
-15.77
-23.03
-30.17
-36.93
-43.03
-48.17
-52.15
-54.81
-56.03
-55.68
-53.74
-50.23
-45.28
-39.11
-32.04
-24.46
-16.89
-9.92
-4.10
0.21
2.93
4.26
4.57
4.21
3.33
1.89
-0.34
-3.51
-7.61
-12.39
-17.48
-22.50
-27.25
-31.67
-35.92
-40.21
-44.83
-50.05
-56.11
-63.05
-70.46
-77.57
-83.41
-87.16
-88.51
-87.64
-85.00
-80.85
-75.12
-67.44
-57.59
-45.96
-33.64
-22.17
-13.01
-7.05
-4.48
-4.99
-7.99
-12.83
-18.69
-24.41
-28.51
-29.46
-26.18
-18.12
-5.56
10.79
30.01
51.17
73.33
95.39
116.16
134.68
150.64
164.64
178.00
192.10
207.61
224.17
240.67
255.83
268.85
279.66
288.51
295.64
300.96
304.21
305.33
304.71
303.03
300.82
298.02
293.84
287.10
276.89
263.10
246.52
228.57
210.57
193.20
176.08
157.84
136.64
110.88
79.78
43.72
4.00
-37.72
-80.04
-122.18
-163.98
-205.45
-246.23
-285.28
-320.97
-351.49
-375.44
-391.98
-400.75
-401.56
-394.20
-378.65
-355.48
-326.21
-293.38
-260.00
-228.95
-202.35
-181.37
-166.47
-157.74
-154.98
-157.53
-163.92
-171.98
-179.45
-184.89
-188.31
-190.88
-193.99
-198.03
-201.65
-202.06
-196.15
-181.81
-158.80
-128.64
-93.80
-56.61
-18.52
19.89
58.47
96.84
133.80
167.17
193.95
211.11
216.80
211.42
198.02
181.56
167.30
159.18
158.96
166.39
180.01
197.90
217.74
236.68
251.32
258.42
256.15
245.14
228.59
211.30
197.84
191.11
191.77
198.69
210.04
224.23
240.32
258.00
277.17
297.52
318.18
337.65
353.92
364.76
368.01
361.91
345.29
317.88
280.45
234.82
183.78
130.38
77.42
26.94
-19.94
-62.59
-100.54
-133.25
-160.11
-180.89
-196.02
-206.68
-214.64
-221.78
-229.48
-238.19
-247.14
-254.70
-259.03
-259.03
-255.07
-249.23
-244.71
-244.71
-251.16
-263.97
-281.11
-299.27
-314.85
-324.78
-326.93
-320.24
-304.74
-281.32
-251.53
-217.20
-180.04
-141.25
-101.61
-61.77
-22.65
14.36
47.61
75.69
97.94
114.48
125.82
132.00
131.93
123.08
102.15
66.57
16.22
-45.24
-110.59
-170.78
-217.75
-246.86
-257.93
-254.62
-242.44
-226.61
-210.48
