1593783290.00
64.000000
-0.00
-0.00
-0.00
-0.00
-0.00
-0.00
-0.00
-0.00
-0.00
-0.00
0.00
0.01
0.01
-0.00
-0.03
-0.05
-0.05
0.00
0.13
0.36
0.66
1.01
1.37
1.72
2.06
2.40
2.79
3.24
3.80
4.42
5.06
5.66
6.20
6.68
7.15
7.68
8.31
9.14
10.09
11.04
11.88
12.56
13.14
13.76
14.65
15.96
17.91
20.32
22.90
25.38
27.58
29.57
31.68
34.32
37.81
42.54
48.15
54.10
59.83
64.97
69.58
74.14
79.34
85.71
93.76
103.00
112.62
121.73
129.77
136.75
143.30
150.75
157.77
166.64
177.95
191.79
206.97
220.57
228.25
225.36
208.53
176.87
132.76
80.05
23.07
-34.94
-92.44
-149.16
-205.23
-260.37
-313.74
-363.87
-409.83
-450.91
-486.50
-515.74
-537.23
-549.22
-549.96
-538.37
-514.21
-478.67
-433.88
-382.45
-327.02
-269.84
-212.63
-156.66
-102.95
-52.37
-5.90
35.58
71.43
101.35
125.50
144.38
158.69
169.15
176.37
180.75
182.57
182.07
179.51
175.23
169.65
163.18
156.15
148.81
141.30
133.69
126.02
118.33
110.69
103.16
95.80
88.68
81.83
75.25
68.95
62.95
57.25
51.86
46.78
42.03
37.59
33.45
29.61
26.07
22.81
19.83
17.11
14.67
12.48
10.54
8.83
7.35
6.07
4.97
4.05
3.27
2.62
2.09
1.65
1.30
1.01
0.79
0.61
0.47
0.37
0.28
0.22
0.18
0.15
0.13
0.12
0.12
0.12
0.14
0.16
0.18
0.21
0.25
0.28
0.32
0.37
0.41
0.45
0.50
0.55
0.59
0.64
0.71
0.78
0.86
0.95
1.02
1.07
1.10
1.12
1.14
1.20
1.30
1.46
1.66
1.87
2.08
2.27
2.45
2.65
2.90
3.24
3.65
4.12
4.60
5.03
5.41
5.76
6.13
6.61
7.25
8.05
8.92
9.75
10.42
10.89
11.23
11.60
12.17
13.08
14.30
15.64
16.78
17.40
17.28
16.44
15.05
13.36
11.57
9.64
7.28
4.10
-0.28
-5.89
-12.41
-19.16
-25.41
-30.58
-34.45
-37.18
-39.22
-41.09
-43.27
-46.18
-49.99
-54.39
-58.35
-60.21
-58.10
-50.87
-38.74
-23.54
-8.05
4.90
13.60
17.92
18.98
18.45
17.69
17.35
17.38
17.44
17.21
16.64
15.87
15.09
14.41
13.79
13.06
12.00
10.52
8.77
7.11
5.91
5.35
5.21
5.04
4.24
2.55
0.05
-2.77
-5.31
-7.14
-8.15
-8.49
-8.45
-8.22
-7.86
-7.45
-7.16
-7.34
-8.34
-10.25
-12.79
-15.24
-16.56
-15.52
-11.23
-3.64
6.38
17.10
26.47
32.63
34.49
32.04
26.10
18.05
9.19
0.55
-7.31
-14.21
-20.30
-26.04
-32.28
-40.17
-50.94
-65.31
-82.97
-102.44
-121.33
-137.06
-147.61
-152.07
-150.63
-144.22
-133.91
-120.41
-103.99
-84.74
-63.01
-39.70
-16.25
5.59
24.42
39.50
50.94
59.45
65.87
70.87
74.68
77.30
78.66
78.74
77.67
75.61
72.74
69.29
65.57
62.16
59.82
59.30
61.15
65.38
71.43
78.28
84.75
89.97
93.60
95.82
96.98
97.23
96.24
93.31
87.78
79.56
69.42
58.79
49.34
42.42
38.58
37.53
38.31
39.78
41.06
41.72
41.95
42.22
43.06
44.64
46.77
48.96
50.75
51.91
52.46
52.47
51.76
49.86
46.18
40.50
33.22
25.26
17.71
11.30
6.15
1.79
-2.47
-7.13
-12.29
-17.73
-23.18
-28.43
-33.46
-38.18
-42.44
-45.96
-48.49
-50.04
-50.89
-51.45
-51.97
-52.33
-51.84
-49.45
-44.07
-35.06
-22.53
-7.45
8.71
24.44
38.64
50.92
61.44
70.61
78.77
86.00
92.37
98.06
103.63
109.77
117.03
125.31
133.72
140.83
145.08
145.35
141.35
133.60
123.14
111.08
98.29
85.14
71.55
57.07
41.05
22.77
1.68
-22.30
-48.60
-75.89
-102.40
-126.31
-146.41
-162.35
-174.54
-183.67
-190.29
-194.51
-196.13
-195.11
-191.83
-187.08
-181.84
-176.71
-171.80
-166.74
-160.98
-154.23
-146.58
-138.52
-130.61
-123.21
-116.07
-108.26
-98.30
-84.70
-66.58
-44.38
-19.95
3.89
24.26
39.09
47.67
50.53
48.90
44.18
37.46
29.56
21.16
12.92
5.52
-0.49
-4.91
-7.82
-9.61
-10.66
-11.29
-11.58
-11.33
-10.26
-8.14
-5.12
-1.75
1.16
2.87
3.08
1.99
0.11
-2.13
-4.58
-7.43
-10.90
-14.92
-19.09
-22.81
-25.74
-28.03
-30.38
-33.64
-38.32
-44.33
-50.94
-57.27
-62.75
-67.38
-71.64
-76.09
-80.85
-85.37
-88.52
-88.99
-85.67
-77.87
-65.35
-48.25
-27.16
-3.28
21.40
44.25
62.50
74.13
78.63
77.22
72.44
67.20
63.74
63.01
64.66
67.67
71.01
74.19
77.29
80.64
84.35
88.00
90.73
91.63
90.23
86.71
81.83
76.57
71.58
66.93
62.09
56.44
49.67
42.09
34.58
28.17
23.53
20.63
18.78
16.93
14.20
10.14
4.96
-0.72
-6.14
-10.66
-14.03
-16.21
-17.43
-18.03
-18.43
-19.09
-20.48
-23.05
-27.04
-32.38
-38.47
-44.20
-48.15
-48.98
-45.90
-39.01
-29.36
-18.57
-8.29
0.33
6.93
11.91
15.96
19.64
23.13
26.27
28.76
30.46
31.50
32.23
32.95
33.79
34.55
34.92
34.64
33.79
32.77
32.13
32.31
33.23
34.40
35.03
34.47
32.49
29.40
25.79
22.16
18.69
15.11
11.02
6.21
0.75
-4.94
-10.44
-15.46
-20.06
-24.53
-29.14
-34.05
-39.22
-44.51
-49.84
-55.26
-60.94
-66.99
-73.19
-78.93
-83.23
-84.92
-83.10
-77.41
-68.19
-56.43
-43.37
-30.26
-18.00
-7.15
2.08
9.63
15.61
20.25
23.88
26.89
29.62
32.23
34.63
36.57
37.74
37.99
37.43
36.36
35.17
34.18
33.49
32.93
32.14
30.69
28.29
24.87
20.67
16.08
11.55
7.44
3.90
0.87
-1.86
-4.59
-7.62
-11.20
-15.35
-19.92
-24.52
-28.75
-32.35
-35.35
-38.13
-41.23
-45.10
-49.82
-55.09
-60.16
-64.09
-65.94
-64.99
-60.91
-53.80
-44.18
-32.91
-21.06
-9.61
0.68
9.43
16.64
22.62
27.77
32.38
36.52
40.05
42.71
44.30
44.78
44.34
43.26
41.85
40.35
38.89
37.59
36.53
35.75
35.16
34.54
33.57
31.93
29.48
26.29
22.65
18.95
15.52
12.61
10.30
8.53
7.05
5.50
3.42
0.44
-3.49
-8.08
-12.78
-17.03
-20.57
-23.44
-25.94
-28.30
-30.55
-32.56
-34.20
-35.65
-37.47
-40.33
-44.72
-50.47
-56.72
-62.07
-65.09
-64.71
-60.57
-53.09
-43.21
-32.10
-20.83
-10.21
-0.77
7.25
13.76
18.85
22.74
25.77
28.33
30.69
32.87
34.65
35.69
35.78
35.01
33.76
32.55
31.75
31.40
31.24
30.83
29.84
28.22
26.21
24.22
22.59
21.44
20.62
19.78
18.60
16.87
14.61
11.93
9.01
5.89
2.50
-1.32
-5.60
-10.28
-15.12
-19.82
-24.15
-28.04
-31.54
-34.76
-37.81
-40.77
-43.66
-46.58
-49.63
-52.93
-56.45
-59.83
-62.32
-62.88
-60.49
-54.53
-45.15
-33.24
-20.25
-7.64
3.56
12.94
20.68
27.20
32.88
37.88
42.19
45.72
48.42
50.32
51.41
51.73
51.30
50.19
48.51
46.35
43.80
40.92
37.86
34.81
32.07
29.82
28.02
26.38
24.52
22.13
19.20
16.01
12.91
10.18
7.79
5.50
2.98
-0.06
-3.63
-7.59
-11.63
-15.50
-18.97
-21.98
-24.66
-27.24
-30.03
-33.29
-37.19
-41.69
-46.57
-51.37
-55.48
-58.12
-58.49
-55.96
-50.29
-41.82
-31.47
-20.55
-10.34
-1.76
4.92
10.04
14.24
18.13
21.99
25.75
29.11
31.78
33.64
34.82
35.60
36.26
37.02
38.03
39.32
40.88
42.53
44.03
45.06
45.49
45.43
45.25
45.36
45.96
46.90
47.71
47.83
46.95
45.08
42.64
40.23
38.46
37.80
38.49
40.27
42.09
42.00
37.47
26.32
7.71
-16.97
-44.37
-70.20
-90.81
-104.41
-111.35
-113.49
-113.10
-111.79
-110.15
-107.86
-104.27
-98.73
-90.92
-80.89
-69.13
-56.59
-44.54
-34.25
-26.51
-21.44
-18.40
-16.23
-13.80
-10.22
-5.07
1.63
9.56
18.17
26.78
34.65
41.08
45.58
48.02
48.64
47.98
46.58
44.80
42.66
39.98
36.48
31.98
26.54
20.42
14.04
7.94
2.63
-1.37
-3.69
-4.20
-3.21
-1.41
0.19
0.65
-0.55
-3.37
-7.17
-11.10
-14.46
-17.03
-19.08
-21.25
-24.11
-27.92
-32.53
-37.57
-42.65
-47.50
-52.05
-56.09
-59.13
-60.41
-59.05
-54.49
-46.82
-36.87
-25.89
-15.17
-5.62
2.38
8.89
14.24
18.75
22.66
26.03
28.87
31.08
32.55
33.20
32.97
31.87
30.00
27.52
24.64
21.57
18.57
15.92
13.93
12.85
12.84
13.88
15.86
18.56
21.67
24.84
27.67
29.74
30.73
30.48
29.06
26.69
23.76
20.55
17.25
13.85
10.26
6.36
2.15
-2.28
-6.90
-11.73
-17.02
-23.11
-30.14
-37.83
-45.34
-51.47
-54.93
-54.83
-50.93
-43.71
-34.13
-23.39
-12.60
-2.56
6.24
13.70
19.92
25.16
29.63
33.42
36.56
38.95
40.52
41.29
41.33
40.71
39.55
37.96
36.09
34.20
32.45
30.94
29.56
28.13
26.50
24.66
22.79
21.05
19.55
18.10
16.45
14.33
11.63
8.49
5.15
1.91
-1.13
-4.01
-6.88
-9.85
-12.92
-15.96
-18.81
-21.40
-23.83
-26.33
-29.04
-31.99
-34.95
-37.71
-40.24
-42.81
-45.84
-49.53
-53.55
-56.85
-58.07
-56.04
-50.31
-41.35
-30.31
-18.57
-7.23
3.02
11.88
19.28
25.16
29.54
32.49
34.20
35.00
35.20
35.05
34.69
34.18
33.54
32.81
32.05
31.34
30.76
30.29
29.84
29.22
28.23
26.78
24.89
22.75
20.61
18.64
16.80
14.91
12.67
9.86
6.49
2.86
-0.58
-3.40
-5.44
-6.86
-8.12
-9.76
-12.09
-15.08
-18.39
-21.60
-24.44
-26.93
-29.34
-32.00
-35.13
-38.79
-42.92
-47.41
-52.06
-56.44
-59.75
-60.89
-58.75
-52.72
-43.03
-30.78
-17.71
-5.43
4.94
13.04
19.15
23.78
27.32
29.91
31.45
31.87
31.30
30.15
28.97
28.24
28.10
28.33
28.43
27.90
26.55
24.57
22.49
20.87
19.99
19.74
19.65
19.24
18.22
16.70
15.00
13.45
12.14
10.85
9.23
6.99
4.15
1.06
-1.77
-3.98
-5.55
-6.79
-8.20
-10.17
-12.83
-16.11
-19.87
-24.04
-28.65
-33.77
-39.34
-45.08
-50.44
-54.64
-56.81
-56.16
-52.22
-45.06
-35.39
-24.40
-13.38
-3.43
4.89
11.58
16.97
21.44
25.22
28.33
30.70
32.29
33.18
33.55
33.55
33.31
32.90
32.39
31.88
31.49
31.26
31.17
31.09
30.88
30.44
29.67
28.58
27.16
25.44
23.47
21.35
19.19
17.05
14.94
12.79
10.52
8.06
5.47
2.81
0.15
-2.56
-5.42
-8.51
-11.83
-15.25
-18.56
-21.56
-24.16
-26.36
-28.25
-30.00
-31.82
-33.96
-36.56
-39.60
-42.73
-45.26
-46.34
-45.16
-41.33
-35.04
-26.96
-18.10
-9.47
-1.81
4.51
9.43
13.20
16.17
18.67
20.89
22.84
24.38
25.29
25.50
25.03
24.15
23.19
22.47
22.15
22.23
22.59
23.02
23.26
23.02
22.07
20.27
17.65
14.46
11.08
7.94
5.37
3.51
2.30
1.56
1.05
0.59
0.12
-0.38
-0.86
-1.29
-1.67
-2.12
-2.79
-3.86
-5.45
-7.53
-10.01
-12.68
-15.38
-18.03
-20.66
-23.43
-26.54
-30.08
-34.00
-37.95
-41.34
-43.48
-43.73
-41.68
-37.28
-30.75
-22.55
-13.34
-3.83
5.22
13.14
19.48
24.18
27.48
29.87
31.85
33.74
35.62
37.34
38.68
39.45
39.60
39.15
38.25
37.07
35.77
34.52
33.44
32.56
31.90
31.36
30.78
29.93
28.55
26.42
23.49
19.96
16.25
12.91
10.33
8.62
7.42
6.10
3.92
0.46
-4.29
-9.79
-15.29
-20.17
-24.21
-27.63
-30.97
-34.73
-39.16
-44.20
-49.56
-54.77
-59.29
-62.45
-63.47
-61.59
-56.47
-48.40
-38.35
-27.72
-17.84
-9.51
-2.87
2.49
7.09
11.26
15.05
18.23
20.58
22.05
22.78
23.09
23.25
23.42
23.58
23.65
23.58
23.41
23.34
23.59
24.27
25.30
26.39
27.15
27.30
26.73
25.53
23.93
22.13
20.25
18.30
16.17
13.71
10.81
7.48
3.81
-0.01
-3.79
-7.40
-10.86
-14.28
-17.79
-21.51
-25.41
-29.44
-33.51
-37.56
-41.63
-45.74
-49.94
-54.31
-58.90
-63.71
-68.61
-73.17
-76.64
-78.02
-76.41
-71.22
-62.42
-50.58
-36.84
-22.68
-9.62
1.04
8.51
12.64
13.99
13.58
12.59
11.90
11.86
12.33
12.78
12.73
11.91
10.33
8.20
5.84
3.40
1.02
-1.22
-3.16
-4.51
-4.85
-3.84
-1.44
2.02
5.87
9.37
12.07
13.97
15.51
17.24
19.43
21.92
24.15
25.57
25.84
25.06
23.61
21.89
20.13
18.25
16.06
13.36
10.17
6.68
3.23
0.13
-2.45
-4.56
-6.44
-8.44
-10.91
-14.11
-18.05
-22.60
-27.38
-31.91
-35.59
-37.75
-37.74
-35.09
-29.71
-22.00
-12.81
-3.29
5.45
12.62
18.02
21.88
24.76
27.22
29.57
31.81
33.72
35.01
35.61
35.62
35.32
34.98
34.67
34.27
33.60
32.52
31.15
29.77
28.74
28.17
27.96
27.70
26.96
25.40
23.00
20.03
16.89
14.04
11.71
9.91
8.45
7.05
5.48
3.64
1.56
-0.66
-2.94
-5.32
-7.82
-10.45
-13.14
-15.73
-18.16
-20.50
-23.05
-26.14
-29.96
-34.29
-38.51
-41.71
-43.01
-41.90
-38.42
-33.18
-27.10
-21.08
-15.77
-11.41
-7.89
-4.85
-1.97
0.97
4.03
7.14
10.21
13.08
15.64
17.76
19.43
20.71
21.79
22.97
24.45
26.30
28.35
30.25
31.61
32.09
31.58
30.16
28.06
25.53
22.82
20.05
17.21
14.17
10.77
6.95
2.75
-1.59
-5.80
-9.66
-13.12
-16.35
-19.63
-23.24
-27.34
-31.99
-37.10
-42.50
-47.92
-53.14
-58.01
-62.61
-67.22
-72.24
-77.94
-84.14
-90.13
-94.74
-96.71
-95.08
-89.47
-80.22
-68.19
-54.49
-40.18
-26.21
-13.33
-2.13
6.98
13.80
18.48
21.47
23.45
25.03
26.47
27.66
28.25
28.00
27.09
26.10
25.69
26.32
27.86
29.80
31.60
33.03
34.29
35.81
37.86
40.26
42.48
43.97
44.51
44.35
44.04
44.12
44.84
46.14
47.71
49.24
50.54
51.52
52.03
51.83
50.58
47.88
43.53
37.58
30.25
21.99
13.30
4.60
-3.81
-11.83
-19.52
-27.08
-34.76
-42.76
-51.04
-59.27
-66.82
-72.89
-76.73
-77.84
-76.03
-71.44
-64.40
-55.34
-44.75
-33.31
-21.74
-10.80
-1.06
7.21
14.08
19.77
24.53
28.35
31.07
32.55
32.84
32.34
31.64
31.32
31.68
32.62
33.80
34.83
35.47
35.65
35.48
35.12
34.69
34.24
33.68
32.92
31.84
30.42
28.64
26.59
24.34
21.98
19.59
17.18
14.78
12.30
9.65
6.72
3.47
-0.06
-3.78
-7.54
-11.22
-14.71
-18.03
-21.24
-24.52
-28.08
-32.07
-36.36
-40.42
-43.36
-44.13
-42.00
-36.85
-29.31
-20.51
-11.68
-3.73
3.01
8.66
13.58
18.08
22.23
25.91
28.95
31.36
33.28
35.04
36.93
39.10
41.45
43.71
45.65
47.12
48.19
49.03
49.81
50.63
51.49
52.34
53.08
53.57
53.59
52.93
51.57
49.70
47.76
46.24
45.51
45.57
46.07
46.42
45.93
43.95
39.91
33.49
24.76
14.41
3.78
-5.46
-11.95
-15.27
-16.24
-16.58
-18.08
-21.79
-27.51
-34.03
-39.75
-43.48
-44.79
-44.06
-41.98
-39.18
-36.01
-32.70
-29.51
-26.94
-25.62
-26.07
-28.40
-32.18
-36.52
-40.42
-43.11
-44.35
-44.43
-43.97
-43.58
-43.51
-43.60
-43.32
-41.97
-38.98
-34.02
-27.15
-18.81
-9.76
-0.93
6.75
12.61
16.36
18.12
18.35
17.66
16.69
15.86
15.31
14.83
13.93
11.98
8.55
3.60
-2.39
-8.51
-13.81
-17.65
-19.98
-21.26
-22.26
-23.74
-26.23
-29.85
-34.39
-39.28
-43.73
-46.94
-48.27
-47.43
-44.57
-40.24
-35.13
-29.96
-25.18
-21.04
-17.50
-14.39
-11.48
-8.54
-5.35
-1.77
2.30
6.91
12.04
17.57
23.24
28.70
33.61
37.78
41.22
44.11
46.69
49.00
50.86
52.03
52.28
51.66
50.42
48.80
46.86
44.39
41.03
36.52
30.94
24.72
18.47
12.81
8.09
4.46
1.91
0.34
-0.39
-0.51
-0.37
-0.51
-1.53
-3.97
-8.13
-13.95
-20.95
-28.23
-34.68
-39.20
-41.04
-39.93
-36.22
-30.61
-23.97
-17.09
-10.59
-4.96
-0.59
2.20
3.32
3.00
1.91
0.95
0.89
2.08
4.29
6.91
9.29
11.21
12.97
15.21
18.51
23.02
28.32
33.65
38.14
41.21
42.56
42.13
39.97
36.20
31.03
24.91
18.55
12.66
7.85
4.29
1.80
-0.07
-1.79
-3.56
-5.29
-6.84
-8.08
-9.16
-10.52
-12.66
-16.03
-20.73
-26.44
-32.45
-37.75
-41.33
-42.41
-40.72
-36.54
-30.61
-23.90
-17.27
-11.29
-6.18
-1.89
1.72
4.80
7.46
9.81
11.95
14.00
15.91
17.51
18.54
18.91
18.79
18.65
19.05
20.36
22.52
25.03
27.25
28.63
29.09
28.95
28.74
28.99
29.83
31.08
32.25
32.82
32.44
31.03
28.77
25.99
23.06
20.27
17.73
15.43
13.22
10.84
7.93
4.10
-1.01
-7.49
-15.02
-22.78
-29.56
-34.17
-35.74
-34.20
-30.19
-24.96
-19.84
-15.86
-13.40
-12.13
-11.29
-9.91
-7.27
-3.03
2.61
9.02
15.37
20.78
24.60
26.46
26.36
24.62
21.87
18.80
16.10
14.28
13.59
13.97
15.11
16.53
17.64
17.99
17.32
15.68
13.50
11.36
9.82
9.14
9.22
9.64
9.82
9.36
8.08
6.07
3.50
0.62
-2.39
-5.34
-8.03
-10.29
-12.04
-13.44
-14.88
-16.87
-19.90
-24.27
-29.94
-36.55
-43.41
-49.64
-54.35
-56.81
-56.72
-54.21
-49.88
-44.52
-38.86
-33.30
-27.93
-22.57
-17.08
-11.49
-6.09
-1.31
2.51
5.29
7.21
8.64
9.94
11.25
12.46
13.27
13.39
12.79
11.71
10.57
9.74
9.34
9.18
9.03
8.78
8.67
9.08
10.24
12.01
13.72
14.59
14.05
12.12
9.50
7.14
5.81
5.71
6.44
7.24
7.46
6.81
5.45
3.76
2.11
0.61
-0.84
-2.45
-4.34
-6.53
-8.97
-11.68
-14.75
-18.32
-22.29
-26.23
-29.32
-30.67
-29.64
-26.14
-20.77
-14.54
-8.59
-3.65
0.06
2.82
5.16
7.54
10.14
12.86
15.42
17.62
19.46
21.13
22.90
24.98
27.38
29.96
32.44
34.57
36.17
37.24
37.86
38.11
38.03
37.46
36.18
33.92
30.63
26.44
21.76
17.02
12.52
8.25
3.87
-0.99
-6.59
-12.78
-19.03
-24.64
-29.00
-31.92
-33.70
-35.04
-36.82
-39.71
-43.97
-49.40
-55.51
-61.71
-67.44
-72.21
-75.45
-76.48
-74.61
-69.43
-61.14
-50.63
-39.28
-28.52
-19.37
-12.16
-6.65
-2.32
1.24
4.17
6.37
7.68
8.14
7.98
7.65
7.63
8.30
9.87
12.36
15.67
19.62
24.01
28.63
33.25
37.45
40.75
42.60
42.57
40.47
36.42
30.89
24.50
17.97
11.91
6.78
2.78
-0.06
-1.93
-3.05
-3.69
-4.11
-4.58
-5.31
-6.42
-7.91
-9.62
-11.37
-13.03
-14.65
-16.45
-18.75
-21.81
-25.63
-29.96
-34.25
-37.86
-40.14
-40.53
-38.71
-34.62
-28.57
-21.18
-13.28
-5.74
0.78
5.98
9.89
12.79
15.07
17.07
19.06
21.18
23.46
25.81
28.09
30.14
31.84
33.15
34.17
35.04
35.87
36.76
37.68
38.63
39.65
40.83
42.22
43.73
45.12
45.92
45.69
44.12
41.17
37.08
32.23
27.03
21.73
16.47
11.26
6.14
1.16
-3.62
-8.13
-12.41
-16.57
-20.75
-25.07
-29.64
-34.48
-39.50
-44.63
-49.82
-55.07
-60.35
-65.53
-70.11
-73.29
-74.04
-71.36
-64.74
-54.33
-41.09
-26.47
-12.03
0.97
11.73
19.92
25.45
28.37
28.74
26.75
22.86
17.79
12.46
7.79
4.41
2.55
2.04
2.47
3.37
4.40
5.39
6.23
6.82
6.99
6.51
5.18
2.93
-0.10
-3.68
-7.50
-11.34
-14.97
-18.20
-20.79
-22.47
-23.05
-22.48
-20.91
-18.63
-16.03
-13.45
-11.16
-9.37
-8.17
-7.53
-7.33
-7.42
-7.72
-8.33
-9.39
-10.98
-12.87
-14.43
-14.74
-12.92
-8.51
-1.67
6.73
15.47
23.36
29.63
34.10
37.10
39.22
41.06
43.00
45.18
47.40
49.28
50.31
49.98
47.99
44.32
39.32
33.59
27.88
22.80
18.80
16.09
14.66
14.35
14.79
15.47
15.81
15.28
13.52
10.48
6.31
1.31
-4.20
-9.95
-15.70
-21.18
-26.12
-30.26
-33.56
-36.27
-38.95
-42.19
-46.42
-51.61
-57.28
-62.74
-67.34
-70.75
-73.01
-74.24
-74.43
-73.20
-69.89
-63.95
-55.29
-44.53
-32.93
-21.99
-12.82
-5.88
-0.89
2.86
6.07
9.04
11.73
13.89
15.45
16.65
17.89
19.52
21.56
23.69
25.51
26.83
27.82
28.89
30.27
31.73
32.59
32.02
29.59
25.54
20.85
16.80
14.42
14.07
15.36
17.48
19.64
21.45
22.97
24.60
26.65
29.09
31.42
32.83
32.53
30.09
25.66
19.88
13.62
7.64
2.40
-2.00
-5.71
-9.12
-12.77
-17.34
-23.50
-31.60
-41.34
-51.63
-60.77
-66.99
-69.04
-66.59
-60.35
-51.68
-42.15
-33.08
-25.20
-18.76
-13.63
-9.52
-6.09
-3.04
-0.14
2.72
5.56
8.27
10.70
12.77
14.65
16.76
19.67
23.83
29.33
35.62
41.68
46.15
47.82
45.89
40.26
31.61
21.27
10.89
2.13
-3.86
-6.68
-6.88
-5.65
-4.47
-4.57
-6.64
-10.65
-16.00
-21.73
-26.68
-29.72
-29.95
-27.00
-21.24
-13.82
-6.52
-1.24
0.47
-2.14
-8.90
-18.71
-29.98
-40.91
-49.89
-55.82
-58.20
-57.19
-53.41
-47.72
-40.86
-33.35
-25.33
-16.73
-7.45
2.42
12.52
22.26
31.00
38.23
43.72
47.46
49.48
49.75
48.19
44.84
40.16
35.01
30.60
28.03
27.88
29.98
33.49
37.25
40.12
41.26
40.28
37.23
32.46
26.54
20.09
13.59
7.35
1.45
-4.20
-9.65
-14.94
-19.94
-24.50
-28.51
-31.90
-34.72
-37.11
-39.34
-41.77
-44.77
-48.60
-53.21
-58.15
-62.66
-65.84
-66.83
-65.15
-60.74
-53.98
-45.55
-36.27
-26.88
-17.93
-9.60
-1.72
6.18
14.75
24.54
35.74
48.05
60.67
72.61
82.92
91.00
96.72
100.30
102.13
102.56
101.87
100.14
97.23
92.71
85.89
76.12
63.15
47.59
30.97
15.32
2.52
-6.38
-11.42
-13.44
-13.49
-12.30
-10.16
-7.29
-4.25
-2.06
-1.89
-4.39
-9.29
-15.31
-20.73
-24.07
-24.83
-23.54
-21.46
-19.93
-19.83
-21.29
-23.75
-26.24
-27.75
-27.47
-24.86
-19.75
-12.26
-2.77
8.15
19.85
31.76
43.48
54.84
65.79
76.17
85.52
93.11
98.13
99.99
98.70
94.94
89.99
85.27
81.99
80.75
81.31
82.75
83.75
83.11
80.15
74.89
67.79
59.44
50.18
40.13
29.41
18.60
8.86
1.59
-2.18
-2.42
-0.21
2.79
4.98
5.56
4.53
2.33
-0.63
-4.33
-8.97
-14.78
-21.74
-29.62
-38.23
-47.56
-57.82
-69.17
-81.39
-93.72
-105.01
-114.12
-120.32
-123.59
-124.56
-124.11
-122.95
-121.20
-118.42
-113.83
-106.72
-96.77
-84.07
-68.91
-51.50
-31.96
-10.66
11.47
32.78
51.20
64.87
72.88
75.58
74.42
71.36
68.14
65.77
64.40
63.51
62.37
60.37
57.12
52.48
46.41
39.08
31.07
23.41
17.38
13.96
13.08
13.18
11.54
5.26
-7.52
-26.74
-50.43
-75.58
-99.27
-119.66
-136.04
-148.49
-157.18
-162.18
-163.48
-161.29
-156.32
-149.58
-142.03
-134.21
-126.14
-117.49
-107.92
-97.53
-86.85
-76.72
-67.84
-60.50
-54.40
-48.90
-43.37
-37.45
-31.28
-25.28
-20.03
-15.87
-12.86
-10.73
-9.02
-7.23
-4.99
-2.25
0.73
3.32
4.73
4.21
1.21
-4.37
-12.15
-21.23
-30.42
-38.35
-43.84
-46.26
-45.66
-42.82
-38.81
-34.47
-29.93
-24.61
-17.64
-8.44
2.87
15.51
28.47
41.02
52.93
64.35
75.44
86.18
96.35
105.72
114.33
122.35
129.92
136.86
142.55
146.25
147.49
146.48
144.16
141.91
140.97
141.86
144.12
146.44
147.33
145.81
141.89
136.51
130.93
125.89
120.97
114.67
104.88
89.74
68.23
40.25
6.45
-32.11
-74.36
-119.18
-165.50
-212.62
-260.68
-310.74
-364.14
-420.84
-477.87
-528.77
-565.09
-579.35
-568.28
-534.37
-485.02
-429.51
-375.43
-326.66
-283.37
-243.88
-206.81
-172.19
-140.99
-113.93
-90.40
-68.43
-45.59
-20.17
8.24
38.84
70.34
101.68
132.04
160.31
184.49
201.79
209.71
207.77
198.67
188.06
182.72
187.72
204.40
230.12
259.96
289.00
313.85
332.55
343.63
345.64
337.98
322.49
304.27
290.62
288.02
298.62
318.59
339.32
351.02
346.66
324.23
286.33
237.80
183.23
125.68
67.13
9.60
-44.12
-90.74
-127.58
-153.69
-170.20
-179.73
-185.13
-188.45
-190.52
-191.29
-190.61
-188.63
-185.82
-182.54
-178.64
-173.49
-166.28
-156.59
-144.67
-131.38
-117.88
-105.31
-94.54
-86.03
-79.77
-75.23
-71.45
-67.12
-60.94
-51.98
-40.04
-25.76
-10.42
4.36
17.23
27.40
34.86
40.16
44.12
47.43
50.42
53.05
54.99
55.84
55.29
53.23
49.87
45.72
41.60
38.37
36.70
36.81
38.38
40.74
43.11
44.87
45.74
45.71
44.96
43.75
42.34
41.01
39.99
39.40
39.34
39.85
41.15
43.69
48.08
54.92
64.50
76.66
90.83
106.26
122.34
138.95
156.37
175.03
194.88
215.08
233.90
249.29
259.60
264.15
263.31
258.03
249.16
237.04
221.56
202.66
180.87
157.40
133.94
112.03
92.74
76.61
63.85
54.68
49.36
47.90
49.76
53.47
56.67
56.65
51.16
39.32
22.14
2.32
-16.64
-31.67
-41.18
-45.21
-45.07
-42.54
-39.28
-36.54
-35.19
-35.62
-37.63
-40.25
-42.11
-42.16
-40.59
-39.09
-40.20
-45.98
-56.67
-70.46
-84.38
-96.00
-104.84
-112.59
-122.19
-136.00
-154.58
-176.33
-198.26
-217.48
-232.24
-242.26
-248.04
-249.90
-247.24
-238.69
-222.92
-199.75
-170.78
-139.14
-108.45
-81.51
-59.41
-41.66
-27.11
-15.25
-6.92
-4.02
-8.29
-19.86
-36.51
-54.07
-67.89
-74.58
-73.19
-65.29
-54.01
-42.72
-33.94
-28.95
-27.94
-30.51
-35.95
-43.39
-51.74
-59.66
-65.66
-68.39
-66.93
-61.16
-51.78
-40.20
-28.16
-17.21
-8.27
-1.46
3.74
8.05
11.88
15.13
17.35
18.26
18.24
18.65
21.39
28.25
40.03
56.14
74.78
93.67
110.96
125.78
138.26
149.03
158.66
167.18
173.92
177.61
176.61
169.32
154.67
132.61
104.49
72.97
41.43
12.98
-10.38
-28.14
-41.08
-50.57
-57.82
-63.47
-67.63
-70.16
-71.13
-70.92
-70.20
-69.61
-69.49
-69.75
-69.87
-69.13
-66.90
-62.97
-57.55
-51.23
-44.67
-38.44
-32.90
-28.18
-24.37
-21.54
-19.75
-18.96
-19.00
-19.53
-20.12
-20.42
-20.21
-19.56
-18.82
-18.47
-18.94
-20.39
-22.56
-24.86
-26.62
-27.43
-27.52
-27.76
-29.47
-33.89
-41.57
-51.96
-63.30
-73.01
-78.52
-78.25
-72.35
-62.87
-53.17
-46.71
-45.69
-50.16
-57.99
-65.84
-70.59
-70.69
-66.67
-60.90
-56.56
-56.50
-62.36
-73.89
-88.86
-103.24
-112.05
-110.52
-95.73
-67.84
-30.65
9.20
44.30
68.69
79.65
77.96
66.94
50.78
33.15
16.62
2.75
-7.47
-13.32
-14.48
-11.36
-5.30
1.68
7.50
10.70
10.88
8.78
5.86
3.82
4.18
7.99
15.78
27.67
43.46
62.81
85.26
110.20
136.89
164.61
192.76
220.85
248.32
274.17
296.76
313.82
322.93
322.06
310.18
287.51
255.57
216.86
174.43
131.45
90.70
54.22
23.01
-2.90
-24.27
-42.08
-57.14
-69.82
-80.17
-88.18
-94.10
-98.53
-102.19
-105.64
-109.01
-112.02
-114.22
-115.25
-115.10
-114.18
-113.16
-112.77
-113.51
-115.48
-118.21
-120.73
-121.76
-120.04
-114.82
-106.06
-94.55
-81.66
-68.95
-57.78
-49.09
-43.25
-40.17
-39.34
-39.89
-40.74
-40.80
-39.35
-36.20
-31.73
-26.54
-20.98
-14.92
-7.63
1.72
13.56
27.47
42.16
55.77
66.34
72.28
72.61
67.03
55.89
40.05
20.68
-0.97
-23.95
-47.92
-73.21
-100.61
-130.64
-162.66
-194.14
-220.58
-236.49
-237.05
-219.99
-186.81
-142.66
-94.98
-51.17
-16.54
6.82
19.90
25.67
27.69
28.93
31.30
35.54
41.53
48.57
55.68
61.92
66.53
69.04
69.37
67.70
64.51
60.48
56.45
53.37
52.05
52.92
55.83
60.00
64.36
67.97
70.54
72.51
74.69
77.69
81.31
84.41
85.39
82.94
76.66
67.16
55.70
43.56
31.76
21.05
12.18
5.74
1.74
-0.88
-4.09
-9.87
-18.87
-29.65
-39.38
-45.50
-47.67
-48.61
-52.94
-64.85
-85.78
-113.51
-143.14
-169.31
-188.25
-198.77
-201.86
-199.48
-193.51
-185.12
-174.81
-162.66
-148.55
-132.28
-113.68
-92.84
-70.34
-47.42
-25.90
-7.78
5.34
12.70
14.61
12.23
7.24
1.50
-3.22
-5.26
-3.27
3.52
14.95
29.65
45.32
59.42
70.02
76.40
79.15
79.63
79.24
78.93
79.00
79.30
79.54
79.51
79.12
78.39
77.41
76.26
75.04
73.74
72.13
69.86
66.64
62.47
57.71
53.03
49.16
46.58
45.39
45.21
45.43
45.35
44.55
42.88
40.58
38.05
35.65
33.40
31.00
27.95
23.94
19.12
14.31
10.74
9.70
12.05
17.90
26.43
35.81
43.28
45.66
40.14
25.35
2.16
-26.10
-54.37
-77.17
-90.30
-91.90
-82.88
-66.33
-46.42
-27.22
-11.91
-2.33
0.83
-2.23
-10.56
-22.64
-36.37
-49.32
-59.17
-64.44
-65.15
-62.89
-60.29
-59.76
-62.47
-67.79
-73.69
-77.76
-78.29
-74.96
-68.70
-61.09
-53.52
-46.70
-40.58
-34.65
-28.45
-22.00
-15.98
-11.32
-9.02
-9.52
-12.53
-17.13
-22.12
-26.50
-29.78
-32.07
-34.09
-36.99
-41.95
-49.71
-60.01
-71.31
-81.19
-87.06
-87.29
-81.89
-72.44
-61.33
-50.74
-41.91
-34.86
-28.63
-21.73
-12.68
-0.38
15.45
34.08
53.87
72.69
88.96
101.88
111.75
119.29
125.07
129.14
131.18
131.09
129.36
126.98
124.91
123.54
122.39
120.49
116.91
111.24
103.75
95.30
86.84
79.19
72.82
67.70
63.40
59.20
54.35
48.39
41.31
33.51
25.68
18.50
12.57
8.24
5.73
5.14
6.49
9.69
14.47
20.47
27.23
34.30
41.33
48.08
54.41
60.37
66.17
72.14
78.64
85.88
93.83
102.36
111.31
120.83
131.34
143.53
157.92
174.64
193.10
212.10
230.11
245.53
257.01
263.59
264.72
260.27
250.59
236.37
218.59
198.23
176.05
152.50
127.83
102.09
75.46
48.15
20.31
-8.11
-37.52
-68.76
-103.03
-141.48
-184.58
-231.32
-278.81
-322.46
-357.03
-378.14
-383.66
-374.37
-353.50
-325.51
-294.41
-262.74
-231.35
-199.84
-167.55
-134.11
-99.78
-65.33
-31.96
-1.11
25.56
46.35
59.91
65.50
63.50
55.42
43.76
31.32
20.64
13.29
9.67
9.06
9.92
10.62
9.87
7.18
2.95
-1.92
-6.49
-10.16
-12.90
-15.09
-17.20
-19.57
-22.29
-25.08
-27.44
-28.63
-27.79
-24.00
-16.62
-5.35
9.53
27.25
46.75
66.84
86.44
104.62
120.61
133.73
143.39
149.16
150.78
148.22
141.74
131.93
119.58
105.57
90.65
75.13
58.83
41.20
21.69
0.23
-22.48
-44.97
-65.41
-82.13
-94.11
-101.08
-103.39
-101.56
-95.97
-86.80
-74.21
-58.64
-41.07
-23.18
-7.05
5.22
12.03
12.58
7.06
-3.54
-17.71
-33.77
-50.14
-65.39
-78.46
-88.64
-95.82
-100.52
-103.74
-106.56
-109.46
-111.99
-112.70
-109.77
-101.86
-88.79
-71.75
-52.89
-34.52
-18.39
-5.37
4.41
11.13
15.00
16.19
14.93
11.83
7.76
3.78
0.81
-0.60
-0.27
1.71
5.02
9.16
13.50
17.28
19.89
21.03
20.81
19.73
18.45
17.44
16.89
16.73
16.83
17.23
18.14
19.81
22.21
24.86
26.94
27.65
26.49
23.61
19.66
15.50
11.77
8.63
5.77
2.56
-1.72
-7.65
-15.63
-25.78
-37.76
-50.70
-63.21
-73.61
-80.51
-83.23
-82.08
-78.22
-73.20
-68.50
-65.20
-63.98
-65.13
-68.71
-74.45
-81.90
-90.37
-99.07
-107.12
-113.44
-116.69
-115.51
-109.11
-97.92
-84.01
-70.60
-60.70
-55.63
-54.16
-52.85
-47.55
-35.22
-15.44
9.54
35.54
57.92
72.77
77.58
71.45
54.93
29.79
-1.17
-34.54
-66.69
-94.23
-114.41
-125.51
-127.10
-120.26
-107.43
-91.81
-76.49
-63.72
-54.55
-49.10
-46.76
-46.51
-46.61
-44.47
-36.95
-21.28
3.57
36.16
72.87
109.21
141.40
167.44
186.98
200.44
208.11
209.91
205.82
196.59
183.95
170.39
158.29
149.24
143.52
140.05
136.84
131.59
122.56
109.09
91.63
71.34
49.30
25.87
0.77
-26.35
-54.96
-82.99
-106.95
-122.75
-127.02
-118.18
-97.00
-66.34
-30.34
6.43
39.81
66.45
84.03
91.41
88.79
77.87
61.67
44.11
28.99
19.09
15.53
17.71
23.67
30.70
36.08
37.77
34.91
28.11
19.23
10.64
4.28
1.00
0.54
2.47
7.03
15.54
29.67
50.20
75.85
103.02
126.65
141.95
146.08
138.95
122.99
101.85
78.78
55.28
30.86
3.87
-27.02
-61.50
-97.25
-130.69
-158.59
-179.43
-193.97
-204.60
-213.94
-223.59
-233.45
-242.07
-247.59
-248.76
-245.60
-239.39
-231.99
-224.88
-218.44
-211.72
-202.76
-189.45
-170.46
-146.02
-118.00
-89.34
-62.93
-40.57
-22.43
-7.40
5.98
18.60
30.29
40.16
47.45
52.22
55.52
58.86
63.39
69.37
76.22
83.12
89.47
95.12
100.10
104.25
107.25
108.67
108.29
106.31
103.24
99.67
96.09
92.70
89.39
85.96
82.20
78.09
73.82
69.69
65.92
62.51
59.14
55.35
50.79
45.29
38.95
31.92
24.29
16.13
7.58
-0.80
-8.08
-13.07
-14.82
-12.96
-7.85
-0.56
7.60
15.40
22.07
27.38
31.54
35.26
39.15
43.37
47.56
51.19
53.80
55.23
55.53
54.99
54.26
53.79
53.64
53.43
52.76
51.46
49.71
48.04
47.04
47.92
51.14
56.00
60.88
64.17
65.00
63.36
59.92
55.54
53.01
53.94
57.88
62.68
66.24
67.58
66.75
64.15
60.05
58.86
63.48
73.54
86.07
98.49
110.35
122.64
136.35
151.55
174.27
207.60
249.11
292.13
330.71
362.80
389.40
412.49
433.49
461.76
502.75
554.00
606.57
651.28
683.24
701.49
707.34
647.56
500.21
287.32
62.96
-126.22
-262.69
-351.00
-403.96
-434.05
-450.41
-449.98
-431.46
-399.33
-363.53
-333.52
-313.97
-305.16
-305.50
-313.41
-321.78
-323.07
-317.40
-310.72
-309.78
-318.58
-338.16
-367.26
-402.54
-434.30
-452.91
-452.93
-434.09
-399.72
-354.81
-305.07
-256.54
-214.98
-183.40
-164.44
-161.13
-175.27
-205.14
-244.39
-283.55
-312.90
-325.32
-317.19
-289.17
-245.32
-190.57
-128.78
-62.23
7.39
77.45
143.63
200.22
241.60
263.91
266.74
253.50
230.47
204.87
182.68
167.26
158.89
155.25
152.62
147.23
136.14
117.74
91.85
59.38
21.92
-18.88
-61.61
-105.35
-149.36
-192.62
-233.24
-268.45
-295.19
-311.20
-316.01
-311.13
-299.39
-283.51
-264.98
-243.65
-218.34
-188.05
-153.05
-115.02
-76.38
-39.14
-3.92
30.18
65.19
103.32
146.45
195.70
251.13
311.14
371.77
426.63
467.88
488.46
484.59
457.47
412.92
359.31
304.72
254.60
211.15
174.25
143.01
117.01
96.45
81.55
71.81
65.80
61.59
57.54
52.76
47.16
41.00
34.20
26.05
15.38
1.24
-16.40
-36.15
-55.46
-71.48
-82.17
-87.11
-87.62
-86.18
-85.37
-86.93
-91.16
-97.16
-103.54
-109.23
-114.04
-118.59
-123.76
-130.01
-136.97
-143.49
-148.07
-149.57
-147.53
-142.34
-134.86
-125.99
-116.25
-105.48
-92.96
-77.73
-59.00
-36.50
-10.69
17.49
46.87
76.30
104.88
131.91
156.86
179.25
198.82
215.38
228.54
237.21
239.39
232.57
214.80
186.12
149.17
108.86
70.68
38.69
14.17
-4.39
-19.95
-35.23
-51.31
-67.60
-82.67
-95.48
-106.18
-115.97
-126.38
-138.22
-151.20
-163.81
-174.09
-180.40
-182.05
-179.42
-173.51
-165.35
-155.45
-143.69
-129.67
-113.20
-94.77
-75.52
-56.94
-40.27
-26.20
-14.70
-5.31
2.72
10.06
17.15
24.36
31.85
39.68
47.75
55.82
63.55
70.55
76.46
80.93
83.66
84.38
82.99
79.72
75.18
70.27
65.95
62.92
61.29
60.61
60.08
59.09
57.58
56.04
55.14
55.16
55.61
55.27
52.76
47.24
38.90
29.03
19.48
12.07
7.98
7.50
10.08
14.54
19.64
24.41
28.57
32.60
37.35
43.59
51.32
59.59
66.71
70.77
70.12
63.84
51.97
35.98
19.13
6.61
4.66
18.65
50.59
97.75
152.93
206.80
251.12
281.13
296.13
298.17
290.04
273.84
250.89
222.65
191.45
160.42
132.61
109.60
90.96
74.58
57.77
38.28
14.87
-12.58
-43.04
-74.31
-103.05
-125.43
-138.31
-140.74
-134.50
-123.44
-111.40
-100.10
-88.21
-72.28
-49.03
-17.70
18.78
54.50
82.50
96.93
94.42
74.51
39.53
-5.64
-54.06
-97.84
-129.82
-145.59
-144.98
-132.07
-113.70
-97.20
-87.82
-87.07
-92.34
-97.81
-96.58
-83.33
-56.30
-18.02
25.70
67.86
102.56
126.28
137.70
136.65
122.80
95.54
54.53
1.14
-60.53
-123.53
-179.35
-220.06
-240.55
-240.24
-223.32
-197.70
-172.69
-156.11
-151.74
-158.26
-170.07
-179.73
-181.36
-173.16
-158.41
-143.98
-137.35
-143.05
-160.41
-183.62
-203.97
-213.46
-207.48
-185.53
-149.99
-103.86
-49.19
13.14
82.30
156.22
230.96
301.47
362.89
412.05
447.84
470.82
482.01
481.95
470.33
446.38
409.78
361.45
304.06
241.82
179.58
121.57
70.37
26.33
-12.12
-47.45
-82.06
-117.68
-155.34
-195.77
-239.25
-285.08
-330.70
-371.16
-399.71
-409.59
-396.39
-359.58
-302.86
-232.82
-157.04
-82.32
-14.05
43.81
88.33
117.75
131.93
132.78
124.15
110.88
97.33
86.13
77.70
70.69
63.01
52.95
39.60
22.70
2.20
-22.23
-51.08
-84.87
-123.77
-167.56
-215.87
-268.37
-324.36
-382.07
-437.86
-486.16
-520.42
-534.93
-526.67
-496.24
-447.30
-385.03
-314.21
-237.93
-157.54
-73.56
12.88
99.15
181.02
253.53
312.28
354.52
379.62
388.96
385.19
371.50
351.00
326.28
299.21
270.84
241.43
210.87
179.19
147.17
116.48
89.28
67.40
51.58
41.27
34.90
30.67
27.45
25.21
24.97
28.12
35.57
46.96
60.41
72.85
80.97
82.28
75.94
62.86
45.18
25.20
4.51
-16.28
-37.18
-58.05
-78.08
-95.92
-110.39
-121.43
-130.44
-139.97
-152.52
-169.30
-189.64
-211.50
-232.70
-252.15
-270.36
-288.69
-307.94
-327.12
-343.24
-352.33
-351.17
-338.71
-316.59
-288.39
-258.17
-229.15
-202.89
-179.41
-157.62
-136.11
-113.44
-88.51
-60.58
-29.52
4.05
38.84
73.14
105.32
134.26
159.47
180.95
198.99
214.03
226.62
237.30
246.30
253.17
256.84
256.20
251.25
244.08
238.69
239.42
248.58
264.72
282.50
294.63
294.55
278.60
246.53
200.61
144.24
81.28
16.00
-46.65
-101.18
-142.84
-169.36
-182.17
-186.44
-189.61
-199.04
-219.67
-252.36
-293.63
-336.61
-373.21
-396.55
-403.00
-392.96
-370.11
-339.62
-306.17
-272.75
-240.55
-209.78
-180.36
-152.49
-126.54
-102.33
-78.80
-54.24
-26.86
4.58
40.26
79.21
119.14
156.87
189.31
214.19
230.67
239.30
241.70
239.69
234.88
228.04
219.17
208.55
197.00
185.64
175.43
166.64
158.78
151.59
144.75
137.67
131.18
127.17
127.28
132.07
140.63
150.74
160.75
168.94
172.70
172.06
169.24
166.51
165.30
165.71
166.73
168.72
171.44
172.09
170.69
169.61
171.07
176.51
186.28
199.50
216.70
236.28
252.09
260.49
260.94
253.86
240.64
223.48
189.72
137.58
91.76
57.81
29.29
3.50
-21.57
-47.22
-74.07
-102.32
-129.65
-155.26
-183.29
-216.01
-253.36
-294.61
-337.67
-378.66
-412.93
-434.66
-440.96
-434.84
-419.94
-399.75
-378.45
-359.68
-344.89
-334.13
-325.25
-316.07
-306.17
-294.12
-277.99
-256.85
-230.68
-198.39
-159.87
-115.93
-68.60
-20.53
27.17
74.38
120.06
161.47
197.08
224.47
242.16
251.02
255.23
261.23
274.26
295.48
321.57
349.96
376.71
397.73
410.04
413.35
409.76
402.22
393.31
363.60
305.62
226.45
143.43
71.27
15.60
-25.12
-55.95
-82.16
-106.37
-124.39
-131.19
-123.96
-104.54
-78.22
-52.24
-34.22
-29.69
-39.68
-58.65
-80.33
-100.27
-117.27
-132.40
-145.47
-155.25
-164.87
-177.32
-191.38
-206.87
-223.70
-240.76
-254.88
-261.35
-256.00
-236.88
-204.31
-160.47
-109.96
-58.30
-10.55
29.76
61.01
83.01
96.46
103.03
104.78
103.15
99.16
93.58
87.19
80.92
75.45
71.19
68.53
67.42
67.08
66.31
63.79
58.48
50.07
39.05
26.54
14.09
3.02
-5.88
-12.27
-16.11
-17.68
-17.56
-16.56
-15.64
-15.52
-16.59
-18.83
-21.93
-25.44
-28.97
-32.21
-34.82
-36.43
-36.70
-35.52
-33.16
-30.21
-27.34
-25.01
-23.31
-21.94
-20.43
-18.53
-16.45
-14.88
-14.70
-16.54
-20.22
-24.59
-27.86
-28.33
-25.14
-18.79
-10.99
-3.89
0.81
2.56
2.04
0.68
-0.10
0.57
2.84
6.45
11.07
16.44
22.32
28.29
33.68
37.79
40.21
41.05
40.73
39.62
37.78
34.84
30.45
24.72
18.43
12.81
9.01
7.54
8.09
9.86
11.99
14.05
16.06
18.34
20.99
23.68
25.68
26.24
25.04
22.44
19.42
17.08
16.21
16.89
18.59
20.50
22.00
22.95
23.66
24.59
26.07
28.13
30.52
32.85
34.81
36.21
36.96
37.08
36.62
35.72
34.41
32.67
30.36
27.29
23.41
18.96
14.49
10.66
7.98
6.60
6.17
6.01
5.31
3.33
-0.38
-5.96
-13.03
-20.73
-27.66
-32.15
-32.73
-28.73
-20.73
-10.59
-0.84
6.17
9.10
7.98
4.01
-1.15
-6.05
-9.93
-12.64
-14.34
-15.15
-15.01
-13.85
-11.76
-9.18
-6.75
-5.00
-4.14
-3.87
-3.61
-2.80
-1.23
0.92
3.23
5.39
7.41
9.56
12.21
15.50
19.17
22.66
25.34
26.77
26.90
25.93
24.21
22.02
19.56
16.95
14.34
11.99
10.13
8.90
8.10
7.25
5.77
3.24
-0.29
-4.11
-7.07
-7.88
-5.59
0.08
8.68
19.15
30.12
40.26
48.56
54.51
58.14
59.89
60.52
60.89
61.73
63.55
66.48
70.23
74.22
77.75
80.30
81.77
82.46
82.88
83.20
82.95
80.96
75.80
66.54
53.38
37.76
21.83
7.60
-3.78
-12.24
-18.44
-23.10
-26.62
-29.06
-30.45
-31.09
-31.52
-32.31
-33.64
-35.26
-36.60
-37.07
-36.30
-34.14
-30.67
-26.01
-20.46
-14.39
-8.33
-2.77
1.93
5.58
8.15
9.74
10.61
11.25
12.37
14.58
18.01
22.14
25.93
28.44
29.47
29.85
31.04
34.40
40.51
49.03
59.06
69.57
79.52
87.72
92.66
92.83
87.43
77.00
63.40
49.01
35.57
23.36
11.34
-1.95
-17.37
-34.65
-52.67
-70.35
-87.29
-103.85
-120.74
-138.43
-156.86
-175.38
-192.78
-207.33
-216.80
-218.68
-210.77
-192.00
-162.89
-125.63
-83.41
-39.75
2.16
39.61
70.25
91.84
102.47
101.09
88.27
66.51
39.99
13.50
-8.80
-24.59
-33.68
-37.53
-38.08
-36.77
-33.84
-28.47
-19.54
-6.48
10.24
29.19
48.64
67.16
84.09
99.36
113.06
125.06
134.96
142.33
147.31
150.64
153.51
156.88
160.87
164.64
166.65
165.44
160.32
151.61
140.44
128.14
115.66
103.09
89.70
74.24
55.55
32.93
6.53
-22.66
-53.00
-82.67
-110.01
-133.67
-152.71
-166.45
-174.51
-176.92
-174.25
-167.60
-158.37
-147.86
-136.99
-126.12
-115.31
-104.56
-94.12
-84.56
-76.51
-70.36
-66.00
-62.89
-60.29
-57.63
-54.62
-51.29
-47.82
-44.40
-41.21
-38.45
-36.38
-35.33
-35.52
-36.94
-39.27
-41.92
-44.29
-45.90
-46.54
-46.21
-45.01
-43.06
-40.44
-37.31
-33.93
-30.69
-28.03
-26.35
-25.81
-26.25
-27.16
-27.76
-27.05
-24.06
-17.99
-8.46
4.39
19.75
36.26
52.18
65.77
75.60
80.83
81.41
77.99
71.61
63.46
54.44
45.09
35.53
25.78
15.92
6.33
-2.47
-9.95
-15.85
-20.37
-23.99
-27.29
-30.61
-33.87
-36.69
-38.62
-39.55
-39.87
-40.42
-42.10
-45.45
-50.25
-55.54
-60.06
-62.81
-63.64
-63.40
-63.59
-65.73
-70.62
-77.99
-86.52
-94.37
-99.75
-101.54
-99.39
-93.77
-85.78
-76.90
-68.85
-63.18
-60.68
-60.97
-62.23
-61.68
-56.57
-45.27
-27.97
-6.58
16.21
37.94
57.10
73.09
85.62
94.02
97.07
93.52
83.02
66.93
48.46
32.00
21.82
20.60
28.47
42.83
59.18
72.56
79.12
77.20
67.66
53.29
37.62
23.72
13.43
7.16
4.29
3.76
4.49
5.59
6.30
5.86
3.64
-0.58
-6.38
-12.72
-18.35
-22.38
-24.91
-26.96
-30.05
-35.42
-43.45
-53.43
-63.98
-73.72
-81.76
-87.99
-92.85
-96.94
-100.61
-103.71
-105.68
-105.62
-102.70
-96.40
-86.82
-74.78
-61.67
-49.13
-38.57
-30.80
-25.93
-23.50
-22.72
-22.75
-22.83
-22.33
-20.79
-17.92
-13.74
-8.48
-2.59
3.49
9.46
15.20
20.70
25.94
30.86
35.33
39.28
42.72
45.78
48.58
51.18
53.55
55.61
57.24
58.33
58.80
58.63
57.87
56.61
54.95
52.97
50.69
48.03
44.94
41.43
37.58
33.52
29.41
25.36
21.43
17.66
13.98
10.20
6.03
1.15
-4.56
-10.75
-16.50
-20.44
-21.19
-18.05
-11.27
-2.08
7.87
17.14
25.02
31.59
37.37
42.82
47.99
52.64
56.35
59.00
60.84
62.44
64.42
67.14
70.74
75.08
80.06
85.58
91.65
98.20
104.81
110.72
114.99
116.83
115.93
112.49
106.97
99.82
91.42
82.17
72.94
65.16
60.42
59.66
62.43
66.79
69.94
69.32
63.70
53.47
40.31
26.21
12.86
1.18
-8.53
-16.32
-22.46
-27.44
-31.98
-37.11
-43.69
-52.06
-61.69
-71.21
-78.86
-83.19
-83.83
-81.85
-79.57
-79.82
-84.97
-96.08
-112.54
-132.34
-152.76
-171.05
-184.92
-192.65
-193.01
-185.41
-170.16
-148.78
-123.94
-98.88
-76.45
-58.17
-43.99
-32.70
-22.80
-13.49
-4.99
1.70
5.58
6.30
4.50
1.54
-1.02
-2.03
-1.04
1.71
5.46
9.27
12.40
14.37
15.11
14.88
14.24
13.89
14.24
15.14
15.63
14.09
8.94
-0.53
-13.55
-28.07
-41.52
-52.05
-59.23
-64.13
-68.57
-74.08
-81.14
-89.06
-96.42
-101.67
-103.65
-101.76
-95.87
-86.22
-73.36
-58.07
-41.30
-23.96
-6.77
9.71
24.99
38.51
49.52
57.28
61.26
61.44
58.52
53.77
48.80
45.14
44.17
46.73
53.17
63.08
75.19
87.51
97.85
104.55
107.17
106.48
104.05
101.34
99.01
96.78
93.79
89.27
82.97
75.20
66.44
56.92
46.64
35.49
23.67
11.79
0.76
-8.58
-15.81
-21.17
-25.32
-29.15
-33.33
-38.17
-43.51
-49.02
-54.41
-59.57
-64.44
-68.79
-72.03
-73.23
-71.39
-65.93
-57.00
-45.51
-32.89
-20.69
-10.09
-1.74
4.44
8.98
12.63
16.05
19.63
23.38
26.94
29.82
31.67
32.45
32.61
32.99
34.63
38.49
45.09
54.13
64.37
73.74
79.98
81.40
77.52
69.30
58.78
48.38
40.11
34.84
32.09
30.18
26.92
20.50
10.37
-2.41
-15.40
-25.68
-31.03
-30.80
-25.89
-18.12
-9.16
0.14
9.51
18.50
25.78
29.20
26.78
17.92
4.27
-10.63
-22.57
-28.41
-27.28
-20.62
-11.29
-1.99
5.79
12.17
18.22
25.16
33.51
43.18
53.78
65.21
77.72
91.49
106.04
119.86
130.85
137.10
137.96
134.33
128.35
122.31
117.69
114.64
112.28
109.27
104.43
96.81
85.68
70.30
50.11
25.14
-3.47
-33.33
-61.19
-83.97
-99.84
-108.92
-113.17
-115.45
-118.36
-123.28
-130.05
-137.53
-144.32
-149.63
-153.57
-157.04
-161.04
-165.86
-170.58
-173.18
-171.43
-164.09
-151.80
-137.22
-123.95
-114.91
-110.98
-110.70
-111.05
-109.09
-103.25
-93.75
-82.12
-70.11
-58.79
-48.28
-38.06
-27.54
-16.58
-5.67
4.31
12.46
18.38
22.34
25.24
28.17
31.95
36.73
42.01
46.96
50.88
53.62
55.53
57.20
59.07
61.16
63.06
64.17
64.10
62.86
60.83
58.56
56.50
54.77
53.15
51.27
48.83
45.86
42.66
39.76
37.64
36.59
36.53
37.05
37.59
37.54
36.52
34.50
31.81
29.14
27.33
27.22
29.38
34.07
41.14
50.12
60.26
70.74
80.83
89.96
97.80
104.31
109.64
114.12
118.13
122.10
126.39
131.18
136.37
141.54
145.98
148.82
149.19
146.31
139.60
128.82
114.08
95.92
75.05
52.25
28.17
3.21
-22.32
-48.10
-73.70
-98.49
-121.75
-142.74
-160.80
-175.45
-186.45
-193.82
-197.94
-199.34
-198.47
-195.57
-190.69
-183.84
-175.44
-166.28
-157.22
-148.71
-140.38
-131.03
-119.08
-103.31
-83.32
-59.72
-33.92
-7.47
18.32
42.75
65.73
87.46
108.16
127.79
146.06
162.68
177.70
191.81
206.20
222.16
240.28
259.95
279.22
295.38
305.83
308.91
304.24
292.59
275.28
253.65
228.75
201.38
172.34
142.57
113.15
85.11
59.10
35.16
12.76
-9.03
-31.26
-54.82
-80.19
-107.44
-136.35
-166.49
-197.30
-228.08
-257.96
-285.92
-310.85
-331.55
-346.83
-355.43
-355.93
-346.91
-327.17
-296.19
-254.66
-204.77
-150.04
-94.72
-42.69
3.42
42.81
76.36
105.81
132.68
157.40
178.80
194.58
202.23
200.19
188.58
169.30
145.39
120.23
96.59
76.29
60.17
48.28
40.17
35.03
31.76
29.10
25.88
21.37
15.41
8.41
1.17
-5.54
-11.04
-14.90
-16.83
-16.73
-14.66
-10.82
-5.56
0.69
7.47
14.29
20.74
26.49
31.26
34.91
37.34
38.48
38.41
37.36
35.73
33.99
32.42
30.88
28.88
25.71
20.87
14.28
6.36
-2.18
-10.61
-18.43
-25.41
-31.44
-36.46
-40.39
-43.16
-44.83
-45.46
-45.13
-43.79
-41.37
-37.85
-33.53
-28.96
-24.83
-21.72
-19.82
-18.86
-18.26
-17.33
-15.65
-13.10
-9.95
-6.62
-3.65
-1.53
-0.74
-1.70
-4.80
-10.32
-18.38
-28.79
-41.06
-54.40
-67.90
-80.68
-92.09
-101.83
-110.09
-117.49
-125.00
-133.72
-144.51
-157.71
-173.07
-189.84
-207.09
-223.99
-239.99
-254.81
-268.18
-279.68
-288.78
-295.03
-298.31
-298.60
-295.63
-288.41
-275.21
-254.16
-224.20
-185.99
-142.23
-97.01
-54.59
-18.11
11.12
33.77
51.82
67.68
83.44
100.49
119.57
141.00
164.71
190.14
215.95
239.87
258.89
269.90
270.64
260.58
241.24
215.78
187.92
160.81
136.22
114.60
95.61
78.85
64.25
51.84
41.34
31.89
22.09
10.63
-3.17
-19.01
-35.90
-52.69
-68.73
-83.94
-98.50
-112.44
-125.26
-136.05
-143.78
-147.62
-147.22
-142.59
-133.99
-121.83
-106.70
-89.30
-70.47
-50.95
-31.36
-12.09
6.57
24.31
40.66
55.03
66.88
75.97
82.39
86.61
89.23
90.92
92.34
94.11
96.67
100.00
103.27
104.92
103.14
96.56
85.08
70.06
53.88
39.19
28.01
21.42
19.54
21.79
27.12
34.11
41.12
46.51
49.12
48.57
45.35
40.44
34.91
29.56
24.94
21.39
19.11
18.13
18.05
18.04
17.08
14.42
9.99
4.50
-0.75
-4.43
-5.43
-3.26
2.03
10.02
20.12
31.75
44.40
57.61
70.99
84.15
96.74
108.40
118.96
128.38
136.89
144.90
152.95
161.45
170.55
179.87
188.46
194.91
197.79
196.28
190.63
182.36
173.77
167.04
163.22
161.64
159.84
154.52
142.63
122.28
93.19
56.47
14.37
-30.09
-73.27
-111.30
-140.68
-159.17
-166.43
-164.33
-156.32
-146.42
-138.02
-132.99
-131.58
-132.89
-135.65
-138.83
-141.90
-144.61
-146.66
-147.36
-145.71
-140.74
-131.93
-119.63
-104.98
-89.50
-74.53
-60.77
-48.27
-36.74
-25.92
-15.88
-6.89
0.75
7.04
12.19
16.65
20.82
24.93
29.02
33.01
36.81
40.39
43.80
47.14
50.51
53.90
57.11
59.70
61.10
60.77
58.39
54.07
48.22
41.37
33.79
25.39
15.67
4.02
-9.99
-26.36
-44.49
-63.35
-81.65
-98.22
-112.36
-124.11
-134.21
-143.83
-153.99
-165.11
-176.75
-187.81
-197.06
-203.60
-207.21
-208.33
-207.79
-206.43
-204.76
-202.66
-199.43
-193.85
-184.79
-171.71
-155.39
-138.05
-123.07
-113.79
-112.26
-118.32
-129.45
-141.53
-150.03
-151.26
-143.26
-126.04
-101.36
-72.11
-41.52
-12.41
13.24
34.54
51.50
64.79
75.18
83.15
88.71
91.56
91.44
88.41
83.03
76.08
68.32
60.10
51.37
41.85
31.54
20.93
10.86
2.17
-4.74
-10.02
-14.08
-17.19
-19.21
-19.72
-18.53
-15.99
-13.02
-10.71
-9.83
-10.47
-12.16
-14.16
-15.57
-15.39
-12.43
-5.62
5.46
20.08
36.30
51.55
63.83
72.59
78.90
84.67
91.34
98.94
106.17
111.23
113.09
112.10
109.78
108.00
108.01
110.08
113.67
117.95
122.17
125.72
128.21
129.41
129.55
129.61
131.35
136.65
146.51
159.94
173.68
182.91
183.12
171.99
150.66
123.37
95.91
73.29
58.03
49.62
45.37
41.91
36.87
29.52
20.71
12.00
4.66
-0.92
-5.20
-9.04
-13.05
-17.18
-20.68
-22.66
-22.56
-20.55
-17.34
-13.76
-10.23
-6.57
-2.27
3.05
9.29
15.73
21.41
25.41
27.31
27.20
25.58
23.19
20.72
18.64
17.10
15.91
14.67
12.98
10.71
8.08
5.66
4.02
3.56
4.31
5.87
7.68
9.19
10.07
10.28
10.08
9.90
10.20
11.38
13.62
16.84
20.62
24.36
27.37
29.09
29.33
28.30
26.66
25.28
25.01
26.43
29.84
35.30
42.80
52.52
64.56
78.71
93.97
108.23
118.20
119.83
108.96
82.00
36.72
-26.80
-105.18
-191.24
-274.58
-343.53
-388.12
-403.02
-388.95
-352.09
-301.64
-246.81
-194.50
-148.53
-110.11
-78.97
-54.27
-34.91
-19.46
-6.21
6.56
20.14
35.09
51.15
67.48
82.97
96.74
108.40
118.14
126.54
134.20
141.45
148.23
154.35
159.82
165.07
170.77
177.37
184.63
191.49
196.29
197.43
194.01
186.33
175.83
164.42
153.61
143.63
133.19
119.95
101.72
77.72
49.29
19.60
-7.47
-28.85
-43.31
-51.47
-55.04
-55.74
-54.46
-51.28
-45.97
-38.59
-29.78
-20.52
-11.72
-3.76
3.41
10.07
16.30
21.78
25.97
28.41
28.95
27.80
25.38
22.06
18.07
13.50
8.49
3.22
-2.10
-7.31
-12.40
-17.41
-22.39
-27.33
-32.13
-36.60
-40.49
-43.63
-45.95
-47.59
-48.98
-50.80
-53.94
-59.42
-68.16
-80.66
-96.54
-114.32
-131.42
-144.76
-151.58
-150.35
-141.08
-125.13
-104.43
-80.67
-55.04
-28.31
-1.37
24.57
48.09
68.05
83.96
95.99
104.63
110.24
112.82
112.12
107.98
100.67
90.96
79.98
68.87
58.62
49.74
42.29
35.71
28.91
20.54
9.06
-7.38
-31.19
-65.04
-110.91
-168.27
-232.78
-296.37
-349.13
-382.64
-392.77
-380.63
-350.93
-309.14
-259.26
-203.67
-144.87
-87.38
-38.09
-4.22
9.92
5.35
-11.78
-32.75
-50.02
-59.86
-62.68
-61.43
-58.80
-55.37
-49.31
-37.48
-17.11
12.90
51.51
95.79
141.48
183.77
218.06
240.63
249.25
243.58
225.15
197.00
163.03
127.38
93.94
66.04
46.00
34.82
31.91
35.20
41.87
49.18
55.26
59.38
61.67
62.44
61.65
58.64
52.47
42.40
28.44
11.64
-5.89
-21.54
-32.91
-38.68
-39.19
-36.39
-33.31
-32.86
-36.78
-44.97
-55.68
-66.24
-74.17
-77.92
-77.18
-72.68
-65.63
-57.36
-48.96
-41.38
-35.29
-31.13
-28.96
-28.35
-28.49
-28.49
-27.69
-25.91
-23.39
-20.47
-17.39
-14.03
-10.11
-5.46
-0.19
5.32
10.69
15.72
20.52
25.36
30.40
35.56
40.61
45.30
49.57
53.42
56.86
59.70
61.62
62.32
61.76
60.15
57.82
55.05
51.95
48.49
44.66
40.56
36.36
32.14
27.77
22.98
17.48
11.34
5.04
-0.51
-4.26
-5.44
-3.67
0.91
7.77
16.23
25.59
35.18
44.35
52.44
58.80
62.80
63.89
61.59
55.57
45.71
32.24
15.72
-2.94
-22.74
-42.77
-62.42
-81.50
-100.15
-118.61
-136.96
-154.89
-171.63
-186.04
-196.91
-203.36
-205.16
-202.85
-197.65
-191.14
-184.69
-179.01
-173.90
-168.18
-160.08
-148.10
-131.83
-112.55
-93.01
-76.43
-65.24
-59.91
-58.74
-58.58
-56.08
-49.13
-37.53
-23.00
-8.24
4.23
13.11
18.57
22.01
25.22
29.55
35.58
43.19
52.13
62.58
75.19
90.71
109.29
130.04
151.30
171.39
189.51
206.04
222.13
238.82
256.32
273.74
289.57
302.36
311.44
317.03
319.89
320.80
320.09
317.63
313.03
305.88
295.96
283.08
266.97
247.23
223.44
195.45
163.56
128.60
91.82
54.58
17.81
-18.33
-54.57
-92.23
-132.41
-175.24
-219.45
-262.65
-302.02
-335.24
-360.78
-377.81
-385.76
-384.14
-372.85
-352.88
-326.64
-297.57
-269.07
-243.24
-220.30
-198.95
-177.45
-154.95
-131.96
-110.12
-91.37
-77.07
-67.44
-61.66
-58.31
-56.01
-53.96
-52.00
-50.50
-49.89
-50.24
-51.13
-51.83
-51.82
-51.09
-50.16
-49.75
-50.37
-52.03
-54.30
-56.63
-58.68
-60.58
-62.73
-65.37
-68.25
-70.43
-70.65
-67.92
-62.13
-54.20
-45.68
-38.11
-32.31
-28.16
-24.97
-22.06
-19.24
-16.84
-15.26
-14.48
-13.83
-12.21
-8.67
-2.92
4.48
12.45
19.88
26.07
30.85
34.49
37.33
39.59
41.47
43.23
45.32
48.29
52.50
57.89
63.88
69.56
74.05
76.77
77.63
76.87
75.01
72.76
71.04
70.85
73.08
78.03
85.20
93.30
100.65
105.78
107.98
107.42
104.83
101.17
97.10
92.87
88.54
84.13
79.82
75.97
72.90
70.82
69.64
69.21
69.25
69.55
69.91
70.12
69.95
69.17
67.58
65.07
61.66
57.41
52.47
47.10
41.62
36.42
31.82
27.93
24.52
21.12
17.20
12.47
7.04
1.39
-3.73
-7.54
-9.34
-8.71
-5.56
-0.19
6.66
13.91
20.30
24.70
26.46
25.53
22.47
18.16
13.53
9.24
5.64
2.80
0.64
-0.89
-1.84
-2.29
-2.44
-2.72
-3.65
-5.63
-8.69
-12.41
-16.05
-18.91
-20.65
-21.54
-22.37
-24.03
-27.12
-31.61
-36.81
-41.64
-45.07
-46.58
-46.27
-44.85
-43.20
-42.06
-41.67
-41.75
-41.67
-40.70
-38.30
-34.16
-28.13
-20.01
-9.51
3.61
19.25
36.67
54.39
70.54
83.27
91.35
94.43
93.02
88.32
81.80
74.99
69.10
64.92
62.64
61.76
61.34
60.34
58.14
54.87
51.40
48.98
48.61
50.57
54.22
58.17
60.86
61.13
58.75
54.47
49.70
45.66
42.81
40.49
37.18
31.16
21.25
7.29
-9.56
-26.74
-40.57
-46.93
-42.56
-26.56
-1.60
26.17
48.76
59.03
53.33
32.67
1.87
-32.69
-65.52
-93.47
-115.61
-132.24
-143.81
-150.52
-152.62
-150.95
-147.20
-143.46
-141.41
-141.58
-143.05
-143.80
-141.59
-135.09
-124.51
-111.79
-99.84
-91.41
-87.95
-88.98
-92.42
-95.46
-95.70
-91.97
-84.57
-74.80
-64.28
-54.21
-45.20
-37.30
-30.43
-24.59
-19.85
-16.03
-12.45
-7.88
-0.88
9.64
23.86
40.96
59.32
77.18
93.18
106.59
117.26
125.35
131.09
134.77
136.81
137.83
138.61
139.76
141.52
143.67
145.60
146.79
147.12
147.01
147.32
148.88
152.09
156.60
161.36
164.91
165.80
162.95
155.95
145.04
131.03
115.04
98.22
81.51
65.47
50.28
35.91
22.37
9.83
-1.25
-10.35
-17.00
-21.10
-22.85
-22.73
-21.25
-18.81
-15.69
-12.06
-8.20
-4.56
-1.70
-0.12
-0.01
-1.26
-3.44
-6.07
-8.69
-10.94
-12.50
-13.12
-12.68
-11.32
-9.55
-8.02
-7.34
-7.71
-8.89
-10.32
-11.43
-11.98
-12.11
-12.17
-12.42
-12.92
-13.44
-13.68
-13.48
-12.87
-12.20
-11.93
-12.61
-14.67
-18.34
-23.59
-29.96
-36.69
-42.71
-46.89
-48.32
-46.64
-42.21
-36.05
-29.59
-24.00
-19.89
-16.98
-14.46
-11.53
-7.87
-3.84
-0.21
2.34
3.49
3.22
1.46
-2.37
-9.36
-20.76
-37.36
-58.98
-84.61
-112.81
-142.44
-172.93
-204.23
-236.24
-268.18
-298.52
-325.31
-346.84
-362.27
-371.69
-375.69
-374.61
-368.09
-355.03
-334.45
-306.25
-271.77
-233.64
-194.83
-157.76
-123.57
-92.20
-62.86
-34.68
-7.07
20.00
46.08
70.35
91.78
109.48
122.99
132.59
139.17
143.93
147.81
151.12
153.71
155.26
155.75
155.58
155.28
155.08
154.67
153.35
150.43
145.71
139.57
132.83
126.39
120.84
116.30
112.37
108.28
103.17
96.47
88.16
79.02
70.53
64.38
61.92
63.52
68.44
74.76
79.90
81.21
76.75
65.95
49.82
30.75
11.75
-4.55
-16.72
-24.73
-29.55
-32.31
-33.61
-33.28
-30.70
-25.51
-18.12
-9.73
-1.93
3.96
7.25
7.89
6.31
3.14
-0.96
-5.24
-8.86
-10.98
-10.97
-8.75
-4.89
-0.45
3.33
5.55
5.89
4.69
2.74
0.96
0.15
0.80
3.02
6.55
10.92
15.64
20.46
25.41
30.76
36.75
43.38
50.45
57.52
64.20
70.21
75.40
79.62
82.50
83.43
81.71
76.71
68.02
55.47
39.08
18.99
-4.42
-30.41
-57.69
-84.61
-109.36
-130.45
-146.94
-158.59
-165.68
-168.67
-168.03
-164.15
-157.45
-148.52
-138.18
-127.47
-117.58
-109.66
-104.53
-102.42
-102.75
-104.14
-104.72
-102.69
-96.89
-87.15
-74.28
-59.69
-44.91
-31.14
-19.06
-8.84
-0.34
6.69
12.66
18.03
23.39
29.25
35.96
43.47
51.37
59.02
65.77
71.26
75.46
78.66
81.38
84.16
87.43
91.39
95.93
100.64
104.94
108.22
110.16
110.79
110.49
109.76
108.89
107.91
106.68
105.19
103.64
102.53
102.24
102.79
103.71
104.39
104.52
104.43
105.13
107.91
113.65
122.42
133.43
145.45
157.36
168.47
178.46
187.00
193.36
196.39
194.82
187.75
175.00
157.11
134.95
109.36
80.85
49.81
16.87
-16.86
-49.66
-79.76
-105.98
-128.19
-147.39
-165.29
-183.44
-202.50
-221.98
-240.38
-255.87
-266.89
-272.62
-273.00
-268.45
-259.65
-247.41
-232.77
-217.02
-201.55
-187.45
-175.22
-164.64
-155.04
-145.86
-137.00
-128.89
-122.18
-117.36
-114.47
-113.23
-113.21
-113.98
-115.02
-115.53
-114.55
-111.19
-105.22
-97.11
-87.86
-78.33
-68.75
-58.68
-47.21
-33.74
-18.33
-1.81
14.49
29.30
41.67
51.28
58.28
63.21
66.88
70.23
74.30
79.93
87.58
96.92
106.90
115.96
122.58
126.01
126.63
125.88
125.63
127.33
131.26
136.14
139.50
138.25
129.70
112.38
86.60
54.49
19.60
-13.92
-42.34
-63.15
-75.44
-79.87
-78.41
-73.85
-69.41
-68.16
-72.40
-82.96
-98.87
-117.29
-134.11
-144.90
-146.14
-136.27
-116.30
-89.66
-61.19
-35.58
-15.94
-2.84
5.46
11.94
19.31
28.88
40.29
52.01
62.42
70.60
76.58
81.14
85.17
89.41
94.34
100.44
108.36
118.97
132.92
150.25
170.04
190.49
209.58
225.80
238.93
250.09
261.25
274.16
289.18
304.79
317.74
324.17
320.97
306.90
282.89
251.50
215.75
178.02
139.48
100.19
59.51
16.77
-28.35
-75.63
-124.06
-171.91
-216.78
-256.05
-287.45
-309.66
-322.62
-327.31
-325.43
-319.02
-310.33
-301.90
-296.51
-296.73
-304.06
-318.04
-335.89
-352.97
-364.13
-365.24
-354.53
-332.91
-303.33
-269.54
-234.68
-200.56
-167.58
-135.46
-104.03
-73.75
-45.64
-20.64
0.99
20.15
38.80
59.54
85.00
116.92
155.48
198.64
242.25
280.90
309.42
324.69
326.91
319.64
308.77
300.59
300.09
309.67
328.78
354.21
381.01
403.61
417.08
418.34
406.86
384.66
355.26
322.32
288.33
254.11
219.07
181.85
140.95
95.10
43.50
-13.67
-74.60
-135.54
-191.27
-236.33
-266.87
-281.88
-283.41
-275.64
-263.30
-250.19
-238.62
-229.45
-222.70
-217.91
-214.43
-211.39
-207.81
-202.84
-195.89
-186.93
-176.27
-164.41
-151.79
-138.66
-125.02
-110.81
-96.11
-81.19
-66.65
-53.27
-41.67
-32.08
-24.10
-16.96
-9.70
-1.61
7.73
18.51
31.02
45.88
63.91
85.92
112.23
142.37
174.98
208.21
240.09
268.95
293.60
313.25
327.43
335.88
338.63
336.01
328.65
317.36
302.91
285.83
266.40
244.75
221.18
196.38
171.44
147.67
126.20
107.56
91.41
76.61
61.52
44.53
24.62
1.71
-23.20
-48.34
-71.62
-91.17
-105.81
-115.34
-120.49
-122.73
-123.86
-125.50
-128.59
-133.02
-137.62
-140.43
-139.44
-133.43
-122.67
-108.96
-95.21
-84.52
-79.37
-80.94
-89.00
-102.03
-117.72
-133.37
-146.45
-155.15
-158.94
-158.73
-156.74
-155.76
-158.23
-165.33
-176.49
-189.47
-201.02
-207.79
-207.32
-198.79
-183.18
-162.92
-141.17
-120.93
-104.43
-92.86
-86.44
-84.60
-86.30
-90.30
-95.45
-101.09
-107.15
-114.24
-123.13
-134.22
-146.99
-160.05
-171.45
-179.41
-182.93
-181.97
-177.26
-169.86
-160.86
-151.19
-141.71
-133.10
-125.78
-119.66
-113.96
-107.35
-98.25
-85.33
-67.86
-45.81
-20.02
8.10
36.62
63.39
86.43
104.26
116.26
122.76
125.09
125.17
125.09
126.48
130.10
135.65
141.95
147.62
151.69
154.20
156.04
158.38
161.98
166.49
170.66
172.81
171.64
166.63
158.12
146.95
134.13
120.72
107.88
96.90
89.02
85.10
85.29
88.86
94.37
100.17
104.89
107.79
108.81
108.28
106.64
104.20
101.08
97.34
93.08
88.53
84.01
79.69
75.64
71.75
67.90
64.09
60.45
57.23
54.50
52.01
49.23
45.48
40.28
33.48
25.32
16.29
6.85
-2.58
-11.66
-20.05
-27.37
-33.37
-38.07
-41.92
-45.66
-50.10
-55.67
-62.10
-68.39
-73.12
-75.02
-73.48
-68.80
-61.99
-54.37
-47.04
-40.61
-35.34
-31.26
-28.51
-27.34
-27.98
-30.42
-34.19
-38.45
-42.16
-44.47
-45.12
-44.67
-44.43
-45.92
-50.17
-57.15
-65.70
-74.12
-81.06
-86.16
-90.13
-94.20
-99.41
-106.33
-115.11
-125.46
-136.43
-145.60
-148.97
-141.67
-119.92
-82.91
-33.75
21.49
75.98
124.38
163.71
192.74
210.55
215.69
206.77
183.93
150.13
111.11
73.66
43.43
23.10
12.05
7.32
5.23
2.91
-0.92
-6.06
-11.37
-15.60
-17.97
-18.40
-17.40
-15.67
-13.76
-11.79
-9.53
-6.63
-2.97
1.13
5.01
7.90
9.25
8.96
7.37
5.13
2.89
1.11
-0.06
-0.75
-1.14
-1.34
-1.33
-1.01
-0.56
-0.45
-1.43
-4.22
-8.98
-15.15
-21.57
-27.13
-31.29
-34.51
-37.90
-42.48
-48.35
-54.50
-59.12
-60.50
-57.76
-51.18
-41.84
-31.05
-19.86
-8.94
1.23
10.14
17.04
21.16
21.93
19.39
14.31
8.05
2.24
-1.72
-3.14
-2.16
0.52
4.08
8.03
12.43
17.68
24.16
31.91
40.46
49.03
56.68
62.57
66.07
66.87
65.12
61.72
58.52
58.38
64.87
81.65
111.31
154.02
206.48
261.76
310.55
343.44
353.65
338.92
301.92
249.02
188.43
128.17
74.84
33.17
5.83
-6.57
-5.55
5.41
21.53
37.86
50.39
56.79
56.40
49.57
37.02
19.41
-2.71
-28.61
-56.99
-85.99
-113.36
-136.92
-155.16
-167.46
-174.09
-175.94
-174.14
-169.73
-163.62
-156.60
-149.42
-142.80
-137.24
-132.91
-129.61
-126.87
-124.18
-121.17
-117.79
-114.28
-110.96
-108.05
-105.59
-103.48
-101.51
-99.55
-97.52
-95.33
-92.74
-89.43
-85.08
-79.49
-72.76
-65.32
-57.85
-51.05
-45.39
-41.06
-38.00
-36.14
-35.63
-36.91
-40.53
-46.69
-54.93
-63.99
-72.23
-78.33
-81.87
-83.57
-84.97
-87.65
-92.52
-99.45
-107.41
-115.06
-121.27
-125.56
-128.10
-129.64
-131.29
-134.47
-140.71
-151.10
-165.64
-182.60
-198.67
-209.84
-212.86
-206.74
-193.33
-176.55
-160.72
-148.87
-141.65
-137.64
-134.49
-130.32
-124.59
-118.17
-112.69
-109.71
-110.12
-113.95
-120.45
-128.41
-136.51
-143.64
-149.11
-152.71
-154.60
-155.13
-154.63
-153.34
-151.50
-149.40
-147.33
-145.31
-142.96
-139.44
-133.67
-124.76
-112.50
-97.57
-81.44
-65.81
-51.95
-40.28
-30.16
-20.27
-9.22
3.83
18.87
35.11
51.51
67.21
82.06
96.55
111.59
128.12
146.81
167.86
190.81
214.40
236.48
254.36
265.51
268.52
263.74
253.15
239.57
225.36
211.84
199.37
188.29
179.74
175.89
179.21
191.26
211.75
238.30
267.02
293.60
314.33
326.98
331.04
327.75
319.57
309.56
300.46
293.81
289.45
285.83
280.85
272.95
261.79
248.19
233.49
218.64
203.62
187.51
169.11
147.80
124.15
99.96
77.71
59.77
47.61
41.58
40.84
43.57
47.30
49.47
48.14
42.55
33.45
22.95
13.68
7.96
6.90
10.27
16.75
24.53
31.84
37.39
40.34
40.43
38.04
34.30
30.95
29.86
32.22
37.89
45.33
52.28
56.86
58.67
58.89
59.59
62.34
67.11
71.92
73.53
68.82
56.06
35.65
9.78
-18.36
-45.61
-69.74
-89.66
-105.48
-118.10
-128.72
-138.56
-148.67
-159.87
-172.80
-187.90
-205.06
-223.26
-240.36
-253.24
-258.72
-254.57
-240.62
-218.84
-192.92
-166.88
-143.73
-124.78
-109.68
-97.31
-86.56
-76.95
-68.42
-60.80
-53.33
-44.73
-33.75
-19.82
-3.47
13.97
30.98
46.57
60.45
72.61
82.48
88.25
87.13
76.11
53.46
19.81
-21.61
-65.71
-106.94
-140.71
-164.30
-177.10
-180.29
-176.25
-167.89
-158.13
-149.26
-142.59
-138.11
-134.51
-129.53
-120.59
-105.51
-83.26
-54.33
-20.62
15.09
50.06
82.45
111.70
138.42
163.61
187.81
210.46
229.96
244.08
250.75
248.78
238.25
220.60
198.36
174.72
152.74
134.73
121.70
113.24
107.80
103.32
97.88
90.25
80.13
68.05
55.06
42.36
30.85
20.93
12.39
4.67
-2.82
-10.41
-17.94
-24.85
-30.41
-33.98
-35.26
-34.17
-30.55
-23.96
-13.70
0.93
20.00
42.63
66.98
90.78
112.02
129.35
142.19
150.46
154.19
153.44
148.42
139.74
128.35
115.23
100.92
85.15
67.25
46.67
23.76
-0.12
-22.98
-43.02
-59.29
-71.81
-81.23
-88.22
-93.19
-96.31
-97.90
-98.70
-99.78
-102.14
-106.10
-111.08
-115.72
-118.49
-118.26
-114.73
-108.51
-100.97
-94.06
-89.88
-90.28
-96.40
-108.46
-125.65
-146.33
-168.35
-189.48
-207.77
-221.65
-230.07
-232.39
-228.26
-217.57
-200.62
-178.36
-152.60
-126.08
-101.89
-82.79
-70.29
-64.05
-61.98
-61.03
-58.63
-53.92
-48.35
-45.05
-47.24
-56.46
-71.32
-87.78
-100.65
-105.68
-101.26
-88.96
-72.81
-57.65
-47.71
-45.61
-52.27
-67.30
-89.44
-116.80
-146.84
-176.46
-202.25
-221.12
-230.87
-230.82
-221.88
-206.20
-186.34
-164.48
-141.86
-118.74
-94.82
-69.72
-43.35
-15.98
11.81
39.27
65.39
89.11
109.50
126.02
138.70
148.05
154.84
160.01
164.38
168.65
173.37
178.84
185.09
191.90
198.88
205.92
212.73
218.45
221.62
220.59
214.22
202.57
187.29
171.15
157.37
148.07
143.28
141.25
139.63
136.78
132.31
126.89
121.51
117.64
115.90
115.88
116.65
117.55
118.56
119.80
121.07
121.66
123.06
126.28
130.98
135.60
138.63
139.40
137.92
134.49
129.51
128.65
136.27
152.63
173.74
194.52
211.56
223.65
231.07
234.89
244.22
265.70
299.01
337.49
373.72
403.91
428.19
448.64
467.44
496.11
542.06
602.98
667.80
724.32
765.59
791.07
804.56
745.23
585.07
343.34
76.57
-162.66
-351.13
-489.32
-586.73
-653.10
-694.32
-710.06
-699.29
-667.36
-626.28
-588.04
-559.36
-541.85
-534.70
-534.29
-530.32
-514.68
-486.16
-450.07
-413.36
-380.71
-354.37
-335.25
-323.61
-314.29
-302.13
-285.43
-266.38
-248.35
-233.48
-222.19
-213.71
-206.48
-196.76
-181.65
-161.46
-139.62
-120.52
-107.07
-99.79
-96.93
-95.58
-92.38
-85.24
-74.07
-59.95
-43.71
-25.23
-4.05
19.46
43.63
65.81
84.06
98.11
109.45
120.17
131.43
142.40
150.49
152.67
147.04
133.80
115.26
95.07
77.38
66.25
65.25
77.13
103.04
141.49
187.57
233.23
269.10
287.49
285.08
264.16
231.27
194.38
159.58
129.42
103.21
78.98
55.55
33.19
12.91
-5.08
-22.26
-41.50
-65.36
-94.44
-126.57
-157.30
-181.48
-195.13
-196.69
-187.25
-169.87
-148.43
-126.30
-105.71
-87.63
-72.23
-59.40
-49.12
-41.52
-36.59
-33.92
-32.56
-31.16
-28.22
-22.47
-12.97
0.97
20.01
44.78
75.46
111.02
148.72
184.24
212.70
230.30
235.55
229.68
215.86
197.92
179.06
161.32
145.94
133.88
126.19
123.63
125.97
131.47
137.10
139.52
136.44
127.43
113.94
98.46
83.26
69.38
56.30
42.31
25.24
3.09
-25.29
-59.79
-98.61
-138.22
-174.05
-201.80
-219.10
-226.69
-228.32
-229.23
-233.98
-244.64
-260.40
-278.55
-296.07
-310.86
-321.88
-328.51
-329.80
-324.35
-310.85
-289.02
-259.96
-225.95
-189.60
-153.06
-117.71
-84.61
-55.06
-30.62
-12.36
0.21
9.82
20.89
37.79
62.82
94.91
129.89
162.11
186.63
200.77
204.43
199.32
187.76
171.90
153.53
134.36
116.08
100.15
87.38
77.66
70.10
63.46
56.66
49.14
40.99
32.83
25.64
20.38
17.66
17.38
18.71
20.42
21.42
21.17
19.75
17.48
14.36
9.93
3.45
-5.46
-16.31
-27.72
-37.96
-45.73
-50.66
-53.14
-53.85
-53.11
-50.75
-46.40
-40.02
-32.22
-24.34
-17.89
-14.08
-13.33
-15.26
-18.87
-23.05
-26.97
-30.25
-32.92
-35.20
-37.30
-39.31
-41.22
-43.05
-44.83
-46.63
-48.50
-50.31
-51.93
-53.27
-54.43
-55.74
-57.65
-60.44
-64.07
-68.16
-72.13
-75.50
-78.07
-80.04
-81.72
-83.32
-84.69
-85.22
-83.99
-80.03
-72.55
-61.11
-45.73
-26.95
-5.76
16.54
38.53
58.90
76.60
90.87
101.31
107.77
110.38
109.52
105.86
100.23
93.53
86.52
79.59
72.82
66.04
59.13
52.36
46.46
42.54
41.70
44.50
50.54
58.29
65.43
69.46
68.55
62.10
51.02
37.35
23.51
11.53
2.42
-3.95
-8.57
-12.76
-17.66
-23.93
-31.55
-39.79
-47.30
-52.35
-53.28
-49.03
-39.53
-25.91
-10.10
5.79
20.03
31.68
40.54
46.80
50.69
52.35
51.92
49.69
46.26
42.36
38.69
35.64
33.19
31.02
28.71
26.03
23.05
20.11
17.55
15.54
13.93
12.25
9.98
6.66
2.11
-3.56
-10.04
-16.96
-23.94
-30.65
-36.80
-42.14
-46.62
-50.48
-54.23
-58.43
-63.30
-68.47
-72.86
-75.09
-73.89
-68.69
-59.69
-47.81
-34.25
-20.15
-6.45
6.22
17.43
26.93
34.56
40.28
44.15
46.34
47.20
47.25
47.08
47.16
47.60
48.15
48.39
48.09
47.41
46.86
46.89
47.58
48.43
48.62
47.45
44.71
40.76
36.21
31.67
27.50
23.90
20.94
18.70
17.11
15.76
13.91
10.62
5.23
-2.28
-11.08
-19.57
-25.98
-28.87
-27.69
-22.90
-15.84
-8.27
-1.80
2.51
4.35
4.02
2.18
-0.51
-3.55
-6.63
-9.51
-11.84
-13.24
-13.31
-11.86
-9.16
-5.90
-2.97
-1.07
-0.42
-0.69
-1.31
-1.91
-2.54
-3.72
-6.02
-9.70
-14.46
-19.69
-24.79
-29.53
-34.03
-38.53
-43.15
-47.80
-52.41
-57.16
-62.49
-68.83
-76.07
-83.30
-88.87
-90.92
-88.10
-80.03
-67.31
-51.35
-33.82
-16.31
-0.15
13.75
24.87
33.19
38.99
42.74
44.87
45.74
45.60
44.75
43.62
42.65
42.06
41.73
41.25
40.16
38.28
35.86
33.34
31.11
29.15
27.09
24.41
20.75
16.12
10.75
5.01
-0.89
-6.80
-12.59
-18.03
-22.88
-27.15
-31.25
-36.03
-42.29
-50.37
-59.67
-68.69
-75.40
-77.94
-75.14
-66.84
-53.74
-37.17
-18.76
-0.17
17.03
31.57
42.66
50.11
54.27
55.87
55.67
54.30
52.18
49.70
47.21
45.04
43.37
42.11
40.93
39.42
37.39
34.89
32.24
29.75
27.44
24.99
21.87
17.59
12.03
5.48
-1.49
-8.24
-14.38
-19.87
-24.97
-30.20
-36.08
-43.10
-51.36
-60.42
-69.11
-75.60
-77.89
-74.43
-64.81
-49.97
-31.93
-13.07
4.65
20.11
32.98
43.32
51.16
56.35
58.70
58.32
55.75
51.90
47.69
43.79
40.50
37.82
35.61
33.81
32.37
31.19
30.11
28.89
27.33
25.34
22.95
20.22
17.18
13.73
9.72
5.04
-0.33
-6.24
-12.48
-18.81
-25.02
-31.03
-36.89
-42.88
-49.55
-57.50
-67.05
-77.88
-88.76
-97.63
-102.21
-100.62
-92.10
-77.30
-58.06
-36.87
-16.07
2.55
18.07
30.21
39.14
45.17
48.67
50.03
49.65
47.98
45.44
42.46
39.46
36.81
34.76
33.31
32.16
30.66
28.00
23.48
16.76
7.97
-2.41
-13.73
-25.47
-37.38
-49.52
-62.20
-75.93
-91.31
-108.78
-128.21
-148.47
-167.21
-181.18
-187.08
-182.85
-168.56
-146.80
-121.88
-98.54
-80.47
-69.21
-64.10
-62.74
-62.00
-58.93
-51.46
-38.66
-20.78
0.93
24.53
47.79
68.62
85.48
97.59
104.98
108.36
108.82
107.52
105.42
103.01
100.42
97.49
94.04
90.09
85.91
81.93
78.50
75.75
73.46
71.21
68.55
65.18
61.00
56.08
50.52
44.42
37.85
30.93
23.92
17.16
10.98
5.58
0.90
-3.22
-6.98
-10.46
-13.61
-16.38
-18.93
-21.76
-25.54
-30.84
-37.67
-45.28
-52.27
-57.08
-58.53
-56.06
-49.86
-40.63
-29.26
-16.68
-3.82
8.43
19.27
28.02
34.32
38.04
39.33
38.43
35.60
31.21
25.70
19.66
13.70
8.35
3.88
0.23
-2.88
-5.90
-9.26
-13.27
-17.91
-22.89
-27.67
-31.63
-34.25
-35.19
-34.40
-32.07
-28.59
-24.55
-20.66
-17.58
-15.87
-15.92
-17.92
-21.98
-27.98
-35.55
-43.76
-51.13
-55.95
-56.76
-52.99
-45.21
-34.98
-24.29
-14.89
-7.85
-3.45
-1.41
-1.23
-2.32
-4.12
-6.12
-7.85
-8.90
-9.06
-8.27
-6.61
-4.26
-1.42
1.63
4.49
6.65
7.69
7.44
6.27
5.02
4.85
6.62
10.48
15.62
20.49
23.38
23.22
19.97
14.69
9.08
4.79
2.84
3.43
6.03
9.72
13.48
16.46
17.97
17.54
14.97
10.44
4.69
-1.01
-5.10
-6.21
-3.67
2.22
10.28
18.98
27.02
33.75
39.22
43.98
48.62
53.59
59.09
65.09
71.49
78.05
84.40
89.98
94.16
96.49
96.86
95.68
93.66
91.61
90.08
89.16
88.49
87.40
85.15
81.13
75.04
66.94
57.22
46.36
34.85
23.01
10.99
-1.04
-12.74
-23.50
-32.67
-39.73
-44.65
-47.99
-50.73
-53.95
-58.36
-64.12
-70.67
-76.90
-81.39
-82.72
-79.83
-72.34
-60.79
-46.54
-31.49
-17.52
-6.06
2.13
7.00
9.01
8.94
7.80
6.67
6.55
8.06
11.20
15.25
18.98
21.03
20.46
17.12
11.80
6.05
1.68
0.23
2.52
8.26
16.09
23.86
29.25
30.34
26.24
17.30
4.94
-8.78
-21.76
-32.35
-39.69
-43.83
-45.62
-46.41
-47.67
-50.54
-55.44
-61.93
-68.76
-74.25
-76.69
-74.83
-68.11
-56.71
-41.49
-23.75
-5.08
12.88
28.64
41.07
49.58
54.27
55.78
55.11
53.20
50.75
48.14
45.57
43.29
41.76
41.47
42.83
45.90
50.35
55.61
60.93
65.53
68.58
69.29
67.01
61.46
52.90
42.04
29.85
17.16
4.53
-7.74
-19.38
-29.96
-38.95
-46.01
-51.30
-55.62
-60.17
-66.15
-74.19
-84.03
-94.47
-103.62
-109.35
-109.87
-104.11
-92.05
-74.68
-53.75
-31.35
-9.49
10.31
27.14
40.64
50.82
57.81
61.79
63.01
61.90
59.20
55.92
53.12
51.63
51.73
53.11
54.93
56.22
56.18
54.57
51.70
48.33
45.33
43.34
42.54
42.58
42.76
42.26
40.42
36.82
31.35
24.20
15.76
6.61
-2.58
-11.06
-18.25
-23.79
-27.74
-30.51
-32.75
-35.02
-37.54
-39.94
-41.37
-40.80
-37.56
-31.65
-23.91
-15.66
-8.18
-2.17
2.44
6.40
10.60
15.59
21.34
27.18
32.23
35.68
37.23
37.25
36.58
36.36
37.52
40.55
45.33
51.22
57.22
62.36
65.81
67.07
65.99
62.76
58.03
52.76
48.06
44.83
43.36
43.13
42.94
41.47
37.84
32.04
25.00
18.16
12.88
9.93
9.26
10.13
11.52
12.71
13.66
15.10
18.29
24.61
34.83
48.86
65.53
82.99
99.20
112.59
122.41
128.78
132.51
134.62
136.04
137.33
138.63
139.75
140.32
140.05
138.86
136.92
134.55
131.96
128.96
124.91
118.72
109.21
95.61
77.93
57.24
35.44
14.67
-3.35
-17.92
-29.52
-39.59
-49.86
-61.78
-75.93
-91.89
-108.44
-124.05
-137.62
-148.80
-158.12
-166.48
-174.59
-182.23
-188.20
-190.78
-188.47
-180.76
-168.33
-152.57
-134.87
-116.05
-96.41
-76.07
-55.56
-35.88
-18.06
-2.54
11.16
23.83
35.79
46.26
53.67
56.81
56.24
54.80
56.66
65.32
81.46
102.07
121.27
132.62
131.63
117.29
91.99
60.17
26.48
-5.54
-33.90
-57.75
-76.74
-90.65
-99.38
-103.29
-103.58
-102.24
-101.66
-103.84
-109.73
-118.81
-129.34
-138.90
-145.24
-147.02
-144.05
-137.27
-128.24
-118.56
-109.41
-101.26
-94.04
-87.36
-80.93
-74.75
-69.20
-64.88
-62.31
-61.73
-62.86
-65.00
-67.30
-69.10
-70.24
-71.07
-72.20
-74.15
-76.98
-80.22
-83.17
-85.19
-86.10
-86.23
-86.23
-86.84
-88.48
-91.23
-94.65
-98.04
-100.56
-101.58
-100.92
-99.01
-96.78
-95.36
-95.58
-97.51
-100.33
-102.49
-102.19
-97.99
-89.16
-75.87
-59.05
-40.11
-20.60
-1.97
14.65
28.59
39.58
47.74
53.41
57.04
59.12
60.05
60.28
60.26
60.41
61.06
62.31
63.99
65.70
67.07
67.96
68.52
69.15
70.20
71.76
73.67
75.67
77.67
79.92
82.97
87.39
93.55
101.42
110.57
120.21
129.25
136.20
139.35
137.04
128.24
113.25
93.83
73.09
54.47
40.81
33.47
32.18
35.45
41.29
48.00
54.46
60.04
64.40
67.14
67.88
66.41
62.93
58.18
53.26
49.26
46.85
46.06
46.31
46.75
46.67
45.77
44.20
42.33
40.38
38.30
35.66
31.95
26.76
20.04
12.13
3.68
-4.55
-12.06
-18.78
-25.25
-32.32
-40.74
-50.58
-60.81
-69.40
-73.99
-72.72
-65.23
-52.86
-38.45
-25.37
-16.66
-14.27
-18.92
-30.35
-47.74
-70.14
-96.73
-126.88
-160.06
-195.70
-232.99
-270.64
-306.65
-338.31
-362.42
-375.85
-376.33
-363.00
-336.88
-300.51
-257.44
-211.25
-164.76
-119.46
-75.48
-32.21
10.72
52.64
91.32
123.55
146.17
157.36
157.30
148.06
132.71
114.34
95.48
78.11
63.98
54.78
51.79
55.23
63.75
74.66
84.79
91.70
94.41
93.62
90.93
87.96
85.48
83.17
80.01
74.87
67.24
57.51
46.80
36.51
27.72
20.86
15.59
11.14
6.57
1.12
-5.65
-13.82
-23.05
-32.62
-41.44
-48.29
-52.07
-52.17
-48.73
-42.64
-35.46
-29.00
-25.02
-24.92
-29.47
-38.71
-51.86
-67.38
-83.05
-96.36
-104.81
-106.54
-100.73
-87.85
-69.63
-48.67
-27.81
-9.38
5.23
15.82
23.14
28.32
32.47
36.30
40.15
44.21
48.68
53.85
59.94
66.94
74.44
81.77
88.21
93.31
97.02
99.60
101.36
102.37
102.39
100.96
97.72
92.71
86.41
79.62
73.17
67.53
62.65
57.98
52.69
46.02
37.52
27.32
16.20
5.47
-3.23
-8.32
-8.71
-4.18
4.53
16.03
28.68
41.21
52.93
63.64
73.36
81.86
88.60
92.89
94.40
93.56
91.65
90.43
91.40
95.12
100.94
107.24
112.16
114.47
114.13
112.31
110.84
111.42
115.02
121.57
130.13
139.11
146.49
150.09
147.68
137.49
118.45
90.52
54.60
12.10
-36.01
-89.68
-149.57
-215.79
-286.02
-354.48
-412.39
-450.51
-462.27
-446.38
-406.99
-351.53
-287.26
-218.55
-146.39
-70.39
8.32
85.30
153.45
205.52
237.11
248.10
241.87
223.19
196.13
163.46
127.09
89.48
54.24
25.56
6.88
-0.52
1.98
10.87
21.81
30.94
35.75
35.46
30.84
23.70
16.18
10.07
6.22
4.56
4.39
5.07
6.37
8.59
12.22
17.38
23.63
29.89
34.81
37.26
36.76
33.65
29.04
24.40
21.15
20.20
21.75
25.25
29.72
34.07
37.43
39.27
39.49
38.31
36.19
33.69
31.31
29.40
28.03
27.08
26.35
25.76
25.39
25.45
26.19
27.58
29.32
30.80
31.38
30.54
28.17
24.57
20.38
16.36
13.01
10.25
7.27
2.65
-5.12
-17.08
-33.24
-52.51
-73.02
-92.61
-109.47
-122.41
-130.80
-134.42
-133.25
-127.36
-117.11
-103.26
-86.94
-69.60
-52.64
-37.21
-24.02
-13.33
-5.01
1.37
6.34
10.47
14.28
18.24
22.71
27.84
33.59
39.72
45.84
51.57
56.62
60.90
64.53
67.77
70.94
74.17
77.20
79.10
78.22
72.56
60.35
40.91
15.18
-14.29
-43.91
-70.20
-90.64
-104.22
-111.13
-112.25
-108.58
-101.01
-90.43
-77.97
-64.91
-52.35
-40.74
-29.69
-18.34
-5.98
7.39
20.87
33.09
42.89
49.95
54.75
58.25
61.23
63.99
66.33
67.94
68.74
69.04
69.35
70.04
71.11
72.22
72.94
72.95
72.20
70.76
68.72
66.04
62.56
58.16
52.77
46.37
38.86
29.97
19.41
7.00
-7.00
-21.79
-36.13
-48.63
-58.09
-63.80
-65.67
-64.18
-60.16
-54.58
-48.31
-41.99
-36.05
-30.76
-26.37
-23.19
-21.46
-21.26
-22.36
-24.25
-26.35
-28.20
-29.65
-30.86
-32.09
-33.60
-35.48
-37.69
-40.16
-42.89
-45.99
-49.63
-54.01
-59.23
-65.33
-72.26
-79.94
-88.17
-96.66
-105.03
-112.90
-120.07
-126.69
-133.22
-140.30
-148.48
-158.01
-168.77
-180.28
-191.83
-202.43
-210.77
-215.23
-214.16
-206.23
-190.98
-168.98
-141.71
-111.06
-78.85
-46.44
-14.79
15.35
43.31
68.44
90.36
109.12
125.18
139.25
152.02
163.88
174.89
184.85
193.46
200.48
205.87
209.87
212.86
215.24
217.18
218.21
217.12
212.05
200.90
182.17
155.55
122.25
84.78
46.27
9.67
-22.70
-49.35
-69.42
-82.67
-89.54
-91.33
-90.21
-88.74
-89.07
-92.04
-96.67
-100.42
-100.17
-93.49
-79.61
-59.80
-36.91
-14.35
4.87
18.92
27.29
30.48
29.51
25.34
18.59
9.66
-1.06
-12.91
-24.95
-36.05
-45.25
-52.03
-56.35
-58.59
-59.36
-59.16
-58.37
-57.18
-55.75
-54.40
-53.60
-53.93
-55.81
-59.23
-63.70
-68.24
-71.80
-73.66
-73.85
-73.28
-73.48
-76.11
-82.36
-92.43
-105.44
-119.48
-132.05
-140.56
-142.89
-137.94
-126.07
-109.21
-90.40
-73.01
-59.66
-51.47
-47.97
-47.68
-49.08
-51.58
-55.79
-63.05
-74.61
-90.86
-110.99
-133.08
-154.45
-172.08
-183.21
-185.81
-178.90
-162.73
-138.66
-108.83
-75.41
-40.06
-3.47
33.73
70.49
105.22
136.25
162.38
183.24
199.30
211.50
221.32
229.38
235.53
239.50
241.59
242.89
244.38
246.51
248.68
250.57
250.94
248.35
242.47
234.80
228.85
228.53
236.66
253.43
277.03
301.93
320.53
326.32
316.63
293.67
262.66
229.55
191.46
151.18
114.53
86.30
67.42
53.61
42.12
31.09
20.81
10.90
1.82
-7.05
-17.07
-29.52
-44.95
-62.97
-83.10
-104.45
-125.45
-142.36
-151.49
-150.47
-139.18
-120.04
-97.18
-75.69
-59.67
-50.98
-48.18
-48.40
-48.72
-46.97
-41.91
-32.92
-20.11
-3.99
14.57
34.82
55.68
75.82
94.02
109.49
122.12
132.20
140.39
147.36
153.43
157.94
159.09
154.35
141.39
119.11
88.16
50.83
10.40
-29.95
-67.78
-101.75
-131.33
-156.32
-176.53
-191.80
-202.24
-208.37
-211.29
-212.39
-213.15
-214.90
-218.69
-225.20
-234.61
-246.53
-260.03
-273.94
-287.09
-298.64
-308.24
-316.02
-322.56
-328.64
-334.85
-341.12
-346.40
-348.69
-345.53
-334.83
-315.72
-289.13
-257.48
-224.20
-192.69
-165.68
-144.67
-129.82
-119.87
-112.28
-103.78
-91.18
-72.45
-47.41
-17.72
13.84
44.52
72.33
96.30
116.13
131.77
143.16
150.36
153.74
154.02
151.88
147.60
140.94
131.53
119.48
105.77
92.23
80.67
72.02
65.88
60.49
53.51
42.94
27.91
9.15
-11.24
-30.13
-44.13
-50.24
-46.61
-32.95
-10.61
17.58
47.95
76.82
101.15
119.07
129.99
134.44
133.70
129.33
122.83
115.38
107.72
100.19
92.91
85.78
78.69
71.61
64.80
58.73
54.09
51.44
50.89
51.88
53.21
53.53
51.81
47.72
41.79
35.06
28.54
22.70
17.36
11.85
5.40
-2.43
-11.53
-21.21
-30.31
-37.42
-41.15
-40.40
-34.67
-24.24
-10.17
5.91
22.16
36.93
49.10
58.16
64.18
67.58
68.91
68.74
67.52
65.62
63.27
60.60
57.72
54.75
51.85
49.15
46.68
44.29
41.65
38.38
34.21
29.05
23.02
16.39
9.46
2.49
-4.36
-11.07
-17.71
-24.53
-31.84
-39.96
-49.06
-59.02
-69.29
-78.76
-85.86
-88.79
-86.11
-77.25
-62.84
-44.70
-25.31
-7.14
8.02
19.32
26.73
30.80
32.25
31.82
30.29
28.32
26.44
24.78
23.10
21.11
18.82
16.90
16.74
19.95
28.08
42.25
63.30
91.72
127.28
168.14
210.37
248.03
274.55
284.72
276.22
250.00
209.18
157.64
99.17
37.85
-21.24
-71.73
-107.19
-123.31
-120.05
-102.37
-78.93
-59.34
-51.15
-57.99
-79.06
-109.91
-144.10
-174.93
-196.91
-206.68
-203.33
-188.05
-163.27
-131.54
-94.72
-53.85
-9.58
36.93
83.44
126.68
163.05
189.83
206.04
212.38
210.55
202.20
188.38
169.57
146.23
119.30
90.29
60.82
32.05
4.48
-21.89
-47.19
-71.25
-93.52
-113.12
-128.83
-139.23
-143.09
-139.85
-130.14
-115.99
-100.37
-86.24
-75.46
-68.23
-63.23
-58.45
-52.05
-42.91
-30.77
-15.83
1.47
20.52
40.40
59.66
76.60
89.72
98.33
102.78
104.32
104.37
104.03
103.67
103.19
102.29
100.84
98.82
96.17
92.55
87.31
79.86
69.94
57.86
44.48
30.94
18.30
7.29
-1.70
-8.57
-13.21
-15.38
-14.61
-10.58
-3.84
4.56
13.16
20.23
24.36
24.89
22.19
17.66
13.04
9.50
7.72
7.61
8.23
8.02
5.48
-0.30
-8.81
-18.78
-29.25
-38.80
-45.84
-49.65
-50.43
-49.29
-47.97
-47.12
-47.60
-52.04
-60.90
-72.00
-82.44
-89.36
-90.88
-86.82
-76.05
-59.85
-45.03
-35.30
-29.71
-25.79
-20.36
-10.73
4.49
29.62
66.45
108.41
152.97
202.29
256.90
314.53
369.86
416.02
452.75
480.69
493.21
490.88
480.47
466.46
450.15
430.51
370.56
256.74
147.06
62.86
-5.73
-61.27
-107.42
-148.74
-189.72
-233.94
-277.87
-318.74
-363.34
-412.15
-457.73
-491.37
-504.87
-493.19
-456.77
-397.59
-323.43
-250.86
-189.55
-139.43
-96.55
-56.02
-15.01
26.12
67.62
108.62
144.54
174.71
201.63
226.34
247.71
263.02
269.64
268.01
260.14
246.90
230.21
212.13
192.88
171.21
145.45
114.59
79.49
42.22
4.62
-31.30
-64.14
-94.15
-123.04
-153.36
-187.75
-228.50
-277.08
-333.68
-396.28
-460.01
-517.33
-559.52
-579.24
-573.07
-542.59
-493.41
-432.66
-366.29
-297.86
-229.09
-161.53
-97.94
-42.25
1.83
32.59
51.19
61.13
66.52
70.29
73.24
74.19
71.13
62.61
48.56
30.25
9.75
-10.90
-30.23
-47.29
-61.36
-71.46
-76.40
-75.25
-68.02
-56.09
-42.04
-28.95
-19.43
-14.92
-15.41
-19.59
-25.28
-29.98
-31.40
-28.01
-19.45
-6.59
8.75
24.47
38.96
51.53
62.39
72.06
80.81
88.23
93.53
96.00
95.73
93.77
91.87
91.67
93.98
98.34
103.25
106.93
108.17
106.89
104.15
101.61
100.85
102.79
107.57
114.53
122.34
128.92
131.59
127.49
114.68
93.30
66.19
38.22
14.68
-0.89
-7.94
-8.85
-7.41
-6.84
-8.53
-12.04
-16.25
-20.70
-26.32
-35.07
-48.70
-67.64
-90.46
-114.43
-136.56
-154.73
-168.30
-177.93
-184.83
-189.86
-193.14
-194.02
-191.65
-185.59
-176.01
-163.54
-148.80
-132.18
-113.99
-95.01
-76.78
-61.52
-51.22
-46.62
-46.54
-48.07
-47.73
-42.84
-32.53
-17.70
-0.26
17.96
35.89
53.11
69.43
84.27
96.68
105.71
111.03
113.25
113.66
113.73
114.29
115.26
115.73
114.50
110.77
104.45
96.13
86.69
76.82
66.68
56.02
44.39
31.60
17.93
4.16
-8.78
-20.21
-29.95
-38.29
-45.70
-52.37
-58.00
-61.75
-62.62
-59.90
-53.46
-43.83
-31.98
-19.00
-5.83
6.79
18.31
28.30
36.40
42.38
46.24
48.23
48.79
48.46
47.73
46.96
46.32
45.71
44.94
43.79
42.24
40.38
38.44
36.56
34.65
32.42
29.50
25.67
20.97
15.68
10.22
4.89
-0.17
-5.03
-9.84
-14.69
-19.39
-23.46
-26.09
-26.27
-23.07
-15.95
-4.98
9.11
25.09
41.53
57.15
71.09
82.93
92.56
99.93
104.99
107.71
108.22
106.99
104.81
102.49
100.56
99.07
97.59
95.49
92.32
88.01
82.82
77.10
71.01
64.47
57.17
48.91
39.75
30.04
20.41
11.45
3.64
-2.86
-8.22
-12.87
-17.46
-22.67
-29.06
-36.82
-45.60
-54.46
-62.06
-66.95
-68.02
-64.89
-57.91
-48.10
-36.73
-25.02
-13.81
-3.57
5.53
13.45
20.12
25.46
29.40
31.95
33.29
33.71
33.54
33.05
32.30
31.20
29.53
27.06
23.77
19.82
15.57
11.49
8.03
5.41
3.60
2.25
0.79
-1.38
-4.66
-9.14
-14.55
-20.36
-26.06
-31.30
-36.02
-40.38
-44.60
-48.84
-53.12
-57.34
-61.34
-64.86
-67.55
-68.86
-68.11
-64.59
-57.85
-47.93
-35.51
-21.78
-8.08
4.52
15.48
24.82
32.87
39.92
45.97
50.74
53.92
55.38
55.35
54.30
52.74
51.00
49.11
46.96
44.48
41.76
39.07
36.69
34.71
32.98
31.10
28.66
25.46
21.58
17.44
13.50
10.09
7.20
4.50
1.53
-2.16
-6.91
-12.89
-20.16
-28.66
-38.17
-48.30
-58.53
-68.21
-76.60
-82.87
-86.18
-85.82
-81.61
-74.10
-64.64
-54.97
-46.69
-40.68
-36.95
-34.93
-33.79
-32.82
-31.31
-28.39
-22.98
-14.07
-1.29
14.55
31.51
47.09
59.27
67.21
71.52
73.75
75.50
77.69
80.31
82.70
84.18
84.52
84.02
83.13
82.03
80.30
77.10
71.60
63.48
53.15
41.52
29.57
17.99
6.90
-3.97
-15.03
-26.52
-38.34
-49.98
-60.60
-69.16
-74.64
-76.38
-74.28
-68.88
-61.16
-52.23
-42.98
-33.90
-25.11
-16.59
-8.43
-0.83
5.94
11.74
16.64
20.89
24.79
28.54
32.16
35.52
38.45
40.79
42.40
43.18
43.03
41.96
40.07
37.63
35.04
32.76
31.19
30.59
31.01
32.21
33.72
34.95
35.47
35.07
33.91
32.32
30.59
28.78
26.69
24.01
20.59
16.63
12.71
9.51
7.51
6.77
6.89
7.29
7.53
7.51
7.51
8.05
9.57
12.31
16.22
20.93
25.79
30.01
32.72
33.23
31.31
27.31
22.18
17.11
13.15
10.82
10.12
10.66
12.10
14.26
17.21
20.97
25.44
30.25
34.84
38.60
40.88
41.15
39.03
34.57
28.36
21.51
15.34
10.93
8.69
8.25
8.65
8.85
8.17
6.43
3.89
0.98
-1.89
-4.28
-5.68
-5.43
-2.93
2.02
8.89
16.47
23.09
27.24
28.08
25.59
20.48
13.73
6.18
-1.76
-10.03
-18.87
-28.54
-39.28
-51.23
-64.33
-78.37
-92.84
-107.08
-120.46
-132.52
-143.13
-152.32
-160.08
-166.19
-170.23
-171.82
-170.91
-167.87
-163.29
-157.69
-151.27
-143.88
-135.31
-125.62
-115.30
-105.14
-95.94
-88.12
-81.53
-75.57
-69.42
-62.40
-54.14
-44.65
-34.18
-23.16
-11.93
-0.80
9.96
20.04
29.02
36.44
41.92
45.37
47.03
47.39
47.05
46.47
45.91
45.47
45.19
45.18
45.59
46.55
48.19
50.38
52.74
54.73
55.86
55.78
54.52
52.29
49.35
46.02
42.46
38.57
34.08
28.74
22.48
15.65
8.86
2.93
-1.06
-2.30
-0.54
3.77
9.71
16.02
21.83
26.57
29.99
32.89
36.03
39.59
43.12
45.99
47.53
48.10
48.18
48.11
49.56
53.61
60.12
67.72
74.82
79.67
82.38
83.31
82.59
82.80
86.11
93.00
102.22
112.00
120.01
126.52
132.02
136.60
143.45
155.31
172.50
192.88
213.60
231.31
246.67
261.24
255.30
217.65
150.76
69.99
-7.60
-62.58
-100.53
-127.65
-147.84
-163.26
-173.86
-177.88
-175.54
-169.45
-162.96
-159.93
-160.29
-163.09
-167.46
-170.14
-168.31
-161.29
-150.49
-137.96
-126.14
-114.63
-102.75
-90.40
-76.69
-61.33
-45.60
-31.72
-21.77
-17.38
-17.61
-20.63
-24.37
-26.15
-23.82
-16.79
-6.06
6.34
17.97
27.53
34.55
39.14
41.89
43.36
43.66
42.74
40.91
38.84
37.69
38.17
39.92
41.55
41.12
36.92
28.14
15.10
-1.02
-18.58
-35.83
-51.08
-62.81
-69.82
-71.56
-68.39
-61.61
-53.10
-44.75
-37.89
-33.06
-30.10
-28.50
-27.67
-27.10
-26.22
-24.34
-20.69
-14.61
-5.85
5.30
17.97
31.05
43.49
54.58
64.00
71.66
77.61
81.83
84.28
85.03
84.35
82.67
80.44
78.01
75.48
72.73
69.49
65.45
60.30
53.78
45.82
36.58
26.59
16.59
7.37
-0.51
-6.87
-11.86
-15.78
-19.03
-22.09
-25.53
-29.98
-35.67
-42.08
-47.62
-50.04
-47.30
-38.57
-24.93
-9.26
4.72
13.78
16.18
11.92
2.31
-10.87
-26.10
-42.37
-58.93
-75.01
-89.49
-101.08
-108.62
-111.52
-109.96
-104.86
-97.68
-90.12
-83.82
-80.17
-80.14
-84.08
-91.51
-101.03
-110.46
-117.36
-119.73
-116.78
-109.30
-99.35
-89.42
-81.33
-75.49
-70.84
-65.52
-57.84
-46.98
-33.12
-16.99
0.74
19.91
40.71
63.25
86.94
110.33
131.25
147.39
156.96
159.24
154.70
144.84
131.75
117.51
103.75
91.29
80.18
69.89
59.72
49.24
38.42
27.63
17.25
7.30
-2.75
-13.84
-26.97
-42.70
-60.84
-80.50
-100.30
-118.76
-134.52
-146.33
-153.03
-153.60
-147.52
-135.21
-118.34
-99.52
-81.56
-66.48
-54.83
-45.74
-37.57
-28.93
-19.31
-9.27
-0.08
6.97
11.04
12.07
10.67
8.03
5.50
4.28
5.08
7.90
12.05
16.45
20.05
22.13
22.55
21.55
19.60
17.12
14.35
11.28
7.74
3.49
-1.55
-7.15
-12.62
-16.95
-19.01
-17.96
-13.49
-5.92
3.86
14.59
24.91
33.65
40.02
43.74
44.95
44.09
41.60
37.75
32.69
26.54
19.54
12.20
5.18
-0.85
-5.44
-8.47
-10.12
-10.73
-10.77
-10.73
-11.12
-12.45
-15.09
-19.15
-24.40
-30.30
-36.24
-41.81
-46.99
-52.15
-57.90
-64.67
-72.36
-80.18
-86.65
-90.02
-88.77
-82.18
-70.57
-55.28
-38.29
-21.57
-6.67
5.53
14.78
21.22
25.13
26.81
26.62
25.06
22.74
20.31
18.26
16.74
15.59
14.46
13.03
11.13
8.81
6.18
3.37
0.38
-2.80
-6.15
-9.60
-13.00
-16.29
-19.52
-22.93
-26.87
-31.64
-37.33
-43.67
-49.90
-54.85
-57.18
-55.73
-49.91
-39.93
-26.78
-11.95
2.99
16.78
28.62
38.12
45.12
49.65
51.79
51.83
50.21
47.49
44.24
40.87
37.64
34.66
31.95
29.50
27.28
25.17
22.99
20.52
17.60
14.19
10.34
6.20
1.90
-2.54
-7.17
-12.12
-17.56
-23.58
-30.12
-36.86
-43.11
-47.91
-50.19
-49.11
-44.29
-36.01
-25.08
-12.61
0.30
12.72
23.97
33.51
40.91
45.87
48.31
48.47
46.89
44.22
41.07
37.84
34.75
31.98
29.66
28.00
27.03
26.56
26.08
24.97
22.73
19.20
14.66
9.62
4.64
0.07
-4.02
-7.83
-11.74
-16.14
-21.38
-27.60
-34.70
-42.12
-48.91
-53.79
-55.43
-52.87
-45.81
-34.75
-20.96
-6.15
7.96
20.05
29.39
35.90
39.87
41.76
42.00
40.91
38.80
36.05
33.11
30.43
28.26
26.63
25.36
24.17
22.86
21.32
19.59
17.74
15.83
13.85
11.73
9.31
6.46
3.09
-0.81
-5.15
-9.90
-15.05
-20.78
-27.20
-34.21
-41.19
-47.03
-50.27
-49.61
-44.41
-34.97
-22.45
-8.58
4.95
16.87
26.52
33.70
38.48
41.01
41.49
40.21
37.66
34.50
31.40
28.90
27.14
25.99
25.15
24.34
23.42
22.38
21.25
20.02
18.59
16.81
14.62
12.05
9.26
6.40
3.56
0.75
-2.11
-5.17
-8.58
-12.46
-16.75
-21.16
-24.98
-27.23
-26.74
-22.56
-14.23
-2.07
12.91
29.20
45.22
59.67
71.81
81.44
88.78
94.26
98.32
101.38
103.84
106.14
108.79
112.29
116.97
122.93
129.95
137.77
146.24
155.57
166.05
177.66
189.55
199.75
205.59
204.41
194.59
176.06
150.36
119.97
87.63
55.74
26.17
0.38
-20.62
-36.12
-45.87
-50.14
-49.57
-45.03
-37.22
-26.58
-13.36
2.07
18.88
35.67
50.59
61.78
67.89
68.53
64.17
55.75
43.93
28.68
9.33
-14.88
-43.77
-75.82
-108.33
-138.36
-163.80
-183.98
-199.49
-211.33
-220.14
-225.66
-227.17
-224.15
-217.06
-207.36
-196.91
-187.13
-178.21
-169.30
-159.25
-147.49
-134.59
-121.83
-110.30
-99.99
-89.49
-76.65
-59.63
-37.78
-11.84
16.63
46.05
75.10
102.51
126.33
143.96
152.83
151.86
142.24
127.26
110.76
95.22
80.73
65.49
47.68
27.36
7.27
-8.16
-14.83
-10.96
2.19
21.08
41.48
59.86
73.85
81.98
83.20
76.79
62.72
42.01
16.88
-9.82
-35.32
-57.35
-74.26
-84.80
-88.05
-83.73
-72.58
-56.55
-38.39
-20.87
-6.03
4.99
11.74
13.99
11.54
4.55
-6.15
-18.97
-32.17
-44.59
-56.21
-67.94
-80.74
-94.74
-108.77
-120.78
-128.77
-131.86
-130.79
-127.69
-125.31
-126.06
-131.27
-141.15
-155.15
-172.76
-193.99
-219.36
-249.32
-283.34
-319.40
-354.11
-383.53
-404.36
-414.66
-413.98
-402.78
-381.76
-351.45
-312.32
-265.28
-212.04
-155.18
-97.72
-42.52
8.20
53.07
91.47
123.27
148.54
167.50
180.50
188.12
191.16
190.63
187.57
182.87
177.07
170.41
162.95
154.65
145.53
135.69
125.16
113.90
101.83
89.02
75.95
63.54
53.04
45.70
42.24
42.67
46.29
52.05
58.85
65.93
72.89
79.48
85.38
90.14
93.25
94.37
93.59
91.36
88.35
85.14
82.06
79.19
76.40
73.53
70.50
67.33
64.03
60.53
56.67
52.19
46.91
40.75
33.82
26.27
18.29
10.00
1.44
-7.37
-16.45
-25.67
-34.73
-43.13
-50.08
-54.73
-56.29
-54.28
-48.69
-40.09
-29.43
-17.90
-6.61
3.55
12.07
18.90
24.27
28.57
32.14
35.23
37.92
40.21
42.17
43.87
45.46
46.94
48.28
49.33
50.04
50.45
50.78
51.25
51.95
52.77
53.38
53.47
52.88
51.69
50.23
48.87
47.94
47.52
47.38
46.93
45.22
41.20
34.14
24.07
12.05
-0.01
-9.90
-15.82
-16.92
-13.46
-6.44
2.89
13.50
24.68
36.03
47.14
57.55
66.83
74.73
81.37
87.02
92.09
96.78
100.98
104.27
106.08
105.91
103.56
99.24
93.55
87.28
81.18
75.79
71.25
67.39
63.76
59.89
55.43
50.30
44.69
38.92
33.24
27.71
22.11
16.05
9.18
1.44
-6.91
-15.35
-23.38
-30.69
-37.24
-43.15
-48.43
-52.88
-56.07
-57.57
-57.17
-54.99
-51.50
-47.34
-43.02
-38.87
-34.97
-31.30
-27.85
-24.70
-21.96
-19.76
-18.08
-16.76
-15.49
-13.96
-11.93
-9.34
-6.39
-3.36
-0.61
1.63
3.29
4.44
5.17
5.64
5.94
6.16
6.40
6.75
7.26
8.00
8.99
10.19
11.56
13.01
14.51
16.01
17.43
18.51
18.84
17.83
14.93
9.76
2.31
-7.02
-17.42
-27.67
-36.35
-41.93
-43.07
-38.94
-29.46
-15.36
1.93
20.60
38.83
54.99
67.79
76.34
80.24
79.65
75.31
68.42
60.36
52.41
45.48
39.97
35.82
32.61
29.77
26.65
22.80
18.07
12.69
7.25
2.43
-1.18
-3.40
-4.49
-5.17
-6.33
-8.74
-12.80
-18.33
-24.73
-31.18
-36.97
-41.73
-45.49
-48.48
-50.96
-53.03
-54.51
-55.09
-54.35
-52.05
-48.11
-42.65
-35.87
-28.00
-19.30
-10.01
-0.40
9.24
18.57
27.31
35.23
42.23
48.34
53.71
58.64
63.35
67.98
72.40
76.25
79.10
80.65
80.87
80.04
78.51
76.48
73.77
69.84
63.97
55.61
44.62
31.34
16.52
1.06
-14.16
-28.35
-40.93
-51.50
-60.02
-66.86
-72.83
-79.14
-86.96
-97.05
-109.31
-122.66
-135.38
-145.51
-151.58
-152.98
-150.10
-144.24
-137.26
-131.21
-127.98
-129.00
-135.06
-146.26
-162.14
-181.88
-204.55
-229.31
-255.44
-282.37
-309.47
-335.81
-359.89
-379.55
-392.15
-395.11
-386.68
-366.67
-336.58
-299.22
-257.76
-214.66
-171.06
-126.73
-80.63
-31.84
19.57
72.18
123.28
169.45
207.40
234.78
250.64
255.57
251.36
240.53
225.87
210.04
195.24
182.98
173.86
167.51
162.80
158.31
152.96
146.35
138.90
131.56
125.45
121.41
119.74
120.16
121.83
123.65
124.58
123.97
121.75
118.44
114.83
111.62
109.14
107.28
105.69
104.08
102.41
100.86
99.64
98.84
98.37
98.06
97.82
97.65
97.54
97.30
96.47
94.58
91.46
87.65
84.56
84.25
88.85
99.79
117.22
139.80
165.00
189.56
210.14
223.75
227.99
221.27
203.00
173.64
134.68
88.26
36.49
-19.13
-77.96
-139.64
-202.81
-264.00
-317.34
-355.85
-373.77
-369.05
-344.69
-308.13
-268.96
-235.77
-213.73
-203.68
-202.99
-207.54
-213.82
-220.08
-226.38
-233.65
-242.64
-253.11
-263.75
-272.56
-277.48
-276.80
-269.41
-254.73
-232.72
-203.80
-168.91
-129.56
-87.77
-46.03
-6.96
26.86
53.47
72.06
83.18
88.80
91.66
94.31
98.23
103.33
108.11
110.33
107.97
99.99
86.67
69.55
50.93
33.18
18.12
6.64
-1.29
-6.10
-8.18
-7.43
-3.28
5.04
17.95
35.31
56.48
80.35
105.28
128.81
147.63
158.17
157.83
146.54
127.45
106.39
89.89
82.84
86.78
99.87
118.09
137.07
153.43
165.08
171.00
170.83
164.90
154.44
141.66
129.21
119.35
113.29
110.90
111.08
112.38
113.51
113.66
112.40
109.55
105.09
99.02
91.37
82.05
70.96
58.14
44.04
29.67
16.36
5.27
-3.27
-10.03
-16.71
-25.28
-37.13
-52.40
-69.72
-86.45
-99.32
-105.40
-103.08
-92.79
-77.00
-59.53
-44.26
-34.01
-29.82
-31.05
-36.06
-43.00
-50.41
-57.27
-62.89
-66.73
-68.39
-67.69
-64.77
-59.96
-53.63
-46.05
-37.39
-27.86
-17.70
-7.38
2.45
10.92
17.07
20.10
19.72
16.45
11.69
7.38
5.45
7.16
12.62
20.63
29.01
35.31
37.48
34.58
26.98
16.33
5.12
-3.80
-7.85
-5.19
4.97
22.15
44.65
69.82
94.61
116.09
132.03
141.22
143.43
139.29
129.85
116.43
100.35
82.87
65.08
47.77
31.42
16.19
2.09
-11.01
-23.26
-34.83
-45.93
-56.73
-67.38
-77.93
-88.34
-98.54
-108.39
-117.69
-125.93
-132.31
-135.73
-135.18
-130.16
-121.19
-109.80
-98.28
-88.96
-83.41
-81.99
-83.69
-86.56
-88.26
-86.67
-80.40
-68.98
-52.90
-33.41
-12.35
8.24
26.45
40.87
50.83
56.40
58.27
57.35
54.51
50.40
45.45
40.09
34.86
30.53
27.81
27.17
28.55
31.29
34.25
36.21
36.16
33.57
28.50
21.41
12.93
3.68
-5.91
-15.47
-24.72
-33.36
-41.23
-48.42
-55.39
-62.73
-70.73
-78.91
-85.78
-89.17
-86.95
-77.93
-62.43
-42.31
-20.33
0.79
19.20
34.23
46.14
55.57
62.94
68.24
71.16
71.50
69.50
65.91
61.75
57.94
55.02
53.04
51.77
50.75
49.61
47.98
45.50
41.85
36.72
29.98
21.82
12.70
3.20
-6.17
-15.19
-24.04
-33.10
-42.70
-52.75
-62.62
-71.17
-77.10
-79.36
-77.49
-71.69
-62.66
-51.37
-38.73
-25.48
-12.17
0.73
12.80
23.59
32.73
39.86
44.74
47.24
47.44
45.64
42.43
38.49
34.42
30.58
26.96
23.29
19.23
14.54
9.16
3.17
-3.26
-9.93
-16.61
-23.01
-28.88
-34.12
-38.92
-43.79
-49.33
-55.91
-63.28
-70.53
-76.25
-79.02
-77.91
-72.75
-64.17
-53.44
-42.03
-31.24
-21.89
-14.09
-7.34
-0.78
6.39
14.48
23.12
31.22
37.28
39.97
38.56
33.33
25.54
17.11
9.94
5.34
3.64
4.25
6.04
7.89
9.12
9.46
8.95
7.68
5.61
2.72
-0.92
-5.15
-9.82
-14.90
-20.57
-26.91
-33.63
-39.83
-44.03
-44.50
-39.74
-28.88
-12.04
9.71
34.34
59.21
81.39
98.23
108.06
110.59
106.97
99.39
90.29
81.48
73.77
66.95
60.24
52.87
44.42
35.05
25.33
16.10
8.15
2.00
-2.37
-5.62
-8.84
-13.23
-19.59
-28.01
-37.81
-47.98
-57.52
-65.89
-73.06
-79.41
-85.45
-91.53
-97.69
-103.50
-108.25
-111.05
-111.11
-107.92
-101.30
-91.31
-78.13
-62.01
-43.27
-22.45
-0.41
21.62
42.13
59.64
72.80
80.67
82.87
79.68
72.11
61.73
50.29
39.43
30.23
23.16
18.17
14.95
13.15
12.43
12.42
12.68
12.58
11.53
9.25
5.82
1.84
-1.99
-5.07
-7.27
-8.92
-10.71
-13.40
-17.57
-23.35
-30.37
-37.67
-43.81
-47.09
-45.96
-39.42
-27.46
-11.18
7.45
26.19
43.10
57.05
67.73
75.42
80.61
83.62
84.57
83.43
80.28
75.28
68.74
60.96
52.19
42.69
32.76
22.89
13.60
5.24
-2.22
-9.33
-16.99
-26.20
-37.66
-51.59
-67.56
-84.74
-102.09
-118.69
-134.12
-148.49
-162.34
-176.20
-189.95
-202.36
-211.12
-213.33
-206.55
-189.73
-163.69
-130.94
-94.88
-58.80
-25.19
4.57
29.90
50.63
66.70
78.16
85.34
89.04
90.53
91.23
92.29
94.23
96.84
99.32
100.78
100.64
98.98
96.47
94.06
92.57
92.26
92.74
93.12
92.33
89.57
84.48
77.25
68.41
58.49
47.91
36.86
25.42
13.60
1.39
-11.32
-24.83
-39.55
-55.60
-72.41
-88.44
-101.27
-108.32
-107.75
-99.28
-84.24
-65.18
-44.91
-25.68
-8.87
4.95
15.56
22.80
26.47
26.59
23.60
18.44
12.45
6.91
2.77
0.32
-0.76
-1.14
-1.56
-2.42
-3.66
-4.82
-5.35
-4.94
-3.69
-2.13
-0.86
-0.33
-0.64
-1.54
-2.65
-3.70
-4.60
-5.46
-6.45
-7.69
-9.13
-10.65
-12.17
-13.78
-15.83
-18.70
-22.64
-27.52
-32.64
-36.93
-39.18
-38.43
-34.18
-26.55
-16.11
-3.81
9.30
22.20
34.04
44.21
52.45
58.78
63.39
66.57
68.57
69.59
69.80
69.36
68.46
67.29
66.02
64.78
63.62
62.51
61.23
59.37
56.49
52.32
46.98
41.06
35.35
30.55
26.84
23.81
20.74
16.90
12.06
6.53
0.94
-4.04
-8.18
-11.66
-15.05
-18.95
-23.77
-29.64
-36.35
-43.43
-50.10
-55.31
-57.79
-56.38
-50.38
-39.89
-25.90
-10.13
5.49
19.29
30.18
37.77
42.17
43.74
42.92
40.15
35.99
31.04
26.07
21.78
18.67
16.90
16.25
16.20
16.09
15.42
13.94
11.74
9.22
6.80
4.71
2.83
0.70
-2.29
-6.52
-11.96
-18.09
-24.19
-29.62
-34.22
-38.27
-42.42
-47.35
-53.52
-61.09
-69.73
-78.69
-86.75
-92.24
-93.46
-89.07
-78.63
-62.90
-43.71
-23.47
-4.46
11.66
24.21
33.21
39.20
42.77
44.44
44.64
43.77
42.21
40.23
38.00
35.52
32.78
29.94
27.38
25.70
25.42
26.69
29.15
32.01
34.33
35.38
34.85
32.87
29.84
26.16
22.06
17.59
12.61
7.01
0.72
-6.23
-13.75
-21.79
-30.29
-39.25
-48.67
-58.61
-69.24
-80.83
-93.72
-108.00
-123.18
-137.95
-150.15
-157.29
-157.19
-148.77
-132.42
-109.87
-83.72
-56.66
-30.86
-7.78
11.78
27.37
38.75
45.90
49.19
49.58
48.53
47.62
48.07
50.38
54.18
58.56
62.48
65.34
67.17
68.52
70.14
72.50
75.52
78.53
80.60
80.92
79.22
75.80
71.38
66.73
62.30
58.07
53.62
48.42
42.14
34.79
26.76
18.57
10.74
3.57
-2.96
-9.07
-15.16
-21.74
-29.23
-37.93
-47.82
-58.31
-68.15
-75.53
-78.44
-75.41
-66.00
-51.18
-33.06
-14.27
2.85
16.87
27.50
35.28
41.13
45.84
49.72
52.70
54.55
55.12
54.57
53.29
51.70
50.01
48.13
45.75
42.58
38.63
34.35
30.46
27.71
26.52
26.77
27.83
28.85
29.01
27.79
25.09
21.14
16.31
11.09
5.83
0.77
-4.07
-8.91
-14.13
-20.26
-27.70
-36.58
-46.51
-56.66
-65.95
-73.40
-78.45
-81.14
-82.06
-82.03
-81.83
-81.87
-82.13
-82.10
-80.97
-77.76
-71.59
-61.96
-48.96
-33.40
-16.62
-0.08
15.02
28.12
39.25
48.83
57.28
64.81
71.31
76.52
80.26
82.56
83.68
83.99
83.72
82.97
81.69
79.82
77.31
74.15
70.20
65.09
58.28
49.26
38.01
25.27
12.45
1.25
-6.99
-11.83
-13.88
-14.49
-15.23
-17.33
-21.45
-27.56
-35.22
-43.68
-52.18
-60.10
-67.11
-73.27
-78.83
-83.99
-88.51
-91.58
-91.99
-88.59
-80.79
-68.84
-53.84
-37.26
-20.58
-4.87
9.22
21.41
31.54
39.53
45.36
49.16
51.28
52.19
52.43
52.46
52.51
52.63
52.70
52.61
52.25
51.65
50.84
49.82
48.51
46.78
44.43
41.35
37.52
33.10
28.36
23.61
19.06
14.78
10.58
6.17
1.23
-4.37
-10.52
-16.88
-23.02
-28.65
-33.70
-38.42
-43.25
-48.70
-55.17
-62.73
-71.03
-79.22
-85.95
-89.62
-88.82
-82.74
-71.56
-56.46
-39.38
-22.38
-7.13
5.48
15.31
22.75
28.29
32.27
34.84
36.10
36.22
35.60
34.67
33.80
33.16
32.65
32.09
31.32
30.33
29.26
28.27
27.44
26.64
25.60
23.97
21.51
18.21
14.33
10.35
6.72
3.68
1.12
-1.37
-4.30
-7.97
-12.32
-16.87
-21.01
-24.32
-26.79
-28.91
-31.41
-35.05
-40.27
-47.08
-55.01
-63.15
-70.15
-74.46
-74.58
-69.53
-59.23
-44.69
-27.80
-10.76
4.54
17.06
26.69
33.97
39.66
44.27
48.01
50.83
52.64
53.59
54.00
54.30
54.92
56.05
57.71
59.72
61.76
63.49
64.62
64.89
64.21
62.69
60.62
58.44
56.53
55.18
54.37
53.79
52.93
51.17
47.99
43.01
36.05
27.06
16.18
3.66
-10.10
-24.59
-39.19
-53.20
-65.77
-75.90
-82.48
-84.53
-81.60
-74.05
-63.19
-50.97
-39.42
-29.94
-22.92
-17.71
-13.10
-7.93
-1.64
5.51
12.65
18.71
22.82
24.61
24.25
22.31
19.50
16.47
13.67
11.30
9.49
8.29
7.74
7.86
8.47
9.13
9.15
7.77
4.39
-1.11
-8.27
-16.17
-23.78
-30.35
-35.60
-39.81
-43.56
-47.46
-51.97
-57.37
-63.70
-70.84
-78.35
-85.36
-90.51
-92.25
-89.33
-81.27
-68.72
-53.27
-36.97
-21.71
-8.65
1.86
10.09
16.49
21.35
24.68
26.27
25.98
23.90
20.52
16.54
12.56
8.92
5.52
2.04
-1.80
-5.98
-10.08
-13.44
-15.47
-15.91
-14.96
-13.14
-11.07
-9.22
-7.80
-6.79
-6.12
-5.72
-5.63
-5.95
-6.78
-8.13
-9.89
-11.94
-14.23
-16.95
-20.49
-25.27
-31.39
-38.36
-44.96
-49.43
-50.01
-45.59
-36.22
-23.07
-8.09
6.78
20.19
31.67
41.47
49.96
57.28
63.13
67.04
68.80
68.77
67.84
67.11
67.38
68.83
71.05
73.26
74.75
75.15
74.41
72.74
70.29
67.14
63.24
58.58
53.32
47.73
42.14
36.73
31.55
26.41
21.10
15.49
9.61
3.67
-2.08
-7.52
-12.75
-18.10
-23.98
-30.67
-38.13
-45.76
-52.47
-56.85
-57.57
-53.77
-45.44
-33.46
-19.33
-4.79
8.76
20.49
30.17
38.02
44.33
49.24
52.76
54.84
55.64
55.53
55.07
54.69
54.60
54.69
54.68
54.30
53.44
52.18
50.63
48.87
46.84
44.37
41.34
37.78
33.89
29.97
26.31
22.94
19.60
15.76
10.82
4.41
-3.42
-12.09
-20.78
-28.70
-35.45
-41.16
-46.42
-51.97
-58.41
-65.96
-74.41
-83.14
-91.19
-97.33
-100.24
-98.77
-92.28
-80.91
-65.70
-48.37
-30.81
-14.63
-0.78
10.51
19.49
26.50
31.78
35.34
37.20
37.55
36.81
35.56
34.26
33.17
32.21
31.15
29.78
27.99
25.89
23.62
21.31
19.00
16.67
14.22
11.60
8.73
5.50
1.87
-2.16
-6.46
-10.83
-14.98
-18.79
-22.20
-25.32
-28.34
-31.40
-34.59
-37.88
-41.23
-44.58
-47.86
-51.10
-54.32
-57.64
-61.27
-65.53
-70.86
-77.55
-85.52
-94.03
-101.54
-105.95
-105.22
-98.08
-84.61
-66.30
-45.55
-24.95
-6.44
9.03
21.40
31.10
38.57
44.07
47.70
49.65
50.31
50.31
50.21
50.38
50.83
51.26
51.33
50.85
49.87
48.66
47.53
46.59
45.69
44.50
42.63
39.87
36.31
32.31
28.32
24.74
21.66
18.94
16.27
13.36
10.09
6.55
2.94
-0.50
-3.64
-6.57
-9.52
-12.79
-16.63
-21.16
-26.27
-31.66
-36.96
-41.86
-46.27
-50.37
-54.54
-59.29
-65.06
-72.01
-79.82
-87.61
-93.89
-96.83
-94.74
-86.62
-72.58
-53.95
-32.90
-11.82
7.35
23.56
36.60
46.84
54.76
60.66
64.65
66.76
67.17
66.28
64.66
62.82
61.13
59.65
58.29
56.88
55.26
53.44
51.50
49.50
47.44
45.16
42.41
38.95
34.68
29.71
24.34
18.92
13.73
8.85
4.25
-0.22
-4.61
-8.87
-12.90
-16.65
-20.19
-23.76
-27.56
-31.70
-36.05
-40.32
-44.16
-47.34
-49.93
-52.30
-55.02
-58.71
-63.88
-70.65
-78.61
-86.80
-93.69
-97.43
-96.32
-89.23
-76.09
-57.98
-37.05
-15.80
3.50
19.42
31.55
40.26
46.29
50.25
52.45
53.02
52.11
50.10
47.56
45.10
43.09
41.60
40.45
39.38
38.24
37.04
35.87
34.83
33.87
32.85
31.47
29.45
26.55
22.70
18.03
12.90
7.78
3.10
-0.91
-4.28
-7.32
-10.44
-13.99
-18.15
-22.83
-27.73
-32.47
-36.77
-40.47
-43.69
-46.76
-50.15
-54.38
-59.83
-66.66
-74.61
-82.96
-90.42
-95.36
-96.15
-91.54
-81.24
-66.00
-47.63
-28.45
-10.73
3.90
14.68
21.62
25.18
25.80
23.87
19.78
14.22
8.37
3.73
1.74
3.27
8.33
15.99
24.93
33.86
42.00
49.17
55.47
61.01
65.56
68.68
69.84
68.85
65.89
61.49
56.29
50.76
45.11
39.35
33.43
27.32
21.07
14.71
8.25
1.71
-4.89
-11.44
-17.75
-23.66
-29.15
-34.34
-39.55
-45.26
-51.94
-59.95
-69.30
-79.38
-88.91
-95.97
-98.59
-95.26
-85.57
-70.35
-51.47
-31.30
-12.00
4.93
18.80
29.62
37.76
43.67
47.73
50.17
51.14
50.81
49.47
47.53
45.42
43.53
41.98
40.67
39.33
37.71
35.78
33.64
31.52
29.47
27.28
24.58
21.04
16.59
11.55
6.49
1.97
-1.77
-4.92
-7.95
-11.42
-15.63
-20.58
-25.93
-31.22
-36.03
-40.14
-43.59
-46.71
-50.05
-54.30
-60.02
-67.40
-75.98
-84.46
-90.94
-93.36
-90.17
-80.84
-66.12
-47.76
-27.99
-8.83
8.36
23.07
35.30
45.23
52.92
58.22
60.98
61.35
59.92
57.60
55.35
53.82
53.10
52.79
52.24
50.93
48.71
45.95
43.35
41.61
41.15
41.81
42.99
43.86
43.69
42.20
39.63
36.68
34.34
33.66
35.54
40.42
47.95
56.82
64.88
69.69
69.42
63.54
53.17
40.61
28.60
19.32
13.89
12.33
13.89
17.35
21.35
24.55
25.73
23.80
17.75
6.53
-10.98
-35.61
-67.22
-103.95
-142.04
-176.58
-202.92
-218.23
-222.17
-216.56
-204.05
-186.95
-166.66
-144.03
-120.09
-96.52
-75.35
-58.25
-45.68
-36.70
-29.52
-22.35
-14.35
-6.00
1.25
5.68
6.20
2.90
-2.89
-9.07
-13.64
-15.40
-14.39
-11.76
-9.28
-8.53
-10.33
-14.28
-18.89
-21.83
-20.64
-13.36
0.86
21.47
46.69
73.90
100.42
124.00
143.51
159.02
171.49
181.99
190.68
196.22
195.95
186.92
167.25
137.22
99.51
58.60
19.65
-12.59
-34.37
-43.47
-39.38
-23.58
0.49
27.93
53.50
72.93
83.84
85.93
80.42
69.32
54.81
39.11
24.42
12.74
5.61
3.60
6.18
11.90
18.94
25.76
31.47
35.88
39.05
40.96
41.28
39.60
35.79
30.29
24.08
18.12
13.00
8.56
4.05
-1.49
-8.77
-17.98
-28.88
-40.94
-53.65
-66.57
-79.51
-92.52
-105.99
-120.38
-135.95
-152.35
-168.52
-182.92
-194.00
-200.62
-202.22
-198.74
-190.42
-177.84
-162.06
-144.67
-127.68
-112.96
-101.62
-93.65
-87.88
-82.57
-76.06
-67.38
-56.48
-44.10
-31.40
-19.49
-9.13
-0.62
6.21
11.92
17.32
23.37
31.04
41.00
53.41
67.68
82.65
97.01
109.87
121.15
131.44
141.56
151.81
161.62
169.65
174.43
175.00
171.46
165.03
157.74
151.97
149.78
152.40
159.75
170.37
181.72
190.88
195.36
193.57
184.96
169.67
148.36
122.24
93.19
63.85
37.35
16.45
2.75
-3.78
-4.61
-1.86
2.49
6.97
10.57
12.14
10.16
2.94
-10.73
-30.66
-54.99
-80.48
-103.66
-121.98
-134.67
-142.61
-147.55
-151.00
-153.52
-154.73
-153.83
-150.35
-144.55
-137.40
-130.09
-123.63
-118.57
-114.89
-112.05
-109.07
-104.62
-97.36
-86.27
-70.96
-51.74
-29.53
-5.55
18.85
42.26
63.25
80.35
92.41
98.67
99.09
94.24
85.13
72.81
58.20
42.07
25.29
8.94
-5.68
-17.51
-26.15
-32.23
-37.29
-43.28
-51.83
-63.65
-78.23
-94.05
-109.09
-121.52
-130.14
-134.59
-135.02
-131.58
-124.00
-111.44
-92.97
-68.27
-38.35
-5.61
26.79
56.14
81.27
102.66
121.81
140.15
158.13
175.17
190.00
201.48
208.78
211.34
208.44
199.10
182.37
158.12
127.70
94.03
60.95
32.08
9.78
-5.52
-15.13
-21.55
-27.62
-35.93
-48.43
-66.41
-90.51
-120.71
-156.22
-195.36
-235.56
-273.70
-306.41
-330.70
-344.50
-347.05
-339.11
-322.92
-301.80
-279.42
-258.94
-242.18
-229.07
-217.73
-205.00
-187.60
-163.17
-130.94
-91.89
-48.34
-3.24
40.43
80.13
113.98
140.87
160.42
173.00
179.51
181.12
178.95
173.88
166.56
157.54
147.56
137.56
128.69
121.93
117.87
116.42
116.89
118.22
119.24
119.07
117.14
113.27
107.57
100.46
92.68
85.27
79.30
75.55
74.22
74.92
76.92
79.48
82.12
84.51
86.18
86.36
83.96
77.86
67.15
51.46
31.04
6.92
-18.97
-43.79
-64.13
-76.82
-79.93
-73.57
-59.94
-42.53
-24.90
-9.57
2.46
11.37
17.86
22.48
25.42
26.67
26.35
24.92
23.15
21.84
21.54
22.26
23.65
25.19
26.56
27.86
29.53
32.10
35.79
40.31
44.86
48.44
50.31
50.23
48.59
46.15
43.77
42.11
41.53
42.11
43.69
45.94
48.38
50.55
52.17
53.23
54.04
54.88
55.68
55.76
53.95
49.03
40.43
28.51
14.47
-0.12
-13.85
-25.60
-34.28
-38.49
-36.62
-27.57
-11.73
8.53
29.33
46.66
58.02
63.19
63.90
62.55
60.87
59.23
56.98
53.28
47.76
40.59
32.02
22.02
10.31
-3.21
-17.93
-32.48
-45.22
-55.08
-62.11
-67.35
-72.08
-76.73
-80.43
-81.20
-76.95
-66.58
-50.65
-31.13
-10.54
9.10
26.82
42.43
55.74
65.92
71.28
69.65
59.20
39.15
10.23
-25.07
-62.53
-96.62
-121.69
-133.75
-132.26
-120.95
-107.01
-98.54
-101.40
-116.98
-141.99
-170.27
-195.58
-213.79
-223.68
-226.08
-222.50
-214.00
-200.88
-183.30
-161.80
-137.78
-113.14
-89.71
-68.61
-49.87
-32.49
-14.98
3.95
24.88
47.34
70.04
91.33
109.87
124.96
136.54
144.93
150.24
152.17
150.06
143.41
132.32
117.75
101.18
84.06
67.24
50.83
34.72
19.28
5.76
-4.06
-8.84
-8.60
-5.25
-1.97
-1.91
-6.81
-16.26
-27.81
-37.91
-43.14
-41.26
-31.67
-15.39
5.28
27.53
48.59
66.25
79.22
87.02
89.93
88.79
84.88
79.88
75.45
72.79
72.04
72.08
70.89
66.51
58.06
46.25
33.15
21.15
11.91
5.68
1.43
-2.39
-7.01
-12.93
-19.98
-27.80
-36.13
-44.91
-54.01
-62.98
-71.08
-77.66
-82.48
-85.85
-88.19
-89.66
-89.65
-87.05
-80.70
-70.15
-56.05
-39.86
-23.25
-7.39
7.27
20.80
33.36
44.74
54.41
61.80
66.64
69.04
69.44
68.38
66.49
64.43
62.97
62.79
64.21
66.89
69.82
71.54
70.79
66.93
60.24
51.66
42.43
33.53
25.39
17.79
10.04
1.28
-9.18
-21.54
-35.44
-50.10
-64.64
-78.54
-91.78
-104.87
-118.68
-134.09
-151.67
-171.33
-191.97
-211.11
-225.00
-229.34
-220.66
-197.86
-163.06
-121.11
-78.10
-39.30
-7.76
15.86
32.43
43.06
48.51
49.09
45.41
38.77
31.08
24.25
19.41
16.62
15.08
13.86
12.39
10.80
9.62
9.42
10.41
12.26
14.31
15.79
16.19
15.40
13.74
11.74
9.88
8.29
6.73
4.76
1.87
-2.24
-7.71
-14.54
-22.65
-31.71
-41.08
-49.59
-55.70
-57.77
-54.60
-45.80
-31.96
-14.45
4.96
24.61
43.12
59.51
73.14
83.59
90.69
94.50
95.42
94.12
91.49
88.40
85.53
83.10
80.91
78.50
75.48
71.77
67.62
63.46
59.66
56.29
53.03
49.40
44.98
39.72
33.98
28.44
23.77
20.30
17.79
15.26
11.15
3.74
-8.20
-24.76
-44.43
-64.24
-80.46
-89.67
-89.85
-80.91
-64.72
-44.39
-23.30
-4.19
11.30
22.73
30.55
35.69
39.15
41.63
43.45
44.45
44.25
42.42
38.75
33.39
26.83
19.75
12.85
6.53
0.78
-4.80
-10.82
-17.81
-25.96
-35.05
-44.58
-53.95
-62.74
-70.82
-78.36
-85.64
-92.91
-100.31
-107.90
-115.67
-123.60
-131.51
-138.84
-144.54
-147.06
-144.77
-136.55
-122.40
-103.58
-82.27
-60.78
-40.72
-22.67
-6.42
8.47
22.03
33.77
42.92
48.96
51.95
52.53
51.47
49.30
46.07
41.55
35.66
28.80
21.89
15.98
11.81
9.41
7.96
6.16
2.77
-2.85
-10.36
-18.45
-25.34
-29.32
-29.50
-26.07
-20.24
-13.75
-8.11
-4.02
-1.00
2.31
7.61
16.20
28.40
43.56
60.37
77.45
93.84
109.30
124.11
138.68
153.08
166.59
177.75
184.53
185.00
178.03
163.82
144.14
122.09
101.21
84.52
73.69
68.62
67.82
69.07
70.21
69.65
66.37
59.82
49.68
35.86
18.65
-1.11
-22.07
-42.70
-61.64
-78.15
-92.22
-104.53
-116.01
-127.56
-139.79
-152.93
-166.92
-181.39
-195.51
-207.68
-215.43
-215.79
-206.07
-184.88
-153.01
-113.46
-70.72
-29.51
6.37
34.62
54.25
65.19
68.01
63.88
54.78
43.45
32.92
25.78
23.52
26.35
33.35
42.91
53.07
61.79
67.22
68.02
63.78
55.33
44.60
34.06
25.93
21.63
21.36
24.17
28.11
30.64
29.26
22.28
9.61
-6.93
-24.12
-38.39
-47.17
-49.80
-47.43
-42.20
-36.02
-29.72
-22.89
-14.39
-3.22
10.95
27.50
45.08
61.99
76.51
87.23
93.13
93.83
89.80
82.42
73.97
67.11
64.04
65.66
70.93
77.09
80.53
78.22
68.94
53.91
36.42
20.68
10.35
7.34
11.38
20.27
30.82
39.86
45.16
45.95
42.96
38.04
33.48
31.34
32.88
38.26
46.49
55.62
63.20
66.90
65.30
58.53
48.42
38.14
31.09
29.80
34.99
45.57
59.14
72.98
84.85
93.31
97.65
97.62
93.24
84.76
72.84
58.52
43.19
28.38
15.41
5.15
-2.19
-7.12
-10.56
-13.56
-16.85
-20.70
-24.96
-29.32
-33.52
-37.59
-41.72
-46.20
-51.34
-57.51
-65.11
-74.44
-85.51
-97.89
-110.82
-123.46
-135.27
-146.13
-156.35
-166.48
-177.09
-188.62
-201.22
-214.50
-227.22
-237.19
-241.55
-237.60
-223.74
-200.30
-169.64
-135.50
-101.86
-71.84
-47.06
-27.70
-12.87
-1.38
7.92
15.93
23.42
31.09
39.56
49.20
59.92
70.90
80.82
88.22
92.03
91.99
88.73
83.53
77.82
72.74
68.86
66.24
64.72
64.32
65.42
68.79
74.90
83.34
92.15
98.00
97.16
86.99
67.26
40.60
11.70
-14.45
-34.17
-45.80
-49.23
-44.96
-33.44
-15.28
7.82
32.38
53.48
66.41
68.74
61.55
49.06
36.66
28.49
25.81
27.22
29.99
32.01
32.82
33.39
35.20
39.17
45.29
52.86
61.18
69.74
78.09
85.20
89.01
86.74
75.50
53.16
18.92
-26.52
-80.94
-140.69
-200.81
-255.64
-299.76
-329.26
-342.69
-341.09
-327.11
-303.64
-272.64
-234.68
-189.37
-136.30
-76.09
-10.93
55.19
116.92
168.36
204.23
221.25
218.95
199.93
168.81
130.97
91.48
54.62
23.59
0.19
-15.87
-27.46
-39.46
-56.93
-82.34
-113.70
-144.63
-166.62
-172.47
-159.34
-129.81
-90.90
-51.56
-19.70
-0.17
6.20
2.13
-7.32
-16.34
-19.87
-14.57
0.78
25.28
56.29
89.66
120.36
143.17
153.71
149.45
130.35
98.68
58.33
14.04
-29.08
-65.66
-90.39
-98.71
-87.96
-58.58
-14.62
36.79
87.07
128.42
155.80
167.96
167.06
157.22
142.65
126.26
109.38
92.30
75.24
58.81
43.96
31.26
20.38
10.09
-1.13
-14.17
-28.82
-43.72
-57.08
-67.33
-73.69
-76.29
-75.96
-73.92
-71.33
-69.03
-67.31
-66.04
-64.89
-63.66
-62.51
-61.79
-61.79
-62.37
-62.95
-62.73
-61.17
-58.26
-54.62
-51.13
-48.56
-47.08
-46.16
-44.62
-40.97
-33.85
-22.66
-7.84
8.98
25.48
39.34
49.20
55.11
58.43
61.18
65.22
71.70
80.81
91.83
103.34
113.32
119.40
119.36
111.84
97.04
76.96
54.85
34.32
18.24
8.17
4.24
5.48
10.25
16.40
21.47
22.89
18.51
7.17
-10.91
-34.06
-59.59
-84.38
-105.66
-121.54
-131.40
-135.97
-137.00
-136.65
-136.60
-137.25
-137.39
-134.57
-126.00
-109.72
-85.55
-55.26
-22.11
10.22
38.66
61.44
78.08
89.02
95.00
96.72
94.81
90.00
83.28
75.78
68.47
61.84
55.78
49.71
42.99
35.26
26.58
17.35
8.08
-0.79
-8.97
-16.27
-22.56
-27.73
-31.75
-34.78
-37.07
-39.04
-41.04
-43.14
-45.12
-46.36
-46.24
-44.33
-40.81
-36.34
-31.88
-28.22
-25.67
-24.12
-23.38
-23.67
-25.70
-30.23
-37.37
-45.95
-53.63
-57.55
-55.56
-47.09
-33.37
-16.84
-0.12
14.86
27.29
37.20
45.04
51.07
55.28
57.41
57.32
55.27
51.95
48.31
45.13
42.69
40.68
38.41
35.23
30.88
25.64
20.07
14.74
9.89
5.41
1.05
-3.23
-7.16
-10.18
-11.77
-11.63
-9.85
-6.88
-3.35
0.12
2.98
4.91
5.75
5.55
4.49
2.91
1.15
-0.56
-2.16
-3.86
-6.06
-9.25
-13.80
-19.79
-26.84
-34.03
-40.05
-43.48
-43.09
-38.26
-29.13
-16.66
-2.39
11.96
24.88
35.40
43.19
48.43
51.49
52.79
52.58
51.01
48.26
44.63
40.57
36.60
33.15
30.35
28.12
26.18
24.37
22.77
21.68
21.36
21.74
22.33
22.29
20.91
17.94
13.86
9.67
6.51
5.13
5.60
7.48
10.16
13.33
17.18
22.26
29.11
37.79
47.68
57.60
66.14
72.03
74.55
73.56
69.55
63.62
57.33
52.48
50.71
53.04
59.46
68.93
79.62
89.69
97.89
103.91
108.20
111.25
113.01
112.70
109.14
101.44
89.58
74.54
57.96
41.53
26.50
13.61
3.32
-3.96
-7.70
-7.46
-3.25
4.16
13.27
22.09
28.72
31.85
31.04
26.77
20.04
11.99
3.40
-5.39
-14.33
-23.41
-32.52
-41.47
-50.17
-58.76
-67.41
-76.15
-84.60
-92.00
-97.61
-101.14
-103.11
-104.67
-107.26
-111.90
-118.75
-126.91
-134.45
-138.90
-137.92
-129.96
-114.78
-93.69
-69.14
-44.10
-21.24
-2.30
12.07
22.00
28.06
30.81
30.74
28.34
24.33
19.65
15.36
12.25
10.68
10.43
10.94
11.54
11.72
11.34
10.52
9.53
8.66
8.08
7.82
7.69
7.44
6.77
5.53
3.77
1.74
-0.31
-2.30
-4.42
-7.13
-10.84
-15.73
-21.58
-27.82
-33.86
-39.28
-44.10
-48.58
-53.18
-58.40
-64.68
-72.27
-81.14
-90.68
-99.60
-106.09
-108.23
-104.62
-94.96
-80.20
-62.24
-43.31
-25.34
-9.57
3.55
14.09
22.28
28.32
32.27
34.16
34.16
32.71
30.52
28.44
27.11
26.89
27.63
28.88
30.06
30.73
30.76
30.25
29.48
28.68
27.91
26.99
25.61
23.50
20.59
17.10
13.45
10.01
6.90
3.91
0.67
-3.02
-6.99
-10.68
-13.43
-14.85
-15.18
-15.26
-16.27
-19.25
-24.64
-31.96
-39.82
-46.13
-48.63
-45.50
-35.92
-20.35
-0.40
21.65
43.51
63.43
80.39
93.98
104.09
110.70
113.93
114.10
111.90
108.38
104.70
101.91
100.68
101.39
104.11
108.76
115.10
122.65
130.56
137.72
142.99
145.40
144.45
140.08
132.59
122.51
110.42
97.01
82.97
68.96
55.45
42.57
30.12
17.67
4.81
-8.57
-22.25
-35.71
-48.32
-59.69
-69.75
-78.82
-87.39
-95.83
-104.01
-111.02
-115.31
-115.00
-108.67
-95.86
-77.44
-55.43
-32.43
-10.86
7.56
22.18
33.27
41.62
48.10
53.21
57.02
59.16
59.25
57.11
53.00
47.45
41.09
34.23
26.85
18.68
9.53
-0.47
-10.76
-20.65
-29.64
-37.71
-45.29
-52.98
-61.19
-69.90
-78.80
-87.57
-96.22
-105.19
-115.15
-126.46
-138.78
-151.05
-161.79
-169.77
-174.63
-177.03
-178.38
-180.15
-183.24
-187.65
-192.59
-196.95
-199.52
-199.28
-195.29
-186.65
-172.60
-152.74
-127.33
-97.33
-64.34
-30.20
3.25
34.31
61.50
83.62
99.87
110.08
114.93
115.78
114.40
112.56
111.60
112.22
114.42
117.69
121.19
124.04
125.44
124.81
121.86
116.56
109.18
100.25
90.54
80.91
72.17
64.78
58.69
53.33
47.78
41.17
32.94
23.01
11.75
-0.24
-12.29
-23.78
-34.21
-43.27
-50.82
-57.06
-62.54
-68.02
-74.20
-81.27
-88.61
-94.72
-97.58
-95.29
-86.72
-72.02
-52.62
-30.81
-9.05
10.67
27.20
40.20
49.79
56.25
59.89
61.08
60.53
59.32
58.69
59.58
62.14
65.52
68.26
68.96
66.89
62.27
55.98
49.10
42.54
36.92
32.80
30.77
31.41
34.94
41.01
48.55
56.03
61.80
64.40
62.71
56.13
44.58
28.67
9.71
-10.52
-30.21
-47.93
-63.06
-75.78
-86.93
-97.65
-109.03
-121.55
-134.78
-147.16
-156.30
-159.55
-154.94
-141.95
-121.78
-97.07
-71.01
-46.56
-25.58
-8.76
4.19
14.06
21.64
27.43
31.64
34.36
35.80
36.44
36.96
38.06
40.09
42.90
45.85
48.12
49.09
48.59
47.03
45.03
43.12
41.42
39.55
36.89
32.89
27.42
20.86
13.97
7.51
1.88
-3.01
-7.64
-12.56
-18.01
-23.73
-29.12
-33.58
-36.86
-39.20
-41.17
-43.33
-46.02
-49.35
-53.45
-58.68
-65.58
-74.37
-84.38
-93.70
-99.48
-98.85
-90.09
-73.47
-51.22
-26.88
-4.00
14.86
28.62
37.42
42.07
43.41
42.07
38.58
33.54
27.79
22.29
17.85
14.81
12.88
11.35
9.47
6.87
3.76
0.87
-0.96
-1.16
0.18
2.41
4.55
5.72
5.44
3.70
0.82
-2.74
-6.63
-10.67
-14.80
-19.01
-23.21
-27.21
-30.70
-33.37
-35.07
-35.86
-36.10
-36.20
-36.53
-37.20
-38.07
-38.86
-39.37
-39.68
-40.17
-41.38
-43.79
-47.71
-53.08
-59.38
-65.65
-70.43
-72.01
-68.77
-59.73
-44.90
-25.58
-3.98
17.30
35.97
50.66
61.02
67.52
71.02
72.35
72.05
70.37
67.47
63.59
59.25
55.08
51.73
49.51
48.37
47.86
47.41
46.53
45.07
43.20
41.22
39.40
37.68
35.69
32.86
28.70
23.11
16.49
9.65
3.51
-1.33
-4.85
-7.61
-10.55
-14.53
-19.93
-26.52
-33.62
-40.42
-46.38
-51.47
-56.15
-61.09
-66.92
-73.96
-82.11
-90.76
-98.91
-105.10
-107.75
-105.31
-96.79
-82.09
-62.28
-39.37
-15.92
5.58
23.39
36.78
46.07
52.31
56.73
60.34
63.56
66.35
68.39
69.49
69.76
69.61
69.51
69.68
69.99
70.05
69.45
68.08
66.14
64.06
62.11
60.19
57.75
54.13
48.83
41.94
34.15
26.53
20.05
15.12
11.39
8.04
4.24
-0.32
-5.22
-9.53
-12.40
-13.49
-13.34
-13.11
-14.18
-17.54
-23.49
-31.59
-40.76
-49.61
-56.61
-60.30
-59.43
-53.19
-41.30
-24.17
-2.76
21.71
48.04
75.58
104.32
134.71
167.12
201.05
234.80
265.62
290.75
308.54
319.21
324.60
327.01
327.91
327.25
323.76
316.05
303.70
287.48
268.88
249.10
228.37
206.04
181.41
154.46
126.12
97.89
70.96
45.55
20.72
-5.30
-34.57
-68.72
-108.27
-152.08
-197.20
-239.25
-273.58
-296.67
-307.33
-307.08
-299.40
-288.19
-276.35
-265.14
-254.48
-243.88
-233.22
-222.89
-213.32
-204.28
-194.71
-183.17
-168.69
-151.45
-132.87
-115.10
-100.03
-88.53
-80.23
-73.87
-67.90
-61.08
-52.90
-43.78
-35.10
-29.00
-27.95
-33.89
-47.37
-66.84
-88.53
-106.92
-116.04
-111.10
-89.93
-53.83
-7.39
42.60
89.11
126.67
152.70
167.67
174.24
175.70
174.60
172.06
167.86
161.16
151.21
137.79
121.10
101.59
79.98
57.47
36.04
18.14
5.87
-0.30
-2.49
-5.20
-13.76
-31.97
-60.10
-94.18
-127.24
-151.89
-163.19
-160.40
-146.92
-128.56
-111.03
-97.88
-89.99
-86.63
-87.08
-91.80
-102.24
-119.32
-141.87
-165.90
-185.37
-194.31
-189.18
-170.37
-142.36
-112.40
-88.36
-76.31
-78.77
-93.72
-115.01
-134.18
-143.05
-135.95
-110.78
-68.81
-13.72
49.17
113.17
170.45
212.90
234.00
230.88
205.75
165.23
118.10
72.13
31.88
-1.84
-30.60
-56.49
-80.59
-102.66
-121.75
-137.07
-148.52
-156.74
-162.64
-166.86
-169.14
-168.30
-162.49
-149.87
-129.26
-100.83
-66.06
-27.47
12.21
50.66
86.32
118.37
146.42
170.27
189.93
205.69
218.26
228.58
237.52
245.35
251.54
254.83
253.68
246.87
234.05
215.98
194.21
170.62
146.59
122.71
98.71
74.00
48.30
22.26
-2.61
-24.35
-41.40
-53.34
-61.08
-66.62
-72.33
-80.16
-90.85
-103.36
-114.79
-120.68
-116.16
-97.59
-64.40
-20.22
27.13
67.26
90.04
88.58
61.32
12.34
-50.11
-116.12
-176.70
-225.49
-259.35
-277.73
-281.81
-273.49
-255.04
-228.90
-197.87
-164.92
-132.82
-103.51
-77.66
-54.76
-33.68
-13.52
5.70
22.98
36.86
46.25
51.13
52.67
52.62
52.52
53.08
54.07
54.91
55.28
55.58
56.88
60.35
66.73
75.94
87.12
99.01
110.40
120.41
128.67
135.06
139.43
141.28
139.63
133.28
121.35
103.84
81.94
57.80
33.83
11.75
-7.92
-25.89
-43.44
-61.64
-80.69
-99.81
-117.34
-131.16
-139.17
-139.65
-131.68
-115.39
-92.22
-64.65
-35.67
-8.11
16.03
35.90
51.72
64.38
74.85
83.81
91.40
97.34
101.21
102.68
101.84
99.20
95.61
91.99
89.20
87.79
88.00
89.69
92.40
95.37
97.66
98.31
96.56
91.99
84.71
75.32
64.83
54.44
45.22
37.84
32.45
28.77
26.25
24.34
22.63
20.87
18.85
16.38
13.19
8.94
3.33
-3.80
-12.32
-21.59
-30.44
-37.34
-40.79
-39.92
-34.86
-26.70
-16.97
-6.89
3.17
13.75
25.79
39.83
55.44
71.22
85.18
95.50
101.10
101.77
98.01
90.80
81.50
71.95
64.56
61.94
66.17
77.94
95.85
116.44
135.03
147.17
149.97
142.94
127.81
107.79
86.37
66.40
49.68
36.88
27.80
21.48
16.40
10.51
1.56
-12.40
-32.38
-57.99
-87.49
-118.34
-148.13
-175.50
-200.55
-224.46
-248.59
-273.42
-297.87
-319.39
-334.74
-341.14
-337.07
-322.71
-299.63
-270.31
-237.59
-204.24
-172.75
-145.09
-122.43
-105.12
-92.81
-84.67
-79.71
-76.85
-74.83
-72.22
-67.51
-59.64
-48.19
-33.58
-16.58
2.06
21.98
42.96
64.46
85.31
103.81
118.35
128.15
133.59
136.00
136.92
137.37
137.60
137.20
135.53
132.15
126.93
119.96
111.46
101.78
91.43
80.93
70.75
60.97
51.29
41.12
29.79
16.84
2.13
-14.10
-31.09
-47.45
-61.20
-69.97
-71.63
-65.09
-50.80
-30.77
-8.08
14.16
33.55
48.85
59.94
67.33
71.79
73.99
74.48
73.81
72.64
71.69
71.54
72.39
73.96
75.63
76.74
76.99
76.59
76.06
75.92
76.28
76.80
76.87
76.03
74.25
72.01
70.01
68.83
68.64
69.12
69.57
69.29
67.89
65.54
63.01
61.43
61.88
64.91
70.31
77.06
83.70
88.87
91.79
92.61
92.45
93.16
96.97
106.07
122.11
145.62
175.50
208.80
241.25
268.36
286.91
295.84
296.33
290.71
281.18
268.69
253.04
233.72
210.95
186.27
162.02
140.34
122.13
106.72
92.42
77.48
60.86
42.46
22.82
2.54
-18.20
-39.78
-62.86
-88.06
-115.60
-145.29
-176.82
-210.05
-245.12
-281.95
-319.56
-355.70
-386.97
-409.75
-421.42
-421.21
-410.28
-391.13
-366.76
-340.07
-313.67
-289.85
-270.40
-256.07
-246.03
-237.78
-227.74
-212.24
-188.65
-156.07
-115.39
-68.94
-19.72
29.41
76.43
120.35
160.79
197.21
228.06
250.58
261.46
258.20
240.21
209.15
168.35
121.84
73.69
27.81
-12.12
-43.05
-63.57
-74.69
-79.88
-83.74
-89.90
-99.48
-110.78
-120.71
-126.75
-128.31
-126.69
-123.96
-121.63
-120.12
-119.08
-118.23
-117.78
-118.19
-119.38
-120.08
-117.83
-109.91
-94.80
-73.32
-48.81
-26.20
-10.26
-3.84
-6.81
-16.26
-27.62
-36.52
-40.23
-38.27
-32.07
-23.81
-15.24
-6.79
2.47
14.20
29.78
49.41
71.69
93.80
112.24
123.91
127.17
122.39
111.83
98.73
86.06
75.30
65.98
56.26
44.09
28.49
10.15
-9.10
-27.28
-43.28
-56.88
-67.99
-75.62
-77.54
-71.18
-55.23
-31.06
-2.70
24.48
45.96
59.52
65.52
65.60
61.18
52.61
39.54
22.18
2.38
-16.49
-30.83
-38.57
-40.17
-38.07
-35.23
-33.71
-34.17
-36.72
-42.10
-52.29
-69.75
-95.85
-129.41
-166.31
-200.76
-227.25
-242.33
-245.24
-237.19
-220.11
-195.62
-164.85
-128.83
-89.07
-47.73
-7.45
29.23
60.39
84.91
102.25
111.97
113.37
105.48
87.61
60.15
25.00
-14.51
-54.47
-91.47
-123.60
-150.49
-172.89
-191.59
-206.61
-217.11
-221.77
-219.84
-211.82
-199.56
-185.67
-172.69
-162.14
-154.27
-148.23
-142.59
-135.94
-127.29
-116.12
-102.34
-86.16
-67.99
-48.20
-26.93
-3.93
21.33
49.17
79.43
111.07
142.54
172.16
198.75
221.63
240.37
254.25
262.01
262.24
253.97
237.42
214.27
187.38
159.91
134.62
113.16
96.05
82.82
72.58
64.43
57.71
52.11
47.55
44.03
41.57
40.09
39.39
39.12
38.69
37.34
34.14
28.33
19.58
8.39
-3.82
-14.79
-21.94
-23.10
-17.19
-4.71
12.33
30.83
47.51
59.75
66.22
67.07
63.56
57.46
50.43
43.63
37.62
32.48
28.06
24.21
20.85
18.02
15.81
14.30
13.48
13.23
13.35
13.70
14.24
15.11
16.48
18.34
20.36
21.86
22.02
20.20
16.25
10.55
3.87
-3.01
-9.51
-15.44
-20.92
-26.29
-31.97
-38.36
-45.65
-53.69
-61.81
-68.73
-72.64
-71.66
-64.44
-50.78
-31.92
-10.42
10.61
28.34
41.13
48.77
52.24
53.16
52.95
52.53
52.15
51.67
50.91
49.73
48.15
46.17
43.84
41.17
38.22
34.94
31.09
26.12
19.24
9.77
-2.40
-16.43
-30.44
-41.88
-48.34
-48.34
-41.95
-30.90
-18.06
-6.63
0.85
3.06
0.27
-5.95
-13.11
-18.45
-19.49
-14.55
-3.20
13.72
34.20
55.57
75.14
90.75
101.21
106.33
106.91
104.35
100.37
96.47
93.65
92.05
91.14
89.97
87.70
84.04
79.23
73.88
68.40
62.74
56.28
48.24
38.16
26.20
13.29
0.75
-10.13
-18.53
-24.30
-27.81
-29.78
-30.99
-32.15
-33.94
-37.08
-42.25
-50.06
-60.57
-73.13
-86.18
-97.49
-104.82
-106.53
-102.16
-92.54
-79.33
-64.36
-49.10
-34.41
-20.78
-8.68
1.20
8.08
11.45
11.40
8.71
4.55
0.05
-3.98
-7.15
-9.24
-10.10
-9.50
-7.27
-3.47
1.58
7.34
13.18
18.54
22.94
26.05
27.57
27.36
25.45
22.03
17.40
11.83
5.53
-1.31
-8.48
-15.73
-22.81
-29.67
-36.42
-43.19
-49.88
-55.88
-60.12
-61.29
-58.40
-51.19
-40.32
-27.18
-13.40
-0.41
10.96
20.42
28.12
34.25
38.94
42.11
43.64
43.52
41.96
39.48
36.71
34.24
32.42
31.29
30.71
30.37
30.07
29.67
29.16
28.51
27.69
26.57
24.96
22.74
19.79
16.12
11.83
7.06
1.89
-3.64
-9.54
-15.93
-22.84
-30.33
-38.37
-46.86
-55.53
-63.84
-70.91
-75.59
-76.67
-73.11
-64.50
-51.23
-34.57
-16.46
0.97
15.93
27.39
35.18
39.87
42.32
43.32
43.36
42.63
41.24
39.38
37.40
35.66
34.41
33.67
33.23
32.91
32.53
32.05
31.38
30.33
28.50
25.38
20.54
13.83
5.48
-3.96
-13.77
-23.29
-32.08
-40.09
-47.56
-54.87
-62.33
-69.95
-77.37
-83.83
-88.34
-89.76
-87.17
-80.00
-68.34
-53.00
-35.39
-17.19
0.11
15.64
29.25
41.41
52.72
63.60
73.96
83.34
91.13
96.87
100.41
101.94
101.89
100.78
99.02
96.85
94.27
91.14
87.27
82.66
77.47
72.09
66.95
62.39
58.45
54.89
51.23
46.92
41.50
34.72
26.71
17.79
8.48
-0.73
-9.52
-17.82
-25.84
-34.03
-42.81
-52.40
-62.47
-71.99
-79.29
-82.49
-80.07
-71.45
-57.30
-39.40
-20.04
-1.47
14.72
27.80
37.76
45.08
50.32
53.94
56.21
57.27
57.28
56.46
55.08
53.43
51.65
49.77
47.73
45.60
43.58
42.04
41.19
40.98
40.92
40.34
38.58
35.30
30.58
24.81
18.47
11.87
5.08
-2.05
-9.66
-17.73
-25.99
-33.97
-41.21
-47.44
-52.70
-57.40
-62.18
-67.71
-74.47
-82.52
-91.30
-99.57
-105.48
-106.99
-102.49
-91.43
-74.69
-54.41
-33.35
-14.02
2.06
14.52
23.88
30.95
36.29
40.10
42.30
42.88
42.10
40.54
38.85
37.56
36.89
36.78
36.93
37.09
36.99
36.49
35.38
33.35
30.00
24.96
18.10
9.59
-0.06
-10.20
-20.23
-29.68
-38.23
-45.69
-51.97
-57.05
-61.09
-64.34
-67.16
-69.87
-72.78
-76.10
-79.94
-84.19
-88.29
-91.16
-91.35
-87.47
-78.82
-65.72
-49.55
-32.21
-15.55
-0.79
11.63
21.80
29.98
36.29
40.70
43.11
43.64
42.66
40.80
38.77
37.14
36.20
35.85
35.76
35.48
34.69
33.34
31.58
29.68
27.81
25.98
23.99
21.56
18.46
14.65
10.28
5.67
1.19
-2.85
-6.25
-9.03
-11.33
-13.45
-15.78
-18.69
-22.53
-27.36
-32.87
-38.21
-42.10
-43.15
-40.26
-33.12
-22.32
-9.29
4.20
16.56
26.83
34.82
40.90
45.59
49.18
51.65
52.74
52.31
50.63
48.39
46.48
45.56
45.82
46.84
47.94
48.61
48.71
48.45
48.01
47.19
45.32
41.44
34.77
25.01
12.53
-1.75
-16.57
-30.56
-42.46
-51.24
-56.33
-57.83
-56.57
-53.99
-51.81
-51.41
-53.45
-57.45
-62.00
-65.07
-64.74
-59.89
-50.67
-38.49
-25.42
-13.41
-3.53
4.24
10.70
16.74
22.80
28.67
33.69
37.31
39.36
40.14
40.17
39.88
39.48
38.97
38.38
37.77
37.32
37.16
37.28
37.56
37.75
37.59
36.83
35.22
32.52
28.63
23.65
17.90
11.85
5.97
0.55
-4.38
-9.02
-13.63
-18.39
-23.38
-28.60
-33.96
-39.29
-44.13
-47.73
-49.05
-47.11
-41.32
-31.86
-19.65
-6.12
7.22
19.22
29.27
37.23
43.20
47.31
49.61
50.18
49.27
47.27
44.79
42.40
40.49
39.20
38.36
37.69
36.85
35.64
34.08
32.36
30.79
29.57
28.66
27.65
25.93
22.81
17.88
11.19
3.26
-5.13
-13.24
-20.67
-27.46
-33.99
-40.74
-48.05
-55.97
-64.34
-72.81
-80.93
-88.00
-93.15
-95.28
-93.32
-86.63
-75.33
-60.46
-43.68
-26.88
-11.62
1.13
11.07
18.26
22.95
25.44
26.10
25.47
24.16
22.83
21.93
21.61
21.72
21.96
22.02
21.72
21.00
19.90
18.53
17.01
15.42
13.79
12.02
9.94
7.33
4.05
0.18
-4.03
-8.16
-11.85
-14.90
-17.41
-19.75
-22.50
-26.26
-31.47
-38.20
-45.98
-53.69
-59.72
-62.35
-60.22
-52.93
-41.18
-26.72
-11.80
1.56
12.06
19.41
24.06
26.80
28.35
29.06
29.01
28.22
26.85
25.18
23.55
22.15
20.98
19.95
19.06
18.57
18.91
20.53
23.58
27.74
32.22
35.92
37.73
36.85
33.01
26.40
17.63
7.51
-3.16
-13.69
-23.54
-32.37
-40.07
-46.80
-53.02
-59.31
-66.11
-73.37
-80.27
-85.33
-86.77
-83.21
-74.18
-60.42
-43.59
-25.74
-8.69
6.38
18.94
28.81
35.82
39.67
40.03
36.90
30.93
23.49
16.28
10.74
7.60
6.59
6.74
6.94
6.44
5.12
3.31
1.50
-0.13
-1.72
-3.69
-6.45
-10.23
-14.93
-20.29
-25.96
-31.59
-36.86
-41.53
-45.35
-48.29
-50.43
-52.15
-53.90
-56.06
-58.71
-61.43
-63.30
-63.09
-59.62
-52.12
-40.62
-25.98
-9.72
6.38
20.80
32.56
41.30
47.14
50.37
51.23
49.96
46.88
42.57
37.85
33.56
30.31
28.13
26.67
25.28
23.52
21.26
18.80
16.59
15.00
14.09
13.60
13.07
11.98
9.96
6.85
2.80
-1.91
-6.93
-12.01
-17.09
-22.35
-28.07
-34.56
-41.93
-49.93
-57.87
-64.61
-68.79
-69.10
-64.73
-55.69
-42.93
-28.03
-12.80
1.23
13.14
22.54
29.36
33.63
35.39
34.76
32.14
28.25
24.03
20.35
17.73
16.22
15.41
14.69
13.46
11.46
8.71
5.53
2.25
-0.95
-4.18
-7.80
-12.13
-17.29
-23.02
-28.81
-34.19
-38.87
-42.90
-46.52
-50.03
-53.65
-57.59
-62.07
-67.38
-73.60
-80.38
-86.73
-91.02
-91.46
-86.74
-76.57
-61.87
-44.44
-26.43
-9.62
4.91
16.77
26.04
32.93
37.63
40.35
41.46
41.57
41.46
41.85
43.14
45.25
47.65
49.61
50.50
49.99
48.15
45.36
42.14
38.98
36.21
33.86
31.78
29.65
27.13
23.98
20.21
16.01
11.67
7.47
3.51
-0.27
-4.13
-8.38
-13.42
-19.66
-27.38
-36.50
-46.34
-55.45
-61.81
-63.44
-59.00
-48.52
-33.34
-15.81
1.58
16.89
29.21
38.49
45.24
50.03
53.18
54.84
55.13
54.32
52.91
51.50
50.56
50.23
50.26
50.09
49.19
47.25
44.34
40.88
37.43
34.46
32.05
30.00
27.84
25.08
21.38
16.59
10.73
3.90
-3.82
-12.41
-21.82
-32.00
-42.87
-54.35
-66.43
-79.19
-92.71
-106.74
-120.50
-132.47
-140.68
-143.25
-139.10
-128.37
-112.37
-93.08
-72.33
-51.38
-30.80
-10.88
7.96
24.98
39.25
50.06
57.29
61.42
63.37
64.13
64.51
64.93
65.50
66.02
66.20
65.77
64.57
62.68
60.31
57.63
54.70
51.33
47.21
42.08
35.83
28.68
21.04
13.41
6.10
-0.80
-7.47
-14.18
-21.22
-28.79
-37.06
-46.09
-55.73
-65.45
-74.17
-80.30
-82.10
-78.31
-68.67
-54.22
-37.03
-19.55
-3.84
8.99
18.77
26.02
31.36
35.20
37.72
38.95
39.06
38.42
37.53
36.83
36.48
36.36
36.18
35.64
34.66
33.45
32.32
31.56
31.13
30.67
29.61
27.45
24.01
19.56
14.65
9.83
5.38
1.16
-3.22
-8.18
-13.87
-20.07
-26.33
-32.17
-37.36
-42.02
-46.61
-51.81
-58.20
-66.03
-74.98
-84.08
-91.82
-96.51
-96.69
-91.52
-81.14
-66.52
-49.27
-31.13
-13.68
1.96
15.15
25.62
33.35
38.53
41.48
42.70
42.78
42.28
41.62
40.98
40.32
39.49
38.38
37.04
35.64
34.42
33.62
33.33
33.48
33.82
34.00
33.65
32.51
30.51
27.79
24.66
21.43
18.27
15.12
11.72
7.73
2.90
-2.75
-8.93
-15.19
-21.03
-26.11
-30.42
-34.23
-38.14
-42.82
-48.81
-56.23
-64.51
-72.41
-78.20
-80.15
-77.06
-68.67
-55.80
-40.00
-23.09
-6.59
8.56
22.04
33.81
43.88
52.11
58.35
62.57
65.06
66.37
67.18
68.18
69.94
72.93
77.38
83.07
89.02
93.35
93.67
87.78
74.61
54.76
30.36
4.32
-20.69
-42.99
-62.11
-78.46
-92.87
-106.08
-118.62
-130.68
-142.10
-152.25
-160.00
-163.91
-162.72
-155.96
-144.41
-130.06
-115.53
-103.17
-94.24
-88.47
-84.27
-79.37
-71.67
-59.90
-43.91
-24.50
-3.02
19.09
40.60
60.58
78.30
93.22
104.91
113.15
117.98
119.87
119.64
118.28
116.70
115.44
114.60
113.80
112.51
110.22
106.56
101.35
94.57
86.32
76.74
66.06
54.54
42.50
30.13
17.55
4.82
-7.99
-20.63
-32.73
-43.84
-53.59
-61.88
-68.85
-74.81
-80.18
-85.34
-90.59
-96.10
-101.70
-106.78
-110.16
-110.27
-105.60
-95.27
-79.52
-59.77
-38.24
-17.27
1.32
16.63
28.67
37.93
45.06
50.54
54.69
57.71
59.81
61.24
62.29
63.13
63.76
63.99
63.52
62.08
59.52
55.95
51.64
46.90
42.02
37.10
32.16
27.14
22.03
16.81
11.50
6.15
0.82
-4.31
-9.01
-13.10
-16.55
-19.56
-22.49
-25.77
-29.71
-34.44
-39.84
-45.55
-50.86
-54.76
-56.03
-53.49
-46.48
-35.15
-20.54
-4.34
11.57
25.63
36.87
45.01
50.22
52.93
53.60
52.63
50.38
47.20
43.48
39.72
36.37
33.76
32.00
30.95
30.28
29.64
28.86
28.02
27.48
27.70
29.08
31.67
35.08
38.51
40.99
41.78
40.64
37.97
34.61
31.52
29.34
28.14
27.49
26.65
24.93
21.84
17.18
11.04
3.77
-3.91
-10.96
-16.13
-18.27
-16.76
-11.73
-4.11
4.68
13.09
19.97
24.73
27.34
28.18
27.76
26.58
24.96
23.09
21.09
19.07
17.20
15.62
14.44
13.58
12.85
11.98
10.83
9.48
8.19
7.26
6.80
6.61
6.20
5.04
2.82
-0.32
-3.87
-7.13
-9.61
-11.25
-12.50
-14.16
-17.02
-21.53
-27.51
-34.20
-40.39
-44.70
-45.98
-43.56
-37.39
-28.11
-16.84
-5.01
6.01
15.07
21.48
25.03
25.91
24.58
21.62
17.65
13.21
8.81
4.83
1.55
-0.88
-2.48
-3.45
-4.11
-4.80
-5.81
-7.26
-9.06
-10.97
-12.72
-14.06
-15.01
-15.77
-16.69
-18.09
-20.03
-22.24
-24.14
-25.16
-24.97
-23.64
-21.58
-19.20
-16.46
-12.67
-6.48
3.66
18.89
39.30
63.65
89.47
113.74
133.57
146.93
152.91
151.60
143.57
129.61
110.40
86.65
59.19
28.85
-4.06
-40.21
