1594311202.00
64.000000
-0.00
-0.00
-0.00
-0.00
-0.00
-0.00
-0.00
-0.00
-0.00
-0.00
0.00
0.01
0.01
-0.00
-0.03
-0.05
-0.05
0.00
0.13
0.36
0.66
1.01
1.37
1.72
2.06
2.40
2.79
3.24
3.80
4.42
5.06
5.66
6.20
6.68
7.15
7.68
8.31
9.14
10.09
11.04
11.88
12.56
13.14
13.76
14.65
15.96
17.91
20.32
22.90
25.38
27.58
29.57
31.68
34.32
37.81
42.54
48.15
54.10
59.83
64.97
69.58
74.14
79.34
85.71
93.76
103.00
112.62
121.73
129.77
136.75
143.30
150.75
157.77
166.64
177.95
191.79
206.97
220.57
228.25
225.36
208.53
176.87
132.76
80.05
23.07
-34.94
-92.44
-149.16
-205.23
-260.37
-313.74
-363.87
-409.83
-450.91
-486.50
-515.74
-537.23
-549.22
-549.96
-538.37
-514.21
-478.67
-433.88
-382.45
-327.02
-269.84
-212.63
-156.66
-102.95
-52.37
-5.90
35.58
71.43
101.35
125.50
144.38
158.69
169.15
176.37
180.75
182.57
182.07
179.51
175.23
169.65
163.18
156.15
148.81
141.30
133.69
126.02
118.33
110.69
103.16
95.80
88.68
81.82
75.25
68.98
62.99
57.29
51.86
46.70
41.84
37.30
33.09
29.23
25.71
22.49
19.53
16.81
14.29
12.00
9.95
8.17
6.68
5.46
4.44
3.54
2.70
1.86
1.06
0.35
-0.17
-0.46
-0.54
-0.54
-0.62
-0.94
-1.54
-2.32
-3.07
-3.55
-3.62
-3.32
-2.92
-2.77
-3.18
-4.22
-5.68
-7.11
-8.03
-8.18
-7.64
-6.87
-6.50
-7.05
-8.66
-10.94
-13.20
-14.68
-15.04
-14.39
-13.33
-12.61
-12.79
-14.10
-16.56
-20.06
-24.17
-27.89
-29.50
-26.98
-19.03
-6.02
9.70
24.52
35.16
40.02
39.77
36.58
32.70
29.35
26.54
23.70
20.64
17.94
16.51
16.81
18.33
19.81
20.07
18.63
15.89
13.07
11.50
12.10
15.00
19.50
24.02
26.57
25.48
20.21
11.98
3.53
-1.84
-1.93
3.30
11.33
18.22
20.32
16.18
6.98
-4.03
-12.76
-16.64
-14.91
-8.97
-1.46
4.48
6.34
2.54
-7.21
-21.38
-36.51
-47.50
-49.59
-40.68
-23.08
-3.15
11.36
14.96
7.41
-6.26
-18.14
-21.48
-13.62
3.61
25.51
46.87
63.63
73.17
73.81
64.96
46.77
20.63
-10.40
-42.35
-70.88
-92.30
-104.27
-106.75
-101.43
-91.79
-81.88
-74.98
-72.93
-75.84
-82.71
-91.87
-101.27
-107.39
-106.23
-94.00
-68.70
-31.80
11.67
54.40
89.74
114.09
128.89
138.26
146.61
156.72
168.54
180.00
188.65
192.99
187.34
169.56
138.61
95.01
42.56
-10.54
-52.46
-71.77
-62.64
-28.92
16.81
56.85
75.62
65.14
26.26
-34.13
-107.51
-186.46
-264.57
-334.00
-385.70
-411.10
-405.49
-371.05
-316.56
-254.02
-194.12
-143.13
-102.21
-70.13
-45.25
-26.49
-12.43
-0.18
14.40
34.53
60.06
86.89
108.64
120.18
120.94
115.30
110.04
110.35
117.09
126.97
135.31
139.13
138.74
136.74
135.71
136.30
136.78
134.44
127.48
116.02
101.85
87.26
74.08
63.01
53.85
45.97
38.76
31.85
25.10
18.45
11.83
5.13
-1.88
-9.51
-18.04
-27.56
-37.74
-47.84
-56.80
-63.56
-67.38
-68.11
-66.09
-61.99
-56.39
-49.70
-42.04
-33.43
-23.90
-13.57
-2.64
8.59
19.72
30.09
38.72
44.52
46.53
44.39
38.58
30.42
21.76
14.32
9.35
7.26
7.79
10.25
13.78
17.42
20.14
21.09
19.86
16.83
13.02
9.78
7.97
7.58
7.68
7.01
4.72
0.79
-3.95
-8.37
-11.60
-13.38
-13.93
-13.66
-12.90
-11.80
-10.51
-9.17
-7.93
-6.83
-5.66
-4.05
-1.41
2.77
8.81
16.61
25.57
34.64
42.49
47.87
49.99
48.84
45.29
40.87
37.17
35.29
35.33
36.39
37.01
35.78
32.01
25.88
18.25
10.15
2.29
-5.10
-12.12
-18.87
-25.27
-30.98
-35.72
-39.36
-42.05
-44.03
-45.44
-46.25
-46.21
-45.10
-42.93
-39.95
-36.60
-33.16
-29.73
-26.19
-22.50
-18.84
-15.67
-13.51
-12.64
-12.88
-13.58
-13.91
-13.22
-11.16
-7.88
-3.74
0.78
5.18
9.05
12.00
13.67
13.72
12.03
8.75
4.46
-0.01
-3.85
-6.61
-8.43
-9.94
-11.89
-14.66
-17.99
-21.03
-22.81
-22.80
-21.16
-18.69
-16.45
-15.19
-15.10
-15.83
-16.79
-17.42
-17.46
-16.90
-16.01
-15.21
-14.93
-15.56
-17.14
-19.18
-20.80
-21.11
-19.65
-16.77
-13.37
-10.46
-8.43
-6.87
-4.79
-1.29
3.79
9.72
15.26
19.33
21.59
22.49
22.82
23.19
23.67
23.86
23.22
21.45
18.69
15.44
12.27
9.50
7.06
4.53
1.40
-2.64
-7.63
-13.28
-19.16
-24.71
-29.26
-32.09
-32.48
-30.00
-24.63
-16.89
-7.56
2.53
12.82
23.05
33.08
42.69
51.46
58.80
64.21
67.42
68.53
67.84
65.64
62.11
57.29
51.19
43.96
35.94
27.60
19.48
11.96
5.26
-0.64
-5.85
-10.51
-14.70
-18.43
-21.64
-24.30
-26.38
-27.85
-28.72
-28.96
-28.60
-27.72
-26.46
-25.07
-23.81
-22.85
-22.22
-21.71
-20.96
-19.57
-17.25
-14.01
-10.17
-6.26
-2.84
-0.37
0.93
1.04
0.11
-1.60
-3.73
-5.84
-7.44
-8.10
-7.48
-5.47
-2.24
1.86
6.35
10.73
14.55
17.48
19.31
19.90
19.22
17.34
14.40
10.66
6.44
2.08
-2.09
-5.82
-8.93
-11.32
-13.01
-14.16
-15.05
-16.09
-17.55
-19.45
-21.37
-22.53
-22.04
-19.29
-14.18
-7.28
0.44
7.93
14.38
19.41
23.02
25.46
27.05
28.00
28.45
28.42
27.98
27.22
26.35
25.59
25.12
24.99
25.08
25.16
24.92
24.14
22.73
20.79
18.47
15.97
13.41
10.88
8.43
6.20
4.31
2.85
1.79
0.87
-0.28
-2.07
-4.74
-8.16
-11.86
-15.07
-17.05
-17.25
-15.55
-12.24
-7.85
-3.04
1.64
5.80
9.27
11.99
13.97
15.26
15.90
15.96
15.50
14.67
13.67
12.73
12.08
11.86
12.12
12.75
13.57
14.28
14.62
14.39
13.53
12.15
10.46
8.70
7.04
5.50
3.98
2.32
0.39
-1.92
-4.64
-7.75
-11.15
-14.59
-17.68
-19.98
-21.18
-21.32
-20.76
-20.06
-19.63
-19.58
-19.59
-19.16
-17.88
-15.69
-12.91
-10.10
-7.75
-6.10
-5.15
-4.72
-4.64
-4.81
-5.15
-5.50
-5.66
-5.33
-4.35
-2.71
-0.62
1.59
3.62
5.29
6.54
7.40
7.89
7.97
7.63
6.93
6.00
5.03
4.17
3.45
2.81
2.13
1.32
0.31
-0.91
-2.38
-4.07
-5.89
-7.61
-8.80
-8.99
-7.76
-4.97
-0.83
4.12
9.22
13.82
17.55
20.28
22.11
23.21
23.66
23.49
22.72
21.52
20.23
19.30
19.09
19.67
20.82
22.05
22.92
23.14
22.69
21.70
20.32
18.59
16.41
13.67
10.40
6.78
3.16
-0.13
-2.86
-5.01
-6.73
-8.24
-9.77
-11.43
-13.30
-15.41
-17.79
-20.38
-23.02
-25.36
-26.94
-27.32
-26.21
-23.61
-19.77
-15.13
-10.17
-5.31
-0.83
3.06
6.29
8.86
10.83
12.30
13.37
14.04
14.25
13.96
13.13
11.88
10.44
9.06
7.98
7.36
7.29
7.68
8.26
8.56
8.10
6.55
3.97
0.88
-1.87
-3.40
-3.17
-1.10
2.45
6.93
11.86
17.05
22.66
29.07
36.75
46.04
56.88
68.66
80.25
90.37
97.95
102.57
104.62
105.39
106.78
110.87
119.25
132.27
148.59
165.24
178.34
184.40
181.64
170.69
154.21
135.78
118.32
102.92
88.72
73.60
55.12
31.33
1.18
-35.55
-78.03
-124.05
-169.56
-208.85
-235.76
-245.71
-237.58
-214.42
-182.46
-148.70
-118.49
-94.05
-74.83
-59.01
-45.10
-32.74
-22.33
-14.18
-7.77
-1.82
5.23
14.63
27.17
43.51
64.32
89.94
119.53
150.39
177.83
196.04
200.01
187.30
159.25
120.61
78.08
38.17
5.25
-19.72
-39.13
-57.82
-81.81
-116.53
-164.99
-226.16
-294.00
-357.82
-404.65
-423.02
-407.31
-361.02
-297.03
-234.29
-191.72
-181.36
-204.05
-249.48
-300.76
-341.19
-360.19
-355.79
-332.91
-299.22
-260.90
-220.66
-178.29
-132.91
-85.29
-38.35
3.97
38.62
64.72
83.98
99.37
113.08
125.29
133.98
136.32
130.53
117.40
100.28
83.80
71.58
64.54
60.55
55.73
46.44
30.92
9.61
-15.36
-41.11
-64.63
-83.17
-94.23
-96.11
-88.48
-72.66
-51.25
-27.00
-1.69
24.20
51.08
79.18
107.42
133.45
154.78
170.04
179.83
186.25
191.55
196.62
200.39
200.29
193.91
180.56
162.10
142.55
126.57
117.69
116.91
122.37
130.06
135.07
133.25
122.39
102.95
78.10
53.06
33.71
24.77
27.97
41.19
59.02
74.70
82.77
81.06
71.27
57.90
46.01
39.20
38.53
42.65
48.91
54.61
57.81
57.66
54.14
47.65
38.79
28.16
16.42
4.14
-8.08
-19.69
-30.32
-39.87
-48.55
-56.85
-65.24
-73.89
-82.44
-89.95
-95.26
-97.46
-96.34
-92.63
-87.78
-83.48
-81.06
-81.06
-83.01
-85.63
-87.33
-86.73
-83.09
-76.54
-67.94
-58.56
-49.67
-42.12
-36.23
-31.82
-28.48
-25.84
-23.80
-22.51
-22.22
-23.03
-24.67
-26.56
-27.93
-28.17
-27.08
-24.95
-22.42
-20.13
-18.45
-17.27
-16.14
-14.54
-12.07
-8.59
-4.22
0.84
6.35
12.03
17.56
22.47
26.23
28.40
28.80
27.59
25.25
22.31
19.20
16.06
12.85
9.48
6.00
2.69
-0.09
-2.03
-3.08
-3.46
-3.53
-3.54
-3.46
-2.93
-1.38
1.64
6.29
12.26
18.85
25.24
30.70
34.78
37.27
38.13
37.27
34.52
29.64
22.59
13.63
3.40
-7.19
-17.14
-25.55
-31.58
-34.55
-33.94
-29.67
-22.31
-13.24
-4.41
2.15
5.04
3.91
-0.48
-6.64
-12.97
-18.30
-22.10
-24.32
-25.18
-24.82
-23.29
-20.60
-16.80
-12.12
-6.88
-1.52
3.49
7.76
10.97
12.95
13.74
13.56
12.76
11.70
10.68
9.87
9.35
9.17
9.36
9.94
10.80
11.72
12.42
12.64
12.27
11.37
10.21
9.14
8.51
8.63
9.70
11.77
14.76
18.42
22.35
26.07
29.22
31.54
32.98
33.58
33.40
32.41
30.65
28.23
25.43
22.66
20.35
18.77
18.01
17.99
18.55
19.50
20.61
21.54
21.91
21.34
19.60
16.77
13.17
9.24
5.31
1.48
-2.32
-6.23
-10.29
-14.43
-18.46
-22.28
-25.88
-29.41
-32.96
-36.49
-39.70
-42.09
-43.15
-42.49
-40.03
-36.03
-31.06
-25.74
-20.66
-16.19
-12.46
-9.44
-7.10
-5.45
-4.54
-4.40
-4.96
-5.99
-7.13
-8.01
-8.39
-8.16
-7.39
-6.24
-4.86
-3.41
-2.03
-0.94
-0.35
-0.45
-1.30
-2.80
-4.62
-6.37
-7.75
-8.68
-9.41
-10.41
-12.20
-15.05
-18.90
-23.31
-27.65
-31.30
-33.81
-34.95
-34.60
-32.65
-28.96
-23.41
-16.11
-7.38
2.14
11.70
20.58
28.20
34.22
38.42
40.73
41.15
39.79
36.97
33.14
28.87
24.67
20.89
17.71
15.23
13.57
12.79
12.88
13.59
14.36
14.49
13.37
10.75
6.89
2.42
-1.86
-5.24
-7.34
-8.22
-8.40
-8.82
-10.55
-14.52
-21.00
-29.29
-37.76
-44.20
-46.65
-44.04
-36.54
-25.37
-12.20
1.38
14.24
25.58
34.82
41.37
44.89
45.50
43.99
41.71
40.07
40.05
41.85
44.92
48.35
51.28
53.20
53.92
53.54
52.29
50.45
48.34
46.20
44.11
41.88
39.15
35.56
31.08
26.06
21.23
17.39
15.06
14.18
14.14
14.03
13.07
10.92
7.88
4.71
2.37
1.57
2.64
5.42
9.54
14.62
20.36
26.52
32.69
38.28
42.52
44.78
44.77
42.71
39.26
35.30
31.68
29.03
27.65
27.52
28.27
29.25
29.58
28.36
24.91
18.98
10.80
0.94
-9.83
-20.70
-30.97
-40.05
-47.47
-52.96
-56.49
-58.32
-59.02
-59.30
-59.89
-61.32
-63.87
-67.47
-71.82
-76.30
-80.06
-82.13
-81.60
-77.88
-70.89
-61.15
-49.62
-37.37
-25.33
-14.00
-3.54
6.09
14.96
23.03
30.21
36.49
42.00
46.98
51.57
55.62
58.55
59.53
57.70
52.49
43.77
31.90
17.56
1.63
-14.88
-30.87
-45.26
-57.07
-65.65
-70.86
-73.01
-72.68
-70.45
-66.71
-61.76
-55.96
-49.99
-44.75
-41.24
-40.10
-41.43
-44.65
-48.78
-52.76
-55.74
-57.22
-57.05
-55.29
-52.11
-47.77
-42.57
-36.97
-31.48
-26.59
-22.63
-19.71
-17.76
-16.58
-15.97
-15.75
-15.78
-15.87
-15.78
-15.26
-14.05
-12.02
-9.18
-5.72
-2.01
1.40
3.81
4.56
3.21
-0.20
-5.06
-10.36
-15.01
-18.24
-19.89
-20.36
-20.33
-20.35
-20.55
-20.52
-19.58
-17.05
-12.63
-6.47
0.85
8.62
16.18
23.07
29.08
34.14
38.14
40.86
41.96
41.09
38.07
33.07
26.66
19.77
13.44
8.63
5.94
5.59
7.34
10.67
14.86
19.16
22.89
25.58
27.05
27.49
27.38
27.33
27.80
28.84
30.07
30.77
30.15
27.66
23.20
17.13
10.20
3.39
-2.25
-5.76
-6.37
-3.71
2.15
10.63
20.69
31.03
40.30
47.40
51.61
52.68
50.81
46.57
40.69
33.92
26.91
20.04
13.49
7.25
1.28
-4.47
-9.93
-15.00
-19.54
-23.37
-26.31
-28.19
-28.86
-28.32
-26.71
-24.39
-21.86
-19.65
-18.12
-17.37
-17.27
-17.54
-17.90
-18.17
-18.40
-18.75
-19.39
-20.35
-21.39
-22.05
-21.77
-20.10
-16.91
-12.40
-7.04
-1.40
4.05
9.04
13.44
17.19
20.15
22.05
22.55
21.38
18.50
14.22
9.12
3.98
-0.46
-3.64
-5.26
-5.24
-3.69
-0.80
3.19
7.93
13.00
17.86
21.98
24.91
26.39
26.50
25.58
24.19
23.01
22.60
23.20
24.62
26.16
26.84
25.71
22.21
16.41
9.07
1.41
-5.22
-9.78
-11.75
-11.25
-8.87
-5.47
-1.85
1.42
4.02
5.89
7.07
7.64
7.68
7.35
6.94
6.89
7.71
9.79
13.19
17.55
22.19
26.45
30.01
33.02
35.96
39.37
43.45
47.89
51.79
53.98
53.56
50.34
44.91
38.51
32.65
28.48
26.60
26.61
27.40
27.83
27.36
26.43
26.26
28.43
33.94
42.92
54.03
65.24
74.97
82.81
89.39
95.46
101.69
108.49
116.88
127.50
140.49
154.88
168.05
176.07
175.17
164.19
145.97
127.78
115.90
113.35
118.85
127.56
133.66
132.77
123.65
107.66
88.77
67.67
42.62
11.00
-29.23
-78.09
-133.84
-193.73
-255.73
-307.11
-335.33
-334.44
-309.78
-274.02
-237.62
-204.86
-175.04
-153.53
-134.69
-116.56
-99.58
-85.58
-77.51
-77.16
-85.55
-96.72
-107.45
-114.02
-116.49
-116.14
-115.59
-119.36
-130.81
-151.68
-181.87
-221.28
-268.23
-322.43
-381.83
-424.86
-431.40
-390.81
-308.82
-202.79
-93.11
5.17
78.84
131.92
170.44
198.90
222.13
245.14
272.35
303.52
335.86
363.09
378.03
373.54
344.49
291.39
220.40
140.91
63.92
0.74
-38.66
-47.80
-26.25
19.24
77.09
133.32
173.79
188.88
175.87
139.52
87.79
29.40
-28.84
-82.04
-128.27
-169.75
-209.80
-250.80
-291.75
-332.11
-370.77
-406.67
-437.29
-443.83
-410.49
-332.15
-219.67
-92.16
28.55
127.13
198.74
249.65
286.82
315.13
338.83
349.94
359.73
370.41
381.93
384.46
372.07
341.43
291.66
225.14
146.06
60.87
-27.33
-114.85
-196.38
-263.39
-307.31
-323.11
-311.08
-276.99
-227.94
-172.24
-114.33
-55.34
5.28
65.30
118.57
157.40
176.26
175.92
161.24
140.03
118.69
100.22
83.49
65.64
45.18
23.57
4.92
-7.37
-11.89
-10.20
-5.74
-2.49
-3.31
-9.19
-19.23
-31.28
-43.25
-53.56
-61.58
-67.55
-72.27
-76.64
-81.04
-85.26
-88.60
-90.22
-89.33
-85.39
-78.14
-67.80
-55.19
-41.74
-29.31
-19.68
-13.98
-12.34
-14.00
-17.77
-22.56
-27.78
-33.23
-38.94
-44.79
-50.44
-55.41
-59.25
-61.67
-62.48
-61.48
-58.42
-53.02
-45.23
-35.43
-24.51
-13.70
-4.27
2.89
7.46
9.64
10.08
9.55
8.77
8.15
7.70
7.06
5.67
3.02
-0.92
-5.60
-10.00
-13.07
-14.17
-13.45
-11.78
-10.48
-10.74
-13.31
-18.37
-25.61
-34.53
-44.53
-54.98
-65.23
-74.61
-82.47
-88.31
-91.84
-92.90
-91.47
-87.59
-81.36
-73.01
-62.83
-51.15
-38.31
-24.64
-10.62
3.07
15.54
25.91
33.51
38.25
40.55
41.19
40.95
40.36
39.55
38.41
36.76
34.47
31.58
28.28
25.02
22.33
20.73
20.41
21.07
21.82
21.59
19.50
15.31
9.52
3.17
-2.58
-6.96
-9.86
-11.64
-12.69
-13.14
-12.80
-11.37
-8.66
-4.58
0.60
6.35
11.96
16.89
20.90
24.05
26.55
28.55
30.29
31.61
31.92
30.63
27.74
24.08
21.09
20.14
21.83
26.54
33.30
39.97
44.26
45.19
43.67
41.94
42.43
46.65
56.67
72.37
91.18
109.17
123.27
132.74
138.98
144.47
151.80
165.96
189.35
219.98
251.94
278.24
293.55
295.79
286.94
272.95
266.35
277.46
308.79
353.57
399.39
433.95
449.56
445.18
399.41
308.56
188.47
66.49
-36.20
-113.00
-167.00
-203.31
-225.61
-236.17
-233.45
-217.89
-193.02
-164.82
-138.54
-116.59
-99.00
-85.15
-75.07
-66.66
-58.19
-50.23
-44.19
-40.30
-37.26
-33.74
-30.43
-30.73
-37.36
-53.04
-79.01
-113.21
-149.10
-176.36
-183.85
-163.18
-111.59
-32.21
65.23
166.10
254.62
318.05
349.71
349.62
323.14
278.56
225.07
170.50
120.34
77.90
44.62
20.43
3.58
-9.53
-23.47
-42.21
-67.45
-97.90
-129.70
-158.38
-180.82
-196.91
-209.78
-224.96
-248.60
-285.37
-336.16
-396.46
-456.09
-501.26
-518.87
-501.99
-453.54
-386.53
-320.21
-273.48
-258.56
-277.74
-323.86
-384.00
-444.40
-493.45
-523.54
-531.33
-516.87
-482.93
-434.10
-375.91
-314.15
-254.68
-201.85
-158.14
-123.96
-97.38
-74.45
-50.42
-20.92
16.36
61.25
112.44
167.51
222.82
273.63
314.53
340.73
349.87
348.21
341.99
338.17
340.70
348.02
354.85
356.15
350.03
338.33
322.75
304.92
284.45
259.14
226.34
184.54
133.91
75.72
20.62
-23.85
-54.39
-71.95
-80.46
-84.52
-87.45
-90.60
-93.84
-96.54
-99.60
-104.07
-109.58
-113.36
-110.76
-97.05
-70.09
-32.10
10.86
50.12
78.63
93.56
96.57
92.04
84.71
77.97
73.24
70.99
70.86
73.02
77.77
84.90
93.01
100.08
104.15
104.07
100.84
96.95
95.48
98.11
103.59
107.60
104.88
92.03
69.34
41.69
16.32
-0.14
-4.45
3.37
18.20
33.63
44.71
48.30
44.72
35.29
21.44
4.14
-15.84
-38.08
-62.02
-84.48
-104.67
-122.67
-139.46
-156.11
-172.62
-186.59
-193.44
-187.65
-165.61
-128.67
-82.93
-37.59
-1.20
21.52
31.07
31.59
28.29
24.75
21.64
18.12
13.23
7.19
1.36
-2.69
-4.30
-3.99
-3.13
-3.62
-6.45
-11.49
-17.48
-22.64
-25.34
-24.69
-20.83
-14.80
-8.17
-2.13
2.50
5.99
9.01
12.48
17.48
25.28
37.33
54.28
75.12
96.06
110.94
112.98
97.53
64.30
17.57
-35.10
-85.34
-125.94
-151.90
-160.69
-152.27
-129.08
-95.86
-59.13
-25.67
-0.69
13.55
18.04
15.84
10.16
3.56
-2.17
-5.90
-6.95
-5.38
-2.41
-0.05
-0.39
-5.04
-13.64
-23.73
-31.89
-35.20
-32.72
-25.95
-17.82
-11.16
-8.44
-9.21
-10.72
-9.35
-1.73
14.10
35.47
58.97
80.63
93.69
91.50
68.39
22.05
-44.16
-120.51
-192.76
-246.04
-269.08
-260.21
-224.11
-169.69
-105.83
-38.41
29.87
97.21
153.87
201.18
230.61
237.01
220.95
189.71
154.59
126.68
112.74
113.96
127.83
148.43
171.93
196.23
219.48
238.49
248.36
244.13
223.60
189.84
148.72
109.12
79.30
64.25
64.39
75.59
90.08
98.58
93.88
72.74
39.42
4.56
-18.99
-22.03
-3.74
27.11
55.59
67.30
53.53
14.97
-39.86
-98.66
-150.21
-187.36
-208.06
-214.49
-211.48
-205.10
-200.77
-201.79
-208.18
-216.60
-221.50
-217.27
-200.46
-171.48
-134.46
-95.95
-62.77
-39.98
-29.57
-30.36
-38.65
-49.48
-57.94
-60.30
-54.41
-39.86
-17.53
10.91
43.59
78.79
115.19
152.01
188.80
224.92
258.95
288.30
309.58
319.56
316.56
301.16
276.33
246.25
214.80
184.50
155.86
127.44
96.41
59.56
14.93
-36.17
-88.20
-132.32
-159.55
-164.83
-149.46
-120.40
-86.67
-55.37
-29.80
-10.39
2.63
7.61
2.28
-13.39
-35.04
-54.41
-62.89
-55.87
-35.00
-7.05
19.64
38.55
46.68
43.86
31.26
10.20
-17.84
-50.62
-84.81
-116.31
-141.09
-156.04
-159.51
-151.43
-133.12
-107.25
-77.57
-48.41
-23.51
-4.97
7.49
16.12
24.07
33.95
46.70
61.47
76.33
89.72
101.44
112.79
125.66
141.03
158.11
174.71
188.82
200.10
210.34
222.12
236.49
251.28
261.18
259.76
242.48
208.90
162.92
110.98
59.41
12.12
-29.90
-67.90
-104.07
-140.54
-179.24
-222.43
-272.93
-333.42
-404.71
-483.95
-563.91
-634.11
-684.04
-706.92
-702.18
-675.43
-635.75
-591.94
-549.47
-509.63
-470.87
-431.04
-389.12
-345.44
-300.83
-255.44
-208.19
-157.21
-100.64
-37.22
33.23
109.71
189.93
270.33
346.31
412.86
465.38
500.60
517.35
516.92
502.83
479.84
452.57
424.24
396.03
367.34
336.88
303.67
267.77
230.15
192.31
155.83
122.33
93.56
71.30
56.88
50.25
49.40
50.75
50.47
46.09
37.44
26.46
16.07
8.79
5.73
6.49
9.82
14.39
19.44
24.95
31.35
39.04
47.80
56.58
63.72
67.49
66.86
62.05
54.64
47.19
42.36
41.86
45.68
51.84
57.10
58.23
53.48
43.46
30.91
19.42
11.95
10.04
14.03
23.86
39.61
60.92
85.72
109.56
126.64
132.78
127.94
117.04
107.58
105.10
109.40
114.11
110.21
91.43
58.38
18.71
-16.47
-37.57
-40.20
-25.92
-0.37
29.60
58.01
80.53
94.25
97.31
88.85
69.02
39.24
1.84
-40.01
-83.01
-124.11
-161.09
-193.12
-221.51
-249.82
-282.58
-323.19
-371.16
-420.86
-462.30
-484.46
-479.53
-446.18
-389.39
-317.71
-238.96
-157.65
-75.62
4.92
78.67
137.39
173.37
184.06
174.23
153.96
133.33
117.26
104.19
88.95
67.46
40.05
10.70
-16.65
-41.72
-68.10
-100.07
-137.86
-175.54
-202.97
-210.65
-195.09
-160.57
-116.87
-74.10
-38.80
-12.57
5.99
18.57
26.02
28.88
28.82
29.25
34.13
45.72
62.96
81.69
96.69
104.14
102.90
94.24
80.23
62.44
41.63
18.49
-5.48
-27.91
-46.12
-58.16
-63.08
-61.06
-53.50
-42.57
-30.92
-20.76
-13.10
-7.01
0.29
12.24
31.31
57.59
88.37
118.72
142.91
155.96
154.94
139.63
112.46
77.69
40.32
4.75
-26.15
-51.43
-71.64
-87.94
-101.15
-111.50
-118.76
-122.90
-124.62
-125.33
-126.79
-130.47
-137.11
-146.50
-157.87
-170.28
-182.87
-194.69
-204.38
-209.88
-208.74
-198.88
-179.42
-151.05
-115.75
-75.97
-34.09
7.68
46.76
80.05
104.27
117.18
118.70
111.37
99.44
87.27
77.71
71.42
67.48
64.47
61.42
58.04
54.31
50.22
45.80
41.63
39.08
39.99
45.83
56.88
71.82
88.11
103.02
114.73
123.11
129.63
136.54
145.63
157.07
168.88
177.46
178.96
170.94
153.63
129.78
103.32
77.47
53.65
31.72
11.32
-6.71
-20.12
-26.40
-24.66
-16.93
-7.85
-2.96
-6.27
-18.56
-37.12
-57.20
-74.01
-84.51
-88.16
-86.42
-81.75
-76.34
-71.36
-66.84
-62.14
-56.60
-50.03
-42.72
-34.94
-26.48
-16.47
-3.69
12.59
31.91
52.42
71.47
86.66
96.86
102.64
105.88
108.86
113.31
119.80
127.80
136.08
143.24
148.09
149.89
148.50
144.65
139.91
136.20
134.71
134.68
132.70
123.48
101.92
65.76
17.43
-36.23
-86.49
-126.20
-152.25
-165.74
-170.23
-169.53
-166.50
-163.13
-160.96
-161.09
-163.29
-165.48
-164.04
-155.57
-139.08
-117.02
-94.01
-74.28
-58.98
-45.76
-31.64
-16.14
-3.38
-0.58
-14.10
-44.95
-86.95
-128.49
-156.89
-163.79
-147.11
-110.44
-60.21
-2.97
55.86
111.16
156.99
186.87
194.63
177.36
137.10
80.79
18.13
-41.08
-90.01
-126.06
-145.07
-145.12
-126.34
-91.78
-47.19
0.76
47.14
88.61
122.71
148.30
164.39
170.79
168.38
159.01
145.07
129.68
114.33
98.10
79.22
55.32
24.69
-13.19
-57.92
-108.89
-164.52
-218.69
-267.55
-308.58
-341.44
-367.66
-389.59
-408.37
-430.09
-449.43
-458.07
-449.62
-421.64
-377.06
-323.18
-268.73
-218.27
-175.73
-140.58
-110.80
-84.81
-61.94
-42.66
-27.72
-17.16
-9.94
-4.45
2.18
11.48
23.31
36.52
49.68
61.51
71.32
79.12
85.83
93.72
104.64
119.46
138.01
159.10
180.78
201.10
218.63
234.02
249.63
268.19
291.88
321.69
357.35
397.18
438.47
477.17
509.91
533.58
545.95
546.96
539.89
531.44
529.23
538.74
559.88
588.18
614.97
630.75
629.06
609.25
576.88
540.18
506.90
466.63
411.32
336.74
245.01
144.50
46.69
-38.03
-105.37
-156.77
-194.18
-223.54
-248.92
-271.80
-292.83
-312.64
-331.87
-353.33
-376.84
-401.60
-424.36
-440.78
-447.11
-442.17
-433.66
-424.08
-414.63
-405.43
-396.20
-385.63
-372.68
-352.50
-325.13
-293.09
-258.73
-224.40
-190.90
-157.96
-124.58
-90.12
-55.27
-22.51
5.96
29.95
49.97
67.11
81.96
94.36
103.45
108.22
107.56
101.64
92.33
81.71
71.55
62.98
56.42
52.03
49.69
48.56
47.33
44.36
37.43
24.43
4.21
-22.70
-53.85
-85.35
-113.02
-133.49
-144.98
-147.94
-144.59
-138.02
-131.04
-125.32
-121.15
-117.71
-113.61
-107.56
-98.86
-87.47
-74.00
-59.40
-44.85
-31.59
-20.93
-14.16
-12.33
-15.85
-24.09
-34.94
-44.83
-49.23
-43.65
-24.73
8.82
55.62
111.50
169.97
223.50
265.01
289.53
295.32
283.79
258.49
223.57
182.76
138.99
94.88
52.87
15.07
-17.73
-46.84
-75.72
-108.96
-150.63
-203.07
-266.29
-338.06
-414.24
-488.73
-553.96
-601.85
-625.48
-621.01
-589.20
-535.74
-470.06
-402.74
-342.61
-294.44
-258.08
-229.53
-203.08
-173.73
-138.65
-97.32
-50.42
1.46
58.37
120.32
185.70
250.32
307.91
352.12
379.18
389.68
388.36
381.99
376.60
375.07
376.01
375.05
367.06
348.90
321.04
287.61
254.92
228.92
212.90
206.17
204.23
200.45
188.33
163.83
126.67
80.38
31.33
-12.93
-45.44
-61.27
-58.57
-38.93
-7.08
30.17
65.70
93.84
111.60
118.94
118.16
112.78
106.53
102.80
104.15
111.95
125.74
142.63
157.40
163.26
153.54
123.69
73.27
6.89
-65.53
-130.63
-175.27
-190.98
-176.86
-139.93
-91.97
-44.95
-7.31
17.16
28.15
27.12
16.36
-0.89
-20.32
-37.83
-52.07
-66.16
-86.85
-120.30
-167.09
-219.38
-262.88
-282.55
-269.03
-222.62
-152.88
-75.40
-6.67
40.60
60.92
57.31
40.30
24.69
24.15
45.72
87.23
137.95
183.22
210.28
212.33
188.94
143.49
80.02
2.13
-85.69
-175.85
-256.73
-315.16
-340.79
-330.31
-288.63
-226.56
-156.20
-87.03
-24.79
27.46
66.84
89.75
92.81
75.07
39.91
-4.91
-49.11
-82.56
-97.29
-88.94
-57.22
-5.41
60.10
130.53
196.17
247.96
279.47
288.49
276.90
249.98
214.86
178.52
146.31
121.28
104.50
93.90
87.93
85.44
85.71
88.35
92.99
98.87
105.19
111.21
116.52
121.23
125.35
128.78
131.18
132.08
130.69
127.25
121.28
112.61
101.74
89.47
76.72
64.46
53.63
44.60
37.87
33.81
32.14
32.35
33.51
34.22
32.62
29.94
26.13
21.20
15.33
7.64
-2.70
-16.42
-34.01
-55.53
-80.52
-108.34
-137.54
-166.03
-193.43
-219.34
-243.46
-265.44
-284.85
-301.21
-314.26
-323.85
-329.84
-335.44
-344.45
-360.86
-387.95
-427.62
-480.39
-545.86
-623.54
-694.28
-742.35
-755.77
-729.27
-664.40
-567.74
-449.12
-320.39
-194.63
-83.15
4.39
64.64
100.17
117.56
123.99
123.07
118.88
114.07
110.93
109.40
108.92
108.28
106.15
101.41
93.41
83.01
71.72
61.78
54.27
49.73
46.84
44.49
41.65
37.71
32.94
27.88
23.40
19.75
16.67
13.71
10.56
6.93
2.70
-1.56
-5.34
-8.19
-10.19
-12.14
-14.59
-17.65
-21.27
-25.26
-28.46
-30.08
-29.80
-27.83
-26.01
-24.97
-24.29
-23.19
-20.70
-14.45
-2.97
14.17
36.32
59.60
82.71
106.32
131.69
160.32
195.47
238.62
289.49
345.97
400.70
450.16
493.75
532.21
568.01
607.62
657.09
720.43
797.30
876.42
947.18
1000.40
1029.65
1006.32
913.27
746.22
516.70
283.52
72.51
-104.98
-242.77
-346.09
-413.62
-442.17
-434.28
-398.73
-348.03
-299.68
-261.93
-235.11
-215.33
-196.89
-173.75
-143.01
-104.83
-62.04
-23.58
5.01
21.58
26.63
23.63
17.74
12.84
10.14
8.23
1.51
-12.64
-34.01
-60.74
-90.12
-119.88
-149.32
-179.10
-210.60
-246.31
-286.20
-327.42
-364.82
-392.00
-403.61
-397.37
-375.00
-341.36
-302.84
-264.21
-227.59
-193.19
-160.48
-129.53
-100.87
-74.34
-47.80
-16.95
22.84
73.87
133.58
193.94
243.36
270.87
270.17
241.62
191.33
127.94
59.57
-7.76
-69.47
-120.87
-156.22
-169.79
-158.05
-121.36
-64.13
6.19
80.80
150.50
205.93
238.19
241.17
214.61
166.10
109.98
62.26
33.94
26.19
30.28
32.03
18.48
-16.84
-72.22
-139.91
-209.89
-273.20
-323.39
-356.48
-370.44
-364.84
-341.12
-302.87
-255.47
-204.96
-156.85
-115.09
-81.24
-54.09
-29.84
-2.83
33.01
81.94
144.21
214.50
282.31
334.31
358.77
349.86
310.09
249.66
182.75
122.91
79.36
55.94
52.22
65.52
92.27
128.38
169.06
208.99
243.01
267.00
278.33
275.79
259.25
229.75
189.86
143.81
96.76
53.09
14.40
-21.46
-59.69
-105.87
-162.49
-226.49
-289.16
-338.62
-364.14
-359.91
-326.73
-271.13
-202.90
-132.26
-68.13
-16.96
18.26
38.76
50.28
61.62
81.49
114.58
158.85
205.88
244.45
265.37
265.04
245.90
213.88
175.52
135.57
96.64
59.91
25.78
-6.37
-39.02
-76.05
-121.86
-177.67
-239.40
-297.70
-340.91
-359.41
-349.43
-314.46
-262.53
-203.58
-144.57
-89.18
-38.85
5.28
41.83
70.28
90.71
104.05
108.62
101.69
79.73
41.30
-10.36
-66.02
-111.96
-136.07
-131.81
-102.70
-57.03
-4.56
47.80
97.36
146.12
199.50
255.28
320.43
388.66
451.50
499.88
527.47
532.06
507.36
454.38
379.87
294.17
205.77
122.03
46.86
-14.13
-63.15
-103.38
-136.45
-162.95
-184.25
-203.81
-223.57
-245.26
-270.06
-299.81
-336.04
-379.52
-430.10
-488.15
-553.51
-616.22
-662.40
-677.76
-654.58
-595.17
-519.64
-441.29
-368.77
-306.50
-254.37
-209.36
-169.00
-132.13
-98.11
-66.12
-33.85
-0.70
32.39
63.51
89.69
109.35
122.17
129.95
135.90
144.34
157.05
173.33
191.04
207.57
223.03
239.85
262.40
295.24
341.81
401.52
470.39
542.99
604.16
641.88
648.86
624.51
574.93
510.50
441.16
373.37
308.99
245.66
179.98
108.52
30.02
-52.67
-131.94
-197.56
-240.48
-257.15
-251.99
-235.00
-218.10
-209.65
-210.87
-216.40
-218.38
-211.51
-196.28
-178.83
-166.81
-165.45
-174.23
-186.38
-191.95
-182.40
-154.62
-112.43
-65.04
-22.53
8.23
26.20
35.65
43.10
53.36
67.02
80.43
87.90
85.25
71.87
50.64
26.26
3.00
-16.81
-32.66
-45.24
-55.36
-63.47
-69.67
-73.89
-75.85
-74.87
-70.09
-60.85
-47.07
-29.30
-8.64
13.40
34.55
51.27
58.89
53.09
32.34
0.07
-35.31
-63.11
-75.18
-69.84
-52.72
-33.30
-19.97
-16.13
-19.98
-27.17
-34.04
-39.07
-41.86
-41.31
-35.09
-21.22
-0.64
21.81
39.31
47.04
45.14
38.35
32.76
32.04
35.56
39.66
40.83
38.23
33.71
30.04
28.73
29.19
30.42
32.35
35.71
40.88
46.17
47.49
40.11
21.35
-7.68
-40.91
-69.33
-85.33
-85.60
-72.56
-53.09
-34.99
-24.06
-22.95
-29.84
-39.57
-46.82
-47.48
-39.54
-22.92
1.65
33.48
67.59
96.91
114.76
115.95
99.32
67.48
25.62
-18.94
-57.07
-89.65
-122.27
-154.09
-181.41
-197.66
-197.08
-177.32
-139.54
-89.13
-30.55
25.55
69.06
96.45
113.40
130.47
148.90
166.08
178.53
178.98
162.66
130.74
85.27
36.76
-2.90
-26.97
-34.69
-30.88
-22.99
-16.48
-12.39
-9.11
-4.23
1.12
3.95
1.69
-6.66
-20.80
-39.20
-59.40
-79.86
-100.46
-118.85
-137.29
-157.12
-176.20
-188.67
-186.85
-165.09
-123.55
-68.95
-12.95
32.14
59.58
69.89
69.05
64.56
61.73
61.89
63.35
63.21
59.50
52.93
46.13
41.82
41.42
44.44
49.10
53.88
58.29
62.35
66.40
69.53
69.15
62.46
48.74
31.15
15.78
8.00
9.34
16.06
20.86
17.01
2.36
-19.81
-42.91
-61.67
-75.84
-88.68
-103.33
-118.92
-129.30
-125.88
-103.02
-61.39
-7.45
43.85
78.67
90.91
84.12
68.24
55.46
51.40
57.24
71.08
88.81
106.12
118.06
119.51
106.64
79.13
40.90
-0.39
-33.44
-50.44
-50.73
-42.23
-37.21
-46.58
-74.99
-120.13
-172.57
-220.32
-253.82
-267.24
-259.28
-231.56
-188.02
-130.89
-69.57
-15.21
24.39
46.92
57.15
60.10
60.91
64.96
77.51
100.12
133.99
178.93
228.02
272.06
300.47
305.28
283.94
240.13
181.99
120.76
66.77
26.12
0.58
-11.73
-13.19
-5.30
10.92
32.90
56.28
74.84
82.38
75.90
56.87
31.20
6.60
-10.78
-18.89
-19.33
-15.82
-12.50
-10.86
-10.53
-9.86
-7.45
-3.28
1.17
3.88
3.14
-1.57
-9.59
-18.84
-25.93
-26.71
-17.37
4.14
36.86
76.22
114.89
144.65
159.72
159.02
146.16
127.46
108.87
93.58
80.92
71.47
63.44
54.94
44.65
31.89
15.85
-4.50
-30.08
-61.34
-98.31
-141.73
-192.13
-249.19
-310.38
-370.57
-421.82
-454.79
-461.19
-436.39
-381.38
-302.42
-210.33
-119.20
-45.51
-3.20
1.14
-28.14
-76.16
-122.49
-147.80
-139.83
-96.87
-28.95
48.23
118.82
170.44
195.23
189.41
153.69
94.08
21.40
-54.43
-125.21
-186.41
-237.83
-282.61
-325.10
-368.44
-412.87
-438.04
-428.36
-380.05
-304.98
-222.87
-149.84
-93.50
-54.71
-30.41
-15.54
-8.67
-5.75
-2.18
6.51
22.90
46.63
74.70
103.38
130.07
152.22
164.11
165.27
159.27
152.04
149.50
155.57
171.38
195.44
223.02
249.10
270.21
284.41
291.20
291.38
287.43
283.44
283.44
287.78
291.78
287.25
266.18
226.12
173.44
122.21
88.68
84.15
109.93
157.47
213.11
263.37
298.94
315.33
311.33
287.76
247.33
195.49
140.78
93.19
60.77
46.40
46.54
52.63
54.33
43.21
14.90
-30.25
-87.53
-148.92
-204.22
-242.45
-254.29
-235.15
-187.55
-121.59
-52.28
5.12
39.75
47.69
31.70
-1.55
-44.96
-93.51
-144.88
-198.01
-250.78
-298.41
-333.57
-348.28
-336.82
-298.53
-238.63
-167.09
-95.72
-34.59
10.99
41.88
63.86
84.44
108.94
137.70
165.68
184.75
187.64
171.31
138.32
95.07
48.31
2.10
-43.22
-90.04
-141.17
-197.68
-257.93
-317.49
-370.04
-408.90
-428.63
-426.60
-403.86
-364.70
-315.14
-260.96
-206.30
-153.55
-104.10
-59.08
-19.28
15.85
48.75
83.31
122.64
166.42
209.53
242.88
256.31
242.02
197.60
127.32
41.62
-45.15
-117.92
-164.43
-178.27
-160.47
-118.93
-65.48
-11.80
34.63
72.53
106.15
141.88
184.26
232.99
282.39
323.65
348.07
349.88
327.50
283.07
221.60
150.29
78.83
18.59
-19.87
-30.82
-16.68
12.07
41.14
59.05
62.32
56.37
51.40
56.43
75.23
106.28
145.67
190.00
237.23
285.00
328.78
361.94
378.32
375.42
356.03
327.00
295.65
266.78
241.13
216.29
188.85
156.25
117.53
72.94
23.21
-30.73
-87.33
-143.98
-196.68
-240.47
-270.56
-283.88
-280.40
-263.50
-239.18
-214.35
-194.71
-182.92
-177.74
-174.79
-168.23
-153.07
-127.20
-92.20
-52.97
-16.14
11.90
26.97
28.12
17.76
0.75
-17.08
-30.67
-36.54
-32.65
-18.35
6.14
39.90
80.75
124.50
164.88
194.66
207.99
202.71
180.48
145.69
103.87
60.10
18.42
-18.09
-47.80
-70.90
-89.34
-107.80
-132.18
-166.06
-208.17
-251.87
-287.52
-307.47
-308.31
-289.99
-257.36
-218.53
-181.18
-151.36
-133.13
-128.42
-139.09
-164.24
-195.90
-225.74
-248.02
-257.86
-252.27
-230.29
-192.93
-146.49
-97.80
-46.20
8.66
64.78
121.52
177.54
228.90
268.60
283.77
264.51
215.52
146.37
66.53
-12.67
-82.28
-138.07
-150.76
-103.06
-43.28
1.33
36.88
63.75
82.82
94.89
100.22
99.25
88.30
65.24
34.57
-0.18
-38.83
-78.78
-116.38
-148.91
-174.46
-195.55
-214.80
-232.86
-251.26
-273.07
-298.25
-325.25
-353.69
-383.95
-419.54
-430.00
-394.56
-313.43
-208.25
-103.79
-14.58
55.45
109.17
149.52
179.05
196.41
200.61
193.00
173.70
151.35
132.81
122.50
120.82
126.05
132.29
134.62
131.31
130.74
137.17
145.74
155.87
165.52
171.15
166.11
144.76
105.90
50.11
-19.57
-95.84
-167.89
-223.45
-251.92
-249.37
-218.76
-168.85
-118.46
-73.47
-36.54
-7.12
16.61
36.90
54.80
69.92
81.20
87.66
90.61
87.50
76.31
55.98
27.32
-7.30
-44.72
-79.57
-110.26
-134.51
-151.34
-160.11
-161.28
-156.80
-148.90
-138.48
-125.66
-110.45
-92.21
-71.70
-50.12
-29.38
-10.59
5.59
21.33
39.23
60.75
85.98
112.52
137.23
156.47
169.44
176.87
184.42
197.91
220.71
252.57
289.33
325.56
355.20
376.82
391.43
406.98
431.78
471.50
527.80
597.83
675.81
752.20
819.16
839.60
787.15
654.99
463.69
252.76
59.53
-82.26
-181.56
-255.32
-318.99
-376.93
-429.43
-476.89
-519.16
-556.83
-589.71
-613.60
-620.07
-614.75
-599.34
-570.94
-530.09
-479.26
-421.96
-361.37
-301.28
-246.54
-202.54
-168.60
-145.18
-132.10
-126.95
-125.56
-122.97
-116.34
-104.89
-90.98
-76.52
-63.55
-52.81
-43.17
-33.24
-22.82
-13.98
-9.26
-10.19
-14.83
-19.28
-18.95
-10.31
7.52
32.60
60.73
87.60
110.51
129.47
146.55
165.36
190.09
223.97
267.93
319.26
371.33
414.98
440.88
441.82
414.78
361.69
288.97
206.46
125.95
59.36
16.54
2.74
17.06
52.68
99.22
146.17
185.82
214.24
230.28
233.80
224.44
202.19
168.58
127.38
83.74
41.91
3.32
-33.60
-71.38
-110.81
-148.78
-178.96
-194.45
-191.12
-169.72
-135.42
-95.05
-53.68
-12.82
28.75
72.07
115.07
151.79
174.27
176.52
157.58
122.08
78.15
33.64
-7.09
-43.97
-79.56
-116.06
-153.13
-187.96
-216.73
-236.72
-247.15
-248.45
-240.85
-223.24
-193.07
-147.18
-84.14
-6.38
78.69
159.49
223.22
259.98
266.02
245.18
207.41
164.66
126.13
95.35
69.70
43.61
12.14
-27.52
-75.46
-129.43
-186.11
-241.57
-291.11
-330.15
-354.22
-360.16
-347.52
-318.69
-277.42
-227.98
-173.95
-117.53
-61.51
-10.84
31.60
63.99
82.44
86.00
78.01
65.77
58.36
60.28
69.95
79.55
78.34
59.04
23.10
-19.24
-54.01
-69.61
-64.33
-43.55
-15.92
12.13
40.24
73.70
118.90
171.72
231.72
284.35
315.20
315.87
287.58
240.09
186.65
137.91
98.03
64.75
30.95
-8.24
-54.03
-104.63
-156.37
-206.13
-250.93
-287.34
-311.37
-320.58
-313.18
-290.00
-254.87
-209.35
-159.16
-112.26
-70.80
-35.40
-7.21
14.37
31.61
48.30
70.41
102.76
148.08
205.67
270.17
332.46
382.78
412.80
409.14
367.16
293.38
205.21
122.88
59.27
16.85
-8.81
-24.08
-33.76
-39.01
-40.97
-41.49
-43.73
-51.45
-67.06
-90.68
-121.18
-157.36
-193.04
-224.08
-248.71
-268.11
-285.20
-301.64
-315.42
-320.91
-310.98
-280.07
-228.88
-164.86
-99.86
-45.47
-8.39
11.49
19.26
21.50
23.24
25.77
27.78
27.79
26.15
25.37
28.75
38.27
53.47
71.79
89.31
102.60
110.18
113.02
113.84
115.95
121.95
133.10
149.22
168.43
187.02
200.08
202.72
191.45
165.97
129.85
89.86
52.98
26.18
13.05
12.71
20.52
29.95
35.48
34.33
26.81
16.29
6.57
0.50
-0.16
5.02
14.99
28.16
42.53
55.87
66.68
72.27
69.33
55.51
30.17
-5.75
-49.49
-97.52
-146.55
-192.71
-234.40
-271.35
-303.23
-323.42
-325.94
-307.89
-271.66
-233.37
-200.65
-177.02
-164.48
-161.43
-168.26
-185.49
-211.03
-239.56
-263.26
-273.19
-264.89
-239.29
-200.96
-155.60
-107.81
-60.61
-17.45
16.10
33.87
30.22
4.93
-33.97
-72.46
-96.20
-96.93
-75.81
-41.68
-5.12
26.16
50.62
72.01
95.34
123.21
154.44
185.44
212.88
236.19
257.29
279.71
306.89
341.03
382.61
430.50
481.89
532.12
574.88
603.04
610.74
595.43
559.09
507.68
449.06
390.01
334.42
283.24
235.73
191.96
153.00
120.78
96.72
80.52
69.61
59.94
47.50
29.29
5.74
-21.01
-47.75
-71.77
-92.00
-109.97
-129.27
-154.25
-189.25
-235.04
-290.85
-353.34
-417.15
-474.82
-518.93
-543.49
-545.82
-528.28
-494.31
-449.66
-398.69
-343.27
-281.31
-210.44
-130.42
-39.45
45.43
114.59
158.02
170.39
152.71
115.05
71.90
38.59
25.97
35.35
61.81
93.01
116.10
122.00
110.93
87.70
58.71
27.60
-7.93
-51.04
-106.20
-166.73
-233.94
-295.15
-337.89
-353.85
-342.09
-310.57
-269.40
-229.54
-196.84
-170.97
-143.62
-105.70
-51.07
23.37
104.24
180.06
237.52
266.94
263.92
232.35
180.76
121.15
66.54
27.68
12.19
19.78
42.40
66.27
78.78
72.83
51.03
24.84
8.98
15.79
48.27
99.54
156.01
203.67
232.28
237.91
222.02
189.02
144.85
94.10
40.22
-14.51
-68.58
-121.55
-174.02
-227.22
-282.18
-337.65
-389.96
-433.34
-461.88
-472.07
-464.45
-443.14
-414.08
-382.85
-352.66
-324.83
-299.66
-277.22
-257.47
-239.58
-221.74
-201.32
-176.08
-144.40
-106.54
-64.27
-20.02
23.94
65.72
103.38
134.64
157.20
171.68
180.69
188.32
198.60
213.69
233.18
254.63
275.04
292.38
309.25
329.37
355.42
387.22
421.70
454.69
483.33
507.24
528.42
553.76
589.39
637.99
697.18
760.16
818.33
864.33
893.79
881.79
812.73
682.66
503.69
300.66
101.02
-74.90
-217.40
-325.85
-404.91
-457.39
-486.28
-495.25
-489.53
-475.63
-459.33
-443.46
-427.41
-408.50
-381.50
-344.06
-298.18
-249.70
-205.85
-171.99
-149.71
-137.38
-132.15
-130.00
-128.19
-124.81
-117.95
-105.19
-84.25
-54.84
-20.43
11.67
33.56
39.60
29.53
8.77
-14.21
-31.91
-41.06
-43.33
-43.23
-44.46
-47.78
-51.08
-51.58
-48.39
-43.11
-38.59
-36.50
-35.56
-32.23
-23.55
-10.06
3.37
10.02
5.71
-7.91
-23.62
-32.62
-30.10
-18.51
-6.59
-4.13
-15.86
-38.22
-61.03
-73.06
-67.81
-46.44
-16.19
13.66
36.13
48.68
52.52
50.25
43.73
33.35
18.58
-0.18
-20.63
-39.02
-51.61
-56.50
-54.75
-49.83
-45.72
-44.68
-45.32
-43.19
-32.92
-11.09
21.99
62.18
103.25
139.43
164.96
177.14
176.45
165.82
149.53
132.20
117.73
108.23
103.13
98.97
91.02
75.04
49.53
16.87
-17.29
-46.61
-67.12
-79.05
-86.84
-96.77
-114.27
-141.73
-177.89
-218.84
-259.98
-297.43
-328.38
-350.47
-360.83
-356.34
-334.63
-295.52
-241.88
-179.22
-113.98
-51.49
5.29
55.79
100.33
138.72
169.39
190.15
199.41
197.11
184.67
163.68
134.60
96.29
47.01
-13.22
-80.35
-145.87
-198.67
-228.70
-230.79
-206.38
-162.53
-108.60
-52.54
1.17
51.46
98.65
142.33
180.64
211.17
232.48
245.05
250.82
251.90
249.39
243.38
233.80
221.29
207.56
194.54
183.10
172.17
158.97
140.15
113.30
77.89
35.12
-13.06
-65.09
-120.08
-176.88
-232.58
-281.65
-316.57
-330.20
-318.69
-283.32
-230.09
-167.31
-102.64
-41.24
14.06
61.25
97.58
119.48
123.89
110.02
80.37
39.96
-5.81
-53.37
-101.80
-151.69
-202.73
-251.45
-291.00
-313.27
-312.45
-288.03
-245.59
-194.75
-145.30
-103.47
-70.00
-40.97
-10.39
26.77
72.34
124.30
177.56
225.52
261.91
282.59
286.83
277.66
261.19
244.92
235.54
236.84
248.36
265.52
281.22
288.35
282.33
262.37
231.10
192.76
151.01
107.45
61.81
13.41
-37.15
-87.15
-132.10
-167.02
-187.78
-192.20
-180.38
-154.58
-118.80
-78.24
-38.56
-4.74
19.93
34.69
40.70
40.18
35.23
27.05
15.81
0.66
-19.96
-47.93
-84.21
-128.67
-178.91
-229.39
-271.89
-297.13
-298.33
-273.88
-227.92
-167.40
-100.59
-34.22
28.38
86.67
141.98
194.57
242.65
283.18
315.45
339.52
356.23
366.99
373.08
376.79
379.51
381.48
381.85
381.21
378.08
368.85
349.41
316.81
272.39
219.98
164.58
96.88
18.55
-60.40
-127.03
-169.12
-192.18
-205.19
-217.24
-234.96
-260.85
-290.07
-314.04
-323.52
-310.95
-274.04
-217.16
-151.41
-90.36
-44.81
-17.99
-8.00
-11.67
-25.48
-47.01
-75.65
-111.35
-152.40
-195.11
-234.75
-268.58
-297.33
-321.44
-338.74
-346.18
-340.34
-318.66
-281.19
-231.68
-168.34
-100.09
-44.48
-0.88
37.54
73.96
105.82
129.52
140.29
131.89
102.59
59.34
16.40
-13.15
-21.67
-8.83
19.27
52.82
82.60
102.26
110.23
108.69
98.97
81.67
57.99
30.39
2.12
-23.31
-42.61
-52.31
-48.83
-31.16
-1.30
36.10
74.79
108.48
132.65
145.59
148.32
143.23
131.41
112.69
86.78
55.27
22.57
-5.80
-25.16
-33.66
-32.78
-26.98
-21.26
-19.01
-19.93
-19.77
-13.32
3.52
32.06
70.98
116.48
163.53
206.56
241.10
264.58
274.16
266.95
240.63
196.09
137.38
71.09
3.94
-62.01
-118.97
-158.86
-178.66
-183.28
-180.10
-178.29
-181.04
-188.05
-196.08
-200.76
-200.77
-195.79
-189.99
-185.79
-183.10
-178.64
-167.05
-141.75
-98.15
-37.45
33.77
104.81
168.96
223.36
268.19
295.75
300.27
282.55
250.70
225.86
212.34
210.53
219.08
230.40
237.11
233.10
214.79
181.87
137.65
86.20
33.94
-14.70
-58.86
-99.22
-134.96
-162.59
-177.36
-175.37
-157.03
-124.88
-84.28
-42.01
-3.51
28.77
55.28
77.45
96.91
114.07
129.53
142.74
151.68
153.87
147.49
132.24
108.07
76.84
41.72
6.85
-25.10
-53.92
-81.15
-108.98
-139.09
-174.33
-213.21
-248.19
-267.76
-262.57
-230.91
-180.49
-126.07
-83.99
-70.59
-91.33
-138.26
-195.59
-248.92
-291.53
-324.21
-351.00
-375.23
-404.16
-440.89
-482.81
-524.40
-561.41
-591.94
-614.13
-624.34
-579.46
-462.26
-292.40
-113.73
36.92
145.59
215.37
255.75
276.24
283.63
275.61
252.29
221.59
196.24
187.09
198.44
227.61
267.83
309.32
335.62
331.00
292.47
228.75
156.20
92.82
52.92
44.25
64.79
98.95
130.45
151.44
162.65
171.05
184.84
199.92
209.76
221.71
230.48
221.58
190.10
138.33
73.32
3.53
-63.38
-119.77
-158.84
-177.60
-173.39
-144.85
-96.99
-41.79
5.16
30.90
31.99
15.07
-8.32
-24.96
-24.61
-4.45
32.28
79.85
133.06
188.61
242.86
288.77
317.71
322.34
299.01
250.02
183.34
109.91
40.10
-20.02
-70.81
-116.78
-163.02
-212.08
-261.75
-305.17
-333.34
-338.76
-318.41
-274.79
-213.99
-143.02
-68.23
4.76
69.77
119.32
145.39
142.45
110.98
59.36
2.53
-42.42
-62.19
-51.35
-13.10
43.11
106.50
169.42
229.57
289.23
351.79
417.82
482.79
537.91
573.42
583.17
567.15
531.35
484.86
436.03
389.66
346.54
305.25
264.49
224.67
187.73
155.49
128.17
103.78
79.00
50.69
17.80
-18.13
-53.10
-82.38
-102.69
-113.76
-118.61
-121.81
-126.89
-134.18
-140.53
-141.47
-134.03
-119.39
-102.94
-92.10
-93.03
-108.12
-135.29
-168.93
-201.65
-226.18
-236.95
-231.32
-210.97
-181.85
-152.89
-133.42
-129.87
-143.30
-168.38
-195.60
-214.59
-218.40
-206.13
-182.15
-153.63
-127.07
-106.22
-91.79
-82.33
-75.52
-69.02
-61.05
-50.40
-37.26
-23.94
-14.50
-12.92
-20.43
-33.98
-47.39
-54.96
-55.69
-54.47
-58.95
-74.34
-99.04
-124.95
-141.66
-142.54
-128.54
-107.33
-89.05
-80.83
-83.93
-95.04
-109.31
-123.19
-134.84
-142.51
-143.55
-134.74
-114.65
-85.88
-55.20
-30.70
-17.71
-16.23
-21.34
-26.65
-28.30
-26.82
-25.82
-28.61
-35.21
-41.84
-43.13
-35.55
-19.73
-0.25
16.83
27.08
29.70
27.38
24.07
22.38
22.37
22.09
19.49
14.32
8.58
5.36
6.93
13.20
21.60
28.36
30.37
26.52
17.96
7.28
-2.76
-10.24
-14.52
-15.93
-15.05
-12.03
-6.24
3.58
18.65
39.24
64.03
90.24
114.34
133.29
145.49
151.09
151.40
147.87
141.29
131.62
118.49
101.93
82.90
63.02
44.13
27.60
13.95
2.98
-5.92
-13.46
-20.25
-26.61
-32.61
-38.13
-43.11
-48.38
-55.50
-66.36
-82.50
-104.40
-131.11
-160.46
-189.72
-216.35
-238.51
-254.05
-260.04
-253.25
-232.05
-198.54
-159.28
-123.59
-100.01
-93.48
-102.18
-118.28
-131.58
-134.39
-124.49
-104.69
-80.21
-55.83
-37.21
-27.09
-24.91
-27.86
-33.16
-39.38
-46.20
-53.66
-61.49
-74.70
-95.91
-122.75
-148.49
-166.74
-174.65
-172.69
-162.72
-146.68
-135.67
-138.39
-156.72
-185.35
-217.06
-246.96
-272.71
-293.90
-311.85
-341.60
-395.51
-475.81
-573.78
-677.55
-778.57
-872.02
-954.30
-945.09
-800.39
-536.86
-224.73
63.84
289.88
446.57
545.06
602.87
636.55
644.79
626.41
585.77
535.58
490.71
461.34
451.18
458.74
479.77
500.68
509.49
505.12
495.88
490.99
493.34
498.79
499.75
490.09
462.59
417.45
363.08
311.95
273.41
249.68
237.34
230.89
225.56
214.91
193.94
160.42
115.81
65.62
19.00
-12.80
-20.61
-2.07
34.70
73.95
98.72
98.30
73.33
35.53
2.20
-12.91
-6.74
11.74
26.47
23.06
-3.89
-48.09
-94.76
-127.84
-137.77
-125.12
-98.36
-68.83
-45.46
-32.24
-29.01
-33.70
-41.09
-45.15
-43.53
-38.09
-32.12
-26.94
-21.24
-13.07
-1.29
12.69
25.05
31.17
28.44
17.24
0.63
-17.24
-33.69
-48.05
-62.31
-79.67
-102.66
-131.34
-163.15
-194.23
-215.45
-222.08
-214.14
-196.96
-177.91
-163.00
-154.12
-149.02
-142.80
-130.95
-112.10
-84.54
-53.65
-28.04
-13.65
-10.11
-13.04
-16.10
-16.93
-16.04
-14.38
-12.51
-8.91
-2.39
8.78
24.98
44.98
66.62
87.95
108.17
126.89
144.33
160.50
174.76
185.47
191.00
190.54
184.76
175.41
164.15
152.21
140.21
128.44
116.86
105.31
93.12
78.69
59.25
31.74
-4.96
-48.29
-91.61
-126.12
-144.40
-143.91
-127.86
-103.54
-78.64
-58.74
-46.68
-43.33
-48.69
-61.90
-79.98
-96.70
-103.28
-90.87
-55.52
-0.59
64.06
125.93
174.75
205.57
219.29
220.81
217.04
213.28
212.46
215.80
223.63
235.68
250.47
264.52
272.32
268.91
250.50
216.47
170.23
118.20
67.31
22.32
-15.43
-52.87
-91.51
-127.86
-155.71
-170.97
-173.96
-168.34
-158.62
-148.11
-138.14
-127.21
-113.89
-98.15
-81.75
-67.21
-56.58
-50.68
-48.89
-49.70
-50.62
-50.28
-49.18
-49.42
-53.59
-63.67
-80.71
-102.83
-128.50
-154.27
-175.08
-184.97
-178.91
-155.08
-116.55
-70.92
-27.78
4.77
23.83
31.71
33.68
34.69
36.95
39.63
40.45
37.93
32.61
27.06
24.03
24.89
28.79
33.52
36.98
38.59
39.07
38.77
36.60
30.05
16.91
-2.41
-23.75
-40.40
-46.32
-39.13
-21.65
-0.13
18.90
31.57
37.53
38.89
37.98
35.92
32.85
28.66
24.31
21.84
23.41
29.45
37.94
44.34
42.95
30.07
5.71
-25.48
-55.75
-77.05
-84.57
-78.13
-60.98
-39.41
-18.37
-0.36
14.35
25.89
34.13
37.75
35.57
27.75
16.11
3.83
-6.27
-12.75
-16.36
-19.40
-25.17
-36.44
-54.34
-77.54
-100.92
-118.52
-123.97
-114.08
-87.60
-48.08
-2.83
38.99
69.12
82.53
78.34
59.92
33.36
5.97
-16.01
-28.08
-29.18
-21.00
-6.81
9.50
24.41
34.77
38.08
32.08
15.77
-9.26
-38.04
-63.14
-77.23
-75.36
-59.01
-34.94
-12.33
1.29
3.21
-3.87
-14.00
-21.45
-23.42
-20.81
-16.51
-12.80
-10.04
-6.72
-0.65
9.46
23.17
38.35
51.94
61.51
66.25
67.06
66.00
65.42
67.07
71.75
79.20
88.20
96.73
102.12
101.32
91.75
72.65
46.24
17.66
-6.59
-21.27
-24.28
-17.13
-4.16
9.27
18.42
20.63
15.92
6.72
-3.02
-9.53
-9.96
-4.18
4.61
10.92
9.44
-2.66
-25.28
-56.64
-94.37
-134.59
-172.61
-202.98
-220.23
-219.96
-200.41
-164.27
-116.14
-65.73
-22.33
8.28
27.55
39.54
48.12
56.74
67.99
83.89
106.20
137.70
179.65
229.93
281.98
326.08
353.44
358.97
343.32
308.02
261.75
215.90
179.36
156.95
143.95
134.45
124.71
113.18
100.02
86.39
72.51
57.62
40.69
21.44
1.70
-15.63
-27.91
-33.63
-32.19
-24.73
-13.70
-2.10
7.45
14.06
18.15
20.77
23.05
25.92
29.25
31.73
31.14
25.08
12.15
-7.90
-34.13
-64.66
-97.11
-129.44
-160.47
-189.97
-218.41
-246.65
-276.09
-308.70
-346.25
-389.07
-434.78
-477.82
-510.60
-525.86
-519.40
-491.88
-448.36
-396.02
-341.25
-287.91
-237.03
-188.13
-140.72
-95.07
-52.42
-13.95
19.91
49.53
75.43
97.60
115.34
127.80
134.90
137.36
137.72
139.92
148.02
164.22
187.38
212.81
233.94
244.89
241.39
223.16
193.98
160.52
130.10
108.26
96.83
93.57
92.76
85.19
62.14
18.46
-45.40
-123.76
-208.03
-289.79
-362.84
-412.35
-426.66
-400.31
-337.63
-251.17
-156.08
-64.97
14.16
77.76
125.77
158.70
178.10
186.27
186.38
181.85
175.52
169.15
163.53
159.04
154.70
149.51
142.81
134.96
126.97
119.90
114.34
110.47
108.10
106.32
104.28
101.55
98.58
96.16
95.16
95.99
98.53
102.12
105.41
107.42
106.73
102.82
95.43
84.60
70.55
53.42
33.50
11.21
-12.69
-37.04
-59.61
-78.21
-90.82
-95.70
-91.98
-79.87
-60.34
-35.05
-6.11
25.08
56.65
86.44
112.65
133.42
146.54
150.34
143.84
127.05
102.15
71.63
37.57
5.66
-20.44
-40.40
-55.42
-67.41
-83.13
-101.46
-119.50
-134.76
-144.57
-147.64
-146.00
-143.16
-143.37
-150.81
-168.83
-193.80
-226.25
-266.62
-302.95
-324.36
-321.38
-289.98
-233.78
-162.06
-87.45
-22.43
25.95
56.88
72.75
78.06
76.74
70.99
62.35
52.16
41.53
32.60
27.41
25.26
24.14
21.44
15.03
4.54
-8.71
-23.14
-36.82
-48.23
-57.77
-66.52
-75.64
-85.52
-96.21
-105.01
-109.04
-105.60
-92.92
-71.10
-41.57
-6.71
30.73
67.52
101.07
129.61
152.24
168.76
179.22
183.93
183.48
178.56
170.12
159.45
147.71
135.95
124.95
115.20
106.86
99.77
93.37
87.07
80.55
73.70
66.81
60.45
55.25
51.55
49.32
47.92
46.44
44.13
40.70
36.58
32.77
30.38
30.13
31.96
34.96
37.74
39.18
38.78
36.97
34.83
33.91
34.77
37.90
43.59
51.61
60.59
67.59
68.52
59.59
39.36
10.17
-22.20
-50.54
-69.23
-76.37
-73.95
-66.07
-56.52
-47.15
-37.73
-27.38
-15.80
-4.04
6.08
13.13
16.76
17.84
17.58
17.27
17.33
17.43
16.85
14.83
11.22
6.42
1.27
-3.48
-7.47
-11.04
-14.90
-19.48
-25.59
-33.22
-41.84
-50.54
-58.35
-64.45
-68.47
-70.32
-70.24
-68.81
-66.71
-64.81
-63.73
-64.18
-65.80
-68.19
-70.48
-71.92
-72.11
-71.23
-70.09
-69.87
-70.70
-72.22
-73.61
-73.44
-70.93
-66.02
-59.64
-53.61
-49.88
-50.01
-54.36
-64.23
-79.44
-98.51
-117.98
-132.82
-138.19
-131.46
-113.79
-89.88
-66.77
-48.56
-36.70
-29.12
-21.73
-10.92
4.74
24.15
45.00
64.93
83.07
99.26
113.57
125.52
133.95
137.75
136.41
130.54
121.75
112.70
104.78
98.82
94.74
91.67
88.51
84.66
80.06
75.37
71.65
69.58
69.36
70.44
72.06
72.46
70.47
65.39
57.12
46.13
33.18
19.18
5.06
-8.36
-20.47
-30.47
-37.87
-42.40
-44.11
-43.42
-41.10
-38.17
-35.65
-34.52
-35.19
-37.74
-41.96
-47.30
-53.03
-58.39
-62.73
-65.56
-66.78
-66.31
-64.38
-61.43
-57.92
-54.32
-50.94
-47.93
-45.32
-43.19
-41.19
-39.27
-37.54
-36.15
-35.42
-35.59
-36.91
-39.59
-43.90
-49.15
-54.78
-60.12
-64.45
-67.15
-67.84
-66.49
-63.52
-59.93
-55.97
-52.20
-49.09
-46.68
-44.42
-41.16
-35.05
-23.45
-9.87
5.15
21.34
38.27
55.32
71.99
88.30
105.08
123.79
145.76
171.81
199.89
225.19
241.46
243.42
229.00
200.14
161.92
120.29
80.86
46.86
19.47
-1.59
-17.65
-31.66
-48.02
-71.69
-105.79
-148.61
-193.27
-229.22
-246.73
-241.32
-216.21
-180.41
-144.38
-115.76
-97.14
-87.33
-83.78
-84.49
-87.94
-92.07
-93.22
-86.85
-69.61
-41.34
-5.55
32.42
68.17
100.11
129.42
158.10
186.80
213.81
235.91
249.82
253.84
248.46
236.21
220.56
204.67
190.48
178.42
167.78
157.33
145.91
132.92
118.50
103.49
89.17
77.02
68.34
63.89
63.49
66.04
69.64
71.92
70.41
63.00
48.48
27.02
0.37
-28.61
-56.89
-82.58
-105.58
-127.18
-148.76
-170.11
-188.92
-201.61
-205.59
-201.33
-193.02
-186.96
-188.40
-198.40
-212.80
-224.02
-224.59
-211.03
-185.67
-155.47
-128.54
-110.14
-100.41
-94.85
-87.39
-74.05
-54.98
-33.88
-15.24
-1.46
8.55
18.09
30.13
44.83
58.85
66.85
64.24
49.57
25.20
-3.81
-31.80
-54.28
-68.49
-73.03
-67.14
-50.16
-21.62
18.10
66.99
120.85
173.47
217.73
247.45
259.33
254.19
236.93
214.84
195.09
182.25
177.21
177.75
180.26
181.77
180.88
177.63
172.50
165.65
156.53
144.40
128.84
110.23
89.79
68.94
48.60
28.59
7.65
-15.71
-42.07
-69.93
-95.49
-113.76
-120.54
-114.62
-98.74
-78.88
-61.85
-52.38
-51.03
-54.01
-54.98
-48.01
-29.97
-1.48
33.84
71.24
106.50
136.50
158.74
170.52
168.95
151.72
118.61
72.32
17.85
-39.26
-94.85
-146.72
-193.57
-233.36
-262.46
-276.69
-273.46
-253.44
-220.67
-180.84
-139.21
-99.72
-65.31
-38.94
-23.57
-21.12
-30.72
-48.22
-67.49
-83.08
-92.46
-96.27
-96.57
-94.59
-89.91
-81.61
-70.23
-59.00
-52.83
-56.05
-69.87
-91.78
-117.02
-141.11
-161.97
-180.30
-198.26
-217.18
-235.95
-250.74
-256.40
-248.59
-225.70
-189.64
-145.24
-98.55
-54.74
-16.58
16.12
45.79
75.66
108.25
144.30
182.59
220.40
254.25
280.70
296.90
300.99
292.42
272.44
244.32
213.08
184.38
162.57
149.00
141.44
135.30
125.90
110.82
90.81
68.93
48.48
31.16
16.87
5.06
-3.43
-5.77
1.55
20.15
47.92
79.07
106.44
124.53
131.76
130.47
125.20
120.12
117.25
116.27
115.67
114.12
111.35
108.12
105.57
104.69
106.01
109.55
114.68
120.18
124.27
124.87
120.26
109.63
93.23
72.00
46.91
18.47
-13.05
-46.99
-81.91
-115.78
-146.68
-173.27
-194.47
-208.66
-212.92
-203.52
-177.44
-134.23
-77.12
-12.80
50.21
103.69
141.50
160.50
160.94
146.15
121.74
94.21
69.02
49.31
35.79
27.80
24.75
26.88
34.87
48.38
64.93
80.03
88.79
88.22
78.71
63.84
48.23
35.15
24.93
15.07
1.78
-17.94
-45.05
-78.13
-113.76
-147.64
-175.78
-195.18
-203.86
-200.62
-184.82
-156.83
-119.05
-76.36
-35.76
-4.63
11.73
12.01
-0.97
-22.05
-46.37
-71.10
-95.48
-119.12
-140.81
-158.24
-169.46
-174.43
-175.08
-173.93
-172.32
-169.86
-165.59
-159.51
-152.78
-146.26
-138.51
-125.44
-102.61
-68.89
-28.53
9.97
38.08
51.76
53.17
48.64
44.43
43.12
43.06
40.60
33.37
22.12
10.32
2.04
-0.12
4.19
13.45
25.51
38.54
51.52
64.22
76.76
89.19
101.04
111.34
119.00
123.31
124.50
123.74
122.56
121.92
121.70
120.72
117.50
110.96
100.95
88.13
73.81
59.66
47.41
38.60
34.21
34.32
37.87
42.95
47.17
48.15
44.00
33.69
17.28
-3.75
-26.66
-47.99
-64.61
-75.06
-80.47
-84.53
-92.50
-109.54
-139.00
-181.14
-232.60
-286.65
-334.38
-366.45
-375.39
-357.63
-314.66
-252.76
-181.22
-109.82
-46.19
5.69
45.77
76.90
103.02
127.63
152.62
178.10
202.85
225.50
245.30
262.45
277.26
288.92
294.93
291.47
274.93
243.52
198.41
143.69
85.15
28.81
-20.43
-59.20
-85.58
-98.61
-98.22
-85.53
-63.49
-36.99
-12.13
5.50
12.87
10.47
1.82
-8.60
-17.74
-25.43
-33.96
-46.05
-62.61
-81.43
-98.03
-107.73
-108.24
-100.90
-90.40
-82.69
-82.47
-91.36
-107.60
-127.28
-146.03
-160.47
-168.60
-169.38
-162.10
-146.41
-123.01
-94.42
-64.90
-38.99
-19.59
-6.74
1.98
9.68
18.28
27.75
36.70
43.74
48.25
50.04
48.70
43.32
33.51
21.03
10.27
6.86
14.52
32.07
52.74
66.90
66.39
48.46
16.64
-21.59
-58.65
-89.88
-114.29
-133.22
-148.49
-161.42
-172.84
-183.50
-193.53
-201.58
-204.05
-195.83
-172.37
-132.10
-77.90
-16.02
46.13
102.70
151.01
191.70
227.40
260.81
292.94
322.12
344.08
353.09
343.97
314.54
267.39
210.14
153.63
108.29
80.41
69.83
70.42
73.50
72.09
63.89
51.46
39.68
32.36
30.22
31.30
33.05
34.73
37.94
45.14
57.48
73.66
90.18
102.99
109.62
109.76
104.66
95.59
83.11
67.55
50.34
34.44
23.69
21.02
26.75
38.00
49.71
56.54
54.79
43.30
23.33
-1.93
-28.11
-50.39
-64.30
-67.31
-60.45
-49.36
-42.95
-49.45
-71.87
-105.33
-138.65
-159.52
-160.82
-144.11
-118.42
-95.40
-83.38
-84.63
-96.73
-116.36
-142.38
-175.97
-217.85
-264.93
-309.30
-340.72
-351.33
-339.39
-309.67
-270.57
-229.83
-191.22
-154.12
-115.31
-71.54
-21.58
33.27
89.77
143.82
191.59
230.40
259.25
279.08
292.41
302.45
311.70
321.07
328.97
331.86
325.84
308.24
278.88
240.31
197.23
155.32
119.93
94.66
80.20
73.74
69.53
60.42
40.07
5.02
-44.20
-103.36
-165.97
-224.97
-274.35
-310.07
-330.02
-333.89
-323.14
-301.04
-272.63
-244.23
-222.33
-211.85
-214.50
-227.22
-241.99
-247.83
-234.36
-195.77
-133.45
-55.72
25.19
97.61
154.17
193.38
218.51
234.84
246.93
257.15
265.72
271.79
274.76
274.92
273.37
271.78
271.60
273.51
277.23
281.72
285.64
287.89
287.84
285.02
278.72
267.85
251.58
230.14
206.09
184.16
169.30
163.84
165.60
168.40
164.49
147.72
115.33
68.70
12.18
-48.95
-110.07
-167.78
-219.63
-263.70
-298.86
-326.28
-348.37
-367.72
-386.43
-406.31
-429.06
-455.54
-484.66
-512.44
-535.14
-547.44
-543.62
-519.42
-474.50
-412.35
-337.80
-254.21
-163.18
-72.63
7.74
69.11
106.81
121.16
117.64
106.51
99.89
106.86
119.69
125.04
111.93
78.06
27.66
-32.97
-98.12
-163.86
-228.85
-306.30
-407.35
-532.99
-671.74
-808.08
-930.61
-1034.39
-1119.15
-1109.33
-962.21
-693.30
-372.49
-71.13
174.77
361.45
499.68
602.42
679.73
724.78
734.74
712.56
670.46
622.84
578.90
541.32
508.56
477.44
438.45
385.98
321.62
254.93
196.77
153.56
126.49
113.44
111.27
110.85
104.79
90.45
71.22
52.39
37.46
27.33
21.58
19.82
18.82
16.06
10.42
2.49
-7.06
-18.11
-30.04
-40.72
-46.37
-44.12
-32.78
-13.30
12.15
40.67
67.92
91.35
107.26
111.87
102.84
80.92
50.62
19.47
-4.88
-17.82
-19.14
-12.72
-3.64
4.45
10.71
16.08
21.95
28.82
35.27
39.25
38.80
33.42
24.45
15.07
9.14
9.90
18.61
33.51
50.65
65.10
73.25
74.24
70.20
65.03
62.66
67.13
79.99
101.05
128.80
160.73
193.39
222.58
243.77
253.45
249.95
233.41
205.44
168.06
123.27
73.29
21.47
-27.41
-67.67
-94.56
-106.65
-106.86
-101.77
-99.54
-106.99
-127.38
-159.32
-197.16
-232.46
-256.23
-261.46
-245.39
-210.48
-163.57
-113.13
-65.53
-22.19
20.60
68.85
126.36
190.75
252.94
300.55
323.75
320.09
295.54
261.04
227.10
199.17
176.43
154.14
127.85
96.64
63.49
33.12
8.67
-9.92
-25.80
-43.14
-65.03
-92.58
-124.90
-159.96
-195.45
-229.54
-260.42
-286.08
-304.13
-311.87
-306.66
-286.40
-250.61
-201.71
-146.38
-93.23
-49.65
-18.73
1.54
16.27
30.11
44.21
54.80
53.43
33.13
-7.60
-63.57
-125.68
-185.25
-236.53
-276.93
-306.91
-331.35
-354.81
-379.52
-404.02
-424.32
-436.14
-436.33
-422.96
-396.79
-364.41
-333.01
-308.33
-293.58
-290.78
-301.89
-327.95
-366.19
-382.38
-349.45
-259.13
-129.23
9.94
133.55
229.20
290.77
326.67
342.24
336.20
308.36
263.06
210.34
161.71
127.26
111.17
111.79
121.79
129.94
128.19
114.40
92.75
70.29
53.26
44.76
45.70
54.67
68.43
85.30
105.66
131.37
163.13
198.07
229.32
248.68
249.31
228.14
187.28
132.19
68.87
1.65
-66.75
-133.32
-192.78
-238.21
-263.82
-267.94
-254.60
-232.08
-209.33
-191.95
-180.97
-173.74
-166.46
-156.42
-143.00
-127.37
-111.21
-95.69
-80.55
-65.04
-48.59
-31.23
-13.63
3.28
18.57
31.51
41.65
49.91
57.15
63.72
69.35
73.63
76.45
78.09
78.85
78.90
81.13
87.70
98.72
112.49
126.81
140.33
153.01
165.78
179.88
202.02
235.80
278.79
322.88
358.80
381.08
389.97
390.19
387.86
396.98
425.64
472.54
528.50
583.19
630.77
670.89
705.82
737.56
778.79
837.35
912.49
995.24
1074.58
1143.00
1198.14
1239.83
1192.02
1014.94
719.77
365.97
21.67
-270.22
-496.57
-661.58
-776.85
-855.52
-897.36
-903.06
-878.28
-835.70
-787.53
-741.21
-697.98
-657.22
-619.03
-575.49
-521.91
-459.07
-392.92
-329.86
-275.51
-229.54
-189.22
-151.73
-109.90
-60.65
-7.33
40.58
72.23
73.09
40.47
-15.53
-76.34
-121.96
-142.34
-139.38
-122.62
-102.52
-85.41
-71.79
-59.81
-47.95
-35.34
-22.14
-8.63
4.85
17.82
30.30
42.31
53.09
61.20
64.63
61.74
51.83
35.11
12.60
-12.86
-38.40
-61.97
-82.50
-100.55
-116.62
-129.32
-134.97
-133.42
-119.92
-93.46
-58.05
-20.77
10.93
33.74
50.24
70.43
100.42
142.93
194.28
245.17
290.29
326.35
352.77
370.64
379.94
378.92
366.34
341.09
303.54
256.15
201.79
142.56
85.55
35.55
-4.64
-33.10
-48.88
-51.50
-40.67
-17.37
16.07
55.98
96.72
132.18
156.99
167.66
163.28
145.77
118.73
86.74
54.41
24.88
0.03
-20.21
-36.75
-50.60
-62.42
-72.85
-82.52
-92.11
-102.68
-115.08
-132.38
-156.69
-188.13
-224.57
-262.69
-299.24
-331.86
-359.43
-381.35
-403.08
-429.21
-461.12
-496.02
-528.61
-553.70
-567.56
-568.47
-555.64
-538.52
-525.82
-521.70
-524.44
-529.08
-531.29
-529.39
-524.28
-517.10
-521.39
-547.82
-599.73
-672.34
-757.16
-847.41
-939.56
-1031.71
-1057.41
-975.56
-781.85
-514.84
-231.51
22.32
223.26
367.26
452.82
502.95
526.33
528.41
515.61
497.85
486.45
490.81
517.34
565.32
628.39
686.28
721.78
726.84
704.55
664.63
617.54
570.83
528.47
493.18
459.26
422.20
380.48
336.24
293.48
255.63
224.22
199.07
179.94
162.59
144.40
124.51
103.86
84.26
67.07
52.62
40.23
31.71
23.24
12.92
-0.02
-15.40
-32.57
-50.82
-69.57
-88.49
-107.12
-125.68
-143.26
-159.29
-173.53
-186.13
-197.53
-208.33
-219.08
-230.29
-242.69
-255.62
-268.34
-279.97
-289.51
-295.86
-297.88
-294.22
-283.21
-267.33
-247.62
-225.50
-202.62
-180.76
-161.53
-146.19
-135.45
-129.49
-128.05
-129.59
-132.40
-134.67
-134.72
-131.15
-123.10
-110.25
-92.96
-72.11
-48.56
-23.54
1.61
25.64
47.49
66.46
82.14
94.48
103.81
110.94
116.83
122.52
128.98
136.92
146.72
158.20
170.61
182.59
193.05
200.40
202.75
198.20
185.21
163.89
135.41
101.68
65.07
28.61
-5.07
-34.15
-57.65
-75.52
-87.42
-93.24
-93.23
-88.04
-77.29
-61.42
-42.01
-21.45
-2.68
13.70
28.07
41.04
53.17
68.45
89.03
113.79
139.12
159.29
174.34
186.43
197.83
210.55
233.28
270.60
320.11
374.14
420.29
457.69
489.73
520.04
551.91
598.84
667.52
753.22
842.53
913.97
964.15
996.83
1017.53
1033.61
1067.01
1130.70
1220.75
1318.15
1389.35
1422.51
1416.90
1378.58
1215.06
893.02
453.90
-5.72
-339.69
-559.25
-699.77
-789.51
-859.86
-921.58
-962.55
-972.68
-958.40
-926.25
-891.74
-854.50
-815.67
-781.14
-754.68
-725.22
-683.03
-626.67
-563.51
-512.30
-476.59
-453.76
-439.17
-426.59
-404.86
-368.89
-322.87
-276.56
-244.65
-228.77
-224.11
-223.98
-221.59
-209.75
-186.06
-153.46
-117.80
-87.45
-64.77
-49.38
-40.09
-35.31
-32.61
-30.44
-28.25
-25.77
-23.67
-21.07
-17.20
-12.24
-7.16
-3.55
-2.66
-4.73
-8.61
-12.63
-15.31
-16.12
-15.65
-15.21
-16.07
-18.65
-22.19
-25.14
-25.96
-24.01
-19.86
-14.87
-10.45
-7.26
-5.09
-3.23
-1.20
0.76
1.71
0.62
-2.94
-8.40
-14.42
-19.57
-23.00
-24.87
-26.11
-27.90
-31.03
-35.70
-41.49
-47.77
-53.95
-59.54
-64.12
-67.22
-68.40
-67.55
-65.28
-63.01
-62.68
-66.02
-73.76
-85.09
-97.81
-109.05
-116.16
-117.47
-112.44
-101.48
-85.64
-66.37
-45.54
-25.31
-7.72
6.10
16.55
25.85
37.43
54.63
79.23
110.33
144.04
174.33
194.85
201.14
192.54
172.89
149.64
131.66
126.35
137.53
164.51
202.98
246.78
289.66
326.40
353.03
367.03
368.07
359.25
347.44
341.80
350.14
374.65
409.52
442.02
457.13
443.54
397.96
325.75
237.83
146.05
59.38
-17.25
-81.97
-134.28
-174.06
-201.92
-219.92
-231.75
-241.79
-253.73
-269.36
-288.36
-309.11
-329.96
-350.42
-371.58
-395.98
-426.79
-466.50
-515.24
-569.46
-621.67
-661.90
-680.71
-672.45
-637.30
-581.13
-512.93
-441.51
-372.87
-309.61
-251.95
-199.65
-153.16
-113.31
-80.25
-52.43
-26.41
2.36
37.69
81.00
130.04
178.62
218.41
241.54
243.09
222.50
183.29
131.59
74.45
18.88
-28.52
-61.51
-74.66
-64.27
-29.58
26.07
94.88
165.22
223.39
256.14
253.88
213.91
142.55
54.46
-30.85
-94.52
-123.90
-115.75
-76.43
-19.25
39.22
83.24
101.31
88.60
48.30
-9.25
-69.23
-116.73
-141.03
-138.11
-110.33
-63.92
-5.91
57.55
120.58
176.27
216.63
234.68
228.11
201.65
166.40
135.40
117.71
114.53
119.52
122.89
116.64
98.06
69.74
37.22
6.01
-20.18
-39.45
-50.99
-54.72
-51.44
-42.78
-31.12
-18.63
-6.80
3.46
11.31
15.66
15.69
11.82
6.29
2.47
3.25
9.12
17.75
25.54
29.78
30.02
27.73
24.64
21.03
15.73
6.82
-6.52
-22.69
-38.08
-48.77
-52.47
-49.25
-40.97
-29.22
-15.39
-0.52
14.71
29.99
45.45
61.76
80.12
101.93
129.11
161.60
196.87
230.88
259.67
280.72
293.54
299.44
300.80
301.20
301.87
300.56
292.90
274.61
243.65
200.92
149.99
86.86
15.66
-53.89
-111.21
-149.71
-168.71
-171.39
-162.32
-146.20
-127.45
-109.14
-93.41
-82.88
-79.22
-82.48
-90.62
-100.15
-107.33
-109.73
-106.35
-97.33
-86.13
-76.64
-71.45
-70.51
-71.26
-69.77
-63.48
-52.21
-38.49
-26.12
-17.32
-12.97
-13.56
-20.01
-33.15
-54.43
-85.03
-124.16
-168.58
-205.14
-220.19
-206.86
-169.17
-117.66
-63.26
-12.88
31.51
70.26
102.25
127.14
141.90
143.19
131.61
110.07
81.52
48.16
10.05
-32.99
-79.54
-128.29
-187.56
-262.44
-347.86
-436.99
-520.17
-586.42
-625.72
-632.76
-609.45
-563.71
-504.72
-440.97
-378.97
-321.31
-267.84
-217.39
-169.75
-126.35
-88.89
-56.73
-27.80
-0.24
27.42
55.57
83.60
109.98
132.87
150.93
164.54
174.90
183.07
190.09
196.71
203.37
210.13
216.67
222.42
227.18
230.86
233.23
234.33
234.49
234.40
235.23
238.73
247.03
261.94
283.47
308.67
331.54
344.42
340.54
316.67
274.58
220.49
162.88
109.56
65.80
33.81
13.61
4.26
4.55
13.00
27.49
45.21
63.05
78.57
90.74
99.90
107.28
114.12
121.00
127.77
133.94
139.08
143.12
146.20
148.42
149.58
149.09
146.24
140.43
131.44
119.40
104.77
88.18
70.40
52.41
35.45
20.75
9.23
1.13
-4.37
-9.16
-15.75
-26.60
-43.21
-65.41
-91.12
-116.79
-138.35
-152.54
-157.90
-155.17
-146.89
-136.44
-126.89
-120.12
-116.40
-114.61
-112.78
-108.97
-101.87
-91.24
-77.82
-62.65
-46.35
-28.44
-7.58
17.42
46.33
76.74
104.51
125.27
136.22
137.19
130.49
119.76
108.38
98.54
91.04
85.76
81.90
78.17
72.55
62.65
46.50
23.65
-4.32
-34.29
-62.99
-88.64
-111.52
-133.16
-154.62
-174.68
-189.71
-195.03
-187.37
-166.91
-137.96
-107.64
-83.45
-70.76
-71.29
-83.07
-101.41
-120.20
-133.14
-134.71
-121.18
-91.44
-47.73
4.41
56.97
101.23
129.85
138.77
128.35
103.25
71.06
40.02
16.66
4.14
1.82
6.21
12.69
17.53
18.91
17.04
13.30
9.07
5.12
1.58
-1.58
-4.20
-5.87
-6.21
-5.21
-3.45
-1.88
-1.44
-2.70
-5.50
-8.96
-11.69
-12.24
-9.66
-3.95
3.83
11.85
18.10
21.23
21.06
18.79
16.42
15.96
18.43
23.42
29.30
33.93
35.62
33.84
29.37
23.88
19.21
16.81
17.36
20.73
25.76
30.11
30.37
22.89
5.17
-22.59
-56.73
-91.04
-118.83
-135.84
-142.08
-141.66
-140.48
-142.97
-149.65
-157.10
-160.22
-155.44
-142.93
-126.40
-110.86
-99.73
-93.03
-87.71
-79.90
-67.36
-50.76
-33.05
-17.39
-5.09
5.09
16.17
31.24
51.73
76.59
102.68
125.87
142.89
152.70
157.13
160.41
167.64
182.87
207.59
240.29
277.19
313.74
346.03
371.57
389.32
399.23
401.73
397.49
387.45
372.52
353.47
330.38
302.44
268.32
227.60
182.41
138.24
102.76
82.83
80.99
93.44
110.98
122.79
121.21
104.94
79.03
51.77
30.51
18.75
15.71
18.27
23.37
29.44
36.18
43.37
49.82
53.20
51.06
41.67
24.99
2.86
-22.07
-47.64
-73.52
-101.12
-132.21
-166.41
-199.34
-222.86
-227.92
-208.96
-167.35
-111.91
-55.95
-12.31
11.21
13.79
0.31
-22.01
-46.82
-70.42
-91.72
-111.18
-129.83
-149.16
-171.12
-197.56
-228.80
-262.04
-290.24
-303.33
-291.50
-249.67
-181.13
-97.93
-17.61
42.82
72.77
71.19
45.35
6.64
-34.38
-71.25
-101.79
-126.22
-144.82
-157.14
-162.56
-161.85
-158.34
-157.40
-164.84
-185.14
-220.50
-270.61
-332.72
-401.89
-471.25
-532.90
-579.53
-606.54
-613.52
-604.18
-584.78
-561.51
-538.53
-517.33
-497.72
-479.25
-462.17
-447.15
-434.41
-422.92
-410.47
-394.70
-374.28
-349.58
-322.39
-295.19
-269.95
-247.36
-226.80
-206.80
-185.92
-163.44
-139.66
-115.72
-93.03
-72.73
-55.20
-40.18
-27.03
-15.14
-4.24
5.55
13.98
20.92
26.53
31.32
35.81
40.32
44.78
48.83
52.26
55.33
59.00
64.69
73.73
86.71
103.12
121.41
139.63
156.34
171.44
186.20
202.76
222.85
246.63
272.23
296.14
314.60
325.14
327.79
325.06
321.15
320.47
326.38
340.45
361.97
387.76
412.29
428.67
430.76
415.91
387.06
352.89
325.13
313.82
322.78
347.47
376.73
397.66
401.28
386.01
357.50
325.35
298.41
281.56
274.81
274.72
276.97
278.45
277.96
275.47
271.11
264.16
253.48
238.42
219.89
200.67
184.46
174.12
169.91
168.99
166.19
156.02
134.84
101.94
59.61
12.21
-34.76
-75.67
-105.47
-120.95
-121.89
-111.64
-96.54
-83.84
-79.24
-85.21
-100.86
-123.14
-148.33
-172.86
-193.37
-206.44
-208.83
-198.51
-175.79
-143.89
-108.10
-73.94
-45.15
-22.46
-3.81
14.26
34.62
57.87
81.90
102.77
116.60
121.58
118.93
112.44
106.75
105.25
108.88
116.15
124.11
129.77
131.09
127.28
118.70
106.44
91.98
76.84
62.09
48.06
33.95
17.91
-2.60
-29.97
-65.27
-107.31
-152.09
-193.43
-224.54
-240.50
-240.28
-227.50
-209.15
-192.86
-183.81
-183.01
-187.55
-192.83
-195.10
-193.08
-187.83
-181.26
-174.66
-168.04
-160.60
-151.77
-141.84
-131.98
-123.60
-117.63
-114.33
-113.53
-115.00
-118.49
-123.62
-129.58
-135.20
-139.32
-141.31
-141.21
-139.34
-135.84
-130.28
-121.92
-110.31
-95.91
-80.19
-65.02
-51.60
-39.53
-26.61
-9.47
14.97
48.21
89.19
134.44
178.92
217.41
245.83
262.13
266.54
261.10
248.77
232.39
214.21
195.77
178.25
162.74
150.45
142.53
139.71
142.00
148.52
157.77
167.98
177.56
185.41
191.19
195.17
197.76
199.05
198.40
194.76
187.42
176.65
164.39
153.80
148.38
150.45
159.98
174.00
187.39
194.31
189.58
170.33
136.68
91.66
40.42
-11.44
-59.44
-101.16
-136.37
-167.60
-199.05
-235.40
-279.37
-329.58
-380.11
-421.74
-444.55
-441.00
-409.54
-355.59
-290.57
-228.36
-181.36
-157.71
-159.98
-185.31
-220.79
-249.93
-257.65
-237.87
-195.66
-142.14
-87.50
-37.39
6.58
44.30
75.30
98.03
111.15
115.40
114.08
111.71
112.36
117.92
127.58
138.85
147.83
151.02
146.85
136.00
120.62
103.04
84.76
65.53
46.01
25.41
2.85
-21.51
-46.44
-69.84
-89.58
-104.05
-116.18
-124.94
-130.37
-132.93
-132.43
-128.23
-119.01
-103.41
-76.82
-42.09
-2.90
35.87
68.13
91.82
105.63
109.48
104.39
91.80
72.45
47.89
20.15
-8.90
-37.62
-65.48
-92.47
-118.39
-141.82
-159.86
-167.03
-158.21
-131.47
-89.68
-40.88
4.77
38.80
57.42
61.94
57.90
51.38
46.21
43.21
40.73
36.66
30.18
21.78
12.74
4.71
-1.19
-4.57
-4.67
-0.32
9.78
26.06
46.66
67.09
81.49
84.46
74.76
56.16
35.73
20.41
14.02
15.89
22.48
29.88
35.85
40.67
45.67
51.38
56.73
59.76
58.90
54.63
49.47
46.60
48.93
57.09
69.00
80.46
87.09
85.54
75.41
59.24
41.02
24.47
11.33
0.77
-10.31
-24.51
-43.71
-67.51
-93.62
-118.92
-139.55
-151.37
-150.17
-133.56
-102.75
-63.96
-28.02
-4.12
1.88
-9.07
-29.36
-48.32
-57.73
-55.17
-44.54
-33.06
-27.16
-29.83
-38.82
-50.25
-57.39
-56.32
-46.10
-29.31
-10.59
5.39
15.46
19.43
19.29
17.85
16.31
14.12
9.57
1.50
-9.27
-20.20
-28.31
-31.95
-31.47
-29.42
-28.69
-31.30
-37.14
-44.30
-49.76
-51.02
-46.87
-37.82
-25.95
-13.75
-3.29
4.51
9.86
13.66
16.87
20.03
23.13
25.65
27.12
27.33
26.50
25.25
24.25
23.97
24.54
25.73
27.05
28.00
28.19
27.40
25.66
23.08
19.83
16.06
12.04
7.96
4.06
0.50
-2.68
-5.58
-8.43
-11.50
-14.99
-18.79
-22.75
-26.51
-29.89
-32.98
-36.14
-39.89
-44.68
-50.65
-57.28
-63.82
-69.10
-72.27
-73.11
-72.05
-69.98
-67.70
-65.55
-62.79
-58.32
-50.39
-38.02
-21.47
-2.15
17.92
37.37
53.67
67.01
79.14
93.26
111.78
135.31
162.71
191.65
220.11
247.57
275.84
301.63
323.35
340.07
351.14
355.40
349.72
328.87
287.28
222.51
137.34
41.11
-53.17
-132.13
-185.41
-208.05
-201.73
-174.43
-138.10
-105.16
-83.38
-73.49
-69.44
-62.06
-44.58
-16.63
15.33
41.57
54.27
51.24
35.55
12.67
-12.73
-38.41
-63.76
-87.82
-108.34
-121.96
-125.62
-118.15
-101.29
-79.25
-57.53
-41.08
-32.79
-32.63
-37.88
-44.32
-48.01
-46.81
-41.07
-33.02
-25.52
-20.70
-18.97
-18.99
-18.50
-15.41
-8.66
1.24
12.83
24.24
33.92
41.02
45.61
48.13
49.07
48.54
46.07
40.74
31.51
17.78
-0.01
-20.37
-41.10
-59.77
-74.59
-84.70
-90.48
-93.22
-94.45
-95.76
-98.03
-102.06
-108.09
-115.12
-120.43
-119.91
-109.57
-87.61
-55.89
-19.91
13.10
37.20
49.98
52.97
50.13
45.47
41.28
37.84
34.39
30.40
26.30
23.13
21.71
21.91
22.76
23.04
21.78
18.80
14.63
10.12
6.00
2.54
-0.50
-3.55
-6.98
-10.71
-14.26
-16.93
-18.04
-17.15
-14.14
-9.25
-2.93
4.28
11.87
19.63
27.68
36.26
45.25
53.60
59.24
59.60
52.79
38.75
19.70
-0.48
-17.72
-29.19
-33.92
-32.60
-26.70
-17.76
-7.13
3.78
13.34
19.95
22.68
21.76
18.57
14.97
12.44
11.49
11.62
11.56
9.79
5.04
-3.37
-15.26
-29.20
-42.42
-51.40
-52.89
-45.27
-29.43
-8.84
11.70
27.55
35.94
36.49
30.75
21.16
9.92
-1.54
-12.55
-22.72
-31.82
-39.74
-46.85
-54.14
-62.85
-73.41
-84.64
-93.43
-95.17
-85.78
-63.16
-28.25
14.92
60.84
104.44
142.00
171.31
190.71
197.95
190.53
166.56
125.74
70.14
4.15
-66.19
-133.92
-191.82
-233.24
-252.66
-247.10
-217.43
-168.33
-106.92
-40.41
26.30
91.60
153.80
210.62
258.95
295.05
315.25
316.70
297.95
260.05
206.65
143.57
78.27
18.02
-31.77
-68.31
-91.37
-102.45
-103.69
-97.69
-87.85
-77.80
-70.69
-68.33
-70.38
-74.18
-75.87
-71.98
-61.24
-45.51
-28.99
-16.04
-9.36
-8.83
-11.58
-14.09
-14.23
-12.76
-13.36
-21.15
-39.47
-68.26
-103.74
-139.37
-167.74
-182.30
-178.30
-151.34
-103.58
-41.62
23.88
80.21
116.31
127.30
117.06
97.49
82.72
81.89
95.21
113.96
125.88
121.94
102.58
73.56
43.79
19.75
2.28
-12.40
-29.15
-49.85
-70.59
-83.68
-81.25
-58.45
-18.28
28.40
66.61
83.10
71.84
37.02
-8.31
-47.64
-67.17
-61.37
-33.74
6.10
47.40
82.53
108.50
125.40
133.48
131.95
118.81
92.80
55.03
9.63
-37.22
-79.18
-112.85
-139.35
-158.38
-170.58
-175.16
-169.58
-150.19
-113.99
-60.80
4.15
69.48
120.83
145.35
136.13
94.12
27.48
-51.26
-125.39
-176.10
-192.77
-178.35
-144.73
-103.64
-62.18
-23.52
10.97
40.46
63.57
79.77
88.53
90.10
85.62
75.95
60.90
39.29
9.30
-28.43
-71.49
-114.73
-150.06
-168.66
-164.90
-139.38
-99.23
-55.21
-17.67
6.97
18.31
20.93
21.33
23.76
29.33
37.09
45.77
54.83
62.61
68.49
71.85
71.55
66.19
54.73
37.44
16.10
-6.25
-26.52
-42.25
-52.41
-57.40
-58.84
-58.18
-56.16
-52.51
-45.94
-35.24
-19.89
-0.75
19.91
39.11
54.18
63.55
67.26
67.25
65.99
65.81
68.04
72.80
79.49
87.48
97.04
106.84
117.88
131.83
150.56
175.84
208.95
249.87
296.18
342.41
380.62
402.85
403.20
380.56
339.19
287.11
232.94
182.77
138.96
100.87
66.91
35.15
4.63
-24.73
-52.67
-79.42
-106.08
-134.09
-164.21
-196.10
-229.26
-261.93
-291.05
-312.68
-323.41
-322.25
-310.72
-291.79
-269.71
-250.32
-238.24
-235.24
-239.14
-244.56
-245.66
-237.23
-215.31
-180.53
-140.73
-108.34
-96.81
-116.00
-168.76
-251.71
-354.55
-462.01
-540.62
-561.11
-511.25
-404.12
-268.91
-133.39
-16.55
67.78
126.80
168.83
199.08
221.93
241.92
264.17
292.75
325.75
358.27
385.89
405.23
415.33
418.92
421.17
421.98
432.84
450.43
466.59
472.45
460.61
428.18
378.04
316.98
253.80
195.61
144.55
98.44
54.99
13.12
-26.02
-60.49
-90.03
-115.30
-139.60
-167.61
-205.54
-256.78
-320.82
-393.09
-467.19
-537.75
-599.59
-651.15
-666.19
-625.52
-526.73
-388.28
-237.39
-95.43
16.69
105.24
175.80
230.63
266.44
279.88
270.43
241.02
197.45
145.30
93.25
48.03
15.22
-5.77
-19.25
-29.98
-40.47
-50.07
-57.34
-59.44
-56.17
-48.16
-38.71
-31.43
-28.88
-32.13
-40.34
-53.00
-67.97
-83.02
-94.20
-97.27
-88.38
-65.64
-33.54
4.27
40.37
66.82
77.30
70.10
48.68
20.52
-4.09
-17.36
-15.77
-1.48
20.53
44.71
67.07
85.82
100.52
110.87
116.17
116.43
111.99
104.77
97.65
93.21
93.03
96.81
102.75
108.42
112.26
113.24
111.69
109.10
106.41
104.07
101.50
97.34
89.88
78.08
61.28
39.79
14.70
-11.94
-38.22
-62.69
-84.27
-103.72
-119.94
-132.14
-139.34
-140.57
-134.85
-121.37
-100.09
-72.03
-39.65
-6.31
23.71
46.60
59.47
61.22
52.62
35.72
13.93
-10.20
-34.80
-58.83
-81.43
-101.88
-119.67
-134.79
-147.63
-158.28
-165.60
-166.84
-158.61
-138.73
-108.32
-72.25
-37.67
-11.37
2.88
5.24
-0.60
-10.37
-19.52
-24.96
-24.71
-17.25
-1.03
25.21
61.21
104.08
147.19
181.85
199.98
197.59
176.65
144.72
111.93
86.82
73.15
69.40
70.99
73.32
74.33
74.68
76.46
80.92
87.60
94.54
99.71
102.25
102.63
102.46
102.30
101.59
98.28
89.96
74.63
51.86
23.24
-8.00
-37.96
-63.47
-82.91
-96.81
-106.51
-113.75
-119.57
-124.05
-126.44
-126.20
-123.55
-117.95
-112.76
-110.46
-112.45
-119.07
-129.90
-143.73
-158.37
-170.40
-175.48
-169.93
-151.86
-123.13
-89.19
-57.46
-34.28
-22.53
-21.07
-26.15
-33.71
-40.49
-45.19
-46.39
-42.82
-33.10
-16.47
6.47
33.28
60.47
85.08
105.43
121.71
135.32
148.31
161.56
176.77
193.86
210.38
221.90
223.35
211.20
185.41
150.34
113.56
82.91
63.11
54.24
52.54
52.84
51.50
46.72
38.95
29.44
19.09
7.91
-4.31
-17.34
-30.09
-41.08
-48.99
-53.08
-53.65
-51.60
-48.02
-43.68
-39.14
-34.75
-31.11
-28.97
-29.21
-32.49
-38.91
-47.71
-57.77
-68.11
-78.35
-89.02
-100.90
-114.99
-132.33
-153.92
-179.38
-206.96
-233.09
-252.57
-260.35
-252.55
-229.16
-194.96
-158.02
-125.54
-102.54
-90.70
-89.00
-95.85
-108.21
-123.55
-139.99
-155.46
-165.27
-164.95
-150.81
-122.59
-84.06
-37.90
13.47
68.13
125.02
185.82
251.02
318.38
382.58
434.76
469.32
483.14
475.49
431.96
349.25
235.65
108.39
-2.12
-91.34
-161.81
-217.28
-262.37
-297.53
-319.25
-324.68
-313.51
-288.49
-256.26
-220.60
-183.62
-145.93
-106.54
-61.85
-8.81
54.15
126.90
206.60
291.48
378.38
461.39
532.49
584.58
612.86
616.76
600.37
569.97
533.65
497.62
464.55
434.44
406.49
379.75
353.20
325.25
293.07
254.21
207.28
152.81
93.73
34.68
-19.55
-65.75
-103.32
-134.20
-161.39
-187.56
-214.00
-240.24
-264.58
-285.29
-301.73
-314.97
-327.80
-344.11
-367.77
-401.19
-443.79
-490.82
-533.64
-561.72
-565.91
-541.85
-491.46
-422.29
-344.43
-266.82
-194.72
-129.15
-68.14
-8.51
52.48
115.93
180.61
242.70
296.18
334.32
351.91
347.46
323.99
287.86
246.18
204.28
164.25
125.23
84.93
41.06
-7.52
-60.86
-118.04
-177.64
-237.33
-294.17
-344.79
-386.19
-416.52
-436.15
-448.07
-457.19
-468.38
-483.84
-501.34
-514.27
-513.93
-493.44
-450.90
-390.55
-321.09
-252.18
-191.00
-140.83
-101.56
-71.59
-49.76
-35.97
-30.53
-33.17
-42.33
-55.45
-69.68
-82.71
-93.03
-100.22
-104.41
-105.85
-104.68
-100.68
-93.33
-81.75
-65.23
-43.80
-18.04
11.11
42.03
72.80
101.63
127.49
150.75
172.95
195.88
221.17
249.64
280.47
311.19
338.66
360.22
375.44
386.31
396.19
410.25
434.03
470.24
516.45
564.63
602.44
618.40
604.60
557.42
482.92
396.26
315.96
258.37
232.83
238.67
269.03
310.83
344.68
358.04
349.69
325.10
292.46
258.30
224.95
195.89
172.22
145.84
113.37
78.81
46.64
20.51
2.81
-5.07
3.86
34.53
77.56
126.00
179.46
237.01
297.50
359.35
379.55
330.82
269.35
218.96
163.43
99.31
28.71
-41.19
-100.71
-142.16
-157.59
-148.21
-133.74
-130.00
-138.94
-154.17
-164.46
-160.80
-142.59
-113.73
-83.94
-70.47
-79.54
-102.53
-126.76
-142.68
-148.35
-149.24
-150.51
-155.46
-168.68
-189.27
-212.74
-237.66
-265.42
-296.80
-328.82
-352.29
-356.62
-338.32
-301.38
-256.75
-219.86
-204.15
-215.95
-252.71
-304.26
-357.28
-400.04
-423.25
-420.78
-390.66
-335.13
-260.40
-175.33
-88.98
-8.16
63.98
128.21
187.67
244.82
300.63
353.20
397.53
427.38
437.73
426.85
397.27
354.74
306.03
257.01
211.11
169.57
132.33
98.82
68.01
38.25
6.78
-29.87
-74.83
-129.36
-191.27
-254.49
-309.84
-347.56
-360.29
-345.70
-307.36
-253.37
-193.67
-136.99
-88.99
-52.28
-27.61
-15.05
-14.28
-24.07
-41.39
-61.07
-76.57
-81.53
-71.70
-46.41
-9.01
34.18
75.93
110.48
134.89
149.02
153.93
150.46
137.89
114.28
78.01
29.30
-29.10
-92.29
-154.39
-209.93
-254.54
-285.49
-302.15
-306.28
-301.95
-294.65
-289.71
-290.70
-298.65
-312.26
-329.05
-346.13
-360.59
-369.46
-369.74
-359.10
-336.85
-304.57
-265.97
-225.83
-188.39
-156.21
-130.08
-109.42
-93.34
-81.40
-73.56
-69.94
-70.51
-74.79
-81.79
-90.32
-99.06
-106.73
-111.95
-113.65
-111.36
-105.22
-95.83
-83.94
-70.40
-56.04
-41.62
-27.46
-13.72
-0.55
11.89
23.61
34.91
46.30
58.37
71.57
86.94
104.96
125.23
146.43
167.01
185.79
202.21
216.13
227.56
238.73
250.94
263.70
274.67
281.14
281.76
277.08
268.96
259.64
255.77
261.84
278.19
300.79
324.13
344.68
362.10
378.13
394.92
421.52
463.47
519.93
583.39
644.09
695.57
736.28
768.19
794.75
829.72
883.53
958.04
1044.51
1127.76
1193.48
1232.57
1242.43
1161.87
962.16
657.25
303.19
-34.41
-313.80
-523.44
-670.25
-766.77
-824.91
-844.61
-827.74
-782.93
-724.41
-670.55
-634.20
-620.30
-626.98
-648.72
-670.17
-677.90
-665.55
-636.56
-600.26
-565.52
-537.16
-513.93
-492.53
-463.25
-417.92
-353.24
-273.91
-190.66
-115.37
-56.16
-15.13
9.90
25.11
35.25
42.34
44.77
41.13
31.91
19.76
8.16
-0.48
-4.49
-4.20
2.55
10.54
15.78
16.22
11.73
3.12
-8.92
-24.19
-42.88
-65.11
-91.79
-122.57
-156.36
-191.46
-225.94
-258.14
-286.59
-312.57
-335.11
-353.04
-364.33
-366.81
-358.65
-338.73
-307.26
-265.80
-217.11
-164.57
-112.58
-65.22
-26.19
2.01
18.16
22.40
16.11
1.72
-17.50
-38.45
-58.33
-75.28
-88.15
-96.80
-101.90
-104.59
-106.13
-107.31
-108.43
-109.10
-108.37
-104.58
-96.12
-81.58
-60.19
-32.18
1.11
37.31
73.37
105.85
131.83
149.05
156.49
154.47
144.35
128.24
108.78
88.76
70.76
56.90
48.57
46.39
50.11
58.53
69.91
82.46
94.87
106.72
118.58
131.69
147.66
167.81
192.72
222.16
255.39
291.40
329.14
367.54
405.26
440.62
472.01
498.66
521.25
541.64
561.20
578.91
590.21
587.62
563.48
513.34
438.36
345.10
243.18
142.26
50.30
-26.59
-83.49
-116.56
-124.38
-109.88
-81.22
-49.98
-26.76
-16.53
-16.18
-16.04
-4.53
26.24
76.84
140.20
204.90
259.54
296.34
312.28
308.10
286.65
251.51
206.72
156.94
107.78
64.98
32.95
13.03
2.67
-3.89
-13.64
-31.88
-60.28
-96.22
-133.82
-166.29
-188.13
-196.40
-190.74
-172.58
-143.90
-107.82
-68.66
-31.78
-2.46
15.91
23.12
22.51
19.26
19.12
24.40
33.40
42.08
46.95
47.26
44.81
42.14
39.82
36.92
29.81
15.39
-5.01
-24.22
-31.87
-20.13
11.44
54.35
96.47
124.33
128.40
106.17
61.86
3.28
-62.00
-128.68
-204.49
-284.40
-354.51
-400.50
-416.42
-405.12
-373.69
-331.34
-283.98
-237.17
-194.28
-158.88
-134.22
-122.33
-125.57
-145.41
-177.74
-212.41
-236.78
-239.58
-217.85
-177.55
-130.04
-86.61
-53.86
-32.60
-19.75
-11.72
-5.64
-1.31
-0.01
-2.47
-7.64
-12.78
-15.35
-14.66
-12.55
-11.52
-13.93
-20.17
-28.41
-35.08
-36.18
-29.31
-15.03
2.92
19.12
28.43
27.84
17.09
-1.65
-24.30
-45.65
-60.39
-64.46
-56.44
-38.01
-13.12
13.13
36.03
52.37
60.81
61.33
54.55
41.25
23.00
4.97
-5.09
0.39
25.62
69.39
124.73
180.41
223.16
241.57
229.31
186.32
117.85
32.72
-58.86
-145.54
-213.04
-250.88
-257.20
-238.39
-203.81
-161.63
-117.17
-73.44
-32.28
5.13
37.55
64.51
86.57
105.47
122.70
138.25
150.72
158.17
158.65
150.35
132.70
105.36
71.93
36.60
3.18
-25.72
-48.60
-65.16
-76.15
-82.61
-86.18
-88.18
-90.36
-93.59
-97.97
-102.68
-106.46
-110.82
-113.64
-113.72
-110.52
-104.72
-96.70
-86.71
-74.90
-61.91
-48.97
-37.61
-30.35
-26.24
-27.42
-35.12
-49.56
-69.84
-93.41
-115.67
-129.86
-129.57
-110.88
-75.46
-29.87
16.12
53.22
76.15
84.79
83.43
77.24
69.99
62.25
52.97
40.90
25.99
9.58
-6.51
-20.82
-33.46
-44.60
-54.34
-61.08
-61.84
-53.28
-34.04
-6.40
23.50
47.58
59.29
56.79
43.89
25.71
6.69
-11.06
-27.09
-41.20
-51.95
-56.91
-54.60
-46.25
-36.05
-29.19
-29.33
-36.43
-47.34
-57.45
-62.81
-61.62
-54.44
-43.46
-31.16
-19.82
-10.85
-5.24
-2.98
-2.65
-1.82
2.47
12.37
28.80
48.57
69.15
88.96
107.86
126.41
144.66
161.33
173.96
180.44
179.73
172.26
157.86
134.47
98.91
49.26
-11.76
-75.66
-129.66
-161.76
-165.97
-145.87
-113.22
-82.75
-66.10
-67.44
-83.19
-105.07
-124.59
-136.62
-140.68
-139.32
-135.17
-128.72
-117.80
-99.26
-71.54
-36.60
0.45
33.46
58.12
74.02
84.44
94.70
109.64
131.15
157.39
183.74
204.83
216.45
217.34
209.33
196.40
182.76
171.06
161.69
153.28
144.17
133.80
123.25
114.49
109.00
106.48
104.65
100.24
90.60
75.00
54.85
33.10
12.84
-3.72
-15.91
-24.44
-30.81
-36.59
-42.86
-49.91
-57.13
-63.25
-66.76
-66.44
-61.85
-53.41
-42.15
-29.18
-15.25
-0.58
14.73
30.22
44.77
56.85
65.21
69.56
71.01
71.53
73.07
76.20
79.40
79.15
71.18
52.08
20.47
-22.59
-73.89
-128.70
-181.24
-225.06
-253.58
-261.13
-244.48
-204.14
-144.71
-74.03
-1.49
64.01
115.60
149.21
163.79
161.06
144.90
120.41
92.69
66.03
43.93
29.45
25.58
34.91
58.60
95.42
141.64
192.00
241.30
285.43
321.39
346.39
357.31
351.18
326.78
286.18
234.99
180.89
130.91
89.01
55.17
26.34
-1.58
-31.49
-63.85
-96.56
-125.94
-148.31
-161.31
-164.68
-160.12
-150.44
-138.35
-125.66
-113.05
-100.29
-86.83
-72.17
-56.05
-38.48
-20.03
-2.17
12.54
20.75
19.19
5.80
-19.69
-55.78
-99.98
-149.83
-203.27
-258.32
-312.01
-359.61
-394.66
-410.31
-401.20
-365.44
-305.54
-228.02
-141.98
-57.03
18.63
79.39
122.85
149.70
163.17
168.22
170.66
175.91
187.69
206.68
229.67
249.85
258.57
248.04
214.05
157.81
85.65
7.04
-68.48
-133.65
-184.64
-220.63
-242.51
-252.15
-252.28
-247.11
-242.31
-243.46
-253.35
-269.89
-286.08
-292.83
-283.42
-256.83
-217.90
-174.24
-132.12
-93.96
-59.41
-28.54
-4.66
5.94
-2.36
-30.41
-72.79
-120.34
-165.15
-204.26
-239.43
-273.28
-305.10
-328.99
-336.75
-322.96
-288.99
-243.28
-197.69
-162.04
-140.40
-130.62
-126.61
-122.58
-115.70
-106.55
-97.54
-90.93
-87.08
-84.28
-79.65
-69.60
-51.96
-26.32
6.49
45.30
89.00
135.87
182.76
224.75
257.78
279.87
292.81
301.82
313.21
331.32
356.29
384.24
409.69
430.21
446.68
462.24
479.33
497.33
512.36
519.40
515.46
492.61
449.44
390.03
322.76
256.94
198.90
150.28
109.04
71.95
36.35
2.25
-29.49
-58.09
-83.32
-105.49
-124.98
-141.87
-155.69
-165.86
-170.93
-170.01
-163.36
-152.57
-140.18
-128.71
-119.79
-113.73
-109.87
-106.31
-101.44
-94.46
-85.68
-76.24
-67.41
-60.09
-54.46
-50.29
-46.62
-42.62
-37.83
-32.22
-26.17
-20.07
-14.17
-8.35
-2.43
3.97
10.96
18.46
26.11
33.20
38.91
42.42
43.39
41.68
37.46
31.07
23.25
15.05
7.41
1.24
-2.83
-4.54
-3.86
-1.15
2.90
7.47
11.52
14.08
14.28
11.36
4.92
-4.98
-17.71
-32.03
-46.23
-58.47
-66.72
-69.19
-64.90
-53.88
-36.97
-15.68
8.11
32.45
55.38
75.30
91.00
101.32
104.96
100.97
88.92
69.32
44.81
18.58
-6.09
-26.65
-41.98
-52.44
-59.64
-65.49
-71.20
-76.63
-80.69
-81.91
-79.63
-74.43
-68.04
-62.81
-60.26
-60.67
-63.27
-67.18
-72.11
-77.57
-81.65
-80.37
-68.94
-44.58
-9.90
26.66
53.45
60.46
44.42
10.16
-32.01
-71.84
-103.17
-124.78
-139.23
-145.43
-139.88
-118.22
-79.14
-27.31
26.65
70.00
92.79
92.62
75.55
52.97
37.11
35.47
48.53
70.35
93.33
110.60
118.33
116.03
104.80
85.61
58.24
22.37
-20.55
-65.07
-102.86
-125.39
-127.26
-109.57
-80.17
-50.67
-31.71
-28.99
-41.41
-62.87
-85.71
-103.57
-113.18
-114.19
-107.63
-94.31
-74.54
-48.41
-16.54
19.34
56.48
91.78
122.50
146.61
163.19
172.55
175.86
174.75
170.85
165.55
159.87
154.73
151.19
150.07
150.99
151.49
147.09
133.05
106.92
70.47
29.69
-7.44
-34.17
-47.78
-50.04
-45.51
-38.80
-32.64
-27.33
-21.92
-15.87
-9.62
-4.21
-0.32
2.58
6.07
11.83
21.21
34.12
49.14
63.98
76.33
84.27
86.92
84.42
77.39
66.58
52.52
35.52
15.97
-5.27
-27.02
-47.69
-65.62
-79.56
-88.92
-93.87
-95.58
-94.93
-93.06
-90.90
-89.02
-87.59
-86.84
-87.08
-88.63
-91.72
-96.36
-102.33
-108.94
-115.46
-119.88
-120.34
-115.24
-103.23
-83.78
-57.35
-25.43
9.63
44.92
77.33
103.76
121.62
129.44
126.82
114.43
93.94
67.91
39.26
11.16
-13.74
-33.62
-47.41
-55.08
-57.46
-55.90
-51.76
-46.24
-39.73
-31.78
-21.62
-8.00
9.82
31.85
57.04
83.54
108.77
130.25
146.01
154.19
153.79
144.02
124.63
95.45
57.76
14.09
-32.01
-75.73
-115.35
-147.36
-169.39
-180.44
-181.72
-175.24
-163.21
-147.17
-127.16
-104.16
-79.30
-54.45
-32.05
-15.82
-9.30
-15.41
-35.82
-69.82
-116.09
-171.09
-228.91
-274.87
-298.35
-295.80
-271.86
-243.61
-220.16
-206.42
-202.67
-204.84
-206.72
-203.64
-190.66
-165.02
-125.22
-69.92
0.72
80.93
161.66
233.11
287.07
318.66
328.41
320.56
300.73
275.18
248.25
223.05
200.53
186.74
177.44
168.50
157.29
140.97
119.72
93.21
62.05
26.49
-13.21
-55.93
-97.91
-133.87
-164.39
-183.73
-187.35
-171.46
-135.37
-86.15
-32.82
16.29
69.19
129.43
204.46
288.11
374.67
456.41
525.62
576.72
607.47
618.13
583.82
496.94
365.47
210.97
55.63
-85.33
-204.62
-300.32
-373.30
-427.52
-462.62
-480.96
-484.84
-478.33
-466.10
-451.44
-435.88
-419.63
-403.38
-382.99
-356.82
-325.32
-291.86
-260.72
-235.03
-216.13
-203.77
-197.25
-191.20
-181.22
-164.68
-141.54
-112.97
-79.64
-41.17
3.40
54.58
116.19
189.73
273.20
360.63
444.00
515.92
571.48
608.55
627.60
635.59
639.79
645.10
652.62
660.68
666.89
669.36
666.64
628.42
537.62
394.27
215.95
27.52
-150.68
-307.76
-440.66
-550.39
-636.81
-701.28
-743.69
-763.46
-762.60
-745.29
-715.98
-677.97
-632.57
-580.00
-518.19
-445.44
-360.71
-267.45
-172.81
-85.15
-11.56
43.96
80.94
102.80
115.98
130.31
152.06
183.11
222.08
266.47
314.56
366.05
420.82
480.54
550.38
631.20
718.80
805.43
882.77
944.67
988.34
1012.01
981.87
881.63
715.62
508.66
292.19
89.06
-91.94
-240.11
-366.23
-475.16
-559.46
-610.29
-623.91
-604.86
-562.77
-508.88
-451.84
-397.41
-344.15
-286.94
-224.43
-160.69
-103.42
-59.55
-31.94
-18.72
-16.90
-21.01
-24.62
-24.50
-20.82
-16.08
-13.00
-12.89
-14.93
-18.07
-19.72
-17.33
-10.46
-0.81
8.74
15.78
19.38
20.54
20.74
22.43
27.53
36.70
49.51
64.63
79.60
90.88
95.99
90.41
72.68
44.76
11.72
-19.99
-45.02
-61.32
-70.00
-73.95
-75.99
-76.82
-75.56
-71.03
-63.28
-54.09
-46.74
-43.76
-45.55
-50.44
-54.93
-55.74
-51.25
-42.15
-30.89
-21.06
-15.48
-15.29
-19.64
-25.55
-29.00
-26.52
-16.91
1.96
27.19
53.15
73.86
85.33
87.46
83.68
79.00
77.24
79.68
84.48
88.55
88.94
83.57
71.15
50.87
22.01
-16.55
-64.13
-116.94
-167.32
-205.57
-223.15
-215.60
-184.03
-134.87
-79.78
-30.50
4.64
22.77
25.66
17.46
2.93
-13.67
-29.19
-44.68
-61.40
-78.88
-94.00
-102.91
-103.69
-97.64
-88.96
-83.52
-90.75
-116.91
-162.17
-220.32
-282.39
-341.07
-392.62
-436.40
-448.04
-412.57
-332.22
-226.73
-119.36
-24.66
52.42
112.42
158.01
192.41
214.89
225.37
226.26
222.36
218.67
218.01
220.77
225.91
231.91
234.50
230.23
218.26
200.36
179.20
156.61
133.25
110.38
88.90
67.76
46.22
24.85
5.42
-10.15
-20.85
-26.87
-28.93
-28.23
-26.75
-26.09
-26.92
-28.94
-31.48
-33.87
-35.76
-36.84
-36.99
-36.37
-36.84
-37.41
-37.24
-35.86
-33.24
-29.72
-25.91
-22.60
-20.66
-18.81
-18.72
-21.31
-26.76
-34.60
-45.63
-57.84
-69.05
-77.47
-81.71
-80.97
-74.73
-62.85
-45.57
-20.54
9.74
42.61
75.36
105.41
130.26
148.04
158.27
160.93
156.67
146.29
130.93
111.23
87.35
59.13
28.07
-4.14
-35.39
-63.25
-86.10
-102.77
-113.53
-119.75
-123.31
-126.03
-129.55
-135.21
-143.54
-153.75
-162.70
-165.77
-158.23
-137.57
-105.47
-67.85
-32.82
-7.35
5.22
6.28
-0.14
-9.70
-19.62
-29.36
-39.42
-49.81
-59.23
-65.94
-67.53
-63.06
-53.00
-38.70
-21.78
-3.20
16.73
38.12
60.28
82.41
103.02
120.27
132.52
138.84
139.41
135.42
128.60
120.67
113.00
106.06
99.73
93.53
87.01
80.07
72.93
65.96
59.58
54.08
49.44
45.47
41.83
38.26
34.65
31.07
27.66
25.04
23.09
21.79
21.13
20.90
20.94
20.99
20.80
20.13
18.84
17.27
15.28
13.05
10.80
8.85
7.44
6.71
6.68
7.32
8.50
10.04
11.69
13.07
13.69
13.05
10.86
7.17
2.39
-2.70
-7.19
-10.36
-11.88
-11.98
-11.28
-10.55
-10.20
-10.21
-9.98
-8.67
-5.69
-0.93
5.11
11.56
17.51
22.71
27.36
32.33
38.64
46.58
55.97
66.31
77.02
87.27
95.87
101.21
101.87
97.41
88.53
77.78
68.45
62.72
59.93
56.77
49.24
35.18
15.71
-5.97
-25.90
-41.54
-53.17
-63.84
-76.75
-92.91
-110.77
-123.68
-128.96
-127.54
-123.12
-119.59
-119.97
-124.74
-131.65
-136.84
-136.61
-128.91
-112.07
-84.74
-47.09
-4.37
33.38
54.44
50.34
19.09
-34.84
-101.66
-170.13
-221.23
-239.73
-222.37
-179.75
-126.87
-73.97
-25.14
19.00
58.05
91.06
115.50
129.54
133.89
132.50
130.58
131.80
137.32
145.79
154.59
159.68
157.57
146.91
129.13
107.15
83.54
60.89
40.35
22.16
5.47
-10.56
-25.94
-39.44
-49.52
-55.22
-56.51
-54.45
-50.38
-45.91
-42.32
-40.17
-39.07
-38.33
-37.31
-35.63
-33.42
-30.97
-28.68
-26.92
-25.87
-25.36
-25.22
-25.27
-25.41
-25.63
-25.99
-26.46
-27.02
-27.74
-28.46
-29.31
-30.37
-31.72
-33.34
-35.24
-37.35
-39.60
-42.08
-44.63
-47.49
-50.91
-55.09
-59.93
-65.15
-70.28
-74.62
-78.65
-80.78
-80.16
-76.28
-68.74
-57.20
-41.44
-21.63
2.50
28.90
55.76
81.00
102.69
119.57
131.49
139.21
144.02
147.32
149.77
151.45
151.37
148.19
140.33
127.29
109.67
88.79
66.44
43.74
21.42
-0.16
-21.74
-44.40
-68.84
-94.93
-120.73
-142.19
-154.17
-152.49
-134.53
-102.22
-61.80
-22.04
8.05
21.99
17.35
-3.50
-34.57
-67.56
-94.89
-111.19
-114.30
-105.24
-86.95
-62.97
-35.65
-7.74
19.32
43.96
64.62
80.22
90.67
97.22
101.86
106.31
111.60
117.49
122.72
125.80
125.77
122.44
116.51
109.20
101.50
93.48
84.48
73.28
58.56
39.60
16.90
-7.79
-31.83
-52.40
-67.13
-74.76
-75.53
-70.93
-63.16
-54.31
-45.91
-38.54
-32.52
-28.08
-25.63
-26.17
-30.98
-41.00
-56.41
-76.80
-100.35
-126.15
-152.12
-174.67
-189.19
-191.41
-179.65
-156.07
-126.89
-99.98
-81.77
-74.73
-76.95
-83.76
-90.26
-93.87
-93.11
-87.97
-78.50
-64.13
-44.01
-18.01
12.39
44.56
74.68
99.97
119.02
131.81
139.48
143.53
145.17
144.90
142.64
138.05
131.19
122.52
112.90
103.50
95.25
88.62
83.47
79.12
74.84
70.20
65.60
60.89
56.46
52.68
49.69
47.42
45.59
43.90
42.16
40.43
38.80
37.60
37.11
37.28
38.03
39.05
40.29
40.72
39.52
35.86
29.17
19.17
5.87
-10.24
-28.24
-46.79
-64.41
-79.51
-90.66
-96.66
-96.88
-91.25
-80.38
-65.42
-48.07
-30.36
-14.31
-1.49
7.09
11.16
11.24
8.44
4.06
-0.82
-5.45
-9.75
-13.52
-16.87
-19.64
-21.26
-20.91
-17.91
-12.29
-4.85
2.70
9.21
13.58
15.60
16.14
16.78
18.96
23.15
28.51
32.82
34.95
34.04
30.68
27.08
26.27
31.09
43.45
63.83
87.36
111.78
132.93
145.16
143.45
125.88
95.10
58.04
24.97
-0.77
-17.97
-29.23
-39.52
-53.71
-74.47
-101.22
-128.92
-150.51
-159.90
-153.26
-131.92
-101.65
-70.13
-43.96
-26.14
-15.91
-10.56
-7.83
-6.33
-6.55
-9.32
-14.27
-19.43
-22.18
-20.69
-15.36
-8.63
-3.12
-1.07
-2.99
-7.65
-12.76
-16.06
-16.35
-13.98
-10.57
-7.93
-7.40
-9.34
-13.05
-17.22
-20.52
-22.28
-22.68
-22.60
-23.08
-24.91
-28.35
-33.05
-38.29
-43.27
-47.28
-49.92
-51.04
-50.69
-48.76
-45.13
-39.69
-32.46
-23.69
-13.86
-3.74
5.81
14.02
20.27
24.28
26.11
26.08
24.63
22.27
19.37
16.22
13.01
9.89
7.05
4.85
3.62
3.61
4.82
7.01
9.76
12.60
15.14
17.13
18.72
20.06
21.16
21.76
21.24
18.79
13.72
5.84
-4.36
-15.32
-25.23
-32.59
-36.72
-38.18
-38.42
-39.12
-41.37
-45.06
-48.35
-48.74
-44.02
-33.40
-17.74
0.79
20.08
39.59
57.90
76.87
99.66
129.39
167.12
210.95
256.19
296.57
325.55
337.38
328.44
297.55
247.05
182.93
114.75
53.72
9.40
-14.07
-20.32
-18.93
-21.41
-36.12
-65.85
-107.92
-157.12
-209.00
-261.61
-314.51
-365.47
-408.51
-429.20
-413.30
-354.83
-262.07
-155.10
-56.37
19.04
67.73
95.60
112.27
124.53
134.04
138.29
134.75
123.50
107.87
92.87
82.89
79.93
82.61
86.96
88.49
84.98
77.01
67.47
59.87
56.89
59.58
66.87
77.92
88.85
96.63
98.93
94.01
80.84
59.66
32.55
3.03
-24.89
-48.09
-64.69
-74.54
-78.61
-78.16
-74.06
-66.77
-56.94
-45.88
-35.74
-28.43
-25.13
-25.71
-28.82
-32.43
-34.60
-34.28
-31.53
-27.41
-22.94
-18.86
-15.23
-11.50
-6.81
-0.53
7.26
15.82
23.95
30.62
35.17
37.46
37.80
36.84
35.46
34.69
35.48
38.47
43.68
50.47
57.81
64.78
70.98
76.60
82.10
87.84
93.74
99.28
103.83
107.12
109.46
111.67
114.64
118.86
124.25
130.15
135.50
139.06
139.53
135.55
125.71
108.76
84.19
52.73
16.67
-20.56
-55.41
-85.26
-109.04
-127.14
-140.61
-150.30
-156.53
-159.46
-159.77
-158.95
-158.89
-160.77
-164.17
-167.09
-166.89
-161.88
-152.36
-140.63
-129.75
-121.92
-117.21
-113.71
-108.87
-100.90
-89.85
-77.31
-65.42
-55.53
-47.54
-40.05
-31.16
-19.84
-6.18
8.62
22.93
35.36
45.09
51.92
56.10
58.21
58.31
56.69
54.08
51.81
51.44
53.93
59.20
66.08
72.76
75.94
73.12
63.32
47.89
29.67
11.63
-4.36
-18.14
-31.20
-48.45
-74.78
-113.90
-166.22
-228.33
-293.62
-353.01
-396.14
-413.56
-402.17
-364.06
-307.48
-244.08
-186.86
-147.76
-134.85
-150.03
-170.23
-173.35
-144.78
-87.06
-14.18
59.12
123.34
174.81
213.93
242.89
259.19
263.90
257.16
240.95
218.91
194.73
171.41
151.00
133.27
114.54
95.36
76.28
60.46
52.94
58.73
80.75
118.14
163.58
205.70
235.08
247.27
245.18
236.78
230.63
231.38
237.45
238.73
224.08
188.39
134.50
71.33
8.73
-46.89
-94.01
-135.06
-177.84
-227.48
-282.95
-338.53
-388.10
-428.97
-462.50
-492.25
-494.27
-454.47
-377.02
-282.14
-189.49
-108.29
-39.77
16.97
62.29
95.87
113.79
115.10
104.13
89.32
78.80
76.89
82.75
92.64
100.96
98.83
80.26
45.18
-0.11
-45.91
-81.67
-98.96
-93.87
-68.65
-33.92
-3.89
8.41
-4.71
-46.14
-111.45
-188.46
-260.49
-311.98
-334.43
-327.51
-297.63
-254.47
-207.55
-163.55
-125.71
-94.83
-70.52
-51.98
-37.43
-23.98
-8.25
12.48
39.08
69.94
101.53
130.03
152.87
170.13
184.56
200.57
222.29
251.39
285.32
316.93
336.37
334.73
308.17
260.32
201.80
146.74
107.98
93.00
102.38
131.06
171.15
214.86
256.00
290.24
314.53
326.56
324.61
307.84
276.45
231.83
176.52
113.89
47.43
-19.82
-85.78
-149.29
-209.50
-265.01
-313.39
-351.30
-375.32
-383.23
-374.77
-351.78
-317.57
-275.67
-228.82
-178.36
-124.77
-69.03
-14.05
34.85
70.69
87.57
83.81
64.01
38.09
17.44
10.00
17.04
33.49
50.99
62.31
64.33
58.21
47.33
34.41
20.34
5.21
-9.22
-18.94
-19.14
-7.14
15.44
42.93
68.77
89.17
105.02
121.36
141.63
163.41
177.92
174.91
149.40
105.79
56.42
15.63
-4.85
-2.68
15.08
37.13
54.88
66.52
75.89
88.40
107.14
135.75
174.76
221.79
272.37
321.64
364.95
397.09
411.92
403.57
374.32
330.50
280.78
234.74
202.47
193.10
211.47
255.89
284.92
266.72
193.07
83.71
-31.94
-132.74
-210.28
-265.27
-302.90
-329.11
-342.85
-340.41
-322.93
-294.87
-261.93
-228.73
-197.81
-169.45
-142.53
-111.41
-71.95
-24.24
23.34
61.82
84.78
90.36
81.16
62.68
43.75
31.56
29.20
35.57
47.58
61.43
73.52
80.68
80.50
73.19
60.48
44.58
27.38
10.15
-7.04
-25.27
-46.16
-71.12
-100.31
-133.01
-167.78
-202.57
-234.21
-258.98
-273.33
-275.29
-265.86
-249.26
-232.08
-221.34
-222.20
-236.58
-263.59
-300.68
-344.93
-393.43
-442.40
-486.48
-518.68
-531.83
-520.82
-484.73
-427.33
-355.91
-278.83
-203.08
-133.08
-70.69
-16.30
30.20
68.99
100.52
126.09
148.15
170.07
195.14
225.25
259.83
295.49
327.15
349.80
360.32
358.58
347.21
330.43
312.51
296.65
284.65
277.25
274.54
276.15
281.18
287.99
294.34
297.81
296.59
289.95
278.37
263.04
245.13
224.98
201.84
174.03
139.61
97.16
46.57
-10.31
-69.33
-124.42
-169.00
-198.27
-211.29
-212.02
-208.32
-209.25
-221.83
-249.07
-290.01
-340.96
-396.86
-451.76
-498.68
-530.04
-539.21
-522.85
-482.61
-424.95
-358.75
-291.99
-229.34
-171.65
-117.41
-64.56
-11.86
40.70
92.10
140.33
182.59
215.70
237.35
247.46
249.11
247.71
249.23
257.80
274.02
294.71
314.22
326.53
327.18
314.54
289.96
257.03
220.29
183.65
149.11
116.15
82.40
44.86
1.35
-48.59
-103.45
-160.11
-214.18
-260.25
-292.31
-304.95
-295.20
-264.36
-218.55
-167.25
-120.10
-83.60
-59.34
-44.79
-36.16
-31.49
-32.00
-41.09
-61.61
-93.12
-130.95
-167.21
-193.43
-203.37
-194.71
-169.19
-131.34
-86.61
-39.70
6.24
49.43
88.62
122.32
148.55
165.57
172.86
171.81
165.45
157.16
148.83
139.90
127.85
109.99
85.84
58.40
33.79
19.29
20.54
39.36
73.03
115.09
157.47
192.82
216.53
227.54
228.01
221.99
213.63
205.81
199.50
194.28
189.26
184.07
178.93
174.32
170.18
165.59
159.23
150.15
138.35
124.86
110.88
96.93
82.43
66.19
47.24
25.66
2.68
-19.92
-40.56
-58.69
-74.97
-91.36
-110.33
-133.92
-162.49
-193.90
-224.04
-248.59
-265.57
-276.62
-286.23
-299.01
-316.96
-338.13
-357.79
-371.08
-375.08
-369.20
-353.79
-328.81
-293.65
-248.56
-195.98
-140.64
-87.82
-40.93
-0.32
35.92
69.81
101.52
129.00
149.28
160.20
161.35
154.01
140.26
122.23
101.87
81.13
62.19
47.20
37.53
33.32
33.42
35.78
38.38
39.87
39.79
38.31
35.85
32.80
29.52
26.51
24.48
23.96
25.09
27.27
29.35
30.25
29.71
29.15
31.66
40.89
59.32
87.39
123.24
163.15
202.42
235.62
256.90
260.58
242.47
201.96
144.44
81.50
27.82
-4.16
-9.55
7.62
36.89
66.70
88.92
102.50
112.44
125.71
147.19
176.58
210.02
242.22
268.32
282.79
282.15
265.69
235.23
194.90
148.10
98.98
51.91
10.58
-25.59
-57.39
-84.87
-107.99
-127.27
-147.39
-172.61
-204.82
-243.49
-290.55
-346.21
-407.41
-468.39
-520.73
-558.68
-576.45
-569.48
-513.09
-402.20
-256.24
-108.32
5.52
85.81
137.62
163.78
164.77
140.55
91.04
24.84
-38.96
-79.69
-84.92
-59.65
-17.28
29.00
71.20
104.14
124.88
137.26
144.36
148.25
146.96
138.81
123.47
101.58
75.22
46.88
20.06
-2.88
-20.47
-33.92
-44.35
-52.02
-56.61
-58.57
-58.67
-57.13
-54.57
-51.33
-48.53
-46.87
-46.30
-46.33
-46.38
-46.07
-44.77
-42.41
-39.07
-35.76
-33.79
-34.26
-37.72
-43.90
-51.90
-60.23
-67.78
-73.65
-78.04
-81.96
-86.60
-92.99
-101.86
-113.72
-128.24
-145.08
-159.53
-165.81
-158.41
-134.15
-94.13
-43.84
8.49
55.04
90.77
114.82
129.92
139.76
146.60
150.51
150.69
146.80
139.82
131.73
124.69
119.51
115.62
111.64
106.05
98.48
89.58
80.75
73.40
68.71
66.79
66.76
67.98
68.21
66.27
61.83
55.33
47.74
40.24
33.75
28.59
24.52
20.71
16.49
11.36
5.37
-0.80
-5.99
-8.93
-8.91
-6.10
-1.65
2.95
6.26
7.51
7.01
6.07
6.43
9.67
16.68
27.32
40.29
52.94
61.50
61.93
51.55
30.34
1.66
-28.63
-54.13
-70.33
-76.30
-74.60
-69.94
-67.16
-69.64
-78.38
-91.71
-106.08
-116.50
-117.58
-104.81
-76.07
-32.18
23.91
88.19
154.40
215.28
263.90
294.17
301.72
284.93
245.89
190.74
128.57
68.79
17.08
-25.42
-61.10
-93.57
-125.91
-159.78
-195.34
-231.81
-259.01
-267.77
-254.47
-223.65
-184.45
-144.62
-108.27
-76.30
-48.15
-23.01
-1.78
14.10
24.11
29.26
31.81
34.00
37.43
42.72
49.74
56.94
62.13
64.41
63.70
60.26
54.12
44.90
32.11
15.77
-2.78
-22.48
-41.91
-59.43
-73.85
-84.86
-92.86
-98.77
-103.75
-109.28
-116.69
-125.63
-133.40
-135.30
-126.51
-104.62
-71.58
-33.57
1.27
25.91
37.43
37.72
31.71
24.53
19.22
16.25
14.35
12.70
11.40
11.53
14.17
19.64
27.17
35.16
41.63
45.13
45.60
43.73
40.88
38.23
36.81
36.92
38.04
39.30
40.12
41.20
43.16
45.57
46.94
45.64
41.11
34.72
29.62
29.43
37.44
54.05
76.22
99.75
121.93
142.99
165.38
192.20
219.45
243.27
258.36
258.81
240.70
203.71
151.24
88.51
21.18
-46.26
-109.20
-158.91
-188.19
-195.49
-185.04
-163.00
-134.99
-105.07
-76.15
-49.55
-26.06
-6.61
8.58
19.18
26.83
32.62
36.55
37.70
35.22
28.29
15.92
-0.11
-18.02
-35.48
-50.62
-62.33
-70.30
-74.59
-75.64
-74.39
-71.48
-67.79
-63.55
-58.84
-53.77
-48.56
-43.37
-38.31
-33.70
-29.37
-25.69
-22.64
-20.11
-18.05
-16.34
-14.84
-13.16
-12.66
-11.73
-9.52
-5.29
1.50
10.57
21.49
33.64
46.41
59.15
71.38
82.24
91.19
98.10
102.53
104.60
104.81
104.07
103.30
103.45
104.90
107.76
112.04
116.40
119.63
120.95
120.06
116.76
110.85
101.57
87.47
71.65
53.89
34.29
13.96
-4.83
-19.52
-28.04
-29.34
-23.18
-9.86
6.25
21.40
33.86
44.02
52.92
60.70
66.24
67.69
63.16
45.90
11.37
-40.38
-104.64
-174.78
-245.03
-311.50
-371.87
-424.62
-475.71
-529.87
-587.05
-642.31
-689.12
-722.92
-742.09
-747.10
-701.20
-587.79
-416.42
-219.43
-31.64
126.56
250.34
343.51
412.42
461.52
489.52
493.64
475.23
441.45
401.85
363.89
331.01
302.81
278.27
248.60
206.28
149.50
82.79
13.50
-52.72
-113.63
-170.04
-209.72
-228.02
-227.01
-214.64
-199.64
-187.19
-177.94
-168.67
-153.43
-125.80
-85.56
-36.85
13.39
57.89
91.18
111.13
119.47
120.77
119.99
117.89
113.11
104.26
91.83
78.30
66.80
59.56
57.07
58.04
59.20
57.43
51.43
42.10
31.71
22.67
16.44
13.25
12.07
10.80
7.65
1.85
-6.08
-14.79
-22.88
-29.48
-34.37
-38.02
-41.36
-45.06
-49.17
-53.11
-55.86
-56.45
-54.64
-50.01
-42.79
-33.63
-23.28
-12.51
-1.95
7.89
16.57
23.77
29.22
32.74
34.24
33.85
31.83
28.54
24.35
19.64
14.72
9.83
5.05
0.40
-4.13
-8.63
-13.18
-17.91
-22.74
-27.62
-32.47
-37.27
-42.00
-46.66
-51.27
-55.90
-60.70
-65.58
-70.55
-75.71
-81.21
-87.18
-93.76
-100.99
-108.91
-117.51
-126.34
-135.01
-143.16
-150.37
-156.21
-160.13
-161.45
-159.26
-155.15
-149.65
-143.14
-135.92
-128.19
-120.10
-111.75
-103.18
-94.48
-85.80
-77.04
-68.28
-59.70
-51.50
-43.78
-36.54
-29.70
-23.20
-17.08
-11.25
-5.73
-0.65
4.02
8.48
13.18
18.64
25.30
33.32
42.64
52.84
63.37
73.83
84.36
95.51
108.07
122.62
139.22
157.41
176.24
194.92
213.09
231.26
250.42
271.58
295.17
320.96
348.37
376.86
406.09
435.56
464.29
490.16
510.14
521.05
520.39
506.99
481.11
444.06
397.93
346.13
292.28
239.47
189.44
141.98
95.11
46.24
-6.46
-63.47
-122.25
-179.38
-231.01
-272.89
-301.08
-313.02
-309.51
-296.27
-282.61
-275.00
-274.79
-276.08
-267.87
-239.66
-187.06
-114.27
-32.20
46.75
117.32
180.53
241.60
305.56
374.02
445.23
516.33
585.56
632.02
640.98
604.56
525.82
417.86
297.69
179.88
73.35
-18.39
-95.14
-155.36
-198.45
-224.98
-237.22
-239.07
-234.93
-228.48
-221.99
-216.13
-208.12
-196.06
-180.82
-167.06
-162.04
-172.09
-198.76
-236.72
-275.15
-300.67
-304.42
-285.79
-252.52
-216.75
-189.25
-175.21
-173.47
-178.93
-185.06
-187.04
-182.48
-170.71
-152.36
-129.08
-103.52
-79.64
-61.98
-53.98
-56.51
-66.86
-78.50
-83.29
-74.04
-47.77
-7.41
38.57
79.57
106.41
114.70
105.84
85.43
60.41
36.18
15.46
-1.50
-16.27
-31.20
-48.37
-68.07
-87.96
-103.04
-107.62
-98.14
-75.30
-44.48
-13.28
11.92
28.51
37.69
42.46
45.02
45.29
42.24
35.57
26.78
18.66
13.67
11.95
11.11
7.54
-1.70
-17.17
-36.97
-57.32
-73.95
-83.22
-82.98
-73.16
-56.10
-36.33
-19.48
-10.87
-13.69
-27.93
-50.25
-75.07
-96.34
-109.07
-110.36
-99.56
-78.04
-48.78
-16.86
11.84
32.17
41.08
38.33
26.42
9.70
-6.75
-18.27
-21.35
-14.07
3.69
30.06
61.48
93.51
121.89
143.49
156.74
161.49
158.71
150.04
137.53
123.72
111.39
103.27
101.20
105.51
115.01
127.63
141.47
155.43
169.34
183.44
198.10
213.66
230.40
248.22
265.86
280.25
286.26
277.97
250.79
203.71
140.36
68.12
-4.48
-70.80
-127.61
-175.38
-216.76
-254.99
-292.14
-328.08
-360.11
-383.31
-391.55
-378.96
-342.05
-281.54
-203.11
-116.79
-34.66
32.05
75.09
90.61
79.15
44.16
-9.51
-76.61
-151.36
-226.45
-292.54
-339.55
-358.99
-347.04
-307.25
-250.93
-194.17
-152.23
-133.83
-137.50
-153.02
-165.74
-162.34
-135.87
-87.91
-26.74
37.34
95.91
145.70
186.91
221.67
252.62
282.19
312.34
344.66
380.58
419.41
457.90
488.15
499.75
483.90
437.25
362.95
269.89
170.67
73.65
-5.55
-53.83
-68.42
-56.96
-30.72
0.59
27.65
49.55
66.87
81.28
92.94
100.87
103.93
103.08
98.44
89.63
76.46
58.40
36.53
12.55
-10.66
-29.15
-38.99
-38.46
-28.64
-12.50
5.73
22.96
37.15
47.60
54.72
59.47
62.42
63.87
64.27
63.93
63.42
62.96
62.38
61.39
59.79
57.40
54.24
50.62
46.97
43.69
40.81
37.79
33.57
27.09
17.63
5.40
-8.49
-22.32
-34.49
-44.02
-50.97
-56.31
-61.70
-69.09
-80.11
-95.36
-113.52
-131.05
-142.69
-142.93
-128.02
-97.64
-55.21
-6.77
41.07
83.20
116.95
141.88
158.77
168.42
171.27
167.58
157.94
143.67
126.73
109.18
92.67
78.08
65.44
54.24
43.93
34.34
25.77
18.83
14.08
11.63
10.98
11.18
11.16
10.08
7.60
3.89
-0.63
-5.44
-10.22
-14.84
-19.47
-24.39
-29.88
-36.14
-43.23
-51.07
-59.50
-68.31
-77.36
-86.63
-96.19
-106.20
-116.91
-129.17
-143.63
-160.41
-179.21
-199.35
-219.70
-238.45
-253.39
-262.40
-264.91
-261.39
-253.14
-241.90
-229.53
-217.58
-206.93
-197.84
-190.19
-185.29
-183.80
-185.22
-188.25
-191.81
-195.53
-199.53
-204.04
-209.29
-219.40
-236.30
-258.21
-280.81
-300.56
-316.14
-327.95
-337.21
-345.22
-361.06
-389.02
-425.35
-461.19
-489.35
-507.48
-516.70
-519.37
-517.46
-524.81
-547.59
-579.83
-608.58
-624.60
-626.97
-620.35
-610.86
-603.36
-617.22
-660.81
-725.41
-791.13
-840.76
-866.14
-866.01
-842.86
-694.70
-394.18
-2.13
375.88
668.09
859.09
966.40
1015.85
1029.62
1023.01
988.33
922.42
834.98
745.08
667.85
608.48
566.38
538.71
522.44
502.02
468.79
425.93
385.20
355.97
341.09
339.05
346.92
361.85
373.47
376.59
368.76
355.16
341.13
329.43
321.27
317.78
320.70
328.22
340.04
357.42
381.61
409.49
433.67
445.78
440.41
417.35
379.84
334.26
287.56
245.28
209.49
179.74
155.05
135.26
120.86
112.03
107.68
105.29
102.06
95.36
83.48
66.12
44.63
21.83
1.53
-12.38
-17.07
-11.49
3.12
23.76
46.58
67.90
84.65
94.46
95.57
86.84
68.12
40.61
6.98
-29.18
-64.15
-95.32
-121.56
-143.20
-161.42
-177.37
-191.65
-204.03
-213.77
-220.02
-222.37
-221.05
-216.91
-211.25
-205.41
-200.65
-197.85
-197.39
-198.94
-201.41
-202.84
-200.73
-192.62
-176.99
-154.01
-125.84
-96.18
-69.09
-47.70
-33.45
-25.95
-23.85
-25.67
-30.51
-38.05
-48.07
-59.80
-71.72
-81.78
-87.93
-88.74
-83.72
-73.50
-59.62
-44.28
-29.84
-18.32
-10.99
-8.11
-9.08
-12.79
-18.15
-24.45
-31.47
-39.16
-47.31
-55.21
-61.53
-64.63
-62.84
-54.96
-40.61
-20.44
3.75
29.15
52.32
69.86
79.26
79.86
73.38
63.49
54.58
49.90
50.06
52.56
52.70
45.53
27.94
0.02
-34.84
-70.95
-101.75
-121.31
-125.20
-111.21
-79.65
-33.63
21.24
77.57
127.51
164.38
183.96
185.15
169.90
142.55
108.66
74.00
43.53
20.82
7.59
3.78
7.82
17.10
28.63
39.61
47.99
52.59
53.24
50.54
45.73
40.32
35.74
33.06
32.72
34.45
37.49
40.89
43.93
46.40
48.54
50.77
53.37
56.13
58.43
59.45
58.42
54.90
48.81
40.35
29.87
17.98
5.44
-6.71
-17.29
-25.39
-30.58
-33.14
-33.96
-34.28
-35.32
-37.99
-42.77
-49.74
-58.54
-68.52
-78.63
-87.71
-94.62
-98.65
-99.71
-98.35
-95.41
-91.72
-87.79
-83.77
-79.65
-75.46
-71.40
-67.71
-64.60
-62.13
-60.34
-59.38
-59.64
-61.64
-65.75
-71.85
-79.33
-87.11
-93.97
-98.85
-101.02
-100.18
-96.32
-89.76
-81.10
-71.17
-60.85
-50.81
-41.37
-32.35
-23.21
-13.29
-2.16
10.12
22.83
34.68
44.10
49.71
50.85
47.91
42.47
37.02
34.34
36.75
45.41
59.77
77.58
95.28
108.84
114.84
111.34
98.42
77.98
53.04
26.78
1.65
-20.91
-40.32
-56.41
-68.95
-77.67
-82.52
-84.04
-83.56
-82.79
-83.30
-86.02
-91.17
-98.73
-108.78
-121.48
-136.22
-150.88
-161.33
-162.32
-149.09
-119.16
-73.13
-14.09
53.54
125.11
195.74
259.95
311.28
343.22
351.19
334.72
298.48
251.18
202.56
160.13
127.02
101.95
81.08
60.34
37.20
11.07
-17.07
-45.26
-70.73
-90.05
-99.41
-95.69
-77.80
-47.89
-11.11
25.78
56.59
77.56
87.93
89.39
84.84
77.26
69.23
62.69
58.90
58.13
59.59
61.59
62.28
60.47
56.06
49.89
43.19
37.01
31.85
27.84
24.97
23.10
21.90
20.57
17.83
12.23
2.73
-10.81
-27.56
-45.89
-64.03
-80.51
-94.50
-105.77
-114.50
-120.98
-125.51
-128.34
-129.64
-129.65
-128.59
-126.76
-124.40
-121.65
-118.56
-115.04
-110.90
-105.91
-99.96
-93.06
-85.35
-77.06
-68.27
-58.86
-48.49
-36.78
-23.52
-8.89
6.59
22.19
37.27
51.43
64.32
75.32
83.15
85.76
80.82
66.62
42.88
11.38
-24.40
-60.10
-91.72
-116.57
-133.85
-144.63
-151.43
-157.58
-166.42
-180.30
-199.76
-223.15
-247.05
-267.29
-280.48
-285.17
-282.41
-275.33
-268.05
-264.31
-266.09
-272.69
-280.59
-284.14
-277.21
-255.25
-216.98
-164.85
-104.25
-41.54
17.81
70.35
114.67
150.61
178.52
199.01
213.31
223.69
233.44
246.42
266.11
294.65
332.04
375.62
420.08
458.39
483.47
490.31
477.60
448.02
407.10
361.10
314.94
271.21
230.46
192.33
156.65
123.87
94.84
70.07
49.45
32.30
17.64
4.46
-8.27
-21.51
-36.02
-51.98
-68.60
-83.86
-94.91
-98.72
-93.01
-76.84
-50.82
-16.95
21.78
61.60
98.46
128.35
148.00
155.70
151.81
138.81
120.61
101.34
84.16
70.59
60.53
52.90
46.38
39.99
33.21
26.13
19.36
14.00
11.26
11.74
14.60
17.30
16.20
8.25
-7.28
-27.91
-48.65
-64.12
-70.87
-68.77
-60.57
-50.21
-40.87
-33.82
-28.58
-23.79
-18.10
-10.56
-0.45
12.74
29.09
47.52
65.30
78.28
81.92
72.98
50.71
17.30
-22.89
-64.80
-103.97
-137.34
-163.31
-181.34
-191.51
-194.63
-192.14
-186.16
-179.09
-173.01
-169.07
-167.26
-166.68
-166.07
-164.41
-161.10
-155.85
-148.40
-138.34
-125.22
-108.89
-89.84
-69.30
-49.02
-30.90
-16.50
-6.82
-2.16
-2.10
-5.54
-10.74
-15.64
-18.34
-17.73
-14.02
-8.68
-3.78
-0.86
-0.04
0.30
2.82
10.00
22.88
40.61
60.73
80.27
96.84
109.22
117.26
121.37
121.86
118.72
111.81
101.34
88.23
74.20
61.26
51.07
44.43
40.96
39.51
38.71
37.62
36.03
34.39
33.17
32.44
31.66
29.85
26.19
20.44
13.16
5.38
-1.80
-7.62
-11.81
-14.64
-16.77
-19.11
-22.55
-27.80
-35.20
-44.56
-55.16
-65.93
-75.84
-84.17
-90.74
-95.59
-99.00
-101.41
-103.42
-105.71
-109.01
-113.85
-120.44
-128.66
-137.79
-147.06
-156.27
-165.94
-177.02
-190.45
-206.72
-225.63
-246.23
-266.00
-281.47
-289.40
-287.51
-275.01
-252.81
-223.53
-191.05
-159.92
-133.26
-112.63
-98.53
-90.32
-85.95
-82.06
-74.89
-61.46
-40.70
-12.01
24.42
67.08
113.76
162.21
210.40
256.15
298.63
328.55
336.67
321.58
289.44
248.80
206.24
165.65
128.65
95.33
65.08
38.02
16.04
1.19
-5.33
-4.39
1.50
8.63
13.04
11.56
4.15
-5.77
-14.85
-18.89
-15.66
-4.92
11.68
31.21
50.47
67.96
84.24
101.19
120.72
141.94
162.63
180.19
191.33
191.68
175.75
137.48
73.63
-13.07
-113.98
-213.50
-292.74
-338.61
-341.24
-305.37
-251.52
-201.76
-159.06
-119.54
-78.06
-31.26
22.28
71.40
109.35
133.32
145.33
150.40
151.50
149.47
143.33
130.84
111.31
85.89
56.87
28.75
7.00
-5.23
-7.23
-0.64
11.01
26.23
43.55
61.16
78.71
97.90
120.79
148.71
181.74
218.05
258.95
303.64
348.81
390.88
428.13
460.83
490.13
517.71
544.34
574.68
608.03
636.56
648.57
634.24
589.75
518.27
429.65
303.26
145.39
-17.16
-153.27
-246.71
-298.81
-318.85
-317.15
-299.95
-274.18
-240.96
-204.30
-171.15
-148.59
-140.21
-144.95
-164.40
-194.59
-229.56
-259.46
-279.02
-288.64
-292.02
-292.18
-289.37
-284.32
-276.38
-266.00
-252.22
-236.11
-220.58
-208.91
-206.48
-210.29
-217.72
-224.74
-228.37
-225.93
-216.75
-201.97
-183.86
-163.71
-133.00
-93.33
-47.34
1.77
50.66
94.30
130.93
157.78
172.85
176.18
167.43
148.20
120.46
84.39
42.77
-0.76
-43.69
-84.10
-120.78
-154.36
-184.06
-207.17
-219.68
-217.37
-198.36
-165.90
-127.14
-91.00
-65.66
-55.49
-56.75
-63.15
-68.18
-67.44
-59.70
-45.08
-24.06
2.81
34.83
69.70
104.06
134.39
157.59
171.55
176.84
175.84
171.69
167.30
164.40
162.76
160.87
159.81
156.97
151.76
145.07
138.16
131.81
125.79
118.79
109.28
96.23
80.12
62.87
46.92
34.61
27.70
27.57
34.97
49.60
65.53
77.71
80.63
70.43
47.47
17.07
-12.18
-32.00
-38.03
-31.11
-15.40
3.55
21.15
34.32
41.08
39.85
29.36
8.99
-20.86
-55.58
-90.01
-119.97
-142.95
-158.56
-168.16
-174.31
-179.88
-186.66
-194.02
-198.93
-196.28
-180.92
-150.45
-107.38
-58.85
-14.22
18.95
37.76
44.10
42.97
39.56
36.81
34.88
32.49
28.67
23.86
19.72
17.74
18.34
20.60
22.82
23.20
20.89
16.31
10.81
6.12
3.48
3.19
4.55
6.16
6.42
4.22
-0.76
-8.01
-16.31
-24.41
-31.33
-36.74
-40.92
-44.54
-48.33
-52.02
-54.44
-53.62
-47.46
-34.45
-14.60
10.19
36.46
60.10
77.78
87.64
89.81
85.90
77.86
67.58
56.42
45.59
35.97
27.54
18.24
3.85
-20.14
-55.41
-98.14
-139.41
-168.38
-177.37
-165.45
-138.67
-106.37
-76.35
-51.79
-31.23
-11.80
7.62
25.15
37.36
41.87
39.12
32.18
24.78
19.74
17.44
16.34
14.38
9.96
2.81
-5.98
-14.53
-21.20
-24.62
-24.55
-21.60
-16.48
-9.37
0.50
14.46
33.74
55.71
77.23
94.41
103.77
103.52
94.16
78.13
58.72
38.97
20.91
6.08
-4.59
-10.41
-11.00
-6.69
1.27
10.83
19.78
26.34
29.99
30.89
29.59
26.42
21.43
14.50
5.95
-3.25
-11.57
-17.15
-18.68
-15.79
-9.05
0.23
10.42
19.77
26.64
29.74
28.63
23.88
17.11
10.61
6.59
6.43
10.10
16.31
23.06
28.68
32.52
35.24
38.58
44.37
53.62
65.93
79.53
91.92
101.01
105.79
106.58
104.66
101.55
98.46
96.40
96.34
99.36
106.43
117.42
130.52
142.31
149.01
148.39
141.50
132.17
125.15
123.59
127.43
133.87
139.70
143.63
146.88
152.57
162.24
174.28
184.10
186.24
176.96
155.75
124.77
86.59
43.96
-2.21
-51.56
-103.12
-154.58
-202.94
-245.63
-281.78
-313.39
-342.77
-374.01
-410.59
-453.74
-501.11
-546.62
-581.58
-597.36
-589.24
-555.24
-499.62
-429.88
-353.89
-277.49
-203.68
-133.39
-61.85
-0.34
47.97
78.88
90.89
86.46
71.30
51.63
31.66
11.36
-13.98
-47.37
-89.61
-135.73
-175.80
-198.74
-197.04
-169.22
-120.51
-60.74
2.21
62.71
118.94
170.90
217.92
257.34
286.39
303.26
308.73
308.05
307.86
314.48
332.01
361.59
394.23
420.00
429.24
415.08
376.23
316.67
244.87
171.73
107.76
59.81
29.97
14.31
5.01
-5.71
-22.46
-45.10
-69.84
-91.96
-108.60
-119.09
-124.88
-127.87
-129.06
-128.13
-124.13
-116.61
-106.36
-95.52
-86.28
-80.36
-78.25
-78.81
-80.00
-79.58
-76.02
-69.24
-60.73
-52.69
-46.96
-44.07
-42.68
-40.45
-35.48
-27.26
-16.88
-6.07
4.22
14.13
24.36
35.06
44.87
50.96
50.40
42.10
28.20
14.06
6.08
9.22
24.68
49.11
76.29
99.87
115.70
122.91
122.60
115.44
100.44
75.25
38.42
-7.55
-55.41
-95.26
-118.66
-122.18
-108.69
-85.18
-59.59
-37.72
-21.28
-9.21
0.36
8.13
13.43
14.85
12.17
6.15
-1.49
-7.96
-11.23
-10.67
-7.64
-5.21
-7.30
-16.72
-33.29
-56.61
-84.46
-114.21
-143.00
-168.82
-190.77
-212.85
-234.76
-256.24
-277.68
-299.17
-320.44
-339.14
-351.06
-351.13
-335.75
-304.07
-259.82
-210.22
-160.53
-118.73
-90.18
-76.33
-75.33
-83.79
-97.76
-114.20
-130.67
-144.55
-153.68
-155.97
-150.41
-137.66
-119.70
-98.92
-77.61
-57.38
-38.80
-22.22
-7.46
5.62
16.80
25.71
32.39
37.30
41.34
45.83
51.78
60.03
70.88
84.16
99.39
116.17
134.22
153.34
173.22
193.13
212.13
229.11
243.16
253.86
261.56
267.47
273.50
281.76
293.67
309.30
326.83
342.74
352.91
353.93
344.38
325.25
299.45
270.64
241.99
215.52
191.95
171.12
152.56
135.82
120.66
107.01
94.81
83.83
73.46
62.68
50.35
35.57
17.82
-2.83
-25.82
-50.10
-74.07
-95.72
-113.11
-125.12
-132.14
-135.77
-137.97
-139.73
-140.45
-138.18
-131.02
-118.22
-100.58
-79.63
-56.22
-29.94
0.41
35.33
73.11
109.74
140.09
159.98
167.82
165.14
155.64
143.62
132.69
125.07
121.29
120.33
119.87
116.91
108.83
94.96
77.63
61.88
53.71
57.22
72.64
95.51
118.28
133.25
135.51
124.03
100.52
67.70
28.17
-15.33
-58.52
-94.80
-116.73
-118.98
-101.70
-71.35
-38.20
-11.31
6.02
17.00
28.33
44.84
65.75
85.08
95.62
93.72
81.51
65.46
52.14
45.24
44.45
47.18
51.71
58.78
70.72
89.12
113.25
139.16
161.26
174.45
175.56
163.60
139.16
103.52
58.20
5.84
-50.78
-108.32
-162.99
-211.11
-250.00
-279.07
-299.36
-312.55
-318.55
-316.31
-303.84
-279.08
-241.20
-191.96
-136.37
-80.21
-27.88
20.00
63.26
100.24
126.18
133.96
116.79
71.27
0.70
-90.15
-184.21
-259.49
-299.68
-301.90
-274.90
-230.70
-178.97
-125.13
-73.04
-23.79
18.62
49.25
66.05
72.29
75.89
80.79
91.52
107.49
122.85
127.84
114.51
81.31
33.90
-17.58
-62.17
-93.94
-110.83
-114.09
-108.45
-100.24
-94.90
-95.14
-100.01
-105.34
-104.95
-90.98
-58.10
-5.48
62.38
136.20
203.66
251.69
270.23
256.12
214.47
157.11
98.49
50.88
20.58
7.14
5.12
8.07
12.10
16.86
23.35
31.15
37.56
39.45
35.75
27.43
17.25
7.04
-3.20
-15.78
-32.92
-54.19
-75.45
-90.71
-98.07
-101.06
-107.77
-126.66
-163.42
-219.14
-290.98
-373.66
-446.94
-489.58
-486.78
-438.28
-356.74
-259.57
-160.78
-68.32
14.45
86.94
147.29
193.09
223.41
241.45
251.08
256.17
258.99
259.42
255.68
243.65
219.51
179.02
126.28
68.98
15.29
-29.03
-61.55
-82.47
-94.54
-101.77
-107.77
-114.41
-122.01
-128.38
-129.02
-118.70
-93.67
-54.29
-6.10
42.33
82.79
109.79
122.66
124.81
121.09
115.39
109.38
103.26
97.24
93.00
92.60
96.79
103.18
105.40
95.48
67.68
22.06
-34.80
-91.81
-138.01
-168.10
-180.61
-178.94
-168.45
-153.27
-135.29
-115.06
-93.56
-73.12
-56.59
-44.97
-35.38
-23.91
-6.20
19.63
50.81
80.73
101.82
108.81
101.20
82.26
57.33
31.45
7.72
-12.56
-29.04
-40.34
-44.77
-41.49
-32.48
-22.44
-17.26
-21.35
-35.01
-52.97
-67.31
-70.42
-58.61
-33.71
-1.70
30.51
58.13
79.52
95.51
107.31
115.42
119.75
119.11
112.79
100.91
84.47
65.17
44.77
24.49
5.54
-11.08
-24.70
-34.87
-41.54
-45.09
-46.08
-45.11
-42.83
-39.26
-34.51
-28.79
-22.74
-17.59
-15.03
-17.10
-25.84
-43.17
-70.17
-106.39
-148.82
-191.61
-227.45
-250.02
-256.33
-247.41
-227.50
-201.65
-173.39
-143.41
-109.88
-70.72
-24.88
24.49
72.76
115.78
151.44
179.49
200.67
215.71
224.20
225.40
218.87
205.89
189.30
172.78
159.49
151.02
146.88
144.61
141.48
135.36
125.97
114.71
103.72
95.06
90.14
89.50
92.56
97.29
99.88
95.56
80.09
51.93
13.73
-27.99
-65.09
-91.11
-103.68
-104.90
-99.43
-91.82
-84.58
-78.01
-71.34
-64.11
-57.11
-51.49
-48.03
-46.33
-45.00
-42.40
-37.34
-29.57
-19.56
-8.18
4.11
17.34
31.86
47.65
64.08
79.30
91.06
97.22
96.53
89.05
75.88
58.70
38.75
17.47
-4.53
-26.63
-47.78
-66.65
-81.93
-92.82
-99.29
-100.82
-97.12
-88.49
-76.29
-63.45
-53.80
-50.33
-53.42
-60.22
-65.37
-64.09
-54.58
-38.95
-22.22
-9.74
-4.62
-6.48
-12.11
-17.34
-19.27
-17.48
-13.84
-11.35
-12.63
-17.82
-24.28
-27.45
-23.07
-9.56
10.87
33.08
51.03
60.02
58.07
45.83
25.79
1.49
-23.04
-43.32
-55.12
-55.63
-44.74
-25.52
-3.27
16.57
30.70
38.77
42.85
45.64
48.67
51.44
51.97
48.00
38.67
25.33
10.87
-0.97
-7.36
-6.98
-1.05
6.71
10.90
5.83
-12.09
-43.18
-83.44
-125.30
-158.88
-174.99
-168.34
-140.11
-98.24
-54.97
-22.32
-7.44
-9.91
-22.31
-34.31
-37.54
-29.30
-13.02
4.26
15.88
19.26
16.39
12.84
13.50
19.83
29.35
36.81
37.48
29.53
15.20
-0.47
-12.53
-18.51
-19.73
-19.80
-22.24
-27.92
-34.39
-36.97
-31.57
-17.21
3.38
24.63
40.43
46.51
42.18
29.95
14.78
1.73
-6.07
-8.01
-6.02
-3.30
-2.49
-3.90
-6.19
-5.75
1.60
18.87
47.25
84.23
123.91
158.29
180.03
183.52
168.29
138.73
99.90
60.29
28.56
11.42
12.43
32.21
66.76
110.42
156.65
199.83
236.95
267.14
290.42
301.79
303.50
289.93
257.68
208.33
150.26
97.21
62.43
52.71
64.75
86.71
102.01
98.12
70.58
23.54
-33.63
-91.56
-144.18
-189.02
-224.87
-250.96
-264.61
-262.80
-244.27
-211.24
-169.95
-129.71
-100.25
-88.04
-94.58
-114.45
-137.24
-151.34
-148.27
-125.55
-86.77
-39.03
10.82
57.93
99.64
133.31
155.27
161.12
147.96
116.59
72.35
23.93
-19.74
-52.29
-72.27
-81.52
-83.41
-81.16
-77.63
-75.67
-78.40
-88.78
-108.61
-138.96
-178.03
-221.41
-262.95
-297.25
-321.22
-334.38
-338.38
-336.19
-332.82
-332.23
-335.99
-342.00
-345.31
-339.46
-318.70
-280.52
-218.32
-136.93
-49.95
25.85
78.95
106.77
113.93
107.37
92.63
72.97
48.96
22.43
-4.20
-26.29
-40.50
-46.44
-46.38
-43.99
-42.08
-42.78
-45.34
-46.90
-43.07
-30.98
-10.91
14.43
41.43
67.57
91.33
113.81
137.47
165.88
200.38
239.37
279.02
314.78
343.48
363.29
375.38
382.88
391.29
405.04
425.51
450.20
472.34
483.16
473.91
440.86
377.70
289.16
188.58
93.21
17.68
-31.87
-53.78
-57.17
-51.68
-44.31
-37.23
-30.08
-23.82
-17.18
-11.23
-6.36
-4.95
-10.47
-26.75
-54.14
-89.32
-126.22
-158.11
-180.35
-193.26
-199.63
-201.58
-199.72
-192.47
-178.18
-156.46
-128.00
-94.37
-57.46
-19.32
17.71
49.88
72.23
79.55
66.89
34.47
-11.09
-58.17
-94.74
-113.06
-112.05
-95.63
-69.45
-38.17
-4.48
29.37
60.44
84.80
99.72
102.97
93.76
73.17
43.77
8.75
-29.15
-67.93
-106.22
-142.66
-172.72
-191.88
-196.87
-186.70
-162.89
-129.19
-90.62
-52.27
-18.30
8.75
27.85
39.56
45.56
47.87
48.28
48.03
47.76
47.66
47.64
47.32
46.51
45.29
43.98
43.17
43.45
45.45
49.70
56.35
65.10
75.20
85.48
94.36
100.81
103.14
100.04
90.67
74.82
53.02
26.67
-1.91
-29.49
-52.39
-67.02
-70.51
-61.53
-40.80
-11.14
23.18
57.09
86.15
106.97
117.65
117.75
107.84
88.80
61.53
28.29
-8.47
-45.68
-80.10
-108.62
-128.66
-139.01
-140.00
-133.65
-122.89
-110.77
-99.78
-91.52
-87.51
-88.05
-91.64
-94.51
-92.46
-83.08
-67.96
-54.59
-48.76
-54.62
-70.84
-90.21
-102.49
-99.27
-77.83
-42.18
-0.67
38.05
67.15
82.98
84.30
72.13
50.01
23.88
1.43
-10.60
-8.97
4.15
22.33
38.07
46.21
45.39
37.43
25.50
12.06
-1.16
-13.27
-22.81
-28.24
-29.47
-29.72
-32.59
-40.61
-52.66
-63.64
-66.75
-57.00
-33.85
-1.59
32.80
62.92
84.67
96.18
97.57
89.26
71.62
45.70
14.03
-19.56
-51.01
-77.52
-98.01
-112.25
-120.12
-122.35
-118.77
-109.42
-94.96
-77.06
-57.82
-39.38
-23.03
-8.96
3.16
13.56
22.15
28.13
30.38
28.15
21.92
13.72
6.66
4.27
9.46
24.75
51.38
87.04
127.05
164.07
189.46
195.76
182.55
152.64
114.09
78.13
54.74
49.19
60.04
80.02
98.97
107.65
100.36
76.39
39.03
-6.85
-56.00
-103.11
-142.51
-168.07
-173.82
-156.42
-116.96
-61.47
-3.04
43.05
66.00
64.54
47.24
27.81
18.51
24.84
44.69
71.50
95.84
109.88
108.95
91.13
56.72
9.02
-48.05
-104.58
-150.72
-181.31
-197.88
-206.91
-216.63
-234.01
-258.77
-284.90
-303.95
-309.03
-296.27
-264.99
-216.38
-154.29
-85.63
-17.00
46.22
101.60
150.62
197.71
247.30
300.97
354.60
398.63
424.30
427.76
411.24
381.50
346.80
307.73
265.26
227.76
196.04
166.21
137.63
112.06
92.16
79.77
74.03
72.40
70.45
62.60
46.61
24.12
-2.21
-30.52
-60.43
-92.68
-126.46
-158.84
-185.81
-201.91
-201.68
-184.17
-153.51
-117.84
-87.26
-70.82
-75.43
-105.50
-160.21
-231.99
-308.11
-373.00
-413.46
-423.74
-407.02
-373.17
-334.30
-303.16
-281.44
-266.17
-253.26
-240.00
-225.84
-211.35
-196.81
-181.52
-162.76
-137.91
-106.61
-70.63
-33.21
1.79
31.26
53.49
68.05
75.51
77.20
73.89
66.09
54.24
38.89
20.96
1.70
-17.49
-35.21
-49.87
-60.27
-65.37
-64.50
-57.57
-45.20
-28.82
-10.13
9.36
28.78
47.97
67.28
87.22
108.16
130.65
155.41
182.53
210.46
234.84
248.46
243.15
212.84
156.95
81.92
-0.09
-74.79
-130.09
-159.29
-161.96
-142.77
-109.24
-69.41
-30.51
1.88
24.30
35.74
37.62
33.80
29.74
31.11
41.87
62.16
87.10
107.39
112.41
94.33
52.37
-5.61
-65.68
-112.88
-137.01
-136.02
-115.36
-84.12
-50.74
-19.86
7.86
33.91
59.84
86.44
114.20
144.51
180.52
225.82
282.18
347.38
414.41
472.96
512.51
526.26
513.82
482.52
444.20
411.68
394.69
396.90
415.26
441.29
464.32
475.38
471.82
456.77
438.18
425.20
424.11
435.64
454.75
473.13
482.69
479.95
464.29
437.30
400.54
354.45
299.18
235.96
168.42
91.62
7.18
-80.34
-163.77
-235.79
-290.91
-326.20
-341.47
-338.53
-320.53
-287.50
-243.82
-195.19
-148.69
-111.26
-88.28
-83.10
-96.77
-128.50
-175.35
-235.29
-304.26
-377.46
-449.44
-514.60
-568.00
-606.20
-627.68
-632.45
-623.29
-604.53
-582.17
-562.54
-550.55
-548.03
-552.38
-557.09
-554.02
-537.15
-504.95
-461.30
-413.48
-368.96
-332.81
-306.20
-287.49
-274.13
-264.07
-256.03
-249.22
-242.37
-233.61
-221.50
-205.82
-188.08
-170.89
-156.75
-146.60
-139.44
-132.46
-122.16
-105.90
-82.89
-54.39
-22.64
10.19
43.08
76.54
112.13
151.04
192.84
235.00
273.42
304.76
327.06
340.72
348.18
353.47
360.82
373.95
395.24
424.68
460.31
496.04
522.79
531.55
518.01
485.35
444.09
407.92
387.35
387.16
403.51
427.67
451.47
471.64
490.47
513.29
544.57
572.49
585.35
573.19
532.06
465.11
380.04
284.36
182.69
77.12
-30.98
-136.32
-232.08
-311.86
-372.26
-413.73
-438.76
-449.14
-444.59
-424.24
-387.88
-340.00
-289.31
-245.47
-214.77
-197.75
-190.06
-185.88
-181.87
-177.59
-175.36
-177.25
-182.93
-189.41
-192.78
-190.51
-182.70
-171.80
-160.50
-151.01
-144.23
-139.93
-137.31
-135.08
-131.22
-122.70
-106.26
-79.62
-43.39
-1.67
39.02
72.33
94.72
106.60
111.15
111.62
108.96
101.45
86.58
63.78
36.07
9.08
-11.67
-23.59
-28.25
-29.84
-32.73
-38.87
-46.93
-53.51
-55.38
-51.43
-42.92
-32.28
-21.45
-11.00
-0.65
9.74
19.06
24.78
24.31
16.91
4.80
-7.35
-14.26
-12.53
-2.21
13.38
29.00
39.84
43.47
40.30
32.79
24.06
16.42
10.81
6.79
3.32
-0.24
-3.88
-7.24
-10.21
-13.18
-16.97
-22.31
-29.26
-37.23
-45.09
-51.76
-56.68
-59.75
-60.78
-59.04
-53.45
-43.36
-29.54
-14.37
-1.46
5.79
5.42
-2.13
-14.56
-28.56
-40.96
-49.77
-54.30
-54.96
-52.79
-49.24
-45.93
-44.58
-45.94
-48.86
-50.45
-47.01
-35.81
-16.64
7.84
31.91
49.18
55.26
49.93
36.96
22.11
10.39
4.47
4.14
7.21
11.34
15.18
18.91
23.64
30.59
40.15
51.63
63.47
73.83
81.61
87.23
92.47
99.16
108.44
120.05
132.49
143.59
151.26
154.00
151.24
143.16
129.93
111.76
89.39
64.54
39.68
17.29
-0.63
-12.70
-18.02
-16.50
-8.83
3.78
19.65
36.10
49.20
54.60
48.81
30.03
-2.12
-46.90
-102.59
-163.25
-217.06
-251.56
-261.10
-248.74
-222.03
-188.36
-152.86
-118.39
-86.34
-57.42
-32.80
-13.76
-0.59
8.03
14.37
21.01
30.13
42.85
59.10
76.94
93.46
106.30
113.98
115.89
112.27
103.65
90.62
74.15
54.13
30.41
2.84
-27.88
-60.03
-90.89
-117.35
-136.31
-144.38
-140.11
-123.01
-94.25
-55.96
-11.34
35.84
84.37
130.15
170.46
204.32
234.95
262.82
287.54
306.01
311.53
294.79
249.20
179.98
90.12
-12.80
-119.52
-222.76
-321.17
-406.59
-474.34
-522.47
-551.81
-566.55
-570.35
-565.18
-549.69
-519.66
-469.13
-392.51
-287.68
-159.06
-17.64
123.93
254.86
368.76
463.50
525.55
542.49
515.09
458.14
389.50
321.54
259.23
202.92
150.90
101.71
56.61
18.79
-10.73
-31.43
-42.93
-45.20
-39.32
-28.48
-18.11
-13.36
-15.90
-28.08
-47.90
-68.71
-82.48
-84.38
-75.06
-59.60
-43.22
-28.87
-17.31
-7.46
1.49
9.38
14.94
17.00
15.47
12.29
10.40
12.19
18.63
29.21
42.39
56.21
69.12
80.31
89.99
99.24
108.28
116.45
122.69
125.75
124.57
118.78
108.66
94.97
78.70
60.66
40.67
18.93
-4.08
-27.56
-49.93
-69.49
-84.43
-93.09
-94.24
-88.81
-77.54
-61.51
-42.36
-21.81
-2.70
11.58
17.49
20.50
19.77
14.85
6.64
-2.69
-9.96
-13.78
-14.28
-12.92
-11.64
-14.00
-20.75
-30.19
-43.90
-56.59
-65.24
-69.18
-69.44
-67.51
-66.11
-65.05
-61.79
-52.84
-34.99
-8.88
21.53
49.28
73.66
89.75
93.84
85.36
67.43
47.26
33.39
33.97
53.50
90.15
133.39
166.96
175.76
152.28
100.53
34.09
-28.58
-71.28
-86.02
-76.41
-56.92
-43.94
-49.01
-75.26
-118.53
-170.18
-220.61
-262.04
-289.97
-305.75
-310.70
-305.01
-288.63
-264.10
-237.45
-216.94
-210.48
-201.25
-180.70
-150.10
-117.71
-89.93
-68.12
-51.22
-38.93
-31.80
-29.51
-32.35
-36.23
-33.67
-17.67
13.38
54.11
94.56
125.02
140.14
137.93
121.64
97.58
71.98
48.44
28.04
10.95
-2.15
-10.77
-14.82
-15.26
-13.50
-10.98
-9.18
-8.96
-10.16
-11.73
-12.39
-11.64
-10.10
-8.98
-9.56
-12.77
-18.61
-26.05
-33.33
-38.87
-41.69
-42.41
-42.72
-44.56
-49.19
-56.24
-63.52
-67.31
-67.75
-63.95
-56.36
-46.69
-36.94
-28.34
-20.52
-11.65
0.85
19.19
45.46
80.56
124.56
176.34
232.81
288.27
334.83
364.73
373.98
365.45
348.61
336.21
339.27
362.83
404.94
459.22
518.71
578.37
634.78
683.09
715.08
720.24
689.59
620.26
518.18
396.85
273.30
162.91
75.11
12.11
-30.15
-59.32
-83.80
-110.07
-141.17
-176.30
-211.63
-242.33
-264.46
-276.31
-278.17
-271.76
-259.30
-243.28
-226.92
-214.08
-208.40
-211.50
-221.62
-233.13
-238.43
-230.87
-207.80
-171.49
-127.63
-82.38
-39.34
0.96
39.13
73.99
100.39
110.10
95.23
52.40
-15.24
-98.75
-186.76
-269.64
-341.89
-402.35
-452.48
-494.38
-529.61
-558.89
-582.19
-598.18
-603.91
-594.70
-565.32
-511.94
-433.86
-334.17
-219.23
-97.49
21.58
128.09
212.82
268.51
291.45
282.91
249.25
200.48
147.23
97.95
56.61
23.20
-4.82
-30.90
