1594220239.00
64.000000
-0.00
-0.00
-0.00
-0.00
-0.00
-0.00
-0.00
-0.00
-0.00
-0.00
0.00
0.01
0.01
-0.00
-0.03
-0.05
-0.05
0.00
0.13
0.36
0.66
1.01
1.37
1.72
2.06
2.40
2.79
3.24
3.80
4.42
5.06
5.66
6.20
6.68
7.15
7.68
8.31
9.14
10.09
11.04
11.88
12.56
13.14
13.76
14.65
15.96
17.91
20.32
22.90
25.38
27.58
29.57
31.68
34.32
37.81
42.54
48.15
54.10
59.83
64.97
69.58
74.14
79.34
85.71
93.76
103.00
112.62
121.73
129.77
136.75
143.30
150.75
157.77
166.64
177.95
191.79
206.97
220.57
228.25
225.36
208.53
176.87
132.76
80.05
23.07
-34.94
-92.44
-149.16
-205.23
-260.37
-313.74
-363.87
-409.83
-450.91
-486.50
-515.74
-537.23
-549.22
-549.96
-538.37
-514.21
-478.67
-433.88
-382.45
-327.02
-269.84
-212.63
-156.66
-102.95
-52.37
-5.90
35.58
71.43
101.35
125.50
144.38
158.69
169.15
176.37
180.75
182.57
182.07
179.51
175.23
169.65
163.18
156.15
148.81
141.30
133.69
126.02
118.33
110.69
103.15
95.79
88.68
81.84
75.28
69.00
62.99
57.23
51.75
46.58
41.74
37.29
33.21
29.48
26.05
22.86
19.86
17.05
14.48
12.19
10.23
8.60
7.27
6.13
5.09
4.07
3.06
2.13
1.38
0.93
0.80
0.91
1.08
1.06
0.71
0.04
-0.74
-1.31
-1.37
-0.82
0.16
1.12
1.57
1.17
0.02
-1.44
-2.51
-2.59
-1.54
0.29
2.05
2.84
2.16
0.18
-2.27
-4.04
-4.19
-2.60
0.14
2.93
4.65
4.80
3.51
1.25
-1.54
-4.28
-5.87
-4.50
1.67
13.34
28.83
44.15
54.42
56.28
49.57
37.52
24.95
15.77
11.42
10.78
11.66
12.61
13.61
15.56
19.10
23.69
27.70
29.53
28.64
25.65
22.14
19.68
18.75
18.49
17.07
12.34
3.20
-9.96
-25.46
-41.08
-54.89
-66.12
-75.21
-82.75
-90.49
-99.71
-111.10
-124.50
-138.32
-149.29
-153.04
-146.00
-126.31
-96.20
-61.36
-29.08
-5.37
7.35
10.57
8.20
4.24
1.03
-1.28
-3.41
-5.70
-7.45
-7.28
-4.15
1.91
9.67
17.50
23.77
27.93
30.46
32.44
34.98
38.61
43.08
47.44
50.64
51.84
50.91
48.38
45.19
42.21
39.93
38.30
36.80
34.83
31.85
27.73
22.72
17.41
12.44
8.37
5.46
3.63
2.69
2.27
2.03
1.83
1.68
1.85
2.57
3.99
5.95
8.19
10.17
11.25
11.03
9.54
7.28
5.07
3.79
3.97
6.01
9.70
14.53
19.83
25.26
30.85
37.08
44.75
54.92
68.96
87.27
108.69
130.17
147.52
157.08
157.26
149.54
135.19
118.56
104.13
94.92
91.47
92.64
96.40
100.65
103.16
101.41
93.11
76.30
50.49
16.67
-22.19
-61.91
-98.10
-127.13
-146.72
-155.71
-154.50
-145.01
-131.57
-119.75
-115.12
-121.44
-139.37
-166.36
-197.41
-227.05
-245.36
-245.33
-224.74
-187.42
-140.90
-92.52
-47.13
-6.93
27.26
55.23
76.37
90.71
98.87
102.06
102.08
100.63
99.03
97.91
97.51
96.78
95.77
94.38
92.18
88.89
84.09
77.71
69.60
59.93
49.02
37.64
25.84
12.45
-4.12
-25.75
-53.51
-88.14
-130.00
-179.57
-232.60
-280.09
-315.72
-336.28
-342.66
-338.15
-327.78
-316.44
-307.40
-300.86
-294.12
-282.17
-258.71
-224.64
-177.35
-118.14
-52.59
12.33
71.64
123.60
169.21
211.27
252.42
288.32
314.85
329.19
331.44
324.53
312.37
297.79
281.78
263.95
244.27
224.21
206.18
192.21
181.89
171.25
153.67
123.35
78.81
24.61
-30.39
-77.54
-111.83
-132.39
-140.81
-138.42
-124.77
-98.78
-61.29
-16.72
27.20
62.33
84.01
92.36
91.34
85.88
79.87
74.80
70.79
68.89
69.04
72.32
79.03
87.14
92.02
88.08
70.99
40.50
1.14
-39.51
-73.31
-95.11
-104.45
-104.96
-101.68
-98.78
-98.34
-100.33
-103.32
-104.60
-100.95
-89.43
-69.07
-41.64
-12.27
12.01
24.96
23.64
9.49
-13.10
-39.15
-65.04
-87.92
-104.81
-111.86
-105.12
-82.81
-47.36
-6.10
32.18
56.18
58.04
36.48
-2.88
-50.13
-94.91
-129.50
-150.21
-156.71
-150.42
-132.23
-102.34
-61.35
-11.62
41.95
92.76
134.41
162.70
176.34
177.00
167.86
152.12
132.38
110.76
89.33
70.01
54.05
41.26
30.35
19.49
7.36
-6.01
-19.10
-29.71
-36.02
-37.37
-34.62
-29.59
-24.24
-20.02
-17.48
-16.41
-16.32
-17.10
-19.19
-23.23
-29.32
-36.45
-42.63
-45.59
-43.94
-37.90
-29.23
-20.37
-13.32
-8.92
-6.77
-5.58
-4.00
-1.12
3.24
8.49
13.37
16.26
15.63
10.64
1.67
-9.59
-20.58
-28.85
-32.92
-32.82
-29.86
-25.81
-22.02
-18.87
-16.00
-12.84
-9.33
-6.09
-4.17
-4.33
-6.51
-9.79
-12.79
-14.44
-14.39
-13.00
-10.97
-8.76
-6.34
-3.26
0.89
6.17
12.01
17.42
21.37
23.25
23.13
21.67
19.78
18.16
16.93
15.71
13.91
11.18
7.66
3.93
0.68
-1.65
-2.98
-3.47
-3.12
-1.71
1.06
5.17
10.01
14.50
17.54
18.62
18.15
17.20
16.90
17.84
19.78
21.88
23.14
22.96
21.26
18.42
14.92
11.13
7.22
3.25
-0.62
-4.09
-6.75
-8.26
-8.49
-7.69
-6.41
-5.15
-4.10
-2.82
-0.43
3.88
10.21
17.63
24.39
28.81
30.06
28.55
25.75
23.37
22.66
24.02
26.99
30.67
33.91
35.61
35.08
32.35
28.56
25.86
26.64
32.38
42.71
55.19
66.24
72.79
73.67
69.97
64.72
61.26
61.76
66.18
72.46
77.25
77.21
70.28
56.31
37.61
19.03
7.05
8.24
26.51
60.38
101.87
138.83
159.89
159.87
142.42
117.63
95.93
81.84
71.93
58.11
34.05
0.20
-36.11
-65.32
-81.23
-83.89
-78.40
-70.65
-63.88
-58.57
-54.98
-55.48
-64.72
-86.88
-122.35
-166.76
-212.46
-251.65
-279.00
-292.17
-290.97
-277.00
-254.10
-228.93
-210.10
-205.02
-215.86
-236.89
-255.69
-258.19
-235.28
-187.51
-125.03
-62.95
-14.77
12.55
19.41
10.87
-7.61
-32.94
-64.31
-100.81
-138.95
-171.98
-191.69
-191.85
-170.90
-132.48
-82.99
-28.32
28.20
84.93
139.20
184.95
213.18
215.78
190.38
143.21
87.73
39.55
10.28
3.51
14.62
33.64
49.48
53.01
38.46
3.54
-50.61
-119.18
-193.73
-263.27
-316.79
-346.29
-348.97
-327.70
-289.28
-241.96
-192.73
-146.05
-103.63
-65.31
-30.16
2.68
33.81
63.73
92.99
122.23
151.92
182.23
213.08
244.42
276.26
308.44
340.20
369.88
395.30
414.49
426.61
432.29
433.27
431.40
427.74
422.19
414.00
402.57
388.15
371.87
355.23
339.32
324.46
310.28
296.19
281.90
267.60
254.01
242.01
232.30
225.00
219.55
214.75
209.18
201.79
192.46
182.12
172.35
164.48
158.78
154.16
148.56
140.02
127.71
112.30
95.56
79.40
64.82
51.55
38.36
23.94
7.61
-10.32
-28.91
-47.10
-64.34
-80.79
-97.07
-114.07
-132.55
-153.14
-176.22
-201.71
-228.78
-255.45
-278.85
-295.89
-304.32
-303.75
-295.85
-283.72
-270.68
-259.13
-250.02
-243.01
-237.14
-231.57
-225.77
-219.45
-212.65
-205.75
-199.48
-194.60
-191.35
-189.29
-187.54
-185.12
-181.71
-178.03
-175.75
-176.75
-181.95
-190.56
-200.22
-208.24
-212.40
-211.90
-207.83
-202.92
-200.59
-203.80
-213.89
-230.22
-251.10
-272.45
-287.89
-290.24
-274.53
-240.39
-192.94
-141.35
-95.67
-65.05
-51.44
-48.43
-44.81
-31.30
-5.36
28.06
59.87
81.52
85.58
72.17
48.61
24.89
7.40
-3.28
-10.68
-18.72
-30.35
-51.61
-85.84
-132.25
-186.39
-242.61
-294.76
-336.54
-362.01
-337.30
-250.53
-119.50
18.99
135.07
217.74
269.97
298.26
313.76
323.64
327.83
326.48
321.63
316.03
307.50
291.93
265.97
230.44
190.08
148.38
109.58
77.93
56.52
45.46
42.30
43.40
45.48
45.58
39.62
26.26
8.03
-9.87
-23.11
-30.74
-35.15
-40.09
-48.36
-61.16
-77.15
-94.25
-112.06
-133.28
-161.95
-199.90
-243.79
-285.36
-314.80
-324.91
-314.38
-288.07
-254.19
-220.03
-188.97
-160.13
-130.59
-98.10
-62.86
-27.37
5.19
32.95
56.40
77.96
100.26
124.63
150.36
174.78
194.83
208.65
216.60
221.13
225.56
232.38
242.05
252.94
262.11
266.74
264.96
255.43
236.92
208.19
168.85
120.89
69.67
23.05
-11.15
-28.32
-28.87
-17.36
0.53
21.33
45.05
73.53
107.18
142.67
173.21
191.74
194.68
183.82
165.24
145.82
129.84
117.47
106.07
92.78
76.70
59.48
43.87
31.96
24.29
19.65
16.20
12.58
8.56
4.93
2.91
3.33
5.99
9.52
11.75
10.61
4.79
-5.73
-20.01
-36.74
-54.77
-73.11
-90.69
-105.93
-116.97
-122.58
-122.84
-119.46
-114.99
-111.63
-110.12
-109.73
-108.97
-106.55
-101.97
-95.11
-85.79
-73.48
-57.88
-39.59
-20.32
-2.29
12.98
25.37
36.11
46.72
57.88
68.99
78.61
85.38
88.58
88.28
85.05
79.73
73.36
67.17
62.33
59.41
57.97
56.67
54.00
49.19
42.60
35.36
28.43
21.95
15.16
7.12
-2.46
-12.82
-22.47
-29.93
-34.38
-35.86
-35.06
-32.95
-30.45
-28.09
-25.97
-23.76
-20.86
-16.65
-10.97
-4.35
2.05
6.84
9.02
8.48
6.09
3.35
1.71
2.06
4.51
8.55
13.48
18.69
23.73
28.19
31.54
33.21
32.70
29.91
25.30
19.86
14.88
11.55
10.60
12.13
15.56
19.89
23.95
26.81
28.01
27.76
26.85
26.49
27.96
32.12
39.17
48.53
58.99
69.23
78.32
86.19
93.60
101.59
110.77
120.76
130.22
137.72
142.76
146.36
150.49
157.13
166.87
178.44
188.96
194.73
191.94
177.07
147.39
102.25
44.73
-17.28
-71.59
-104.45
-104.73
-68.11
0.79
89.41
180.94
259.25
313.20
338.68
338.16
318.31
286.80
249.63
210.13
169.37
127.32
84.16
40.44
-2.94
-45.11
-85.30
-122.58
-155.58
-182.90
-203.93
-219.24
-230.81
-240.74
-249.78
-256.90
-260.06
-257.36
-248.28
-234.15
-216.81
-198.23
-178.98
-157.98
-133.77
-106.01
-75.82
-45.73
-18.83
2.93
18.13
26.60
32.09
38.81
49.99
66.67
86.95
103.37
113.54
116.96
114.23
106.21
96.52
86.14
74.49
59.95
40.91
17.25
-10.78
-42.11
-74.80
-106.28
-133.50
-152.27
-157.95
-147.03
-118.63
-76.63
-28.53
17.28
54.43
80.30
96.37
106.17
112.59
116.66
117.17
112.57
102.88
90.17
77.42
67.02
59.30
52.35
43.22
29.36
10.16
-12.69
-35.94
-56.45
-72.37
-84.00
-93.51
-103.87
-118.00
-138.13
-165.81
-201.74
-245.08
-292.17
-335.89
-366.92
-376.90
-362.19
-326.19
-278.26
-229.70
-188.75
-157.68
-133.43
-111.26
-88.62
-66.96
-50.49
-42.94
-45.09
-54.24
-66.04
-77.08
-86.20
-93.83
-99.98
-102.59
-97.87
-82.62
-57.28
-27.50
-3.05
5.80
-7.46
-43.05
-95.44
-156.62
-219.95
-282.16
-342.31
-398.94
-447.63
-481.02
-491.53
-475.22
-434.21
-376.37
-312.35
-251.80
-200.54
-159.70
-127.02
-98.88
-72.06
-44.59
-15.83
13.69
42.81
70.04
94.24
115.21
134.00
152.74
174.31
201.66
236.92
280.23
328.94
377.11
415.90
435.58
429.00
395.27
341.58
281.54
230.26
198.81
190.42
200.23
218.77
236.98
250.02
258.07
264.15
270.23
275.83
278.19
274.10
261.74
242.24
219.87
201.04
192.16
195.59
209.73
229.56
248.46
260.33
261.82
253.72
240.15
225.76
209.75
188.75
159.73
122.72
80.88
39.14
2.40
-26.56
-48.21
-71.31
-104.47
-151.46
-209.47
-272.47
-334.81
-392.25
-441.44
-479.34
-510.08
-537.29
-562.33
-583.73
-600.63
-614.30
-626.30
-636.44
-601.37
-497.51
-335.35
-155.76
2.43
122.13
204.85
260.34
298.89
327.62
343.39
341.96
323.10
292.40
257.65
224.43
195.26
170.19
147.51
119.25
88.56
57.71
30.78
11.30
0.65
-1.73
2.67
11.99
21.21
26.51
25.96
21.18
15.33
10.84
8.90
9.68
12.80
16.05
17.65
16.44
12.94
8.60
4.73
2.13
1.10
1.59
2.78
3.70
3.70
2.65
1.13
-0.08
-0.16
1.42
4.82
9.72
13.53
16.30
17.54
17.22
15.93
14.61
14.18
15.07
16.86
18.06
17.49
14.04
7.44
-1.58
-11.70
-21.73
-30.99
-37.04
-41.97
-47.26
-54.09
-63.10
-74.58
-88.11
-102.03
-112.93
-116.14
-107.77
-85.84
-52.64
-14.39
21.02
47.14
61.34
65.18
62.77
57.88
52.94
48.18
42.86
36.59
30.11
24.77
21.65
20.67
20.44
19.40
16.24
10.71
3.60
-3.72
-9.89
-14.14
-16.65
-18.45
-20.73
-24.41
-29.81
-36.56
-43.84
-50.90
-56.79
-60.99
-63.49
-64.52
-64.41
-63.32
-61.24
-57.85
-52.58
-44.90
-34.17
-20.31
-3.95
13.62
30.75
45.67
57.14
64.80
69.27
71.66
72.99
73.70
73.31
70.85
65.28
56.21
44.39
31.66
20.30
12.46
9.90
13.87
24.90
41.73
60.93
77.15
84.59
79.24
61.12
34.81
7.12
-13.67
-22.85
-20.69
-11.31
0.22
10.38
18.22
24.45
29.85
34.35
36.77
36.01
32.15
26.55
21.25
18.13
17.86
19.82
22.56
24.39
24.30
22.35
19.60
17.51
17.18
18.84
21.81
25.02
27.35
28.39
28.62
28.85
30.03
32.62
36.40
40.50
44.01
46.35
47.70
48.72
50.30
53.00
56.54
59.68
60.79
58.49
52.15
42.23
29.87
16.14
1.96
-12.57
-27.91
-44.59
-62.97
-83.06
-104.02
-125.57
-146.19
-162.69
-170.69
-166.15
-147.44
-116.87
-80.91
-46.79
-20.90
-5.96
-0.67
-1.23
-3.76
-6.01
-7.81
-9.96
-12.90
-16.33
-19.19
-20.61
-20.60
-20.01
-19.96
-21.46
-24.72
-29.16
-34.06
-38.69
-42.67
-46.05
-49.08
-51.95
-54.76
-57.44
-59.73
-61.54
-62.74
-63.15
-62.35
-59.52
-53.62
-43.95
-30.67
-14.45
3.24
20.61
36.18
49.42
60.89
72.13
85.01
101.40
122.51
147.87
174.51
196.95
208.77
203.93
182.02
147.60
108.70
73.72
47.68
30.43
17.55
2.77
-18.63
-48.22
-84.82
-124.91
-163.44
-194.81
-213.12
-215.67
-203.37
-180.66
-153.73
-128.34
-107.54
-91.12
-75.98
-59.41
-40.67
-20.77
-1.27
17.26
35.44
54.80
76.59
100.90
126.85
153.33
179.42
202.84
221.85
233.01
232.07
216.33
186.80
148.90
110.80
80.30
61.62
54.40
54.46
56.62
57.22
55.07
50.71
44.86
37.27
27.03
12.74
-6.16
-29.00
-54.40
-81.00
-108.42
-136.92
-165.49
-192.10
-212.42
-221.21
-214.84
-193.58
-162.31
-128.91
-101.06
-83.34
-76.01
-75.81
-78.42
-80.84
-81.63
-80.65
-77.95
-73.07
-65.11
-53.83
-39.65
-24.00
-8.71
4.66
15.42
23.85
30.84
37.25
43.39
48.95
53.07
54.79
53.59
49.67
43.98
37.75
32.20
27.93
24.94
22.67
20.34
17.34
13.45
8.85
4.00
-0.63
-4.86
-8.75
-12.50
-16.27
-20.03
-23.48
-26.07
-27.22
-26.60
-24.23
-20.57
-16.25
-12.08
-8.75
-6.67
-5.96
-6.59
-8.53
-12.08
-17.76
-25.97
-36.92
-50.26
-64.86
-79.03
-90.93
-99.22
-103.45
-104.30
-102.82
-100.22
-96.97
-92.47
-85.14
-73.11
-55.08
-30.86
-3.70
23.26
47.41
67.63
84.65
100.63
118.24
139.92
167.35
201.17
240.77
283.20
322.91
352.36
364.16
353.62
320.65
269.82
208.29
142.47
75.07
4.99
-70.01
-149.50
-227.72
-294.27
-337.82
-350.72
-332.67
-290.71
-235.84
-178.31
-124.01
-73.54
-24.31
26.57
80.91
138.49
197.87
257.16
313.84
364.09
402.58
423.63
423.21
401.45
362.26
312.21
258.44
206.83
161.22
123.74
95.29
71.41
49.05
25.76
0.24
-27.40
-55.86
-82.97
-106.48
-124.69
-137.38
-144.25
-148.42
-154.66
-167.98
-192.55
-230.43
-280.53
-338.28
-396.46
-446.66
-480.11
-492.28
-484.11
-461.22
-431.15
-400.22
-371.54
-344.94
-318.24
-289.81
-259.79
-229.76
-201.46
-175.56
-151.37
-127.48
-102.70
-76.81
-50.82
-26.72
-6.20
10.00
22.58
33.32
44.46
57.90
74.66
94.62
116.80
140.05
163.48
186.80
210.25
234.28
259.42
286.31
315.69
347.97
382.63
417.28
447.48
467.46
471.98
458.57
428.94
388.61
344.92
304.17
269.44
240.03
212.62
183.48
150.30
112.96
73.24
33.88
-1.98
-31.41
-51.98
-62.29
-62.49
-54.64
-42.70
-31.69
-26.39
-30.24
-44.65
-68.88
-100.52
-136.34
-172.88
-206.98
-235.57
-255.22
-262.11
-252.46
-224.06
-178.22
-120.87
-61.87
-11.96
21.45
37.42
42.17
46.61
61.90
94.99
145.98
208.32
271.29
323.52
356.22
365.00
350.15
315.46
266.62
209.71
150.13
92.19
38.99
-7.51
-46.67
-79.21
-107.15
-133.46
-161.45
-194.14
-233.27
-277.93
-323.43
-361.71
-384.18
-385.94
-369.01
-342.23
-317.75
-305.01
-305.75
-313.28
-316.17
-304.37
-274.20
-229.05
-175.63
-119.67
-63.24
-5.55
53.45
109.45
153.58
176.12
171.96
145.11
107.29
72.67
51.62
46.86
54.10
66.59
80.42
97.14
123.14
163.68
217.85
277.09
328.15
358.87
363.36
343.89
303.15
249.19
191.46
137.78
91.95
53.82
21.74
-4.93
-25.36
-38.29
-42.92
-40.79
-35.40
-30.44
-28.39
-29.35
-31.22
-31.41
-28.03
-20.40
-9.81
1.07
9.70
13.42
11.11
3.08
-9.59
-25.69
-44.67
-66.56
-91.59
-118.42
-145.44
-170.84
-193.34
-213.02
-230.87
-247.75
-262.54
-270.95
-267.03
-246.26
-207.96
-156.17
-100.19
-46.10
1.33
39.38
66.87
82.95
86.65
78.36
61.08
41.28
26.86
23.04
30.66
46.58
65.60
82.94
95.80
103.74
106.93
105.40
98.93
86.90
69.80
48.82
25.22
-0.29
-27.63
-57.62
-90.42
-126.44
-165.65
-206.84
-247.06
-281.26
-305.13
-311.56
-295.99
-258.52
-204.58
-142.89
-82.11
-28.03
17.67
55.54
87.58
115.07
137.69
154.07
163.40
166.60
165.89
163.51
160.46
156.67
151.06
142.46
130.97
118.05
105.97
96.67
90.79
87.19
84.01
79.21
71.70
62.09
52.34
44.84
41.01
40.65
41.83
42.05
39.46
33.53
25.59
17.84
12.49
10.72
12.71
17.88
24.99
31.57
33.49
26.04
6.38
-23.66
-56.82
-82.14
-89.91
-76.83
-47.31
-11.65
19.13
38.39
46.47
47.89
48.34
50.69
53.87
54.73
50.58
41.31
29.39
18.30
10.93
8.29
9.34
11.98
14.63
17.04
20.03
24.18
28.33
29.34
23.87
10.47
-8.71
-28.12
-41.51
-45.17
-39.90
-30.74
-23.59
-21.79
-24.64
-28.63
-30.08
-27.95
-23.95
-20.74
-20.24
-21.62
-21.89
-18.10
-9.39
2.19
12.69
18.42
17.73
10.72
-0.13
-11.25
-19.53
-23.03
-21.32
-15.47
-7.46
0.58
5.45
5.40
0.58
-7.38
-16.13
-23.69
-29.38
-34.02
-33.40
-27.67
-17.79
-4.35
12.83
34.36
59.99
87.92
113.80
135.13
147.93
149.94
141.16
123.69
100.84
76.74
55.70
41.02
38.32
48.18
66.15
83.09
88.42
75.26
44.58
5.59
-28.37
-46.38
-46.82
-37.03
-28.64
-30.90
-45.92
-68.68
-91.39
-108.70
-120.33
-130.73
-144.98
-164.33
-185.25
-202.05
-211.30
-214.24
-215.49
-218.73
-223.87
-226.95
-221.09
-199.26
-157.18
-95.57
-20.55
57.68
126.75
174.11
187.43
160.06
95.50
8.62
-78.74
-145.53
-177.89
-172.51
-136.23
-85.46
-38.84
-11.07
-9.27
-33.76
-80.49
-142.66
-211.68
-261.12
-268.69
-228.84
-156.96
-75.53
-0.09
63.19
113.44
151.62
179.03
194.49
197.58
190.69
179.37
169.89
165.90
167.70
173.51
180.86
185.70
184.97
178.20
167.56
156.08
145.34
135.01
123.63
109.78
91.41
68.58
42.64
16.50
-6.61
-24.70
-37.41
-45.45
-49.90
-52.30
-53.86
-55.16
-55.92
-55.73
-54.67
-53.36
-52.50
-52.41
-52.99
-53.68
-53.81
-52.74
-50.37
-47.35
-44.69
-43.29
-43.33
-44.21
-44.79
-44.33
-42.48
-39.83
-37.50
-36.68
-38.21
-42.53
-49.80
-59.58
-70.39
-79.10
-81.43
-73.31
-53.10
-23.00
11.22
42.25
64.25
75.02
76.34
72.22
66.61
61.59
57.04
52.18
46.62
41.07
36.83
34.82
34.86
35.75
35.96
34.21
30.39
25.33
20.41
16.86
15.23
15.18
15.74
15.75
14.40
11.60
7.89
4.19
1.30
-0.39
-1.05
-1.29
-1.81
-3.12
-5.35
-8.24
-11.32
-14.11
-16.39
-18.19
-19.79
-21.52
-23.69
-26.40
-29.59
-33.04
-36.49
-39.77
-42.86
-45.93
-49.20
-52.88
-57.09
-61.60
-65.92
-69.27
-70.75
-69.66
-65.79
-59.09
-49.94
-38.90
-26.43
-12.83
1.82
17.39
33.43
48.99
62.74
73.28
79.62
81.68
80.37
77.37
74.54
73.12
73.34
74.36
74.87
73.73
70.53
65.83
60.84
57.06
55.82
58.20
64.71
74.71
85.77
93.47
92.49
78.59
51.07
13.67
-26.34
-60.84
-84.00
-93.89
-92.73
-85.31
-76.10
-67.40
-59.36
-51.26
-42.80
-34.64
-27.84
-23.02
-19.71
-16.67
-12.45
-6.30
1.35
9.19
15.50
19.03
19.40
17.30
14.19
11.56
10.40
10.81
12.23
13.66
14.24
13.60
11.97
10.00
8.45
7.76
7.99
8.83
9.74
10.33
10.40
10.03
9.64
9.45
9.67
10.33
11.31
12.42
13.52
14.54
15.44
16.33
17.28
18.37
19.62
21.11
22.83
24.83
27.15
29.69
32.45
35.22
37.81
39.91
41.22
41.42
40.31
37.85
34.02
29.02
23.19
16.96
10.79
5.10
0.14
-3.92
-7.14
-9.67
-11.83
-13.95
-16.31
-19.14
-22.54
-26.48
-30.83
-35.30
-39.62
-43.51
-46.74
-49.14
-50.63
-51.28
-51.21
-50.65
-49.78
-48.83
-47.92
-47.12
-46.30
-45.30
-43.79
-41.42
-37.84
-32.75
-26.02
-17.73
-8.14
2.33
13.17
23.94
34.28
43.99
53.09
61.72
70.13
78.60
87.45
96.95
107.32
118.77
131.32
144.75
158.79
173.14
187.75
202.19
215.98
228.77
240.48
251.15
260.54
268.74
275.54
280.72
283.54
283.17
278.99
270.80
258.81
242.80
222.71
198.53
170.60
138.48
101.72
60.56
16.34
-28.81
-73.98
-117.94
-159.22
-195.64
-227.75
-257.14
-285.17
-312.01
-337.14
-362.64
-389.51
-417.19
-442.07
-464.90
-488.60
-516.65
-551.40
-593.43
-645.13
-703.08
-757.50
-792.69
-802.44
-789.36
-762.87
-734.59
-714.75
-715.00
-737.93
-776.16
-812.16
-836.10
-843.20
-831.02
-797.10
-702.60
-537.91
-325.66
-133.96
25.26
156.54
268.57
362.99
441.46
506.33
554.23
585.35
604.62
623.91
646.29
670.12
692.68
712.25
727.37
731.03
719.27
692.52
657.96
617.33
570.19
517.63
462.29
406.96
348.64
287.00
224.40
167.47
117.97
75.19
40.49
15.30
-0.46
-14.18
-29.34
-46.22
-60.73
-71.34
-78.05
-76.71
-64.11
-40.34
-16.18
2.49
13.27
18.76
20.39
19.30
23.27
39.32
70.69
107.54
145.75
184.62
228.13
278.48
296.28
255.15
151.97
61.33
5.84
-9.51
-8.32
-0.24
7.95
11.42
13.44
17.64
25.21
25.28
13.39
-11.01
-43.34
-80.45
-120.11
-155.80
-182.38
-197.41
-208.92
-221.07
-235.51
-250.04
-263.11
-273.30
-276.21
-268.28
-246.37
-214.80
-177.13
-137.08
-96.79
-58.49
-23.76
8.17
38.35
71.50
108.23
147.53
186.14
220.80
248.96
269.74
284.01
293.19
305.30
325.35
354.12
387.76
421.20
451.21
477.42
501.40
525.30
559.69
611.74
681.29
760.69
839.27
908.24
962.57
1000.27
966.13
832.29
608.03
337.24
70.84
-157.95
-337.94
-471.95
-568.45
-636.71
-676.01
-686.27
-672.10
-643.37
-611.11
-583.21
-562.97
-550.33
-543.46
-533.48
-512.95
-479.66
-437.03
-390.81
-345.58
-303.34
-264.36
-228.12
-191.86
-153.20
-112.50
-73.06
-39.08
-13.47
3.09
11.47
13.34
12.70
13.11
16.19
21.38
27.02
31.42
33.76
33.91
32.13
29.87
28.76
29.72
32.68
36.84
40.96
44.16
45.93
46.26
45.83
45.77
47.22
50.72
57.01
64.09
70.14
73.67
73.98
71.45
67.45
64.16
63.80
67.67
75.10
83.59
89.06
87.17
75.18
52.94
23.61
-7.23
-33.47
-50.22
-54.66
-47.16
-31.00
-11.32
5.96
16.47
18.64
13.51
4.70
-2.73
-4.47
1.20
13.01
27.20
40.00
49.04
52.24
49.03
39.85
25.56
5.98
-15.33
-36.38
-55.16
-69.86
-81.72
-92.69
-104.65
-117.82
-131.69
-144.62
-154.98
-160.70
-160.50
-157.65
-156.51
-161.31
-173.45
-193.07
-218.97
-249.44
-282.29
-297.19
-283.38
-242.74
-189.06
-136.19
-92.84
-61.31
-40.43
-27.19
-17.39
-8.84
1.60
10.85
22.29
35.67
47.04
51.40
46.20
33.25
15.60
4.39
5.05
19.30
43.33
71.05
97.70
121.41
142.48
160.21
173.71
181.21
183.27
180.94
175.68
168.86
161.01
151.72
139.38
122.83
100.95
74.78
47.64
21.98
-0.90
-20.86
-38.55
-54.69
-68.95
-80.68
-88.33
-90.58
-87.74
-81.59
-74.99
-70.86
-71.28
-76.67
-86.52
-98.14
-106.68
-106.22
-91.35
-59.91
-15.59
31.17
70.33
92.13
92.09
73.19
44.28
16.00
-4.04
-14.28
-17.46
-17.55
-17.65
-18.34
-18.42
-17.20
-15.87
-17.33
-25.59
-42.51
-67.18
-96.75
-126.97
-152.84
-169.77
-174.52
-161.09
-132.35
-96.11
-62.04
-38.01
-27.32
-28.18
-35.55
-44.10
-51.15
-56.52
-60.20
-61.16
-57.02
-44.91
-22.86
8.82
47.62
87.30
121.67
147.23
163.26
171.37
174.11
173.76
171.59
167.69
161.49
152.40
140.78
127.52
114.27
102.50
93.01
85.82
80.14
74.93
69.36
63.37
57.13
51.49
47.20
44.53
43.28
42.89
42.58
41.74
41.65
41.19
40.17
38.64
36.64
34.12
31.00
27.27
23.15
19.12
15.39
12.65
11.56
12.74
16.62
23.48
33.17
45.08
58.28
71.19
83.05
94.38
107.31
124.74
148.36
177.01
205.80
227.52
234.89
224.40
197.62
160.27
119.68
82.71
54.64
38.84
39.83
59.54
95.34
138.91
177.92
200.07
198.20
173.26
133.56
90.82
54.68
30.03
16.97
13.05
15.78
23.82
36.47
52.46
69.58
84.84
95.62
100.79
100.84
97.39
92.05
85.52
77.24
65.94
50.14
29.14
3.19
-26.02
-55.85
-83.65
-107.77
-128.10
-145.72
-162.46
-179.94
-199.22
-219.78
-239.39
-254.78
-263.09
-263.18
-256.17
-245.11
-233.55
-224.99
-220.46
-218.16
-214.69
-207.43
-196.04
-182.35
-168.99
-157.73
-151.43
-150.46
-152.40
-153.51
-151.54
-146.71
-140.99
-136.62
-135.07
-142.75
-163.57
-196.15
-234.03
-269.40
-296.17
-310.81
-312.42
-302.88
-295.65
-302.30
-325.80
-359.37
-392.39
-416.44
-427.70
-427.34
-420.76
-427.35
-461.77
-525.48
-606.51
-688.91
-761.25
-818.67
-861.38
-817.41
-652.97
-391.40
-100.42
159.30
361.99
508.28
608.89
675.48
717.80
731.89
716.44
678.45
632.64
592.59
564.68
548.78
541.59
539.37
530.18
506.79
469.58
426.49
385.81
351.33
322.57
297.15
272.68
242.00
202.85
157.28
111.81
72.98
44.09
25.21
14.51
9.54
5.29
-1.62
-11.79
-22.76
-31.55
-36.47
-37.61
-36.15
-33.83
-33.19
-35.63
-41.04
-47.49
-52.72
-54.99
-54.16
-51.18
-47.78
-45.89
-46.77
-50.87
-57.27
-63.90
-68.05
-67.11
-59.29
-44.09
-22.81
1.95
26.68
48.19
64.66
76.25
84.60
91.80
98.37
102.18
99.07
84.50
56.26
16.31
-29.20
-71.51
-101.94
-114.63
-108.87
-87.02
-55.16
-20.48
10.60
33.81
47.69
53.11
52.24
47.39
40.49
32.64
24.73
18.05
13.82
12.72
14.23
16.68
17.95
16.63
12.31
6.02
-0.41
-5.29
-7.81
-8.29
-7.97
-8.32
-10.36
-14.41
-19.90
-25.76
-30.94
-34.91
-37.72
-40.02
-42.60
-46.04
-50.61
-56.11
-62.09
-68.01
-73.48
-78.33
-82.52
-85.96
-88.39
-89.31
-88.02
-84.01
-76.52
-65.17
-50.04
-31.68
-10.99
10.82
32.41
52.47
69.83
83.60
93.20
98.40
99.34
96.46
90.43
82.07
72.17
61.49
50.64
40.07
30.06
20.73
12.10
4.06
-3.50
-10.71
-17.63
-24.27
-30.55
-36.32
-41.47
-45.85
-49.36
-51.93
-53.59
-54.43
-54.61
-54.20
-53.38
-52.35
-51.35
-50.59
-50.26
-50.49
-51.44
-53.24
-55.73
-58.88
-62.68
-67.12
-72.21
-77.87
-83.98
-90.39
-96.97
-103.21
-108.76
-113.40
-116.97
-119.27
-119.98
-118.56
-114.14
-108.39
-101.83
-94.80
-87.61
-80.47
-73.48
-66.55
-59.46
-51.94
-43.82
-34.79
-24.96
-14.76
-4.84
4.33
12.53
19.96
27.08
34.43
42.65
51.97
62.25
73.26
84.79
96.93
109.96
124.22
140.06
157.99
178.42
201.58
227.10
253.51
278.08
297.27
307.79
307.86
297.92
280.24
257.94
233.67
208.98
184.38
160.03
136.43
114.58
95.60
80.08
67.66
57.27
47.72
38.37
29.28
21.03
14.25
9.15
5.39
2.29
-0.84
-4.34
-8.08
-11.59
-14.32
-15.93
-16.45
-16.26
-15.95
-16.04
-16.83
-18.14
-19.40
-19.89
-19.16
-17.33
-15.07
-13.28
-12.61
-13.12
-14.29
-15.46
-16.22
-16.60
-17.04
-17.92
-19.35
-21.09
-22.66
-23.69
-23.97
-23.50
-22.37
-20.69
-18.62
-16.42
-14.30
-12.32
-10.39
-8.21
-5.54
-2.25
1.62
6.04
11.12
17.21
24.69
33.74
44.14
55.16
65.78
74.93
81.99
87.03
90.93
95.12
101.12
109.90
121.53
135.17
149.60
163.75
177.34
190.96
205.89
223.76
246.20
274.53
309.30
349.63
392.53
432.84
464.10
480.35
478.08
457.39
421.81
376.78
327.69
278.47
231.20
186.79
145.81
108.93
76.70
48.93
24.36
0.96
-23.26
-49.27
-76.64
-103.79
-128.89
-150.94
-170.39
-189.06
-209.32
-233.03
-260.57
-290.75
-321.37
-350.24
-376.23
-399.67
-422.12
-445.74
-472.68
-504.56
-542.11
-584.48
-628.49
-668.46
-697.08
-707.30
-694.68
-658.96
-604.17
-537.07
-464.83
-393.07
-325.00
-261.82
-203.67
-150.24
-100.95
-54.64
-9.36
37.43
88.19
144.16
204.20
264.25
317.74
357.55
378.50
379.60
364.66
340.79
315.50
293.78
276.73
262.27
247.33
229.97
210.43
190.60
172.66
157.76
145.50
134.31
122.25
107.99
91.34
73.46
56.29
41.76
30.80
22.92
16.49
9.66
1.47
-7.61
-16.03
-22.21
-25.56
-26.80
-27.39
-28.63
-31.00
-34.03
-36.85
-38.65
-39.00
-37.71
-34.58
-29.46
-22.50
-14.43
-6.46
0.25
5.17
8.76
12.11
16.30
21.69
27.81
33.68
38.47
41.95
44.41
46.17
47.17
46.94
44.96
41.11
35.97
30.48
25.48
21.25
17.52
13.78
9.75
5.68
2.29
0.49
0.89
3.63
8.31
14.09
19.91
24.80
28.06
29.41
28.96
27.21
24.86
22.72
21.55
21.89
23.92
27.22
30.84
33.61
34.60
33.62
31.27
28.50
26.00
23.81
21.36
18.02
13.75
9.33
6.07
5.09
6.68
10.06
13.71
16.16
16.70
15.82
15.19
17.02
23.10
33.87
47.58
60.35
67.01
62.59
43.88
10.38
-35.41
-88.10
-140.21
-183.69
-211.96
-222.34
-217.66
-205.99
-198.16
-203.65
-226.68
-264.43
-308.35
-347.58
-372.94
-379.60
-367.25
-338.55
-297.17
-246.31
-188.18
-124.34
-56.29
13.63
81.58
142.40
190.64
222.19
235.84
233.84
221.01
202.67
182.41
161.17
137.95
111.76
83.79
58.05
40.25
35.14
43.79
62.34
83.03
97.22
98.88
87.00
65.47
40.69
18.23
0.52
-13.31
-25.58
-37.71
-48.96
-56.99
-59.66
-56.87
-50.90
-45.28
-42.83
-44.29
-48.09
-51.56
-52.53
-50.67
-47.83
-47.29
-52.12
-63.34
-78.70
-92.81
-99.04
-92.44
-72.30
-42.87
-11.54
14.43
31.02
38.58
40.50
40.44
40.08
38.60
34.04
25.22
12.77
-1.25
-14.93
-27.78
-41.11
-57.30
-78.62
-106.12
-139.26
-175.96
-213.33
-248.74
-281.10
-311.42
-342.58
-377.67
-417.82
-460.42
-499.23
-526.38
-535.70
-525.34
-498.40
-461.15
-419.93
-378.75
-338.29
-297.06
-253.26
-206.03
-155.60
-102.67
-48.15
6.39
58.24
103.89
140.51
167.81
188.35
206.01
223.31
239.45
250.70
253.14
245.79
231.71
216.31
203.87
195.01
186.90
176.02
161.15
144.37
129.46
118.88
111.77
104.64
93.66
77.07
55.98
32.86
9.65
-12.80
-34.49
-55.31
-74.31
-89.74
-100.17
-105.29
-106.55
-106.70
-107.94
-111.27
-116.47
-122.65
-128.57
-132.71
-133.16
-128.02
-115.80
-94.31
-61.37
-16.24
38.98
98.71
154.57
198.10
226.95
241.07
245.35
247.87
255.90
272.08
293.47
311.85
322.89
325.46
320.21
309.09
293.71
274.76
252.84
229.04
205.02
184.44
170.82
165.77
169.30
179.65
193.81
208.51
220.59
228.62
232.14
230.98
224.14
210.99
191.49
166.43
137.29
105.81
72.52
36.97
-1.62
-45.42
-96.21
-154.72
-220.51
-292.57
-363.13
-425.12
-473.08
-503.85
-519.06
-523.16
-521.49
-518.36
-515.46
-510.82
-500.09
-484.89
-459.60
-421.31
-371.68
-316.35
-262.33
-215.29
-177.42
-148.39
-125.99
-106.56
-88.16
-70.25
-52.44
-33.81
-13.12
10.60
36.82
63.84
90.40
114.61
135.46
153.20
168.79
183.22
196.91
209.33
219.51
227.27
232.51
235.82
238.29
240.97
244.42
248.75
253.73
259.36
266.42
275.91
289.12
307.80
334.13
370.45
418.19
476.22
539.68
600.14
647.37
672.63
671.73
646.24
602.50
548.73
492.01
436.53
383.51
332.37
282.06
231.69
180.37
126.76
69.31
7.30
-57.56
-120.35
-173.63
-209.62
-223.67
-216.65
-195.43
-170.63
-152.68
-147.93
-156.65
-173.62
-190.98
-201.70
-202.22
-193.11
-177.98
-161.34
-146.65
-135.22
-126.42
-118.69
-110.96
-103.28
-96.76
-92.53
-90.79
-90.47
-89.73
-87.12
-82.41
-76.82
-72.31
-70.46
-71.66
-74.94
-78.58
-80.96
-81.40
-80.23
-78.59
-77.72
-78.44
-80.84
-84.33
-87.97
-90.88
-92.58
-93.16
-93.27
-93.76
-95.34
-98.28
-102.20
-106.25
-109.52
-111.48
-112.25
-112.66
-113.89
-116.89
-121.97
-128.55
-135.38
-141.10
-144.82
-146.61
-147.46
-148.78
-151.60
-155.90
-160.43
-163.15
-162.04
-155.80
-144.12
-127.55
-107.16
-84.33
-60.80
-38.53
-19.36
-4.26
7.21
16.96
27.41
40.12
54.61
68.17
77.24
79.31
74.81
67.49
63.19
67.54
83.54
110.09
142.19
172.60
194.32
202.89
197.65
181.47
159.26
136.02
115.17
98.05
84.36
73.21
63.98
56.56
50.95
46.54
41.89
35.13
24.96
11.66
-2.64
-14.50
-20.61
-19.30
-11.26
0.59
12.27
20.24
22.53
19.24
12.12
3.54
-4.56
-11.16
-16.18
-19.93
-22.56
-23.73
-22.83
-19.15
-12.55
-3.56
6.93
18.29
30.48
43.85
58.28
72.16
82.62
85.81
78.59
60.20
32.98
1.70
-28.41
-53.77
-73.64
-88.76
-100.72
-110.36
-116.96
-118.43
-112.35
-97.12
-72.67
-40.59
-2.14
40.83
86.19
131.44
173.97
211.41
242.10
265.51
282.67
298.32
318.23
347.12
386.29
432.19
477.16
512.28
531.12
520.24
475.32
400.22
305.47
204.13
106.93
19.75
-55.64
-119.20
-171.14
-209.91
-235.08
-248.14
-252.32
-251.44
-248.57
-245.31
-241.70
-237.39
-230.81
-221.22
-209.01
-195.56
-182.51
-171.10
-161.62
-153.61
-146.36
-138.56
-129.51
-119.31
-108.68
-98.53
-89.57
-81.94
-75.35
-69.42
-63.45
-57.05
-50.26
-43.38
-36.86
-30.98
-25.85
-21.34
-17.27
-13.40
-9.52
-5.59
-1.65
2.21
5.93
9.51
12.97
16.33
19.46
22.21
24.46
25.99
26.64
26.34
25.17
23.26
20.99
18.77
16.80
15.29
14.28
13.60
12.95
11.90
10.03
7.00
2.63
-3.02
-9.63
-16.62
-23.36
-29.08
-33.12
-35.01
-34.39
-31.43
-26.62
-20.67
-14.29
-8.19
-2.77
1.85
5.88
9.89
14.22
19.00
24.22
29.37
33.51
35.83
35.57
32.22
25.78
16.22
3.57
-11.76
-27.97
-44.75
-61.40
-76.81
-91.53
-103.32
-110.79
-113.62
-112.26
-107.92
-102.43
-97.33
-93.56
-91.36
-89.76
-87.96
-86.19
-85.31
-86.68
-91.84
-101.53
-115.45
-132.13
-149.02
-163.90
-176.23
-186.61
-196.63
-208.63
-225.04
-248.41
-280.72
-322.05
-366.48
-407.90
-438.87
-452.16
-443.35
-412.70
-365.59
-310.36
-253.04
-197.71
-147.07
-102.30
-63.79
-31.71
-6.09
13.47
28.36
45.56
70.58
104.13
142.74
181.41
216.17
245.40
269.60
290.74
318.79
360.66
416.38
480.08
544.44
604.52
658.78
708.12
754.53
809.41
879.50
962.47
1047.99
1123.82
1180.63
1213.56
1221.22
1145.09
962.32
693.90
393.77
114.16
-116.68
-293.48
-422.96
-515.39
-580.53
-616.71
-624.13
-608.79
-581.92
-554.33
-532.75
-519.26
-512.88
-511.52
-505.58
-488.68
-460.51
-426.79
-392.66
-361.05
-332.12
-304.58
-276.91
-243.44
-201.02
-150.75
-99.25
-52.44
-14.05
14.67
34.15
45.50
52.54
58.13
63.27
67.28
69.51
69.64
68.01
65.14
61.34
57.74
54.97
52.90
50.99
49.10
47.26
45.74
44.66
43.70
42.56
40.81
38.16
34.77
31.31
28.49
26.86
27.53
28.82
29.34
27.96
24.15
18.39
12.08
7.00
4.57
5.05
7.38
9.97
11.27
10.41
7.76
4.73
3.03
4.10
8.41
15.72
25.36
35.68
43.71
45.56
37.41
17.41
-12.95
-49.34
-85.66
-116.38
-138.76
-153.44
-163.17
-171.01
-178.69
-186.45
-194.73
-204.46
-217.69
-237.24
-265.67
-303.82
-350.12
-400.90
-445.88
-476.22
-485.53
-471.92
-438.75
-393.22
-343.65
-296.05
-253.00
-214.08
-178.45
-145.56
-115.96
-90.77
-70.62
-54.73
-40.66
-25.69
-8.16
11.27
30.73
48.02
61.72
71.73
79.11
86.50
95.94
107.73
120.02
130.30
136.58
138.27
136.27
132.55
132.10
138.43
151.72
168.72
185.14
197.93
205.95
209.72
210.62
215.76
229.85
252.25
277.35
298.90
313.72
322.38
327.80
333.49
351.00
387.22
439.96
499.20
553.78
597.47
629.74
653.64
673.40
704.62
758.28
834.83
924.06
1011.81
1085.90
1137.26
1159.53
1077.99
860.47
535.49
180.20
-131.90
-366.36
-524.37
-623.86
-684.40
-720.35
-728.72
-706.84
-660.33
-603.69
-552.16
-514.30
-490.99
-478.54
-471.57
-456.85
-426.17
-380.60
-329.45
-283.34
-248.35
-225.52
-212.39
-205.67
-197.22
-182.05
-160.86
-139.39
-123.88
-117.46
-118.51
-124.59
-132.76
-137.88
-136.69
-129.03
-117.68
-105.99
-96.02
-88.28
-82.52
-78.03
-73.25
-67.15
-59.73
-52.02
-45.12
-39.57
-35.37
-32.35
-30.23
-28.74
-27.77
-27.15
-26.96
-27.11
-27.47
-27.88
-28.26
-28.47
-28.29
-28.60
-28.56
-27.80
-26.02
-22.92
-18.32
-12.30
-5.10
2.95
11.35
19.44
26.64
32.81
38.09
42.61
46.38
49.16
50.97
51.52
50.02
46.20
40.54
34.09
27.90
22.65
18.39
15.38
12.96
9.34
3.78
-3.38
-10.92
-17.73
-23.55
-29.23
-35.11
-42.82
-55.16
-73.14
-95.88
-121.23
-147.08
-172.53
-198.67
-226.47
-249.62
-269.27
-288.91
-311.41
-335.95
-357.60
-368.34
-368.12
-348.79
-308.10
-252.31
-192.81
-142.23
-109.79
-98.21
-103.18
-115.71
-120.69
-106.54
-68.25
-8.26
65.13
141.49
211.54
269.00
310.83
341.19
363.12
379.37
391.42
400.81
410.44
424.16
445.52
453.00
431.63
375.27
292.99
200.14
109.60
28.39
-41.17
-99.70
-149.62
-182.73
-203.32
-214.85
-221.72
-227.89
-235.49
-244.45
-253.26
-259.64
-257.70
-251.40
-240.60
-226.33
-210.31
-193.88
-177.68
-162.01
-147.35
-132.77
-118.97
-105.32
-92.56
-81.98
-74.42
-69.99
-68.24
-68.56
-69.57
-70.93
-71.29
-70.35
-68.41
-65.75
-62.62
-59.08
-55.31
-51.24
-47.32
-43.20
-38.86
-34.24
-29.18
-23.38
-16.65
-9.06
-1.07
6.58
13.61
20.10
26.62
34.07
43.44
55.26
69.31
84.61
99.76
113.61
125.77
136.80
148.05
161.01
176.61
194.67
213.91
232.63
249.36
263.66
276.31
289.01
303.87
322.92
347.78
379.23
416.29
455.43
490.38
513.59
518.76
503.82
472.23
431.97
392.10
358.97
333.75
312.94
291.06
263.79
229.94
191.06
149.82
108.39
68.03
29.80
-4.45
-32.03
-50.48
-58.94
-59.05
-54.42
-49.10
-45.63
-44.56
-45.06
-46.39
-49.08
-54.68
-64.48
-77.93
-92.21
-103.42
-108.70
-107.58
-101.78
-93.73
-85.03
-76.30
-68.44
-63.88
-66.55
-79.85
-103.64
-132.63
-157.49
-168.47
-159.73
-131.97
-92.03
-50.08
-15.84
4.48
9.31
1.14
-14.89
-33.03
-48.65
-59.21
-64.23
-64.46
-60.56
-52.56
-40.19
-23.89
-5.64
11.21
23.19
28.25
26.45
19.59
9.98
-0.37
-9.84
-16.68
-18.97
-15.35
-6.40
4.32
10.78
6.46
-12.80
-46.55
-89.29
-132.07
-165.44
-182.50
-181.05
-163.86
-137.25
-108.47
-83.17
-64.00
-50.73
-41.68
-35.42
-31.81
-31.27
-33.49
-36.32
-36.22
-30.22
-18.18
-3.68
7.39
9.85
2.34
-11.65
-25.19
-31.27
-26.04
-10.29
11.28
32.42
47.92
55.24
54.67
48.53
39.84
31.26
24.47
20.00
17.51
16.36
16.02
16.34
17.26
18.49
19.21
18.45
15.70
11.48
7.34
5.03
5.38
7.77
10.39
11.34
9.86
6.69
3.68
2.58
4.20
8.15
13.32
18.64
23.45
27.38
29.88
30.08
27.05
20.54
11.50
1.94
-5.77
-9.98
-10.47
-8.47
-6.02
-4.99
-6.42
-10.25
-15.72
-21.84
-27.87
-33.33
-37.78
-40.56
-40.75
-37.50
-30.58
-20.96
-10.89
-3.51
-1.85
-7.67
-20.50
-37.49
-54.19
-65.82
-68.68
-60.74
-41.74
-13.28
21.00
55.39
82.62
95.65
90.49
68.66
37.75
8.88
-7.50
-6.24
10.50
34.69
55.90
65.59
59.48
38.00
5.09
-33.81
-73.80
-112.09
-148.61
-185.17
-223.31
-261.91
-296.09
-318.27
-321.38
-302.44
-264.25
-213.99
-159.41
-105.50
-53.55
-2.84
46.35
90.80
124.96
143.72
145.45
133.00
112.80
91.99
75.75
66.05
61.74
60.00
58.23
55.41
52.42
50.94
52.04
55.12
58.22
59.34
57.45
53.74
51.51
54.70
65.62
83.29
103.56
121.01
131.93
135.42
134.17
133.52
138.98
153.27
174.88
198.59
217.63
226.52
221.29
200.35
164.70
117.20
61.45
1.17
-59.82
-119.65
-170.00
-202.03
-212.25
-204.08
-184.47
-160.18
-136.05
-114.64
-96.60
-81.01
-67.38
-55.82
-46.20
-37.94
-30.28
-22.69
-14.83
-6.68
1.79
9.58
14.92
16.96
15.70
11.74
5.71
-2.05
-11.69
-23.48
-36.52
-51.09
-66.58
-81.36
-93.43
-101.41
-104.95
-104.86
-102.56
-99.53
-97.16
-96.14
-96.82
-99.29
-102.84
-105.22
-102.65
-90.86
-67.22
-32.91
7.28
46.30
77.61
97.61
106.53
107.51
104.38
100.04
95.69
91.66
88.46
87.43
90.24
97.48
107.29
115.03
114.75
101.38
73.79
35.77
-5.04
-40.11
-63.61
-74.37
-75.64
-72.68
-69.99
-69.37
-70.19
-70.78
-70.12
-69.13
-68.97
-70.82
-74.81
-79.92
-84.49
-86.91
-86.83
-84.06
-79.37
-73.78
-67.92
-61.90
-55.38
-47.93
-39.59
-30.88
-22.78
-16.41
-12.51
-10.94
-10.83
-10.73
-9.11
-4.83
2.62
13.14
26.50
41.28
56.30
70.61
83.61
94.89
104.12
111.11
115.67
117.72
117.25
114.47
109.56
102.81
94.76
85.40
74.89
63.56
51.62
39.28
26.75
14.07
1.40
-11.26
-24.07
-37.15
-50.44
-63.79
-76.81
-88.83
-98.99
-106.00
-108.61
-105.86
-97.15
-82.38
-62.04
-37.14
-8.27
21.87
51.11
77.67
100.13
117.49
129.10
134.67
134.59
128.81
117.34
100.77
79.95
55.90
29.86
2.98
-22.84
-46.48
-67.44
-85.57
-100.59
-112.24
-120.30
-124.47
-124.64
-122.37
-116.57
-106.83
-93.19
-75.72
-54.60
-30.12
-2.66
26.61
56.11
84.05
108.28
126.56
137.58
141.28
139.04
133.90
127.93
122.78
119.62
118.38
117.51
115.47
111.53
106.16
101.87
98.67
95.64
91.20
82.99
67.41
42.37
8.32
-31.51
-70.23
-104.49
-132.73
-154.92
-173.08
-192.42
-218.57
-256.62
-310.67
-372.39
-438.15
-503.36
-561.54
-591.94
-581.36
-528.73
-446.74
-371.31
-312.93
-273.23
-248.93
-230.32
-212.39
-195.13
-180.25
-169.08
-160.91
-150.36
-135.70
-116.76
-94.53
-71.16
-50.38
-34.84
-25.15
-19.56
-12.82
-2.76
11.15
28.26
47.07
64.89
79.46
89.43
94.85
98.10
100.14
101.50
102.46
104.04
106.70
110.43
114.59
118.42
122.19
126.00
130.38
136.21
146.71
164.17
188.86
218.45
248.96
276.77
299.67
317.47
331.54
347.82
371.22
403.26
440.80
477.78
507.93
527.56
536.23
536.14
536.33
545.73
570.59
612.57
668.88
733.78
799.82
858.62
869.36
804.83
659.94
457.66
237.64
36.01
-127.58
-250.36
-339.45
-404.38
-447.23
-467.84
-467.21
-450.45
-426.01
-402.36
-384.86
-374.86
-370.96
-366.30
-355.09
-335.02
-308.21
-279.67
-254.39
-235.12
-222.10
-213.99
-206.34
-195.60
-180.43
-162.04
-143.06
-125.82
-111.39
-99.58
-89.92
-80.77
-71.21
-61.50
-52.65
-45.76
-41.27
-39.05
-38.06
-38.34
-39.54
-41.35
-43.99
-47.97
-53.83
-61.66
-70.50
-77.48
-78.45
-69.38
-48.37
-17.65
16.83
47.38
67.80
75.22
71.00
59.23
43.21
27.02
11.95
-2.43
-16.58
-29.84
-41.17
-49.76
-55.88
-60.99
-66.75
-74.69
-85.17
-97.16
-108.35
-116.56
-120.56
-118.99
-111.57
-98.42
-80.22
-57.71
-31.73
-2.96
26.75
54.80
78.39
94.46
100.78
95.96
80.04
52.59
17.95
-19.83
-57.10
-89.99
-116.52
-134.81
-143.58
-142.25
-131.04
-110.12
-81.57
-48.52
-13.80
19.53
48.64
71.04
84.97
89.62
86.44
76.98
62.77
47.02
32.89
23.01
19.06
21.92
26.36
32.03
38.92
45.66
52.63
59.84
66.70
71.97
74.35
72.67
66.98
62.15
56.18
49.74
43.78
38.51
33.49
28.19
22.37
17.04
14.35
15.34
23.76
42.01
70.27
106.76
149.18
196.27
239.14
273.28
282.16
259.36
208.52
141.22
70.39
5.17
-50.72
-97.50
-135.95
-167.97
-192.25
-207.62
-214.06
-213.82
-209.11
-201.99
-193.91
-184.26
-171.94
-153.17
-124.95
-86.56
-41.32
5.19
47.84
83.41
110.80
128.54
134.95
127.36
103.42
64.31
15.98
-32.89
-74.37
-104.14
-122.85
-133.10
-136.56
-132.34
-116.76
-86.75
-44.10
3.93
47.56
78.56
94.14
99.38
98.96
97.93
99.01
101.08
101.31
97.35
88.69
76.76
63.72
50.67
35.39
19.11
1.32
-18.57
-40.32
-62.76
-83.92
-101.73
-114.99
-123.00
-125.55
-123.52
-117.78
-108.99
-97.61
-83.98
-68.56
-52.33
-36.38
-21.41
-8.88
-0.14
3.90
2.95
-2.28
-10.33
-19.11
-26.13
-28.64
-25.32
-16.23
-2.49
14.33
33.27
54.68
81.18
112.76
150.91
195.95
246.16
297.46
343.62
377.58
392.27
383.02
349.29
295.13
228.69
161.04
103.39
63.37
42.92
36.48
34.57
27.82
9.18
-23.79
-68.01
-116.12
-159.67
-191.20
-208.58
-212.84
-206.66
-194.98
-183.45
-176.80
-178.55
-191.68
-217.32
-256.89
-307.70
-349.08
-359.77
-329.23
-264.46
-184.08
-116.07
-66.38
-36.23
-23.77
-24.66
-33.79
-47.87
-62.91
-73.64
-75.46
-65.37
-47.13
-27.36
-11.56
-3.12
-1.43
-1.77
2.21
14.55
36.35
62.97
89.17
112.57
133.25
152.28
170.38
186.95
199.06
203.16
193.27
164.73
117.42
56.84
-6.79
-60.52
-92.60
-96.99
-72.36
-28.67
14.51
39.33
40.27
23.72
0.71
-17.62
-29.92
-36.52
-39.31
-39.22
-34.75
-22.46
-0.73
29.81
66.05
103.42
140.64
176.96
211.52
242.94
268.41
282.83
279.85
254.77
197.15
112.57
20.02
-58.30
-109.09
-131.88
-134.50
-126.33
-114.04
-100.96
-86.30
-70.16
-54.69
-42.63
-35.23
-31.46
-28.67
-24.00
-15.70
-2.21
15.45
34.02
49.77
60.04
64.01
62.49
56.91
48.41
38.34
26.84
13.55
-1.75
-18.83
-36.57
-52.82
-65.68
-74.03
-77.50
-76.95
-74.14
-70.88
-68.58
-67.86
-67.94
-67.82
-66.66
-64.08
-60.26
-57.49
-55.37
-53.81
-52.62
-50.78
-47.46
-42.48
-36.58
-31.29
-28.35
-28.91
-31.53
-36.73
-43.49
-50.45
-56.59
-61.68
-66.29
-71.18
-76.88
-84.04
-93.45
-104.96
-117.29
-127.61
-131.57
-125.08
-106.19
-76.91
-43.38
-13.79
5.41
11.74
7.20
-3.26
-14.50
-22.96
-27.22
-27.28
-23.37
-14.83
-0.88
18.51
41.63
65.59
87.30
104.17
115.06
120.21
121.16
119.76
117.37
114.55
111.16
106.75
100.94
93.87
86.16
79.02
73.49
70.01
68.35
67.97
67.97
67.56
66.92
65.25
62.55
58.82
54.17
48.52
42.08
34.74
26.74
18.19
9.37
0.76
-7.32
-14.28
-19.86
-23.59
-25.36
-25.10
-23.08
-19.75
-15.50
-10.57
-5.06
0.75
6.49
11.65
16.01
19.29
21.47
23.02
24.40
26.07
27.59
28.13
26.96
24.59
23.02
25.14
33.19
46.33
60.17
67.31
61.45
38.82
4.38
-32.33
-61.70
-79.40
-84.99
-80.63
-68.96
-51.14
-28.64
-4.84
14.02
21.09
11.29
-14.74
-50.64
-87.50
-114.25
-124.72
-121.52
-116.21
-110.00
-102.46
-90.29
-66.91
-31.19
10.78
46.95
65.02
58.63
28.12
-15.83
-55.31
-76.33
-78.00
-67.48
-55.40
-50.28
-54.60
-67.77
-87.93
-112.58
-138.02
-158.56
-167.72
-163.47
-149.75
-133.53
-120.90
-114.52
-112.69
-111.81
-110.53
-109.17
-109.13
-110.62
-111.10
-105.26
-88.56
-58.84
-18.18
27.28
69.72
101.88
119.80
123.89
118.31
109.40
103.85
106.56
118.95
138.50
159.12
172.75
172.08
153.01
116.09
66.79
14.16
-31.52
-61.13
-69.61
-57.73
-31.85
-1.62
23.62
38.90
45.42
49.05
56.63
71.92
93.92
118.26
140.72
159.44
176.11
194.47
217.88
247.66
283.13
322.76
365.62
410.74
454.66
491.62
514.45
516.66
494.87
449.91
386.85
314.03
240.40
171.60
110.28
57.13
12.01
-25.74
-57.60
-86.10
-113.56
-141.85
-173.96
-211.65
-254.15
-298.48
-341.35
-380.84
-417.90
-453.67
-475.40
-471.05
-436.74
-380.10
-313.59
-246.55
-183.26
-126.50
-75.97
-30.58
8.88
41.25
66.06
85.27
100.80
113.75
121.43
122.83
117.35
103.39
79.65
48.34
13.57
-20.19
-49.29
-79.35
-110.62
-141.77
-171.67
-199.23
-223.54
-244.07
-261.16
-256.10
-226.14
-175.30
-112.52
-47.25
13.78
67.08
111.56
146.63
175.09
194.52
204.03
203.67
194.22
176.78
152.17
120.54
85.40
51.43
19.63
-8.59
-32.16
-50.27
-62.45
-68.82
-69.89
-66.38
-59.49
-52.41
-46.84
-43.33
-41.53
-40.71
-40.19
-39.27
-37.43
-34.67
-32.24
-30.81
-30.53
-31.14
-32.26
-33.54
-34.70
-35.53
-36.14
-37.31
-39.62
-43.37
-48.65
-55.24
-62.72
-72.00
-81.18
-88.63
-93.03
-93.23
-88.44
-78.24
-62.59
-42.07
-15.75
13.72
44.10
73.49
100.32
123.23
141.19
153.66
160.44
161.92
159.04
152.85
144.32
134.60
124.30
113.80
103.17
92.54
82.11
71.99
62.12
52.22
41.85
29.78
14.77
-2.88
-22.97
-44.15
-64.26
-80.95
-94.25
-102.11
-104.23
-101.68
-96.24
-89.14
-81.00
-72.07
-62.89
-54.35
-47.76
-45.09
-45.62
-51.37
-63.12
-80.46
-101.98
-125.02
-145.30
-157.07
-155.19
-137.29
-105.95
-67.66
-31.14
-3.85
10.71
13.56
8.96
1.37
-6.77
-15.78
-26.61
-39.66
-53.67
-66.13
-74.39
-77.57
-75.21
-68.14
-57.86
-44.91
-28.83
-8.47
17.25
48.39
82.94
117.74
149.04
173.51
189.56
197.40
198.81
196.26
191.80
186.85
182.48
179.40
178.15
178.42
178.08
173.24
159.52
134.25
98.90
59.32
23.43
-1.74
-13.14
-12.55
-5.11
3.54
9.02
9.46
4.48
-6.24
-23.37
-47.12
-75.67
-104.16
-125.90
-135.22
-129.77
-112.06
-88.58
-66.92
-52.71
-47.79
-50.27
-56.55
-63.48
-69.37
-73.88
-77.33
-79.94
-81.35
-81.20
-79.32
-75.51
-69.65
-61.12
-48.96
-32.06
-9.54
18.91
52.45
88.71
123.54
151.20
165.88
163.89
145.81
116.94
85.91
60.55
45.84
42.32
46.63
53.95
60.19
63.69
64.13
61.48
54.78
42.66
23.89
-1.53
-31.81
-63.86
-93.76
-118.10
-134.82
-143.13
-143.19
-135.76
-121.63
-100.71
-74.78
-45.27
-13.93
17.03
45.39
69.24
87.29
99.07
105.05
105.62
101.54
93.37
81.45
66.14
47.94
27.63
6.38
-14.24
-32.85
-47.93
-58.37
-63.74
-63.76
-58.75
-49.41
-36.55
-21.20
-4.50
12.61
29.17
44.03
56.94
67.36
74.82
79.26
80.65
79.18
75.38
69.83
62.63
54.92
47.05
38.94
30.46
21.38
11.67
1.75
-7.33
-14.75
-18.03
-15.34
-5.50
12.09
37.24
69.19
106.75
152.06
198.17
243.66
286.75
325.05
355.81
376.22
384.16
378.53
359.21
325.90
280.03
223.19
156.68
81.51
-1.51
-90.97
-184.29
-277.74
-367.32
-447.92
-516.01
-569.75
-609.27
-636.57
-655.12
-669.16
-682.85
-699.11
-717.26
-733.28
-740.15
-730.17
-698.46
-645.22
-576.06
-499.79
-425.31
-358.39
-301.14
-252.23
-209.61
-172.48
-141.46
-117.46
-100.21
-87.98
-78.20
-68.81
-56.84
-41.36
-24.20
-8.65
2.65
9.17
12.27
14.18
16.86
25.99
44.73
71.83
102.65
132.39
158.82
182.29
204.57
227.58
260.00
307.24
368.29
436.49
504.35
567.75
626.17
681.20
734.89
798.28
878.04
972.05
1069.95
1159.15
1230.58
1279.40
1303.81
1243.43
1070.13
800.94
490.57
195.09
-53.93
-248.79
-395.10
-502.72
-581.30
-629.17
-645.95
-637.08
-613.53
-588.21
-566.91
-550.08
-535.26
-519.20
-491.79
-446.35
-383.26
-309.04
-234.05
-166.89
-112.45
-72.24
-45.66
-26.29
-8.90
7.92
22.27
31.33
34.14
31.47
24.99
16.36
9.15
5.68
5.78
7.63
9.10
9.01
7.19
3.96
-0.36
-4.83
-6.71
-8.03
-10.52
-15.33
-22.94
-33.28
-45.88
-60.10
-75.28
-90.84
-106.68
-122.40
-137.20
-150.61
-162.35
-172.34
-180.69
-187.65
-193.63
-199.39
-205.30
-210.91
-215.85
-219.70
-222.01
-222.29
-219.94
-213.77
-202.24
-188.37
-173.15
-157.22
-141.00
-124.83
-108.95
-93.71
-79.26
-66.01
-54.42
-44.15
-34.82
-25.91
-17.00
-7.76
1.63
11.32
20.93
29.72
37.56
44.65
51.59
58.87
66.83
74.92
83.90
93.56
102.90
111.13
118.16
124.88
131.91
140.06
148.72
160.35
175.86
194.36
214.39
235.28
257.70
281.94
309.78
342.02
385.26
442.58
510.99
581.35
641.89
682.70
697.88
691.94
675.35
668.38
683.23
717.41
755.65
779.67
779.34
755.37
722.68
642.90
501.39
308.05
93.12
-112.17
-288.14
-411.61
-494.60
-547.68
-581.10
-595.66
-592.35
-574.11
-542.53
-498.82
-443.96
-384.27
-326.56
-281.31
-251.82
-239.08
-241.31
-254.13
-273.05
-293.46
-314.85
-336.04
-357.03
-372.98
-379.12
-373.07
-355.64
-333.33
-313.26
-302.21
-300.97
-305.49
-306.36
-294.75
-266.35
-221.92
-169.51
-117.64
-73.28
-38.21
-9.80
17.38
47.11
71.13
91.52
97.10
78.97
33.28
-35.79
-116.56
-192.93
-249.12
-274.48
-265.08
-227.05
-170.26
-105.62
-41.88
16.04
66.50
109.73
146.03
175.74
196.70
208.09
210.85
208.21
204.94
205.45
211.86
223.06
235.71
244.97
248.78
248.77
249.76
257.13
273.73
297.94
323.84
343.80
351.07
343.39
323.52
297.91
273.79
256.29
246.75
242.78
239.88
233.32
220.13
199.88
174.16
145.70
117.00
89.25
61.57
31.14
-5.28
-50.06
-103.42
-163.68
-227.70
-291.61
-350.84
-399.91
-432.70
-444.24
-433.99
-408.13
-378.50
-357.01
-348.49
-346.56
-335.78
-299.73
-230.27
-133.28
-27.26
64.43
123.87
145.51
136.20
109.75
80.47
58.59
48.03
51.42
66.64
86.37
103.53
114.75
120.42
122.17
121.48
119.58
114.02
102.46
84.62
62.63
39.88
18.73
-0.85
-21.19
-44.42
-72.97
-108.19
-149.24
-192.06
-229.97
-255.38
-262.01
-246.75
-210.62
-158.56
-97.65
-35.20
23.14
72.27
106.85
121.26
111.02
75.48
18.53
-51.61
-125.28
-193.25
-250.55
-296.66
-332.98
-359.40
-373.11
-370.43
-349.60
-312.57
-262.03
-201.73
-135.60
-67.09
1.48
68.54
132.30
190.44
241.05
286.91
332.42
380.91
432.18
482.44
525.20
552.66
557.75
519.24
430.43
305.51
174.47
65.24
-9.83
-53.64
-76.43
-88.15
-94.68
-95.20
-88.04
-74.48
-59.40
-48.13
-43.12
-43.17
-44.72
-43.81
-36.20
-20.92
-1.16
16.88
27.43
27.99
19.73
5.91
-10.03
-24.84
-37.22
-48.10
-60.25
-76.10
-96.18
-118.66
-139.61
-153.70
-154.85
-138.82
-105.64
-60.40
-11.73
31.37
62.73
80.79
88.49
91.40
94.90
101.50
109.76
115.39
113.25
99.66
74.12
39.90
2.92
-30.22
-54.65
-69.20
-75.70
-77.43
-77.17
-75.89
-73.09
-68.30
-62.25
-56.95
-54.95
-57.63
-64.23
-72.47
-79.68
-83.72
-84.22
-83.33
-82.19
-82.07
-83.04
-83.88
-82.74
-78.23
-69.86
-58.60
-46.51
-35.49
-26.83
-20.32
-14.40
-6.22
5.28
20.40
38.14
56.46
73.39
87.45
98.29
106.46
112.63
116.78
118.04
114.75
105.31
88.82
65.14
35.07
0.59
-35.01
-67.26
-90.78
-100.99
-95.91
-77.56
-51.70
-25.60
-5.18
6.85
11.25
10.76
7.80
3.21
-3.49
-12.62
-22.89
-31.24
-34.50
-30.86
-21.25
-8.62
3.37
12.20
17.75
22.22
28.95
40.53
57.71
79.02
101.22
119.89
130.29
128.42
112.65
85.03
51.70
21.69
4.03
4.48
22.77
52.40
83.03
104.49
110.47
100.54
79.40
54.21
31.45
14.65
4.12
-1.89
-5.54
-8.14
-9.83
-10.02
-8.63
-6.59
-5.68
-7.32
-11.50
-16.57
-20.02
-19.69
-14.91
-6.85
2.00
8.69
11.33
9.80
5.48
0.52
-3.01
-4.05
-2.78
-0.28
1.41
0.56
-3.90
-12.28
-23.90
-37.26
-50.38
-61.64
-66.84
-64.81
-56.40
-43.92
-30.12
-17.21
-6.49
1.45
6.28
7.85
5.78
0.68
-5.99
-12.38
-17.24
-20.59
-23.58
-27.52
-32.89
-39.20
-44.87
-48.31
-48.75
-46.65
-43.20
-39.54
-36.18
-32.84
-29.10
-24.44
-18.59
-11.49
-3.17
6.24
16.39
26.53
35.55
42.13
45.36
45.09
41.96
37.18
31.96
27.10
22.83
18.94
15.09
11.24
7.74
5.27
4.43
5.40
7.75
10.49
12.47
12.79
11.22
8.21
4.64
1.39
-1.16
-3.11
-4.84
-6.59
-8.19
-9.07
-8.73
-7.12
-4.83
-2.93
-2.38
-3.46
-5.57
-7.40
-7.62
-5.49
-1.17
4.45
10.24
15.43
19.91
24.05
28.30
32.73
36.92
40.27
42.48
43.91
45.56
48.67
54.00
61.52
70.30
78.72
84.97
87.36
84.50
75.56
60.59
40.82
18.85
-1.90
-18.35
-28.97
-34.54
-37.58
-40.45
-43.34
-43.24
-34.92
-13.84
20.68
64.01
107.69
142.99
164.71
172.92
171.57
165.48
157.19
145.89
128.89
104.03
71.23
32.25
-10.56
-55.29
-99.94
-140.94
-172.05
-185.11
-173.45
-135.78
-78.61
-15.39
37.61
66.71
65.00
33.54
-20.27
-85.82
-152.10
-209.17
-248.34
-262.49
-246.95
-201.67
-133.00
-53.70
19.23
69.32
85.35
64.69
13.89
-53.32
-119.82
-169.36
-189.99
-176.57
-131.51
-64.36
10.56
77.60
123.61
140.69
127.17
86.82
26.89
-43.47
-114.13
-174.71
-215.62
-229.80
-214.33
-171.57
-108.59
-36.15
33.89
90.74
126.53
137.50
124.19
90.36
40.86
-20.08
-89.81
-165.79
-243.56
-315.22
-370.42
-399.30
-396.24
-362.58
-306.68
-241.98
-183.74
-145.81
-138.01
-163.86
-219.09
-291.96
-365.94
-424.33
-455.43
-455.87
-431.00
-392.11
-351.93
-320.65
-303.28
-299.47
-304.77
-312.83
-317.54
-314.68
-302.61
-281.75
-253.99
-221.64
-187.16
-152.95
-121.58
-95.39
-75.88
-62.89
-54.39
-47.27
-38.56
-26.59
-11.42
5.43
21.98
36.67
49.01
59.57
69.18
78.48
87.05
93.57
96.16
93.18
84.05
69.60
51.96
33.89
18.22
7.02
1.22
0.59
4.08
10.27
17.65
24.92
31.16
35.89
39.16
41.45
43.61
46.65
51.61
59.33
70.10
83.60
98.98
114.89
129.82
142.46
151.69
157.06
158.78
157.68
155.11
153.04
153.47
158.15
168.36
184.59
206.60
233.43
263.59
295.10
326.05
354.45
378.49
396.52
407.21
409.55
402.98
387.48
363.68
333.64
299.83
264.87
231.07
200.20
173.81
153.56
141.32
138.63
147.89
169.03
198.84
231.19
258.81
275.87
279.87
271.90
255.43
238.85
229.53
232.06
247.34
272.86
304.27
337.20
368.43
396.28
427.59
469.79
528.27
603.50
690.39
780.46
865.44
939.89
1001.98
1062.20
1132.45
1222.12
1334.08
1462.97
1597.28
1723.28
1829.09
1849.65
1740.42
1483.33
1098.72
640.26
172.47
-253.41
-610.51
-892.99
-1107.29
-1255.26
-1340.09
-1367.73
-1349.20
-1300.42
-1238.28
-1176.10
-1121.10
-1075.45
-1031.34
-980.89
-919.50
-847.96
-772.01
-699.89
-638.65
-591.67
-559.47
-536.44
-516.93
-497.11
-476.23
-456.46
-439.90
-428.31
-421.55
-418.61
-415.97
-410.75
-401.57
-389.45
-377.53
-369.16
-368.25
-370.99
-369.52
-354.18
-317.54
-258.12
-180.57
-94.12
-8.48
69.53
134.43
183.79
216.39
231.45
229.57
214.24
191.66
168.57
149.05
133.25
118.15
100.61
80.11
59.23
42.11
31.44
27.09
26.52
26.91
26.84
26.68
27.57
30.18
34.54
39.65
44.40
48.40
51.52
54.02
56.33
57.79
57.12
52.82
43.38
28.02
7.09
-18.04
-45.12
-71.15
-93.37
-109.57
-118.10
-118.35
-110.32
-94.73
-71.46
-43.43
-13.43
15.82
41.26
61.85
76.62
85.52
88.94
87.50
82.05
73.71
63.04
50.16
35.27
18.30
-0.15
-18.07
-34.99
-50.90
-65.63
-79.46
-92.95
-105.77
-119.75
-132.56
-141.41
-144.22
-139.45
-126.34
-105.65
-79.43
-49.37
-17.44
15.06
47.43
78.26
105.96
128.38
142.85
146.35
137.40
114.62
77.19
27.00
-31.18
-88.49
-133.51
-156.00
-157.06
-140.14
-114.79
-93.90
-87.74
-101.44
-132.43
-172.42
-211.69
-243.11
-262.70
-264.99
-249.73
-213.91
-163.74
-111.69
-71.05
-49.90
-50.09
-64.70
-85.34
-104.88
-117.03
-116.45
-99.68
-64.95
-12.53
53.92
126.54
194.97
249.80
286.52
304.88
307.87
299.93
285.05
265.83
243.99
220.62
196.71
173.70
152.54
133.81
117.84
104.43
92.83
82.23
72.00
61.92
52.41
43.80
36.25
29.88
24.60
20.14
16.11
12.26
8.56
5.26
2.56
0.48
-1.01
-2.06
-2.82
-3.46
-4.02
-4.39
-4.30
-3.44
-1.62
1.34
5.32
10.22
15.80
22.79
30.07
36.78
42.17
45.49
46.04
43.29
37.02
27.22
13.00
-3.98
-22.45
-41.17
-59.04
-75.13
-88.74
-99.42
-106.93
-111.22
-112.19
-109.79
-103.91
-94.52
-81.81
-66.43
-49.43
-32.17
-16.06
-1.93
9.73
18.87
25.94
31.48
35.87
39.10
40.95
41.27
40.39
39.08
38.32
39.31
42.94
49.37
57.71
66.63
74.52
80.31
83.60
84.40
83.69
83.37
85.75
92.57
103.60
115.65
122.84
118.32
96.77
57.80
6.82
-47.04
-94.31
-129.02
-150.51
-162.94
-168.88
-172.77
-178.66
-189.67
-207.71
-232.92
-262.89
-292.45
-314.69
-323.30
-315.55
-292.30
-257.32
-215.15
-169.00
-119.75
-66.67
-8.69
54.45
121.45
190.74
261.34
333.32
407.00
481.53
553.35
616.15
661.91
683.25
676.43
642.99
589.41
524.91
458.31
395.40
338.18
285.77
236.24
188.51
142.70
99.59
59.80
23.77
-7.64
-32.51
-48.42
-53.89
-49.74
-40.04
-30.97
-28.59
-36.34
-53.92
-78.06
-104.71
-130.91
-155.13
-176.40
-192.67
-200.36
-195.59
-176.53
-145.20
-107.38
-70.55
-40.68
-20.04
-6.66
4.15
17.20
35.50
59.47
87.47
116.71
144.18
167.11
183.40
192.09
193.24
187.92
177.53
163.13
145.03
122.84
96.05
64.78
30.14
-5.91
-41.11
-73.80
-103.36
-130.36
-156.04
-181.93
-209.07
-237.63
-267.10
-296.71
-325.95
-354.95
-384.28
-414.58
-446.18
-479.06
-513.10
-548.02
-582.85
-614.84
-638.76
-647.51
-634.27
-595.63
-533.95
-457.60
-378.43
-307.41
-251.03
-209.54
-178.36
-151.31
-123.45
-92.34
-57.30
-18.02
26.12
74.91
125.73
172.58
207.11
221.20
210.59
177.50
130.88
84.37
52.27
45.49
68.77
120.14
192.57
276.68
363.56
446.04
518.74
577.03
616.47
633.09
624.76
592.93
542.88
482.73
421.05
364.39
315.92
275.61
241.15
209.51
178.05
144.87
108.79
69.28
26.68
-17.29
-59.07
-93.56
-115.54
-121.74
-112.83
-93.85
-72.86
-58.03
-54.79
-64.27
-83.78
-109.05
-136.63
-165.57
-197.08
-232.79
-272.36
-312.21
-345.94
-366.51
-369.14
-353.47
-323.92
-287.92
-253.15
-225.08
-205.98
-195.65
-192.81
-196.43
-205.87
-220.64
-240.07
-263.39
-290.26
-320.95
-356.21
-396.14
-439.09
-480.86
-515.33
-536.36
-540.03
-526.25
-498.87
-464.41
-429.77
-399.80
-375.66
-354.94
-333.35
-306.88
-273.74
-234.73
-192.76
-151.52
-113.94
-80.81
-51.10
-23.08
4.61
32.55
61.41
91.26
120.52
145.03
158.86
156.27
134.20
95.10
47.84
7.11
-12.46
-2.44
36.24
95.38
163.36
229.09
285.16
328.38
360.84
385.88
405.37
419.45
429.54
439.07
452.57
473.83
503.12
539.06
575.89
604.39
606.66
569.67
496.67
408.72
336.61
287.28
256.31
234.41
212.18
183.78
148.90
110.57
71.37
33.36
-3.45
-37.73
-69.04
-97.65
-122.87
-141.42
-149.88
-147.28
-136.49
-123.71
-113.41
-107.98
-107.84
-111.90
-117.73
-122.25
-122.21
-114.46
-97.19
-69.31
-32.64
7.55
44.40
72.64
90.84
101.33
107.59
111.07
110.64
102.91
85.03
57.82
26.76
0.11
-14.91
-15.56
-4.38
12.51
28.21
37.72
39.03
32.40
18.90
0.33
-23.62
-53.18
-86.67
-119.32
-143.73
-152.10
-139.92
-108.52
-65.25
-21.24
13.50
33.66
39.85
36.96
30.84
25.33
21.29
17.66
12.92
6.92
0.80
-3.93
-6.56
-7.58
-8.38
-10.55
-14.86
-21.16
-28.24
-34.49
-38.61
-40.10
-39.31
-37.12
-34.60
-31.98
-29.06
-25.20
-19.80
-12.65
-4.09
5.06
13.87
21.54
27.73
32.40
35.86
38.45
40.42
41.86
42.78
43.13
42.83
41.81
39.81
36.67
32.16
26.28
19.35
12.08
5.43
0.19
-3.25
-5.23
-6.31
-7.28
-8.69
-10.32
-11.16
-9.79
-5.00
3.57
14.96
27.72
39.97
50.37
58.90
67.03
77.31
92.52
114.75
142.15
172.24
201.24
224.45
237.18
235.97
219.77
191.15
156.62
125.46
107.32
108.26
127.77
159.41
193.60
221.61
238.47
243.49
238.52
225.76
205.85
177.19
138.69
91.65
40.30
-9.75
-53.93
-90.40
-119.93
-144.82
-168.73
-193.82
-220.13
-245.64
-267.60
-284.05
-294.84
-301.47
-306.38
-314.04
-327.84
-349.05
-376.40
-406.77
-436.76
-463.77
-486.69
-491.45
-467.98
-412.38
-329.90
-232.38
-132.47
-39.10
43.41
113.32
170.15
212.11
238.36
249.88
250.26
244.71
238.30
234.62
234.51
235.53
232.33
220.12
196.57
162.87
122.79
80.98
42.85
10.94
-15.13
-38.68
-63.35
-91.83
-124.08
-156.73
-187.10
-206.25
-205.65
-180.15
-130.43
-63.33
9.47
74.78
121.84
144.73
143.79
126.66
104.39
86.02
75.57
72.27
73.25
76.23
80.93
88.17
97.82
107.43
112.51
109.22
95.78
74.45
50.66
30.51
17.67
11.87
9.05
3.27
-10.71
-35.36
-69.78
-110.43
-149.25
-180.23
-198.42
-200.73
-187.10
-161.14
-128.98
-97.12
-71.68
-51.10
-32.03
-10.11
17.71
51.20
85.11
112.33
125.75
122.33
105.31
81.81
60.32
46.82
42.33
42.79
41.89
34.92
20.48
1.23
-18.30
-33.07
-39.55
-37.15
-28.08
-17.39
-10.83
-12.27
-21.74
-36.53
-52.63
-67.03
-79.03
-89.80
-100.88
-111.21
-117.43
-115.40
-102.60
-79.33
-48.66
-15.15
16.80
43.54
64.52
81.35
96.31
110.77
124.46
135.67
142.17
142.40
136.51
126.55
115.44
105.73
98.67
94.19
91.60
90.35
90.01
89.67
87.15
78.93
61.41
33.13
-3.63
-43.22
-79.09
-106.65
-124.64
-134.13
-136.18
-130.07
-113.59
-85.29
-47.15
-5.37
31.61
56.84
67.95
67.70
61.88
56.18
53.94
55.37
58.73
62.03
64.23
65.51
66.69
68.89
72.37
76.28
79.56
81.19
80.72
78.78
76.75
75.55
74.46
71.05
62.41
47.09
26.23
3.21
-18.27
-36.19
-51.10
-65.16
-80.05
-95.35
-108.48
-116.38
-117.59
-113.27
-106.53
-100.37
-96.14
-93.08
-89.40
-83.64
-75.77
-66.93
-58.70
-52.40
-48.34
-45.76
-43.36
-39.99
-35.12
-29.52
-25.05
-23.55
-26.06
-32.11
-39.94
-47.32
-52.80
-56.13
-58.38
-61.02
-64.43
-68.01
-70.66
-71.68
-70.79
-67.91
-62.29
-52.96
-39.29
-20.88
0.49
20.90
35.98
43.81
43.47
37.77
30.93
25.70
22.92
18.47
4.34
-27.20
-78.07
-141.86
-204.81
-251.05
-268.20
-247.93
-191.35
-108.71
-15.23
75.41
154.41
218.33
266.65
300.03
323.97
343.68
362.48
382.17
404.73
431.52
460.86
486.46
473.04
401.59
282.75
150.56
37.31
-41.39
-85.68
-104.68
-110.29
-111.92
-109.88
-101.86
-87.66
-70.55
-54.81
-43.31
-37.05
-35.94
-39.41
-43.15
-44.29
-43.33
-43.63
-48.70
-60.18
-76.26
-95.31
-115.56
-133.20
-145.29
-151.07
-151.86
-149.66
-145.92
-141.58
-137.68
-134.81
-132.21
-129.48
-127.36
-127.14
-128.99
-130.66
-127.71
-115.61
-91.95
-57.93
-18.87
17.65
44.99
60.28
65.00
63.36
59.49
55.70
52.17
48.11
43.13
37.98
34.13
32.64
33.43
35.18
36.21
35.07
31.52
26.40
21.23
17.51
16.01
16.51
17.94
18.90
18.29
15.83
12.04
7.99
4.83
3.24
3.19
3.99
4.65
4.32
2.64
-0.14
-3.35
-6.16
-8.01
-8.76
-8.61
-7.94
-7.06
-6.23
-5.69
-5.62
-5.99
-6.42
-5.99
-3.64
1.28
8.55
16.94
24.58
30.02
32.76
33.42
33.18
33.01
33.00
32.42
30.34
26.42
21.48
17.19
15.44
17.38
23.04
30.97
38.96
44.96
47.65
47.02
44.13
40.47
37.34
35.79
36.47
39.56
44.05
47.26
45.11
33.47
10.37
-22.46
-59.32
-92.45
-115.01
-123.62
-119.28
-106.11
-88.85
-70.83
-53.44
-36.85
-21.44
-8.49
0.33
3.80
2.04
-3.46
-10.48
-16.83
-21.19
-23.39
-24.22
-24.41
-24.29
-23.49
-21.08
-16.01
-7.63
3.97
18.43
33.83
48.40
60.81
70.45
77.17
81.50
84.03
85.17
85.08
83.63
80.81
76.54
70.83
63.75
55.59
46.83
38.19
30.18
23.16
17.16
11.70
5.92
-1.11
-9.94
-20.44
-31.62
-42.38
-51.49
-58.19
-62.65
-65.83
-69.09
-73.44
-79.00
-84.92
-90.17
-93.62
-94.89
-94.73
-95.12
-98.98
-109.94
-131.63
-163.17
-202.49
-244.14
-279.41
-298.19
-292.25
-258.70
-202.03
-132.57
-62.73
-2.76
42.45
73.15
92.57
104.32
111.42
116.58
123.02
134.28
152.21
175.61
200.00
219.50
229.17
226.56
211.54
185.13
148.64
103.39
51.89
-1.51
-50.90
-89.86
-112.41
-116.18
-103.79
-81.24
-54.50
-27.35
-1.51
22.25
42.95
59.33
70.03
74.35
73.02
67.99
61.70
56.22
52.74
51.39
51.49
51.84
51.25
49.33
46.54
43.83
42.11
41.92
43.31
45.88
48.91
51.69
53.83
55.42
56.86
58.40
60.10
61.74
62.84
62.75
61.12
57.16
50.63
41.99
32.21
22.48
13.98
7.72
4.12
3.00
3.59
4.68
5.36
4.95
3.03
-0.71
-6.57
-15.05
-26.75
-40.31
-55.89
-72.65
-88.85
-102.43
-111.81
-116.42
-116.99
-115.20
-112.83
-111.41
-111.10
-111.26
-111.40
-111.71
-112.55
-113.33
-111.94
-105.74
-93.65
-77.29
-60.73
-48.19
-41.13
-37.05
-30.83
-18.25
1.02
22.66
40.38
49.51
49.52
43.81
37.08
32.46
30.00
27.72
23.40
16.58
8.45
1.01
-4.19
-7.04
-8.74
-11.43
-16.34
-23.84
-33.13
-42.67
-50.86
-56.99
-61.60
-66.10
-72.13
-80.42
-90.59
-101.15
-109.97
-115.15
-115.92
-112.88
-107.44
-101.34
-94.88
-87.31
-76.96
-61.99
-41.28
-15.41
13.39
42.17
68.04
89.54
106.65
120.80
133.08
145.83
160.83
178.39
196.73
211.43
216.35
205.25
174.73
126.86
70.15
17.57
-17.56
-26.20
-8.08
29.31
73.56
112.67
139.00
151.09
152.39
148.03
142.35
137.22
133.57
130.71
127.92
124.14
117.09
103.66
80.51
49.15
14.19
-17.68
-40.28
-50.58
-49.45
-40.69
-28.72
-16.77
-6.54
0.74
3.70
0.63
-9.76
-27.58
-51.64
-79.86
-109.49
-137.51
-160.53
-174.72
-176.74
-165.24
-142.19
-112.73
-83.69
-60.16
-44.57
-36.38
-33.19
-32.73
-34.02
-37.36
-42.99
-50.06
-56.36
-59.57
-58.71
-54.76
-50.41
-48.65
-51.53
-58.86
-68.40
-76.95
-81.84
-82.02
-78.37
-73.16
-68.68
-66.15
-65.07
-62.94
-56.74
-44.10
-23.73
4.40
38.93
76.93
113.57
142.22
157.01
154.80
137.00
109.49
80.55
57.43
43.67
38.33
37.85
38.42
38.07
37.01
36.34
36.68
37.37
36.91
34.11
28.97
22.86
17.59
14.72
14.54
16.21
18.13
18.82
17.53
14.55
10.99
8.24
7.18
7.94
9.84
11.85
13.04
13.04
12.14
11.11
10.79
11.63
13.49
15.80
17.89
19.35
20.24
20.95
21.99
23.58
25.44
26.71
26.31
23.56
18.53
12.12
5.83
1.13
-1.09
-0.84
1.11
3.58
5.77
7.60
9.57
12.42
16.11
19.55
20.71
17.22
7.37
-9.05
-30.96
-56.46
-83.11
-108.79
-131.04
-146.92
-153.27
-148.23
-132.13
-108.32
-82.04
-58.32
-39.32
-24.28
-10.27
4.93
21.02
34.37
40.86
38.35
28.82
17.94
12.19
15.40
26.91
42.43
56.70
66.42
71.46
74.17
76.87
80.03
81.74
78.43
66.92
45.85
16.30
-18.11
-51.59
-78.02
-91.97
-91.79
-80.20
-63.43
-48.73
-41.44
-42.80
-49.98
-58.41
-64.13
-66.23
-66.72
-68.68
-74.08
-82.68
-91.79
-97.77
-97.76
-90.62
-77.11
-59.72
-41.11
-22.95
-5.65
11.90
31.38
53.45
77.99
103.83
129.11
151.93
170.22
181.10
181.11
167.57
139.30
99.95
58.08
24.77
9.38
15.42
38.31
68.05
93.36
106.19
104.43
90.84
70.21
45.83
20.27
-6.03
-32.62
-57.92
-79.36
-94.22
-101.70
-103.36
-102.29
-101.71
-103.99
-109.37
-116.39
-122.86
-126.78
-127.49
-125.65
-122.61
-119.54
-116.90
-113.69
-108.15
-98.50
-83.57
-63.49
-39.58
-13.93
10.88
33.07
51.72
66.65
78.08
86.37
91.74
94.29
94.61
92.73
89.23
84.96
80.69
76.92
73.69
70.70
67.54
63.93
59.88
55.97
52.86
51.03
50.45
50.59
50.56
49.59
47.35
44.19
41.14
39.38
39.65
41.90
45.24
48.32
50.08
50.01
48.52
46.71
45.73
46.48
49.52
55.12
63.07
72.00
78.93
79.78
70.78
50.58
21.59
-10.41
-38.35
-56.77
-63.96
-62.00
-55.02
-46.81
-39.16
-31.80
-23.66
-14.35
-4.57
4.28
11.05
15.56
18.39
20.36
22.04
23.08
22.49
19.08
12.08
1.52
-11.39
-25.21
-38.27
-49.27
-57.48
-62.87
-65.81
-66.88
-67.01
-66.42
-65.62
-64.91
-64.43
-64.14
-63.80
-63.08
-61.80
-60.11
-58.40
-57.48
-58.07
-60.40
-64.09
-68.18
-71.59
-73.62
-74.17
-73.86
-73.81
-75.05
-78.37
-84.29
-92.91
-103.46
-113.78
-120.35
-119.10
-107.36
-85.38
-57.06
-28.71
-6.74
5.11
6.79
1.43
-6.69
-14.19
-19.60
-22.74
-23.65
-21.69
-15.55
-4.07
12.77
33.45
55.28
74.93
90.25
100.59
106.72
110.22
112.73
115.13
117.31
118.27
117.21
113.19
106.47
98.41
90.95
85.82
83.88
84.73
86.80
88.17
87.52
84.48
79.85
75.08
71.61
70.42
71.94
76.28
82.99
90.53
95.97
95.28
84.83
63.37
33.42
0.74
-27.64
-46.38
-53.91
-52.35
-45.95
-38.44
-31.47
-24.59
-16.71
-7.29
2.88
12.05
18.69
22.09
22.63
21.23
18.95
16.15
12.51
7.21
-0.66
-11.28
-24.38
-38.78
-52.65
-64.07
-71.55
-74.55
-73.63
-70.57
-67.04
-64.74
-64.51
-66.06
-68.14
-69.16
-68.11
-64.78
-60.11
-55.45
-52.22
-51.06
-52.24
-55.79
-61.51
-68.51
-74.31
-74.68
-64.63
-41.22
-6.19
33.22
65.87
81.17
73.72
45.58
4.97
-37.73
-74.20
-99.90
-113.35
-114.26
-102.36
-78.13
-44.45
-7.37
25.44
47.33
55.79
53.31
45.45
37.86
33.68
32.81
32.70
30.16
23.06
11.08
-3.97
-18.87
-30.13
-34.88
-32.23
-23.28
-11.14
-0.12
6.54
7.32
3.16
-3.01
-7.46
-7.77
-3.42
4.10
12.50
20.23
27.31
35.29
46.18
60.11
74.22
84.06
85.27
76.10
59.71
42.28
30.19
26.67
30.59
36.75
38.86
32.73
18.16
-0.46
-16.50
-24.30
-22.13
-13.42
-5.35
-5.26
-16.54
-36.75
-57.98
-70.92
-69.78
-55.22
-33.37
-12.08
3.03
11.01
14.49
16.68
18.14
16.76
10.10
-2.23
-18.15
-34.23
-47.45
-56.65
-62.22
-65.09
-65.62
-63.94
-60.57
-57.11
-56.06
-59.39
-67.22
-77.26
-85.99
-90.26
-88.76
-82.03
-71.45
-57.91
-41.23
-21.19
1.97
26.60
50.67
71.76
88.00
98.40
103.30
103.92
101.82
98.43
94.66
90.91
87.03
82.72
77.81
72.45
67.04
62.03
57.77
54.36
51.78
49.71
47.71
45.49
42.96
40.32
37.80
36.26
35.73
36.37
38.10
40.49
43.08
45.45
47.69
49.34
50.27
50.27
49.11
46.27
41.05
32.76
21.14
6.76
-9.05
-24.30
-36.89
-45.02
-47.75
-45.29
-38.66
-29.26
-18.46
-7.11
4.36
16.00
28.08
40.97
54.76
68.47
79.56
84.36
79.63
63.86
38.82
9.28
-18.21
-37.35
-44.13
-37.90
-21.10
1.74
25.07
44.06
54.98
56.48
49.90
38.71
27.17
18.73
15.35
16.77
21.88
28.53
35.02
40.65
45.34
49.04
51.41
52.25
51.26
48.96
44.24
36.32
25.40
12.33
-2.39
-19.64
-35.80
-49.65
-60.36
-70.55
-82.46
-96.51
-111.41
-125.66
-138.79
-151.14
-164.17
-179.07
-200.36
-230.86
-269.89
-313.52
-356.92
-396.33
-429.27
-454.69
-446.94
-393.11
-299.25
-187.39
-79.79
11.40
83.53
138.88
180.84
212.61
232.90
241.19
239.56
232.66
225.27
220.39
218.81
219.81
222.21
221.20
213.27
197.65
176.38
152.21
127.17
102.04
78.71
57.81
37.77
17.61
-2.32
-20.22
-34.25
-43.30
-47.63
-48.05
-45.80
-42.93
-40.85
-40.18
-40.39
-40.67
-40.24
-39.10
-37.32
-35.14
-33.09
-31.32
-29.86
-28.08
-27.01
-24.72
-20.47
-14.04
-5.62
4.36
15.29
25.97
35.56
43.22
48.45
50.46
48.83
43.38
34.45
24.83
14.37
3.50
-7.09
-16.60
-24.71
-31.30
-36.41
-40.02
-42.43
-44.21
-45.51
-46.42
-46.96
-47.47
-48.15
-49.17
-50.36
-51.77
-53.46
-54.94
-55.83
-55.81
-54.82
-52.90
-51.73
-50.06
-47.24
-42.75
-35.78
-25.73
-12.63
2.81
19.36
35.47
50.12
62.25
71.43
77.98
82.29
84.31
83.59
79.35
70.91
58.27
41.87
23.04
3.55
-15.10
-32.39
-48.81
-65.50
-83.94
-105.33
-130.83
-160.59
-192.72
-222.76
-244.20
-250.18
-235.97
-201.73
-153.11
-100.01
-53.10
-19.97
-3.86
-3.67
-17.00
-39.67
-67.56
-97.33
-126.27
-153.17
-174.66
-186.50
-185.13
-168.82
-137.46
-92.36
-34.78
34.06
110.12
187.05
257.14
313.49
351.77
371.19
373.31
361.10
338.10
307.94
274.56
241.43
211.14
184.89
162.96
144.57
128.55
113.61
98.88
84.42
70.82
58.81
48.69
40.64
34.36
29.18
24.37
19.40
14.23
9.17
4.70
1.00
-1.62
-3.13
-3.80
-4.13
-4.58
-5.54
-7.22
-8.03
-9.49
-12.17
-16.46
-22.46
-30.17
-39.44
-49.84
-60.80
-71.67
-82.17
-91.83
-100.49
-107.99
-114.46
-120.14
-125.36
-130.43
-135.49
-140.75
-146.00
-151.04
-154.87
-156.87
-156.92
-155.44
-153.18
-150.77
-148.98
-148.27
-149.17
-151.17
-153.88
-157.10
-160.77
-164.65
-168.15
-170.24
-169.18
-167.53
-164.95
-161.15
-156.34
-151.27
-146.70
-142.90
-139.71
-136.69
-133.52
-126.89
-114.73
-97.22
-76.52
-55.33
-35.32
-17.03
-0.38
14.69
33.59
59.78
92.60
127.50
159.44
185.68
206.13
222.06
234.96
254.28
286.37
331.03
381.86
431.54
476.35
516.47
554.00
590.83
638.49
704.06
786.10
875.20
960.73
1036.79
1102.48
1159.55
1142.86
1017.80
796.62
533.58
284.17
75.31
-92.87
-231.79
-351.91
-457.26
-535.37
-574.98
-575.16
-547.45
-508.75
-472.20
-443.89
-424.05
-409.85
-390.21
-358.11
-314.51
-266.88
-224.65
-193.39
-174.58
-167.12
-169.56
-175.55
-180.71
-184.39
-188.06
-194.00
-202.51
-212.31
-221.83
-230.41
-235.68
-236.01
-230.58
-219.27
-201.74
-177.00
-144.79
-106.85
-67.33
-30.58
-0.49
21.03
34.14
40.75
43.82
45.82
47.74
49.07
48.84
46.29
41.62
35.55
28.67
21.53
14.50
8.68
4.76
3.35
3.88
4.15
0.92
-7.99
-21.47
-35.08
-42.49
-37.95
-20.96
3.87
30.69
52.98
66.68
71.27
68.91
63.08
56.85
51.90
48.54
46.42
44.16
40.46
34.83
27.47
19.55
12.51
6.85
1.77
-4.62
-14.77
-30.44
-52.04
-78.69
-107.89
-136.25
-160.02
-175.46
-179.67
-171.94
-155.48
-137.61
-127.28
-129.66
-143.38
-160.29
-169.20
-161.83
-137.12
-102.32
-65.68
-38.09
-25.88
-28.78
-41.14
-55.70
-66.50
-67.86
-56.22
-36.98
-16.25
4.56
25.73
50.09
82.00
125.54
182.57
250.40
321.28
376.09
395.77
371.17
309.29
227.66
142.78
63.61
-8.56
-75.57
-137.56
-191.42
-232.16
-254.44
-256.70
-242.06
-216.00
-183.90
-149.17
-111.30
-70.48
-27.10
17.65
60.76
97.66
124.47
138.86
140.49
131.34
115.09
96.60
80.12
67.77
59.02
52.68
47.28
41.34
34.31
26.15
17.86
10.35
6.59
4.51
2.65
-0.22
-5.02
-12.27
-22.17
-33.38
-44.25
-53.09
-58.63
-59.28
-54.47
-44.84
-32.09
-18.78
-6.29
4.46
13.50
21.65
31.11
43.62
60.38
82.58
104.45
124.18
141.54
157.26
172.60
189.43
208.50
230.08
254.31
280.77
308.59
333.94
350.46
351.62
333.58
295.67
241.94
179.73
116.61
58.61
7.78
-36.74
-76.40
-111.48
-143.00
-171.92
-199.62
-227.91
-258.08
-291.60
-329.44
-371.30
-403.35
-412.04
-390.03
-341.06
-276.46
-207.22
-140.94
-81.29
-28.67
18.49
60.42
96.49
126.10
147.66
160.44
164.47
160.43
149.69
133.71
110.80
82.32
50.77
18.25
-12.66
-39.61
-60.96
-75.51
-82.75
-83.67
-80.06
-74.13
-69.03
-66.46
-66.91
-69.99
-74.27
-77.87
-79.05
-79.43
-77.52
-74.12
-70.05
-66.11
-62.76
-59.78
-56.77
-53.62
-50.75
-45.71
-41.97
-42.20
-47.69
-58.57
-74.03
-92.80
-112.38
-128.48
-135.34
-128.46
-105.33
-67.78
-22.22
22.37
58.01
80.29
89.63
89.74
84.32
75.94
65.23
51.76
35.43
17.45
-0.23
-15.94
-29.13
-40.63
-51.77
-62.76
-72.41
-78.34
-77.77
-68.55
-50.08
-23.94
6.81
38.31
66.99
90.84
109.52
123.82
134.86
143.40
149.39
152.18
151.32
146.98
140.12
132.22
124.78
118.87
115.17
114.01
115.13
117.41
118.53
115.21
104.29
84.33
56.81
25.78
-3.56
-26.90
-42.31
-50.24
-52.49
-50.87
-46.42
-39.47
-30.45
-20.53
-11.32
-4.40
-0.49
0.71
-0.02
-1.93
-4.60
-8.13
-13.02
-19.59
-27.74
-36.52
-44.22
-48.68
-48.02
-41.47
-30.02
-16.39
-4.22
3.06
3.65
-1.99
-11.41
-21.21
-28.50
-31.90
-31.82
-29.68
-27.18
-25.34
-24.15
-22.98
-21.02
-17.92
-13.99
-10.05
-6.90
-4.99
-4.18
-3.76
-2.74
-0.28
3.88
9.54
16.06
22.62
28.44
32.89
35.52
36.17
35.61
35.97
40.83
54.19
78.72
114.00
155.95
198.15
234.22
260.09
274.97
280.70
280.18
275.96
269.57
261.77
252.90
243.72
234.79
225.59
214.50
199.62
180.17
157.06
132.58
109.56
90.15
75.11
63.85
54.90
46.41
36.44
23.36
6.26
-14.68
-38.17
-62.44
-85.71
-106.86
-125.63
-142.45
-158.22
-174.06
-191.39
-211.52
-235.21
-261.69
-288.06
-310.02
-323.58
-327.41
-323.76
-317.56
-313.92
-315.82
-323.63
-336.47
-354.02
-376.82
-405.08
-436.18
-463.76
-479.27
-475.58
-450.24
-406.24
-350.01
-288.33
-226.67
-169.34
-120.91
-87.02
-73.02
-81.64
-111.20
-156.47
-210.93
-269.42
-328.58
-385.30
-434.80
-469.91
-482.97
-469.21
-429.53
-370.81
-303.25
-236.54
-176.77
-125.85
-82.63
-45.35
-13.26
13.21
33.33
47.27
56.53
63.54
70.66
79.41
90.07
101.87
113.74
124.90
135.25
145.39
156.22
168.51
182.55
198.05
214.28
230.50
246.11
260.83
274.63
287.63
300.22
313.09
327.31
343.97
363.69
385.80
408.07
427.12
439.54
443.18
437.88
425.35
408.13
388.59
368.26
347.86
327.63
307.54
287.16
265.37
240.44
210.78
175.96
137.54
98.87
63.80
34.94
12.57
-5.44
-22.35
-40.77
-61.26
-82.03
-99.93
-112.12
-117.74
-118.49
-117.81
-119.12
-123.92
-130.88
-136.49
-136.82
-129.60
-115.28
-96.55
-76.73
-57.82
-39.84
-21.49
-1.97
17.57
33.92
43.39
44.04
37.03
26.17
15.62
7.33
-0.23
-10.87
-27.74
-50.31
-73.15
-87.43
-84.43
-59.51
-14.57
42.19
98.76
142.87
165.44
162.38
134.88
88.30
30.39
-30.34
-86.01
-130.15
-158.49
-169.37
-164.08
-146.52
-122.33
-97.52
-77.07
-64.10
-59.79
-63.95
-75.68
-93.61
-115.77
-139.25
-160.05
-173.57
-175.71
-164.11
-139.04
-103.32
-61.26
-17.16
26.13
67.53
106.83
143.15
173.72
194.37
201.67
195.64
181.18
166.82
161.11
168.46
186.55
207.26
220.52
218.93
200.78
169.90
132.81
95.16
59.69
26.98
-1.84
-22.72
-28.85
-13.72
24.60
80.59
142.38
196.36
233.20
251.64
258.12
262.55
272.55
289.68
309.20
323.30
325.74
315.34
296.81
278.53
268.76
271.76
285.45
302.04
311.28
304.99
280.56
242.13
198.70
160.38
134.57
123.75
125.71
135.52
147.87
158.74
166.11
169.52
169.30
165.98
159.86
151.34
141.18
131.09
123.57
121.23
125.66
136.59
152.00
169.09
185.42
199.47
210.87
219.95
227.09
232.28
235.03
234.63
230.27
221.11
206.14
183.98
153.16
112.47
61.69
1.99
-64.05
-132.94
-201.15
-265.86
-325.29
-378.68
-426.18
-468.46
-506.36
-539.99
-567.45
-583.83
-581.54
-552.52
-492.00
-401.84
-291.49
-175.99
-71.31
10.79
65.71
95.83
107.79
108.81
104.14
96.61
87.61
78.04
68.71
59.73
49.92
36.78
17.33
-10.45
-46.42
-88.08
-131.24
-171.71
-206.67
-235.51
-259.64
-281.32
-302.26
-322.88
-342.25
-358.81
-371.37
-379.99
-386.29
-393.38
-405.49
-426.94
-460.66
-506.81
-561.91
-619.04
-669.86
-707.74
-730.04
-738.88
-739.70
-737.95
-736.50
-734.65
-728.91
-715.29
-691.52
-657.63
-615.41
-567.37
-515.44
-460.83
-404.84
-349.33
-296.84
-250.17
-211.23
-180.76
-158.36
-142.65
-131.79
-124.54
-120.61
-120.66
-125.53
-135.23
-148.63
-163.49
-176.72
-184.75
-184.98
-176.39
-159.79
-137.18
-110.59
-81.73
-51.59
-20.45
12.89
49.22
88.12
127.85
166.46
202.98
237.47
270.57
303.07
337.52
374.81
413.14
448.34
476.34
495.51
507.00
513.82
519.63
531.28
552.78
583.17
617.04
648.04
672.25
688.66
698.03
701.87
706.92
718.32
736.98
759.15
779.09
791.35
791.04
774.13
707.33
577.73
402.41
222.09
73.38
-29.50
-91.84
-127.03
-147.54
-160.81
-164.52
-155.99
-136.70
-112.98
-92.06
-77.55
-69.05
-63.99
-59.40
-48.76
-30.29
-7.06
14.01
25.98
25.23
11.95
-11.26
-41.22
-70.56
-94.32
-111.06
-122.40
-130.96
-138.17
-143.97
-147.64
-148.41
-144.80
-136.81
-125.72
-113.61
-102.69
-93.99
-87.48
-82.59
-78.48
-74.09
-69.17
-64.03
-59.21
-55.52
-53.19
-51.90
-51.20
-50.55
-49.25
-46.95
-45.14
-42.81
-39.86
-36.72
-33.45
-30.16
-27.03
-23.58
-19.23
-13.33
-5.14
5.35
17.61
31.31
45.43
58.52
69.41
77.19
81.10
80.45
74.46
62.64
45.55
25.65
3.60
-19.58
-42.47
-63.69
-82.62
-99.19
-116.51
-132.66
-145.53
-152.82
-151.35
-138.66
-113.42
-76.71
-31.72
16.68
64.19
106.42
140.35
165.37
181.55
189.68
189.47
180.14
160.85
131.97
93.83
46.93
-8.08
-70.73
-132.93
-185.02
-217.19
-223.50
-204.15
-166.84
-123.57
-85.82
-60.97
-50.04
-50.18
-56.87
-66.43
-76.89
-88.32
-101.23
-114.79
-127.61
-137.86
-145.10
-149.87
-154.64
-158.35
-158.79
-153.07
-138.35
-112.85
-76.28
-30.34
22.12
77.24
130.53
178.41
218.73
250.34
272.65
285.83
290.33
287.35
278.59
266.53
253.51
241.70
232.95
228.19
226.60
225.00
218.13
200.87
171.20
131.58
88.66
51.06
25.44
13.67
12.45
16.00
17.52
13.32
2.32
-14.54
-36.10
-61.97
-92.01
-125.18
-158.57
-187.74
-207.33
-213.04
-202.60
-177.05
-140.72
-100.23
-62.49
-33.11
-15.69
-10.72
-17.09
-31.94
-52.11
-75.05
-98.83
-121.51
-141.17
-156.78
-166.72
-169.84
-163.47
-144.22
-109.97
-61.37
-2.40
59.63
115.15
157.04
177.22
173.51
149.93
114.79
78.00
45.83
29.53
29.23
41.85
58.22
69.99
73.01
69.33
64.48
66.90
76.36
87.21
94.79
96.80
93.35
89.17
88.66
87.24
78.39
56.58
20.15
-22.89
-69.90
-119.21
-170.92
-226.06
-285.44
-347.18
-399.80
-428.90
-422.51
-377.94
-300.21
-199.13
-87.26
22.20
117.84
191.68
239.53
262.06
263.47
258.20
251.82
246.20
241.32
237.04
233.15
228.33
219.77
204.55
169.45
115.81
49.70
-21.33
-89.14
-147.51
-193.34
-227.78
-253.35
-271.97
-282.73
-285.34
-279.44
-262.79
-234.11
-194.41
-149.11
-101.37
-52.51
-0.37
53.41
107.24
162.51
220.10
278.53
331.12
373.94
404.74
423.67
429.94
405.96
345.97
257.85
176.87
112.16
65.18
29.72
4.95
-10.44
-17.97
-21.03
-22.39
-25.44
-36.21
-55.69
-82.37
-112.71
-144.49
-176.02
-203.85
-225.30
-239.81
-250.81
-259.45
-267.54
-273.23
-274.67
-270.13
-256.90
-232.94
-197.94
-154.61
-104.69
-52.55
-2.01
43.24
80.46
108.98
129.29
142.15
147.66
146.81
140.94
132.12
121.91
111.22
101.02
91.94
84.11
76.92
69.89
62.64
55.44
48.55
41.99
36.12
31.24
27.54
24.91
23.18
22.05
21.33
22.37
23.62
24.13
22.98
19.48
13.00
3.15
-10.09
-26.22
-44.45
-63.67
-82.48
-99.79
-114.81
-127.08
-136.32
-142.39
-145.26
-145.06
-141.65
-135.09
-125.91
-115.01
-103.49
-92.42
-82.59
-74.57
-68.62
-64.04
-60.33
-57.28
-54.83
-52.76
-50.34
-45.85
-36.48
-24.98
-11.01
5.82
25.39
47.07
70.03
93.54
117.26
141.20
165.40
190.86
218.35
248.62
282.25
318.74
355.71
388.51
411.02
417.47
405.37
375.76
333.08
283.42
232.42
183.85
139.52
100.17
66.30
38.88
18.22
3.39
-7.76
-17.69
-27.74
-37.21
-43.43
-43.09
-33.86
-16.22
6.15
27.49
42.05
46.29
40.11
26.82
11.62
-0.34
-5.77
-4.12
2.72
11.46
18.69
21.87
20.04
13.67
4.33
-5.94
-15.25
-22.33
-26.84
-29.54
-32.32
-37.63
-47.54
-62.43
-80.24
-96.31
-105.03
-101.99
-85.97
-59.81
-29.37
-1.29
19.49
31.19
35.13
33.98
30.09
24.10
14.95
1.02
-18.76
-44.20
-74.33
-107.87
-143.28
-178.04
-207.81
-226.43
-227.12
-204.89
-158.54
-91.39
-10.05
77.66
164.72
245.41
314.64
367.54
399.12
406.41
390.23
355.67
310.52
262.93
218.86
180.75
148.03
117.37
85.10
48.50
6.45
-40.05
-87.16
-127.78
-152.66
-153.53
-128.49
-83.17
-29.76
16.82
44.49
48.13
31.11
2.50
-27.90
-57.41
-86.73
-116.71
-145.75
-169.87
-184.97
-188.39
-180.13
-162.83
-148.11
-144.51
-153.21
-168.59
-183.40
-193.81
-200.55
-207.97
-222.24
-260.66
-333.72
-438.94
-561.87
-684.58
-792.68
-877.36
-934.96
-966.10
-989.46
-1019.83
-1060.43
-1103.52
-1139.54
-1164.16
-1178.93
-1188.78
-1105.44
-891.44
-575.96
-237.12
56.27
275.82
424.91
520.49
582.22
628.10
657.47
669.95
670.30
667.23
666.19
666.58
665.15
660.31
653.38
635.41
601.03
552.41
498.62
449.38
410.54
383.84
368.15
360.70
350.84
331.05
300.63
265.45
232.83
207.48
190.71
181.27
176.71
170.82
159.38
142.07
122.07
103.55
89.60
81.77
79.81
81.73
82.52
76.71
60.56
33.70
-0.58
-36.43
-67.20
-88.19
-98.05
-99.09
-95.69
-92.11
-90.61
-91.00
-92.34
-92.29
-89.82
-84.92
-78.05
-69.39
-58.73
-45.83
-30.92
-15.28
-0.79
10.42
17.15
19.62
19.39
18.59
19.01
21.41
25.29
29.39
32.15
32.58
30.52
26.66
22.15
17.92
14.56
12.26
10.99
10.68
11.36
13.03
15.49
18.28
20.79
22.51
23.13
22.56
20.69
17.33
12.40
5.99
-1.47
-9.21
-16.37
-22.31
-26.76
-29.80
-31.88
-33.52
-35.22
-37.43
-40.34
-43.79
-47.38
-50.56
-52.71
-53.43
-52.65
-50.48
-47.57
-44.62
-42.34
-41.25
-41.61
-43.40
-46.38
-50.31
-54.97
-60.23
-65.75
-70.83
-74.46
-75.46
-72.97
-66.84
-57.74
-46.94
-35.82
-25.34
-15.82
-7.18
0.71
7.70
13.20
16.57
17.48
16.14
13.40
10.41
8.23
7.59
8.81
11.89
16.75
23.28
31.32
40.53
50.19
59.25
66.48
70.78
71.55
68.91
63.82
57.66
51.93
47.66
45.16
44.05
43.51
42.77
41.59
40.47
40.69
43.96
51.88
65.19
83.42
104.85
127.00
147.42
164.34
177.10
186.08
192.29
196.96
201.07
205.27
209.71
214.04
217.40
218.60
216.53
210.55
200.72
187.47
171.10
151.15
126.27
94.87
56.12
11.03
-37.40
-84.71
-126.38
-159.07
-181.33
-193.37
-196.38
-191.92
-181.68
-167.84
-153.13
-140.62
-132.79
-130.34
-131.66
-133.15
-130.62
-121.18
-104.43
-82.67
-59.82
-39.82
-25.20
-16.48
-12.57
-11.76
-12.64
-14.61
-17.70
-22.08
-27.64
-33.67
-39.18
-43.18
-45.13
-45.07
-43.51
-41.21
-38.81
-36.65
-34.63
-32.47
-29.88
-26.90
-23.95
-21.72
-20.85
-21.71
-24.20
-27.89
-32.38
-37.51
-43.46
-50.60
-59.03
-68.22
-76.99
-83.69
-86.81
-85.58
-80.13
-71.45
-60.90
-49.68
-38.54
-27.72
-17.15
-6.76
3.40
13.19
22.50
31.30
39.66
47.47
54.42
59.97
63.60
64.96
64.10
61.44
57.59
53.19
48.70
44.40
40.40
36.67
33.02
29.19
24.77
19.40
12.88
5.30
-3.04
-11.71
-20.26
-28.33
-35.46
-41.05
-44.28
-44.33
-40.74
-33.63
-23.87
-12.87
-2.13
7.10
14.02
18.24
19.62
18.18
14.12
8.00
0.80
-6.24
-11.90
-15.32
-16.25
-15.00
-12.14
-8.16
-3.26
2.62
9.37
16.41
22.61
26.61
27.31
24.42
18.71
11.73
5.32
0.98
-0.57
0.51
3.26
6.27
8.01
7.49
4.73
1.13
-0.87
1.52
10.46
26.67
49.25
76.02
104.59
133.32
161.69
190.13
219.35
249.76
281.26
313.18
343.75
370.51
390.69
402.03
403.45
395.22
378.72
355.68
327.48
294.05
254.73
209.23
158.56
105.00
50.96
-2.00
-53.68
-104.88
-157.45
-212.68
-270.48
-329.22
-386.22
-439.23
-486.69
-527.80
-555.78
-563.15
-543.97
-497.04
-427.12
-342.79
-253.84
-168.37
-91.86
-27.34
23.67
61.52
87.94
105.52
118.55
128.47
134.72
135.47
128.48
111.04
81.04
37.63
-17.82
-78.08
-133.14
-172.68
-189.72
-183.32
-159.49
-128.51
-100.91
-83.42
-77.15
-79.63
-86.88
-95.85
-105.37
-115.57
-126.24
-136.13
-143.85
-146.79
-144.09
-136.64
-126.50
-116.05
-107.02
-99.72
-93.60
-87.72
-81.30
-74.70
-69.04
-65.72
-65.73
-69.30
-75.43
-82.65
-89.41
-94.41
-97.18
-97.78
-96.43
-92.97
-89.04
-85.00
-80.79
-76.15
-70.81
-64.75
-58.15
-51.30
-44.33
-37.39
-30.39
-23.36
-16.35
-9.31
-2.08
5.62
13.99
23.65
34.74
47.09
60.01
72.67
84.72
96.35
108.29
121.25
136.90
155.86
177.71
200.95
223.87
245.37
265.51
285.23
305.62
329.25
357.20
388.83
421.87
453.51
481.53
505.04
524.57
541.64
561.29
588.04
624.01
667.27
711.43
747.11
765.15
760.05
713.93
621.54
489.11
332.50
171.48
22.66
-104.80
-208.61
-290.26
-352.73
-396.78
-424.34
-438.93
-445.12
-446.98
-446.72
-444.27
-437.87
-425.84
-405.69
-376.90
-341.12
-301.49
-261.29
-222.88
-187.19
-154.35
-124.35
-97.07
-73.67
-56.26
-46.93
-46.89
-55.90
-72.23
-93.35
-116.25
-138.18
-157.58
-174.14
-188.61
-202.28
-216.03
-229.00
-237.74
-236.87
-221.00
-187.68
-139.60
-84.56
-32.85
6.61
29.76
38.56
38.89
37.09
36.99
38.71
39.70
37.25
30.15
19.45
7.88
-1.62
-6.98
-7.20
-2.44
6.04
16.59
26.31
31.21
27.32
12.70
-11.49
-40.67
-68.71
-90.38
-103.36
-108.90
-110.85
-113.39
-118.35
-124.21
-126.54
-119.77
-99.46
-64.12
-16.33
37.66
89.77
133.14
164.38
184.28
196.60
205.59
211.75
213.35
206.98
187.10
150.91
100.73
43.51
-11.84
-58.14
-92.26
-115.62
-132.29
-146.29
-159.20
-170.46
-179.47
-187.38
-197.11
-210.93
-227.29
-240.19
-241.63
-225.26
-190.00
-140.94
-86.86
-36.63
2.99
28.01
36.01
25.56
-2.58
-43.40
-86.78
-119.40
-129.52
-111.99
-69.71
-12.61
47.39
101.53
147.06
186.12
222.73
259.90
298.60
338.84
378.80
414.75
441.25
452.34
443.41
413.30
365.30
300.62
225.96
150.05
80.84
23.37
-20.47
-51.07
-69.98
-79.42
-82.36
-81.36
-79.22
-78.13
-79.03
-81.37
-83.64
-84.37
-82.86
-79.50
-74.84
-69.98
-66.03
-63.54
-62.20
-61.03
-58.94
-55.18
-49.73
-43.00
-35.98
-29.83
-25.39
-22.66
-20.83
-18.58
-14.47
-7.51
2.42
14.62
27.60
39.73
49.66
57.11
61.64
63.03
61.17
55.64
45.89
31.35
11.67
-13.37
-43.37
-77.47
-113.11
-145.46
-167.85
-173.68
-159.56
-127.52
-85.14
-43.21
-11.35
5.52
8.26
1.81
-7.86
-16.74
-23.51
-28.31
-31.69
-34.25
-36.21
-38.90
-44.59
-54.99
-69.30
-83.78
-91.89
-88.64
-72.06
-44.14
-9.60
26.40
59.84
88.61
111.71
127.78
134.65
130.46
114.57
87.80
52.49
12.36
-27.33
-60.49
-81.90
-89.32
-84.13
-70.75
-54.98
-41.31
-31.40
-23.90
-16.43
-7.77
1.04
7.44
8.99
4.96
-3.05
-12.50
-21.27
-29.16
-37.57
-47.91
-60.40
-72.94
-81.78
-82.69
-72.40
-49.79
-16.02
25.62
69.70
109.55
138.19
149.85
142.43
118.84
86.22
53.73
28.26
12.96
6.73
5.85
6.55
6.99
7.39
8.80
11.61
14.69
16.34
15.29
11.62
6.69
2.44
0.52
1.32
3.96
6.85
8.50
8.14
5.98
3.02
0.57
-0.37
0.47
2.58
5.03
6.91
7.70
7.41
6.54
5.77
5.67
6.52
8.20
10.34
12.51
14.39
15.88
17.18
18.63
20.53
23.24
26.85
31.25
36.09
40.76
44.49
46.63
46.87
45.49
42.88
39.34
35.14
30.06
23.64
15.24
4.48
-8.11
-20.91
-31.55
-37.77
-38.18
-32.88
-23.75
-13.63
-5.52
-1.37
-1.38
-4.32
-8.63
-13.10
-17.72
-23.37
-31.91
-44.89
-63.07
-86.05
-111.92
-137.60
-158.45
-168.86
-164.92
-143.31
-106.28
-61.65
-20.76
6.20
14.56
7.36
-6.40
-15.65
-13.04
2.09
24.75
48.24
67.15
79.77
87.40
91.56
92.55
88.90
78.09
58.50
31.05
-1.19
-33.73
-61.77
-81.84
-92.68
-94.72
-89.74
-79.71
-66.21
-50.39
-33.62
-17.88
-6.07
-0.43
-1.39
-6.63
-12.22
-14.59
-12.45
-8.35
-7.02
-13.88
-30.93
-56.53
-85.93
-114.28
-138.68
-158.32
-174.48
-186.85
-194.73
-196.81
-192.31
-181.12
-164.64
-145.21
-125.15
-106.11
-88.72
-73.26
-60.13
-50.00
-43.09
-40.12
-41.92
-48.64
-59.59
-73.06
-87.14
-100.27
-111.72
-120.45
-126.22
-129.58
-130.97
-130.55
-127.57
-120.29
-105.41
-89.22
-73.15
-57.61
-42.52
-27.41
-11.77
4.63
21.37
37.18
49.87
58.16
60.32
54.73
40.52
17.69
-12.77
-49.07
-89.05
-130.46
-170.03
-205.17
-233.79
-254.25
-265.42
-266.88
-258.77
-241.95
-217.86
-187.63
-152.79
-114.90
-75.28
-34.79
5.92
46.57
86.82
126.04
163.44
197.51
226.02
246.49
256.52
254.24
239.16
212.08
175.21
131.90
85.96
41.08
0.37
-33.86
-60.14
-77.88
-87.32
-89.37
-85.27
-76.49
-64.42
-50.16
-34.42
-17.48
0.62
19.88
40.13
60.91
81.43
100.64
117.36
130.52
139.28
143.14
141.99
136.20
127.33
116.87
105.83
94.05
82.15
70.94
61.26
53.46
47.47
43.78
42.39
42.80
43.58
44.47
45.87
48.63
53.27
59.94
70.27
84.71
102.13
118.43
131.87
141.84
148.43
150.97
148.35
144.90
143.45
144.21
140.98
135.00
130.85
134.49
148.68
173.06
215.82
279.55
358.94
433.50
496.80
549.61
597.68
644.04
690.41
756.00
852.93
979.10
1103.14
1209.91
1291.87
1350.06
1385.06
1399.38
1419.27
1460.08
1517.70
1552.99
1554.82
1529.30
1496.52
1472.30
1323.09
991.81
514.00
120.44
-155.66
-329.85
-463.78
-575.79
-674.31
-762.91
-820.41
-834.49
-810.20
-787.01
-778.73
-786.52
-802.24
-823.94
-852.73
-873.02
-875.03
-859.86
-853.18
-860.73
-879.54
-901.01
-922.96
-945.95
-960.30
-959.99
-945.59
-932.10
-919.97
-902.81
-871.00
-822.47
-760.93
-688.54
-610.58
-534.94
-474.37
-431.27
-400.83
-373.34
-342.25
-304.48
-259.27
-210.09
-163.64
-128.65
-108.14
-99.56
-85.96
-56.16
-9.24
44.31
91.11
123.94
143.82
156.32
166.69
177.28
185.44
187.33
180.95
167.85
152.28
138.91
130.89
128.83
131.29
133.96
132.81
126.00
114.69
102.14
91.87
86.10
84.76
86.32
87.14
83.83
74.70
60.39
43.22
25.78
9.86
-4.78
-18.41
-32.40
-47.90
-65.37
-84.52
-104.42
-123.45
-136.98
-142.32
-135.80
-115.55
-83.11
-43.74
-4.95
26.33
46.23
54.99
55.88
53.62
51.58
50.90
50.97
50.76
49.80
48.47
47.50
47.24
47.86
49.09
50.41
51.43
51.95
51.94
51.64
51.22
50.81
50.61
50.66
51.08
52.38
55.51
61.23
69.00
76.09
77.97
69.87
49.22
17.56
-19.45
-54.17
-80.11
-94.57
-99.10
-97.92
-95.32
-93.58
-92.42
-90.11
-85.04
-76.88
-66.71
-56.61
-47.78
-40.93
-35.88
-31.58
-26.80
-20.58
-12.71
-4.06
3.57
8.13
7.91
2.65
-6.09
-15.25
-21.59
-22.73
-18.41
-10.67
-2.96
0.79
-2.05
-12.15
-27.75
-44.92
-58.49
-63.11
-54.87
-32.61
0.63
38.05
70.31
88.11
85.68
63.88
31.04
0.46
-14.86
-8.51
16.63
49.95
78.58
93.66
94.11
85.60
75.43
70.14
70.03
70.76
67.77
60.36
52.28
48.85
52.91
62.86
73.32
77.74
71.94
56.19
34.67
13.10
-4.04
-15.93
-24.65
-34.01
-48.03
-68.97
-96.41
-127.30
-156.65
-176.48
-182.01
-170.18
-141.57
-101.32
-57.73
-19.33
8.22
24.02
31.23
34.60
38.15
42.90
47.14
48.61
46.57
42.67
40.11
41.68
48.60
60.68
76.76
95.06
113.39
128.85
137.49
135.15
118.96
89.32
50.56
9.35
-27.72
-56.53
-76.04
-88.07
-93.77
-95.61
-94.15
-88.91
-79.56
-66.64
-52.55
-37.56
-22.22
-7.18
6.52
18.02
26.20
30.05
29.06
23.02
12.82
-0.67
-16.54
-34.16
-52.88
-72.64
-93.93
-115.35
-136.83
-155.76
-167.54
-166.90
-150.86
-120.50
-81.55
-42.59
-11.52
7.00
13.48
11.72
6.31
0.27
-5.55
-11.64
-18.53
-25.67
-31.93
-35.85
-36.95
-35.77
-33.46
-31.04
-28.62
-25.35
-19.90
-11.23
1.07
16.10
32.56
48.46
62.06
72.42
79.63
84.64
88.88
93.57
98.82
103.30
104.76
101.54
93.81
83.91
74.91
68.55
64.01
58.26
48.18
32.60
12.80
-8.53
-29.40
-49.82
-70.15
-88.78
-101.16
-101.50
-86.31
-57.24
-20.95
13.94
40.77
57.18
64.70
66.25
63.88
58.11
49.38
38.66
29.65
25.97
28.99
37.12
46.89
54.99
59.83
61.55
61.31
60.32
59.08
57.69
55.81
52.98
48.86
42.87
34.49
23.49
10.17
-4.89
-20.53
-35.78
-49.29
-59.50
-65.25
-65.82
-61.00
-51.15
-37.33
-21.16
-4.60
10.06
20.85
26.17
25.04
17.28
3.48
-15.11
-37.15
-60.71
-83.48
-102.99
-117.20
-124.60
-124.29
-116.15
-100.88
-79.87
-54.80
-27.54
0.16
26.64
50.00
69.21
83.88
94.20
100.63
104.06
105.43
105.76
105.70
105.73
106.18
107.12
108.28
109.06
109.01
107.60
104.51
99.13
90.94
79.72
65.39
48.06
27.51
4.38
-20.29
-44.99
-68.33
-89.10
-106.00
-118.07
-123.24
-122.25
-115.46
-104.73
-89.47
-70.13
-48.06
-24.74
-2.05
17.90
33.02
42.17
45.01
42.19
34.62
22.88
8.06
-8.69
-26.76
-45.82
-65.52
-86.20
-108.28
-129.30
-149.39
-166.53
-177.12
-177.83
-167.56
-147.97
-123.09
-97.38
-74.47
-56.52
-43.72
-35.13
-29.92
-27.79
-28.54
-31.68
-35.99
-40.25
-43.75
-45.65
-44.53
-38.80
-27.03
-8.56
16.10
45.65
78.57
112.91
146.74
179.27
210.21
239.62
267.42
291.43
309.84
318.56
313.51
288.19
239.66
169.94
86.09
-1.08
-79.68
-139.58
-175.30
-185.00
-174.41
-152.18
-127.27
-106.68
-94.08
-89.77
-91.52
-96.72
-103.43
-111.06
-118.97
-126.20
-131.59
-134.26
-134.13
-132.00
-129.42
-127.49
-126.61
-125.27
-120.93
-111.26
-94.96
-72.73
-45.77
-16.55
12.12
37.65
58.61
74.70
86.24
93.80
97.91
98.88
96.80
91.83
84.33
75.24
66.11
58.46
53.41
51.36
51.79
53.22
53.74
51.51
45.36
35.60
23.38
10.49
-1.27
-10.47
-16.29
-18.60
-17.48
-13.06
-4.61
8.62
27.24
51.47
81.51
117.79
160.21
207.32
251.88
286.32
302.45
294.51
261.90
211.02
153.34
100.72
60.88
34.92
18.59
4.83
-12.47
-36.37
-67.72
-105.56
-148.15
-192.73
-235.10
-269.54
-290.66
-293.47
-279.88
-256.13
-229.88
-207.19
-190.27
-177.55
-165.75
-152.00
-135.25
-116.45
-96.27
-73.04
-44.16
-7.50
37.58
89.21
143.82
195.92
236.14
256.60
250.69
215.32
153.68
78.13
1.92
-61.46
-103.28
-122.78
-125.80
-122.00
-119.97
-123.56
-131.64
-140.16
-144.69
-143.29
-136.83
-125.77
-109.82
-87.66
-57.67
-19.83
23.24
67.20
107.17
136.51
153.72
160.36
159.91
156.15
151.79
147.62
143.08
136.87
127.87
116.44
103.57
90.75
79.38
70.30
63.46
58.28
53.82
49.24
44.36
39.11
33.60
28.06
22.80
18.23
14.78
12.71
12.00
12.37
12.94
12.66
10.74
7.14
2.67
-1.20
-2.99
-1.92
1.69
6.30
10.03
11.19
9.30
5.20
0.76
-1.88
-0.82
5.29
15.73
28.07
38.02
40.50
30.87
7.20
-28.61
-70.49
-109.46
-136.12
-143.54
-129.86
-99.03
-59.54
-21.29
7.90
24.89
31.39
32.06
31.73
33.01
35.74
38.03
38.39
36.41
33.28
30.45
28.70
27.79
26.89
25.61
24.61
25.61
30.22
38.33
47.19
51.45
45.22
24.77
-8.95
-49.54
-87.19
-112.87
-122.30
-117.39
-104.59
-90.45
-77.78
-64.40
-45.69
-18.51
15.01
47.70
70.31
75.90
62.96
35.57
1.38
-31.64
-57.54
-73.36
-77.91
-70.93
-52.86
-25.24
8.44
42.26
69.09
82.54
79.17
60.23
31.32
0.35
-25.00
-39.86
-43.32
-36.89
-22.89
-2.91
22.56
52.96
85.30
114.68
135.38
140.37
127.09
99.57
66.53
37.16
17.09
4.43
-5.50
-16.25
-28.74
-41.37
-51.99
-59.71
-65.80
-73.56
-84.35
-99.63
-118.70
-138.92
-156.89
-170.06
-177.63
-180.47
-171.00
-147.10
-112.78
-75.81
-42.85
-16.59
3.28
18.33
29.96
39.18
45.28
47.85
47.81
47.04
47.48
50.03
54.85
61.25
68.31
74.15
77.43
78.12
77.24
76.07
75.27
75.28
75.89
76.65
76.19
73.27
67.38
58.79
48.23
35.94
23.08
10.55
-1.11
-12.04
-22.67
-33.28
-43.74
-51.91
-58.15
-62.00
-63.16
-61.81
-58.92
-55.93
-54.11
-54.18
-56.01
-58.91
-61.32
-62.22
-61.26
-59.04
-56.75
-55.49
-55.97
-58.54
-63.53
-70.61
-78.61
-84.91
-85.70
-77.22
-57.67
-28.68
4.78
36.01
59.59
73.08
77.52
76.05
71.93
67.31
62.92
58.96
55.80
54.25
54.77
57.00
59.70
61.02
59.87
56.17
51.05
46.46
44.62
47.19
54.75
65.96
76.94
82.56
78.19
62.00
36.32
7.16
-18.37
-34.72
-40.28
-37.78
-32.09
-27.66
-26.62
-28.61
-32.17
-36.35
-41.23
-47.59
-56.35
-67.27
-78.93
-89.38
-96.67
-98.77
-96.42
-91.66
-84.66
-75.79
-64.83
-51.32
-34.92
-15.78
5.12
25.93
44.85
60.94
73.06
81.33
86.72
90.42
93.54
96.67
99.91
102.91
105.51
107.26
107.81
106.86
104.05
99.00
91.39
80.94
67.55
51.67
33.89
15.07
-3.81
-21.96
-38.81
-54.04
-66.53
-76.78
-84.80
-90.68
-94.50
-96.47
-97.15
-97.17
-97.13
-97.54
-98.74
-100.24
-101.32
-101.06
-98.68
-93.89
-86.74
-78.03
-67.63
-55.88
-41.72
-24.17
-2.60
22.81
50.57
78.18
102.63
121.43
132.63
136.40
134.15
127.80
118.99
108.18
94.67
77.29
55.10
27.79
-3.84
-37.79
-70.61
-96.54
-110.89
-110.15
-94.24
-67.09
-36.12
-9.16
8.51
15.98
16.54
15.27
16.94
23.13
31.66
37.42
35.05
21.27
-3.32
-33.86
-63.23
-84.09
-92.33
-87.56
-73.08
-53.91
-34.81
-18.88
-7.34
-0.03
4.41
7.99
12.99
20.88
31.51
42.67
50.69
52.44
46.47
33.72
16.94
-1.00
-18.34
-34.55
-49.48
-62.53
-72.46
-78.36
-80.26
-79.47
-78.16
-78.26
-80.77
-85.06
-89.65
-92.16
-90.93
-85.40
-76.23
-64.80
-52.79
-40.93
-29.26
-17.20
-3.95
10.92
27.19
43.96
59.94
73.75
84.39
91.40
94.87
95.31
93.26
89.22
83.58
76.62
68.67
60.18
51.67
43.65
36.56
30.71
26.27
23.27
21.65
21.23
21.80
23.06
24.61
26.01
26.80
26.56
25.15
22.58
18.99
14.66
9.86
4.63
-1.19
-7.81
-15.37
-23.78
-32.83
-42.27
-51.63
-60.66
-69.60
-79.03
-89.48
-101.01
-113.02
-124.39
-133.95
-140.24
-142.59
-141.46
-138.27
-134.59
-131.21
-127.75
-122.80
-114.52
-101.42
-82.82
-59.57
-33.62
-7.11
18.79
44.40
71.34
101.92
140.25
190.01
253.04
327.96
409.47
488.96
556.42
603.30
614.87
585.48
519.86
431.48
336.59
247.94
171.98
109.90
60.52
22.30
-5.12
-22.83
-33.28
-40.07
-46.52
-54.38
-63.58
-72.86
-81.00
-86.57
-90.54
-94.50
-99.80
-106.72
-114.39
-121.07
-125.27
-126.58
-126.27
-126.90
-131.86
-144.67
-167.95
-202.22
-245.13
-291.54
-328.11
-344.01
-334.24
-302.15
-257.95
-213.87
-179.18
-157.30
-146.09
-140.80
-138.09
-136.69
-137.14
-139.95
-144.10
-147.24
-146.77
-141.19
-130.65
-118.38
-106.82
-97.69
-91.34
-86.33
-80.59
-72.39
-61.07
-47.33
-33.39
-21.60
-13.83
-10.62
-10.64
-11.67
-11.49
-8.59
-2.57
5.68
14.86
23.97
29.74
31.39
29.42
25.05
19.50
13.45
6.69
-1.39
-11.35
-23.11
-35.23
-45.48
-51.40
-50.55
-40.69
-19.91
12.42
54.26
99.81
140.44
167.13
174.31
163.11
141.51
121.00
111.64
118.10
138.89
169.14
203.47
237.80
268.70
291.82
301.07
290.10
255.24
197.80
123.94
41.51
-43.34
-127.29
-208.62
-284.74
-350.34
-398.40
-423.30
-423.53
-403.15
-370.05
-332.48
-295.94
-262.02
-229.26
-195.62
-160.38
-123.73
-86.88
-50.86
-15.75
19.19
54.80
91.23
127.52
161.48
192.40
219.70
243.35
263.86
282.12
299.17
315.77
331.96
346.86
361.91
378.19
396.36
416.69
439.09
463.44
489.97
519.48
553.37
597.00
654.17
724.77
803.33
879.80
942.72
983.40
998.95
968.49
883.22
744.39
563.67
360.05
154.06
-37.31
-202.97
-337.68
-441.20
-513.34
-556.89
-576.70
-578.67
-568.68
-551.62
-530.84
-508.50
-486.25
-462.76
-437.18
-409.40
-380.06
-350.27
-321.04
-293.24
-267.37
-244.18
-222.97
-203.52
-186.04
-170.90
-158.30
-148.40
-141.37
-137.10
-135.77
-136.98
-140.54
-146.07
-152.72
-159.17
-163.96
-166.43
-166.27
-164.18
-161.32
-159.33
-159.94
-164.88
-175.57
-189.26
-204.50
-217.32
-221.79
-212.12
-185.75
-145.02
-96.90
-50.43
-13.09
11.45
24.47
30.05
32.81
35.49
38.77
42.17
45.27
48.23
51.28
54.68
58.10
61.14
64.17
68.94
78.40
94.88
118.08
143.35
162.41
165.54
145.14
98.96
31.58
-46.29
-121.24
-180.86
-216.20
-224.12
-207.81
-174.89
-133.95
-91.76
-52.19
-16.65
15.08
44.30
73.30
105.04
142.25
185.22
230.24
269.86
295.46
300.93
285.29
252.69
210.31
165.20
122.36
84.41
52.33
26.67
7.37
-7.09
-19.83
-34.67
-55.86
-86.55
-128.40
-181.14
-241.44
-302.60
-355.51
-390.68
-401.72
-387.86
-353.96
-307.79
-255.87
-200.11
-136.51
-62.42
20.10
102.47
172.57
220.89
245.11
250.33
245.30
237.38
229.39
220.37
207.86
190.99
171.70
153.68
140.27
132.87
129.89
127.95
123.79
115.84
104.87
93.40
84.40
80.30
82.16
89.17
98.31
104.71
102.66
87.74
58.92
19.76
-22.40
-59.12
-84.21
-95.97
-97.06
-92.41
-86.29
-80.57
-74.80
-67.68
-58.82
-49.24
-40.86
-35.10
-32.07
-30.50
-28.62
-25.04
-19.65
-13.70
-9.05
-7.62
-10.45
-17.39
-27.12
-37.79
-47.56
-55.24
-60.40
-63.37
-64.88
-65.51
-65.51
-64.62
-62.24
-57.74
-50.85
-41.92
-31.93
-22.30
-14.39
-9.00
-5.96
-4.11
-1.78
2.54
9.40
18.42
28.59
38.72
48.02
55.91
61.78
64.63
63.63
58.79
52.14
47.24
47.55
54.64
67.22
81.63
93.83
101.42
104.54
105.41
106.58
108.90
111.29
111.53
107.63
98.32
85.23
69.85
53.69
38.01
23.14
9.22
-3.20
-13.46
-21.55
-28.43
-36.10
-46.57
-61.14
-81.23
-106.59
-134.35
-159.23
-175.37
-178.76
-169.53
-152.30
-135.00
-128.00
-137.67
-162.61
-193.49
-217.59
-224.27
-209.56
-176.63
-133.76
-93.85
-67.80
-61.05
-72.33
-96.44
-126.54
-157.29
-184.63
-186.43
-149.45
-77.39
10.39
94.60
165.28
221.62
265.07
297.41
320.66
334.62
339.22
334.25
321.62
303.83
284.01
262.53
238.50
211.19
178.62
145.76
114.76
88.40
60.01
31.03
2.33
-27.25
-60.87
-93.30
-123.37
-155.07
-190.98
-231.62
-274.59
-318.88
-364.59
-411.83
-460.22
-481.61
-460.46
-398.82
-314.89
-228.49
-153.19
-94.52
-52.49
-24.24
-5.94
3.68
8.69
15.86
33.51
65.71
110.57
160.76
206.43
237.76
244.93
224.74
181.41
125.87
70.15
23.68
-8.77
-26.89
-33.39
-33.47
-30.64
-26.10
-19.74
-13.37
-10.53
-14.54
-25.95
-41.74
-57.49
-68.83
-75.04
-75.55
-72.15
-66.63
-59.11
-47.77
-30.39
-6.82
20.65
47.70
69.09
79.84
77.27
62.88
42.10
22.88
12.74
15.72
30.72
51.53
69.37
77.50
74.32
63.61
52.28
46.89
51.62
67.15
90.46
116.05
137.98
151.58
154.60
147.49
133.06
113.31
94.38
81.46
75.73
74.56
74.36
72.95
71.80
71.31
70.94
68.31
59.18
39.19
5.80
-40.27
-95.02
-151.73
-204.04
-241.83
-257.07
-246.74
-214.53
-170.34
-125.72
-88.28
-54.83
-21.05
17.70
60.83
105.61
146.60
177.60
196.23
205.07
208.80
209.82
207.87
201.22
189.43
174.00
154.55
127.70
88.01
30.63
-45.14
-132.65
-219.43
-291.98
-330.77
-326.11
-284.95
-227.42
-173.95
-134.72
-108.73
-90.35
-74.89
-61.10
-52.24
-51.46
-58.32
-68.78
-77.60
-81.20
-79.10
-73.28
-66.84
-63.64
-65.92
-73.19
-82.95
-91.98
-97.94
-99.80
-97.36
-90.42
-79.51
-66.00
-49.03
-27.84
-1.91
28.47
62.56
99.59
139.02
178.36
215.94
250.98
282.63
309.25
327.56
333.04
321.81
293.12
250.42
201.33
155.01
118.35
93.59
77.91
65.73
50.53
28.80
0.98
-28.89
-55.07
-72.70
-79.42
-75.51
-65.54
-55.65
-50.58
-51.93
-58.09
-65.80
-72.46
-77.29
-81.29
-85.98
-91.67
-96.95
-99.80
-98.89
-94.61
-88.99
-84.52
-83.27
-85.91
-91.47
-97.95
-103.36
-106.57
-107.58
-107.41
-107.30
-108.42
-111.27
-115.44
-119.72
-122.55
-122.38
-117.91
-108.82
-94.26
-74.32
-49.79
-21.84
8.18
39.05
69.89
100.02
128.77
155.38
178.04
194.34
201.93
199.35
186.54
165.33
139.11
111.72
87.12
68.07
56.33
52.32
54.78
60.47
64.72
62.86
51.00
30.53
6.23
-15.63
-30.14
-35.84
-34.86
-31.08
-27.55
-25.36
-23.56
-21.29
-18.87
-18.14
-21.46
-30.75
-46.47
-67.01
-89.56
-109.50
-121.99
-123.47
-112.85
-92.74
-68.81
-47.61
-33.86
-28.39
-28.34
-29.13
-26.94
-20.19
-9.75
2.49
15.21
27.13
39.37
52.77
66.80
79.45
88.43
91.98
89.97
83.91
76.33
69.70
65.48
63.51
62.44
60.60
56.74
50.80
43.94
37.80
33.92
32.77
33.53
34.52
34.08
31.35
26.73
21.70
18.18
17.64
20.20
24.95
29.52
31.68
30.44
26.58
22.10
19.56
21.16
27.44
36.77
45.93
51.58
51.20
43.83
30.18
12.46
-5.79
-19.91
-25.03
-17.91
1.03
26.46
49.28
60.09
53.56
31.03
0.03
-29.50
-49.91
-58.74
-58.59
-54.30
-49.55
-44.99
-39.49
-31.79
-22.01
-12.12
-4.68
-1.11
-0.80
-1.52
-0.65
3.58
11.27
20.84
29.82
36.01
38.13
36.26
31.44
25.03
17.98
10.60
2.60
-6.50
-16.53
-27.32
-38.18
-48.20
-56.66
-63.22
-67.81
-70.56
-71.91
-71.77
-70.43
-68.47
-66.66
-65.83
-66.55
-68.76
-71.84
-74.70
-76.40
-76.60
-75.73
-74.69
-74.51
-76.03
-79.81
-86.24
-95.17
-105.27
-113.70
-116.39
-109.48
-91.33
-64.03
-33.04
-5.33
13.48
21.35
19.89
12.94
4.35
-3.57
-10.42
-16.53
-21.90
-25.67
-26.43
-23.17
-15.90
-5.45
7.13
20.86
35.40
50.71
66.13
81.23
95.01
106.27
114.17
118.60
120.18
120.01
119.47
118.73
117.70
116.01
113.25
109.51
105.31
101.41
98.67
97.94
99.83
104.58
110.98
116.01
115.30
104.81
82.95
52.06
17.99
-12.08
-32.52
-41.51
-41.12
-35.53
-28.56
-22.12
-16.00
-9.27
-1.57
6.35
13.06
17.48
19.44
19.72
19.22
18.60
17.59
15.24
10.48
2.62
-8.24
-21.12
-34.18
-46.04
-55.70
-62.77
-67.43
-70.08
-71.25
-71.27
-70.40
-69.23
-67.89
-66.73
-66.02
-65.77
-65.64
-65.23
-64.25
-62.74
-61.20
-60.47
-61.27
-63.80
-67.56
-71.43
-74.46
-76.04
-76.25
-75.80
-75.62
-76.46
-78.73
-82.95
-88.37
-93.65
-96.11
-91.94
-77.58
-51.52
-15.88
23.70
59.65
85.44
97.72
96.96
86.94
72.26
56.20
40.06
24.12
8.68
-4.99
-15.16
-20.45
-20.66
-16.98
-11.05
-4.68
0.98
5.61
9.66
13.50
16.97
19.43
20.06
18.21
13.68
7.18
0.25
-5.03
-6.88
-4.21
3.10
14.55
29.11
45.48
62.53
78.41
92.68
104.85
115.30
122.72
126.20
125.12
119.18
108.65
94.17
76.93
58.27
39.51
21.86
6.51
-5.59
-13.86
-18.27
-19.37
-17.90
-15.07
-12.16
-10.45
-11.43
-15.28
-21.77
-30.42
-40.55
-51.20
-61.58
-71.07
-79.21
-85.80
-90.81
-94.41
-97.04
-99.21
-101.13
-102.86
-104.28
-105.06
-104.62
-102.52
-97.85
-90.09
-79.01
-64.59
-47.13
-27.16
-5.44
17.06
38.42
57.58
73.57
85.72
93.80
98.05
99.16
98.01
95.43
92.08
88.39
84.32
79.72
74.53
69.04
63.86
59.62
56.71
55.08
54.30
53.47
51.78
48.84
45.07
41.43
39.06
38.70
40.30
43.07
45.60
47.16
46.91
45.25
43.23
42.02
42.52
45.31
50.72
58.52
67.31
74.03
74.58
65.11
44.16
14.07
-19.31
-48.79
-68.76
-77.37
-76.68
-70.82
-63.64
-57.08
-51.00
-44.46
-37.08
-29.56
-23.24
-18.99
-16.50
-14.46
-11.34
-5.94
1.72
10.56
18.89
24.97
27.86
27.44
24.40
19.70
14.20
8.23
1.72
-5.32
-13.20
-21.72
-30.28
-37.99
-43.99
-47.74
-49.18
-48.96
-47.52
-45.69
-44.10
-43.21
-43.16
-43.73
-44.52
-45.07
-45.07
-44.39
-43.42
-42.72
-42.97
-44.63
-47.61
-51.31
-54.87
-57.48
-58.73
-59.07
-59.44
-61.12
-65.02
-71.20
-78.70
-86.03
-91.79
-94.97
-95.81
-94.50
-91.67
-87.85
-83.43
-78.72
-73.89
-68.14
-59.33
-44.16
-19.53
15.25
57.19
99.97
135.91
158.80
166.47
160.96
146.84
128.77
109.59
90.09
69.54
48.73
28.89
11.83
-0.99
-9.31
-13.80
-15.87
-16.61
-16.02
-13.39
-7.79
1.52
14.46
29.98
46.26
61.28
73.42
82.00
86.86
88.28
86.83
82.84
76.40
67.34
55.52
39.87
22.06
3.62
-14.05
-29.75
-42.72
-52.76
-60.14
-65.47
-69.54
-72.86
-75.96
-78.99
-81.75
-83.84
-84.79
-84.30
-82.20
-78.46
-72.89
-65.43
-55.82
-43.63
-28.53
-10.68
8.38
27.11
43.63
56.43
64.67
68.70
69.95
70.26
71.04
72.66
74.38
74.77
72.57
67.51
60.57
53.67
48.78
46.88
47.71
50.31
53.66
56.90
58.60
56.49
48.19
32.69
11.97
-8.40
-21.87
-23.26
-11.73
8.14
28.83
43.57
49.46
48.30
44.88
43.58
44.62
45.26
40.24
24.23
-3.63
-39.28
-75.56
-105.15
-123.19
-129.07
-124.49
-111.37
-90.20
-60.19
-21.56
23.24
68.13
105.09
127.00
130.39
116.07
88.48
53.99
19.01
-11.63
-34.96
-49.51
-54.83
-50.96
-39.14
-22.35
-5.16
6.75
8.79
-0.58
-18.71
-39.77
-57.14
-65.72
-64.95
-57.34
-46.63
-35.68
-25.57
-16.03
-6.63
2.45
10.32
15.93
19.06
20.51
21.71
24.08
28.43
34.47
41.08
46.62
49.70
49.74
46.85
41.78
35.44
28.51
21.24
13.54
5.61
-2.79
-11.30
-19.24
-25.81
-30.34
-32.62
-32.91
-31.81
-30.05
-28.33
-26.94
-25.90
-25.03
-24.06
-22.80
-21.27
-19.56
-17.90
-16.85
-16.28
-16.12
-16.22
-16.35
-16.28
-15.93
-15.41
-15.03
-15.13
-15.92
-17.42
-19.34
-21.22
-22.55
-23.18
-23.38
-23.80
-25.21
-28.08
-32.40
-37.54
-42.52
-46.36
-48.67
-49.86
-51.04
-53.51
-58.19
-65.12
-73.39
-81.51
-88.20
-92.86
-96.05
-99.09
-103.27
-109.44
-117.78
-127.88
-139.07
-148.92
-153.83
-149.42
-131.81
-99.44
-54.55
-2.92
47.84
90.90
122.31
142.33
153.56
158.82
159.67
156.50
149.73
140.79
132.53
127.06
125.21
125.71
125.91
123.35
116.73
106.95
96.22
87.18
81.93
81.56
85.97
93.59
100.91
102.71
93.59
70.97
37.39
1.22
-26.15
-35.32
-23.32
5.21
40.66
73.06
95.85
106.79
106.28
95.20
74.14
44.52
10.06
-23.00
-47.91
-60.32
-60.24
-51.52
-39.71
-29.23
-22.17
-18.25
-16.14
-14.92
-14.45
-15.37
-18.55
-24.66
-33.84
-45.39
-58.17
-70.69
-82.13
-92.10
-100.67
-108.08
-114.68
-120.98
-127.64
-135.38
-143.27
-149.06
-149.05
-139.56
-119.00
-89.37
-56.12
-26.15
-5.10
5.12
6.13
1.89
-3.58
-7.85
-10.35
-11.28
-10.50
-7.14
0.04
11.37
25.98
41.78
56.36
67.65
74.59
77.39
76.86
74.14
69.88
64.38
57.48
49.00
39.11
28.49
18.23
9.42
2.87
-1.37
-3.74
-5.08
-6.29
-7.95
-10.21
-12.65
-14.78
-16.07
-16.25
-15.32
-13.42
-10.88
-8.04
-5.40
-3.13
-1.64
-1.37
-2.60
-5.43
-9.52
-14.35
-19.12
-23.41
-26.47
-28.25
-29.02
-29.28
-29.48
-29.67
-29.46
-28.12
-25.05
-19.27
-10.77
-0.09
11.63
23.26
34.90
48.75
69.38
97.03
132.83
174.88
217.65
251.99
267.56
256.65
217.33
154.55
78.70
3.50
-58.31
-97.06
-108.95
-96.29
-65.54
-25.24
15.80
49.84
72.91
84.91
90.02
92.93
95.80
97.18
92.74
77.53
48.80
8.48
-41.55
-89.51
-119.58
-122.02
-98.80
-60.78
-21.22
8.89
23.28
20.88
6.16
-14.34
-34.65
-50.76
-61.31
-66.97
-69.14
-68.38
-64.10
-54.93
-41.47
-27.24
-16.06
-10.24
-9.58
-11.62
-13.06
-11.13
-4.49
5.81
16.46
24.28
26.88
23.45
14.66
2.16
-12.04
-25.95
-37.54
-47.00
-54.87
-61.87
-68.37
-74.29
-79.29
-83.30
-86.73
-90.29
-94.25
-96.97
-94.90
-83.87
-61.26
-28.05
10.92
48.21
77.24
94.59
101.07
100.68
98.20
97.01
97.86
99.29
99.35
96.98
92.15
85.44
76.81
65.03
48.72
27.29
1.95
-23.89
-45.87
-60.50
-66.36
-64.51
-57.87
-50.06
-42.65
-36.74
-32.74
-30.86
-31.08
-32.81
-33.95
-33.91
-32.16
-29.03
-26.49
-26.55
-30.64
-38.52
-48.37
-57.21
-63.02
-65.14
-64.27
-61.87
-58.68
-55.25
-52.42
-51.63
-54.54
-61.35
-68.70
-70.21
-59.71
-35.12
-1.39
30.26
48.27
45.68
24.05
-6.97
-34.64
-49.24
-47.94
-33.75
-14.03
5.36
21.99
36.73
51.25
65.79
78.72
87.40
90.11
87.08
80.76
74.23
70.10
69.23
70.72
72.56
72.69
69.92
64.09
56.12
47.27
38.48
30.17
22.30
14.60
6.61
-1.84
-10.94
-20.80
-31.63
-43.76
-57.78
-74.45
-93.79
-115.44
-136.88
-153.74
-160.96
-155.15
-136.51
-109.41
-80.90
-57.89
-44.61
-41.04
-44.14
-49.86
-55.12
-58.64
-60.41
-60.26
-57.24
-50.05
-37.64
-20.24
0.58
22.38
42.71
59.49
72.43
82.22
89.80
95.90
100.58
103.33
103.46
100.52
95.28
88.58
81.79
76.11
72.16
69.69
67.79
65.44
61.85
57.12
52.15
48.17
46.03
45.86
46.87
47.55
46.88
43.63
37.81
30.41
22.83
16.01
10.07
4.29
-2.61
-11.23
-21.22
-30.98
-38.29
-40.98
-38.06
-29.79
-17.21
-2.45
13.19
27.15
36.00
36.52
27.78
12.61
-2.66
-10.33
-6.78
7.27
26.09
42.12
49.70
47.61
38.74
26.87
15.90
6.19
-3.84
-15.91
-29.74
-42.68
-51.17
-52.67
-46.59
-35.01
-21.86
-10.58
-3.18
0.28
1.48
2.74
5.89
11.87
20.58
31.10
42.22
51.97
57.60
56.01
45.16
24.89
-0.59
-25.19
-43.27
-51.79
-51.43
-45.66
-38.57
-32.62
-27.94
-22.90
-16.27
-8.31
-0.72
4.32
5.66
3.84
0.98
-0.23
2.58
9.96
20.47
31.15
38.53
40.19
35.40
25.61
13.77
3.02
-4.62
-9.08
-11.83
-15.69
-22.98
-34.83
-50.73
-68.37
-83.90
-92.68
-90.33
-74.10
-44.71
-6.01
34.46
67.64
85.80
85.33
67.61
38.52
5.79
-23.98
-46.98
-62.68
-72.67
-79.05
-83.00
-84.13
-80.68
-70.60
-52.60
-27.61
1.40
30.30
55.32
74.55
88.48
99.62
110.04
119.64
125.12
121.30
104.14
73.58
34.59
-4.76
-36.36
-56.05
-64.52
-66.32
-67.20
-70.93
-77.80
-85.04
-88.68
-85.75
-76.28
-63.15
-51.38
-45.91
-49.43
-61.24
-77.44
-92.85
-103.30
-107.82
-107.22
-103.83
-99.36
-93.54
-84.52
-70.24
-50.13
-25.12
0.91
24.58
43.66
57.49
67.16
74.29
80.21
85.52
89.84
92.26
92.34
90.13
86.35
82.18
78.72
76.57
75.78
75.83
75.86
75.45
74.45
73.11
71.91
71.17
70.86
70.74
70.18
68.35
64.68
58.59
49.77
38.20
24.16
7.89
-9.97
-28.73
-47.64
-65.81
-82.31
-96.35
-107.26
-114.54
-118.01
-117.39
-112.63
-103.86
-91.29
-75.25
-56.25
-34.92
-11.36
12.73
36.21
58.12
77.68
94.45
108.11
118.53
125.67
129.50
129.87
127.12
121.22
111.99
99.82
85.16
68.69
51.12
33.19
15.45
-1.43
-16.17
-28.69
-38.82
-46.50
-51.79
-55.02
-56.72
-57.55
-58.14
-58.97
-60.29
-61.78
-62.96
-63.30
-62.63
-61.19
-59.53
-58.47
-58.72
-60.47
-63.19
-66.46
-69.10
-70.52
-71.03
-71.52
-73.20
-77.09
-83.22
-90.49
-97.16
-101.55
-102.71
-101.16
-97.34
-92.36
-87.71
-84.68
-84.52
-88.04
-94.94
-103.13
-108.90
-108.17
-97.56
-78.91
-57.23
-38.96
-29.05
-28.71
-35.19
-43.46
-48.93
-48.86
-43.06
-32.68
-18.83
-1.79
18.62
42.37
68.23
94.04
116.45
133.53
144.67
150.55
152.66
152.51
151.25
149.17
145.93
140.90
133.74
124.68
114.60
105.26
97.05
90.36
85.06
80.71
76.53
72.04
67.08
61.92
57.04
52.72
49.15
46.05
43.01
39.35
34.97
29.07
21.34
11.76
0.48
-11.99
-24.99
-37.55
-48.75
-57.59
-63.24
-65.04
-62.67
-56.37
-46.62
-35.10
-22.41
-9.58
2.36
12.65
20.81
26.74
30.53
32.60
33.42
33.65
33.66
33.60
33.55
33.45
33.53
33.23
32.64
31.24
28.98
25.78
21.57
16.36
10.29
3.63
-3.34
-10.12
-16.22
-21.07
-24.40
-26.20
-26.65
-26.14
-25.04
-23.65
-22.02
-20.11
-17.74
-14.92
-11.90
-9.10
-7.06
-6.13
-6.22
-6.71
-6.72
-5.46
-2.54
1.87
6.96
11.63
15.03
17.07
18.60
20.97
25.27
31.91
40.29
48.89
55.98
60.26
61.63
61.13
60.62
61.85
66.45
75.70
89.96
108.09
126.79
141.00
145.08
135.04
109.92
73.33
32.10
-6.46
-37.29
-59.40
-75.71
-91.52
-108.66
-127.94
-147.43
-163.16
-171.13
-169.21
-157.96
-139.90
-118.15
-94.97
-71.75
-49.32
-29.29
-14.77
-9.45
-15.21
-29.99
-47.07
-56.76
-50.26
-22.66
25.53
89.31
161.70
235.93
306.36
367.92
414.95
440.93
440.26
410.77
355.39
282.03
201.25
123.00
53.77
-4.30
-52.69
-94.38
-132.11
-167.82
-203.13
-239.96
-280.58
-326.64
-378.04
-432.04
-483.03
-524.00
-549.12
-556.01
-546.30
-524.05
-493.40
-456.53
-413.43
-362.50
-302.25
-233.62
-160.85
-90.82
-30.61
14.80
43.82
58.57
64.83
70.47
82.39
104.10
135.19
173.05
213.58
251.31
279.51
291.67
283.13
252.08
200.31
133.35
60.65
-6.36
-54.03
-75.56
-75.56
-63.77
-47.00
-25.42
4.46
44.66
95.05
150.61
203.83
249.21
286.65
319.20
352.40
383.37
410.71
430.17
436.26
424.48
393.80
347.58
289.06
221.96
149.99
77.41
5.65
-64.34
-130.71
-190.04
-237.95
-274.63
-301.85
-321.85
-320.31
-288.52
-229.28
-156.06
-93.73
-43.86
-6.37
17.56
29.41
28.58
12.59
-19.64
-66.51
-113.77
-142.38
-139.86
-104.63
-47.77
11.42
52.85
65.02
48.44
15.72
-15.84
-39.88
-53.36
-58.48
-60.49
-63.33
-66.98
-69.96
-70.12
-67.80
-68.40
-79.14
-100.00
-132.24
-175.29
-216.25
-246.38
-261.65
-262.62
-251.59
-228.46
-192.00
-143.63
-87.85
-31.91
15.02
47.12
63.33
66.53
61.66
52.96
42.01
29.63
16.95
4.45
-6.40
-14.31
-18.79
-20.79
-20.99
-20.61
-19.84
-17.95
-14.63
-9.23
-1.68
7.37
16.62
24.55
29.49
30.51
27.55
20.78
11.50
1.19
-8.69
-17.04
-22.99
-26.21
-26.57
-23.89
-21.49
-20.41
-20.64
-21.26
-21.23
-19.21
-14.31
-6.16
4.81
18.02
34.18
54.57
80.79
113.04
150.91
193.36
239.26
287.23
335.46
382.12
423.16
452.49
461.88
445.95
404.60
343.76
272.39
198.96
129.84
67.69
13.33
-33.43
-69.47
-89.78
-90.19
-71.55
-46.43
-28.90
-29.70
-40.57
-53.76
-61.36
-61.76
-53.62
-37.98
-17.24
7.72
37.84
75.32
120.10
170.85
224.05
274.59
316.21
343.43
353.62
346.60
323.73
285.64
233.86
170.85
100.54
27.13
-45.56
-114.42
-177.84
-235.45
-288.12
-335.67
-376.61
-408.51
-429.65
-439.57
-438.50
-427.30
-407.39
-381.30
-352.76
-326.47
-306.78
-295.99
-292.69
-291.67
-286.28
-271.96
-248.99
-222.37
-199.16
-184.56
-179.38
-180.02
-180.65
-176.23
-164.32
-144.72
-118.08
-84.77
-45.30
-1.82
40.79
75.54
95.87
98.68
85.89
63.47
38.59
16.80
0.90
-8.20
-9.34
0.25
24.27
64.72
118.88
178.35
231.25
266.83
280.13
274.16
258.44
244.87
242.71
254.95
277.83
303.20
322.39
329.57
323.47
306.86
284.74
262.26
243.21
229.55
221.51
218.16
218.13
220.24
223.74
228.37
234.10
240.66
247.17
251.86
252.02
244.92
228.64
202.85
168.92
129.30
86.45
42.26
-2.20
-46.37
-89.47
-130.14
-167.06
-199.69
-228.93
-256.66
-284.19
-310.60
-332.53
-344.09
-338.64
-311.24
-261.09
-192.64
-114.96
-39.44
23.07
63.21
75.93
61.26
23.87
-28.66
-88.01
-146.96
-200.29
-244.66
-281.11
-312.04
-339.55
-363.62
-381.82
-390.09
-384.08
-360.68
-319.22
-266.39
-213.10
-171.53
-150.92
-154.79
-180.57
-220.97
-266.80
-292.95
-280.83
-223.59
-130.87
-22.48
83.34
176.21
252.42
308.12
345.50
362.30
356.53
329.25
285.33
231.72
173.44
115.67
61.68
14.08
-28.71
-69.41
-109.96
-149.07
-181.56
-199.94
-197.24
-170.73
-123.25
-65.28
-10.11
31.13
53.44
58.73
53.28
44.02
35.03
27.28
18.76
7.63
-5.93
-19.61
-30.38
-36.30
-37.25
-35.37
-32.50
-30.13
-28.60
-27.18
-24.55
-19.77
-12.87
-5.00
1.97
6.40
7.55
5.61
1.54
-3.52
-8.76
-13.95
-19.37
-25.55
-32.76
-40.52
-48.06
-54.46
-59.01
-61.33
-61.28
-58.65
-52.69
-44.77
-34.72
-22.06
-6.53
11.45
30.81
50.21
68.55
85.39
100.99
116.43
132.60
149.73
167.29
184.38
200.28
215.03
229.60
245.61
264.84
288.59
317.72
352.91
394.46
441.50
490.67
535.63
567.91
579.18
564.09
522.40
459.22
383.28
303.97
228.61
161.06
102.26
51.28
6.68
-32.94
-69.01
-103.54
-139.18
-178.50
-222.08
-266.76
-306.15
-332.75
-342.00
-335.22
-319.73
-305.59
-301.10
-308.72
-320.78
-325.28
-310.87
-273.10
-216.71
-152.41
-90.19
-35.46
11.23
51.67
86.59
115.25
136.08
147.44
148.61
141.40
128.98
114.93
101.99
90.74
80.30
68.27
52.14
29.37
1.50
-28.95
-58.97
-86.11
-109.50
-129.06
-146.37
-163.13
-181.34
-201.04
-220.81
-238.26
-251.00
-257.69
-257.44
-251.29
-230.68
-190.86
-131.36
-57.56
21.64
97.63
159.43
207.55
243.83
268.23
279.57
278.13
266.66
248.23
225.48
199.85
172.46
143.23
109.61
69.61
23.96
-24.18
-71.03
-113.85
-151.86
-185.28
-216.02
-250.52
-294.84
-351.31
-416.99
-484.34
-543.35
-584.58
-601.50
-572.65
-493.37
-375.93
-244.13
-121.12
-19.90
57.26
114.12
153.00
182.15
205.68
227.64
251.86
280.09
309.92
334.73
345.49
335.22
303.24
252.35
191.58
134.32
94.95
84.48
106.73
156.78
222.26
287.36
335.13
354.91
345.35
313.56
270.90
227.73
190.48
161.51
140.91
127.11
119.06
116.15
117.08
119.09
117.54
107.26
84.54
48.54
1.17
-53.20
-109.08
-161.05
-204.75
-237.60
-259.34
-272.23
-280.89
-291.78
-311.43
-344.09
-389.55
-442.54
-494.27
-535.72
-561.00
-569.29
-564.32
-552.13
-538.19
-525.62
-514.92
-505.04
-494.61
-482.50
-467.85
-449.08
-423.84
-389.63
-345.01
-290.77
-229.98
-166.85
-105.33
-47.66
6.06
57.28
107.66
157.73
206.40
251.22
289.56
320.00
343.10
361.53
379.74
402.99
435.80
480.26
534.35
591.63
642.52
677.25
689.37
678.08
648.10
607.04
561.92
516.36
470.22
421.21
367.47
309.15
248.32
187.49
127.83
68.59
7.57
-57.60
-128.60
-206.03
-289.04
-375.20
-460.15
-537.56
-600.24
-642.12
-660.34
-656.47
-635.89
-605.63
-571.83
-538.14
-505.40
-473.12
-440.83
-408.88
-378.06
-348.76
-320.34
-291.40
-260.54
-227.00
-191.26
-154.78
-119.39
-86.42
-56.23
-28.09
-0.55
27.98
58.97
92.91
129.19
166.34
202.55
236.29
266.84
294.41
319.87
345.17
371.50
398.73
425.58
450.43
472.40
491.70
509.04
524.23
537.28
546.09
547.44
538.97
521.05
497.16
472.36
450.92
434.95
427.74
431.55
448.18
478.16
519.27
565.35
606.57
632.14
634.24
615.18
582.89
547.21
514.91
487.45
462.11
435.36
406.42
353.56
268.54
154.61
25.88
-99.85
-208.96
-295.78
-360.37
-404.94
-432.18
-441.25
-432.69
-409.39
-377.35
-343.26
-311.82
-287.07
-270.42
-261.77
-257.72
-255.80
-255.21
-257.65
-264.73
-277.84
-296.43
-318.19
-340.52
-360.01
-375.54
-382.46
-380.07
-369.02
-351.88
-331.51
-310.65
-292.42
-279.50
-274.73
-280.77
-300.71
-326.66
-352.17
-371.60
-380.47
-374.86
-350.66
-305.21
-239.70
-161.12
-80.09
-8.99
43.74
75.91
90.94
94.91
93.30
89.27
83.57
76.63
68.38
59.70
51.78
45.26
39.76
34.14
27.04
17.73
6.74
-5.22
-17.03
-27.68
-36.79
-44.62
-51.92
-59.39
-67.18
-74.57
-80.61
-84.13
-84.75
-81.57
-74.10
-62.38
-46.74
-27.48
-4.86
20.64
48.30
77.12
104.80
129.74
150.75
167.11
178.58
185.26
187.38
185.30
179.49
170.65
159.99
148.80
138.26
129.23
121.91
115.81
109.93
103.35
95.53
86.95
78.71
72.09
68.02
66.51
66.60
66.69
65.42
62.03
57.04
51.74
47.52
45.54
46.43
50.38
56.93
64.87
70.71
70.13
59.22
36.46
4.18
-31.79
-64.20
-87.38
-99.30
-101.87
-98.96
-94.02
-88.62
-82.41
-74.68
-65.63
-56.90
-50.60
-48.01
-48.57
-50.17
-50.54
-48.00
-42.75
-36.58
-32.20
-32.17
-38.27
-51.12
-69.90
-91.96
-112.60
-125.87
-126.28
-111.26
-82.65
-46.59
-11.36
15.84
31.27
35.53
32.44
26.92
22.79
22.35
26.82
36.15
48.84
61.59
70.23
70.53
61.80
46.63
30.30
19.39
19.00
30.71
51.28
73.50
88.79
90.32
75.50
47.00
11.97
-20.39
-41.29
-44.76
-29.12
2.11
40.85
76.45
98.63
100.98
83.66
53.60
21.18
-4.12
-17.51
-19.45
-13.65
-4.27
6.29
17.39
28.71
38.72
44.92
45.08
38.40
26.34
11.76
-2.41
-14.08
-22.55
-29.17
-35.71
-43.48
-52.57
-61.84
-69.65
-74.53
-76.16
-74.60
-71.34
-67.79
-64.99
-63.42
-62.01
-59.53
-54.90
-47.67
-38.01
-27.20
-16.55
-7.39
-0.58
3.68
5.58
5.83
5.18
4.68
4.97
6.93
10.88
16.61
23.56
30.74
37.12
41.64
43.89
43.54
41.12
36.93
30.98
23.19
13.31
1.28
-12.79
-26.35
-39.96
-51.58
-59.99
-64.96
-67.07
-67.42
-67.10
-67.14
-67.35
-67.32
-66.44
-64.93
-63.89
-65.19
-70.64
-79.01
-91.83
-109.54
-131.68
-155.90
-178.26
-193.18
-195.40
-182.18
-154.99
-120.21
-85.98
-59.42
-43.50
-37.18
-35.06
-31.97
-24.75
-12.50
3.68
22.81
44.46
68.79
94.21
119.19
141.35
158.21
168.10
170.57
166.97
159.58
150.79
142.29
134.98
128.47
121.72
114.05
105.17
95.56
86.15
77.76
70.88
65.62
61.48
57.57
53.46
48.99
44.40
40.07
36.35
33.30
30.77
29.23
27.16
23.78
18.71
11.95
3.76
-5.37
-14.91
-24.18
-32.53
-39.59
-44.81
-47.82
-48.53
-47.14
-44.10
-40.17
-36.05
-32.48
-30.23
-29.65
-30.80
-33.48
-37.32
-41.89
-46.87
-51.78
-56.39
-60.75
-64.82
-68.57
-71.91
-74.75
-77.08
-79.22
-81.25
-83.54
-86.56
-90.46
-94.98
-99.54
-103.36
-105.87
-107.03
-106.76
-105.51
-103.87
-101.98
-99.17
-94.03
-84.54
-68.31
-47.93
-24.86
-0.73
22.97
45.42
66.67
87.46
108.67
131.14
155.58
183.23
214.57
248.54
281.82
308.96
323.64
321.22
300.88
266.37
225.09
184.43
149.17
120.40
96.73
76.30
58.46
43.97
33.90
28.73
27.28
27.45
27.64
27.75
29.06
32.81
39.32
47.60
56.24
63.97
70.29
75.77
81.78
89.57
98.46
106.04
109.36
106.36
96.78
82.23
65.77
50.96
40.69
34.92
31.71
28.90
25.22
20.04
12.29
0.43
-16.82
-39.40
-67.58
-101.05
-138.67
-178.95
-220.86
-264.47
-309.73
-355.22
-385.22
-384.44
-347.47
-283.46
-209.12
-137.94
-76.19
-24.33
19.81
58.47
90.79
113.74
126.11
128.48
123.22
113.07
100.06
85.09
68.02
48.96
27.54
4.15
-19.54
-40.89
-57.45
-67.76
-71.46
-69.19
-63.10
-56.15
-50.57
-47.17
-45.32
-43.92
-41.97
-38.93
-34.67
-29.84
-25.67
-23.09
-22.32
-22.81
-23.64
-24.04
-23.54
-22.14
-20.39
-19.20
-19.34
-21.02
-23.80
-26.84
-29.29
-30.69
-31.15
-31.28
-32.22
-34.57
-38.42
-43.02
-47.34
-50.60
-52.98
-55.40
-58.65
-62.55
-65.95
-67.66
-67.41
-66.08
-64.73
-63.19
-59.36
-50.23
-33.89
-11.43
12.90
33.42
45.78
48.87
44.79
37.39
29.93
24.04
20.00
17.88
18.18
21.99
29.48
39.84
51.07
61.02
68.18
72.48
75.01
77.54
81.75
88.60
97.99
108.22
116.01
116.97
107.13
84.94
52.85
17.16
-13.94
-33.68
-39.64
-34.34
-23.38
-12.25
-3.72
2.73
9.28
17.48
26.81
35.19
40.90
43.79
45.06
45.76
44.95
39.52
26.10
3.66
-25.18
-54.71
-78.30
-90.88
-90.04
-75.80
-50.17
-16.89
18.09
46.89
62.03
59.44
40.91
13.75
-12.18
-28.92
-33.38
-26.14
-11.85
4.58
20.97
37.83
55.78
73.73
87.56
91.91
82.33
56.82
15.78
-38.53
-101.31
-165.32
-221.83
-262.46
-281.34
-277.51
-255.36
-223.34
-190.69
-163.98
-145.71
-134.80
-128.58
-124.67
-123.16
-122.75
-121.54
-116.95
-106.37
-88.86
-65.93
-41.11
-18.45
-0.98
11.10
19.74
28.16
39.42
54.97
74.45
96.11
118.15
137.49
153.64
167.90
183.05
202.72
230.13
266.63
310.31
355.44
393.62
416.88
420.52
405.45
378.16
347.83
322.26
304.97
294.53
286.19
275.03
257.74
232.95
200.29
159.41
110.22
54.50
-2.84
-54.13
-91.53
-110.53
-112.66
-105.14
-98.15
-101.04
-119.28
-153.36
-199.48
-250.63
-297.64
-330.35
-339.42
-319.16
-270.58
-202.45
-129.91
-69.83
-35.67
-33.60
-61.04
-107.56
-157.86
-195.71
-208.30
-190.05
-144.72
-84.58
-26.54
13.65
26.47
11.00
-26.29
-75.04
-124.74
-166.41
-192.94
-198.72
-180.51
-139.24
-81.67
-19.91
31.91
62.44
67.32
50.20
20.29
-11.89
-38.49
-55.93
-64.10
-64.39
-58.38
-47.54
-33.90
-20.25
-9.57
-3.69
-2.37
-3.54
-4.47
-3.22
0.73
6.58
13.21
20.00
27.24
36.01
47.68
63.22
82.44
103.47
122.63
134.89
135.14
119.97
89.53
48.56
5.91
-27.73
-43.10
-35.42
-5.76
39.52
91.54
142.07
185.90
221.70
251.23
277.71
303.96
331.18
358.32
382.07
397.73
400.60
387.92
360.08
320.85
275.70
229.63
185.51
144.08
105.30
70.08
40.92
20.67
10.51
8.49
9.70
8.29
-0.21
-17.26
-41.36
-69.08
-96.60
-120.63
-138.81
-149.88
-153.82
-151.82
-145.91
-138.12
-129.66
-120.72
-111.14
-101.54
-94.15
-92.26
-98.70
-113.99
-135.62
-159.14
-180.40
-197.77
-212.80
-228.92
-248.86
-272.67
-297.53
-319.17
-334.40
-343.08
-348.43
-355.56
-369.06
-391.03
-420.13
-451.96
-480.30
-498.70
-501.87
-486.76
-453.21
-403.67
-342.76
-275.99
-208.40
-143.57
-83.38
-28.26
22.11
68.25
110.66
149.35
183.65
212.35
234.00
247.44
252.41
249.87
241.77
230.95
219.91
210.02
201.62
194.30
187.50
180.74
173.62
165.99
158.40
151.16
143.89
136.05
127.27
117.83
108.46
100.11
94.08
92.84
98.25
110.63
128.85
150.16
170.60
184.94
187.62
174.90
147.63
109.95
67.30
25.69
-9.78
-35.72
-47.60
-43.08
-29.72
-12.86
6.83
27.30
45.64
58.38
62.36
54.30
31.58
-6.32
-55.73
-110.65
-165.23
-214.10
-252.93
-270.75
-259.17
-216.36
-148.33
-65.53
21.33
102.72
172.55
227.67
267.56
292.29
302.93
300.24
287.13
269.50
251.46
235.54
222.13
211.09
200.93
187.56
167.24
139.44
108.22
75.21
40.13
0.38
-45.98
-100.30
-165.12
-240.53
-322.74
-401.50
-469.13
-520.40
-553.94
-569.17
-549.21
-486.26
-384.53
-280.99
-190.09
-117.32
-58.43
-14.95
11.78
21.89
14.84
-7.29
-39.67
-71.89
-96.91
-104.42
-89.51
-52.23
1.51
60.46
114.67
158.28
192.62
218.94
238.18
249.52
253.13
250.39
242.33
230.84
217.96
207.48
200.68
196.98
193.75
188.71
180.84
169.75
157.20
143.08
128.35
112.68
95.04
73.89
48.54
20.00
-9.55
-37.24
-60.68
-77.79
-88.09
-92.35
-91.96
-88.56
-83.14
-75.91
-66.46
-54.25
-38.59
-19.60
1.06
22.86
42.09
54.32
55.81
46.36
28.07
6.20
-13.57
-28.74
-40.62
-52.76
-67.50
-84.72
-102.03
-116.57
-126.41
-131.50
-133.54
-134.49
-135.47
-135.97
-134.36
-128.76
-118.11
-102.46
-83.08
-62.41
-43.54
-30.10
-25.69
-32.76
-50.98
-75.97
-100.84
-116.21
-115.47
-97.32
-66.22
-30.32
2.40
27.38
44.53
56.76
66.99
75.77
81.84
83.63
81.10
75.99
71.01
68.26
68.63
70.89
72.11
69.39
61.12
47.09
28.23
5.92
-21.64
-54.10
-90.47
-129.60
-170.01
-209.11
-243.97
-273.28
-295.69
-309.97
-315.15
-310.72
-296.71
-273.71
-241.16
-198.64
-145.84
-84.21
-16.87
51.95
118.58
179.87
233.16
278.28
315.40
344.53
365.46
378.15
382.49
380.50
374.81
367.73
362.97
362.43
365.71
370.36
372.87
368.96
357.30
337.99
297.78
230.89
139.10
31.61
-78.71
-172.68
-247.88
-304.98
-344.36
-365.58
-366.32
-344.47
-300.05
-235.46
-157.38
-75.89
-0.06
62.84
108.41
137.39
152.66
157.30
153.64
143.10
126.23
105.33
83.14
61.98
44.31
31.32
22.71
17.09
12.60
7.31
1.04
-5.59
-11.75
-16.36
-18.97
-19.82
-19.64
-19.33
-19.70
-20.75
-22.11
-23.33
-23.95
-23.85
-23.17
-22.13
-20.89
-19.57
-18.02
-16.23
-14.22
-12.22
-10.56
-9.39
-8.52
-7.44
-5.55
-2.42
1.79
6.67
11.49
15.56
18.58
20.96
23.54
27.18
33.13
40.08
46.53
50.83
51.64
48.49
42.04
33.83
25.77
19.77
17.26
19.22
25.28
33.25
39.08
38.07
26.79
4.91
-24.05
-53.88
-77.63
-90.39
-90.97
-81.88
-67.72
-53.16
-41.38
-33.58
-29.70
-28.99
-30.67
-34.09
-38.56
-43.00
-45.97
-45.83
-41.25
-31.75
-17.80
-0.85
17.14
34.13
48.64
59.76
67.01
69.99
68.05
60.42
46.42
27.59
5.68
-17.30
-39.16
-58.00
-72.52
-82.23
-87.46
-89.01
-87.98
-85.39
-82.25
-79.17
-76.47
-74.18
-72.22
-70.45
-68.77
-67.03
-65.17
-63.67
-63.07
-63.97
-66.51
-70.32
-74.54
-78.06
-81.67
-83.42
-82.57
-78.95
-73.03
-64.82
-53.94
-39.63
-21.40
0.46
24.77
48.88
69.79
84.15
90.49
89.21
82.32
72.44
61.87
52.16
43.28
34.41
23.31
8.44
-11.34
-36.48
-66.29
-98.51
-128.84
-152.47
-159.59
-148.40
-123.63
-94.84
-71.84
-60.57
-61.43
-69.99
-80.71
-89.61
-97.29
-103.69
-108.19
-109.11
-104.38
-92.97
-75.46
-54.48
-33.58
-16.53
-3.73
6.58
17.81
33.92
54.76
79.21
104.85
128.73
148.32
164.30
178.39
193.18
211.30
235.04
266.18
304.49
346.81
386.54
416.71
429.72
420.68
389.55
341.38
284.62
227.64
176.12
123.84
70.12
18.17
-25.78
-55.89
-69.91
-70.12
-62.46
-54.15
-50.93
-52.58
-57.88
-64.18
-69.10
-72.00
-74.40
-79.48
-90.78
-110.56
-137.88
-169.78
-202.86
-234.84
-264.61
-291.33
-313.66
-330.09
-340.18
-345.44
-350.13
-358.75
-372.70
-388.00
-396.00
-387.65
-358.16
-310.06
-251.66
-193.03
-140.93
-96.34
-55.70
-15.24
25.11
61.02
86.47
98.51
99.88
98.74
104.69
124.13
157.24
198.36
239.42
273.94
299.68
318.39
333.44
347.88
364.19
384.26
409.56
440.05
472.40
500.16
515.90
512.98
488.76
446.14
392.03
334.37
279.15
228.28
181.45
138.52
98.74
61.17
25.13
-10.28
-46.15
-83.31
-122.84
-163.94
-203.06
-237.85
-268.09
-295.06
-321.65
-351.62
-387.80
-431.67
-479.43
-520.80
-546.12
-549.95
-532.39
-499.59
-461.52
-417.89
-373.57
-345.18
-333.07
-328.98
-327.98
-327.09
-324.63
-319.15
-308.94
-294.05
-274.25
-247.84
-215.87
-181.63
-147.99
-116.70
-88.17
-61.74
-37.59
-15.45
6.31
27.41
46.00
60.54
70.24
75.30
76.65
74.84
70.80
66.47
62.62
59.05
55.63
52.39
49.59
47.50
45.90
44.58
43.62
42.57
40.55
36.95
31.45
24.04
15.05
4.83
-6.10
-16.95
-27.09
-36.07
-43.46
-48.96
-52.47
-54.00
-53.68
-51.68
-48.21
-43.43
-37.52
-30.70
-23.28
-15.65
-8.20
-1.29
4.85
10.21
14.96
19.35
23.60
27.75
31.65
35.08
37.81
39.73
41.07
42.25
43.81
46.21
49.58
53.74
58.30
62.80
66.93
70.70
74.43
78.64
83.99
91.17
100.57
111.98
124.23
135.31
143.17
146.24
144.16
138.13
130.53
124.03
120.52
120.34
122.37
