1589199875.00
64.000000
-0.00
-0.00
-0.00
-0.00
-0.00
-0.00
-0.00
-0.00
-0.00
-0.00
0.00
0.01
0.01
-0.00
-0.03
-0.05
-0.05
0.00
0.13
0.36
0.66
1.01
1.37
1.72
2.06
2.40
2.79
3.24
3.80
4.42
5.06
5.66
6.20
6.68
7.15
7.68
8.31
9.14
10.09
11.04
11.88
12.56
13.14
13.76
14.65
15.96
17.91
20.32
22.90
25.38
27.58
29.57
31.68
34.32
37.81
42.54
48.15
54.10
59.83
64.97
69.58
74.14
79.34
85.71
93.76
103.00
112.62
121.73
129.77
136.75
143.30
150.75
157.77
166.64
177.95
191.79
206.97
220.57
228.25
225.36
208.53
176.87
132.76
80.05
23.07
-34.94
-92.44
-149.16
-205.23
-260.37
-313.74
-363.87
-409.83
-450.91
-486.50
-515.74
-537.23
-549.22
-549.96
-538.37
-514.21
-478.67
-433.88
-382.45
-327.02
-269.84
-212.63
-156.66
-102.95
-52.37
-5.90
35.58
71.43
101.35
125.50
144.38
158.69
169.15
176.37
180.75
182.57
182.07
179.51
175.23
169.65
163.18
156.15
148.81
141.30
133.69
126.02
118.33
110.69
103.16
95.80
88.68
81.83
75.25
68.95
62.95
57.25
51.86
46.78
42.03
37.59
33.45
29.61
26.07
22.81
19.83
17.11
14.67
12.48
10.54
8.83
7.35
6.07
4.97
4.05
3.27
2.62
2.09
1.65
1.30
1.01
0.79
0.61
0.48
0.37
0.29
0.24
0.20
0.18
0.17
0.17
0.19
0.21
0.23
0.27
0.30
0.34
0.39
0.43
0.47
0.52
0.57
0.62
0.68
0.74
0.80
0.86
0.94
1.02
1.11
1.21
1.32
1.45
1.59
1.75
1.92
2.12
2.34
2.58
2.84
3.14
3.46
3.82
4.20
4.63
5.08
5.58
6.11
6.68
7.30
7.95
8.65
9.40
10.19
11.03
11.92
12.85
13.83
14.88
16.00
17.19
18.43
19.73
21.04
22.32
23.49
24.44
25.07
25.24
24.84
23.77
21.99
19.48
16.29
12.49
8.26
3.79
-0.73
-5.06
-9.02
-12.42
-15.14
-17.12
-18.32
-18.79
-18.61
-17.89
-16.75
-15.31
-13.64
-11.85
-9.96
-8.01
-5.98
-3.93
-1.87
0.19
2.27
4.40
6.58
8.87
11.30
13.96
16.71
19.51
22.33
25.17
28.06
31.05
34.16
37.52
41.25
45.09
48.90
52.58
56.07
59.32
62.26
64.88
67.23
69.47
71.11
71.99
72.08
71.43
70.23
68.72
67.25
66.23
66.21
66.82
67.93
69.41
71.04
72.45
73.00
71.70
66.89
62.32
58.78
56.56
55.57
55.54
56.08
56.78
57.38
57.76
58.07
57.72
56.47
54.22
50.87
46.36
40.66
33.93
26.51
19.01
11.46
4.04
-3.30
-10.94
-19.54
-29.76
-41.88
-55.54
-69.64
-83.13
-94.86
-104.10
-110.78
-115.56
-119.57
-124.13
-130.43
-139.10
-150.22
-162.83
-175.10
-184.73
-189.44
-187.73
-179.24
-164.93
-146.62
-126.43
-106.06
-86.53
-68.18
-51.13
-35.74
-22.77
-13.30
-8.16
-7.46
-10.38
-15.24
-20.18
-23.68
-25.08
-24.63
-23.22
-21.88
-21.34
-21.90
-23.48
-25.99
-29.53
-34.46
-41.08
-49.40
-58.90
-68.68
-77.85
-85.94
-93.19
-100.36
-108.44
-118.27
-130.34
-144.66
-160.72
-177.51
-193.40
-206.30
-213.98
-214.55
-206.91
-191.07
-168.08
-139.69
-108.09
-75.53
-44.18
-15.91
7.95
26.77
40.74
50.63
57.46
62.06
64.97
66.47
66.85
66.55
66.17
66.25
66.92
67.82
68.15
67.10
64.18
59.50
53.69
47.50
41.41
35.40
28.89
21.09
11.27
-0.94
-15.39
-31.34
-47.50
-61.95
-72.40
-76.49
-72.39
-59.47
-38.68
-12.38
16.15
43.56
67.32
85.99
99.36
107.96
112.63
114.11
112.82
108.98
102.71
94.39
84.65
74.42
64.66
56.15
49.16
43.43
38.39
33.35
27.84
21.70
15.03
8.00
0.60
-7.45
-16.61
-27.37
-40.01
-54.59
-70.87
-88.24
-105.69
-121.63
-133.97
-140.31
-138.50
-127.39
-107.39
-80.58
-50.28
-20.13
6.90
29.26
46.93
61.06
73.27
84.80
96.17
107.17
117.27
125.92
132.68
137.05
138.35
135.90
129.37
119.22
106.80
93.90
82.13
72.23
63.94
56.34
48.55
40.16
31.28
22.17
12.81
2.70
-8.94
-22.66
-38.35
-55.01
-70.77
-83.13
-89.66
-88.51
-79.00
-61.88
-39.19
-13.69
11.78
34.86
54.10
68.91
79.28
85.62
88.41
88.19
85.51
80.97
75.16
68.70
62.11
55.86
50.32
45.67
41.96
38.98
36.28
33.27
29.34
24.05
17.21
8.97
-0.33
-10.25
-20.47
-30.89
-41.69
-53.32
-66.30
-80.94
-96.94
-113.12
-127.26
-136.54
-138.18
-130.44
-113.25
-88.42
-59.13
-28.98
-0.99
23.03
42.53
57.74
69.08
76.75
80.64
80.66
77.09
70.77
63.05
55.41
49.02
44.43
41.58
39.91
38.71
37.40
35.59
33.12
29.92
25.96
21.20
15.58
9.08
1.53
-7.26
-17.72
-30.21
-44.86
-61.09
-77.48
-91.69
-100.98
-102.88
-95.98
-80.44
-58.04
-31.69
-4.53
20.83
42.85
61.03
75.47
86.38
93.65
97.00
96.28
91.87
84.80
76.57
68.68
62.11
57.16
53.54
50.63
47.92
45.09
42.03
38.67
34.81
30.11
24.25
17.07
8.67
-0.66
-10.66
-21.29
-32.73
-45.15
-58.37
-71.40
-82.42
-89.06
-89.01
-80.86
-64.59
-41.66
-14.64
13.53
40.18
63.35
81.87
95.20
103.13
105.65
102.93
95.48
84.18
70.29
55.27
40.58
27.47
16.84
9.25
4.89
3.59
4.76
7.44
10.39
12.29
12.12
9.36
4.21
-2.63
-10.21
-17.77
-25.09
-32.60
-41.24
-51.94
-65.10
-79.99
-94.66
-106.23
-111.66
-108.74
-96.84
-77.26
-52.70
-26.56
-1.89
19.27
36.09
48.70
57.63
63.46
66.56
67.28
66.08
63.54
60.36
57.07
53.87
50.68
47.30
43.69
40.12
37.14
35.27
34.66
34.84
34.84
33.43
29.69
23.40
15.12
5.99
-2.70
-10.03
-15.83
-20.62
-25.49
-31.54
-39.55
-49.57
-60.83
-71.70
-80.01
-83.46
-80.23
-69.57
-52.20
-30.14
-6.31
16.32
35.55
50.37
60.88
67.93
72.45
75.05
75.89
74.89
72.06
67.69
62.36
56.79
51.61
47.20
43.64
40.88
38.88
37.65
37.24
37.52
38.07
38.11
36.69
32.99
26.66
17.98
7.81
-2.72
-12.64
-21.53
-29.65
-37.77
-46.93
-57.90
-70.85
-85.08
-99.01
-110.42
-116.95
-116.67
-108.69
-93.51
-72.94
-49.64
-26.45
-5.68
11.29
24.03
32.70
37.79
39.76
39.10
36.32
32.16
27.40
22.84
19.05
16.29
14.59
13.80
13.73
14.18
14.90
15.47
15.34
13.89
10.57
5.20
-2.02
-10.51
-19.47
-28.15
-36.09
-43.24
-50.02
-57.16
-65.43
-75.37
-86.90
-99.02
-109.84
-116.89
-117.69
-110.56
-95.30
-73.31
-47.27
-20.34
4.76
26.32
43.80
57.44
67.75
75.18
79.87
81.89
81.39
78.83
74.89
70.27
65.42
60.45
55.17
49.37
43.07
36.64
30.64
25.51
21.36
17.76
13.96
9.19
3.01
-4.49
-12.78
-21.12
-29.01
-36.41
-43.83
-52.11
-62.07
-73.99
-87.27
-100.25
-110.55
-115.58
-113.37
-103.22
-85.96
-63.72
-39.25
-15.06
7.06
26.24
42.28
55.21
65.06
71.78
75.43
76.33
75.06
72.36
68.89
65.11
61.26
57.42
53.67
50.16
47.08
44.66
42.98
41.87
40.81
38.98
35.50
29.70
21.48
11.37
0.41
-10.32
-20.02
-28.50
-36.22
-44.00
-52.76
-63.16
-75.47
-89.24
-103.35
-115.94
-124.57
-126.83
-121.03
-106.92
-85.99
-61.28
-36.38
-14.44
2.71
14.87
22.98
28.36
31.97
34.18
34.91
34.11
32.12
29.70
27.71
26.69
26.60
26.89
26.89
26.17
24.80
23.28
22.15
21.61
21.29
20.37
17.91
13.30
6.58
-1.56
-10.00
-17.67
-23.97
-29.07
-33.79
-39.35
-46.83
-56.79
-68.83
-81.64
-93.13
-100.96
-103.05
-98.16
-86.24
-68.42
-46.82
-23.94
-2.15
16.77
31.90
43.04
50.50
54.81
56.52
56.14
54.13
51.00
47.23
43.23
39.32
35.70
32.53
29.96
28.17
27.23
27.03
27.18
27.12
26.23
24.04
20.36
15.34
9.34
2.79
-3.97
-10.82
-17.86
-25.36
-33.72
-43.28
-54.14
-65.92
-77.51
-87.16
-92.75
-92.40
-85.10
-71.07
-51.85
-29.81
-7.53
12.86
30.02
43.38
52.93
58.89
61.49
60.98
57.72
52.34
45.65
38.62
32.09
26.65
22.61
19.92
18.35
17.57
17.17
16.69
15.65
13.56
10.07
5.00
-1.50
-9.02
-16.97
-24.75
-32.05
-38.91
-45.87
-53.69
-63.06
-74.09
-85.97
-96.95
-104.56
-106.27
-100.36
-86.48
-65.89
-41.18
-15.48
8.41
28.67
44.68
56.74
65.52
71.54
75.03
75.98
74.52
71.13
66.58
61.67
56.97
52.62
48.56
44.71
41.27
38.51
36.61
35.24
33.61
30.70
25.74
18.62
9.96
0.85
-7.68
-15.09
-21.59
-28.03
-35.51
-44.92
-56.57
-69.93
-83.69
-95.87
-104.22
-106.66
-101.78
-89.35
-70.38
-47.05
-22.14
1.58
22.04
38.16
49.87
57.81
62.88
65.88
67.32
67.44
66.26
63.79
60.09
55.46
50.28
45.06
40.29
36.33
33.38
31.36
29.94
28.52
26.37
22.83
17.48
10.37
1.97
-7.03
-15.96
-24.41
-32.44
-40.44
-49.06
-58.92
-70.25
-82.60
-94.67
-104.31
-109.03
-106.66
-96.14
-78.07
-54.54
-28.68
-3.62
18.26
35.82
49.06
58.62
65.26
69.41
71.21
70.68
68.12
64.22
59.94
56.21
53.58
52.10
51.45
51.22
51.16
51.21
51.26
50.96
49.58
46.14
39.87
30.56
18.88
6.09
-6.35
-17.35
-26.59
-34.62
-42.57
-51.66
-62.71
-75.61
-89.24
-101.52
-109.95
-112.26
-107.06
-94.37
-75.57
-53.12
-29.78
-8.01
10.59
25.30
36.07
43.18
46.95
47.76
46.03
42.40
37.64
32.50
27.63
23.42
20.06
17.63
16.20
15.78
16.21
17.06
17.66
17.21
15.01
10.80
4.71
-2.68
-10.65
-18.49
-25.84
-32.63
-39.17
-46.01
-53.72
-62.72
-72.89
-83.39
-92.56
-98.19
-98.07
-90.73
-76.07
-55.51
-31.71
-7.80
13.55
30.65
43.03
51.11
55.63
57.31
56.62
53.89
49.51
44.08
38.36
33.16
29.14
26.67
25.73
25.98
26.82
27.52
27.38
25.88
22.76
18.07
12.10
5.28
-2.00
-9.45
-16.91
-24.42
-32.17
-40.53
-49.92
-60.68
-72.65
-84.95
-95.74
-102.51
-102.79
-94.94
-78.90
-56.47
-30.78
-5.35
16.89
34.36
46.89
55.22
60.35
63.06
63.75
62.64
60.09
56.70
53.16
49.94
47.13
44.50
41.73
38.77
35.93
33.73
32.50
32.00
31.34
29.31
24.87
17.67
8.22
-2.27
-12.39
-21.16
-28.38
-34.79
-41.76
-50.70
-62.47
-76.76
-91.98
-105.51
-114.32
-115.86
-108.80
-93.43
-71.52
-45.79
-19.14
6.03
28.22
46.83
61.87
73.65
82.39
88.22
91.17
91.36
89.14
85.01
79.57
73.33
66.76
60.26
54.21
49.03
45.11
42.69
41.66
41.57
41.59
40.82
38.43
34.05
27.75
20.08
11.85
3.78
-3.71
-10.75
-17.90
-26.04
-35.90
-47.81
-61.35
-75.17
-87.15
-94.78
-95.86
-89.14
-74.92
-54.94
-32.01
-9.04
11.62
28.72
42.04
51.95
58.96
63.32
65.12
64.41
61.54
57.15
52.13
47.26
42.97
39.35
36.16
33.23
30.55
28.31
26.71
25.71
24.83
23.29
20.23
15.08
7.83
-0.99
-10.45
-19.58
-27.71
-34.68
-40.98
-47.48
-55.14
-64.62
-75.75
-87.39
-97.53
-103.77
-104.00
-97.08
-83.18
-63.80
-41.35
-18.48
2.48
19.93
33.09
41.92
46.76
48.21
46.89
43.41
38.44
32.69
26.86
21.60
17.36
14.36
12.53
11.57
11.06
10.53
9.52
7.56
4.30
-0.50
-6.83
-14.40
-22.71
-31.21
-39.53
-47.58
-55.61
-64.02
-73.08
-82.71
-92.26
-100.40
-105.38
-105.33
-98.86
-85.54
-66.12
-42.51
-17.16
7.55
29.90
49.09
65.06
78.11
88.49
96.30
101.45
103.91
103.87
101.79
98.36
94.40
90.68
87.71
85.73
84.50
83.45
81.71
78.44
72.99
65.19
55.33
44.10
32.32
20.66
9.50
-1.22
-11.90
-23.17
-35.61
-49.42
-64.15
-78.34
-89.78
-95.84
-94.30
-84.16
-66.13
-42.56
-16.77
7.89
28.96
45.30
57.04
65.03
70.32
73.67
75.42
75.56
74.02
70.80
66.16
60.59
54.65
48.88
43.59
38.88
34.63
30.62
26.69
22.68
18.53
14.10
9.22
3.69
-2.70
-9.93
-17.90
-26.43
-35.52
-45.34
-56.11
-67.67
-79.07
-88.42
-93.15
-90.87
-80.29
-61.92
-38.10
-12.31
11.93
32.12
47.23
57.58
64.14
67.88
69.34
68.63
65.64
60.50
53.68
45.97
38.26
31.22
25.15
20.05
15.65
11.72
8.14
4.89
1.97
-0.75
-3.56
-6.88
-11.12
-16.52
-23.08
-30.60
-38.86
-47.73
-57.22
-67.30
-77.58
-86.96
-93.69
-95.69
-91.24
-79.63
-61.68
-39.61
-16.42
4.97
22.38
34.71
41.91
44.52
43.37
39.31
33.13
25.51
16.96
7.84
-1.49
-10.84
-20.11
-29.39
-39.25
-50.76
-65.11
-83.01
-104.27
-128.22
-154.45
-183.57
-216.95
-255.58
-298.54
-342.45
-382.23
-413.12
-432.71
-441.64
-442.56
-438.13
-429.34
-415.36
-394.67
-366.79
-333.05
-296.22
-259.08
-223.18
-188.66
-154.90
-121.43
-88.78
-58.48
-32.36
-11.76
3.24
13.88
22.25
30.65
40.71
52.92
66.78
81.15
94.88
107.27
118.10
127.41
135.16
140.93
143.90
143.06
137.46
126.39
109.57
87.19
60.07
29.83
-1.18
-30.19
-54.62
-72.71
-83.88
-88.64
-88.04
-83.13
-74.45
-62.02
-45.66
-25.45
-2.05
23.38
49.46
75.06
99.64
123.29
146.63
170.60
196.24
224.54
256.15
290.74
326.40
359.49
385.29
399.44
399.53
386.11
362.43
333.03
302.00
271.66
242.47
213.81
185.21
157.17
131.15
109.07
92.53
82.37
78.51
80.10
85.83
94.14
103.48
112.49
120.04
125.29
127.68
126.94
123.14
116.69
108.20
98.41
87.97
77.32
66.74
56.44
46.67
37.71
29.87
23.36
18.23
14.32
11.31
8.75
6.14
2.99
-1.08
-6.30
-12.77
-20.50
-29.39
-39.22
-49.45
-59.13
-66.84
-70.95
-70.02
-63.32
-51.14
-34.82
-16.43
1.85
18.26
31.78
42.13
49.52
54.34
56.88
57.32
55.76
52.47
47.88
42.61
37.28
32.42
28.33
25.07
22.52
20.42
18.50
16.50
14.22
11.61
8.67
5.51
2.18
-1.31
-5.11
-9.51
-14.81
-21.32
-29.09
-37.80
-46.68
-54.48
-59.71
-61.00
-57.51
-49.23
-37.05
-22.53
-7.45
6.65
18.65
27.98
34.44
38.01
38.76
36.89
32.78
27.10
20.69
14.41
8.97
4.77
1.82
-0.13
-1.49
-2.67
-3.96
-5.48
-7.22
-9.13
-11.17
-13.43
-16.10
-19.43
-23.74
-29.30
-36.27
-44.49
-53.40
-61.91
-68.51
-71.61
-69.94
-63.06
-51.51
-36.75
-20.71
-5.35
7.93
18.36
25.74
30.21
31.90
30.96
27.61
22.37
16.09
9.88
4.72
1.25
-0.50
-0.93
-0.69
-0.39
-0.44
-1.01
-2.11
-3.72
-5.74
-8.15
-10.91
-14.11
-17.91
-22.59
-28.45
-35.66
-44.01
-52.77
-60.62
-65.84
-66.77
-62.33
-52.49
-38.37
-21.92
-5.37
9.47
21.53
30.55
36.82
40.70
42.45
42.15
39.89
35.94
30.88
25.45
20.35
16.08
12.77
10.25
8.19
6.24
4.17
1.93
-0.37
-2.60
-4.72
-6.85
-9.33
-12.59
-17.04
-22.88
-30.09
-38.32
-46.98
-55.16
-61.69
-65.20
-64.39
-58.50
-47.58
-32.75
-15.91
0.76
15.46
27.13
35.58
41.16
44.40
45.63
44.93
42.30
37.89
32.17
25.89
19.93
14.96
11.32
8.86
7.09
5.39
3.29
0.66
-2.30
-5.23
-7.91
-10.36
-12.88
-15.90
-19.71
-24.38
-29.78
-35.66
-41.73
-47.62
-52.72
-56.12
-56.67
-53.31
-45.61
-34.06
-20.03
-5.52
7.61
18.06
25.36
29.68
31.46
31.10
28.84
24.89
19.71
14.05
8.83
4.88
2.67
2.22
3.22
5.21
7.79
10.62
13.45
16.01
17.97
19.01
18.81
17.18
14.06
9.55
3.91
-2.46
-9.11
-15.59
-21.51
-26.44
-29.89
-31.17
-29.49
-24.13
-14.79
-1.80
13.72
30.03
45.25
57.78
66.78
72.18
74.49
74.40
72.41
68.69
63.20
55.97
47.38
38.12
29.08
20.95
13.96
7.93
2.33
-3.26
-8.99
-14.67
-19.95
-24.56
-28.45
-31.88
-35.27
-39.00
-43.31
-48.31
-54.01
-60.29
-66.87
-73.23
-78.49
-81.63
-81.65
-78.03
-70.96
-61.43
-51.02
-41.52
-34.45
-30.63
-29.96
-31.56
-34.06
-36.10
-36.77
-35.79
-33.49
-30.39
-26.86
-22.85
-17.79
-10.85
-1.26
11.30
26.49
43.39
60.81
77.71
93.37
107.23
118.56
126.12
128.19
123.18
110.36
90.56
66.22
40.78
17.63
-0.81
-13.55
-20.83
-23.40
-21.97
-16.95
-8.61
2.54
15.52
28.88
41.02
50.59
56.74
59.19
58.08
53.84
47.04
38.41
28.82
19.13
10.07
2.03
-5.01
-11.38
-17.58
-24.01
-30.92
-38.23
-45.67
-52.77
-59.07
-64.43
-69.18
-74.16
-80.47
-88.96
-99.63
-111.44
-122.32
-129.80
-131.80
-127.20
-116.18
-100.00
-80.59
-60.05
-40.33
-23.01
-9.27
0.26
5.52
7.12
6.09
3.65
0.86
-1.71
-3.90
-5.89
-7.84
-9.66
-11.03
-11.53
-10.85
-9.00
-6.43
-3.89
-2.25
-2.18
-3.92
-7.31
-11.86
-17.07
-22.75
-29.16
-36.83
-46.15
-56.89
-67.89
-77.21
-82.71
-82.82
-77.16
-66.73
-53.45
-39.37
-26.08
-14.27
-3.95
5.02
12.58
18.32
21.71
22.49
20.94
17.86
14.20
10.68
7.58
4.69
1.77
-1.24
-4.05
-6.13
-7.12
-7.10
-6.67
-6.73
-8.07
-10.96
-14.98
-19.21
-22.69
-24.92
-26.08
-27.01
-28.62
-31.47
-35.25
-38.84
-40.61
-39.08
-33.37
-23.47
-10.10
5.57
22.29
39.00
54.83
69.05
81.06
90.30
96.45
99.45
99.55
97.18
92.82
86.81
79.27
70.26
60.00
49.00
38.13
28.39
20.56
14.93
11.22
8.68
6.45
3.85
0.57
-3.37
-7.77
-12.42
-17.23
-22.33
-27.97
-34.45
-42.01
-50.55
-59.48
-67.58
-73.25
-74.87
-71.39
-62.66
-49.61
-34.02
-17.92
-3.12
9.20
18.54
24.93
28.64
29.91
28.90
25.68
20.45
13.66
6.07
-1.42
-7.92
-12.86
-16.09
-17.85
-18.65
-19.13
-19.89
-21.36
-23.73
-26.82
-30.16
-33.06
-34.90
-35.41
-34.82
-33.77
-33.06
-33.21
-34.23
-35.55
-36.19
-35.05
-31.19
-24.02
-13.49
-0.16
14.75
29.49
42.10
50.98
55.44
56.13
54.91
54.27
56.35
62.03
70.48
79.39
85.88
87.67
83.83
75.05
63.11
50.19
37.97
27.47
19.00
12.59
8.22
5.84
5.21
5.58
5.78
4.36
0.08
-7.60
-18.32
-30.87
-43.44
-54.13
-61.31
-63.97
-61.83
-55.28
-45.22
-32.84
-19.33
-5.83
6.70
17.47
25.91
31.70
34.81
35.56
34.43
32.02
28.80
25.11
21.18
17.25
13.65
10.73
8.72
7.54
6.81
5.87
4.13
1.27
-2.61
-7.10
-11.66
-15.88
-19.77
-23.76
-28.55
-34.77
-42.67
-51.90
-61.40
-69.67
-75.11
-76.47
-73.10
-65.10
-53.19
-38.51
-22.47
-6.48
8.12
20.28
29.35
35.18
38.08
38.65
37.61
35.53
32.79
29.52
25.76
21.64
17.49
13.83
11.22
10.06
10.32
11.49
12.66
12.92
11.70
9.01
5.39
1.57
-1.96
-5.30
-9.04
-13.94
-20.47
-28.52
-37.34
-45.77
-52.58
-56.78
-57.76
-55.33
-49.59
-41.01
-30.28
-18.38
-6.53
4.02
12.18
17.33
19.53
19.43
18.05
16.36
15.01
14.21
13.92
14.05
14.69
15.98
17.92
20.15
21.93
22.44
21.04
17.68
12.81
7.27
1.88
-2.70
-6.16
-8.46
-9.79
-10.54
-11.12
-11.98
-13.40
-15.27
-17.02
-17.60
-15.82
-10.69
-1.85
10.27
24.59
39.64
54.03
66.69
76.95
84.47
89.08
90.78
89.66
86.05
80.42
73.42
65.66
57.70
50.03
43.00
36.88
31.78
27.58
23.91
20.29
16.22
11.37
5.61
-1.09
-8.79
-17.60
-27.65
-38.95
-51.22
-63.85
-75.92
-86.27
-93.65
-96.91
-95.19
-88.19
-76.38
-60.99
-43.80
-26.63
-10.90
2.65
13.82
22.66
29.22
33.41
35.27
35.14
33.79
32.22
31.28
31.37
32.35
33.75
35.07
36.07
36.78
37.33
37.76
37.85
37.32
35.89
33.51
30.30
26.35
21.48
15.15
6.64
-4.51
-17.96
-32.28
-45.15
-54.05
-57.07
-53.59
-44.38
-31.19
-16.11
-1.00
12.81
24.47
33.38
39.15
41.56
40.75
37.28
31.98
25.66
18.89
11.85
4.53
-3.04
-10.59
-17.62
-23.57
-28.05
-31.00
-32.68
-33.60
-34.34
-35.42
-37.15
-39.64
-42.73
-46.16
-49.79
-53.68
-58.15
-63.33
-68.83
-73.42
-75.20
-72.22
-63.35
-48.84
-30.35
-10.34
8.81
25.53
39.24
50.10
58.36
63.98
66.61
65.93
62.08
55.92
48.89
42.51
37.77
34.84
33.04
31.28
28.68
24.95
20.48
15.98
12.06
8.85
5.91
2.54
-1.83
-7.32
-13.62
-20.26
-26.86
-33.30
-39.47
-44.91
-48.55
-48.84
-44.34
-34.34
-19.48
-1.55
16.96
33.82
47.71
58.38
66.35
72.28
76.44
78.60
78.32
75.41
70.31
64.08
58.08
53.42
50.59
49.26
48.51
47.21
44.43
39.70
32.99
24.59
14.92
4.30
-7.02
-18.96
-31.44
-44.42
-57.71
-70.97
-83.65
-94.97
-103.97
-109.53
-110.59
-106.37
-96.58
-81.67
-62.85
-41.94
-21.05
-2.11
13.54
25.32
33.40
38.33
40.73
41.03
39.39
35.93
30.94
25.09
19.30
14.53
11.34
9.72
9.06
8.49
7.25
4.99
1.85
-1.73
-5.29
-8.70
-12.19
-16.18
-21.09
-27.03
-33.85
-41.12
-48.24
-54.47
-58.88
-60.37
-57.71
-49.94
-36.72
-18.68
2.59
24.87
45.88
63.83
77.78
87.57
93.59
96.46
96.75
94.97
91.57
87.15
82.40
78.07
74.75
72.60
71.30
70.08
67.93
64.00
57.91
49.93
40.89
31.93
23.98
17.43
11.98
6.69
0.44
-7.75
-18.32
-31.13
-45.43
-60.07
-73.61
-84.47
-91.13
-92.30
-87.38
-76.68
-61.60
-44.36
-27.48
-13.02
-2.07
5.36
9.98
12.65
13.91
13.75
11.97
8.52
3.77
-1.42
-6.14
-9.71
-12.01
-13.38
-14.34
-15.23
-16.10
-16.74
-16.99
-16.98
-17.25
-18.65
-21.98
-27.74
-35.80
-45.51
-55.79
-65.45
-73.33
-78.42
-79.86
-77.02
-69.60
-57.85
-42.65
-25.42
-7.92
8.15
21.40
30.93
36.41
38.04
36.42
32.52
27.48
22.37
18.05
14.99
13.32
12.95
13.62
15.10
17.09
19.24
21.19
22.57
23.14
22.78
21.49
19.24
15.88
11.12
4.66
-3.62
-13.33
-23.43
-32.20
-37.65
-38.06
-32.61
-21.71
-7.03
9.07
24.25
36.81
46.00
51.84
54.71
54.93
52.68
48.09
41.56
33.89
26.15
19.40
14.27
10.71
8.09
5.54
2.37
-1.64
-6.16
-10.58
-14.38
-17.48
-20.25
-23.41
-27.67
-33.48
-40.78
-49.10
-57.57
-65.06
-70.29
-71.97
-69.09
-61.22
-48.71
-32.80
-15.25
2.03
17.51
30.31
40.26
47.55
52.50
55.28
55.85
54.26
50.71
45.83
40.46
35.49
31.48
28.52
26.29
24.18
21.74
18.82
15.69
12.80
10.50
8.68
6.73
3.67
-1.48
-9.23
-19.37
-30.97
-42.44
-51.95
-57.76
-58.62
-54.13
-44.93
-32.71
-19.87
-8.91
-1.63
1.30
0.53
-2.50
-6.18
-9.43
-11.93
-14.00
-16.21
-19.00
-22.53
-26.73
-31.44
-36.46
-41.54
-46.21
-49.82
-51.70
-51.45
-49.18
-45.54
-41.54
-38.27
-36.65
-37.17
-39.90
-44.51
-50.21
-55.85
-60.01
-61.19
-58.17
-50.35
-37.96
-22.06
-4.25
13.73
30.49
45.21
57.68
68.00
76.25
82.19
85.27
84.91
80.96
73.95
65.13
56.07
48.16
42.05
37.64
34.27
31.20
27.96
24.50
21.06
17.86
14.94
12.10
9.04
5.48
1.26
-3.75
-9.78
-17.10
-25.86
-35.82
-45.97
-54.63
-59.71
-59.40
-52.76
-40.18
-23.21
-4.13
14.84
32.01
46.42
57.72
65.84
70.76
72.50
71.28
67.68
62.66
57.32
52.63
49.12
46.62
44.43
41.45
36.61
29.26
19.45
8.00
-3.76
-14.45
-23.11
-29.46
-33.88
-37.12
-39.99
-43.12
-46.88
-51.39
-56.51
-61.85
-66.62
-69.78
-70.19
-66.95
-59.65
-48.62
-34.84
-19.74
-4.81
8.67
19.71
27.56
31.66
31.55
27.13
18.87
8.11
-3.05
-12.28
-17.83
-19.12
-17.06
-13.63
-11.07
-11.01
-13.88
-18.99
-24.91
-30.20
-33.97
-36.18
-37.57
-39.21
-42.07
-46.56
-52.26
-58.04
-62.38
-63.84
-61.48
-55.04
-44.88
-31.77
-16.60
-0.33
15.90
30.75
42.65
50.23
52.70
50.25
44.06
35.94
27.70
20.63
15.15
11.02
7.76
4.99
2.62
0.80
-0.36
-1.00
-1.55
-2.58
-4.55
-7.68
-11.97
-17.37
-23.98
-32.02
-41.61
-52.28
-62.76
-70.99
-74.63
-71.88
-62.19
-46.60
-27.46
-7.57
10.66
25.94
38.03
47.33
54.20
58.50
59.72
57.37
51.64
43.53
34.76
27.05
21.48
18.07
15.95
13.91
11.06
7.18
2.79
-1.36
-4.80
-7.67
-10.74
-15.11
-21.68
-30.87
-42.52
-55.94
-70.08
-83.54
-94.73
-101.83
-103.14
-97.45
-84.52
-65.30
-41.87
-17.01
6.49
26.49
41.87
52.38
58.43
60.53
59.07
54.31
46.65
36.95
26.60
17.21
10.05
5.63
3.48
2.43
1.26
-0.80
-3.75
-7.05
-10.03
-12.42
-14.57
-17.34
-21.68
-28.20
-36.84
-46.85
-56.91
-65.44
-70.83
-71.58
-66.56
-55.15
-37.59
-15.13
10.07
35.37
58.25
76.93
90.59
99.28
103.39
103.34
99.37
91.80
81.30
69.12
56.95
46.52
39.14
35.20
34.19
34.87
35.71
35.39
33.17
29.10
23.82
18.27
13.22
8.91
4.95
0.49
-5.41
-13.48
-23.97
-36.68
-50.89
-65.36
-78.37
-87.83
-91.68
-88.41
-77.54
-59.81
-37.05
-11.65
13.92
37.63
57.99
74.09
85.56
92.54
95.62
95.78
94.08
91.35
87.99
84.04
79.37
74.09
68.62
63.70
59.97
57.68
56.50
55.62
54.07
51.07
46.24
39.60
31.49
22.40
12.97
3.87
-4.26
-11.03
-16.52
-21.34
-26.64
-33.59
-42.85
-54.04
-65.53
-74.71
-78.75
-75.54
-64.43
-46.50
-24.19
-0.49
21.95
41.48
57.48
70.02
79.38
85.66
88.75
88.57
85.39
79.95
73.34
66.65
60.64
55.59
51.31
47.48
43.93
40.74
38.15
36.33
34.97
33.26
30.01
24.05
14.76
2.37
-12.01
-26.71
-39.96
-50.57
-58.16
-63.36
-67.45
-71.97
-78.19
-86.65
-96.95
-107.73
-116.93
-122.21
-121.45
-113.31
-97.62
-75.46
-49.02
-21.06
5.73
29.24
48.26
62.40
71.84
77.00
78.33
76.30
71.52
64.90
57.64
51.03
46.06
43.05
41.59
40.66
39.08
36.00
31.29
25.53
19.73
14.84
11.35
9.01
7.00
4.30
0.16
-5.50
-12.12
-18.79
-24.75
-29.76
-34.23
-38.94
-44.60
-51.50
-59.40
-67.60
-75.13
-80.90
-83.78
-82.64
-76.49
-64.75
-47.58
-26.01
-1.83
22.74
45.57
65.03
80.20
90.90
97.46
100.51
100.73
98.74
95.14
90.52
85.57
80.93
77.11
74.36
72.56
71.32
70.19
68.85
67.27
65.62
64.11
62.76
61.29
59.16
55.80
50.87
44.45
37.03
29.31
21.98
15.36
9.33
3.33
-3.45
-11.78
-22.10
-34.32
-47.66
-60.75
-71.78
-78.92
-80.77
-76.73
-67.22
-53.63
-37.93
-22.22
-8.19
3.07
11.18
16.35
19.10
20.09
19.89
18.93
17.40
15.41
13.10
10.84
9.30
9.28
11.46
16.03
22.48
29.70
36.26
40.90
42.91
42.21
39.21
34.52
28.65
21.92
14.48
6.46
-2.04
-10.99
-20.50
-30.77
-41.87
-53.47
-64.60
-73.71
-79.12
-79.54
-74.57
-64.93
-52.28
-38.79
-26.71
-17.86
-13.36
-13.50
-17.76
-25.11
-34.30
-44.21
-53.98
-62.96
-70.41
-75.48
-77.14
-74.61
-67.74
-57.20
-44.30
-30.46
-16.78
-3.82
8.16
18.77
27.24
32.47
33.50
29.97
22.44
12.14
0.49
-11.42
-23.05
-34.12
-44.14
-51.92
-55.74
-53.89
-45.48
-31.07
-12.72
6.73
24.50
38.82
49.15
55.83
59.51
60.53
58.82
54.25
47.08
38.26
29.32
21.79
16.66
13.86
12.36
10.61
7.14
1.25
-6.80
-15.96
-24.85
-32.38
-38.12
-42.43
-46.18
-50.33
-55.55
-62.14
-70.00
-78.83
-88.11
-97.06
-104.46
-108.73
-108.22
-101.82
-89.38
-71.99
-51.79
-31.33
-12.98
1.79
12.43
19.22
22.89
24.17
23.61
21.60
18.40
14.38
10.11
6.23
3.30
1.57
0.84
0.56
0.08
-1.07
-2.99
-5.40
-7.91
-10.28
-12.66
-15.61
-19.84
-25.94
-34.05
-43.80
-54.38
-64.82
-74.14
-81.51
-86.24
-87.76
-85.61
-79.57
-69.74
-56.76
-41.65
-25.70
-10.08
4.38
17.30
28.60
38.27
46.19
52.04
55.54
56.57
55.53
53.20
50.60
48.63
47.72
47.77
48.19
48.28
47.48
45.63
42.88
39.50
35.69
31.36
26.21
19.85
12.02
2.73
-7.71
-18.62
-29.06
-37.79
-43.42
-44.63
-40.51
-30.90
-16.59
0.81
19.29
36.88
52.13
64.18
72.70
77.56
78.74
76.28
70.49
62.10
52.31
42.56
34.15
27.89
23.86
21.56
20.16
18.90
17.36
15.51
13.62
11.93
10.40
8.55
5.50
0.17
-8.39
-20.61
-36.18
-53.85
-71.58
-86.80
-97.04
-100.48
-96.46
-85.64
-69.83
-51.44
-32.81
-15.77
-1.37
9.99
18.27
23.50
25.77
25.32
22.65
18.64
14.36
10.74
8.33
7.15
6.75
6.54
6.04
5.04
3.65
2.03
0.28
-1.74
-4.32
-7.92
-12.94
-19.75
-28.54
-39.36
-51.91
-65.32
-78.03
-87.81
-92.29
-89.61
-79.20
-62.06
-40.59
-17.90
3.17
20.77
34.40
44.55
52.12
57.81
61.70
63.43
62.56
59.04
53.39
46.64
39.93
34.10
29.43
25.64
22.20
18.61
14.75
10.79
7.05
3.69
0.53
-2.98
-7.54
-13.72
-21.74
-31.38
-42.17
-53.48
-64.53
-74.35
-81.56
-84.44
-81.25
-70.91
-53.47
-30.33
-3.99
22.74
47.51
68.87
86.37
100.26
111.04
119.09
124.64
127.77
128.56
127.19
123.95
119.24
113.49
107.15
100.57
94.06
87.86
82.17
77.10
72.57
68.20
63.37
57.39
49.79
40.60
30.36
19.89
9.91
0.60
-8.44
-18.04
-28.90
-41.12
-53.80
-65.16
-72.97
-75.28
-71.12
-60.74
-45.54
-27.53
-8.67
9.54
26.27
41.12
53.77
63.89
71.11
75.33
76.86
76.49
75.18
73.81
72.84
72.37
72.15
71.89
71.19
69.65
66.78
62.04
54.96
45.27
33.04
18.58
2.43
-14.85
-32.63
-50.33
-67.36
-83.36
-98.31
-112.59
-126.79
-141.32
-155.98
-169.76
-181.01
-187.96
-189.29
-184.59
-174.31
-159.62
-141.98
-122.77
-103.18
-84.22
-66.77
-51.60
-39.32
-30.20
-24.09
-20.44
-18.42
-17.22
-16.20
-15.02
-13.57
-11.83
-9.67
-6.82
-2.89
2.43
9.15
16.89
24.86
32.09
37.62
40.86
41.61
40.18
37.13
33.12
28.57
23.54
17.73
10.56
1.47
-9.76
-22.68
-36.00
-47.67
-55.26
-56.69
-50.75
-37.59
-18.59
3.97
27.69
50.55
71.21
89.09
104.00
115.99
125.13
131.50
135.24
136.63
136.05
133.86
130.24
125.02
117.75
107.89
95.17
79.90
63.10
46.28
30.97
18.16
7.90
-0.70
-9.02
-18.29
-28.99
-40.68
-52.25
-62.53
-70.80
-77.05
-81.87
-86.10
-90.50
-95.51
-101.25
-107.47
-113.55
-118.38
-120.43
-118.02
-109.78
-95.24
-75.09
-51.13
-25.76
-1.39
20.16
37.96
51.88
62.37
70.01
75.25
78.33
79.37
78.56
76.38
73.55
70.85
68.84
67.68
67.12
66.75
66.33
65.86
65.50
65.26
64.75
63.18
59.64
53.57
45.04
34.84
24.12
13.98
5.06
-2.60
-9.41
-16.05
-23.12
-31.04
-39.88
-49.32
-58.58
-66.50
-71.68
-72.78
-68.87
-59.78
-46.23
-29.71
-12.14
4.62
19.08
30.38
38.23
42.85
44.70
44.40
42.58
39.82
36.55
33.08
29.61
26.36
23.55
21.42
20.12
19.56
19.39
19.07
18.06
16.05
12.97
8.98
4.30
-0.91
-6.60
-12.74
-19.32
-26.26
-33.50
-41.10
-49.31
-58.46
-68.73
-79.88
-91.00
-100.49
-106.39
-106.87
-100.92
-88.72
-71.67
-51.97
-31.95
-13.48
2.40
15.45
25.86
33.86
39.59
43.06
44.43
44.10
42.72
40.95
39.23
37.62
35.95
33.99
31.68
29.23
26.96
25.08
23.42
21.41
18.26
13.23
5.98
-3.26
-13.71
-24.34
-34.18
-42.74
-50.13
-57.04
-64.40
-72.91
-82.69
-93.00
-102.33
-108.78
-110.62
-106.84
-97.38
-83.17
-65.80
-47.08
-28.62
-11.53
3.60
16.60
27.57
36.63
43.88
49.35
53.12
55.29
56.16
56.10
55.50
54.66
53.68
52.52
51.05
49.17
46.79
43.81
40.05
35.22
29.01
21.30
12.29
2.58
-6.97
-15.60
-22.76
-28.41
-32.93
-36.98
-41.30
-46.51
-52.92
-60.37
-68.08
-74.55
-77.84
-75.98
-67.65
-52.79
-32.79
-10.17
12.16
31.66
46.79
57.17
63.23
65.82
65.80
63.88
60.71
56.97
53.32
50.35
48.22
46.66
45.00
42.49
38.63
33.46
27.42
21.18
15.20
9.58
4.14
-1.42
-7.23
-13.14
-18.89
-24.31
-29.53
-35.03
-41.44
-49.25
-58.51
-68.65
-78.47
-86.39
-90.74
-90.18
-84.02
-72.52
-56.81
-38.63
-19.98
-2.56
12.46
24.53
33.55
39.62
42.84
43.32
41.22
36.93
31.15
24.73
18.55
13.33
9.47
7.14
6.20
6.32
6.96
7.46
7.17
5.61
2.68
-1.36
-6.01
-10.76
-15.37
-19.98
-25.03
-31.03
-38.30
-46.75
-55.77
-64.31
-70.98
-74.32
-73.13
-66.79
-55.50
-40.30
-22.87
-5.18
11.04
24.53
34.66
41.37
44.95
45.90
44.73
41.96
38.10
33.55
28.71
23.93
19.56
15.92
13.27
11.63
10.78
10.18
9.14
7.07
3.71
-0.75
-5.80
-10.86
-15.62
-20.24
-25.33
-31.75
-40.16
-50.64
-62.48
-74.14
-83.60
-88.83
-88.30
-81.50
-68.94
-52.13
-33.06
-13.79
3.99
19.19
31.27
40.18
46.11
49.45
50.57
49.88
47.72
44.46
40.40
35.86
31.21
26.78
22.90
19.77
17.41
15.63
14.10
12.38
10.13
7.14
3.36
-1.10
-6.15
-11.80
-18.19
-25.62
-34.38
-44.55
-55.76
-67.11
-77.17
-84.29
-86.96
-84.26
-76.03
-62.89
-46.05
-26.98
-7.18
12.03
29.65
45.02
57.93
68.43
76.74
83.08
87.54
90.23
91.32
91.12
90.09
88.71
87.33
86.10
85.00
83.83
82.36
80.31
77.52
74.00
69.99
66.01
62.65
60.31
59.01
58.26
57.19
54.83
50.40
43.60
34.69
24.54
14.48
6.03
0.58
-1.03
1.18
6.27
12.62
18.39
22.14
23.30
22.17
19.64
16.54
13.13
9.04
3.57
-3.73
-12.68
-22.40
-31.79
-40.04
-46.96
-52.90
-58.37
-63.61
-68.45
-72.59
-75.91
-78.74
-81.76
-85.62
-90.58
-96.32
-102.22
-107.71
-112.61
-117.21
-122.03
-127.36
-132.94
-137.81
-140.50
-139.45
-133.41
-121.92
-105.41
-85.29
-63.67
-42.83
-24.73
-10.35
0.41
8.67
16.08
24.27
34.33
46.71
61.28
77.60
94.99
112.58
129.26
143.70
154.58
160.86
162.01
158.03
149.30
136.32
119.55
99.48
76.82
52.61
28.24
5.02
-16.17
-35.31
-53.01
-70.05
-86.56
-101.55
-113.04
-118.79
-117.37
-108.80
-94.70
-77.57
-59.88
-43.34
-28.63
-15.75
-4.46
5.24
13.10
18.74
21.90
22.70
21.62
19.44
17.05
15.28
14.64
15.21
16.60
18.15
19.16
19.14
17.96
15.69
12.57
8.75
4.24
-1.09
-7.38
-14.76
-23.31
-33.06
-44.02
-56.01
-68.51
-80.41
-90.03
-95.30
-94.39
-86.36
-71.64
-52.04
-30.28
-9.21
9.02
23.31
33.72
40.93
45.83
49.08
50.89
51.18
49.78
46.72
42.38
37.41
32.62
28.66
25.90
24.30
23.53
23.14
22.67
21.77
20.16
17.58
13.79
8.57
1.89
-6.00
-14.58
-23.18
-31.29
-38.77
-46.02
-53.81
-62.86
-73.24
-84.03
-93.28
-98.66
-98.23
-91.29
-78.75
-62.72
-45.65
-29.47
-14.96
-1.84
10.65
23.07
35.30
46.75
56.79
65.33
72.91
80.32
87.91
95.04
100.20
101.64
98.47
91.15
81.55
72.09
64.74
60.23
57.98
56.73
55.32
53.35
51.12
49.23
48.00
47.03
45.38
41.88
35.74
26.86
15.91
4.17
-6.85
-15.76
-21.51
-23.54
-21.81
-16.81
-9.45
-0.92
7.53
14.81
20.12
23.02
23.49
21.79
18.45
14.11
9.47
5.07
1.25
-1.83
-4.10
-5.50
-5.94
-5.39
-4.00
-2.22
-0.72
-0.20
-1.08
-3.40
-6.78
-10.63
-14.48
-18.17
-21.96
-26.44
-32.16
-39.38
-47.91
-57.02
-65.64
-72.55
-76.60
-76.92
-72.93
-64.49
-51.97
-36.33
-18.95
-1.52
14.37
27.50
37.32
43.92
47.81
49.71
50.15
49.37
47.38
44.15
39.90
35.18
30.82
27.60
25.89
25.44
25.47
25.00
23.27
20.12
15.91
11.31
6.88
2.77
-1.36
-6.13
-12.17
-19.82
-28.98
-39.11
-49.29
-58.38
-65.08
-68.20
-66.75
-60.23
-48.85
-33.52
-15.77
2.52
19.59
34.12
45.52
53.88
59.74
63.73
66.31
67.63
67.59
66.04
63.01
58.86
54.19
49.70
45.88
42.88
40.42
38.00
35.10
31.46
27.15
22.54
18.02
13.81
9.79
5.55
0.64
-5.26
-12.21
-20.04
-28.49
-37.25
-45.90
-53.75
-59.73
-62.48
-60.75
-53.86
-42.18
-27.17
-11.02
3.99
16.28
25.29
31.45
35.72
38.91
41.30
42.61
42.25
39.89
35.71
30.48
25.22
20.81
17.62
15.54
14.07
12.72
11.20
9.51
7.83
6.26
4.69
2.83
0.26
-3.31
-7.96
-13.55
-19.83
-26.56
-33.62
-40.89
-47.99
-54.13
-58.04
-58.32
-53.91
-44.63
-31.42
-16.13
-1.01
12.07
22.06
28.88
33.14
35.62
36.85
36.93
35.67
32.94
28.93
24.23
19.68
16.03
13.59
12.12
11.01
9.56
7.33
4.36
0.99
-2.30
-5.28
-8.07
-11.12
-14.90
-19.68
-25.44
-31.93
-38.83
-45.87
-52.79
-59.10
-63.90
-65.93
-63.95
-57.17
-45.75
-30.92
-14.68
0.81
13.86
23.72
30.54
35.04
38.03
39.92
40.66
39.88
37.38
33.37
28.60
24.09
20.68
18.65
17.64
16.89
15.59
13.36
10.33
7.00
3.90
1.26
-1.18
-3.91
-7.43
-12.00
-17.50
-23.65
-30.19
-37.04
-44.19
-51.41
-57.89
-62.23
-62.81
-58.36
-48.62
-34.60
-18.40
-2.46
11.23
21.70
29.04
34.02
37.54
40.07
41.58
41.70
40.14
37.05
32.98
28.80
25.26
22.70
21.04
19.84
18.68
17.30
15.68
13.92
12.12
10.12
7.63
4.29
-0.04
-5.13
-10.52
-15.68
-20.36
-24.79
-29.65
-35.64
-43.02
-51.12
-58.27
-62.33
-61.32
-54.41
-42.20
-26.60
-10.16
4.90
17.27
26.74
33.80
39.08
42.89
45.04
45.20
43.23
39.50
34.82
30.18
26.27
23.31
21.02
18.97
16.87
14.80
13.06
11.92
11.32
10.71
9.38
6.73
2.64
-2.45
-7.76
-12.58
-16.66
-20.42
-24.70
-30.37
-37.73
-46.26
-54.49
-60.48
-62.40
-59.23
-51.10
-39.23
-25.48
-11.69
0.76
11.19
19.34
25.14
28.43
29.08
27.21
23.37
18.54
13.80
9.97
7.29
5.47
4.00
2.55
1.13
0.04
-0.38
-0.13
0.42
0.59
-0.20
-2.23
-5.28
-8.87
-12.49
-15.94
-19.48
-23.72
-29.30
-36.44
-44.78
-53.17
-60.02
-63.69
-63.02
-57.69
-48.26
-35.91
-22.09
-8.15
4.88
16.29
25.66
32.69
37.23
39.33
39.24
37.50
34.74
31.53
28.21
24.88
21.49
18.07
14.91
12.46
11.15
11.05
11.68
12.14
11.43
8.97
4.82
-0.32
-5.54
-10.12
-13.96
-17.58
-21.84
-27.56
-35.03
-43.85
-52.91
-60.67
-65.56
-66.39
-62.61
-54.39
-42.52
-28.31
-13.17
1.47
14.46
25.01
32.81
37.99
40.98
42.34
42.56
41.90
40.34
37.73
33.99
29.33
24.28
19.60
15.99
13.77
12.71
12.11
11.09
9.02
5.79
1.76
-2.40
-6.17
-9.38
-12.30
-15.43
-19.28
-24.18
-30.31
-37.55
-45.50
-53.35
-59.87
-63.49
-62.74
-56.70
-45.49
-30.29
-13.13
3.66
18.13
29.11
36.40
40.55
42.49
43.11
42.96
42.17
40.58
38.00
34.43
30.18
25.80
21.91
18.96
17.05
15.90
15.02
13.89
12.17
9.76
6.80
3.50
-0.05
-3.88
-8.10
-12.81
-18.01
-23.62
-29.60
-35.90
-42.50
-49.14
-55.08
-59.10
-59.74
-55.73
-46.61
-33.03
-16.72
-0.01
14.85
26.43
34.31
39.00
41.44
42.51
42.61
41.67
39.44
35.81
31.09
25.94
21.23
17.66
15.47
14.42
13.97
13.58
12.87
11.73
10.22
8.37
6.05
3.02
-0.88
-5.60
-10.80
-16.03
-20.97
-25.69
-30.70
-36.53
-43.34
-50.47
-56.42
-59.24
-57.28
-49.86
-37.62
-22.37
-6.43
8.15
20.11
29.13
35.49
39.68
41.99
42.44
40.98
37.74
33.22
28.20
23.57
19.99
17.70
16.50
15.94
15.57
15.15
14.64
14.14
13.67
13.01
11.77
9.50
6.02
1.47
-3.65
-8.78
-13.58
-18.19
-23.13
-28.96
-35.82
-43.03
-49.14
-52.30
-50.93
-44.42
-33.36
-19.40
-4.60
9.20
20.86
30.06
36.96
41.77
44.55
45.16
43.56
40.07
35.46
30.71
26.74
24.01
22.50
21.77
21.37
21.01
20.68
20.45
20.34
20.08
19.20
17.22
13.91
9.47
4.45
-0.44
-4.75
-8.52
-12.27
-16.79
-22.62
-29.66
-36.99
-43.05
-46.11
-44.89
-39.02
-29.12
-16.64
-3.31
9.29
20.14
28.72
34.85
38.48
39.55
38.13
34.55
29.55
24.13
19.31
15.70
13.36
11.88
10.66
9.28
7.65
6.00
4.64
3.70
3.02
2.15
0.63
-1.78
-4.98
-8.58
-12.20
-15.74
-19.53
-24.11
-29.82
-36.39
-42.80
-47.47
-48.82
-45.86
-38.62
-28.08
-15.90
-3.74
7.04
15.71
22.03
25.96
27.47
26.45
22.89
17.18
10.19
3.26
-2.28
-5.62
-6.71
-6.32
-5.46
-5.01
-5.25
-5.95
-6.66
-7.13
-7.52
-8.33
-10.09
-13.13
-17.42
-22.66
-28.54
-34.83
-41.40
-47.95
-53.78
-57.72
-58.37
-54.62
-46.12
-33.64
-18.92
-4.13
8.85
19.03
26.33
31.36
34.74
36.74
37.11
35.39
31.42
25.70
19.31
13.65
9.79
8.05
7.93
8.38
8.37
7.33
5.31
2.88
0.62
-1.24
-3.00
-5.30
-8.81
-13.90
-20.51
-28.20
-36.38
-44.39
-51.41
-56.53
-58.63
-56.69
-50.18
-39.35
-25.40
-10.18
4.34
16.66
26.05
32.56
36.70
39.05
39.98
39.57
37.80
34.74
30.76
26.47
22.52
19.42
17.25
15.73
14.31
12.49
10.01
6.98
3.74
0.64
-2.16
-4.87
-7.91
-11.82
-16.91
-23.19
-30.29
-37.54
-44.08
-48.98
-51.35
-50.44
-45.75
-37.23
-25.34
-11.15
3.92
18.24
30.42
39.52
45.29
48.01
48.29
46.88
44.37
41.12
37.33
33.12
28.78
24.72
21.45
19.29
18.28
18.00
17.77
16.88
14.98
12.10
8.68
5.22
1.98
-1.22
-4.92
-9.77
-16.15
-23.97
-32.68
-41.38
-49.01
-54.54
-57.08
-55.99
-50.95
-42.10
-30.17
-16.42
-2.44
10.17
20.17
26.90
30.41
31.23
30.12
27.85
24.98
21.79
18.39
14.89
11.46
8.44
6.15
4.81
4.36
4.44
4.45
3.78
2.14
-0.41
-3.49
-6.57
-9.32
-11.81
-14.55
-18.20
-23.34
-30.14
-38.21
-46.67
-54.31
-59.87
-62.22
-60.61
-54.77
-45.01
-32.24
-17.80
-3.20
10.12
21.12
29.22
34.41
37.03
37.67
36.98
35.47
33.43
30.94
28.00
24.73
21.51
18.90
17.43
17.30
18.12
19.01
18.89
17.00
13.24
8.17
2.78
-2.01
-5.85
-9.02
-12.35
-16.74
-22.77
-30.42
-39.03
-47.53
-54.68
-59.28
-60.34
-57.17
-49.55
-37.89
-23.25
-7.18
8.54
22.39
33.37
41.22
46.24
49.08
50.39
50.66
50.11
48.79
46.73
44.03
40.96
37.93
35.31
33.43
32.30
31.71
31.28
30.65
29.55
27.88
25.61
22.70
19.03
14.44
8.86
2.46
-4.29
-10.76
-16.35
-20.81
-24.40
-27.91
-32.32
-38.38
-46.18
-54.94
-63.07
-68.70
-70.19
-66.71
-58.41
-46.34
-32.03
-17.01
-2.50
10.73
22.25
31.77
39.09
44.11
46.94
47.96
47.78
47.00
46.06
45.07
43.88
42.33
40.44
38.53
37.06
36.47
36.81
37.74
38.55
38.52
37.19
34.53
30.89
26.83
22.78
18.84
14.77
10.20
4.95
-0.83
-6.60
-11.69
-15.72
-18.77
-21.38
-24.31
-28.21
-33.35
-39.56
-46.38
-53.19
-59.26
-63.80
-65.86
-64.53
-59.21
-49.93
-37.50
-23.42
-9.46
2.85
12.62
19.76
24.68
27.98
30.09
31.08
30.80
29.13
26.28
22.85
19.70
17.64
17.11
18.00
19.66
21.23
22.00
21.73
20.59
19.06
17.56
16.17
14.63
12.46
9.25
5.01
0.11
-4.80
-9.13
-12.67
-15.63
-18.49
-21.69
-25.42
-29.60
-34.02
-38.58
-43.37
-48.47
-53.70
-58.26
-60.79
-59.80
-54.25
-44.07
-30.40
-15.22
-0.74
11.37
20.42
26.62
30.77
33.72
35.90
37.26
37.44
36.20
33.61
30.27
27.01
24.62
23.46
23.42
23.97
24.50
24.61
24.27
23.76
23.32
22.96
22.30
20.76
17.89
13.66
8.50
3.14
-1.77
-6.03
-9.86
-13.70
-17.90
-22.40
-26.85
-30.78
-34.10
-37.16
-40.70
-45.45
-51.57
-58.39
-64.48
-68.00
-67.37
-61.82
-51.67
-38.30
-23.62
-9.44
2.95
13.07
21.01
27.18
31.88
35.19
37.06
37.56
37.02
35.98
35.01
34.44
34.22
33.98
33.38
32.31
31.04
30.08
29.90
30.57
31.65
32.35
31.85
29.71
26.10
21.73
17.49
14.00
11.30
8.89
5.99
2.06
-2.97
-8.53
-13.80
-18.11
-21.28
-23.67
-26.00
-28.88
-32.61
-37.14
-42.13
-47.23
-52.03
-55.98
-58.24
-57.74
-53.52
-45.18
-33.18
-18.94
-4.46
8.33
18.11
24.50
28.00
29.53
29.99
29.91
29.35
28.12
26.05
23.23
20.12
17.34
15.45
14.67
14.80
15.35
15.71
15.52
14.73
13.58
12.41
11.39
10.42
9.09
6.95
3.71
-0.51
-5.29
-10.01
-14.20
-17.64
-20.46
-22.94
-25.39
-28.04
-30.95
-34.18
-37.72
-41.61
-45.70
-49.51
-52.19
-52.63
-49.79
-43.13
-32.97
-20.46
-7.32
4.66
14.20
20.77
24.65
26.52
27.10
26.76
25.57
23.41
20.40
16.96
13.76
11.51
10.48
10.49
10.93
11.11
10.64
9.56
8.25
7.11
6.25
5.30
3.60
0.57
-3.93
-9.45
-15.11
-19.98
-23.59
-26.15
-28.50
-31.70
-36.51
-43.01
-50.43
-57.35
-62.17
-63.57
-60.87
-54.15
-44.13
-31.90
-18.67
-5.55
6.51
16.78
24.74
30.10
32.93
33.60
32.84
31.50
30.28
29.53
29.17
28.82
28.10
26.89
25.39
23.99
23.07
22.64
22.43
21.93
20.71
18.53
15.46
11.72
7.51
2.96
-1.91
-7.01
-12.20
-17.23
-21.93
-26.34
-30.79
-35.84
-41.95
-49.17
-56.70
-63.06
-66.34
-64.94
-58.17
-46.62
-32.03
-16.57
-2.21
9.91
19.52
27.00
32.81
37.13
39.87
40.77
39.89
37.64
34.82
32.19
30.26
28.97
27.88
26.46
24.42
21.93
19.50
17.76
16.99
16.99
17.02
16.20
13.87
9.95
4.96
-0.25
-4.91
-8.71
-11.94
-15.26
-19.38
-24.70
-31.19
-38.41
-45.76
-52.55
-58.01
-61.27
-61.39
-57.55
-49.40
-37.39
-22.84
-7.67
6.07
16.76
23.74
27.23
28.12
27.52
26.24
24.60
22.53
19.79
16.34
12.54
9.04
6.57
5.55
5.85
6.84
7.67
7.64
6.53
4.55
2.22
-0.08
-2.34
-4.88
-8.19
-12.54
-17.83
-23.65
-29.58
-35.49
-41.65
-48.42
-55.85
-63.16
-68.74
-70.60
-67.09
-57.64
-43.21
-25.96
-8.55
6.73
18.68
27.22
33.05
36.99
39.48
40.49
39.72
37.12
33.12
28.59
24.52
21.58
19.86
18.92
18.14
17.10
15.74
14.25
12.79
11.25
9.20
6.10
1.60
-4.18
-10.71
-17.24
-23.23
-28.69
-34.22
-40.77
-49.10
-59.24
-70.17
-79.98
-86.35
-87.31
-81.96
-70.66
-55.05
-37.31
-19.61
-3.50
10.23
21.46
30.39
37.22
42.06
44.93
46.03
45.70
44.53
43.04
41.49
39.86
37.89
35.38
32.49
29.71
27.69
26.81
26.93
27.25
26.62
24.08
19.32
12.83
5.69
-1.02
-6.80
-11.91
-17.35
-24.23
-33.26
-44.33
-56.41
-67.83
-76.68
-81.25
-80.47
-73.96
-62.10
-46.00
-27.21
-7.56
11.15
27.51
40.60
50.19
56.59
60.42
62.36
62.94
62.41
60.85
58.30
54.95
51.19
47.53
44.44
42.16
40.67
39.75
39.06
38.34
37.39
36.10
34.28
31.68
28.01
23.07
16.87
9.77
2.38
-4.67
-10.91
-16.36
-21.55
-27.37
-34.75
-44.05
-54.79
-65.49
-74.01
-78.14
-76.35
-68.35
-55.13
-38.58
-20.84
-3.72
11.67
24.81
35.51
43.58
48.74
50.81
49.94
46.78
42.43
38.01
34.33
31.66
29.76
28.17
26.63
25.14
24.05
23.65
23.95
24.49
24.39
22.76
19.02
13.24
6.08
-1.45
-8.48
-14.55
-19.78
-24.70
-29.95
-36.04
-43.17
-51.26
-59.97
-68.58
-76.01
-80.72
-81.04
-75.66
-64.15
-47.29
-27.03
-5.91
13.62
29.86
42.14
50.69
56.22
59.43
60.79
60.46
58.53
55.29
51.32
47.37
44.10
41.91
40.68
40.00
39.36
38.46
37.26
35.91
34.39
32.45
29.47
24.83
18.21
9.89
0.71
-8.25
-16.17
-22.84
-28.86
-35.30
-43.30
-53.39
-65.11
-76.89
-86.37
-91.12
-89.34
-80.50
-65.49
-46.32
-25.42
-5.00
13.45
29.25
42.28
52.63
60.38
65.59
68.38
69.08
68.21
66.34
63.95
61.30
58.45
55.47
52.51
49.87
47.86
46.70
46.30
46.29
46.09
45.13
42.96
39.36
34.32
28.01
20.63
12.49
3.92
-4.63
-12.69
-19.92
-26.27
-32.05
-37.98
-44.96
-53.60
-63.85
-74.68
-84.15
-89.90
-89.91
-83.17
-70.13
-52.57
-32.92
-13.54
3.94
18.77
30.94
40.66
48.02
52.88
55.12
54.90
52.80
49.78
46.80
44.52
43.06
42.05
40.99
39.52
37.70
35.96
34.77
34.29
34.14
33.44
31.19
26.74
20.09
11.92
3.31
-4.77
-11.79
-17.80
-23.24
-28.72
-34.72
-41.56
-49.36
-58.07
-67.32
-76.30
-83.54
-87.21
-85.55
-77.52
-63.30
-44.44
-23.45
-3.05
14.66
28.69
39.18
46.99
53.05
57.85
61.33
63.08
62.79
60.63
57.28
53.75
50.88
49.04
48.02
47.23
46.12
44.48
42.55
40.75
39.38
38.26
36.75
33.99
29.28
22.45
14.02
4.96
-3.63
-11.00
-17.01
-22.19
-27.40
-33.53
-41.12
-50.20
-60.28
-70.43
-79.45
-85.94
-88.48
-85.89
-77.60
-63.88
-45.98
-25.90
-5.93
11.93
26.47
37.41
45.26
50.89
55.09
58.22
60.23
60.75
59.56
56.80
53.05
49.16
45.90
43.62
42.21
41.19
40.12
38.80
37.32
35.90
34.55
32.93
30.34
26.05
19.67
11.43
2.19
-6.91
-14.84
-21.19
-26.24
-30.88
-36.14
-42.76
-50.91
-60.16
-69.59
-78.03
-84.29
-87.20
-85.82
-79.61
-68.63
-53.70
-36.35
-18.46
-1.87
12.02
22.50
29.48
33.37
34.77
34.32
32.58
29.97
26.82
23.41
20.05
17.07
14.77
13.42
13.09
13.64
14.71
15.89
16.76
16.99
16.33
14.57
11.57
7.27
1.75
-4.63
-11.36
-17.90
-23.89
-29.35
-34.72
-40.76
-48.10
-56.89
-66.37
-74.89
-80.28
-80.51
-74.43
-62.27
-45.58
-26.75
-8.19
8.30
21.88
32.54
40.65
46.57
50.41
52.13
51.81
49.77
46.65
43.18
39.96
37.24
34.92
32.72
30.45
28.19
26.29
25.16
24.99
25.42
25.64
24.58
21.43
15.97
8.75
0.85
-6.62
-13.02
-18.44
-23.60
-29.46
-36.79
-45.85
-56.26
-67.06
-76.85
-84.03
-87.00
-84.53
-76.07
-62.06
-43.91
-23.73
-3.86
13.73
27.80
38.02
44.79
48.81
50.86
51.51
51.09
49.73
47.50
44.52
41.01
37.31
33.77
30.73
28.36
26.65
25.43
24.47
23.49
22.25
20.55
18.22
15.04
10.81
5.43
-0.93
-7.85
-14.72
-21.03
-26.62
-31.88
-37.59
-44.53
-52.96
-62.20
-70.58
-75.86
-76.02
-69.94
-57.93
-41.56
-23.10
-4.80
11.72
25.66
36.83
45.29
51.06
54.07
54.35
52.28
48.60
44.26
40.08
36.47
33.32
30.26
26.95
23.35
19.81
16.84
14.81
13.65
12.77
11.29
8.43
3.85
-2.20
-8.93
-15.42
-21.01
-25.57
-29.50
-33.51
-38.27
-44.20
-51.35
-59.47
-68.02
-76.19
-82.84
-86.49
-85.65
-79.27
-67.24
-50.73
-31.92
-13.43
2.55
14.88
23.68
29.89
34.74
38.99
42.72
45.39
46.29
45.06
41.93
37.77
33.72
30.81
29.51
29.75
30.98
32.53
33.96
35.12
36.07
36.94
37.62
37.74
36.85
34.50
30.44
24.61
17.08
7.88
-3.09
-15.89
-30.29
-45.34
-59.35
-70.09
-75.52
-74.61
-67.82
-57.11
-45.24
-34.69
-26.85
-21.72
-18.29
-15.28
-11.90
-8.25
-5.03
-3.03
-2.66
-3.67
-5.30
-6.70
-7.29
-7.03
-6.26
-5.45
-4.90
-4.61
-4.40
-4.18
-4.13
-4.77
-6.67
-10.16
-15.14
-21.11
-27.47
-33.84
-40.37
-47.60
-56.01
-65.51
-75.02
-82.56
-85.73
-82.62
-72.57
-56.50
-36.63
-15.76
3.60
19.85
32.49
41.80
48.32
52.45
54.31
53.91
51.45
47.44
42.69
38.03
34.01
30.78
28.16
25.87
23.81
22.04
20.72
19.80
18.89
17.31
14.32
9.56
3.23
-3.91
-10.89
-16.97
-22.08
-26.83
-32.32
-39.54
-48.82
-59.52
-69.98
-77.95
-81.23
-78.41
-69.28
-54.87
-37.10
-18.20
-0.11
15.88
29.13
39.49
47.01
51.81
54.09
54.19
52.64
50.11
47.21
44.35
41.73
39.42
37.49
36.11
35.52
35.88
37.06
38.53
39.40
38.69
35.75
30.47
23.38
15.40
7.47
0.17
-6.48
-12.91
-19.78
-27.62
-36.60
-46.41
-56.24
-64.87
-70.83
-72.59
-68.94
-59.40
-44.48
-25.75
-5.44
13.93
30.29
42.43
50.18
54.21
55.62
55.50
54.52
52.92
50.69
47.83
44.59
41.49
39.13
37.94
37.92
38.66
39.44
39.58
38.64
36.51
33.29
29.18
24.27
18.57
12.05
4.82
-2.79
-10.26
-17.21
-23.56
-29.67
-36.24
-43.83
-52.33
-60.69
-67.01
-69.08
-65.21
-54.98
-39.48
-21.01
-2.28
14.46
28.01
38.23
45.66
50.92
54.35
55.98
55.77
53.93
50.96
47.53
44.22
41.24
38.48
35.72
32.85
30.11
27.92
26.66
26.36
26.56
26.36
24.78
21.17
15.53
8.50
1.11
-5.63
-11.26
-16.02
-20.72
-26.34
-33.53
-42.20
-51.40
-59.55
-64.88
-65.95
-62.10
-53.63
-41.57
-27.42
-12.64
1.63
14.63
25.80
34.67
40.70
43.56
43.28
40.50
36.31
31.96
28.41
26.12
25.08
24.99
25.54
26.43
27.41
28.14
28.19
27.30
25.65
23.94
23.11
23.84
26.05
28.75
30.35
29.35
24.94
17.28
7.32
-3.74
-14.85
-25.25
-34.23
-40.90
-44.08
-42.56
-35.69
-23.85
-8.58
7.73
22.50
33.70
40.40
42.98
42.78
41.51
40.64
40.93
42.38
44.50
46.71
48.79
50.93
53.47
56.59
59.85
62.22
62.34
59.12
52.22
42.29
30.71
19.12
8.69
-0.23
-8.16
-16.13
-25.14
-35.66
-47.50
-59.82
-71.41
-80.98
-87.35
-89.58
-87.06
-79.62
-67.67
-52.27
-35.07
-18.06
-3.15
8.27
15.65
19.34
20.27
19.55
17.97
15.80
12.84
8.76
3.48
-2.64
-8.88
-14.33
-18.31
-20.57
-21.35
-21.30
-21.14
-21.44
-22.56
-24.53
-27.22
-30.49
-34.28
-38.59
-43.41
-48.66
-54.22
-60.00
-65.92
-71.93
-77.75
-82.67
-85.47
-84.59
-78.67
-67.10
-50.44
-30.46
-9.64
9.54
25.38
37.28
45.73
51.69
56.01
58.97
60.17
58.95
54.87
48.16
39.75
31.04
23.35
17.51
13.68
11.42
10.01
8.69
6.86
4.03
-0.21
-6.24
-14.34
-24.45
-36.08
-48.26
-59.81
-69.77
-77.77
-84.30
-90.42
-97.33
-105.56
-114.67
-123.25
-129.31
-130.97
-127.05
-117.31
-102.45
-83.79
-63.00
-41.79
-21.70
-3.94
10.73
22.06
30.19
35.50
38.49
39.69
39.62
38.85
37.89
37.10
36.65
36.51
36.65
37.05
37.85
39.15
40.80
42.35
43.07
42.30
39.76
35.65
30.55
25.14
19.88
14.90
10.06
5.19
0.23
-4.78
-9.73
-14.66
-19.73
-25.11
-30.72
-35.95
-39.65
-40.35
-36.77
-28.32
-15.54
0.04
16.28
31.21
43.52
52.81
59.37
63.72
66.21
66.91
65.79
62.99
59.01
54.68
50.86
48.14
46.66
46.20
46.30
46.61
46.90
47.05
46.84
45.81
43.32
38.79
31.95
23.09
13.02
2.78
-6.74
-15.14
-22.66
-29.95
-37.74
-46.30
-55.19
-63.16
-68.46
-69.42
-65.13
-55.84
-43.01
-28.81
-15.41
-4.30
4.00
9.77
13.67
16.26
17.77
18.20
17.53
15.94
13.77
11.43
9.20
7.19
5.44
4.14
3.72
4.76
7.74
12.81
19.47
26.77
33.49
38.56
41.38
41.86
40.39
37.49
33.56
28.71
22.75
15.43
6.72
-2.91
-12.35
-20.11
-24.63
-24.78
-20.23
-11.43
0.56
14.43
28.96
43.06
55.64
65.59
71.95
74.15
72.41
67.70
61.41
54.82
48.52
42.28
35.35
27.14
17.69
7.91
-0.79
-7.19
-10.83
-12.31
-12.94
-14.12
-16.71
-20.65
-25.17
-29.29
-32.42
-34.67
-36.67
-39.13
-42.41
-46.28
-50.14
-53.32
-55.34
-55.96
-54.89
-51.56
-45.08
-34.61
-19.84
-1.38
19.14
39.59
57.97
73.10
84.81
93.76
100.89
106.92
112.16
116.54
119.83
121.97
123.14
123.63
123.76
123.60
123.02
121.67
119.15
115.13
109.57
102.71
95.07
87.24
79.72
72.70
66.14
59.83
53.70
47.93
42.93
39.19
36.88
35.71
34.94
33.69
31.38
28.11
24.63
22.08
21.40
22.87
25.97
29.73
33.29
36.45
39.71
43.97
49.90
57.44
65.80
73.80
80.36
84.85
87.11
87.19
84.98
80.20
72.50
61.74
48.29
33.00
16.93
1.07
-14.03
-28.42
-42.61
-57.31
-72.86
-88.90
-104.38
-117.86
-128.28
-135.53
-140.47
-144.65
-149.41
-155.19
-161.46
-166.97
-170.56
-171.68
-170.62
-168.15
-165.08
-161.87
-158.58
-155.08
-151.41
-147.91
-145.18
-143.83
-144.06
-145.51
-147.34
-148.58
-148.60
-147.50
-146.00
-145.17
-145.79
-148.01
-151.27
-154.59
-157.22
-158.95
-160.19
-161.68
-164.03
-167.16
-170.42
-172.75
-173.27
-171.70
-168.54
-164.91
-162.02
-160.69
-161.00
-162.34
-163.54
-163.28
-160.29
-153.53
-142.22
-126.03
-105.26
-80.98
-55.03
-29.56
-6.52
12.92
28.71
41.61
52.58
62.26
70.56
76.80
80.28
80.69
78.49
74.73
70.56
66.79
63.52
60.19
55.91
49.89
41.78
31.65
19.77
6.46
-8.11
-23.84
-40.37
-56.96
-72.46
-85.73
-96.16
-103.96
-110.29
-116.70
-124.47
-133.95
-144.10
-152.73
-157.08
-154.59
-143.77
-124.62
-98.60
-68.16
-36.00
-4.47
24.68
50.33
71.71
88.29
99.83
106.57
109.34
109.43
108.22
106.66
105.10
103.27
100.74
97.24
93.10
89.00
85.73
83.72
82.84
82.47
81.81
80.31
77.81
74.57
70.90
66.88
62.13
55.97
47.67
36.85
23.79
9.51
-4.35
-15.87
-23.17
-24.91
-20.58
-10.63
3.51
19.84
36.18
50.66
61.99
69.55
73.29
73.41
70.28
64.29
56.08
46.47
36.56
27.41
19.93
14.59
11.48
10.40
10.96
12.81
15.49
18.48
21.11
22.74
22.93
21.59
18.97
15.49
11.48
6.95
1.57
-5.23
-13.92
-24.48
-36.10
-47.09
-55.14
-57.94
-53.89
-42.64
-25.28
-4.03
18.43
39.59
57.60
71.40
80.61
85.29
85.86
83.06
77.84
71.27
64.39
57.97
52.37
47.59
43.39
39.41
35.39
31.18
26.68
21.80
16.37
10.10
2.76
-5.67
-14.89
-24.29
-33.25
-41.56
-49.53
-57.98
-67.64
-78.54
-89.57
-98.58
-102.93
-100.49
-90.35
-73.14
-50.74
-25.56
0.04
24.28
45.97
64.34
78.90
89.34
95.66
98.29
98.06
96.03
93.18
90.16
87.24
84.38
81.46
78.49
75.57
72.86
70.32
67.68
64.52
60.38
55.04
48.55
41.23
33.44
25.39
16.96
7.73
-2.93
-15.38
-29.37
-43.77
-56.52
-65.13
-67.35
-61.96
-49.16
-30.63
-8.97
13.02
33.01
49.50
61.90
70.26
74.99
76.68
75.92
73.28
69.25
64.23
58.48
52.24
45.72
39.20
33.05
27.67
23.41
20.41
18.46
17.02
15.38
12.85
9.09
4.19
-1.32
-6.82
-11.84
-16.35
-20.73
-25.58
-31.37
-38.16
-45.44
-52.19
-57.00
-58.43
-55.32
-47.04
-33.84
-16.80
2.35
21.57
39.11
53.77
65.05
73.06
78.28
81.27
82.57
82.66
81.93
80.66
79.02
77.07
74.87
72.64
70.73
69.57
69.38
69.96
70.75
70.95
69.88
67.26
63.20
58.12
52.43
46.27
39.51
31.80
22.70
11.82
-1.14
-16.39
-33.75
-52.47
-70.94
-86.80
-97.41
-100.69
-95.84
-83.78
-66.82
-47.95
-29.95
-14.69
-2.92
5.46
10.99
14.24
15.63
15.47
14.06
11.72
8.88
5.96
3.39
1.51
0.51
0.31
0.59
0.74
0.12
-1.83
-5.36
-10.32
-16.27
-22.64
-28.96
-34.99
-40.69
-46.18
-51.58
-57.04
-62.69
-68.54
-74.34
-79.27
-81.95
-80.65
-73.94
-61.27
-43.46
-22.59
-1.38
17.61
32.77
43.58
50.49
54.31
55.75
55.23
52.94
49.15
44.40
39.47
35.25
32.35
30.96
30.72
30.98
30.95
30.06
27.95
24.54
19.98
14.53
8.54
2.35
-3.75
-9.76
-15.94
-22.86
-31.17
-41.34
-53.30
-66.18
-78.34
-87.64
-92.00
-89.90
-80.93
-65.90
-46.71
-25.89
-5.95
11.14
24.27
33.28
38.71
41.47
42.52
42.57
42.10
41.36
40.59
40.04
40.00
40.61
41.79
43.18
44.25
44.46
43.43
40.95
37.05
31.90
25.78
19.01
11.90
4.67
-2.71
-10.41
-18.79
-28.16
-38.62
-49.88
-61.08
-70.77
-77.15
-78.44
-73.46
-62.10
-45.54
-25.96
-6.01
12.09
26.97
38.25
46.22
51.41
54.18
54.68
53.01
49.45
44.55
38.98
33.30
27.77
22.25
16.43
9.97
2.82
-4.75
-12.26
-19.20
-25.20
-30.17
-34.27
-37.77
-40.95
-43.97
-46.82
-49.45
-51.90
-54.44
-57.51
-61.62
-66.87
-72.73
-77.90
-80.47
-78.58
-70.97
-57.54
-39.38
-18.51
2.79
22.48
39.19
52.28
61.68
67.67
70.70
71.24
69.82
66.98
63.28
59.27
55.41
52.00
49.18
46.97
45.28
44.02
43.11
42.39
41.68
40.68
39.06
36.60
33.18
28.91
23.98
18.68
13.19
7.59
1.74
-4.60
-11.68
-19.59
-27.93
-35.76
-41.64
-44.02
-41.70
-34.31
-22.55
-8.00
7.21
21.00
31.72
38.40
40.69
38.70
32.82
23.65
12.08
-0.74
-13.36
-24.27
-32.24
-36.57
-37.35
-35.32
-31.69
-27.79
-24.79
-23.48
-24.22
-26.91
-31.14
-36.26
-41.61
-46.64
-51.12
-55.22
-59.38
-64.11
-69.62
-75.55
-80.86
-84.00
-83.28
-77.46
-66.23
-50.33
-31.44
-11.72
6.79
22.54
34.67
42.99
47.79
49.57
48.86
46.08
41.60
35.82
29.22
22.50
16.48
12.01
9.67
9.57
11.18
13.51
15.42
15.98
14.82
12.05
8.18
3.80
-0.78
-5.53
-10.81
-17.21
-25.37
-35.85
-48.87
-64.05
-80.17
-95.19
-106.48
-111.49
-108.42
-96.85
-77.86
-53.81
-27.57
-1.85
21.40
41.13
56.98
68.88
76.79
80.65
80.50
76.71
70.11
61.84
53.11
44.88
37.67
31.55
26.21
21.15
15.80
9.67
2.39
-6.10
-15.55
-25.31
-34.49
-42.06
-47.10
-49.09
-48.15
-45.12
-41.48
-39.06
-39.36
-43.03
-49.47
-56.82
-62.47
-63.78
-58.89
-47.32
-30.05
-9.22
12.52
32.67
49.44
61.93
70.06
74.37
75.57
74.36
71.28
66.72
60.99
54.47
47.71
41.38
36.20
32.73
31.19
31.28
32.29
33.23
33.22
31.72
28.58
24.07
18.53
12.26
5.45
-1.76
-9.25
-16.84
-24.50
-32.37
-40.68
-49.53
-58.47
-66.30
-71.20
-71.23
-65.08
-52.59
-34.93
-14.32
6.58
25.40
40.52
51.32
58.05
61.44
62.35
61.38
58.83
54.91
49.98
44.69
39.93
36.47
34.58
33.87
33.40
32.14
29.40
25.17
20.02
14.78
10.05
5.88
1.75
-3.19
-9.74
-18.32
-28.85
-40.79
-53.37
-65.63
-76.49
-84.69
-88.87
-87.83
-80.94
-68.47
-51.74
-32.83
-14.07
2.63
16.09
25.94
32.33
35.59
36.01
33.84
29.60
24.23
19.04
15.46
14.57
16.81
21.84
28.76
36.51
44.15
50.97
56.40
59.89
60.86
58.78
53.31
44.43
32.35
17.46
0.28
-18.53
-37.95
-56.65
-73.02
-85.64
-93.67
-97.03
-96.26
-92.11
-84.99
-74.86
-61.52
-44.99
-26.03
-6.07
13.08
29.80
42.98
52.13
57.11
57.95
54.76
47.96
38.36
27.09
15.40
4.28
-5.67
-14.22
-21.33
-26.97
-31.07
-33.67
-35.10
-36.08
-37.56
-40.46
-45.29
-51.92
-59.43
-66.39
-71.16
-72.32
-69.13
-61.66
-50.86
-38.19
-25.19
-13.08
-2.48
6.56
14.27
20.90
26.42
30.54
32.85
33.00
30.92
26.81
21.15
14.47
7.34
0.16
-6.86
-13.73
-20.61
-27.65
-34.86
-42.03
-48.89
-55.27
-61.22
-66.97
-72.56
-77.78
-82.07
-84.99
-86.56
-87.37
-88.27
-89.64
-90.84
-90.02
-84.75
-72.89
-53.40
-26.66
5.79
41.83
79.35
116.50
151.80
183.98
211.97
234.91
252.17
263.47
268.84
268.72
263.97
255.94
246.24
236.55
228.09
221.28
215.45
208.89
199.13
183.60
160.49
129.60
92.86
54.05
17.77
-12.12
-33.80
-47.93
-57.10
-64.42
-72.27
-81.54
-91.76
-101.79
-110.49
-117.06
-120.88
-121.33
-117.74
-109.67
-97.32
-81.64
-64.27
-47.05
-31.57
-18.75
-8.84
-1.58
3.49
6.76
8.41
8.49
7.20
5.06
2.94
1.89
2.77
5.87
10.72
16.21
21.03
24.09
24.87
23.44
20.24
15.76
10.32
4.02
-3.19
-11.36
-20.39
-29.97
-39.58
-48.40
-55.50
-59.85
-60.60
-57.25
-49.87
-39.03
-25.83
-11.55
2.43
14.86
24.80
31.67
35.35
36.08
34.35
30.74
25.74
19.79
13.29
6.76
0.79
-4.09
-7.61
-9.93
-11.53
-13.08
-15.09
-17.83
-21.23
-25.08
-29.10
-33.14
-37.26
-41.71
-46.90
-53.19
-60.64
-68.72
-76.17
-81.24
-82.22
-78.07
-68.86
-55.84
-40.86
-25.89
-12.35
-0.98
8.04
14.77
19.25
21.40
21.20
18.84
14.90
10.23
5.81
2.41
0.41
-0.29
-0.10
0.41
0.83
1.02
1.00
0.84
0.40
-0.60
-2.55
-5.71
-10.06
-15.43
-21.63
-28.70
-36.80
-45.95
-55.62
-64.47
-70.56
-71.95
-67.41
-57.07
-42.45
-25.91
-9.85
4.11
15.49
24.63
32.17
38.41
43.12
45.68
45.66
43.15
38.94
34.22
30.12
27.30
25.84
25.49
26.06
27.59
30.37
34.65
40.32
46.76
52.88
57.44
59.42
58.31
54.12
47.30
38.37
27.78
15.80
2.75
-10.80
-23.80
-34.76
-42.12
-44.69
-42.13
-35.08
-24.98
-13.59
-2.53
7.08
14.70
20.23
23.80
25.56
25.60
23.89
20.51
15.66
9.69
3.06
-3.85
-10.75
-17.45
-23.67
-29.00
-32.94
-35.08
-35.40
-34.35
-32.77
-31.49
-31.08
-31.61
-32.77
-34.10
-35.31
-36.47
-37.99
-40.43
-44.23
-49.46
-55.56
-61.32
-65.10
-65.28
-60.77
-51.50
-38.44
-23.39
-8.35
5.01
15.76
23.67
28.95
31.92
32.83
31.80
29.10
25.16
20.67
16.41
12.99
10.77
9.77
9.79
10.54
11.73
13.01
13.96
14.11
13.04
10.61
6.94
2.47
-2.33
-7.12
-11.89
-16.91
-22.57
-29.10
-36.36
-43.69
-49.91
-53.56
-53.28
-48.26
-38.57
-25.27
-10.10
4.98
18.38
29.21
37.19
42.53
45.55
46.59
45.95
43.99
41.19
38.03
34.95
32.13
29.61
27.30
25.12
23.05
21.06
19.13
17.10
14.70
11.63
7.66
2.72
-3.15
-9.80
-17.15
-25.22
-34.16
-44.09
-54.98
-66.43
-77.60
-87.18
-93.54
-95.10
-90.80
-80.43
-64.83
-45.83
-25.80
-7.05
8.68
20.51
28.46
33.10
35.27
35.73
35.11
33.89
32.48
31.22
30.37
30.11
30.46
31.39
32.69
34.11
35.22
35.52
34.48
31.76
27.39
21.74
15.50
9.39
3.90
-0.92
-5.42
-10.27
-16.19
-23.66
-32.68
-42.46
-51.43
-57.54
-58.77
-53.83
-42.70
-26.69
-8.09
10.62
27.43
41.26
51.87
59.55
64.72
67.71
68.72
68.06
66.20
63.75
61.39
59.57
58.50
58.03
57.80
57.37
56.38
54.64
52.17
49.23
46.07
42.90
39.54
35.45
29.80
21.78
10.94
-2.48
-17.57
-33.00
-47.48
-60.11
-70.37
-77.92
-82.28
-82.57
-77.76
-67.21
-51.26
-31.58
-11.09
6.60
17.90
19.61
9.29
-14.47
-51.31
-98.21
-149.18
-196.03
-230.40
-246.24
-241.89
-220.35
-187.97
-151.93
-118.07
-89.84
-68.46
-53.87
-45.55
-42.81
-44.44
-48.51
-52.50
-54.08
-52.00
-46.62
-39.99
-35.03
-34.31
-38.81
-47.28
-56.56
-62.66
-62.35
-54.18
-39.04
-19.47
1.33
20.62
36.79
49.31
58.35
64.20
67.04
66.84
63.73
58.28
51.54
44.86
39.43
35.98
34.52
34.49
35.08
35.55
35.43
34.54
32.90
30.66
27.96
24.91
21.60
18.05
14.26
10.16
5.72
0.98
-3.85
-8.31
-11.66
-12.96
-11.18
-5.51
4.42
18.27
35.07
53.25
70.99
86.44
97.93
104.25
104.75
99.60
89.76
76.98
63.36
50.97
41.26
34.79
31.18
29.37
28.10
26.27
23.22
18.77
12.99
6.09
-1.71
-10.06
-18.54
-26.55
-33.59
-39.36
-43.98
-47.85
-51.23
-53.91
-54.97
-53.08
-47.05
-36.39
-21.71
-4.53
13.10
29.42
43.26
54.17
62.14
67.27
69.49
68.68
64.91
58.70
51.10
43.45
37.01
32.53
30.02
28.79
27.84
26.23
23.42
19.33
14.26
8.57
2.45
-4.19
-11.74
-20.64
-31.11
-42.93
-55.21
-66.47
-74.87
-78.67
-76.72
-68.81
-55.75
-39.17
-21.07
-3.41
12.36
25.35
35.16
41.76
45.24
45.77
43.59
39.13
33.05
26.13
19.15
12.67
6.95
1.95
-2.56
-6.84
-11.14
-15.53
-20.03
-24.57
-29.09
-33.66
-38.51
-44.07
-50.92
-59.54
-70.04
-81.88
-93.77
-103.78
-109.76
-110.04
-103.90
-91.92
-75.88
-58.08
-40.65
-24.96
-11.42
0.11
9.81
17.38
22.13
23.21
20.27
13.70
4.68
-5.20
-14.51
-22.39
-28.66
-33.69
-38.17
-42.75
-47.83
-53.47
-59.35
-64.92
-69.62
-73.13
-75.55
-77.44
-79.64
-83.11
-88.65
-96.59
-106.55
-117.07
-125.70
-129.33
-124.91
-110.51
-86.18
-54.12
-18.22
17.20
48.53
73.69
92.01
103.71
109.22
108.92
103.31
93.47
81.27
69.06
59.07
52.70
50.01
49.91
50.67
50.69
49.12
45.93
41.76
37.40
33.31
29.42
25.23
20.11
13.67
5.83
-3.22
-13.37
-24.80
-37.76
-52.21
-67.24
-80.96
-90.83
-94.58
-91.17
-81.26
-67.02
-51.21
-36.09
-22.75
-11.09
-0.46
9.43
17.95
23.67
25.04
21.34
13.21
2.57
-8.06
-16.38
-21.06
-21.87
-19.43
-14.60
-8.10
-0.40
8.19
17.24
26.13
34.15
40.78
45.85
49.52
52.05
53.62
54.19
53.78
52.69
51.78
52.35
55.82
63.26
74.90
90.05
107.25
124.66
140.47
153.30
162.23
166.86
167.11
163.22
155.63
145.02
132.29
118.63
105.36
93.75
84.74
78.69
75.26
73.55
72.41
70.89
68.48
65.17
61.32
57.27
53.13
48.57
42.92
35.29
24.92
11.41
-4.88
-22.68
-39.81
-53.57
-61.44
-61.81
-54.54
-40.97
-23.54
-4.88
12.78
28.01
40.11
48.82
54.08
55.80
53.97
48.71
40.37
29.54
17.15
4.41
-7.27
-16.55
-22.52
-24.95
-24.42
-22.10
-19.43
-17.67
-17.67
-19.78
-23.76
-28.92
-34.15
-38.35
-40.82
-41.63
-41.77
-42.66
-45.53
-50.73
-57.50
-64.14
-68.62
-69.18
-64.68
-54.67
-39.38
-19.71
2.75
25.80
47.03
64.40
76.83
84.45
88.26
89.60
89.44
88.08
85.31
80.80
74.63
67.36
59.90
53.19
47.80
43.87
41.15
39.22
37.64
36.03
34.09
31.61
28.51
24.86
20.79
16.45
11.84
6.77
0.83
-6.54
-15.84
-27.21
-40.12
-53.35
-65.03
-73.23
-76.50
-74.44
-67.87
-58.55
-48.51
-39.44
-32.17
-26.71
-22.57
-19.23
-16.66
-15.37
-16.32
-20.34
-27.56
-36.95
-46.42
-53.42
-55.83
-52.86
-45.37
-35.46
-25.68
-17.98
-13.19
-10.92
-10.09
-9.59
-8.83
-7.79
-6.84
-6.39
-6.69
-7.88
-10.14
-13.76
-18.93
-25.34
-31.82
-36.41
-36.94
-31.88
-21.10
-6.05
10.70
26.37
38.85
47.23
51.68
53.05
52.27
49.93
46.12
40.76
33.99
26.43
19.22
13.67
10.62
10.10
11.16
12.41
12.72
11.70
9.75
7.66
5.93
4.43
2.44
-0.92
-6.14
-13.05
-20.91
-28.73
-35.63
-41.07
-44.73
-46.36
-45.58
-41.77
-34.27
-22.60
-6.80
12.49
33.93
55.76
76.02
92.66
103.76
107.65
103.17
90.09
69.41
43.47
15.60
-10.63
-32.24
-47.56
-56.43
-59.96
-59.88
-57.91
-55.29
-52.57
-49.81
-46.81
-43.38
-39.41
-34.89
-29.92
-24.70
-19.66
-15.46
-12.85
-12.35
-13.93
-16.89
-19.91
-21.38
-19.77
-13.93
-3.27
11.96
30.34
49.27
65.29
75.04
76.50
69.91
57.82
44.04
32.11
23.93
19.43
17.12
15.32
13.03
10.20
7.24
4.36
1.22
-2.91
-8.57
-15.75
-23.78
-31.70
-38.82
-45.12
-51.24
-58.16
-66.60
-76.56
-87.08
-96.40
-102.54
-103.90
-99.85
-90.88
-78.37
-63.97
-49.16
-34.92
-21.74
-9.96
0.08
7.90
13.02
15.20
14.53
11.56
7.10
2.08
-2.68
-6.71
-9.91
-12.65
-15.57
-19.36
-24.48
-31.01
-38.64
-46.83
-55.06
-62.95
-70.40
-77.51
-84.59
-92.11
-100.44
-109.79
-119.84
-129.61
-137.44
-141.37
-139.64
-131.33
-116.76
-97.50
-75.86
-54.13
-34.00
-16.14
-0.40
13.74
26.71
38.52
48.87
57.30
63.46
67.23
68.73
68.31
66.63
64.73
63.95
65.66
70.78
79.52
91.18
104.43
117.81
130.14
140.71
149.20
155.41
159.09
159.89
157.56
152.30
144.98
137.16
130.86
128.18
130.77
139.62
154.95
176.20
202.19
231.19
261.03
289.27
313.47
331.57
342.23
345.10
340.83
330.96
317.39
301.91
285.64
268.71
250.11
227.97
200.04
164.28
119.62
66.65
8.14
-51.01
-104.54
-146.55
-173.32
-184.66
-183.95
-176.77
-168.72
-163.31
-160.86
-158.99
-154.08
-143.21
-125.57
-102.92
-78.98
-58.06
-43.25
-35.12
-31.22
-27.02
-17.80
-0.77
23.51
51.20
76.56
93.97
99.70
92.93
75.79
52.70
29.07
9.98
-1.22
-3.80
0.14
5.93
7.94
1.06
-17.91
-50.14
-93.67
-143.13
-190.14
-225.33
-241.75
-236.98
-214.03
-179.67
-141.98
-106.56
-74.77
-44.21
-11.40
24.44
61.38
95.85
125.25
147.65
162.96
172.51
178.47
182.59
183.19
178.77
169.31
158.72
148.54
139.13
129.74
119.92
109.11
91.57
63.43
24.61
-17.01
-58.46
-99.10
-139.94
-180.64
-220.42
-266.53
-323.52
-390.40
-454.42
-511.81
-563.87
-615.57
-669.68
-726.42
-793.10
-869.92
-947.94
-1003.64
-1028.53
-1025.02
-1004.02
-975.53
-881.81
-698.46
-442.53
-221.58
-55.16
61.31
153.64
228.94
290.34
339.27
366.53
367.54
346.27
322.91
306.01
297.22
292.53
289.53
287.07
277.22
255.96
225.26
198.70
180.49
169.97
163.46
159.83
159.62
159.15
156.31
151.52
151.34
155.79
161.84
165.16
164.06
159.15
150.09
138.04
125.53
117.73
115.92
118.88
123.55
127.14
127.29
121.80
110.09
93.64
76.27
61.01
49.76
42.77
39.13
36.99
34.04
28.08
17.75
3.15
-13.73
-29.17
-38.71
-38.62
-27.44
-6.73
19.44
46.06
69.14
86.90
99.90
109.98
118.76
126.68
133.03
136.82
137.86
137.26
137.12
139.52
145.43
154.09
163.40
170.87
174.84
175.05
172.50
168.54
163.94
158.22
149.83
136.96
118.48
94.59
66.82
37.46
8.64
-18.23
-42.71
-64.87
-84.73
-102.00
-116.04
-126.40
-133.18
-137.18
-139.59
-141.34
-142.66
-142.98
-141.30
-136.75
-129.23
-119.79
-110.43
-103.62
-101.36
-104.54
-112.45
-123.02
-133.50
-141.43
-145.49
-145.79
-143.56
-140.49
-137.97
-136.67
-136.43
-136.28
-134.67
-129.69
-119.36
-102.40
-78.67
-49.54
-17.68
13.65
41.52
64.07
80.73
91.98
98.76
102.09
102.77
101.53
99.07
96.10
93.22
90.71
88.49
86.20
83.45
79.97
75.78
71.16
66.54
62.26
58.41
54.73
50.67
45.65
39.23
31.51
23.09
14.97
8.34
4.11
2.78
4.22
7.87
12.85
18.27
23.41
27.79
31.17
33.37
34.30
33.91
32.33
29.87
27.09
24.55
22.73
21.87
22.00
23.00
24.71
26.99
29.67
32.50
35.13
37.08
37.84
36.92
34.10
29.47
23.63
17.57
12.42
9.12
7.98
8.66
10.27
11.83
12.66
12.57
11.80
10.72
9.60
8.54
7.57
6.72
6.14
6.00
6.34
7.01
7.64
7.80
7.20
5.77
3.74
1.50
-0.57
-2.22
-3.42
-4.34
-5.20
-6.14
-7.16
-8.10
-8.79
-9.19
-9.44
-9.76
-10.35
-11.07
-11.38
-10.45
-7.51
-2.24
5.03
13.40
21.71
29.03
34.92
39.47
43.00
45.75
47.72
48.64
48.19
46.25
42.99
38.79
34.10
29.22
24.19
18.82
12.71
5.40
-3.46
-13.98
-26.00
-39.16
-52.99
-67.13
-81.26
-95.00
-107.73
-118.59
-126.67
-131.43
-132.85
-131.55
-128.42
-124.23
-119.33
-113.71
-107.25
-100.13
-92.96
-86.64
-81.98
-79.26
-78.08
-77.54
-76.59
-74.52
-71.21
-67.08
-62.76
-58.78
-55.18
-51.61
-47.56
-42.72
-37.31
-31.93
-27.38
-24.19
-22.49
-21.90
-21.75
-21.24
-19.63
-16.25
-10.58
-2.31
8.54
21.47
35.52
49.36
61.60
71.10
77.19
79.82
79.55
77.37
74.47
71.84
70.08
69.26
68.97
68.59
67.50
65.27
61.79
57.28
52.17
47.10
42.55
38.83
35.83
33.06
29.77
25.33
19.43
12.29
4.68
-2.29
-7.45
-9.84
-8.97
-4.97
1.43
9.02
16.46
22.60
26.74
28.65
28.57
26.92
24.10
20.42
16.08
11.29
6.36
1.68
-2.38
-5.55
-7.80
-9.30
-10.44
-11.49
-12.62
-13.77
-14.76
-15.50
-16.17
-17.23
-19.29
-22.74
-27.47
-32.78
-37.48
-40.36
-40.56
-37.84
-32.56
-25.42
-17.15
-8.32
0.61
9.16
16.62
22.10
24.77
24.23
20.79
15.46
9.67
4.78
1.57
0.10
-0.30
-0.48
-1.19
-2.68
-4.80
-7.19
-9.56
-11.85
-14.21
-16.81
-19.75
-23.06
-26.71
-30.66
-34.77
-38.58
-41.34
-41.94
-39.35
-32.91
-22.78
-9.92
4.08
17.37
28.36
36.00
40.07
40.95
39.52
36.77
33.47
30.08
26.70
23.27
19.75
16.19
12.78
9.66
6.87
4.28
1.68
-1.15
-4.34
-7.98
-12.20
-17.15
-23.13
-30.33
-38.70
-47.68
-56.16
-62.60
-65.45
-63.63
-56.94
-46.26
-33.27
-20.02
-8.28
0.80
6.78
9.72
9.90
7.67
3.44
-2.16
-8.20
-13.62
-17.54
-19.55
-19.89
-19.27
-18.54
-18.25
-18.54
-19.19
-19.90
-20.59
-21.58
-23.51
-27.04
-32.49
-39.54
-47.12
-53.57
-57.12
-56.41
-50.93
-41.20
-28.58
-14.78
-1.42
10.38
19.97
27.04
31.45
33.17
32.38
29.62
25.78
21.85
18.66
16.54
15.38
14.79
14.41
14.07
13.83
13.73
13.64
13.11
11.49
8.12
2.50
-5.46
-15.41
-26.47
-37.30
-46.23
-51.55
-51.95
-46.83
-36.52
-22.22
-5.78
10.78
25.54
37.09
44.57
47.73
46.86
42.72
36.31
28.80
21.17
14.15
8.08
3.05
-0.95
-3.90
-5.70
-6.42
-6.31
-6.04
-6.45
-8.28
-11.93
-17.39
-24.29
-32.20
-40.67
-49.11
-56.55
-61.56
-62.44
-57.74
-46.94
-30.73
-10.91
10.08
30.00
47.23
61.00
71.15
77.76
80.97
80.91
77.85
72.38
65.46
58.23
51.69
46.39
42.33
39.06
35.94
32.52
28.69
24.71
20.98
17.79
15.15
12.72
9.98
6.45
1.96
-3.05
-7.57
-10.13
-9.28
-4.07
5.50
18.39
32.86
47.02
59.41
69.28
76.48
80.98
82.59
80.80
75.19
65.84
53.62
40.18
27.35
16.58
8.41
2.47
-2.11
-6.11
-9.92
-13.50
-16.70
-19.69
-23.10
-27.87
-34.78
-44.13
-55.53
-67.93
-79.96
-90.17
-97.13
-99.57
-96.47
-87.28
-72.24
-52.48
-29.95
-7.00
14.30
32.56
47.34
59.02
68.39
76.23
82.99
88.74
93.25
96.26
97.71
97.93
97.46
96.92
96.72
96.78
96.59
95.44
92.80
88.61
83.40
78.00
73.07
68.71
64.15
57.88
47.97
32.60
10.59
-18.16
-52.42
-89.74
-126.66
-159.33
-184.22
-198.73
-201.62
-193.08
-174.44
-147.87
-115.92
-81.42
-47.14
-15.66
11.03
31.82
46.57
55.99
61.17
63.21
62.93
60.91
57.70
53.91
50.11
46.57
43.14
39.25
34.30
28.12
21.14
14.21
8.21
3.44
-0.46
-4.40
-9.38
-16.03
-24.36
-33.69
-42.80
-50.13
-54.00
-52.97
-46.12
-33.47
-16.08
4.03
24.37
42.51
56.70
66.06
70.59
70.89
67.88
62.53
55.76
48.37
41.07
34.40
28.75
24.34
21.09
18.78
17.04
15.51
13.98
12.41
10.93
9.71
8.80
8.00
6.92
5.07
2.11
-2.07
-7.19
-12.77
-18.31
-23.48
-28.15
-32.27
-35.67
-37.80
-37.71
-34.19
-26.16
-13.04
4.97
26.80
50.65
74.24
95.24
111.56
121.69
124.87
121.12
111.28
96.81
79.69
62.23
46.74
35.22
28.89
28.00
31.70
38.39
46.15
53.32
58.89
62.54
64.47
65.06
64.60
63.21
60.83
57.43
53.20
48.54
44.00
39.99
36.59
33.46
29.85
24.91
17.95
8.65
-2.76
-15.55
-28.50
-40.12
-48.73
-52.88
-51.65
-44.93
-33.62
-19.36
-4.22
9.88
21.59
30.36
36.35
40.21
42.74
44.61
46.17
47.57
48.80
49.89
51.01
52.39
54.24
56.56
59.07
61.27
62.68
62.94
62.00
59.95
56.91
52.85
47.61
41.01
33.05
24.00
14.39
4.80
-4.37
-13.01
-21.45
-30.20
-39.80
-50.43
-61.69
-72.50
-81.27
-86.42
-86.90
-82.62
-74.51
-64.20
-53.41
-43.43
-34.90
-27.86
-22.25
-18.06
-15.55
-15.01
-16.46
-19.53
-23.46
-27.42
-30.84
-33.68
-36.37
-39.65
-44.06
-49.80
-56.59
-63.82
-70.90
-77.54
-83.96
-90.71
-98.44
-107.50
-117.80
-128.81
-139.86
-150.34
-159.70
-167.28
-171.93
-172.03
-165.80
-151.99
-130.59
-102.95
-71.49
-38.64
-6.15
25.24
55.47
84.41
111.46
135.47
155.34
170.46
181.01
187.70
191.30
192.30
190.94
187.41
182.20
176.07
169.81
163.80
157.96
151.75
144.63
136.29
126.86
116.66
106.06
95.27
84.25
72.83
60.80
47.98
34.31
20.07
5.99
-6.63
-16.06
-20.59
-19.04
-11.31
1.44
16.97
32.65
46.13
55.96
61.78
64.08
63.77
61.71
58.43
54.13
48.85
42.66
35.73
28.40
21.13
14.46
8.96
5.10
3.00
2.18
1.37
-1.30
-7.84
-19.77
-37.53
-60.33
-86.35
-113.27
-138.90
-161.66
-180.83
-196.47
-209.18
-219.69
-228.47
-235.50
-240.23
-241.77
-239.21
-232.01
-220.16
-204.26
-185.37
-164.86
-144.07
-124.11
-105.72
-89.16
-74.29
-60.89
-48.87
-38.37
-29.81
-23.60
-19.93
-18.60
-19.06
-20.48
-22.09
-23.30
-23.83
-23.77
-23.47
-23.51
-24.47
-26.78
-30.56
-35.61
-41.44
-47.43
-53.08
-58.11
-62.62
-67.05
-72.07
-78.28
-85.91
-94.50
-102.75
-108.79
-110.61
-106.71
-96.66
-81.27
-62.38
-42.33
-23.38
-7.15
5.54
14.71
20.92
25.02
27.82
29.90
31.49
32.55
32.91
32.48
31.30
29.59
27.65
25.73
23.94
22.28
20.68
19.10
17.52
15.88
14.10
11.98
9.29
5.93
1.93
-2.50
-7.16
-11.93
-17.06
-22.93
-29.79
-37.41
-44.76
-50.16
-51.77
-48.28
-39.47
-26.34
-10.78
5.10
19.68
32.14
42.38
50.69
57.31
62.32
65.59
67.04
66.82
65.30
62.95
60.18
57.18
54.02
50.71
47.36
44.15
41.30
38.89
36.76
34.56
31.87
28.36
23.94
18.79
13.29
7.85
2.73
-2.00
-6.59
-11.45
-17.03
-23.53
-30.69
-37.68
-43.15
-45.64
-43.94
-37.63
-27.20
-13.97
0.42
14.40
26.98
37.71
46.58
53.73
59.21
62.96
64.92
65.18
64.01
61.85
59.16
56.24
53.22
50.14
47.06
44.14
41.71
40.10
39.38
39.27
39.09
38.06
35.60
31.55
26.37
20.94
16.26
13.09
11.79
12.16
13.66
15.60
17.34
18.50
18.96
18.83
18.42
18.28
19.18
22.06
27.67
36.17
46.88
58.30
68.59
76.11
80.00
80.20
77.18
71.44
63.26
52.75
40.14
26.14
11.88
-1.22
-12.02
-19.88
-24.69
-26.67
-25.95
-22.48
-15.99
-6.44
5.56
18.58
30.45
38.97
42.57
40.82
34.48
25.04
14.05
2.57
-9.07
-20.96
-33.14
-45.31
-56.60
-65.91
-72.34
-75.57
-75.93
-74.18
-71.06
-66.90
-61.57
-54.67
-46.00
-35.88
-25.20
-15.17
-6.89
-1.01
2.48
4.15
4.94
5.84
7.56
10.32
13.76
17.23
20.18
22.41
24.06
25.32
25.92
24.92
20.87
12.37
-1.19
-19.33
-40.51
-62.67
-83.88
-102.80
-118.76
-131.49
-140.75
-146.05
-146.64
-141.78
-131.12
-114.98
-94.48
-71.33
-47.47
-24.58
-3.93
13.77
28.20
39.26
46.98
51.44
52.83
51.45
47.73
42.25
35.76
29.09
23.04
18.23
14.87
12.69
11.00
8.91
5.69
1.02
-4.87
-11.37
-17.69
-23.14
-27.37
-30.38
-32.56
-34.60
-37.36
-41.63
-47.79
-55.58
-63.94
-71.25
-75.66
-75.71
-70.74
-61.02
-47.64
-32.17
-16.25
-1.30
11.70
22.24
30.22
35.82
39.34
41.11
41.37
40.40
38.46
35.85
32.87
29.75
26.60
23.49
20.49
17.82
15.78
14.65
14.53
15.23
16.35
17.37
17.85
17.55
16.25
13.73
9.65
3.70
-4.16
-13.42
-22.90
-30.91
-35.71
-36.05
-31.47
-22.42
-9.95
4.68
20.23
35.68
50.11
62.63
72.38
78.70
81.25
80.19
76.20
70.32
63.70
57.42
52.29
48.78
47.04
46.88
47.88
49.44
50.91
51.66
51.18
49.19
45.67
40.87
35.14
28.78
21.91
14.34
5.64
-4.58
-16.45
-29.62
-43.09
-55.36
-64.68
-69.49
-68.85
-62.77
-52.20
-38.71
-24.11
-9.84
3.17
14.51
23.92
31.14
35.74
37.35
35.91
31.80
25.78
18.76
11.51
4.51
-1.96
-7.75
-12.68
-16.57
-19.36
-21.15
-22.17
-22.64
-22.68
-22.24
-21.20
-19.49
-17.30
-15.15
-13.76
-13.90
-16.07
-20.27
-25.87
-31.61
-35.84
-36.84
-33.33
-24.79
-11.69
4.60
22.11
38.74
52.72
62.80
68.33
69.13
65.40
57.57
46.41
33.00
18.73
5.12
-6.47
-15.05
-20.15
-21.79
-20.38
-16.62
-11.36
-5.61
-0.42
3.26
4.71
3.62
0.13
-5.20
-11.55
-18.05
-23.80
-27.92
-29.53
-27.85
-22.50
-13.75
-2.67
9.11
19.91
28.57
34.85
39.26
42.62
45.45
47.60
48.27
46.45
41.44
33.23
22.54
10.66
-0.82
-10.29
-16.27
-17.72
-14.26
-6.49
3.99
14.79
23.33
27.52
26.33
20.03
9.98
-1.88
-13.60
-23.75
-31.70
-37.65
-42.43
-47.10
-52.40
-58.27
-63.69
-66.89
-66.04
-59.97
-48.75
-33.76
-17.17
-1.18
12.61
23.45
31.20
35.94
37.58
35.98
31.23
23.97
15.44
7.16
0.37
-4.38
-7.33
-9.18
-10.58
-11.82
-12.85
-13.49
-13.75
-14.01
-14.86
-16.81
-20.07
-24.43
-29.45
-34.76
-40.20
-45.87
-51.80
-57.70
-62.72
-65.40
-64.09
-57.44
-44.87
-26.87
-4.94
18.82
42.25
63.58
81.65
95.93
106.25
112.64
115.09
113.60
108.29
99.57
88.27
75.55
62.73
50.99
40.98
32.65
25.40
18.33
10.64
2.04
-7.23
-16.57
-25.31
-33.05
-39.75
-45.65
-51.11
-56.44
-61.74
-66.98
-71.89
-75.96
-78.46
-78.52
-75.36
-68.61
-58.51
-45.93
-32.24
-18.95
-7.43
1.33
6.84
9.08
8.43
5.57
1.34
-3.45
-8.07
-12.03
-15.04
-16.96
-17.83
-17.77
-16.95
-15.61
-13.92
-11.98
-9.86
-7.66
-5.64
-4.29
-4.18
-5.83
-9.40
-14.53
-20.30
-25.40
-28.45
-28.30
-24.36
-16.71
-6.04
6.52
19.74
32.48
43.93
53.59
61.16
66.42
69.18
69.37
67.08
62.77
57.14
51.07
45.23
39.94
35.11
30.41
25.55
20.49
15.49
10.89
6.92
3.42
-0.14
-4.55
-10.66
-19.09
-30.10
-43.42
-58.23
-73.13
-86.37
-96.15
-101.09
-100.65
-95.33
-86.63
-76.62
-67.32
-60.06
-55.06
-51.55
-48.23
-43.97
-38.40
-32.02
-25.91
-21.09
-18.02
-16.44
-15.60
-14.78
-13.68
-12.55
-11.93
-12.25
-13.54
-15.32
-16.94
-17.85
-18.04
-18.05
-18.84
-21.34
-26.13
-33.11
-41.55
-50.21
-57.71
-62.72
-64.20
-61.51
-54.46
-43.36
-28.98
-12.48
4.79
21.47
36.49
49.18
59.30
66.99
72.56
76.34
78.54
79.29
78.61
76.61
73.48
69.50
64.94
60.03
54.80
49.21
43.20
36.87
30.43
24.19
18.35
12.77
6.92
-0.11
-9.19
-20.77
-34.48
-49.04
-62.47
-72.70
-78.10
-77.92
-72.31
-62.17
-48.73
-33.26
-16.94
-0.85
13.94
26.41
35.75
41.60
44.13
44.00
42.14
39.41
36.38
33.31
30.22
27.13
24.21
21.76
20.05
19.20
19.02
19.07
18.87
18.10
16.67
14.66
12.08
8.73
4.11
-2.29
-10.61
-20.22
-29.58
-36.60
-39.26
-36.42
-28.32
-16.47
-3.15
9.50
20.12
28.39
34.77
39.92
44.14
47.22
48.51
47.43
43.81
38.07
31.07
23.69
16.55
9.81
3.34
-3.05
-9.36
-15.23
-20.18
-23.73
-25.74
-26.41
-26.26
-25.92
-25.91
-26.70
-28.65
-32.20
-37.73
-45.30
-54.39
-63.57
-70.76
-73.63
-70.45
-60.64
-45.11
-25.94
-5.69
13.39
29.93
43.60
54.80
64.19
72.33
79.44
85.53
90.67
95.13
99.37
103.91
109.04
114.77
120.93
127.35
133.96
140.63
146.80
151.29
152.30
147.88
136.76
118.85
95.55
69.25
42.59
17.50
-5.24
-25.94
-45.40
-64.11
-81.79
-97.19
-108.56
-114.39
-113.97
-107.70
-96.99
-83.64
-69.29
-55.05
-41.44
-28.57
-16.56
-5.67
3.71
11.35
17.36
22.25
26.78
31.54
36.67
41.79
46.24
49.46
51.35
52.30
52.98
53.98
55.47
57.15
58.46
58.96
58.55
57.55
56.51
55.86
55.60
55.29
54.20
51.60
47.11
40.82
33.26
25.28
17.77
11.50
7.00
4.47
3.85
4.80
6.94
9.85
13.19
16.68
20.06
23.08
25.44
26.88
27.19
26.28
24.13
20.75
16.15
10.48
3.99
-2.80
-9.25
-14.76
-18.96
-21.84
-23.70
-24.92
-25.87
-26.79
-27.87
-29.39
-31.69
-35.20
-40.17
-46.71
-54.67
-63.72
-73.41
-83.05
-91.67
-97.98
-100.70
-98.89
-92.35
-81.75
-68.56
-54.59
-41.60
-30.90
-23.26
-18.81
-17.11
-17.37
-18.62
-20.11
-21.48
-22.83
-24.59
-27.06
-30.25
-33.81
-37.24
-40.18
-42.54
-44.41
-45.77
-46.41
-45.94
-44.09
-40.95
-36.98
-32.83
-29.16
-26.41
-24.89
-24.83
-26.34
-29.36
-33.33
-37.17
-39.41
-38.58
-33.80
-25.04
-13.22
0.09
13.06
24.05
31.95
36.26
37.18
35.36
31.66
26.88
21.47
15.50
8.81
1.23
-7.14
-15.81
-24.00
-30.90
-35.92
-38.87
-39.90
-39.37
-37.58
-34.67
-30.66
-25.57
-19.65
-13.43
-7.63
-2.93
0.19
1.57
1.34
-0.23
-2.78
-5.95
-9.21
-11.86
-13.10
-12.23
-8.93
-3.33
4.04
12.63
22.20
33.13
46.30
62.76
83.05
106.60
131.36
154.10
171.23
179.99
179.48
170.95
157.26
141.68
126.51
112.48
98.89
84.52
68.60
51.37
33.87
17.25
2.17
-11.50
-24.33
-36.80
-48.79
-59.56
-68.08
-73.56
-75.98
-76.16
-75.48
-75.22
-75.92
-77.09
-77.31
-74.86
-68.51
-58.17
-44.91
-30.64
-17.26
-6.15
2.18
7.90
11.37
12.83
12.24
9.56
5.00
-0.72
-6.50
-11.18
-14.03
-15.03
-14.83
-14.39
-14.49
-15.45
-17.04
-18.72
-19.98
-20.62
-20.74
-20.63
-20.54
-20.46
-20.22
-19.57
-18.52
-17.47
-17.09
-18.04
-20.51
-23.99
-27.28
-28.89
-27.65
-23.14
-15.83
-6.84
2.52
11.18
18.48
24.13
27.96
29.86
29.73
27.63
23.92
19.21
14.10
8.87
3.31
-3.22
-11.34
-21.21
-32.29
-43.45
-53.54
-61.94
-68.90
-75.32
-82.23
-90.11
-98.60
-106.66
-113.09
-117.11
-118.79
-118.84
-118.22
-117.46
-116.32
-113.74
-108.27
-98.73
-84.74
-66.97
-46.92
-26.37
-6.81
10.94
26.74
40.83
53.50
64.81
74.63
82.79
89.25
94.21
97.97
100.78
102.66
103.44
102.88
100.82
97.17
91.89
84.84
75.87
64.96
52.49
39.35
26.72
15.81
7.34
1.48
-2.11
-3.92
-4.28
-3.28
-0.82
3.13
8.50
15.02
22.40
30.32
38.35
45.90
52.23
56.65
58.71
58.36
55.88
51.63
45.70
37.79
27.37
14.10
-1.67
-18.75
-35.18
-48.84
-58.01
-61.78
-60.24
-54.23
-44.98
-33.84
-22.03
-10.61
-0.41
7.92
14.07
18.03
20.03
20.30
18.91
15.69
10.39
2.98
-6.05
-15.70
-24.57
-31.25
-34.77
-34.74
-31.48
-25.79
-18.71
-11.25
-4.28
1.62
6.02
8.63
9.23
7.66
3.91
-1.80
-8.97
-16.82
-24.46
-31.13
-36.34
-40.04
-42.46
-44.02
-45.13
-46.07
-46.96
-47.77
-48.48
-49.04
-49.47
-49.86
-50.39
-51.27
-52.76
-55.06
-58.16
-61.74
-65.03
-66.96
-66.33
-62.24
-54.39
-43.29
-30.11
-16.36
-3.42
7.79
16.85
23.77
28.64
31.44
32.07
30.53
27.18
22.78
18.36
14.80
12.51
11.24
10.23
8.63
5.90
2.04
-2.50
-7.10
-11.35
-15.21
-18.87
-22.63
-26.58
-30.66
-34.72
-38.68
-42.61
-46.55
-50.24
-52.92
-53.48
-50.74
-44.10
-33.80
-21.02
-7.45
5.15
15.57
23.30
28.43
31.33
32.34
31.66
29.39
25.69
20.97
15.91
11.26
7.68
5.52
4.65
4.57
4.57
4.01
2.63
0.52
-1.97
-4.43
-6.80
-9.32
-12.46
-16.65
-21.97
-28.14
-34.55
-40.53
-45.50
-49.01
-50.61
-49.78
-46.01
-38.97
-28.83
-16.40
-3.08
9.53
20.04
27.68
32.34
34.41
34.50
33.13
30.67
27.42
23.79
20.35
17.79
16.62
16.96
18.46
20.34
21.76
22.10
21.21
19.40
17.14
14.85
12.61
10.18
7.03
2.69
-3.06
-9.96
-17.33
-24.12
-29.14
-31.37
-30.16
-25.37
-17.43
-7.20
4.24
15.76
26.37
35.29
41.98
46.15
47.78
47.13
44.67
41.04
36.87
32.67
28.77
25.34
22.39
19.94
17.96
16.38
15.07
13.78
12.23
10.19
7.62
4.68
1.65
-1.25
-4.09
-7.25
-11.33
-16.78
-23.60
-31.07
-37.90
-42.52
-43.68
-40.80
-34.13
-24.60
-13.47
-1.95
8.94
18.52
26.25
31.69
34.48
34.47
31.90
27.44
22.14
17.15
13.32
10.99
9.89
9.41
8.88
7.90
6.42
4.66
2.84
0.99
-1.02
-3.43
-6.43
-10.07
-14.34
-19.26
-24.85
-31.10
-37.70
-43.85
-48.31
-49.65
-46.71
-39.15
-27.65
-13.80
0.40
13.24
23.77
31.87
37.92
42.33
45.18
46.20
45.13
42.09
37.79
33.40
30.02
28.23
27.81
27.95
27.59
26.05
23.27
19.72
16.14
13.08
10.59
8.22
5.26
1.08
-4.54
-11.37
-18.79
-25.98
-32.13
-36.44
-38.21
-36.79
-31.77
-23.18
-11.62
1.68
15.18
27.37
37.22
44.34
48.98
51.72
53.18
53.76
53.50
52.30
49.98
46.65
42.69
38.75
35.49
33.29
32.03
31.13
29.79
27.42
23.94
19.75
15.56
11.90
8.82
5.90
2.40
-2.27
-8.30
-15.34
-22.70
-29.54
-35.06
-38.57
-39.47
-37.24
-31.58
-22.56
-10.81
2.53
15.97
28.06
37.78
44.76
49.20
51.69
52.84
53.08
52.52
51.14
48.94
46.13
43.08
40.28
38.16
36.85
36.23
35.92
35.41
34.30
32.40
29.76
26.55
22.95
18.98
14.54
9.53
4.03
-1.67
-7.12
-11.97
-16.22
-20.29
-24.84
-30.39
-36.93
-43.64
-49.06
-51.57
-49.95
-43.90
-34.21
-22.45
-10.37
0.63
9.87
17.33
23.27
27.86
31.02
32.52
32.26
30.55
28.09
25.75
24.20
23.62
23.74
24.04
24.09
23.82
23.51
23.59
24.31
25.55
26.79
27.39
26.92
25.40
23.26
21.19
19.71
18.92
18.50
17.88
16.50
14.04
10.45
5.87
0.47
-5.45
-11.37
-16.44
-19.59
-19.81
-16.57
-10.19
-1.78
7.03
14.69
20.18
23.30
24.52
24.57
24.10
23.40
22.39
20.84
18.57
15.56
11.92
7.86
3.56
-0.88
-5.34
-9.61
-13.43
-16.54
-18.80
-20.27
-21.25
-22.13
-23.25
-24.76
-26.61
-28.55
-30.27
-31.51
-32.13
-32.17
-31.79
-31.30
-30.98
-31.05
-31.57
-32.48
-33.78
-35.56
-38.08
-41.45
-45.48
-49.38
-51.91
-51.67
-47.64
-39.64
-28.44
-15.48
-2.40
9.44
19.34
27.16
33.21
37.87
41.42
43.96
45.48
45.96
45.41
43.97
41.79
39.04
35.87
32.41
28.86
25.41
22.32
19.78
17.87
16.51
15.46
14.43
13.13
11.45
9.43
7.24
5.10
3.16
1.48
-0.01
-1.46
-3.07
-5.13
-7.97
-11.94
-17.26
-23.84
-31.13
-38.10
-43.45
-46.00
-44.98
-40.37
-32.87
-23.65
-13.93
-4.71
3.42
10.15
15.31
18.65
19.90
18.96
16.10
12.07
7.92
4.67
2.94
2.71
3.40
4.21
4.51
4.12
3.34
2.64
2.38
2.51
2.62
2.17
0.84
-1.23
-3.51
-5.36
-6.35
-6.51
-6.31
-6.35
-7.12
-8.78
-11.24
-14.29
-17.72
-21.26
-24.49
-26.71
-26.98
-24.50
-18.88
-10.47
-0.38
9.87
18.81
25.41
29.38
31.05
31.15
30.42
29.37
28.16
26.66
24.72
22.30
19.61
17.01
14.83
13.24
12.08
11.01
9.67
7.84
5.51
2.86
0.13
-2.52
-5.10
-7.73
-10.57
-13.71
-17.05
-20.39
-23.51
-26.29
-28.75
-30.90
-32.53
-33.05
-31.54
-27.10
-19.25
-8.40
4.23
16.97
28.31
37.43
44.30
49.43
53.36
56.30
58.06
58.24
56.62
53.30
48.77
43.65
38.50
33.53
28.67
23.67
18.36
12.83
7.45
2.75
-0.82
-3.17
-4.60
-5.69
-7.04
-8.96
-11.35
-13.86
-16.03
-17.51
-18.19
-18.01
-16.85
-14.38
-10.15
-3.78
4.84
15.32
26.72
37.65
46.49
51.67
52.04
47.15
37.45
24.27
9.56
-4.68
-16.87
-26.14
-32.43
-36.26
-38.41
-39.64
-40.51
-41.37
-42.32
-43.32
-44.20
-44.86
-45.32
-45.84
-46.78
-48.50
-51.15
-54.56
-58.34
-62.17
-65.95
-69.91
-74.49
-79.99
-86.25
-92.48
-97.36
-99.40
-97.42
-90.99
-80.62
-67.58
-53.52
-39.98
-28.04
-18.17
-10.36
-4.44
-0.22
2.35
3.35
2.97
1.65
0.07
-1.10
-1.51
-1.27
-0.89
-1.00
-1.95
-3.67
-5.69
-7.47
-8.69
-9.43
-10.14
-11.30
-13.22
-15.87
-19.07
-22.63
-26.58
-31.07
-36.10
-41.27
-45.65
-48.02
-47.21
-42.68
-34.79
-24.74
-14.21
-4.72
2.83
8.27
12.06
14.71
16.45
17.13
16.39
14.08
10.55
6.59
3.12
0.75
-0.51
-1.20
-2.05
-3.58
-5.82
-8.39
-10.76
-12.61
-14.02
-15.43
-17.37
-20.18
-23.94
-28.42
-33.34
-38.39
-43.28
-47.56
-50.52
-51.18
-48.60
-42.26
-32.39
-20.06
-6.89
5.44
15.77
23.65
29.33
33.43
36.46
38.64
39.83
39.74
38.26
35.62
32.40
29.29
26.84
25.20
24.15
23.16
21.77
19.78
17.29
14.63
12.14
9.90
7.66
5.01
1.52
-3.00
-8.46
-14.59
-21.08
-27.60
-33.78
-38.98
-42.23
-42.40
-38.62
-30.64
-19.14
-5.55
8.36
21.05
31.57
39.70
45.72
50.07
53.12
54.91
55.38
54.44
52.24
49.21
45.97
43.10
40.89
39.27
37.81
35.99
33.49
30.29
26.69
23.08
19.71
16.57
13.43
9.95
5.92
1.36
-3.58
-8.71
-14.03
-19.68
-25.79
-32.17
-38.09
-42.35
-43.62
-41.00
-34.41
-24.76
-13.59
-2.44
7.59
16.11
23.22
29.23
34.18
37.79
39.62
39.41
37.33
34.01
30.37
27.19
24.87
23.23
21.68
19.56
16.47
12.46
7.89
3.22
-1.42
-6.23
-11.70
-18.22
-25.82
-34.16
-42.64
-50.71
-58.06
-64.66
-70.57
-75.64
-79.38
-81.01
-79.66
-74.63
-65.65
-52.97
-37.39
-20.07
-2.50
13.83
27.63
38.04
44.76
48.06
48.67
47.62
46.03
44.94
45.15
47.06
50.56
55.17
60.16
64.97
69.47
73.93
78.89
84.70
91.28
97.99
103.99
108.52
111.28
112.35
112.09
110.81
108.58
105.25
100.65
94.82
88.10
81.16
74.90
70.20
67.83
68.29
71.71
77.91
86.14
95.15
103.17
108.22
108.50
103.05
92.02
76.71
59.14
41.25
24.30
8.62
-6.22
-20.93
-35.95
-51.21
-66.08
-79.57
-90.52
-97.88
-100.93
-99.55
-94.54
-87.56
-80.81
-76.41
-75.72
-78.95
-85.31
-93.51
-102.36
-111.15
-119.54
-127.33
-134.04
-138.88
-140.97
-139.65
-134.79
-126.76
-116.38
-104.47
-91.82
-79.00
-66.49
-54.72
-44.12
-35.01
-27.56
-21.73
-17.22
-13.67
-10.69
-8.05
-5.61
-3.27
-0.95
1.43
3.90
6.28
8.21
9.18
8.86
7.28
4.89
2.39
0.45
-0.69
-1.29
-2.02
-3.56
-6.29
-10.20
-14.85
-19.60
-23.78
-26.70
-27.70
-26.08
-21.25
-12.98
-1.59
11.90
25.97
38.98
49.55
57.04
61.51
63.61
64.15
63.83
62.92
61.43
59.18
56.16
52.56
48.78
45.25
42.18
39.46
36.69
33.39
29.18
23.96
17.87
11.29
4.59
-1.95
-8.22
-14.26
-20.13
-25.89
-31.58
-37.28
-43.16
-49.44
-56.18
-63.06
-69.22
-73.34
-74.08
-70.62
-63.11
-52.68
-41.15
-30.39
-21.70
-15.57
-11.71
-9.42
-8.03
-7.11
-6.54
-6.37
-6.61
-7.12
-7.59
-7.66
-7.05
-5.69
-3.72
-1.44
0.87
3.11
5.32
7.64
10.08
12.45
14.32
15.20
14.69
12.57
8.85
3.61
-2.96
-10.61
-18.88
-26.94
-33.67
-37.85
-38.50
-35.16
-28.17
-18.45
-7.36
3.74
13.75
21.96
28.01
31.87
33.60
33.36
31.39
28.01
23.68
18.90
14.16
9.80
5.93
2.46
-0.92
-4.53
-8.59
-13.12
-17.88
-22.43
-26.34
-29.24
-31.04
-31.91
-32.21
-32.36
-32.74
-33.63
-35.07
-36.90
-38.67
-39.55
-38.50
-34.49
-26.83
-15.48
-1.12
14.96
31.24
46.39
59.53
70.25
78.50
84.32
87.66
88.32
86.11
81.07
73.68
64.94
56.20
48.84
43.85
41.51
41.34
42.40
43.70
44.57
44.96
45.23
45.95
47.59
50.26
53.72
57.39
60.39
61.70
60.35
55.68
47.66
37.13
25.71
15.52
8.53
6.08
8.41
14.73
23.51
33.02
41.72
48.50
52.77
54.29
53.06
49.23
43.09
35.07
25.78
15.88
6.06
-3.08
-11.12
-17.80
-23.01
-26.80
-29.28
-30.60
-30.91
-30.35
-29.07
-27.21
-24.98
-22.50
-19.89
-17.27
-14.78
-12.63
-11.00
-9.91
-8.99
-7.46
-4.18
2.02
11.90
25.47
41.86
59.47
76.45
91.16
102.59
110.49
115.29
117.78
118.74
118.75
117.99
116.29
113.22
108.26
100.88
90.60
77.12
60.40
40.83
19.37
-2.51
-22.96
-40.13
-52.56
-59.53
-61.17
-58.49
-53.07
-46.76
-41.29
-37.93
-37.25
-39.03
-42.34
-45.74
-47.71
-47.05
-43.29
-36.80
-28.71
-20.66
-14.21
-10.49
-9.97
-12.49
-17.56
-24.65
-33.43
-43.64
-54.92
-66.56
-77.46
-86.42
-92.52
-95.38
-95.40
-93.51
-90.89
-88.58
-87.26
-87.19
-88.35
-90.54
-93.38
-96.31
-98.60
-99.38
-97.94
-93.87
-87.36
-79.02
-69.64
-59.82
-49.73
-39.22
-28.13
-16.74
-5.91
3.15
9.36
12.23
12.09
9.87
6.68
3.39
0.49
-1.75
-3.13
-3.26
-1.71
1.86
7.39
14.43
22.22
29.88
36.57
41.59
44.37
44.44
41.51
35.55
26.92
16.37
4.99
-6.15
-16.22
-24.78
-31.71
-36.85
-39.81
-39.89
-36.31
-28.70
-17.40
-3.42
11.85
27.14
41.64
54.92
66.60
76.06
82.35
84.45
81.68
74.11
62.58
48.47
33.32
18.46
4.85
-7.07
-17.33
-26.44
-35.26
-44.83
-56.04
-69.31
-84.42
-100.42
-115.81
-128.86
-137.94
-141.88
-140.31
-133.73
-123.39
-110.89
-97.57
-84.13
-70.49
-56.06
-40.29
-23.13
-5.28
12.03
27.37
39.62
48.25
53.41
55.75
56.18
55.59
54.69
53.94
53.60
53.81
54.60
55.79
56.91
57.22
55.91
52.44
46.80
39.63
32.02
25.13
19.84
16.54
15.12
15.26
16.46
18.41
21.02
24.48
29.21
35.62
43.89
53.63
63.82
72.97
79.54
82.43
81.31
76.68
69.57
61.11
52.11
42.86
33.15
22.59
11.02
-1.35
-13.96
-26.32
-38.17
-49.60
-60.76
-71.47
-81.03
-88.47
-93.12
-95.05
-95.32
-95.48
-96.95
-100.36
-105.38
-111.03
-116.13
-119.66
-120.89
-119.22
-114.17
-105.50
-93.42
-78.73
-62.73
-46.85
-32.22
-19.38
-8.41
0.93
8.88
15.51
20.76
24.49
26.65
27.32
26.70
25.09
22.81
20.22
17.69
15.62
14.31
13.87
14.12
14.64
14.83
14.16
12.29
9.23
5.25
0.75
-3.98
-8.86
-14.02
-19.57
-25.40
-30.96
-35.33
-37.42
-36.38
-31.88
-24.26
-14.46
-3.70
6.86
16.42
24.61
31.36
36.71
40.66
43.16
44.15
43.71
42.11
39.81
37.26
34.81
32.55
30.39
28.09
25.49
22.60
19.60
16.75
14.22
12.02
9.96
7.75
5.08
1.76
-2.27
-6.96
-12.20
-17.84
-23.53
-28.73
-32.59
-34.16
-32.64
-27.71
-19.78
-9.85
0.75
10.81
19.50
26.49
31.75
35.34
37.24
37.36
35.78
32.84
29.19
25.65
22.87
21.16
20.35
19.96
19.47
18.54
17.13
15.42
13.65
11.93
10.17
8.13
5.49
2.00
-2.47
-7.90
-14.08
-20.61
-26.81
-31.79
-34.56
-34.24
-30.40
-23.19
-13.48
-2.59
8.07
17.32
24.52
29.57
32.73
34.31
34.55
33.60
31.56
28.74
25.57
22.62
20.30
18.71
17.62
16.59
15.17
13.15
10.63
7.92
5.36
3.14
1.17
-0.89
-3.48
-6.94
-11.44
-16.85
-22.80
-28.68
-33.71
-37.01
-37.73
-35.24
-29.32
-20.35
-9.27
2.66
14.12
24.17
32.33
38.61
43.28
46.64
48.82
49.85
49.75
48.61
46.70
44.32
41.77
39.17
36.52
33.77
30.92
28.09
25.53
23.56
22.47
22.41
23.25
24.63
26.01
26.93
27.23
27.09
26.98
27.33
28.29
29.68
31.10
32.29
33.31
34.48
36.09
38.04
39.85
40.78
40.31
38.43
35.53
32.10
28.39
24.23
19.16
12.78
4.91
-4.29
-14.39
-24.74
-34.51
-42.57
-47.63
-48.47
-44.34
-35.34
-22.49
-7.51
7.56
20.78
30.53
35.59
35.19
29.05
17.56
2.03
-15.43
-32.10
-45.32
-53.19
-55.03
-51.49
-44.16
-34.98
-25.61
-17.07
-9.70
-3.39
2.06
6.75
10.53
13.09
14.07
13.21
10.51
6.32
1.32
-3.52
-7.21
-8.88
-8.04
-4.85
-0.03
5.16
9.34
11.41
10.82
7.65
2.42
-4.16
-11.53
-19.25
-27.00
-34.27
-40.29
-44.12
-44.89
-42.17
-36.12
-27.52
-17.50
-7.20
2.53
11.18
18.53
24.39
28.47
30.47
30.27
28.11
24.58
20.36
15.89
11.22
6.08
0.06
-7.07
-15.30
-24.27
-33.39
-41.91
-49.05
-54.04
-56.37
-55.98
-53.39
-49.60
-45.79
-42.96
-41.55
-41.22
-41.00
-39.62
-35.93
-29.46
-20.59
-10.50
-0.72
7.38
13.10
16.46
17.96
18.17
17.43
15.71
12.91
9.05
4.53
0.01
-3.81
-6.43
-7.63
-7.35
-5.66
-2.70
1.08
4.83
7.40
7.71
5.19
0.10
-6.63
-13.81
-20.59
-26.66
-32.10
-36.98
-40.88
-42.99
-42.35
-38.45
-31.57
-22.68
-13.12
-3.99
4.06
10.93
16.75
21.51
24.99
26.73
26.39
24.02
20.23
15.95
12.22
9.67
8.39
7.89
7.36
6.10
3.81
0.72
-2.61
-5.52
-7.70
-9.27
-10.74
-12.74
-15.78
-20.04
-25.30
-30.96
-36.09
-39.57
-40.27
-37.30
-30.40
-20.04
-7.34
6.19
19.13
30.55
40.08
47.86
54.24
59.46
63.52
66.17
67.11
66.20
63.63
59.86
55.45
50.75
45.83
40.50
34.60
28.32
22.19
17.01
13.42
11.59
11.10
11.09
10.58
8.73
5.05
-0.50
-7.52
-15.17
-22.20
-27.21
-28.97
-26.82
-20.95
-12.28
-2.21
7.90
17.02
24.61
30.44
34.37
36.25
35.97
33.61
29.59
24.68
19.79
15.74
13.01
11.71
11.63
12.35
13.43
14.45
15.00
14.70
13.20
10.23
5.74
-0.01
-6.45
-12.82
-18.45
-22.91
-26.20
-28.73
-31.16
-34.18
-38.19
-43.06
-48.01
-51.72
-52.72
-49.85
-42.82
-32.34
-19.99
-7.67
2.95
10.90
15.97
18.47
19.02
18.25
16.70
14.86
13.07
11.60
10.57
9.90
9.44
8.88
7.92
6.20
3.47
-0.36
-5.16
-10.54
-16.04
-21.23
-25.87
-29.95
-33.63
-37.14
-40.80
-44.92
-49.82
-55.60
-62.02
-68.20
-72.65
-73.60
-69.52
-59.76
-44.84
-26.44
-6.93
11.32
26.49
37.65
44.70
48.19
48.99
48.16
46.83
46.08
46.62
48.50
50.89
52.31
51.23
46.80
39.35
30.37
21.91
15.71
12.42
11.48
11.48
10.88
8.61
4.28
-2.05
-10.34
-20.88
-34.11
-50.13
-68.10
-85.90
-100.51
-108.87
-108.90
-100.27
-84.34
-63.58
-40.79
-18.42
1.61
17.93
29.67
36.68
39.90
41.32
43.62
49.29
59.71
74.64
92.32
110.15
125.56
136.77
143.11
145.05
144.02
142.10
141.54
144.24
151.15
161.84
174.58
186.59
194.63
195.56
186.90
167.42
137.62
100.01
58.77
18.99
-14.65
-38.94
-52.83
-57.17
-54.09
-46.06
-35.43
-24.19
-13.92
-5.88
-0.73
1.51
1.45
-0.07
-2.28
-4.76
-7.41
-10.16
-12.92
-15.43
-17.47
-18.94
-19.87
-20.37
-20.53
-20.41
-20.09
-19.84
-20.03
-21.09
-23.24
-26.34
-29.94
-33.47
-36.53
-39.02
-41.24
-43.71
-46.81
-50.68
-55.02
-59.13
-62.03
-62.73
-60.38
-54.55
-45.40
-33.75
-21.06
-9.13
0.27
5.92
7.40
5.22
0.54
-5.23
-10.96
-16.07
-20.54
-24.71
-28.88
-33.09
-37.05
-40.26
-42.34
-43.27
-43.42
-43.43
-43.89
-45.20
-47.48
-50.81
-55.25
-60.90
-67.70
-75.22
-82.65
-89.12
-94.11
-97.77
-100.97
-104.69
-109.49
-114.96
-119.75
-121.96
-119.88
-112.55
-100.06
-83.50
-64.68
-45.60
-27.97
-12.92
-0.92
7.95
13.71
16.33
15.79
12.28
6.45
-0.69
-7.91
-14.18
-18.85
-21.71
-22.80
-22.30
-20.43
-17.54
-14.18
-11.07
-8.91
-8.19
-9.02
-11.18
-14.25
-17.75
-21.27
-24.57
-27.59
-30.44
-33.37
-36.64
-40.34
-44.19
-47.44
-48.98
-47.67
-42.76
-34.26
-23.01
-10.38
2.19
13.64
23.50
31.73
38.45
43.69
47.34
49.27
49.54
48.41
46.35
43.77
40.89
37.74
34.28
30.49
26.52
22.61
18.95
15.55
12.23
8.78
5.07
1.17
-2.65
-6.09
-8.92
-11.21
-13.24
-15.47
-18.36
-22.24
-27.11
-32.54
-37.71
-41.49
-42.69
-40.42
-34.43
-25.18
-13.78
-1.64
9.91
19.92
27.96
34.00
38.27
41.03
42.55
43.06
42.80
42.03
41.02
39.97
38.95
37.86
36.48
34.59
32.02
28.78
24.99
20.90
16.78
12.75
8.90
5.24
1.79
-1.39
-4.23
-6.74
-9.08
-11.56
-14.60
-18.54
-23.45
-29.02
-34.49
-38.73
-40.56
-39.00
-33.63
-24.78
-13.45
-1.14
10.71
20.97
29.10
35.04
38.98
41.11
41.51
40.20
37.35
33.40
29.03
25.04
22.01
20.19
19.40
19.20
19.13
18.82
18.11
16.99
15.53
13.76
11.64
9.07
5.95
2.26
-1.97
-6.69
-11.91
-17.78
-24.47
-32.10
-40.39
-48.56
-55.35
-59.19
-58.72
-53.26
-43.02
-29.12
-13.26
2.80
17.62
30.29
40.36
47.62
51.94
53.19
51.40
46.88
40.30
32.59
24.70
17.30
10.70
4.86
-0.40
-5.18
-9.41
-12.80
-15.04
-15.91
-15.40
-13.80
-11.57
-9.32
-7.64
-7.01
-7.71
-9.83
-13.24
-17.68
-22.72
-27.66
-31.56
-33.35
-32.10
-27.35
-19.40
-9.19
1.97
12.86
22.68
31.17
38.41
44.54
49.53
53.16
55.18
55.54
54.45
52.34
49.65
46.60
43.15
38.99
33.78
27.38
19.84
11.47
2.65
-6.25
-15.00
-23.45
-31.52
-39.17
-46.42
-53.28
-59.77
-65.68
-70.52
-73.46
-73.52
-69.89
-62.28
-51.04
-37.20
-22.11
-7.19
6.47
18.21
27.84
35.45
41.25
45.40
47.95
48.89
48.30
46.44
43.78
40.90
38.35
36.40
35.00
33.78
32.29
30.19
27.40
24.07
20.46
16.79
13.02
8.93
4.16
-1.60
-8.53
-16.49
-25.11
-33.70
-41.39
-47.18
-50.09
-49.42
-44.88
-36.82
-26.09
-13.91
-1.56
9.84
19.54
27.12
32.42
35.45
36.31
35.18
32.44
28.58
24.26
20.14
16.76
14.36
12.85
11.86
10.87
9.39
7.17
4.22
0.71
-3.14
-7.25
-11.74
-16.91
-23.09
-30.48
-38.87
-47.60
-55.48
-61.07
-63.01
-60.41
-53.25
-42.33
-29.04
-14.98
-1.43
10.72
20.99
29.11
34.82
37.89
38.26
36.22
32.47
27.99
23.74
20.44
18.37
17.40
17.11
17.01
16.66
15.75
14.21
12.05
9.40
6.38
3.06
-0.57
-4.63
-9.30
-14.82
-21.34
-28.72
-36.25
-42.59
-45.89
-44.31
-36.71
-23.22
-5.42
13.97
31.99
46.29
55.77
60.50
61.34
59.35
55.41
50.18
44.33
38.66
33.97
30.86
29.35
29.00
29.08
29.03
28.60
27.73
26.18
23.38
18.61
11.50
2.50
-7.07
-15.49
-21.41
-24.56
-25.81
-26.69
-28.54
-31.82
-35.77
-38.76
-39.06
-35.49
-27.84
-16.89
-3.93
9.62
22.52
33.79
42.60
48.21
50.13
48.35
43.54
37.09
30.65
25.75
23.23
23.16
25.02
28.00
31.38
34.60
37.30
39.22
40.18
40.10
39.06
37.27
34.94
32.23
29.12
25.51
21.23
16.14
10.12
3.24
-4.23
-11.67
-18.17
-22.72
-24.52
-23.32
-19.51
-13.98
-7.81
-1.88
3.38
7.95
11.93
15.27
17.55
18.02
15.98
11.09
3.75
-4.94
-13.49
-20.44
-24.95
-26.95
-27.09
-26.38
-25.74
-25.77
-26.63
-28.19
-30.18
-32.36
-34.60
-36.90
-39.36
-42.16
-45.45
-49.33
-53.64
-57.87
-61.19
-62.52
-60.76
-55.15
-45.48
-32.28
-16.77
-0.58
14.63
27.55
37.50
44.44
48.74
50.99
51.66
51.07
49.47
47.14
44.58
42.43
41.40
41.93
44.10
47.50
51.42
55.01
57.66
59.26
60.22
61.39
63.72
67.99
74.63
83.78
95.35
109.05
124.17
139.42
152.90
162.51
166.38
163.36
152.98
135.11
109.67
76.93
38.25
-3.10
-42.22
-73.87
-94.35
-103.14
-103.12
-99.31
-96.83
-99.13
-107.20
-120.06
-135.70
-152.10
-167.66
-181.49
-193.23
-203.16
-211.85
-219.45
-225.46
-228.64
-227.51
-221.08
-209.55
-194.26
-177.20
-160.14
-143.30
-125.90
-106.68
-84.33
-57.63
-25.58
12.96
58.36
109.69
165.30
221.59
273.47
315.86
345.43
361.30
365.54
361.18
350.86
337.82
323.73
308.73
292.20
274.05
254.74
236.38
220.90
209.48
204.63
207.33
216.16
227.65
237.84
243.17
243.18
238.99
219.01
179.85
127.24
73.23
28.35
1.22
-13.68
-21.66
-26.13
-29.28
-30.76
-30.36
-29.54
-31.14
-37.81
-51.46
-71.05
-94.79
-120.94
-146.64
-170.31
-192.30
-214.42
-238.87
-267.90
-302.00
-340.65
-381.95
-420.88
-451.09
-466.70
-464.27
-444.01
-410.04
-368.36
-325.41
-286.24
-252.83
-225.01
-201.81
-182.45
-166.65
-154.40
-145.14
-138.09
-132.45
-127.61
-123.42
-120.05
-117.67
-115.87
-113.52
-108.72
-99.50
-84.42
-63.16
-36.85
-7.87
20.77
46.19
66.46
80.92
90.11
95.36
98.16
99.72
100.84
101.89
103.09
104.59
106.50
108.76
111.12
113.14
114.26
114.05
112.33
109.20
105.01
100.24
95.42
91.06
87.56
85.13
83.67
82.79
81.94
80.79
79.56
79.03
80.43
84.94
93.08
104.54
118.17
132.44
145.88
157.55
167.27
175.67
183.92
193.42
205.23
219.53
235.32
250.56
262.77
270.01
271.66
268.66
263.02
256.84
251.30
246.28
240.61
232.96
222.64
209.53
194.16
177.24
158.84
138.17
113.23
82.21
44.36
0.22
-48.76
-99.80
-148.64
-189.85
-217.72
-228.60
-222.08
-201.53
-173.27
-145.21
-122.55
-105.57
-90.14
-70.35
-43.67
-11.78
20.29
46.50
59.80
57.93
44.37
26.02
10.58
-0.75
-10.28
-20.94
-34.68
-57.23
-90.26
-129.95
-169.17
-199.09
-221.13
-240.04
-259.84
-283.07
-319.12
-371.94
-436.80
-502.53
-553.59
-589.62
-615.82
-638.11
-662.95
-707.66
-783.03
-886.75
-1004.04
-1109.16
-1191.90
-1248.10
-1276.73
-1200.39
-987.37
-669.40
-324.37
-66.68
110.58
231.44
314.22
379.98
434.69
468.53
475.98
462.39
442.17
436.52
447.74
471.40
502.07
533.50
551.59
546.84
518.95
475.96
433.63
395.68
362.22
333.06
306.97
277.27
239.91
196.44
153.55
122.15
104.37
98.52
101.59
109.76
116.94
118.93
114.94
107.16
100.59
96.16
92.92
89.43
85.04
78.73
70.13
59.92
49.05
40.18
34.14
30.43
28.19
28.63
33.01
41.45
52.64
63.29
72.72
81.09
88.53
95.34
104.58
117.85
133.90
149.22
158.71
163.55
168.08
177.12
194.98
227.87
278.06
342.06
411.46
473.82
523.50
558.65
579.49
560.46
489.44
374.91
242.98
138.07
61.26
5.60
-34.93
-69.23
-101.32
-130.34
-156.53
-183.22
-216.41
-264.35
-327.07
-399.66
-474.29
-541.03
-587.97
-607.73
-600.74
-575.00
-544.01
-515.98
-494.16
-477.69
-462.75
-443.53
-416.49
-381.70
-341.81
-300.64
-257.60
-210.02
-155.61
-94.14
-27.74
38.39
97.82
145.35
178.69
200.39
214.77
224.69
229.88
227.58
214.52
189.61
155.38
117.42
82.85
57.32
43.10
38.95
41.12
44.94
46.14
41.75
30.44
12.53
-10.21
-35.05
-58.89
-78.75
-92.13
-97.26
-93.35
-80.95
-62.00
-39.52
-16.82
3.49
20.23
33.49
44.03
52.27
57.95
60.38
59.19
55.06
49.56
44.51
40.99
38.90
37.14
34.50
30.48
25.57
20.95
17.71
16.19
15.79
15.27
13.36
9.16
2.43
-6.61
-17.32
-28.89
-40.19
-49.81
-55.99
-56.93
-51.29
-38.72
-20.24
1.91
24.88
45.94
63.15
75.53
82.91
85.61
84.26
79.68
72.95
65.31
57.91
51.49
46.21
41.73
37.50
33.24
29.09
25.48
22.79
20.99
19.49
17.35
13.71
8.11
0.71
-7.94
-17.22
-26.59
-35.52
-43.18
-48.13
-48.48
-42.50
-29.38
-9.99
13.20
36.74
57.27
72.42
81.29
84.11
81.91
75.93
67.49
57.94
48.78
41.42
36.86
35.39
36.41
38.71
40.99
42.51
43.38
44.56
47.50
53.48
63.17
76.26
91.55
107.13
120.93
131.28
137.50
140.33
142.03
145.93
155.51
173.18
199.36
232.13
267.84
302.26
331.87
354.67
370.28
379.30
382.51
380.17
371.89
357.01
335.09
306.34
271.58
231.89
187.99
139.89
86.88
27.96
-37.68
-110.32
-189.46
-273.73
-360.51
-445.49
-522.52
-584.46
-624.90
-640.30
-631.29
-602.51
-560.73
-512.36
-461.52
-409.59
-356.31
-301.62
-246.78
-194.58
-148.20
-109.76
-79.60
-56.41
-38.28
-23.74
-12.50
-5.15
-2.45
-4.33
-9.49
-15.56
-19.99
-21.00
-18.04
-11.80
-3.53
5.58
14.79
23.82
32.49
40.44
46.97
51.14
51.99
48.92
41.97
32.04
20.85
10.73
4.10
2.78
7.54
17.81
31.91
47.56
62.56
75.22
84.62
90.45
92.73
91.61
87.27
80.06
70.65
60.09
49.61
40.35
32.90
27.20
22.57
18.06
12.94
6.96
0.47
-5.85
-11.42
-16.13
-20.52
-25.57
-32.33
-41.35
-52.31
-63.84
-73.76
-79.70
-79.73
-73.02
-60.08
-42.57
-22.83
-3.09
15.00
30.61
43.59
54.01
61.88
66.99
69.04
67.94
64.12
58.51
52.24
46.26
40.98
36.29
31.72
26.88
21.69
16.44
11.61
7.43
3.75
-0.02
-4.67
-10.92
-19.15
-29.24
-40.61
-52.26
-62.91
-71.06
-75.14
-73.76
-65.96
-51.74
-32.25
-9.80
12.56
31.85
45.91
53.97
56.53
54.95
50.70
44.93
38.36
31.48
24.99
19.80
16.97
17.29
20.93
27.42
35.82
45.25
55.14
65.39
76.06
86.99
97.40
105.82
110.32
109.21
101.60
87.84
69.66
49.77
31.28
16.96
8.61
6.75
10.62
18.54
28.55
38.99
48.85
57.77
65.74
72.66
78.16
81.55
82.12
79.42
73.47
64.76
54.02
42.06
29.60
17.29
5.68
-4.69
-13.40
-20.21
-25.17
-28.50
-30.60
-31.90
-32.79
-33.67
-34.96
-37.14
-40.60
-45.51
-51.55
-57.86
-63.12
-65.86
-64.94
-59.87
-51.00
-39.38
-26.41
-13.40
-1.31
9.30
18.14
25.02
29.68
31.88
31.58
29.06
24.97
20.21
15.64
11.88
9.16
7.35
6.06
4.89
3.55
1.92
0.03
-2.05
-4.28
-6.73
-9.52
-12.85
-16.95
-22.07
-28.38
-35.96
-44.58
-53.56
-61.73
-67.55
-69.46
-66.34
-57.93
-44.98
-29.07
-12.07
4.42
19.43
32.73
44.50
54.96
64.08
71.52
76.87
79.95
81.01
80.62
79.51
78.16
76.73
75.06
72.93
70.30
67.40
64.60
62.17
60.06
57.87
54.88
50.33
43.59
34.29
22.29
7.72
-9.02
-27.08
-45.15
-61.41
-73.89
-80.94
-81.71
-76.53
-66.84
-54.77
-42.42
-31.32
-22.09
-14.65
-8.59
-3.69
-0.13
1.67
1.39
-0.84
-4.43
-8.52
-12.37
-15.64
-18.37
-20.89
-23.42
-26.00
-28.39
-30.29
-31.49
-32.09
-32.50
-33.31
-35.16
-38.53
-43.63
-50.30
-58.09
-66.31
-74.06
-80.27
-83.74
-83.34
-78.27
-68.39
-54.45
-37.96
-20.86
-4.96
8.51
19.14
27.16
33.14
37.59
40.67
42.30
42.28
40.56
37.40
33.36
29.09
25.15
21.82
19.05
16.53
13.92
11.00
7.74
4.27
0.80
-2.63
-6.11
-9.91
-14.25
-19.22
-24.79
-30.81
-37.18
-43.86
-50.70
-57.21
-62.43
-65.04
-63.78
-57.93
-47.69
-34.22
-19.24
-4.51
8.63
19.52
28.06
34.45
38.91
41.62
42.61
42.06
40.20
37.43
34.21
30.91
27.82
25.06
22.66
20.61
18.84
17.24
15.63
13.76
11.38
8.30
4.44
-0.08
-5.05
-10.09
-14.89
-19.19
-22.99
-26.60
-30.61
-35.64
-42.03
-49.51
-57.06
-63.05
-65.72
-63.79
-56.92
-45.82
-32.03
-17.41
-3.63
8.24
17.70
24.69
29.34
31.77
32.09
30.54
27.55
23.76
19.84
16.27
13.26
10.74
8.52
6.50
4.72
3.27
2.17
1.26
0.25
-1.16
-3.12
-5.54
-8.21
-10.91
-13.60
-16.52
-20.09
-24.71
-30.57
-37.35
-44.21
-49.86
-52.88
-52.09
-46.98
-37.89
-25.89
-12.50
0.83
12.99
23.31
31.47
37.34
40.83
41.98
40.97
38.24
34.38
29.99
25.51
21.18
17.11
13.33
9.97
7.17
4.98
3.28
1.70
-0.28
-3.13
-7.09
-12.05
-17.49
-22.77
-27.38
-31.14
-34.39
-37.84
-42.28
-48.28
-55.84
-64.22
-72.04
-77.57
-79.20
-75.98
-68.02
-56.47
-43.35
-30.81
-20.51
-13.22
-8.77
-6.35
-5.17
-4.79
-5.26
-7.00
-10.39
-15.57
-22.22
-29.61
-36.60
-41.71
-43.23
-39.65
-30.33
-15.98
1.10
17.72
30.96
39.54
44.38
48.24
54.39
65.10
80.61
99.14
117.66
133.03
142.88
145.96
142.09
131.87
116.56
98.06
78.77
61.29
47.84
39.71
36.78
37.56
39.53
39.86
36.27
27.57
13.92
-3.45
-22.73
-42.10
-60.09
-75.71
-88.35
-97.57
-103.00
-104.36
-101.57
-94.95
-85.25
-73.59
-61.26
-49.51
-39.25
-31.08
-25.21
-21.63
-20.17
-20.59
-22.59
-25.92
-30.34
-35.72
-42.03
-49.09
-56.42
-62.99
-67.35
-67.96
-63.80
-54.86
-42.28
-27.99
-14.10
-2.17
7.19
14.10
19.06
22.43
24.17
24.01
21.71
17.52
12.06
6.27
0.94
-3.55
-7.30
-10.77
-14.42
-18.58
-23.30
-28.50
-34.06
-39.97
-46.31
-53.24
-60.95
-69.57
-79.18
-89.66
-100.73
-111.91
-122.63
-132.23
-139.96
-144.92
-146.02
-142.06
-132.04
-115.58
-93.26
-66.72
-38.29
-10.35
15.26
37.65
56.82
73.25
87.47
99.70
109.86
117.80
123.58
127.60
130.56
133.19
135.95
138.79
141.15
142.14
140.91
136.82
129.75
120.05
108.41
95.60
82.26
68.82
55.45
42.20
28.99
15.64
1.89
-12.52
-27.60
-42.76
-56.69
-67.51
-73.25
-72.60
-65.45
-53.05
-37.59
-21.55
-6.86
5.40
15.06
22.46
27.95
31.62
33.31
32.84
30.24
25.92
20.53
14.73
8.92
3.27
-2.30
-7.73
-12.75
-16.70
-18.78
-18.31
-15.00
-9.12
-1.43
7.04
15.23
22.27
27.56
30.88
32.37
32.61
32.52
33.20
35.57
40.03
46.20
53.00
59.05
63.17
64.74
63.85
61.01
56.82
51.71
45.85
39.34
32.49
25.82
20.07
15.81
13.23
11.96
11.17
9.88
7.26
3.00
-2.68
-9.06
-15.27
-20.56
-24.65
-27.79
-30.65
-33.99
-38.17
-42.86
-46.94
-48.79
-46.80
-39.97
-28.31
-12.79
4.91
22.92
39.67
54.06
65.45
73.61
78.44
80.04
78.65
74.77
69.04
62.15
54.61
46.58
37.86
28.16
17.19
5.05
-7.77
-20.49
-32.26
-42.52
-51.22
-58.86
-66.28
-74.43
-83.97
-95.03
-107.10
-119.09
-129.45
-136.46
-138.47
-134.21
-123.04
-105.08
-81.35
-53.50
-23.59
6.33
34.51
59.66
80.92
97.71
109.72
116.85
119.30
117.76
113.18
106.71
99.27
91.35
83.03
74.13
64.50
54.31
44.07
34.41
25.85
18.47
11.76
4.71
-3.93
-15.27
-29.80
-47.13
-65.94
-84.17
-99.50
-109.88
-114.01
-111.57
-103.33
-90.87
-76.24
-61.41
-47.80
-36.12
-26.38
-18.17
-11.08
-4.90
0.33
4.55
7.84
10.49
12.87
15.28
17.81
20.37
22.84
25.23
27.61
30.02
32.36
34.30
35.45
35.50
34.36
32.14
29.02
25.03
20.04
13.97
7.11
0.40
-4.67
-6.55
-4.23
2.23
11.60
21.98
31.56
39.22
44.68
48.21
50.13
50.47
48.97
45.46
40.27
34.32
28.85
24.88
22.70
21.80
21.12
19.72
17.15
13.73
10.13
6.90
3.98
0.60
-4.30
-11.48
-20.83
-31.13
-40.44
-46.68
-48.37
-44.97
-37.11
-26.13
-13.71
-1.43
9.49
18.30
24.79
29.18
32.01
33.83
34.97
35.27
34.17
30.89
24.84
15.96
4.84
-7.38
-19.35
-29.83
-38.04
-43.66
-46.83
-48.05
-47.93
-47.09
-46.04
-45.16
-44.77
-45.19
-46.72
-49.37
-52.72
-55.68
-56.64
-53.87
-46.16
-33.33
-16.35
2.89
22.26
39.98
55.11
67.41
77.05
84.17
88.78
90.82
90.46
88.20
84.74
80.55
75.57
69.16
60.40
48.71
34.14
17.53
0.16
-16.68
-32.01
-45.18
-55.85
-63.83
-69.28
-72.76
-75.32
-78.24
-82.55
-88.57
-95.69
-102.64
-108.03
-110.92
-111.14
-109.20
-105.92
-101.97
-97.57
-92.55
-86.45
-78.83
-69.49
-58.53
-46.43
-33.81
-21.34
-9.56
1.28
11.20
20.49
29.59
39.01
49.10
59.98
71.41
82.85
93.60
103.03
110.77
116.71
120.82
122.89
122.50
118.95
111.63
100.34
85.42
67.88
49.24
31.37
16.18
5.36
-0.08
-0.07
4.44
11.69
19.66
26.68
31.76
34.64
35.49
34.51
31.84
27.63
22.23
16.40
11.12
7.25
5.23
5.06
6.41
8.88
11.96
14.87
16.39
15.12
9.96
0.87
-10.90
-23.16
-33.72
-41.42
-46.64
-50.92
-56.08
-63.26
-72.36
-82.20
-91.07
-97.39
-100.10
-98.70
-93.16
-83.84
-71.37
-56.66
-40.87
-25.27
-11.05
0.86
9.96
16.26
20.17
22.31
23.33
23.61
23.28
22.22
20.29
17.53
14.27
11.04
8.38
6.57
5.44
4.45
2.89
0.21
-3.72
-8.60
-13.86
-18.99
-23.76
-28.30
-33.07
-38.57
-45.21
-53.08
-61.90
-70.91
-78.98
-84.69
-86.58
-83.61
-75.51
-62.98
-47.62
-31.49
-16.54
-4.08
5.47
12.46
17.64
21.72
25.08
27.73
29.47
30.22
30.09
29.48
28.82
28.41
28.26
28.06
27.38
25.88
23.46
20.30
16.74
13.10
9.58
6.19
2.76
-0.91
-5.03
-9.73
-15.11
-21.21
-27.95
-35.07
-42.00
-47.84
-51.44
-51.74
-48.10
-40.68
-30.51
-19.23
-8.63
-0.09
5.79
9.10
10.29
9.73
7.45
3.17
-3.35
-11.92
-21.62
-30.98
-38.27
-42.01
-41.45
-36.79
-29.17
-20.42
-12.54
-7.21
-5.34
-6.90
-11.03
-16.55
-22.40
-28.02
-33.31
-38.50
-43.78
-49.01
-53.68
-56.90
-57.62
-54.75
-47.40
-35.13
-18.11
2.71
25.74
49.00
70.62
89.24
104.22
115.48
123.24
127.88
129.70
129.09
126.59
122.86
118.44
113.66
108.65
103.61
98.82
94.38
89.80
83.86
75.02
62.16
45.43
26.38
7.29
-9.90
-24.55
-37.41
-49.82
-62.58
-75.12
-85.63
-91.82
-91.99
-85.77
-74.12
-58.80
-41.72
-24.50
-7.97
7.54
21.98
35.18
46.73
56.02
62.61
66.50
68.12
68.30
67.77
66.99
66.03
64.67
62.67
59.89
56.40
52.34
47.92
43.25
38.38
33.33
28.09
22.68
17.11
11.43
5.66
-0.13
-5.91
-11.62
-17.11
-22.13
-26.32
-29.32
-30.91
-31.19
-30.63
-29.96
-29.99
-31.16
-33.43
-36.23
-38.70
-40.10
-40.10
-38.82
-36.80
-34.66
-32.92
-31.86
-31.54
-31.89
-32.78
-34.04
-35.46
-36.81
-37.85
-38.40
-38.46
-38.21
-37.92
-37.88
-38.30
-39.22
-40.61
-42.41
-44.65
-47.48
-51.07
-55.40
-60.09
-64.35
-67.07
-67.23
-64.23
-58.19
-49.84
-40.34
-30.86
-22.27
-15.07
-9.40
-5.25
-2.53
-1.18
-1.10
-2.16
-4.11
-6.68
-9.52
-12.33
-14.75
-16.47
-17.24
-17.00
-15.88
-14.28
-12.77
-11.96
-12.28
-13.83
-16.35
-19.33
-22.14
-24.27
-25.46
-25.74
-25.37
-24.76
-24.22
-23.81
-23.16
-21.47
-17.69
-10.76
-0.06
14.33
31.58
50.28
68.80
85.69
99.94
111.00
118.76
123.38
125.20
124.58
121.98
117.81
112.42
106.13
99.22
91.95
84.59
77.35
70.30
63.36
56.29
48.86
40.94
32.58
23.99
15.44
7.11
-1.06
-9.30
-18.04
-27.68
-38.45
-50.21
-62.39
-73.97
-83.63
-90.01
-92.06
-89.27
-81.83
-70.61
-56.92
-42.20
-27.66
-14.08
-1.77
9.24
19.07
27.75
35.28
41.61
46.83
51.18
55.00
58.66
62.45
66.62
71.31
76.62
82.44
88.39
93.67
97.23
97.98
95.20
88.67
78.66
65.73
50.43
33.21
14.37
-5.82
-27.08
-49.05
-71.20
-92.76
-112.53
-128.97
-140.38
-145.44
-143.73
-135.96
-123.81
-109.45
-94.79
-81.07
-68.77
-57.79
-47.93
-39.10
-31.51
-25.49
-21.29
-18.88
-17.79
-17.30
-16.63
-15.24
-13.01
-10.22
-7.37
-4.91
-3.01
-1.54
-0.10
1.86
5.00
10.04
17.63
28.00
40.69
54.36
66.99
76.54
81.50
81.34
76.42
67.59
55.81
41.96
27.05
12.32
-0.64
-10.37
-16.02
-17.82
-16.97
-15.11
-13.63
-13.12
-13.36
-13.63
-13.29
-12.15
-10.48
-8.85
-7.79
-7.60
-8.25
-9.52
-11.08
-12.65
-13.99
-14.87
-15.12
-14.62
-13.36
-11.54
-9.57
-7.92
-7.06
-7.24
-8.35
-9.96
-11.48
-12.46
-12.75
-12.66
-12.79
-13.86
-16.39
-20.49
-25.82
-31.54
-36.43
-39.14
-38.45
-33.68
-24.85
-12.79
1.07
15.09
27.84
38.39
46.45
52.19
56.02
58.32
59.25
58.85
57.01
53.85
49.76
45.46
41.89
39.86
39.79
41.43
43.97
46.19
46.92
45.42
41.52
35.60
28.33
20.33
11.94
3.15
-6.23
-16.41
-27.41
-39.03
-50.79
-62.02
-71.82
-79.14
-82.85
-82.06
-76.40
-66.29
-52.96
-38.12
-23.50
-10.37
0.69
9.79
17.35
23.74
29.02
32.95
35.24
35.83
35.04
33.48
31.87
30.68
29.98
29.55
28.99
28.09
26.96
26.02
25.85
26.83
28.96
31.82
34.66
36.63
37.06
35.60
32.21
27.10
20.50
12.60
3.46
-6.92
-18.42
-30.59
-42.65
-53.43
-61.59
-65.93
-65.72
-60.94
-52.32
-41.22
-29.23
-17.86
-8.24
-0.91
4.15
7.38
9.47
11.07
12.64
14.44
16.50
18.74
20.97
22.99
24.54
25.32
25.05
23.60
21.06
17.76
14.13
10.58
7.30
4.25
1.17
-2.31
-6.47
-11.39
-16.89
-22.58
-27.88
-32.30
-35.51
-37.52
-38.70
-39.64
-41.02
-43.41
-47.08
-51.98
-57.64
-63.24
-67.71
-70.04
-69.48
-65.81
-59.40
-51.03
-41.63
-32.03
-22.75
-14.00
-5.80
1.87
8.95
15.27
20.59
24.66
27.33
28.52
28.31
26.79
24.18
20.76
16.86
12.96
9.50
6.90
5.39
5.04
5.83
7.72
10.75
14.92
19.99
25.18
29.11
30.04
26.45
17.73
4.50
-11.40
-27.42
-41.00
-50.27
-54.35
-53.44
-48.54
-41.11
-32.66
-24.57
-17.92
-13.44
-11.43
-11.75
-13.90
-17.05
-20.38
-23.22
-25.24
-26.46
-27.13
-27.46
-27.50
-27.04
-25.82
-23.72
-20.96
-18.11
-15.94
-15.08
-15.82
-17.93
-20.73
-23.44
-25.50
-26.92
-28.27
-30.58
-34.90
-41.91
-51.60
-63.08
-74.74
-84.40
-89.88
-89.45
-82.39
-69.23
-51.67
-32.09
-12.85
4.27
18.31
29.04
36.68
41.56
43.98
44.28
42.81
39.99
36.19
31.72
26.82
21.77
17.02
13.13
10.70
10.11
11.43
14.42
18.49
22.81
26.37
28.10
27.12
23.10
16.44
8.28
0.15
-6.64
-11.45
-14.62
-17.15
-20.29
-24.89
-31.07
-38.10
-44.62
-49.01
-49.79
-46.03
-37.55
-24.98
-9.44
7.70
25.17
41.97
57.33
70.65
81.37
89.07
93.49
94.66
92.85
88.52
82.17
74.32
65.55
56.47
47.80
40.24
34.37
30.48
28.47
27.89
28.00
28.02
27.37
25.83
23.67
21.45
19.83
19.24
19.75
21.02
22.47
23.42
23.27
21.74
19.07
16.20
14.75
16.47
22.60
33.23
47.08
61.89
75.25
85.28
91.04
92.32
89.19
81.75
70.03
54.47
36.05
16.40
-2.58
-19.23
-32.50
-42.03
-48.04
-51.12
-52.06
-51.72
-50.89
-50.22
-50.08
-50.61
-51.67
-53.01
-54.45
-55.96
-57.73
-60.14
-63.66
-68.59
-74.92
-82.15
-89.17
-94.49
-96.46
-93.78
-85.87
-73.12
-56.84
-38.91
-21.29
-5.48
7.62
17.72
24.84
29.08
30.41
28.76
24.16
16.88
7.58
-2.80
-13.16
-22.46
-29.94
-35.26
-38.56
-40.36
-41.47
-42.64
-44.48
-47.22
-50.85
-55.16
-59.89
-64.87
-69.98
-75.31
-81.00
-87.28
-94.34
-102.04
-109.75
-116.18
-119.60
-118.15
-110.43
-95.90
-75.22
-49.99
-22.43
5.22
31.12
54.09
73.58
89.39
101.47
109.68
113.87
114.10
110.82
104.95
97.74
90.40
83.80
78.29
73.72
69.68
65.66
61.10
55.44
48.20
39.15
28.56
17.33
6.80
-1.59
-6.81
-8.64
-7.81
-5.84
-4.51
-5.37
-9.17
-15.59
-23.28
-30.14
-33.97
-33.10
-26.86
-15.73
-1.11
15.23
31.60
46.71
59.80
70.45
78.48
83.76
86.23
86.00
83.41
79.07
73.72
68.08
62.64
57.60
52.93
48.49
44.25
40.29
36.81
33.86
31.33
28.78
25.67
21.46
15.94
9.22
1.81
-5.63
-12.52
-18.54
-23.75
-28.62
-33.84
-40.18
-48.24
-58.19
-69.67
-81.64
-92.57
-100.64
-104.11
-101.77
-93.12
-78.55
-59.10
-36.35
-12.05
12.05
34.44
53.97
69.84
81.70
89.56
93.68
94.54
92.67
88.67
83.13
76.67
69.89
63.34
57.41
52.32
48.08
44.59
41.70
39.28
37.16
35.10
32.74
29.64
25.34
19.62
12.59
4.72
-3.09
-9.82
-14.51
-16.60
-16.09
-13.58
-10.20
-7.28
-6.04
-7.43
-12.03
-20.03
-31.10
-44.27
-57.69
-68.91
-75.39
-75.38
-68.56
-56.21
-40.66
-24.40
-9.20
4.24
16.03
26.61
36.25
44.91
52.44
58.82
64.27
69.05
73.28
76.81
79.24
80.15
79.21
76.35
71.77
65.90
59.31
52.64
46.43
41.02
36.40
32.34
28.48
24.49
20.20
15.61
10.79
5.92
1.19
-3.09
-6.63
-9.27
-11.04
-12.27
-13.44
-15.00
-17.24
-20.25
-23.87
-27.62
-30.51
-31.07
-27.70
-19.32
-6.13
10.12
26.57
40.31
49.41
53.46
53.23
49.83
44.02
36.01
25.90
14.28
2.44
-7.97
-15.68
-20.34
-22.59
-23.54
-24.22
-25.06
-25.96
-26.54
-26.61
-26.36
-26.34
-27.22
-29.46
-33.10
-37.76
-42.87
-48.00
-53.14
-58.78
-65.70
-74.59
-85.64
-98.38
-111.64
-123.78
-132.99
-137.57
-136.23
-128.29
-113.89
-94.08
-70.59
-45.59
-21.07
1.48
21.30
38.20
52.30
63.72
72.59
79.13
83.80
87.33
90.52
93.91
97.52
100.86
103.20
103.96
103.01
100.77
98.06
95.73
94.34
93.99
94.26
94.39
93.52
90.97
86.39
79.84
71.65
62.19
51.71
40.23
27.63
13.89
-0.77
-15.76
-30.13
-42.77
-52.52
-58.48
-60.09
-57.27
-50.45
-40.46
-28.47
-15.69
-3.27
7.93
17.33
24.66
29.92
33.26
34.86
34.91
33.54
30.89
27.17
22.73
18.02
13.56
9.81
7.02
5.26
4.34
3.92
3.61
2.99
1.77
-0.33
-3.44
-7.61
-12.75
-18.65
-24.95
-31.18
-36.82
-41.42
-44.74
-46.78
-47.77
-47.93
-47.24
-45.33
-41.57
-35.42
-26.77
-16.22
-4.98
5.52
14.02
19.84
22.88
23.45
21.97
18.80
14.26
8.80
3.07
-2.03
-5.61
-7.05
-6.22
-3.52
0.21
4.02
7.12
9.12
10.04
10.06
9.38
8.02
5.85
2.81
-0.99
-5.16
-9.12
-12.42
-14.96
-17.04
-19.28
-22.31
-26.46
-31.71
-37.67
-43.77
-49.38
-53.84
-56.56
-57.02
-55.02
-50.71
-44.75
-38.08
-31.74
-26.47
-22.56
-19.73
-17.41
-14.90
-11.62
-7.28
-1.86
4.34
10.83
16.99
22.22
26.07
28.35
29.09
28.45
26.59
23.58
19.44
14.22
8.14
1.62
-4.81
-10.68
-15.73
-19.92
-23.44
-26.43
-28.89
-30.65
-31.44
-31.09
-29.58
-27.12
-24.01
-20.56
-16.88
-12.96
-8.72
-4.14
0.55
4.88
8.34
10.59
11.66
12.03
12.46
13.49
15.30
17.56
19.73
21.34
22.19
22.24
21.31
18.84
13.98
6.02
-5.23
-19.09
-34.14
-48.70
-61.38
-71.49
-79.01
-84.47
-88.55
-91.97
-95.22
-98.57
-101.87
-104.52
-105.53
-103.72
-98.12
-88.30
-74.63
-58.18
-40.46
-23.02
-7.13
6.25
16.51
23.20
26.05
25.04
20.57
13.63
5.67
-1.70
-7.08
-9.80
-10.09
-8.88
-7.37
-6.47
-6.51
-7.21
-8.06
-8.73
-9.32
-10.25
-12.00
-14.72
-18.11
-21.61
-24.72
-27.38
-29.95
-33.11
-37.47
-43.26
-50.23
-57.59
-64.17
-68.60
-69.57
-66.15
-58.10
-46.03
-31.27
-15.52
-0.37
13.12
24.54
34.01
41.77
47.90
52.27
54.67
55.05
53.67
51.09
48.00
44.91
42.07
39.37
36.56
33.46
30.03
26.46
22.99
19.71
16.35
12.36
7.06
-0.04
-8.85
-18.63
-28.11
-35.86
-40.80
-42.62
-41.82
-39.66
-37.65
-37.16
-39.06
-43.51
-50.01
-57.45
-64.45
-69.56
-71.58
-69.81
-64.22
-55.41
-44.48
-32.78
-21.53
-11.66
-3.59
2.63
7.22
10.48
12.64
13.86
14.20
13.78
12.85
11.82
11.17
11.36
12.72
15.46
19.67
25.25
31.98
39.43
47.03
54.15
60.21
64.85
67.93
69.37
69.08
66.92
62.72
56.44
48.35
38.96
29.05
19.44
10.98
4.47
0.68
0.16
3.05
8.93
16.78
25.27
33.17
39.74
44.84
48.75
51.89
54.44
56.30
57.19
56.85
55.26
52.63
49.37
45.88
42.43
39.13
35.91
32.62
29.16
25.45
21.50
17.32
12.86
7.94
2.33
-4.14
-11.44
-19.36
-27.57
-35.81
-43.99
-52.26
-60.83
-69.77
-78.82
-87.34
-94.36
-98.79
-99.76
-96.80
-90.07
-80.14
-67.84
-53.91
-38.85
-22.91
-6.30
10.66
27.40
43.27
57.81
70.87
82.64
93.46
103.58
113.03
121.66
129.31
135.91
141.41
145.66
148.21
148.37
145.41
138.94
129.14
116.77
102.98
88.86
75.10
61.90
49.06
36.17
22.82
8.85
-5.67
-20.25
-34.01
-45.63
-53.60
-56.64
-54.14
-46.50
-35.09
-21.81
-8.48
3.64
13.94
22.22
28.33
31.87
32.44
29.91
24.64
17.44
9.16
0.35
-8.89
-18.63
-28.78
-38.81
-47.95
-55.69
-61.97
-67.25
-71.93
-76.06
-79.18
-80.73
-80.54
-79.14
-77.59
-76.91
-77.61
-79.61
-82.48
-86.04
-90.56
-96.50
-103.98
-112.21
-119.27
-122.61
-119.86
-109.55
-91.56
-66.84
-36.96
-3.54
31.84
67.61
101.82
132.09
156.07
171.94
179.21
178.85
172.91
163.81
153.54
143.30
133.68
124.94
117.35
111.23
106.74
103.69
101.49
99.26
96.16
91.62
85.42
77.67
68.67
58.78
48.30
37.59
26.95
16.66
6.83
-2.66
-12.14
-22.09
-32.96
-44.80
-57.04
-68.50
-77.60
-82.82
-83.28
-79.03
-71.06
-60.92
-50.25
-40.43
-32.39
-26.72
-23.73
-23.53
-26.00
-30.82
-37.56
-45.76
-55.02
-65.00
-75.29
-85.37
-94.59
-102.37
-108.24
-111.93
-113.27
-112.30
-109.45
-105.78
-103.13
-103.60
-108.78
-118.86
-132.21
-145.68
-155.54
-158.67
-153.31
-139.35
-118.02
-91.26
-61.23
-29.96
0.81
29.63
55.35
76.97
93.67
104.81
110.04
109.63
104.63
96.73
87.90
79.89
73.69
69.45
66.62
64.43
62.36
60.32
58.58
57.49
57.07
56.89
56.13
54.01
50.15
44.79
38.82
33.21
28.57
24.66
20.38
14.22
4.92
-7.86
-23.40
-40.10
-56.10
-69.77
-79.97
-86.03
-87.57
-84.43
-76.84
-65.62
-52.26
-38.76
-27.07
-18.54
-13.50
-11.36
-10.98
-11.15
-10.99
-9.96
-7.76
-4.19
0.95
7.63
15.54
24.01
32.22
39.46
45.43
50.34
54.73
59.17
64.05
69.36
74.72
79.46
82.69
83.58
81.55
76.57
69.35
61.24
53.89
48.74
46.49
47.00
49.40
52.65
55.88
58.81
61.67
64.75
68.04
70.89
72.15
70.61
65.51
56.99
45.92
33.67
21.58
10.64
1.36
-6.02
-11.47
-15.01
-16.84
-17.39
-17.32
-17.36
-18.09
-19.78
-22.38
-25.66
-29.43
-33.67
-38.62
-44.67
-52.13
-60.90
-70.30
-79.05
-85.55
-88.40
-86.80
-80.87
-71.51
-60.02
-47.65
-35.29
-23.45
-12.50
-2.86
4.88
10.11
12.48
12.17
9.84
6.51
3.07
0.09
-2.34
-4.46
-6.60
-8.88
-11.21
-13.31
-14.94
-16.05
-16.81
-17.55
-18.61
-20.26
-22.70
-26.00
-30.26
-35.41
-41.18
-47.00
-51.96
-54.98
-55.10
-51.74
-44.92
-35.28
-23.89
-12.03
-0.82
8.96
16.89
22.98
27.41
30.45
32.25
32.96
32.62
31.44
29.71
27.88
26.33
25.23
24.49
23.81
22.87
21.51
19.81
17.93
15.93
13.53
10.12
4.89
-2.80
-13.05
-25.46
-39.17
-53.19
-66.68
-78.96
-89.48
-97.64
-102.81
-104.46
-102.43
-97.15
-89.57
-80.93
-72.38
-64.72
-58.27
-53.04
-48.92
-45.86
-43.94
-43.28
-43.95
-45.86
-48.65
-51.78
-54.58
-56.45
-57.01
-56.19
-54.19
-51.39
-48.23
-45.06
-42.20
-39.95
-38.73
-38.97
-41.03
-44.99
-50.55
-56.97
-63.24
-68.24
-70.92
-70.46
-66.26
-58.00
-45.69
-29.65
-10.60
10.37
32.01
53.10
72.70
90.31
105.78
119.26
130.90
140.67
148.37
153.64
156.22
156.06
153.53
149.26
144.00
138.44
133.01
127.84
122.75
117.39
111.30
104.12
95.61
85.79
74.98
63.70
52.53
41.90
31.86
22.13
12.08
1.09
-11.25
-24.75
-38.57
-51.32
-61.36
-67.33
-68.50
-65.03
-57.90
-48.57
-38.46
-28.66
-19.76
-11.95
-5.28
0.11
3.95
5.94
5.85
3.78
0.09
-4.64
-9.76
-14.78
-19.36
-23.38
-26.79
-29.50
-31.35
-32.20
-32.09
-31.29
-30.26
-29.56
-29.57
-30.38
-31.81
-33.60
-35.57
-37.80
-40.59
-44.22
-48.63
-53.25
-56.96
-58.41
-56.41
-50.38
-40.56
-27.91
-13.85
0.27
13.40
24.97
34.78
42.76
48.84
52.83
54.58
54.09
51.63
47.76
43.21
38.62
34.47
30.94
27.95
25.23
22.43
19.22
15.34
10.65
5.18
-0.92
-7.40
-14.00
-20.49
-26.85
-33.20
-39.89
-47.36
-55.86
-65.27
-74.89
-83.49
-89.57
-91.78
-89.34
-82.28
-71.44
-58.11
-43.71
-29.43
-16.09
-4.11
6.30
15.12
22.37
28.10
32.40
35.36
37.06
37.62
37.11
35.69
33.58
31.10
28.65
26.58
25.03
23.89
22.75
21.17
18.82
15.72
12.19
8.69
5.53
2.66
-0.34
-4.10
-9.16
-15.75
-23.70
-32.41
-40.99
-48.32
-53.18
-54.49
-51.53
-44.18
-33.10
-19.56
-5.14
8.72
21.01
31.32
39.72
46.50
51.90
56.07
58.96
60.49
60.60
59.35
56.97
53.80
50.28
46.84
43.84
41.45
39.59
37.99
36.25
34.01
31.03
27.35
23.09
18.51
13.81
9.08
4.34
-0.52
-5.67
-11.35
-17.84
-25.30
-33.58
-42.00
-49.35
-54.05
-54.69
-50.49
-41.64
-29.33
-15.29
-1.25
11.55
22.57
31.84
39.61
46.03
50.99
54.28
55.72
55.44
53.81
51.33
48.47
45.53
42.65
39.84
37.23
34.94
33.12
31.79
30.72
29.50
27.65
24.78
20.77
15.84
10.43
5.04
0.05
-4.54
-9.03
-13.97
-19.84
-26.82
-34.53
-42.14
-48.40
-52.02
-52.04
-48.03
-40.26
-29.56
-17.13
-4.25
7.95
18.59
27.14
33.29
37.03
38.55
38.20
36.46
33.86
30.85
27.79
24.91
22.35
20.17
18.46
17.24
16.47
15.96
15.35
14.17
11.99
8.61
4.17
-0.98
-6.33
-11.56
-16.59
-21.68
-27.27
-33.78
-41.39
-49.73
-57.96
-64.79
-68.80
-68.86
-64.39
-55.59
-43.42
-29.30
-14.73
-0.96
11.16
21.23
29.18
35.16
39.41
42.21
43.82
44.43
44.16
43.08
41.23
38.73
35.81
32.74
29.82
27.26
25.09
23.13
21.03
18.42
14.99
10.67
5.65
0.26
-5.12
-10.25
-15.17
-20.13
-25.54
-31.80
-39.09
-47.29
-55.85
-63.76
-69.67
-72.22
-70.32
-63.56
-52.37
-37.98
-22.07
-6.38
7.79
19.71
29.25
36.66
42.37
46.71
49.84
51.78
52.44
51.80
49.93
47.08
43.60
39.89
36.29
33.01
30.20
27.85
25.92
24.23
22.54
20.52
17.83
14.24
9.74
4.50
-1.12
-6.72
-12.09
-17.31
-22.72
-28.86
-36.08
-44.29
-52.74
-60.05
-64.61
-65.00
-60.50
-51.33
-38.63
-24.04
-9.30
4.29
16.02
25.74
33.62
39.84
44.47
47.44
48.67
48.30
46.69
44.32
41.64
38.89
36.12
33.26
30.32
27.48
25.02
23.14
21.74
20.40
18.50
15.55
11.39
6.30
0.87
-4.30
-8.91
-13.10
-17.39
-22.44
-28.73
-36.35
-44.86
-53.30
-60.43
-64.95
-65.79
-62.38
-54.83
-43.87
-30.71
-16.73
-3.19
8.95
19.12
27.09
32.84
36.44
38.02
37.76
35.94
32.85
28.94
24.66
20.52
17.00
14.44
12.94
12.31
12.09
11.68
10.57
8.46
5.40
1.64
-2.52
-6.88
-11.41
-16.27
-21.66
-27.77
-34.71
-42.49
-50.85
-59.14
-66.27
-70.85
-71.46
-67.24
-58.23
-45.45
-30.68
-15.90
-2.76
7.83
15.65
21.06
24.65
27.01
28.57
29.52
29.83
29.41
28.15
26.17
23.76
21.40
19.58
18.54
18.21
18.13
17.64
16.15
13.29
9.06
3.76
-2.16
-8.31
-14.45
-20.64
-27.13
-34.26
-42.36
-51.52
-61.36
-71.00
-79.05
-83.90
-84.14
-79.00
-68.69
-54.33
-37.70
-20.65
-4.70
9.34
21.29
31.39
40.03
47.47
53.70
58.48
61.53
62.66
61.93
59.69
56.51
52.95
49.46
46.25
43.36
40.70
38.16
35.60
32.81
29.52
25.42
20.28
14.09
7.08
-0.33
-7.74
-14.98
-22.22
-29.90
-38.46
-47.96
-57.79
-66.58
-72.51
-73.82
-69.47
-59.54
-45.26
-28.57
-11.54
4.25
18.01
29.61
39.27
47.22
53.47
57.88
60.35
60.96
60.13
58.46
56.46
54.45
52.41
50.12
47.42
44.36
41.26
38.56
36.54
35.10
33.82
32.05
29.29
25.28
20.14
14.23
7.97
1.73
-4.29
-10.03
-15.64
-21.41
-27.75
-35.02
-43.37
-52.53
-61.67
-69.42
-74.16
-74.43
-69.35
-59.02
-44.53
-27.66
-10.36
5.76
19.81
31.57
41.18
48.81
54.40
57.75
58.71
57.48
54.67
51.15
47.73
44.88
42.66
40.77
38.90
36.93
35.00
33.46
32.53
32.12
31.73
30.60
28.03
23.66
17.71
10.76
3.65
-2.97
-8.81
-13.92
-18.61
-23.25
-28.19
-33.62
-39.70
-46.38
-53.35
-59.91
-64.92
-67.04
-65.04
-58.25
-46.87
-32.07
-15.60
0.59
14.88
26.29
34.51
39.74
42.35
42.77
41.36
38.52
34.78
30.80
27.21
24.41
22.46
21.10
19.92
18.58
16.98
15.22
13.43
11.62
9.59
6.97
3.40
-1.22
-6.70
-12.60
-18.45
-23.96
-29.14
-34.36
-40.14
-46.92
-54.86
-63.55
-71.96
-78.54
-81.58
-79.70
-72.33
-59.96
-43.97
-26.29
-8.80
7.12
20.72
31.77
40.33
46.48
50.30
51.93
51.69
50.05
47.60
44.83
42.03
39.26
36.47
33.62
30.80
28.20
26.06
24.42
23.11
21.69
19.66
16.61
12.38
7.14
1.27
-4.78
-10.65
-16.26
-21.75
-27.44
-33.65
-40.56
-48.08
-55.75
-62.75
-67.95
-70.10
-68.16
-61.56
-50.54
-36.09
-19.78
-3.36
11.74
24.69
35.26
43.70
50.34
55.39
58.78
60.30
59.78
57.30
53.28
48.32
43.09
38.05
33.41
29.12
25.04
21.13
17.50
14.36
11.88
9.96
8.22
6.02
2.81
-1.69
-7.23
-13.19
-18.83
-23.66
-27.64
-31.26
-35.32
-40.57
-47.43
-55.74
-64.75
-73.18
-79.53
-82.32
-80.49
-73.65
-62.27
-47.52
-30.98
-14.26
1.35
14.99
26.23
34.94
41.13
44.91
46.51
46.31
44.80
42.50
39.86
37.16
34.56
32.11
29.87
27.94
26.39
25.28
24.57
24.07
23.49
22.53
20.88
18.42
15.11
11.09
6.56
1.75
-3.11
-7.91
-12.65
-17.51
-22.84
-29.01
-36.21
-44.14
-51.96
-58.27
-61.50
-60.39
-54.41
-44.02
-30.56
-15.82
-1.55
11.00
21.19
28.85
34.01
36.66
36.81
34.63
30.65
25.76
20.95
17.06
14.39
12.79
11.78
10.93
9.97
8.86
7.62
6.18
4.35
1.90
-1.35
-5.39
-10.05
-15.05
-20.12
-25.13
-30.22
-35.75
-42.24
-50.07
-59.17
-68.77
-77.43
-83.29
-84.66
-80.54
-70.98
-57.06
-40.51
-23.22
-6.80
7.72
19.88
29.54
36.79
41.72
44.49
45.34
44.68
42.98
40.73
38.22
35.60
32.83
29.89
26.87
24.00
21.63
19.92
18.73
17.60
15.89
13.02
8.72
3.14
-3.26
-9.89
-16.31
-22.33
-28.11
-34.04
-40.62
-48.24
-56.91
-66.14
-74.77
-81.22
-83.79
-81.17
-72.95
-59.77
-43.21
-25.25
-7.78
7.94
21.41
32.68
42.06
49.78
55.85
60.11
62.45
62.94
61.95
60.00
57.59
55.12
52.74
50.44
48.10
45.66
43.19
40.82
38.70
36.81
34.91
32.57
29.31
24.79
18.97
12.14
4.84
-2.32
-8.92
-14.82
-20.22
-25.57
-31.41
-38.15
-45.93
-54.53
-63.29
-71.24
-77.19
-79.90
-78.37
-72.13
-61.42
-47.20
-30.96
-14.33
1.30
15.06
26.59
35.88
43.03
48.10
51.11
52.11
51.36
49.27
46.39
43.32
40.47
38.07
36.13
34.49
32.96
31.40
29.83
28.31
26.87
25.42
23.71
21.36
18.05
13.68
8.43
2.73
-2.92
-8.11
-12.71
-16.83
-20.79
-25.01
-29.89
-35.74
-42.60
-50.15
-57.60
-63.73
-67.10
-66.44
-61.03
-51.02
-37.44
-21.88
-6.12
8.36
20.61
30.30
37.51
42.48
45.46
46.62
46.16
44.37
41.73
38.80
36.15
34.16
32.99
32.52
32.46
32.43
32.04
31.00
29.22
26.71
23.67
20.32
16.80
13.10
9.10
4.59
-0.54
-6.23
-12.30
-18.38
-24.17
-29.49
-34.35
-38.97
-43.71
-48.99
-55.17
-62.42
-70.62
-79.16
-86.96
-92.53
-94.30
-91.08
-82.50
-69.18
-52.70
-35.05
-18.13
-3.23
9.15
19.15
27.27
33.97
39.48
43.74
46.57
47.88
47.80
46.66
44.99
43.31
42.05
41.40
41.32
41.60
42.01
42.29
42.26
41.72
40.46
38.30
35.19
31.23
26.72
22.01
17.40
12.96
8.54
3.91
-1.13
-6.58
-12.23
-17.81
-23.05
-27.89
-32.48
-37.28
-42.84
-49.66
-57.90
-67.12
-76.20
-83.43
-86.94
-85.26
-77.85
-65.26
-49.08
-31.39
-14.17
1.26
14.30
25.06
33.87
41.09
46.86
51.14
53.86
55.07
54.97
53.87
52.09
49.98
47.86
46.04
44.81
44.38
44.76
45.77
47.04
48.08
48.41
47.53
45.13
41.12
35.73
29.48
23.07
17.17
12.19
8.11
4.58
1.04
-2.95
-7.55
-12.62
-17.76
-22.58
-26.88
-30.72
-34.46
-38.61
-43.74
-50.24
-58.15
-66.95
-75.47
-82.07
-84.97
-82.75
-74.95
-62.21
-46.21
-29.10
-12.85
1.27
12.85
22.16
29.61
35.48
39.76
42.31
43.12
42.50
41.06
39.47
38.25
37.61
37.46
37.55
37.62
37.55
37.41
37.34
37.42
37.61
37.63
37.08
35.60
33.03
29.54
25.49
21.34
17.38
13.69
10.15
6.52
2.62
-1.64
-6.21
-10.96
-15.75
-20.40
-24.79
-28.89
-32.85
-36.93
-41.52
-46.94
-53.30
-60.29
-67.11
-72.60
-75.41
-74.40
-69.03
-59.56
-47.02
-32.89
-18.73
-5.76
5.32
14.25
21.08
25.90
28.80
29.91
29.41
27.67
25.19
22.49
20.03
18.09
16.74
15.88
15.34
14.98
14.72
14.58
14.54
14.49
14.19
13.35
11.70
9.15
5.76
1.82
-2.36
-6.44
-10.21
-13.55
-16.49
-19.24
-22.09
-25.45
-29.68
-34.98
-41.20
-47.72
-53.46
-57.04
-57.21
-53.17
-44.93
-33.38
-20.02
-6.53
5.65
15.58
22.89
27.57
29.75
29.63
27.49
23.78
19.18
14.49
10.44
7.49
5.72
4.90
4.65
4.60
4.53
4.39
4.19
3.91
3.40
2.35
0.40
-2.70
-6.97
-12.19
-17.89
-23.56
-28.81
-33.51
-37.84
-42.13
-46.85
-52.40
-58.96
-66.34
-73.84
-80.21
-83.87
-83.29
-77.53
-66.64
-51.73
-34.67
-17.55
-2.10
10.69
20.62
27.99
33.31
37.03
39.40
40.51
40.48
39.49
37.84
35.88
33.87
31.90
29.92
27.77
25.38
22.88
20.56
18.76
17.63
17.00
16.37
15.05
12.49
8.45
3.15
-2.88
-9.03
-14.85
-20.17
-25.14
-30.09
-35.39
-41.37
-48.20
-55.87
-64.02
-71.85
-78.13
-81.42
-80.45
-74.58
-64.07
-50.12
-34.48
-18.93
-4.85
7.08
16.76
24.45
30.45
34.91
37.85
39.29
39.34
38.26
36.44
34.26
32.03
29.91
27.94
26.10
24.42
22.99
21.95
21.43
21.39
21.53
21.34
20.17
17.60
13.52
8.28
2.50
-3.11
-8.16
-12.65
-17.04
-22.04
-28.30
-36.10
-45.15
-54.51
-62.78
-68.40
-69.99
-66.77
-58.74
-46.70
-32.07
-16.49
-1.47
11.92
23.15
32.15
39.10
44.26
47.79
49.86
50.65
50.42
49.49
48.12
46.47
44.54
42.27
39.74
37.15
34.82
33.05
31.92
31.21
30.45
29.09
26.67
22.98
18.12
12.41
6.39
0.54
-4.78
-9.50
-13.86
-18.37
-23.62
-30.09
-37.91
-46.68
-55.50
-63.00
-67.66
-68.14
-63.68
-54.34
-41.12
-25.62
-9.67
5.20
18.03
28.50
36.68
42.82
47.02
49.29
49.61
48.19
45.49
42.23
39.11
36.65
35.01
33.99
33.23
32.39
31.34
30.14
28.95
27.86
26.78
25.39
23.31
20.26
16.23
11.49
6.45
1.54
-3.07
-7.40
-11.75
-16.43
-21.68
-27.58
-34.09
-41.00
-47.97
-54.41
-59.48
-62.11
-61.30
-56.40
-47.46
-35.23
-21.05
-6.51
6.98
18.42
27.25
33.32
36.75
37.76
36.75
34.21
30.71
26.94
23.47
20.75
18.93
17.92
17.41
17.07
16.61
15.87
14.77
13.20
11.03
8.04
4.15
-0.60
-5.91
-11.35
-16.57
-21.40
-26.02
-30.86
-36.43
-43.05
-50.60
-58.39
-65.14
-69.31
-69.42
-64.57
-54.76
-40.93
-24.75
-8.12
7.26
20.26
30.38
37.68
42.46
45.15
46.10
45.64
44.10
41.83
39.22
36.55
34.06
31.81
29.74
27.83
26.07
24.52
23.27
22.22
21.05
19.28
16.37
12.00
6.23
-0.54
-7.68
-14.61
-20.99
-26.91
-32.76
-39.13
-46.56
-55.21
-64.74
-74.11
-81.78
-85.95
-85.11
-78.49
-66.39
-50.21
-31.96
-13.83
2.54
16.29
27.36
36.23
43.38
49.11
53.40
56.09
57.10
56.60
55.01
52.83
50.46
48.06
45.65
43.13
40.53
38.00
35.76
33.93
32.41
30.78
28.50
25.04
20.14
