1589889161.00
64.000000
-0.00
-0.00
-0.00
-0.00
-0.00
-0.00
-0.00
-0.00
-0.00
-0.00
0.00
0.01
0.01
-0.00
-0.03
-0.05
-0.05
0.00
0.13
0.36
0.66
1.01
1.37
1.72
2.06
2.40
2.79
3.24
3.80
4.42
5.06
5.66
6.20
6.68
7.15
7.68
8.31
9.14
10.09
11.04
11.88
12.56
13.14
13.76
14.65
15.96
17.91
20.32
22.90
25.38
27.58
29.57
31.68
34.32
37.81
42.54
48.15
54.10
59.83
64.97
69.58
74.14
79.34
85.71
93.76
103.00
112.62
121.73
129.77
136.75
143.30
150.75
157.77
166.64
177.95
191.79
206.97
220.57
228.25
225.36
208.53
176.87
132.76
80.05
23.07
-34.94
-92.44
-149.16
-205.23
-260.37
-313.74
-363.87
-409.83
-450.91
-486.50
-515.74
-537.23
-549.22
-549.96
-538.37
-514.21
-478.67
-433.88
-382.45
-327.02
-269.84
-212.63
-156.66
-102.95
-52.37
-5.90
35.58
71.43
101.35
125.50
144.38
158.69
169.15
176.37
180.75
182.57
182.07
179.51
175.23
169.65
163.18
156.15
148.81
141.30
133.69
126.02
118.33
110.69
103.16
95.80
88.68
81.83
75.25
68.95
62.95
57.25
51.86
46.78
42.03
37.59
33.45
29.61
26.07
22.81
19.83
17.11
14.67
12.48
10.54
8.83
7.35
6.07
4.97
4.05
3.27
2.62
2.09
1.65
1.30
1.01
0.79
0.61
0.48
0.37
0.29
0.22
0.18
0.14
0.11
0.09
0.08
0.07
0.06
0.05
0.05
0.04
0.04
0.04
0.03
0.04
0.04
0.05
0.05
0.06
0.08
0.11
0.16
0.24
0.31
0.37
0.36
0.29
0.16
0.02
-0.10
-0.14
-0.09
0.01
0.11
0.16
0.12
0.01
-0.12
-0.20
-0.18
-0.03
0.18
0.37
0.44
0.32
0.03
-0.29
-0.48
-0.38
0.05
0.69
1.29
1.58
1.36
0.69
-0.16
-0.74
-0.69
0.11
1.38
2.59
3.10
2.56
1.04
-0.87
-2.34
-2.64
-1.56
0.48
2.51
3.49
2.75
0.40
-2.72
-5.38
-6.62
-6.05
-4.24
-2.36
-1.81
-3.93
-9.75
-19.76
-33.40
-48.41
-60.82
-65.93
-60.16
-42.98
-17.83
8.97
30.78
43.40
46.70
43.99
39.83
37.55
37.93
39.53
40.40
39.66
38.02
37.26
38.84
43.08
49.19
55.93
62.27
67.70
71.66
72.96
69.78
60.38
44.48
24.10
3.13
-14.10
-24.86
-29.17
-29.57
-29.50
-31.57
-36.28
-42.29
-47.54
-50.57
-50.96
-48.91
-44.52
-37.32
-26.93
-13.43
2.01
17.06
28.96
35.69
36.87
33.96
29.51
25.56
22.84
20.50
16.57
9.09
-2.78
-18.34
-35.81
-50.40
-58.49
-58.00
-48.82
-32.59
-12.11
9.48
29.38
45.64
57.52
65.19
69.98
73.83
78.45
84.50
91.05
95.85
96.28
90.53
78.16
60.62
40.45
20.34
2.18
-13.22
-25.87
-36.05
-43.98
-49.99
-54.56
-58.34
-61.97
-65.62
-68.66
-69.81
-67.69
-61.61
-52.05
-40.36
-28.04
-15.87
-3.58
9.89
25.58
43.63
62.95
81.48
96.97
107.77
113.37
114.39
112.28
108.89
105.88
104.27
104.01
103.89
101.90
95.95
84.65
68.00
47.29
24.65
2.18
-18.80
-38.00
-55.97
-73.63
-91.65
-110.05
-128.06
-144.27
-157.01
-165.05
-168.12
-167.25
-164.53
-162.30
-162.01
-163.37
-164.15
-160.97
-150.67
-131.60
-104.19
-70.50
-33.01
6.65
48.28
92.50
139.45
187.39
232.24
268.48
290.78
295.74
282.92
255.15
218.17
179.36
146.80
127.38
124.99
139.11
164.15
191.47
212.33
220.45
213.13
191.46
158.94
119.98
78.90
38.56
0.45
-35.01
-67.93
-98.96
-127.99
-154.11
-176.35
-194.39
-210.22
-226.08
-242.55
-257.69
-269.58
-275.59
-273.46
-262.34
-241.78
-214.95
-184.90
-152.75
-118.47
-85.72
-57.80
-36.15
-20.09
-5.02
8.69
20.91
33.58
48.46
60.08
62.41
52.23
30.64
6.56
-17.99
-41.62
-62.05
-79.51
-104.21
-145.72
-207.33
-284.35
-361.71
-435.21
-504.33
-569.09
-574.45
-488.07
-317.91
-108.48
50.01
156.30
223.25
260.03
287.41
310.69
322.69
317.23
295.00
264.02
240.90
229.02
226.17
228.79
230.73
221.21
193.23
147.20
90.31
36.95
-8.77
-47.33
-80.68
-113.26
-152.92
-205.89
-274.25
-354.91
-437.69
-514.92
-578.33
-619.41
-633.49
-622.32
-592.43
-552.15
-508.48
-463.84
-420.07
-377.37
-334.93
-293.22
-254.19
-219.77
-190.36
-164.40
-138.79
-111.83
-83.42
-54.37
-26.63
-2.01
18.49
35.00
48.74
61.27
73.71
86.22
98.68
110.21
119.50
125.36
127.48
126.61
124.12
121.30
118.75
118.36
120.87
125.44
130.20
133.67
135.85
137.98
141.54
147.40
159.66
180.43
208.28
238.92
268.04
293.76
316.63
338.20
359.54
387.28
425.69
473.44
524.31
571.60
611.96
645.85
676.22
707.07
750.82
816.51
903.36
999.85
1089.34
1157.27
1195.37
1202.84
1128.76
953.11
697.06
414.18
156.99
-47.81
-198.22
-304.07
-377.16
-424.85
-450.11
-453.20
-438.24
-414.40
-391.37
-375.33
-368.70
-372.42
-384.48
-397.06
-402.41
-398.09
-387.80
-376.90
-369.22
-366.87
-371.32
-384.85
-406.29
-431.94
-458.43
-482.37
-496.93
-492.30
-459.97
-397.11
-309.63
-210.16
-113.23
-33.14
19.96
44.94
48.55
40.24
36.60
49.67
66.63
76.80
79.48
73.32
58.86
37.33
7.71
-32.08
-83.71
-135.93
-174.63
-190.86
-185.45
-164.22
-133.21
-98.23
-74.03
-60.20
-56.48
-63.01
-80.69
-111.06
-154.49
-200.74
-242.05
-270.32
-277.28
-259.63
-218.88
-161.53
-97.44
-35.94
16.35
55.00
79.24
91.74
94.85
90.94
82.56
72.70
65.07
62.90
66.29
72.78
78.64
79.26
72.28
59.19
44.52
33.55
29.50
31.35
35.56
38.30
36.58
29.54
18.67
6.68
-3.25
-8.15
-6.40
1.97
14.88
28.33
37.66
39.28
31.71
15.77
-6.00
-30.45
-54.20
-73.88
-86.56
-90.16
-84.38
-71.02
-53.65
-36.05
-20.94
-8.30
4.81
22.94
49.68
84.93
123.79
157.89
178.46
179.42
159.31
120.53
67.36
4.48
-63.22
-129.75
-187.56
-228.56
-246.98
-241.95
-218.23
-184.30
-148.44
-115.43
-85.31
-55.13
-22.12
13.78
49.10
78.25
95.93
99.97
92.17
77.87
63.87
55.92
57.10
67.73
86.30
110.77
139.17
169.18
197.29
218.76
228.78
224.57
207.06
181.00
153.29
130.40
115.92
109.89
109.95
113.13
117.45
122.02
126.29
129.36
130.13
128.40
125.43
123.48
124.07
126.53
127.88
124.73
115.95
104.00
93.59
88.47
88.34
88.28
81.38
62.88
33.38
-1.21
-32.67
-54.52
-64.84
-66.33
-64.37
-64.23
-69.42
-81.33
-99.68
-123.25
-150.08
-177.37
-201.64
-219.41
-228.31
-228.12
-221.25
-212.03
-205.08
-203.36
-206.91
-212.80
-216.48
-213.56
-201.50
-180.00
-150.54
-115.37
-76.52
-35.49
6.76
49.81
94.03
140.61
190.86
244.70
299.03
347.31
380.93
392.19
377.42
338.38
281.28
213.97
142.93
71.84
2.20
-64.87
-127.24
-181.79
-225.64
-257.56
-278.51
-290.78
-296.64
-297.43
-293.70
-285.73
-274.25
-260.45
-245.36
-229.31
-211.91
-192.57
-171.25
-148.71
-126.16
-104.63
-84.57
-65.80
-47.98
-31.11
-15.76
-2.75
7.37
15.06
21.89
30.14
41.96
58.23
77.95
98.30
115.72
127.32
132.13
131.44
128.15
125.45
125.59
129.43
136.71
146.53
157.77
169.03
178.61
184.65
185.82
181.86
173.94
164.11
154.19
144.87
135.28
123.73
109.04
91.61
73.70
58.52
48.69
44.95
45.67
47.42
46.15
38.58
23.03
-0.14
-28.69
-58.72
-85.18
-102.66
-106.67
-95.15
-69.58
-35.02
1.06
30.97
49.06
53.24
45.21
29.43
11.59
-3.04
-10.87
-10.64
-3.48
7.51
18.20
24.62
24.04
15.60
0.40
-19.08
-39.66
-58.08
-71.60
-78.73
-80.01
-78.47
-79.24
-87.72
-107.12
-136.30
-169.54
-198.52
-215.63
-216.80
-202.51
-176.52
-143.54
-107.18
-69.32
-30.88
6.92
41.87
71.05
91.78
102.56
103.49
96.17
83.36
68.46
54.89
45.33
40.97
40.90
42.38
41.95
36.84
26.25
11.80
-2.96
-14.03
-18.40
-15.14
-5.59
7.63
21.83
35.29
47.53
58.82
69.40
79.07
87.33
93.88
98.98
103.32
107.54
111.89
116.34
121.05
127.01
136.05
150.13
170.06
194.31
218.73
237.31
243.86
233.99
206.67
164.83
114.51
63.25
17.89
-17.36
-41.69
-57.44
-68.76
-80.48
-96.92
-121.06
-153.59
-192.49
-233.24
-269.83
-296.37
-308.28
-303.75
-284.04
-253.15
-216.56
-179.92
-147.60
-121.74
-101.93
-85.05
-67.25
-45.88
-20.81
5.84
30.89
51.76
67.26
77.38
84.11
88.83
91.51
90.90
85.80
76.08
62.98
48.40
33.98
24.08
21.51
26.34
35.82
46.55
57.07
68.91
85.27
108.98
146.31
199.76
266.79
340.47
412.97
478.59
534.17
577.72
607.92
632.91
662.96
706.82
767.04
838.97
912.70
976.51
1020.83
995.01
872.46
659.59
397.18
137.04
-84.71
-256.35
-382.25
-471.65
-532.70
-564.21
-565.57
-540.85
-500.75
-458.05
-422.39
-398.08
-384.35
-377.98
-369.95
-353.29
-325.98
-292.32
-259.17
-232.03
-212.94
-201.00
-194.22
-187.45
-177.69
-161.24
-139.84
-117.33
-96.91
-79.76
-65.28
-52.14
-37.35
-18.75
4.20
29.58
54.75
77.42
96.40
111.44
122.78
131.39
138.12
143.43
146.77
147.58
145.58
140.98
134.39
126.56
118.20
109.91
102.09
94.65
87.48
80.45
73.51
66.76
60.35
54.44
49.13
44.27
39.38
33.95
27.55
19.97
11.34
2.02
-7.60
-17.44
-27.84
-39.59
-53.54
-70.17
-89.27
-109.80
-130.16
-148.79
-164.77
-178.16
-190.02
-201.82
-214.70
-228.90
-243.59
-257.34
-268.97
-278.16
-285.85
-293.77
-303.78
-317.09
-334.23
-355.19
-379.59
-406.23
-432.32
-453.42
-464.33
-461.29
-444.08
-416.80
-386.37
-359.19
-337.88
-319.91
-299.32
-270.25
-230.37
-181.90
-129.86
-78.80
-30.28
17.19
65.81
115.62
162.93
201.19
223.84
227.36
212.93
185.61
151.97
117.49
85.00
54.91
26.21
-2.12
-30.48
-58.93
-87.73
-117.98
-151.32
-188.94
-230.42
-273.00
-311.77
-340.89
-355.56
-353.63
-336.35
-307.67
-272.57
-235.22
-197.77
-160.41
-122.40
-83.50
-44.68
-7.69
26.05
56.58
85.37
114.21
143.75
172.58
197.66
216.02
226.37
229.81
229.11
227.08
225.19
223.14
219.56
213.37
204.61
194.57
185.17
178.18
174.58
174.55
177.74
183.66
191.70
200.83
209.02
212.86
207.74
188.95
153.43
101.67
38.72
-26.43
-83.13
-122.39
-140.01
-137.98
-123.84
-107.83
-99.37
-103.94
-121.61
-147.82
-175.50
-197.81
-210.15
-210.85
-200.65
-181.58
-155.93
-125.48
-91.43
-54.32
-13.95
30.49
79.85
133.80
189.37
240.14
277.05
291.18
277.63
238.83
185.00
131.40
92.80
78.06
87.11
111.83
139.97
160.06
164.92
152.74
126.13
90.26
51.31
15.33
-12.66
-29.57
-34.99
-31.35
-22.92
-14.16
-8.04
-5.42
-5.49
-6.95
-8.93
-11.24
-13.94
-16.94
-19.80
-21.92
-22.84
-22.24
-19.84
-15.28
-8.23
1.15
11.78
21.47
27.28
26.49
17.69
1.72
-17.99
-36.25
-47.61
-48.43
-38.37
-20.79
-1.54
13.03
18.35
13.00
-1.25
-20.51
-40.32
-56.90
-67.74
-71.73
-68.88
-60.13
-47.11
-32.10
-17.65
-6.25
0.19
0.77
-4.05
-12.28
-20.75
-25.84
-24.84
-17.05
-4.20
10.18
22.36
30.09
33.36
33.66
32.44
29.72
23.88
12.90
-3.79
-24.14
-43.78
-57.72
-62.55
-57.53
-44.60
-27.13
-8.62
8.08
20.87
28.21
29.09
23.30
11.86
-3.00
-18.48
-32.03
-42.21
-48.92
-53.07
-55.69
-57.02
-56.15
-51.33
-41.30
-26.40
-9.28
5.72
14.26
14.01
5.81
-6.68
-18.75
-26.80
-29.60
-28.15
-24.19
-18.77
-11.54
-1.45
12.01
27.75
43.20
55.53
63.16
66.80
69.31
74.33
84.58
100.50
119.99
139.37
154.74
163.28
163.95
157.41
145.39
129.99
113.20
96.68
81.64
68.69
57.65
47.45
36.39
22.59
4.72
-17.55
-43.04
-69.15
-92.18
-108.13
-113.92
-108.44
-93.16
-71.81
-49.06
-28.78
-12.79
-0.64
9.47
19.10
28.48
36.29
40.50
39.61
33.54
23.82
13.14
4.60
0.88
3.59
12.63
25.89
39.45
48.38
48.32
37.00
15.16
-13.64
-44.12
-71.00
-90.27
-100.02
-100.49
-93.69
-82.76
-71.23
-62.22
-57.78
-58.44
-63.34
-70.71
-78.67
-85.77
-91.28
-94.98
-96.78
-96.52
-93.88
-88.57
-80.53
-70.00
-57.49
-43.46
-28.27
-12.15
4.58
21.34
37.28
51.54
63.69
74.01
83.27
92.13
100.59
107.73
112.19
112.90
109.64
103.09
94.30
84.09
72.64
59.71
45.39
30.57
17.04
6.90
1.58
1.07
3.80
7.20
8.71
6.77
1.24
-6.56
-14.56
-20.81
-24.31
-25.23
-24.84
-24.78
-26.52
-30.70
-36.99
-44.17
-50.45
-53.99
-53.36
-48.00
-38.28
-25.38
-10.95
3.29
15.82
25.59
32.17
35.90
37.74
39.05
40.98
44.04
47.69
50.50
50.70
46.97
39.06
28.00
15.85
4.94
-2.94
-7.03
-7.82
-6.70
-5.53
-5.88
-8.75
-14.29
-21.92
-30.59
-39.01
-45.82
-49.74
-49.75
-45.42
-37.25
-26.74
-16.08
-7.40
-2.08
-0.28
-1.02
-2.84
-4.31
-4.56
-3.24
-0.32
4.19
10.20
17.37
24.98
32.01
37.49
40.95
42.67
43.50
44.49
46.28
48.75
51.10
52.07
50.45
45.51
37.17
26.07
13.43
0.78
-10.27
-18.37
-22.69
-23.01
-19.78
-13.98
-6.78
0.58
7.08
11.99
14.83
15.48
14.16
11.40
7.99
4.77
2.43
1.17
0.81
0.83
0.61
-0.24
-1.84
-3.99
-6.22
-7.96
-8.60
-7.65
-4.98
-0.92
3.73
7.87
10.45
10.79
8.79
4.97
0.36
-3.87
-6.52
-6.78
-4.25
0.83
7.71
15.22
22.16
27.54
30.82
32.07
31.74
30.40
28.57
26.47
24.07
21.16
17.51
12.98
7.66
1.85
-3.99
-9.35
-13.79
-17.09
-19.23
-20.34
-20.68
-20.51
-20.15
-19.92
-20.18
-21.22
-23.09
-25.54
-27.73
-28.48
-26.52
-21.03
-11.96
-0.21
12.62
24.79
34.84
42.01
46.13
47.43
46.31
43.08
38.10
31.87
25.13
18.79
13.62
9.90
7.42
5.50
3.48
0.96
-2.00
-5.04
-7.82
-10.14
-12.06
-13.70
-15.06
-15.95
-16.04
-15.09
-13.20
-10.85
-8.73
-7.44
-7.16
-7.53
-7.83
-7.36
-5.71
-2.99
0.26
3.37
5.71
6.95
7.06
6.25
4.83
3.10
1.34
-0.26
-1.51
-2.25
-2.41
-2.06
-1.44
-1.00
-1.22
-2.47
-4.78
-7.90
-11.29
-14.42
-17.04
-19.19
-21.26
-23.64
-26.47
-29.35
-31.43
-31.66
-29.20
-23.77
-15.87
-6.54
2.98
11.64
18.92
24.71
29.14
32.15
33.45
32.58
29.30
23.92
17.22
10.26
3.96
-1.24
-5.40
-8.84
-11.77
-14.13
-15.62
-15.94
-15.13
-13.63
-12.27
-11.96
-13.33
-16.49
-20.95
-25.75
-29.76
-31.87
-31.37
-27.98
-21.89
-13.72
-4.37
5.10
13.64
20.40
24.85
26.87
26.73
24.89
21.81
17.75
12.77
6.91
0.40
-6.25
-12.25
-16.74
-19.03
-18.86
-16.44
-12.35
-7.42
-2.54
1.52
4.14
4.95
3.84
0.94
-3.24
-7.95
-12.24
-15.11
-15.86
-14.18
-10.28
-4.82
1.26
7.01
11.63
14.64
15.96
15.89
14.99
13.91
13.15
12.90
13.02
13.18
12.98
12.29
11.22
10.10
9.29
8.96
8.93
8.85
8.32
7.01
4.85
1.90
-1.64
-5.57
-9.73
-13.85
-17.49
-19.96
-20.43
-18.23
-13.23
-5.99
2.25
10.00
15.95
19.40
20.29
19.00
16.09
12.03
7.12
1.66
-3.98
-9.21
-13.37
-15.98
-16.90
-16.46
-15.36
-14.31
-13.76
-13.83
-14.36
-15.18
-16.26
-17.82
-20.10
-23.10
-26.42
-29.19
-30.41
-29.24
-25.37
-19.25
-11.87
-4.45
2.00
6.95
10.33
12.37
13.31
13.16
11.79
9.11
5.32
1.05
-2.83
-5.51
-6.64
-6.40
-5.39
-4.23
-3.31
-2.74
-2.43
-2.39
-2.83
-4.18
-6.85
-10.99
-16.39
-22.32
-27.74
-31.51
-32.65
-30.63
-25.47
-17.81
-8.64
0.86
9.63
16.87
22.14
25.32
26.51
26.05
24.43
22.25
20.06
18.22
16.74
15.39
13.81
11.77
9.34
6.83
4.59
2.77
1.19
-0.60
-3.13
-6.77
-11.54
-17.01
-22.31
-26.34
-27.97
-26.40
-21.34
-13.21
-3.01
7.85
17.86
25.77
30.77
32.61
31.50
28.01
22.94
17.19
11.61
6.86
3.27
0.75
-1.03
-2.49
-3.80
-4.83
-5.26
-4.72
-3.14
-0.94
1.12
2.05
0.93
-2.78
-9.07
-17.26
-25.95
-33.23
-37.14
-36.17
-29.80
-18.69
-4.44
10.87
25.28
37.23
45.78
50.48
51.29
48.61
43.19
36.15
28.66
21.71
15.89
11.38
8.03
5.62
3.94
2.85
2.29
2.15
2.27
2.39
2.19
1.33
-0.50
-3.49
-7.65
-12.66
-17.89
-22.35
-24.88
-24.45
-20.42
-12.75
-2.02
10.71
24.15
37.02
48.17
56.61
61.49
62.13
58.21
49.95
38.24
24.59
10.82
-1.34
-10.72
-16.79
-19.64
-19.74
-17.66
-13.94
-9.10
-3.72
1.54
5.96
8.95
10.19
9.74
8.12
6.17
4.85
4.96
6.92
10.49
14.87
18.92
21.48
21.78
19.67
15.65
10.59
5.41
0.71
-3.37
-6.98
-10.38
-13.57
-16.19
-17.59
-17.03
-14.04
-8.48
-0.76
8.37
17.91
26.77
33.87
38.22
39.06
36.01
29.29
19.81
9.14
-0.76
-7.95
-10.99
-9.38
-3.67
4.68
13.72
21.61
27.04
29.47
29.01
26.20
21.74
16.36
10.73
5.43
0.90
-2.54
-4.70
-5.52
-4.92
-2.85
0.69
5.54
11.21
16.85
21.39
23.87
23.71
20.98
16.37
10.90
5.65
1.53
-0.74
-0.68
1.90
6.72
12.84
18.74
22.68
23.42
20.72
15.46
9.15
3.16
-1.92
-6.32
-10.58
-14.86
-18.54
-20.61
-20.21
-17.45
-13.54
-10.25
-9.14
-10.84
-14.89
-20.10
-25.22
-29.40
-32.34
-34.19
-35.19
-35.45
-34.78
-32.90
-29.57
-24.85
-19.20
-13.27
-7.76
-3.08
0.74
3.86
6.45
8.48
9.66
9.59
8.07
5.24
1.72
-1.67
-4.15
-5.22
-4.81
-3.21
-0.99
1.22
2.77
3.12
1.94
-0.85
-4.95
-9.75
-14.41
-18.04
-19.91
-19.75
-17.69
-14.28
-10.16
-5.73
-1.14
3.72
8.83
13.81
17.93
20.32
20.42
18.14
13.93
8.47
2.50
-3.38
-8.51
-12.15
-13.49
-11.87
-7.06
0.66
10.66
22.24
34.88
48.23
61.88
75.17
87.30
97.66
106.14
113.08
119.04
124.10
127.67
128.69
126.07
119.56
109.79
98.02
85.53
73.11
60.86
48.64
36.73
26.20
18.74
15.74
17.71
23.88
32.80
43.14
53.99
64.74
74.20
80.23
80.10
71.83
55.51
33.73
10.88
-8.53
-21.47
-27.10
-26.07
-19.66
-8.91
5.29
21.54
37.65
50.77
58.21
58.43
51.62
39.45
24.26
8.27
-6.88
-20.15
-30.92
-38.80
-43.80
-46.43
-47.58
-48.37
-49.68
-51.97
-55.32
-59.68
-65.07
-71.67
-79.50
-88.19
-96.76
-103.93
-108.64
-110.46
-109.86
-107.78
-104.95
-101.43
-96.35
-88.53
-77.29
-63.04
-47.31
-32.25
-19.73
-10.76
-5.14
-1.90
0.13
2.04
4.50
8.00
12.91
19.28
26.55
33.35
37.79
38.29
34.56
27.98
21.11
16.64
16.15
19.56
25.30
31.48
36.74
40.86
44.35
47.66
50.56
52.05
50.84
46.30
38.76
29.22
18.77
8.15
-2.19
-11.68
-19.35
-23.96
-24.73
-21.88
-16.78
-11.36
-7.17
-4.77
-3.70
-3.08
-2.31
-1.48
-1.09
-1.57
-2.71
-3.73
-3.84
-2.86
-1.51
-1.04
-2.37
-5.34
-8.41
-9.18
-5.54
3.39
16.71
32.07
46.62
58.11
65.56
69.15
69.47
66.86
61.01
51.42
37.98
21.45
3.48
-13.98
-29.28
-41.55
-50.67
-57.03
-61.28
-63.98
-65.61
-66.43
-66.45
-65.34
-62.59
-57.76
-50.70
-41.74
-31.47
-20.33
-8.36
4.78
19.35
34.95
50.25
63.18
71.51
73.52
68.33
56.01
37.35
13.87
-12.38
-39.09
-63.98
-85.13
-101.19
-111.40
-115.37
-113.09
-105.05
-92.53
-77.71
-63.37
-52.16
-45.65
-43.94
-45.72
-49.12
-52.45
-54.78
-55.72
-54.98
-51.97
-45.91
-36.20
-23.07
-7.80
7.56
20.83
30.46
36.01
38.06
37.89
36.84
35.85
35.07
33.94
31.63
27.60
22.10
16.20
11.33
8.48
7.61
7.52
6.59
3.81
-0.56
-5.04
-7.82
-7.96
-6.15
-4.56
-5.83
-11.77
-22.41
-35.97
-49.61
-60.56
-66.87
-67.69
-62.93
-52.78
-37.53
-17.88
4.74
27.94
48.85
64.99
75.01
79.03
78.25
74.08
67.55
59.09
48.85
37.17
24.86
13.04
2.71
-5.47
-11.28
-14.75
-15.97
-15.14
-12.67
-9.07
-4.89
-0.45
4.02
8.07
10.76
10.54
5.90
-3.72
-17.08
-31.09
-41.78
-45.85
-42.09
-31.76
-17.84
-3.68
8.22
16.63
21.23
22.16
19.66
14.34
7.50
1.25
-2.10
-0.98
4.62
12.99
21.51
27.80
30.72
30.68
29.18
27.91
27.97
29.54
31.96
34.23
35.41
34.91
32.68
29.16
25.26
22.15
20.86
21.84
24.75
28.50
31.66
33.05
32.17
29.33
25.32
21.05
17.13
13.84
11.17
8.99
7.07
5.13
2.74
-0.51
-4.82
-9.88
-14.83
-18.68
-20.89
-21.96
-23.41
-27.07
-34.05
-43.82
-54.22
-62.29
-65.45
-62.69
-54.79
-43.92
-32.83
-24.06
-19.34
-19.24
-22.95
-28.34
-32.46
-32.54
-27.12
-16.77
-3.91
8.29
17.24
21.77
22.26
19.96
16.13
11.66
7.09
2.94
-0.07
-1.31
-0.57
1.58
3.92
5.12
4.26
1.08
-3.97
-10.04
-16.23
-21.56
-25.10
-26.14
-24.47
-20.73
-16.49
-13.69
-13.78
-16.84
-21.26
-24.28
-23.29
-17.04
-6.38
6.06
17.04
24.14
26.68
25.79
23.52
21.59
20.50
19.37
16.66
11.03
2.14
-9.32
-21.86
-33.85
-43.84
-50.61
-53.21
-50.99
-43.84
-32.56
-18.90
-5.28
5.80
12.38
13.52
9.25
0.47
-11.28
-23.96
-35.22
-42.68
-44.53
-40.26
-31.01
-19.46
-8.77
-1.30
2.55
4.39
7.02
12.83
22.52
34.76
46.91
56.39
61.82
63.37
62.24
59.70
56.36
51.92
45.64
36.72
24.77
9.72
-8.25
-28.79
-51.25
-74.43
-96.83
-116.92
-133.88
-147.97
-160.51
-173.11
-186.74
-200.99
-213.96
-223.14
-226.61
-224.22
-217.81
-210.51
-205.22
-203.07
-202.80
-201.12
-194.41
-180.44
-159.56
-134.64
-110.01
-89.88
-76.83
-71.09
-70.50
-71.36
-69.67
-62.76
-50.42
-35.25
-21.81
-14.91
-17.64
-30.09
-49.37
-70.61
-88.87
-100.80
-105.68
-105.42
-103.71
-104.46
-110.11
-120.57
-133.05
-143.23
-147.17
-142.85
-130.84
-113.60
-94.02
-74.14
-54.69
-35.42
-15.93
3.67
22.76
40.35
55.50
67.64
76.73
83.34
88.50
93.33
98.58
104.17
109.05
111.42
109.44
102.03
89.65
74.31
59.20
47.78
42.36
43.04
47.44
51.60
51.77
46.44
37.33
28.82
25.86
31.47
45.26
63.80
82.75
99.27
113.55
128.21
146.17
168.16
191.54
211.25
222.10
221.28
209.31
189.51
166.25
143.60
124.78
112.27
108.20
113.46
126.67
143.31
156.50
159.27
147.48
121.70
86.90
50.12
17.37
-8.54
-28.14
-43.80
-57.56
-69.69
-78.60
-82.00
-78.40
-68.16
-53.55
-38.00
-24.81
-16.09
-12.18
-11.77
-12.64
-12.65
-10.62
-6.66
-1.90
2.26
4.91
6.09
6.74
8.22
11.59
17.06
23.74
29.88
33.30
32.08
25.16
12.81
-3.24
-20.14
-34.65
-44.20
-47.78
-46.34
-42.44
-39.18
-38.72
-41.30
-45.00
-46.56
-42.92
-32.42
-15.20
7.56
34.64
65.32
99.10
134.66
169.21
198.66
218.89
227.21
223.12
207.90
183.63
152.39
116.48
79.14
44.86
18.53
3.33
-1.17
0.44
1.03
-6.16
-24.69
-53.67
-88.58
-123.23
-152.08
-171.57
-180.45
-179.33
-170.06
-155.22
-137.49
-119.20
-102.01
-86.77
-73.76
-63.02
-54.46
-47.82
-42.41
-37.20
-31.14
-23.59
-14.63
-4.89
4.97
14.73
24.70
35.29
46.47
57.54
67.25
74.35
78.08
78.21
74.81
67.77
56.93
42.38
25.11
7.16
-8.83
-20.64
-27.42
-30.00
-30.19
-29.63
-28.70
-26.41
-21.18
-12.01
0.59
14.62
27.50
37.28
43.43
46.75
48.48
49.40
49.23
47.01
41.85
33.75
23.83
13.88
5.57
-0.21
-3.63
-5.70
-7.76
-11.13
-16.75
-25.01
-35.57
-47.19
-57.83
-65.13
-67.38
-64.22
-56.93
-47.99
-39.86
-33.97
-30.10
-26.78
-22.23
-15.31
-5.98
4.88
16.10
26.75
36.40
44.89
52.05
57.64
61.43
63.44
64.09
64.01
63.68
63.24
62.50
61.13
58.96
55.98
52.14
47.15
40.42
31.44
20.36
8.33
-2.59
-10.41
-14.25
-15.00
-15.07
-17.26
-23.19
-32.27
-41.77
-48.01
-48.08
-41.22
-29.27
-15.79
-4.51
2.37
4.93
5.19
5.85
8.77
13.97
19.69
23.24
22.36
16.21
5.74
-6.78
-18.48
-26.92
-30.77
-30.24
-26.98
-23.62
-22.84
-26.46
-34.59
-45.52
-56.25
-63.52
-64.99
-60.10
-50.16
-37.91
-26.47
-18.18
-13.89
-12.71
-12.57
-11.23
-7.32
-0.93
6.66
13.75
19.33
23.61
27.94
33.96
42.62
53.45
64.52
73.18
77.02
74.91
67.41
56.61
45.24
35.60
28.78
24.36
20.90
16.76
10.86
3.15
-5.51
-13.81
-20.51
-24.87
-26.87
-27.12
-26.68
-26.66
-27.75
-29.89
-32.25
-33.49
-32.44
-28.55
-22.16
-14.25
-6.01
1.58
7.83
12.23
14.28
13.57
9.92
3.74
-3.95
-11.71
-18.14
-22.31
-24.05
-23.86
-22.60
-21.10
-19.88
-19.13
-18.80
-18.92
-19.75
-21.68
-25.03
-29.56
-34.33
-37.85
-38.61
-35.71
-29.27
-20.30
-10.21
-0.21
9.13
17.86
26.33
34.77
43.05
50.67
57.06
61.85
65.00
66.84
67.86
68.44
68.67
68.36
67.29
65.51
63.45
61.75
60.78
60.25
59.21
56.42
51.01
42.97
33.06
22.30
11.39
0.37
-11.18
-23.66
-37.07
-50.88
-64.38
-76.88
-87.87
-96.82
-102.94
-105.22
-102.56
-94.30
-80.54
-62.42
-41.86
-21.14
-2.37
13.00
24.45
32.26
37.20
40.03
41.08
40.18
36.93
31.15
23.28
14.45
6.16
-0.24
-4.12
-5.77
-6.30
-7.17
-9.64
-14.45
-21.66
-30.78
-41.01
-51.45
-61.11
-68.90
-73.59
-74.10
-69.82
-61.06
-49.11
-35.89
-23.33
-12.66
-4.07
3.10
9.79
16.63
23.54
29.89
34.87
37.96
39.12
38.76
37.51
35.98
34.60
33.62
33.10
32.98
33.01
32.80
31.81
29.50
25.38
19.32
11.59
2.88
-5.85
-13.63
-19.62
-23.25
-24.05
-21.76
-16.31
-8.10
1.96
12.57
22.39
30.57
36.94
41.86
45.64
48.18
48.80
46.75
41.78
34.52
26.37
18.81
12.77
8.25
4.62
1.19
-2.26
-5.41
-7.73
-8.99
-9.63
-10.56
-12.72
-16.57
-21.89
-27.88
-33.59
-38.28
-41.64
-43.60
-44.15
-43.07
-40.00
-34.69
-27.28
-18.45
-9.27
-0.89
5.90
10.89
14.40
17.00
19.18
21.02
22.28
22.62
21.88
20.24
18.14
16.03
14.13
12.35
10.45
8.22
5.72
3.24
1.15
-0.32
-1.25
-2.08
-3.38
-5.66
-9.12
-13.61
-18.73
-23.90
-28.55
-32.19
-34.51
-35.37
-34.86
-33.33
-31.33
-29.55
-28.70
-29.37
-31.92
-36.50
-42.93
-50.80
-59.47
-68.22
-76.42
-83.76
-90.30
-96.28
-101.98
-107.31
-111.83
-114.83
-115.64
-113.95
-109.89
-103.96
-96.73
-88.73
-80.32
-71.86
-63.67
-56.07
-49.18
-42.75
-36.17
-28.75
-20.01
-9.93
0.97
12.02
22.81
33.47
44.63
57.00
70.98
86.34
102.26
117.67
131.65
143.71
153.74
161.70
167.40
170.44
170.51
167.75
162.93
157.23
151.78
147.12
143.02
138.70
133.31
126.41
118.04
108.52
98.12
86.99
75.30
63.56
52.75
44.05
38.24
35.19
33.71
32.01
28.50
22.42
14.13
4.78
-4.38
-12.52
-19.52
-25.78
-31.77
-37.62
-43.03
-47.42
-50.27
-51.36
-50.90
-49.38
-47.36
-45.27
-43.45
-42.18
-41.71
-42.25
-43.86
-46.33
-49.23
-51.93
-53.80
-54.29
-53.01
-49.74
-44.38
-37.11
-28.43
-19.14
-10.23
-2.52
3.40
7.38
9.54
10.11
9.37
7.62
5.17
2.39
-0.48
-3.47
-6.81
-10.85
-15.74
-21.22
-26.67
-31.38
-34.91
-37.28
-38.94
-40.47
-42.30
-44.49
-46.76
-48.70
-49.85
-49.85
-48.35
-45.08
-39.81
-32.55
-23.67
-13.89
-4.22
4.43
11.46
16.80
20.84
24.24
27.54
30.95
34.33
37.31
39.68
41.50
43.20
45.30
48.10
51.44
54.72
57.14
58.06
57.35
55.44
53.18
51.37
50.34
49.86
49.17
47.54
44.64
40.82
36.99
34.18
33.06
33.67
35.54
37.90
40.08
41.56
41.93
40.71
37.38
31.60
23.43
13.50
2.87
-7.25
-16.00
-23.05
-28.74
-33.73
-38.76
-44.26
-50.27
-56.51
-62.66
-68.62
-74.59
-80.91
-87.83
-95.13
-102.08
-107.57
-110.46
-109.91
-105.64
-97.88
-87.19
-74.32
-59.99
-44.88
-29.64
-14.87
-1.15
11.03
21.35
29.75
36.43
41.86
46.56
51.01
55.49
60.04
64.58
68.98
73.12
76.91
80.25
83.07
85.31
87.00
88.16
88.77
88.66
87.62
85.45
82.19
78.15
73.91
70.20
67.73
66.96
68.03
70.63
74.04
77.31
79.50
80.03
78.85
76.39
73.38
70.47
68.06
66.18
64.71
63.47
62.29
60.95
59.08
56.14
51.64
45.44
37.98
30.28
23.65
19.13
16.94
16.26
15.43
12.64
6.67
-2.53
-13.83
-25.37
-35.30
-42.28
-45.76
-45.76
-42.76
-37.43
-30.64
-23.50
-17.12
-12.33
-9.43
-8.00
-7.24
-6.40
-5.22
-4.08
-3.81
-5.38
-9.53
-16.65
-26.73
-39.42
-54.09
-69.84
-85.58
-100.17
-112.70
-122.65
-129.95
-134.79
-137.47
-138.12
-136.65
-132.83
-126.50
-117.84
-107.41
-96.17
-85.19
-75.50
-67.75
-62.22
-58.79
-57.02
-56.25
-55.72
-54.72
-52.77
-49.74
-45.90
-41.79
-37.99
-34.83
-32.26
-29.80
-26.85
-22.96
-18.02
-12.39
-6.75
-1.89
1.60
3.46
3.95
3.75
3.89
5.38
8.96
14.86
22.69
31.66
40.83
49.43
56.93
63.06
67.64
70.60
72.01
72.19
71.67
70.97
70.38
69.78
68.76
66.91
64.15
60.90
57.76
55.19
52.99
50.19
45.23
36.39
22.57
3.85
-18.18
-40.68
-60.21
-73.82
-79.95
-78.87
-72.50
-63.70
-55.23
-49.10
-46.19
-46.39
-48.96
-52.87
-57.10
-60.83
-63.61
-65.32
-66.17
-66.52
-66.71
-67.00
-67.57
-68.49
-69.57
-70.25
-69.63
-66.81
-61.37
-53.71
-44.94
-36.28
-28.34
-20.79
-12.58
-2.66
9.32
22.80
36.70
50.00
62.18
73.21
83.12
91.64
98.16
102.06
103.11
101.66
98.52
94.48
89.95
84.74
78.29
70.14
60.34
49.69
39.54
31.33
26.04
23.77
23.83
25.01
26.27
27.18
28.14
30.18
34.41
41.38
50.77
61.38
71.62
80.11
86.11
89.62
91.16
91.34
90.59
89.12
86.94
83.82
79.22
72.24
61.93
47.77
30.23
10.90
-7.84
-23.77
-35.62
-43.54
-48.82
-53.14
-57.72
-62.82
-67.75
-71.25
-72.05
-69.27
-62.65
-52.66
-40.39
-27.30
-14.87
-4.15
4.47
11.11
16.09
19.42
20.68
19.26
14.99
8.71
2.29
-1.96
-2.29
1.58
8.26
15.24
20.01
21.09
18.52
13.56
7.91
2.80
-1.48
-5.40
-9.68
-14.59
-19.74
-24.29
-27.52
-29.34
-30.35
-31.40
-32.87
-34.40
-34.94
-33.50
-29.90
-25.03
-20.51
-17.72
-16.95
-17.25
-16.87
-14.45
-9.80
-4.19
0.18
1.16
-2.46
-10.53
-21.69
-33.92
-45.18
-53.91
-59.29
-61.18
-60.02
-56.57
-51.70
-46.23
-40.81
-35.93
-31.91
-28.96
-27.03
-25.88
-25.03
-23.96
-22.28
-19.95
-17.25
-14.65
-12.59
-11.29
-10.64
-10.32
-9.94
-9.20
-8.04
-6.61
-5.19
-4.04
-3.30
-2.96
-2.84
-2.74
-2.50
-2.06
-1.48
-0.86
-0.34
0.01
0.19
0.24
0.24
0.28
0.38
0.55
0.74
0.93
1.06
1.12
1.13
1.10
1.05
1.01
0.98
0.97
0.97
0.97
0.97
0.96
0.96
0.95
0.95
0.95
0.94
0.94
0.94
0.94
0.93
0.93
0.93
0.92
0.92
0.92
0.92
0.91
0.91
0.91
0.91
0.90
0.90
0.90
0.89
0.89
0.89
0.89
0.88
0.88
0.88
0.87
0.87
0.87
0.87
0.86
0.86
0.86
0.86
0.85
0.85
0.85
0.85
0.84
0.84
0.84
0.83
0.83
0.83
0.83
0.82
0.82
0.82
0.82
0.82
0.81
0.81
0.81
0.80
0.80
0.80
0.80
0.79
0.79
0.79
0.79
0.78
0.78
0.78
0.78
0.77
0.77
0.77
0.77
0.77
0.76
0.76
0.76
0.75
0.75
0.75
0.75
0.75
0.74
0.74
0.74
0.74
0.73
0.73
0.73
0.73
0.73
0.72
0.72
0.72
0.72
0.72
0.72
0.71
0.71
0.71
0.71
0.70
0.70
0.70
0.70
0.69
0.69
0.69
0.69
0.69
0.68
0.68
0.68
0.68
0.68
0.67
0.67
0.67
0.67
0.67
0.66
0.66
0.66
0.65
0.65
0.65
0.65
0.66
0.65
0.63
0.59
0.54
0.51
0.53
0.63
0.81
1.06
1.34
1.61
1.83
2.01
2.17
2.36
2.61
2.95
3.35
3.77
4.13
4.40
4.59
4.75
4.99
5.39
5.98
6.72
7.47
8.08
8.46
8.65
8.85
9.33
10.32
11.90
13.95
16.13
18.06
19.51
20.52
21.46
22.85
25.20
28.67
33.04
37.69
41.90
45.19
47.58
49.63
52.26
56.30
62.10
69.34
77.13
84.39
90.31
94.73
98.12
101.47
106.05
113.17
123.82
138.16
154.83
170.64
180.96
181.03
167.85
141.45
105.12
64.08
23.38
-13.71
-46.28
-75.00
-100.87
-124.35
-145.28
-163.36
-178.48
-190.76
-200.25
-206.74
-209.85
-209.31
-204.94
-196.51
-183.60
-165.77
-143.13
-116.91
-89.74
-64.83
-44.97
-31.48
-24.04
-21.43
-22.36
-26.00
-31.69
-38.41
-44.50
-48.06
-47.84
-43.89
-37.42
-29.90
-22.20
-14.24
-5.48
4.18
13.90
22.09
27.25
28.80
27.20
23.37
18.03
11.37
3.36
-5.58
-14.30
-21.19
-25.00
-25.46
-23.39
-20.09
-16.47
-12.66
-8.04
-1.81
6.48
16.70
28.05
39.43
49.69
57.94
63.69
66.95
68.04
67.32
64.85
60.22
52.69
41.53
26.51
8.20
-11.90
-31.45
-47.68
-58.00
-60.89
-56.53
-47.08
-36.14
-27.67
-24.59
-27.97
-36.98
-49.44
-62.64
-73.90
-80.93
-82.06
-76.57
-65.13
-50.06
-35.06
-24.48
-22.04
-29.71
-46.80
-69.77
-92.84
-109.33
-113.71
-103.33
-79.36
-46.16
-9.49
25.71
56.87
83.96
108.33
131.15
152.12
169.14
179.00
178.46
165.38
139.65
103.67
62.22
21.69
-11.47
-32.48
-39.68
-34.76
-22.13
-7.31
4.48
9.41
5.41
-7.77
-28.88
-55.24
-83.10
-108.30
-127.06
-136.86
-136.94
-128.35
-113.44
-95.17
-76.40
-59.38
-45.50
-35.18
-27.96
-22.80
-18.30
-13.26
-6.96
0.53
8.27
14.61
17.66
15.97
9.27
-1.14
-12.65
-22.20
-27.37
-27.10
-22.01
-13.89
-5.08
2.32
6.86
7.88
5.44
0.08
-7.23
-15.40
-23.32
-30.08
-35.15
-38.35
-39.85
-39.87
-38.45
-35.17
-29.11
-19.07
-3.96
16.37
40.58
65.51
86.64
99.20
99.64
87.06
63.91
35.45
8.20
-12.25
-23.15
-25.30
-22.36
-19.11
-19.50
-25.51
-37.06
-52.83
-71.12
-90.15
-107.74
-120.82
-125.57
-118.48
-97.94
-65.51
-26.01
13.76
47.29
70.32
81.98
84.48
81.96
78.86
78.64
82.97
91.51
102.22
112.13
118.44
119.50
115.34
107.49
98.19
89.47
82.62
78.03
75.54
74.55
73.94
72.01
66.63
55.89
39.14
17.68
-5.31
-25.76
-39.89
-45.40
-41.64
-29.07
-8.53
19.06
52.09
87.64
121.52
149.45
168.81
179.83
185.14
187.69
188.25
184.26
170.93
144.08
103.23
52.70
0.30
-45.90
-80.66
-102.90
-114.95
-120.46
-122.82
-124.59
-127.82
-134.17
-144.73
-159.36
-176.43
-193.42
-208.03
-219.08
-226.52
-230.40
-229.93
-223.14
-207.82
-182.93
-149.61
-110.79
-70.12
-30.53
6.17
38.94
66.75
88.28
102.40
108.90
109.02
105.07
99.54
94.16
89.46
85.16
80.75
76.15
72.06
69.88
71.25
77.47
88.65
103.42
119.01
131.91
138.80
137.42
126.94
107.89
81.85
51.10
18.33
-13.36
-40.72
-60.77
-71.28
-71.34
-61.64
-44.36
-22.79
-0.74
18.15
31.11
36.66
34.81
26.73
14.36
-0.16
-14.87
-28.01
-38.16
-44.16
-45.37
-42.02
-35.51
-28.31
-23.33
-22.84
-27.45
-35.84
-45.35
-53.18
-57.75
-59.05
-58.20
-56.08
-52.51
-46.13
-35.35
-19.59
-0.13
20.13
37.74
50.11
56.45
57.76
56.07
53.31
50.52
47.51
43.34
37.06
28.35
17.77
6.38
-4.92
-15.84
-26.70
-37.94
-49.34
-59.59
-66.66
-68.66
-64.86
-56.26
-45.38
-35.43
-29.36
-29.10
-35.15
-46.28
-59.62
-71.05
-76.18
-71.69
-56.50
-32.11
-2.02
29.77
60.06
87.12
110.18
128.65
141.48
147.35
145.51
136.57
122.81
107.37
93.10
81.48
72.37
64.52
56.46
47.45
37.75
28.38
20.30
13.81
8.34
2.70
-4.34
-13.44
-24.53
-36.89
-49.48
-61.24
-71.10
-78.00
-80.80
-78.39
-69.88
-54.98
-34.29
-9.43
17.15
42.45
63.52
78.10
85.28
85.75
81.57
75.46
70.03
66.98
66.81
68.83
71.82
74.47
76.01
76.30
75.71
74.71
73.39
71.40
68.03
62.53
54.54
44.32
32.91
21.95
13.28
8.48
8.57
13.61
22.55
33.50
44.28
52.98
58.48
60.62
59.89
56.96
52.33
46.17
38.64
30.14
21.50
13.77
7.79
3.61
0.38
-3.47
-9.49
-18.55
-30.48
-44.01
-57.34
-68.83
-77.66
-83.99
-88.73
-92.97
-97.50
-102.59
-108.11
-113.82
-119.56
-125.27
-130.64
-135.08
-137.79
-138.06
-135.61
-130.56
-123.15
-113.33
-100.66
-84.67
-65.22
-42.67
-17.59
9.68
39.15
70.50
102.25
131.27
153.53
165.86
167.47
160.15
146.96
130.11
109.90
85.13
54.85
19.90
-17.02
-53.03
-86.89
-119.66
-153.26
-188.01
-220.85
-245.78
-256.52
-249.80
-227.28
-194.74
-159.18
-125.59
-94.92
-64.39
-29.53
13.28
65.01
123.44
184.02
240.94
288.20
320.48
333.83
326.37
299.09
256.08
204.17
151.46
105.32
70.53
48.40
36.93
32.16
29.73
26.26
19.90
10.11
-2.74
-17.77
-33.57
-48.00
-58.42
-62.27
-58.29
-47.46
-33.07
-19.69
-11.34
-9.80
-14.02
-20.90
-27.07
-30.69
-32.29
-34.41
-40.25
-52.15
-70.58
-93.79
-118.51
-140.90
-157.80
-167.79
-171.76
-172.53
-173.66
-177.81
-185.43
-194.60
-201.81
-203.56
-197.60
-183.52
-162.31
-135.39
-103.97
-68.87
-30.77
9.33
50.06
89.83
127.21
161.28
191.64
218.22
241.25
260.90
277.09
289.24
296.20
296.74
290.15
276.93
258.96
238.95
219.35
201.44
185.00
168.81
151.75
133.65
115.43
98.41
83.45
70.37
58.12
45.71
32.95
20.81
10.90
4.51
1.70
0.92
-0.48
-5.13
-14.47
-28.03
-43.57
-58.05
-68.87
-74.79
-76.16
-74.20
-70.21
-65.03
-58.98
-52.48
-46.61
-42.96
-43.08
-47.45
-55.04
-63.63
-70.80
-75.06
-76.43
-76.05
-75.27
-74.60
-73.45
-70.58
-65.07
-57.23
-48.63
-41.33
-36.73
-34.58
-32.95
-29.08
-20.66
-7.04
10.50
29.29
46.43
59.98
69.39
75.27
78.81
81.05
82.61
83.78
84.65
85.12
84.57
81.46
73.44
57.96
33.30
-0.32
-40.34
-82.31
-121.26
-153.06
-175.41
-188.07
-192.34
-190.31
-184.01
-174.99
-164.28
-152.40
-139.58
-125.90
-111.43
-96.36
-81.05
-65.92
-51.37
-37.70
-25.12
-13.84
-4.11
3.78
9.84
14.48
18.48
22.70
27.55
32.56
36.39
37.35
34.31
27.55
18.89
11.05
6.56
6.60
10.57
16.55
22.31
26.40
28.60
29.56
30.11
30.35
29.52
26.31
19.81
10.26
-0.72
-10.65
-17.03
-18.47
-15.15
-8.73
-1.47
4.74
9.04
11.65
13.40
14.86
15.83
15.33
12.10
5.44
-4.29
-15.56
-25.99
-33.27
-35.89
-33.63
-27.42
-18.90
-9.78
-1.31
5.84
11.33
14.89
16.15
14.96
11.62
7.05
2.64
-0.22
-0.76
0.98
4.19
7.92
11.54
14.98
18.63
22.93
27.81
32.52
35.83
36.62
34.36
29.46
23.06
16.57
11.12
7.12
4.28
2.04
-0.05
-2.05
-3.66
-4.53
-4.60
-4.23
-3.99
-4.14
-4.30
-3.44
-0.36
5.69
14.32
23.97
32.33
37.43
38.39
35.83
31.51
27.54
25.44
25.71
27.91
31.30
35.41
40.17
45.80
52.27
58.78
63.86
65.74
63.26
56.35
46.13
34.48
23.21
13.23
4.28
-4.80
-15.22
-27.44
-40.76
-53.48
-63.59
-69.67
-71.48
-70.02
-66.90
-63.60
-60.81
-58.33
-55.44
-51.68
-47.38
-43.78
-42.33
-43.88
-48.14
-53.56
-58.08
-60.19
-59.69
-57.78
-56.19
-56.20
-57.97
-60.44
-62.08
-61.83
-59.69
-56.65
-53.90
-52.17
-51.34
-50.63
-49.12
-46.29
-42.10
-36.71
-29.98
-21.33
-10.11
3.79
19.35
34.40
46.38
53.49
55.93
56.28
58.80
67.69
85.19
109.80
135.89
154.91
158.10
140.07
101.54
50.30
-0.88
-38.59
-54.00
-46.44
-23.51
2.20
18.14
16.26
-5.01
-41.50
-85.86
-130.24
-167.91
-193.97
-205.47
-201.45
-183.24
-154.58
-121.02
-88.76
-63.08
-46.98
-40.59
-41.54
-45.82
-49.17
-48.30
-41.53
-28.94
-11.78
8.18
29.21
49.50
67.19
80.34
87.50
88.58
85.25
80.55
77.62
77.95
80.53
82.32
79.89
71.52
57.98
41.80
25.53
10.27
-4.45
-19.67
-35.23
-49.15
-58.51
-61.17
-56.91
-47.26
-34.25
-18.96
-1.31
19.23
42.22
65.64
86.53
102.33
111.99
116.17
116.39
114.02
109.61
103.10
94.68
85.45
77.65
74.09
76.90
86.61
101.41
117.34
129.40
133.10
125.83
107.59
80.68
49.02
16.96
-11.61
-33.82
-48.16
-54.63
-54.67
-50.69
-45.30
-40.61
-37.79
-36.97
-37.79
-39.90
-43.27
-48.05
-54.04
-60.22
-64.82
-65.90
-62.29
-54.41
-44.33
-34.97
-28.66
-26.09
-26.05
-26.19
-24.58
-20.93
-16.84
-14.93
-17.05
-23.12
-30.98
-37.55
-40.52
-39.58
-36.48
-33.86
-33.65
-36.03
-39.50
-41.75
-41.27
-38.29
-34.86
-33.84
-37.40
-45.89
-57.47
-68.86
-76.80
-79.43
-77.04
-71.91
-67.17
-65.60
-68.64
-76.16
-86.90
-99.25
-111.74
-123.16
-132.39
-138.46
-140.86
-139.93
-136.94
-133.51
-130.89
-129.37
-128.60
-128.26
-128.70
-130.75
-134.81
-139.65
-142.06
-137.70
-122.82
-95.77
-57.52
-10.93
40.30
92.27
140.75
180.73
206.68
213.74
199.71
166.52
120.28
69.66
23.40
-12.16
-34.14
-43.01
-41.24
-31.96
-18.07
-2.10
13.61
26.75
35.38
38.69
37.66
34.97
33.89
36.69
43.37
51.59
57.96
59.92
57.17
51.70
46.42
43.25
41.75
39.23
32.08
17.60
-4.69
-32.76
-62.75
-90.07
-110.41
-120.60
-119.23
-107.02
-86.75
-62.77
-39.82
-21.47
-9.02
-1.25
4.84
12.59
24.40
41.05
61.84
85.14
108.99
131.28
149.83
162.31
166.50
160.87
145.03
120.12
88.57
53.56
18.36
-14.27
-42.37
-64.80
-81.13
-91.41
-96.04
-95.66
-91.07
-83.17
-72.69
-59.99
-44.82
-26.33
-3.47
24.34
56.44
90.38
122.05
146.57
159.62
158.88
144.77
120.25
89.78
57.84
27.88
1.87
-19.35
-35.54
-46.73
-53.23
-55.97
-56.60
-57.13
-59.23
-63.48
-69.01
-73.85
-75.80
-73.44
-66.80
-57.51
-48.31
-42.22
-41.55
-47.18
-58.07
-71.37
-82.88
-88.07
-83.38
-67.42
-41.63
-10.03
21.92
49.08
68.23
78.79
82.43
81.94
79.90
77.94
76.69
76.24
76.71
78.33
81.16
84.64
87.37
87.48
83.30
74.11
60.52
44.32
27.85
13.16
1.31
-7.82
-15.21
-21.92
-28.41
-34.07
-37.49
-37.03
-31.46
-20.30
-3.89
16.80
40.25
64.32
86.28
103.12
112.34
112.86
105.63
93.43
79.78
67.53
57.72
49.50
40.83
29.83
15.76
-0.68
-17.83
-33.89
-47.59
-58.36
-66.04
-70.41
-71.10
-67.70
-60.35
-49.99
-38.44
-27.97
-20.62
-17.71
-19.54
-25.40
-33.72
-42.22
-48.21
-49.11
-43.18
-30.21
-11.96
8.28
26.73
40.42
48.15
50.65
49.87
48.02
46.65
46.41
47.25
48.91
51.19
53.96
56.95
59.52
60.71
59.40
54.79
46.65
35.50
22.52
9.25
-2.79
-12.42
-18.90
-21.99
-21.79
-18.63
-13.03
-5.70
2.50
10.74
18.47
25.81
33.44
42.41
53.45
66.34
79.63
90.93
97.75
98.43
92.88
82.48
69.56
56.40
44.48
34.13
24.93
16.17
7.48
-1.02
-8.86
-15.53
-20.63
-23.95
-25.32
-24.54
-21.42
-16.07
-8.99
-1.26
5.72
10.61
12.51
11.29
7.48
2.06
-3.90
-9.62
-14.83
-19.76
-24.92
-30.72
-36.95
-42.68
-46.29
-46.03
-40.72
-30.37
-16.30
-0.83
13.46
24.47
31.21
33.83
33.40
31.39
29.24
27.96
28.07
29.48
31.74
34.11
35.77
36.01
34.34
30.59
24.90
17.74
9.77
1.74
-5.67
-11.89
-16.51
-19.26
-20.04
-18.95
-16.34
-12.80
-9.04
-5.71
-3.23
-1.83
-1.60
-2.66
-5.10
-8.86
-13.41
-17.66
-20.17
-19.55
-15.01
-6.70
4.33
16.40
27.72
36.78
42.62
44.82
43.44
38.89
31.79
22.98
13.42
4.13
-4.01
-10.35
-14.65
-17.10
-18.23
-18.67
-18.95
-19.28
-19.59
-19.63
-19.16
-18.10
-16.58
-14.85
-13.31
-12.37
-12.41
-13.69
-16.32
-20.24
-25.18
-30.59
-35.60
-38.99
-39.38
-35.52
-26.83
-13.76
2.18
18.75
33.75
45.66
53.94
58.87
60.98
60.58
57.63
51.99
43.82
33.85
23.25
13.26
4.78
-1.82
-6.62
-9.86
-11.72
-12.32
-11.78
-10.43
-8.75
-7.30
-6.52
-6.66
-7.78
-9.85
-12.84
-16.75
-21.54
-27.05
-32.89
-38.35
-42.42
-43.92
-41.83
-35.69
-25.81
-13.42
-0.26
11.93
21.97
29.44
34.56
37.85
39.71
40.29
39.58
37.75
35.25
32.78
30.97
30.07
29.77
29.23
27.55
24.14
19.00
12.69
6.09
-0.04
-5.31
-9.79
-13.86
-17.94
-22.27
-26.86
-31.50
-35.96
-40.05
-43.74
-46.92
-49.31
-50.33
-49.22
-45.37
-38.60
-29.42
-18.87
-8.21
1.46
9.52
15.77
20.29
23.11
24.17
23.37
20.76
16.69
11.80
6.81
2.26
-1.55
-4.65
-7.22
-9.43
-11.35
-12.95
-14.14
-14.88
-15.28
-15.61
-16.31
-17.83
-20.51
-24.42
-29.29
-34.50
-39.24
-42.55
-43.54
-41.46
-35.85
-26.73
-14.66
-0.78
13.44
26.44
37.02
44.52
48.87
50.41
49.67
47.13
43.28
38.55
33.37
28.16
23.24
18.78
14.78
11.16
7.81
4.68
1.78
-0.80
-2.96
-4.66
-5.99
-7.23
-8.81
-11.30
-15.15
-20.57
-27.31
-34.58
-41.19
-45.83
-47.44
-45.55
-40.45
-33.04
-24.60
-16.33
-9.07
-3.08
1.88
6.36
10.95
15.93
21.18
26.19
30.27
32.88
33.83
33.29
31.64
29.20
26.14
22.54
18.58
14.73
11.69
10.14
10.35
11.99
14.25
16.14
16.84
15.94
13.43
9.52
4.49
-1.40
-7.81
-14.20
-19.79
-23.59
-24.69
-22.58
-17.45
-10.24
-2.38
4.71
10.14
13.83
16.31
18.23
19.90
21.12
21.38
20.33
18.13
15.39
12.79
10.59
8.50
5.92
2.44
-1.78
-5.97
-9.17
-10.85
-11.25
-11.35
-12.42
-15.45
-20.79
-27.93
-35.74
-42.79
-47.63
-49.07
-46.45
-39.69
-29.39
-16.70
-3.09
9.99
21.41
30.54
37.23
41.69
44.30
45.50
45.75
45.53
45.32
45.60
46.81
49.21
52.70
56.81
60.69
63.34
63.95
62.17
58.24
52.79
46.60
40.18
33.73
27.14
20.20
12.81
5.09
-2.60
-9.60
-15.01
-17.83
-17.24
-13.00
-5.61
3.65
13.11
21.18
26.73
29.31
29.03
26.31
21.70
15.78
9.18
2.62
-3.21
-7.73
-10.67
-12.15
-12.66
-12.84
-13.35
-14.58
-16.65
-19.40
-22.55
-25.88
-29.30
-32.88
-36.72
-40.86
-45.19
-49.39
-53.03
-55.57
-56.48
-55.34
-52.00
-46.62
-39.78
-32.38
-25.43
-19.80
-15.99
-14.05
-13.68
-14.37
-15.56
-16.75
-17.51
-17.47
-16.42
-14.36
-11.59
-8.62
-5.98
-4.06
-2.90
-2.31
-1.91
-1.40
-0.64
0.26
1.01
1.15
0.15
-2.42
-6.73
-12.50
-18.94
-24.93
-29.26
-30.98
-29.71
-25.71
-19.76
-12.88
-5.97
0.33
5.70
10.01
13.18
15.13
15.78
15.19
13.59
11.34
8.79
6.12
3.28
0.10
-3.54
-7.55
-11.59
-15.20
-17.97
-19.63
-20.21
-19.92
-19.03
-17.76
-16.10
-13.78
-10.36
-5.34
1.60
10.49
21.03
32.67
44.83
56.92
68.40
78.73
87.38
93.85
97.76
99.00
97.72
94.28
89.17
82.82
75.56
67.58
59.00
49.91
40.41
30.73
21.20
12.28
4.49
-1.72
-6.12
-8.80
-10.12
-10.56
-10.52
-10.23
-9.66
-8.51
-6.28
-2.36
3.78
12.36
23.07
35.03
46.83
56.82
63.52
65.96
63.94
58.00
49.23
38.95
28.38
18.40
9.47
1.52
-5.84
-13.22
-21.05
-29.27
-37.10
-43.10
-45.66
-43.96
-38.79
-32.97
-30.82
-36.84
-53.95
-82.16
-118.07
-155.62
-187.69
-208.04
-212.85
-201.48
-176.15
-140.94
-100.39
-58.33
-17.30
21.32
56.77
88.22
114.66
135.04
148.55
154.88
154.13
146.75
133.70
116.89
99.54
85.89
79.98
83.90
96.30
112.14
124.27
126.00
113.79
88.57
55.25
20.45
-9.90
-32.49
-47.11
-55.86
-61.86
-68.33
-78.27
-94.27
-118.06
-149.25
-184.35
-217.15
-240.29
-248.10
-238.94
-215.85
-185.20
-154.24
-128.64
-111.45
-103.36
-103.45
-109.95
-120.34
-131.34
-139.28
-141.06
-135.33
-123.14
-107.74
-93.16
-82.69
-77.18
-74.43
-69.58
-56.66
-30.89
9.26
61.13
118.58
173.96
220.29
253.01
270.08
271.16
256.60
226.74
181.91
122.90
51.67
-27.88
-109.50
-184.93
-245.31
-283.42
-295.95
-284.61
-255.39
-216.05
-173.09
-129.48
-84.54
-35.81
18.31
76.48
133.90
183.48
218.02
232.48
225.60
200.47
163.75
123.88
88.35
61.67
44.57
34.77
29.03
25.10
22.60
22.60
26.15
33.00
41.25
48.09
51.16
49.83
45.46
40.55
37.38
36.75
37.50
37.14
33.18
24.67
13.08
1.84
-5.08
-5.14
1.59
12.39
23.34
31.28
35.19
36.32
37.07
39.29
43.20
47.32
49.43
47.87
42.27
33.52
22.93
11.20
-2.16
-18.52
-39.21
-64.23
-91.50
-117.31
-137.82
-151.04
-158.05
-162.76
-169.77
-181.75
-197.54
-212.37
-220.02
-215.95
-199.38
-173.31
-142.63
-111.33
-80.36
-47.33
-8.23
39.90
96.72
157.75
215.32
260.94
287.61
291.78
273.85
237.72
189.65
136.95
87.06
46.47
19.50
7.29
6.97
12.02
13.91
4.88
-19.26
-57.51
-103.85
-149.15
-183.87
-200.93
-197.35
-174.34
-135.92
-86.76
-30.38
31.28
96.81
163.59
226.40
277.73
309.88
318.06
302.87
270.58
231.10
194.48
167.35
151.03
142.24
135.52
125.98
111.22
91.49
68.45
43.39
16.24
-14.16
-48.58
-85.55
-120.84
-148.37
-162.45
-160.07
-141.78
-110.70
-70.34
-23.01
30.11
87.12
143.36
190.95
220.63
225.43
203.73
160.35
104.59
46.50
-6.63
-52.09
-91.29
-127.89
-165.27
-204.50
-243.51
-277.57
-300.72
-307.55
-294.80
-262.14
-212.21
-149.66
-80.45
-11.24
50.82
98.48
125.41
128.00
107.14
68.88
23.24
-18.71
-48.50
-62.87
-64.34
-59.66
-57.02
-62.81
-79.15
-103.44
-129.34
-148.81
-154.57
-142.29
-111.94
-68.01
-18.37
27.46
60.46
74.39
67.29
42.32
7.20
-27.81
-53.27
-63.98
-61.07
-51.29
-43.67
-44.97
-56.41
-73.32
-87.86
-92.66
-83.56
-60.05
-23.93
22.06
74.37
127.72
174.60
206.29
215.31
198.34
157.62
100.21
35.30
-28.64
-85.59
-132.48
-168.49
-193.95
-209.38
-214.76
-209.14
-190.59
-156.70
-105.68
-37.66
44.40
134.75
226.04
310.92
383.50
440.01
478.69
499.30
502.74
490.98
467.05
434.97
399.05
363.10
329.49
298.71
269.65
240.42
209.54
176.62
142.60
109.12
77.71
48.94
22.09
-4.66
-33.47
-66.04
-102.93
-143.33
-185.20
-225.75
-262.29
-293.14
-318.38
-340.23
-362.73
-390.51
-426.91
-472.07
-521.78
-568.03
-601.20
-613.14
-599.76
-562.16
-505.59
-437.09
-363.07
-287.89
-213.74
-141.44
-71.29
-3.75
60.36
119.71
172.41
215.92
247.38
264.28
265.50
251.93
226.38
192.98
156.19
120.16
88.43
63.98
48.99
44.26
48.44
57.75
66.69
69.77
63.47
47.88
26.72
5.84
-9.21
-14.89
-10.10
4.59
28.05
59.08
96.09
136.28
175.39
207.99
228.78
233.92
222.11
194.95
156.89
114.24
73.56
39.86
15.09
-2.36
-16.67
-32.66
-53.74
-80.68
-111.78
-143.77
-172.88
-195.49
-208.67
-210.65
-201.44
-183.28
-160.62
-139.14
-124.11
-118.63
-122.56
-132.44
-142.50
-146.58
-140.20
-122.23
-95.32
-64.89
-37.08
-16.60
-5.41
-2.74
-6.33
-13.82
-23.53
-34.40
-45.37
-54.91
-61.15
-62.62
-59.11
-51.88
-43.16
-35.08
-28.83
-24.50
-21.68
-20.44
-21.91
-27.80
-39.45
-56.65
-77.49
-99.19
-119.78
-139.34
-160.01
-184.35
-212.82
-241.98
-264.75
-273.00
-261.12
-228.84
-181.67
-128.54
-78.07
-35.23
-0.09
30.89
62.26
97.23
136.74
179.86
224.60
268.33
307.68
338.38
355.90
356.68
339.23
304.57
255.25
193.82
121.66
39.53
-50.55
-143.13
-228.77
-295.71
-333.52
-337.26
-310.29
-264.32
-216.07
-181.59
-170.38
-181.92
-206.59
-230.37
-241.30
-234.24
-211.72
-180.83
-148.90
-119.88
-94.07
-70.18
-47.72
-28.01
-13.21
-4.76
-2.43
-4.79
-10.13
-16.78
-22.93
-26.17
-24.15
-15.88
-3.07
9.96
18.35
19.54
15.03
9.61
8.44
14.00
24.76
36.13
43.56
45.06
42.08
38.40
37.94
42.96
53.11
66.21
79.54
91.08
100.31
108.15
116.23
125.74
136.42
145.95
150.59
146.45
131.32
105.91
74.19
42.23
16.20
0.22
-5.00
-2.03
4.51
10.11
12.26
11.28
9.85
11.15
17.07
27.09
38.47
47.72
52.30
51.75
47.77
43.54
42.32
46.20
55.28
67.93
81.80
94.88
106.29
116.13
124.83
132.32
137.88
140.77
140.99
139.72
138.81
139.53
141.38
141.61
135.96
120.52
93.59
56.76
14.46
-27.39
-63.19
-89.17
-104.00
-108.52
-104.73
-95.02
-81.61
-66.52
-51.58
-38.24
-27.38
-18.95
-12.22
-6.45
-1.62
1.30
1.01
-3.25
-10.93
-20.10
-28.11
-32.76
-33.19
-30.11
-25.26
-20.32
-16.20
-12.71
-9.03
-4.34
1.60
8.52
15.99
23.88
32.45
41.98
52.17
61.65
68.22
69.55
64.25
52.53
36.35
18.87
3.46
-7.09
-11.15
-8.31
0.93
15.57
34.44
56.30
79.64
102.63
123.21
139.58
150.86
157.51
161.11
163.64
166.49
169.73
172.10
171.62
166.41
155.51
139.21
119.02
97.26
76.47
58.89
45.79
37.08
31.13
25.16
16.12
1.85
-17.90
-41.10
-63.96
-82.15
-92.21
-92.64
-84.19
-69.30
-51.13
-32.56
-15.62
-1.37
9.83
18.04
23.61
27.08
29.18
30.60
31.91
33.31
34.63
35.47
35.44
34.35
32.21
29.26
25.82
22.16
18.48
14.82
11.12
7.25
3.14
-1.10
-5.20
-8.80
-11.62
-13.68
-15.31
-17.02
-19.25
-22.09
-25.16
-27.70
-28.75
-27.51
-23.54
-16.93
-8.17
1.89
12.30
22.16
30.70
37.39
41.92
44.27
44.71
43.81
42.31
40.95
40.25
40.38
41.15
42.19
43.12
43.76
44.08
44.20
44.20
44.03
43.53
42.54
41.04
39.21
37.24
35.26
33.18
30.70
27.48
23.41
18.82
14.40
11.04
9.40
9.68
11.52
14.24
17.17
19.92
22.51
25.11
27.87
30.67
33.15
34.84
35.43
34.80
33.07
30.52
27.42
24.04
20.65
17.45
14.54
11.90
9.40
6.90
4.40
2.01
-0.08
-1.83
-3.43
-5.39
-8.32
-12.77
-18.94
-26.62
-35.13
-43.61
-51.09
-56.78
-60.03
-60.46
-57.94
-52.61
-44.93
-35.64
-25.65
-15.87
-6.97
0.70
7.09
12.29
16.38
19.24
20.71
20.63
19.14
16.65
13.89
11.66
10.56
10.85
12.34
14.48
16.58
18.00
18.30
17.28
14.97
11.49
7.08
2.05
-3.25
-8.45
-13.26
-17.53
-21.26
-24.52
-27.28
-29.28
-30.09
-29.23
-26.43
-21.82
-15.91
-9.45
-3.13
2.63
7.72
12.22
16.23
19.70
22.42
24.11
24.57
23.76
21.80
18.94
15.47
11.75
8.11
4.87
2.29
0.51
-0.53
-1.00
-1.23
-1.57
-2.33
-3.77
-6.01
-9.05
-12.82
-17.14
-21.78
-26.45
-30.79
-34.36
-36.73
-37.52
-36.52
-33.73
-29.42
-24.03
-18.07
-12.00
-6.23
-1.07
3.15
6.13
7.64
7.61
6.24
3.99
1.50
-0.59
-1.86
-2.16
-1.73
-1.00
-0.50
-0.61
-1.43
-2.70
-3.91
-4.50
-4.14
-3.08
-2.13
-2.48
-5.30
-11.24
-20.18
-31.17
-42.72
-53.13
-60.89
-64.91
-64.67
-60.23
-52.17
-41.44
-29.18
-16.46
-4.10
7.24
16.99
24.44
28.81
29.41
26.01
19.18
10.19
0.77
-7.46
-13.41
-16.68
-17.50
-16.47
-14.39
-12.06
-10.33
-9.87
-11.06
-13.75
-17.30
-20.78
-23.50
-25.26
-26.51
-28.06
-30.61
-34.28
-38.49
-42.12
-43.93
-43.00
-39.03
-32.34
-23.69
-14.07
-4.42
4.42
11.83
17.38
20.85
22.26
21.77
19.62
16.06
11.28
5.47
-1.10
-8.00
-14.65
-20.49
-25.14
-28.68
-31.64
-34.91
-39.33
-45.34
-52.77
-60.86
-68.57
-75.04
-79.80
-82.87
-84.53
-85.12
-84.83
-83.73
-81.83
-79.13
-75.52
-70.67
-64.03
-55.06
-43.57
-30.04
-15.62
-1.74
10.42
20.28
27.96
33.85
38.16
40.57
40.33
36.83
30.12
21.19
11.74
3.59
-1.90
-4.14
-3.21
0.44
6.21
13.40
21.15
28.36
33.80
36.38
35.37
30.50
21.98
10.32
-3.63
-18.67
-33.19
-45.40
-53.75
-57.42
-56.59
-52.32
-46.05
-38.91
-31.30
-22.86
-12.91
-1.14
12.02
25.40
37.50
47.08
53.52
56.75
56.95
54.23
48.59
40.22
29.91
19.11
9.78
3.60
1.41
2.77
6.21
9.91
12.47
13.36
12.92
11.77
10.19
7.74
3.52
-3.11
-11.77
-20.83
-27.92
-31.02
-29.40
-24.08
-17.30
-11.49
-8.17
-7.38
-7.85
-7.87
-6.12
-2.23
3.32
9.67
16.13
22.43
28.58
34.58
40.28
45.42
49.89
53.78
57.29
60.28
62.03
61.23
56.56
47.24
33.59
17.11
0.05
-15.25
-27.02
-34.57
-38.35
-39.50
-39.24
-38.18
-36.00
-31.65
-24.34
-14.42
-3.74
5.13
10.46
12.27
12.34
12.99
15.48
19.07
21.57
20.77
16.01
9.18
3.41
1.16
2.88
6.75
9.84
9.69
5.35
-2.39
-10.48
-15.72
-15.96
-10.83
-1.71
9.03
18.95
26.28
30.24
32.79
36.53
43.53
54.81
70.07
88.46
109.19
131.62
155.29
182.19
214.33
252.66
296.09
340.91
381.53
411.88
427.28
411.92
358.38
269.78
160.12
48.75
-48.76
-125.92
-184.21
-228.87
-265.40
-295.69
-319.83
-338.60
-351.95
-358.56
-355.88
-341.56
-315.62
-281.40
-242.87
-203.91
-166.50
-131.17
-97.47
-64.82
-33.75
-6.31
14.68
28.09
34.11
33.70
27.81
17.07
2.33
-14.51
-30.62
-42.88
-48.72
-47.56
-40.94
-31.56
-22.09
-14.24
-8.74
-5.72
-5.22
-7.06
-10.86
-15.80
-20.77
-24.85
-27.99
-31.22
-36.04
-43.48
-53.19
-63.44
-71.88
-77.05
-79.32
-80.75
-84.11
-91.22
-101.74
-112.93
-120.55
-120.57
-110.95
-92.76
-69.99
-48.14
-31.92
-23.27
-20.61
-19.70
-15.74
-5.45
11.93
34.99
61.43
89.27
117.26
144.49
169.59
190.46
204.70
210.47
207.26
196.06
179.08
158.89
137.76
117.11
97.31
78.05
58.85
39.69
21.35
5.20
-7.38
-15.62
-19.82
-21.20
-21.32
-21.41
-21.92
-22.49
-22.28
-20.55
-16.97
-11.85
-5.89
0.05
5.34
9.69
13.15
15.93
18.14
19.67
20.14
19.06
16.12
11.44
5.63
-0.33
-5.45
-9.08
-11.19
-12.30
-13.23
-14.61
-16.58
-18.82
-20.73
-21.90
-22.34
-22.51
-23.01
-24.28
-26.33
-28.82
-31.39
-33.79
-36.08
-38.35
-40.58
-42.38
-43.10
-42.10
-39.07
-34.21
-28.15
-21.80
-15.97
-11.14
-7.43
-4.72
-2.83
-1.75
-1.63
-2.71
-5.08
-8.55
-12.62
-16.55
-19.62
-21.18
-20.80
-18.28
-13.65
-7.39
-0.39
6.12
10.83
12.86
12.13
9.34
5.62
1.89
-1.56
-5.07
-9.12
-13.78
-18.39
-21.75
-22.62
-20.27
-14.71
-6.54
3.46
14.67
26.63
38.91
50.88
61.81
71.00
78.06
83.03
86.26
88.17
89.06
89.08
88.28
86.84
85.15
83.79
83.41
84.48
87.19
91.43
96.87
102.96
109.03
114.23
117.59
118.21
115.43
109.04
99.35
87.02
72.90
57.83
42.60
27.95
14.72
3.67
-4.62
-9.89
-12.24
-11.98
-9.50
-5.27
0.11
5.78
10.63
13.55
13.75
11.05
5.92
-0.72
-7.94
-15.00
-21.60
-27.74
-33.63
-39.47
-45.38
-51.32
-57.07
-62.25
-66.41
-69.22
-70.49
-70.26
-68.69
-65.98
-62.34
-57.98
-53.17
-48.19
-43.25
-38.39
-33.46
-28.22
-22.50
-16.40
-10.29
-4.80
-0.60
1.79
2.16
0.63
-2.40
-6.38
-10.63
-14.53
-17.57
-19.46
-20.15
-19.86
-19.09
-18.49
-18.64
-19.89
-22.20
-25.20
-28.30
-31.04
-33.21
-34.93
-36.46
-38.01
-39.53
-40.75
-41.31
-41.02
-39.97
-38.44
-36.54
-34.06
-30.41
-24.96
-17.41
-8.14
1.83
11.21
18.95
24.61
28.38
30.81
32.39
33.26
33.24
32.03
29.60
26.39
23.25
21.23
21.20
23.45
27.64
32.94
38.39
43.40
47.93
52.50
57.90
64.67
72.81
81.69
90.30
97.69
103.42
107.79
111.69
116.03
121.20
126.71
131.42
133.92
132.99
127.73
117.39
101.05
77.80
47.51
11.72
-26.26
-62.23
-93.01
-117.77
-138.15
-156.68
-174.57
-190.43
-200.83
-202.18
-193.01
-174.76
-151.12
-126.37
-103.84
-85.56
-72.57
-65.50
-64.61
-69.64
-79.99
-95.12
-114.81
-138.42
-163.67
-185.61
-197.17
-191.56
-165.40
-120.82
-65.05
-7.51
43.91
85.34
117.15
141.95
162.09
178.21
189.23
193.68
190.78
180.95
165.34
145.25
121.64
94.94
65.42
33.63
0.74
-31.25
-59.64
-81.44
-94.29
-97.24
-91.34
-79.47
-65.46
-52.87
-43.90
-39.04
-37.48
-38.02
-39.75
-42.22
-45.11
-47.81
-49.40
-49.18
-47.37
-45.45
-46.01
-51.77
-64.70
-85.39
-113.03
-145.89
-182.03
-219.61
-256.85
-291.67
-321.61
-344.20
-357.62
-361.25
-355.75
-342.49
-322.67
-296.86
-265.03
-227.28
-184.75
-139.95
-96.45
-57.80
-26.37
-2.70
14.15
25.67
33.13
37.42
39.59
41.50
45.65
54.19
67.25
82.02
93.40
96.35
88.71
72.94
55.45
43.43
41.31
48.66
61.01
72.80
80.79
85.78
91.77
103.30
122.59
148.33
176.30
201.57
220.45
231.37
234.52
230.85
221.41
207.24
189.94
171.94
156.09
144.72
138.65
136.68
135.81
132.41
123.62
108.69
89.21
68.69
51.30
40.28
36.85
39.86
46.37
52.89
56.70
56.48
52.47
45.81
37.78
29.32
20.98
13.11
6.21
0.91
-2.23
-3.04
-1.90
0.32
2.54
3.80
3.61
1.97
-0.77
-4.05
-7.29
-10.02
-11.85
-12.58
-12.26
-11.18
-9.86
-8.85
-8.56
-9.13
-10.41
-12.08
-13.81
-15.34
-16.48
-17.11
-17.08
-16.17
-14.04
-10.27
-4.53
3.31
13.08
24.34
36.55
49.13
61.62
73.46
83.97
92.15
96.83
97.03
92.29
83.04
70.58
56.73
43.31
31.65
22.41
15.64
11.13
8.60
7.68
7.86
8.18
7.43
4.52
-1.02
-8.68
-17.19
-25.04
-31.12
-35.13
-37.50
-38.91
-39.74
-39.79
-38.48
-35.23
-29.87
-22.77
-14.78
-6.81
0.42
6.61
11.81
16.28
20.27
23.86
26.98
29.55
31.71
33.89
36.67
40.50
45.48
51.22
57.11
62.62
67.65
72.60
78.09
84.68
92.60
101.64
111.18
120.04
126.63
129.24
126.59
118.31
105.35
89.67
73.48
58.28
44.25
30.09
13.58
-7.39
-33.97
-65.88
-101.63
-138.98
-175.25
-207.42
-232.21
-246.27
-246.89
-232.80
-204.78
-165.94
-121.18
-76.11
-35.95
-4.47
16.40
26.57
27.51
21.83
12.88
4.14
-1.28
-1.61
3.00
10.32
16.27
15.51
2.68
-26.01
-71.07
-128.36
-189.19
-242.00
-275.47
-281.97
-259.87
-213.85
-152.87
-86.98
-24.32
30.22
74.71
108.74
132.30
145.62
149.76
147.19
141.43
135.68
131.33
127.30
120.73
108.59
89.60
65.23
39.20
15.99
-1.07
-11.02
-15.34
-17.19
-20.13
-26.62
-37.33
-50.98
-65.07
-77.02
-85.16
-89.31
-90.52
-90.26
-89.41
-87.89
-84.95
-79.89
-72.79
-64.58
-56.53
-49.43
-43.11
-36.64
-29.14
-20.64
-12.36
-6.34
-4.42
-7.27
-13.91
-21.99
-28.72
-31.98
-30.94
-26.03
-18.53
-9.85
-1.13
6.71
12.89
16.73
17.91
16.74
14.31
12.13
11.47
12.71
15.09
17.14
17.38
15.04
10.30
4.10
-2.36
-8.01
-12.25
-14.94
-16.37
-17.13
-17.96
-19.53
-22.10
-25.33
-28.23
-29.51
-28.01
-23.25
-15.61
-6.17
3.71
12.86
20.56
26.54
30.75
33.20
33.83
32.63
29.82
25.94
21.70
17.86
14.98
13.31
12.77
12.98
13.44
13.55
12.80
10.91
7.92
4.16
0.10
-3.96
-7.90
-11.80
-15.65
-19.05
-21.15
-20.88
-17.39
-10.51
-0.93
10.02
20.82
30.22
37.44
42.14
44.16
43.44
39.98
34.07
26.40
18.08
10.32
4.09
-0.25
-2.94
-4.59
-5.78
-6.78
-7.55
-7.99
-8.23
-8.85
-10.69
-14.53
-20.58
-28.35
-36.69
-44.14
-49.42
-51.72
-50.89
-47.32
-41.86
-35.57
-29.57
-24.77
-21.64
-20.07
-19.34
-18.49
-16.66
-13.59
-9.72
-5.95
-3.20
-1.97
-2.11
-2.99
-3.81
-3.98
-3.28
-1.75
0.43
3.05
5.81
8.30
9.88
9.88
7.79
3.62
-2.08
-8.15
-13.14
-15.68
-14.88
-10.60
-3.52
5.12
13.95
21.94
28.62
34.12
38.78
42.87
46.30
48.70
49.68
49.15
47.36
44.84
42.14
39.54
37.02
34.35
31.40
28.25
25.19
22.57
20.53
18.86
17.07
14.59
11.09
6.60
1.52
-3.59
-8.22
-12.01
-14.78
-16.39
-16.69
-15.60
-13.14
-9.61
-5.47
-1.19
2.97
7.12
11.51
16.37
21.52
26.43
30.42
33.06
34.48
35.37
36.67
39.07
42.70
47.05
51.15
54.05
55.11
54.21
51.65
47.99
43.82
39.59
35.59
31.86
28.35
24.89
21.29
17.35
13.00
8.41
4.13
1.08
0.29
2.69
8.68
17.97
29.46
41.50
52.33
60.45
64.97
65.68
63.10
58.27
52.57
47.25
43.25
40.95
40.08
39.83
39.20
37.44
34.49
31.22
28.67
27.84
29.25
32.79
37.85
43.64
49.50
54.99
59.89
63.13
63.46
59.93
52.48
42.17
30.82
20.50
13.19
11.00
14.38
22.83
34.65
46.70
54.73
54.21
41.83
16.75
-18.39
-60.61
-106.61
-153.65
-199.82
-243.74
-284.30
-320.55
-351.99
-369.32
-365.36
-336.86
-287.41
-226.02
-162.67
-104.40
-54.47
-17.17
8.82
22.20
20.54
2.48
-29.95
-70.59
-110.63
-138.37
-145.74
-129.90
-95.99
-53.43
-11.58
24.14
53.67
80.57
108.94
140.17
172.96
202.97
226.04
240.01
244.85
241.39
230.02
210.40
182.04
146.81
109.05
75.35
52.33
43.94
49.98
66.69
88.98
112.45
134.77
154.80
171.60
183.66
189.28
187.75
180.49
171.00
163.68
162.25
168.27
180.39
194.90
206.92
211.94
207.27
192.88
171.41
147.23
124.71
106.59
93.26
83.01
73.30
62.06
48.37
32.37
14.78
-3.49
-21.39
-37.76
-51.52
-62.15
-70.16
-77.00
-84.41
-93.66
-104.81
-116.91
-128.74
-139.77
-150.82
-164.12
-182.92
-210.18
-247.13
-291.61
-337.18
-373.66
-389.57
-376.18
-331.50
-262.25
-182.26
-108.03
-53.12
-24.41
-21.50
-39.23
-70.98
-110.90
-154.06
-195.59
-230.30
-253.99
-265.62
-268.65
-269.86
-276.15
-290.57
-310.52
-329.24
-339.70
-338.52
-327.45
-311.86
-297.21
-285.99
-276.86
-266.02
-249.79
-226.37
-196.18
-160.83
-121.76
-79.37
-33.31
16.84
70.57
126.10
180.47
230.27
272.69
306.41
332.09
352.11
369.44
386.22
402.75
417.32
427.24
430.24
425.69
414.79
399.89
383.32
366.55
350.10
334.01
318.32
303.22
288.77
274.29
258.27
238.94
215.22
187.58
158.07
129.49
103.97
81.73
60.83
37.97
9.92
-25.07
-66.79
-113.57
-163.44
-215.24
-269.32
-327.30
-390.86
-459.89
-531.06
-597.37
-649.52
-678.63
-679.41
-652.13
-602.47
-539.18
-470.84
-403.29
-338.81
-277.22
-217.70
-160.03
-104.47
-50.99
1.36
53.94
107.08
158.69
204.19
238.02
256.02
257.72
246.84
229.98
214.04
203.64
199.83
200.47
201.89
200.60
194.53
183.26
167.79
150.03
132.38
117.16
106.06
99.55
96.74
95.62
93.92
90.01
83.29
74.07
62.95
50.40
36.61
21.80
6.69
-7.47
-19.26
-27.58
-31.85
-31.92
-27.77
-19.52
-7.65
6.62
21.30
33.92
42.32
45.35
43.02
36.32
26.53
14.77
1.71
-12.27
-26.95
-42.08
-57.29
-72.00
-85.33
-96.15
-103.51
-107.19
-108.25
-108.98
-111.95
-118.59
-127.99
-136.65
-139.56
-132.21
-112.35
-80.57
-39.67
6.69
54.89
101.49
142.74
174.58
193.19
196.35
184.36
159.74
125.62
83.86
34.39
-23.36
-87.72
-152.72
-208.37
-243.50
-250.05
-226.46
-178.50
-117.16
-54.71
-0.98
38.84
64.26
77.82
83.14
83.50
81.43
78.90
77.70
79.29
84.32
92.21
101.39
110.19
118.39
127.79
141.52
162.00
188.68
217.06
239.96
250.23
243.73
220.98
186.64
147.27
108.88
75.29
47.91
26.48
10.05
-2.40
-11.88
-19.49
-26.49
-34.13
-43.34
-54.40
-66.69
-78.78
-88.75
-94.78
-95.74
-91.68
-83.81
-74.04
-64.27
-55.63
-48.25
-41.44
-34.30
-26.37
-18.08
-10.61
-5.49
-3.88
-6.13
-11.56
-18.77
-26.13
-32.34
-36.72
-39.23
-40.38
-40.86
-41.38
-42.42
-44.14
-46.29
-48.31
-49.51
-49.34
-47.58
-44.36
-40.02
-34.83
-28.83
-21.82
-13.71
-4.78
4.26
12.42
18.78
22.82
24.49
24.03
21.84
18.36
14.13
9.82
6.14
3.65
2.53
2.50
2.96
3.35
3.36
3.09
2.83
2.93
3.56
4.68
6.07
7.39
8.30
8.49
7.90
6.80
5.82
5.79
7.45
11.20
16.96
24.27
32.41
40.59
48.01
53.83
57.24
57.64
54.84
49.24
41.83
33.90
26.69
20.97
16.87
13.96
11.46
8.63
5.10
0.89
-3.63
-8.02
-12.05
-15.84
-19.86
-24.64
-30.46
-37.16
-44.10
-50.29
-54.77
-56.77
-55.92
-52.19
-45.95
-37.82
-28.70
-19.73
-12.10
-6.91
-4.83
-5.93
-9.61
-14.75
-19.99
-24.17
-26.61
-27.19
-26.19
-24.07
-21.21
-17.77
-13.87
-9.64
-5.37
-1.57
1.26
2.75
2.85
1.90
0.54
-0.45
-0.36
1.37
5.08
10.97
19.03
28.97
40.14
51.44
61.44
68.75
72.40
72.27
69.08
64.21
59.27
55.59
53.89
54.14
55.62
57.19
57.69
56.33
52.94
47.97
42.18
36.29
30.69
25.37
20.05
14.41
8.23
1.57
-5.34
-12.10
-18.17
-22.91
-25.74
-26.22
-24.09
-19.37
-12.28
-3.33
6.74
16.95
26.37
34.37
40.94
46.67
52.42
58.74
65.47
71.72
76.34
78.60
78.70
77.85
77.78
80.03
85.42
93.77
104.01
114.54
123.61
129.74
132.32
131.95
130.57
130.95
135.90
147.12
164.49
185.77
207.16
224.39
233.85
233.73
224.25
207.32
185.56
161.22
135.29
107.31
76.01
40.58
1.87
-36.81
-70.41
-93.48
-102.26
-96.56
-80.38
-61.13
-47.39
-45.89
-59.00
-84.03
-114.49
-142.91
-163.77
-174.99
-177.61
-174.03
-166.31
-155.35
-141.41
-125.15
-108.52
-94.41
-85.50
-82.90
-85.51
-90.59
-95.01
-96.75
-95.72
-93.67
-93.18
-96.19
-103.09
-112.52
-122.00
-129.35
-133.63
-135.42
-136.26
-137.61
-140.10
-143.48
-147.12
-150.50
-153.46
-156.01
-158.05
-159.31
-159.66
-159.47
-159.58
-160.89
-163.87
-168.24
-173.18
-177.72
-180.99
-182.31
-180.92
-175.92
-166.45
-152.11
-133.25
-110.93
-86.46
-60.76
-34.12
-6.55
21.65
49.34
74.69
95.96
112.41
124.74
134.64
143.80
152.73
160.36
164.56
163.41
156.40
144.85
131.35
118.39
107.19
97.31
87.26
75.66
62.32
48.35
35.69
26.25
21.16
20.56
23.81
29.85
37.50
45.53
52.69
57.82
60.16
59.55
56.60
52.50
48.53
45.66
44.19
43.76
43.64
43.03
41.48
39.07
36.45
34.57
34.33
36.25
40.35
46.27
53.49
61.53
70.18
79.52
89.96
102.09
116.36
132.49
149.01
163.12
171.41
170.92
160.35
140.52
113.89
83.22
50.30
15.61
-20.75
-57.58
-91.59
-117.97
-132.26
-132.74
-121.67
-104.82
-89.24
-80.59
-81.23
-89.88
-102.62
-114.75
-122.35
-123.25
-117.21
-105.60
-90.82
-75.57
-62.11
-51.65
-44.20
-38.73
-33.47
-26.37
-15.47
1.02
24.41
55.21
92.77
134.94
178.22
218.63
253.01
280.25
301.49
319.26
335.72
351.17
363.60
369.74
366.85
354.37
334.32
310.28
285.68
262.30
239.82
216.63
190.87
161.38
127.94
90.80
50.16
6.05
-41.26
-90.54
-139.30
-183.88
-220.63
-247.28
-263.94
-273.09
-278.40
-283.09
-288.45
-293.56
-296.02
-293.42
-284.64
-270.27
-252.22
-232.79
-213.76
-196.06
-179.89
-165.24
-152.21
-141.27
-132.93
-127.38
-124.12
-122.10
-120.16
-117.72
-115.03
-113.11
-112.90
-114.51
-116.81
-117.77
-115.37
-108.52
-97.69
-84.63
-71.72
-61.06
-53.88
-50.38
-49.85
-51.00
-52.22
-51.91
-48.65
-41.64
-30.74
-16.62
-0.59
15.70
30.42
41.81
48.38
49.14
43.87
33.37
19.39
4.31
-9.55
-20.67
-28.82
-34.94
-40.57
-46.90
-53.99
-60.59
-64.64
-64.33
-58.91
-49.16
-37.03
-24.87
-14.57
-7.05
-2.24
0.44
1.61
1.47
-0.22
-3.85
-9.58
-16.94
-24.74
-31.34
-35.16
-35.21
-31.34
-24.21
-14.88
-4.33
6.75
17.96
28.93
39.04
47.46
53.19
55.47
54.04
49.36
42.48
34.79
27.66
22.05
18.27
16.02
14.70
13.82
13.31
13.64
15.52
19.44
25.24
31.99
38.17
42.14
42.67
39.26
32.22
22.37
10.76
-1.80
-14.70
-27.50
-39.62
-50.10
-57.59
-60.67
-58.32
-50.44
-37.93
-22.49
-6.22
8.73
20.39
27.22
28.42
24.41
17.00
9.26
4.57
5.53
12.94
25.46
40.17
53.58
62.77
66.08
63.46
56.22
46.62
37.02
29.14
23.53
19.81
17.57
16.98
18.93
24.14
32.21
41.03
47.40
48.54
43.57
34.09
23.32
14.69
10.43
11.15
16.25
24.43
33.94
42.43
47.04
45.16
35.48
18.42
-4.04
-29.10
-54.08
-76.79
-95.32
-107.95
-113.44
-111.97
-105.54
-97.50
-90.96
-87.07
-84.41
-79.89
-70.78
-56.69
-40.14
-25.66
-17.62
-18.18
-26.21
-37.26
-44.68
-41.22
-21.11
17.97
73.44
137.39
197.99
242.35
260.24
246.93
204.43
140.75
67.71
-1.95
-57.27
-91.03
-100.63
-88.38
-60.64
-26.28
5.47
27.55
36.81
34.59
25.66
16.40
12.94
19.96
40.04
73.38
117.55
167.44
215.64
253.86
275.00
275.46
256.40
223.31
183.99
145.81
113.41
87.93
67.90
51.04
35.97
22.90
13.34
8.82
9.72
14.59
20.54
24.31
23.48
17.24
6.30
-7.63
-22.60
-36.92
-49.45
-59.41
-66.30
-69.93
-70.63
-69.41
-67.94
-68.08
-71.20
-77.54
-85.73
-92.94
-95.51
-90.21
-75.65
-53.24
-27.18
-3.31
12.83
17.93
12.04
-1.59
-17.83
-31.27
-37.58
-34.24
-20.63
2.09
30.73
59.99
83.05
93.13
85.76
60.72
22.67
-19.97
-57.75
-83.27
-93.34
-89.45
-76.28
-59.49
-43.81
-32.31
-26.65
-27.73
-35.78
-49.74
-66.57
-81.24
-88.12
-83.34
-66.98
-43.78
-21.66
-8.65
-9.45
-23.81
-47.12
-72.47
-93.36
-105.70
-108.42
-103.12
-93.01
-81.77
-72.68
-67.97
-68.36
-73.00
-79.61
-85.10
-86.48
-81.68
-69.94
-51.86
-29.16
-4.34
19.76
40.45
55.86
65.52
70.63
73.66
77.48
84.30
94.80
107.81
120.68
130.41
134.78
133.20
127.09
119.36
113.38
111.62
114.40
119.41
122.21
117.80
102.88
77.52
45.65
13.85
-11.12
-24.95
-27.30
-21.54
-13.03
-6.76
-5.56
-9.48
-16.62
-24.71
-32.36
-39.59
-47.34
-56.49
-67.19
-78.79
-90.55
-102.21
-114.06
-126.35
-138.31
-147.60
-150.84
-144.97
-128.93
-104.49
-75.82
-47.72
-23.76
-5.18
8.72
19.15
26.59
30.26
28.99
22.60
12.85
3.11
-2.82
-2.24
5.43
18.54
34.00
48.33
58.83
64.42
65.89
65.66
66.88
72.13
82.31
96.12
110.69
122.96
131.02
134.77
135.47
134.71
133.24
130.64
125.66
117.16
104.90
90.06
75.18
63.44
57.48
58.37
65.04
74.48
82.81
86.63
84.15
75.61
62.80
48.06
33.36
19.81
7.73
-2.92
-12.03
-19.10
-23.28
-23.74
-20.15
-13.02
-3.70
6.01
14.55
21.15
26.09
30.28
34.57
39.16
43.46
46.49
47.51
46.51
44.14
41.20
37.86
33.27
25.66
13.12
-5.68
-31.11
-62.71
-99.56
-140.40
-183.41
-225.73
-263.43
-292.30
-309.17
-313.40
-307.32
-295.44
-282.49
-271.49
-262.74
-254.31
-243.72
-229.49
-211.97
-192.72
-173.34
-154.37
-135.06
-114.01
-90.27
-64.17
-37.44
-12.53
8.37
24.14
35.04
42.44
48.13
53.60
59.63
66.19
72.65
78.23
82.35
84.83
85.76
85.32
83.54
80.28
75.34
68.69
60.70
52.08
43.83
36.93
32.13
29.69
29.31
30.25
31.50
32.14
31.57
29.61
26.39
22.25
17.63
13.01
8.96
6.15
5.22
6.59
10.27
15.82
22.47
29.34
35.68
41.01
45.05
47.71
49.00
48.97
47.83
45.85
43.36
40.70
38.12
35.69
33.32
30.81
27.92
24.56
20.82
16.98
13.40
10.32
7.78
5.58
3.39
0.86
-2.23
-5.93
-10.05
-14.27
-18.04
-20.75
-21.78
-20.66
-17.32
-12.08
-5.66
1.01
7.05
11.71
14.56
15.40
14.34
11.68
7.94
3.78
-0.18
-3.43
-5.73
-7.14
-7.98
-8.68
-9.59
-10.88
-12.41
-13.89
-14.96
-15.42
-15.32
-14.97
-14.77
-15.04
-15.87
-17.09
-18.40
-19.44
-19.89
-19.47
-17.87
-14.78
-10.02
-3.67
3.81
11.57
18.59
23.99
27.24
28.30
27.53
25.52
22.81
19.77
16.59
13.36
10.16
7.14
4.47
2.25
0.51
-0.88
-2.04
-3.06
-3.94
-4.59
-4.95
-5.07
-5.13
-5.42
-6.21
-7.57
-9.29
-10.91
-11.77
-11.27
-9.11
-5.37
-0.56
4.60
9.42
13.47
16.67
19.18
21.19
22.76
23.71
23.78
22.83
20.95
18.48
15.83
13.32
10.98
8.68
6.26
3.71
1.24
-0.84
-2.34
-3.37
-4.30
-5.63
-7.74
-10.65
-14.02
-17.26
-19.78
-21.24
-21.61
-21.10
-19.97
-18.37
-16.23
-13.40
-9.79
-5.59
-1.22
2.76
5.93
8.12
9.45
10.19
10.52
10.45
9.82
8.43
6.22
3.38
0.26
-2.73
-5.20
-6.94
-7.95
-8.36
-8.37
-8.18
-7.92
-7.68
-7.53
-7.56
-7.95
-8.82
-10.21
-11.91
-13.46
-14.25
-13.72
-11.57
-7.90
-3.16
2.03
7.09
11.60
15.42
18.48
20.73
22.05
22.28
21.43
19.77
17.81
16.12
15.12
14.83
14.95
14.96
14.46
13.27
11.52
9.51
7.51
5.67
3.96
2.20
0.26
-1.93
-4.35
-6.82
-9.07
-10.77
-11.55
-11.13
-9.34
-6.23
-2.05
2.79
7.78
12.47
16.39
19.16
20.53
20.44
19.09
16.90
14.43
12.15
10.31
8.90
7.77
6.72
5.67
4.68
3.81
3.04
2.29
1.39
0.25
-1.13
-2.72
-4.48
-6.44
-8.66
-11.09
-13.50
-15.44
-16.38
-15.81
-13.51
-9.66
-4.79
0.34
4.99
8.66
11.21
12.78
13.70
14.29
14.70
14.92
14.84
14.35
13.48
12.38
11.25
10.27
9.45
8.68
7.77
6.63
5.35
4.17
3.36
3.08
3.22
3.38
3.06
1.91
-0.21
-3.07
-6.15
-8.88
-10.69
-11.24
-10.41
-8.30
-5.11
-1.15
3.25
7.76
11.96
15.41
17.72
18.65
18.22
16.69
14.50
12.12
9.85
7.75
5.68
3.41
0.83
-1.99
-4.76
-7.10
-8.69
-9.48
-9.64
-9.53
-9.49
-9.78
-10.45
-11.43
-12.59
-13.78
-14.86
-15.58
-15.65
-14.70
-12.45
-8.81
-4.00
1.46
6.88
11.60
15.15
17.35
18.28
18.15
17.15
15.36
12.86
9.80
6.49
3.37
0.86
-0.78
-1.56
-1.65
-1.25
-0.45
0.81
2.64
4.99
7.54
9.71
10.81
10.28
7.89
3.89
-1.08
-6.12
-10.32
-13.03
-13.95
-13.17
-11.10
-8.24
-5.11
-2.09
0.53
2.47
3.51
3.46
2.34
0.38
-1.95
-4.12
-5.73
-6.60
-6.88
-6.89
-6.98
-7.36
-8.19
-9.48
-11.27
-13.54
-16.21
-19.04
-21.64
-23.58
-24.61
-24.82
-24.60
-24.57
-25.34
-27.10
-29.51
-31.56
-31.92
-29.45
-23.56
-14.50
-3.25
8.65
19.60
28.25
33.93
36.61
36.62
34.42
30.63
25.72
20.12
14.27
8.65
4.04
1.19
0.46
1.70
4.70
8.73
12.72
15.47
15.78
13.66
10.11
6.76
5.46
8.78
18.09
32.88
50.96
68.55
83.38
94.61
102.41
107.79
113.75
123.06
137.61
157.99
182.24
209.27
238.01
267.33
296.77
328.52
364.08
402.58
439.97
468.84
484.94
487.63
479.63
451.70
401.36
332.67
255.74
192.42
145.17
111.38
88.09
71.21
58.78
50.96
47.00
45.00
42.42
35.44
23.81
9.12
-6.81
-22.39
-35.37
-44.72
-50.68
-54.48
-58.79
-63.98
-69.40
-74.45
-78.89
-82.21
-84.55
-86.57
-89.08
-93.36
-98.98
-104.82
-110.08
-114.62
-118.68
-123.08
-128.71
-136.08
-145.33
-155.40
-164.92
-173.17
-180.47
-188.06
-197.55
-210.19
-226.10
-244.28
-262.65
-279.18
-292.79
-303.83
-313.91
-325.30
-340.23
-360.55
-387.25
-419.75
-454.96
-486.93
-507.80
-510.42
-491.38
-453.10
-403.35
-352.25
-308.27
-275.20
-251.87
-234.14
-217.94
-201.31
-184.58
-169.00
-155.20
-142.55
-129.62
-115.18
-98.81
-81.05
-62.89
-45.41
-29.40
-15.24
-2.75
8.79
20.57
33.67
48.45
64.05
78.63
90.09
97.12
99.67
98.86
96.08
92.10
86.68
79.02
68.71
56.53
44.58
35.64
32.05
34.89
43.62
56.44
71.00
85.05
96.87
105.42
110.14
110.89
107.82
101.48
92.78
83.06
73.85
66.57
62.12
60.56
61.19
62.72
63.76
63.22
60.61
56.05
50.00
43.04
35.58
27.83
19.95
12.30
5.69
1.23
-0.00
2.52
8.37
16.29
24.57
31.72
36.92
39.99
41.12
40.45
38.00
33.83
28.33
22.41
17.18
13.50
11.47
10.35
8.93
6.19
1.87
-3.52
-8.98
-13.61
-17.03
-19.49
-21.58
-23.81
-26.26
-28.46
-29.55
-28.62
-25.13
-19.08
-11.07
-2.09
6.86
14.96
21.68
26.68
29.73
30.61
29.23
25.75
20.64
14.67
8.66
3.40
-0.35
-1.78
0.03
5.91
16.22
30.46
47.22
64.39
79.78
91.70
99.30
102.74
102.98
101.41
99.39
97.86
97.00
96.24
94.57
91.14
85.71
78.88
71.68
64.84
58.12
50.21
39.13
23.31
2.31
-22.43
-47.50
-67.92
-77.84
-71.44
-43.92
7.37
81.65
173.76
274.27
371.08
452.27
509.37
539.63
546.09
535.70
516.11
492.98
468.83
443.71
416.90
388.30
358.79
329.37
300.02
269.29
234.78
194.43
147.72
96.02
42.25
-10.44
-59.83
-105.41
-148.22
-190.09
-232.70
-277.07
-323.48
-371.57
-420.18
-466.91
-507.83
-538.00
-553.04
-550.95
-533.34
-505.10
-472.44
-440.48
-411.66
-385.81
-361.68
-338.84
-318.47
-302.86
-293.86
-291.43
-293.37
-296.17
-296.45
-291.99
-281.96
-266.53
-246.08
-220.85
-191.10
-157.60
-121.96
-86.63
-54.31
-27.17
-6.34
8.35
18.01
24.12
28.00
30.49
31.98
32.58
32.20
30.76
28.18
24.42
19.68
14.49
9.76
6.65
6.21
8.95
14.50
21.67
28.80
34.34
37.42
38.05
37.04
35.73
35.66
38.20
44.18
53.65
65.74
78.74
90.75
100.26
106.67
110.28
111.89
112.14
111.28
109.20
105.90
101.91
98.32
96.44
97.50
102.31
111.33
124.42
140.62
157.76
172.52
180.92
179.48
166.43
142.56
110.99
76.20
42.60
13.31
-10.43
-28.91
-43.15
-53.78
-60.57
-62.59
-58.95
-49.69
-36.35
-21.68
-8.55
1.38
8.32
14.01
20.45
28.47
36.93
43.26
44.84
40.69
32.18
22.40
14.54
10.25
8.97
8.74
7.73
5.67
4.01
4.85
9.29
16.46
23.84
28.67
29.52
27.15
24.06
23.10
26.00
32.68
41.50
50.00
55.98
58.16
56.43
51.66
45.29
38.81
33.38
29.66
27.80
27.62
28.66
30.34
31.97
32.90
32.67
31.19
28.74
25.80
22.87
20.38
18.72
18.33
19.68
23.04
28.14
34.04
39.35
42.72
43.36
41.10
36.24
29.15
20.14
9.65
-1.58
-12.50
-22.21
-30.43
-37.70
-44.87
-52.37
-59.70
-65.69
-69.27
-70.27
-69.60
-68.61
-68.02
-67.36
-65.21
-60.03
-51.35
-40.03
-27.87
-16.65
-7.29
0.15
6.37
12.09
17.76
23.37
28.50
32.49
34.66
34.78
33.28
31.21
29.83
29.99
31.57
33.44
34.07
32.20
27.56
20.83
13.14
5.41
-1.99
-8.94
-15.17
-19.95
-22.45
-22.34
-20.46
-18.70
-19.26
-23.55
-31.38
-40.92
-49.49
-54.69
-55.26
-51.29
-43.73
-33.75
-22.24
-9.72
3.26
15.99
27.49
36.70
42.74
45.10
43.81
39.47
33.19
26.33
20.18
15.50
12.31
10.04
7.96
5.70
3.52
2.01
1.48
1.45
0.74
-1.95
-7.20
-14.39
-21.77
-27.21
-28.97
-26.32
-19.79
-10.95
-1.91
5.27
9.16
9.43
6.77
2.60
-1.69
-5.35
-8.42
-11.45
-14.73
-17.78
-19.43
-18.42
-14.23
-7.55
-0.04
6.40
10.38
11.33
9.44
5.20
-0.95
-8.57
-17.04
-25.20
-31.34
-33.56
-30.54
-22.11
-9.68
4.04
15.85
23.14
24.82
21.60
15.53
9.06
3.95
0.74
-1.07
-2.32
-3.56
-4.85
-5.95
-6.94
-8.43
-11.39
-16.59
-23.97
-32.53
-40.53
-46.21
-48.37
-46.85
-42.46
-36.68
-30.96
-26.21
-22.53
-19.33
-15.86
-11.79
-7.45
-3.67
-1.24
-0.47
-0.89
-1.55
-1.52
-0.36
1.87
4.79
8.30
12.65
18.21
25.02
32.40
38.81
42.30
41.31
35.34
25.39
13.70
2.92
-4.91
-9.11
-10.50
-10.78
-11.59
-13.82
-17.38
-21.55
-25.57
-29.05
-31.99
-34.54
-36.67
-38.28
-39.30
-40.03
-41.12
-43.26
-46.69
-51.08
-55.55
-59.12
-61.17
-61.56
-60.51
-58.40
-55.57
-52.17
-48.29
-43.91
-39.01
-33.56
-27.55
-21.14
-14.70
-8.91
-4.62
-2.71
-3.80
-7.96
-14.67
-22.96
-31.66
-39.77
-46.56
-51.60
-54.66
-55.86
-56.05
-57.21
-62.22
-74.08
-94.52
-122.85
-155.56
-187.09
-211.21
-222.61
-217.89
-196.02
-158.50
-109.28
-54.52
-1.67
42.15
71.91
86.10
86.81
78.73
67.54
58.84
57.64
67.98
92.23
129.85
176.63
225.21
267.30
296.78
311.97
315.70
313.19
308.88
304.24
297.64
286.08
267.43
241.77
211.11
178.00
144.29
110.74
77.51
45.14
15.01
-10.79
-30.12
-41.56
-45.02
-41.88
-34.68
-26.62
-20.75
-19.16
-22.56
-30.21
-40.28
-50.54
-59.08
-64.79
-67.45
-67.56
-66.07
-64.05
-62.36
-61.40
-61.03
-60.62
-59.59
-57.84
-56.02
-55.39
-57.23
-62.06
-69.25
-77.09
-83.49
-86.78
-86.31
-82.72
-77.70
-73.65
-72.88
-77.14
-86.90
-101.01
-116.79
-130.90
-140.38
-143.59
-140.34
-131.38
-117.55
-99.28
-76.87
-51.37
-25.03
-1.06
17.61
29.62
35.86
38.84
41.23
44.48
48.15
50.55
49.97
45.76
38.71
30.49
22.68
16.06
10.44
4.99
-1.06
-7.98
-15.32
-22.04
-26.77
-28.13
-24.94
-16.51
-2.89
15.04
35.59
56.53
75.47
90.29
99.48
102.30
98.85
90.00
77.20
62.25
46.87
32.46
19.79
9.11
0.28
-7.03
-13.15
-18.33
-22.76
-26.54
-29.66
-32.00
-33.38
-33.69
-33.07
-31.91
-30.77
-30.18
-30.43
-31.41
-32.58
-33.03
-31.77
-27.90
-21.05
-11.46
0.01
12.14
23.79
34.20
43.09
50.57
56.78
61.74
65.35
67.51
68.39
68.42
68.20
68.13
68.22
68.09
67.20
65.17
62.09
58.44
54.91
52.08
50.18
49.07
48.37
47.61
46.35
44.20
40.86
36.20
30.39
24.00
18.05
13.74
12.21
14.13
19.51
27.64
37.20
46.57
54.25
59.26
61.35
61.00
59.12
56.63
54.02
51.28
47.99
43.77
38.57
32.75
26.95
21.74
17.28
13.30
9.32
4.93
0.09
-4.93
-9.74
-14.20
-18.58
-23.42
-29.18
-35.80
-42.46
-47.80
-50.38
-49.24
-44.30
-36.38
-26.79
-16.86
-7.55
0.66
7.60
13.20
17.25
19.45
19.63
17.88
14.65
10.62
6.47
2.61
-0.87
-4.17
-7.57
-11.17
-14.89
-18.45
-21.57
-24.13
-26.34
-28.69
-31.85
-36.33
-42.28
-49.24
-56.16
-61.63
-64.31
-63.30
-58.46
-50.33
-39.93
-28.38
-16.64
-5.43
4.76
13.52
20.46
25.27
27.82
28.28
27.07
24.78
21.93
18.86
15.68
12.37
8.81
4.94
0.74
-3.67
-8.13
-12.43
-16.45
-20.20
-23.91
-27.99
-32.85
-38.67
-45.20
-51.74
-57.23
-60.56
-60.83
-57.54
-50.71
-40.84
-28.84
-15.81
-2.96
8.71
18.50
26.01
31.20
34.13
34.96
33.86
31.10
27.14
22.57
18.05
14.00
10.53
7.32
3.96
0.09
-4.24
-8.60
-12.39
-15.11
-16.75
-17.83
-19.30
-22.18
-27.15
-34.22
-42.63
-51.00
-57.62
-60.97
-60.09
-54.84
-45.91
-34.62
-22.47
-10.79
-0.53
7.79
13.88
17.58
18.82
17.74
14.77
10.67
6.33
2.46
-0.62
-3.07
-5.33
-7.78
-10.57
-13.56
-16.51
-19.29
-21.98
-24.84
-28.07
-31.58
-35.08
-38.15
-40.53
-42.38
-44.22
-46.75
-50.41
-55.12
-60.09
-64.02
-65.50
-63.45
-57.50
-48.03
-35.97
-22.50
-8.73
4.47
16.50
26.87
35.12
40.85
43.82
44.17
42.42
39.41
35.95
32.58
29.41
26.29
23.04
19.72
16.65
14.32
13.05
12.83
13.16
13.29
12.39
9.96
5.94
0.82
-4.59
-9.50
-13.40
-16.33
-18.68
-21.01
-23.65
-26.53
-29.15
-30.86
-31.06
-29.29
-25.22
-18.62
-9.41
2.19
15.54
29.59
43.05
54.73
63.79
69.89
73.10
73.75
72.35
69.45
65.71
61.82
58.38
55.74
53.86
52.25
50.20
47.09
42.68
37.35
31.92
27.41
24.48
23.15
22.72
22.00
19.83
15.53
9.19
1.64
-5.94
-12.53
-17.70
-21.74
-25.55
-30.11
-35.93
-42.65
-49.01
-53.18
-53.46
-48.94
-39.80
-27.26
-13.05
1.11
14.02
25.11
34.26
41.56
47.05
50.71
52.52
52.59
51.02
47.87
43.02
36.20
27.37
16.96
6.11
-3.61
-10.80
-14.91
-16.63
-17.71
-20.12
-25.10
-32.39
-40.30
-46.53
-49.32
-48.38
-45.19
-42.33
-42.52
-47.53
-57.69
-71.89
-87.96
-103.27
-115.17
-121.38
-120.48
-112.31
-98.19
-80.72
-62.92
-47.24
-34.72
-24.78
-15.77
-6.05
5.14
17.25
28.71
37.74
43.12
44.64
43.10
39.89
36.47
34.04
33.25
34.32
37.02
40.85
45.11
49.06
51.90
52.93
51.68
48.00
42.07
34.33
25.32
15.60
5.76
-3.58
-11.65
-17.62
-20.78
-20.65
-17.21
-10.75
-1.80
9.02
21.08
33.55
45.42
55.42
62.44
65.86
65.85
63.26
59.31
54.97
50.67
46.24
41.30
35.69
29.75
24.25
19.98
17.26
15.73
14.46
12.48
9.21
4.65
-0.88
-7.17
-14.42
-23.17
-33.91
-46.53
-60.28
-73.95
-86.40
-96.89
-105.10
-110.87
-113.87
-113.53
-109.25
-100.78
-88.49
-73.35
-56.87
-40.75
-26.62
-15.60
-8.04
-3.40
-0.32
2.82
7.26
13.40
20.75
28.46
35.90
43.03
50.29
58.01
65.89
72.74
76.91
77.14
73.15
65.82
56.80
47.67
39.27
31.55
23.99
16.39
9.34
4.19
2.43
4.85
11.03
19.41
27.87
34.71
39.19
41.59
42.76
43.35
43.36
42.05
38.36
31.62
22.06
10.92
0.04
-8.81
-14.60
-17.32
-17.81
-17.12
-15.94
-14.31
-11.89
-8.61
-5.19
-3.39
-5.39
-12.83
-25.96
-43.29
-62.23
-80.14
-95.48
-108.12
-118.87
-128.33
-136.01
-140.25
-138.97
-130.93
-116.66
-98.40
-79.16
-61.52
-46.67
-34.39
-23.76
-13.97
-4.96
2.75
8.58
12.59
15.67
19.34
24.99
33.12
43.04
52.97
60.78
64.81
64.48
60.28
53.38
44.96
35.67
25.63
14.70
3.03
-8.73
-19.44
-27.81
-32.80
-33.83
-30.76
-23.67
-12.69
1.86
19.28
38.15
56.29
71.03
80.05
82.03
77.26
67.54
55.57
43.94
34.28
26.92
21.19
16.05
10.89
5.78
1.33
-1.79
-3.37
-3.90
-4.35
-5.78
-8.80
-13.40
-19.09
-25.20
-31.18
-36.74
-41.61
-45.33
-47.07
-45.80
-40.72
-31.71
-19.57
-5.94
7.21
18.12
25.76
29.96
31.28
30.63
28.94
26.90
24.88
22.99
21.19
19.39
17.51
15.55
13.63
11.84
10.29
8.96
7.74
6.43
4.78
2.51
-0.66
-5.06
-10.97
-18.44
-27.01
-35.63
-42.75
-46.72
-46.28
-41.09
-31.85
-20.06
-7.49
4.34
14.46
22.44
28.08
31.28
31.93
30.09
26.13
20.84
15.17
9.93
5.45
1.48
-2.58
-7.24
-12.58
-18.12
-23.07
-26.69
-28.76
-29.70
-30.49
-32.33
-36.22
-42.68
-51.54
-61.91
-72.31
-80.94
-86.14
-86.80
-82.79
-74.90
-64.51
-53.04
-41.45
-30.06
-18.72
-7.19
4.44
15.64
25.52
33.16
37.92
39.66
38.79
36.16
32.93
30.21
28.83
29.15
30.95
33.51
35.93
37.37
37.32
35.65
32.52
28.13
22.61
15.93
8.17
-0.26
-8.34
-14.57
-17.23
-14.99
-7.40
4.84
20.07
36.21
51.45
64.63
75.41
83.99
90.65
95.42
98.09
98.44
96.57
93.10
88.96
85.12
82.10
79.88
77.98
75.81
72.94
69.24
64.88
60.15
55.30
50.44
45.56
40.48
34.93
28.48
20.68
11.20
-0.00
-12.43
-25.11
-36.67
-45.74
-51.39
-53.42
-52.46
-49.70
-46.37
-43.34
-40.94
-39.06
-37.42
-35.78
-33.96
-31.73
-28.78
-24.72
-19.24
-12.20
-3.82
5.36
14.51
22.35
27.37
28.05
23.42
13.63
0.18
-14.47
-27.81
-38.27
-45.86
-51.89
-58.17
-66.03
-75.67
-86.13
-95.75
-102.86
-106.20
-105.14
-99.65
-90.11
-77.20
-61.80
-44.87
-27.44
-10.59
4.60
17.15
26.41
32.29
35.42
37.07
38.70
41.33
45.16
49.60
53.63
56.40
57.61
57.35
55.61
51.84
45.00
34.06
18.88
0.60
-18.53
-36.06
-50.42
-61.44
-70.12
-77.50
-83.76
-87.74
-87.45
-81.28
-69.03
-52.25
-33.68
-16.04
-1.02
11.09
20.99
29.51
36.88
42.60
45.84
46.09
43.66
39.60
35.37
32.19
30.62
30.42
30.74
30.65
29.48
27.20
24.30
21.48
19.25
17.64
16.16
14.14
10.97
6.44
0.69
-5.89
-12.91
-20.03
-26.90
-32.90
-37.10
-38.31
-35.46
-28.00
-16.33
-1.77
13.80
28.50
40.98
50.65
57.66
62.43
65.33
66.47
65.82
63.46
59.79
55.50
51.36
47.92
45.27
43.08
40.77
37.86
34.13
29.70
24.96
20.30
15.97
12.01
8.20
4.33
0.22
-4.14
-8.64
-13.14
-17.60
-21.98
-26.18
-29.83
-32.20
-32.36
-29.51
-23.37
-14.45
-4.01
6.37
15.31
22.05
26.54
29.22
30.56
30.75
29.68
27.11
23.10
18.11
13.02
8.79
6.03
4.74
4.43
4.33
3.87
2.87
1.61
0.51
-0.15
-0.50
-1.07
-2.53
-5.33
-9.51
-14.66
-20.25
-25.91
-31.53
-37.15
-42.61
-47.32
-50.32
-50.63
-47.69
-41.73
-33.71
-24.97
-16.66
-9.45
-3.40
1.71
6.09
9.72
12.39
13.90
14.20
13.53
12.31
10.99
9.85
8.88
7.89
6.52
4.54
1.89
-1.21
-4.39
-7.20
-9.29
-10.37
-10.23
-8.76
-5.95
-2.07
2.27
6.22
8.96
10.04
9.71
8.73
8.13
8.74
11.05
15.32
21.81
30.80
42.36
55.92
70.06
82.73
92.02
96.88
97.55
95.26
91.49
87.27
82.89
78.20
73.15
68.18
64.00
61.07
58.99
56.33
51.00
41.21
26.38
7.74
-11.95
-29.42
-42.12
-49.16
-51.46
-51.13
-50.29
-50.30
-51.44
-53.24
-55.16
-56.83
-58.03
-58.33
-56.79
-52.14
-43.31
-30.13
-13.56
4.52
22.09
37.66
50.75
61.96
72.60
84.20
98.06
114.88
134.67
156.69
179.65
201.99
222.29
239.43
252.74
261.86
266.53
266.52
261.81
253.02
241.51
229.09
217.17
205.89
193.75
178.12
156.53
127.99
93.68
56.60
20.33
-12.39
-40.66
-65.41
-88.70
-112.60
-138.36
-166.09
-195.07
-224.32
-253.13
-281.42
-309.78
-339.23
-371.07
-406.91
-448.52
-497.14
-552.21
-610.16
-664.03
-704.87
-724.49
-718.60
-688.53
-640.69
-583.96
-526.28
-472.29
-422.99
-377.12
-333.19
-290.84
-250.80
-214.01
-180.56
-149.35
-118.55
-86.54
-52.59
-17.17
18.39
52.44
83.45
110.41
132.87
151.09
166.05
179.33
192.94
208.98
229.34
255.15
286.09
319.77
351.77
376.57
389.44
388.32
374.86
353.81
331.07
311.16
295.88
284.41
274.87
266.01
257.92
251.54
247.60
245.74
244.70
243.03
239.96
235.47
229.86
223.25
215.21
205.01
192.15
176.86
160.32
144.40
131.06
121.73
116.75
115.02
114.22
111.20
102.87
87.03
63.26
33.41
1.33
-27.87
-49.31
-59.69
-58.20
-46.84
-29.67
-11.72
2.38
9.36
7.92
-1.30
-16.11
-33.53
-50.67
-65.43
-77.03
-85.95
-93.41
-100.60
-107.99
-115.09
-120.69
-123.42
-122.34
-117.34
-109.03
-98.50
-86.72
-74.43
-62.01
-49.86
-38.67
-29.53
-23.65
-21.80
-23.72
-27.98
-32.35
-34.61
-33.45
-29.00
-22.61
-16.20
-11.26
-8.36
-7.07
-6.44
-5.78
-5.08
-5.01
-6.42
-9.71
-14.51
-19.76
-24.21
-27.02
-28.09
-27.98
-27.30
-26.27
-24.46
-20.96
-14.97
-6.41
3.75
13.72
21.54
25.79
26.10
23.05
17.86
11.69
5.27
-1.22
-7.83
-14.49
-20.76
-25.95
-29.49
-31.29
-31.99
-32.60
-34.07
-36.71
-40.05
-43.09
-44.91
-45.25
-44.73
-44.55
-45.76
-48.53
-51.92
-54.20
-53.60
-49.17
-41.21
-31.12
-20.64
-11.21
-3.40
3.02
8.57
13.46
17.31
19.26
18.58
15.21
10.00
4.46
0.07
-2.41
-3.25
-3.50
-4.29
-6.17
-8.74
-10.97
-11.73
-10.59
-8.08
-5.48
-4.11
-4.76
-7.32
-10.96
-14.60
-17.53
-19.59
-21.03
-22.09
-22.59
-21.95
-19.43
-14.61
-7.92
-0.52
5.95
10.16
11.50
10.32
7.66
4.68
2.10
0.02
-1.96
-4.27
-6.95
-9.56
-11.39
-11.95
-11.34
-10.32
-9.95
-10.95
-13.37
-16.55
-19.53
-21.64
-23.00
-24.39
-26.89
-31.02
-36.31
-41.30
-44.03
-42.96
-37.63
-28.85
-18.36
-7.94
1.21
8.72
14.81
19.72
23.19
24.44
22.60
17.42
9.66
0.95
-6.79
-12.24
-15.31
-17.12
-19.39
-23.42
-29.37
-36.17
-41.98
-45.29
-45.83
-44.77
-44.26
-46.37
-52.06
-60.82
-70.89
-80.14
-86.84
-90.04
-89.41
-84.96
-77.01
-66.30
-54.25
-42.71
-33.22
-26.14
-20.28
-13.18
-2.34
13.67
34.36
57.46
79.75
98.20
110.92
117.74
120.02
120.07
120.32
122.36
126.47
131.70
136.47
139.37
139.64
137.06
131.51
122.59
109.67
92.42
71.40
48.26
25.36
5.00
-11.19
-22.71
-30.09
-34.56
-37.59
-40.45
-43.85
-47.74
-51.42
-54.00
-54.86
-53.87
-51.23
-46.98
-40.72
-31.71
-19.49
-4.45
11.88
27.33
40.00
49.08
55.10
59.45
63.54
67.97
72.33
75.49
76.33
74.25
69.37
62.42
54.41
46.33
39.02
33.20
29.49
28.31
29.66
32.97
37.17
40.87
42.91
42.64
40.10
35.92
31.06
26.47
22.89
20.68
19.79
19.85
20.41
21.07
21.79
22.75
24.27
26.49
29.19
31.77
33.48
33.76
32.33
29.29
24.87
19.28
12.64
5.06
-3.24
-11.78
-19.73
-26.04
-29.65
-29.81
-26.39
-19.98
-11.76
-3.11
4.79
11.24
16.02
19.15
20.62
20.27
17.90
13.54
7.55
0.64
-6.42
-13.04
-18.92
-24.03
-28.39
-31.93
-34.50
-35.96
-36.29
-35.67
-34.41
-32.82
-31.16
-29.60
-28.39
-27.94
-28.72
-31.15
-35.28
-40.58
-45.88
-49.62
-50.31
-47.02
-39.72
-29.22
-16.98
-4.57
6.66
15.84
22.57
26.85
28.89
29.00
27.54
24.96
21.85
18.89
16.83
16.30
17.69
20.94
25.60
30.90
36.01
40.23
43.14
44.59
44.59
43.22
40.52
36.50
31.18
24.69
17.38
9.82
2.79
-2.79
-6.14
-6.69
-4.32
0.62
7.43
15.15
22.92
29.97
35.77
39.95
42.25
42.59
41.04
37.95
33.88
29.46
25.24
21.48
18.17
15.13
12.21
9.33
6.57
4.03
1.80
-0.17
-1.99
-3.76
-5.50
-7.17
-8.76
-10.33
-12.10
-14.28
-16.92
-19.66
-21.72
-22.10
-19.89
-14.75
-7.08
2.05
11.28
19.46
25.95
30.73
34.11
36.45
37.88
38.24
37.25
34.81
31.14
26.80
22.50
18.80
15.88
13.52
11.24
8.60
5.43
1.78
-2.11
-6.07
-10.11
-14.36
-18.90
-23.68
-28.47
-32.98
-37.00
-40.52
-43.65
-46.49
-48.95
-50.69
-51.21
-49.98
-46.62
-41.06
-33.62
-24.88
-15.63
-6.70
1.26
7.82
12.79
16.11
17.77
17.78
16.21
13.26
9.27
4.71
0.06
-4.34
-8.33
-11.94
-15.38
-18.84
-22.48
-26.37
-30.55
-35.04
-39.83
-44.89
-50.06
-55.08
-59.58
-63.23
-65.93
-67.89
-69.64
-71.78
-74.68
-78.17
-81.49
-83.47
-82.97
-79.26
-72.25
-62.51
-51.00
-38.77
-26.79
-15.84
-6.49
0.87
6.02
9.07
10.34
10.40
9.89
9.27
8.76
8.26
7.46
6.12
4.16
1.82
-0.48
-2.31
-3.39
-3.69
-3.41
-2.79
-2.12
-1.70
-1.86
-2.92
-5.00
-7.90
-11.10
-13.96
-16.10
-17.76
-19.73
-22.95
-27.94
-34.26
-40.59
-45.13
-46.38
-43.67
-37.37
-28.57
-18.57
-8.48
0.91
9.02
15.33
19.45
21.22
20.83
18.83
15.91
12.71
9.79
7.74
7.20
8.78
12.81
18.96
26.25
33.24
38.64
41.69
42.26
40.67
37.31
32.42
26.18
18.78
10.58
1.96
-6.73
-15.23
-23.34
-30.85
-37.76
-44.37
-51.29
-59.20
-68.36
-78.21
-87.43
-94.51
-98.40
-99.01
-97.04
-93.37
-88.47
-82.23
-74.23
-64.42
-53.43
-42.43
-32.57
-24.41
-17.74
-11.84
-6.09
-0.36
4.90
8.97
11.50
12.73
13.50
14.83
17.34
20.87
24.63
27.59
29.01
28.82
27.53
25.95
24.71
23.98
23.38
22.32
20.32
17.24
13.41
9.35
5.49
1.94
-1.55
-5.31
-9.38
-13.26
-15.97
-16.38
-13.79
-8.28
-0.71
7.58
15.41
22.10
27.63
32.40
36.84
41.01
44.49
46.67
47.08
45.80
43.46
40.98
39.11
38.03
37.33
36.25
34.26
31.30
27.87
24.66
22.17
20.39
18.88
17.06
14.60
11.69
8.88
6.88
6.08
6.26
6.62
6.09
3.84
-0.28
-5.55
-10.67
-14.18
-15.14
-13.43
-9.61
-4.52
1.22
7.43
14.30
21.83
29.57
36.51
41.49
43.74
43.32
41.11
38.37
36.06
34.40
32.84
30.51
26.89
22.20
17.34
13.47
11.30
10.76
11.06
11.15
10.39
8.75
6.71
4.82
3.18
1.31
-1.61
-6.25
-12.67
-20.24
-27.84
-34.29
-38.87
-41.38
-42.06
-41.17
-38.73
-34.49
-28.10
-19.51
-9.33
1.18
10.37
16.84
20.09
20.61
19.63
18.49
17.87
17.57
16.74
14.60
10.99
6.66
2.85
0.67
0.32
0.99
1.27
-0.04
-3.19
-7.41
-11.32
-13.74
-14.49
-14.45
-15.16
-17.90
-22.98
-29.58
-36.11
-40.97
-43.25
-42.92
-40.57
-36.81
-31.85
-25.51
-17.50
-7.91
2.47
12.28
20.09
25.02
27.05
27.00
26.12
25.48
25.47
25.70
25.31
23.54
20.23
15.95
11.73
8.50
6.58
5.47
4.20
1.98
-1.37
-5.24
-8.62
-10.76
-11.76
-12.68
-15.08
-20.16
-28.03
-37.45
-46.15
-51.77
-52.81
-49.17
-42.04
-33.20
-24.15
-15.62
-7.55
0.34
8.00
14.71
19.38
21.17
20.06
16.92
13.15
9.92
7.59
5.58
2.73
-1.81
-8.09
-15.18
-21.68
-26.40
-29.14
-30.65
-32.19
-34.75
-38.48
-42.78
-46.82
-50.22
-53.40
-57.28
-62.52
-68.83
-74.78
-78.27
-77.52
-71.94
-62.44
-51.11
-40.29
-31.55
-25.34
-21.05
-17.71
-14.72
-12.20
-10.86
-11.43
-14.12
-18.25
-22.55
-25.62
-26.59
-25.53
-23.27
-21.04
-19.79
-19.76
-20.48
-21.02
-20.64
-19.17
-17.17
-15.65
-15.56
-17.40
-21.05
-25.91
-31.27
-36.45
-40.85
-43.84
-44.62
-42.39
-36.65
-27.56
-16.01
-3.44
8.59
18.94
27.04
32.87
36.59
38.32
37.99
35.54
31.10
25.27
19.02
13.52
9.68
7.98
8.25
9.80
11.77
13.42
14.44
14.88
15.05
15.13
14.95
13.89
11.11
5.94
-1.65
-10.90
-20.31
-28.07
-32.65
-33.28
-30.10
-24.05
-16.53
-8.97
-2.50
2.19
4.75
5.10
3.28
-0.48
-5.67
-11.54
-17.18
-21.75
-24.77
-26.20
-26.45
-26.08
-25.56
-25.03
-24.32
-23.07
-21.00
-18.13
-14.84
-11.66
-9.08
-7.40
-6.67
-6.91
-8.20
-10.74
-14.52
-19.04
-23.03
-24.65
-22.08
-14.22
-1.26
15.30
33.20
50.23
64.92
76.84
86.26
93.68
99.32
103.02
104.44
103.46
100.40
96.02
91.20
86.57
82.26
77.97
73.23
67.84
61.97
56.10
50.67
45.69
40.60
34.42
26.23
15.60
2.95
-10.52
-23.12
-33.21
-39.60
-41.81
-40.05
-34.87
-26.93
-16.77
-4.94
7.88
20.64
31.94
40.39
45.03
45.76
43.33
39.01
34.05
29.19
24.54
19.77
14.65
9.34
4.46
0.81
-1.04
-1.12
-0.01
1.39
2.28
2.20
1.06
-1.07
-4.09
-7.97
-12.59
-17.50
-21.77
-24.20
-23.69
-19.66
-12.38
-2.83
7.59
17.57
26.20
33.09
38.20
41.65
43.52
43.87
42.79
40.54
37.53
34.25
31.14
28.46
26.21
24.17
21.93
19.15
15.61
11.53
7.34
3.61
0.61
-1.99
-5.02
-9.49
-15.86
-23.56
-30.94
-35.80
-36.18
-31.25
-21.63
-9.28
3.08
12.72
17.62
17.03
11.64
3.43
-4.98
-11.14
-13.78
-13.30
-11.56
-10.93
-12.98
-17.65
-23.11
-26.65
-26.05
-20.65
-11.78
-2.04
5.76
9.87
10.18
8.00
5.37
4.02
4.69
7.01
9.86
11.98
12.72
12.51
13.03
16.97
27.66
48.20
80.21
122.48
170.13
215.06
247.86
260.82
250.45
218.47
170.63
113.94
53.85
-7.33
-69.82
-134.25
-199.50
-261.77
-315.46
-355.22
-377.97
-383.92
-376.33
-360.27
-341.11
-323.01
-307.78
-294.71
-280.98
-263.18
-238.94
-208.21
-173.38
-138.02
-105.11
-75.63
-48.47
-21.61
6.03
33.53
58.53
78.72
93.43
104.00
112.73
121.22
129.16
134.32
133.72
125.36
109.19
87.36
63.38
41.08
23.48
12.13
7.16
7.61
12.26
20.16
30.96
44.58
60.63
77.91
94.37
107.91
117.25
122.40
124.34
124.28
122.87
120.14
115.91
110.42
104.69
100.28
98.50
99.75
103.11
106.56
107.73
104.30
94.50
77.80
55.33
29.88
5.11
-15.75
-31.04
-40.44
-45.31
-47.64
-48.94
-49.39
-47.89
-43.02
-34.20
-22.29
-8.48
5.34
17.30
26.40
33.01
38.83
46.36
57.87
74.82
98.79
129.55
164.65
199.63
229.27
249.26
257.50
254.50
234.32
196.15
144.13
86.44
31.79
-13.93
-48.41
-71.85
-85.92
-93.03
-94.44
-91.54
-85.78
-78.50
-70.62
-62.39
-53.62
-44.31
-34.79
-24.59
-13.65
-2.37
8.46
18.03
25.86
31.87
35.96
37.88
38.07
36.96
34.76
31.63
27.79
23.76
20.44
18.41
18.30
20.88
26.63
35.63
47.61
62.03
78.35
96.11
114.45
132.65
150.15
166.41
180.78
192.49
200.63
204.04
204.59
202.97
199.79
195.57
190.69
185.27
179.24
172.46
164.92
156.88
148.36
139.60
130.78
121.67
111.59
99.52
84.39
65.54
43.03
17.27
-10.70
-39.75
-69.17
-98.83
-129.11
-160.44
-192.80
-225.31
-256.59
-285.04
-309.38
-329.33
-345.66
-359.80
-373.51
-388.45
-406.08
-427.56
-452.89
-480.14
-504.96
-521.33
-523.50
-508.41
-477.20
-434.89
-388.30
-343.31
-303.00
-267.54
-235.65
-206.30
-179.59
-156.35
-137.16
-121.62
-108.46
-96.40
-85.03
-75.05
-67.64
-63.94
-64.10
-66.91
-69.85
-69.54
-62.78
-47.67
-24.73
2.72
29.28
49.29
58.89
57.55
48.05
34.95
22.31
11.94
2.92
-7.40
-21.75
-41.53
-66.27
-94.07
-122.21
-147.76
-167.95
-180.40
-183.50
-176.98
-162.56
-143.96
-126.00
-113.48
-109.55
-114.77
-127.07
-142.37
-155.86
-163.06
-160.60
-146.55
-120.25
-82.25
-34.12
21.69
82.25
144.53
206.19
266.03
324.12
381.42
439.32
499.28
562.24
627.86
693.62
754.27
802.38
830.14
832.09
807.16
759.31
695.94
625.18
553.22
483.25
415.92
350.89
288.12
228.11
171.22
116.76
62.51
5.14
-58.28
-128.82
-204.59
-280.57
-349.97
-406.46
-446.36
-469.83
-480.40
-482.97
-481.43
-477.06
-468.61
-453.79
-431.12
-401.05
-365.80
-328.22
-290.41
-253.07
-215.80
-177.83
-138.73
-98.55
-57.51
-15.51
27.80
72.34
116.80
158.22
192.40
214.95
222.81
215.29
194.45
164.47
130.69
98.19
70.69
49.79
34.68
22.65
10.09
-6.24
-28.13
-55.45
-86.36
-118.08
-147.64
-172.78
-192.27
-205.97
-214.54
-218.74
-218.71
-213.65
-202.22
-183.64
-158.83
-130.81
-103.76
-81.43
-65.24
-53.44
-41.60
-24.09
4.45
48.10
109.14
187.30
278.93
376.60
469.80
547.38
600.83
627.04
628.96
613.76
589.50
561.84
532.95
501.83
466.24
424.36
375.33
318.68
253.61
179.07
94.66
1.84
-95.72
-192.73
-283.41
-363.09
-428.88
-479.67
-515.63
-537.51
-546.23
-542.93
-528.93
-505.73
-475.04
-438.53
-397.93
-354.98
-311.45
-268.80
-227.90
-188.74
-150.35
-111.50
-70.93
-27.85
17.99
66.17
115.65
164.67
210.82
251.18
282.86
303.84
313.56
313.49
306.72
297.01
287.45
279.42
272.29
264.13
253.11
238.64
221.82
204.71
188.92
174.45
159.51
141.74
120.04
96.15
74.46
59.96
55.65
60.30
68.49
72.67
66.21
45.78
11.68
-33.35
-85.61
-141.04
-194.63
-239.45
-266.77
-268.13
-238.68
-179.93
-100.37
-13.30
66.90
128.80
166.28
178.69
169.36
143.47
106.08
61.17
11.45
-41.22
-95.35
-149.37
-201.59
-250.42
-294.43
-332.03
-361.14
-378.90
-382.21
-368.79
-338.78
-295.49
-244.78
-193.43
-147.06
-108.76
-79.03
-56.74
-40.36
-28.85
-21.26
-16.14
-11.00
-2.41
13.41
39.49
77.15
125.05
178.50
229.76
269.12
287.36
278.30
240.88
179.66
103.38
22.49
-53.47
-117.61
-166.27
-198.67
-216.10
-221.38
-218.26
-210.92
-203.39
-198.99
-199.72
-206.13
-217.37
-231.20
-244.62
-254.34
-257.65
-253.01
-240.33
-220.69
-195.82
-167.41
-136.70
-104.70
-72.39
-41.02
-12.10
13.07
34.29
52.86
71.01
90.62
111.89
132.96
150.76
162.24
165.39
159.27
143.63
118.95
87.23
53.00
23.49
6.78
8.54
29.08
62.53
98.94
128.40
144.87
147.61
140.21
127.76
114.39
102.27
91.91
83.13
76.00
71.16
69.24
70.45
74.22
79.50
85.40
91.65
98.70
107.14
117.06
127.50
136.60
142.48
144.03
141.37
135.49
127.61
118.70
109.43
100.49
92.85
87.59
85.23
85.20
85.86
85.12
81.46
74.49
65.06
54.82
45.48
38.33
33.97
32.39
33.19
35.59
38.63
41.17
42.05
40.41
35.89
28.93
20.69
12.62
5.96
1.27
-1.68
-3.73
-5.81
-8.60
-12.35
-17.06
-22.62
-28.91
-35.72
-42.70
-49.31
-55.10
-59.95
-64.11
-68.11
-72.44
-77.19
-82.06
-86.37
-89.27
-90.03
-88.25
-83.99
-77.94
-71.32
-65.60
-61.96
-60.85
-61.65
-62.89
-62.86
-60.20
-54.47
-46.25
-36.69
-27.10
-18.66
-12.23
-8.28
-6.67
-6.57
-6.45
-4.48
0.92
10.38
23.33
38.35
53.76
68.34
81.52
92.99
101.89
106.47
104.29
93.31
73.30
46.54
17.57
-8.23
-26.46
-35.12
-34.98
-28.91
-20.46
-12.80
-8.12
-7.66
-11.95
-20.76
-32.94
-46.14
-57.07
-62.34
-59.54
-48.21
-30.11
-8.68
12.12
29.13
40.82
47.48
50.72
52.63
54.94
58.68
64.09
71.04
79.33
88.74
98.95
109.22
118.42
125.30
128.93
129.05
126.21
121.27
114.97
107.39
97.93
85.74
70.30
51.97
32.08
12.57
-4.59
-17.89
-26.60
-30.74
-30.86
-27.86
-22.71
-16.29
-9.31
-2.31
4.38
10.48
15.71
19.83
22.62
24.01
24.21
23.58
22.62
21.78
21.29
21.10
20.83
19.80
17.24
12.57
5.76
-2.40
-10.47
-16.63
-19.40
-18.08
-13.04
-5.58
2.51
9.43
13.67
14.21
10.51
2.51
-9.32
-23.81
-39.18
-53.18
-63.42
-67.87
-65.35
-55.84
-40.64
-22.14
-3.44
12.30
22.60
26.22
23.41
15.71
5.53
-4.60
-12.54
-16.99
-17.55
-14.68
-9.53
-3.74
0.89
2.70
0.63
-5.34
-14.03
-23.24
-30.44
-33.55
-31.74
-25.60
-16.98
-8.35
-2.06
0.32
-1.61
-6.96
-13.79
-19.67
-22.32
-20.16
-12.67
-0.20
16.24
35.43
56.03
76.50
95.00
109.45
118.04
119.92
115.61
107.03
96.81
87.26
79.56
73.45
67.49
60.02
49.93
37.29
23.26
9.68
-1.73
-9.98
-15.24
-18.67
-21.92
-26.49
-32.97
-40.74
-48.07
-52.68
-52.70
-47.55
-38.35
-27.73
-19.06
-15.44
-18.84
-29.68
-46.85
-68.15
-90.84
-112.05
-129.26
-140.59
-145.04
-142.63
-134.43
-122.23
-108.09
-93.89
-80.93
-69.84
-60.72
-53.38
-47.50
-42.77
-38.97
-36.01
-33.91
-32.84
-33.01
-34.37
-36.65
-39.27
-41.52
-42.80
-42.85
-41.84
-40.32
-38.87
-37.81
-37.11
-36.44
-35.46
-33.99
-32.22
-30.69
-30.10
-31.05
-33.54
-37.18
-41.27
-45.02
-47.70
-48.78
-48.07
-45.77
-42.31
-37.56
-31.25
-22.82
-11.55
3.37
22.46
45.49
71.29
97.92
124.47
150.00
173.46
193.63
209.47
220.61
227.48
231.08
232.41
233.95
236.75
239.82
240.63
236.87
227.92
215.41
202.86
194.66
197.51
215.69
248.91
291.49
334.40
368.44
387.34
389.90
363.64
306.51
226.18
137.70
56.05
-9.90
-58.00
-90.04
-108.54
-116.05
-113.06
-101.38
-83.96
-65.82
-50.93
-40.74
-34.64
-30.76
-27.28
-21.50
-12.79
-3.02
3.92
3.84
-2.92
-14.96
-29.51
-43.79
-54.78
-61.60
-65.78
-70.52
-78.90
-92.13
-109.44
-128.13
-145.23
-158.23
-166.94
-173.49
-181.42
-194.01
-213.19
-239.76
-273.12
-311.09
-348.99
-379.78
-395.46
-390.09
-363.03
-320.65
-275.02
-239.29
-222.63
-227.09
-248.15
-278.41
-311.99
-346.72
-383.26
-422.14
-460.89
-493.51
-512.41
-511.70
-489.50
-448.72
-396.03
-339.43
-285.87
-239.41
-200.85
-168.63
-140.43
-114.60
-90.85
-69.79
-51.89
-36.56
-22.12
-6.61
10.94
29.60
46.84
59.61
65.79
65.10
58.92
49.50
38.88
28.19
17.69
7.10
-3.81
-14.77
-24.88
-33.01
-38.19
-39.98
-38.63
-34.79
-29.05
-21.61
-12.15
-0.11
14.92
32.85
53.07
74.67
96.85
119.32
142.36
166.67
193.18
222.75
256.05
293.08
332.56
371.49
405.36
429.12
438.94
433.59
415.03
387.62
356.28
324.72
294.56
265.61
237.09
208.77
181.41
156.36
134.69
116.60
101.51
88.54
77.24
67.69
60.35
55.43
52.54
50.67
48.34
44.02
36.26
24.01
6.77
-15.00
-39.67
-64.62
-86.79
-103.52
-113.18
-115.18
-109.56
-96.50
-76.19
-49.36
-17.92
14.88
45.02
69.11
85.58
95.14
100.16
103.31
106.23
108.95
110.23
108.49
102.83
93.38
81.25
67.95
54.90
43.08
32.91
24.29
16.65
9.15
0.97
-8.18
-17.78
-26.54
-32.83
-35.47
-34.25
-30.11
-24.68
-19.64
-16.15
-14.70
-15.22
-17.40
-20.90
-25.30
-30.02
-34.26
-37.06
-37.55
-35.19
-29.98
-22.48
-13.78
-5.28
1.50
5.42
5.81
2.84
-2.64
-9.35
-15.92
-21.19
-24.47
-25.85
-26.40
-28.12
-33.33
-43.56
-58.55
-75.83
-91.35
-101.06
-102.56
-96.04
-84.04
-70.06
-57.02
-46.39
-38.16
-31.65
-26.24
-21.74
-18.19
-15.47
-13.25
-11.21
-9.29
-7.49
-5.52
-2.38
3.48
13.43
27.61
44.31
60.37
72.43
78.43
78.37
74.09
68.02
61.89
56.19
50.47
44.11
36.84
28.71
19.70
9.42
-2.64
-16.61
-31.72
-46.39
-58.86
-67.96
-73.66
-77.02
-79.54
-82.35
-85.71
-88.85
-90.36
-88.71
-82.85
-72.29
-57.04
-37.36
-13.74
13.00
41.28
68.71
92.48
110.02
119.71
121.21
115.13
102.58
84.71
62.67
37.91
12.49
-10.97
-29.84
-42.14
-47.14
-45.47
-38.85
-29.54
-19.83
-11.72
-6.63
-5.37
-8.19
-14.80
-24.52
-36.29
-48.77
-60.37
-69.53
-74.99
-76.11
-73.00
-66.36
-57.23
-46.56
-35.05
-23.15
-11.25
0.05
9.85
17.13
21.17
21.87
19.86
16.25
12.15
8.26
4.65
1.00
-3.12
-7.82
-12.84
-17.68
-21.83
-25.09
-27.64
-29.98
-32.64
-36.07
-40.42
-45.65
-51.55
-57.76
-63.74
-68.71
-71.55
-70.98
-65.89
-55.69
-40.62
-21.70
-0.42
21.75
43.76
65.07
85.49
104.81
122.56
137.86
149.56
156.50
157.85
153.39
143.71
130.16
114.63
99.21
85.65
74.97
67.29
61.74
56.63
49.90
39.68
25.09
6.85
-12.57
-29.57
-40.71
-44.11
-40.36
-32.14
-23.05
-15.92
-11.76
-9.68
-7.79
-4.31
1.66
10.07
20.29
31.43
42.36
51.51
56.89
56.60
49.58
36.27
18.55
-0.95
-19.76
-36.14
-49.15
-58.23
-62.83
-62.47
-57.14
-47.68
-35.84
-23.80
-13.40
-5.55
-0.22
3.09
4.80
4.88
2.90
-1.49
-8.09
-15.92
-23.22
-27.90
-28.23
-23.53
-14.71
-4.25
4.18
6.62
-0.09
-17.39
-44.60
-79.23
-117.58
-155.45
-188.61
-213.09
-225.64
-224.37
-209.49
-183.55
-150.93
-116.52
-84.30
-56.35
-32.80
-12.61
5.43
22.04
37.33
51.06
62.94
72.57
79.27
82.03
79.73
71.85
58.94
42.93
26.80
13.83
6.66
6.57
13.23
25.01
39.77
55.59
71.24
86.10
99.75
111.47
120.16
124.65
124.31
119.54
111.71
102.70
94.20
87.05
81.15
75.74
69.96
63.42
56.34
49.34
43.03
37.59
32.60
27.24
20.63
12.27
2.26
-8.69
-19.59
-29.46
-37.61
-43.64
-47.32
-48.48
-47.14
-43.60
-38.51
-32.48
-25.62
-17.23
-6.08
8.87
27.44
47.83
67.00
81.85
90.55
93.23
91.69
88.36
85.11
82.61
80.42
77.74
74.11
69.69
65.18
61.37
58.69
56.97
55.53
53.48
50.08
44.99
38.26
30.30
21.68
12.96
4.77
-2.25
-7.41
-10.15
-10.21
-7.80
-3.66
1.15
5.60
8.98
11.07
12.06
12.25
11.85
10.82
9.10
6.72
3.93
1.10
-1.55
-4.11
-6.90
-10.19
-13.95
-17.70
-20.87
-23.19
-24.99
-27.10
-30.33
-34.85
-39.95
-44.26
-46.37
-45.49
-41.79
-36.20
-29.82
-23.32
-16.56
-8.75
1.07
13.46
28.25
44.60
61.33
77.13
90.74
100.92
106.43
106.26
100.06
88.49
73.30
56.99
42.09
30.47
23.00
19.62
19.66
22.32
26.91
32.96
40.31
48.94
58.96
70.28
82.51
94.85
106.44
116.50
124.46
129.82
131.78
129.09
120.26
104.09
80.37
50.06
14.85
-23.64
-64.51
-107.40
-151.39
-193.85
-229.98
-254.01
-261.40
-251.20
-226.85
-195.18
-163.76
-138.17
-120.45
-109.41
-102.34
-97.08
-93.15
-91.70
-94.35
-101.99
-113.92
-127.87
-140.68
-149.33
-151.91
-148.11
-139.12
-126.96
-113.56
-100.12
-87.20
-75.04
-64.15
-55.43
-49.68
-46.92
-45.94
-44.55
-40.51
-32.63
-21.40
-8.85
2.36
10.05
13.40
12.99
10.19
6.36
2.16
-2.65
-8.84
-17.19
-27.79
-39.77
-51.34
-60.26
-64.55
-63.38
-57.51
-49.19
-41.34
-36.31
-34.80
-35.42
-35.33
-31.66
-23.01
-10.20
4.16
17.03
26.38
32.03
35.45
38.63
42.87
48.05
52.82
55.40
54.51
50.07
43.07
34.97
26.82
18.76
10.12
-0.03
-12.02
-24.98
-36.95
-45.64
-49.33
-47.62
-41.33
-31.86
-20.63
-8.86
2.16
10.70
14.83
13.17
5.94
-4.61
-14.72
-20.67
-20.18
-13.23
-1.61
12.31
26.73
40.78
54.05
66.04
75.85
82.63
86.20
87.41
87.78
88.68
90.57
92.72
93.71
92.15
87.40
79.85
70.63
61.14
52.40
44.84
38.14
31.49
24.01
15.20
5.32
-4.66
-13.38
-19.58
-22.61
-22.56
-20.23
-16.82
-13.70
-12.14
-13.15
-17.23
-24.06
-32.43
-40.37
-45.72
-46.83
-43.20
-35.68
-26.24
-17.27
-10.79
-7.82
-8.08
-10.22
-12.41
-13.03
-11.21
-7.05
-1.57
3.73
7.40
8.90
9.22
10.98
17.78
32.78
57.31
90.01
127.15
163.98
196.39
222.00
240.33
252.04
257.91
258.18
252.63
241.17
224.33
203.43
180.35
157.09
135.48
117.04
102.93
93.88
90.01
90.68
94.41
98.91
101.49
99.74
92.28
79.35
62.75
45.13
28.88
15.14
3.31
-8.63
-23.37
-43.30
-69.88
-103.34
-142.63
-185.61
-229.35
-270.49
-305.75
-332.36
-348.51
-353.62
-348.49
-335.29
-317.63
-299.97
-286.62
-280.37
-281.29
-286.50
-291.06
-289.92
-280.23
-262.66
-241.06
-220.39
-203.99
-191.53
-178.95
-160.51
-131.95
-93.17
-48.89
-6.92
24.92
41.99
44.52
37.26
27.50
22.70
28.46
47.52
79.60
121.74
169.06
215.75
256.21
286.05
302.84
306.39
298.49
282.39
261.93
240.66
221.14
204.36
189.80
175.79
160.29
141.70
119.43
94.12
67.31
40.95
16.84
-3.75
-20.26
-32.77
-41.83
-48.19
-52.70
-56.14
-59.10
-61.89
-64.63
-67.37
-70.30
-73.83
-78.38
-84.36
-91.92
-100.75
-110.10
-118.93
-126.25
-131.50
-134.86
-137.04
-139.33
-142.96
-148.28
-154.08
-157.43
-154.38
-141.26
-115.94
-77.72
-27.95
30.62
94.43
159.45
221.17
274.72
315.49
340.25
349.75
347.23
337.36
324.39
310.83
297.17
282.52
265.68
246.25
227.35
212.58
204.94
205.86
215.12
231.51
253.35
278.70
305.09
332.18
357.95
378.63
389.56
387.13
370.77
343.57
311.16
260.94
187.89
93.81
-11.53
-114.22
-202.46
-270.22
-316.97
-345.74
-360.97
-364.09
-356.60
-340.32
-317.80
-292.05
-265.74
-240.75
-218.11
-198.26
-178.92
-158.57
-136.64
-113.81
-91.75
-72.20
-56.38
-44.86
-37.58
-32.57
-28.40
-23.95
-18.77
-12.95
-6.71
-0.08
7.14
15.24
25.28
37.34
51.27
66.35
81.52
95.49
107.01
114.73
117.04
116.94
115.39
112.93
109.83
106.10
101.72
96.67
91.03
85.01
78.99
72.75
66.31
59.70
52.93
45.93
38.61
30.98
23.21
15.70
8.44
1.61
-4.71
-10.61
-16.42
-22.54
-29.27
-36.66
-44.38
-52.16
-59.55
-66.35
-72.73
-79.31
-86.97
-96.47
-108.18
-121.79
-136.67
-151.90
-166.75
-181.11
-195.63
-211.64
-230.71
-253.97
-281.47
-311.74
-341.86
-368.08
-386.92
-396.09
-394.95
-384.53
-367.02
-345.23
-321.99
-299.58
-279.16
-260.48
-241.96
-221.55
-197.85
-171.21
-143.98
-119.77
-101.98
-92.35
-90.31
-93.31
-98.00
-101.58
-102.75
-101.69
-99.69
-98.22
-98.32
-100.49
-104.87
-111.52
-120.27
-130.22
-138.95
-142.30
-135.42
-115.07
-82.14
-42.63
-6.31
16.73
20.03
3.33
-27.60
-63.38
-94.52
-114.22
-119.55
-111.03
-91.51
-64.86
-35.28
-6.70
17.54
35.16
45.34
49.03
48.87
48.64
52.57
64.22
85.34
115.17
150.55
186.65
218.35
241.58
254.34
257.01
252.05
243.17
234.23
228.11
225.89
226.62
227.95
227.11
222.11
212.36
198.70
182.89
166.88
152.29
140.03
130.28
122.59
116.05
109.69
102.86
95.63
88.81
83.60
81.04
81.44
84.25
88.34
92.52
95.95
98.21
99.18
98.74
96.82
93.44
89.04
84.37
80.35
77.44
75.26
72.49
67.27
57.89
43.52
24.49
2.30
-20.81
-42.15
-58.98
-68.79
-69.72
-61.05
-43.66
-20.09
5.90
30.16
49.17
60.67
63.61
58.10
45.24
27.23
7.33
-10.62
-23.10
-28.19
-26.36
-20.46
-14.56
-12.20
-15.07
-22.73
-33.13
-43.71
-52.16
-56.97
-57.82
-55.49
-51.59
-48.18
-47.20
-49.71
-55.41
-62.62
-68.54
-70.40
-65.17
-50.06
-23.81
11.32
48.37
76.63
85.52
69.71
31.35
-18.09
-61.52
-82.91
-74.33
-39.08
10.60
59.84
97.58
117.25
118.70
105.60
82.43
51.89
14.54
-29.36
-77.79
-126.49
-173.81
-219.37
-263.85
-308.00
-351.99
-395.15
-435.54
-470.06
-474.43
-432.15
-341.84
-220.39
-92.82
21.14
112.45
180.92
230.84
267.92
293.98
309.52
315.23
313.31
307.02
299.39
292.57
287.97
285.61
282.70
276.61
266.08
252.12
237.19
223.78
213.62
206.95
203.55
201.46
198.81
194.61
189.17
183.35
177.30
174.74
176.59
182.82
192.07
202.71
213.29
222.92
230.95
236.68
239.22
236.91
228.53
213.19
190.76
161.99
128.48
92.41
55.98
21.19
-10.96
-39.83
-65.08
-86.55
-104.23
-118.24
-128.80
-136.33
-141.51
-145.62
-150.01
-155.87
-163.92
-174.33
-186.88
-200.93
-215.82
-231.18
-247.20
-264.37
-283.23
-304.04
-326.57
-350.35
-374.43
-397.72
-419.27
-438.59
-456.09
-473.37
-493.28
-518.93
-552.39
-592.05
-631.64
-661.54
-671.72
-655.57
-612.30
-546.88
-468.06
-386.38
-310.99
-248.49
-202.95
-175.80
-165.43
-166.44
-170.40
-168.19
-154.40
-127.62
-90.28
-47.02
-2.56
39.83
78.91
114.76
147.72
176.07
198.86
216.55
230.71
243.00
253.98
262.87
268.01
278.17
294.79
313.45
326.96
330.64
324.29
310.57
292.44
272.09
250.72
227.19
201.19
173.70
146.68
121.95
100.62
82.60
67.51
54.71
42.34
29.70
17.26
6.32
-2.58
-8.36
-10.99
-11.00
-9.34
-7.89
-7.64
-8.94
-11.49
-14.91
-18.89
-23.57
-28.87
-34.78
-41.64
-49.30
-57.45
-65.62
-73.25
-79.79
-84.95
-87.38
-85.57
-81.16
-74.90
-67.54
-59.59
-51.21
-42.45
-33.67
-23.48
-11.08
3.82
20.73
38.32
55.42
71.37
85.74
97.81
109.58
122.26
136.91
153.32
170.28
186.96
203.50
220.47
238.08
260.21
289.57
328.81
378.02
435.17
497.83
564.20
633.52
679.79
684.55
639.55
553.15
440.39
312.59
174.48
29.16
-116.02
-247.85
-341.08
-386.91
-384.02
-342.27
-278.79
-210.75
-150.30
-104.03
-75.39
-61.84
-68.31
-94.39
-136.05
-184.03
-224.52
-243.76
-234.45
-198.68
-141.42
-70.51
9.09
93.28
178.02
258.00
325.97
373.81
380.73
338.29
255.26
157.24
70.64
9.98
-24.53
-40.96
-48.29
-52.10
-51.27
-43.11
-26.22
-3.30
20.55
40.25
53.30
59.51
60.54
60.43
62.48
68.09
76.16
84.37
90.31
93.24
93.68
92.95
93.42
96.55
101.83
106.25
109.66
109.85
104.83
93.27
74.61
49.70
20.25
-11.80
-44.62
-76.50
-106.85
-135.35
-162.06
-187.13
-210.28
-230.77
-247.59
-259.98
-267.57
-271.32
-272.63
-273.08
-274.20
-277.58
-285.12
-298.48
-318.05
-340.92
-360.35
-366.85
-352.05
-313.02
-254.76
-188.72
-127.98
-81.63
-51.34
-32.52
-18.17
-3.17
13.79
31.56
49.11
67.48
89.03
114.97
143.00
167.52
182.20
183.35
172.22
154.49
137.58
126.79
123.02
122.91
121.40
115.19
104.36
92.26
83.20
79.57
80.03
80.04
74.14
59.12
35.79
8.59
-16.26
-33.83
-42.43
-43.72
-40.92
-36.40
-30.56
-21.97
-9.15
7.41
24.46
37.18
41.89
38.83
32.79
31.23
40.88
64.09
97.52
133.11
161.29
174.60
169.81
148.44
115.40
76.76
37.94
2.92
-25.30
-43.93
-50.51
-43.94
-25.86
-1.64
20.42
31.57
26.21
4.64
-26.70
-57.67
-78.55
-84.02
-74.90
-57.25
-39.61
-29.46
-31.05
-44.85
-68.35
-97.78
-129.94
-163.43
-198.74
-236.86
-277.48
-317.25
-349.91
-368.45
-368.30
-349.98
-319.17
-284.15
-252.13
-226.42
-206.42
-190.38
-178.54
-174.32
-182.44
-204.77
-237.01
-268.72
-287.15
-283.26
-256.20
-213.71
-168.36
-131.28
-107.20
-93.06
-80.86
-62.97
-36.70
-5.60
23.07
43.13
53.07
56.98
61.96
73.63
92.72
114.71
132.66
141.50
140.86
135.19
131.05
133.24
142.20
154.27
164.46
170.00
172.31
176.41
188.05
209.91
239.44
269.64
292.29
302.13
299.12
288.32
276.84
269.79
267.73
266.77
261.44
248.49
228.79
206.92
188.31
175.81
167.91
159.37
144.28
119.37
85.73
48.35
13.42
-14.96
-36.86
-56.23
-78.18
-105.50
-136.70
-166.12
-186.58
-193.18
-185.79
-169.16
-150.24
-134.45
-123.03
-112.69
-98.12
-75.89
-47.17
-17.93
4.01
13.01
8.66
-3.84
-16.52
-22.94
-21.37
-15.46
-11.17
-12.82
-20.40
-29.56
-34.72
-32.93
-26.13
-20.03
-20.36
-28.98
-42.49
-53.79
-56.36
-48.47
-34.49
-22.70
-20.43
-29.87
-46.81
-62.71
-69.32
-62.92
-45.88
-24.81
-6.21
6.92
16.12
25.59
38.57
54.32
68.00
73.17
65.99
48.04
26.14
9.66
5.81
16.14
35.57
54.77
64.71
60.81
44.73
23.50
6.02
-1.01
4.24
18.76
36.96
53.71
66.11
73.86
77.61
76.73
68.73
50.34
20.57
-17.01
-54.02
-79.40
-83.80
-64.02
-24.95
21.66
61.71
83.93
83.57
63.46
31.46
-3.71
-35.81
-62.49
-83.60
-98.77
-106.05
-102.23
-85.49
-58.10
-27.34
-3.01
6.87
0.15
-18.30
-38.70
-51.38
-51.52
-41.08
-27.08
-17.01
-14.95
-20.04
-28.01
-34.93
-40.53
-48.71
-65.26
-93.54
-131.20
-169.99
-198.66
-207.95
-195.18
-165.26
-128.34
-94.82
-70.58
-55.35
-44.02
-30.82
-13.43
5.17
18.43
20.66
10.84
-5.85
-19.88
-22.18
-8.95
16.26
44.07
64.11
70.07
62.28
47.20
33.43
26.89
28.26
33.44
36.83
35.50
30.86
27.79
31.15
41.99
56.22
66.61
66.98
56.36
40.13
28.01
29.09
47.20
78.76
114.56
144.96
164.66
175.03
182.56
194.23
212.38
232.71
246.24
244.50
224.81
192.12
156.88
129.42
114.57
109.56
106.34
97.06
78.80
55.08
33.44
20.54
17.71
19.92
18.27
5.05
-21.98
-58.10
-93.55
-118.23
-126.47
-119.32
-103.39
-86.57
-73.86
-64.96
-55.28
-39.72
-16.74
9.96
32.91
45.08
43.64
31.51
15.67
2.97
-3.54
-5.84
-9.13
-17.62
-31.55
-46.63
-56.11
-54.93
-43.08
-26.03
-12.21
-8.29
-15.81
-30.41
-44.33
-50.89
-48.37
-40.72
-35.21
-37.62
-49.05
-65.10
-78.20
-81.94
-74.56
-59.50
-43.05
-30.15
-21.78
-14.78
-4.40
11.89
31.80
48.89
55.76
48.70
30.03
7.34
-10.14
-16.53
-12.31
-3.68
1.17
-2.70
-14.19
-26.85
-32.74
-27.36
-12.64
4.04
13.81
11.50
-1.66
-18.89
-31.43
-33.59
-25.85
-14.34
-7.42
-10.75
-24.37
-42.97
-58.90
-66.61
-65.56
-59.88
-55.37
-55.21
-58.03
-58.77
-52.05
-36.24
-15.38
2.47
9.08
0.55
-20.77
-47.61
-71.46
-86.86
-93.79
-96.82
-101.98
-112.67
-127.43
-140.62
-145.36
-137.62
-118.91
-95.63
-75.97
-65.36
-63.66
-65.44
-63.34
-52.45
-33.42
-12.06
4.07
10.55
8.62
4.62
6.22
17.63
36.87
56.97
69.96
71.78
64.55
55.43
52.54
60.34
76.92
95.05
105.93
103.94
89.14
66.90
44.93
29.22
21.25
17.91
14.01
6.05
-5.16
-14.51
-15.25
-3.10
20.83
50.13
75.95
91.39
94.36
88.27
79.10
71.28
65.09
57.01
42.41
19.14
-10.81
-42.01
-67.13
-81.39
-84.59
-80.59
-74.50
-69.19
-63.90
-54.92
-38.01
-9.34
30.10
74.01
113.24
140.68
154.93
160.60
165.54
176.45
198.61
231.39
269.03
304.27
332.69
354.66
372.90
388.06
396.38
395.47
383.47
361.62
335.25
313.05
304.36
313.88
338.71
342.37
298.26
201.78
74.14
-54.22
-161.88
-241.42
-296.21
-334.17
-362.65
-381.61
-388.61
-382.50
-365.75
-343.36
-319.74
-298.19
-280.95
-267.54
-252.80
-231.76
-202.20
-165.91
-127.25
-89.96
-57.11
-30.64
-11.09
4.08
17.65
31.09
43.82
48.12
41.39
24.22
-0.39
-28.48
-55.39
-77.50
-93.03
-102.25
-106.68
-107.42
-105.86
-102.99
-99.67
-96.27
-93.10
-90.62
-89.50
-90.05
-91.92
-94.75
-97.24
-98.07
-96.08
-90.68
-82.01
-71.00
-59.18
-48.03
-39.30
-33.03
-28.67
-25.15
-21.39
-16.60
-10.47
-3.07
5.80
14.03
22.71
34.17
51.44
77.23
112.99
158.56
212.24
271.38
324.85
363.30
380.53
376.04
354.61
323.56
289.81
258.34
231.68
209.42
189.73
168.15
139.28
99.29
48.53
-7.72
-60.87
-102.80
-129.63
-141.61
-142.86
-138.51
-132.16
-124.88
-116.23
-105.91
-95.04
-86.37
-81.99
-82.82
-87.97
-95.11
-101.34
-104.46
-103.82
-100.27
-96.23
-93.85
-94.60
-98.97
-106.85
-118.13
-132.85
-150.58
-167.30
-179.02
-180.80
-169.14
-144.33
-111.10
-77.09
-49.76
-33.44
-27.95
-30.28
-36.37
-43.26
-49.95
-56.37
-62.36
-66.67
-67.59
-63.71
-55.39
-44.24
-32.57
-22.68
-15.76
-11.87
-10.19
-9.80
-9.87
-10.61
-12.92
-17.91
-26.37
-38.29
-52.80
-68.51
-83.99
-97.83
-109.56
-119.32
-127.64
-134.96
-141.18
-145.39
-145.84
-143.65
-138.67
-131.05
-121.33
-110.42
-99.36
-88.89
-79.14
-69.64
-59.57
-47.62
-33.06
-16.02
2.60
21.43
39.29
55.72
71.18
86.88
104.57
125.31
148.94
174.19
199.12
221.97
241.99
259.71
276.79
295.73
318.81
347.47
381.53
418.65
454.20
481.88
495.20
489.14
461.88
415.16
353.53
282.75
207.84
131.85
55.63
-21.23
-98.61
-174.07
-242.35
-296.11
-328.19
-333.99
-313.11
-269.61
-210.70
-144.72
-79.35
-20.64
27.26
62.02
82.99
91.17
89.23
80.99
70.56
61.37
55.28
52.37
50.93
47.89
40.05
25.47
4.60
-19.37
-41.72
-58.35
-67.91
-72.67
-77.28
-86.26
-101.28
-120.04
-137.45
-148.14
-149.45
-142.78
-132.97
-125.95
-126.16
-135.03
-150.99
-170.40
-188.81
-202.18
-208.18
-207.31
-203.21
-201.60
-207.73
-223.38
-245.16
-265.25
-274.23
-265.34
-237.39
-194.67
-144.30
-92.58
-42.84
4.39
49.84
94.57
138.32
179.92
218.46
254.64
290.58
328.39
368.09
406.44
439.22
460.97
466.75
454.23
425.02
384.66
340.43
298.27
260.68
229.93
205.91
187.01
171.36
158.21
148.82
145.83
151.75
167.99
199.26
249.05
317.51
399.56
485.18
561.90
617.69
643.95
610.85
506.09
339.85
143.91
-43.48
-195.10
-301.39
-366.08
-399.14
-411.74
-409.82
-398.17
-381.42
-364.18
-349.62
-338.31
-328.93
-320.06
-311.13
-299.00
-281.14
-256.55
-226.83
-195.55
-166.52
-142.37
-124.14
-111.45
-100.92
-89.38
-74.77
-57.65
-40.52
-26.09
-16.31
-11.89
-12.40
-15.44
-18.10
-18.03
-14.11
-6.72
3.17
14.26
25.35
35.37
43.86
50.75
56.25
61.15
66.74
75.49
90.07
111.93
140.05
170.40
197.00
213.82
218.74
211.12
193.33
169.63
144.50
121.30
101.88
86.99
76.57
70.03
65.94
62.66
58.65
52.94
45.75
38.24
32.02
28.32
27.71
29.90
34.46
40.88
48.50
56.68
64.84
72.72
80.52
88.66
97.52
107.29
117.66
127.80
136.55
142.64
145.08
143.28
137.16
126.93
113.08
96.31
77.34
56.99
36.14
15.79
-2.98
-19.18
-32.09
-41.28
-46.75
-48.92
-48.52
-46.46
-43.65
-40.87
-38.77
-37.79
-38.19
-40.03
-43.77
-49.31
-55.90
-62.31
-67.51
-71.02
-72.98
-73.93
-74.57
-76.07
-78.89
-82.61
-86.09
-88.23
-88.49
-87.06
-84.66
-82.31
-82.45
-86.46
-94.03
-103.55
-113.52
-123.14
-132.49
-142.04
-152.39
-168.38
-192.99
-225.82
-263.36
-300.91
-333.91
-358.20
-370.98
-372.18
-374.05
-387.62
-417.48
-460.78
-510.94
-561.33
-606.91
-644.84
-674.99
-713.00
-768.79
-840.64
-917.66
-989.40
-1051.66
-1105.25
-1151.55
-1188.98
-1230.05
-1276.70
-1317.92
-1336.61
-1322.54
-1278.08
-1213.86
-1141.79
-958.24
-628.96
-199.77
232.47
589.43
843.57
1004.36
1095.48
1140.90
1159.06
1144.46
1094.49
1017.36
930.33
849.35
782.77
732.29
696.32
671.45
641.34
595.84
535.99
471.74
413.41
366.35
331.54
307.81
293.15
277.13
252.89
220.54
185.98
155.83
134.40
124.12
126.93
140.65
159.48
178.88
197.35
216.07
236.89
260.98
288.84
320.79
357.23
397.79
442.46
491.21
542.48
591.43
630.15
649.90
644.63
613.48
561.69
498.06
431.64
368.85
312.38
262.09
216.84
176.04
139.93
109.16
83.47
61.48
41.38
21.83
2.75
-14.74
-28.78
-37.76
-41.03
-39.10
-33.47
-25.82
-17.50
-9.00
-0.00
10.16
21.95
35.25
49.24
62.55
73.77
81.82
86.33
87.53
86.03
82.50
77.45
71.09
63.36
54.18
43.63
32.04
20.00
8.15
-2.87
-12.64
-21.08
-28.34
-34.77
-40.74
-46.59
-52.44
-58.21
-63.65
-68.51
-72.61
-76.00
-78.94
-81.86
-85.15
-88.90
-92.93
-96.79
-100.03
-102.44
-104.33
-106.56
-110.20
-116.13
-124.67
-135.35
-147.11
-158.77
-169.64
-180.01
-191.05
-204.42
-221.52
-242.83
-267.62
-294.30
-321.05
-346.63
-370.83
-394.35
-418.57
-445.29
-476.41
-513.44
-556.60
-603.51
-648.71
-684.11
-701.07
-693.58
-660.65
-606.79
-540.12
-469.21
-400.27
-336.44
-278.46
-226.35
-180.60
-142.20
-111.87
-88.86
-71.00
-55.39
-40.44
-26.18
-13.90
-5.28
-1.14
-0.62
-0.99
1.62
11.06
28.15
51.75
79.86
110.48
142.29
174.85
208.76
245.34
286.89
332.66
381.85
434.09
488.31
540.77
584.38
610.90
614.07
593.71
550.09
488.09
416.26
343.91
277.57
219.49
169.41
126.02
90.35
56.27
18.30
-25.89
-75.36
-128.32
-184.27
-243.60
-307.92
-342.81
-328.52
-267.28
-182.30
-98.86
-30.57
20.09
56.73
72.64
77.27
70.56
52.24
25.38
-4.48
-33.33
-61.80
-83.32
-98.48
-107.80
-120.55
-142.87
-173.66
-204.88
-225.98
-228.41
-208.22
-168.65
-101.48
-19.01
57.22
109.73
134.38
138.02
130.16
117.63
102.40
85.68
64.70
39.36
12.98
-10.16
-27.61
-39.72
-48.44
-56.33
-65.39
-76.73
-89.39
-100.76
-108.33
-111.27
-110.86
-109.50
-109.80
-113.14
-120.45
-131.19
-143.41
-154.94
-164.15
-170.15
-172.19
-168.98
-161.44
-149.46
-132.64
-110.46
-82.90
-50.93
-16.37
18.41
51.07
79.55
102.65
119.63
130.44
135.52
135.66
131.86
125.25
117.12
108.65
101.27
95.99
93.37
93.39
95.54
98.81
101.73
102.61
99.71
91.67
77.53
56.92
30.22
-1.42
-36.21
-71.88
-105.95
-136.02
-159.98
-176.30
-184.19
-183.65
-175.48
-161.08
-142.26
-121.09
-99.55
-79.37
-61.85
-47.82
-37.60
-31.15
-28.08
-27.77
-29.47
-32.45
-35.95
-39.28
-41.89
-43.33
-43.38
-42.03
-39.50
-36.12
-32.21
-27.99
-23.53
-18.70
-13.28
-7.09
-0.15
7.30
14.90
22.29
29.39
36.38
43.77
52.16
61.93
73.05
85.07
97.20
108.74
119.36
129.38
139.58
150.93
164.13
179.23
195.59
212.15
227.90
242.29
255.51
268.29
281.76
297.24
315.94
338.64
364.97
392.79
417.99
435.27
439.85
429.34
404.83
370.50
332.00
294.10
259.30
227.74
198.35
170.23
143.41
118.52
96.14
76.24
58.15
41.04
24.40
8.21
-7.14
-20.86
-31.93
-39.00
-40.77
-36.48
-26.61
-12.98
1.59
14.26
23.13
27.43
27.22
22.83
14.64
3.31
-9.81
-22.48
-32.04
-36.34
-34.62
-27.79
-17.90
-7.11
3.03
11.85
19.10
24.31
26.45
24.25
16.97
5.00
-9.87
-24.91
-37.34
-45.16
-47.64
-45.21
-38.92
-30.10
-20.11
-10.52
-3.16
0.09
-2.14
-10.16
-22.83
-37.75
-51.88
-62.34
-67.18
-65.65
-58.31
-46.70
-32.99
-19.41
-7.86
0.50
5.38
7.24
6.88
4.94
1.61
-3.48
-10.93
-21.07
-33.46
-46.69
-58.69
-67.17
-70.37
-67.68
-59.84
-48.74
-37.14
-27.96
-23.72
-26.14
-35.50
-50.36
-67.68
-83.44
-93.79
-96.19
-89.99
-76.34
-57.27
-34.54
-8.95
20.00
53.66
93.39
139.34
189.53
239.32
281.86
309.69
316.96
301.42
265.35
214.78
157.55
101.00
50.45
8.84
-22.70
-44.19
-56.57
-61.70
-62.62
-63.08
-66.52
-74.79
-87.46
-102.07
-115.37
-124.62
-128.61
-127.83
-123.80
-118.17
-112.04
-105.68
-98.75
-90.83
-81.72
-71.46
-60.38
-48.89
-37.61
-27.33
-18.81
-12.48
-8.06
-4.47
-0.06
6.78
17.02
30.53
45.93
60.97
73.15
80.51
82.19
78.65
71.49
62.84
54.47
47.20
40.68
33.92
25.97
16.69
6.94
-1.97
-9.05
-14.34
-18.93
-24.38
-31.81
-41.32
-52.00
-62.35
-70.77
-75.83
-76.25
-70.90
-59.16
-41.31
-19.07
4.33
24.79
38.38
42.75
37.87
26.04
11.03
-3.22
-13.84
-19.72
-21.45
-20.69
-19.16
-18.06
-17.92
-18.98
-21.74
-26.87
-34.65
-44.11
-52.86
-57.66
-55.80
-46.32
-30.52
-11.33
7.93
24.65
37.30
45.12
47.48
43.83
34.05
19.23
1.85
-14.57
-26.71
-32.71
-32.80
-29.22
-25.14
-23.56
-26.18
-32.81
-41.59
-49.84
-55.13
-56.22
-53.42
-47.91
-40.98
-33.10
-23.96
-13.15
-1.13
10.22
18.11
19.97
15.00
4.65
-8.02
-19.86
-29.30
-36.92
-44.84
-55.26
-69.03
-85.05
-100.73
-113.14
-119.96
-120.05
-113.19
-99.75
-80.69
-57.78
-33.62
-11.09
8.12
25.15
44.02
69.96
105.85
149.19
191.56
221.64
230.51
216.25
185.56
150.59
123.42
110.79
111.63
118.62
122.22
114.79
92.90
57.26
11.39
-39.74
-90.75
-136.31
-171.78
-194.10
-202.43
-198.36
-185.39
-167.83
-149.61
-133.42
-120.42
-110.25
-101.44
-91.89
-79.56
-63.37
-43.92
-23.71
-6.43
4.35
6.84
1.75
-7.89
-17.98
-24.98
-27.22
-25.30
-21.53
-18.75
-19.17
-23.47
-30.58
-38.24
-43.88
-45.71
-43.40
-38.14
-31.94
-26.67
-22.99
-20.10
-16.22
-9.61
0.17
11.85
22.73
29.87
31.24
26.55
17.39
6.50
-3.12
-9.18
-10.67
-7.78
-1.48
7.10
17.06
27.87
39.04
49.91
59.36
65.90
68.13
65.17
57.20
45.58
32.51
20.38
11.04
5.30
2.84
2.67
3.65
4.99
6.33
7.43
7.75
6.50
2.99
-2.85
-10.17
-17.56
-23.69
-27.91
-30.47
-31.96
-32.59
-31.80
-28.45
-21.59
-11.33
0.69
11.84
19.37
21.64
18.81
12.80
6.52
2.73
3.02
7.36
14.31
21.65
27.05
28.71
25.73
18.39
8.23
-2.19
-10.02
-13.16
-11.20
-5.67
0.56
4.52
4.61
0.98
-4.52
-9.21
-10.16
-4.64
9.40
32.64
63.62
98.37
131.16
156.27
169.90
171.35
162.76
147.49
128.36
106.63
82.35
55.48
26.90
-1.43
-27.35
-49.46
-67.61
-82.47
-94.72
-104.29
-110.37
-111.80
-108.04
-99.80
-88.87
-77.73
-68.43
-62.08
-58.59
-56.99
-56.01
-54.67
-52.66
-50.25
-48.08
-46.76
-46.63
-47.64
-49.41
-51.44
-53.18
-54.09
-53.44
-50.33
-43.93
-33.78
-20.20
-4.41
11.71
26.26
37.82
45.92
50.89
53.60
54.94
55.48
55.38
54.37
52.10
48.30
43.06
36.80
30.18
23.99
18.72
14.47
11.03
8.10
5.45
3.17
1.44
0.34
-0.36
-1.23
-3.04
-6.43
-11.71
-18.73
-26.89
-35.36
-43.23
-49.73
-54.20
-56.18
-55.29
-51.31
-44.35
-35.14
-24.97
-15.43
-7.55
-1.19
5.08
13.30
24.91
39.68
55.43
68.79
76.71
77.88
73.07
64.57
54.89
45.71
37.52
30.25
24.01
19.62
18.35
21.18
27.93
36.87
44.97
48.97
46.69
37.96
24.75
10.37
-1.97
-10.32
-14.58
-16.16
-16.97
-18.52
-21.42
-25.51
-30.21
-34.91
-38.93
-41.32
-40.82
-36.22
-26.82
-12.94
4.09
22.39
39.95
55.00
66.04
71.87
71.73
65.66
54.79
41.33
28.00
17.10
9.86
6.08
4.48
3.42
1.40
-2.45
-8.44
-16.21
-24.99
-33.63
-40.85
-45.56
-47.07
-45.25
-40.39
-33.08
-24.08
-14.53
-6.07
-0.73
-0.36
-5.68
-15.60
-27.10
-36.37
-40.29
-37.95
-30.96
-22.59
-16.02
-12.73
-12.02
-11.58
-8.76
-1.32
12.37
33.37
61.92
96.54
133.33
166.25
189.00
197.60
192.38
177.64
159.08
140.37
121.03
97.05
63.93
20.25
-30.45
-80.74
-122.54
-150.57
-164.03
-165.94
-160.82
-152.27
-141.84
-129.35
-114.43
-97.72
-81.10
-67.01
-57.06
-51.32
-48.23
-45.60
-41.73
-36.30
-30.36
-25.66
-23.75
-25.26
-29.60
-35.29
-40.51
-43.69
-44.04
-41.71
-37.72
-33.58
-30.79
-30.18
-31.65
-34.02
-35.40
-33.76
-27.80
-17.51
-4.42
8.72
18.80
23.22
20.91
12.64
0.90
-10.84
-19.30
-22.42
-19.83
-12.74
-3.12
7.15
16.81
25.32
32.47
38.08
41.71
42.80
41.04
36.66
30.55
24.07
18.58
15.03
13.71
14.18
15.54
16.94
17.97
18.85
20.16
22.18
24.40
25.38
23.49
17.84
9.08
-0.60
-8.49
-12.66
-12.83
-10.31
-7.05
-4.36
-2.30
0.23
4.50
11.15
19.73
29.08
38.01
45.76
52.10
57.03
60.32
61.25
58.83
52.23
41.38
27.31
12.12
-1.55
-11.34
-16.07
-16.19
-13.66
-11.25
-11.46
-15.60
-23.21
-32.20
-39.54
-42.39
-39.19
-30.43
-18.62
-7.50
-0.63
-0.10
-5.92
-16.33
-28.74
-40.70
-50.35
-56.36
-57.37
-52.05
-39.43
-19.80
4.99
32.19
59.42
85.84
112.30
140.02
168.75
195.62
215.65
223.95
218.48
201.45
178.80
157.42
141.93
132.80
126.58
118.17
103.53
81.52
53.91
24.18
-4.25
-29.24
-50.08
-66.90
-79.81
-88.45
-92.03
-89.99
-82.53
-70.88
-57.18
-43.69
-32.05
-22.82
-15.40
-8.51
-1.14
6.81
14.38
19.86
21.76
19.42
13.29
4.74
-4.59
-13.43
-21.19
-27.85
-33.92
-40.00
-46.77
-54.81
-64.51
-75.94
-88.74
-101.93
-114.15
-123.99
-130.36
-132.93
-132.22
-129.50
-126.43
-124.60
-124.96
-127.50
-131.46
-135.51
-138.48
-139.93
-140.44
-141.43
-144.75
-151.94
-163.48
-178.67
-195.63
-211.93
-225.08
-233.00
-234.40
-228.95
-217.32
-200.93
-181.41
-159.84
-136.30
-109.70
-78.51
-41.67
0.65
47.02
95.38
144.00
191.96
238.87
283.93
325.29
359.88
384.24
395.30
391.13
370.90
335.06
285.44
225.60
161.10
98.80
45.51
5.98
-18.37
-29.58
-31.99
-30.42
-28.63
-28.82
-31.77
-37.46
-45.67
-56.08
-68.33
-81.93
-96.21
-110.55
-124.48
-137.59
-149.51
-159.82
-168.00
-173.54
-176.19
-176.00
-173.36
-168.89
-162.91
-155.18
-144.88
-130.94
-112.74
-90.89
-67.23
-44.30
-24.26
-7.89
5.44
17.25
28.90
40.93
52.95
64.39
75.03
85.46
96.65
109.28
123.13
136.98
149.04
157.55
161.51
160.96
156.82
150.53
143.40
136.11
128.58
120.14
110.14
98.61
86.47
75.23
66.35
60.54
57.45
55.82
54.17
51.39
47.08
41.54
35.39
29.09
22.71
15.96
8.55
0.63
-7.00
-13.05
-16.22
-15.85
-12.25
-6.69
-0.76
4.23
7.87
10.46
12.67
14.89
16.85
17.68
16.46
12.78
7.11
0.66
-5.15
-9.47
-12.36
-14.83
-18.29
-23.79
-31.55
-40.86
-50.51
-59.50
-67.60
-75.39
-83.86
-93.57
-104.15
-114.31
-122.33
-126.89
-127.78
-126.03
-123.34
-121.36
-120.84
-121.27
-121.29
-119.47
-115.18
-109.07
-102.74
-98.08
-96.38
-97.91
-101.96
-107.38
-112.97
-117.48
-119.24
-115.81
-104.36
-82.68
-50.43
-9.96
34.01
75.77
110.43
135.26
150.16
156.86
157.68
154.47
148.11
138.72
126.41
111.80
96.25
81.79
70.55
64.21
63.59
68.47
77.70
89.66
102.54
114.77
125.09
132.70
137.27
138.84
137.83
134.93
130.87
126.28
121.58
116.94
112.45
108.17
104.35
101.31
99.27
98.21
97.93
98.18
98.70
99.37
100.09
100.74
101.29
101.98
103.36
106.13
110.52
115.81
120.39
122.47
121.39
118.65
117.75
122.66
135.69
155.84
179.02
199.70
213.18
217.23
212.15
199.50
180.70
156.15
125.80
90.17
51.14
11.62
-25.59
-59.19
-89.95
-120.25
-152.59
-188.33
-227.04
-266.88
-305.56
-341.45
-374.36
-405.44
-436.88
-471.16
-510.43
-555.63
-605.35
-655.22
-698.04
-725.44
-730.44
-710.05
-666.41
-606.08
-537.45
-467.89
-401.98
-341.35
-285.96
-235.43
-189.75
-148.89
-112.16
-77.89
-43.97
-8.91
27.38
63.57
97.52
127.42
152.62
174.06
194.01
215.34
240.57
270.79
304.71
338.57
366.78
383.65
385.40
371.60
345.44
312.46
278.48
247.70
221.83
200.48
182.40
166.59
152.88
141.68
133.35
127.56
123.18
118.59
112.17
102.80
90.30
75.28
58.89
42.40
26.88
13.03
1.30
-7.95
-14.41
-17.77
-18.16
-16.14
-12.86
-9.75
-7.96
-7.82
-8.45
-7.98
-4.24
4.17
17.00
32.10
46.13
55.82
59.30
56.69
49.82
41.29
33.37
27.44
24.05
23.15
24.69
28.50
34.19
40.84
47.02
51.15
51.98
49.12
43.04
34.85
25.67
16.25
6.82
-2.59
-11.75
-20.15
-26.96
-31.44
-33.36
-33.00
-31.14
-28.67
-26.37
-24.79
-24.01
-23.69
-23.00
-20.84
-16.27
-9.16
-0.44
7.95
13.85
15.85
13.96
9.60
4.88
1.64
0.65
1.40
2.53
2.63
0.87
-2.58
-6.71
-10.06
-11.08
-8.67
-2.45
7.07
18.51
29.90
39.06
44.19
44.27
39.38
30.65
19.91
9.15
-0.04
-6.91
-11.66
-15.10
-18.15
-21.19
-23.83
-25.19
-24.38
-21.20
-16.32
-11.14
-7.07
-4.97
-4.82
-5.78
-6.60
-6.15
-3.83
0.14
4.82
8.91
11.16
10.85
8.01
3.16
-3.07
-10.41
-18.98
-28.86
-39.60
-49.85
-57.57
-60.74
-58.39
-51.29
-41.81
-33.12
-27.86
-27.29
-30.95
-37.26
-44.36
-50.92
-56.46
-60.89
-64.11
-65.80
-65.59
-63.65
-61.01
-59.33
-60.00
-62.99
-66.20
-66.14
-59.32
-44.07
-21.48
4.96
30.91
53.07
70.30
83.65
95.14
106.45
118.09
129.50
139.75
148.26
155.01
160.13
163.36
163.87
160.68
153.39
142.65
130.29
118.66
109.76
104.49
102.33
101.66
100.54
97.40
91.56
83.35
73.80
64.23
55.83
49.22
44.41
40.96
38.25
35.83
33.67
32.05
31.47
32.33
34.89
39.11
44.75
51.31
57.85
63.08
65.41
63.45
56.50
45.00
30.50
15.42
2.18
-7.57
-13.48
-16.62
-18.92
-22.68
-29.97
-42.11
-59.43
-81.47
-107.32
-136.22
-167.88
-202.46
-240.72
-283.50
-330.66
-379.82
-425.88
-461.81
-480.41
-476.61
-449.09
-401.17
-340.02
-274.11
-210.24
-151.87
-99.31
-50.77
-3.81
44.00
93.58
143.30
188.85
224.17
242.93
240.33
215.06
168.76
110.31
54.03
13.45
-5.48
-5.54
6.05
22.57
40.15
57.28
73.53
87.71
97.61
101.29
98.70
91.91
84.18
78.55
76.68
78.87
83.80
89.12
92.71
93.87
93.55
93.34
94.75
98.41
104.03
110.32
115.57
118.03
116.96
112.88
106.71
99.64
92.52
85.81
79.56
73.57
67.83
62.84
59.75
59.39
62.60
69.71
80.40
93.88
108.93
124.46
139.76
154.71
168.99
182.48
194.91
205.60
213.60
217.76
216.95
209.89
200.16
189.65
179.69
170.87
162.79
154.37
144.27
131.52
115.93
98.09
78.07
55.98
31.39
3.40
-29.03
-66.76
-110.41
-160.51
-217.19
-279.80
-345.02
-406.24
-454.76
-482.43
-484.81
-463.00
-422.83
-372.21
-318.27
-265.28
-215.02
-168.49
-127.37
-93.88
-69.40
-52.91
-40.86
-28.69
-12.99
6.82
28.24
46.98
58.61
60.28
51.48
33.88
10.68
-14.40
-38.17
-58.61
-75.12
-88.16
-98.69
-107.75
-116.42
-125.84
-137.17
-151.28
-167.86
-185.31
-200.69
-210.61
-212.51
-205.59
-190.87
-170.40
-146.23
-119.73
-91.87
-63.64
-36.54
-12.70
5.57
16.65
20.24
17.57
10.87
2.18
-6.77
-14.89
-21.74
-27.34
-31.73
-34.72
-36.09
-35.92
-36.07
-38.18
-42.55
-47.67
-50.19
-45.72
-30.05
-0.84
40.97
88.08
131.26
161.74
172.89
161.20
126.83
73.87
9.54
-57.72
-124.11
-186.01
-239.46
-281.08
-309.52
-326.21
-334.99
-341.01
-349.42
-368.45
-399.81
-436.81
-467.43
-480.29
-469.80
-437.93
-392.78
-313.61
-201.13
-73.75
43.16
132.73
191.71
224.74
238.25
238.27
230.12
213.57
188.89
160.51
133.41
110.70
92.61
77.88
65.21
54.16
41.36
25.91
10.24
-3.14
-12.37
-17.25
-18.56
