1604654730.00
64.000000
-0.00
-0.00
-0.00
-0.00
-0.00
-0.00
-0.00
-0.00
-0.00
-0.00
0.00
0.01
0.01
-0.00
-0.03
-0.05
-0.05
0.00
0.13
0.36
0.66
1.01
1.37
1.72
2.06
2.40
2.79
3.24
3.80
4.42
5.06
5.66
6.20
6.68
7.15
7.68
8.31
9.14
10.09
11.04
11.88
12.56
13.14
13.76
14.65
15.96
17.91
20.32
22.90
25.38
27.58
29.57
31.68
34.32
37.81
42.54
48.15
54.10
59.83
64.97
69.58
74.14
79.34
85.71
93.76
103.00
112.62
121.73
129.77
136.75
143.30
150.75
157.77
166.64
177.95
191.79
206.97
220.57
228.25
225.36
208.53
176.87
132.76
80.05
23.07
-34.94
-92.44
-149.16
-205.23
-260.37
-313.74
-363.87
-409.83
-450.91
-486.50
-515.74
-537.23
-549.22
-549.96
-538.37
-514.21
-478.67
-433.88
-382.45
-327.02
-269.84
-212.63
-156.66
-102.95
-52.37
-5.90
35.58
71.43
101.35
125.50
144.38
158.69
169.15
176.37
180.75
182.57
182.07
179.51
175.23
169.65
163.18
156.15
148.81
141.30
133.69
126.02
118.33
110.69
103.16
95.80
88.68
81.83
75.25
68.95
62.95
57.25
51.86
46.78
42.03
37.59
33.45
29.61
26.07
22.81
19.83
17.11
14.67
12.48
10.54
8.83
7.35
6.07
4.97
4.05
3.27
2.62
2.09
1.65
1.30
1.01
0.79
0.61
0.48
0.37
0.30
0.24
0.21
0.19
0.18
0.19
0.21
0.23
0.26
0.29
0.33
0.37
0.42
0.46
0.51
0.56
0.61
0.66
0.72
0.78
0.84
0.92
1.00
1.08
1.18
1.29
1.41
1.55
1.70
1.87
2.06
2.27
2.50
2.77
3.05
3.36
3.71
4.09
4.50
4.95
5.43
5.95
6.51
7.12
7.76
8.45
9.19
9.97
10.79
11.66
12.57
13.54
14.56
15.65
16.79
18.01
19.26
20.55
21.81
22.99
23.99
24.70
24.99
24.76
23.90
22.32
20.03
17.05
13.43
9.33
4.92
0.41
-3.99
-8.08
-11.67
-14.64
-16.89
-18.40
-19.18
-19.30
-18.86
-17.98
-16.75
-15.29
-13.66
-11.92
-10.12
-8.26
-6.43
-4.66
-2.93
-1.26
0.42
2.17
4.03
6.05
8.29
10.63
12.99
15.36
17.75
20.19
22.74
25.48
28.47
31.79
35.19
38.56
41.86
45.13
48.51
52.13
56.12
60.59
65.61
70.68
75.52
80.01
84.20
88.30
92.61
97.31
102.47
108.04
113.16
117.20
119.77
120.75
120.17
117.95
113.50
105.29
95.57
84.37
71.48
56.89
41.01
24.53
8.26
-7.26
-21.84
-35.63
-49.73
-65.06
-82.52
-102.79
-126.01
-151.42
-177.01
-199.60
-215.59
-222.70
-220.34
-210.09
-195.14
-179.07
-164.65
-153.26
-144.97
-139.24
-135.90
-134.92
-136.25
-139.36
-143.14
-146.06
-146.69
-144.16
-138.45
-130.52
-121.68
-113.12
-105.46
-98.55
-91.66
-83.86
-74.56
-63.82
-52.37
-41.18
-31.06
-22.34
-14.81
-7.91
-1.16
5.66
12.31
18.32
23.26
26.95
29.56
31.44
32.91
34.04
34.68
34.61
33.79
32.37
30.74
29.28
28.23
27.60
27.25
27.00
26.74
26.43
26.00
25.44
24.67
23.66
22.39
20.89
19.20
17.42
15.72
14.17
12.71
11.08
8.89
5.79
1.72
-3.00
-7.76
-11.83
-14.66
-16.05
-16.15
-15.24
-13.58
-11.25
-8.25
-4.64
-0.62
3.35
6.75
9.11
10.21
10.12
9.20
7.86
6.52
5.38
4.54
3.91
3.36
2.72
1.82
0.57
-0.97
-2.53
-3.68
-3.95
-2.96
-0.59
3.03
7.52
12.43
17.38
22.22
27.07
32.23
37.89
43.94
49.87
54.95
58.42
59.91
59.62
58.23
56.79
56.54
58.69
63.97
72.27
82.32
91.91
98.62
100.84
98.59
93.48
87.93
84.02
82.58
83.15
84.62
86.00
86.93
87.52
87.82
87.43
85.59
81.64
75.51
67.80
59.45
51.06
42.53
32.74
20.09
3.18
-18.44
-43.89
-71.14
-97.64
-121.04
-139.71
-152.96
-160.81
-163.83
-162.99
-159.59
-155.18
-151.25
-148.73
-147.75
-147.55
-147.01
-145.27
-142.17
-138.31
-134.53
-131.23
-127.88
-123.02
-114.85
-102.10
-84.59
-63.46
-40.68
-18.31
2.23
20.57
37.28
53.37
69.72
86.72
104.22
121.54
137.73
151.60
161.86
167.32
167.17
161.32
150.55
136.33
120.44
104.43
89.28
75.29
62.32
50.07
38.34
27.08
16.39
6.37
-2.92
-11.43
-19.03
-25.50
-30.54
-33.89
-35.35
-34.83
-32.24
-27.45
-20.33
-10.86
0.78
13.97
27.72
40.76
51.79
59.77
64.19
65.10
63.18
59.46
55.14
51.22
48.35
46.80
46.49
47.18
48.62
50.53
52.52
54.04
54.41
53.11
49.95
45.14
39.22
32.85
26.57
20.72
15.53
11.07
7.27
3.83
0.26
-3.92
-8.89
-14.41
-20.00
-25.41
-31.15
-38.38
-48.53
-62.32
-79.18
-97.21
-113.86
-126.90
-135.03
-137.98
-136.03
-129.53
-118.74
-104.08
-86.62
-68.12
-50.79
-36.43
-25.81
-18.31
-12.27
-5.67
3.03
14.41
28.05
42.82
57.39
70.66
82.03
91.34
98.71
104.26
107.85
109.15
107.73
103.35
96.19
86.88
76.39
65.76
55.77
46.77
38.60
30.75
22.63
13.87
4.60
-4.58
-12.90
-19.78
-25.28
-30.08
-35.07
-40.75
-46.72
-51.75
-54.33
-53.48
-49.36
-43.34
-37.46
-33.61
-32.78
-34.82
-38.59
-42.52
-45.24
-45.90
-44.42
-41.24
-37.04
-32.38
-27.54
-22.51
-17.22
-11.74
-6.30
-1.19
3.35
7.33
10.93
14.35
17.63
20.57
22.75
23.68
23.01
20.56
16.41
10.85
4.35
-2.49
-9.07
-14.92
-19.75
-23.54
-26.39
-28.39
-29.48
-29.39
-27.75
-24.32
-19.14
-12.64
-5.60
1.14
6.90
11.35
14.55
16.88
18.71
20.30
21.64
22.44
22.33
21.01
18.46
15.04
11.34
7.99
5.39
3.55
2.14
0.73
-0.86
-2.33
-3.02
-2.13
0.76
5.47
11.33
17.40
23.05
28.16
33.05
38.30
44.33
51.31
59.17
67.68
76.46
84.80
91.63
95.66
95.79
91.58
83.50
72.71
60.58
48.10
35.72
23.48
11.49
0.22
-9.52
-16.92
-21.61
-23.80
-24.16
-23.43
-22.09
-20.41
-18.66
-17.48
-17.98
-21.59
-29.59
-42.58
-60.25
-81.26
-103.60
-124.94
-143.03
-156.13
-163.25
-164.17
-159.46
-150.27
-138.06
-124.36
-110.56
-97.82
-87.05
-78.86
-73.53
-70.86
-70.06
-69.93
-69.18
-66.85
-62.65
-57.02
-50.86
-45.00
-39.73
-34.67
-29.01
-21.97
-13.26
-3.24
7.13
16.72
24.55
30.19
33.91
36.53
39.20
42.97
48.43
55.51
63.52
71.44
78.31
83.39
86.37
87.13
85.71
82.22
76.86
69.95
61.76
52.41
41.69
29.24
14.87
-1.11
-17.75
-33.53
-46.70
-55.82
-60.04
-59.45
-55.04
-48.48
-41.85
-37.09
-35.55
-37.56
-42.30
-48.04
-52.67
-54.28
-51.71
-44.72
-33.98
-20.72
-6.23
8.55
23.36
38.62
55.17
73.75
94.57
116.92
139.20
159.27
174.90
184.50
187.52
184.61
177.30
167.35
156.14
144.16
131.06
116.04
98.40
78.05
55.67
32.57
10.24
-9.98
-27.26
-41.39
-52.73
-62.03
-70.24
-78.12
-86.13
-94.32
-102.52
-110.58
-118.56
-126.61
-134.69
-142.28
-148.30
-151.40
-150.56
-145.65
-137.54
-127.81
-118.07
-109.28
-101.45
-93.79
-85.12
-74.48
-61.54
-46.73
-31.19
-16.40
-3.89
5.27
10.77
13.11
13.41
12.86
12.42
12.64
13.80
16.19
20.17
25.98
33.49
41.93
49.94
56.05
59.17
59.05
56.30
52.21
48.10
44.98
43.15
42.27
41.65
40.55
38.55
35.65
32.18
28.64
25.41
22.68
20.36
18.31
16.38
14.58
13.05
12.05
11.84
12.61
14.36
16.85
19.60
21.99
23.44
23.58
22.40
20.30
17.85
15.63
13.93
12.71
11.69
10.47
8.79
6.60
4.05
1.35
-1.33
-3.95
-6.53
-9.10
-11.59
-13.90
-16.00
-17.90
-19.71
-21.44
-22.88
-23.61
-23.07
-20.81
-16.71
-11.08
-4.55
2.10
8.17
13.25
17.12
19.81
21.42
22.11
22.01
21.29
20.12
18.73
17.35
16.19
15.38
14.85
14.38
13.65
12.43
10.72
8.76
6.94
5.53
4.57
3.79
2.77
1.20
-0.97
-3.44
-5.74
-7.44
-8.32
-8.44
-8.15
-7.89
-8.13
-9.23
-11.44
-14.81
-19.23
-24.38
-29.87
-35.31
-40.34
-44.67
-48.01
-49.96
-50.06
-47.91
-43.38
-36.76
-28.74
-20.24
-12.00
-4.48
2.38
8.98
15.78
23.14
31.27
40.18
49.56
58.59
65.83
69.53
68.33
61.97
51.75
40.12
29.71
22.31
18.18
16.35
15.38
14.30
12.98
11.88
11.46
11.63
11.77
11.01
8.81
5.17
0.62
-4.10
-8.16
-11.04
-12.57
-12.82
-12.10
-10.72
-8.83
-6.37
-3.13
1.01
5.91
11.09
15.88
19.68
22.26
23.75
24.56
25.07
25.48
25.75
25.70
25.23
24.36
23.26
22.16
21.18
20.28
19.28
17.91
15.94
13.23
9.82
5.92
1.84
-2.11
-5.76
-9.08
-12.15
-15.06
-17.75
-20.01
-21.61
-22.42
-22.53
-22.29
-22.12
-22.34
-22.95
-23.68
-24.00
-23.44
-21.71
-18.84
-15.10
-10.86
-6.46
-2.11
2.10
6.09
9.73
12.87
15.38
17.28
18.81
20.27
21.98
24.04
26.30
28.47
30.22
31.36
31.84
31.79
31.36
30.65
29.62
28.13
26.00
23.15
19.60
15.56
11.39
7.46
4.08
1.38
-0.74
-2.57
-4.48
-6.79
-9.73
-13.31
-17.43
-21.88
-26.34
-30.46
-33.82
-35.99
-36.58
-35.36
-32.34
-27.87
-22.53
-16.94
-11.61
-6.83
-2.59
1.28
4.93
8.39
11.56
14.24
16.28
17.67
18.55
19.12
19.62
20.21
20.92
21.67
22.35
22.80
22.89
22.56
21.74
20.43
18.63
16.39
13.78
10.94
7.99
5.04
2.08
-0.97
-4.19
-7.62
-11.16
-14.65
-17.97
-21.12
-24.25
-27.56
-31.20
-35.12
-39.03
-42.50
-45.04
-46.23
-45.87
-44.00
-40.87
-36.88
-32.46
-27.94
-23.51
-19.28
-15.31
-11.71
-8.56
-5.91
-3.73
-1.90
-0.27
1.20
2.47
3.43
3.97
4.14
4.06
3.89
3.73
3.56
3.24
2.64
1.72
0.59
-0.55
-1.48
-2.11
-2.52
-2.93
-3.60
-4.68
-6.21
-8.09
-10.15
-12.23
-14.20
-16.00
-17.65
-19.22
-20.83
-22.55
-24.44
-26.40
-28.19
-29.45
-29.80
-28.94
-26.74
-23.31
-18.96
-14.12
-9.18
-4.50
-0.20
3.70
7.32
10.75
14.11
17.43
20.73
23.99
27.16
30.15
32.88
35.21
37.03
38.22
38.71
38.52
37.77
36.61
35.22
33.66
31.95
29.96
27.64
24.97
22.07
19.11
16.25
13.60
11.22
9.06
7.15
5.52
4.24
3.29
2.56
1.78
0.63
-1.08
-3.36
-5.97
-8.45
-10.36
-11.34
-11.18
-9.80
-7.25
-3.68
0.62
5.18
9.44
12.86
15.10
16.07
15.95
15.01
13.51
11.61
9.44
7.14
4.97
3.20
2.08
1.76
2.25
3.36
4.86
6.44
7.80
8.71
9.05
8.78
8.02
6.88
5.49
3.94
2.17
0.10
-2.31
-4.96
-7.57
-9.76
-11.17
-11.62
-11.25
-10.45
-9.75
-9.55
-9.98
-10.91
-12.06
-13.14
-14.04
-14.78
-15.48
-16.18
-16.81
-17.21
-17.15
-16.50
-15.21
-13.33
-10.99
-8.30
-5.42
-2.53
0.17
2.49
4.31
5.60
6.44
6.94
7.16
7.05
6.51
5.42
3.78
1.74
-0.43
-2.47
-4.27
-5.84
-7.32
-8.85
-10.51
-12.30
-14.15
-16.06
-18.06
-20.22
-22.55
-25.00
-27.45
-29.72
-31.70
-33.34
-34.66
-35.73
-36.57
-37.14
-37.34
-37.06
-36.21
-34.83
-33.04
-31.06
-29.14
-27.46
-26.12
-25.12
-24.32
-23.57
-22.71
-21.65
-20.30
-18.65
-16.70
-14.52
-12.22
-9.94
-7.90
-6.25
-5.11
-4.52
-4.49
-5.01
-6.02
-7.46
-9.14
-10.85
-12.39
-13.69
-14.82
-15.98
-17.40
-19.30
-21.75
-24.60
-27.54
-30.12
-31.93
-32.80
-32.90
-32.78
-33.14
-34.54
-37.03
-40.01
-42.16
-41.78
-37.16
-27.14
-11.37
9.35
33.24
57.84
80.46
98.78
111.29
117.53
117.94
113.70
106.28
97.24
87.99
79.73
73.40
69.61
68.50
69.65
72.10
74.60
75.96
75.38
72.72
68.31
62.74
56.51
49.78
42.48
34.43
25.62
16.29
6.92
-1.89
-9.71
-16.31
-21.75
-26.22
-30.00
-33.27
-36.11
-38.43
-40.04
-40.72
-40.31
-38.79
-36.37
-33.39
-30.27
-27.37
-24.85
-22.71
-20.71
-18.53
-15.84
-12.43
-8.27
-3.51
1.51
6.38
10.71
14.22
16.79
18.48
19.43
19.83
19.85
19.65
19.36
19.13
19.11
19.37
19.89
20.53
21.09
21.37
21.26
20.78
20.03
19.18
18.32
17.45
16.45
15.14
13.34
11.00
8.26
5.44
2.95
1.12
0.11
-0.15
0.14
0.81
1.89
3.54
5.99
9.44
13.88
19.13
24.90
30.88
36.78
42.39
47.44
51.68
54.80
56.39
55.95
52.81
46.30
35.83
21.24
3.01
-17.54
-38.34
-57.03
-71.58
-80.99
-85.66
-87.36
-88.74
-92.46
-100.38
-112.99
-129.21
-146.61
-161.98
-172.06
-174.21
-167.08
-151.09
-128.51
-103.05
-78.88
-59.43
-46.30
-38.88
-34.77
-30.81
-24.40
-14.15
-0.00
17.34
37.07
58.62
81.50
104.95
127.76
148.53
166.12
180.10
190.79
198.83
204.58
207.83
207.92
204.31
197.15
187.50
176.85
166.50
156.82
147.16
136.26
123.06
107.57
91.24
76.71
66.66
62.67
64.41
69.82
76.06
80.78
82.84
82.45
80.64
78.30
75.72
72.50
67.95
61.64
53.41
43.11
30.12
13.43
-7.72
-32.65
-58.35
-79.69
-90.89
-88.02
-71.13
-44.94
-17.52
2.69
10.09
3.62
-13.35
-34.91
-55.06
-69.82
-78.33
-82.89
-87.95
-98.47
-118.01
-147.15
-182.84
-219.13
-249.17
-267.62
-272.34
-264.32
-246.44
-221.57
-191.40
-156.37
-116.44
-71.81
-23.16
28.77
83.10
138.37
191.47
236.97
267.79
277.78
265.13
234.73
197.28
165.40
148.18
147.35
157.03
167.34
169.45
159.51
139.17
113.18
85.79
58.56
30.40
-0.54
-34.93
-71.56
-108.38
-144.26
-180.37
-219.79
-265.98
-320.52
-381.44
-442.85
-496.62
-535.19
-554.29
-554.59
-541.15
-521.09
-500.59
-482.60
-466.39
-448.88
-426.82
-398.59
-364.78
-327.40
-288.79
-250.60
-213.72
-178.83
-146.87
-119.16
-96.70
-79.42
-65.82
-53.52
-40.23
-24.89
-8.32
6.94
17.38
19.95
13.45
-0.55
-17.88
-32.87
-40.33
-37.44
-24.73
-5.61
15.38
34.55
50.36
63.34
74.99
86.33
97.21
106.69
113.89
118.93
123.05
128.10
135.75
146.97
162.00
180.78
203.14
228.52
255.31
280.45
299.78
309.21
306.24
291.00
266.21
235.94
204.19
173.92
146.98
124.83
109.22
102.14
105.08
118.07
139.09
164.51
190.23
212.95
230.93
243.95
252.70
257.82
259.41
257.10
250.50
239.69
225.48
209.24
192.36
175.82
159.87
144.17
128.14
111.32
93.61
75.33
57.24
40.21
25.11
12.49
2.43
-5.41
-11.73
-17.24
-22.45
-27.43
-31.96
-35.76
-38.82
-41.55
-44.73
-49.21
-55.42
-63.19
-71.77
-80.11
-87.32
-93.04
-97.54
-101.47
-105.50
-109.83
-114.01
-117.05
-117.82
-115.55
-110.23
-102.60
-93.90
-85.30
-77.50
-70.54
-63.98
-57.30
-50.27
-43.18
-36.69
-31.52
-28.14
-26.54
-26.29
-26.72
-27.24
-27.43
-27.07
-26.08
-24.36
-21.85
-18.61
-14.86
-11.12
-7.99
-5.96
-5.23
-5.64
-6.77
-8.13
-9.36
-10.32
-11.11
-11.88
-12.76
-13.75
-14.79
-15.75
-16.65
-17.65
-19.02
-20.91
-23.20
-25.33
-26.51
-26.02
-23.59
-19.54
-14.62
-9.69
-5.32
-1.61
1.66
4.74
7.59
9.87
11.15
11.22
10.34
9.15
8.41
8.65
9.94
11.88
13.81
15.18
15.78
15.79
15.64
15.73
16.17
16.78
17.09
16.65
15.18
12.66
9.39
5.74
2.10
-1.31
-4.46
-7.40
-10.22
-12.88
-15.31
-17.44
-19.29
-21.05
-22.94
-25.03
-27.12
-28.73
-29.23
-28.12
-25.28
-21.02
-16.00
-10.93
-6.35
-2.42
0.96
4.06
7.05
9.92
12.46
14.40
15.62
16.22
16.50
16.79
17.29
17.91
18.40
18.48
18.05
17.27
16.40
15.75
15.40
15.21
14.94
14.35
13.39
12.22
11.11
10.33
9.95
9.76
9.38
8.36
6.42
3.57
0.04
-3.77
-7.41
-10.52
-12.85
-14.18
-14.37
-13.30
-10.99
-7.59
-3.43
1.08
5.53
9.71
13.63
17.45
21.35
25.42
29.54
33.51
37.18
40.63
44.20
48.37
53.48
59.52
66.08
72.44
77.90
82.12
85.21
87.74
90.44
93.94
98.52
104.00
109.82
115.34
120.11
124.11
127.81
131.97
137.20
143.54
150.07
155.06
156.46
152.80
144.10
132.18
120.28
112.18
111.04
118.40
133.52
153.33
172.90
186.64
189.77
179.79
157.12
125.01
88.09
50.69
15.47
-17.25
-49.29
-83.76
-123.64
-170.15
-221.10
-270.03
-307.00
-321.33
-305.54
-258.82
-188.22
-106.51
-27.93
36.61
82.13
109.51
123.01
127.23
125.33
118.79
108.41
95.23
80.71
65.89
50.75
34.32
15.85
-3.36
-19.13
-25.42
-16.97
7.73
44.81
86.09
122.25
146.35
156.15
153.89
144.16
131.40
118.26
105.53
93.05
80.59
68.03
55.00
40.28
21.93
-2.12
-33.10
-70.49
-111.83
-153.31
-190.87
-221.23
-242.54
-254.47
-257.79
-254.01
-244.93
-232.20
-217.10
-200.55
-183.29
-166.48
-152.21
-143.42
-142.97
-152.23
-170.00
-192.42
-214.12
-230.17
-237.76
-236.79
-229.40
-218.56
-206.84
-195.62
-185.16
-175.02
-164.55
-153.29
-141.19
-128.68
-116.49
-105.18
-94.72
-84.49
-73.82
-62.69
-52.13
-43.57
-37.80
-34.11
-30.15
-22.82
-9.77
9.43
33.06
58.02
81.04
99.85
113.47
121.78
125.03
123.56
117.96
109.30
99.09
88.74
79.05
69.77
59.88
48.18
34.12
18.26
2.20
-12.15
-23.42
-31.43
-37.22
-42.46
-48.54
-55.86
-63.56
-69.80
-72.38
-69.54
-60.50
-46.02
-28.19
-10.08
5.08
14.91
18.59
17.11
12.57
7.12
1.74
-4.67
-15.18
-33.74
-63.39
-104.47
-153.86
-205.48
-251.96
-286.75
-305.73
-307.92
-294.92
-269.81
-235.85
-195.50
-149.94
-99.43
-44.20
14.13
71.54
121.44
155.98
168.45
155.94
121.01
71.35
17.63
-29.31
-60.87
-72.14
-62.41
-34.90
3.84
45.10
80.05
101.98
108.45
101.87
88.37
75.22
68.22
69.91
79.32
93.18
107.41
118.62
124.93
126.14
123.49
119.02
114.59
110.96
107.21
101.02
89.55
70.61
43.59
9.69
-28.43
-67.20
-102.75
-130.99
-148.16
-151.17
-138.33
-109.95
-68.83
-20.41
27.83
67.77
92.99
100.73
93.28
77.45
62.35
56.43
65.10
89.96
129.51
180.32
237.69
295.80
347.70
385.99
404.94
402.33
380.51
345.44
304.11
261.76
220.47
179.75
138.44
96.68
56.65
21.55
-6.17
-26.23
-40.50
-51.83
-62.74
-74.56
-87.42
-100.96
-114.87
-128.90
-142.62
-154.92
-164.04
-168.07
-165.84
-157.66
-145.72
-133.85
-126.79
-129.12
-143.81
-171.11
-207.98
-248.45
-285.20
-311.82
-324.74
-323.90
-311.90
-292.18
-266.91
-235.74
-196.24
-145.95
-84.92
-17.35
48.90
104.83
143.76
164.03
169.45
167.45
165.95
170.56
183.41
203.46
227.75
252.73
274.98
291.35
299.06
296.11
281.81
257.54
226.75
194.43
166.09
146.36
137.69
139.39
147.55
155.67
156.25
142.90
112.37
65.70
8.03
-53.00
-109.60
-156.00
-189.56
-210.53
-220.89
-223.00
-218.76
-209.60
-196.88
-182.28
-167.66
-154.50
-143.27
-133.26
-122.95
-110.91
-96.61
-80.65
-64.40
-49.30
-36.16
-25.00
-15.27
-6.44
1.56
8.25
12.83
14.58
13.29
9.45
4.12
-1.28
-5.40
-7.34
-6.81
-4.20
-0.35
3.71
7.04
8.90
8.81
6.54
2.17
-3.84
-10.64
-17.07
-21.94
-24.36
-24.00
-21.17
-16.63
-11.11
-4.89
2.36
11.41
22.89
36.73
51.57
64.94
73.84
75.90
70.31
58.24
42.36
25.69
10.52
-2.27
-12.83
-21.59
-28.41
-32.49
-32.87
-29.19
-22.20
-13.47
-4.63
3.53
11.31
19.70
29.54
40.73
52.08
61.73
68.05
70.37
69.22
65.95
62.01
58.16
54.24
49.41
42.81
34.22
24.39
14.84
7.25
2.71
1.27
1.88
2.83
2.45
-0.26
-5.28
-11.70
-18.10
-23.19
-26.24
-27.19
-26.47
-24.66
-22.23
-19.50
-16.71
-14.28
-12.73
-12.58
-14.03
-16.78
-19.99
-22.59
-23.66
-22.74
-20.03
-16.25
-12.37
-9.15
-6.89
-5.27
-3.62
-1.19
2.40
6.89
11.44
14.81
15.78
13.51
7.80
-0.99
-12.05
-24.29
-36.52
-47.50
-56.14
-61.73
-64.24
-64.47
-63.92
-64.32
-66.94
-72.09
-78.92
-85.81
-90.97
-93.16
-92.02
-88.04
-82.07
-74.79
-66.46
-56.97
-46.20
-34.30
-21.91
-9.89
0.89
9.90
16.95
22.01
24.96
25.57
23.55
18.90
12.04
3.72
-5.35
-14.88
-25.21
-37.14
-51.47
-68.32
-86.59
-103.73
-116.23
-120.27
-112.81
-92.34
-59.35
-16.29
32.71
82.40
126.96
160.85
179.94
182.42
169.38
144.57
113.17
80.35
49.94
24.06
3.52
-11.41
-20.39
-23.17
-19.99
-12.08
-1.45
9.70
19.81
28.34
35.73
42.68
49.55
56.11
61.59
65.16
66.35
65.26
62.47
58.68
54.43
49.99
45.39
40.64
35.84
31.12
26.52
21.98
17.37
12.81
8.78
6.12
5.75
8.10
12.79
18.62
23.88
26.91
26.52
22.14
13.79
1.95
-12.57
-28.53
-44.41
-58.47
-69.20
-75.63
-77.57
-75.52
-70.41
-63.23
-54.85
-46.11
-37.97
-31.61
-28.12
-28.16
-31.39
-36.48
-41.47
-44.32
-43.46
-37.71
-26.13
-7.92
17.33
49.03
85.22
122.72
157.92
187.87
210.69
225.45
231.26
226.93
211.19
183.86
146.93
104.76
63.05
26.97
-0.41
-18.79
-29.80
-35.58
-37.61
-36.25
-31.36
-23.35
-13.78
-5.22
-0.30
-0.55
-5.72
-13.83
-22.00
-27.68
-29.56
-27.85
-23.85
-19.14
-14.85
-11.33
-8.36
-5.56
-2.75
-0.15
1.88
3.03
3.22
2.70
1.81
0.96
0.41
0.24
0.28
0.27
-0.03
-0.71
-1.54
-2.13
-2.08
-1.22
0.22
1.80
3.05
3.79
4.14
4.34
4.40
4.02
2.73
0.32
-2.88
-6.05
-8.20
-8.84
-8.24
-7.43
-7.67
-9.85
-14.14
-19.86
-25.86
-30.90
-34.09
-35.06
-34.04
-31.71
-28.98
-26.72
-25.51
-25.57
-26.75
-28.70
-31.10
-33.83
-37.00
-40.86
-45.62
-51.37
-58.08
-65.68
-74.24
-83.95
-95.09
-107.76
-121.64
-135.90
-149.34
-160.97
-170.44
-178.44
-186.51
-196.41
-209.18
-224.59
-241.03
-256.25
-268.45
-277.20
-283.84
-290.79
-300.22
-312.54
-325.50
-334.25
-332.72
-315.65
-280.16
-226.69
-158.57
-81.12
-0.58
76.76
145.23
200.62
241.17
268.39
286.74
301.97
318.34
336.26
351.75
358.48
351.65
331.10
302.08
272.66
249.50
234.21
222.80
208.16
184.17
149.02
105.93
61.26
21.31
-10.05
-32.02
-46.29
-55.70
-63.42
-72.32
-84.42
-100.23
-118.04
-134.05
-143.58
-142.89
-130.39
-107.22
-76.09
-39.87
-0.39
41.80
86.96
135.49
187.40
241.74
296.10
346.35
387.00
412.65
419.96
409.16
384.20
351.23
316.12
282.53
251.54
222.69
195.65
171.15
150.57
135.00
124.23
116.82
110.90
105.20
99.49
94.24
89.98
86.43
82.36
75.90
65.46
50.41
31.67
11.40
-7.67
-23.34
-34.85
-42.96
-49.46
-56.08
-63.61
-71.77
-79.77
-87.20
-94.63
-103.72
-116.34
-133.88
-156.31
-181.79
-206.66
-225.76
-233.37
-224.77
-197.97
-154.59
-99.88
-40.78
16.60
68.98
116.53
161.96
208.78
259.29
313.38
367.93
417.34
454.75
473.93
471.43
447.93
408.43
360.66
312.60
270.14
236.09
210.74
193.10
182.20
177.17
176.84
179.16
181.33
180.67
175.60
166.18
153.85
140.81
128.81
118.67
109.43
99.82
89.12
77.76
67.02
58.31
52.79
50.89
52.16
54.77
56.77
57.00
55.37
52.44
48.87
45.11
41.15
36.64
29.13
16.77
-0.65
-21.73
-44.61
-67.93
-90.97
-113.31
-134.46
-158.62
-187.93
-220.39
-250.65
-273.73
-287.67
-293.60
-294.49
-293.68
-303.86
-333.05
-380.09
-435.63
-489.74
-537.14
-577.43
-612.89
-646.01
-694.19
-767.68
-862.85
-964.00
-1055.20
-1128.50
-1183.88
-1225.78
-1259.98
-1312.84
-1402.38
-1527.99
-1670.70
-1806.97
-1919.26
-1998.18
-2041.62
-1922.36
-1587.06
-1082.41
-531.08
-44.81
326.75
586.27
758.90
871.12
943.33
968.92
944.60
878.99
798.45
727.22
677.51
650.70
641.83
644.77
638.76
610.97
563.49
511.71
472.41
450.58
444.97
450.67
462.42
466.32
453.78
425.69
391.24
359.79
335.98
320.32
310.67
304.37
294.48
276.63
251.13
222.36
194.80
170.67
150.49
133.50
118.70
103.54
86.44
67.49
48.30
30.45
14.67
1.28
-9.87
-19.01
-26.28
-31.76
-35.51
-37.57
-38.09
-37.34
-35.48
-32.74
-29.41
-25.83
-22.35
-19.31
-17.00
-15.64
-15.31
-15.90
-17.10
-18.56
-19.83
-20.54
-20.43
-19.40
-17.48
-14.86
-11.74
-8.33
-4.86
-1.49
1.54
3.92
5.28
5.22
3.47
-0.01
-4.94
-10.79
-16.85
-22.50
-27.31
-31.13
-34.01
-35.95
-36.67
-35.54
-31.64
-24.11
-12.49
2.94
21.11
40.41
59.21
76.38
91.64
105.57
119.22
133.50
148.68
164.31
179.35
192.68
203.79
213.09
221.99
232.90
248.83
272.64
305.70
346.66
390.60
429.41
453.82
456.33
434.02
389.98
332.50
272.39
219.50
180.03
155.60
144.22
142.15
145.77
152.57
161.28
171.53
183.23
196.28
210.11
223.41
234.19
240.12
239.32
231.30
217.33
199.93
181.64
163.81
145.88
125.91
101.47
70.65
32.59
-12.30
-62.25
-113.95
-162.58
-202.70
-229.83
-242.26
-242.06
-234.52
-226.02
-221.55
-223.01
-229.33
-238.03
-247.10
-255.97
-265.00
-274.11
-281.66
-284.32
-278.48
-262.03
-235.56
-202.29
-166.67
-132.52
-101.78
-74.36
-49.24
-25.72
-4.56
12.11
21.59
22.13
14.20
1.08
-11.61
-17.46
-11.29
9.50
44.62
91.68
147.18
207.15
266.70
319.55
358.47
376.77
370.63
340.98
293.28
235.38
174.49
115.37
60.41
11.19
-29.98
-59.89
-76.02
-78.60
-71.62
-61.58
-54.90
-55.01
-61.24
-69.62
-75.11
-74.13
-65.74
-51.39
-33.66
-14.87
3.76
21.99
40.00
57.52
73.49
86.13
93.78
95.50
91.29
81.47
66.13
44.63
15.98
-20.21
-62.58
-107.48
-149.64
-183.68
-205.85
-215.07
-212.86
-202.19
-186.17
-166.98
-145.72
-122.81
-98.63
-74.02
-50.47
-29.82
-13.90
-3.89
-0.16
-2.22
-9.11
-19.89
-33.97
-50.90
-69.89
-89.38
-107.01
-120.29
-127.45
-128.28
-124.12
-116.96
-108.20
-97.76
-84.14
-65.51
-41.17
-12.52
16.92
42.52
59.92
66.12
60.09
42.89
17.46
-11.68
-39.12
-59.57
-69.14
-66.41
-52.90
-32.58
-10.61
8.27
20.91
26.35
25.51
20.50
13.81
7.71
3.85
3.20
6.10
12.44
21.88
34.03
48.40
64.29
80.62
95.80
107.88
114.88
115.21
107.98
93.16
71.46
44.24
13.36
-18.82
-49.66
-76.59
-97.68
-112.27
-121.15
-126.22
-129.56
-132.44
-134.74
-135.07
-131.62
-123.22
-110.19
-94.34
-78.38
-64.94
-55.61
-50.59
-48.86
-48.70
-48.43
-46.85
-43.43
-38.18
-31.34
-23.07
-13.51
-2.82
8.63
20.26
31.44
41.92
51.94
62.15
73.16
85.00
96.82
107.07
114.11
116.91
115.43
110.59
103.73
96.03
88.09
79.97
71.31
61.76
51.21
40.04
29.14
19.83
13.44
10.85
11.97
15.60
19.83
22.67
22.95
20.73
17.19
13.94
12.30
12.80
15.05
18.08
20.63
21.41
19.29
13.57
4.22
-7.82
-20.63
-31.87
-39.54
-42.82
-42.42
-40.25
-38.46
-38.43
-40.17
-42.39
-43.13
-40.67
-34.24
-24.22
-11.99
0.63
11.91
20.56
25.86
27.73
26.57
23.28
19.12
15.55
13.85
14.68
17.81
22.09
25.87
27.65
26.56
22.74
17.04
10.62
4.45
-0.94
-5.47
-9.25
-12.47
-15.26
-17.84
-20.57
-23.97
-28.49
-34.27
-40.91
-47.59
-53.32
-57.38
-59.63
-60.53
-60.93
-61.73
-63.50
-66.44
-70.48
-75.60
-81.86
-89.38
-97.95
-106.88
-115.02
-121.13
-124.24
-123.76
-119.36
-110.72
-97.56
-80.01
-59.16
-37.42
-18.16
-4.78
0.50
-2.36
-11.07
-21.75
-30.29
-33.83
-31.70
-25.41
-17.98
-12.70
-11.83
-15.86
-23.36
-31.46
-36.55
-35.26
-25.19
-5.57
22.49
56.22
91.90
126.06
156.54
183.00
206.70
229.40
252.34
275.40
297.23
315.75
329.04
335.77
335.36
327.76
313.25
292.45
266.44
236.95
206.03
175.67
147.09
120.36
94.59
68.49
41.31
13.40
-13.70
-37.84
-57.09
-70.41
-77.93
-80.73
-80.34
-78.21
-75.45
-72.64
-70.00
-67.59
-65.40
-63.51
-62.09
-61.28
-61.15
-61.66
-62.68
-64.04
-65.57
-67.07
-68.31
-69.05
-69.01
-67.98
-65.81
-62.44
-57.89
-52.28
-45.83
-38.85
-31.76
-25.01
-19.01
-14.10
-10.45
-8.11
-6.99
-6.80
-7.08
-7.17
-6.41
-4.36
-0.96
3.44
8.25
12.88
17.01
20.62
23.91
27.03
29.94
32.49
34.49
35.89
36.81
37.42
37.69
37.22
35.27
30.95
23.59
13.07
0.01
-14.26
-27.84
-38.53
-44.07
-42.50
-32.66
-14.68
9.76
37.42
64.20
86.09
100.31
106.00
104.18
97.11
87.26
76.57
66.11
56.34
47.43
39.63
33.24
28.34
24.58
21.15
17.01
11.36
3.98
-4.66
-13.67
-22.16
-29.66
-36.32
-42.81
-50.08
-59.09
-70.52
-84.60
-100.84
-117.98
-134.15
-147.31
-155.89
-159.46
-158.83
-155.77
-152.33
-150.10
-149.76
-151.00
-152.79
-153.61
-151.82
-145.98
-135.24
-119.69
-100.40
-79.10
-57.66
-37.41
-18.97
-2.33
12.63
25.84
36.85
45.07
49.99
51.39
49.34
44.14
36.28
26.39
15.24
3.75
-7.03
-15.96
-21.77
-23.15
-18.99
-8.73
7.24
27.55
49.96
72.04
91.66
107.47
118.99
126.37
130.03
130.30
127.41
121.53
112.96
102.30
90.46
78.53
67.46
57.93
50.08
43.68
38.20
33.08
27.92
22.58
17.15
11.84
6.80
2.02
-2.64
-7.39
-12.35
-17.42
-22.33
-26.78
-30.61
-33.78
-36.33
-38.19
-39.08
-38.58
-36.38
-32.48
-27.36
-21.85
-16.91
-13.33
-11.48
-11.29
-12.32
-13.96
-15.69
-17.29
-18.90
-20.90
-23.69
-27.37
-31.65
-35.84
-39.16
-41.01
-41.19
-39.91
-37.64
-34.90
-32.11
-29.56
-27.40
-25.69
-24.33
-22.98
-21.01
-17.61
-12.07
-4.04
6.19
17.66
29.04
39.09
47.12
53.25
58.32
63.47
69.67
77.35
86.38
96.28
106.66
117.31
128.01
138.07
145.92
149.27
145.94
134.95
117.35
96.16
75.27
57.87
45.02
35.30
25.53
12.16
-7.20
-33.13
-64.43
-98.97
-134.40
-168.53
-199.25
-224.22
-240.69
-245.97
-238.23
-217.52
-186.17
-148.57
-110.02
-75.33
-47.61
-27.87
-15.29
-8.10
-4.42
-2.79
-2.22
-1.99
-1.37
0.42
4.08
9.89
17.47
25.73
33.15
38.22
39.89
37.97
33.10
26.46
19.41
13.11
8.30
5.24
3.75
3.33
3.30
2.87
1.42
-1.40
-5.50
-10.36
-15.21
-19.24
-21.80
-22.60
-21.69
-19.37
-16.18
-12.68
-9.44
-6.90
-5.30
-4.70
-4.96
-5.86
-7.10
-8.36
-9.34
-9.80
-9.71
-9.22
-8.80
-9.01
-10.28
-12.59
-15.43
-18.00
-19.54
-19.76
-18.95
-17.88
-17.35
-17.83
-19.28
-21.20
-22.89
-23.74
-23.54
-22.38
-20.60
-18.60
-16.73
-15.31
-14.65
-15.06
-16.67
-19.29
-22.32
-24.76
-25.48
-23.66
-19.17
-12.65
-5.35
1.32
6.16
8.50
8.24
5.92
2.69
0.25
0.59
5.43
15.66
30.84
49.27
68.40
85.63
98.94
107.20
110.07
107.68
100.45
89.04
74.48
58.09
41.36
25.57
11.55
-0.48
-10.66
-19.31
-26.62
-32.62
-37.18
-40.22
-41.87
-42.56
-42.93
-43.57
-44.83
-46.58
-48.17
-48.73
-47.43
-43.92
-38.43
-31.71
-24.78
-18.53
-13.49
-9.77
-7.18
-5.44
-4.36
-3.90
-4.08
-4.84
-5.99
-7.17
-7.96
-7.99
-6.95
-4.63
-0.89
4.38
11.17
19.20
27.90
36.33
43.42
48.25
50.29
49.60
46.70
42.43
37.60
32.87
28.60
24.94
21.84
18.99
15.84
11.58
5.38
-3.29
-14.26
-26.55
-38.56
-48.56
-55.26
-58.17
-57.66
-54.66
-50.19
-45.05
-39.63
-33.99
-28.01
-21.57
-14.66
-7.39
-0.06
6.88
12.77
16.88
18.51
17.31
13.43
7.64
1.16
-4.74
-9.09
-11.63
-12.80
-13.42
-14.28
-15.59
-16.99
-17.62
-16.63
-13.63
-8.86
-3.14
2.42
6.77
9.21
9.41
7.46
3.69
-1.33
-6.93
-12.44
-17.25
-21.00
-23.60
-25.23
-26.18
-26.68
-26.84
-26.61
-25.91
-24.63
-22.77
-20.34
-17.38
-13.93
-10.07
-6.02
-2.09
1.30
3.86
5.45
6.27
6.64
6.96
7.44
8.06
8.60
8.77
8.40
7.46
6.13
4.70
3.42
2.47
1.89
1.67
1.74
2.02
2.41
2.75
2.88
2.68
2.12
1.37
0.71
0.40
0.63
1.39
2.49
3.61
4.43
4.72
4.30
3.21
1.64
-0.02
-1.27
-1.67
-0.98
0.70
3.02
5.47
7.65
9.37
10.67
11.73
12.71
13.72
14.78
15.92
17.19
18.62
20.19
21.71
22.90
23.48
23.31
22.50
21.38
20.31
19.57
19.20
19.03
18.80
18.31
17.51
16.49
15.40
14.31
13.16
11.82
10.17
8.18
5.95
3.60
1.26
-1.05
-3.36
-5.71
-8.13
-10.62
-13.15
-15.62
-17.87
-19.67
-20.72
-20.81
-19.82
-17.86
-15.14
-11.93
-8.49
-4.99
-1.57
1.66
4.52
6.86
8.62
9.87
10.81
11.67
12.60
13.65
14.73
15.72
16.48
16.96
17.14
17.01
16.60
15.98
15.19
14.34
13.46
12.53
11.48
10.19
8.61
6.77
4.79
2.80
0.90
-0.85
-2.51
-4.16
-5.87
-7.68
-9.61
-11.65
-13.87
-16.40
-19.43
-23.02
-27.01
-30.96
-34.21
-36.13
-36.37
-35.03
-32.59
-29.72
-26.94
-24.47
-22.20
-19.85
-17.17
-14.11
-10.73
-7.24
-3.83
-0.57
2.55
5.62
8.73
11.90
15.04
18.00
20.60
22.68
24.20
25.21
25.81
26.09
26.05
25.64
24.81
23.63
22.23
20.85
19.60
18.50
17.36
15.88
13.85
11.20
8.15
5.04
2.24
-0.09
-2.02
-3.81
-5.76
-8.03
-10.62
-13.41
-16.15
-18.59
-20.46
-21.48
-21.40
-20.10
-17.67
-14.36
-10.55
-6.49
-2.30
2.09
6.73
11.50
16.12
20.18
23.37
25.59
26.96
27.73
28.14
28.35
28.49
28.64
28.89
29.30
29.89
30.58
31.19
31.48
31.20
30.11
28.08
25.17
21.56
17.58
13.58
9.88
6.67
4.02
1.90
0.17
-1.38
-3.00
-4.96
-7.45
-10.55
-14.08
-17.71
-21.02
-23.60
-25.19
-25.70
-25.23
-23.99
-22.24
-20.15
-17.83
-15.28
-12.41
-9.20
-5.68
-2.02
1.57
4.84
7.59
9.66
10.96
11.47
11.31
10.69
9.94
9.39
9.27
9.62
10.29
11.06
11.74
12.28
12.67
12.93
13.01
12.77
12.11
11.01
9.64
8.30
7.23
6.58
6.30
6.17
5.88
5.11
3.66
1.39
-1.66
-5.23
-8.82
-11.76
-13.35
-13.12
-11.08
-7.73
-3.95
-0.65
1.54
2.56
2.81
2.98
3.64
5.06
7.01
8.97
10.33
10.68
10.00
8.68
7.32
6.51
6.59
7.60
9.24
11.05
12.62
13.66
14.07
13.92
13.31
12.41
11.33
10.17
8.96
7.72
6.36
4.79
2.92
0.70
-1.92
-4.94
-8.38
-12.19
-16.27
-20.40
-24.28
-27.59
-30.07
-31.64
-32.36
-32.43
-32.03
-31.23
-30.03
-28.29
-25.91
-22.89
-19.38
-15.67
-12.10
-8.93
-6.27
-4.06
-2.11
-0.22
1.63
3.34
4.73
5.66
6.06
5.96
5.32
3.97
1.64
-1.87
-6.53
-11.97
-17.59
-22.69
-26.77
-29.62
-31.39
-32.41
-33.08
-33.72
-34.49
-35.41
-36.38
-37.28
-37.98
-38.43
-38.60
-38.46
-37.98
-37.12
-35.95
-34.65
-33.52
-32.76
-32.38
-32.09
-31.32
-29.47
-26.01
-20.66
-13.33
-4.04
7.10
19.89
33.80
47.90
60.78
70.78
76.36
76.58
71.50
62.31
51.02
39.88
30.78
24.64
21.41
20.25
20.08
19.99
19.49
18.46
16.98
15.11
12.88
10.32
7.51
4.73
2.32
0.59
-0.30
-0.48
-0.34
-0.40
-1.06
-2.47
-4.43
-6.54
-8.42
-9.94
-11.20
-12.41
-13.63
-14.67
-15.19
-14.96
-13.97
-12.52
-10.97
-9.54
-8.20
-6.77
-5.09
-3.16
-1.18
0.65
2.19
3.44
4.50
5.45
6.24
6.73
6.78
6.28
5.22
3.71
2.04
0.68
0.29
1.50
4.68
9.70
15.80
21.85
26.67
29.45
29.89
28.17
24.65
19.72
13.74
7.23
1.08
-3.43
-4.89
-2.35
4.16
13.36
22.89
30.02
32.50
29.30
20.94
9.24
-3.32
-14.40
-22.48
-27.00
-28.21
-26.78
-23.42
-18.78
-13.49
-8.31
-4.05
-1.38
-0.50
-0.99
-1.96
-2.42
-1.75
0.02
2.28
4.14
4.90
4.28
2.53
0.21
-2.06
-3.84
-4.98
-5.57
-5.94
-6.41
-7.30
-8.71
-10.60
-12.79
-15.00
-16.98
-18.54
-19.61
-20.32
-20.91
-21.80
-23.39
-25.95
-29.43
-33.40
-37.11
-39.79
-40.94
-40.49
-38.85
-36.66
-34.54
-32.85
-31.68
-30.91
-30.37
-29.97
-29.73
-29.72
-29.96
-30.33
-30.57
-30.29
-29.19
-27.10
-24.14
-20.61
-16.89
-13.28
-9.88
-6.60
-3.28
0.19
3.77
7.26
10.40
12.89
14.51
15.13
14.74
13.50
11.69
9.68
7.75
6.06
4.56
3.11
1.54
-0.31
-2.53
-5.20
-8.36
-11.89
-15.47
-18.51
-20.35
-20.49
-18.89
-15.96
-12.48
-9.17
-6.46
-4.32
-2.45
-0.48
1.78
4.37
7.23
10.40
14.13
18.89
25.29
33.97
45.42
59.76
76.36
93.76
109.66
121.46
126.98
125.14
116.35
102.30
85.38
67.98
51.91
38.18
27.12
18.58
12.17
7.39
3.70
0.60
-2.32
-5.28
-8.34
-11.42
-14.35
-16.95
-19.04
-20.53
-21.39
-21.62
-21.28
-20.43
-19.09
-17.31
-15.12
-12.56
-9.68
-6.50
-3.02
0.65
4.24
7.28
9.19
9.54
8.22
5.49
1.90
-2.01
-5.85
-9.37
-12.40
-14.67
-15.82
-15.58
-14.02
-11.64
-9.29
-7.84
-7.77
-9.02
-11.13
-13.53
-15.81
-17.89
-19.89
-21.97
-24.14
-26.22
-27.96
-29.21
-30.00
-30.57
-31.24
-32.32
-33.96
-36.04
-38.23
-40.01
-40.84
-40.31
-38.30
-35.05
-31.08
-27.01
-23.33
-20.20
-17.47
-14.80
-11.88
-8.61
-5.17
-1.92
0.78
2.79
4.12
4.95
5.40
5.50
5.20
4.49
3.46
2.33
1.30
0.48
-0.26
-1.14
-2.36
-3.97
-5.83
-7.74
-9.59
-11.46
-13.54
-16.00
-18.82
-21.76
-24.43
-26.47
-27.74
-28.36
-28.72
-29.22
-30.18
-31.59
-33.20
-34.50
-34.94
-34.11
-31.79
-28.05
-23.08
-17.14
-10.40
-2.96
5.16
13.89
23.10
32.51
41.74
50.30
57.65
63.26
66.77
68.07
67.36
65.08
61.79
58.04
54.28
50.83
47.90
45.53
43.60
41.77
39.67
37.01
33.81
30.32
26.97
24.03
21.52
19.20
16.76
14.00
10.89
7.52
3.91
-0.01
-4.39
-9.30
-14.64
-20.29
-26.10
-32.02
-37.98
-43.74
-48.76
-52.37
-53.99
-53.49
-51.30
-48.24
-45.13
-42.45
-40.09
-37.52
-34.05
-29.24
-23.06
-16.01
-8.85
-2.43
2.68
6.29
8.81
11.01
13.85
18.08
23.88
30.76
37.68
43.44
47.11
48.28
47.25
44.72
41.61
38.66
36.37
34.93
34.26
34.13
34.16
33.91
32.87
30.60
26.81
21.38
14.38
6.05
-3.31
-13.33
-23.59
-33.59
-42.77
-50.51
-56.27
-59.64
-60.44
-58.69
-54.57
-48.41
-40.69
-32.07
-23.34
-15.29
-8.49
-3.22
0.64
3.39
5.32
6.60
7.23
7.21
6.63
5.80
5.06
4.73
4.90
5.47
6.28
7.13
7.91
8.48
8.65
8.18
6.92
4.92
2.47
0.04
-2.01
-3.52
-4.73
-6.06
-7.93
-10.50
-13.60
-16.84
-19.71
-21.82
-22.96
-23.08
-22.24
-20.55
-18.12
-15.10
-11.62
-7.81
-3.78
0.38
4.60
8.83
12.95
16.86
20.37
23.27
25.35
26.44
26.49
25.64
24.18
22.46
20.80
19.34
18.06
16.82
15.50
14.07
12.60
11.20
9.89
8.60
7.14
5.38
3.28
0.95
-1.36
-3.45
-5.20
-6.68
-8.13
-9.90
-12.27
-15.35
-19.06
-23.06
-26.89
-30.10
-32.34
-33.49
-33.61
-32.86
-31.41
-29.30
-26.55
-23.10
-19.01
-14.46
-9.74
-5.16
-0.95
2.74
5.86
8.42
10.38
11.70
12.37
12.46
12.17
11.77
11.52
11.50
11.63
11.62
11.15
10.02
8.26
6.12
3.96
2.03
0.42
-1.04
-2.65
-4.72
-7.44
-10.81
-14.68
-18.77
-22.76
-26.31
-29.09
-30.88
-31.65
-31.58
-31.03
-30.41
-29.94
-29.61
-29.15
-28.19
-26.45
-23.84
-20.49
-16.64
-12.57
-8.50
-4.59
-0.91
2.49
5.61
8.42
10.92
13.05
14.71
15.82
16.35
16.37
16.07
15.72
15.47
15.34
15.11
14.44
13.00
10.59
7.29
3.41
-0.58
-4.23
-7.29
-9.73
-11.72
-13.42
-14.91
-16.11
-16.75
-16.55
-15.36
-13.25
-10.54
-7.68
-5.14
-3.20
-1.95
-1.16
-0.46
0.62
2.40
4.88
7.66
10.11
11.56
11.65
10.47
8.58
6.79
5.81
6.00
7.26
9.20
11.34
13.29
14.87
16.05
16.90
17.45
17.70
17.58
16.97
15.78
13.99
11.75
9.44
7.61
6.92
7.89
10.76
15.30
20.86
26.44
30.87
33.11
32.45
28.67
22.12
13.58
4.08
-5.36
-13.98
-21.29
-27.08
-31.22
-33.61
-34.14
-32.81
-29.79
-25.45
-20.26
-14.71
-9.11
-3.59
1.91
7.47
13.07
18.56
23.69
28.19
31.89
34.81
37.13
39.09
40.91
42.71
44.45
45.97
47.09
47.63
47.56
46.94
45.96
44.87
43.90
43.20
42.76
42.44
41.92
40.83
38.77
35.49
30.89
25.16
18.65
11.83
5.16
-1.01
-6.51
-11.26
-15.32
-18.79
-21.77
-24.34
-26.53
-28.25
-29.32
-29.49
-28.59
-26.58
-23.59
-19.92
-15.91
-11.80
-7.74
-3.78
0.06
3.68
6.91
9.56
11.49
12.73
13.48
14.05
14.69
15.49
16.30
16.81
16.75
16.02
14.83
13.53
12.46
11.71
11.07
10.10
8.42
5.94
2.96
-0.00
-2.43
-4.09
-5.10
-5.91
-7.07
-9.00
-11.81
-15.34
-19.26
-23.21
-26.92
-30.20
-32.91
-34.87
-35.85
-35.66
-34.25
-31.80
-28.63
-25.11
-21.47
-17.78
-13.96
-9.94
-5.75
-1.58
2.30
5.64
8.28
10.24
11.62
12.57
13.24
13.75
14.12
14.31
14.28
13.95
13.39
12.72
12.07
11.53
11.04
10.41
9.45
8.01
6.15
4.04
1.91
-0.10
-1.96
-3.71
-5.40
-7.07
-8.72
-10.42
-12.29
-14.52
-17.26
-20.52
-24.11
-27.59
-30.42
-32.09
-32.32
-31.16
-28.95
-26.17
-23.30
-20.58
-18.00
-15.38
-12.49
-9.23
-5.66
-2.03
1.37
4.33
6.74
8.65
10.18
11.41
12.36
12.94
13.04
12.60
11.77
10.84
10.17
10.01
10.35
10.93
11.34
11.27
10.59
9.42
8.00
6.56
5.16
3.74
2.17
0.36
-1.68
-3.87
-6.18
-8.61
-11.17
-13.77
-16.17
-17.97
-18.80
-18.45
-17.00
-14.76
-12.14
-9.47
-6.88
-4.31
-1.65
1.19
4.17
7.09
9.70
11.73
13.04
13.64
13.69
13.42
13.09
12.87
12.78
12.74
12.56
12.09
11.26
10.15
8.93
7.77
6.74
5.81
4.82
3.61
2.10
0.33
-1.56
-3.42
-5.23
-7.06
-9.08
-11.44
-14.18
-17.22
-20.38
-23.43
-26.18
-28.47
-30.11
-30.94
-30.79
-29.57
-27.27
-24.04
-20.11
-15.74
-11.16
-6.47
-1.66
3.28
8.34
13.32
17.92
21.79
24.70
26.65
27.88
28.71
29.45
30.19
30.80
31.04
30.67
29.63
28.06
26.24
24.41
22.71
21.05
19.27
17.18
14.77
12.12
9.43
6.90
4.63
2.63
0.80
-1.00
-2.94
-5.19
-7.86
-10.94
-14.28
-17.53
-20.26
-22.13
-22.93
-22.66
-21.50
-19.69
-17.46
-14.92
-12.17
-9.23
-6.10
-2.76
0.75
4.34
7.88
11.14
13.87
15.91
17.19
17.79
17.87
17.67
17.36
17.05
16.77
16.47
16.09
15.58
14.94
14.24
13.49
12.67
11.65
10.27
8.38
5.99
3.19
0.27
-2.56
-5.14
-7.47
-9.71
-12.07
-14.72
-17.67
-20.83
-23.93
-26.69
-28.83
-30.16
-30.64
-30.27
-29.12
-27.22
-24.57
-21.16
-17.04
-12.35
-7.32
-2.28
2.51
6.79
10.42
13.33
15.49
16.86
17.43
17.24
16.40
15.08
13.53
11.99
10.60
9.44
8.48
7.64
6.84
6.01
5.11
4.08
2.85
1.39
-0.32
-2.25
-4.32
-6.46
-8.59
-10.70
-12.78
-14.82
-16.79
-18.61
-20.15
-21.26
-21.78
-21.63
-20.75
-19.15
-16.92
-14.16
-10.98
-7.48
-3.77
-0.01
3.57
6.71
9.17
10.79
11.61
11.88
11.97
12.22
12.81
13.65
14.51
15.06
15.09
14.60
13.74
12.75
11.84
11.06
10.35
9.59
8.67
7.55
6.27
4.90
3.45
1.90
0.20
-1.72
-3.89
-6.26
-8.79
-11.45
-14.23
-17.05
-19.75
-22.03
-23.51
-23.89
-23.06
-21.17
-18.55
-15.55
-12.37
-9.07
-5.61
-1.91
1.96
5.77
9.20
11.92
13.77
14.81
15.29
15.54
15.86
16.35
16.86
17.14
16.90
16.03
14.61
12.90
11.21
9.69
8.34
7.04
5.66
4.14
2.55
1.02
-0.38
-1.67
-3.00
-4.51
-6.31
-8.34
-10.47
-12.52
-14.38
-16.00
-17.35
-18.36
-18.87
-18.65
-17.49
-15.31
-12.19
-8.35
-4.06
0.44
4.97
9.44
13.71
17.65
21.10
23.90
25.98
27.37
28.19
28.60
28.70
28.52
28.01
27.08
25.69
23.86
21.65
19.13
16.34
13.24
9.78
5.94
1.78
-2.54
-6.77
-10.60
-13.74
-16.00
-17.38
-18.07
-18.46
-18.99
-19.97
-21.45
-23.20
-24.75
-25.64
-25.52
-24.32
-22.18
-19.38
-16.18
-12.69
-8.91
-4.78
-0.21
4.72
9.79
14.63
18.78
21.91
23.88
24.80
25.00
24.84
24.64
24.50
24.34
24.01
23.36
22.32
20.91
19.30
17.62
16.03
14.63
13.39
12.22
10.94
9.34
7.28
4.75
1.86
-1.13
-4.00
-6.57
-8.85
-10.92
-12.99
-15.26
-17.79
-20.53
-23.22
-25.54
-27.16
-27.86
-27.52
-26.20
-24.03
-21.17
-17.76
-13.91
-9.70
-5.24
-0.66
3.75
7.63
10.62
12.43
13.01
12.56
11.47
10.19
9.07
8.28
7.80
7.42
6.86
5.83
4.11
1.60
-1.59
-5.23
-8.99
-12.58
-15.82
-18.73
-21.43
-24.04
-26.63
-29.12
-31.28
-32.78
-33.32
-32.72
-30.95
-28.27
-25.13
-22.14
-19.90
-18.89
-19.23
-20.72
-22.82
-24.82
-26.06
-26.07
-24.69
-21.99
-18.23
-13.71
-8.75
-3.70
1.13
5.46
9.09
12.00
14.28
16.06
17.47
18.51
19.09
19.00
18.09
16.26
13.60
10.32
6.81
3.49
0.72
-1.31
-2.63
-3.49
-4.26
-5.31
-6.91
-9.14
-11.87
-14.80
-17.60
-20.01
-21.94
-23.51
-25.00
-26.69
-28.71
-31.00
-33.26
-35.13
-36.26
-36.47
-35.70
-33.95
-31.26
-27.61
-22.98
-17.40
-10.97
-3.85
3.78
11.72
19.67
27.09
33.20
37.23
38.64
37.47
34.38
30.44
26.72
23.89
22.09
21.05
20.40
19.95
19.71
19.81
20.27
20.90
21.36
21.30
20.55
19.20
17.50
15.76
14.23
13.03
12.17
11.52
10.93
10.28
9.48
8.50
7.30
5.87
4.17
2.31
0.56
-0.66
-0.88
0.19
2.49
5.55
8.69
11.22
12.76
13.30
13.13
12.62
12.06
11.54
11.00
10.34
9.57
8.79
8.12
7.70
7.54
7.54
7.57
7.50
7.30
7.02
6.78
6.69
6.80
7.02
7.17
7.06
6.49
5.38
3.72
1.61
-0.77
-3.21
-5.43
-7.24
-8.62
-9.78
-11.21
-13.48
-17.06
-22.05
-28.10
-34.49
-40.36
-44.98
-48.01
-49.54
-49.91
-49.53
-48.65
-47.27
-45.19
-42.21
-38.33
-33.78
-29.03
-24.46
-20.26
-16.21
-11.78
-6.31
0.76
9.75
20.59
32.71
45.01
55.93
63.68
66.83
64.81
58.19
48.57
38.05
28.40
20.67
15.01
11.00
8.13
6.12
4.89
4.41
4.46
4.60
4.37
3.50
2.03
0.28
-1.41
-2.80
-3.90
-4.84
-5.80
-6.82
-7.83
-8.65
-9.09
-9.04
-8.50
-7.50
-6.05
-4.13
-1.68
1.37
5.01
9.13
13.55
18.03
22.28
26.01
28.90
30.76
31.53
31.37
30.61
29.73
29.07
28.85
29.04
29.51
30.10
30.72
31.38
32.05
32.62
32.83
32.35
30.93
28.53
25.44
22.21
19.56
18.07
18.10
19.52
21.85
24.34
26.23
26.86
25.90
23.38
19.63
15.24
10.92
7.43
5.41
5.27
7.07
10.48
14.76
19.01
22.40
24.41
24.99
24.49
23.47
22.45
21.70
21.26
20.93
20.48
19.78
18.84
17.90
17.21
16.93
16.95
16.75
15.57
12.64
7.66
0.85
-6.90
-14.50
-21.08
-26.21
-29.87
-32.11
-32.97
-32.69
-32.06
-32.52
-35.80
-43.09
-54.20
-67.43
-80.15
-90.07
-96.19
-99.05
-100.07
-100.57
-100.95
-100.69
-98.94
-95.10
-89.26
-81.89
-73.49
-64.19
-53.93
-42.71
-30.79
-18.96
-8.25
0.32
6.02
8.60
8.30
5.84
2.29
-1.18
-3.49
-3.96
-2.49
0.49
4.16
7.59
10.01
11.05
10.74
9.41
7.55
5.58
3.87
2.68
2.21
2.64
3.99
6.08
8.43
10.43
11.40
10.95
8.97
5.64
1.34
-3.51
-8.43
-12.87
-16.23
-17.94
-17.65
-15.41
-11.62
-6.90
-1.91
2.82
6.99
10.42
12.98
14.50
14.85
13.94
11.89
9.03
5.95
3.38
2.01
2.27
4.24
7.54
11.50
15.31
18.30
20.14
20.75
20.29
18.97
16.93
14.30
11.23
8.02
5.16
3.23
2.71
3.77
6.10
8.92
11.17
11.86
10.37
6.72
1.43
-4.59
-10.44
-15.37
-18.89
-20.75
-20.79
-19.03
-15.67
-11.20
-6.28
-1.53
2.73
6.59
10.35
14.18
17.75
20.28
20.83
18.93
14.93
9.97
5.42
2.19
0.19
-1.56
-4.35
-8.95
-15.14
-21.78
-27.51
-31.57
-34.33
-37.23
-42.13
-50.44
-62.42
-76.95
-92.06
-105.59
-115.95
-122.56
-125.87
-127.07
-127.81
-129.85
-134.41
-141.45
-148.96
-152.73
-147.07
-126.59
-88.44
-34.12
30.31
95.79
153.21
196.26
223.02
235.59
238.17
234.95
228.63
220.36
210.63
200.15
190.19
182.00
175.86
170.53
163.61
152.76
136.98
117.30
96.26
76.81
60.95
48.92
39.39
30.39
20.46
9.35
-1.99
-12.05
-19.69
-24.65
-27.59
-29.64
-31.74
-34.27
-37.04
-39.57
-41.41
-42.33
-42.27
-41.27
-39.32
-36.44
-32.77
-28.60
-24.22
-19.78
-15.20
-10.24
-4.75
1.19
7.11
12.32
16.16
18.20
18.38
16.91
14.02
9.81
4.27
-2.47
-9.85
-16.78
-21.99
-24.60
-24.54
-22.72
-20.52
-19.18
-19.27
-20.66
-22.84
-25.46
-28.45
-31.96
-36.03
-40.33
-44.29
-47.44
-49.69
-51.47
-53.43
-56.06
-59.36
-62.76
-65.37
-66.37
-65.29
-62.21
-57.66
-52.44
-47.26
-42.57
-38.51
-34.90
-31.50
-28.11
-24.66
-21.12
-17.47
-13.58
-9.15
-3.90
2.37
9.58
17.39
25.25
32.62
39.11
44.54
48.85
52.00
53.91
54.46
53.64
51.61
48.72
45.38
41.99
38.77
35.84
33.18
30.73
28.41
26.14
23.86
21.61
19.60
18.14
17.55
17.93
19.05
20.29
20.95
20.55
19.00
16.73
14.43
12.80
12.24
12.84
14.40
16.72
19.68
23.34
27.76
32.84
38.19
43.24
47.41
50.47
52.70
54.89
58.08
63.16
70.42
79.41
88.90
97.34
103.39
106.33
106.44
104.76
102.66
101.34
101.55
103.56
107.33
112.53
118.48
124.08
128.07
129.48
128.21
125.29
122.40
121.09
121.98
124.64
128.18
132.10
136.78
143.21
152.14
163.22
174.91
185.09
191.97
194.62
192.80
186.38
174.97
157.84
134.58
105.77
73.09
38.94
5.41
-26.48
-57.06
-87.48
-118.95
-151.91
-185.86
-219.76
-252.59
-283.94
-314.06
-343.58
-373.17
-403.60
-435.98
-471.83
-512.34
-556.91
-601.92
-640.55
-664.44
-666.55
-643.85
-598.39
-536.10
-464.35
-389.77
-317.57
-252.12
-197.79
-158.58
-136.58
-130.11
-133.28
-137.64
-135.43
-122.79
-101.06
-75.47
-52.57
-36.92
-29.46
-27.59
-26.68
-22.03
-10.27
9.93
38.03
72.12
109.61
148.00
185.40
220.75
253.66
283.88
310.54
331.88
345.64
349.90
344.18
329.81
309.64
286.87
263.92
241.97
221.23
201.90
184.92
171.95
164.64
163.58
167.66
174.23
179.93
181.68
177.32
165.66
146.37
119.60
86.14
47.48
5.89
-35.99
-75.62
-111.10
-141.17
-165.04
-182.10
-192.03
-195.10
-192.62
-186.77
-180.07
-174.38
-170.30
-167.06
-163.26
-157.74
-150.12
-140.79
-130.39
-119.11
-106.56
-92.01
-75.00
-55.93
-36.17
-17.87
-3.18
6.67
12.17
15.69
20.82
31.02
48.00
70.66
95.34
117.14
131.88
137.73
135.61
128.29
118.90
109.62
101.41
94.39
88.60
84.26
81.56
80.29
79.71
78.95
77.45
75.19
72.45
69.28
65.32
60.02
53.23
45.60
38.35
32.66
28.84
26.24
23.83
21.19
19.22
19.90
25.46
37.24
55.21
78.17
104.64
133.46
163.93
195.24
225.78
252.84
273.00
283.09
281.27
267.74
244.65
215.36
183.53
152.37
124.26
100.89
83.44
72.60
68.48
70.39
76.96
86.56
97.70
109.39
121.03
131.98
141.26
147.56
149.74
147.38
141.19
132.80
124.18
116.87
111.61
108.33
106.60
105.93
106.01
106.53
107.07
107.02
105.70
102.57
97.43
90.57
82.56
74.02
65.37
56.63
47.58
37.90
27.50
16.66
6.02
-3.71
-11.97
-18.70
-24.36
-29.79
-35.87
-43.17
-51.71
-61.03
-70.54
-79.62
-88.02
-95.90
-103.74
-112.27
-122.50
-135.49
-151.85
-171.03
-190.80
-207.61
-217.87
-219.78
-214.65
-206.88
-202.34
-205.98
-219.78
-242.28
-269.90
-298.74
-326.51
-352.94
-379.16
-406.68
-436.77
-470.52
-509.06
-553.05
-601.65
-651.35
-695.90
-727.45
-739.25
-728.08
-695.57
-647.48
-591.54
-534.78
-481.85
-434.76
-393.70
-358.23
-327.92
-302.33
-280.71
-261.79
-244.02
-226.19
-207.80
-189.15
-171.25
-154.92
-140.50
-127.51
-114.89
-101.44
-86.39
-69.80
-52.48
-35.62
-20.22
-6.59
5.77
17.94
31.10
45.92
62.32
79.54
96.53
112.52
127.46
142.03
157.34
174.44
193.72
214.82
236.85
258.80
280.08
300.74
321.40
343.00
366.55
393.09
423.48
457.93
495.33
532.64
564.94
586.40
592.06
579.68
550.52
508.64
459.04
405.57
349.98
292.56
233.52
174.24
117.35
65.62
20.61
-17.93
-51.58
-81.72
-108.35
-129.93
-144.16
-149.45
-145.83
-135.03
-119.75
-102.80
-85.83
-68.70
-49.51
-25.46
5.72
44.32
88.03
132.48
172.27
203.43
224.71
237.50
244.52
248.01
248.92
247.28
242.98
235.08
223.08
206.78
185.56
158.15
123.17
80.57
32.95
-14.49
-58.40
-96.60
-128.60
-155.16
-177.47
-196.32
-211.21
-220.11
-220.69
-216.16
-211.15
-209.57
-212.95
-220.69
-232.01
-247.07
-266.69
-291.71
-327.80
-378.26
-441.55
-511.22
-578.38
-635.72
-679.47
-708.66
-689.01
-600.60
-445.77
-252.17
-57.38
111.49
243.99
341.62
411.24
460.34
489.32
497.65
486.87
461.10
427.09
391.63
358.26
328.66
303.26
277.46
247.09
210.74
169.48
127.47
89.34
58.52
37.18
26.12
21.88
19.99
25.45
39.16
59.93
84.20
107.60
127.04
141.33
149.19
150.32
144.55
130.57
108.50
79.75
46.66
11.74
-23.26
-56.98
-89.45
-121.59
-155.71
-193.69
-236.99
-286.48
-341.64
-399.52
-454.18
-497.54
-521.51
-521.48
-497.50
-454.53
-400.62
-343.84
-289.65
-240.10
-194.95
-153.33
-115.38
-81.75
-52.84
-27.92
-5.07
17.92
42.43
68.15
93.35
115.57
133.14
145.90
155.28
163.58
172.85
183.92
195.94
206.90
214.59
217.75
216.68
213.19
209.75
208.48
210.24
214.57
220.16
225.80
231.19
237.31
246.19
260.45
282.80
315.42
359.31
413.11
472.29
529.22
574.74
600.89
603.73
584.74
549.84
507.00
463.25
422.81
386.89
354.92
326.09
300.18
277.32
256.95
237.80
218.34
197.53
175.40
152.99
131.91
113.42
97.73
83.03
67.15
48.68
27.53
4.70
-18.30
-40.26
-60.89
-81.04
-104.21
-133.28
-169.14
-210.47
-254.80
-299.56
-342.95
-384.08
-422.90
-462.92
-506.94
-556.07
-609.37
-664.33
-716.71
-760.16
-786.86
-789.55
-768.30
-726.95
-671.93
-610.45
-549.29
-493.62
-446.26
-407.85
-357.03
-286.96
-204.95
-127.02
-65.35
-22.41
5.98
25.34
38.25
48.23
52.78
50.27
41.87
31.40
23.27
20.71
23.97
31.88
42.74
51.73
55.83
54.86
50.95
46.65
43.50
41.72
40.83
40.14
37.03
30.06
19.55
7.23
-4.95
-15.69
-24.52
-31.36
-36.26
-40.38
-44.36
-48.13
-51.07
-52.58
-52.44
-50.82
-48.09
-44.57
-41.00
-37.84
-35.26
-33.14
-31.33
-29.72
-28.30
-27.04
-25.87
-24.76
-23.68
-22.58
-21.44
-20.29
-19.12
-17.98
-16.89
-15.85
-14.83
-13.79
-12.69
-11.43
-9.93
-8.12
-5.93
-3.30
-0.26
3.19
6.95
10.92
14.94
18.83
22.43
25.53
27.97
29.64
30.47
30.49
29.81
28.62
27.14
25.61
24.20
23.05
22.23
21.82
21.92
22.61
23.98
26.05
28.75
31.86
35.11
38.15
40.74
42.75
44.18
45.16
45.81
46.18
46.15
45.50
43.98
41.46
38.13
34.40
30.91
28.18
26.43
25.40
24.39
22.59
19.43
14.96
9.91
5.44
2.65
2.02
3.10
4.72
5.47
4.52
2.12
-0.24
-0.37
3.74
13.00
26.78
43.28
60.22
75.96
90.22
104.14
119.81
139.73
166.08
200.12
241.39
286.84
330.30
363.06
376.05
363.12
324.16
266.22
201.87
145.00
105.92
88.33
89.26
101.88
119.44
137.92
156.34
175.18
194.18
211.59
225.05
233.28
237.23
239.60
242.85
247.55
251.23
249.50
238.44
217.01
187.76
155.56
125.22
99.39
78.50
61.21
45.87
31.57
18.44
7.25
-1.10
-5.83
-6.39
-1.50
9.28
24.81
42.23
58.01
69.54
76.29
79.60
81.55
86.30
96.15
110.98
128.81
147.45
165.68
183.20
199.71
214.22
230.69
252.23
279.79
311.45
343.72
373.76
400.56
424.76
447.70
478.83
524.26
583.21
647.19
704.08
743.97
762.66
761.57
745.38
730.72
730.67
749.97
783.63
821.42
854.11
877.16
890.54
828.47
655.49
375.55
36.18
-298.46
-581.01
-793.94
-941.19
-1036.04
-1093.22
-1113.85
-1098.48
-1051.82
-985.08
-913.39
-850.59
-804.79
-777.98
-768.12
-761.91
-747.71
-720.16
-682.26
-642.44
-611.67
-598.64
-603.34
-624.37
-653.51
-683.05
-707.53
-723.88
-716.47
-673.63
-592.44
-483.19
-366.01
-258.03
-169.16
-101.22
-50.67
-12.18
16.59
36.04
46.12
47.76
45.37
44.51
49.53
61.98
80.44
100.37
117.69
130.97
141.21
150.62
160.23
168.18
170.63
163.77
144.78
113.55
72.29
24.06
-28.36
-80.63
-127.35
-162.17
-179.05
-174.98
-151.47
-114.24
-70.96
-27.81
12.86
52.25
93.35
138.58
188.48
241.97
297.35
353.19
407.90
458.66
500.75
528.42
536.87
524.39
493.26
449.10
399.03
349.46
304.58
265.97
233.30
205.41
181.18
159.79
140.64
123.15
106.60
90.26
73.51
56.18
38.45
20.86
4.07
-11.40
-25.33
-37.94
-49.84
-61.88
-74.82
-89.12
-104.67
-120.88
-136.91
-152.05
-166.14
-179.82
-194.26
-210.82
-230.40
-253.00
-277.59
-302.69
-326.85
-349.35
-370.55
-391.67
-414.47
-441.02
-473.51
-513.78
-562.32
-617.00
-672.15
-719.27
-749.27
-755.66
-737.10
-697.90
-646.17
-590.52
-537.15
-488.68
-444.94
-404.76
-367.61
-333.81
-303.88
-277.55
-253.48
-229.80
-205.12
-179.24
-153.19
-128.79
-107.71
-90.70
-77.36
-66.44
-56.40
-46.15
-35.34
-24.46
-14.36
-5.79
1.08
6.77
12.25
18.58
26.53
36.33
47.76
60.26
73.27
86.35
99.25
111.85
124.09
135.88
147.06
157.50
167.01
175.38
182.34
187.57
190.80
191.93
191.19
189.17
186.74
184.77
183.94
184.48
186.23
188.95
192.45
196.83
202.43
209.57
218.35
228.76
240.87
255.06
271.73
290.72
310.43
327.58
337.76
336.98
323.23
297.58
263.82
227.04
191.75
160.68
134.84
114.47
100.09
92.76
93.24
100.90
113.14
126.27
137.25
145.27
151.86
159.36
168.38
176.10
176.78
164.34
135.74
93.23
44.14
-1.73
-35.66
-52.80
-52.96
-39.39
-16.73
10.80
39.99
68.51
94.23
115.15
129.88
138.19
141.04
140.03
136.35
130.00
119.91
105.01
85.43
63.17
41.55
23.82
11.77
5.24
2.51
1.41
0.19
-2.20
-6.20
-11.92
-19.13
-27.09
-34.54
-40.03
-42.63
-42.47
-40.83
-39.61
-40.34
-43.17
-46.64
-48.07
-44.56
-33.95
-15.71
8.96
37.40
66.33
92.64
114.07
129.53
139.08
143.58
144.32
142.60
139.50
135.80
132.09
128.98
127.11
126.96
128.55
131.15
133.37
133.57
130.31
122.62
110.04
92.43
69.82
42.59
11.89
-20.09
-50.37
-75.95
-94.89
-106.97
-113.70
-117.45
-120.31
-123.24
-125.97
-127.53
-127.08
-124.48
-120.25
-115.14
-109.64
-103.70
-96.85
-88.62
-78.90
-68.05
-56.73
-45.53
-34.69
-24.07
-13.38
-2.49
8.27
18.20
26.47
32.61
36.74
39.61
42.23
45.50
49.82
55.02
60.55
65.82
70.45
74.33
77.46
79.84
81.33
81.71
80.67
77.86
72.95
65.63
55.77
43.50
29.25
13.49
-3.54
-22.04
-42.47
-65.09
-89.58
-114.69
-138.51
-159.02
-174.83
-185.63
-192.06
-195.26
-196.26
-195.68
-193.90
-191.41
-189.01
-187.70
-188.22
-190.58
-193.88
-196.61
-197.38
-195.73
-192.50
-189.64
-189.25
-192.54
-198.89
-205.79
-209.48
-206.26
-193.77
-171.86
-142.41
-108.49
-73.20
-38.81
-6.75
21.77
45.26
61.90
70.21
69.96
62.42
49.86
34.53
17.96
1.23
-14.04
-24.80
-26.90
-16.76
6.48
39.62
76.02
108.02
129.92
140.01
140.53
136.03
131.09
128.58
129.15
131.70
134.44
135.78
134.89
131.75
126.86
120.84
113.98
106.15
97.01
86.52
75.30
64.61
55.78
49.49
45.24
41.57
36.79
29.86
20.94
11.19
2.19
-4.94
-10.01
-13.74
-17.28
-21.64
-27.25
-33.82
-40.37
-45.39
-47.33
-45.14
-38.78
-29.48
-19.39
-10.90
-5.53
-3.30
-2.37
-0.12
5.70
15.99
29.97
45.62
60.58
73.03
82.25
89.19
95.14
101.17
107.47
113.46
118.33
121.59
123.07
122.47
120.08
115.62
108.95
101.29
95.67
95.72
103.04
114.93
124.73
126.67
117.82
100.65
82.39
71.79
74.93
92.70
121.15
154.21
189.11
224.12
257.18
284.33
300.34
300.91
284.81
254.98
201.93
125.35
32.16
-65.16
-153.62
-224.75
-275.90
-308.79
-327.54
-337.06
-339.39
-336.03
-328.18
-316.95
-303.20
-287.81
-271.69
-256.23
-243.04
-231.62
-221.44
-212.36
-204.85
-199.44
-195.53
-190.61
-180.67
-161.66
-130.57
-88.68
-41.65
2.59
37.21
59.31
70.52
75.14
77.36
79.51
80.84
78.89
71.68
59.53
45.38
34.27
28.80
29.69
35.58
43.25
49.30
51.35
48.57
41.50
30.38
17.29
3.90
-8.22
-17.45
-22.21
-21.60
-15.94
-6.83
3.20
11.88
17.52
19.54
18.57
16.02
13.71
13.58
17.26
25.20
36.15
46.21
49.78
41.65
19.54
-14.18
-52.87
-88.01
-113.16
-125.27
-125.71
-118.66
-108.42
-97.46
-86.10
-73.52
-58.74
-43.12
-28.41
-16.26
-7.34
-1.10
3.68
8.30
13.35
18.64
23.30
26.58
28.13
28.12
27.25
26.48
26.56
27.91
30.43
33.56
36.64
39.01
40.06
39.47
37.18
33.27
28.17
22.34
16.06
9.40
2.03
-6.66
-17.19
-29.16
-42.25
-55.25
-66.62
-75.24
-80.62
-83.23
-84.26
-85.37
-87.45
-91.40
-97.75
-106.46
-116.27
-124.23
-126.11
-117.90
-97.90
-68.05
-34.03
-2.93
19.51
31.13
33.63
30.98
27.04
23.89
21.58
19.21
16.37
13.76
12.76
14.37
18.46
23.81
28.81
32.07
33.25
33.08
32.95
34.18
37.45
42.49
48.21
53.14
56.09
56.56
54.95
52.25
49.64
47.97
47.44
47.60
47.55
46.41
43.73
39.73
35.25
31.41
29.19
29.04
30.70
33.23
35.51
36.72
36.68
35.92
35.41
36.20
39.15
44.84
53.21
63.50
74.12
82.60
86.06
82.18
70.28
51.97
30.83
10.78
-5.15
-15.59
-20.82
-22.08
-20.65
-17.23
-11.91
-4.58
4.00
12.41
19.21
23.48
25.06
24.30
21.67
17.41
11.39
2.16
-12.19
-33.23
-61.35
-95.28
-132.34
-169.05
-201.98
-223.22
-227.17
-212.78
-184.36
-149.26
-114.11
-82.61
-55.57
-32.20
-11.49
6.23
19.65
27.40
29.05
25.58
19.00
11.74
5.75
1.50
-1.59
-5.09
-10.82
-19.81
-32.08
-46.67
-61.99
-76.09
-86.71
-91.63
-88.90
-77.39
-57.30
-30.80
-1.87
24.78
45.35
57.00
58.94
52.79
41.68
28.82
16.42
5.45
-3.62
-9.98
-11.60
-6.50
5.50
21.91
37.90
48.13
49.15
41.35
29.30
20.96
23.36
38.97
64.98
94.99
122.25
142.60
155.73
164.25
172.60
183.17
194.73
203.95
207.36
202.99
190.71
171.58
139.69
94.84
42.69
-8.14
-50.01
-79.49
-96.69
-103.75
-103.58
-99.17
-92.16
-84.75
-80.35
-82.07
-90.47
-103.28
-115.46
-120.62
-113.24
-90.36
-52.20
-8.29
30.13
55.27
66.05
67.33
65.81
65.58
66.64
66.48
60.89
49.80
36.62
25.93
20.12
17.50
13.36
3.22
-14.25
-36.92
-56.07
-63.98
-57.64
-40.23
-18.67
0.46
14.28
23.27
27.70
29.57
28.87
24.06
13.06
-5.37
-30.89
-61.52
-90.58
-114.48
-131.49
-142.58
-150.22
-157.09
-164.89
-173.78
-182.10
-188.25
-191.64
-192.21
-191.16
-190.26
-191.15
-194.84
-204.56
-218.28
-233.70
-247.57
-255.24
-251.78
-233.63
-200.53
-156.54
-109.10
-66.32
-35.33
-19.27
-17.30
-26.11
-41.86
-61.54
-83.11
-104.52
-122.59
-136.72
-144.56
-144.58
-137.00
-123.71
-107.52
-91.29
-76.48
-63.23
-51.40
-38.92
-24.64
-8.99
6.25
19.03
27.30
31.54
33.58
35.29
41.75
56.40
79.66
109.16
141.30
171.38
198.72
224.13
248.51
277.77
316.06
363.51
416.31
468.93
513.80
549.37
575.99
594.25
611.37
633.06
660.39
689.97
716.64
732.69
738.07
734.83
683.30
564.08
382.37
166.30
-48.79
-213.54
-330.64
-410.35
-461.74
-491.09
-500.79
-489.60
-459.08
-414.33
-361.63
-309.64
-259.71
-211.63
-165.83
-116.67
-60.32
2.53
67.45
129.10
181.21
224.62
262.45
297.17
334.13
373.43
408.19
427.63
422.68
388.66
330.87
259.74
171.29
72.18
-26.62
-114.31
-183.95
-233.38
-264.56
-279.89
-282.74
-277.63
-266.13
-250.09
-231.75
-212.98
-194.42
-176.28
-158.07
-139.72
-122.24
-104.99
-88.12
-72.83
-60.65
-51.51
-44.72
-39.33
-34.70
-31.25
-28.11
-25.01
-23.03
-22.90
-24.38
-26.42
-27.73
-27.46
-26.20
-23.92
-21.38
-21.19
-25.34
-34.55
-48.54
-67.07
-85.08
-100.63
-112.30
-120.05
-125.89
-131.48
-137.43
-142.92
-146.43
-147.00
-145.02
-140.60
-121.28
-80.77
-20.69
49.81
120.17
183.59
237.57
277.99
308.35
331.02
346.28
353.91
353.78
346.55
335.88
323.77
310.87
296.15
277.80
256.03
230.92
201.89
169.86
136.50
102.96
69.94
34.89
-4.54
-44.03
-80.65
-114.67
-145.37
-171.56
-192.53
-207.85
-222.52
-240.54
-254.25
-258.90
-255.90
-246.17
-230.64
-210.85
-188.67
-173.40
-172.49
-177.58
-183.80
-193.87
-209.70
-232.12
-261.15
-250.11
-172.66
-99.89
-60.74
-36.17
-19.84
-7.34
4.58
18.34
35.53
49.70
55.18
61.28
72.99
86.94
99.59
108.41
112.35
111.77
102.69
82.15
59.42
40.96
26.79
14.82
3.75
-6.01
-12.60
-16.48
-20.67
-21.93
-19.11
-15.39
-18.50
-33.84
-62.20
-99.96
-141.10
-185.08
-228.94
-270.21
-308.65
-351.50
-403.19
-461.90
-520.23
-566.41
-599.52
-620.74
-631.90
-636.54
-647.97
-675.41
-719.11
-770.82
-814.36
-846.60
-868.12
-879.58
-816.47
-650.44
-403.67
-137.63
52.50
169.63
229.73
245.89
237.86
216.60
182.54
139.23
95.55
62.86
53.89
63.86
83.58
106.53
129.12
143.89
147.63
142.98
137.17
141.92
158.22
184.26
218.31
257.38
293.49
320.02
334.17
337.60
336.51
331.72
323.11
311.12
295.76
274.87
246.97
212.50
173.96
135.96
100.32
68.10
40.19
16.84
-2.88
-19.97
-34.95
-47.62
-56.94
-62.85
-65.50
-65.11
-62.19
-57.47
-51.81
-46.16
-41.31
-37.78
-35.72
-34.96
-35.07
-35.48
-35.51
-34.50
-31.88
-27.22
-20.29
-11.19
-0.27
11.79
24.14
35.78
45.78
53.30
57.76
58.92
56.87
52.05
45.16
37.06
28.65
20.78
14.18
9.38
6.75
6.46
8.52
12.85
19.28
27.55
37.40
48.49
60.42
72.74
84.88
96.15
105.80
112.93
116.64
116.06
110.48
99.39
82.63
60.45
33.56
3.13
-29.30
-61.93
-92.82
-120.14
-142.29
-158.05
-166.64
-167.83
-160.88
-145.83
-123.83
-96.96
-67.60
-37.76
-8.95
17.80
41.67
63.27
83.03
100.80
115.82
127.27
134.84
138.72
139.42
137.52
136.13
137.49
141.80
147.34
151.90
154.07
153.48
150.52
145.65
146.54
158.45
181.39
210.32
238.94
263.14
281.71
295.23
304.44
324.91
367.06
430.36
503.83
574.05
632.44
676.73
708.84
731.37
771.41
847.77
961.33
1095.62
1229.48
1348.65
1448.20
1529.08
1592.90
1673.72
1794.45
1954.44
2130.46
2293.49
2424.30
2516.54
2572.34
2418.08
1977.39
1296.21
524.50
-184.17
-746.51
-1149.74
-1419.92
-1579.00
-1680.32
-1728.50
-1721.90
-1668.91
-1591.49
-1513.26
-1448.51
-1396.75
-1353.87
-1320.05
-1270.68
-1189.49
-1076.86
-949.43
-830.56
-734.59
-666.24
-624.08
-605.06
-587.54
-555.88
-508.07
-455.66
-409.95
-379.50
-366.84
-370.05
-385.65
-400.33
-404.16
-394.65
-376.40
-356.47
-340.59
-331.79
-331.73
-341.83
-358.92
-378.63
-395.71
-403.91
-396.39
-367.86
-316.48
-244.74
-158.10
-61.85
39.84
143.26
242.98
331.09
398.12
436.57
444.32
426.22
392.46
354.51
320.79
294.07
272.69
252.81
231.60
208.64
185.55
164.68
147.78
135.13
124.60
113.26
98.40
78.81
54.70
27.66
-0.06
-26.07
-48.65
-69.79
-92.05
-117.49
-146.88
-180.81
-220.10
-264.98
-313.35
-359.44
-399.06
-424.84
-428.23
-402.67
-348.68
-275.89
-200.22
-137.76
-99.28
-95.46
-126.98
-185.51
-256.48
-326.30
-387.07
-436.96
-477.60
-511.54
-551.61
-606.71
-679.51
-764.84
-854.68
-942.57
-1025.38
-1102.18
-1107.09
-1004.37
-803.06
-556.27
-321.79
-130.87
15.22
131.07
233.68
333.76
416.02
474.11
504.89
513.23
509.25
504.39
506.86
520.72
546.53
575.38
598.18
612.55
624.04
631.66
633.02
624.57
605.05
576.21
536.46
486.57
429.87
372.80
321.93
282.52
256.45
242.78
238.22
235.06
225.67
203.90
167.43
118.30
63.29
11.21
-29.98
-56.04
-68.61
-72.40
-72.73
-72.96
-73.83
-73.86
-71.70
-67.47
-62.88
-60.31
-61.16
-64.80
-69.60
-73.59
-75.15
-73.89
-70.54
-66.46
-63.19
-60.97
-59.09
-56.37
-51.65
-44.26
-34.34
-22.78
-9.65
2.86
13.86
23.24
31.29
38.35
44.52
49.55
52.92
54.09
51.92
46.78
39.23
29.91
19.45
8.44
-2.78
-13.95
-23.02
-30.70
-37.00
-41.79
-45.07
-46.91
-47.47
-47.00
-45.78
-44.08
-42.46
-40.90
-39.32
-37.80
-36.39
-35.15
-34.12
-33.34
-32.74
-32.52
-32.47
-32.36
-32.25
-32.25
-32.48
-33.10
-34.16
-35.59
-37.33
-39.08
-40.42
-41.35
-41.94
-42.31
-42.61
-42.79
-42.58
-41.56
-40.00
-36.80
-31.85
-25.55
-18.60
-11.82
-5.86
-0.97
2.94
6.07
8.89
11.38
13.23
14.11
13.44
10.48
4.56
-4.53
-16.07
-27.96
-37.35
-41.25
-37.61
-26.33
-9.36
9.91
27.79
41.36
49.18
51.06
47.48
39.89
29.82
18.71
7.79
-1.97
-9.88
-15.57
-19.12
-20.84
-21.17
-20.78
-20.21
-19.47
-18.41
-16.65
-13.75
-9.60
-4.42
1.23
6.67
11.26
14.57
16.42
16.76
15.78
13.53
9.96
4.93
-1.69
-9.90
-19.53
-30.28
-41.76
-53.33
-64.54
-75.12
-84.96
-94.07
-102.57
-110.57
-118.20
-125.62
-132.61
-139.04
-144.77
-149.68
-153.54
-156.06
-156.70
-154.62
-151.14
-146.40
-140.42
-133.30
-125.29
-116.76
-108.11
-99.65
-91.66
-84.41
-77.55
-70.84
-64.22
-57.73
-51.57
-45.90
-40.84
-36.47
-32.90
-29.38
-25.34
-20.54
-15.15
-9.62
-4.45
0.03
3.59
6.08
9.17
14.24
21.88
31.58
42.10
52.19
61.05
68.35
74.00
81.39
93.36
111.12
133.63
158.32
182.57
204.64
223.76
239.61
257.38
281.52
314.04
353.54
396.34
438.80
478.66
515.07
547.89
583.95
629.24
686.56
754.32
827.87
902.41
974.65
1042.82
1063.22
1006.86
866.59
663.34
434.97
216.80
30.04
-118.25
-229.91
-310.80
-361.39
-383.96
-385.11
-376.49
-371.48
-379.62
-402.90
-436.09
-470.36
-492.66
-494.93
-476.56
-443.58
-404.71
-366.92
-333.62
-305.57
-282.87
-262.87
-243.75
-224.99
-206.80
-189.81
-174.10
-159.30
-145.03
-131.55
-118.16
-104.51
-90.55
-76.30
-61.66
-46.22
-29.92
-13.07
3.24
17.95
30.00
38.86
44.73
48.54
51.83
55.72
61.14
68.40
77.16
86.52
95.17
101.62
104.12
104.06
101.60
97.37
93.07
91.35
94.97
105.56
122.57
143.11
162.87
177.31
183.86
182.50
175.19
164.61
152.84
140.96
129.25
117.85
106.90
96.92
88.40
81.24
74.75
68.03
60.41
51.80
42.84
34.39
27.42
22.61
20.14
19.60
20.25
21.22
21.83
21.72
20.80
19.24
17.27
15.03
12.44
9.19
4.87
-0.90
-8.24
-16.94
-26.37
-35.66
-43.93
-50.65
-55.84
-60.00
-63.85
-67.94
-72.36
-76.77
-80.70
-84.11
-87.54
-91.89
-97.76
-104.93
-112.17
-117.82
-120.72
-120.95
-119.89
-119.73
-122.45
-128.96
-138.96
-151.44
-165.39
-180.07
-194.84
-208.36
-218.25
-221.42
-215.07
-198.18
-172.38
-141.71
-111.06
-83.92
-60.89
-39.75
-17.31
8.00
34.52
57.58
71.63
73.01
61.55
40.22
13.01
-17.29
-50.04
-85.80
-123.97
-161.06
-190.50
-204.74
-198.43
-170.96
-127.03
-74.94
-23.93
19.00
50.76
72.29
87.18
99.48
111.84
124.27
134.46
139.05
135.53
123.64
105.69
85.62
67.52
54.25
47.15
46.43
52.07
64.47
84.08
110.51
141.57
173.10
199.58
215.73
218.08
206.14
182.43
151.53
118.55
87.46
60.11
36.19
14.06
-8.00
-30.84
-54.20
-77.04
-98.35
-117.60
-135.01
-151.26
-167.14
-183.39
-200.67
-219.83
-241.74
-266.64
-293.19
-318.01
-336.18
-342.87
-335.27
-314.01
-283.09
-248.39
-215.35
-187.21
-164.53
-145.97
-129.80
-114.99
-101.45
-89.52
-79.22
-69.92
-60.58
-50.25
-38.48
-25.35
-11.46
2.74
17.07
31.62
46.32
60.57
73.10
82.35
87.01
86.47
80.97
71.32
58.51
43.44
26.87
9.46
-8.25
-25.86
-43.08
-59.54
-74.57
-86.91
-95.10
-98.02
-95.58
-89.03
-80.47
-72.04
-65.23
-60.61
-58.16
-57.82
-59.67
-63.67
-69.25
-75.08
-79.37
-80.55
-77.87
-71.62
-62.83
-52.59
-41.59
-29.98
-17.60
-4.45
9.00
21.71
32.45
40.21
44.68
46.40
46.54
46.43
47.03
48.42
49.89
50.35
48.84
45.15
40.00
34.81
31.08
29.55
29.60
29.17
25.39
15.60
-1.34
-24.35
-50.34
-75.36
-96.08
-110.89
-120.03
-124.72
-126.05
-124.29
-119.09
-110.34
-98.85
-86.45
-75.16
-66.08
-58.74
-51.47
-42.27
-30.00
-14.71
2.78
21.68
41.67
62.90
85.25
107.75
128.56
145.57
157.53
164.79
169.21
172.98
177.22
181.18
182.84
180.53
174.55
167.71
164.11
166.81
175.87
188.15
198.96
204.69
204.54
200.38
194.98
189.85
184.34
176.27
163.46
144.92
121.00
92.47
59.84
23.06
-17.91
-62.36
-108.54
-154.21
-197.55
-238.03
-276.76
-316.16
-359.07
-407.27
-459.93
-512.69
-558.18
-588.32
-597.16
-583.56
-551.62
-509.07
-463.96
-421.88
-384.70
-351.43
-320.17
-289.79
-260.41
-232.57
-206.12
-179.64
-150.93
-118.09
-80.57
-39.45
2.94
44.13
82.45
117.56
150.36
182.25
214.41
247.26
280.44
313.07
343.92
371.29
393.14
407.33
412.25
407.50
393.98
373.30
346.80
314.74
276.16
229.62
174.53
112.02
45.09
-22.09
-85.03
-139.59
-182.05
-209.17
-218.38
-208.59
-181.17
-140.25
-92.13
-43.62
-0.11
35.73
64.04
86.68
105.68
122.24
136.65
148.79
158.66
166.45
171.98
174.58
173.20
167.11
156.66
143.77
131.23
121.65
116.31
114.79
115.39
115.86
114.32
109.80
102.38
92.85
82.47
72.59
64.32
58.37
54.97
53.85
54.23
54.88
54.19
50.36
41.77
27.53
7.84
-15.72
-40.41
-63.01
-80.74
-92.25
-97.94
-99.83
-100.75
-103.31
-109.13
-118.40
-129.92
-141.36
-149.67
-151.66
-144.79
-128.02
-102.29
-70.59
-37.03
-5.82
19.97
38.76
50.31
55.15
54.03
48.00
38.50
27.71
18.12
12.00
10.62
13.85
20.33
28.16
35.67
41.73
45.88
47.93
47.80
45.49
41.17
35.44
29.07
22.82
17.01
11.57
6.38
1.70
-1.33
-0.97
4.45
15.72
32.19
51.81
71.59
88.39
99.58
103.69
100.63
91.81
79.76
67.41
57.25
50.60
47.40
46.57
46.70
46.71
46.15
45.01
43.35
41.08
38.08
34.44
30.55
27.08
24.60
23.26
22.83
22.75
22.44
21.57
20.14
18.31
16.27
14.02
11.26
7.53
2.37
-4.43
-12.66
-21.86
-31.56
-41.57
-52.01
-63.02
-74.23
-84.50
-92.03
-95.06
-92.75
-85.70
-75.75
-65.30
-56.23
-49.27
-44.17
-40.17
-36.70
-33.82
-32.01
-31.70
-32.87
-34.82
-36.45
-36.71
-35.04
-31.47
-26.57
-21.12
-15.78
-10.91
-6.46
-2.21
2.09
6.55
11.11
15.65
20.04
24.22
28.13
31.58
34.26
35.70
35.51
33.50
29.77
24.70
18.84
12.74
6.90
1.71
-2.55
-5.73
-7.92
-9.38
-10.52
-11.75
-13.34
-15.21
-16.95
-17.95
-17.57
-15.53
-12.05
-7.98
-4.64
-3.46
-5.43
-10.74
-18.57
-27.29
-34.96
-39.88
-41.16
-38.86
-33.73
-26.67
-18.31
-8.69
2.34
14.79
28.06
40.83
51.50
58.80
62.19
62.16
59.90
56.84
54.18
52.70
52.68
54.00
56.02
57.59
57.22
53.59
46.13
35.45
23.23
11.53
2.02
-4.58
-8.47
-10.33
-10.67
-9.64
-7.13
-3.15
1.86
7.13
11.90
15.80
18.98
21.84
24.72
27.69
30.40
32.37
33.20
32.75
31.21
29.02
26.63
24.44
22.60
21.03
19.51
17.80
15.77
13.44
10.92
8.35
5.80
3.32
0.87
-1.58
-3.95
-6.10
-7.85
-9.13
-9.97
-10.54
-11.03
-11.55
-12.11
-12.60
-13.01
-13.53
-14.50
-16.19
-18.52
-20.90
-22.46
-22.29
-19.99
-15.79
-10.46
-4.94
0.07
4.29
7.86
11.02
14.02
16.88
19.48
21.59
22.97
23.41
22.79
21.22
18.98
16.51
14.21
12.36
11.00
9.93
8.92
7.73
6.37
4.96
3.78
3.11
3.13
3.83
4.96
6.08
6.73
6.58
5.65
4.20
2.68
1.37
0.26
-0.98
-2.83
-5.55
-9.09
-12.97
-16.43
-18.72
-19.30
-17.83
-14.24
-8.69
-1.76
5.44
11.45
14.85
14.87
11.81
7.02
2.32
-0.78
-1.62
-0.52
1.67
4.16
6.60
9.06
11.76
14.68
17.44
19.61
20.93
21.52
21.78
22.13
22.84
23.88
25.00
25.85
26.14
25.77
24.71
23.01
20.63
17.46
13.46
8.78
3.78
-0.99
-5.06
-8.25
-10.67
-12.70
-14.64
-16.56
-18.26
-19.45
-19.95
-19.77
-19.11
-18.02
-16.38
-13.99
-10.69
-6.66
-2.34
1.71
5.09
7.72
9.79
11.58
13.21
14.59
15.50
15.79
15.51
14.95
14.48
14.41
14.81
15.47
16.06
16.29
15.99
15.21
14.14
13.02
12.03
11.21
10.43
9.57
8.39
6.73
4.55
1.99
-0.67
-3.02
-4.80
-5.96
-6.71
-7.43
-8.45
-9.86
-11.51
-13.16
-14.51
-15.36
-15.61
-15.17
-13.90
-11.69
-8.47
-4.37
0.22
4.85
9.02
12.47
15.13
17.17
18.81
20.17
21.18
21.58
21.10
19.59
17.22
14.45
11.81
9.73
8.37
7.57
7.03
6.44
5.66
4.68
3.65
2.72
2.01
1.56
1.31
1.09
0.70
-0.02
-1.12
-2.49
-3.87
-5.06
-5.99
-6.76
-7.60
-8.71
-10.29
-12.37
-14.90
-17.72
-20.59
-23.17
-25.07
-25.97
-25.71
-24.41
-22.39
-20.07
-17.88
-16.01
-14.42
-12.84
-10.93
-8.39
-5.12
-1.31
2.64
6.16
8.82
10.36
10.81
10.42
9.58
8.68
8.04
7.82
8.04
8.62
9.41
10.27
11.10
11.82
12.37
12.67
12.63
12.24
11.54
10.65
9.66
8.55
7.17
5.28
2.72
-0.52
-4.24
-8.13
-11.80
-14.96
-17.39
-19.05
-19.94
-20.13
-19.69
-18.63
-16.99
-14.81
-12.29
-9.65
-7.18
-5.00
-3.05
-1.17
0.88
3.13
5.46
7.62
9.41
10.80
11.86
12.70
13.35
13.77
13.85
13.64
13.29
13.03
13.02
13.23
13.45
13.41
12.81
11.52
9.60
7.30
4.96
2.87
1.12
-0.39
-1.95
-3.84
-6.21
-8.97
-11.94
-14.88
-17.69
-20.31
-22.72
-24.81
-26.44
-27.43
-27.71
-27.26
-26.15
-24.44
-22.20
-19.53
-16.53
-13.34
-10.00
-6.41
-2.49
1.80
6.24
10.42
13.85
16.20
17.41
17.76
17.65
17.46
17.35
17.32
17.28
17.18
17.06
16.97
16.92
16.80
16.37
15.40
13.80
11.72
9.50
7.54
6.10
5.13
4.25
3.01
1.07
-1.55
-4.54
-7.50
-10.12
-12.37
-14.42
-16.47
-18.57
-20.55
-22.10
-22.94
-22.94
-22.12
-20.62
-18.58
-16.08
-13.21
-10.02
-6.63
-3.17
0.18
3.27
5.97
8.17
9.85
11.01
11.83
12.51
13.26
14.11
14.98
15.71
16.13
16.27
16.23
16.13
15.99
15.59
14.66
13.03
10.78
8.22
5.85
4.00
2.72
1.81
0.89
-0.27
-1.74
-3.39
-5.08
-6.77
-8.54
-10.62
-13.15
-16.10
-19.20
-22.01
-24.02
-24.90
-24.51
-23.09
-21.05
-18.79
-16.57
-14.39
-12.10
-9.51
-6.61
-3.54
-0.53
2.23
4.70
6.87
8.80
10.45
11.75
12.56
12.93
12.94
12.81
12.76
12.95
13.47
14.28
15.20
15.94
16.19
15.68
14.34
12.37
10.11
7.92
5.95
4.24
2.68
1.17
-0.33
-1.84
-3.36
-4.95
-6.67
-8.55
-10.54
-12.54
-14.44
-16.23
-17.88
-19.36
-20.54
-21.21
-21.08
-19.94
-17.76
-14.74
-11.32
-7.97
-5.14
-2.99
-1.44
-0.18
1.01
2.26
3.50
4.59
5.47
6.18
6.84
7.52
8.18
8.82
9.51
10.43
11.73
13.27
14.57
14.98
14.04
11.84
9.02
6.46
4.78
4.05
3.75
3.17
1.81
-0.30
-2.74
-4.97
-6.71
-8.00
-9.14
-10.41
-11.90
-13.49
-15.01
-16.39
-17.79
-19.49
-21.65
-24.10
-26.35
-27.67
-27.52
-25.78
-22.81
-19.31
-15.93
-13.04
-10.64
-8.54
-6.58
-4.85
-3.69
-3.38
-3.93
-4.92
-5.69
-5.60
-4.47
-2.59
-0.61
0.85
1.56
1.84
2.38
3.89
6.57
9.99
13.25
15.40
15.97
15.16
13.60
12.05
10.86
9.88
8.57
6.42
3.38
-0.14
-3.39
-5.72
-6.95
-7.45
-7.97
-9.24
-11.61
-14.82
-18.10
-20.43
-21.03
-19.69
-16.80
-13.19
-9.66
-6.73
-4.49
-2.67
-0.84
1.29
3.86
6.85
10.10
13.35
16.25
18.40
19.34
18.78
16.65
13.26
9.27
5.65
3.30
2.77
4.00
6.21
8.34
9.39
8.95
7.33
5.22
3.35
1.99
0.97
-0.19
-1.83
-4.00
-6.47
-8.89
-11.05
-12.99
-14.85
-16.80
-18.88
-20.91
-22.60
-23.59
-23.61
-22.62
-20.74
-18.34
-15.73
-13.12
-10.48
-7.60
-4.30
-0.55
3.37
6.97
9.80
11.60
12.37
12.39
12.16
12.13
12.60
13.57
14.69
15.56
15.89
15.67
15.24
15.05
15.39
16.21
17.21
17.97
18.32
18.29
18.08
17.83
17.44
16.62
15.17
13.18
11.10
9.57
9.01
9.41
10.23
10.77
10.59
9.98
9.89
11.55
15.82
22.73
31.35
40.31
48.43
55.34
61.62
68.44
76.94
87.61
100.12
113.50
126.55
138.33
148.36
156.78
164.31
172.15
181.65
193.82
208.52
224.02
236.92
242.89
238.01
220.16
190.00
150.95
108.27
67.55
33.08
6.72
-12.50
-27.90
-43.98
-65.09
-94.25
-132.36
-178.03
-227.94
-277.66
-322.54
-358.49
-382.29
-391.87
-386.40
-366.46
-334.20
-293.03
-246.84
-199.02
-151.55
-104.75
-57.93
-10.58
36.69
81.65
121.03
151.53
170.94
178.62
175.47
163.65
146.00
125.67
105.44
87.30
71.99
59.06
47.08
34.18
18.46
-1.78
-27.37
-57.54
-88.97
-115.61
-130.20
-127.34
-106.67
-74.43
-41.98
-21.88
-23.22
-48.41
-92.90
-147.46
-201.69
-246.80
-276.91
-289.05
-282.68
-259.57
-223.84
-181.54
-139.70
-104.56
-80.02
-66.99
-63.78
-66.99
-73.09
-79.34
-84.18
-87.14
-88.20
-87.26
-83.96
-77.91
-68.87
-57.17
-43.55
-28.71
-12.63
5.80
28.58
57.50
92.69
131.66
169.39
200.09
219.69
227.70
227.26
223.11
218.67
213.99
206.22
191.99
170.28
143.72
117.29
95.51
79.90
68.28
56.46
41.10
21.95
2.03
-13.99
-22.42
-22.37
-15.99
-7.19
0.59
6.14
10.82
17.43
28.03
42.12
56.04
64.28
62.24
49.00
28.25
6.74
-8.84
-15.01
-12.74
-6.27
-0.30
2.52
2.38
1.21
0.46
-0.37
-3.63
-11.93
-26.41
-45.90
-67.73
-89.54
-110.82
-133.49
-160.67
-194.84
-235.84
-280.12
-321.26
-351.96
-366.56
-362.95
-343.10
-311.87
-274.76
-235.69
-195.91
-154.49
-109.86
-61.52
-10.78
39.73
87.47
131.25
171.83
211.40
252.33
295.61
339.83
381.01
413.60
432.27
433.76
418.14
388.86
351.39
311.24
272.37
236.43
203.36
172.43
143.29
116.30
92.17
71.37
53.71
38.50
24.98
12.82
2.32
-5.72
-10.56
-11.93
-10.45
-7.55
-5.10
-4.74
-7.31
-12.62
-19.67
-27.11
-33.79
-39.08
-42.90
-45.51
-47.17
-48.11
-48.34
-47.75
-46.13
-43.17
-38.67
-32.74
-25.98
-19.54
-14.76
-12.62
-13.30
-15.98
-19.17
-21.36
-21.61
-19.68
-16.03
-11.31
-6.19
-1.19
3.17
6.29
7.56
6.59
3.41
-1.52
-7.41
-13.56
-19.66
-26.08
-33.82
-44.12
-57.99
-75.54
-95.63
-116.00
-133.84
-146.68
-153.03
-152.54
-145.56
-132.58
-113.82
-89.50
-60.40
-28.37
3.71
32.73
56.28
73.43
84.73
91.71
95.96
98.61
100.16
100.78
100.63
99.90
98.68
96.69
93.25
87.40
78.34
65.84
50.45
33.50
16.71
1.70
-10.47
-19.57
-26.19
-31.41
-36.31
-41.42
-46.49
-50.62
-52.75
-52.21
-49.16
-44.47
-39.40
-35.02
-31.85
-29.86
-28.75
-28.31
-28.62
-29.95
-32.43
-35.83
-39.46
-42.51
-44.43
-45.19
-45.31
-45.53
-46.42
-47.97
-49.55
-50.16
-48.85
-45.15
-39.27
-31.99
-24.33
-17.20
-11.16
-6.41
-2.91
-0.57
0.71
1.13
0.91
0.37
-0.21
-0.69
-1.12
-1.64
-2.38
-3.39
-4.53
-5.63
-6.49
-7.02
-7.14
-6.82
-6.07
-4.96
-3.72
-2.65
-2.11
-2.41
-3.66
-5.80
-8.60
-11.73
-14.91
-17.86
-20.43
-22.52
-24.16
-25.52
-26.88
-28.45
-30.27
-32.04
-33.15
-33.00
-31.15
-27.69
-23.09
-18.06
-13.23
-8.86
-4.86
-0.98
2.98
7.01
10.92
14.41
17.22
19.22
20.40
20.84
20.65
20.03
19.21
18.40
17.75
17.36
17.19
17.15
16.98
16.33
14.85
12.27
8.63
4.31
0.10
-3.27
-5.24
-5.85
-5.60
-5.25
-5.41
-6.21
-7.31
-8.10
-8.19
-7.59
-6.77
-6.48
-7.33
-9.56
-12.90
-16.65
-19.94
-22.10
-22.73
-21.85
-19.71
-16.58
-12.67
-8.01
-2.67
3.12
8.89
14.01
17.97
20.54
21.93
22.51
22.65
22.46
21.85
20.66
18.88
16.72
14.52
12.59
11.09
10.01
9.28
8.89
8.83
9.09
9.54
9.93
10.00
9.64
8.87
7.85
6.79
5.82
4.99
4.24
3.48
2.56
1.37
-0.14
-1.88
-3.66
-5.17
-6.22
-6.84
-7.31
-8.10
-9.56
-11.72
-14.12
-16.08
-16.94
-16.36
-14.49
-11.79
-8.81
-5.92
-3.21
-0.61
1.93
4.35
6.46
8.06
9.04
9.38
9.24
8.81
8.30
7.93
7.89
8.24
8.95
9.81
10.61
11.16
11.39
11.35
11.16
10.87
10.47
9.92
9.15
8.16
6.99
5.73
4.43
3.16
1.97
0.89
-0.03
-0.75
-1.23
-1.50
-1.63
-1.76
-2.05
-2.63
-3.64
-5.14
-7.11
-9.41
-11.79
-13.89
-15.33
-15.74
-14.95
-13.00
-10.18
-7.00
-4.03
-1.76
-0.49
-0.17
-0.47
-0.88
-0.96
-0.45
0.49
1.49
2.13
2.15
1.64
0.95
0.51
0.62
1.36
2.54
3.88
5.21
6.46
7.67
8.79
9.68
10.07
9.77
8.74
7.24
5.69
4.53
4.06
4.26
4.83
5.37
5.52
5.05
3.90
2.13
-0.11
-2.60
-5.10
-7.32
-8.97
-9.87
-9.96
-9.29
-7.96
-6.08
-3.72
-0.96
2.16
5.48
8.76
11.68
13.96
15.51
16.45
17.14
18.01
19.30
20.94
22.41
23.09
22.50
20.62
18.02
15.63
14.30
14.47
15.82
17.47
18.31
17.43
14.53
10.03
4.96
0.63
-1.58
-0.65
3.72
10.68
18.04
22.55
20.91
11.07
-6.73
-29.75
-53.61
-73.85
-87.40
-93.23
-91.99
-85.04
-73.51
-57.94
-38.72
-16.67
6.57
28.83
48.08
63.15
74.02
81.55
86.94
91.09
94.18
95.80
95.33
92.44
87.29
80.60
73.17
65.60
58.04
50.34
42.30
33.98
25.74
18.20
11.93
7.26
4.15
2.27
1.09
0.12
-1.08
-2.85
-5.40
-8.80
-12.95
-17.59
-22.26
-26.54
-30.09
-32.74
-34.56
-35.75
-36.60
-37.34
-38.06
-38.63
-38.80
-38.16
-36.30
-32.93
-28.06
-22.16
-16.06
-10.85
-7.42
-6.27
-7.20
-9.47
-12.02
-13.78
-14.02
-12.44
-9.13
-4.45
1.04
6.75
12.04
16.33
19.19
20.50
20.39
19.20
17.36
15.28
13.21
11.25
9.37
7.52
5.65
3.77
1.95
0.19
-1.46
-3.00
-4.42
-5.62
-6.56
-7.24
-7.86
-8.76
-10.35
-12.91
-16.38
-20.37
-24.16
-26.98
-28.36
-28.13
-26.54
-24.12
-21.48
-19.20
-17.74
-17.27
-17.77
-18.96
-20.42
-21.67
-22.37
-22.24
-21.18
-19.27
-16.66
-13.67
-10.63
-7.89
-5.69
-4.07
-2.90
-1.90
-0.86
0.29
1.40
2.27
2.76
2.91
2.87
2.83
2.81
2.67
2.18
1.16
-0.29
-1.90
-3.29
-4.23
-4.74
-5.04
-5.45
-6.15
-7.19
-8.49
-9.95
-11.50
-13.12
-14.70
-15.96
-16.59
-16.28
-14.87
-12.43
-9.23
-5.61
-1.96
1.36
4.07
6.04
7.31
8.09
8.63
9.13
9.62
9.98
10.08
9.89
9.56
9.31
9.33
9.61
9.99
10.24
10.21
9.93
9.57
9.30
9.22
9.22
9.08
8.48
7.20
5.17
2.55
-0.33
-3.10
-5.42
-7.16
-8.39
-9.33
-10.22
-11.24
-12.42
-13.67
-14.94
-16.26
-17.70
-19.33
-21.07
-22.58
-23.38
-23.00
-21.22
-18.14
-14.22
-10.00
-5.97
-2.42
0.63
3.26
5.52
7.41
8.87
9.83
10.37
10.62
10.75
10.89
11.05
11.18
11.23
11.17
11.01
10.79
10.46
9.93
9.16
8.14
7.05
6.11
5.55
5.44
5.70
6.12
6.44
6.45
6.02
5.12
3.82
2.27
0.65
-0.87
-2.22
-3.45
-4.66
-5.98
-7.40
-8.75
-9.75
-10.15
-9.81
-8.76
-7.15
-5.12
-2.79
-0.21
2.58
5.47
8.25
10.70
12.58
13.78
14.38
14.56
14.57
14.65
14.91
15.32
15.74
15.94
15.73
15.05
13.98
12.70
11.42
10.33
9.48
8.80
8.17
7.40
6.42
5.29
4.15
3.13
2.31
1.63
0.96
0.18
-0.73
-1.69
-2.65
-3.67
-4.97
-6.76
-9.09
-11.72
-14.13
-15.71
-16.04
-15.06
-13.06
-10.56
-7.99
-5.57
-3.24
-0.79
1.98
5.10
8.37
11.48
14.11
16.11
17.48
18.35
18.84
18.95
18.75
18.32
17.95
17.97
18.66
20.06
21.91
23.73
24.96
25.28
24.65
23.32
21.67
20.04
18.60
17.30
15.96
14.45
12.76
11.03
9.48
8.18
7.04
5.76
3.95
1.36
-2.03
-6.04
-10.31
-14.36
-17.80
-20.32
-21.77
-22.22
-21.80
-20.71
-19.03
-16.82
-14.11
-11.01
-7.77
-4.69
-2.00
0.29
2.33
4.35
6.44
8.50
10.23
11.41
12.00
12.17
12.22
12.41
12.75
13.08
13.14
12.71
11.72
10.27
8.51
6.62
4.71
2.88
1.20
-0.29
-1.54
-2.54
-3.35
-4.05
-4.76
-5.56
-6.54
-7.75
-9.21
-10.94
-12.89
-15.00
-17.20
-19.41
-21.52
-23.36
-24.69
-25.22
-24.73
-23.11
-20.52
-17.34
-14.08
-11.15
-8.69
-6.52
-4.28
-1.69
1.31
4.44
7.30
9.53
11.01
11.88
12.39
12.80
13.23
13.71
14.19
14.64
15.06
15.41
15.57
15.46
14.97
14.07
12.84
11.41
10.00
8.83
8.04
7.64
7.45
7.14
6.36
4.92
2.88
0.52
-1.80
-3.86
-5.66
-7.40
-9.41
-11.95
-15.06
-18.56
-22.03
-24.98
-26.93
-27.60
-26.98
-25.34
-23.02
-20.32
-17.42
-14.27
-10.78
-6.88
-2.70
1.52
5.45
8.80
11.40
13.20
14.33
14.97
15.40
15.81
16.34
17.03
17.80
18.55
19.14
19.45
19.32
18.63
17.33
15.48
13.30
11.10
9.15
7.54
6.09
4.42
2.16
-0.85
-4.41
-7.96
-10.84
-12.63
-13.32
-13.40
-13.55
-14.43
-16.34
-19.23
-22.74
-26.45
-29.97
-32.97
-35.15
-36.19
-35.90
-34.28
-31.61
-28.40
-25.17
-22.22
-19.45
-16.48
-12.91
-8.56
-3.68
1.19
5.47
8.83
11.34
13.34
15.21
17.13
19.03
20.62
21.67
22.10
22.10
21.87
21.61
21.37
21.07
20.67
20.17
19.71
19.42
19.38
19.54
19.70
19.56
18.84
17.29
14.87
11.74
8.23
4.74
1.58
-1.25
-3.98
-6.99
-10.57
-14.67
-18.88
-22.47
-24.72
-24.99
-22.98
-18.58
-12.06
-4.18
3.70
9.63
11.58
8.21
-0.51
-13.05
-26.74
-38.69
-46.77
-50.04
-48.76
-43.78
-36.00
-26.04
-14.39
-1.64
11.25
23.00
32.34
38.41
40.95
40.48
37.95
34.43
30.75
27.31
24.07
20.91
17.69
14.48
11.47
8.84
6.58
4.53
2.32
-0.42
-3.90
-8.08
-12.65
-17.14
-21.00
-23.78
-25.28
-25.57
-24.98
-23.83
-22.32
-20.44
-18.01
-14.81
-10.73
-5.92
-0.70
4.44
9.12
13.11
16.40
19.19
21.67
23.97
26.04
27.65
28.52
28.51
27.62
26.07
24.13
22.02
19.80
17.43
14.88
12.16
9.43
6.88
4.62
2.60
0.55
-1.88
-4.92
-8.54
-12.41
-16.05
-19.10
-21.46
-23.37
-25.34
-27.90
-31.37
-35.66
-40.27
-44.43
-47.41
-48.74
-48.35
-46.52
-43.72
-40.34
-36.57
-32.39
-27.66
-22.32
-16.47
-10.38
-4.41
1.10
5.92
9.90
13.00
15.34
17.13
18.66
20.19
21.86
23.57
25.08
26.07
26.29
25.69
24.46
22.92
21.44
20.22
19.34
18.66
17.83
16.57
14.77
12.64
10.66
9.40
9.19
9.88
10.80
11.11
10.04
7.27
2.97
-2.31
-7.76
-12.38
-15.12
-15.19
-12.38
-7.51
-2.26
1.35
1.96
-0.50
-4.69
-8.51
-10.14
-8.70
-4.48
1.46
7.95
14.12
19.51
23.86
26.99
28.72
29.00
27.98
26.06
23.68
21.27
19.14
17.32
15.72
14.13
12.33
10.19
7.75
5.11
2.44
-0.16
-2.68
-5.15
-7.56
-9.93
-12.26
-14.59
-17.03
-19.69
-22.61
-25.74
-28.92
-31.84
-34.16
-35.49
-35.55
-34.17
-31.36
-27.27
-22.18
-16.43
-10.35
-4.28
1.49
6.68
11.17
14.91
18.03
20.67
22.92
24.76
26.06
26.69
26.59
25.92
24.90
23.78
22.73
21.73
20.70
19.47
17.95
16.07
13.92
11.60
9.26
7.03
4.92
2.89
0.78
-1.54
-4.19
-7.17
-10.45
-13.94
-17.56
-21.24
-24.87
-28.36
-31.58
-34.41
-36.75
-38.47
-39.38
-39.27
-38.02
-35.57
-32.05
-27.71
-22.81
-17.54
-12.01
-6.30
-0.49
5.22
10.63
15.52
19.75
23.19
25.76
27.42
28.19
28.21
27.65
26.80
25.89
25.08
24.41
23.81
23.18
22.46
21.62
20.70
19.68
18.47
16.91
14.93
12.49
9.78
7.03
4.41
1.88
-0.79
-3.92
-7.71
-11.98
-16.39
-20.46
-23.94
-26.77
-29.04
-30.79
-31.80
-31.67
-30.02
-26.76
-22.20
-16.94
-11.57
-6.47
-1.71
2.87
7.43
11.92
16.04
19.44
21.86
23.31
24.01
24.33
24.54
24.71
24.70
24.30
23.40
22.05
20.46
18.95
17.73
16.85
16.15
15.27
13.84
11.55
8.35
4.55
0.66
-2.72
-5.18
-6.74
-7.74
-8.82
-10.54
-13.19
-16.70
-20.72
-24.78
-28.45
-31.37
-33.24
-33.77
-32.76
-30.16
-26.14
-21.08
-15.56
-10.09
-5.01
-0.44
3.72
7.59
11.23
14.49
17.14
18.92
19.74
19.78
19.39
18.96
18.70
18.62
18.47
17.95
16.88
15.25
13.30
11.33
9.59
8.16
6.96
5.75
4.30
2.44
0.20
-2.32
-4.93
-7.50
-10.01
-12.53
-15.18
-18.05
-21.12
-24.31
-27.50
-30.52
-33.15
-35.13
-36.16
-35.99
-34.42
-31.41
-27.11
-21.83
-16.00
-10.09
-4.49
0.60
5.12
9.16
12.85
16.22
19.17
21.47
22.96
23.61
23.64
23.40
23.18
23.19
23.37
23.54
23.49
23.05
22.19
21.01
19.59
17.93
15.94
13.52
10.60
7.27
3.75
0.32
-2.79
-5.52
-8.02
-10.50
-13.20
-16.24
-19.63
-23.26
-26.91
-30.23
-32.79
-34.15
-34.03
-32.30
-29.12
-24.77
-19.65
-14.12
-8.54
-3.19
1.65
5.73
8.91
11.25
12.97
14.43
15.97
17.78
19.91
22.23
24.43
26.12
26.95
26.71
25.47
23.56
21.43
19.48
17.89
16.49
14.90
12.71
9.72
5.98
1.78
-2.50
-6.46
-9.78
-12.27
-13.82
-14.59
-14.97
-15.59
-17.05
-19.70
-23.39
-27.50
-31.14
-33.48
-34.07
-32.96
-30.54
-27.28
-23.53
-19.36
-14.71
-9.59
-4.16
1.24
6.16
10.33
13.65
16.24
18.28
19.89
21.04
21.55
21.29
20.28
18.77
17.13
15.75
14.81
14.25
13.75
13.00
11.78
10.18
8.47
6.96
5.80
4.88
3.92
2.57
0.71
-1.57
-3.97
-6.15
-7.90
-9.34
-10.85
-12.87
-15.76
-19.56
-23.93
-28.25
-31.80
-33.99
-34.51
-33.39
-30.90
-27.44
-23.41
-19.08
-14.61
-10.02
-5.23
-0.20
5.03
10.21
14.96
18.84
21.46
22.64
22.44
21.25
19.67
18.40
18.06
19.02
21.22
24.26
27.47
30.19
32.06
33.09
33.60
33.89
33.94
33.42
31.79
28.72
24.40
19.52
15.07
11.81
9.92
8.86
7.69
5.51
1.94
-2.77
-7.90
-12.62
-16.44
-19.26
-21.31
-22.84
-23.91
-24.33
-23.82
-22.23
-19.65
-16.35
-12.69
-8.95
-5.28
-1.77
1.51
4.41
6.79
8.54
9.68
10.27
10.39
10.14
9.56
8.72
7.73
6.76
5.93
5.35
5.00
4.82
4.74
4.62
4.34
3.78
2.92
1.80
0.65
-0.32
-1.01
-1.52
-2.13
-3.19
-4.83
-6.95
-9.15
-10.93
-11.89
-11.76
-10.45
-8.07
-4.86
-1.21
2.39
5.53
8.11
10.46
13.17
16.80
21.46
26.63
31.33
34.57
35.85
35.44
34.18
33.01
32.53
32.71
33.09
33.11
32.45
31.18
29.67
28.35
27.49
27.12
27.09
27.10
26.87
26.13
24.73
22.61
19.82
16.50
12.82
8.86
4.55
-0.26
-5.84
-12.44
-20.24
-29.19
-39.01
-49.14
-58.82
-67.20
-73.51
-77.23
-78.10
-76.14
-71.58
-64.82
-56.32
-46.69
-36.50
-26.36
-16.79
-8.27
-1.18
4.18
7.67
9.34
9.59
9.02
8.29
7.83
7.77
7.96
8.06
7.75
6.80
5.16
2.87
0.17
-2.54
-4.79
-6.11
-6.39
-6.00
-5.68
-6.32
-8.57
-12.57
-18.03
-24.39
-31.09
-37.68
-43.87
-49.33
-53.75
-56.91
-58.72
-59.31
-58.89
-57.64
-55.62
-52.77
-48.97
-44.16
-38.41
-31.92
-24.99
-18.02
-11.43
-5.62
-0.88
2.70
5.30
7.20
8.76
10.23
11.67
13.07
14.30
15.26
15.89
16.13
16.07
15.88
15.82
16.11
16.78
17.57
18.06
17.82
16.72
14.88
12.76
10.79
9.20
7.99
6.88
5.62
4.01
1.97
-0.46
-3.20
-6.21
-9.36
-12.46
-15.20
-17.28
-18.42
-18.46
-17.36
-15.15
-11.94
-7.88
-3.17
1.98
7.32
12.63
17.71
22.40
26.56
30.03
32.66
34.33
34.96
34.62
33.53
32.04
30.48
29.09
27.95
26.96
25.87
24.49
22.71
20.57
18.30
16.12
14.27
12.77
11.51
10.23
8.62
6.47
3.77
0.67
-2.55
-5.64
-8.52
-11.29
-14.18
-17.40
-20.94
-24.62
-28.03
-30.80
-32.59
-33.25
-32.75
-31.13
-28.49
-24.99
-20.83
-16.24
-11.48
-6.70
-2.01
2.56
6.90
10.87
14.26
16.98
18.99
20.39
21.33
21.95
22.33
22.49
22.37
21.92
21.09
19.83
18.20
16.39
14.64
13.18
12.13
11.38
10.63
9.52
7.82
5.50
2.86
0.24
-2.04
-3.80
-5.16
-6.40
-7.85
-9.83
-12.55
-16.06
-20.24
-24.72
-28.98
-32.38
-34.40
-34.77
-33.54
-31.02
-27.61
-23.62
-19.21
-14.42
-9.35
-4.21
0.65
4.82
8.03
10.19
11.45
12.10
12.53
13.05
13.95
15.32
17.09
18.97
20.53
21.30
20.96
19.47
17.09
14.35
11.83
9.93
8.80
8.22
7.83
7.22
6.20
4.79
3.16
1.45
-0.33
-2.29
-4.61
-7.46
-10.80
-14.47
-18.21
-21.70
-24.67
-26.88
-28.10
-28.09
-26.72
-24.02
-20.16
-15.52
-10.43
-5.20
0.01
5.09
9.93
14.38
18.19
21.17
23.22
24.36
24.77
24.69
24.36
24.00
23.78
23.75
23.84
23.89
23.72
23.18
22.26
21.03
19.64
18.21
16.78
15.28
13.60
11.72
9.68
7.59
5.52
3.40
1.04
-1.77
-5.17
-9.11
-13.37
-17.66
-21.72
-25.44
-28.80
-31.74
-34.13
-35.63
-35.92
-34.81
-32.35
-28.84
-24.74
-20.43
-16.16
-12.00
-7.91
-3.88
-0.01
3.55
6.64
9.17
11.17
12.72
14.00
15.16
16.29
17.44
18.52
19.43
19.96
19.95
19.28
17.99
16.25
14.30
12.38
10.64
9.06
7.52
5.90
4.12
2.21
0.29
-1.59
-3.46
-5.46
-7.73
-10.37
-13.36
-16.59
-19.92
-23.25
-26.52
-29.59
-32.25
-34.08
-34.66
-33.64
-30.96
-26.94
-22.18
-17.35
-12.87
-8.82
-4.87
-0.58
4.34
9.72
15.02
19.51
22.65
24.31
24.77
24.60
24.35
24.44
25.06
26.26
27.98
29.86
31.17
30.73
27.36
20.36
9.99
-2.40
-14.72
-24.79
-31.08
-33.07
-31.21
-26.54
-20.25
-13.40
-6.85
-1.37
2.38
3.89
3.00
-0.03
-4.49
-9.40
-13.66
-16.45
-17.28
-16.20
-13.67
-10.33
-6.83
-3.53
-0.42
2.72
6.20
10.10
14.11
17.65
20.14
21.26
21.15
20.34
19.46
18.96
18.89
18.95
18.72
17.95
16.66
15.07
13.52
12.22
11.19
10.24
9.14
7.65
5.71
3.44
1.08
-1.11
-2.95
-4.43
-5.74
-7.18
-9.02
-11.41
-14.33
-17.59
-20.93
-24.14
-27.00
-29.37
-31.08
-31.93
-31.72
-30.27
-27.51
-23.48
-18.33
-12.32
-5.72
1.12
7.81
13.92
19.08
23.02
25.69
27.32
28.28
28.97
29.57
30.01
30.03
29.31
27.68
25.29
22.48
19.65
17.10
14.84
12.61
10.03
6.77
2.72
-1.86
-6.50
-10.62
-13.79
-15.88
-17.16
-18.18
-19.65
-22.05
-25.54
-29.79
-34.10
-37.64
-39.69
-39.88
-38.28
-35.20
-31.05
-26.05
-20.27
-13.67
-6.35
1.35
8.85
15.51
20.83
24.63
27.03
28.33
28.90
28.97
28.69
28.15
27.55
27.12
27.07
27.47
28.12
28.67
28.73
28.08
26.78
25.06
23.20
21.33
19.39
17.11
14.21
10.52
6.04
0.88
-4.74
-10.65
-16.72
-22.88
-29.06
-35.19
-41.12
-46.63
-51.47
-55.40
-58.21
-59.74
-59.85
-58.46
-55.52
-51.11
-45.49
-39.11
-32.42
-25.81
-19.41
-13.20
-7.04
-0.95
4.85
9.92
13.83
16.37
17.62
17.99
18.05
18.28
18.90
19.83
20.75
21.34
21.42
21.06
20.56
20.27
20.42
20.81
20.98
20.25
18.18
14.85
10.91
7.31
4.91
3.93
3.89
3.70
2.21
-1.50
-7.73
-16.15
-25.90
-35.69
-43.83
-48.40
-47.79
-41.33
-29.87
-15.73
-1.94
8.98
16.02
19.86
22.23
24.75
28.09
31.84
35.10
37.23
38.29
38.87
39.50
40.20
40.41
39.42
36.87
33.02
28.59
24.44
21.24
19.15
17.92
16.95
15.58
13.32
10.09
6.21
2.34
-0.82
-2.86
-3.86
-4.34
-5.10
-6.78
-9.72
-13.78
-18.47
-23.16
-27.30
-30.52
-32.69
-33.79
-33.90
-33.06
-31.24
-28.35
-24.35
-19.30
-13.41
-7.06
-0.71
5.19
10.27
14.32
17.31
19.38
20.79
21.78
22.56
23.15
23.50
23.52
23.24
22.77
22.24
21.72
21.08
20.09
18.52
16.30
13.62
10.80
8.13
5.81
3.83
2.07
0.39
-1.28
-2.96
-4.71
-6.68
-9.09
-12.19
-16.02
-20.35
-24.65
-28.26
-30.55
-31.13
-29.97
-27.40
-23.90
-19.98
-15.95
-11.91
-7.82
-3.58
0.86
5.35
9.65
13.50
16.70
19.23
21.15
22.60
23.68
24.41
24.76
24.65
24.10
23.16
21.94
20.53
18.96
17.20
15.19
12.88
10.32
7.66
5.09
2.75
0.69
-1.18
-3.07
-5.19
-7.69
-10.56
-13.72
-17.01
-20.30
-23.57
-26.87
-30.20
-33.44
-36.19
-37.93
-38.17
-36.71
-33.72
-29.74
-25.40
-21.16
-17.13
-13.12
-8.77
-3.94
1.25
6.39
10.96
14.56
17.04
18.59
19.58
20.40
21.30
22.25
23.05
23.43
23.24
22.47
21.24
19.76
18.17
16.53
14.87
13.18
11.45
9.71
8.01
6.34
4.69
2.96
1.07
-1.04
-3.32
-5.66
-7.96
-10.19
-12.52
-15.23
-18.59
-22.60
-26.92
-30.89
-33.78
-35.09
-34.69
-32.86
-29.97
-26.44
-22.42
-17.94
-13.01
-7.72
-2.29
2.95
7.69
11.77
15.14
17.88
20.10
21.84
23.08
23.75
23.85
23.45
22.78
22.05
21.43
20.87
20.20
19.18
17.65
15.67
13.49
11.40
9.61
8.14
6.78
5.22
3.21
0.65
-2.33
-5.43
-8.31
-10.75
-12.76
-14.56
-16.49
-18.86
-21.81
-25.22
-28.70
-31.78
-33.99
-35.08
-34.99
-33.75
-31.47
-28.20
-24.00
-19.03
-13.61
-8.18
-3.18
1.12
4.65
7.53
9.95
12.02
13.71
14.93
15.61
15.87
15.90
15.90
15.98
16.12
16.18
15.98
15.42
14.52
13.41
12.26
11.21
10.28
9.35
8.20
6.61
4.46
1.86
-0.95
-3.68
-6.17
-8.42
-10.59
-12.91
-15.55
-18.54
-21.84
-25.31
-28.75
-31.95
-34.62
-36.39
-36.89
-35.88
-33.31
-29.41
-24.57
-19.21
-13.68
-8.14
-2.66
2.71
7.81
12.41
16.23
19.08
20.96
22.01
22.49
22.68
22.70
22.56
22.20
21.55
20.61
19.47
18.26
17.12
16.10
15.20
14.34
13.40
12.29
10.90
9.19
7.15
4.80
2.24
-0.42
-3.13
-5.89
-8.78
-11.90
-15.28
-18.86
-22.41
-25.66
-28.35
-30.29
-31.43
-31.72
-31.13
-29.56
-26.95
-23.27
-18.62
-13.21
-7.33
-1.32
4.51
9.84
14.38
17.89
20.22
21.34
21.46
20.95
20.28
19.82
19.76
20.07
20.49
20.74
20.61
20.05
19.13
17.92
16.43
14.59
12.37
9.81
7.11
4.51
2.24
0.32
-1.42
-3.24
-5.32
-7.74
-10.43
-13.28
-16.16
-18.97
-21.62
-23.92
-25.63
-26.51
-26.39
-25.20
-23.01
-19.91
-16.02
-11.44
-6.30
-0.79
4.78
10.07
14.76
18.61
21.57
23.74
25.32
26.50
27.40
28.06
28.42
28.48
28.20
27.57
26.64
25.46
24.12
22.64
21.07
19.39
17.61
15.73
13.78
11.81
9.86
7.94
5.98
3.90
1.57
-1.13
-4.32
-8.10
-12.47
-17.32
-22.37
-27.20
-31.35
-34.43
-36.22
-36.66
-35.87
-33.98
-31.21
-27.72
-23.71
-19.32
-14.66
-9.81
-4.84
0.12
4.88
9.17
12.75
15.49
17.40
18.61
19.31
19.62
19.62
19.30
18.61
17.55
16.19
14.60
12.89
11.14
9.38
7.59
5.72
3.65
1.26
-1.47
-4.45
-7.42
-10.05
-12.11
-13.60
-14.81
-16.21
-18.24
-21.12
-24.64
-28.36
-31.66
-34.04
-35.25
-35.31
-34.42
-32.83
-30.68
-27.97
-24.62
-20.51
-15.60
-9.98
-3.94
2.06
7.52
12.03
15.34
17.50
18.80
19.67
20.47
21.44
22.59
23.76
24.72
25.24
25.23
24.69
23.69
22.28
20.55
18.55
16.34
14.02
11.63
9.24
6.87
4.50
2.16
-0.11
-2.26
-4.27
-6.25
-8.39
-10.93
-14.06
-17.80
-21.94
-26.10
-29.77
-32.55
-34.18
-34.64
-34.10
-32.79
-30.91
-28.52
-25.60
-22.03
-17.80
-12.98
-7.84
-2.66
2.21
6.52
10.16
13.11
15.42
17.15
18.35
19.07
19.38
19.40
19.28
19.18
19.15
19.17
19.11
18.90
18.50
17.90
17.11
15.98
14.31
11.89
8.70
4.95
1.07
-2.49
-5.49
-7.98
-10.21
-12.47
-14.96
-17.65
-20.37
-22.89
-24.98
-26.46
-27.17
-26.99
-25.79
-23.53
-20.28
-16.18
-11.48
-6.47
-1.46
3.30
7.68
11.66
15.31
18.70
21.84
24.57
26.64
27.74
27.70
26.54
24.56
22.23
20.00
18.19
16.84
15.78
14.77
13.64
12.38
11.11
9.98
8.94
7.84
6.40
4.46
2.03
-0.66
-3.33
-5.75
-7.90
-9.95
-12.16
-14.75
-17.78
-21.09
-24.41
-27.29
-29.30
-30.12
-29.61
-27.86
-25.13
-21.75
-17.94
-13.80
-9.29
-4.39
0.86
6.27
11.61
16.63
21.11
24.83
27.60
29.27
29.77
29.24
28.03
26.63
25.41
24.49
23.69
22.61
20.95
18.65
15.98
13.37
11.18
9.47
8.01
6.42
4.41
1.93
-0.82
-3.60
-6.27
-8.91
-11.76
-15.04
-18.86
-23.12
-27.59
-31.99
-36.08
-39.62
-42.33
-43.90
-44.03
-42.51
-39.37
-34.82
-29.17
-22.78
-15.95
-8.88
-1.79
5.13
11.61
17.39
22.20
25.93
28.54
30.14
30.96
31.22
31.19
31.01
30.74
30.33
29.71
28.78
27.50
25.92
24.11
22.16
20.17
18.23
16.29
14.26
11.96
9.32
6.35
3.23
0.20
-2.61
-5.20
-7.82
-10.77
-14.28
-18.38
-22.88
-27.45
-31.81
-35.70
-38.97
-41.49
-43.07
-43.54
-42.72
-40.57
-37.27
-33.16
-28.65
-24.00
-19.22
-14.09
-8.32
-1.78
5.31
12.48
19.08
24.58
28.75
31.63
33.45
34.47
34.88
34.79
34.25
33.33
32.11
30.68
29.10
27.41
25.59
23.56
21.17
18.35
15.08
11.51
7.93
4.63
1.79
-0.58
-2.66
-4.74
-7.07
-9.81
-12.96
-16.39
-19.95
-23.49
-26.86
-29.95
-32.57
-34.46
-35.29
-34.79
-32.82
-29.56
-25.35
-20.67
-15.86
-11.04
-6.20
-1.25
3.74
8.56
12.84
16.31
18.88
20.74
22.21
23.58
24.93
26.19
27.13
27.53
27.31
26.55
25.41
24.07
22.61
20.97
18.97
16.47
13.46
10.15
6.81
3.76
1.10
-1.27
-3.65
-6.35
-9.56
-13.25
-17.20
-21.16
-25.03
-28.78
-32.43
-35.87
-38.80
-40.72
-41.16
-39.80
-36.61
-31.87
-25.95
-19.29
-12.23
-5.02
2.13
8.91
15.00
20.05
23.88
26.49
28.04
28.82
29.09
29.03
28.70
28.13
27.33
26.31
25.13
23.86
22.62
21.50
20.54
19.62
18.51
16.87
14.45
11.27
7.64
4.07
0.96
-1.50
-3.52
-5.52
-7.93
-11.05
-14.89
-19.21
-23.63
-27.72
-31.02
-33.20
-34.02
-33.41
-31.44
-28.23
-23.99
-18.96
-13.42
-7.63
-1.86
3.69
8.90
13.70
18.02
21.70
24.60
26.61
27.76
28.21
28.24
28.10
27.96
27.84
27.66
27.29
26.65
25.70
24.53
23.20
21.75
20.08
18.02
15.34
12.01
8.20
4.33
0.89
-1.80
-3.73
-5.26
-6.88
-9.06
-12.07
-15.85
-20.12
-24.36
-28.08
-30.88
-32.50
-32.88
-32.10
-30.39
-27.94
-24.93
-21.41
-17.46
-13.15
-8.59
-3.90
0.78
5.30
9.50
13.18
16.19
18.37
19.67
20.11
19.83
19.03
17.97
16.88
15.90
15.04
14.16
13.07
11.65
9.95
8.13
6.40
4.84
3.37
1.75
-0.19
-2.46
-4.93
-7.39
-9.70
-11.89
-14.15
-16.68
-19.56
-22.76
-26.12
-29.44
-32.58
-35.42
-37.77
-39.39
-39.98
-39.29
-37.31
-34.21
-30.41
-26.34
-22.35
-18.51
-14.67
-10.62
-6.21
-1.60
2.88
6.78
9.78
11.78
12.96
13.57
13.91
14.18
14.44
14.73
15.00
15.24
15.40
15.43
15.27
14.90
14.31
13.46
12.31
10.80
8.85
6.46
3.71
0.82
-1.97
-4.48
-6.70
-8.76
-10.89
-13.28
-16.00
-18.96
-21.97
-24.86
-27.48
-29.69
-31.28
-31.97
-31.45
-29.56
-26.41
-22.38
-17.94
-13.45
-8.98
-4.38
0.53
5.78
11.06
15.89
19.83
22.63
24.31
25.10
25.27
25.05
24.61
24.05
23.49
22.98
22.54
22.09
21.50
20.64
19.40
17.77
15.73
13.37
10.79
8.18
5.74
3.67
2.02
0.67
-0.62
-2.14
-4.07
-6.51
-9.37
-12.47
-15.57
-18.41
-20.75
-22.40
-23.21
-23.13
-22.11
-20.14
-17.24
-13.42
-8.79
-3.49
2.27
8.25
14.16
19.69
24.53
28.39
31.08
32.58
33.07
32.82
32.14
31.22
30.12
28.80
27.21
25.34
23.31
21.29
19.44
17.82
16.32
14.72
12.82
10.47
7.72
4.77
1.81
-1.04
-3.77
-6.55
-9.52
-12.80
-16.38
-20.19
-24.11
-27.98
-31.65
-34.89
-37.44
-38.98
-39.19
-37.89
-35.08
-31.01
-26.14
-20.97
-15.91
-11.11
-6.48
-1.81
3.09
8.17
13.16
17.64
21.26
23.85
25.50
26.44
26.95
27.25
27.41
27.44
27.30
27.00
26.63
26.33
26.24
26.38
26.63
26.70
26.26
25.13
23.41
21.52
19.97
19.15
19.06
19.30
19.22
18.24
16.14
13.12
9.77
6.81
4.83
4.22
5.04
7.11
9.99
13.00
15.30
16.04
14.73
11.45
6.95
2.42
-0.98
-2.56
-2.43
-1.42
-0.77
-1.59
-4.56
-9.73
-16.65
-24.55
-32.58
-40.01
-46.27
-50.94
-53.78
-54.65
-53.51
-50.48
-45.86
-40.18
-34.15
-28.55
-24.07
-21.22
-20.14
-20.55
-21.86
-23.36
-24.59
-25.70
-27.50
-31.24
-37.94
-47.83
-59.98
-72.50
-83.27
-90.83
-94.98
-96.77
-98.03
-100.48
-105.06
-111.70
-119.48
-127.02
-133.03
-136.64
-137.48
-135.63
-131.28
-124.37
-114.47
-100.71
-81.92
-56.94
-24.91
14.33
59.76
108.94
158.01
202.13
236.57
258.02
265.65
261.38
249.16
233.53
218.10
204.65
193.15
182.56
171.72
159.96
147.24
133.84
120.04
106.01
91.85
77.84
64.55
52.70
42.82
35.01
28.74
23.01
16.84
9.74
2.00
-5.46
-11.66
-16.07
-18.96
-21.19
-23.78
-27.35
-31.87
-36.79
-41.47
-45.56
-49.23
-53.02
-57.58
-63.12
-69.30
-75.18
-79.64
-81.71
-81.02
-77.78
-72.53
-65.77
-57.56
-47.55
-35.29
-20.66
-4.30
12.44
27.83
40.38
49.34
54.96
58.37
61.16
64.83
70.50
78.70
89.10
100.33
109.88
114.43
110.83
97.51
75.56
48.82
22.72
2.06
-11.04
-17.92
-22.62
-29.98
-43.56
-64.70
-92.91
-126.90
-165.41
-207.09
-249.71
-289.65
-322.31
-343.62
-351.71
-348.01
-336.75
-323.30
-311.98
-304.62
-300.23
-295.73
-287.39
-272.09
-248.14
-215.57
-176.05
-132.48
-88.43
-47.45
-12.54
14.06
30.90
37.31
33.41
20.48
1.39
-19.43
-36.55
-44.88
-41.27
-25.51
-0.27
30.21
61.89
92.18
120.26
146.19
169.84
190.25
205.86
215.29
218.11
215.07
207.59
197.12
184.70
170.90
156.17
141.09
126.35
112.68
100.77
91.14
84.17
79.94
78.01
77.33
76.64
74.61
70.50
64.28
56.55
48.28
40.49
33.96
29.11
25.97
24.03
22.47
20.30
16.69
11.22
4.23
-3.30
-9.89
-14.09
-14.91
-12.12
-6.25
1.61
10.15
18.18
24.84
29.78
33.20
35.68
37.90
40.39
43.22
46.18
49.01
51.90
55.60
61.15
69.14
78.98
88.39
94.03
92.64
82.72
65.72
46.05
29.88
22.86
28.07
44.69
68.46
93.45
114.28
127.94
134.22
134.94
132.48
128.60
123.84
117.71
109.26
97.55
81.75
61.05
34.56
1.49
-38.28
-83.33
-130.36
-174.32
-209.54
-231.25
-237.19
-228.30
-208.32
-182.57
-156.23
-133.05
-114.80
-101.56
-92.01
-84.42
-76.77
-67.33
-54.99
-39.55
-21.76
-2.92
15.55
32.49
47.19
59.41
69.11
76.30
80.75
82.01
79.47
72.70
61.80
47.78
32.53
18.36
7.29
0.32
-2.83
-3.37
-2.74
-1.93
-1.13
0.00
1.76
3.96
5.99
7.00
6.51
4.73
2.52
0.95
0.77
2.04
4.05
5.70
5.97
4.40
1.31
-2.29
-5.07
-5.88
-4.19
-0.42
4.15
7.82
9.05
7.11
2.28
-4.31
-11.16
-17.01
-21.20
-23.71
-24.89
-25.22
-25.11
-24.91
-24.99
-25.64
-27.07
-29.24
-31.79
-34.21
-35.98
-36.78
-36.61
-35.67
-34.24
-32.45
-30.28
-27.66
-24.71
-21.86
-19.81
-19.21
-20.31
-22.65
-25.11
-26.27
-24.87
-20.33
-12.84
-3.16
7.74
19.11
30.49
41.70
52.55
62.68
71.41
77.94
81.68
82.50
80.77
77.10
72.01
65.55
57.43
47.27
35.11
21.64
8.00
-4.78
-16.35
-27.26
-38.63
-51.38
-65.57
-80.15
-93.35
-103.38
-109.06
-110.16
-107.21
-101.20
-93.11
-83.63
-73.09
-61.56
-49.04
-35.73
-22.22
-9.52
1.19
8.95
13.36
14.75
13.89
11.66
8.70
5.24
1.31
-3.01
-7.54
-11.98
-16.17
-20.25
-24.52
-29.13
-33.76
-37.35
-38.54
-36.21
-30.17
-21.39
-11.82
-3.62
1.65
3.64
3.13
1.50
0.05
-0.38
0.58
3.07
7.24
13.26
21.17
30.58
40.69
50.37
58.48
64.18
67.17
67.81
66.89
65.40
64.09
63.26
62.58
61.42
59.13
55.46
50.77
45.80
41.28
37.71
35.09
33.11
31.31
29.37
27.20
25.04
23.14
21.55
20.00
17.95
14.86
10.49
5.13
-0.46
-5.26
-8.34
-9.09
-7.44
-3.75
1.22
6.47
10.85
13.23
12.84
9.64
4.65
-0.18
-2.46
-0.20
7.33
19.27
33.60
48.04
60.98
71.93
81.22
89.26
95.93
100.42
101.70
99.17
93.27
85.33
77.20
70.50
66.22
64.51
64.82
66.30
67.88
68.78
68.52
67.03
64.70
62.30
60.77
60.93
63.03
66.28
69.00
69.05
64.80
56.03
44.12
31.43
20.06
10.55
1.44
-9.99
-26.24
-47.96
-73.35
-98.84
-120.58
-135.99
-144.53
-147.51
-147.11
-145.35
-143.52
-142.04
-140.87
-139.66
-137.73
-134.13
-127.87
-118.60
-107.43
-97.13
-91.16
-92.19
-100.43
-113.29
-126.43
-135.85
-139.55
-137.82
-131.87
-122.04
-107.15
-85.90
-59.30
-32.20
-12.26
-6.48
-16.99
-38.98
-62.07
-74.90
-70.22
-47.72
-13.37
23.85
55.79
77.49
87.53
86.91
77.78
62.82
45.05
27.59
13.08
3.20
-1.72
-2.70
-1.68
-1.07
-2.92
-8.63
-18.32
-30.82
-44.16
-56.44
-66.56
-74.41
-80.48
-85.19
-88.50
-89.83
-88.45
-83.66
-74.76
-60.84
-41.01
-15.29
14.52
44.58
70.20
87.88
97.06
100.41
102.35
106.64
114.43
123.89
131.71
135.09
133.29
127.64
120.72
114.49
109.38
104.59
98.90
91.86
84.24
77.60
73.35
71.79
71.75
71.13
67.89
61.02
50.84
38.70
26.22
14.45
3.57
-7.04
-18.30
-31.02
-45.49
-61.37
-77.73
-93.05
-105.50
-113.33
-115.46
-111.91
-103.98
-93.83
-83.85
-75.80
-70.30
-66.83
-64.00
-60.31
-54.65
-46.62
-36.31
-24.04
-10.07
5.45
22.21
39.57
56.55
72.18
86.01
98.23
109.33
119.27
126.88
129.96
126.27
114.89
97.20
76.72
57.91
44.52
38.36
39.12
45.10
54.12
64.30
74.07
81.96
86.41
86.07
80.36
69.91
56.55
42.70
30.47
20.86
13.41
6.45
-2.04
-13.51
-28.15
-44.67
-60.77
-73.97
-82.48
-85.77
-84.56
-80.37
-74.84
-69.20
-64.18
-60.08
-57.00
-54.88
-53.43
-52.09
-50.22
-47.34
-43.45
-39.12
-35.26
-32.75
-32.07
-33.09
-35.16
-37.34
-38.77
-38.84
-37.40
-34.78
-31.64
-28.75
-26.75
-25.87
-25.95
-26.63
-27.52
-28.48
-29.57
-31.06
-33.21
-36.29
-40.38
-45.39
-50.90
-56.14
-60.06
-61.63
-60.10
-55.38
-47.99
-39.00
-29.65
-21.04
-13.89
-8.53
-4.95
-2.90
-2.05
-2.03
-2.41
-2.77
-2.80
-2.38
-1.70
-1.25
-1.72
-3.60
-6.93
-11.14
-15.25
-18.21
-19.41
-18.91
-17.41
-15.84
-14.93
-14.86
-15.24
-15.25
-13.79
-9.74
-2.13
9.46
24.41
40.69
55.19
64.47
66.10
59.78
47.74
33.97
22.81
17.29
18.23
24.45
33.60
43.31
51.82
57.99
61.08
60.56
56.19
48.36
38.31
27.85
18.83
12.41
8.72
6.92
5.82
4.38
2.26
-0.29
-2.73
-4.51
-5.35
-5.25
-4.38
-3.10
-1.88
-1.31
-2.00
-4.34
-8.27
-13.24
-18.28
-22.53
-25.51
-27.34
-28.66
-30.33
-33.01
-36.95
-41.92
-47.26
-52.16
-55.69
-57.07
-55.80
-51.78
-45.42
-37.47
-28.83
-20.30
-12.42
-5.47
0.40
5.10
8.60
10.98
12.56
13.86
15.54
18.20
22.18
27.41
33.40
39.33
44.18
46.98
47.10
44.38
39.32
32.88
26.33
20.79
17.00
15.16
14.99
15.95
17.43
18.84
19.63
19.33
17.62
14.44
9.97
4.62
-1.20
-7.22
-13.31
-19.33
-24.99
-29.73
-32.93
-34.14
-33.32
-30.82
-27.23
-23.01
-18.42
-13.49
-8.20
-2.72
2.57
7.16
10.61
12.68
13.42
13.01
11.74
9.91
7.79
5.63
3.64
1.85
0.20
-1.47
-3.27
-5.15
-6.82
-7.79
-7.50
-5.57
-1.96
2.92
8.26
13.05
16.36
17.57
16.62
13.91
10.24
6.45
3.18
0.70
-1.13
-2.71
-4.47
-6.63
-9.09
-11.46
-13.24
-13.99
-13.49
-11.81
-9.14
-5.71
-1.74
2.62
7.13
11.47
15.23
18.08
19.93
20.94
21.45
21.83
22.22
22.51
22.39
21.56
19.94
17.69
15.25
12.99
11.11
9.54
7.97
6.08
3.71
0.89
-2.12
-4.94
-7.32
-9.14
-10.50
-11.70
-13.06
-14.83
-17.12
-19.86
-22.91
-26.16
-29.51
-32.88
-36.07
-38.66
-40.06
-39.68
-37.25
-32.96
-27.52
-21.87
-16.80
-12.63
-9.09
-5.60
-1.60
3.09
8.11
12.77
16.42
18.83
20.24
21.30
22.54
24.14
25.78
26.88
27.01
26.17
24.83
23.72
23.44
24.14
25.46
26.78
27.43
26.94
25.18
22.27
18.52
14.26
9.84
5.53
1.49
-2.21
-5.57
-8.66
-11.62
-14.65
-17.97
-21.76
-25.96
-30.18
-33.71
-35.72
-35.51
-32.83
-28.07
-22.08
-15.86
-10.18
-5.29
-0.98
3.15
7.33
11.41
14.90
17.29
18.40
18.49
18.20
18.08
18.44
19.09
19.60
19.56
18.79
17.45
15.92
14.54
13.47
12.70
12.08
11.43
10.60
9.50
8.05
6.18
3.83
1.02
-2.18
-5.58
-8.93
-12.04
-14.90
-17.62
-20.46
-23.67
-27.29
-31.09
-34.52
-36.84
-37.38
-35.80
-32.23
-27.25
-21.67
-16.19
-11.17
-6.56
-2.02
2.74
7.76
12.80
17.39
21.09
23.59
24.82
24.90
24.04
22.61
21.04
19.78
19.25
19.61
20.71
22.14
23.31
23.69
22.98
21.24
18.78
16.07
13.54
11.46
9.89
8.74
7.90
7.21
6.45
5.32
3.41
0.28
-4.29
-10.12
-16.52
-22.49
-27.12
-29.99
-31.46
-32.59
-34.71
-38.65
-44.29
-50.38
-54.91
-56.00
-52.77
-45.85
-37.31
-29.96
-26.24
-27.22
-32.18
-38.82
-44.20
-45.99
-43.46
-37.89
-32.11
-29.42
-32.27
-41.23
-54.30
-67.08
-73.33
-66.50
-41.67
2.30
61.31
126.25
185.05
226.47
244.01
238.40
217.33
192.08
173.08
166.04
170.53
181.56
192.96
200.85
205.13
208.63
214.44
223.61
234.38
243.14
246.35
242.41
232.00
217.01
199.22
178.99
155.99
130.47
104.01
78.73
56.45
37.48
20.30
2.61
-18.65
-45.35
-77.43
-113.21
-151.26
-190.10
-228.17
-263.45
-292.68
-314.78
-330.55
-342.52
-354.47
-370.92
-393.55
-419.21
-439.79
-443.63
-424.46
-382.42
-323.17
-255.11
-187.34
-125.81
-72.77
-28.57
8.25
33.55
42.36
33.48
23.32
29.90
64.09
122.00
179.56
230.70
271.51
299.82
316.93
323.46
318.57
300.97
269.71
224.32
174.21
127.28
90.19
65.90
53.61
49.99
51.81
57.18
55.51
51.00
45.40
39.14
32.34
24.92
15.35
0.20
-14.99
-30.03
-43.00
-55.22
-68.27
-82.86
-98.57
-114.58
-130.14
-144.67
-159.44
-174.30
-191.80
-214.94
-245.15
-280.39
-314.30
-337.30
-339.09
-313.93
-260.10
-182.63
-90.86
4.52
94.25
172.32
236.47
287.54
326.71
355.98
376.48
388.16
390.35
382.59
365.55
341.34
313.35
283.94
256.16
233.64
220.18
218.24
227.14
242.49
257.07
263.64
254.83
228.54
188.73
143.47
100.84
65.98
40.76
24.98
17.21
9.63
-4.89
-30.03
-65.37
-108.67
-158.01
-211.85
-268.03
-323.86
-385.32
-455.94
-532.78
-606.69
-667.68
-709.85
-732.08
-736.57
-727.65
-722.03
-733.24
-765.60
-814.19
-871.71
-933.88
-999.38
-1067.03
-1062.08
-941.99
-717.18
-446.13
-190.79
15.10
166.07
271.97
347.54
405.26
441.39
450.66
434.01
400.89
364.03
333.35
312.08
301.83
300.93
297.46
282.00
252.93
216.55
181.27
152.67
132.22
119.01
110.78
99.87
81.05
54.41
25.29
-1.14
-21.31
-34.31
-40.72
-42.10
-42.65
-45.41
-50.77
-56.68
-60.51
-60.50
-56.27
-48.20
-37.23
-25.25
-13.74
-3.26
6.47
15.86
25.01
33.49
40.72
46.03
49.01
49.51
47.67
43.81
38.34
31.78
24.65
17.44
10.55
4.35
-0.84
-4.80
-7.44
-8.83
-9.12
-8.56
-7.37
-5.75
-3.76
-1.35
1.56
5.00
8.87
12.96
17.02
20.83
24.39
27.92
31.85
36.60
42.45
49.33
56.83
64.44
71.68
78.45
85.09
92.26
100.73
111.00
123.05
136.39
150.28
164.03
177.32
190.28
203.43
217.57
233.54
252.14
273.69
297.57
321.85
343.26
357.92
362.47
355.35
337.39
311.54
281.69
251.30
222.56
196.13
171.80
149.20
128.34
109.60
93.38
79.76
68.38
58.65
50.05
42.36
35.69
30.42
26.86
24.92
24.05
23.25
21.45
17.91
12.55
6.01
-0.62
-6.21
-10.12
-12.39
-13.61
-14.57
-15.88
-17.66
-19.64
-21.36
-22.48
-22.97
-23.13
-23.36
-24.00
-25.15
-26.66
-28.29
-29.82
-31.24
-32.68
-34.40
-36.57
-39.20
-42.07
-44.85
-47.25
-49.08
-50.25
-50.73
-50.39
-49.06
-46.55
-42.79
-37.96
-32.48
-26.85
-21.53
-16.71
-12.35
-8.19
-3.98
0.43
5.03
9.62
13.93
17.71
20.79
23.07
24.45
24.81
24.04
22.09
19.09
15.33
11.26
7.29
3.76
0.74
-1.82
-4.08
-6.24
-8.41
-10.65
-12.99
-15.45
-18.05
-20.84
-23.88
-27.17
-30.63
-34.02
-36.97
-39.11
-40.11
-39.82
-38.36
-36.00
-33.02
-29.62
-25.87
-21.72
-17.17
-12.37
-7.62
-3.38
-0.07
2.12
3.28
3.77
4.04
4.39
4.90
5.42
5.73
5.65
5.15
4.35
3.39
2.47
1.65
1.00
0.63
0.60
0.97
1.70
2.62
3.44
3.85
3.61
2.65
1.09
-0.83
-2.82
-4.76
-6.68
-8.81
-11.40
-14.55
-18.10
-21.57
-24.32
-25.76
-25.60
-23.90
-21.08
-17.67
-14.14
-10.76
-7.57
-4.56
-1.71
0.88
2.94
4.27
4.78
4.62
4.12
3.66
3.49
3.66
3.98
4.15
3.92
3.28
2.44
1.72
1.35
1.36
1.50
1.44
0.88
-0.25
-1.84
-3.65
-5.49
-7.29
-9.05
-10.84
-12.69
-14.55
-16.38
-18.15
-19.90
-21.60
-23.15
-24.30
-24.70
-24.01
-22.09
-19.03
-15.19
-11.07
-7.16
-3.76
-0.98
1.30
3.27
5.07
6.68
7.92
8.54
8.44
7.69
6.61
5.56
4.80
4.36
4.09
3.71
3.09
2.27
1.41
0.71
0.27
0.01
-0.28
-0.77
-1.58
-2.66
-3.88
-5.11
-6.28
-7.44
-8.76
-10.42
-12.52
-15.04
-17.74
-20.31
-22.48
-24.07
-25.09
-25.59
-25.55
-24.86
-23.36
-20.91
-17.60
-13.68
-9.52
-5.46
-1.70
1.74
4.87
7.59
9.72
11.08
11.55
11.25
10.46
9.53
8.76
8.27
8.07
8.07
8.16
8.22
8.19
7.98
7.56
6.97
6.28
5.53
4.67
3.59
2.22
0.54
-1.27
-2.96
-4.39
-5.57
-6.76
-8.28
-10.35
-12.94
-15.77
-18.48
-20.69
-22.19
-22.87
-22.66
-21.54
-19.50
-16.60
-13.01
-9.00
-4.93
-1.13
2.22
5.07
7.44
9.39
10.94
12.04
12.61
12.60
12.08
11.25
10.40
9.77
9.49
9.46
9.42
9.04
8.13
6.73
5.11
3.65
2.61
2.01
1.62
1.06
0.09
-1.35
-3.04
-4.64
-5.87
-6.71
-7.32
-8.02
-9.07
-10.56
-12.47
-14.63
-16.88
-19.12
-21.16
-22.80
-23.79
-23.90
-22.94
-20.92
-17.99
-14.46
-10.64
-6.79
-3.05
0.51
3.85
6.85
9.35
11.24
12.55
13.45
14.25
15.22
16.47
17.91
19.30
20.41
21.14
21.58
21.94
22.42
23.09
23.91
24.71
25.23
25.10
23.89
21.17
16.72
10.69
3.75
-3.09
-8.74
-12.45
-14.14
-14.34
-13.98
-13.91
-14.61
-16.04
-17.84
-19.58
-21.00
-22.01
-22.54
-22.49
-21.60
-19.65
-16.56
-12.52
-8.00
-3.51
0.51
3.88
6.64
8.90
10.76
12.21
13.17
13.59
13.58
13.35
13.16
13.24
13.69
14.42
15.23
15.86
16.14
15.99
15.40
14.47
13.23
11.68
9.78
7.47
4.84
2.11
-0.41
-2.45
-3.94
-5.08
-6.27
-7.91
-10.19
-12.99
-15.93
-18.45
-20.12
-20.70
-20.22
-18.88
-16.86
-14.28
-11.17
-7.53
-3.50
0.64
4.48
7.65
9.96
11.45
12.31
12.79
12.97
12.79
12.11
10.85
9.17
7.41
6.04
5.45
5.75
6.76
8.05
9.12
9.67
9.67
9.37
9.15
9.28
9.75
10.21
10.18
9.21
7.15
4.19
0.78
-2.56
-5.46
-7.87
-9.93
-11.94
-14.14
-16.55
-18.95
-20.89
-21.85
-21.43
-19.49
-16.14
-11.70
-6.63
-1.39
3.57
7.88
11.25
13.61
15.07
16.02
16.93
18.25
20.22
22.80
25.65
28.32
30.38
31.54
31.77
31.16
29.89
28.14
26.02
23.58
20.88
17.99
15.07
12.30
9.79
7.52
5.33
3.07
0.69
-1.70
-3.90
-5.74
-7.22
-8.59
-10.23
-12.44
-15.30
-18.58
-21.89
-24.85
-27.22
-28.90
-29.92
-30.24
-29.71
-28.13
-25.38
-21.52
-16.84
-11.75
-6.66
-1.81
2.75
7.14
11.50
15.90
20.19
24.05
27.03
28.76
29.11
28.38
27.25
26.60
27.14
29.07
32.00
35.07
37.38
38.41
38.09
36.85
35.21
33.51
31.81
29.94
27.73
25.12
22.14
18.80
15.03
10.71
5.80
0.51
-4.67
-9.16
-12.51
-14.70
-16.17
-17.65
-19.85
-23.13
-27.32
-31.80
-35.82
-38.82
-40.62
-41.45
-41.72
-41.71
-41.34
-40.22
-37.96
-34.48
-30.19
-26.01
-23.03
-22.12
-23.60
-27.19
-32.00
-36.95
-40.95
-43.16
-43.16
-40.94
-36.97
-31.93
-26.57
-21.41
-16.74
-12.55
-8.75
-5.27
-2.05
0.87
3.44
5.64
7.40
8.59
9.10
8.90
8.18
7.25
6.41
5.83
5.39
4.71
3.44
1.43
-1.07
-3.50
-5.12
-5.38
-4.04
-1.28
2.40
6.43
10.32
13.72
16.40
18.16
18.82
18.34
16.85
14.76
12.67
11.11
10.33
10.23
10.51
10.86
11.22
11.79
12.86
14.64
17.05
19.75
22.23
23.96
24.62
24.08
22.54
20.32
17.82
15.31
12.93
10.65
8.46
6.53
5.23
4.95
5.80
7.33
8.57
8.36
5.87
0.98
-5.61
-12.69
-18.97
-23.56
-26.09
-26.73
-25.92
-24.18
-21.97
-19.58
-17.21
-15.01
-13.13
-11.66
-10.60
-9.81
-9.07
-8.12
-6.87
-5.45
-4.21
-3.57
-3.71
-4.50
-5.52
-6.28
-6.43
-5.99
-5.31
-4.94
-5.39
-6.88
-9.40
-12.59
-15.99
-19.16
-21.88
-24.23
-26.52
-29.06
-32.05
-35.44
-38.92
-42.11
-44.77
-46.86
-48.57
-50.20
-52.00
-54.07
-56.38
-58.78
-61.02
-62.78
-63.61
-62.99
-60.42
-55.63
-48.66
-40.00
-30.35
-20.45
-10.85
-1.72
6.97
15.26
22.96
29.65
34.85
38.34
40.30
41.41
42.50
44.26
46.97
50.38
53.89
56.90
59.04
60.24
60.66
60.50
59.83
58.46
56.07
52.34
47.14
40.66
33.33
25.70
18.25
11.36
5.28
0.17
-3.82
-6.65
-8.41
-9.42
-10.13
-11.02
-12.26
-13.78
-15.19
-15.99
-15.77
-14.29
-11.53
-7.65
-2.99
1.99
6.80
10.96
14.20
16.41
17.75
18.44
18.62
18.24
17.19
15.35
12.89
10.28
8.11
6.83
6.60
7.22
8.33
9.63
10.98
12.39
13.87
15.24
16.12
16.11
15.00
12.93
10.36
7.84
5.78
4.24
2.99
1.60
-0.27
-2.73
-5.62
-8.57
-11.20
-13.19
-14.36
-14.69
-14.25
-13.19
-11.69
-9.91
-7.97
-6.00
-4.09
-2.32
-0.80
0.43
1.36
2.08
2.68
3.28
3.93
4.62
5.25
5.78
6.22
6.61
7.07
7.59
8.18
8.80
9.40
10.02
10.67
11.32
11.82
11.94
11.42
10.08
7.91
5.11
2.02
-1.00
-3.64
-5.76
-7.47
-8.98
-10.60
-12.54
-14.86
-17.42
-20.00
-22.38
-24.38
-25.91
-26.84
-27.00
-26.17
-24.20
-21.10
-17.16
-12.87
-8.76
-5.22
-2.34
0.08
2.43
4.94
7.64
10.26
12.39
13.72
14.21
14.11
13.82
13.73
13.94
14.28
14.41
13.99
12.87
11.14
9.04
6.86
4.76
2.81
0.97
-0.87
-2.74
-4.66
-6.61
-8.57
-10.61
-12.79
-15.18
-17.76
-20.39
-22.85
-24.90
-26.40
-27.44
-28.31
-29.39
-30.99
-33.11
-35.32
-36.90
-37.00
-34.95
-30.61
-24.37
-17.14
-10.00
-3.84
0.87
4.16
6.35
7.82
8.77
9.22
9.14
8.62
8.02
7.81
8.40
9.89
11.98
14.17
16.03
17.43
18.52
19.56
20.68
21.69
22.16
21.67
20.05
17.51
14.56
11.75
9.43
7.62
6.02
4.30
2.23
-0.17
-2.68
-5.07
-7.22
-9.22
-11.22
-13.29
-15.21
-16.54
-16.77
-15.59
-13.05
-9.56
-5.72
-1.98
1.43
4.55
7.53
10.37
12.84
14.59
15.34
15.05
14.03
12.80
11.88
11.58
11.88
12.50
13.07
13.30
13.09
12.53
11.76
10.88
9.88
8.65
7.10
5.27
3.27
1.34
-0.37
-1.81
-3.06
-4.26
-5.52
-6.89
-8.30
-9.71
-11.07
-12.41
-13.89
-15.62
-17.62
-19.78
-21.72
-22.98
-23.13
-21.97
-19.61
-16.46
-13.01
-9.61
-6.41
-3.27
-0.01
3.42
6.89
10.08
12.59
14.18
14.83
14.71
14.11
13.38
12.73
12.29
12.02
11.82
11.59
11.32
11.02
10.80
10.65
10.51
10.23
9.64
8.71
7.52
6.24
4.99
3.77
2.44
0.82
-1.13
-3.29
-5.39
-7.19
-8.58
-9.67
-10.77
-12.20
-14.17
-16.63
-19.23
-21.50
-22.94
-23.26
-22.45
-20.73
-18.43
-15.82
-13.02
-10.00
-6.74
-3.30
0.08
3.09
5.44
7.02
7.95
8.43
8.72
8.92
9.02
8.95
8.65
8.17
7.65
7.23
6.97
6.80
6.54
6.00
5.11
3.92
2.64
1.51
0.65
0.02
-0.58
-1.44
-2.78
-4.55
-6.55
-8.42
-9.87
-10.86
-11.57
-12.35
-13.57
-15.41
-17.79
-20.37
-22.65
-24.16
-24.59
-23.89
-22.24
-19.92
-17.22
-14.31
-11.22
-7.91
-4.34
-0.61
3.10
6.52
9.43
11.77
13.60
15.06
16.30
17.45
18.70
20.39
22.99
26.82
31.79
37.21
42.03
45.20
46.18
45.02
42.26
38.31
33.14
26.21
16.88
5.00
-8.68
-22.56
-34.60
-42.98
-46.61
-45.35
-39.84
-31.20
-20.59
-9.24
1.67
10.81
16.64
17.65
12.82
2.11
-13.14
-30.22
-45.69
-56.23
-59.63
-55.37
-44.68
-30.02
-14.34
-0.20
10.71
17.73
21.11
21.57
20.01
17.27
14.16
11.35
9.44
8.75
9.24
10.48
11.74
12.24
11.53
9.66
7.17
4.91
3.65
3.74
4.99
6.71
8.04
8.28
7.08
4.56
1.16
-2.48
-5.77
-8.27
-9.74
-10.30
-10.27
-10.24
-10.85
-12.65
-15.96
-20.64
-26.11
-31.45
-35.59
-37.66
-37.30
-34.70
-30.52
-25.61
-20.59
-15.69
-10.79
-5.68
-0.21
5.42
10.86
15.77
19.92
23.21
25.64
27.12
27.51
26.76
25.02
22.73
20.45
18.67
17.59
17.01
16.49
15.47
13.64
11.00
7.97
5.18
3.24
2.59
3.26
4.89
6.92
8.72
9.84
9.99
9.14
7.28
4.49
0.88
-3.32
-7.75
-11.89
-15.23
-17.47
-18.52
-18.61
-18.09
-17.32
-16.48
-15.57
-14.47
-13.01
-11.09
-8.73
-6.04
-3.17
-0.25
2.68
5.60
8.44
11.14
13.49
15.32
16.47
16.91
16.82
16.48
16.23
16.26
16.63
17.16
17.57
17.56
17.00
15.93
14.57
13.16
11.84
10.58
9.19
7.49
5.32
2.75
-0.10
-2.97
-5.69
-8.15
-10.32
-12.25
-14.00
-15.60
-17.08
-18.40
-19.55
-20.54
-21.39
-22.16
-22.76
-23.05
-22.76
-21.71
-19.82
-17.25
-14.27
-11.14
-8.03
-4.92
-1.75
1.52
4.73
7.58
9.83
11.35
12.25
12.76
13.13
13.51
13.85
14.03
13.86
13.28
12.35
11.24
10.16
9.25
8.54
7.93
7.28
6.48
5.52
4.55
3.77
3.32
3.10
2.87
2.32
1.26
-0.23
-1.83
-3.17
-4.01
-4.40
-4.67
-5.19
-6.27
-7.94
-9.98
-12.06
-13.84
-15.09
-15.62
-15.34
-14.09
-11.79
-8.43
-4.29
0.10
4.07
6.94
8.33
8.26
7.07
5.32
3.55
2.14
1.30
1.14
1.66
2.82
4.54
6.61
8.75
10.58
11.77
12.08
11.46
10.06
8.20
6.29
4.67
3.48
2.62
1.81
0.82
-0.43
-1.71
-2.69
-3.10
-2.91
-2.39
-1.98
-2.13
-3.05
-4.71
-6.87
-9.25
-11.71
-14.21
-16.77
-19.28
-21.44
-22.82
-23.06
-22.01
-19.83
-16.95
-13.81
-10.76
-7.93
-5.26
-2.65
-0.03
2.57
5.04
7.22
8.92
10.05
10.56
10.58
10.31
10.01
9.88
9.93
10.02
10.00
9.79
9.48
9.26
9.32
9.67
10.14
10.41
10.14
9.18
7.64
5.77
3.89
2.16
0.55
-1.06
-2.81
-4.70
-6.57
-8.20
-9.39
-10.12
-10.57
-11.10
-12.02
-13.53
-15.57
-17.87
-20.03
-21.63
-22.33
-21.98
-20.57
-18.21
-15.08
-11.40
-7.43
-3.52
-0.04
2.75
4.72
6.00
6.89
7.72
8.68
9.77
10.81
11.59
12.02
12.16
12.27
12.60
13.23
14.03
14.69
14.87
14.34
13.13
11.45
9.66
8.03
6.70
5.59
4.52
3.32
1.92
0.34
-1.36
-3.12
-4.94
-6.93
-9.12
-11.48
-13.81
-15.82
-17.24
-18.00
-18.17
-17.99
-17.70
-17.36
-16.83
-15.88
-14.34
-12.21
-9.74
-7.28
-5.14
-3.46
-2.16
-1.01
0.25
1.82
3.71
5.77
7.68
9.17
10.12
10.61
10.96
11.49
12.39
13.55
14.64
15.22
15.03
14.01
12.34
10.25
7.97
5.66
3.47
1.57
0.16
-0.62
-0.79
-0.59
-0.46
-0.89
-2.25
-4.61
-7.70
-11.01
-14.01
-16.40
-18.25
-19.90
-21.74
-23.96
-26.35
-28.41
-29.54
-29.33
-27.73
-25.03
-21.64
-17.93
-14.10
-10.15
-6.08
-2.03
1.71
4.70
6.60
7.34
7.18
6.63
6.26
6.40
7.12
8.16
9.19
9.93
10.34
10.54
10.64
10.71
10.62
10.21
9.42
8.32
7.06
5.85
4.79
3.79
2.69
1.32
-0.37
-2.24
-4.07
-5.70
-7.11
-8.45
-10.02
-11.99
-14.33
-16.70
-18.57
-19.44
-19.00
-17.33
-14.82
-12.08
-9.59
-7.58
-5.97
-4.42
-2.57
-0.18
2.69
5.73
8.56
10.84
12.42
13.32
13.66
13.59
13.17
12.43
11.39
10.19
9.11
8.45
8.42
9.07
10.17
11.27
11.92
11.76
10.71
8.98
6.94
4.89
2.94
0.96
-1.29
-3.98
-7.09
-10.34
-13.39
-15.90
-17.75
-18.94
-19.52
-19.48
-18.68
-17.00
-14.45
-11.28
-7.90
-4.72
-1.98
0.43
2.77
5.29
8.05
10.80
13.14
14.74
15.47
15.52
15.23
14.93
14.83
14.95
15.21
15.43
15.49
15.33
14.98
14.47
13.79
12.88
11.59
9.77
7.38
4.57
1.68
-0.87
-2.75
-3.88
-4.51
-5.09
-6.09
-7.76
-10.11
-12.89
-15.80
-18.66
-21.41
-23.99
-26.25
-27.83
-28.26
-27.18
-24.58
-20.80
-16.46
-12.19
-8.39
-5.11
-2.12
0.80
3.81
6.77
9.44
11.50
12.79
13.33
13.32
13.08
12.86
12.76
12.69
12.48
11.95
11.06
9.88
8.53
7.07
5.47
3.65
1.54
-0.75
-2.97
-4.74
-5.76
-5.94
-5.45
-4.74
-4.26
-4.37
-5.17
-6.50
-8.10
-9.74
-11.36
-13.03
-14.79
-16.53
-17.91
-18.49
-17.88
-16.02
-13.22
-10.01
-6.97
-4.37
-2.13
0.12
2.76
5.94
9.46
12.81
15.41
16.86
17.20
16.81
16.24
15.92
16.06
16.47
16.83
16.80
16.29
15.44
14.51
13.71
13.07
12.47
11.68
10.60
9.25
7.78
6.35
4.99
3.61
2.06
0.15
-2.15
-4.73
-7.43
-10.07
-12.59
-15.04
-17.50
-19.96
-22.24
-23.94
-24.62
-23.90
-21.72
-18.36
-14.38
-10.36
-6.69
-3.46
-0.45
2.66
6.12
9.90
13.68
16.97
19.32
20.53
20.75
20.38
19.93
19.69
19.75
19.91
19.89
19.54
18.89
18.12
17.42
16.79
16.00
14.74
12.80
10.26
7.47
4.87
2.77
1.15
-0.27
-1.91
-4.04
-6.65
-9.47
-12.17
-14.56
-16.63
-18.56
-20.51
-22.49
-24.32
-25.63
-26.04
-25.28
-23.28
-20.17
-16.29
-11.99
-7.60
-3.27
0.94
5.07
9.08
12.77
15.92
18.35
20.03
21.12
21.91
22.59
23.19
23.56
23.44
22.75
21.60
20.28
19.09
18.21
17.52
16.69
15.42
13.57
11.31
9.00
7.06
5.64
4.63
3.66
2.36
0.55
-1.66
-3.96
-6.00
-7.62
-8.92
-10.22
-11.90
-14.22
-17.17
-20.54
-23.92
-26.88
-29.01
-30.01
-29.72
-28.12
-25.35
-21.62
-17.23
-12.46
-7.58
-2.82
1.67
5.79
9.45
12.61
15.29
17.48
19.19
20.38
21.03
21.16
20.89
20.39
19.88
19.46
19.11
18.69
18.05
17.10
15.90
14.65
13.60
12.87
12.44
12.06
11.42
10.27
8.52
6.30
3.87
1.48
-0.74
-2.77
-4.73
-6.71
-8.70
-10.59
-12.26
-13.71
-15.13
-16.82
-19.05
-21.83
-24.89
-27.64
-29.47
-29.95
-28.97
-26.84
-24.00
-20.89
-17.75
-14.58
-11.24
-7.64
-3.80
0.04
3.61
6.63
9.02
10.81
12.11
12.98
13.41
13.37
12.81
11.83
10.63
9.52
8.76
8.46
8.53
8.68
8.64
8.24
7.48
6.52
5.56
4.71
3.93
3.08
1.98
0.58
-1.03
-2.65
-4.06
-5.14
-5.93
-6.57
-7.22
-7.98
-8.82
-9.70
-10.60
-11.59
-12.80
-14.23
-15.70
-16.80
-17.03
-16.09
-14.01
-11.19
-8.24
-5.67
-3.71
-2.20
-0.79
0.80
2.61
4.42
5.87
6.70
6.96
6.98
7.23
8.11
9.76
11.98
14.43
16.72
18.64
20.14
21.26
21.98
22.17
21.63
20.18
17.85
14.91
11.85
9.13
7.08
5.72
4.83
3.97
2.77
1.05
-1.12
-3.44
-5.56
-7.29
-8.68
-9.98
-11.59
-13.77
-16.54
-19.64
-22.59
-24.82
-25.93
-25.74
-24.36
-22.07
-19.23
-16.11
-12.83
-9.36
-5.70
-1.99
1.44
4.24
6.21
7.45
8.38
9.49
11.04
12.96
14.82
16.13
16.57
16.18
15.31
14.41
13.79
13.46
13.24
12.82
12.03
10.94
9.75
8.73
8.00
7.48
6.84
5.74
3.98
1.62
-1.01
-3.48
-5.52
-7.10
-8.45
-9.93
-11.80
-14.09
-16.57
-18.91
-20.77
-21.97
-22.43
-22.15
-21.13
-19.28
-16.58
-13.12
-9.12
-4.94
-0.94
2.57
5.54
8.04
10.31
12.51
14.67
16.65
18.18
19.05
19.17
18.63
17.60
16.35
15.05
13.82
12.70
11.72
10.95
10.38
9.95
9.46
8.67
7.34
5.37
2.85
0.08
-2.54
-4.66
-6.10
-6.92
-7.41
-8.02
-9.14
-10.97
-13.42
-16.15
-18.80
-21.17
-23.35
-25.62
-28.16
-30.82
-32.99
-33.82
-32.55
-28.91
-23.28
-16.56
-9.83
-3.97
0.48
3.40
4.90
5.20
4.60
3.52
2.47
2.06
2.78
4.70
7.44
10.21
12.15
12.67
11.76
9.94
8.04
6.82
6.60
7.19
7.98
8.34
7.85
6.49
4.56
2.51
0.63
-0.96
-2.33
-3.57
-4.58
-5.22
-5.36
-5.17
-5.10
-5.79
-7.69
-10.76
-14.31
-17.25
-18.49
-17.45
-14.26
-9.68
-4.77
-0.48
2.71
4.88
6.52
8.25
10.53
13.43
16.60
19.43
21.24
21.64
20.62
18.56
16.10
13.80
12.06
10.95
10.40
10.24
10.40
10.75
11.15
11.30
10.85
9.52
7.21
4.17
0.86
-2.07
-4.15
-5.22
-5.52
-5.63
-6.15
-7.49
-9.71
-12.48
-15.37
-18.01
-20.26
-22.09
-23.54
-24.39
-24.36
-23.15
-20.77
-17.55
-14.09
-10.93
-8.33
-6.16
-3.98
-1.38
1.77
5.28
8.62
11.31
13.05
13.89
14.17
14.32
14.61
15.11
15.64
15.96
15.92
15.56
15.08
14.66
14.39
14.16
13.75
12.91
11.51
9.58
7.30
4.91
2.56
0.34
-1.80
-3.91
-6.03
-8.17
-10.26
-12.23
-14.05
-15.77
-17.44
-19.04
-20.38
-21.10
-20.80
-19.17
-16.18
-12.16
-7.71
-3.46
0.16
3.06
5.48
7.77
10.14
12.50
14.51
15.73
15.93
15.21
13.96
12.69
11.82
11.45
11.47
11.61
11.68
11.59
11.35
10.96
10.33
9.32
7.76
5.65
3.14
0.54
-1.85
-3.83
-5.34
-6.55
-7.67
-8.95
-10.51
-12.32
-14.24
-16.12
-17.89
-19.55
-21.15
-22.67
-23.92
-24.55
-24.14
-22.44
-19.44
-15.47
-10.98
-6.42
-2.02
2.19
6.26
10.18
13.74
16.55
18.21
18.56
17.80
16.50
15.28
14.56
14.40
14.47
14.32
13.62
12.37
10.83
9.37
8.21
7.32
6.51
5.48
4.12
2.54
0.97
-0.27
-1.03
-1.37
-1.54
-1.81
-2.44
-3.45
-4.76
-6.26
-7.90
-9.79
-12.09
-14.87
-17.96
-20.89
-22.98
-23.65
-22.60
-19.97
-16.28
-12.22
-8.43
-5.23
-2.58
-0.16
2.35
5.06
7.82
10.23
11.86
12.46
12.04
10.86
9.35
7.90
6.74
5.97
5.60
5.67
6.23
7.33
8.93
10.78
12.45
13.49
13.54
12.55
10.76
8.58
6.36
4.21
2.00
-0.53
-3.51
-6.85
-10.30
-13.54
-16.43
-19.00
-21.44
-23.85
-26.10
-27.81
-28.50
-27.82
-25.77
-22.68
-19.08
-15.55
-12.44
-9.91
-7.92
-6.40
-5.28
-4.59
-4.26
-4.04
-3.54
-2.25
0.11
3.43
7.17
10.46
12.39
12.32
10.00
5.59
-0.48
-7.48
-14.53
-20.67
-25.18
-27.78
-28.82
-29.15
-29.76
-31.40
-34.27
-38.09
-42.35
-46.67
-50.98
-55.20
-59.09
-62.14
-63.69
-63.11
-59.65
-52.47
-40.77
-24.12
-2.89
21.51
46.67
69.91
89.15
103.83
114.71
123.14
130.04
135.55
139.41
141.31
141.30
139.99
138.44
137.72
138.28
139.68
140.57
139.02
132.43
117.92
93.16
57.50
12.59
-38.10
-90.21
-139.60
-181.17
-208.79
-218.04
-208.96
-186.01
-155.20
-121.65
-88.67
-58.25
-31.65
-10.03
5.58
14.73
17.95
17.25
15.24
14.21
15.44
18.99
23.78
28.12
30.42
29.94
27.59
25.10
23.79
24.02
25.43
25.76
22.62
13.96
-1.68
-24.43
-53.26
-85.88
-118.30
-145.03
-160.43
-160.64
-143.58
-115.12
-84.30
-59.51
-45.47
-41.30
-43.37
-47.44
-50.47
-51.46
-51.23
-50.41
-49.00
-46.44
-42.42
-37.17
-31.58
-26.52
-22.55
-19.63
-16.56
-11.58
-2.78
8.99
22.99
38.24
53.82
69.13
84.16
99.91
117.85
138.93
162.53
186.16
205.63
216.45
215.50
202.38
179.64
151.61
122.59
95.42
71.31
50.18
31.75
16.23
4.30
-3.48
-7.35
-8.61
-9.30
-11.18
-15.25
-21.44
-28.80
-36.05
-42.31
-47.36
-51.61
-55.73
-59.98
-64.16
-67.58
-69.49
-69.41
-67.37
-63.85
-59.43
-54.59
-49.42
-43.81
-37.53
-30.52
-22.91
-14.98
-7.00
0.87
8.64
16.38
24.02
31.29
37.67
42.61
45.74
46.97
46.64
45.35
43.78
42.54
42.06
42.57
44.08
46.45
49.34
52.31
54.98
57.27
59.43
61.87
64.85
68.19
71.25
73.20
73.44
72.10
70.22
69.44
71.32
76.66
85.23
95.77
106.52
115.28
120.01
119.19
112.28
99.91
84.04
67.62
53.83
45.07
41.40
40.94
40.89
38.70
33.02
23.86
12.37
0.31
-10.67
-21.02
-32.14
-45.55
-61.97
-81.30
-102.80
-125.27
-146.91
-165.46
-180.89
-193.49
-203.07
-208.20
-207.00
-198.53
-183.75
-165.51
-148.16
-139.77
-147.84
-176.43
-223.96
-284.11
-348.53
-409.49
-461.41
-482.65
-458.15
-385.68
-279.33
-161.08
-49.16
47.11
125.50
187.33
235.10
268.59
287.68
293.95
291.63
285.85
280.85
278.80
279.97
283.60
286.36
285.91
280.62
271.54
260.71
250.15
240.92
233.09
226.29
218.74
209.00
196.69
183.16
169.67
157.52
147.17
138.41
130.60
122.21
111.38
95.83
79.28
63.29
48.91
36.57
26.48
18.76
13.32
9.94
8.16
7.34
5.71
1.50
-6.70
-19.56
-36.71
-56.91
-78.49
-100.09
-120.96
-141.88
-164.04
-188.47
-215.50
-244.48
-274.15
-303.10
-330.53
-356.43
-382.07
-409.05
-439.11
-473.96
-514.85
-561.58
-611.31
-657.95
-692.83
-707.31
-695.75
-657.92
-599.34
-529.32
-457.45
-390.63
-331.93
-281.34
-237.80
-200.64
-169.91
-145.41
-126.12
-110.12
-95.22
-79.94
-64.06
-48.65
-35.58
-26.40
-21.36
-19.42
-18.65
-17.01
-13.11
-6.50
2.22
11.82
21.12
30.23
39.85
50.86
63.82
78.77
95.48
113.53
132.43
151.74
173.12
197.57
224.50
251.84
277.31
299.75
319.39
337.11
353.71
373.60
399.30
429.98
461.63
489.54
510.46
523.18
527.81
525.10
523.00
527.77
541.21
560.04
579.15
595.11
607.03
615.80
622.96
638.87
671.01
720.08
779.61
840.24
894.68
939.16
972.56
938.83
808.44
588.92
323.56
63.18
-159.56
-334.27
-464.43
-558.68
-626.12
-665.47
-676.18
-662.35
-633.56
-600.89
-572.33
-551.51
-538.75
-532.77
-524.98
-508.79
-482.63
-450.40
-418.11
-390.16
-368.20
-352.11
-340.42
-327.46
-309.16
-284.93
-257.76
-231.97
-210.85
-195.80
-186.53
-182.05
-179.20
-175.46
-169.96
-163.55
-157.82
-154.02
-152.60
-153.12
-154.93
-156.66
-157.19
-155.90
-152.71
-147.57
-140.02
-131.74
-123.24
-114.81
-106.63
-98.79
-91.27
-83.93
-76.60
-69.27
-62.07
-54.93
-47.95
-41.25
-34.79
-28.27
-21.28
-13.34
-4.25
5.85
16.74
27.91
38.92
49.60
60.19
71.29
83.56
97.35
112.49
128.55
144.76
160.43
175.24
189.34
203.24
217.73
233.67
251.92
273.08
296.81
321.37
343.45
358.90
363.95
356.78
338.14
311.17
280.19
249.05
220.09
193.98
170.44
149.01
129.69
112.78
98.39
86.08
74.90
63.80
52.19
40.12
28.20
17.25
7.73
-0.43
-7.82
-15.24
-23.24
-31.79
-40.38
-48.12
-54.13
-57.82
-59.10
-58.41
-56.56
-54.49
-52.93
-52.20
-52.19
-52.42
-52.39
-51.81
-50.63
-49.06
-47.36
-45.72
-44.20
-42.79
-41.47
-40.24
-39.14
-38.09
-36.94
-35.53
-33.70
-31.45
-28.88
-26.20
-23.65
-21.35
-19.27
-17.31
-15.28
-13.12
-10.85
-8.63
-6.69
-5.22
-4.35
-4.04
-4.20
-4.70
-5.40
-6.19
-7.09
-8.11
-9.29
-10.66
-12.09
-13.40
-14.29
-14.55
-14.05
-12.84
-11.08
-8.95
-6.62
-4.26
-2.00
0.01
1.59
2.62
3.10
3.19
3.17
3.31
3.70
4.24
4.66
4.72
4.31
3.48
2.42
1.33
0.31
-0.67
-1.65
-2.65
-3.60
-4.40
-5.05
-5.67
-6.45
-7.56
-9.00
-10.62
-12.16
-13.38
-14.19
-14.62
-14.86
-15.10
-15.44
-15.87
-16.24
-16.39
-16.12
-15.32
-13.95
-12.08
-9.87
-7.54
-5.29
-3.28
-1.61
-0.31
0.61
1.17
1.38
1.28
1.00
0.69
0.50
0.56
0.88
1.43
2.08
2.75
3.38
4.00
4.67
5.43
6.28
7.08
7.67
7.87
7.64
7.07
6.30
5.49
4.63
3.62
2.27
0.52
-1.47
-3.32
-4.62
-5.03
-4.51
-3.39
-2.19
-1.53
-1.83
-3.18
-5.21
-7.25
-8.55
-8.63
-7.49
-5.65
-3.93
-3.07
-3.55
-5.34
-8.09
-11.20
-14.04
-16.08
-16.90
-16.24
-14.06
-10.53
-6.06
-1.22
3.33
6.90
8.88
8.75
6.18
1.17
-5.79
-13.77
-21.46
-27.57
-31.04
-31.38
-28.66
-23.54
-16.95
-9.82
-2.93
3.27
8.56
12.92
16.44
19.25
21.44
23.06
24.03
24.21
23.52
22.07
20.21
18.47
17.38
17.21
17.86
18.92
19.90
20.49
20.72
20.78
20.92
21.16
21.34
21.18
20.56
19.57
18.50
17.73
17.51
17.88
18.66
19.47
19.93
19.70
18.60
16.66
14.02
10.90
7.45
3.79
-0.02
-3.89
-7.60
-10.84
-13.28
-14.74
-15.22
-14.86
-13.81
-12.22
-10.19
-7.85
-5.46
-3.41
-2.11
-1.88
-2.81
-4.74
-7.23
-9.79
-11.95
-13.45
-14.21
-14.42
-14.32
-14.14
-13.94
-13.64
-13.08
-12.17
-11.00
-9.87
-9.20
-9.24
-9.98
-11.07
-11.92
-11.97
-10.91
-8.78
-5.94
-2.91
-0.17
1.95
3.30
3.86
3.72
3.08
2.18
1.34
0.78
0.53
0.38
-0.09
-1.36
-3.69
-6.97
-10.66
-13.88
-15.75
-15.66
-13.54
-9.86
-5.47
-1.23
2.21
4.60
6.04
6.74
6.88
6.55
5.78
4.69
3.49
2.36
1.34
0.26
-1.16
-3.15
-5.60
-8.07
-9.92
-10.59
-9.91
-8.18
-6.11
-4.48
-3.88
-4.46
-5.99
-7.89
-9.57
-10.70
-11.22
-11.37
-11.42
-11.51
-11.54
-11.28
-10.54
-9.35
-8.00
-6.85
-6.14
-5.82
-5.53
-4.81
-3.31
-0.97
1.97
5.11
8.01
10.42
12.28
13.67
14.65
15.24
15.32
14.72
13.38
11.39
9.06
6.81
5.01
3.84
3.23
2.95
2.82
2.77
2.94
3.51
4.55
5.92
7.28
8.18
8.27
7.44
5.88
4.00
2.23
0.90
0.09
-0.31
-0.50
-0.70
-1.01
-1.39
-1.80
-2.21
-2.61
-3.03
-3.47
-3.87
-4.18
-4.32
-4.26
-3.98
-3.51
-2.85
-2.01
-1.04
-0.00
1.06
2.08
2.91
3.43
3.53
3.22
2.75
2.46
2.73
3.69
5.18
6.72
7.72
7.80
6.84
5.10
3.03
1.05
-0.58
-1.80
-2.75
-3.67
-4.83
-6.36
-8.25
-10.32
-12.29
-13.87
-14.83
-15.05
-14.55
-13.41
-11.84
-10.09
-8.50
-7.38
-6.97
-7.22
-7.81
-8.14
-7.51
-5.48
-2.00
2.46
7.05
10.91
13.49
14.68
14.72
13.98
12.65
10.59
7.50
3.06
-2.83
-10.02
-18.12
-26.73
-35.37
-43.54
-50.62
-55.87
-58.71
-58.90
-56.86
-53.48
-49.95
-47.11
-45.09
-43.19
-40.23
-35.22
-27.98
-19.39
-10.94
-4.11
0.45
3.14
5.07
7.41
10.69
14.62
18.33
20.96
22.15
22.13
21.45
20.52
19.37
17.65
14.89
10.81
5.56
-0.43
-6.56
-12.34
-17.55
-22.19
-26.27
-29.71
-32.19
-33.23
-32.34
-29.28
-24.24
-17.89
-11.25
-5.42
-1.18
1.27
2.34
2.84
3.62
5.27
7.85
11.00
14.20
17.05
19.49
21.75
24.14
26.76
29.47
31.91
33.71
34.73
35.13
35.33
35.87
37.12
39.18
41.83
44.57
46.90
48.46
49.18
49.32
49.38
49.79
50.73
51.92
52.79
52.65
51.08
48.08
44.05
39.53
34.87
30.12
24.96
19.04
12.25
4.91
-2.24
-8.18
-12.06
-13.45
-12.60
-10.30
-7.66
-5.62
-4.78
-5.23
-6.60
-8.30
-9.64
-9.86
-8.16
-3.96
2.54
9.86
15.34
15.93
9.58
-3.54
-20.82
-38.09
-51.37
-58.47
-59.57
-56.51
-51.39
-45.31
-37.98
-28.43
-16.12
-1.74
12.79
25.19
33.83
38.46
40.15
40.76
41.82
43.94
46.60
48.57
48.71
46.56
42.59
37.91
33.81
31.10
29.84
29.38
28.75
27.18
24.48
21.07
17.91
16.11
16.57
19.78
25.74
34.00
43.71
53.61
62.09
67.45
68.30
64.04
55.07
42.62
28.21
12.98
-2.83
-19.83
-38.98
-60.95
-85.36
-110.54
-133.59
-151.07
-159.77
-157.82
-145.30
-124.44
-99.01
-73.14
-50.05
-31.27
-16.48
-4.32
6.46
16.22
24.23
29.26
30.54
28.42
24.53
21.14
20.23
22.61
