1593630180.00
64.000000
-0.00
-0.00
-0.00
-0.00
-0.00
-0.00
-0.00
-0.00
-0.00
-0.00
0.00
0.01
0.01
-0.00
-0.03
-0.05
-0.05
0.00
0.13
0.36
0.66
1.01
1.37
1.72
2.06
2.40
2.79
3.24
3.80
4.42
5.06
5.66
6.20
6.68
7.15
7.68
8.31
9.14
10.09
11.04
11.88
12.56
13.14
13.76
14.65
15.96
17.91
20.32
22.90
25.38
27.58
29.57
31.68
34.32
37.81
42.54
48.15
54.10
59.83
64.97
69.58
74.14
79.34
85.71
93.76
103.00
112.62
121.73
129.77
136.75
143.30
150.75
157.77
166.64
177.95
191.79
206.97
220.57
228.25
225.36
208.53
176.87
132.76
80.05
23.07
-34.94
-92.44
-149.16
-205.23
-260.37
-313.74
-363.87
-409.83
-450.91
-486.50
-515.74
-537.23
-549.22
-549.96
-538.37
-514.21
-478.67
-433.88
-382.45
-327.02
-269.84
-212.63
-156.66
-102.95
-52.38
-5.91
35.58
71.44
101.39
125.55
144.41
158.66
169.02
176.12
180.39
182.14
181.63
179.10
174.88
169.32
162.80
155.67
148.19
140.56
132.90
125.25
117.64
110.07
102.54
95.06
87.68
80.50
73.63
67.20
61.25
55.74
50.54
45.44
40.34
35.21
30.21
25.61
21.67
18.48
15.92
13.64
11.22
8.35
5.02
1.55
-1.52
-3.67
-4.72
-4.89
-4.83
-5.31
-6.84
-9.45
-12.59
-15.41
-17.14
-17.45
-16.68
-15.58
-15.03
-15.67
-17.73
-21.17
-25.67
-30.45
-34.06
-34.44
-29.50
-18.29
-1.89
16.46
32.42
42.41
45.15
42.13
36.56
31.58
28.74
27.65
26.80
24.96
22.03
19.00
17.15
17.03
18.15
19.32
19.36
17.89
15.39
13.00
11.66
11.73
12.74
13.70
13.64
12.08
9.26
6.00
3.27
1.78
1.71
2.67
3.98
4.94
5.16
4.63
3.73
2.90
2.43
2.32
2.33
2.23
2.03
1.92
2.21
3.06
4.33
5.65
6.64
7.15
7.36
7.66
8.31
9.30
10.17
10.32
9.26
6.96
3.72
0.17
-3.07
-5.65
-7.64
-9.39
-11.28
-13.44
-15.68
-17.56
-18.60
-18.60
-17.76
-16.60
-15.69
-15.37
-15.61
-16.06
-16.27
-15.90
-14.97
-13.80
-12.88
-12.54
-12.83
-13.54
-14.28
-14.76
-14.91
-14.83
-14.68
-14.52
-14.24
-13.69
-12.82
-11.80
-10.98
-10.65
-10.80
-10.93
-10.08
-7.18
-1.48
6.91
16.96
26.91
34.99
39.98
41.65
40.66
38.22
35.31
32.35
29.12
25.16
20.38
15.19
10.49
7.11
5.44
5.10
5.29
5.22
4.24
2.70
1.49
1.56
3.30
6.39
9.96
13.12
15.33
16.44
16.55
15.63
13.43
9.64
4.24
-2.41
-9.60
-16.64
-23.12
-28.94
-34.30
-39.38
-44.27
-48.91
-53.17
-56.83
-59.63
-61.28
-61.53
-60.35
-58.00
-54.99
-51.84
-48.76
-45.59
-41.86
-37.10
-31.12
-24.20
-16.92
-9.91
-3.60
1.88
6.60
10.69
14.12
16.79
18.50
19.23
19.14
18.61
18.12
18.07
18.54
19.32
20.01
20.23
19.86
19.07
18.24
17.69
17.46
17.28
16.79
15.76
14.30
12.81
11.76
11.31
11.24
10.99
10.03
8.19
5.79
3.50
1.95
1.41
1.57
1.75
1.21
-0.46
-3.10
-6.06
-8.50
-9.75
-9.64
-8.49
-6.92
-5.45
-4.24
-3.00
-1.22
1.47
4.96
8.64
11.62
13.21
13.26
12.21
10.86
9.90
9.56
9.53
9.32
8.56
7.27
5.90
4.97
4.75
5.10
5.55
5.57
4.92
3.71
2.37
1.35
0.85
0.76
0.63
0.01
-1.33
-3.25
-5.30
-6.92
-7.81
-8.06
-8.16
-8.66
-9.87
-11.63
-13.28
-14.11
-13.62
-11.86
-9.31
-6.57
-4.02
-1.67
0.74
3.44
6.33
8.96
10.72
11.25
10.65
9.47
8.49
8.28
8.92
9.98
10.75
10.71
9.77
8.30
6.94
6.24
6.29
6.73
7.00
6.61
5.44
3.77
2.14
1.00
0.50
0.38
0.16
-0.58
-1.96
-3.72
-5.33
-6.41
-6.91
-7.22
-7.91
-9.34
-11.35
-13.26
-14.19
-13.50
-11.16
-7.81
-4.29
-1.30
0.99
2.84
4.69
6.81
9.06
11.03
12.31
12.71
12.35
11.64
10.96
10.54
10.27
9.86
9.01
7.58
5.77
4.00
2.75
2.33
2.66
3.33
3.78
3.62
2.78
1.55
0.39
-0.43
-0.94
-1.49
-2.43
-3.87
-5.59
-7.12
-8.09
-8.46
-8.57
-8.83
-9.44
-10.11
-10.22
-9.06
-6.25
-1.95
3.12
8.06
12.11
14.93
16.66
17.73
18.61
19.61
20.81
22.15
23.59
25.11
26.82
28.77
30.93
33.09
34.93
36.20
36.84
37.12
37.52
38.55
40.44
42.98
45.51
47.20
47.47
46.25
44.09
41.81
40.11
39.13
38.45
37.29
34.90
30.95
25.56
19.19
12.37
5.49
-1.27
-7.92
-14.39
-20.52
-25.91
-30.10
-32.78
-34.00
-34.26
-34.36
-35.06
-36.67
-38.93
-41.17
-42.64
-42.97
-42.31
-41.13
-39.91
-38.83
-37.76
-36.38
-34.54
-32.40
-30.36
-28.85
-28.02
-27.71
-27.50
-26.94
-25.89
-24.54
-23.39
-22.92
-23.34
-24.46
-25.79
-26.82
-27.31
-27.41
-27.52
-27.95
-28.73
-29.53
-29.81
-29.14
-27.44
-24.99
-22.23
-19.45
-16.64
-13.52
-9.77
-5.26
-0.29
4.59
8.70
11.67
13.61
15.04
16.76
19.41
23.24
27.94
32.81
37.06
40.06
41.61
41.90
41.34
40.36
39.24
38.03
36.76
35.51
34.45
33.75
33.37
32.91
31.69
28.93
24.15
17.46
9.57
1.72
-4.87
-9.31
-11.43
-11.72
-11.05
-10.31
-10.10
-10.53
-11.38
-12.28
-13.01
-13.55
-14.04
-14.69
-15.52
-16.37
-16.90
-16.73
-15.59
-13.35
-10.07
-5.95
-1.33
3.46
8.06
12.15
15.49
17.93
19.55
20.70
21.94
23.79
26.35
29.10
30.81
29.89
25.09
16.02
3.47
-10.83
-24.86
-36.96
-46.24
-52.45
-55.55
-55.30
-51.12
-42.49
-29.43
-12.85
5.47
23.51
39.67
53.39
65.18
76.28
87.98
101.07
115.59
130.96
146.18
160.14
171.81
180.19
184.39
183.71
177.96
167.73
154.47
140.19
126.95
116.11
107.94
101.57
95.47
88.14
78.76
67.52
55.47
43.98
34.08
25.90
18.62
10.77
0.93
-11.78
-27.31
-44.97
-63.84
-83.28
-102.97
-122.69
-141.89
-159.62
-174.77
-186.66
-195.67
-203.25
-211.44
-221.87
-234.95
-249.51
-263.01
-272.44
-275.24
-270.10
-257.22
-238.04
-214.68
-189.29
-163.55
-138.58
-115.00
-93.19
-73.42
-55.86
-40.44
-26.78
-14.32
-2.52
8.78
19.22
28.04
34.52
38.37
40.01
40.42
40.66
41.34
42.31
42.78
41.83
39.03
34.67
29.73
25.29
22.04
19.97
18.53
17.13
15.53
13.98
12.98
12.86
13.45
14.16
14.27
13.42
11.79
10.05
8.95
8.93
9.89
11.29
12.45
13.05
13.16
13.29
13.99
15.49
17.52
19.42
20.48
20.36
19.27
17.81
16.59
15.86
15.39
14.58
13.02
10.75
8.34
6.62
6.16
6.95
8.32
9.35
9.40
8.48
7.25
6.69
7.63
10.24
13.98
17.84
20.82
22.41
22.76
22.62
22.87
24.06
26.13
28.46
30.31
31.18
31.14
30.74
30.65
31.20
32.26
33.28
33.80
33.64
32.80
31.27
28.60
24.00
16.66
6.34
-6.23
-19.29
-30.59
-38.12
-40.84
-39.06
-34.26
-28.45
-23.26
-19.44
-16.69
-14.09
-10.84
-6.86
-2.89
-0.15
0.46
-1.29
-4.83
-9.19
-13.60
-17.79
-21.92
-26.27
-30.76
-34.78
-37.38
-37.51
-34.77
-29.72
-23.89
-19.10
-16.67
-16.75
-18.12
-18.79
-16.88
-11.75
-4.36
3.06
8.41
10.57
9.92
8.04
6.63
6.72
8.08
9.35
9.04
6.69
2.83
-1.42
-5.14
-8.28
-10.97
-13.48
-15.90
-17.78
-17.57
-14.01
-7.02
1.94
9.91
15.03
16.49
14.58
10.71
7.82
8.07
11.62
16.57
19.26
18.35
14.61
10.38
9.02
14.75
29.60
52.33
78.99
103.80
124.31
140.59
153.96
155.48
139.17
105.12
60.09
20.98
-10.59
-35.31
-53.57
-68.27
-80.48
-89.70
-95.58
-98.30
-98.51
-97.96
-96.02
-91.83
-85.32
-77.07
-67.13
-55.80
-43.72
-31.73
-21.54
-13.05
-5.90
-0.14
4.17
7.58
10.79
14.37
18.50
22.33
25.61
28.03
29.16
28.93
27.93
27.03
26.86
27.46
28.04
28.03
27.04
24.97
22.14
19.19
16.62
14.60
12.86
10.83
8.23
5.11
1.83
-1.09
-3.24
-4.49
-5.03
-5.23
-5.42
-5.65
-5.74
-5.37
-4.34
-2.74
-0.96
0.49
1.28
1.41
1.16
0.95
1.00
1.23
1.27
0.63
-0.93
-3.32
-6.09
-8.65
-10.52
-11.50
-11.68
-11.30
-10.54
-9.47
-7.99
-6.01
-3.61
-1.10
1.04
2.40
2.84
2.56
1.96
1.39
0.93
0.35
-0.76
-2.59
-5.01
-7.41
-9.00
-9.11
-7.54
-4.65
-1.09
2.44
5.51
8.07
10.47
13.20
16.73
21.28
26.70
32.58
38.35
43.50
47.72
50.96
53.26
54.62
54.87
53.74
51.06
46.90
41.69
36.08
30.64
25.63
21.01
16.61
12.44
8.79
6.14
4.85
4.88
5.72
6.63
7.05
6.84
6.24
5.71
5.64
6.14
7.12
8.42
9.93
11.57
13.20
14.65
15.76
16.49
17.00
17.58
18.59
20.39
23.18
27.05
31.78
36.70
40.66
42.25
40.37
34.74
26.19
16.41
7.20
-0.35
-6.38
-12.05
-18.78
-27.32
-37.27
-47.20
-55.43
-60.74
-62.78
-62.00
-59.05
-54.41
-48.26
-40.75
-32.24
-23.46
-15.24
-8.18
-2.45
2.15
5.96
9.18
11.80
13.58
14.20
13.30
10.70
6.48
1.24
-3.86
-7.35
-7.98
-5.31
-0.03
6.24
11.60
14.62
14.92
13.03
9.98
6.63
3.32
-0.10
-3.86
-7.91
-11.83
-15.08
-17.39
-18.95
-20.29
-21.85
-23.58
-24.93
-25.16
-23.81
-20.98
-17.21
-13.12
-8.96
-4.54
0.53
6.42
12.74
18.60
22.85
24.60
23.50
19.84
14.49
8.65
3.50
0.02
-1.23
-0.11
3.25
8.48
15.03
22.19
29.00
34.34
37.16
36.83
33.34
27.39
20.18
13.05
7.07
2.80
0.27
-0.83
-0.90
-0.24
1.13
3.24
5.91
8.48
9.78
8.61
4.34
-2.52
-10.17
-16.21
-18.60
-16.61
-11.10
-3.96
3.00
8.87
13.78
18.26
22.17
24.23
22.37
14.85
1.41
-16.33
-35.38
-52.55
-65.46
-73.02
-75.17
-72.29
-64.95
-53.91
-40.43
-26.28
-13.43
-3.31
3.75
8.64
12.95
18.25
25.21
33.41
41.50
47.78
50.84
49.89
44.84
36.20
24.91
12.43
0.63
-8.61
-14.01
-15.53
-14.69
-14.13
-16.74
-24.59
-38.32
-57.10
-79.02
-101.63
-122.40
-138.88
-148.90
-150.98
-144.69
-130.93
-111.77
-89.97
-68.34
-49.15
-33.80
-22.77
-15.64
-11.44
-8.94
-7.02
-4.99
-2.63
-0.05
2.45
4.64
6.35
7.53
8.18
8.35
8.27
8.22
8.49
9.18
10.14
11.10
11.77
12.07
12.17
12.39
12.96
13.87
14.86
15.61
15.92
15.81
15.45
14.98
14.41
13.55
12.19
10.30
8.15
6.27
5.25
5.56
7.31
10.29
14.08
18.34
22.92
27.91
33.51
39.81
46.58
53.18
58.80
62.86
65.31
66.84
68.62
71.73
76.65
82.98
89.61
95.40
99.61
102.21
103.60
104.05
103.34
100.91
96.14
89.18
81.06
73.32
67.41
63.86
61.85
59.45
54.07
43.40
26.08
2.13
-26.88
-58.09
-87.95
-112.94
-130.49
-139.48
-140.43
-135.09
-125.77
-114.60
-103.15
-92.33
-82.66
-74.48
-68.07
-63.62
-60.94
-59.56
-58.75
-57.72
-55.94
-53.16
-49.28
-44.19
-37.66
-29.54
-19.98
-9.66
0.35
8.95
15.46
19.95
23.05
25.61
28.15
30.66
32.76
34.15
34.88
35.49
36.69
38.84
41.67
44.31
45.80
45.60
43.98
41.82
40.25
39.94
40.81
42.07
42.78
42.39
41.03
39.38
38.29
38.17
38.83
39.64
40.03
39.85
39.47
39.47
40.15
41.16
41.68
40.81
38.19
34.26
30.08
26.86
25.33
25.49
26.75
28.27
29.49
30.17
30.23
29.49
27.53
23.80
17.94
10.11
1.19
-7.38
-14.11
-17.84
-18.20
-15.69
-11.42
-6.79
-2.89
-0.21
1.35
2.18
2.57
2.36
0.98
-2.15
-7.13
-13.26
-19.28
-23.82
-26.17
-26.68
-26.57
-27.34
-29.92
-34.17
-38.99
-42.86
-44.63
-44.07
-41.89
-39.35
-37.61
-37.31
-38.40
-40.40
-42.83
-45.56
-48.87
-53.23
-58.84
-65.35
-71.73
-76.68
-79.14
-78.88
-76.53
-73.37
-70.56
-68.60
-67.18
-65.43
-62.61
-58.59
-53.98
-49.68
-46.27
-43.59
-40.74
-36.63
-30.63
-23.01
-14.79
-7.17
-0.80
4.57
9.92
16.38
24.50
33.86
43.27
51.39
57.35
61.02
62.83
63.27
62.34
59.41
53.58
44.26
31.72
17.20
2.55
-10.40
-20.52
-27.61
-32.16
-34.92
-36.37
-36.60
-35.44
-32.87
-29.34
-25.73
-23.08
-21.94
-22.13
-22.73
-22.52
-20.55
-16.71
-11.70
-6.74
-2.87
-0.52
0.62
1.30
2.17
3.45
4.81
5.66
5.61
4.73
3.53
2.66
2.56
3.14
3.86
3.99
3.06
1.06
-1.57
-4.12
-6.07
-7.33
-8.27
-9.57
-11.77
-15.04
-19.05
-23.12
-26.63
-29.26
-31.08
-32.38
-33.29
-33.62
-32.87
-30.52
-26.42
-20.90
-14.70
-8.59
-2.96
2.24
7.37
12.74
18.30
23.53
27.65
29.95
30.25
28.94
26.92
25.24
24.65
25.33
26.81
28.30
29.09
28.93
28.10
27.22
26.84
27.05
27.39
27.14
25.76
23.16
19.71
15.94
12.05
7.71
2.24
-4.94
-13.73
-23.17
-31.65
-37.61
-40.18
-39.57
-36.88
-33.46
-30.13
-26.81
-22.63
-16.47
-7.81
2.85
14.08
24.14
31.75
36.62
39.45
41.49
43.71
46.38
48.99
50.73
50.99
49.77
47.71
45.55
43.72
42.07
39.96
36.79
32.41
27.33
22.53
18.96
17.03
16.43
16.33
15.91
14.79
13.17
11.75
11.16
11.57
12.48
12.99
12.21
9.78
6.05
1.88
-1.70
-4.14
-5.52
-6.53
-7.94
-10.21
-13.18
-16.20
-18.46
-19.58
-19.76
-19.76
-20.41
-22.09
-24.49
-26.66
-27.48
-26.19
-22.72
-17.71
-11.99
-6.23
-0.60
5.18
11.50
18.41
25.42
31.62
36.07
38.30
38.48
37.30
35.56
33.64
31.35
28.02
23.01
16.16
7.91
-0.82
-9.13
-16.48
-22.87
-28.58
-33.73
-38.04
-40.81
-41.20
-38.81
-33.91
-27.45
-20.71
-14.75
-10.00
-6.23
-2.82
0.80
4.69
8.34
11.01
12.11
11.66
10.23
8.75
7.93
7.92
8.30
8.32
7.42
5.58
3.30
1.37
0.39
0.40
0.85
0.95
0.13
-1.60
-3.59
-4.84
-4.58
-2.76
-0.05
2.46
3.87
3.88
2.96
1.90
1.29
1.07
0.55
-1.12
-4.35
-8.76
-13.20
-16.34
-17.37
-16.35
-14.23
-12.22
-11.15
-11.13
-11.53
-11.47
-10.46
-8.74
-7.09
-6.25
-6.43
-7.19
-7.65
-7.09
-5.38
-3.18
-1.64
-1.64
-3.40
-6.26
-9.18
-11.28
-12.39
-12.93
-13.65
-15.05
-17.00
-18.74
-19.36
-18.47
-16.56
-14.82
-14.19
-15.14
-17.36
-19.78
-21.06
-20.12
-16.86
-12.13
-7.40
-3.48
-0.99
-0.25
-0.95
-1.94
-1.34
2.71
11.46
25.11
43.66
65.58
88.20
108.82
125.84
139.31
150.23
159.95
169.51
180.35
192.06
202.23
207.45
204.95
193.83
174.84
150.04
113.84
67.16
16.25
-30.66
-68.23
-95.27
-112.51
-121.61
-124.36
-122.76
-117.59
-110.32
-102.83
-96.68
-93.70
-92.52
-91.51
-89.24
-84.89
-77.27
-66.51
-53.67
-40.16
-26.92
-14.04
-1.70
9.63
19.08
27.20
33.63
38.05
40.46
41.35
41.64
41.72
41.52
40.66
39.05
36.54
33.21
29.26
24.95
20.52
15.82
10.38
3.68
-4.38
-13.61
-23.33
-32.62
-40.63
-46.84
-51.24
-54.18
-56.13
-57.47
-58.51
-59.43
-60.37
-61.43
-62.62
-63.74
-64.39
-64.06
-62.30
-58.98
-54.25
-48.60
-42.61
-36.78
-31.36
-26.42
-21.82
-17.49
-13.49
-10.00
-7.28
-5.45
-4.46
-4.06
-3.91
-3.67
-3.16
-2.36
-1.37
-0.27
0.99
2.62
5.04
8.63
13.53
19.43
25.59
31.04
34.96
37.02
37.48
37.04
36.43
36.09
35.98
35.77
35.03
33.43
30.76
26.88
21.52
14.37
5.37
-5.00
-15.57
-24.68
-30.72
-32.73
-30.89
-26.48
-21.42
-17.45
-15.59
-15.82
-17.41
-19.53
-21.81
-24.44
-27.86
-32.15
-36.58
-39.59
-39.39
-34.78
-25.78
-13.65
-0.32
12.57
24.35
35.39
46.58
58.52
70.89
82.43
91.55
97.05
98.74
97.38
94.24
90.40
86.25
81.45
75.26
66.90
55.79
41.59
24.17
3.59
-19.57
-43.93
-67.08
-85.96
-97.55
-99.90
-92.94
-78.62
-60.35
-41.92
-26.44
-15.59
-9.50
-7.26
-7.57
-9.33
-11.97
-15.32
-19.27
-23.56
-27.65
-30.87
-32.78
-33.48
-33.67
-34.40
-36.51
-40.14
-44.57
-48.54
-50.83
-51.02
-49.64
-47.93
-47.11
-47.70
-49.27
-50.68
-50.78
-49.07
-46.02
-42.82
-40.70
-40.37
-41.65
-43.72
-45.56
-46.70
-47.34
-48.31
-50.33
-53.61
-57.49
-60.68
-61.95
-60.76
-57.61
-53.70
-50.21
-47.61
-45.37
-42.30
-37.33
-30.27
-22.05
-14.34
-8.61
-5.44
-4.26
-3.74
-2.54
-0.09
3.25
6.40
8.36
8.69
7.76
6.44
5.59
5.48
5.76
5.71
4.88
3.48
2.33
2.49
4.56
8.16
11.95
14.21
13.79
10.80
6.76
3.97
4.53
9.32
17.83
28.46
39.61
50.41
60.89
71.49
82.12
91.61
97.89
98.86
93.55
82.77
68.93
55.10
43.84
36.33
32.28
30.48
29.68
29.19
28.97
29.29
30.13
30.82
30.13
26.81
20.34
11.42
1.99
-5.39
-8.52
-6.48
-0.03
8.74
17.35
23.93
27.78
29.27
29.05
27.31
23.51
16.82
6.99
-5.08
-17.32
-27.29
-33.30
-35.30
-34.75
-33.88
-34.47
-37.07
-40.89
-44.50
-46.77
-47.45
-47.21
-46.97
-47.21
-47.52
-46.73
-43.54
-37.30
-28.42
-18.27
-8.50
-0.25
6.22
11.55
16.72
22.36
28.44
34.25
38.87
41.75
42.98
43.26
43.50
44.26
45.52
46.74
47.35
47.07
46.17
45.34
45.25
46.14
47.66
49.09
49.83
49.82
49.65
50.26
52.35
55.89
59.97
63.28
64.82
64.51
63.24
62.47
63.39
66.23
70.14
73.56
75.04
73.90
70.47
65.74
60.76
55.95
50.94
44.79
36.65
26.26
14.14
1.31
-11.26
-23.17
-34.69
-46.44
-58.75
-71.25
-82.87
-92.40
-99.19
-103.62
-106.98
-110.70
-115.48
-120.73
-124.79
-125.68
-122.17
-114.44
-104.08
-93.30
-83.87
-76.41
-70.27
-64.08
-56.74
-48.07
-38.79
-30.04
-22.47
-15.86
-9.18
-1.32
8.10
18.29
27.58
34.23
37.39
37.49
36.10
35.07
35.66
37.94
40.90
43.17
43.76
42.63
40.65
39.02
38.51
39.00
39.59
39.09
36.77
32.75
27.87
23.24
19.53
16.62
13.73
9.94
4.74
-1.63
-8.25
-14.06
-18.31
-20.99
-22.69
-24.24
-26.23
-28.76
-31.42
-33.68
-35.32
-36.56
-37.90
-39.56
-41.12
-41.49
-39.37
-33.99
-25.68
-15.90
-6.65
0.48
5.01
7.67
9.91
12.96
17.13
21.71
25.44
27.40
27.51
26.60
25.94
26.45
28.23
30.50
31.97
31.62
29.15
25.02
20.30
16.08
13.06
11.38
10.85
11.34
13.15
16.97
23.63
33.46
45.81
59.10
71.29
80.84
87.32
91.51
94.78
98.20
101.74
104.24
104.15
100.53
93.73
85.30
77.26
70.90
66.07
61.19
54.09
43.19
28.36
11.04
-6.42
-21.77
-33.76
-42.30
-47.97
-51.31
-52.35
-50.65
-46.01
-39.08
-31.71
-26.44
-25.53
-29.81
-38.32
-48.54
-57.56
-63.28
-65.18
-64.20
-62.03
-59.98
-58.37
-56.58
-53.64
-49.09
-43.45
-38.06
-34.44
-33.44
-34.81
-37.40
-39.70
-40.72
-40.39
-39.54
-39.38
-40.83
-44.09
-48.51
-52.98
-56.44
-58.26
-58.37
-56.95
-54.01
-49.20
-41.80
-31.18
-17.35
-1.36
14.93
29.42
40.55
47.79
51.64
53.14
53.12
51.86
49.19
44.99
39.69
34.34
30.27
28.39
28.59
29.59
29.41
26.12
18.69
7.33
-6.56
-20.98
-34.22
-45.42
-55.00
-64.22
-74.61
-87.10
-101.44
-116.16
-128.99
-137.69
-140.70
-137.54
-128.65
-115.02
-97.78
-78.01
-56.86
-35.69
-16.07
0.59
13.47
22.66
29.20
34.55
39.90
45.69
51.57
56.78
60.78
63.65
66.14
69.18
73.24
78.12
82.93
86.72
89.00
90.03
90.65
91.77
93.71
96.02
97.65
97.65
95.74
92.63
89.76
88.65
90.19
94.21
99.59
104.76
108.32
109.54
108.48
105.79
102.33
98.76
95.39
92.24
89.23
86.36
83.81
81.67
79.65
76.93
72.35
64.94
54.51
41.87
28.35
14.95
1.49
-13.50
-32.05
-55.57
-83.90
-115.13
-146.38
-174.89
-198.87
-217.66
-231.19
-239.43
-242.20
-239.42
-231.69
-220.60
-208.55
-197.91
-190.15
-185.31
-182.12
-178.62
-173.10
-164.70
-153.55
-140.30
-125.43
-108.91
-90.18
-68.69
-44.52
-18.68
7.03
30.58
50.45
66.05
77.68
86.27
92.77
97.80
101.43
103.35
103.30
101.36
98.13
94.68
92.08
91.00
91.36
92.45
93.41
93.76
93.79
94.38
96.43
100.14
104.65
108.29
109.52
107.72
103.64
99.09
95.90
94.98
95.84
96.96
96.81
94.68
90.99
86.81
82.99
79.46
75.24
69.17
60.93
51.52
43.01
37.53
36.03
37.61
39.82
39.86
35.98
28.30
18.62
9.38
2.29
-2.52
-6.31
-10.90
-17.45
-26.07
-36.04
-46.63
-57.97
-71.01
-86.90
-105.82
-126.21
-144.82
-157.76
-161.93
-156.20
-141.81
-121.70
-99.32
-77.25
-56.66
-37.38
-18.63
0.09
18.46
35.44
49.75
60.50
67.47
71.03
71.70
69.69
64.78
56.53
44.84
30.33
14.40
-1.13
-14.60
-25.16
-32.98
-39.05
-44.67
-50.74
-57.52
-64.55
-71.08
-76.58
-81.07
-85.04
-89.06
-93.25
-97.08
-99.52
-99.51
-96.63
-91.31
-84.75
-78.29
-72.84
-68.61
-65.21
-62.04
-58.73
-55.24
-51.68
-47.92
-43.43
-37.39
-29.11
-18.42
-6.01
6.84
18.72
28.74
36.84
43.79
50.75
58.70
67.92
77.85
87.22
94.46
98.07
96.90
90.45
78.90
63.18
44.83
25.75
7.99
-6.55
-16.34
-20.30
-17.93
-9.53
3.72
19.74
36.01
50.28
61.19
68.63
73.52
77.07
80.06
82.30
82.84
80.45
74.18
63.87
50.10
33.94
16.62
-0.83
-17.42
-32.29
-44.54
-53.41
-58.55
-60.29
-59.68
-58.22
-57.28
-57.60
-59.07
-60.89
-62.17
-62.35
-61.49
-60.09
-58.68
-57.50
-56.43
-55.12
-53.33
-51.14
-48.91
-47.05
-45.76
-44.83
-43.78
-42.07
-39.42
-35.96
-32.21
-28.74
-25.95
-23.86
-22.17
-20.45
-18.47
-16.38
-14.60
-13.67
-13.88
-15.09
-16.76
-18.14
-18.70
-18.31
-17.27
-16.09
-15.21
-14.72
-14.39
-13.87
-13.01
-11.99
-11.22
-11.02
-11.31
-11.51
-10.73
-8.13
-3.41
3.05
10.32
17.36
23.43
28.40
32.67
36.88
41.51
46.60
51.84
56.69
60.76
63.88
66.15
67.81
68.98
69.63
69.63
68.93
67.67
66.17
64.89
64.13
63.91
63.91
63.58
62.39
60.08
56.76
52.89
49.02
45.50
42.29
38.99
35.18
30.74
26.12
22.25
20.15
20.37
22.65
25.98
29.10
31.03
31.50
30.98
30.21
29.68
29.33
28.61
26.89
23.92
20.01
15.85
12.18
9.38
7.38
5.79
4.08
1.85
-1.20
-5.21
-10.34
-16.70
-24.26
-32.71
-41.35
-49.19
-55.20
-58.69
-59.52
-58.14
-55.29
-51.58
-47.09
-41.45
-34.20
-25.17
-14.83
-4.17
5.70
13.92
20.06
24.02
25.84
25.78
24.29
22.00
19.53
17.09
14.41
10.91
6.20
0.50
-5.32
-10.24
-13.72
-16.05
-18.06
-20.44
-23.08
-24.99
-24.83
-21.80
-16.27
-9.71
-4.00
-0.52
0.40
-0.46
-1.77
-2.36
-1.69
0.14
2.60
5.14
7.27
8.56
8.44
6.14
1.03
-7.02
-17.28
-28.31
-38.33
-46.04
-50.99
-53.67
-55.04
-55.90
-56.40
-56.03
-53.99
-49.70
-43.20
-35.14
-26.45
-17.88
-9.64
-1.38
7.55
17.69
28.99
40.63
51.04
58.61
62.38
62.60
60.82
59.18
59.42
62.10
66.54
71.57
76.25
80.39
84.28
87.80
89.76
87.81
79.32
62.64
38.17
8.39
-22.78
-51.40
-74.71
-91.60
-102.40
-108.02
-109.34
-106.93
-101.32
-93.40
-84.72
-77.17
-72.35
-70.79
-71.76
-73.59
-74.37
-72.80
-68.55
-62.25
-54.98
-47.66
-40.70
-33.82
-26.33
-17.58
-7.55
3.02
12.79
20.54
25.79
29.06
31.69
35.02
39.62
45.02
50.03
53.66
55.77
57.24
59.61
64.11
70.90
78.76
85.45
88.67
86.98
80.45
70.63
59.88
50.36
43.17
38.00
33.45
27.74
19.54
8.41
-5.18
-20.27
-35.82
-51.00
-65.10
-77.43
-87.22
-93.80
-96.99
-97.40
-96.53
-96.23
-97.88
-101.67
-106.21
-109.00
-107.52
-100.37
-87.95
-72.17
-55.55
-40.11
-26.81
-15.65
-6.34
1.06
6.04
8.00
6.89
3.50
-0.72
-4.33
-6.57
-7.54
-7.93
-8.40
-9.05
-9.44
-8.87
-6.92
-3.70
0.13
3.72
6.48
8.35
9.74
11.31
13.57
16.62
20.17
23.73
27.02
30.20
33.92
39.07
46.23
55.27
65.13
74.12
80.65
83.79
83.68
81.48
78.79
77.10
77.37
80.05
85.27
92.86
102.13
111.56
118.75
121.06
116.54
104.92
88.04
69.35
52.73
41.26
36.30
37.44
43.00
50.74
58.61
65.21
70.01
73.43
76.63
81.21
88.74
100.24
115.39
132.14
146.63
154.05
149.89
131.60
99.84
58.65
14.52
-25.89
-57.71
-78.93
-90.16
-93.57
-91.73
-86.82
-80.38
-73.43
-67.06
-62.24
-59.86
-60.28
-63.23
-68.27
-74.99
-83.49
-92.27
-98.89
-101.59
-100.92
-98.57
-95.79
-92.41
-86.96
-77.35
-62.06
-42.95
-21.18
0.85
20.53
36.12
47.18
54.44
59.15
62.13
63.34
62.35
59.05
54.14
48.92
44.88
42.86
42.51
42.10
39.29
32.44
20.99
5.80
-11.65
-29.35
-45.38
-58.37
-68.48
-76.68
-83.83
-90.37
-96.09
-101.20
-105.39
-108.01
-108.27
-107.04
-105.46
-104.01
-102.48
-100.60
-99.99
-102.02
-107.05
-113.68
-121.68
-130.33
-137.92
-142.40
-142.67
-140.91
-139.40
-138.98
-137.90
-135.70
-130.98
-121.18
-103.78
-66.62
-10.11
53.30
101.63
132.62
148.67
153.24
149.00
138.68
124.86
108.21
90.49
74.74
66.76
67.30
73.01
79.01
81.71
80.43
75.42
68.67
61.86
57.26
53.25
47.52
38.93
27.45
13.88
-1.61
-16.88
-30.06
-39.46
-46.38
-52.13
-56.25
-57.65
-54.89
-47.24
-34.67
-18.06
4.35
29.24
49.76
65.30
76.76
84.36
87.89
87.33
82.93
75.66
65.90
54.96
45.16
37.76
32.83
29.60
26.96
24.06
20.96
17.42
14.52
14.33
17.71
23.73
30.04
33.76
32.57
25.56
12.00
-6.59
-26.78
-45.30
-60.33
-71.52
-79.36
-84.87
-89.46
-96.56
-108.57
-125.42
-144.70
-162.53
-174.70
-177.82
-170.67
-144.51
-100.08
-47.39
0.89
37.63
62.29
77.13
84.27
85.12
80.44
70.02
55.55
40.68
29.21
22.95
21.21
22.26
23.28
22.03
17.10
9.95
4.32
3.88
9.81
20.51
32.31
40.55
41.59
33.59
17.76
-2.14
-21.18
-34.95
-40.17
-33.57
-15.96
6.40
24.36
31.67
27.91
18.15
6.67
-4.13
-13.76
-23.22
-33.46
-43.51
-51.05
-53.61
-49.83
-40.30
-26.74
-11.30
3.91
17.33
27.95
34.66
35.92
30.32
17.49
-0.71
-20.72
-38.90
-52.73
-61.16
-64.25
-62.36
-55.55
-43.82
-27.68
-8.94
9.30
23.76
32.49
35.62
34.94
32.86
31.07
30.14
29.74
29.14
27.79
25.55
22.49
18.74
14.40
9.65
4.79
0.19
-3.95
-7.70
-11.27
-14.71
-17.59
-19.13
-18.49
-15.30
-9.97
-3.62
2.44
7.30
10.75
13.29
15.66
18.36
21.28
23.83
25.28
25.24
23.88
21.89
20.15
19.28
19.35
19.86
20.06
19.35
17.60
15.23
12.93
11.24
10.19
9.30
7.84
5.29
1.70
-2.31
-5.84
-8.27
-9.56
-10.29
-11.34
-13.32
-16.24
-19.44
-21.97
-23.02
-22.39
-20.48
-17.93
-15.25
-12.43
-9.04
-4.54
1.26
7.90
14.42
19.81
23.43
25.32
26.03
26.25
26.29
25.88
24.36
21.15
16.21
10.29
4.62
0.47
-1.48
-1.42
-0.27
0.90
1.41
1.22
0.88
1.04
1.96
3.28
4.23
4.17
2.93
0.98
-0.76
-1.49
-0.96
0.39
1.68
2.13
1.39
-0.27
-2.20
-3.81
-4.95
-5.93
-7.34
-9.52
-12.30
-14.98
-16.64
-16.70
-15.20
-12.84
-10.57
-9.01
-8.12
-7.23
-5.49
-2.42
1.74
6.09
9.49
11.24
11.37
10.61
10.01
10.33
11.67
13.48
14.87
15.17
14.21
12.41
10.45
8.92
7.89
7.01
5.70
3.64
1.01
-1.48
-2.91
-2.62
-0.63
2.34
5.12
6.68
6.57
5.04
2.81
0.48
-1.83
-4.58
-8.43
-13.67
-19.76
-25.42
-29.10
-29.76
-27.37
-22.93
-17.94
-13.60
-10.33
-7.59
-4.41
-0.06
5.45
11.29
16.28
19.54
20.85
20.74
20.09
19.49
18.90
17.79
15.52
11.95
7.68
3.84
1.56
1.38
3.02
5.50
7.72
9.02
9.36
9.26
9.31
9.77
10.39
10.52
9.61
7.53
4.69
1.89
-0.10
-0.98
-1.07
-1.19
-2.18
-4.46
-7.77
-11.33
-14.22
-15.92
-16.51
-16.58
-16.72
-17.11
-17.32
-16.50
-13.89
-9.40
-3.76
1.69
5.67
7.54
7.50
6.48
5.50
5.15
5.36
5.56
5.21
4.21
2.96
2.22
2.57
4.04
6.06
7.72
8.32
7.72
6.47
5.53
5.73
7.27
9.59
11.58
12.20
10.94
8.06
4.40
0.86
-2.09
-4.60
-7.23
-10.47
-14.38
-18.43
-21.81
-23.78
-24.17
-23.42
-22.41
-21.95
-22.38
-23.35
-24.04
-23.55
-21.43
-17.88
-13.63
-9.54
-6.13
-3.42
-1.03
1.35
3.58
5.03
4.83
2.48
-1.81
-6.97
-11.50
-14.03
-13.94
-11.49
-7.61
-3.36
0.53
3.92
7.03
10.09
12.96
15.09
15.86
15.02
13.01
10.88
9.83
10.59
13.02
16.11
18.53
19.25
17.95
15.08
11.43
7.63
3.86
-0.07
-4.33
-8.63
-12.18
-13.87
-12.87
-9.11
-3.37
2.95
8.47
12.31
14.37
15.18
15.43
15.55
15.49
14.87
13.29
10.78
7.87
5.45
4.29
4.69
6.26
8.16
9.55
10.06
9.93
9.90
10.67
12.48
14.92
17.18
18.51
18.64
17.86
16.85
16.15
15.86
15.62
14.79
13.02
10.40
7.48
5.01
3.47
2.78
2.33
1.28
-0.91
-4.19
-7.88
-10.97
-12.63
-12.61
-11.34
-9.72
-8.49
-7.90
-7.62
-6.94
-5.34
-2.85
-0.13
1.88
2.54
1.82
0.30
-1.09
-1.66
-1.29
-0.45
0.12
-0.10
-1.19
-2.72
-4.05
-4.67
-4.57
-4.21
-4.24
-5.15
-6.98
-9.22
-11.07
-11.87
-11.47
-10.29
-9.15
-8.72
-9.22
-10.28
-11.12
-11.09
-10.07
-8.58
-7.56
-7.75
-9.35
-11.78
-14.02
-15.14
-14.79
-13.35
-11.66
-10.52
-10.26
-10.60
-10.95
-10.83
-10.25
-9.82
-10.36
-12.43
-15.99
-20.36
-24.50
-27.56
-29.24
-29.83
-29.93
-30.02
-30.17
-30.08
-29.37
-27.97
-26.31
-25.07
-24.80
-25.45
-26.23
-25.85
-23.07
-17.20
-8.40
2.33
13.65
24.20
33.04
39.81
44.66
47.99
50.28
51.87
52.98
53.73
54.21
54.50
54.64
54.57
54.09
52.93
50.89
48.00
44.52
40.95
37.76
35.19
33.18
31.44
29.70
27.90
26.28
25.30
25.29
26.18
27.41
28.03
27.22
24.66
20.70
16.29
12.42
9.66
7.94
6.67
5.19
3.25
1.09
-0.70
-1.68
-1.87
-1.80
-2.20
-3.48
-5.45
-7.46
-8.70
-8.78
-7.93
-6.89
-6.53
-7.36
-9.26
-11.62
-13.63
-14.75
-14.97
-14.72
-14.62
-15.07
-16.02
-16.93
-17.10
-16.04
-13.79
-10.91
-8.23
-6.38
-5.50
-5.20
-4.79
-3.78
-2.15
-0.39
0.86
1.18
0.71
0.01
-0.19
0.53
2.05
3.78
4.96
5.16
4.43
3.30
2.43
2.28
2.82
3.62
4.08
3.82
2.85
1.58
0.60
0.28
0.55
0.94
0.85
-0.06
-1.66
-3.38
-4.55
-4.83
-4.39
-3.90
-3.99
-4.93
-6.35
-7.49
-7.56
-6.30
-4.07
-1.71
-0.04
0.57
0.34
-0.10
-0.13
0.46
1.35
1.90
1.57
0.29
-1.50
-3.05
-3.71
-3.31
-2.19
-1.07
-0.48
-0.58
-1.03
-1.18
-0.52
1.00
2.96
4.66
5.55
5.54
5.06
4.82
5.45
7.11
9.41
11.57
12.89
13.08
12.38
11.44
10.90
11.01
11.53
11.83
11.30
9.72
7.38
4.95
3.11
2.18
1.96
1.93
1.56
0.72
-0.31
-0.93
-0.64
0.59
2.29
3.64
4.00
3.25
1.95
1.00
1.21
2.72
4.95
6.81
7.36
6.25
3.96
1.49
-0.19
-0.65
-0.17
0.59
1.05
1.20
1.54
2.79
5.36
8.94
12.59
15.14
15.77
14.33
11.32
7.59
3.77
0.03
-3.90
-8.34
-13.27
-18.11
-21.92
-23.79
-23.37
-21.06
-17.87
-14.90
-12.85
-11.65
-10.58
-8.70
-5.42
-0.91
3.94
7.94
10.14
10.21
8.53
5.82
2.72
-0.58
-4.25
-8.49
-13.12
-17.53
-20.78
-22.12
-21.30
-18.70
-15.00
-10.83
-6.42
-1.62
3.85
10.05
16.60
22.74
27.65
30.83
32.25
32.33
31.66
30.68
29.43
27.59
24.75
20.81
16.10
11.39
7.53
5.10
4.11
4.01
3.99
3.44
2.28
0.94
0.17
0.52
2.04
4.16
5.93
6.53
5.61
3.48
0.93
-1.26
-2.70
-3.62
-4.65
-6.34
-8.83
-11.66
-14.05
-15.31
-15.34
-14.67
-14.23
-14.75
-16.37
-18.52
-20.22
-20.70
-19.77
-17.97
-16.17
-15.08
-14.86
-15.10
-15.15
-14.58
-13.48
-12.40
-12.02
-12.63
-13.98
-15.32
-15.82
-14.97
-12.89
-10.22
-7.77
-6.06
-5.16
-4.65
-3.99
-2.85
-1.30
0.23
1.24
1.54
1.34
1.21
1.73
3.12
5.12
7.01
8.07
7.90
6.60
4.76
3.05
1.81
0.86
-0.38
-2.45
-5.48
-8.97
-11.99
-13.64
-13.55
-12.03
-9.89
-7.98
-6.67
-5.77
-4.72
-3.06
-0.81
1.52
3.20
3.81
3.53
3.12
3.55
5.46
8.82
12.91
16.68
19.18
19.88
18.77
16.21
12.70
8.67
4.42
0.12
-3.98
-7.54
-10.16
-11.50
-11.48
-10.46
-9.21
-8.70
-9.74
-12.63
-16.97
-21.79
-25.97
-28.70
-29.78
-29.68
-29.11
-28.74
-28.82
-29.22
-29.62
-29.87
-30.05
-30.43
-31.10
-31.83
-32.11
-31.38
-29.45
-26.69
-23.84
-21.70
-20.63
-20.33
-20.01
-18.80
-16.21
-12.41
-8.04
-3.88
-0.30
2.91
6.47
11.20
17.50
25.08
32.97
39.92
44.97
47.79
48.74
48.67
48.40
48.36
48.53
48.51
47.92
46.61
44.79
42.82
41.01
39.32
37.38
34.69
30.93
26.20
21.11
16.47
12.93
10.57
8.93
7.30
5.14
2.40
-0.44
-2.70
-3.88
-4.03
-3.62
-3.33
-3.55
-4.27
-5.04
-5.37
-4.98
-4.04
-3.00
-2.28
-1.98
-1.82
-1.33
-0.19
1.45
2.99
3.66
2.99
1.09
-1.40
-3.61
-4.95
-5.43
-5.65
-6.45
-8.43
-11.65
-15.58
-19.34
-22.13
-23.58
-23.89
-23.62
-23.29
-23.16
-23.07
-22.59
-21.29
-19.08
-16.24
-13.26
-10.58
-8.31
-6.23
-3.94
-1.19
1.87
4.70
6.56
6.92
5.75
3.60
1.40
0.02
-0.13
0.76
1.98
2.79
2.76
1.99
1.00
0.33
0.26
0.56
0.74
0.40
-0.47
-1.44
-1.82
-1.13
0.60
2.77
4.55
5.26
4.78
3.54
2.32
1.76
2.10
3.12
4.40
5.66
7.03
8.89
11.62
15.18
19.00
22.14
23.80
23.78
22.57
21.09
20.20
20.18
20.58
20.54
19.30
16.66
13.07
9.36
6.30
4.18
2.79
1.56
0.03
-1.94
-4.08
-5.92
-7.05
-7.37
-7.15
-6.91
-7.15
-8.06
-9.50
-10.97
-11.95
-12.16
-11.76
-11.24
-11.18
-11.88
-13.22
-14.66
-15.57
-15.52
-14.58
-13.25
-12.15
-11.74
-12.10
-12.90
-13.67
-14.10
-14.20
-14.30
-14.66
-15.26
-15.72
-15.43
-13.99
-11.48
-8.58
-6.23
-5.14
-5.38
-6.31
-6.88
-6.15
-3.81
-0.25
3.59
6.78
8.82
9.80
10.26
10.79
11.66
12.72
13.49
13.57
12.86
11.64
10.39
9.44
8.75
7.88
6.22
3.42
-0.42
-4.64
-8.29
-10.57
-11.13
-10.27
-8.74
-7.32
-6.54
-6.43
-6.63
-6.76
-6.65
-6.47
-6.57
-7.14
-7.97
-8.47
-7.90
-5.87
-2.59
1.15
4.27
5.96
6.00
4.86
3.44
2.55
2.58
3.33
4.24
4.76
4.67
4.12
3.51
3.06
2.70
2.00
0.53
-1.89
-4.94
-7.93
-10.13
-11.10
-10.96
-10.25
-9.63
-9.54
-9.95
-10.45
-10.50
-9.81
-8.59
-7.42
-6.95
-7.51
-8.86
-10.33
-11.20
-11.12
-10.36
-9.60
-9.53
-10.34
-11.58
-12.32
-11.67
-9.32
-5.71
-1.93
0.86
2.00
1.58
0.45
-0.17
0.77
3.90
9.48
17.71
28.92
43.42
61.02
80.53
99.75
116.07
127.48
133.50
135.43
135.70
136.81
140.24
145.95
152.76
159.04
163.55
165.71
165.58
163.46
159.59
153.94
146.34
136.53
124.31
109.56
92.23
72.34
50.21
26.62
3.01
-18.53
-35.71
-46.81
-51.46
-51.11
-48.70
-47.76
-51.11
-59.65
-72.04
-85.22
-95.62
-100.62
-99.65
-94.34
-87.86
-83.47
-83.01
-85.97
-89.58
-89.92
-83.64
-69.52
-49.01
-25.68
-3.78
13.30
23.89
28.04
26.70
20.97
11.63
-0.60
-14.59
-28.63
-40.62
-48.85
-52.68
-52.93
-51.54
-50.71
-51.91
-55.40
-60.14
-64.42
-66.70
-66.25
-63.45
-59.49
-55.75
-53.27
-52.29
-52.32
-52.52
-52.17
-51.06
-49.48
-47.99
-47.00
-46.57
-46.31
-45.71
-44.43
-42.47
-40.10
-37.65
-35.26
-32.87
-30.35
-27.82
-25.70
-24.56
-24.79
-26.25
-28.22
-29.63
-29.54
-27.61
-24.28
-20.51
-17.38
-15.62
-15.37
-16.26
-17.68
-19.16
-20.50
-21.79
-23.19
-24.72
-26.14
-27.01
-26.93
-25.81
-23.95
-22.01
-20.67
-20.31
-20.79
-21.47
-21.54
-20.41
-18.01
-14.76
-11.33
-8.25
-5.72
-3.63
-1.79
-0.22
0.81
0.99
0.23
-1.07
-2.18
-2.31
-1.03
1.44
4.43
7.05
8.69
9.26
9.12
8.81
8.68
8.63
8.26
7.15
5.28
3.20
1.79
1.85
3.50
6.05
8.22
8.75
7.01
3.30
-1.36
-5.72
-8.96
-10.89
-11.86
-12.45
-13.05
-13.69
-14.10
-13.96
-13.10
-11.75
-10.41
-9.65
-9.83
-10.90
-12.37
-13.53
-13.82
-13.16
-12.02
-11.20
-11.41
-12.87
-15.11
-17.21
-18.31
-18.06
-16.87
-15.69
-15.45
-16.60
-18.84
-21.33
-23.15
-23.86
-23.78
-23.87
-25.21
-28.53
-33.74
-40.03
-46.25
-51.40
-55.12
-57.66
-59.58
-61.24
-62.54
-63.03
-62.51
-61.56
-61.43
-63.19
-66.67
-70.24
-71.65
-69.63
-64.99
-60.39
-58.65
-60.65
-64.37
-65.72
-60.81
-48.22
-29.75
-9.38
8.99
23.32
33.83
42.06
49.41
56.18
61.68
65.03
65.88
64.82
63.18
62.40
63.37
66.07
69.60
72.62
73.89
72.82
69.66
65.35
61.07
57.65
55.32
53.63
51.79
49.08
45.24
40.55
35.67
31.30
27.89
25.41
23.51
21.77
19.93
18.04
16.38
15.21
14.61
14.34
13.99
13.21
11.88
10.20
8.63
7.62
7.44
8.00
8.88
9.53
9.53
8.75
7.43
6.06
5.15
5.07
5.92
7.59
9.87
12.56
15.47
18.38
20.99
22.90
23.71
23.21
21.51
19.02
16.31
13.90
12.04
10.68
9.58
8.52
7.43
6.44
5.78
5.61
5.90
6.42
6.87
7.04
6.89
6.54
6.26
6.28
6.61
7.08
7.36
7.16
6.43
5.42
4.52
4.11
4.21
4.54
4.60
4.02
2.79
1.21
-0.29
-1.48
-2.45
-3.54
-5.04
-6.90
-8.73
-9.93
-10.06
-9.16
-7.62
-6.10
-5.14
-4.89
-5.00
-4.89
-3.99
-2.12
0.45
3.33
6.13
8.71
11.23
13.98
17.16
20.74
24.36
27.53
30.04
31.84
33.01
33.69
34.09
34.33
34.55
34.70
34.70
35.04
35.99
37.43
38.95
40.16
40.83
41.15
41.35
41.59
43.10
46.40
51.02
55.79
59.67
62.26
64.20
66.18
68.68
73.67
81.87
92.38
103.30
113.05
121.07
128.48
136.53
146.30
160.77
180.75
203.91
225.45
240.50
245.75
241.17
228.25
195.13
139.62
70.21
1.64
-54.98
-94.61
-123.32
-145.36
-163.21
-178.39
-186.53
-184.61
-172.30
-151.77
-126.08
-98.34
-70.30
-44.47
-23.06
-5.69
8.31
17.95
21.39
17.35
5.94
-10.91
-32.44
-57.69
-83.64
-105.95
-122.59
-132.90
-137.16
-135.85
-129.59
-122.11
-117.02
-115.80
-116.47
-118.93
-123.52
-130.56
-139.16
-147.68
-157.37
-169.09
-182.01
-191.83
-197.97
-201.59
-204.70
-207.99
-194.03
-154.19
-92.33
-37.53
5.31
37.22
64.66
88.46
108.17
122.84
129.01
125.02
112.36
97.62
84.42
74.37
67.05
61.88
58.20
53.48
46.36
37.34
30.17
25.89
24.07
23.45
23.61
24.78
26.16
27.09
27.20
27.43
26.99
24.93
20.79
15.61
11.17
8.30
6.95
6.45
6.66
6.97
7.21
7.52
8.42
10.26
12.62
14.74
15.95
16.24
15.89
15.45
15.26
15.69
17.10
19.78
23.84
29.08
35.05
41.03
46.14
48.80
48.07
44.41
39.48
35.26
33.19
33.82
36.81
41.13
44.00
43.46
39.63
34.42
30.07
27.91
28.05
29.60
31.04
28.34
18.87
3.00
-16.54
-36.97
-57.07
-77.05
-97.94
-120.88
-149.83
-186.77
-229.80
-273.81
-313.34
-344.47
-365.19
-374.96
-353.93
-294.96
-209.05
-118.88
-42.70
12.80
49.07
70.58
81.91
86.51
84.29
75.50
63.00
51.71
45.74
46.53
53.12
63.27
74.05
80.69
80.68
75.31
68.75
65.21
66.84
73.48
83.41
94.26
102.30
105.08
102.37
95.84
87.57
79.23
72.09
67.03
64.55
63.90
64.08
64.53
65.20
66.13
67.12
67.60
66.78
63.99
58.85
51.93
44.81
39.52
37.64
39.42
43.73
48.53
51.81
52.40
50.37
46.87
43.39
40.98
39.71
38.77
37.02
33.66
28.63
22.65
16.71
11.43
6.72
1.91
-3.64
-9.92
-16.06
-20.50
-21.90
-19.90
-15.62
-11.22
-9.09
-10.72
-16.22
-24.40
-33.71
-43.30
-53.56
-65.75
-80.72
-97.80
-114.36
-126.57
-131.15
-127.03
-116.02
-102.02
-88.98
-79.11
-72.04
-65.50
-57.07
-45.94
-33.51
-22.65
-15.97
-14.42
-16.87
-20.88
-24.04
-25.24
-24.83
-23.92
-23.19
-22.25
-19.77
-14.40
-5.82
4.56
13.97
19.36
18.71
11.95
1.03
-10.92
-20.83
-26.82
-28.68
-27.63
-25.35
-23.19
-21.69
-20.67
-19.78
-18.99
-18.63
-19.02
-19.74
-19.54
-16.67
-9.73
1.51
15.81
30.82
43.99
53.55
58.99
60.92
60.51
58.73
55.91
51.78
45.94
38.43
29.99
22.02
16.07
13.19
13.56
16.47
20.60
24.76
28.34
31.33
34.13
37.05
39.97
42.31
43.35
42.59
40.18
36.77
33.34
30.65
28.89
27.68
26.32
24.20
21.16
17.52
13.80
10.35
7.16
3.91
0.37
-3.24
-6.18
-7.45
-6.35
-2.93
1.89
6.65
10.02
11.33
10.77
9.15
7.39
6.00
4.94
3.75
1.97
-0.52
-3.37
-5.97
-7.75
-8.53
-8.57
-8.44
-8.53
-8.90
-9.15
-8.67
-7.05
-4.32
-1.04
1.99
4.04
4.84
4.62
4.03
3.77
4.28
5.60
7.36
9.03
10.13
10.40
9.85
8.64
6.86
4.42
1.02
-3.56
-9.19
-15.20
-20.36
-23.22
-22.60
-18.06
-10.28
-0.91
7.77
13.38
14.07
9.11
-0.85
-13.86
-27.03
-37.07
-40.94
-36.29
-21.82
2.15
33.13
66.22
94.89
112.97
117.13
108.73
93.73
80.44
75.94
83.05
99.47
119.56
137.42
149.60
155.89
158.02
157.60
154.76
148.21
136.61
119.89
99.60
78.11
57.13
36.60
14.83
-10.02
-38.05
-66.57
-90.67
-105.32
-107.91
-99.93
-86.57
-74.65
-69.56
-73.17
-83.32
-95.23
-103.81
-105.66
-99.99
-88.36
-73.70
-59.16
-47.31
-39.63
-36.42
-36.91
-39.70
-43.36
-46.96
-50.46
-54.61
-60.47
-68.77
-79.51
-91.77
-104.00
-114.36
-121.29
-123.79
-121.79
-116.30
-109.19
-102.85
-99.42
-100.05
-104.54
-111.35
-118.25
-123.27
-125.39
-124.73
-122.05
-117.96
-112.53
-105.28
-95.63
-83.41
-69.25
-54.40
-40.19
-27.31
-15.53
-3.96
8.35
21.77
35.84
49.49
61.59
71.46
79.26
85.91
92.30
98.67
104.52
108.91
111.03
110.78
108.61
105.65
103.47
102.83
103.44
104.61
105.83
107.12
109.03
111.74
115.34
120.39
126.26
131.63
135.70
138.67
141.64
145.95
151.45
157.09
162.12
163.84
158.45
142.89
115.42
75.94
25.99
-32.45
-95.31
-155.28
-206.22
-244.48
-268.35
-278.13
-275.43
-254.77
-216.01
-173.90
-134.47
-98.70
-69.88
-50.80
-42.36
-43.06
-49.37
-58.16
-66.10
-68.65
-63.82
-52.10
-34.95
-14.57
6.34
25.23
39.39
47.88
52.83
56.20
58.90
61.19
62.60
62.33
59.97
55.22
48.75
42.56
37.78
34.26
31.36
28.39
25.11
22.02
19.86
19.71
22.84
29.50
38.89
49.66
60.47
70.40
79.18
87.02
94.30
101.28
107.65
112.68
115.90
117.48
118.27
119.42
121.54
124.16
125.75
124.30
118.38
107.76
93.57
77.61
61.44
45.63
29.82
13.21
-4.47
-22.59
-39.74
-54.44
-65.95
-74.72
-81.94
-88.78
-95.50
-101.13
-103.80
-101.63
-93.66
-80.38
-63.60
-45.77
-29.09
-14.92
-3.57
5.39
12.53
18.08
21.85
23.45
22.87
20.80
18.60
17.79
19.15
22.11
24.74
24.58
19.84
10.32
-2.40
-15.73
-27.39
-36.43
-43.32
-49.23
-54.88
-59.88
-62.89
-62.58
-58.67
-52.33
-45.65
-40.50
-37.72
-36.95
-37.27
-38.24
-40.52
-45.74
-55.63
-70.92
-90.70
-112.50
-132.97
-149.09
-159.18
-163.44
-163.73
-162.65
-162.51
-164.41
-167.93
-171.52
-173.39
-172.22
-167.56
-159.59
-148.72
-135.32
-119.58
-101.83
-82.79
-63.58
-45.57
-29.91
-17.26
-7.68
-0.60
4.89
9.80
14.88
20.34
25.95
31.18
35.65
39.47
43.26
47.76
53.35
59.64
65.73
70.64
73.83
75.45
76.11
76.38
76.36
75.63
73.65
70.18
65.61
60.83
56.76
53.89
52.03
50.38
47.97
44.06
38.44
31.54
24.14
17.14
11.26
6.95
4.48
3.96
5.27
8.00
11.40
14.40
15.93
15.19
12.02
6.92
0.83
-5.26
-10.78
-15.74
-20.57
-25.67
-30.87
-35.30
-37.51
-36.07
-30.28
-20.65
-8.86
2.75
12.09
18.02
20.61
20.87
20.06
19.00
17.81
16.14
13.69
10.69
8.01
6.68
7.26
9.30
11.54
12.47
11.30
8.33
4.92
2.70
2.79
5.24
9.23
13.70
18.08
22.59
27.98
35.02
43.85
53.81
63.73
72.55
79.77
85.58
90.67
95.74
101.17
106.88
112.47
117.53
121.77
125.13
127.64
129.33
130.18
130.20
129.48
128.23
126.72
125.07
123.24
121.00
118.01
113.85
108.08
100.20
89.72
76.22
59.56
39.97
18.12
-4.87
-27.50
-47.80
-63.54
-72.57
-73.37
-65.68
-51.07
-32.77
-15.00
-1.74
4.44
3.01
-4.36
-14.59
-24.29
-30.89
-33.25
-31.44
-26.33
-19.21
-11.44
-4.43
0.40
1.72
-1.24
-8.03
-16.78
-24.95
-30.87
-34.89
-39.24
-46.94
-60.05
-78.73
-100.80
-122.25
-138.71
-147.21
-146.67
-137.57
-121.32
-99.53
-74.39
-48.05
-22.03
3.13
27.01
48.20
64.15
73.12
76.11
75.30
71.98
65.97
56.51
42.29
24.37
7.37
-2.47
1.12
20.54
52.74
90.24
123.46
142.10
140.48
119.90
84.83
43.84
4.46
-29.39
-57.75
-83.45
-112.64
-149.45
-193.24
-239.15
-280.61
-312.84
-333.78
-343.82
-328.64
-284.83
-222.83
-159.98
-108.11
-69.14
-39.96
-17.56
-0.88
7.89
7.34
-1.53
-14.16
-24.24
-26.82
-20.48
-6.50
12.87
36.94
62.56
86.56
106.85
122.30
132.28
136.82
137.03
135.01
132.72
129.63
124.03
114.65
101.81
87.49
74.72
66.65
65.43
71.29
81.97
94.23
105.49
114.74
122.33
129.23
136.18
142.84
147.72
148.42
143.03
131.31
114.97
96.95
80.11
66.01
54.17
42.66
29.35
13.19
-5.10
-23.26
-38.66
-49.58
-56.06
-60.02
-63.67
-68.30
-73.69
-78.63
-81.95
-83.59
-84.82
-87.75
-94.89
-106.97
-122.44
-138.13
-150.94
-159.08
-162.57
-162.58
-160.49
-158.41
-156.98
-155.36
-152.27
-147.40
-141.66
-136.85
-134.02
-132.89
-133.38
-133.96
-132.33
-126.71
-117.04
-104.64
-91.26
-77.57
-54.23
-19.28
21.09
56.65
80.22
89.66
89.18
82.81
74.11
65.72
57.13
47.61
36.69
24.29
10.49
-4.33
-19.72
-34.60
-47.70
-59.06
-68.19
-73.89
-74.69
-69.93
-60.18
-47.37
-33.62
-20.75
-10.52
-3.46
1.14
4.71
8.62
13.86
20.78
29.34
38.97
48.24
55.82
60.95
63.76
65.03
65.73
66.49
67.51
68.57
69.21
69.14
68.37
67.06
65.22
62.63
59.00
54.33
49.10
44.25
40.83
39.67
41.03
44.59
49.61
55.35
61.40
67.77
74.71
82.38
90.48
98.24
104.62
108.65
109.81
108.11
103.83
97.34
88.90
78.70
67.04
54.46
41.67
29.34
17.81
6.99
-3.55
-14.31
-25.52
-37.01
-48.24
-58.41
-66.80
-72.91
-76.59
-78.08
-77.78
-76.09
-73.17
-68.93
-63.06
-55.22
-45.18
-32.88
-18.49
-2.35
14.93
32.48
49.21
63.96
75.76
84.11
88.96
90.69
89.80
86.67
81.47
74.15
64.64
53.00
39.54
24.89
9.93
-4.36
-17.16
-27.97
-36.75
-43.80
-49.57
-54.39
-58.29
-61.11
-62.65
-62.91
-62.22
-61.13
-60.16
-59.49
-58.91
-57.94
-56.14
-53.41
-50.13
-46.91
-44.35
-42.68
-41.74
-41.11
-40.30
-39.10
-37.54
-35.82
-34.17
-32.59
-30.87
-28.69
-25.73
-21.85
-17.16
-12.01
-6.89
-2.18
1.95
5.57
8.94
12.28
15.63
18.74
21.22
22.73
23.22
22.96
22.45
22.22
22.58
23.56
24.94
26.43
27.84
29.09
30.23
31.30
32.23
32.88
33.08
32.72
31.86
30.65
29.32
28.03
26.79
25.50
23.92
21.89
19.39
16.59
13.81
11.33
9.27
7.49
5.64
3.35
0.48
-2.76
-5.89
-8.29
-9.58
-9.67
-8.83
-7.49
-5.99
-4.44
-2.81
-1.00
0.93
2.83
4.44
5.62
6.40
6.97
7.51
8.08
8.58
8.85
8.77
8.39
7.91
7.57
7.57
7.97
8.67
9.48
10.14
10.42
10.17
9.41
8.27
6.96
5.66
4.44
3.29
2.12
0.89
-0.32
-1.42
-2.32
-3.01
-3.63
-4.30
-5.14
-6.13
-7.20
-8.28
-9.34
-10.42
-11.57
-12.74
-13.76
-14.35
-14.32
-13.56
-12.15
-10.32
-8.31
-6.31
-4.42
-2.63
-0.92
0.75
2.35
3.82
5.01
5.83
6.20
6.17
5.89
5.58
5.40
5.36
5.34
5.13
4.62
3.90
3.27
3.06
3.46
4.32
5.32
6.05
6.27
6.00
5.48
4.99
4.73
4.74
4.92
5.15
5.32
5.30
4.90
3.83
1.79
-1.31
-5.18
-8.99
-11.64
-12.04
-9.62
-4.59
2.06
8.86
14.40
17.85
19.11
18.73
17.52
16.19
15.07
14.10
13.09
11.90
10.67
9.72
9.40
9.87
10.99
12.45
13.99
15.52
17.16
19.15
21.69
24.73
27.92
30.74
32.70
33.55
33.32
32.14
30.19
27.52
24.09
19.80
14.65
8.87
3.13
-1.83
-5.37
-7.21
-7.54
-7.00
-6.44
-6.57
-7.63
-9.06
-10.09
-10.25
-9.62
-8.70
-8.16
-8.45
-9.60
-11.20
-12.13
-11.94
-11.18
-10.94
-11.94
-13.88
-15.50
-15.14
-11.52
-3.41
8.72
23.01
37.19
49.90
61.01
71.08
80.65
89.85
99.54
109.45
118.10
123.25
122.91
115.96
102.17
82.29
50.76
8.80
-36.28
-75.24
-102.82
-118.97
-126.31
-127.83
-125.95
-122.45
-117.41
-110.92
-103.10
-93.76
-82.18
-67.84
-51.29
-34.34
-19.53
-7.29
2.18
8.93
13.25
15.63
16.64
16.71
16.13
15.28
15.11
16.12
18.08
20.15
21.44
21.37
19.75
16.60
13.09
10.36
8.95
8.68
8.84
8.63
7.59
5.75
3.60
1.86
1.04
1.17
1.75
2.02
1.42
-0.19
-2.42
-4.62
-6.15
-6.83
-6.91
-6.91
-7.26
-8.12
-9.29
-10.26
-10.56
-10.06
-9.20
-8.70
-9.19
-10.85
-13.28
-15.69
-17.33
-18.02
-18.20
-18.77
-20.46
-23.35
-26.74
-29.45
-30.51
-29.67
-27.56
-25.31
-23.83
-23.34
-23.22
-22.43
-20.22
-16.62
-12.51
-9.18
-7.56
-7.71
-8.84
-9.69
-9.26
-7.46
-5.04
-3.22
-2.90
-4.13
-6.05
-7.32
-6.94
-4.85
-2.00
0.13
0.37
-1.45
-4.41
-6.94
-7.73
-6.49
-4.11
-2.14
-1.83
-3.46
-6.16
-8.42
-9.04
-7.86
-5.78
-4.19
-4.05
-5.29
-6.87
-7.37
-5.93
-2.83
0.64
2.90
3.00
1.18
-1.26
-2.70
-2.10
0.33
3.31
5.22
5.07
3.02
0.30
-1.54
-1.55
0.07
2.07
3.00
2.04
-0.50
-3.34
-4.99
-4.63
-2.63
-0.25
1.02
0.40
-1.79
-4.27
-5.53
-4.81
-2.47
0.12
1.47
0.80
-1.54
-4.27
-5.94
-5.83
-4.34
-2.76
-2.37
-3.67
-6.07
-8.13
-8.48
-6.66
-3.43
-0.41
0.90
-0.10
-2.77
-5.51
-6.79
-5.94
-3.58
-1.15
-0.05
-0.77
-2.69
-4.43
-4.72
-3.30
-0.96
0.83
0.98
-0.69
-3.23
-5.18
-5.39
-3.72
-1.10
0.97
1.36
-0.14
-2.76
-5.14
-6.19
-5.64
-4.18
-2.98
-3.00
-4.48
-6.83
-8.95
-9.94
-9.63
-8.65
-8.06
-8.69
-10.61
-13.08
-14.91
-15.13
-13.62
-11.09
-8.83
-7.87
-8.44
-9.84
-10.77
-10.11
-7.60
-3.99
-0.68
1.15
1.17
0.10
-0.72
-0.10
2.17
5.30
7.83
8.58
7.28
4.78
2.60
2.04
3.43
5.95
8.08
8.57
7.18
4.77
2.84
2.55
3.99
6.14
7.37
6.56
3.68
-0.11
-3.16
-4.28
-3.47
-1.81
-0.89
-1.80
-4.54
-8.09
-10.98
-12.15
-11.54
-10.07
-9.05
-9.36
-10.99
-13.09
-14.41
-14.10
-12.15
-9.43
-7.14
-6.11
-6.34
-7.01
-6.91
-5.21
-2.00
1.70
4.51
5.49
4.69
3.20
2.54
3.75
6.78
10.44
13.12
13.71
12.18
9.63
7.62
7.29
8.67
10.74
12.10
11.83
10.03
7.74
6.36
6.68
8.42
10.36
11.06
9.75
6.75
3.36
1.08
0.70
1.89
3.37
3.78
2.37
-0.51
-3.68
-5.78
-6.11
-4.99
-3.54
-2.99
-3.93
-5.99
-7.99
-8.70
-7.55
-5.00
-2.32
-0.77
-0.91
-2.29
-3.66
-3.74
-1.97
1.12
4.24
6.09
6.05
4.56
2.83
2.17
3.20
5.54
7.95
9.16
8.56
6.54
4.31
3.14
3.54
5.06
6.48
6.68
5.29
2.90
0.72
-0.19
0.42
1.83
2.74
2.13
-0.16
-3.42
-6.34
-7.90
-7.89
-7.08
-6.72
-7.80
-10.47
-13.94
-16.87
-18.19
-17.75
-16.29
-15.16
-15.31
-16.82
-18.78
-19.85
-18.97
-16.10
-12.18
-8.69
-6.73
-6.45
-7.01
-7.05
-5.51
-2.26
1.80
5.24
6.95
6.77
5.51
4.58
5.07
7.21
10.22
12.78
13.86
13.32
11.89
10.81
10.93
12.24
13.83
14.44
13.24
10.35
6.86
4.26
3.55
4.68
6.52
7.42
6.21
2.78
-1.83
-5.97
-8.34
-8.71
-8.05
-7.97
-9.71
-13.44
-18.13
-22.06
-23.84
-23.10
-20.70
-18.13
-16.60
-16.38
-16.64
-16.05
-13.67
-9.55
-4.80
-0.90
1.17
1.45
1.01
1.23
2.98
6.11
9.52
11.83
12.26
11.08
9.50
8.98
10.36
13.32
16.51
18.32
17.78
15.07
11.46
8.60
7.54
8.26
9.66
10.35
9.41
6.90
3.74
1.15
-0.08
-0.09
0.22
-0.28
-2.28
-5.66
-9.54
-12.78
-14.65
-15.21
-15.27
-15.79
-17.21
-19.18
-20.55
-20.16
-17.47
-13.02
-8.12
-4.16
-1.82
-0.81
-0.06
1.51
4.29
7.77
10.77
12.31
12.15
10.99
10.13
10.68
12.90
16.05
18.77
19.94
19.25
17.41
15.70
15.20
16.10
17.67
18.63
18.04
15.78
12.63
9.83
8.37
8.42
9.29
9.79
9.04
6.88
3.92
1.25
-0.29
-0.62
-0.49
-1.15
-3.47
-7.52
-12.40
-16.65
-19.07
-19.35
-18.17
-16.84
-16.44
-17.21
-18.43
-18.76
-17.08
-13.21
-8.05
-3.25
-0.20
0.60
-0.12
-0.85
-0.18
2.32
5.92
9.10
10.57
10.02
8.33
7.07
7.56
10.08
13.69
16.84
18.26
17.64
15.78
14.09
13.68
14.73
16.40
17.35
16.64
14.28
11.24
8.93
8.34
9.38
10.92
11.33
9.48
5.30
-0.16
-5.26
-8.72
-10.30
-10.83
-11.63
-13.66
-16.90
-20.37
-22.62
-22.65
-20.41
-16.89
-13.46
-11.10
-9.84
-8.83
-6.87
-3.26
1.70
6.80
10.57
12.09
11.53
10.08
9.32
10.37
13.21
16.76
19.52
20.45
19.56
17.85
16.72
17.05
18.69
20.53
21.22
19.96
17.01
13.53
10.92
9.98
10.51
11.47
11.65
10.37
7.83
4.95
2.77
1.78
1.63
1.36
0.01
-2.80
-6.65
-10.50
-13.33
-14.71
-15.06
-15.37
-16.56
-18.90
-21.83
-24.19
-24.95
-23.69
-20.91
-17.66
-14.95
-13.20
-12.05
-10.60
-8.01
-4.10
0.56
4.85
7.79
9.03
9.02
8.80
9.37
11.07
13.42
15.37
16.00
15.06
13.20
11.57
11.24
12.50
14.69
16.55
17.00
15.67
13.09
10.40
8.62
8.11
8.38
8.42
7.38
5.05
1.99
-0.80
-2.48
-2.87
-2.60
-2.77
-4.20
-7.08
-10.79
-14.27
-16.67
-17.78
-18.15
-18.67
-19.96
-21.87
-23.56
-23.82
-21.80
-17.52
-11.95
-6.62
-2.77
-0.81
-0.12
0.58
2.42
5.71
9.74
13.22
15.05
15.07
14.14
13.62
14.54
16.89
19.64
21.35
21.04
18.78
15.68
13.24
12.49
13.44
15.07
15.94
15.07
12.42
8.93
5.97
4.57
4.83
5.86
6.32
5.18
2.29
-1.57
-5.08
-7.26
-7.97
-8.02
-8.62
-10.67
-14.16
-18.19
-21.37
-22.59
-21.63
-19.22
-16.64
-14.92
-14.29
-14.10
-13.19
-10.66
-6.49
-1.59
2.64
5.17
5.85
5.52
5.46
6.55
8.82
11.41
13.14
13.39
12.37
11.04
10.51
11.27
12.89
14.28
14.32
12.61
9.72
6.86
5.27
5.41
6.81
8.18
8.27
6.45
3.07
-0.73
-3.72
-5.24
-5.55
-5.64
-6.69
-9.33
-13.36
-17.77
-21.33
-23.26
-23.61
-23.14
-22.86
-23.30
-24.19
-24.58
-23.36
-20.03
-15.00
-9.42
-4.54
-1.05
1.18
3.00
5.29
8.40
11.94
14.93
16.53
16.46
15.23
13.88
13.49
14.51
16.61
18.81
20.09
19.86
18.30
16.22
14.53
13.73
13.55
13.20
11.86
9.25
5.84
2.58
0.41
-0.38
-0.32
-0.48
-1.85
-4.76
-8.77
-12.85
-15.96
-17.72
-18.49
-19.18
-20.63
-23.09
-26.01
-28.35
-29.16
-28.06
-25.49
-22.33
-19.32
-16.61
-13.72
-9.92
-4.83
1.15
6.95
11.24
13.24
13.13
11.96
11.20
11.93
14.26
17.35
19.86
20.71
19.72
17.61
15.64
14.86
15.51
16.90
17.80
17.26
15.07
11.95
9.12
7.58
7.52
8.18
8.29
6.87
3.71
-0.44
-4.30
-6.81
-7.78
-7.94
-8.61
-10.85
-14.81
-19.66
-23.92
-26.31
-26.41
-24.80
-22.73
-21.23
-20.54
-20.01
-18.45
-14.98
-9.63
-3.43
2.09
5.73
7.28
7.57
7.93
9.44
12.30
15.75
18.55
19.75
19.17
17.57
16.16
15.90
16.97
18.64
19.68
19.15
16.91
13.71
10.86
9.36
9.34
10.01
10.07
8.56
5.44
1.57
-1.69
-3.40
-3.58
-3.20
-3.61
-5.77
-9.72
-14.52
-18.83
-21.57
-22.51
-22.24
-21.75
-21.73
-22.15
-22.23
-20.88
-17.48
-12.24
-6.29
-1.06
2.48
4.24
5.06
6.17
8.38
11.60
14.89
17.07
17.40
16.10
14.21
13.09
13.56
15.49
17.83
19.26
18.93
16.93
14.24
12.10
11.21
11.30
11.31
10.08
7.14
2.99
-1.09
-3.78
-4.57
-4.03
-3.48
-4.22
-6.81
-10.80
-15.07
-18.52
-20.68
-21.86
-22.90
-24.42
-26.40
-28.07
-28.33
-26.40
-22.33
-16.98
-11.64
-7.30
-4.15
-1.68
1.00
4.49
8.69
12.84
15.91
17.29
17.05
15.94
15.00
15.03
16.15
17.81
19.08
19.21
18.05
16.11
14.30
13.41
13.55
14.09
13.97
12.34
9.09
5.02
1.38
-0.77
-1.21
-0.67
-0.51
-1.83
-5.02
-9.55
-14.26
-18.07
-20.52
-21.94
-23.19
-24.98
-27.47
-30.05
-31.62
-31.19
-28.47
-24.00
-18.96
-14.38
-10.69
-7.54
-4.03
0.58
6.27
12.17
16.95
19.56
19.81
18.51
17.05
16.69
17.85
19.99
21.92
22.60
21.71
19.83
18.08
17.44
18.06
19.22
19.66
18.47
15.56
11.78
8.46
6.53
6.01
6.01
5.22
2.77
-1.27
-6.01
-10.15
-12.78
-13.95
-14.50
-15.65
-18.17
-21.95
-26.05
-29.13
-30.16
-29.01
-26.39
-23.45
-21.01
-19.14
-17.12
-13.96
-9.07
-2.74
3.86
9.27
12.52
13.55
13.28
13.05
13.87
15.84
18.21
19.83
19.88
18.43
16.39
14.98
15.00
16.28
17.76
18.11
16.54
13.29
9.55
6.74
5.73
6.32
7.30
7.17
4.96
0.68
-4.69
-9.70
-13.27
-15.19
-16.09
-17.04
-18.86
-21.72
-24.99
-27.68
-29.06
-29.06
-28.37
-27.89
-28.12
-28.70
-28.53
-26.36
-21.57
-14.66
-7.08
-0.49
4.10
6.77
8.52
10.64
13.85
17.91
21.76
24.23
24.70
23.48
21.64
20.37
20.32
21.23
22.10
21.85
20.07
17.22
14.53
13.21
13.70
15.41
16.91
16.80
14.45
10.34
5.80
2.31
0.63
0.44
0.50
-0.52
-3.36
-7.70
-12.43
-16.33
-18.77
-20.14
-21.47
-23.62
-26.67
-29.68
-31.12
-29.80
-25.54
-19.36
-12.98
-7.82
-4.41
-2.18
-0.01
3.08
7.26
11.83
15.61
17.73
18.07
17.30
16.57
16.80
18.19
20.12
21.53
21.53
19.93
17.28
14.64
12.97
12.57
12.99
13.19
12.29
9.96
6.66
3.43
1.26
0.51
0.65
0.55
-0.85
-3.98
-8.35
-12.80
-16.18
-18.00
-18.72
-19.50
-21.41
-24.83
-29.11
-32.85
-34.58
-33.57
-30.10
-25.32
-20.50
-16.36
-12.80
-9.07
-4.41
1.35
7.55
12.94
16.47
17.77
17.45
16.73
16.84
18.28
20.62
22.76
23.61
22.74
20.59
18.29
16.95
17.01
17.99
18.73
18.11
15.76
12.22
8.77
6.58
6.08
6.62
6.87
5.63
2.51
-1.78
-5.85
-8.44
-9.13
-8.61
-8.27
-9.36
-12.32
-16.58
-20.91
-24.13
-25.78
-26.27
-26.50
-27.15
-28.16
-28.67
-27.44
-23.60
-17.26
-9.54
-2.14
3.48
6.77
8.24
9.10
10.51
12.91
15.81
18.16
19.07
18.34
16.62
15.09
14.70
15.63
17.19
18.23
17.89
16.10
13.64
11.61
10.82
11.24
12.07
12.17
10.77
7.89
4.34
1.28
-0.50
-0.96
-0.88
-1.35
-3.20
-6.47
-10.44
-13.99
-16.26
-17.10
-17.17
-17.55
-19.04
-21.71
-24.77
-26.94
-27.15
-25.08
-21.34
-16.99
-12.98
-9.62
-6.49
-2.87
1.57
6.39
10.53
12.85
12.91
11.23
9.15
8.07
8.72
10.75
13.00
14.25
13.83
12.07
9.98
8.73
8.87
10.07
11.31
11.45
9.92
6.98
3.61
0.94
-0.44
-0.70
-0.71
-1.40
-3.23
-5.94
-8.74
-10.73
-11.57
-11.67
-11.98
-13.43
-16.34
-20.17
-23.73
-25.76
-25.62
-23.57
-20.61
-17.85
-15.83
-14.28
-12.22
-8.72
-3.54
2.59
8.26
12.16
13.72
13.33
12.06
11.01
10.71
10.95
11.08
10.54
9.30
7.82
6.83
6.82
7.66
8.65
8.83
7.59
5.02
1.89
-0.69
-1.84
-1.45
-0.22
0.67
0.26
-1.71
-4.69
-7.60
-9.47
-10.02
-9.73
-9.62
-10.59
-12.94
-16.19
-19.34
-21.39
-21.92
-21.18
-19.92
-18.78
-17.91
-16.79
-14.57
-10.60
-4.97
1.40
7.23
11.44
13.73
14.63
15.14
16.11
17.70
19.35
20.12
19.38
17.20
14.35
12.01
11.03
11.54
12.83
13.78
13.55
12.00
9.75
7.87
7.15
7.70
8.88
9.63
9.19
7.43
4.93
2.62
1.26
0.94
1.14
1.00
-0.10
-2.24
-4.94
-7.49
-9.40
-10.78
-12.28
-14.67
-18.28
-22.65
-26.60
-28.73
-28.11
-24.80
-19.81
-14.61
-10.32
-7.30
-5.04
-2.66
0.41
4.00
7.29
9.28
9.48
8.27
6.76
6.23
7.38
9.95
12.86
14.84
15.08
13.66
11.50
9.78
9.38
10.41
12.19
13.72
14.17
13.35
11.74
10.21
9.48
9.74
10.57
11.25
11.26
10.60
9.77
9.47
10.00
11.03
11.64
10.86
8.24
4.19
-0.21
-3.69
-5.46
-5.58
-4.82
-4.15
-4.06
-4.38
-4.31
-3.01
-0.18
3.63
7.27
9.62
10.22
9.43
8.29
7.84
8.55
10.04
11.35
11.54
10.27
7.98
5.72
4.56
4.95
6.49
8.10
8.69
7.70
5.41
2.78
0.92
0.38
0.86
1.38
0.89
-1.05
-4.04
-6.94
-8.60
-8.56
-7.32
-6.13
-6.19
-7.98
-11.04
-14.22
-16.38
-17.15
-17.09
-17.38
-19.01
-22.15
-26.06
-29.42
-31.09
-30.71
-28.88
-26.74
-25.27
-24.72
-24.50
-23.48
-20.73
-16.09
-10.42
-5.20
-1.74
-0.55
-1.14
-2.24
-2.59
-1.62
0.33
2.23
3.10
2.60
1.23
0.03
-0.07
1.06
2.74
3.78
3.29
1.18
-1.78
-4.31
-5.48
-5.18
-4.25
-3.98
-5.28
-8.18
-11.76
-14.69
-15.94
-15.40
-13.90
-12.77
-12.97
-14.70
-17.24
-19.33
-19.92
-18.65
-16.01
-12.97
-10.33
-8.29
-6.37
-3.71
0.28
5.50
11.03
15.63
18.35
19.05
18.47
17.84
18.22
19.83
22.02
23.62
23.69
22.01
19.27
16.67
15.22
15.16
15.86
16.18
15.13
12.46
8.75
5.11
2.53
1.28
0.84
0.18
-1.64
-4.91
-9.09
-13.20
-16.32
-18.24
-19.54
-21.19
-23.85
-27.36
-30.67
-32.35
-31.38
-27.77
-22.58
-17.42
-13.48
-11.04
-9.37
-7.30
-4.02
0.35
4.84
8.17
9.53
9.04
7.65
6.65
6.89
8.35
10.21
11.37
11.18
9.78
8.02
6.95
7.14
8.36
9.66
9.94
8.58
5.79
2.52
-0.04
-1.14
-0.83
-0.01
0.13
-1.30
-4.44
-8.60
-12.66
-15.67
-17.34
-18.12
-18.76
-19.76
-20.96
-21.51
-20.39
-16.99
-11.65
-5.51
0.02
4.00
6.34
7.82
9.48
11.92
14.94
17.62
18.92
18.37
16.37
13.98
12.45
12.44
13.73
15.35
16.19
15.62
13.80
11.61
10.11
9.92
10.84
11.93
12.09
10.64
7.68
4.04
0.81
-1.35
-2.55
-3.60
-5.46
-8.62
-12.82
-17.13
-20.50
-22.40
-23.04
-23.19
-23.64
-24.61
-25.60
-25.60
-23.73
-19.75
-14.32
-8.67
-3.99
-0.85
1.01
2.41
4.27
6.98
10.20
13.05
14.69
14.79
13.73
12.41
11.70
11.92
12.68
13.08
12.34
10.25
7.30
4.52
2.82
2.57
3.33
4.18
4.32
3.54
2.25
1.30
1.31
2.25
3.42
3.70
2.32
-0.81
-4.95
-8.90
-11.62
-12.77
-12.76
-12.53
-12.80
-13.62
-14.27
-13.63
-10.87
-6.05
-0.24
4.95
8.23
9.27
8.80
8.24
8.80
10.84
13.68
16.09
17.12
16.65
15.44
14.74
15.45
17.51
19.92
21.23
20.47
17.66
13.83
10.54
8.96
9.20
10.29
10.68
9.24
5.84
1.44
-2.39
-4.37
-4.28
-3.00
-2.17
-3.15
-6.39
-11.23
-16.23
-19.98
-21.85
-22.16
-21.91
-21.94
-22.38
-22.50
-21.09
-17.26
-11.03
-3.55
3.40
8.37
10.89
11.67
12.18
13.73
16.71
20.34
23.17
23.95
22.42
19.44
16.60
15.25
15.78
17.39
18.64
18.33
16.22
13.17
10.61
9.69
10.51
12.04
12.66
11.14
7.30
2.18
-2.51
-5.42
-6.22
-5.82
-5.80
-7.46
-11.09
-15.90
-20.41
-23.37
-24.39
-24.09
-23.52
-23.46
-23.81
-23.68
-21.86
-17.68
-11.46
-4.47
1.73
6.04
8.33
9.39
10.39
12.16
14.68
17.18
18.62
18.37
16.58
14.18
12.39
12.04
13.12
14.80
15.92
15.62
13.87
11.45
9.51
8.88
9.51
10.47
10.48
8.67
5.09
0.77
-2.84
-4.67
-4.67
-3.77
-3.36
-4.41
-7.00
-10.28
-13.04
-14.48
-14.68
-14.56
-15.23
-17.31
-20.44
-23.38
-24.62
-23.21
-19.26
-13.97
-8.89
-5.17
-2.98
-1.54
0.38
3.53
7.70
11.77
14.39
14.81
13.35
11.21
9.84
10.05
11.58
13.29
13.91
12.82
10.43
7.95
6.72
7.37
9.45
11.67
12.64
11.58
8.75
5.29
2.53
1.23
1.19
1.42
0.82
-1.13
-4.05
-6.89
-8.51
-8.50
-7.39
-6.41
-6.79
-9.03
-12.70
-16.61
-19.48
-20.59
-20.07
-18.69
-17.28
-16.17
-15.03
-13.04
-9.51
-4.42
1.42
6.67
10.11
11.29
10.70
9.50
8.89
9.39
10.59
11.48
11.17
9.45
6.99
5.02
4.52
5.68
7.71
9.30
9.38
7.70
4.96
2.35
0.86
0.70
1.24
1.41
0.43
-1.76
-4.51
-6.79
-7.92
-7.92
-7.58
-7.97
-9.84
-13.13
-17.04
-20.42
-22.38
-22.74
-22.07
-21.32
-21.09
-21.30
-21.23
-19.90
-16.68
-11.76
-6.11
-1.03
2.58
4.61
5.73
7.00
9.18
12.21
15.27
17.15
17.11
15.27
12.60
10.52
10.01
11.18
13.15
14.63
14.66
13.09
10.63
8.42
7.33
7.49
8.22
8.40
7.15
4.28
0.38
-3.41
-6.07
-7.21
-7.25
-7.25
-8.21
-10.51
-13.75
-16.87
-18.88
-19.47
-19.20
-19.20
-20.41
-22.92
-25.88
-27.84
-27.63
-24.97
-20.69
-16.21
-12.67
-10.32
-8.42
-5.78
-1.69
3.54
8.59
11.77
12.07
9.75
6.22
3.47
2.91
4.76
8.03
11.08
12.68
12.60
11.57
10.83
11.23
12.66
14.10
14.22
12.23
8.38
3.87
0.25
-1.53
-1.60
-1.11
-1.47
-3.54
-7.13
-11.15
-14.22
-15.56
-15.41
-14.88
-15.33
-17.54
-21.21
-25.11
-27.56
-27.41
-24.55
-19.96
-15.13
-11.27
-8.66
-6.63
-4.02
-0.04
5.15
10.44
14.35
15.94
15.35
13.73
12.69
13.29
15.52
18.33
20.24
20.25
18.35
15.53
13.23
12.50
13.42
15.11
16.22
15.78
13.65
10.58
7.75
6.03
5.44
5.18
4.11
1.50
-2.46
-6.73
-9.93
-11.17
-10.64
-9.60
-9.68
-12.00
-16.57
-22.23
-27.28
-30.40
-31.19
-30.26
-28.68
-27.23
-26.00
-24.30
-21.22
-16.27
-9.83
-3.07
2.61
6.27
7.90
8.44
9.21
11.11
14.13
17.26
19.17
19.01
17.01
14.37
12.62
12.69
14.36
16.42
17.41
16.46
13.78
10.49
7.96
6.99
7.40
8.21
8.23
6.85
4.29
1.55
-0.27
-0.64
0.06
0.75
0.30
-1.80
-5.06
-8.22
-9.97
-9.77
-8.17
-6.59
-6.51
-8.60
-12.28
-15.91
-17.59
-16.08
-11.40
-4.71
2.39
8.72
14.05
19.00
24.45
30.72
37.22
42.67
45.81
46.19
44.36
41.70
39.60
38.67
38.45
37.65
35.09
30.34
24.11
17.92
13.31
10.94
10.34
10.15
9.09
6.66
3.45
0.75
-0.31
0.44
2.04
2.84
1.50
-2.28
-7.60
-12.82
-16.48
-18.13
-18.55
-19.27
-21.68
-26.21
-32.16
-38.03
-42.33
-44.36
-44.50
-43.84
-43.34
-43.29
-43.05
-41.48
-37.66
-31.61
-24.35
-17.47
-12.22
-8.93
-6.90
-4.86
-1.74
2.61
7.33
11.04
12.70
12.18
10.37
8.75
8.52
9.95
12.23
13.98
14.05
12.25
9.37
6.89
6.01
7.00
8.99
10.43
10.01
7.39
3.34
-0.58
-3.01
-3.55
-2.96
-2.74
-4.18
-7.67
-12.47
-17.21
-20.68
-22.54
-23.45
-24.55
-26.56
-29.25
-31.41
-31.46
-28.37
-22.36
-14.84
-7.76
-2.60
0.31
1.86
3.54
6.56
11.09
16.18
20.30
22.34
22.20
20.87
19.85
20.25
22.05
24.16
25.06
23.77
20.49
16.54
13.70
13.23
15.10
18.01
20.09
19.91
17.20
12.93
8.70
5.85
4.70
4.50
3.91
1.93
-1.50
-5.45
-8.51
-9.71
-9.13
-7.98
-8.01
-10.49
-15.48
-21.74
-27.21
-30.03
-29.46
-26.16
-21.78
-17.93
-15.35
-13.61
-11.46
-7.76
-2.34
3.79
8.96
11.82
12.18
11.10
10.40
11.46
14.50
18.40
21.32
21.90
19.92
16.48
13.34
11.88
12.35
13.74
14.45
13.27
10.11
6.05
2.80
1.67
2.80
5.10
6.85
6.74
4.56
1.33
-1.32
-2.16
-1.12
0.70
1.69
0.70
-2.30
-6.25
-9.65
-11.49
-11.82
-11.66
-12.36
-14.64
-18.12
-21.43
-22.86
-21.34
-17.05
-11.34
-6.09
-2.65
-1.23
-0.87
-0.05
2.32
6.24
10.60
13.84
14.89
13.78
11.62
10.05
10.16
11.99
14.46
16.06
15.76
13.61
10.72
8.69
8.57
10.29
12.63
13.96
13.21
10.48
6.99
4.34
3.48
4.18
5.10
4.65
2.00
-2.47
-7.31
-10.91
-12.44
-12.35
-12.07
-13.10
-16.05
-20.24
-24.02
-25.59
-24.04
-19.78
-14.37
-9.62
-6.64
-5.33
-4.51
-2.71
0.83
5.69
10.45
13.52
14.12
12.71
10.80
10.07
11.36
14.18
16.97
18.02
16.50
12.90
8.87
6.26
6.07
7.94
10.31
11.36
10.03
6.56
2.35
-0.89
-2.18
-1.75
-0.92
-1.12
-3.12
-6.53
-10.09
-12.44
-12.96
-12.21
-11.50
-12.11
-14.45
-17.82
-20.62
-21.27
-19.07
-14.58
-9.40
-5.21
-2.97
-2.41
-2.27
-1.03
2.08
6.64
11.18
14.12
14.67
13.21
11.19
10.23
11.16
13.56
16.05
17.22
16.49
14.43
12.47
12.03
13.59
16.41
18.95
19.83
18.64
16.08
13.60
12.47
12.97
14.21
14.66
13.07
9.26
4.12
-0.72
-3.92
-5.13
-5.19
-5.61
-7.64
-11.54
-16.39
-20.57
-22.54
-21.71
-18.68
-14.86
-11.63
-9.65
-8.56
-7.31
-4.86
-1.00
3.47
7.06
8.54
7.59
5.06
2.58
1.65
2.80
5.32
7.64
8.36
6.95
4.14
1.47
0.40
1.38
3.61
5.43
5.37
2.93
-1.11
-5.13
-7.53
-7.70
-6.32
-4.97
-5.14
-7.49
-11.51
-15.83
-19.09
-20.78
-21.42
-22.23
-24.16
-27.22
-30.29
-31.57
-29.61
-24.19
-16.48
-8.62
-2.50
1.04
2.51
3.37
5.03
7.97
11.50
14.22
15.01
13.73
11.34
9.43
9.25
10.93
13.43
15.10
14.72
12.15
8.43
5.19
3.68
4.06
5.26
5.61
3.84
-0.23
-5.58
-10.53
-13.73
-14.87
-14.85
-15.23
-17.20
-20.90
-25.28
-28.59
-29.35
-27.16
-22.82
-17.90
-13.70
-10.68
-8.26
-5.33
-1.04
4.47
10.12
14.34
16.09
15.40
13.50
12.18
12.86
15.74
19.68
22.79
23.51
21.40
17.43
13.38
10.82
10.21
10.69
10.66
8.81
5.00
0.33
-3.43
-4.86
-3.81
-1.43
0.37
0.04
-2.88
-7.57
-12.44
-16.04
-17.84
-18.34
-18.63
-19.51
-20.95
-21.95
-21.15
-17.65
-11.67
-4.54
1.83
5.99
7.55
7.32
6.80
7.20
8.77
10.67
11.56
10.49
7.54
3.88
1.16
0.60
2.25
5.02
7.23
7.64
6.04
3.33
0.96
-0.01
0.49
1.52
1.70
0.13
-3.14
-7.11
-10.37
-11.96
-12.01
-11.64
-12.36
-15.13
-19.73
-24.73
-28.13
-28.43
-25.40
-20.23
-14.84
-10.82
-8.59
-7.25
-5.26
-1.49
3.92
9.64
13.83
15.37
14.47
12.66
11.93
13.50
17.13
21.21
23.71
23.34
20.23
15.88
12.31
10.93
11.75
13.49
14.36
13.16
9.92
5.90
2.84
1.91
2.99
4.69
5.18
3.18
-1.31
-7.05
-12.21
-15.48
-16.72
-16.89
-17.34
-18.86
-21.11
-22.77
-22.28
-18.81
-12.89
-6.09
-0.29
3.41
5.16
6.16
7.87
11.03
15.17
18.82
20.44
19.35
16.20
12.72
10.79
11.45
14.26
17.62
19.64
19.24
16.65
13.27
10.86
10.48
11.86
13.60
14.06
12.29
8.63
4.48
1.48
0.52
1.15
1.87
1.03
-2.22
-7.41
-13.00
-17.24
-19.15
-19.02
-18.14
-17.93
-19.02
-20.85
-21.90
-20.63
-16.39
-9.94
-3.06
2.39
5.42
6.41
6.75
8.00
10.86
14.79
18.28
19.82
18.85
16.11
13.24
11.95
12.95
15.58
18.16
19.05
17.52
14.24
10.83
9.00
9.45
11.52
13.46
13.57
11.04
6.41
1.28
-2.59
-4.28
-4.15
-3.59
-4.12
-6.54
-10.54
-14.89
-18.24
-19.90
-20.21
-20.22
-20.88
-22.39
-23.93
-24.12
-21.81
-16.87
-10.34
-3.99
0.62
2.89
3.38
3.46
4.44
6.81
9.99
12.63
13.52
12.31
9.73
7.25
6.27
7.24
9.44
11.40
11.82
10.30
7.54
4.94
3.74
4.21
5.56
6.39
5.63
3.14
-0.23
-3.06
-4.26
-3.65
-2.15
-1.23
-2.12
-5.15
-9.64
-14.19
-17.47
-18.82
-18.54
-17.53
-16.63
-16.06
-15.30
-13.38
-9.57
-4.00
2.24
7.55
10.64
11.21
10.01
8.51
8.03
8.99
10.81
12.26
12.42
11.17
9.27
7.95
8.08
9.59
11.47
12.29
11.11
8.00
4.01
0.68
-0.84
-0.34
1.36
2.86
3.10
1.83
-0.30
-2.17
-2.94
-2.64
-2.17
-2.79
-5.29
-9.42
-13.93
-17.13
-17.71
-15.49
-11.42
-7.11
-3.89
-2.17
-1.36
-0.33
1.85
5.20
8.85
11.44
12.00
10.54
8.01
5.89
5.32
6.45
8.41
9.78
9.51
7.49
4.66
2.52
2.22
3.82
6.27
7.88
7.38
4.56
0.42
-3.33
-5.25
-4.94
-3.25
-1.80
-1.95
-4.20
-7.93
-11.82
-14.64
-15.85
-15.80
-15.32
-15.03
-14.89
-14.18
-11.93
-7.57
-1.54
4.83
9.79
12.10
11.63
9.40
7.18
6.45
7.68
10.17
12.47
13.36
12.51
10.61
8.95
8.59
9.65
11.30
12.16
11.20
8.31
4.39
0.89
-0.99
-1.04
-0.07
0.53
-0.36
-2.93
-6.30
-9.02
-9.97
-9.10
-7.56
-7.05
-8.72
-12.46
-16.82
-19.65
-19.26
-15.38
-9.22
-2.89
1.74
3.92
4.22
4.05
4.70
6.57
8.99
10.64
10.46
8.24
4.88
1.84
0.37
0.75
2.22
3.32
2.92
0.81
-2.15
-4.46
-4.96
-3.53
-1.22
0.28
-0.31
-3.18
-7.31
-10.97
-12.75
-12.32
-10.59
-9.19
-9.50
-11.92
-15.65
-19.15
-20.97
-20.52
-18.26
-15.35
-12.82
-11.07
-9.64
-7.60
-4.23
0.34
5.10
8.62
9.85
8.80
6.53
4.68
4.55
6.35
9.15
11.33
11.69
10.01
7.27
4.98
4.30
5.33
7.02
7.86
6.82
3.94
0.39
-2.20
-2.70
-1.21
0.98
2.05
0.69
-3.18
-8.36
-12.98
-15.51
-15.51
-13.76
-11.68
-10.36
-9.93
-9.51
-7.76
-3.91
1.75
7.76
12.26
13.95
12.76
9.89
7.20
6.21
7.29
9.59
11.55
11.88
10.24
7.44
4.93
3.86
4.37
5.55
5.94
4.54
1.35
-2.54
-5.52
-6.49
-5.46
-3.65
-2.74
-3.96
-7.40
-11.96
-15.93
-17.99
-17.88
-16.45
-15.04
-14.57
-14.98
-15.28
-14.12
-10.75
-5.57
-0.10
3.82
4.96
3.32
0.18
-2.69
-3.88
-3.11
-1.19
0.58
1.27
0.85
0.23
0.62
2.67
5.94
9.01
10.28
8.87
5.12
0.60
-2.82
-3.93
-2.93
-1.30
-1.05
-3.61
-9.12
-16.30
-23.13
-27.84
-29.72
-29.24
-27.50
-25.35
-22.88
-19.35
-13.79
-5.96
3.23
11.85
17.86
20.15
19.12
16.45
14.24
13.78
14.96
16.48
16.75
14.95
11.46
7.69
5.19
4.71
5.76
6.93
6.78
4.67
1.09
-2.63
-5.05
-5.58
-4.77
-4.04
-4.82
-7.77
-12.48
-17.68
-22.05
-24.96
-26.71
-28.23
-30.21
-32.55
-34.31
-34.15
-31.13
-25.40
-18.16
-11.15
-5.72
-2.26
-0.13
1.92
4.95
9.21
14.03
18.22
20.81
21.63
21.37
21.24
22.23
24.47
27.06
28.48
27.44
23.61
17.76
11.49
6.34
3.07
1.37
0.17
-1.57
-4.24
-7.36
-9.93
-11.08
-10.73
-9.80
-9.78
-11.91
-16.45
-22.44
-27.97
-31.08
-30.75
-27.34
-22.43
-17.80
-14.49
-12.24
-9.66
-5.23
1.71
10.36
18.84
25.24
28.60
29.40
29.24
29.90
32.26
35.94
39.58
41.84
42.13
40.97
39.68
39.45
40.69
42.64
43.83
43.04
39.96
35.51
31.41
29.30
29.81
32.17
34.55
35.04
32.50
27.13
20.28
13.69
8.58
5.05
2.12
-1.60
-7.14
-14.58
-23.09
-31.38
-38.53
-44.47
-49.90
-55.60
-61.83
-68.05
-73.19
-76.46
-78.12
-79.59
-82.89
-89.43
-99.19
-110.45
-120.41
-126.37
-126.92
-122.31
-114.16
-104.26
-93.71
-82.38
-69.21
-53.17
-34.21
-13.84
5.25
20.47
30.24
34.56
34.82
32.94
30.19
26.58
21.06
12.70
1.84
-9.73
-19.56
-25.73
-27.93
-27.59
-27.03
-28.03
-30.87
-33.77
-34.37
-31.31
-25.12
-17.68
-11.20
-6.99
-4.95
-3.77
-0.51
6.85
18.21
31.62
44.70
56.02
65.24
72.77
79.32
87.92
100.36
115.83
131.44
144.50
153.98
160.35
164.75
168.32
175.73
189.51
208.06
226.62
240.97
249.80
254.40
257.00
259.45
267.64
284.71
308.96
335.24
359.32
379.87
396.95
409.94
384.19
301.85
173.92
34.40
-85.84
-173.40
-229.35
-261.73
-280.00
-293.07
-299.80
-296.54
-282.39
-260.63
-236.04
-212.49
-192.72
-178.56
-168.23
-156.86
-140.98
-120.60
-98.97
-79.57
-64.01
-51.94
-41.93
-32.36
-19.97
-3.84
14.10
29.81
39.53
41.42
35.89
24.93
11.22
-1.84
-13.25
-23.33
-33.37
-44.75
-58.37
-74.12
-90.85
-106.75
-119.87
-130.78
-139.79
-147.10
-153.15
-159.30
-167.41
-178.94
-194.44
-213.12
-234.76
-255.60
-269.38
-269.99
-254.60
-224.15
-182.50
-134.88
-72.55
-1.18
65.01
114.40
145.49
162.97
172.59
178.56
183.07
186.53
185.66
180.21
169.74
155.21
137.62
118.49
99.82
83.66
71.45
61.87
53.94
47.18
42.42
39.20
36.50
33.44
29.39
24.54
18.39
11.10
3.36
-4.03
-11.13
-18.20
-25.19
-31.86
-37.31
-41.14
-43.38
-44.01
-42.96
-40.76
-38.57
-37.90
-40.36
-45.60
-51.30
-53.98
-49.89
-36.82
-15.80
9.14
35.01
55.21
64.48
64.89
59.24
49.42
36.18
19.74
0.95
-18.13
-34.69
-45.37
-47.97
-43.30
-34.31
-24.92
-18.36
-16.00
-17.07
-19.72
-21.38
-20.24
-16.44
-11.06
-5.38
0.02
5.39
11.42
18.29
25.90
33.73
40.84
48.03
55.96
64.84
74.23
83.25
90.90
96.64
100.96
103.85
105.24
104.94
102.84
98.84
92.87
84.36
73.18
59.26
42.38
22.51
-0.10
-24.59
-49.44
-72.64
-92.20
-106.61
-115.34
-118.86
-118.18
-114.54
-108.85
-101.63
-93.09
-83.52
-73.33
-63.20
-53.83
-45.58
-38.40
-31.90
-25.49
-18.73
-11.45
-3.81
3.72
10.59
16.40
21.06
24.73
27.70
30.17
32.06
33.04
32.63
30.48
26.62
21.44
15.66
9.99
4.86
0.37
-3.74
-7.86
-12.32
-17.34
-23.09
-29.65
-37.03
-44.99
-52.87
-59.59
-63.91
-64.88
-62.32
-56.99
-50.39
-44.28
-40.08
-38.54
-39.67
-43.01
-47.88
-53.68
-59.96
-66.42
-72.70
-78.37
-82.80
-85.23
-84.88
-81.12
-73.75
-63.10
-50.13
-36.35
-23.66
-14.08
-9.45
-11.07
-19.32
-33.28
-50.64
-68.03
-81.64
-88.27
-86.18
-75.60
-58.58
-38.28
-17.91
0.38
15.94
29.49
42.34
55.48
69.04
82.23
93.85
102.94
109.21
113.08
115.29
116.22
115.79
113.75
110.17
105.76
101.69
99.02
98.17
98.56
98.63
96.73
92.20
85.82
79.50
75.68
76.42
83.24
96.88
116.68
140.71
166.32
190.41
209.72
221.70
224.82
219.37
206.89
188.05
162.39
129.47
90.22
47.72
7.32
-25.44
-46.35
-54.78
-55.79
-58.02
-69.16
-92.24
-124.82
-160.09
-190.92
-212.07
-216.25
-200.97
-172.63
-143.05
-120.60
-108.95
-101.82
-93.44
-80.51
-62.39
-41.06
-20.31
-3.04
9.66
17.61
20.70
17.95
8.21
-4.57
-11.79
-4.76
18.70
52.56
85.35
106.08
108.85
96.20
79.48
66.46
61.35
63.76
69.85
74.74
75.12
70.29
62.16
53.41
44.69
35.47
23.89
8.18
-11.71
-33.15
-51.50
-61.55
-59.96
-47.78
-30.26
-15.72
-12.54
-26.09
-56.86
-100.39
-148.88
-193.77
-228.34
-248.84
-254.74
-247.54
-229.10
-200.95
-165.07
-125.05
-86.46
-55.24
-34.90
-24.71
-20.14
-15.51
-7.84
1.24
6.84
4.91
-3.63
-12.49
-13.82
-3.53
16.10
37.25
51.10
52.64
43.02
28.65
16.96
12.31
14.28
19.85
25.89
31.37
38.74
48.78
60.60
72.55
82.77
89.20
91.08
89.27
86.15
83.95
83.24
82.73
79.57
72.07
57.56
36.56
11.63
-10.88
-26.26
-33.16
-32.90
-28.22
-22.20
-17.37
-14.57
-13.61
-13.27
-12.55
-10.65
-6.85
-0.96
6.02
12.00
15.26
14.83
11.14
5.66
0.51
-2.31
-0.30
7.44
19.55
33.61
46.52
55.53
58.69
55.03
45.30
31.79
18.09
6.04
-2.67
-7.01
-6.68
-2.17
4.65
12.15
19.47
26.25
31.91
35.96
38.27
39.57
41.13
42.77
44.27
44.85
44.18
41.51
35.79
26.00
11.87
-6.65
-31.32
-62.96
-100.43
-140.91
-181.25
-219.19
-253.64
-283.71
-294.22
-275.96
-231.04
-170.45
-105.68
-44.64
6.97
44.46
69.38
84.06
90.32
91.77
93.65
101.15
115.38
134.49
153.61
167.65
172.91
167.15
151.11
127.98
96.52
60.84
27.23
0.43
-17.70
-28.14
-33.76
-37.39
-40.82
-44.83
-48.66
-51.81
-55.02
-57.92
-60.06
-61.18
-61.13
-59.89
-57.66
-54.36
-50.47
-46.77
-43.47
-40.34
-36.57
-31.65
-25.55
-18.70
-11.44
-4.34
1.99
7.54
12.52
17.68
23.27
28.55
32.11
32.84
30.48
25.86
20.88
17.43
17.40
21.33
27.99
34.99
40.08
41.98
40.68
37.38
33.56
31.52
32.84
37.72
45.21
53.80
62.19
69.27
74.03
68.85
49.17
16.96
-19.23
-49.45
-67.57
-72.28
-67.44
-57.39
-46.01
-34.68
-22.97
-11.51
-0.64
9.11
17.18
23.33
27.86
31.02
33.59
35.73
36.54
34.67
29.11
19.99
9.11
-0.94
-8.34
-12.14
-12.65
-10.73
-7.17
-2.72
1.63
5.04
6.72
6.26
4.56
3.83
6.98
16.31
32.04
48.00
56.84
54.23
41.65
24.23
6.31
-10.54
-26.82
-43.78
-61.89
-79.43
-93.53
-102.36
-105.13
-102.57
-96.46
-88.80
-81.21
-74.57
-68.48
-61.79
-53.47
-43.05
-30.78
-17.93
-5.82
4.49
12.51
18.64
23.80
28.90
34.42
40.20
45.69
50.36
53.75
55.61
55.97
55.03
52.96
49.91
45.95
41.31
36.55
32.36
29.36
27.85
27.67
28.14
28.36
27.51
25.20
21.57
17.19
12.73
8.68
5.18
2.08
-0.89
-3.90
-6.86
-9.44
-11.20
-11.82
-11.21
-9.59
-7.34
-4.90
-2.64
-0.77
0.60
1.44
1.73
1.47
0.76
-0.22
-1.25
-2.12
-2.72
-3.07
-3.23
-3.32
-3.31
-3.10
-2.60
-1.82
-0.93
-0.27
-0.14
-0.74
-2.03
-3.81
-5.78
-7.61
-9.11
-10.23
-11.06
-11.77
-12.57
-13.56
-14.68
-15.70
-16.23
-15.86
-14.31
-11.55
-7.78
-3.38
1.18
5.54
9.45
12.76
15.43
17.45
18.90
19.90
20.64
21.30
21.92
22.42
22.49
21.80
20.15
17.60
14.54
11.56
9.21
7.77
7.20
7.12
7.04
6.61
5.70
4.48
3.19
2.05
1.10
0.19
-0.91
-2.34
-4.11
-6.08
-8.03
-9.79
-11.25
-12.37
-13.06
-13.17
-12.55
-11.13
-9.02
-6.53
-4.07
-2.00
-0.49
0.49
1.12
1.63
2.17
2.76
3.28
3.58
3.54
3.23
2.86
2.77
3.25
4.40
6.11
8.03
9.83
11.28
12.35
13.19
13.93
14.60
15.03
14.98
14.22
12.73
10.65
8.27
5.89
3.69
1.68
-0.20
-2.02
-3.72
-5.11
-5.86
-5.69
-4.53
-2.57
-0.29
1.76
3.19
3.90
4.10
4.14
4.29
4.53
4.60
4.19
3.18
1.74
0.25
-0.92
-1.68
-2.24
-2.99
-4.16
-5.69
-7.18
-8.13
-8.24
-7.61
-6.67
-5.99
-5.91
-6.49
-7.48
-8.52
-9.32
-9.82
-10.11
-10.39
-10.84
-11.56
-12.56
-13.71
-14.87
-15.87
-16.64
-17.19
-17.53
-17.66
-17.45
-16.66
-15.10
-12.74
-9.88
-6.97
-4.51
-2.78
-1.73
-1.07
-0.43
0.44
1.52
2.62
3.51
4.08
4.40
4.69
5.11
5.66
6.11
6.09
5.34
3.93
2.22
0.70
-0.29
-0.77
-1.13
-1.85
-3.14
-4.80
-6.33
-7.23
-7.31
-6.82
-6.32
-6.30
-6.95
-8.10
-9.33
-10.23
-10.58
-10.41
-9.87
-9.16
-8.35
-7.33
-5.87
-3.77
-1.00
2.16
5.16
7.43
8.67
9.00
8.92
9.03
9.74
11.00
12.38
13.33
13.46
12.80
11.64
10.39
9.27
8.24
7.02
5.38
3.31
1.03
-1.04
-2.60
-3.61
-4.36
-5.30
-6.77
-8.77
-10.94
-12.70
-13.64
-13.73
-13.38
-13.24
-13.82
-15.20
-16.93
-18.27
-18.51
-17.32
-14.93
-11.98
-9.20
-7.07
-5.62
-4.51
-3.30
-1.74
0.08
1.78
2.92
3.30
3.05
2.58
2.36
2.65
3.37
4.20
4.79
4.97
4.86
4.82
5.19
6.10
7.29
8.29
8.60
8.02
6.73
5.22
4.04
3.47
3.42
3.44
3.07
2.03
0.42
-1.36
-2.95
-4.19
-5.26
-6.51
-8.19
-10.21
-12.15
-13.41
-13.54
-12.45
-10.47
-8.21
-6.23
-4.84
-3.99
-3.36
-2.60
-1.55
-0.36
0.63
1.13
1.11
0.85
0.85
1.51
2.87
4.57
6.01
6.71
6.57
5.87
5.17
4.93
5.29
6.00
6.57
6.54
5.73
4.28
2.59
1.05
-0.11
-0.92
-1.66
-2.59
-3.84
-5.32
-6.78
-8.03
-9.06
-10.04
-11.29
-12.94
-14.84
-16.53
-17.48
-17.37
-16.23
-14.49
-12.72
-11.32
-10.33
-9.44
-8.20
-6.29
-3.78
-1.08
1.26
2.81
3.50
3.61
3.59
3.84
4.46
5.18
5.57
5.34
4.52
3.52
2.92
3.13
4.15
5.51
6.53
6.71
6.00
4.83
3.84
3.46
3.65
3.91
3.53
2.02
-0.65
-4.00
-7.34
-10.08
-11.96
-13.06
-13.69
-14.10
-14.36
-14.35
-13.85
-12.71
-10.99
-8.92
-6.83
-4.94
-3.28
-1.77
-0.28
1.13
2.20
2.55
1.89
0.32
-1.67
-3.40
-4.30
-4.15
-3.18
-1.90
-0.83
-0.23
-0.06
-0.08
-0.01
0.34
0.95
1.65
2.20
2.44
2.35
2.06
1.78
1.63
1.57
1.36
0.69
-0.63
-2.54
-4.69
-6.61
-7.91
-8.46
-8.35
-7.90
-7.31
-6.59
-5.56
-3.92
-1.52
1.56
4.91
7.97
10.23
11.48
11.89
11.87
11.90
12.25
12.82
13.31
13.37
12.91
12.16
11.55
11.43
11.87
12.57
12.98
12.69
11.59
9.95
8.24
6.87
5.93
5.20
4.28
2.87
0.96
-1.20
-3.17
-4.68
-5.70
-6.57
-7.73
-9.54
-11.98
-14.67
-16.98
-18.38
-18.63
-17.89
-16.60
-15.16
-13.76
-12.28
-10.42
-7.92
-4.82
-1.40
1.88
4.63
6.72
8.32
9.73
11.19
12.72
14.12
15.03
15.25
14.80
13.98
13.17
12.68
12.51
12.39
11.95
10.91
9.30
7.43
5.74
4.54
3.80
3.20
2.29
0.71
-1.55
-4.22
-6.85
-9.08
-10.86
-12.43
-14.20
-16.39
-18.89
-21.22
-22.72
-22.82
-21.36
-18.61
-15.19
-11.77
-8.77
-6.23
-3.87
-1.35
1.50
4.48
7.14
9.02
9.88
9.86
9.44
9.17
9.37
9.98
10.62
10.82
10.34
9.26
8.01
7.02
6.48
6.15
5.59
4.39
2.48
0.25
-1.68
-2.82
-3.08
-2.79
-2.54
-2.75
-3.50
-4.47
-5.29
-5.73
-5.95
-6.34
-7.29
-8.83
-10.59
-11.91
-12.13
-10.98
-8.66
-5.71
-2.77
-0.22
1.86
3.68
5.49
7.38
9.23
10.77
11.79
12.26
12.37
12.41
12.63
13.08
13.59
13.87
13.66
12.92
11.81
10.70
9.90
9.61
9.68
9.80
9.52
8.61
7.07
5.19
3.37
1.89
0.75
-0.25
-1.44
-3.01
-4.92
-6.92
-8.72
-10.18
-11.35
-12.42
-13.51
-14.54
-15.22
-15.16
-14.09
-12.02
-9.28
-6.35
-3.66
-1.43
0.42
2.13
3.95
5.93
7.90
9.55
10.57
10.85
10.56
10.03
9.65
9.61
9.84
10.01
9.75
8.85
7.45
5.94
4.79
4.27
4.31
4.48
4.27
3.35
1.71
-0.30
-2.16
-3.54
-4.40
-5.03
-5.89
-7.33
-9.36
-11.67
-13.76
-15.20
-15.85
-15.85
-15.52
-15.05
-14.37
-13.22
-11.25
-8.39
-4.91
-1.39
1.59
3.74
5.13
6.21
7.43
9.01
10.76
12.23
12.97
12.82
11.98
10.99
10.40
10.47
11.07
11.75
12.02
11.61
10.63
9.48
8.60
8.21
8.20
8.20
7.83
6.88
5.42
3.74
2.16
0.80
-0.41
-1.69
-3.23
-5.08
-7.06
-8.87
-10.20
-10.92
-11.11
-11.03
-10.93
-10.88
-10.68
-9.93
-8.26
-5.60
-2.26
1.15
4.03
6.01
7.12
7.67
8.01
8.30
8.46
8.24
7.53
6.49
5.51
5.04
5.37
6.42
7.77
8.83
9.15
8.62
7.49
6.25
5.37
4.99
4.89
4.67
3.96
2.67
1.03
-0.53
-1.66
-2.26
-2.56
-2.92
-3.67
-4.95
-6.61
-8.39
-9.98
-11.21
-12.06
-12.64
-12.98
-12.98
-12.37
-10.88
-8.40
-5.12
-1.56
1.66
4.06
5.53
6.28
6.73
7.23
7.91
8.62
9.12
9.21
8.98
8.64
8.53
8.85
9.51
10.20
10.49
10.10
9.03
7.59
6.21
5.24
4.73
4.48
4.09
3.29
2.10
0.76
-0.35
-0.99
-1.21
-1.40
-2.07
-3.60
-5.97
-8.75
-11.21
-12.69
-12.85
-11.88
-10.32
-8.82
-7.72
-6.99
-6.19
-4.90
-2.90
-0.35
2.28
4.54
6.18
7.23
7.95
8.58
9.19
9.66
9.73
9.27
8.35
7.24
6.28
5.74
5.66
5.84
5.93
5.65
4.93
3.96
3.09
2.60
2.50
2.52
2.19
1.17
-0.55
-2.64
-4.54
-5.85
-6.53
-6.91
-7.52
-8.73
-10.54
-12.53
-14.06
-14.59
-13.95
-12.40
-10.53
-8.87
-7.68
-6.80
-5.83
-4.39
-2.43
-0.28
1.54
2.63
3.01
3.08
3.38
4.21
5.46
6.66
7.30
7.17
6.49
5.78
5.55
6.00
6.94
7.88
8.36
8.12
7.20
5.90
4.56
3.41
2.52
1.83
1.19
0.53
-0.14
-0.79
-1.39
-1.96
-2.65
-3.65
-5.12
-7.06
-9.22
-11.13
-12.28
-12.26
-11.05
-9.02
-6.78
-4.86
-3.50
-2.49
-1.41
0.06
1.92
3.79
5.13
5.61
5.25
4.50
3.95
4.01
4.66
5.50
5.97
5.72
4.81
3.67
2.86
2.75
3.26
3.94
4.23
3.80
2.74
1.47
0.49
0.06
0.06
0.03
-0.50
-1.72
-3.51
-5.43
-7.01
-7.94
-8.26
-8.23
-8.17
-8.21
-8.26
-8.02
-7.23
-5.82
-3.96
-2.07
-0.49
0.63
1.42
2.20
3.23
4.52
5.80
6.60
6.61
5.80
4.53
3.35
2.75
2.86
3.42
3.94
3.97
3.40
2.49
1.69
1.36
1.49
1.77
1.72
1.03
-0.25
-1.74
-2.95
-3.58
-3.71
-3.80
-4.37
-5.76
-7.90
-10.30
-12.27
-13.21
-12.88
-11.46
-9.43
-7.30
-5.43
-3.81
-2.29
-0.65
1.07
2.60
3.58
3.83
3.47
2.97
2.85
3.44
4.67
6.08
7.09
7.31
6.71
5.62
4.54
3.86
3.77
4.10
4.54
4.73
4.45
3.72
2.75
1.80
1.02
0.38
-0.30
-1.23
-2.48
-3.94
-5.37
-6.57
-7.52
-8.39
-9.37
-10.51
-11.58
-12.13
-11.70
-10.10
-7.52
-4.52
-1.79
0.16
1.19
1.53
1.63
1.86
2.32
2.81
2.97
2.56
1.65
0.58
-0.13
-0.09
0.78
2.23
3.77
4.98
5.65
5.84
5.78
5.65
5.45
5.04
4.18
2.78
0.99
-0.83
-2.26
-2.99
-2.98
-2.54
-2.13
-2.19
-2.91
-4.14
-5.43
-6.24
-6.17
-5.13
-3.34
-1.17
1.05
3.21
5.36
7.60
9.91
12.04
13.64
14.47
14.49
13.96
13.26
12.71
12.34
11.95
11.15
9.69
7.58
5.16
2.95
1.38
0.52
0.09
-0.47
-1.60
-3.52
-6.05
-8.79
-11.29
-13.28
-14.67
-15.49
-15.86
-15.82
-15.46
-14.80
-13.93
-12.90
-11.77
-10.52
-9.10
-7.42
-5.42
-3.03
-0.26
2.81
5.95
8.87
11.30
13.09
14.31
15.17
15.92
16.67
17.36
17.76
17.68
17.07
16.07
14.93
13.83
12.77
11.56
9.96
7.90
5.59
3.46
2.04
1.60
2.09
3.04
3.86
4.09
3.63
2.72
1.74
0.95
0.24
-0.78
-2.52
-5.13
-8.26
-11.15
-12.97
-13.23
-12.05
-10.08
-8.20
-7.04
-6.78
-7.08
-7.39
-7.30
-6.77
-6.13
-5.87
-6.25
-7.21
-8.34
-9.07
-9.06
-8.33
-7.30
-6.50
-6.34
-6.85
-7.67
-8.27
-8.21
-7.44
-6.29
-5.25
-4.71
-4.80
-5.25
-5.70
-5.91
-6.00
-6.34
-7.29
-8.94
-10.94
-12.61
-13.26
-12.57
-10.74
-8.39
-6.18
-4.48
-3.23
-1.96
-0.18
2.30
5.23
7.93
9.75
10.41
10.19
9.84
10.17
11.63
13.96
16.38
18.04
18.43
17.67
16.41
15.44
15.15
15.39
15.58
15.13
13.84
11.96
10.08
8.69
7.89
7.34
6.46
4.83
2.42
-0.40
-3.01
-4.96
-6.20
-7.07
-8.07
-9.52
-11.33
-13.01
-13.89
-13.52
-11.89
-9.52
-7.26
-5.83
-5.55
-6.23
-7.30
-8.09
-8.26
-7.88
-7.43
-7.44
-8.22
-9.67
-11.31
-12.55
-13.00
-12.69
-11.98
-11.34
-10.98
-10.77
-10.29
-9.13
-7.29
-5.23
-3.71
-3.44
-4.62
-6.89
-9.51
-11.73
-13.19
-13.96
-14.42
-14.78
-14.90
-14.26
-12.29
-8.68
-3.71
1.85
7.01
11.04
13.73
15.32
16.35
17.18
17.83
17.99
17.25
15.54
13.17
10.83
9.19
8.62
8.95
9.55
9.70
8.91
7.18
4.90
2.69
1.02
-0.04
-0.73
-1.54
-2.83
-4.64
-6.66
-8.36
-9.27
-9.22
-8.39
-7.20
-6.05
-5.11
-4.27
-3.18
-1.54
0.75
3.46
6.14
8.32
9.71
10.30
10.39
10.31
10.29
10.30
10.08
9.39
8.19
6.76
5.56
5.00
5.14
5.70
6.13
5.98
5.09
3.67
2.18
1.01
0.30
-0.17
-0.77
-1.89
-3.68
-6.04
-8.70
-11.37
-13.83
-16.01
-17.88
-19.41
-20.44
-20.75
-20.08
-18.38
-15.84
-12.92
-10.16
-8.00
-6.57
-5.67
-4.93
-4.07
-3.13
-2.41
-2.36
-3.26
-5.08
-7.46
-9.89
-11.98
-13.66
-15.12
-16.68
-18.54
-20.67
-22.78
-24.47
-25.42
-25.50
-24.83
-23.69
-22.37
-21.00
-19.52
-17.71
-15.47
-12.82
-10.01
-7.38
-5.10
-3.04
-0.73
2.42
6.88
12.74
19.63
26.89
33.93
40.42
46.38
52.01
57.43
62.45
66.61
69.47
70.91
71.29
71.33
71.74
72.88
74.58
76.27
77.37
77.59
77.02
76.00
74.84
73.55
71.88
69.38
65.71
60.73
54.62
47.76
40.54
33.35
26.45
20.03
14.14
8.66
3.29
-2.39
-8.75
-15.86
-23.33
-30.37
-36.08
-39.83
-41.55
-41.76
-41.29
-40.96
-41.24
-42.16
-43.40
-44.48
-44.95
-44.46
-42.85
-40.18
-36.77
-33.14
-29.78
-26.97
-24.58
-22.12
-19.03
-15.04
-10.36
-5.65
-1.67
1.08
2.57
3.18
3.41
3.56
3.59
3.18
2.10
0.36
-1.68
-3.47
-4.55
-4.85
-4.69
-4.66
-5.24
-6.57
-8.37
-10.08
-11.25
-11.72
-11.78
-11.95
-12.71
-14.21
-16.17
-18.06
-19.38
-19.98
-20.10
-20.21
-20.70
-21.54
-22.35
-22.51
-21.66
-19.88
-17.73
-15.99
-15.19
-15.40
-16.20
-16.92
-17.02
-16.37
-15.22
-13.98
-12.98
-12.24
-11.52
-10.45
-8.80
-6.64
-4.37
-2.52
-1.50
-1.44
-2.07
-2.89
-3.42
-3.43
-3.03
-2.64
-2.66
-3.33
-4.55
-6.03
-7.41
-8.50
-9.34
-10.15
-11.10
-12.22
-13.31
-14.02
-14.01
-13.15
-11.53
-9.45
-7.19
-4.89
-2.47
0.26
3.47
7.07
10.71
13.86
16.07
17.13
17.22
16.71
16.02
15.33
14.60
13.60
12.16
10.25
8.10
6.05
4.36
3.00
1.65
-0.15
-2.68
-5.83
-8.99
-11.31
-12.15
-11.47
-9.90
-8.44
-7.90
-8.47
-9.66
-10.59
-10.58
-9.52
-7.95
-6.58
-5.82
-5.50
-4.94
-3.41
-0.65
2.92
6.39
8.88
9.99
10.04
9.90
10.49
12.24
14.89
17.63
19.61
20.36
20.09
19.47
19.26
19.80
20.85
21.70
21.61
20.28
18.03
15.60
13.78
12.93
12.81
12.68
11.81
9.84
7.03
4.08
1.76
0.38
-0.31
-1.02
-2.42
-4.68
-7.39
-9.65
-10.62
-9.95
-7.99
-5.59
-3.60
-2.47
-2.02
-1.66
-0.77
0.81
2.68
4.09
4.41
3.52
1.85
0.23
-0.63
-0.45
0.45
1.36
1.68
1.22
0.29
-0.51
-0.65
-0.05
0.88
1.41
0.96
-0.61
-2.91
-5.25
-7.02
-8.00
-8.47
-9.01
-10.09
-11.79
-13.74
-15.27
-15.76
-15.00
-13.27
-11.19
-9.37
-8.05
-7.00
-5.63
-3.33
0.10
4.38
8.81
12.71
15.73
18.04
20.10
22.30
24.65
26.65
27.51
26.64
24.01
20.28
16.61
14.14
13.45
14.32
15.82
16.79
16.42
14.63
11.99
9.30
7.07
5.21
3.16
0.39
-3.20
-7.11
-10.51
-12.67
-13.45
-13.31
-13.04
-13.28
-14.21
-15.49
-16.49
-16.72
-16.13
-15.06
-14.05
-13.47
-13.32
-13.22
-12.66
-11.24
-8.94
-6.13
-3.36
-1.17
0.23
0.94
1.31
1.75
2.48
3.51
4.58
5.44
5.89
5.90
5.62
5.19
4.70
4.11
3.36
2.45
1.49
0.64
0.03
-0.39
-0.85
-1.69
-3.19
-5.42
-8.15
-10.88
-13.06
-14.32
-14.70
-14.62
-14.74
-15.57
-17.18
-19.13
-20.66
-21.12
-20.27
-18.35
-15.91
-13.40
-10.91
-8.24
-5.07
-1.26
2.95
7.06
10.53
13.04
14.65
15.74
16.76
17.96
19.27
20.28
20.51
19.68
17.89
15.60
13.45
11.94
11.19
10.90
10.54
9.67
8.19
6.38
4.78
3.85
3.69
4.04
4.33
4.02
2.90
1.19
-0.61
-2.06
-3.03
-3.78
-4.75
-6.20
-8.05
-9.82
-10.94
-11.07
-10.32
-9.16
-8.09
-7.34
-6.69
-5.58
-3.49
-0.24
3.80
7.89
11.20
13.21
13.86
13.55
12.87
12.23
11.68
10.93
9.58
7.43
4.65
1.74
-0.70
-2.28
-3.04
-3.40
-3.96
-5.19
-7.26
-9.98
-12.99
-15.98
-18.89
-21.85
-25.00
-28.27
-31.34
-33.69
-34.91
-34.93
-34.12
-33.14
-32.60
-32.76
-33.41
-33.97
-33.78
-32.44
-29.98
-26.74
-23.21
-19.69
-16.23
-12.66
-8.73
-4.37
0.24
4.70
8.55
11.44
13.34
14.49
15.31
16.15
17.15
18.21
19.06
19.54
19.65
19.63
19.70
19.94
20.15
19.99
19.20
17.83
16.21
14.82
14.00
13.78
13.90
13.91
13.46
12.43
10.93
9.28
7.73
6.39
5.11
3.63
1.73
-0.55
-2.88
-4.70
-5.50
-5.06
-3.54
-1.36
1.03
3.36
5.62
7.90
10.21
12.36
14.02
14.82
14.70
13.91
12.92
12.23
12.12
12.51
12.98
13.04
12.32
10.80
8.78
6.74
5.07
3.88
2.94
1.83
0.22
-1.94
-4.36
-6.54
-8.07
-8.85
-9.18
-9.59
-10.54
-12.18
-14.25
-16.27
-17.71
-18.39
-18.44
-18.29
-18.32
-18.66
-19.11
-19.27
-18.79
-17.57
-15.86
-14.10
-12.60
-11.42
-10.27
-8.75
-6.63
-4.04
-1.49
0.34
1.00
0.45
-0.91
-2.43
-3.52
-3.93
-3.76
-3.32
-2.94
-2.70
-2.43
-1.88
-0.87
0.57
2.19
3.67
4.79
5.54
6.13
6.82
7.67
8.46
8.79
8.25
6.69
4.38
1.85
-0.30
-1.81
-3.02
-4.58
-6.98
-10.05
-12.85
-14.01
-12.41
-7.79
-1.23
5.26
9.54
10.52
8.58
5.29
2.65
2.09
3.98
7.47
10.94
12.95
13.03
11.90
10.99
11.72
14.86
20.41
27.54
34.83
40.78
44.24
44.39
40.53
31.85
17.20
-2.45
-23.32
-40.73
-52.05
-57.34
-58.27
-56.44
-52.67
-46.96
-38.89
-28.23
-15.68
-3.08
7.25
13.38
15.35
15.33
16.39
20.62
28.00
36.42
42.54
43.74
39.34
32.05
26.52
26.71
33.67
45.70
58.82
67.89
67.92
55.76
32.46
2.92
-25.90
-45.97
-50.01
-34.50
-1.95
41.62
81.41
102.50
100.03
83.30
61.80
41.28
23.61
9.67
0.32
-3.61
-0.23
12.04
32.10
55.01
74.39
84.78
83.46
71.09
51.15
29.50
12.15
2.84
1.74
6.99
16.01
26.33
35.91
43.15
47.26
47.72
43.62
33.72
17.84
-2.37
-23.64
-42.15
-54.72
-59.53
-56.49
-47.15
-34.12
-19.97
-6.65
4.46
12.48
17.06
18.70
18.86
19.58
22.74
29.56
39.96
52.41
64.12
71.81
72.69
65.44
50.64
30.68
8.84
-11.82
-29.50
-43.87
-55.56
-65.35
-73.50
-79.89
-84.88
-90.12
-98.74
-114.23
-138.74
-171.51
-208.55
-243.76
-271.04
-286.09
-287.15
-274.35
-248.64
-211.17
-163.86
-110.26
-55.96
-7.57
29.27
51.79
60.60
58.54
48.60
32.28
9.38
-20.97
-58.70
-101.87
-146.65
-188.30
-222.11
-244.21
-252.00
-244.38
-221.88
-186.55
-141.50
-90.25
-36.12
18.01
69.62
116.47
156.74
189.47
214.92
234.53
250.30
263.85
275.65
284.78
289.35
287.34
277.60
260.37
237.36
211.06
183.68
156.12
127.67
96.63
61.75
23.53
-15.27
-50.55
-78.68
-98.15
-110.23
-117.64
-122.73
-126.23
-127.10
-123.83
-115.95
-104.96
-94.02
-86.87
-86.00
-91.85
-102.91
-116.61
-130.25
-141.60
-149.14
-151.84
-149.34
-141.29
-127.25
-106.99
-80.58
-48.38
-10.75
32.11
79.78
129.99
179.87
225.88
264.00
290.45
303.22
303.26
294.35
281.71
268.00
255.51
245.67
237.99
229.69
216.65
195.18
163.39
121.86
70.70
14.45
-39.20
-83.82
-118.09
-146.14
-175.19
-211.96
-259.48
-319.42
-385.00
-443.00
-480.33
-490.09
-473.09
-435.71
-386.59
-306.82
-200.41
-89.42
3.60
69.87
111.45
133.84
142.92
144.62
144.51
142.51
139.37
136.66
134.65
130.95
122.43
107.99
89.67
71.75
55.37
42.14
33.70
29.70
28.19
26.68
23.98
20.57
17.88
15.03
11.72
8.53
6.00
3.83
1.18
-2.52
-7.15
-12.10
-17.64
-23.54
-29.17
-34.01
-38.10
-41.66
-44.60
-46.73
-47.69
-47.60
-46.50
-44.34
-41.09
-37.01
-32.59
-28.41
-24.97
-22.40
-20.41
-18.42
-15.79
-12.23
-7.83
-3.04
1.61
5.86
9.75
13.40
16.78
19.55
21.27
21.70
20.93
19.42
17.78
16.55
16.03
16.24
17.11
18.57
20.58
23.15
26.15
29.30
32.28
34.79
36.73
38.20
39.42
40.56
41.65
42.55
43.06
43.02
42.45
41.48
40.33
39.27
38.43
37.79
37.16
36.23
34.72
32.54
29.82
26.92
24.27
22.15
20.63
19.55
18.66
17.79
16.93
16.17
15.63
15.31
15.05
14.58
13.69
12.29
10.49
8.52
6.62
4.91
3.32
1.63
-0.37
-2.76
-5.41
-8.03
-10.24
-11.82
-12.72
-13.10
-13.17
-13.05
-12.72
-12.02
-10.78
-8.99
-6.83
-4.67
-2.83
-1.47
-0.49
0.39
1.38
2.50
3.50
4.04
3.86
3.02
1.80
0.63
-0.18
-0.51
-0.50
-0.33
-0.19
-0.10
0.03
0.31
0.78
1.30
1.64
1.55
0.94
-0.12
-1.36
-2.51
-3.46
-4.29
-5.27
-6.59
-8.21
-9.83
-10.96
-11.20
-10.41
-8.76
-6.63
-4.38
-2.20
-0.09
2.04
4.28
6.59
8.89
10.99
12.79
14.26
15.45
16.48
17.48
18.47
19.35
19.89
19.89
19.31
18.35
17.38
16.75
16.54
16.53
16.27
15.38
13.72
11.55
9.27
7.21
5.44
3.71
1.70
-0.81
-3.76
-6.84
-9.72
-12.18
-14.24
-16.03
-17.72
-19.29
-20.54
-21.18
-20.96
-19.80
-17.87
-15.46
-12.89
-10.32
-7.76
-5.07
-2.16
0.97
4.07
6.73
8.53
9.26
9.00
8.15
7.21
6.60
6.47
6.64
6.77
6.60
6.10
5.47
5.03
5.01
5.36
5.80
5.92
5.43
4.34
2.90
1.54
0.56
0.02
-0.30
-0.72
-1.43
-2.39
-3.36
-4.03
-4.26
-4.16
-4.01
-4.07
-4.43
-4.99
-5.45
-5.50
-4.93
-3.69
-1.86
0.29
2.54
4.67
6.66
8.60
10.62
12.78
14.87
16.54
17.39
17.27
16.37
15.18
14.23
13.85
14.00
14.36
14.54
14.39
14.01
13.67
13.59
13.72
13.75
13.29
12.11
10.30
8.28
6.57
5.51
5.05
4.87
4.49
3.65
2.39
0.97
-0.28
-1.17
-1.78
-2.35
-3.11
-4.14
-5.32
-6.38
-7.00
-6.97
-6.27
-5.05
-3.58
-2.11
-0.75
0.44
1.49
2.40
3.13
3.57
3.63
3.30
2.70
1.99
1.39
1.04
0.97
1.05
1.10
0.95
0.55
-0.01
-0.52
-0.76
-0.67
-0.38
-0.14
-0.18
-0.55
-1.07
-1.51
-1.70
-1.70
-1.77
-2.19
-3.09
-4.35
-5.66
-6.64
-7.10
-7.12
-6.95
-6.91
-7.13
-7.51
-7.71
-7.36
-6.26
-4.47
-2.33
-0.30
1.28
2.36
3.13
3.94
5.02
6.34
7.62
8.49
8.75
8.45
7.92
7.51
7.40
7.46
7.38
6.86
5.83
4.55
3.40
2.74
2.64
2.87
3.03
2.77
1.97
0.79
-0.47
-1.49
-2.12
-2.47
-2.82
-3.47
-4.61
-6.21
-7.98
-9.54
-10.54
-10.88
-10.66
-10.17
-9.68
-9.30
-8.89
-8.22
-7.05
-5.40
-3.50
-1.75
-0.46
0.26
0.60
0.89
1.40
2.22
3.19
4.01
4.47
4.47
4.15
3.77
3.57
3.61
3.79
3.93
3.87
3.58
3.18
2.81
2.59
2.49
2.39
2.17
1.83
1.49
1.36
1.57
2.07
2.60
2.78
2.29
1.06
-0.71
-2.62
-4.19
-5.17
-5.55
-5.60
-5.67
-6.01
-6.66
-7.44
-8.06
-8.30
-8.12
-7.68
-7.17
-6.67
-6.13
-5.34
-4.14
-2.54
-0.78
0.75
1.71
2.04
1.94
1.77
1.84
2.23
2.74
3.10
3.11
2.78
2.37
2.20
2.50
3.24
4.12
4.73
4.77
4.21
3.29
2.44
2.04
2.16
2.55
2.74
2.31
1.13
-0.65
-2.62
-4.40
-5.80
-6.88
-7.87
-8.92
-10.05
-11.09
-11.79
-12.02
-11.86
-11.58
-11.46
-11.61
-11.86
-11.84
-11.14
-9.57
-7.29
-4.72
-2.36
-0.53
0.79
1.81
2.79
3.84
4.80
5.40
5.39
4.80
3.90
3.11
2.76
2.96
3.52
4.09
4.35
4.13
3.50
2.71
2.03
1.62
1.46
1.32
0.94
0.18
-0.94
-2.19
-3.26
-3.94
-4.25
-4.41
-4.78
-5.66
-7.13
-8.99
-10.84
-12.22
-12.87
-12.78
-12.19
-11.39
-10.55
-9.64
-8.45
-6.77
-4.56
-2.04
0.36
2.27
3.52
4.25
4.81
5.52
6.52
7.64
8.55
8.97
8.84
8.36
7.86
7.58
7.55
7.55
7.25
6.38
4.93
3.09
1.19
-0.49
-1.82
-2.86
-3.78
-4.72
-5.73
-6.70
-7.48
-7.98
-8.26
-8.55
-9.13
-10.17
-11.65
-13.30
-14.73
-15.62
-15.79
-15.32
-14.42
-13.35
-12.28
-11.26
-10.20
-8.99
-7.59
-6.05
-4.50
-3.12
-1.98
-1.04
-0.14
0.92
2.18
3.52
4.62
5.21
5.19
4.75
4.30
4.21
4.64
5.43
6.18
6.53
6.30
5.66
4.95
4.48
4.34
4.35
4.25
3.85
3.21
2.58
2.25
2.31
2.60
2.76
2.45
1.54
0.26
-0.93
-1.57
-1.45
-0.74
0.07
0.48
0.16
-0.78
-1.95
-2.85
-3.19
-3.04
-2.70
-2.60
-2.99
-3.83
-4.86
-5.73
-6.17
-6.15
-5.80
-5.37
-5.03
-4.79
-4.52
-3.97
-3.04
-1.81
-0.56
0.39
0.81
0.71
0.30
-0.15
-0.51
-0.82
-1.27
-2.02
-3.05
-4.18
-5.12
-5.64
-5.71
-5.53
-5.45
-5.72
-6.41
-7.31
-8.01
-8.10
-7.38
-5.96
-4.19
-2.48
-1.10
-0.07
0.71
1.42
2.08
2.63
2.92
2.93
2.79
2.77
3.17
4.13
5.54
7.12
8.44
9.20
9.36
9.13
8.85
8.84
9.16
9.59
9.74
9.30
8.19
6.63
4.98
3.53
2.36
1.33
0.15
-1.31
-3.00
-4.70
-6.14
-7.18
-7.95
-8.74
-9.87
-11.41
-13.09
-14.42
-14.87
-14.13
-12.29
-9.75
-7.03
-4.55
-2.44
-0.62
1.11
2.84
4.48
5.78
6.45
6.38
5.64
4.52
3.39
2.53
2.06
1.87
1.74
1.44
0.87
0.06
-0.80
-1.54
-2.05
-2.28
-2.28
-2.12
-1.90
-1.68
-1.50
-1.36
-1.21
-1.05
-0.88
-0.77
-0.81
-1.00
-1.25
-1.38
-1.27
-0.96
-0.67
-0.68
-1.16
-2.05
-2.99
-3.52
-3.33
-2.43
-1.09
0.30
1.47
2.41
3.30
4.37
5.67
7.03
8.14
8.75
8.89
8.83
8.99
9.67
10.90
12.37
13.65
14.39
14.47
14.09
13.61
13.33
13.32
13.34
13.00
11.99
10.21
7.87
5.37
3.13
1.37
0.01
-1.24
-2.67
-4.42
-6.36
-8.17
-9.57
-10.49
-11.11
-11.73
-12.60
-13.74
-14.89
-15.64
-15.65
-14.83
-13.32
-11.44
-9.49
-7.57
-5.61
-3.39
-0.77
2.17
5.11
7.62
9.39
10.37
10.80
11.12
11.68
12.57
13.55
14.24
14.35
13.88
13.12
12.53
12.43
12.86
13.54
14.00
13.82
12.75
10.86
8.43
5.82
3.24
0.74
-1.81
-4.54
-7.39
-10.11
-12.32
-13.76
-14.48
-14.80
-15.16
-15.82
-16.75
-17.60
-17.99
-17.72
-16.90
-15.87
-14.96
-14.26
-13.60
-12.60
-10.91
-8.45
-5.45
-2.37
0.28
2.19
3.33
3.97
4.44
5.03
5.77
6.48
6.91
6.94
6.60
6.11
5.71
5.56
5.65
5.86
6.07
6.25
6.50
6.94
7.64
8.49
9.21
9.40
8.80
7.35
5.32
3.16
1.32
0.04
-0.82
-1.67
-2.99
-5.03
-7.63
-10.26
-12.25
-13.09
-12.59
-10.96
-8.58
-5.79
-2.79
0.41
3.78
7.17
10.24
12.58
13.90
14.26
13.95
13.49
13.28
13.49
13.94
14.29
14.15
13.34
11.89
9.97
7.83
5.66
3.56
1.58
-0.24
-1.84
-3.13
-4.06
-4.64
-4.96
-5.17
-5.42
-5.80
-6.33
-6.94
-7.52
-8.00
-8.45
-9.04
-9.99
-11.39
-13.07
-14.66
-15.67
-15.74
-14.85
-13.29
-11.54
-9.96
-8.65
-7.34
-5.66
-3.34
-0.42
2.67
5.31
6.99
7.54
7.19
6.45
5.82
5.56
5.60
5.63
5.30
4.44
3.17
1.82
0.77
0.17
-0.08
-0.38
-1.10
-2.42
-4.11
-5.70
-6.70
-6.91
-6.56
-6.18
-6.32
-7.20
-8.62
-10.07
-11.10
-11.51
-11.48
-11.39
-11.53
-11.90
-12.26
-12.18
-11.33
-9.62
-7.18
-4.34
-1.39
1.49
4.28
7.03
9.74
12.24
14.28
15.60
16.12
16.00
15.59
15.23
15.11
15.14
15.02
14.44
13.24
11.51
9.52
7.55
5.77
4.19
2.66
0.97
-1.02
-3.32
-5.79
-8.20
-10.29
-11.93
-13.12
-14.02
-14.84
-15.74
-16.72
-17.58
-18.07
-18.06
-17.59
-16.87
-16.10
-15.34
-14.46
-13.15
-11.20
-8.59
-5.58
-2.60
-0.02
1.98
3.46
4.66
5.81
6.98
8.04
8.77
9.02
8.82
8.35
7.92
7.71
7.71
7.70
7.39
6.64
5.52
4.32
3.34
2.77
2.52
2.28
1.60
0.20
-2.00
-4.79
-7.77
-10.56
-12.92
-14.84
-16.43
-17.83
-19.04
-19.90
-20.20
-19.79
-18.69
-17.18
-15.60
-14.13
-12.66
-10.77
-7.92
-3.82
1.31
6.79
11.71
15.37
17.56
18.63
19.17
19.65
20.15
20.40
20.05
19.01
17.59
16.32
15.74
16.03
16.99
18.10
18.83
18.78
17.84
16.13
13.87
11.30
8.60
5.91
3.37
1.11
-0.73
-2.07
-2.95
-3.53
-4.04
-4.71
-5.62
-6.73
-7.82
-8.67
-9.07
-8.93
-8.24
-7.02
-5.20
-2.74
0.41
4.17
8.28
12.31
15.76
18.20
19.45
19.62
19.03
18.15
17.35
16.87
16.71
16.68
16.42
15.49
13.59
10.65
6.99
3.24
0.06
-2.07
-3.01
-2.94
-2.18
-1.02
0.39
1.84
2.98
3.30
2.35
0.00
-3.41
-7.15
-10.44
-12.89
-14.59
-16.08
-17.89
-20.22
-22.75
-24.81
-25.68
-24.97
-22.81
-19.75
-16.55
-13.81
-11.80
-10.42
-9.42
-8.55
-7.72
-6.94
-6.18
-5.30
-4.04
-2.20
0.26
3.11
5.92
8.23
9.75
10.44
10.52
10.42
10.61
11.43
13.01
15.13
17.33
19.07
19.92
19.70
18.52
16.60
14.10
10.95
6.93
1.83
-4.30
-11.12
-18.08
-24.62
-30.40
-35.27
-39.12
-41.77
-42.87
-42.08
-39.21
-34.48
-28.53
-22.27
-16.49
-11.68
-7.88
-4.73
-1.84
1.04
3.85
6.29
8.06
9.12
9.73
10.32
11.27
12.60
13.95
14.69
14.33
12.74
10.28
7.66
5.63
4.64
4.67
5.22
5.65
5.42
4.42
2.91
1.34
0.02
-1.04
-2.17
-3.72
-5.86
-8.32
-10.56
-11.97
-12.26
-11.56
-10.36
-9.19
-8.38
-7.89
-7.35
-6.36
-4.77
-2.77
-0.80
0.72
1.69
2.32
3.06
4.24
5.85
7.47
8.56
8.72
7.99
6.81
5.83
5.52
5.98
6.89
7.74
8.12
7.94
7.49
7.23
7.56
8.55
9.94
11.27
12.11
12.22
11.54
10.14
8.06
5.25
1.70
-2.45
-6.72
-10.38
-12.60
-12.79
-10.82
-7.14
-2.61
1.78
5.33
7.76
9.26
10.30
11.30
12.41
13.44
14.06
14.06
13.55
12.93
12.72
13.25
14.47
15.96
17.16
17.61
17.14
15.86
14.13
12.27
10.45
8.64
6.68
4.42
1.85
-0.87
-3.39
-5.42
-6.80
-7.60
-8.05
-8.41
-8.84
-9.32
-9.73
-10.02
-10.22
-10.52
-11.04
-11.73
-12.37
-12.67
-12.37
-11.45
-10.14
-8.80
-7.82
-7.37
-7.37
-7.48
-7.26
-6.35
-4.68
-2.49
-0.28
1.41
2.25
2.25
1.68
1.02
0.72
1.13
2.47
4.84
8.20
12.31
16.64
20.41
22.71
22.77
20.25
15.38
8.95
2.03
-4.31
-9.31
-12.73
-14.72
-15.73
-16.19
-16.42
-16.55
-16.59
-16.61
-16.79
-17.41
-18.69
-20.55
-22.52
-23.88
-23.87
-22.09
-18.68
-14.18
-9.34
-4.73
-0.61
3.10
6.53
9.71
12.50
14.65
16.07
16.90
17.51
18.30
19.47
20.95
22.37
23.27
23.28
22.31
20.53
18.28
15.89
13.48
10.96
7.98
4.23
-0.42
-5.83
-11.52
-16.91
-21.47
-24.98
-27.48
-29.24
-30.54
-31.56
-32.26
-32.52
-32.14
-31.05
-29.25
-26.86
-24.00
-20.77
-17.24
-13.46
-9.52
-5.60
-1.98
1.04
3.22
4.49
5.01
5.20
5.52
6.36
7.80
9.67
11.60
13.20
14.23
14.68
14.68
14.43
14.09
13.80
13.63
13.66
13.89
14.29
14.72
14.97
14.82
14.14
12.92
11.32
9.58
7.94
6.48
5.14
3.72
2.11
0.30
-1.51
-3.01
-3.91
-4.14
-3.83
-3.31
-2.86
-2.63
-2.55
-2.48
-2.28
-1.96
-1.70
-1.76
-2.32
-3.38
-4.78
-6.27
-7.61
-8.66
-9.39
-9.86
-10.09
-10.06
-9.72
-9.09
-8.26
-7.47
-6.97
-6.97
-7.53
-8.57
-9.84
-11.05
-11.88
-12.15
-11.84
-11.13
-10.33
-9.80
-9.82
-10.53
-11.91
-13.78
-15.87
-17.83
-19.17
-19.36
-17.92
-14.57
-9.46
-3.18
3.32
8.88
12.54
13.70
12.25
8.55
3.26
-2.74
-8.52
-13.26
-16.36
-17.65
-17.47
-16.53
-15.68
-15.59
-16.53
-18.26
-20.20
-21.68
-22.17
-21.42
-19.45
-16.53
-13.01
-9.23
-5.49
-1.95
1.35
4.51
7.67
10.93
14.28
17.57
20.59
23.10
24.91
25.85
25.80
24.63
22.37
19.22
15.69
12.51
10.49
10.16
11.63
14.51
18.11
21.70
24.84
27.48
29.78
31.99
34.20
36.29
38.06
39.36
40.23
40.97
42.00
43.65
46.07
49.07
52.27
55.25
57.76
59.83
61.75
63.87
66.41
69.29
72.18
74.59
76.18
76.85
76.73
76.01
74.72
72.51
68.83
63.10
55.05
44.93
33.51
21.78
10.65
0.64
-8.05
-15.39
-21.17
-25.06
-26.66
-25.96
-23.51
-20.52
-18.42
-18.41
-20.92
-25.52
-31.17
-36.68
-41.23
-44.67
-47.36
-49.88
-52.58
-55.35
-57.69
-59.04
-59.12
-58.25
-57.23
-56.94
-57.91
-60.05
-62.71
-65.15
-67.04
-68.62
-70.57
-73.40
-76.93
-80.25
-81.99
-81.10
-77.33
-71.38
-64.47
-57.69
-51.50
-45.72
-39.80
-33.32
-26.25
-18.93
-11.87
-5.42
0.29
5.31
9.75
13.63
16.85
19.23
20.51
20.56
19.44
17.45
15.09
12.93
11.47
10.98
11.43
12.53
13.89
15.07
15.80
15.95
15.58
14.84
13.84
12.70
11.50
10.37
9.41
8.78
8.57
8.71
9.03
9.30
9.40
9.38
9.48
9.95
10.95
12.43
14.17
15.88
17.36
18.51
19.34
19.82
19.79
19.02
17.31
14.69
11.44
8.08
5.17
3.01
1.57
0.50
-0.62
-2.02
-3.64
-5.17
-6.24
-6.68
-6.58
-6.26
-6.05
-6.17
-6.56
-7.00
-7.24
-7.12
-6.70
-6.23
-5.97
-6.13
-6.68
-7.46
-8.19
-8.66
-8.84
-8.87
-9.00
-9.39
-10.04
-10.79
-11.31
-11.33
-10.70
-9.44
-7.68
-5.58
-3.26
-0.69
2.15
5.28
8.55
11.61
14.01
15.38
15.60
14.89
13.70
12.50
11.56
10.84
10.13
9.16
7.86
6.35
4.84
3.45
2.18
0.86
-0.70
-2.56
-4.63
-6.64
-8.25
-9.21
-9.40
-8.94
-8.13
-7.34
-6.88
-6.87
-7.20
-7.60
-7.82
-7.71
-7.27
-6.62
-5.88
-5.08
-4.12
-2.87
-1.27
0.53
2.28
3.67
4.55
5.03
5.41
6.01
6.93
7.93
8.46
7.97
6.18
3.22
-0.31
-3.64
-6.06
-7.15
-6.92
-5.66
-3.77
-1.70
0.20
1.65
2.42
2.38
1.49
-0.13
-2.17
-4.27
-6.08
-7.39
-8.19
-8.69
-9.17
-9.81
-10.68
-11.68
-12.58
-13.21
-13.46
-13.29
-12.71
-11.72
-10.24
-8.23
-5.70
-2.76
0.32
3.24
5.75
7.75
9.29
10.59
11.88
13.29
14.81
16.27
17.44
18.16
18.45
18.52
18.72
19.31
20.35
21.65
22.84
23.65
23.96
23.87
23.61
23.35
23.11
22.81
22.34
21.71
21.06
20.58
20.45
20.70
21.16
21.52
21.50
20.92
19.86
18.59
17.46
16.78
16.69
17.18
18.10
19.35
20.93
22.85
25.19
27.98
31.19
34.82
38.82
43.14
47.58
51.74
55.08
57.07
57.31
55.68
52.33
47.66
42.17
36.45
31.03
26.31
22.45
19.29
16.45
13.45
9.95
5.89
1.58
-2.49
-5.82
-8.09
-9.32
-9.78
-9.86
-9.94
-10.26
-10.85
-11.65
-12.59
-13.71
-15.12
-16.90
-19.00
-21.15
-22.99
-24.31
-25.22
-26.12
-27.44
-29.28
-31.27
-32.63
-32.67
-31.19
-28.71
-26.20
-24.55
-24.07
-24.37
-24.62
-24.17
-23.00
-21.76
-21.41
-22.56
-25.08
-28.14
-30.62
-31.69
-31.29
-30.04
-28.82
-28.27
-28.39
-28.66
-28.33
-26.95
-24.58
-21.76
-19.14
-17.13
-15.69
-14.41
-12.86
-10.82
-8.49
-6.36
-5.00
-4.72
-5.44
-6.79
-8.28
-9.58
-10.71
-11.96
-13.67
-15.95
-18.53
-20.85
-22.22
-22.22
-20.86
-18.55
-15.84
-13.15
-10.57
-7.89
-4.86
-1.51
1.71
4.06
4.84
3.79
1.29
-1.75
-4.28
-5.63
-5.72
-5.07
-4.40
-4.24
-4.71
-5.52
-6.27
-6.75
-7.04
-7.44
-8.19
-9.27
-10.38
-11.01
-10.78
-9.64
-7.94
-6.28
-5.22
-5.06
-5.72
-6.78
-7.80
-8.49
-8.91
-9.35
-10.06
-11.03
-11.94
-12.27
-11.56
-9.68
-6.95
-3.98
-1.42
0.40
1.53
2.36
3.36
4.81
6.64
8.49
9.99
10.93
11.45
11.89
12.67
13.90
15.38
16.60
17.09
16.65
15.45
13.96
12.71
11.94
11.50
10.95
9.80
7.88
5.44
3.06
1.30
0.45
0.26
0.17
-0.45
-1.90
-4.05
-6.38
-8.32
-9.55
-10.13
-10.46
-11.00
-11.93
-13.12
-14.11
-14.44
-13.95
-12.87
-11.74
-11.08
-11.04
-11.40
-11.64
-11.28
-10.25
-8.89
-7.86
-7.68
-8.51
-10.04
-11.72
-13.10
-14.09
-14.97
-16.19
-18.03
-20.35
-22.65
-24.32
-24.94
-24.55
-23.59
-22.71
-22.29
-22.29
-22.24
-21.49
-19.55
-16.46
-12.71
-9.09
-6.26
-4.47
-3.52
-2.86
-1.94
-0.50
1.37
3.28
4.87
6.05
7.04
8.30
10.24
12.93
16.01
18.81
20.72
21.47
21.29
20.83
20.72
21.19
21.92
22.24
21.56
19.72
17.17
14.70
12.97
12.14
11.78
11.14
9.69
7.39
4.75
2.50
1.23
1.06
1.63
2.33
2.67
2.49
1.95
1.39
1.08
1.05
1.09
0.87
0.24
-0.72
-1.66
-2.11
-1.77
-0.62
1.06
2.86
4.50
5.94
7.41
9.19
11.40
13.81
15.97
17.31
17.56
16.77
15.46
14.28
13.73
13.96
14.65
15.27
15.34
14.72
13.64
12.57
11.93
11.87
12.18
12.42
12.24
11.48
10.30
9.03
7.97
7.24
6.74
6.20
5.41
4.30
3.00
1.73
0.65
-0.31
-1.37
-2.81
-4.65
-6.63
-8.23
-8.94
-8.52
-7.16
-5.33
-3.61
-2.32
-1.51
-0.91
-0.28
0.51
1.29
1.77
1.71
1.13
0.30
-0.33
-0.35
0.42
1.84
3.52
5.00
5.95
6.30
6.24
6.08
6.06
6.24
6.48
6.52
6.21
5.58
4.85
4.31
4.15
4.33
4.61
4.69
4.36
3.63
2.67
1.68
0.71
-0.41
-1.97
-4.21
-7.11
-10.33
-13.30
-15.40
-16.26
-15.92
-14.76
-13.35
-12.16
-11.38
-10.86
-10.22
-9.04
-7.09
-4.39
-1.22
2.11
5.33
8.32
11.09
13.62
15.82
17.50
18.48
18.76
18.55
18.21
18.05
18.14
18.26
18.01
17.00
15.13
12.61
9.87
7.38
5.39
3.91
2.72
1.54
0.25
-1.11
-2.36
-3.30
-3.80
-3.89
-3.71
-3.39
-2.96
-2.36
-1.45
-0.10
1.64
3.58
5.40
6.82
7.68
8.06
8.16
8.26
8.54
8.97
9.34
9.37
8.87
7.88
6.65
5.55
4.86
4.65
4.75
4.85
4.69
4.16
3.38
2.60
2.11
2.03
2.31
2.76
3.19
3.55
3.88
4.31
4.81
5.15
4.92
3.78
1.64
-1.11
-3.77
-5.57
-6.04
-5.21
-3.55
-1.66
0.05
1.57
3.21
5.41
8.35
11.84
15.34
18.17
19.88
20.36
19.93
19.10
18.36
17.97
17.90
17.90
17.76
17.37
16.84
16.42
16.29
16.45
16.61
16.33
15.23
13.16
10.37
7.40
4.86
3.12
2.15
1.57
0.89
-0.20
-1.67
-3.21
-4.51
-5.48
-6.38
-7.66
-9.60
-12.12
-14.67
-16.45
-16.82
-15.60
-13.19
-10.38
-7.86
-5.95
-4.47
-2.96
-1.04
1.24
3.38
4.71
4.81
3.77
2.24
1.04
0.71
1.21
1.87
1.87
0.66
-1.66
-4.37
-6.49
-7.38
-7.04
-6.15
-5.66
-6.22
-7.85
-9.93
-11.55
-12.11
-11.63
-10.77
-10.42
-11.21
-13.13
-15.61
-17.78
-19.06
-19.46
-19.52
-19.92
-20.99
-22.47
-23.61
-23.58
-22.03
-19.24
-16.00
-13.14
-11.04
-9.52
-7.99
-5.93
-3.22
-0.31
2.10
3.44
3.64
3.13
2.68
2.90
3.96
5.48
6.77
7.30
7.00
6.27
5.78
6.06
7.09
8.39
9.20
8.96
7.61
5.53
3.38
1.64
0.43
-0.57
-1.86
-3.79
-6.44
-9.54
-12.66
-15.42
-17.66
-19.46
-20.97
-22.27
-23.16
-23.28
-22.23
-19.86
-16.37
-12.32
-8.41
-5.18
-2.83
-1.17
0.25
1.85
3.83
6.07
8.22
9.86
10.75
10.87
10.50
9.96
9.50
9.18
8.81
8.22
7.28
6.05
4.72
3.46
2.27
0.98
-0.65
-2.75
-5.17
-7.56
-9.47
-10.65
-11.20
-11.58
-12.40
-14.08
-16.65
-19.68
-22.45
-24.26
-24.73
-23.83
-21.88
-19.23
-16.12
-12.63
-8.79
-4.71
-0.75
2.59
4.83
5.81
5.77
5.33
5.19
5.87
7.47
9.67
11.89
13.65
14.77
15.41
15.95
16.70
17.69
18.62
19.01
18.47
16.99
14.90
12.74
10.91
9.46
7.99
5.90
2.78
-1.33
-5.93
-10.22
-13.54
-15.63
-16.73
-17.34
-17.89
-18.48
-18.85
-18.54
-17.20
-14.86
-11.94
-9.04
-6.59
-4.72
-3.17
-1.58
0.32
2.45
4.45
5.88
6.47
6.36
5.94
5.77
6.17
7.04
7.95
8.30
7.77
6.48
4.96
3.93
3.88
4.78
6.08
6.98
6.89
5.69
3.75
1.67
-0.06
-1.40
-2.70
-4.45
-6.93
-10.01
-13.19
-15.81
-17.43
-18.03
-18.06
-18.18
-18.82
-19.97
-21.10
-21.41
-20.22
-17.35
-13.24
-8.75
-4.71
-1.57
0.81
2.91
5.23
7.88
10.48
12.46
13.38
13.26
12.59
12.05
12.16
12.98
14.16
15.08
15.28
14.66
13.54
12.45
11.82
11.71
11.77
11.39
10.11
7.84
5.01
2.30
0.30
-0.85
-1.52
-2.41
-4.04
-6.56
-9.58
-12.47
-14.70
-16.12
-16.91
-17.37
-17.60
-17.40
-16.37
-14.15
-10.73
-6.53
-2.22
1.48
4.16
5.82
6.84
7.72
8.85
10.31
11.85
13.07
13.63
13.46
12.78
11.99
11.45
11.27
11.27
11.08
10.40
9.19
7.69
6.33
5.40
4.87
4.39
3.43
1.69
-0.79
-3.52
-5.90
-7.53
-8.47
-9.11
-10.02
-11.46
-13.30
-15.04
-16.07
-16.05
-15.03
-13.40
-11.63
-10.00
-8.46
-6.66
-4.22
-0.97
2.83
6.56
9.46
11.03
11.30
10.85
10.51
10.94
12.21
13.79
14.87
14.84
13.65
11.81
10.10
9.06
8.68
8.52
7.94
6.63
4.74
2.81
1.42
0.79
0.68
0.44
-0.58
-2.71
-5.75
-9.07
-12.00
-14.13
-15.53
-16.61
-17.79
-19.19
-20.45
-20.90
-19.92
-17.29
-13.34
-8.82
-4.53
-0.98
1.79
4.16
6.63
9.48
12.58
15.42
17.38
18.10
17.72
16.82
16.17
16.27
17.11
18.17
18.76
18.40
17.13
15.43
13.91
12.91
12.28
11.46
9.88
7.30
4.04
0.81
-1.61
-2.84
-3.08
-3.05
-3.56
-5.11
-7.66
-10.68
-13.48
-15.56
-16.91
-17.91
-19.02
-20.51
-22.24
-23.69
-24.27
-23.66
-21.94
-19.56
-17.02
-14.60
-12.22
-9.55
-6.26
-2.38
1.61
4.96
6.97
7.38
6.56
5.33
4.56
4.72
5.66
6.69
7.09
6.45
4.95
3.22
1.95
1.45
1.52
1.62
1.28
0.45
-0.56
-1.17
-0.99
-0.03
1.30
2.41
2.91
2.79
2.36
2.11
2.37
3.12
3.98
4.41
4.00
2.69
0.86
-0.80
-1.66
-1.42
-0.28
1.20
2.49
3.35
3.91
4.60
5.73
7.29
8.85
9.84
9.88
9.06
7.86
6.94
6.76
7.33
8.25
8.94
9.00
8.40
7.47
6.72
6.53
6.90
7.46
7.66
7.10
5.75
3.92
2.17
0.94
0.31
-0.00
-0.55
-1.74
-3.66
-6.02
-8.27
-9.98
-11.06
-11.80
-12.68
-14.03
-15.81
-17.64
-18.88
-19.07
-18.12
-16.44
-14.68
-13.36
-12.63
-12.14
-11.21
-9.30
-6.26
-2.55
1.00
3.62
4.96
5.26
5.23
5.63
6.82
8.63
10.45
11.73
12.20
12.07
11.89
12.12
12.87
13.76
14.19
13.67
12.19
10.20
8.44
7.48
7.45
7.94
8.19
7.57
5.77
3.02
-0.07
-2.83
-4.90
-6.38
-7.74
-9.48
-11.75
-14.24
-16.28
-17.20
-16.72
-15.11
-13.03
-11.08
-9.46
-7.90
-5.88
-3.02
0.55
4.24
7.25
8.97
9.30
8.68
7.86
7.50
7.91
8.91
9.97
10.58
10.46
9.75
8.85
8.17
7.87
7.78
7.55
6.89
5.81
4.64
3.81
3.54
3.72
3.85
3.37
1.93
-0.41
-3.14
-5.58
-7.18
-7.88
-8.13
-8.68
-10.14
-12.61
-15.56
-18.08
-19.39
-19.22
-17.91
-16.17
-14.58
-13.22
-11.73
-9.53
-6.32
-2.34
1.71
4.98
6.91
7.47
7.10
6.56
6.48
7.16
8.43
9.81
10.81
11.18
11.06
10.88
11.07
11.72
12.58
13.07
12.74
11.50
9.74
8.14
7.27
7.26
7.69
7.83
7.04
5.20
2.73
0.38
-1.24
-2.02
-2.38
-3.06
-4.63
-7.15
-10.15
-12.88
-14.79
-15.75
-16.07
-16.23
-16.49
-16.73
-16.49
-15.27
-12.87
-9.57
-6.02
-2.96
-0.89
0.11
0.36
0.39
0.63
1.22
2.00
2.67
3.07
3.27
3.62
4.51
6.06
7.99
9.70
10.61
10.52
9.76
9.12
9.37
10.82
13.08
15.20
16.15
15.35
12.95
9.76
6.89
5.05
4.33
4.08
3.39
1.56
-1.49
-5.17
-8.61
-11.22
-13.00
-14.49
-16.29
-18.58
-20.85
-22.17
-21.64
-19.03
-14.89
-10.38
-6.63
-4.29
-3.29
-2.94
-2.39
-1.09
0.98
3.29
5.16
6.07
6.01
5.47
5.16
5.56
6.64
7.84
8.48
8.14
6.99
5.69
4.94
5.11
5.92
6.73
6.90
6.18
4.79
3.28
2.18
1.68
1.61
1.51
0.98
-0.14
-1.71
-3.34
-4.59
-5.31
-5.67
-6.11
-7.10
-8.73
-10.64
-12.03
-12.07
-10.34
-7.10
-3.23
0.24
2.57
3.64
3.95
4.23
5.02
6.31
7.64
8.40
8.27
7.44
6.56
6.30
6.95
8.18
9.17
9.17
7.97
6.03
4.32
3.71
4.47
6.08
7.58
8.10
7.26
5.38
3.16
1.32
0.16
-0.49
-1.15
-2.29
-4.08
-6.26
-8.30
-9.67
-10.14
-9.91
-9.42
-9.11
-9.08
-9.00
-8.29
-6.46
-3.53
-0.07
3.00
4.97
5.63
5.48
5.39
6.09
7.74
9.79
11.35
11.71
10.77
9.12
7.76
7.47
8.42
10.09
11.55
12.04
11.39
10.07
8.94
8.74
9.61
11.05
12.12
12.05
10.60
8.17
5.60
3.64
2.56
2.03
1.37
0.03
-2.08
-4.55
-6.71
-8.07
-8.61
-8.78
-9.21
-10.27
-11.76
-13.04
-13.23
-11.78
-8.80
-5.01
-1.52
0.80
1.65
1.43
0.96
0.98
1.70
2.75
3.37
2.99
1.58
-0.30
-1.76
-2.12
-1.28
0.23
1.49
1.76
0.89
-0.64
-1.98
-2.41
-1.79
-0.65
0.09
-0.31
-1.99
-4.43
-6.67
-7.90
-7.92
-7.24
-6.82
-7.43
-9.30
-11.92
-14.36
-15.75
-15.77
-14.69
-13.17
-11.79
-10.72
-9.65
-8.02
-5.48
-2.16
1.30
3.99
5.27
5.08
3.98
2.89
2.59
3.27
4.49
5.43
5.44
4.42
2.88
1.65
1.39
2.13
3.29
3.96
3.47
1.76
-0.57
-2.57
-3.56
-3.46
-2.92
-2.90
-4.14
-6.74
-10.07
-13.15
-15.10
-15.67
-15.23
-14.48
-13.98
-13.78
-13.46
-12.35
-10.09
-6.86
-3.35
-0.43
1.35
2.00
2.04
2.18
2.89
4.15
5.49
6.33
6.32
5.57
4.57
3.94
4.07
4.92
6.04
6.77
6.66
5.62
4.05
2.55
1.62
1.30
1.14
0.44
-1.27
-3.92
-6.90
-9.32
-10.59
-10.79
-10.60
-10.95
-12.38
-14.71
-17.05
-18.27
-17.64
-15.23
-11.88
-8.72
-6.55
-5.47
-4.89
-3.95
-2.08
0.63
3.51
5.64
6.49
6.18
5.46
5.27
6.22
8.18
10.35
11.73
11.62
10.07
7.82
5.90
5.01
5.16
5.68
5.68
4.62
2.58
0.28
-1.43
-2.03
-1.71
-1.26
-1.66
-3.55
-6.88
-10.88
-14.44
-16.66
-17.27
-16.66
-15.60
-14.72
-14.14
-13.41
-11.79
-8.85
-4.80
-0.53
2.89
4.81
5.29
5.11
5.26
6.41
8.51
10.86
12.56
13.04
12.39
11.25
10.46
10.53
11.35
12.26
12.48
11.62
9.89
8.02
6.83
6.69
7.26
7.66
7.04
5.09
2.25
-0.53
-2.33
-2.92
-2.82
-3.09
-4.67
-7.86
-12.11
-16.32
-19.34
-20.60
-20.23
-18.99
-17.67
-16.72
-16.01
-14.96
-12.90
-9.56
-5.23
-0.69
3.22
6.01
7.78
9.07
10.54
12.45
14.56
16.23
16.91
16.47
15.36
14.42
14.37
15.41
17.08
18.52
18.95
18.09
16.27
14.24
12.76
12.09
11.97
11.67
10.51
8.26
5.29
2.42
0.45
-0.31
-0.23
-0.18
-1.02
-3.11
-6.11
-9.19
-11.59
-13.08
-14.07
-15.37
-17.49
-20.30
-22.94
-24.27
-23.50
-20.65
-16.55
-12.44
-9.20
-7.04
-5.40
-3.39
-0.38
3.61
7.85
11.33
13.38
14.00
13.85
13.89
14.80
16.58
18.54
19.74
19.58
18.12
16.09
14.48
14.05
14.84
16.22
17.19
17.01
15.49
13.10
10.65
8.87
7.92
7.41
6.65
5.11
2.78
0.18
-1.91
-2.95
-2.97
-2.58
-2.70
-3.96
-6.37
-9.31
-11.86
-13.29
-13.55
-13.25
-13.29
-14.30
-16.20
-18.22
-19.24
-18.44
-15.77
-11.96
-8.14
-5.22
-3.42
-2.25
-0.89
1.26
4.22
7.36
9.79
10.92
10.74
9.90
9.27
9.53
10.72
12.29
13.41
13.47
12.43
10.78
9.32
8.68
8.91
9.53
9.79
9.15
7.56
5.54
3.84
3.03
3.14
3.64
3.71
2.75
0.72
-1.84
-4.10
-5.46
-5.84
-5.80
-6.21
-7.68
-10.28
-13.44
-16.27
-17.99
-18.37
-17.76
-16.87
-16.27
-16.07
-15.84
-14.83
-12.46
-8.70
-4.17
0.13
3.32
5.09
5.82
6.38
7.53
9.49
11.82
13.64
14.26
13.57
12.15
10.94
10.68
11.44
12.65
13.39
13.00
11.49
9.53
8.09
7.82
8.70
9.99
10.62
9.86
7.65
4.70
2.00
0.35
-0.21
-0.29
-0.85
-2.52
-5.28
-8.40
-10.92
-12.23
-12.43
-12.30
-12.87
-14.75
-17.81
-21.19
-23.72
-24.56
-23.55
-21.23
-18.51
-16.13
-14.33
-12.81
-11.00
-8.47
-5.27
-1.93
0.75
2.19
2.32
1.62
0.90
0.80
1.42
2.25
2.47
1.49
-0.66
-3.30
-5.39
-6.20
-5.67
-4.54
-3.97
-4.84
-7.36
-10.91
-14.41
-16.90
-18.11
-18.46
-18.83
-19.91
-21.75
-23.69
-24.63
-23.76
-20.95
-16.92
-12.87
-9.80
-8.11
-7.42
-6.96
-6.08
-4.71
-3.40
-2.86
-3.48
-4.92
-6.22
-6.27
-4.49
-1.04
3.11
6.85
9.46
10.94
11.93
13.26
15.39
18.15
20.80
22.48
22.69
21.60
19.90
18.54
18.11
18.65
19.61
20.23
19.99
18.86
17.31
16.03
15.47
15.53
15.65
15.16
13.69
11.41
8.97
7.10
6.18
6.04
6.00
5.39
3.93
1.92
0.08
-0.89
-0.76
-0.02
0.40
-0.32
-2.46
-5.51
-8.41
-10.12
-10.17
-8.85
-7.07
-5.72
-5.22
-5.34
-5.29
-4.33
-2.13
0.99
4.24
6.83
8.34
8.89
9.06
9.47
10.41
11.72
12.85
13.27
12.76
11.58
10.37
9.75
10.03
11.03
12.16
12.81
12.63
11.69
10.44
9.40
8.85
8.66
8.35
7.42
5.65
3.31
1.03
-0.49
-0.94
-0.60
-0.25
-0.69
-2.34
-5.00
-7.93
-10.36
-11.89
-12.66
-13.18
-13.86
-14.72
-15.31
-14.96
-13.18
-10.03
-6.10
-2.29
0.66
2.49
3.44
4.14
5.12
6.55
8.13
9.28
9.58
8.98
7.92
7.11
7.09
7.98
9.31
10.30
10.34
9.31
7.64
6.09
5.29
5.38
5.91
6.09
5.29
3.37
0.79
-1.61
-3.10
-3.49
-3.18
-3.00
-3.57
-5.09
-7.16
-9.08
-10.27
-10.66
-10.74
-11.26
-12.69
-14.93
-17.26
-18.70
-18.52
-16.67
-13.77
-10.77
-8.41
-6.81
-5.54
-3.85
-1.28
2.08
5.56
8.24
9.52
9.42
8.54
7.77
7.77
8.64
9.90
10.74
10.64
9.54
7.96
6.62
6.11
6.46
7.24
7.72
7.39
6.17
4.48
2.99
2.16
2.01
2.03
1.49
-0.09
-2.67
-5.67
-8.23
-9.75
-10.16
-10.01
-10.16
-11.30
-13.58
-16.52
-19.27
-21.03
-21.40
-20.54
-18.98
-17.25
-15.60
-13.91
-11.79
-8.96
-5.47
-1.75
1.55
3.96
5.41
6.29
7.19
8.60
10.60
12.82
14.68
15.73
15.87
15.35
14.69
14.27
14.15
14.02
13.38
11.86
9.52
6.79
4.34
2.66
1.76
1.20
0.24
-1.62
-4.42
-7.60
-10.31
-11.80
-11.85
-10.84
-9.61
-8.96
-9.30
-10.47
-11.82
-12.66
-12.54
-11.50
-9.93
-8.28
-6.72
-5.16
-3.28
-0.91
1.78
4.34
6.29
7.50
8.34
9.47
11.49
14.45
17.76
20.48
21.73
21.26
19.61
17.81
16.86
17.20
18.53
20.02
20.83
20.65
19.86
19.30
19.79
21.58
24.13
26.39
27.21
26.00
22.92
18.79
14.62
11.12
8.38
5.98
3.44
0.63
-2.03
-3.82
-4.10
-2.84
-0.72
1.14
1.71
0.56
-1.95
-4.89
-7.24
-8.43
-8.55
-8.28
-8.39
-9.31
-10.88
-12.45
-13.21
-12.67
-10.98
-8.83
-7.13
-6.52
-7.07
-8.25
-9.27
-9.54
-8.97
-8.03
-7.37
-7.44
-8.15
-8.92
-9.00
-7.94
-5.87
-3.49
-1.62
-0.79
-0.97
-1.57
-1.90
-1.54
-0.58
0.41
0.78
0.19
-1.24
-2.99
-4.48
-5.41
-5.90
-6.37
-7.26
-8.68
-10.44
-12.06
-13.15
-13.58
-13.60
-13.68
-14.19
-15.22
-16.45
-17.31
-17.25
-16.01
-13.76
-11.01
-8.33
-6.03
-4.09
-2.20
-0.07
2.35
4.73
6.52
7.31
7.01
5.98
4.81
4.06
3.94
4.29
4.66
4.63
4.05
3.10
2.15
1.57
1.45
1.63
1.74
1.45
0.65
-0.51
-1.69
-2.52
-2.84
-2.71
-2.44
-2.41
-2.88
-3.95
-5.48
-7.18
-8.79
-10.18
-11.37
-12.44
-13.37
-14.00
-13.97
-12.98
-10.99
-8.32
-5.53
-3.19
-1.52
-0.34
0.88
2.62
5.09
7.96
10.62
12.48
13.31
13.33
13.03
12.91
13.11
13.43
13.45
12.94
12.00
11.10
10.82
11.50
13.01
14.70
15.68
15.24
13.16
9.81
6.02
2.57
-0.08
-2.07
-3.87
-5.97
-8.54
-11.36
-13.97
-16.00
-17.50
-18.84
-20.55
-22.86
-25.53
-27.93
-29.29
-29.18
-27.73
-25.57
-23.54
-22.24
-21.76
-21.70
-21.46
-20.58
-19.12
-17.64
-16.92
-17.57
-19.72
-22.97
-26.53
-29.70
-32.10
-33.82
-35.22
-36.70
-38.35
-39.95
-41.03
-41.08
-39.82
-37.27
-33.77
-29.77
-25.70
-21.87
-18.38
-15.15
-12.06
-8.95
-5.73
-2.35
1.27
5.21
9.64
14.66
20.12
25.53
30.19
33.54
35.39
36.16
36.74
38.09
40.74
44.54
48.78
52.62
55.57
57.70
59.55
61.70
64.28
66.86
68.69
69.12
68.09
66.07
63.91
62.24
61.08
59.87
57.72
54.09
49.07
43.42
38.22
34.29
31.72
29.92
27.86
24.69
20.18
14.78
9.44
5.00
1.80
-0.56
-2.89
-5.93
-9.95
-14.56
-18.94
-22.40
-24.74
-26.37
-28.03
-30.31
-33.22
-36.18
-38.31
-38.91
-37.90
-35.86
-33.68
-32.05
-31.09
-30.29
-28.81
-26.08
-22.12
-17.63
-13.68
-11.11
-10.16
-10.41
-11.05
-11.36
-11.05
-10.32
-9.57
-9.03
-8.53
-7.59
-5.67
-2.61
1.19
4.92
7.65
8.84
8.58
7.51
6.46
6.01
6.18
6.41
5.97
4.36
1.69
-1.38
-3.96
-5.43
-5.81
-5.71
-6.04
-7.52
-10.32
-14.01
-17.82
-21.02
-23.28
-24.67
-25.59
-26.36
-27.06
-27.44
-27.09
-25.77
-23.64
-21.24
-19.33
-18.48
-18.82
-20.04
-21.59
-23.04
-24.39
-26.05
-28.52
-32.00
-36.12
-39.90
-42.09
-41.77
-38.71
-33.43
-26.90
-20.04
-13.53
-7.65
-2.57
1.48
4.19
5.33
5.02
3.87
2.75
2.56
3.88
6.96
11.72
18.04
25.87
35.27
46.37
59.25
73.83
89.64
105.61
119.92
130.23
134.18
130.20
118.15
99.52
76.99
53.52
31.60
12.86
-1.78
-11.84
-17.08
-17.72
-14.70
-9.82
-5.30
-3.00
-3.75
-6.99
-11.20
-14.67
-16.30
-15.89
-13.97
-11.23
-8.07
-4.40
0.14
5.85
12.57
19.52
25.49
29.32
30.39
28.99
26.37
24.16
23.78
25.66
29.12
32.61
34.40
33.30
29.08
22.35
14.17
5.51
-2.97
-10.89
-17.89
-23.60
-27.72
-30.34
-32.03
-33.66
-35.94
-38.90
-41.74
-43.21
-42.22
-38.44
-32.49
-25.66
-19.32
-14.38
-11.06
-9.07
-7.89
-7.09
-6.45
-5.91
-5.54
-5.38
-5.44
-5.67
-5.86
-5.83
-5.44
-4.75
-4.01
-3.53
-3.45
-3.66
-3.84
-3.69
-3.19
-2.67
-2.67
-3.56
-5.36
-7.57
-9.49
-10.52
-10.57
-10.03
-9.65
-10.06
-11.45
-13.53
-15.61
-17.02
-17.39
-16.81
-15.71
-14.50
-13.35
-12.13
-10.45
-7.93
-4.53
-0.69
2.83
5.40
6.81
7.34
7.47
7.65
8.03
8.44
8.47
7.84
6.65
5.45
5.07
6.00
8.49
12.54
17.89
24.04
30.31
35.91
40.14
42.36
41.44
36.94
29.55
21.05
13.48
8.53
7.03
8.74
12.30
14.33
12.20
5.49
-4.23
-14.75
-24.41
-32.66
-39.95
-47.31
-57.98
-73.50
-92.48
-111.67
-128.15
-140.62
-149.36
-155.43
-160.15
-167.58
-180.04
-196.52
-213.54
-227.54
-236.31
-239.09
-236.12
-209.57
-153.86
-78.96
-3.65
57.88
100.79
126.18
137.29
138.08
132.84
122.76
109.16
94.97
83.61
77.03
74.93
75.97
78.71
82.13
83.34
80.74
74.97
68.05
61.66
56.52
52.75
50.39
49.54
48.67
46.57
42.95
38.34
33.36
28.58
24.65
22.36
22.15
23.01
23.46
22.25
18.95
13.93
8.33
3.67
1.25
1.46
3.37
5.48
6.58
6.37
5.50
5.21
6.70
10.55
16.53
23.78
31.31
38.47
45.05
51.24
57.19
62.72
67.36
70.54
72.16
72.82
73.87
76.89
82.85
91.20
99.77
105.34
105.07
97.82
84.74
68.77
52.88
38.60
25.23
10.60
-7.38
-29.25
-53.45
-77.03
-97.09
-112.24
-122.94
-130.84
-137.37
-142.82
-146.14
-145.82
-141.08
-132.63
-122.75
-114.31
-109.27
-107.55
-107.06
-104.73
-98.24
-87.21
-72.99
-58.28
-45.86
-37.41
-33.03
-31.79
-32.80
-35.85
-41.27
-48.15
-54.65
-58.24
-56.25
-46.72
-29.53
-6.92
17.27
39.13
57.88
74.44
90.34
106.59
123.19
138.97
151.94
160.36
163.58
164.38
165.67
168.68
172.49
175.12
174.72
170.46
163.01
143.43
110.26
69.54
30.48
-1.50
-26.36
-46.39
-63.42
-76.91
-87.45
-93.42
-94.32
-91.67
-88.18
-86.19
-86.57
-89.29
-93.34
-97.50
-99.15
-96.79
-90.66
-82.28
-73.23
-64.42
-56.05
-48.01
-40.50
-33.10
-26.11
-20.41
-16.73
-14.89
-13.74
-11.97
-8.90
-4.96
-0.86
2.34
3.78
3.26
1.35
-0.87
-2.40
-2.74
-1.92
-0.12
2.40
5.44
8.95
13.04
17.73
22.77
27.57
31.38
33.66
34.34
33.92
33.26
33.07
33.61
34.48
34.91
34.19
32.03
28.77
25.14
21.87
19.24
17.06
14.83
12.11
8.88
5.55
2.74
0.92
0.09
-0.12
-0.32
-1.01
-2.37
-4.25
-6.31
-8.30
-10.18
-12.16
-14.49
-17.22
-20.12
-22.60
-24.06
-24.06
-22.57
-19.97
-16.81
-13.56
-10.40
-7.19
-3.64
0.39
4.69
8.75
11.99
14.04
15.00
15.32
15.57
16.13
17.01
17.83
18.18
17.88
17.07
16.20
15.70
15.69
15.90
15.82
15.00
13.35
11.14
8.85
6.92
5.52
4.54
3.75
2.98
2.20
1.49
0.86
0.25
-0.56
-1.82
-3.70
-6.20
-9.14
-12.21
-14.99
-17.09
-18.15
-18.04
-16.83
-14.82
-12.26
-9.35
-6.05
-2.27
1.94
6.23
10.02
12.73
14.09
14.30
13.86
13.36
13.08
12.99
12.83
12.45
11.95
11.66
11.96
13.01
14.65
16.40
17.72
18.27
18.02
17.22
16.25
15.36
14.68
14.12
13.55
12.90
12.25
11.80
11.78
12.30
13.26
14.32
15.06
15.18
14.64
13.69
12.77
12.33
12.60
13.55
14.88
16.22
17.32
18.11
18.76
19.50
20.45
21.59
22.66
23.32
23.29
22.50
21.15
19.63
18.32
17.39
16.72
16.06
15.18
14.05
12.86
11.79
10.83
9.64
7.77
4.89
1.13
-2.93
-6.47
-8.90
-10.09
-10.49
-10.78
-11.50
-12.78
-14.27
-15.49
-16.09
-16.08
-15.80
-15.70
-16.08
-16.96
-18.18
-19.50
-20.84
-22.24
-23.78
-25.45
-26.92
-27.73
-27.41
-25.72
-22.80
-19.14
-15.37
-12.03
-9.29
-7.01
-4.84
-2.48
0.15
2.79
5.01
6.44
6.97
6.86
6.66
6.94
8.01
9.79
11.78
13.35
14.03
13.70
12.60
11.17
9.76
8.49
7.19
5.59
3.50
0.96
-1.74
-4.16
-5.96
-7.02
-7.49
-7.68
-7.84
-8.06
-8.21
-8.08
-7.58
-6.87
-6.32
-6.34
-7.10
-8.34
-9.46
-9.76
-8.81
-6.62
-3.62
-0.41
2.60
5.33
7.97
10.79
13.84
16.85
19.30
20.69
20.81
19.84
18.28
16.74
15.62
15.02
14.70
14.30
13.58
12.53
11.44
10.63
10.24
10.10
9.76
8.74
6.80
4.09
1.08
-1.69
-3.86
-5.46
-6.78
-8.18
-9.84
-11.68
-13.39
-14.63
-15.25
-15.40
-15.46
-15.84
-16.78
-18.27
-20.03
-21.75
-23.27
-24.67
-26.20
-28.07
-30.20
-32.21
-33.52
-33.63
-32.40
-30.10
-27.26
-24.36
-21.65
-19.06
-16.34
-13.25
-9.78
-6.18
-2.90
-0.34
1.25
1.94
2.04
1.97
2.08
2.46
2.91
3.17
3.05
2.58
2.05
1.74
1.77
1.95
1.90
1.25
-0.12
-1.92
-3.65
-4.77
-5.08
-4.79
-4.46
-4.75
-6.09
-8.49
-11.51
-14.48
-16.80
-18.22
-18.94
-19.45
-20.29
-21.84
-24.14
-27.06
-30.34
-33.80
-37.31
-40.79
-44.08
-47.01
-49.45
-51.43
-53.26
-55.45
-58.46
-62.26
-65.95
-67.72
-65.31
-56.91
-42.13
-22.32
-0.24
21.05
39.32
53.77
64.98
73.96
81.44
87.45
91.57
93.57
93.84
93.36
93.28
94.29
96.29
98.53
100.06
100.32
99.47
98.29
97.72
98.26
99.48
100.10
98.57
94.06
87.07
79.36
73.41
71.01
72.41
76.07
79.31
79.46
74.77
64.85
50.48
33.28
15.07
-2.37
-17.82
-30.86
-42.10
-52.97
-65.02
-79.08
-94.65
-109.92
-122.49
-130.32
-132.53
-129.56
-122.76
-113.72
-103.85
-94.11
-85.20
-77.49
-71.05
-65.70
-60.96
-56.22
-51.10
-45.51
-39.76
-34.29
-29.46
-25.34
-21.72
-18.31
-15.01
-11.99
-9.67
-8.39
-8.12
-8.39
-8.45
-7.69
-5.99
-3.85
-2.11
-1.44
-2.03
-3.47
-5.02
-6.16
-6.88
-7.70
-9.29
-11.99
-15.49
-18.91
-21.27
-21.99
-21.26
-19.90
-18.98
-19.12
-20.18
-21.31
-21.36
-19.57
-15.99
-11.51
-7.44
-4.76
-3.67
-3.54
-3.27
-2.03
0.34
3.19
5.55
6.75
6.82
6.54
6.98
8.87
12.17
16.09
19.52
21.67
22.40
22.27
22.15
22.65
23.73
24.77
24.87
23.51
20.78
17.46
14.56
12.81
12.23
12.15
11.63
10.04
7.43
4.62
2.69
2.46
3.96
6.37
8.47
9.22
8.27
6.11
3.81
2.45
2.59
4.12
6.49
9.13
11.82
14.69
18.04
21.79
25.26
27.29
26.65
22.75
15.94
7.56
-0.60
-7.00
-10.95
-12.69
-13.09
-13.03
-12.91
-12.45
-11.03
-8.18
-4.02
0.66
4.80
7.55
8.71
8.74
8.49
8.62
9.24
9.85
9.68
8.14
5.20
1.42
-2.26
-5.01
-6.47
-6.88
-6.78
-6.71
-6.85
-7.00
-6.76
-6.01
-5.09
-4.85
-6.10
-9.15
-13.47
-17.79
-20.67
-21.18
-19.35
-16.08
-12.60
-9.81
-7.85
-6.24
-4.32
-1.87
0.66
2.39
2.63
1.33
-0.78
-2.55
-3.03
-1.95
0.16
2.36
3.87
4.52
4.76
5.35
6.87
9.29
11.99
14.02
14.71
13.96
12.32
10.70
9.87
10.06
10.85
11.45
11.13
9.69
7.53
5.50
4.41
4.61
5.82
7.22
8.01
7.70
6.36
4.49
2.69
1.22
-0.09
-1.78
-4.27
-7.53
-11.06
-14.09
-16.03
-16.89
-17.22
-17.82
-19.10
-20.81
-22.06
-21.75
-19.22
-14.68
-9.15
-4.07
-0.54
1.08
1.27
1.02
1.31
2.58
4.59
6.64
8.08
8.70
8.89
9.40
10.87
13.36
16.23
18.41
18.98
17.61
14.75
11.39
8.56
6.75
5.77
4.92
3.53
1.38
-1.21
-3.51
-4.90
-5.26
-5.02
-4.98
-5.82
-7.66
-10.04
-12.05
-12.89
-12.26
-10.45
-8.14
-5.92
-3.92
-1.75
1.14
5.10
9.81
14.36
17.59
18.73
17.78
15.52
13.10
11.47
10.89
10.91
10.69
9.62
7.63
5.29
3.48
2.90
3.67
5.29
6.92
7.87
7.90
7.30
6.67
6.53
6.99
7.73
8.19
7.93
6.88
5.43
4.16
3.53
3.51
3.57
2.91
1.01
-2.05
-5.55
-8.41
-9.79
-9.61
-8.58
-7.85
-8.31
-10.08
-12.40
-14.03
-13.90
-11.74
-8.14
-4.24
-0.99
1.26
2.93
4.82
7.55
11.13
14.91
17.93
19.46
19.43
18.38
17.19
16.53
16.47
16.50
15.84
14.01
11.20
8.15
5.87
5.01
5.46
6.44
6.90
6.13
4.16
1.77
0.07
-0.16
1.17
3.35
5.36
6.37
6.17
5.19
4.13
3.44
2.95
2.01
-0.09
-3.45
-7.31
-10.17
-10.51
-7.62
-2.08
4.33
9.48
11.79
11.03
8.23
5.16
3.27
3.09
4.04
5.03
5.15
4.28
3.03
2.28
2.51
3.44
4.15
3.68
1.60
-1.72
-5.25
-7.90
-9.12
-9.21
-9.05
-9.64
-11.39
-13.93
-16.28
-17.46
-17.05
-15.49
-13.84
-13.13
-13.78
-15.29
-16.54
-16.36
-14.26
-10.71
-6.92
-4.20
-3.34
-4.23
-5.99
-7.50
-7.99
-7.41
-6.33
-5.52
-5.42
-5.93
-6.44
-6.26
-5.11
-3.37
-1.88
-1.50
-2.58
-4.77
-7.12
-8.63
-8.74
-7.63
-6.12
-5.10
-5.08
-5.91
-6.89
-7.21
-6.51
-5.06
-3.66
-3.08
-3.67
-5.06
-6.36
-6.62
-5.45
-3.22
-0.95
0.32
0.07
-1.42
-3.19
-4.17
-3.80
-2.27
-0.40
0.91
1.21
0.67
-0.08
-0.42
-0.18
0.30
0.37
-0.41
-1.93
-3.51
-4.21
-3.32
-0.81
2.71
6.19
8.83
10.43
11.49
12.93
15.46
19.15
23.31
26.77
28.51
28.08
25.69
22.05
17.90
13.60
9.06
4.00
-1.71
-7.69
-13.15
-17.13
-19.03
-18.99
-17.89
-16.94
-17.05
-18.37
-20.25
-21.64
-21.69
-20.38
-18.38
-16.80
-16.40
-17.22
-18.62
-19.65
-19.64
-18.61
-17.19
-16.29
-16.50
-17.78
-19.55
-20.93
-21.26
-20.40
-18.73
-16.92
-15.50
-14.57
-13.85
-12.82
-11.12
-8.86
-6.64
-5.29
-5.42
-7.08
-9.72
-12.39
-14.20
-14.79
-14.36
-13.54
-12.87
-12.48
-12.00
-10.82
-8.55
-5.32
-1.80
1.11
2.93
3.81
4.60
6.38
9.79
14.63
19.84
24.01
26.16
26.30
25.56
25.75
28.61
35.06
44.86
56.71
68.82
79.53
87.83
93.59
97.42
100.32
103.17
106.23
108.99
110.27
108.70
103.37
94.27
82.39
69.39
57.11
47.05
40.02
36.19
35.15
36.08
37.67
38.31
36.18
29.85
18.77
3.68
-13.45
-30.15
-44.24
-54.61
-61.39
-65.63
-68.54
-70.99
-73.18
-74.92
-76.07
-76.80
-77.52
-78.52
-79.61
-80.06
-78.89
-75.40
-69.62
-62.40
-55.02
-48.60
-43.62
-39.88
-36.73
-33.66
-30.66
-28.21
-26.92
-26.88
-27.49
-27.52
-25.65
-21.24
-14.62
-7.04
-0.04
5.32
8.84
11.17
13.37
16.25
19.99
24.12
27.96
30.98
33.16
34.90
36.63
38.48
40.03
40.52
39.29
36.23
31.93
27.53
24.17
22.44
22.05
22.05
21.35
19.29
16.02
12.37
9.37
7.62
6.97
6.60
5.55
3.26
-0.11
-3.71
-6.50
-7.80
-7.68
-6.85
-6.27
-6.55
-7.58
-8.66
-8.81
-7.38
-4.44
-0.76
2.52
4.36
4.21
2.19
-1.14
-5.15
-9.41
-13.82
-18.44
-23.28
-28.15
-32.65
-36.43
-39.44
-42.14
-45.25
-49.30
-54.18
-58.93
-62.02
-62.00
-58.31
-51.68
-43.91
-37.07
-32.60
-30.75
-30.62
-30.69
-29.78
-27.51
-24.40
-21.35
-19.00
-17.39
-15.97
-14.03
-11.26
-8.01
-5.17
-3.61
-3.68
-4.97
-6.44
-6.97
-5.89
-3.38
-0.28
2.45
4.26
5.34
6.49
8.60
12.08
16.50
20.79
23.74
24.73
23.97
22.44
21.33
21.38
22.55
24.07
25.02
24.79
23.45
21.62
20.09
19.28
19.04
18.71
17.60
15.40
12.43
9.46
7.34
6.47
6.56
6.80
6.32
4.70
2.24
-0.22
-1.77
-2.01
-1.28
-0.46
-0.39
-1.40
-3.12
-4.74
-5.50
-5.19
-4.24
-3.47
-3.45
-4.20
-5.13
-5.32
-4.04
-1.20
2.62
6.40
9.29
10.93
11.64
12.19
13.32
15.29
17.72
19.79
20.79
20.52
19.42
18.37
18.13
18.89
20.14
20.99
20.67
19.02
16.49
13.87
11.83
10.47
9.32
7.67
5.08
1.67
-1.89
-4.73
-6.31
-6.68
-6.51
-6.70
-7.83
-9.86
-12.16
-13.84
-14.30
-13.63
-12.56
-12.13
-12.99
-15.14
-17.82
-19.94
-20.64
-19.73
-17.80
-15.82
-14.55
-14.12
-13.97
-13.16
-10.97
-7.34
-2.99
0.88
3.25
3.76
2.84
1.52
0.77
0.95
1.70
2.12
1.46
-0.48
-3.17
-5.71
-7.33
-7.86
-7.79
-7.97
-9.07
-11.22
-14.01
-16.78
-19.07
-20.86
-22.57
-24.80
-27.83
-31.52
-35.37
-38.83
-41.66
-44.13
-46.82
-50.18
-54.12
-57.79
-59.85
-58.99
-54.52
-46.71
-36.73
-26.32
-17.17
-10.49
-6.68
-5.15
-4.49
-2.88
1.30
8.86
19.54
32.05
44.61
55.62
64.01
69.39
71.68
70.82
66.78
59.99
51.68
44.04
39.64
40.35
46.33
55.73
65.33
71.86
73.41
70.13
63.82
56.85
50.92
46.41
42.67
38.83
34.58
30.44
27.38
26.05
26.28
27.04
27.04
25.37
22.02
17.81
13.90
11.16
9.76
9.16
8.49
7.00
4.41
0.98
-2.76
-6.30
-9.33
-11.80
-13.77
-15.29
-16.28
-16.51
-15.78
-14.12
-11.96
-10.15
-9.77
-11.70
-16.21
-22.72
-29.93
-36.31
-40.66
-42.52
-42.10
-40.03
-36.90
-33.01
-28.48
-23.47
-18.38
-13.82
-10.27
-7.85
-6.18
-4.61
-2.60
-0.10
2.46
4.35
5.00
4.27
2.54
0.50
-1.22
-2.31
-2.91
-3.41
-4.21
-5.45
-6.91
-8.08
-8.41
-7.58
-5.65
-3.02
-0.24
2.31
4.51
6.52
8.58
10.77
12.92
14.63
15.56
15.58
14.91
14.02
13.34
12.99
12.75
12.16
10.82
8.71
6.21
3.96
2.53
2.08
2.27
2.44
1.94
0.53
-1.56
-3.74
-5.40
-6.30
-6.63
-6.86
-7.36
-8.14
-8.76
-8.56
-7.08
-4.35
-0.96
2.25
4.62
5.92
6.47
6.84
7.48
8.47
9.55
10.32
10.56
10.43
10.30
10.58
11.34
12.26
12.73
12.25
10.72
8.59
6.69
5.80
6.23
7.67
9.35
10.50
10.85
10.83
11.40
13.52
17.67
23.56
30.26
36.65
41.94
45.94
49.15
52.38
56.37
61.40
67.26
73.34
78.94
83.45
86.41
87.50
86.40
82.94
77.26
69.98
62.21
55.04
49.09
43.99
38.45
30.76
19.58
4.70
-12.86
-31.15
-48.12
-62.31
-73.23
-81.21
-86.93
-90.90
-93.25
-93.93
-93.00
-90.94
-88.66
-87.16
-87.08
-88.44
-90.64
-92.91
-94.76
-96.10
-97.15
-97.95
-98.12
-96.79
-92.97
-86.09
-76.31
-64.59
-52.35
-40.94
-31.23
-23.32
-16.64
-10.31
-3.57
3.90
11.80
19.38
25.75
30.31
33.01
34.41
35.46
37.17
40.35
45.34
52.02
59.85
68.01
75.69
82.31
87.75
92.29
96.52
101.06
106.45
113.08
121.12
130.42
140.24
149.03
154.43
153.73
144.65
126.07
98.52
64.10
25.87
-12.90
-49.34
-81.16
-106.56
-124.25
-133.43
-134.06
-127.11
-114.52
-98.97
-83.28
-69.74
-59.74
-53.61
-50.87
-50.67
-52.27
-55.13
-58.76
-62.31
-64.49
-63.85
-59.58
-52.37
-44.89
-41.18
-45.06
-58.27
-79.27
-103.52
-125.09
-138.89
-142.36
-135.83
-121.66
-102.75
-81.50
-59.52
-37.97
-18.10
-1.35
11.02
18.48
21.64
22.08
21.74
22.23
24.29
27.55
30.90
32.95
32.75
30.23
26.26
22.27
19.68
19.19
20.52
22.61
24.18
24.35
23.04
20.94
19.13
18.45
19.03
20.24
21.03
20.50
18.31
14.92
11.33
8.67
7.83
9.34
13.36
19.78
28.04
36.95
44.49
48.01
44.87
33.63
15.08
-7.43
-28.77
-43.62
-48.45
-42.74
-28.94
-11.23
6.39
21.59
34.15
45.41
56.90
69.19
81.42
91.67
98.01
99.38
96.00
89.14
80.48
71.45
62.89
55.11
48.27
42.57
38.21
35.11
32.61
29.48
24.45
16.80
7.00
-3.42
-12.42
-18.25
-20.10
-18.39
-14.46
-9.86
-5.76
-2.45
0.83
5.59
13.26
24.08
36.39
46.86
51.91
49.48
40.40
28.31
18.07
13.59
16.08
23.76
32.99
39.92
41.68
36.74
24.56
5.07
-21.09
-52.18
-84.83
-114.43
-136.28
-147.06
-145.90
-134.72
-117.56
-99.13
-83.35
-72.36
-66.32
-63.96
-63.43
-63.26
-62.66
-61.47
-59.69
-57.17
-53.57
-48.58
-42.36
-35.65
-29.56
-25.10
-22.68
-21.86
-21.70
-21.14
-19.65
-17.41
-15.09
-13.47
-12.87
-12.96
-12.98
-12.07
-9.86
-6.69
-3.48
-1.26
-0.57
-1.15
-2.06
-2.09
-0.53
2.45
5.84
8.26
8.74
7.21
4.52
2.05
0.94
1.60
3.58
5.87
7.54
8.21
8.19
8.30
9.28
11.32
14.00
16.47
17.99
18.31
17.71
16.84
16.24
16.08
16.04
15.55
14.24
12.12
9.64
7.46
6.04
5.40
5.07
4.35
2.70
0.02
-3.38
-6.86
-9.97
-12.68
-15.41
-18.76
-23.01
-27.88
-32.49
-35.73
-36.86
-35.90
-33.69
-31.56
-30.71
-31.72
-34.42
-38.08
-41.91
-45.36
-48.27
-50.74
-52.67
-53.42
-51.78
-46.32
-36.08
-21.27
-3.45
14.98
31.62
45.07
55.23
63.07
69.78
76.01
81.54
85.54
87.15
85.95
82.07
76.00
68.35
59.74
50.84
42.53
35.82
31.57
30.25
31.89
36.00
41.79
48.31
54.54
59.39
61.89
61.51
58.43
53.59
48.33
43.84
40.62
38.31
36.02
33.03
29.23
25.23
22.00
20.13
19.46
19.15
18.18
15.99
12.72
9.12
5.95
3.61
2.02
0.74
-0.62
-2.13
-3.51
-4.41
-4.63
-4.32
-3.84
-3.60
-3.70
-3.95
-3.98
-3.55
-2.73
-1.91
-1.54
-1.80
-2.50
-3.07
-2.90
-1.72
0.25
2.43
4.18
5.18
5.50
5.47
5.48
5.80
6.51
7.63
9.06
10.60
11.90
12.55
12.23
10.93
8.94
6.75
4.78
3.19
1.78
0.25
-1.64
-3.92
-6.46
-9.13
-11.86
-14.68
-17.52
-20.17
-22.24
-23.36
-23.38
-22.46
-21.05
-19.71
-18.92
-18.80
-19.22
-19.84
-20.34
-20.57
-20.52
-20.29
-20.00
-19.65
-19.20
-18.60
-17.92
-17.36
-17.12
-17.34
-17.88
-18.42
-18.57
-18.07
-16.92
-15.40
-13.77
-12.18
-10.45
-8.29
-5.46
-2.07
1.41
4.30
6.10
6.68
6.34
5.67
5.21
5.17
5.33
5.32
4.81
3.85
2.83
2.28
2.54
3.56
4.82
5.62
5.44
4.19
2.23
0.14
-1.56
-2.72
-3.46
-4.13
-4.97
-6.03
-7.18
-8.20
-9.01
-9.70
-10.46
-11.49
-12.79
-14.08
-14.95
-14.96
-13.90
-11.92
-9.44
-6.99
-4.99
-3.54
-2.50
-1.57
-0.60
0.33
0.90
0.76
-0.24
-1.91
-3.84
-5.51
-6.68
-7.41
-8.06
-9.05
-10.59
-12.54
-14.48
-15.86
-16.34
-15.92
-15.00
-14.13
-13.75
-13.93
-14.41
-14.75
-14.60
-13.99
-13.32
-13.18
-13.99
-15.68
-17.78
-19.51
-20.21
-19.65
-18.06
-15.97
-13.85
-11.88
-9.96
-7.79
-5.20
-2.28
0.64
3.12
4.90
5.97
6.61
7.22
8.06
9.09
9.98
10.28
9.69
8.28
6.49
5.01
4.38
4.76
5.81
6.89
7.38
7.01
5.96
4.74
3.88
3.60
3.70
3.68
3.01
1.44
-0.83
-3.30
-5.45
-7.05
-8.26
-9.50
-11.04
-12.75
-14.11
-14.48
-13.49
-11.39
-8.94
-6.98
-5.99
-5.83
-5.82
-5.22
-3.66
-1.37
0.97
2.65
3.32
3.15
2.68
2.46
2.80
3.57
4.30
4.48
3.83
2.42
0.69
-0.80
-1.64
-1.83
-1.74
-1.90
-2.67
-3.99
-5.37
-6.19
-6.09
-5.27
-4.41
-4.29
-5.37
-7.52
-10.03
-12.07
-13.07
-13.02
-12.41
-11.84
-11.66
-11.78
-11.66
-10.67
-8.48
-5.24
-1.58
1.72
4.14
5.59
6.49
7.44
8.81
10.53
12.09
12.92
12.71
11.67
10.44
9.77
10.07
11.19
12.50
13.29
13.13
12.12
10.75
9.62
9.00
8.74
8.34
7.37
5.71
3.70
1.94
0.97
0.94
1.48
1.93
1.67
0.43
-1.53
-3.62
-5.23
-6.09
-6.50
-7.12
