1587556854.00
64.000000
-0.00
-0.00
-0.00
-0.00
-0.00
-0.00
-0.00
-0.00
-0.00
-0.00
0.00
0.01
0.01
-0.00
-0.03
-0.05
-0.05
0.00
0.13
0.36
0.66
1.01
1.37
1.72
2.06
2.40
2.79
3.24
3.80
4.42
5.06
5.66
6.20
6.68
7.15
7.68
8.31
9.14
10.09
11.04
11.88
12.56
13.14
13.76
14.65
15.96
17.91
20.32
22.90
25.38
27.58
29.57
31.68
34.32
37.81
42.54
48.15
54.10
59.83
64.97
69.58
74.14
79.34
85.71
93.76
103.00
112.62
121.73
129.77
136.75
143.30
150.75
157.77
166.64
177.95
191.79
206.97
220.57
228.25
225.36
208.53
176.87
132.76
80.05
23.07
-34.94
-92.44
-149.16
-205.23
-260.37
-313.74
-363.87
-409.83
-450.91
-486.50
-515.74
-537.23
-549.22
-549.96
-538.37
-514.21
-478.67
-433.88
-382.45
-327.02
-269.84
-212.63
-156.66
-102.95
-52.37
-5.90
35.58
71.43
101.35
125.50
144.38
158.69
169.15
176.37
180.75
182.57
182.07
179.51
175.23
169.65
163.18
156.15
148.81
141.30
133.69
126.02
118.33
110.69
103.16
95.80
88.68
81.83
75.25
68.95
62.95
57.25
51.86
46.78
42.03
37.59
33.45
29.61
26.07
22.81
19.83
17.11
14.67
12.48
10.54
8.83
7.35
6.07
4.97
4.05
3.27
2.62
2.09
1.65
1.30
1.01
0.79
0.61
0.47
0.37
0.28
0.22
0.18
0.15
0.13
0.12
0.12
0.13
0.15
0.17
0.20
0.23
0.27
0.31
0.35
0.39
0.44
0.48
0.53
0.58
0.63
0.68
0.74
0.80
0.86
0.94
1.04
1.15
1.28
1.40
1.50
1.57
1.61
1.65
1.71
1.83
2.02
2.28
2.57
2.85
3.10
3.33
3.60
3.97
4.49
5.18
5.97
6.75
7.42
7.90
8.22
8.51
8.96
9.73
10.83
12.16
13.44
14.40
14.85
14.87
14.73
14.82
15.44
16.62
17.98
18.84
18.48
16.41
12.70
7.92
2.97
-1.31
-4.65
-7.44
-10.62
-15.18
-21.62
-29.49
-37.37
-43.48
-46.48
-46.08
-43.41
-40.49
-39.39
-41.39
-46.45
-53.30
-59.93
-64.17
-64.21
-58.94
-48.18
-32.84
-14.86
3.28
19.49
32.96
44.51
55.87
68.31
81.21
91.47
94.55
86.55
66.33
36.50
3.10
-26.36
-45.51
-51.26
-45.24
-33.33
-23.19
-20.85
-27.79
-40.00
-49.77
-49.61
-35.75
-10.09
21.43
52.20
78.07
98.22
113.69
125.62
133.84
137.68
136.83
132.05
124.64
115.33
103.67
88.48
69.28
46.00
21.79
0.03
-17.98
-33.55
-48.82
-63.62
-73.85
-73.06
-56.63
-25.72
11.07
40.68
52.11
42.12
17.16
-9.89
-26.49
-26.84
-14.02
2.51
12.56
11.19
0.52
-13.09
-23.91
-30.55
-36.08
-44.25
-55.98
-68.45
-77.24
-79.90
-77.68
-73.98
-71.07
-68.05
-61.70
-50.27
-36.85
-29.72
-38.86
-70.50
-122.76
-185.46
-243.69
-283.18
-294.84
-276.67
-233.21
-173.42
-108.13
-47.27
2.03
36.84
58.56
71.38
80.59
90.68
104.12
121.34
141.33
162.40
182.69
199.86
210.60
211.14
198.51
172.34
135.77
94.62
54.67
18.76
-14.66
-50.37
-92.63
-141.42
-191.00
-232.05
-256.45
-261.82
-252.82
-238.54
-227.36
-222.25
-219.65
-212.18
-193.71
-163.47
-126.66
-91.39
-64.25
-46.66
-34.83
-22.67
-5.53
17.49
43.92
70.08
93.68
114.70
134.41
153.61
171.13
184.03
188.96
184.10
170.66
153.26
138.78
134.19
143.51
165.23
191.73
211.12
211.37
185.75
136.53
75.08
17.75
-21.31
-36.62
-33.80
-26.67
-30.03
-52.01
-90.03
-132.29
-163.69
-172.93
-157.06
-121.43
-75.86
-29.43
13.10
51.41
87.16
121.03
151.08
173.12
182.76
177.97
160.79
137.35
115.65
102.09
98.08
98.25
92.31
69.86
26.16
-33.99
-97.10
-146.29
-168.87
-162.19
-134.84
-102.22
-79.04
-72.67
-81.02
-95.51
-106.99
-110.98
-109.30
-107.79
-111.44
-120.39
-129.38
-130.77
-119.61
-97.17
-71.07
-51.21
-44.05
-48.17
-54.38
-50.39
-27.71
13.71
65.46
115.60
155.05
181.49
198.37
210.25
217.86
217.40
204.06
177.25
143.49
113.95
98.13
97.68
104.85
106.90
94.13
66.10
32.25
6.27
-1.91
8.46
28.60
45.82
50.69
42.22
27.91
18.73
22.30
38.07
57.21
67.66
61.38
39.46
12.10
-7.07
-8.92
5.25
23.18
27.70
5.86
-43.69
-109.01
-169.69
-205.66
-205.33
-169.43
-109.37
-42.03
16.45
55.71
72.77
71.14
58.03
40.84
24.96
13.05
5.92
3.95
7.69
17.13
30.00
40.61
40.56
22.26
-16.85
-71.37
-128.60
-172.89
-191.54
-179.41
-139.86
-82.17
-17.13
46.66
104.65
155.82
200.67
239.25
270.45
292.27
302.71
301.02
287.97
265.60
236.52
202.92
166.22
127.14
85.95
43.00
-1.01
-44.97
-87.13
-125.45
-158.14
-184.29
-204.38
-220.00
-232.71
-242.91
-249.61
-251.44
-248.16
-241.52
-234.45
-229.04
-224.39
-216.05
-197.45
-162.90
-110.55
-43.94
28.59
96.24
148.76
178.96
184.16
166.02
129.42
80.84
26.59
-27.51
-76.09
-114.15
-137.40
-144.01
-136.30
-120.89
-106.68
-101.26
-107.88
-124.35
-144.76
-162.29
-171.81
-170.68
-157.97
-133.63
-98.94
-57.93
-18.11
11.02
21.91
13.30
-7.94
-29.28
-38.40
-29.13
-4.22
26.65
52.05
64.39
62.64
51.56
38.19
28.02
22.90
21.28
20.32
18.36
16.44
18.03
26.84
43.60
63.73
78.06
76.39
52.98
10.98
-37.23
-74.61
-87.10
-70.32
-31.79
12.63
46.01
57.99
48.65
27.60
8.70
3.60
17.01
45.55
80.39
111.86
133.29
142.58
141.05
131.14
114.46
91.78
64.59
36.41
12.63
-1.05
-1.21
11.39
31.77
52.53
66.92
71.79
69.34
66.57
72.60
94.40
132.71
180.27
223.47
247.57
243.03
210.25
159.79
108.06
70.36
54.54
58.52
72.18
82.51
79.36
59.57
27.77
-6.14
-31.74
-42.80
-40.01
-30.52
-24.31
-29.36
-47.91
-75.80
-105.03
-128.34
-143.13
-152.30
-161.52
-174.82
-191.63
-207.19
-216.32
-217.51
-214.41
-213.42
-218.79
-228.43
-233.65
-223.17
-189.54
-134.06
-67.08
-3.52
43.83
69.33
75.35
68.88
56.67
42.21
26.06
8.35
-8.92
-21.69
-26.23
-21.88
-11.90
-1.34
6.20
10.69
14.84
21.17
29.69
38.28
45.37
52.27
63.06
81.13
105.28
128.49
141.03
136.46
116.26
89.91
69.56
63.11
69.68
80.37
84.18
74.89
54.99
34.39
25.19
35.40
64.88
105.66
145.58
173.29
182.14
171.36
144.26
105.40
58.31
5.08
-52.45
-111.08
-165.67
-210.51
-241.58
-258.80
-266.40
-271.17
-279.22
-292.89
-309.49
-322.02
-322.43
-305.00
-269.29
-220.78
-168.95
-123.51
-90.52
-70.52
-59.26
-50.80
-40.55
-26.55
-8.69
13.14
39.75
71.10
103.53
128.83
136.50
119.39
79.19
28.17
-15.45
-36.10
-28.77
-1.05
32.06
56.65
66.54
63.88
54.31
41.45
24.50
1.16
-27.56
-54.81
-70.56
-68.03
-49.13
-24.86
-9.69
-13.98
-38.29
-74.00
-108.81
-133.29
-144.43
-145.31
-142.15
-140.74
-144.50
-153.82
-166.67
-179.24
-186.89
-185.18
-171.22
-144.69
-107.82
-64.51
-18.54
27.65
73.52
119.88
167.81
217.75
269.08
320.17
368.37
410.35
442.34
461.04
464.62
453.33
429.77
398.35
364.06
331.24
302.65
279.03
259.42
241.83
224.16
205.08
184.48
163.40
143.55
126.66
114.01
106.04
102.21
101.15
100.96
99.84
96.63
91.38
85.39
80.75
79.23
81.23
85.28
88.59
88.51
84.10
76.91
70.36
67.96
71.34
79.33
88.45
94.50
94.38
87.03
73.23
54.56
32.47
7.87
-18.66
-46.42
-74.66
-102.97
-131.94
-163.00
-197.50
-235.13
-272.60
-304.00
-322.73
-324.57
-310.09
-285.13
-258.75
-239.44
-231.61
-233.91
-240.50
-244.21
-239.96
-226.68
-206.96
-184.96
-163.99
-145.27
-128.12
-111.40
-94.82
-79.71
-68.52
-63.66
-66.24
-75.53
-89.13
-103.74
-116.08
-123.80
-126.14
-124.07
-119.67
-114.56
-108.36
-98.32
-80.61
-53.12
-17.95
18.31
47.20
62.63
64.23
57.70
51.39
51.57
58.93
68.62
73.50
68.47
53.19
31.74
9.97
-7.82
-20.50
-30.01
-39.47
-51.21
-65.55
-80.58
-93.08
-99.53
-97.19
-84.78
-63.09
-35.37
-7.43
13.10
18.82
5.45
-25.64
-66.59
-104.94
-127.96
-127.77
-104.61
-66.79
-27.18
2.08
14.07
9.02
-6.96
-25.05
-37.22
-38.26
-26.49
-3.04
29.08
65.71
102.03
132.98
154.24
163.45
161.26
151.10
137.61
124.36
112.51
101.32
89.93
79.04
71.20
69.20
74.02
83.87
95.34
105.74
114.99
125.36
139.08
155.56
170.38
176.94
170.09
149.25
119.02
87.00
60.07
41.15
28.29
16.27
-0.19
-23.26
-50.59
-76.16
-93.12
-96.93
-87.13
-66.76
-39.88
-9.16
24.77
61.98
100.80
136.39
161.61
170.00
159.28
133.29
101.19
73.99
60.55
64.35
82.66
108.00
131.03
143.73
141.77
125.47
99.07
68.86
40.76
18.40
2.52
-8.33
-16.53
-24.33
-33.59
-46.05
-63.44
-86.93
-116.01
-147.67
-176.71
-197.35
-205.24
-199.03
-180.51
-154.05
-125.46
-100.61
-83.81
-76.12
-74.35
-71.64
-60.57
-37.20
-4.34
28.79
50.58
53.15
36.83
10.25
-13.92
-25.30
-20.29
-2.69
19.28
37.31
46.30
45.35
36.78
24.37
11.59
0.79
-6.99
-11.79
-14.20
-15.15
-15.80
-17.53
-21.84
-30.02
-42.44
-58.03
-73.87
-85.57
-88.24
-77.98
-53.53
-17.27
24.56
63.42
91.35
104.02
102.47
92.30
80.27
70.55
62.58
51.90
33.61
6.04
-27.58
-60.56
-86.12
-100.55
-104.50
-102.05
-98.35
-97.54
-101.69
-110.69
-122.80
-135.45
-146.41
-155.26
-164.09
-176.79
-196.64
-223.57
-252.37
-273.58
-277.42
-258.55
-219.33
-169.32
-121.23
-85.46
-66.27
-61.28
-64.07
-68.14
-69.41
-66.54
-59.47
-47.62
-29.43
-3.24
31.20
71.83
114.58
155.02
190.14
219.38
244.37
267.62
291.17
315.57
339.87
362.20
380.70
393.91
400.84
400.96
393.95
380.06
360.34
336.85
312.25
289.09
268.88
251.54
235.73
219.50
201.44
181.31
160.09
139.51
121.30
106.43
94.88
85.78
78.03
70.93
64.62
60.09
58.79
62.08
70.85
85.23
104.54
127.19
150.73
172.02
187.78
195.32
193.30
181.98
163.01
138.94
112.57
86.63
63.58
45.28
32.50
24.46
18.63
11.25
-1.30
-21.35
-49.27
-83.65
-122.12
-162.00
-200.48
-234.58
-261.28
-278.18
-284.28
-280.36
-268.41
-250.55
-227.80
-200.09
-167.12
-129.99
-92.07
-58.54
-34.66
-23.83
-26.29
-39.24
-58.05
-78.02
-95.82
-110.20
-121.81
-132.38
-143.49
-155.75
-168.36
-179.77
-188.66
-194.81
-199.11
-202.74
-206.04
-208.14
-207.90
-205.61
-203.87
-206.81
-217.53
-235.65
-256.56
-273.48
-280.78
-276.71
-263.67
-246.02
-227.33
-209.15
-191.90
-176.60
-165.82
-162.43
-167.07
-176.34
-183.57
-182.19
-169.75
-149.90
-130.90
-121.45
-126.35
-144.48
-169.85
-194.91
-213.83
-223.93
-225.02
-217.56
-201.24
-174.92
-138.35
-94.11
-48.10
-8.08
19.67
33.53
37.54
39.95
49.76
73.14
111.23
160.19
212.86
261.69
301.15
329.19
346.98
357.52
363.66
366.60
365.53
358.59
344.52
324.14
300.44
277.12
256.42
237.50
216.78
189.76
153.55
108.30
57.09
4.41
-45.56
-90.15
-128.37
-160.40
-186.94
-208.74
-226.30
-239.54
-247.24
-247.00
-236.11
-213.34
-180.78
-143.90
-109.56
-82.70
-63.71
-48.42
-30.82
-6.82
23.26
55.05
82.87
102.96
114.78
120.12
120.69
116.52
106.21
88.61
64.35
36.09
7.10
-20.62
-47.01
-73.35
-100.49
-127.17
-149.67
-162.70
-161.24
-142.59
-107.66
-61.29
-11.21
34.16
68.53
89.90
100.93
107.11
113.65
122.86
133.70
143.40
150.18
155.07
161.39
172.46
189.10
208.61
225.67
234.80
232.26
216.75
188.70
149.52
101.29
47.24
-8.06
-59.29
-101.78
-133.00
-152.89
-162.98
-164.81
-158.68
-143.42
-117.68
-81.90
-39.56
2.95
38.41
61.45
70.49
67.68
57.11
42.41
25.56
7.27
-11.49
-28.08
-38.60
-39.84
-31.64
-17.78
-4.67
1.78
-0.90
-11.04
-24.31
-36.61
-46.16
-53.52
-59.94
-65.26
-67.03
-61.24
-44.44
-15.80
21.77
62.04
97.36
121.17
130.27
125.91
113.07
98.44
87.80
84.17
87.39
95.17
104.94
115.22
125.82
136.86
147.64
156.06
158.99
153.27
136.75
108.61
69.63
22.01
-30.78
-84.30
-133.81
-175.29
-206.52
-227.52
-240.12
-246.74
-248.82
-245.92
-235.76
-215.39
-182.63
-137.15
-80.80
-17.08
49.31
113.07
168.51
210.11
233.46
236.50
220.62
190.59
153.39
116.23
84.79
62.33
49.80
46.35
50.07
58.25
67.45
73.51
71.87
58.37
30.26
-12.71
-67.42
-127.28
-183.11
-224.98
-244.90
-239.40
-211.09
-168.32
-122.72
-85.41
-63.29
-57.03
-61.49
-68.70
-71.54
-66.51
-54.26
-37.94
-20.74
-4.24
11.42
26.20
38.77
46.27
45.60
35.12
15.82
-8.97
-34.92
-58.02
-75.55
-86.19
-89.86
-87.59
-81.41
-73.41
-64.74
-54.98
-42.69
-26.98
-8.81
9.14
24.24
36.15
47.78
63.79
87.40
117.45
148.03
171.26
181.45
178.17
166.24
152.65
142.68
137.45
134.37
129.41
119.83
105.59
88.69
71.51
54.90
37.57
17.08
-8.39
-38.32
-69.14
-95.10
-110.15
-110.06
-94.01
-64.89
-28.45
8.39
39.51
61.21
72.93
76.78
76.25
74.42
72.76
71.01
68.01
63.17
57.31
52.31
50.03
51.26
55.19
59.95
63.36
63.30
57.77
44.89
23.62
-5.31
-38.29
-69.32
-91.99
-102.17
-99.64
-87.65
-70.77
-52.21
-33.08
-13.45
5.66
21.47
30.86
32.80
30.17
28.80
34.31
48.52
68.14
86.62
98.22
101.51
99.91
99.19
103.40
112.19
121.09
124.29
118.14
103.04
82.78
61.80
42.35
23.43
1.82
-25.37
-58.31
-93.62
-125.35
-147.26
-155.16
-148.56
-131.01
-109.10
-90.13
-79.30
-77.42
-80.50
-81.63
-74.62
-57.46
-33.82
-11.42
1.94
2.58
-7.19
-20.50
-29.30
-28.18
-16.22
3.60
26.33
47.61
65.33
79.96
93.50
107.83
123.13
137.46
147.69
151.42
148.54
141.33
132.91
124.84
115.54
100.53
74.42
33.53
-22.53
-90.56
-164.73
-237.69
-301.70
-349.34
-375.08
-376.69
-356.12
-319.14
-273.04
-223.79
-173.87
-122.39
-67.73
-10.74
43.61
87.35
112.89
116.52
99.61
66.89
23.14
-29.20
-89.87
-157.95
-228.64
-292.32
-337.02
-353.33
-338.57
-298.06
-242.58
-183.58
-129.06
-81.75
-40.18
-0.68
40.26
85.32
136.49
195.04
260.69
330.29
397.26
452.93
489.13
501.15
489.48
459.22
417.95
372.91
329.01
288.29
250.65
215.17
181.36
149.97
123.10
103.59
93.68
93.33
99.16
104.70
102.37
86.59
56.36
16.20
-25.25
-58.05
-74.52
-71.97
-53.37
-26.44
-1.10
13.67
12.31
-6.17
-38.78
-79.98
-123.38
-163.05
-194.06
-212.70
-216.77
-206.05
-182.62
-150.64
-115.49
-82.34
-54.76
-34.07
-19.43
-8.83
-0.51
6.12
10.07
9.59
3.57
-7.29
-20.07
-30.86
-36.77
-37.61
-36.12
-36.20
-40.25
-46.96
-51.28
-46.72
-29.00
1.28
38.36
73.72
99.63
111.84
110.17
96.93
74.77
45.53
10.55
-28.22
-67.20
-101.68
-127.39
-142.39
-148.25
-149.57
-152.12
-160.41
-175.61
-194.68
-211.13
-217.66
-209.21
-185.20
-149.69
-109.32
-70.32
-36.22
-7.76
15.05
30.87
36.79
30.42
13.06
-8.61
-24.56
-26.24
-11.55
13.09
35.63
44.57
34.85
10.39
-18.35
-40.03
-47.94
-42.74
-30.96
-20.78
-17.74
-22.54
-31.69
-39.98
-43.45
-41.03
-34.40
-26.54
-20.00
-16.02
-14.54
-14.98
-17.01
-20.95
-27.64
-37.98
-52.27
-69.66
-87.94
-103.76
-113.53
-114.74
-107.30
-93.90
-79.18
-67.76
-62.38
-62.91
-66.75
-70.45
-71.17
-67.45
-59.09
-46.63
-31.00
-13.40
4.85
22.77
40.26
58.32
78.59
102.38
129.80
159.30
188.16
213.29
231.93
242.01
242.24
232.41
213.81
189.57
164.10
141.80
125.34
114.55
106.72
98.12
85.93
69.49
50.36
31.18
14.28
0.61
-10.25
-19.36
-27.45
-34.19
-38.34
-38.17
-32.32
-20.31
-2.80
18.52
41.39
63.43
82.47
96.76
105.06
106.75
101.93
91.35
76.27
58.07
37.87
16.50
-5.42
-26.85
-46.09
-60.74
-68.45
-67.94
-59.99
-47.64
-35.34
-27.43
-26.54
-32.75
-43.95
-56.92
-68.55
-76.48
-79.24
-76.13
-67.49
-55.17
-42.82
-35.00
-35.19
-43.42
-55.25
-62.89
-58.66
-38.94
-6.40
30.88
62.90
82.25
86.83
79.94
67.84
56.58
49.68
47.73
49.34
52.71
56.59
60.43
64.03
67.16
69.62
71.47
73.17
75.32
77.88
79.55
77.74
69.47
52.86
28.61
0.43
-26.06
-45.35
-53.95
-50.92
-37.25
-14.64
14.99
48.97
82.86
109.99
122.69
114.87
84.56
35.23
-24.91
-85.41
-136.55
-171.73
-188.73
-189.34
-178.09
-160.50
-141.38
-123.81
-109.09
-97.33
-88.36
-82.05
-78.08
-75.39
-72.19
-66.69
-58.20
-47.76
-37.73
-30.33
-26.13
-23.42
-18.84
-8.95
8.38
33.21
63.54
95.82
125.45
147.32
156.56
149.72
126.17
89.24
45.97
5.40
-24.57
-40.25
-43.28
-39.57
-35.97
-37.23
-44.24
-54.97
-66.77
-78.52
-91.01
-105.71
-122.86
-140.54
-155.32
-164.08
-165.63
-160.97
-152.00
-139.88
-124.19
-103.56
-77.29
-46.71
-15.35
12.20
32.18
43.26
47.00
47.07
47.71
52.02
60.86
72.99
85.90
97.21
105.78
111.82
116.28
119.52
120.39
116.09
103.47
80.93
49.85
14.50
-19.80
-49.32
-73.67
-95.45
-117.99
-142.45
-166.04
-183.07
-187.83
-177.80
-154.88
-124.19
-91.49
-60.64
-33.02
-8.80
11.64
27.60
39.69
51.34
68.98
99.36
146.11
206.88
273.40
334.45
380.22
405.79
411.71
402.30
382.17
355.21
324.68
294.03
267.30
248.55
240.86
244.33
256.05
268.88
275.43
271.07
255.27
230.99
202.78
175.78
152.95
135.61
119.91
101.88
80.25
56.93
35.40
18.30
7.70
2.02
-0.97
-9.17
-28.66
-60.24
-99.72
-140.77
-178.98
-210.68
-237.65
-262.31
-294.25
-340.85
-402.96
-475.66
-551.55
-625.59
-693.58
-757.77
-771.29
-703.57
-557.87
-371.18
-185.91
-25.48
85.98
163.49
217.94
255.69
272.56
263.58
237.48
203.29
170.51
145.17
129.00
117.21
106.19
89.60
64.43
32.79
0.10
-26.81
-43.63
-52.30
-59.79
-70.82
-89.49
-116.37
-148.71
-182.58
-213.82
-240.32
-267.85
-304.65
-355.23
-420.15
-496.55
-580.77
-670.46
-763.52
-815.59
-795.62
-697.81
-544.61
-370.34
-203.28
-60.48
50.08
128.05
178.93
205.18
210.84
201.57
184.40
165.25
149.48
140.21
139.16
146.72
156.59
162.85
162.09
154.83
144.42
134.76
128.82
128.79
136.42
144.11
146.51
140.66
126.89
107.68
85.94
63.69
42.04
21.15
-0.98
-25.38
-51.94
-78.90
-103.66
-123.98
-138.92
-148.82
-154.97
-159.40
-162.78
-164.47
-162.49
-154.36
-138.23
-113.79
-82.13
-45.30
-5.29
37.26
82.77
132.70
189.09
253.67
327.17
408.07
491.75
570.31
633.88
672.44
678.43
648.91
586.78
500.40
401.86
304.39
219.59
155.36
115.14
98.48
102.47
122.84
154.06
188.59
216.30
225.64
206.90
156.70
81.36
-3.73
-78.66
-125.86
-135.81
-109.19
-54.97
13.31
81.75
138.49
174.66
184.61
166.35
121.86
56.80
-21.03
-103.56
-184.06
-257.73
-321.03
-370.68
-403.46
-416.74
-409.60
-383.50
-342.14
-290.63
-234.21
-177.27
-122.75
-71.94
-24.82
19.40
61.80
103.36
144.71
185.89
226.07
263.15
293.61
312.79
315.99
300.17
265.53
215.99
158.48
101.11
51.11
13.52
-9.20
-16.84
-11.19
3.89
22.03
34.92
34.24
14.76
-22.49
-69.07
-110.98
-133.49
-126.95
-90.64
-32.75
33.34
94.54
142.48
174.84
193.69
202.46
203.64
198.47
187.95
173.95
159.22
146.45
136.88
129.83
123.10
114.13
101.11
83.45
61.55
36.08
7.37
-25.08
-62.44
-105.82
-155.02
-207.25
-256.53
-294.63
-313.49
-308.42
-280.28
-235.34
-182.81
-131.21
-85.70
-47.73
-16.52
8.99
28.92
42.89
51.10
54.95
56.74
58.31
60.11
61.18
60.33
57.50
54.15
52.64
54.69
60.42
68.29
76.07
81.99
85.42
86.59
85.82
82.80
76.58
66.25
51.77
34.48
16.50
-0.36
-16.05
-32.82
-54.77
-86.33
-129.78
-182.91
-237.92
-282.79
-305.25
-297.91
-262.44
-210.10
-158.12
-123.35
-116.39
-138.95
-185.13
-245.06
-308.44
-366.39
-411.44
-437.36
-439.71
-417.39
-373.96
-317.14
-256.29
-199.35
-150.28
-108.51
-70.43
-31.99
8.64
49.97
87.84
117.56
135.92
142.28
138.22
126.48
110.09
92.36
76.62
65.63
60.62
60.65
63.03
64.91
65.08
64.61
65.91
70.52
77.44
83.50
85.44
82.33
75.84
68.54
61.41
52.79
39.62
20.07
-4.41
-29.39
-49.51
-60.95
-62.88
-57.13
-46.91
-35.39
-25.06
-17.53
-13.86
-14.45
-19.05
-26.83
-36.61
-47.23
-57.71
-67.12
-74.59
-79.30
-80.76
-79.05
-75.01
-69.83
-64.53
-59.27
-53.33
-45.40
-34.51
-20.76
-5.54
8.96
21.01
30.62
40.00
52.57
70.75
93.59
116.28
131.89
134.71
123.57
102.87
80.95
66.65
66.07
81.07
109.56
146.91
186.96
222.68
246.73
252.69
237.09
200.95
150.04
93.20
39.38
-4.99
-37.15
-57.48
-67.75
-69.50
-63.43
-49.81
-29.49
-4.56
21.37
43.62
57.16
57.48
41.40
7.71
-42.27
-104.25
-171.14
-233.91
-283.21
-311.62
-315.38
-295.31
-256.10
-204.23
-145.70
-84.38
-22.14
39.71
98.69
150.40
189.46
211.70
216.32
206.69
189.18
170.52
155.03
143.19
132.40
119.58
103.84
87.99
77.57
78.09
92.10
117.45
148.03
176.36
196.77
207.50
210.99
212.20
216.49
227.74
247.72
276.11
310.69
347.61
381.50
406.22
416.33
408.99
385.38
350.44
310.97
272.67
237.79
204.41
167.91
123.70
70.22
10.25
-49.75
-102.01
-140.40
-162.73
-171.14
-170.87
-168.09
-167.75
-172.51
-183.13
-199.52
-221.58
-249.39
-282.38
-318.47
-354.26
-386.29
-412.70
-433.99
-452.21
-469.21
-485.52
-500.40
-513.26
-524.89
-537.10
-550.82
-563.90
-570.50
-563.07
-536.05
-489.02
-427.47
-360.28
-295.70
-238.08
-186.93
-138.74
-89.80
-38.24
15.52
69.83
122.93
173.89
222.37
268.03
310.09
347.25
377.91
400.58
414.12
417.64
410.62
392.89
364.73
327.23
282.40
233.41
184.82
142.17
111.16
96.07
98.21
114.99
140.40
166.84
187.60
198.84
200.31
194.39
184.35
172.79
160.76
148.07
133.96
117.71
98.85
76.81
50.86
20.40
-14.12
-50.90
-87.00
-120.03
-149.85
-179.04
-211.13
-247.56
-285.24
-317.02
-335.02
-335.06
-319.46
-295.94
-273.32
-256.44
-244.24
-231.76
-214.85
-194.02
-174.32
-161.56
-157.22
-156.49
-150.83
-133.40
-103.79
-68.44
-36.84
-16.37
-8.89
-11.14
-17.83
-25.31
-32.48
-39.36
-44.83
-45.90
-39.23
-23.91
-2.88
17.84
32.37
38.37
38.51
39.02
46.28
63.41
88.44
115.28
136.74
148.03
148.88
143.27
137.06
135.05
138.98
147.39
157.05
164.85
169.18
170.08
168.42
164.99
160.08
153.54
145.22
135.27
124.12
112.33
100.25
88.02
75.80
63.87
52.75
43.07
35.38
30.14
27.88
29.27
34.76
43.89
54.74
64.14
68.78
66.78
58.64
46.83
34.12
21.82
9.19
-5.60
-23.59
-43.73
-63.14
-78.88
-90.11
-99.05
-110.12
-127.55
-152.87
-183.64
-214.21
-237.77
-248.97
-245.56
-228.67
-201.69
-168.55
-132.16
-93.70
-53.13
-10.33
33.69
76.44
114.53
144.89
165.97
178.19
183.47
184.12
181.72
176.60
168.22
156.14
140.90
124.28
108.70
96.16
87.42
81.66
77.01
71.42
63.57
53.31
41.76
30.63
21.50
15.13
11.23
8.62
5.87
2.08
-2.68
-7.36
-10.39
-10.49
-7.20
-1.17
6.16
13.11
18.36
21.30
22.05
21.15
19.24
16.82
14.10
11.20
8.28
5.61
3.58
2.47
2.28
2.62
2.88
2.39
0.85
-1.60
-4.41
-6.91
-8.64
-9.51
-9.83
-10.02
-10.38
-10.91
-11.33
-11.24
-10.35
-8.59
-6.23
-3.67
-1.36
0.40
1.56
2.33
3.01
3.91
5.15
6.64
8.11
9.23
9.81
9.83
9.43
8.78
8.05
7.37
6.79
6.40
6.26
6.38
6.68
6.99
7.11
6.92
6.50
6.06
5.92
6.37
7.59
9.67
12.63
16.40
20.85
25.77
30.83
35.75
40.38
44.77
49.23
54.20
60.05
66.92
74.53
82.38
89.91
96.86
103.41
110.11
117.59
126.26
136.09
146.71
157.70
168.85
180.22
191.96
204.15
216.68
229.46
242.53
255.85
268.92
280.36
287.89
288.97
281.71
265.75
242.39
214.03
183.29
152.21
122.06
93.55
67.28
43.82
23.47
5.93
-9.84
-25.23
-41.39
-58.61
-76.27
-93.11
-108.05
-120.86
-132.44
-144.53
-158.99
-176.97
-198.38
-222.26
-247.14
-272.03
-296.95
-322.97
-351.98
-386.29
-428.31
-479.84
-541.01
-609.03
-677.47
-737.13
-778.38
-794.42
-783.79
-750.77
-703.52
-650.68
-598.51
-549.73
-504.38
-461.66
-421.45
-384.58
-352.00
-323.77
-298.66
-274.66
-250.12
-224.47
-198.32
-173.15
-150.25
-129.96
-111.37
-92.63
-71.60
-46.81
-17.95
14.01
47.26
79.93
110.80
139.66
167.18
194.33
221.76
249.29
275.87
300.03
320.71
337.70
351.87
364.72
377.66
391.32
405.29
418.42
429.43
437.35
441.48
440.81
433.66
417.81
391.22
353.16
304.80
248.71
187.54
122.90
55.42
-13.68
-80.84
-139.42
-181.09
-199.02
-190.96
-160.71
-116.65
-68.31
-23.13
15.52
47.88
76.00
101.98
127.30
153.15
180.93
211.88
245.97
280.85
311.87
333.50
341.54
334.97
316.53
291.47
265.26
241.62
221.60
204.02
186.78
168.04
146.96
123.65
98.92
73.96
50.20
28.94
10.95
-3.92
-16.66
-28.60
-40.57
-52.32
-62.67
-70.50
-75.94
-80.93
-88.60
-101.82
-121.63
-146.32
-171.68
-192.18
-202.42
-198.31
-177.96
-142.21
-94.82
-42.07
8.50
49.83
77.32
90.03
90.50
83.50
74.10
66.28
62.38
63.46
69.79
81.19
96.82
114.61
131.16
142.13
143.50
133.13
111.94
83.88
54.55
28.89
9.37
-4.54
-15.09
-24.36
-32.98
-40.35
-46.20
-52.24
-62.63
-82.46
-114.85
-158.67
-208.72
-258.18
-301.93
-338.45
-369.07
-395.10
-415.31
-425.57
-421.26
-400.64
-366.97
-327.43
-289.57
-257.44
-229.80
-201.44
-166.77
-123.08
-71.86
-17.50
35.27
83.45
126.29
164.33
197.92
226.34
247.88
260.94
265.11
261.52
252.42
240.16
226.28
211.34
195.38
178.89
163.28
150.63
142.74
140.18
141.85
145.26
147.57
146.60
141.43
132.17
119.47
103.93
85.92
65.77
43.86
20.20
-6.39
-38.42
-78.82
-128.57
-184.32
-237.69
-277.37
-293.55
-282.46
-248.44
-202.21
-156.37
-120.36
-97.79
-86.79
-82.82
-81.50
-80.05
-77.14
-71.75
-62.58
-48.43
-29.09
-5.99
18.03
39.54
55.74
65.43
69.18
68.97
67.31
66.19
66.28
66.75
65.75
61.35
52.56
39.89
25.32
11.51
0.68
-6.50
-11.24
-16.20
-24.33
-37.38
-54.87
-73.88
-89.89
-98.35
-96.19
-82.75
-59.71
-30.26
2.15
34.68
65.64
94.41
121.24
146.82
172.03
197.44
222.94
247.51
269.19
285.57
294.30
293.72
283.29
263.64
236.40
203.84
168.39
132.19
96.73
62.85
31.05
2.04
-23.07
-42.97
-56.71
-64.42
-67.52
-68.01
-67.58
-66.70
-64.57
-59.83
-51.63
-40.29
-27.07
-13.48
-0.65
10.65
19.27
23.08
19.12
4.83
-20.38
-54.04
-90.86
-124.33
-148.98
-162.34
-165.81
-164.05
-163.16
-168.15
-180.72
-198.47
-215.93
-227.00
-227.70
-217.69
-199.81
-177.94
-154.69
-130.52
-104.56
-76.67
-48.75
-24.52
-7.71
-0.11
-0.91
-7.57
-17.71
-30.36
-45.77
-63.98
-83.45
-100.69
-111.32
-112.09
-102.58
-85.79
-66.98
-51.55
-43.04
-41.98
-46.28
-52.46
-57.39
-59.20
-57.31
-51.80
-42.56
-28.92
-9.94
14.83
44.57
76.93
108.51
135.99
157.11
171.22
179.22
182.74
183.34
181.86
178.35
172.57
164.45
154.37
142.93
130.36
116.01
98.20
74.81
44.20
6.24
-37.32
-82.93
-126.11
-162.54
-189.00
-203.82
-206.78
-198.88
-181.76
-157.36
-127.45
-93.48
-56.59
-17.88
21.29
59.03
92.98
120.85
140.94
152.76
156.99
155.18
149.07
140.14
129.39
117.48
104.99
92.45
80.33
68.94
58.37
48.52
39.24
30.43
22.14
14.54
7.83
1.97
-3.44
-9.11
-15.70
-23.42
-31.62
-38.97
-43.90
-45.27
-42.77
-36.90
-28.53
-18.53
-7.48
4.28
16.54
28.91
40.66
50.86
58.55
63.10
64.44
63.07
59.82
55.22
49.15
40.78
29.20
14.21
-2.96
-19.87
-33.77
-42.82
-46.82
-47.00
-45.23
-43.01
-41.14
-39.94
-39.83
-41.42
-45.33
-51.82
-60.74
-71.95
-85.84
-103.17
-124.20
-147.56
-169.63
-185.28
-189.59
-179.93
-156.87
-123.84
-85.63
-46.90
-11.20
19.25
43.45
61.81
76.20
89.74
105.74
126.24
150.89
176.86
200.03
216.67
224.75
224.31
216.90
204.67
189.79
174.33
160.17
148.94
141.46
137.40
135.13
132.30
126.70
117.20
104.26
89.70
76.09
65.68
59.59
57.46
57.66
57.91
56.07
50.86
42.11
30.66
17.97
5.53
-5.59
-14.91
-22.52
-28.87
-34.52
-39.79
-44.60
-48.46
-50.74
-51.05
-49.55
-47.00
-44.42
-42.62
-41.91
-42.05
-42.53
-43.12
-44.06
-45.95
-49.18
-53.34
-56.98
-58.04
-54.79
-46.90
-35.84
-24.54
-16.16
-12.84
-14.62
-19.53
-24.44
-26.33
-23.46
-15.90
-5.34
5.35
12.76
13.47
4.80
-14.01
-40.62
-68.93
-90.21
-95.78
-80.57
-45.79
0.93
48.20
85.21
105.63
109.24
100.63
86.20
71.21
58.18
47.31
37.83
29.13
21.05
13.26
4.79
-5.99
-20.46
-38.66
-58.72
-77.28
-90.87
-97.48
-97.55
-93.80
-89.95
-89.15
-93.00
-101.35
-112.96
-126.08
-138.75
-148.70
-153.32
-150.26
-138.31
-118.32
-93.20
-67.05
-43.60
-24.93
-11.16
-1.01
7.06
14.18
20.93
27.67
34.86
42.91
51.82
60.80
68.54
73.77
75.90
75.37
73.35
71.16
69.69
69.22
69.63
70.84
72.89
75.92
79.74
83.60
86.36
86.81
84.15
78.26
69.59
58.89
46.88
34.12
20.99
7.76
-5.26
-17.67
-29.08
-39.23
-48.03
-55.66
-62.38
-68.38
-73.63
-77.94
-81.10
-83.15
-84.50
-85.76
-87.48
-89.69
-91.84
-93.06
-92.61
-90.30
-86.67
-82.68
-79.27
-77.00
-75.84
-75.40
-75.14
-74.59
-73.49
-71.73
-69.32
-66.36
-63.07
-59.73
-56.70
-54.28
-52.62
-51.61
-50.92
-50.05
-48.50
-45.93
-42.25
-37.63
-32.45
-27.30
-22.79
-19.44
-17.51
-16.93
-17.29
-17.96
-18.33
-17.97
-16.76
-14.92
-12.90
-11.17
-10.06
-9.57
-9.41
-9.04
-7.96
-5.86
-2.85
0.65
4.09
6.98
9.04
10.14
10.19
9.14
7.17
4.82
2.92
2.47
4.18
8.16
13.85
20.30
26.49
31.76
35.71
38.17
38.93
37.88
35.18
31.53
28.07
26.00
26.01
27.81
30.24
31.77
31.18
28.13
23.22
17.59
12.35
8.09
4.75
1.89
-1.01
-4.35
-8.30
-13.02
-18.75
-25.75
-34.12
-43.55
-53.33
-62.53
-70.45
-77.01
-82.74
-88.46
-94.69
-101.23
-107.10
-110.91
-111.35
-107.57
-99.33
-86.91
-71.11
-53.26
-35.25
-19.38
-7.83
-2.10
-2.62
-8.53
-17.90
-28.11
-36.33
-40.18
-38.19
-30.25
-17.52
-2.04
14.12
29.48
43.43
55.96
67.07
76.27
82.67
85.50
84.74
81.45
77.50
74.84
74.70
77.01
80.50
83.33
84.17
83.05
81.52
81.78
85.29
91.55
97.93
100.79
97.44
87.71
74.18
60.88
51.17
46.03
43.90
41.86
37.49
30.12
20.72
10.92
1.82
-6.52
-14.83
-23.55
-32.14
-39.04
-42.25
-40.33
-33.04
-21.61
-8.32
4.15
13.41
17.94
17.46
12.93
6.29
-0.06
-4.02
-4.39
-1.26
4.18
10.21
15.26
18.46
19.67
19.35
18.14
16.78
16.13
17.15
20.74
27.45
37.10
48.68
60.58
71.00
78.19
80.65
77.23
67.45
52.00
33.02
13.88
-1.73
-11.24
-14.17
-12.31
-8.74
-6.34
-6.67
-9.59
-13.95
-18.45
-22.45
-25.98
-29.51
-33.53
-38.23
-43.59
-49.50
-55.81
-62.36
-68.79
-74.50
-78.51
-79.65
-76.86
-69.64
-58.44
-44.82
-31.03
-19.31
-10.89
-5.33
-0.61
5.85
15.86
29.31
44.15
57.38
66.55
70.94
71.72
71.01
70.59
71.00
71.59
71.25
69.30
66.02
62.48
59.90
59.14
60.45
63.59
68.01
72.91
77.28
79.92
79.80
76.47
70.36
62.78
55.62
50.81
49.65
52.39
58.08
64.68
69.63
70.47
65.66
54.92
39.29
20.74
1.69
-15.51
-28.87
-37.01
-39.40
-36.63
-30.55
-23.97
-19.89
-20.44
-26.07
-35.41
-45.94
-55.11
-61.47
-65.14
-67.56
-70.68
-76.01
-83.95
-93.59
-103.03
-109.88
-111.94
-107.88
-97.69
-82.80
-65.76
-49.42
-35.96
-26.11
-19.06
-13.08
-6.41
1.79
11.28
21.02
29.87
37.05
42.28
45.53
46.84
46.15
43.49
39.17
33.77
27.91
22.04
16.23
10.43
4.75
-0.19
-3.37
-3.59
0.02
7.75
19.18
33.20
48.05
61.56
71.36
75.43
72.53
62.55
46.45
25.83
2.46
-22.00
-45.85
-67.13
-83.53
-92.91
-94.18
-88.09
-77.26
-65.38
-55.94
-51.11
-51.41
-56.09
-63.93
-73.86
-85.18
-97.29
-109.34
-120.13
-128.33
-133.00
-133.86
-131.28
-125.89
-118.23
-108.45
-96.47
-82.46
-67.14
-51.92
-38.35
-27.44
-19.06
-11.77
-3.52
7.50
21.91
38.81
56.16
71.62
83.46
90.97
94.40
94.36
91.29
85.23
76.03
63.85
49.64
35.14
22.47
13.42
8.64
7.57
8.61
10.01
10.52
9.82
8.36
6.81
5.47
3.92
1.34
-2.88
-8.57
-14.65
-19.48
-21.47
-19.55
-13.09
-1.74
14.66
35.69
59.93
84.78
107.00
123.76
133.64
137.04
135.57
130.93
124.01
114.72
102.62
87.75
71.16
54.63
39.91
27.98
18.71
11.10
3.94
-3.41
-10.73
-17.05
-21.14
-22.34
-21.00
-18.38
-16.04
-14.96
-15.04
-15.25
-14.36
-11.89
-8.62
-6.25
-6.53
-10.35
-17.33
-26.12
-35.16
-43.44
-50.75
-57.37
-63.45
-68.56
-71.68
-71.68
-68.01
-61.14
-52.42
-43.52
-35.69
-29.27
-23.76
-18.36
-12.60
-6.63
-1.06
3.48
6.77
9.02
10.60
11.79
12.68
13.19
13.36
13.40
13.59
14.22
15.45
17.30
19.68
22.36
24.95
26.93
27.90
27.74
26.73
25.37
24.04
22.67
20.84
18.10
14.42
10.35
6.93
5.20
5.76
8.53
12.76
17.30
20.97
22.90
22.88
21.38
19.32
17.62
16.73
16.51
16.35
15.70
14.40
12.83
11.59
11.18
11.81
13.43
16.03
19.69
24.63
30.98
38.56
46.78
54.59
60.52
62.88
60.28
52.37
40.41
27.27
16.62
11.60
13.35
20.35
28.85
34.27
32.76
22.48
3.73
-21.82
-52.13
-85.53
-120.79
-156.79
-192.19
-225.60
-255.83
-282.19
-304.25
-321.29
-331.79
-333.45
-324.01
-302.43
-269.76
-228.92
-183.39
-135.59
-85.96
-33.53
22.42
80.48
136.63
185.19
220.82
240.61
244.90
236.75
220.28
199.05
175.32
150.32
125.09
101.17
80.36
64.00
52.46
45.40
42.64
44.88
53.28
68.14
87.52
106.63
119.16
119.57
105.26
77.34
39.21
-5.86
-56.78
-114.67
-180.68
-253.15
-325.73
-388.36
-430.61
-445.80
-433.75
-400.61
-355.88
-308.32
-262.82
-219.79
-177.18
-133.29
-88.86
-47.09
-11.71
15.26
34.88
50.97
68.44
91.53
122.45
160.69
203.25
245.30
281.15
305.59
315.28
309.66
291.12
264.07
233.43
203.15
175.47
151.07
129.85
111.67
96.55
84.46
74.83
66.52
58.05
48.23
36.52
23.06
8.62
-5.80
-19.13
-30.49
-39.28
-45.36
-49.10
-51.17
-52.18
-52.11
-50.04
-44.31
-33.31
-16.55
4.71
27.57
48.71
66.10
80.33
94.61
113.09
138.40
169.40
200.75
224.28
231.79
218.08
182.85
130.93
70.81
12.30
-36.19
-69.54
-86.82
-90.78
-86.54
-79.59
-74.25
-72.72
-74.99
-79.59
-84.41
-87.62
-88.27
-86.53
-83.52
-80.89
-80.14
-81.98
-85.97
-90.72
-94.43
-95.44
-92.79
-86.25
-76.22
-63.62
-49.72
-36.10
-24.39
-15.90
-11.26
-10.19
-11.48
-13.44
-14.36
-13.12
-9.51
-4.28
1.22
5.59
7.89
7.99
6.50
4.55
3.33
3.72
6.07
10.14
15.35
21.00
26.56
31.85
37.07
42.54
48.48
54.68
60.61
65.69
69.87
73.79
78.75
85.95
95.79
107.21
117.85
124.89
126.11
120.65
109.06
92.85
74.07
55.05
38.41
26.84
22.44
25.79
35.35
47.69
58.61
64.71
64.54
58.70
49.11
37.75
25.97
14.42
3.65
-5.51
-11.93
-14.80
-14.15
-11.25
-8.24
-7.44
-10.43
-17.44
-27.34
-38.10
-47.69
-54.88
-59.64
-63.04
-66.60
-71.48
-77.91
-85.05
-91.37
-95.24
-95.63
-92.32
-85.89
-77.41
-68.15
-59.44
-52.55
-48.43
-47.36
-48.48
-49.76
-48.58
-42.81
-31.93
-17.61
-3.03
8.32
14.10
13.93
9.13
1.81
-6.19
-13.83
-20.74
-26.77
-31.64
-34.93
-36.38
-36.12
-34.71
-32.77
-30.63
-28.15
-24.88
-20.43
-14.91
-9.01
-3.72
0.11
2.24
3.23
4.25
6.64
11.44
19.01
29.02
40.58
52.66
64.30
74.86
84.01
91.52
97.12
100.32
100.45
96.83
89.16
77.81
63.82
48.72
34.06
20.97
9.99
1.07
-6.12
-11.97
-16.67
-20.24
-22.50
-23.23
-22.29
-19.74
-15.99
-11.95
-8.92
-8.34
-11.19
-17.46
-25.79
-33.71
-38.39
-37.71
-31.15
-20.01
-6.82
5.72
15.74
22.64
26.85
29.04
29.49
27.89
23.68
16.60
7.04
-3.95
-15.01
-24.88
-32.61
-37.56
-39.33
-37.79
-33.18
-26.13
-17.59
-8.52
0.39
8.82
16.72
24.05
30.61
35.96
39.60
41.05
39.94
36.08
29.39
20.03
8.45
-4.58
-18.09
-31.10
-42.89
-53.15
-61.90
-69.32
-75.56
-80.55
-84.00
-85.53
-84.90
-82.23
-78.10
-73.39
-69.06
-65.81
-63.88
-62.89
-61.97
-59.99
-55.93
-49.21
-39.89
-28.72
-16.95
-6.04
2.71
8.44
10.93
10.58
8.30
5.15
2.04
-0.53
-2.57
-4.50
-6.83
-9.91
-13.66
-17.63
-21.06
-23.21
-23.59
-22.15
-19.33
-15.88
-12.45
-9.31
-6.08
-1.83
4.35
12.90
23.27
34.20
44.20
52.25
58.22
62.68
66.50
70.36
74.60
79.29
84.37
89.51
94.02
96.78
96.64
92.96
86.18
77.81
69.82
63.70
59.77
57.10
54.19
49.85
43.94
37.38
31.83
28.92
29.80
34.76
43.16
53.53
63.86
72.07
76.74
77.70
76.20
74.46
74.60
77.40
81.67
84.52
82.64
73.83
58.20
38.12
17.30
-0.78
-14.02
-22.13
-26.15
-27.58
-27.73
-27.43
-27.27
-27.83
-29.76
-33.55
-39.26
-46.31
-53.57
-59.68
-63.42
-64.12
-61.88
-57.48
-52.17
-47.31
-43.96
-42.66
-43.31
-45.27
-47.46
-48.76
-48.44
-46.55
-44.13
-42.87
-44.44
-49.54
-57.44
-66.05
-72.87
-76.15
-75.79
-73.30
-71.07
-71.15
-74.36
-80.08
-86.79
-92.95
-97.67
-100.76
-102.30
-101.93
-98.59
-90.83
-77.85
-60.50
-41.45
-24.31
-11.84
-4.45
0.15
5.59
14.65
27.41
41.08
51.55
55.76
53.33
46.60
39.22
34.19
32.58
33.62
35.66
37.37
38.32
38.88
39.58
40.67
41.98
43.13
43.89
44.38
45.11
46.69
49.63
53.97
59.12
63.95
67.17
67.86
65.95
62.38
58.79
56.93
58.02
62.32
69.03
76.63
83.38
87.90
89.61
88.94
86.87
84.11
80.44
74.18
62.57
42.91
13.45
-26.05
-74.79
-131.46
-194.26
-260.09
-323.46
-376.32
-409.52
-415.89
-393.07
-344.97
-280.72
-211.77
-148.43
-97.48
-61.72
-41.07
-34.12
-39.10
-53.57
-73.36
-91.95
-101.38
-94.63
-68.45
-25.01
28.57
83.08
131.05
169.37
199.67
225.98
251.50
276.18
296.62
308.15
307.46
294.14
270.61
240.44
206.32
169.00
127.72
81.55
30.77
-22.71
-76.29
-128.24
-178.58
-228.47
-278.50
-326.78
-368.64
-397.98
-409.84
-402.65
-378.83
-343.66
-302.96
-261.31
-221.22
-183.47
-148.07
-114.73
-82.70
-50.40
-15.52
24.10
68.87
116.32
161.25
197.53
220.74
230.37
230.32
227.19
227.50
235.14
250.27
270.09
290.47
307.25
316.68
315.26
299.98
269.36
224.97
172.09
118.69
72.28
36.37
8.83
-16.50
-45.57
-79.94
-115.29
-143.86
-159.06
-159.33
-148.58
-133.25
-118.12
-104.26
-90.17
-74.81
-59.84
-49.14
-46.47
-52.55
-64.21
-76.14
-83.41
-83.09
-74.04
-55.60
-26.90
12.35
60.12
110.86
155.79
185.25
191.86
172.91
131.36
75.11
15.31
-36.01
-68.47
-75.89
-57.96
-20.38
26.62
71.22
103.58
118.38
115.75
99.87
76.55
50.89
26.04
3.46
-15.98
-31.18
-40.87
-44.45
-42.85
-38.67
-35.16
-34.78
-38.11
-43.80
-49.52
-53.26
-54.22
-52.67
-49.31
-44.51
-38.18
-30.13
-20.33
-9.01
3.60
17.39
32.12
46.99
60.35
70.01
74.23
72.61
66.43
58.06
49.65
42.11
34.90
26.71
16.50
4.32
-8.84
-21.62
-33.00
-42.56
-50.36
-56.34
-60.04
-60.59
-57.12
-49.22
-37.32
-22.63
-6.94
7.93
20.41
29.44
34.38
34.92
31.16
23.85
14.49
5.21
-1.78
-4.93
-4.01
-0.14
4.75
8.88
11.34
12.38
12.89
13.77
15.25
16.95
18.18
18.57
18.29
17.93
18.02
18.61
19.17
18.87
17.00
13.41
8.50
3.01
-2.39
-7.27
-11.46
-14.91
-17.47
-18.93
-19.14
-18.23
-16.67
-15.22
-14.73
-15.90
-19.15
-24.56
-31.78
-40.04
-48.29
-55.24
-59.75
-61.12
-59.21
-54.48
-47.72
-39.78
-31.38
-23.09
-15.31
-8.22
-1.75
4.36
10.45
16.62
22.54
27.43
30.41
30.95
29.27
26.27
23.08
20.46
18.53
17.02
15.75
15.19
16.38
20.46
27.80
37.60
48.03
57.12
63.63
67.64
70.22
72.56
75.07
76.97
76.74
72.91
64.92
53.43
39.98
26.36
13.99
3.66
-4.38
-10.16
-13.79
-15.45
-15.57
-14.94
-14.68
-15.95
-19.65
-26.00
-34.42
-43.65
-52.05
-58.10
-60.74
-59.64
-55.19
-48.39
-40.52
-32.87
-26.53
-22.15
-20.02
-20.14
-22.36
-26.45
-32.11
-38.86
-46.12
-53.11
-59.04
-63.18
-65.00
-64.18
-60.62
-54.37
-45.60
-34.70
-22.37
-9.67
2.10
11.71
18.43
22.27
24.06
25.06
26.47
28.90
32.21
35.68
38.43
39.94
40.21
39.70
39.06
38.82
39.24
40.27
41.76
43.65
46.00
48.96
52.65
56.96
61.57
66.05
70.08
73.65
76.97
80.25
83.35
85.55
85.60
82.15
74.19
61.49
44.73
25.31
5.00
-14.35
-31.13
-44.01
-52.22
-55.74
-55.38
-52.71
-49.61
-47.72
-47.89
-50.04
-53.37
-56.86
-59.72
-61.64
-62.66
-62.90
-62.35
-60.88
-58.35
-54.82
-50.54
-45.75
-40.47
-34.42
-27.29
-19.11
-10.48
-2.48
3.88
8.11
10.48
11.82
13.09
14.92
17.57
21.03
25.33
30.57
36.84
43.90
51.09
57.39
61.77
63.49
62.37
58.71
53.19
46.83
40.71
35.84
32.87
31.84
32.12
32.53
31.77
28.95
23.85
17.22
10.52
5.57
3.88
6.08
11.47
18.13
23.52
25.24
21.89
13.49
1.34
-12.52
-25.97
-37.40
-45.97
-51.53
-54.42
-55.29
-54.78
-53.46
-51.69
-49.54
-47.05
-44.27
-41.39
-38.55
-35.69
-32.31
-27.57
-20.50
-10.38
2.94
18.78
35.63
51.28
63.32
69.80
69.93
64.44
55.42
45.49
36.81
30.33
25.80
22.29
18.95
15.55
12.41
10.01
8.55
7.93
7.87
8.29
9.32
11.23
14.08
17.57
21.04
23.73
25.11
24.96
23.46
21.11
18.55
16.39
15.03
14.52
14.60
14.81
14.73
14.21
13.44
12.86
12.87
13.62
14.88
16.13
16.73
16.08
13.80
9.73
3.90
-3.51
-12.17
-21.67
-31.51
-41.17
-50.10
-57.88
-64.19
-69.02
-72.59
-75.34
-77.63
-79.47
-80.31
-79.06
-74.46
-65.46
-51.77
-33.88
-13.03
9.13
30.80
50.38
66.58
78.69
86.74
91.49
94.19
96.08
97.84
99.35
99.72
97.94
93.43
86.48
78.09
69.57
61.90
55.40
49.75
44.33
38.81
33.36
28.68
25.62
24.79
26.17
29.10
32.52
35.26
36.42
35.54
32.61
27.91
21.76
14.26
5.30
-5.33
-17.60
-30.99
-44.51
-56.99
-67.61
-76.25
-83.54
-90.49
-97.87
-105.75
-113.44
-119.82
-123.86
-125.02
-123.47
-119.77
-114.57
-108.33
-101.24
-93.32
-84.65
-75.51
-66.31
-57.55
-49.61
-42.68
-36.72
-31.52
-26.82
-22.36
-17.89
-13.17
-7.93
-1.87
5.31
13.79
23.52
34.08
44.61
53.95
60.93
64.73
65.12
62.42
57.32
50.54
42.66
34.09
25.25
16.77
9.51
4.26
1.45
0.85
1.79
3.50
5.64
8.49
12.67
18.67
26.17
33.92
39.96
42.41
40.08
33.01
22.32
9.88
-2.31
-12.58
-19.90
-24.04
-25.49
-25.30
-24.75
-24.91
-26.38
-29.06
-32.32
-35.26
-37.09
-37.37
-36.04
-33.33
-29.66
-25.57
-21.57
-18.14
-15.45
-13.37
-11.40
-9.02
-5.95
-2.38
1.08
3.70
5.00
5.04
4.27
3.29
2.60
2.38
2.60
3.19
4.20
5.69
7.63
9.74
11.43
11.98
10.79
7.71
3.10
-2.32
-7.73
-12.49
-16.20
-18.60
-19.32
-17.88
-14.01
-7.91
-0.57
6.52
11.90
14.98
16.29
17.19
18.96
21.97
25.34
27.36
26.49
22.20
15.38
7.88
1.72
-1.80
-2.53
-1.34
0.37
1.35
1.06
-0.29
-1.90
-2.90
-2.78
-1.70
-0.25
0.82
1.13
0.86
0.69
1.43
3.69
7.75
13.58
21.02
29.78
39.39
49.02
57.65
64.43
69.19
72.63
76.06
80.71
87.07
94.49
101.53
106.63
108.86
108.31
105.83
102.55
99.09
95.14
89.28
79.32
62.94
38.46
5.72
-33.53
-75.98
-117.75
-155.77
-188.64
-216.76
-241.36
-262.93
-280.17
-289.67
-286.67
-266.71
-227.66
-171.48
-104.98
-39.25
12.64
39.49
35.95
5.15
-41.48
-87.55
-117.51
-121.96
-100.58
-60.98
-14.61
28.25
61.80
85.12
100.08
108.62
111.35
107.91
98.52
85.17
71.83
62.63
59.84
62.89
68.61
73.01
73.45
69.84
64.61
61.28
62.92
70.81
83.93
99.19
112.04
117.14
109.11
83.66
38.83
-23.54
-97.03
-171.17
-233.61
-273.38
-283.97
-265.09
-222.23
-164.67
-102.54
-44.32
4.41
41.14
65.77
79.89
86.05
87.35
86.94
87.39
90.09
94.95
100.77
105.89
108.88
109.15
107.05
103.51
99.53
95.63
91.74
87.24
81.41
73.71
64.16
53.36
42.34
32.29
24.23
18.68
15.52
14.14
13.67
13.33
12.63
11.38
9.62
7.57
5.62
4.27
3.99
5.07
7.44
10.70
14.32
17.92
21.37
24.86
28.72
33.32
38.88
45.34
52.20
58.41
62.55
63.09
59.05
50.52
38.74
25.79
13.85
4.66
-0.82
-2.23
0.44
6.77
15.68
25.02
31.67
32.18
23.97
6.47
-18.40
-46.71
-73.74
-95.43
-109.52
-115.72
-115.30
-110.29
-102.74
-94.31
-86.06
-78.41
-71.09
-63.30
-54.09
-42.94
-30.27
-17.54
-6.89
-0.31
1.03
-2.83
-10.74
-20.92
-31.43
-40.50
-46.72
-49.11
-47.42
-42.23
-35.06
-27.95
-22.79
-20.63
-21.33
-23.74
-26.23
-27.49
-26.91
-24.63
-21.28
-17.58
-14.17
-11.56
-10.24
-10.56
-12.63
-16.21
-20.72
-25.42
-29.58
-32.66
-34.17
-33.73
-31.14
-26.68
-21.28
-16.41
-13.61
-13.83
-16.97
-21.91
-27.09
-31.13
-33.36
-33.73
-32.45
-29.62
-25.20
-19.20
-12.14
-5.10
0.57
3.83
4.45
3.10
1.11
-0.17
0.23
2.62
6.72
11.92
17.49
22.76
27.25
30.73
33.26
35.08
36.49
37.65
38.45
38.58
37.66
35.41
31.83
27.19
22.03
17.03
12.85
9.94
8.39
7.86
7.68
7.05
5.29
2.15
-2.27
-7.50
-12.97
-18.09
-22.47
-25.82
-27.99
-28.94
-28.69
-27.38
-25.27
-22.76
-20.27
-18.16
-16.59
-15.55
-14.82
-14.18
-13.48
-12.66
-11.74
-10.75
-9.67
-8.47
-7.22
-6.01
-5.02
-4.41
-4.20
-4.32
-4.64
-5.14
-5.86
-6.93
-8.37
-10.06
-11.66
-12.71
-12.81
-11.76
-9.55
-6.35
-2.32
2.44
7.88
13.93
20.36
26.68
32.29
36.54
38.91
39.18
37.39
33.95
29.50
24.87
20.86
18.15
17.12
17.78
19.84
22.76
26.00
29.08
31.68
33.63
34.93
35.65
35.88
35.64
34.90
33.57
31.64
29.22
26.61
24.23
22.49
21.68
21.97
23.39
25.84
29.07
32.64
35.95
38.41
39.71
39.93
39.40
38.33
36.58
33.55
28.52
21.16
11.75
1.12
-9.77
-20.23
-30.05
-39.22
-47.67
-54.97
-60.63
-64.35
-66.36
-67.35
-68.02
-68.69
-69.01
-68.15
-65.29
-60.00
-52.56
-43.80
-34.85
-26.71
-20.10
-15.32
-12.38
-11.12
-11.30
-12.68
-15.03
-18.17
-22.07
-26.93
-33.11
-41.02
-50.72
-61.54
-72.02
-80.18
-84.13
-82.83
-76.68
-67.41
-57.55
-49.44
-44.42
-42.27
-41.35
-39.22
-33.60
-23.22
-8.25
9.78
28.63
46.15
60.87
72.22
80.33
85.46
87.65
86.72
82.52
75.37
66.29
56.79
48.36
41.89
37.41
34.28
31.72
29.29
27.14
25.73
25.37
25.96
27.11
28.71
31.23
35.53
42.08
50.10
57.20
60.08
55.93
43.77
25.08
3.26
-17.61
-34.15
-44.45
-48.24
-46.45
-40.78
-33.30
-26.13
-21.11
-19.25
-20.43
-23.44
-26.39
-27.53
-25.95
-21.90
-16.63
-11.98
-9.70
-10.99
-16.09
-24.11
-33.16
-40.70
-44.44
-43.28
-38.00
-31.18
-26.13
-25.35
-29.09
-34.97
-38.96
-37.26
-28.16
-12.83
5.29
22.19
35.01
43.02
47.30
49.61
51.20
52.20
51.88
49.55
45.27
40.05
35.47
32.82
32.50
33.95
36.03
37.68
38.39
38.27
37.74
37.24
37.07
37.41
38.46
40.31
42.66
44.50
44.20
40.03
30.98
17.48
1.45
-14.23
-26.79
-34.51
-37.19
-36.01
-32.80
-29.34
-26.79
-25.58
-25.48
-25.92
-26.20
-25.72
-24.13
-21.35
-17.65
-13.55
-9.82
-7.28
-6.54
-7.64
-9.80
-11.58
-11.42
-8.54
-3.52
1.58
3.97
1.34
-6.96
-19.41
-32.79
-43.36
-48.21
-46.24
-38.28
-26.50
-13.50
-1.45
8.37
15.46
19.90
22.00
22.27
21.35
20.12
19.59
20.60
23.60
28.50
34.72
41.39
47.58
52.40
55.15
55.61
54.15
51.74
49.54
48.11
46.91
44.29
38.31
27.79
13.20
-3.49
-19.69
-33.40
-44.00
-52.17
-59.14
-65.68
-71.62
-75.91
-77.23
-74.61
-67.94
-58.08
-46.69
-35.79
-27.19
-21.99
-20.31
-21.34
-23.76
-26.22
-27.74
-27.82
-26.32
-23.43
-19.64
-15.85
-13.06
-11.94
-12.24
-12.59
-10.91
-5.36
4.60
17.81
31.68
43.20
50.08
51.43
47.81
40.82
32.42
24.42
18.09
13.98
11.93
11.16
10.73
9.99
8.83
7.77
7.48
8.40
10.48
13.46
17.22
22.03
28.21
35.53
42.77
47.84
48.75
44.59
36.20
25.82
15.93
8.01
2.02
-3.29
-9.30
-16.46
-23.97
-30.18
-33.45
-33.00
-29.25
-23.50
-17.43
-12.49
-9.39
-8.07
-7.89
-7.99
-7.70
-6.70
-5.00
-2.70
0.21
3.93
8.62
14.14
20.05
25.64
30.39
34.11
37.06
39.67
42.20
44.57
46.25
46.55
44.85
40.73
34.11
25.18
14.43
2.66
-9.10
-19.69
-27.99
-33.11
-34.54
-32.18
-26.55
-18.77
-10.50
-3.54
0.83
2.44
2.43
2.79
5.42
11.01
18.56
25.81
30.29
30.51
26.69
20.40
13.73
8.27
4.50
2.01
0.01
-1.99
-4.00
-5.79
-7.25
-8.83
-11.30
-15.38
-21.24
-28.22
-35.00
-40.10
-42.38
-41.46
-37.64
-31.72
-24.56
-16.98
-9.58
-2.85
2.93
7.73
11.85
15.76
19.91
24.40
28.86
32.59
34.78
34.84
32.54
28.05
21.74
14.09
5.59
-3.32
-12.18
-20.49
-27.71
-33.24
-36.38
-36.59
-33.61
-27.65
-19.46
-10.16
-0.95
7.30
14.21
19.93
24.87
29.26
32.88
34.84
33.90
29.06
20.18
8.40
-4.07
-14.61
-21.22
-23.17
-21.22
-16.99
-12.20
-8.02
-4.86
-2.78
-1.88
-2.57
-5.34
-10.25
-16.54
-22.76
-27.25
-28.92
-27.75
-24.77
-21.53
-19.20
-17.97
-16.97
-14.80
-10.35
-3.33
5.57
15.22
24.60
33.37
41.72
50.05
58.41
66.23
72.37
75.49
74.55
69.03
59.08
45.35
28.80
10.62
-8.00
-25.80
-41.58
-54.21
-62.76
-66.76
-66.42
-62.75
-57.26
-51.36
-45.76
-40.09
-33.25
-24.19
-12.75
-0.09
11.65
20.27
24.45
24.21
20.76
15.67
10.07
4.27
-2.05
-9.21
-16.94
-24.32
-30.10
-33.42
-34.36
-34.02
-34.07
-35.90
-40.01
-45.69
-51.38
-55.23
-55.66
-51.80
-43.53
-31.52
-16.99
-1.58
12.93
24.94
33.42
38.19
39.84
39.56
38.63
38.03
38.19
39.11
40.44
41.76
42.73
43.14
42.84
41.80
40.05
37.73
35.08
32.34
29.61
26.74
23.48
19.61
15.21
10.83
7.41
6.08
7.81
13.11
21.81
32.82
44.13
53.01
56.61
52.75
40.61
21.18
-3.14
-29.21
-54.18
-76.24
-94.80
-110.16
-122.71
-132.21
-137.46
-136.73
-128.71
-113.54
-93.34
-71.76
-52.77
-39.18
-31.68
-28.94
-28.61
-28.60
-27.89
-26.55
-24.93
-23.05
-20.08
-14.79
-6.14
5.99
20.65
36.02
50.05
61.15
68.58
72.57
74.05
74.16
73.72
72.97
71.63
69.24
65.63
61.09
56.31
51.92
48.20
44.75
40.77
35.36
28.01
18.78
8.16
-3.17
-14.57
-25.44
-35.07
-42.58
-47.05
-47.97
-45.49
-40.61
-34.94
-30.04
-26.94
-25.67
-25.46
-25.17
-23.89
-21.39
-18.12
-14.91
-12.49
-11.19
-10.83
-11.00
-11.36
-11.90
-12.92
-14.71
-17.20
-19.83
-21.72
-22.21
-21.23
-19.46
-18.11
-18.34
-20.85
-25.52
-31.47
-37.21
-40.90
-40.59
-34.68
-22.40
-4.41
17.05
38.55
56.33
67.51
70.90
67.33
59.19
49.64
41.64
37.23
37.12
40.61
45.86
50.50
52.23
49.52
41.84
29.73
14.45
-2.28
-18.47
-32.04
-41.03
-44.12
-41.28
-34.09
-25.49
-18.72
-16.04
-17.71
-21.90
-25.62
-26.22
-22.63
-15.67
-7.35
0.34
6.37
10.88
14.54
17.64
19.69
19.68
16.92
11.62
4.96
-1.50
-6.66
-10.39
-13.41
-16.72
-20.97
-26.11
-31.56
-36.55
-40.37
-42.51
-42.59
-40.40
-35.85
-29.11
-20.59
-10.85
-0.53
9.67
19.04
26.84
32.43
35.45
36.04
34.80
32.69
30.67
29.49
29.43
30.28
31.46
32.13
31.44
28.82
24.16
17.90
10.90
4.22
-1.12
-4.33
-5.09
-3.59
-0.66
2.46
4.45
4.41
2.28
-1.11
-4.37
-6.09
-5.51
-2.74
1.30
5.30
8.13
9.25
8.86
7.70
6.56
5.93
5.67
5.23
3.99
1.70
-1.36
-4.49
-7.08
-9.02
-10.74
-13.02
-16.43
-20.98
-25.97
-30.31
-32.85
-32.69
-29.43
-23.11
-14.02
-2.72
10.04
23.26
35.87
47.06
56.57
64.84
72.70
80.83
89.01
96.05
100.14
99.59
93.62
82.64
67.95
51.22
33.86
16.83
0.84
-13.59
-25.93
-35.85
-43.34
-48.67
-52.19
-54.14
-54.69
-53.83
-51.49
-47.51
-41.66
-33.82
-24.24
-13.80
-4.08
2.99
5.66
2.93
-5.10
-17.26
-31.62
-46.00
-58.55
-68.04
-74.07
-76.93
-77.22
-75.41
-71.57
-65.52
-57.25
-47.45
-37.59
-29.50
-24.57
-23.17
-24.46
-26.87
-28.94
-29.94
-30.03
-29.82
-29.71
-29.36
-27.72
-23.51
-16.07
-5.83
5.70
16.63
25.50
31.87
36.28
39.69
42.67
45.07
46.14
45.17
42.06
37.44
32.34
27.53
23.15
18.72
13.62
7.63
1.19
-4.70
-8.99
-11.09
-11.16
-9.92
-8.12
-6.12
-3.71
-0.35
4.31
10.08
16.21
21.65
25.48
27.36
27.45
26.37
24.83
23.43
22.47
21.91
21.26
19.67
16.21
10.32
2.28
-6.72
-14.92
-20.74
-23.50
-23.65
-22.57
-21.86
-22.60
-25.06
-28.80
-33.18
-37.74
-42.44
-47.34
-52.20
-56.10
-57.49
-54.74
-46.86
-34.12
-18.12
-1.38
13.55
24.79
31.75
35.01
36.01
36.49
37.91
41.04
45.86
51.55
56.78
60.20
60.89
58.68
54.17
48.46
42.72
37.84
34.33
32.29
31.48
31.33
30.92
29.17
25.31
19.31
12.23
5.90
2.13
1.68
3.71
5.91
5.50
0.65
-8.57
-20.07
-30.69
-37.62
-39.64
-37.43
-33.13
-29.17
-27.28
-28.00
-30.90
-35.02
-39.51
-43.83
-47.79
-51.32
-54.34
-56.74
-58.44
-59.56
-60.38
-61.31
-62.51
-63.66
-63.81
-61.73
-56.48
-48.12
-37.93
-28.03
-20.40
-15.76
-13.01
-9.63
-2.87
8.72
24.47
41.81
57.44
68.82
75.17
77.49
77.68
77.51
77.77
78.25
78.19
76.94
74.33
70.72
66.59
62.28
57.79
53.02
47.96
43.02
38.97
36.78
37.09
39.78
43.59
46.26
45.23
38.61
26.02
8.82
-10.30
-28.13
-41.86
-49.73
-51.28
-47.36
-39.92
-31.55
-24.88
-21.79
-22.85
-27.21
-33.12
-38.85
-43.41
-46.85
-49.79
-52.81
-55.89
-58.49
-59.84
-59.33
-56.54
-51.23
-43.23
-32.48
-19.34
-4.81
9.61
22.22
31.84
38.28
42.38
45.52
48.94
53.03
57.29
60.70
62.41
62.32
61.09
59.72
58.91
58.60
58.01
56.15
52.37
46.70
39.78
32.37
25.00
17.72
10.10
1.26
-9.94
-24.47
-42.32
-61.72
-79.04
-89.85
-90.82
-81.70
-66.05
-50.13
-40.12
-39.26
-46.30
-56.35
-63.45
-63.52
-55.93
-43.19
-29.07
-16.57
-6.93
-0.00
4.72
7.16
6.39
1.30
-8.49
-22.10
-37.44
-51.94
-63.49
-71.18
-75.49
-77.97
-80.45
-84.19
-89.11
-93.71
-95.51
-92.12
-82.37
-67.08
-48.99
-31.55
-17.35
-6.86
1.77
11.66
25.47
43.99
65.61
87.13
105.15
117.46
123.57
124.38
121.33
115.63
108.03
99.05
89.34
79.80
71.34
64.46
58.94
53.98
48.51
41.81
33.84
25.38
17.69
12.03
9.19
9.27
11.76
15.88
20.77
25.63
29.57
31.67
31.14
27.71
21.80
14.57
7.44
1.51
-2.92
-6.32
-9.48
-13.01
-16.96
-20.97
-24.70
-28.16
-31.74
-35.89
-40.72
-45.85
-50.62
-54.50
-57.46
-59.80
-61.77
-62.97
-62.21
-57.89
-48.83
-35.02
-17.87
0.32
17.22
31.16
41.49
48.26
51.81
52.54
50.94
47.83
44.42
41.95
41.20
41.99
43.25
43.53
41.73
37.68
32.20
26.72
22.75
21.38
22.99
27.37
33.88
41.71
49.91
57.34
62.61
64.35
61.49
53.82
42.03
27.63
12.45
-1.90
-14.30
-24.06
-30.81
-34.43
-35.26
-34.27
-33.00
-33.08
-35.61
-40.70
-47.57
-55.18
-62.84
-70.42
-77.92
-84.92
-90.26
-92.40
-90.20
-83.68
-74.02
-62.93
-51.56
-40.01
-27.64
-14.08
-0.21
11.84
19.51
21.23
17.33
9.78
1.04
-7.24
-14.65
-21.46
-27.47
-31.32
-30.85
-24.38
-11.95
4.16
20.25
32.65
39.10
39.32
34.69
27.32
19.23
11.88
5.98
1.68
-1.30
-3.40
-4.88
-5.57
-4.90
-2.26
2.56
9.10
16.32
23.04
28.35
31.69
32.77
31.33
27.21
20.57
12.16
3.33
-4.41
-9.95
-13.04
-14.36
-15.02
-16.05
-18.00
-20.98
-24.85
-29.39
-34.36
-39.31
-43.59
-46.37
-47.03
-45.38
-41.90
-37.57
-33.48
-30.38
-28.24
-26.25
-23.08
-17.44
-8.67
2.94
16.05
28.66
38.54
43.95
44.01
39.16
31.15
22.68
16.64
15.11
18.52
25.40
32.95
38.18
39.09
35.40
28.27
19.59
11.03
3.52
-2.70
-7.64
-11.19
-13.04
-12.91
-10.84
-7.25
-2.72
2.28
7.55
13.06
18.51
23.15
25.78
25.32
21.41
14.86
7.39
0.96
-3.14
-4.83
-5.23
-5.92
-8.12
-12.04
-16.98
-21.81
-25.70
-28.52
-30.84
-33.34
-36.25
-39.07
-40.76
-40.32
-37.32
-32.18
-26.01
-20.03
-14.94
-10.59
-6.02
0.09
8.71
20.03
33.22
46.75
58.83
68.00
73.53
75.50
74.63
71.82
67.68
62.34
55.52
46.83
36.23
24.21
11.80
0.24
-9.46
-16.80
-21.80
-24.78
-26.15
-26.20
-25.18
-23.35
-21.04
-18.46
-15.68
-12.36
-8.05
-2.45
4.21
10.85
15.79
17.21
13.96
6.14
-4.71
-16.01
-25.03
-29.87
-30.14
-27.13
-23.11
-20.36
-20.23
-22.70
-26.60
-30.37
-32.83
-33.68
-33.35
-32.53
-31.56
-30.21
-27.86
-24.05
-18.87
-13.05
-7.54
-2.88
1.15
5.48
11.23
19.02
28.56
38.74
48.19
55.88
61.50
65.36
67.96
69.48
69.62
67.77
63.43
56.54
47.60
37.44
26.92
16.62
6.75
-2.73
-11.89
-20.59
-28.38
-34.49
-38.07
-38.50
-35.66
-30.14
-23.00
-15.51
-8.68
-2.97
1.66
5.52
8.85
11.70
13.82
14.91
14.77
13.43
11.14
8.33
5.42
2.72
0.32
-1.94
-4.39
-7.33
-10.83
-14.70
-18.53
-21.98
-24.91
-27.40
-29.48
-30.95
-31.25
-29.71
-25.81
-19.61
-11.75
-3.22
5.19
13.29
21.68
31.29
42.83
56.23
70.37
83.46
93.65
99.75
101.52
99.63
95.14
89.01
81.76
73.48
64.17
53.93
43.24
32.79
23.33
15.38
9.05
4.06
-0.23
-4.49
-9.20
-14.48
-20.04
-25.44
-30.33
-34.61
-38.39
-41.78
-44.58
-46.26
-46.21
-44.18
-40.71
-37.07
-34.83
-35.12
-38.02
-42.47
-46.85
-49.89
-51.31
-51.86
-52.70
-54.51
-56.99
-58.99
-59.30
-57.52
-54.40
-51.34
-49.49
-48.97
-48.81
-47.49
-43.99
-38.37
-31.71
-25.43
-20.39
-16.39
-12.33
-6.96
0.43
9.54
19.33
28.53
36.13
41.62
44.85
45.68
43.77
38.74
30.60
20.21
9.51
1.08
-2.81
-1.08
5.54
14.80
23.78
30.02
32.33
30.95
27.09
22.19
17.27
12.81
9.04
6.17
4.40
3.67
3.35
2.41
-0.13
-4.56
-10.20
-15.56
-19.05
-19.66
-17.31
-12.72
-6.94
-0.91
4.63
8.95
11.11
10.04
4.80
-4.92
-18.61
-35.02
-52.62
-69.90
-85.50
-98.25
-107.05
-111.03
-109.91
-104.20
-95.03
-83.65
-70.82
-56.48
-40.07
-21.27
-0.68
19.99
38.43
52.65
61.69
65.70
65.46
61.63
54.42
43.75
29.92
14.24
-0.82
-12.15
-17.15
-14.80
-6.19
5.84
17.76
26.66
31.18
31.56
28.98
24.72
19.54
13.84
8.16
3.69
2.23
5.31
13.12
23.83
34.09
40.45
40.96
36.20
28.95
22.76
20.32
22.26
27.20
32.67
36.39
37.11
34.80
30.23
24.30
17.60
10.32
2.34
-6.51
-16.18
-26.35
-36.38
-45.46
-52.82
-57.95
-60.66
-61.12
-59.67
-56.81
-53.09
-49.00
-44.94
-41.04
-36.98
-32.03
-25.23
-15.77
-3.41
11.30
26.90
41.42
52.82
59.76
62.02
60.65
57.55
54.77
53.61
54.12
55.19
55.12
52.47
46.69
38.18
28.01
17.28
6.96
-2.18
-9.36
-13.67
-14.30
-11.19
-5.40
0.97
5.57
6.90
5.04
1.48
-1.78
-3.48
-3.81
-4.23
-6.49
-11.57
-19.10
-27.73
-35.90
-42.52
-47.16
-49.60
-49.46
-46.11
-39.20
-29.16
-17.37
-5.57
4.83
13.38
20.66
27.65
34.90
42.08
48.14
52.05
53.53
53.38
53.17
54.41
57.82
63.06
69.03
74.54
78.81
81.75
83.70
85.05
85.92
86.19
85.59
83.87
80.72
75.54
67.28
54.66
36.77
13.81
-12.57
-39.52
-63.94
-83.96
-100.02
-114.90
-132.49
-155.60
-184.15
-214.62
-241.21
-258.32
-263.03
-256.28
-242.19
-225.89
-211.19
-199.17
-188.61
-177.70
-165.67
-153.31
-141.83
-131.20
-119.15
-101.91
-76.27
-41.55
-0.34
42.60
82.60
116.96
145.46
169.38
190.02
207.69
221.80
231.64
237.06
238.73
237.66
234.71
230.42
225.19
219.53
214.19
210.11
208.14
208.76
211.77
215.87
218.62
216.94
208.00
190.18
163.40
128.66
87.20
40.05
-11.40
-64.16
-113.12
-151.72
-174.29
-178.58
-166.84
-144.70
-118.55
-93.24
-71.45
-54.94
-46.16
-48.64
-65.39
-96.35
-136.86
-178.52
-212.30
-232.22
-237.86
-234.42
-230.29
-233.40
-248.02
-272.92
-301.72
-325.12
-334.19
-323.38
-292.06
-244.07
-185.31
-120.97
-53.75
15.64
86.36
155.22
216.06
261.54
286.40
290.39
278.84
260.59
244.04
233.52
227.56
220.56
206.31
181.77
148.94
113.75
82.55
58.20
38.41
17.23
-10.97
-47.61
-88.51
-125.87
-152.75
-166.66
-170.34
-169.16
-167.02
-163.75
-155.72
-139.14
-113.63
-83.36
-55.22
-35.08
-24.82
-21.81
-20.78
-16.74
-6.94
8.73
28.72
51.29
75.44
100.82
127.15
153.60
178.72
200.72
218.09
230.05
236.72
239.00
238.20
235.59
231.78
226.46
218.30
205.47
186.39
160.59
129.26
94.94
60.57
28.27
-1.42
-29.43
-57.26
-85.77
-114.56
-142.06
-166.10
-184.44
-195.06
-196.07
-186.01
-164.47
-132.94
-95.06
-56.03
-21.05
6.36
25.24
36.84
43.33
46.22
45.81
41.68
33.77
23.44
13.47
7.09
6.43
11.42
19.88
28.69
35.46
39.55
42.04
44.48
47.52
50.31
51.12
48.70
43.61
38.18
35.47
37.64
44.87
55.62
67.79
79.99
91.90
103.60
114.46
122.84
126.81
125.26
118.91
110.07
101.43
95.02
91.94
93.11
100.03
114.45
137.01
165.63
195.10
218.59
230.47
228.80
215.90
196.80
176.57
158.24
142.34
128.06
114.73
102.65
92.75
85.62
80.83
77.04
72.73
67.07
60.24
53.13
46.72
41.38
36.60
31.23
24.08
14.49
2.59
-10.81
-24.87
-39.31
-54.77
-72.67
-94.54
-121.31
-152.66
-187.23
-223.02
-258.23
-291.93
-324.27
-356.36
-390.06
-427.72
-471.55
-522.45
-578.71
-635.13
-683.59
-715.21
-723.59
-707.29
-670.52
-621.34
-568.55
-518.67
-474.68
-436.65
-403.54
-374.76
-350.56
-331.34
-316.76
-305.31
-294.78
-283.27
-269.89
-254.90
-239.44
-224.65
-211.00
-198.11
-184.92
-170.25
-153.42
-134.47
-114.20
-93.75
-74.19
-56.08
-39.44
-23.86
-8.81
6.17
21.31
36.67
52.17
67.71
83.14
98.21
112.56
125.85
137.88
148.82
159.22
169.93
181.82
195.40
210.67
227.17
244.14
260.93
277.37
293.83
311.44
331.98
357.64
390.30
430.29
475.38
520.43
558.30
581.90
586.81
573.11
545.50
511.58
478.85
451.92
431.15
413.22
393.22
367.19
333.94
295.21
254.57
215.60
180.26
148.32
117.75
85.81
49.88
8.26
-39.36
-91.13
-142.29
-185.00
-209.65
-207.61
-174.86
-115.03
-39.61
34.96
92.52
122.61
123.83
103.72
75.40
52.31
43.41
50.52
68.68
89.20
103.22
104.57
90.70
61.74
19.64
-31.70
-85.55
-132.11
-160.28
-161.65
-135.02
-88.39
-37.05
2.38
18.65
10.05
-16.19
-48.37
-76.14
-94.53
-104.45
-110.12
-115.64
-122.79
-130.96
-138.32
-143.17
-144.25
-140.34
-129.73
-110.82
-83.20
-49.13
-13.79
16.08
34.61
39.07
30.70
13.56
-7.81
-30.72
-55.16
-83.00
-115.80
-152.63
-188.98
-217.36
-229.49
-219.19
-184.74
-129.71
-61.68
10.24
78.01
136.12
181.86
214.56
234.82
244.07
244.18
237.20
224.91
208.31
187.54
162.33
132.44
98.15
60.10
18.98
-24.80
-71.17
-119.80
-169.26
-216.35
-256.33
-283.82
-294.19
-285.18
-257.38
-214.08
-160.09
-99.94
-36.59
28.92
96.44
164.96
231.16
289.29
332.65
356.00
357.58
339.65
307.36
266.59
221.97
175.99
129.66
83.51
38.61
-3.56
-41.98
-76.99
-110.61
-146.24
-187.58
-237.34
-295.80
-359.71
-421.84
-472.57
-502.44
-505.36
-480.81
-433.70
-371.79
-302.19
-229.06
-153.68
-76.95
-2.20
63.57
111.27
133.47
128.11
100.06
59.50
18.08
-15.30
-36.82
-47.81
-52.03
-52.66
-50.18
-42.18
-24.95
4.36
46.34
99.44
160.99
228.20
298.30
367.61
430.90
481.82
514.80
527.42
521.87
504.17
481.54
459.32
439.05
418.88
395.82
368.02
336.07
302.28
269.01
237.15
205.84
173.42
138.98
103.30
68.85
38.58
14.46
-3.55
-17.44
-30.32
-44.99
-63.04
-84.55
-108.25
-131.94
-152.55
-166.51
-170.55
-163.02
-145.12
-121.26
-97.85
-80.95
-73.90
-76.29
-84.95
-96.26
-108.32
-121.66
-138.20
-159.35
-184.45
-211.03
-236.07
-257.92
-277.34
-297.19
-321.42
-353.66
-396.29
-449.76
-512.03
-578.20
-640.84
-691.27
-721.87
-728.60
-712.28
-677.96
-632.59
-582.11
-529.66
-475.71
-419.72
-362.10
-305.00
-251.32
-202.94
-159.29
-117.39
-73.40
-24.56
29.50
87.12
145.55
202.19
255.09
302.23
341.04
368.64
383.12
385.13
378.08
366.68
354.36
341.44
325.65
304.85
280.20
257.32
244.26
247.35
267.55
299.72
335.15
365.68
386.75
397.71
400.20
395.80
385.14
368.36
346.18
320.36
292.94
265.17
236.72
205.85
170.65
130.08
84.47
35.37
-15.26
-65.50
-113.91
-159.74
-203.08
-245.01
-287.86
-334.95
-389.60
-453.40
-524.41
-596.38
-659.63
-703.99
-722.35
-713.39
-681.93
-636.69
-586.75
-538.33
-493.73
-452.27
-412.45
-373.57
-336.19
-301.17
-268.68
-237.68
-206.45
-173.70
-139.25
-104.22
-70.52
-39.81
-12.64
11.76
35.22
59.74
86.51
115.29
144.38
171.34
194.14
212.11
226.36
239.26
253.45
270.74
291.51
314.76
338.75
361.74
382.53
400.61
415.82
428.02
436.83
441.64
441.76
436.54
425.54
408.62
386.24
359.47
330.02
299.78
270.36
242.46
215.84
189.64
163.18
136.62
111.18
88.86
71.55
60.22
54.23
51.37
48.40
42.20
30.95
15.06
-2.46
-17.13
-24.80
-24.01
-17.44
-11.54
-14.24
-31.22
-62.97
-103.76
-143.33
-170.77
-178.33
-163.55
-128.98
-80.02
-22.48
38.62
99.06
154.70
201.37
235.81
256.97
266.74
269.14
268.52
267.55
266.58
264.26
259.29
251.59
242.63
234.49
228.67
225.18
222.55
218.55
211.14
199.26
183.21
164.37
144.59
125.31
106.92
88.52
68.33
44.50
15.98
-17.07
-53.37
-91.19
-128.90
-165.41
-200.14
-232.86
-263.63
-292.85
-321.32
-349.90
-379.00
-407.75
-433.72
-453.02
-461.34
-455.23
-433.16
-396.01
-346.72
-289.28
-227.46
-164.13
-101.12
-39.90
17.62
68.51
109.02
135.48
145.67
139.91
121.30
94.79
65.43
36.71
9.76
-16.10
-41.97
-67.83
-91.95
-111.48
-123.85
-128.07
-125.24
-117.64
-107.45
-95.78
-82.87
-68.94
-55.08
-43.18
-34.92
-30.79
-29.34
-27.51
-21.83
-9.96
8.47
31.55
55.76
77.10
91.83
97.96
96.18
89.68
82.92
80.15
83.41
92.20
103.85
113.68
117.09
110.94
93.89
66.04
29.00
-15.21
-63.25
-110.61
-154.08
-190.70
-217.36
-231.60
-233.33
-224.72
-211.42
-199.02
-190.76
-189.41
-194.64
-202.47
-207.50
-205.96
-195.39
-177.46
-154.14
-127.02
-101.93
-85.69
-82.47
-93.14
-116.04
-145.87
-179.23
-212.43
-218.34
-180.33
-101.18
-1.52
93.62
157.23
192.53
204.01
193.86
162.42
109.59
34.41
-58.98
-153.07
-227.22
-262.27
-252.44
-204.19
-132.17
-56.39
0.11
35.45
54.56
64.13
71.27
78.31
85.77
93.00
98.37
101.41
104.97
111.78
123.08
139.20
157.90
177.17
196.64
216.34
236.13
256.11
274.20
287.00
291.75
286.60
272.28
252.06
230.19
210.41
195.58
186.06
180.33
175.96
169.84
159.21
142.31
119.01
90.99
61.73
35.11
14.55
2.11
-2.30
-0.82
3.14
6.26
6.55
4.05
0.30
-2.58
-3.05
-0.90
2.82
6.63
9.49
11.30
12.66
14.23
16.18
18.16
19.87
21.69
24.68
29.83
36.97
44.24
48.78
48.28
42.50
33.73
25.76
21.92
23.31
28.24
33.20
34.67
30.90
22.59
12.31
3.04
-3.23
-6.21
-6.98
-7.04
-7.47
-8.61
-10.47
-13.33
-18.13
-25.97
-37.25
-50.87
-64.27
-74.53
-79.76
-80.22
-77.94
-75.47
-74.31
-74.03
-72.68
-68.21
-59.74
-48.36
-36.89
-28.74
-26.68
-31.57
-41.88
-53.89
-62.81
-64.56
-57.38
-42.63
-24.19
-6.83
5.83
12.47
13.82
11.46
6.42
-1.29
-11.95
-24.92
-37.82
-47.04
-49.20
-42.93
-29.75
-13.58
0.92
10.29
13.60
12.51
10.39
10.86
16.32
27.20
42.00
57.79
71.19
79.22
80.22
74.21
63.00
49.58
37.14
27.90
22.32
19.05
15.84
10.75
3.18
-5.95
-14.80
-21.64
-25.57
-26.71
-25.78
-23.60
-20.87
-18.30
-16.79
-17.49
-21.52
-29.57
-41.56
-56.23
-71.28
-83.65
-90.17
-88.37
-77.32
-58.07
-33.54
-7.86
14.63
30.44
37.83
37.27
31.28
23.67
18.26
17.48
21.44
27.93
33.51
35.14
31.53
23.53
13.61
4.74
-0.77
-1.67
2.10
9.63
19.25
28.89
36.59
41.10
42.35
41.48
40.36
40.62
42.81
46.05
48.25
46.90
39.97
26.73
8.27
-12.70
-32.42
-47.30
-55.06
-55.75
-51.97
-48.04
-48.38
-55.65
-69.46
-86.37
-101.21
-109.14
-107.71
-97.51
-81.35
-62.35
-42.21
-20.84
2.49
27.30
50.86
68.87
77.71
76.74
68.96
59.69
53.83
53.42
57.06
61.18
62.23
58.18
48.92
35.35
18.97
1.75
-13.58
-23.61
-25.44
-18.39
-5.17
8.73
17.64
19.02
15.27
12.82
18.45
34.99
58.93
81.62
93.45
88.87
69.24
42.03
16.96
1.22
-3.52
-0.84
3.37
4.50
1.48
-3.33
-6.17
-4.09
3.78
16.19
30.88
45.79
59.49
71.15
80.10
85.52
86.57
82.79
74.50
62.86
49.61
36.53
24.93
15.40
7.77
1.32
-4.90
-11.80
-19.98
-29.22
-38.36
-45.26
-47.36
-42.79
-31.28
-14.67
3.67
20.42
33.81
44.30
53.96
64.79
77.10
88.98
97.11
98.45
91.63
77.42
58.15
36.54
14.88
-5.43
-23.75
-39.92
-53.94
-65.96
-76.19
-85.02
-93.06
-101.18
-110.35
-121.24
-133.70
-146.53
-157.66
-164.99
-167.16
-163.99
-156.30
-145.28
-132.10
-117.90
-104.16
-92.62
-84.68
-80.41
-78.20
-75.27
-69.29
-59.97
-49.42
-41.07
-37.47
-38.71
-42.37
-45.11
-44.60
-40.72
-35.22
-30.56
-28.78
-31.10
-38.21
-50.28
-66.27
-82.93
-94.57
-94.62
-78.60
-46.99
-6.07
33.96
62.88
74.35
67.96
48.57
23.59
0.12
-17.07
-25.74
-25.68
-17.85
-3.98
13.46
31.49
47.14
58.14
63.39
63.07
58.09
49.67
38.90
26.65
13.80
1.46
-8.97
-15.97
-18.43
-15.84
-8.49
2.75
16.56
31.30
45.17
56.31
63.10
64.58
60.91
53.49
44.81
37.38
32.72
30.49
28.73
24.99
17.95
8.51
-0.42
-5.48
-4.62
1.82
11.68
22.20
31.66
40.26
49.95
63.45
83.13
110.15
144.04
182.86
223.84
264.13
301.56
334.65
362.15
382.06
391.26
386.03
363.52
323.34
268.40
204.39
137.91
74.47
16.91
-34.66
-81.90
-126.91
-170.97
-214.00
-254.64
-290.87
-320.59
-342.30
-355.35
-359.88
-356.82
-347.72
-334.50
-319.17
-303.20
-286.94
-269.46
-248.78
-222.63
-189.30
-148.44
-101.49
-51.82
-4.22
36.21
65.53
82.00
86.70
83.00
75.29
67.45
61.82
59.10
58.71
59.48
60.13
59.56
57.09
52.61
46.68
40.28
34.25
28.68
22.66
14.66
3.21
-12.46
-32.00
-54.13
-77.05
-99.04
-118.97
-136.45
-151.87
-165.90
-178.97
-190.86
-200.64
-207.15
-209.49
-207.30
-200.96
-191.59
-181.21
-172.55
-168.33
-170.01
-176.67
-184.53
-188.15
-182.56
-165.54
-138.52
-105.55
-70.83
-36.47
-1.60
36.72
81.62
134.63
194.75
258.46
320.38
374.30
414.50
436.92
440.16
425.50
396.13
355.98
308.82
258.16
207.45
160.63
121.33
91.69
71.02
55.39
38.46
13.63
-23.48
-72.99
-130.03
-185.71
-229.58
-252.65
-249.64
-220.32
-169.37
-105.63
-40.59
14.14
49.85
63.62
59.32
45.80
32.16
22.93
15.96
4.90
-15.02
-42.31
-69.04
-86.00
-89.97
-87.02
-89.59
-108.54
-145.51
-190.92
-229.04
-246.74
-240.50
-217.28
-189.48
-167.75
-156.16
-152.27
-150.90
-148.30
-143.87
-139.05
-134.78
-129.64
-120.15
-102.54
-75.08
-39.32
0.33
38.16
69.14
90.49
102.04
105.78
104.83
102.13
99.49
97.10
93.83
88.06
79.00
67.54
56.37
48.95
48.05
54.42
66.43
80.84
94.28
104.66
111.67
116.23
119.39
121.40
121.52
118.76
112.70
104.18
94.91
86.60
80.10
75.11
70.64
65.70
59.95
53.83
48.31
44.21
41.76
40.45
39.33
37.44
34.27
30.06
25.73
22.45
21.23
22.35
25.30
28.87
31.72
33.16
33.54
34.16
36.52
41.42
48.35
55.55
60.67
61.81
58.20
50.38
39.92
28.88
19.54
14.13
14.62
21.98
35.28
50.97
63.33
66.10
54.95
29.48
-6.19
-44.60
-77.63
-99.27
-107.38
-103.50
-91.25
-74.16
-54.29
-32.24
-8.29
16.31
38.68
55.16
62.93
61.84
55.13
48.52
48.02
57.15
75.27
97.64
117.40
128.63
128.91
120.28
107.85
96.85
89.66
84.48
76.42
60.39
34.33
0.84
-33.65
-61.51
-77.18
-79.04
-69.14
-51.33
-29.02
-4.22
21.61
45.82
63.59
68.87
57.04
27.97
-12.54
-54.05
-85.09
-97.80
-90.76
-69.14
-41.98
-18.12
-2.85
3.30
3.59
2.68
4.32
9.86
18.09
26.14
31.05
31.01
25.74
15.99
2.52
-14.34
-34.16
-55.04
-72.60
-80.30
-71.65
-43.40
1.89
55.78
106.72
144.50
163.86
165.45
153.76
133.80
108.67
79.23
45.64
9.40
-25.63
-53.79
-69.52
-69.81
-55.73
-32.39
-7.30
12.32
21.99
21.21
12.98
2.24
-5.91
-7.72
-1.47
12.34
30.68
47.95
56.73
50.20
25.24
-15.39
-63.50
-108.81
-143.54
-164.69
-173.44
-172.00
-160.80
-138.78
-106.46
-69.31
-38.08
-24.69
-35.66
-67.81
-108.98
-144.10
-162.92
-164.50
-155.99
-146.72
-141.88
-139.60
-132.85
-114.37
-81.10
-35.39
17.23
71.66
125.50
178.99
232.94
286.24
335.00
373.46
395.85
398.85
382.70
350.98
309.33
263.47
217.52
173.32
130.59
87.95
44.19
-0.81
-45.87
-88.78
-126.88
-157.74
-179.67
-192.10
-195.74
-191.80
-180.81
-161.48
-131.06
-87.07
-30.38
32.59
90.43
130.06
141.50
122.09
77.35
18.31
-43.32
-99.36
-146.63
-185.35
-216.53
-240.18
-255.31
-261.33
-259.01
-250.35
-237.19
-220.10
-198.39
-171.40
-139.84
-105.89
-72.01
-39.37
-7.46
24.50
55.43
81.38
96.68
97.39
84.21
63.11
43.53
34.52
41.26
63.11
94.20
126.06
150.63
162.58
160.43
146.53
125.93
104.52
86.98
74.97
66.88
58.52
45.07
22.68
-10.10
-51.59
-96.96
-138.66
-168.54
-180.77
-174.92
-157.07
-137.88
-127.48
-130.28
-142.55
-154.87
-158.20
-149.81
-135.36
-124.99
-126.69
-140.78
-159.51
-171.74
-169.54
-152.24
-125.66
-97.59
-72.74
-50.66
-27.21
1.72
37.16
76.50
115.36
150.38
181.03
209.41
238.77
271.03
305.19
337.20
361.10
371.02
363.30
338.03
299.27
254.04
210.10
173.39
145.99
125.58
106.40
81.30
44.37
-6.97
-70.59
-139.93
-205.43
-256.90
-286.41
-290.37
-269.96
-229.88
-176.03
-113.41
-45.54
24.56
92.85
153.40
199.35
225.09
228.42
211.17
178.03
134.25
83.94
30.05
-24.64
-76.00
-118.28
-145.32
-152.99
-141.34
-115.19
-82.97
-53.95
-35.47
-31.04
-40.20
-59.59
-84.27
-108.96
-128.64
-138.97
-136.73
-120.47
-91.00
-51.47
-6.72
38.05
78.80
113.74
143.29
169.41
194.01
217.71
239.17
255.54
263.69
261.91
251.15
235.04
218.60
205.97
198.50
193.95
187.54
173.93
149.43
113.07
66.26
11.37
-49.69
-115.72
-185.11
-254.29
-317.03
-365.91
-395.32
-404.45
-398.32
-385.68
-374.85
-369.61
-367.78
-363.04
-349.07
-323.40
-288.62
-250.54
-214.53
-182.47
-152.23
-119.37
-80.34
-34.76
13.95
59.82
96.87
121.47
133.79
137.58
138.76
143.02
153.61
170.10
188.54
203.17
208.99
204.09
190.36
172.54
155.54
141.65
129.25
113.53
88.81
51.20
0.62
-58.93
-120.22
-174.53
-213.69
-232.17
-229.02
-208.57
-179.42
-151.26
-130.90
-119.11
-110.45
-96.22
-69.25
-28.14
21.34
68.34
101.65
114.53
107.56
88.23
67.49
55.18
56.03
68.69
87.63
106.75
122.56
134.93
145.38
153.95
157.63
151.11
129.71
92.21
41.76
-15.78
-74.61
-130.80
-182.24
-226.98
-261.62
-281.15
-280.68
-257.92
-214.74
-157.19
-93.79
-33.21
17.74
55.22
78.45
89.24
91.14
88.54
85.59
85.29
88.78
95.09
101.42
103.95
99.18
85.39
63.68
37.94
13.59
-4.38
-13.21
-13.00
-5.92
5.49
19.71
36.44
55.73
76.74
97.32
114.82
127.54
135.92
142.40
150.01
160.75
174.58
189.57
203.28
214.29
223.15
231.84
242.34
254.83
266.90
274.19
272.20
258.37
233.25
200.07
162.94
124.76
86.07
45.59
2.03
-43.96
-89.09
-128.44
-157.84
-175.73
-183.51
-183.98
-179.05
-168.18
-148.87
-118.71
-77.91
-30.17
18.45
62.18
97.69
124.53
143.71
155.76
160.01
155.53
143.00
125.91
109.67
99.19
96.25
98.42
100.11
95.11
79.25
51.78
15.27
-25.70
-66.17
-102.02
-130.53
-150.41
-161.54
-164.61
-161.01
-152.78
-142.55
-133.41
-128.50
-130.16
-139.32
-155.03
-174.69
-194.91
-212.93
-227.81
-240.83
-254.63
-271.43
-291.15
-310.49
-323.82
-325.44
-312.18
-285.04
-248.73
-209.60
-172.83
-140.58
-111.67
-82.73
-49.76
-9.39
40.46
99.97
166.79
235.46
297.79
344.59
368.45
366.16
339.86
296.00
242.55
186.17
130.32
75.20
18.92
-40.85
-105.21
-172.83
-239.48
-298.59
-342.87
-366.68
-368.35
-351.20
-322.49
-290.73
-262.36
-239.69
-221.02
-202.59
-181.26
-156.23
-129.10
-102.40
-78.07
-56.51
-36.95
-18.51
-1.10
14.31
26.34
34.33
39.04
42.38
46.40
52.02
58.46
63.59
65.38
63.21
58.57
54.30
52.87
54.58
56.79
55.04
45.34
26.45
1.16
-24.22
-41.89
-44.83
-28.42
8.91
65.70
137.57
217.19
294.89
360.12
403.81
420.76
411.02
379.70
335.39
287.87
245.86
215.22
198.13
192.98
195.31
199.56
201.08
197.68
190.04
181.03
174.17
172.11
175.72
183.93
193.96
201.83
203.13
194.06
172.78
140.53
102.04
64.30
34.67
18.17
15.65
23.36
34.03
39.12
31.00
5.10
-38.62
-95.12
-154.77
-205.11
-233.55
-230.93
-194.72
-130.68
-51.76
25.52
86.23
121.56
130.73
119.93
98.77
76.47
59.19
49.43
47.10
50.97
59.67
71.78
85.52
98.29
107.35
110.58
107.40
98.83
86.83
73.38
59.45
44.75
28.14
8.42
-14.91
-41.32
-69.59
-98.40
-126.97
-155.39
-184.42
-214.96
-247.48
-281.73
-316.79
-351.56
-385.21
-417.49
-449.11
-481.69
-517.44
-558.29
-604.56
-653.81
-700.43
-736.77
-755.37
-751.64
-725.50
-681.32
-626.13
-567.09
-509.45
-455.92
-407.22
-363.27
-324.03
-289.57
-259.66
-233.33
-209.07
-185.30
-161.06
-136.29
-111.66
-88.09
-66.07
-45.26
-24.63
-2.96
20.61
45.90
71.82
97.03
120.55
142.76
165.19
189.82
217.71
247.94
277.30
301.09
314.95
316.37
306.09
288.28
269.44
256.57
254.82
265.85
287.48
314.35
339.15
354.01
351.86
328.01
281.92
218.28
146.90
80.40
30.60
4.53
2.64
19.31
46.30
76.86
107.57
138.21
169.12
198.84
223.31
237.33
236.87
220.75
190.77
149.80
99.60
40.03
-29.85
-109.01
-192.08
-269.28
-329.03
-362.29
-366.32
-345.74
-310.28
-270.74
-234.91
-205.69
-181.54
-158.88
-134.50
-106.83
-75.98
-43.14
-9.60
23.77
56.60
89.06
121.45
154.16
187.82
223.38
262.12
304.81
350.34
394.60
430.34
448.58
441.41
405.06
341.87
259.94
170.81
86.21
15.20
-36.80
-67.59
-76.90
-65.66
-36.26
6.71
56.09
103.15
139.60
160.02
163.21
152.34
133.32
112.49
94.52
81.39
72.64
66.37
60.57
54.50
49.55
49.06
57.31
77.64
110.71
153.71
201.17
246.98
286.55
317.84
340.96
356.70
365.29
366.07
358.41
342.89
321.95
299.27
278.07
259.55
242.27
222.98
198.20
165.91
126.26
81.20
33.47
-14.81
-62.81
-111.04
-160.86
-213.70
-270.31
-330.21
-391.42
-450.69
-504.00
-547.31
-577.37
-592.21
-591.07
-574.16
-542.10
-495.76
-436.51
-367.02
-292.03
-218.37
-153.69
-104.50
-74.16
-62.01
-63.82
-73.40
-84.41
-91.66
-91.64
-82.73
-64.79
-39.15
-8.51
23.54
53.39
78.73
99.45
117.32
134.29
150.57
163.87
170.69
168.76
159.44
147.93
140.76
141.91
149.57
156.44
153.32
134.39
100.97
61.26
26.32
4.37
-2.66
1.35
10.46
20.92
33.32
51.43
78.74
115.05
155.33
191.48
215.70
223.84
216.59
198.30
174.47
148.88
121.95
90.70
50.72
-1.01
-63.29
-129.49
-188.55
-228.08
-238.47
-216.32
-165.73
-97.13
-24.21
39.71
84.62
105.06
99.92
71.49
24.72
-33.41
-94.41
-149.63
-192.15
-218.49
-229.32
-228.55
-221.22
-210.99
-198.69
-182.26
-158.06
-122.81
-75.42
-18.11
43.39
100.69
144.55
167.20
164.45
136.69
88.28
25.45
-45.62
-119.76
-192.32
-258.11
-311.19
-346.02
-359.56
-352.85
-330.96
-301.06
-269.62
-240.50
-214.51
-190.25
-165.92
-140.49
-113.90
-86.60
-58.64
-29.22
3.25
40.26
82.08
127.13
172.16
213.49
248.83
278.62
306.09
335.66
370.58
411.15
454.43
495.52
529.49
552.83
563.72
561.50
546.07
517.85
478.36
430.61
378.87
327.50
279.60
236.22
196.48
158.50
120.70
82.59
44.72
8.06
-26.87
-60.56
-94.69
-131.27
-171.26
-213.58
-255.09
-291.66
-319.70
-337.22
-344.00
-341.04
-330.25
-314.67
-298.67
-287.39
-285.10
-292.91
-307.52
-321.98
-328.51
-321.89
-301.55
-271.06
-235.63
-199.02
-161.91
-122.48
-78.36
-28.56
25.32
79.32
128.16
166.70
190.85
198.69
191.01
171.31
145.15
118.71
96.81
81.32
70.69
61.09
48.24
29.20
3.42
-27.44
-60.30
-91.39
-116.88
-133.22
-137.48
-128.09
-105.09
-70.01
-25.01
27.89
86.77
148.62
208.17
257.71
288.70
294.76
274.42
232.10
176.32
116.86
62.10
17.61
-13.65
-30.70
-34.49
-28.22
-17.75
-10.73
-14.48
-33.83
-69.77
-119.85
-179.59
-243.56
-305.70
-358.97
-395.74
-409.41
-396.77
-359.88
-305.73
-243.60
-181.89
-125.91
-78.16
-40.07
-13.72
-1.80
-5.74
-23.41
-48.48
-72.21
-87.06
-89.81
-82.29
-69.88
-58.78
-53.54
-56.13
-65.84
-79.56
-92.31
-98.07
-91.71
-71.64
-41.94
-12.10
6.53
5.85
-14.60
-46.82
-77.79
-95.22
-92.23
-68.92
-30.73
14.74
60.16
99.53
128.44
144.53
148.29
143.70
137.79
138.50
151.96
180.16
220.58
267.58
314.89
357.41
391.81
416.26
429.69
431.52
421.95
402.06
373.72
338.99
299.92
258.38
216.17
174.94
135.85
99.19
64.61
31.76
1.12
-25.82
-47.32
-62.78
-73.83
-84.21
-98.17
-118.53
-144.92
-173.57
-198.21
-212.05
-209.96
-190.34
-155.95
-113.70
-73.15
-43.66
-31.23
-36.38
-54.13
-75.93
-92.87
-98.60
-90.85
-71.49
-45.11
-17.11
8.14
28.56
44.98
60.74
80.45
108.00
144.53
187.41
230.61
266.64
289.10
294.64
283.87
260.97
232.43
205.53
186.88
180.86
188.52
207.09
230.46
250.73
260.63
255.93
236.43
205.68
169.28
132.88
100.89
76.11
59.72
51.54
50.08
52.70
56.23
57.64
54.97
47.75
36.58
22.52
6.35
-11.64
-31.75
-54.72
-81.76
-114.49
-154.52
-202.34
-256.02
-310.00
-355.36
-382.30
-383.53
-356.89
-305.56
-236.01
-155.23
-69.60
15.54
94.68
161.01
207.18
227.83
222.44
196.48
159.64
120.67
85.96
58.30
37.41
20.92
6.21
-8.47
-23.54
-38.33
-55.03
-74.85
-97.60
-122.16
-147.93
-175.34
-205.39
-238.83
-275.85
-321.94
-380.46
-449.99
-523.57
-591.21
-643.77
-676.37
-690.00
-690.55
-692.55
-705.10
-727.13
-749.04
-759.97
-754.83
-736.48
-712.92
-653.42
-547.57
-405.70
-253.82
-116.37
-5.89
75.33
130.36
161.74
179.71
185.66
181.19
170.13
157.89
149.02
145.77
146.24
148.72
152.78
153.24
147.47
136.30
123.03
110.82
101.06
93.64
88.29
85.28
81.39
74.84
65.99
56.80
49.34
44.54
42.23
41.92
43.15
43.56
41.68
37.49
32.39
28.28
26.76
28.72
34.38
43.31
53.80
64.36
74.39
84.38
95.61
109.39
126.46
146.53
168.32
189.83
209.12
225.12
237.92
248.66
259.09
271.22
286.74
306.50
329.70
353.12
371.24
377.62
367.27
338.99
296.42
246.89
198.60
157.77
127.14
106.48
94.40
90.03
93.26
103.87
120.25
138.92
155.24
164.87
165.50
157.63
144.35
130.20
119.62
115.62
118.76
126.90
135.79
140.49
136.80
122.63
98.70
68.35
36.66
9.34
-8.59
-14.30
-8.32
5.12
19.22
27.23
25.28
13.96
-2.36
-18.27
-30.77
-41.01
-53.11
-70.60
-92.93
-114.21
-125.73
-120.74
-98.93
-67.55
-38.66
-23.76
-28.75
-52.22
-87.24
-125.62
-161.82
-194.37
-224.58
-253.56
-279.78
-299.00
-306.06
-297.51
-273.44
-237.36
-194.49
-149.68
-106.51
-67.70
-36.17
-15.10
-7.11
-12.70
-29.17
-51.10
-72.15
-86.97
-92.37
-87.42
-72.84
-50.62
-23.77
3.89
28.36
46.79
58.95
67.84
78.75
96.98
125.02
160.72
197.63
227.33
242.97
242.13
227.61
206.01
184.51
167.94
157.78
153.30
153.56
158.98
170.61
187.58
205.32
216.50
214.86
199.75
177.79
159.96
155.50
166.06
184.00
196.20
190.57
162.06
114.38
57.40
1.75
-45.61
-82.95
-112.25
-136.33
-156.64
-172.60
-182.49
-185.06
-180.31
-169.66
-155.39
-139.61
-123.53
-107.38
-91.10
-75.24
-61.61
-52.92
-51.50
-58.00
-71.01
-88.09
-107.53
-129.43
-155.03
-184.84
-216.52
-244.30
-260.75
-260.04
-240.88
-207.34
-167.06
-127.73
-94.06
-66.70
-43.42
-21.15
2.54
28.99
58.85
92.45
129.45
168.10
204.75
234.32
251.65
253.12
237.80
207.50
166.03
118.31
69.53
24.53
-12.86
-40.84
-60.18
-74.18
-87.17
-102.42
-120.34
-138.22
-151.81
-157.87
-156.10
-149.35
-141.97
-137.39
-136.55
-137.83
-138.12
-134.42
-124.59
-107.17
-80.85
-44.42
2.37
57.01
113.01
160.28
187.51
186.36
155.40
102.03
40.85
-11.33
-41.89
-47.19
-33.18
-11.59
6.58
16.65
21.99
31.07
51.77
86.12
128.54
168.35
194.64
200.72
185.65
152.74
106.85
52.87
-3.88
-56.35
-95.99
-115.01
-109.61
-82.51
-42.58
-1.86
28.92
44.00
43.57
32.47
17.66
5.80
1.64
6.92
20.01
36.42
50.21
56.46
53.47
43.45
31.10
20.81
14.03
8.68
0.53
-14.23
-36.39
-62.34
-84.75
-95.29
-88.22
-63.42
-27.50
7.63
28.52
24.63
-7.91
-65.03
-136.35
-208.32
-268.02
-305.74
-316.73
-301.56
-265.62
-217.60
-167.04
-121.59
-85.04
-57.16
-35.36
-17.20
-2.14
8.51
13.20
12.14
8.22
6.02
9.65
20.58
36.92
54.65
70.10
82.11
92.72
106.12
126.32
154.57
187.74
218.81
239.38
243.16
228.69
200.14
165.51
133.45
109.99
96.95
92.33
92.46
94.21
96.39
99.25
103.00
106.34
105.78
96.64
75.17
40.80
-2.87
-48.83
-88.99
-117.35
-132.35
-137.25
-138.49
-142.63
-153.36
-170.05
-188.31
-201.84
-204.76
-193.53
-167.87
-130.87
-88.44
-48.01
-16.64
1.45
6.60
3.98
1.63
7.03
23.97
50.93
82.14
110.75
131.83
144.07
149.12
149.34
145.58
136.57
120.05
94.85
62.39
26.77
-6.86
-34.45
-54.48
-67.86
-76.68
-82.40
-85.00
-83.45
-77.01
-66.67
-55.38
-47.01
-44.65
-49.13
-58.85
-70.77
-82.01
-90.92
-97.21
-101.27
-103.22
-102.39
-97.57
-87.67
-72.29
-52.08
-28.43
-3.13
21.92
44.81
63.52
76.17
81.60
80.12
73.98
67.03
63.61
67.02
78.10
94.78
112.83
127.59
135.81
136.76
132.09
124.53
116.35
108.46
100.55
92.01
82.97
74.55
68.23
64.76
63.42
62.24
59.05
52.74
43.83
34.04
25.19
18.10
12.12
5.68
-2.79
-13.87
-26.78
-39.86
-51.37
-60.33
-67.01
-72.71
-78.94
-86.57
-95.19
-103.28
-108.90
-110.67
-108.44
-103.13
-96.04
-88.03
-78.96
-67.96
-54.15
-37.34
-18.55
0.27
16.93
29.78
38.49
44.10
48.68
54.45
62.82
73.76
85.81
96.75
104.49
107.82
106.70
102.01
94.98
86.76
78.30
70.11
62.04
53.04
41.24
24.58
2.00
-25.56
-54.57
-79.59
-94.63
-94.96
-78.49
-46.41
-3.09
44.65
88.85
121.79
137.64
133.56
110.27
71.51
23.00
-28.79
-77.24
-116.01
-139.26
-142.49
-123.59
-83.81
-27.98
36.37
101.03
159.28
207.38
244.66
272.56
293.20
308.20
318.42
324.29
326.35
325.33
321.94
316.33
307.87
295.34
277.49
253.42
222.95
186.70
146.24
104.43
65.23
32.82
10.03
-3.31
-10.85
-18.68
-32.92
-57.22
-91.49
-132.27
-174.81
-215.05
-250.97
-282.46
-310.58
-336.75
-362.74
-390.94
-424.04
-463.85
-509.17
-554.39
-589.55
-603.07
-586.24
-537.83
-466.00
-386.31
-316.51
-270.58
-255.02
-268.42
-303.78
-351.63
-402.17
-446.16
-475.33
-483.32
-467.25
-428.98
-374.91
-313.90
-254.37
-201.71
-157.48
-120.37
-88.11
-58.80
-31.39
-5.30
19.98
44.96
70.16
95.85
122.11
148.71
175.42
202.00
228.17
253.81
279.20
305.46
334.56
368.69
408.86
453.24
496.25
529.31
543.19
531.35
492.52
431.34
356.45
277.33
201.26
131.71
68.74
10.61
-44.81
-99.52
-155.13
-212.53
-270.68
-325.15
-367.86
-389.17
-381.98
-346.09
-290.05
-228.84
-178.07
-147.57
-137.75
-140.47
-143.87
-138.04
-118.45
-86.00
-44.52
1.80
49.30
94.29
132.33
158.97
171.62
172.05
166.92
165.90
177.90
207.50
253.27
308.22
362.44
406.04
431.52
434.93
416.03
377.76
325.44
265.75
205.45
150.26
104.14
68.90
44.25
28.10
16.91
6.12
-9.00
-32.29
-65.43
-106.98
-152.56
-196.06
-231.42
-254.44
-263.67
-260.21
-246.65
-225.82
-200.14
-171.83
-143.56
-118.54
-99.80
-88.72
-83.57
-79.26
-68.66
-45.45
-6.97
44.05
100.09
151.54
190.30
212.67
220.29
218.87
215.27
214.64
218.40
223.98
226.11
219.02
198.88
165.27
121.42
73.36
28.41
-6.45
-26.20
-29.17
-17.86
1.52
20.74
32.42
32.55
21.44
2.59
-19.87
-43.54
-68.38
-95.56
-125.52
-156.77
-186.30
-211.18
-230.06
-243.38
-252.16
-256.76
-256.19
-248.87
-233.83
-211.48
-183.69
-152.98
-121.39
-89.70
-57.36
-22.40
18.15
66.97
124.49
187.43
248.84
300.36
335.46
351.76
351.62
340.56
324.05
304.67
281.25
249.97
206.99
150.79
82.88
7.99
-66.48
-131.54
-178.28
-199.73
-192.82
-159.57
-106.81
-45.61
11.59
54.08
75.77
75.93
58.49
29.80
-5.07
-38.38
-63.48
-77.87
-83.25
-82.57
-79.71
-77.10
-77.93
-86.11
-105.14
-137.87
-182.81
-235.52
-288.04
-330.82
-355.43
-357.66
-338.66
-304.08
-262.09
-219.89
-181.35
-146.23
-112.11
-76.80
-40.03
-3.20
32.16
65.66
98.82
134.59
176.03
224.41
278.01
331.86
379.61
415.84
437.56
444.60
438.78
423.08
400.93
376.10
352.41
332.91
318.39
306.18
290.49
264.78
225.05
172.17
111.76
51.44
-2.78
-48.92
-89.15
-127.56
-167.73
-211.25
-258.35
-308.84
-362.34
-417.18
-468.69
-509.12
-530.19
-527.75
-505.50
-475.06
-451.20
-444.67
-456.47
-477.24
-492.07
-488.10
-460.39
-412.98
-355.22
-296.25
-240.95
-189.51
-139.69
-89.61
-39.18
10.38
58.50
106.58
157.70
214.72
277.26
340.02
393.28
426.32
431.89
409.63
366.33
312.75
258.79
209.69
165.42
123.33
82.03
43.94
14.57
-0.71
-0.45
10.98
24.84
31.88
26.47
8.80
-15.63
-38.93
-54.38
-58.47
-51.25
-35.20
-13.80
9.08
29.45
43.65
49.55
47.93
43.11
41.84
50.42
71.64
103.10
138.19
169.13
190.51
201.09
203.37
201.50
199.02
198.01
199.45
204.21
213.11
226.03
240.81
252.90
256.47
246.63
221.71
184.07
139.17
93.34
51.31
14.79
-17.63
-49.53
-85.22
-128.02
-178.96
-235.75
-292.67
-341.55
-373.97
-383.52
-367.74
-328.74
-272.76
-208.66
-145.95
-92.84
-54.53
-32.35
-23.83
-23.92
-26.79
-27.61
-23.66
-14.65
-2.41
9.73
17.90
18.92
11.63
-2.11
-17.63
-29.00
-31.46
-23.23
-5.91
17.11
42.73
69.35
96.73
124.77
152.41
177.76
198.95
214.89
225.40
230.55
229.86
222.16
206.46
182.95
153.60
121.75
91.02
64.28
43.13
28.04
18.75
14.40
13.44
13.73
12.87
9.07
1.77
-8.36
-19.92
-31.41
-41.65
-49.77
-55.12
-57.22
-55.97
-51.67
-44.77
-35.08
-21.09
-0.59
27.51
61.14
94.18
118.35
127.02
119.42
101.90
85.44
80.14
89.80
110.00
130.61
140.79
133.70
108.52
69.35
22.83
-23.93
-64.04
-90.90
-98.91
-85.30
-51.97
-6.02
41.82
80.27
100.67
98.54
73.53
28.59
-30.57
-95.70
-156.74
-203.66
-229.15
-230.66
-211.09
-177.34
-138.17
-102.24
-77.09
-69.00
-82.01
-116.01
-164.76
-215.88
-254.14
-267.66
-253.79
-221.16
-185.96
-164.39
-165.06
-185.80
-216.03
-242.72
-256.32
-253.37
-235.07
-203.87
-161.15
-107.49
-45.17
19.93
78.96
123.61
150.33
162.88
170.91
185.33
212.73
251.78
293.88
326.75
339.69
327.64
292.38
241.18
184.60
134.26
100.77
91.61
108.79
146.93
193.74
233.27
251.27
240.04
200.70
141.58
73.59
5.79
-57.13
-114.69
-168.38
-219.78
-270.09
-320.50
-372.71
-428.11
-486.27
-543.56
-593.41
-628.25
-642.17
-633.15
-603.42
-558.09
-502.96
-442.74
-380.52
-318.27
-257.61
-199.98
-146.28
-96.20
-48.14
0.12
50.43
103.73
159.99
218.67
278.43
336.79
389.88
432.78
461.52
475.26
477.26
473.60
469.96
468.17
464.96
453.85
429.19
389.74
339.82
286.76
236.79
191.70
148.44
101.87
48.81
-9.33
-66.70
-115.22
-147.88
-160.74
-153.58
-129.35
-93.27
-51.72
-11.25
22.54
46.37
60.00
65.87
67.63
68.15
68.17
66.46
60.84
49.58
31.76
7.13
-23.75
-58.77
-93.61
-122.00
-137.94
-138.77
-127.26
-111.03
-99.04
-96.97
-104.27
-114.43
-118.43
-109.00
-83.20
-42.08
11.74
76.07
149.11
227.44
304.12
369.05
412.11
427.59
417.71
392.48
365.95
350.32
350.94
364.84
382.97
394.97
393.73
377.64
349.91
315.91
280.28
245.33
211.05
176.23
139.91
102.22
64.25
27.38
-7.60
-40.85
-73.18
-105.53
-138.50
-172.11
-205.92
-239.38
-272.06
-303.76
-334.57
-364.57
-393.82
-422.19
-449.36
-475.17
-500.21
-526.38
-556.61
-593.52
-637.24
-683.82
-725.16
-751.25
-753.83
-729.79
-682.40
-619.83
-551.72
-485.48
-424.38
-367.98
-313.96
-260.38
-206.68
-153.32
-100.62
-48.00
5.61
60.39
114.29
162.99
201.28
225.78
237.00
239.57
240.28
245.09
256.59
273.38
291.33
305.74
313.25
312.28
302.55
284.20
257.41
222.68
181.43
136.36
91.15
49.78
15.46
-10.36
-28.35
-41.07
-51.64
-62.01
-71.42
-76.29
-71.98
-55.58
-28.43
3.38
31.40
48.63
53.18
49.21
44.68
46.92
58.50
75.93
91.88
99.35
95.48
82.62
66.80
54.42
49.51
52.53
60.79
69.89
75.00
72.18
59.22
36.45
7.20
-22.48
-45.01
-53.35
-43.24
-15.02
25.86
69.69
104.89
121.14
112.70
80.17
29.94
-28.38
-85.48
-134.65
-172.07
-195.41
-202.39
-190.95
-161.11
-117.08
-67.61
-23.58
6.03
17.69
14.20
2.62
-9.66
-18.11
-22.11
-23.52
-24.36
-25.02
-23.81
-17.77
-4.03
18.71
49.41
84.61
119.11
147.40
165.53
172.53
170.61
163.89
156.24
149.42
142.44
132.63
117.65
97.30
73.94
51.57
34.15
24.05
21.63
25.80
35.01
48.14
64.82
84.77
106.97
129.25
148.45
161.53
166.56
162.97
151.01
130.92
102.75
67.08
26.32
-14.57
-48.83
-69.71
-72.34
-54.71
-17.39
37.16
104.74
179.13
251.91
313.57
355.80
374.30
370.23
349.08
317.91
282.43
245.39
207.08
167.06
125.39
82.80
39.88
-3.90
-50.60
-103.19
-164.10
-233.35
-307.19
-377.73
-434.58
-467.80
-471.26
-444.82
-394.36
-329.40
-259.68
-192.46
-131.67
-78.83
-34.67
-0.21
23.60
36.88
41.44
40.06
35.32
28.49
19.33
6.91
-9.92
-32.28
-61.88
-101.06
-151.63
-212.87
-279.58
-342.17
-389.20
-411.17
-403.49
-367.41
-308.39
-233.97
-152.38
-72.42
-3.95
42.48
57.67
36.82
-17.62
-95.30
-180.00
-254.07
-303.51
-321.61
-310.04
-277.08
-233.72
-189.49
-149.57
-114.30
-80.85
-45.61
-6.20
37.72
84.48
130.73
171.97
203.18
220.16
221.38
209.56
191.43
175.91
170.69
179.34
200.34
228.23
256.27
278.96
293.22
298.28
294.75
283.63
266.01
243.16
216.74
188.75
161.21
135.40
111.50
89.05
67.59
47.43
30.17
18.24
13.92
17.64
26.85
36.14
38.99
30.59
10.27
-17.68
-45.28
-63.78
-66.72
-52.08
-22.85
14.18
50.70
79.63
97.41
105.38
109.34
117.19
135.38
165.51
202.91
238.12
260.98
264.71
248.14
215.25
172.36
125.35
78.40
34.52
-3.26
-31.35
-46.56
-47.77
-37.03
-18.99
0.97
18.79
32.91
43.98
53.96
65.18
79.75
99.46
125.67
158.86
197.94
239.87
279.87
312.40
332.46
337.04
325.82
301.06
266.45
225.66
181.07
133.39
82.45
28.53
-26.40
-78.89
-125.05
-162.67
-192.51
-218.16
-244.81
-277.56
-319.70
-371.83
-431.25
-491.65
-543.49
-575.98
-580.65
-555.48
-507.22
-450.32
-401.73
-374.28
-371.20
-385.02
-401.55
-406.23
-390.26
-353.15
-301.39
-244.55
-191.26
-146.97
-113.78
-91.43
-78.25
-71.79
-68.54
-64.01
-53.24
-31.87
2.71
50.63
109.99
177.98
251.34
326.48
398.73
461.86
508.57
532.49
530.39
503.40
456.63
396.86
330.49
262.64
197.51
139.44
93.04
61.72
45.36
39.14
34.24
21.07
-7.16
-52.12
-110.89
-178.38
-249.98
-322.53
-393.20
-457.63
-509.02
-539.49
-543.18
-518.94
-471.32
-408.92
-340.98
-274.16
-211.26
-151.93
-94.43
-37.58
18.77
74.45
129.87
186.43
245.88
309.08
374.99
440.21
499.12
545.09
571.89
575.17
553.58
509.20
447.01
373.70
295.97
219.21
146.79
79.95
18.32
-39.61
-96.37
-155.35
-220.01
-292.16
-369.97
-446.76
-512.06
-555.01
-568.38
-551.65
-510.98
-456.40
-397.42
-339.62
-283.71
-227.20
-166.95
-101.10
-29.77
45.23
120.53
191.24
250.86
292.34
309.86
300.99
267.49
214.58
148.48
73.90
-6.84
-92.58
-180.65
-265.00
-336.62
-386.30
-408.43
-403.47
-377.65
-339.99
-298.54
-257.86
-218.83
-180.77
-143.91
-110.36
-83.21
-64.36
-52.80
-44.57
-34.41
-18.14
5.81
36.43
71.14
107.11
142.04
173.97
201.04
221.43
233.86
238.17
235.49
227.76
216.92
204.27
190.42
175.88
161.66
149.40
140.81
136.80
136.98
139.75
143.06
145.28
145.74
144.57
142.31
139.37
135.76
131.15
125.34
118.46
111.08
104.14
98.75
95.89
96.28
100.24
107.61
117.88
130.34
144.37
159.72
176.55
195.00
214.47
232.79
246.07
249.39
238.40
211.03
168.59
115.64
58.46
3.00
-46.81
-89.60
-125.86
-156.72
-182.90
-204.55
-221.78
-235.27
-246.19
-255.48
-262.76
-265.85
-261.33
-245.84
-217.55
-176.97
-126.76
-71.00
-14.36
38.54
83.50
117.21
137.95
146.00
143.83
135.33
124.65
115.01
107.99
103.62
100.91
98.54
95.26
90.20
82.86
73.23
61.80
49.57
37.81
27.76
20.38
15.98
14.10
13.56
12.76
10.17
4.96
-2.66
-11.38
-19.29
-24.70
-26.85
-26.30
-24.61
-23.69
-25.02
-28.89
-34.28
-39.10
-40.86
-37.49
-28.19
-13.86
2.94
18.59
29.57
33.65
30.73
22.85
13.38
5.63
1.39
0.28
-0.16
-3.43
-12.57
-28.67
-50.03
-72.18
-88.81
-93.35
-80.71
-48.78
0.71
62.47
128.76
191.27
243.04
279.74
300.16
305.71
299.38
284.71
265.14
243.74
223.21
205.53
191.49
180.12
168.85
154.25
133.62
106.17
73.33
37.87
2.25
-33.06
-70.26
-113.07
-164.47
-223.86
-285.80
-340.78
-378.07
-389.17
-370.32
-323.19
-254.14
-172.62
-89.43
-15.38
40.14
70.85
74.79
54.48
15.49
-35.84
-94.24
-155.64
-216.01
-269.94
-310.51
-331.33
-329.14
-305.29
-264.84
-213.92
-157.24
-97.60
-37.62
18.19
62.37
86.41
84.34
56.09
8.62
-46.05
-94.95
-128.19
-141.17
-134.55
-111.87
-77.17
-33.59
16.20
68.63
118.19
157.75
180.45
182.16
163.46
129.64
89.03
50.55
21.42
6.06
6.22
21.51
49.80
87.22
127.86
164.02
187.34
191.02
172.05
132.86
81.34
29.10
-11.57
-31.28
-26.22
0.94
42.38
88.09
129.25
160.48
180.22
189.59
190.30
183.37
168.78
146.21
116.18
80.29
40.30
-3.19
-51.59
-107.29
-170.88
-238.92
-303.26
-353.17
-379.41
-377.73
-349.94
-302.03
-240.88
-171.81
-98.58
-25.30
41.64
93.16
119.68
114.55
77.34
14.77
-60.65
-133.93
-191.48
-223.95
-227.57
-203.52
-156.41
-92.92
-21.16
49.43
108.46
146.25
156.70
139.70
102.03
55.05
10.65
-22.70
-41.60
-46.47
-38.58
-18.21
15.21
61.17
115.97
172.38
221.54
256.10
272.47
271.49
257.24
234.59
207.32
177.06
143.29
103.93
56.75
0.75
-62.31
-127.11
-185.32
-227.38
-245.14
-234.11
-194.65
-131.78
-54.32
26.47
98.70
152.29
181.73
188.10
179.26
167.14
163.04
173.13
196.51
226.73
255.72
277.61
290.36
294.76
292.24
283.22
267.05
243.17
212.16
175.68
135.40
91.73
43.92
-8.31
-62.90
-114.60
-156.23
-181.66
-188.95
-181.72
-168.12
-157.88
-158.63
-173.68
-201.99
-239.81
-283.05
-329.09
-377.34
-428.42
-482.25
-536.42
-585.56
-622.26
-639.56
-633.78
-606.49
-564.05
-515.03
-466.82
-423.20
-384.12
-347.41
-311.29
-275.82
-242.58
-213.02
-186.95
-162.03
-134.82
-102.42
-63.78
-19.70
27.82
76.79
125.74
173.29
217.45
255.22
283.14
298.49
300.50
290.70
272.51
250.13
227.70
209.01
197.45
195.84
205.59
225.73
252.42
279.76
301.63
313.93
315.85
309.70
299.28
288.07
277.84
268.47
258.81
247.79
235.32
222.46
210.95
202.49
198.01
197.20
198.53
199.71
198.34
192.56
181.44
165.11
144.49
121.04
96.35
71.73
47.88
24.71
1.51
-22.58
-47.88
-73.58
-97.54
-116.74
-128.28
-130.45
-123.35
-108.75
-89.44
-68.29
-47.68
-29.25
-13.87
-1.69
7.62
14.63
19.79
23.03
23.77
21.23
15.12
6.05
-4.55
-15.42
-26.45
-39.48
-57.80
-84.95
-123.07
-171.63
-227.11
-283.40
-332.87
-368.09
-383.42
-376.62
-349.48
-307.45
-257.94
-208.12
-163.04
-124.80
-93.11
-66.73
-44.88
-27.68
-15.77
-9.19
-6.67
-5.67
-3.13
3.30
14.39
29.02
44.79
59.04
69.90
76.91
80.84
83.06
84.69
85.90
85.91
83.50
77.99
70.19
62.65
59.06
62.87
75.82
97.30
124.65
154.37
183.40
209.88
233.04
252.31
266.60
273.83
271.47
257.34
230.50
191.52
142.33
86.10
27.17
-29.11
-77.14
-112.37
-132.77
-139.71
-137.36
-130.82
-123.95
-118.19
-112.90
-106.96
-99.97
-92.72
-86.03
-79.57
-71.73
-60.73
-46.44
-31.49
-20.53
-17.58
-23.61
-35.39
-47.20
-53.79
-53.05
-46.33
-36.59
-26.13
-15.74
-5.98
0.97
0.87
-10.58
-33.93
-63.48
-88.26
-97.18
-85.29
-57.24
-25.20
-1.97
6.49
4.53
3.69
15.49
44.43
85.52
127.78
161.06
181.67
193.65
204.73
220.32
239.35
254.32
255.95
238.81
204.36
159.99
115.20
77.72
51.57
37.54
34.54
40.35
51.38
62.07
65.61
56.53
33.74
2.26
-28.12
-46.90
-47.75
-31.46
-5.46
20.03
37.12
44.18
46.50
53.35
72.54
105.57
145.55
179.48
194.03
181.46
142.85
86.86
25.16
-33.06
-84.36
-130.68
-176.24
-224.30
-275.33
-327.59
-378.16
-423.65
-459.97
-481.84
-483.41
-460.36
-412.40
-344.60
-266.59
-189.43
-122.06
-69.22
-31.33
-5.88
10.85
22.68
32.86
43.95
57.62
74.43
93.93
115.07
136.89
158.47
178.75
195.93
207.25
209.54
200.32
178.60
145.22
102.50
53.59
1.98
-49.11
-97.06
-140.23
-177.64
-208.54
-231.81
-246.00
-249.86
-243.10
-226.91
-203.75
-176.49
-147.36
-117.29
-86.15
-53.41
-18.56
18.91
59.54
103.85
151.58
201.09
249.03
290.98
322.67
341.01
344.86
334.84
312.90
281.52
243.26
200.49
155.26
108.86
61.45
11.99
-41.01
-98.00
-156.78
-211.92
-255.84
-281.04
-282.87
-261.00
-218.87
-161.68
-94.17
-19.96
57.37
132.66
198.51
246.74
271.27
270.98
250.28
217.14
179.49
142.12
105.37
66.28
21.31
-30.87
-87.90
-144.10
-192.35
-226.55
-243.79
-245.00
-234.12
-216.04
-194.16
-168.79
-137.02
-94.47
-38.28
30.13
103.74
171.24
220.57
243.06
236.32
204.48
156.02
100.23
44.45
-6.61
-49.85
-82.46
-101.55
-105.42
-95.09
-74.66
-49.90
-25.83
-4.82
13.44
29.84
43.53
50.69
45.61
23.97
-13.54
-59.76
-102.54
-129.02
-130.56
-106.19
-62.85
-12.79
30.74
57.60
63.15
48.57
19.28
-17.41
-54.75
-87.87
-114.39
-133.85
-146.80
-153.57
-153.92
-147.68
-135.54
-119.33
-101.32
-83.25
-65.43
-47.23
-28.42
-10.25
4.54
13.16
14.88
12.60
12.70
22.79
48.26
89.26
139.52
187.69
221.24
230.60
212.47
170.53
113.24
49.83
-13.78
-76.37
-139.64
-204.17
-266.18
-316.96
-345.81
-345.00
-313.41
-256.69
-184.21
-104.71
-23.85
55.20
128.78
190.59
232.30
247.24
234.32
199.71
154.50
110.03
73.47
46.53
27.34
13.58
4.83
2.31
6.89
17.23
29.46
38.69
41.19
35.82
23.92
8.10
-9.28
-26.96
-44.61
-62.18
-78.77
-91.88
-97.55
-91.64
-71.89
-39.76
-1.21
34.68
58.80
65.54
55.27
34.14
11.44
-4.32
-8.79
-3.09
7.49
16.55
19.62
15.93
7.97
-0.40
-6.40
-9.84
-13.26
-20.63
-35.29
-58.21
-87.23
-117.56
-143.11
-158.37
-159.71
-145.93
-118.04
-79.02
-33.38
13.17
54.72
86.47
106.10
114.41
114.84
112.04
110.03
111.18
116.18
124.86
136.83
151.41
166.98
180.61
188.50
187.55
176.63
157.01
131.67
104.29
78.53
58.01
46.17
45.44
56.09
75.24
97.13
114.76
122.45
117.80
102.41
80.65
57.64
37.34
21.71
10.97
4.52
1.75
2.39
6.19
12.14
18.03
20.58
16.43
3.87
-15.64
-37.46
-55.17
-63.27
-59.80
-47.41
-32.30
-21.47
-19.69
-27.29
-40.16
-51.66
-55.62
-48.98
-33.02
-12.57
6.04
17.44
18.96
10.99
-3.76
-21.58
-38.86
-52.75
-61.27
-63.18
-58.06
-46.52
-30.22
-11.61
6.60
22.16
33.71
40.87
44.06
44.05
41.59
37.19
31.07
23.46
14.81
6.16
-1.04
-5.38
-6.29
-4.49
-1.85
-0.47
-1.39
-3.84
-5.34
-2.81
6.05
21.74
42.91
66.81
89.89
108.47
119.11
119.20
107.56
85.15
55.12
21.83
-10.42
-38.93
-63.32
-85.21
-107.47
-133.34
-165.97
-207.87
-260.05
-320.75
-384.53
-442.78
-485.84
-506.17
-501.06
-473.41
-430.19
-379.42
-327.40
-277.19
-229.30
-183.17
-138.52
-95.64
-54.63
-14.18
28.93
78.83
138.27
206.08
275.85
336.67
376.50
386.51
364.49
315.67
250.42
180.16
113.70
55.57
6.82
-32.79
-63.07
-83.26
-93.00
-93.74
-88.99
-83.15
-79.65
-79.59
-81.75
-83.52
-82.58
-77.82
-69.23
-57.03
-41.15
-21.62
0.30
21.13
35.46
37.91
26.03
2.33
-25.88
-49.25
-60.29
-56.19
-39.40
-15.81
7.99
26.79
37.43
38.73
31.08
16.53
-1.21
-17.21
-26.76
-26.97
-17.55
-0.35
22.10
47.64
74.75
101.75
126.05
144.44
154.41
155.78
151.15
144.86
140.58
139.43
139.36
136.08
125.15
103.90
72.55
34.37
-5.17
-39.65
-63.36
-72.99
-68.65
-53.89
-34.46
-16.26
-3.42
2.78
3.48
0.93
-3.20
-8.66
-16.22
-26.48
-38.60
-49.94
-56.84
-56.45
-48.12
-33.89
-17.53
-2.74
8.57
16.77
23.80
31.52
40.29
48.75
54.65
56.51
54.71
51.58
50.42
53.89
62.76
75.37
88.26
97.31
99.19
92.42
78.09
59.66
42.00
29.84
26.28
31.81
44.52
61.10
78.31
93.89
106.73
116.34
122.14
123.27
118.89
108.92
94.37
77.29
60.01
44.32
30.82
18.83
6.98
-5.99
-20.40
-35.36
-49.07
-59.57
-65.56
-66.89
-64.61
-60.39
-55.96
-52.69
-51.55
-53.13
-57.55
-64.18
-71.51
-77.41
-79.62
-76.65
-67.99
-54.19
-36.34
-15.81
5.89
26.97
45.39
59.39
68.01
71.56
71.57
70.11
68.97
69.12
70.74
73.73
78.17
84.30
92.18
101.18
109.78
115.90
117.63
114.03
105.65
94.64
84.35
78.22
78.50
84.99
94.56
102.09
102.34
92.24
72.11
45.35
16.67
-10.42
-35.11
-59.36
-86.57
-119.72
-160.14
-206.94
-257.47
-307.90
-353.98
-391.56
-417.18
-428.65
-425.31
-407.90
-378.27
-338.52
-290.29
-234.50
-171.91
-104.43
-36.57
23.97
67.32
84.57
71.87
33.08
-20.28
-72.50
-109.42
-122.80
-111.53
-79.54
-32.09
26.37
91.40
156.16
210.17
241.49
241.70
210.84
158.60
101.02
54.36
29.35
29.28
51.26
89.19
135.99
184.07
224.87
249.36
250.12
224.30
175.45
112.72
47.74
-8.84
-49.65
-70.65
-69.89
-47.21
-4.90
50.92
109.70
158.09
183.62
179.11
145.28
90.56
27.91
-29.81
-73.79
-100.96
-113.36
-116.01
-114.77
-114.66
-119.04
-129.33
-144.79
-162.73
-179.00
-189.11
-189.15
-176.82
-151.86
-115.70
-70.32
-17.19
43.14
110.15
181.87
253.48
317.46
365.62
391.83
394.52
376.76
344.43
303.53
258.94
214.96
176.85
151.20
144.00
157.10
185.41
217.46
239.26
240.44
217.69
175.25
121.57
64.45
7.82
-48.75
-108.12
-173.26
-243.97
-317.05
-386.29
-444.42
-486.11
-510.69
-522.99
-531.13
-542.52
-557.98
-572.68
-577.85
-565.63
-533.55
-485.98
-431.68
-379.39
-335.13
-298.25
-266.85
-239.07
-214.69
-194.64
-179.54
-168.44
-158.78
-148.34
-132.48
-109.57
-79.62
-43.53
-2.05
44.58
95.80
157.16
210.89
250.02
265.13
250.10
205.53
140.04
68.16
5.58
-36.13
-53.98
-49.40
-30.10
-4.37
21.93
46.22
68.15
87.91
105.20
118.40
128.87
138.17
149.66
167.53
195.22
233.66
280.08
327.88
367.43
390.66
391.63
369.12
326.46
269.85
205.68
138.81
72.06
7.02
-53.60
-106.47
-147.86
-175.16
-188.00
-188.33
-179.43
-164.50
-145.83
-124.34
-100.48
-74.34
-45.79
-14.28
20.89
59.72
100.61
139.95
172.97
195.26
204.23
199.46
182.02
153.46
115.56
71.17
25.09
-15.79
-44.10
-54.82
-47.63
-27.67
-3.82
14.53
20.76
12.63
-7.79
-35.81
-66.02
-93.65
-115.24
-128.76
-133.45
-129.97
-120.40
-108.14
-97.35
-92.02
-94.69
-105.50
-122.02
-139.99
-154.58
-161.70
-158.59
-143.67
-116.17
-75.95
-24.00
36.74
101.22
162.98
215.70
254.89
278.67
287.44
283.06
268.00
245.39
219.29
194.73
176.68
168.18
168.71
173.91
177.35
173.62
161.15
142.85
124.28
110.20
101.91
96.55
89.04
74.72
51.33
19.21
-19.81
-63.73
-110.77
-158.68
-204.17
-243.00
-271.22
-286.76
-290.10
-283.53
-269.55
-249.26
-222.07
-186.57
-141.63
-87.51
-26.24
38.49
101.74
157.95
201.99
230.21
241.60
238.22
224.58
206.24
188.20
173.79
164.35
159.62
158.56
160.24
164.43
170.90
178.64
184.81
184.84
173.71
148.13
108.58
59.85
10.42
-31.53
-61.40
-79.80
-91.58
-102.86
-118.22
-138.89
-162.84
-184.21
-196.76
-195.65
-178.42
-145.00
-97.80
-42.19
13.76
60.67
93.27
109.73
112.56
107.65
102.92
106.07
121.48
148.65
181.93
216.49
247.48
271.90
289.02
300.48
308.98
315.87
320.76
301.95
246.57
156.29
49.63
-49.88
-128.17
-185.79
-232.46
-275.79
-320.14
-357.94
-378.12
-373.10
-343.59
-297.54
-243.64
-195.44
-163.62
-151.25
-150.93
-151.94
-145.99
-130.02
-104.02
-71.63
-37.80
-7.16
15.90
29.10
30.95
21.08
-4.37
-41.36
-82.18
-118.74
-146.85
-163.07
-163.91
-145.93
-110.46
-63.75
-13.52
30.61
59.12
68.33
62.10
48.55
35.04
25.29
20.42
23.48
36.07
59.19
92.39
132.72
174.20
209.31
231.95
231.40
205.74
161.84
112.70
71.03
43.34
28.29
19.90
12.13
2.03
-10.26
-23.45
-37.34
-53.25
-73.24
-99.03
-131.03
-168.72
-203.96
-232.05
-252.18
-266.19
-275.44
-278.24
-270.08
-245.99
-204.25
-148.54
-87.69
-31.49
12.70
41.65
55.55
55.70
43.60
21.57
-5.69
-31.47
-47.87
-49.40
-36.84
-14.51
10.49
31.75
46.08
54.35
59.35
64.20
70.25
76.83
82.48
85.97
87.60
89.30
93.78
102.60
115.25
128.58
137.97
139.53
131.51
115.12
93.78
71.50
50.17
31.44
16.17
5.01
-1.19
-1.88
2.53
10.34
18.93
25.75
29.60
30.76
30.60
30.72
31.83
33.39
34.00
32.24
27.38
19.92
11.22
3.03
-3.03
-5.94
-5.48
-2.12
3.08
8.69
13.09
14.60
11.83
4.11
-8.16
-23.44
-39.58
-54.63
-67.71
-79.35
-91.30
-105.56
-123.33
-144.32
-166.79
-188.13
-205.45
-216.26
-218.53
-210.90
-193.15
-166.73
-135.26
-104.02
-78.58
-62.65
-56.56
-57.15
-59.38
-58.69
-52.83
-41.99
-27.60
-10.95
7.23
25.96
42.99
54.76
57.96
51.65
38.52
24.32
15.37
15.89
26.37
43.94
63.92
81.76
94.43
100.75
101.56
99.27
97.33
99.11
106.64
119.79
136.40
153.52
168.91
182.01
193.66
205.09
216.72
227.68
236.24
240.66
240.16
235.08
226.69
216.40
205.21
193.34
180.38
165.79
149.35
131.60
113.76
97.35
83.54
72.77
64.80
59.10
55.45
54.18
56.07
61.88
71.71
84.46
97.71
108.07
111.86
106.22
89.91
63.84
30.83
-5.39
-41.33
-74.97
-106.15
-136.47
-168.45
-204.77
-247.32
-296.13
-348.58
-399.22
-441.03
-467.59
-475.32
-464.64
-439.66
-406.34
-370.33
-335.27
-302.25
-270.11
-236.42
-198.51
-154.61
-104.70
-50.90
2.91
52.31
93.80
125.79
148.48
162.76
169.23
167.95
159.16
144.26
125.95
107.57
91.86
80.10
72.16
67.09
64.12
63.07
64.45
69.21
78.50
93.11
112.95
136.32
159.75
178.58
188.41
186.77
174.06
153.29
128.64
103.44
78.92
54.20
27.36
-3.09
-37.46
-75.08
-115.00
-156.78
-200.66
-246.95
-294.89
-342.03
-384.07
-415.75
-432.27
-430.71
-410.64
-374.13
-325.23
-269.42
-212.87
-161.63
-120.40
-91.29
-73.12
-61.92
-52.72
-41.79
-28.18
-13.75
-1.46
6.88
12.00
16.90
25.03
38.01
54.64
71.38
84.29
90.96
91.35
87.40
81.86
76.85
73.30
71.25
70.45
70.86
72.73
76.15
80.75
85.50
89.20
91.04
91.10
90.43
90.61
93.08
98.48
106.33
115.07
122.59
126.92
126.95
122.83
115.78
107.64
100.09
94.19
90.25
88.19
87.93
89.68
93.60
99.28
105.29
109.31
108.88
102.47
90.29
74.18
56.88
40.81
27.23
16.01
6.19
-3.25
-12.79
-22.36
-31.68
-40.61
-49.28
-57.75
-65.57
-71.77
-75.23
-75.54
-73.63
-71.77
-72.67
-78.10
-88.02
-100.33
-111.94
-120.09
-123.41
-122.08
-117.12
-109.46
-99.37
-86.69
-71.42
-54.17
-36.29
-19.26
-4.10
8.92
20.12
29.77
37.64
43.03
45.31
44.53
41.75
38.53
35.85
33.16
28.36
18.82
3.09
-17.73
-40.01
-58.87
-70.33
-72.80
-67.40
-56.87
-43.98
-30.40
-16.48
-2.05
12.84
27.42
40.42
50.84
58.52
64.23
69.34
75.05
81.79
89.06
95.77
100.85
103.91
105.37
106.30
107.72
110.01
112.67
114.57
114.48
111.60
105.94
98.34
90.24
83.33
79.18
78.82
82.47
89.43
98.30
107.51
115.91
123.22
129.92
136.76
144.05
151.17
156.62
158.64
156.12
149.39
140.25
131.36
125.24
123.25
125.30
130.15
136.27
142.39
147.75
151.77
153.77
152.80
148.10
139.72
128.79
117.10
106.02
95.64
84.80
72.22
58.07
44.98
37.40
39.53
52.85
74.66
98.86
118.35
127.96
126.29
115.59
99.95
83.16
67.28
52.63
38.72
25.18
12.12
-0.22
-12.02
-24.24
-38.36
-55.54
-76.06
-99.10
-123.28
-147.31
-170.79
-194.29
-219.00
-246.00
-275.59
-307.19
-339.53
-371.30
-401.80
-431.25
-460.87
-492.82
-529.72
-573.67
-624.89
-680.32
-733.26
-774.72
-796.10
-792.41
-764.22
-717.40
-660.68
-602.34
-547.72
-498.67
-454.64
-414.59
-378.25
-346.05
-318.38
-294.70
-273.49
-252.89
-231.66
-209.68
-187.92
-167.90
-150.71
-136.51
-124.40
-112.81
-100.22
-85.74
-69.46
-52.28
-35.55
-20.37
-7.32
3.73
13.33
22.16
30.64
38.79
46.28
52.67
57.68
61.37
64.18
66.83
70.10
74.65
80.85
88.74
98.03
108.26
118.87
129.35
139.35
148.69
157.39
165.47
172.90
179.42
184.65
188.12
189.56
189.05
187.17
184.88
183.28
183.30
185.37
189.45
195.18
202.14
210.13
219.25
229.81
242.10
256.42
273.12
292.63
315.07
339.64
364.03
384.60
397.34
399.28
389.76
370.53
344.92
316.29
286.98
258.02
229.80
202.86
178.22
156.95
139.35
124.59
110.92
96.61
80.89
64.39
48.90
36.56
29.00
26.59
28.43
32.63
37.04
39.93
40.43
38.58
34.93
30.06
24.17
17.05
8.36
-1.94
-13.34
-24.88
-35.45
-44.12
-50.31
-53.75
-54.30
-51.95
-46.86
-39.61
-31.11
-22.30
-13.78
-5.47
3.22
12.91
23.62
34.49
43.92
50.23
52.35
50.21
44.73
37.38
29.71
22.97
17.93
14.84
13.58
13.76
14.86
16.36
17.77
18.60
18.39
16.75
13.66
9.62
5.59
2.54
0.82
-0.29
-2.34
-6.88
-14.46
-24.08
-33.39
-39.78
-41.47
-38.21
-31.29
-22.92
-15.46
-10.73
-9.63
-11.93
-16.26
-20.27
-21.21
-16.72
-5.55
11.90
33.36
54.92
71.57
78.40
72.29
53.59
26.94
0.28
-17.95
-22.20
-12.28
6.61
26.28
39.37
42.38
36.61
26.61
17.42
12.15
11.18
12.88
15.29
17.33
19.15
21.57
25.22
30.00
35.10
39.69
43.29
46.07
48.45
50.63
52.22
52.52
50.93
47.38
42.52
37.43
33.24
30.79
30.50
32.35
36.02
40.87
46.06
50.59
53.49
53.90
51.39
46.25
39.65
33.57
30.22
31.13
36.32
44.16
52.04
57.54
59.57
58.37
54.81
49.12
40.04
25.00
1.11
-33.73
-80.32
-138.21
-205.67
-279.26
-353.15
-418.76
-465.90
-485.45
-472.88
-430.96
-370.16
-305.82
-253.04
-221.45
-211.90
-216.66
-222.79
-217.26
-191.31
-142.52
-74.36
5.95
89.66
167.92
232.42
275.68
292.22
280.39
243.90
191.91
136.90
90.98
62.01
51.37
54.22
62.23
67.23
64.42
53.59
38.26
23.44
13.20
9.16
10.47
14.96
20.71
26.83
33.49
40.99
48.91
55.80
59.87
60.14
57.37
54.09
53.52
58.05
68.03
81.65
95.89
108.03
116.85
122.95
128.14
134.38
142.99
154.31
167.84
182.42
196.29
206.98
211.35
206.11
188.87
159.23
119.56
74.65
30.54
-7.20
-34.95
-51.72
-58.86
-59.04
-55.21
-49.79
-44.62
-41.06
-40.23
-42.83
-48.88
-57.45
-66.71
-74.50
-79.05
-79.65
-76.80
-71.90
-66.62
-62.22
-59.23
-57.52
-56.66
-56.25
-56.08
-56.17
-56.57
-57.30
-58.26
-59.23
-59.97
-60.28
-60.01
-59.15
-57.92
-56.68
-55.90
-55.95
-56.92
-58.64
-60.77
-62.99
-65.23
-67.64
-70.46
-73.81
-77.52
-81.15
-84.16
-86.15
-87.02
-87.05
-86.74
-86.60
-86.98
-87.93
-89.31
-90.84
-92.33
-93.73
-95.19
-96.96
-99.37
-102.74
-107.39
-113.69
-121.96
-132.39
-144.64
-157.45
-168.54
-174.97
-173.83
-163.33
-143.34
-115.37
-81.90
-45.42
-7.95
28.72
62.66
91.48
112.85
125.53
130.15
129.23
126.11
123.44
122.01
120.80
117.98
112.19
103.40
92.84
82.11
72.42
64.16
57.15
51.08
45.90
41.69
38.50
36.13
34.15
32.14
29.88
27.39
24.81
22.17
19.30
16.00
12.23
8.27
4.65
1.94
0.56
0.61
1.95
4.27
7.16
10.04
12.25
13.23
12.84
11.59
10.67
11.63
15.88
24.20
36.54
52.09
69.52
87.39
104.37
119.62
132.92
144.77
156.12
167.81
179.63
189.57
193.90
188.40
170.34
140.12
101.65
61.07
24.28
-5.20
-27.15
-43.78
-57.81
-70.67
-81.96
-90.15
-93.96
-93.51
-90.38
-86.86
-84.94
-85.50
-88.27
-92.14
-95.60
-97.06
-95.11
-88.73
-77.43
-61.49
-41.99
-20.55
0.98
21.10
38.86
54.03
67.03
78.61
89.55
100.12
109.80
117.21
120.47
117.93
108.88
94.04
75.39
55.52
36.85
21.00
8.62
-0.41
-6.70
-11.11
-14.67
-18.30
-22.67
-27.84
-33.18
-37.62
-40.05
-39.82
-36.94
-31.97
-25.67
-18.77
-11.90
-5.74
-1.13
1.17
0.70
-2.28
-6.97
-12.27
-17.34
-21.81
-25.70
-28.97
-31.22
-31.66
-29.46
-24.31
-16.74
-8.07
0.11
6.58
10.89
13.45
15.05
16.42
17.78
18.77
18.69
16.92
13.28
8.13
2.24
-3.56
-8.68
-12.91
-16.25
-18.70
-20.12
-20.14
-18.47
-15.18
-10.98
-7.14
-5.15
-6.18
-10.60
-17.77
-26.37
-34.82
-41.80
-46.44
-48.26
-47.11
-43.13
-36.93
-29.77
-23.53
-20.09
-20.48
-24.11
-28.83
-31.81
-30.96
-26.00
-18.61
-11.49
-7.00
-6.06
-7.99
-11.25
-14.45
-17.05
-19.36
-22.00
-25.28
-28.92
-32.19
-34.37
-35.05
-34.26
-32.33
-29.73
-26.90
-24.05
-21.17
-18.03
-14.30
-9.86
-4.92
-0.06
4.02
6.81
8.38
9.25
10.15
11.54
13.24
14.59
14.77
13.38
10.68
7.47
4.70
2.95
2.32
2.45
2.92
3.45
3.97
4.45
4.74
4.52
3.45
1.44
-1.26
-4.07
-6.32
-7.49
-7.40
-6.23
-4.43
-2.53
-0.95
0.07
0.60
0.81
0.96
1.18
1.47
1.76
1.96
2.08
2.20
2.40
2.76
3.30
4.07
5.12
6.50
8.10
9.58
10.43
10.11
8.31
5.14
1.14
-2.90
-6.29
-8.63
-9.93
-10.51
-10.74
-10.93
-11.18
-11.46
-11.62
-11.48
-10.74
-9.02
-5.88
-1.01
5.58
13.43
21.72
29.52
36.18
41.61
46.27
50.99
56.50
62.98
69.82
75.67
78.80
77.69
71.67
61.16
47.57
32.75
18.20
4.56
-8.48
-21.67
-35.59
-50.00
-63.72
-75.01
-82.27
-84.60
-82.14
-76.07
-68.40
-61.76
-59.01
-62.42
-72.63
-87.65
-102.75
-111.70
-109.06
-92.50
-64.07
-29.41
4.54
32.14
50.89
61.44
66.23
67.74
67.36
65.34
61.49
55.98
49.62
43.65
39.11
36.35
34.84
33.42
30.70
25.63
17.98
8.50
-1.28
-9.54
-14.78
-16.32
-14.47
-10.23
-4.87
0.46
4.97
8.12
9.43
8.44
4.84
-1.29
-9.31
-18.02
-26.03
-32.19
-35.97
-37.64
-38.02
-38.09
-38.64
-39.96
-41.82
-43.69
-44.89
-44.85
-43.24
-39.90
-34.93
-28.54
-21.10
-13.04
-4.82
3.14
10.55
17.30
23.35
28.68
33.19
36.66
38.86
39.65
39.17
37.80
36.11
34.59
33.50
32.77
32.08
31.08
29.58
27.62
25.43
23.33
21.52
20.13
19.12
18.35
17.42
15.77
12.75
7.98
1.64
-5.46
-12.11
-17.15
-19.92
-20.54
-19.70
-18.27
-16.85
-15.53
-13.96
-11.74
-8.68
-5.02
-1.30
1.87
4.13
5.56
6.58
7.79
9.71
12.63
16.49
21.05
25.97
30.93
35.67
40.00
43.71
46.67
48.79
50.04
50.41
49.93
48.72
47.01
45.25
44.00
43.82
45.09
47.81
51.59
55.56
58.54
59.22
56.41
49.41
38.22
23.69
7.32
-9.20
-24.43
-37.50
-48.11
-56.28
-62.04
-65.37
-66.34
-65.32
-63.10
-60.68
-58.88
-57.97
-57.56
-56.81
-54.82
-51.03
-45.49
-38.82
-31.94
-25.85
-21.35
-18.77
-17.91
-18.13
-18.49
-18.13
-16.53
-13.60
-9.69
-5.28
-0.87
3.13
6.39
8.59
9.49
9.04
7.51
5.53
3.87
3.26
4.03
6.16
9.33
13.12
17.18
21.29
25.22
28.75
31.66
33.83
35.33
36.38
37.28
38.19
39.05
39.61
39.57
38.66
36.76
33.85
29.93
24.97
18.95
11.99
4.38
-3.37
-10.68
-17.15
-22.65
-27.42
-31.82
-36.14
-40.31
-43.92
-46.38
-47.19
-46.19
-43.59
-39.90
-35.66
-31.23
-26.72
-22.01
-16.94
-11.42
-5.54
0.44
6.22
11.51
16.18
20.16
23.44
25.98
27.70
28.53
28.45
27.59
26.20
24.60
23.07
21.87
21.11
20.79
20.86
21.20
21.69
22.23
22.75
23.19
23.48
23.49
23.10
22.21
20.77
18.88
16.74
14.63
12.84
11.54
10.80
10.54
10.63
10.94
11.40
11.92
12.38
12.57
12.26
11.31
9.81
8.04
6.37
5.04
4.02
3.04
1.77
0.05
-2.03
-4.14
-5.92
-7.19
-7.97
-8.42
-8.70
-8.86
-8.80
-8.42
-7.67
-6.59
-5.35
-4.08
-2.88
-1.78
-0.75
0.21
1.08
1.84
2.39
2.69
2.70
2.42
1.89
1.16
0.26
-0.81
-2.05
-3.55
-5.31
-7.29
-9.39
-11.37
-13.02
-14.19
-14.89
-15.25
-15.49
-15.77
-16.07
-16.23
-15.93
-14.91
-13.03
-10.33
-7.03
-3.36
0.49
4.45
8.45
12.33
15.80
18.51
20.14
20.63
20.25
19.53
19.08
19.37
20.53
22.42
24.68
26.90
28.69
29.64
29.33
27.41
23.71
18.41
12.14
5.76
0.13
-4.19
-7.05
-8.61
-9.15
-8.88
-7.89
-6.27
-4.16
-1.81
0.58
2.92
5.37
8.13
11.29
14.59
17.35
18.73
18.06
15.25
11.02
6.72
3.88
3.67
6.34
11.14
16.68
21.50
24.77
26.67
28.41
31.85
38.93
51.02
68.43
89.88
112.48
132.01
143.92
144.73
133.28
111.25
82.63
52.22
24.04
0.24
-18.84
-33.96
-45.92
-55.08
-61.56
-65.81
-68.97
-72.70
-78.44
-86.58
-96.20
-105.38
-112.01
-114.69
-113.20
-108.43
-101.89
-95.14
-89.19
-84.18
-79.29
-72.97
-63.46
-49.59
-31.52
-11.14
8.29
23.21
31.15
31.80
27.20
20.81
16.03
14.84
17.36
22.17
27.29
30.94
31.87
29.24
22.60
12.09
-1.17
-15.05
-27.03
-35.28
-39.59
-41.54
-43.52
-47.40
-53.38
-60.01
-65.06
-66.84
-65.01
-60.45
-54.56
-48.32
-41.96
-35.21
-27.95
-20.63
-14.23
-9.83
-8.00
-8.58
-10.71
-13.20
-15.03
-15.60
-14.80
-12.93
-10.45
-7.93
-5.88
-4.76
-4.86
-6.24
-8.70
-11.88
-15.33
-18.67
-21.54
-23.57
-24.25
-23.10
-19.82
-14.64
-8.37
-2.33
2.10
3.96
3.07
0.06
-3.84
-7.33
-9.49
-10.00
-9.10
-7.26
-4.88
-2.10
1.13
4.78
8.50
11.60
13.46
13.82
13.21
12.72
13.58
16.55
21.58
27.88
34.33
39.98
44.33
47.28
48.93
49.43
48.92
47.68
46.13
44.78
44.02
43.84
43.79
43.15
41.30
37.91
33.07
27.10
20.37
13.20
5.84
-1.33
-7.83
-13.19
-17.23
-20.23
-22.97
-26.38
-31.18
-37.48
-44.70
-51.75
-57.35
-60.48
-60.56
-57.62
-52.16
-44.92
-36.75
-28.36
-20.31
-12.99
-6.50
-0.71
4.73
10.33
16.48
23.21
30.08
36.28
40.88
43.24
43.19
41.09
37.70
33.83
30.12
26.91
24.15
21.57
18.83
15.81
12.68
9.88
7.96
7.27
7.90
9.59
11.97
14.65
17.34
19.82
21.89
23.34
24.01
23.92
23.31
22.54
21.94
21.62
21.42
20.97
19.89
17.94
14.99
10.98
5.83
-0.50
-7.90
-15.93
-23.79
-30.60
-35.72
-39.03
-40.94
-42.12
-43.05
-43.74
-43.76
-42.56
-39.81
-35.66
-30.71
-25.67
-21.19
-17.62
-15.14
-13.75
-13.43
-13.95
-14.95
-15.84
-16.04
-15.12
-12.92
-9.56
-5.33
-0.51
4.62
9.74
14.48
18.43
21.31
23.01
23.65
23.41
22.47
20.87
18.54
15.41
11.51
7.03
2.26
-2.42
-6.64
-10.09
-12.53
-13.90
-14.26
-13.80
-12.66
-10.93
-8.58
-5.65
-2.33
0.98
3.72
5.41
5.78
4.94
3.23
1.18
-0.70
-1.95
-2.18
-1.12
1.26
4.67
8.44
11.71
13.70
14.06
13.01
11.20
9.34
7.87
6.79
5.70
4.19
2.08
-0.38
-2.68
-4.25
-4.71
-3.99
-2.31
-0.04
2.40
4.60
6.18
6.78
6.24
4.58
2.13
-0.64
-3.25
-5.43
-7.14
-8.63
-10.15
-11.85
-13.70
-15.47
-16.88
-17.64
-17.54
-16.49
-14.61
-12.30
-10.20
-9.05
-9.37
-11.19
-13.92
-16.54
-17.99
-17.59
-15.24
-11.36
-6.62
-1.62
3.21
7.59
11.32
14.17
15.98
16.72
16.60
15.96
15.17
14.41
13.56
12.38
10.64
8.39
6.00
4.03
2.97
3.01
4.04
5.68
7.50
9.19
10.60
11.72
12.56
13.07
13.12
12.57
11.31
9.36
6.82
3.82
0.47
-3.16
-7.02
-10.89
-14.36
-16.80
-17.50
-15.94
-11.95
-5.90
1.34
8.58
14.44
17.74
17.78
14.61
9.04
2.43
-3.76
-8.44
-11.19
-12.21
-12.03
-11.10
-9.67
-7.81
-5.63
-3.50
-1.98
-1.66
-2.84
-5.40
-8.79
-12.29
-15.21
-17.04
-17.62
-17.00
-15.36
-12.96
-10.00
-6.69
-3.26
0.07
3.02
5.37
6.95
7.72
7.82
7.44
6.82
6.15
5.52
4.88
4.11
3.06
1.68
0.07
-1.52
-2.66
-2.94
-2.05
0.07
3.24
7.05
10.91
14.28
16.76
18.18
18.65
18.47
18.02
17.61
17.36
17.13
16.61
15.48
13.55
10.91
7.85
4.85
2.33
0.58
-0.29
-0.32
0.40
1.80
3.82
6.44
9.62
13.27
17.26
21.44
25.63
29.62
33.13
35.82
37.34
37.41
36.01
33.39
29.99
26.34
22.80
19.47
16.22
12.81
9.12
5.22
1.41
-1.89
-4.33
-5.73
-6.17
-5.93
-5.37
-4.84
-4.53
-4.48
-4.58
-4.76
-5.06
-5.66
-6.76
-8.45
-10.64
-13.04
-15.30
-17.25
-18.92
-20.53
-22.32
-24.39
-26.63
-28.72
-30.24
-30.78
-30.03
-27.82
-24.20
-19.34
-13.65
-7.66
-1.99
2.70
5.88
7.28
6.94
5.13
2.28
-1.14
-4.68
-7.96
-10.66
-12.63
-13.79
-14.27
-14.33
-14.23
-14.09
-13.86
-13.27
-12.07
-10.09
-7.18
-3.43
0.92
5.45
9.63
13.03
15.34
16.52
16.71
16.60
16.73
17.32
18.27
19.48
21.05
23.42
27.00
31.75
37.91
45.08
52.37
58.74
63.44
66.36
67.98
69.04
70.08
72.88
78.80
88.43
101.18
115.38
128.88
139.95
148.02
154.15
162.78
178.53
204.00
238.05
275.79
310.58
336.67
351.27
342.62
305.22
239.76
153.91
59.61
-31.63
-111.95
-177.58
-227.84
-263.92
-286.07
-294.98
-291.85
-278.79
-259.00
-236.58
-215.79
-200.15
-191.59
-188.29
-186.72
-183.10
-175.23
-163.19
-148.80
-134.33
-121.41
-110.54
-100.44
-89.78
-78.09
-66.01
-54.94
-46.04
-39.71
-35.38
-32.00
-28.15
-22.76
-15.38
-6.14
4.20
14.41
22.89
28.06
28.92
25.79
20.22
14.47
10.56
9.05
9.24
9.60
8.67
5.70
0.98
-4.45
-9.24
-12.15
-12.22
-8.84
-2.10
6.96
16.40
23.82
27.21
25.59
19.50
10.59
1.10
-7.05
-12.63
-15.33
-15.20
-12.47
-7.40
-0.20
8.84
19.35
30.75
42.20
52.32
59.66
63.15
62.58
58.79
53.51
48.63
45.59
44.86
45.85
47.86
50.52
54.15
59.35
66.44
74.89
82.98
89.98
93.97
93.32
87.35
76.60
62.53
46.90
31.12
16.01
1.95
-10.96
-22.11
-30.47
-35.21
-36.20
-34.41
-31.67
-29.92
-30.56
-34.35
-41.15
-50.08
-59.49
-66.96
-69.71
-65.53
-53.87
-36.51
-17.29
-0.35
11.45
17.63
19.67
19.68
18.99
17.66
14.97
10.56
5.15
0.47
-1.75
-0.70
3.16
8.46
13.66
17.45
19.12
18.50
15.86
11.86
7.39
3.33
0.18
-2.15
-4.27
-6.87
-10.36
-14.61
-19.12
-23.36
-27.12
-30.52
-33.90
-37.50
-41.26
-44.91
-48.15
-50.86
-53.27
-55.90
-59.24
-63.49
-68.27
-72.88
-76.56
-79.18
-81.39
-84.50
-89.82
-97.98
-108.38
-119.35
-128.79
-134.87
-136.71
-134.37
-128.68
-120.75
-111.71
-102.48
-93.77
-85.97
-79.05
-72.68
-66.22
-59.05
-50.85
-41.72
-32.26
-23.39
-16.10
-11.14
-8.92
-9.34
-11.86
-15.69
-19.93
-23.80
-26.65
-28.05
-27.67
-25.33
-21.02
-14.93
-7.48
0.75
9.04
16.65
22.80
26.84
28.31
27.11
23.66
18.90
14.13
10.72
9.75
11.81
16.87
24.28
32.94
41.42
48.23
52.14
52.45
49.23
43.24
35.67
27.80
20.80
15.54
12.64
12.57
15.57
21.66
30.42
40.85
51.47
60.50
66.32
67.86
64.91
58.14
48.82
38.36
27.98
18.40
9.96
3.01
-1.88
-3.83
-2.03
4.01
14.16
27.81
44.17
62.33
81.33
99.88
116.35
128.79
135.34
134.61
126.19
110.82
90.47
67.97
46.47
28.68
16.18
9.08
6.06
5.00
3.80
1.10
-3.64
-10.43
-19.17
-29.91
-42.65
-56.85
-71.29
-84.22
-94.02
-99.80
-101.72
-100.80
-98.25
-94.89
-90.86
-85.83
-79.56
-72.35
-65.11
-58.93
-54.44
-51.52
-49.31
-46.77
-43.29
-39.00
-34.69
-31.41
-29.93
-30.46
-32.61
-35.66
-38.90
-41.96
-44.83
-47.81
-51.33
-55.66
-61.00
-67.44
-74.94
-83.14
-90.98
-96.68
-97.97
-92.94
-81.08
-63.77
-44.15
-26.12
-12.97
-6.33
-5.83
-9.52
-14.81
-19.51
-22.21
-22.32
-19.53
-13.50
-3.68
10.26
27.91
47.74
67.24
83.54
94.44
99.06
98.02
92.82
85.03
75.65
65.12
53.71
42.13
31.76
24.39
21.48
23.42
29.25
36.78
43.32
46.64
45.66
40.70
33.08
24.46
16.20
9.17
3.90
0.87
0.68
3.80
10.16
18.79
27.95
35.59
40.20
41.29
39.55
36.34
32.99
30.25
28.07
25.90
23.14
19.58
15.45
11.36
7.87
5.25
3.41
2.01
0.73
-0.53
-1.55
-1.97
-1.49
-0.03
2.19
4.75
7.28
9.55
11.54
13.34
14.99
16.42
17.43
17.82
17.58
16.92
16.24
16.00
16.48
17.69
19.36
21.07
22.49
23.48
24.15
24.74
25.40
26.08
26.47
26.17
24.80
22.26
18.73
14.68
10.67
7.27
4.96
3.98
4.33
5.71
7.57
9.28
10.26
10.14
8.88
6.69
3.97
1.14
-1.45
-3.59
-5.25
-6.52
-7.53
-8.34
-8.86
-8.88
-8.24
-6.96
-5.45
-4.38
-4.51
-6.29
-9.68
-14.20
-19.05
-23.48
-26.93
-29.12
-29.83
-28.92
-26.22
-21.73
-15.75
-9.02
-2.58
2.38
4.98
4.87
2.40
-1.57
-5.92
-9.64
-12.00
-12.60
-11.31
-8.24
-3.83
1.06
5.10
6.86
5.29
0.25
-7.25
-15.36
-22.06
-25.91
-26.49
-24.28
-20.31
-15.71
-11.49
-8.52
-7.54
-8.98
-12.74
-17.98
-23.27
-26.95
-27.68
-24.93
-18.90
-10.39
-0.51
9.55
18.68
25.86
30.38
32.07
31.36
29.27
27.02
25.75
26.21
28.65
32.92
38.36
43.86
47.90
49.00
46.21
39.74
31.03
22.38
16.01
13.26
14.24
17.99
23.02
27.79
30.99
31.65
29.19
23.64
15.88
7.61
0.94
-2.32
-1.22
4.13
12.80
23.45
34.71
45.35
54.33
60.91
64.93
66.88
67.81
68.90
70.97
74.19
78.15
82.29
86.31
90.32
94.61
99.31
104.17
108.56
111.92
114.06
115.44
116.91
119.29
122.88
127.18
131.09
133.34
133.01
129.73
123.50
114.31
101.94
86.00
66.37
43.59
18.84
-6.43
-31.15
-55.00
-78.26
-101.04
-122.68
-141.58
-155.80
-164.02
-166.30
-164.07
-159.38
-153.88
-148.08
-141.44
-132.92
-121.80
-108.03
-92.24
-75.32
-58.16
-41.55
-26.34
-13.32
-2.97
4.90
11.36
18.07
26.59
37.57
50.36
63.08
73.15
78.21
76.80
68.86
55.77
39.97
24.23
10.74
0.49
-7.04
-13.43
-20.51
-29.49
-40.46
-52.59
-64.68
-75.84
-85.70
-94.36
-101.94
-108.43
-113.63
-117.32
-119.34
-119.66
-118.23
-115.03
-110.11
-103.73
-96.49
-89.16
-82.50
-77.01
-72.88
-69.98
-67.91
-66.08
-63.76
-60.22
-55.00
-48.11
-40.13
-31.95
-24.51
-18.40
-13.83
-10.67
-8.68
-7.68
-7.56
-8.27
-9.71
-11.72
-14.10
-16.59
-18.88
-20.55
-21.20
-20.50
-18.43
-15.33
-11.90
-8.98
-7.30
-7.12
-8.19
-9.84
-11.36
-12.30
-12.61
-12.54
-12.31
-11.85
-10.82
-8.85
-5.81
-1.98
2.07
5.77
8.82
11.26
13.29
15.08
16.62
17.77
18.39
18.40
17.82
16.69
15.09
13.15
11.20
9.80
9.63
11.22
14.69
19.63
25.15
30.16
33.72
35.28
34.88
33.11
30.89
29.24
28.89
30.09
32.49
35.28
37.60
38.97
39.62
40.56
43.35
49.53
59.98
74.40
91.05
106.97
118.68
123.23
119.06
106.47
87.43
64.87
41.83
20.69
2.97
-10.66
-20.12
-25.73
-28.09
-28.06
-26.52
-24.16
-21.45
-18.63
-15.99
-14.11
-13.91
-16.37
-21.99
-30.47
-40.64
-50.92
-59.79
-66.33
-70.35
-72.18
-72.32
-71.15
-68.97
-66.05
-62.86
-59.99
-57.92
-56.84
-56.43
-56.00
-54.77
-52.17
-48.05
-42.73
-36.78
-30.79
-25.15
-19.97
-15.14
-10.47
-5.98
-1.92
1.23
3.03
3.25
1.99
-0.37
-3.28
-6.23
-8.85
-10.97
-12.48
-13.33
-13.47
-12.98
-12.22
-11.83
-12.48
-14.38
-16.92
-18.53
-17.17
-11.12
0.13
15.52
32.60
48.27
59.76
65.21
64.01
56.65
44.51
29.48
13.76
-0.37
-10.88
-16.17
-15.44
-8.87
2.28
15.85
29.21
39.89
46.23
47.84
45.53
40.89
35.68
31.26
28.41
27.36
28.11
30.57
34.64
40.10
46.53
53.28
59.64
64.95
68.83
71.20
72.31
72.47
71.90
70.61
68.49
65.33
61.12
56.07
50.52
44.82
39.06
33.07
26.52
19.10
10.72
1.53
-8.14
-17.93
-27.59
-36.92
-45.72
-53.76
-60.74
-66.32
-70.26
-72.45
-72.94
-72.00
-70.04
-67.56
-65.07
-62.97
-61.46
-60.51
-59.91
-59.41
-58.75
-57.80
-56.42
-54.48
-51.88
-48.58
-44.72
-40.62
-36.74
-33.52
-31.19
-29.69
-28.65
-27.58
-26.14
-24.34
-22.61
-21.72
-22.42
-25.16
-29.86
-35.85
-42.14
-47.58
-51.08
-51.56
-48.10
-40.07
-27.48
-11.33
6.50
23.62
37.92
48.31
54.95
58.93
61.54
63.72
65.61
66.89
67.14
66.29
64.72
63.07
61.89
61.33
61.15
60.87
60.06
58.49
56.09
52.80
48.34
42.28
34.15
23.96
12.28
0.33
-10.42
-18.79
-24.29
-27.27
-28.63
-29.47
-30.56
-32.19
-34.21
-36.27
-37.97
-38.96
-39.09
-38.29
-36.71
-34.65
-32.65
-31.35
-31.46
-33.52
-37.63
-43.29
-49.32
-54.08
-55.96
-53.97
-48.12
-39.51
-29.89
-21.04
-14.17
-9.64
-7.02
-5.44
-3.94
-1.78
1.52
6.14
11.96
18.56
25.30
31.42
36.19
39.11
39.96
38.82
36.06
32.27
28.14
24.41
21.59
19.83
18.86
18.05
16.71
14.31
10.68
6.02
0.76
-4.61
-9.58
-13.69
-16.48
-17.57
-16.76
-14.14
-10.17
-5.44
-0.50
4.50
9.83
16.06
23.60
32.32
41.47
49.85
56.33
60.32
61.97
61.97
61.16
60.01
58.43
55.86
51.75
45.92
38.80
31.34
24.63
19.44
15.96
13.86
12.50
11.38
10.40
9.83
10.12
11.53
13.95
16.91
19.79
22.21
24.13
25.92
28.15
31.36
35.83
41.50
48.01
54.91
61.72
68.02
73.47
77.73
80.51
81.67
81.22
79.40
76.58
73.09
69.14
64.80
60.06
54.91
49.46
43.81
37.96
31.71
24.77
16.84
7.90
-1.82
-11.82
-21.54
-30.54
-38.63
-45.84
-52.30
-58.16
-63.52
-68.31
-72.36
-75.42
-77.23
-77.59
-76.52
-74.19
-71.04
-67.56
-64.21
-61.27
-58.76
-56.54
-54.41
-52.28
-50.17
-48.23
-46.57
-45.19
-43.96
-42.69
-41.33
-39.96
-38.89
-38.36
-38.52
-39.24
-40.21
-41.15
-41.89
-42.56
-43.37
-44.47
-45.82
-47.06
-47.74
-47.35
-45.63
-42.57
-38.43
-33.56
-28.28
-22.80
-17.28
-11.84
-6.66
-1.98
1.98
5.10
7.44
9.21
10.66
11.96
13.08
13.92
14.34
14.27
13.75
12.86
11.55
9.69
7.05
3.50
-0.89
-5.79
-10.67
-15.00
-18.39
-20.69
-21.96
-22.39
-22.23
-21.62
-20.59
-19.01
-16.67
-13.46
-9.38
-4.64
0.42
5.49
10.28
14.64
18.46
21.70
24.32
26.36
27.91
29.15
30.23
31.26
32.29
33.24
34.04
34.56
34.70
34.39
33.67
32.67
31.67
30.87
30.34
29.95
29.42
28.49
27.04
25.25
23.46
22.09
21.44
21.62
22.52
23.87
25.38
26.83
28.09
29.14
30.02
30.71
31.14
31.21
30.87
30.18
29.35
28.57
27.99
27.56
27.10
26.46
25.61
24.69
23.96
23.56
23.45
23.41
23.20
22.72
22.12
21.68
21.65
22.04
22.59
22.91
22.64
21.69
20.25
18.77
17.68
17.25
17.48
18.13
18.90
19.57
20.05
20.39
20.63
20.71
20.48
19.77
18.46
16.67
14.59
12.43
10.22
7.89
5.23
2.08
-1.52
-5.32
-8.93
-11.97
-14.14
-15.45
-16.08
-16.41
-16.78
-17.41
-18.37
-19.58
-20.94
-22.36
-23.76
-25.08
-26.19
-26.98
-27.40
-27.50
-27.43
-27.42
-27.59
-27.92
-28.28
-28.56
-28.74
-28.99
-29.66
-31.10
-33.49
-36.74
-40.50
-44.34
-47.81
-50.64
-52.76
-54.20
-54.97
-55.02
-54.25
-52.47
-49.55
-45.42
-40.02
-33.36
-25.56
-16.97
-8.08
0.63
8.91
16.69
23.96
30.36
35.00
36.66
34.17
27.16
16.31
3.31
-9.80
-21.28
-30.33
-37.11
-42.39
-47.06
-51.62
-56.05
-59.95
-62.84
-64.42
-64.75
-64.24
-63.43
-62.73
-62.23
-61.75
-60.94
-59.54
-57.47
-54.82
-51.77
-48.37
-44.57
-40.26
-35.42
-30.19
-24.85
-19.72
-15.01
-10.80
-7.02
-3.56
-0.29
2.88
6.07
9.39
12.86
16.35
19.54
22.07
23.62
24.12
23.74
22.87
21.92
21.18
20.80
20.69
20.73
20.75
20.66
20.49
20.30
20.21
20.28
20.47
20.67
20.74
20.61
20.28
19.87
19.52
19.34
19.40
19.69
20.22
21.02
22.12
23.58
25.45
27.77
30.55
33.78
37.42
41.42
45.69
50.07
54.20
57.56
59.35
58.67
54.71
46.95
35.44
20.76
4.03
-13.26
-29.43
-42.90
-52.52
-57.96
-59.89
-59.67
-58.80
-57.99
-56.59
-52.44
-42.60
-24.56
2.41
36.35
72.71
105.50
129.21
140.60
139.83
130.09
116.29
103.17
93.79
89.02
87.87
88.39
88.39
86.03
79.91
69.39
54.76
37.35
19.26
2.59
-11.36
-22.65
-32.62
-43.09
-55.50
-70.25
-86.77
-103.89
-120.60
-136.22
-150.36
-162.51
-171.72
-176.61
-175.69
-167.97
-153.26
-132.33
-106.61
-77.94
-48.36
-19.96
5.20
25.36
39.56
48.07
52.46
55.07
58.10
62.47
67.36
70.69
70.28
65.23
56.68
47.55
41.22
40.06
44.36
52.36
61.23
68.50
73.01
74.93
75.10
74.05
71.55
66.73
58.77
47.56
34.01
19.72
6.41
-4.71
-13.21
-19.39
-23.93
-27.49
-30.49
-33.09
-35.30
-37.23
-39.25
-41.94
-46.07
-52.14
-60.22
-69.69
-79.44
-88.09
-94.55
-98.21
-99.00
-97.33
-93.74
-88.86
-83.30
-77.74
-72.92
-69.45
-67.70
-67.66
-69.00
-71.18
-73.68
-76.03
-77.81
-78.59
-78.08
-76.27
-73.58
-70.60
-67.61
-64.21
-59.16
-50.95
-38.64
-22.57
-4.55
12.79
26.94
36.45
41.19
42.04
40.21
36.68
32.15
27.13
22.29
18.44
16.33
16.27
17.96
20.51
22.84
24.05
23.74
22.05
19.41
16.36
13.34
10.63
8.38
6.67
5.54
4.97
4.97
5.53
6.68
8.38
10.58
13.07
15.53
17.68
19.37
20.67
21.79
22.89
24.04
25.14
26.02
26.55
26.78
26.87
27.00
27.32
27.86
28.52
29.18
29.70
29.95
29.85
29.40
28.66
27.75
26.80
25.90
25.02
24.10
23.05
21.87
20.60
19.28
17.86
16.15
13.92
11.08
7.78
4.54
1.95
0.53
0.37
1.10
2.01
2.39
1.87
0.50
-1.28
-2.92
-4.10
-4.75
-4.98
-4.88
-4.50
-3.79
-2.86
-2.03
-1.78
-2.54
-4.41
-7.18
-10.34
-13.38
-15.98
-18.04
-19.53
-20.34
-20.19
-18.79
-16.05
-12.14
-7.52
-2.71
1.84
5.98
9.74
13.22
16.42
19.18
21.23
22.26
22.14
20.92
18.86
16.32
13.68
11.24
9.22
7.76
6.87
6.51
6.59
7.00
7.55
8.06
8.33
8.16
7.36
5.81
3.52
0.70
-2.27
-4.90
-6.73
-7.47
-7.11
-5.88
-4.06
-1.89
0.54
3.27
6.32
9.55
12.62
15.04
16.35
16.31
14.94
12.57
9.70
6.91
4.62
3.06
2.13
1.53
0.86
-0.20
-1.71
-3.50
-5.17
-6.43
-7.18
-7.61
-8.08
-8.93
-10.20
-11.57
-12.45
-12.23
-10.56
-7.44
-3.28
1.24
5.50
9.07
11.92
14.35
16.82
19.72
23.13
26.76
30.06
32.59
34.27
35.59
37.41
40.59
45.36
51.21
56.96
61.26
63.44
63.69
62.84
61.51
59.41
55.49
48.82
39.64
29.52
20.44
12.89
5.06
-6.45
-24.22
-47.55
-71.71
-90.07
-97.93
-95.53
-88.44
-84.50
-89.07
-101.56
-115.26
-120.89
-111.89
-88.24
-56.86
-28.82
-14.60
-20.14
-46.02
-88.73
-143.21
-204.24
-266.37
-322.68
-364.19
-381.64
-369.07
-327.67
-266.86
-201.55
-146.42
-110.02
-91.82
-83.77
-74.94
-57.01
-27.61
9.79
48.61
82.70
108.79
126.85
138.86
146.94
152.05
154.04
152.43
147.35
139.96
132.22
125.86
121.43
117.97
113.64
106.81
97.16
85.96
75.62
68.46
65.70
66.93
70.51
74.32
76.69
76.93
75.33
72.75
70.17
68.26
67.35
67.55
68.96
71.79
76.30
82.58
90.36
98.92
107.19
114.03
118.53
120.20
119.08
115.61
110.41
104.11
97.23
90.10
82.99
76.14
69.71
63.80
58.35
53.02
47.39
41.09
34.01
26.37
18.64
11.33
4.74
-1.12
-6.47
-11.53
-16.35
-20.74
-24.39
-27.03
-28.54
-29.03
-28.74
-27.90
-26.69
-25.26
-23.73
-22.21
-20.81
-19.59
-18.54
-17.52
-16.32
-14.59
-12.03
-8.43
-3.90
1.15
6.00
9.90
12.33
13.19
12.80
11.79
10.85
10.47
10.84
11.78
12.81
13.35
12.82
10.95
7.72
3.56
-0.97
-5.21
-8.66
-11.03
-12.24
-12.39
-11.58
-9.95
-7.59
-4.61
-1.15
2.53
6.02
8.90
10.81
11.55
11.19
9.97
8.21
6.22
4.32
2.81
1.97
1.93
2.58
3.55
4.24
4.15
3.00
0.98
-1.40
-3.50
-4.85
-5.34
-5.21
-4.92
-4.84
-5.04
-5.29
-5.10
-4.09
-2.13
0.52
3.24
5.40
6.61
6.98
6.99
7.28
8.27
9.97
12.03
13.93
15.32
16.18
16.66
16.85
16.64
15.65
13.60
10.55
7.08
4.10
2.45
2.51
3.99
6.19
8.29
9.75
10.45
10.68
10.85
11.35
12.36
13.89
15.88
18.32
21.29
24.95
29.44
34.79
40.84
47.33
53.98
60.54
66.81
72.61
77.66
81.61
84.14
85.08
84.54
82.94
80.87
78.95
77.66
77.23
77.72
79.10
81.30
84.19
87.58
91.15
94.61
97.83
100.93
104.16
107.57
110.66
112.27
110.81
104.81
93.49
77.13
57.06
35.33
14.34
-3.53
-16.24
