1607561446.00
64.000000
-0.00
-0.00
-0.00
-0.00
-0.00
-0.00
-0.00
-0.00
-0.00
-0.00
0.00
0.01
0.01
-0.00
-0.03
-0.05
-0.05
0.00
0.13
0.36
0.66
1.01
1.37
1.72
2.06
2.40
2.79
3.24
3.80
4.42
5.06
5.66
6.20
6.68
7.15
7.68
8.31
9.14
10.09
11.04
11.88
12.56
13.14
13.76
14.65
15.96
17.91
20.32
22.90
25.38
27.58
29.57
31.68
34.32
37.81
42.54
48.15
54.10
59.83
64.97
69.58
74.14
79.34
85.71
93.76
103.00
112.62
121.73
129.77
136.75
143.30
150.75
157.77
166.64
177.95
191.79
206.97
220.57
228.25
225.36
208.53
176.87
132.76
80.05
23.07
-34.94
-92.44
-149.16
-205.23
-260.37
-313.74
-363.87
-409.83
-450.91
-486.51
-515.75
-537.23
-549.21
-549.92
-538.31
-514.15
-478.68
-433.99
-382.71
-327.43
-270.37
-213.22
-157.25
-103.50
-52.88
-6.43
34.97
70.67
100.44
124.47
143.32
157.72
168.32
175.67
180.05
181.70
180.87
177.92
173.34
167.64
161.24
154.35
147.03
139.22
130.91
122.23
113.50
105.10
97.35
90.32
83.77
77.29
70.42
62.97
55.08
47.29
40.26
34.52
30.15
26.71
23.40
19.40
14.29
8.25
2.05
-3.32
-7.13
-9.15
-9.86
-10.12
-10.89
-12.93
-16.80
-22.66
-29.90
-36.77
-40.44
-37.76
-26.72
-7.73
15.97
39.38
57.64
67.97
70.42
67.34
61.86
56.59
52.88
50.71
49.20
46.86
41.98
33.21
20.39
5.03
-10.00
-21.77
-28.52
-29.71
-25.50
-15.92
-0.54
20.69
46.19
72.31
93.89
106.23
106.94
96.88
79.40
58.81
39.01
21.94
8.45
-1.30
-7.36
-9.97
-9.91
-8.69
-8.28
-10.59
-16.67
-26.11
-37.14
-47.46
-55.36
-60.48
-64.06
-67.99
-73.51
-80.32
-86.20
-88.14
-83.75
-72.73
-57.37
-42.40
-33.22
-33.30
-42.25
-55.04
-63.80
-60.69
-41.82
-8.99
30.47
67.39
94.69
110.12
116.51
119.01
122.84
130.75
143.49
159.91
178.34
196.67
211.48
218.37
212.18
190.52
152.70
105.92
59.92
22.79
-2.26
-16.21
-22.44
-26.28
-31.56
-41.02
-55.37
-74.13
-95.59
-113.30
-123.91
-126.04
-125.99
-126.13
-128.67
-135.25
-147.34
-165.69
-189.87
-218.45
-239.07
-242.51
-221.68
-175.83
-111.00
-38.31
30.57
87.99
132.01
165.64
191.39
209.62
216.20
205.34
173.84
124.58
66.74
12.07
-29.64
-55.52
-68.31
-74.70
-80.77
-88.91
-97.41
-102.77
-102.50
-96.96
-89.85
-85.28
-86.22
-93.43
-105.70
-120.62
-135.31
-146.39
-149.95
-142.48
-121.91
-89.23
-48.89
-7.80
27.15
51.38
63.86
66.61
62.91
55.70
46.90
37.57
28.53
20.56
14.04
8.59
3.14
-3.47
-11.57
-20.48
-28.68
-34.82
-38.67
-41.30
-44.63
-49.77
-55.92
-60.47
-60.00
-52.00
-36.52
-16.08
5.68
26.17
44.94
63.06
80.93
97.03
108.15
111.59
107.68
100.12
93.55
90.01
86.87
78.61
61.38
37.44
15.59
6.58
15.98
39.10
62.13
69.44
52.85
17.20
-21.49
-44.59
-40.82
-12.74
24.33
50.40
51.09
24.91
-16.17
-53.14
-69.49
-58.94
-28.03
8.01
33.12
37.89
23.06
-2.37
-26.82
-41.71
-44.78
-39.24
-30.62
-23.34
-18.97
-17.12
-17.03
-18.81
-23.27
-30.59
-38.99
-44.97
-44.88
-37.21
-23.87
-9.40
1.44
6.66
7.04
7.04
11.59
22.58
37.64
52.01
61.89
66.49
67.75
67.70
66.56
62.64
54.29
42.42
30.46
22.08
18.13
16.09
12.68
7.44
3.85
6.68
17.26
30.73
38.15
32.66
15.65
-2.83
-9.82
1.53
26.59
51.38
61.40
51.26
28.51
8.74
5.17
20.04
43.20
59.04
57.04
38.61
15.81
2.89
6.68
22.53
37.91
41.26
29.43
9.03
-8.74
-15.95
-12.68
-5.58
-2.43
-6.52
-15.16
-22.75
-25.35
-23.52
-20.97
-20.98
-23.45
-25.53
-24.71
-21.85
-20.92
-25.47
-34.79
-43.16
-43.57
-33.29
-17.16
-5.37
-6.36
-20.46
-38.40
-46.92
-37.73
-13.58
12.94
27.47
23.43
5.93
-12.08
-18.64
-10.23
7.00
22.50
29.06
27.21
23.33
23.72
29.27
34.60
32.30
18.94
-1.62
-19.62
-25.26
-14.79
6.75
27.79
36.34
26.59
2.15
-25.49
-42.63
-40.41
-19.32
10.96
36.21
44.76
32.89
6.56
-21.97
-40.21
-41.58
-28.08
-8.64
5.76
7.66
-3.35
-21.01
-35.91
-40.19
-31.52
-13.99
4.09
14.38
12.85
1.89
-10.86
-16.67
-10.85
4.03
19.18
24.37
14.25
-7.67
-30.19
-40.38
-31.23
-6.50
20.94
36.06
30.29
6.14
-24.01
-44.82
-46.23
-28.48
-1.47
21.04
28.74
19.69
0.60
-17.20
-23.94
-16.38
0.77
17.74
25.17
18.97
2.56
-14.97
-23.87
-19.10
-3.19
15.04
25.44
21.99
6.20
-13.70
-27.20
-27.36
-14.55
3.83
17.57
19.03
7.03
-12.52
-29.81
-36.06
-27.86
-8.59
13.53
29.29
32.80
24.22
9.44
-3.28
-7.93
-4.20
2.72
5.67
0.52
-10.83
-21.95
-26.35
-22.16
-13.22
-5.55
-2.72
-3.30
-2.70
2.43
10.81
17.41
17.66
11.96
5.81
5.54
13.21
24.46
31.51
28.92
17.63
4.39
-3.44
-2.94
2.84
7.83
7.67
2.61
-3.53
-6.86
-6.41
-4.24
-2.78
-2.21
-0.24
5.45
14.05
20.82
19.49
6.62
-15.06
-36.99
-49.01
-45.00
-26.34
-1.06
20.32
29.67
24.60
8.49
-11.83
-29.14
-38.00
-35.45
-21.33
1.50
27.13
47.65
55.51
46.88
24.16
-3.85
-25.12
-29.72
-14.75
13.71
42.80
58.66
52.66
25.52
-13.06
-48.77
-68.84
-67.02
-45.59
-13.49
17.80
38.83
44.95
36.63
18.05
-5.21
-27.67
-44.74
-52.77
-49.20
-33.22
-7.04
23.37
49.17
61.34
54.69
30.95
-0.81
-27.44
-37.33
-25.86
2.10
34.03
55.39
56.13
35.24
0.92
-33.41
-55.14
-57.71
-42.94
-19.45
1.68
12.00
9.23
-2.29
-14.15
-18.42
-11.68
3.21
18.67
26.46
22.10
7.54
-9.73
-20.51
-18.87
-5.79
11.22
22.13
20.07
5.71
-12.70
-24.02
-21.13
-5.69
12.27
20.12
10.57
-13.21
-38.76
-51.32
-42.92
-17.67
10.31
25.14
18.74
-4.24
-29.18
-40.49
-31.22
-7.30
16.14
24.36
12.19
-12.56
-34.02
-38.13
-21.71
5.57
27.25
30.69
15.26
-7.30
-20.53
-14.24
8.65
33.85
45.07
34.82
9.29
-15.73
-25.16
-14.05
9.99
32.56
42.01
36.23
22.24
9.90
4.82
5.72
7.05
4.66
-0.66
-4.30
-2.19
5.28
13.23
16.11
12.04
4.19
-1.81
-2.44
1.15
4.36
3.11
-2.89
-10.10
-14.43
-14.76
-13.71
-14.97
-19.36
-23.22
-20.79
-9.02
8.69
23.29
25.42
11.88
-11.42
-32.08
-38.29
-26.02
-1.69
21.24
29.92
19.57
-3.68
-26.23
-34.42
-22.38
4.37
31.92
45.28
36.35
8.03
-27.69
-56.11
-66.99
-58.62
-37.21
-12.05
9.35
23.48
30.71
32.69
30.55
24.55
15.02
3.60
-6.69
-12.58
-12.10
-5.35
5.66
18.05
28.94
35.64
36.03
29.14
16.11
0.37
-13.32
-21.38
-23.11
-20.71
-17.22
-14.26
-11.32
-6.64
0.67
9.46
16.31
17.69
12.73
3.81
-4.40
-8.01
-6.48
-2.56
-0.06
-1.04
-4.48
-7.00
-5.22
2.14
12.98
22.44
25.21
18.29
3.31
-13.80
-25.51
-26.86
-17.96
-3.78
8.85
14.85
12.98
5.92
-1.80
-6.30
-6.46
-4.05
-2.44
-4.34
-9.73
-15.93
-19.04
-16.09
-6.79
6.14
18.22
24.97
23.96
16.00
4.65
-5.70
-12.21
-15.00
-16.51
-19.09
-22.96
-25.54
-23.07
-13.26
2.71
19.53
29.79
27.94
13.73
-6.69
-23.49
-28.34
-18.99
-0.67
16.49
23.08
15.58
-1.97
-20.43
-30.73
-28.55
-16.51
-2.14
6.59
5.96
-1.83
-10.52
-14.03
-9.72
0.27
10.25
14.48
10.36
0.04
-10.82
-16.16
-12.43
-0.51
14.31
24.82
25.75
16.84
3.14
-7.85
-10.35
-3.37
9.04
20.57
26.16
24.80
19.25
13.61
10.76
10.69
10.76
7.79
0.64
-8.79
-16.43
-18.42
-13.19
-2.04
11.33
22.18
26.82
24.14
16.05
6.50
-1.09
-5.66
-8.53
-11.69
-15.72
-18.77
-17.55
-9.76
3.93
18.81
27.75
25.09
10.06
-11.94
-31.68
-40.81
-36.20
-21.48
-5.08
4.52
3.58
-5.40
-15.42
-19.30
-13.75
-1.26
11.60
17.67
13.49
1.12
-13.36
-23.25
-25.20
-20.73
-14.67
-11.36
-11.43
-11.63
-7.62
1.96
13.80
21.73
20.78
10.69
-3.49
-14.46
-17.19
-11.43
-1.34
7.30
10.12
5.76
-3.77
-13.78
-18.62
-13.64
3.23
30.42
63.23
95.80
123.82
144.23
156.59
161.62
159.18
148.06
127.19
96.77
58.86
16.48
-27.14
-67.81
-100.16
-119.13
-120.77
-104.37
-74.13
-38.05
-5.03
18.30
29.60
31.50
28.72
24.81
20.56
14.68
6.03
-4.95
-16.72
-27.89
-38.67
-50.61
-64.51
-78.74
-88.93
-90.06
-79.52
-59.33
-35.63
-16.06
-6.27
-7.22
-14.99
-23.16
-26.24
-22.33
-13.92
-5.91
-2.56
-5.01
-10.78
-15.53
-15.97
-11.71
-5.29
-0.32
1.09
-0.30
-1.43
0.80
7.22
15.29
20.51
19.05
10.40
-1.84
-11.59
-13.35
-5.61
7.82
19.90
24.44
19.23
7.22
-5.13
-11.64
-10.05
-3.28
2.87
3.38
-2.93
-12.87
-21.23
-23.90
-20.22
-13.11
-7.02
-5.20
-8.22
-13.87
-18.90
-21.13
-20.26
-17.82
-15.96
-16.20
-18.38
-20.93
-22.02
-20.49
-17.31
-15.62
-19.19
-29.65
-44.97
-59.31
-65.59
-59.48
-42.50
-22.65
-10.69
-14.34
-33.46
-58.80
-75.70
-71.54
-42.32
4.80
55.02
92.99
109.52
104.56
83.83
55.97
28.77
8.05
-1.45
4.03
25.68
59.32
94.30
116.83
116.56
92.38
54.20
18.36
-1.12
0.05
14.31
26.85
24.38
2.42
-32.67
-67.24
-87.47
-85.56
-62.32
-25.50
14.77
50.60
78.92
100.63
118.34
134.00
147.71
157.85
161.64
156.57
141.43
116.69
84.57
48.77
13.57
-17.27
-41.56
-59.34
-71.95
-80.76
-86.02
-86.79
-81.94
-71.78
-58.81
-47.09
-40.42
-40.31
-45.28
-51.64
-55.45
-54.10
-47.56
-38.08
-29.02
-23.28
-22.17
-24.95
-29.44
-32.91
-33.34
-30.18
-24.50
-18.46
-14.33
-13.57
-16.22
-20.91
-25.46
-27.76
-26.73
-22.84
-17.92
-14.36
-14.07
-17.54
-23.61
-29.83
-33.75
-33.80
-30.20
-24.82
-20.29
-18.98
-22.26
-29.99
-40.59
-51.07
-57.39
-55.49
-42.50
-17.94
15.61
52.54
85.25
106.34
111.20
100.04
78.17
54.35
37.17
31.92
38.75
53.35
69.80
83.80
94.48
103.39
111.86
118.38
118.18
106.00
79.75
42.90
3.69
-28.49
-47.58
-52.98
-49.25
-43.05
-39.41
-39.69
-41.93
-43.01
-40.86
-35.71
-29.57
-24.83
-22.80
-23.18
-24.56
-25.09
-23.72
-20.51
-16.40
-12.62
-10.05
-8.82
-8.35
-7.78
-6.53
-4.61
-2.47
-0.73
0.32
0.87
1.50
2.72
4.65
6.75
8.00
7.39
4.47
-0.45
-6.41
-12.46
-18.08
-23.29
-28.71
-35.15
-43.20
-53.20
-65.22
-78.82
-92.03
-102.18
-105.31
-98.03
-79.31
-51.72
-20.86
6.67
25.95
35.65
37.65
35.64
32.81
30.51
28.39
25.62
22.04
18.49
16.26
16.01
17.38
19.11
19.81
18.57
15.68
12.27
9.76
9.10
10.33
12.60
14.56
14.97
13.34
10.19
6.69
4.06
2.94
3.09
3.58
3.20
1.18
-2.41
-6.46
-9.39
-9.92
-7.60
-3.01
2.54
7.61
11.67
14.91
18.78
24.93
34.30
46.97
62.10
77.93
92.01
101.74
104.79
99.81
88.77
75.61
64.48
59.11
61.26
69.57
79.89
86.52
84.22
70.17
44.08
10.12
-25.73
-57.44
-80.75
-94.03
-98.19
-96.26
-90.30
-82.71
-74.92
-68.52
-64.99
-65.44
-69.97
-77.20
-84.85
-89.61
-91.04
-89.53
-86.84
-85.20
-86.54
-91.96
-101.04
-111.61
-119.63
-120.51
-110.30
-88.05
-56.60
-22.02
8.74
30.74
42.56
46.38
45.87
44.24
42.85
41.61
40.18
39.06
39.83
43.83
51.40
60.91
70.10
76.80
80.09
80.75
80.72
82.43
87.66
97.28
110.59
125.27
137.14
141.09
132.78
109.94
76.08
37.88
3.08
-22.72
-37.85
-45.02
-48.44
-51.65
-55.86
-60.00
-62.44
-62.33
-60.27
-57.56
-55.31
-53.48
-51.01
-46.54
-38.94
-28.48
-16.05
-3.89
6.26
13.57
18.32
21.54
24.48
28.12
32.62
37.38
41.42
43.96
44.55
43.30
40.65
37.24
33.57
29.70
25.58
21.11
16.34
11.54
7.08
3.42
0.86
-0.55
-1.06
-1.28
-1.70
-2.70
-4.50
-7.16
-10.58
-14.57
-18.92
-22.49
-25.69
-28.48
-30.67
-32.10
-32.72
-32.58
-31.85
-30.73
-29.49
-28.47
-27.66
-26.95
-26.14
-25.12
-23.92
-22.69
-21.66
-21.13
-21.36
-22.24
-23.36
-24.21
-24.46
-24.12
-23.86
-24.04
-25.22
-27.71
-31.37
-35.41
-38.81
-40.82
-41.25
-40.52
-39.45
-38.82
-38.98
-39.51
-39.54
-37.43
-32.40
-24.60
-15.18
-5.87
1.51
5.38
4.46
-1.68
-12.47
-25.86
-38.10
-44.52
-41.36
-27.66
-5.45
18.61
37.91
48.12
48.56
41.87
32.10
22.45
14.14
6.77
-0.67
-8.13
-14.91
-20.11
-23.42
-25.52
-27.80
-31.36
-36.80
-43.92
-51.57
-58.44
-63.65
-66.76
-67.76
-66.77
-63.86
-58.84
-51.48
-41.33
-28.02
-11.52
7.98
29.94
53.25
76.35
97.41
114.03
125.80
133.27
137.59
140.32
142.74
145.35
148.04
150.54
151.39
149.47
144.06
134.82
122.43
108.71
95.00
82.77
73.19
66.74
63.16
60.51
54.79
41.19
15.94
-21.38
-66.15
-109.77
-142.74
-158.38
-155.11
-138.22
-116.06
-96.16
-82.46
-74.86
-71.09
-69.01
-67.93
-68.35
-70.96
-75.16
-79.17
-80.89
-78.63
-72.27
-62.92
-52.45
-42.60
-34.34
-27.26
-20.21
-11.98
-1.92
9.54
21.18
31.41
38.98
43.31
44.75
44.17
42.57
40.66
38.69
36.54
33.92
30.61
26.57
21.99
17.05
12.00
7.06
2.55
-1.06
-3.16
-3.16
-0.76
3.85
9.89
16.25
21.92
26.39
29.92
33.40
37.90
44.11
51.95
60.25
67.37
71.92
73.30
72.22
70.55
70.89
75.68
86.22
101.62
118.57
131.82
135.38
124.52
97.54
56.50
6.89
-44.35
-91.59
-131.92
-165.79
-196.44
-228.32
-265.27
-308.94
-357.97
-405.68
-443.93
-464.87
-463.79
-440.89
-401.13
-351.92
-300.17
-250.07
-202.66
-157.37
-113.53
-71.66
-33.14
0.83
30.81
59.56
90.83
127.15
167.89
209.46
246.09
272.33
284.72
283.11
269.52
246.55
215.83
177.86
134.21
87.94
43.46
4.08
-28.40
-54.90
-77.99
-100.05
-121.26
-137.80
-145.26
-141.30
-128.71
-111.34
-92.31
-71.85
-47.91
-17.74
22.13
72.04
129.17
186.34
239.14
286.54
330.85
374.80
420.35
470.55
525.64
582.68
632.43
667.31
682.44
677.27
653.73
599.04
508.82
386.24
263.80
155.70
67.56
-6.69
-69.86
-125.03
-175.70
-222.91
-268.19
-313.55
-364.48
-422.25
-483.56
-540.23
-582.92
-603.53
-595.81
-559.73
-501.21
-432.48
-363.31
-298.96
-239.43
-182.91
-127.80
-72.70
-17.84
36.06
87.59
138.26
190.86
247.07
304.11
354.38
388.15
396.96
377.40
332.08
269.63
200.74
134.24
74.71
23.66
-17.35
-44.72
-52.82
-36.71
5.62
71.40
153.29
241.06
323.84
392.11
439.07
461.61
460.64
440.61
408.28
370.52
332.45
296.84
264.57
235.91
211.28
191.07
174.86
160.83
146.00
127.52
103.98
76.16
46.43
17.66
-8.47
-32.33
-56.12
-82.81
-114.50
-151.23
-190.78
-229.51
-263.78
-291.49
-312.78
-329.90
-346.44
-366.39
-393.15
-428.43
-470.95
-515.68
-554.17
-576.64
-575.66
-549.34
-502.57
-445.43
-389.28
-342.58
-308.62
-286.03
-271.16
-260.68
-252.89
-247.46
-244.19
-242.04
-238.76
-231.47
-217.44
-194.68
-162.37
-121.12
-72.81
-20.06
34.25
87.26
136.21
178.34
211.21
233.82
247.80
257.48
268.52
285.14
307.52
331.19
348.68
352.67
338.78
306.25
256.82
193.31
118.87
37.57
-44.75
-120.65
-183.37
-230.07
-263.82
-292.54
-324.91
-365.44
-411.61
-455.03
-485.81
-497.53
-490.24
-469.70
-443.61
-417.48
-392.50
-366.18
-335.13
-297.76
-255.25
-211.07
-168.68
-129.69
-93.49
-58.00
-20.48
21.44
68.78
120.67
173.65
221.83
258.01
275.68
271.00
243.82
197.26
136.58
68.16
-1.15
-64.03
-113.25
-142.94
-150.25
-136.59
-107.21
-69.37
-30.03
5.44
33.26
50.55
55.16
47.19
30.06
10.65
-2.45
-2.34
13.47
42.21
78.01
115.08
150.92
186.22
222.93
261.60
299.77
332.16
352.71
357.05
344.03
316.82
281.18
244.03
212.08
190.79
183.30
189.55
206.24
227.89
249.79
268.82
284.94
301.12
321.50
348.96
383.63
422.80
461.91
497.66
526.72
545.70
551.27
540.76
513.31
471.07
419.16
353.85
276.33
189.86
99.83
13.22
-62.72
-122.19
-161.96
-182.30
-186.81
-178.77
-164.17
-149.40
-139.60
-137.23
-141.45
-147.47
-147.75
-134.49
-101.30
-46.16
25.39
101.27
166.53
207.56
217.02
195.50
150.18
92.32
32.23
-23.23
-70.91
-110.25
-143.09
-171.16
-195.64
-217.32
-236.54
-253.72
-268.98
-281.63
-290.09
-294.99
-297.36
-299.01
-302.21
-308.97
-321.02
-339.56
-364.97
-396.76
-436.73
-486.05
-544.77
-611.20
-681.85
-752.01
-816.86
-872.22
-895.15
-868.93
-785.43
-649.69
-479.05
-296.33
-121.87
31.17
157.29
256.62
329.35
377.08
402.38
409.14
402.53
388.26
371.45
355.94
344.00
334.11
323.76
310.58
293.37
272.69
250.47
229.15
210.94
197.25
187.03
178.15
168.57
156.84
142.85
127.68
112.77
99.19
87.47
77.28
68.90
63.40
62.03
64.95
70.22
74.09
72.72
64.27
49.85
33.18
18.64
8.96
4.29
2.57
1.25
-1.16
-4.55
-7.73
-9.54
-9.61
-8.39
-6.81
-5.68
-5.72
-6.90
-8.93
-11.17
-12.92
-13.52
-12.79
-10.92
-8.41
-5.86
-3.56
-1.75
-0.73
-1.15
-3.62
-7.77
-11.66
-12.00
-5.40
9.58
30.95
53.53
70.89
77.71
73.02
59.56
42.19
25.39
11.59
0.96
-7.42
-14.28
-19.43
-21.97
-21.58
-18.87
-15.29
-12.46
-11.60
-12.80
-15.21
-17.53
-18.43
-17.47
-15.02
-12.13
-9.95
-9.28
-10.24
-12.31
-14.62
-16.28
-16.86
-16.44
-15.52
-14.76
-14.75
-15.71
-17.53
-19.86
-22.15
-24.02
-25.21
-25.72
-25.71
-25.40
-24.88
-24.08
-22.79
-20.69
-17.50
-13.25
-8.22
-2.98
1.91
6.10
9.65
12.94
16.48
20.67
25.32
29.90
33.80
36.76
38.95
40.53
41.00
38.78
31.61
17.39
-4.55
-32.73
-63.70
-93.31
-117.85
-134.93
-143.34
-141.87
-128.91
-103.32
-66.12
-21.63
23.03
60.22
84.64
95.21
94.86
88.56
80.82
73.95
68.18
62.89
57.87
53.69
51.15
50.37
50.51
50.14
48.03
44.24
39.56
35.77
34.60
36.73
41.38
46.59
50.19
50.87
48.86
46.12
44.73
46.22
50.47
55.46
58.26
56.24
48.42
36.13
22.69
12.16
8.14
12.59
24.95
41.88
57.56
64.92
57.84
34.07
-2.98
-44.47
-78.56
-94.80
-88.12
-61.01
-22.95
13.26
36.05
38.81
21.49
-10.05
-46.79
-79.93
-102.46
-111.96
-109.81
-99.26
-83.31
-64.23
-43.51
-22.88
-4.82
8.09
14.04
13.39
8.34
2.29
-2.45
-5.04
-6.60
-9.30
-14.83
-23.59
-34.00
-43.12
-46.98
-44.28
-35.27
-21.90
-7.08
6.56
17.28
24.75
29.45
32.53
34.07
33.38
29.22
20.50
7.14
-9.92
-28.17
-45.46
-60.02
-71.39
-80.09
-87.14
-93.74
-100.88
-109.58
-120.27
-132.03
-142.07
-146.31
-140.59
-122.83
-95.50
-62.62
-30.39
-4.08
14.18
25.87
34.36
42.87
52.84
63.29
73.03
81.21
88.02
94.32
100.75
106.75
111.00
112.14
110.39
105.89
100.03
94.54
90.55
88.25
86.54
84.01
79.69
73.66
67.11
61.83
59.33
60.02
63.28
67.36
70.55
71.86
71.33
69.86
68.75
69.17
70.85
74.88
80.70
85.98
86.89
78.95
59.07
27.52
-11.47
-50.88
-83.34
-104.45
-113.88
-114.47
-110.57
-105.57
-100.80
-95.97
-90.53
-84.54
-79.18
-75.93
-75.15
-76.39
-78.41
-79.91
-80.14
-79.40
-78.59
-78.81
-81.48
-85.43
-89.13
-90.72
-88.59
-81.90
-70.84
-56.41
-39.33
-21.91
-5.32
9.72
23.01
34.52
44.23
52.02
57.75
61.31
62.73
62.72
61.90
61.01
60.52
60.73
61.69
63.35
65.55
68.00
70.73
73.52
76.09
77.83
78.13
76.34
71.94
64.73
54.77
42.66
29.11
15.22
1.56
-11.35
-23.17
-33.68
-42.65
-49.84
-54.91
-58.06
-59.13
-58.75
-57.90
-57.56
-58.51
-60.92
-64.32
-67.77
-70.30
-71.28
-71.07
-70.76
-71.61
-74.64
-80.05
-87.10
-94.34
-100.55
-104.86
-107.53
-109.57
-111.97
-115.84
-121.18
-127.56
-133.79
-137.50
-134.87
-121.52
-94.09
-52.03
1.38
57.66
107.61
144.58
166.55
176.18
178.97
178.13
174.73
167.76
155.69
138.87
120.18
104.00
94.37
92.91
98.02
105.99
112.18
113.23
108.24
98.94
88.41
79.25
72.58
67.58
61.87
54.52
44.19
29.09
6.81
-24.64
-64.75
-108.68
-147.84
-172.56
-176.68
-160.80
-131.97
-100.42
-74.63
-57.96
-48.53
-42.00
-34.97
-26.73
-18.69
-11.93
-5.56
3.26
17.66
39.17
67.07
98.00
126.81
147.33
154.27
144.87
120.37
86.15
50.19
20.36
1.37
-6.57
-6.98
-4.66
-2.97
-2.52
-1.90
0.35
4.29
8.17
9.63
7.33
2.05
-3.52
-6.32
-3.98
3.64
14.62
25.61
33.48
36.33
34.17
28.59
21.67
14.91
8.43
1.13
-8.49
-21.56
-37.81
-55.39
-71.07
-82.03
-86.58
-85.15
-80.06
-75.31
-73.92
-77.56
-85.41
-94.26
-99.54
-96.84
-83.21
-58.07
-23.83
14.17
48.10
69.31
70.72
49.94
11.36
-34.42
-73.57
-94.30
-91.46
-68.28
-33.90
1.15
29.60
48.57
57.88
56.98
44.13
16.97
-24.20
-74.27
-124.17
-163.14
-183.35
-183.17
-166.82
-141.88
-115.56
-92.32
-72.70
-56.66
-43.27
-31.89
-21.76
-11.18
2.59
22.27
49.07
81.02
113.25
140.36
158.44
166.60
167.19
162.63
154.46
142.44
125.40
102.61
75.84
48.70
25.31
8.65
-0.22
-1.63
3.02
10.93
17.91
19.21
11.34
-5.75
-27.27
-44.91
-50.72
-41.33
-20.16
4.20
22.45
29.22
24.99
15.05
5.95
2.11
4.40
11.08
20.00
29.11
38.93
50.15
62.75
75.45
86.34
93.60
96.57
96.26
95.27
96.54
101.19
107.28
109.88
103.06
83.23
51.35
13.11
-23.11
-49.94
-64.08
-66.92
-62.91
-56.83
-51.46
-47.28
-43.35
-38.73
-33.39
-27.91
-22.76
-17.67
-11.91
-4.79
3.88
13.18
21.61
27.41
29.53
27.88
23.14
16.33
8.23
-1.06
-11.91
-24.27
-38.06
-52.20
-64.99
-74.83
-80.99
-83.84
-84.68
-85.36
-86.47
-88.20
-90.20
-92.24
-94.35
-96.19
-96.22
-91.96
-80.70
-61.01
-34.37
-4.56
23.73
47.09
64.39
75.97
81.77
79.89
66.92
40.16
0.89
-44.21
-84.23
-108.00
-108.85
-87.46
-51.56
-12.54
19.13
37.87
43.88
41.59
36.53
32.42
30.01
27.84
23.88
17.23
9.17
2.06
-1.86
-1.71
1.57
5.72
8.07
6.59
0.90
-7.78
-17.16
-24.74
-28.71
-28.38
-23.95
-15.60
-3.65
11.16
26.88
39.90
45.83
41.47
26.90
7.28
-9.27
-15.48
-8.47
8.62
28.25
42.62
47.44
43.39
34.81
26.56
21.28
18.63
16.54
13.28
8.93
5.14
4.05
6.60
11.79
17.18
20.30
19.95
16.54
12.04
8.72
8.15
10.59
14.95
19.41
22.37
23.11
22.04
20.43
19.70
20.74
23.60
27.51
31.21
33.54
33.83
32.02
28.57
24.06
18.94
13.46
7.60
1.35
-5.25
-11.87
-18.06
-23.25
-27.08
-29.39
-30.25
-29.85
-28.44
-26.28
-23.60
-20.55
-17.23
-13.74
-10.13
-6.43
-2.58
1.46
5.74
10.18
14.68
19.07
23.03
26.23
28.43
29.55
29.58
28.51
26.28
22.86
18.36
12.67
5.82
-1.79
-9.30
-15.74
-20.33
-22.63
-22.59
-20.31
-16.72
-12.68
-8.70
-4.57
0.10
5.46
11.12
16.43
20.79
22.81
21.91
18.32
13.51
9.21
6.42
4.85
3.00
-1.44
-8.70
-19.46
-34.67
-54.36
-78.45
-107.66
-143.51
-187.48
-229.40
-261.10
-279.15
-287.65
-292.34
-295.73
-295.81
-287.38
-264.77
-225.02
-178.73
-128.90
-81.19
-41.11
-11.95
6.00
14.94
18.62
21.25
25.43
34.07
48.62
71.18
103.87
147.19
198.43
251.09
295.81
322.15
323.57
298.07
249.80
186.64
116.19
42.80
-32.69
-110.61
-189.42
-262.92
-322.38
-359.12
-368.65
-352.78
-318.76
-275.94
-232.12
-191.50
-154.24
-119.04
-84.60
-50.68
-17.78
13.61
43.76
73.50
103.51
133.75
163.00
189.56
212.25
231.21
248.45
267.70
293.36
328.83
374.36
425.72
474.55
510.73
526.00
517.24
487.75
445.64
400.25
358.40
322.39
290.56
259.67
227.53
193.98
160.50
128.39
97.48
65.90
30.86
-9.95
-57.48
-110.80
-167.13
-222.06
-270.27
-306.21
-325.27
-325.02
-306.34
-273.45
-232.87
-191.54
-154.87
-125.51
-103.15
-85.55
-69.98
-54.46
-38.01
-20.36
-1.35
19.24
41.33
64.25
86.53
106.12
121.06
129.92
131.80
126.27
113.28
93.23
67.38
37.88
7.11
-23.23
-52.81
-82.60
-113.36
-143.85
-170.12
-186.28
-186.68
-168.21
-131.48
-80.23
-19.50
46.15
113.14
178.22
237.04
283.69
311.86
316.99
298.43
260.24
209.97
156.06
105.42
61.97
26.51
-2.01
-25.10
-44.17
-60.43
-75.45
-91.75
-112.88
-142.55
-183.03
-233.20
-287.51
-336.69
-370.50
-381.51
-367.75
-333.47
-286.86
-236.68
-188.87
-145.27
-104.30
-62.93
-18.81
29.03
80.24
133.44
186.16
234.51
272.98
295.34
296.39
273.66
228.61
166.33
93.89
18.18
-55.90
-126.26
-193.44
-259.73
-327.95
-399.78
-474.20
-546.75
-609.74
-654.32
-673.50
-665.03
-632.33
-583.48
-527.96
-473.65
-424.91
-382.60
-345.62
-312.71
-283.15
-256.70
-232.92
-210.72
-188.69
-165.74
-141.66
-117.22
-93.94
-73.26
-56.08
-42.48
-31.81
-23.08
-15.27
-7.61
0.38
8.85
17.88
27.49
37.71
48.68
60.64
74.17
90.14
109.58
133.43
162.12
195.33
232.01
270.70
309.96
348.92
387.36
425.64
464.59
505.45
549.73
598.66
652.00
706.85
757.24
795.05
812.71
805.99
776.06
729.22
674.44
620.13
571.72
530.95
496.99
468.27
443.58
422.22
403.37
385.44
366.13
343.34
316.05
284.80
251.52
218.81
188.92
163.11
141.35
122.54
105.11
87.49
68.62
48.00
25.67
1.85
-23.08
-48.75
-74.77
-100.75
-126.39
-151.39
-175.38
-197.94
-218.49
-236.38
-251.02
-262.26
-270.59
-277.38
-284.68
-294.63
-308.93
-328.21
-351.81
-378.31
-405.99
-433.56
-460.67
-487.63
-515.24
-544.65
-577.24
-614.34
-656.34
-701.43
-744.76
-778.88
-795.61
-789.02
-757.83
-706.05
-641.34
-572.17
-505.09
-443.63
-388.75
-340.17
-297.57
-260.64
-228.66
-200.17
-173.32
-146.79
-120.65
-96.54
-76.59
-62.37
-53.61
-48.03
-42.43
-34.21
-22.58
-8.91
3.79
12.52
15.75
14.62
12.72
15.44
28.60
57.07
103.00
164.16
233.20
298.21
345.85
365.82
354.79
318.15
267.90
217.68
177.25
149.27
129.65
111.26
88.51
59.94
28.16
-2.53
-28.83
-49.74
-65.78
-77.72
-85.13
-86.32
-79.54
-64.58
-43.53
-20.52
-0.44
13.09
18.76
17.89
13.56
9.18
6.96
7.27
8.78
9.60
8.78
6.96
6.78
11.85
25.57
49.88
84.22
125.20
168.12
208.72
243.96
272.77
295.77
314.43
330.31
344.07
355.34
363.68
369.79
375.58
384.10
398.80
422.64
457.95
504.99
560.27
617.31
667.39
700.43
707.85
685.55
635.31
566.05
489.10
412.19
340.27
275.70
217.24
161.62
105.47
46.87
-9.78
-57.11
-91.33
-107.92
-103.14
-80.39
-49.74
-23.90
-13.52
-18.61
-34.56
-63.06
-103.30
-149.89
-197.47
-239.04
-266.11
-271.35
-245.45
-187.00
-111.88
-35.44
35.63
98.55
155.17
210.63
229.14
187.70
143.17
118.08
90.97
51.95
-2.15
-66.02
-128.06
-176.07
-196.07
-182.40
-145.56
-97.78
-46.08
1.19
35.74
50.53
40.96
11.42
-48.60
-141.29
-251.16
-349.55
-414.74
-438.56
-424.31
-382.47
-323.82
-260.31
-204.71
-165.10
-141.02
-128.99
-124.17
-122.49
-121.91
-120.89
-118.88
-111.85
-101.48
-88.31
-74.89
-64.66
-60.44
-63.85
-74.32
-90.07
-108.16
-126.72
-143.67
-158.71
-172.28
-184.47
-194.49
-200.80
-201.47
-193.62
-179.05
-159.22
-136.88
-115.26
-96.98
-83.51
-75.08
-71.22
-70.84
-73.53
-78.52
-85.23
-92.48
-98.06
-98.68
-90.50
-70.19
-35.87
11.98
71.34
138.49
209.12
279.11
345.15
405.10
458.27
505.51
548.58
589.11
626.73
657.83
676.09
674.76
649.75
602.01
537.84
466.56
396.97
334.34
279.41
229.74
182.29
135.40
89.24
44.83
2.78
-37.56
-77.91
-119.98
-164.87
-213.02
-264.80
-321.14
-382.72
-448.46
-513.86
-570.81
-609.37
-621.23
-602.96
-557.50
-492.89
-418.99
-343.95
-272.33
-205.17
-141.65
-80.64
-21.26
37.38
96.25
155.49
212.82
262.45
296.15
306.25
289.20
247.95
191.43
131.21
77.62
36.97
11.18
-0.77
-0.03
12.29
34.95
65.37
99.05
130.41
154.71
169.56
175.24
174.77
171.61
168.51
166.91
166.79
167.04
166.31
163.40
157.01
147.43
134.97
120.63
105.93
92.28
79.88
67.18
50.96
25.98
-8.48
-51.47
-97.78
-139.07
-167.01
-177.21
-171.30
-156.79
-147.12
-147.84
-162.83
-190.01
-223.08
-255.17
-282.86
-306.23
-327.72
-354.87
-383.82
-414.38
-444.75
-471.71
-490.86
-499.07
-493.52
-472.72
-444.38
-406.42
-366.23
-331.33
-306.86
-294.08
-293.25
-301.10
-271.19
-247.43
-217.39
-180.14
-138.50
-97.05
-59.72
-31.65
-14.16
-4.75
-5.68
-7.56
-11.23
-20.09
-37.96
-43.85
-26.43
13.36
63.25
103.36
130.24
143.92
151.16
161.84
184.86
220.32
262.11
301.94
329.29
343.61
345.20
336.86
321.28
298.91
265.11
214.97
150.14
77.23
9.32
-43.23
-75.08
-86.50
-81.42
-61.09
-32.64
0.26
36.27
75.30
114.72
149.42
173.91
184.88
181.77
166.96
148.17
135.66
137.58
157.97
194.11
237.89
278.54
305.99
312.85
298.27
266.16
222.80
174.31
123.52
71.80
20.26
-29.30
-76.18
-118.59
-154.92
-184.12
-206.04
-224.21
-243.72
-270.18
-300.28
-332.80
-364.94
-393.08
-413.74
-412.33
-382.23
-326.39
-256.19
-184.35
-120.03
-65.84
-21.06
15.22
42.77
58.91
61.86
52.41
35.13
16.67
5.13
7.62
27.79
63.98
108.12
149.59
179.41
193.74
193.93
185.40
174.20
164.22
156.09
147.89
137.88
126.26
115.35
107.65
104.69
105.99
111.00
115.37
115.95
111.11
100.78
85.83
67.24
45.62
21.15
-5.95
-35.25
-64.61
-91.01
-111.22
-122.62
-124.00
-115.71
-99.53
-78.57
-56.15
-34.04
-12.98
6.86
25.40
41.91
55.53
65.39
73.53
78.87
82.16
84.66
86.89
87.92
85.12
75.53
57.07
30.00
-3.50
-38.00
-67.41
-87.18
-95.96
-95.90
-90.99
-85.61
-82.28
-81.82
-81.26
-76.90
-66.14
-48.12
-23.85
4.87
32.53
54.29
64.52
53.26
15.14
-43.41
-103.74
-144.50
-151.90
-124.64
-72.53
-11.90
48.49
104.19
153.25
195.11
229.18
254.84
271.90
282.36
267.36
228.16
175.06
120.72
73.87
36.94
7.81
-17.09
-40.27
-62.49
-79.17
-87.42
-86.81
-79.47
-69.26
-60.17
-54.82
-54.06
-57.27
-59.98
-59.56
-55.43
-48.91
-42.40
-38.10
-36.98
-39.10
-43.80
-48.32
-51.25
-52.21
-51.78
-50.62
-48.64
-44.28
-35.98
-22.56
-2.74
22.94
52.91
84.79
116.28
145.89
173.68
199.54
222.91
243.71
261.72
277.11
288.87
294.50
285.92
260.89
219.52
165.23
106.51
50.53
4.85
-25.82
-40.91
-43.30
-36.30
-23.03
-5.84
14.35
36.60
59.61
81.20
98.96
110.92
116.10
118.67
119.90
119.95
118.00
113.17
104.73
92.79
78.45
63.80
51.07
41.26
34.86
31.46
30.15
29.79
29.55
29.07
28.66
28.78
29.24
29.81
30.02
29.34
27.27
23.54
18.22
11.83
5.08
-1.57
-7.58
-12.46
-15.82
-17.38
-17.01
-14.69
-10.63
-5.16
1.03
7.22
12.68
16.70
18.66
18.11
14.77
8.45
-0.73
-12.50
-26.33
-41.31
-56.30
-69.85
-80.40
-86.40
-86.51
-79.75
-65.72
-44.79
-17.93
13.21
46.52
79.59
109.99
135.45
154.19
165.00
167.40
161.70
148.94
130.76
109.19
86.32
64.10
44.11
27.43
14.61
5.76
0.60
-1.40
-0.93
1.14
3.88
6.27
7.32
6.15
2.11
-5.16
-15.63
-28.96
-44.52
-61.51
-79.04
-96.11
-112.57
-127.99
-141.30
-151.07
-156.21
-156.21
-152.09
-145.63
-138.94
-134.78
-135.19
-140.56
-149.73
-160.84
-171.80
-181.73
-190.51
-198.54
-208.36
-221.33
-236.21
-249.50
-257.31
-256.33
-246.77
-230.95
-212.33
-200.14
-200.68
-213.83
-233.85
-253.79
-266.89
-273.40
-276.13
-278.70
-296.56
-340.99
-412.29
-500.29
-591.20
-667.64
-721.23
-745.04
-734.07
-707.07
-684.39
-676.89
-684.81
-705.02
-728.09
-755.79
-787.51
-818.60
-867.57
-947.89
-1054.99
-1169.38
-1271.70
-1343.53
-1392.14
-1430.71
-1317.02
-988.37
-492.63
44.35
512.26
806.67
978.64
1072.58
1111.94
1107.22
1059.81
966.20
840.34
710.52
603.32
542.16
522.22
529.31
550.99
559.93
536.43
480.18
406.17
332.90
280.79
270.92
306.08
372.62
434.33
460.42
444.18
399.28
342.56
295.92
264.96
246.23
236.57
230.30
225.45
228.72
245.70
277.61
321.85
368.15
403.57
419.77
412.65
383.56
339.74
289.80
241.77
201.82
173.51
158.09
157.56
174.63
203.77
237.32
266.39
286.52
297.68
302.80
302.13
292.97
271.17
234.25
184.67
128.99
81.28
43.53
15.36
-6.16
-24.11
-39.63
-50.91
-53.96
-48.14
-34.76
-21.00
-14.61
-20.51
-37.97
-61.34
-83.57
-99.06
-106.33
-107.05
-105.31
-103.31
-101.43
-98.77
-94.41
-88.21
-80.74
-73.46
-67.59
-64.48
-63.87
-64.64
-65.23
-64.53
-62.33
-59.22
-56.60
-55.94
-58.63
-65.01
-74.61
-85.94
-96.61
-104.07
-104.57
-95.67
-77.70
-54.69
-33.05
-19.62
-18.95
-31.50
-53.02
-75.59
-90.50
-90.43
-72.22
-37.70
6.78
52.08
89.19
112.27
120.74
118.67
113.20
110.88
115.62
128.17
146.28
165.25
179.43
184.07
176.39
158.10
134.85
114.65
104.05
104.07
108.28
105.49
85.46
40.92
-25.57
-103.94
-180.96
-242.61
-277.15
-280.77
-258.55
-219.85
-172.99
-121.96
-68.80
-16.49
30.29
66.24
87.27
92.32
85.72
72.15
56.75
43.73
36.11
35.97
43.93
58.91
78.33
96.33
107.22
107.40
96.40
76.81
52.54
26.61
0.45
-25.44
-49.99
-71.16
-86.47
-94.82
-97.37
-97.37
-99.01
-105.43
-117.36
-133.40
-148.22
-155.27
-149.61
-130.26
-101.18
-70.60
-47.88
-40.04
-48.78
-69.81
-93.95
-110.85
-112.95
-96.68
-62.69
-14.36
42.89
102.60
158.13
206.23
243.43
266.68
274.83
267.91
247.30
215.04
174.53
130.22
83.40
40.10
3.26
-25.97
-51.44
-75.91
-99.92
-121.10
-135.61
-139.51
-130.37
-108.97
-78.06
-42.23
-6.61
21.24
33.89
26.47
0.08
-36.45
-70.25
-88.57
-84.78
-61.39
-29.02
-0.53
15.09
16.65
10.12
3.33
2.15
8.48
20.98
37.00
56.19
77.82
101.56
126.66
149.85
167.04
174.95
172.17
159.27
138.63
113.81
84.92
57.21
33.37
13.76
-2.96
-18.80
-34.69
-50.06
-63.07
-71.39
-73.21
-69.73
-64.33
-61.24
-64.06
-74.30
-90.38
-108.59
-123.82
-131.39
-129.25
-117.86
-98.57
-73.07
-43.19
-11.55
16.97
37.08
45.29
41.48
29.59
16.40
7.61
4.96
5.71
5.57
2.69
-0.21
3.30
18.37
45.93
80.52
112.41
131.89
134.25
121.16
97.87
69.54
37.86
0.95
-43.97
-97.33
-154.39
-205.36
-236.17
-237.38
-205.98
-145.80
-65.93
20.67
103.22
171.79
219.97
245.78
250.92
239.77
217.40
188.39
155.92
121.34
84.49
45.02
2.72
-42.33
-88.30
-131.52
-166.91
-185.60
-183.99
-165.08
-135.75
-103.49
-73.95
-49.78
-31.44
-18.83
-12.17
-12.12
-18.43
-27.84
-35.08
-34.96
-24.43
-3.73
23.62
52.22
76.42
92.01
97.70
93.93
82.21
65.07
46.09
29.36
17.86
11.35
4.94
-7.74
-32.11
-69.25
-114.47
-158.60
-191.74
-207.36
-198.86
-172.21
-136.68
-100.06
-66.44
-36.95
-11.60
9.24
24.77
34.75
38.78
38.98
38.21
38.98
42.44
48.26
54.70
59.48
60.24
55.49
47.29
40.43
40.59
51.52
72.93
100.09
124.03
137.32
136.08
121.70
99.40
75.40
54.25
37.57
24.92
15.06
7.34
2.04
-0.50
-1.21
-2.90
-9.91
-26.86
-54.88
-90.56
-126.27
-152.21
-160.72
-149.69
-123.22
-89.41
-55.78
-25.73
2.29
31.96
66.02
102.79
135.45
156.43
160.99
148.85
122.99
87.14
43.11
-7.34
-63.04
-119.72
-169.91
-205.78
-221.86
-217.32
-192.30
-155.99
-116.53
-79.39
-47.02
-19.96
1.56
17.39
27.70
33.31
34.96
34.50
33.57
32.94
32.54
31.59
29.40
25.80
21.31
16.50
12.71
10.80
10.69
11.42
11.47
9.65
5.74
0.51
-4.92
-8.99
-10.73
-10.27
-8.43
-6.49
-5.38
-5.55
-7.10
-9.77
-11.90
-10.59
-2.25
16.08
44.24
78.63
112.62
138.76
151.55
149.59
135.44
113.01
88.08
63.68
40.91
19.94
1.21
-14.16
-24.86
-30.36
-31.45
-29.73
-27.47
-26.33
-26.77
-28.18
-29.43
-29.45
-27.86
-25.06
-21.76
-19.14
-17.89
-17.99
-18.87
-19.72
-19.82
-18.92
-17.25
-15.26
-13.66
-12.83
-12.77
-13.19
-13.66
-13.80
-13.52
-12.90
-12.03
-11.25
-10.77
-10.63
-10.84
-11.52
-12.73
-14.75
-17.86
-22.08
-27.47
-33.72
-40.09
-45.50
-48.84
-48.76
-44.19
-34.54
-19.76
-0.76
20.88
43.11
63.66
80.45
91.87
97.06
95.31
87.85
76.13
61.77
46.42
31.34
17.62
6.10
-2.75
-8.68
-11.59
-12.02
-10.77
-8.87
-7.36
-6.87
-7.44
-8.56
-9.39
-8.96
-7.02
-4.00
-1.02
0.65
0.25
-2.19
-5.67
-8.57
-9.35
-7.45
-3.65
-0.00
1.14
-1.97
-9.85
-21.42
-34.46
-46.26
-54.30
-56.73
-52.93
-43.99
-32.91
-24.26
-22.28
-29.10
-43.10
-59.35
-71.45
-74.54
-67.41
-52.52
-34.42
-17.32
-3.52
6.83
15.28
23.92
34.76
49.32
68.07
89.93
111.91
129.75
138.63
136.69
124.12
102.96
76.11
46.24
15.81
-12.83
-37.37
-55.32
-64.35
-64.22
-57.05
-47.13
-40.01
-40.30
-49.21
-63.44
-75.73
-77.34
-62.64
-31.63
9.34
49.91
80.10
94.30
93.19
81.81
68.24
58.49
54.49
54.40
54.56
51.93
45.51
36.24
25.76
15.14
4.01
-8.56
-22.52
-36.23
-46.46
-50.12
-46.60
-38.69
-32.03
-32.72
-43.85
-63.30
-84.50
-99.24
-101.77
-91.44
-72.54
-51.76
-34.86
-24.29
-18.79
-15.38
-11.40
-6.12
-0.70
3.03
4.33
4.21
5.41
11.54
25.08
46.36
73.64
103.61
132.25
155.17
167.58
164.57
142.68
101.55
45.48
-16.82
-74.58
-118.48
-143.74
-150.27
-143.22
-128.69
-110.96
-91.73
-71.20
-49.93
-29.76
-13.43
-3.48
-1.27
-6.09
-15.65
-25.98
-32.27
-29.77
-14.99
12.86
50.87
92.49
129.28
153.12
158.74
145.21
116.15
78.39
39.68
6.40
-17.80
-32.15
-38.02
-37.66
-33.34
-26.85
-19.60
-12.88
-8.23
-6.74
-8.52
-12.37
-16.21
-18.04
-16.83
-12.96
-7.91
-3.53
-1.11
-1.03
-2.59
-4.32
-4.65
-2.59
2.01
8.59
16.04
23.17
28.87
32.25
32.86
30.58
25.43
17.70
7.75
-3.89
-16.70
-30.16
-43.66
-56.42
-67.40
-75.20
-78.44
-76.05
-67.69
-53.81
-35.76
-15.55
4.61
22.35
35.35
41.37
38.69
27.41
10.56
-6.07
-15.74
-13.59
0.64
22.46
44.49
59.57
64.07
58.77
47.65
35.25
24.56
16.17
9.47
3.99
-0.16
-2.97
-5.48
-10.30
-20.42
-37.21
-58.82
-80.07
-94.00
-96.36
-86.66
-68.25
-46.21
-24.59
-4.89
13.82
33.01
52.79
70.77
83.45
87.34
80.82
65.57
46.47
30.18
22.71
27.18
42.00
61.38
76.65
79.41
64.88
33.74
-8.12
-51.91
-88.33
-110.79
-117.00
-109.33
-93.28
-75.24
-60.15
-49.99
-43.47
-36.95
-26.67
-10.71
9.50
28.95
40.98
39.45
21.35
-11.04
-50.65
-87.95
-114.21
-123.29
-115.81
-96.08
-69.60
-40.94
-12.96
12.30
32.96
47.89
56.82
61.40
65.70
74.09
88.60
107.40
125.46
135.56
134.06
120.73
98.39
71.89
46.09
24.43
8.88
0.16
-2.26
0.24
4.84
8.23
7.75
2.41
-7.26
-19.23
-30.72
-39.03
-41.94
-38.45
-29.55
-18.47
-9.95
-8.62
-16.60
-32.02
-48.99
-60.30
-60.75
-49.48
-30.11
-8.51
10.26
24.09
34.00
42.53
51.80
62.05
71.77
78.84
81.29
78.27
69.94
57.49
42.06
24.70
5.94
-13.75
-33.98
-54.17
-73.31
-90.31
-104.55
-116.31
-126.53
-135.55
-141.99
-142.76
-134.19
-114.15
-84.13
-49.59
-17.36
6.24
18.05
18.90
12.21
1.96
-8.92
-19.40
-29.48
-39.20
-48.13
-55.40
-60.00
-61.19
-58.49
-51.33
-39.40
-22.55
-1.37
22.56
46.71
68.62
86.51
99.69
108.57
114.17
117.68
120.17
122.37
124.85
126.48
124.95
117.00
99.64
72.31
37.84
1.97
-28.82
-50.01
-61.11
-65.35
-67.25
-69.21
-69.19
-61.66
-41.32
-6.99
36.12
78.02
107.90
118.81
110.28
87.86
60.32
35.42
17.15
5.13
-3.68
-12.91
-24.83
-40.02
-57.46
-75.17
-90.54
-100.07
-100.46
-89.30
-66.72
-36.06
-3.51
24.16
42.45
51.03
54.28
57.10
63.16
72.85
83.17
89.46
88.16
78.60
62.78
44.38
26.86
12.72
2.99
-2.80
-6.71
-11.58
-19.93
-32.85
-48.68
-63.30
-72.04
-71.80
-62.77
-48.28
-32.49
-18.34
-6.48
4.31
15.48
26.68
35.77
39.63
35.90
24.41
6.90
-14.10
-36.34
-58.45
-79.41
-97.28
-108.77
-110.10
-98.92
-76.19
-46.54
-16.61
7.36
22.00
27.61
27.05
23.69
19.77
15.99
12.25
8.77
6.17
5.28
6.34
8.71
11.04
12.09
11.10
8.39
5.02
2.16
0.60
0.39
0.95
1.37
0.89
-0.88
-3.79
-7.39
-11.34
-15.43
-19.62
-23.74
-27.31
-29.52
-29.45
-26.54
-20.99
-13.94
-7.14
-2.33
-0.53
-1.48
-3.92
-6.18
-6.99
-6.13
-4.55
-3.64
-4.27
-6.32
-8.26
-7.99
-3.74
5.23
18.58
35.30
53.95
72.19
86.25
91.69
85.10
66.65
41.46
18.44
6.60
10.70
28.56
51.61
69.93
76.72
71.33
58.27
43.60
31.27
21.68
12.46
1.43
-11.43
-23.93
-33.04
-36.58
-34.78
-29.80
-24.72
-22.36
-23.68
-27.29
-30.50
-30.64
-26.76
-20.35
-13.96
-9.11
-5.35
0.48
12.85
34.87
66.23
102.82
137.87
163.66
175.53
170.98
149.30
111.41
60.03
0.12
-61.48
-118.23
-165.10
-199.39
-221.45
-233.62
-238.44
-237.00
-227.83
-205.81
-168.69
-116.71
-54.72
7.38
57.45
85.58
88.49
71.61
46.70
26.33
18.82
24.78
37.74
48.75
51.55
45.40
34.49
24.51
18.84
17.45
17.55
15.60
10.10
2.59
-3.39
-4.63
-0.32
7.25
14.28
17.36
15.20
8.86
1.49
-3.64
-4.59
-1.46
3.77
8.54
10.78
9.75
6.28
2.18
-0.73
-1.39
0.09
2.71
5.17
6.46
6.27
5.00
3.54
2.69
2.91
4.10
5.83
7.55
8.86
9.69
10.20
10.79
11.86
13.75
16.60
20.42
25.18
30.68
36.64
42.61
47.97
52.08
54.25
53.78
50.36
43.93
34.80
23.55
11.02
-1.84
-13.99
-24.54
-32.97
-38.74
-41.66
-41.89
-39.77
-35.71
-30.38
-24.34
-18.19
-12.76
-8.44
-5.79
-5.44
-7.97
-13.72
-22.89
-35.28
-50.26
-67.07
-84.00
-99.25
-111.10
-118.00
-118.93
-113.50
-101.92
-83.26
-60.63
-36.28
-12.22
9.93
29.05
44.49
56.02
63.96
68.93
71.29
72.15
72.42
72.79
73.91
76.18
79.73
84.55
90.44
96.59
102.47
107.45
110.54
110.86
107.72
100.70
89.76
75.29
57.84
38.71
19.29
0.80
-15.67
-29.37
-39.88
-47.14
-51.38
-53.20
-53.04
-51.52
-49.21
-46.51
-43.70
-40.94
-38.31
-35.76
-33.36
-31.00
-28.68
-26.48
-24.40
-22.48
-20.72
-19.42
-18.22
-17.00
-15.74
-14.45
-13.21
-12.10
-11.16
-10.42
-9.85
-9.31
-8.75
-8.15
-7.53
-7.02
-6.72
-6.75
-7.10
-7.69
-8.29
-8.75
-9.00
-9.14
-9.44
-10.24
-11.78
-14.10
-16.92
-19.76
-22.17
-23.91
-25.22
-26.64
-28.91
-32.59
-37.69
-43.70
-49.72
-54.82
-58.56
-61.32
-64.10
-68.06
-74.17
-82.54
-92.39
-102.38
-111.33
-118.64
-124.82
-131.05
-138.52
-148.06
-159.93
-173.78
-188.96
-202.48
-209.84
-205.61
-184.96
-145.88
-90.86
-26.68
37.54
93.57
136.27
165.56
184.47
196.53
203.85
206.71
204.81
198.40
189.63
180.60
173.19
167.95
164.04
159.98
154.34
146.87
138.20
129.76
123.29
119.96
119.79
121.70
124.04
124.98
123.82
119.48
111.89
101.55
88.94
74.18
56.92
36.49
11.55
-16.96
-47.97
-79.47
-108.80
-133.14
-150.23
-159.03
-159.51
-152.65
-139.58
-121.89
-100.60
-76.18
-48.94
-19.24
12.31
45.19
78.25
109.33
134.18
147.74
146.03
128.49
99.10
65.89
37.97
21.11
16.35
19.82
25.14
26.64
21.19
8.09
-11.40
-34.99
-59.57
-80.77
-94.14
-96.57
-87.93
-71.60
-53.12
-38.05
-29.57
-27.84
-30.54
-35.04
-39.63
-43.82
-47.59
-50.82
-52.90
-53.10
-51.49
-48.92
-46.94
-46.93
-49.75
-54.93
-61.43
-68.00
-73.59
-77.88
-81.05
-83.45
-85.09
-85.79
-84.24
-79.19
-69.80
-56.02
-38.83
-20.11
-2.13
13.09
23.99
30.43
33.05
33.26
32.79
33.34
36.29
42.51
52.29
64.42
78.65
94.17
110.00
125.10
138.58
149.65
157.79
163.83
166.38
164.96
159.17
148.81
133.98
115.02
92.56
66.45
38.86
11.09
-15.31
-39.19
-59.70
-76.24
-88.74
-97.47
-103.07
-106.12
-107.87
-109.18
-110.80
-113.28
-116.73
-121.12
-126.13
-131.34
-135.76
-138.83
-139.49
-136.65
-129.36
-116.87
-98.99
-76.09
-49.29
-20.21
8.61
34.92
57.20
74.71
87.54
96.41
102.24
105.75
107.27
107.15
105.00
100.96
95.73
90.50
86.53
84.64
84.84
86.16
87.15
86.62
84.09
80.00
75.49
71.77
69.77
70.06
72.90
78.06
84.20
88.49
86.83
75.38
52.52
20.38
-15.33
-47.43
-70.12
-81.24
-82.53
-78.00
-71.51
-65.16
-59.09
-52.69
-45.88
-39.61
-35.21
-33.32
-33.30
-33.36
-31.65
-26.92
-19.33
-10.12
-1.08
6.58
12.65
17.88
23.47
30.07
37.19
43.07
45.33
41.84
31.78
15.95
-3.42
-23.56
-42.06
-57.67
-70.35
-80.75
-89.83
-98.50
-107.50
-117.27
-126.41
-132.25
-131.00
-119.23
-95.78
-63.16
-27.17
5.09
28.08
40.04
42.82
40.43
36.68
33.52
30.90
27.97
24.31
20.60
18.16
17.83
19.40
21.67
23.18
22.74
20.25
16.57
13.05
10.89
10.55
11.66
13.25
14.22
13.87
12.17
9.68
7.26
5.68
5.21
5.62
6.37
6.84
6.64
5.77
4.54
3.35
2.51
2.11
1.97
1.87
1.61
1.15
0.63
0.27
0.16
0.25
0.33
0.18
-0.33
-1.08
-1.80
-2.15
-1.89
-1.13
-0.19
0.44
0.36
-0.57
-2.23
-4.29
-6.43
-8.48
-10.60
-13.11
-16.25
-20.00
-23.92
-27.20
-28.93
-28.04
-23.41
-14.07
0.55
19.86
41.50
61.37
74.51
76.80
66.67
46.00
19.68
-6.15
-26.39
-38.51
-42.66
-40.70
-34.65
-25.83
-15.15
-3.98
5.37
10.10
8.47
1.22
-8.32
-15.76
-17.73
-13.66
-5.52
3.96
13.27
22.76
33.63
45.93
57.43
64.28
63.10
53.10
36.68
18.33
2.18
-9.64
-17.26
-21.94
-24.78
-26.07
-25.65
-23.69
-20.98
-18.64
-17.35
-16.85
-16.03
-13.56
-8.61
-1.19
7.98
17.76
26.98
34.48
39.22
40.40
38.10
33.50
28.89
26.88
29.14
35.36
43.02
48.36
48.12
41.25
29.63
17.49
9.80
10.29
19.85
35.93
52.97
63.67
60.91
39.98
0.70
-51.36
-105.57
-149.08
-171.10
-166.89
-139.47
-98.16
-54.56
-18.01
7.34
22.57
31.57
37.98
43.20
46.37
46.07
42.34
37.45
35.17
38.89
49.92
66.65
84.76
98.60
102.84
94.22
72.68
41.62
7.15
-23.54
-44.24
-51.66
-46.46
-33.08
-18.27
-9.02
-10.39
-24.25
-48.91
-80.03
-112.30
-141.24
-164.59
-182.71
-197.55
-210.72
-221.98
-228.87
-227.81
-216.17
-194.04
-164.79
-134.16
-108.04
-89.92
-79.42
-72.61
-64.02
-49.39
-27.51
-0.33
28.48
55.63
80.02
102.75
125.67
149.66
173.70
195.38
212.24
222.51
225.03
218.74
202.24
174.23
134.54
85.13
29.97
-23.80
-68.18
-97.16
-108.69
-104.67
-89.32
-67.23
-42.38
-17.96
3.56
20.18
30.75
35.31
35.17
32.43
29.23
27.00
26.13
26.26
26.50
25.91
24.02
21.03
17.68
14.78
12.77
11.62
11.02
10.47
9.63
8.44
7.12
5.98
5.19
4.64
3.98
3.02
1.89
1.18
1.62
3.72
7.39
11.69
15.05
15.74
12.57
5.31
-4.97
-16.96
-29.08
-39.99
-48.84
-55.31
-59.23
-60.65
-60.10
-58.34
-56.02
-52.74
-46.70
-35.44
-17.41
6.37
31.64
51.17
58.47
50.35
28.33
-2.25
-34.60
-62.93
-84.54
-98.49
-104.83
-103.57
-94.59
-77.92
-54.46
-26.14
3.86
32.34
56.96
76.28
90.05
98.66
103.07
104.51
104.17
103.00
101.75
100.65
99.27
96.98
93.24
88.27
82.93
78.62
76.42
77.04
80.30
85.34
91.18
96.64
100.27
100.16
95.12
82.66
62.08
34.81
4.04
-26.44
-53.62
-76.17
-94.12
-107.98
-117.47
-120.55
-114.23
-96.49
-68.47
-35.52
-6.12
11.10
11.02
-5.29
-30.52
-54.47
-68.33
-69.18
-60.47
-48.81
-39.77
-35.11
-32.61
-28.50
-20.68
-10.31
-0.84
4.52
4.76
1.62
-1.61
-1.90
2.07
9.42
17.86
24.92
29.18
30.76
31.05
31.80
34.16
38.15
42.68
46.04
46.65
43.77
37.83
30.07
22.00
14.75
8.78
3.91
-0.46
-4.93
-9.88
-15.21
-20.50
-25.24
-29.21
-32.43
-35.03
-37.24
-39.12
-40.84
-42.13
-42.60
-41.74
-39.53
-36.11
-31.63
-26.34
-20.38
-14.38
-8.41
-2.37
4.07
10.51
16.44
21.48
25.36
28.01
28.69
27.62
25.40
23.02
20.29
16.79
12.15
6.17
-0.98
-9.99
-20.14
-30.16
-38.15
-43.61
-46.36
-46.11
-42.49
-28.45
-5.27
24.02
52.87
81.37
108.26
131.43
148.61
157.99
158.36
146.94
122.86
87.36
46.13
5.67
-28.87
-55.32
-73.59
-84.47
-89.83
-90.69
-87.58
-80.77
-71.73
-61.88
-52.57
-44.40
-37.51
-32.10
-27.73
-23.56
-18.76
-13.55
-8.31
-3.65
0.15
3.15
5.59
7.87
10.70
15.04
19.19
24.88
32.69
42.43
53.88
66.52
79.54
92.11
103.57
113.17
120.78
126.16
128.87
129.27
128.20
126.30
124.47
124.05
126.40
132.99
144.42
159.67
177.63
196.96
214.61
227.73
234.63
234.38
226.03
213.85
198.50
180.16
159.00
132.07
97.47
55.65
9.20
-38.56
-85.17
-130.42
-174.23
-216.42
-261.54
-312.00
-366.20
-418.87
-463.77
-496.27
-515.16
-520.98
-515.46
-507.80
-505.49
-511.65
-524.97
-542.78
-563.74
-589.28
-621.57
-620.32
-564.07
-455.99
-321.77
-190.28
-78.55
9.62
76.79
127.95
167.99
193.82
203.25
197.55
182.25
164.74
152.06
148.28
155.09
171.72
189.72
200.94
201.15
191.60
174.32
156.89
144.88
141.75
148.77
161.71
175.83
187.56
195.02
197.16
193.42
182.77
164.95
142.38
115.10
84.26
52.31
22.54
-2.39
-22.21
-40.11
-60.65
-87.07
-119.46
-152.82
-179.34
-192.51
-190.69
-178.53
-164.82
-157.46
-160.04
-170.82
-184.26
-194.81
-200.89
-201.02
-195.50
-184.20
-166.16
-140.53
-107.09
-67.07
-23.70
18.48
55.41
83.31
100.92
108.87
108.58
103.31
96.45
90.37
86.44
85.49
86.48
88.95
92.05
93.95
94.83
95.69
97.53
101.84
110.79
125.87
150.18
187.27
232.44
275.73
309.52
328.43
330.77
337.68
357.87
393.92
445.36
496.84
539.10
566.25
575.10
565.27
520.45
434.22
312.73
170.70
24.28
-111.90
-228.75
-322.15
-390.96
-435.98
-459.12
-463.45
-456.01
-443.40
-429.17
-414.61
-398.45
-377.44
-347.43
-303.77
-243.19
-166.23
-79.74
5.81
77.69
124.11
137.73
118.16
73.25
16.60
-36.46
-73.08
-85.31
-72.25
-39.36
3.93
47.33
83.01
106.82
118.10
118.84
112.19
101.06
87.64
73.65
61.06
51.97
47.73
47.97
50.63
52.74
51.93
47.28
39.85
32.06
26.35
24.30
25.84
29.42
32.84
34.30
33.23
30.49
28.02
27.71
30.83
37.20
46.56
55.75
61.96
63.40
59.56
51.11
39.30
25.37
9.93
-8.10
-28.03
-49.65
-72.42
-94.99
-115.07
-130.24
-137.48
-134.00
-118.50
-92.45
-60.89
-31.37
-12.14
-8.07
-18.67
-38.44
-59.58
-74.99
-80.07
-73.44
-56.20
-31.44
-3.85
20.46
35.41
37.13
25.91
6.56
-13.83
-29.18
-37.14
-39.26
-38.95
-38.95
-39.81
-40.21
-38.85
-35.64
-32.06
-29.82
-29.77
-31.78
-35.21
-39.45
-44.38
-49.45
-52.79
-50.98
-40.14
-18.09
13.76
50.20
83.94
108.72
121.66
124.35
120.34
113.65
106.51
98.59
88.22
73.33
53.42
29.49
3.94
-20.45
-40.87
-55.26
-62.24
-60.76
-50.90
-34.03
-13.75
4.06
13.00
9.27
-5.87
-25.55
-39.20
-38.62
-20.55
11.08
46.89
76.44
92.69
94.21
83.26
66.18
47.46
29.10
11.30
-6.00
-21.61
-33.39
-39.19
-38.63
-33.18
-26.30
-21.26
-20.14
-22.83
-27.30
-30.75
-30.94
-27.27
-20.74
-13.96
-9.54
-8.99
-12.05
-16.82
-20.64
-21.31
-18.12
-12.07
-5.71
-1.73
-1.75
-5.63
-11.41
-16.17
-17.46
-14.43
-8.35
-2.32
0.24
-2.72
-11.20
-22.83
-34.12
-41.75
-43.74
-39.46
-29.67
-16.13
-1.62
10.03
14.84
10.71
-0.83
-13.53
-18.33
-7.70
20.45
61.07
103.49
135.82
149.98
143.63
120.62
88.43
54.87
25.71
4.07
-9.50
-15.40
-14.73
-9.45
-1.95
4.23
4.84
-4.24
-24.46
-53.46
-84.27
-106.95
-112.71
-97.47
-63.99
-21.05
19.79
48.53
59.68
53.61
35.83
14.59
-1.91
-8.25
-3.26
10.32
27.36
42.70
53.35
59.30
62.87
67.07
73.63
82.27
90.53
94.78
91.39
78.06
54.79
24.10
-9.22
-39.66
-63.07
-77.81
-84.95
-87.09
-86.75
-85.11
-82.37
-78.67
-74.85
-72.39
-72.76
-76.37
-82.20
-88.53
-93.62
-96.86
-99.05
-101.88
-106.81
-114.50
-124.38
-134.91
-144.88
-152.28
-155.96
-155.52
-150.82
-141.58
-127.44
-108.30
-83.82
-56.41
-28.52
-2.76
18.47
33.28
40.37
39.47
32.12
21.94
14.14
14.57
26.82
50.46
80.89
111.19
134.96
148.84
153.21
150.76
145.00
138.25
131.38
124.68
118.61
114.08
111.80
111.48
111.68
110.52
106.60
99.67
91.05
82.97
77.90
77.74
82.72
90.55
96.65
95.03
80.85
52.93
14.99
-25.26
-59.18
-80.87
-89.45
-88.64
-84.36
-81.27
-80.75
-81.04
-79.52
-74.51
-66.76
-58.68
-52.71
-50.26
-51.19
-54.30
-57.64
-58.98
-55.46
-44.07
-22.72
8.41
45.52
82.26
111.80
129.30
133.78
127.81
115.58
99.91
83.25
65.46
46.00
25.47
6.05
-9.22
-18.15
-20.26
-16.58
-8.42
2.56
14.67
25.51
31.86
30.35
19.18
-0.59
-24.81
-47.54
-63.77
-71.11
-70.10
-63.15
-52.71
-39.93
-24.88
-7.41
11.45
29.36
43.40
51.56
53.42
50.11
43.59
35.63
27.08
17.49
6.28
-7.39
-23.31
-40.20
-56.02
-68.49
-76.16
-78.99
-78.35
-76.64
-76.31
-78.70
-83.83
-90.32
-96.03
-99.46
-100.06
-98.54
-96.61
-96.02
-97.84
-102.59
-110.31
-120.39
-131.50
-140.99
-145.08
-140.23
-125.24
-101.10
-72.12
-44.18
-21.33
-5.01
6.45
16.33
27.57
41.34
57.23
74.03
90.70
107.31
124.11
140.55
154.88
164.87
168.82
166.44
159.21
150.22
142.16
137.27
136.79
140.45
146.09
149.74
146.58
132.47
106.23
70.75
32.40
-1.31
-24.72
-36.17
-38.00
-34.69
-30.24
-26.45
-22.91
-18.29
-11.93
-4.58
2.10
6.61
8.57
8.74
8.40
8.72
9.76
10.76
10.38
7.57
2.01
-5.62
-13.82
-20.90
-25.61
-27.55
-27.15
-25.40
-23.37
-21.86
-21.07
-20.79
-20.57
-20.13
-19.41
-18.65
-18.20
-18.38
-19.40
-20.99
-22.62
-23.70
-23.78
-22.73
-20.74
-18.24
-15.68
-13.60
-11.90
-10.05
-7.23
-2.68
3.91
12.30
21.47
30.01
36.03
38.46
36.93
31.75
23.74
13.66
2.03
-11.18
-23.90
-36.89
-50.28
-63.41
-74.95
-83.65
-88.63
-89.88
-88.38
-85.54
-83.44
-83.67
-87.49
-95.13
-104.84
-112.51
-112.38
-99.29
-71.14
-31.25
12.65
51.10
76.43
86.03
82.60
72.18
61.00
53.79
52.30
57.13
67.62
81.74
95.93
105.61
106.65
97.09
78.82
55.93
33.12
13.00
-4.72
-22.29
-42.05
-64.69
-89.06
-112.07
-130.63
-142.45
-146.50
-142.66
-130.99
-111.61
-82.45
-46.47
-6.88
33.03
70.37
102.57
127.71
144.98
154.81
158.47
157.23
153.67
147.99
139.74
127.67
110.34
86.85
57.28
22.44
-16.34
-56.84
-96.42
-131.03
-155.43
-164.80
-156.72
-133.12
-100.24
-66.89
-40.62
-25.42
-20.57
-22.29
-26.46
-30.59
-34.32
-38.46
-43.71
-49.46
-54.52
-57.77
-59.18
-60.05
-62.12
-66.72
-73.85
-82.57
-90.68
-95.74
-96.32
-91.01
-79.62
-62.82
-41.49
-16.36
11.63
41.98
73.71
105.58
136.11
163.49
185.81
201.49
210.93
212.71
206.68
193.48
174.39
150.89
124.13
94.84
62.41
28.16
-7.38
-42.94
-76.77
-106.54
-129.81
-144.83
-151.35
-149.71
-140.97
-126.92
-108.78
-87.03
-61.62
-32.51
-0.19
33.75
67.89
100.74
129.61
150.83
160.03
153.66
130.96
95.36
54.06
15.72
-12.96
-29.81
-36.91
-38.61
-38.78
-38.95
-38.58
-36.48
-32.49
-28.24
-26.36
-28.68
-34.90
-42.98
-49.87
-53.12
-52.02
-47.81
-43.00
-40.20
-40.97
-45.60
-53.41
-62.94
-71.97
-77.41
-75.72
-64.05
-41.86
-11.91
20.16
47.86
66.43
74.62
74.60
70.26
64.99
60.20
55.57
50.23
44.06
38.10
33.88
32.31
33.00
34.49
35.09
33.53
29.76
24.74
19.95
16.63
15.30
15.55
16.36
16.59
15.52
13.12
9.98
7.01
4.98
4.18
4.38
5.01
5.43
5.18
4.26
2.94
1.70
0.93
0.77
1.13
1.71
2.27
2.57
2.63
2.52
2.43
2.54
2.90
3.39
3.97
4.66
5.39
6.24
7.25
8.57
10.35
12.68
15.42
18.49
21.83
25.17
28.53
31.33
33.27
34.14
33.96
32.62
30.29
27.12
23.20
18.59
13.01
6.20
-2.62
-12.97
-24.68
-37.09
-49.35
-60.26
-68.39
-72.93
-73.27
-69.02
-60.24
-47.40
-31.10
-12.46
7.20
26.31
42.92
55.11
61.40
61.27
54.58
43.88
31.86
20.99
12.99
8.07
5.28
2.97
-0.22
-4.55
-8.75
-10.94
-9.39
-3.46
5.58
15.02
21.84
23.89
21.10
15.70
10.97
9.86
14.26
24.10
37.45
50.89
59.94
59.90
47.13
20.78
-15.41
-52.86
-80.46
-88.46
-72.92
-38.50
2.93
36.50
50.38
40.44
11.23
-27.33
-64.72
-94.08
-114.09
-126.29
-133.15
-135.84
-133.58
-125.06
-110.21
-90.95
-69.85
-51.01
-35.96
-23.98
-12.86
-0.44
14.29
30.38
45.56
57.32
63.59
64.20
60.31
53.88
46.78
39.76
31.85
20.74
4.22
-17.90
-42.18
-62.11
-70.37
-62.31
-38.54
-5.39
27.64
51.86
62.98
62.16
54.37
45.45
39.09
36.29
36.31
38.31
42.20
47.59
52.06
50.56
37.29
9.30
-30.28
-71.90
-103.12
-114.28
-103.24
-76.09
-43.67
-15.09
5.57
19.52
29.86
37.69
40.43
34.03
16.71
-8.05
-32.43
-47.98
-49.66
-38.24
-19.08
0.86
16.11
24.67
27.19
25.46
20.90
14.54
7.59
2.27
1.58
8.41
24.26
47.58
73.61
95.54
106.53
102.14
82.07
50.11
12.43
-24.52
-56.33
-80.21
-94.30
-96.61
-85.11
-58.84
-19.65
26.67
71.08
103.35
115.94
106.35
78.05
38.96
-1.35
-34.52
-56.02
-64.44
-62.54
-54.30
-42.81
-29.20
-13.24
5.28
25.18
43.60
57.49
64.95
66.52
64.37
61.01
57.86
54.55
49.38
39.87
24.69
4.20
-19.52
-43.90
-65.01
-80.57
-89.89
-91.38
-85.22
-73.73
-61.30
-53.08
-53.37
-62.70
-78.03
-93.90
-104.70
-107.29
-101.68
-90.05
-72.80
-53.37
-33.08
-12.15
9.03
29.17
46.47
59.45
67.68
72.03
74.05
75.86
78.89
83.60
89.44
95.56
100.90
104.82
107.23
108.11
107.55
105.30
100.70
92.85
81.26
65.55
46.05
24.18
1.30
-20.76
-40.31
-56.04
-68.32
-75.74
-77.83
-74.58
-66.29
-54.18
-39.59
-24.09
-9.55
2.39
10.87
14.89
14.08
10.07
2.67
-7.42
-18.95
-30.67
-41.17
-48.78
-52.92
-53.56
-51.36
-47.95
-44.88
-43.31
-43.94
-47.83
-52.32
-55.50
-55.76
-52.19
-45.18
-35.66
-24.96
-14.58
-5.26
3.13
10.13
15.27
17.53
15.49
8.03
-3.64
-20.27
-41.76
-66.61
-92.33
-114.41
-127.09
-125.25
-106.74
-74.26
-35.48
0.27
25.63
37.41
37.76
31.97
25.23
20.33
16.84
12.22
4.67
-5.63
-16.85
-26.43
-32.54
-34.47
-32.61
-26.60
-15.98
-0.53
18.51
37.74
52.49
58.75
55.13
44.56
32.90
25.77
26.22
33.56
44.34
54.70
62.13
66.16
67.67
67.63
66.29
63.56
59.55
54.95
50.81
47.99
46.81
46.85
47.27
47.24
46.36
44.65
42.64
41.05
40.20
40.07
39.90
38.15
32.60
21.85
6.33
-10.90
-24.94
-31.16
-27.43
-15.52
-1.00
9.49
11.32
3.42
-11.75
-29.77
-46.73
-60.41
-69.50
-72.86
-69.48
-58.84
-42.69
-25.62
-13.18
-9.69
-16.03
-28.99
-42.55
-50.29
-47.59
-32.75
-6.95
26.24
61.52
92.68
113.94
120.74
112.68
92.94
66.86
40.03
16.37
-2.67
-17.10
-27.63
-34.82
-38.88
-40.22
-39.87
-39.17
-39.27
-40.84
-43.63
-46.96
-49.93
-51.91
-52.84
-53.31
-54.06
-55.86
-58.93
-62.99
-67.53
-72.00
-75.98
-79.61
-83.35
-87.57
-92.62
-98.22
-103.55
-107.44
-108.78
-106.05
-98.26
-84.99
-66.33
-43.03
-16.03
13.44
43.84
72.96
99.11
120.76
136.65
147.14
151.52
150.07
143.73
133.91
122.31
110.85
101.14
94.29
91.10
91.41
94.65
99.72
104.94
108.45
108.60
103.93
93.56
77.53
56.23
30.97
3.75
-23.02
-46.87
-65.42
-76.91
-80.42
-75.77
-64.29
-48.05
-29.55
-11.53
3.47
13.58
17.54
13.87
3.41
-12.48
-32.09
-53.43
-74.94
-95.27
-113.34
-128.45
-140.27
-148.49
-153.22
-155.05
-153.49
-147.97
-137.71
-121.94
-100.27
-73.03
-41.14
-6.50
27.79
59.13
85.67
106.59
122.08
132.93
140.09
144.29
145.69
144.24
140.21
134.26
127.38
120.68
115.02
110.71
107.74
106.03
105.74
106.78
107.72
105.60
97.03
80.01
55.46
27.21
0.32
-21.41
-36.93
-47.87
-56.72
-64.80
-71.44
-74.82
-73.82
-69.12
-63.03
-58.09
-55.54
-54.83
-54.26
-52.40
-48.65
-43.59
-38.38
-34.19
-31.63
-30.68
-30.86
-31.23
-30.59
-27.68
-21.77
-13.08
-2.95
6.60
13.74
17.57
18.44
17.42
15.62
13.40
10.28
5.57
-0.92
-8.41
-15.58
-21.05
-24.19
-25.21
-24.81
-23.70
-22.09
-19.92
-16.73
-12.36
-6.97
-1.19
4.19
8.45
11.21
12.61
13.20
13.78
14.93
16.88
19.37
21.88
23.98
25.57
27.03
29.08
32.40
37.19
42.87
48.02
50.84
49.72
43.89
33.57
19.98
4.66
-11.02
-26.01
-40.15
-53.61
-66.56
-79.09
-91.35
-103.30
-114.31
-122.84
-125.59
-119.30
-102.06
-74.91
-42.15
-10.14
15.23
30.73
36.73
36.47
33.63
30.76
28.46
26.11
23.08
19.59
16.72
15.60
16.58
18.90
21.19
22.09
20.94
18.06
14.55
11.67
10.39
10.90
12.61
14.47
15.44
14.88
12.89
10.13
7.59
6.18
6.36
7.94
10.17
12.07
12.71
11.72
9.40
6.69
4.83
4.83
7.09
11.05
15.38
18.43
18.95
16.73
12.80
9.17
7.96
10.48
16.47
24.07
30.42
32.95
30.55
24.18
16.69
11.76
12.55
20.21
33.10
46.74
54.98
51.89
34.31
3.51
-34.27
-69.42
-92.19
-96.03
-80.30
-50.63
-17.02
9.54
20.27
11.29
-15.35
-52.39
-89.68
-117.42
-129.23
-124.90
-108.96
-89.32
-73.58
-65.36
-62.92
-60.69
-52.70
-36.24
-13.12
12.08
34.91
53.99
71.59
91.35
114.96
139.84
159.52
166.37
155.43
126.97
86.89
44.08
6.85
-20.03
-36.17
-44.36
-48.33
-50.56
-51.71
-50.66
-46.10
-38.14
-28.83
-21.46
-19.21
-23.77
-34.75
-50.06
-66.57
-81.40
-92.81
-100.33
-104.27
-104.99
-102.42
-94.54
-81.08
-62.47
-39.88
-15.26
9.01
30.67
48.16
60.83
68.95
73.26
74.90
74.87
73.81
72.06
69.69
66.88
63.86
60.86
58.01
55.52
53.59
52.16
51.09
50.01
48.81
47.48
45.77
43.29
39.73
34.77
28.21
20.27
10.92
0.74
-9.33
-18.50
-26.23
-32.42
-37.37
-41.61
-45.52
-49.12
-51.71
-51.93
-49.09
-42.75
-33.35
-22.08
-10.46
0.03
8.46
14.82
19.76
23.57
26.41
27.79
26.20
20.49
10.10
-5.10
-24.74
-47.59
-71.49
-92.58
-106.03
-107.45
-94.79
-69.98
-38.89
-9.27
12.45
23.28
24.61
20.68
16.34
15.04
17.91
24.47
33.86
45.61
59.05
72.97
85.17
92.86
93.80
87.03
73.58
54.59
34.21
15.75
0.76
-11.00
-20.92
-30.30
-39.37
-46.12
-47.03
-38.35
-18.92
8.82
39.20
65.39
82.24
88.89
88.87
88.14
91.87
101.96
116.72
132.12
143.04
144.44
132.11
103.20
57.58
-1.15
-65.66
-125.54
-168.99
-188.86
-186.56
-171.50
-156.59
-152.06
-160.79
-177.92
-194.00
-200.12
-192.29
-172.08
-144.17
-113.08
-81.35
-49.48
-16.97
13.55
37.10
48.65
45.83
30.73
9.83
-8.43
-17.70
-15.54
-3.62
13.44
30.30
43.70
53.27
61.35
70.99
84.12
100.71
119.43
137.75
152.31
159.32
155.18
137.62
106.46
64.23
14.48
-34.12
-71.29
-90.38
-91.80
-81.98
-68.48
-56.07
-43.88
-28.60
-7.31
19.44
46.36
65.48
69.15
55.78
32.00
9.50
-1.12
4.22
20.51
35.99
38.89
24.44
-3.48
-33.50
-53.88
-60.61
-58.68
-54.85
-51.14
-43.79
-25.32
10.78
64.75
126.89
179.74
206.35
198.87
161.12
105.61
47.53
0.23
-27.80
-36.30
-29.73
-15.93
-3.81
-1.45
-13.85
-41.61
-79.86
-119.54
-149.83
-161.09
-148.13
-111.81
-59.66
-4.32
39.53
60.51
54.32
25.40
-14.56
-51.27
-72.83
-73.66
-53.03
-18.03
19.12
46.30
57.32
53.59
40.90
25.38
10.49
-3.27
-17.98
-34.72
-53.36
-73.16
-93.63
-115.58
-139.60
-164.60
-186.53
-199.69
-196.29
-173.40
-133.86
-84.41
-34.00
9.55
41.59
60.09
64.21
53.22
27.10
-12.14
-56.25
-94.28
-117.24
-122.27
-113.02
-95.40
-73.02
-44.99
-8.29
40.31
98.39
157.80
208.85
244.50
262.78
265.66
257.60
233.77
195.40
145.54
88.43
29.96
-23.24
-63.50
-89.95
-104.86
-111.78
-112.74
-108.76
-99.57
-82.83
-55.98
-17.24
32.94
92.24
156.88
222.96
285.14
330.58
347.09
328.54
279.00
211.33
140.66
77.82
27.49
-10.52
-35.76
-46.93
-39.90
-11.45
36.73
96.00
154.84
198.04
214.85
200.28
155.56
86.61
1.63
-90.19
-181.46
-268.07
-345.17
-407.53
-452.01
-477.95
-487.04
-483.07
-460.14
-419.88
-367.41
-309.83
-253.88
-204.02
-160.28
-118.23
-71.25
-14.44
50.45
116.82
175.56
218.81
243.03
250.17
246.35
238.28
230.40
222.40
212.33
199.13
184.21
171.21
164.05
164.15
168.49
170.09
160.04
132.76
89.27
37.16
-12.77
-51.21
-73.84
-81.59
-78.26
-67.78
-52.54
-33.99
-14.74
0.82
7.80
3.57
-10.00
-27.07
-40.66
-45.76
-41.02
-28.82
-13.23
2.10
14.92
24.42
30.34
32.54
31.01
26.32
19.48
11.69
4.32
-2.16
-7.72
-12.64
-17.29
-21.75
-25.93
-29.70
-33.16
-36.46
-39.86
-43.42
-46.64
-48.69
-48.81
-46.71
-42.79
-38.18
-34.14
-31.68
-31.26
-32.84
-36.12
-40.44
-44.39
-45.80
-42.21
-31.96
-15.64
3.35
19.82
28.93
28.62
20.82
10.74
4.06
4.27
11.33
22.33
33.75
43.22
50.30
55.78
60.34
63.59
64.29
61.31
54.49
45.04
35.04
26.75
21.72
20.42
21.87
24.58
27.00
28.29
28.59
28.71
29.84
32.95
38.47
45.74
53.70
61.24
67.57
72.62
77.05
81.90
88.23
96.67
106.43
116.07
123.69
127.51
126.57
120.91
111.37
98.59
86.01
74.34
62.65
48.92
31.09
8.19
-18.96
-47.82
-75.27
-98.70
-117.81
-134.08
-150.03
-168.35
-190.89
-218.54
-251.11
-287.10
-322.74
-352.14
-367.75
-363.12
-336.17
-291.01
-236.89
-184.36
-140.60
-106.82
-78.88
-49.85
-15.35
23.86
62.73
94.50
114.25
120.76
116.39
105.62
93.44
82.90
74.21
66.17
57.69
49.53
44.83
47.01
58.27
78.63
103.77
126.72
141.63
145.81
140.17
127.93
110.81
90.70
72.62
60.01
54.54
57.80
70.02
89.59
113.39
134.10
147.01
156.57
165.41
173.10
180.49
188.94
199.55
212.06
217.45
206.73
181.67
140.99
81.91
8.24
-72.10
-150.22
-219.30
-284.14
-349.27
-406.03
-451.23
-487.35
-513.85
-530.05
-536.32
-483.60
-353.84
-232.16
-148.07
-83.74
-33.91
6.16
39.33
66.32
86.89
92.95
80.86
60.38
36.87
10.46
-16.11
-41.11
-65.22
-90.81
-126.80
-150.71
-140.77
-99.77
-48.95
-3.94
30.46
55.85
75.62
88.66
94.68
96.27
94.05
87.91
80.69
75.30
72.99
73.87
75.32
75.57
73.48
67.87
58.64
48.16
38.99
32.44
28.92
27.14
25.86
23.10
17.36
8.54
-1.66
-11.32
-19.26
-24.86
-28.52
-30.91
-33.69
-37.96
-43.81
-50.60
-57.55
-65.34
-71.34
-73.43
-69.67
-59.48
-43.74
-25.03
-6.87
7.54
16.53
20.66
21.62
21.61
22.24
24.42
27.98
32.42
37.57
43.62
51.07
59.68
68.91
78.21
87.70
97.36
107.43
118.41
130.64
144.43
159.26
174.24
188.32
201.07
211.13
216.74
216.03
207.27
189.31
161.37
123.60
73.87
17.82
-37.34
-85.82
-124.67
-153.70
-174.04
-187.76
-196.47
-200.96
-201.12
-197.70
-192.17
-186.17
-180.99
-176.89
-174.43
-174.50
-178.28
-186.34
-198.45
-211.64
-220.64
-222.31
-212.51
-191.79
-164.89
-138.41
-117.72
-105.74
-102.31
-105.13
-112.21
-122.53
-136.50
-154.34
-175.01
-196.00
-214.56
-228.17
-235.07
-235.12
-228.96
-217.71
-201.74
-180.31
-151.84
-114.14
-68.15
-15.47
40.37
94.69
142.35
179.37
203.57
214.46
212.62
202.62
189.30
175.24
161.15
146.45
130.96
115.64
102.27
92.41
92.48
107.52
137.72
179.34
226.16
272.41
314.33
350.25
379.85
410.66
449.76
499.27
557.35
619.74
682.47
743.85
804.50
820.85
764.59
631.77
446.11
245.68
61.09
-93.91
-218.22
-316.70
-396.05
-455.70
-486.66
-495.70
-492.01
-484.38
-479.77
-481.71
-489.77
-501.99
-510.69
-509.29
-495.32
-476.30
-457.18
-441.30
-429.41
-417.77
-402.27
-377.17
-339.98
-292.70
-238.71
-181.00
-122.16
-63.40
0.02
71.87
153.06
238.75
319.85
387.68
436.38
462.93
467.61
461.41
455.66
456.68
463.62
471.71
477.42
480.68
483.88
490.57
514.23
564.96
642.59
736.48
832.79
921.67
999.25
1065.44
1054.24
925.91
687.64
393.05
105.50
-133.92
-311.71
-433.02
-511.66
-559.95
-582.47
-576.58
-541.37
-482.63
-410.96
-338.35
-280.41
-248.89
-248.92
-269.39
-293.62
-309.21
-312.72
-307.04
-297.29
-288.58
-284.07
-285.50
-289.70
-293.81
-297.63
-302.53
-304.48
-298.10
-279.37
-247.73
-207.19
-161.66
-114.62
-69.45
-29.91
0.85
19.52
24.21
16.78
3.00
-8.13
-8.38
5.74
31.25
59.43
79.91
86.00
77.16
58.04
35.46
15.13
0.09
-9.11
-13.36
-13.89
-11.81
-8.43
-5.24
-3.90
-5.67
-11.01
-19.07
-28.14
-35.85
-39.63
-38.04
-32.13
-24.81
-21.07
-25.94
-41.78
-66.41
-93.18
-112.16
-116.40
-104.24
-79.83
-51.03
-25.44
-7.15
3.99
10.98
17.07
23.58
30.09
35.37
38.52
39.51
38.86
37.01
33.95
30.50
27.65
27.98
34.49
48.59
68.50
89.20
104.19
107.08
96.85
76.67
52.49
29.87
11.74
-2.16
-13.76
-24.75
-35.37
-44.19
-49.74
-51.03
-48.51
-43.44
-37.11
-29.84
-21.05
-11.03
-1.55
4.13
3.39
-3.65
-13.32
-19.86
-18.42
-7.84
7.96
22.43
29.85
28.26
19.91
9.03
-0.86
-8.76
-15.65
-22.96
-30.79
-37.88
-42.71
-44.55
-44.05
-43.02
-43.81
-47.80
-54.76
-62.69
-68.80
-70.17
-64.88
-52.67
-34.92
-13.98
7.55
27.62
44.97
59.13
69.88
76.87
79.40
76.60
67.93
53.70
35.49
15.81
-2.18
-15.71
-23.18
-24.52
-20.98
-14.42
-6.83
0.57
7.40
14.30
22.03
30.74
39.57
46.80
50.78
50.22
44.99
36.36
26.85
19.32
16.43
20.25
31.63
49.27
69.15
85.00
88.48
75.33
46.85
9.94
-25.35
-49.73
-58.60
-53.10
-38.51
-21.24
-6.07
4.57
9.96
10.30
6.96
2.89
2.53
9.87
26.18
48.50
70.22
84.42
87.63
81.68
71.72
62.40
54.59
44.88
29.00
5.84
-20.30
-41.71
-51.99
-50.51
-42.66
-36.16
-36.31
-42.76
-50.95
-56.36
-58.44
-61.10
-70.03
-87.54
-109.83
-128.39
-134.80
-126.04
-106.33
-86.13
-73.73
-72.94
-81.15
-91.36
-96.54
-93.91
-86.33
-80.06
-79.93
-85.19
-89.28
-82.93
-59.54
-19.58
28.95
74.21
106.05
120.45
120.54
113.54
106.89
104.93
108.08
114.05
120.01
124.00
125.19
123.51
119.13
112.69
105.56
99.30
95.03
92.69
91.37
90.53
91.29
96.45
108.99
129.98
156.98
184.33
205.31
214.86
211.52
197.28
175.80
150.07
121.14
88.20
50.28
8.05
-35.94
-77.85
-113.95
-141.91
-161.97
-176.31
-187.93
-199.36
-211.99
-226.41
-242.92
-261.58
-281.46
-300.19
-313.38
-315.55
-302.30
-272.45
-228.99
-178.07
-126.61
-80.17
-42.98
-18.16
-8.53
-16.53
-42.98
-85.55
-138.24
-192.39
-234.30
-252.99
-243.39
-208.07
-155.78
-97.44
-41.97
5.57
43.89
73.93
96.64
112.51
121.63
124.12
120.69
112.88
102.88
93.11
85.68
81.07
78.43
76.12
72.40
66.27
57.71
47.23
35.27
22.19
8.64
-3.40
-10.00
-6.52
9.90
38.39
73.73
108.10
134.26
148.20
150.15
143.79
133.66
123.04
113.37
104.88
97.62
91.92
89.28
88.21
86.86
83.31
76.59
67.14
56.98
48.64
43.97
43.33
45.17
47.05
46.59
42.69
35.89
28.21
22.48
21.22
25.69
34.65
44.60
50.28
46.55
30.33
1.91
-34.19
-70.20
-97.41
-108.65
-100.51
-74.75
-37.86
1.33
34.74
57.80
68.71
70.61
68.55
65.45
60.36
50.04
33.22
11.09
-11.93
-31.17
-45.53
-57.92
-73.49
-96.06
-125.28
-156.18
-181.65
-195.77
-191.47
-171.21
-142.42
-113.03
-87.66
-66.86
-48.78
-31.65
-14.82
0.98
13.50
21.26
24.25
23.79
21.99
20.87
21.56
24.03
27.29
29.27
28.70
25.59
21.06
16.78
14.25
14.17
16.17
19.04
20.82
20.32
17.67
14.16
11.64
11.63
14.89
20.94
28.25
34.55
37.67
35.81
27.74
13.13
-6.50
-27.40
-44.10
-50.75
-44.59
-27.34
-4.90
15.08
26.19
26.35
17.98
6.28
-3.42
-8.14
-7.58
-3.53
1.77
6.59
10.16
12.89
15.82
20.08
26.11
33.27
40.45
46.53
50.51
51.53
48.43
39.54
23.26
-0.79
-30.42
-60.90
-85.35
-98.45
-98.17
-85.98
-65.93
-42.50
-19.76
-0.55
13.43
21.46
23.50
20.44
13.98
6.29
0.00
-2.04
2.29
13.59
30.13
47.75
61.22
67.06
65.06
58.41
51.66
47.66
45.15
38.67
21.64
-9.09
-49.70
-89.81
-116.54
-120.77
-101.65
-67.01
-29.67
-1.12
13.19
15.28
11.26
7.37
6.38
7.26
7.59
6.22
4.45
4.67
8.34
14.45
20.10
22.55
20.97
17.44
15.40
17.65
24.52
33.57
41.03
43.72
40.51
32.47
22.00
11.43
2.70
-2.76
-4.28
-2.38
0.68
1.05
-5.31
-20.19
-42.00
-65.43
-83.23
-90.05
-84.50
-69.36
-49.79
-30.75
-15.09
-3.41
5.12
11.20
14.73
15.49
13.70
10.39
7.10
5.16
5.15
6.65
8.48
9.37
8.72
6.73
4.30
2.41
1.68
2.00
2.69
2.87
1.98
0.16
-1.87
-3.21
-3.30
-2.27
-0.99
-0.60
-1.89
-4.85
-8.51
-11.49
-12.31
-10.23
-5.47
0.77
6.72
10.40
10.12
5.44
-2.14
-9.10
-10.67
-3.13
14.07
37.14
58.96
71.86
71.42
58.18
37.05
14.66
-3.77
-15.92
-22.03
-23.65
-22.29
-19.22
-16.29
-16.05
-20.45
-29.99
-42.22
-53.13
-58.91
-58.21
-52.59
-45.22
-38.36
-31.18
-20.66
-3.46
21.18
50.01
76.66
94.52
99.72
92.11
76.36
58.12
41.45
27.62
15.57
3.70
-8.41
-19.62
-27.89
-31.45
-30.36
-26.34
-21.87
-19.34
-19.95
-23.45
-28.63
-33.88
-37.84
-40.12
-41.27
-42.34
-44.33
-47.59
-51.58
-54.98
-56.03
-52.96
-44.83
-31.65
-14.44
4.93
24.10
41.27
55.50
66.54
74.88
81.08
85.41
87.85
88.90
89.03
89.24
89.96
89.78
85.84
74.78
55.04
28.36
-0.41
-25.58
-43.30
-53.05
-56.75
-56.22
-51.08
-38.88
-17.55
11.71
43.20
68.24
79.66
75.02
57.56
34.29
12.41
-3.38
-11.83
-13.96
-11.24
-4.78
3.81
11.91
16.04
13.37
3.37
-11.18
-25.06
-33.22
-33.01
-25.37
-13.81
-2.57
5.78
10.24
11.13
9.24
4.98
-1.52
-9.89
-19.02
-27.36
-33.27
-35.89
-35.54
-33.26
-30.63
-29.05
-29.32
-31.38
-34.65
-38.16
-41.28
-43.94
-46.20
-48.34
-50.38
-51.91
-52.11
-50.10
-45.09
-36.07
-24.44
-11.49
1.44
13.45
24.33
34.44
44.34
54.51
64.77
74.05
81.24
85.11
85.08
81.36
74.90
66.79
57.77
47.77
35.80
21.30
3.87
-15.70
-35.34
-52.21
-64.02
-69.65
-69.89
-67.11
-64.00
-63.02
-65.45
-71.37
-79.43
-87.00
-90.37
-85.53
-69.71
-42.81
-8.36
26.86
55.54
72.76
77.93
74.90
69.83
68.04
71.52
78.09
82.45
78.72
63.35
36.83
3.89
-28.33
-52.70
-64.68
-63.56
-51.80
-33.36
-11.76
10.69
32.56
52.38
67.66
75.45
73.64
62.10
43.33
21.70
1.72
-13.12
-21.62
-24.67
-24.59
-23.65
-23.46
-24.58
-26.64
-29.11
-31.80
-35.08
-38.54
-43.59
-50.73
-59.64
-69.41
-78.87
-86.99
-93.25
-97.68
-102.00
-105.91
-108.82
-109.85
-107.89
-101.89
-91.10
-75.32
-55.07
-30.25
-3.57
22.87
47.40
68.90
86.76
100.78
111.16
118.20
122.47
124.47
124.96
124.61
123.77
122.61
120.83
118.07
112.98
104.47
91.51
73.81
51.86
26.74
0.23
-25.85
-49.82
-70.41
-86.52
-97.20
-101.56
-98.89
-88.92
-71.93
-49.47
-24.42
-0.72
17.65
27.54
27.34
17.25
-0.98
-24.71
-51.43
-78.59
-105.30
-131.20
-156.02
-179.47
-201.21
-222.73
-240.91
-251.30
-248.72
-228.54
-188.62
-130.95
-62.00
9.08
73.38
123.75
158.93
181.96
196.97
206.78
212.34
213.53
210.64
205.08
199.35
195.55
194.10
195.76
196.98
194.77
187.58
175.27
158.69
139.42
118.86
97.69
74.22
49.67
24.92
0.92
-21.12
-39.84
-54.04
-63.07
-67.16
-67.30
-64.80
-61.15
-57.50
-54.45
-52.08
-49.99
-47.58
-44.31
-39.99
-34.64
-28.86
-23.39
-18.86
-15.55
-13.28
-11.39
-9.09
-5.67
-0.82
5.13
11.43
17.35
22.18
25.56
27.41
27.95
27.79
28.24
31.03
37.67
47.87
58.82
64.94
59.85
39.41
4.37
-39.16
-81.46
-113.45
-129.96
-131.57
-123.76
-114.03
-108.60
-110.60
-119.59
-132.36
-144.24
-150.18
-145.55
-127.39
-96.12
-56.61
-17.94
8.27
11.83
-11.71
-58.09
-114.84
-165.33
-195.38
-198.70
-178.71
-146.09
-113.26
-88.67
-73.98
-65.41
-56.72
-43.17
-23.43
1.16
27.87
53.67
75.61
91.15
97.57
94.30
83.06
67.47
51.58
38.23
28.06
19.76
11.70
4.05
-0.85
0.71
11.86
33.01
60.94
89.83
113.60
128.22
133.20
131.31
126.21
120.43
114.28
106.40
95.65
82.41
68.98
58.34
52.56
51.53
53.20
54.66
53.38
48.50
40.83
32.37
25.29
21.04
19.85
20.82
22.42
23.19
22.31
19.71
16.04
12.29
9.46
8.15
8.52
10.25
12.63
14.87
16.23
16.41
15.39
13.91
12.69
12.51
13.90
16.99
21.64
27.30
32.92
36.69
36.42
30.23
18.12
2.71
-11.17
-17.87
-14.32
-0.92
18.15
36.91
50.02
55.29
53.95
49.23
44.26
40.26
36.44
30.14
20.54
7.64
-7.03
-21.06
-32.56
-40.30
-43.98
-43.82
-40.68
-36.34
-34.20
-38.33
-51.94
-75.54
-105.67
-135.36
-156.63
-163.93
-156.33
-138.17
-116.87
-99.74
-91.04
-90.27
-92.69
-91.47
-80.60
-57.63
-24.90
10.97
42.02
61.88
68.86
65.98
59.02
53.68
53.09
57.49
65.12
73.96
82.04
86.59
84.91
74.04
53.43
26.50
0.95
-13.77
-11.25
7.49
34.65
58.88
70.98
68.60
56.24
41.32
28.68
17.89
4.98
-12.76
-32.80
-47.55
-48.24
-31.02
0.39
34.91
59.84
66.88
54.08
25.31
-12.49
-51.83
-86.52
-111.86
-123.67
-121.82
-108.71
-88.55
-65.78
-43.71
-24.05
-7.67
5.06
13.70
17.94
18.61
17.45
16.40
16.77
18.89
22.02
25.11
27.32
28.13
27.70
26.41
24.13
20.41
14.49
5.54
-7.00
-23.00
-41.20
-58.45
-70.24
-72.15
-61.93
-41.35
-16.36
4.93
15.64
13.17
0.51
-15.06
-26.15
-28.87
-24.05
-15.82
-8.67
-4.95
-4.13
-3.94
-2.27
1.31
5.66
8.95
9.98
8.94
7.14
5.99
5.91
6.15
5.77
4.61
4.36
7.98
17.96
34.37
54.18
72.12
82.36
82.15
71.92
54.72
34.69
15.53
-0.20
-10.99
-16.24
-16.25
-12.47
-7.62
-4.53
-5.30
-10.14
-17.65
-25.24
-30.43
-31.42
-27.75
-20.39
-11.95
-6.34
-7.94
-19.52
-39.70
-62.11
-76.81
-74.80
-52.46
-13.82
30.84
69.72
94.62
104.05
101.35
93.35
84.41
74.79
62.19
44.63
23.01
1.11
-16.12
-24.80
-23.59
-14.12
0.04
14.55
25.41
29.53
25.44
14.05
-1.83
-17.79
-30.21
-37.68
-41.55
-45.14
-52.14
-64.90
-82.61
-102.49
-119.64
-129.02
-127.33
-114.22
-92.50
-67.19
-43.88
-26.42
-15.91
-10.80
-8.36
-6.46
-4.50
-2.93
-2.04
-1.16
1.49
7.34
16.55
27.58
37.83
44.99
48.05
47.82
46.33
45.95
47.72
51.18
54.63
55.90
53.49
47.30
38.65
29.64
22.54
18.37
17.12
18.32
21.29
25.76
31.80
39.70
49.52
61.77
76.69
94.45
114.24
133.28
146.46
147.56
131.96
96.29
47.25
-4.08
-46.32
-71.98
-79.58
-73.38
-60.97
-48.11
-38.31
-32.29
-29.62
-29.80
-33.29
-41.02
-53.22
-68.11
-81.75
-88.44
-86.29
-78.30
-70.64
-68.53
-72.52
-77.58
-77.10
-65.11
-42.08
-15.19
5.11
10.77
0.62
-19.07
-38.11
-46.72
-40.57
-23.18
-2.47
14.30
24.43
29.89
34.55
40.58
46.56
48.72
43.78
31.77
16.76
4.59
0.05
4.60
16.12
30.72
44.52
54.95
60.88
62.17
59.17
53.31
47.33
44.62
47.75
56.53
67.32
74.40
73.15
62.93
48.41
36.76
33.35
38.43
46.61
49.87
41.89
21.23
-8.68
-41.61
-69.42
-85.64
-87.72
-77.44
-58.61
-34.89
-8.79
15.48
35.86
49.02
51.01
39.68
16.70
-12.07
-38.54
-53.84
-53.96
-41.21
-24.08
-13.67
-18.87
-42.49
-80.13
-122.43
-158.80
-181.06
-184.49
-168.17
-134.43
-88.36
-36.86
12.58
53.71
82.72
98.25
100.05
87.55
59.27
15.07
-40.91
-98.52
-144.37
-167.69
-166.14
-147.44
-125.96
-115.59
-122.98
-145.15
-171.28
-189.44
-192.24
-179.51
-156.28
-128.75
-101.14
-74.24
-47.02
-17.27
15.51
49.07
78.95
100.65
112.32
115.72
116.17
119.94
133.78
161.92
204.35
256.80
311.71
360.50
394.99
409.87
392.27
337.88
255.34
164.62
86.49
31.76
1.43
-15.47
-28.81
-44.19
-60.93
-75.30
-83.97
-84.38
-75.75
-58.80
-35.46
-7.88
21.14
49.29
73.04
87.64
88.95
76.31
54.25
31.12
15.21
10.42
15.26
23.19
25.56
15.55
-9.18
-45.88
-87.92
-126.96
-154.04
-160.73
-142.44
-101.48
-47.88
3.30
37.04
44.09
22.98
-18.41
-63.67
-94.09
-98.30
-77.63
-42.72
-9.34
16.59
33.74
43.02
45.18
39.49
24.38
-1.87
-39.08
-85.18
-136.59
-191.16
-247.68
-305.28
-362.20
-414.15
-454.11
-473.56
-465.93
-429.71
-370.98
-300.95
-231.77
-172.45
-125.97
-90.63
-62.71
-39.39
-19.78
-5.01
3.85
7.16
6.72
6.27
8.38
14.00
22.86
35.28
52.76
77.69
112.03
155.85
209.29
269.13
329.77
385.01
430.38
464.50
489.15
508.21
526.01
548.13
575.33
602.26
619.33
617.14
590.68
541.60
477.42
389.27
280.15
161.30
47.44
-50.28
-127.61
-185.27
-225.74
-251.58
-265.61
-268.35
-261.64
-248.46
-232.51
-217.79
-207.90
-205.21
-209.88
-219.23
-226.13
-222.82
-205.11
-173.44
-132.22
-87.73
-45.91
-11.03
14.06
28.45
30.51
15.93
-15.25
-55.49
-92.08
-114.00
-117.23
-104.92
-83.30
-58.60
-35.12
-14.89
1.58
14.03
22.24
26.72
29.49
33.50
40.99
52.63
66.68
79.64
87.48
86.68
75.11
52.46
20.31
-17.44
-54.70
-85.68
-105.89
-114.73
-116.39
-118.08
-126.77
-145.86
-173.65
-195.92
-202.03
-186.75
-153.07
-110.29
-68.70
-35.05
-11.04
5.56
18.39
28.86
37.32
43.65
47.64
49.87
51.63
53.89
56.62
59.15
58.58
53.16
43.58
33.25
27.29
29.91
41.87
59.50
76.12
84.89
82.72
71.21
54.75
37.92
23.19
10.57
-0.91
-11.71
-20.92
-26.52
-26.58
-21.04
-11.90
-1.93
6.24
11.42
14.09
15.83
18.58
23.95
32.43
43.65
56.38
68.51
76.99
78.33
69.97
50.48
23.96
-2.55
-21.81
-29.37
-25.14
-12.71
2.81
17.70
30.70
42.84
55.14
67.55
77.97
83.52
82.07
73.14
57.98
38.87
18.46
-1.63
-20.09
-37.02
-53.17
-69.08
-84.65
-98.93
-110.43
-117.65
-119.90
-117.73
-112.81
-107.21
-102.70
-100.28
-100.27
-102.64
-107.11
-112.84
-117.81
-118.64
-111.23
-92.64
-63.04
-26.51
10.15
40.01
58.80
66.26
65.55
61.14
56.51
52.97
49.97
46.50
42.22
37.74
34.21
32.40
32.30
33.10
33.41
31.99
28.22
22.37
15.52
9.03
4.08
1.05
-0.36
-0.90
-1.05
0.24
4.86
14.27
27.83
41.93
50.76
49.36
35.96
13.44
-11.25
-30.50
-39.46
-37.74
-28.52
-16.01
-2.99
9.40
20.20
27.10
26.03
13.37
-10.88
-41.25
-68.11
-81.60
-75.75
-53.15
-22.98
3.54
18.43
20.01
11.98
0.16
-11.05
-20.67
-30.37
-41.89
-55.31
-67.91
-75.81
-75.75
-67.00
-51.50
-32.98
-15.65
-1.93
7.87
15.48
23.71
34.99
50.56
70.20
91.44
109.59
119.20
115.53
95.30
61.14
20.54
-18.66
-48.36
-62.72
-59.98
-42.51
-16.41
10.42
30.51
37.29
28.80
7.45
-20.79
-51.04
-78.57
-99.78
-112.30
-114.43
-105.58
-86.14
-57.91
-24.82
8.32
37.54
60.18
75.53
84.61
89.36
91.93
93.75
95.24
95.89
94.98
91.87
86.48
79.52
72.29
66.36
62.86
62.11
63.47
65.66
67.12
66.77
64.34
60.46
56.42
53.44
52.28
53.29
56.59
61.98
68.49
73.71
73.93
65.28
45.56
15.97
-18.60
-51.16
-75.49
-88.53
-91.23
-87.40
-81.13
-74.96
-69.38
-63.68
-57.16
-50.15
-43.67
-38.58
-34.83
-31.43
-27.00
-20.59
-12.41
-3.82
3.03
6.14
4.31
-2.46
-12.88
-24.95
-36.52
-45.93
-52.22
-55.18
-55.00
-51.69
-46.05
-38.53
-29.72
-20.34
-11.19
-2.93
3.88
9.04
12.66
15.12
17.15
19.30
21.82
24.63
27.55
30.33
32.78
34.93
36.96
39.28
42.13
45.57
49.31
52.84
55.44
56.27
54.65
50.09
42.56
32.39
20.58
8.02
-4.32
-15.50
-24.86
-31.99
-36.93
-39.91
-41.25
-41.18
-40.10
-38.41
-36.43
-34.79
-33.49
-32.72
-32.54
-32.75
-33.01
-33.06
-32.74
-32.11
-31.51
-31.31
-31.90
-33.38
-35.47
-37.63
-39.36
-40.37
-40.81
-41.31
-42.63
-45.54
-50.26
-56.40
-62.99
-69.04
-73.65
-76.38
-77.66
-77.45
-76.12
-74.18
-72.15
-70.20
-67.78
-63.15
-53.78
-37.36
-13.11
17.15
49.37
78.63
100.90
114.46
119.89
119.22
114.59
107.51
98.76
88.99
79.15
70.40
63.64
59.16
56.56
55.16
54.44
54.03
53.86
54.01
54.59
55.77
57.80
60.86
64.92
69.64
74.19
77.52
78.61
76.86
72.48
66.54
60.72
56.74
55.60
57.22
60.56
64.28
67.67
71.20
76.42
85.26
99.08
117.99
140.73
165.23
189.19
210.73
228.70
242.68
252.64
258.61
260.31
256.67
245.97
226.24
195.94
154.71
103.81
45.90
-15.30
-76.34
-134.84
-189.98
-242.62
-294.84
-348.97
-406.66
-467.49
-528.29
-583.33
-625.43
-647.74
-645.82
-619.33
-572.95
-515.55
-457.82
-408.92
-373.58
-350.58
-333.93
-315.87
-290.63
-256.96
-218.07
-179.30
-145.08
-116.76
-92.57
-69.64
-46.36
-23.31
-2.63
13.93
26.67
38.14
51.81
70.27
93.53
119.02
143.11
163.36
179.91
195.26
212.79
234.60
260.16
286.58
310.28
328.74
341.38
349.04
352.67
352.39
347.52
337.54
322.97
305.52
287.06
268.39
248.61
225.62
197.36
163.13
124.04
82.32
40.24
-0.92
-40.98
-80.10
-117.94
-153.03
-183.21
-206.47
-221.83
-229.73
-231.54
-228.70
-222.03
-211.62
-197.37
-179.99
-161.77
-146.53
-138.38
-140.04
-151.37
-168.88
-186.95
-200.29
-206.39
-206.90
-206.54
-210.15
-219.46
-231.29
-238.55
-233.52
-211.64
-173.66
-124.93
-72.30
-20.71
28.46
76.43
123.98
168.85
205.19
226.16
227.98
213.07
190.20
171.38
166.98
181.68
212.95
253.04
292.94
326.12
350.17
365.96
375.07
377.44
370.98
353.13
323.46
285.36
245.54
211.49
188.10
175.55
169.23
162.19
148.27
124.43
91.07
50.62
6.08
-39.34
-81.57
-114.98
-132.76
-129.22
-102.67
-57.33
-2.72
49.87
91.80
120.07
137.44
149.43
160.30
170.53
176.96
175.27
162.91
140.39
110.52
76.32
39.33
-0.15
-41.44
-81.50
-114.72
-134.92
-138.70
-127.97
-110.01
-94.94
-91.67
-104.50
-132.16
-169.61
-211.25
-253.52
-295.13
-335.28
-371.32
-397.87
-408.32
-397.68
-365.36
-315.77
-256.47
-194.88
-135.60
-79.87
-27.65
19.80
58.48
82.82
88.57
75.71
49.44
17.99
-11.12
-34.65
-54.82
-77.35
-107.56
-146.78
-190.94
-231.99
-261.42
-273.38
-266.47
-243.18
-208.15
-166.20
-121.26
-76.20
-33.37
5.16
37.82
63.91
83.82
98.67
109.57
117.05
120.81
120.10
114.36
103.83
90.00
75.39
63.07
55.76
54.83
59.73
67.98
75.98
80.31
78.91
71.75
60.73
48.53
37.42
28.41
20.78
12.80
2.72
-10.19
-25.24
-40.60
-54.28
-65.15
-73.36
-80.12
-86.78
-93.98
-101.09
-106.40
-107.77
-103.32
-91.92
-73.30
-48.01
-17.20
17.37
53.42
88.23
118.86
142.73
158.09
164.47
162.60
154.27
141.81
127.49
113.32
100.87
91.50
86.33
86.25
91.51
101.63
115.31
130.61
145.33
157.22
164.34
165.29
159.54
147.57
130.89
111.69
92.35
74.97
60.87
50.57
43.82
39.82
37.34
35.09
32.05
27.69
22.30
16.81
12.35
9.73
9.09
9.88
11.16
11.99
11.61
9.58
5.43
-1.37
-11.51
-25.74
-44.57
-67.82
-94.26
-121.17
-144.58
-160.15
-164.44
-156.21
-137.07
-110.92
-82.61
-56.23
-34.01
-16.12
-1.57
10.70
21.02
28.90
33.60
34.86
33.55
31.38
30.29
31.66
35.62
40.97
45.69
47.90
46.64
42.36
36.59
31.28
27.96
27.24
28.69
31.17
33.21
33.53
31.14
25.59
17.09
6.63
-4.10
-13.15
-19.02
-21.41
-21.31
-20.62
-21.05
-23.39
-27.30
-31.87
-36.48
-41.33
-47.39
-55.35
-64.73
-73.60
-79.22
-79.46
-73.83
-63.88
-52.22
-41.44
-32.97
-26.98
-22.89
-20.24
-19.26
-20.49
-24.32
-30.20
-36.64
-41.62
-43.25
-40.18
-31.60
-16.94
4.17
31.26
62.27
93.01
117.89
131.75
132.12
120.51
101.83
82.22
66.27
55.37
47.85
40.88
32.61
23.24
14.56
8.33
4.75
2.09
-2.12
-9.55
-19.94
-31.13
-40.26
-45.18
-45.39
-42.12
-37.50
-33.36
-30.63
-29.21
-28.48
-27.83
-27.13
-26.61
-26.61
-27.18
-27.85
-27.76
-25.93
-21.63
-14.68
-5.42
5.31
16.35
26.50
34.73
40.33
43.02
42.86
40.29
35.99
30.89
26.06
22.46
20.68
20.63
21.59
22.49
22.42
21.07
18.84
16.60
15.04
14.31
13.89
12.88
10.47
6.37
0.86
-5.28
-11.04
-15.53
-18.12
-18.61
-17.31
-15.02
-12.89
-12.01
-13.11
-15.99
-19.57
-22.09
-21.83
-17.74
-9.95
0.34
11.36
21.38
29.27
34.64
37.61
38.50
37.67
35.46
32.35
28.87
25.60
22.97
21.14
20.01
19.30
18.71
17.99
17.04
15.81
14.28
12.42
10.23
7.72
5.00
2.20
-0.55
-3.12
-5.54
-7.85
-10.13
-12.23
-13.92
-14.85
-14.84
-14.03
-12.94
-12.32
-12.99
-15.28
-18.91
-22.90
-25.78
-26.08
-22.76
-15.74
-5.97
4.77
14.46
21.54
25.43
26.54
26.00
24.99
24.17
23.41
21.95
18.96
13.99
7.43
0.31
-6.02
-10.49
-12.60
-12.60
-11.15
-9.05
-7.00
-5.38
-4.44
-4.35
-5.31
-7.39
-10.46
-14.03
-17.37
-19.69
-20.47
-19.74
-18.21
-17.02
-17.28
-19.68
-24.11
-29.70
-34.95
-38.23
-38.25
-34.42
-27.07
-17.27
-6.44
4.05
13.25
20.67
26.23
30.00
32.07
32.46
31.23
28.58
24.99
21.05
17.35
14.38
12.42
11.51
11.45
11.82
12.09
11.81
10.84
9.41
8.05
7.31
7.38
7.90
8.06
7.04
4.44
0.59
-3.57
-6.91
-8.70
-9.01
-8.59
-8.58
-9.67
-11.78
-13.88
-14.56
-12.58
-7.59
-0.23
8.11
15.89
21.95
25.72
27.18
26.57
24.21
20.53
16.23
12.21
9.31
7.92
7.80
8.19
8.34
7.77
6.53
5.00
3.48
1.99
0.31
-1.83
-4.40
-7.04
-9.38
-11.26
-12.96
-15.02
-17.87
-21.55
-25.61
-29.20
-31.56
-32.31
-31.74
-30.71
-30.42
-31.75
-34.79
-38.53
-41.05
-40.08
-34.00
-22.63
-7.59
8.19
21.42
29.81
32.78
31.46
27.97
24.26
21.50
20.00
19.59
20.21
21.94
24.58
27.19
28.05
25.37
18.49
8.61
-1.35
-8.08
-9.55
-6.22
-0.74
3.39
3.61
-0.43
-7.02
-13.49
-17.58
-18.46
-16.77
-13.96
-11.43
-10.01
-9.79
-10.46
-11.66
-13.11
-14.69
-16.20
-17.16
-16.84
-14.43
-9.38
-1.78
7.38
16.48
23.58
27.25
27.02
23.64
18.69
14.01
10.88
9.59
9.54
9.65
9.10
7.70
6.02
4.94
5.18
6.71
8.82
10.41
10.51
8.75
5.43
1.32
-2.74
-6.24
-9.15
-11.78
-14.60
-17.90
-21.62
-25.41
-28.72
-31.04
-32.07
-31.78
-30.44
-28.54
-26.68
-25.33
-24.80
-24.96
-25.18
-24.47
-21.82
-16.64
-9.19
-0.57
7.61
13.76
17.00
17.26
15.25
11.90
7.96
3.63
-1.25
-6.99
-13.69
-21.06
-28.52
-35.47
-41.57
-46.79
-51.49
-56.14
-61.19
-66.78
-72.69
-78.45
-83.50
-87.50
-90.54
-93.32
-96.87
-102.25
-109.83
-118.88
-127.71
-134.00
-135.79
-132.20
-123.75
-112.27
-100.44
-91.01
-86.05
-86.51
-91.58
-98.63
-103.60
-102.02
-90.26
-66.79
-32.81
7.98
50.07
87.58
115.51
130.87
133.15
124.30
107.90
88.13
68.76
52.37
40.38
33.33
31.36
34.59
42.93
55.92
72.50
91.07
109.87
127.38
142.43
154.32
162.67
167.33
168.29
165.87
160.88
154.55
148.29
143.12
139.33
136.46
133.68
130.43
126.55
122.16
116.97
110.03
99.95
85.72
67.61
47.54
28.50
13.37
3.65
-1.34
-4.29
-9.09
-19.51
-38.05
-65.19
-99.07
-136.11
-171.86
-202.08
-223.56
-234.68
-235.59
-227.94
-214.52
-198.24
-181.42
-165.15
-149.20
-132.54
-114.26
-94.28
-73.65
-54.18
-37.78
-25.77
-18.52
-15.29
-14.55
-14.25
-12.45
-8.29
-2.65
2.16
3.69
1.30
-2.64
-3.29
4.76
25.09
58.03
100.92
149.68
200.73
251.94
302.42
351.50
397.74
438.74
471.70
494.37
505.81
506.52
498.04
482.05
459.56
430.41
393.47
347.74
293.75
234.16
173.31
115.67
64.16
19.23
-20.67
-57.64
-92.94
-126.08
-155.29
-178.56
-194.79
-204.56
-210.40
-216.46
-227.14
-245.47
-271.08
-299.32
-322.05
-330.25
-317.40
-281.84
-227.43
-162.02
-95.07
-35.35
10.60
39.01
48.99
42.36
23.43
-1.96
-27.76
-49.27
-63.93
-71.30
-72.14
-67.42
-58.15
-45.31
-30.39
-15.30
-1.82
8.94
16.86
22.45
26.41
28.98
30.10
29.62
27.95
26.21
25.86
28.07
33.07
39.99
47.28
53.45
57.46
58.90
57.62
53.40
46.12
36.00
24.05
11.93
1.48
-6.07
-10.95
-15.00
-21.19
-32.44
-50.44
-74.55
-101.63
-126.77
-144.72
-151.71
-146.89
-132.89
-115.04
-99.84
-92.78
-96.45
-109.87
-129.00
-148.36
-162.92
-169.67
-167.86
-158.52
-143.37
-124.08
-102.13
-79.20
-57.47
-39.39
-26.96
-20.81
-19.79
-21.38
-22.82
-22.30
-19.56
-15.75
-12.65
-11.70
-13.31
-16.77
-20.64
-23.30
-23.71
-21.63
-17.72
-13.23
-9.52
-7.56
-7.54
-8.95
-10.67
-11.51
-10.56
-7.56
-2.99
2.16
6.67
9.60
10.46
9.34
6.70
3.17
-0.70
-4.61
-8.39
-11.90
-14.81
-16.62
-16.78
-14.90
-10.93
-5.20
1.58
8.44
14.32
18.38
20.14
19.77
17.90
15.37
12.80
10.41
8.09
5.56
2.82
0.14
-2.04
-3.35
-3.72
-3.26
-2.05
-0.01
2.99
6.99
11.64
16.26
20.02
22.29
22.77
21.65
19.36
16.47
13.52
10.90
8.80
7.18
5.82
4.39
2.69
0.71
-1.37
-3.19
-4.42
-4.84
-4.48
-3.56
-2.58
-2.21
-3.00
-5.29
-8.88
-13.17
-17.30
-20.43
-22.06
-22.22
-21.46
-20.63
-20.58
-21.66
-23.49
-24.83
-23.95
-19.24
-9.94
3.43
19.09
34.52
47.29
55.71
59.21
58.19
53.64
46.76
38.75
30.74
23.64
18.23
14.93
13.77
14.38
16.06
18.09
19.93
21.30
22.21
22.79
23.08
23.07
22.57
21.33
19.24
16.37
13.02
9.66
6.75
4.53
2.91
1.51
-0.25
-2.83
-6.48
-11.09
-16.24
-21.34
-25.72
-28.74
-29.91
-29.00
-26.10
-21.68
-16.44
-11.14
-6.47
-2.88
-0.50
0.74
0.99
0.50
-0.50
-1.74
-2.86
-3.60
-3.80
-3.47
-2.84
-2.21
-1.85
-1.89
-2.21
-2.57
-2.65
-2.30
-1.51
-0.53
0.30
0.68
0.44
-0.41
-1.71
-3.31
-5.02
-6.70
-8.29
-9.67
-10.72
-11.39
-11.77
-11.99
-12.16
-12.20
-11.76
-10.38
-7.57
-3.15
2.57
8.87
14.85
19.69
23.01
24.90
25.80
26.28
26.74
27.18
27.30
26.61
24.63
21.11
16.12
9.97
3.29
-3.24
-8.94
-13.27
-16.08
-17.63
-18.62
-19.95
-22.33
-25.81
-29.67
-32.63
-33.43
-31.51
-27.39
-22.40
-18.20
-16.00
-16.06
-17.75
-19.86
-21.13
-20.69
-18.18
-13.70
-7.71
-1.00
5.60
11.27
15.48
18.17
19.64
20.43
21.07
21.85
22.84
23.95
25.11
26.30
27.56
28.73
29.51
29.56
28.66
26.89
24.57
22.17
20.08
18.40
16.90
15.21
13.03
10.30
7.21
4.11
1.35
-0.86
-2.45
-3.50
-4.18
-4.69
-5.22
-5.91
-6.75
-7.61
-8.22
-8.23
-7.35
-5.51
-2.83
0.35
3.65
6.78
9.54
11.85
13.68
14.99
15.71
15.80
15.25
14.16
12.73
11.25
10.00
9.16
8.69
8.39
7.92
7.03
5.66
4.04
2.53
1.39
0.63
-0.11
-1.28
-3.21
-5.86
-8.81
-11.46
-13.35
-14.38
-14.75
-14.86
-14.98
-15.18
-15.23
-14.79
-13.62
-11.57
-8.75
-5.34
-1.62
2.10
5.54
8.50
10.85
12.49
13.50
13.91
13.86
13.55
13.28
13.33
13.88
14.98
16.31
17.49
18.07
17.73
16.43
14.37
11.92
9.46
7.30
5.57
4.25
3.21
2.33
1.56
0.91
0.47
0.26
0.20
0.06
-0.32
-1.05
-1.95
-2.64
-2.69
-1.82
-0.01
2.45
4.99
7.14
8.52
9.09
9.08
8.84
8.66
8.64
8.70
8.67
8.48
8.14
7.75
7.43
7.18
6.96
6.65
6.21
5.65
5.04
4.34
3.52
2.41
0.96
-0.81
-2.66
-4.27
-5.40
-5.92
-5.97
-5.84
-5.82
-6.06
-6.56
-7.19
-7.82
-8.37
-8.75
-8.78
-8.19
-6.71
-4.19
-0.82
2.90
6.33
8.87
10.28
10.67
10.44
10.02
9.76
9.74
9.83
9.89
9.77
9.45
8.93
8.20
7.20
5.89
4.35
2.81
1.68
1.27
1.68
2.68
3.73
4.27
4.00
3.01
1.65
0.39
-0.55
-1.25
-2.03
-3.24
-5.00
-7.24
-9.67
-12.00
-14.02
-15.51
-16.23
-15.90
-14.27
-11.29
-7.36
-3.12
0.64
3.32
4.68
4.89
4.31
3.37
2.37
1.47
0.79
0.42
0.46
0.98
1.98
3.30
4.62
5.55
5.74
5.06
3.71
2.04
0.51
-0.69
-1.56
-2.30
-3.11
-4.08
-5.09
-5.98
-6.69
-7.25
-7.83
-8.50
-9.24
-9.89
-10.32
-10.39
-10.09
-9.38
-8.15
-6.32
-3.82
-0.75
2.58
5.73
8.23
9.67
9.90
9.04
7.40
5.42
3.52
1.92
0.66
-0.30
-1.06
-1.65
-2.03
-2.29
-2.52
-2.79
-3.03
-2.95
-2.09
-0.22
2.59
5.75
8.36
9.54
8.76
6.06
2.04
-2.41
-6.31
-8.95
-9.93
-9.37
-7.71
-5.70
-4.07
-3.26
-3.30
-3.82
-4.26
-4.08
-3.02
-1.17
1.04
3.02
4.27
4.44
3.44
1.41
-1.35
-4.48
-7.48
-9.89
-11.27
-11.34
-10.05
-7.64
-4.63
-1.65
0.65
1.88
1.93
0.97
-0.54
-2.12
-3.41
-4.22
-4.61
-4.76
-4.87
-4.97
-5.01
-4.82
-4.30
-3.46
-2.50
-1.70
-1.33
-1.53
-2.15
-2.84
-3.14
-2.67
-1.31
0.68
2.73
4.24
4.85
4.60
3.89
3.24
3.02
3.25
3.73
4.10
4.15
3.95
3.74
3.81
4.36
5.32
6.39
7.26
7.66
7.50
6.91
6.10
5.28
4.54
3.92
3.35
2.81
2.26
1.66
0.93
-0.09
-1.45
-3.14
-4.99
-6.77
-8.24
-9.32
-10.05
-10.49
-10.64
-10.36
-9.45
-7.81
-5.59
-3.09
-0.75
1.15
2.58
3.67
4.62
5.52
6.31
6.93
7.41
7.85
8.38
8.99
9.34
9.03
7.64
5.05
1.56
-2.21
-5.50
-7.69
-8.60
-8.55
-8.18
-8.16
-8.87
-10.21
-11.64
-12.58
-12.72
-12.20
-11.59
-11.47
-12.14
-13.45
-14.86
-15.70
-15.45
-13.84
-10.94
-7.03
-2.56
1.94
5.94
9.00
10.85
11.51
11.17
10.20
8.97
7.73
6.66
5.80
5.13
4.59
4.10
3.57
2.94
2.19
1.40
0.71
0.28
0.23
0.53
1.00
1.36
1.42
1.15
0.68
0.21
-0.16
-0.47
-0.91
-1.65
-2.78
-4.22
-5.78
-7.24
-8.42
-9.08
-8.98
-7.78
-5.35
-1.82
2.28
6.27
9.47
11.54
12.55
12.79
12.60
12.12
11.25
9.84
7.92
5.81
4.03
3.14
3.42
4.75
6.68
8.56
9.85
10.25
9.70
8.23
5.92
2.79
-1.08
-5.43
-9.72
-13.22
-15.28
-15.52
-14.10
-11.52
-8.62
-6.15
-4.68
-4.39
-5.11
-6.47
-7.94
-9.01
-9.22
-8.31
-6.26
-3.35
-0.15
2.72
4.76
5.75
5.84
5.46
5.04
4.86
5.05
5.52
6.15
6.84
7.62
8.53
9.53
10.53
11.39
12.02
12.47
12.80
13.12
13.39
13.45
13.05
12.03
10.42
8.44
6.46
4.83
3.72
3.13
2.87
2.73
2.50
2.13
1.67
1.29
1.18
1.50
2.29
3.47
4.86
6.18
7.18
7.70
7.66
7.08
6.04
4.64
2.98
1.19
-0.60
-2.29
-3.76
-4.88
-5.49
-5.46
-4.73
-3.43
-1.79
-0.21
1.00
1.65
1.72
1.34
0.68
-0.09
-0.84
-1.40
-1.65
-1.51
-1.01
-0.36
0.06
-0.11
-1.14
-3.06
-5.59
-8.21
-10.31
-11.32
-10.97
-9.39
-7.02
-4.57
-2.65
-1.60
-1.35
-1.55
-1.78
-1.82
-1.72
-1.81
-2.52
-4.08
-6.34
-8.81
-10.79
-11.69
-11.22
-9.49
-6.93
-4.09
-1.52
0.48
1.73
2.24
2.03
1.21
-0.06
-1.48
-2.70
-3.44
-3.56
-3.23
-2.76
-2.61
-3.14
-4.54
-6.74
-9.47
-12.22
-14.40
-15.45
-15.06
-13.25
-10.40
-7.17
-4.24
-2.05
-0.67
0.13
0.77
1.53
2.46
3.39
4.03
4.13
3.67
2.80
1.79
0.91
0.28
-0.12
-0.33
-0.43
-0.39
-0.20
0.05
0.17
-0.14
-1.00
-2.29
-3.67
-4.75
-5.34
-5.58
-5.87
-6.61
-8.03
-9.97
-12.01
-13.64
-14.42
-14.09
-12.56
-9.95
-6.49
-2.66
1.01
4.00
5.99
6.89
6.91
6.47
6.03
6.01
6.58
7.63
8.90
10.01
10.69
10.84
10.64
10.39
10.34
10.56
10.88
11.01
10.76
10.15
9.41
8.94
9.10
10.04
11.65
13.58
15.32
16.37
16.46
15.56
13.90
11.96
10.37
9.80
10.80
13.63
18.09
23.60
29.30
34.39
38.43
41.61
44.64
48.27
52.94
58.29
63.44
67.28
69.24
69.63
69.53
70.25
72.79
77.48
83.96
91.35
98.36
103.28
104.25
99.76
89.52
74.91
58.45
42.52
28.16
14.68
0.79
-13.51
-25.82
-31.32
-24.41
-1.15
38.65
90.44
145.43
192.39
220.40
221.76
194.40
142.58
75.83
5.80
-57.15
-106.71
-141.45
-163.48
-176.71
-185.06
-191.43
-197.21
-202.01
-203.61
-198.64
-184.04
-158.84
-125.72
-90.85
-62.34
-47.71
-51.54
-74.20
-111.95
-158.07
-204.38
-243.20
-268.97
-279.42
-275.98
-262.86
-245.12
-226.69
-209.17
-191.60
-171.89
-148.34
-120.84
-91.20
-62.46
-37.73
-19.36
-8.58
-5.36
-8.62
-16.05
-24.26
-29.28
-27.34
-15.99
4.95
33.23
65.10
96.63
125.25
150.21
172.05
191.36
207.64
219.04
223.13
218.35
204.95
185.09
162.05
138.98
118.19
100.96
87.84
78.65
72.59
67.98
62.54
54.23
42.09
26.83
10.46
-4.50
-16.30
-24.42
-29.54
-32.72
-34.42
-34.26
-31.27
-24.69
-14.75
-2.94
8.49
17.39
22.46
23.80
22.60
20.83
20.48
23.10
29.50
39.79
53.42
69.16
85.53
100.79
113.44
122.45
127.61
129.54
129.44
128.61
127.69
126.53
124.00
118.64
109.09
94.59
74.90
50.22
21.21
-10.85
-43.70
-74.24
-99.14
-115.93
-123.92
-124.47
-120.31
-114.40
-109.00
-105.18
-103.12
-102.75
-104.24
-108.15
-114.84
-123.81
-133.27
-140.34
-141.91
-135.78
-121.65
-101.47
-78.86
-57.94
-42.01
-32.78
-30.30
-33.34
-40.06
-48.52
-56.86
-63.53
-67.42
-68.07
-65.79
-61.69
-57.29
-54.24
-53.94
-57.22
-64.19
-74.29
-86.65
-100.29
-114.46
-128.84
-143.34
-157.76
-171.27
-182.23
-188.56
-188.42
-180.85
-166.34
-146.57
-123.75
-99.68
-75.15
-49.95
-23.47
4.37
32.60
59.20
81.63
97.71
106.47
108.52
105.88
101.39
97.91
97.72
101.91
110.23
121.23
132.56
141.48
145.75
144.18
137.01
125.84
112.98
100.74
90.83
83.96
79.94
77.93
76.77
75.32
72.69
68.46
62.73
56.08
49.35
43.27
38.36
34.81
32.57
31.46
31.22
31.55
32.11
32.66
33.10
33.55
34.26
35.29
36.50
37.41
37.45
36.26
33.84
30.59
27.11
23.95
21.35
19.19
17.16
14.97
12.55
10.01
7.49
5.09
2.78
0.53
-1.52
-3.00
-3.47
-2.69
-0.81
1.52
3.38
3.91
2.50
-0.93
-6.03
-12.16
-18.51
-24.20
-28.43
-30.69
-30.86
-29.35
-26.86
-24.15
-21.79
-19.94
-18.38
-16.70
-14.53
-11.67
-8.19
-4.35
-0.41
3.39
6.97
10.25
13.11
15.42
17.11
18.17
18.70
18.87
18.78
18.49
17.98
17.08
15.60
13.36
10.22
6.29
2.09
-1.65
-3.99
-4.28
-2.48
0.75
4.26
6.84
7.70
6.78
4.62
2.23
0.59
0.36
1.73
4.50
8.14
11.94
15.17
17.19
17.72
16.96
15.61
14.80
15.65
18.86
24.27
30.87
37.07
41.36
42.83
41.45
37.99
33.52
29.07
25.36
22.52
20.31
18.11
15.20
10.92
4.99
-2.42
-10.61
-18.39
-24.59
-28.41
-29.78
-29.31
-28.25
-27.98
-29.70
-34.09
-41.06
-49.92
-59.43
-68.12
-74.46
-77.10
-75.00
-67.74
-55.68
-40.06
-22.94
-6.55
7.30
17.86
25.53
31.56
37.17
42.90
48.29
52.11
53.19
50.90
45.37
37.38
27.92
17.78
7.47
-2.66
-12.28
-21.00
-28.36
-34.11
-38.14
-40.49
-41.26
-40.53
-38.50
-35.65
-32.90
-31.56
-32.97
-37.67
-45.05
-53.45
-60.88
-66.13
-69.16
-70.73
-71.28
-70.02
-64.79
-53.37
-35.01
-11.51
12.87
32.98
44.79
46.62
39.16
24.88
6.72
-12.25
-29.08
-40.83
-45.24
-41.20
-29.56
-13.10
4.38
19.17
28.78
32.54
31.34
27.23
22.87
21.04
24.19
33.78
49.61
69.68
90.61
108.94
122.39
130.46
134.29
135.62
135.60
134.18
130.52
123.86
114.19
102.56
90.50
79.29
69.56
61.31
54.14
47.89
42.79
39.33
38.09
39.48
43.46
49.46
56.31
62.39
65.93
65.64
61.06
52.80
42.28
31.24
21.18
13.11
7.47
4.27
3.17
3.62
5.06
7.14
9.78
13.24
17.94
24.03
30.95
37.12
39.86
36.23
24.13
3.78
-21.68
-46.63
-64.82
-71.91
-67.40
-55.04
-41.09
-31.59
-29.85
-35.37
-44.65
-53.25
-57.64
-56.02
-47.92
-33.29
-11.86
16.67
51.99
92.43
134.82
174.97
208.52
231.93
243.15
242.04
230.07
210.00
184.99
157.81
130.02
101.81
72.23
39.97
4.50
-33.38
-71.59
-107.67
-139.80
-167.54
-191.71
-213.65
-234.07
-252.39
-266.75
-274.99
-275.71
-269.45
-258.63
-247.04
-238.72
-237.33
-245.67
-265.47
-296.70
-336.56
-379.23
-416.39
-439.44
-442.42
-424.24
-388.88
-343.58
-295.79
-250.53
-209.57
-172.28
-137.49
-104.77
-74.55
-47.18
-22.08
2.46
28.71
58.48
92.55
130.36
169.57
206.55
236.92
256.68
263.60
258.08
243.06
222.92
201.79
182.19
164.76
148.97
134.36
121.39
111.10
104.19
100.18
97.26
93.16
86.38
76.89
65.97
55.34
46.14
38.32
30.97
23.01
13.96
4.20
-5.43
-14.09
-21.15
-26.38
-29.64
-30.87
-30.09
-27.39
-23.01
-17.32
-10.70
-3.54
3.55
9.92
14.99
18.54
21.09
23.95
28.84
37.51
51.25
70.64
95.77
126.20
160.75
197.43
233.22
264.36
287.17
298.99
298.94
287.96
268.01
240.91
207.73
168.72
124.19
75.38
24.58
-25.41
-72.39
-115.46
-154.48
-188.61
-215.74
-232.89
-237.96
-231.42
-216.50
-197.38
-176.49
-152.80
-122.81
-83.62
-35.91
14.96
60.82
94.02
110.14
108.47
90.84
59.83
18.06
-31.32
-83.85
-133.66
-174.33
-200.53
-209.59
-202.06
-181.37
-152.61
-121.20
-91.88
-68.20
-52.11
-43.91
-42.60
-45.96
-50.74
-53.14
-49.70
-38.29
-18.84
6.72
35.32
63.99
90.58
113.67
132.07
144.45
149.67
147.41
138.65
125.37
109.83
93.82
78.15
62.86
47.64
32.37
17.22
2.76
-10.16
-20.71
-28.21
-32.56
-34.46
-34.97
-35.23
-35.77
-36.44
-36.55
-35.40
-32.88
-29.44
-25.88
-22.76
-20.16
-17.61
-14.57
-10.72
-6.33
-2.16
0.85
2.00
1.28
-0.82
-3.46
-5.84
-7.50
-8.42
-8.84
-9.16
-9.74
-10.75
-12.41
-14.87
-18.28
-22.70
-27.99
-33.68
-39.11
-43.41
-45.82
-45.72
-42.88
-37.39
-29.55
-19.86
-8.80
3.12
15.33
27.05
37.35
45.23
49.92
51.20
49.55
46.04
42.00
38.48
35.94
34.17
32.57
30.50
27.58
23.82
19.42
14.76
10.22
6.18
3.06
1.27
1.02
2.18
4.24
6.39
7.81
7.98
6.88
4.94
2.81
1.02
-0.21
-1.07
-1.91
-3.04
-4.67
-6.76
-9.13
-11.58
-13.90
-15.81
-17.01
-17.22
-16.25
-14.20
-11.45
-8.57
-6.15
-4.62
-4.11
-4.54
-5.68
-7.28
-9.14
-11.11
-12.98
-14.46
-15.25
-15.19
-14.40
-13.39
-12.81
-13.11
-14.27
-15.59
-15.98
-14.39
-10.39
-4.37
2.50
8.78
13.30
15.56
15.86
14.96
13.77
13.00
13.00
13.74
14.96
16.30
17.39
17.95
17.81
16.97
15.50
13.57
11.39
9.16
7.09
5.29
3.80
2.52
1.28
-0.12
-1.80
-3.73
-5.81
-7.95
-10.19
-12.69
-15.63
-19.06
-22.75
-26.27
-29.10
-30.97
-31.85
-31.98
-31.61
-30.78
-29.37
-27.09
-23.75
-19.37
-14.19
-8.50
-2.61
3.33
9.21
14.83
19.92
24.11
27.07
28.77
29.45
29.62
29.87
30.57
31.62
32.49
32.23
29.87
24.84
17.24
7.83
-2.13
-11.26
-18.49
-23.22
-25.34
-25.14
-23.03
-19.39
-14.48
-8.55
-1.87
4.98
11.21
15.75
17.63
16.38
12.29
6.52
0.70
-3.65
-5.62
-5.27
-3.39
-1.03
1.04
2.66
4.28
6.57
10.00
14.56
19.60
24.13
27.20
28.27
27.29
24.77
21.44
17.89
14.43
10.99
7.35
3.34
-0.96
-5.21
-8.91
-11.60
-13.00
-13.06
-12.03
-10.32
-8.42
-6.68
-5.15
-3.67
-1.99
-0.16
1.35
1.68
0.06
-3.75
-9.18
-14.87
-19.34
-21.56
-21.39
-19.42
-16.56
-13.37
-9.86
-5.67
-0.43
5.75
12.30
18.40
23.41
27.13
29.73
31.49
32.47
32.44
31.04
28.04
23.61
18.34
13.09
8.75
5.92
4.73
4.91
5.83
6.69
6.84
5.81
3.50
0.04
-4.43
-10.06
-17.27
-26.64
-38.61
-52.96
-68.73
-84.26
-97.85
-108.21
-114.97
-118.65
-120.12
-120.08
-118.66
-115.49
-110.12
-102.31
-92.28
-80.40
-66.98
-51.93
-34.89
-15.61
5.52
27.26
47.76
65.04
77.84
85.95
90.20
91.93
92.34
91.85
90.05
86.32
80.26
72.27
63.55
55.65
49.77
46.30
44.80
44.37
44.21
44.03
44.01
44.46
45.37
46.25
46.30
44.86
41.81
37.71
33.51
29.99
27.45
25.54
23.62
21.04
17.49
12.97
7.68
2.03
-3.37
-7.71
-10.20
-10.31
-8.23
-4.79
-1.21
1.42
2.67
2.85
2.70
2.69
2.57
1.04
-3.77
-13.55
-28.85
-48.49
-69.53
-87.98
-99.99
-103.10
-96.93
-83.18
-64.78
-44.85
-25.79
-9.08
4.67
15.26
22.58
26.66
27.74
26.46
23.77
20.76
18.17
16.38
15.37
14.98
15.10
15.75
16.88
18.36
19.97
21.47
22.88
24.45
26.63
29.79
33.95
38.85
44.11
49.54
55.25
61.62
69.08
77.85
88.04
99.41
111.49
123.47
134.18
142.20
146.44
146.53
143.10
137.55
131.30
125.09
118.82
111.64
102.74
91.62
78.06
61.63
41.43
16.02
-15.84
-54.33
-97.75
-142.56
-184.30
-219.03
-244.75
-262.08
-273.60
-282.44
-290.78
-299.08
-306.32
-310.89
-311.58
-308.13
-300.75
-289.29
-272.76
-249.49
-218.22
-179.20
-134.97
-90.07
-49.86
-18.95
0.44
9.02
10.02
7.66
5.50
5.16
6.36
7.85
8.86
9.90
12.52
18.36
28.12
41.02
55.16
68.26
78.52
84.90
87.19
85.67
81.09
74.35
66.42
58.17
50.38
43.70
38.80
36.18
36.01
37.90
40.77
43.23
43.96
42.27
38.21
32.44
25.77
18.86
12.20
6.29
2.00
0.51
3.11
10.64
22.90
38.41
54.70
69.00
79.12
84.17
84.69
82.24
78.68
75.43
73.24
72.22
72.16
72.84
74.07
75.46
76.32
75.69
72.73
67.15
59.40
50.70
42.48
35.83
31.05
27.67
24.97
22.58
21.06
21.61
25.50
33.10
43.30
53.45
60.25
60.92
54.27
41.24
24.32
6.65
-9.25
-22.13
-32.00
-39.50
-45.17
-48.92
-50.09
-48.00
-42.56
-34.63
-25.81
-17.72
-11.44
-7.06
-4.10
-1.95
-0.46
0.01
-0.91
-3.29
-6.59
-10.31
-14.67
-21.04
-31.26
-46.22
-64.37
-81.47
-91.84
-90.74
-76.67
-52.21
-23.04
4.43
25.45
38.17
43.33
42.99
39.14
32.93
24.92
15.59
5.78
-3.45
-11.33
-17.93
-24.05
-30.73
-38.44
-46.41
-52.54
-54.32
-49.77
-38.60
-22.46
-4.46
12.00
24.17
30.72
31.78
28.60
22.94
16.59
11.09
7.50
6.46
8.15
12.36
18.38
25.05
30.95
34.69
35.35
32.73
27.63
21.57
16.54
14.27
15.68
20.36
26.34
30.49
29.48
20.95
4.35
-18.54
-43.99
-67.29
-83.70
-89.68
-83.57
-66.14
-40.43
-11.22
16.25
37.73
51.01
56.24
55.23
50.26
43.03
34.49
25.26
16.41
9.59
6.44
7.74
12.77
19.45
25.18
28.06
27.52
24.45
20.31
16.30
12.79
9.33
5.12
-0.30
-6.64
-12.96
-18.06
-21.05
-21.80
-20.95
-19.72
-19.35
-20.65
-23.62
-27.41
-30.79
-32.59
-32.38
-30.63
-28.52
-27.35
-28.05
-30.77
-34.93
-39.61
-43.78
-46.63
-47.62
-46.44
-42.96
-37.42
-30.38
-22.69
-15.28
-8.72
-3.22
1.40
5.49
9.15
12.18
13.99
13.98
11.79
7.76
2.70
-2.25
-5.97
-7.87
-7.79
-6.03
-3.03
0.83
5.31
10.06
14.61
18.35
20.71
21.57
21.30
20.74
20.81
22.07
24.44
27.24
29.53
30.50
29.89
27.98
25.42
22.93
21.05
20.12
20.33
21.82
24.47
27.99
31.77
35.15
37.79
39.87
42.01
44.90
48.61
52.34
54.55
53.73
48.99
40.64
30.02
19.02
9.43
2.46
-1.45
-2.47
-1.04
2.18
6.56
11.59
16.99
22.63
28.47
34.09
38.59
40.68
39.04
33.01
23.09
10.88
-1.50
-12.30
-20.79
-27.32
-32.80
-38.00
-43.05
-47.42
-50.27
-51.03
-49.70
-46.84
-43.50
-40.91
-40.34
-42.68
-48.17
-55.94
-64.14
-70.40
-72.64
-69.77
-62.10
-51.20
-39.08
-27.63
-17.87
-9.94
-3.36
2.58
8.45
14.64
21.47
29.18
37.94
47.49
57.00
65.13
70.27
71.06
66.98
58.57
47.17
34.49
21.95
10.36
-0.21
-10.32
-20.94
-32.93
-46.57
-61.25
-75.53
-87.60
-96.11
-100.76
-102.15
-101.29
-98.75
-94.44
-87.92
-79.21
-69.24
-59.82
-52.72
-48.87
-47.66
-47.35
-45.96
-42.11
-35.64
-27.51
-19.28
-12.45
-8.06
-6.30
-6.48
-7.13
-6.36
-2.40
5.78
18.09
33.49
50.37
67.16
82.61
95.79
105.78
111.43
111.60
105.47
93.34
76.68
58.07
40.32
25.74
15.63
10.14
8.70
10.22
13.51
17.31
20.36
21.67
20.77
17.92
13.97
10.11
7.35
6.22
6.58
7.78
9.03
9.71
9.60
8.90
8.03
7.35
6.93
6.36
4.99
2.27
-1.95
-7.06
-12.09
-15.95
-18.03
-18.31
-17.37
-16.02
-14.95
-14.62
-15.16
-16.53
-18.59
-21.18
-24.04
-26.80
-28.99
-30.11
-29.86
-28.24
-25.63
-22.69
-20.12
-18.36
-17.37
-16.68
-15.68
-14.00
-11.69
-9.20
-7.07
-5.56
-4.52
-3.47
-1.98
0.08
2.35
4.22
5.12
4.86
3.70
2.19
1.03
0.62
1.09
2.25
3.85
5.64
7.50
9.33
10.98
12.23
12.94
13.25
13.73
15.22
18.34
23.11
28.64
33.29
35.35
33.64
28.00
19.27
8.89
-1.65
-11.24
-19.12
-24.86
-28.12
-28.76
-26.96
-23.17
-18.17
-12.72
-7.37
-2.34
2.20
6.15
9.42
11.98
14.05
15.97
18.15
20.74
23.59
26.23
28.11
28.79
28.07
25.97
22.66
18.44
13.72
9.01
4.84
1.72
0.04
-0.11
1.01
2.70
3.95
3.73
1.24
-3.74
-10.77
-18.98
-27.33
-34.83
-40.91
-45.37
-48.47
-50.79
-53.00
-55.52
-58.29
-60.61
-61.32
-59.20
-53.43
-43.89
-31.16
-16.26
-0.34
15.58
30.58
43.90
54.86
62.95
67.95
69.95
69.35
66.75
62.91
58.61
54.55
51.17
48.58
46.57
44.67
42.44
39.75
36.77
33.99
31.90
30.74
30.38
30.42
30.32
29.73
28.52
26.80
24.74
22.51
20.16
17.70
15.18
12.67
10.46
8.90
8.37
8.98
10.49
12.10
12.76
11.46
7.76
2.17
-3.95
-8.99
-11.75
-12.07
-11.05
-10.60
-12.97
-20.12
-33.41
-53.41
-79.80
-111.06
-144.41
-176.04
-201.88
-218.70
-224.91
-220.59
-206.83
-184.81
-155.29
-118.95
-77.10
-32.12
12.59
53.27
86.74
110.91
124.93
129.04
124.49
113.66
99.75
86.12
75.08
67.17
61.15
55.08
47.65
38.90
30.06
22.61
17.44
14.65
14.04
15.69
20.07
27.60
37.88
49.38
59.79
66.96
69.83
68.78
65.28
61.37
58.94
59.14
62.17
67.15
72.33
75.66
75.55
71.46
64.23
55.62
47.55
41.50
38.06
37.21
38.67
42.01
46.79
52.36
57.82
62.13
64.46
64.34
61.73
56.87
50.11
41.94
33.05
24.34
16.96
12.07
10.68
13.31
19.62
28.15
36.50
42.02
42.95
39.39
33.53
28.77
28.33
33.75
44.19
56.85
68.12
74.97
75.95
71.32
62.58
51.86
41.21
32.18
25.47
20.87
17.56
14.56
11.12
7.08
2.87
-0.80
-3.14
-3.68
-2.45
-0.03
2.63
4.53
5.18
4.84
4.59
5.96
10.40
18.60
29.98
42.73
54.21
61.89
64.12
60.75
53.27
44.56
38.04
36.85
42.94
56.45
75.71
97.75
119.28
137.77
152.24
163.28
172.39
180.71
188.01
192.39
190.95
181.18
162.16
135.01
102.43
67.51
32.60
-1.08
-33.13
-63.09
-90.00
-112.47
-129.36
-140.66
-147.93
-153.93
-161.68
-173.30
-189.14
-207.73
-226.38
-242.23
-253.29
-259.02
-260.29
-258.75
-255.87
-252.33
-247.77
-241.57
-233.51
-224.51
-216.87
-213.68
-218.10
-232.66
-259.13
-298.18
-348.92
-407.98
-469.06
-523.54
-562.47
-579.35
-572.34
-544.72
-503.26
-455.39
-406.69
-359.94
-315.79
-274.00
-234.59
-197.89
-163.75
-131.03
-97.70
-61.88
-22.75
18.79
60.62
99.86
134.00
161.77
183.49
200.91
216.56
233.02
251.84
272.65
292.68
307.26
311.82
304.17
286.49
265.07
248.27
243.07
252.14
273.09
300.38
328.67
355.18
379.87
403.59
425.40
441.67
447.07
437.19
410.52
368.95
316.53
257.74
196.13
133.97
72.81
14.03
-41.00
-91.16
-136.07
-176.59
-214.86
-253.66
-295.18
-339.15
-381.61
-415.09
-431.03
-423.38
-391.54
-340.79
-280.08
-218.46
-162.12
-113.74
-73.82
-42.67
-21.52
-12.37
-16.56
-33.86
-62.35
-99.39
-142.61
-189.78
-237.84
-281.93
-315.27
-330.36
-321.31
-285.96
-227.08
-151.92
-70.10
8.98
78.47
135.47
180.92
218.20
251.26
282.69
312.38
337.47
353.24
354.78
339.09
306.38
260.36
207.12
153.36
104.24
62.10
26.09
-7.02
-41.51
-81.33
-128.65
-182.84
-239.75
-291.97
-330.26
-346.05
-334.24
-294.92
-233.78
-160.10
-83.87
-12.94
48.57
100.10
143.22
180.01
212.15
240.60
265.71
287.29
304.48
315.70
319.07
313.15
297.45
272.62
239.89
200.41
154.71
102.92
45.73
-14.83
-75.35
-131.96
-181.65
-223.10
-255.99
-279.52
-291.08
-286.39
-261.63
-216.19
-154.31
-84.22
-15.19
46.07
97.55
141.32
181.26
220.29
259.39
298.23
336.54
374.48
411.80
446.30
473.11
485.69
478.20
448.25
398.17
334.21
264.11
194.51
129.28
69.49
14.69
-35.72
-81.62
-122.20
-156.46
-184.08
-205.63
-222.55
-236.94
-251.23
-267.89
-288.87
-314.71
-343.64
-371.19
-390.96
-396.47
-383.61
-352.36
-307.07
-254.92
-203.20
-157.02
-118.21
-86.07
-59.03
-36.21
-17.87
-4.94
2.10
4.05
3.02
2.07
4.49
13.33
30.48
55.99
86.89
117.00
138.21
143.25
129.14
99.32
63.18
32.84
18.47
24.47
48.12
81.32
114.05
137.98
148.55
145.46
132.02
114.14
99.03
93.32
100.95
121.24
148.59
173.88
187.57
183.07
159.11
120.09
74.29
30.78
-3.51
-25.40
-35.32
-36.26
-32.16
-26.78
-23.12
-23.26
-28.66
-40.19
-58.07
-81.48
-108.66
-137.60
-166.51
-194.30
-220.28
-243.96
-264.58
-280.78
-290.46
-291.04
-280.31
-256.46
-218.77
-168.20
-108.37
-45.74
11.28
54.69
79.70
85.56
76.30
59.35
43.16
34.41
36.15
47.62
65.48
85.38
101.83
109.53
104.19
83.87
49.28
3.49
-48.69
-101.73
-142.76
-160.23
-148.83
-113.25
-65.12
-16.44
24.91
55.78
76.37
89.10
95.97
98.65
98.64
97.73
97.77
100.13
105.46
113.75
124.87
137.63
150.50
162.11
171.88
179.85
186.03
191.29
194.98
196.46
194.56
187.96
175.52
156.93
132.90
104.95
75.55
47.73
24.87
9.56
3.11
5.31
14.76
29.55
47.29
66.05
84.27
100.68
113.43
119.62
115.30
95.94
60.42
8.57
-57.80
-135.42
-219.89
-305.82
-386.54
-454.34
-501.31
-521.33
-512.58
-477.86
-423.67
-357.29
-284.63
-209.50
-135.05
-66.10
-10.21
23.06
26.23
-2.08
-54.85
-117.77
-173.51
-207.20
-210.69
-184.07
-134.30
-71.46
-5.02
58.42
115.73
166.19
210.16
248.17
280.81
308.97
334.09
357.34
378.30
394.21
400.40
392.17
367.01
326.51
276.23
223.86
176.46
138.15
109.51
88.54
72.38
58.93
47.51
38.39
31.96
27.87
25.00
21.77
16.99
10.30
2.17
-6.61
-15.57
-25.10
-36.51
-51.62
-72.44
-100.74
-137.85
-183.88
-236.75
-291.22
-339.12
-370.80
-378.51
-359.45
-317.43
-261.93
-204.66
-155.64
-120.18
-98.44
-86.85
-80.56
-75.28
-68.00
-56.84
-40.80
-19.69
5.44
32.19
57.31
77.51
90.69
96.63
97.06
94.96
93.34
94.30
98.19
103.68
108.40
109.97
107.06
99.66
89.20
77.65
66.89
58.10
51.67
47.30
44.34
42.14
40.08
37.62
34.21
29.40
23.07
15.61
7.97
1.49
-2.44
-2.87
0.33
6.34
13.54
19.99
24.06
24.87
22.50
17.91
12.45
7.34
3.35
0.56
-1.52
-3.65
-6.56
-10.65
-15.85
-21.70
-27.51
-32.49
-36.01
-37.59
-37.06
-34.48
-30.16
-24.56
-18.23
-11.72
-5.43
0.24
5.05
8.86
11.63
13.50
14.63
15.11
14.85
13.63
11.18
7.55
3.23
-0.96
-4.09
-5.52
-5.10
-3.25
-0.66
1.93
4.04
5.50
6.40
7.14
8.16
9.84
12.26
15.12
17.75
19.44
19.75
18.80
17.30
16.13
15.98
17.06
19.07
21.47
23.72
25.58
27.00
27.95
28.30
27.83
26.38
24.03
21.18
18.39
16.17
14.66
13.54
12.09
9.54
5.55
0.47
-4.63
-8.36
-9.60
-8.06
-4.46
-0.24
3.06
4.42
3.71
1.53
-1.16
-3.67
-5.78
-7.77
-10.17
-13.38
-17.53
-22.44
-27.62
-32.47
-36.39
-38.82
-39.53
-38.97
-38.62
-40.99
-48.80
-63.69
-85.04
-109.60
-132.38
-148.48
-154.89
-151.37
-140.00
-123.81
-105.35
-85.93
-66.17
-46.86
-29.89
-18.40
-16.09
-25.97
-49.17
-83.97
-125.81
-167.86
-202.54
-223.57
-227.58
-214.94
-189.29
-155.85
-119.57
-83.84
-50.27
-19.33
8.62
32.94
53.02
68.80
81.29
92.33
103.84
117.03
131.89
147.49
162.63
176.68
189.78
202.66
216.11
230.38
244.98
258.78
270.20
277.46
278.67
271.93
255.57
228.55
190.83
143.82
90.40
34.43
-20.00
-69.44
-111.69
-145.87
-172.00
-190.39
-201.08
-203.92
-199.13
-187.88
-172.53
-156.25
-141.84
-130.71
-122.28
-114.36
-104.35
-90.71
-73.88
-56.35
-42.02
-34.91
-38.08
-52.74
-77.54
-108.43
-139.00
-161.62
-169.56
-159.07
-130.80
-89.60
-42.90
1.81
39.32
67.76
88.08
102.57
113.22
120.66
124.18
122.62
115.82
105.44
95.19
89.68
92.57
104.52
122.25
139.08
147.16
140.29
116.18
77.28
29.72
-18.70
-60.83
-91.94
-110.39
-117.33
-115.72
-109.10
-100.68
-92.84
-86.85
-83.07
-80.81
-78.36
-73.17
-62.59
-44.86
-20.41
7.81
35.03
56.42
68.95
72.34
68.79
61.58
53.88
48.18
46.31
49.69
59.11
73.92
91.57
107.76
117.99
119.34
111.90
98.60
83.79
71.03
61.69
54.86
48.48
41.27
33.77
28.18
27.03
31.45
40.31
50.57
58.80
62.70
62.17
58.82
54.95
52.32
51.59
52.64
55.10
58.77
63.52
69.07
74.74
79.69
83.27
85.26
85.76
84.96
82.77
78.87
72.86
64.65
54.45
42.77
30.04
16.41
1.89
-13.50
-29.34
-44.82
-58.83
-70.41
-79.08
-85.08
-89.22
-92.41
-95.25
-97.61
-98.70
-97.52
-93.33
-86.16
-76.91
-67.02
-57.92
-50.52
-44.98
-40.78
-37.19
-33.55
-29.64
-25.49
-21.39
-17.56
-14.14
-11.07
-8.16
-5.20
-1.94
1.80
6.12
10.84
15.63
20.02
23.56
26.03
27.36
27.71
27.28
26.28
24.83
23.06
21.10
19.09
17.09
15.04
12.75
9.93
6.34
1.91
-3.22
-8.65
-13.96
-18.73
-22.66
-25.40
-26.70
-26.31
-24.19
-20.65
-16.34
-12.14
-8.75
-6.56
-5.42
-4.95
-4.74
-4.65
-4.85
-5.58
-6.98
-8.89
-10.92
-12.50
-13.19
-12.70
-11.00
-8.31
-4.99
-1.56
1.59
4.24
6.40
8.21
9.91
11.45
12.46
12.10
9.32
3.17
-6.72
-19.79
-34.52
-48.56
-59.51
-65.68
-66.65
-63.40
-57.73
-51.48
-45.73
-40.55
-35.24
-28.95
-21.33
-12.68
-3.93
3.63
8.45
8.86
3.44
-8.02
-23.46
-38.23
-45.88
-40.49
-18.79
18.43
66.96
121.18
176.34
230.01
281.76
331.83
379.27
421.15
452.90
469.72
468.26
447.94
411.25
362.94
308.66
253.23
199.63
148.92
101.10
56.41
15.95
-18.61
-46.02
-66.40
-81.23
-92.39
-100.66
-105.00
-102.96
-92.17
-72.08
-44.99
-15.69
10.11
27.66
34.64
31.41
20.25
3.96
-15.19
-35.79
-56.98
-77.97
-97.63
-114.60
-127.64
-136.08
-140.01
-140.25
-138.04
-134.66
-131.16
-128.23
-126.24
-125.42
-125.94
-127.94
-131.40
-135.94
-140.62
-144.23
-145.47
-143.41
-137.82
-129.26
-118.84
-107.92
-97.73
-89.25
-83.04
-79.26
-77.58
-77.20
-76.93
-75.59
-72.27
-66.68
-59.20
-50.73
-42.28
-34.70
-28.43
-23.45
-19.53
-16.35
-13.69
-11.34
-9.20
-7.14
-5.15
-3.38
-2.10
-1.70
-2.44
-4.33
-7.03
-10.03
-12.76
-14.83
-16.12
-16.75
-16.96
-17.01
-17.09
-17.34
-17.88
-18.79
-20.10
-21.78
-23.71
-25.75
-27.77
-29.73
-31.65
-33.50
-35.09
-36.13
-36.22
-35.07
-32.60
-28.94
-24.44
-19.48
-14.34
-9.19
-4.21
0.48
4.67
8.07
10.48
11.79
12.11
11.76
11.14
10.53
10.08
9.70
9.19
8.32
7.06
5.55
4.05
2.82
1.99
1.44
0.90
-0.02
-1.62
-4.00
-7.01
-10.24
-13.24
-15.65
-17.35
-18.53
-19.57
-20.91
-22.84
-25.38
-28.26
-30.94
-32.74
-33.02
-31.38
-27.75
-22.44
-16.02
-9.24
-2.71
3.11
8.04
12.03
15.12
17.38
18.87
19.65
19.78
19.32
18.43
17.27
15.98
14.67
13.37
12.01
10.55
8.97
7.26
5.48
3.67
1.83
0.03
-1.70
-3.24
-4.46
-5.27
-5.67
-5.76
-5.77
-5.99
-6.66
-7.98
-10.05
-12.82
-16.11
-19.63
-22.93
-25.51
-26.77
-26.20
-23.59
-19.14
-13.48
-7.43
-1.75
3.23
7.55
11.45
15.14
18.48
21.11
22.57
22.66
21.61
19.96
18.33
17.04
16.09
15.14
13.91
12.25
10.33
8.48
7.00
5.99
5.31
4.64
3.65
2.19
0.24
-2.10
-4.65
-7.25
-9.75
-12.07
-14.16
-16.04
-17.77
-19.41
-21.03
-22.67
-24.36
-25.96
-27.25
-27.82
-27.21
-25.04
-21.14
-15.74
-9.35
-2.66
3.74
9.45
14.29
18.23
21.23
23.16
23.91
23.40
21.73
19.28
16.55
14.01
11.98
10.52
9.54
8.83
8.19
7.42
6.42
5.18
3.73
2.21
0.79
-0.43
-1.49
-2.59
-4.12
-6.41
-9.55
-13.42
-17.65
-21.81
-25.53
-28.56
-30.65
-31.55
-30.95
-28.57
-24.45
-18.97
-12.80
-6.69
-1.17
3.62
7.82
11.70
15.36
18.60
21.07
22.46
22.64
21.80
20.32
18.59
16.94
15.53
14.38
13.43
12.58
11.76
10.93
10.05
9.01
7.75
6.18
4.26
2.14
-0.04
-2.09
-3.98
-5.88
-8.13
-11.10
-15.00
-19.71
-24.76
-29.49
-33.16
-35.20
-35.22
-33.14
-29.09
-23.32
-16.28
-8.50
-0.69
6.44
12.29
16.57
19.36
20.96
21.79
22.13
22.06
21.45
20.19
18.34
16.13
13.95
12.07
10.58
9.33
8.08
6.60
4.79
2.69
0.40
-1.94
-4.25
-6.52
-8.80
-11.12
-13.52
-16.02
-18.53
-21.06
-23.58
-26.13
-28.74
-31.30
-33.52
-34.91
-34.87
-32.88
-28.71
-22.52
-14.89
-6.65
1.34
8.48
14.47
19.39
23.47
26.91
29.75
31.90
33.26
33.83
33.73
33.06
31.92
30.31
28.26
25.83
23.22
20.62
18.14
15.72
13.13
10.22
6.92
3.38
-0.14
-3.34
-6.10
-8.42
-10.45
-12.42
-14.50
-16.84
-19.51
-22.48
-25.62
-28.64
-31.08
-32.33
-31.82
-29.13
-24.24
-17.50
-9.64
-1.44
6.39
13.36
19.20
23.71
26.72
28.16
28.17
27.14
25.67
24.34
23.55
23.28
23.25
23.08
22.44
21.25
19.56
17.54
15.30
12.87
10.21
7.24
4.02
0.67
-2.60
-5.56
-8.07
-10.16
-12.11
-14.30
-17.09
-20.67
-24.97
-29.60
-33.95
-37.35
-39.13
-38.84
-36.28
-31.52
-24.90
-16.89
-8.09
0.96
9.79
18.03
25.36
31.46
36.04
38.86
39.88
39.25
37.33
34.63
31.66
28.86
26.40
24.25
22.14
19.79
16.93
13.49
9.57
5.45
1.54
-1.86
-4.65
-7.03
-9.36
-12.00
-15.13
-18.62
-22.18
-25.43
-28.12
-30.20
-31.65
-32.38
-32.08
-30.33
-26.73
-21.24
-14.22
-6.37
1.52
8.80
15.00
19.91
23.40
25.41
26.00
25.37
23.86
21.93
19.99
18.32
16.92
15.66
14.24
12.48
10.31
7.95
5.81
4.34
3.80
4.07
4.63
4.74
3.76
1.43
-2.08
-6.27
-10.62
-14.78
-18.70
-22.60
-26.74
-31.23
-35.90
-40.28
-43.60
-45.08
-44.01
-40.07
-33.40
-24.60
-14.59
-4.37
5.22
13.66
20.73
26.45
30.86
34.01
35.85
36.39
35.75
34.19
32.10
29.81
27.51
25.17
22.74
20.16
17.61
15.31
13.40
11.72
9.89
7.42
4.10
0.11
-4.01
-7.64
-10.42
-12.46
-14.20
-16.29
-19.26
-23.36
-28.48
-34.32
-40.33
-45.78
-49.94
-52.03
-51.55
-48.30
-42.53
-34.75
-25.66
-15.98
-6.30
2.85
11.08
18.11
23.85
28.31
31.68
34.06
35.58
36.19
35.90
34.69
32.68
30.07
27.03
23.78
20.47
17.31
14.45
11.97
9.73
7.37
4.38
0.36
-4.82
-10.97
-17.61
-24.23
-30.55
-36.54
-42.31
-48.07
-53.92
-59.78
-65.38
-70.22
-73.60
-74.79
-73.15
-68.44
-60.94
-51.41
-40.89
-30.32
-20.21
-10.70
-1.65
7.04
15.22
22.45
28.20
32.07
34.01
34.34
33.66
32.60
31.63
30.97
30.54
30.16
29.55
28.54
26.99
24.85
22.16
19.01
15.60
12.17
8.98
6.23
3.95
1.98
0.01
-2.38
-5.61
-9.93
-15.44
-22.01
-29.30
-36.76
-43.60
-48.94
-51.95
-52.17
-49.63
-44.88
-38.84
-32.46
-26.39
-20.80
-15.63
-10.74
-6.28
-2.71
-0.74
-1.00
-3.72
-8.83
-15.88
-24.44
-34.13
-44.75
-56.24
-68.56
-81.59
-94.94
-107.95
-119.53
-128.37
-133.08
-132.68
-127.15
-117.61
-106.22
-95.52
-87.69
-83.86
-84.09
-87.81
-94.54
-104.43
-118.06
-135.65
-156.63
-179.87
-203.07
-223.31
-237.79
-244.21
-241.05
-227.79
-205.02
-175.13
-142.60
-112.44
-88.58
-72.63
-62.91
-54.75
-42.10
-19.14
16.80
63.23
115.09
166.95
213.86
252.84
282.78
303.59
317.15
324.54
323.30
313.40
298.43
282.56
269.48
260.83
255.77
255.55
259.77
261.26
256.94
249.74
242.66
238.79
240.15
247.34
265.91
298.26
333.75
365.46
394.38
420.27
444.43
467.63
489.18
514.56
544.80
564.21
563.17
545.17
513.41
476.08
441.62
365.47
226.65
102.96
23.85
-30.10
-64.84
-91.25
-114.60
-138.89
-165.50
-184.29
-185.45
-175.02
-156.29
-124.69
-86.52
-43.80
-1.01
36.05
67.92
95.01
109.50
91.21
78.44
76.06
93.34
131.37
183.56
242.21
298.00
337.27
353.13
348.45
304.04
220.59
112.39
1.90
-90.84
-160.24
-215.22
-261.86
-300.52
-337.53
-362.68
-372.29
-366.93
-349.51
-323.81
-293.43
-259.76
-222.10
-183.40
-142.88
-103.15
-68.60
-44.39
-34.50
-39.78
-57.98
-84.84
-117.37
-150.66
-182.89
-214.26
-246.50
-281.84
-321.84
-367.28
-418.14
-473.48
-528.75
-577.68
-612.87
-628.12
-620.84
-593.05
-550.92
-502.63
-455.36
-412.91
-376.26
-344.60
-316.96
-292.98
-272.68
-255.75
-241.09
-226.89
-211.38
-193.84
-174.81
-155.85
-138.71
-124.50
-113.20
-103.70
-94.37
-83.73
-71.17
-57.14
-42.96
-30.28
-20.43
-14.00
-10.72
-9.69
-9.77
-9.87
-9.17
-7.17
-3.56
1.91
9.46
19.22
31.00
44.15
57.64
70.10
80.10
86.37
88.13
85.14
77.71
66.53
52.53
36.76
20.16
3.60
-12.25
-26.85
-39.85
-51.03
-60.29
-67.67
-73.23
-77.13
-79.56
-80.74
-80.91
-80.32
-79.22
-77.81
-76.28
-74.72
-73.20
-71.76
-70.34
-68.94
-67.51
-66.03
-64.53
-63.04
-61.57
-60.20
-58.92
-57.68
-56.36
-54.85
-52.98
-50.63
-47.76
-44.40
-40.70
-36.90
-33.28
-30.06
-27.46
-25.55
-24.30
-23.55
-23.00
-22.30
-21.02
-18.74
-15.07
-9.73
-2.58
6.28
16.55
27.72
39.13
50.10
60.03
68.57
75.61
81.30
85.91
89.72
93.01
95.95
98.69
101.47
104.63
108.59
113.80
120.43
128.34
137.00
145.63
153.40
159.87
165.04
169.48
174.07
179.68
186.87
195.71
205.93
217.12
229.04
241.77
255.59
270.88
287.97
307.16
328.59
351.95
375.97
398.12
414.80
422.33
418.25
402.27
376.50
344.64
310.63
277.61
247.45
221.26
199.97
184.58
175.80
173.41
175.83
180.30
183.63
183.12
177.25
165.81
149.76
130.74
110.60
90.94
72.76
56.28
41.01
26.17
11.19
-3.85
-18.16
-30.73
-41.01
-49.32
-56.72
-64.40
-72.86
-81.51
-88.99
-93.77
-95.06
-93.10
-88.66
-82.43
-74.69
-65.33
-54.49
-42.83
-31.40
-21.10
-12.14
-3.95
4.28
12.84
21.29
28.79
34.91
40.19
45.91
53.14
61.90
70.68
77.12
79.06
75.62
67.50
56.49
44.50
32.90
22.25
12.43
3.34
-4.83
-11.54
-16.22
-18.62
-19.14
-18.65
-18.25
-18.86
-20.84
-23.97
-27.70
-31.44
-34.79
-37.61
-39.76
-40.87
-40.33
-37.37
-31.47
-22.64
-11.50
0.92
13.62
25.82
37.13
47.34
56.21
63.38
68.45
71.26
71.88
70.67
67.91
63.62
57.43
48.92
37.84
24.53
9.98
-4.47
-17.44
-27.83
-35.15
-39.60
-42.08
-44.01
-47.12
-52.95
-62.36
-75.14
-89.98
-104.79
-117.32
-125.93
-129.98
-129.85
-126.59
-121.22
-114.30
-105.60
-94.26
-79.09
-59.32
-35.07
-7.78
19.91
44.72
63.59
74.47
76.82
71.68
61.25
48.27
35.51
25.16
18.67
16.48
18.15
22.54
28.21
33.88
38.73
42.45
45.15
47.11
48.70
50.32
52.46
55.82
61.11
68.92
79.47
92.41
106.62
120.21
130.85
136.16
134.38
124.88
108.31
86.39
61.35
35.38
10.31
-12.40
-31.56
-46.34
-56.33
-61.85
-63.98
-64.36
-64.56
-65.69
-68.06
-71.35
-75.05
-78.77
-82.55
-86.73
-91.72
-97.62
-104.07
-110.25
-115.11
-117.66
-117.37
-114.37
-109.47
-103.93
-99.00
-95.63
-94.04
-93.64
-93.15
-90.97
-85.79
-77.13
-65.61
-52.74
-40.49
-30.50
-23.62
-19.82
-18.44
-18.60
-19.49
-20.40
-20.71
-19.74
-16.89
-11.89
-5.05
2.75
10.27
16.36
20.31
22.03
21.93
20.76
19.29
18.02
17.25
16.91
16.65
15.91
14.00
10.38
4.82
-2.45
-10.75
-19.13
-26.60
-32.26
-35.41
-35.54
-32.52
-26.60
-18.65
-10.07
-2.54
2.47
4.09
2.25
-2.53
-9.43
-17.75
-26.99
-36.75
-46.42
-55.02
-61.25
-63.79
-61.90
-55.61
-45.82
-33.96
-21.59
-10.02
-0.22
7.14
11.74
13.49
12.77
10.40
7.52
5.38
4.95
6.68
10.47
15.78
21.92
28.20
34.09
39.12
42.96
45.31
46.00
44.94
42.26
38.33
33.70
28.95
24.50
20.48
16.71
12.86
8.59
3.82
-1.37
-6.63
-11.56
-15.71
-18.62
-19.86
-19.14
-16.42
-11.96
-6.27
0.09
6.71
13.42
20.17
26.83
33.14
38.68
43.14
46.41
48.63
50.06
50.90
51.13
50.62
49.27
47.14
44.44
41.45
38.28
34.83
30.91
26.29
20.91
14.94
8.77
2.88
-2.24
-6.31
-9.33
-11.58
-13.55
-15.70
-18.30
-21.38
-24.71
-27.89
-30.51
-32.16
-32.48
-31.24
-28.42
-24.33
-19.58
-14.95
-11.04
-8.15
-6.10
-4.42
-2.60
-0.37
2.24
5.01
7.64
9.93
11.82
13.26
14.19
14.47
13.96
12.59
10.46
7.88
5.20
2.83
0.95
-0.47
-1.74
-3.27
-5.38
-8.18
-11.48
-14.90
-17.99
-20.52
-22.46
-24.00
-25.39
-26.79
-28.28
-29.84
-31.33
-32.56
-33.31
-33.37
-32.53
-30.64
-27.59
-23.39
-18.12
-11.97
-5.19
1.93
9.07
15.97
22.41
28.20
33.14
37.06
39.84
41.51
42.28
42.51
42.60
42.83
43.37
44.27
45.60
47.45
50.01
53.42
57.77
63.01
68.95
75.34
81.86
88.14
93.76
98.36
101.61
103.43
104.01
103.87
103.78
104.58
107.02
111.69
118.82
128.29
139.54
151.75
163.96
175.42
185.78
195.08
203.42
210.77
216.65
220.36
221.12
218.17
211.22
200.40
186.25
169.46
150.94
131.86
113.75
98.23
86.33
78.42
74.16
72.74
73.16
74.52
76.14
77.72
79.18
80.14
80.43
80.48
81.22
83.72
88.63
95.82
104.38
112.90
117.89
116.21
106.14
88.02
63.70
35.32
4.70
-26.89
-58.40
-92.67
-132.09
-176.92
-224.41
-270.22
-310.61
-343.65
-369.14
-387.93
-407.15
-433.19
-468.78
-511.60
-556.38
-598.33
-635.05
-666.37
-693.46
-725.64
-771.05
-832.76
-906.85
-985.11
-1059.59
-1125.02
-1178.78
-1171.75
-1070.87
-871.63
-605.73
-322.45
-62.04
155.77
328.05
460.51
561.20
630.21
667.14
674.49
661.01
636.84
609.82
584.48
562.83
545.21
525.47
497.76
459.52
412.79
362.16
311.45
262.40
216.31
171.93
122.52
61.56
-13.46
-97.96
-181.80
-253.50
-303.45
-327.59
-328.68
-315.65
-297.32
-278.63
-259.53
-238.11
-214.01
-188.02
-160.71
-130.74
-94.56
-46.96
15.32
90.74
173.08
245.13
288.25
293.63
266.15
218.87
164.83
111.70
62.45
17.52
-23.04
-57.11
-81.78
-95.17
-99.59
-97.48
-91.94
-85.24
-78.64
-72.59
-65.85
-56.87
-45.13
-31.88
-19.31
-9.83
-4.08
-0.82
1.19
5.09
14.38
31.83
58.68
94.96
135.05
172.79
202.61
221.29
229.21
228.81
223.02
213.69
201.55
186.48
168.94
149.93
130.93
113.76
99.53
88.92
81.57
76.36
71.60
66.32
60.24
54.04
49.07
46.38
47.08
51.38
58.50
66.79
75.03
82.45
89.07
97.55
107.16
117.84
129.47
141.90
154.17
164.69
170.39
167.19
151.33
121.04
79.03
31.87
-11.88
-45.26
-64.66
-70.72
-66.97
-57.63
-45.91
-32.78
-18.22
-2.39
12.86
25.50
34.12
38.93
41.57
43.78
46.65
49.06
52.59
55.71
56.79
54.98
50.49
44.23
37.21
30.70
25.95
24.28
25.95
30.61
36.82
42.35
45.07
43.78
38.84
31.73
24.23
16.97
9.90
2.38
-6.12
-15.48
-25.01
-33.65
-40.75
-46.24
-51.03
-56.16
-62.63
-70.95
-81.11
-92.66
-104.73
-116.49
-127.27
-136.87
-145.20
-151.90
-156.28
-157.24
-153.54
-144.09
-128.46
-106.95
-80.71
-51.40
-20.83
9.32
37.63
63.01
84.62
101.74
113.82
120.47
121.65
117.87
110.16
100.03
89.04
78.47
68.96
60.46
52.42
44.04
34.80
24.64
14.04
3.81
-5.37
-13.29
-20.34
-27.39
-35.41
-44.87
-55.42
-65.76
-74.12
-78.88
-79.17
-75.10
-67.75
-58.61
-49.23
-41.02
-35.22
-32.58
-32.73
-33.64
-31.82
-23.55
-6.89
16.84
42.80
64.24
75.08
72.20
56.21
30.47
-0.85
-34.42
-68.39
-101.94
-134.57
-165.69
-194.93
-222.69
-250.14
-278.45
-307.71
-336.31
-361.07
-378.31
-385.37
-381.76
-369.41
-352.04
-333.62
-317.07
-303.22
-290.80
-277.17
-259.59
-236.31
-207.26
-174.03
-139.16
-105.27
-74.19
-46.69
-22.73
-2.07
15.23
28.82
38.41
44.31
47.72
50.39
54.03
59.55
66.66
73.90
79.40
81.62
80.08
75.33
68.56
60.71
52.36
43.83
35.73
28.18
21.11
13.94
5.65
-5.08
-19.36
-36.66
-54.02
-66.21
-68.42
-58.13
-36.40
-7.52
22.79
48.72
67.12
78.17
85.30
91.21
97.22
103.16
108.19
111.27
109.70
102.46
91.40
82.99
81.31
88.58
104.75
128.68
158.09
185.05
202.34
206.22
201.44
189.20
170.75
148.38
127.41
113.40
101.99
86.88
63.97
39.63
12.56
-20.37
-62.15
-111.58
-165.43
-229.82
-308.91
-399.77
-483.66
-553.07
-606.34
-646.08
-673.20
-628.97
-483.61
-254.52
-52.45
100.23
207.79
296.31
373.72
443.35
505.15
547.19
559.29
539.65
504.37
460.89
412.86
361.15
309.08
259.82
207.80
147.58
78.25
9.90
-56.17
-121.81
-189.22
-254.59
-310.43
-353.00
-379.72
-388.62
-375.27
-344.76
-306.50
-271.23
-245.23
-231.18
-230.57
-240.85
-254.03
-257.24
-242.05
-205.72
-151.62
-84.44
-9.87
66.07
138.43
204.55
262.64
309.93
344.79
368.29
387.15
408.55
435.51
465.18
491.16
504.66
498.40
469.18
408.09
319.11
218.58
124.88
47.59
-12.08
-58.09
-94.11
-121.44
-141.07
-151.89
-154.69
-153.25
-158.88
-172.10
-191.69
-214.34
-235.59
-252.28
-261.09
-261.52
-256.60
-251.29
-249.53
-255.59
-272.99
-295.86
-321.00
-342.52
-353.41
-347.66
-322.28
-277.65
-219.30
-155.38
-93.88
-41.48
-0.23
30.75
53.44
69.77
82.03
92.11
102.17
114.60
130.33
149.68
171.72
194.81
217.33
239.33
262.67
291.21
329.72
380.83
443.24
509.97
569.12
607.17
613.78
585.23
525.52
444.15
351.73
256.56
162.78
71.18
-18.59
-106.34
-191.01
-271.17
-345.34
-411.53
-466.21
-504.08
-519.64
-509.73
-475.65
-423.69
-363.58
-305.29
-256.30
-220.11
-196.58
-183.59
-178.48
-178.74
-181.95
-185.64
-187.34
-185.09
-178.06
-166.57
-151.84
-135.48
-118.76
-102.38
-86.61
-71.52
-57.51
-45.45
-36.44
-31.52
-31.16
-35.00
-41.84
-49.98
-57.64
-63.39
-66.35
-66.00
-62.06
-54.19
-41.93
-24.89
-2.98
23.38
53.28
85.47
118.72
152.04
184.94
217.55
250.58
285.10
321.93
360.88
400.02
435.63
462.79
477.02
475.78
459.57
431.67
397.08
360.80
326.53
296.14
269.92
247.54
228.68
213.33
201.64
193.50
188.37
185.34
183.35
181.47
179.16
176.33
173.23
170.35
168.27
167.50
168.35
170.80
174.48
178.72
182.77
186.06
188.26
189.26
189.25
188.61
187.83
187.15
186.07
183.12
176.01
162.44
141.19
113.05
80.89
48.70
20.15
-2.77
-20.27
-34.24
-47.18
-61.10
-76.87
-94.23
-112.50
-131.06
-149.79
-169.06
-189.45
-211.57
-235.88
-262.91
-293.19
-326.85
-362.63
-397.30
-426.04
-443.76
-447.27
-436.78
-416.00
-390.45
-365.01
-341.95
-320.58
-298.56
-273.91
-246.58
-218.48
-192.45
-170.69
-153.75
-140.55
-129.39
-118.88
-108.70
-99.61
-92.62
-88.16
-85.35
-82.27
-76.88
-68.25
-57.22
-46.09
-37.47
-32.77
-31.37
-30.86
-27.94
-19.94
-5.83
13.57
36.13
59.35
81.27
101.04
119.02
136.45
154.94
176.04
200.61
228.21
256.43
280.84
295.57
295.14
276.49
240.59
192.53
139.87
90.07
48.15
15.80
-7.87
-24.94
-36.96
-44.83
-49.44
-52.57
-57.26
-67.56
-87.50
-119.79
-164.56
-218.15
-273.02
-319.15
-346.75
-349.64
-327.67
-286.76
-236.49
-186.29
-142.01
-104.79
-72.17
-40.88
-9.20
22.16
51.09
75.95
96.89
116.19
137.10
162.55
194.34
232.84
277.50
327.07
379.10
429.39
471.89
499.76
507.37
492.52
457.43
407.89
351.19
293.50
238.27
186.24
136.64
89.01
44.41
5.49
-24.37
-42.44
-47.84
-41.79
-27.06
-6.79
16.78
42.61
70.38
99.43
127.82
152.21
168.91
175.20
170.32
155.50
133.01
104.95
72.46
35.76
-5.32
-50.17
-96.83
-142.13
-182.57
-215.51
-240.18
-258.09
-272.59
-288.06
-308.63
-337.13
-374.05
-416.75
-459.51
-494.39
-513.38
-510.99
-486.32
-443.64
-391.09
-337.71
-290.55
-253.11
-225.54
-206.15
-193.21
-185.64
-182.77
-183.41
-185.11
-184.31
-177.58
-162.97
-140.88
-113.79
-85.17
-57.99
-33.81
-12.70
6.15
23.40
38.94
51.75
60.53
64.47
64.00
60.71
56.89
54.75
55.64
60.04
67.63
77.87
90.48
105.61
123.69
145.24
170.57
199.56
231.42
264.36
295.61
321.77
339.81
348.03
346.72
337.91
324.37
308.49
291.33
272.77
252.17
229.42
205.46
182.15
161.54
144.93
132.54
123.55
116.50
109.77
101.79
91.13
76.50
57.11
32.96
5.21
-23.85
-51.44
-75.01
-92.98
-105.01
-111.75
-114.49
-114.87
-114.54
-114.88
-116.53
-118.92
-120.26
-118.23
-111.36
-100.13
-87.21
-76.55
-71.48
-72.89
-78.60
-84.20
-84.94
-77.68
-62.15
-40.57
-16.55
6.45
26.19
42.06
54.62
64.75
73.00
79.46
84.10
87.10
89.24
91.56
94.71
98.52
101.73
102.61
99.89
93.46
84.33
74.03
63.79
53.80
43.46
31.90
18.76
4.55
-9.51
-22.04
-32.00
-38.77
-41.99
-41.09
-35.38
-24.35
-8.32
11.31
32.27
52.16
69.33
83.09
93.78
101.88
107.55
110.51
110.36
107.39
102.65
97.53
92.56
87.13
79.77
69.41
56.61
43.44
32.33
24.60
19.76
16.37
14.18
15.33
23.86
43.19
73.21
108.94
142.25
165.49
175.15
174.03
169.78
171.48
186.01
215.74
258.69
310.22
365.13
418.95
468.35
510.48
542.61
562.22
567.38
557.68
534.54
500.91
460.40
416.19
370.05
322.11
271.42
216.52
156.53
91.82
24.11
-43.83
-108.88
-168.25
-219.84
-262.13
-294.38
-316.12
-327.02
-326.96
-316.10
-295.09
-265.36
-229.05
-188.96
-148.50
-111.06
-79.77
-57.02
-44.21
-41.59
-48.33
-62.83
-82.96
-106.72
-132.31
-158.35
-183.68
-207.18
-227.75
-244.43
-256.64
-264.57
-269.40
-273.07
-277.80
-285.23
-295.84
-308.89
-322.93
-336.33
-348.43
-359.80
-372.23
-388.26
-410.69
-442.21
-484.74
-538.32
-599.77
-662.10
-715.29
-748.77
-754.86
-731.57
-683.25
-618.85
-548.42
-480.21
-419.16
-367.32
-325.43
-294.18
-274.23
-265.51
-266.29
-273.03
-281.23
-286.85
-287.21
-281.55
-270.70
-256.17
-239.36
-221.13
-201.88
-181.90
-161.75
-142.44
-125.34
-111.75
-102.32
-96.76
-93.84
-91.82
-88.97
-84.07
-76.65
-67.08
-56.19
-44.89
-33.81
-23.21
-13.06
-3.20
6.51
16.01
25.04
33.22
40.27
45.98
50.33
53.36
55.23
56.10
56.12
55.42
54.14
52.49
50.62
48.71
46.86
45.15
43.56
42.04
40.49
38.81
36.94
34.83
32.50
30.01
27.49
25.07
22.91
21.15
19.86
19.14
18.98
19.36
20.24
21.50
23.08
24.86
26.79
28.78
30.79
32.81
34.82
36.83
38.80
40.76
42.67
44.52
46.29
47.92
49.41
50.71
51.83
52.74
53.45
53.99
54.39
54.64
54.74
54.68
54.40
53.93
53.19
52.14
50.82
49.24
47.47
45.56
43.63
41.76
40.08
38.68
37.61
36.85
36.39
36.19
36.16
36.29
36.53
36.89
37.40
38.03
38.77
39.56
40.33
41.01
41.54
41.88
42.09
42.27
42.53
42.94
43.50
44.21
45.04
45.96
47.06
48.53
50.56
53.35
56.92
61.17
65.82
70.63
75.36
80.03
84.79
89.90
95.60
101.93
108.68
115.45
121.83
127.58
132.82
138.06
144.00
151.32
160.37
171.04
182.89
195.30
207.76
220.14
232.67
245.87
260.58
277.75
298.13
321.59
346.65
370.27
