1589298448.00
64.000000
-0.00
-0.00
-0.00
-0.00
-0.00
-0.00
-0.00
-0.00
-0.00
-0.00
0.00
0.01
0.01
-0.00
-0.03
-0.05
-0.05
0.00
0.13
0.36
0.66
1.01
1.37
1.72
2.06
2.40
2.79
3.24
3.80
4.42
5.06
5.66
6.20
6.68
7.15
7.68
8.31
9.14
10.09
11.04
11.88
12.56
13.14
13.76
14.65
15.96
17.91
20.32
22.90
25.38
27.58
29.57
31.68
34.32
37.81
42.54
48.15
54.10
59.83
64.97
69.58
74.14
79.34
85.71
93.76
103.00
112.62
121.73
129.77
136.75
143.30
150.75
157.77
166.64
177.95
191.79
206.97
220.57
228.25
225.36
208.53
176.87
132.76
80.05
23.07
-34.94
-92.44
-149.16
-205.23
-260.37
-313.74
-363.87
-409.83
-450.91
-486.50
-515.74
-537.23
-549.22
-549.96
-538.37
-514.21
-478.67
-433.88
-382.45
-327.02
-269.84
-212.63
-156.66
-102.95
-52.37
-5.90
35.58
71.43
101.35
125.50
144.38
158.69
169.15
176.37
180.75
182.57
182.07
179.51
175.23
169.65
163.18
156.15
148.81
141.30
133.69
126.02
118.33
110.69
103.16
95.80
88.68
81.83
75.25
68.95
62.95
57.25
51.86
46.78
42.03
37.59
33.45
29.61
26.07
22.81
19.83
17.11
14.67
12.48
10.54
8.83
7.35
6.07
4.97
4.05
3.27
2.62
2.09
1.65
1.30
1.01
0.79
0.61
0.48
0.37
0.29
0.22
0.18
0.14
0.11
0.09
0.08
0.07
0.06
0.05
0.05
0.04
0.04
0.04
0.03
0.03
0.03
0.03
0.03
0.03
0.03
0.02
0.02
0.02
0.02
0.02
0.02
0.02
0.02
0.02
0.02
0.02
0.02
0.02
0.02
0.03
0.04
0.05
0.07
0.08
0.10
0.13
0.16
0.20
0.24
0.28
0.33
0.38
0.45
0.51
0.59
0.67
0.76
0.86
0.96
1.07
1.18
1.30
1.43
1.57
1.72
1.89
2.07
2.27
2.49
2.73
3.00
3.29
3.63
3.99
4.39
4.84
5.33
5.87
6.45
7.09
7.78
8.53
9.36
10.25
11.21
12.25
13.35
14.51
15.76
17.08
18.49
20.02
21.64
23.36
25.20
27.06
28.95
30.85
32.66
34.33
35.77
36.88
37.57
37.80
37.45
36.56
35.18
33.31
30.96
28.12
24.81
21.07
16.94
12.39
7.51
2.39
-2.98
-8.51
-14.18
-19.89
-25.46
-30.06
-33.93
-36.94
-39.00
-40.17
-40.52
-40.30
-39.71
-38.86
-37.75
-36.42
-34.76
-32.78
-31.01
-29.50
-28.52
-28.30
-28.76
-29.58
-30.36
-30.65
-30.29
-29.64
-29.24
-29.80
-31.71
-34.85
-38.57
-42.01
-44.37
-45.39
-45.62
-46.12
-48.09
-52.21
-58.30
-65.32
-71.85
-76.67
-79.20
-79.95
-79.99
-80.57
-82.65
-86.75
-92.80
-99.86
-106.01
-107.29
-99.48
-79.53
-47.37
-6.84
35.26
71.47
96.56
109.32
112.38
110.09
106.26
102.64
99.15
95.04
90.13
85.21
81.63
80.25
80.95
82.80
84.46
84.53
82.00
76.05
66.36
53.49
38.93
24.72
12.82
4.45
-0.18
-1.42
0.22
4.67
12.20
22.60
34.23
44.12
48.94
45.66
35.18
20.90
7.45
-1.13
-3.30
-0.32
4.66
8.01
7.16
1.03
-10.33
-26.87
-48.08
-72.44
-96.89
-116.48
-125.84
-121.43
-103.39
-76.13
-46.29
-20.03
-0.72
11.39
18.60
23.48
27.23
29.52
29.29
26.53
22.63
20.08
21.03
27.17
39.05
56.13
76.72
96.22
111.15
119.12
122.20
119.76
111.09
95.85
74.49
48.74
21.46
-3.67
-23.73
-37.54
-45.71
-50.13
-53.22
-56.42
-59.50
-60.85
-58.36
-50.75
-37.80
-21.33
-4.50
9.56
19.12
24.37
26.92
28.68
31.03
34.60
37.74
36.77
27.84
8.84
-19.60
-54.56
-92.15
-128.47
-160.15
-180.12
-184.64
-176.03
-161.08
-145.64
-131.55
-118.34
-108.76
-102.42
-100.42
-104.76
-115.97
-132.07
-149.40
-162.10
-167.30
-164.60
-154.70
-139.06
-119.17
-95.41
-67.13
-33.61
4.61
44.85
83.38
117.06
143.52
161.59
171.58
174.95
173.50
168.60
160.60
149.49
135.75
120.14
103.72
87.75
73.34
61.20
51.38
43.25
36.00
29.08
22.12
14.90
7.36
-0.35
-7.87
-14.54
-19.63
-22.53
-23.14
-22.39
-22.21
-24.86
-31.82
-42.71
-55.05
-65.04
-69.06
-65.18
-53.89
-37.57
-19.27
-1.48
14.47
28.07
38.92
46.37
49.63
48.42
43.58
37.10
31.43
28.59
29.37
33.15
38.26
42.68
44.87
44.30
41.50
37.78
34.64
33.16
33.51
35.00
36.35
36.31
34.10
29.60
23.26
15.68
7.37
-1.52
-11.13
-21.69
-33.34
-45.92
-58.91
-71.35
-81.96
-89.28
-91.88
-88.73
-79.45
-64.44
-44.87
-22.49
0.71
22.77
42.09
57.65
69.02
76.29
79.99
80.76
79.27
76.15
71.92
67.07
61.94
56.75
51.57
46.44
41.46
36.89
33.10
30.35
28.59
27.37
25.97
23.59
19.69
14.11
7.10
-0.86
-9.24
-17.56
-25.54
-33.15
-40.60
-48.23
-56.21
-64.26
-71.46
-76.32
-77.15
-72.70
-62.61
-47.70
-29.73
-10.98
6.39
20.80
31.41
38.02
40.88
40.46
37.34
32.25
26.02
19.57
13.79
9.29
6.34
4.84
4.51
5.03
6.15
7.80
9.91
12.32
14.78
16.95
18.53
19.37
19.48
18.89
17.48
14.86
10.32
3.06
-7.46
-21.11
-36.85
-52.74
-66.30
-75.06
-77.24
-72.14
-60.23
-42.99
-22.46
-0.81
20.03
38.56
53.73
64.92
71.82
74.42
72.91
67.64
59.19
48.35
36.01
23.19
10.78
-0.59
-10.68
-19.69
-28.07
-36.33
-44.77
-53.36
-61.74
-69.46
-76.22
-82.10
-87.58
-93.22
-99.32
-105.58
-111.08
-114.61
-115.26
-112.81
-107.83
-101.32
-94.06
-86.10
-76.59
-64.15
-47.54
-26.41
-1.71
24.39
49.01
69.47
83.99
92.28
95.46
95.57
94.75
94.44
94.91
95.27
93.93
89.41
81.05
69.36
55.87
42.57
31.14
22.51
16.70
13.29
11.85
12.27
14.56
18.26
22.11
24.04
21.79
13.77
-0.35
-19.56
-41.94
-65.28
-87.46
-106.48
-120.38
-127.21
-125.30
-113.85
-93.37
-65.88
-34.43
-2.42
27.25
52.75
73.29
89.01
100.39
107.89
111.78
112.17
109.21
103.31
95.16
85.68
75.83
66.35
57.70
50.04
43.35
37.58
32.63
28.45
24.76
21.14
16.97
11.70
5.08
-2.71
-11.19
-19.87
-28.72
-38.26
-49.36
-62.70
-78.05
-93.91
-107.65
-116.20
-117.00
-108.84
-92.15
-68.85
-41.65
-13.36
13.74
38.08
58.75
75.23
87.22
94.61
97.63
96.86
93.24
87.86
81.60
74.90
67.77
60.07
51.81
43.44
35.78
29.67
25.55
23.13
21.46
19.32
15.78
10.57
4.14
-2.68
-9.15
-15.03
-20.81
-27.44
-35.95
-46.99
-60.44
-75.29
-89.72
-101.43
-108.07
-107.72
-99.27
-82.78
-59.49
-31.66
-2.12
26.32
51.33
71.49
86.27
95.94
101.24
103.08
102.23
99.24
94.46
88.16
80.64
72.29
63.59
55.08
47.28
40.59
35.20
31.10
28.00
25.40
22.66
19.24
14.69
8.90
1.98
-5.67
-13.57
-21.34
-28.84
-36.36
-44.58
-54.38
-66.34
-80.31
-94.95
-107.81
-115.89
-116.47
-108.06
-90.86
-66.69
-38.33
-8.76
19.55
44.85
66.09
82.60
93.98
100.10
101.31
98.47
92.88
85.87
78.50
71.20
63.83
55.95
47.24
37.78
28.15
19.26
12.03
7.00
4.18
2.91
2.14
0.76
-2.05
-6.57
-12.49
-19.19
-26.02
-32.66
-39.30
-46.47
-54.81
-64.63
-75.61
-86.69
-96.12
-101.86
-101.94
-95.05
-80.87
-60.26
-35.13
-8.05
18.32
41.68
60.51
74.02
82.17
85.40
84.47
80.26
73.73
65.79
57.25
48.78
40.89
33.92
28.09
23.50
20.12
17.78
16.19
14.94
13.59
11.67
8.75
4.48
-1.31
-8.52
-16.78
-25.47
-34.01
-42.10
-49.98
-58.37
-68.16
-79.93
-93.33
-106.89
-118.14
-124.23
-122.74
-112.50
-93.85
-68.63
-39.55
-9.47
19.14
44.56
65.71
81.99
93.03
98.80
99.66
96.41
90.28
82.58
74.32
66.02
57.72
49.24
40.62
32.26
24.91
19.31
15.79
14.04
13.13
11.88
9.31
5.00
-0.84
-7.52
-14.23
-20.46
-26.15
-31.75
-38.04
-45.84
-55.68
-67.52
-80.58
-93.23
-103.23
-108.15
-105.91
-95.41
-76.90
-52.01
-23.41
5.78
32.72
55.25
72.25
83.49
89.41
90.80
88.61
83.73
76.97
69.04
60.53
51.90
43.56
35.84
28.99
23.21
18.56
15.02
12.41
10.39
8.56
6.44
3.60
-0.27
-5.24
-11.16
-17.68
-24.43
-31.15
-37.84
-44.90
-52.95
-62.48
-73.50
-85.05
-95.18
-101.22
-100.59
-91.67
-74.46
-50.69
-23.35
4.28
29.44
50.36
66.36
77.35
83.59
85.38
83.13
77.53
69.55
60.39
51.14
42.57
34.92
28.08
21.81
15.96
10.67
6.14
2.60
-0.05
-2.27
-4.67
-7.86
-12.10
-17.23
-22.80
-28.36
-33.76
-39.26
-45.50
-53.18
-62.69
-73.70
-85.09
-94.92
-100.94
-101.09
-94.10
-79.86
-59.53
-35.22
-9.52
15.04
36.43
53.33
65.12
71.78
73.71
71.60
66.26
58.57
49.33
39.30
29.13
19.38
10.61
3.24
-2.47
-6.56
-9.32
-11.30
-13.10
-15.19
-17.81
-20.91
-24.30
-27.77
-31.31
-35.12
-39.60
-45.29
-52.64
-61.84
-72.55
-83.72
-93.58
-99.89
-100.44
-93.72
-79.41
-58.61
-33.59
-7.20
17.78
39.23
55.89
67.28
73.51
75.04
72.50
66.64
58.32
48.42
37.82
27.37
17.75
9.46
2.74
-2.44
-6.31
-9.33
-11.99
-14.68
-17.63
-20.90
-24.39
-28.06
-31.99
-36.50
-42.08
-49.27
-58.41
-69.41
-81.51
-93.24
-102.56
-107.23
-105.30
-95.67
-78.47
-55.15
-28.12
-0.24
25.81
48.03
65.25
77.07
83.60
85.36
83.04
77.53
69.76
60.68
51.07
41.62
32.83
25.08
18.61
13.51
9.59
6.45
3.58
0.58
-2.74
-6.37
-10.16
-14.10
-18.42
-23.61
-30.27
-38.92
-49.68
-62.16
-75.22
-87.08
-95.52
-98.32
-93.84
-81.41
-61.69
-36.53
-8.51
19.55
45.18
66.52
82.55
92.96
98.04
98.55
95.45
89.73
82.27
73.74
64.67
55.59
47.12
39.89
34.42
30.83
28.71
27.23
25.44
22.59
18.40
13.05
7.02
0.71
-5.70
-12.36
-19.70
-28.16
-38.09
-49.54
-62.00
-74.41
-85.01
-91.68
-92.25
-85.21
-70.10
-47.89
-20.72
8.47
36.71
61.48
81.11
94.91
102.96
105.91
104.67
100.25
93.53
85.30
76.21
66.83
57.71
49.34
42.18
36.55
32.53
29.90
28.17
26.63
24.56
21.42
16.95
11.25
4.63
-2.54
-9.98
-17.57
-25.39
-33.70
-42.88
-53.33
-65.26
-78.32
-91.31
-102.06
-107.84
-106.04
-95.10
-75.15
-48.21
-17.57
13.00
40.31
62.33
78.29
88.44
93.47
94.12
91.01
84.71
75.95
65.68
55.02
45.06
36.50
29.58
24.03
19.39
15.25
11.46
8.06
5.09
2.31
-0.83
-5.09
-11.08
-18.89
-27.99
-37.39
-46.07
-53.39
-59.46
-65.04
-71.22
-78.90
-88.20
-98.27
-107.29
-112.84
-112.51
-104.53
-88.24
-64.23
-34.30
-0.94
33.09
65.32
93.81
117.39
135.51
148.23
155.99
159.47
159.53
157.10
153.17
148.76
144.78
141.97
140.73
140.97
142.17
143.52
144.10
143.18
140.38
135.68
129.24
121.22
111.67
100.51
87.74
73.58
58.49
43.09
27.92
13.13
-1.56
-16.83
-33.49
-52.20
-73.12
-95.76
-118.81
-140.21
-157.46
-168.16
-170.63
-164.46
-150.71
-131.60
-109.90
-88.18
-68.34
-51.48
-38.11
-28.39
-22.35
-19.80
-20.26
-22.88
-26.59
-30.32
-33.27
-35.08
-35.78
-35.57
-34.64
-32.97
-30.36
-26.58
-21.64
-15.95
-10.27
-5.51
-2.42
-1.22
-1.62
-2.95
-4.54
-6.03
-7.51
-9.46
-12.53
-17.27
-23.98
-32.62
-42.66
-53.03
-62.12
-67.92
-68.49
-62.49
-49.66
-31.08
-8.95
13.99
35.14
52.59
65.30
73.09
76.24
75.29
70.89
63.77
54.80
44.98
35.29
26.54
19.23
13.42
8.91
5.27
2.12
-0.81
-3.67
-6.54
-9.52
-12.76
-16.44
-20.65
-25.37
-30.40
-35.49
-40.47
-45.41
-50.61
-56.53
-63.53
-71.60
-80.07
-87.59
-92.28
-92.14
-85.73
-72.61
-53.63
-30.74
-6.52
16.52
36.50
52.31
63.53
70.13
72.31
70.41
65.03
57.19
48.13
39.11
31.07
24.40
19.02
14.57
10.75
7.43
4.62
2.36
0.48
-1.41
-3.78
-7.02
-11.21
-16.14
-21.37
-26.52
-31.47
-36.51
-42.26
-49.36
-58.18
-68.42
-78.88
-87.63
-92.37
-91.08
-82.59
-66.96
-45.55
-20.65
5.09
29.16
49.66
65.45
76.10
81.78
83.05
80.71
75.71
68.98
61.34
53.45
45.78
38.68
32.46
27.32
23.36
20.46
18.28
16.23
13.64
10.01
5.11
-0.91
-7.63
-14.59
-21.46
-28.25
-35.25
-42.98
-51.95
-62.44
-74.22
-86.38
-97.31
-104.91
-107.00
-101.87
-88.88
-68.72
-43.40
-15.77
11.13
34.76
53.49
66.76
74.85
78.51
78.68
76.15
71.55
65.34
57.88
49.59
40.98
32.63
25.11
18.93
14.32
11.20
9.17
7.59
5.76
3.11
-0.71
-5.73
-11.74
-18.45
-25.67
-33.41
-41.85
-51.33
-62.18
-74.53
-88.18
-102.40
-115.83
-126.43
-131.69
-129.18
-117.20
-95.43
-65.34
-29.95
6.83
41.19
70.26
92.50
107.59
116.03
118.61
116.22
109.78
100.39
89.32
77.90
67.22
57.84
49.68
42.19
34.73
26.91
18.76
10.60
2.80
-4.47
-11.38
-18.20
-25.13
-31.99
-38.35
-43.72
-47.96
-51.45
-55.05
-59.73
-66.06
-73.71
-81.23
-86.15
-85.36
-76.01
-56.30
-26.39
11.40
52.89
93.20
128.08
155.14
174.32
187.49
197.38
206.36
215.58
224.69
232.30
236.62
236.18
230.11
218.13
200.45
177.64
150.82
121.77
92.92
66.92
45.82
30.31
19.36
10.45
0.47
-13.30
-32.28
-56.33
-84.07
-113.48
-142.58
-169.90
-194.65
-216.45
-235.06
-250.01
-260.52
-265.57
-264.23
-255.98
-240.86
-219.49
-192.79
-161.90
-128.15
-93.17
-58.90
-27.55
-1.25
18.37
30.44
34.98
32.72
24.96
13.30
-0.41
-14.23
-26.21
-34.68
-38.55
-37.62
-32.67
-25.28
-17.45
-11.01
-7.19
-6.40
-8.30
-12.07
-16.83
-21.90
-26.92
-31.83
-36.79
-42.16
-48.40
-56.05
-65.42
-76.25
-87.38
-96.70
-101.51
-99.25
-88.38
-69.05
-43.14
-13.79
15.59
42.21
64.50
82.12
95.59
105.74
113.44
119.39
124.23
128.59
132.97
137.54
141.90
145.04
145.56
142.23
134.56
123.23
110.06
97.30
86.90
79.57
74.65
70.49
65.39
58.44
49.81
40.37
30.92
21.61
11.81
0.77
-11.84
-25.50
-39.12
-51.47
-61.68
-69.29
-73.86
-74.68
-70.70
-60.98
-45.26
-24.49
-0.68
23.61
46.00
64.97
79.86
90.64
97.42
100.16
98.70
92.96
83.39
71.02
57.39
44.06
32.28
22.64
15.14
9.39
4.87
1.17
-2.03
-5.04
-8.34
-12.58
-18.53
-26.83
-37.77
-51.00
-65.64
-80.41
-94.05
-105.74
-115.34
-123.45
-131.14
-139.56
-149.53
-161.10
-173.46
-184.88
-193.02
-195.34
-189.73
-175.12
-151.81
-121.51
-86.95
-51.25
-17.31
12.57
36.78
54.40
65.05
68.89
66.74
60.04
50.74
41.03
32.89
27.70
25.97
27.39
30.95
35.38
39.52
42.71
44.85
46.38
47.97
50.32
53.79
58.31
63.25
67.49
69.72
68.65
63.56
54.56
42.68
29.62
17.16
6.63
-1.49
-7.47
-12.07
-15.87
-19.03
-21.11
-21.35
-19.00
-13.72
-5.70
4.45
15.88
27.76
39.39
50.19
59.61
67.07
71.95
73.74
72.14
67.26
59.62
50.06
39.53
28.85
18.57
8.93
-0.08
-8.47
-16.21
-23.17
-29.26
-34.60
-39.55
-44.72
-50.80
-58.38
-67.72
-78.72
-90.97
-103.85
-116.79
-129.42
-141.68
-153.75
-165.99
-178.66
-191.72
-204.82
-217.26
-228.14
-236.49
-241.32
-241.71
-236.93
-226.56
-210.72
-190.10
-165.87
-139.38
-111.82
-84.13
-57.01
-31.18
-7.59
12.65
28.50
39.55
46.07
49.01
49.52
48.45
46.21
42.80
38.33
33.34
28.89
26.24
26.20
28.62
32.28
35.27
35.83
33.02
27.09
19.26
11.03
3.55
-2.83
-8.46
-14.04
-20.22
-27.40
-35.74
-45.22
-55.59
-66.18
-75.66
-82.04
-83.05
-76.85
-62.73
-41.45
-15.17
13.25
40.84
65.37
85.48
100.75
111.40
117.94
120.94
120.99
118.61
114.35
108.84
102.71
96.56
90.87
85.91
81.76
78.35
75.53
73.09
70.79
68.30
65.17
60.93
55.20
47.92
39.38
30.18
20.96
12.08
3.42
-5.72
-16.29
-29.10
-44.24
-60.77
-76.66
-89.13
-95.35
-93.28
-82.21
-63.02
-37.88
-9.64
18.87
45.41
68.49
87.35
101.61
111.13
115.93
116.34
113.05
107.16
99.92
92.44
85.40
78.93
72.86
67.01
61.48
56.63
52.88
50.24
48.18
45.57
41.20
34.27
24.75
13.39
1.41
-10.08
-20.46
-29.78
-38.54
-47.46
-57.12
-67.81
-79.43
-91.44
-102.74
-111.65
-116.13
-114.18
-104.45
-86.86
-62.81
-34.94
-6.43
19.83
41.83
58.72
70.58
77.94
81.50
81.81
79.34
74.59
68.14
60.69
52.93
45.47
38.78
33.12
28.63
25.22
22.66
20.55
18.41
15.80
12.43
8.21
3.24
-2.32
-8.30
-14.60
-21.27
-28.48
-36.56
-45.92
-56.80
-68.97
-81.43
-92.29
-99.09
-99.40
-91.60
-75.50
-52.51
-25.29
2.98
29.42
51.98
69.65
82.24
90.03
93.47
93.00
89.16
82.67
74.49
65.70
57.30
49.92
43.78
38.77
34.66
31.28
28.54
26.35
24.45
22.30
19.26
14.77
8.70
1.41
-6.38
-13.95
-20.95
-27.69
-34.96
-43.72
-54.48
-66.88
-79.49
-90.06
-96.01
-95.25
-86.79
-70.97
-49.45
-24.63
0.87
24.79
45.52
62.10
74.14
81.60
84.80
84.35
81.09
75.97
69.90
63.53
57.20
51.04
45.13
39.63
34.84
31.02
28.25
26.23
24.40
22.04
18.57
13.77
7.82
1.19
-5.56
-12.07
-18.35
-24.78
-32.00
-40.62
-50.88
-62.38
-73.96
-83.81
-89.85
-90.19
-83.73
-70.44
-51.52
-29.03
-5.47
16.84
36.15
51.49
62.59
69.72
73.37
74.13
72.55
69.10
64.20
58.26
51.68
44.94
38.55
33.08
28.93
26.27
24.90
24.27
23.63
22.26
19.70
15.88
11.03
5.52
-0.34
-6.42
-12.77
-19.50
-26.75
-34.65
-43.33
-52.79
-62.80
-72.51
-80.42
-84.56
-83.01
-74.62
-59.50
-39.19
-16.18
6.72
27.19
43.81
56.13
64.38
69.08
70.76
69.80
66.55
61.41
54.94
47.79
40.59
33.84
27.82
22.66
18.38
15.03
12.63
11.07
10.11
9.28
8.02
5.89
2.67
-1.52
-6.30
-11.25
-16.13
-20.99
-26.25
-32.56
-40.50
-50.29
-61.42
-72.52
-81.51
-86.02
-84.18
-75.17
-59.63
-39.44
-17.19
4.54
23.84
39.65
51.62
59.79
64.31
65.36
63.34
58.91
53.05
46.82
41.10
36.31
32.52
29.57
27.34
25.89
25.46
26.16
27.81
29.78
31.11
30.80
28.21
23.30
16.64
9.22
2.00
-4.42
-10.02
-15.34
-21.20
-28.35
-37.16
-47.41
-58.26
-68.28
-75.72
-78.78
-76.09
-67.06
-52.16
-32.89
-11.50
9.56
28.21
43.10
53.72
60.27
63.35
63.71
62.04
58.89
54.79
50.21
45.66
41.61
38.38
36.08
34.50
33.29
32.06
30.52
28.57
26.22
23.49
20.29
16.37
11.50
5.57
-1.26
-8.58
-15.85
-22.68
-28.99
-35.13
-41.75
-49.56
-58.98
-69.89
-81.41
-92.07
-100.04
-103.60
-101.56
-93.58
-80.23
-62.84
-43.24
-23.27
-4.52
11.88
25.33
35.67
42.92
47.22
48.71
47.58
44.22
39.27
33.58
28.16
23.85
21.19
20.25
20.66
21.83
23.07
23.97
24.40
24.56
24.80
25.33
26.16
26.97
27.24
26.53
24.64
21.87
18.98
16.95
16.55
18.01
20.75
23.63
25.48
25.79
25.00
24.46
25.88
30.89
40.70
56.06
76.96
102.27
129.34
153.97
171.49
178.21
172.85
156.98
134.08
107.89
80.81
53.58
26.06
-1.47
-27.45
-49.41
-65.07
-73.60
-76.02
-74.76
-72.61
-71.71
-73.21
-77.31
-83.58
-91.31
-99.60
-107.54
-114.29
-119.32
-122.47
-123.92
-124.04
-123.19
-121.64
-119.65
-117.43
-115.06
-112.22
-107.97
-100.81
-89.23
-72.36
-50.65
-25.95
-0.94
21.76
40.59
55.46
67.55
78.59
89.78
101.01
110.52
115.32
112.15
98.81
75.31
44.29
10.64
-19.86
-42.13
-53.31
-53.39
-44.85
-31.58
-17.55
-5.86
1.59
4.00
1.19
-6.61
-18.81
-34.42
-52.08
-70.31
-87.91
-104.33
-119.65
-134.28
-148.28
-160.88
-170.31
-174.23
-170.55
-158.35
-138.42
-113.22
-86.12
-60.29
-37.86
-19.47
-4.61
7.76
18.51
28.14
36.85
44.85
52.41
59.65
66.25
71.38
73.94
73.11
68.74
61.46
52.32
42.32
32.02
21.60
11.05
0.48
-9.80
-19.36
-27.79
-34.91
-40.75
-45.57
-49.81
-54.03
-58.82
-64.79
-72.31
-81.42
-91.69
-102.11
-111.19
-117.19
-118.41
-113.70
-102.80
-86.52
-66.54
-45.02
-24.12
-5.45
10.02
21.97
30.56
36.15
39.24
40.33
39.98
38.70
36.89
34.79
32.44
29.79
26.79
23.57
20.36
17.47
15.12
13.33
11.91
10.49
8.68
6.17
2.83
-1.36
-6.25
-11.64
-17.35
-23.26
-29.42
-36.03
-43.44
-51.91
-61.34
-71.02
-79.62
-85.38
-86.53
-81.93
-71.40
-55.87
-37.09
-17.11
2.26
19.77
34.74
46.95
56.30
62.76
66.29
67.06
65.53
62.40
58.53
54.64
51.16
48.14
45.37
42.56
39.60
36.67
34.09
32.14
30.81
29.64
27.92
25.00
20.58
14.94
8.73
2.64
-2.96
-8.27
-13.89
-20.58
-28.79
-38.44
-48.76
-58.39
-65.64
-68.83
-66.74
-58.92
-45.85
-28.84
-9.66
9.92
28.44
44.94
58.86
69.94
78.03
83.16
85.51
85.45
83.52
80.25
76.15
71.59
66.89
62.39
58.42
55.29
53.11
51.71
50.62
49.21
46.88
43.29
38.43
32.56
26.15
19.66
13.42
7.60
2.18
-3.02
-8.33
-14.13
-20.75
-28.26
-36.29
-43.82
-49.30
-50.98
-47.39
-37.86
-22.81
-3.73
17.29
38.15
57.22
73.54
86.67
96.47
102.82
105.55
104.67
100.48
93.66
85.15
75.86
66.40
56.97
47.45
37.62
27.46
17.26
7.53
-1.23
-8.69
-14.92
-20.25
-25.12
-29.83
-34.41
-38.64
-42.24
-45.10
-47.42
-49.71
-52.66
-56.87
-62.65
-69.79
-77.52
-84.61
-89.63
-91.18
-88.21
-80.27
-67.57
-50.97
-31.81
-11.63
8.08
26.14
41.75
54.56
64.43
71.45
75.75
77.52
77.01
74.58
70.63
65.69
60.31
55.03
50.27
46.26
43.02
40.37
38.05
35.76
33.28
30.45
27.11
23.18
18.55
13.23
7.30
0.99
-5.50
-12.06
-18.73
-25.79
-33.58
-42.38
-52.17
-62.43
-72.11
-79.73
-83.75
-82.98
-76.98
-66.21
-51.94
-35.85
-19.58
-4.40
9.00
20.27
29.32
36.03
40.27
42.01
41.50
39.29
36.14
32.78
29.71
27.09
24.81
22.74
20.85
19.32
18.41
18.30
18.89
19.71
20.03
19.15
16.63
12.50
7.21
1.48
-4.00
-8.80
-12.81
-16.17
-19.20
-22.23
-25.59
-29.54
-34.19
-39.39
-44.55
-48.68
-50.48
-48.78
-42.90
-33.03
-20.23
-6.21
7.15
18.33
26.46
31.36
33.33
32.92
30.62
26.90
22.24
17.19
12.36
8.31
5.43
3.83
3.44
4.01
5.30
7.07
9.16
11.36
13.47
15.25
16.42
16.72
15.90
13.81
10.51
6.25
1.58
-2.89
-6.60
-9.31
-11.14
-12.52
-14.07
-16.37
-19.81
-24.51
-30.34
-36.75
-42.88
-47.54
-49.44
-47.56
-41.52
-31.69
-19.23
-5.68
7.50
19.25
29.10
36.97
42.98
47.16
49.40
49.53
47.52
43.60
38.33
32.37
26.39
20.84
15.87
11.50
7.67
4.47
2.01
0.41
-0.41
-0.79
-1.27
-2.37
-4.45
-7.50
-11.21
-15.12
-18.80
-22.00
-24.75
-27.29
-29.89
-32.72
-35.78
-38.84
-41.52
-43.38
-43.95
-42.76
-39.40
-33.59
-25.33
-14.95
-3.11
9.35
21.58
32.87
42.76
50.93
57.12
61.10
62.66
61.77
58.61
53.60
47.38
40.67
34.12
28.28
23.45
19.74
17.01
14.99
13.33
11.72
9.96
7.98
5.76
3.29
0.51
-2.69
-6.41
-10.67
-15.40
-20.48
-25.72
-31.01
-36.34
-41.77
-47.44
-53.45
-59.70
-65.82
-71.05
-74.40
-74.84
-71.67
-64.73
-54.46
-41.81
-27.93
-14.00
-0.94
10.55
20.01
27.22
32.15
34.98
36.09
36.00
35.26
34.34
33.58
33.17
33.15
33.47
34.13
35.17
36.68
38.71
41.21
43.90
46.39
48.24
49.02
48.53
46.68
43.57
39.38
34.34
28.64
22.44
15.83
8.82
1.33
-6.79
-15.70
-25.51
-36.11
-47.04
-57.42
-66.02
-71.49
-72.80
-69.50
-61.92
-51.03
-38.12
-24.45
-11.01
1.52
12.64
21.92
28.87
33.12
34.56
33.48
30.53
26.57
22.36
18.38
14.77
11.44
8.29
5.35
2.86
1.09
0.26
0.34
1.03
1.87
2.37
2.10
0.81
-1.56
-5.00
-9.35
-14.40
-19.86
-25.38
-30.70
-35.64
-40.25
-44.69
-49.15
-53.59
-57.63
-60.53
-61.33
-59.14
-53.50
-44.53
-32.98
-20.00
-6.80
5.66
16.79
26.37
34.34
40.64
45.08
47.47
47.76
46.16
43.15
39.38
35.41
31.62
28.10
24.75
21.47
18.21
15.01
12.05
9.41
7.09
4.91
2.58
-0.28
-3.90
-8.39
-13.61
-19.23
-24.90
-30.23
-34.92
-38.68
-41.25
-42.37
-41.97
-40.32
-38.09
-36.21
-35.48
-36.16
-37.69
-38.77
-37.79
-33.52
-25.57
-14.51
-1.71
11.31
23.32
33.62
42.08
48.78
53.73
56.73
57.46
55.66
51.41
45.23
37.98
30.62
23.96
18.46
14.29
11.42
9.76
9.28
9.92
11.46
13.46
15.27
16.19
15.70
13.59
10.00
5.38
0.24
-4.97
-10.02
-14.85
-19.47
-23.91
-28.07
-31.76
-34.81
-37.17
-38.94
-40.19
-40.88
-40.68
-39.08
-35.51
-29.61
-21.46
-11.65
-1.12
9.05
17.94
25.02
30.20
33.66
35.71
36.57
36.27
34.75
31.97
28.10
23.50
18.70
14.18
10.35
7.51
5.92
5.79
7.21
9.96
13.53
17.10
19.85
21.20
20.98
19.43
16.98
14.07
10.99
7.87
4.65
1.28
-2.30
-6.11
-10.16
-14.47
-19.14
-24.34
-30.24
-36.85
-43.83
-50.39
-55.38
-57.52
-55.87
-50.11
-40.67
-28.62
-15.28
-1.90
10.59
21.61
30.89
38.25
43.59
46.80
47.86
46.94
44.39
40.73
36.51
32.13
27.75
23.39
18.99
14.60
10.39
6.66
3.65
1.45
-0.15
-1.49
-2.98
-4.94
-7.49
-10.62
-14.16
-17.94
-21.76
-25.52
-29.15
-32.67
-36.20
-39.87
-43.86
-48.31
-53.18
-58.16
-62.62
-65.59
-66.01
-63.04
-56.36
-46.34
-33.96
-20.51
-7.18
5.22
16.42
26.52
35.73
43.97
50.82
55.53
57.35
55.91
51.41
44.64
36.66
28.53
20.93
14.16
8.17
2.91
-1.65
-5.39
-8.23
-10.26
-11.79
-13.33
-15.33
-18.04
-21.38
-25.09
-28.83
-32.51
-36.32
-40.69
-46.04
-52.56
-60.04
-67.95
-75.62
-82.32
-87.44
-90.33
-90.31
-86.64
-78.79
-66.60
-50.57
-31.81
-11.90
7.54
25.16
40.14
52.22
61.51
68.32
72.86
75.27
75.66
74.26
71.60
68.35
65.23
62.71
60.90
59.55
58.23
56.64
54.68
52.53
50.44
48.62
47.08
45.74
44.45
43.17
41.96
40.93
40.11
39.40
38.53
37.23
35.38
33.20
31.32
30.62
32.04
36.27
43.63
54.19
67.98
85.15
105.82
129.69
155.52
181.10
203.58
220.19
229.02
229.35
221.53
206.63
186.14
161.83
135.91
110.88
89.25
72.91
62.68
58.17
58.19
61.34
66.38
72.30
78.11
82.58
84.21
81.50
73.36
59.47
40.43
17.56
-7.45
-33.03
-58.06
-82.07
-105.21
-128.08
-151.37
-175.52
-200.22
-224.17
-244.96
-259.49
-264.55
-257.88
-238.88
-209.08
-171.86
-131.57
-92.40
-57.44
-28.16
-4.62
13.97
28.63
40.13
48.89
55.07
58.73
59.93
58.65
54.82
48.31
39.16
27.75
14.87
1.54
-11.20
-22.72
-32.84
-41.81
-50.09
-58.08
-66.00
-73.85
-81.54
-88.95
-95.99
-102.64
-108.97
-115.15
-121.37
-127.71
-133.88
-139.14
-142.30
-142.02
-137.30
-127.73
-113.71
-96.26
-76.64
-56.00
-35.22
-14.88
4.63
22.88
39.38
53.49
64.50
71.68
74.39
72.30
65.50
54.67
40.93
25.78
10.82
-2.34
-12.29
-18.02
-19.19
-16.51
-11.68
-7.05
-4.83
-6.27
-11.37
-19.05
-27.94
-37.12
-46.49
-56.56
-67.92
-80.66
-94.33
-108.10
-121.00
-132.12
-140.37
-144.47
-142.96
-134.71
-119.48
-98.27
-73.23
-47.13
-22.62
-1.65
14.67
26.00
32.30
33.75
30.82
24.53
16.64
9.53
5.47
5.73
10.03
16.45
22.30
25.28
24.43
20.28
14.24
7.61
0.96
-5.82
-12.86
-19.74
-25.35
-28.55
-28.95
-27.42
-25.87
-26.33
-30.12
-37.43
-47.55
-59.29
-71.44
-82.63
-91.25
-95.31
-92.93
-82.98
-65.74
-43.04
-17.80
6.84
28.39
45.64
58.60
68.18
75.43
80.99
84.86
86.52
85.41
81.45
75.21
67.80
60.37
53.65
47.73
42.35
37.19
32.28
28.00
24.79
22.87
22.00
21.56
20.75
18.86
15.35
9.86
2.24
-7.33
-18.29
-29.67
-40.30
-49.26
-56.24
-61.60
-66.24
-70.95
-76.00
-80.74
-83.82
-83.62
-78.87
-69.02
-54.40
-35.95
-14.96
7.20
29.25
49.93
68.07
82.64
92.85
98.42
99.62
97.28
92.59
86.73
80.64
74.89
69.65
64.87
60.51
56.66
53.62
51.76
51.26
51.98
53.37
54.68
55.16
54.44
52.59
50.10
47.55
45.32
43.40
41.43
38.89
35.30
30.35
23.88
15.75
5.87
-5.63
-18.20
-30.65
-41.22
-47.90
-49.03
-43.91
-33.03
-17.92
-0.66
16.79
33.03
47.31
59.33
68.90
75.73
79.46
79.99
77.68
73.44
68.43
63.59
59.31
55.35
51.08
45.98
39.96
33.50
27.37
22.30
18.65
16.24
14.49
12.73
10.44
7.37
3.56
-0.84
-5.68
-10.94
-16.76
-23.38
-31.07
-40.09
-50.46
-61.86
-73.55
-84.36
-92.86
-97.61
-97.55
-92.28
-82.14
-68.22
-52.04
-35.28
-19.47
-5.79
4.95
12.32
16.19
16.71
14.25
9.41
2.96
-4.26
-11.41
-17.73
-22.57
-25.39
-25.81
-23.80
-19.76
-14.64
-9.74
-6.33
-5.23
-6.57
-9.78
-13.98
-18.34
-22.40
-26.12
-29.79
-33.90
-39.14
-46.33
-56.36
-69.76
-86.32
-104.67
-122.33
-136.19
-143.36
-141.92
-131.39
-112.76
-88.05
-59.74
-30.30
-1.85
23.89
45.62
62.44
73.87
80.02
81.56
79.66
75.73
71.10
66.69
62.94
59.85
57.14
54.42
51.37
47.72
43.23
37.70
30.97
23.05
14.14
4.61
-5.08
-14.56
-23.68
-32.57
-41.62
-51.36
-62.28
-74.64
-88.30
-102.60
-116.40
-128.12
-136.06
-138.70
-135.00
-124.71
-108.51
-87.85
-64.70
-41.18
-19.18
-0.06
15.46
27.25
35.63
41.11
44.26
45.45
44.94
42.89
39.48
35.07
30.18
25.43
21.35
18.23
16.04
14.46
13.03
11.35
9.17
6.35
2.90
-1.16
-5.82
-11.06
-16.84
-23.09
-29.74
-36.86
-44.56
-53.04
-62.24
-71.68
-80.22
-86.18
-87.69
-83.29
-72.45
-55.86
-35.32
-13.21
8.15
27.10
42.83
55.26
64.74
71.66
76.32
78.89
79.57
78.73
76.83
74.35
71.71
69.12
66.66
64.33
62.19
60.36
59.00
58.09
57.38
56.40
54.50
51.20
46.31
40.07
33.04
25.87
18.98
12.36
5.55
-2.21
-11.54
-22.52
-34.43
-45.67
-54.18
-57.92
-55.58
-46.89
-32.79
-15.08
4.10
22.79
39.65
53.93
65.42
74.19
80.38
84.16
85.76
85.53
83.96
81.62
78.92
76.07
73.05
69.73
66.05
62.21
58.59
55.67
53.73
52.73
52.25
51.64
50.23
47.57
43.60
38.62
33.16
27.74
22.72
18.10
13.58
8.68
2.92
-3.94
-11.81
-20.05
-27.48
-32.43
-32.96
-27.42
-15.10
3.13
24.62
45.30
60.77
67.62
64.53
52.54
34.60
14.33
-5.11
-21.74
-34.86
-44.49
-50.90
-54.26
-54.70
-52.56
-48.58
-43.72
-38.87
-34.40
-30.11
-25.39
-19.70
-12.95
-5.75
0.84
5.68
7.99
7.60
4.95
0.80
-4.06
-9.08
-14.12
-19.39
-25.29
-32.16
-40.09
-48.75
-57.36
-64.79
-69.75
-71.08
-67.98
-60.20
-48.15
-32.81
-15.62
1.79
17.86
31.32
41.36
47.61
50.10
49.23
45.58
39.89
32.91
25.40
18.06
11.47
6.12
2.34
0.30
-0.10
0.82
2.55
4.48
6.03
6.72
6.33
4.81
2.30
-0.88
-4.28
-7.32
-9.43
-10.23
-9.74
-8.56
-7.83
-8.90
-12.87
-19.93
-29.07
-38.05
-43.95
-43.98
-36.37
-20.94
0.88
26.48
52.86
77.39
98.26
114.65
126.50
134.22
138.33
139.37
137.85
134.32
129.45
123.90
118.16
112.25
105.53
96.89
85.19
69.94
51.86
32.77
15.15
1.11
-8.32
-13.59
-16.22
-18.10
-20.63
-24.33
-28.83
-33.41
-37.48
-40.94
-44.28
-48.30
-53.79
-61.26
-70.78
-82.01
-94.17
-106.06
-116.09
-122.35
-122.94
-116.44
-102.40
-81.73
-56.64
-30.13
-5.19
15.94
32.24
43.85
51.57
56.25
58.36
57.96
55.02
49.82
43.17
36.23
30.03
25.15
21.57
18.92
16.87
15.33
14.48
14.41
14.93
15.49
15.51
14.78
13.61
12.68
12.65
13.67
15.22
16.24
15.52
12.07
5.28
-5.03
-18.63
-34.78
-52.10
-68.54
-81.56
-88.72
-88.31
-79.93
-64.60
-44.45
-22.07
0.22
20.78
38.87
54.40
67.65
78.95
88.49
96.28
102.38
107.01
110.75
114.49
119.38
126.53
136.71
149.92
165.21
180.71
194.13
203.31
206.90
204.69
197.49
186.69
173.75
159.83
145.63
131.46
117.35
103.08
88.10
71.50
51.99
27.97
-2.09
-38.99
-81.90
-127.69
-171.05
-205.62
-225.85
-228.85
-215.22
-188.49
-153.49
-114.55
-74.54
-35.19
1.97
34.69
60.10
75.57
79.92
74.01
60.53
42.82
23.87
5.59
-11.11
-25.93
-38.65
-48.96
-56.64
-61.99
-66.06
-70.56
-77.26
-87.32
-100.72
-116.21
-131.75
-145.37
-155.95
-163.42
-168.46
-171.88
-173.83
-173.64
-169.95
-161.38
-147.09
-127.15
-102.45
-74.50
-45.14
-16.31
9.99
31.80
47.33
55.35
55.45
48.32
35.68
19.89
3.41
-11.81
-24.69
-35.04
-43.16
-49.46
-54.15
-57.19
-58.51
-58.23
-56.82
-54.89
-53.01
-51.42
-50.01
-48.51
-46.81
-45.25
-44.63
-45.98
-50.12
-57.32
-66.98
-77.67
-87.38
-93.92
-95.48
-90.96
-80.20
-63.91
-43.38
-20.15
4.31
28.74
52.15
73.74
92.81
108.68
120.77
128.62
131.95
130.82
125.61
117.02
106.03
93.68
80.86
68.11
55.49
42.77
29.58
15.84
1.96
-11.17
-22.48
-31.18
-37.14
-41.09
-44.39
-48.55
-54.66
-62.92
-72.54
-81.84
-88.61
-90.63
-86.12
-74.15
-54.85
-29.43
0.04
30.94
60.54
86.41
106.77
120.65
127.99
129.45
126.23
119.62
110.76
100.37
88.83
76.24
62.76
48.82
35.07
22.40
11.59
3.05
-3.35
-8.28
-12.78
-17.85
-24.14
-31.78
-40.42
-49.50
-58.71
-68.17
-78.46
-90.45
-104.75
-121.37
-139.41
-157.17
-172.47
-183.10
-187.33
-184.07
-173.07
-154.72
-130.03
-100.49
-68.04
-35.00
-3.94
22.66
42.75
55.04
59.25
56.06
46.96
33.89
18.92
3.85
-10.07
-22.26
-32.71
-41.78
-49.90
-57.35
-64.14
-70.08
-74.98
-78.89
-82.22
-85.85
-91.01
-98.81
-109.86
-123.73
-138.70
-151.88
-159.81
-159.33
-148.49
-127.14
-96.96
-60.95
-22.58
14.98
49.40
79.13
103.18
120.87
131.83
136.11
134.51
128.57
120.28
111.46
103.20
95.72
88.48
80.82
72.36
63.25
54.01
45.20
37.12
29.76
22.95
16.57
10.55
4.77
-1.15
-7.96
-16.56
-27.50
-40.43
-53.73
-64.65
-70.16
-67.90
-57.14
-39.06
-16.37
7.75
30.64
50.80
67.95
82.50
94.97
105.44
113.52
118.54
119.99
117.87
112.76
105.73
97.98
90.41
83.42
76.85
70.32
63.44
56.13
48.56
40.89
33.06
24.63
14.93
3.41
-9.99
-24.82
-40.06
-54.50
-66.96
-76.45
-82.18
-83.47
-79.77
-70.78
-56.59
-37.93
-16.28
6.32
27.64
45.68
59.15
67.58
71.29
71.01
67.57
61.61
53.65
44.19
33.88
23.57
13.99
5.56
-1.93
-9.08
-16.55
-24.44
-32.00
-37.81
-40.41
-39.13
-34.67
-29.07
-25.01
-24.81
-29.44
-38.22
-48.95
-58.72
-64.70
-64.89
-58.41
-45.53
-27.34
-5.59
17.75
40.69
61.54
79.05
92.57
101.94
107.27
108.79
106.65
101.03
92.33
81.44
69.75
58.93
50.40
44.79
41.78
40.16
38.47
35.64
31.33
26.00
20.45
15.32
10.65
5.90
0.07
-7.75
-18.09
-30.75
-44.72
-58.37
-69.66
-76.56
-77.42
-71.44
-58.80
-40.72
-19.19
3.46
25.10
44.07
59.39
70.59
77.53
80.19
78.64
73.14
64.28
53.09
40.83
28.80
18.05
9.23
2.59
-1.90
-4.48
-5.60
-5.90
-6.26
-7.59
-10.58
-15.44
-21.89
-29.30
-37.12
-45.15
-53.51
-62.30
-71.05
-78.43
-82.33
-80.60
-71.84
-56.19
-35.30
-11.91
11.15
31.66
48.44
61.08
69.56
73.81
73.73
69.40
61.42
51.03
39.89
29.63
21.26
14.91
9.94
5.40
0.54
-4.84
-10.37
-15.42
-19.45
-22.41
-24.78
-27.38
-31.06
-36.38
-43.42
-51.75
-60.51
-68.53
-74.45
-76.87
-74.64
-67.09
-54.33
-37.35
-17.84
2.15
20.62
35.97
47.15
53.57
55.02
51.64
43.89
32.63
19.09
4.75
-8.88
-20.51
-29.29
-34.96
-37.78
-38.52
-38.11
-37.37
-36.78
-36.39
-35.98
-35.37
-34.67
-34.44
-35.56
-38.81
-44.55
-52.43
-61.30
-69.40
-74.72
-75.49
-70.59
-59.86
-44.10
-24.90
-4.23
15.96
34.07
48.89
59.60
65.69
66.96
63.60
56.29
46.20
34.82
23.59
13.59
5.33
-1.24
-6.49
-10.84
-14.51
-17.50
-19.71
-21.11
-21.89
-22.38
-23.01
-24.18
-26.21
-29.35
-33.76
-39.39
-45.84
-52.15
-56.82
-58.08
-54.26
-44.33
-28.35
-7.49
16.11
39.97
61.89
80.42
95.05
106.01
113.83
118.92
121.38
121.20
118.48
113.60
107.19
99.76
91.41
81.80
70.40
57.00
42.03
26.57
11.84
-1.26
-12.62
-22.82
-32.76
-43.15
-54.14
-65.43
-76.39
-86.43
-94.94
-101.27
-104.50
-103.54
-97.43
-85.89
-69.57
-50.05
-29.34
-9.33
8.65
23.88
36.03
44.83
49.95
51.15
48.47
42.46
34.16
24.81
15.58
7.35
0.66
-4.30
-7.57
-9.49
-10.53
-11.25
-12.10
-13.35
-15.12
-17.54
-20.92
-25.85
-32.89
-42.30
-53.59
-65.45
-75.92
-82.91
-84.79
-80.82
-71.25
-57.13
-40.02
-21.76
-4.34
10.27
20.23
24.34
22.37
15.29
5.13
-5.52
-14.19
-19.05
-19.12
-14.23
-4.74
8.60
24.68
42.09
59.20
74.52
86.93
95.80
100.85
101.90
98.72
91.12
79.15
63.36
44.91
25.51
7.14
-8.19
-18.61
-22.65
-19.45
-9.06
7.33
27.52
48.64
67.75
82.48
91.45
94.36
91.78
84.74
74.37
61.82
48.15
34.19
20.58
7.85
-3.52
-13.25
-21.35
-28.16
-34.10
-39.70
-45.70
-52.95
-62.05
-73.13
-85.93
-100.11
-115.44
-131.67
-148.71
-166.72
-185.75
-205.00
-222.36
-234.77
-238.75
-231.21
-209.92
-174.38
-126.48
-70.15
-10.20
48.88
103.25
150.65
185.68
203.24
202.25
186.74
163.29
137.52
112.34
88.15
62.92
35.76
8.56
-14.86
-30.89
-38.20
-38.44
-33.36
-26.74
-22.07
-21.06
-23.31
-27.44
-32.46
-38.24
-44.68
-50.78
-54.54
-53.28
-44.92
-29.16
-7.99
14.72
34.40
47.45
52.19
48.71
38.53
23.77
6.45
-12.01
-30.83
-49.71
-68.58
-87.43
-106.40
-125.38
-143.65
-159.66
-171.10
-175.45
-171.06
-158.14
-139.36
-119.63
-104.68
-99.17
-105.02
-120.52
-140.65
-158.35
-166.53
-159.99
-136.84
-98.91
-50.92
0.99
51.14
95.63
132.75
162.34
184.76
199.97
207.34
206.36
197.57
183.10
166.44
151.24
140.07
133.54
130.43
128.57
125.88
121.03
113.57
103.48
90.87
75.80
58.46
39.48
19.80
0.58
-17.33
-33.64
-48.67
-63.09
-77.49
-91.97
-105.83
-117.59
-125.22
-126.74
-120.82
-107.26
-87.10
-62.28
-35.12
-7.70
18.42
42.17
62.87
80.06
93.56
103.50
110.36
114.77
117.28
118.16
117.35
114.62
109.84
103.22
95.28
86.71
78.13
70.01
62.63
56.22
51.03
47.30
45.25
44.78
45.52
46.72
47.41
46.46
42.89
36.18
26.66
15.83
6.39
1.71
4.97
18.14
41.25
72.33
107.89
143.82
176.29
202.36
220.24
229.29
229.84
222.88
209.59
190.80
166.74
137.16
101.97
62.11
20.05
-20.27
-54.48
-79.13
-92.96
-97.48
-96.47
-94.67
-96.17
-103.12
-115.25
-130.42
-145.74
-158.81
-168.61
-175.53
-180.81
-185.62
-190.44
-194.72
-197.20
-196.19
-189.91
-176.66
-155.09
-124.45
-85.10
-38.73
11.76
62.69
110.35
151.54
184.01
206.40
218.26
219.94
212.54
197.88
178.17
155.52
131.51
106.84
81.57
55.50
28.77
2.07
-23.42
-46.41
-65.93
-81.57
-93.45
-102.01
-107.79
-111.35
-113.23
-114.09
-114.63
-115.54
-117.24
-119.73
-122.44
-124.29
-123.84
-119.60
-110.38
-95.65
-75.78
-52.08
-26.54
-1.41
21.30
40.30
55.17
66.21
74.17
79.83
83.66
85.80
86.10
84.36
80.55
74.94
68.11
60.80
53.74
47.49
42.26
38.00
34.38
31.06
27.70
24.07
20.04
15.55
10.64
5.37
-0.11
-5.69
-11.38
-17.40
-24.17
-32.18
-41.62
-52.14
-62.55
-70.94
-75.15
-73.33
-64.67
-49.64
-29.90
-7.78
14.42
35.02
53.13
68.57
81.39
91.56
98.77
102.59
102.75
99.38
93.11
84.93
75.85
66.64
57.70
49.20
41.24
33.99
27.65
22.23
17.39
12.37
6.34
-1.23
-10.15
-19.48
-27.93
-34.39
-38.52
-40.91
-42.85
-45.81
-50.92
-58.52
-68.15
-78.66
-88.53
-96.06
-99.73
-98.38
-91.51
-79.33
-62.86
-43.57
-23.20
-3.28
14.94
30.56
42.98
51.85
57.09
58.97
58.23
55.95
53.50
52.21
53.16
56.86
62.98
70.20
76.38
79.06
76.18
66.76
51.40
32.03
11.33
-8.11
-24.52
-37.19
-46.40
-52.89
-57.43
-60.53
-62.44
-63.35
-63.69
-64.24
-65.91
-69.34
-74.46
-80.19
-84.75
-86.18
-83.09
-75.12
-63.00
-48.14
-32.03
-15.81
-0.23
14.16
26.62
36.05
41.30
41.56
36.85
28.15
17.13
5.51
-5.40
-14.97
-23.10
-29.84
-35.05
-38.41
-39.61
-38.68
-36.15
-32.93
-29.96
-27.92
-26.96
-26.84
-27.14
-27.53
-27.92
-28.57
-29.96
-32.70
-37.39
-44.31
-53.20
-63.07
-72.12
-78.08
-78.79
-72.83
-60.03
-41.54
-19.43
3.83
26.05
45.59
61.50
73.33
81.03
84.84
85.27
83.07
79.03
73.76
67.62
60.65
52.89
44.52
36.08
28.40
22.31
18.40
16.84
17.37
19.41
22.38
25.76
29.22
32.54
35.46
37.53
37.99
35.80
29.82
19.15
3.57
-16.10
-38.02
-59.55
-77.85
-90.55
-96.17
-94.38
-85.88
-72.09
-54.83
-35.98
-17.31
-0.32
13.87
24.54
31.43
34.66
34.60
31.79
26.82
20.34
13.13
6.03
-0.12
-4.76
-7.79
-9.71
-11.40
-13.78
-17.42
-22.27
-27.67
-32.66
-36.42
-38.59
-39.48
-39.97
-41.21
-44.16
-49.15
-55.60
-62.04
-66.48
-67.01
-62.36
-52.31
-37.74
-20.31
-2.01
15.29
30.21
41.93
50.13
54.88
56.54
55.68
53.06
49.58
46.23
43.86
42.97
43.46
44.65
45.46
44.78
41.83
36.43
28.91
19.89
9.95
-0.55
-11.53
-22.96
-34.76
-46.73
-58.65
-70.40
-81.97
-93.25
-103.67
-111.93
-116.15
-114.31
-104.96
-87.95
-64.60
-37.39
-9.23
17.32
40.62
59.99
75.40
87.04
94.95
99.05
99.29
95.99
89.90
82.14
73.98
66.53
60.58
56.57
54.62
54.55
55.97
58.24
60.67
62.65
63.84
64.27
64.33
64.48
64.96
65.70
66.33
66.62
66.80
67.81
71.14
78.31
90.34
107.18
127.68
149.85
171.34
190.02
204.32
213.35
216.87
215.18
209.04
199.56
188.22
176.68
166.57
159.08
154.56
152.23
150.32
146.58
139.01
126.63
109.84
90.16
69.66
50.17
32.75
17.52
3.94
-8.78
-21.32
-34.06
-47.12
-60.36
-73.37
-85.37
-95.29
-101.92
-104.29
-102.02
-95.53
-85.97
-75.00
-64.32
-55.37
-49.04
-45.56
-44.53
-45.13
-46.36
-47.43
-47.95
-48.17
-48.70
-50.25
-53.15
-57.21
-61.75
-65.93
-69.10
-70.96
-71.56
-71.20
-70.29
-69.43
-69.52
-71.60
-76.56
-84.62
-94.95
-105.60
-113.95
-117.50
-114.59
-104.77
-88.75
-67.99
-44.31
-19.56
4.50
26.20
44.07
57.01
64.50
66.76
64.71
59.67
53.03
45.84
38.58
31.26
23.68
15.66
7.23
-1.47
-10.34
-19.54
-29.46
-40.60
-53.33
-67.80
-83.89
-101.35
-119.81
-138.71
-157.26
-174.25
-188.18
-197.42
-200.53
-196.66
-185.82
-168.97
-147.85
-124.61
-101.35
-79.61
-60.08
-42.70
-26.90
-12.16
1.67
14.22
24.88
33.05
38.55
41.71
43.18
43.65
43.53
42.88
41.49
39.20
36.12
32.65
29.35
26.72
24.94
23.82
22.92
21.73
19.84
17.00
13.24
8.88
4.58
1.32
0.26
2.45
8.48
18.31
31.25
46.13
61.68
76.66
90.05
101.02
108.98
113.55
114.61
112.30
106.94
99.02
89.11
77.79
65.58
52.92
40.07
27.21
14.48
2.16
-9.41
-19.88
-29.14
-37.52
-45.77
-54.86
-65.61
-78.34
-92.77
-107.96
-122.48
-134.53
-142.28
-144.07
-138.99
-127.16
-109.93
-89.61
-68.87
-49.98
-34.35
-22.41
-14.05
-9.13
-7.79
-10.38
-17.08
-27.37
-39.91
-52.69
-63.66
-71.33
-75.33
-76.39
-76.05
-75.96
-77.26
-80.17
-83.99
-87.46
-89.34
-88.97
-86.47
-82.69
-78.83
-76.18
-75.73
-78.04
-83.11
-90.21
-97.76
-103.34
-104.21
-98.23
-84.81
-65.31
-42.66
-20.21
-0.40
15.85
29.01
40.02
49.35
56.60
60.83
61.36
58.35
52.75
45.84
38.52
31.02
23.13
14.65
5.85
-2.57
-9.80
-15.32
-19.29
-22.59
-26.49
-32.16
-40.35
-51.15
-64.06
-78.19
-92.44
-105.55
-116.12
-122.67
-124.06
-119.87
-110.71
-98.10
-83.76
-68.97
-53.91
-38.04
-20.68
-1.72
17.92
36.66
52.86
65.44
74.08
79.08
81.06
80.91
79.78
79.09
80.18
83.72
89.18
94.93
98.80
98.98
94.86
87.08
77.05
66.18
55.19
43.93
31.55
17.11
0.03
-19.47
-40.08
-59.51
-74.79
-82.89
-81.64
-70.27
-49.80
-22.82
7.16
36.57
62.54
83.37
98.61
108.78
114.84
117.58
117.31
113.81
106.74
96.10
82.67
67.86
53.32
40.34
29.45
20.47
12.92
6.49
1.22
-2.69
-5.24
-6.95
-8.78
-11.84
-16.97
-24.43
-33.91
-44.67
-55.74
-66.01
-74.25
-79.12
-79.40
-74.23
-63.38
-47.44
-27.71
-5.93
16.01
36.37
53.76
67.27
76.56
81.85
83.71
82.96
80.45
76.89
72.75
68.26
63.29
57.46
50.29
41.45
31.04
19.72
8.57
-1.28
-8.97
-14.26
-17.54
-19.59
-21.32
-23.47
-26.49
-30.55
-35.58
-41.22
-46.70
-50.83
-52.13
-49.29
-41.66
-29.55
-14.22
2.60
19.22
34.47
47.77
58.89
67.48
72.96
74.48
71.39
63.60
51.84
37.57
22.56
8.41
-3.82
-13.84
-21.96
-28.77
-34.76
-40.11
-44.76
-48.67
-52.04
-55.40
-59.55
-65.24
-72.89
-82.43
-93.42
-105.15
-116.96
-128.28
-138.55
-146.95
-152.27
-152.80
-146.54
-131.71
-107.34
-73.77
-32.85
12.17
57.10
97.30
128.37
146.92
151.19
141.60
121.03
94.51
68.32
48.39
38.52
39.25
47.81
59.27
68.45
71.77
68.29
59.62
48.74
38.25
29.83
24.22
21.66
22.16
25.44
30.64
36.04
39.30
37.41
28.53
13.12
-5.70
-23.15
-34.40
-36.10
-27.22
-9.10
14.13
37.88
58.63
74.59
85.09
89.70
87.79
78.82
62.90
39.73
10.14
-23.54
-57.77
-89.04
-115.02
-134.73
-148.41
-147.93
-128.34
-91.00
-43.80
3.92
46.32
81.59
110.24
133.16
151.33
164.25
171.55
173.72
172.24
168.90
165.03
161.55
158.79
156.78
154.65
151.55
147.16
141.86
136.35
131.32
127.45
124.88
123.89
123.95
124.04
122.89
119.23
111.69
98.63
82.73
65.37
47.90
31.03
14.77
-1.43
-18.47
-37.39
-59.07
-83.75
-111.34
-140.29
-167.74
-189.83
-202.41
-202.45
-189.58
-167.09
-141.53
-121.47
-114.30
-124.00
-150.20
-189.00
-234.89
-282.54
-327.65
-366.55
-395.65
-410.91
-408.70
-387.57
-349.73
-301.24
-250.41
-205.21
-170.93
-149.33
-139.12
-137.78
-143.17
-154.28
-170.69
-191.42
-214.04
-234.86
-250.02
-256.79
-254.44
-244.27
-228.42
-208.81
-186.47
-161.87
-135.78
-109.86
-86.37
-67.21
-52.81
-41.72
-31.15
-18.34
-1.76
18.36
40.52
63.07
85.29
107.53
130.71
155.18
180.11
203.43
222.65
235.92
242.72
243.93
241.30
236.53
230.57
223.43
214.53
203.26
189.52
173.84
157.10
140.12
123.39
106.93
90.55
73.96
56.94
39.31
20.84
1.33
-19.33
-40.80
-62.06
-81.37
-96.57
-105.64
-107.38
-101.91
-90.65
-75.90
-60.19
-45.72
-34.12
-26.43
-23.33
-25.02
-31.22
-40.98
-52.86
-65.27
-76.87
-86.81
-94.59
-99.76
-101.71
-99.85
-93.90
-84.23
-71.87
-58.23
-44.71
-32.35
-21.62
-12.46
-4.35
3.51
11.78
20.77
30.14
39.12
46.97
53.51
59.41
65.86
73.93
83.94
95.22
106.55
116.82
125.71
133.77
142.23
152.53
165.93
183.27
204.61
229.04
254.40
277.49
294.80
303.43
302.14
291.77
274.99
255.36
236.17
219.41
205.48
193.36
181.46
168.32
153.15
135.96
117.35
98.36
80.31
64.69
53.09
46.93
47.03
53.32
64.76
79.60
95.93
111.97
126.19
137.13
143.31
143.38
136.74
124.14
107.83
91.03
76.76
66.68
60.58
56.78
53.23
48.60
42.88
37.12
32.88
31.50
33.74
39.71
48.78
59.38
68.99
74.41
72.76
62.69
44.99
22.18
-2.83
-28.39
-54.81
-83.67
-116.05
-150.65
-183.08
-206.87
-215.73
-206.14
-178.88
-138.82
-93.20
-49.06
-11.23
18.62
41.57
60.01
76.04
90.56
103.16
112.83
118.86
121.32
120.97
118.57
114.23
107.24
96.46
81.20
61.86
40.03
17.64
-4.13
-25.77
-49.26
-77.10
-110.78
-149.78
-191.59
-232.71
-270.23
-302.95
-331.42
-357.04
-380.66
-401.51
-417.20
-424.53
-420.84
-404.99
-377.73
-341.28
-298.45
-251.80
-203.28
-154.06
-104.73
-55.44
-5.98
43.89
93.98
143.11
188.89
228.00
257.19
274.24
278.69
271.84
256.06
234.06
208.29
180.87
153.81
129.05
108.32
92.58
81.69
74.37
68.83
63.58
58.08
52.91
49.43
49.02
52.34
58.99
67.65
76.65
84.66
91.19
96.72
102.37
109.26
118.01
128.43
139.68
150.60
160.10
167.46
172.46
175.42
177.24
179.37
183.62
191.69
204.32
220.51
237.25
249.94
253.72
245.10
223.24
190.38
151.00
110.32
72.65
40.25
13.23
-9.74
-30.21
-49.03
-66.08
-80.75
-92.75
-102.61
-111.66
-121.36
-132.54
-145.01
-157.73
-169.47
-179.49
-187.62
-194.12
-198.97
-201.65
-201.16
-196.55
-187.49
-174.55
-159.08
-142.80
-127.33
-113.77
-102.55
-93.39
-85.44
-77.50
-68.34
-57.11
-43.70
-28.99
-14.65
-2.56
6.02
11.17
14.45
18.31
24.91
35.09
47.71
60.07
68.89
71.73
67.84
58.47
46.41
35.11
27.57
25.49
28.78
35.59
43.03
48.11
48.77
44.39
35.70
24.29
11.77
-0.77
-13.06
-25.49
-38.68
-52.91
-67.56
-80.90
-90.43
-93.61
-88.96
-76.72
-58.93
-38.62
-18.69
-0.87
14.34
27.34
38.66
48.46
56.46
62.18
65.12
64.89
61.23
54.00
43.42
30.20
15.53
0.77
-12.87
-24.64
-34.29
-42.00
-48.42
-54.77
-62.76
-74.11
-89.61
-108.15
-126.42
-139.65
-143.41
-135.54
-117.15
-92.34
-66.35
-43.54
-25.97
-13.32
-4.08
3.13
8.82
12.91
15.57
17.93
21.89
29.05
39.63
52.07
63.72
72.34
77.44
80.56
84.38
91.13
101.34
113.65
125.62
135.11
141.19
144.24
145.07
143.98
140.26
132.59
120.17
103.63
85.37
68.79
56.89
50.95
50.15
52.14
54.14
54.08
50.97
44.62
35.00
21.91
5.10
-15.28
-38.43
-62.96
-87.30
-110.28
-131.29
-150.22
-167.09
-181.72
-193.62
-202.12
-206.69
-207.07
-203.44
-196.45
-187.17
-176.89
-166.88
-158.08
-150.95
-145.50
-141.52
-138.94
-137.77
-137.88
-138.63
-138.94
-137.68
-134.36
-129.56
-124.89
-122.19
-122.42
-125.06
-128.08
-128.84
-125.09
-115.88
-101.65
-83.75
-63.75
-42.90
-21.93
-1.15
19.18
38.55
56.03
70.54
81.25
87.96
91.31
92.46
92.42
91.47
88.98
83.78
75.11
63.29
50.00
37.56
27.95
21.92
18.77
16.91
14.84
11.83
8.01
3.89
-0.26
-4.77
-10.60
-18.69
-29.55
-42.96
-58.15
-74.11
-89.83
-104.38
-116.77
-125.78
-130.10
-128.71
-121.29
-108.46
-91.67
-72.82
-53.68
-35.57
-19.27
-5.18
6.34
14.80
19.65
20.54
17.59
11.55
3.68
-4.53
-11.71
-16.89
-19.72
-20.43
-19.67
-18.30
-17.08
-16.45
-16.57
-17.31
-18.40
-19.65
-20.99
-22.60
-24.80
-28.06
-32.86
-39.54
-48.15
-58.25
-68.75
-77.98
-83.86
-84.40
-78.30
-65.34
-46.55
-23.90
0.25
23.74
45.01
63.09
77.47
87.84
94.07
96.21
94.70
90.35
84.18
77.26
70.42
64.14
58.57
53.60
48.87
43.81
37.78
30.23
21.00
10.42
-0.71
-11.44
-21.03
-29.30
-36.70
-44.06
-52.24
-61.49
-71.17
-79.65
-84.67
-83.92
-75.77
-59.86
-37.24
-10.20
18.33
45.43
68.81
87.20
100.36
108.86
113.81
116.40
117.56
117.79
117.11
115.21
111.76
106.64
100.14
92.96
85.93
79.75
74.70
70.49
66.35
61.30
54.54
45.71
34.89
22.53
9.10
-5.14
-20.21
-36.36
-53.70
-71.97
-90.20
-106.66
-119.08
-125.11
-122.94
-111.92
-92.84
-67.82
-39.81
-11.85
13.63
35.13
52.10
64.57
72.74
76.77
76.82
73.32
67.24
60.07
53.45
48.68
46.19
45.35
44.81
43.05
39.10
32.88
25.24
17.53
11.12
6.89
5.05
5.15
6.28
7.26
6.90
4.30
-0.82
-7.73
-14.65
-19.18
-19.15
-13.68
-3.70
8.36
19.57
27.94
33.26
37.03
41.50
48.32
57.57
67.76
76.65
82.26
83.71
81.29
75.93
68.52
59.47
48.71
36.19
22.33
8.18
-4.76
-15.19
-22.61
-27.62
-31.71
-36.73
-44.21
-54.89
-68.63
-84.52
-101.07
-116.48
-128.73
-135.84
-136.18
-128.95
-114.53
-94.52
-71.37
-47.74
-25.81
-6.96
8.33
20.03
28.33
33.28
34.94
33.55
29.72
24.45
18.85
13.85
9.90
6.98
4.73
2.83
1.22
0.08
-0.30
0.11
0.95
1.50
1.03
-0.73
-3.22
-4.91
-3.64
2.71
15.39
34.13
56.84
80.15
100.24
114.09
120.37
119.66
114.02
106.03
97.77
90.33
83.79
77.71
71.65
65.63
59.77
54.07
48.06
41.05
32.46
22.25
11.05
-0.05
-9.71
-17.10
-22.28
-26.35
-31.07
-38.24
-49.15
-64.18
-82.62
-102.27
-120.17
-133.24
-138.94
-135.82
-123.84
-104.52
-80.67
-55.70
-31.62
-9.68
9.31
24.67
36.01
43.49
47.74
49.54
49.55
50.40
53.96
60.20
66.98
71.59
72.30
69.00
62.77
55.26
51.67
56.22
69.86
89.62
110.73
129.29
143.59
154.08
162.97
178.26
207.37
253.41
313.20
379.01
441.95
494.27
530.61
520.61
448.15
320.50
167.69
23.47
-92.38
-176.12
-232.85
-269.61
-292.15
-299.83
-291.91
-270.83
-243.07
-216.13
-194.99
-181.04
-172.99
-168.61
-162.35
-150.17
-131.53
-109.59
-88.76
-72.01
-60.03
-51.97
-46.70
-41.08
-32.90
-21.99
-10.49
-1.15
4.15
4.91
1.67
-4.96
-12.94
-20.23
-25.42
-28.07
-28.34
-26.61
-23.35
-19.03
-14.79
-10.78
-6.41
-0.67
7.39
18.15
31.12
44.79
57.10
65.21
67.54
64.18
56.58
46.62
35.37
21.90
2.77
-21.04
-51.23
-89.21
-135.53
-189.48
-248.34
-306.68
-356.44
-388.50
-395.75
-377.28
-338.87
-291.63
-247.88
-216.32
-199.02
-191.73
-186.97
-178.07
-162.63
-141.73
-118.30
-94.92
-72.80
-52.15
-33.29
-17.34
-5.92
-0.67
-1.58
-6.75
-13.07
-17.67
-19.20
-18.50
-17.96
-20.18
-26.51
-35.69
-43.88
-45.75
-36.35
-13.04
23.08
66.97
110.80
146.03
166.21
168.83
156.06
133.49
108.00
85.23
67.97
55.95
46.79
37.75
27.13
14.93
2.50
-8.42
-16.72
-22.50
-26.97
-31.77
-38.21
-46.70
-56.73
-67.25
-77.07
-84.99
-89.86
-90.36
-85.11
-72.92
-53.15
-25.81
8.51
48.76
93.19
138.91
181.66
216.11
237.01
240.79
226.78
197.54
157.92
113.49
68.95
27.40
-9.55
-41.10
-66.79
-86.29
-99.81
-108.41
-113.96
-118.65
-124.15
-131.03
-138.64
-145.64
-150.80
-153.59
-154.09
-152.51
-148.48
-140.84
-128.06
-109.28
-85.10
-57.83
-30.91
-7.73
9.40
19.81
24.32
24.77
23.34
22.16
22.96
26.84
34.09
43.97
54.59
63.20
66.99
64.26
55.35
43.02
31.72
26.13
29.51
42.56
63.17
87.24
110.05
127.62
137.51
139.05
132.99
120.89
104.39
84.92
63.68
42.01
21.92
6.31
-1.47
1.55
16.85
43.80
79.37
118.61
155.63
184.93
202.69
207.56
200.83
185.60
165.49
143.40
120.97
99.07
78.74
61.89
51.17
49.03
56.52
72.43
93.37
114.67
131.68
140.97
141.18
133.35
120.60
107.24
97.33
93.58
96.50
104.55
114.95
124.98
132.80
137.74
139.93
139.63
136.75
130.80
121.09
107.19
89.37
68.62
46.55
24.82
4.79
-12.94
-28.53
-42.74
-56.42
-70.14
-84.00
-97.75
-111.07
-123.92
-136.46
-148.87
-160.99
-172.20
-181.76
-188.97
-193.40
-194.57
-191.61
-183.03
-167.18
-143.22
-112.10
-76.78
-41.67
-11.05
12.40
28.26
37.94
43.57
46.73
47.83
46.45
41.93
33.95
22.72
8.81
-7.06
-23.98
-40.87
-56.28
-68.70
-76.89
-80.36
-79.45
-75.21
-68.96
-62.06
-55.74
-51.00
-48.64
-49.11
-52.32
-57.49
-63.21
-67.65
-68.97
-65.94
-58.38
-47.44
-35.24
-24.07
-15.44
-9.48
-5.05
-0.48
5.40
12.58
19.99
26.04
29.56
30.19
28.25
24.35
18.87
11.97
3.87
-4.92
-13.56
-21.23
-27.50
-32.54
-37.00
-41.65
-46.95
-52.85
-58.80
-64.02
-67.74
-69.47
-69.13
-67.10
-64.14
-61.11
-58.73
-57.22
-56.26
-55.18
-53.24
-49.94
-45.23
-39.29
-32.40
-24.82
-16.87
-9.01
-1.91
3.62
6.86
7.39
5.34
1.37
-3.35
-7.41
-9.38
-8.25
-3.75
3.53
12.27
21.06
29.04
36.52
44.77
55.28
68.73
84.12
98.79
109.35
113.19
109.81
101.33
91.90
86.31
88.45
100.30
121.65
150.61
184.27
219.49
253.43
284.15
310.88
334.18
355.30
375.28
393.82
408.81
416.73
414.08
398.86
371.48
334.57
291.83
246.74
201.70
158.03
116.53
77.94
43.04
12.21
-15.11
-40.61
-66.60
-95.02
-126.40
-159.25
-190.45
-216.41
-234.45
-243.95
-246.56
-245.43
-243.94
-244.40
-247.28
-251.32
-254.17
-253.38
-247.20
-234.98
-217.21
-195.24
-170.84
-145.70
-121.18
-98.15
-77.11
-58.41
-42.39
-29.56
-20.46
-15.53
-14.90
-18.29
-24.97
-33.88
-43.74
-53.27
-61.37
-67.28
-70.70
-71.75
-70.87
-68.51
-64.99
-60.35
-54.52
-47.55
-39.87
-32.32
-25.86
-21.17
-18.25
-16.31
-14.04
-10.13
-3.72
5.34
16.54
28.94
41.47
53.15
63.15
70.91
76.27
79.46
81.01
81.57
81.49
80.72
78.80
75.20
69.75
62.85
55.39
48.42
42.76
38.72
36.21
34.86
34.27
34.09
33.98
33.55
32.42
30.28
26.98
22.60
17.30
11.34
5.00
-1.37
-7.20
-11.71
-14.04
-13.52
-9.90
-3.53
4.72
13.74
22.44
30.04
36.12
40.61
43.61
45.22
45.45
44.21
41.43
37.11
31.49
24.94
17.99
11.07
4.48
-1.70
-7.50
-12.94
-17.90
-22.21
-25.68
-28.32
-30.40
-32.43
-34.99
-38.55
-43.41
-49.62
-57.01
-65.22
-73.69
-81.65
-88.19
-92.45
-93.75
-91.82
-86.80
-79.22
-69.81
-59.42
-48.85
-38.86
-30.13
-23.28
-18.72
-16.65
-16.92
-19.07
-22.44
-26.34
-30.27
-34.10
-38.04
-42.55
-48.01
-54.57
-61.96
-69.55
-76.55
-82.21
-86.12
-88.25
-89.07
-89.36
-90.01
-91.77
-94.97
-99.32
-103.88
-107.27
-107.99
-104.91
-97.58
-86.38
-72.35
-56.88
-41.33
-26.75
-13.81
-2.83
6.04
12.83
17.69
20.94
23.00
24.31
25.14
25.50
25.20
23.96
21.64
18.33
14.43
10.49
7.16
4.96
4.28
5.31
7.91
11.64
15.70
19.13
21.02
20.81
18.49
14.66
10.42
7.08
5.81
7.34
11.84
18.84
27.55
37.05
46.65
55.89
64.57
72.60
79.80
85.82
90.15
92.23
91.47
87.46
80.06
69.53
56.56
42.15
27.39
13.19
0.11
-11.61
-21.96
-30.92
-38.44
-44.39
-48.71
-51.42
-52.66
-52.64
-51.63
-49.96
-48.06
-46.36
-45.12
-44.14
-42.59
-39.17
-32.49
-21.59
-6.31
12.65
33.93
56.01
77.44
97.01
113.69
126.54
134.73
137.68
135.34
128.20
117.34
104.04
89.62
75.14
61.41
48.98
38.20
29.23
22.03
16.40
11.97
8.30
4.98
1.62
-2.06
-6.33
-11.33
-17.12
-23.63
-30.67
-38.06
-45.69
-53.55
-61.54
-69.30
-75.99
-80.31
-80.85
-76.47
-66.92
-52.88
-35.90
-17.88
-0.55
14.95
28.06
38.72
46.98
52.82
56.18
57.05
55.62
52.39
48.01
43.19
38.39
33.86
29.60
25.55
21.64
17.88
14.28
10.79
7.24
3.41
-0.90
-5.79
-11.16
-16.79
-22.48
-28.10
-33.77
-39.79
-46.54
-54.31
-63.08
-72.36
-81.07
-87.69
-90.61
-88.53
-80.90
-68.12
-51.42
-32.53
-13.25
4.91
20.87
33.96
43.83
50.38
53.74
54.32
52.77
49.81
46.09
41.97
37.58
32.92
28.04
23.16
18.67
14.91
12.00
9.80
7.84
5.59
2.62
-1.21
-5.71
-10.50
-15.20
-19.59
-23.70
-27.83
-32.42
-37.92
-44.59
-52.36
-60.67
-68.53
-74.58
-77.32
-75.53
-68.58
-56.67
-40.83
-22.72
-4.21
12.97
27.51
38.66
46.19
50.34
51.56
50.48
47.73
43.87
39.37
34.63
29.91
25.39
21.16
17.24
13.66
10.44
7.70
5.55
4.06
3.13
2.43
1.44
-0.42
-3.57
-8.10
-13.73
-19.88
-25.90
-31.42
-36.43
-41.31
-46.45
-51.91
-57.04
-60.60
-61.05
-57.15
-48.47
-35.56
-19.74
-2.69
14.01
29.12
41.89
51.86
58.80
62.60
63.35
61.32
57.05
51.19
44.47
37.56
30.90
24.75
19.26
14.48
10.44
7.18
4.64
2.59
0.62
-1.75
-4.92
-8.98
-13.70
-18.56
-23.08
-26.99
-30.51
-34.18
-38.75
-44.81
-52.49
-61.36
-70.37
-77.99
-82.55
-82.60
-77.24
-66.49
-51.27
-33.26
-14.47
3.19
18.24
29.82
37.69
42.05
43.45
42.63
40.38
37.41
34.26
31.17
28.21
25.29
22.31
19.27
16.25
13.34
10.53
7.74
4.77
1.46
-2.29
-6.43
-10.83
-15.33
-19.83
-24.32
-28.94
-33.92
-39.51
-45.90
-53.11
-60.79
-68.16
-73.99
-76.69
-74.78
-67.29
-54.21
-36.61
-16.47
3.80
22.03
36.63
46.86
52.70
54.56
53.03
48.75
42.35
34.48
25.84
17.13
8.96
1.78
-4.18
-8.92
-12.64
-15.69
-18.51
-21.50
-24.95
-28.98
-33.50
-38.30
-43.15
-47.95
-52.75
-57.83
-63.52
-70.05
-77.50
-85.71
-94.20
-102.18
-108.54
-111.87
-110.79
-104.31
-92.22
-75.34
-55.32
-34.19
-13.87
4.27
19.50
31.54
40.46
46.41
49.73
50.87
50.44
49.08
47.32
45.49
43.71
41.96
40.13
38.15
35.91
33.31
30.31
26.86
22.92
18.52
13.59
8.01
1.58
-5.89
-14.42
-23.75
-33.38
-42.65
-50.92
-57.73
-62.75
-65.63
-65.83
-62.58
-55.21
-43.46
-27.85
-9.76
9.03
26.88
42.77
56.43
68.04
77.82
85.73
91.52
95.10
96.72
97.07
96.94
96.78
96.45
95.30
92.52
87.67
80.87
72.81
64.48
56.78
50.25
45.05
40.99
37.61
34.30
30.40
25.27
18.56
10.40
1.62
-6.29
-11.56
-12.73
-9.22
-1.50
9.06
20.80
32.29
42.54
50.85
56.52
58.74
56.85
50.85
41.67
31.13
21.21
13.40
8.13
4.98
3.10
1.98
1.60
2.35
4.48
7.70
11.20
13.87
14.85
13.80
10.94
6.67
1.32
-5.02
-12.31
-20.15
-27.56
-32.95
-34.71
-31.80
-24.29
-13.42
-1.14
10.52
20.08
26.82
30.64
31.56
29.50
24.15
15.28
3.10
-11.58
-27.40
-42.90
-56.94
-68.98
-79.03
-87.34
-94.07
-99.04
-101.91
-102.40
-100.67
-97.45
-93.96
-91.58
-91.46
-94.23
-99.73
-106.95
-114.22
-119.57
-121.23
-118.00
-109.55
-96.30
-79.27
-59.78
-39.23
-19.06
-0.66
14.68
25.92
32.38
33.90
30.74
23.57
13.39
1.46
-10.81
-22.08
-31.33
-38.14
-42.74
-45.72
-47.69
-48.94
-49.40
-48.92
-47.54
-45.80
-44.65
-45.09
-47.82
-52.88
-59.53
-66.35
-71.49
-73.09
-69.57
-60.05
-44.43
-23.46
1.52
28.96
57.45
85.90
113.41
139.18
162.20
181.33
195.34
203.26
204.61
199.56
188.99
174.27
157.09
139.02
121.36
104.90
90.00
76.69
64.85
54.26
44.63
35.60
26.72
17.51
7.58
-3.34
-15.35
-28.42
-42.35
-56.65
-70.34
-81.98
-89.79
-92.13
-87.99
-77.38
-61.40
-41.87
-20.85
-0.17
18.92
35.73
49.98
61.61
70.53
76.61
79.75
79.95
77.44
72.70
66.42
59.27
51.82
44.47
37.55
31.38
26.42
23.13
21.77
22.18
23.72
25.37
26.03
24.95
21.87
17.09
11.23
5.00
-1.12
-7.03
-13.05
-19.81
-28.06
-38.38
-50.85
-64.87
-79.05
-91.40
-99.67
-101.92
-96.93
-84.56
-65.76
-42.25
-16.19
10.38
35.81
59.08
79.62
97.21
111.72
122.94
130.66
134.69
135.07
132.15
126.54
119.02
110.35
101.13
91.81
82.70
74.05
66.05
58.82
52.32
46.35
40.56
34.57
28.04
20.72
12.47
3.27
-6.77
-17.43
-28.43
-39.45
-50.25
-60.68
-70.71
-80.36
-89.73
-98.96
-108.22
-117.61
-126.95
-135.55
-142.08
-144.82
-142.00
-132.45
-116.07
-93.98
-68.24
-41.25
-15.19
8.50
29.13
46.57
60.96
72.37
80.84
86.34
89.02
89.17
87.26
83.82
79.30
74.07
68.42
62.67
57.20
52.36
48.47
45.59
43.57
41.93
40.15
37.70
34.31
30.05
25.24
20.35
15.74
11.56
7.61
3.57
-0.91
-5.94
-11.32
-16.69
-21.63
-25.98
-29.84
-33.65
-37.95
-43.25
-49.73
-57.16
-64.83
-71.59
-76.08
-77.02
-73.57
-65.58
-53.63
-38.95
-23.04
-7.36
6.94
19.17
28.99
36.33
41.29
44.09
45.06
44.63
43.25
41.30
38.96
36.33
33.37
30.15
26.85
23.83
21.45
19.97
19.36
19.34
19.46
19.15
18.05
15.96
12.95
9.27
5.23
1.11
-2.95
-6.90
-10.85
-14.86
-19.02
-23.26
-27.45
-31.36
-34.83
-37.77
-40.31
-42.76
-45.58
-49.18
-53.80
-59.25
-64.85
-69.51
-71.89
-70.82
-65.64
-56.39
-43.83
-29.16
-13.72
1.34
15.19
27.35
37.54
45.59
51.45
55.18
57.00
57.26
56.39
54.74
52.49
49.63
46.07
41.80
37.04
32.23
27.88
24.42
21.96
20.24
18.76
17.01
14.65
11.60
8.02
4.09
-0.04
-4.38
-9.02
-14.05
-19.46
-25.14
-30.92
-36.61
-42.11
-47.45
-52.78
-58.25
-63.94
-69.78
-75.51
-80.78
-85.15
-88.18
-89.50
-88.84
-86.04
-81.14
-74.40
-66.25
-57.31
-48.26
-39.71
-32.18
-25.96
-21.13
-17.56
-15.00
-13.17
-11.72
-10.42
-9.05
-7.57
-6.10
-4.93
-4.41
-4.72
-5.75
-6.96
-7.63
-7.00
-4.70
-0.86
3.96
9.01
13.65
17.49
20.43
22.47
23.65
23.94
23.28
21.70
19.32
16.35
12.99
9.39
5.47
1.05
-4.19
-10.43
-17.62
-25.31
-32.54
-38.08
-40.61
-39.20
-33.55
-24.13
-12.05
1.35
14.82
27.51
38.98
49.13
57.84
64.96
70.28
73.63
75.07
74.94
73.79
72.17
70.51
68.95
67.48
65.99
64.45
62.92
61.53
60.27
58.95
57.18
54.46
50.45
45.02
38.36
30.80
22.75
14.48
6.11
-2.35
-10.87
-19.42
-27.97
-36.52
-45.17
-54.07
-63.32
-72.87
-82.39
-91.29
-98.70
-103.70
-105.42
-103.31
-97.26
-87.76
-75.69
-62.25
-48.58
-35.59
-23.86
-13.69
-5.22
1.44
6.14
8.85
9.63
8.79
6.82
4.31
1.83
-0.16
-1.42
-1.90
-1.71
-1.01
-0.03
1.07
2.09
2.88
3.32
3.27
2.62
1.23
-1.04
-4.30
-8.51
-13.42
-18.59
-23.51
-27.75
-31.14
-33.87
-36.38
-39.22
-42.77
-47.14
-51.99
-56.57
-59.84
-60.68
-58.21
-52.00
-42.27
-29.78
-15.67
-1.16
12.72
25.20
35.83
44.33
50.56
54.48
56.23
56.08
54.50
52.03
49.13
46.11
43.07
40.00
36.87
33.73
30.69
27.89
25.39
23.14
20.96
18.62
15.89
12.60
8.71
4.34
-0.30
-4.92
-9.27
-13.20
-16.75
-20.08
-23.55
-27.54
-32.41
-38.29
-45.02
-51.97
-58.13
-62.27
-63.20
-60.19
-53.10
-42.55
-29.68
-15.86
-2.45
9.56
19.51
27.11
32.33
35.25
36.04
35.01
32.57
29.26
25.69
22.29
19.34
16.84
14.67
12.71
10.92
9.30
7.89
6.54
5.01
2.98
0.28
-3.02
-6.69
-10.38
-13.86
-17.14
-20.51
-24.45
-29.45
-35.73
-43.08
-50.67
-57.21
-61.12
-61.05
-56.23
-46.76
-33.57
-18.15
-2.15
12.99
26.23
36.99
45.03
50.34
53.08
53.49
51.90
48.65
44.16
38.81
33.03
27.24
21.77
16.90
12.73
9.25
6.31
3.70
1.15
-1.58
-4.70
-8.32
-12.44
-16.94
-21.70
-26.66
-31.88
-37.61
-44.12
-51.57
-59.69
-67.71
-74.34
-78.03
-77.39
-71.61
-60.75
-45.82
-28.48
-10.64
6.01
20.34
31.83
40.50
46.63
50.52
52.40
52.46
50.87
47.90
43.92
39.32
34.48
29.68
25.08
20.82
16.95
13.48
10.35
7.38
4.35
1.05
-2.63
-6.70
-11.19
-16.15
-21.78
-28.31
-35.94
-44.62
-53.95
-63.06
-70.76
-75.65
-76.52
-72.55
-63.59
-50.25
-33.77
-15.74
2.21
18.75
33.01
44.54
53.28
59.35
62.98
64.43
63.97
61.85
58.34
53.75
48.45
42.84
37.37
32.44
28.25
24.77
21.74
18.78
15.56
11.92
7.90
3.64
-0.79
-5.44
-10.51
-16.28
-23.03
-30.88
-39.72
-49.09
-58.11
-65.52
-69.88
-69.87
-64.75
-54.60
-40.39
-23.76
-6.61
9.34
22.92
33.57
41.25
46.22
48.84
49.44
48.29
45.66
41.83
37.15
31.98
26.69
21.58
16.88
12.71
9.08
5.88
2.90
-0.12
-3.35
-6.91
-10.73
-14.68
-18.58
-22.35
-26.05
-29.93
-34.34
-39.63
-45.95
-53.00
-59.95
-65.44
-67.82
-65.64
-58.08
-45.35
-28.62
-9.77
9.18
26.52
41.17
52.69
61.08
66.60
69.51
70.05
68.49
65.13
60.42
54.80
48.77
42.75
37.05
31.89
27.32
23.26
19.53
15.87
12.01
7.77
3.03
-2.26
-8.13
-14.54
-21.48
-28.97
-37.04
-45.76
-55.19
-65.22
-75.37
-84.61
-91.41
-94.04
-91.10
-81.99
-67.24
-48.33
-27.28
-6.12
13.65
31.16
46.08
58.38
68.10
75.25
79.83
81.90
81.63
79.38
75.61
70.83
65.55
60.20
55.07
50.29
45.90
41.81
37.87
33.85
29.55
24.81
19.59
13.95
7.92
1.51
-5.47
-13.34
-22.46
-33.06
-44.97
-57.56
-69.62
-79.51
-85.47
-86.05
-80.55
-69.29
-53.56
-35.37
-16.92
-0.05
14.03
24.82
32.39
37.12
39.45
39.73
38.16
34.83
29.76
22.99
14.67
5.11
-5.06
-14.93
-23.37
-29.17
-31.40
-29.73
-24.67
-17.49
-9.99
-3.88
-0.34
0.30
-1.50
-4.89
-9.04
-13.55
-18.41
-23.80
-29.67
-35.51
-40.22
-42.42
-40.80
-34.56
-23.69
-8.97
8.21
26.20
43.53
59.05
72.12
82.49
90.19
95.32
98.04
98.48
96.82
93.25
88.01
81.38
73.59
64.86
55.46
45.71
36.04
26.93
18.73
11.46
4.68
-2.41
-10.66
-20.49
-31.51
-42.53
-51.84
-57.87
-59.77
-57.72
-52.89
-47.00
-41.79
-38.58
-37.95
-39.68
-42.79
-45.75
-46.75
-44.24
-37.36
-26.24
-12.03
3.55
18.68
31.97
42.74
50.88
56.60
60.14
61.55
60.81
57.94
53.20
47.14
40.51
34.10
28.51
24.10
20.88
18.61
16.92
15.38
13.55
10.97
7.28
2.32
-3.74
-10.41
-17.01
-22.98
-28.16
-32.90
-37.92
-43.96
-51.32
-59.60
-67.67
-73.88
-76.50
-74.15
-66.23
-53.06
-35.85
-16.44
3.16
21.16
36.36
48.14
56.37
61.09
62.35
60.11
54.45
45.71
34.74
22.77
11.19
1.18
-6.58
-11.92
-15.12
-16.59
-16.75
-15.95
-14.54
-12.95
-11.68
-11.23
-11.96
-14.02
-17.37
-21.92
-27.58
-34.35
-42.22
-51.02
-60.22
-68.81
-75.37
-78.28
-76.20
-68.46
-55.34
-38.10
-18.69
0.79
18.56
33.44
44.96
53.12
58.18
60.34
59.80
56.78
51.70
45.28
38.49
32.44
28.04
25.82
25.77
27.40
29.93
32.52
34.54
35.69
35.98
35.65
34.92
33.91
32.57
30.67
27.89
23.87
18.22
10.69
1.22
-9.75
-21.18
-31.37
-38.25
-39.91
-35.17
-24.09
-7.96
11.02
30.41
48.26
63.38
75.43
84.52
90.82
94.31
94.80
92.16
86.61
78.76
69.56
59.98
50.77
42.39
35.02
28.77
23.69
19.78
16.91
14.65
12.36
9.29
4.84
-1.25
-8.82
-17.40
-26.45
-35.62
-44.92
-54.60
-64.91
-75.76
-86.38
-95.32
-100.72
-100.88
-94.81
-82.63
-65.57
-45.65
-25.09
-5.81
10.94
24.55
34.89
42.08
46.28
47.64
46.43
43.05
38.15
32.50
26.84
21.75
17.51
14.05
11.17
8.57
6.08
3.59
1.03
-1.74
-4.92
-8.67
-13.02
-17.78
-22.64
-27.35
-31.94
-36.72
-42.21
-48.76
-56.31
-64.20
-71.11
-75.43
-75.64
-70.71
-60.44
-45.52
-27.40
-7.87
11.28
28.68
43.50
55.46
64.63
71.19
75.33
77.16
76.76
74.29
70.02
64.37
57.81
50.88
44.11
37.97
32.87
29.03
26.43
24.70
23.24
21.31
18.30
13.92
8.27
1.76
-5.11
-11.95
-18.69
-25.58
-32.99
-41.18
-49.99
-58.75
-66.26
-71.05
-71.78
-67.59
-58.35
-44.70
-27.93
-9.64
8.59
25.44
40.03
51.86
60.79
66.86
70.24
71.13
69.77
66.49
61.66
55.76
49.31
42.82
36.74
31.43
27.08
23.67
20.95
18.50
15.82
12.52
8.36
3.37
-2.30
-8.43
-14.87
-21.64
-28.91
-36.93
-45.95
-56.07
-67.00
-77.95
-87.59
-94.24
-96.31
-92.76
-83.47
-69.33
-52.02
-33.48
-15.54
0.46
13.71
23.90
30.97
35.06
36.40
35.29
32.13
27.44
21.82
15.92
10.43
5.86
2.47
0.23
-1.14
-2.02
-2.74
-3.48
-4.28
-5.08
-5.91
-6.87
-8.19
-10.11
-12.86
-16.59
-21.48
-27.69
-35.30
-44.17
-53.65
-62.49
-69.01
-71.42
-68.41
-59.54
-45.44
-27.64
-8.12
11.17
28.74
43.61
55.31
63.66
68.64
70.32
68.92
64.88
58.90
51.86
44.68
38.07
32.34
27.43
23.03
18.81
14.62
10.53
6.78
3.55
0.80
-1.74
-4.47
-7.81
-11.99
-17.09
-23.00
-29.51
-36.25
-42.65
-47.86
-50.79
-50.33
-45.71
-36.77
-24.16
-9.24
6.29
20.81
33.08
42.43
48.63
51.74
51.93
49.43
44.65
38.16
30.78
23.41
16.83
11.46
7.35
4.15
1.38
-1.42
-4.46
-7.71
-10.97
-14.05
-16.96
-19.91
-23.30
-27.61
-33.23
-40.33
-48.71
-57.83
-66.67
-73.93
-78.16
-78.07
-72.93
-62.74
-48.38
-31.41
-13.69
3.02
17.39
28.66
36.58
41.21
42.75
41.47
37.82
32.39
26.06
19.76
14.28
10.04
6.97
4.62
2.38
-0.16
-3.15
-6.42
-9.69
-12.83
-15.96
-19.49
-23.95
-29.84
-37.45
-46.68
-57.03
-67.46
-76.50
-82.45
-83.74
-79.38
-69.30
-54.47
-36.55
-17.46
1.13
18.11
32.88
45.15
54.65
61.07
64.11
63.75
60.36
54.74
47.93
40.89
34.32
28.50
23.36
18.67
14.17
9.75
5.49
1.54
-1.93
-4.97
-7.86
-11.10
-15.26
-20.86
-28.22
-37.32
-47.82
-58.84
-69.13
-77.02
-80.84
-79.21
-71.50
-58.06
-40.21
-19.94
0.62
19.65
35.99
49.12
59.00
65.75
69.52
70.41
68.55
64.29
58.22
51.16
43.96
37.33
31.69
27.15
23.54
20.53
17.72
14.79
11.46
7.59
3.07
-2.11
-7.95
-14.34
-21.21
-28.48
-36.24
-44.69
-53.98
-64.00
-74.13
-83.13
-89.31
-90.92
-86.67
-76.18
-60.10
-40.04
-18.10
3.60
23.42
40.39
54.15
64.72
72.16
76.56
78.04
76.87
73.63
69.11
64.11
59.18
54.56
50.16
45.87
41.69
37.82
34.47
31.68
29.14
26.23
22.27
16.77
9.69
1.44
-7.30
-15.83
-23.68
-30.84
-37.70
-44.94
-53.20
-62.77
-73.30
-83.74
-92.39
-97.35
-96.99
-90.41
-77.76
-60.16
-39.41
-17.51
3.77
23.15
39.83
53.42
63.74
70.77
74.65
75.68
74.40
71.44
67.49
63.07
58.57
54.15
49.90
45.78
41.82
38.01
34.33
30.70
27.00
23.05
18.62
13.47
7.42
0.42
-7.31
-15.37
-23.17
-30.20
-36.18
-41.24
-45.87
-50.86
-56.97
-64.66
-73.83
-83.71
-92.95
-99.77
-102.40
-99.47
-90.42
-75.67
-56.55
-34.96
-12.89
7.99
26.56
42.20
54.70
63.99
70.15
73.29
73.68
71.76
68.14
63.53
58.67
54.22
50.70
48.34
47.14
46.77
46.79
46.67
46.04
44.67
42.47
39.38
35.31
30.24
24.15
17.21
9.71
2.00
-5.59
-12.89
-19.90
-26.79
-33.81
-41.23
-49.25
-57.97
-67.31
-76.92
-86.15
-94.01
-99.29
-100.83
-97.76
-89.80
-77.45
-61.95
-44.99
-28.42
-13.86
-2.46
5.17
8.91
9.00
5.95
0.46
-6.63
-14.41
-21.94
-28.42
-33.21
-35.92
-36.37
-34.65
-30.99
-25.82
-19.70
-13.24
-7.16
-2.12
1.31
2.76
2.10
-0.44
-4.36
-9.06
-14.01
-18.93
-23.86
-29.17
-35.36
-42.84
-51.64
-61.27
-70.56
-77.85
-81.31
-79.37
-71.22
-57.09
-38.26
-16.75
5.23
25.78
43.63
58.18
69.33
77.17
81.89
83.68
82.86
79.87
75.32
69.81
63.85
57.74
51.69
45.84
40.40
35.58
31.51
28.10
25.04
21.90
18.25
13.87
8.78
3.22
-2.49
-8.11
-13.58
-19.11
-25.07
-31.90
-39.97
-49.27
-59.30
-68.94
-76.57
-80.44
-79.10
-71.89
-59.12
-42.04
-22.46
-2.32
16.71
33.43
47.18
57.75
65.24
69.96
72.30
72.68
71.46
68.99
65.58
61.55
57.26
53.10
49.37
46.22
43.66
41.47
39.33
36.87
33.76
29.81
24.89
19.02
12.30
4.88
-3.05
-11.30
-19.73
-28.36
-37.29
-46.59
-55.99
-64.73
-71.50
-74.68
-72.88
-65.40
-52.59
-35.75
-16.86
2.08
19.45
34.28
46.24
55.41
61.99
66.13
67.89
67.29
64.47
59.75
53.64
46.75
39.69
32.99
27.03
22.02
17.97
14.72
11.86
8.84
5.10
0.27
-5.75
-12.73
-20.26
-27.98
-35.65
-43.26
-50.98
-59.02
-67.47
-76.11
-84.31
-90.99
-94.77
-94.25
-88.39
-76.84
-60.21
-39.94
-18.07
3.24
22.16
37.50
48.78
56.15
60.07
61.11
59.70
56.21
50.97
44.50
37.46
30.61
24.60
19.79
16.26
13.79
12.02
10.53
8.93
6.87
4.12
0.57
-3.72
-8.55
-13.74
-19.11
-24.68
-30.60
-37.20
-44.83
-53.67
-63.46
-73.35
-81.82
-86.88
-86.60
-79.73
-66.17
-47.10
-24.71
-1.54
20.22
39.14
54.71
66.96
76.16
82.47
85.90
86.44
84.26
79.80
73.74
66.81
59.62
52.55
45.81
39.51
33.71
28.34
23.21
17.95
12.14
5.52
-1.88
-9.74
-17.51
-24.71
-31.11
-36.87
-42.51
-48.73
-56.08
-64.67
-73.89
-82.36
-88.18
-89.39
-84.62
-73.57
-57.15
-37.21
-15.99
4.55
23.06
38.89
51.89
62.07
69.43
73.90
75.50
74.40
71.00
65.87
59.58
52.69
45.67
38.92
32.78
27.47
23.05
19.38
16.07
12.68
8.80
4.20
-1.09
-6.84
-12.76
-18.61
-24.33
-30.13
-36.36
-43.46
-51.72
-60.96
-70.40
-78.64
-83.87
-84.32
-78.82
-67.15
-50.17
-29.61
-7.59
13.89
33.29
49.66
62.64
72.21
78.61
82.18
83.30
82.32
79.58
75.38
70.05
63.94
57.48
51.16
45.44
40.61
36.75
33.61
30.70
27.38
23.11
17.59
10.85
3.23
-4.85
-13.03
-21.19
-29.47
-38.23
-47.87
-58.66
-70.52
-82.87
-94.47
-103.60
-108.36
-107.17
-99.34
-85.28
-66.49
-45.06
-23.16
-2.53
15.76
31.17
43.51
52.69
58.69
61.55
61.53
59.04
54.71
49.20
43.15
37.10
31.50
26.74
23.09
20.63
19.22
18.41
17.57
16.09
13.56
9.85
5.17
-0.08
-5.44
-10.65
-15.68
-20.80
-26.50
-33.34
-41.78
-51.90
-63.23
-74.64
-84.43
-90.71
-91.81
-86.79
-75.76
-59.87
-40.98
-21.16
-2.18
14.78
29.15
40.72
49.47
55.39
58.56
59.19
57.77
54.91
51.30
47.53
44.02
41.01
38.66
37.06
36.23
36.08
36.32
36.50
36.02
34.33
31.05
26.16
20.01
13.25
6.59
0.52
-4.82
-9.85
-15.26
-21.91
-30.48
-41.21
-53.66
-66.67
-78.39
-86.64
-89.40
-85.38
-74.44
-57.64
-36.97
-14.83
6.56
25.62
41.48
53.89
62.91
68.74
71.51
71.42
68.77
64.12
58.24
51.99
46.16
41.22
37.32
34.29
31.82
29.61
27.38
24.93
22.05
18.54
14.21
9.02
3.09
-3.30
-9.76
-15.98
-21.80
-27.33
-32.92
-39.07
-46.21
-54.41
-63.23
-71.54
-77.69
-79.86
-76.65
-67.52
-53.07
-34.89
-15.11
4.14
21.25
35.26
45.90
53.25
57.54
59.00
57.84
54.34
48.95
42.23
34.79
27.16
19.72
12.75
6.50
1.21
-2.94
-5.86
-7.69
-8.83
-9.83
-11.17
-13.04
-15.32
-17.62
-19.58
-21.04
-22.19
-23.54
-25.75
-29.41
-34.83
-41.89
-49.91
-57.65
-63.47
-65.62
-62.67
-53.90
-39.64
-21.18
-0.54
19.98
38.35
53.06
63.38
69.27
71.17
69.84
66.17
60.99
55.12
49.25
43.97
39.72
36.74
34.97
34.09
33.59
32.89
31.45
28.87
24.92
19.52
12.72
4.72
-4.13
-13.40
-22.67
-31.60
-40.09
-48.35
-56.83
-66.04
-76.22
-87.10
-97.65
-106.20
-110.84
-109.87
-102.47
-88.89
-70.50
-49.37
-27.75
-7.54
10.01
24.26
35.08
42.55
46.83
48.09
46.64
43.00
37.90
32.21
26.74
22.06
18.44
15.85
14.05
12.73
11.58
10.32
8.66
6.36
3.24
-0.71
-5.34
-10.44
-15.90
-21.80
-28.50
-36.44
-45.92
-56.73
-68.01
-78.16
-85.15
-87.06
-82.57
-71.46
-54.73
-34.39
-12.86
7.59
25.37
39.70
50.47
57.92
62.28
63.73
62.39
58.55
52.76
45.78
38.46
31.50
25.37
20.19
15.85
12.08
8.57
5.06
1.38
-2.51
-6.61
-10.95
-15.61
-20.82
-26.89
-34.09
-42.60
-52.45
-63.43
-75.07
-86.46
-96.23
-102.61
-103.87
-98.68
-86.74
-68.98
-47.39
-24.56
-2.90
15.91
31.08
42.61
50.86
56.23
58.94
59.18
57.16
53.29
48.19
42.55
37.02
32.05
27.82
24.26
21.16
18.26
15.37
12.38
9.21
5.80
1.98
-2.50
-7.93
-14.54
-22.50
-31.85
-42.53
-54.25
-66.44
-78.06
-87.54
-93.01
-92.79
-85.86
-72.37
-53.64
-31.92
-9.67
11.03
28.94
43.65
55.37
64.42
70.95
74.81
75.73
73.66
68.94
62.36
55.02
47.99
41.99
37.23
33.50
30.31
27.16
23.74
19.90
15.62
10.87
5.61
-0.23
-6.69
-13.70
-21.19
-29.07
-37.38
-46.23
-55.56
-65.00
-73.58
-79.79
-81.84
-78.25
-68.33
-52.48
-32.25
-9.77
12.68
33.28
50.85
64.82
75.06
81.63
84.70
84.59
81.78
76.97
70.93
64.44
58.11
52.33
47.30
43.11
39.78
37.28
35.40
33.75
31.74
28.80
24.51
18.83
12.09
4.83
-2.37
-9.21
-15.73
-22.35
-29.69
-38.25
-48.15
-58.80
-68.90
-76.56
-79.78
-77.02
-67.69
-52.40
-32.80
-11.09
10.55
30.40
47.42
61.14
71.46
78.38
82.01
82.57
80.46
76.33
70.88
64.78
58.48
52.22
46.11
40.31
35.06
30.66
27.25
24.68
22.41
19.75
16.06
11.06
4.91
-1.81
-8.48
-14.55
-19.84
-24.46
-28.80
-33.34
-38.63
-45.08
-52.88
-61.81
-71.03
-79.16
-84.39
-85.04
-80.01
-69.23
-53.69
-35.18
-15.76
2.74
19.03
32.34
42.27
48.68
51.58
51.26
48.36
43.85
38.89
34.55
31.57
30.28
30.55
31.93
33.78
35.35
35.94
34.96
32.00
26.95
19.90
11.21
1.40
-8.95
-19.23
-28.99
-37.97
-46.26
-54.18
-62.16
-70.40
-78.63
-85.84
-90.51
-90.95
-85.84
-74.80
-58.53
-38.64
-17.25
3.68
22.73
39.10
52.53
62.98
70.36
74.56
75.57
73.63
69.34
63.51
57.02
50.55
44.50
39.03
34.14
29.78
25.93
22.51
19.38
16.28
12.83
8.72
3.74
-2.05
-8.40
-14.97
-21.47
-27.85
-34.35
-41.40
-49.41
-58.47
-68.09
-77.12
-83.84
-86.41
-83.33
-73.98
-58.82
-39.29
-17.46
4.61
25.32
43.69
59.29
71.91
81.32
87.24
89.51
88.27
84.09
77.81
70.35
62.45
54.52
46.78
39.39
32.57
26.58
21.64
17.72
14.53
11.55
8.21
4.01
-1.26
-7.53
-14.48
-21.64
-28.61
-35.14
-41.30
-47.41
-53.98
-61.56
-70.50
-80.75
-91.61
-101.78
-109.43
-112.57
-109.64
-99.92
-83.88
-63.05
-39.64
-15.94
6.25
25.86
42.55
56.43
67.68
76.32
82.16
84.97
84.71
81.70
76.68
70.61
64.39
58.69
53.77
49.55
45.81
42.32
38.94
35.64
32.39
29.06
25.43
21.23
16.19
10.14
3.06
-4.86
-13.31
-21.85
-30.08
-37.71
-44.64
-51.00
-57.06
-63.24
-70.03
-77.81
-86.76
-96.60
-106.41
-114.65
-119.37
-118.72
-111.58
-97.95
-79.02
-56.82
-33.62
-11.28
9.01
26.74
41.73
53.88
62.99
68.93
71.69
71.70
69.68
66.50
62.92
59.46
56.40
53.87
51.92
50.59
49.83
49.42
48.98
48.04
46.19
43.21
39.11
34.12
28.45
22.29
15.66
8.57
1.02
-6.80
-14.63
-22.11
-29.01
-35.28
-41.12
-46.94
-53.26
-60.50
-68.85
-78.02
-87.14
-94.76
-99.10
-98.56
-92.18
-80.02
-63.13
-43.30
-22.49
-2.44
15.64
31.07
43.56
53.00
59.37
62.74
63.30
61.47
57.88
53.29
48.49
44.10
40.53
37.89
36.05
34.77
33.81
33.02
32.31
31.56
30.64
29.37
27.53
24.97
21.63
17.60
13.04
8.17
3.20
-1.68
-6.36
-10.81
-15.17
-19.75
-24.99
-31.31
-39.00
-47.89
-57.27
-65.85
-72.00
-74.15
-71.26
-63.12
-50.42
-34.56
-17.25
-0.13
15.49
28.74
39.12
46.45
50.74
52.19
51.17
48.18
43.75
38.49
32.94
27.63
22.92
19.06
16.09
13.88
12.24
10.94
9.80
8.66
7.38
5.69
3.30
-0.05
-4.46
-9.78
-15.59
-21.38
-26.71
-31.41
-35.64
-39.86
-44.67
-50.55
-57.67
-65.71
-73.74
-80.41
-84.15
-83.60
-77.99
-67.40
-52.77
-35.66
-17.91
-1.19
13.21
24.46
32.13
36.06
36.41
33.55
28.22
21.43
14.33
7.95
3.05
-0.05
-1.44
-1.44
-0.57
0.67
1.75
2.21
1.67
-0.08
-3.03
-6.92
-11.33
-15.79
-19.94
-23.72
-27.35
-31.33
-36.21
-42.33
-49.53
-56.99
-63.33
-66.82
-65.92
-59.74
-48.35
-32.80
-14.87
3.39
20.17
34.17
44.83
52.08
56.23
57.67
56.78
53.88
49.31
43.51
37.00
30.40
24.30
19.19
15.33
12.71
11.04
9.86
8.72
7.19
5.03
2.09
-1.64
-6.16
-11.42
-17.35
-23.93
-31.23
-39.46
-48.84
-59.43
-70.85
-82.04
-91.35
-96.89
-96.98
-90.71
-78.23
-60.74
-40.13
-18.53
2.12
20.41
35.53
47.18
55.53
60.97
63.99
65.06
64.49
62.47
59.15
54.79
49.82
44.81
40.35
36.78
34.10
32.00
29.96
27.51
24.36
20.46
15.86
10.66
4.94
-1.28
-8.04
-15.44
-23.63
-32.78
-42.94
-53.86
-64.80
-74.48
-81.24
-83.39
-79.70
-69.80
-54.39
-35.12
-14.10
6.62
25.50
41.73
55.11
65.77
73.89
79.56
82.78
83.57
82.10
78.66
73.61
67.34
60.21
52.66
45.18
38.30
32.43
27.72
23.98
20.71
17.32
13.27
8.26
2.30
-4.41
-11.56
-18.93
-26.40
-34.05
-42.12
-50.90
-60.61
-71.14
-81.83
-91.38
-98.03
-99.93
-95.76
-85.23
-69.20
-49.48
-28.29
-7.60
11.19
27.39
40.72
51.06
58.28
62.29
63.15
61.23
57.17
51.74
45.70
39.60
33.83
28.61
24.17
20.64
18.09
16.40
15.24
14.05
12.23
9.28
4.93
-0.78
-7.53
-14.86
-22.33
-29.71
-37.04
-44.69
-53.12
-62.66
-73.16
-83.76
-92.90
-98.65
-99.20
-93.50
-81.52
-64.31
-43.70
-21.67
0.01
20.12
37.91
53.01
65.21
74.40
80.56
83.89
84.80
83.81
81.45
78.11
74.01
69.24
63.91
58.25
52.61
47.41
42.92
39.14
35.73
32.15
27.81
22.32
15.56
7.73
-0.79
-9.58
-18.31
-26.84
-35.29
-43.97
-53.35
-63.77
-75.15
-86.74
-97.00
-103.88
-105.41
-100.25
-88.22
-70.42
-48.85
-25.86
-3.52
16.80
34.46
49.38
61.74
71.58
78.79
83.11
84.42
82.90
79.13
73.96
68.31
62.86
57.99
53.73
49.99
46.62
43.55
40.75
38.18
35.65
32.82
29.27
24.56
18.43
10.90
2.24
-6.99
-16.15
-24.70
-32.40
-39.31
-45.84
-52.59
-60.16
-68.94
-78.94
-89.61
-99.82
-107.91
-111.94
-110.21
-101.68
-86.37
-65.53
-41.24
-15.92
8.34
30.23
49.30
65.68
79.66
91.37
100.64
107.15
110.65
111.24
109.37
105.77
101.18
96.20
91.20
86.34
81.77
77.66
74.24
71.68
69.92
68.58
66.99
64.42
60.30
54.48
47.25
39.23
31.05
23.13
15.45
7.65
-0.81
-10.34
-21.02
-32.54
-44.31
-55.67
-66.10
-75.41
-83.75
-91.53
-99.38
-107.95
-117.69
-128.56
-139.91
-150.37
-158.07
-161.11
-158.06
-148.39
-132.59
-112.04
-88.63
-64.22
-40.43
-18.37
1.35
18.39
32.59
43.80
51.85
56.62
58.16
56.88
53.56
49.32
45.32
42.52
41.47
42.16
44.21
46.99
49.84
52.25
53.80
54.17
53.13
50.56
46.53
41.33
35.40
29.12
22.71
16.13
9.14
1.53
-6.76
-15.52
-24.41
-33.12
-41.62
-50.21
-59.45
-69.88
-81.68
-94.38
-106.76
-116.95
-122.90
-122.82
-115.76
-101.87
-82.40
-59.42
-35.33
-12.32
8.01
24.80
37.89
47.60
54.43
58.91
61.50
62.55
62.31
61.06
59.11
56.86
54.82
53.54
53.61
55.41
59.09
64.41
70.68
76.92
81.95
84.76
84.72
81.78
76.46
69.56
61.88
53.89
45.67
37.05
27.80
17.89
7.58
-2.82
-13.04
-23.05
-33.08
-43.55
-54.80
-66.96
-79.70
-92.06
-102.49
-109.07
-109.96
-104.03
-91.28
-72.92
-51.12
-28.32
-6.66
12.49
28.52
41.43
51.44
58.81
63.79
66.64
67.68
67.27
65.79
63.57
60.93
58.15
55.53
53.40
51.98
51.39
51.60
52.33
53.17
53.60
53.13
51.38
48.18
43.67
38.19
32.24
26.23
20.32
14.44
8.33
1.73
-5.43
-13.02
-20.74
-28.28
-35.52
-42.63
-50.07
-58.45
-68.24
-79.49
-91.48
-102.71
-111.07
-114.42
-111.16
-100.82
-84.22
-63.18
-40.07
-17.04
4.32
23.21
39.37
52.86
63.80
72.26
78.38
82.44
84.85
86.08
86.50
86.20
85.07
82.91
79.71
75.72
71.46
67.49
64.20
61.64
59.44
57.00
53.62
48.78
42.21
34.05
24.80
15.26
6.40
-0.84
-5.78
-8.15
-8.16
-6.43
-3.83
-1.23
0.69
1.55
1.20
-0.55
-4.19
-10.60
-20.83
-35.60
-54.66
-76.49
-98.27
-116.51
-127.92
-130.29
-123.07
-107.35
-85.50
-60.49
-35.23
-12.07
7.46
22.68
33.67
40.95
45.29
47.44
47.99
47.39
46.01
44.16
42.16
40.27
38.62
37.24
36.10
35.22
34.69
34.64
35.11
35.86
36.43
36.22
34.79
32.01
28.21
23.92
19.69
15.77
12.01
7.99
3.19
-2.66
-9.54
-17.13
-24.96
-32.67
-40.08
-47.32
-54.76
-62.92
-72.34
-83.25
-95.36
-107.58
-118.04
-124.48
-124.88
-118.09
-104.28
-84.91
-62.29
-38.90
-16.80
2.70
18.97
31.83
41.26
47.23
49.74
48.90
44.99
38.56
30.43
21.56
12.95
5.49
-0.23
-3.95
-5.76
-5.95
-4.92
-3.03
-0.61
1.94
4.18
5.52
5.42
3.58
-0.06
-5.22
-11.46
-18.28
-25.26
-32.11
-38.73
-45.19
-51.72
-58.64
-66.32
-74.87
-84.01
-92.92
-100.21
-104.17
-103.10
-95.76
-81.85
-62.22
-38.77
-14.01
9.48
29.74
45.72
57.36
65.23
70.07
72.40
72.42
70.22
65.98
60.10
53.24
46.21
39.72
34.20
29.72
26.00
22.84
20.07
17.39
14.51
11.18
7.33
2.92
-2.06
-7.68
-13.72
-20.06
-27.00
-35.10
-44.64
-55.21
-65.84
-75.27
-82.81
-88.11
-92.16
-97.34
-106.14
-119.34
-134.90
-148.63
-155.43
-151.14
-132.65
-99.31
-53.28
1.24
59.27
115.85
165.71
205.14
228.19
232.91
223.36
207.31
190.69
174.72
156.66
133.45
104.71
73.06
44.18
25.20
19.12
22.83
28.74
32.50
29.58
18.79
-2.44
-29.44
-58.17
-84.06
-107.25
-129.92
-152.97
-176.13
-198.02
-217.41
-232.46
-242.30
-247.17
-248.28
-246.81
-241.47
-230.02
-210.28
-181.28
-142.44
-94.27
-38.26
23.04
86.08
148.87
209.14
263.31
302.81
317.48
302.48
263.77
221.15
185.71
162.96
153.90
155.76
164.74
177.02
189.17
198.02
199.87
189.92
165.84
127.76
78.51
23.15
-31.94
-80.82
-119.84
-148.68
-170.46
-188.29
-204.60
-220.42
-235.25
-247.54
-255.42
-257.41
-252.76
-241.65
-223.67
-198.47
-165.61
-125.08
-77.79
-25.78
28.12
81.18
131.07
176.76
214.65
239.09
245.43
233.51
208.16
176.46
144.91
117.53
96.15
80.27
68.88
60.82
54.82
49.30
41.60
28.72
7.95
-21.34
-57.19
-94.04
-124.60
-142.72
-146.02
-137.01
-122.05
-109.38
-101.80
-100.96
-104.61
-107.69
-104.42
-90.24
-62.77
-19.45
35.49
91.85
136.79
161.37
163.34
146.80
119.46
89.78
64.15
45.15
32.32
23.04
14.45
3.83
-10.50
-28.94
-50.12
-71.11
-87.87
-96.02
-93.02
-79.24
-58.27
-35.45
-15.58
-0.53
8.65
13.11
15.52
18.12
21.32
23.51
22.03
15.05
3.39
-9.43
-16.90
-11.74
10.41
48.04
93.65
135.80
162.70
166.42
144.33
100.57
44.29
-13.92
-65.48
-104.57
-128.74
-138.07
-129.58
-105.69
-73.71
-41.30
-12.84
9.28
23.77
29.53
26.54
17.36
6.31
-0.65
2.57
20.48
53.34
98.14
145.93
182.48
194.72
177.71
138.08
89.75
49.52
19.50
-4.16
-28.06
-57.24
-92.19
-129.52
-161.94
-183.16
-190.16
-184.77
-170.89
-153.91
-138.22
-125.49
-114.83
-104.26
-92.28
-78.96
-66.30
-54.29
-44.10
-37.11
-33.54
-32.02
-30.58
-27.90
-23.24
-18.05
-13.17
-8.92
-4.46
1.98
12.33
25.50
39.33
50.71
56.39
55.08
47.93
38.91
33.73
37.43
51.71
73.92
97.37
113.83
117.04
104.75
79.42
46.94
14.16
-13.27
-31.81
-40.14
-38.38
-27.45
-9.03
14.14
38.13
58.25
70.14
71.34
62.18
45.80
27.28
12.01
4.03
5.06
14.33
29.32
46.90
64.32
79.72
92.19
101.55
107.98
111.83
113.48
113.35
111.82
109.18
105.53
100.79
94.79
87.34
78.42
68.20
57.10
45.76
34.87
25.07
16.77
10.08
4.78
0.41
-3.59
-7.68
-12.12
-16.88
-21.79
-26.70
-31.59
-36.58
-41.86
-47.38
-52.83
-57.59
-61.03
-62.84
-63.36
-63.49
-64.23
-66.00
-68.02
-68.29
-64.11
-53.17
-34.50
-8.98
20.95
52.14
81.67
107.56
128.82
145.13
156.36
162.37
163.10
158.71
149.73
136.79
120.37
100.54
77.08
50.00
20.08
-10.78
-39.87
-64.48
-82.91
-95.03
-102.23
-106.60
-109.96
-113.14
-115.94
-117.67
-117.67
-115.81
-112.42
-107.97
-102.83
-97.21
-91.41
-86.01
-82.02
-80.60
-82.76
-89.02
-99.20
-112.46
-127.38
-142.06
-154.36
-162.20
-163.89
-158.53
-146.18
-127.82
-105.01
-79.54
-53.13
-27.22
-3.01
18.44
36.11
49.16
57.03
59.72
57.90
52.79
45.80
38.10
30.36
22.74
15.24
8.05
1.69
-3.23
-6.47
-8.46
-10.18
-12.56
-15.89
-19.71
-23.17
-25.82
-28.06
-30.97
-35.59
-42.00
-49.06
-54.83
-57.64
-57.12
-54.49
-52.12
-52.42
-56.75
-64.95
-75.38
-85.49
-92.64
-94.71
-90.44
-79.41
-61.83
-38.44
-10.49
20.21
51.30
79.92
103.10
118.36
124.45
122.08
113.66
102.59
92.20
84.82
81.27
80.72
81.45
81.64
80.58
78.54
76.10
73.61
70.75
66.40
58.95
46.97
29.91
9.22
-12.45
-32.13
-47.18
-55.55
-55.86
-47.72
-31.87
-10.44
13.91
37.92
58.32
71.35
74.72
69.98
61.78
56.18
52.94
49.41
43.39
33.48
21.28
10.36
4.30
4.48
9.16
14.34
16.47
13.72
6.37
-3.63
-13.97
-23.16
-31.26
-39.40
-48.87
-59.62
-70.57
-80.40
-88.36
-94.78
-101.16
-109.79
-122.92
-141.81
-165.63
-191.81
-216.89
-237.74
-252.66
-261.91
-267.29
-270.92
-273.75
-274.54
-270.16
-257.04
-232.89
-197.92
-154.93
-108.28
-62.36
-20.28
16.71
48.84
77.15
102.77
126.61
149.22
170.69
190.51
207.37
219.43
224.74
222.06
211.45
194.41
173.47
151.37
130.23
111.08
93.80
77.47
60.99
43.57
25.12
6.23
-12.08
-28.74
-43.05
-54.94
-64.93
-73.94
-82.86
-92.16
-101.56
-109.87
-115.17
-115.24
-108.15
-93.02
-70.32
-41.86
-10.33
21.43
51.02
76.84
98.14
114.75
126.81
134.56
138.27
138.28
134.96
128.85
120.58
110.87
100.46
90.03
80.10
71.01
62.83
55.41
48.44
41.56
34.46
26.94
18.99
10.69
2.11
-6.79
-16.27
-26.76
-38.72
-52.23
-66.72
-80.74
-92.13
-98.48
-97.84
-89.33
-73.43
-51.81
-26.89
-1.16
23.32
45.19
63.75
78.81
90.43
98.80
104.04
106.26
105.64
102.43
97.13
90.37
82.89
75.34
68.20
61.65
55.67
50.11
44.74
39.41
34.01
28.48
22.80
16.93
10.80
4.27
-2.88
-11.00
-20.49
-31.58
-44.08
-57.04
-68.74
-76.86
-79.12
-73.97
-61.17
-41.95
-18.62
6.11
29.83
50.97
68.74
82.97
93.70
100.93
104.61
104.78
101.73
96.08
88.69
80.41
71.95
63.74
56.04
49.08
43.12
38.42
35.07
32.82
31.09
29.03
25.84
21.08
14.78
7.40
-0.38
-7.96
-15.06
-21.80
-28.67
-36.34
-45.37
-55.92
-67.48
-78.76
-87.78
-92.28
-90.31
-80.88
-64.37
-42.48
-17.76
7.09
29.91
49.44
65.28
77.56
86.53
92.36
95.05
94.67
91.46
85.96
78.91
71.12
63.31
56.00
49.52
44.05
39.64
36.26
33.75
31.81
29.99
27.84
24.94
21.13
16.49
11.33
6.00
0.75
-4.39
-9.56
-15.00
-20.81
-26.92
-33.02
-38.72
-43.72
-47.94
-51.64
-55.40
-59.93
-65.86
-73.35
-81.89
-90.09
-95.92
-97.18
-92.14
-80.16
-61.95
-39.41
-15.15
8.33
29.12
46.20
59.30
68.62
74.52
77.29
77.20
74.61
70.01
64.04
57.38
50.61
44.13
38.13
32.71
27.95
23.93
20.73
18.32
16.55
15.04
13.30
10.86
7.37
2.73
-2.85
-8.96
-15.19
-21.21
-26.92
-32.40
-37.81
-43.28
-48.74
-53.99
-58.66
-62.46
-65.24
-67.13
-68.63
-70.42
-73.16
-77.18
-82.17
-87.11
-90.35
-90.02
-84.55
-73.13
-56.08
-34.82
-11.51
11.48
32.13
49.15
62.04
70.85
75.91
77.55
76.12
72.03
65.97
58.84
51.65
45.22
39.97
35.96
32.92
30.56
28.61
26.87
25.16
23.23
20.82
17.72
13.90
9.41
4.42
-0.92
-6.52
-12.29
-18.12
-23.84
-29.26
-34.25
-38.76
-42.83
-46.56
-50.11
-53.69
-57.61
-62.20
-67.63
-73.64
-79.36
-83.33
-83.79
-79.19
-68.72
-52.62
-32.23
-9.63
12.81
32.99
49.46
61.61
69.56
73.88
75.27
74.29
71.24
66.32
59.83
52.26
44.37
36.95
30.61
25.70
22.22
19.98
18.69
18.03
17.64
17.11
16.03
14.07
11.08
7.17
2.62
-2.22
-7.10
-11.94
-16.75
-21.63
-26.55
-31.41
-35.99
-40.07
-43.48
-46.25
-48.61
-51.00
-54.03
-58.27
-64.02
-70.97
-78.09
-83.64
-85.51
-81.90
-71.83
-55.63
-34.82
-11.81
10.85
31.06
47.58
60.00
68.57
73.81
76.26
76.39
74.58
71.22
66.78
61.76
56.55
51.48
46.72
42.39
38.61
35.55
33.39
32.16
31.74
31.74
31.60
30.74
28.73
25.42
20.95
15.74
10.34
5.25
0.77
-3.09
-6.61
-10.23
-14.29
-18.90
-23.84
-28.66
-32.86
-36.10
-38.39
-40.13
-41.99
-44.76
-49.08
-55.14
-62.47
-69.85
-75.46
-77.32
-73.88
-64.56
-49.92
-31.61
-11.80
7.37
24.26
37.96
48.19
55.07
58.89
59.91
58.40
54.68
49.19
42.51
35.22
27.91
20.98
14.73
9.38
5.10
1.98
-0.01
-1.08
-1.66
-2.24
-3.21
-4.75
-6.78
-9.08
-11.41
-13.60
-15.62
-17.45
-19.11
-20.56
-21.80
-22.86
-23.86
-24.95
-26.35
-28.28
-31.04
-34.99
-40.37
-47.13
-54.62
-61.53
-65.98
-66.06
-60.37
-48.60
-31.68
-11.60
9.18
28.40
44.50
56.79
65.31
70.56
73.09
73.35
71.63
68.16
63.29
57.52
51.54
46.03
41.52
38.18
35.85
34.04
32.17
29.71
26.28
21.71
16.04
9.48
2.29
-5.21
-12.70
-19.88
-26.47
-32.23
-36.99
-40.68
-43.36
-45.10
-46.05
-46.32
-46.08
-45.63
-45.44
-46.13
-48.14
-51.49
-55.43
-58.46
-58.70
-54.48
-44.98
-30.68
-13.27
4.85
21.27
34.21
42.80
47.08
47.67
45.35
40.81
34.65
27.44
19.89
12.74
6.74
2.34
-0.30
-1.34
-1.14
-0.12
1.41
3.22
5.18
7.18
9.05
10.72
12.07
12.91
13.01
12.27
10.77
8.88
7.12
5.99
6.15
7.77
10.51
13.55
15.99
17.22
17.00
15.63
13.66
12.59
13.84
18.47
26.88
39.03
54.55
72.70
92.68
113.45
135.10
157.61
180.47
202.31
221.44
236.42
246.32
251.47
252.98
254.06
257.58
264.97
275.28
285.85
293.59
295.80
291.78
272.58
235.61
185.28
131.79
85.33
51.13
30.29
16.77
5.75
-5.63
-17.35
-29.69
-42.24
-56.28
-73.68
-95.67
-122.43
-152.29
-182.98
-211.13
-234.32
-251.71
-264.58
-275.21
-285.76
-297.96
-312.50
-329.91
-349.80
-371.31
-392.55
-410.73
-422.09
-423.03
-411.70
-388.75
-357.43
-322.05
-286.46
-252.87
-221.94
-193.27
-166.39
-141.33
-118.36
-97.63
-78.86
-61.25
-43.95
-26.55
-9.29
7.05
21.44
33.26
42.47
49.13
53.68
56.49
57.74
57.41
55.25
51.04
44.97
37.71
29.55
20.80
11.35
0.99
-10.23
-21.82
-32.48
-40.03
-41.84
-36.56
-24.00
-5.86
14.68
33.76
47.19
51.69
46.04
37.32
32.78
38.32
55.23
79.93
107.02
130.89
147.98
157.42
160.88
159.35
155.54
151.22
146.75
142.24
136.05
126.37
112.30
94.69
74.69
55.11
37.71
21.91
6.64
-11.44
-35.95
-69.61
-113.26
-166.68
-228.27
-294.22
-359.55
-403.30
-406.71
-362.67
-281.36
-183.76
-90.59
-19.44
32.44
71.15
102.73
129.38
151.12
166.52
175.67
180.37
183.03
185.90
188.23
188.27
182.55
168.12
144.33
113.63
80.56
49.66
24.46
5.12
-9.73
-23.03
-37.57
-54.88
-74.57
-94.99
-114.23
-130.28
-142.25
-149.24
-150.84
-147.09
-138.96
-128.43
-118.55
-112.84
-113.91
-122.74
-137.62
-154.68
-169.11
-176.74
-175.03
-163.58
-143.74
-117.68
-87.91
-56.67
-25.67
3.89
31.19
55.65
76.54
92.74
102.78
105.24
99.60
86.84
69.48
50.86
34.05
20.92
11.80
5.95
2.24
-0.15
-1.71
-2.73
-3.61
-4.94
-7.29
-11.04
-16.27
-22.83
-30.57
-39.42
-49.40
-60.43
-72.03
-83.17
-92.17
-96.89
-95.17
-85.51
-67.60
-42.66
-13.13
17.85
47.33
73.20
94.51
111.21
123.86
133.06
139.20
142.36
142.36
139.02
132.42
123.16
112.49
102.22
94.37
90.57
91.57
96.87
104.86
113.18
119.43
121.68
118.94
111.12
98.91
83.40
65.69
46.70
26.92
6.58
-14.20
-35.07
-55.23
-73.33
-87.57
-96.08
-97.32
-90.54
-76.04
-55.12
-29.87
-2.71
24.08
48.69
69.92
87.15
100.22
109.32
114.86
117.40
117.56
115.84
112.60
108.02
102.27
95.60
88.44
81.37
74.95
69.59
65.40
62.16
59.37
56.43
52.72
47.82
41.55
34.03
25.67
17.02
8.55
0.45
-7.42
-15.57
-24.64
-35.16
-47.20
-60.05
-72.18
-81.39
-85.42
-82.55
-72.25
-55.40
-34.03
-10.70
12.20
32.94
50.62
64.99
76.13
84.17
89.19
91.26
90.56
87.39
82.24
75.69
68.36
60.82
53.59
47.06
41.59
37.40
34.59
33.07
32.47
32.16
31.38
29.43
25.97
21.12
15.36
9.30
3.40
-2.23
-7.82
-13.67
-19.97
-26.60
-33.19
-39.28
-44.54
-48.87
-52.46
-55.76
-59.37
-63.90
-69.68
-76.50
-83.45
-88.89
-90.83
-87.49
-77.88
-62.25
-41.98
-19.27
3.57
24.60
42.68
57.40
68.91
77.61
83.85
87.87
89.78
89.64
87.58
83.83
78.73
72.71
66.31
60.14
54.87
51.15
49.37
49.58
51.40
54.18
57.23
60.13
62.82
65.48
68.31
71.28
74.10
76.42
78.10
79.33
80.54
82.19
84.54
87.55
90.83
93.63
94.83
92.78
85.41
70.63
47.06
15.09
-22.61
-61.14
-94.45
-117.01
-125.49
-119.62
-101.99
-76.91
-48.90
-21.52
3.05
23.73
39.74
50.18
54.06
50.74
40.39
24.11
3.69
-18.77
-41.47
-63.01
-82.32
-98.50
-110.77
-118.69
-122.43
-122.99
-121.75
-120.42
-120.51
-122.87
-127.47
-133.33
-138.96
-142.91
-144.23
-142.11
-136.54
-128.20
-118.22
-107.78
-97.66
-88.12
-79.06
-70.31
-60.93
-50.62
-39.83
-29.56
-21.02
-14.54
-9.23
-2.75
7.96
26.93
56.32
95.67
142.29
191.31
237.53
276.44
305.50
316.20
303.60
268.28
218.25
165.96
120.87
87.15
64.01
48.88
38.94
33.00
28.76
23.82
16.78
5.55
-11.56
-36.31
-69.07
-109.18
-146.48
-171.96
-188.91
-198.98
-205.55
-206.53
-203.48
-198.43
-192.80
-186.40
-179.42
-172.08
-163.56
-153.95
-143.48
-132.92
-122.21
-110.83
-98.22
-85.42
-74.23
-65.70
-60.83
-59.60
-61.28
-63.54
-63.37
-58.00
-46.56
-29.85
-9.23
13.16
35.30
55.38
72.60
86.80
98.17
106.68
112.31
115.50
116.71
116.35
114.49
111.20
106.50
100.53
93.54
86.10
79.12
73.45
69.58
67.27
65.75
63.96
60.89
55.94
49.10
40.76
31.49
21.78
11.84
1.76
-8.46
-18.79
-29.07
-39.13
-48.78
-57.88
-66.29
-73.86
-80.40
-85.86
-90.32
-94.21
-98.27
-103.37
-110.05
-118.10
-126.26
-132.30
-133.63
-128.09
-114.78
-94.40
-69.04
-41.53
-14.65
9.50
29.85
46.09
58.46
67.36
73.14
76.15
76.77
75.52
72.99
69.72
66.08
62.22
58.18
54.07
50.13
46.76
44.32
42.92
42.21
41.50
39.92
36.89
32.21
26.25
19.71
13.27
7.27
1.62
-4.21
-10.73
-18.21
-26.43
-34.83
-42.78
-49.92
-56.34
-62.48
-68.92
-76.12
-84.41
-93.89
-104.45
-115.65
-126.46
-135.15
-139.54
-137.48
-127.59
-109.81
-85.55
-57.37
-28.28
-0.95
22.82
42.33
57.78
69.88
79.40
86.79
92.11
95.10
95.51
93.28
88.71
82.34
74.82
66.82
58.89
51.62
45.56
41.18
38.60
37.53
37.15
36.38
34.16
29.79
23.20
14.89
5.66
-3.64
-12.42
-20.41
-27.61
-34.04
-39.59
-44.04
-47.19
-49.17
-50.61
-52.70
-56.94
-64.64
-76.37
-91.59
-108.45
-124.11
-135.25
-138.99
-133.56
-118.81
-96.13
-68.05
-37.58
-7.46
20.20
44.04
63.40
78.11
88.41
94.85
98.18
99.25
98.72
96.95
94.02
89.83
84.47
78.29
71.97
66.24
61.66
58.30
55.75
53.28
50.22
46.21
41.31
35.79
29.90
23.57
16.37
7.79
-2.45
-14.04
-26.16
-37.72
-47.85
-56.37
-63.89
-71.53
-80.46
-91.34
-104.07
-117.66
-130.40
-140.21
-145.01
-143.08
-133.45
-116.14
-92.27
-63.88
-33.60
-4.12
22.25
44.01
60.52
71.99
79.11
82.77
83.78
82.66
79.68
75.09
69.23
62.73
56.35
50.82
46.50
43.30
40.70
38.06
34.93
31.21
27.13
22.93
18.59
13.68
7.51
-0.46
-10.26
-21.23
-32.22
-42.09
-50.25
-56.97
-63.28
-70.58
-80.03
-92.00
-105.79
-119.65
-131.09
-137.52
-136.80
-127.84
-110.82
-87.19
-59.27
-29.76
-1.21
24.34
45.57
61.90
73.35
80.37
83.62
83.79
81.45
77.01
70.82
63.25
54.77
45.90
37.12
28.77
20.93
13.52
6.35
-0.73
-7.72
-14.55
-21.10
-27.35
-33.40
-39.54
-46.09
-53.27
-60.97
-68.77
-76.11
-82.49
-87.82
-92.47
-97.25
-102.94
-109.84
-117.33
-123.75
-126.70
-123.69
-112.98
-94.10
-68.17
-37.51
-4.97
26.87
56.25
82.25
104.52
122.87
137.33
147.79
154.25
157.08
157.22
156.03
154.70
154.10
154.26
155.11
156.15
156.78
156.58
155.55
154.00
151.85
148.97
144.80
139.60
133.68
127.25
120.30
112.63
104.09
94.20
83.49
72.95
65.06
61.72
63.26
68.14
73.95
78.90
82.21
85.70
83.71
73.21
53.85
27.61
-3.21
-37.17
-69.26
-99.85
-127.40
-148.96
-160.44
-159.26
-145.17
-120.75
-90.48
-59.49
-32.86
-13.02
-0.39
6.94
11.48
14.35
15.14
12.77
6.10
-5.95
-22.91
-43.37
-65.02
-85.18
-102.58
-117.17
-129.62
-138.76
-144.51
-148.11
-151.93
-161.28
-175.40
-191.58
-207.07
-216.61
-217.41
-209.24
-193.36
-171.88
-146.83
-119.34
-90.82
-62.69
-36.16
-12.71
6.31
20.17
28.97
33.45
35.08
34.79
33.13
30.53
26.99
22.42
16.98
11.13
5.58
1.26
-1.55
-3.10
-3.99
-5.19
-7.43
-10.94
-15.42
-20.27
-24.94
-29.50
-34.59
-41.07
-49.69
-60.60
-73.08
-85.58
-96.01
-102.14
-102.10
-94.83
-80.37
-59.86
-35.36
-9.31
16.01
38.89
58.34
73.97
85.69
93.53
97.63
98.34
96.29
92.39
87.62
82.83
78.62
75.24
72.72
70.87
69.42
68.04
66.37
64.15
61.21
57.47
52.99
47.87
42.23
36.15
29.70
22.80
15.27
6.80
-2.90
-13.86
-25.52
-36.65
-45.38
-49.68
-47.92
-39.42
-24.73
-5.49
16.01
37.50
57.18
73.99
87.49
97.62
104.47
108.13
108.77
106.65
102.22
96.04
88.79
81.11
73.56
66.59
60.51
55.47
51.47
48.29
45.57
42.83
39.55
35.35
30.07
23.76
16.72
9.33
1.97
-5.10
-11.87
-18.55
-25.49
-33.10
-41.55
-50.56
-59.20
-65.90
-68.74
-66.00
-56.79
-41.42
-21.43
0.84
22.87
42.65
59.00
71.56
80.63
86.73
90.26
91.50
90.63
87.85
83.46
77.73
70.89
63.23
55.15
47.36
41.09
37.91
39.39
46.44
58.75
74.67
91.76
107.21
118.71
124.92
125.68
121.83
114.62
105.23
94.34
82.41
69.29
54.33
36.92
17.05
-4.23
-24.90
-42.54
-55.06
-60.35
-57.92
-48.83
-35.11
-18.65
-0.35
19.74
41.76
65.32
90.70
116.97
142.07
163.23
177.97
184.97
184.31
177.30
166.12
155.24
148.09
145.67
146.28
146.60
143.69
136.17
124.55
98.18
53.82
-4.37
-66.03
-120.44
-161.60
-188.40
-202.64
-207.16
-204.95
-196.87
-184.04
-168.15
-151.30
-135.62
-122.07
-110.71
-101.36
-94.14
-87.96
-82.49
-78.04
-75.42
-76.00
-80.17
-87.62
-97.71
-109.80
-122.38
-134.34
-145.25
-155.36
-165.84
-176.81
-187.21
-195.19
-198.97
-197.35
-190.87
-181.97
-168.32
-150.91
-130.46
-107.07
-80.89
-52.95
-25.23
-0.34
19.66
34.25
43.66
49.47
53.14
55.06
54.47
50.25
41.92
30.25
17.10
3.96
-7.96
-18.30
-27.55
-36.57
-45.99
-55.82
-65.58
-74.55
-82.51
-89.12
-93.75
-95.30
-92.33
-83.46
-68.20
-47.51
-23.73
-0.18
20.31
36.20
47.53
55.54
61.71
67.05
71.74
75.36
77.27
77.22
75.43
72.49
69.00
65.37
61.76
58.21
54.80
51.74
49.35
47.91
47.54
48.02
48.98
50.05
51.06
52.11
53.52
55.51
57.95
60.17
61.16
60.01
56.37
50.78
44.49
38.98
35.22
33.20
31.87
29.57
24.83
17.04
6.77
-4.27
-13.85
-19.84
-20.88
-16.66
-7.90
4.03
17.64
31.71
45.52
58.70
70.93
81.75
90.55
96.77
100.18
101.04
99.92
97.40
93.83
89.21
83.53
76.96
70.13
63.92
59.07
55.79
53.60
51.48
48.38
43.61
37.19
29.74
22.14
15.18
9.13
3.75
-1.57
-7.55
-14.61
-22.78
-31.73
-40.96
-49.98
-58.62
-66.98
-75.45
-84.59
-94.88
-106.49
-119.12
-131.77
-142.90
-150.66
-153.34
-149.92
-140.38
-125.81
-108.08
-89.40
-71.67
-56.18
-43.43
-33.36
-25.66
-20.08
-16.55
-15.04
-15.40
-17.15
-19.59
-21.98
-23.77
-24.79
-25.15
-25.10
-24.88
-24.58
-24.20
-23.79
-23.54
-23.84
-25.20
-27.96
-32.07
-36.87
-41.29
-44.18
-44.94
-43.92
-42.49
-42.61
-46.08
-53.73
-65.05
-78.19
-90.54
-99.45
-103.01
-100.42
-92.09
-79.26
-63.54
-46.43
-29.00
-11.88
4.59
20.09
34.10
45.91
54.77
60.13
61.79
59.95
55.08
47.80
38.79
28.80
18.70
9.46
2.13
-2.36
-3.49
-1.31
3.47
9.60
15.57
20.00
21.94
21.13
17.97
13.36
8.38
3.88
0.21
-2.96
-6.51
-11.63
-19.40
-30.27
-43.68
-58.00
-70.73
-79.14
-81.04
-75.46
-62.99
-45.50
-25.55
-5.54
12.86
28.88
42.39
53.51
62.19
68.16
71.15
71.15
68.69
64.67
60.08
55.59
51.35
47.09
42.42
37.27
31.97
27.13
23.23
20.19
17.31
13.48
7.75
-0.18
-9.72
-19.69
-28.81
-36.34
-42.43
-47.96
-54.19
-62.18
-72.31
-84.11
-96.31
-107.14
-114.65
-117.13
-113.43
-103.21
-87.00
-66.08
-42.14
-16.99
7.71
30.71
50.99
67.91
81.04
90.25
95.74
97.98
97.60
95.18
91.21
85.98
79.78
72.94
65.98
59.51
54.07
49.87
46.72
44.04
41.15
37.54
33.10
28.14
23.09
18.25
13.60
8.73
3.12
-3.76
-12.25
-22.63
-35.03
-49.28
-64.63
-79.47
-91.46
-98.05
-97.36
-88.91
-73.86
-54.59
-33.82
-13.73
4.51
20.61
34.69
46.83
56.76
64.04
68.29
69.50
68.10
64.79
60.31
55.20
49.74
44.02
38.10
32.27
26.98
22.74
19.84
18.01
16.44
13.98
9.66
3.10
-5.27
-14.42
-23.17
-30.80
-37.42
-43.88
-51.40
-60.93
-72.59
-85.45
-97.65
-106.80
-110.63
-107.50
-96.85
-79.24
-56.19
-29.82
-2.38
24.12
48.14
68.65
85.09
97.24
105.18
109.24
109.98
108.08
104.25
99.07
92.92
86.08
78.82
71.49
64.57
58.57
53.77
50.09
47.05
43.90
39.90
34.57
27.88
20.18
12.03
3.94
-3.88
-11.55
-19.47
-28.16
-38.05
-49.32
-61.77
-74.73
-86.91
-96.54
-101.62
-100.43
-92.09
-76.89
-56.41
-32.99
-9.13
13.24
33.08
50.14
64.58
76.57
85.99
92.59
96.14
96.76
94.95
91.42
86.88
81.81
76.40
70.72
64.88
59.14
53.85
49.28
45.46
42.02
38.33
33.64
27.46
19.69
10.71
1.23
-7.99
-16.46
-24.21
-31.74
-39.88
-49.46
-60.93
-74.10
-88.00
-100.96
-110.98
-116.18
-115.24
-107.80
-94.50
-76.76
-56.42
-35.32
-15.01
3.39
19.10
31.72
41.08
47.27
50.59
51.52
50.57
48.21
44.79
40.57
35.83
30.87
26.08
21.85
18.46
16.00
14.27
12.91
11.40
9.22
5.98
1.56
-3.91
-10.09
-16.53
-22.93
-29.17
-35.50
-42.38
-50.34
-59.78
-70.65
-82.26
-93.22
-101.59
-105.32
-102.81
-93.42
-77.73
-57.41
-34.74
-11.99
9.13
27.67
43.35
56.24
66.44
73.98
78.82
80.97
80.69
78.45
74.85
70.49
65.82
61.16
56.69
52.55
48.85
45.58
42.61
39.62
36.14
31.73
26.07
19.13
11.19
2.71
-5.75
-13.79
-21.28
-28.39
-35.60
-43.44
-52.24
-61.82
-71.34
-79.34
-84.11
-84.06
-78.31
-66.90
-50.83
-31.73
-11.40
8.59
27.07
43.31
56.81
67.23
74.35
78.19
79.11
77.79
75.09
71.71
68.03
64.05
59.56
54.41
48.77
43.13
38.07
34.00
30.91
28.32
25.51
21.78
16.74
10.42
3.19
-4.47
-12.11
-19.49
-26.57
-33.50
-40.57
-48.15
-56.59
-66.11
-76.59
-87.37
-97.16
-104.23
-106.84
-103.70
-94.46
-79.84
-61.45
-41.32
-21.29
-2.76
13.52
27.19
38.09
46.07
51.04
53.05
52.46
49.91
46.17
41.96
37.72
33.70
29.98
26.69
24.00
22.09
20.94
20.25
19.41
17.62
14.17
8.67
1.28
-7.41
-16.47
-24.98
-32.34
-38.41
-43.57
-48.60
-54.40
-61.72
-70.77
-81.00
-91.06
-99.03
-102.81
-100.76
-92.20
-77.62
-58.57
-37.13
-15.34
5.23
23.57
39.14
51.66
60.91
66.81
69.42
69.09
66.40
62.03
56.64
50.76
44.80
39.00
33.55
28.52
23.88
19.53
15.32
11.08
6.60
1.64
-4.10
-10.84
-18.64
-27.29
-36.32
-45.13
-53.24
-60.54
-67.33
-74.34
-82.33
-91.83
-102.72
-114.11
-124.33
-131.37
-133.34
-129.06
-118.33
-102.03
-81.77
-59.48
-36.95
-15.52
4.01
21.32
36.40
49.28
60.01
68.56
74.88
78.99
81.03
81.30
80.18
78.00
74.98
71.17
66.51
61.07
55.10
49.07
43.52
38.83
35.02
31.70
28.16
23.69
17.85
10.60
2.34
-6.30
-14.68
-22.34
-29.18
-35.50
-42.01
-49.61
-59.09
-70.74
-83.99
-97.28
-108.37
-114.81
-114.64
-106.95
-92.18
-71.94
-48.50
-24.18
-0.84
20.42
39.09
54.94
67.76
77.22
83.07
85.44
84.94
82.52
79.16
75.54
72.09
69.19
67.46
67.63
70.21
75.07
81.28
87.40
92.02
94.23
93.79
90.91
85.95
79.19
70.99
61.91
52.74
44.30
37.03
30.72
24.53
17.32
8.18
-3.22
-16.39
-29.97
-42.05
-50.50
-53.53
-50.12
-40.34
-25.35
-7.18
11.80
29.45
44.17
55.13
62.11
65.32
65.15
62.13
56.81
49.84
41.89
33.51
25.09
16.77
8.54
0.37
-7.65
-15.26
-22.12
-27.98
-32.85
-37.08
-41.25
-46.03
-51.86
-58.82
-66.51
-74.27
-81.37
-87.42
-92.45
-97.01
-101.91
-107.89
-115.20
-123.40
-131.23
-136.86
-138.33
-134.03
-123.24
-106.35
-84.79
-60.71
-36.47
-14.17
4.69
19.32
29.58
35.82
38.68
38.97
37.45
34.81
31.54
27.97
24.26
20.58
17.07
13.93
11.35
9.44
8.21
7.54
7.20
6.89
6.40
5.58
4.36
2.80
0.89
-1.50
-4.62
-8.85
-14.60
-22.15
-31.46
-42.00
-52.69
-61.87
-67.59
-67.99
-61.81
-48.88
-30.24
-7.99
15.24
36.96
55.32
69.42
79.17
85.08
87.82
87.98
85.93
81.84
75.87
68.34
59.76
50.86
42.37
34.87
28.55
23.24
18.45
13.59
8.20
2.10
-4.65
-11.83
-19.20
-26.68
-34.29
-42.12
-50.28
-58.84
-67.90
-77.58
-87.98
-98.85
-109.35
-117.88
-122.32
-120.60
-111.46
-95.02
-72.89
-47.73
-22.43
0.69
20.25
35.93
48.00
56.92
63.05
66.56
67.56
66.30
63.18
58.72
53.43
47.70
41.79
35.86
30.04
24.50
19.41
14.85
10.78
7.03
3.35
-0.50
-4.66
-9.17
-13.92
-18.76
-23.59
-28.47
-33.72
-39.84
-47.26
-55.97
-65.18
-73.25
-77.92
-77.00
-69.11
-54.20
-33.66
-9.89
14.48
37.30
57.22
73.76
86.92
96.86
103.68
107.41
108.14
106.22
102.19
96.73
90.46
83.85
77.16
70.56
64.20
58.31
53.08
48.58
44.61
40.68
36.09
30.25
22.90
14.29
5.09
-3.88
-12.05
-19.40
-26.50
-34.29
-43.66
-54.92
-67.46
-79.76
-89.63
-94.80
-93.58
-85.36
-70.74
-51.29
-29.11
-6.25
15.61
35.31
52.10
65.57
75.51
82.00
85.33
86.02
84.61
81.56
77.16
71.59
65.02
57.80
50.50
43.82
38.38
34.42
31.78
29.80
27.63
24.48
19.93
13.98
7.00
-0.52
-8.11
-15.48
-22.60
-29.56
-36.64
-44.23
-52.73
-62.37
-72.90
-83.40
-92.22
-97.33
-96.91
-89.92
-76.60
-58.41
-37.59
-16.50
2.94
19.65
33.25
43.80
51.51
56.48
58.74
58.46
55.97
51.87
46.88
41.63
36.60
32.01
27.97
24.58
21.97
20.21
19.25
18.70
17.91
16.12
12.73
7.59
1.06
-6.15
-13.30
-19.89
-25.96
-32.02
-38.86
-47.15
-57.11
-68.13
-78.75
-86.90
-90.47
-87.88
-78.69
-63.67
-44.59
-23.64
-2.82
16.41
33.19
47.08
57.81
65.17
69.10
69.80
67.81
63.94
59.02
53.70
48.33
43.01
37.77
32.69
28.04
24.12
21.14
19.03
17.39
15.61
13.00
9.13
3.88
-2.45
-9.30
-16.10
-22.40
-28.10
-33.39
-38.72
-44.63
-51.57
-59.72
-68.88
-78.30
-86.62
-92.03
-92.62
-86.97
-74.68
-56.64
-34.90
-12.03
9.59
28.32
43.50
55.14
63.62
69.20
71.95
71.83
68.98
63.86
57.35
50.50
44.28
39.26
35.48
32.51
29.76
26.76
23.43
19.99
16.86
14.26
12.09
9.85
6.91
2.80
-2.53
-8.71
-15.08
-21.03
-26.21
-30.69
-34.90
-39.33
-44.43
-50.47
-57.52
-65.48
-74.04
-82.53
-89.78
-94.16
-93.84
-87.34
-74.12
-54.94
-31.80
-7.45
15.44
35.00
50.42
61.83
69.85
75.05
77.70
77.82
75.44
70.93
65.08
58.88
53.28
48.79
45.40
42.71
40.20
37.50
34.54
31.53
28.66
26.00
23.27
19.98
15.62
9.93
3.05
-4.49
-11.95
-18.72
-24.46
-29.25
-33.47
-37.60
-42.12
-47.40
-53.67
-61.03
-69.32
-77.89
-85.56
-90.64
-91.26
-85.96
-74.16
-56.53
-34.83
-11.46
11.14
31.13
47.44
59.73
68.16
73.06
74.77
73.68
70.30
65.38
59.75
54.27
49.53
45.76
42.80
40.28
37.81
35.17
32.40
29.72
27.35
25.30
23.25
20.64
16.90
11.69
5.12
-2.29
-9.84
-16.93
-23.24
-28.89
-34.25
-39.79
-45.96
-53.06
-61.25
-70.48
-80.34
-89.87
-97.52
-101.41
-99.82
-91.77
-77.47
-58.39
-36.87
-15.46
3.74
19.44
31.22
39.26
44.00
45.87
45.28
42.65
38.54
33.60
28.52
23.86
19.90
16.70
14.14
12.08
10.51
9.57
9.43
10.15
11.53
13.00
13.73
12.93
10.15
5.51
-0.39
-6.63
-12.35
-17.18
-21.31
-25.42
-30.44
-37.09
-45.55
-55.27
-64.88
-72.50
-76.18
-74.38
-66.45
-52.81
-34.83
-14.47
6.21
25.39
41.74
54.46
63.24
68.15
69.53
67.99
64.34
59.44
54.09
48.85
44.00
39.58
35.48
31.59
27.96
24.69
21.92
19.59
17.45
15.08
12.04
8.02
2.94
-3.01
-9.49
-16.11
-22.53
-28.55
-34.24
-39.85
-45.89
-52.88
-61.17
-70.64
-80.43
-88.99
-94.26
-94.29
-87.81
-74.74
-56.33
-34.77
-12.65
7.81
25.12
38.65
48.36
54.52
57.39
57.26
54.50
49.65
43.45
36.70
30.03
23.83
18.23
13.20
8.70
4.77
1.46
-1.26
-3.61
-5.98
-8.90
-12.81
-17.93
-24.14
-30.97
-37.82
-44.11
-49.57
-54.36
-59.09
-64.51
-71.20
-79.16
-87.52
-94.57
-98.21
-96.53
-88.46
-74.12
-54.79
-32.53
-9.61
12.05
31.11
46.84
58.95
67.41
72.35
74.06
72.93
69.55
64.50
58.37
51.64
44.77
38.17
32.26
27.33
23.49
20.54
17.97
15.15
11.51
6.78
1.04
-5.34
-11.91
-18.39
-24.76
-31.30
-38.46
-46.67
-56.07
-66.39
-76.82
-85.99
-92.18
-93.66
-89.04
-77.81
-60.49
-38.66
-14.58
9.30
30.93
48.94
62.77
72.50
78.54
81.37
81.41
79.05
74.70
68.88
62.19
55.25
48.61
42.66
37.59
33.40
29.94
26.90
23.93
20.64
16.71
11.97
6.44
0.28
-6.27
-13.02
-19.90
-26.95
-34.38
-42.44
-51.35
-61.12
-71.27
-80.69
-87.67
-90.18
-86.51
-75.84
-58.65
-36.67
-12.46
11.32
32.50
49.79
62.78
71.64
76.84
78.87
78.16
75.13
70.32
64.41
58.14
52.21
47.07
42.83
39.36
36.41
33.80
31.46
29.32
27.21
24.77
21.54
17.14
11.50
4.91
-2.09
-9.01
-15.67
-22.29
-29.46
-37.84
-47.83
-59.20
-70.95
-81.37
-88.35
-89.95
-84.95
-73.32
-56.28
-36.00
-14.98
4.64
21.55
35.36
46.42
55.38
62.81
69.10
74.42
78.76
81.96
83.65
83.28
80.32
74.46
65.97
55.78
45.28
35.89
28.68
24.08
22.03
22.18
24.21
27.96
33.33
40.14
48.02
56.32
64.19
70.57
74.21
73.80
68.12
56.51
39.25
17.83
-5.14
-26.46
-43.07
-52.92
-55.39
-51.39
-42.95
-32.54
-22.38
-14.03
-8.22
-5.01
-4.04
-4.87
-7.07
-10.34
-14.40
-18.96
-23.67
-28.11
-31.94
-34.92
-37.03
-38.48
-39.66
-41.00
-42.91
-45.59
-49.14
-53.43
-58.26
-63.30
-68.15
-72.38
-75.61
-77.65
-78.61
-78.93
-79.16
-79.80
-80.91
-81.95
-81.78
-78.84
-71.73
-59.65
-42.85
-22.67
-1.14
19.59
37.90
53.02
64.92
74.02
80.69
85.05
87.02
86.53
83.80
79.39
74.01
68.32
62.66
57.13
51.72
46.51
41.78
37.91
35.15
33.39
32.03
30.17
26.91
21.71
14.60
6.14
-2.88
-11.76
-20.25
-28.53
-37.14
-46.58
-56.97
-67.77
-77.73
-85.06
-87.91
-84.91
-75.63
-60.75
-41.93
-21.28
-0.83
17.93
34.17
47.61
58.19
65.89
70.62
72.39
71.36
68.03
63.05
57.09
50.72
44.28
37.97
32.01
26.73
22.49
19.56
17.83
16.82
15.69
13.53
9.71
4.11
-2.85
-10.45
-17.96
-24.95
-31.47
-37.98
-45.14
-53.53
-63.37
-74.29
-85.27
-94.69
-100.58
-101.09
-94.96
-81.96
-63.09
-40.39
-16.41
6.37
26.14
42.02
53.94
62.27
67.47
69.87
69.71
67.32
63.27
58.29
53.13
48.29
43.93
39.95
36.17
32.52
29.13
26.15
23.63
21.28
18.61
14.98
9.94
3.43
-4.11
-11.91
-19.13
-25.24
-30.27
-34.84
-39.99
-46.76
-55.75
-66.76
-78.59
-89.27
-96.44
-98.02
-92.82
-80.83
-63.31
-42.34
-20.30
0.73
19.28
34.53
46.21
54.27
58.86
60.20
58.73
55.09
50.11
44.60
39.15
33.99
29.01
24.03
18.96
14.01
9.67
6.34
4.12
2.60
0.99
-1.63
-5.83
-11.73
-18.85
-26.42
-33.66
-40.07
-45.58
-50.50
-55.41
-60.94
-67.53
-75.21
-83.41
-90.97
-96.25
-97.45
-93.14
-82.61
-66.24
-45.46
-22.42
0.56
21.49
39.09
52.82
62.65
68.80
71.58
71.39
68.78
64.53
59.52
54.55
50.08
46.18
42.64
39.13
35.44
31.54
27.49
23.37
19.20
14.94
10.49
5.74
0.65
-4.75
-10.36
-15.97
-21.40
-26.66
-32.07
-38.25
-45.83
-55.07
-65.43
-75.42
-82.82
-85.31
-81.26
-70.23
-53.18
-32.18
-9.68
12.06
31.44
47.61
60.22
69.24
74.66
76.62
75.40
71.58
65.95
59.34
52.47
45.84
39.69
34.16
29.33
25.25
21.88
18.98
16.12
12.71
8.25
2.49
-4.40
-11.91
-19.36
-26.16
-32.10
-37.41
-42.72
-48.83
-56.39
-65.58
-75.89
-86.05
-94.23
-98.35
-96.63
-88.05
-72.69
-51.83
-27.62
-2.54
21.09
41.61
58.07
70.18
78.12
82.30
83.32
81.85
78.58
74.12
68.95
63.42
57.76
52.23
47.10
42.60
38.84
35.74
32.97
30.06
26.49
21.82
15.87
8.66
0.52
-8.02
-16.47
-24.46
-31.97
-39.32
-47.14
-56.05
-66.44
-78.12
-90.18
-101.02
-108.61
-110.98
-106.79
-95.79
-78.92
-58.13
-35.78
-14.08
5.38
21.69
34.47
43.57
48.88
50.38
48.27
43.19
36.20
28.64
21.82
16.66
13.49
12.10
11.90
12.27
12.81
13.42
14.14
15.01
15.86
16.32
15.95
14.55
12.17
9.18
5.97
2.75
-0.60
-4.50
-9.43
-15.80
-23.76
-33.23
-43.79
-54.68
-64.79
-72.68
-76.82
-75.95
-69.37
-57.17
-40.26
-20.15
1.42
22.68
42.13
58.56
71.03
78.96
82.19
81.06
76.41
69.47
61.50
53.60
46.41
40.13
34.63
29.71
25.20
21.03
17.16
13.45
9.65
5.49
0.78
-4.50
-10.09
-15.68
-20.96
-25.83
-30.47
-35.36
-41.14
-48.43
-57.60
-68.52
-80.38
-91.66
-100.31
-104.22
-101.74
-92.24
-76.31
-55.74
-32.96
-10.45
9.75
26.43
39.10
47.83
52.91
54.83
54.16
51.70
48.39
45.22
42.90
41.65
41.16
40.82
40.05
38.66
36.92
35.32
34.24
33.66
33.11
31.85
29.26
25.11
19.56
13.02
5.78
-2.19
-11.25
-21.91
-34.41
-48.36
-62.52
-74.94
-83.38
-85.94
-81.62
-70.67
-54.48
-35.09
-14.60
5.30
23.50
39.45
52.87
63.58
71.41
76.21
77.83
76.19
71.34
63.57
53.54
42.29
31.13
21.35
13.89
9.17
7.06
6.88
7.60
7.92
6.50
2.19
-5.64
-16.83
-30.50
-45.39
-60.30
-74.59
-88.24
-101.56
-114.71
-127.14
-137.49
-143.82
-144.16
-137.12
-122.45
-101.13
-75.20
-47.34
-20.26
3.70
22.96
36.76
45.18
48.96
49.21
47.19
43.99
40.40
36.92
33.91
31.62
30.32
30.16
31.11
32.95
35.31
37.93
40.65
43.51
46.50
49.48
52.13
54.00
54.67
53.84
51.38
47.20
41.20
33.22
23.18
11.26
-1.87
-14.87
-25.87
-32.77
-33.85
-28.26
-16.39
0.17
19.15
38.15
55.30
69.48
80.29
87.78
92.17
93.71
92.65
89.35
84.21
77.70
70.20
61.95
53.10
43.82
34.42
25.39
17.30
10.53
5.12
0.63
-3.67
-8.51
-14.34
-21.12
-28.39
-35.58
-42.21
-48.22
-53.87
-59.79
-66.61
-74.82
-84.47
-94.94
-104.88
-112.30
-115.07
-111.48
-100.88
-83.94
-62.45
-38.81
-15.32
6.27
24.94
40.28
52.19
60.63
65.67
67.50
66.58
63.61
59.38
54.56
49.51
44.30
38.86
33.22
27.60
22.47
18.22
14.94
12.24
9.40
5.64
0.58
-5.64
-12.44
-19.15
-25.35
-31.12
-37.00
-43.70
-51.78
-61.38
-71.94
-82.25
-90.62
-95.19
-94.39
-87.31
-74.01
-55.51
-33.57
-10.34
12.13
32.19
48.79
61.52
70.47
76.06
78.81
79.23
77.66
74.37
69.60
63.70
57.12
50.44
44.21
38.90
34.67
31.43
28.75
26.05
22.79
18.59
13.36
7.29
0.66
-6.18
-13.05
-19.90
-26.82
-34.10
-42.11
-51.13
-61.13
-71.48
-80.76
-86.95
-88.00
-82.47
-70.17
-52.25
-30.85
-8.43
12.93
31.89
47.91
60.89
70.93
78.13
82.50
84.12
83.15
79.89
74.78
68.30
60.95
53.23
45.57
38.37
31.90
26.37
21.83
18.10
14.80
11.36
7.17
1.81
-4.77
-12.26
-20.05
-27.50
-34.21
-40.15
-45.76
-51.77
-58.96
-67.82
-78.22
-89.27
-99.34
-106.31
-108.13
-103.40
-91.81
-74.25
-52.58
-29.10
-5.91
15.40
33.86
49.00
60.62
68.70
73.33
74.87
73.89
71.12
67.22
62.68
57.78
52.63
47.36
42.17
37.35
33.23
29.95
27.41
25.23
22.88
19.73
15.38
9.65
2.76
-4.82
-12.49
-19.71
-26.25
-32.21
-38.08
-44.54
-52.27
-61.58
-72.24
-83.21
-92.74
-98.73
-99.19
-92.91
-79.82
-61.09
-38.79
-15.32
7.19
27.32
44.38
58.24
69.02
76.80
81.60
83.44
82.53
79.36
74.64
69.13
63.44
57.91
52.62
47.57
42.80
38.44
34.66
31.51
28.77
25.94
22.35
17.41
10.88
2.98
-5.64
-14.15
-21.80
-28.25
-33.69
-38.74
-44.34
-51.31
-60.12
-70.51
-81.42
-91.15
-97.68
-99.16
-94.44
-83.39
-66.88
-46.60
-24.59
-2.76
17.38
34.85
49.14
60.10
67.74
72.23
73.85
73.03
70.30
66.24
61.44
56.29
51.06
45.86
40.78
35.93
31.50
27.66
24.48
21.84
19.35
16.53
12.82
7.84
1.49
-5.99
-14.04
-21.94
-29.06
-35.05
-40.02
-44.55
-49.50
-55.70
-63.60
-72.99
-82.85
-91.51
-97.02
-97.62
-92.22
-80.75
-64.15
-44.20
-22.99
-2.52
15.66
30.59
41.85
49.38
53.37
54.23
52.52
49.04
44.63
39.97
35.48
31.27
27.18
23.12
19.15
15.57
12.73
10.80
9.59
8.54
6.97
4.28
0.20
-5.08
-11.11
-17.30
-23.21
-28.68
-33.92
-39.37
-45.61
-53.09
-61.85
-71.37
-80.49
-87.52
-90.60
-88.19
-79.52
-64.90
-45.71
-24.05
-2.25
17.73
34.58
47.76
57.29
63.49
66.72
67.36
65.77
62.40
57.81
52.56
47.15
41.95
37.16
32.83
28.96
25.53
22.44
19.59
16.76
13.62
9.84
5.16
-0.48
-6.86
-13.56
-20.21
-26.59
-32.87
-39.56
-47.28
-56.46
-66.92
-77.69
-87.09
-93.03
-93.59
-87.65
-75.24
-57.50
-36.43
-14.23
7.15
26.35
42.57
55.42
64.70
70.33
72.40
71.25
67.56
62.22
56.14
50.06
44.41
39.30
34.64
30.35
26.36
22.72
19.45
16.45
13.39
9.83
5.37
-0.21
-6.77
-13.89
-21.02
-27.75
-34.03
-40.20
-46.87
-54.63
-63.80
-74.10
-84.57
-93.63
-99.41
-100.12
-94.60
-82.68
-65.32
-44.40
-22.32
-1.34
16.78
31.08
41.30
47.66
50.56
50.48
47.86
43.21
37.05
30.01
22.68
15.66
9.43
4.45
0.98
-0.96
-1.66
-1.74
-1.96
-3.01
-5.30
-8.81
-13.15
-17.78
-22.27
-26.43
-30.35
-34.37
-38.92
-44.39
-51.01
-58.64
-66.61
-73.60
-77.80
-77.34
-70.86
-58.07
-39.91
-18.37
4.07
25.12
43.13
57.32
67.57
74.14
77.43
77.85
75.77
71.67
66.10
59.70
53.14
46.98
41.64
37.27
33.76
30.86
28.25
25.64
22.81
19.63
15.94
11.58
6.39
0.35
-6.46
-13.83
-21.63
-29.83
-38.62
-48.23
-58.68
-69.48
-79.44
-86.83
-89.71
-86.54
-76.66
-60.64
-40.17
-17.58
4.77
25.05
42.19
55.82
65.96
72.70
76.10
76.27
73.55
68.61
62.39
55.82
49.60
44.09
39.33
35.25
31.74
28.74
26.11
23.62
20.90
17.54
13.25
7.96
1.84
-4.76
-11.47
-18.03
-24.40
-30.78
-37.58
-45.32
-54.41
-64.81
-75.78
-85.81
-92.80
-94.65
-89.85
-78.04
-60.13
-38.08
-14.31
8.90
29.79
47.25
60.73
70.01
75.12
76.39
74.39
69.97
64.11
57.70
51.38
45.53
40.31
35.80
32.07
29.10
26.76
24.68
22.32
19.11
14.72
9.17
2.78
-3.91
-10.44
-16.59
-22.47
-28.43
-34.95
-42.47
-51.26
-61.19
-71.61
-81.26
-88.33
-90.84
-87.17
-76.60
-59.64
-37.96
-14.03
9.60
30.83
48.37
61.72
71.01
76.58
78.88
78.32
75.37
70.55
64.52
57.94
51.47
45.60
40.64
36.67
33.55
30.97
28.49
25.62
21.98
17.34
11.74
5.42
-1.21
-7.76
-13.95
-19.75
-25.42
-31.46
-38.44
-46.82
-56.68
-67.45
-77.83
-85.92
-89.57
-86.99
-77.31
-60.95
-39.58
-15.65
8.27
30.05
48.37
62.59
72.56
78.39
80.29
78.69
74.32
68.16
61.32
54.74
48.94
43.98
39.56
35.29
30.95
26.57
22.37
18.53
15.02
11.53
7.54
2.65
-3.27
-9.94
-16.86
-23.55
-29.76
-35.65
-41.66
-48.38
-56.22
-65.19
-74.72
-83.61
-90.15
-92.50
-89.19
-79.53
-63.99
-44.09
-21.96
0.17
20.51
37.87
51.62
61.47
67.32
69.28
67.79
63.63
57.83
51.43
45.18
39.42
34.16
29.29
24.78
20.75
17.41
14.80
12.70
10.61
7.95
4.23
-0.69
-6.63
-13.12
-19.64
-25.83
-31.59
-37.16
-43.06
-49.88
-57.98
-67.18
-76.60
-84.65
-89.38
-88.99
-82.35
-69.40
-51.18
-29.54
-6.72
15.20
34.59
50.45
62.37
70.39
74.87
76.30
75.26
72.26
67.82
62.33
56.22
49.90
43.82
38.40
33.95
30.50
27.75
25.17
22.12
18.10
12.95
6.85
0.21
-6.55
-13.12
-19.49
-25.87
-32.62
-40.13
-48.70
-58.28
-68.43
-78.08
-85.69
-89.36
-87.44
-78.96
-64.08
-44.14
-21.36
1.80
23.26
41.72
56.67
68.19
76.51
81.81
84.18
83.78
81.00
76.52
71.18
65.74
60.66
56.06
51.80
47.67
43.60
39.67
36.08
32.88
29.89
26.54
22.10
15.95
7.94
-1.50
-11.42
-20.74
-28.73
-35.35
-41.25
-47.55
-55.30
-65.07
-76.64
-88.89
-100.03
-107.93
-110.62
-106.74
-95.98
-79.17
-58.11
-35.10
-12.37
8.38
26.14
40.50
51.41
58.94
63.17
64.27
62.62
58.82
53.69
48.01
42.44
37.32
32.76
28.69
25.02
21.71
18.78
16.28
14.18
12.27
10.22
7.59
3.98
-0.80
-6.69
-13.31
-20.09
-26.45
-32.00
-36.72
-40.94
-45.32
-50.60
-57.39
-65.85
-75.48
-85.03
-92.60
-96.07
-93.66
-84.51
-68.97
-48.52
-25.36
-1.78
20.32
39.73
55.80
68.29
77.17
82.51
84.54
83.66
80.49
75.79
70.30
64.66
59.26
54.30
49.80
45.73
42.09
38.93
36.30
34.13
32.18
30.02
27.10
22.95
17.37
10.48
2.67
-5.51
-13.53
-21.10
-28.22
-35.13
-42.30
-50.22
-59.31
-69.71
-81.13
-92.65
-102.75
-109.45
-110.75
-105.28
-92.76
-74.20
-51.72
-27.89
-5.01
15.35
32.51
46.36
57.03
64.52
68.72
69.55
67.27
62.51
56.22
49.44
43.00
37.36
32.60
28.59
25.15
22.18
19.69
17.71
16.19
14.83
13.13
10.52
6.58
1.25
-5.15
-11.95
-18.43
-24.11
-28.88
-33.04
-37.17
-41.90
-47.76
-55.02
-63.56
-72.82
-81.68
-88.54
-91.58
-89.15
-80.29
-65.14
-44.98
-21.95
1.53
23.31
41.98
56.89
68.00
75.55
79.84
81.13
79.74
76.17
71.14
65.48
60.00
55.18
51.14
47.68
44.44
41.17
37.90
34.84
32.28
30.24
28.38
25.98
22.27
16.74
9.46
1.07
-7.40
-15.05
-21.47
-26.88
-32.10
-38.11
-45.69
-55.13
-66.01
-77.32
-87.48
-94.72
-97.28
-93.82
-83.80
-67.73
-47.15
-24.27
-1.48
19.21
36.51
49.85
59.22
64.87
67.17
66.55
63.53
58.78
53.06
47.12
41.54
36.68
32.66
29.45
26.94
24.97
23.38
21.99
20.58
18.86
16.54
13.37
9.17
3.97
-1.99
-8.33
-14.58
-20.36
-25.51
-30.17
-34.84
-40.20
-46.94
-55.35
-65.04
-74.83
-82.89
-87.14
-85.84
-78.14
-64.34
-45.80
-24.56
-2.83
17.52
35.20
49.46
59.94
66.50
69.16
68.15
64.10
57.98
51.02
44.31
38.60
34.05
30.41
27.23
24.20
21.34
18.86
16.99
15.72
14.64
13.13
10.52
6.49
1.05
-5.36
-12.17
-18.83
-25.03
-30.70
-36.04
-41.42
-47.28
-54.03
-61.86
-70.52
-79.10
-86.03
-89.34
-87.16
-78.36
-62.99
-42.40
-18.97
4.61
25.95
43.45
56.36
64.64
68.57
68.53
64.95
58.45
49.91
40.42
31.09
22.72
15.71
10.00
5.30
1.34
-2.01
-4.79
-7.01
-8.85
-10.67
-12.93
-15.96
-19.86
-24.41
-29.16
-33.68
-37.70
-41.29
-44.88
-49.15
-54.80
-62.24
-71.31
-80.99
-89.50
-94.59
-94.13
-86.83
-72.65
-52.89
-29.83
-6.08
16.00
34.75
49.27
59.21
64.61
65.76
63.16
57.62
50.24
42.27
34.92
29.11
25.33
23.59
23.53
24.58
26.08
27.40
27.97
27.25
24.79
20.37
14.05
6.31
-2.12
-10.39
-17.96
-24.72
-31.15
-38.06
-46.30
-56.26
-67.50
-78.70
-87.77
-92.39
-90.63
-81.55
-65.51
-44.15
-19.97
4.28
26.18
44.09
57.33
65.97
70.67
72.23
71.41
68.77
64.64
59.21
52.70
45.44
37.92
30.77
24.57
19.71
16.14
13.50
11.12
8.39
4.90
0.58
-4.34
-9.57
-14.90
-20.39
-26.31
-33.05
-40.99
-50.35
-61.09
-72.62
-83.77
-92.70
-97.31
-95.67
-86.69
-70.57
-48.83
-23.98
1.18
24.19
43.32
57.74
67.39
72.69
74.35
73.20
69.97
65.31
59.74
53.69
47.60
41.87
36.83
32.61
29.09
25.92
22.69
19.05
14.87
10.25
5.38
0.44
-4.56
-9.72
-15.28
-21.44
-28.45
-36.55
-45.99
-56.84
-68.71
-80.50
-90.31
-95.78
-94.76
-86.01
-69.81
-47.94
-23.23
1.28
23.14
40.97
54.43
63.83
69.69
72.34
71.92
68.54
62.46
54.34
45.15
36.02
27.95
21.57
17.02
14.01
11.93
10.11
8.01
5.29
1.89
-2.10
-6.54
-11.35
-16.59
-22.42
-29.08
-36.81
-45.81
-56.09
-67.29
-78.49
-88.09
-94.07
-94.42
-87.74
-73.77
-53.60
-29.52
-4.35
19.17
39.03
54.23
64.63
70.65
72.81
71.53
67.12
59.94
50.68
40.39
30.37
21.75
15.25
10.91
8.29
6.64
5.29
3.84
2.18
0.33
-1.68
-4.00
-6.93
-10.88
-16.23
-23.23
-31.98
-42.32
-53.82
-65.68
-76.63
-84.96
-88.73
-86.22
-76.49
-59.77
-37.61
-12.49
12.75
35.70
54.76
69.34
79.54
85.88
88.86
88.86
86.21
81.20
74.34
66.30
57.84
49.73
42.61
36.81
32.38
28.99
26.08
23.02
19.27
14.56
8.97
2.74
-3.76
-10.27
-16.72
-23.32
-30.41
-38.48
-47.87
-58.65
-70.29
-81.48
-90.22
-94.15
-91.23
-80.45
-62.24
-38.47
-11.86
14.75
39.16
60.07
77.04
90.03
99.12
104.26
105.50
103.32
98.88
94.06
91.08
91.89
97.53
107.63
120.47
133.37
143.48
148.45
146.94
138.75
124.55
105.52
82.93
57.98
31.78
5.42
-19.97
-43.33
-63.76
-80.76
-94.29
-104.81
-113.12
-120.09
-126.52
-132.95
-139.57
-146.07
-151.61
-154.78
-153.82
-147.02
-133.26
-112.51
-85.99
-56.03
-25.48
2.98
27.35
46.64
60.69
69.95
75.06
76.69
75.48
72.15
67.56
62.67
58.34
55.16
53.29
52.45
52.10
51.64
50.64
48.88
46.40
43.34
39.84
35.93
31.48
26.24
20.01
12.72
4.61
-3.83
-11.99
-19.38
-25.80
-31.41
-36.63
-41.94
-47.77
-54.41
-62.07
-70.84
-80.61
-90.75
-99.91
-106.09
-107.03
-100.92
-87.11
-66.49
-41.36
-14.72
10.56
32.48
50.18
63.68
73.42
79.81
83.03
83.16
80.44
75.46
69.23
62.88
57.37
53.26
50.59
49.04
48.12
47.36
46.43
45.11
43.27
40.76
37.48
33.33
28.35
22.62
16.29
9.52
2.44
-4.84
-12.16
-19.40
-26.42
-33.20
-39.80
-46.45
-53.46
-61.24
-70.11
-80.17
-91.03
-101.58
-110.08
-114.41
-112.72
-104.04
-88.73
-68.40
-45.44
-22.32
-0.98
17.41
32.33
43.58
51.04
54.62
54.45
51.04
45.33
38.55
31.82
25.93
21.16
17.34
14.12
11.26
8.76
6.87
5.88
5.87
6.57
7.32
7.35
6.01
3.04
-1.30
-6.34
-11.40
-15.99
-20.16
-24.39
-29.47
-36.12
-44.78
-55.34
-67.05
-78.60
-88.20
-93.96
-94.22
-88.03
-75.50
-57.80
-36.98
-15.43
4.63
21.65
34.91
44.44
50.72
54.39
56.04
56.05
54.66
52.04
48.43
44.12
39.44
34.79
30.52
26.94
24.27
22.66
22.05
22.18
22.56
22.58
21.63
19.36
15.69
10.87
5.36
-0.43
-6.23
-12.10
-18.45
-25.91
-35.01
-45.91
-57.95
-69.57
-78.49
-82.27
-79.04
-68.17
-50.54
-28.34
-4.41
18.57
38.66
54.86
67.05
75.53
80.71
82.95
82.54
79.79
75.16
69.20
62.47
55.44
48.48
41.87
35.90
30.83
26.83
23.85
21.52
19.13
15.90
11.19
4.80
-2.95
-11.31
-19.43
-26.71
-33.07
-39.04
-45.54
-53.57
-63.75
-75.95
-89.16
-101.51
-110.65
-114.31
-110.88
-99.86
-82.09
-59.52
-34.73
-10.35
11.53
29.59
43.31
52.75
58.30
60.45
59.70
56.62
51.75
45.65
38.79
31.54
24.19
17.07
10.59
5.24
1.37
-0.93
-2.03
-2.65
-3.63
-5.60
-8.72
-12.70
-17.01
-21.17
-25.04
-28.87
-33.28
-39.02
-46.70
-56.62
-68.50
-81.26
-93.04
-101.42
-103.87
-98.58
-85.00
-64.18
-38.58
-11.35
14.55
37.00
55.09
68.86
78.89
85.73
89.71
90.91
89.33
85.21
79.11
71.84
64.31
57.23
51.01
45.68
41.07
36.91
32.98
29.07
25.00
20.57
15.71
10.44
5.05
-0.18
-5.17
-10.36
-16.79
-25.85
-38.84
-56.48
-78.53
-103.66
-129.58
-153.29
-171.53
-181.40
-181.07
-170.32
-150.76
-125.41
-97.78
-70.89
-46.62
-25.66
-8.08
6.12
16.66
23.07
25.11
23.14
18.12
11.32
4.07
-2.62
-8.00
-11.48
-12.54
-10.86
-6.55
-0.39
6.15
11.27
13.51
12.38
8.71
4.62
2.77
5.48
13.83
27.35
44.17
61.73
77.53
89.62
96.98
99.49
98.00
94.13
90.11
88.27
90.37
96.99
107.17
118.66
128.64
134.70
135.46
130.85
121.78
109.54
95.29
79.79
63.54
47.11
31.43
17.93
8.19
3.55
4.54
10.55
19.89
30.05
38.29
42.31
40.87
34.04
23.32
11.22
0.48
-6.79
-9.85
-9.67
-8.54
-9.27
-14.10
-23.87
-37.51
-52.21
-64.12
-69.48
-65.88
-53.20
-33.83
-11.95
7.80
21.80
28.42
28.20
23.20
15.98
8.75
3.07
-0.11
-0.24
2.93
9.12
17.41
26.26
33.82
38.58
39.77
37.65
33.29
28.05
22.95
18.23
13.35
7.30
-0.85
-11.45
-24.14
-37.98
-51.81
-64.67
-76.14
-86.28
-95.69
-105.10
-115.06
-125.47
-135.41
-143.14
-146.48
-143.44
-132.81
-114.65
-90.27
-61.85
-31.83
-2.35
25.14
49.96
71.89
90.81
106.47
118.50
126.72
131.43
133.67
135.03
137.25
141.59
148.35
156.86
165.76
173.34
177.90
177.91
172.01
159.10
138.54
110.59
76.79
39.95
3.64
-28.61
-54.55
-73.90
-88.33
-100.62
-113.27
-127.28
-141.67
-153.92
-161.17
-161.53
-154.77
-142.20
-125.81
-107.39
-88.20
-69.06
-51.09
-36.05
-26.19
-23.42
-28.26
-39.24
-53.36
-67.03
-77.66
-84.72
-89.72
-95.26
-103.46
-114.68
-127.14
-137.46
-142.16
-139.18
-128.83
-113.76
-97.94
-85.27
-78.43
-78.28
-84.18
-94.59
-107.64
-121.47
-134.12
-143.57
-147.78
-145.07
-134.40
-115.77
-90.10
-59.02
-24.56
11.04
45.38
76.09
101.02
118.70
128.66
131.72
129.76
125.22
120.12
115.50
111.18
106.12
99.30
90.63
81.35
73.59
69.41
69.67
73.58
78.86
82.79
83.43
80.36
74.82
68.87
64.39
62.15
61.40
60.28
56.72
49.58
39.29
27.91
18.57
14.40
17.48
28.37
46.12
68.75
93.88
119.10
142.35
161.83
176.03
183.61
183.72
176.25
162.02
142.75
120.62
97.84
76.16
56.50
38.89
22.96
8.52
-4.30
-15.04
-23.40
-29.77
-35.36
-41.88
-51.24
-64.19
-79.95
-96.58
-111.98
-125.13
-136.49
-147.70
-160.55
-176.78
-196.38
-217.32
-236.36
-250.28
-257.02
-255.90
-247.31
-232.31
-213.61
-193.69
-174.34
-156.69
-141.67
-130.29
-123.26
-120.51
-120.87
-123.89
-128.12
-131.33
-131.18
-126.39
-117.25
-105.15
-91.72
-67.41
-28.45
21.89
74.47
120.14
154.53
178.03
193.21
202.62
208.01
208.67
204.34
196.23
186.69
177.87
170.48
163.73
156.22
147.11
135.11
120.28
103.74
87.28
71.63
56.44
40.61
22.87
2.39
-22.30
-51.84
-85.06
-118.37
-146.15
-162.21
-161.94
-144.32
-112.28
-72.67
-33.30
-0.32
23.24
37.21
42.90
41.84
33.46
18.17
-2.61
-26.03
-48.52
-67.15
-81.09
-91.90
-102.49
-115.46
-130.86
-145.83
-155.53
-155.01
-141.56
-115.87
-81.89
-45.13
-10.59
19.20
44.27
66.49
88.04
109.93
131.34
149.70
161.60
164.01
155.52
137.04
111.92
85.37
63.18
50.05
48.32
57.38
73.98
93.48
111.04
122.66
125.76
119.33
104.00
81.76
55.54
28.56
3.35
-18.90
-38.45
-56.34
-73.41
-89.48
-103.12
-112.22
-114.79
-109.70
-96.98
-77.60
-53.13
-25.38
3.73
32.16
57.87
78.96
94.07
102.65
105.09
102.62
96.84
89.36
81.28
73.09
64.75
56.09
47.25
38.92
32.18
28.04
26.79
27.68
29.09
29.10
26.33
20.34
11.69
1.50
-9.18
-19.71
-29.89
-39.85
-49.77
-59.80
-70.03
-80.47
-90.85
-100.40
-107.74
-111.07
-108.64
-99.35
-83.22
-61.42
-35.98
-9.18
16.95
40.97
61.99
79.53
93.27
103.01
108.75
110.82
109.91
107.06
103.39
99.81
96.75
94.07
91.15
87.17
81.50
74.00
65.10
55.66
46.45
37.87
29.76
21.62
13.04
4.06
-4.72
-12.49
-18.67
-23.34
-27.26
-31.65
-37.72
-46.26
-57.41
-70.63
-84.68
-97.71
-107.45
-111.60
-108.37
-97.08
-78.46
-54.46
-27.69
-0.71
24.59
47.10
66.32
82.03
94.03
102.12
106.38
107.29
105.76
102.87
99.52
96.18
92.89
89.51
86.04
82.82
80.38
79.18
79.27
80.08
80.61
79.73
76.60
71.04
63.50
54.92
46.36
38.65
32.18
26.88
22.31
17.89
13.13
7.76
1.79
-4.43
-10.34
-15.25
-18.77
-21.11
-23.48
-27.91
-36.55
-50.55
-69.14
-89.32
-106.68
-116.86
-117.17
-107.45
-89.88
-68.02
-45.55
-25.37
-9.37
1.41
6.50
5.85
-0.07
-10.13
-22.61
-35.47
-46.79
-55.24
-60.32
-62.49
-62.99
-63.70
-66.82
-74.25
-86.78
-103.20
-119.94
-132.13
-135.57
-129.13
-116.08
-103.18
-97.80
-104.46
-122.54
-146.42
-167.49
-177.37
-170.59
-146.00
-107.15
-61.41
-18.40
12.49
25.01
18.57
-0.88
-22.57
-34.81
-29.38
-4.45
35.14
80.22
120.91
149.61
162.64
160.15
145.01
121.55
94.47
68.14
46.39
32.08
26.69
29.93
39.60
52.02
63.08
69.59
70.31
66.32
60.43
55.78
54.36
55.99
58.32
57.71
50.87
36.17
14.50
-10.87
-35.24
-53.93
-63.68
-63.53
-54.76
-40.10
-22.59
-4.73
12.18
27.84
42.33
55.48
66.61
74.79
79.40
80.59
79.01
75.88
72.32
68.90
65.39
61.16
55.81
49.69
43.82
38.81
34.92
31.80
28.50
23.78
16.81
7.75
-2.22
-11.47
-19.66
-27.06
-34.46
-42.82
-52.99
-65.40
-79.71
-94.87
-109.61
-124.16
-138.62
-152.59
-164.72
-173.09
-175.86
-171.90
-161.61
-140.02
-108.01
-71.43
-37.81
-11.55
7.25
20.52
29.93
36.52
41.43
44.73
48.01
52.47
57.87
62.06
61.91
55.17
41.77
23.53
1.90
-21.26
-44.42
-66.16
-84.96
-98.83
-105.70
-104.41
-95.78
-83.46
-72.12
-65.95
-67.05
-75.12
-87.92
-102.20
-114.56
-122.06
-122.66
-114.94
-98.41
-73.74
-43.03
-9.56
23.20
52.55
77.33
97.92
115.73
132.19
147.83
161.85
172.48
177.64
175.84
166.73
151.12
130.72
107.56
83.55
60.35
39.20
20.99
6.18
-5.25
-13.72
-19.97
-24.71
-28.47
-31.39
-33.43
-34.60
-35.35
-36.73
-40.24
-47.34
-58.71
-73.76
-90.48
-105.71
-115.92
-118.11
-110.57
-93.36
-68.14
-37.74
-5.43
25.81
53.72
76.96
94.98
107.78
115.75
119.49
119.77
117.50
113.59
108.75
103.42
97.67
91.43
84.68
77.73
71.13
65.49
61.01
57.23
53.16
47.66
40.03
30.44
20.00
10.36
2.93
-1.65
-3.77
-4.50
-5.11
-6.54
-9.08
-12.30
-15.26
-16.76
-15.60
-10.71
-1.20
13.12
31.37
51.67
71.56
88.76
101.78
110.10
113.99
114.17
110.86
103.51
91.19
73.60
51.67
27.52
3.70
-17.55
-34.55
-47.02
-56.16
-64.19
-73.02
-83.51
-95.06
-105.66
-112.06
-110.01
-96.47
-71.43
-38.84
-5.23
22.41
39.00
43.07
33.75
15.24
-4.11
-16.28
-18.82
-14.64
-8.68
-4.45
-2.87
-3.02
-2.90
-1.66
-0.02
-0.55
-5.25
-15.55
-31.64
-53.21
-80.01
-111.17
-145.08
-175.10
-195.32
-200.21
-186.89
-157.01
-116.91
-75.43
-40.06
-14.30
2.70
13.81
22.72
31.72
41.81
53.14
65.41
77.80
88.56
94.73
92.20
78.16
52.19
16.27
-26.28
-71.85
-116.86
-157.47
-186.45
-196.67
-182.61
-143.23
-83.51
-13.97
52.48
104.68
136.29
146.58
138.41
116.16
84.05
45.83
5.26
-33.58
-66.95
-92.86
-111.96
-127.64
-143.93
-163.38
-185.34
-206.25
-221.28
-226.78
-221.90
-208.79
-191.51
-174.01
-158.69
-145.91
-134.71
-123.80
-112.31
-100.03
-87.01
-73.26
-58.46
-42.10
-23.76
-3.27
19.36
44.09
70.88
99.41
128.59
156.29
179.60
195.54
202.12
199.17
188.37
172.86
156.12
141.02
129.19
120.94
115.50
111.50
107.43
101.97
94.33
84.43
72.85
60.58
48.48
36.85
25.18
12.42
-2.45
-19.52
-37.40
-53.14
-63.07
-64.05
-54.73
-36.14
-11.35
15.73
41.80
65.12
85.55
103.93
120.97
136.83
151.04
163.06
172.52
179.37
183.49
184.40
181.47
174.44
163.87
151.10
137.39
122.60
104.43
79.02
43.37
-1.79
-50.45
-92.58
-118.03
-121.47
-105.34
-79.26
-55.85
-45.19
-50.95
-69.80
-94.21
-116.51
-131.89
-138.80
-137.57
-128.44
-110.90
-84.36
-49.79
-10.78
26.83
56.43
73.21
76.00
68.02
55.69
46.28
45.08
53.59
69.37
87.52
103.22
113.77
119.44
122.62
126.16
131.60
138.33
143.87
144.97
138.79
123.68
99.32
66.72
28.05
-13.29
-52.90
-86.09
-109.14
-120.59
-122.00
-117.30
-111.22
-107.20
-106.02
-105.83
-103.36
-95.74
-81.84
-62.50
-39.85
-16.18
6.83
28.25
47.47
63.79
76.15
83.44
84.97
80.90
72.44
61.57
50.49
40.97
33.92
29.22
25.97
22.94
19.12
14.05
7.97
1.55
-4.38
-9.30
-13.24
-16.79
-20.79
-25.95
-32.50
-40.13
-48.27
-56.39
-64.30
-72.09
-79.81
-87.09
-92.91
-95.73
-94.03
-86.79
-74.02
-56.83
-37.10
-16.93
1.92
18.39
32.04
42.88
50.82
55.51
56.42
53.17
46.01
36.00
24.90
14.64
6.64
1.47
-1.23
-2.42
-2.99
-3.52
-4.08
-4.42
-4.41
-4.16
-4.14
-4.91
-6.93
-10.35
-15.10
-20.97
-27.86
-35.73
-44.44
-53.46
-61.57
-66.88
-67.28
-60.98
-47.19
-26.48
-0.65
27.80
56.43
83.37
107.48
128.14
144.94
157.53
165.69
169.42
169.18
165.69
159.70
151.76
142.09
130.78
117.99
104.24
90.34
77.20
65.49
55.38
46.50
38.09
29.32
19.61
8.81
-2.78
-14.53
-25.70
-35.65
-44.09
-51.26
-58.00
-65.52
-74.86
-86.36
-99.09
-110.94
-119.22
-121.68
-117.42
-107.33
-93.72
-79.54
-67.27
-58.21
-52.16
-47.55
-41.93
-32.69
-17.85
3.14
29.03
56.68
81.65
99.30
106.03
100.40
83.48
58.56
30.24
3.04
-19.55
-35.76
-45.52
-50.00
-50.97
-50.29
-49.51
-49.85
-52.23
-57.27
-65.35
-76.47
-90.17
-105.59
-121.45
-136.17
-148.12
-155.77
-157.85
-153.46
-142.20
-124.29
-100.64
-72.89
-43.28
-14.31
11.76
33.37
50.01
62.12
70.77
77.12
81.86
85.02
86.12
84.83
81.36
76.76
72.69
70.78
71.81
75.47
80.48
85.33
89.13
91.91
94.57
98.11
102.93
108.46
113.51
116.98
