1589028974.00
64.000000
-0.00
-0.00
-0.00
-0.00
-0.00
-0.00
-0.00
-0.00
-0.00
-0.00
0.00
0.01
0.01
-0.00
-0.03
-0.05
-0.05
0.00
0.13
0.36
0.66
1.01
1.37
1.72
2.06
2.40
2.79
3.24
3.80
4.42
5.06
5.66
6.20
6.68
7.15
7.68
8.31
9.14
10.09
11.04
11.88
12.56
13.14
13.76
14.65
15.96
17.91
20.32
22.90
25.38
27.58
29.57
31.68
34.32
37.81
42.54
48.15
54.10
59.83
64.97
69.58
74.14
79.34
85.71
93.76
103.00
112.62
121.73
129.77
136.75
143.30
150.75
157.77
166.64
177.95
191.79
206.97
220.57
228.25
225.36
208.53
176.87
132.76
80.05
23.07
-34.94
-92.44
-149.16
-205.23
-260.37
-313.74
-363.87
-409.83
-450.91
-486.50
-515.74
-537.23
-549.22
-549.96
-538.37
-514.21
-478.67
-433.88
-382.45
-327.02
-269.84
-212.63
-156.66
-102.95
-52.37
-5.90
35.58
71.43
101.35
125.50
144.38
158.69
169.15
176.37
180.75
182.57
182.07
179.51
175.23
169.65
163.18
156.15
148.81
141.30
133.69
126.02
118.33
110.69
103.16
95.80
88.68
81.83
75.25
68.95
62.95
57.25
51.86
46.78
42.03
37.59
33.45
29.61
26.07
22.81
19.83
17.11
14.67
12.48
10.53
8.83
7.35
6.08
5.00
4.07
3.27
2.58
1.99
1.49
1.08
0.76
0.52
0.35
0.21
0.09
-0.04
-0.17
-0.31
-0.42
-0.50
-0.53
-0.53
-0.52
-0.55
-0.62
-0.74
-0.88
-0.99
-1.04
-1.00
-0.92
-0.88
-0.96
-1.19
-1.57
-2.02
-2.41
-2.63
-2.65
-2.54
-2.47
-2.62
-3.09
-3.88
-4.81
-5.63
-6.14
-6.25
-6.07
-5.88
-6.00
-6.62
-7.74
-9.12
-10.40
-11.25
-11.53
-11.32
-10.91
-10.64
-10.87
-11.86
-13.76
-16.36
-19.00
-20.58
-19.81
-15.74
-8.24
1.71
12.28
21.49
27.93
31.26
32.19
32.04
32.04
33.04
35.20
38.22
41.52
44.43
46.29
46.50
44.83
40.95
34.96
27.22
18.37
9.19
0.48
-7.03
-12.86
-16.93
-19.50
-21.01
-21.89
-22.33
-22.30
-21.70
-20.57
-19.17
-17.87
-16.93
-16.30
-15.69
-14.84
-13.67
-12.51
-11.81
-11.87
-12.70
-13.95
-15.11
-15.75
-15.62
-14.54
-12.34
-8.86
-4.10
1.58
7.38
12.32
15.51
16.52
15.50
13.03
9.79
6.33
2.94
-0.30
-3.34
-6.08
-8.34
-9.96
-10.87
-11.12
-10.90
-10.41
-9.88
-9.52
-9.56
-10.12
-11.21
-12.71
-14.39
-16.03
-17.56
-19.22
-21.25
-23.79
-26.78
-30.01
-33.22
-36.30
-39.18
-41.65
-43.17
-42.73
-39.20
-31.84
-20.76
-7.06
7.58
21.33
32.87
41.55
47.28
50.28
50.80
49.01
45.13
39.47
32.53
24.91
17.23
9.96
3.40
-2.44
-7.84
-13.32
-19.59
-27.30
-36.79
-47.90
-59.87
-71.54
-81.68
-89.30
-93.91
-95.52
-94.61
-91.95
-88.54
-85.29
-82.76
-80.91
-78.92
-75.38
-68.77
-58.13
-43.51
-26.09
-7.67
9.95
25.66
39.20
51.02
61.70
71.48
80.14
87.17
92.13
94.99
96.19
96.43
96.34
96.16
95.68
94.46
92.14
88.65
84.28
79.51
74.62
69.59
64.08
57.69
50.26
42.02
33.53
25.35
17.80
10.71
3.52
-4.37
-13.25
-22.84
-32.20
-40.02
-44.91
-45.86
-42.48
-35.14
-24.91
-13.22
-1.55
9.00
17.84
24.90
30.33
34.33
36.92
38.00
37.50
35.59
32.74
29.54
26.59
24.18
22.29
20.70
19.11
17.31
15.17
12.62
9.52
5.72
1.17
-4.01
-9.43
-14.58
-18.99
-22.46
-25.13
-27.38
-29.58
-32.01
-34.80
-37.95
-41.41
-45.03
-48.49
-51.16
-52.23
-50.85
-46.45
-38.92
-28.68
-16.39
-2.89
11.04
24.46
36.24
45.05
49.66
49.51
45.06
37.81
29.64
21.98
14.95
7.29
-2.91
-17.00
-34.71
-53.71
-70.35
-80.99
-83.51
-78.08
-66.97
-53.47
-40.43
-29.22
-19.45
-9.69
1.50
14.58
28.69
41.87
51.73
55.94
52.50
40.10
18.55
-10.74
-44.59
-78.50
-107.65
-128.42
-139.40
-141.37
-136.36
-126.62
-113.91
-99.47
-84.30
-69.23
-55.04
-42.22
-30.75
-20.18
-9.93
0.15
9.66
17.86
24.58
29.93
34.22
37.75
40.71
43.11
44.71
45.14
44.02
42.48
41.60
41.73
42.32
42.62
42.18
40.89
38.59
34.95
32.20
32.00
34.52
38.58
43.12
48.17
54.40
62.24
71.42
85.45
106.49
133.92
164.36
194.10
221.23
245.75
268.73
291.61
321.12
361.53
411.66
464.99
513.73
552.97
581.77
601.87
580.61
500.87
369.26
214.42
67.06
-54.79
-145.59
-206.87
-243.85
-263.19
-266.27
-254.86
-232.77
-205.92
-179.73
-157.18
-139.03
-126.29
-118.41
-110.31
-97.83
-79.82
-58.49
-37.13
-17.90
-1.44
11.74
21.78
31.70
43.79
58.28
72.99
84.62
89.82
90.89
88.44
83.16
77.00
71.52
67.28
63.74
59.99
55.54
50.47
44.46
37.64
30.67
24.10
18.12
12.46
6.80
1.05
-4.55
-10.12
-15.55
-20.73
-25.70
-30.59
-35.59
-40.81
-46.16
-51.28
-56.04
-60.22
-63.72
-66.72
-69.61
-72.85
-76.79
-81.51
-86.74
-92.29
-97.90
-103.54
-109.43
-116.05
-123.96
-133.70
-145.63
-159.80
-175.72
-192.13
-207.05
-218.15
-223.40
-221.81
-213.85
-201.31
-186.65
-172.13
-159.08
-147.73
-137.53
-127.78
-118.22
-109.15
-101.21
-94.88
-90.24
-86.91
-84.33
-82.10
-80.14
-78.56
-77.42
-76.39
-74.78
-71.75
-66.69
-59.49
-50.57
-41.10
-32.01
-23.60
-15.32
-7.15
0.76
8.14
14.89
21.08
26.45
30.97
34.98
39.21
43.61
48.02
52.30
56.53
60.64
63.19
63.02
59.94
55.24
48.88
40.80
31.24
21.10
11.45
-0.08
-14.62
-30.97
-44.54
-55.53
-65.18
-74.96
-84.93
-94.49
-109.49
-132.45
-160.30
-182.48
-198.26
-209.35
-218.24
-225.13
-229.45
-241.11
-264.93
-296.80
-320.62
-336.09
-346.63
-356.94
-368.53
-382.15
-411.77
-463.10
-527.76
-579.70
-613.53
-630.17
-635.05
-632.63
-542.05
-342.22
-80.59
108.35
222.15
273.83
293.63
292.09
278.42
260.98
233.50
195.15
154.82
155.64
202.22
275.58
347.91
403.38
438.81
447.35
429.08
392.69
358.30
328.01
301.36
277.89
260.15
249.52
238.25
220.26
195.25
171.70
148.36
123.55
97.61
74.03
55.89
41.23
28.15
16.77
10.86
8.31
6.86
5.03
2.90
0.62
-3.03
-8.60
-15.36
-21.04
-25.89
-30.48
-35.19
-39.99
-44.89
-50.05
-55.62
-61.72
-68.24
-75.08
-81.58
-86.41
-87.99
-85.09
-77.26
-65.02
-49.68
-32.85
-15.98
-0.05
14.49
27.44
38.69
48.20
56.06
62.64
68.55
74.35
80.39
86.57
92.43
97.35
100.80
102.43
102.03
99.51
94.80
88.08
79.82
70.76
61.73
53.36
45.97
39.42
33.24
26.81
19.42
10.54
-0.13
-12.42
-25.65
-38.52
-49.37
-56.55
-58.94
-56.38
-49.78
-40.83
-31.37
-22.87
-15.99
-10.70
-6.49
-2.79
0.78
4.39
8.09
11.93
16.01
20.46
25.37
30.70
36.28
41.80
46.85
50.99
53.82
55.11
54.76
52.88
49.59
45.08
39.50
33.05
25.99
18.52
10.77
2.63
-6.09
-15.47
-25.17
-34.24
-41.17
-44.30
-42.37
-35.07
-23.27
-8.78
6.13
19.46
29.97
37.42
42.30
45.40
47.35
48.35
48.29
47.14
45.31
43.88
44.44
48.54
57.20
70.38
86.88
104.60
121.08
134.18
142.63
146.25
145.75
142.33
137.10
130.79
123.52
114.93
104.22
90.31
72.03
48.62
20.23
-11.60
-43.92
-73.05
-95.55
-109.35
-114.25
-111.71
-104.10
-93.88
-82.93
-72.44
-62.96
-54.75
-47.78
-41.82
-36.44
-31.14
-25.51
-19.39
-13.00
-6.80
-1.41
2.60
4.90
5.48
4.62
2.83
0.58
-1.78
-4.19
-6.79
-9.81
-13.50
-17.99
-23.19
-28.87
-34.71
-40.31
-45.35
-49.60
-52.91
-55.14
-56.04
-55.04
-51.28
-43.84
-32.04
-15.96
3.34
24.05
44.00
61.39
75.23
85.32
92.05
95.98
97.58
97.20
95.20
92.02
88.08
83.60
78.44
72.24
64.69
55.82
46.18
36.63
27.97
20.59
14.24
8.26
1.85
-5.49
-13.77
-22.56
-31.17
-39.02
-45.76
-51.27
-55.58
-58.68
-60.53
-61.20
-60.97
-60.39
-60.00
-59.88
-59.38
-57.05
-51.04
-39.82
-22.79
-0.60
25.03
51.83
77.52
100.22
118.56
131.60
138.87
140.40
136.81
129.31
119.48
108.88
98.66
89.35
80.89
72.70
63.97
53.83
41.57
26.76
9.37
-10.23
-31.33
-52.84
-73.38
-91.29
-104.78
-112.24
-112.68
-106.12
-93.72
-77.47
-59.61
-41.96
-25.53
-10.55
3.15
15.84
27.58
38.34
48.19
57.36
66.19
74.75
82.77
89.66
94.76
97.64
98.29
96.99
94.20
90.43
86.38
82.98
81.30
82.12
85.34
89.73
93.19
93.42
88.84
79.08
64.95
47.81
29.04
9.71
-9.36
-27.18
-42.48
-53.74
-59.74
-60.10
-55.58
-48.06
-39.94
-33.45
-29.86
-29.12
-29.91
-30.21
-28.06
-22.33
-13.09
-1.61
10.09
19.87
26.03
27.68
24.65
17.27
6.07
-8.40
-25.40
-43.85
-62.17
-78.60
-91.69
-100.81
-106.49
-110.01
-112.86
-115.90
-119.05
-121.41
-121.75
-119.15
-113.35
-104.79
-94.35
-83.06
-71.91
-61.82
-53.59
-47.93
-45.19
-45.11
-46.64
-48.01
-47.08
-41.93
-31.45
-15.77
3.72
24.58
43.91
58.99
68.03
70.64
67.98
62.52
57.19
54.40
55.23
59.10
64.21
68.41
70.10
68.79
64.98
59.62
53.49
46.93
39.85
32.24
24.60
17.94
13.54
12.28
14.26
18.57
23.69
28.15
31.03
32.21
32.27
32.00
32.05
32.60
33.41
34.02
34.19
34.14
34.84
37.84
44.97
57.58
75.93
98.85
123.82
147.62
167.19
180.34
186.00
184.10
175.12
159.67
138.35
111.81
81.12
47.91
14.56
-16.18
-41.63
-59.94
-70.62
-74.64
-74.13
-71.45
-68.46
-66.11
-64.63
-64.20
-65.30
-68.89
-75.73
-85.79
-97.78
-109.49
-118.58
-123.53
-124.22
-121.76
-117.84
-113.94
-110.76
-108.11
-105.22
-101.14
-95.19
-87.26
-77.81
-67.77
-58.16
-49.92
-43.66
-39.68
-38.05
-38.68
-41.25
-44.99
-48.64
-50.59
-49.41
-44.37
-35.98
-25.73
-15.68
-7.62
-2.55
-0.46
-0.75
-2.67
-5.82
-10.19
-15.96
-23.14
-31.30
-39.69
-47.44
-53.92
-58.97
-62.79
-65.78
-68.26
-70.19
-71.20
-70.68
-68.01
-62.72
-54.71
-44.29
-32.23
-19.62
-7.66
2.61
10.70
16.71
21.29
25.26
29.22
33.28
37.07
40.02
41.79
42.61
43.36
45.27
49.41
56.24
65.23
75.04
83.85
89.87
91.90
89.56
83.26
74.03
63.24
52.26
42.23
33.82
27.10
21.52
16.04
9.43
0.65
-10.71
-24.19
-38.40
-51.24
-60.41
-64.06
-61.25
-52.29
-38.67
-22.66
-6.81
6.69
16.47
22.14
24.25
23.93
22.56
21.37
21.18
22.29
24.52
27.25
29.65
30.87
30.32
27.90
24.13
20.00
16.56
14.50
13.79
13.70
13.16
11.18
7.29
1.71
-4.87
-11.52
-17.43
-22.15
-25.65
-28.28
-30.65
-33.33
-36.68
-40.57
-44.35
-47.04
-47.71
-45.83
-41.56
-35.61
-28.99
-22.64
-17.26
-13.22
-10.66
-9.61
-9.99
-11.51
-13.60
-15.51
-16.42
-15.64
-12.66
-7.20
0.86
11.54
24.59
39.33
54.54
68.63
80.07
87.95
92.31
94.13
94.90
95.85
97.40
98.85
98.56
94.60
85.31
69.88
48.50
22.48
-5.94
-33.82
-58.02
-75.82
-85.46
-86.58
-80.10
-67.90
-52.28
-35.84
-20.66
-8.44
-0.73
1.43
-2.19
-10.75
-22.31
-34.36
-44.53
-51.25
-54.24
-54.32
-52.89
-51.27
-50.21
-49.87
-50.00
-50.31
-50.75
-51.57
-53.12
-55.52
-58.56
-61.77
-64.78
-67.55
-70.51
-74.28
-79.26
-85.24
-91.23
-95.58
-96.54
-92.82
-84.12
-71.19
-55.57
-39.04
-23.04
-8.32
5.04
17.35
28.89
39.65
49.32
57.46
63.79
68.22
70.94
72.22
72.36
71.63
70.31
68.82
67.54
66.82
66.67
66.66
65.94
63.46
58.48
51.03
42.21
34.09
29.05
28.77
33.36
41.08
48.85
53.40
52.55
45.89
34.83
21.88
9.78
0.72
-3.96
-3.95
0.14
6.97
14.69
21.52
26.16
28.18
27.97
26.34
24.06
21.44
18.39
14.57
9.76
3.96
-2.59
-9.48
-16.30
-22.62
-28.03
-32.06
-34.32
-34.52
-32.67
-29.20
-24.93
-20.95
-18.35
-17.85
-19.69
-23.59
-28.94
-35.07
-41.51
-48.10
-55.03
-62.59
-71.00
-80.05
-89.00
-96.65
-101.61
-102.81
-99.82
-93.00
-83.32
-71.89
-59.58
-46.87
-33.90
-20.80
-7.94
3.98
14.10
21.73
26.60
29.06
29.87
29.95
29.96
30.12
30.18
29.77
28.63
26.86
24.88
23.10
21.66
20.19
17.94
14.14
8.35
0.72
-8.01
-16.88
-25.09
-32.34
-38.96
-45.74
-53.57
-63.08
-74.38
-86.94
-99.63
-110.94
-119.13
-122.65
-120.52
-112.68
-100.07
-84.51
-68.13
-52.89
-40.05
-30.09
-22.85
-17.73
-13.80
-9.86
-4.48
3.78
15.98
32.36
52.08
73.43
94.29
112.72
127.43
137.85
144.09
146.64
146.13
143.25
138.56
132.49
125.28
117.04
107.92
98.18
88.33
78.88
70.14
61.93
53.57
44.07
32.41
17.92
0.48
-19.32
-40.29
-60.67
-78.42
-91.54
-98.48
-98.61
-92.30
-80.79
-65.72
-48.56
-30.32
-11.50
7.49
26.08
43.25
57.79
68.60
75.15
77.67
77.01
74.38
71.01
67.94
65.95
65.47
66.51
68.59
70.71
71.59
69.93
64.80
55.87
43.51
28.67
12.63
-3.27
-17.83
-30.29
-40.43
-48.58
-55.50
-62.08
-69.04
-76.69
-84.70
-92.15
-97.64
-99.53
-96.43
-87.58
-73.28
-54.83
-34.27
-13.80
4.80
20.43
32.66
41.48
46.98
49.30
48.76
45.95
41.84
37.52
33.90
31.38
29.76
28.40
26.49
23.43
19.05
13.62
7.70
1.83
-3.62
-8.63
-13.40
-18.17
-23.06
-27.89
-32.30
-35.85
-38.33
-39.82
-40.83
-42.12
-44.48
-48.51
-54.31
-61.23
-67.94
-72.64
-73.62
-69.82
-61.18
-48.64
-33.71
-18.01
-2.72
11.44
24.10
34.98
43.75
50.18
54.28
56.50
57.59
58.35
59.33
60.57
61.71
62.10
61.23
58.88
55.27
50.90
46.41
42.24
38.51
35.06
31.55
27.64
23.13
18.03
12.47
6.64
0.67
-5.41
-11.65
-18.23
-25.39
-33.40
-42.38
-52.17
-62.11
-71.05
-77.51
-80.07
-77.86
-70.83
-59.90
-46.65
-32.78
-19.59
-7.71
2.82
12.15
20.27
26.90
31.66
34.36
35.24
34.98
34.36
33.99
34.02
34.20
34.09
33.35
31.92
29.94
27.66
25.18
22.40
19.06
14.88
9.75
3.86
-2.34
-8.37
-13.93
-19.09
-24.34
-30.34
-37.55
-45.85
-54.34
-61.48
-65.52
-65.12
-59.76
-50.00
-37.20
-23.01
-8.76
5.01
18.64
32.96
48.79
66.14
83.76
99.19
109.34
111.42
103.95
87.41
64.19
37.97
12.71
-8.27
-22.95
-30.83
-32.76
-30.57
-26.59
-23.00
-21.37
-22.26
-25.20
-28.96
-32.06
-33.26
-31.96
-28.29
-23.06
-17.60
-13.44
-11.91
-13.68
-18.41
-24.68
-30.36
-33.19
-31.59
-25.09
-14.34
-0.85
13.60
27.38
39.26
48.51
54.84
58.34
59.43
58.72
56.92
54.68
52.40
50.24
48.12
45.88
43.39
40.57
37.44
34.06
30.49
26.70
22.54
17.79
12.19
5.64
-1.81
-9.81
-17.87
-25.49
-32.41
-38.79
-45.15
-52.25
-60.73
-70.79
-81.96
-93.05
-102.34
-107.97
-108.43
-103.08
-92.32
-77.47
-60.38
-42.85
-26.24
-11.26
1.85
13.10
22.54
30.09
35.73
39.54
41.85
43.16
43.94
44.48
44.83
44.83
44.27
43.06
41.24
38.99
36.49
33.78
30.66
26.82
21.97
15.96
8.95
1.28
-6.59
-14.28
-21.63
-28.73
-35.93
-43.72
-52.53
-62.47
-72.99
-82.76
-89.83
-92.27
-88.85
-79.65
-65.99
-49.97
-33.62
-18.29
-4.42
8.09
19.39
29.32
37.36
43.06
46.32
47.62
47.80
47.76
48.01
48.57
49.04
48.97
48.06
46.37
44.07
41.35
38.17
34.26
29.29
23.15
16.04
8.47
1.02
-5.90
-12.15
-17.99
-23.82
-30.15
-37.41
-45.88
-55.48
-65.73
-75.64
-83.78
-88.58
-88.69
-83.51
-73.34
-59.38
-43.30
-26.84
-11.26
2.80
15.26
26.29
36.03
44.42
51.22
56.22
59.40
60.99
61.44
61.26
60.78
60.15
59.27
58.00
56.24
54.05
51.53
48.77
45.65
41.83
36.85
30.45
22.70
14.17
5.80
-1.48
-7.10
-11.19
-14.50
-18.20
-23.36
-30.70
-40.12
-50.77
-61.14
-69.39
-73.86
-73.40
-67.82
-57.76
-44.60
-29.94
-15.14
-1.11
11.74
23.21
33.04
40.88
46.36
49.38
50.28
49.77
48.69
47.62
46.77
45.89
44.52
42.33
39.28
35.69
31.99
28.49
25.13
21.49
17.03
11.34
4.36
-3.53
-11.69
-19.49
-26.64
-33.23
-39.69
-46.59
-54.40
-63.29
-72.96
-82.59
-90.92
-96.43
-97.74
-94.02
-85.25
-72.25
-56.43
-39.35
-22.38
-6.40
8.13
21.02
32.16
41.43
48.70
53.99
57.37
59.08
59.47
58.95
57.90
56.63
55.35
54.05
52.59
50.69
48.02
44.32
39.47
33.51
26.63
19.12
11.30
3.48
-4.05
-11.04
-17.38
-23.15
-28.80
-35.00
-42.54
-51.92
-62.89
-74.28
-84.06
-89.94
-90.15
-84.07
-72.45
-57.10
-40.16
-23.39
-7.77
6.36
19.03
30.11
39.24
45.91
49.85
51.32
51.05
50.06
49.17
48.70
48.41
47.70
46.00
43.17
39.63
36.17
33.54
32.02
31.19
30.09
27.69
23.39
17.27
10.05
2.68
-4.10
-10.01
-15.33
-20.59
-26.40
-33.27
-41.44
-50.90
-61.13
-71.11
-79.34
-84.16
-84.20
-78.86
-68.53
-54.49
-38.45
-22.11
-6.71
7.06
18.95
28.85
36.69
42.36
45.89
47.58
48.00
47.87
47.74
47.81
47.86
47.45
46.23
44.20
41.73
39.33
37.33
35.64
33.76
30.98
26.78
21.11
14.39
7.30
0.58
-5.35
-10.46
-15.11
-19.89
-25.48
-32.50
-41.34
-51.91
-63.41
-74.29
-82.51
-86.17
-84.17
-76.66
-64.90
-50.77
-36.02
-21.78
-8.42
4.07
15.61
25.77
33.82
39.11
41.52
41.68
40.72
39.88
39.99
41.13
42.76
44.09
44.48
43.80
42.36
40.63
38.94
37.20
35.03
31.92
27.57
21.98
15.44
8.41
1.32
-5.56
-12.16
-18.61
-25.18
-32.19
-39.97
-48.69
-58.20
-67.94
-76.77
-83.19
-85.62
-82.93
-74.88
-62.30
-46.81
-30.35
-14.52
-0.20
12.41
23.47
33.10
41.12
47.09
50.65
51.79
51.08
49.53
48.17
47.70
48.14
48.91
49.19
48.34
46.29
43.43
40.36
37.53
34.87
31.90
27.89
22.36
15.29
7.23
-1.01
-8.60
-15.13
-20.64
-25.63
-30.86
-37.05
-44.72
-53.93
-64.28
-74.79
-83.98
-90.11
-91.60
-87.45
-77.71
-63.50
-46.72
-29.48
-13.53
0.14
11.29
20.18
27.18
32.54
36.33
38.64
39.68
39.82
39.55
39.27
39.11
38.93
38.41
37.28
35.51
33.38
31.30
29.59
28.20
26.70
24.44
20.84
15.72
9.35
2.33
-4.66
-11.17
-17.14
-22.82
-28.62
-34.92
-41.96
-49.87
-58.58
-67.74
-76.58
-83.87
-88.06
-87.78
-82.30
-71.82
-57.53
-41.16
-24.45
-8.68
5.46
17.71
27.89
35.76
41.13
44.03
44.95
44.77
44.47
44.84
46.12
48.06
50.07
51.53
52.03
51.46
49.97
47.77
45.04
41.82
37.98
33.27
27.43
20.37
12.23
3.45
-5.37
-13.71
-21.29
-28.20
-34.71
-41.24
-48.13
-55.59
-63.68
-72.20
-80.55
-87.66
-92.09
-92.38
-87.58
-77.64
-63.59
-47.14
-30.19
-14.27
-0.24
11.65
21.45
29.25
35.11
39.10
41.53
42.99
44.25
45.92
48.22
50.85
53.12
54.34
54.09
52.52
50.14
47.58
45.20
42.93
40.28
36.66
31.71
25.49
18.52
11.54
5.19
-0.20
-4.83
-9.24
-14.13
-20.11
-27.43
-36.02
-45.40
-54.81
-63.19
-69.19
-71.49
-69.11
-61.78
-50.12
-35.53
-19.79
-4.62
8.79
19.80
28.24
34.23
37.94
39.68
39.88
39.12
38.03
37.14
36.72
36.74
36.90
36.80
36.09
34.67
32.64
30.27
27.74
25.02
21.83
17.75
12.52
6.18
-0.84
-7.89
-14.33
-19.83
-24.44
-28.50
-32.49
-36.92
-42.20
-48.52
-55.70
-63.01
-69.17
-72.56
-71.77
-66.07
-55.83
-42.31
-27.26
-12.36
1.20
12.78
22.08
28.95
33.33
35.31
35.27
33.93
32.18
30.85
30.44
31.09
32.52
34.23
35.64
36.31
36.04
34.85
32.94
30.43
27.30
23.36
18.36
12.21
5.16
-2.29
-9.55
-16.09
-21.77
-26.82
-31.83
-37.54
-44.60
-53.28
-63.17
-73.14
-81.52
-86.50
-86.74
-81.69
-71.79
-58.24
-42.60
-26.38
-10.74
3.51
15.86
25.94
33.50
38.37
40.51
40.00
37.09
32.21
25.96
19.07
12.20
5.91
0.57
-3.66
-6.71
-8.62
-9.46
-9.53
-9.38
-9.88
-12.03
-16.60
-23.79
-33.07
-43.35
-53.36
-62.24
-69.79
-76.53
-83.28
-90.65
-98.53
-105.87
-110.80
-111.15
-105.02
-91.26
-69.68
-41.25
-7.92
27.55
62.01
92.46
116.63
133.50
143.32
147.38
147.34
144.70
140.49
135.24
129.26
122.94
116.71
110.89
105.58
100.51
95.20
89.23
82.35
74.57
66.07
57.12
47.95
38.73
29.53
20.45
11.58
3.01
-5.31
-13.62
-22.45
-32.49
-44.28
-57.82
-72.22
-85.66
-95.85
-100.74
-99.24
-91.71
-79.76
-65.68
-51.73
-39.47
-29.63
-22.20
-16.80
-12.90
-9.99
-7.61
-5.37
-3.05
-0.57
1.90
4.15
6.00
7.42
8.55
9.62
10.76
11.95
12.95
13.38
12.82
11.01
7.95
3.93
-0.50
-4.80
-8.59
-11.89
-15.15
-19.15
-24.70
-32.28
-41.69
-51.83
-60.87
-66.69
-67.47
-62.38
-51.77
-37.15
-20.61
-4.25
10.36
22.32
31.36
37.53
41.06
42.36
42.02
40.75
39.24
37.96
37.03
36.28
35.38
34.18
32.69
31.15
29.82
28.78
27.82
26.55
24.47
21.23
16.75
11.13
4.69
-2.23
-9.24
-16.04
-22.43
-28.36
-34.06
-39.88
-46.21
-53.05
-59.78
-65.17
-67.68
-66.11
-60.12
-50.54
-38.99
-27.41
-17.33
-9.61
-4.43
-1.59
-0.80
-1.72
-3.91
-6.72
-9.39
-11.21
-11.77
-11.17
-9.83
-8.43
-7.52
-7.41
-8.04
-9.08
-10.03
-10.47
-10.12
-8.99
-7.29
-5.34
-3.36
-1.42
0.54
2.45
3.94
4.21
2.36
-2.24
-9.44
-18.04
-26.06
-31.36
-32.38
-28.67
-21.01
-10.92
-0.03
10.66
20.97
31.40
42.68
55.18
68.66
82.31
95.13
106.39
115.87
123.96
131.31
138.50
145.72
152.66
158.62
162.72
164.08
161.98
155.84
145.15
129.58
108.97
83.51
53.81
20.95
-13.60
-48.19
-81.28
-111.64
-138.45
-161.14
-179.22
-192.17
-199.52
-201.10
-197.25
-188.84
-177.09
-163.16
-147.84
-131.52
-114.31
-96.45
-78.41
-61.00
-45.07
-31.18
-19.52
-9.78
-1.40
6.22
13.48
20.48
27.00
32.63
36.88
39.37
39.93
38.63
35.81
31.93
27.54
23.19
19.22
15.77
12.71
9.65
6.13
1.70
-3.80
-10.10
-16.33
-21.21
-23.19
-20.94
-13.63
-1.17
15.79
36.03
58.07
80.34
101.40
119.96
134.93
145.46
151.07
151.74
147.91
140.43
130.34
118.68
106.40
94.14
82.20
70.60
59.13
47.54
35.74
23.89
12.43
1.94
-7.09
-14.46
-20.34
-25.17
-29.55
-34.01
-39.02
-44.98
-52.23
-61.01
-71.14
-81.76
-91.27
-97.65
-99.03
-94.53
-84.60
-70.96
-55.93
-41.70
-29.71
-20.48
-13.87
-9.41
-6.63
-5.06
-4.22
-3.57
-2.67
-1.25
0.59
2.53
4.17
5.21
5.64
5.60
5.27
4.73
3.85
2.31
-0.22
-3.94
-8.77
-14.34
-20.12
-25.65
-30.70
-35.36
-39.98
-45.10
-51.12
-58.27
-66.23
-74.12
-80.56
-83.89
-82.79
-76.72
-66.30
-53.12
-39.22
-26.25
-15.00
-5.39
3.17
11.18
18.71
25.31
30.32
33.20
33.88
32.75
30.56
28.16
26.27
25.32
25.32
25.95
26.69
26.96
26.26
24.26
20.85
16.19
10.80
5.59
1.67
0.09
1.27
4.60
8.32
9.95
7.07
-1.62
-15.74
-33.17
-50.79
-65.42
-74.83
-78.19
-75.87
-68.92
-58.49
-45.52
-30.80
-15.15
0.50
15.16
27.98
38.47
46.43
51.85
54.73
54.97
52.47
47.45
40.64
33.38
27.40
24.20
24.53
27.99
33.07
37.69
39.91
38.67
34.08
27.20
19.47
12.16
5.97
1.00
-2.97
-6.32
-9.45
-12.91
-17.54
-24.32
-33.93
-46.24
-59.89
-72.44
-81.03
-83.32
-78.37
-66.86
-50.80
-32.73
-14.87
1.40
15.60
27.80
38.28
47.08
54.02
58.79
61.28
61.73
60.81
59.55
58.96
59.78
62.26
66.03
70.24
73.83
75.76
75.36
72.33
66.73
58.83
48.97
37.62
25.49
13.56
3.04
-5.08
-10.44
-13.56
-15.80
-18.84
-24.11
-32.33
-43.30
-55.98
-68.65
-79.22
-85.62
-86.25
-80.44
-68.74
-52.80
-34.86
-17.08
-0.99
12.71
23.98
33.00
39.93
44.92
48.16
50.06
51.13
51.82
52.32
52.52
52.17
51.10
49.31
46.97
44.27
41.26
37.86
33.88
29.21
23.91
18.23
12.57
7.27
2.48
-1.98
-6.55
-11.82
-18.31
-26.31
-35.72
-46.07
-56.50
-65.81
-72.63
-75.61
-73.83
-67.03
-55.91
-41.91
-26.78
-12.14
0.95
12.04
21.10
28.23
33.56
37.16
39.17
39.87
39.66
38.97
38.12
37.33
36.59
35.78
34.69
33.12
30.94
28.11
24.74
20.91
16.65
11.86
6.46
0.45
-5.93
-12.31
-18.35
-24.00
-29.61
-35.81
-43.14
-51.60
-60.40
-68.00
-72.55
-72.60
-67.62
-58.19
-45.82
-32.30
-19.17
-7.30
3.06
12.05
19.79
26.17
30.91
33.78
34.77
34.21
32.69
30.78
28.98
27.60
26.74
26.30
25.93
25.13
23.36
20.30
15.97
10.72
5.07
-0.57
-6.08
-11.58
-17.38
-23.79
-31.16
-39.82
-50.00
-61.60
-73.87
-85.25
-93.66
-97.09
-94.35
-85.60
-72.29
-56.63
-40.81
-26.30
-13.58
-2.44
7.62
16.82
25.00
31.67
36.42
39.18
40.30
40.41
40.08
39.62
39.03
38.12
36.72
34.72
32.13
29.00
25.29
21.01
16.22
11.08
5.76
0.40
-5.07
-10.80
-17.08
-24.21
-32.43
-41.81
-51.97
-61.99
-70.32
-75.21
-75.19
-69.67
-59.15
-45.11
-29.44
-13.81
0.66
13.51
24.66
34.16
41.93
47.84
51.79
53.83
54.19
53.31
51.69
49.84
48.09
46.58
45.20
43.68
41.74
39.20
35.98
32.11
27.66
22.69
17.28
11.49
5.41
-0.92
-7.53
-14.58
-22.33
-31.01
-40.59
-50.54
-59.61
-65.98
-67.73
-63.52
-53.14
-37.74
-19.48
-0.78
16.34
30.74
41.98
50.05
55.05
57.08
56.44
53.64
49.46
44.65
39.69
34.69
29.56
24.21
18.79
13.65
9.11
5.31
2.01
-1.20
-4.75
-8.92
-13.73
-19.01
-24.46
-29.79
-34.73
-39.24
-43.43
-47.78
-52.95
-59.66
-68.31
-78.65
-89.61
-99.45
-106.14
-107.98
-104.15
-94.87
-81.31
-65.20
-48.31
-32.02
-17.24
-4.36
6.58
15.70
23.24
29.43
34.43
38.40
41.51
44.04
46.37
48.87
51.78
55.17
58.98
63.18
67.94
73.54
80.21
87.77
95.47
102.01
106.05
106.62
103.41
96.79
87.47
76.12
63.11
48.50
32.22
14.34
-4.69
-23.97
-42.25
-58.14
-70.43
-78.38
-82.02
-82.06
-79.77
-76.48
-73.22
-70.36
-67.75
-64.90
-61.47
-57.47
-53.22
-49.15
-45.57
-42.48
-39.72
-37.11
-34.55
-31.93
-29.02
-25.38
-20.46
-13.96
-6.13
2.18
9.71
15.33
18.44
19.20
18.43
17.14
16.13
15.74
15.74
15.65
14.94
13.34
10.81
7.40
3.15
-1.97
-7.89
-14.15
-19.75
-23.21
-23.08
-18.56
-9.88
1.78
14.93
28.50
42.30
56.66
71.83
87.19
101.24
112.26
119.21
122.48
123.59
124.33
125.71
127.46
128.36
127.17
123.34
117.15
109.26
99.88
88.53
74.26
56.48
35.70
13.76
-6.63
-22.85
-33.14
-37.23
-36.24
-32.38
-28.29
-26.53
-29.02
-36.77
-49.59
-66.20
-84.48
-101.88
-115.93
-124.71
-127.18
-123.25
-113.71
-100.06
-84.11
-67.77
-52.69
-40.03
-30.40
-23.80
-19.72
-17.33
-15.68
-13.88
-11.32
-7.83
-3.64
0.68
4.43
7.05
8.33
8.51
8.23
8.19
8.94
10.52
12.50
14.08
14.41
12.93
9.53
4.64
-1.01
-6.69
-11.95
-16.85
-21.91
-27.88
-35.42
-44.67
-55.06
-65.30
-73.68
-78.53
-78.70
-73.90
-64.76
-52.69
-39.49
-26.80
-15.73
-6.70
0.50
6.30
11.07
14.97
17.98
20.17
21.77
23.15
24.59
26.07
27.28
27.73
27.19
25.76
23.95
22.41
21.61
21.67
22.26
22.91
23.11
22.68
21.76
20.82
20.36
20.64
21.39
21.70
20.21
15.56
6.94
-5.36
-19.81
-33.85
-44.42
-48.87
-45.61
-34.58
-17.19
4.06
26.38
47.31
65.24
79.40
89.72
96.48
100.09
100.88
99.11
94.89
88.28
79.32
68.15
55.10
40.69
25.64
10.65
-3.65
-16.83
-28.68
-39.18
-48.52
-56.98
-64.88
-72.36
-79.22
-84.91
-88.67
-89.92
-88.66
-85.55
-81.83
-78.85
-77.68
-78.58
-81.00
-83.54
-84.43
-82.00
-75.16
-63.76
-48.63
-31.36
-13.78
2.40
16.03
26.52
33.76
38.01
39.81
39.87
39.04
38.05
37.40
37.25
37.49
37.94
38.45
38.99
39.52
39.92
39.98
39.45
38.27
36.57
34.65
32.77
31.00
29.21
27.26
25.24
23.62
23.10
24.35
27.61
32.48
38.02
43.12
46.92
49.06
49.72
49.32
48.35
47.15
46.08
45.44
45.41
45.80
45.74
43.72
38.04
27.51
12.05
-7.09
-27.72
-47.43
-64.32
-77.42
-86.75
-93.07
-97.46
-100.99
-104.44
-108.12
-111.79
-114.87
-116.57
-116.22
-113.47
-108.39
-101.46
-93.41
-85.21
-77.91
-72.60
-70.16
-70.92
-74.29
-78.72
-81.90
-81.48
-75.86
-64.78
-49.35
-31.65
-13.84
2.48
16.55
28.32
38.06
45.99
52.19
56.67
59.52
60.96
61.31
60.90
60.07
59.12
58.31
57.79
57.48
57.11
56.34
54.86
52.51
49.14
44.57
38.59
31.13
22.55
13.71
5.71
-0.60
-5.19
-8.93
-13.34
-19.79
-28.73
-39.27
-49.48
-56.99
-59.93
-57.45
-49.95
-38.64
-25.10
-10.76
3.37
16.62
28.64
39.13
47.87
54.69
59.66
63.05
65.33
66.99
68.33
69.35
69.81
69.42
68.05
65.90
63.42
61.10
59.20
57.56
55.60
52.63
48.13
42.04
34.86
27.44
20.58
14.69
9.61
4.63
-1.15
-8.47
-17.68
-28.51
-40.20
-51.52
-61.05
-67.32
-69.15
-65.96
-57.97
-46.25
-32.43
-18.27
-5.13
6.22
15.60
23.13
28.98
33.30
36.23
38.02
39.04
39.67
40.14
40.45
40.45
39.97
38.98
37.64
36.20
34.88
33.70
32.43
30.65
27.86
23.73
18.19
11.54
4.28
-3.01
-9.99
-16.66
-23.38
-30.68
-39.07
-48.70
-59.21
-69.57
-78.24
-83.53
-83.97
-78.89
-68.66
-54.64
-38.68
-22.65
-7.92
4.83
15.43
23.93
30.34
34.59
36.73
37.11
36.46
35.68
35.47
36.08
37.18
38.10
38.18
37.14
35.25
33.07
31.10
29.43
27.61
24.90
20.68
14.84
7.96
1.05
-4.81
-9.01
-11.62
-13.40
-15.42
-18.71
-23.93
-31.05
-39.28
-47.03
-52.06
-52.00
-45.09
-30.91
-10.81
12.31
34.93
54.09
68.26
77.64
83.46
87.08
89.13
89.19
86.27
79.50
68.72
54.72
38.96
23.13
8.65
-3.58
-13.22
-20.41
-25.57
-29.30
-32.22
-34.83
-37.48
-40.37
-43.56
-47.07
-50.87
-54.81
-58.59
-61.79
-63.98
-65.07
-65.38
-65.72
-67.14
-70.48
-75.92
-82.67
-89.01
-92.82
-92.24
-86.32
-75.42
-61.03
-45.13
-29.52
-15.17
-2.08
10.39
23.00
35.99
48.92
60.78
70.43
77.14
80.85
82.32
82.96
84.37
87.98
94.55
103.86
114.73
125.25
133.35
137.44
136.83
131.72
122.85
110.99
96.62
79.85
60.72
39.49
16.80
-6.44
-29.28
-50.93
-70.75
-88.26
-103.10
-115.11
-124.48
-131.61
-136.91
-140.35
-141.34
-138.93
-132.39
-121.68
-107.74
-92.13
-76.49
-61.93
-48.91
-37.39
-27.21
-18.40
-11.11
-5.43
-1.16
2.22
5.35
8.78
12.69
16.83
20.65
23.53
25.12
25.51
25.31
25.34
26.28
28.22
30.47
31.84
31.13
27.85
22.57
16.82
12.48
11.06
12.95
17.34
22.44
26.14
26.52
22.41
13.56
0.71
-14.62
-30.29
-43.95
-53.54
-57.75
-56.34
-50.15
-40.72
-29.77
-18.64
-7.98
2.15
12.13
22.39
33.24
44.84
57.22
70.23
83.41
95.85
106.17
112.79
114.42
110.53
101.56
88.73
73.51
57.14
40.37
23.57
7.07
-8.51
-22.27
-33.22
-40.74
-45.09
-47.40
-49.40
-52.77
-58.56
-66.80
-76.74
-87.28
-97.48
-106.78
-114.85
-121.21
-124.92
-124.76
-119.66
-109.34
-94.63
-77.25
-59.22
-42.17
-26.93
-13.59
-2.00
7.89
15.75
21.12
23.91
24.65
24.50
24.77
26.38
29.39
33.09
36.35
38.30
38.66
37.82
36.55
35.48
34.78
34.10
32.89
30.64
27.21
22.83
17.92
12.80
7.52
1.90
-4.32
-11.25
-18.82
-26.89
-35.26
-43.77
-51.97
-58.99
-63.60
-64.49
-60.85
-52.80
-41.44
-28.38
-15.19
-2.77
8.65
19.37
29.66
39.48
48.39
55.84
61.38
64.87
66.52
66.80
66.23
65.24
64.06
62.70
61.01
58.79
55.93
52.49
48.68
44.67
40.55
36.15
31.12
25.20
18.34
10.81
3.19
-3.91
-10.10
-15.46
-20.42
-25.73
-32.06
-39.81
-48.92
-58.89
-68.87
-77.78
-84.45
-87.78
-86.96
-81.58
-71.91
-58.85
-43.79
-28.26
-13.51
-0.29
11.22
21.13
29.57
36.51
41.76
45.25
47.12
47.82
47.93
47.88
47.85
47.72
47.30
46.48
45.32
43.97
42.50
40.80
38.63
35.70
31.80
26.93
21.18
14.81
8.10
1.37
-5.09
-11.09
-16.66
-22.03
-27.56
-33.70
-40.79
-48.95
-57.94
-67.05
-75.17
-80.90
-82.94
-80.42
-73.30
-62.38
-49.04
-34.86
-21.12
-8.61
2.38
11.79
19.63
25.85
30.44
33.51
35.42
36.70
37.86
39.18
40.61
41.85
42.51
42.34
41.33
39.73
37.91
36.17
34.54
32.77
30.39
26.95
22.16
16.11
9.18
1.96
-4.98
-11.31
-17.00
-22.39
-28.08
-34.74
-42.83
-52.51
-63.26
-73.89
-82.71
-87.95
-88.29
-83.31
-73.59
-60.43
-45.46
-30.11
-15.38
-1.84
10.15
20.32
28.47
34.54
38.73
41.47
43.35
44.91
46.49
48.12
49.57
50.47
50.47
49.40
47.42
44.94
42.43
40.18
38.12
35.80
32.54
27.75
21.18
13.07
4.07
-5.00
-13.38
-20.61
-26.60
-31.62
-36.21
-41.08
-46.94
-54.25
-62.85
-71.68
-78.83
-81.90
-78.79
-68.46
-51.42
-29.69
-6.15
16.32
35.57
50.46
60.69
66.44
67.96
65.54
59.62
51.04
41.18
31.68
24.18
19.75
18.53
19.72
21.96
23.92
24.79
24.52
23.58
22.55
21.75
21.03
19.95
18.06
15.15
11.34
7.03
2.64
-1.47
-5.16
-8.51
-11.66
-14.81
-18.11
-21.66
-25.64
-30.26
-35.63
-41.56
-47.23
-51.23
-51.78
-47.20
-36.47
-19.56
2.49
27.74
53.70
77.82
97.80
112.04
119.83
121.44
117.89
110.70
101.32
90.84
79.76
68.06
55.47
41.79
27.14
11.99
-2.90
-16.82
-29.27
-40.15
-49.69
-58.37
-66.74
-75.23
-83.95
-92.68
-100.89
-107.93
-113.30
-116.92
-119.21
-120.94
-122.97
-125.90
-129.76
-134.02
-137.60
-139.14
-137.21
-130.68
-119.10
-102.88
-83.29
-62.05
-40.92
-21.16
-3.42
12.21
25.81
37.37
46.76
53.81
58.60
61.52
63.23
64.40
65.43
66.41
67.15
67.32
66.76
65.48
63.69
61.61
59.34
56.74
53.56
49.53
44.63
39.18
33.69
28.78
24.92
22.36
21.16
21.31
22.75
25.29
28.52
31.67
33.81
34.17
32.42
28.87
24.32
19.70
15.69
12.49
9.86
7.42
4.98
2.59
0.49
-1.17
-2.52
-3.94
-5.85
-8.42
-11.42
-14.27
-16.34
-17.15
-16.65
-15.14
-13.01
-10.53
-7.65
-4.02
0.68
6.49
13.00
19.38
24.81
28.77
31.32
33.07
34.82
37.12
39.96
42.68
44.17
43.24
38.88
30.49
17.95
1.64
-17.39
-37.53
-56.58
-72.21
-82.40
-86.11
-83.53
-76.13
-66.16
-55.99
-47.41
-41.25
-37.34
-34.85
-32.79
-30.39
-27.37
-23.86
-20.26
-16.90
-13.97
-11.41
-9.05
-6.75
-4.45
-2.21
-0.15
1.61
3.02
4.06
4.71
4.89
4.37
2.90
0.34
-3.21
-7.32
-11.34
-14.69
-17.08
-18.73
-20.35
-22.84
-26.90
-32.64
-39.35
-45.55
-49.30
-48.66
-42.27
-29.71
-11.71
9.97
33.01
55.00
73.89
88.29
97.47
101.33
100.25
95.01
86.65
76.30
64.99
53.38
41.71
29.80
17.42
4.61
-8.07
-19.53
-28.46
-33.80
-35.23
-33.29
-29.21
-24.47
-20.35
-17.53
-16.14
-15.93
-16.56
-17.83
-19.65
-21.98
-24.68
-27.62
-30.67
-33.69
-36.38
-37.99
-37.28
-32.84
-23.53
-9.05
9.87
31.70
54.59
76.90
97.39
115.14
129.26
138.78
142.73
140.48
132.00
118.00
99.85
79.36
58.45
38.96
22.35
9.42
0.16
-6.18
-10.83
-15.15
-20.17
-26.43
-33.87
-42.02
-50.24
-57.95
-64.76
-70.45
-74.83
-77.68
-78.80
-78.16
-76.14
-73.58
-71.76
-71.94
-74.89
-80.42
-87.22
-93.22
-96.22
-94.58
-87.80
-76.54
-62.23
-46.52
-30.68
-15.39
-0.86
12.83
25.45
36.58
45.70
52.53
57.22
60.35
62.69
64.87
67.16
69.36
71.05
71.83
71.52
70.19
68.19
66.05
64.39
63.84
64.89
67.66
71.77
76.44
80.59
83.22
83.68
81.76
77.51
71.00
62.06
50.36
35.51
17.44
-3.46
-26.23
-49.40
-71.18
-89.65
-103.16
-110.58
-111.71
-107.30
-98.93
-88.53
-77.91
-68.26
-60.01
-53.00
-46.74
-40.76
-34.75
-28.59
-22.28
-15.90
-9.58
-3.53
1.97
6.61
10.18
12.65
14.21
15.23
16.12
17.21
18.60
20.25
22.18
24.64
28.21
33.62
41.33
51.09
61.66
70.95
76.46
75.96
68.14
53.00
31.91
7.33
-17.69
-40.26
-58.15
-70.19
-76.33
-77.41
-74.80
-70.00
-64.29
-58.64
-53.59
-49.33
-45.72
-42.44
-39.13
-35.56
-31.71
-27.79
-24.03
-20.58
-17.42
-14.35
-11.12
-7.57
-3.73
0.26
4.08
7.36
9.77
11.00
10.84
9.24
6.39
2.69
-1.28
-5.03
-8.32
-11.26
-14.31
-18.06
-23.02
-29.46
-37.35
-46.26
-55.41
-63.66
-69.61
-71.92
-69.69
-62.78
-51.93
-38.54
-24.19
-10.16
2.88
14.83
25.84
35.93
44.82
52.01
57.09
60.00
61.22
61.58
61.90
62.69
63.91
65.04
65.38
64.47
62.26
59.18
55.84
52.74
49.90
46.90
43.03
37.74
30.87
22.84
14.39
6.29
-1.01
-7.53
-13.63
-19.81
-26.48
-33.89
-42.08
-50.89
-59.87
-68.21
-74.67
-77.91
-76.85
-71.22
-61.63
-49.47
-36.40
-23.72
-12.10
-1.59
8.06
16.86
24.52
30.43
34.15
35.70
35.68
35.08
34.84
35.40
36.57
37.61
37.75
36.58
34.33
31.75
29.57
28.10
26.98
25.37
22.43
17.82
11.84
5.30
-0.98
-6.62
-11.76
-16.97
-22.85
-29.76
-37.67
-46.30
-55.13
-63.56
-70.75
-75.74
-77.48
-75.15
-68.44
-57.77
-44.17
-29.02
-13.68
0.81
13.83
25.15
34.73
42.62
48.89
53.66
57.15
59.73
61.82
63.78
65.76
67.60
68.93
69.32
68.53
66.73
64.40
62.14
60.28
58.60
56.24
52.00
44.77
34.05
20.20
4.37
-11.91
-27.19
-40.65
-52.21
-62.50
-72.51
-83.06
-94.49
-106.25
-117.04
-125.07
-128.64
-126.70
-119.10
-106.60
-90.44
-72.03
-52.54
-32.92
-13.96
3.60
18.95
31.41
40.63
46.77
50.50
52.81
54.74
56.92
59.48
62.07
64.10
65.07
64.86
63.67
61.96
60.11
58.25
56.18
53.51
49.76
44.61
37.92
29.81
20.65
10.95
1.27
-7.91
-16.27
-23.77
-30.61
-37.23
-44.14
-51.72
-59.76
-67.42
-73.10
-75.02
-71.76
-62.84
-48.92
-31.64
-13.00
5.32
22.26
37.47
50.95
62.77
72.73
80.47
85.58
87.97
87.95
86.08
82.93
78.76
73.50
66.88
58.80
49.63
40.18
31.48
24.31
18.89
14.82
11.22
7.09
1.63
-5.45
-13.95
-23.22
-32.47
-40.98
-48.39
-54.77
-60.53
-66.30
-72.68
-80.06
-88.49
-97.43
-105.78
-111.96
-114.33
-111.63
-103.49
-90.57
-74.37
-56.74
-39.31
-23.20
-8.95
3.25
13.32
21.20
26.93
30.72
33.00
34.33
35.27
36.19
37.28
38.48
39.66
40.61
41.23
41.43
41.18
40.43
39.02
36.72
33.23
28.30
21.87
14.18
5.75
-2.74
-10.66
-17.66
-23.82
-29.59
-35.65
-42.75
-51.38
-61.58
-72.67
-83.31
-91.68
-95.93
-94.68
-87.55
-75.23
-59.32
-41.76
-24.29
-8.05
6.50
19.32
30.47
39.88
47.35
52.71
56.08
57.92
58.96
59.90
61.07
62.33
63.17
63.02
61.65
59.30
56.56
53.98
51.68
49.20
45.70
40.33
32.72
23.18
12.57
1.97
-7.81
-16.36
-23.85
-30.74
-37.60
-44.90
-52.94
-61.80
-71.23
-80.64
-88.84
-94.32
-95.41
-90.91
-80.63
-65.60
-47.82
-29.64
-12.92
1.44
13.55
24.14
33.84
42.82
50.72
56.98
61.26
63.69
64.88
65.55
66.19
66.82
67.07
66.47
64.77
62.13
59.00
55.89
52.99
50.04
46.52
41.91
35.98
28.94
21.28
13.52
6.05
-1.07
-7.95
-14.84
-21.94
-29.43
-37.47
-46.19
-55.61
-65.45
-74.97
-82.92
-87.77
-88.08
-83.08
-72.99
-59.08
-43.15
-27.04
-11.99
1.51
13.51
24.20
33.53
41.11
46.47
49.42
50.31
49.98
49.40
49.30
49.85
50.68
51.20
50.94
49.82
48.09
46.06
43.87
41.34
38.03
33.57
27.85
21.09
13.77
6.38
-0.72
-7.36
-13.62
-19.68
-25.91
-32.75
-40.64
-49.85
-60.29
-71.19
-81.25
-88.76
-92.14
-90.44
-83.66
-72.70
-59.01
-44.03
-28.89
-14.29
-0.65
11.65
22.24
30.78
37.15
41.53
44.38
46.24
47.53
48.49
49.14
49.40
49.16
48.31
46.82
44.74
42.26
39.63
37.02
34.37
31.31
27.31
21.88
14.86
6.58
-2.21
-10.64
-18.03
-24.20
-29.54
-34.81
-40.88
-48.39
-57.58
-68.17
-79.30
-89.63
-97.46
-101.07
-99.19
-91.46
-78.62
-62.31
-44.51
-26.88
-10.38
4.62
18.09
29.93
39.79
47.29
52.28
55.14
56.66
57.71
58.86
60.15
61.17
61.35
60.37
58.28
55.47
52.51
49.83
47.53
45.34
42.74
39.13
34.14
27.73
20.24
12.27
4.45
-2.76
-9.27
-15.29
-21.22
-27.48
-34.41
-42.18
-50.73
-59.70
-68.24
-75.08
-78.71
-77.85
-71.91
-61.31
-47.42
-32.08
-17.00
-3.24
8.89
19.62
29.29
37.97
45.35
50.90
54.29
55.61
55.41
54.48
53.45
52.49
51.36
49.60
46.96
43.57
39.95
36.67
34.09
32.02
29.95
27.13
22.99
17.33
10.40
2.78
-4.84
-11.86
-17.96
-23.18
-27.84
-32.42
-37.51
-43.57
-50.86
-59.25
-68.02
-75.97
-81.51
-83.22
-80.23
-72.63
-61.36
-47.94
-33.91
-20.46
-8.29
2.32
11.32
18.72
24.58
28.96
32.09
34.32
36.16
38.06
40.31
42.91
45.54
47.67
48.77
48.50
46.84
44.12
40.81
37.25
33.55
29.54
24.92
19.42
13.00
5.87
-1.53
-8.61
-14.89
-20.14
-24.50
-28.37
-32.39
-37.03
-42.45
-48.30
-53.67
-57.37
-58.30
-55.76
-49.72
-40.80
-30.03
-18.58
-7.42
2.82
11.82
19.50
25.78
30.54
33.66
35.12
35.17
34.30
33.17
32.35
32.09
32.20
32.18
31.54
30.10
28.13
26.21
24.87
24.19
23.67
22.38
19.32
13.86
6.08
-3.24
-12.88
-21.64
-28.75
-34.11
-38.24
-42.05
-46.43
-52.00
-58.91
-66.81
-74.91
-82.06
-86.87
-87.99
-84.43
-75.90
-63.06
-47.39
-30.77
-14.94
-1.03
10.66
20.38
28.59
35.53
41.16
45.29
47.90
49.37
50.36
51.56
53.27
55.23
56.75
57.08
55.86
53.25
49.85
46.35
43.15
40.19
37.01
33.07
28.00
21.81
14.82
7.53
0.40
-6.27
-12.43
-18.22
-23.89
-29.75
-36.13
-43.39
-51.74
-61.08
-70.65
-79.09
-84.64
-85.69
-81.46
-72.31
-59.67
-45.39
-31.20
-18.07
-6.32
4.17
13.50
21.54
27.94
32.49
35.27
36.81
37.76
38.65
39.61
40.38
40.46
39.45
37.28
34.29
31.05
28.07
25.49
23.03
20.11
16.20
11.11
5.12
-1.17
-7.17
-12.58
-17.49
-22.36
-27.68
-33.91
-41.26
-49.69
-58.85
-67.96
-75.86
-81.18
-82.63
-79.46
-71.69
-60.14
-46.12
-31.10
-16.32
-2.65
9.30
19.19
26.88
32.39
36.04
38.25
39.59
40.52
41.39
42.29
43.09
43.55
43.37
42.37
40.60
38.26
35.65
32.96
30.15
26.89
22.72
17.32
10.68
3.24
-4.28
-11.04
-16.47
-20.45
-23.37
-26.04
-29.40
-34.18
-40.62
-48.23
-55.86
-61.88
-64.71
-63.20
-57.08
-47.01
-34.34
-20.67
-7.47
4.24
13.99
21.73
27.60
31.86
34.70
36.30
36.90
36.74
36.10
35.21
34.14
32.73
30.69
27.71
23.66
18.73
13.38
8.20
3.65
-0.11
-3.26
-6.25
-9.48
-13.10
-16.94
-20.54
-23.39
-25.26
-26.31
-27.15
-28.60
-31.48
-36.31
-43.11
-51.34
-59.92
-67.41
-72.27
-73.20
-69.47
-61.10
-48.82
-33.90
-17.79
-1.84
12.97
25.99
36.97
45.81
52.59
57.49
60.80
62.90
64.20
65.03
65.55
65.70
65.28
64.08
62.03
59.24
55.85
51.96
47.45
42.13
35.83
28.54
20.56
12.32
4.31
-3.12
-9.75
-15.58
-20.72
-25.44
-30.23
-35.67
-42.32
-50.39
-59.36
-67.94
-74.29
-76.58
-73.81
-66.19
-55.15
-42.79
-31.00
-20.85
-12.51
-5.54
0.46
5.52
9.31
11.48
12.04
11.43
10.40
9.56
9.13
8.96
8.73
8.34
8.00
8.16
9.24
11.36
14.19
17.10
19.33
20.28
19.69
17.66
14.57
10.95
7.27
3.83
0.67
-2.45
-6.03
-10.61
-16.64
-24.20
-32.84
-41.50
-48.63
-52.48
-51.57
-45.15
-33.48
-17.71
0.40
19.10
37.10
53.80
69.12
83.15
95.77
106.48
114.57
119.39
120.64
118.48
113.38
105.89
96.44
85.30
72.70
58.95
44.62
30.40
16.99
4.76
-6.37
-16.88
-27.41
-38.39
-49.76
-60.92
-70.90
-78.82
-84.22
-87.25
-88.57
-89.01
-89.35
-90.09
-91.53
-93.76
-96.68
-99.86
-102.40
-103.03
-100.32
-93.22
-81.44
-65.65
-47.32
-28.24
-9.99
6.44
20.79
33.17
43.85
52.90
60.20
65.56
68.99
70.84
71.69
72.10
72.35
72.26
71.44
69.50
66.44
62.70
58.98
55.85
53.42
51.19
48.27
43.84
37.61
29.97
21.83
14.07
7.11
0.73
-5.79
-13.23
-22.08
-32.41
-43.88
-55.93
-67.89
-78.90
-87.94
-93.86
-95.70
-93.01
-86.03
-75.60
-62.86
-48.92
-34.69
-20.91
-8.24
2.70
11.38
17.57
21.46
23.71
25.23
26.89
29.19
32.21
35.65
39.08
42.13
44.61
46.42
47.46
47.56
46.49
44.09
40.43
35.92
31.18
26.90
23.52
21.12
19.42
18.03
16.66
15.27
14.10
13.51
13.77
15.04
17.30
20.49
24.47
29.00
33.60
37.61
40.30
41.18
40.17
37.61
33.95
29.32
23.42
15.59
5.35
-7.15
-20.92
-34.34
-45.74
-53.94
-58.64
-60.33
-59.86
-58.02
-55.23
-51.55
-46.98
-41.62
-35.96
-30.70
-26.56
-24.08
-23.40
-24.34
-26.55
-29.60
-33.13
-36.85
-40.48
-43.82
-46.86
-49.88
-53.44
-58.12
-64.00
-70.23
-74.85
-75.15
-68.52
-53.45
-30.26
-1.22
30.12
59.90
84.98
103.50
114.93
119.75
118.92
113.62
104.93
93.96
81.72
69.13
56.98
45.80
35.79
26.87
18.79
11.28
4.26
-2.08
-7.31
-11.08
-13.33
-14.57
-15.62
-17.37
-20.24
-24.00
-27.91
-31.14
-33.31
-34.72
-36.22
-38.80
-43.22
-49.66
-57.76
-66.71
-75.41
-82.57
-86.87
-87.10
-82.56
-73.25
-59.98
-44.17
-27.36
-10.86
4.48
18.19
29.87
39.05
45.23
48.07
47.73
45.00
41.11
37.39
34.83
33.80
34.12
35.17
36.23
36.80
36.79
36.59
37.03
39.04
43.41
50.38
59.56
70.03
80.54
89.84
96.77
100.35
99.66
93.87
82.33
64.95
42.55
16.98
-8.97
-32.28
-50.44
-62.13
-67.43
-67.65
-64.57
-59.85
-54.55
-49.12
-43.73
-38.61
-34.23
-31.13
-29.61
-29.37
-29.51
-28.87
-26.52
-22.17
-16.30
-9.96
-4.22
0.17
3.05
4.69
5.49
5.69
5.21
3.80
1.19
-2.71
-7.69
-13.33
-19.10
-24.58
-29.53
-34.01
-38.37
-43.10
-48.74
-55.58
-63.50
-71.83
-79.32
-84.30
-85.08
-80.46
-70.13
-54.91
-36.48
-16.91
1.90
18.68
32.90
44.58
53.97
61.32
66.78
70.51
72.77
73.96
74.45
74.49
74.09
73.10
71.34
68.79
65.66
62.33
59.21
56.50
54.03
51.26
47.50
42.16
34.98
26.20
16.48
6.73
-2.29
-10.19
-17.08
-23.52
-30.25
-37.96
-46.99
-57.21
-67.82
-77.50
-84.56
-87.43
-85.12
-77.63
-65.91
-51.61
-36.47
-21.83
-8.43
3.51
13.89
22.55
29.19
33.66
36.16
37.33
38.05
39.02
40.46
42.02
43.11
43.28
42.61
41.68
41.21
41.63
42.77
43.94
44.36
43.62
41.94
40.02
38.64
38.22
38.58
38.94
38.24
35.43
29.75
20.78
8.53
-6.44
-22.97
-39.24
-53.21
-63.02
-67.63
-67.18
-62.85
-56.32
-49.18
-42.41
-36.39
-31.20
-26.97
-24.09
-23.08
-24.19
-27.06
-30.73
-33.96
-35.70
-35.54
-33.82
-31.32
-28.80
-26.59
-24.46
-21.86
-18.38
-14.15
-9.92
-6.77
-5.66
-6.95
-10.21
-14.52
-18.80
-22.33
-24.94
-27.04
-29.34
-32.60
-37.37
-43.89
-51.97
-60.88
-69.36
-75.71
-78.12
-75.28
-66.83
-53.56
-37.20
-19.77
-2.93
12.45
26.23
38.62
49.74
59.43
67.34
73.28
77.40
80.25
82.55
84.96
87.97
91.95
97.13
103.62
111.21
119.21
126.52
131.76
133.74
131.78
125.77
116.09
103.33
88.12
71.10
52.94
34.42
16.25
-1.11
-17.55
-33.36
-48.96
-64.68
-80.46
-95.79
-109.78
-121.33
-129.32
-132.87
-131.50
-125.30
-114.87
-101.34
-86.01
-70.10
-54.57
-40.06
-27.01
-15.79
-6.80
-0.27
3.91
6.30
7.83
9.47
11.84
14.96
18.31
21.15
22.98
23.74
23.80
23.68
23.64
23.59
23.12
21.87
19.90
17.83
16.71
17.61
21.16
27.26
35.02
43.04
49.76
53.88
54.61
51.90
46.48
39.72
33.35
28.95
27.40
28.55
31.18
33.46
33.68
30.91
25.33
18.04
10.45
3.57
-2.43
-8.12
-14.40
-21.83
-30.26
-38.79
-46.31
-51.91
-55.34
-56.87
-57.02
-56.11
-54.18
-51.15
-47.12
-42.56
-38.23
-34.99
-33.35
-33.49
-35.16
-37.90
-41.14
-44.36
-47.10
-49.16
-50.73
-52.43
-55.02
-58.94
-63.79
-68.05
-69.42
-65.37
-54.14
-35.33
-10.17
18.75
48.23
75.19
97.41
113.76
124.11
129.01
129.23
125.53
118.57
108.99
97.52
84.96
72.03
59.15
46.37
33.43
20.17
6.67
-6.50
-18.56
-28.80
-36.81
-42.68
-46.73
-49.30
-50.45
-49.88
-47.17
-42.06
-34.84
-26.44
-18.30
-11.99
-8.83
-9.56
-14.17
-21.90
-31.36
-40.78
-48.24
-52.16
-51.68
-46.91
-39.03
-29.81
-20.97
-13.59
-7.85
-3.26
0.75
4.37
7.19
8.56
8.07
5.91
2.84
-0.16
-2.34
-3.43
-3.65
-3.37
-2.92
-2.38
-1.74
-1.03
-0.42
-0.29
-1.10
-3.26
-6.86
-11.59
-16.72
-21.30
-24.54
-26.19
-26.68
-26.98
-28.32
-31.60
-37.05
-44.06
-51.33
-57.14
-59.82
-58.15
-51.67
-40.68
-26.15
-9.29
8.86
27.77
47.45
68.17
90.02
112.46
134.15
153.21
167.70
176.23
178.38
174.78
166.83
156.19
144.29
131.96
119.36
106.10
91.57
75.24
56.90
36.77
15.43
-6.34
-27.76
-48.10
-66.76
-83.15
-96.73
-107.16
-114.47
-119.27
-122.69
-126.03
-130.38
-136.20
-143.11
-149.94
-154.86
-155.75
-150.68
-138.37
-118.67
-92.73
-62.83
-31.76
-2.12
24.27
46.48
64.26
77.63
86.59
91.14
91.47
88.20
82.32
75.01
67.24
59.57
52.09
44.65
37.10
29.47
22.01
15.03
8.75
3.20
-1.84
-6.75
-11.91
-17.54
-23.63
-29.89
-35.88
-41.14
-45.33
-48.39
-50.61
-52.61
-55.19
-59.01
-64.22
-70.06
-74.82
-76.10
-71.50
-59.45
-39.86
-14.35
14.19
42.30
66.97
86.21
99.32
106.71
109.41
108.62
105.38
100.42
94.15
86.79
78.42
69.13
59.00
48.23
37.15
26.15
15.75
6.40
-1.55
-7.97
-12.91
-16.58
-19.31
-21.33
-22.84
-23.88
-24.35
-24.09
-22.86
-20.49
-16.94
-12.39
-7.32
-2.45
1.35
3.41
3.54
2.33
1.22
2.10
6.74
16.08
29.79
46.42
63.95
80.50
94.92
106.78
115.93
121.85
123.41
119.07
107.65
89.08
64.71
36.97
8.53
-18.40
-42.50
-63.09
-79.69
-91.81
-99.04
-101.42
-99.89
-96.22
-92.56
-90.78
-91.92
-96.00
-102.17
-109.14
-115.51
-120.16
-122.47
-122.50
-121.03
-119.41
-119.08
-121.04
-125.32
-130.85
-135.70
-137.82
-135.68
-128.85
-117.97
-104.47
-89.95
-75.71
-62.51
-50.64
-40.02
-30.49
-21.84
-13.88
-6.40
0.91
8.38
16.36
25.17
34.92
45.41
56.03
65.78
73.50
78.26
79.62
77.81
73.51
67.52
60.48
52.65
44.07
34.81
25.16
15.72
7.22
0.20
-5.22
-9.41
-13.11
-17.14
-22.14
-28.28
-35.20
-41.92
-46.96
-48.57
-45.15
-35.75
-20.41
-0.35
22.35
45.21
66.00
83.16
95.92
104.10
107.86
107.43
103.16
95.68
85.99
75.36
65.16
56.46
49.82
45.23
42.21
40.01
37.90
35.30
31.95
27.96
23.73
19.83
16.84
15.17
14.99
16.09
17.85
19.28
19.25
16.72
11.21
3.00
-6.92
-17.31
-27.27
-36.52
-45.26
-53.73
-61.83
-68.90
-73.92
-75.83
-73.71
-67.03
-55.67
-40.08
-21.61
-2.59
14.27
26.86
34.58
38.67
41.39
45.09
51.34
60.38
71.37
83.09
94.73
105.93
116.92
127.51
137.43
146.32
153.64
158.40
159.34
155.31
145.37
129.54
108.13
82.40
54.81
28.58
6.92
-7.71
-14.23
-13.85
-6.85
4.36
15.87
24.85
31.41
37.77
45.96
56.59
66.67
74.85
79.61
80.07
76.25
68.68
57.82
43.51
29.47
18.24
11.99
11.22
15.23
22.59
31.54
40.39
47.86
53.39
56.46
57.21
55.58
51.57
45.35
37.18
27.30
16.10
4.28
-7.74
-19.30
-30.13
-40.24
-49.85
-59.30
-68.87
-78.57
-87.99
-97.02
-105.14
-111.72
-116.04
-117.45
-115.25
-108.72
-97.28
-80.92
-61.06
-39.80
-19.36
-1.36
13.44
25.09
33.95
40.17
43.33
41.94
35.13
23.55
9.10
-6.12
-20.62
-33.86
-46.00
-57.55
-71.04
-87.47
-105.33
-121.54
-133.61
-140.71
-143.39
-143.12
-141.56
-144.65
-155.51
-172.41
-190.40
-205.38
-215.76
-221.87
-224.90
-226.09
-233.73
-252.30
-279.19
-306.99
-329.42
-343.79
-350.32
-350.85
-348.05
-354.12
-376.31
-412.07
-452.06
-488.08
-516.65
-537.95
-553.67
-506.16
-374.87
-188.28
-0.25
152.72
261.71
332.59
374.80
397.08
406.67
399.85
375.87
341.06
306.04
278.59
261.38
253.54
252.98
257.05
255.62
242.07
217.02
186.48
156.46
130.66
110.58
96.32
86.95
76.40
60.72
40.97
22.10
7.35
-1.15
-2.88
1.64
11.17
21.81
30.51
36.40
40.31
43.29
46.03
48.74
51.26
53.24
53.45
51.18
46.93
42.09
38.07
35.79
35.24
35.71
36.16
35.85
34.57
32.62
30.38
28.02
25.32
21.71
16.72
10.27
2.91
-4.54
-11.32
-17.23
-22.73
-28.67
-35.95
-45.15
-56.25
-68.50
-80.50
-90.40
-96.29
-96.67
-90.92
-79.53
-63.95
-46.11
-27.75
-10.01
6.58
21.83
35.55
47.20
56.12
61.77
64.21
64.26
63.35
63.05
64.45
67.75
72.19
76.43
79.20
79.84
78.48
75.82
72.63
69.21
65.29
60.29
53.77
45.76
36.85
27.85
19.49
12.09
5.52
-0.56
-6.56
-12.72
-19.12
-25.64
-32.10
-38.09
-42.89
-45.49
-44.81
-40.01
-30.94
-18.31
-3.51
11.85
26.41
39.36
50.40
59.53
66.75
72.11
75.80
78.38
80.77
83.87
88.16
93.29
98.20
101.49
102.08
99.65
94.78
88.54
81.97
75.59
69.27
62.49
54.71
45.82
36.09
26.05
16.09
6.29
-3.66
-14.20
-25.68
-38.16
-51.36
-64.68
-77.18
-87.79
-95.39
-99.08
-98.40
-93.56
-85.38
-75.05
-63.82
-52.63
-41.96
-31.87
-22.18
-12.68
-3.34
5.66
13.93
20.99
26.38
29.92
31.68
32.05
31.57
30.83
30.27
30.21
30.78
31.99
33.68
35.38
36.39
35.83
32.98
27.49
19.64
10.22
0.28
-9.31
-18.26
-26.91
-36.18
-47.12
-60.45
-76.17
-93.28
-109.91
-123.61
-131.94
-133.04
-126.20
-111.97
-92.00
-68.53
-43.82
-19.62
3.00
23.46
41.50
56.77
69.00
78.06
84.17
87.92
89.96
90.63
89.72
86.58
80.65
71.95
61.39
50.48
40.79
33.29
27.98
24.09
20.47
16.21
10.88
4.72
-1.64
-7.48
-12.25
-15.83
-18.65
-21.58
-25.75
-32.10
-40.87
-51.28
-61.46
-68.91
-71.20
-66.83
-55.74
-39.28
-19.67
0.78
20.29
38.00
53.82
68.09
81.18
93.26
104.20
113.66
121.25
126.57
129.30
129.26
126.49
121.44
114.88
107.88
101.56
96.75
93.81
92.55
92.26
91.98
90.81
88.12
83.63
77.53
70.27
62.56
55.12
48.47
42.74
37.52
31.95
24.92
15.44
2.94
-12.38
-29.53
-46.94
-62.86
-75.79
-84.93
-90.26
-92.34
-91.94
-89.57
-85.34
-79.02
-70.46
-60.05
-48.90
-38.62
-30.74
-26.07
-24.38
-24.53
-25.03
-24.55
-22.35
-18.18
-12.02
-3.88
6.25
18.09
30.93
43.57
54.56
62.66
67.13
67.86
65.31
60.32
53.92
47.14
40.66
34.67
28.70
21.78
12.87
1.50
-11.78
-25.38
-37.04
-44.69
-47.10
-44.27
-37.38
-28.23
-18.60
-9.73
-2.18
4.05
9.24
13.68
17.48
20.54
22.58
23.22
21.99
18.60
13.07
5.82
-2.25
-10.12
-16.90
-22.24
-26.36
-29.98
-33.85
-38.55
-44.31
-51.07
-58.77
-67.28
-76.32
-85.18
-92.71
-97.48
-98.38
-95.27
-89.23
-82.48
-77.58
-76.44
-79.54
-85.65
-92.17
-96.14
-95.08
-87.79
-74.50
-56.71
-36.59
-16.38
2.18
18.16
31.40
42.38
51.87
60.46
68.36
75.35
80.93
84.67
86.46
86.64
85.86
84.86
84.15
83.88
83.85
83.67
82.91
81.27
78.64
75.05
70.59
65.36
59.39
52.67
45.18
36.89
27.79
17.92
7.28
-4.06
-15.97
-28.12
-39.88
-50.34
-58.37
-62.96
-63.46
-59.94
-53.14
-44.23
-34.38
-24.41
-14.57
-4.76
5.14
14.86
23.57
30.10
33.36
32.97
29.42
24.05
18.52
14.19
11.64
10.53
9.88
8.58
5.80
1.31
-4.63
-11.45
-18.64
-25.85
-32.92
-39.70
-45.97
-51.36
-55.54
-58.27
-59.63
-59.99
-59.90
-59.94
-60.53
-61.84
-63.65
-65.33
-65.87
-64.07
-58.88
-49.75
-36.90
-21.20
-3.96
13.47
29.92
44.52
56.53
65.37
70.67
72.46
71.40
68.67
65.70
63.68
63.21
64.22
66.12
68.23
70.07
71.43
72.29
72.49
71.63
69.03
63.97
55.96
44.97
31.46
16.29
0.56
-14.66
-28.39
-40.00
-49.30
-56.68
-63.01
-69.38
-76.59
-84.71
-92.84
-99.28
-102.09
-99.79
-91.85
-78.89
-62.36
-43.99
-25.30
-7.34
9.23
23.83
35.74
44.16
48.45
48.62
45.39
40.13
34.30
28.93
24.40
20.47
16.74
12.98
9.34
6.21
3.90
2.38
1.19
-0.37
-3.00
-7.18
-12.97
-20.07
-27.91
-35.85
-43.42
-50.53
-57.59
-65.42
-74.99
-86.95
-101.28
-117.10
-132.62
-145.53
-153.53
-154.93
-149.12
-136.64
-118.97
-97.96
-75.37
-52.47
-30.10
-8.83
10.76
27.95
42.12
52.87
60.32
65.05
67.90
69.54
70.27
69.97
68.21
64.63
59.14
52.09
44.19
36.28
29.16
23.35
18.99
15.91
13.72
11.98
10.35
8.70
7.13
5.96
5.46
5.72
6.47
7.03
6.49
3.97
-0.99
-8.11
-16.30
-23.89
-29.11
-30.63
-28.01
-21.76
-13.06
-3.32
6.31
15.09
22.66
28.91
33.67
36.79
38.17
37.92
36.45
34.32
32.02
29.87
27.82
25.65
23.19
20.54
18.07
16.36
15.83
16.39
17.43
17.96
17.06
14.30
9.95
4.81
-0.22
-4.60
-8.41
-12.14
-16.41
-21.70
-28.12
-35.54
-43.71
-52.22
-60.29
-66.74
-70.09
-69.07
-63.29
-53.64
-42.16
-31.37
-23.36
-19.21
-18.78
-21.09
-24.98
-29.49
-34.09
-38.54
-42.76
-46.71
-50.47
-54.23
-58.27
-62.75
-67.51
-72.01
-75.38
-76.71
-75.33
-71.19
-64.80
-57.11
-49.26
-42.08
-35.84
-30.14
-24.16
-17.15
-8.85
0.13
8.51
14.76
17.78
17.27
13.93
9.15
4.71
2.33
3.36
8.65
18.35
31.87
47.95
64.89
80.86
94.41
104.79
111.97
116.50
119.11
120.39
120.47
119.09
115.76
110.10
102.13
92.36
81.69
71.14
61.43
52.82
45.04
37.50
29.56
20.79
11.09
0.56
-10.49
-21.71
-32.66
-42.84
-51.78
-59.11
-64.69
-68.68
-71.48
-73.58
-75.41
-77.29
-79.37
-81.70
-84.06
-85.89
-86.17
-83.59
-76.92
-65.45
-49.42
-29.98
-8.92
11.96
31.30
48.45
63.32
76.13
87.11
96.48
104.53
111.75
118.74
125.95
133.30
140.03
144.82
146.28
143.50
136.49
126.23
114.28
102.18
90.83
80.29
69.84
58.57
45.86
31.82
17.17
2.96
-10.04
-21.69
-32.46
-43.13
-54.30
-66.15
-78.44
-90.72
-102.48
-113.20
-122.24
-128.88
-132.43
-132.56
-129.47
-123.87
-116.69
-108.70
-100.34
-91.77
-83.21
-75.06
-68.01
-62.68
-59.26
-57.28
-55.64
-52.89
-47.79
-39.65
-28.57
-15.28
-0.82
13.88
28.22
41.87
54.50
65.56
74.22
79.64
81.45
80.07
76.74
73.06
70.41
69.34
69.46
69.57
68.14
63.83
55.84
44.10
29.39
13.28
-2.08
-14.36
-21.61
-22.87
-18.48
-10.11
-0.12
9.10
15.89
19.62
20.49
19.21
16.45
12.60
7.78
2.05
-4.52
-11.69
-19.22
-26.91
-34.65
-42.35
-49.83
-56.75
-62.68
-67.13
-69.73
-70.31
-69.02
-66.38
-63.10
-59.88
-57.19
-55.06
-53.19
-51.14
-48.71
-46.05
-43.73
-42.45
-42.68
-44.36
-46.82
-48.91
-49.21
-46.35
-39.35
-27.84
-12.24
6.33
26.26
45.79
63.51
78.55
90.78
100.60
108.72
115.80
122.31
128.35
133.73
138.04
140.71
141.15
138.87
133.65
125.72
115.89
105.43
95.76
88.04
82.73
79.29
76.35
72.16
65.25
55.10
42.40
28.84
16.55
7.28
1.89
0.18
1.06
3.13
5.08
6.12
6.04
5.16
4.10
3.52
3.97
5.75
8.96
13.54
19.27
25.76
32.37
38.16
41.99
42.82
40.00
33.56
24.12
12.88
1.18
-9.74
-19.01
-26.28
-31.68
-35.73
-39.05
-42.26
-45.77
-49.74
-54.17
-58.99
-64.20
-69.76
-75.64
-81.64
-87.43
-92.67
-97.22
-101.25
-105.35
-110.28
-116.74
-125.10
-135.14
-145.92
-155.98
-163.52
-166.81
-164.67
-156.83
-143.97
-127.54
-109.21
-90.45
-72.10
-54.57
-38.05
-22.93
-9.79
0.76
8.46
13.72
17.43
20.64
24.08
27.82
31.32
33.80
34.64
33.62
30.90
26.72
21.18
14.10
5.21
-5.55
-17.74
-30.36
-42.17
-51.98
-59.13
-63.69
-66.36
-68.13
-69.87
-72.10
-74.87
-77.91
-80.71
-82.57
-82.63
-79.75
-72.73
-60.61
-43.15
-21.00
4.39
31.35
58.59
85.39
111.41
136.01
157.88
175.04
185.53
188.35
184.03
174.59
162.70
150.77
140.02
130.37
120.80
110.10
97.52
83.04
67.34
51.37
35.96
21.51
7.96
-4.99
-17.67
-30.13
-42.10
-53.11
-62.78
-70.91
-77.70
-83.50
-88.75
-93.80
-98.78
-103.51
-107.40
-109.51
-108.68
-103.90
-94.71
-81.42
-65.20
-47.61
-30.23
-14.15
0.22
12.98
24.36
34.49
43.25
50.42
55.99
60.21
63.53
66.40
68.99
71.17
72.66
73.33
73.41
73.46
74.15
75.86
78.42
81.15
83.11
83.46
81.77
78.12
72.84
66.31
58.65
49.66
38.82
25.53
9.32
-9.93
-31.82
-55.32
-78.80
-100.19
-117.35
-128.55
-132.82
-130.24
-121.74
-108.85
-93.27
-76.56
-60.02
-44.67
-31.25
-20.22
-11.68
-5.34
-0.57
3.38
7.11
10.94
14.80
18.35
21.20
23.17
24.42
25.44
26.75
28.66
30.98
32.99
33.72
32.34
28.55
22.73
15.77
8.67
2.13
-3.73
-9.34
-15.38
-22.55
-31.28
-41.50
-52.63
-63.51
-72.64
-78.43
-79.56
-75.39
-66.10
-52.72
-36.78
-19.97
-3.72
10.94
23.43
33.47
40.96
45.97
48.82
50.15
50.97
52.43
55.44
60.26
66.37
72.69
78.03
81.63
83.32
83.40
82.17
79.61
75.25
68.43
58.71
46.30
32.00
17.07
2.81
-9.79
-20.29
-28.83
-36.05
-42.96
-50.60
-59.75
-70.53
-82.20
-93.18
-101.47
-105.13
-102.95
-94.80
-81.73
-65.57
-48.51
-32.42
-18.51
-7.21
1.82
9.38
16.39
23.61
31.36
39.52
47.60
55.02
61.38
66.62
71.03
75.08
79.19
83.53
87.97
92.08
95.20
96.54
95.28
90.71
82.40
70.47
55.65
39.15
22.30
6.07
-9.30
-24.31
-39.94
-56.95
-75.38
-94.20
-111.51
-125.04
-132.89
-134.08
-128.74
-117.98
-103.42
-86.76
-69.42
-52.43
-36.48
-22.05
-9.42
1.28
10.20
17.70
24.22
30.13
35.51
40.20
43.96
46.67
48.54
50.06
51.82
54.20
57.14
60.16
62.49
63.47
62.71
60.33
56.81
52.86
49.23
46.48
44.81
43.92
43.13
41.46
38.08
32.67
25.79
18.90
14.06
13.27
17.77
27.62
41.70
58.14
74.95
90.57
104.15
115.47
124.66
131.90
137.08
139.76
139.23
134.90
126.57
114.70
100.30
84.75
69.29
54.69
41.08
28.13
15.40
2.67
-9.80
-21.53
-31.93
-40.75
-48.18
-54.78
-61.22
-67.99
-75.20
-82.64
-90.02
-97.17
-104.20
-111.36
-118.85
-126.58
-134.11
-140.66
-145.24
-146.92
-144.99
-139.10
-129.41
-116.54
-101.39
-84.97
-68.25
-52.04
-37.04
-23.96
-13.33
-5.43
-0.06
3.42
5.89
8.16
10.69
13.45
16.07
18.07
19.09
19.05
18.12
16.64
14.93
13.11
11.05
8.38
4.65
-0.44
-6.92
-14.37
-22.11
-29.30
-35.37
-40.10
-43.80
-47.08
-50.67
-55.08
-60.29
-65.69
-70.16
-72.34
-71.00
-65.36
-55.40
-41.84
-26.03
-9.61
5.85
19.28
30.23
38.85
45.55
50.64
54.08
55.43
54.17
50.10
43.70
36.11
28.91
23.58
21.05
21.42
24.07
27.89
31.64
34.29
35.06
33.48
29.35
22.70
13.87
3.47
-7.72
-18.94
-29.63
-39.68
-49.39
-59.37
-70.22
-82.11
-94.50
-106.10
-115.16
-119.91
-119.22
-112.89
-101.78
-87.41
-71.52
-55.58
-40.48
-26.66
-14.23
-3.26
6.15
13.83
19.73
23.96
26.88
29.04
31.02
33.19
35.62
38.01
39.91
40.90
40.82
39.86
38.45
36.96
35.48
33.77
31.28
27.59
22.53
16.44
9.93
3.60
-2.30
-8.05
-14.26
-21.65
-30.58
-40.81
-51.40
-60.86
-67.45
-69.68
-66.69
-58.62
-46.66
-32.71
-18.76
-6.30
4.11
12.67
19.97
26.35
31.62
35.14
36.27
34.84
31.30
26.58
21.66
17.24
13.57
10.64
8.43
7.16
7.20
8.93
12.47
17.47
23.19
28.71
33.23
36.28
37.84
38.14
37.53
36.25
34.40
31.91
28.70
24.71
19.92
14.32
7.91
0.81
-6.54
-13.28
-18.16
-19.93
-17.83
-11.94
-3.25
6.76
16.56
25.19
32.34
38.31
43.46
47.90
51.33
53.25
53.28
51.40
48.03
43.77
39.21
34.68
30.32
26.21
22.48
19.28
16.66
14.37
11.85
8.42
3.66
-2.34
-8.92
-15.22
-20.68
-25.26
-29.52
-34.24
-40.05
-47.14
-55.27
-63.96
-72.75
-81.01
-87.95
-92.45
-93.28
-89.58
-81.16
-68.68
-53.24
-35.81
-16.85
3.67
25.64
48.21
69.50
86.96
98.38
102.82
101.13
95.52
88.56
82.06
76.38
70.54
62.87
51.95
37.26
19.42
-0.13
-19.60
-37.38
-52.34
-63.96
-72.17
-77.31
-79.87
-80.45
-79.69
-78.25
-76.83
-76.08
-76.54
-78.55
-82.12
-86.88
-91.92
-95.84
-96.87
-93.12
-83.14
-66.39
-43.44
-15.90
13.99
44.06
72.59
98.55
121.35
140.57
155.69
166.24
172.08
173.63
172.03
168.75
165.19
162.19
159.84
157.60
154.62
150.03
143.20
133.77
121.71
107.27
90.97
73.51
55.68
38.38
22.45
8.79
-1.89
-9.34
-14.02
-17.08
-20.14
-24.48
-30.69
-38.40
-46.70
-54.78
-62.32
-69.58
-76.98
-84.65
-92.14
-98.53
-102.67
-103.44
-99.89
-91.38
-77.81
-60.02
-40.28
-22.30
-10.47
-8.46
-17.69
-36.39
-59.98
-82.64
-99.34
-107.42
-107.10
-100.68
-91.13
-80.90
-71.29
-62.64
-54.79
-47.45
-40.30
-33.14
-26.20
-20.41
-17.47
-19.13
-26.17
-37.43
-49.80
-59.19
-62.20
-57.42
-45.70
-29.34
-10.85
8.00
26.36
43.73
59.53
72.88
82.94
89.34
92.39
92.84
91.44
88.63
84.47
78.90
72.10
64.65
57.36
50.94
45.68
41.22
36.76
31.38
24.45
15.85
5.92
-4.77
-15.74
-26.60
-37.11
-46.94
-55.65
-62.75
-67.95
-71.29
-73.18
-74.23
-75.01
-75.93
-77.15
-78.69
-80.51
-82.72
-85.55
-89.40
-94.57
-100.93
-107.67
-113.21
-115.63
-113.33
-105.67
-93.25
-77.68
-60.96
-44.80
-30.13
-17.21
-5.92
3.71
11.44
16.87
19.78
20.42
19.53
18.12
17.07
16.86
17.46
18.44
19.21
19.41
18.88
17.77
16.31
14.68
12.85
10.77
8.34
5.60
2.72
-0.13
-2.90
-5.69
-8.77
-12.40
-16.78
-22.07
-28.41
-35.85
-44.12
-52.51
-59.67
-64.01
-64.14
-59.43
-50.31
-38.14
-24.64
-11.31
0.93
11.84
21.40
29.64
36.36
41.27
44.21
45.41
45.45
45.08
44.94
45.29
45.94
46.44
46.32
45.34
43.64
41.69
40.00
39.04
38.93
39.52
40.45
41.24
41.42
40.64
38.65
35.37
30.89
25.47
19.46
13.25
7.26
1.93
-2.17
-4.42
-4.20
-1.09
4.81
13.01
22.61
32.65
42.29
50.99
58.32
63.86
67.11
67.62
65.23
60.31
53.72
46.63
40.09
34.68
30.45
27.01
23.90
20.81
17.74
14.98
12.86
11.56
10.99
10.74
10.30
9.22
7.17
4.10
0.17
-4.34
-9.08
-13.69
-17.89
-21.65
-25.26
-29.34
-34.60
-41.47
-49.60
-57.70
-63.74
-65.66
-62.10
-52.94
-39.37
-23.26
-6.54
9.42
23.93
36.75
47.82
56.89
63.68
67.91
69.65
69.37
67.89
66.20
65.06
64.83
65.29
65.75
65.30
63.22
59.27
53.76
47.32
40.57
33.80
26.89
19.53
11.45
2.74
-6.25
-15.03
-23.25
-30.92
-38.33
-45.98
-54.24
-63.19
-72.30
-80.46
-86.10
-87.60
-83.76
-74.29
-59.92
-42.18
-22.84
-3.34
15.48
33.31
49.94
64.88
77.32
86.45
91.81
93.63
92.69
90.02
86.40
82.20
77.60
72.84
68.55
65.54
64.32
64.60
65.06
63.75
58.94
49.91
37.34
23.06
9.24
-2.43
-11.19
-17.20
-21.18
-23.95
-26.36
-29.23
-33.41
-39.65
-48.15
-58.32
-68.61
-76.90
-81.16
-80.11
-73.66
-62.86
-49.60
-35.94
-23.70
-14.04
-7.44
-3.77
-2.46
-2.75
-3.89
-5.39
-7.00
-8.76
-10.77
-13.05
-15.42
-17.52
-18.98
-19.61
-19.51
-18.99
-18.50
-18.34
-18.64
-19.40
-20.47
-21.79
-23.37
-25.27
-27.51
-30.09
-32.88
-35.77
-38.66
-41.46
-44.14
-46.59
-48.53
-49.48
-48.82
-45.91
-40.32
-32.01
-21.34
-8.95
4.47
18.35
32.37
46.39
60.28
73.71
86.16
97.05
105.95
112.86
118.29
123.02
127.78
132.82
137.71
141.53
143.42
143.05
140.78
137.49
133.98
130.62
127.06
122.49
116.03
107.12
95.58
81.54
65.25
47.16
28.10
9.20
-8.29
-23.42
-35.75
-45.42
-52.89
-58.44
-61.75
-61.70
-57.21
-47.97
-34.71
-19.06
-2.95
11.72
23.51
31.39
35.05
34.27
28.87
19.08
5.90
-8.96
-23.56
-36.29
-46.00
-51.59
-52.85
-50.47
-45.93
-40.92
-36.85
-34.67
-34.66
-39.62
-49.53
-61.81
-72.84
-80.39
-84.06
-84.29
-81.81
-77.43
-71.95
-65.61
-58.77
-51.89
-45.43
-40.23
-36.23
-33.35
-31.39
-29.87
-27.82
-24.91
-21.42
-18.18
-15.96
-15.01
-15.32
-16.82
-19.84
-23.49
-28.00
-33.89
-41.41
-50.15
-58.92
-66.35
-71.27
-73.04
-71.52
-67.39
-61.67
-55.46
-49.66
-44.76
-40.94
-38.22
-36.48
-35.57
-35.44
-35.91
-36.61
-37.09
-37.00
-36.41
-35.77
-35.80
-37.06
-39.82
-43.79
-48.18
-52.03
-54.38
-54.47
-51.71
-45.87
-36.97
-25.54
-12.47
1.10
14.01
25.34
34.58
41.65
46.78
50.25
52.30
53.15
53.02
52.27
51.34
50.72
50.75
51.47
52.66
53.91
54.79
55.01
54.47
53.18
51.20
48.55
45.21
41.28
36.86
32.16
27.35
22.48
17.49
12.21
6.46
0.06
-7.07
-14.83
-22.77
-30.05
-35.51
-37.95
-36.52
-31.05
-22.18
-11.10
0.74
12.06
21.90
29.75
35.47
39.17
41.23
42.06
42.14
41.82
41.28
40.64
39.95
39.36
38.92
38.56
38.07
37.20
35.85
34.18
32.45
30.90
29.43
27.63
24.98
21.15
16.23
10.70
5.23
0.32
-3.95
-7.92
-12.27
-17.69
-24.61
-32.90
-41.85
-50.18
-56.46
-59.48
-58.61
-53.96
-46.26
-36.50
-25.72
-14.78
-4.40
4.82
12.34
17.83
21.20
22.72
22.89
22.33
21.59
21.01
20.71
20.60
20.47
20.13
19.54
18.72
17.71
16.43
14.65
12.07
8.46
3.82
-1.56
-7.15
-12.44
-17.06
-20.94
-24.33
-27.72
-31.73
-36.93
-43.62
-51.58
-59.96
-67.34
-72.03
-72.63
-68.57
-60.28
-49.05
-36.51
-24.16
-12.90
-3.02
5.53
12.80
18.66
22.86
25.22
25.88
25.32
24.27
23.37
23.00
23.17
23.64
24.04
24.05
23.56
22.54
21.01
18.94
16.21
12.67
8.28
3.18
-2.33
-7.79
-12.88
-17.52
-22.05
-27.12
-33.38
-41.17
-50.18
-59.32
-66.92
-71.23
-70.88
-65.43
-55.43
-42.23
-27.51
-12.77
0.91
12.98
23.19
31.38
37.47
41.45
43.57
44.33
44.37
44.29
44.36
44.58
44.74
44.61
44.09
43.21
41.99
40.41
38.33
35.58
32.02
27.68
22.74
17.45
12.09
6.78
1.58
-3.70
-9.28
-15.46
-22.45
-30.33
-38.87
-47.48
-55.18
-60.70
-62.81
-60.62
-53.96
-43.41
-30.18
-15.73
-1.41
11.88
23.75
34.13
43.12
50.80
57.07
61.76
64.63
65.53
64.45
61.59
57.25
51.79
45.48
38.52
31.08
23.36
15.66
8.23
1.18
-5.74
-13.11
-21.52
-31.19
-41.62
-51.59
-59.61
-64.59
-66.38
-66.02
-65.30
-66.04
-69.31
-74.91
-81.50
-87.04
-89.51
-87.54
-80.66
-69.41
-54.96
-38.81
-22.41
-6.98
6.62
17.83
26.39
32.28
35.60
36.70
36.06
34.35
32.28
30.51
29.46
29.26
29.71
30.46
31.13
31.47
31.36
30.65
29.18
26.65
22.83
17.70
11.55
4.88
-1.77
-8.09
-14.12
-20.22
-26.90
-34.59
-43.37
-52.82
-61.91
-69.14
-72.88
-71.83
-65.47
-54.33
-39.89
-24.12
-8.89
4.56
15.78
24.95
32.47
38.62
43.41
46.69
48.36
48.51
47.42
45.41
42.77
39.72
36.50
33.41
30.78
28.84
27.58
26.73
25.80
24.28
21.80
18.29
13.91
8.94
3.67
-1.71
-7.22
-13.12
-19.78
-27.56
-36.56
-46.39
-56.07
-64.15
-69.05
-69.40
-64.55
-54.72
-40.99
-24.98
-8.41
7.37
21.50
33.54
43.33
50.75
55.79
58.59
59.57
59.34
58.60
57.84
57.23
56.60
55.63
54.03
51.78
49.09
46.30
43.59
40.87
37.71
33.50
27.81
20.63
12.45
4.09
-3.65
-10.42
-16.40
-22.23
-28.68
-36.29
-45.12
-54.67
-63.95
-71.67
-76.45
-77.12
-73.03
-64.28
-51.74
-36.87
-21.31
-6.45
6.77
17.96
27.03
34.02
38.97
41.94
43.10
42.82
41.69
40.33
39.24
38.68
38.57
38.62
38.49
37.90
36.69
34.84
32.30
29.01
24.88
19.86
13.97
7.30
-0.04
-8.00
-16.57
-25.81
-35.76
-46.37
-57.44
-68.47
-78.56
-86.48
-90.79
-90.25
-84.22
-72.94
-57.58
-39.89
-21.75
-4.72
10.25
22.75
32.70
40.17
45.23
47.97
48.58
47.42
45.03
41.97
38.75
35.73
33.06
30.76
28.80
27.16
25.78
24.47
22.87
20.47
16.78
11.57
4.96
-2.50
-10.09
-17.13
-23.31
-28.77
-34.09
-40.05
-47.28
-55.96
-65.48
-74.52
-81.22
-83.75
-80.91
-72.57
-59.75
-44.16
-27.65
-11.64
3.08
16.25
27.75
37.34
44.69
49.52
51.95
52.49
52.01
51.37
51.22
51.76
52.79
53.89
54.57
54.43
53.27
51.13
48.15
44.55
40.44
35.85
30.72
25.10
19.15
13.15
7.35
1.82
-3.69
-9.68
-16.73
-25.15
-34.75
-44.68
-53.51
-59.56
-61.36
-58.14
-50.04
-38.12
-23.98
-9.38
4.29
16.13
25.83
33.40
39.00
42.83
45.03
45.76
45.18
43.55
41.19
38.42
35.56
32.83
30.29
27.84
25.28
22.39
19.03
15.19
10.95
6.40
1.61
-3.42
-8.67
-14.07
-19.49
-24.81
-30.10
-35.71
-42.15
-49.84
-58.66
-67.70
-75.38
-79.88
-79.77
-74.51
-64.61
-51.39
-36.55
-21.59
-7.61
4.77
15.27
23.82
30.45
35.28
38.50
40.41
41.29
41.42
41.03
40.33
39.47
38.56
37.60
36.51
35.07
33.03
30.18
26.34
21.50
15.82
9.60
3.22
-2.94
-8.71
-14.17
-19.67
-25.76
-32.92
-41.42
-51.05
-61.15
-70.50
-77.65
-81.11
-79.77
-73.23
-62.01
-47.41
-31.23
-15.25
-0.86
11.27
21.02
28.71
34.76
39.48
43.00
45.33
46.48
46.54
45.75
44.44
42.94
41.45
40.01
38.46
36.58
34.22
31.35
28.09
24.54
20.74
16.54
11.74
6.16
-0.18
-7.03
-14.09
-21.14
-28.28
-35.85
-44.11
-52.87
-61.23
-67.66
-70.43
-68.25
-60.83
-49.03
-34.56
-19.38
-5.06
7.57
18.34
27.34
34.59
39.90
42.99
43.81
42.71
40.42
37.78
35.46
33.75
32.58
31.71
30.93
30.17
29.48
28.86
28.22
27.36
26.02
23.96
21.06
17.30
12.75
7.50
1.58
-5.09
-12.66
-21.34
-31.24
-42.24
-53.75
-64.64
-73.37
-78.25
-78.09
-72.55
-62.48
-49.71
-36.50
-24.79
-15.61
-9.02
-4.32
-0.66
2.49
5.17
7.19
8.41
9.03
9.55
10.52
12.19
14.37
16.50
17.95
18.30
17.48
15.69
13.22
10.26
6.84
3.03
-1.02
-4.96
-8.42
-11.31
-13.93
-17.13
-21.91
-29.14
-39.03
-50.91
-63.15
-73.51
-79.68
-79.92
-73.67
-61.70
-45.87
-28.48
-11.59
3.54
16.47
27.29
36.16
43.10
47.96
50.74
51.78
51.79
51.46
51.22
51.11
50.84
50.15
48.97
47.49
45.94
44.41
42.72
40.47
37.24
32.74
27.03
20.39
13.30
6.24
-0.45
-6.67
-12.60
-18.63
-25.31
-32.96
-41.47
-50.10
-57.53
-62.15
-62.54
-57.93
-48.48
-35.26
-19.95
-4.34
10.12
22.56
32.67
40.56
46.50
50.78
53.65
55.35
56.13
56.27
56.03
55.58
55.01
54.30
53.42
52.34
50.96
49.09
46.34
42.26
36.36
28.28
17.91
5.33
-9.17
-25.19
-42.16
-59.35
-75.79
-90.47
-102.56
-111.64
-117.75
-121.11
-121.72
-119.22
-112.93
-102.42
-87.95
-70.65
-52.33
-34.79
-19.23
-6.07
4.82
13.75
20.79
25.78
28.62
29.52
29.14
28.38
27.97
28.27
29.11
29.98
30.29
29.64
27.89
25.15
21.63
17.49
12.69
7.10
0.53
-7.12
-15.76
-25.14
-34.95
-45.03
-55.36
-66.01
-76.79
-87.11
-95.91
-102.07
-104.77
-103.92
-100.15
-94.42
-87.54
-79.78
-70.92
-60.63
-49.01
-36.86
-25.49
-16.27
-9.97
-6.53
-5.11
-4.57
-3.95
-2.72
-0.86
1.45
3.98
6.55
8.98
10.97
12.16
12.29
11.42
10.00
8.84
8.70
10.03
12.72
16.14
19.40
21.58
22.15
21.25
19.77
19.26
21.45
27.70
38.46
52.95
69.47
85.88
100.34
111.82
120.17
125.79
129.24
130.83
130.63
128.63
124.95
119.92
113.96
107.41
100.38
92.79
84.51
75.58
66.29
57.11
48.37
40.21
32.42
24.71
16.82
8.68
0.44
-7.75
-15.90
-24.21
-33.01
-42.53
-52.69
-62.98
-72.50
-80.07
-84.48
-84.76
-80.47
-71.81
-59.68
-45.50
-30.82
-17.00
-5.01
4.69
11.99
17.09
20.33
22.13
22.95
23.24
23.30
23.38
23.59
23.96
24.44
24.81
24.69
23.63
21.24
17.42
12.44
6.90
1.46
-3.38
-7.55
-11.40
-15.49
-20.42
-26.60
-34.14
-42.74
-51.71
-59.93
-66.03
-68.62
-66.65
-59.76
-48.46
-34.02
-18.17
-2.58
11.49
23.36
32.94
40.44
46.17
50.34
53.00
54.09
53.63
51.87
49.30
46.59
44.34
42.80
41.81
40.84
39.23
36.53
32.63
27.73
22.28
16.65
11.08
5.65
0.29
-5.09
-10.62
-16.50
-22.92
-30.05
-37.84
-45.91
-53.41
-59.06
-61.42
-59.24
-51.88
-39.59
-23.45
-5.19
13.35
30.66
45.85
58.63
69.17
77.78
84.73
90.22
94.40
97.55
100.01
102.12
104.10
105.90
107.19
107.53
106.48
103.83
99.72
94.58
88.82
82.55
75.36
66.43
54.91
40.47
23.58
5.37
-12.84
-30.26
-46.95
-63.76
-81.63
-100.88
-120.62
-138.94
-153.41
-162.04
-163.95
-159.64
-150.76
-139.52
-128.00
-117.58
-108.75
-101.20
-94.14
-86.71
-78.28
-68.63
-57.94
-46.83
-36.14
-26.76
-19.34
-13.99
-10.30
-7.37
-4.20
-0.08
5.10
10.78
15.95
19.46
20.48
18.74
14.57
8.66
1.82
-5.37
-12.76
-20.57
-29.22
-39.07
-50.19
-62.15
-74.09
-84.77
-92.79
-96.86
-96.05
-90.17
-79.84
-66.45
-51.94
-38.31
-27.34
-20.21
-17.23
-17.79
-20.51
-23.58
-25.28
-24.54
-21.14
-15.71
-9.26
-2.80
2.98
7.71
11.28
13.70
15.01
15.31
14.76
13.52
11.64
9.06
5.67
1.49
-3.24
-8.12
-12.75
-16.88
-20.51
-23.87
-27.20
-30.51
-33.45
-35.25
-34.84
-31.13
-23.29
-11.13
4.81
23.35
42.99
62.36
80.56
97.19
112.26
125.87
138.06
148.68
157.45
164.12
168.52
170.53
170.04
166.96
161.34
153.52
144.27
134.62
125.45
117.03
108.71
99.04
86.34
69.47
48.43
24.54
0.04
-22.77
-42.25
-57.83
-69.86
-79.19
-86.70
-93.07
-98.68
-103.75
-108.21
-111.65
-113.21
-111.68
-105.94
-95.45
-80.65
-62.87
-43.95
-25.67
-9.30
4.51
15.54
23.74
29.16
32.05
32.92
32.67
32.23
32.30
33.02
34.00
34.56
34.14
32.60
30.15
27.23
24.13
20.85
17.05
12.35
6.47
-0.53
-8.22
-15.98
-23.18
-29.42
-34.66
-39.31
-44.07
-49.64
-56.40
-64.17
-72.12
-78.94
-83.24
-83.95
-80.57
-73.30
-62.89
-50.34
-36.72
-22.93
-9.73
2.33
12.74
21.17
27.44
31.58
33.94
35.01
35.34
35.36
35.31
35.21
35.00
34.61
34.04
33.30
32.28
30.74
28.29
24.55
19.41
13.13
6.32
-0.28
-6.08
-10.94
-15.21
-19.61
-25.01
-32.17
-41.37
-52.31
-64.02
-74.99
-83.51
-88.03
-87.51
-81.72
-71.13
-56.78
-39.96
-21.96
-3.91
13.22
28.72
42.10
53.17
62.03
68.89
74.05
77.78
80.32
81.84
82.51
82.42
81.63
80.15
78.05
75.54
72.92
70.49
68.34
66.21
63.49
59.51
53.84
46.65
38.71
31.09
24.77
20.14
16.81
13.82
9.97
4.43
-2.89
-11.25
-19.24
-25.24
-27.96
-26.86
-22.33
-15.59
-8.17
-1.51
3.58
6.97
9.12
10.63
11.90
12.95
13.39
12.70
10.43
6.39
0.70
-6.22
-13.73
-20.97
-27.01
-30.90
-31.91
-29.69
-24.43
-16.84
-8.05
0.60
7.88
12.97
15.60
16.09
15.01
12.97
10.27
6.86
2.55
-2.81
-9.13
-16.13
-23.50
-30.96
-38.31
-45.22
-51.11
-55.14
-56.47
-54.60
-49.65
-42.34
-33.72
-24.86
-16.54
-9.26
-3.29
1.06
3.45
3.43
0.76
-4.54
-12.02
-20.91
-30.24
-39.10
-46.74
-52.59
-56.26
-57.40
-55.91
-52.03
-46.48
-40.46
-35.34
-32.27
-31.70
-33.27
-36.04
-38.96
-41.40
-43.26
-44.91
-46.80
-49.20
-52.16
-55.64
-59.50
-63.47
-66.89
-68.72
-67.68
-62.83
-53.94
-41.72
-27.54
-12.94
0.84
13.05
23.36
31.63
37.79
41.84
44.04
44.92
45.12
45.26
45.64
46.25
46.89
47.31
47.41
47.22
46.78
46.05
44.76
42.58
39.20
34.56
28.86
22.56
16.18
10.11
4.52
-0.67
-5.77
-11.19
-17.41
-24.73
-33.15
-42.10
-50.46
-56.68
-59.25
-57.12
-50.15
-39.08
-25.30
-10.37
4.45
18.42
31.26
42.94
53.35
62.17
69.00
73.63
76.24
77.52
78.36
79.49
81.08
82.60
83.09
81.49
77.10
69.75
59.79
47.89
34.83
21.45
8.58
-2.91
-12.23
-18.86
-22.74
-24.33
-24.52
-24.40
-25.04
-27.27
-31.64
-38.23
-46.61
-55.84
-64.46
-70.88
-73.65
-71.95
-65.68
-55.50
-42.58
-28.25
-13.76
-0.12
11.94
21.97
29.74
35.20
38.48
39.81
39.47
37.83
35.32
32.35
29.32
26.50
24.08
22.16
20.76
19.80
19.06
18.17
16.67
14.18
10.55
5.89
0.56
-4.99
-10.31
-15.14
-19.41
-23.29
-27.12
-31.40
-36.63
-43.18
-51.08
-59.79
-68.28
-75.13
-78.94
-78.82
-74.64
-67.09
-57.36
-46.66
-35.92
-25.59
-15.90
-7.17
0.06
5.04
7.15
6.27
2.95
-1.73
-6.58
-10.73
-13.92
-16.47
-19.06
-22.39
-26.99
-33.06
-40.61
-49.43
-59.12
-68.92
-77.75
-84.34
-87.51
-86.72
-82.27
-75.33
-67.59
-60.81
-56.36
-54.98
-56.88
-61.72
-68.72
-76.62
-83.70
-88.03
-87.89
-82.30
-71.42
-56.47
-39.35
-21.90
-5.31
10.07
24.53
38.44
51.81
64.12
74.55
82.38
87.38
89.95
90.91
91.12
91.27
91.66
92.45
93.75
95.76
98.60
102.13
105.80
108.66
109.51
107.27
101.34
91.81
79.47
65.55
51.35
37.76
25.05
12.83
0.36
-13.07
-27.68
-43.07
-58.16
-71.52
-81.71
-87.60
-88.59
-84.65
-76.24
-64.17
-49.42
-33.02
-15.92
1.07
17.24
32.03
44.97
55.71
64.00
69.83
73.32
74.83
74.89
74.09
72.91
71.66
70.46
69.33
68.28
67.31
66.38
65.20
63.33
60.17
55.26
48.51
40.31
31.41
22.66
14.61
7.42
0.83
-5.62
-12.42
-19.84
-27.85
-36.13
-44.11
-50.99
-55.88
-57.90
-56.41
-51.18
-42.52
-31.29
-18.69
-5.98
5.77
15.93
24.27
30.80
35.61
38.79
40.45
40.83
40.32
39.37
38.35
37.42
36.50
35.39
33.95
32.15
30.14
28.06
25.94
23.61
20.80
17.30
13.12
8.53
3.98
-0.16
-3.78
-7.11
-10.65
-14.95
-20.38
-26.97
-34.34
-41.72
-48.02
-51.95
-52.31
-48.19
-39.32
-26.18
-9.93
7.88
25.70
42.29
56.83
68.84
78.00
84.07
86.87
86.41
83.01
77.38
70.45
63.17
56.21
49.79
43.77
37.89
32.02
26.28
20.97
16.32
12.26
8.39
4.17
-0.85
-6.76
-13.25
-19.76
-25.72
-30.83
-35.12
-38.97
-42.98
-47.81
-53.96
-61.49
-69.88
-78.04
-84.44
-87.58
-86.37
-80.47
-70.33
-57.02
-41.93
-26.38
-11.43
2.23
14.21
24.33
32.46
38.55
42.55
44.51
44.62
43.26
40.90
38.03
35.04
32.13
29.31
26.54
23.83
21.21
18.75
16.36
13.78
10.61
6.47
1.28
-4.71
-10.94
-16.77
-21.82
-26.17
-30.34
-35.05
-40.93
-48.22
-56.55
-65.07
-72.48
-77.44
-78.76
-75.73
-68.24
-56.85
-42.62
-26.88
-10.91
4.27
17.94
29.57
38.81
45.46
49.47
51.14
51.06
49.99
48.66
47.56
46.82
46.23
45.48
44.26
42.49
40.26
37.70
34.83
31.46
27.28
22.03
15.68
8.54
1.14
-5.96
-12.37
-18.05
-23.27
-28.49
-34.22
-40.83
-48.48
-56.96
-65.69
-73.60
-79.36
-81.61
-79.40
-72.47
-61.38
-47.32
-31.72
-15.90
-0.79
13.08
25.34
35.76
44.05
50.05
53.79
55.64
56.15
55.96
55.51
54.96
54.22
53.02
51.16
48.57
45.41
41.85
38.05
34.04
29.67
24.74
19.11
12.82
6.09
-0.67
-7.06
-12.79
-17.86
-22.55
-27.37
-32.83
-39.27
-46.66
-54.58
-62.22
-68.57
-72.62
-73.51
-70.74
-64.26
-54.48
-42.22
-28.54
-14.53
-1.08
11.16
21.78
30.56
37.32
41.97
44.57
45.40
44.92
43.69
42.16
40.57
38.87
36.92
34.57
31.86
28.98
26.14
23.44
20.80
17.93
14.49
10.27
5.26
-0.29
-5.99
-11.43
-16.33
-20.66
-24.64
-28.63
-33.06
-38.23
-44.32
-51.26
-58.67
-65.80
-71.60
-74.83
-74.42
-69.81
-61.23
-49.62
-36.38
-22.96
-10.40
0.69
10.13
17.88
23.90
28.06
30.40
31.18
31.01
30.58
30.45
30.79
31.34
31.59
31.04
29.57
27.36
24.86
22.45
20.22
17.95
15.15
11.40
6.55
0.82
-5.24
-10.98
-15.92
-19.99
-23.58
-27.33
-31.93
-37.81
-44.86
-52.51
-59.71
-65.25
-67.92
-66.78
-61.43
-51.99
-39.28
-24.56
-9.35
5.03
17.60
27.90
35.86
41.67
45.60
47.91
48.93
48.97
48.42
47.62
46.80
46.00
45.08
43.86
42.18
40.05
37.56
34.85
31.94
28.67
24.81
20.09
14.38
7.81
0.74
-6.26
-12.70
-18.25
-23.00
-27.33
-31.90
-37.30
-43.82
-51.24
-58.76
-65.21
-69.31
-70.08
-67.00
-60.15
-50.10
-37.75
-24.14
-10.29
2.95
15.01
25.57
34.55
42.02
48.01
52.46
55.26
56.33
55.76
53.85
51.07
47.90
44.71
41.74
39.09
36.75
34.69
32.72
30.56
27.82
24.17
19.41
13.60
7.05
0.22
-6.44
-12.59
-18.09
-23.03
-27.69
-32.44
-37.61
-43.30
-49.27
-54.99
-59.68
-62.55
-62.97
-60.57
-55.40
-47.80
-38.40
-27.94
-17.19
-6.82
2.59
10.59
16.87
21.31
24.04
25.37
25.78
25.71
25.42
24.94
24.10
22.72
20.67
18.03
15.08
12.19
9.76
8.02
6.95
6.15
4.98
2.73
-1.05
-6.36
-12.66
-19.09
-24.81
-29.34
-32.80
-35.77
-39.04
-43.31
-48.82
-55.26
-61.76
-67.03
-69.73
-68.83
-63.87
-55.14
-43.50
-30.15
-16.26
-2.77
9.69
20.72
30.00
37.23
42.20
44.86
45.50
44.69
43.14
41.51
40.18
39.17
38.23
37.00
35.23
32.87
30.03
26.94
23.75
20.46
16.86
12.71
7.79
2.14
-3.97
-10.11
-15.82
-20.89
-25.41
-29.79
-34.66
-40.56
-47.73
-55.82
-63.87
-70.40
-73.80
-72.83
-67.03
-56.98
-44.06
-29.96
-16.11
-3.24
8.53
19.41
29.39
38.06
44.71
48.77
50.21
49.71
48.30
46.94
46.05
45.44
44.58
43.04
40.80
38.23
35.78
33.64
31.56
28.99
25.42
20.65
14.92
8.71
2.52
-3.37
-8.91
-14.21
-19.43
-24.69
-30.08
-35.71
-41.77
-48.36
-55.33
-62.08
-67.54
-70.35
-69.39
-64.09
-54.75
-42.42
-28.59
-14.62
-1.52
10.15
20.20
28.52
34.96
39.41
41.88
42.65
42.17
40.95
39.34
37.42
35.06
32.08
28.52
24.64
20.97
17.97
15.91
14.65
13.79
12.76
11.06
8.40
4.77
0.34
-4.54
-9.54
-14.42
-19.08
-23.66
-28.51
-34.13
-40.98
-49.22
-58.43
-67.51
-74.89
-78.85
-78.16
-72.42
-62.26
-49.08
-34.61
-20.35
-7.22
4.45
14.80
24.09
32.44
39.86
46.21
51.45
55.71
59.23
62.24
64.74
66.44
66.91
65.87
63.31
59.55
54.95
49.59
43.19
35.27
25.56
14.36
2.56
-8.72
-18.54
-26.51
-32.88
-38.22
-43.20
-48.31
-53.93
-60.28
-67.40
-74.95
-82.06
-87.36
-89.30
-86.65
-78.95
-66.72
-51.30
-34.37
-17.50
-1.76
12.29
24.42
34.57
42.60
48.37
51.87
53.33
53.31
52.52
51.61
50.93
50.47
49.95
48.97
47.31
44.94
42.11
39.08
36.06
33.04
29.80
26.03
21.48
16.14
10.26
4.31
-1.15
-5.74
-9.39
-12.35
-15.16
-18.39
-22.44
-27.36
-32.77
-37.91
-41.82
-43.50
-42.15
-37.37
-29.26
-18.44
-5.97
6.92
18.99
29.34
37.39
42.91
45.96
46.70
45.50
42.86
39.44
35.92
32.83
30.33
28.22
26.13
23.72
20.90
17.86
14.89
12.20
9.76
7.32
4.54
1.19
-2.78
-7.19
-11.78
-16.29
-20.55
-24.54
-28.42
-32.42
-36.84
-41.94
-47.82
-54.20
-60.33
-65.01
-66.94
-65.12
-59.24
-49.82
-37.95
-24.87
-11.50
1.69
14.51
26.79
38.06
47.62
54.75
59.01
60.39
59.28
56.27
51.99
47.04
41.99
37.33
33.39
30.14
27.11
23.57
18.77
12.43
4.91
-2.85
-9.71
-14.78
-17.78
-19.13
-19.63
-20.11
-21.15
-22.99
-25.74
-29.61
-34.88
-41.76
-49.95
-58.42
-65.53
-69.53
-69.27
-64.66
-56.68
-46.86
-36.59
-26.63
-17.09
-7.71
1.60
10.55
18.51
24.86
29.33
32.11
33.77
34.98
36.21
37.59
38.98
40.07
40.58
40.39
39.54
38.16
36.32
33.93
30.77
26.55
21.07
14.41
6.90
-0.91
-8.38
-15.01
-20.55
-25.11
-29.12
-33.31
-38.38
-44.84
-52.68
-61.25
-69.27
-75.09
-77.15
-74.41
-66.70
-54.71
-39.82
-23.57
-7.28
8.17
22.34
34.96
45.84
54.84
61.95
67.40
71.67
75.21
78.21
80.47
81.51
80.78
78.10
73.64
67.90
61.47
54.76
47.90
40.77
33.10
24.67
15.43
5.54
-4.63
-14.62
-23.97
-32.41
-39.78
-46.13
-51.64
-56.54
-61.08
-65.48
-69.78
-73.70
-76.60
-77.54
-75.57
-70.04
-60.91
-48.74
-34.54
-19.44
-4.45
9.65
22.21
32.75
40.84
46.24
48.96
49.28
47.66
44.59
40.51
35.73
30.46
24.92
19.35
14.13
9.61
6.11
3.69
2.09
0.79
-0.91
-3.58
-7.41
-12.19
-17.33
-22.17
-26.30
-29.75
-32.98
-36.68
-41.55
-47.99
-55.97
-64.92
-73.70
-80.75
-84.41
-83.28
-76.71
-65.02
-49.35
-31.38
-12.79
5.08
21.36
35.52
47.22
56.14
62.07
65.10
65.70
64.64
62.86
61.14
60.03
59.86
60.85
63.15
66.85
71.92
78.15
85.30
93.07
101.01
108.23
113.11
113.37
106.63
91.31
67.47
37.04
3.39
-29.83
-59.77
-84.98
-105.34
-121.42
-133.77
-142.46
-147.12
-147.31
-142.75
-133.57
-120.21
-103.31
-83.57
-61.68
-38.51
-15.24
6.53
24.87
37.99
44.79
45.40
41.26
34.72
28.26
23.66
21.43
20.90
20.78
19.86
17.56
14.16
10.50
7.45
5.50
4.53
4.02
3.37
2.29
0.99
-0.03
-0.31
0.17
0.85
0.82
-0.77
-4.40
-9.98
-17.13
-25.37
-34.30
-43.37
-51.72
-58.02
-60.77
-58.79
-51.77
-40.53
-26.74
-12.40
0.90
12.27
21.56
29.01
34.95
39.48
42.53
44.03
44.12
43.35
42.57
42.63
44.09
46.83
50.10
52.68
53.34
51.25
46.30
38.99
30.15
20.59
10.73
0.74
-9.44
-19.63
-29.41
-38.13
-45.25
-50.63
-54.64
-58.08
-61.87
-66.55
-72.05
-77.64
-82.03
-83.84
-81.91
-75.67
-65.32
-51.75
-36.37
-20.64
-5.80
7.39
18.54
27.54
34.30
38.78
41.09
41.67
41.31
40.91
41.18
42.38
44.19
45.98
47.19
47.66
47.67
47.63
47.77
47.87
47.21
44.90
40.27
33.15
24.01
13.77
3.47
-6.11
-14.71
-22.66
-30.70
-39.57
-49.64
-60.58
-71.38
-80.59
-86.79
-88.96
-86.80
-80.59
-71.02
-58.95
-45.22
-30.68
-16.15
-2.45
9.74
19.97
28.19
34.76
40.33
45.55
50.86
56.34
61.74
66.78
71.38
75.76
80.41
85.69
91.58
97.55
102.67
105.99
106.86
105.09
100.95
94.95
87.77
80.17
72.94
66.80
62.20
59.15
57.11
55.20
52.61
49.09
45.33
42.84
43.52
48.88
59.38
74.02
90.64
106.49
119.11
126.96
129.62
127.48
121.18
111.15
97.41
79.70
57.85
32.16
3.69
-25.75
-53.85
-78.35
-97.68
-111.32
-119.89
-124.76
-127.46
-129.22
-130.71
-132.21
-133.90
-136.03
-138.88
-142.39
-146.05
-148.91
-149.89
-148.26
-144.01
-137.80
-130.85
-124.42
-119.46
-116.36
-114.85
-114.13
-113.01
-110.22
-104.67
-95.75
-83.48
-68.56
-52.14
-35.49
-19.65
-5.15
7.87
19.55
29.90
38.72
45.58
50.19
52.52
52.96
52.13
50.61
48.71
46.50
43.88
40.85
37.56
34.27
31.16
28.22
25.18
21.62
17.18
11.71
5.40
-1.32
-7.92
-14.03
-19.64
-25.11
-31.06
-38.02
-46.18
-55.19
-64.21
-72.12
-77.84
-80.57
-79.95
-76.03
-69.23
-60.24
-49.90
-39.15
-28.88
-19.85
-12.62
-7.45
-4.34
-2.97
-2.86
-3.34
-3.75
-3.56
-2.50
-0.58
1.85
4.23
6.05
7.04
7.37
7.63
8.57
10.68
13.91
17.57
20.60
22.03
21.40
19.00
15.73
12.66
10.64
9.94
10.20
10.57
10.02
7.65
3.11
-3.28
-10.51
-17.07
-21.38
-22.23
-19.02
-11.90
-1.66
10.52
23.32
35.56
46.34
55.17
61.98
66.95
70.34
72.41
73.34
73.30
72.62
71.72
70.96
70.51
70.06
68.99
66.62
62.67
57.45
51.77
46.53
42.19
38.59
34.99
30.58
24.90
18.16
11.14
4.82
-0.06
-3.23
-4.97
-5.86
-6.53
-7.42
-8.72
-10.21
-11.38
-11.39
-9.16
-3.58
6.29
20.93
40.20
63.23
88.50
114.06
137.78
157.69
172.24
180.44
181.97
177.07
166.41
150.78
130.88
107.17
79.98
49.77
17.44
-15.67
-47.82
-77.14
-102.02
-121.28
-134.38
-141.48
-143.45
-141.73
-138.05
-134.10
-131.17
-129.98
-130.67
-132.98
-136.40
-140.42
-144.61
-148.68
-152.59
-156.39
-160.04
-163.07
-164.46
-162.79
-156.76
-145.81
-130.54
-112.53
-93.84
-76.23
-60.66
-47.22
-35.54
-25.19
-16.02
-8.10
-1.44
4.21
9.39
14.62
20.10
25.56
30.44
34.23
36.81
38.55
40.16
42.20
44.74
47.35
49.26
49.76
48.52
45.70
41.79
37.37
32.83
28.31
23.63
18.46
12.51
5.60
-2.16
-10.37
-18.34
-25.08
-29.49
-30.53
-27.54
-20.52
-10.18
2.22
15.22
27.59
38.58
47.98
55.90
62.49
67.83
71.85
74.54
76.02
76.66
76.87
76.93
76.78
76.12
74.61
72.10
68.84
65.40
62.36
60.05
58.34
56.70
54.53
51.35
47.13
42.22
37.20
32.63
28.94
26.30
24.64
23.73
23.15
22.39
21.02
18.91
16.43
14.58
14.79
18.49
26.62
39.24
55.41
73.53
91.68
108.22
122.03
132.64
139.97
144.18
145.30
143.21
137.63
128.31
115.35
99.23
80.79
61.03
40.86
21.06
2.37
-14.40
-28.44
-39.19
-46.76
-52.03
-56.43
-61.42
-67.91
-75.79
-84.18
-91.73
-97.21
-99.82
-99.26
-95.75
-90.01
-83.36
-77.73
-75.31
-77.84
-85.83
-98.10
-111.98
-124.24
-132.17
-134.31
-130.72
-122.43
-110.76
-96.84
-81.66
-66.24
-51.89
-40.02
-31.58
-26.69
-24.40
-23.12
-21.20
-17.63
-12.23
-5.64
1.13
7.06
11.49
14.23
15.57
16.13
16.66
17.74
19.50
21.45
22.64
22.15
19.55
15.18
10.05
5.29
1.59
-1.14
-3.72
-7.17
-12.26
-19.20
-27.69
-37.19
-47.13
-56.92
-65.89
-73.16
-77.74
-78.75
-75.79
-69.17
-59.85
-49.24
-38.76
-29.47
-21.97
-16.47
-12.95
-11.22
-10.85
-11.06
-10.72
-8.55
-3.60
4.30
14.47
25.61
36.25
45.38
52.68
58.51
63.54
68.41
73.42
78.53
83.57
88.34
92.82
97.18
101.65
106.47
111.80
117.58
123.52
128.99
132.98
134.17
131.24
123.23
110.02
92.46
72.22
51.27
31.36
13.62
-1.41
-13.58
-22.87
-29.26
-32.92
-34.29
-34.17
-33.49
-33.04
-33.19
-33.83
-34.57
-34.96
-34.74
-33.91
-32.68
-31.30
-29.90
-28.48
-26.88
-24.90
-22.45
-19.66
-16.99
-15.10
-14.74
-16.43
-20.26
-25.81
-32.23
-38.54
-43.92
-47.95
-50.61
-52.25
-53.38
-54.51
-55.95
-57.77
-59.63
-60.81
-60.33
-57.23
-50.88
-41.18
-28.71
-14.48
0.30
14.52
27.36
38.26
46.83
52.80
55.92
56.16
53.69
49.05
43.09
36.81
31.12
26.60
23.29
20.81
18.50
15.78
12.37
8.38
4.10
-0.32
-4.97
-10.28
-16.68
-24.32
-32.89
-41.60
-49.46
-55.60
-59.52
-61.27
-61.36
-60.67
-60.18
-60.75
-62.72
-65.77
-68.96
-70.96
-70.56
-67.05
-60.38
-51.08
-39.93
-27.75
-15.32
-3.40
7.23
15.87
22.16
26.25
28.76
30.47
31.98
33.53
34.97
36.05
36.64
36.77
36.61
36.20
35.54
34.58
33.40
32.15
31.00
29.82
28.16
25.41
21.10
15.27
8.48
1.71
-4.06
-8.01
-9.77
-9.48
-7.77
-5.82
-5.15
-7.24
-12.95
-21.92
-32.40
-41.65
-46.87
-46.20
-39.30
-27.31
-12.22
3.75
18.73
31.20
39.89
43.76
42.26
35.69
25.43
13.78
3.19
-4.55
-8.92
-10.68
-11.34
-12.28
-14.26
-17.19
-20.49
-23.61
-26.42
-29.18
-32.33
-36.16
-40.56
-45.09
-49.22
-52.57
-55.19
-57.46
-60.09
-63.85
-69.24
-76.29
-84.40
-92.47
-99.17
-103.28
-103.90
-100.54
-93.07
-81.57
-66.47
-48.50
-28.78
-8.58
10.88
28.73
44.43
57.76
68.55
76.63
81.87
84.39
84.65
83.23
80.76
77.63
74.17
70.75
68.01
66.71
67.46
70.32
74.58
78.89
81.68
81.61
77.94
70.62
60.17
47.43
33.26
18.29
2.83
-13.13
-29.68
-46.72
-63.77
-79.90
-93.83
-104.29
-110.27
-111.29
-107.63
-100.26
-90.60
-80.15
-69.93
-60.17
-50.25
-39.16
-26.23
-11.65
3.41
17.30
28.63
36.86
42.42
46.24
49.25
51.87
54.06
55.55
56.23
56.22
55.71
54.58
52.32
48.17
41.59
32.62
22.08
11.28
1.54
-6.28
-12.14
-16.76
-21.31
-26.97
-34.48
-43.98
-54.81
-65.68
-74.89
-80.73
-81.82
-77.51
-68.03
-54.46
-38.41
-21.76
-6.23
6.85
16.73
23.42
27.56
30.35
33.07
36.80
41.94
48.16
54.52
59.87
63.31
64.61
64.41
64.02
65.02
68.61
75.03
83.22
91.02
95.74
95.08
87.90
74.73
57.65
39.78
24.39
14.03
9.83
11.28
16.20
21.43
23.69
20.65
11.62
-2.26
-18.46
-34.08
-46.73
-55.39
-60.49
-63.59
-66.45
-70.29
-75.23
-80.26
-83.75
-83.89
-79.50
-70.25
-56.82
-40.44
-22.54
-4.39
12.97
28.72
42.19
52.63
59.25
61.66
60.20
56.05
50.77
45.62
41.28
38.19
36.39
35.63
35.63
36.28
37.53
39.04
39.99
39.27
36.28
30.56
21.70
9.77
-4.07
-17.38
-27.05
-30.41
-25.88
-12.74
7.95
33.41
60.03
84.79
105.96
122.95
135.47
137.93
126.79
103.58
74.32
45.10
19.58
-0.58
-14.38
-22.26
-24.33
-20.16
-10.65
1.06
10.31
12.61
5.17
-11.46
-34.88
-60.87
-84.63
-103.00
-115.60
-124.37
-131.89
-140.00
-149.23
-159.16
-168.69
-176.38
-181.21
-182.77
-180.93
-175.25
-164.80
-148.57
-126.38
-99.20
-69.22
-39.49
-12.85
9.08
26.33
40.21
52.15
62.70
71.40
77.31
79.75
78.91
75.81
71.76
67.85
64.62
62.02
59.67
56.93
52.92
46.75
37.86
26.47
13.81
1.94
-7.00
-11.63
-11.95
-9.40
-6.36
-5.47
-8.87
-17.75
-32.00
-50.15
-69.54
-86.77
-98.41
-101.74
-95.55
-80.32
-58.07
-31.69
-4.16
22.01
45.14
64.47
80.15
92.93
103.77
113.46
122.42
130.58
137.49
142.60
145.48
146.11
144.68
141.21
135.51
127.47
117.39
105.97
94.18
82.81
72.55
63.33
54.25
44.08
32.16
18.84
5.08
-8.13
-20.43
-31.55
-41.76
-51.86
-62.48
-73.25
-82.57
-88.36
-88.87
-83.36
-71.18
-52.60
-28.98
-2.52
24.72
51.10
74.88
94.39
102.42
94.30
71.70
42.41
14.86
-6.04
-19.16
-26.39
-30.25
-32.63
-33.49
-32.54
-30.57
-30.15
-33.23
-40.56
-51.91
-64.91
-75.37
-78.21
-70.59
-53.66
-32.23
-12.48
0.02
0.28
-13.27
-39.38
-73.54
-110.10
-143.85
-170.44
-186.36
-181.00
-151.33
-105.44
-58.33
-22.02
-0.76
7.82
9.25
9.07
10.29
11.92
12.03
9.87
6.58
3.96
3.22
4.49
7.06
9.46
9.72
7.12
2.71
-1.30
-3.03
-1.87
1.46
5.59
9.13
10.55
9.29
5.98
2.12
-0.88
-2.35
-2.53
-2.33
-2.99
-5.82
-11.36
-18.98
-26.90
-32.93
-35.12
-32.43
-24.83
-13.25
0.77
15.63
30.12
43.48
55.30
65.37
73.53
79.73
83.99
86.50
87.55
87.48
86.59
85.14
83.26
81.01
78.40
75.42
72.07
68.40
64.48
60.29
55.74
50.57
44.51
37.41
29.35
20.68
11.97
3.79
-3.49
-9.86
-15.63
-21.41
-27.88
-35.53
-44.42
-54.02
-63.12
-70.10
-73.34
-71.66
-64.80
-53.47
-39.18
-23.73
-8.73
4.75
16.21
25.59
32.95
38.33
41.74
43.29
43.31
42.31
40.89
39.45
38.20
37.07
35.93
34.70
33.40
32.04
30.53
28.60
25.91
22.14
17.20
11.17
4.43
-2.57
-9.31
-15.43
-20.77
-25.57
-30.46
-36.24
-43.58
-52.61
-62.65
-72.26
-79.64
-83.18
-81.97
-75.99
-66.04
-53.41
-39.49
-25.49
-12.32
-0.64
9.18
16.95
22.78
26.93
29.80
31.77
33.12
33.99
34.44
34.51
34.26
33.81
33.21
32.51
31.65
30.56
29.08
27.01
24.04
19.92
14.54
8.05
0.92
-6.23
-12.86
-18.77
-24.23
-29.87
-36.43
-44.39
-53.61
-63.30
-72.00
-78.00
-79.78
-76.48
-68.13
-55.65
-40.49
-24.30
-8.49
5.90
18.23
28.16
35.61
40.69
43.79
45.44
46.23
46.59
46.68
46.45
45.73
44.38
42.44
40.08
37.53
34.95
32.38
29.62
26.37
22.26
17.07
10.82
3.83
-3.37
-10.20
-16.26
-21.52
-26.37
-31.51
-37.69
-45.40
-54.56
-64.36
-73.27
-79.48
-81.29
-77.75
-68.92
-55.88
-40.33
-24.10
-8.63
5.24
17.18
27.16
35.13
41.01
44.69
46.28
46.13
44.88
43.20
41.59
40.27
39.09
37.75
35.97
33.72
31.22
28.73
26.36
23.86
20.68
16.27
10.38
3.25
-4.43
-11.84
-18.44
-24.11
-29.22
-34.32
-39.95
-46.39
-53.63
-61.29
-68.67
-74.74
-78.31
-78.28
-73.92
-65.22
-52.96
-38.48
-23.40
-9.13
3.39
13.71
21.79
27.76
31.79
34.05
34.73
34.20
33.00
31.74
30.92
30.75
31.04
31.30
30.97
29.71
27.46
24.49
21.13
17.56
13.74
9.41
4.38
-1.37
-7.56
-13.81
-19.76
-25.37
-30.94
-37.05
-44.22
-52.62
-61.77
-70.44
-76.84
-79.22
-76.37
-68.08
-55.19
-39.34
-22.40
-5.94
9.00
21.94
32.72
41.36
47.86
52.30
54.86
55.92
55.96
55.55
55.13
54.91
54.82
54.54
53.70
52.09
49.76
46.94
43.87
40.56
36.76
32.09
26.25
19.26
11.53
3.72
-3.52
-9.90
-15.57
-21.10
-27.30
-34.85
-44.03
-54.48
-65.16
-74.54
-80.97
-83.02
-79.91
-71.62
-58.96
-43.31
-26.34
-9.59
5.80
19.16
30.27
39.07
45.60
49.87
52.00
52.32
51.46
50.20
49.15
48.57
48.32
47.95
47.14
45.75
43.93
41.98
40.06
38.15
35.92
32.96
28.87
23.46
16.86
9.47
1.89
-5.27
-11.62
-17.16
-22.38
-28.12
-35.23
-44.17
-54.67
-65.61
-75.13
-81.20
-82.08
-77.03
-66.48
-51.87
-35.12
-18.08
-2.13
11.97
23.83
33.23
40.04
44.20
45.87
45.53
43.94
41.94
40.17
38.86
37.76
36.27
33.69
29.48
23.58
16.47
9.00
2.05
-3.81
-8.51
-12.41
-15.99
-19.61
-23.36
-27.10
-30.67
-34.02
-37.33
-40.87
-44.93
-49.66
-55.09
-61.04
-67.17
-72.88
-77.31
-79.37
-78.00
-72.45
-62.60
-49.04
-32.91
-15.70
1.19
16.65
29.89
40.47
48.15
52.85
54.69
54.07
51.73
48.61
45.66
43.56
42.51
42.25
42.17
41.70
40.51
38.68
36.44
34.04
31.40
28.16
23.85
18.18
11.25
3.61
-3.98
-10.87
-16.77
-21.94
-27.07
-33.08
-40.69
-50.17
-61.00
-71.94
-81.13
-86.60
-86.77
-80.94
-69.47
-53.67
-35.34
-16.36
1.78
18.11
32.09
43.45
52.06
57.87
61.05
61.98
61.37
59.99
58.55
57.45
56.66
55.81
54.44
52.21
49.00
44.98
40.43
35.49
30.13
24.12
17.27
9.57
1.25
-7.26
-15.54
-23.28
-30.32
-36.68
-42.54
-48.27
-54.39
-61.39
-69.42
-77.96
-85.73
-91.02
-92.19
-88.29
-79.39
-66.46
-50.91
-34.07
-16.88
0.14
16.62
32.12
45.93
57.27
65.51
70.50
72.64
72.81
72.02
71.10
70.43
69.98
69.44
68.52
67.12
65.36
63.47
61.63
59.80
57.74
55.06
51.35
46.35
40.09
32.88
25.36
18.27
12.10
6.90
2.11
-3.35
-10.65
-20.54
-32.99
-47.03
-60.87
-72.42
-79.81
-81.92
-78.57
-70.46
-58.84
-45.25
-31.12
-17.66
-5.78
3.96
11.33
16.37
19.39
20.90
21.48
21.68
21.91
22.31
22.79
23.07
22.83
21.89
20.33
18.47
16.73
15.36
14.25
12.86
10.52
6.62
1.04
-5.77
-13.03
-19.86
-25.72
-30.54
-34.69
-38.77
-43.41
-49.09
-56.11
-64.51
-73.88
-83.27
-91.13
-95.65
-95.25
-89.16
-77.73
-62.36
-45.02
-27.57
-11.40
2.73
14.47
23.63
30.08
33.88
35.37
35.30
34.60
34.15
34.49
35.73
37.58
39.57
41.26
42.40
42.86
42.69
41.87
40.33
37.95
34.46
29.68
23.57
16.31
8.41
0.50
-6.87
-13.50
-19.62
-25.82
-32.84
-41.19
-51.00
-61.75
-72.37
-81.36
-87.09
-88.15
-83.69
-73.71
-59.13
-41.61
-23.09
-5.35
10.45
23.81
34.76
43.50
50.20
54.91
57.72
58.88
58.87
58.20
57.25
56.12
54.67
52.76
50.41
47.87
45.47
43.33
41.27
38.74
35.20
30.28
23.98
16.69
8.94
1.28
-5.98
-12.76
-19.22
-25.71
-32.67
-40.53
-49.48
-59.29
-69.14
-77.69
-83.32
-84.56
-80.55
-71.36
-57.95
-41.90
-24.93
-8.52
6.37
19.28
30.09
38.81
45.47
50.16
53.02
54.35
54.57
54.10
53.21
51.93
50.17
47.79
44.88
41.76
38.83
36.35
34.20
31.88
28.73
24.25
18.40
11.60
4.49
-2.37
-8.73
-14.73
-20.74
-27.23
-34.56
-42.92
-52.21
-61.84
-70.66
-77.09
-79.46
-76.52
-68.00
-54.72
-38.40
-21.04
-4.33
10.75
23.88
35.13
44.61
52.32
58.08
61.83
63.76
64.37
64.33
64.29
64.59
65.24
65.92
66.14
65.53
63.93
61.42
58.27
54.82
51.26
47.68
43.94
39.76
34.77
28.56
20.78
11.22
-0.17
-13.26
-27.84
-43.50
-59.50
-74.69
-87.41
-95.91
-98.74
-95.41
-86.56
-73.90
-59.58
-45.51
-32.95
-22.35
-13.72
-6.89
-1.83
1.37
2.72
2.37
0.78
-1.45
-3.69
-5.44
-6.42
-6.63
-6.38
-6.12
-6.42
-7.69
-10.12
-13.57
-17.71
-22.15
-26.56
-30.85
-35.09
-39.56
-44.61
-50.63
-57.90
-66.37
-75.56
-84.40
-91.39
-94.85
-93.45
-86.57
-74.64
-58.97
-41.42
-23.88
-7.70
6.42
18.44
28.62
37.24
44.36
49.90
53.73
55.85
56.46
55.92
54.65
52.96
50.98
48.73
46.14
43.19
39.83
36.07
31.87
27.15
21.85
15.94
9.44
2.41
-5.09
-13.07
-21.53
-30.51
-40.08
-50.20
-60.62
-70.71
-79.29
-84.77
-85.52
-80.41
-69.26
-53.07
-33.73
-13.42
6.00
23.34
38.16
50.51
60.61
68.66
74.78
79.10
81.80
83.24
83.86
84.12
84.33
84.59
84.71
84.33
82.99
80.33
76.10
70.25
62.88
54.21
44.54
34.30
24.00
14.13
5.03
-3.31
-11.36
-19.97
-30.08
-42.33
-56.64
-71.94
-86.24
-97.14
-102.53
-101.28
-93.54
-80.65
-64.55
-47.16
-29.90
-13.58
1.32
14.42
25.19
33.13
37.98
40.05
40.21
39.58
39.09
39.10
39.43
39.53
38.94
37.50
35.40
32.99
30.50
27.89
24.89
21.18
16.57
11.12
5.11
-1.05
-7.06
-12.74
-18.20
-23.76
-29.82
-36.69
-44.29
-51.98
-58.61
-62.71
-62.98
-58.63
-49.73
-37.15
-22.33
-6.93
7.64
20.43
30.98
39.18
45.09
48.78
50.33
49.95
47.99
44.99
41.60
38.39
35.72
33.69
32.17
30.86
29.40
27.43
24.68
20.99
16.40
11.07
5.25
-0.81
-7.00
-13.27
-19.74
-26.56
-34.03
-42.45
-52.13
-63.08
-74.79
-86.04
-95.01
-99.68
-98.45
-90.72
-77.22
-59.75
-40.65
-22.09
-5.58
8.24
19.34
28.01
34.53
39.10
41.90
43.24
43.53
43.31
42.96
42.65
42.31
41.72
40.69
39.10
36.97
34.33
31.16
27.32
22.72
17.34
11.31
4.90
-1.60
-7.99
-14.19
-20.31
-26.66
-33.67
-41.66
-50.61
-59.83
-68.02
-73.42
-74.37
-69.87
-59.96
-45.72
-28.89
-11.46
4.94
19.27
31.09
40.36
47.28
52.01
54.65
55.30
54.20
51.88
49.05
46.46
44.59
43.49
42.75
41.81
40.14
37.50
33.90
29.52
24.51
18.89
12.58
5.56
-2.09
-10.16
-18.39
-26.71
-35.24
-44.30
-54.04
-64.11
-73.40
-80.16
-82.44
-78.89
-69.32
-54.92
-37.79
-20.21
-3.92
10.28
22.27
32.25
40.25
46.12
49.62
50.85
50.30
48.82
47.26
46.10
45.36
44.67
43.52
41.54
38.64
34.91
30.59
25.91
21.02
15.94
10.67
5.12
-0.78
-7.04
-13.66
-20.67
-28.24
-36.66
-46.09
-56.29
-66.30
-74.42
-78.67
-77.47
-70.31
-57.97
-42.30
-25.43
-9.13
5.57
18.29
28.91
37.25
43.03
46.10
46.69
45.45
43.29
41.08
39.34
38.20
37.53
37.10
36.67
35.96
34.70
32.61
29.56
25.59
20.89
15.71
10.25
4.63
-1.12
-7.01
-13.17
-19.90
-27.67
-36.86
-47.36
-58.27
-67.86
-74.01
-74.89
-69.69
-58.96
-44.38
-28.13
-12.23
2.00
14.06
23.89
31.59
37.09
40.24
41.03
39.87
37.56
35.04
33.01
31.66
30.65
29.44
27.66
25.27
22.46
19.41
16.10
12.27
7.63
2.15
-3.96
-10.34
-16.65
-22.79
-28.90
-35.23
-42.10
-49.69
-57.92
-66.43
-74.38
-80.54
-83.47
-81.96
-75.36
-63.98
-48.97
-32.01
-14.91
0.85
14.28
24.91
32.68
37.82
40.79
42.08
42.25
41.72
40.80
39.74
38.72
37.92
37.45
37.22
36.88
35.94
33.88
30.37
25.42
19.34
12.60
5.66
-1.22
-7.99
-14.69
-21.41
-28.25
-35.36
-43.02
-51.52
-60.88
-70.50
-79.07
-84.67
-85.41
-80.13
-68.86
-52.91
-34.42
-15.65
1.71
16.75
29.27
39.41
47.33
53.05
56.59
58.09
57.96
56.84
55.38
54.10
53.15
52.41
51.57
50.34
48.53
46.08
42.90
38.92
34.08
28.42
22.07
15.32
8.48
1.71
-4.99
-11.86
-19.23
-27.41
-36.55
-46.51
-56.77
-66.39
-74.08
-78.40
-78.10
-72.53
-61.86
-47.13
-29.99
-12.32
4.28
18.76
30.68
40.09
47.26
52.55
56.23
58.57
59.76
60.06
59.65
58.65
57.09
54.97
52.40
49.52
46.53
43.40
39.74
34.72
27.34
16.86
3.21
-12.72
-29.37
-44.84
-57.56
-66.70
-72.35
-75.41
-77.29
-79.46
-83.04
-88.34
-94.68
-100.56
-103.98
-103.07
-96.75
-84.93
-68.48
-48.84
-27.70
-6.63
12.88
29.47
42.07
50.03
53.36
52.66
49.03
43.64
37.55
31.51
26.02
21.41
17.84
15.39
13.95
13.31
13.15
13.10
12.76
11.72
9.57
6.06
1.25
-4.50
-10.56
-16.33
-21.44
-25.93
-30.23
-34.97
-40.80
-48.12
-56.84
-66.23
-74.84
-80.81
-82.31
-78.16
-68.23
-53.46
-35.57
-16.50
2.10
19.05
33.69
45.62
54.64
60.70
64.02
65.09
64.65
63.49
62.30
61.48
61.14
61.07
60.85
60.01
58.21
55.36
51.56
47.05
41.95
36.24
29.74
22.30
14.01
5.25
-3.42
-11.46
-18.69
-25.33
-32.00
-39.45
-48.26
-58.52
-69.68
-80.49
-89.26
-94.13
-93.68
-87.24
-75.22
-58.88
-40.06
-20.61
-2.04
14.72
29.28
41.49
51.29
58.57
63.26
65.50
65.80
64.95
63.88
63.26
63.30
63.69
63.85
63.23
61.58
59.07
56.11
53.08
50.03
46.66
42.46
37.05
30.39
22.92
15.32
8.28
2.12
-3.29
-8.48
-14.08
-20.65
-28.41
-37.21
-46.48
-55.21
-61.96
-65.14
-63.43
-56.23
-44.03
-28.32
-11.13
5.63
20.61
33.24
43.44
51.30
56.73
59.61
59.99
58.34
55.54
52.59
50.24
48.68
47.51
46.00
43.49
39.68
34.69
29.00
23.08
17.27
11.58
5.75
-0.64
-7.93
-16.17
-25.12
-34.14
-42.48
-49.55
-55.21
-59.89
-64.43
-69.84
-76.83
-85.47
-94.97
-103.83
-110.17
-112.25
-108.96
-100.17
-86.70
-70.07
-52.03
-34.16
-17.60
-3.04
9.10
18.62
25.39
29.52
31.44
31.93
31.97
32.44
33.80
35.92
38.18
39.78
40.18
39.33
37.61
35.54
33.41
31.14
28.31
24.43
19.29
13.04
6.17
-0.79
-7.47
-13.85
-20.15
-26.74
-33.96
-42.09
-51.25
-61.29
-71.65
-81.19
-88.32
-91.27
-88.70
-80.18
-66.42
-49.12
-30.34
-11.93
4.91
19.64
32.12
42.28
50.02
55.24
58.07
59.00
58.74
58.09
57.61
57.46
57.42
57.08
56.05
54.16
51.52
48.39
45.03
41.55
37.81
33.47
28.20
21.83
14.50
6.67
-1.13
-8.49
-15.34
-22.00
-29.02
-37.03
-46.44
-57.23
-68.75
-79.72
-88.42
-93.04
-92.19
-85.40
-73.22
-57.10
-38.87
-20.33
-2.83
12.76
26.00
36.66
44.72
50.35
53.97
56.22
57.73
58.95
60.00
60.76
60.95
60.38
59.00
56.92
54.34
51.40
48.24
44.90
41.31
37.24
32.36
26.28
18.75
9.90
0.32
-9.14
-17.69
-24.88
-30.89
-36.41
-42.35
-49.54
-58.33
-68.41
-78.74
-87.69
-93.36
-94.14
-89.14
-78.50
-63.43
-45.81
-27.68
-10.66
4.23
16.62
26.48
33.94
39.05
41.89
42.73
42.13
40.90
39.80
39.32
39.36
39.50
39.13
37.91
35.89
33.34
30.53
27.45
23.84
19.36
13.89
7.65
1.12
-5.17
-10.93
-16.20
-21.35
-26.89
-33.25
-40.77
-49.52
-59.30
-69.48
-78.94
-86.13
-89.39
-87.38
-79.58
-66.51
-49.71
-31.16
-12.81
4.00
18.65
31.05
41.32
49.51
55.56
59.40
61.17
61.35
60.60
59.60
58.78
58.15
57.39
56.03
53.82
50.81
47.33
43.79
40.38
36.90
32.82
27.59
20.88
12.75
3.75
-5.41
-14.03
-21.71
-28.56
-35.06
-42.02
-50.19
-59.98
-71.08
-82.33
-91.90
-97.68
-97.97
-92.01
-80.22
-64.15
-45.87
-27.37
-10.06
5.43
19.05
31.05
41.51
50.30
57.15
61.88
64.64
65.88
66.22
66.19
66.03
65.66
64.80
63.23
60.96
58.19
55.21
52.16
48.89
45.04
40.15
33.92
26.38
17.92
9.14
0.61
-7.35
-14.74
-21.83
-29.04
-36.76
-45.31
-54.85
-65.28
-76.15
-86.50
-94.93
-99.79
-99.66
-93.85
-82.66
-67.42
-50.02
-32.36
-15.87
-1.27
11.30
21.96
30.78
37.68
42.47
45.14
45.98
45.65
44.98
44.58
44.64
44.85
44.62
43.44
41.18
38.15
34.90
31.89
29.16
26.30
22.68
17.69
11.14
3.33
-5.06
-13.20
-20.52
-26.89
-32.66
-38.46
-44.98
-52.70
-61.69
-71.50
-81.20
-89.51
-94.94
-96.10
-91.99
-82.28
-67.47
-48.91
-28.54
-8.40
9.82
25.08
37.11
46.15
52.69
57.13
59.77
60.83
60.68
59.84
58.88
58.10
57.44
56.51
54.84
52.33
49.20
45.97
43.05
40.39
37.46
33.43
27.63
19.90
10.73
1.02
-8.26
-16.49
-23.60
-30.03
-36.50
-43.81
-52.53
-62.79
-74.14
-85.48
-95.13
-101.20
-102.04
-96.82
-85.78
-70.19
-51.91
-32.82
-14.38
2.55
17.53
30.43
41.13
49.60
55.87
60.15
62.78
64.24
65.00
65.44
65.76
65.86
65.42
64.02
61.42
57.71
53.30
48.75
44.43
40.27
35.79
30.40
23.76
16.03
7.78
-0.25
-7.57
-14.09
-20.16
-26.36
-33.34
-41.60
-51.34
-62.36
-73.86
-84.46
-92.36
-95.80
-93.60
-85.62
-72.85
-56.97
-39.84
-22.89
-6.91
7.85
21.29
33.22
43.18
50.66
55.37
57.43
57.50
56.43
55.10
54.06
53.43
52.97
52.28
51.04
49.10
46.58
43.70
40.64
37.41
33.74
29.18
23.33
16.03
7.57
-1.32
-9.81
-17.30
-23.68
-29.38
-35.15
-41.66
-49.33
-58.21
-67.95
-77.96
-87.21
-94.36
-97.88
-96.41
-89.31
-76.98
-60.86
-42.93
-25.15
-8.86
5.25
17.04
26.55
33.76
38.67
41.39
42.33
42.14
41.53
40.97
40.55
40.06
39.18
37.68
35.64
33.32
30.98
28.70
26.21
23.00
18.51
12.44
4.91
-3.55
-12.13
-20.07
-26.95
-32.78
-38.08
-43.66
-50.32
-58.54
-68.28
-78.75
-88.47
-95.50
-97.97
-94.59
-85.17
-70.67
-52.90
-33.93
-15.41
1.72
17.25
31.22
43.60
54.02
61.91
66.87
69.05
69.17
68.31
67.43
66.99
66.84
66.47
65.39
63.49
61.11
58.78
56.81
54.99
52.68
49.01
43.36
35.66
26.42
16.55
6.97
-1.70
-9.35
-16.34
-23.32
-31.03
-40.02
-50.51
-62.23
-74.30
-85.23
-93.19
-96.44
-93.86
-85.29
-71.60
-54.44
-35.72
-17.13
0.18
15.69
29.31
41.09
50.94
58.65
63.90
66.55
66.80
65.25
62.65
59.70
56.73
53.69
50.40
46.74
42.94
39.36
36.32
33.77
31.23
27.97
23.41
17.39
10.26
2.73
-4.45
-10.81
-16.32
-21.31
-26.36
-32.13
-39.14
-47.64
-57.44
-67.76
-77.26
-84.23
-87.03
-84.54
-76.58
-63.92
-48.05
-30.64
-13.15
3.40
18.36
31.26
41.65
49.14
53.58
55.24
54.89
53.59
52.33
51.71
51.76
52.07
52.01
51.10
49.19
46.53
43.55
40.59
37.61
34.16
29.55
23.23
15.16
5.97
-3.25
-11.34
-17.63
-22.15
-25.64
-29.19
-33.79
-40.03
-48.00
-57.33
-67.21
-76.43
-83.41
-86.54
-84.52
-76.95
-64.47
-48.70
-31.65
-15.14
-0.37
12.15
22.34
30.14
35.29
37.36
36.14
31.94
25.76
19.08
13.32
9.33
7.13
6.15
5.65
5.27
5.18
5.91
7.76
10.44
12.94
13.85
12.07
7.22
-0.13
-8.75
-17.19
-24.38
-29.82
-33.65
-36.50
-39.28
-42.91
-48.14
-55.12
-63.23
-71.00
-76.38
-77.22
-72.08
-60.65
-43.93
-23.87
-2.67
17.80
36.44
52.76
66.66
78.02
86.71
92.64
96.04
97.54
97.96
98.05
98.10
97.89
96.77
94.11
89.64
83.66
76.87
70.09
63.71
57.59
51.14
43.68
34.84
24.73
13.94
3.14
-7.20
-16.95
-26.35
-35.76
-45.57
-56.04
-67.41
-79.76
-92.77
-105.54
-116.46
-123.52
-124.94
-119.83
-108.51
-92.53
-74.09
-55.30
-37.60
-21.60
-7.23
5.72
17.16
26.72
33.82
38.15
39.91
39.91
39.18
38.72
39.00
39.96
41.22
42.32
43.04
43.43
43.71
43.99
44.26
44.17
43.23
40.92
36.88
31.13
24.11
16.63
9.53
3.36
-1.91
-6.92
-12.62
-19.86
-29.03
-39.78
-51.23
-61.99
-70.54
-75.39
-75.42
-70.07
-59.60
-45.08
-28.15
-10.62
5.97
20.68
33.03
42.83
49.90
54.00
55.01
53.17
49.22
44.21
39.23
34.99
31.63
28.75
25.70
21.92
17.16
11.55
5.50
-0.52
-6.24
-11.70
-17.28
-23.51
-30.84
-39.26
-48.35
-57.21
-64.98
-71.16
-75.84
-79.74
-83.93
-89.43
-96.81
-105.88
-115.66
-124.39
-129.96
-130.37
-124.31
-111.66
-93.49
-71.76
-48.71
-26.16
-5.19
13.77
30.58
45.01
56.61
65.03
70.27
72.94
74.17
75.15
76.67
78.85
81.15
82.84
83.40
82.79
81.49
80.10
78.96
77.92
76.36
73.49
68.71
61.83
53.02
42.64
31.03
18.35
4.68
-9.87
-25.11
-40.80
-56.76
-72.96
-89.21
-105.09
-119.51
-130.80
-137.07
-136.79
-129.40
-115.49
-96.78
-75.46
-53.62
-32.69
-13.35
4.32
20.35
34.62
46.77
56.36
63.20
67.58
70.18
71.91
73.41
74.93
76.18
76.69
76.02
74.14
71.35
68.23
65.23
62.47
59.65
56.17
51.37
44.89
36.85
27.76
18.39
9.41
1.21
-6.24
-13.30
-20.51
-28.46
-37.57
-48.03
-59.48
-70.92
-80.70
-86.80
-87.44
-81.74
-70.09
-54.06
-35.89
-17.69
-0.88
13.99
27.00
38.37
48.11
55.98
61.64
65.02
66.42
66.44
65.76
64.83
63.86
62.81
61.55
60.07
58.43
56.73
55.02
53.16
50.81
47.45
42.55
35.77
27.10
16.89
5.70
-5.97
-17.95
-30.51
-44.16
-59.33
-76.03
-93.67
-111.25
-127.52
-141.22
-151.13
-156.15
-155.32
-148.13
-134.78
-116.24
-94.14
-70.39
-46.69
-24.36
-4.19
13.36
28.00
39.60
48.22
54.28
58.55
61.94
65.23
68.84
72.67
76.24
78.90
80.19
80.06
78.87
77.20
75.40
73.41
70.62
66.21
59.59
50.72
40.21
29.08
18.29
8.37
-0.82
-10.04
-20.35
-32.84
-48.39
-67.38
-89.35
-112.67
-134.48
-151.15
-159.19
-156.52
-143.28
-121.91
-96.31
-70.41
-46.90
-26.78
-9.63
5.38
18.68
30.09
39.09
45.48
49.73
52.91
56.11
59.92
64.09
67.79
70.11
70.63
69.72
68.25
67.11
66.72
66.75
66.38
64.67
61.12
55.90
49.69
43.34
37.42
31.93
26.36
19.97
12.09
2.41
-9.05
-21.97
-35.81
-49.77
-62.65
-72.87
-78.71
-78.77
-72.51
-60.61
-44.86
-27.64
-11.20
2.79
13.49
20.70
24.52
25.21
23.20
19.34
14.90
11.40
10.17
11.87
16.33
22.70
29.81
36.65
42.58
47.30
50.65
52.34
51.86
48.51
41.65
30.90
16.44
-0.88
-19.53
-37.57
-53.11
-64.82
-72.39
-76.59
-78.92
-81.14
-84.64
-90.01
-96.91
-104.11
-109.84
-112.23
-109.83
-101.97
-88.86
-71.51
-51.37
-29.97
-8.65
11.52
29.64
44.93
56.81
64.99
69.70
71.72
72.20
72.31
72.88
74.24
76.16
78.10
79.48
79.93
79.42
78.11
76.21
73.76
70.62
66.56
61.39
55.20
48.31
41.27
34.59
28.59
23.21
17.95
12.03
4.50
-5.54
-18.70
-35.04
-53.88
-73.66
-92.15
-106.90
-115.94
-118.28
-114.21
-104.90
-91.83
-76.09
-58.15
-38.09
-16.12
6.92
29.53
49.96
66.86
79.67
88.73
94.85
98.80
100.85
100.73
97.93
92.05
83.26
72.26
60.10
47.87
36.24
25.39
15.06
4.84
-5.60
-16.22
-26.57
-35.93
-43.48
-48.68
-51.52
-52.65
-53.17
-54.35
-57.11
-61.86
-68.45
-76.41
-85.06
-93.52
-100.63
-104.89
-104.82
-99.40
-88.72
-74.21
-58.22
-43.25
-30.94
-21.58
-14.27
-7.52
-0.09
8.52
18.16
28.38
38.84
49.44
60.05
70.22
79.10
85.69
89.33
90.08
88.67
86.12
83.20
80.05
76.33
71.45
64.98
56.77
46.83
35.20
21.78
6.50
-10.42
-28.39
-46.39
-63.26
-78.00
-89.98
-99.00
-105.01
-107.91
-107.42
-103.12
-94.72
-82.29
-66.45
-48.32
-29.28
-10.66
6.42
21.13
32.91
41.39
46.40
47.97
46.36
41.99
35.30
26.75
16.82
6.14
-4.44
-13.91
-21.16
-25.22
-25.52
-22.10
-15.70
-7.71
0.11
6.03
8.83
8.05
4.15
-1.82
-8.60
-15.24
-21.27
-26.78
-32.14
-37.77
-44.00
-51.05
-58.99
-67.63
-76.29
-83.66
-87.94
-87.27
-80.49
-67.60
-49.92
-29.61
-8.92
10.53
28.00
43.39
56.83
68.25
77.36
83.83
87.68
89.34
89.63
89.35
89.00
88.63
87.96
86.61
84.30
80.98
76.81
72.08
67.03
61.85
56.55
50.98
44.91
38.11
30.52
22.26
13.64
5.08
-3.19
-11.11
-18.95
-27.12
-36.02
-45.94
-56.90
-68.63
-80.43
-91.15
-99.25
-103.14
-101.55
-94.03
-81.13
-64.26
-45.20
-25.60
-6.60
11.13
27.24
41.38
53.09
61.91
67.65
70.56
71.47
71.49
71.63
72.43
73.72
74.79
74.82
73.32
70.39
66.63
62.68
58.89
55.07
50.61
44.92
37.66
29.00
19.38
9.42
-0.46
-9.97
-19.09
-27.97
-36.90
-46.21
-56.20
-67.03
-78.64
-90.62
-102.16
-112.02
-118.68
-120.68
-117.10
-108.05
-94.71
-79.01
-63.02
-48.28
-35.51
-24.78
-15.99
-9.28
-5.05
-3.72
-5.30
-9.20
-14.34
-19.60
-24.22
-28.06
-31.63
-35.67
-40.93
-47.90
-56.74
-67.29
-79.16
-91.75
-104.28
-115.83
-125.44
-132.32
-136.01
-136.63
-134.85
-131.83
-128.81
-126.89
-126.69
-128.28
-131.19
-134.40
-136.50
-135.87
-131.09
-121.34
-106.79
-88.65
-68.78
-49.12
-30.94
-14.59
0.36
14.66
28.75
42.46
55.18
66.22
75.28
82.59
88.74
94.43
100.07
105.67
110.97
115.68
119.68
123.10
126.26
129.46
132.73
135.78
138.00
138.71
137.40
133.86
128.14
120.42
110.85
99.36
85.83
70.22
52.73
33.79
14.00
-5.97
-25.33
-43.00
-57.48
-66.94
-69.76
-65.16
-53.74
-37.43
-18.96
-1.00
14.68
27.54
37.93
46.54
53.76
59.48
63.33
65.09
65.08
64.13
63.25
63.16
63.92
65.05
65.73
65.30
63.51
60.59
57.01
53.27
49.64
46.11
42.49
38.48
33.88
28.69
23.18
17.82
13.12
9.46
6.87
4.96
3.03
0.25
-3.99
-9.89
-17.02
-24.45
-30.81
-34.70
-34.94
-30.88
-22.59
-10.78
3.36
18.56
33.75
48.29
61.90
74.57
86.24
96.73
105.80
113.39
119.74
125.44
131.19
137.51
144.63
152.46
160.88
169.85
179.41
189.49
199.77
209.60
218.12
224.40
227.55
226.74
221.25
210.57
194.72
174.41
151.12
126.73
103.00
81.10
61.37
43.48
26.68
10.21
-6.65
-24.41
-43.22
-62.66
-81.51
-97.89
-109.67
-115.23
-114.26
-107.95
-98.64
-88.96
-80.91
-75.31
-71.92
-70.02
-69.04
-68.84
-69.62
-71.51
-74.26
-77.18
-79.45
-80.54
-80.46
-79.81
-79.46
-80.22
-82.60
-86.61
-91.89
-97.77
-103.50
-108.39
-111.97
-114.08
-114.80
-114.26
-112.43
-109.13
-104.21
-97.93
-91.30
-85.96
-83.71
-85.62
-91.32
-98.86
-105.26
-107.54
-103.80
-93.80
-78.80
-60.93
-42.24
-24.12
-7.18
8.43
22.55
34.70
44.06
49.86
51.85
50.52
46.99
42.55
38.17
34.21
30.52
26.84
23.06
19.34
15.84
12.40
8.36
2.87
-4.60
-13.74
-23.26
-31.23
-35.89
-36.22
-32.34
-25.18
-16.12
-6.55
2.17
8.48
10.48
6.30
-5.10
-23.03
-44.60
-65.19
-79.86
-85.15
-80.18
-66.73
-48.27
-28.38
-9.66
6.74
20.55
31.70
39.93
44.80
46.20
44.81
41.99
39.43
38.49
39.82
43.38
48.88
56.11
65.26
76.69
90.56
106.46
123.24
139.23
152.71
162.37
167.53
168.05
164.20
156.45
145.40
131.75
116.28
99.71
82.52
64.76
46.18
26.59
6.25
-13.84
-32.01
-46.44
-55.73
-59.42
-58.10
-53.21
-46.56
-39.90
-34.55
-31.29
-30.29
-31.29
-33.69
-36.72
-39.69
-42.01
-43.35
-43.60
-42.93
-41.75
-40.68
-40.36
-41.27
-43.42
-46.31
-49.13
-51.14
-52.11
-52.51
-53.34
-55.55
-59.53
-64.79
-70.19
-74.44
-76.78
-77.26
-76.72
-76.38
-77.33
-80.25
-85.26
-92.09
-100.15
-108.52
-115.89
-120.65
-121.17
-116.39
-106.23
-91.78
-74.98
-57.99
-42.53
-29.48
-18.98
-10.68
-4.22
0.73
4.47
7.32
9.63
11.60
13.17
14.02
13.80
12.46
10.37
8.25
6.75
6.10
5.99
5.68
4.43
1.79
-2.17
-6.99
-12.08
-16.99
-21.46
-25.48
-29.21
-32.87
-36.81
-41.48
-47.44
-55.13
-64.60
-75.15
-85.31
-93.00
-96.18
-93.46
-84.67
-70.90
-54.11
-36.48
-19.74
-4.83
8.01
18.98
28.26
35.89
41.75
45.76
48.10
49.23
49.78
50.34
51.16
52.01
52.44
51.94
50.40
48.17
45.95
44.37
43.60
43.16
42.03
39.13
33.73
25.81
15.96
5.26
-5.11
-14.26
-21.81
-28.05
-33.91
-40.60
-49.22
-60.12
-72.53
-84.61
-93.88
-98.05
-95.81
-87.21
-73.57
-56.93
-39.31
-22.32
-6.87
6.61
17.96
27.08
33.91
38.50
41.17
42.53
43.25
43.91
44.75
45.68
46.31
46.21
45.16
43.23
40.82
38.39
36.18
34.02
31.29
27.18
21.12
13.07
3.63
-6.22
-15.50
-23.68
-30.72
-37.07
-43.30
-49.94
-57.28
-65.38
-73.93
-82.13
-88.73
-92.10
-90.78
-83.95
-71.85
-55.81
-37.78
-19.71
-3.01
11.70
24.38
35.18
44.16
51.19
56.14
59.08
60.35
60.52
60.12
59.46
58.61
57.46
55.95
54.18
52.42
50.85
49.42
47.59
44.53
39.49
32.16
22.87
12.59
2.51
-6.37
-13.65
-19.66
-25.28
-31.62
-39.60
-49.65
-61.42
-73.82
-85.14
-93.36
-96.61
-93.69
-84.33
-69.34
-50.31
-29.21
-7.90
12.25
30.51
46.61
60.47
72.03
81.05
87.33
90.88
92.09
91.67
90.46
89.01
87.50
85.81
83.72
81.22
78.50
75.84
73.28
70.46
66.69
61.26
53.80
44.51
34.10
23.55
13.81
5.48
-1.30
-6.89
-12.05
-17.79
-25.09
-34.58
-46.16
-58.80
-70.56
-79.07
-82.12
-78.47
-68.17
-52.50
-33.49
-13.33
6.15
23.61
38.20
49.34
56.70
60.25
60.42
58.16
54.78
51.68
49.91
49.96
51.56
53.93
56.07
57.25
57.18
56.15
54.73
53.43
52.37
51.07
48.68
44.29
37.38
27.97
16.71
4.44
-8.02
-20.27
-32.36
-44.66
-57.54
-71.12
-85.08
-98.59
-110.51
-119.56
-124.61
-124.93
-120.39
-111.41
-98.83
-83.60
-66.70
-49.00
-31.43
-14.86
-0.13
12.23
22.08
29.67
35.38
39.60
42.57
44.45
45.49
46.13
46.83
47.92
49.42
50.95
52.00
52.20
51.34
49.42
46.44
42.35
37.08
30.67
23.39
15.74
8.25
1.26
-5.26
-11.72
-18.82
-27.25
-37.42
-49.28
-62.14
-74.73
-85.37
-92.18
-93.65
-88.99
-78.42
-63.14
-44.98
-25.88
-7.46
9.25
23.79
35.99
45.75
52.98
57.64
59.96
60.55
60.17
59.53
58.99
58.46
57.61
56.14
54.02
51.54
49.12
47.01
45.09
42.81
39.46
34.43
27.51
18.98
9.46
-0.31
-9.69
-18.37
-26.39
-34.22
-42.59
-52.31
-63.90
-77.23
-91.23
-103.96
-112.96
-115.94
-111.55
-99.81
-82.12
-60.82
-38.49
-17.21
1.77
18.01
31.68
43.09
52.51
59.96
65.45
69.04
71.04
71.92
72.20
72.25
72.06
71.32
69.63
66.84
63.14
59.06
55.13
51.55
47.98
43.64
37.67
29.65
19.91
9.41
-0.64
-9.40
-16.78
-23.45
-30.50
-38.91
-49.17
-61.07
-73.77
-85.95
-95.92
-101.92
-102.46
-96.70
-84.79
-68.00
-48.37
-28.19
-9.39
6.83
19.97
30.11
37.47
42.31
44.91
45.72
45.32
44.41
43.56
43.02
42.70
42.23
41.27
39.73
37.75
35.59
33.41
31.02
27.94
23.62
17.70
10.17
1.46
-7.80
-16.91
-25.36
-32.84
-39.44
-45.57
-52.02
-59.71
-69.38
-81.09
-93.91
-105.85
-114.31
-116.82
-111.87
-99.52
-81.35
-59.94
-38.02
-17.58
0.40
15.88
29.21
40.62
49.94
56.78
60.76
61.86
60.45
57.15
52.64
47.43
41.79
35.81
29.36
22.26
14.23
5.10
-5.25
-16.84
-29.50
-42.88
-56.30
-68.80
-79.17
-86.29
-89.48
-88.81
-85.23
-80.37
-76.12
-74.01
-74.82
-78.27
-83.07
-87.20
-88.37
-84.65
-74.97
-59.42
-39.18
-16.09
7.96
31.58
54.11
75.45
95.70
114.66
131.65
145.68
155.87
161.93
164.23
163.69
161.26
157.45
152.20
144.99
135.15
122.18
105.99
86.92
65.76
43.67
22.06
2.36
-14.39
-27.85
-38.54
-47.51
-55.94
-64.55
-73.40
-81.95
-89.42
-95.26
-99.38
-102.05
-103.67
-104.30
-103.47
-100.18
-93.31
-82.03
-66.24
-46.66
-24.67
-1.85
20.42
41.25
60.20
77.18
92.17
105.11
115.94
124.69
131.49
136.54
140.04
142.04
142.37
140.74
136.87
130.64
122.21
111.99
100.52
88.23
75.24
61.39
46.38
30.05
12.52
-5.67
-23.77
-41.09
-57.31
-72.55
-87.37
-102.52
-118.68
-136.15
-154.51
-172.39
-187.55
-197.37
-199.50
-192.89
-178.11
-157.27
-133.17
-108.34
-84.32
-61.53
-39.81
-19.08
0.20
17.25
31.33
42.37
51.05
58.51
65.88
73.76
82.16
90.66
98.75
106.09
112.49
117.75
121.47
123.01
121.56
116.44
107.27
94.11
77.38
57.66
35.63
11.74
-13.59
-40.02
-66.95
-93.42
-118.12
-139.51
-156.16
-167.00
-171.49
-169.64
-161.90
-148.98
-131.79
-111.25
-88.26
-63.67
-38.38
-13.25
10.72
32.50
51.14
66.05
77.18
85.19
91.20
96.57
102.41
109.39
117.46
126.03
134.24
141.23
146.33
149.08
149.14
146.15
139.71
129.48
115.41
97.90
77.76
56.22
34.58
14.05
-4.55
-20.88
-35.13
-47.91
-60.01
-72.10
-84.34
-96.28
-106.68
-113.84
-115.92
-111.50
-100.00
-82.00
-59.19
-33.94
-8.78
14.18
33.55
48.65
59.27
65.53
67.81
66.85
63.81
60.10
57.08
55.62
55.84
57.27
59.10
60.66
61.45
61.17
59.47
55.97
50.27
42.30
32.46
21.56
10.65
0.63
-7.94
-14.97
-20.75
-25.87
-31.03
-37.08
-44.81
-54.88
-67.49
-82.02
-96.94
-109.87
-118.19
-119.90
-114.34
-102.54
-86.72
-69.64
-53.52
-39.61
-28.19
-18.90
-11.28
-5.03
-0.06
3.70
6.38
8.25
9.58
10.56
11.30
11.79
11.96
11.75
11.15
10.20
9.07
7.92
6.75
5.24
2.90
-0.82
-6.09
-12.63
-19.77
-26.72
-32.96
-38.49
-43.76
-49.49
-56.36
-64.68
-74.31
-84.58
-94.32
-101.96
-105.84
-104.60
-97.61
-85.27
-69.00
-50.83
-32.73
-16.11
-1.61
10.78
21.24
29.85
36.39
40.50
42.06
41.33
38.98
35.90
32.88
30.37
28.52
27.22
26.22
25.25
24.08
22.47
20.21
17.14
13.22
8.64
3.74
-0.96
-5.01
-8.10
-10.24
-11.70
-13.01
-14.97
-18.42
-24.11
-32.25
-42.29
-52.78
-61.59
-66.45
-65.71
-58.89
-46.88
-31.56
-15.18
0.38
13.97
25.25
34.40
41.84
48.00
53.19
57.65
61.55
64.94
67.72
69.66
70.42
69.71
67.41
63.75
59.11
54.03
48.95
44.01
39.04
33.58
27.08
19.07
9.41
-1.62
-13.38
-25.16
-36.36
-46.85
-56.95
-67.38
-78.98
-92.29
-107.30
-123.15
-138.25
-150.52
-157.97
-159.21
-153.81
-142.48
-126.79
-108.92
-91.15
-75.50
-63.55
-56.13
-53.21
-53.73
-55.81
-57.17
-55.70
-50.22
-40.74
-28.40
-15.07
-2.67
7.42
14.47
18.55
20.20
20.14
19.08
17.53
15.79
13.94
11.93
9.63
6.88
3.61
-0.16
-4.24
-8.35
-12.19
-15.63
-18.95
-22.81
-28.08
-35.35
-44.54
-54.56
-63.45
-68.98
-69.18
-63.15
-51.18
-34.62
-15.40
4.46
23.28
39.73
52.89
62.12
67.16
68.19
66.02
61.91
57.30
53.32
50.49
48.55
46.83
44.74
42.14
39.46
37.36
36.28
36.09
36.05
35.20
32.88
29.06
24.40
19.82
16.02
13.14
10.74
8.11
4.60
-0.16
-6.21
-13.41
-21.41
-29.62
-36.98
-42.01
-43.15
-39.23
-30.05
-16.50
-0.36
16.32
31.84
45.27
56.40
65.41
72.61
78.22
82.35
85.21
87.07
88.26
89.07
89.60
89.73
89.24
87.91
85.71
82.81
79.51
76.11
72.71
69.19
65.20
60.36
54.34
47.09
38.89
30.33
22.08
14.69
8.30
2.58
-3.19
-9.86
-17.98
-27.42
-37.24
-45.73
-50.99
-51.46
-46.52
-36.71
-23.41
-8.39
6.86
21.38
34.82
47.01
57.68
66.32
72.30
75.27
75.51
73.89
71.60
69.64
68.40
67.60
66.61
64.84
62.12
58.67
54.98
51.40
47.94
44.24
39.82
34.32
27.77
20.56
13.22
6.29
-0.01
-5.74
-11.18
-16.72
-22.75
-29.63
-37.58
-46.58
-56.15
-65.29
-72.53
-76.26
-75.23
-69.03
-58.19
-44.14
-28.66
-13.40
0.50
12.53
22.59
30.77
37.12
41.63
44.31
45.39
45.29
44.53
43.56
42.57
41.49
40.13
38.33
36.19
33.95
31.90
30.11
28.34
26.08
22.78
18.04
11.81
4.51
-3.17
-10.43
-16.70
-21.82
-26.08
-30.16
-34.80
-40.51
-47.40
-54.97
-62.20
-67.66
-69.85
-67.52
-60.10
-47.89
-32.03
-14.20
3.82
20.63
35.44
47.98
58.35
66.70
73.15
77.83
80.99
83.09
84.67
86.22
88.04
90.15
92.40
94.56
96.45
97.95
99.01
99.56
99.49
98.54
96.37
92.61
86.90
79.03
68.79
55.90
39.75
19.45
-5.94
-36.86
-72.74
-111.64
-150.42
-185.39
-213.06
-230.97
-238.06
-234.64
-222.09
-202.44
-177.98
-150.87
-122.99
-95.78
-70.35
-47.45
-27.62
-11.17
1.95
12.10
19.96
26.23
31.44
35.82
39.28
41.75
43.32
44.31
45.07
45.77
46.17
45.75
43.87
40.13
34.49
27.27
19.08
10.69
2.91
-3.49
-7.96
-10.39
-11.17
-11.15
-11.40
-12.84
-15.92
-20.43
-25.49
-29.80
-31.98
-30.93
-26.13
-17.79
-6.72
5.88
18.74
30.72
41.01
49.09
54.74
57.97
59.05
58.45
56.77
54.61
52.42
50.34
48.33
46.19
43.84
41.25
38.50
35.65
32.62
29.17
25.06
20.06
14.16
7.46
0.22
-7.25
-14.60
-21.49
-27.64
-32.98
-37.74
-42.43
-47.66
-53.85
-61.01
-68.56
-75.51
-80.69
-83.10
-82.04
-77.25
-68.90
-57.52
-44.00
-29.38
-14.75
-1.03
11.14
21.41
29.66
35.86
40.02
42.17
42.50
41.35
39.19
36.47
33.52
30.50
27.50
24.66
22.17
20.25
18.95
18.03
17.00
15.31
12.48
8.41
3.40
-1.97
-6.97
-11.04
-13.95
-15.95
-17.61
-19.67
-22.73
-27.01
-32.17
-37.36
-41.31
-42.69
-40.42
-34.06
-23.90
-10.86
3.91
19.36
34.82
49.95
64.45
77.66
88.49
95.43
96.95
91.91
79.86
61.31
37.64
11.04
-15.92
-40.65
-61.18
-76.52
-86.66
-92.37
-94.70
-94.54
-92.58
-89.35
-85.44
-81.51
-78.18
-75.76
-74.11
-72.76
-71.20
-69.20
-67.00
-65.24
-64.64
-65.66
-68.13
-71.24
-73.62
-73.82
-70.63
-63.54
-52.81
-39.34
-24.36
-9.08
5.61
19.19
31.42
42.20
51.41
58.90
64.55
68.33
70.46
71.31
71.36
70.98
70.38
69.44
67.94
65.63
62.49
58.73
54.68
50.64
46.72
42.75
38.40
33.38
27.58
21.14
14.39
7.73
1.42
-4.47
-10.07
-15.64
-21.45
-27.71
-34.46
-41.50
-48.29
-53.93
-57.29
-57.24
-52.98
-44.34
-31.83
-16.54
0.25
17.36
33.92
49.31
63.08
74.82
84.25
91.33
96.44
100.28
103.70
107.41
111.72
116.42
120.95
124.67
127.20
128.60
129.39
130.27
131.80
133.99
136.15
136.86
134.32
126.70
112.61
91.42
63.51
30.40
-5.43
-41.02
-73.55
-101.18
-123.51
-141.51
-156.87
-170.98
-184.13
-195.22
-202.21
-203.06
-196.66
-183.29
-164.49
-142.37
-118.76
-94.87
-71.11
-47.54
-24.29
-1.83
19.14
37.99
54.54
69.10
82.35
94.86
106.85
118.10
128.07
136.25
142.31
146.12
147.55
146.29
141.80
133.50
121.08
104.69
85.02
63.13
40.20
17.41
-4.23
-23.80
-40.74
-54.93
-66.83
-77.42
-87.82
-98.82
-110.55
-122.33
-132.85
-140.64
-144.49
-143.77
-138.48
-129.25
-117.08
-103.13
-88.52
-74.24
-61.07
-49.62
-40.29
-33.23
-28.25
-24.84
-22.23
-19.73
-16.91
-13.86
-10.97
-8.71
-7.34
-6.76
-6.64
-6.66
-6.75
-7.11
-8.19
-10.41
-14.02
-19.02
-25.18
-32.11
-39.43
-46.71
-53.59
-59.86
-65.64
-71.43
-78.05
-86.36
-96.75
-108.83
-121.22
-131.88
-138.70
-140.20
-135.92
-126.49
-113.24
-97.71
-81.21
-64.62
-48.47
-33.06
-18.67
-5.52
6.24
16.54
25.43
32.87
38.82
43.18
45.95
47.31
47.58
47.12
46.22
45.07
43.80
42.66
41.85
41.49
41.34
40.84
39.21
35.85
30.68
24.18
17.29
10.88
5.49
1.10
-2.78
-6.86
-11.87
-18.35
-26.43
-35.70
-45.09
-53.01
-57.74
-57.96
-53.16
-43.81
-31.08
-16.42
-1.08
14.06
28.38
41.34
52.38
60.93
66.65
69.55
70.06
68.86
66.65
63.93
60.98
57.84
54.50
50.99
47.45
44.11
41.16
38.57
36.07
33.09
29.02
23.38
16.13
7.67
-1.22
-9.72
-17.17
-23.36
-28.45
-32.96
-37.62
-43.12
-49.94
-58.06
-66.88
-75.19
-81.54
-84.62
-83.63
-78.46
-69.54
-57.61
-43.51
-28.09
-12.31
2.70
15.75
25.87
32.51
35.78
36.28
34.91
32.65
30.29
28.47
27.51
27.52
28.32
29.54
30.82
31.86
32.56
32.83
32.54
31.42
29.12
25.40
20.33
14.29
7.89
1.67
-4.14
-9.72
-15.60
-22.40
-30.59
-40.20
-50.64
-60.69
-68.69
-72.93
-72.04
-65.49
-53.74
-38.15
-20.56
-2.73
14.06
29.20
42.62
54.41
64.53
72.66
78.43
81.63
82.48
81.61
79.90
78.14
76.75
75.71
74.68
73.25
71.08
68.14
64.45
60.12
55.16
49.52
43.18
36.38
29.58
23.38
18.17
13.91
9.97
5.39
-0.81
-9.18
-19.72
-31.82
-44.49
-56.58
-66.97
-74.68
-79.12
-80.18
-78.31
-74.38
-69.27
-63.51
-57.07
-49.44
-40.11
-29.04
-17.00
-5.36
4.31
10.99
14.60
16.01
16.61
17.59
19.51
22.13
24.79
26.84
28.06
28.70
29.13
29.52
29.52
28.50
25.89
21.61
16.18
10.50
5.38
1.14
-2.58
-6.67
-12.04
-19.32
-28.42
-38.66
-48.78
-57.37
-63.03
-64.67
-61.58
-53.63
-41.19
-25.22
-7.01
11.95
30.25
46.75
60.67
71.68
79.81
85.35
88.72
90.31
90.46
89.50
87.79
85.75
83.75
81.91
79.93
77.13
72.74
66.19
57.40
46.73
34.64
21.37
6.73
-9.72
-28.30
-48.79
-70.27
-91.32
-110.48
-126.75
-139.97
-150.71
-159.88
-168.08
-175.09
-179.76
-180.35
-175.27
-163.80
-146.46
-124.92
-101.36
-77.88
-55.98
-36.54
-19.97
-6.53
3.51
9.92
12.76
12.51
9.95
6.03
1.49
-3.28
-8.34
-13.97
-20.34
-27.28
-34.10
-39.73
-43.07
-43.43
-40.81
-35.95
-30.01
-24.07
-18.66
-13.71
-8.66
-3.06
3.05
8.96
13.54
15.72
14.98
11.66
7.00
2.87
1.36
4.23
12.46
25.96
43.57
63.46
83.64
102.63
119.64
134.57
147.66
159.11
168.95
177.07
183.44
188.24
191.85
194.67
196.94
198.71
199.92
200.58
200.89
201.22
201.92
203.10
204.47
205.26
204.32
200.33
192.18
179.18
161.30
139.05
113.33
85.21
55.69
25.62
-4.34
-33.63
-61.68
-87.79
-111.08
-130.54
-145.25
-154.56
-158.30
-156.80
-150.87
-141.55
-129.93
-117.00
-103.65
-90.62
-78.59
-68.05
-59.22
-52.02
-46.11
-41.02
-36.30
-31.64
-26.86
-21.99
-17.18
-12.67
-8.73
-5.62
-3.54
-2.60
-2.81
-4.08
-6.26
-9.17
-12.67
-16.67
-21.14
-26.03
-31.26
-36.66
-42.06
-47.40
-52.78
-58.46
-64.64
-71.28
-77.82
-83.29
-86.44
-86.13
-81.65
-72.91
-60.39
-45.07
-28.11
-10.71
6.03
21.26
34.36
44.97
52.87
58.00
60.41
60.42
58.54
55.51
52.05
48.60
45.18
41.53
37.34
32.54
27.38
22.21
17.23
12.23
6.65
-0.08
-8.17
-17.26
-26.61
-35.46
-43.43
-50.74
-58.11
-66.43
-76.41
-88.25
-101.47
-114.96
-127.08
-135.91
-139.69
-137.19
-128.13
-113.15
-93.71
-71.57
-48.42
-25.59
-4.05
15.45
32.14
45.18
53.86
57.82
57.39
53.62
48.12
42.51
38.03
35.11
33.49
32.58
31.85
31.15
30.67
30.58
30.72
30.49
29.08
25.87
20.86
14.68
8.36
2.88
-1.35
-4.53
-7.43
-11.00
-16.05
-22.98
-31.61
-41.15
-50.34
-57.65
-61.62
-61.25
-56.15
-46.58
-33.38
-17.77
-1.05
15.54
30.91
44.27
55.18
63.58
69.67
73.84
76.50
77.92
78.25
77.54
75.87
73.36
70.26
66.88
63.60
60.82
58.77
57.44
56.44
55.12
52.69
48.62
42.73
35.41
27.36
19.35
11.87
4.97
-1.77
-9.09
-17.75
-28.29
-40.77
-54.58
-68.38
-80.24
-87.97
-89.79
-84.98
-74.27
-59.71
-44.04
-29.66
-17.93
-8.88
-1.64
4.87
11.14
16.96
21.65
24.69
26.09
26.46
26.61
27.08
27.82
28.31
27.85
26.05
22.96
19.08
14.94
10.90
6.99
3.03
-1.13
-5.46
-9.78
-13.81
-17.31
-20.22
-22.59
-24.63
-26.60
-28.74
-31.24
-34.18
-37.54
-41.21
-45.00
-48.59
-51.45
-52.78
-51.58
-46.98
-38.64
-27.04
-13.51
0.24
12.72
23.07
31.15
37.22
41.59
44.41
45.76
45.88
45.27
44.57
44.15
43.95
43.42
41.78
38.47
33.43
27.01
19.82
12.41
5.09
-2.07
-9.14
-16.20
-23.21
-30.02
-36.39
-42.07
-47.01
-51.34
-55.45
-59.91
-65.26
-71.86
-79.65
-88.00
-95.78
-101.46
-103.56
-100.98
-93.42
-81.48
-66.45
-49.94
-33.31
-17.42
-2.59
11.11
23.52
34.30
42.97
49.17
52.91
54.57
54.79
54.13
52.98
51.47
49.57
47.25
44.47
41.28
37.74
33.94
29.91
25.61
20.85
15.41
9.01
1.57
-6.75
-15.57
-24.46
-33.08
-41.41
-49.76
-58.55
-68.17
-78.73
-89.93
-101.08
-111.23
-119.31
-124.34
-125.62
-122.82
-116.01
-105.58
-92.25
-77.06
-61.38
-46.81
-34.84
-26.45
-21.77
-19.91
-19.05
-16.84
-10.96
0.28
17.67
40.91
68.56
98.30
127.33
153.15
174.20
190.16
201.57
209.55
215.16
218.93
220.75
220.06
216.25
208.90
197.72
181.94
161.09
135.45
106.40
76.19
47.23
21.32
-1.20
-21.59
-43.19
-69.11
-100.68
-136.58
-173.14
-205.44
-228.69
-239.44
-236.36
-221.61
-198.76
-171.60
-143.38
-116.93
-94.95
-79.97
-73.77
-69.39
-61.79
-48.33
-29.60
-7.67
15.40
37.54
56.68
71.50
81.96
87.64
89.32
88.41
86.38
83.94
81.00
76.96
71.56
64.42
53.95
39.42
21.60
2.89
-13.47
-24.91
-30.64
-31.88
-31.86
-36.07
-48.12
-68.13
-92.70
-116.55
-134.91
-145.06
-146.51
-134.61
-110.42
-76.87
-37.68
3.21
41.89
74.25
94.05
98.51
90.56
75.11
57.15
39.69
23.77
9.25
-4.37
-17.09
-27.54
-34.19
-36.47
-34.14
-28.04
-20.06
-12.91
-9.22
-10.52
-16.37
-24.82
-35.33
-46.16
-55.59
-62.46
-66.40
-67.87
-67.57
-65.74
-62.16
-56.48
-47.82
-35.48
-19.25
0.34
21.95
43.59
63.03
78.19
87.69
91.74
92.30
92.54
95.73
103.63
115.58
128.63
138.81
142.74
138.98
128.43
113.72
98.03
84.13
73.74
67.67
66.15
68.88
74.91
82.51
89.36
92.96
91.37
83.68
70.32
53.11
34.35
16.17
-0.03
-13.58
-24.52
-33.42
-41.39
-49.78
-59.31
-70.31
-82.62
-95.44
-107.19
-115.92
-120.05
-119.19
-114.38
-106.52
-96.83
-86.49
-76.03
-64.89
-51.80
-35.92
-17.86
0.27
17.43
32.76
45.61
55.61
63.17
69.42
75.63
82.72
91.25
104.03
123.29
149.16
179.27
209.99
237.85
260.20
275.46
268.67
232.57
172.64
104.84
44.60
-0.41
-29.72
-46.37
-54.37
-57.33
-56.27
-51.42
-43.41
-33.85
-24.48
-16.91
-12.70
-12.51
-16.65
-24.35
-33.61
-41.49
-44.97
-41.74
-31.42
-15.62
2.24
17.83
25.93
23.36
9.37
-15.44
-46.95
-81.96
-117.39
-150.00
-176.88
-198.47
-215.71
-229.19
-239.15
-246.11
-251.16
-254.99
-257.12
-237.27
-186.51
-111.48
-29.47
44.65
104.71
150.93
185.80
212.23
232.46
244.98
249.10
246.16
240.09
234.67
232.08
232.29
234.61
238.02
239.14
235.73
227.65
216.27
202.13
189.18
178.12
168.70
160.21
150.44
137.99
123.05
107.16
92.04
78.86
67.37
57.07
47.31
36.82
24.86
11.56
-2.10
-15.09
-26.63
-36.98
-46.64
-56.24
-66.59
-78.18
-90.98
-104.50
-118.16
-131.50
-144.65
-157.90
-171.61
-186.18
-202.14
-220.10
-240.49
-263.15
-286.86
-309.61
-328.72
-341.78
-347.43
-345.66
-337.52
-324.43
-307.54
-287.53
-264.99
-240.73
-215.95
-192.10
-170.37
-151.31
-134.80
-120.31
-107.23
-95.14
-83.95
-73.73
-64.58
-56.47
-49.07
-41.92
-34.72
-27.48
-20.82
-15.76
-13.27
-13.86
-17.06
-21.59
-25.60
-27.27
-25.18
-18.43
-6.48
10.73
32.76
58.42
85.87
113.13
138.64
161.73
182.42
200.75
216.01
226.25
228.69
220.52
199.98
167.15
124.20
75.01
24.45
-22.53
-61.88
-91.00
-109.19
-117.51
-118.17
-113.61
-105.61
-94.86
-80.96
-63.01
-40.53
-14.18
14.06
41.25
64.61
82.54
95.03
103.29
108.72
111.97
112.61
109.73
102.85
92.28
79.55
66.87
56.02
47.78
42.17
39.02
38.40
40.14
42.89
44.28
41.52
32.46
16.75
-3.49
-23.96
-39.52
-46.05
-42.76
-31.43
-15.29
2.55
20.20
37.99
58.30
83.98
116.30
151.33
183.78
210.04
229.51
243.72
254.91
264.43
271.49
273.06
260.88
230.47
184.61
131.17
77.25
25.92
-23.58
-73.97
-127.39
-190.68
-264.22
-339.44
-403.99
-449.83
-476.19
-487.35
-489.52
-488.05
-495.29
-516.97
-548.71
-581.18
-608.59
-630.75
-649.81
-666.87
-618.78
-480.79
-284.13
-87.24
71.58
182.95
252.74
291.88
311.99
323.45
325.65
319.56
311.43
309.89
319.00
336.28
355.57
370.57
368.31
339.16
285.94
222.80
166.27
126.48
105.19
99.29
104.04
114.26
121.25
117.77
102.62
78.07
48.94
20.78
-1.66
-16.13
-23.82
-29.38
-36.84
-46.37
-54.32
-55.74
-46.96
-26.19
6.56
47.86
92.05
132.27
161.30
171.22
154.60
107.13
31.19
-60.79
-150.64
-220.15
-257.70
-261.31
-238.20
-200.48
-159.65
-122.52
-87.57
-51.22
-12.07
27.53
63.63
93.01
114.93
131.04
144.36
161.07
183.96
210.53
234.92
252.21
260.57
261.46
257.79
229.84
171.35
93.48
15.59
-50.42
-102.75
-144.28
-177.46
-203.73
-223.77
-234.58
-235.30
-228.51
-218.84
-209.91
-203.45
-198.98
-195.64
-192.57
-186.35
-175.07
-159.31
-140.66
-119.23
-98.72
-79.84
-62.62
-47.04
-31.77
-16.94
-4.79
2.27
2.94
-2.39
-11.07
-19.98
-26.47
-28.29
-25.20
-18.81
-9.78
1.29
13.35
25.48
36.74
46.72
55.87
64.82
74.25
88.27
109.63
137.53
168.09
196.44
218.81
233.32
239.82
239.57
240.27
247.88
263.11
282.06
299.97
314.09
323.89
330.06
333.73
343.29
364.54
397.04
435.10
472.79
507.18
538.08
566.61
548.45
462.96
324.62
173.60
44.04
-51.78
-117.69
-163.30
-197.59
-226.45
-245.39
-250.56
-243.35
-230.02
-216.48
-204.88
-194.59
-184.98
-177.11
-167.95
-155.91
-142.55
-130.70
-121.26
-112.68
-103.24
-93.17
-84.76
-77.51
-71.29
-66.96
-65.12
-63.63
-56.87
-38.54
-5.46
39.79
90.58
136.73
167.88
177.54
164.00
132.99
94.32
56.88
25.09
-0.62
-22.25
-41.49
-57.96
-69.54
-74.01
-71.35
-64.20
-56.66
-51.96
-51.16
-53.33
-56.95
-61.45
-67.44
-76.04
-87.19
-98.44
-105.22
-102.83
-88.91
-64.99
-36.07
-8.37
13.07
25.93
30.63
29.16
23.42
14.19
1.14
-16.16
-37.08
-59.45
-79.96
-95.23
-102.95
-102.73
-96.09
-85.72
-74.50
-64.58
-57.11
-52.09
-48.64
-45.00
-38.77
-27.40
-9.14
15.94
45.20
73.88
96.40
108.19
107.16
93.90
70.93
41.27
7.37
-29.10
-66.73
-103.69
-137.45
-165.24
-184.78
-195.03
-196.32
-189.95
-177.61
-160.96
-141.55
-120.89
-100.25
-80.40
-61.38
-42.65
-23.68
-4.63
13.32
28.36
38.99
45.00
47.54
48.56
49.67
51.35
52.79
52.64
49.96
44.84
38.25
31.37
24.84
18.44
11.43
3.19
-6.12
-15.42
-23.13
-27.81
-28.75
-26.11
-20.72
-13.68
-5.96
1.77
9.19
16.33
23.49
31.21
39.98
49.91
60.47
70.58
78.99
84.73
87.49
87.46
85.00
80.32
73.43
64.57
