1589028738.00
64.000000
-0.00
-0.00
-0.00
-0.00
-0.00
-0.00
-0.00
-0.00
-0.00
-0.00
0.00
0.01
0.01
-0.00
-0.03
-0.05
-0.05
0.00
0.13
0.36
0.66
1.01
1.37
1.72
2.06
2.40
2.79
3.24
3.80
4.42
5.06
5.66
6.20
6.68
7.15
7.68
8.31
9.14
10.09
11.04
11.88
12.56
13.14
13.76
14.65
15.96
17.91
20.32
22.90
25.38
27.58
29.57
31.68
34.32
37.81
42.54
48.15
54.10
59.83
64.97
69.58
74.14
79.34
85.71
93.76
103.00
112.62
121.73
129.77
136.75
143.30
150.75
157.77
166.64
177.95
191.79
206.97
220.57
228.25
225.36
208.53
176.87
132.76
80.05
23.07
-34.94
-92.44
-149.16
-205.23
-260.37
-313.74
-363.87
-409.83
-450.91
-486.50
-515.74
-537.23
-549.22
-549.96
-538.37
-514.21
-478.67
-433.88
-382.45
-327.02
-269.84
-212.63
-156.66
-102.95
-52.37
-5.90
35.58
71.43
101.35
125.50
144.38
158.69
169.15
176.37
180.75
182.57
182.07
179.51
175.23
169.65
163.18
156.15
148.81
141.30
133.69
126.02
118.33
110.69
103.16
95.80
88.68
81.83
75.25
68.95
62.95
57.25
51.86
46.78
42.03
37.59
33.45
29.61
26.07
22.81
19.83
17.11
14.67
12.48
10.54
8.83
7.35
6.07
4.97
4.05
3.27
2.62
2.09
1.65
1.30
1.01
0.79
0.61
0.48
0.37
0.28
0.22
0.17
0.14
0.11
0.10
0.09
0.09
0.09
0.10
0.11
0.14
0.16
0.19
0.22
0.26
0.29
0.33
0.37
0.41
0.45
0.50
0.54
0.59
0.64
0.70
0.76
0.82
0.89
0.97
1.06
1.15
1.25
1.37
1.50
1.64
1.79
1.97
2.17
2.39
2.64
2.92
3.23
3.58
3.96
4.38
4.83
5.31
5.83
6.39
6.97
7.60
8.26
8.96
9.70
10.47
11.27
12.12
13.01
13.99
15.05
16.19
17.36
18.50
19.55
20.40
21.01
21.32
21.28
20.84
19.92
18.43
16.28
13.42
9.90
5.85
1.54
-2.73
-6.64
-9.99
-12.68
-14.75
-16.29
-17.43
-18.18
-18.50
-18.27
-17.43
-16.03
-14.26
-12.47
-10.95
-9.80
-8.77
-7.34
-4.89
-1.01
4.29
10.38
16.25
20.73
23.06
23.12
21.60
19.48
17.77
16.86
16.45
15.58
13.20
8.81
2.86
-3.14
-7.59
-9.01
-6.83
-1.76
4.63
10.28
13.12
11.45
4.70
-6.12
-17.35
-23.10
-17.05
5.07
43.16
91.89
142.15
184.13
210.27
217.92
209.44
190.04
165.67
141.10
119.05
100.04
86.38
78.37
74.83
73.38
70.28
62.70
49.57
32.00
12.55
-5.78
-20.94
-32.02
-39.20
-45.39
-53.21
-64.20
-78.79
-96.80
-117.59
-140.09
-162.38
-181.73
-198.75
-214.12
-228.62
-242.68
-256.33
-268.88
-278.59
-283.79
-282.72
-278.08
-271.66
-263.26
-250.78
-232.10
-206.62
-175.33
-141.08
-84.81
-1.58
99.73
200.96
286.86
350.91
393.76
420.31
433.52
438.89
436.07
424.38
402.70
371.72
333.28
288.94
246.36
208.29
176.02
146.69
117.58
84.09
44.19
-1.06
-48.14
-89.82
-124.18
-149.58
-165.52
-171.66
-173.10
-174.64
-179.11
-186.94
-192.90
-198.86
-206.49
-216.54
-230.44
-256.56
-301.84
-368.07
-451.10
-537.92
-624.79
-709.80
-791.19
-820.16
-769.25
-646.42
-489.77
-377.83
-312.30
-284.57
-288.91
-305.90
-327.48
-353.49
-380.92
-401.73
-405.42
-379.22
-326.41
-256.75
-179.97
-105.15
-42.06
4.55
35.77
56.96
78.62
102.84
129.55
159.19
190.62
219.45
241.73
255.68
262.11
266.05
268.28
268.82
268.16
265.71
259.40
247.48
229.56
206.98
183.60
161.41
142.02
126.83
116.15
109.15
104.70
102.00
100.98
102.64
107.36
115.29
126.14
139.05
152.93
166.86
180.36
193.48
206.87
221.55
238.74
259.47
284.13
311.77
339.78
363.81
378.84
380.57
366.98
339.12
300.81
257.58
215.05
177.80
148.85
129.80
121.16
122.63
133.04
150.25
171.12
191.75
208.16
217.18
217.10
208.21
192.52
173.08
152.96
134.20
117.47
102.32
88.01
74.29
61.71
51.28
43.77
38.87
35.00
29.87
21.34
8.53
-7.80
-25.53
-42.10
-55.73
-66.23
-74.99
-84.19
-95.72
-110.11
-126.18
-141.22
-151.97
-155.58
-150.28
-135.72
-112.77
-83.20
-49.30
-13.65
20.90
51.42
75.26
90.65
97.25
96.37
90.51
82.60
74.73
67.46
60.05
51.23
40.49
28.65
17.77
10.13
6.93
7.58
9.90
11.19
9.53
4.53
-2.80
-10.82
-18.29
-24.99
-31.60
-39.09
-47.99
-58.21
-69.12
-79.99
-90.23
-99.39
-106.74
-111.17
-111.23
-105.62
-93.84
-76.47
-55.25
-32.71
-11.52
6.04
18.60
25.77
28.01
26.35
21.84
15.13
6.45
-4.17
-16.33
-28.95
-40.35
-48.81
-53.39
-54.49
-53.72
-53.20
-54.46
-57.91
-62.89
-68.35
-73.83
-79.96
-88.17
-99.90
-115.67
-134.62
-154.72
-173.36
-188.17
-197.30
-199.46
-193.66
-179.10
-155.40
-123.09
-83.95
-41.10
1.38
39.47
70.05
91.76
105.05
111.74
114.16
114.12
112.42
108.96
103.38
95.82
87.33
79.52
73.90
70.97
69.86
68.73
65.61
59.55
50.98
41.41
32.61
25.46
19.32
12.26
2.02
-12.80
-31.85
-52.94
-72.68
-87.63
-95.62
-96.17
-90.49
-80.71
-69.00
-56.97
-45.35
-34.31
-23.98
-14.69
-7.08
-1.76
1.06
1.61
0.59
-1.29
-3.66
-6.49
-9.93
-13.91
-17.96
-21.34
-23.39
-24.02
-23.69
-23.38
-24.10
-26.19
-29.09
-31.57
-32.50
-31.83
-31.13
-33.01
-40.32
-54.75
-75.68
-99.80
-122.07
-137.65
-144.01
-142.14
-135.56
-129.18
-127.02
-130.41
-137.40
-143.94
-146.25
-142.57
-133.85
-120.85
-104.98
-87.73
-70.58
-55.08
-43.15
-36.91
-38.12
-47.37
-59.43
-68.17
-68.68
-58.44
-37.16
-6.11
32.03
73.25
112.25
149.98
187.19
223.61
258.62
293.05
329.80
372.82
424.91
484.82
555.56
634.42
712.01
775.45
814.43
826.37
817.89
802.41
754.60
668.54
553.38
427.43
304.24
186.85
73.81
-33.56
-121.45
-193.11
-245.58
-278.83
-296.88
-305.78
-309.78
-310.62
-307.86
-303.22
-302.59
-305.60
-312.43
-323.97
-341.15
-363.71
-389.73
-415.86
-438.78
-457.29
-467.47
-469.57
-468.50
-471.15
-481.79
-498.92
-515.75
-524.16
-519.55
-500.17
-469.48
-433.57
-397.38
-361.98
-324.94
-282.96
-235.33
-185.65
-139.35
-102.48
-78.74
-67.74
-64.82
-63.29
-57.40
-45.01
-28.10
-10.58
4.24
15.92
26.65
38.90
52.65
64.20
67.53
57.50
32.93
-2.43
-41.37
-76.23
-101.58
-115.75
-120.06
-117.10
-109.11
-97.23
-81.89
-63.50
-43.09
-22.27
-2.83
13.91
27.41
37.99
46.70
54.70
62.71
70.65
77.72
83.00
85.90
86.76
86.75
87.45
90.25
96.08
105.25
117.45
131.57
145.64
156.86
162.28
159.81
149.23
132.70
114.21
98.35
88.77
87.29
93.81
106.94
124.72
145.00
165.49
183.62
196.85
203.21
201.90
193.57
179.95
163.22
145.27
127.37
110.19
94.04
78.95
64.79
51.37
38.89
28.34
21.37
19.52
23.04
30.06
36.95
39.78
36.16
26.59
14.64
5.70
5.36
18.13
46.65
91.86
153.46
230.27
320.00
418.71
520.17
615.90
696.16
751.95
777.26
770.87
736.51
681.37
613.72
540.46
466.01
392.61
321.27
252.80
187.95
127.01
69.20
12.42
-45.96
-107.49
-170.84
-230.72
-278.42
-304.27
-301.33
-268.44
-211.37
-141.35
-71.31
-12.07
30.05
53.44
59.71
51.72
32.50
4.96
-28.01
-63.27
-98.07
-130.70
-161.01
-190.43
-221.71
-257.97
-301.20
-351.20
-403.74
-450.77
-482.08
-488.50
-465.22
-413.56
-340.05
-252.83
-159.45
-63.67
33.20
129.41
220.08
296.82
350.16
373.43
366.89
335.29
288.36
236.10
185.48
139.27
96.69
55.44
13.56
-28.43
-72.49
-119.58
-171.16
-228.09
-288.80
-348.01
-397.12
-426.53
-427.21
-399.36
-347.28
-279.26
-203.92
-126.78
-48.89
31.67
103.76
179.56
250.82
308.60
344.73
355.09
341.04
308.44
264.77
216.53
169.37
122.55
76.14
30.30
-14.62
-59.00
-104.59
-153.67
-206.86
-259.25
-304.30
-331.41
-331.11
-298.52
-235.20
-148.38
-48.63
52.49
145.15
219.44
268.94
290.74
286.19
260.55
221.30
175.65
128.52
82.57
38.12
-3.67
-40.75
-70.79
-92.66
-107.48
-118.03
-127.09
-135.61
-142.64
-145.48
-141.32
-128.69
-108.39
-83.43
-58.42
-38.74
-29.34
-33.71
-53.09
-85.98
-128.36
-174.62
-218.64
-254.52
-277.10
-282.25
-267.38
-232.13
-178.99
-113.19
-41.94
26.84
86.11
131.00
159.87
175.11
182.67
190.49
205.73
231.57
265.55
300.06
325.33
333.66
322.28
293.66
253.92
209.88
166.46
125.63
86.65
47.08
4.16
-43.83
-96.70
-151.25
-200.99
-238.09
-256.46
-254.49
-235.93
-208.45
-180.42
-158.93
-147.11
-143.45
-142.71
-137.94
-122.69
-92.95
-48.29
7.72
66.19
117.51
154.61
174.79
178.68
168.25
145.85
113.94
75.65
30.27
-22.01
-79.10
-136.95
-190.59
-235.09
-265.15
-275.39
-262.76
-236.16
-208.35
-190.13
-186.12
-194.36
-210.33
-228.81
-246.02
-261.21
-285.65
-329.67
-396.15
-478.79
-567.07
-654.40
-739.22
-823.40
-851.25
-788.54
-639.14
-444.81
-253.07
-90.56
35.66
129.32
197.64
247.21
274.79
278.61
262.54
230.86
196.99
168.63
147.31
130.72
114.48
89.18
50.29
1.87
-44.53
-75.60
-84.99
-74.10
-44.49
-4.82
31.56
55.16
63.77
61.69
56.07
51.34
49.13
49.73
52.55
56.09
59.91
64.67
71.74
82.37
95.85
110.71
125.57
138.84
148.97
154.85
155.73
151.19
141.13
125.35
104.07
78.28
49.16
18.45
-12.12
-40.96
-66.91
-89.09
-106.84
-119.43
-126.18
-126.64
-120.57
-108.28
-90.24
-67.18
-39.74
-8.35
26.79
65.47
107.14
150.45
193.04
232.38
266.17
293.03
313.00
327.70
339.80
352.78
369.61
391.62
418.87
447.93
471.49
479.75
463.86
419.57
351.27
270.53
192.02
130.98
96.26
88.13
100.20
123.51
148.90
171.74
188.93
197.69
200.30
200.90
204.52
215.16
234.20
257.64
281.69
301.40
313.02
321.81
336.14
362.61
401.99
448.95
492.30
525.78
546.59
522.96
438.89
298.77
127.22
-44.84
-178.51
-279.55
-359.43
-426.84
-486.76
-539.15
-582.14
-616.19
-643.32
-663.57
-675.47
-670.94
-643.21
-590.28
-510.79
-407.32
-286.78
-159.10
-35.12
73.15
159.18
211.89
222.97
197.46
151.99
105.60
70.09
47.05
30.86
17.18
5.28
-5.58
-13.60
-18.80
-24.50
-36.07
-58.45
-94.66
-143.36
-195.91
-241.21
-266.32
-262.21
-228.29
-173.06
-110.95
-56.51
-18.23
8.25
30.50
57.98
95.27
138.75
179.75
210.41
227.23
234.11
236.05
235.35
232.02
223.75
207.11
181.77
149.24
112.76
76.05
41.73
10.18
-19.27
-48.23
-78.34
-110.25
-143.60
-177.08
-209.20
-239.56
-269.58
-301.43
-336.99
-376.22
-415.84
-449.84
-471.02
-473.45
-454.72
-416.58
-363.85
-302.74
-239.24
-178.32
-124.08
-79.96
-48.63
-31.27
-26.58
-30.35
-36.40
-38.42
-31.99
-16.07
7.00
32.61
55.87
73.36
84.04
88.91
90.07
89.39
87.67
84.62
79.30
70.88
59.14
44.51
27.69
9.31
-10.26
-30.60
-50.78
-68.94
-82.55
-89.13
-87.18
-76.91
-60.27
-40.36
-20.44
-3.18
9.67
17.10
18.53
13.60
2.40
-14.11
-33.65
-52.54
-66.14
-69.97
-60.96
-38.75
-6.44
29.77
61.93
82.62
87.30
75.76
52.13
22.96
-5.27
-28.12
-43.72
-52.07
-54.14
-51.32
-45.67
-39.96
-37.29
-39.68
-46.76
-55.18
-59.53
-54.32
-36.10
-4.53
37.95
87.16
138.34
186.54
226.81
254.73
267.77
267.10
258.47
251.10
254.41
273.89
308.21
348.64
382.13
396.71
386.12
351.56
300.00
240.17
178.64
117.92
56.49
-9.44
-83.10
-164.92
-251.58
-336.06
-408.93
-460.91
-485.31
-480.73
-451.94
-407.20
-354.80
-300.70
-247.40
-194.87
-142.40
-88.79
-33.29
23.17
80.61
139.39
196.79
245.30
273.73
271.30
234.88
170.79
90.59
11.62
-48.13
-78.08
-77.21
-51.88
-11.44
38.71
94.63
146.24
184.14
202.85
199.96
178.86
149.21
124.25
119.52
143.73
189.07
244.01
301.32
357.37
413.27
472.70
511.91
510.42
498.94
488.11
462.25
416.87
354.33
281.82
207.66
137.77
77.79
28.85
-18.70
-72.18
-130.87
-189.96
-241.50
-276.66
-288.74
-272.43
-228.26
-168.12
-104.80
-46.34
2.05
38.31
62.32
74.17
75.32
66.70
45.42
10.71
-33.92
-83.10
-130.22
-168.77
-194.02
-204.04
-201.39
-193.94
-189.85
-193.67
-205.90
-223.91
-244.83
-268.32
-296.88
-333.78
-379.94
-429.90
-472.45
-494.99
-489.33
-455.43
-401.34
-339.10
-279.33
-226.77
-179.81
-133.88
-85.92
-37.70
5.00
35.76
51.23
52.66
44.43
30.97
14.40
-4.96
-26.17
-44.44
-51.69
-40.19
-7.73
39.76
89.94
129.25
148.84
147.33
132.59
115.71
106.10
105.97
110.27
112.20
106.73
95.23
79.70
60.13
33.37
-5.85
-60.45
-129.79
-207.60
-282.86
-342.93
-378.33
-385.60
-368.52
-336.21
-299.31
-265.97
-239.32
-217.95
-198.26
-177.48
-154.66
-130.58
-106.62
-83.70
-61.85
-40.28
-18.11
5.07
28.77
52.12
74.34
94.91
113.63
130.62
146.14
160.56
174.28
187.51
200.67
214.61
230.68
250.39
274.38
301.35
327.36
346.21
350.66
334.59
294.96
233.15
155.07
70.26
-10.07
-75.27
-117.35
-132.20
-119.85
-84.23
-32.58
24.93
76.09
108.07
110.30
77.92
14.60
-67.10
-148.93
-212.76
-246.48
-247.27
-221.11
-178.74
-130.66
-83.57
-39.23
4.25
50.31
101.77
159.52
221.57
283.06
337.16
376.46
394.77
388.64
358.13
306.97
242.36
174.40
114.91
75.46
64.53
84.91
132.30
196.34
263.77
322.50
364.61
387.28
391.58
380.27
356.52
323.46
284.51
243.54
204.14
168.39
136.05
104.88
72.07
36.67
0.80
-30.84
-53.35
-64.65
-67.73
-70.16
-80.92
-105.87
-144.08
-187.47
-224.17
-243.91
-242.92
-225.35
-200.80
-179.85
-169.61
-171.62
-182.58
-196.56
-206.91
-207.65
-193.58
-160.76
-107.88
-37.87
41.21
117.39
178.04
214.09
222.12
204.92
169.88
126.54
84.02
49.09
25.16
11.94
7.20
7.15
8.46
9.55
10.98
14.69
22.14
32.73
42.60
47.58
43.23
27.43
1.36
-31.51
-67.23
-103.25
-139.30
-178.31
-222.17
-273.37
-331.88
-394.08
-452.99
-499.82
-526.59
-528.80
-508.30
-468.88
-418.24
-363.39
-308.24
-252.97
-195.28
-132.82
-57.82
15.13
81.31
133.40
165.98
177.96
173.53
161.12
150.75
150.76
164.51
193.97
236.28
286.57
338.75
385.97
420.93
437.18
430.93
401.57
355.04
298.82
240.31
184.20
131.34
80.02
28.56
-22.05
-67.96
-101.87
-118.11
-114.61
-94.02
-62.84
-28.96
0.67
21.11
28.81
21.87
-0.94
-38.76
-87.40
-139.29
-185.42
-218.44
-235.27
-237.90
-231.33
-221.07
-210.70
-201.12
-191.50
-180.78
-168.91
-156.98
-146.55
-138.99
-134.99
-134.64
-137.57
-143.01
-149.62
-155.50
-158.45
-156.39
-147.98
-133.05
-112.68
-88.86
-64.02
-40.34
-19.27
-1.21
14.34
28.35
41.52
53.77
64.10
71.00
73.15
70.21
63.13
53.97
45.25
39.27
37.44
40.11
46.60
55.50
64.95
73.03
78.08
79.07
75.71
68.48
58.28
46.04
32.39
17.66
2.15
-13.55
-28.26
-40.39
-48.40
-51.26
-48.77
-41.49
-30.31
-16.16
0.22
18.12
36.67
54.59
70.18
81.73
87.93
88.39
83.78
75.75
66.37
57.47
50.06
44.11
38.80
33.06
26.08
17.72
8.38
-1.30
-10.80
-19.88
-28.49
-36.54
-43.86
-50.26
-55.76
-60.75
-65.88
-71.72
-78.22
-84.51
-88.91
-89.45
-84.53
-73.51
-57.03
-36.79
-15.05
6.02
24.80
40.42
52.66
61.65
67.63
70.87
71.67
70.50
67.98
64.83
61.67
58.81
56.18
53.44
50.16
46.12
41.41
36.41
31.55
27.09
22.90
18.44
13.04
6.13
-2.55
-12.89
-24.54
-36.94
-49.45
-61.13
-70.75
-76.87
-78.10
-73.51
-63.00
-47.40
-28.25
-7.53
12.85
31.25
46.44
57.61
64.31
66.52
64.64
59.46
52.10
43.80
35.67
28.45
22.42
17.40
12.95
8.60
4.13
-0.39
-4.67
-8.45
-11.69
-14.61
-17.71
-21.53
-26.52
-32.94
-40.75
-49.57
-58.54
-66.38
-71.51
-72.43
-68.19
-58.78
-45.10
-28.79
-11.68
4.63
19.05
30.97
40.11
46.35
49.66
50.19
48.35
44.87
40.60
36.31
32.44
28.99
25.64
22.03
17.95
13.53
9.12
5.07
1.45
-2.10
-6.29
-11.93
-19.68
-29.78
-41.93
-55.27
-68.50
-79.98
-88.02
-91.15
-88.42
-79.68
-65.61
-47.54
-27.20
-6.24
13.99
32.54
48.76
62.16
72.31
78.86
81.73
81.23
78.10
73.30
67.73
61.89
55.77
48.95
41.06
31.99
22.26
12.84
4.80
-1.13
-4.93
-7.40
-9.94
-14.13
-21.34
-32.24
-46.57
-63.02
-79.36
-92.88
-100.93
-101.55
-93.99
-78.85
-57.88
-33.53
-8.36
15.43
36.35
53.60
66.93
76.48
82.51
85.36
85.38
82.94
78.50
72.51
65.33
57.22
48.33
38.82
28.94
19.11
9.80
1.32
-6.36
-13.82
-22.00
-31.99
-44.54
-59.66
-76.33
-92.61
-106.10
-114.71
-117.38
-114.46
-107.59
-98.96
-90.44
-82.81
-75.51
-66.99
-55.39
-39.46
-19.17
4.06
27.78
49.26
66.37
78.35
85.86
90.39
93.35
95.06
94.48
89.75
79.19
62.32
40.42
16.34
-6.28
-23.94
-34.22
-36.29
-31.09
-21.17
-10.07
-1.44
2.06
-0.17
-6.24
-12.02
-12.40
-3.14
17.50
47.91
83.63
118.94
148.76
169.93
181.53
184.11
178.62
165.82
146.27
120.92
91.55
60.77
31.34
5.50
-15.61
-31.80
-43.26
-49.98
-51.65
-47.89
-39.04
-26.90
-14.99
-8.02
-10.54
-25.10
-50.82
-83.09
-114.66
-138.10
-148.43
-144.84
-130.67
-111.73
-93.78
-80.36
-72.01
-66.94
-62.60
-57.15
-50.07
-41.84
-33.13
-24.23
-14.90
-4.65
6.92
20.09
35.02
51.79
70.08
88.87
106.35
120.34
129.18
132.68
132.37
130.95
131.05
134.00
139.19
144.19
145.74
140.89
128.06
107.62
82.10
55.70
33.42
19.71
17.03
24.98
40.24
57.73
72.40
80.95
82.79
79.77
74.90
70.88
68.87
68.27
67.26
63.88
57.03
46.94
34.91
22.65
11.28
0.96
-9.06
-19.80
-31.70
-44.10
-55.41
-63.67
-67.39
-65.95
-59.57
-49.11
-35.93
-21.89
-9.48
-1.52
-0.31
-6.53
-18.58
-32.75
-44.46
-50.19
-48.88
-42.26
-33.96
-27.78
-26.25
-29.98
-38.14
-49.42
-62.72
-77.18
-91.53
-103.48
-109.79
-107.28
-94.48
-72.86
-46.95
-22.90
-6.18
0.60
-1.40
-7.94
-13.64
-14.28
-8.32
2.90
16.05
27.37
34.09
35.25
31.83
26.17
21.34
20.22
24.85
35.79
51.93
70.65
88.57
102.44
109.96
110.27
103.69
91.30
74.46
54.53
32.83
10.55
-11.36
-32.56
-53.44
-74.91
-97.84
-122.49
-148.06
-172.83
-194.59
-211.23
-221.25
-223.98
-219.59
-208.80
-192.56
-171.61
-146.32
-116.83
-83.56
-47.76
-11.79
21.16
47.96
66.63
77.12
81.42
82.87
84.96
90.20
99.34
111.35
123.86
134.05
139.43
138.34
130.08
114.84
93.40
67.07
37.61
7.20
-21.73
-46.78
-66.12
-78.73
-84.50
-83.94
-77.76
-66.60
-51.08
-32.02
-10.72
11.11
31.65
49.42
63.59
73.91
80.56
83.83
84.11
81.99
78.37
74.31
70.53
67.07
63.02
56.79
46.56
30.91
9.15
-18.27
-49.65
-81.99
-111.46
-134.15
-147.36
-150.58
-145.70
-136.30
-126.32
-118.92
-115.91
-117.80
-124.13
-133.82
-145.39
-157.19
-167.77
-176.13
-181.72
-184.06
-182.18
-174.46
-159.38
-136.97
-109.68
-82.12
-59.17
-43.43
-33.47
-24.21
-9.30
15.76
51.23
93.28
136.14
175.16
208.72
237.85
263.97
286.41
301.69
304.98
292.85
265.20
225.21
177.19
124.23
67.47
7.52
-52.97
-108.21
-150.61
-174.56
-179.68
-171.55
-158.65
-148.12
-142.08
-137.17
-127.17
-106.95
-75.58
-37.22
0.59
29.78
44.77
44.50
33.02
18.22
9.53
15.01
38.86
80.66
136.03
198.63
261.91
320.14
368.58
403.06
420.16
417.98
396.99
360.51
314.22
265.02
219.39
182.14
156.05
141.62
137.28
139.77
144.56
146.66
142.03
128.75
107.91
83.14
58.83
38.29
22.30
9.24
-3.74
-18.88
-36.60
-55.59
-73.88
-89.98
-103.54
-114.92
-124.34
-131.75
-137.31
-141.87
-147.64
-156.98
-170.82
-187.10
-201.02
-206.99
-201.63
-185.57
-163.46
-141.16
-122.53
-107.61
-93.12
-74.84
-50.14
-18.85
17.09
54.67
90.52
121.10
142.87
153.31
152.23
142.48
129.28
118.48
114.23
117.81
128.10
142.46
157.71
170.35
176.39
171.53
152.39
118.03
70.82
15.44
-43.29
-102.05
-159.40
-213.97
-262.36
-298.79
-316.99
-313.42
-289.75
-252.35
-208.89
-164.17
-117.62
-64.68
-1.41
70.93
144.05
205.26
242.95
251.82
234.74
200.55
159.45
118.48
79.93
42.27
3.30
-37.38
-77.72
-114.91
-148.04
-179.92
-216.21
-262.15
-318.73
-380.53
-436.63
-474.82
-486.73
-471.23
-434.41
-386.24
-336.01
-288.94
-245.56
-203.58
-160.65
-116.22
-71.44
-27.87
14.30
56.88
102.53
152.72
206.20
258.66
304.21
337.67
356.26
359.92
350.75
331.84
306.72
278.96
251.69
226.94
204.62
182.19
155.39
120.01
73.78
17.46
-45.35
-109.22
-168.04
-215.65
-246.44
-256.10
-242.89
-208.58
-158.42
-100.01
-41.27
11.35
53.59
83.20
99.45
102.82
95.16
80.05
62.52
48.06
41.14
43.86
55.66
73.81
94.71
115.13
132.94
147.20
157.60
163.93
165.51
161.17
149.49
129.61
102.00
69.14
35.19
4.81
-18.68
-34.73
-45.80
-56.06
-69.32
-87.37
-109.67
-134.26
-159.03
-182.40
-202.92
-218.47
-226.03
-222.67
-207.20
-181.57
-150.74
-121.02
-97.54
-82.41
-74.38
-70.07
-66.03
-60.33
-53.14
-46.09
-41.12
-39.44
-41.32
-46.57
-55.19
-67.69
-84.83
-106.69
-131.95
-157.61
-179.60
-193.82
-197.25
-188.73
-169.15
-140.93
-107.25
-71.31
-35.85
-3.11
25.11
47.56
63.71
74.18
80.57
85.02
89.33
94.13
98.61
100.92
98.91
90.97
76.47
55.91
30.90
3.85
-22.35
-44.95
-61.99
-72.63
-76.89
-74.88
-66.30
-50.51
-27.46
1.35
32.45
61.26
83.58
96.85
100.67
96.33
86.04
72.33
57.92
45.76
38.61
38.48
45.85
59.40
76.28
93.21
107.56
118.41
127.01
136.57
151.10
173.65
204.45
239.83
272.79
295.20
300.68
286.94
256.17
213.50
164.35
112.41
59.22
5.42
-47.59
-96.98
-139.00
-170.62
-190.88
-201.22
-204.58
-203.83
-200.79
-196.01
-189.76
-183.01
-177.90
-177.07
-182.34
-193.57
-208.21
-221.97
-230.10
-228.79
-216.14
-192.51
-160.13
-122.31
-82.72
-44.73
-11.15
16.01
35.78
48.37
55.18
58.40
60.32
62.49
65.12
67.01
66.03
60.18
48.56
32.04
13.11
-4.94
-19.00
-27.19
-29.35
-27.11
-23.37
-21.37
-23.40
-29.82
-38.57
-45.86
-47.58
-41.21
-26.93
-7.62
12.17
27.90
36.62
37.70
32.81
25.10
18.16
14.94
17.20
25.24
38.14
54.25
71.65
88.57
103.50
115.38
123.67
128.43
130.27
129.86
127.13
120.56
107.29
84.05
48.96
3.03
-49.59
-102.67
-150.02
-187.31
-212.97
-227.60
-232.72
-229.47
-218.09
-198.44
-171.11
-138.22
-103.59
-71.79
-46.88
-31.30
-25.53
-28.53
-38.49
-53.47
-71.42
-89.93
-106.14
-117.12
-120.73
-116.42
-105.25
-89.34
-70.89
-51.68
-32.97
-15.72
-0.36
13.55
27.62
44.13
64.61
88.36
111.98
130.57
140.31
140.80
135.62
130.68
131.01
138.15
149.11
157.79
157.59
144.29
118.08
84.20
51.89
31.67
31.29
52.07
87.40
124.19
147.20
144.46
111.50
52.82
-19.83
-91.01
-145.88
-173.99
-172.04
-145.12
-105.28
-67.52
-44.28
-40.84
-53.88
-74.09
-91.09
-97.61
-90.91
-71.21
-39.60
2.83
53.48
106.18
151.15
177.64
178.89
156.12
118.93
81.90
59.32
60.85
89.47
142.09
210.82
284.96
352.68
402.93
427.65
423.56
392.70
341.10
276.79
208.04
142.84
88.59
51.58
35.11
37.21
49.66
59.85
55.28
28.96
-17.09
-72.39
-122.14
-152.95
-157.82
-137.90
-101.00
-57.99
-18.55
11.66
31.92
44.97
54.47
62.03
66.22
63.46
50.31
25.63
-8.75
-49.35
-93.31
-139.99
-190.52
-245.55
-302.81
-356.36
-398.32
-422.06
-425.21
-410.53
-384.46
-354.04
-324.31
-297.23
-272.37
-248.38
-223.96
-198.03
-169.36
-136.44
-97.87
-53.23
-3.58
48.80
100.89
149.12
189.77
219.29
234.69
234.25
218.15
188.73
149.99
106.53
62.71
22.29
-11.31
-35.03
-46.61
-45.57
-33.88
-15.61
4.47
22.57
36.94
47.13
52.39
50.31
36.96
8.22
-38.16
-101.07
-175.59
-253.94
-327.16
-386.86
-426.62
-443.13
-436.60
-410.37
-369.73
-320.36
-267.01
-212.92
-160.06
-109.83
-63.35
-21.36
16.32
51.12
85.23
120.82
159.39
201.46
246.39
291.80
333.63
366.73
386.51
390.89
381.61
363.32
341.27
318.29
293.24
261.71
218.82
162.33
94.25
20.04
-53.76
-121.92
-181.63
-231.93
-272.20
-301.17
-316.80
-317.08
-301.00
-269.56
-225.81
-174.31
-119.92
-66.34
-14.86
35.55
86.88
139.97
192.74
240.10
275.87
295.40
297.86
285.94
263.89
235.23
201.87
165.20
127.76
93.79
67.78
51.91
44.38
40.24
34.19
23.87
11.25
1.55
0.50
11.84
36.22
71.38
113.35
157.00
196.74
226.88
242.78
241.88
224.26
192.05
148.14
95.35
36.51
-24.44
-81.57
-127.70
-156.81
-167.04
-161.92
-148.84
-135.00
-123.35
-111.13
-92.05
-61.18
-19.03
27.38
67.42
91.72
96.32
83.74
60.92
35.55
12.90
-5.28
-20.30
-34.62
-50.35
-68.26
-87.59
-106.20
-120.97
-128.47
-125.72
-111.38
-86.58
-55.26
-23.58
1.79
15.92
17.51
9.38
-3.01
-14.10
-20.61
-22.01
-19.38
-13.33
-2.90
13.69
36.82
63.31
86.13
96.65
88.52
61.04
20.08
-24.06
-60.51
-81.79
-85.99
-76.36
-58.97
-39.61
-21.46
-4.32
14.13
36.23
62.40
90.13
115.04
132.93
142.25
145.28
147.22
153.70
167.87
188.72
211.58
230.39
240.17
238.72
226.49
205.37
177.10
142.40
101.58
55.89
8.62
-35.03
-69.37
-90.31
-96.86
-91.13
-76.90
-57.72
-35.60
-10.89
16.51
45.62
73.61
96.35
109.76
111.47
101.63
82.70
58.54
33.09
9.31
-11.55
-29.98
-47.54
-65.68
-84.65
-103.26
-119.47
-131.66
-139.68
-144.91
-149.29
-154.13
-159.26
-163.24
-164.50
-162.44
-157.91
-152.75
-148.87
-147.57
-149.30
-153.72
-159.81
-165.81
-169.26
-167.43
-158.22
-140.90
-116.51
-87.33
-55.83
-23.76
7.99
38.76
67.18
90.73
106.07
110.15
101.61
81.64
53.97
23.94
-3.13
-23.41
-35.51
-40.45
-40.88
-39.95
-40.30
-43.40
-49.25
-56.49
-62.97
-66.67
-66.68
-63.70
-59.56
-56.21
-54.41
-53.01
-49.21
-39.60
-21.65
5.22
39.02
75.74
110.44
138.86
158.52
169.17
172.21
169.43
162.03
150.60
136.23
122.15
113.94
117.49
135.54
164.85
196.42
219.12
224.93
212.48
187.00
156.59
127.45
100.93
74.12
42.87
5.32
-36.77
-79.20
-117.86
-150.71
-178.07
-201.40
-221.85
-239.52
-253.58
-262.96
-266.81
-264.73
-256.68
-243.02
-224.69
-203.26
-180.77
-159.36
-140.86
-126.41
-116.31
-110.10
-106.57
-103.86
-99.66
-91.63
-78.15
-58.78
-34.43
-7.04
20.95
46.95
68.34
82.51
87.35
82.06
68.07
49.24
31.08
18.94
16.31
23.75
39.08
58.36
77.44
93.28
104.49
111.43
115.97
120.80
128.61
141.16
158.41
178.33
197.61
212.77
221.59
223.86
221.13
215.93
210.46
205.46
199.78
190.77
175.52
152.55
122.86
89.78
57.46
28.75
3.68
-20.55
-48.14
-82.77
-126.30
-178.70
-238.53
-303.16
-368.50
-428.42
-475.15
-501.03
-501.15
-475.36
-428.50
-368.58
-303.85
-240.61
-182.25
-129.62
-81.87
-36.84
8.73
58.35
114.04
174.53
234.26
284.66
317.39
327.37
314.75
284.56
244.78
203.96
169.39
145.74
134.24
132.18
133.23
129.04
112.20
79.61
34.34
-15.06
-57.88
-85.61
-95.05
-88.86
-73.76
-57.72
-47.54
-47.15
-57.16
-74.78
-94.19
-108.12
-110.27
-97.77
-72.71
-41.65
-13.03
5.85
10.85
1.09
-22.11
-56.36
-98.26
-142.73
-183.04
-212.12
-225.26
-222.52
-209.25
-193.85
-183.91
-182.80
-188.35
-194.39
-193.77
-181.52
-156.41
-120.75
-78.90
-35.11
8.13
50.73
94.47
141.64
193.10
247.26
299.78
344.42
374.79
386.14
376.51
346.77
299.72
238.29
164.32
78.78
-16.58
-117.13
-214.20
-296.22
-352.19
-375.42
-365.87
-329.97
-278.33
-222.75
-173.63
-138.32
-120.07
-117.28
-123.66
-129.67
-125.61
-105.61
-70.34
-27.00
13.43
40.41
47.15
32.07
-1.60
-47.17
-95.98
-138.83
-167.55
-176.77
-165.43
-136.84
-97.23
-53.44
-10.54
29.53
67.75
106.58
148.04
192.11
236.05
274.80
302.43
314.17
308.31
286.95
255.42
220.47
188.36
163.43
147.73
141.42
143.42
151.80
163.94
176.74
187.14
192.88
193.10
188.37
180.12
169.93
158.73
146.70
133.46
118.66
102.33
85.06
67.70
51.11
35.89
22.34
10.47
0.11
-9.03
-17.35
-25.29
-33.27
-41.54
-50.13
-58.85
-67.33
-75.16
-81.88
-86.94
-89.62
-89.08
-84.49
-75.41
-62.14
-45.86
-28.57
-12.59
0.06
8.17
11.55
10.92
7.46
2.36
-3.42
-9.35
-15.19
-20.83
-26.13
-30.84
-34.65
-37.24
-38.54
-38.73
-38.34
-38.11
-38.79
-40.90
-44.62
-49.68
-55.38
-60.77
-64.68
-66.05
-64.01
-58.04
-48.08
-34.48
-17.96
0.41
19.31
37.21
52.47
63.60
69.54
70.00
65.54
57.57
47.86
38.10
29.36
21.89
15.23
8.61
1.47
-6.14
-13.53
-19.62
-23.41
-24.54
-23.41
-21.24
-19.68
-20.41
-24.60
-32.29
-41.79
-49.46
-50.11
-38.45
-11.06
31.75
85.19
140.98
189.86
224.68
242.37
244.18
234.11
216.60
194.71
169.67
141.51
110.32
77.03
43.41
11.53
-16.95
-41.09
-60.50
-74.89
-83.81
-86.68
-83.19
-73.80
-59.99
-44.17
-29.15
-17.46
-10.74
-9.37
-12.63
-19.18
-27.47
-36.18
-44.31
-51.13
-56.10
-58.89
-59.38
-57.71
-54.31
-49.78
-44.86
-40.28
-36.70
-34.55
-34.03
-34.95
-36.88
-39.25
-41.55
-43.45
-44.87
-45.95
-46.88
-47.83
-48.82
-49.77
-50.47
-50.68
-50.26
-49.26
-48.02
-47.08
-47.12
-48.68
-51.97
-56.66
-61.81
-66.05
-67.86
-65.97
-59.78
-49.41
-35.80
-20.30
-4.40
10.57
23.59
33.92
41.07
44.71
44.73
41.32
35.08
26.99
18.26
10.06
3.22
-1.96
-5.67
-8.38
-10.54
-12.36
-13.75
-14.56
-14.83
-14.89
-15.38
-16.96
-20.02
-24.44
-29.58
-34.36
-37.52
-37.99
-35.11
-28.82
-19.63
-8.49
3.46
15.08
25.42
33.83
39.92
43.59
45.01
44.53
42.63
39.83
36.60
33.28
30.13
27.28
24.77
22.60
20.74
19.21
18.07
17.39
17.15
17.12
16.79
15.51
12.66
7.86
1.08
-7.29
-16.51
-25.59
-33.35
-38.61
-40.36
-38.02
-31.64
-21.97
-10.35
1.62
12.42
20.88
26.39
28.85
28.54
26.04
22.01
17.13
11.99
7.05
2.64
-1.07
-4.03
-6.34
-8.17
-9.81
-11.50
-13.43
-15.65
-18.16
-21.02
-24.41
-28.63
-33.92
-40.28
-47.20
-53.70
-58.46
-60.19
-57.98
-51.58
-41.44
-28.61
-14.49
-0.54
11.95
22.06
29.23
33.29
34.44
33.09
29.83
25.33
20.19
14.93
9.86
5.13
0.77
-3.26
-6.99
-10.44
-13.67
-16.79
-20.05
-23.82
-28.50
-34.33
-41.18
-48.41
-54.91
-59.27
-60.25
-57.11
-49.87
-39.27
-26.47
-12.72
0.82
13.22
23.67
31.47
36.19
37.69
36.30
32.74
27.94
22.71
17.49
12.27
6.84
0.94
-5.41
-11.96
-18.28
-23.86
-28.40
-31.99
-35.15
-38.71
-43.70
-51.03
-61.14
-73.58
-86.47
-97.19
-103.05
-102.02
-93.38
-77.62
-56.08
-30.35
-1.80
29.37
63.18
99.36
137.01
174.38
209.06
238.42
260.13
272.77
277.52
276.67
272.85
268.19
263.89
260.46
258.27
257.85
259.55
264.49
271.98
279.38
283.07
280.11
269.83
254.34
237.55
212.85
176.60
127.61
68.68
6.23
-52.45
-101.91
-139.84
-166.71
-184.70
-194.81
-198.07
-195.51
-188.26
-177.75
-165.52
-152.95
-141.10
-130.73
-120.95
-110.80
-99.58
-87.16
-74.06
-61.18
-49.43
-39.54
-32.17
-26.73
-22.47
-18.73
-15.07
-11.63
-8.61
-6.16
-4.21
-2.85
-1.49
0.57
3.86
8.62
14.74
21.82
29.40
37.11
44.15
50.36
55.79
60.67
65.11
69.06
72.32
74.69
76.21
76.44
75.57
74.04
72.28
70.26
67.18
61.35
50.18
36.03
19.50
1.53
-16.60
-33.60
-48.70
-62.04
-74.64
-87.92
-102.96
-120.74
-140.90
-162.29
-183.49
-203.70
-223.09
-242.76
-264.31
-289.62
-321.19
-360.85
-408.85
-462.64
-516.23
-560.90
-587.54
-589.83
-566.69
-523.00
-467.26
-408.24
-352.18
-301.77
-256.99
-217.01
-181.66
-151.65
-127.84
-110.06
-96.73
-85.56
-74.62
-63.23
-51.98
-42.41
-35.83
-32.60
-31.75
-31.32
-29.11
-23.65
-14.69
-3.29
8.74
19.70
28.75
36.23
43.51
52.28
63.85
78.57
95.69
113.80
131.47
147.83
162.90
177.47
192.72
209.95
230.28
254.42
282.22
312.13
340.96
364.29
377.71
378.34
366.05
343.51
315.15
285.50
257.78
233.39
212.38
194.38
179.26
167.25
158.37
151.89
146.09
138.63
127.33
111.02
89.99
66.03
41.73
19.57
1.20
-12.70
-22.04
-26.57
-25.49
-17.39
-1.23
23.02
53.89
88.53
123.46
155.49
182.45
203.63
219.85
232.57
243.33
252.43
258.29
257.64
246.34
220.78
178.88
121.10
50.27
-27.63
-103.69
-167.05
-206.81
-215.47
-192.59
-146.36
-90.72
-41.20
-6.64
13.85
28.79
47.97
75.60
106.87
130.56
136.62
118.80
80.15
28.92
-26.72
-82.20
-136.33
-188.06
-234.00
-267.28
-286.58
-293.63
-294.81
-297.43
-304.88
-314.20
-317.85
-308.18
-279.76
-237.89
-188.89
-138.37
-88.21
-36.39
20.87
85.91
141.93
201.65
253.73
288.77
299.38
282.96
243.11
189.08
132.78
85.12
55.18
41.68
41.59
50.17
63.22
77.87
92.08
103.69
110.03
110.47
101.93
85.41
64.02
42.11
23.62
10.78
3.52
-0.12
-1.70
-4.71
-10.15
-17.57
-25.57
-32.68
-38.11
-42.13
-45.95
-50.66
-58.27
-69.47
-84.03
-100.96
-118.95
-136.87
-153.90
-169.47
-182.61
-192.33
-196.91
-194.49
-183.77
-164.68
-138.59
-108.14
-76.58
-47.06
-22.08
-3.23
8.83
14.26
14.03
9.76
3.48
-2.77
-7.33
-9.32
-8.70
-6.04
-2.14
2.24
6.59
10.69
14.56
18.39
22.44
26.81
31.30
35.40
38.46
40.05
40.25
39.75
39.59
40.70
43.55
48.01
53.57
59.71
66.09
72.51
78.61
83.70
86.76
86.88
83.64
77.41
69.24
60.50
52.40
45.82
41.21
38.68
38.08
38.97
40.68
42.34
43.04
42.02
38.80
33.16
25.13
14.89
2.84
-10.43
-24.15
-37.44
-49.46
-59.45
-66.76
-70.92
-71.64
-68.91
-63.12
-55.07
-45.85
-36.60
-28.31
-21.60
-16.68
-13.51
-11.88
-11.60
-12.48
-14.35
-17.01
-20.20
-23.52
-26.57
-29.01
-30.66
-31.52
-31.78
-31.70
-31.46
-31.15
-30.78
-30.37
-30.04
-30.06
-30.80
-32.67
-35.84
-40.06
-44.64
-48.43
-50.22
-49.03
-44.43
-36.72
-26.64
-15.13
-3.02
9.12
20.82
31.56
40.70
47.62
52.00
53.92
53.95
52.73
50.72
47.97
44.24
39.37
33.49
27.22
21.28
16.24
12.19
8.73
5.31
1.47
-2.96
-7.88
-13.15
-18.76
-24.74
-30.97
-36.95
-41.80
-44.48
-44.16
-40.64
-34.23
-25.56
-15.21
-3.53
9.16
22.28
34.72
44.93
51.46
53.37
50.61
44.03
35.00
24.94
14.89
5.37
-3.77
-13.03
-22.99
-33.99
-45.75
-57.39
-67.54
-74.89
-78.71
-79.29
-78.01
-76.86
-77.76
-81.83
-88.98
-97.87
-106.40
-112.25
-113.49
-108.95
-98.22
-81.71
-60.30
-35.21
-7.82
20.45
48.15
73.98
96.85
116.08
131.58
143.88
153.97
162.92
171.58
180.26
188.77
196.46
202.34
205.11
203.25
195.30
180.39
158.78
132.07
102.81
73.67
46.53
22.07
-0.01
-20.28
-39.02
-55.84
-69.96
-80.48
-86.67
-87.93
-83.84
-74.35
-60.18
-43.01
-25.44
-10.21
0.71
6.76
8.87
8.73
7.91
7.23
6.65
5.78
4.45
2.91
1.67
1.18
1.42
1.95
2.16
1.69
0.55
-0.94
-2.38
-3.63
-4.95
-6.93
-10.27
-15.45
-22.51
-31.01
-40.20
-49.31
-57.89
-65.84
-73.21
-79.92
-85.47
-88.98
-89.45
-86.32
-79.79
-70.88
-61.03
-51.59
-43.29
-36.20
-29.96
-24.33
-19.41
-15.72
-13.71
-13.36
-13.86
-13.86
-12.02
-7.66
-1.03
6.76
14.30
20.38
24.45
26.72
28.16
30.29
34.86
43.45
56.83
74.50
94.55
114.01
129.90
140.28
144.95
145.39
143.91
142.60
142.47
143.35
144.37
144.61
143.64
141.50
138.34
134.15
128.70
121.81
113.62
104.72
95.79
87.16
78.59
69.50
59.41
48.53
37.80
28.55
21.77
17.46
14.42
10.46
3.00
-10.35
-31.05
-59.21
-93.35
-130.37
-166.20
-196.76
-219.17
-232.58
-238.37
-239.37
-238.63
-238.19
-238.44
-238.36
-236.30
-230.81
-221.27
-207.81
-191.02
-171.65
-150.45
-128.27
-106.21
-85.42
-66.87
-50.93
-37.25
-24.94
-13.04
-0.89
11.69
24.55
37.47
50.29
62.83
74.64
84.99
93.07
98.36
100.92
101.33
100.32
98.29
95.01
89.76
81.73
70.57
56.78
41.66
27.07
14.94
6.73
3.15
4.04
8.57
15.58
23.98
32.99
42.05
50.64
58.02
63.26
65.45
64.16
59.65
52.94
45.46
38.54
32.99
28.87
25.61
22.34
18.35
13.41
7.86
2.50
-1.89
-4.91
-6.83
-8.57
-11.31
-16.02
-23.15
-32.39
-42.87
-53.46
-63.05
-70.83
-76.21
-78.77
-78.05
-73.52
-64.80
-51.88
-35.37
-16.64
2.34
19.41
32.85
41.91
47.16
50.73
55.70
65.30
81.45
103.51
127.73
147.63
155.50
144.51
111.03
56.73
-10.62
-78.24
-131.90
-161.12
-163.80
-147.74
-127.41
-117.27
-124.94
-148.20
-177.30
-201.19
-213.71
-215.73
-212.44
-208.24
-202.82
-191.19
-167.32
-128.46
-76.84
-17.98
42.59
101.84
158.88
212.70
260.02
294.95
311.35
305.69
278.99
236.43
185.07
131.07
78.18
28.09
-18.10
-58.37
-89.74
-109.54
-116.92
-113.50
-102.72
-88.25
-72.57
-56.33
-38.35
-16.48
11.68
48.00
93.12
145.76
202.33
257.37
304.83
339.76
359.75
365.20
358.66
343.32
321.92
296.29
267.52
236.27
202.81
166.83
127.82
85.96
42.94
2.40
-31.02
-53.83
-65.52
-69.51
-72.26
-81.05
-101.48
-135.56
-180.99
-231.38
-277.67
-310.38
-322.42
-311.75
-282.60
-244.35
-208.04
-182.17
-169.43
-166.59
-167.09
-164.82
-156.73
-142.94
-125.07
-104.35
-80.92
-55.10
-28.52
-4.77
11.60
17.14
10.68
-7.04
-34.86
-72.53
-120.38
-177.45
-239.37
-297.83
-342.67
-365.72
-364.36
-342.58
-309.02
-273.10
-241.22
-215.05
-192.32
-168.92
-141.19
-107.05
-66.60
-22.33
20.85
56.12
76.33
76.32
55.24
17.61
-27.42
-68.68
-96.43
-105.53
-96.86
-76.43
-52.68
-33.17
-21.90
-18.56
-19.68
-20.79
-18.59
-12.04
-1.83
11.07
26.48
44.92
66.53
90.09
112.92
132.32
147.05
158.30
168.70
180.33
193.00
203.71
207.90
201.71
183.87
156.33
123.30
89.52
58.75
33.08
13.20
-0.91
-9.72
-13.89
-13.99
-10.01
-1.01
14.93
39.83
74.11
115.18
156.82
189.93
204.82
193.96
154.71
91.27
14.49
-60.17
-116.69
-143.40
-137.14
-104.55
-59.63
-18.68
5.64
8.05
-9.31
-39.63
-75.14
-109.89
-140.37
-164.49
-180.28
-185.50
-177.96
-156.56
-122.04
-77.42
-27.97
19.54
58.01
81.47
86.19
71.11
37.78
-10.09
-67.00
-125.46
-176.71
-212.05
-225.55
-216.14
-188.20
-149.84
-109.21
-71.60
-38.04
-6.28
26.80
63.10
102.51
143.64
185.10
226.54
268.68
312.22
356.32
397.55
430.10
447.40
444.72
421.23
380.40
328.78
273.12
217.60
162.84
106.91
47.67
-15.37
-80.54
-144.97
-205.67
-260.00
-305.31
-338.45
-355.85
-354.66
-333.98
-295.42
-243.08
-182.39
-119.08
-58.56
-5.87
34.57
59.70
68.84
63.96
48.83
27.62
3.45
-21.39
-44.26
-61.25
-67.14
-56.89
-27.72
19.22
78.62
142.15
200.83
247.11
276.80
289.82
289.69
281.60
269.64
255.05
235.73
208.67
173.69
135.27
101.40
79.36
71.30
72.67
74.24
66.49
43.51
4.42
-47.92
-108.18
-169.82
-225.17
-266.30
-287.01
-285.53
-266.01
-237.01
-207.84
-184.23
-166.59
-150.91
-131.86
-105.60
-70.81
-28.53
18.49
65.53
106.59
135.60
149.25
149.41
142.99
138.93
143.39
156.19
170.96
178.73
172.95
152.67
122.07
86.91
50.82
12.97
-30.81
-84.72
-149.41
-220.08
-287.36
-340.32
-370.41
-374.46
-355.61
-321.59
-281.33
-241.36
-204.06
-168.13
-131.02
-91.53
-51.02
-12.59
20.89
48.79
73.18
97.71
125.79
159.28
198.13
240.74
284.83
327.87
367.26
400.34
424.60
438.23
440.56
432.34
415.48
392.55
366.14
338.50
311.28
285.49
261.39
238.56
216.15
193.37
170.00
146.70
124.82
105.89
90.82
79.51
70.77
62.68
53.32
41.14
25.40
5.91
-17.15
-43.31
-72.07
-103.03
-136.05
-171.05
-207.46
-243.34
-275.11
-298.34
-309.64
-308.59
-298.48
-284.91
-272.80
-263.54
-254.22
-239.52
-215.33
-181.67
-143.01
-105.83
-74.99
-51.44
-32.56
-14.73
3.68
20.99
33.27
36.70
29.85
14.36
-6.22
-28.81
-52.49
-78.50
-108.31
-141.36
-173.85
-199.86
-214.16
-215.05
-205.52
-191.90
-180.85
-176.21
-177.50
-180.73
-180.85
-174.39
-161.14
-143.64
-125.50
-109.29
-95.35
-82.18
-67.95
-52.37
-37.81
-28.99
-30.75
-44.91
-68.66
-94.65
-113.72
-118.63
-106.79
-80.53
-44.98
-4.93
37.37
82.04
129.28
176.85
218.98
247.81
256.71
243.65
212.45
171.49
130.59
97.92
77.98
71.35
75.44
85.63
96.29
101.71
97.34
80.86
53.08
17.69
-19.86
-54.10
-80.91
-98.12
-105.19
-102.51
-90.87
-71.39
-45.75
-16.60
12.41
37.19
53.88
59.47
52.09
31.08
-2.77
-46.58
-95.00
-140.60
-175.50
-194.04
-195.04
-182.29
-162.67
-142.66
-125.23
-108.83
-89.38
-63.79
-33.03
-2.58
20.00
29.13
24.27
10.59
-3.20
-8.51
0.12
23.37
57.56
96.23
132.09
158.80
172.28
171.35
157.77
135.81
111.14
89.63
76.19
73.93
83.81
104.68
133.44
165.50
195.39
217.81
228.92
227.35
214.48
193.94
170.31
147.66
128.41
112.88
99.57
86.15
70.72
52.64
32.86
13.26
-4.27
-18.58
-29.59
-37.92
-44.38
-49.58
-53.84
-57.34
-60.43
-63.80
-68.22
-74.04
-80.84
-87.29
-91.42
-91.19
-84.63
-70.85
-50.32
-24.80
3.05
30.31
54.44
73.71
87.43
96.72
103.14
108.18
112.81
117.34
121.61
125.32
128.26
130.40
133.25
138.04
145.27
154.60
164.99
175.26
184.43
191.77
196.50
199.30
200.14
198.27
192.71
182.87
169.03
152.53
135.34
108.61
68.17
14.37
-47.27
-108.03
-160.52
-201.55
-232.10
-255.75
-276.78
-297.07
-316.39
-334.31
-348.26
-354.27
-348.27
-327.91
-293.91
-250.26
-201.49
-152.03
-104.34
-59.63
-17.70
22.20
60.15
94.85
124.12
146.98
163.62
175.18
183.17
187.62
186.68
177.58
158.57
130.62
98.17
67.33
40.06
18.34
2.45
-9.34
-19.79
-30.99
-43.13
-54.62
-63.29
-68.10
-69.98
-71.79
-77.60
-91.57
-116.59
-153.29
-199.48
-250.57
-297.04
-329.19
-339.83
-326.65
-292.85
-245.62
-193.18
-141.81
-93.94
-48.24
-1.47
49.00
103.06
156.95
204.12
237.32
251.03
243.36
216.61
176.48
130.32
85.07
45.98
16.19
-3.06
-12.07
-12.23
-6.98
-1.08
1.44
-1.23
-8.53
-18.48
-28.77
-37.41
-42.90
-44.41
-41.54
-34.25
-23.34
-9.42
6.95
25.43
45.75
67.08
87.36
103.30
111.55
110.08
99.29
81.89
61.90
43.05
27.17
15.20
7.07
2.52
1.54
4.21
9.86
16.61
21.58
21.79
15.49
2.86
-13.90
-31.31
-45.91
-55.48
-59.72
-60.06
-59.02
-59.07
-61.82
-67.45
-74.72
-81.41
-85.00
-83.30
-74.90
-59.45
-37.75
-11.66
16.38
44.08
69.87
93.18
114.03
132.30
147.07
156.59
158.87
152.86
139.18
120.12
98.72
77.65
58.39
41.21
25.68
11.33
-2.06
-14.60
-26.55
-38.37
-50.63
-63.74
-77.95
-93.62
-111.45
-132.24
-156.37
-183.16
-210.53
-235.36
-254.32
-264.71
-265.03
-254.92
-234.75
-205.33
-167.82
-123.95
-76.23
-27.97
17.20
55.94
85.87
105.90
116.44
119.08
116.06
109.65
101.74
93.67
86.25
79.80
74.08
68.12
60.36
49.05
33.20
13.39
-8.08
-27.89
-42.95
-51.55
-53.57
-49.81
-40.89
-26.46
-5.45
23.03
58.69
99.63
142.71
184.38
221.46
251.67
273.78
287.48
293.23
291.87
284.27
270.87
251.61
226.38
195.63
161.10
125.74
93.06
66.22
47.22
36.40
32.70
33.94
37.22
39.30
36.85
26.79
6.68
-24.71
-66.69
-115.94
-166.65
-211.39
-243.00
-256.63
-251.15
-229.39
-197.01
-160.76
-126.85
-100.06
-83.50
-78.54
-84.62
-98.88
-116.32
-130.94
-137.58
-133.68
-120.11
-100.38
-78.87
-59.12
-42.77
-29.76
-19.22
-10.43
-3.30
1.84
4.66
5.18
3.82
1.20
-2.15
-5.86
-9.69
-13.56
-17.55
-21.79
-26.43
-31.32
-35.95
-39.54
-41.49
-41.73
-40.96
-40.51
-41.78
-45.73
-52.45
-61.13
-70.25
-77.97
-82.51
-82.47
-77.01
-66.02
-50.13
-30.72
-9.64
11.08
29.56
44.54
55.48
62.72
67.14
69.81
71.57
72.77
73.31
72.80
70.89
67.39
62.40
56.23
49.35
42.25
35.46
29.43
24.43
20.44
17.14
13.92
10.19
5.56
0.06
-5.83
-11.39
-15.97
-19.27
-21.54
-23.42
-25.69
-28.88
-32.87
-36.81
-39.32
-38.90
-34.51
-25.89
-13.63
0.99
16.50
31.58
45.31
57.19
67.05
74.92
81.06
85.91
90.01
93.85
97.76
101.81
105.98
110.34
115.13
120.72
127.36
134.93
143.00
150.95
158.22
164.50
169.86
174.46
178.62
182.71
187.03
191.75
196.64
201.03
203.95
204.47
202.16
197.22
190.04
180.60
167.89
149.96
124.69
90.93
49.39
2.67
-45.63
-92.20
-135.36
-175.45
-214.54
-255.58
-301.54
-354.64
-415.51
-482.24
-549.74
-610.14
-654.40
-675.28
-669.94
-641.10
-595.72
-541.93
-485.78
-429.46
-371.85
-310.84
-245.83
-178.91
-114.16
-55.74
-6.09
34.68
68.15
96.30
120.31
139.90
153.50
158.83
153.80
137.56
111.54
80.07
50.23
30.59
28.79
48.68
88.36
140.11
192.75
235.43
261.27
269.01
262.23
246.60
226.93
205.33
181.45
154.08
123.23
91.20
62.30
41.36
31.87
34.68
47.76
67.06
87.81
105.90
118.76
125.44
126.10
121.33
111.71
97.71
80.06
59.99
39.17
19.27
1.26
-14.97
-30.45
-46.36
-63.19
-80.10
-95.02
-105.28
-108.76
-104.79
-94.52
-80.54
-65.96
-53.52
-44.93
-40.72
-40.44
-43.12
-47.64
-52.93
-58.12
-62.55
-65.92
-68.28
-69.96
-71.30
-72.33
-72.68
-71.58
-68.33
-62.60
-54.74
-45.82
-37.27
-30.49
-26.38
-25.03
-25.67
-26.95
-27.41
-26.02
-22.56
-17.62
-12.27
-7.52
-3.95
-1.55
0.08
1.57
3.48
6.33
10.57
16.42
23.76
31.92
39.81
46.20
50.24
51.67
50.87
48.57
45.56
42.39
39.43
36.85
34.72
32.96
31.26
29.07
25.84
21.23
15.31
8.63
2.00
-3.90
-8.69
-12.43
-15.42
-18.01
-20.36
-22.50
-24.47
-26.43
-28.70
-31.50
-34.71
-37.66
-39.22
-38.22
-33.86
-26.07
-15.50
-3.29
9.37
21.43
32.12
40.90
47.31
51.01
51.86
50.03
46.11
40.90
35.26
29.83
24.88
20.34
15.87
11.15
6.01
0.55
-4.87
-9.73
-13.49
-15.81
-16.68
-16.49
-15.99
-16.08
-17.50
-20.60
-25.09
-30.12
-34.50
-37.03
-36.90
-33.77
-27.81
-19.56
-9.59
1.60
13.64
26.23
38.96
51.23
62.28
71.32
77.71
81.19
81.86
80.06
76.28
70.96
64.42
56.92
48.76
40.26
31.84
23.93
16.83
10.69
5.41
0.67
-4.02
-9.24
-15.56
-23.41
-32.93
-43.91
-55.69
-67.26
-77.37
-84.80
-88.56
-88.13
-83.54
-75.37
-64.57
-52.22
-39.38
-26.93
-15.56
-5.78
2.06
7.75
11.23
12.59
12.11
10.11
7.01
3.17
-1.08
-5.45
-9.83
-14.17
-18.52
-22.87
-27.12
-31.00
-34.20
-36.55
-38.14
-39.40
-40.98
-43.48
-47.15
-51.74
-56.45
-60.08
-61.42
-59.57
-54.23
-45.78
-35.11
-23.27
-11.20
0.45
11.33
21.10
29.34
35.52
39.11
39.90
38.10
34.29
29.23
23.64
17.99
12.53
7.40
2.68
-1.50
-5.08
-8.11
-10.74
-13.18
-15.69
-18.49
-21.75
-25.70
-30.51
-36.35
-43.20
-50.69
-58.07
-64.16
-67.64
-67.27
-62.29
-52.63
-38.94
-22.39
-4.44
13.55
30.43
45.42
58.00
67.80
74.58
78.25
78.98
77.23
73.74
69.39
64.92
60.71
56.72
52.62
48.00
42.62
36.50
29.88
23.03
16.12
9.12
1.84
-5.97
-14.60
-24.25
-34.96
-46.56
-58.55
-70.11
-80.15
-87.48
-91.08
-90.24
-84.74
-74.84
-61.25
-45.04
-27.54
-10.22
5.45
18.23
27.27
32.33
33.76
32.41
29.33
25.63
22.28
20.05
19.49
20.78
23.64
27.32
30.73
32.83
33.02
31.39
28.62
25.55
22.66
19.73
15.91
10.09
1.47
-9.97
-23.39
-37.22
-49.60
-58.78
-63.48
-63.02
-57.37
-47.00
-32.78
-15.87
2.40
20.59
37.32
51.37
61.92
68.56
71.42
71.02
68.19
63.86
58.97
54.32
50.46
47.69
45.95
44.86
43.82
42.25
39.72
36.15
31.74
26.87
21.78
16.46
10.57
3.70
-4.38
-13.42
-22.55
-30.51
-35.87
-37.42
-34.44
-26.80
-15.03
-0.11
16.72
34.22
51.27
67.07
81.06
92.80
101.88
107.89
110.49
109.72
106.04
100.37
93.86
87.45
81.62
76.24
70.70
64.25
56.36
47.00
36.69
26.30
16.63
8.16
0.79
-6.03
-13.04
-20.91
-30.07
-40.65
-52.55
-65.37
-78.36
-90.37
-99.87
-105.37
-105.85
-101.15
-92.06
-80.01
-66.62
-53.24
-40.80
-29.94
-20.99
-14.20
-9.59
-7.00
-6.05
-6.30
-7.34
-8.81
-10.35
-11.58
-12.10
-11.60
-10.02
-7.63
-4.88
-2.25
-0.06
1.51
2.26
1.77
-0.63
-5.78
-14.24
-26.01
-40.17
-54.97
-68.08
-77.08
-80.04
-75.94
-64.80
-47.68
-26.30
-2.73
21.02
43.20
62.46
77.90
89.06
95.91
98.88
98.69
96.22
92.35
87.77
82.95
78.12
73.36
68.62
63.76
58.68
53.30
47.71
42.05
36.57
31.41
26.49
21.53
16.05
9.59
1.87
-6.97
-16.30
-25.04
-31.76
-35.07
-33.93
-27.97
-17.65
-4.15
10.97
26.20
40.33
52.63
62.67
70.22
75.06
77.06
76.25
72.92
67.72
61.39
54.63
47.86
41.11
34.15
26.70
18.64
10.14
1.58
-6.57
-13.93
-20.33
-25.85
-30.75
-35.51
-40.66
-46.70
-53.89
-62.04
-70.37
-77.55
-81.96
-82.20
-77.44
-67.76
-54.10
-38.00
-21.17
-5.10
9.09
20.74
29.51
35.30
38.20
38.44
36.45
32.83
28.23
23.27
18.42
13.92
9.80
6.05
2.61
-0.53
-3.34
-5.85
-8.13
-10.34
-12.71
-15.56
-19.23
-24.03
-30.09
-37.22
-44.75
-51.55
-56.24
-57.50
-54.50
-47.10
-35.93
-22.12
-7.04
8.09
22.28
34.80
45.11
52.74
57.37
58.88
57.57
54.05
49.22
43.99
39.03
34.59
30.55
26.51
22.15
17.34
12.23
7.19
2.55
-1.51
-5.09
-8.49
-12.14
-16.41
-21.60
-27.78
-34.68
-41.66
-47.60
-51.15
-50.94
-46.09
-36.40
-22.56
-5.87
12.01
29.52
45.31
58.40
68.10
74.00
76.04
74.55
70.27
64.23
57.44
50.69
44.39
38.51
32.74
26.73
20.26
13.34
6.25
-0.54
-6.55
-11.51
-15.48
-18.98
-22.86
-28.13
-35.63
-45.67
-57.89
-71.15
-83.65
-93.34
-98.29
-97.20
-89.75
-76.71
-59.75
-41.04
-22.72
-6.57
6.21
14.96
19.45
19.90
16.92
11.60
5.35
-0.31
-4.20
-5.73
-5.01
-2.72
0.25
3.19
5.76
7.93
9.83
11.49
12.77
13.29
12.58
10.20
5.83
-0.70
-9.27
-19.43
-30.29
-40.51
-48.41
-52.33
-50.95
-43.75
-31.10
-14.27
4.89
24.35
42.22
56.95
67.48
73.23
74.04
70.32
62.96
53.30
43.00
33.62
26.25
21.18
17.85
15.10
11.71
6.94
0.83
-5.78
-11.70
-15.84
-17.80
-17.90
-17.14
-16.65
-17.35
-19.54
-22.91
-26.80
-30.40
-33.15
-34.72
-35.01
-33.92
-31.25
-26.74
-20.23
-11.94
-2.54
6.90
15.30
21.83
26.20
28.59
29.39
28.91
27.20
24.07
19.34
13.08
5.74
-1.94
-9.15
-15.28
-20.08
-23.58
-25.90
-27.14
-27.25
-26.21
-24.26
-22.00
-20.40
-20.48
-22.91
-27.63
-33.71
-39.55
-43.38
-43.78
-40.04
-32.31
-21.30
-8.09
6.22
20.59
34.03
45.56
54.19
59.17
60.22
57.69
52.53
45.98
39.18
32.88
27.31
22.34
17.74
13.39
9.43
6.06
3.49
1.66
0.21
-1.51
-4.28
-8.79
-15.42
-24.05
-34.00
-44.11
-52.92
-59.00
-61.18
-58.81
-51.85
-40.86
-26.92
-11.40
4.21
18.51
30.44
39.34
45.04
47.76
48.01
46.47
43.79
40.47
36.79
32.78
28.33
23.29
17.56
11.22
4.51
-2.30
-8.89
-14.98
-20.38
-24.97
-28.81
-32.16
-35.43
-39.15
-43.63
-48.76
-53.82
-57.58
-58.68
-56.02
-49.24
-38.75
-25.66
-11.38
2.79
15.87
27.31
36.81
44.20
49.32
52.04
52.39
50.64
47.43
43.56
39.84
36.71
34.19
31.90
29.31
26.10
22.31
18.25
14.28
10.60
7.05
3.19
-1.53
-7.50
-14.85
-23.35
-32.40
-41.14
-48.54
-53.57
-55.34
-53.34
-47.56
-38.48
-27.03
-14.41
-1.89
9.32
18.27
24.34
27.29
27.25
24.68
20.29
14.90
9.27
3.94
-0.82
-5.02
-8.84
-12.43
-15.88
-19.09
-21.91
-24.27
-26.23
-28.10
-30.28
-33.20
-37.14
-42.13
-47.91
-53.85
-58.99
-62.14
-62.17
-58.22
-50.12
-38.39
-24.18
-8.96
5.79
18.86
29.41
36.92
41.17
42.18
40.22
35.83
29.78
22.91
15.99
9.54
3.75
-1.41
-6.11
-10.51
-14.59
-18.27
-21.44
-24.12
-26.59
-29.33
-32.88
-37.68
-43.90
-51.27
-59.11
-66.37
-71.73
-73.91
-71.96
-65.50
-54.91
-41.22
-25.85
-10.28
4.28
17.03
27.46
35.37
40.72
43.63
44.42
43.57
41.63
39.14
36.48
33.86
31.27
28.60
25.73
22.64
19.45
16.34
13.46
10.80
8.08
4.83
0.52
-5.27
-12.57
-20.97
-29.58
-37.15
-42.32
-43.91
-41.26
-34.39
-24.00
-11.27
2.44
15.92
28.26
38.94
47.70
54.42
59.00
61.38
61.53
59.64
56.12
51.63
46.90
42.60
39.09
36.37
34.15
31.98
29.51
26.63
23.44
20.19
17.10
14.18
11.25
7.98
3.91
-1.32
-7.91
-15.75
-24.36
-32.94
-40.41
-45.64
-47.62
-45.65
-39.52
-29.58
-16.65
-2.00
12.94
26.79
38.48
47.37
53.30
56.49
57.38
56.46
54.19
51.00
47.31
43.56
40.17
37.42
35.40
33.95
32.76
31.53
30.04
28.21
26.01
23.34
20.05
15.96
11.05
5.51
-0.25
-5.81
-10.86
-15.43
-19.79
-24.38
-29.54
-35.32
-41.39
-47.00
-51.18
-52.88
-51.25
-45.90
-37.05
-25.53
-12.61
0.32
12.08
21.87
29.28
34.20
36.69
36.92
35.16
31.92
27.88
23.79
20.30
17.80
16.29
15.50
15.08
14.69
14.17
13.48
12.58
11.37
9.69
7.31
4.05
-0.05
-4.79
-9.77
-14.57
-18.90
-22.70
-26.12
-29.47
-33.05
-37.10
-41.70
-46.72
-51.76
-56.12
-58.86
-59.01
-55.81
-49.05
-39.16
-27.18
-14.46
-2.33
8.14
16.33
22.01
25.28
26.48
26.06
24.49
22.22
19.63
17.02
14.64
12.66
11.12
9.94
8.92
7.85
6.56
4.95
3.03
0.86
-1.54
-4.15
-7.02
-10.22
-13.83
-17.93
-22.54
-27.58
-32.90
-38.33
-43.72
-48.96
-53.84
-57.96
-60.63
-60.97
-58.19
-51.89
-42.22
-29.91
-16.11
-2.12
10.88
21.91
30.36
35.98
38.98
40.00
40.04
40.30
41.91
45.69
51.83
59.75
68.17
75.41
79.92
80.79
77.97
72.19
64.56
56.08
47.42
38.91
30.83
23.56
17.51
12.84
9.21
5.82
1.69
-3.76
-10.36
-17.21
-23.05
-26.81
-28.02
-26.86
-24.06
-20.46
-16.81
-13.53
-10.72
-8.26
-5.91
-3.49
-0.91
1.70
4.12
6.05
7.21
7.45
6.71
5.02
2.48
-0.69
-4.24
-7.89
-11.40
-14.64
-17.69
-20.74
-24.04
-27.75
-31.88
-36.30
-40.71
-44.85
-48.51
-51.66
-54.39
-56.95
-59.54
-62.21
-64.78
-66.71
-67.21
-65.47
-60.88
-53.31
-43.22
-31.58
-19.59
-8.40
1.16
8.67
14.01
17.22
18.37
17.52
14.82
10.57
5.33
-0.25
-5.53
-10.13
-13.98
-17.31
-20.42
-23.52
-26.59
-29.44
-31.78
-33.52
-34.78
-35.94
-37.43
-39.55
-42.31
-45.41
-48.32
-50.36
-50.85
-49.18
-44.85
-37.60
-27.48
-14.99
-1.03
13.14
26.25
37.26
45.61
51.25
54.54
55.98
56.02
54.97
52.99
50.22
46.83
43.02
38.95
34.63
30.00
24.89
19.25
13.16
6.94
1.03
-4.07
-8.02
-10.79
-12.69
-14.40
-16.75
-20.43
-25.69
-32.09
-38.58
-43.72
-46.13
-44.93
-39.95
-31.71
-21.19
-9.45
2.58
14.27
25.16
34.95
43.26
49.75
54.13
56.28
56.37
54.78
52.07
48.77
45.38
42.21
39.50
37.34
35.73
34.63
33.91
33.40
32.83
31.98
30.64
28.68
26.01
22.59
18.37
13.38
7.88
2.46
-1.90
-4.11
-3.31
0.67
7.14
14.67
21.66
26.97
30.33
32.22
33.46
34.45
34.86
33.64
29.68
22.55
13.13
3.55
-3.49
-5.83
-2.89
3.85
11.29
15.98
15.81
11.16
4.95
1.46
4.16
13.85
28.00
41.68
49.67
48.82
39.35
24.58
9.56
-0.56
-2.08
6.46
23.89
46.00
65.93
75.37
67.08
38.27
-6.75
-56.55
-95.92
-111.98
-100.27
-67.48
-29.57
-5.00
-6.62
-35.93
-82.93
-131.33
-166.33
-180.88
-176.95
-162.69
-146.76
-133.86
-123.53
-112.16
-96.49
-76.10
-53.76
-33.18
-16.87
-4.94
4.61
14.02
24.12
33.62
39.90
38.61
27.72
8.23
-16.51
-42.68
-67.78
-90.92
-111.46
-127.06
-134.38
-129.18
-108.73
-73.82
-29.20
17.39
57.93
84.47
93.59
87.54
74.01
63.40
65.02
83.63
117.54
159.04
196.91
220.43
222.43
201.87
164.27
120.13
81.48
57.30
49.90
53.91
59.15
55.83
39.68
13.89
-13.28
-33.63
-43.77
-46.49
-48.26
-54.58
-66.61
-81.17
-93.60
-101.12
-104.51
-107.11
-112.30
-121.11
-131.72
-140.76
-145.32
-144.64
-140.26
-134.86
-130.77
-128.66
-127.10
-123.27
-114.05
-97.36
-72.93
-42.40
-8.76
24.64
54.97
80.76
102.03
120.08
136.95
154.51
173.70
193.92
213.07
228.02
235.57
233.42
220.90
199.49
172.70
145.40
122.71
108.60
104.77
110.57
123.69
141.58
162.53
185.86
211.18
237.17
260.96
278.52
286.00
281.11
263.73
235.60
199.34
157.90
114.46
72.99
38.31
15.26
6.90
12.76
28.13
45.36
56.47
56.16
43.59
22.20
-2.54
-25.84
-45.52
-62.53
-79.53
-99.28
-123.56
-153.05
-187.73
-226.76
-267.72
-306.09
-335.82
-351.48
-351.08
-337.66
-318.44
-301.32
-290.83
-285.77
-280.33
-267.69
-244.05
-210.49
-171.67
-132.53
-95.38
-59.14
-20.99
20.78
64.88
107.26
143.02
169.07
185.79
196.63
206.03
216.98
229.17
239.19
242.23
234.65
216.11
189.93
161.94
138.29
123.24
117.80
119.70
124.44
126.91
123.03
110.88
90.73
64.27
33.49
-0.29
-36.41
-74.37
-113.01
-150.40
-184.52
-213.97
-238.15
-256.39
-267.08
-267.55
-255.44
-230.80
-197.32
-161.50
-130.07
-106.99
-91.99
-81.52
-71.46
-59.68
-46.79
-35.00
-26.03
-19.71
-14.38
-8.42
-2.01
2.22
0.01
-12.66
-37.30
-71.62
-109.47
-142.43
-162.36
-163.86
-145.92
-111.76
-67.35
-19.38
26.45
66.30
98.05
121.00
135.41
142.48
144.14
142.56
139.36
134.93
128.24
117.61
101.79
80.84
56.24
30.22
4.71
-19.20
-41.22
-61.18
-78.37
-91.41
-98.88
-100.35
-97.14
-92.19
-88.87
-89.31
-93.38
-98.76
-102.17
-101.03
-94.76
-84.70
-73.25
-62.50
-53.48
-46.13
-39.96
-34.47
-29.30
-23.95
-17.52
-8.88
2.79
17.39
33.65
49.48
62.65
71.40
74.78
72.62
65.28
53.51
38.56
22.19
6.59
-6.14
-14.62
-18.72
-19.63
-19.49
-20.50
-24.12
-30.54
-38.64
-46.39
-51.50
-52.15
-47.56
-38.26
-25.91
-12.74
-0.79
8.69
15.50
20.26
23.89
27.27
31.03
35.84
42.40
51.25
62.28
74.20
84.53
90.37
89.51
81.42
67.59
50.87
34.21
19.55
7.26
-3.43
-13.49
-23.31
-32.44
-40.11
-46.06
-50.93
-56.13
-62.98
-71.84
-81.56
-89.87
-94.16
-92.55
-84.62
-71.48
-55.30
-38.47
-22.92
-9.70
0.96
9.19
15.01
18.02
17.56
13.18
5.23
-4.76
-14.18
-20.13
-20.40
-14.32
-3.17
10.36
23.18
33.07
39.50
43.78
48.41
55.97
67.90
83.75
101.11
116.19
124.88
123.98
112.31
91.12
63.84
35.07
9.22
-10.65
-23.23
-28.77
-28.30
-22.92
-13.58
-1.24
12.75
26.51
37.88
44.96
46.72
43.23
35.61
25.56
14.82
4.78
-3.66
-10.00
-13.88
-14.91
-12.63
-6.68
2.89
15.40
29.57
43.63
55.78
64.45
68.59
67.67
61.67
51.07
36.92
20.97
5.58
-6.72
-13.78
-14.53
-9.23
0.76
13.64
27.87
42.59
57.39
71.94
85.47
96.74
104.42
107.65
106.36
101.18
92.91
82.05
68.49
51.81
31.80
8.98
-15.29
-39.19
-61.13
-80.27
-96.64
-110.71
-122.83
-132.91
-140.53
-145.38
-147.70
-148.23
-147.75
-146.45
-143.70
-138.37
-129.57
-117.32
-102.69
-87.33
-72.65
-59.15
-46.42
-33.59
-20.19
-6.64
5.68
15.02
20.04
20.49
17.36
12.54
8.13
5.79
6.28
9.41
14.18
19.18
23.01
24.81
24.64
23.72
24.28
28.94
39.75
57.12
79.17
101.71
119.17
126.11
119.09
97.93
66.31
30.89
-0.62
-21.75
-29.31
-24.33
-11.60
2.05
10.28
9.64
0.84
-11.50
-20.78
-21.24
-10.56
8.98
30.87
46.44
47.83
30.72
-4.07
-50.65
-99.77
-141.47
-167.94
-175.49
-165.12
-141.86
-112.89
-85.38
-64.57
-52.84
-49.47
-51.59
-55.63
-58.79
-60.00
-59.87
-59.66
-59.81
-59.05
-54.67
-44.12
-26.69
-4.31
19.05
39.43
55.14
67.61
80.45
97.24
119.09
144.01
168.06
187.34
200.10
207.19
210.41
210.32
205.33
192.29
169.50
138.63
104.27
71.89
45.27
25.08
9.95
-0.79
-6.17
-3.18
10.99
35.60
65.88
94.65
115.16
123.50
119.72
105.32
82.79
54.44
21.20
-15.94
-55.24
-93.98
-129.06
-157.26
-177.64
-190.29
-189.79
-172.60
-138.26
-90.48
-36.07
12.17
51.94
84.24
111.26
134.23
154.10
170.25
182.46
191.53
201.31
215.68
232.07
248.66
265.46
280.71
292.36
299.07
300.52
297.30
290.80
281.49
270.11
257.06
241.90
224.13
203.75
181.24
157.43
133.41
109.56
86.43
64.32
42.97
22.11
1.65
-18.43
-38.06
-57.14
-75.87
-94.04
-111.29
-127.21
-141.27
-152.89
-161.81
-168.28
-173.02
-177.14
-181.46
-186.35
-191.71
-196.97
-201.52
-205.22
-208.56
-212.66
-218.78
-227.69
-239.26
-252.54
-266.11
-278.64
-289.60
-299.47
-309.61
-322.03
-339.12
-363.31
-396.37
-438.28
-486.15
-533.91
-573.41
-596.79
-599.24
-580.78
-546.08
-502.48
-457.13
-414.83
-377.47
-344.91
-316.44
-291.80
-271.15
-254.48
-241.03
-229.30
-217.68
-205.19
-191.84
-178.46
-166.19
-155.63
-146.51
-137.69
-127.66
-115.11
-99.47
-80.95
-60.44
-38.92
-17.05
5.02
27.58
51.02
75.48
100.46
124.78
146.75
164.71
177.50
184.88
187.49
186.44
182.78
176.95
168.88
158.37
145.66
131.84
118.74
108.33
101.94
99.84
101.30
105.14
110.53
117.59
127.25
140.81
159.01
181.36
205.99
230.32
251.82
269.18
282.77
294.51
307.33
324.50
348.95
382.57
425.24
473.84
522.03
561.33
583.45
583.24
560.50
519.91
468.88
414.42
360.83
309.34
259.44
210.67
163.98
121.46
84.92
54.61
28.44
2.28
-29.11
-70.56
-124.53
-189.24
-258.15
-321.13
-367.66
-390.75
-389.87
-371.10
-344.18
-318.40
-298.67
-284.45
-271.39
-254.29
-229.65
-196.17
-154.11
-104.53
-49.50
6.62
56.49
90.90
101.93
86.45
48.66
-0.66
-48.00
-82.34
-99.05
-100.55
-93.64
-85.26
-79.09
-74.63
-68.81
-58.60
-42.82
-22.10
2.59
31.68
67.61
113.14
168.53
229.12
285.03
324.04
336.41
319.67
280.49
232.46
190.55
164.92
157.08
160.52
165.11
162.81
151.23
133.57
115.43
100.86
90.47
82.27
74.19
66.17
60.28
58.87
62.37
68.44
73.03
72.80
67.17
58.60
50.99
47.34
48.30
52.53
58.28
65.16
74.64
89.08
109.91
135.99
163.16
185.32
196.53
193.24
175.59
147.48
115.08
84.98
62.43
50.30
48.86
56.31
69.49
84.87
99.29
110.38
116.69
117.79
113.96
105.98
94.71
81.00
65.62
49.28
32.38
14.76
-4.39
-26.46
-53.00
-85.00
-122.97
-166.95
-216.36
-269.38
-322.32
-369.81
-406.40
-428.58
-436.22
-432.27
-420.67
-403.43
-379.08
-343.52
-292.95
-227.26
-151.66
-75.52
-9.56
37.41
60.47
58.59
34.12
-7.53
-58.12
-107.10
-143.73
-160.14
-153.98
-129.21
-94.51
-59.96
-33.56
-19.53
-17.88
-25.63
-38.33
-51.11
-60.01
-62.87
-60.10
-54.54
-50.27
-50.77
-58.02
-72.94
-96.46
-130.23
-175.50
-230.67
-289.61
-342.21
-377.48
-387.79
-371.80
-334.39
-284.60
-232.51
-186.48
-151.78
-130.23
-120.22
-116.97
-113.63
-102.65
-78.24
-38.06
16.01
78.22
140.25
192.92
228.44
242.72
237.10
218.51
197.38
183.89
183.96
197.22
217.88
237.99
251.17
254.64
249.27
237.99
224.08
210.34
198.92
191.04
186.36
182.39
174.59
158.32
131.70
97.81
64.32
40.52
32.99
42.30
62.89
85.82
103.15
111.18
110.86
105.79
99.37
92.72
84.76
74.17
61.28
48.76
40.43
39.16
45.23
55.92
66.69
73.14
72.65
65.10
52.39
37.08
21.09
5.13
-11.10
-28.02
-45.10
-60.54
-71.75
-76.37
-73.50
-64.23
-51.30
-38.05
-26.95
-18.54
-11.62
-4.20
5.56
18.28
33.06
47.92
60.59
69.43
74.14
75.81
76.55
78.73
83.99
92.72
104.04
116.05
126.51
133.27
134.68
129.76
118.20
100.05
75.51
44.81
8.27
-33.55
-79.76
-129.14
-180.11
-230.60
-278.01
-319.23
-351.23
-372.07
-381.92
-383.31
-380.15
-375.70
-370.62
-362.42
-347.18
-322.69
-290.84
-257.68
-230.53
-213.92
-206.84
-203.04
-194.32
-174.97
-144.54
-107.54
-70.49
-38.21
-11.57
12.31
37.60
67.42
102.43
140.98
180.35
217.93
251.96
281.42
305.46
322.89
332.09
331.60
321.00
301.57
276.17
248.55
222.21
199.48
181.24
167.29
156.91
149.18
142.89
136.30
127.22
113.72
95.33
74.08
54.52
42.02
40.49
50.40
68.13
87.69
103.70
113.68
118.64
121.43
124.28
127.30
128.67
126.13
118.72
107.16
93.42
79.88
68.96
62.96
64.15
73.61
89.94
108.68
123.01
125.99
113.24
84.34
42.88
-5.10
-52.94
-94.91
-127.10
-148.03
-158.21
-159.13
-151.97
-137.07
-114.55
-86.06
-56.10
-31.22
-17.51
-17.12
-26.67
-38.72
-45.84
-44.69
-37.58
-30.58
-29.50
-36.68
-49.89
-64.31
-75.47
-81.38
-83.04
-83.10
-84.22
-87.57
-92.33
-96.10
-96.14
-90.91
-81.15
-70.04
-61.97
-60.57
-66.73
-77.97
-89.46
-96.19
-95.33
-87.30
-75.26
-63.20
-54.28
-49.62
-48.38
-48.66
-48.42
-46.00
-40.19
-30.17
-15.55
3.21
24.49
45.54
62.91
73.64
76.18
70.99
60.30
47.19
34.51
24.03
16.20
10.38
5.51
0.63
-4.73
-10.54
-16.43
-22.06
-27.35
-32.53
-37.92
-43.53
-48.88
-53.00
-54.80
-53.50
-49.06
-42.12
-33.85
-25.45
-17.83
-11.45
-6.35
-2.29
1.15
4.59
8.73
14.09
20.54
26.98
31.57
32.44
28.76
21.45
13.22
7.47
6.96
12.66
23.71
38.29
54.97
73.53
94.76
119.39
146.79
174.26
197.41
211.44
212.68
199.50
172.43
133.68
86.62
35.46
-15.04
-60.03
-95.32
-118.06
-127.18
-123.17
-107.74
-83.32
-52.80
-19.45
13.38
42.45
65.38
81.17
90.21
93.96
94.24
92.22
87.93
80.36
67.75
48.51
22.24
-9.47
-43.16
-74.43
-99.10
-114.41
-119.59
-115.94
-106.72
-96.85
-92.18
-97.99
-117.10
-148.03
-184.75
-218.24
-239.74
-244.17
-232.04
-208.77
-181.89
-157.64
-138.77
-124.41
-111.96
-99.14
-84.88
-69.04
-51.32
-30.33
-4.41
26.79
60.82
92.75
117.15
130.81
134.39
131.89
128.29
126.93
128.16
129.91
129.52
125.37
117.43
106.62
93.86
79.49
63.47
46.03
28.07
11.16
-2.96
-13.12
-19.18
-22.17
-24.12
-27.42
-34.05
-44.74
-58.54
-73.01
-84.95
-91.61
-91.65
-85.48
-74.95
-62.44
-49.99
-38.71
-28.83
-20.08
-12.21
-5.30
0.31
4.22
6.28
6.71
5.99
4.69
3.24
1.98
1.08
0.60
0.51
0.71
0.96
0.92
0.19
-1.53
-4.31
-7.90
-11.69
-15.01
-17.24
-18.12
-17.80
-16.81
-15.90
-15.89
-17.36
-20.34
-24.22
-27.73
-29.29
-27.59
-22.12
-13.39
-2.76
8.05
17.60
25.03
30.09
32.94
33.92
33.37
31.71
29.47
27.26
25.63
24.86
24.78
24.87
24.39
22.69
19.45
14.79
9.25
3.52
-1.80
-6.41
-10.32
-13.81
-17.14
-20.52
-24.10
-28.00
-32.33
-37.14
-42.27
-47.19
-51.03
-52.87
-52.00
-48.30
-42.30
-35.11
-27.97
-21.93
-17.50
-14.65
-12.95
-11.88
-11.05
-10.31
-9.61
-8.89
-7.95
-6.54
-4.53
-2.04
0.49
2.41
3.12
2.36
0.29
-2.51
-5.27
-7.38
-8.60
-9.12
-9.55
-10.67
-13.13
-17.26
-22.96
-29.77
-36.86
-43.27
-47.92
-49.91
-48.76
-44.72
-38.86
-32.62
-27.16
-22.66
-18.18
-12.16
-3.33
8.44
21.82
34.75
45.30
52.42
55.97
56.32
53.95
49.39
43.23
36.11
28.31
19.39
8.49
-4.94
-20.01
-34.00
-43.16
-44.51
-37.50
-24.63
-10.32
1.19
7.72
9.73
9.45
9.12
9.60
10.19
9.34
5.96
0.33
-5.60
-8.92
-6.84
2.04
17.08
35.64
53.83
67.63
73.87
70.62
57.45
35.54
7.96
-20.30
-43.08
-54.76
-52.25
-36.60
-12.92
11.24
28.71
35.20
30.53
17.87
1.69
-14.58
-29.98
-45.72
-63.45
-82.94
-100.52
-109.53
-102.66
-75.35
-28.61
30.51
91.00
141.55
173.83
184.40
175.04
151.25
120.38
89.79
65.12
49.11
41.18
38.18
36.00
31.46
23.30
11.98
-1.29
-15.69
-30.98
-46.94
-62.43
-75.09
-82.09
-81.51
-73.60
-60.94
-47.62
-37.54
-32.73
-32.62
-34.80
-36.40
-35.78
-33.15
-30.15
-28.64
-29.19
-30.74
-31.14
-28.35
-21.30
-10.11
4.32
20.88
38.47
56.07
72.69
87.33
98.94
106.59
109.17
105.67
95.52
79.28
58.99
37.91
19.67
6.88
0.29
-1.40
-0.77
-0.55
-2.54
-7.23
-14.09
-22.18
-30.75
-39.31
-47.59
-55.25
-61.84
-67.12
-71.52
-76.42
-83.42
-93.30
-104.62
-113.87
-116.72
-109.93
-92.95
-67.99
-39.14
-10.21
16.27
39.82
60.61
78.42
92.54
102.19
107.46
109.29
109.66
110.21
112.37
116.17
120.43
123.65
124.87
124.41
123.36
124.41
130.57
145.76
172.31
209.74
254.12
298.80
336.56
361.44
371.94
361.86
330.49
281.94
224.00
164.92
110.29
66.50
31.42
2.43
-22.66
-44.64
-64.99
-85.51
-107.53
-131.57
-157.02
-183.13
-208.65
-233.73
-259.07
-286.18
-315.83
-346.62
-374.47
-393.14
-396.79
-381.24
-346.37
-295.67
-235.54
-173.04
-113.88
-61.22
-15.57
24.15
60.34
95.30
130.78
166.88
201.46
230.13
247.21
247.86
229.91
195.77
151.80
106.33
66.63
36.48
15.50
0.45
-12.09
-23.53
-32.50
-36.06
-32.04
-21.07
-7.01
4.16
6.63
-3.20
-25.76
-58.74
-98.07
-138.97
-176.71
-207.01
-226.79
-234.91
-232.75
-224.25
-214.93
-210.25
-214.04
-227.55
-249.08
-274.30
-296.96
-309.89
-306.41
-282.24
-237.61
-178.22
-114.41
-57.98
-18.14
1.75
5.60
2.74
4.27
18.63
48.35
89.37
133.00
169.38
191.04
194.83
181.92
156.48
123.71
88.33
53.78
22.21
-5.25
-28.07
-46.13
-59.92
-70.16
-77.44
-81.76
-82.52
-79.02
-71.10
-59.52
-45.58
-30.40
-13.83
5.67
30.32
61.92
100.30
142.78
184.63
220.55
246.32
260.11
262.58
256.21
244.14
229.18
213.22
197.11
180.91
164.14
146.24
127.01
107.08
87.99
72.09
61.77
58.28
60.66
65.09
65.67
56.26
33.14
-2.70
-44.89
-83.27
-107.62
-112.33
-99.71
-79.84
-66.77
-71.88
-98.44
-139.66
-181.46
-208.71
-211.59
-189.24
-149.12
-103.04
-62.02
-32.47
-15.29
-7.44
-4.75
-4.18
-4.69
-6.67
-10.49
-15.53
-19.72
-20.61
-16.79
-9.14
-0.84
4.07
3.01
-3.35
-10.96
-14.18
-8.67
6.13
26.08
44.01
52.75
48.08
30.37
3.90
-25.21
-51.42
-71.09
-82.61
-85.67
-80.61
-68.27
-50.22
-28.94
-7.33
12.26
28.77
42.50
54.29
64.26
71.17
72.73
67.17
54.78
38.53
23.14
12.88
9.38
10.90
13.43
13.19
8.97
2.98
-0.44
2.75
14.17
32.27
53.37
73.51
90.02
101.94
109.44
113.01
112.92
109.49
103.53
96.76
91.52
90.18
94.29
104.04
118.19
134.43
150.04
162.64
170.84
174.46
174.34
171.68
167.24
160.94
151.79
138.35
119.46
94.81
65.21
32.51
-0.73
-31.57
-57.24
-75.77
-86.57
-90.86
-91.47
-92.14
-96.30
-105.98
-121.20
-140.05
-159.36
-175.71
-186.35
-189.87
-186.44
-177.42
-164.76
-150.19
-134.73
-118.69
-102.08
-85.23
-69.14
-55.30
-45.09
-39.10
-36.81
-36.82
-37.21
-36.08
-31.66
-22.50
-7.59
13.40
40.09
71.36
105.61
140.76
174.09
202.01
220.11
223.88
209.99
177.59
129.05
69.86
7.94
-47.64
-88.46
-108.91
-108.30
-92.26
-71.79
-60.11
-67.57
-96.96
-141.89
-188.96
-223.22
-234.35
-220.41
-187.94
-148.42
-113.41
-90.58
-82.45
-87.35
-101.65
-121.44
-143.06
-162.65
-176.06
-179.34
-170.40
-150.46
-124.10
-97.85
-77.72
-67.01
-65.44
-69.69
-74.60
-74.57
-64.95
-43.22
-10.06
30.09
70.17
102.76
123.12
131.50
132.94
134.94
144.04
162.98
189.88
219.45
245.08
260.96
263.54
252.15
229.21
199.88
170.88
148.58
136.88
135.80
141.47
147.58
147.75
137.49
115.27
82.46
42.41
-0.24
-40.21
-72.40
-92.48
-98.01
-89.04
-68.41
-41.14
-13.23
9.74
23.77
26.95
19.53
3.52
-17.68
-39.82
-58.57
-70.23
-72.56
-65.30
-50.51
-32.23
-15.98
-7.64
-12.20
-32.22
-66.56
-110.21
-155.06
-191.86
-212.65
-213.24
-194.29
-161.06
-121.77
-85.09
-57.88
-43.69
-42.74
-52.73
-70.18
-91.61
-113.89
-134.11
-149.32
-156.49
-153.02
-137.62
-110.97
-75.88
-36.40
3.46
40.85
74.50
104.26
130.46
152.94
171.01
184.04
192.16
196.83
200.64
206.45
216.06
229.32
243.90
256.17
262.69
261.77
254.26
243.22
232.50
225.02
221.22
218.75
213.42
201.06
179.38
148.88
112.67
75.22
40.93
13.05
-6.78
-18.31
-22.37
-20.51
-14.63
-6.76
1.27
8.04
12.66
14.64
13.72
9.71
2.37
-8.47
-22.67
-39.67
-58.39
-77.27
-94.50
-108.22
-117.07
-120.50
-119.09
-114.42
-108.58
-103.40
-99.84
-97.78
-96.38
-94.82
-92.89
-91.13
-90.48
-91.60
-94.44
-98.24
-101.84
-104.10
-104.03
-100.75
-93.46
-81.62
-65.32
-45.48
-23.82
-2.28
17.55
34.82
49.24
60.36
67.02
67.33
59.45
42.81
19.01
-8.16
-33.96
-54.36
-67.63
-74.70
-78.27
-81.33
-85.65
-91.27
-96.93
-101.01
-102.43
-101.03
-97.37
-92.46
-87.39
-83.00
-79.53
-76.34
-71.74
-63.52
-49.77
-29.89
-4.89
23.01
51.38
78.29
102.56
123.55
140.91
155.08
167.96
183.18
204.90
235.46
272.76
309.21
333.68
335.96
311.71
265.13
207.51
152.49
110.19
83.72
69.44
60.42
50.85
38.83
26.21
16.31
11.23
10.51
11.77
12.39
11.04
8.24
5.58
4.38
4.51
4.14
0.39
-9.33
-25.61
-46.20
-66.30
-80.32
-84.34
-78.15
-65.69
-53.40
-47.06
-48.77
-55.65
-61.06
-57.61
-40.67
-10.45
27.99
66.69
97.55
114.66
115.46
100.62
73.28
38.09
0.31
-34.94
-63.43
-82.57
-91.80
-92.56
-87.54
-79.63
-70.78
-61.48
-50.83
-37.39
-20.25
-0.07
20.70
38.27
48.74
49.57
40.55
24.10
4.53
-13.47
-26.32
-32.51
-32.62
-28.46
-21.91
-14.32
-6.65
0.01
4.07
3.96
-0.86
-9.09
-17.64
-22.83
-22.07
-14.98
-3.42
9.64
21.55
30.90
37.59
42.30
45.96
49.51
53.90
60.05
68.42
78.57
89.06
97.82
102.84
103.01
98.50
90.75
82.04
74.76
70.55
69.52
69.85
67.83
58.83
38.85
6.34
-36.52
-83.94
-128.19
-162.27
-182.60
-190.19
-189.95
-188.19
-190.04
-197.44
-209.07
-221.64
-231.60
-236.36
-234.69
-226.66
-213.41
-196.80
-178.77
-160.63
-142.31
-122.38
-99.13
-72.12
-43.20
-16.24
4.41
16.04
18.73
15.07
8.57
1.85
-4.40
-11.25
-20.46
-33.14
-48.79
-65.23
-79.26
-87.81
-89.64
-86.00
-80.43
-77.29
-79.85
-88.66
-101.41
-114.13
-123.04
-125.93
-122.42
-113.29
-99.69
-82.78
-63.79
-44.34
-26.22
-10.68
2.35
14.38
27.61
43.38
60.98
77.62
89.88
95.76
96.27
95.24
97.80
107.89
126.62
152.31
181.64
211.33
238.83
261.98
278.32
285.29
281.46
268.10
249.47
231.11
216.87
206.42
194.91
175.19
141.43
92.08
30.74
-35.33
-97.79
-149.68
-186.28
-205.09
-205.35
-187.85
-155.01
-111.00
-61.18
-11.32
33.41
69.09
93.16
104.11
101.11
83.92
53.27
11.36
-37.77
-88.58
-135.12
-172.24
-196.47
-206.20
-201.16
-181.70
-148.49
-102.76
-47.03
14.17
74.34
125.90
161.93
177.92
172.85
148.87
109.97
60.58
4.71
-53.70
-109.95
-158.08
-191.40
-204.18
-193.40
-159.78
-107.66
-43.66
24.74
90.21
146.17
187.01
208.64
209.13
189.34
153.21
107.32
59.72
18.10
-12.33
-30.84
-42.03
-54.07
-75.28
-109.62
-153.95
-198.56
-230.96
-241.05
-224.86
-185.33
-130.03
-67.89
-6.82
46.93
88.20
112.72
117.93
104.40
76.71
42.73
11.18
-11.18
-21.66
-21.75
-15.73
-8.69
-4.59
-5.23
-10.00
-16.25
-19.90
-16.38
-1.89
25.44
64.30
109.97
155.17
191.78
213.15
215.90
200.60
171.03
132.65
90.76
49.46
11.39
-21.48
-46.98
-62.41
-65.21
-54.46
-32.21
-3.60
24.73
47.18
61.68
70.38
77.87
88.08
101.38
113.64
117.71
106.92
78.57
35.76
-13.30
-58.37
-91.02
-107.34
-108.68
-100.13
-87.72
-75.73
-65.42
-55.38
-43.31
-28.04
-10.38
7.18
21.59
30.51
33.10
30.06
23.08
14.18
4.50
-5.47
-15.61
-25.81
-35.55
-43.81
-49.25
-50.69
-47.84
-43.10
-40.12
-42.77
-53.82
-74.04
-102.06
-134.97
-169.24
-201.57
-231.53
-259.34
-285.09
-308.26
-327.56
-341.64
-349.82
-352.41
-350.99
-350.95
-357.72
-374.52
-400.80
-431.96
-460.98
-481.23
-489.02
-467.14
-407.85
-312.63
-192.35
-63.17
59.72
166.23
251.53
314.39
356.00
376.64
377.60
363.05
337.00
302.36
261.02
213.71
160.70
102.80
40.27
-24.57
-87.40
-139.77
-174.57
-188.09
-181.36
-159.25
-128.20
-95.20
-65.00
-39.77
-19.91
-5.16
5.27
12.81
19.86
29.67
44.82
66.67
94.42
124.49
150.25
163.83
158.53
131.88
87.68
35.58
-11.64
-42.67
-51.85
-41.04
-17.70
9.04
32.32
49.39
60.90
68.41
72.25
71.15
63.47
49.37
31.88
16.17
7.42
8.64
19.51
36.76
55.88
73.05
86.50
96.76
106.01
116.91
131.28
149.38
169.81
189.70
205.35
212.87
208.93
191.63
161.23
120.55
74.71
30.19
-6.80
-32.03
-44.38
-45.95
-40.80
-33.18
-25.94
-19.93
-14.56
-8.92
-2.74
3.43
8.73
12.79
16.09
19.75
24.99
32.45
42.00
53.00
64.84
77.30
90.63
105.20
121.06
137.68
153.98
168.65
180.65
189.58
195.76
199.96
202.93
204.82
205.15
203.02
197.93
190.29
181.69
174.35
170.15
169.78
172.33
175.68
177.40
175.91
171.28
165.26
160.75
160.86
167.90
182.71
204.35
230.24
256.71
279.88
296.52
304.76
304.20
295.24
278.35
253.43
219.69
176.34
123.70
64.15
2.22
-56.06
-104.86
-140.06
-160.59
-168.94
-170.84
-173.98
-185.84
-210.90
-248.22
-290.66
-326.38
-342.63
-330.46
-288.26
-222.55
-145.57
-70.92
-9.24
34.07
58.56
66.74
62.05
47.43
25.47
-1.42
-31.16
-62.56
-95.54
-129.96
-163.99
-193.09
-210.96
-212.24
-195.90
-166.87
-134.36
-108.48
-96.29
-100.22
-118.81
-148.32
-183.56
-217.55
-240.86
-243.22
-217.33
-163.38
-91.34
-19.07
33.56
51.92
31.25
-22.17
-93.70
-165.66
-221.86
-250.87
-247.21
-211.27
-149.03
-71.59
6.04
67.42
98.38
91.77
50.52
-12.25
-76.62
-122.15
-134.47
-109.70
-55.38
12.41
74.37
113.74
121.10
96.86
50.20
-4.56
-53.42
-87.36
-104.46
-108.37
-105.63
-102.75
-104.64
-114.40
-132.80
-157.25
-180.67
-192.26
-181.11
-141.54
-77.24
-1.72
65.83
107.88
115.30
90.54
45.65
-2.89
-40.34
-57.90
-53.57
-30.25
7.17
53.86
105.42
156.91
201.70
231.85
240.15
223.31
184.58
134.24
86.92
57.12
54.31
79.94
127.14
182.99
232.58
262.75
265.36
238.72
187.99
123.95
60.51
11.08
-15.42
-17.21
-0.27
24.29
44.62
52.18
43.80
21.28
-10.36
-44.82
-75.58
-96.75
-103.88
-95.41
-73.65
-45.08
-18.66
-2.93
-3.43
-21.12
-52.83
-92.57
-133.61
-169.56
-195.61
-209.01
-209.20
-197.62
-176.87
-150.12
-119.95
-88.69
-58.78
-34.01
-19.01
-17.68
-30.49
-52.27
-72.73
-79.38
-63.34
-23.16
33.62
94.25
146.40
183.28
205.24
217.06
224.39
225.10
214.75
189.25
148.62
97.39
42.04
-8.98
-53.57
-90.92
-119.82
-137.86
-143.46
-136.12
-117.95
-95.40
-76.45
-67.29
-68.84
-77.86
-89.45
-99.97
-106.52
-106.61
-97.52
-76.93
-45.53
-7.57
29.35
56.89
66.74
53.64
19.66
-27.63
-78.85
-126.71
-166.69
-195.65
-210.33
-208.63
-189.53
-155.13
-111.55
-66.87
-27.74
0.60
17.67
26.32
30.44
33.20
36.20
39.55
42.91
46.24
50.10
55.59
63.43
73.63
85.63
98.80
112.56
126.61
140.91
155.58
170.93
187.12
204.28
222.96
244.25
269.12
297.40
326.95
353.49
371.72
376.72
365.38
337.28
294.63
241.74
184.42
129.25
82.77
50.05
33.13
29.98
35.12
41.56
43.53
38.67
28.43
16.80
7.99
4.62
6.79
12.43
18.34
21.12
17.91
6.87
-12.29
-37.82
-65.99
-91.91
-110.95
-120.53
-121.12
-115.91
-109.42
-105.30
-104.74
-105.98
-105.36
-99.32
-86.37
-68.13
-48.95
-34.25
-28.18
-31.84
-42.87
-56.57
-67.81
-73.09
-71.79
-65.64
-57.13
-47.82
-37.61
-25.44
-10.46
6.65
23.22
35.35
39.30
32.94
17.03
-4.87
-27.50
-45.45
-54.85
-54.34
-44.90
-29.03
-9.51
11.46
32.10
50.29
62.82
65.79
56.09
33.74
2.93
-28.95
-53.85
-66.04
-64.27
-51.50
-33.08
-14.01
3.04
17.81
30.80
41.39
46.78
43.27
28.55
3.60
-26.78
-55.79
-77.54
-89.39
-92.60
-90.74
-87.18
-83.16
-77.63
-68.68
-55.38
-39.00
-22.65
-10.01
-3.92
-5.69
-15.14
-30.95
-50.96
-72.49
-92.69
-108.93
-119.11
-121.76
-115.77
-100.33
-75.05
-40.69
0.14
42.97
82.40
113.59
133.71
142.54
141.83
134.31
122.45
107.92
91.59
73.63
53.71
31.27
6.25
-19.98
-44.15
-61.80
-69.16
-65.39
-53.67
-39.93
-30.17
-27.47
-30.63
-35.25
-36.33
-30.79
-18.43
-1.20
18.47
38.85
58.79
76.64
89.32
92.77
83.69
61.71
30.37
-3.58
-32.68
-51.65
-58.96
-56.76
-48.95
-38.94
-28.30
-16.96
-4.45
8.56
19.84
26.36
25.55
16.58
0.50
-20.24
-42.90
-65.01
-84.58
-99.93
-109.33
-111.01
-103.57
-86.74
-62.27
-34.31
-8.94
7.39
9.96
-2.38
-26.54
-56.12
-83.64
-102.90
-110.53
-106.24
-91.92
-70.37
-44.49
-17.08
8.89
30.28
44.28
49.38
46.09
36.91
25.47
15.24
8.18
4.15
1.12
-3.76
-12.79
-26.58
-43.70
-61.17
-75.63
-84.65
-87.47
-85.03
-79.15
-71.47
-62.72
-52.74
-41.16
-28.19
-15.10
-3.81
4.11
8.43
10.56
12.90
17.47
24.81
33.52
40.91
44.22
41.95
34.48
23.91
13.22
5.10
1.18
1.64
5.23
9.80
12.89
12.45
7.30
-2.56
-16.13
-31.61
-47.01
-60.85
-72.83
-84.19
-97.25
-114.18
-135.22
-157.75
-175.68
-181.25
-168.36
-135.79
-88.74
-37.39
6.88
35.94
46.84
42.91
31.09
17.76
5.61
-7.12
-24.89
-51.91
-89.93
-138.81
-194.95
-251.98
-301.65
-335.30
-346.15
-331.88
-296.56
-250.65
-209.97
-187.44
-188.06
-206.26
-229.00
-242.63
-239.71
-221.89
-184.79
-131.59
-67.18
3.46
76.89
150.29
219.26
277.53
319.32
342.29
345.47
334.41
314.20
287.53
254.64
214.99
169.62
122.97
82.46
54.25
44.76
54.55
78.77
109.67
139.68
164.08
181.93
194.78
203.58
208.77
209.01
201.04
183.65
158.71
130.73
105.61
90.78
89.24
100.99
122.83
149.58
173.88
189.19
191.55
181.11
159.18
131.05
103.89
82.80
68.99
60.66
55.47
52.29
51.48
53.70
58.74
64.98
69.89
71.40
69.25
64.97
60.73
58.35
58.45
60.36
62.37
62.45
58.39
49.43
36.68
22.02
7.82
-4.07
-12.78
-18.81
-23.76
-29.61
-37.54
-47.30
-57.87
-67.40
-74.18
-77.79
-79.49
-82.04
-88.92
-103.27
-123.26
-147.95
-176.71
-209.33
-244.99
-281.12
-313.19
-336.26
-347.61
-348.70
-345.31
-343.69
-346.68
-351.69
-352.03
-340.95
-315.87
-280.09
-240.90
-205.93
-179.17
-160.10
-145.65
-133.08
-121.76
-112.99
-108.22
-107.63
-109.82
-112.15
-112.08
-108.23
-100.99
-91.93
-82.95
-75.37
-69.37
-64.25
-58.87
-52.36
-44.67
-36.50
-28.88
-22.52
-17.44
-12.97
-8.24
-2.71
3.49
9.62
14.87
19.01
22.84
27.95
36.09
48.18
63.72
80.82
96.92
110.08
119.97
128.19
137.58
150.85
169.09
191.06
213.72
233.48
248.00
257.36
264.10
272.12
285.46
307.02
337.76
376.30
418.25
456.12
479.93
479.64
449.00
389.52
312.18
235.13
177.30
150.88
156.17
181.74
209.76
223.61
213.71
178.70
122.86
52.23
-27.67
-111.10
-190.47
-255.83
-296.74
-306.42
-284.93
-239.83
-183.37
-128.14
-82.81
-50.31
-28.38
-11.39
6.99
31.69
64.79
104.78
146.81
183.94
209.22
218.06
209.37
185.13
148.73
103.25
50.94
-5.68
-62.07
-111.13
-144.66
-156.32
-145.17
-117.26
-83.96
-57.68
-46.69
-51.94
-67.27
-82.88
-90.23
-85.63
-71.11
-52.62
-36.82
-28.11
-27.27
-31.92
-38.22
-42.82
-43.92
-41.25
-35.53
-27.75
-18.85
-9.82
-1.85
3.83
6.24
5.16
1.47
-2.89
-5.50
-4.27
1.78
12.12
24.84
37.27
46.90
52.17
52.92
50.32
46.32
42.95
41.49
42.17
44.11
45.75
45.49
42.19
35.53
26.09
15.21
4.66
-3.73
-8.61
-9.41
-6.49
-1.00
5.56
11.80
16.82
20.33
22.41
23.30
23.09
21.68
18.90
14.67
9.19
3.01
-3.05
-8.15
-11.68
-13.54
-14.08
-13.99
-13.90
-14.12
-14.42
-14.22
-13.01
-10.72
-7.84
-5.24
-3.73
-3.66
-4.81
-6.50
-8.01
-8.79
-8.57
-7.24
-4.65
-0.59
5.12
12.39
20.75
29.36
37.26
43.68
48.22
50.89
51.84
51.13
48.61
44.00
37.20
28.53
18.86
9.30
0.80
-6.25
-12.14
-17.54
-23.07
-28.88
-34.61
-39.69
-43.81
-47.25
-50.86
-55.66
-62.30
-70.60
-79.43
-87.01
-91.37
-91.04
-85.45
-75.13
-61.49
-46.28
-31.05
-16.58
-2.91
10.45
23.88
37.19
49.45
59.35
65.74
68.23
67.29
64.10
59.95
55.81
52.08
48.62
45.08
41.07
36.27
30.37
23.03
13.90
2.79
-10.02
-23.70
-36.97
-48.39
-56.88
-61.99
-63.98
-63.54
-61.42
-58.05
-53.42
-47.19
-39.05
-28.97
-17.46
-5.46
5.79
15.13
21.73
25.30
26.11
24.79
22.10
18.68
14.95
11.21
7.73
4.89
3.09
2.56
3.28
4.92
6.99
9.10
11.05
12.77
14.15
14.86
14.33
12.02
7.73
1.84
-4.80
-11.23
-16.82
-21.65
-26.46
-32.20
-39.54
-48.30
-57.44
-65.31
-70.28
-71.37
-68.64
-63.13
-56.55
-50.70
-46.89
-45.59
-46.30
-47.69
-47.97
-45.25
-38.09
-25.73
-8.37
12.83
35.89
58.42
78.05
92.96
102.17
105.61
103.94
98.12
89.22
78.28
66.41
54.83
44.71
36.81
31.14
26.91
22.87
17.93
11.69
4.44
-3.26
-11.23
-19.99
-30.40
-42.87
-56.70
-69.95
-80.06
-84.92
-83.80
-77.47
-67.68
-56.42
-45.33
-35.62
-28.19
-23.64
-21.94
-22.13
-22.44
-21.06
-17.24
-11.95
-7.58
-6.50
-9.47
-14.75
-18.79
-18.04
-10.94
1.17
14.71
25.87
32.55
35.23
36.30
38.49
43.18
49.71
56.05
60.12
61.11
59.85
58.22
57.98
59.79
62.94
65.92
67.38
66.85
65.00
63.15
62.60
64.05
67.41
71.91
76.53
80.31
82.57
83.02
81.68
78.84
74.91
70.23
64.96
59.09
52.49
45.08
36.92
28.15
18.90
9.22
-0.98
-11.74
-22.93
-34.21
-45.06
-55.08
-64.13
-72.40
-80.23
-87.89
-95.37
-102.45
-108.73
-113.87
-117.60
-119.74
-120.04
-118.23
-114.01
-107.13
-97.40
-84.72
-69.01
-50.36
-29.10
-5.95
18.03
41.64
63.78
83.71
101.08
115.76
127.70
136.73
142.62
145.28
144.82
141.61
136.13
128.85
120.09
110.10
99.13
87.54
75.83
64.48
53.80
43.82
34.35
25.19
16.34
8.06
0.83
-4.84
-8.68
-10.69
-11.21
-10.70
-9.56
-8.04
-6.25
-4.27
-2.29
-0.65
0.23
-0.02
-1.53
-4.17
-7.52
-11.09
-14.47
-17.44
-19.97
-22.16
-24.14
-25.95
-27.62
-29.22
-30.92
-32.97
-35.63
-39.01
-43.07
-47.59
-52.30
-56.94
-61.30
-65.09
-67.89
-69.15
-68.27
-64.88
-58.98
-51.08
-42.01
-32.79
-24.30
-17.18
-11.68
-7.77
-5.26
-3.93
-3.59
-4.07
-5.16
-6.58
-7.97
-8.92
-9.13
-8.40
-6.73
-4.26
-1.22
2.10
5.41
8.42
10.97
13.07
14.97
17.03
19.57
22.57
25.54
27.66
28.02
26.06
21.97
16.64
11.42
7.59
5.75
5.53
5.71
4.61
0.74
-6.67
-17.34
-29.94
-42.30
-51.97
-56.87
-55.81
-48.89
-37.34
-22.91
-6.95
10.28
30.02
54.66
86.71
127.31
174.96
225.25
271.67
307.64
328.76
334.20
326.78
311.44
293.12
275.01
258.06
241.69
225.05
207.87
190.45
172.93
154.51
133.40
107.57
75.89
38.95
-0.97
-40.76
-77.60
-110.17
-138.85
-165.23
-191.22
-218.31
-247.24
-278.12
-310.43
-342.97
-373.62
-399.28
-416.54
-422.87
-417.60
-402.15
-379.07
-350.86
-318.98
-284.01
-246.58
-208.24
-171.53
-139.17
-113.31
-95.13
-84.82
-81.82
-85.09
-93.46
-105.96
-122.11
-141.50
-163.09
-184.00
-199.00
-201.56
-186.38
-152.18
-103.15
-47.77
4.60
47.45
78.76
99.99
113.28
119.36
117.58
107.92
93.16
79.08
72.52
78.13
95.93
121.22
146.86
166.15
174.85
171.39
155.92
129.43
93.78
52.13
9.50
-27.76
-53.63
-63.99
-57.60
-36.02
-3.42
34.49
71.35
101.55
121.88
132.40
135.73
134.91
131.25
123.48
108.86
85.36
53.80
18.20
-15.63
-42.29
-58.29
-62.44
-55.03
-37.28
-11.55
18.19
46.19
65.89
72.19
62.89
39.57
7.22
-27.37
-57.17
-76.13
-80.17
-68.32
-42.97
-9.25
26.64
59.66
87.29
109.42
127.06
140.67
149.12
150.50
143.48
128.86
110.00
90.93
74.34
61.02
50.42
41.87
35.65
32.25
32.29
36.72
45.41
56.96
69.54
80.86
88.26
89.17
81.11
64.12
43.38
25.60
15.84
16.60
26.90
43.11
60.65
74.08
79.50
77.93
70.50
56.64
36.22
9.97
-20.26
-51.79
-83.94
-116.29
-144.50
-165.81
-181.06
-191.97
-200.70
-209.19
-204.44
-175.83
-141.85
-112.88
-85.08
-59.19
-37.49
-22.84
-17.60
-22.98
-41.37
-74.10
-116.86
-164.17
-211.03
-250.50
-275.21
-279.62
-261.69
-224.70
-173.76
-110.47
-36.51
43.82
123.44
192.08
238.25
253.21
233.64
184.33
118.77
52.54
-2.09
-38.46
-56.45
-62.07
-65.04
-76.03
-102.31
-143.62
-192.50
-237.08
-265.37
-270.27
-252.39
-219.36
-182.77
-153.84
-139.78
-142.91
-160.78
-186.96
-212.63
-228.72
-228.27
-208.49
-171.90
-125.63
-78.90
-40.04
-13.88
-1.56
-1.37
-10.27
-24.70
-40.58
-53.41
-58.80
-54.03
-39.27
-17.73
5.83
28.06
48.95
71.31
97.76
127.54
154.93
171.47
170.53
151.53
120.95
89.46
66.96
58.39
62.69
75.20
91.33
109.07
129.11
153.14
181.78
214.07
248.13
282.47
316.48
349.63
380.58
406.62
424.40
431.21
426.33
411.43
390.01
366.22
344.03
326.58
315.70
311.51
311.90
312.65
308.44
294.76
269.80
235.23
195.47
155.80
120.42
91.09
67.16
46.42
26.17
3.98
-21.70
-51.24
-83.76
-117.02
-147.75
-172.09
-186.41
-188.37
-177.75
-157.15
-131.64
-107.24
-88.58
-76.74
-68.72
-58.91
-42.11
-16.60
14.40
43.78
63.53
68.02
56.01
30.53
-2.91
-38.69
-72.55
-102.03
-126.31
-145.68
-161.57
-176.61
-194.60
-219.53
-253.82
-296.31
-341.06
-378.34
-397.55
-391.55
-360.09
-311.15
-259.17
-220.42
-207.40
-224.38
-265.97
-319.32
-368.92
-401.92
-411.87
-399.48
-370.72
-333.33
-293.78
-255.88
-220.96
-189.18
-160.44
-134.31
-109.41
-83.13
-52.75
-17.32
20.73
55.26
78.17
82.39
64.89
28.31
-19.63
-68.66
-109.38
-136.23
-148.62
-150.04
-145.39
-138.32
-129.58
-117.32
-98.85
-72.89
-40.68
-5.65
28.34
59.07
87.01
114.84
146.15
183.82
228.99
280.44
334.35
384.70
424.31
446.65
448.55
431.80
402.83
370.36
341.63
319.67
302.79
286.52
266.51
241.17
212.20
183.30
157.99
137.87
122.40
109.87
98.63
87.35
75.21
61.68
46.55
30.27
14.25
0.58
-8.53
-11.96
-11.13
-9.67
-11.93
-20.93
-36.91
-57.34
-78.45
-96.54
-105.81
-101.85
-83.15
-51.82
-12.68
29.06
69.39
105.20
134.78
157.55
173.42
182.72
186.44
185.25
179.73
170.54
157.85
142.11
124.12
104.34
82.65
58.24
29.37
-6.86
-50.18
-101.10
-158.61
-218.75
-274.72
-318.19
-342.11
-343.50
-324.77
-292.98
-257.61
-226.53
-203.97
-190.50
-184.60
-184.50
-188.95
-197.02
-207.59
-219.75
-233.00
-247.47
-263.39
-279.67
-293.02
-299.02
-294.24
-278.34
-255.16
-230.47
-208.71
-190.43
-172.46
-150.39
-122.13
-89.66
-58.02
-32.43
-14.95
-3.28
7.94
24.20
48.81
81.68
120.01
159.73
196.40
225.83
244.54
250.32
243.04
225.65
203.14
182.05
168.14
164.58
171.23
185.35
203.24
221.55
238.15
250.09
254.99
251.09
238.12
218.02
194.66
173.13
158.46
155.45
164.98
185.89
213.78
241.23
259.32
260.45
241.44
205.70
163.83
126.63
103.95
99.78
111.42
131.76
153.21
170.69
174.75
175.21
171.44
163.00
148.56
127.17
99.69
68.91
38.06
8.78
-19.10
-51.47
-94.40
-152.57
-226.35
-309.69
-390.25
-452.54
-483.09
-475.24
-435.52
-379.65
-327.99
-297.36
-294.29
-313.04
-339.24
-356.72
-353.67
-327.58
-282.43
-225.93
-166.57
-112.50
-71.59
-51.10
-55.64
-84.47
-130.64
-181.24
-221.78
-241.01
-234.01
-202.37
-151.89
-89.92
-24.24
36.18
80.89
99.23
84.09
36.09
-34.64
-110.70
-173.63
-210.84
-219.61
-206.58
-183.19
-159.79
-141.68
-128.78
-118.07
-106.85
-94.64
-82.82
-73.01
-65.40
-58.21
-48.71
-34.82
-16.16
5.81
28.44
49.37
67.50
83.29
98.32
114.42
132.73
153.25
174.98
196.57
217.23
237.45
259.45
286.38
320.83
362.75
408.34
450.41
480.50
491.70
480.85
449.16
401.34
343.90
283.53
226.39
177.53
140.70
117.74
108.03
108.49
114.42
120.79
123.17
118.36
104.56
81.65
51.85
19.79
-8.31
-26.72
-32.64
-27.62
-17.06
-7.79
-5.04
-10.45
-21.81
-34.71
-44.74
-49.12
-47.16
-39.95
-29.54
-18.58
-10.05
-6.78
-10.14
-19.12
-29.62
-35.15
-29.19
-8.35
25.32
64.44
98.86
119.70
122.80
109.94
87.65
64.25
46.94
39.89
43.93
57.33
76.74
98.08
117.30
131.10
137.66
137.07
131.28
123.48
117.17
115.04
118.08
125.11
132.63
135.45
128.54
108.82
76.59
35.60
-8.43
-49.88
-85.33
-114.45
-139.53
-164.22
-192.38
-227.39
-271.60
-325.54
-386.80
-449.44
-504.71
-543.42
-558.95
-549.66
-519.29
-475.07
-424.50
-372.61
-321.14
-269.86
-218.66
-168.99
-123.33
-83.71
-50.26
-21.06
6.55
34.08
60.43
82.46
96.56
101.46
99.67
96.57
97.80
106.17
120.32
135.54
146.31
148.90
142.46
128.55
109.98
89.96
71.87
59.32
55.65
62.55
78.68
99.64
119.88
135.69
147.42
159.06
175.85
200.84
232.88
266.62
294.77
310.92
311.48
296.30
267.86
229.97
186.64
141.40
97.05
55.45
17.47
-17.01
-49.11
-80.44
-112.26
-144.36
-174.27
-197.28
-207.56
-200.10
-172.77
-127.88
-72.12
-14.97
33.98
67.81
83.92
84.34
74.72
62.63
55.53
58.81
74.08
98.40
124.95
145.13
152.00
142.84
120.43
92.14
67.18
53.18
53.33
65.48
82.90
96.85
99.81
88.42
65.02
37.09
14.34
4.52
10.05
26.85
46.77
61.81
68.07
67.12
63.99
63.29
65.96
68.57
65.48
52.65
30.32
3.06
-22.64
-41.71
-52.25
-55.31
-52.80
-45.66
-33.78
-17.28
2.08
20.58
33.93
39.16
35.40
23.79
6.00
-16.59
-42.67
-70.58
-98.07
-123.26
-145.53
-165.80
-185.68
-206.41
-228.55
-252.66
-279.89
-311.52
-347.25
-383.11
-411.30
-422.60
-410.19
-372.79
-315.06
-245.35
-172.28
-102.39
-39.92
11.92
50.15
72.47
79.00
73.54
62.54
53.37
51.79
60.43
78.62
103.05
129.19
152.26
167.91
172.07
161.67
135.40
94.31
41.97
-15.55
-69.96
-111.97
-133.36
-130.18
-104.74
-65.47
-24.35
7.25
22.61
21.53
9.39
-4.06
-10.09
-5.72
5.97
19.67
31.75
41.36
49.30
55.93
60.89
63.08
61.50
56.37
49.00
41.28
34.32
27.81
19.62
7.32
-11.80
-38.42
-69.59
-98.98
-118.98
-123.93
-110.93
-85.23
-56.24
-32.90
-19.95
-16.42
-17.44
-17.54
-13.77
-6.73
1.01
7.62
13.53
20.67
31.14
45.66
62.93
80.35
95.36
106.64
114.62
120.76
126.07
130.85
135.28
140.11
146.66
155.82
166.75
173.85
171.45
155.11
124.07
82.12
35.98
-7.96
-46.42
-79.71
-109.94
-138.02
-162.79
-181.52
-191.80
-193.03
-186.76
-175.84
-163.23
-151.25
-141.26
-134.18
-130.49
-130.32
-133.60
-140.44
-151.27
-166.12
-183.59
-200.00
-210.31
-210.07
-197.97
-176.92
-152.91
-132.17
-118.16
-110.33
-105.00
-98.10
-87.46
-73.52
-58.39
-44.05
-30.99
-18.04
-3.19
15.38
38.69
66.92
99.63
136.00
174.69
213.69
250.25
281.18
303.56
315.52
316.63
307.97
291.52
269.45
243.48
214.77
184.12
152.43
121.02
91.57
65.76
44.80
29.07
18.08
10.64
5.28
0.65
-4.10
-8.96
-13.04
-14.85
-12.90
-6.53
3.50
14.99
24.84
30.09
28.74
20.24
5.30
-14.56
-37.39
-61.01
-83.10
-101.34
-113.81
-119.50
-118.59
-112.31
-102.39
-90.42
-77.38
-63.51
-48.72
-32.88
-16.14
0.99
17.76
33.39
47.47
60.28
72.82
86.47
102.24
119.97
137.96
153.33
163.06
165.21
159.56
147.47
131.05
112.19
92.13
71.50
50.91
31.16
13.22
-2.13
-14.66
-24.60
-32.26
-37.67
-40.37
-39.56
-34.64
-25.62
-13.31
0.84
15.09
27.86
38.02
45.09
49.13
50.61
50.17
48.60
46.62
44.85
43.71
43.35
43.56
44.00
44.29
44.33
44.41
45.09
46.97
50.37
55.13
60.68
66.27
71.25
75.35
78.72
81.73
84.85
88.17
91.26
93.13
92.55
88.62
81.30
71.72
62.02
54.70
51.59
53.01
57.37
61.62
62.29
56.76
44.20
25.69
3.53
-19.85
-42.84
-65.15
-87.58
-111.49
-138.35
-169.54
-206.13
-248.60
-296.00
-345.25
-391.23
-427.80
-449.60
-453.65
-440.03
-411.42
-371.96
-326.05
-277.53
-229.39
-183.82
-142.25
-105.40
-73.54
-46.69
-24.91
-8.31
3.13
9.75
12.26
11.42
7.92
2.38
-4.32
-10.71
-14.88
-14.98
-10.15
-0.86
11.08
23.25
33.45
40.35
43.58
43.41
40.19
34.03
24.65
11.75
-4.54
-23.28
-42.59
-59.90
-72.61
-78.53
-76.40
-65.95
-47.77
-23.07
6.49
39.06
72.68
105.47
135.79
162.24
183.82
200.08
211.10
217.57
220.46
220.58
218.15
212.50
202.08
184.91
159.40
125.28
84.36
40.48
-1.29
-36.18
-61.32
-76.66
-84.72
-89.39
-94.07
-100.27
-107.26
-112.89
-114.89
-112.11
-104.79
-94.12
-81.43
-67.69
-53.41
-39.11
-25.74
-14.73
-7.60
-5.20
-7.23
-11.98
-16.94
-19.53
-18.03
-12.06
-2.62
8.27
18.29
25.50
28.89
28.55
25.50
21.17
16.90
13.29
10.07
6.21
0.42
-8.27
-20.00
-33.92
-48.38
-61.29
-70.72
-75.30
-74.49
-68.71
-59.14
-47.47
-35.53
-25.00
-17.08
-12.38
-10.84
-11.87
-14.48
-17.68
-20.72
-23.35
-25.87
-28.98
-33.50
-40.03
-48.59
-58.61
-69.00
-78.60
-86.66
-93.19
-99.13
-105.92
-114.83
-126.22
-139.11
-151.23
-159.54
-161.01
-153.46
-136.04
-109.56
-76.35
-40.02
-4.70
25.74
48.59
62.96
69.77
71.35
70.42
69.21
68.74
68.59
67.47
63.94
57.50
49.26
41.85
38.45
41.25
50.13
62.23
72.88
77.39
72.77
58.57
36.61
10.17
-16.83
-40.28
-56.10
-60.76
-52.20
-30.80
0.16
35.05
67.43
91.89
105.35
107.57
100.48
87.10
70.54
53.31
37.11
22.93
11.22
2.23
-3.90
-6.94
-6.95
-4.38
-0.15
4.73
9.40
13.38
16.33
17.73
16.67
12.15
3.72
-7.66
-19.55
-28.58
-31.75
-27.67
-17.03
-2.19
14.13
29.91
44.41
58.03
71.55
85.42
99.48
112.99
124.99
134.64
141.24
144.07
142.21
134.61
120.55
100.33
75.64
49.29
24.42
3.38
-12.83
-24.52
-32.54
-37.56
-39.69
-38.70
-34.65
-28.28
-20.87
-13.77
-7.89
-3.58
-0.78
0.68
0.99
0.59
0.38
1.70
5.90
13.73
24.74
37.31
49.05
57.64
61.55
60.57
55.61
48.30
40.25
32.62
25.87
19.94
14.44
9.09
3.79
-1.28
-5.76
-9.20
-11.22
-11.63
-10.36
-7.49
-3.12
2.63
9.53
17.33
25.71
34.38
43.13
51.86
60.41
68.49
75.62
81.35
85.60
88.77
91.58
94.64
97.81
99.99
99.42
94.43
84.20
69.15
50.68
30.47
9.81
-10.68
-30.83
-50.45
-68.85
-84.89
-97.31
-105.15
-108.13
-106.69
-101.89
-95.21
-88.34
-82.94
-80.28
-80.81
-83.85
-87.68
-89.99
-88.67
-82.56
-71.83
-57.70
-41.82
-25.67
-10.14
4.35
17.49
28.80
37.61
43.35
45.88
45.66
43.57
40.62
37.51
34.54
31.67
28.73
25.67
22.63
19.76
17.17
14.79
12.36
9.63
6.40
2.71
-1.24
-5.05
-8.32
-10.58
-11.42
-10.44
-7.34
-1.99
5.37
14.14
23.40
32.16
39.64
45.51
49.85
53.11
55.75
58.11
60.27
62.06
63.22
63.55
62.99
61.71
60.06
58.45
57.16
56.21
55.42
54.46
53.12
51.31
49.04
46.14
42.05
35.90
26.81
14.43
-0.67
-16.98
-32.52
-45.50
-54.90
-60.71
-63.66
-64.72
-64.57
-63.44
-61.15
-57.64
-53.23
-48.94
-46.17
-46.37
-50.54
-59.04
-71.62
-87.65
-106.11
-125.53
-143.75
-158.08
-165.80
-165.06
-155.71
-139.45
-119.34
-98.68
-79.88
-63.99
-50.89
-39.90
-30.59
-23.09
-17.92
-15.66
-16.37
-19.34
-23.21
-26.45
-27.89
-27.24
-25.08
-22.41
-19.97
-17.70
-14.72
-9.86
-2.42
7.22
17.68
27.11
33.98
37.48
37.48
34.15
27.68
18.33
6.98
-4.47
-13.14
-15.97
-10.89
2.19
21.07
41.97
60.88
74.72
82.06
82.95
78.31
69.40
57.50
43.83
29.71
16.39
4.97
-3.86
-9.77
-12.69
-12.62
-9.59
-3.69
4.72
14.93
25.93
36.45
45.37
51.94
55.92
57.59
57.52
56.25
54.06
50.93
46.74
41.55
35.71
29.71
23.93
18.37
12.80
7.05
1.42
-3.41
-6.71
-8.30
-8.77
-9.23
-10.56
-12.72
-14.66
-14.84
-12.05
-6.00
2.83
13.74
26.41
41.00
57.68
75.86
93.89
109.45
120.60
126.60
128.18
126.80
123.53
118.26
109.72
96.51
78.26
56.24
32.87
10.63
-9.24
-27.02
-44.04
-61.64
-80.22
-99.18
-117.55
-134.82
-151.20
-167.32
-183.49
-199.14
-212.91
-223.25
-229.19
-230.52
-227.41
-219.67
-206.26
-185.39
-155.18
-114.58
-64.06
-5.70
57.14
120.40
179.92
231.71
272.33
299.11
310.66
307.28
291.36
267.18
240.40
216.85
201.15
195.45
198.78
207.25
215.30
217.32
209.42
190.59
162.88
130.76
99.68
74.33
57.32
48.36
44.33
40.28
31.00
12.97
-14.11
-46.92
-79.38
-104.82
-118.36
-118.60
-107.64
-89.58
-68.44
-46.50
-24.10
-0.79
23.41
47.07
67.59
82.27
89.18
87.43
76.83
57.67
31.10
-0.12
-31.44
-57.37
-73.38
-78.10
-74.11
-67.18
-64.23
-71.08
-91.02
-124.28
-167.79
-215.56
-259.20
-289.40
-298.47
-282.93
-245.21
-193.18
-137.50
-87.91
-50.40
-26.49
-14.16
-9.96
-10.53
-13.04
-15.10
-14.68
-10.51
-2.89
6.10
13.34
15.88
12.39
3.79
-7.25
-17.55
-24.73
-27.99
-27.96
-26.11
-23.99
-22.89
-23.75
-27.21
-33.50
-42.14
-51.76
-60.30
-65.58
-66.20
-62.28
-55.40
-47.83
-41.25
-35.66
-29.33
-19.73
-5.15
13.79
34.16
51.68
62.57
64.91
59.08
46.95
30.73
12.24
-7.04
-25.64
-41.67
-53.18
-58.69
-57.79
-51.16
-40.16
-26.33
-11.16
3.71
16.31
24.54
26.76
22.58
13.05
0.43
-12.68
-24.18
-32.91
-38.67
-41.94
-43.61
-44.79
-46.58
-49.71
-54.20
-59.11
-62.81
-63.57
-60.32
-53.29
-43.75
-33.44
-23.55
-14.19
-4.44
6.89
20.41
35.59
50.89
64.51
75.21
82.70
87.37
89.67
89.62
86.78
80.77
71.91
61.52
51.44
43.35
37.94
34.75
32.52
29.85
25.85
20.40
13.90
6.75
-1.00
-9.72
-19.81
-31.11
-42.59
-52.43
-58.66
-60.05
-56.64
-49.83
-41.73
-34.32
-28.87
-25.64
-24.15
-23.53
-22.79
-20.96
-17.25
-11.26
-3.21
6.03
15.18
23.00
28.76
32.38
34.20
34.64
33.87
31.81
28.41
24.05
19.54
15.99
14.31
14.77
16.75
18.90
19.52
17.19
11.26
2.21
-8.45
-18.54
-25.90
-29.12
-27.92
-23.17
-16.27
-8.43
-0.17
8.73
18.70
29.64
40.60
49.97
56.19
58.50
57.29
53.87
49.76
46.00
42.80
39.75
36.30
32.08
27.11
21.60
15.67
9.07
1.27
-8.31
-19.96
-33.24
-46.92
-59.09
-67.78
-71.67
-70.71
-66.13
-60.06
-54.51
-50.57
-48.02
-45.59
-41.64
-34.83
-24.50
-10.53
6.83
27.02
48.80
69.93
87.24
97.42
98.39
90.42
76.20
59.66
43.96
30.07
16.60
1.30
-16.92
-36.63
-54.18
-65.55
-68.70
-64.77
-57.55
-51.43
-49.21
-50.91
-54.36
-56.86
-56.78
-54.36
-51.10
-48.61
-47.50
-47.12
-46.03
-42.93
-37.39
-29.94
-21.62
-13.33
-5.20
3.43
13.68
26.45
41.82
58.75
75.26
89.13
98.70
103.54
104.50
103.24
101.39
99.84
98.55
96.83
93.96
89.59
83.83
76.92
68.94
59.84
49.67
38.89
28.42
19.15
11.31
4.00
-4.50
-15.85
-30.54
-47.25
-63.16
-75.09
-80.90
-80.38
-75.20
-68.00
-61.10
-55.68
-51.69
-48.25
-44.40
-39.51
-33.41
-26.25
-18.36
-10.25
-2.67
3.52
7.69
9.70
10.11
9.90
10.01
10.85
12.19
13.44
14.04
13.83
13.00
11.84
10.48
8.77
6.40
3.19
-0.87
-5.60
-10.81
-16.43
-22.49
-28.82
-34.92
-39.90
-42.74
-42.63
-39.33
-33.27
-25.33
-16.58
-7.90
0.10
7.12
13.08
17.96
21.83
24.74
26.79
28.07
28.67
28.65
28.07
27.00
25.50
23.70
21.75
19.88
18.45
17.83
18.33
19.98
22.38
24.76
26.13
25.62
22.85
18.02
11.89
5.48
-0.23
-4.58
-7.21
-7.96
-6.72
-3.36
2.14
9.56
18.30
27.50
36.15
43.34
48.37
50.73
50.17
46.64
40.44
32.27
23.17
14.37
6.88
1.17
-3.00
-6.44
-10.24
-15.27
-21.81
-29.55
-37.67
-45.24
-51.64
-56.73
-60.83
-64.47
-68.09
-71.82
-75.44
-78.43
-80.16
-80.01
-77.51
-72.43
-64.96
-55.67
-45.49
-35.48
-26.60
-19.49
-14.53
-11.88
-11.63
-13.80
-18.09
-23.82
-29.94
-35.35
-39.30
-41.65
-42.78
-43.22
-43.19
-42.49
-40.73
-37.92
-34.94
-33.41
-35.17
-41.35
-51.67
-64.34
-76.49
-85.15
-88.13
-84.71
-75.70
-63.08
-49.14
-35.91
-24.65
-15.49
-7.37
1.84
15.01
34.68
61.52
93.09
123.65
146.03
154.60
148.11
130.44
108.97
91.02
80.68
77.49
77.66
76.66
71.85
63.54
54.64
49.35
52.00
66.15
93.81
134.44
183.93
234.56
276.16
298.75
295.64
265.82
214.86
153.64
95.09
50.03
23.72
14.27
13.79
11.73
-1.17
-29.82
-73.82
-128.38
-186.44
-240.73
-285.33
-316.17
-330.86
-328.59
-309.91
-276.73
-232.37
-181.37
-128.90
-79.99
-38.47
-6.12
17.57
34.69
47.73
58.35
66.96
73.33
77.62
81.05
85.68
93.10
103.67
116.37
129.63
142.49
155.21
168.70
183.11
197.06
207.96
214.05
216.18
218.14
224.74
238.52
257.36
274.68
282.41
274.96
252.03
218.47
181.43
146.81
116.74
89.43
61.10
28.29
-10.75
-56.24
-107.53
-163.63
-222.64
-281.37
-334.90
-377.23
-402.90
-408.50
-393.51
-360.30
-313.01
-256.37
-194.75
-131.75
-70.25
-12.64
39.09
83.44
119.48
146.83
165.26
174.58
174.56
165.00
146.03
118.34
83.22
42.19
-2.91
-49.53
-93.96
-131.65
-158.64
-173.84
-180.97
-188.26
-205.31
-237.95
-284.52
-335.39
-376.87
-397.55
-393.28
-368.20
-331.45
-291.73
-253.14
-214.56
-172.50
-125.30
-75.51
-29.23
6.97
29.67
40.40
44.68
49.28
59.46
77.54
102.91
133.64
167.84
204.48
243.08
283.07
323.12
361.33
395.65
424.44
446.72
461.99
470.08
471.21
465.99
455.56
441.58
425.97
410.51
396.28
383.20
369.84
353.71
331.88
301.79
262.01
212.69
155.52
93.38
29.55
-33.00
-92.16
-146.98
-197.69
-245.31
-291.07
-335.48
-377.64
-414.85
-443.21
-458.80
-459.31
-445.20
-419.83
-388.36
-355.86
-325.64
-298.58
-273.57
-248.77
-222.77
-195.16
-166.41
-137.31
-108.61
-81.01
-55.32
-32.60
-14.12
-1.09
5.97
7.63
5.59
2.34
0.30
1.00
4.44
9.13
12.85
13.60
10.58
4.48
-3.02
-10.18
-16.07
-20.90
-25.61
-31.06
-37.26
-43.11
-46.78
-46.43
-40.95
-30.10
-14.33
5.86
30.16
58.31
89.46
121.72
152.12
177.39
194.96
203.73
204.19
197.78
186.16
170.72
152.56
132.78
112.64
93.43
76.17
61.45
49.49
40.33
33.76
29.14
25.12
19.59
10.30
-4.18
-23.64
-46.11
-68.42
-87.35
-100.72
-107.99
-110.13
-109.15
-107.37
-106.67
-107.97
-110.98
-114.38
-116.34
-115.38
-111.04
-104.05
-95.98
-88.40
-82.05
-76.64
-71.41
-65.87
-60.51
-56.67
-55.75
-58.28
-63.24
-68.26
-70.68
-68.86
-63.15
-55.89
-50.24
-48.62
-51.39
-56.72
-61.57
-63.37
-61.38
-56.80
-51.85
-48.22
-46.12
-44.48
-42.03
-38.59
-35.39
-34.28
-36.25
-40.39
-44.07
-44.20
-38.74
-27.28
-10.40
11.50
38.71
71.53
108.58
145.56
175.66
191.77
189.56
169.73
138.10
103.55
74.93
58.32
55.99
66.62
86.50
110.82
134.67
153.82
165.37
168.20
163.02
151.79
136.81
120.02
102.63
85.51
69.53
55.84
45.60
39.50
37.34
37.98
39.73
41.12
41.49
41.12
40.98
42.02
44.61
48.34
52.31
55.69
58.14
59.87
61.37
62.92
64.36
65.14
64.71
63.02
60.69
58.84
58.60
60.61
64.57
69.17
72.26
71.46
65.04
52.63
35.56
16.46
-1.75
-16.95
-28.47
-36.86
-43.15
-48.01
-51.43
-53.05
-52.73
-51.00
-48.95
-47.70
-47.83
-49.18
-51.05
-52.73
-53.86
-54.55
-55.12
-55.79
-56.45
-56.66
-55.87
-53.61
-49.64
-43.93
-36.63
-28.04
-18.54
-8.61
1.18
10.21
17.89
23.68
27.18
28.15
26.59
22.86
17.64
11.83
6.30
1.62
-2.10
-5.19
-8.14
-11.29
-14.71
-18.20
-21.52
-24.58
-27.50
-30.50
-33.66
-36.78
-39.50
-41.40
-42.24
-41.98
-40.65
-38.22
-34.61
-29.75
-23.84
-17.44
-11.38
-6.54
-3.52
-2.50
-3.18
-5.02
-7.47
-10.18
-13.03
-16.13
-19.57
-23.35
-27.28
-31.12
-34.58
-37.51
-39.87
-41.65
-42.82
-43.28
-43.00
-42.13
-41.14
-40.70
-41.45
-43.65
-46.99
-50.55
-53.09
-53.51
-51.22
-46.30
-39.40
-31.45
-23.32
-15.58
-8.58
-2.48
2.56
6.37
8.80
9.80
9.49
8.20
6.39
4.44
2.65
1.11
-0.29
-1.74
-3.43
-5.34
-7.30
-9.03
-10.31
-11.21
-12.17
-13.88
-17.04
-22.05
-28.75
-36.42
-43.98
-50.26
-54.37
-55.80
-54.47
-50.71
-45.05
-38.19
-30.85
-23.64
-16.97
-11.00
-5.72
-1.00
3.21
6.89
9.90
12.11
13.52
14.38
15.09
16.12
17.78
20.04
22.52
24.50
25.09
23.49
19.32
12.76
4.67
-3.66
-10.82
-15.72
-18.00
-18.21
-17.65
-17.91
-20.12
-24.47
-29.96
-34.82
-37.31
-36.48
-32.52
-26.66
-20.45
-15.09
-10.93
-7.64
-4.67
-1.78
0.76
2.28
2.23
0.60
-1.97
-4.44
-5.86
-5.85
-4.60
-2.68
-0.52
1.87
4.86
8.77
13.44
17.92
20.74
20.48
16.55
9.45
0.69
-7.89
-14.91
-19.81
-22.86
-24.66
-25.63
-25.72
-24.56
-21.91
-18.21
-14.74
-13.13
-14.75
-19.91
-27.63
-36.05
-43.18
-47.76
-49.56
-49.23
-47.73
-45.80
-43.77
-41.75
-39.90
-38.59
-38.30
-39.33
-41.56
-44.48
-47.47
-50.07
-52.18
-54.14
-56.40
-59.26
-62.61
-65.92
-68.32
-68.91
-67.06
-62.55
-55.64
-47.02
-37.66
-28.64
-21.10
-16.10
-14.43
-16.51
-22.08
-30.18
-39.22
-47.29
-52.64
-54.15
-51.50
-45.10
-35.69
-23.93
-10.06
5.94
24.12
44.17
65.39
86.84
107.58
126.79
143.60
156.92
165.43
167.88
163.74
153.59
139.33
123.65
109.35
98.48
91.98
89.61
90.28
92.41
94.33
94.56
91.97
85.90
76.16
63.16
47.82
31.49
15.72
1.94
-8.85
-16.30
-20.65
-22.56
-22.79
-21.95
-20.44
-18.48
-16.33
-14.27
-12.62
-11.63
-11.37
-11.78
-12.71
-14.02
-15.54
-16.97
-17.76
-17.15
-14.39
-9.07
-1.36
8.04
18.13
28.02
37.22
45.65
53.46
60.68
67.08
72.12
75.23
76.05
74.65
71.62
67.85
64.26
61.45
59.47
57.79
55.45
51.49
45.33
37.07
27.42
17.40
7.83
-1.05
-9.60
-18.49
-28.26
-38.99
-50.30
-61.58
-72.27
-82.00
-90.38
-96.68
-99.72
-98.34
-92.23
-82.63
-72.39
-64.75
-62.04
-64.65
-71.15
-79.71
-89.88
-103.61
-124.49
-155.22
-194.86
-237.35
-272.74
-290.64
-284.42
-253.80
-204.70
-146.31
-87.61
-34.82
9.05
42.99
66.51
79.05
80.66
73.00
59.59
44.79
32.13
22.89
15.97
9.08
0.29
-10.59
-21.77
-30.24
-32.96
-28.06
-15.42
3.20
24.69
45.57
62.90
75.07
81.95
84.47
84.04
81.89
78.90
75.70
72.89
71.01
70.27
70.28
69.99
68.16
64.00
57.72
50.56
44.17
39.85
37.94
37.75
37.99
37.53
35.83
33.07
29.72
26.01
21.67
16.12
8.88
0.10
-9.26
-17.76
-24.17
-27.96
-29.62
-30.26
-31.01
-32.41
-34.13
-35.20
-34.50
-31.26
-25.50
-18.21
-11.20
-6.81
-7.26
-13.78
-25.94
-41.36
-56.23
-66.21
-67.87
-59.53
-41.89
-17.77
8.53
32.35
49.78
58.56
58.52
51.42
40.12
27.75
16.86
9.21
5.64
6.14
10.01
15.93
22.39
28.12
32.27
34.14
32.81
27.14
16.58
2.38
-11.86
-21.51
-23.61
-19.47
-14.97
-17.79
-33.07
-60.05
-92.24
-121.04
-140.55
-150.18
-153.61
-155.29
-157.04
-157.35
-153.34
-143.87
-131.14
-119.58
-113.15
-112.68
-115.10
-115.04
-107.47
-89.89
-63.02
-30.06
5.01
39.04
70.53
99.47
126.62
152.47
176.58
197.59
213.87
224.40
229.31
229.60
226.57
221.17
213.65
203.82
191.49
176.86
160.71
144.18
128.44
114.36
102.14
91.32
80.97
70.12
58.27
45.63
33.06
21.62
12.02
4.39
-1.59
-6.17
-9.20
-10.09
-8.19
-3.36
3.87
12.46
21.31
29.56
36.55
41.51
43.48
41.50
35.10
24.80
12.07
-1.17
-13.26
-23.35
-31.47
-38.10
-43.76
-48.63
-52.66
-55.79
-58.19
-60.22
-62.24
-64.27
-65.99
-66.81
-66.40
-64.89
-63.04
-61.88
-62.23
-64.15
-66.75
-68.36
-67.14
-61.78
-52.00
-38.75
-23.95
-9.99
0.91
7.35
9.12
7.13
3.06
-1.30
-4.72
-6.81
-7.82
-8.26
-8.45
-8.38
-7.83
-6.69
-4.94
-2.65
0.19
3.63
7.48
11.12
13.46
13.40
10.29
4.36
-3.41
-11.81
-19.92
-27.42
-34.36
-40.66
-45.67
-48.29
-47.51
-42.97
-35.30
-25.97
-16.63
-8.46
-1.83
3.59
8.40
12.91
17.04
20.39
22.64
23.91
24.73
25.75
27.34
29.33
31.00
31.55
30.46
27.83
24.22
20.37
16.77
13.52
10.39
7.12
3.58
-0.16
-4.01
-8.01
-12.30
-16.90
-21.50
-25.31
-27.27
-26.38
-22.14
-14.77
-5.16
5.44
15.80
25.02
32.67
38.70
43.31
46.71
49.10
50.64
51.48
51.80
51.77
51.56
51.33
51.19
51.25
51.56
52.12
52.86
53.67
54.50
55.19
55.51
54.99
52.93
48.64
41.74
32.49
21.78
10.80
0.49
-8.77
-17.09
-24.59
-30.93
-35.14
-36.08
-33.05
-26.42
-17.57
-8.28
0.07
6.99
12.74
17.75
21.96
24.64
24.80
21.81
16.01
8.64
1.44
-4.03
-7.00
-7.52
-6.16
-3.57
-0.19
3.77
8.17
12.64
16.59
19.37
20.53
20.11
18.64
16.89
15.59
15.06
15.13
15.22
14.65
12.90
9.97
6.39
3.12
1.25
1.66
4.65
9.98
16.98
24.84
32.86
40.48
47.31
52.89
56.76
58.46
57.73
54.58
49.40
42.71
35.12
27.16
19.28
11.92
5.43
0.09
-4.04
-7.16
-9.68
-12.02
-14.48
-17.13
-19.83
-22.42
-24.79
-26.91
-28.83
-30.56
-32.14
-33.62
-35.17
-37.06
-39.48
-42.40
-45.39
-47.71
-48.47
-46.90
-42.67
-35.97
-27.48
-18.16
-8.98
-0.70
6.27
11.88
16.27
19.69
22.35
24.34
25.65
26.18
25.85
24.62
22.58
19.96
17.11
14.38
12.06
10.24
8.87
7.77
6.74
5.65
4.42
3.04
1.47
-0.33
-2.42
-4.82
-7.56
-10.61
-13.98
-17.66
-21.59
-25.53
-29.03
-31.47
-32.22
-30.85
-27.30
-21.94
-15.43
-8.50
-1.78
4.35
9.74
14.40
18.41
21.83
24.68
26.96
28.67
29.80
30.42
30.62
30.60
30.58
30.85
31.62
33.01
34.95
37.28
39.71
41.91
43.47
44.03
43.26
41.06
37.62
33.52
29.53
26.33
24.20
22.86
21.66
19.83
17.01
13.29
9.22
5.48
2.60
0.81
0.10
0.32
1.26
2.72
4.42
6.06
7.28
7.80
7.43
6.16
4.11
1.58
-1.00
-3.20
-4.67
-5.29
-5.29
-5.12
-5.30
-6.10
-7.45
-8.97
-10.21
-10.88
-11.01
-10.90
-10.93
-11.42
-12.51
-14.16
-16.30
-18.83
-21.76
-25.16
-29.14
-33.77
-38.96
-44.41
-49.61
-53.88
-56.53
-57.02
-55.06
-50.64
-44.01
-35.66
-26.30
-16.77
-7.91
-0.42
5.34
9.42
12.23
14.36
16.41
18.78
21.59
24.67
27.65
30.04
31.41
31.57
30.65
29.06
27.32
25.88
24.94
24.51
24.44
24.58
24.69
24.36
22.82
19.16
12.63
3.13
-8.57
-21.06
-32.79
-42.60
-50.03
-55.13
-58.14
-59.18
-58.30
-55.64
-51.65
-47.08
-42.71
-39.02
-36.01
-33.27
-30.40
-27.18
-23.80
-20.70
-18.32
-16.94
-16.53
-16.83
-17.47
-18.07
-18.39
-18.32
-17.91
-17.21
-16.25
-14.99
-13.41
-11.60
-9.82
-8.41
-7.71
-7.85
-8.72
-10.07
-11.62
-13.19
-14.71
-16.12
-17.24
-17.75
-17.27
-15.52
-12.44
-8.23
-3.24
2.17
7.67
13.02
17.99
22.37
25.93
28.48
29.89
30.20
29.54
28.20
26.44
24.51
22.51
20.47
18.38
16.24
14.17
12.33
10.82
9.67
8.75
7.82
6.65
5.06
3.04
0.67
-1.95
-4.69
-7.46
-10.21
-12.94
-15.67
-18.46
-21.23
-23.81
-25.78
-26.63
-25.86
-23.22
-18.84
-13.25
-7.23
-1.50
3.45
7.52
10.80
13.52
15.75
17.43
18.34
18.34
17.39
15.70
13.58
11.45
9.60
8.19
7.19
6.42
5.62
4.59
3.22
1.55
-0.31
-2.31
-4.45
-6.80
-9.42
-12.26
-15.14
-17.85
-20.26
-22.36
-24.19
-25.74
-26.78
-26.87
-25.47
-22.17
-16.88
-9.86
-1.69
6.93
15.36
23.06
29.64
34.83
38.43
40.33
40.51
39.12
36.52
33.30
30.10
27.49
25.67
24.43
23.18
21.28
18.30
14.28
9.69
5.19
1.42
-1.32
-3.06
-4.08
-4.84
-5.86
-7.68
-10.76
-15.38
-21.45
-28.42
-35.30
-40.88
-44.09
-44.32
-41.63
-36.74
-30.80
-24.95
-20.04
-16.35
-13.66
-11.50
-9.46
-7.37
-5.36
-3.69
-2.54
-1.94
-1.81
-2.07
-2.77
-4.02
-5.89
-8.29
-10.88
-13.21
-14.86
-15.66
-15.78
-15.60
-15.56
-15.97
-16.90
-18.22
-19.74
-21.36
-23.13
-25.15
-27.41
-29.63
-31.20
-31.38
-29.53
-25.43
-19.33
-11.95
-4.15
3.30
9.91
15.55
20.25
24.10
27.08
29.12
30.17
30.30
29.72
28.72
27.58
26.42
25.24
23.97
22.52
20.83
18.87
16.64
14.16
11.46
8.59
5.60
2.54
-0.57
-3.75
-7.07
-10.67
-14.66
-19.10
-23.86
-28.66
-33.04
-36.58
-39.03
-40.40
-40.90
-40.80
-40.20
-38.92
-36.58
-32.85
-27.66
-21.30
-14.30
-7.25
-0.58
5.46
10.78
15.28
18.84
21.35
22.78
23.20
22.76
21.61
19.82
17.42
14.48
11.25
8.10
5.41
3.45
2.21
1.42
0.66
-0.37
-1.77
-3.33
-4.64
-5.30
-5.07
-3.95
-2.10
0.30
3.12
6.35
9.90
13.56
16.86
19.24
20.23
19.68
17.85
15.26
12.50
9.97
7.82
5.92
4.07
2.08
-0.08
-2.37
-4.70
-6.96
-9.06
-10.90
-12.38
-13.44
-14.08
-14.46
-14.86
-15.62
-17.08
-19.41
-22.49
-25.91
-28.95
-30.81
-30.81
-28.61
-24.31
-18.42
-11.63
-4.62
2.13
8.33
13.87
18.61
22.42
25.12
26.60
26.89
26.10
24.47
22.28
19.89
17.60
15.68
14.22
13.12
12.15
10.99
9.46
7.56
5.48
3.47
1.71
0.19
-1.25
-2.80
-4.60
-6.60
-8.53
-10.00
-10.52
-9.71
-7.33
-3.42
1.71
7.52
13.36
18.64
22.91
25.99
27.93
28.96
29.40
29.63
29.97
30.68
31.83
33.26
34.57
35.25
34.84
33.11
30.20
26.57
22.83
19.53
17.01
15.32
14.32
13.73
13.21
12.44
11.09
8.95
6.02
2.62
-0.63
-3.00
-3.85
-2.92
-0.46
2.94
6.62
10.07
13.15
15.99
18.79
21.63
24.36
26.62
27.90
27.70
25.50
20.91
13.79
4.34
-6.75
-18.42
-29.54
-39.23
-47.12
-53.27
-57.96
-61.31
-63.22
-63.37
-61.56
-57.96
-53.24
-48.29
-43.93
-40.54
-37.96
-35.62
-32.94
-29.53
-25.36
-20.59
-15.46
-10.07
-4.41
1.57
7.78
13.95
19.66
24.49
28.16
30.58
31.85
32.20
31.92
31.31
30.66
30.12
29.63
28.93
27.64
25.48
22.45
18.85
15.14
11.77
8.94
6.55
4.34
2.05
-0.47
-3.19
-5.96
-8.61
-10.95
-12.77
-13.83
-13.85
-12.61
-10.01
-6.13
-1.32
3.96
9.14
13.72
17.39
20.05
21.81
22.94
23.68
24.26
24.87
25.70
26.92
28.63
30.80
33.10
35.10
36.35
36.66
36.22
35.52
35.11
35.31
35.96
36.48
36.11
34.22
30.55
25.32
19.11
12.73
7.03
2.74
0.30
-0.32
0.29
1.09
1.02
-0.42
-2.78
-4.79
-4.95
-2.35
2.75
8.97
14.33
17.03
15.99
10.82
1.53
-11.64
-28.23
-47.17
-66.69
-84.51
-98.46
-107.13
-110.20
-108.31
-102.58
-94.30
-84.65
-74.77
-65.71
-58.29
-52.79
-48.82
-45.41
-41.45
-36.13
-29.26
-21.20
-12.59
-4.00
4.24
12.12
19.71
27.08
34.17
40.82
46.81
51.98
56.34
60.13
63.82
67.92
72.89
78.79
85.32
91.86
97.66
102.10
104.77
105.50
104.21
100.80
95.17
87.22
77.04
64.96
51.59
37.67
24.02
11.31
0.18
-8.93
-15.74
-20.21
-22.62
-23.53
-23.77
-24.21
-25.59
-28.32
-32.42
-37.46
-42.75
-47.56
-51.44
-54.32
-56.58
-58.83
-61.61
-65.07
-68.88
-72.39
-74.96
-76.21
-76.14
-74.99
-73.04
-70.47
-67.41
-63.97
-60.33
-56.67
-53.01
-49.18
-44.93
-40.14
-35.03
-30.20
-26.36
-23.98
-23.08
-23.19
-23.54
-23.30
-21.79
-18.52
-13.29
-6.21
2.23
11.21
19.75
26.95
32.25
35.53
36.97
36.86
35.46
32.95
29.45
25.15
20.34
15.36
10.50
5.97
1.88
-1.67
-4.50
-6.40
-7.19
-6.89
-5.84
-4.73
-4.49
-5.96
-9.59
-15.25
-22.32
-29.95
-37.30
-43.69
-48.55
-51.24
-51.11
-47.65
-40.82
-31.32
-20.40
-9.51
0.25
8.44
15.23
21.06
26.22
30.71
34.32
36.93
38.72
40.15
41.74
43.81
46.25
48.59
50.18
50.50
49.39
47.09
44.12
41.04
38.26
35.97
34.18
32.80
31.60
30.15
27.73
23.44
16.56
7.00
-4.43
-16.06
-25.81
-31.88
-33.34
-30.28
-23.71
-15.10
-5.90
2.76
10.31
16.70
22.31
27.67
33.26
39.33
46.00
53.36
61.58
70.80
80.95
91.50
101.41
109.40
114.36
115.73
113.59
108.38
100.55
90.23
77.29
61.62
43.47
23.68
3.48
-15.80
-33.08
-47.83
-59.97
-69.74
-77.50
-83.56
-88.15
-91.45
-93.59
-94.60
-94.44
-93.00
-90.24
-86.44
-82.17
-78.19
-75.13
-73.23
-72.22
-71.51
-70.51
-69.02
-67.22
-65.58
-64.47
-63.94
-63.71
-63.37
-62.63
-61.43
-59.85
-57.93
-55.57
-52.55
-48.83
-44.72
-40.86
-38.06
-36.81
-37.10
-38.30
-39.45
-39.60
-38.20
-35.19
-30.92
-25.93
-20.73
-15.62
-10.75
-6.24
-2.23
1.03
3.27
4.35
4.40
3.79
2.99
2.35
1.95
1.59
0.96
-0.04
-1.23
-2.19
-2.51
-2.08
-1.12
-0.13
0.43
0.32
-0.46
-1.74
-3.36
-5.27
-7.54
-10.20
-13.18
-16.21
-18.88
-20.68
-21.17
-20.14
-17.63
-14.06
-9.98
-5.94
-2.25
1.11
4.32
7.57
10.86
14.00
16.79
19.16
21.28
23.41
25.70
28.07
30.21
31.84
32.90
33.55
34.12
34.78
35.47
35.96
35.97
35.39
34.25
32.61
30.47
27.68
24.11
19.84
15.23
10.85
7.28
4.91
3.82
3.88
4.89
6.69
9.19
12.26
15.67
19.07
22.03
24.20
25.41
25.64
24.99
23.65
21.76
19.41
16.70
13.72
10.66
7.70
5.04
2.81
1.00
-0.49
-1.80
-3.04
-4.30
-5.62
-7.03
-8.67
-10.64
-13.04
-15.88
-19.01
-22.15
-24.98
-27.11
-28.20
-27.98
-26.30
-23.24
-19.05
-14.12
-8.93
-3.92
0.57
4.30
7.12
8.99
9.94
10.12
9.78
9.24
8.82
8.71
8.97
9.48
10.03
10.41
10.48
10.21
9.58
8.60
7.24
5.41
3.03
0.08
-3.35
-7.09
-10.88
-14.37
-17.23
-19.08
-19.64
-18.74
-16.40
-12.84
-8.37
-3.34
1.94
7.22
12.22
16.65
20.17
22.51
23.54
23.36
22.32
20.88
19.47
18.31
17.36
16.45
15.31
13.84
12.12
10.36
8.73
7.21
5.61
3.58
0.88
-2.55
-6.53
-10.73
-14.75
-18.18
-20.54
-21.25
-19.60
-15.05
-7.45
2.78
14.68
27.00
38.64
48.94
57.72
65.21
71.67
77.19
81.68
84.99
87.14
88.53
89.83
91.71
94.61
98.44
102.69
106.68
109.84
111.95
113.08
113.41
112.96
111.51
108.76
104.52
98.88
92.19
84.91
77.43
70.08
63.14
56.90
51.62
47.36
43.86
40.53
36.70
31.89
25.95
18.86
10.45
0.23
-12.52
-28.22
-46.49
-65.97
-84.55
-100.06
-110.92
-116.60
-117.63
-115.25
-110.87
-105.58
-99.88
-93.76
-87.01
-79.62
-72.03
-65.06
-59.60
-56.09
-54.31
-53.43
-52.45
-50.81
-48.54
-46.22
-44.49
-43.55
-43.10
-42.46
-41.07
-38.72
-35.60
-32.08
-28.40
-24.55
-20.29
-15.27
-9.22
-2.02
6.32
15.78
26.28
37.75
50.01
62.86
76.04
89.30
102.25
114.27
124.53
132.13
136.36
137.04
134.51
129.58
123.10
115.75
107.83
99.42
90.60
81.58
72.77
64.62
57.53
51.74
47.34
44.37
42.77
42.29
42.44
42.45
41.32
38.11
32.03
22.77
10.47
-4.28
-20.46
-36.84
-52.11
-65.09
-74.97
-81.44
-84.84
-86.08
-86.54
-87.95
-92.11
-100.38
-113.20
-129.60
-147.27
-163.04
-173.95
-178.22
-175.87
-168.61
-158.96
-149.15
-140.28
-132.28
-124.58
-116.95
-110.11
-105.47
-104.29
-106.67
-111.13
-114.98
-115.46
-110.95
-101.67
-89.48
-76.83
-65.69
-56.73
-49.40
-42.62
-35.57
-28.24
-21.38
-16.15
-13.38
-13.24
-15.13
-17.98
-20.64
-22.22
-22.16
-20.22
-16.22
-10.01
-1.50
9.04
20.86
32.55
42.41
48.89
51.18
49.49
45.05
39.58
34.68
31.35
29.80
29.63
30.19
30.86
31.24
31.10
30.32
28.79
26.52
23.64
20.44
17.28
14.54
12.50
11.38
11.40
12.80
15.81
20.59
27.00
34.58
42.52
49.86
55.72
59.52
61.06
60.47
57.99
53.74
47.73
39.98
30.76
20.82
11.26
3.16
-2.83
-6.74
-9.06
-10.38
-11.02
-11.00
-10.45
-9.90
-10.44
-13.34
-19.45
-28.61
-39.58
-50.49
-59.54
-65.57
-68.26
-67.90
-65.04
-60.14
-53.63
-45.95
-37.66
-29.42
-21.80
-15.16
-9.58
-4.96
-1.23
1.61
3.50
4.35
4.21
3.19
1.44
-1.00
-4.18
-8.18
-12.89
-17.84
-22.18
-24.82
-24.94
-22.38
-17.82
-12.46
-7.39
-2.99
1.33
6.71
14.05
23.32
33.39
42.54
49.30
53.10
54.39
54.15
53.22
51.90
49.97
47.09
43.21
38.81
34.94
32.81
33.36
36.74
42.10
47.66
51.33
51.46
47.39
39.66
29.58
18.59
7.69
-2.81
-13.12
-23.58
-34.33
-45.19
-55.70
-65.37
-73.77
-80.64
-85.77
-88.98
-90.09
-89.12
-86.45
-82.91
-79.45
-76.64
-74.03
-70.09
-62.81
-50.83
-34.55
-16.32
0.44
12.82
19.76
22.34
22.94
23.77
25.59
27.61
28.18
26.05
21.03
14.04
6.37
-1.00
-7.74
-13.89
-19.18
-22.73
-23.10
-18.93
-9.71
3.87
20.03
36.51
51.31
63.17
71.61
76.71
78.82
78.49
76.49
73.75
71.18
69.30
68.04
66.74
64.60
61.13
56.52
51.50
46.89
43.09
39.85
36.53
32.47
27.38
21.38
14.70
7.42
-0.64
-9.51
-18.80
-27.48
-34.07
-37.21
-36.17
-31.01
-22.42
-11.30
1.55
15.49
29.85
43.80
56.31
66.49
73.82
78.40
80.81
81.84
82.20
82.24
81.90
80.73
78.16
73.73
67.37
59.48
50.94
42.74
35.65
29.96
25.34
21.07
16.29
10.38
3.12
-5.32
-14.54
-24.11
-33.65
-42.89
-51.58
-59.50
-66.52
-72.72
-78.42
-84.03
-89.87
-95.78
-101.13
-104.91
-106.11
-104.17
-99.12
-91.58
-82.33
-71.99
-60.80
-48.78
-35.92
-22.45
-8.93
3.91
15.42
25.20
33.23
39.77
45.27
50.15
54.71
59.01
62.93
66.27
68.81
70.45
71.19
71.08
70.04
67.91
64.47
59.58
53.16
45.19
35.65
24.61
12.40
-0.16
-11.78
-20.93
-26.33
-27.46
-24.73
-19.45
-13.52
-9.01
-7.76
-10.91
-18.53
-29.45
-41.36
-51.53
-57.69
-58.85
-55.48
-48.94
-40.68
-31.57
-21.84
-11.61
-1.49
7.22
12.93
14.58
12.31
7.52
2.26
-1.68
-3.55
-3.83
-3.82
-4.84
-7.65
-12.13
-17.46
-22.46
-25.99
-27.30
-26.14
-22.84
-18.31
-14.06
-11.86
-13.23
-18.76
-27.55
-37.26
-44.89
-48.06
-46.24
-41.16
-36.18
-34.91
-39.55
-49.88
-63.28
-75.62
-82.80
-82.13
-73.23
-58.09
-40.21
-23.32
-9.91
-0.48
6.18
11.69
16.55
19.46
18.01
10.43
-2.58
-17.49
-29.50
-35.01
-33.57
-28.16
-23.58
-24.28
-32.90
-50.39
-76.80
-111.84
-154.19
-200.30
-243.73
-276.30
-291.06
-285.49
-262.92
-230.99
-197.96
-168.63
-142.58
-115.60
-83.28
-44.58
-2.98
35.33
64.93
83.96
94.87
102.48
111.25
123.19
137.62
152.33
165.30
175.61
183.37
189.13
193.29
195.99
197.25
197.17
195.87
193.40
189.77
185.12
179.89
174.62
169.63
164.75
159.30
152.48
143.85
133.70
123.05
113.35
105.91
101.37
99.39
98.72
97.70
94.88
89.48
81.51
71.41
59.72
46.93
33.61
20.73
9.70
1.96
-1.77
-2.08
-0.97
-1.08
-4.64
-12.53
-23.96
-36.98
-49.50
-60.26
-69.29
-77.78
-87.22
-98.45
-110.92
-122.66
-130.99
-133.79
-130.61
-122.92
-113.62
-105.67
-100.83
-99.12
-99.20
-99.29
-98.13
-95.18
-90.27
-83.08
-73.10
-60.41
-46.20
-32.73
-22.33
-15.86
-11.99
-7.84
-0.97
8.70
18.53
24.84
25.78
23.40
23.43
32.77
56.09
93.52
140.60
190.26
235.30
270.19
291.59
298.15
290.17
269.36
238.88
202.73
164.95
128.51
94.47
61.81
28.03
-9.99
-54.40
-104.94
-157.97
-206.67
-243.00
-260.67
-257.66
-237.22
-206.41
-173.19
-143.53
-120.03
-102.53
-89.68
-80.43
-74.37
-71.25
-70.41
-70.70
-71.12
-71.35
-71.79
-73.02
-75.18
-77.55
-78.81
-77.66
-73.32
-65.85
-56.01
-45.04
-34.32
-25.24
-18.94
-16.11
-16.75
-20.13
-24.87
-29.34
-32.03
-32.04
-29.25
-24.22
-17.95
-11.46
-5.47
-0.25
4.27
8.26
11.71
14.33
15.68
15.36
13.27
9.65
5.08
0.24
-4.22
-7.85
-10.39
-11.78
-12.11
-11.56
-10.36
-8.72
-6.71
-4.29
-1.35
2.13
5.97
9.70
12.71
14.42
14.54
13.19
10.81
7.96
5.15
2.67
0.69
-0.71
-1.40
-1.23
-0.14
1.73
3.95
5.86
6.77
6.23
4.12
0.79
-3.26
-7.54
-11.83
-16.19
-20.80
-25.68
-30.55
-34.73
-37.41
-37.97
-36.19
-32.31
-26.91
-20.68
-14.15
-7.63
-1.21
5.14
11.40
17.44
23.00
27.72
31.20
33.15
33.41
32.03
29.34
25.85
22.28
19.31
17.41
16.71
16.94
17.56
17.94
17.67
16.63
15.02
13.14
11.19
9.17
6.81
3.82
0.03
-4.45
-9.25
-13.82
-17.62
-20.22
-21.34
-20.82
-18.61
-14.75
-9.46
-3.13
3.72
10.57
16.99
22.69
27.51
31.36
34.23
36.14
37.24
37.81
38.11
38.30
38.35
38.05
37.11
35.33
32.71
29.50
26.10
22.95
20.47
19.01
18.69
19.45
20.90
22.38
23.08
22.22
19.38
14.67
8.82
2.90
-1.89
-4.63
-4.90
-2.77
1.27
6.56
12.46
18.46
24.17
29.34
33.71
37.02
39.02
39.48
38.30
35.55
31.46
26.53
21.38
16.66
12.91
10.44
9.26
9.16
9.78
10.79
11.95
13.09
14.04
14.58
14.46
13.51
11.68
9.12
6.08
2.76
-0.72
-4.36
-8.16
-12.02
-15.71
-18.87
-21.09
-22.03
-21.52
-19.59
-16.45
-12.45
-8.06
-3.91
-0.76
0.52
-0.87
-5.40
-12.90
-22.40
-32.16
-40.20
-44.98
-46.03
-44.23
-41.54
-40.33
-42.50
-48.83
-58.73
-70.41
-81.32
-88.88
-90.97
-86.42
-75.19
-58.43
-38.31
-17.69
0.39
13.27
19.17
17.73
10.09
-1.24
-13.05
-22.33
-27.24
-27.86
-26.09
-24.83
-26.46
-31.52
-38.09
-42.46
-40.81
-30.89
-12.82
11.34
38.68
66.42
92.05
112.93
126.01
128.29
117.94
95.47
64.06
28.81
-4.76
-32.17
-50.80
-59.97
-60.48
-54.02
-42.65
-28.39
-12.90
2.75
18.17
33.51
49.27
66.13
84.70
105.15
126.75
147.85
166.10
179.08
184.77
181.54
168.17
144.07
110.22
70.19
30.39
-1.46
-19.22
-21.11
-10.77
4.38
16.67
21.52
18.92
12.20
5.50
1.29
-0.50
-1.70
-4.47
-10.23
-19.34
-31.38
-45.35
-59.78
-72.65
-81.63
-84.61
-80.40
-69.17
-52.17
-31.22
-8.05
15.90
39.33
60.75
78.34
90.30
95.48
93.97
87.22
77.56
67.30
57.92
49.79
42.35
34.78
26.63
18.08
9.73
2.20
-4.33
-10.19
-16.05
-22.59
-30.24
-39.01
-48.55
-58.32
-67.73
-76.32
-83.74
-89.74
-93.97
-95.78
-94.31
-88.64
-78.16
-62.96
-43.96
-22.68
-0.85
20.05
38.99
55.42
68.99
79.43
86.47
89.90
89.78
86.54
80.94
74.02
66.84
60.29
54.90
50.73
47.40
44.27
40.66
36.19
30.92
25.34
20.20
16.25
14.01
13.57
14.62
16.45
18.14
18.77
17.68
14.75
10.44
5.69
1.52
-1.35
-2.83
-3.56
-4.65
-7.30
-12.25
-19.52
-28.35
-37.57
-46.06
-53.27
-59.35
-64.99
-70.92
-77.49
-84.42
-90.92
-96.01
-98.87
-99.01
-96.28
-90.70
-82.38
-71.59
-58.86
-44.99
-30.94
-17.66
-5.79
4.55
13.70
22.26
30.81
39.57
48.25
56.20
62.71
67.34
70.09
71.33
71.47
70.63
68.50
64.52
58.21
49.57
39.20
28.15
17.68
8.96
2.82
-0.39
-0.79
1.23
5.17
10.81
18.28
28.01
40.37
55.16
71.19
86.16
97.08
101.17
96.78
83.83
63.77
38.90
11.76
-15.20
-39.65
-59.47
-73.09
-80.07
-81.56
-80.19
-79.10
-80.56
-84.87
-90.27
-93.95
-93.73
-89.26
-82.18
-75.08
-69.96
-67.15
-65.16
-61.70
-54.95
-44.60
-31.91
-19.03
-7.83
0.98
7.93
14.14
20.25
25.63
28.42
26.39
18.23
4.54
-12.04
-27.72
-39.04
-44.22
-43.72
-39.86
-35.61
-33.35
-34.09
-37.37
-41.78
-45.74
-48.05
-48.09
-45.85
-41.72
-36.44
-31.14
-27.19
-26.00
-28.50
-34.73
-43.48
-52.53
-59.21
-61.32
-58.06
-50.33
-40.54
-31.60
-25.64
-22.95
-21.86
-19.31
-12.36
0.16
16.49
31.95
40.33
36.21
17.45
-13.50
-49.91
-82.75
-103.48
-106.29
-89.36
-54.62
-6.61
48.75
105.13
156.48
197.41
223.76
233.31
226.25
205.30
175.08
141.07
108.41
80.91
60.24
45.86
35.70
27.03
17.69
6.91
-4.71
-15.81
-25.21
-32.65
-38.87
-45.09
-52.30
-60.72
-69.67
-78.00
-84.45
-88.10
-88.51
-85.68
-79.92
-71.77
-61.88
-50.99
-39.81
-29.01
-19.19
-10.81
-4.24
0.38
3.15
4.46
4.89
5.11
5.63
6.69
8.15
9.64
10.67
10.77
9.72
7.50
4.36
0.78
-2.70
-5.55
-7.40
-8.21
-8.26
-8.09
-8.36
-9.59
-12.02
-15.46
-19.42
-23.16
-25.94
-27.24
-26.91
-25.30
-23.08
-20.97
-19.36
-18.14
-16.70
-14.42
-11.17
-7.52
-4.76
-4.25
-6.75
-12.03
-18.79
-25.00
-28.61
-28.23
-23.69
-16.10
-7.66
-0.76
2.89
2.83
-0.04
-3.84
-6.32
-5.61
-0.73
8.12
19.49
30.86
39.21
41.78
37.22
26.22
11.46
-3.51
-15.75
-24.20
-29.79
-34.09
-37.52
-37.95
-30.99
-12.02
21.09
65.95
115.80
161.51
195.06
212.23
213.34
202.06
183.23
160.87
137.46
114.28
92.16
71.98
54.34
39.13
25.30
11.31
-3.79
-19.51
-33.56
-42.72
-44.13
-36.65
-21.35
-1.10
20.41
39.68
54.12
62.27
63.88
59.88
52.29
43.95
37.82
35.96
38.73
44.44
49.97
52.04
48.49
39.06
25.28
9.84
-4.48
-15.63
-22.73
-25.88
-25.81
-23.28
-18.89
-13.22
-7.06
-1.54
1.96
2.18
-1.73
-9.96
-22.00
-36.44
-50.88
-61.99
-66.17
-60.70
-44.97
-21.12
6.45
32.60
53.16
65.99
70.90
68.76
60.59
47.27
29.82
9.84
-10.70
-30.35
-49.00
-68.04
-89.51
-114.60
-142.62
-171.01
-196.13
-214.51
-223.54
-221.64
-207.99
-182.58
-146.61
-102.94
-56.28
-12.38
23.26
47.03
58.12
58.65
52.73
45.11
39.69
38.45
41.10
45.64
49.38
50.30
47.91
43.29
38.31
34.52
32.22
30.28
26.83
20.37
10.76
-0.53
-11.01
-18.28
-21.19
-20.29
-17.55
-15.44
-15.91
-19.78
-26.76
-35.78
-45.49
-54.64
-62.22
-67.52
-70.17
-70.29
-68.42
-65.42
-62.01
-58.42
-54.13
-48.03
-38.88
-25.96
-9.49
9.33
28.53
45.94
59.74
68.94
73.60
74.70
73.68
71.92
70.07
67.83
64.11
57.67
47.85
35.17
21.29
8.40
-1.64
-7.99
-11.13
-12.47
-13.69
-16.06
-20.12
-25.74
-32.43
-39.66
-46.95
-53.82
-59.54
-63.19
-63.87
-61.09
-55.17
-47.33
-39.32
-32.82
-28.85
-27.46
-27.88
-29.00
-29.82
-29.83
-29.02
-27.73
-26.35
-25.16
-24.17
-23.11
-21.49
-18.69
-14.30
-8.26
-1.05
6.38
12.91
17.59
19.92
19.93
18.13
15.27
12.11
9.35
7.42
6.48
6.31
6.35
5.76
3.87
0.46
-3.94
-8.18
-10.93
-11.25
-9.02
-4.97
-0.36
3.60
6.14
7.12
6.83
5.73
4.19
2.44
0.69
-0.74
-1.39
-0.78
1.43
5.38
10.98
18.06
26.28
35.13
43.79
51.22
56.55
59.53
60.93
62.53
66.59
75.05
88.66
106.57
126.60
145.84
161.61
172.21
177.08
176.73
172.19
164.54
154.52
142.52
128.75
113.54
97.49
81.42
66.13
52.06
39.23
27.18
15.10
2.03
-12.89
-30.15
-49.56
-70.16
-90.35
-108.31
-122.58
-132.55
-138.65
-142.18
-144.67
-147.27
-150.26
-152.88
-153.63
-150.74
-142.85
-129.56
-111.67
-91.07
-70.23
-51.59
-37.03
-27.58
-23.39
-23.84
-27.78
-33.74
-40.33
-46.44
-51.59
-55.82
-59.49
-62.83
-65.68
-67.59
-68.17
-67.57
-66.50
-65.86
-65.99
-66.29
-65.22
-61.00
-52.52
-39.81
-23.97
-6.54
11.20
28.47
44.77
59.44
71.46
79.75
83.86
84.41
83.14
82.32
83.77
88.11
94.53
101.26
106.23
107.73
104.77
96.93
84.30
67.38
47.26
25.62
4.53
-13.99
-28.63
-39.14
-46.16
-50.68
-53.44
-54.58
-53.85
-51.08
-46.60
-41.27
-36.16
-32.19
-29.84
-29.15
-29.89
-31.71
-34.20
-36.92
-39.41
-41.35
-42.56
-42.95
-42.38
-40.57
-37.12
-31.70
-24.20
-14.94
-4.51
6.38
17.03
26.83
35.22
41.72
46.02
48.08
48.12
46.51
43.64
39.81
35.36
30.79
26.74
23.75
22.06
21.45
21.47
21.79
22.56
24.32
27.66
32.64
38.56
44.17
48.29
50.36
50.70
50.07
49.13
47.99
46.10
42.69
37.28
30.03
21.73
13.52
6.50
1.46
-1.24
-1.65
-0.23
2.28
4.98
7.03
7.97
7.76
6.71
5.22
3.48
1.37
-1.39
-4.93
-8.97
-12.93
-16.16
-18.34
-19.57
-20.31
-21.01
-21.77
-22.31
-22.13
-20.86
-18.50
-15.45
-12.23
-9.25
-6.60
-3.99
-0.96
2.93
7.85
13.56
19.44
24.62
28.24
29.75
29.12
26.89
24.07
21.79
20.93
21.81
24.10
27.01
29.66
31.39
31.99
31.74
31.28
31.59
33.97
39.86
50.44
66.11
85.88
107.29
126.86
141.02
147.14
144.21
132.99
115.69
95.34
75.21
58.26
46.62
41.15
41.21
44.87
49.42
52.25
51.42
46.07
36.32
22.95
7.18
-9.55
-25.70
-39.91
-51.35
-60.01
-66.71
-72.51
-78.05
-82.91
-85.62
-84.25
-77.40
-65.03
-48.71
-31.07
-14.88
-2.13
6.49
11.32
13.22
12.96
10.91
7.03
1.21
-6.46
-15.50
-25.05
-34.12
-41.83
-47.63
-51.45
-53.56
-54.49
-54.91
-55.63
-57.52
-61.43
-67.91
-76.87
-87.31
-97.41
-105.07
-108.62
-107.52
-102.61
-95.77
-89.10
-84.08
-81.01
-79.10
-76.97
-73.40
-67.80
-60.43
-52.10
-43.82
-36.40
-30.23
-25.21
-20.82
-16.32
-10.94
-4.25
3.62
11.87
19.24
24.36
26.21
24.46
19.53
12.48
4.77
-2.04
-6.67
-8.39
-7.27
-4.18
-0.44
2.65
4.33
4.51
3.62
2.09
0.05
-2.87
-7.25
-13.43
-21.20
-29.72
-37.84
-44.31
-48.12
-48.55
-45.21
-38.19
-28.14
-16.19
-3.64
8.75
21.10
34.43
50.12
68.96
90.38
112.35
131.89
146.04
152.87
151.86
143.83
130.36
113.17
93.74
73.22
52.56
32.74
14.92
0.42
-9.59
-14.47
-14.53
-11.02
-5.83
-0.80
2.85
4.87
5.89
6.98
9.14
12.91
18.29
24.76
31.51
37.74
42.81
46.36
48.23
48.38
46.74
43.18
37.62
30.21
21.24
11.04
-0.21
-12.32
-24.58
-35.48
-42.84
-44.58
-39.94
-30.09
-18.07
-7.68
-2.24
-3.63
-12.21
-27.19
-47.09
-70.01
-93.50
-114.75
-131.00
-140.30
-142.02
-136.86
-126.48
-112.96
-98.46
-84.97
-74.04
-66.34
-61.42
-57.74
-53.43
-47.26
-39.33
-31.02
-24.14
-19.91
-18.34
-18.41
-18.82
-18.72
-18.01
-17.05
-16.17
-15.27
-13.95
-11.81
-8.84
-5.58
-2.89
-1.61
-2.10
-4.14
-6.92
-9.42
-10.68
-10.24
-8.28
-5.56
-3.12
-1.95
-2.65
-5.23
-9.22
-13.72
-17.68
-20.07
-20.15
-17.60
-12.71
-6.29
0.52
6.60
11.28
14.44
16.45
17.93
19.38
21.03
22.85
24.68
26.26
27.35
27.68
27.02
25.34
22.82
19.97
17.40
15.60
14.72
14.52
14.50
14.19
13.33
11.91
10.17
8.35
6.63
5.02
3.40
1.53
-0.83
-3.77
-7.14
-10.50
-13.24
-14.71
-14.52
-12.64
-9.34
-5.06
-0.15
5.18
10.85
16.63
22.10
26.73
30.02
31.81
32.38
32.33
32.29
32.65
33.39
34.13
34.38
33.76
32.11
29.60
26.53
23.28
20.12
17.09
14.00
10.52
6.40
1.63
-3.48
-8.47
-12.95
-16.81
-20.20
-23.32
-26.08
-28.03
-28.39
-26.45
-21.89
-15.04
-6.73
1.92
9.92
16.68
22.05
26.18
29.32
31.57
32.93
33.29
32.66
31.25
29.41
27.55
25.90
24.45
23.02
21.39
19.50
17.44
15.42
13.51
11.66
9.65
7.26
4.41
1.23
-2.00
-5.01
-7.67
-10.14
-12.75
-15.85
-19.54
-23.54
-27.22
-29.73
-30.31
-28.52
-24.34
-18.15
-10.61
-2.43
5.75
13.43
20.32
26.20
30.90
34.23
36.00
36.14
34.79
32.35
29.41
26.53
24.07
22.08
20.38
18.73
17.03
15.42
14.08
13.16
12.51
11.76
10.42
8.17
4.99
1.20
-2.66
-6.16
-9.19
-12.01
-15.13
-19.02
-23.82
-29.20
-34.43
-38.62
-41.06
-41.44
-39.89
-36.84
-32.71
-27.83
-22.32
-16.33
-10.10
-4.12
0.97
4.55
6.22
5.96
4.12
1.28
-1.93
-4.95
-7.37
-8.95
-9.47
-8.77
-6.64
-2.90
2.55
9.64
18.07
27.34
36.74
45.53
53.06
58.85
62.63
64.30
63.84
61.34
57.02
51.29
44.79
38.16
31.90
26.29
21.58
18.26
17.19
19.32
25.11
33.88
43.62
51.55
55.29
53.95
48.74
42.29
37.43
35.73
36.79
38.47
38.07
33.71
25.24
14.26
3.48
-4.42
-7.69
-6.02
-0.36
7.63
16.20
23.91
29.87
33.70
35.33
34.94
32.86
29.48
25.23
20.42
15.21
9.57
3.49
-2.86
-9.06
-14.40
-18.15
-19.76
-19.09
-16.49
-12.62
-8.29
-4.14
-0.52
2.64
5.67
9.07
13.18
18.01
23.12
27.66
30.63
31.13
28.60
23.00
14.76
4.74
-5.99
-16.34
-25.45
-32.81
-38.41
-42.59
-45.81
-48.46
-50.83
-53.21
-56.03
-59.93
-65.58
-73.62
-84.59
-98.84
-116.43
-136.76
-158.17
-177.74
-191.66
-196.26
-189.50
-172.07
-147.52
-120.92
-97.07
-78.69
-65.90
-56.96
-49.71
-42.90
-36.43
-30.77
-25.93
-20.89
-14.02
-3.99
9.29
24.39
39.10
51.42
60.52
66.74
71.03
74.28
76.81
78.40
78.70
77.58
75.33
72.34
68.90
64.90
59.92
53.47
45.35
35.98
26.42
18.12
12.48
10.38
11.95
16.65
23.52
31.55
39.90
47.92
54.91
60.02
62.34
61.05
55.80
46.83
35.01
21.69
8.45
-3.19
-12.08
-17.61
-19.84
-19.30
-16.85
-13.42
-9.83
-6.65
-4.16
-2.36
-1.04
0.06
1.10
2.07
2.85
3.28
3.24
2.64
1.15
-1.96
-7.67
-16.76
-29.12
-43.30
-56.69
-66.15
-69.11
-64.33
-52.32
-35.07
-15.35
4.18
21.67
36.33
48.30
58.15
66.43
73.49
79.40
84.19
87.96
91.00
93.52
95.53
96.80
96.96
95.73
92.88
87.97
80.05
67.70
49.51
24.96
-4.93
-37.45
-68.84
-95.38
-114.47
-125.11
-127.89
-124.44
-116.76
-106.90
-96.74
-87.86
-81.29
-77.25
-74.97
-72.90
-69.27
-62.77
-53.03
-40.69
-26.98
-13.04
0.74
15.12
31.98
54.13
84.67
125.86
177.79
237.25
297.68
350.48
387.62
404.35
400.90
382.06
354.91
325.86
298.36
272.36
245.47
214.92
179.11
138.18
93.37
46.14
-2.42
-51.75
-101.50
-151.38
-201.34
-252.00
-304.74
-360.95
-420.46
-479.92
-532.49
-569.24
-582.20
-567.38
-526.50
-466.38
-396.55
-326.12
-261.57
-205.95
-159.50
-120.84
-88.02
-59.33
-33.72
-11.04
7.86
21.42
28.04
27.04
19.19
6.83
-6.58
-17.50
-23.38
-23.34
-18.23
-10.14
-1.50
5.75
10.63
13.15
14.02
14.28
15.00
17.10
21.09
26.79
33.25
38.90
42.13
41.96
38.41
32.47
25.67
19.35
14.31
10.63
7.91
5.51
2.89
-0.27
-3.97
-7.92
-11.53
-14.07
-14.89
-13.73
-10.86
-7.10
-3.53
-1.15
-0.51
-1.54
-3.64
-5.95
-7.67
-8.29
-7.70
-6.10
-3.88
-1.43
0.96
3.18
5.20
7.03
8.58
9.63
9.80
8.80
6.59
3.54
0.34
-2.20
-3.56
-3.62
-2.62
-0.81
1.94
6.14
12.41
20.99
31.22
41.58
49.98
54.44
53.69
47.47
36.57
22.59
7.61
-6.21
-17.04
-23.75
-26.10
-24.71
-20.78
-15.69
-10.60
-6.22
-2.70
0.33
3.62
8.03
14.12
21.76
30.05
37.45
42.35
43.59
40.84
34.58
25.91
16.26
7.07
-0.34
-5.00
-6.50
-5.09
-1.50
3.43
9.06
15.15
21.59
28.02
33.63
37.38
38.50
36.97
33.61
29.66
26.10
23.29
20.95
18.62
16.06
13.45
11.18
9.59
8.68
8.09
7.41
6.42
5.37
4.90
5.76
8.42
12.74
17.91
22.82
26.61
